Time,P0,P1,P2,P3,P4,P5,P6,P7,P8,P9,P10,P11,P12,P13,P14,P15,P16,P17,P18,P19,P20,P21,P22,P23,P24,P25,P26,P27,P28,P29,P30,P31,ECG,AX0,AY0,AZ0,QW0,QX0,QY0,QZ0,GX0,GY0,GZ0,AX1,AY1,AZ1,QW1,QX1,QY1,QZ1,GX1,GY1,GZ1
2022-05-06 12:22:55.474241-07:00,1930.2,619.7,1170.9,1532.9,1019.4,1138.4,1248.0,1449.7,3443.1,3445.5,1484.7,1496.7,1545.0,3441.9,952.6,1412.2,3446.7,3449.1,738.9,1391.2,1008.2,589.9,1314.2,1813.9,3443.1,3444.3,702.8,1021.1,1309.7,1458.9,1181.5,1149.8,-3.0,1.0,10.0,9424.0,13329.0,-751.0,-1182.0,-3.0,-6.0,-21.0,-7.0,-16.0,9.0,11330.0,11287.0,2115.0,2861.0,9.0,15.0,-4.0,1.0
2022-05-06 12:22:55.504890-07:00,1930.2,620.5,1174.4,1545.0,1019.4,1138.4,1248.0,1436.9,3443.1,3449.1,1479.2,1500.4,1545.0,3441.9,952.6,1403.0,3449.1,3449.1,738.9,1391.2,1004.8,588.3,1308.8,1813.9,3447.9,3444.3,702.8,1021.1,1316.0,1454.3,1184.1,1149.8,-4.0,-3.0,14.0,9421.0,13332.0,-743.0,-1177.0,21.0,66.0,17.0,-11.0,-11.0,7.0,11322.0,11293.0,2118.0,2870.0,24.0,24.0,44.0,1.0
2022-05-06 12:22:55.534976-07:00,1936.1,620.5,1174.4,1545.0,1024.5,1141.0,1244.4,1436.9,3446.7,3449.1,1479.2,1500.4,1538.5,3449.1,944.9,1403.0,3449.1,3437.0,731.5,1387.5,1004.8,588.3,1308.8,1815.8,3447.9,3449.1,705.2,1020.2,1316.0,1454.3,1184.1,1139.2,0.0,3.0,-12.0,9428.0,13329.0,-737.0,-1150.0,-31.0,50.0,31.0,-6.0,-10.0,0.0,11315.0,11296.0,2109.0,2892.0,-12.0,12.0,49.0,1.0
2022-05-06 12:22:55.625164-07:00,1936.1,614.1,1177.0,1530.1,1024.5,1141.0,1244.4,1438.7,3446.7,3439.5,1478.3,1494.0,1538.5,3449.1,944.9,1408.5,3433.4,3437.0,731.5,1387.5,1000.5,589.1,1307.9,1815.8,3438.2,3449.1,705.2,1020.2,1311.5,1457.1,1185.9,1139.2,3.0,12.0,-8.0,9432.0,13327.0,-742.0,-1145.0,-11.0,-14.0,7.0,-3.0,-5.0,0.0,11316.0,11293.0,2099.0,2903.0,-26.0,-7.0,6.0,1.0
2022-05-06 12:22:55.654665-07:00,1930.2,618.1,1177.0,1530.1,1028.0,1144.5,1247.1,1438.7,3441.9,3449.1,1478.3,1494.0,1540.3,3443.1,947.5,1408.5,3433.4,3439.5,737.3,1383.9,1000.5,589.1,1316.0,1817.8,3438.2,3443.1,700.3,1021.9,1311.5,1457.1,1197.4,1148.0,1.0,0.0,5.0,9437.0,13323.0,-743.0,-1153.0,-14.0,-16.0,-10.0,-2.0,-13.0,8.0,11323.0,11287.0,2098.0,2903.0,-9.0,1.0,-16.0,1.0
2022-05-06 12:22:55.714312-07:00,1930.2,618.1,1173.5,1519.9,1028.0,1144.5,1253.3,1438.7,3441.9,3449.1,1485.6,1493.0,1540.3,3443.1,949.2,1404.0,3438.2,3438.2,737.3,1383.9,1005.6,585.1,1316.0,1817.8,3449.1,3447.9,700.3,1021.9,1312.4,1452.5,1197.4,1148.0,-2.0,7.0,3.0,9438.0,13322.0,-745.0,-1155.0,3.0,-6.0,-4.0,-10.0,-9.0,3.0,11324.0,11286.0,2101.0,2900.0,-2.0,8.0,-7.0,1.0
2022-05-06 12:22:55.774620-07:00,1927.2,618.9,1173.5,1519.9,1022.8,1134.0,1253.3,1438.7,3428.6,3443.1,1485.6,1493.0,1545.0,3428.6,949.2,1404.0,3438.2,3438.2,735.6,1386.6,1005.6,585.1,1311.5,1826.5,3449.1,3447.9,697.0,1021.9,1312.4,1452.5,1188.5,1135.7,-4.0,0.0,4.0,9439.0,13321.0,-745.0,-1155.0,6.0,2.0,4.0,-11.0,-13.0,5.0,11324.0,11286.0,2101.0,2900.0,-2.0,-3.0,2.0,1.0
2022-05-06 12:22:55.834604-07:00,1927.2,618.9,1175.3,1519.0,1022.8,1134.0,1252.4,1438.7,3428.6,3443.1,1471.8,1500.4,1545.0,3428.6,950.0,1414.0,3444.3,3440.7,735.6,1386.6,1000.5,586.7,1311.5,1826.5,3447.9,3438.2,697.0,1021.9,1302.5,1446.0,1188.5,1135.7,-2.0,2.0,0.0,9440.0,13320.0,-746.0,-1156.0,-14.0,-13.0,4.0,-14.0,-9.0,-2.0,11324.0,11286.0,2101.0,2900.0,1.0,-2.0,2.0,1.0
2022-05-06 12:22:55.865039-07:00,1937.1,619.7,1175.3,1519.0,1027.1,1144.5,1252.4,1438.7,3445.5,3445.5,1471.8,1500.4,1545.0,3444.3,950.0,1414.0,3444.3,3440.7,736.5,1385.7,1000.5,586.7,1307.0,1812.9,3447.9,3438.2,698.7,1024.5,1302.5,1446.0,1189.4,1154.2,0.0,5.0,5.0,9438.0,13321.0,-748.0,-1162.0,-7.0,-8.0,-11.0,-7.0,-5.0,7.0,11325.0,11286.0,2101.0,2900.0,-10.0,-6.0,-7.0,1.0
2022-05-06 12:22:55.894449-07:00,1937.1,619.7,1177.0,1523.6,1027.1,1144.5,1252.4,1430.5,3445.5,3445.5,1487.5,1496.7,1545.0,3444.3,956.0,1415.8,3441.9,3432.2,736.5,1385.7,998.7,589.9,1307.0,1812.9,3439.5,3444.3,698.7,1024.5,1312.4,1448.8,1189.4,1154.2,-5.0,5.0,2.0,9439.0,13320.0,-748.0,-1163.0,14.0,-8.0,-3.0,-8.0,-12.0,4.0,11324.0,11286.0,2101.0,2900.0,13.0,3.0,-3.0,1.0
2022-05-06 12:22:55.984256-07:00,1924.3,622.2,1175.3,1523.6,1023.7,1157.7,1252.4,1430.5,3455.2,3439.5,1478.3,1496.7,1548.7,3434.6,956.0,1415.8,3441.9,3432.2,734.0,1382.1,998.7,588.3,1300.7,1813.9,3439.5,3444.3,696.2,1021.9,1312.4,1456.2,1186.7,1155.9,0.0,0.0,8.0,9438.0,13321.0,-750.0,-1164.0,10.0,5.0,-9.0,-7.0,-13.0,6.0,11322.0,11288.0,2101.0,2900.0,2.0,4.0,3.0,1.0
2022-05-06 12:22:56.015187-07:00,1924.3,622.2,1175.3,1528.3,1023.7,1140.1,1254.2,1444.2,3455.2,3439.5,1478.3,1491.2,1548.7,3443.1,956.8,1412.2,3444.3,3439.5,736.5,1382.1,1002.2,588.3,1300.7,1813.9,3444.3,3433.4,702.8,1021.9,1312.4,1456.2,1186.7,1155.9,0.0,0.0,1.0,9438.0,13321.0,-749.0,-1165.0,2.0,3.0,7.0,-8.0,-11.0,2.0,11322.0,11288.0,2102.0,2900.0,10.0,2.0,3.0,1.0
2022-05-06 12:22:56.044679-07:00,1943.0,620.5,1176.2,1528.3,1017.6,1140.1,1254.2,1444.2,3438.2,3434.6,1483.8,1491.2,1544.1,3443.1,956.8,1412.2,3444.3,3439.5,736.5,1382.1,1002.2,592.3,1302.5,1818.7,3444.3,3433.4,702.8,1018.5,1312.4,1455.2,1182.3,1132.2,-2.0,2.0,2.0,9438.0,13321.0,-749.0,-1165.0,-1.0,-6.0,-8.0,-6.0,-10.0,6.0,11322.0,11288.0,2102.0,2900.0,2.0,5.0,-5.0,1.0
2022-05-06 12:22:56.224474-07:00,1943.0,620.5,1176.2,1526.4,1017.6,1132.2,1254.2,1445.1,3438.2,3434.6,1483.8,1492.1,1544.1,3438.2,955.1,1404.0,3440.7,3433.4,738.1,1382.1,1002.2,592.3,1302.5,1818.7,3440.7,3441.9,701.1,1018.5,1304.3,1455.2,1182.3,1132.2,-3.0,4.0,9.0,9436.0,13322.0,-750.0,-1165.0,11.0,9.0,-1.0,-10.0,-9.0,2.0,11320.0,11290.0,2103.0,2900.0,11.0,9.0,-5.0,1.0
2022-05-06 12:22:56.226042-07:00,1929.2,615.7,1173.5,1526.4,1025.4,1132.2,1254.2,1445.1,3444.3,3435.8,1485.6,1492.1,1539.4,3438.2,955.1,1404.0,3440.7,3433.4,738.1,1381.2,1002.2,586.7,1304.3,1819.7,3440.7,3441.9,701.1,1015.9,1304.3,1450.6,1177.0,1139.2,-4.0,0.0,-1.0,9436.0,13323.0,-748.0,-1160.0,-4.0,-2.0,11.0,-10.0,-15.0,4.0,11320.0,11290.0,2103.0,2900.0,4.0,6.0,-2.0,1.0
2022-05-06 12:22:56.254452-07:00,1929.2,615.7,1173.5,1537.6,1019.4,1142.7,1253.3,1440.5,3444.3,3435.8,1485.6,1494.9,1545.0,3446.7,948.3,1410.3,3441.9,3428.6,736.5,1383.0,1002.2,586.7,1304.3,1819.7,3444.3,3441.9,704.4,1019.4,1317.8,1450.6,1177.0,1139.2,-4.0,8.0,1.0,9435.0,13323.0,-751.0,-1163.0,-16.0,-17.0,-6.0,-10.0,-12.0,6.0,11320.0,11289.0,2103.0,2901.0,-14.0,-6.0,0.0,1.0
2022-05-06 12:22:56.255460-07:00,1926.2,618.1,1175.3,1527.3,1019.4,1142.7,1253.3,1440.5,3441.9,3445.5,1479.2,1492.1,1545.0,3446.7,948.3,1410.3,3441.9,3428.6,736.5,1383.0,1000.5,589.9,1303.4,1818.7,3444.3,3441.9,704.4,1019.4,1310.6,1467.2,1186.7,1141.0,-3.0,6.0,6.0,9439.0,13320.0,-754.0,-1164.0,1.0,-1.0,10.0,-8.0,-11.0,9.0,11322.0,11287.0,2103.0,2901.0,-1.0,0.0,4.0,1.0
2022-05-06 12:22:56.284213-07:00,1926.2,618.1,1175.3,1527.3,1021.9,1152.4,1245.3,1436.0,3441.9,3445.5,1479.2,1492.1,1545.0,3434.6,950.9,1406.7,3441.9,3443.1,735.6,1385.7,1000.5,589.9,1303.4,1818.7,3441.9,3441.9,690.5,1012.5,1310.6,1467.2,1186.7,1141.0,-3.0,2.0,3.0,9436.0,13322.0,-751.0,-1166.0,9.0,1.0,-13.0,-10.0,-8.0,2.0,11320.0,11290.0,2104.0,2901.0,18.0,8.0,0.0,1.0
2022-05-06 12:22:56.344688-07:00,1930.2,618.9,1170.9,1523.6,1021.9,1152.4,1245.3,1436.0,3450.4,3446.7,1485.6,1484.7,1545.0,3434.6,950.9,1406.7,3441.9,3443.1,735.6,1385.7,1003.0,589.1,1306.1,1818.7,3441.9,3441.9,690.5,1012.5,1317.8,1454.3,1186.7,1144.5,-1.0,5.0,-1.0,9438.0,13321.0,-746.0,-1161.0,-11.0,15.0,2.0,-9.0,-9.0,4.0,11318.0,11291.0,2104.0,2903.0,-5.0,2.0,7.0,1.0
2022-05-06 12:22:56.404731-07:00,1930.2,618.9,1170.9,1523.6,1019.4,1141.9,1238.2,1440.5,3450.4,3446.7,1485.6,1484.7,1548.7,3438.2,945.8,1405.8,3432.2,3439.5,738.1,1382.1,1003.0,589.1,1306.1,1818.7,3441.9,3447.9,700.3,1014.2,1317.8,1454.3,1186.7,1144.5,-1.0,4.0,1.0,9436.0,13322.0,-749.0,-1166.0,1.0,-21.0,-5.0,-5.0,-11.0,2.0,11319.0,11291.0,2103.0,2902.0,-7.0,-7.0,-4.0,1.0
2022-05-06 12:22:56.494500-07:00,1922.3,618.1,1182.3,1518.0,1019.4,1141.9,1238.2,1440.5,3441.9,3443.1,1470.0,1496.7,1548.7,3438.2,945.8,1405.8,3432.2,3439.5,738.1,1382.1,1001.3,589.1,1307.0,1812.9,3441.9,3447.9,700.3,1014.2,1311.5,1443.3,1185.0,1145.4,-2.0,-5.0,10.0,9439.0,13320.0,-753.0,-1169.0,1.0,-1.0,11.0,-11.0,-12.0,9.0,11320.0,11290.0,2102.0,2902.0,-10.0,-3.0,5.0,1.0
2022-05-06 12:22:56.495500-07:00,1928.2,618.1,1182.3,1518.0,1030.6,1141.0,1242.6,1442.4,3444.3,3443.1,1470.0,1496.7,1559.0,3445.5,953.4,1404.9,3434.6,3440.7,738.1,1383.0,1001.3,589.1,1307.0,1821.6,3449.1,3443.1,699.5,1020.2,1311.5,1443.3,1185.0,1145.4,-2.0,5.0,2.0,9439.0,13320.0,-750.0,-1166.0,8.0,17.0,-7.0,-7.0,-16.0,8.0,11320.0,11289.0,2102.0,2902.0,7.0,5.0,-4.0,1.0
2022-05-06 12:22:56.584684-07:00,1928.2,621.4,1176.2,1525.5,1030.6,1141.0,1242.6,1429.5,3444.3,3445.5,1481.9,1498.6,1559.0,3445.5,953.4,1403.0,3427.4,3440.7,738.1,1383.0,1000.5,587.5,1307.0,1821.6,3445.5,3443.1,699.5,1020.2,1312.4,1447.0,1181.5,1145.4,0.0,0.0,1.0,9435.0,13323.0,-749.0,-1166.0,2.0,1.0,4.0,-10.0,-12.0,5.0,11315.0,11294.0,2104.0,2902.0,10.0,7.0,-4.0,1.0
2022-05-06 12:22:56.586904-07:00,1916.4,621.4,1176.2,1525.5,1017.6,1141.9,1253.3,1429.5,3447.9,3445.5,1481.9,1498.6,1547.8,3445.5,950.0,1403.0,3427.4,3433.4,738.1,1383.0,1000.5,587.5,1307.0,1818.7,3445.5,3441.9,704.4,1012.5,1312.4,1447.0,1181.5,1137.5,-1.0,0.0,1.0,9432.0,13325.0,-749.0,-1166.0,22.0,2.0,4.0,-9.0,-10.0,3.0,11315.0,11294.0,2103.0,2903.0,9.0,-2.0,10.0,1.0
2022-05-06 12:22:56.704945-07:00,1916.4,618.1,1178.8,1541.3,1017.6,1141.9,1253.3,1441.5,3447.9,3446.7,1477.3,1491.2,1547.8,3445.5,950.0,1408.5,3438.2,3433.4,738.1,1383.0,998.7,592.3,1307.0,1818.7,3445.5,3441.9,704.4,1012.5,1297.2,1451.6,1185.0,1137.5,-3.0,3.0,1.0,9435.0,13323.0,-749.0,-1166.0,-15.0,-7.0,-4.0,-12.0,-11.0,6.0,11315.0,11294.0,2103.0,2903.0,-11.0,0.0,-3.0,1.0
2022-05-06 12:22:56.706122-07:00,1921.3,618.1,1178.8,1541.3,1021.1,1140.1,1243.5,1441.5,3439.5,3446.7,1477.3,1491.2,1540.3,3450.4,963.7,1408.5,3438.2,3439.5,740.6,1384.8,998.7,592.3,1307.0,1818.7,3445.5,3449.1,697.9,1024.5,1297.2,1451.6,1185.0,1143.6,-4.0,0.0,9.0,9435.0,13323.0,-751.0,-1169.0,-5.0,-6.0,6.0,-10.0,-13.0,8.0,11316.0,11293.0,2103.0,2903.0,-7.0,0.0,1.0,1.0
2022-05-06 12:22:56.765201-07:00,1921.3,610.8,1177.9,1536.6,1021.1,1140.1,1243.5,1435.0,3439.5,3443.1,1476.4,1494.0,1540.3,3450.4,963.7,1416.7,3447.9,3439.5,740.6,1384.8,1001.3,583.5,1307.0,1818.7,3450.4,3449.1,697.9,1024.5,1313.3,1453.4,1181.5,1143.6,0.0,4.0,3.0,9435.0,13323.0,-751.0,-1169.0,-3.0,0.0,-4.0,-5.0,-10.0,4.0,11316.0,11293.0,2103.0,2903.0,-3.0,-2.0,-1.0,1.0
2022-05-06 12:22:56.824592-07:00,1923.3,624.6,1177.9,1536.6,1019.4,1140.1,1241.7,1435.0,3441.9,3449.1,1476.4,1494.0,1545.0,3446.7,949.2,1416.7,3447.9,3440.7,737.3,1386.6,1001.3,583.5,1307.0,1813.9,3450.4,3449.1,694.6,1013.3,1313.3,1453.4,1185.9,1148.9,-2.0,0.0,9.0,9435.0,13323.0,-751.0,-1169.0,-1.0,-6.0,12.0,-11.0,-15.0,6.0,11316.0,11293.0,2103.0,2903.0,-3.0,-3.0,3.0,1.0
2022-05-06 12:22:56.825848-07:00,1923.3,624.6,1169.1,1529.2,1019.4,1140.1,1245.3,1441.5,3441.9,3449.1,1478.3,1496.7,1545.0,3446.7,953.4,1404.9,3439.5,3444.3,737.3,1386.6,1009.9,588.3,1307.0,1813.9,3449.1,3452.8,694.6,1013.3,1313.3,1447.9,1185.9,1148.9,0.0,4.0,14.0,9434.0,13323.0,-755.0,-1165.0,15.0,28.0,13.0,-6.0,-11.0,7.0,11314.0,11295.0,2098.0,2908.0,7.0,5.0,32.0,1.0
2022-05-06 12:22:56.915234-07:00,1933.1,617.3,1169.1,1529.2,1022.8,1142.7,1245.3,1441.5,3437.0,3446.7,1478.3,1496.7,1548.7,3441.9,953.4,1404.9,3439.5,3444.3,733.2,1384.8,1009.9,588.3,1309.7,1824.6,3449.1,3452.8,701.1,1017.6,1313.3,1447.9,1181.5,1143.6,-2.0,7.0,-4.0,9434.0,13325.0,-753.0,-1148.0,7.0,29.0,14.0,-7.0,-8.0,0.0,11308.0,11298.0,2093.0,2919.0,13.0,13.0,18.0,1.0
2022-05-06 12:22:56.975360-07:00,1933.1,617.3,1172.6,1530.1,1022.8,1142.7,1243.5,1435.0,3437.0,3446.7,1473.6,1500.4,1548.7,3441.9,951.7,1400.3,3437.0,3444.3,733.2,1384.8,1001.3,589.1,1309.7,1824.6,3438.2,3447.9,701.1,1017.6,1316.0,1457.1,1181.5,1143.6,-3.0,5.0,-1.0,9431.0,13327.0,-752.0,-1145.0,26.0,-22.0,-14.0,-10.0,-11.0,0.0,11306.0,11300.0,2094.0,2921.0,9.0,-7.0,-1.0,1.0
2022-05-06 12:22:56.976449-07:00,1919.3,616.5,1172.6,1530.1,1018.5,1131.4,1243.5,1435.0,3437.0,3443.1,1473.6,1500.4,1563.7,3434.6,951.7,1400.3,3437.0,3444.3,744.7,1374.8,1001.3,589.1,1307.0,1817.8,3438.2,3447.9,705.2,1017.6,1316.0,1457.1,1185.9,1149.8,-1.0,-6.0,7.0,9426.0,13330.0,-752.0,-1153.0,2.0,-2.0,0.0,-10.0,-13.0,2.0,11306.0,11301.0,2092.0,2919.0,1.0,-4.0,1.0,1.0
2022-05-06 12:22:57.124639-07:00,1919.3,616.5,1174.4,1521.8,1018.5,1140.1,1239.9,1444.2,3437.0,3443.1,1476.4,1492.1,1563.7,3438.2,945.8,1409.4,3443.1,3449.1,744.7,1374.8,1001.3,590.7,1307.0,1817.8,3443.1,3437.0,701.9,1017.6,1308.8,1448.8,1185.9,1149.8,0.0,1.0,4.0,9426.0,13330.0,-752.0,-1153.0,6.0,-4.0,-2.0,-9.0,-10.0,0.0,11306.0,11301.0,2091.0,2919.0,7.0,4.0,10.0,1.0
2022-05-06 12:22:57.125749-07:00,1932.1,616.5,1176.2,1521.8,1022.8,1140.1,1239.9,1444.2,3449.1,3444.3,1475.5,1492.1,1548.7,3438.2,945.8,1409.4,3443.1,3449.1,744.7,1382.1,1001.3,583.5,1307.0,1818.7,3443.1,3437.0,701.9,1014.2,1308.8,1452.5,1184.1,1147.1,-7.0,3.0,7.0,9424.0,13331.0,-752.0,-1153.0,17.0,7.0,3.0,-12.0,-13.0,7.0,11305.0,11302.0,2092.0,2919.0,10.0,2.0,4.0,1.0
2022-05-06 12:22:57.127619-07:00,1932.1,616.5,1176.2,1525.5,1022.8,1137.5,1248.8,1432.3,3449.1,3444.3,1475.5,1494.9,1548.7,3452.8,939.0,1414.0,3446.7,3435.8,735.6,1382.1,1002.2,583.5,1307.0,1818.7,3449.1,3438.2,700.3,1014.2,1309.7,1452.5,1184.1,1147.1,-2.0,2.0,4.0,9416.0,13337.0,-752.0,-1151.0,25.0,17.0,8.0,-4.0,-10.0,6.0,11296.0,11310.0,2092.0,2923.0,29.0,16.0,17.0,1.0
2022-05-06 12:22:57.185191-07:00,1919.3,614.1,1168.2,1525.5,1020.2,1137.5,1248.8,1432.3,3449.1,3445.5,1481.9,1494.9,1542.2,3452.8,939.0,1414.0,3446.7,3435.8,735.6,1378.5,1002.2,589.1,1303.4,1813.9,3449.1,3438.2,700.3,1019.4,1309.7,1453.4,1184.1,1148.9,-3.0,3.0,-6.0,9414.0,13340.0,-748.0,-1144.0,11.0,4.0,-4.0,-5.0,-10.0,0.0,11291.0,11313.0,2094.0,2928.0,2.0,-2.0,-5.0,1.0
2022-05-06 12:22:57.274619-07:00,1919.3,614.1,1168.2,1534.8,1020.2,1135.7,1251.5,1422.2,3449.1,3445.5,1481.9,1494.0,1542.2,3443.1,956.0,1406.7,3435.8,3437.0,742.2,1378.5,1000.5,589.1,1303.4,1813.9,3444.3,3438.2,706.0,1019.4,1312.4,1453.4,1184.1,1148.9,-3.0,-4.0,14.0,9411.0,13341.0,-750.0,-1147.0,-22.0,-1.0,16.0,-14.0,-12.0,9.0,11292.0,11312.0,2093.0,2929.0,-13.0,-1.0,11.0,1.0
2022-05-06 12:22:57.275861-07:00,1923.3,627.0,1174.4,1534.8,1021.1,1135.7,1251.5,1422.2,3440.7,3447.9,1482.9,1494.0,1540.3,3443.1,956.0,1406.7,3435.8,3437.0,742.2,1382.1,1000.5,589.1,1310.6,1811.9,3444.3,3438.2,706.0,1015.1,1312.4,1457.1,1179.7,1145.4,-2.0,21.0,0.0,9415.0,13339.0,-755.0,-1144.0,1.0,2.0,-10.0,-9.0,-1.0,1.0,11292.0,11312.0,2089.0,2933.0,5.0,-1.0,4.0,1.0
2022-05-06 12:22:57.365221-07:00,1923.3,627.0,1174.4,1522.7,1018.5,1138.4,1243.5,1433.2,3440.7,3447.9,1482.9,1491.2,1536.6,3445.5,951.7,1407.6,3439.5,3443.1,743.0,1377.5,998.7,589.1,1310.6,1811.9,3440.7,3450.4,701.1,1022.8,1310.6,1457.1,1179.7,1145.4,-2.0,-2.0,3.0,9414.0,13339.0,-751.0,-1150.0,4.0,-27.0,-4.0,-10.0,-10.0,2.0,11292.0,11312.0,2089.0,2933.0,1.0,-2.0,-2.0,1.0
2022-05-06 12:22:57.395306-07:00,1931.1,615.7,1181.5,1528.3,1018.5,1138.4,1243.5,1433.2,3438.2,3450.4,1485.6,1492.1,1536.6,3445.5,951.7,1407.6,3439.5,3443.1,743.0,1377.5,999.6,589.9,1310.6,1822.6,3440.7,3450.4,701.1,1022.8,1307.9,1458.9,1193.8,1139.2,0.0,10.0,0.0,9419.0,13335.0,-754.0,-1155.0,-22.0,-8.0,-8.0,-6.0,-8.0,3.0,11296.0,11308.0,2088.0,2934.0,-24.0,-3.0,1.0,1.0
2022-05-06 12:22:57.484276-07:00,1931.1,615.7,1181.5,1528.3,1022.8,1128.7,1249.7,1448.8,3438.2,3450.4,1485.6,1492.1,1545.0,3433.4,951.7,1408.5,3444.3,3444.3,732.3,1375.7,999.6,589.9,1310.6,1822.6,3444.3,3445.5,695.4,1014.2,1307.9,1458.9,1193.8,1139.2,1.0,8.0,2.0,9420.0,13333.0,-751.0,-1168.0,-6.0,-37.0,-50.0,-6.0,-16.0,7.0,11298.0,11306.0,2087.0,2934.0,-7.0,-9.0,-8.0,1.0
2022-05-06 12:22:57.485820-07:00,1930.2,614.1,1167.4,1528.3,1022.8,1128.7,1249.7,1448.8,3450.4,3451.6,1476.4,1495.8,1545.0,3433.4,951.7,1408.5,3444.3,3444.3,732.3,1375.7,1000.5,588.3,1310.6,1817.8,3444.3,3445.5,695.4,1014.2,1307.9,1448.8,1187.6,1141.9,2.0,-4.0,9.0,9417.0,13333.0,-745.0,-1192.0,-1.0,-6.0,-12.0,-9.0,-5.0,3.0,11298.0,11306.0,2089.0,2932.0,0.0,1.0,-9.0,1.0
2022-05-06 12:22:57.574533-07:00,1930.2,614.1,1167.4,1528.3,1023.7,1139.2,1236.4,1439.6,3450.4,3451.6,1476.4,1495.8,1547.8,3438.2,946.6,1408.5,3439.5,3444.3,738.9,1388.5,1000.5,588.3,1310.6,1817.8,3445.5,3445.5,704.4,1015.9,1307.9,1448.8,1187.6,1141.9,-7.0,7.0,1.0,9416.0,13334.0,-747.0,-1190.0,11.0,5.0,13.0,-13.0,-10.0,3.0,11298.0,11306.0,2089.0,2932.0,6.0,4.0,4.0,1.0
2022-05-06 12:22:57.634756-07:00,1919.3,614.1,1168.2,1528.3,1023.7,1139.2,1236.4,1435.0,3449.1,3446.7,1485.6,1497.7,1547.8,3438.2,946.6,1414.0,3441.9,3444.3,738.9,1388.5,1003.0,587.5,1305.2,1823.6,3452.8,3445.5,704.4,1015.9,1311.5,1447.9,1192.9,1149.8,-6.0,7.0,2.0,9415.0,13334.0,-755.0,-1186.0,-8.0,-15.0,28.0,-13.0,-5.0,0.0,11300.0,11305.0,2088.0,2933.0,-12.0,-8.0,10.0,1.0
2022-05-06 12:22:57.636785-07:00,1920.3,614.1,1168.2,1528.3,1024.5,1137.5,1241.7,1435.0,3446.7,3446.7,1485.6,1497.7,1548.7,3441.9,944.9,1414.0,3441.9,3439.5,738.1,1383.0,1003.0,587.5,1305.2,1817.8,3452.8,3449.1,700.3,1016.8,1311.5,1447.9,1192.9,1147.1,-3.0,3.0,3.0,9421.0,13330.0,-763.0,-1181.0,-7.0,-6.0,21.0,-11.0,-12.0,6.0,11303.0,11302.0,2081.0,2934.0,-8.0,-17.0,13.0,1.0
2022-05-06 12:22:57.695034-07:00,1920.3,614.1,1175.3,1527.3,1024.5,1137.5,1241.7,1433.2,3446.7,3439.5,1474.6,1496.7,1548.7,3441.9,944.9,1412.2,3449.1,3439.5,738.1,1383.0,996.2,588.3,1302.5,1817.8,3451.6,3449.1,700.3,1016.8,1303.4,1454.3,1180.6,1147.1,0.0,3.0,5.0,9423.0,13329.0,-768.0,-1179.0,-13.0,-12.0,9.0,-5.0,-8.0,2.0,11305.0,11302.0,2076.0,2933.0,-13.0,-8.0,9.0,1.0
2022-05-06 12:22:57.755341-07:00,1922.3,614.1,1175.3,1527.3,1021.9,1128.7,1251.5,1433.2,3443.1,3439.5,1474.6,1496.7,1538.5,3433.4,944.9,1412.2,3449.1,3433.4,736.5,1374.8,996.2,588.3,1302.5,1816.8,3451.6,3433.4,692.1,1014.2,1303.4,1454.3,1180.6,1146.3,0.0,1.0,3.0,9430.0,13324.0,-768.0,-1179.0,-18.0,-3.0,-6.0,-4.0,-14.0,7.0,11310.0,11296.0,2074.0,2934.0,-11.0,-1.0,-2.0,1.0
2022-05-06 12:22:57.784357-07:00,1922.3,631.1,1174.4,1539.4,1021.9,1128.7,1251.5,1441.5,3443.1,3446.7,1476.4,1495.8,1538.5,3433.4,944.9,1413.1,3443.1,3433.4,736.5,1374.8,998.7,590.7,1299.0,1816.8,3446.7,3433.4,692.1,1014.2,1315.1,1446.0,1184.1,1146.3,-2.0,7.0,4.0,9431.0,13323.0,-763.0,-1184.0,-14.0,-7.0,-35.0,-6.0,-10.0,9.0,11310.0,11296.0,2074.0,2934.0,-7.0,5.0,-3.0,1.0
2022-05-06 12:22:57.844666-07:00,1924.3,631.1,1174.4,1539.4,1020.2,1135.7,1257.8,1441.5,3450.4,3446.7,1476.4,1495.8,1548.7,3444.3,950.0,1413.1,3443.1,3444.3,738.1,1381.2,998.7,590.7,1299.0,1819.7,3446.7,3437.0,704.4,1025.4,1315.1,1446.0,1184.1,1135.7,-7.0,7.0,-1.0,9433.0,13321.0,-750.0,-1202.0,-18.0,-42.0,-52.0,-9.0,-5.0,3.0,11313.0,11292.0,2077.0,2938.0,-32.0,15.0,-4.0,1.0
2022-05-06 12:22:57.904849-07:00,1924.3,627.0,1169.1,1547.8,1020.2,1135.7,1247.1,1440.5,3450.4,3437.0,1478.3,1496.7,1548.7,3444.3,947.5,1422.2,3440.7,3445.5,738.1,1381.2,1004.8,589.1,1299.8,1819.7,3441.9,3451.6,704.4,1025.4,1304.3,1440.5,1183.2,1135.7,-3.0,-6.0,3.0,9458.0,13300.0,-747.0,-1237.0,-88.0,-65.0,-29.0,-13.0,-16.0,2.0,11336.0,11269.0,2070.0,2941.0,-87.0,-23.0,9.0,1.0
2022-05-06 12:22:57.935314-07:00,1931.1,613.3,1169.1,1547.8,1018.5,1139.2,1247.1,1440.5,3444.3,3438.2,1478.3,1496.7,1547.8,3449.1,947.5,1422.2,3440.7,3445.5,741.4,1382.1,1004.8,589.1,1302.5,1813.9,3441.9,3451.6,697.0,1012.5,1304.3,1440.5,1187.6,1143.6,0.0,7.0,23.0,9473.0,13287.0,-756.0,-1255.0,-16.0,-33.0,-6.0,-7.0,-13.0,15.0,11350.0,11258.0,2055.0,2942.0,-24.0,-9.0,17.0,1.0
2022-05-06 12:22:57.995121-07:00,1931.1,613.3,1185.0,1524.5,1018.5,1139.2,1240.8,1446.0,3444.3,3438.2,1480.1,1493.0,1547.8,3449.1,947.5,1404.9,3438.2,3451.6,741.4,1382.1,1006.5,589.9,1302.5,1813.9,3438.2,3443.1,697.0,1012.5,1314.2,1453.4,1187.6,1143.6,-2.0,2.0,4.0,9478.0,13284.0,-754.0,-1253.0,22.0,24.0,-5.0,-6.0,-15.0,9.0,11348.0,11258.0,2053.0,2947.0,25.0,5.0,5.0,1.0
2022-05-06 12:22:58.054898-07:00,1914.4,618.9,1185.0,1524.5,1023.7,1140.1,1240.8,1446.0,3441.9,3449.1,1480.1,1493.0,1546.9,3443.1,947.5,1404.9,3438.2,3451.6,735.6,1380.3,1006.5,589.9,1307.0,1816.8,3438.2,3443.1,698.7,1011.6,1314.2,1453.4,1186.7,1148.9,-7.0,5.0,-2.0,9465.0,13294.0,-751.0,-1246.0,24.0,17.0,-9.0,-3.0,-8.0,4.0,11341.0,11266.0,2055.0,2946.0,11.0,7.0,-7.0,1.0
2022-05-06 12:22:58.084805-07:00,1914.4,618.9,1170.0,1526.4,1023.7,1140.1,1245.3,1443.3,3441.9,3449.1,1477.3,1494.9,1546.9,3443.1,952.6,1405.8,3438.2,3449.1,735.6,1380.3,1002.2,585.9,1307.0,1816.8,3438.2,3443.1,698.7,1011.6,1302.5,1447.0,1186.7,1148.9,-8.0,3.0,0.0,9464.0,13295.0,-752.0,-1246.0,2.0,3.0,15.0,-14.0,-11.0,5.0,11341.0,11266.0,2055.0,2946.0,-9.0,-1.0,0.0,1.0
2022-05-06 12:22:58.144702-07:00,1923.3,614.9,1170.0,1526.4,1020.2,1139.2,1245.3,1443.3,3443.1,3449.1,1477.3,1494.9,1536.6,3438.2,952.6,1405.8,3438.2,3449.1,736.5,1376.6,1002.2,592.3,1312.4,1816.8,3438.2,3443.1,699.5,1013.3,1302.5,1450.6,1184.1,1148.0,-6.0,0.0,10.0,9466.0,13293.0,-756.0,-1244.0,-18.0,-10.0,11.0,-14.0,-11.0,5.0,11346.0,11261.0,2054.0,2947.0,-20.0,-3.0,6.0,1.0
2022-05-06 12:22:58.234650-07:00,1923.3,614.9,1170.0,1537.6,1020.2,1141.0,1240.8,1436.9,3443.1,3449.1,1477.3,1494.0,1536.6,3441.9,951.7,1405.8,3439.5,3439.5,738.1,1376.6,1005.6,592.3,1312.4,1816.8,3449.1,3446.7,699.5,1013.3,1306.1,1450.6,1184.1,1148.0,-4.0,14.0,1.0,9479.0,13284.0,-759.0,-1245.0,-53.0,4.0,-3.0,-7.0,-6.0,4.0,11354.0,11252.0,2048.0,2952.0,-51.0,7.0,11.0,1.0
2022-05-06 12:22:58.236724-07:00,1920.3,627.0,1177.0,1537.6,1022.8,1141.0,1240.8,1436.9,3441.9,3439.5,1475.5,1494.0,1545.0,3441.9,951.7,1405.8,3439.5,3439.5,738.1,1378.5,1005.6,589.1,1299.0,1808.1,3449.1,3446.7,699.5,1021.9,1306.1,1449.7,1183.2,1141.9,-2.0,-4.0,2.0,9494.0,13272.0,-752.0,-1259.0,10.0,-32.0,-23.0,-10.0,-17.0,9.0,11362.0,11245.0,2045.0,2953.0,-8.0,-11.0,-3.0,1.0
2022-05-06 12:22:58.294557-07:00,1920.3,627.0,1177.0,1528.3,1022.8,1136.6,1248.8,1435.0,3441.9,3439.5,1475.5,1493.0,1545.0,3444.3,947.5,1412.2,3444.3,3431.0,746.3,1378.5,1003.0,589.1,1299.0,1808.1,3454.0,3439.5,699.5,1021.9,1316.9,1449.7,1183.2,1141.9,0.0,-3.0,10.0,9490.0,13274.0,-757.0,-1269.0,-11.0,2.0,6.0,-11.0,-13.0,9.0,11362.0,11245.0,2043.0,2953.0,1.0,0.0,10.0,1.0
2022-05-06 12:22:58.354761-07:00,1925.2,614.1,1171.8,1528.3,1016.8,1136.6,1248.8,1435.0,3447.9,3441.9,1477.3,1493.0,1543.1,3444.3,947.5,1412.2,3444.3,3431.0,746.3,1376.6,1003.0,592.3,1295.4,1819.7,3454.0,3439.5,699.5,1017.6,1316.9,1456.2,1191.2,1141.0,-1.0,4.0,-1.0,9486.0,13277.0,-758.0,-1264.0,5.0,3.0,-4.0,-9.0,-5.0,3.0,11358.0,11249.0,2044.0,2953.0,4.0,5.0,-5.0,1.0
2022-05-06 12:22:58.414791-07:00,1925.2,614.1,1171.8,1521.8,1016.8,1144.5,1248.0,1437.8,3447.9,3441.9,1477.3,1494.9,1543.1,3447.9,946.6,1404.0,3434.6,3439.5,740.6,1376.6,998.7,592.3,1295.4,1819.7,3449.1,3435.8,694.6,1017.6,1311.5,1456.2,1191.2,1141.0,3.0,-3.0,8.0,9487.0,13277.0,-759.0,-1264.0,4.0,0.0,19.0,-12.0,-13.0,5.0,11358.0,11249.0,2042.0,2955.0,-9.0,0.0,12.0,1.0
2022-05-06 12:22:58.474678-07:00,1921.3,618.1,1166.5,1532.0,1030.6,1144.5,1248.0,1437.8,3445.5,3434.6,1481.9,1495.8,1538.5,3447.9,946.6,1404.0,3434.6,3439.5,740.6,1380.3,1001.3,593.1,1302.5,1818.7,3449.1,3435.8,694.6,1011.6,1309.7,1451.6,1185.9,1145.4,-5.0,1.0,1.0,9489.0,13276.0,-764.0,-1256.0,6.0,-4.0,27.0,-9.0,-9.0,9.0,11357.0,11249.0,2041.0,2956.0,7.0,3.0,0.0,1.0
2022-05-06 12:22:58.476243-07:00,1921.3,618.1,1166.5,1532.0,1019.4,1146.3,1241.7,1427.7,3445.5,3434.6,1481.9,1495.8,1538.5,3439.5,956.0,1408.5,3441.9,3439.5,736.5,1373.9,1001.3,593.1,1302.5,1818.7,3441.9,3445.5,692.1,1017.6,1309.7,1451.6,1185.9,1145.4,-2.0,47.0,-6.0,9491.0,13274.0,-767.0,-1256.0,-24.0,-12.0,-70.0,-15.0,-7.0,0.0,11358.0,11248.0,2037.0,2957.0,-13.0,-10.0,15.0,1.0
2022-05-06 12:22:58.565350-07:00,1932.1,616.5,1182.3,1529.2,1019.4,1146.3,1241.7,1427.7,3440.7,3440.7,1478.3,1492.1,1538.5,3439.5,956.0,1408.5,3441.9,3439.5,736.5,1373.9,1002.2,588.3,1296.3,1818.7,3441.9,3445.5,692.1,1017.6,1313.3,1447.0,1185.0,1141.9,87.0,573.0,-21.0,9650.0,13147.0,-311.0,-1536.0,-1527.0,221.0,-2471.0,25.0,158.0,-120.0,11489.0,11129.0,1975.0,2947.0,-1117.0,-173.0,-103.0,1.0
2022-05-06 12:22:58.624668-07:00,1932.1,616.5,1182.3,1529.2,1025.4,1167.4,1241.7,1465.4,3440.7,3440.7,1478.3,1492.1,1546.9,3449.1,950.9,1407.6,3437.0,3441.9,734.8,1419.5,1002.2,588.3,1296.3,1818.7,3446.7,3450.4,697.9,1028.8,1313.3,1447.0,1185.0,1141.9,292.0,248.0,-43.0,10509.0,12252.0,1443.0,-2409.0,-3776.0,936.0,-4877.0,76.0,-8.0,47.0,12298.0,10295.0,1714.0,2878.0,-3587.0,-540.0,-266.0,1.0
2022-05-06 12:22:58.627214-07:00,1921.3,623.0,1177.0,1529.2,1025.4,1167.4,1241.7,1465.4,3439.5,3440.7,1488.4,1501.4,1546.9,3449.1,950.9,1407.6,3437.0,3441.9,734.8,1419.5,1025.4,595.5,1295.4,1818.7,3446.7,3450.4,697.9,1028.8,1310.6,1459.8,1196.5,1151.5,142.0,-258.0,-33.0,10759.0,11577.0,2998.0,-3106.0,-888.0,823.0,-2848.0,42.0,-14.0,-20.0,12903.0,9581.0,1588.0,2763.0,-1229.0,-1.0,-571.0,1.0
2022-05-06 12:22:58.686630-07:00,1944.0,623.0,1177.0,1529.2,1020.2,1168.2,1326.8,1482.9,3446.7,3440.7,1488.4,1501.4,1543.1,3444.3,939.0,1411.3,3446.7,3438.2,755.4,1494.9,1025.4,595.5,1295.4,1814.9,3450.4,3445.5,702.8,1016.8,1310.6,1459.8,1196.5,1137.5,-89.0,-201.0,-38.0,10686.0,11309.0,3810.0,-3442.0,-105.0,251.0,-1472.0,-7.0,-65.0,65.0,13147.0,9266.0,1683.0,2625.0,-572.0,122.0,-553.0,1.0
2022-05-06 12:22:58.744673-07:00,1944.0,622.2,1166.5,1532.9,1020.2,1168.2,1326.8,1563.7,3446.7,3447.9,1506.0,1511.5,1543.1,3444.3,939.0,1410.3,3443.1,3438.2,755.4,1494.9,1034.9,597.1,1291.8,1814.9,3441.9,3445.5,702.8,1016.8,1314.2,1455.2,1201.8,1137.5,16.0,-212.0,9.0,10613.0,11195.0,4144.0,-3648.0,-113.0,128.0,-587.0,-69.0,-102.0,15.0,13259.0,9113.0,1795.0,2522.0,-306.0,71.0,-250.0,1.0
2022-05-06 12:22:58.924738-07:00,1955.8,622.2,1166.5,1532.9,1025.4,1174.4,1430.5,1563.7,3452.8,3447.9,1506.0,1511.5,1542.2,3450.4,939.8,1410.3,3443.1,3427.4,762.0,1507.8,1034.9,597.1,1291.8,1818.7,3441.9,3438.2,701.1,1018.5,1314.2,1455.2,1201.8,1141.9,-22.0,-50.0,-22.0,10566.0,11188.0,4227.0,-3710.0,162.0,-42.0,-89.0,-26.0,-16.0,4.0,13287.0,9072.0,1830.0,2500.0,27.0,34.0,-72.0,1.0
2022-05-06 12:22:58.925959-07:00,1955.8,627.0,1170.0,1530.1,1025.4,1174.4,1430.5,1566.5,3452.8,3438.2,1506.0,1507.8,1542.2,3450.4,939.8,1410.3,3450.4,3427.4,762.0,1507.8,1043.5,601.2,1288.2,1818.7,3449.1,3438.2,701.1,1018.5,1318.7,1459.8,1200.9,1141.9,22.0,-9.0,-1.0,10531.0,11219.0,4191.0,-3757.0,130.0,-88.0,15.0,-23.0,-20.0,-8.0,13281.0,9081.0,1847.0,2484.0,15.0,-10.0,-11.0,1.0
2022-05-06 12:22:58.927000-07:00,1952.9,627.0,1170.0,1530.1,1033.2,1172.6,1431.4,1566.5,3445.5,3438.2,1506.0,1507.8,1546.9,3445.5,942.4,1410.3,3450.4,3439.5,759.6,1500.4,1043.5,601.2,1288.2,1820.7,3449.1,3443.1,699.5,1016.8,1318.7,1459.8,1200.9,1139.2,16.0,62.0,17.0,10498.0,11239.0,4186.0,-3795.0,68.0,1.0,-126.0,1.0,9.0,1.0,13282.0,9081.0,1855.0,2475.0,-11.0,16.0,-55.0,1.0
2022-05-06 12:22:58.928945-07:00,1952.9,618.9,1163.0,1528.3,1033.2,1172.6,1431.4,1559.9,3445.5,3443.1,1501.4,1499.5,1546.9,3445.5,942.4,1406.7,3444.3,3439.5,759.6,1500.4,1042.6,597.1,1290.0,1820.7,3435.8,3443.1,699.5,1016.8,1308.8,1456.2,1193.8,1139.2,37.0,-20.0,30.0,10460.0,11262.0,4179.0,-3839.0,143.0,-42.0,8.0,-2.0,-31.0,4.0,13284.0,9078.0,1880.0,2455.0,38.0,15.0,-65.0,1.0
2022-05-06 12:22:59.014689-07:00,1948.9,615.7,1163.0,1528.3,1019.4,1174.4,1427.7,1559.9,3445.5,3441.9,1501.4,1499.5,1541.3,3444.3,933.0,1406.7,3444.3,3437.0,751.3,1495.8,1042.6,597.1,1280.1,1820.7,3435.8,3438.2,699.5,1017.6,1308.8,1456.2,1200.9,1145.4,-4.0,36.0,26.0,10435.0,11284.0,4172.0,-3849.0,55.0,20.0,-49.0,-14.0,-1.0,18.0,13282.0,9082.0,1892.0,2444.0,13.0,17.0,-26.0,1.0
2022-05-06 12:22:59.015876-07:00,1948.9,615.7,1168.2,1523.6,1019.4,1174.4,1430.5,1553.4,3445.5,3441.9,1505.1,1515.3,1541.3,3444.3,939.8,1412.2,3440.7,3439.5,751.3,1495.8,1039.2,602.0,1280.1,1820.7,3438.2,3444.3,699.5,1017.6,1309.7,1460.8,1200.9,1145.4,23.0,-13.0,10.0,10394.0,11324.0,4161.0,-3856.0,146.0,25.0,65.0,-15.0,-18.0,-3.0,13268.0,9100.0,1916.0,2435.0,93.0,19.0,-29.0,1.0
2022-05-06 12:22:59.134418-07:00,1944.0,618.1,1168.2,1523.6,1020.2,1182.3,1430.5,1553.4,3438.2,3449.1,1505.1,1515.3,1544.1,3443.1,939.8,1412.2,3440.7,3439.5,754.6,1486.6,1039.2,602.0,1286.4,1817.8,3438.2,3444.3,701.9,1019.4,1309.7,1460.8,1198.2,1128.7,11.0,33.0,11.0,10376.0,11351.0,4141.0,-3843.0,12.0,43.0,0.0,-21.0,3.0,-3.0,13254.0,9119.0,1928.0,2428.0,24.0,3.0,9.0,1.0
2022-05-06 12:22:59.136034-07:00,1944.0,618.1,1169.1,1529.2,1020.2,1182.3,1427.7,1545.0,3438.2,3449.1,1502.3,1514.3,1544.1,3443.1,934.7,1414.0,3443.1,3446.7,754.6,1486.6,1037.5,602.0,1286.4,1817.8,3446.7,3452.8,701.9,1019.4,1314.2,1458.0,1198.2,1128.7,7.0,-22.0,1.0,10356.0,11368.0,4144.0,-3846.0,70.0,-23.0,41.0,-10.0,-16.0,7.0,13247.0,9128.0,1940.0,2423.0,49.0,15.0,-20.0,1.0
2022-05-06 12:22:59.164381-07:00,1948.9,618.9,1169.1,1529.2,1018.5,1180.6,1427.7,1545.0,3438.2,3439.5,1502.3,1514.3,1550.6,3449.1,934.7,1414.0,3443.1,3446.7,751.3,1488.4,1037.5,602.0,1275.6,1820.7,3446.7,3452.8,696.2,1021.1,1314.2,1458.0,1195.6,1132.2,8.0,47.0,-5.0,10350.0,11392.0,4086.0,-3854.0,-5.0,-78.0,46.0,-14.0,13.0,-2.0,13242.0,9135.0,1940.0,2422.0,-13.0,-25.0,22.0,1.0
2022-05-06 12:22:59.225039-07:00,1948.9,618.9,1161.2,1530.1,1018.5,1188.5,1408.5,1543.1,3438.2,3439.5,1513.4,1516.2,1550.6,3441.9,933.0,1403.0,3438.2,3449.1,761.2,1488.4,1042.6,602.0,1275.6,1820.7,3443.1,3443.1,705.2,1021.1,1315.1,1452.5,1195.6,1132.2,3.0,1.0,19.0,10362.0,11373.0,4083.0,-3880.0,2.0,-60.0,-37.0,1.0,-9.0,11.0,13262.0,9110.0,1923.0,2420.0,-48.0,-12.0,-18.0,1.0
2022-05-06 12:22:59.344671-07:00,1951.9,616.5,1162.1,1530.1,1017.6,1188.5,1408.5,1543.1,3443.1,3445.5,1511.5,1516.2,1544.1,3441.9,933.0,1403.0,3438.2,3449.1,761.2,1486.6,1042.6,606.8,1282.8,1822.6,3443.1,3443.1,705.2,1021.9,1315.1,1457.1,1192.0,1139.2,8.0,7.0,25.0,10367.0,11370.0,4066.0,-3893.0,7.0,-15.0,20.0,-11.0,-10.0,6.0,13271.0,9098.0,1923.0,2419.0,-2.0,0.0,-2.0,1.0
2022-05-06 12:22:59.374637-07:00,1951.9,616.5,1162.1,1530.1,1017.6,1179.7,1417.6,1554.3,3443.1,3445.5,1511.5,1519.0,1544.1,3450.4,939.8,1408.5,3439.5,3435.8,752.1,1486.6,1031.4,606.8,1282.8,1822.6,3438.2,3445.5,703.6,1021.9,1316.0,1457.1,1192.0,1139.2,9.0,-3.0,10.0,10368.0,11369.0,4062.0,-3896.0,39.0,-9.0,15.0,-6.0,-15.0,7.0,13271.0,9097.0,1926.0,2419.0,23.0,12.0,-9.0,1.0
2022-05-06 12:22:59.434864-07:00,1951.9,627.8,1165.6,1530.1,1022.8,1179.7,1417.6,1554.3,3450.4,3443.1,1522.7,1519.0,1539.4,3450.4,939.8,1408.5,3439.5,3435.8,752.1,1482.9,1031.4,591.5,1277.4,1822.6,3438.2,3445.5,703.6,1021.1,1316.0,1449.7,1190.3,1139.2,5.0,12.0,12.0,10359.0,11381.0,4054.0,-3895.0,46.0,25.0,-11.0,-5.0,-6.0,5.0,13266.0,9104.0,1932.0,2413.0,28.0,8.0,-22.0,1.0
2022-05-06 12:22:59.436404-07:00,1951.9,627.8,1165.6,1521.8,1022.8,1181.5,1405.8,1543.1,3450.4,3443.1,1522.7,1522.7,1539.4,3446.7,936.4,1407.6,3438.2,3435.8,749.6,1482.9,1031.4,591.5,1277.4,1822.6,3446.7,3441.9,701.9,1021.1,1314.2,1449.7,1190.3,1139.2,-5.0,-4.0,3.0,10358.0,11382.0,4053.0,-3896.0,-42.0,-55.0,9.0,-16.0,-8.0,4.0,13270.0,9099.0,1937.0,2407.0,-44.0,-5.0,1.0,1.0
2022-05-06 12:22:59.464971-07:00,1943.0,627.8,1160.3,1521.8,1028.8,1181.5,1405.8,1543.1,3451.6,3434.6,1511.5,1522.7,1538.5,3446.7,936.4,1407.6,3438.2,3435.8,749.6,1485.6,1031.4,597.9,1266.7,1818.7,3446.7,3441.9,701.9,1023.7,1314.2,1455.2,1196.5,1141.9,-2.0,16.0,18.0,10373.0,11372.0,4042.0,-3897.0,2.0,-5.0,-5.0,-5.0,-8.0,6.0,13277.0,9091.0,1932.0,2404.0,-19.0,-16.0,-1.0,1.0
2022-05-06 12:22:59.584794-07:00,1943.0,627.8,1160.3,1533.8,1028.0,1178.8,1386.6,1549.7,3451.6,3434.6,1511.5,1519.0,1538.5,3437.0,932.2,1404.0,3440.7,3444.3,744.7,1483.8,1031.4,597.9,1266.7,1818.7,3443.1,3446.7,709.3,1007.3,1310.6,1455.2,1196.5,1141.9,2.0,-1.0,12.0,10373.0,11372.0,4038.0,-3899.0,5.0,-8.0,9.0,-8.0,-15.0,13.0,13279.0,9089.0,1932.0,2403.0,-5.0,4.0,-1.0,1.0
2022-05-06 12:22:59.586653-07:00,1938.0,625.4,1153.3,1531.0,1028.0,1178.8,1386.6,1549.7,3444.3,3438.2,1514.3,1519.0,1538.5,3437.0,932.2,1404.0,3440.7,3444.3,744.7,1483.8,1028.0,597.9,1278.3,1820.7,3443.1,3446.7,709.3,1007.3,1317.8,1447.9,1184.1,1139.2,4.0,4.0,10.0,10375.0,11374.0,4031.0,-3897.0,-2.0,14.0,12.0,-9.0,-7.0,5.0,13278.0,9089.0,1934.0,2402.0,9.0,-1.0,5.0,1.0
2022-05-06 12:22:59.674690-07:00,1938.0,625.4,1153.3,1531.0,1021.1,1180.6,1388.5,1534.8,3444.3,3438.2,1514.3,1519.0,1543.1,3444.3,933.0,1408.5,3440.7,3438.2,746.3,1477.3,1028.0,597.9,1278.3,1820.7,3449.1,3446.7,704.4,1019.4,1317.8,1447.9,1184.1,1139.2,3.0,-4.0,2.0,10375.0,11375.0,4035.0,-3891.0,-5.0,-8.0,3.0,-8.0,-11.0,5.0,13277.0,9091.0,1937.0,2402.0,2.0,9.0,0.0,1.0
2022-05-06 12:22:59.677201-07:00,1945.0,616.5,1156.8,1531.0,1021.1,1180.6,1388.5,1534.8,3437.0,3438.2,1510.6,1519.0,1543.1,3444.3,933.0,1408.5,3440.7,3438.2,746.3,1477.3,1030.6,588.3,1265.8,1822.6,3449.1,3446.7,704.4,1019.4,1311.5,1458.9,1188.5,1142.7,0.0,24.0,9.0,10377.0,11374.0,4029.0,-3892.0,-19.0,-10.0,-22.0,-9.0,-2.0,2.0,13279.0,9087.0,1937.0,2402.0,-24.0,-7.0,-6.0,1.0
2022-05-06 12:22:59.734316-07:00,1945.0,616.5,1156.8,1531.0,1017.6,1182.3,1377.5,1535.7,3437.0,3438.2,1510.6,1519.0,1545.9,3439.5,933.9,1396.7,3445.5,3440.7,745.5,1466.3,1030.6,588.3,1265.8,1822.6,3449.1,3443.1,708.5,1018.5,1311.5,1458.9,1188.5,1142.7,9.0,2.0,11.0,10384.0,11366.0,4028.0,-3899.0,-3.0,-21.0,19.0,-9.0,-13.0,6.0,13287.0,9076.0,1936.0,2403.0,-12.0,-4.0,14.0,1.0
2022-05-06 12:22:59.794543-07:00,1949.9,624.6,1153.3,1527.3,1017.6,1182.3,1377.5,1534.8,3427.4,3437.0,1516.2,1519.0,1545.9,3439.5,933.9,1415.8,3444.3,3440.7,745.5,1466.3,1031.4,597.1,1271.2,1818.7,3445.5,3443.1,708.5,1018.5,1315.1,1455.2,1196.5,1138.4,1.0,8.0,9.0,10384.0,11366.0,4028.0,-3898.0,20.0,16.0,-22.0,-4.0,-6.0,7.0,13289.0,9073.0,1935.0,2404.0,5.0,9.0,-10.0,1.0
2022-05-06 12:22:59.854689-07:00,1946.9,624.6,1153.3,1527.3,1025.4,1173.5,1374.8,1534.8,3449.1,3437.0,1516.2,1519.0,1544.1,3444.3,933.0,1415.8,3444.3,3441.9,752.1,1479.2,1031.4,597.1,1271.2,1817.8,3445.5,3441.9,709.3,1013.3,1315.1,1455.2,1196.5,1147.1,4.0,7.0,6.0,10381.0,11369.0,4023.0,-3901.0,0.0,-13.0,24.0,-12.0,-11.0,1.0,13290.0,9071.0,1937.0,2405.0,6.0,2.0,11.0,1.0
2022-05-06 12:22:59.885573-07:00,1946.9,614.1,1162.1,1534.8,1025.4,1173.5,1374.8,1531.0,3449.1,3439.5,1510.6,1522.7,1544.1,3444.3,933.0,1408.5,3440.7,3441.9,752.1,1479.2,1032.3,602.0,1270.3,1817.8,3449.1,3441.9,709.3,1013.3,1307.9,1448.8,1182.3,1147.1,2.0,-3.0,9.0,10380.0,11372.0,4019.0,-3902.0,21.0,5.0,-15.0,-3.0,-12.0,8.0,13287.0,9075.0,1942.0,2402.0,23.0,14.0,-21.0,1.0
2022-05-06 12:22:59.914184-07:00,1946.9,614.1,1162.1,1534.8,1018.5,1178.8,1363.9,1531.0,3434.6,3439.5,1510.6,1522.7,1544.1,3447.9,935.6,1408.5,3440.7,3439.5,747.2,1467.2,1032.3,602.0,1270.3,1818.7,3449.1,3444.3,708.5,1021.9,1307.9,1448.8,1182.3,1134.9,3.0,-7.0,6.0,10382.0,11373.0,4009.0,-3903.0,0.0,-22.0,38.0,-13.0,-14.0,-1.0,13286.0,9075.0,1944.0,2402.0,4.0,-5.0,19.0,1.0
2022-05-06 12:22:59.975056-07:00,1946.9,618.1,1160.3,1520.8,1018.5,1178.8,1363.9,1521.8,3434.6,3443.1,1514.3,1519.9,1544.1,3447.9,935.6,1408.5,3440.7,3439.5,747.2,1467.2,1027.1,595.5,1266.7,1818.7,3450.4,3444.3,708.5,1021.9,1309.7,1450.6,1184.1,1134.9,8.0,-1.0,6.0,10388.0,11371.0,3996.0,-3906.0,-16.0,-33.0,3.0,-4.0,-8.0,4.0,13289.0,9072.0,1936.0,2408.0,-15.0,-8.0,19.0,1.0
2022-05-06 12:23:00.155575-07:00,1948.9,618.1,1160.3,1520.8,1027.1,1183.2,1370.3,1521.8,3458.9,3443.1,1514.3,1519.9,1545.9,3445.5,934.7,1408.5,3440.7,3433.4,747.2,1470.0,1027.1,595.5,1266.7,1826.5,3450.4,3445.5,706.9,1015.9,1309.7,1450.6,1184.1,1139.2,7.0,7.0,10.0,10387.0,11374.0,3989.0,-3906.0,7.0,-1.0,3.0,-2.0,-8.0,8.0,13288.0,9073.0,1936.0,2408.0,-6.0,7.0,2.0,1.0
2022-05-06 12:23:00.157376-07:00,1948.9,609.2,1161.2,1529.2,1027.1,1183.2,1361.2,1518.0,3458.9,3432.2,1516.2,1519.0,1545.9,3445.5,933.9,1412.2,3437.0,3443.1,747.2,1470.0,1024.5,597.9,1269.4,1826.5,3449.1,3449.1,706.9,1015.9,1317.8,1451.6,1190.3,1139.2,1.0,3.0,8.0,10391.0,11370.0,3989.0,-3906.0,-7.0,4.0,-21.0,-4.0,-9.0,10.0,13291.0,9068.0,1936.0,2408.0,-10.0,7.0,-10.0,1.0
2022-05-06 12:23:00.158159-07:00,1952.9,621.4,1161.2,1529.2,1028.8,1177.9,1361.2,1518.0,3449.1,3441.9,1516.2,1519.0,1543.1,3449.1,933.9,1412.2,3437.0,3443.1,748.8,1472.7,1024.5,597.9,1266.7,1823.6,3449.1,3449.1,708.5,1013.3,1317.8,1451.6,1185.9,1140.1,5.0,7.0,4.0,10387.0,11373.0,3989.0,-3910.0,11.0,-10.0,0.0,-6.0,-5.0,3.0,13293.0,9067.0,1938.0,2405.0,-12.0,-2.0,-4.0,1.0
2022-05-06 12:23:00.214791-07:00,1952.9,621.4,1165.6,1521.8,1028.8,1177.9,1353.1,1515.3,3449.1,3441.9,1514.3,1514.3,1543.1,3449.1,939.8,1403.0,3433.4,3435.8,748.8,1472.7,1025.4,602.0,1266.7,1823.6,3449.1,3444.3,708.5,1013.3,1317.8,1455.2,1185.9,1140.1,6.0,5.0,7.0,10386.0,11373.0,3985.0,-3919.0,37.0,-24.0,2.0,-8.0,-12.0,0.0,13295.0,9063.0,1940.0,2403.0,10.0,-3.0,-15.0,1.0
2022-05-06 12:23:00.215867-07:00,1959.8,614.1,1165.6,1521.8,1026.3,1170.9,1353.1,1515.3,3439.5,3451.6,1514.3,1514.3,1549.7,3441.9,939.8,1403.0,3433.4,3435.8,748.8,1475.5,1025.4,602.0,1271.2,1820.7,3449.1,3444.3,704.4,1015.9,1317.8,1455.2,1183.2,1129.6,8.0,-8.0,1.0,10386.0,11369.0,3986.0,-3929.0,-28.0,-26.0,-46.0,-7.0,-14.0,1.0,13302.0,9053.0,1942.0,2399.0,-43.0,-5.0,-11.0,1.0
2022-05-06 12:23:00.275056-07:00,1959.8,614.1,1165.6,1523.6,1026.3,1170.9,1358.5,1516.2,3439.5,3451.6,1516.2,1516.2,1549.7,3441.9,930.5,1396.7,3444.3,3428.6,748.8,1475.5,1029.7,600.4,1271.2,1820.7,3440.7,3449.1,704.4,1015.9,1314.2,1455.2,1183.2,1129.6,-1.0,7.0,6.0,10390.0,11361.0,3981.0,-3944.0,14.0,-45.0,3.0,-7.0,-7.0,4.0,13310.0,9043.0,1940.0,2398.0,-35.0,-14.0,-9.0,1.0
2022-05-06 12:23:00.334711-07:00,1959.8,613.3,1161.2,1523.6,1026.3,1169.1,1358.5,1516.2,3437.0,3439.5,1516.2,1516.2,1543.1,3439.5,930.5,1396.7,3444.3,3428.6,747.2,1476.4,1029.7,597.1,1264.9,1820.7,3440.7,3449.1,711.8,1007.3,1314.2,1453.4,1185.9,1141.0,11.0,0.0,4.0,10403.0,11348.0,3959.0,-3971.0,-65.0,-117.0,-11.0,-18.0,-7.0,0.0,13326.0,9021.0,1929.0,2400.0,-148.0,-38.0,51.0,1.0
2022-05-06 12:23:00.365003-07:00,1959.8,613.3,1161.2,1528.3,1026.3,1178.8,1354.9,1523.6,3437.0,3439.5,1516.2,1522.7,1543.1,3447.9,933.0,1402.1,3454.0,3433.4,745.5,1476.4,1030.6,597.1,1264.9,1820.7,3443.1,3445.5,711.0,1007.3,1311.5,1453.4,1185.9,1141.0,13.0,-2.0,18.0,10430.0,11322.0,3939.0,-3993.0,-7.0,-60.0,18.0,1.0,-7.0,2.0,13351.0,8986.0,1901.0,2412.0,-37.0,-21.0,19.0,1.0
2022-05-06 12:23:00.425194-07:00,1955.8,618.9,1162.1,1528.3,1014.2,1178.8,1354.9,1523.6,3444.3,3437.0,1506.9,1522.7,1540.3,3447.9,933.0,1402.1,3454.0,3433.4,745.5,1470.0,1030.6,596.3,1264.9,1820.7,3443.1,3445.5,711.0,1014.2,1311.5,1449.7,1180.6,1143.6,7.0,11.0,15.0,10434.0,11324.0,3925.0,-3992.0,11.0,17.0,3.0,-5.0,-7.0,6.0,13354.0,8982.0,1897.0,2415.0,18.0,15.0,4.0,1.0
2022-05-06 12:23:00.605823-07:00,1955.8,618.9,1162.1,1533.8,1014.2,1187.6,1363.0,1518.0,3444.3,3437.0,1506.9,1512.5,1540.3,3440.7,925.4,1426.8,3449.1,3441.9,752.1,1470.0,1028.8,596.3,1264.9,1820.7,3445.5,3437.0,711.0,1014.2,1312.4,1449.7,1180.6,1143.6,8.0,-8.0,6.0,10426.0,11331.0,3932.0,-3987.0,46.0,38.0,-2.0,-5.0,-13.0,0.0,13345.0,8992.0,1908.0,2416.0,52.0,21.0,-21.0,1.0
2022-05-06 12:23:00.607448-07:00,1948.9,619.7,1159.4,1533.8,1021.1,1187.6,1363.0,1518.0,3449.1,3439.5,1515.3,1512.5,1536.6,3440.7,925.4,1426.8,3449.1,3441.9,752.1,1469.0,1028.8,597.9,1267.6,1821.6,3445.5,3437.0,711.0,1020.2,1312.4,1447.9,1180.6,1141.9,7.0,7.0,3.0,10405.0,11353.0,3929.0,-3981.0,60.0,25.0,11.0,-7.0,-1.0,-4.0,13333.0,9009.0,1922.0,2411.0,39.0,18.0,-15.0,1.0
2022-05-06 12:23:00.608207-07:00,1948.9,619.7,1159.4,1529.2,1021.1,1179.7,1358.5,1517.1,3449.1,3439.5,1515.3,1520.8,1536.6,3438.2,929.6,1405.8,3428.6,3438.2,745.5,1469.0,1026.3,597.9,1267.6,1821.6,3444.3,3435.8,712.6,1020.2,1309.7,1447.9,1180.6,1141.9,3.0,19.0,8.0,10389.0,11367.0,3926.0,-3984.0,69.0,2.0,-15.0,-2.0,3.0,0.0,13328.0,9016.0,1928.0,2408.0,11.0,8.0,-17.0,1.0
2022-05-06 12:23:00.664177-07:00,1952.9,615.7,1160.3,1528.3,1024.5,1179.7,1358.5,1517.1,3441.9,3438.2,1512.5,1518.0,1546.9,3438.2,929.6,1405.8,3428.6,3438.2,745.5,1462.6,1028.8,594.7,1266.7,1817.8,3444.3,3435.8,712.6,1015.1,1320.5,1456.2,1185.9,1145.4,11.0,-49.0,4.0,10380.0,11372.0,3927.0,-3993.0,-10.0,-17.0,26.0,-12.0,-27.0,7.0,13328.0,9016.0,1931.0,2406.0,7.0,1.0,26.0,1.0
2022-05-06 12:23:00.695235-07:00,1952.9,615.7,1160.3,1528.3,1022.8,1185.0,1349.4,1513.4,3441.9,3438.2,1512.5,1518.0,1545.9,3443.1,933.9,1408.5,3458.9,3444.3,745.5,1468.1,1028.8,594.7,1266.7,1817.8,3455.2,3449.1,706.9,1016.8,1320.5,1456.2,1185.9,1145.4,0.0,1.0,20.0,10386.0,11381.0,3904.0,-3974.0,-3.0,25.0,39.0,-2.0,-1.0,9.0,13321.0,9025.0,1924.0,2415.0,58.0,12.0,23.0,1.0
2022-05-06 12:23:00.725815-07:00,1960.8,612.5,1162.1,1527.3,1022.8,1185.0,1349.4,1513.4,3449.1,3446.7,1508.8,1517.1,1545.9,3443.1,933.9,1408.5,3458.9,3444.3,745.5,1468.1,1027.1,596.3,1266.7,1822.6,3455.2,3449.1,706.9,1016.8,1313.3,1448.8,1188.5,1140.1,23.0,-102.0,35.0,10357.0,11442.0,3870.0,-3906.0,286.0,235.0,380.0,0.0,-51.0,-6.0,13275.0,9089.0,1937.0,2419.0,618.0,34.0,62.0,1.0
2022-05-06 12:23:00.784523-07:00,1960.8,612.5,1162.1,1527.3,1021.9,1169.1,1345.8,1503.2,3449.1,3446.7,1508.8,1517.1,1549.7,3433.4,928.8,1404.9,3433.4,3439.5,748.0,1462.6,1027.1,596.3,1266.7,1822.6,3449.1,3449.1,700.3,1014.2,1313.3,1448.8,1188.5,1140.1,-33.0,-324.0,41.0,10187.0,11854.0,3464.0,-3484.0,1140.0,400.0,2270.0,-2.0,-99.0,112.0,12996.0,9467.0,2004.0,2432.0,1610.0,169.0,310.0,1.0
2022-05-06 12:23:00.934722-07:00,1951.9,610.8,1155.9,1531.0,1021.9,1169.1,1345.8,1503.2,3437.0,3443.1,1493.0,1508.8,1549.7,3433.4,928.8,1404.9,3433.4,3439.5,748.0,1462.6,1028.0,593.1,1280.1,1821.6,3449.1,3449.1,700.3,1014.2,1315.1,1450.6,1189.4,1133.1,113.0,-215.0,4.0,9976.0,12525.0,2296.0,-2603.0,1839.0,246.0,4078.0,0.0,-29.0,-12.0,12450.0,10131.0,2115.0,2516.0,2554.0,317.0,473.0,1.0
2022-05-06 12:23:00.937885-07:00,1940.0,610.8,1155.9,1531.0,1028.8,1160.3,1350.3,1525.5,3449.1,3443.1,1493.0,1508.8,1557.1,3438.2,933.0,1412.2,3443.1,3443.1,751.3,1467.2,1028.0,593.1,1280.1,1817.8,3446.7,3445.5,706.9,1007.3,1315.1,1450.6,1189.4,1140.1,258.0,10.0,-80.0,9617.0,13173.0,753.0,-1360.0,1357.0,547.0,4712.0,-24.0,98.0,-74.0,11757.0,10879.0,2233.0,2619.0,1578.0,320.0,762.0,1.0
2022-05-06 12:23:01.025377-07:00,1940.0,614.9,1160.3,1522.7,1028.8,1160.3,1350.3,1521.8,3449.1,3447.9,1527.3,1518.0,1557.1,3438.2,933.0,1400.3,3443.1,3443.1,751.3,1467.2,1024.5,595.5,1282.8,1817.8,3443.1,3445.5,706.9,1007.3,1307.9,1449.7,1191.2,1140.1,154.0,172.0,-77.0,9415.0,13397.0,-547.0,4.0,357.0,1021.0,3846.0,-15.0,96.0,-65.0,11268.0,11362.0,2188.0,2752.0,1167.0,76.0,505.0,1.0
2022-05-06 12:23:01.264796-07:00,1990.5,614.9,1160.3,1522.7,1020.2,1164.7,1343.1,1521.8,3443.1,3447.9,1527.3,1518.0,1552.5,3451.6,925.4,1400.3,3443.1,3437.0,754.6,1469.0,1024.5,595.5,1282.8,1825.5,3443.1,3438.2,709.3,1008.2,1307.9,1449.7,1191.2,1139.2,-6.0,361.0,-149.0,9490.0,13252.0,-1450.0,811.0,-570.0,-137.0,1924.0,-11.0,45.0,-38.0,11023.0,11595.0,2077.0,2860.0,138.0,-140.0,351.0,1.0
2022-05-06 12:23:01.266021-07:00,1990.5,611.7,1158.6,1524.5,1020.2,1164.7,1343.1,1532.9,3443.1,3445.5,1522.7,1522.7,1552.5,3451.6,925.4,1405.8,3440.7,3437.0,754.6,1469.0,1018.5,597.9,1309.7,1825.5,3440.7,3438.2,709.3,1008.2,1310.6,1452.5,1184.1,1139.2,42.0,150.0,-24.0,9727.0,13050.0,-1722.0,742.0,-715.0,-461.0,-379.0,28.0,15.0,-2.0,11100.0,11542.0,1911.0,2894.0,-740.0,-253.0,102.0,1.0
2022-05-06 12:23:01.266796-07:00,1975.6,611.7,1158.6,1524.5,1025.4,1151.5,1354.9,1532.9,3444.3,3445.5,1522.7,1522.7,1553.4,3440.7,926.2,1405.8,3440.7,3445.5,759.6,1461.7,1018.5,597.9,1309.7,1824.6,3440.7,3445.5,701.1,1015.1,1310.6,1452.5,1184.1,1137.5,-10.0,-76.0,53.0,9895.0,12950.0,-1631.0,423.0,-319.0,-389.0,-481.0,5.0,-49.0,78.0,11318.0,11352.0,1803.0,2867.0,-405.0,-53.0,-120.0,1.0
2022-05-06 12:23:01.267859-07:00,1975.6,618.1,1156.8,1534.8,1025.4,1151.5,1354.9,1549.7,3444.3,3441.9,1513.4,1511.5,1553.4,3440.7,926.2,1401.2,3441.9,3445.5,759.6,1461.7,1016.8,590.7,1291.8,1824.6,3449.1,3445.5,701.1,1015.1,1314.2,1450.6,1172.6,1137.5,-6.0,0.0,36.0,9861.0,12974.0,-1673.0,264.0,203.0,-266.0,-32.0,-26.0,1.0,10.0,11382.0,11293.0,1825.0,2837.0,18.0,16.0,-99.0,1.0
2022-05-06 12:23:01.269607-07:00,1961.8,608.4,1156.8,1534.8,1024.5,1148.0,1344.0,1549.7,3444.3,3458.9,1513.4,1511.5,1557.1,3441.9,926.2,1401.2,3441.9,3444.3,753.8,1458.9,1016.8,590.7,1288.2,1835.2,3449.1,3444.3,702.8,1003.9,1314.2,1450.6,1184.1,1140.1,-24.0,8.0,24.0,9863.0,12980.0,-1625.0,206.0,-98.0,79.0,-268.0,-23.0,-22.0,31.0,11394.0,11278.0,1848.0,2830.0,-64.0,51.0,-3.0,1.0
2022-05-06 12:23:01.386193-07:00,1945.9,614.9,1157.7,1525.5,1021.9,1142.7,1333.2,1533.8,3445.5,3437.0,1517.1,1506.9,1559.9,3437.0,927.9,1397.6,3431.0,3437.0,752.9,1462.6,1021.9,595.5,1286.4,1825.5,3428.6,3451.6,699.5,1005.6,1314.2,1446.0,1185.9,1136.6,-14.0,-9.0,-6.0,9825.0,13021.0,-1530.0,153.0,-48.0,-69.0,5.0,-11.0,-15.0,17.0,11387.0,11277.0,1868.0,2846.0,-37.0,-2.0,-13.0,1.0
2022-05-06 12:23:01.387285-07:00,1947.9,614.1,1157.7,1525.5,1018.5,1161.2,1333.2,1533.8,3443.1,3441.9,1517.1,1506.9,1551.5,3443.1,927.9,1397.6,3431.0,3437.0,755.4,1453.4,1021.9,595.5,1296.3,1833.3,3428.6,3451.6,692.9,1005.6,1314.2,1446.0,1187.6,1141.0,-14.0,-1.0,7.0,9826.0,13018.0,-1548.0,136.0,-21.0,-38.0,19.0,-16.0,-10.0,18.0,11397.0,11268.0,1870.0,2839.0,-11.0,-6.0,-4.0,1.0
2022-05-06 12:23:01.414721-07:00,1947.9,614.1,1153.3,1519.0,1018.5,1147.1,1336.8,1533.8,3443.1,3441.9,1515.3,1509.7,1551.5,3438.2,929.6,1405.8,3439.5,3440.7,752.9,1453.4,1021.9,593.9,1296.3,1833.3,3433.4,3443.1,690.5,1005.6,1316.0,1441.5,1187.6,1141.0,-15.0,26.0,-2.0,9832.0,13013.0,-1551.0,132.0,-9.0,1.0,-42.0,-10.0,-8.0,19.0,11407.0,11259.0,1870.0,2838.0,-16.0,5.0,3.0,1.0
2022-05-06 12:23:01.474907-07:00,1942.0,614.1,1159.4,1519.0,1028.0,1147.1,1336.8,1533.8,3438.2,3447.9,1513.4,1509.7,1555.3,3438.2,929.6,1405.8,3439.5,3440.7,752.9,1447.9,1021.9,589.9,1296.3,1825.5,3433.4,3443.1,690.5,996.2,1316.0,1450.6,1185.0,1138.4,-5.0,-9.0,-2.0,9823.0,13023.0,-1526.0,104.0,78.0,-30.0,-105.0,-8.0,-7.0,13.0,11408.0,11258.0,1873.0,2837.0,29.0,-4.0,-18.0,1.0
2022-05-06 12:23:01.654855-07:00,1942.0,614.1,1159.4,1523.6,1028.0,1141.0,1341.3,1533.8,3438.2,3447.9,1513.4,1510.6,1555.3,3454.0,926.2,1405.8,3438.2,3431.0,744.7,1447.9,1014.2,589.9,1296.3,1825.5,3445.5,3445.5,698.7,996.2,1316.9,1450.6,1185.0,1138.4,-7.0,-8.0,-4.0,9814.0,13032.0,-1507.0,85.0,-49.0,21.0,0.0,-10.0,-6.0,8.0,11409.0,11257.0,1878.0,2832.0,-20.0,12.0,-3.0,1.0
2022-05-06 12:23:01.656214-07:00,1946.9,608.4,1157.7,1523.6,1021.9,1141.0,1341.3,1533.8,3444.3,3435.8,1507.8,1510.6,1550.6,3454.0,926.2,1405.8,3438.2,3431.0,744.7,1446.0,1014.2,594.7,1282.8,1836.2,3445.5,3445.5,698.7,1004.8,1316.9,1443.3,1174.4,1138.4,-12.0,7.0,0.0,9822.0,13026.0,-1509.0,93.0,-2.0,13.0,19.0,-10.0,-7.0,12.0,11415.0,11250.0,1878.0,2833.0,-2.0,1.0,11.0,1.0
2022-05-06 12:23:01.657014-07:00,1946.9,608.4,1157.7,1523.6,1021.9,1147.1,1340.4,1521.8,3444.3,3435.8,1507.8,1504.1,1550.6,3449.1,925.4,1405.8,3434.6,3437.0,752.9,1446.0,1010.8,594.7,1282.8,1836.2,3445.5,3438.2,696.2,1004.8,1314.2,1443.3,1174.4,1138.4,-6.0,3.0,-9.0,9822.0,13026.0,-1504.0,102.0,-7.0,28.0,2.0,-9.0,-5.0,13.0,11417.0,11248.0,1875.0,2837.0,-10.0,9.0,7.0,1.0
2022-05-06 12:23:01.658571-07:00,1936.1,617.3,1161.2,1523.6,1021.1,1147.1,1340.4,1521.8,3433.4,3440.7,1511.5,1504.1,1556.2,3449.1,925.4,1405.8,3434.6,3437.0,752.9,1444.2,1010.8,594.7,1299.0,1835.2,3445.5,3438.2,696.2,1005.6,1314.2,1443.3,1177.9,1137.5,-10.0,-1.0,-11.0,9829.0,13022.0,-1499.0,105.0,-33.0,-10.0,-2.0,-12.0,-12.0,13.0,11423.0,11242.0,1878.0,2839.0,-30.0,7.0,-5.0,1.0
2022-05-06 12:23:01.894899-07:00,1936.1,617.3,1161.2,1524.5,1021.1,1146.3,1322.3,1542.2,3433.4,3440.7,1511.5,1501.4,1558.1,3450.4,927.1,1410.3,3441.9,3440.7,752.1,1440.5,1009.9,594.7,1299.0,1835.2,3439.5,3437.0,697.9,1003.9,1310.6,1443.3,1177.9,1137.5,-11.0,3.0,4.0,9832.0,13020.0,-1494.0,94.0,22.0,-8.0,-46.0,-9.0,-12.0,22.0,11432.0,11232.0,1879.0,2838.0,13.0,1.0,-12.0,1.0
2022-05-06 12:23:01.984544-07:00,1947.9,607.6,1146.3,1526.4,1021.1,1146.3,1322.3,1542.2,3449.1,3441.9,1501.4,1506.9,1558.1,3450.4,927.1,1410.3,3441.9,3440.7,752.1,1440.5,1010.8,587.5,1290.0,1843.0,3439.5,3437.0,697.9,1003.9,1313.3,1452.5,1182.3,1145.4,-13.0,-14.0,-4.0,9827.0,13026.0,-1482.0,88.0,20.0,14.0,3.0,-12.0,-19.0,14.0,11430.0,11234.0,1882.0,2837.0,6.0,9.0,13.0,1.0
2022-05-06 12:23:02.014862-07:00,1947.9,607.6,1146.3,1526.4,1023.7,1147.1,1329.6,1546.9,3449.1,3441.9,1501.4,1506.9,1550.6,3439.5,925.4,1410.3,3444.3,3438.2,751.3,1445.1,1010.8,587.5,1290.0,1843.0,3439.5,3441.9,692.9,1003.9,1313.3,1452.5,1182.3,1145.4,-7.0,15.0,-6.0,9816.0,13034.0,-1479.0,86.0,-1.0,-23.0,-46.0,-6.0,-6.0,10.0,11431.0,11233.0,1882.0,2837.0,-10.0,0.0,-7.0,1.0
2022-05-06 12:23:02.045400-07:00,1946.9,606.8,1155.9,1531.0,1023.7,1147.1,1329.6,1546.9,3440.7,3444.3,1522.7,1503.2,1550.6,3439.5,925.4,1410.3,3444.3,3438.2,751.3,1445.1,1013.3,586.7,1290.9,1833.3,3439.5,3441.9,692.9,1003.9,1315.1,1448.8,1176.2,1139.2,-11.0,-9.0,4.0,9813.0,13038.0,-1470.0,63.0,58.0,-30.0,-20.0,-10.0,-17.0,15.0,11435.0,11229.0,1882.0,2836.0,10.0,-5.0,-1.0,1.0
2022-05-06 12:23:02.046327-07:00,1946.9,606.8,1155.9,1531.0,1021.9,1145.4,1329.6,1534.8,3440.7,3444.3,1522.7,1503.2,1547.8,3434.6,925.4,1406.7,3426.2,3435.8,748.0,1441.5,1013.3,586.7,1290.9,1833.3,3441.9,3446.7,722.5,999.6,1315.1,1448.8,1176.2,1139.2,-6.0,-3.0,-3.0,9798.0,13048.0,-1477.0,56.0,2.0,-13.0,29.0,-8.0,-10.0,10.0,11433.0,11231.0,1884.0,2834.0,3.0,2.0,13.0,1.0
2022-05-06 12:23:02.047378-07:00,1946.9,612.5,1163.8,1526.4,1021.9,1145.4,1329.6,1517.1,3438.2,3439.5,1505.1,1506.9,1547.8,3434.6,925.4,1405.8,3437.0,3435.8,748.0,1441.5,1012.5,597.1,1293.6,1826.5,3445.5,3446.7,722.5,999.6,1315.1,1442.4,1177.9,1143.6,-5.0,10.0,0.0,9803.0,13043.0,-1485.0,60.0,-48.0,12.0,-2.0,-7.0,-9.0,8.0,11437.0,11227.0,1882.0,2836.0,-23.0,4.0,3.0,1.0
2022-05-06 12:23:02.048418-07:00,1944.0,612.5,1163.8,1526.4,1020.2,1154.2,1324.1,1517.1,3440.7,3439.5,1505.1,1506.9,1554.3,3443.1,933.0,1405.8,3437.0,3441.9,748.0,1442.4,1012.5,597.1,1293.6,1835.2,3445.5,3443.1,692.9,996.2,1315.1,1442.4,1177.9,1141.0,-11.0,2.0,2.0,9811.0,13038.0,-1482.0,61.0,27.0,6.0,2.0,-7.0,-10.0,13.0,11440.0,11224.0,1882.0,2836.0,15.0,-1.0,-2.0,1.0
2022-05-06 12:23:02.105005-07:00,1944.0,608.4,1163.0,1524.5,1020.2,1154.2,1324.1,1507.8,3440.7,3447.9,1499.5,1490.3,1554.3,3443.1,933.0,1408.5,3434.6,3441.9,748.0,1442.4,1008.2,591.5,1290.0,1835.2,3433.4,3443.1,692.9,996.2,1319.6,1450.6,1184.1,1141.0,-10.0,8.0,0.0,9803.0,13044.0,-1478.0,58.0,9.0,-9.0,-30.0,-8.0,-9.0,9.0,11440.0,11225.0,1884.0,2835.0,5.0,1.0,-4.0,1.0
2022-05-06 12:23:02.107084-07:00,1939.0,608.4,1163.0,1524.5,1024.5,1148.9,1330.5,1507.8,3443.1,3447.9,1499.5,1490.3,1552.5,3450.4,929.6,1408.5,3434.6,3435.8,752.1,1440.5,1008.2,591.5,1290.0,1833.3,3433.4,3449.1,689.7,996.2,1319.6,1450.6,1184.1,1143.6,-9.0,-16.0,1.0,9810.0,13039.0,-1472.0,56.0,-33.0,31.0,31.0,-9.0,-15.0,14.0,11442.0,11222.0,1884.0,2835.0,-6.0,0.0,12.0,1.0
2022-05-06 12:23:02.164934-07:00,1939.0,601.2,1161.2,1536.6,1024.5,1148.9,1330.5,1530.1,3443.1,3439.5,1498.6,1511.5,1552.5,3450.4,929.6,1404.9,3437.0,3435.8,752.1,1440.5,1007.3,595.5,1287.3,1833.3,3450.4,3449.1,689.7,996.2,1307.0,1443.3,1180.6,1143.6,-8.0,18.0,-9.0,9807.0,13041.0,-1481.0,77.0,43.0,-5.0,33.0,-9.0,-3.0,8.0,11437.0,11227.0,1880.0,2840.0,33.0,0.0,19.0,1.0
2022-05-06 12:23:02.224422-07:00,1941.0,601.2,1161.2,1536.6,1034.0,1141.9,1322.3,1530.1,3449.1,3439.5,1498.6,1511.5,1541.3,3441.9,924.5,1404.9,3437.0,3434.6,744.7,1435.0,1007.3,595.5,1287.3,1833.3,3450.4,3449.1,692.1,1004.8,1307.0,1443.3,1180.6,1141.0,0.0,-6.0,-2.0,9806.0,13042.0,-1479.0,76.0,-67.0,19.0,-33.0,-4.0,-14.0,6.0,11436.0,11226.0,1880.0,2845.0,-35.0,14.0,0.0,1.0
2022-05-06 12:23:02.375009-07:00,1941.0,614.1,1166.5,1519.9,1034.0,1141.9,1320.5,1518.0,3449.1,3445.5,1501.4,1500.4,1541.3,3441.9,926.2,1397.6,3435.8,3443.1,744.7,1435.0,1015.1,592.3,1286.4,1833.3,3449.1,3446.7,692.1,1004.8,1311.5,1450.6,1183.2,1141.0,-11.0,0.0,-4.0,9818.0,13033.0,-1471.0,70.0,-14.0,-21.0,-10.0,-12.0,-11.0,9.0,11449.0,11213.0,1879.0,2847.0,-25.0,3.0,-10.0,1.0
2022-05-06 12:23:02.375967-07:00,1937.1,603.6,1166.5,1519.9,1026.3,1143.6,1320.5,1518.0,3449.1,3447.9,1501.4,1500.4,1557.1,3445.5,926.2,1397.6,3435.8,3443.1,751.3,1436.0,1015.1,592.3,1287.3,1833.3,3449.1,3446.7,699.5,997.0,1311.5,1450.6,1181.5,1132.2,-6.0,7.0,5.0,9821.0,13031.0,-1470.0,55.0,-25.0,-5.0,-42.0,-3.0,-8.0,14.0,11455.0,11206.0,1879.0,2846.0,-25.0,-1.0,-6.0,1.0
2022-05-06 12:23:02.404827-07:00,1937.1,603.6,1163.8,1530.1,1026.3,1143.6,1322.3,1522.7,3449.1,3447.9,1497.7,1501.4,1557.1,3445.5,936.4,1400.3,3439.5,3438.2,751.3,1436.0,1012.5,594.7,1287.3,1833.3,3445.5,3446.7,699.5,997.0,1311.5,1442.4,1181.5,1132.2,-13.0,5.0,2.0,9823.0,13032.0,-1454.0,40.0,33.0,-10.0,-55.0,-12.0,-11.0,9.0,11457.0,11204.0,1884.0,2844.0,12.0,3.0,-13.0,1.0
2022-05-06 12:23:02.406430-07:00,1950.9,606.8,1163.8,1530.1,1019.4,1148.9,1322.3,1522.7,3439.5,3447.9,1497.7,1501.4,1548.7,3443.1,936.4,1400.3,3439.5,3438.2,746.3,1438.7,1012.5,594.7,1289.1,1831.3,3445.5,3446.7,699.5,997.0,1311.5,1442.4,1181.5,1134.9,-4.0,-7.0,-3.0,9811.0,13043.0,-1436.0,27.0,23.0,5.0,-28.0,-6.0,-6.0,4.0,11452.0,11208.0,1888.0,2844.0,23.0,10.0,8.0,1.0
2022-05-06 12:23:02.525159-07:00,1950.9,606.8,1148.9,1526.4,1019.4,1148.9,1325.0,1523.6,3439.5,3447.9,1494.9,1508.8,1548.7,3443.1,928.8,1403.0,3437.0,3443.1,746.3,1438.7,1011.6,597.1,1289.1,1831.3,3438.2,3449.1,699.5,997.0,1311.5,1448.8,1181.5,1134.9,-16.0,10.0,-15.0,9811.0,13042.0,-1444.0,39.0,0.0,-17.0,56.0,-7.0,-10.0,12.0,11451.0,11209.0,1888.0,2844.0,8.0,3.0,12.0,1.0
2022-05-06 12:23:02.525977-07:00,1944.0,610.0,1158.6,1526.4,1014.2,1148.0,1325.0,1523.6,3438.2,3440.7,1496.7,1508.8,1547.8,3445.5,928.8,1403.0,3437.0,3443.1,746.3,1437.8,1011.6,598.7,1284.6,1831.3,3438.2,3449.1,693.8,993.6,1311.5,1454.3,1182.3,1132.2,-4.0,0.0,-2.0,9819.0,13033.0,-1471.0,26.0,-21.0,-63.0,14.0,-7.0,-8.0,10.0,11457.0,11203.0,1885.0,2845.0,-48.0,-16.0,13.0,1.0
2022-05-06 12:23:02.554738-07:00,1944.0,610.0,1158.6,1527.3,1014.2,1145.4,1316.9,1520.8,3438.2,3440.7,1496.7,1501.4,1547.8,3443.1,927.1,1408.5,3438.2,3428.6,742.2,1437.8,1015.9,598.7,1284.6,1831.3,3446.7,3449.1,697.9,993.6,1320.5,1454.3,1182.3,1132.2,-8.0,-1.0,13.0,9820.0,13030.0,-1489.0,23.0,-11.0,2.0,42.0,-6.0,-15.0,17.0,11468.0,11195.0,1877.0,2843.0,-4.0,-5.0,14.0,1.0
2022-05-06 12:23:02.615506-07:00,1937.1,618.1,1155.0,1527.3,1018.5,1145.4,1316.9,1520.8,3439.5,3445.5,1501.4,1501.4,1545.9,3443.1,927.1,1408.5,3438.2,3428.6,742.2,1437.8,1015.9,593.1,1284.6,1833.3,3446.7,3449.1,697.9,994.5,1320.5,1451.6,1180.6,1141.9,-8.0,17.0,-5.0,9827.0,13025.0,-1488.0,46.0,-10.0,57.0,8.0,-4.0,-8.0,11.0,11466.0,11195.0,1876.0,2848.0,9.0,18.0,8.0,1.0
2022-05-06 12:23:02.704540-07:00,1937.1,618.1,1155.0,1524.5,1018.5,1145.4,1332.3,1521.8,3439.5,3445.5,1501.4,1507.8,1545.9,3441.9,925.4,1400.3,3447.9,3437.0,746.3,1437.8,1007.3,593.1,1284.6,1833.3,3443.1,3449.1,697.9,994.5,1306.1,1451.6,1180.6,1141.9,-8.0,-3.0,-14.0,9830.0,13023.0,-1483.0,52.0,0.0,-3.0,3.0,-8.0,-14.0,5.0,11462.0,11197.0,1883.0,2853.0,1.0,7.0,-9.0,1.0
2022-05-06 12:23:02.764835-07:00,1930.2,612.5,1156.8,1524.5,1020.2,1145.4,1332.3,1521.8,3440.7,3435.8,1500.4,1507.8,1544.1,3441.9,925.4,1400.3,3447.9,3437.0,746.3,1436.9,1007.3,592.3,1293.6,1835.2,3443.1,3449.1,697.9,995.3,1306.1,1447.0,1206.2,1139.2,-10.0,2.0,5.0,9831.0,13021.0,-1493.0,44.0,-21.0,-24.0,9.0,-8.0,-9.0,10.0,11466.0,11194.0,1880.0,2850.0,-26.0,-12.0,4.0,1.0
2022-05-06 12:23:02.766075-07:00,1930.2,612.5,1156.8,1530.1,1020.2,1146.3,1332.3,1517.1,3440.7,3435.8,1500.4,1506.9,1544.1,3452.8,926.2,1399.4,3437.0,3428.6,743.9,1436.9,1000.5,592.3,1293.6,1835.2,3433.4,3439.5,689.7,995.3,1310.6,1447.0,1206.2,1139.2,0.0,2.0,8.0,9828.0,13022.0,-1508.0,38.0,52.0,-36.0,33.0,-2.0,-5.0,6.0,11469.0,11191.0,1875.0,2854.0,0.0,-9.0,13.0,1.0
2022-05-06 12:23:03.005203-07:00,1935.1,602.0,1161.2,1530.1,1018.5,1146.3,1332.3,1517.1,3445.5,3443.1,1494.9,1497.7,1548.7,3452.8,926.2,1399.4,3437.0,3428.6,743.9,1442.4,1014.2,591.5,1289.1,1837.2,3433.4,3439.5,689.7,994.5,1316.9,1448.8,1182.3,1130.5,-9.0,14.0,5.0,9819.0,13027.0,-1519.0,45.0,1.0,11.0,14.0,-7.0,-9.0,8.0,11468.0,11192.0,1875.0,2853.0,5.0,5.0,-2.0,1.0
2022-05-06 12:23:03.064415-07:00,1935.1,602.0,1161.2,1530.1,1017.6,1144.5,1320.5,1522.7,3445.5,3443.1,1494.9,1497.7,1555.3,3441.9,923.7,1404.9,3438.2,3445.5,743.0,1436.9,1014.2,591.5,1289.1,1837.2,3444.3,3445.5,693.8,1001.3,1316.9,1448.8,1182.3,1130.5,-12.0,-4.0,-4.0,9832.0,13018.0,-1511.0,55.0,-24.0,44.0,7.0,-7.0,-15.0,13.0,11468.0,11191.0,1877.0,2855.0,-1.0,9.0,8.0,1.0
2022-05-06 12:23:03.185438-07:00,1937.1,602.0,1161.2,1531.0,1017.6,1144.5,1320.5,1522.7,3449.1,3451.6,1504.1,1509.7,1555.3,3441.9,923.7,1404.9,3438.2,3445.5,743.0,1436.9,1009.9,582.6,1296.3,1845.9,3444.3,3445.5,693.8,1001.3,1314.2,1445.1,1177.0,1140.1,-5.0,5.0,-11.0,9823.0,13024.0,-1517.0,68.0,43.0,-10.0,37.0,-9.0,-8.0,2.0,11462.0,11197.0,1879.0,2856.0,27.0,-9.0,4.0,1.0
2022-05-06 12:23:03.186386-07:00,1937.1,602.0,1161.2,1531.0,1025.4,1146.3,1321.4,1515.3,3449.1,3451.6,1504.1,1509.7,1552.5,3440.7,919.4,1401.2,3435.8,3439.5,747.2,1433.2,1009.9,582.6,1296.3,1845.9,3440.7,3449.1,692.1,997.0,1314.2,1445.1,1177.0,1140.1,-11.0,9.0,-6.0,9827.0,13021.0,-1525.0,62.0,-33.0,-28.0,-14.0,-8.0,-11.0,9.0,11465.0,11194.0,1878.0,2856.0,-22.0,0.0,-3.0,1.0
2022-05-06 12:23:03.187632-07:00,1936.1,599.6,1159.4,1530.1,1025.4,1146.3,1321.4,1515.3,3437.0,3441.9,1494.9,1506.9,1552.5,3440.7,919.4,1401.2,3435.8,3439.5,747.2,1433.2,1009.0,592.3,1299.8,1833.3,3440.7,3449.1,692.1,997.0,1307.9,1446.0,1180.6,1141.9,-5.0,0.0,5.0,9826.0,13021.0,-1530.0,54.0,10.0,-3.0,1.0,-8.0,-6.0,9.0,11467.0,11192.0,1876.0,2855.0,-14.0,-12.0,6.0,1.0
2022-05-06 12:23:03.215134-07:00,1941.0,599.6,1159.4,1530.1,1014.2,1149.8,1323.2,1517.1,3428.6,3441.9,1494.9,1506.9,1545.9,3444.3,926.2,1400.3,3429.8,3443.1,745.5,1433.2,1009.0,592.3,1299.8,1838.2,3439.5,3450.4,694.6,994.5,1307.9,1446.0,1180.6,1132.2,-10.0,-7.0,-2.0,9823.0,13023.0,-1533.0,56.0,29.0,-10.0,21.0,-11.0,-16.0,9.0,11466.0,11193.0,1875.0,2857.0,20.0,3.0,15.0,1.0
2022-05-06 12:23:03.216624-07:00,1941.0,614.9,1158.6,1527.3,1014.2,1149.8,1323.2,1527.3,3428.6,3439.5,1500.4,1499.5,1545.9,3444.3,926.2,1404.0,3439.5,3443.1,745.5,1433.2,1015.1,593.1,1301.6,1838.2,3450.4,3450.4,694.6,994.5,1318.7,1447.0,1183.2,1132.2,0.0,3.0,4.0,9821.0,13023.0,-1538.0,58.0,-26.0,0.0,9.0,-3.0,-6.0,1.0,11469.0,11190.0,1873.0,2856.0,-25.0,-12.0,1.0,1.0
2022-05-06 12:23:03.274584-07:00,1931.1,599.6,1158.6,1527.3,1031.4,1142.7,1316.0,1518.0,3440.7,3440.7,1492.1,1504.1,1546.9,3445.5,926.2,1405.8,3441.9,3437.0,742.2,1423.1,1007.3,589.1,1295.4,1842.0,3447.9,3446.7,697.0,994.5,1318.7,1449.7,1172.6,1138.4,-10.0,26.0,-4.0,9827.0,13022.0,-1517.0,54.0,12.0,-1.0,-104.0,-5.0,-8.0,16.0,11477.0,11183.0,1871.0,2858.0,-2.0,4.0,-9.0,1.0
2022-05-06 12:23:03.334346-07:00,1931.1,609.2,1160.3,1533.8,1031.4,1142.7,1316.0,1516.2,3440.7,3435.8,1496.7,1492.1,1546.9,3445.5,926.2,1404.9,3441.9,3437.0,742.2,1423.1,1009.0,593.1,1306.1,1842.0,3446.7,3446.7,697.0,994.5,1311.5,1447.0,1174.4,1138.4,-3.0,-19.0,0.0,9821.0,13032.0,-1468.0,0.0,4.0,-22.0,-151.0,-7.0,-13.0,4.0,11476.0,11183.0,1882.0,2853.0,-9.0,11.0,-28.0,1.0
2022-05-06 12:23:03.395104-07:00,1927.2,608.4,1160.3,1533.8,1022.8,1146.3,1316.0,1516.2,3447.9,3452.8,1496.7,1492.1,1551.5,3435.8,919.4,1404.9,3441.9,3449.1,745.5,1431.4,1009.0,593.1,1313.3,1836.2,3446.7,3450.4,692.1,994.5,1311.5,1447.0,1181.5,1139.2,-16.0,-18.0,0.0,9819.0,13035.0,-1457.0,-7.0,7.0,-5.0,42.0,-10.0,-16.0,12.0,11478.0,11181.0,1886.0,2849.0,-4.0,-1.0,-4.0,1.0
2022-05-06 12:23:03.424747-07:00,1927.2,608.4,1151.5,1520.8,1022.8,1146.3,1321.4,1521.8,3447.9,3452.8,1492.1,1501.4,1551.5,3435.8,923.7,1404.9,3441.9,3449.1,745.5,1431.4,1003.0,588.3,1313.3,1836.2,3452.8,3447.9,692.1,994.5,1316.0,1450.6,1181.5,1139.2,-9.0,-1.0,-8.0,9827.0,13025.0,-1493.0,9.0,-58.0,-33.0,110.0,-7.0,-10.0,2.0,11480.0,11180.0,1879.0,2852.0,-21.0,-18.0,19.0,1.0
2022-05-06 12:23:03.455739-07:00,1930.2,602.8,1151.5,1520.8,1021.1,1136.6,1321.4,1521.8,3438.2,3438.2,1492.1,1501.4,1545.9,3438.2,923.7,1404.9,3441.9,3449.1,744.7,1436.9,1003.0,588.3,1307.9,1843.0,3452.8,3447.9,695.4,993.6,1316.0,1450.6,1182.3,1143.6,-6.0,25.0,1.0,9846.0,13006.0,-1525.0,17.0,-54.0,-27.0,27.0,-1.0,-10.0,14.0,11495.0,11167.0,1859.0,2855.0,-64.0,-27.0,19.0,1.0
2022-05-06 12:23:03.514796-07:00,1930.2,602.8,1155.0,1527.3,1021.1,1136.6,1323.2,1511.5,3438.2,3438.2,1491.2,1499.5,1545.9,3438.2,921.1,1407.6,3439.5,3440.7,744.7,1436.9,1006.5,591.5,1307.9,1843.0,3438.2,3454.0,695.4,993.6,1307.9,1445.1,1182.3,1143.6,-4.0,6.0,14.0,9844.0,13008.0,-1519.0,1.0,44.0,2.0,-59.0,-5.0,-7.0,15.0,11504.0,11159.0,1852.0,2851.0,7.0,-10.0,-10.0,1.0
2022-05-06 12:23:03.605041-07:00,1935.1,604.4,1155.0,1527.3,1017.6,1136.6,1323.2,1511.5,3438.2,3441.9,1491.2,1499.5,1554.3,3437.0,921.1,1407.6,3439.5,3440.7,744.7,1436.0,1006.5,591.5,1307.9,1835.2,3438.2,3454.0,692.9,995.3,1307.9,1445.1,1177.9,1144.5,-7.0,-10.0,-8.0,9832.0,13020.0,-1496.0,-2.0,33.0,30.0,-24.0,-7.0,-12.0,6.0,11496.0,11166.0,1860.0,2853.0,37.0,20.0,-6.0,1.0
2022-05-06 12:23:03.634135-07:00,1935.1,604.4,1148.0,1530.1,1017.6,1139.2,1316.9,1519.0,3438.2,3441.9,1491.2,1504.1,1554.3,3438.2,922.0,1406.7,3438.2,3438.2,746.3,1436.0,1008.2,592.3,1307.9,1835.2,3449.1,3440.7,697.0,995.3,1313.3,1441.5,1177.9,1144.5,-13.0,2.0,-10.0,9827.0,13024.0,-1500.0,1.0,-10.0,-27.0,23.0,-10.0,-6.0,5.0,11491.0,11171.0,1861.0,2853.0,-6.0,-10.0,6.0,1.0
2022-05-06 12:23:03.664660-07:00,1927.2,608.4,1158.6,1530.1,1020.2,1139.2,1316.9,1519.0,3441.9,3443.1,1490.3,1504.1,1551.5,3438.2,922.0,1406.7,3438.2,3438.2,746.3,1434.1,1008.2,590.7,1311.5,1835.2,3449.1,3440.7,697.0,996.2,1313.3,1446.0,1192.9,1135.7,-6.0,-3.0,0.0,9834.0,13017.0,-1516.0,0.0,-6.0,-28.0,40.0,-6.0,-10.0,11.0,11500.0,11164.0,1848.0,2854.0,-38.0,-25.0,19.0,1.0
2022-05-06 12:23:03.724881-07:00,1927.2,608.4,1158.6,1529.2,1020.2,1142.7,1325.9,1512.5,3441.9,3443.1,1490.3,1500.4,1551.5,3441.9,933.9,1398.5,3438.2,3438.2,746.3,1434.1,1009.0,590.7,1311.5,1835.2,3438.2,3438.2,694.6,996.2,1300.7,1446.0,1192.9,1135.7,-3.0,-2.0,5.0,9838.0,13011.0,-1536.0,-2.0,-18.0,-22.0,25.0,-8.0,-16.0,11.0,11508.0,11158.0,1837.0,2852.0,-26.0,-12.0,10.0,1.0
2022-05-06 12:23:03.755496-07:00,1938.0,608.4,1157.7,1529.2,1028.0,1142.7,1325.9,1512.5,3441.9,3441.9,1494.9,1500.4,1544.1,3441.9,933.9,1398.5,3438.2,3438.2,746.3,1433.2,1009.0,592.3,1307.9,1846.9,3438.2,3438.2,694.6,994.5,1300.7,1444.2,1178.8,1140.1,-9.0,9.0,0.0,9837.0,13011.0,-1548.0,2.0,10.0,-9.0,26.0,-7.0,-9.0,5.0,11508.0,11158.0,1836.0,2850.0,12.0,3.0,7.0,1.0
2022-05-06 12:23:03.844763-07:00,1938.0,608.4,1157.7,1521.8,1028.0,1139.2,1328.7,1514.3,3441.9,3441.9,1494.9,1502.3,1544.1,3444.3,922.0,1411.3,3440.7,3435.8,748.8,1433.2,1009.9,592.3,1307.9,1846.9,3447.9,3449.1,691.3,994.5,1313.3,1444.2,1178.8,1140.1,-6.0,22.0,0.0,9836.0,13012.0,-1543.0,-4.0,11.0,-9.0,-105.0,-5.0,-4.0,8.0,11511.0,11156.0,1836.0,2850.0,-15.0,-2.0,-11.0,1.0
2022-05-06 12:23:03.874754-07:00,1935.1,603.6,1163.0,1521.8,1027.1,1139.2,1328.7,1514.3,3439.5,3433.4,1495.8,1502.3,1553.4,3444.3,922.0,1411.3,3440.7,3435.8,748.8,1436.9,1009.9,591.5,1299.8,1838.2,3447.9,3449.1,691.3,991.9,1313.3,1448.8,1177.0,1140.1,-7.0,-27.0,8.0,9835.0,13017.0,-1508.0,-31.0,17.0,13.0,-30.0,-9.0,-16.0,12.0,11514.0,11153.0,1840.0,2846.0,2.0,8.0,-11.0,1.0
2022-05-06 12:23:03.905439-07:00,1935.1,603.6,1163.0,1532.0,1017.6,1132.2,1320.5,1519.0,3439.5,3433.4,1495.8,1495.8,1550.6,3451.6,930.5,1405.8,3441.9,3431.0,740.6,1432.3,1009.0,591.5,1299.8,1838.2,3444.3,3438.2,692.9,992.7,1314.2,1448.8,1177.0,1140.1,-7.0,8.0,-7.0,9826.0,13023.0,-1510.0,-17.0,14.0,21.0,56.0,-7.0,-1.0,2.0,11505.0,11160.0,1843.0,2848.0,25.0,1.0,15.0,1.0
2022-05-06 12:23:04.115023-07:00,1927.2,601.2,1153.3,1530.1,1017.6,1132.2,1320.5,1519.0,3444.3,3451.6,1495.8,1502.3,1550.6,3451.6,930.5,1405.8,3441.9,3431.0,740.6,1432.3,1007.3,595.5,1307.0,1833.3,3444.3,3438.2,692.9,992.7,1311.5,1448.8,1182.3,1140.1,-6.0,10.0,-5.0,9831.0,13019.0,-1521.0,-9.0,-34.0,-20.0,3.0,-5.0,-9.0,7.0,11507.0,11158.0,1838.0,2852.0,-34.0,-11.0,11.0,1.0
2022-05-06 12:23:04.116240-07:00,1927.2,601.2,1153.3,1530.1,1020.2,1147.1,1316.0,1505.1,3444.3,3451.6,1495.8,1502.3,1550.6,3435.8,920.3,1408.5,3437.0,3441.9,743.0,1432.3,1007.3,595.5,1307.0,1833.3,3441.9,3443.1,691.3,993.6,1311.5,1448.8,1182.3,1140.1,-5.0,-2.0,8.0,9840.0,13011.0,-1525.0,-16.0,7.0,-1.0,9.0,-2.0,-13.0,13.0,11516.0,11149.0,1833.0,2856.0,-13.0,-2.0,6.0,1.0
2022-05-06 12:23:04.175493-07:00,1939.0,602.0,1153.3,1523.6,1020.2,1147.1,1316.0,1505.1,3441.9,3439.5,1488.4,1501.4,1550.6,3435.8,920.3,1408.5,3437.0,3441.9,743.0,1432.3,1008.2,589.1,1310.6,1840.1,3441.9,3443.1,691.3,993.6,1309.7,1448.8,1181.5,1139.2,-8.0,6.0,4.0,9833.0,13016.0,-1528.0,-12.0,24.0,9.0,-6.0,-8.0,-12.0,10.0,11511.0,11154.0,1836.0,2855.0,20.0,12.0,-11.0,1.0
2022-05-06 12:23:04.265376-07:00,1939.0,602.0,1153.3,1523.6,1020.2,1134.0,1316.0,1506.9,3441.9,3439.5,1488.4,1501.4,1548.7,3446.7,926.2,1402.1,3437.0,3437.0,743.9,1426.8,1008.2,589.1,1310.6,1840.1,3443.1,3443.1,692.9,991.9,1309.7,1448.8,1181.5,1139.2,-7.0,-4.0,-1.0,9827.0,13021.0,-1522.0,-14.0,8.0,18.0,-8.0,-9.0,-9.0,8.0,11506.0,11158.0,1843.0,2857.0,11.0,16.0,-6.0,1.0
2022-05-06 12:23:04.266377-07:00,1947.9,604.4,1158.6,1524.5,1020.2,1134.0,1316.0,1510.6,3444.3,3428.6,1487.5,1499.5,1548.7,3446.7,926.2,1410.3,3439.5,3437.0,743.9,1426.8,1000.5,589.1,1307.0,1838.2,3447.9,3443.1,692.9,991.9,1309.7,1439.6,1170.9,1145.4,-8.0,3.0,-1.0,9828.0,13020.0,-1524.0,-8.0,16.0,14.0,15.0,-11.0,-11.0,1.0,11503.0,11159.0,1847.0,2861.0,1.0,-1.0,-2.0,1.0
2022-05-06 12:23:04.267974-07:00,1933.1,604.4,1158.6,1524.5,1020.2,1143.6,1318.7,1510.6,3451.6,3428.6,1487.5,1499.5,1557.1,3444.3,918.6,1410.3,3439.5,3441.9,752.1,1434.1,1000.5,589.1,1307.0,1833.3,3447.9,3449.1,694.6,995.3,1309.7,1439.6,1170.9,1137.5,-7.0,10.0,1.0,9820.0,13026.0,-1524.0,-7.0,-16.0,2.0,-16.0,-7.0,-5.0,5.0,11501.0,11161.0,1846.0,2859.0,7.0,7.0,-3.0,1.0
2022-05-06 12:23:04.355569-07:00,1933.1,615.7,1160.3,1517.1,1020.2,1143.6,1318.7,1510.6,3451.6,3447.9,1489.3,1497.7,1557.1,3444.3,918.6,1410.3,3438.2,3441.9,752.1,1434.1,1000.5,586.7,1303.4,1833.3,3445.5,3449.1,694.6,995.3,1309.7,1444.2,1174.4,1137.5,-4.0,5.0,-4.0,9820.0,13026.0,-1523.0,-7.0,25.0,-12.0,16.0,-5.0,-14.0,7.0,11497.0,11166.0,1848.0,2858.0,28.0,4.0,-10.0,1.0
2022-05-06 12:23:04.444219-07:00,1925.2,615.7,1160.3,1517.1,1015.9,1144.5,1316.0,1510.6,3438.2,3447.9,1489.3,1497.7,1540.3,3444.3,918.6,1410.3,3438.2,3444.3,754.6,1422.2,1000.5,586.7,1303.4,1836.2,3445.5,3447.9,688.0,985.0,1309.7,1444.2,1174.4,1143.6,-7.0,29.0,-7.0,9820.0,13027.0,-1521.0,-10.0,-41.0,-12.0,-87.0,-8.0,-8.0,4.0,11496.0,11167.0,1852.0,2854.0,-19.0,4.0,-12.0,1.0
2022-05-06 12:23:04.505670-07:00,1925.2,601.2,1157.7,1529.2,1015.9,1144.5,1316.0,1509.7,3438.2,3440.7,1494.0,1495.8,1540.3,3444.3,918.6,1401.2,3444.3,3444.3,754.6,1422.2,1006.5,589.1,1302.5,1836.2,3445.5,3447.9,688.0,985.0,1307.0,1449.7,1170.9,1143.6,24.0,309.0,-37.0,9806.0,13055.0,-1346.0,-167.0,167.0,-147.0,-1889.0,-18.0,-50.0,11.0,11539.0,11128.0,1844.0,2840.0,-167.0,-73.0,-79.0,1.0
2022-05-06 12:23:04.506544-07:00,1931.1,601.2,1157.7,1529.2,1021.1,1148.9,1316.0,1509.7,3451.6,3440.7,1494.0,1495.8,1552.5,3450.4,922.0,1401.2,3444.3,3440.7,744.7,1434.1,1006.5,589.1,1302.5,1837.2,3445.5,3445.5,697.9,997.9,1307.0,1449.7,1170.9,1140.1,156.0,486.0,-22.0,9658.0,13183.0,-320.0,-1122.0,-456.0,-707.0,-5139.0,19.0,89.0,-27.0,11735.0,10939.0,1857.0,2761.0,-860.0,37.0,-428.0,1.0
2022-05-06 12:23:04.507348-07:00,1931.1,602.8,1154.2,1532.0,1021.1,1148.9,1316.0,1506.9,3451.6,3441.9,1502.3,1500.4,1552.5,3450.4,924.5,1406.7,3445.5,3449.1,744.7,1434.1,1010.8,590.7,1298.1,1837.2,3449.1,3446.7,697.9,997.9,1312.4,1440.5,1170.9,1140.1,354.0,-176.0,-16.0,9837.0,12713.0,1608.0,-2730.0,-2744.0,263.0,-5422.0,37.0,115.0,54.0,12309.0,10300.0,1962.0,2640.0,-2647.0,13.0,-844.0,1.0
2022-05-06 12:23:04.509675-07:00,1938.0,597.9,1154.2,1532.0,1019.4,1186.7,1316.0,1506.9,3440.7,3438.2,1502.3,1500.4,1545.0,3441.9,924.5,1406.7,3445.5,3449.1,745.5,1494.0,1010.8,590.7,1274.7,1834.3,3449.1,3446.7,699.5,997.9,1312.4,1440.5,1185.0,1141.9,60.0,-559.0,36.0,10209.0,11957.0,3004.0,-3494.0,-256.0,264.0,-1419.0,-81.0,-270.0,-46.0,12812.0,9681.0,1992.0,2568.0,-737.0,37.0,-399.0,1.0
2022-05-06 12:23:04.594475-07:00,1938.0,597.9,1152.4,1530.1,1019.4,1186.7,1340.4,1502.3,3440.7,3438.2,1549.7,1517.1,1545.0,3441.9,919.4,1399.4,3435.8,3441.9,745.5,1494.0,1036.6,594.7,1274.7,1834.3,3444.3,3447.9,699.5,997.9,1313.3,1452.5,1185.0,1141.9,-121.0,-90.0,-33.0,10139.0,11834.0,3461.0,-3689.0,-548.0,-265.0,-887.0,-18.0,11.0,125.0,12911.0,9548.0,2054.0,2522.0,-510.0,102.0,-186.0,1.0
2022-05-06 12:23:04.596809-07:00,1954.8,603.6,1152.4,1530.1,1020.2,1192.9,1340.4,1502.3,3438.2,3444.3,1549.7,1517.1,1549.7,3446.7,919.4,1399.4,3435.8,3441.9,750.5,1517.1,1036.6,594.7,1265.8,1842.0,3444.3,3447.9,693.8,989.3,1313.3,1452.5,1194.7,1132.2,99.0,-137.0,-32.0,10307.0,11581.0,3551.0,-3935.0,-443.0,-526.0,-212.0,-42.0,-73.0,-98.0,13095.0,9293.0,2027.0,2550.0,-513.0,-59.0,58.0,1.0
2022-05-06 12:23:04.655407-07:00,1954.8,603.6,1155.0,1528.3,1020.2,1192.9,1339.5,1493.0,3438.2,3444.3,1555.3,1520.8,1549.7,3446.7,926.2,1400.3,3441.9,3433.4,750.5,1517.1,1029.7,602.0,1265.8,1842.0,3446.7,3450.4,693.8,989.3,1313.3,1463.5,1194.7,1132.2,-25.0,17.0,15.0,10330.0,11557.0,3494.0,-3994.0,193.0,-110.0,78.0,0.0,8.0,31.0,13116.0,9274.0,1991.0,2538.0,65.0,-48.0,-49.0,1.0
2022-05-06 12:23:04.744673-07:00,1947.9,606.0,1149.8,1528.3,1023.7,1195.6,1339.5,1493.0,3443.1,3449.1,1552.5,1520.8,1545.0,3438.2,926.2,1400.3,3441.9,3433.4,741.4,1502.3,1029.7,598.7,1258.7,1840.1,3446.7,3450.4,708.5,982.5,1313.3,1452.5,1197.4,1139.2,23.0,-8.0,48.0,10335.0,11551.0,3435.0,-4050.0,-62.0,-194.0,-24.0,-7.0,-18.0,20.0,13140.0,9245.0,1975.0,2527.0,-110.0,-27.0,-6.0,1.0
2022-05-06 12:23:04.745882-07:00,1947.9,606.0,1149.8,1519.9,1023.7,1190.3,1350.3,1496.7,3443.1,3449.1,1552.5,1514.3,1545.0,3446.7,922.8,1414.9,3449.1,3439.5,750.5,1502.3,1026.3,598.7,1258.7,1840.1,3450.4,3449.1,706.9,982.5,1314.2,1452.5,1197.4,1139.2,12.0,-38.0,46.0,10323.0,11568.0,3411.0,-4050.0,162.0,77.0,105.0,7.0,-32.0,33.0,13131.0,9258.0,1980.0,2525.0,197.0,36.0,-2.0,1.0
2022-05-06 12:23:04.984370-07:00,1942.0,604.4,1154.2,1519.9,1025.4,1190.3,1350.3,1496.7,3447.9,3439.5,1552.5,1514.3,1543.1,3446.7,922.8,1414.9,3449.1,3439.5,750.5,1493.0,1026.3,597.1,1255.1,1838.2,3450.4,3449.1,706.9,980.7,1314.2,1450.6,1191.2,1145.4,-25.0,52.0,21.0,10253.0,11660.0,3395.0,-3977.0,195.0,286.0,43.0,9.0,22.0,40.0,13062.0,9347.0,2015.0,2527.0,232.0,74.0,-5.0,1.0
2022-05-06 12:23:04.986173-07:00,1942.0,604.4,1154.2,1524.5,1025.4,1189.4,1328.7,1489.3,3447.9,3439.5,1552.5,1518.0,1543.1,3451.6,926.2,1407.6,3449.1,3438.2,741.4,1493.0,1024.5,597.1,1255.1,1838.2,3438.2,3445.5,706.0,980.7,1313.3,1450.6,1191.2,1145.4,21.0,-41.0,-10.0,10201.0,11710.0,3441.0,-3926.0,92.0,143.0,28.0,-10.0,-25.0,-15.0,13013.0,9405.0,2061.0,2529.0,160.0,51.0,-18.0,1.0
2022-05-06 12:23:04.987464-07:00,1939.0,608.4,1151.5,1524.5,1020.2,1189.4,1328.7,1489.3,3438.2,3438.2,1559.9,1518.0,1545.9,3451.6,926.2,1407.6,3449.1,3438.2,741.4,1504.1,1024.5,600.4,1245.3,1833.3,3438.2,3445.5,706.0,988.5,1313.3,1453.4,1193.8,1142.7,-13.0,58.0,-8.0,10178.0,11745.0,3454.0,-3870.0,1.0,126.0,15.0,-24.0,11.0,6.0,12984.0,9441.0,2077.0,2529.0,39.0,13.0,4.0,1.0
2022-05-06 12:23:04.988425-07:00,1939.0,608.4,1151.5,1537.6,1020.2,1185.9,1328.7,1484.7,3438.2,3438.2,1559.9,1514.3,1545.9,3441.9,924.5,1400.3,3441.9,3443.1,744.7,1504.1,1022.8,600.4,1245.3,1833.3,3438.2,3444.3,702.8,988.5,1312.4,1453.4,1193.8,1142.7,5.0,-42.0,-27.0,10187.0,11723.0,3499.0,-3873.0,-59.0,-39.0,-72.0,-20.0,-26.0,-10.0,12998.0,9424.0,2075.0,2525.0,-87.0,-33.0,-13.0,1.0
2022-05-06 12:23:05.015377-07:00,1945.0,605.2,1152.4,1523.6,1022.8,1185.9,1328.7,1484.7,3454.0,3443.1,1556.2,1519.0,1545.0,3441.9,924.5,1400.3,3441.9,3443.1,744.7,1488.4,1022.8,594.7,1248.0,1838.2,3438.2,3444.3,702.8,979.9,1313.3,1452.5,1187.6,1137.5,1.0,42.0,22.0,10217.0,11698.0,3464.0,-3898.0,-55.0,-115.0,31.0,-12.0,5.0,-7.0,13029.0,9390.0,2038.0,2521.0,-130.0,-81.0,24.0,1.0
2022-05-06 12:23:05.044767-07:00,1945.0,605.2,1152.4,1523.6,1021.9,1188.5,1327.8,1481.9,3454.0,3443.1,1556.2,1519.0,1538.5,3437.0,926.2,1410.3,3438.2,3437.0,743.9,1484.7,1022.8,594.7,1248.0,1838.2,3447.9,3444.3,701.1,982.5,1313.3,1452.5,1187.6,1137.5,11.0,-16.0,49.0,10232.0,11677.0,3473.0,-3914.0,-26.0,21.0,-58.0,3.0,-27.0,24.0,13045.0,9372.0,2027.0,2516.0,-5.0,1.0,-15.0,1.0
2022-05-06 12:23:05.134343-07:00,1938.0,605.2,1149.8,1530.1,1021.9,1188.5,1327.8,1481.9,3445.5,3450.4,1544.1,1521.8,1538.5,3437.0,926.2,1410.3,3438.2,3437.0,743.9,1484.7,1021.1,594.7,1240.8,1849.8,3447.9,3444.3,701.1,982.5,1316.0,1446.0,1187.6,1134.9,3.0,32.0,18.0,10206.0,11706.0,3482.0,-3887.0,93.0,119.0,61.0,-3.0,-21.0,22.0,13020.0,9401.0,2048.0,2516.0,118.0,47.0,-3.0,1.0
2022-05-06 12:23:05.164772-07:00,1938.0,605.2,1149.8,1530.1,1021.9,1189.4,1334.1,1477.3,3445.5,3450.4,1544.1,1521.8,1549.7,3437.0,924.5,1412.2,3435.8,3438.2,736.5,1493.0,1021.1,594.7,1240.8,1849.8,3444.3,3441.9,684.8,981.6,1316.0,1446.0,1187.6,1134.9,8.0,-19.0,-10.0,10193.0,11716.0,3511.0,-3867.0,-1.0,65.0,-57.0,-9.0,-17.0,-6.0,13007.0,9414.0,2066.0,2522.0,29.0,34.0,-17.0,1.0
2022-05-06 12:23:05.195158-07:00,1944.0,594.7,1152.4,1524.5,1021.9,1189.4,1334.1,1477.3,3440.7,3443.1,1552.5,1521.8,1549.7,3437.0,924.5,1412.2,3435.8,3438.2,736.5,1493.0,1024.5,599.6,1238.2,1836.2,3444.3,3441.9,684.8,981.6,1316.0,1449.7,1183.2,1137.5,-2.0,0.0,-2.0,10183.0,11724.0,3516.0,-3862.0,5.0,3.0,35.0,-17.0,-5.0,-4.0,13004.0,9417.0,2072.0,2521.0,-32.0,-17.0,13.0,1.0
2022-05-06 12:23:05.284299-07:00,1927.2,594.7,1152.4,1524.5,1018.5,1185.9,1332.3,1487.5,3438.2,3443.1,1552.5,1521.8,1545.9,3445.5,922.8,1404.0,3434.6,3434.6,740.6,1489.3,1024.5,599.6,1238.2,1832.3,3446.7,3455.2,705.2,984.2,1316.0,1449.7,1183.2,1134.0,7.0,17.0,5.0,10196.0,11711.0,3510.0,-3873.0,-44.0,-58.0,-46.0,-7.0,-8.0,0.0,13026.0,9391.0,2057.0,2519.0,-97.0,-32.0,-5.0,1.0
2022-05-06 12:23:05.405468-07:00,1927.2,598.7,1155.0,1532.0,1018.5,1185.9,1332.3,1485.6,3438.2,3447.9,1556.2,1522.7,1545.9,3445.5,922.8,1404.0,3449.1,3434.6,740.6,1489.3,1023.7,605.2,1243.5,1832.3,3441.9,3455.2,705.2,984.2,1316.9,1455.2,1184.1,1134.0,13.0,-23.0,36.0,10211.0,11690.0,3511.0,-3898.0,-27.0,-44.0,-4.0,-5.0,-23.0,13.0,13044.0,9368.0,2047.0,2516.0,-34.0,-11.0,0.0,1.0
2022-05-06 12:23:05.464994-07:00,1933.1,598.7,1155.0,1532.0,1022.8,1183.2,1327.8,1485.6,3439.5,3447.9,1556.2,1522.7,1548.7,3433.4,928.8,1404.0,3449.1,3444.3,739.7,1487.5,1023.7,605.2,1243.5,1835.2,3441.9,3444.3,701.9,975.6,1316.9,1455.2,1184.1,1135.7,2.0,11.0,18.0,10211.0,11693.0,3507.0,-3891.0,23.0,33.0,11.0,-1.0,-9.0,15.0,13043.0,9370.0,2050.0,2517.0,40.0,15.0,0.0,1.0
2022-05-06 12:23:05.615411-07:00,1933.1,597.9,1153.3,1524.5,1022.8,1183.2,1327.8,1483.8,3439.5,3445.5,1549.7,1514.3,1548.7,3433.4,928.8,1402.1,3444.3,3444.3,739.7,1487.5,1014.2,594.7,1242.6,1835.2,3439.5,3444.3,701.9,975.6,1316.0,1454.3,1182.3,1135.7,3.0,0.0,6.0,10211.0,11698.0,3504.0,-3881.0,9.0,20.0,30.0,-9.0,-7.0,0.0,13035.0,9379.0,2056.0,2517.0,40.0,9.0,0.0,1.0
2022-05-06 12:23:05.616415-07:00,1929.2,597.9,1153.3,1524.5,1010.8,1171.8,1336.8,1483.8,3439.5,3445.5,1549.7,1514.3,1550.6,3428.6,922.0,1402.1,3444.3,3433.4,739.7,1482.9,1014.2,594.7,1242.6,1834.3,3439.5,3443.1,701.1,961.1,1316.0,1454.3,1182.3,1140.1,6.0,-6.0,5.0,10207.0,11709.0,3495.0,-3864.0,6.0,1.0,48.0,-8.0,-12.0,0.0,13028.0,9388.0,2060.0,2516.0,0.0,-8.0,7.0,1.0
2022-05-06 12:23:05.617587-07:00,1929.2,599.6,1151.5,1537.6,1010.8,1171.8,1336.8,1487.5,3439.5,3438.2,1548.7,1510.6,1550.6,3428.6,922.0,1404.9,3439.5,3433.4,739.7,1482.9,1021.1,597.1,1242.6,1834.3,3447.9,3443.1,701.1,961.1,1316.9,1450.6,1191.2,1140.1,0.0,-11.0,13.0,10203.0,11722.0,3472.0,-3856.0,59.0,-8.0,62.0,-9.0,-18.0,15.0,13022.0,9396.0,2063.0,2513.0,55.0,-2.0,6.0,1.0
2022-05-06 12:23:05.618999-07:00,1937.1,602.0,1151.5,1537.6,1025.4,1185.9,1324.1,1487.5,3438.2,3449.1,1548.7,1510.6,1547.8,3440.7,921.1,1404.9,3439.5,3438.2,738.9,1489.3,1021.1,597.1,1242.6,1834.3,3447.9,3443.1,699.5,980.7,1316.9,1450.6,1187.6,1141.9,6.0,8.0,11.0,10183.0,11750.0,3448.0,-3846.0,67.0,31.0,29.0,-6.0,-11.0,4.0,13005.0,9419.0,2069.0,2509.0,67.0,11.0,0.0,1.0
2022-05-06 12:23:05.674849-07:00,1937.1,602.0,1147.1,1530.1,1025.4,1185.9,1326.8,1485.6,3438.2,3449.1,1554.3,1518.0,1547.8,3440.7,923.7,1399.4,3440.7,3438.2,738.9,1489.3,1023.7,602.8,1242.6,1834.3,3445.5,3454.0,699.5,980.7,1317.8,1450.6,1187.6,1141.9,10.0,-6.0,1.0,10167.0,11773.0,3429.0,-3836.0,68.0,-14.0,73.0,-5.0,-10.0,-2.0,12989.0,9440.0,2077.0,2507.0,56.0,3.0,8.0,1.0
2022-05-06 12:23:05.675928-07:00,1937.1,602.0,1147.1,1530.1,1025.4,1185.9,1326.8,1485.6,3438.2,3449.1,1554.3,1518.0,1547.8,3440.7,923.7,1399.4,3440.7,3438.2,738.9,1489.3,1023.7,602.8,1242.6,1834.3,3445.5,3454.0,699.5,980.7,1317.8,1450.6,1187.6,1141.9,10.0,-6.0,1.0,10167.0,11773.0,3429.0,-3836.0,68.0,-14.0,73.0,-5.0,-10.0,-2.0,12989.0,9440.0,2077.0,2507.0,56.0,3.0,8.0,1.0
2022-05-06 12:23:05.705338-07:00,1933.1,594.7,1158.6,1527.3,1021.9,1185.0,1322.3,1483.8,3441.9,3443.1,1545.0,1514.3,1542.2,3439.5,926.2,1402.1,3437.0,3432.2,739.7,1481.0,1019.4,596.3,1248.0,1836.2,3447.9,3439.5,693.8,979.9,1319.6,1451.6,1180.6,1133.1,5.0,-11.0,5.0,10159.0,11786.0,3410.0,-3833.0,6.0,-34.0,16.0,-9.0,-18.0,6.0,12987.0,9444.0,2080.0,2504.0,-16.0,-5.0,6.0,1.0
2022-05-06 12:23:05.794529-07:00,1933.1,599.6,1158.6,1527.3,1019.4,1185.0,1322.3,1483.8,3439.5,3440.7,1545.0,1514.3,1546.9,3437.0,926.2,1402.1,3437.0,3432.2,740.6,1480.1,1019.4,596.3,1240.8,1827.5,3447.9,3439.5,701.1,983.3,1319.6,1451.6,1188.5,1139.2,0.0,16.0,15.0,10164.0,11784.0,3402.0,-3835.0,-8.0,4.0,-18.0,0.0,-10.0,9.0,12993.0,9436.0,2077.0,2504.0,-16.0,5.0,-7.0,1.0
2022-05-06 12:23:05.795587-07:00,1933.1,599.6,1154.2,1530.1,1019.4,1183.2,1327.8,1500.4,3439.5,3440.7,1543.1,1518.0,1546.9,3439.5,923.7,1404.0,3437.0,3446.7,738.9,1480.1,1020.2,593.9,1240.8,1827.5,3449.1,3444.3,700.3,983.3,1309.7,1447.0,1188.5,1139.2,0.0,-11.0,11.0,10164.0,11781.0,3406.0,-3839.0,15.0,-2.0,7.0,-7.0,-14.0,9.0,12993.0,9435.0,2078.0,2504.0,13.0,4.0,3.0,1.0
2022-05-06 12:23:05.854941-07:00,1933.1,598.7,1156.8,1530.1,1028.8,1183.2,1327.8,1500.4,3449.1,3445.5,1545.9,1518.0,1544.1,3439.5,923.7,1404.0,3437.0,3446.7,738.9,1483.8,1020.2,602.0,1246.2,1829.4,3449.1,3444.3,700.3,979.9,1309.7,1451.6,1182.3,1140.1,4.0,7.0,10.0,10164.0,11784.0,3400.0,-3836.0,13.0,3.0,9.0,-4.0,-4.0,1.0,12994.0,9434.0,2078.0,2504.0,9.0,-4.0,5.0,1.0
2022-05-06 12:23:05.915337-07:00,1933.1,598.7,1156.8,1522.7,1028.8,1183.2,1323.2,1477.3,3449.1,3445.5,1545.9,1522.7,1544.1,3449.1,922.8,1401.2,3439.5,3427.4,738.9,1483.8,1023.7,602.0,1246.2,1829.4,3435.8,3446.7,701.9,979.9,1312.4,1451.6,1182.3,1140.1,2.0,-1.0,7.0,10162.0,11784.0,3399.0,-3842.0,21.0,-12.0,-8.0,-7.0,-8.0,-1.0,12995.0,9433.0,2079.0,2504.0,0.0,2.0,-7.0,1.0
2022-05-06 12:23:05.944652-07:00,1933.1,605.2,1161.2,1522.7,1027.1,1183.2,1323.2,1477.3,3443.1,3440.7,1550.6,1522.7,1547.8,3449.1,922.8,1401.2,3439.5,3427.4,738.9,1482.9,1023.7,594.7,1242.6,1834.3,3435.8,3446.7,701.9,980.7,1312.4,1454.3,1177.0,1138.4,0.0,6.0,12.0,10164.0,11782.0,3395.0,-3846.0,-6.0,-24.0,5.0,-6.0,-3.0,3.0,12997.0,9431.0,2078.0,2503.0,-19.0,-9.0,-1.0,1.0
2022-05-06 12:23:06.154670-07:00,1933.1,605.2,1161.2,1534.8,1027.1,1192.9,1326.8,1488.4,3443.1,3440.7,1550.6,1516.2,1547.8,3449.1,921.1,1400.3,3449.1,3433.4,745.5,1482.9,1020.2,594.7,1242.6,1834.3,3450.4,3443.1,697.0,980.7,1313.3,1454.3,1177.0,1138.4,8.0,-14.0,29.0,10163.0,11783.0,3394.0,-3845.0,36.0,51.0,13.0,-4.0,-23.0,12.0,12997.0,9430.0,2079.0,2503.0,47.0,21.0,-4.0,1.0
2022-05-06 12:23:06.158517-07:00,1925.2,599.6,1152.4,1534.8,1022.8,1192.9,1326.8,1488.4,3452.8,3439.5,1545.9,1516.2,1542.2,3449.1,921.1,1400.3,3449.1,3433.4,745.5,1480.1,1020.2,600.4,1230.2,1842.0,3450.4,3443.1,697.0,981.6,1313.3,1454.3,1179.7,1138.4,4.0,10.0,10.0,10137.0,11815.0,3392.0,-3819.0,81.0,87.0,46.0,-6.0,-7.0,3.0,12974.0,9458.0,2095.0,2505.0,107.0,30.0,3.0,1.0
2022-05-06 12:23:06.159471-07:00,1925.2,599.6,1152.4,1535.7,1028.8,1173.5,1317.8,1477.3,3452.8,3439.5,1545.9,1519.9,1546.9,3438.2,922.0,1398.5,3444.3,3443.1,738.9,1480.1,1013.3,600.4,1230.2,1842.0,3445.5,3447.9,698.7,973.1,1314.2,1454.3,1179.7,1138.4,-2.0,1.0,-8.0,10121.0,11832.0,3406.0,-3795.0,12.0,60.0,-11.0,-5.0,-12.0,0.0,12952.0,9483.0,2109.0,2508.0,37.0,21.0,8.0,1.0
2022-05-06 12:23:06.160228-07:00,1928.2,606.8,1156.8,1537.6,1028.8,1173.5,1317.8,1477.3,3440.7,3444.3,1544.1,1520.8,1546.9,3438.2,922.0,1398.5,3444.3,3443.1,738.9,1480.1,1016.8,597.1,1240.8,1834.3,3445.5,3447.9,698.7,973.1,1302.5,1449.7,1179.7,1137.5,2.0,1.0,-6.0,10117.0,11837.0,3403.0,-3793.0,-9.0,-34.0,13.0,-13.0,-3.0,-5.0,12946.0,9490.0,2117.0,2509.0,-25.0,-6.0,5.0,1.0
2022-05-06 12:23:06.244556-07:00,1928.2,606.8,1156.8,1537.6,1025.4,1170.0,1317.8,1481.0,3440.7,3444.3,1544.1,1520.8,1544.1,3445.5,923.7,1405.8,3444.3,3440.7,734.0,1479.2,1016.8,597.1,1240.8,1834.3,3437.0,3444.3,706.9,987.6,1302.5,1449.7,1179.7,1137.5,4.0,2.0,13.0,10127.0,11827.0,3401.0,-3799.0,-30.0,-24.0,-12.0,0.0,-13.0,7.0,12957.0,9477.0,2106.0,2510.0,-44.0,-20.0,6.0,1.0
2022-05-06 12:23:06.245784-07:00,1923.3,596.3,1156.8,1534.8,1025.4,1170.0,1317.8,1481.0,3444.3,3440.7,1521.8,1518.0,1544.1,3445.5,923.7,1405.8,3444.3,3440.7,734.0,1479.2,1014.2,599.6,1234.6,1836.2,3437.0,3444.3,706.9,987.6,1309.7,1448.8,1182.3,1138.4,3.0,6.0,13.0,10138.0,11818.0,3392.0,-3807.0,-19.0,-40.0,21.0,-5.0,-7.0,4.0,12966.0,9466.0,2101.0,2510.0,-25.0,-3.0,-5.0,1.0
2022-05-06 12:23:06.304919-07:00,1923.3,596.3,1156.8,1534.8,1021.9,1178.8,1317.8,1473.6,3444.3,3440.7,1521.8,1518.0,1544.1,3438.2,921.1,1407.6,3437.0,3439.5,737.3,1480.1,1014.2,599.6,1234.6,1836.2,3438.2,3443.1,706.0,979.9,1309.7,1448.8,1182.3,1138.4,-1.0,3.0,12.0,10158.0,11801.0,3384.0,-3812.0,-69.0,-14.0,-35.0,-7.0,-3.0,8.0,12976.0,9452.0,2099.0,2512.0,-53.0,-4.0,6.0,1.0
2022-05-06 12:23:06.364314-07:00,1936.1,600.4,1152.4,1524.5,1021.9,1178.8,1317.8,1476.4,3438.2,3438.2,1548.7,1506.9,1544.1,3438.2,921.1,1404.0,3441.9,3439.5,737.3,1480.1,1018.5,594.7,1234.6,1825.5,3437.0,3443.1,706.0,979.9,1317.8,1450.6,1182.3,1134.9,4.0,-7.0,3.0,10163.0,11795.0,3385.0,-3819.0,27.0,-29.0,33.0,-7.0,-9.0,-3.0,12982.0,9445.0,2097.0,2513.0,-7.0,-11.0,10.0,1.0
2022-05-06 12:23:06.394935-07:00,1936.1,600.4,1152.4,1524.5,1013.3,1181.5,1325.9,1476.4,3445.5,3438.2,1548.7,1506.9,1548.7,3440.7,926.2,1404.0,3441.9,3443.1,731.5,1468.1,1018.5,594.7,1234.6,1838.2,3437.0,3445.5,699.5,979.0,1317.8,1450.6,1182.3,1138.4,1.0,18.0,8.0,10165.0,11796.0,3372.0,-3820.0,-16.0,-8.0,-24.0,0.0,-1.0,4.0,12986.0,9440.0,2090.0,2514.0,-21.0,-6.0,3.0,1.0
2022-05-06 12:23:06.484426-07:00,1936.1,603.6,1148.9,1532.9,1013.3,1181.5,1325.9,1475.5,3445.5,3440.7,1550.6,1510.6,1548.7,3440.7,926.2,1404.9,3439.5,3443.1,731.5,1468.1,1018.5,597.9,1243.5,1838.2,3451.6,3445.5,699.5,979.0,1320.5,1455.2,1185.9,1138.4,4.0,-12.0,14.0,10170.0,11788.0,3377.0,-3825.0,14.0,5.0,9.0,-6.0,-15.0,2.0,12990.0,9434.0,2089.0,2515.0,-2.0,7.0,-1.0,1.0
2022-05-06 12:23:06.544527-07:00,1931.1,603.6,1148.9,1532.9,1015.9,1175.3,1316.0,1475.5,3440.7,3440.7,1550.6,1510.6,1539.4,3444.3,918.6,1404.9,3439.5,3443.1,733.2,1460.8,1018.5,597.9,1243.5,1825.5,3451.6,3447.9,696.2,973.1,1320.5,1455.2,1185.9,1141.9,4.0,10.0,5.0,10172.0,11787.0,3379.0,-3824.0,-21.0,-1.0,-26.0,-3.0,-13.0,1.0,12991.0,9433.0,2089.0,2516.0,-13.0,1.0,1.0,1.0
2022-05-06 12:23:06.545943-07:00,1931.1,602.8,1153.3,1532.9,1015.9,1175.3,1316.0,1481.9,3440.7,3438.2,1545.9,1522.7,1539.4,3444.3,918.6,1400.3,3438.2,3443.1,733.2,1460.8,1015.9,597.9,1235.5,1825.5,3444.3,3447.9,696.2,973.1,1315.1,1451.6,1182.3,1141.9,0.0,-14.0,9.0,10171.0,11784.0,3386.0,-3828.0,8.0,9.0,15.0,-7.0,-14.0,7.0,12992.0,9431.0,2088.0,2516.0,-2.0,0.0,2.0,1.0
2022-05-06 12:23:06.604915-07:00,1936.1,602.8,1153.3,1532.9,1017.6,1171.8,1307.0,1481.9,3444.3,3438.2,1545.9,1522.7,1545.9,3451.6,922.0,1400.3,3438.2,3433.4,737.3,1470.0,1015.9,597.9,1235.5,1838.2,3444.3,3444.3,692.9,979.0,1315.1,1451.6,1182.3,1140.1,-10.0,-2.0,7.0,10173.0,11785.0,3387.0,-3821.0,-3.0,-9.0,8.0,-5.0,-14.0,17.0,12992.0,9431.0,2088.0,2516.0,0.0,0.0,5.0,1.0
2022-05-06 12:23:06.664784-07:00,1936.1,605.2,1146.3,1525.5,1017.6,1171.8,1320.5,1469.0,3444.3,3441.9,1547.8,1515.3,1545.9,3451.6,927.1,1404.9,3444.3,3444.3,737.3,1470.0,1017.6,597.1,1239.1,1838.2,3447.9,3445.5,692.9,979.0,1307.0,1444.2,1182.3,1140.1,-7.0,-4.0,2.0,10170.0,11794.0,3370.0,-3817.0,100.0,-27.0,68.0,-5.0,-12.0,4.0,12987.0,9438.0,2090.0,2515.0,64.0,6.0,-3.0,1.0
2022-05-06 12:23:06.724555-07:00,1924.3,599.6,1146.3,1525.5,1024.5,1172.6,1320.5,1469.0,3428.6,3446.7,1547.8,1515.3,1545.9,3447.9,927.1,1404.9,3444.3,3444.3,735.6,1471.8,1017.6,597.1,1241.7,1832.3,3447.9,3445.5,699.5,974.8,1307.0,1444.2,1181.5,1140.1,4.0,8.0,11.0,10156.0,11811.0,3344.0,-3820.0,11.0,-2.0,-5.0,-12.0,-8.0,0.0,12975.0,9455.0,2095.0,2511.0,5.0,-1.0,3.0,1.0
2022-05-06 12:23:06.814556-07:00,1924.3,599.6,1151.5,1517.1,1024.5,1172.6,1321.4,1471.8,3428.6,3446.7,1544.1,1518.0,1545.9,3447.9,918.6,1405.8,3433.4,3435.8,735.6,1471.8,1012.5,594.7,1241.7,1832.3,3438.2,3447.9,699.5,974.8,1317.8,1452.5,1181.5,1140.1,-2.0,-18.0,3.0,10157.0,11810.0,3346.0,-3820.0,19.0,-19.0,24.0,-5.0,-17.0,7.0,12973.0,9457.0,2096.0,2510.0,7.0,4.0,3.0,1.0
2022-05-06 12:23:06.816018-07:00,1919.3,605.2,1151.5,1517.1,1021.9,1180.6,1321.4,1471.8,3428.6,3449.1,1544.1,1518.0,1544.1,3443.1,918.6,1405.8,3433.4,3435.8,735.6,1475.5,1012.5,594.7,1239.1,1828.4,3438.2,3447.9,701.1,982.5,1317.8,1452.5,1184.1,1132.2,5.0,11.0,11.0,10157.0,11814.0,3333.0,-3821.0,-21.0,3.0,-18.0,-3.0,-1.0,-2.0,12973.0,9458.0,2095.0,2511.0,-23.0,-6.0,7.0,1.0
2022-05-06 12:23:06.845109-07:00,1919.3,605.2,1145.4,1529.2,1021.9,1180.6,1310.6,1475.5,3428.6,3449.1,1540.3,1516.2,1544.1,3443.1,922.0,1404.0,3439.5,3441.9,735.6,1475.5,1015.9,595.5,1239.1,1828.4,3443.1,3450.4,701.1,982.5,1317.8,1447.0,1184.1,1132.2,-4.0,-19.0,4.0,10159.0,11807.0,3344.0,-3827.0,-5.0,-30.0,3.0,-7.0,-15.0,8.0,12977.0,9451.0,2095.0,2512.0,-7.0,10.0,-6.0,1.0
2022-05-06 12:23:06.904914-07:00,1926.2,597.1,1146.3,1529.2,1028.8,1189.4,1310.6,1475.5,3435.8,3449.1,1557.1,1516.2,1545.9,3438.2,922.0,1404.0,3439.5,3441.9,735.6,1476.4,1015.9,593.1,1233.7,1829.4,3443.1,3450.4,695.4,973.1,1317.8,1447.9,1179.7,1127.9,1.0,24.0,10.0,10162.0,11807.0,3336.0,-3826.0,-7.0,11.0,-17.0,0.0,0.0,0.0,12977.0,9451.0,2093.0,2514.0,-11.0,-9.0,4.0,1.0
2022-05-06 12:23:06.964776-07:00,1926.2,597.1,1146.3,1525.5,1028.8,1175.3,1311.5,1478.3,3435.8,3449.1,1557.1,1513.4,1545.9,3440.7,923.7,1396.7,3439.5,3439.5,748.0,1476.4,1014.2,593.1,1233.7,1829.4,3435.8,3445.5,701.1,973.1,1313.3,1447.9,1179.7,1127.9,-2.0,-31.0,9.0,10163.0,11800.0,3349.0,-3831.0,-17.0,-6.0,10.0,-8.0,-22.0,13.0,12981.0,9446.0,2094.0,2515.0,-13.0,11.0,-1.0,1.0
2022-05-06 12:23:07.114465-07:00,1923.3,599.6,1151.5,1525.5,1025.4,1175.3,1311.5,1478.3,3449.1,3444.3,1548.7,1513.4,1543.1,3440.7,923.7,1396.7,3439.5,3439.5,748.0,1472.7,1014.2,594.7,1223.0,1830.4,3435.8,3445.5,701.1,974.8,1313.3,1445.1,1170.9,1141.9,3.0,13.0,3.0,10168.0,11804.0,3332.0,-3823.0,7.0,-3.0,29.0,-5.0,-6.0,-1.0,12979.0,9448.0,2092.0,2519.0,6.0,-13.0,19.0,1.0
2022-05-06 12:23:07.116280-07:00,1923.3,599.6,1151.5,1524.5,1025.4,1178.8,1302.5,1473.6,3449.1,3444.3,1548.7,1508.8,1543.1,3438.2,921.1,1400.3,3447.9,3438.2,734.0,1472.7,1015.1,594.7,1223.0,1830.4,3446.7,3449.1,699.5,974.8,1313.3,1445.1,1170.9,1141.9,3.0,-21.0,5.0,10172.0,11801.0,3332.0,-3820.0,-12.0,-2.0,2.0,-6.0,-21.0,11.0,12980.0,9448.0,2088.0,2519.0,0.0,4.0,5.0,1.0
2022-05-06 12:23:07.117233-07:00,1940.0,605.2,1150.6,1524.5,1023.7,1178.8,1302.5,1473.6,3444.3,3444.3,1541.3,1508.8,1544.1,3438.2,921.1,1400.3,3447.9,3438.2,734.0,1470.9,1015.1,593.1,1236.4,1823.6,3446.7,3449.1,699.5,979.9,1313.3,1456.2,1182.3,1136.6,-3.0,23.0,15.0,10167.0,11812.0,3323.0,-3808.0,38.0,40.0,14.0,-1.0,0.0,4.0,12974.0,9455.0,2087.0,2521.0,43.0,9.0,4.0,1.0
2022-05-06 12:23:07.145056-07:00,1940.0,605.2,1150.6,1520.8,1023.7,1175.3,1323.2,1470.9,3444.3,3444.3,1541.3,1506.9,1544.1,3441.9,929.6,1404.0,3441.9,3437.0,738.9,1470.9,1012.5,593.1,1236.4,1823.6,3450.4,3440.7,694.6,979.9,1312.4,1456.2,1182.3,1136.6,-5.0,-3.0,1.0,10151.0,11824.0,3343.0,-3799.0,4.0,43.0,-31.0,-4.0,-4.0,5.0,12962.0,9469.0,2099.0,2520.0,30.0,25.0,-9.0,1.0
2022-05-06 12:23:07.204900-07:00,1925.2,605.2,1153.3,1527.3,1025.4,1175.3,1323.2,1470.9,3451.6,3446.7,1545.0,1515.3,1546.9,3441.9,929.6,1404.0,3441.9,3437.0,738.9,1474.6,1017.6,597.9,1239.1,1837.2,3450.4,3440.7,694.6,978.2,1321.4,1449.7,1179.7,1139.2,-2.0,-12.0,-9.0,10150.0,11828.0,3337.0,-3791.0,34.0,-13.0,63.0,-9.0,-8.0,-4.0,12955.0,9477.0,2105.0,2522.0,23.0,-8.0,8.0,1.0
2022-05-06 12:23:07.264376-07:00,1925.2,605.2,1153.3,1527.3,1019.4,1184.1,1306.1,1477.3,3451.6,3446.7,1545.0,1515.3,1545.9,3438.2,920.3,1406.7,3438.2,3446.7,737.3,1478.3,1017.6,597.9,1239.1,1837.2,3449.1,3443.1,701.9,979.0,1321.4,1449.7,1179.7,1139.2,0.0,11.0,12.0,10149.0,11834.0,3318.0,-3792.0,-14.0,-20.0,-16.0,0.0,1.0,4.0,12957.0,9477.0,2099.0,2518.0,-46.0,-22.0,-9.0,1.0
2022-05-06 12:23:07.354946-07:00,1919.3,593.9,1152.4,1532.0,1019.4,1184.1,1306.1,1477.3,3446.7,3454.0,1542.2,1508.8,1545.9,3438.2,920.3,1406.7,3438.2,3446.7,737.3,1478.3,1020.2,593.9,1232.8,1834.3,3449.1,3443.1,701.9,979.0,1312.4,1439.6,1170.9,1136.6,3.0,-30.0,24.0,10163.0,11824.0,3314.0,-3789.0,-24.0,12.0,83.0,-4.0,-24.0,13.0,12964.0,9468.0,2092.0,2518.0,17.0,-4.0,14.0,1.0
2022-05-06 12:23:07.386559-07:00,1919.3,593.9,1152.4,1532.0,1025.4,1174.4,1314.2,1466.3,3446.7,3454.0,1542.2,1508.8,1540.3,3444.3,922.0,1396.7,3439.5,3441.9,738.1,1469.0,1020.2,593.9,1232.8,1834.3,3439.5,3444.3,702.8,979.0,1312.4,1439.6,1170.9,1136.6,-19.0,-190.0,9.0,10194.0,11849.0,3246.0,-3689.0,-21.0,98.0,551.0,4.0,-40.0,29.0,12939.0,9504.0,2084.0,2523.0,266.0,-25.0,107.0,1.0
2022-05-06 12:23:07.387394-07:00,1927.2,613.3,1155.0,1522.7,1025.4,1174.4,1314.2,1466.3,3441.9,3435.8,1534.8,1513.4,1540.3,3444.3,922.0,1396.7,3439.5,3441.9,738.1,1469.0,1010.8,598.7,1235.5,1835.2,3439.5,3444.3,702.8,979.0,1316.9,1436.0,1180.6,1143.6,-20.0,-272.0,-20.0,10256.0,12038.0,2723.0,-3302.0,634.0,-194.0,2322.0,-17.0,-91.0,50.0,12800.0,9681.0,2067.0,2568.0,946.0,94.0,303.0,1.0
2022-05-06 12:23:07.444632-07:00,1927.2,613.3,1155.0,1522.7,1022.8,1161.2,1317.8,1494.9,3441.9,3435.8,1534.8,1513.4,1545.9,3437.0,933.0,1401.2,3440.7,3439.5,735.6,1471.8,1010.8,598.7,1235.5,1835.2,3445.5,3454.0,692.9,989.3,1316.9,1436.0,1180.6,1143.6,85.0,-118.0,-56.0,10211.0,12462.0,1501.0,-2576.0,1035.0,-338.0,3808.0,-20.0,27.0,0.0,12447.0,10105.0,2099.0,2642.0,1518.0,66.0,363.0,1.0
2022-05-06 12:23:07.535129-07:00,1920.3,602.8,1152.4,1540.3,1022.8,1161.2,1317.8,1515.3,3444.3,3441.9,1521.8,1499.5,1545.9,3437.0,933.0,1404.9,3439.5,3439.5,735.6,1471.8,1013.3,597.9,1260.4,1838.2,3446.7,3454.0,692.9,989.3,1311.5,1455.2,1197.4,1140.1,220.0,133.0,3.0,10248.0,12689.0,-18.0,-1554.0,233.0,-151.0,4073.0,-70.0,-6.0,-166.0,12075.0,10535.0,2084.0,2700.0,327.0,-210.0,536.0,1.0
2022-05-06 12:23:07.536649-07:00,1929.2,602.8,1152.4,1540.3,1018.5,1168.2,1316.0,1515.3,3449.1,3441.9,1521.8,1499.5,1549.7,3450.4,944.9,1404.9,3439.5,3444.3,744.7,1464.4,1013.3,597.9,1260.4,1834.3,3446.7,3452.8,698.7,1006.5,1311.5,1455.2,1197.4,1133.1,2.0,481.0,78.0,10292.0,12699.0,-939.0,-607.0,-71.0,545.0,2137.0,11.0,-20.0,37.0,11941.0,10692.0,1897.0,2816.0,320.0,-152.0,265.0,1.0
2022-05-06 12:23:07.685220-07:00,1929.2,608.4,1151.5,1531.0,1018.5,1168.2,1316.0,1514.3,3449.1,3445.5,1510.6,1499.5,1549.7,3450.4,944.9,1402.1,3444.3,3444.3,744.7,1464.4,1015.9,594.7,1325.0,1834.3,3446.7,3452.8,698.7,1006.5,1312.4,1456.2,1186.7,1133.1,30.0,149.0,4.0,10381.0,12627.0,-1052.0,-361.0,74.0,63.0,-191.0,48.0,-52.0,25.0,11877.0,10763.0,1834.0,2860.0,272.0,101.0,-57.0,1.0
2022-05-06 12:23:07.714781-07:00,1920.3,608.4,1151.5,1531.0,1022.8,1161.2,1333.2,1514.3,3447.9,3445.5,1510.6,1499.5,1529.2,3441.9,940.7,1402.1,3444.3,3445.5,747.2,1451.6,1015.9,594.7,1325.0,1833.3,3446.7,3446.7,698.7,1018.5,1312.4,1456.2,1186.7,1140.1,13.0,-91.0,6.0,10180.0,12798.0,-932.0,-395.0,838.0,107.0,-115.0,14.0,-31.0,12.0,11738.0,10899.0,1964.0,2830.0,766.0,192.0,-246.0,1.0
2022-05-06 12:23:07.716063-07:00,1920.3,597.1,1156.8,1532.9,1022.8,1161.2,1333.2,1562.7,3447.9,3438.2,1495.8,1505.1,1529.2,3441.9,940.7,1407.6,3438.2,3445.5,747.2,1451.6,1007.3,588.3,1311.5,1833.3,3449.1,3446.7,698.7,1018.5,1316.0,1447.9,1189.4,1140.1,-12.0,-2.0,-42.0,9936.0,12988.0,-976.0,-287.0,543.0,119.0,290.0,-36.0,11.0,-33.0,11533.0,11098.0,2117.0,2790.0,470.0,87.0,-40.0,1.0
2022-05-06 12:23:07.834880-07:00,1916.4,596.3,1156.8,1532.9,1027.1,1154.2,1338.6,1562.7,3441.9,3443.1,1495.8,1505.1,1536.6,3444.3,947.5,1407.6,3438.2,3435.8,741.4,1448.8,1007.3,588.3,1324.1,1824.6,3449.1,3433.4,692.1,996.2,1316.0,1447.9,1188.5,1134.0,-42.0,42.0,-51.0,9874.0,13032.0,-1022.0,-226.0,-64.0,-40.0,60.0,-25.0,7.0,-17.0,11471.0,11157.0,2140.0,2793.0,-90.0,-18.0,75.0,1.0
2022-05-06 12:23:07.836220-07:00,1916.4,596.3,1157.7,1531.0,1027.1,1154.2,1331.4,1558.1,3441.9,3443.1,1500.4,1500.4,1536.6,3444.3,942.4,1405.8,3441.9,3437.0,741.4,1448.8,1009.9,591.5,1324.1,1824.6,3443.1,3440.7,692.1,996.2,1314.2,1447.0,1188.5,1134.0,5.0,-5.0,-31.0,9937.0,12979.0,-1075.0,-272.0,-220.0,-189.0,41.0,-3.0,9.0,-18.0,11526.0,11107.0,2084.0,2810.0,-371.0,-117.0,97.0,1.0
2022-05-06 12:23:07.837177-07:00,1928.2,602.0,1157.7,1531.0,1021.9,1158.6,1331.4,1558.1,3446.7,3446.7,1500.4,1500.4,1552.5,3444.3,942.4,1405.8,3441.9,3437.0,742.2,1450.6,1009.9,591.5,1335.9,1833.3,3443.1,3440.7,693.8,1005.6,1314.2,1447.0,1192.9,1137.5,-20.0,2.0,25.0,10018.0,12911.0,-1131.0,-317.0,-181.0,-162.0,73.0,12.0,-21.0,45.0,11618.0,11023.0,2007.0,2816.0,-176.0,-58.0,31.0,1.0
2022-05-06 12:23:07.895344-07:00,1928.2,602.0,1157.7,1529.2,1021.9,1158.6,1331.4,1561.8,3446.7,3446.7,1495.8,1506.0,1552.5,3444.3,939.8,1396.7,3439.5,3444.3,742.2,1450.6,1015.1,593.1,1335.9,1833.3,3440.7,3443.1,693.8,1005.6,1318.7,1447.9,1192.9,1137.5,0.0,31.0,17.0,10053.0,12876.0,-1202.0,-373.0,-124.0,-160.0,7.0,0.0,-1.0,0.0,11653.0,10988.0,1986.0,2822.0,-117.0,16.0,12.0,1.0
2022-05-06 12:23:07.954599-07:00,1918.3,597.9,1157.7,1529.2,1017.6,1156.8,1331.4,1561.8,3441.9,3444.3,1495.8,1506.0,1545.9,3439.5,939.8,1396.7,3439.5,3444.3,747.2,1444.2,1015.1,593.1,1329.6,1827.5,3440.7,3443.1,699.5,1003.9,1318.7,1447.9,1185.0,1140.1,-10.0,-24.0,-6.0,10066.0,12862.0,-1231.0,-426.0,41.0,-140.0,11.0,-2.0,-14.0,2.0,11673.0,10965.0,1981.0,2832.0,-19.0,-5.0,0.0,1.0
2022-05-06 12:23:07.984737-07:00,1918.3,597.9,1158.6,1524.5,1017.6,1156.8,1317.8,1540.3,3441.9,3444.3,1513.4,1506.0,1545.9,3439.5,939.8,1412.2,3435.8,3439.5,747.2,1444.2,1013.3,589.9,1329.6,1827.5,3433.4,3451.6,699.5,1003.9,1309.7,1451.6,1185.0,1140.1,-10.0,11.0,-1.0,10062.0,12858.0,-1278.0,-457.0,-50.0,-100.0,34.0,-8.0,0.0,-4.0,11680.0,10957.0,1976.0,2837.0,-62.0,-4.0,23.0,1.0
2022-05-06 12:23:08.045094-07:00,1911.5,594.7,1168.2,1524.5,1024.5,1145.4,1317.8,1540.3,3439.5,3441.9,1493.0,1506.0,1545.0,3443.1,939.8,1412.2,3435.8,3439.5,738.9,1442.4,1013.3,596.3,1332.3,1838.2,3433.4,3451.6,692.1,995.3,1309.7,1452.5,1182.3,1135.7,-14.0,-8.0,1.0,10106.0,12822.0,-1291.0,-480.0,-128.0,-35.0,7.0,-4.0,-24.0,17.0,11708.0,10926.0,1959.0,2852.0,-79.0,-6.0,30.0,1.0
2022-05-06 12:23:08.104630-07:00,1911.5,594.7,1168.2,1523.6,1024.5,1142.7,1321.4,1538.5,3439.5,3441.9,1493.0,1499.5,1545.0,3449.1,934.7,1404.9,3438.2,3437.0,741.4,1442.4,1003.9,596.3,1332.3,1838.2,3443.1,3441.9,692.1,995.3,1322.3,1452.5,1182.3,1135.7,-12.0,-3.0,-3.0,10107.0,12818.0,-1324.0,-488.0,45.0,-70.0,68.0,-7.0,-10.0,3.0,11710.0,10924.0,1952.0,2857.0,20.0,-5.0,21.0,1.0
2022-05-06 12:23:08.134966-07:00,1912.4,609.2,1154.2,1523.6,1029.7,1142.7,1321.4,1538.5,3437.0,3440.7,1494.0,1499.5,1540.3,3449.1,934.7,1404.9,3438.2,3437.0,741.4,1441.5,1003.9,589.1,1328.7,1835.2,3443.1,3441.9,692.1,995.3,1322.3,1448.8,1180.6,1138.4,-7.0,19.0,4.0,10104.0,12818.0,-1342.0,-488.0,-28.0,10.0,5.0,0.0,-7.0,7.0,11713.0,10921.0,1942.0,2863.0,-33.0,-6.0,25.0,1.0
2022-05-06 12:23:08.194983-07:00,1912.4,609.2,1154.2,1522.7,1029.7,1152.4,1322.3,1533.8,3437.0,3440.7,1494.0,1494.9,1540.3,3439.5,935.6,1405.8,3445.5,3435.8,736.5,1441.5,1008.2,589.1,1328.7,1835.2,3446.7,3449.1,695.4,995.3,1322.3,1448.8,1180.6,1138.4,-16.0,-12.0,-12.0,10108.0,12815.0,-1339.0,-489.0,73.0,-39.0,1.0,-3.0,-15.0,5.0,11715.0,10918.0,1941.0,2868.0,25.0,-1.0,5.0,1.0
2022-05-06 12:23:08.255288-07:00,1901.6,604.4,1153.3,1522.7,1031.4,1152.4,1322.3,1533.8,3440.7,3440.7,1488.4,1494.9,1547.8,3439.5,935.6,1405.8,3445.5,3435.8,736.5,1446.0,1008.2,595.5,1319.6,1828.4,3446.7,3449.1,695.4,996.2,1322.3,1455.2,1177.9,1140.1,-10.0,13.0,0.0,10078.0,12837.0,-1353.0,-505.0,-2.0,-31.0,-7.0,1.0,-1.0,5.0,11713.0,10922.0,1937.0,2862.0,-11.0,-20.0,-1.0,1.0
2022-05-06 12:23:08.284607-07:00,1901.6,604.4,1153.3,1522.7,1018.5,1144.5,1319.6,1528.3,3440.7,3440.7,1488.4,1497.7,1549.7,3438.2,933.0,1401.2,3433.4,3439.5,739.7,1438.7,1009.9,595.5,1319.6,1828.4,3447.9,3444.3,697.0,993.6,1316.0,1455.2,1177.9,1140.1,-8.0,-10.0,-3.0,10092.0,12825.0,-1362.0,-511.0,1.0,-18.0,29.0,-6.0,-17.0,6.0,11722.0,10912.0,1935.0,2864.0,-31.0,-3.0,7.0,1.0
2022-05-06 12:23:08.374498-07:00,1906.6,599.6,1149.8,1523.6,1018.5,1144.5,1319.6,1528.3,3441.9,3445.5,1490.3,1496.7,1549.7,3438.2,933.0,1401.2,3433.4,3439.5,739.7,1438.7,1005.6,589.1,1324.1,1826.5,3447.9,3444.3,697.0,993.6,1309.7,1448.8,1188.5,1130.5,-12.0,12.0,0.0,10084.0,12830.0,-1370.0,-517.0,-22.0,-27.0,-6.0,-2.0,-10.0,6.0,11726.0,10910.0,1930.0,2861.0,-3.0,-4.0,5.0,1.0
2022-05-06 12:23:08.404713-07:00,1906.6,599.6,1149.8,1523.6,1013.3,1151.5,1313.3,1530.1,3441.9,3445.5,1490.3,1496.7,1543.1,3446.7,928.8,1404.9,3443.1,3437.0,740.6,1434.1,1005.6,589.1,1324.1,1826.5,3447.9,3446.7,692.9,992.7,1309.7,1448.8,1188.5,1130.5,-7.0,12.0,-2.0,10090.0,12824.0,-1374.0,-522.0,-15.0,4.0,3.0,0.0,-5.0,5.0,11729.0,10907.0,1930.0,2861.0,-20.0,-8.0,3.0,1.0
2022-05-06 12:23:08.435086-07:00,1917.4,593.9,1154.2,1524.5,1013.3,1151.5,1313.3,1530.1,3439.5,3447.9,1490.3,1500.4,1543.1,3446.7,928.8,1404.9,3443.1,3437.0,740.6,1434.1,1007.3,597.9,1324.1,1821.6,3447.9,3446.7,692.9,992.7,1313.3,1446.0,1181.5,1124.4,-10.0,-9.0,2.0,10094.0,12821.0,-1371.0,-525.0,35.0,-2.0,4.0,-4.0,-16.0,9.0,11736.0,10900.0,1928.0,2861.0,8.0,-1.0,6.0,1.0
2022-05-06 12:23:08.494914-07:00,1917.4,593.9,1154.2,1524.5,1023.7,1147.1,1317.8,1528.3,3439.5,3447.9,1490.3,1500.4,1548.7,3440.7,930.5,1398.5,3431.0,3434.6,738.1,1445.1,1007.3,597.9,1324.1,1821.6,3435.8,3440.7,682.3,992.7,1313.3,1446.0,1181.5,1124.4,-6.0,6.0,-6.0,10082.0,12830.0,-1376.0,-519.0,-6.0,19.0,37.0,-2.0,-5.0,1.0,11727.0,10909.0,1928.0,2862.0,23.0,8.0,13.0,1.0
2022-05-06 12:23:08.555300-07:00,1911.5,606.0,1146.3,1528.3,1023.7,1147.1,1317.8,1528.3,3444.3,3444.3,1481.9,1499.5,1548.7,3440.7,930.5,1398.5,3431.0,3434.6,738.1,1445.1,1006.5,588.3,1328.7,1829.4,3435.8,3440.7,682.3,992.7,1316.0,1440.5,1184.1,1138.4,-12.0,3.0,-11.0,10094.0,12821.0,-1384.0,-508.0,-55.0,-29.0,25.0,-5.0,-18.0,4.0,11729.0,10906.0,1926.0,2865.0,-25.0,3.0,-3.0,1.0
2022-05-06 12:23:08.615314-07:00,1910.5,606.0,1146.3,1528.3,1022.8,1151.5,1310.6,1520.8,3441.9,3444.3,1481.9,1499.5,1547.8,3443.1,927.9,1395.7,3440.7,3440.7,738.1,1436.0,1006.5,588.3,1328.7,1829.4,3445.5,3446.7,699.5,988.5,1316.0,1440.5,1184.1,1145.4,-5.0,4.0,13.0,10094.0,12818.0,-1398.0,-524.0,19.0,-30.0,-15.0,-5.0,-6.0,5.0,11733.0,10903.0,1923.0,2863.0,-5.0,-11.0,-3.0,1.0
2022-05-06 12:23:08.674643-07:00,1910.5,602.0,1155.0,1529.2,1022.8,1151.5,1310.6,1514.3,3441.9,3449.1,1484.7,1492.1,1547.8,3443.1,927.9,1398.5,3435.8,3440.7,738.1,1436.0,1003.0,591.5,1322.3,1829.4,3443.1,3446.7,699.5,988.5,1306.1,1447.0,1182.3,1145.4,-11.0,-4.0,-8.0,10101.0,12814.0,-1390.0,-520.0,-6.0,50.0,30.0,-4.0,-17.0,6.0,11737.0,10897.0,1926.0,2867.0,8.0,22.0,7.0,1.0
2022-05-06 12:23:08.704460-07:00,1906.6,602.0,1155.0,1529.2,1018.5,1143.6,1307.9,1514.3,3438.2,3449.1,1484.7,1492.1,1546.9,3449.1,928.8,1398.5,3435.8,3443.1,738.9,1430.5,1003.0,591.5,1322.3,1834.3,3443.1,3445.5,688.9,985.9,1306.1,1447.0,1182.3,1135.7,-14.0,12.0,-11.0,10091.0,12823.0,-1385.0,-509.0,27.0,-17.0,-37.0,-5.0,-8.0,1.0,11731.0,10903.0,1931.0,2869.0,19.0,12.0,-9.0,1.0
2022-05-06 12:23:08.735303-07:00,1906.6,600.4,1155.0,1531.0,1018.5,1143.6,1307.9,1516.2,3438.2,3440.7,1488.4,1488.4,1546.9,3449.1,928.8,1406.7,3441.9,3443.1,738.9,1430.5,1002.2,590.7,1322.3,1834.3,3446.7,3445.5,688.9,985.9,1315.1,1447.0,1186.7,1135.7,-5.0,-3.0,-3.0,10088.0,12825.0,-1381.0,-529.0,-40.0,-16.0,-1.0,-5.0,-4.0,-1.0,11734.0,10900.0,1932.0,2867.0,-27.0,-3.0,-4.0,1.0
2022-05-06 12:23:08.795299-07:00,1910.5,600.4,1155.0,1531.0,1026.3,1145.4,1315.1,1516.2,3446.7,3440.7,1488.4,1488.4,1539.4,3439.5,930.5,1406.7,3441.9,3439.5,737.3,1431.4,1002.2,590.7,1322.3,1834.3,3446.7,3439.5,699.5,979.9,1315.1,1447.0,1186.7,1135.7,-12.0,16.0,5.0,10107.0,12810.0,-1381.0,-532.0,-36.0,1.0,-41.0,2.0,-17.0,12.0,11748.0,10886.0,1925.0,2867.0,-39.0,-20.0,-1.0,1.0
2022-05-06 12:23:08.884829-07:00,1910.5,591.5,1149.8,1531.0,1026.3,1145.4,1317.8,1517.1,3446.7,3435.8,1487.5,1492.1,1539.4,3439.5,927.9,1407.6,3438.2,3441.9,737.3,1431.4,1003.9,592.3,1332.3,1834.3,3443.1,3444.3,699.5,979.9,1313.3,1449.7,1183.2,1135.7,-6.0,-9.0,4.0,10109.0,12810.0,-1359.0,-555.0,6.0,1.0,-55.0,-5.0,-8.0,6.0,11752.0,10881.0,1926.0,2867.0,9.0,21.0,-9.0,1.0
2022-05-06 12:23:08.886034-07:00,1912.4,596.3,1149.8,1531.0,1026.3,1148.9,1317.8,1517.1,3441.9,3437.0,1487.5,1492.1,1540.3,3435.8,927.9,1407.6,3438.2,3441.9,740.6,1429.5,1003.9,592.3,1329.6,1827.5,3443.1,3444.3,698.7,987.6,1313.3,1449.7,1184.1,1141.9,-12.0,-3.0,-8.0,10107.0,12813.0,-1350.0,-551.0,36.0,21.0,34.0,-3.0,-11.0,2.0,11747.0,10884.0,1932.0,2870.0,23.0,6.0,7.0,1.0
2022-05-06 12:23:08.944517-07:00,1912.4,596.3,1146.3,1530.1,1026.3,1148.9,1305.2,1522.7,3441.9,3437.0,1489.3,1500.4,1540.3,3435.8,934.7,1396.7,3428.6,3438.2,740.6,1429.5,1006.5,590.7,1329.6,1827.5,3444.3,3449.1,698.7,987.6,1312.4,1446.0,1184.1,1141.9,-7.0,9.0,-2.0,10094.0,12822.0,-1355.0,-549.0,-1.0,-29.0,-32.0,-4.0,-5.0,1.0,11743.0,10889.0,1933.0,2869.0,8.0,5.0,-4.0,1.0
2022-05-06 12:23:09.004863-07:00,1890.9,600.4,1146.3,1530.1,1021.9,1141.0,1305.2,1522.7,3437.0,3438.2,1489.3,1500.4,1546.9,3434.6,934.7,1396.7,3428.6,3438.2,737.3,1441.5,1006.5,590.7,1327.8,1818.7,3444.3,3449.1,697.0,987.6,1312.4,1446.0,1181.5,1129.6,-12.0,-7.0,0.0,10100.0,12817.0,-1352.0,-557.0,-8.0,0.0,26.0,-4.0,-13.0,5.0,11747.0,10885.0,1932.0,2870.0,-11.0,3.0,6.0,1.0
2022-05-06 12:23:09.035169-07:00,1890.9,600.4,1169.1,1526.4,1021.9,1141.0,1303.4,1501.4,3437.0,3438.2,1493.0,1494.9,1546.9,3434.6,932.2,1396.7,3441.9,3439.5,737.3,1441.5,1006.5,593.9,1327.8,1818.7,3444.3,3449.1,697.0,987.6,1316.9,1455.2,1181.5,1129.6,-6.0,17.0,-1.0,10096.0,12820.0,-1359.0,-552.0,18.0,-3.0,-1.0,2.0,-10.0,6.0,11744.0,10888.0,1933.0,2869.0,5.0,-4.0,0.0,1.0
2022-05-06 12:23:09.094591-07:00,1909.5,597.1,1169.1,1526.4,1021.1,1154.2,1303.4,1501.4,3444.3,3452.8,1493.0,1494.9,1539.4,3443.1,932.2,1396.7,3441.9,3439.5,735.6,1425.0,1006.5,593.9,1329.6,1826.5,3444.3,3449.1,700.3,989.3,1316.9,1455.2,1187.6,1140.1,-9.0,-5.0,0.0,10096.0,12821.0,-1346.0,-562.0,-1.0,10.0,-43.0,-3.0,-11.0,5.0,11744.0,10887.0,1938.0,2869.0,-8.0,12.0,-15.0,1.0
2022-05-06 12:23:09.154872-07:00,1909.5,597.1,1155.0,1521.8,1021.1,1153.3,1299.8,1511.5,3444.3,3452.8,1481.0,1494.0,1539.4,3444.3,933.0,1390.3,3434.6,3439.5,737.3,1425.0,1004.8,590.7,1329.6,1826.5,3439.5,3440.7,695.4,989.3,1309.7,1448.8,1187.6,1140.1,-13.0,0.0,-7.0,10092.0,12824.0,-1343.0,-562.0,8.0,-16.0,19.0,-6.0,-11.0,3.0,11741.0,10890.0,1945.0,2868.0,11.0,3.0,-8.0,1.0
2022-05-06 12:23:09.184844-07:00,1912.4,601.2,1155.9,1521.8,1021.1,1153.3,1299.8,1511.5,3449.1,3444.3,1487.5,1494.0,1544.1,3444.3,933.0,1390.3,3434.6,3439.5,737.3,1434.1,1004.8,587.5,1332.3,1830.4,3439.5,3440.7,695.4,988.5,1309.7,1452.5,1177.9,1141.9,-8.0,6.0,4.0,10092.0,12823.0,-1349.0,-565.0,-9.0,-6.0,-11.0,0.0,-12.0,7.0,11741.0,10890.0,1945.0,2868.0,-9.0,-8.0,1.0,1.0
2022-05-06 12:23:09.275413-07:00,1912.4,601.2,1155.9,1520.8,1021.1,1146.3,1298.1,1516.2,3449.1,3444.3,1487.5,1499.5,1544.1,3447.9,933.9,1396.7,3438.2,3433.4,734.8,1434.1,1002.2,587.5,1332.3,1830.4,3454.0,3440.7,692.1,988.5,1320.5,1452.5,1177.9,1141.9,-8.0,3.0,0.0,10089.0,12826.0,-1344.0,-569.0,29.0,-4.0,-5.0,-7.0,-10.0,5.0,11738.0,10892.0,1948.0,2865.0,23.0,2.0,-13.0,1.0
2022-05-06 12:23:09.304439-07:00,1902.6,602.8,1166.5,1520.8,1028.8,1146.3,1298.1,1516.2,3446.7,3432.2,1486.6,1499.5,1547.8,3447.9,933.9,1396.7,3438.2,3433.4,734.8,1429.5,1002.2,589.1,1321.4,1828.4,3454.0,3440.7,692.1,983.3,1320.5,1446.0,1180.6,1138.4,-9.0,1.0,-5.0,10086.0,12829.0,-1346.0,-570.0,-16.0,-11.0,5.0,-8.0,-10.0,3.0,11735.0,10896.0,1950.0,2863.0,-3.0,3.0,-1.0,1.0
2022-05-06 12:23:09.335005-07:00,1902.6,602.8,1166.5,1531.0,1028.8,1148.9,1293.6,1511.5,3446.7,3432.2,1486.6,1494.9,1547.8,3446.7,929.6,1403.0,3437.0,3434.6,737.3,1429.5,1000.5,589.1,1321.4,1828.4,3444.3,3443.1,697.0,983.3,1307.9,1446.0,1180.6,1138.4,-7.0,7.0,3.0,10083.0,12830.0,-1351.0,-577.0,22.0,-11.0,-9.0,0.0,-8.0,4.0,11736.0,10896.0,1949.0,2862.0,-5.0,-3.0,-1.0,1.0
2022-05-06 12:23:09.395328-07:00,1907.5,597.9,1161.2,1531.0,1015.1,1148.9,1293.6,1511.5,3438.2,3446.7,1485.6,1494.9,1541.3,3446.7,929.6,1403.0,3437.0,3434.6,737.3,1430.5,1000.5,593.1,1329.6,1828.4,3444.3,3443.1,697.0,984.2,1307.9,1452.5,1179.7,1140.1,-6.0,7.0,-2.0,10086.0,12827.0,-1353.0,-576.0,0.0,-1.0,10.0,-3.0,-15.0,3.0,11734.0,10896.0,1953.0,2865.0,15.0,14.0,-1.0,1.0
2022-05-06 12:23:09.485147-07:00,1907.5,597.9,1161.2,1513.4,1026.3,1148.9,1307.0,1510.6,3438.2,3446.7,1485.6,1488.4,1547.8,3440.7,928.8,1396.7,3447.9,3443.1,740.6,1426.8,1004.8,593.1,1329.6,1828.4,3445.5,3446.7,697.0,981.6,1307.0,1452.5,1179.7,1140.1,-8.0,0.0,2.0,10077.0,12835.0,-1345.0,-581.0,24.0,7.0,-37.0,-4.0,-5.0,2.0,11730.0,10901.0,1958.0,2863.0,19.0,15.0,-15.0,1.0
2022-05-06 12:23:09.486480-07:00,1904.6,593.9,1156.8,1528.3,1026.3,1148.9,1307.0,1510.6,3445.5,3447.9,1481.0,1492.1,1547.8,3440.7,928.8,1396.7,3447.9,3443.1,740.6,1426.8,1000.5,589.1,1327.8,1827.5,3445.5,3446.7,697.0,981.6,1317.8,1448.8,1183.2,1137.5,-11.0,6.0,-7.0,10077.0,12836.0,-1338.0,-577.0,9.0,20.0,13.0,-8.0,-14.0,2.0,11724.0,10905.0,1964.0,2866.0,16.0,9.0,4.0,1.0
2022-05-06 12:23:09.545336-07:00,1904.6,593.9,1156.8,1528.3,1017.6,1143.6,1299.0,1507.8,3445.5,3447.9,1481.0,1492.1,1554.3,3449.1,944.1,1412.2,3450.4,3443.1,734.8,1425.9,1000.5,589.1,1327.8,1827.5,3444.3,3451.6,688.9,987.6,1317.8,1448.8,1183.2,1137.5,-12.0,5.0,0.0,10085.0,12830.0,-1340.0,-575.0,-57.0,9.0,-4.0,-1.0,-7.0,0.0,11727.0,10902.0,1963.0,2866.0,-29.0,0.0,-1.0,1.0
2022-05-06 12:23:09.665546-07:00,1909.5,601.2,1159.4,1521.8,1017.6,1143.6,1299.0,1507.8,3441.9,3449.1,1484.7,1494.9,1554.3,3449.1,944.1,1412.2,3450.4,3443.1,734.8,1425.9,1001.3,592.3,1325.9,1830.4,3444.3,3451.6,688.9,987.6,1311.5,1444.2,1182.3,1130.5,-8.0,-1.0,1.0,10089.0,12826.0,-1338.0,-581.0,40.0,-13.0,-1.0,-5.0,-16.0,8.0,11728.0,10900.0,1960.0,2870.0,20.0,-8.0,15.0,1.0
2022-05-06 12:23:09.694565-07:00,1909.5,601.2,1159.4,1521.8,1021.9,1144.5,1297.2,1514.3,3441.9,3449.1,1484.7,1494.9,1543.1,3437.0,928.8,1409.4,3437.0,3446.7,735.6,1431.4,1001.3,592.3,1325.9,1830.4,3444.3,3445.5,695.4,982.5,1311.5,1444.2,1182.3,1130.5,-4.0,13.0,-3.0,10081.0,12833.0,-1339.0,-579.0,3.0,16.0,-4.0,-1.0,-6.0,0.0,11724.0,10904.0,1957.0,2873.0,5.0,1.0,8.0,1.0
2022-05-06 12:23:09.695914-07:00,1900.7,593.9,1154.2,1521.8,1021.9,1144.5,1297.2,1506.9,3449.1,3446.7,1504.1,1488.4,1543.1,3437.0,928.8,1397.6,3440.7,3446.7,735.6,1431.4,1004.8,590.7,1327.8,1832.3,3450.4,3445.5,695.4,982.5,1317.8,1447.9,1170.9,1128.7,-8.0,-7.0,0.0,10080.0,12834.0,-1329.0,-587.0,-1.0,-4.0,-36.0,-5.0,-11.0,1.0,11724.0,10903.0,1961.0,2873.0,5.0,10.0,-6.0,1.0
2022-05-06 12:23:09.755630-07:00,1916.4,593.9,1154.2,1521.8,1018.5,1144.5,1306.1,1506.9,3450.4,3446.7,1504.1,1488.4,1545.0,3440.7,929.6,1397.6,3440.7,3443.1,735.6,1427.7,1004.8,590.7,1327.8,1831.3,3450.4,3447.9,696.2,985.0,1317.8,1447.9,1170.9,1136.6,-6.0,1.0,-2.0,10074.0,12840.0,-1325.0,-590.0,4.0,1.0,8.0,-4.0,-9.0,1.0,11723.0,10905.0,1961.0,2873.0,5.0,5.0,7.0,1.0
2022-05-06 12:23:09.784809-07:00,1916.4,597.1,1159.4,1526.4,1018.5,1144.5,1306.1,1513.4,3450.4,3446.7,1487.5,1491.2,1545.0,3440.7,929.6,1406.7,3444.3,3443.1,735.6,1427.7,998.7,592.3,1333.2,1831.3,3451.6,3447.9,696.2,985.0,1307.0,1436.9,1184.1,1136.6,-12.0,4.0,-4.0,10088.0,12828.0,-1328.0,-587.0,-52.0,-2.0,9.0,-5.0,-10.0,5.0,11731.0,10896.0,1958.0,2875.0,-34.0,-5.0,3.0,1.0
2022-05-06 12:23:09.845360-07:00,1910.5,597.1,1159.4,1526.4,1018.5,1138.4,1302.5,1513.4,3444.3,3446.7,1487.5,1491.2,1545.9,3443.1,927.9,1406.7,3444.3,3440.7,731.5,1422.2,998.7,592.3,1333.2,1844.0,3451.6,3443.1,688.9,981.6,1307.0,1436.9,1184.1,1141.0,-4.0,-4.0,10.0,10096.0,12821.0,-1337.0,-586.0,17.0,-8.0,29.0,-5.0,-14.0,10.0,11734.0,10893.0,1953.0,2878.0,8.0,-8.0,20.0,1.0
2022-05-06 12:23:09.875138-07:00,1910.5,601.2,1154.2,1521.8,1018.5,1138.4,1302.5,1509.7,3444.3,3440.7,1483.8,1486.6,1545.9,3443.1,927.9,1412.2,3446.7,3440.7,731.5,1422.2,1002.2,589.9,1329.6,1844.0,3451.6,3443.1,688.9,981.6,1310.6,1448.8,1177.9,1141.0,-6.0,3.0,-3.0,10095.0,12822.0,-1336.0,-578.0,-16.0,24.0,-1.0,-2.0,-11.0,0.0,11733.0,10894.0,1951.0,2881.0,2.0,9.0,1.0,1.0
2022-05-06 12:23:09.935387-07:00,1900.7,601.2,1154.2,1521.8,1018.5,1149.8,1308.8,1509.7,3443.1,3440.7,1483.8,1486.6,1545.0,3451.6,929.6,1412.2,3446.7,3445.5,736.5,1428.6,1002.2,589.9,1329.6,1827.5,3451.6,3438.2,695.4,985.0,1310.6,1448.8,1177.9,1135.7,-8.0,9.0,-5.0,10094.0,12823.0,-1336.0,-576.0,2.0,-15.0,3.0,-6.0,-1.0,0.0,11732.0,10894.0,1952.0,2881.0,-1.0,-5.0,0.0,1.0
2022-05-06 12:23:09.994825-07:00,1900.7,595.5,1151.5,1526.4,1018.5,1149.8,1304.3,1507.8,3443.1,3444.3,1490.3,1494.0,1545.0,3451.6,925.4,1400.3,3443.1,3439.5,736.5,1428.6,1003.9,586.7,1324.1,1827.5,3450.4,3438.2,695.4,985.0,1312.4,1443.3,1179.7,1135.7,-9.0,-3.0,2.0,10095.0,12822.0,-1335.0,-580.0,-5.0,-11.0,-4.0,-5.0,-13.0,6.0,11736.0,10890.0,1951.0,2882.0,0.0,0.0,-1.0,1.0
2022-05-06 12:23:10.025053-07:00,1910.5,602.8,1151.5,1526.4,1019.4,1148.0,1304.3,1507.8,3445.5,3444.3,1490.3,1494.0,1548.7,3441.9,925.4,1400.3,3443.1,3439.5,734.8,1428.6,1003.9,586.7,1323.2,1824.6,3450.4,3438.2,695.4,987.6,1312.4,1443.3,1181.5,1137.5,-7.0,7.0,1.0,10090.0,12826.0,-1335.0,-579.0,19.0,4.0,5.0,-5.0,-8.0,4.0,11733.0,10893.0,1952.0,2882.0,10.0,2.0,1.0,1.0
2022-05-06 12:23:10.085095-07:00,1910.5,602.8,1156.8,1519.9,1019.4,1148.0,1307.0,1504.1,3445.5,3444.3,1480.1,1491.2,1548.7,3441.9,928.8,1401.2,3435.8,3441.9,734.8,1428.6,999.6,589.1,1323.2,1824.6,3440.7,3447.9,695.4,987.6,1310.6,1446.0,1181.5,1137.5,-13.0,-4.0,-5.0,10094.0,12824.0,-1330.0,-577.0,-20.0,14.0,-16.0,-5.0,-12.0,7.0,11732.0,10893.0,1955.0,2885.0,-1.0,13.0,-6.0,1.0
2022-05-06 12:23:10.144778-07:00,1899.7,592.3,1156.8,1519.9,1019.4,1143.6,1307.0,1504.1,3438.2,3443.1,1480.1,1491.2,1548.7,3440.7,928.8,1401.2,3435.8,3441.9,734.8,1426.8,999.6,589.1,1327.8,1831.3,3440.7,3447.9,686.4,979.9,1310.6,1446.0,1182.3,1136.6,-7.0,3.0,0.0,10089.0,12827.0,-1335.0,-576.0,20.0,-7.0,22.0,-5.0,-5.0,0.0,11730.0,10894.0,1956.0,2885.0,-6.0,-9.0,9.0,1.0
2022-05-06 12:23:10.205003-07:00,1899.7,592.3,1146.3,1530.1,1019.4,1143.6,1299.8,1512.5,3438.2,3443.1,1483.8,1498.6,1548.7,3440.7,933.0,1396.7,3439.5,3438.2,734.8,1426.8,1002.2,588.3,1327.8,1831.3,3438.2,3444.3,686.4,979.9,1312.4,1440.5,1182.3,1136.6,-5.0,3.0,0.0,10095.0,12822.0,-1336.0,-575.0,-23.0,5.0,-16.0,-2.0,-13.0,5.0,11736.0,10888.0,1954.0,2887.0,-16.0,-1.0,0.0,1.0
2022-05-06 12:23:10.235299-07:00,1912.4,599.6,1149.8,1530.1,1019.4,1146.3,1299.8,1512.5,3438.2,3440.7,1485.6,1498.6,1548.7,3449.1,933.0,1396.7,3439.5,3438.2,738.1,1426.8,1002.2,589.1,1328.7,1825.5,3438.2,3444.3,695.4,979.9,1312.4,1447.0,1183.2,1137.5,-9.0,-1.0,1.0,10091.0,12826.0,-1330.0,-580.0,17.0,-5.0,-14.0,-4.0,-12.0,6.0,11736.0,10888.0,1954.0,2887.0,1.0,5.0,-5.0,1.0
2022-05-06 12:23:10.295454-07:00,1912.4,599.6,1149.8,1526.4,1019.4,1145.4,1307.0,1504.1,3438.2,3440.7,1485.6,1499.5,1548.7,3447.9,928.8,1406.7,3445.5,3438.2,738.9,1426.8,997.0,589.1,1328.7,1825.5,3447.9,3446.7,688.9,979.9,1309.7,1447.0,1183.2,1137.5,-8.0,7.0,-4.0,10090.0,12827.0,-1330.0,-581.0,7.0,-10.0,-2.0,-6.0,-10.0,1.0,11736.0,10888.0,1954.0,2887.0,-2.0,-6.0,-4.0,1.0
2022-05-06 12:23:10.355460-07:00,1910.5,593.9,1165.6,1526.4,1029.7,1145.4,1307.0,1504.1,3449.1,3450.4,1489.3,1499.5,1545.0,3447.9,928.8,1406.7,3445.5,3438.2,738.9,1422.2,997.0,594.7,1325.0,1831.3,3447.9,3446.7,688.9,980.7,1309.7,1442.4,1182.3,1132.2,-8.0,-3.0,3.0,10088.0,12828.0,-1332.0,-587.0,-7.0,-2.0,5.0,-8.0,-10.0,2.0,11736.0,10888.0,1955.0,2886.0,-7.0,-1.0,-2.0,1.0
2022-05-06 12:23:10.414832-07:00,1910.5,593.9,1165.6,1521.8,1029.7,1145.4,1290.9,1506.0,3449.1,3450.4,1489.3,1490.3,1545.0,3435.8,927.1,1400.3,3446.7,3446.7,738.9,1422.2,1001.3,594.7,1325.0,1831.3,3443.1,3445.5,697.9,980.7,1305.2,1442.4,1182.3,1132.2,-7.0,17.0,-5.0,10090.0,12826.0,-1336.0,-584.0,-19.0,-6.0,-9.0,-5.0,-4.0,0.0,11736.0,10888.0,1955.0,2886.0,-9.0,2.0,-1.0,1.0
2022-05-06 12:23:10.444741-07:00,1908.5,607.6,1144.5,1521.8,1022.8,1145.4,1290.9,1506.0,3438.2,3433.4,1490.3,1490.3,1541.3,3435.8,927.1,1400.3,3446.7,3446.7,738.9,1426.8,1001.3,592.3,1322.3,1828.4,3443.1,3445.5,697.9,987.6,1305.2,1446.0,1178.8,1134.0,-7.0,-8.0,-2.0,10102.0,12816.0,-1332.0,-600.0,-49.0,-18.0,-13.0,-8.0,-13.0,3.0,11744.0,10879.0,1954.0,2887.0,-36.0,-5.0,-1.0,1.0
2022-05-06 12:23:10.475057-07:00,1908.5,607.6,1144.5,1519.9,1022.8,1142.7,1299.0,1504.1,3438.2,3433.4,1490.3,1488.4,1541.3,3454.0,933.0,1404.9,3451.6,3433.4,734.8,1426.8,1000.5,592.3,1322.3,1828.4,3451.6,3444.3,696.2,987.6,1310.6,1446.0,1178.8,1134.0,-7.0,-4.0,-9.0,10141.0,12785.0,-1336.0,-599.0,-157.0,8.0,47.0,-8.0,-6.0,-2.0,11768.0,10853.0,1943.0,2894.0,-109.0,-14.0,15.0,1.0
2022-05-06 12:23:10.535749-07:00,1903.6,594.7,1155.9,1524.5,1016.8,1142.7,1299.0,1504.1,3446.7,3437.0,1485.6,1492.1,1545.0,3454.0,933.0,1404.9,3451.6,3433.4,734.8,1426.8,1003.0,588.3,1327.8,1835.2,3451.6,3444.3,696.2,980.7,1311.5,1448.8,1177.0,1136.6,-17.0,-39.0,13.0,10129.0,12791.0,-1388.0,-562.0,219.0,-40.0,202.0,-3.0,-41.0,28.0,11751.0,10876.0,1943.0,2877.0,219.0,-30.0,-24.0,1.0
2022-05-06 12:23:10.624842-07:00,1903.6,594.7,1155.9,1524.5,1020.2,1148.9,1299.8,1506.9,3446.7,3437.0,1485.6,1492.1,1558.1,3449.1,925.4,1403.0,3439.5,3441.9,733.2,1424.1,1003.0,588.3,1327.8,1835.2,3449.1,3444.3,694.6,982.5,1311.5,1448.8,1177.0,1136.6,0.0,87.0,10.0,10092.0,12819.0,-1401.0,-538.0,-64.0,82.0,-96.0,5.0,17.0,-6.0,11725.0,10906.0,1946.0,2871.0,-24.0,30.0,12.0,1.0
2022-05-06 12:23:10.626649-07:00,1902.6,605.2,1154.2,1520.8,1020.2,1148.9,1299.8,1506.9,3443.1,3438.2,1481.0,1498.6,1558.1,3449.1,925.4,1403.0,3439.5,3441.9,733.2,1424.1,999.6,588.3,1330.5,1834.3,3449.1,3444.3,694.6,982.5,1312.4,1441.5,1177.9,1137.5,-4.0,12.0,-39.0,10105.0,12815.0,-1323.0,-588.0,17.0,-61.0,-275.0,-10.0,-6.0,-12.0,11742.0,10883.0,1955.0,2882.0,-82.0,11.0,-13.0,1.0
2022-05-06 12:23:10.685024-07:00,1902.6,605.2,1154.2,1520.8,1029.7,1141.0,1304.3,1500.4,3443.1,3438.2,1481.0,1498.6,1543.1,3434.6,927.9,1403.0,3441.9,3438.2,734.0,1419.5,999.6,588.3,1330.5,1834.3,3438.2,3444.3,702.8,987.6,1312.4,1441.5,1177.9,1137.5,3.0,344.0,-71.0,10075.0,12845.0,-926.0,-1036.0,-114.0,-412.0,-2530.0,4.0,16.0,-34.0,11894.0,10722.0,1912.0,2889.0,-905.0,-37.0,-98.0,1.0
2022-05-06 12:23:10.775518-07:00,1901.6,594.7,1152.4,1524.5,1029.7,1141.0,1304.3,1500.4,3438.2,3443.1,1493.0,1491.2,1543.1,3434.6,927.9,1403.0,3441.9,3438.2,734.0,1419.5,1004.8,595.5,1334.1,1829.4,3438.2,3444.3,702.8,987.6,1309.7,1440.5,1177.9,1137.5,295.0,591.0,-77.0,10173.0,12675.0,15.0,-2068.0,-1987.0,-550.0,-5625.0,11.0,148.0,-120.0,12358.0,10207.0,1889.0,2825.0,-2400.0,-90.0,-568.0,1.0
2022-05-06 12:23:10.804929-07:00,1901.6,594.7,1152.4,1524.5,1019.4,1148.0,1299.8,1498.6,3438.2,3443.1,1493.0,1491.2,1545.9,3433.4,938.1,1401.2,3438.2,3435.8,737.3,1454.3,1004.8,595.5,1334.1,1829.4,3446.7,3441.9,692.1,983.3,1309.7,1440.5,1177.9,1137.5,238.0,-432.0,-87.0,10565.0,11791.0,2230.0,-3579.0,-2774.0,909.0,-4937.0,97.0,-3.0,22.0,13133.0,9250.0,1808.0,2670.0,-2793.0,-177.0,-716.0,1.0
2022-05-06 12:23:10.834906-07:00,1914.4,594.7,1148.0,1523.6,1019.4,1148.0,1299.8,1502.3,3437.0,3439.5,1519.9,1507.8,1545.9,3433.4,938.1,1408.5,3441.9,3435.8,737.3,1454.3,1018.5,593.1,1295.4,1828.4,3444.3,3441.9,692.1,983.3,1307.0,1440.5,1172.6,1137.5,-24.0,-518.0,-42.0,10709.0,11106.0,3603.0,-4174.0,-469.0,171.0,-1422.0,-39.0,-185.0,45.0,13576.0,8628.0,1784.0,2550.0,-964.0,-73.0,-333.0,1.0
2022-05-06 12:23:10.928709-07:00,1913.4,594.7,1148.0,1523.6,1017.6,1186.7,1310.6,1502.3,3447.9,3439.5,1519.9,1507.8,1539.4,3444.3,925.4,1408.5,3441.9,3447.9,741.4,1515.3,1018.5,593.1,1295.4,1821.6,3444.3,3440.7,693.8,997.9,1307.0,1440.5,1172.6,1132.2,-60.0,-112.0,-35.0,10735.0,10884.0,3888.0,-4429.0,-333.0,-388.0,-430.0,-30.0,4.0,4.0,13744.0,8375.0,1747.0,2520.0,-584.0,-86.0,-55.0,1.0
2022-05-06 12:23:10.929677-07:00,1913.4,595.5,1155.0,1539.4,1017.6,1186.7,1310.6,1499.5,3447.9,3438.2,1524.5,1497.7,1539.4,3444.3,925.4,1403.0,3437.0,3447.9,741.4,1515.3,1022.8,602.8,1277.4,1821.6,3440.7,3440.7,693.8,997.9,1314.2,1440.5,1170.0,1132.2,23.0,-17.0,-14.0,10831.0,10742.0,3826.0,-4592.0,-65.0,-491.0,67.0,-17.0,11.0,-42.0,13857.0,8203.0,1653.0,2531.0,-407.0,-184.0,97.0,1.0
2022-05-06 12:23:11.044536-07:00,1908.5,595.5,1155.0,1539.4,1018.5,1174.4,1310.6,1499.5,3441.9,3438.2,1524.5,1497.7,1544.1,3444.3,928.8,1403.0,3437.0,3433.4,743.0,1506.9,1022.8,602.8,1277.4,1821.6,3440.7,3440.7,699.5,976.5,1314.2,1440.5,1170.0,1130.5,10.0,-6.0,58.0,10850.0,10721.0,3737.0,-4670.0,156.0,-40.0,24.0,16.0,-13.0,6.0,13907.0,8141.0,1570.0,2507.0,-14.0,-136.0,-52.0,1.0
2022-05-06 12:23:11.045680-07:00,1908.5,595.5,1157.7,1532.0,1018.5,1174.4,1310.6,1490.3,3441.9,3438.2,1532.0,1503.2,1544.1,3444.3,928.8,1406.7,3444.3,3433.4,743.0,1506.9,1021.9,598.7,1263.1,1821.6,3447.9,3440.7,699.5,976.5,1318.7,1445.1,1175.3,1130.5,31.0,-7.0,63.0,10856.0,10729.0,3665.0,-4695.0,57.0,-148.0,134.0,6.0,-27.0,0.0,13922.0,8125.0,1541.0,2495.0,-58.0,-28.0,53.0,1.0
2022-05-06 12:23:11.075147-07:00,1916.4,602.0,1157.7,1532.0,1022.8,1172.6,1316.9,1490.3,3446.7,3449.1,1532.0,1503.2,1546.9,3449.1,924.5,1406.7,3444.3,3438.2,738.1,1500.4,1021.9,598.7,1266.7,1827.5,3447.9,3444.3,697.0,978.2,1318.7,1445.1,1174.4,1140.1,8.0,17.0,55.0,10830.0,10775.0,3641.0,-4667.0,132.0,231.0,27.0,21.0,-4.0,5.0,13896.0,8167.0,1550.0,2499.0,209.0,60.0,-8.0,1.0
2022-05-06 12:23:11.166334-07:00,1916.4,602.0,1147.1,1520.8,1022.8,1172.6,1310.6,1488.4,3446.7,3449.1,1520.8,1499.5,1546.9,3449.1,922.0,1409.4,3439.5,3444.3,738.1,1500.4,1015.9,594.7,1266.7,1827.5,3452.8,3444.3,697.0,978.2,1307.9,1440.5,1174.4,1140.1,4.0,-20.0,-26.0,10804.0,10811.0,3678.0,-4616.0,24.0,68.0,56.0,-2.0,8.0,-26.0,13860.0,8215.0,1585.0,2516.0,87.0,68.0,30.0,1.0
2022-05-06 12:23:11.194772-07:00,1915.4,594.7,1147.1,1520.8,1014.2,1178.8,1310.6,1488.4,3433.4,3441.9,1520.8,1499.5,1543.1,3440.7,922.0,1409.4,3439.5,3444.3,742.2,1492.1,1015.9,594.7,1258.7,1830.4,3452.8,3444.3,691.3,976.5,1307.9,1440.5,1163.8,1135.7,-1.0,-5.0,-12.0,10795.0,10837.0,3668.0,-4584.0,61.0,11.0,92.0,-8.0,8.0,-27.0,13836.0,8250.0,1605.0,2523.0,79.0,22.0,7.0,1.0
2022-05-06 12:23:11.225131-07:00,1915.4,594.7,1157.7,1522.7,1014.2,1178.8,1302.5,1488.4,3433.4,3441.9,1516.2,1507.8,1543.1,3440.7,924.5,1400.3,3439.5,3440.7,742.2,1492.1,1018.5,596.3,1258.7,1830.4,3432.2,3449.1,691.3,976.5,1316.0,1435.0,1163.8,1135.7,-17.0,-25.0,-23.0,10813.0,10835.0,3632.0,-4574.0,-87.0,-214.0,101.0,-8.0,2.0,-3.0,13837.0,8247.0,1599.0,2529.0,-109.0,-23.0,41.0,1.0
2022-05-06 12:23:11.285001-07:00,1916.4,599.6,1157.7,1522.7,1021.1,1170.9,1302.5,1488.4,3437.0,3444.3,1516.2,1507.8,1554.3,3437.0,924.5,1400.3,3439.5,3440.7,736.5,1493.0,1018.5,596.3,1253.3,1823.6,3432.2,3449.1,698.7,976.5,1316.0,1435.0,1169.1,1139.2,0.0,26.0,1.0,10857.0,10807.0,3535.0,-4613.0,-11.0,-257.0,61.0,-10.0,24.0,-29.0,13859.0,8216.0,1567.0,2530.0,-159.0,-89.0,28.0,1.0
2022-05-06 12:23:11.344895-07:00,1916.4,599.6,1157.7,1527.3,1021.1,1170.9,1298.1,1486.6,3437.0,3444.3,1537.6,1504.1,1554.3,3437.0,922.0,1398.5,3438.2,3441.9,736.5,1493.0,1012.5,587.5,1253.3,1823.6,3441.9,3446.7,698.7,976.5,1314.2,1442.4,1169.1,1139.2,16.0,-6.0,55.0,10875.0,10792.0,3468.0,-4655.0,67.0,-51.0,44.0,11.0,-6.0,-3.0,13881.0,8186.0,1537.0,2525.0,-37.0,-27.0,-6.0,1.0
2022-05-06 12:23:11.405051-07:00,1910.5,602.0,1155.9,1527.3,1019.4,1183.2,1298.1,1486.6,3438.2,3449.1,1524.5,1504.1,1545.0,3440.7,922.0,1398.5,3438.2,3441.9,738.1,1496.7,1012.5,593.1,1264.0,1827.5,3441.9,3446.7,692.9,977.3,1314.2,1442.4,1167.4,1134.9,11.0,19.0,43.0,10862.0,10820.0,3436.0,-4644.0,101.0,43.0,71.0,15.0,-10.0,0.0,13868.0,8206.0,1542.0,2533.0,100.0,38.0,16.0,1.0
