Time,P0,P1,P2,P3,P4,P5,P6,P7,P8,P9,P10,P11,P12,P13,P14,P15,P16,P17,P18,P19,P20,P21,P22,P23,P24,P25,P26,P27,P28,P29,P30,P31,ECG,AX0,AY0,AZ0,QW0,QX0,QY0,QZ0,GX0,GY0,GZ0,AX1,AY1,AZ1,QW1,QX1,QY1,QZ1,GX1,GY1,GZ1
2022-05-06 15:07:42.169713-07:00,1935.1,575.4,1148.9,1398.5,1113.0,1204.4,1442.4,1823.6,3443.1,3443.1,1521.8,1437.8,1458.9,3437.0,997.0,1455.2,3444.3,3439.5,635.1,1178.8,839.4,517.9,1299.8,1881.1,3440.7,3435.8,742.2,997.0,1401.2,1471.8,1200.0,1171.8,9.0,-8.0,-10.0,4083.0,5010.0,12892.0,7776.0,4.0,0.0,2.0,16.0,1.0,0.0,10703.0,10655.0,5460.0,3247.0,6.0,4.0,-10.0,1.0
2022-05-06 15:07:42.171918-07:00,1935.1,575.4,1148.9,1398.5,1122.6,1203.5,1441.5,1834.3,3443.1,3443.1,1521.8,1437.8,1458.9,3437.0,996.2,1459.8,3443.1,3424.9,635.9,1173.5,839.4,517.9,1299.8,1881.1,3428.6,3440.7,736.5,996.2,1401.2,1471.8,1200.0,1171.8,13.0,6.0,-3.0,4081.0,5010.0,12895.0,7772.0,9.0,14.0,-11.0,13.0,8.0,-4.0,10699.0,10659.0,5462.0,3244.0,9.0,6.0,-10.0,1.0
2022-05-06 15:07:42.229331-07:00,1942.0,579.4,1150.6,1408.5,1122.6,1203.5,1441.5,1834.3,3443.1,3432.2,1526.4,1440.5,1458.9,3437.0,996.2,1459.8,3443.1,3424.9,635.9,1173.5,837.7,524.2,1296.3,1879.1,3428.6,3440.7,736.5,996.2,1404.9,1470.9,1192.9,1162.1,1.0,-8.0,0.0,4084.0,5002.0,12896.0,7773.0,-3.0,8.0,-13.0,5.0,-1.0,0.0,10701.0,10656.0,5463.0,3243.0,3.0,3.0,-13.0,1.0
2022-05-06 15:07:42.259359-07:00,1942.0,579.4,1150.6,1408.5,1111.2,1206.2,1441.5,1829.4,3443.1,3432.2,1526.4,1440.5,1460.8,3437.0,986.7,1462.6,3449.1,3428.6,639.2,1176.2,837.7,524.2,1296.3,1879.1,3444.3,3439.5,739.7,995.3,1404.9,1470.9,1192.9,1162.1,11.0,2.0,0.0,4082.0,4998.0,12898.0,7774.0,-4.0,27.0,-18.0,17.0,3.0,-4.0,10701.0,10656.0,5464.0,3242.0,-7.0,2.0,-8.0,1.0
2022-05-06 15:07:42.349807-07:00,1940.0,579.4,1148.9,1401.2,1111.2,1206.2,1441.5,1825.5,3449.1,3441.9,1518.0,1434.1,1460.8,3437.0,986.7,1460.8,3435.8,3428.6,639.2,1176.2,831.1,522.6,1292.7,1874.2,3443.1,3439.5,739.7,995.3,1394.8,1462.6,1192.9,1162.1,8.0,-4.0,-3.0,4078.0,4985.0,12902.0,7778.0,-6.0,28.0,-13.0,11.0,-1.0,1.0,10703.0,10655.0,5465.0,3242.0,0.0,1.0,-7.0,1.0
2022-05-06 15:07:42.379971-07:00,1932.1,579.4,1148.9,1401.2,1104.3,1205.3,1451.6,1825.5,3440.7,3441.9,1518.0,1434.1,1458.0,3437.0,996.2,1460.8,3435.8,3432.2,640.8,1170.9,831.1,522.6,1292.7,1874.2,3443.1,3440.7,744.7,997.9,1394.8,1462.6,1192.9,1163.0,7.0,-7.0,0.0,4076.0,4982.0,12902.0,7781.0,2.0,1.0,1.0,12.0,-3.0,0.0,10703.0,10655.0,5465.0,3242.0,8.0,4.0,-8.0,1.0
2022-05-06 15:07:42.409466-07:00,1932.1,572.2,1147.1,1402.1,1104.3,1205.3,1451.6,1824.6,3440.7,3443.1,1519.9,1434.1,1458.0,3437.0,996.2,1447.9,3432.2,3432.2,640.8,1170.9,836.9,521.8,1294.5,1874.2,3439.5,3440.7,744.7,997.9,1404.0,1462.6,1194.7,1163.0,10.0,-2.0,-6.0,4075.0,4984.0,12902.0,7781.0,5.0,-1.0,2.0,9.0,-1.0,-4.0,10700.0,10657.0,5465.0,3240.0,5.0,1.0,0.0,1.0
2022-05-06 15:07:42.469743-07:00,1936.1,572.2,1147.1,1402.1,1119.1,1200.9,1439.6,1824.6,3443.1,3443.1,1519.9,1434.1,1458.9,3433.4,997.0,1447.9,3432.2,3439.5,644.0,1170.0,836.9,521.8,1294.5,1875.2,3439.5,3438.2,743.9,994.5,1404.0,1462.6,1194.7,1161.2,7.0,-2.0,-1.0,4073.0,4979.0,12903.0,7783.0,10.0,12.0,-7.0,14.0,4.0,6.0,10701.0,10656.0,5465.0,3241.0,10.0,11.0,-12.0,1.0
2022-05-06 15:07:42.499845-07:00,1936.1,574.6,1154.2,1395.7,1119.1,1200.9,1439.6,1829.4,3443.1,3445.5,1528.3,1435.0,1458.9,3433.4,997.0,1451.6,3434.6,3439.5,644.0,1170.0,834.4,525.0,1290.0,1875.2,3437.0,3438.2,743.9,994.5,1396.7,1472.7,1201.8,1161.2,7.0,-2.0,-6.0,4073.0,4977.0,12904.0,7782.0,-4.0,11.0,-13.0,13.0,7.0,-1.0,10700.0,10657.0,5469.0,3238.0,2.0,4.0,-15.0,1.0
2022-05-06 15:07:42.559431-07:00,1934.1,573.8,1154.2,1395.7,1124.4,1206.2,1442.4,1829.4,3441.9,3444.3,1528.3,1435.0,1463.5,3433.4,993.6,1451.6,3434.6,3431.0,637.6,1179.7,834.4,525.0,1295.4,1878.1,3437.0,3444.3,736.5,995.3,1396.7,1472.7,1192.0,1163.0,1.0,-10.0,-5.0,4071.0,4971.0,12907.0,7783.0,6.0,0.0,-3.0,11.0,-5.0,-2.0,10700.0,10656.0,5470.0,3237.0,-4.0,5.0,-5.0,1.0
2022-05-06 15:07:42.619607-07:00,1934.1,573.8,1138.4,1407.6,1124.4,1206.2,1441.5,1821.6,3441.9,3444.3,1515.3,1438.7,1463.5,3433.4,997.0,1461.7,3433.4,3439.5,637.6,1179.7,838.6,517.9,1295.4,1878.1,3441.9,3440.7,736.5,995.3,1404.9,1459.8,1192.0,1163.0,10.0,-4.0,-10.0,4071.0,4973.0,12908.0,7780.0,-17.0,1.0,1.0,11.0,-1.0,-6.0,10699.0,10657.0,5470.0,3237.0,-7.0,-3.0,-6.0,1.0
2022-05-06 15:07:42.649548-07:00,1924.3,565.8,1138.4,1407.6,1112.1,1201.8,1441.5,1821.6,3434.6,3437.0,1515.3,1438.7,1465.4,3440.7,997.0,1461.7,3433.4,3439.5,632.7,1173.5,838.6,517.9,1293.6,1869.3,3441.9,3440.7,745.5,1001.3,1404.9,1459.8,1192.0,1159.4,5.0,0.0,0.0,4074.0,4974.0,12903.0,7786.0,-31.0,-17.0,14.0,10.0,-2.0,-5.0,10704.0,10654.0,5467.0,3237.0,-18.0,-12.0,-2.0,1.0
2022-05-06 15:07:42.709775-07:00,1924.3,565.8,1153.3,1405.8,1112.1,1201.8,1445.1,1816.8,3434.6,3437.0,1522.7,1434.1,1465.4,3440.7,992.7,1461.7,3432.2,3443.1,632.7,1173.5,837.7,522.6,1293.6,1869.3,3432.2,3451.6,745.5,1001.3,1400.3,1468.1,1192.0,1159.4,4.0,-4.0,-1.0,4078.0,4973.0,12895.0,7796.0,-8.0,-6.0,-4.0,12.0,1.0,0.0,10710.0,10648.0,5464.0,3239.0,-11.0,-9.0,-7.0,1.0
2022-05-06 15:07:42.799728-07:00,1930.2,569.8,1153.3,1405.8,1106.0,1202.7,1445.1,1816.8,3440.7,3433.4,1522.7,1434.1,1461.7,3439.5,992.7,1461.7,3432.2,3443.1,640.0,1171.8,837.7,522.6,1292.7,1873.2,3432.2,3451.6,737.3,985.0,1400.3,1468.1,1197.4,1153.3,11.0,1.0,-3.0,4079.0,4973.0,12895.0,7796.0,0.0,-14.0,13.0,20.0,6.0,0.0,10710.0,10648.0,5464.0,3239.0,-5.0,1.0,-4.0,1.0
2022-05-06 15:07:42.804069-07:00,1930.2,569.8,1149.8,1397.6,1106.0,1202.7,1440.5,1828.4,3440.7,3433.4,1524.5,1434.1,1461.7,3439.5,994.5,1455.2,3428.6,3438.2,640.0,1171.8,838.6,522.6,1292.7,1873.2,3432.2,3440.7,737.3,985.0,1402.1,1467.2,1197.4,1153.3,5.0,-5.0,-7.0,4079.0,4973.0,12895.0,7796.0,2.0,6.0,-15.0,10.0,0.0,0.0,10711.0,10647.0,5465.0,3238.0,-3.0,7.0,-10.0,1.0
2022-05-06 15:07:42.890030-07:00,1925.2,569.0,1146.3,1397.6,1108.6,1203.5,1440.5,1828.4,3439.5,3439.5,1520.8,1434.1,1461.7,3445.5,994.5,1455.2,3428.6,3438.2,644.0,1174.4,838.6,521.8,1296.3,1881.1,3432.2,3440.7,742.2,1000.5,1402.1,1464.4,1198.2,1160.3,6.0,-10.0,-5.0,4081.0,4970.0,12897.0,7795.0,3.0,4.0,-1.0,11.0,-1.0,-2.0,10712.0,10646.0,5468.0,3235.0,1.0,1.0,-10.0,1.0
2022-05-06 15:07:42.919749-07:00,1925.2,569.0,1146.3,1410.3,1108.6,1206.2,1447.9,1823.6,3439.5,3439.5,1520.8,1440.5,1461.7,3444.3,993.6,1458.0,3428.6,3439.5,640.0,1174.4,838.6,521.8,1296.3,1881.1,3440.7,3429.8,736.5,1000.5,1405.8,1464.4,1198.2,1160.3,5.0,-2.0,-7.0,4081.0,4970.0,12897.0,7795.0,-3.0,-8.0,2.0,9.0,4.0,2.0,10712.0,10646.0,5468.0,3235.0,-1.0,-6.0,-3.0,1.0
2022-05-06 15:07:42.949678-07:00,1936.1,581.8,1141.0,1410.3,1113.0,1206.2,1447.9,1823.6,3438.2,3438.2,1523.6,1440.5,1470.9,3444.3,993.6,1458.0,3428.6,3439.5,640.0,1174.4,838.6,525.0,1294.5,1873.2,3440.7,3429.8,736.5,993.6,1405.8,1466.3,1188.5,1155.9,0.0,-4.0,0.0,4087.0,4973.0,12895.0,7793.0,-5.0,-21.0,0.0,6.0,0.0,9.0,10714.0,10645.0,5466.0,3232.0,-9.0,-12.0,-7.0,1.0
2022-05-06 15:07:43.069987-07:00,1936.1,581.8,1141.0,1398.5,1113.0,1206.2,1446.0,1811.0,3438.2,3438.2,1523.6,1440.5,1470.9,3438.2,990.2,1456.2,3432.2,3432.2,638.4,1174.4,836.1,525.0,1294.5,1873.2,3439.5,3443.1,742.2,993.6,1401.2,1466.3,1188.5,1155.9,8.0,3.0,0.0,4092.0,4978.0,12894.0,7788.0,7.0,2.0,2.0,11.0,5.0,3.0,10713.0,10647.0,5466.0,3231.0,11.0,5.0,-9.0,1.0
2022-05-06 15:07:43.071738-07:00,1927.2,573.0,1147.1,1398.5,1109.5,1206.2,1446.0,1811.0,3440.7,3435.8,1524.5,1440.5,1463.5,3438.2,990.2,1456.2,3432.2,3432.2,638.4,1169.1,836.1,523.4,1287.3,1872.3,3439.5,3443.1,742.2,997.9,1401.2,1468.1,1197.4,1157.7,14.0,-6.0,-2.0,4095.0,4975.0,12891.0,7794.0,16.0,14.0,-12.0,17.0,1.0,-4.0,10717.0,10643.0,5465.0,3233.0,6.0,6.0,-10.0,1.0
2022-05-06 15:07:43.099607-07:00,1927.2,573.0,1147.1,1400.3,1105.1,1200.0,1437.8,1822.6,3440.7,3435.8,1524.5,1433.2,1460.8,3434.6,991.9,1447.9,3431.0,3444.3,637.6,1172.6,838.6,523.4,1287.3,1872.3,3439.5,3444.3,734.8,992.7,1399.4,1468.1,1197.4,1157.7,4.0,-8.0,-9.0,4087.0,4972.0,12897.0,7789.0,-11.0,5.0,-5.0,11.0,-1.0,-1.0,10713.0,10644.0,5470.0,3232.0,-11.0,2.0,-8.0,1.0
2022-05-06 15:07:43.160026-07:00,1934.1,572.2,1141.0,1402.1,1105.1,1200.0,1437.8,1822.6,3434.6,3441.9,1517.1,1436.0,1460.8,3434.6,991.9,1447.9,3431.0,3444.3,637.6,1172.6,838.6,519.5,1288.2,1873.2,3439.5,3444.3,734.8,992.7,1404.9,1470.9,1192.9,1153.3,12.0,-2.0,-4.0,4086.0,4972.0,12897.0,7789.0,14.0,-6.0,8.0,15.0,1.0,-2.0,10712.0,10645.0,5470.0,3232.0,8.0,-6.0,-2.0,1.0
2022-05-06 15:07:43.219695-07:00,1934.1,572.2,1141.0,1402.1,1108.6,1208.0,1433.2,1817.8,3434.6,3441.9,1517.1,1436.0,1459.8,3439.5,994.5,1452.5,3434.6,3438.2,641.6,1182.3,838.6,519.5,1288.2,1873.2,3435.8,3435.8,739.7,996.2,1404.9,1470.9,1192.9,1153.3,10.0,0.0,4.0,4090.0,4975.0,12897.0,7787.0,-5.0,-8.0,-1.0,10.0,3.0,-2.0,10713.0,10646.0,5469.0,3231.0,2.0,-3.0,-4.0,1.0
2022-05-06 15:07:43.249650-07:00,1924.3,569.0,1150.6,1399.4,1108.6,1208.0,1433.2,1817.8,3432.2,3443.1,1526.4,1441.5,1459.8,3439.5,994.5,1452.5,3434.6,3438.2,641.6,1182.3,841.9,518.7,1290.9,1870.3,3435.8,3435.8,739.7,996.2,1405.8,1470.0,1191.2,1167.4,4.0,-3.0,0.0,4090.0,4974.0,12895.0,7789.0,-15.0,0.0,-4.0,12.0,-4.0,2.0,10715.0,10644.0,5468.0,3232.0,-8.0,2.0,-3.0,1.0
2022-05-06 15:07:43.339548-07:00,1924.3,569.0,1150.6,1399.4,1111.2,1196.5,1436.0,1821.6,3432.2,3443.1,1526.4,1441.5,1463.5,3437.0,993.6,1457.1,3428.6,3435.8,635.1,1172.6,841.9,518.7,1290.9,1870.3,3449.1,3438.2,733.2,990.2,1405.8,1470.0,1191.2,1167.4,4.0,2.0,-5.0,4088.0,4973.0,12896.0,7790.0,4.0,17.0,-3.0,12.0,1.0,1.0,10713.0,10645.0,5469.0,3231.0,0.0,7.0,-4.0,1.0
2022-05-06 15:07:43.369667-07:00,1920.3,582.6,1144.5,1396.7,1111.2,1196.5,1436.0,1826.5,3433.4,3433.4,1522.7,1436.0,1463.5,3437.0,993.6,1455.2,3438.2,3435.8,635.1,1172.6,834.4,517.1,1287.3,1871.3,3438.2,3438.2,733.2,990.2,1398.5,1470.9,1190.3,1158.6,9.0,-4.0,-6.0,4087.0,4971.0,12897.0,7790.0,-1.0,0.0,-2.0,14.0,-3.0,-5.0,10714.0,10644.0,5469.0,3231.0,0.0,6.0,-4.0,1.0
2022-05-06 15:07:43.400104-07:00,1914.4,582.6,1144.5,1396.7,1100.8,1207.1,1435.0,1826.5,3439.5,3433.4,1522.7,1436.0,1457.1,3444.3,994.5,1455.2,3438.2,3432.2,639.2,1170.9,834.4,517.1,1287.3,1868.4,3438.2,3440.7,734.8,992.7,1398.5,1470.9,1190.3,1165.6,5.0,5.0,-11.0,4085.0,4969.0,12897.0,7792.0,-15.0,14.0,-3.0,14.0,7.0,0.0,10717.0,10641.0,5468.0,3232.0,-31.0,-6.0,-6.0,1.0
2022-05-06 15:07:43.459668-07:00,1914.4,573.8,1143.6,1412.2,1100.8,1207.1,1435.0,1819.7,3439.5,3440.7,1531.0,1441.5,1457.1,3444.3,994.5,1459.8,3439.5,3432.2,639.2,1170.9,833.6,522.6,1283.7,1868.4,3446.7,3440.7,734.8,992.7,1403.0,1460.8,1189.4,1165.6,9.0,-10.0,0.0,4090.0,4966.0,12890.0,7803.0,-25.0,-8.0,1.0,14.0,-8.0,-3.0,10728.0,10634.0,5462.0,3231.0,-9.0,-16.0,-7.0,1.0
2022-05-06 15:07:43.520350-07:00,1920.3,573.8,1143.6,1412.2,1118.2,1203.5,1436.0,1819.7,3444.3,3440.7,1531.0,1441.5,1448.8,3431.0,992.7,1459.8,3439.5,3435.8,635.9,1167.4,833.6,522.6,1283.7,1874.2,3446.7,3437.0,736.5,981.6,1403.0,1460.8,1189.4,1156.8,4.0,3.0,3.0,4089.0,4969.0,12892.0,7799.0,12.0,1.0,12.0,13.0,0.0,3.0,10726.0,10636.0,5462.0,3230.0,3.0,-4.0,0.0,1.0
2022-05-06 15:07:43.550125-07:00,1920.3,570.6,1139.2,1402.1,1118.2,1203.5,1436.0,1815.8,3444.3,3439.5,1520.8,1437.8,1448.8,3431.0,992.7,1459.8,3434.6,3435.8,635.9,1167.4,839.4,520.3,1289.1,1874.2,3440.7,3437.0,736.5,981.6,1406.7,1465.4,1194.7,1156.8,5.0,-2.0,1.0,4088.0,4970.0,12892.0,7800.0,7.0,6.0,4.0,12.0,0.0,-1.0,10724.0,10638.0,5463.0,3229.0,17.0,8.0,-2.0,1.0
2022-05-06 15:07:43.610296-07:00,1918.3,570.6,1139.2,1402.1,1102.5,1202.7,1432.3,1815.8,3441.9,3439.5,1520.8,1437.8,1460.8,3439.5,993.6,1459.8,3434.6,3432.2,640.8,1169.1,839.4,520.3,1289.1,1871.3,3440.7,3446.7,743.9,995.3,1406.7,1465.4,1194.7,1156.8,4.0,-4.0,-6.0,4083.0,4970.0,12896.0,7794.0,16.0,4.0,-5.0,12.0,1.0,-3.0,10717.0,10643.0,5467.0,3228.0,10.0,4.0,-6.0,1.0
2022-05-06 15:07:43.669764-07:00,1918.3,573.8,1154.2,1398.5,1102.5,1202.7,1437.8,1817.8,3441.9,3435.8,1522.7,1441.5,1460.8,3439.5,994.5,1455.2,3432.2,3429.8,640.8,1169.1,832.7,520.3,1289.1,1871.3,3449.1,3433.4,743.9,995.3,1400.3,1461.7,1189.4,1156.8,11.0,1.0,-6.0,4082.0,4973.0,12900.0,7786.0,32.0,-3.0,-2.0,11.0,8.0,-3.0,10713.0,10647.0,5468.0,3226.0,20.0,6.0,-3.0,1.0
2022-05-06 15:07:43.699872-07:00,1917.4,569.8,1154.2,1398.5,1112.1,1200.9,1437.8,1817.8,3439.5,3438.2,1522.7,1441.5,1458.0,3444.3,994.5,1455.2,3432.2,3429.8,640.8,1176.2,832.7,520.3,1281.0,1864.5,3449.1,3433.4,733.2,992.7,1400.3,1461.7,1193.8,1162.1,3.0,5.0,-4.0,4081.0,4974.0,12902.0,7783.0,1.0,-5.0,-4.0,8.0,9.0,2.0,10712.0,10648.0,5469.0,3225.0,2.0,-4.0,-10.0,1.0
2022-05-06 15:07:43.759553-07:00,1917.4,569.8,1148.9,1403.0,1112.1,1200.9,1431.4,1824.6,3439.5,3438.2,1522.7,1436.9,1458.0,3444.3,999.6,1467.2,3433.4,3434.6,640.8,1176.2,838.6,523.4,1281.0,1864.5,3439.5,3438.2,733.2,992.7,1400.3,1465.4,1193.8,1162.1,8.0,-5.0,-2.0,4082.0,4973.0,12900.0,7786.0,0.0,-3.0,-2.0,13.0,1.0,2.0,10713.0,10647.0,5469.0,3225.0,7.0,3.0,-9.0,1.0
2022-05-06 15:07:43.849799-07:00,1915.4,572.2,1148.9,1403.0,1108.6,1192.9,1431.4,1824.6,3435.8,3440.7,1522.7,1436.9,1458.9,3437.0,999.6,1467.2,3433.4,3434.6,635.9,1174.4,838.6,523.4,1284.6,1873.2,3439.5,3438.2,737.3,1001.3,1400.3,1465.4,1188.5,1162.1,6.0,0.0,-7.0,4080.0,4975.0,12903.0,7782.0,18.0,3.0,-6.0,12.0,6.0,-1.0,10710.0,10650.0,5470.0,3223.0,9.0,6.0,-8.0,1.0
2022-05-06 15:07:43.850847-07:00,1915.4,572.2,1145.4,1407.6,1108.6,1192.9,1428.6,1828.4,3435.8,3440.7,1514.3,1436.0,1458.9,3437.0,994.5,1456.2,3428.6,3434.6,635.9,1174.4,832.7,517.9,1284.6,1873.2,3441.9,3444.3,737.3,1001.3,1403.0,1461.7,1188.5,1162.1,4.0,-3.0,-8.0,4080.0,4973.0,12901.0,7785.0,-14.0,0.0,-3.0,13.0,0.0,-1.0,10712.0,10648.0,5469.0,3224.0,-8.0,-3.0,-6.0,1.0
2022-05-06 15:07:43.909473-07:00,1923.3,572.2,1142.7,1407.6,1104.3,1198.2,1428.6,1828.4,3440.7,3433.4,1519.9,1436.0,1470.9,3439.5,994.5,1456.2,3428.6,3434.6,640.8,1171.8,832.7,517.1,1287.3,1867.4,3441.9,3444.3,738.1,988.5,1403.0,1463.5,1189.4,1163.0,9.0,0.0,-4.0,4081.0,4973.0,12901.0,7786.0,6.0,0.0,5.0,14.0,2.0,2.0,10712.0,10648.0,5469.0,3224.0,-2.0,-3.0,-1.0,1.0
2022-05-06 15:07:43.969702-07:00,1923.3,572.2,1142.7,1408.5,1104.3,1199.1,1433.2,1810.0,3440.7,3433.4,1519.9,1438.7,1470.9,3434.6,993.6,1456.2,3432.2,3439.5,639.2,1171.8,838.6,517.1,1287.3,1867.4,3439.5,3439.5,741.4,988.5,1395.7,1463.5,1189.4,1163.0,11.0,-1.0,0.0,4084.0,4974.0,12898.0,7788.0,-19.0,-2.0,5.0,16.0,-3.0,-1.0,10712.0,10648.0,5469.0,3224.0,-6.0,-1.0,-5.0,1.0
2022-05-06 15:07:43.999691-07:00,1915.4,569.0,1147.1,1408.5,1111.2,1199.1,1433.2,1810.0,3450.4,3434.6,1520.8,1438.7,1463.5,3434.6,993.6,1456.2,3432.2,3439.5,639.2,1170.0,838.6,522.6,1281.9,1872.3,3439.5,3439.5,741.4,997.0,1395.7,1469.0,1192.9,1161.2,3.0,0.0,-1.0,4083.0,4974.0,12898.0,7789.0,5.0,1.0,1.0,10.0,0.0,4.0,10712.0,10648.0,5469.0,3224.0,0.0,2.0,-8.0,1.0
2022-05-06 15:07:44.059544-07:00,1915.4,569.0,1147.1,1396.7,1111.2,1204.4,1434.1,1820.7,3450.4,3434.6,1520.8,1434.1,1463.5,3444.3,998.7,1453.4,3437.0,3429.8,639.2,1170.0,837.7,522.6,1281.9,1872.3,3440.7,3433.4,733.2,997.0,1396.7,1469.0,1192.9,1161.2,15.0,2.0,0.0,4084.0,4973.0,12896.0,7792.0,-17.0,6.0,-6.0,15.0,1.0,0.0,10713.0,10647.0,5469.0,3224.0,-5.0,4.0,-7.0,1.0
2022-05-06 15:07:44.119730-07:00,1918.3,577.0,1141.0,1396.7,1106.0,1204.4,1434.1,1820.7,3428.6,3441.9,1519.0,1434.1,1461.7,3444.3,998.7,1453.4,3437.0,3429.8,639.2,1170.9,837.7,521.8,1290.0,1877.2,3440.7,3433.4,733.2,986.7,1396.7,1460.8,1192.0,1159.4,3.0,-7.0,0.0,4084.0,4973.0,12897.0,7791.0,11.0,-10.0,0.0,9.0,-4.0,0.0,10713.0,10647.0,5470.0,3223.0,6.0,0.0,-8.0,1.0
2022-05-06 15:07:44.179533-07:00,1918.3,577.0,1141.0,1398.5,1101.7,1199.1,1453.4,1823.6,3428.6,3441.9,1519.0,1434.1,1463.5,3435.8,993.6,1459.8,3437.0,3426.2,638.4,1171.8,839.4,521.8,1290.0,1877.2,3440.7,3441.9,739.7,990.2,1401.2,1460.8,1192.0,1159.4,6.0,-4.0,-3.0,4081.0,4972.0,12899.0,7791.0,-8.0,13.0,2.0,15.0,0.0,2.0,10713.0,10647.0,5470.0,3223.0,4.0,4.0,-6.0,1.0
2022-05-06 15:07:44.209851-07:00,1907.5,570.6,1141.9,1404.0,1101.7,1199.1,1453.4,1823.6,3426.2,3440.7,1520.8,1442.4,1463.5,3435.8,993.6,1459.8,3437.0,3426.2,638.4,1171.8,838.6,525.0,1285.5,1868.4,3440.7,3441.9,739.7,990.2,1396.7,1463.5,1185.9,1154.2,9.0,-1.0,-6.0,4083.0,4974.0,12898.0,7789.0,2.0,-12.0,0.0,11.0,1.0,-3.0,10713.0,10647.0,5470.0,3223.0,-14.0,-8.0,-8.0,1.0
2022-05-06 15:07:44.269833-07:00,1907.5,570.6,1141.9,1404.0,1105.1,1204.4,1436.0,1824.6,3426.2,3440.7,1520.8,1442.4,1463.5,3435.8,996.2,1458.9,3437.0,3438.2,636.7,1171.8,838.6,525.0,1285.5,1868.4,3439.5,3438.2,738.9,994.5,1396.7,1463.5,1185.9,1154.2,8.0,-2.0,-7.0,4085.0,4972.0,12894.0,7796.0,-25.0,2.0,-4.0,12.0,6.0,0.0,10720.0,10642.0,5466.0,3224.0,-22.0,-14.0,-6.0,1.0
2022-05-06 15:07:44.299614-07:00,1914.4,573.0,1141.9,1402.1,1105.1,1204.4,1436.0,1824.6,3449.1,3446.7,1520.8,1437.8,1463.5,3435.8,996.2,1458.9,3437.0,3438.2,636.7,1171.8,838.6,521.0,1280.1,1869.3,3439.5,3438.2,738.9,994.5,1396.7,1469.0,1192.0,1156.8,9.0,0.0,1.0,4088.0,4971.0,12891.0,7800.0,3.0,-9.0,1.0,15.0,2.0,2.0,10724.0,10639.0,5465.0,3225.0,-2.0,-5.0,-7.0,1.0
2022-05-06 15:07:44.359573-07:00,1914.4,573.0,1141.9,1402.1,1104.3,1196.5,1432.3,1817.8,3449.1,3446.7,1520.8,1437.8,1453.4,3435.8,990.2,1456.2,3435.8,3435.8,637.6,1169.1,838.6,521.0,1280.1,1869.3,3438.2,3438.2,732.3,986.7,1396.7,1469.0,1192.0,1156.8,3.0,1.0,0.0,4086.0,4968.0,12892.0,7800.0,-7.0,19.0,-13.0,10.0,0.0,6.0,10724.0,10638.0,5465.0,3225.0,-7.0,4.0,-8.0,1.0
2022-05-06 15:07:44.449563-07:00,1914.4,573.0,1143.6,1393.0,1104.3,1196.5,1432.3,1817.8,3438.2,3440.7,1513.4,1435.0,1453.4,3435.8,990.2,1456.2,3435.8,3435.8,637.6,1169.1,838.6,521.8,1281.0,1867.4,3438.2,3438.2,732.3,986.7,1402.1,1464.4,1190.3,1153.3,13.0,-5.0,-4.0,4084.0,4964.0,12894.0,7801.0,-1.0,10.0,-4.0,18.0,0.0,-5.0,10723.0,10637.0,5468.0,3226.0,1.0,8.0,-5.0,1.0
2022-05-06 15:07:44.452116-07:00,1915.4,573.0,1143.6,1393.0,1112.1,1197.4,1428.6,1820.7,3429.8,3440.7,1513.4,1435.0,1458.0,3435.8,992.7,1458.0,3434.6,3439.5,639.2,1174.4,838.6,521.8,1281.0,1880.1,3443.1,3449.1,740.6,991.0,1402.1,1464.4,1190.3,1157.7,6.0,-3.0,-4.0,4084.0,4964.0,12894.0,7801.0,-2.0,5.0,-2.0,11.0,0.0,-1.0,10722.0,10637.0,5469.0,3227.0,1.0,3.0,-4.0,1.0
2022-05-06 15:07:44.509611-07:00,1915.4,573.0,1142.7,1398.5,1112.1,1197.4,1428.6,1820.7,3429.8,3433.4,1519.0,1437.8,1458.0,3435.8,992.7,1452.5,3444.3,3439.5,639.2,1174.4,832.7,517.9,1279.2,1880.1,3438.2,3449.1,740.6,991.0,1396.7,1459.8,1186.7,1157.7,10.0,-7.0,0.0,4083.0,4964.0,12895.0,7801.0,17.0,13.0,-8.0,13.0,-5.0,-3.0,10722.0,10637.0,5469.0,3227.0,3.0,1.0,-5.0,1.0
2022-05-06 15:07:44.569586-07:00,1895.8,573.0,1142.7,1398.5,1102.5,1208.0,1434.1,1820.7,3441.9,3433.4,1519.0,1437.8,1463.5,3433.4,993.6,1452.5,3444.3,3431.0,636.7,1166.5,832.7,517.9,1279.2,1862.5,3438.2,3449.1,737.3,991.0,1396.7,1459.8,1186.7,1166.5,10.0,-4.0,-4.0,4081.0,4964.0,12896.0,7800.0,-11.0,-5.0,-4.0,13.0,0.0,0.0,10721.0,10638.0,5469.0,3226.0,-11.0,3.0,-7.0,1.0
2022-05-06 15:07:44.600463-07:00,1895.8,568.2,1147.1,1408.5,1102.5,1208.0,1434.1,1808.1,3441.9,3433.4,1520.8,1441.5,1463.5,3433.4,993.6,1453.4,3432.2,3431.0,636.7,1166.5,835.2,521.8,1281.0,1862.5,3434.6,3449.1,737.3,991.0,1405.8,1476.4,1190.3,1166.5,9.0,-2.0,-7.0,4081.0,4963.0,12896.0,7801.0,-2.0,11.0,-6.0,13.0,1.0,-2.0,10721.0,10638.0,5469.0,3226.0,-4.0,-1.0,-5.0,1.0
2022-05-06 15:07:44.659497-07:00,1920.3,568.2,1147.1,1408.5,1109.5,1194.7,1425.9,1808.1,3433.4,3433.4,1520.8,1441.5,1456.2,3439.5,986.7,1453.4,3432.2,3433.4,640.8,1173.5,835.2,521.8,1281.0,1868.4,3434.6,3449.1,731.5,987.6,1405.8,1476.4,1190.3,1149.8,3.0,-1.0,-2.0,4082.0,4965.0,12896.0,7798.0,6.0,-11.0,7.0,13.0,4.0,-2.0,10721.0,10639.0,5469.0,3226.0,13.0,-2.0,-1.0,1.0
2022-05-06 15:07:44.689805-07:00,1920.3,570.6,1142.7,1394.8,1109.5,1194.7,1438.7,1816.8,3433.4,3441.9,1519.0,1432.3,1456.2,3439.5,997.0,1452.5,3428.6,3429.8,640.8,1173.5,840.3,521.0,1281.0,1868.4,3433.4,3439.5,731.5,987.6,1394.8,1464.4,1188.5,1149.8,7.0,-5.0,-5.0,4084.0,4963.0,12893.0,7803.0,-14.0,-3.0,-2.0,13.0,-3.0,1.0,10723.0,10636.0,5468.0,3227.0,-19.0,-6.0,-5.0,1.0
2022-05-06 15:07:44.749676-07:00,1906.6,569.8,1142.7,1394.8,1104.3,1190.3,1438.7,1816.8,3435.8,3439.5,1519.0,1432.3,1458.0,3433.4,997.0,1452.5,3428.6,3429.8,639.2,1172.6,840.3,521.0,1286.4,1871.3,3433.4,3439.5,734.0,989.3,1394.8,1464.4,1185.9,1161.2,10.0,1.0,2.0,4085.0,4965.0,12893.0,7801.0,3.0,2.0,-3.0,13.0,1.0,-1.0,10722.0,10637.0,5469.0,3227.0,6.0,-1.0,-8.0,1.0
2022-05-06 15:07:44.809556-07:00,1906.6,569.8,1147.1,1402.1,1104.3,1190.3,1426.8,1802.3,3435.8,3439.5,1510.6,1431.4,1458.0,3433.4,993.6,1463.5,3426.2,3440.7,639.2,1172.6,841.9,518.7,1286.4,1871.3,3439.5,3439.5,734.0,989.3,1393.9,1461.7,1185.9,1161.2,5.0,0.0,-5.0,4082.0,4960.0,12892.0,7809.0,-23.0,24.0,-1.0,11.0,0.0,1.0,10725.0,10634.0,5468.0,3229.0,-19.0,1.0,-5.0,1.0
2022-05-06 15:07:44.839691-07:00,1913.4,567.4,1147.1,1402.1,1104.3,1192.9,1426.8,1802.3,3444.3,3443.1,1510.6,1431.4,1455.2,3441.9,993.6,1463.5,3426.2,3440.7,640.8,1170.9,841.9,518.7,1277.4,1869.3,3439.5,3439.5,735.6,994.5,1393.9,1461.7,1191.2,1164.7,5.0,10.0,-7.0,4074.0,4961.0,12899.0,7800.0,19.0,-2.0,-6.0,13.0,12.0,-1.0,10720.0,10638.0,5471.0,3228.0,28.0,5.0,-6.0,1.0
2022-05-06 15:07:44.899662-07:00,1913.4,567.4,1141.0,1389.4,1104.3,1192.9,1434.1,1817.8,3444.3,3443.1,1520.8,1433.2,1455.2,3441.9,991.9,1451.6,3431.0,3440.7,640.8,1170.9,839.4,520.3,1277.4,1869.3,3437.0,3438.2,735.6,994.5,1392.1,1457.1,1191.2,1164.7,8.0,-7.0,-4.0,4081.0,4954.0,12892.0,7813.0,-37.0,3.0,2.0,11.0,0.0,-4.0,10730.0,10628.0,5470.0,3229.0,-53.0,-10.0,-12.0,1.0
2022-05-06 15:07:44.959619-07:00,1904.6,567.4,1141.0,1389.4,1106.0,1198.2,1434.1,1817.8,3435.8,3438.2,1520.8,1433.2,1458.9,3440.7,991.9,1451.6,3431.0,3440.7,640.0,1171.8,839.4,520.3,1289.1,1864.5,3437.0,3438.2,736.5,984.2,1392.1,1457.1,1191.2,1152.4,7.0,59.0,-3.0,4080.0,4954.0,12880.0,7832.0,-247.0,43.0,37.0,12.0,38.0,0.0,10758.0,10606.0,5460.0,3222.0,-130.0,-64.0,-44.0,1.0
2022-05-06 15:07:44.990046-07:00,1904.6,567.4,1145.4,1401.2,1106.0,1216.8,1445.1,1812.9,3435.8,3438.2,1519.9,1438.7,1458.9,3432.2,1034.0,1465.4,3432.2,3435.8,639.2,1171.8,836.9,525.0,1289.1,1864.5,3444.3,3432.2,744.7,984.2,1401.2,1455.2,1191.2,1152.4,-8.0,173.0,8.0,4124.0,4857.0,12779.0,8033.0,-1112.0,210.0,-305.0,16.0,60.0,5.0,10893.0,10492.0,5415.0,3219.0,-675.0,-148.0,-126.0,1.0
2022-05-06 15:07:45.050107-07:00,1917.4,580.2,1365.7,1401.2,1102.5,1216.8,1445.1,1812.9,3434.6,3437.0,1748.3,1438.7,1454.3,3432.2,1034.0,1465.4,3432.2,3435.8,639.2,1163.8,836.9,521.8,1409.4,1870.3,3444.3,3432.2,744.7,1048.7,1401.2,1586.1,1364.8,1161.2,-3.0,174.0,-150.0,4497.0,4506.0,12490.0,8480.0,-2261.0,-618.0,-1116.0,-6.0,107.0,-29.0,11316.0,10058.0,5308.0,3324.0,-2034.0,-193.0,-273.0,1.0
2022-05-06 15:07:45.109560-07:00,1917.4,580.2,1365.7,1476.4,1102.5,1404.0,1529.2,1851.8,3434.6,3437.0,1748.3,1484.7,1454.3,3433.4,1557.1,1611.5,3434.6,3439.5,644.9,1163.8,842.8,521.8,1409.4,1870.3,3438.2,3438.2,948.3,1048.7,1413.1,1586.1,1364.8,1161.2,188.0,-64.0,-171.0,5455.0,3900.0,11879.0,9075.0,-3180.0,-1130.0,-1690.0,65.0,32.0,-73.0,12105.0,9168.0,5065.0,3493.0,-3191.0,-397.0,-500.0,1.0
2022-05-06 15:07:45.139843-07:00,1916.4,602.0,1772.3,1476.4,1111.2,1404.0,1529.2,1851.8,3444.3,3435.8,2437.7,1484.7,1512.5,3433.4,1557.1,1611.5,3434.6,3439.5,644.9,1176.2,842.8,520.3,1588.0,2066.5,3438.2,3438.2,948.3,1112.1,1413.1,1856.7,1770.4,1152.4,83.0,-189.0,-109.0,6513.0,3249.0,11060.0,9652.0,-2763.0,-1333.0,-1149.0,11.0,-28.0,-78.0,12920.0,8123.0,4720.0,3638.0,-2994.0,-500.0,-400.0,1.0
2022-05-06 15:07:45.199661-07:00,1916.4,602.0,1772.3,1650.2,1111.2,1418.6,1523.6,1896.7,3444.3,3435.8,2437.7,1546.9,1512.5,3444.3,1635.0,1855.7,3433.4,3428.6,651.4,1176.2,842.8,520.3,1588.0,2066.5,3439.5,3432.2,1023.7,1112.1,1443.3,1856.7,1770.4,1152.4,19.0,-145.0,-92.0,7410.0,2922.0,10169.0,10078.0,-2244.0,-1973.0,-650.0,-12.0,-55.0,-15.0,13532.0,7235.0,4364.0,3732.0,-2437.0,-483.0,-305.0,1.0
2022-05-06 15:07:45.259598-07:00,1940.0,583.5,1768.5,1664.4,1141.9,1418.6,1523.6,1896.7,3434.6,3431.0,2437.7,1573.0,1626.5,3444.3,1635.0,1855.7,3433.4,3428.6,651.4,1180.6,850.3,520.3,1574.9,2067.5,3439.5,3432.2,1023.7,1099.0,1460.8,1926.2,1798.4,1156.8,19.0,-53.0,-67.0,8203.0,2790.0,9178.0,10446.0,-2704.0,-1675.0,-376.0,1.0,22.0,-36.0,14066.0,6373.0,3945.0,3797.0,-2611.0,-663.0,-229.0,1.0
2022-05-06 15:07:45.289837-07:00,1940.0,583.5,1768.5,1664.4,1121.7,1393.0,1522.7,1892.8,3434.6,3431.0,2437.7,1573.0,1656.8,3441.9,1605.8,1892.8,3432.2,3439.5,644.0,1196.5,850.3,520.3,1574.9,2067.5,3439.5,3439.5,1011.6,1112.1,1460.8,1926.2,1798.4,1156.8,28.0,-69.0,-25.0,8878.0,2650.0,8096.0,10819.0,-2184.0,-1774.0,-139.0,30.0,-14.0,-6.0,14539.0,5472.0,3493.0,3862.0,-2245.0,-597.0,-227.0,1.0
2022-05-06 15:07:45.349678-07:00,2001.5,584.3,1742.6,1648.3,1121.7,1393.0,1522.7,1892.8,3446.7,3443.1,2413.4,1595.5,1656.8,3441.9,1605.8,1892.8,3432.2,3439.5,644.0,1196.5,856.2,521.0,1574.9,2072.5,3439.5,3439.5,1011.6,1112.1,1466.3,1892.8,1763.7,1166.5,152.0,42.0,69.0,9375.0,2636.0,7069.0,11118.0,-2094.0,-1415.0,-154.0,37.0,-27.0,-62.0,14905.0,4671.0,3057.0,3889.0,-2156.0,-585.0,-197.0,1.0
2022-05-06 15:07:45.409659-07:00,2001.5,584.3,1742.6,1648.3,1123.5,1393.9,1524.5,1897.7,3446.7,3443.1,2413.4,1595.5,1670.1,3434.6,1581.4,1901.6,3437.0,3428.6,644.0,1197.4,856.2,521.0,1574.9,2072.5,3439.5,3439.5,1008.2,1144.5,1466.3,1892.8,1763.7,1166.5,38.0,-56.0,93.0,9764.0,2516.0,6257.0,11297.0,-919.0,-1138.0,17.0,32.0,-97.0,81.0,15145.0,4043.0,2763.0,3884.0,-1123.0,-290.0,-218.0,1.0
2022-05-06 15:07:45.439743-07:00,2058.4,600.4,1689.1,1612.4,1123.5,1393.9,1524.5,1897.7,3439.5,3433.4,2432.4,1658.7,1670.1,3434.6,1581.4,1901.6,3437.0,3428.6,644.0,1197.4,867.1,526.6,1615.2,2148.3,3439.5,3439.5,1008.2,1144.5,1464.4,1869.3,1746.4,1164.7,5.0,21.0,39.0,9981.0,2565.0,5728.0,11376.0,-971.0,-695.0,-110.0,22.0,-9.0,8.0,15281.0,3650.0,2613.0,3844.0,-995.0,-122.0,-223.0,1.0
2022-05-06 15:07:45.499631-07:00,2075.5,600.4,1689.1,1612.4,1120.9,1379.4,1514.3,1891.8,3438.2,3433.4,2432.4,1658.7,1672.9,3445.5,1565.5,1883.0,3434.6,3437.0,647.3,1209.7,867.1,526.6,1615.2,2194.2,3440.7,3449.1,994.5,1200.9,1464.4,1869.3,1746.4,1156.8,-10.0,21.0,-49.0,10141.0,2543.0,5344.0,11427.0,-612.0,-550.0,-19.0,-1.0,39.0,-34.0,15378.0,3359.0,2509.0,3791.0,-638.0,-155.0,-225.0,1.0
2022-05-06 15:07:45.559452-07:00,2075.5,610.0,1657.7,1592.7,1120.9,1379.4,1514.3,1923.3,3438.2,3439.5,2421.9,1671.9,1672.9,3445.5,1565.5,1871.3,3439.5,3437.0,647.3,1209.7,863.7,521.0,1655.8,2194.2,3439.5,3449.1,994.5,1200.9,1462.6,1869.3,1723.4,1156.8,-44.0,75.0,-83.0,10239.0,2508.0,5018.0,11494.0,-915.0,-469.0,69.0,-18.0,63.0,-28.0,15479.0,3062.0,2350.0,3732.0,-865.0,-324.0,-220.0,1.0
2022-05-06 15:07:45.589797-07:00,2054.4,610.0,1657.7,1592.7,1113.9,1366.6,1504.1,1923.3,3439.5,3439.5,2421.9,1671.9,1678.6,3440.7,1550.6,1871.3,3439.5,3437.0,644.0,1200.9,863.7,521.0,1655.8,2206.5,3439.5,3438.2,977.3,1210.6,1462.6,1869.3,1723.4,1157.7,28.0,-5.0,-6.0,10360.0,2377.0,4562.0,11603.0,-1006.0,-443.0,8.0,31.0,-28.0,-19.0,15602.0,2668.0,2134.0,3655.0,-967.0,-311.0,-270.0,1.0
2022-05-06 15:07:45.649712-07:00,2054.4,602.0,1594.6,1567.4,1113.9,1366.6,1504.1,1940.0,3439.5,3433.4,2405.0,1687.2,1678.6,3440.7,1550.6,1858.6,3429.8,3437.0,644.0,1200.9,859.5,517.9,1691.9,2206.5,3439.5,3438.2,977.3,1210.6,1464.4,1855.7,1715.8,1157.7,-12.0,-96.0,81.0,10441.0,2267.0,4153.0,11706.0,-673.0,-416.0,286.0,23.0,38.0,31.0,15699.0,2344.0,1941.0,3566.0,-766.0,-322.0,-239.0,1.0
2022-05-06 15:07:45.709640-07:00,2054.4,602.0,1594.6,1567.4,1107.8,1357.6,1508.8,1940.0,3438.2,3433.4,2405.0,1687.2,1681.4,3434.6,1539.4,1858.6,3429.8,3441.9,648.9,1207.1,859.5,517.9,1691.9,2236.3,3439.5,3438.2,962.0,1210.6,1464.4,1855.7,1715.8,1162.1,25.0,-27.0,29.0,10450.0,2233.0,3863.0,11803.0,-456.0,-383.0,172.0,54.0,-58.0,88.0,15763.0,2091.0,1831.0,3500.0,-520.0,-63.0,-190.0,1.0
2022-05-06 15:07:45.769829-07:00,2054.4,594.7,1524.5,1536.6,1107.8,1357.6,1508.8,1897.7,3438.2,3439.5,2380.8,1689.1,1681.4,3434.6,1539.4,1841.1,3432.2,3441.9,648.9,1207.1,867.9,518.7,1701.4,2236.3,3433.4,3438.2,962.0,1210.6,1502.3,1851.8,1724.4,1162.1,4.0,29.0,-74.0,10455.0,2255.0,3568.0,11887.0,-614.0,-454.0,315.0,35.0,92.0,-24.0,15815.0,1833.0,1751.0,3449.0,-702.0,-107.0,-177.0,1.0
2022-05-06 15:07:45.829564-07:00,2053.4,597.1,1524.5,1536.6,1118.2,1358.5,1480.1,1897.7,3446.7,3438.2,2380.8,1689.1,1671.9,3443.1,1518.0,1841.1,3432.2,3435.8,650.5,1210.6,867.9,518.7,1694.8,2219.8,3433.4,3441.9,944.9,1195.6,1502.3,1851.8,1709.1,1209.7,0.0,12.0,20.0,10432.0,2293.0,3205.0,12003.0,-500.0,-604.0,326.0,18.0,35.0,15.0,15866.0,1536.0,1679.0,3394.0,-566.0,-16.0,-226.0,1.0
2022-05-06 15:07:45.859524-07:00,2053.4,597.1,1508.8,1522.7,1118.2,1358.5,1467.2,1861.5,3446.7,3438.2,2358.8,1683.3,1671.9,3443.1,1505.1,1829.4,3427.4,3434.6,650.5,1210.6,884.8,525.0,1694.8,2219.8,3431.0,3441.9,944.9,1195.6,1584.2,1861.5,1709.1,1209.7,18.0,70.0,-26.0,10384.0,2350.0,2866.0,12119.0,-572.0,-482.0,328.0,19.0,-10.0,-68.0,15908.0,1262.0,1626.0,3336.0,-609.0,-33.0,-218.0,1.0
2022-05-06 15:07:45.889865-07:00,2044.4,602.0,1508.8,1522.7,1502.3,1359.4,1467.2,1861.5,3438.2,3433.4,2358.8,1683.3,1661.5,3443.1,1505.1,1829.4,3427.4,3434.6,648.1,1193.8,884.8,525.0,1674.8,2197.3,3431.0,3441.9,933.9,1190.3,1584.2,1861.5,1702.4,1264.9,16.0,-83.0,-4.0,10367.0,2333.0,2595.0,12197.0,-376.0,-302.0,275.0,69.0,-47.0,-10.0,15939.0,1064.0,1587.0,3274.0,-356.0,17.0,-140.0,1.0
2022-05-06 15:07:45.949315-07:00,2044.4,602.0,1497.7,1522.7,1502.3,1359.4,1461.7,1853.7,3438.2,3433.4,2353.5,1683.3,1661.5,3443.1,1506.9,1835.2,3424.9,3433.4,648.1,1193.8,896.6,525.8,1674.8,2197.3,3433.4,3439.5,933.9,1190.3,1685.3,1846.9,1702.4,1264.9,12.0,5.0,-19.0,10294.0,2413.0,2427.0,12278.0,-89.0,-306.0,306.0,14.0,-46.0,-51.0,15951.0,982.0,1572.0,3251.0,-96.0,-34.0,-33.0,1.0
2022-05-06 15:07:46.009588-07:00,2043.4,598.7,1497.7,1522.7,1800.3,1354.0,1461.7,1853.7,3437.0,3433.4,2353.5,1683.3,1653.0,3443.1,1506.9,1835.2,3424.9,3433.4,647.3,1190.3,896.6,525.8,1667.2,2189.1,3433.4,3439.5,917.7,1176.2,1685.3,1846.9,1691.9,1333.2,23.0,32.0,-19.0,10257.0,2433.0,2366.0,12317.0,-38.0,44.0,75.0,49.0,0.0,-52.0,15954.0,982.0,1566.0,3238.0,34.0,-15.0,-33.0,1.0
2022-05-06 15:07:46.039670-07:00,2043.4,598.7,1532.9,1586.1,1800.3,1338.6,1456.2,1841.1,3437.0,3433.4,2353.5,1694.8,1653.0,3439.5,1519.0,1842.0,3439.5,3435.8,647.3,1190.3,907.6,524.2,1667.2,2189.1,3449.1,3437.0,916.0,1176.2,1753.1,1833.3,1691.9,1333.2,-5.0,-18.0,-10.0,10231.0,2364.0,2382.0,12349.0,-131.0,200.0,64.0,27.0,-19.0,68.0,15961.0,963.0,1549.0,3217.0,-53.0,24.0,-73.0,1.0
2022-05-06 15:07:46.099617-07:00,2029.4,603.6,1552.5,1586.1,1750.2,1338.6,1456.2,1841.1,3439.5,3426.2,2372.4,1694.8,1660.6,3439.5,1519.0,1842.0,3439.5,3435.8,647.3,1190.3,907.6,525.0,1650.2,2185.0,3449.1,3437.0,916.0,1174.4,1753.1,1824.6,1695.7,1391.2,-14.0,124.0,-162.0,10195.0,2311.0,2352.0,12395.0,-148.0,144.0,163.0,41.0,-26.0,-65.0,15966.0,927.0,1537.0,3208.0,-249.0,-13.0,-26.0,1.0
2022-05-06 15:07:46.159565-07:00,2029.4,603.6,1552.5,1636.0,1750.2,1330.5,1444.2,1833.3,3439.5,3426.2,2372.4,1728.2,1660.6,3439.5,1516.2,1870.3,3432.2,3434.6,644.9,1190.3,911.8,525.0,1650.2,2185.0,3443.1,3434.6,941.5,1174.4,1814.9,1824.6,1695.7,1391.2,-18.0,11.0,-36.0,10169.0,2291.0,2317.0,12426.0,36.0,-93.0,81.0,7.0,19.0,43.0,15967.0,916.0,1540.0,3209.0,49.0,17.0,4.0,1.0
2022-05-06 15:07:46.219715-07:00,2023.4,612.5,1588.0,1636.0,1729.1,1330.5,1444.2,1833.3,3433.4,3435.8,2370.3,1728.2,1661.5,3439.5,1516.2,1870.3,3432.2,3434.6,644.9,1198.2,911.8,522.6,1634.1,2171.8,3443.1,3434.6,941.5,1174.4,1814.9,1792.6,1667.2,1366.6,-37.0,27.0,-65.0,10126.0,2403.0,2248.0,12452.0,120.0,-324.0,231.0,1.0,-1.0,17.0,15963.0,958.0,1554.0,3206.0,159.0,0.0,1.0,1.0
2022-05-06 15:07:46.249675-07:00,2023.4,612.5,1588.0,1642.6,1729.1,1335.9,1456.2,1868.4,3433.4,3435.8,2370.3,1728.2,1661.5,3431.0,1502.3,1881.1,3434.6,3434.6,657.0,1198.2,905.9,522.6,1634.1,2171.8,3429.8,3432.2,951.7,1174.4,1885.0,1792.6,1667.2,1366.6,-61.0,42.0,0.0,10070.0,2564.0,2162.0,12481.0,153.0,-414.0,221.0,-13.0,14.0,21.0,15958.0,1001.0,1569.0,3212.0,87.0,63.0,24.0,1.0
2022-05-06 15:07:46.309526-07:00,2013.4,613.3,1604.9,1640.7,1774.3,1335.9,1456.2,1868.4,3428.6,3435.8,2350.4,1717.7,1659.6,3431.0,1502.3,1881.1,3434.6,3434.6,657.0,1193.8,911.8,525.0,1619.0,2162.6,3429.8,3432.2,951.7,1176.2,1938.0,1769.5,1670.1,1399.4,-34.0,86.0,-33.0,9999.0,2823.0,2082.0,12496.0,199.0,-617.0,345.0,-10.0,123.0,-4.0,15955.0,1015.0,1598.0,3207.0,-253.0,-8.0,-26.0,1.0
2022-05-06 15:07:46.339685-07:00,2013.4,613.3,1604.9,1640.7,1717.7,1343.1,1444.2,1891.8,3428.6,3435.8,2350.4,1717.7,1653.9,3438.2,1492.1,1875.2,3429.8,3435.8,657.0,1194.7,911.8,525.0,1619.0,2162.6,3441.9,3435.8,940.7,1177.9,1938.0,1769.5,1670.1,1399.4,13.0,-25.0,-24.0,9921.0,2963.0,1852.0,12562.0,-380.0,-403.0,237.0,32.0,-25.0,-109.0,15972.0,850.0,1551.0,3197.0,-364.0,-86.0,-111.0,1.0
2022-05-06 15:07:46.399431-07:00,2021.4,601.2,1547.8,1591.7,1717.7,1343.1,1444.2,1891.8,3438.2,3437.0,2321.2,1719.6,1653.9,3438.2,1492.1,1875.2,3429.8,3435.8,657.0,1194.7,932.2,522.6,1627.5,2152.4,3441.9,3435.8,940.7,1177.9,1946.9,1777.2,1730.1,1469.0,109.0,-69.0,-8.0,9927.0,2964.0,1776.0,12567.0,-39.0,101.0,-156.0,141.0,-101.0,32.0,15987.0,803.0,1507.0,3152.0,153.0,35.0,-91.0,1.0
2022-05-06 15:07:46.489807-07:00,2021.4,601.2,1547.8,1591.7,1687.2,1345.8,1429.5,1868.4,3438.2,3437.0,2321.2,1719.6,1678.6,3431.0,1484.7,1881.1,3437.0,3435.8,657.9,1189.4,932.2,522.6,1627.5,2152.4,3449.1,3443.1,970.5,1200.9,1946.9,1777.2,1730.1,1469.0,174.0,-107.0,-37.0,10057.0,2839.0,1962.0,12465.0,192.0,801.0,-774.0,157.0,-101.0,-166.0,15981.0,901.0,1560.0,3130.0,359.0,134.0,112.0,1.0
2022-05-06 15:07:46.490926-07:00,2004.5,596.3,1512.5,1579.6,1687.2,1345.8,1429.5,1868.4,3438.2,3428.6,2352.5,1742.6,1678.6,3431.0,1484.7,1881.1,3437.0,3435.8,657.9,1189.4,921.1,525.8,1628.4,2151.4,3449.1,3443.1,970.5,1200.9,1902.6,1822.6,1706.2,1567.4,0.0,17.0,-62.0,10173.0,2616.0,2431.0,12336.0,615.0,945.0,-622.0,23.0,-14.0,15.0,15943.0,1120.0,1638.0,3214.0,582.0,54.0,325.0,1.0
2022-05-06 15:07:46.549644-07:00,2004.5,596.3,1512.5,1579.6,1640.7,1338.6,1494.0,2051.4,3438.2,3428.6,2352.5,1742.6,1653.0,3429.8,1492.1,1908.5,3434.6,3435.8,659.5,1192.9,921.1,525.8,1628.4,2151.4,3449.1,3438.2,993.6,1204.4,1902.6,1822.6,1706.2,1567.4,-34.0,61.0,-39.0,10318.0,2476.0,2915.0,12139.0,650.0,764.0,-665.0,-22.0,144.0,-11.0,15893.0,1396.0,1704.0,3315.0,575.0,-29.0,278.0,1.0
2022-05-06 15:07:46.609809-07:00,2005.5,605.2,1500.4,1611.5,1640.7,1338.6,1494.0,2120.9,3434.6,3431.0,2376.6,1764.6,1653.0,3429.8,1492.1,1953.9,3428.6,3435.8,659.5,1192.9,907.6,524.2,1626.5,2153.4,3435.8,3438.2,993.6,1204.4,1898.7,1824.6,1694.8,1530.1,41.0,-28.0,26.0,10419.0,2307.0,3364.0,11968.0,662.0,888.0,-712.0,41.0,-46.0,27.0,15847.0,1665.0,1735.0,3394.0,905.0,52.0,244.0,1.0
2022-05-06 15:07:46.670418-07:00,2013.4,605.2,1500.4,1611.5,1598.3,1315.1,1513.4,2120.9,3444.3,3431.0,2376.6,1764.6,1656.8,3432.2,1503.2,1953.9,3428.6,3431.0,657.9,1196.5,907.6,524.2,1626.5,2152.4,3435.8,3441.9,1052.2,1195.6,1898.7,1824.6,1694.8,1499.5,45.0,-39.0,-2.0,10437.0,2280.0,3854.0,11809.0,874.0,591.0,-267.0,66.0,-27.0,2.0,15771.0,2054.0,1847.0,3475.0,826.0,108.0,361.0,1.0
2022-05-06 15:07:46.699594-07:00,2013.4,608.4,1487.5,1618.1,1598.3,1315.1,1513.4,2102.7,3444.3,3441.9,2343.1,1748.3,1656.8,3432.2,1503.2,1957.8,3438.2,3431.0,657.9,1196.5,900.8,525.0,1623.7,2152.4,3441.9,3441.9,1052.2,1195.6,1926.2,1829.4,1716.7,1499.5,9.0,-28.0,15.0,10367.0,2190.0,4405.0,11694.0,904.0,1187.0,-214.0,36.0,16.0,83.0,15684.0,2382.0,1939.0,3606.0,940.0,158.0,419.0,1.0
2022-05-06 15:07:46.759618-07:00,2016.4,608.4,1487.5,1618.1,1567.4,1284.6,1526.4,2102.7,3445.5,3441.9,2343.1,1748.3,1634.1,3431.0,1493.0,1957.8,3438.2,3433.4,654.6,1203.5,900.8,525.0,1623.7,2136.1,3441.9,3444.3,1055.6,1183.2,1926.2,1829.4,1716.7,1462.6,39.0,37.0,37.0,10197.0,2178.0,5054.0,11583.0,1360.0,1087.0,-100.0,43.0,0.0,57.0,15556.0,2847.0,2123.0,3720.0,1465.0,385.0,323.0,1.0
2022-05-06 15:07:46.819674-07:00,2016.4,597.9,1462.6,1604.0,1567.4,1284.6,1526.4,2078.5,3445.5,3440.7,2322.2,1738.7,1634.1,3431.0,1493.0,1927.2,3439.5,3433.4,654.6,1203.5,890.7,522.6,1609.6,2136.1,3443.1,3444.3,1055.6,1183.2,1881.1,1794.5,1711.0,1462.6,25.0,69.0,7.0,9963.0,2228.0,5884.0,11384.0,1745.0,1381.0,-125.0,39.0,46.0,26.0,15367.0,3469.0,2445.0,3778.0,1751.0,523.0,257.0,1.0
2022-05-06 15:07:46.849543-07:00,2005.5,602.0,1462.6,1604.0,1559.9,1282.8,1530.1,2078.5,3428.6,3444.3,2322.2,1738.7,1634.1,3438.2,1480.1,1927.2,3439.5,3438.2,657.9,1207.1,890.7,522.6,1603.0,2136.1,3443.1,3439.5,1047.8,1177.9,1881.1,1794.5,1694.8,1445.1,27.0,50.0,-60.0,9685.0,2252.0,6742.0,11140.0,1657.0,1220.0,-183.0,54.0,59.0,13.0,15129.0,4130.0,2830.0,3804.0,1641.0,632.0,151.0,1.0
2022-05-06 15:07:46.909538-07:00,2005.5,602.0,1461.7,1604.9,1559.9,1282.8,1527.3,2075.5,3428.6,3444.3,2297.3,1717.7,1634.1,3438.2,1470.0,1908.5,3426.2,3438.2,657.9,1207.1,893.2,527.4,1603.0,2136.1,3432.2,3434.6,1047.8,1177.9,1850.8,1793.6,1694.8,1445.1,64.0,49.0,-105.0,9428.0,2267.0,7518.0,10857.0,1462.0,1162.0,-262.0,47.0,47.0,-40.0,14881.0,4728.0,3214.0,3784.0,1463.0,487.0,45.0,1.0
2022-05-06 15:07:46.939721-07:00,2012.4,593.9,1461.7,1604.9,1582.4,1304.3,1527.3,2075.5,3431.0,3437.0,2297.3,1717.7,1624.7,3443.1,1470.0,1908.5,3426.2,3438.2,663.6,1202.7,893.2,527.4,1608.7,2118.9,3432.2,3434.6,1049.6,1170.9,1850.8,1793.6,1690.0,1444.2,68.0,-26.0,-56.0,9217.0,2249.0,8148.0,10584.0,1328.0,920.0,-176.0,83.0,-25.0,-28.0,14661.0,5218.0,3512.0,3731.0,1481.0,418.0,25.0,1.0
2022-05-06 15:07:46.999546-07:00,2012.4,593.9,1450.6,1604.9,1582.4,1304.3,1542.2,2089.6,3431.0,3437.0,2282.8,1717.7,1624.7,3443.1,1471.8,1903.6,3431.0,3439.5,663.6,1202.7,889.8,526.6,1608.7,2118.9,3434.6,3437.0,1049.6,1170.9,1823.6,1782.9,1690.0,1444.2,9.0,-26.0,-62.0,8952.0,2301.0,8792.0,10281.0,1435.0,960.0,-128.0,-12.0,1.0,0.0,14392.0,5782.0,3817.0,3648.0,1537.0,374.0,29.0,1.0
2022-05-06 15:07:47.059618-07:00,2025.4,588.3,1450.6,1604.9,1645.4,1317.8,1542.2,2089.6,3428.6,3437.0,2282.8,1717.7,1619.9,3434.6,1471.8,1903.6,3431.0,3439.5,657.0,1194.7,889.8,526.6,1597.4,2116.9,3434.6,3437.0,1032.3,1160.3,1823.6,1782.9,1662.5,1437.8,-17.0,-57.0,-34.0,8699.0,2375.0,9309.0,10023.0,1169.0,693.0,27.0,-10.0,-38.0,-1.0,14138.0,6269.0,4057.0,3575.0,1188.0,246.0,81.0,1.0
2022-05-06 15:07:47.089822-07:00,2025.4,588.3,1438.7,1602.1,1645.4,1307.9,1539.4,2091.6,3428.6,3437.0,2271.4,1710.0,1619.9,3439.5,1462.6,1902.6,3435.8,3433.4,659.5,1194.7,881.4,524.2,1597.4,2116.9,3440.7,3439.5,1021.1,1160.3,1803.2,1772.3,1662.5,1437.8,-35.0,11.0,-31.0,8452.0,2507.0,9739.0,9792.0,1069.0,526.0,106.0,-43.0,7.0,-1.0,13896.0,6700.0,4244.0,3525.0,1107.0,234.0,112.0,1.0
2022-05-06 15:07:47.179543-07:00,2013.4,597.1,1439.6,1602.1,1597.4,1307.9,1539.4,2091.6,3438.2,3433.4,2271.4,1710.0,1617.1,3439.5,1462.6,1902.6,3435.8,3433.4,659.5,1198.2,881.4,525.8,1593.6,2114.9,3440.7,3439.5,1021.1,1154.2,1803.2,1770.4,1657.7,1427.7,-111.0,-28.0,-62.0,8228.0,2676.0,10081.0,9589.0,1029.0,222.0,241.0,-97.0,6.0,21.0,13665.0,7077.0,4402.0,3497.0,941.0,253.0,160.0,1.0
2022-05-06 15:07:47.209537-07:00,2013.4,597.1,1439.6,1596.4,1597.4,1305.2,1544.1,2068.5,3438.2,3433.4,2271.4,1712.9,1617.1,3440.7,1469.0,1899.7,3439.5,3434.6,666.8,1198.2,882.3,525.8,1593.6,2114.9,3438.2,3439.5,1016.8,1154.2,1803.2,1770.4,1657.7,1427.7,22.0,14.0,-66.0,8091.0,2848.0,10266.0,9459.0,462.0,141.0,173.0,31.0,14.0,0.0,13491.0,7336.0,4510.0,3505.0,450.0,112.0,154.0,1.0
2022-05-06 15:07:47.239571-07:00,2007.4,589.1,1429.5,1596.4,1559.9,1305.2,1544.1,2068.5,3429.8,3439.5,2247.6,1712.9,1613.4,3440.7,1469.0,1899.7,3439.5,3434.6,666.8,1195.6,882.3,525.0,1579.6,2108.8,3438.2,3439.5,1016.8,1148.9,1803.2,1760.8,1636.0,1414.9,41.0,98.0,-46.0,8050.0,2982.0,10290.0,9425.0,32.0,-181.0,164.0,23.0,60.0,-9.0,13415.0,7444.0,4529.0,3541.0,-61.0,-6.0,128.0,1.0
2022-05-06 15:07:47.299546-07:00,2007.4,589.1,1429.5,1596.4,1559.9,1300.7,1563.7,2065.5,3429.8,3439.5,2247.6,1702.4,1613.4,3438.2,1456.2,1896.7,3437.0,3429.8,666.8,1195.6,877.2,525.0,1579.6,2108.8,3428.6,3437.0,1009.0,1148.9,1779.1,1760.8,1636.0,1414.9,18.0,47.0,8.0,8089.0,2979.0,10197.0,9495.0,-291.0,-98.0,39.0,31.0,18.0,41.0,13454.0,7379.0,4479.0,3593.0,-272.0,-23.0,49.0,1.0
2022-05-06 15:07:47.329954-07:00,2003.5,586.7,1430.5,1596.4,1523.6,1300.7,1563.7,2065.5,3438.2,3428.6,2247.6,1702.4,1616.2,3438.2,1456.2,1896.7,3437.0,3429.8,666.8,1194.7,877.2,522.6,1575.8,2107.8,3428.6,3437.0,1009.0,1141.0,1779.1,1757.9,1638.8,1416.7,32.0,36.0,6.0,8114.0,2990.0,10147.0,9523.0,-18.0,-95.0,24.0,26.0,8.0,12.0,13485.0,7320.0,4461.0,3621.0,-52.0,24.0,-19.0,1.0
2022-05-06 15:07:47.390498-07:00,2003.5,586.7,1430.5,1590.8,1503.2,1294.5,1542.2,2043.4,3438.2,3428.6,2247.6,1709.1,1603.0,3434.6,1467.2,1896.7,3428.6,3428.6,661.1,1194.7,877.2,522.6,1575.8,2107.8,3441.9,3440.7,1003.9,1143.6,1770.4,1757.9,1638.8,1416.7,17.0,7.0,-6.0,8121.0,3011.0,10131.0,9528.0,-59.0,9.0,-43.0,24.0,-8.0,28.0,13493.0,7302.0,4466.0,3621.0,-45.0,22.0,-43.0,1.0
2022-05-06 15:07:47.449424-07:00,1994.5,588.3,1425.9,1579.6,1503.2,1294.5,1542.2,2043.4,3437.0,3439.5,2250.7,1698.6,1603.0,3434.6,1467.2,1896.7,3428.6,3428.6,661.1,1194.7,878.0,525.8,1570.2,2098.7,3441.9,3440.7,1003.9,1143.6,1761.8,1757.0,1640.7,1401.2,40.0,-10.0,-8.0,8141.0,3011.0,10113.0,9530.0,-12.0,-62.0,8.0,28.0,-11.0,-8.0,13506.0,7278.0,4467.0,3621.0,-25.0,16.0,-20.0,1.0
2022-05-06 15:07:47.509511-07:00,1994.5,588.3,1425.9,1579.6,1494.0,1285.5,1530.1,2030.4,3437.0,3439.5,2250.7,1698.6,1598.3,3440.7,1459.8,1887.9,3435.8,3428.6,657.0,1191.2,878.0,525.8,1570.2,2098.7,3446.7,3428.6,1005.6,1137.5,1761.8,1757.0,1640.7,1401.2,9.0,22.0,-14.0,8146.0,3020.0,10109.0,9527.0,-35.0,-27.0,-19.0,13.0,9.0,17.0,13509.0,7273.0,4467.0,3620.0,-51.0,-9.0,-28.0,1.0
2022-05-06 15:07:47.539860-07:00,1993.5,595.5,1424.1,1580.5,1494.0,1285.5,1530.1,2030.4,3438.2,3437.0,2234.2,1689.1,1598.3,3440.7,1459.8,1887.9,3435.8,3428.6,657.0,1191.2,875.5,521.0,1566.5,2096.7,3446.7,3428.6,1005.6,1137.5,1750.2,1745.4,1628.4,1383.0,25.0,-2.0,-10.0,8164.0,3030.0,10093.0,9525.0,29.0,-69.0,2.0,19.0,-10.0,5.0,13519.0,7257.0,4467.0,3614.0,5.0,0.0,-33.0,1.0
2022-05-06 15:07:47.599606-07:00,1993.5,595.5,1424.1,1580.5,1482.9,1285.5,1533.8,2019.4,3438.2,3437.0,2234.2,1689.1,1599.3,3432.2,1454.3,1875.2,3435.8,3426.2,657.0,1192.0,875.5,521.0,1566.5,2096.7,3435.8,3443.1,1003.0,1132.2,1750.2,1745.4,1628.4,1383.0,19.0,13.0,-8.0,8174.0,3059.0,10089.0,9512.0,-6.0,-50.0,-17.0,15.0,0.0,16.0,13521.0,7257.0,4469.0,3604.0,-17.0,-15.0,-23.0,1.0
2022-05-06 15:07:47.629664-07:00,1999.5,591.5,1423.1,1566.5,1482.9,1285.5,1533.8,2014.4,3444.3,3435.8,2238.4,1690.0,1599.3,3432.2,1454.3,1883.0,3441.9,3426.2,657.0,1192.0,871.3,521.8,1562.7,2097.7,3449.1,3443.1,1003.0,1132.2,1734.9,1729.1,1620.9,1381.2,18.0,5.0,6.0,8189.0,3066.0,10073.0,9514.0,-23.0,-38.0,-1.0,18.0,-6.0,18.0,13534.0,7241.0,4456.0,3601.0,-42.0,-14.0,-11.0,1.0
2022-05-06 15:07:47.689748-07:00,1989.5,591.5,1423.1,1566.5,1473.6,1287.3,1525.5,2014.4,3443.1,3435.8,2238.4,1690.0,1601.1,3441.9,1470.9,1883.0,3441.9,3439.5,663.6,1190.3,871.3,521.8,1562.7,2090.6,3449.1,3438.2,996.2,1125.2,1734.9,1729.1,1620.9,1375.7,12.0,-4.0,5.0,8196.0,3063.0,10058.0,9524.0,-5.0,-6.0,9.0,17.0,-11.0,32.0,13548.0,7222.0,4442.0,3606.0,-7.0,7.0,-2.0,1.0
2022-05-06 15:07:47.749634-07:00,1989.5,578.6,1404.0,1573.0,1473.6,1287.3,1525.5,2015.4,3443.1,3434.6,2234.2,1683.3,1601.1,3441.9,1470.9,1882.0,3433.4,3439.5,663.6,1190.3,868.8,517.9,1563.7,2090.6,3443.1,3438.2,996.2,1125.2,1741.6,1739.7,1627.5,1375.7,20.0,9.0,-3.0,8195.0,3072.0,10050.0,9531.0,-51.0,-3.0,4.0,16.0,0.0,15.0,13554.0,7213.0,4434.0,3612.0,-51.0,5.0,1.0,1.0
2022-05-06 15:07:47.779633-07:00,1991.5,578.6,1404.0,1573.0,1458.0,1285.5,1512.5,2015.4,3445.5,3434.6,2234.2,1683.3,1593.6,3439.5,1457.1,1882.0,3433.4,3444.3,658.7,1196.5,868.8,517.9,1563.7,2094.7,3443.1,3441.9,997.0,1125.2,1741.6,1739.7,1627.5,1377.5,23.0,15.0,-14.0,8197.0,3083.0,10038.0,9538.0,55.0,-95.0,30.0,19.0,2.0,7.0,13561.0,7200.0,4428.0,3618.0,2.0,19.0,-17.0,1.0
2022-05-06 15:07:47.870513-07:00,1991.5,584.3,1416.7,1574.9,1458.0,1285.5,1512.5,2005.5,3445.5,3443.1,2227.0,1671.9,1593.6,3439.5,1457.1,1878.1,3428.6,3444.3,658.7,1196.5,872.1,523.4,1559.9,2094.7,3435.8,3441.9,997.0,1125.2,1727.2,1741.6,1615.2,1377.5,20.0,12.0,-4.0,8202.0,3126.0,10038.0,9520.0,32.0,-17.0,-11.0,12.0,4.0,14.0,13557.0,7205.0,4436.0,3611.0,27.0,11.0,-22.0,1.0
2022-05-06 15:07:47.900281-07:00,1989.5,584.3,1416.7,1574.9,1469.0,1285.5,1511.5,2005.5,3440.7,3443.1,2227.0,1671.9,1601.1,3431.0,1455.2,1878.1,3428.6,3439.5,656.2,1196.5,872.1,523.4,1559.9,2091.6,3435.8,3443.1,989.3,1127.9,1727.2,1741.6,1615.2,1363.9,11.0,-10.0,0.0,8206.0,3133.0,10039.0,9513.0,19.0,-25.0,0.0,11.0,-3.0,12.0,13559.0,7201.0,4439.0,3608.0,4.0,15.0,-14.0,1.0
2022-05-06 15:07:47.929712-07:00,1989.5,582.6,1407.6,1574.9,1469.0,1285.5,1514.3,1994.5,3440.7,3444.3,2220.9,1683.3,1601.1,3431.0,1458.0,1864.5,3437.0,3429.8,656.2,1196.5,873.0,518.7,1562.7,2091.6,3449.1,3441.9,989.3,1127.9,1726.3,1729.1,1617.1,1363.9,17.0,6.0,8.0,8208.0,3140.0,10035.0,9513.0,-35.0,27.0,5.0,16.0,-6.0,19.0,13562.0,7197.0,4435.0,3610.0,-23.0,-2.0,7.0,1.0
2022-05-06 15:07:47.989814-07:00,1996.5,589.9,1407.6,1574.9,1453.4,1277.4,1514.3,1994.5,3434.6,3438.2,2220.9,1683.3,1594.6,3437.0,1458.0,1864.5,3437.0,3429.8,657.0,1185.0,873.0,518.7,1554.3,2082.6,3449.1,3441.9,994.5,1122.6,1726.3,1729.1,1610.5,1365.7,19.0,10.0,1.0,8205.0,3133.0,10027.0,9527.0,-57.0,0.0,-3.0,19.0,-2.0,13.0,13571.0,7181.0,4428.0,3619.0,-55.0,15.0,-1.0,1.0
2022-05-06 15:07:48.049499-07:00,1996.5,589.9,1405.8,1570.2,1453.4,1277.4,1503.2,1995.5,3434.6,3438.2,2217.8,1678.6,1594.6,3437.0,1451.6,1866.4,3439.5,3431.0,657.0,1185.0,873.0,520.3,1554.3,2082.6,3435.8,3441.9,994.5,1122.6,1720.5,1726.3,1610.5,1365.7,9.0,18.0,-9.0,8207.0,3125.0,10013.0,9542.0,-89.0,4.0,1.0,8.0,19.0,7.0,13580.0,7159.0,4425.0,3631.0,-67.0,12.0,1.0,1.0
2022-05-06 15:07:48.079620-07:00,1997.5,581.8,1405.8,1570.2,1447.9,1283.7,1503.2,1995.5,3439.5,3439.5,2217.8,1678.6,1588.0,3440.7,1451.6,1866.4,3439.5,3431.0,653.8,1188.5,873.0,520.3,1549.7,2091.6,3435.8,3441.9,980.7,1114.7,1720.5,1726.3,1609.6,1368.5,17.0,35.0,-39.0,8224.0,3094.0,9956.0,9597.0,-357.0,-70.0,21.0,12.0,46.0,5.0,13626.0,7079.0,4393.0,3656.0,-386.0,-47.0,2.0,1.0
2022-05-06 15:07:48.142373-07:00,1997.5,581.8,1400.3,1570.2,1447.9,1283.7,1495.8,2007.4,3439.5,3439.5,2214.7,1676.7,1588.0,3440.7,1440.5,1861.5,3438.2,3431.0,653.8,1188.5,871.3,521.8,1549.7,2091.6,3439.5,3439.5,980.7,1114.7,1711.0,1725.3,1609.6,1368.5,3.0,71.0,-83.0,8325.0,2956.0,9691.0,9822.0,-1383.0,-255.0,56.0,5.0,74.0,-8.0,13810.0,6766.0,4247.0,3730.0,-1352.0,-263.0,-4.0,1.0
2022-05-06 15:07:48.199594-07:00,1982.6,577.8,1401.2,1570.2,1458.9,1282.8,1495.8,2007.4,3435.8,3439.5,2213.7,1676.7,1589.9,3434.6,1440.5,1861.5,3438.2,3431.0,657.0,1194.7,871.3,521.8,1545.0,2079.5,3439.5,3439.5,991.0,1111.2,1711.0,1723.4,1610.5,1361.2,0.0,-30.0,-107.0,8584.0,2644.0,9043.0,10295.0,-2300.0,-653.0,34.0,0.0,-4.0,-51.0,14174.0,6107.0,3910.0,3867.0,-2127.0,-478.0,7.0,1.0
2022-05-06 15:07:48.229727-07:00,1982.6,577.8,1401.2,1564.6,1458.9,1290.9,1500.4,2015.4,3435.8,3439.5,2213.7,1674.8,1589.9,3444.3,1442.4,1859.6,3437.0,3428.6,655.4,1194.7,871.3,521.8,1545.0,2079.5,3438.2,3435.8,986.7,1111.2,1714.8,1723.4,1610.5,1361.2,27.0,51.0,-83.0,8917.0,2340.0,8210.0,10772.0,-2313.0,-860.0,-36.0,9.0,70.0,-60.0,14565.0,5320.0,3468.0,3995.0,-2351.0,-625.0,-42.0,1.0
2022-05-06 15:07:48.290076-07:00,1980.6,589.9,1394.8,1564.6,1514.3,1290.9,1500.4,2015.4,3441.9,3435.8,2200.4,1674.8,1583.3,3444.3,1442.4,1859.6,3437.0,3428.6,655.4,1189.4,871.3,518.7,1552.5,2090.6,3438.2,3435.8,986.7,1115.6,1714.8,1766.6,1640.7,1393.9,-7.0,-60.0,-79.0,9278.0,1949.0,7248.0,11225.0,-2747.0,-1004.0,-117.0,4.0,-36.0,2.0,14961.0,4378.0,2927.0,4107.0,-2673.0,-701.0,-56.0,1.0
2022-05-06 15:07:48.349535-07:00,1980.6,589.9,1394.8,1553.4,1514.3,1299.8,1473.6,2033.4,3441.9,3435.8,2200.4,1665.3,1583.3,3441.9,1433.2,1857.6,3434.6,3434.6,657.0,1189.4,868.8,518.7,1552.5,2090.6,3444.3,3431.0,977.3,1115.6,1702.4,1766.6,1640.7,1393.9,27.0,-41.0,150.0,9622.0,1699.0,6252.0,11571.0,-2040.0,-1139.0,-40.0,40.0,-113.0,41.0,15267.0,3488.0,2405.0,4173.0,-2114.0,-613.0,-71.0,1.0
2022-05-06 15:07:48.379675-07:00,1976.6,578.6,1397.6,1553.4,1550.6,1299.8,1473.6,2033.4,3435.8,3427.4,2191.2,1665.3,1584.2,3441.9,1433.2,1857.6,3434.6,3434.6,657.0,1192.0,868.8,516.3,1536.6,2082.6,3444.3,3431.0,977.3,1111.2,1702.4,1932.1,1694.8,1372.1,-111.0,191.0,20.0,9811.0,1610.0,5755.0,11681.0,-797.0,-427.0,-161.0,-10.0,180.0,206.0,15407.0,3023.0,2183.0,4142.0,-1026.0,-113.0,-257.0,1.0
2022-05-06 15:07:48.439621-07:00,1976.6,578.6,1397.6,1558.1,1635.0,1335.0,1478.3,2027.4,3435.8,3427.4,2191.2,1669.1,1585.2,3431.0,1434.1,1850.8,3440.7,3431.0,658.7,1188.5,863.7,516.3,1536.6,2082.6,3443.1,3441.9,981.6,1122.6,1752.1,1932.1,1694.8,1372.1,12.0,-24.0,-41.0,10040.0,1427.0,4945.0,11880.0,-2364.0,-1265.0,-43.0,38.0,-68.0,10.0,15582.0,2211.0,1930.0,4127.0,-2221.0,-112.0,-294.0,1.0
2022-05-06 15:07:48.499505-07:00,1973.7,569.8,1423.1,1568.3,1635.0,1335.0,1478.3,2027.4,3428.6,3439.5,2211.6,1673.8,1585.2,3431.0,1434.1,1850.8,3440.7,3431.0,658.7,1188.5,873.8,520.3,1543.1,2095.7,3443.1,3441.9,981.6,1122.6,1795.5,1964.7,1719.6,1382.1,74.0,-108.0,-16.0,10273.0,1409.0,4040.0,12025.0,-1356.0,-1409.0,66.0,23.0,21.0,-75.0,15704.0,1512.0,1774.0,4050.0,-1469.0,11.0,-400.0,1.0
2022-05-06 15:07:48.529661-07:00,1973.7,569.8,1423.1,1568.3,1680.5,1365.7,1471.8,2066.5,3428.6,3439.5,2211.6,1673.8,1587.1,3439.5,1449.7,1850.8,3434.6,3444.3,649.7,1194.7,873.8,520.3,1543.1,2095.7,3438.2,3449.1,987.6,1131.4,1795.5,1964.7,1719.6,1382.1,50.0,-233.0,24.0,10352.0,1463.0,3400.0,12148.0,-861.0,-755.0,144.0,69.0,-160.0,-17.0,15771.0,1080.0,1678.0,3967.0,-714.0,52.0,-268.0,1.0
2022-05-06 15:07:48.590150-07:00,1976.6,577.8,1404.9,1559.0,1680.5,1365.7,1471.8,2066.5,3437.0,3444.3,2233.2,1677.6,1587.1,3439.5,1449.7,1850.8,3434.6,3444.3,649.7,1194.7,871.3,515.5,1551.5,2094.7,3438.2,3449.1,987.6,1131.4,1776.2,1947.9,1703.3,1358.5,43.0,-84.0,-21.0,10346.0,1584.0,3088.0,12221.0,-200.0,-476.0,270.0,50.0,-96.0,-25.0,15791.0,890.0,1677.0,3934.0,-298.0,112.0,-56.0,1.0
2022-05-06 15:07:48.649582-07:00,1976.6,577.8,1404.9,1559.0,1775.2,1375.7,1470.9,2096.7,3437.0,3444.3,2233.2,1677.6,1583.3,3431.0,1458.0,1852.8,3439.5,3438.2,650.5,1193.8,871.3,515.5,1551.5,2094.7,3449.1,3439.5,982.5,1133.1,1776.2,1947.9,1703.3,1358.5,-13.0,0.0,-63.0,10323.0,1687.0,2954.0,12259.0,-81.0,-229.0,17.0,26.0,14.0,-19.0,15784.0,829.0,1736.0,3950.0,37.0,206.0,68.0,1.0
2022-05-06 15:07:48.679736-07:00,1995.5,617.3,1398.5,1581.4,1775.2,1375.7,1470.9,2096.7,3427.4,3435.8,2249.7,1674.8,1583.3,3431.0,1458.0,1852.8,3439.5,3438.2,650.5,1193.8,872.1,513.9,1551.5,2095.7,3449.1,3439.5,982.5,1133.1,1743.5,1933.1,1681.4,1385.7,-6.0,56.0,-29.0,10338.0,1774.0,2903.0,12247.0,19.0,-133.0,-56.0,-3.0,7.0,-66.0,15773.0,859.0,1797.0,3960.0,119.0,67.0,-3.0,1.0
2022-05-06 15:07:48.740290-07:00,2038.4,617.3,1398.5,1581.4,1955.8,1436.0,1476.4,2201.4,3445.5,3435.8,2249.7,1674.8,1579.6,3433.4,1473.6,1858.6,3439.5,3433.4,659.5,1195.6,872.1,513.9,1551.5,2078.5,3439.5,3449.1,985.0,1142.7,1743.5,1933.1,1681.4,1519.0,-27.0,-47.0,-30.0,10390.0,1712.0,2941.0,12202.0,-27.0,179.0,-165.0,-10.0,-82.0,42.0,15771.0,895.0,1828.0,3947.0,190.0,67.0,0.0,1.0
2022-05-06 15:07:48.799584-07:00,2038.4,627.8,1397.6,1563.7,1955.8,1436.0,1476.4,2167.7,3445.5,3438.2,2242.5,1664.4,1579.6,3433.4,1473.6,1859.6,3440.7,3433.4,659.5,1195.6,873.8,515.5,1553.4,2078.5,3444.3,3449.1,985.0,1142.7,1729.1,1929.2,1677.6,1519.0,30.0,-40.0,17.0,10413.0,1753.0,3044.0,12152.0,210.0,122.0,-143.0,31.0,-52.0,-31.0,15760.0,998.0,1874.0,3943.0,296.0,68.0,33.0,1.0
2022-05-06 15:07:48.829689-07:00,2031.4,627.8,1397.6,1563.7,1761.8,1404.0,1470.9,2167.7,3449.1,3438.2,2242.5,1664.4,1581.4,3449.1,1482.9,1859.6,3440.7,3431.0,654.6,1190.3,873.8,515.5,1553.4,2080.6,3444.3,3446.7,966.2,1139.2,1729.1,1929.2,1677.6,1480.1,79.0,-214.0,-7.0,10428.0,1756.0,3284.0,12075.0,772.0,401.0,-183.0,79.0,-227.0,-64.0,15722.0,1300.0,1989.0,3952.0,1291.0,162.0,164.0,1.0
2022-05-06 15:07:48.889978-07:00,2031.4,631.1,1387.5,1540.3,1761.8,1404.0,1470.9,2127.0,3449.1,3446.7,2236.3,1664.4,1581.4,3449.1,1482.9,1848.9,3437.0,3431.0,654.6,1190.3,864.6,514.7,1545.9,2080.6,3444.3,3446.7,966.2,1139.2,1720.5,1924.3,1672.9,1480.1,99.0,-197.0,36.0,10334.0,2043.0,4086.0,11865.0,2642.0,1020.0,-167.0,41.0,-64.0,-44.0,15558.0,2250.0,2340.0,3982.0,2897.0,375.0,500.0,1.0
2022-05-06 15:07:48.950134-07:00,2081.6,631.1,1387.5,1540.3,1664.4,1368.5,1483.8,2127.0,3438.2,3446.7,2236.3,1664.4,1578.6,3437.0,1469.0,1848.9,3437.0,3437.0,655.4,1213.3,864.6,514.7,1545.9,2078.5,3444.3,3443.1,975.6,1114.7,1720.5,1924.3,1672.9,1448.8,65.0,-29.0,59.0,9996.0,2343.0,5357.0,11590.0,2855.0,1723.0,78.0,21.0,17.0,-35.0,15226.0,3505.0,2808.0,4054.0,3151.0,489.0,665.0,1.0
2022-05-06 15:07:48.979620-07:00,2081.6,637.6,1395.7,1531.0,1664.4,1368.5,1494.9,2156.5,3438.2,3440.7,2221.9,1659.6,1578.6,3437.0,1510.6,1852.8,3443.1,3431.0,655.4,1213.3,862.1,514.7,1530.1,2078.5,3438.2,3441.9,975.6,1114.7,1714.8,1934.1,1706.2,1448.8,44.0,48.0,17.0,9345.0,2405.0,6804.0,11359.0,2823.0,2753.0,552.0,-43.0,204.0,37.0,14787.0,4720.0,3218.0,4140.0,2777.0,284.0,717.0,1.0
2022-05-06 15:07:49.039762-07:00,2063.5,620.5,1395.7,1531.0,1595.5,1339.5,1494.9,2156.5,3439.5,3432.2,2221.9,1659.6,1596.4,3434.6,1510.6,1852.8,3443.1,3431.0,653.0,1202.7,862.1,514.7,1530.1,2083.6,3438.2,3441.9,966.2,1113.0,1714.8,1934.1,1762.7,1430.5,62.0,123.0,-25.0,8295.0,2167.0,8201.0,11299.0,2096.0,3479.0,1025.0,24.0,43.0,-39.0,14378.0,5672.0,3473.0,4178.0,2366.0,172.0,467.0,1.0
2022-05-06 15:07:49.099486-07:00,2063.5,620.5,1372.1,1519.0,1595.5,1339.5,1493.0,2118.9,3439.5,3432.2,2285.9,1676.7,1596.4,3434.6,1611.5,1888.9,3429.8,3433.4,653.0,1202.7,867.9,524.2,1530.1,2083.6,3439.5,3443.1,966.2,1113.0,1712.9,1937.1,1762.7,1430.5,86.0,-132.0,-228.0,7070.0,1890.0,9576.0,11099.0,2956.0,3125.0,1094.0,59.0,-36.0,38.0,13832.0,6767.0,3852.0,4057.0,3455.0,374.0,198.0,1.0
2022-05-06 15:07:49.130145-07:00,2104.8,606.8,1372.1,1519.0,1551.5,1319.6,1493.0,2118.9,3438.2,3440.7,2285.9,1676.7,1603.0,3443.1,1611.5,1888.9,3429.8,3433.4,654.6,1193.8,867.9,524.2,1541.3,2082.6,3439.5,3443.1,949.2,1107.8,1712.9,1937.1,1733.0,1416.7,20.0,-174.0,-198.0,5899.0,2165.0,10800.0,10597.0,3319.0,1718.0,1506.0,83.0,-164.0,46.0,13032.0,8097.0,4353.0,3755.0,4031.0,407.0,88.0,1.0
2022-05-06 15:07:49.219794-07:00,2104.8,606.8,1362.1,1511.5,1551.5,1319.6,1486.6,2106.8,3438.2,3440.7,2437.7,1710.0,1603.0,3443.1,1729.1,1928.2,3431.0,3433.4,654.6,1193.8,872.1,529.0,1541.3,2082.6,3437.0,3439.5,949.2,1107.8,1698.6,1917.4,1733.0,1416.7,44.0,66.0,-194.0,5049.0,2862.0,11778.0,9800.0,3276.0,567.0,1256.0,8.0,22.0,1.0,12101.0,9316.0,4858.0,3407.0,3351.0,418.0,42.0,1.0
2022-05-06 15:07:49.249568-07:00,2064.5,604.4,1355.8,1511.5,1531.0,1346.7,1486.6,2106.8,3435.8,3437.0,2460.0,1710.0,1630.3,3438.2,1729.1,1928.2,3431.0,3433.4,653.8,1194.7,872.1,536.2,1530.1,2155.5,3437.0,3439.5,933.0,1154.2,1698.6,1869.3,1664.4,1406.7,20.0,138.0,-127.0,4577.0,3520.0,12382.0,9043.0,2182.0,-217.0,798.0,-2.0,91.0,-13.0,11393.0,10088.0,5183.0,3162.0,2154.0,311.0,15.0,1.0
2022-05-06 15:07:49.279641-07:00,2064.5,604.4,1355.8,1514.3,1531.0,1314.2,1487.5,2084.6,3435.8,3437.0,2460.0,1677.6,1630.3,3443.1,1562.7,1842.0,3437.0,3432.2,650.5,1194.7,864.6,536.2,1530.1,2155.5,3444.3,3440.7,922.8,1154.2,1706.2,1869.3,1664.4,1406.7,-16.0,7.0,-33.0,4338.0,3941.0,12692.0,8544.0,1605.0,-217.0,516.0,21.0,5.0,13.0,10951.0,10514.0,5365.0,3030.0,1298.0,231.0,37.0,1.0
2022-05-06 15:07:49.339679-07:00,2105.8,606.8,1342.2,1514.3,1510.6,1314.2,1487.5,2084.6,3441.9,3435.8,2129.0,1677.6,1636.0,3443.1,1562.7,1842.0,3437.0,3432.2,650.5,1189.4,864.6,530.6,1540.3,2197.3,3444.3,3440.7,922.8,1129.6,1706.2,1780.1,1551.5,1394.8,34.0,44.0,-46.0,4148.0,4307.0,12915.0,8118.0,1189.0,-144.0,422.0,12.0,22.0,-5.0,10602.0,10828.0,5490.0,2940.0,1031.0,165.0,69.0,1.0
2022-05-06 15:07:49.399441-07:00,2105.8,606.8,1342.2,1505.1,1510.6,1291.8,1454.3,2021.4,3441.9,3435.8,2129.0,1641.6,1636.0,3443.1,1379.4,1783.9,3437.0,3433.4,649.7,1189.4,867.9,530.6,1540.3,2197.3,3428.6,3439.5,884.8,1129.6,1673.8,1780.1,1551.5,1394.8,-12.0,1.0,-44.0,4022.0,4496.0,13086.0,7798.0,904.0,-82.0,70.0,15.0,18.0,25.0,10375.0,11024.0,5565.0,2881.0,533.0,101.0,23.0,1.0
2022-05-06 15:07:49.429707-07:00,2172.8,616.5,1299.0,1505.1,1500.4,1291.8,1454.3,2021.4,3434.6,3443.1,1951.9,1641.6,1638.8,3443.1,1379.4,1783.9,3437.0,3433.4,649.7,1206.2,867.9,530.6,1514.3,2145.3,3428.6,3439.5,884.8,1134.9,1673.8,1737.8,1481.9,1382.1,22.0,53.0,-37.0,4033.0,4587.0,13183.0,7573.0,209.0,-159.0,-96.0,25.0,9.0,26.0,10257.0,11117.0,5615.0,2852.0,119.0,50.0,-30.0,1.0
2022-05-06 15:07:49.489652-07:00,2172.8,616.5,1299.0,1484.7,1500.4,1275.6,1440.5,1951.9,3434.6,3443.1,1951.9,1620.9,1638.8,3437.0,1277.4,1725.3,3435.8,3438.2,661.1,1206.2,872.1,530.6,1514.3,2145.3,3445.5,3444.3,873.8,1134.9,1652.0,1737.8,1481.9,1382.1,44.0,-29.0,-33.0,4137.0,4602.0,13183.0,7507.0,129.0,-232.0,-125.0,19.0,-17.0,1.0,10272.0,11094.0,5625.0,2865.0,-53.0,22.0,-15.0,1.0
2022-05-06 15:07:49.549582-07:00,2161.6,618.9,1293.6,1477.3,1470.9,1275.6,1440.5,1951.9,3439.5,3438.2,1899.7,1601.1,1622.8,3437.0,1277.4,1725.3,3435.8,3438.2,661.1,1196.5,864.6,532.2,1481.0,2123.0,3445.5,3444.3,873.8,1113.9,1631.3,1711.0,1453.4,1375.7,-3.0,12.0,-17.0,4192.0,4602.0,13208.0,7432.0,-12.0,-148.0,-93.0,24.0,24.0,56.0,10263.0,11098.0,5637.0,2859.0,-10.0,17.0,-23.0,1.0
2022-05-06 15:07:49.579661-07:00,2161.6,618.9,1293.6,1477.3,1463.5,1265.8,1441.5,1919.3,3439.5,3438.2,1899.7,1601.1,1616.2,3444.3,1229.3,1703.3,3438.2,3441.9,648.9,1203.5,864.6,532.2,1481.0,2123.0,3445.5,3443.1,872.1,1092.9,1631.3,1711.0,1453.4,1375.7,14.0,-57.0,-3.0,4256.0,4596.0,13178.0,7453.0,-47.0,-55.0,2.0,12.0,-25.0,17.0,10302.0,11061.0,5630.0,2873.0,-97.0,-6.0,-2.0,1.0
2022-05-06 15:07:49.639566-07:00,2153.4,613.3,1271.2,1478.3,1463.5,1265.8,1441.5,1919.3,3440.7,3440.7,1885.0,1581.4,1616.2,3444.3,1229.3,1703.3,3438.2,3441.9,648.9,1203.5,860.4,528.2,1463.5,2094.7,3445.5,3443.1,872.1,1092.9,1621.8,1697.6,1430.5,1363.9,-4.0,17.0,-26.0,4242.0,4602.0,13186.0,7442.0,-48.0,14.0,11.0,27.0,29.0,53.0,10299.0,11065.0,5626.0,2879.0,-27.0,17.0,12.0,1.0
2022-05-06 15:07:49.729525-07:00,2153.4,613.3,1271.2,1478.3,1447.0,1253.3,1430.5,1913.4,3440.7,3440.7,1885.0,1581.4,1602.1,3431.0,1206.2,1701.4,3434.6,3439.5,650.5,1195.6,860.4,528.2,1463.5,2094.7,3440.7,3441.9,858.7,1083.4,1621.8,1697.6,1430.5,1363.9,34.0,-34.0,-18.0,4263.0,4597.0,13163.0,7473.0,-11.0,45.0,-8.0,16.0,-4.0,7.0,10327.0,11039.0,5617.0,2894.0,-33.0,-13.0,-15.0,1.0
2022-05-06 15:07:49.731459-07:00,2147.3,616.5,1264.9,1470.9,1447.0,1253.3,1430.5,1913.4,3444.3,3432.2,1862.5,1584.2,1602.1,3431.0,1206.2,1701.4,3434.6,3439.5,650.5,1195.6,854.5,525.0,1440.5,2079.5,3440.7,3441.9,858.7,1083.4,1609.6,1691.0,1425.0,1371.2,2.0,27.0,-15.0,4218.0,4583.0,13199.0,7444.0,76.0,105.0,-50.0,21.0,29.0,43.0,10294.0,11068.0,5626.0,2884.0,114.0,25.0,-9.0,1.0
2022-05-06 15:07:49.789698-07:00,2129.0,616.5,1264.9,1470.9,1435.0,1251.5,1425.0,1900.7,3444.3,3432.2,1862.5,1584.2,1601.1,3435.8,1196.5,1680.5,3435.8,3437.0,648.1,1196.5,854.5,525.0,1440.5,2073.5,3440.7,3440.7,848.6,1071.2,1609.6,1691.0,1425.0,1359.4,10.0,-41.0,-28.0,4216.0,4560.0,13207.0,7446.0,49.0,-17.0,1.0,20.0,-8.0,31.0,10296.0,11058.0,5640.0,2888.0,11.0,35.0,-25.0,1.0
2022-05-06 15:07:49.849903-07:00,2129.0,610.0,1256.0,1470.9,1435.0,1251.5,1425.0,1894.8,3444.3,3426.2,1842.0,1582.4,1601.1,3435.8,1196.5,1674.8,3432.2,3437.0,648.1,1196.5,859.5,531.4,1431.4,2073.5,3447.9,3440.7,848.6,1071.2,1600.2,1696.7,1406.7,1359.4,15.0,1.0,-24.0,4186.0,4579.0,13235.0,7401.0,144.0,62.0,0.0,17.0,12.0,21.0,10253.0,11090.0,5659.0,2881.0,165.0,40.0,-13.0,1.0
2022-05-06 15:07:49.879641-07:00,2112.8,610.0,1256.0,1470.9,1419.5,1264.9,1428.6,1894.8,3437.0,3426.2,1842.0,1582.4,1586.1,3439.5,1187.6,1674.8,3432.2,3438.2,650.5,1192.9,859.5,531.4,1431.4,2059.4,3447.9,3447.9,842.8,1077.3,1600.2,1696.7,1406.7,1351.2,8.0,-30.0,-41.0,4183.0,4560.0,13238.0,7409.0,-128.0,-6.0,-33.0,14.0,0.0,28.0,10260.0,11078.0,5667.0,2887.0,-130.0,2.0,-23.0,1.0
2022-05-06 15:07:49.939654-07:00,2112.8,612.5,1256.9,1452.5,1419.5,1264.9,1428.6,1880.1,3437.0,3438.2,1839.1,1561.8,1586.1,3439.5,1187.6,1660.6,3439.5,3438.2,650.5,1192.9,860.4,528.2,1423.1,2059.4,3433.4,3447.9,842.8,1077.3,1597.4,1677.6,1407.6,1351.2,23.0,-1.0,-34.0,4179.0,4570.0,13245.0,7394.0,187.0,9.0,18.0,23.0,10.0,8.0,10245.0,11091.0,5674.0,2877.0,160.0,7.0,1.0,1.0
2022-05-06 15:07:49.999500-07:00,2123.0,612.5,1256.9,1452.5,1404.0,1241.7,1418.6,1880.1,3443.1,3438.2,1839.1,1561.8,1582.4,3444.3,1190.3,1660.6,3439.5,3435.8,651.4,1189.4,860.4,528.2,1423.1,2059.4,3433.4,3443.1,841.9,1063.4,1597.4,1677.6,1407.6,1345.8,8.0,-14.0,-37.0,4184.0,4578.0,13250.0,7377.0,-86.0,-101.0,-16.0,20.0,-3.0,36.0,10240.0,11096.0,5676.0,2868.0,-40.0,-18.0,-30.0,1.0
2022-05-06 15:07:50.029662-07:00,2123.0,601.2,1245.3,1466.3,1404.0,1241.7,1415.8,1857.6,3443.1,3440.7,1820.7,1568.3,1582.4,3444.3,1177.0,1659.6,3441.9,3439.5,651.4,1189.4,862.1,526.6,1419.5,2059.4,3444.3,3441.9,841.9,1063.4,1595.5,1653.0,1403.0,1345.8,16.0,-23.0,-16.0,4211.0,4587.0,13237.0,7379.0,79.0,-7.0,25.0,21.0,2.0,31.0,10247.0,11092.0,5673.0,2868.0,68.0,-3.0,-7.0,1.0
2022-05-06 15:07:50.089627-07:00,2117.9,607.6,1245.3,1466.3,1397.6,1239.9,1415.8,1857.6,3444.3,3441.9,1820.7,1568.3,1578.6,3435.8,1177.0,1659.6,3441.9,3439.5,644.9,1196.5,862.1,526.6,1411.3,2046.4,3444.3,3441.9,828.5,1064.3,1595.5,1653.0,1396.7,1342.2,9.0,-10.0,-23.0,4210.0,4598.0,13235.0,7376.0,-85.0,-28.0,0.0,15.0,4.0,27.0,10258.0,11084.0,5663.0,2878.0,-68.0,-3.0,-14.0,1.0
2022-05-06 15:07:50.149464-07:00,2117.9,607.6,1248.8,1458.9,1397.6,1239.9,1402.1,1858.6,3444.3,3441.9,1816.8,1563.7,1578.6,3435.8,1163.8,1649.2,3428.6,3441.9,644.9,1196.5,862.9,521.0,1411.3,2046.4,3429.8,3447.9,828.5,1064.3,1596.4,1661.5,1396.7,1342.2,15.0,-17.0,-24.0,4216.0,4606.0,13229.0,7377.0,12.0,-18.0,7.0,21.0,-3.0,19.0,10266.0,11077.0,5657.0,2885.0,13.0,0.0,-2.0,1.0
2022-05-06 15:07:50.179738-07:00,2100.7,601.2,1248.8,1458.9,1402.1,1245.3,1402.1,1858.6,3439.5,3434.6,1816.8,1563.7,1576.8,3445.5,1163.8,1649.2,3428.6,3441.9,652.2,1189.4,862.9,521.0,1404.0,2038.4,3429.8,3447.9,834.4,1059.1,1596.4,1661.5,1389.4,1335.0,21.0,-4.0,-20.0,4220.0,4616.0,13226.0,7375.0,-100.0,-16.0,-8.0,19.0,8.0,21.0,10280.0,11067.0,5648.0,2895.0,-81.0,-10.0,-7.0,1.0
2022-05-06 15:07:50.239799-07:00,2100.7,601.2,1248.0,1458.9,1402.1,1245.3,1405.8,1856.7,3439.5,3434.6,1833.3,1558.1,1576.8,3445.5,1163.0,1642.6,3424.9,3439.5,652.2,1189.4,858.7,521.0,1404.0,2038.4,3439.5,3438.2,834.4,1059.1,1582.4,1665.3,1389.4,1335.0,7.0,-23.0,-25.0,4227.0,4605.0,13216.0,7396.0,31.0,3.0,-1.0,8.0,-1.0,27.0,10303.0,11048.0,5638.0,2907.0,8.0,-3.0,-8.0,1.0
2022-05-06 15:07:50.269984-07:00,2096.7,594.7,1248.0,1458.9,1392.1,1238.2,1405.8,1856.7,3441.9,3443.1,1833.3,1558.1,1573.0,3449.1,1163.0,1642.6,3424.9,3439.5,650.5,1186.7,858.7,521.0,1403.0,2037.4,3439.5,3438.2,828.5,1056.5,1582.4,1665.3,1387.5,1337.7,8.0,5.0,-18.0,4211.0,4609.0,13229.0,7378.0,-35.0,27.0,1.0,14.0,13.0,22.0,10298.0,11053.0,5635.0,2910.0,-6.0,7.0,-1.0,1.0
2022-05-06 15:07:50.329655-07:00,2096.7,594.7,1242.6,1447.0,1392.1,1231.0,1404.0,1849.8,3441.9,3443.1,1809.0,1554.3,1573.0,3439.5,1156.8,1641.6,3435.8,3434.6,647.3,1186.7,860.4,524.2,1403.0,2037.4,3439.5,3434.6,821.9,1056.5,1582.4,1653.0,1387.5,1337.7,13.0,-18.0,-27.0,4205.0,4605.0,13227.0,7388.0,-7.0,2.0,-7.0,14.0,4.0,17.0,10311.0,11042.0,5628.0,2921.0,-16.0,11.0,-9.0,1.0
2022-05-06 15:07:50.390459-07:00,2095.7,602.0,1242.6,1447.0,1389.4,1231.0,1404.0,1849.8,3440.7,3439.5,1803.2,1554.3,1573.9,3439.5,1156.8,1641.6,3435.8,3434.6,647.3,1187.6,860.4,521.0,1406.7,2036.4,3439.5,3434.6,821.9,1060.8,1582.4,1651.1,1390.3,1330.5,9.0,-10.0,-25.0,4202.0,4611.0,13232.0,7377.0,-43.0,-16.0,-11.0,14.0,5.0,17.0,10313.0,11039.0,5627.0,2924.0,-25.0,1.0,-10.0,1.0
2022-05-06 15:07:50.419879-07:00,2095.7,602.0,1242.6,1458.0,1389.4,1231.0,1403.0,1849.8,3440.7,3439.5,1803.2,1557.1,1573.9,3441.9,1144.5,1640.7,3434.6,3439.5,648.1,1187.6,859.5,521.0,1406.7,2036.4,3439.5,3438.2,821.9,1060.8,1577.7,1651.1,1390.3,1330.5,13.0,-20.0,-21.0,4206.0,4607.0,13227.0,7387.0,-29.0,9.0,-7.0,19.0,-3.0,22.0,10327.0,11028.0,5620.0,2933.0,-7.0,-4.0,-2.0,1.0
2022-05-06 15:07:50.479701-07:00,2096.7,607.6,1240.8,1458.0,1383.0,1231.0,1403.0,1849.8,3439.5,3428.6,1797.4,1557.1,1569.3,3441.9,1144.5,1640.7,3434.6,3439.5,648.1,1190.3,859.5,529.8,1393.0,2019.4,3439.5,3438.2,821.9,1056.5,1577.7,1652.0,1382.1,1335.0,8.0,2.0,-18.0,4200.0,4611.0,13232.0,7379.0,-1.0,-8.0,0.0,10.0,14.0,17.0,10328.0,11027.0,5615.0,2938.0,-19.0,7.0,-8.0,1.0
2022-05-06 15:07:50.539803-07:00,2096.7,607.6,1240.8,1458.0,1383.0,1239.1,1402.1,1839.1,3439.5,3428.6,1797.4,1547.8,1569.3,3433.4,1151.5,1630.3,3426.2,3433.4,650.5,1190.3,857.9,529.8,1393.0,2019.4,3434.6,3434.6,824.4,1056.5,1574.9,1652.0,1382.1,1335.0,7.0,-16.0,-20.0,4200.0,4609.0,13232.0,7380.0,18.0,-10.0,10.0,7.0,7.0,15.0,10335.0,11022.0,5613.0,2940.0,21.0,2.0,-4.0,1.0
2022-05-06 15:07:50.569995-07:00,2090.6,599.6,1237.3,1454.3,1371.2,1239.1,1402.1,1839.1,3440.7,3438.2,1786.8,1554.3,1574.9,3433.4,1151.5,1630.3,3426.2,3433.4,650.5,1192.0,857.9,525.8,1392.1,2017.4,3434.6,3434.6,824.4,1053.0,1567.4,1646.4,1392.1,1332.3,6.0,1.0,-22.0,4191.0,4622.0,13240.0,7362.0,23.0,-15.0,12.0,16.0,10.0,21.0,10330.0,11027.0,5611.0,2941.0,6.0,-1.0,-8.0,1.0
2022-05-06 15:07:50.659531-07:00,2090.6,599.6,1237.3,1454.3,1363.9,1241.7,1406.7,1836.2,3440.7,3438.2,1786.8,1554.3,1563.7,3439.5,1148.0,1631.3,3428.6,3437.0,649.7,1188.5,857.9,525.8,1392.1,2017.4,3428.6,3444.3,817.7,1053.9,1567.4,1646.4,1392.1,1332.3,15.0,-19.0,-16.0,4200.0,4631.0,13231.0,7368.0,-32.0,-42.0,18.0,10.0,1.0,5.0,10339.0,11019.0,5607.0,2947.0,-18.0,-2.0,1.0,1.0
2022-05-06 15:07:50.689649-07:00,2085.6,597.1,1240.8,1452.5,1363.9,1241.7,1406.7,1836.2,3433.4,3431.0,1783.9,1544.1,1563.7,3439.5,1148.0,1631.3,3428.6,3437.0,649.7,1188.5,856.2,522.6,1397.6,2018.4,3428.6,3444.3,817.7,1053.9,1569.3,1637.9,1377.5,1330.5,-1.0,14.0,-22.0,4203.0,4633.0,13228.0,7371.0,-61.0,-5.0,-12.0,8.0,18.0,27.0,10354.0,11007.0,5599.0,2954.0,-96.0,-15.0,-8.0,1.0
2022-05-06 15:07:50.719846-07:00,2085.6,597.1,1240.8,1452.5,1372.1,1230.2,1413.1,1841.1,3433.4,3431.0,1783.9,1544.1,1564.6,3431.0,1143.6,1635.0,3431.0,3424.9,643.2,1181.5,856.2,522.6,1397.6,2018.4,3429.8,3428.6,818.5,1051.3,1569.3,1637.9,1377.5,1330.5,9.0,-29.0,-14.0,4243.0,4616.0,13199.0,7410.0,-139.0,-64.0,-31.0,11.0,-2.0,14.0,10402.0,10965.0,5585.0,2969.0,-108.0,-12.0,-15.0,1.0
2022-05-06 15:07:50.779701-07:00,2079.5,601.2,1223.9,1448.8,1372.1,1230.2,1413.1,1841.1,3428.6,3433.4,1779.1,1550.6,1564.6,3431.0,1143.6,1635.0,3431.0,3424.9,643.2,1181.5,857.9,525.0,1389.4,2009.4,3429.8,3428.6,818.5,1051.3,1574.9,1638.8,1367.6,1328.7,6.0,33.0,-21.0,4271.0,4629.0,13171.0,7436.0,-133.0,-76.0,47.0,13.0,29.0,16.0,10442.0,10930.0,5571.0,2981.0,-227.0,-28.0,-16.0,1.0
2022-05-06 15:07:50.840492-07:00,2079.5,601.2,1223.9,1448.8,1361.2,1239.1,1400.3,1840.1,3428.6,3433.4,1779.1,1550.6,1561.8,3427.4,1149.8,1626.5,3439.5,3438.2,648.1,1186.7,857.9,525.0,1389.4,2009.4,3435.8,3434.6,811.9,1079.0,1574.9,1638.8,1367.6,1328.7,-72.0,224.0,-63.0,4396.0,4564.0,13011.0,7681.0,-1450.0,-94.0,-41.0,11.0,147.0,30.0,10693.0,10700.0,5510.0,3042.0,-1324.0,-174.0,-179.0,1.0
2022-05-06 15:07:50.870002-07:00,2087.6,593.1,1269.4,1459.8,1361.2,1239.1,1400.3,1980.6,3434.6,3431.0,1842.0,1556.2,1561.8,3427.4,1149.8,1667.2,3434.6,3438.2,648.1,1186.7,857.0,525.0,1452.5,2018.4,3446.7,3434.6,811.9,1079.0,1565.5,1691.9,1456.2,1321.4,-1.0,76.0,-148.0,4970.0,4299.0,12364.0,8508.0,-3345.0,-927.0,-412.0,1.0,35.0,-15.0,11384.0,10015.0,5287.0,3254.0,-2902.0,-305.0,-185.0,1.0
2022-05-06 15:07:50.929676-07:00,2103.7,593.1,1269.4,1459.8,1364.8,1317.8,1493.0,1980.6,3439.5,3431.0,1842.0,1556.2,1572.1,3444.3,1473.6,1667.2,3434.6,3439.5,645.7,1181.5,857.0,525.0,1452.5,2107.8,3446.7,3435.8,887.3,1171.8,1565.5,1691.9,1456.2,1321.4,-24.0,113.0,-238.0,5929.0,3804.0,11456.0,9359.0,-3656.0,-1430.0,-1162.0,-22.0,97.0,-61.0,12338.0,8923.0,4920.0,3518.0,-3825.0,-500.0,-426.0,1.0
2022-05-06 15:07:50.989737-07:00,2103.7,597.1,1513.4,1519.9,1364.8,1317.8,1493.0,2065.5,3439.5,3434.6,2561.6,1607.7,1572.1,3444.3,1473.6,1946.9,3443.1,3439.5,645.7,1181.5,852.8,523.4,1551.5,2107.8,3441.9,3435.8,887.3,1171.8,1575.8,1845.0,1725.3,1321.4,111.0,21.0,-260.0,7169.0,3197.0,10292.0,10044.0,-3815.0,-1723.0,-1527.0,41.0,83.0,-71.0,13305.0,7593.0,4504.0,3669.0,-3883.0,-615.0,-670.0,1.0
2022-05-06 15:07:51.019814-07:00,2050.4,597.1,1513.4,1519.9,1354.0,1404.0,1543.1,2065.5,3427.4,3434.6,2561.6,1607.7,1709.1,3441.9,1726.3,1946.9,3443.1,3443.1,652.2,1187.6,852.8,523.4,1551.5,2119.9,3441.9,3439.5,969.6,1134.0,1575.8,1845.0,1725.3,1329.6,57.0,-338.0,-167.0,8283.0,2707.0,8974.0,10582.0,-3158.0,-2329.0,-867.0,28.0,-138.0,-76.0,14083.0,6303.0,4049.0,3737.0,-2979.0,-589.0,-572.0,1.0
2022-05-06 15:07:51.079658-07:00,2050.4,587.5,1603.0,1543.1,1354.0,1404.0,1543.1,2039.4,3427.4,3438.2,2544.4,1643.5,1709.1,3441.9,1726.3,1998.5,3434.6,3443.1,652.2,1187.6,865.4,523.4,1542.2,2119.9,3441.9,3439.5,969.6,1134.0,1579.6,1911.5,1824.6,1329.6,66.0,1.0,-132.0,9046.0,2818.0,7859.0,10812.0,-1717.0,-2307.0,11.0,-1.0,43.0,-90.0,14445.0,5652.0,3760.0,3701.0,-2011.0,-644.0,-410.0,1.0
2022-05-06 15:07:51.139711-07:00,2030.4,591.5,1603.0,1543.1,1361.2,1368.5,1511.5,2039.4,3439.5,3441.9,2544.4,1643.5,1707.2,3438.2,1646.4,1998.5,3434.6,3435.8,646.5,1203.5,865.4,523.4,1548.7,2119.9,3441.9,3439.5,950.0,1123.5,1579.6,1911.5,1770.4,1325.0,-48.0,-90.0,-99.0,9649.0,2792.0,6675.0,11089.0,-2687.0,-1975.0,-147.0,-13.0,24.0,6.0,14966.0,4565.0,3218.0,3641.0,-2464.0,-746.0,-497.0,1.0
2022-05-06 15:07:51.229764-07:00,2030.4,591.5,1573.9,1537.6,1361.2,1368.5,1493.0,2015.4,3439.5,3441.9,2487.6,1664.4,1707.2,3438.2,1612.4,1972.7,3434.6,3441.9,646.5,1203.5,872.1,517.1,1548.7,2119.9,3438.2,3438.2,950.0,1123.5,1571.1,1894.8,1770.4,1325.0,71.0,8.0,201.0,10083.0,2802.0,5561.0,11313.0,-2139.0,-1333.0,-31.0,48.0,6.0,-77.0,15223.0,3980.0,2884.0,3541.0,-1811.0,-626.0,-492.0,1.0
2022-05-06 15:07:51.232380-07:00,2027.4,587.5,1573.9,1537.6,1345.8,1347.6,1493.0,2015.4,3437.0,3441.9,2487.6,1664.4,1715.8,3435.8,1612.4,1972.7,3434.6,3441.9,650.5,1197.4,872.1,517.1,1567.4,2094.7,3438.2,3438.2,960.2,1139.2,1571.1,1894.8,1744.5,1322.3,19.0,-127.0,66.0,10318.0,2486.0,4698.0,11564.0,-1890.0,-770.0,221.0,86.0,-177.0,47.0,15527.0,3075.0,2436.0,3460.0,-1687.0,-417.0,-280.0,1.0
2022-05-06 15:07:51.289762-07:00,2027.4,587.5,1547.8,1526.4,1345.8,1347.6,1471.8,2002.5,3437.0,3441.9,2458.9,1665.3,1715.8,3435.8,1586.1,1956.8,3428.6,3438.2,650.5,1197.4,870.5,515.5,1567.4,2094.7,3440.7,3438.2,960.2,1139.2,1562.7,1867.4,1744.5,1322.3,58.0,-53.0,44.0,10402.0,2372.0,4142.0,11724.0,-846.0,-406.0,230.0,48.0,-45.0,-22.0,15623.0,2754.0,2274.0,3407.0,-778.0,-278.0,-198.0,1.0
2022-05-06 15:07:51.349550-07:00,2026.4,583.5,1547.8,1526.4,1349.4,1318.7,1471.8,2002.5,3429.8,3438.2,2458.9,1665.3,1695.7,3439.5,1586.1,1956.8,3428.6,3438.2,649.7,1194.7,870.5,515.5,1567.4,2081.6,3440.7,3438.2,965.4,1125.2,1562.7,1867.4,1735.8,1306.1,-20.0,-21.0,-43.0,10429.0,2182.0,3753.0,11867.0,-991.0,-177.0,169.0,5.0,-64.0,9.0,15713.0,2408.0,2081.0,3375.0,-743.0,-315.0,-148.0,1.0
2022-05-06 15:07:51.379688-07:00,2026.4,583.5,1503.2,1503.2,1349.4,1319.6,1453.4,1975.6,3429.8,3438.2,2424.0,1661.5,1695.7,3451.6,1573.0,1948.9,3434.6,3445.5,649.7,1194.7,872.1,518.7,1567.4,2081.6,3435.8,3438.2,956.8,1125.2,1559.9,1856.7,1735.8,1306.1,27.0,109.0,17.0,10468.0,2083.0,3499.0,11928.0,-524.0,-128.0,-57.0,49.0,86.0,11.0,15772.0,2205.0,1946.0,3320.0,-561.0,-153.0,-169.0,1.0
2022-05-06 15:07:51.469997-07:00,2023.4,583.5,1466.3,1503.2,1335.9,1319.6,1453.4,1975.6,3440.7,3435.8,2409.2,1661.5,1675.7,3451.6,1573.0,1948.9,3434.6,3445.5,649.7,1177.0,872.1,516.3,1577.7,2112.8,3435.8,3438.2,956.8,1143.6,1559.9,1848.9,1712.9,1309.7,8.0,-26.0,6.0,10522.0,1968.0,3242.0,11972.0,-517.0,-362.0,-2.0,66.0,-29.0,27.0,15835.0,1901.0,1832.0,3276.0,-521.0,-66.0,-131.0,1.0
2022-05-06 15:07:51.471153-07:00,2023.4,583.5,1466.3,1507.8,1335.9,1340.4,1441.5,1961.8,3440.7,3435.8,2409.2,1670.1,1675.7,3439.5,1550.6,1935.1,3428.6,3428.6,644.9,1177.0,881.4,516.3,1577.7,2112.8,3444.3,3437.0,943.2,1143.6,1593.6,1848.9,1712.9,1309.7,9.0,40.0,-45.0,10531.0,1993.0,3021.0,12018.0,-384.0,-480.0,235.0,38.0,57.0,6.0,15862.0,1753.0,1791.0,3250.0,-634.0,-91.0,-115.0,1.0
2022-05-06 15:07:51.529628-07:00,2042.4,587.5,1414.0,1507.8,1396.7,1340.4,1441.5,1961.8,3433.4,3429.8,2386.0,1670.1,1677.6,3439.5,1550.6,1935.1,3428.6,3428.6,644.9,1183.2,881.4,515.5,1573.9,2088.6,3444.3,3437.0,943.2,1139.2,1593.6,1874.2,1721.5,1316.9,-20.0,28.0,-50.0,10482.0,2033.0,2680.0,12135.0,-589.0,-603.0,392.0,5.0,-18.0,11.0,15905.0,1455.0,1699.0,3234.0,-688.0,-42.0,-164.0,1.0
2022-05-06 15:07:51.620028-07:00,2042.4,587.5,1414.0,1470.0,1396.7,1375.7,1445.1,1930.2,3433.4,3429.8,2386.0,1658.7,1677.6,3441.9,1545.0,1920.3,3435.8,3433.4,649.7,1183.2,885.6,515.5,1573.9,2088.6,3438.2,3438.2,927.1,1139.2,1620.9,1874.2,1721.5,1316.9,-27.0,69.0,11.0,10388.0,2133.0,2267.0,12282.0,-592.0,-696.0,605.0,-5.0,-33.0,-5.0,15946.0,1136.0,1607.0,3209.0,-680.0,-36.0,-129.0,1.0
2022-05-06 15:07:51.621325-07:00,2042.4,590.7,1363.9,1470.0,1391.2,1375.7,1445.1,1930.2,3432.2,3444.3,2360.9,1658.7,1661.5,3441.9,1545.0,1920.3,3435.8,3433.4,649.7,1180.6,885.6,516.3,1577.7,2081.6,3438.2,3438.2,927.1,1141.0,1620.9,1904.6,1744.5,1319.6,19.0,-77.0,-8.0,10301.0,2237.0,1962.0,12389.0,-256.0,-521.0,472.0,26.0,-46.0,-27.0,15973.0,897.0,1569.0,3170.0,-419.0,21.0,-58.0,1.0
2022-05-06 15:07:51.679719-07:00,2042.4,590.7,1363.9,1458.9,1476.4,1388.5,1438.7,1919.3,3432.2,3444.3,2360.9,1652.0,1653.0,3440.7,1535.7,1911.5,3432.2,3435.8,649.7,1185.9,891.5,516.3,1577.7,2081.6,3439.5,3443.1,903.4,1133.1,1668.2,1904.6,1744.5,1319.6,3.0,-1.0,-58.0,10166.0,2394.0,1804.0,12494.0,71.0,-375.0,419.0,33.0,-27.0,-45.0,15980.0,781.0,1565.0,3166.0,-67.0,33.0,-11.0,1.0
2022-05-06 15:07:51.739465-07:00,2040.4,591.5,1350.3,1464.4,1476.4,1388.5,1438.7,1919.3,3440.7,3449.1,2337.9,1646.4,1653.0,3440.7,1535.7,1911.5,3432.2,3435.8,649.7,1185.9,906.7,516.3,1565.5,2091.6,3439.5,3443.1,903.4,1133.1,1697.6,1907.5,1732.0,1342.2,-5.0,87.0,-44.0,10076.0,2489.0,1763.0,12554.0,72.0,-76.0,132.0,47.0,-8.0,-38.0,15980.0,779.0,1569.0,3163.0,120.0,16.0,-64.0,1.0
2022-05-06 15:07:51.770336-07:00,2040.4,591.5,1350.3,1464.4,1976.6,1382.1,1425.9,1869.3,3440.7,3449.1,2337.9,1646.4,1640.7,3431.0,1521.8,1907.5,3435.8,3450.4,645.7,1187.6,906.7,516.3,1565.5,2091.6,3449.1,3437.0,902.5,1127.9,1697.6,1907.5,1732.0,1342.2,-29.0,-16.0,-77.0,10060.0,2475.0,1753.0,12571.0,-74.0,77.0,87.0,19.0,-17.0,-43.0,15985.0,811.0,1565.0,3132.0,14.0,-107.0,-38.0,1.0
2022-05-06 15:07:51.829579-07:00,2042.4,592.3,1456.2,1606.8,1976.6,1382.1,1425.9,1869.3,3441.9,3428.6,2333.7,1649.2,1640.7,3431.0,1521.8,1907.5,3435.8,3450.4,645.7,1187.6,911.8,513.1,1560.9,2078.5,3449.1,3437.0,902.5,1127.9,1726.3,1917.4,1742.6,1412.2,-35.0,-43.0,-49.0,10051.0,2387.0,1723.0,12600.0,-368.0,139.0,117.0,19.0,57.0,35.0,15995.0,813.0,1503.0,3111.0,-130.0,-175.0,-60.0,1.0
2022-05-06 15:07:51.949596-07:00,2042.4,592.3,1456.2,1606.8,1845.9,1333.2,1420.4,1833.3,3441.9,3428.6,2333.7,1649.2,1641.6,3435.8,1529.2,1912.4,3434.6,3440.7,648.9,1185.0,911.8,513.1,1560.9,2078.5,3432.2,3445.5,915.2,1120.0,1726.3,1917.4,1742.6,1412.2,50.0,99.0,12.0,10053.0,2332.0,1747.0,12605.0,44.0,154.0,-189.0,66.0,120.0,49.0,16000.0,812.0,1454.0,3109.0,-92.0,-11.0,-27.0,1.0
2022-05-06 15:07:51.980170-07:00,2043.4,595.5,1620.9,1668.2,1845.9,1333.2,1420.4,1846.9,3428.6,3426.2,2342.0,1671.0,1641.6,3435.8,1529.2,1914.4,3433.4,3440.7,648.9,1185.0,907.6,517.1,1550.6,2065.5,3443.1,3445.5,915.2,1120.0,1702.4,1921.3,1745.4,1493.0,-9.0,86.0,-66.0,10145.0,2216.0,1751.0,12552.0,-139.0,124.0,-305.0,48.0,-48.0,-49.0,16006.0,738.0,1448.0,3101.0,40.0,-2.0,-1.0,1.0
2022-05-06 15:07:51.981184-07:00,2024.4,595.5,1620.9,1668.2,1779.1,1327.8,1415.8,1846.9,3440.7,3426.2,2342.0,1671.0,1638.8,3440.7,1520.8,1914.4,3433.4,3435.8,649.7,1174.4,907.6,517.1,1550.6,2064.5,3443.1,3433.4,956.8,1099.9,1702.4,1921.3,1745.4,1458.0,-30.0,-86.0,-22.0,10249.0,2071.0,1876.0,12474.0,156.0,396.0,-262.0,-7.0,-59.0,57.0,16001.0,758.0,1467.0,3111.0,167.0,65.0,101.0,1.0
2022-05-06 15:07:52.039690-07:00,2024.4,595.5,1588.9,1664.4,1779.1,1327.8,1415.8,2054.4,3440.7,3439.5,2351.4,1671.9,1638.8,3440.7,1520.8,1916.4,3428.6,3435.8,649.7,1174.4,904.2,519.5,1542.2,2064.5,3437.0,3433.4,956.8,1099.9,1718.6,1887.9,1712.9,1458.0,-30.0,44.0,-66.0,10245.0,2099.0,2008.0,12452.0,323.0,-14.0,19.0,9.0,-4.0,24.0,15986.0,848.0,1495.0,3151.0,227.0,33.0,100.0,1.0
2022-05-06 15:07:52.070569-07:00,2013.4,595.5,1588.9,1664.4,1742.6,1303.4,1417.6,2054.4,3433.4,3439.5,2351.4,1671.9,1635.0,3444.3,1537.6,1916.4,3428.6,3428.6,644.0,1176.2,904.2,519.5,1542.2,2075.5,3437.0,3435.8,995.3,1105.1,1718.6,1887.9,1712.9,1431.4,-76.0,58.0,-45.0,10172.0,2276.0,2004.0,12481.0,282.0,-482.0,455.0,-26.0,90.0,67.0,15973.0,942.0,1519.0,3179.0,187.0,-8.0,73.0,1.0
2022-05-06 15:07:52.129187-07:00,2013.4,592.3,1604.9,1690.0,1742.6,1303.4,1417.6,2062.5,3433.4,3438.2,2358.8,1692.9,1635.0,3444.3,1537.6,1921.3,3428.6,3428.6,644.0,1176.2,902.5,515.5,1535.7,2075.5,3439.5,3435.8,995.3,1105.1,1895.8,1880.1,1708.1,1431.4,-40.0,92.0,51.0,9963.0,2584.0,1889.0,12607.0,139.0,-627.0,794.0,-41.0,111.0,74.0,15963.0,988.0,1527.0,3212.0,-222.0,3.0,16.0,1.0
2022-05-06 15:07:52.219959-07:00,2020.4,590.7,1604.9,1690.0,1750.2,1307.9,1435.0,2062.5,3435.8,3447.9,2358.8,1692.9,1627.5,3438.2,1519.9,1921.3,3428.6,3438.2,643.2,1182.3,902.5,515.5,1542.2,2072.5,3439.5,3441.9,976.5,1106.9,1895.8,1880.1,1729.1,1468.1,8.0,24.0,-48.0,9765.0,2779.0,1689.0,12748.0,-178.0,-386.0,429.0,23.0,-62.0,-118.0,15972.0,857.0,1474.0,3230.0,-229.0,-9.0,-124.0,1.0
2022-05-06 15:07:52.221797-07:00,2020.4,590.7,1594.6,1662.5,1750.2,1307.9,1417.6,1984.6,3435.8,3447.9,2328.5,1677.6,1627.5,3438.2,1505.1,1905.6,3434.6,3440.7,643.2,1182.3,927.9,521.8,1542.2,2072.5,3438.2,3443.1,976.5,1106.9,1895.8,1873.2,1729.1,1468.1,47.0,32.0,-53.0,9722.0,2732.0,1546.0,12809.0,-431.0,114.0,-33.0,108.0,-88.0,-25.0,15988.0,755.0,1438.0,3191.0,-172.0,-70.0,-107.0,1.0
2022-05-06 15:07:52.279548-07:00,2009.4,590.7,1594.6,1662.5,1691.0,1306.1,1417.6,1984.6,3431.0,3433.4,2328.5,1677.6,1626.5,3446.7,1505.1,1905.6,3434.6,3440.7,650.5,1176.2,927.9,521.8,1529.2,2063.5,3438.2,3443.1,982.5,1097.3,1895.8,1873.2,1711.0,1545.0,123.0,-141.0,-35.0,9875.0,2563.0,1513.0,12730.0,-183.0,545.0,-734.0,154.0,-55.0,-147.0,15997.0,744.0,1462.0,3138.0,107.0,66.0,-43.0,1.0
2022-05-06 15:07:52.370006-07:00,2009.4,590.7,1584.2,1675.7,1691.0,1306.1,1412.2,1951.9,3431.0,3433.4,2314.9,1673.8,1626.5,3446.7,1497.7,1899.7,3434.6,3428.6,650.5,1176.2,916.0,520.3,1529.2,2063.5,3449.1,3434.6,982.5,1097.3,1871.3,1900.7,1711.0,1545.0,16.0,-161.0,34.0,10069.0,2225.0,1834.0,12599.0,489.0,1175.0,-714.0,81.0,-88.0,184.0,15984.0,856.0,1485.0,3165.0,451.0,30.0,235.0,1.0
2022-05-06 15:07:52.371316-07:00,2025.4,589.1,1584.2,1675.7,1737.8,1282.8,1412.2,1951.9,3438.2,3439.5,2314.9,1673.8,1623.7,3439.5,1497.7,1899.7,3434.6,3428.6,648.9,1182.3,916.0,520.3,1532.0,2065.5,3449.1,3434.6,1015.1,1094.7,1871.3,1900.7,1702.4,1506.9,-24.0,23.0,10.0,10149.0,2104.0,2231.0,12491.0,236.0,416.0,-313.0,4.0,-33.0,16.0,15946.0,1022.0,1542.0,3276.0,170.0,115.0,351.0,1.0
2022-05-06 15:07:52.430078-07:00,2025.4,589.1,1546.9,1664.4,1737.8,1282.8,1462.6,2053.4,3438.2,3439.5,2330.6,1677.6,1623.7,3439.5,1506.0,1908.5,3429.8,3432.2,648.9,1182.3,903.4,520.3,1532.0,2065.5,3432.2,3445.5,1015.1,1094.7,1856.7,1897.7,1702.4,1506.9,-8.0,-68.0,-148.0,10232.0,1990.0,2530.0,12385.0,561.0,1026.0,-370.0,0.0,43.0,-70.0,15903.0,1163.0,1596.0,3410.0,587.0,12.0,356.0,1.0
2022-05-06 15:07:52.489688-07:00,2043.4,592.3,1529.2,1664.4,1692.9,1274.7,1462.6,2053.4,3428.6,3439.5,2361.9,1677.6,1622.8,3437.0,1506.0,1908.5,3429.8,3432.2,651.4,1185.9,903.4,517.9,1536.6,2100.7,3432.2,3445.5,1081.6,1103.4,1856.7,1872.3,1679.5,1453.4,-7.0,37.0,-9.0,10234.0,1765.0,2963.0,12321.0,541.0,986.0,-459.0,49.0,-42.0,9.0,15856.0,1357.0,1596.0,3553.0,473.0,-16.0,380.0,1.0
2022-05-06 15:07:52.579649-07:00,2043.4,592.3,1529.2,1676.7,1692.9,1275.6,1527.3,2112.8,3428.6,3439.5,2361.9,1712.9,1622.8,3438.2,1510.6,1931.1,3432.2,3431.0,653.0,1185.9,905.9,517.9,1536.6,2100.7,3438.2,3444.3,1126.1,1103.4,1847.9,1872.3,1679.5,1453.4,59.0,-67.0,90.0,10307.0,1647.0,3481.0,12140.0,1367.0,898.0,-581.0,74.0,-93.0,20.0,15788.0,1693.0,1680.0,3671.0,1428.0,218.0,338.0,1.0
2022-05-06 15:07:52.580933-07:00,2064.5,605.2,1525.5,1676.7,1630.3,1275.6,1527.3,2112.8,3449.1,3437.0,2342.0,1712.9,1635.0,3438.2,1510.6,1931.1,3432.2,3431.0,653.0,1181.5,905.9,517.9,1539.4,2089.6,3438.2,3444.3,1126.1,1104.3,1847.9,1877.2,1681.4,1446.0,17.0,142.0,18.0,10253.0,1781.0,4440.0,11850.0,2324.0,1304.0,-336.0,44.0,119.0,79.0,15631.0,2481.0,2021.0,3724.0,2208.0,524.0,251.0,1.0
2022-05-06 15:07:52.639647-07:00,2064.5,605.2,1525.5,1673.8,1630.3,1378.5,1533.8,2104.8,3449.1,3437.0,2342.0,1698.6,1635.0,3437.0,1503.2,1935.1,3423.7,3423.7,654.6,1181.5,896.6,517.9,1539.4,2089.6,3440.7,3437.0,1121.7,1104.3,1842.0,1877.2,1681.4,1446.0,-19.0,24.0,-34.0,10085.0,1892.0,5469.0,11543.0,2249.0,1288.0,-284.0,83.0,-12.0,104.0,15419.0,3283.0,2439.0,3737.0,2255.0,679.0,153.0,1.0
2022-05-06 15:07:52.700173-07:00,2092.6,599.6,1519.9,1673.8,1637.9,1378.5,1533.8,2104.8,3439.5,3439.5,2307.7,1698.6,1615.2,3437.0,1503.2,1935.1,3423.7,3423.7,654.6,1194.7,896.6,517.9,1532.0,2092.6,3440.7,3437.0,1121.7,1098.2,1842.0,1862.5,1702.4,1463.5,91.0,100.0,-79.0,9862.0,2169.0,6516.0,11136.0,2448.0,1166.0,-272.0,84.0,107.0,-54.0,15124.0,4182.0,2960.0,3670.0,2480.0,699.0,29.0,1.0
2022-05-06 15:07:52.729558-07:00,2092.6,599.6,1519.9,1671.9,1688.1,1535.7,1526.4,2071.5,3439.5,3439.5,2307.7,1690.0,1615.2,3440.7,1482.9,1912.4,3429.8,3432.2,656.2,1195.6,889.0,517.9,1532.0,2092.6,3434.6,3439.5,1103.4,1090.3,1801.3,1862.5,1702.4,1463.5,0.0,-14.0,-209.0,9577.0,2393.0,7457.0,10742.0,1808.0,634.0,-77.0,56.0,36.0,27.0,14800.0,5010.0,3408.0,3559.0,1710.0,465.0,-20.0,1.0
2022-05-06 15:07:52.759623-07:00,2090.6,587.5,1549.7,1668.2,1688.1,1535.7,1526.4,2071.5,3428.6,3439.5,2291.0,1687.2,1615.2,3440.7,1482.9,1912.4,3429.8,3432.2,656.2,1195.6,878.0,519.5,1526.4,2078.5,3434.6,3439.5,1103.4,1090.3,1785.8,1852.8,1708.1,1407.6,28.0,-13.0,-109.0,9422.0,2678.0,7978.0,10433.0,1053.0,216.0,-54.0,6.0,-16.0,-103.0,14577.0,5509.0,3676.0,3475.0,927.0,191.0,30.0,1.0
2022-05-06 15:07:52.819764-07:00,2090.6,587.5,1549.7,1668.2,1665.3,1529.2,1497.7,2028.4,3428.6,3439.5,2291.0,1687.2,1610.5,3428.6,1483.8,1901.6,3439.5,3437.0,648.9,1192.0,878.0,519.5,1526.4,2078.5,3447.9,3445.5,1088.6,1081.6,1785.8,1852.8,1708.1,1407.6,-29.0,-128.0,-64.0,9301.0,2829.0,8297.0,10252.0,961.0,234.0,144.0,-16.0,-65.0,-22.0,14426.0,5830.0,3796.0,3452.0,859.0,128.0,219.0,1.0
2022-05-06 15:07:52.879641-07:00,2078.5,581.8,1532.9,1656.8,1665.3,1529.2,1497.7,2028.4,3433.4,3435.8,2272.4,1678.6,1610.5,3428.6,1483.8,1901.6,3439.5,3437.0,648.9,1192.0,880.6,513.1,1514.3,2071.5,3447.9,3445.5,1088.6,1081.6,1763.7,1847.9,1711.0,1384.8,-92.0,-18.0,-3.0,9111.0,2987.0,8602.0,10125.0,634.0,603.0,195.0,-84.0,1.0,37.0,14267.0,6143.0,3870.0,3489.0,638.0,117.0,330.0,1.0
2022-05-06 15:07:52.909649-07:00,2078.5,581.8,1532.9,1656.8,1625.6,1519.9,1488.4,2027.4,3433.4,3435.8,2272.4,1678.6,1619.9,3433.4,1484.7,1893.8,3427.4,3431.0,656.2,1191.2,880.6,513.1,1514.3,2071.5,3435.8,3435.8,1092.9,1077.3,1763.7,1847.9,1711.0,1384.8,-157.0,55.0,-58.0,8871.0,3024.0,8885.0,10083.0,521.0,520.0,183.0,-143.0,39.0,22.0,14120.0,6393.0,3929.0,3570.0,564.0,180.0,269.0,1.0
2022-05-06 15:07:52.969761-07:00,2062.5,591.5,1511.5,1645.4,1625.6,1519.9,1488.4,2027.4,3438.2,3438.2,2255.9,1671.9,1619.9,3433.4,1484.7,1893.8,3427.4,3431.0,656.2,1191.2,885.6,521.0,1514.3,2065.5,3435.8,3435.8,1092.9,1077.3,1753.1,1834.3,1698.6,1361.2,5.0,20.0,-87.0,8688.0,3020.0,9103.0,10048.0,365.0,469.0,52.0,19.0,18.0,1.0,14004.0,6573.0,3995.0,3628.0,414.0,110.0,139.0,1.0
2022-05-06 15:07:53.029560-07:00,2052.4,591.5,1511.5,1645.4,1604.9,1518.0,1491.2,2011.4,3437.0,3438.2,2255.9,1671.9,1607.7,3439.5,1485.6,1893.8,3439.5,3440.7,651.4,1196.5,885.6,521.0,1514.3,2060.5,3449.1,3432.2,1063.4,1064.3,1753.1,1834.3,1698.6,1335.0,32.0,99.0,-78.0,8558.0,3057.0,9271.0,9995.0,360.0,169.0,118.0,30.0,62.0,-4.0,13915.0,6728.0,4038.0,3639.0,226.0,20.0,42.0,1.0
2022-05-06 15:07:53.059660-07:00,2052.4,581.0,1506.0,1640.7,1604.9,1518.0,1491.2,2006.4,3437.0,3435.8,2263.1,1661.5,1607.7,3439.5,1485.6,1886.9,3433.4,3440.7,651.4,1196.5,879.7,515.5,1508.8,2060.5,3435.8,3432.2,1063.4,1064.3,1733.0,1817.8,1682.4,1335.0,11.0,34.0,-38.0,8523.0,3067.0,9318.0,9977.0,-5.0,38.0,-16.0,29.0,18.0,22.0,13898.0,6764.0,4041.0,3634.0,7.0,-5.0,-18.0,1.0
2022-05-06 15:07:53.119768-07:00,2030.4,581.0,1506.0,1640.7,1595.5,1496.7,1478.3,2006.4,3434.6,3435.8,2263.1,1661.5,1616.2,3439.5,1481.0,1886.9,3433.4,3434.6,649.7,1188.5,879.7,515.5,1508.8,2046.4,3435.8,3437.0,1059.9,1077.3,1733.0,1817.8,1682.4,1328.7,35.0,3.0,-15.0,8530.0,3077.0,9331.0,9957.0,71.0,10.0,-33.0,45.0,-2.0,5.0,13893.0,6777.0,4048.0,3621.0,81.0,19.0,-17.0,1.0
2022-05-06 15:07:53.179734-07:00,2030.4,578.6,1507.8,1624.7,1595.5,1496.7,1478.3,1994.5,3434.6,3437.0,2249.7,1656.8,1616.2,3439.5,1481.0,1885.0,3432.2,3434.6,649.7,1188.5,873.8,519.5,1501.4,2046.4,3439.5,3437.0,1059.9,1077.3,1710.0,1816.8,1661.5,1328.7,29.0,22.0,-19.0,8514.0,3081.0,9369.0,9933.0,95.0,45.0,-20.0,27.0,13.0,23.0,13876.0,6807.0,4052.0,3625.0,38.0,40.0,-6.0,1.0
2022-05-06 15:07:53.209696-07:00,2041.4,578.6,1507.8,1624.7,1560.9,1484.7,1466.3,1994.5,3439.5,3437.0,2249.7,1656.8,1604.9,3439.5,1478.3,1885.0,3432.2,3440.7,654.6,1181.5,873.8,519.5,1501.4,2054.4,3439.5,3438.2,1044.4,1067.7,1710.0,1816.8,1661.5,1316.9,16.0,1.0,-17.0,8495.0,3088.0,9387.0,9931.0,2.0,35.0,1.0,15.0,-8.0,22.0,13873.0,6804.0,4058.0,3638.0,0.0,53.0,6.0,1.0
2022-05-06 15:07:53.269897-07:00,2041.4,575.4,1504.1,1625.6,1560.9,1484.7,1463.5,1986.6,3439.5,3437.0,2242.5,1658.7,1604.9,3439.5,1471.8,1880.1,3431.0,3439.5,654.6,1181.5,867.1,519.5,1500.4,2054.4,3437.0,3449.1,1044.4,1067.7,1711.0,1804.2,1657.7,1316.9,2.0,7.0,-22.0,8476.0,3077.0,9405.0,9933.0,21.0,104.0,-5.0,7.0,-5.0,10.0,13863.0,6806.0,4076.0,3649.0,43.0,52.0,17.0,1.0
2022-05-06 15:07:53.329540-07:00,2029.4,585.9,1504.1,1625.6,1569.3,1489.3,1463.5,1986.6,3431.0,3433.4,2242.5,1658.7,1604.9,3429.8,1471.8,1880.1,3431.0,3439.5,644.9,1183.2,867.1,519.5,1493.0,2050.4,3437.0,3449.1,1049.6,1063.4,1711.0,1804.2,1648.3,1309.7,13.0,-6.0,-32.0,8450.0,3060.0,9440.0,9927.0,11.0,68.0,-19.0,12.0,-6.0,0.0,13853.0,6808.0,4097.0,3658.0,10.0,52.0,-1.0,1.0
2022-05-06 15:07:53.359640-07:00,2029.4,585.9,1493.0,1627.5,1569.3,1489.3,1454.3,1982.6,3431.0,3433.4,2232.2,1656.8,1604.9,3429.8,1451.6,1869.3,3427.4,3435.8,644.9,1183.2,870.5,517.1,1493.0,2050.4,3449.1,3439.5,1049.6,1063.4,1706.2,1794.5,1648.3,1309.7,13.0,1.0,-51.0,8427.0,3055.0,9471.0,9919.0,-5.0,24.0,4.0,9.0,6.0,-7.0,13848.0,6808.0,4111.0,3665.0,-13.0,18.0,3.0,1.0
2022-05-06 15:07:53.419784-07:00,2029.4,569.0,1493.0,1627.5,1554.3,1482.9,1454.3,1982.6,3434.6,3438.2,2232.2,1656.8,1600.2,3433.4,1451.6,1869.3,3427.4,3435.8,650.5,1186.7,870.5,517.1,1492.1,2045.4,3449.1,3439.5,1040.9,1058.2,1706.2,1794.5,1643.5,1302.5,19.0,26.0,-33.0,8416.0,3062.0,9479.0,9918.0,-21.0,-28.0,10.0,13.0,10.0,-3.0,13854.0,6800.0,4103.0,3666.0,-16.0,-28.0,-1.0,1.0
2022-05-06 15:07:53.479568-07:00,2029.4,569.0,1488.4,1626.5,1554.3,1482.9,1463.5,1977.6,3434.6,3438.2,2232.2,1654.9,1600.2,3433.4,1462.6,1856.7,3433.4,3432.2,650.5,1186.7,873.0,517.1,1492.1,2045.4,3432.2,3438.2,1040.9,1058.2,1697.6,1793.6,1643.5,1302.5,20.0,8.0,-19.0,8421.0,3073.0,9471.0,9919.0,-8.0,-49.0,5.0,19.0,2.0,8.0,13862.0,6792.0,4089.0,3663.0,-2.0,-18.0,-16.0,1.0
2022-05-06 15:07:53.509882-07:00,2023.4,576.2,1488.4,1626.5,1542.2,1482.9,1463.5,1977.6,3437.0,3437.0,2232.2,1654.9,1601.1,3438.2,1462.6,1856.7,3433.4,3432.2,653.0,1189.4,873.0,517.1,1486.6,2040.4,3432.2,3438.2,1040.1,1059.9,1697.6,1793.6,1642.6,1311.5,18.0,4.0,-2.0,8429.0,3089.0,9461.0,9916.0,-12.0,-38.0,-5.0,17.0,-5.0,14.0,13868.0,6790.0,4080.0,3657.0,-19.0,-19.0,-14.0,1.0
2022-05-06 15:07:53.569885-07:00,2023.4,576.2,1489.3,1614.3,1542.2,1472.7,1447.9,1976.6,3437.0,3437.0,2218.8,1644.5,1601.1,3441.9,1455.2,1872.3,3435.8,3428.6,648.9,1189.4,873.0,516.3,1486.6,2040.4,3439.5,3438.2,1033.2,1059.9,1703.3,1793.6,1642.6,1311.5,16.0,-4.0,-5.0,8433.0,3092.0,9447.0,9925.0,-17.0,-27.0,20.0,17.0,-13.0,15.0,13879.0,6773.0,4066.0,3661.0,-28.0,-7.0,5.0,1.0
2022-05-06 15:07:53.659566-07:00,2029.4,577.8,1479.2,1614.3,1548.7,1472.7,1447.9,1976.6,3432.2,3429.8,2214.7,1644.5,1604.9,3441.9,1455.2,1872.3,3435.8,3428.6,648.9,1179.7,873.0,519.5,1493.0,2041.4,3439.5,3438.2,1033.2,1051.3,1703.3,1805.2,1634.1,1296.3,21.0,26.0,-13.0,8433.0,3095.0,9432.0,9939.0,-90.0,-4.0,6.0,16.0,15.0,-5.0,13886.0,6758.0,4057.0,3671.0,-80.0,-5.0,9.0,1.0
2022-05-06 15:07:53.690330-07:00,2029.4,577.8,1479.2,1604.0,1548.7,1481.9,1455.2,1969.7,3432.2,3429.8,2214.7,1652.0,1604.9,3440.7,1453.4,1866.4,3433.4,3439.5,653.0,1179.7,870.5,519.5,1493.0,2041.4,3433.4,3439.5,1034.0,1051.3,1690.0,1805.2,1634.1,1296.3,7.0,-21.0,-26.0,8434.0,3085.0,9417.0,9955.0,56.0,-32.0,30.0,12.0,-1.0,4.0,13896.0,6737.0,4050.0,3681.0,32.0,15.0,6.0,1.0
2022-05-06 15:07:53.719819-07:00,2039.4,570.6,1483.8,1604.0,1531.0,1481.9,1455.2,1969.7,3434.6,3435.8,2222.9,1652.0,1588.9,3440.7,1453.4,1866.4,3433.4,3439.5,653.0,1183.2,870.5,519.5,1482.9,2045.4,3433.4,3439.5,1034.0,1057.3,1690.0,1781.0,1631.3,1316.9,13.0,2.0,-32.0,8440.0,3091.0,9401.0,9964.0,-83.0,-44.0,19.0,16.0,0.0,12.0,13899.0,6731.0,4047.0,3683.0,-64.0,-10.0,-2.0,1.0
2022-05-06 15:07:53.779612-07:00,2039.4,570.6,1483.8,1613.4,1531.0,1476.4,1456.2,1980.6,3434.6,3435.8,2222.9,1653.9,1588.9,3432.2,1460.8,1863.5,3429.8,3433.4,650.5,1183.2,872.1,519.5,1482.9,2045.4,3433.4,3433.4,1029.7,1057.3,1696.7,1781.0,1631.3,1316.9,12.0,10.0,-18.0,8452.0,3119.0,9373.0,9971.0,-3.0,-80.0,23.0,5.0,10.0,3.0,13909.0,6721.0,4031.0,3683.0,-15.0,-34.0,-6.0,1.0
2022-05-06 15:07:53.839777-07:00,2020.4,572.2,1484.7,1619.9,1547.8,1476.4,1456.2,1980.6,3435.8,3434.6,2226.0,1650.2,1597.4,3432.2,1460.8,1863.5,3429.8,3433.4,650.5,1189.4,864.6,517.9,1485.6,2044.4,3433.4,3433.4,1029.7,1059.1,1689.1,1784.9,1625.6,1291.8,10.0,-6.0,1.0,8464.0,3133.0,9357.0,9971.0,27.0,-51.0,3.0,16.0,-17.0,24.0,13920.0,6708.0,4017.0,3679.0,-6.0,-8.0,-16.0,1.0
2022-05-06 15:07:53.869709-07:00,2020.4,572.2,1484.7,1619.9,1539.4,1484.7,1446.0,1968.7,3435.8,3434.6,2226.0,1650.2,1598.3,3439.5,1463.5,1865.4,3437.0,3444.3,648.9,1184.1,864.6,517.9,1485.6,2044.4,3431.0,3441.9,1022.8,1066.0,1689.1,1784.9,1625.6,1291.8,17.0,2.0,-2.0,8466.0,3144.0,9352.0,9971.0,-41.0,7.0,7.0,14.0,-3.0,13.0,13923.0,6705.0,4012.0,3680.0,-33.0,6.0,0.0,1.0
2022-05-06 15:07:53.929596-07:00,2037.4,569.0,1485.6,1607.7,1539.4,1484.7,1446.0,1968.7,3431.0,3444.3,2218.8,1642.6,1598.3,3439.5,1463.5,1865.4,3437.0,3444.3,648.9,1184.1,866.3,515.5,1502.3,2040.4,3431.0,3441.9,1022.8,1066.0,1683.3,1775.2,1619.0,1288.2,12.0,19.0,-23.0,8471.0,3133.0,9329.0,9992.0,-129.0,-24.0,8.0,11.0,20.0,5.0,13937.0,6675.0,4001.0,3690.0,-121.0,0.0,1.0,1.0
2022-05-06 15:07:53.989606-07:00,2037.4,569.0,1485.6,1607.7,1529.2,1470.9,1441.5,1967.7,3431.0,3444.3,2218.8,1642.6,1597.4,3435.8,1465.4,1863.5,3435.8,3428.6,645.7,1187.6,866.3,515.5,1502.3,2040.4,3439.5,3440.7,1012.5,1053.9,1683.3,1775.2,1619.0,1288.2,12.0,55.0,-80.0,8519.0,3092.0,9225.0,10060.0,-544.0,-184.0,-10.0,4.0,88.0,-11.0,13995.0,6568.0,3958.0,3713.0,-538.0,-93.0,-32.0,1.0
2022-05-06 15:07:54.020069-07:00,2027.4,581.8,1493.0,1616.2,1529.2,1470.9,1441.5,1967.7,3431.0,3434.6,2212.7,1647.3,1597.4,3435.8,1465.4,1863.5,3435.8,3428.6,645.7,1187.6,868.8,517.1,1490.3,2037.4,3439.5,3440.7,1012.5,1053.9,1673.8,1778.1,1625.6,1295.4,16.0,101.0,-166.0,8761.0,2860.0,8734.0,10355.0,-2168.0,-643.0,-116.0,9.0,111.0,-59.0,14264.0,6058.0,3729.0,3789.0,-2063.0,-410.0,-87.0,1.0
2022-05-06 15:07:54.079447-07:00,2020.4,581.8,1493.0,1616.2,1603.0,1455.2,1452.5,2023.4,3441.9,3434.6,2212.7,1647.3,1590.8,3439.5,1472.7,1863.5,3439.5,3432.2,648.1,1189.4,868.8,517.1,1490.3,2033.4,3438.2,3435.8,1030.6,1047.0,1673.8,1778.1,1625.6,1299.8,2.0,-62.0,-137.0,9182.0,2492.0,7789.0,10828.0,-2548.0,-1136.0,-91.0,-1.0,-31.0,-84.0,14695.0,5157.0,3271.0,3900.0,-2529.0,-650.0,-98.0,1.0
2022-05-06 15:07:54.109722-07:00,2020.4,576.2,1483.8,1624.7,1603.0,1455.2,1452.5,2014.4,3441.9,3444.3,2211.6,1646.4,1590.8,3439.5,1472.7,1876.2,3440.7,3432.2,648.1,1189.4,875.5,515.5,1487.5,2033.4,3441.9,3435.8,1030.6,1047.0,1668.2,1783.9,1616.2,1299.8,-20.0,58.0,-51.0,9572.0,2210.0,6842.0,11186.0,-2374.0,-1119.0,-147.0,2.0,53.0,44.0,15059.0,4270.0,2764.0,3972.0,-2348.0,-674.0,-80.0,1.0
2022-05-06 15:07:54.169775-07:00,2018.4,576.2,1483.8,1624.7,1669.1,1463.5,1446.0,2014.4,3443.1,3444.3,2211.6,1646.4,1591.7,3441.9,1455.2,1876.2,3440.7,3439.5,652.2,1181.5,875.5,515.5,1487.5,2049.4,3441.9,3438.2,1031.4,1050.4,1668.2,1783.9,1616.2,1335.9,-15.0,5.0,159.0,9945.0,1960.0,5971.0,11403.0,-1399.0,-819.0,-304.0,-6.0,-26.0,94.0,15361.0,3339.0,2284.0,4013.0,-2147.0,-448.0,-227.0,1.0
2022-05-06 15:07:54.229568-07:00,2018.4,576.2,1464.4,1604.9,1669.1,1463.5,1446.0,1989.5,3443.1,3439.5,2182.0,1644.5,1591.7,3441.9,1455.2,1853.7,3434.6,3439.5,652.2,1181.5,864.6,518.7,1485.6,2049.4,3441.9,3438.2,1031.4,1050.4,1692.9,1779.1,1632.2,1335.9,0.0,4.0,-72.0,10215.0,1833.0,5348.0,11495.0,-1526.0,-1059.0,-211.0,27.0,-8.0,-40.0,15527.0,2742.0,2064.0,3944.0,-1561.0,-182.0,-358.0,1.0
2022-05-06 15:07:54.289733-07:00,2015.4,576.2,1464.4,1604.9,1679.5,1475.5,1439.6,1989.5,3444.3,3439.5,2182.0,1644.5,1587.1,3437.0,1458.0,1853.7,3434.6,3433.4,646.5,1180.6,864.6,518.7,1485.6,2054.4,3441.9,3432.2,1026.3,1048.7,1692.9,1779.1,1632.2,1378.5,7.0,-113.0,-96.0,10438.0,1786.0,4669.0,11597.0,-1022.0,-1095.0,28.0,11.0,-37.0,-57.0,15674.0,2099.0,1836.0,3873.0,-1368.0,-206.0,-307.0,1.0
2022-05-06 15:07:54.319669-07:00,2015.4,582.6,1460.8,1599.3,1679.5,1475.5,1439.6,1985.6,3444.3,3437.0,2191.2,1645.4,1587.1,3437.0,1458.0,1845.9,3441.9,3433.4,646.5,1180.6,862.1,516.3,1481.9,2054.4,3438.2,3432.2,1026.3,1048.7,1691.9,1826.5,1643.5,1378.5,54.0,-88.0,72.0,10585.0,1933.0,4077.0,11664.0,-656.0,-1122.0,145.0,50.0,-82.0,27.0,15770.0,1619.0,1649.0,3794.0,-1092.0,-191.0,-302.0,1.0
2022-05-06 15:07:54.379930-07:00,2008.4,577.0,1460.8,1599.3,1695.7,1490.3,1440.5,1985.6,3437.0,3440.7,2191.2,1645.4,1585.2,3433.4,1449.7,1845.9,3441.9,3440.7,648.1,1184.1,862.1,516.3,1475.5,2051.4,3438.2,3449.1,1035.7,1058.2,1691.9,1826.5,1661.5,1378.5,50.0,-30.0,73.0,10617.0,2003.0,3798.0,11716.0,-578.0,-678.0,186.0,54.0,-76.0,30.0,15818.0,1330.0,1579.0,3737.0,-733.0,46.0,-160.0,1.0
2022-05-06 15:07:54.439588-07:00,2008.4,577.0,1453.4,1596.4,1695.7,1490.3,1445.1,2070.5,3437.0,3440.7,2202.4,1646.4,1585.2,3433.4,1450.6,1838.2,3432.2,3444.3,648.1,1184.1,869.6,518.7,1475.5,2051.4,3439.5,3444.3,1035.7,1058.2,1679.5,1885.0,1661.5,1378.5,41.0,-22.0,-77.0,10643.0,2119.0,3491.0,11769.0,-190.0,-666.0,170.0,34.0,12.0,-45.0,15841.0,1076.0,1578.0,3723.0,-462.0,133.0,-60.0,1.0
2022-05-06 15:07:54.469730-07:00,1987.5,592.3,1453.4,1596.4,1633.1,1492.1,1445.1,2070.5,3426.2,3433.4,2202.4,1646.4,1587.1,3437.0,1450.6,1838.2,3432.2,3444.3,650.5,1185.0,869.6,518.7,1474.6,2038.4,3439.5,3444.3,1046.1,1053.9,1679.5,1885.0,1626.5,1368.5,21.0,75.0,-14.0,10665.0,2276.0,3236.0,11791.0,-245.0,-514.0,19.0,1.0,55.0,-33.0,15850.0,895.0,1593.0,3723.0,-333.0,127.0,-40.0,1.0
2022-05-06 15:07:54.529570-07:00,1987.5,592.3,1446.0,1626.5,1633.1,1492.1,1443.3,2170.7,3426.2,3433.4,2230.1,1638.8,1587.1,3437.0,1465.4,1842.0,3428.6,3439.5,650.5,1185.0,871.3,520.3,1474.6,2038.4,3433.4,3438.2,1046.1,1053.9,1661.5,1869.3,1626.5,1368.5,-10.0,35.0,-46.0,10709.0,2346.0,3060.0,11785.0,-162.0,-261.0,-73.0,-8.0,41.0,-77.0,15857.0,803.0,1611.0,3706.0,-128.0,55.0,-79.0,1.0
2022-05-06 15:07:54.590126-07:00,2007.4,612.5,1446.0,1626.5,1811.9,1554.3,1443.3,2170.7,3432.2,3434.6,2230.1,1638.8,1571.1,3449.1,1465.4,1842.0,3428.6,3439.5,653.8,1177.9,871.3,520.3,1462.6,2034.4,3433.4,3438.2,1040.1,1062.5,1661.5,1869.3,1602.1,1448.8,9.0,-68.0,0.0,10749.0,2306.0,2992.0,11774.0,37.0,79.0,-85.0,14.0,-88.0,-1.0,15864.0,758.0,1613.0,3686.0,39.0,50.0,2.0,1.0
2022-05-06 15:07:54.680047-07:00,2007.4,612.5,1446.0,1608.7,1811.9,1540.3,1453.4,2125.0,3432.2,3434.6,2220.9,1635.0,1571.1,3433.4,1473.6,1844.0,3429.8,3437.0,653.0,1177.9,865.4,519.5,1462.6,2034.4,3428.6,3438.2,1019.4,1062.5,1641.6,1847.9,1602.1,1448.8,21.0,-68.0,-12.0,10754.0,2312.0,3082.0,11745.0,363.0,255.0,-135.0,19.0,-71.0,-66.0,15852.0,872.0,1667.0,3688.0,437.0,73.0,72.0,1.0
2022-05-06 15:07:54.710258-07:00,2033.4,621.4,1448.8,1608.7,1619.0,1540.3,1453.4,2125.0,3431.0,3435.8,2222.9,1635.0,1582.4,3433.4,1473.6,1844.0,3429.8,3437.0,653.0,1181.5,865.4,514.7,1474.6,2034.4,3428.6,3438.2,1019.4,1053.9,1641.6,1842.0,1603.0,1404.9,173.0,-239.0,135.0,10737.0,2258.0,3434.0,11673.0,1345.0,1663.0,-489.0,80.0,-307.0,-161.0,15804.0,1299.0,1811.0,3703.0,1642.0,147.0,227.0,1.0
2022-05-06 15:07:54.711521-07:00,2033.4,621.4,1448.8,1589.9,1619.0,1486.6,1478.3,2094.7,3431.0,3435.8,2222.9,1633.1,1582.4,3449.1,1465.4,1845.0,3433.4,3431.0,652.2,1181.5,860.4,514.7,1474.6,2034.4,3432.2,3438.2,1012.5,1053.9,1627.5,1842.0,1603.0,1404.9,28.0,-166.0,21.0,10484.0,2288.0,4806.0,11410.0,3640.0,2186.0,15.0,9.0,35.0,12.0,15570.0,2598.0,2273.0,3753.0,3968.0,582.0,655.0,1.0
2022-05-06 15:07:54.769733-07:00,2053.4,631.1,1434.1,1589.9,1552.5,1486.6,1478.3,2094.7,3434.6,3431.0,2216.8,1633.1,1581.4,3449.1,1465.4,1845.0,3433.4,3431.0,652.2,1197.4,860.4,514.7,1463.5,2039.4,3432.2,3438.2,1012.5,1054.8,1627.5,1873.2,1650.2,1400.3,69.0,160.0,65.0,9836.0,2440.0,6444.0,11144.0,2330.0,3198.0,400.0,-49.0,263.0,28.0,15138.0,4066.0,2798.0,3861.0,3047.0,477.0,737.0,1.0
2022-05-06 15:07:54.829550-07:00,2053.4,631.1,1434.1,1572.1,1552.5,1455.2,1479.2,2107.8,3434.6,3431.0,2216.8,1634.1,1581.4,3438.2,1617.1,1882.0,3438.2,3426.2,653.8,1197.4,861.2,514.7,1463.5,2039.4,3443.1,3428.6,995.3,1054.8,1630.3,1873.2,1650.2,1400.3,84.0,-16.0,-72.0,8915.0,2021.0,7865.0,11091.0,2135.0,3627.0,507.0,36.0,28.0,7.0,14760.0,5008.0,3108.0,3981.0,2272.0,380.0,607.0,1.0
2022-05-06 15:07:54.859623-07:00,2027.4,614.9,1406.7,1572.1,1520.8,1455.2,1479.2,2107.8,3440.7,3439.5,2408.1,1634.1,1611.5,3438.2,1617.1,1882.0,3438.2,3426.2,653.8,1190.3,861.2,533.8,1492.1,2032.4,3443.1,3428.6,995.3,1050.4,1630.3,1861.5,1671.9,1387.5,97.0,-28.0,-173.0,7824.0,1793.0,9345.0,10802.0,3220.0,3004.0,909.0,57.0,59.0,-68.0,14211.0,6155.0,3594.0,3959.0,3499.0,651.0,351.0,1.0
2022-05-06 15:07:54.919664-07:00,2027.4,614.9,1406.7,1552.5,1488.4,1469.0,1481.9,2109.8,3440.7,3439.5,2408.1,1663.4,1613.4,3435.8,1730.1,1926.2,3432.2,3434.6,653.8,1186.7,867.9,533.8,1492.1,2032.4,3439.5,3441.9,975.6,1068.6,1630.3,1861.5,1671.9,1387.5,42.0,-114.0,-212.0,6665.0,1960.0,10766.0,10211.0,3738.0,2004.0,1127.0,57.0,-14.0,-39.0,13427.0,7495.0,4207.0,3778.0,4013.0,732.0,175.0,1.0
2022-05-06 15:07:54.979638-07:00,2017.4,609.2,1414.0,1539.4,1488.4,1469.0,1481.9,2109.8,3444.3,3437.0,2455.7,1657.7,1613.4,3435.8,1730.1,1926.2,3432.2,3434.6,653.8,1186.7,872.1,528.2,1499.5,2063.5,3439.5,3441.9,975.6,1068.6,1636.9,1853.7,1670.1,1371.2,-1.0,-33.0,-200.0,5692.0,2559.0,11914.0,9356.0,3658.0,822.0,1157.0,2.0,4.0,-75.0,12507.0,8758.0,4779.0,3531.0,3577.0,640.0,187.0,1.0
2022-05-06 15:07:55.010082-07:00,2017.4,609.2,1414.0,1539.4,1473.6,1458.9,1462.6,2087.6,3444.3,3437.0,2455.7,1657.7,1635.0,3431.0,1588.0,1853.7,3433.4,3439.5,647.3,1177.9,872.1,528.2,1499.5,2063.5,3428.6,3444.3,952.6,1091.2,1636.9,1853.7,1670.1,1371.2,19.0,185.0,-120.0,5015.0,3244.0,12712.0,8435.0,2710.0,311.0,707.0,-9.0,116.0,-117.0,11712.0,9663.0,5172.0,3337.0,2488.0,474.0,157.0,1.0
2022-05-06 15:07:55.070225-07:00,2040.4,615.7,1363.0,1527.3,1473.6,1458.9,1462.6,2087.6,3440.7,3439.5,2213.7,1626.5,1635.0,3431.0,1588.0,1853.7,3433.4,3439.5,647.3,1177.9,873.8,529.8,1481.0,2083.6,3428.6,3444.3,952.6,1091.2,1619.9,1796.5,1551.5,1369.4,14.0,73.0,-125.0,4607.0,3595.0,13150.0,7833.0,1353.0,208.0,250.0,15.0,38.0,-87.0,11226.0,10143.0,5398.0,3221.0,1229.0,258.0,37.0,1.0
2022-05-06 15:07:55.159520-07:00,2040.4,615.7,1363.0,1527.3,1458.0,1429.5,1430.5,1970.7,3440.7,3439.5,2213.7,1626.5,1638.8,3437.0,1418.6,1784.9,3428.6,3428.6,647.3,1190.3,873.8,529.8,1481.0,2083.6,3433.4,3444.3,925.4,1092.9,1619.9,1796.5,1551.5,1369.4,27.0,51.0,-19.0,4412.0,3730.0,13372.0,7500.0,494.0,280.0,-28.0,13.0,26.0,-65.0,10979.0,10367.0,5521.0,3150.0,542.0,120.0,-20.0,1.0
2022-05-06 15:07:55.190475-07:00,2074.5,610.0,1325.9,1513.4,1458.0,1429.5,1430.5,1869.3,3438.2,3432.2,1989.5,1597.4,1638.8,3437.0,1418.6,1734.9,3439.5,3428.6,647.3,1190.3,873.0,531.4,1471.8,2067.5,3435.8,3444.3,925.4,1092.9,1603.0,1718.6,1476.4,1345.8,-19.0,-4.0,-32.0,4338.0,3714.0,13446.0,7419.0,40.0,-104.0,18.0,11.0,17.0,-13.0,10925.0,10404.0,5561.0,3147.0,-4.0,49.0,-6.0,1.0
2022-05-06 15:07:55.219726-07:00,2082.6,610.0,1325.9,1513.4,1441.5,1396.7,1405.8,1869.3,3444.3,3432.2,1989.5,1597.4,1618.1,3437.0,1304.3,1734.9,3439.5,3438.2,643.2,1185.9,873.0,531.4,1471.8,2031.4,3435.8,3437.0,910.1,1090.3,1603.0,1718.6,1476.4,1344.0,26.0,-15.0,2.0,4360.0,3755.0,13448.0,7381.0,205.0,-18.0,4.0,9.0,-14.0,-52.0,10908.0,10414.0,5574.0,3149.0,128.0,25.0,1.0,1.0
2022-05-06 15:07:55.279839-07:00,2082.6,619.7,1295.4,1494.9,1441.5,1396.7,1405.8,1812.9,3444.3,3438.2,1909.5,1573.9,1618.1,3437.0,1304.3,1708.1,3435.8,3438.2,643.2,1185.9,871.3,524.2,1442.4,2031.4,3440.7,3437.0,910.1,1090.3,1554.3,1699.5,1452.5,1344.0,-16.0,-15.0,-10.0,4327.0,3750.0,13475.0,7353.0,-39.0,17.0,35.0,17.0,-2.0,-1.0,10897.0,10424.0,5580.0,3146.0,-36.0,2.0,6.0,1.0
2022-05-06 15:07:55.339612-07:00,2083.6,619.7,1295.4,1494.9,1428.6,1371.2,1383.0,1812.9,3438.2,3438.2,1909.5,1573.9,1603.0,3432.2,1256.0,1708.1,3435.8,3433.4,644.9,1186.7,871.3,524.2,1442.4,2030.4,3440.7,3446.7,892.4,1078.2,1554.3,1699.5,1452.5,1339.5,36.0,-54.0,18.0,4329.0,3789.0,13466.0,7349.0,172.0,-32.0,94.0,18.0,-39.0,-54.0,10874.0,10449.0,5583.0,3138.0,259.0,9.0,14.0,1.0
2022-05-06 15:07:55.370229-07:00,2083.6,613.3,1286.4,1482.9,1428.6,1371.2,1383.0,1770.4,3438.2,3428.6,1874.2,1559.0,1603.0,3432.2,1256.0,1695.7,3439.5,3433.4,644.9,1186.7,870.5,528.2,1423.1,2030.4,3443.1,3446.7,892.4,1078.2,1594.6,1684.3,1419.5,1339.5,0.0,47.0,20.0,4215.0,3845.0,13546.0,7238.0,295.0,195.0,85.0,22.0,12.0,6.0,10761.0,10561.0,5616.0,3090.0,278.0,21.0,2.0,1.0
2022-05-06 15:07:55.399639-07:00,2103.7,613.3,1286.4,1482.9,1412.2,1355.8,1368.5,1770.4,3434.6,3428.6,1874.2,1559.0,1595.5,3433.4,1223.9,1695.7,3439.5,3433.4,647.3,1185.9,870.5,528.2,1423.1,2010.4,3443.1,3437.0,882.3,1064.3,1594.6,1684.3,1419.5,1326.8,11.0,-7.0,-9.0,4155.0,3848.0,13576.0,7215.0,80.0,64.0,42.0,14.0,-6.0,-31.0,10719.0,10593.0,5638.0,3087.0,148.0,50.0,-4.0,1.0
2022-05-06 15:07:55.459851-07:00,2103.7,614.9,1277.4,1491.2,1412.2,1355.8,1353.1,1731.1,3434.6,3437.0,1850.8,1562.7,1595.5,3433.4,1213.3,1679.5,3428.6,3433.4,647.3,1185.9,869.6,526.6,1410.3,2010.4,3440.7,3435.8,882.3,1064.3,1578.6,1668.2,1403.0,1326.8,4.0,18.0,-7.0,4101.0,3875.0,13609.0,7170.0,125.0,46.0,70.0,20.0,11.0,-7.0,10658.0,10642.0,5669.0,3074.0,97.0,52.0,-1.0,1.0
2022-05-06 15:07:55.519811-07:00,2091.6,609.2,1277.4,1491.2,1396.7,1357.6,1353.1,1731.1,3431.0,3434.6,1850.8,1562.7,1585.2,3434.6,1213.3,1679.5,3428.6,3433.4,643.2,1191.2,869.6,526.6,1401.2,1989.5,3440.7,3435.8,869.6,1059.1,1578.6,1668.2,1396.7,1312.4,5.0,-25.0,-21.0,4091.0,3885.0,13608.0,7172.0,26.0,13.0,27.0,10.0,-6.0,-34.0,10636.0,10653.0,5684.0,3082.0,62.0,33.0,-5.0,1.0
2022-05-06 15:07:55.549600-07:00,2091.6,609.2,1270.3,1487.5,1396.7,1357.6,1344.0,1712.9,3431.0,3434.6,1836.2,1555.3,1585.2,3434.6,1206.2,1670.1,3428.6,3435.8,643.2,1191.2,867.9,525.8,1401.2,1989.5,3428.6,3438.2,869.6,1059.1,1560.9,1661.5,1396.7,1312.4,8.0,-4.0,-9.0,4079.0,3929.0,13609.0,7153.0,22.0,-86.0,114.0,17.0,1.0,-25.0,10609.0,10677.0,5693.0,3078.0,7.0,-2.0,9.0,1.0
2022-05-06 15:07:55.609599-07:00,2083.6,612.5,1270.3,1487.5,1383.9,1344.0,1344.0,1712.9,3429.8,3435.8,1836.2,1555.3,1576.8,3443.1,1206.2,1670.1,3428.6,3435.8,644.0,1189.4,867.9,525.8,1406.7,1989.5,3428.6,3438.2,876.4,1059.1,1560.9,1661.5,1397.6,1315.1,6.0,-1.0,-10.0,4090.0,3972.0,13580.0,7177.0,-71.0,-55.0,76.0,21.0,-16.0,-18.0,10616.0,10675.0,5680.0,3085.0,-27.0,-19.0,9.0,1.0
2022-05-06 15:07:55.669677-07:00,2083.6,612.5,1262.2,1485.6,1383.9,1344.0,1335.0,1719.6,3429.8,3435.8,1822.6,1544.1,1576.8,3443.1,1199.1,1660.6,3423.7,3428.6,644.0,1189.4,867.1,524.2,1406.7,1989.5,3438.2,3431.0,876.4,1059.1,1551.5,1654.9,1397.6,1315.1,11.0,11.0,4.0,4105.0,4005.0,13555.0,7197.0,-108.0,-67.0,50.0,17.0,0.0,-15.0,10621.0,10675.0,5670.0,3086.0,-75.0,-25.0,-7.0,1.0
2022-05-06 15:07:55.699675-07:00,2087.6,606.8,1252.4,1485.6,1377.5,1338.6,1335.0,1719.6,3443.1,3440.7,1810.0,1544.1,1578.6,3439.5,1199.1,1660.6,3423.7,3428.6,644.0,1191.2,867.1,526.6,1403.0,1982.6,3438.2,3431.0,872.1,1058.2,1551.5,1647.3,1384.8,1325.0,16.0,-15.0,12.0,4126.0,4023.0,13526.0,7229.0,-51.0,-35.0,54.0,18.0,-8.0,-18.0,10635.0,10665.0,5659.0,3092.0,2.0,-10.0,1.0,1.0
2022-05-06 15:07:55.759335-07:00,2087.6,606.8,1252.4,1483.8,1377.5,1335.0,1329.6,1694.8,3443.1,3440.7,1810.0,1543.1,1578.6,3444.3,1188.5,1661.5,3433.4,3426.2,640.0,1191.2,866.3,526.6,1403.0,1982.6,3440.7,3438.2,866.3,1058.2,1548.7,1647.3,1384.8,1325.0,0.0,34.0,-2.0,4109.0,4034.0,13534.0,7219.0,27.0,48.0,6.0,14.0,21.0,-2.0,10622.0,10677.0,5662.0,3092.0,-14.0,14.0,-7.0,1.0
2022-05-06 15:07:55.819910-07:00,2075.5,603.6,1253.3,1483.8,1376.6,1335.0,1329.6,1694.8,3440.7,3439.5,1794.5,1543.1,1582.4,3444.3,1188.5,1661.5,3433.4,3426.2,640.0,1192.0,866.3,525.8,1398.5,1973.7,3440.7,3438.2,866.3,1056.5,1548.7,1660.6,1383.0,1311.5,7.0,-22.0,-11.0,4123.0,4014.0,13520.0,7248.0,-62.0,-3.0,-42.0,16.0,-14.0,-27.0,10636.0,10660.0,5662.0,3102.0,-12.0,12.0,-18.0,1.0
2022-05-06 15:07:55.849663-07:00,2075.5,603.6,1253.3,1473.6,1376.6,1329.6,1326.8,1684.3,3440.7,3439.5,1794.5,1544.1,1582.4,3439.5,1185.9,1657.7,3428.6,3439.5,645.7,1192.0,868.8,525.8,1398.5,1973.7,3433.4,3426.2,864.6,1056.5,1549.7,1660.6,1383.0,1311.5,11.0,6.0,-10.0,4116.0,4017.0,13522.0,7245.0,-30.0,2.0,21.0,19.0,9.0,-14.0,10628.0,10667.0,5663.0,3101.0,-48.0,-6.0,-5.0,1.0
2022-05-06 15:07:55.909548-07:00,2062.5,608.4,1253.3,1473.6,1368.5,1329.6,1326.8,1684.3,3440.7,3439.5,1786.8,1544.1,1569.3,3439.5,1185.9,1657.7,3428.6,3439.5,645.7,1189.4,868.8,522.6,1399.4,1973.7,3433.4,3426.2,864.6,1049.6,1549.7,1636.9,1389.4,1305.2,1.0,-3.0,-2.0,4127.0,4004.0,13511.0,7268.0,-47.0,6.0,-31.0,10.0,3.0,-11.0,10641.0,10656.0,5657.0,3108.0,-24.0,-8.0,-10.0,1.0
2022-05-06 15:07:55.969707-07:00,2062.5,608.4,1253.3,1466.3,1368.5,1327.8,1328.7,1682.4,3440.7,3439.5,1786.8,1534.8,1569.3,3435.8,1174.4,1651.1,3438.2,3439.5,644.0,1189.4,865.4,522.6,1399.4,1973.7,3446.7,3437.0,857.9,1049.6,1540.3,1636.9,1389.4,1305.2,11.0,5.0,5.0,4128.0,4007.0,13512.0,7264.0,24.0,-18.0,25.0,21.0,4.0,-5.0,10635.0,10662.0,5658.0,3107.0,10.0,1.0,-3.0,1.0
2022-05-06 15:07:55.999737-07:00,2060.5,604.4,1257.8,1473.6,1351.2,1327.8,1328.7,1682.4,3437.0,3446.7,1782.9,1536.6,1565.5,3435.8,1174.4,1651.1,3438.2,3439.5,644.0,1185.9,868.8,521.0,1393.0,1980.6,3446.7,3437.0,857.9,1047.0,1546.9,1636.9,1372.1,1305.2,13.0,-2.0,0.0,4126.0,4004.0,13506.0,7278.0,-34.0,48.0,-30.0,14.0,-7.0,-13.0,10638.0,10659.0,5655.0,3112.0,-6.0,8.0,-11.0,1.0
2022-05-06 15:07:56.059688-07:00,2060.5,604.4,1257.8,1473.6,1356.7,1325.9,1324.1,1664.4,3437.0,3446.7,1782.9,1536.6,1559.0,3438.2,1177.0,1648.3,3444.3,3434.6,648.1,1185.9,868.8,521.0,1393.0,1980.6,3441.9,3441.9,859.5,1057.3,1546.9,1636.9,1372.1,1305.2,1.0,15.0,-2.0,4118.0,3996.0,13518.0,7265.0,20.0,-2.0,-16.0,10.0,13.0,-14.0,10626.0,10667.0,5665.0,3107.0,-6.0,6.0,-16.0,1.0
2022-05-06 15:07:56.119716-07:00,2058.4,605.2,1251.5,1470.0,1356.7,1325.9,1324.1,1664.4,3439.5,3433.4,1781.0,1537.6,1559.0,3438.2,1177.0,1648.3,3444.3,3434.6,648.1,1185.9,865.4,525.8,1392.1,1963.7,3441.9,3441.9,859.5,1057.3,1536.6,1628.4,1373.0,1299.8,11.0,-16.0,-6.0,4123.0,3990.0,13519.0,7264.0,41.0,-13.0,5.0,17.0,-3.0,-15.0,10622.0,10670.0,5667.0,3106.0,38.0,2.0,-6.0,1.0
2022-05-06 15:07:56.149538-07:00,2058.4,605.2,1251.5,1470.0,1348.5,1319.6,1314.2,1675.7,3439.5,3433.4,1781.0,1537.6,1564.6,3438.2,1167.4,1647.3,3435.8,3427.4,641.6,1189.4,865.4,525.8,1392.1,1963.7,3443.1,3440.7,858.7,1043.5,1536.6,1628.4,1373.0,1299.8,7.0,2.0,1.0,4120.0,3996.0,13520.0,7260.0,-14.0,-8.0,0.0,10.0,-6.0,-10.0,10617.0,10675.0,5666.0,3107.0,-6.0,2.0,-6.0,1.0
2022-05-06 15:07:56.209555-07:00,2064.5,608.4,1250.6,1470.0,1348.5,1319.6,1314.2,1675.7,3435.8,3437.0,1784.9,1530.1,1564.6,3438.2,1167.4,1647.3,3435.8,3427.4,641.6,1189.4,864.6,531.4,1389.4,1959.8,3443.1,3440.7,858.7,1043.5,1536.6,1622.8,1363.9,1284.6,0.0,2.0,-1.0,4119.0,3991.0,13521.0,7261.0,8.0,27.0,-15.0,6.0,7.0,-5.0,10614.0,10678.0,5667.0,3106.0,4.0,6.0,-8.0,1.0
2022-05-06 15:07:56.270081-07:00,2066.5,608.4,1250.6,1470.0,1343.1,1329.6,1321.4,1664.4,3438.2,3437.0,1784.9,1530.1,1554.3,3440.7,1174.4,1634.1,3429.8,3432.2,643.2,1174.4,864.6,531.4,1389.4,1953.9,3433.4,3439.5,869.6,1047.0,1536.6,1622.8,1363.9,1291.8,12.0,2.0,-4.0,4122.0,3991.0,13519.0,7263.0,-13.0,-16.0,-12.0,15.0,-4.0,-16.0,10614.0,10677.0,5667.0,3108.0,5.0,7.0,-14.0,1.0
2022-05-06 15:07:56.299628-07:00,2066.5,605.2,1241.7,1467.2,1343.1,1329.6,1321.4,1661.5,3438.2,3439.5,1773.3,1519.9,1554.3,3440.7,1174.4,1645.4,3439.5,3432.2,643.2,1174.4,866.3,524.2,1387.5,1953.9,3440.7,3439.5,869.6,1047.0,1533.8,1628.4,1365.7,1291.8,4.0,6.0,5.0,4114.0,3986.0,13529.0,7251.0,20.0,34.0,-14.0,12.0,4.0,-7.0,10605.0,10686.0,5671.0,3102.0,-4.0,2.0,-13.0,1.0
2022-05-06 15:07:56.359704-07:00,2056.4,605.2,1241.7,1467.2,1344.0,1313.3,1313.3,1661.5,3439.5,3439.5,1773.3,1519.9,1554.3,3441.9,1166.5,1645.4,3439.5,3435.8,640.0,1182.3,866.3,524.2,1387.5,1962.8,3440.7,3431.0,856.2,1044.4,1533.8,1628.4,1365.7,1291.8,3.0,-19.0,-7.0,4115.0,3982.0,13526.0,7259.0,2.0,-25.0,21.0,10.0,-5.0,-13.0,10606.0,10685.0,5670.0,3104.0,28.0,7.0,-4.0,1.0
2022-05-06 15:07:56.420094-07:00,2056.4,605.2,1239.9,1456.2,1344.0,1313.3,1313.3,1663.4,3439.5,3449.1,1762.7,1528.3,1554.3,3441.9,1166.5,1635.0,3438.2,3435.8,640.0,1182.3,860.4,524.2,1386.6,1962.8,3440.7,3431.0,856.2,1044.4,1541.3,1623.7,1368.5,1291.8,14.0,0.0,-11.0,4115.0,4018.0,13524.0,7243.0,45.0,-79.0,59.0,12.0,-2.0,-24.0,10592.0,10699.0,5673.0,3099.0,23.0,-2.0,-3.0,1.0
2022-05-06 15:07:56.479990-07:00,2051.4,605.2,1239.9,1456.2,1335.0,1316.0,1309.7,1663.4,3434.6,3449.1,1762.7,1528.3,1559.9,3428.6,1166.5,1635.0,3438.2,3433.4,640.0,1183.2,860.4,524.2,1386.6,1948.9,3440.7,3428.6,851.1,1046.1,1541.3,1623.7,1368.5,1288.2,11.0,10.0,4.0,4122.0,4027.0,13519.0,7244.0,-39.0,26.0,-28.0,15.0,8.0,-12.0,10592.0,10701.0,5668.0,3099.0,-24.0,-10.0,-13.0,1.0
2022-05-06 15:07:56.539733-07:00,2051.4,601.2,1248.8,1464.4,1335.0,1316.0,1312.4,1654.9,3434.6,3440.7,1752.1,1530.1,1559.9,3428.6,1168.2,1635.0,3434.6,3431.0,640.0,1183.2,862.9,525.0,1378.5,1948.9,3441.9,3439.5,851.1,1046.1,1525.5,1625.6,1357.6,1288.2,1.0,8.0,5.0,4125.0,4029.0,13519.0,7241.0,24.0,-33.0,16.0,6.0,5.0,-10.0,10590.0,10703.0,5669.0,3097.0,14.0,7.0,-10.0,1.0
2022-05-06 15:07:56.569623-07:00,2038.4,597.1,1248.8,1464.4,1331.4,1325.0,1312.4,1654.9,3432.2,3438.2,1752.1,1530.1,1552.5,3438.2,1168.2,1635.0,3434.6,3431.0,644.0,1184.1,862.9,525.0,1378.5,1945.9,3441.9,3439.5,861.2,1040.1,1525.5,1625.6,1357.6,1282.8,0.0,-5.0,3.0,4115.0,4020.0,13523.0,7243.0,3.0,52.0,-21.0,13.0,-5.0,0.0,10589.0,10703.0,5672.0,3097.0,8.0,11.0,-9.0,1.0
2022-05-06 15:07:56.599731-07:00,2038.4,597.1,1234.6,1462.6,1331.4,1325.0,1313.3,1658.7,3432.2,3438.2,1758.9,1510.6,1552.5,3438.2,1156.8,1631.3,3435.8,3437.0,644.0,1184.1,864.6,525.8,1378.5,1945.9,3438.2,3441.9,861.2,1040.1,1524.5,1626.5,1357.6,1282.8,1.0,-7.0,-19.0,4122.0,4030.0,13522.0,7236.0,12.0,-74.0,18.0,7.0,2.0,-14.0,10585.0,10703.0,5677.0,3102.0,-13.0,12.0,-13.0,1.0
2022-05-06 15:07:56.659575-07:00,2059.4,601.2,1234.6,1462.6,1325.0,1307.0,1313.3,1658.7,3433.4,3439.5,1758.9,1510.6,1545.9,3440.7,1156.8,1631.3,3435.8,3437.0,642.4,1183.2,864.6,525.8,1375.7,1946.9,3438.2,3441.9,852.0,1038.3,1524.5,1626.5,1357.6,1290.0,22.0,-8.0,-1.0,4148.0,4052.0,13507.0,7238.0,-54.0,-64.0,5.0,15.0,-9.0,-24.0,10587.0,10701.0,5677.0,3100.0,-33.0,-16.0,-12.0,1.0
2022-05-06 15:07:56.749649-07:00,2059.4,601.2,1233.7,1455.2,1325.0,1307.0,1309.7,1658.7,3433.4,3439.5,1758.9,1522.7,1545.9,3440.7,1156.8,1629.4,3434.6,3434.6,642.4,1183.2,862.9,519.5,1375.7,1946.9,3433.4,3444.3,852.0,1038.3,1526.4,1622.8,1357.6,1290.0,8.0,20.0,13.0,4166.0,4068.0,13507.0,7219.0,66.0,-56.0,5.0,8.0,6.0,-7.0,10578.0,10711.0,5678.0,3095.0,43.0,0.0,-5.0,1.0
2022-05-06 15:07:56.751469-07:00,2029.4,613.3,1233.7,1455.2,1333.2,1300.7,1309.7,1658.7,3428.6,3439.5,1758.9,1522.7,1548.7,3437.0,1156.8,1629.4,3434.6,3434.6,636.7,1185.9,862.9,519.5,1380.3,1944.0,3433.4,3444.3,849.5,1037.5,1526.4,1622.8,1356.7,1284.6,12.0,-8.0,10.0,4175.0,4067.0,13499.0,7227.0,-61.0,5.0,-7.0,11.0,-7.0,-8.0,10583.0,10705.0,5680.0,3096.0,-38.0,1.0,-12.0,1.0
2022-05-06 15:07:56.810193-07:00,2029.4,613.3,1234.6,1458.9,1333.2,1308.8,1308.8,1653.9,3428.6,3439.5,1750.2,1525.5,1548.7,3434.6,1150.6,1635.0,3441.9,3439.5,632.7,1185.9,862.9,525.8,1380.3,1944.0,3433.4,3438.2,852.8,1037.5,1520.8,1619.9,1356.7,1284.6,4.0,21.0,-1.0,4163.0,4061.0,13506.0,7226.0,50.0,33.0,-18.0,9.0,22.0,-7.0,10575.0,10710.0,5683.0,3096.0,44.0,19.0,-12.0,1.0
2022-05-06 15:07:56.869565-07:00,2034.4,603.6,1235.5,1458.9,1329.6,1308.8,1308.8,1653.9,3440.7,3437.0,1746.4,1525.5,1547.8,3434.6,1150.6,1635.0,3441.9,3439.5,632.7,1185.9,862.9,525.8,1373.9,1935.1,3433.4,3438.2,852.8,1035.7,1520.8,1624.7,1351.2,1282.8,5.0,-9.0,-9.0,4166.0,4052.0,13506.0,7228.0,-20.0,-29.0,-9.0,12.0,0.0,-14.0,10572.0,10709.0,5692.0,3096.0,-7.0,11.0,-17.0,1.0
2022-05-06 15:07:56.899696-07:00,2034.4,603.6,1235.5,1455.2,1329.6,1302.5,1308.8,1652.0,3440.7,3437.0,1746.4,1524.5,1547.8,3434.6,1155.9,1620.9,3439.5,3428.6,641.6,1185.9,865.4,525.8,1373.9,1935.1,3437.0,3439.5,847.8,1035.7,1519.0,1624.7,1351.2,1282.8,-1.0,15.0,-16.0,4177.0,4064.0,13504.0,7220.0,-9.0,-46.0,17.0,5.0,14.0,-8.0,10564.0,10716.0,5695.0,3094.0,-3.0,-4.0,-5.0,1.0
2022-05-06 15:07:56.959631-07:00,2035.4,612.5,1231.0,1455.2,1321.4,1302.5,1308.8,1652.0,3432.2,3435.8,1749.3,1524.5,1549.7,3434.6,1155.9,1620.9,3439.5,3428.6,641.6,1183.2,865.4,522.6,1383.0,1940.0,3437.0,3439.5,847.8,1034.9,1519.0,1617.1,1352.1,1273.0,0.0,36.0,-21.0,4207.0,4072.0,13472.0,7256.0,-334.0,-126.0,23.0,7.0,41.0,-15.0,10612.0,10674.0,5680.0,3101.0,-286.0,-56.0,-36.0,1.0
2022-05-06 15:07:57.019552-07:00,2035.4,612.5,1231.0,1454.3,1321.4,1321.4,1297.2,1642.6,3432.2,3435.8,1749.3,1518.0,1549.7,3444.3,1220.4,1634.1,3428.6,3437.0,643.2,1183.2,865.4,522.6,1383.0,1940.0,3438.2,3440.7,843.6,1034.9,1522.7,1617.1,1352.1,1273.0,-113.0,144.0,-179.0,4352.0,4014.0,13286.0,7541.0,-2005.0,-673.0,87.0,-8.0,120.0,18.0,10880.0,10426.0,5605.0,3154.0,-1427.0,-222.0,-173.0,1.0
2022-05-06 15:07:57.049649-07:00,2039.4,611.7,1303.4,1475.5,1314.2,1321.4,1297.2,1642.6,3449.1,3427.4,1987.5,1561.8,1545.9,3444.3,1220.4,1634.1,3428.6,3437.0,643.2,1184.1,863.7,525.8,1449.7,1935.1,3438.2,3440.7,843.6,1086.0,1519.9,1675.7,1491.2,1273.9,69.0,128.0,-182.0,5017.0,3871.0,12612.0,8320.0,-3276.0,-1067.0,-589.0,-25.0,120.0,-165.0,11587.0,9730.0,5340.0,3315.0,-2930.0,-572.0,-297.0,1.0
2022-05-06 15:07:57.139833-07:00,2039.4,611.7,1303.4,1475.5,1316.0,1418.6,1539.4,1961.8,3449.1,3427.4,1987.5,1561.8,1585.2,3439.5,1600.2,1707.2,3427.4,3441.9,640.0,1183.2,863.7,525.8,1449.7,1935.1,3441.9,3440.7,967.1,1106.9,1519.9,1675.7,1491.2,1273.9,-11.0,-82.0,-257.0,5879.0,3386.0,11726.0,9214.0,-3728.0,-1793.0,-829.0,14.0,0.0,-9.0,12550.0,8634.0,4924.0,3484.0,-3723.0,-715.0,-503.0,1.0
2022-05-06 15:07:57.169543-07:00,2024.4,593.1,1526.4,1539.4,1316.0,1418.6,1539.4,1961.8,3439.5,3441.9,2528.3,1588.9,1585.2,3439.5,1600.2,1707.2,3427.4,3441.9,640.0,1183.2,864.6,523.4,1529.2,2020.4,3441.9,3440.7,967.1,1106.9,1522.7,1778.1,1661.5,1272.1,39.0,-88.0,-132.0,6983.0,3094.0,10576.0,9912.0,-3378.0,-2129.0,-621.0,-1.0,78.0,-67.0,13426.0,7452.0,4466.0,3566.0,-3343.0,-752.0,-546.0,1.0
2022-05-06 15:07:57.199579-07:00,2024.4,593.1,1526.4,1539.4,1315.1,1412.2,1615.2,2157.5,3439.5,3441.9,2528.3,1588.9,1636.0,3431.0,1700.5,1876.2,3433.4,3438.2,642.4,1181.5,864.6,523.4,1529.2,2020.4,3433.4,3447.9,962.0,1095.6,1522.7,1778.1,1661.5,1272.1,65.0,-166.0,-95.0,7989.0,2922.0,9220.0,10538.0,-3229.0,-2603.0,-127.0,8.0,-48.0,-28.0,14148.0,6286.0,3976.0,3598.0,-2986.0,-758.0,-498.0,1.0
2022-05-06 15:07:57.259481-07:00,1999.5,590.7,1573.0,1535.7,1315.1,1412.2,1615.2,2157.5,3437.0,3443.1,2507.9,1640.7,1636.0,3431.0,1700.5,1876.2,3433.4,3438.2,642.4,1181.5,878.9,520.3,1516.2,2062.5,3433.4,3447.9,962.0,1095.6,1532.9,1888.9,1757.0,1270.3,59.0,-54.0,29.0,8828.0,2927.0,7833.0,10981.0,-2549.0,-2083.0,-239.0,11.0,-30.0,-27.0,14676.0,5277.0,3541.0,3561.0,-2383.0,-636.0,-540.0,1.0
2022-05-06 15:07:57.319658-07:00,1999.5,590.7,1573.0,1535.7,1309.7,1395.7,1596.4,2147.3,3437.0,3443.1,2507.9,1640.7,1639.8,3437.0,1641.6,1921.3,3437.0,3428.6,645.7,1177.0,878.9,520.3,1516.2,2062.5,3438.2,3441.9,966.2,1084.2,1532.9,1888.9,1757.0,1270.3,61.0,-102.0,8.0,9430.0,2936.0,6699.0,11225.0,-1819.0,-1887.0,55.0,8.0,-9.0,-13.0,15036.0,4488.0,3202.0,3457.0,-1806.0,-542.0,-520.0,1.0
2022-05-06 15:07:57.349589-07:00,2007.4,602.8,1515.3,1519.0,1309.7,1395.7,1596.4,2131.1,3439.5,3437.0,2466.4,1652.0,1639.8,3437.0,1641.6,1891.8,3443.1,3428.6,645.7,1177.0,888.2,517.9,1537.6,2066.5,3441.9,3441.9,966.2,1084.2,1532.9,1853.7,1744.5,1281.9,38.0,-68.0,16.0,9822.0,3063.0,5737.0,11387.0,-1475.0,-1490.0,56.0,-2.0,-69.0,-21.0,15284.0,3880.0,2939.0,3336.0,-1359.0,-403.0,-501.0,1.0
2022-05-06 15:07:57.409697-07:00,2030.4,602.8,1515.3,1519.0,1309.7,1359.4,1593.6,2131.1,3440.7,3437.0,2466.4,1652.0,1632.2,3438.2,1606.8,1891.8,3443.1,3435.8,642.4,1176.2,888.2,517.9,1537.6,2082.6,3441.9,3437.0,953.4,1083.4,1532.9,1853.7,1744.5,1267.6,33.0,-7.0,41.0,10089.0,3066.0,4964.0,11515.0,-1561.0,-1006.0,230.0,10.0,44.0,18.0,15481.0,3340.0,2691.0,3220.0,-1434.0,-445.0,-382.0,1.0
2022-05-06 15:07:57.469594-07:00,2030.4,604.4,1462.6,1526.4,1309.7,1359.4,1593.6,2122.0,3440.7,3445.5,2433.5,1651.1,1632.2,3438.2,1606.8,1908.5,3446.7,3435.8,642.4,1176.2,894.1,517.1,1559.9,2082.6,3449.1,3437.0,953.4,1083.4,1522.7,1843.0,1736.8,1267.6,18.0,-131.0,2.0,10236.0,2897.0,4274.0,11704.0,-1114.0,-384.0,207.0,17.0,-106.0,-6.0,15640.0,2815.0,2450.0,3147.0,-994.0,-345.0,-264.0,1.0
2022-05-06 15:07:57.499665-07:00,2032.4,604.4,1462.6,1526.4,1306.1,1342.2,1592.7,2122.0,3437.0,3445.5,2433.5,1651.1,1635.0,3433.4,1577.7,1908.5,3446.7,3434.6,643.2,1178.8,894.1,517.1,1559.9,2086.6,3449.1,3428.6,961.1,1088.6,1522.7,1843.0,1736.8,1257.8,-27.0,14.0,-48.0,10254.0,2779.0,3875.0,11856.0,-1016.0,-349.0,371.0,-14.0,19.0,-33.0,15719.0,2552.0,2294.0,3096.0,-912.0,-375.0,-180.0,1.0
2022-05-06 15:07:57.559553-07:00,2032.4,595.5,1450.6,1487.5,1306.1,1342.2,1592.7,2080.6,3437.0,3440.7,2391.3,1641.6,1635.0,3433.4,1577.7,1908.5,3438.2,3434.6,643.2,1178.8,896.6,511.5,1543.1,2086.6,3441.9,3428.6,961.1,1088.6,1519.9,1829.4,1709.1,1257.8,-21.0,-83.0,-65.0,10253.0,2681.0,3404.0,12022.0,-841.0,-695.0,446.0,7.0,-16.0,-18.0,15807.0,2217.0,2092.0,3044.0,-666.0,-369.0,-178.0,1.0
2022-05-06 15:07:57.619559-07:00,2013.4,592.3,1450.6,1487.5,1311.5,1332.3,1553.4,2080.6,3440.7,3433.4,2391.3,1641.6,1626.5,3434.6,1560.9,1908.5,3438.2,3440.7,640.0,1173.5,896.6,511.5,1539.4,2081.6,3441.9,3446.7,944.9,1091.2,1519.9,1829.4,1695.7,1260.4,100.0,27.0,167.0,10201.0,2716.0,2908.0,12188.0,-887.0,16.0,243.0,139.0,-128.0,-18.0,15880.0,1923.0,1869.0,3013.0,-682.0,-259.0,-71.0,1.0
2022-05-06 15:07:57.649652-07:00,2013.4,592.3,1404.9,1478.3,1311.5,1332.3,1532.9,2039.4,3440.7,3433.4,2378.7,1646.4,1626.5,3434.6,1553.4,1884.0,3439.5,3438.2,640.0,1173.5,897.4,519.5,1539.4,2081.6,3439.5,3444.3,944.9,1091.2,1623.7,1865.4,1695.7,1260.4,29.0,22.0,8.0,10157.0,2582.0,2760.0,12287.0,-674.0,-54.0,293.0,31.0,107.0,56.0,15922.0,1738.0,1739.0,2982.0,-724.0,-196.0,-51.0,1.0
2022-05-06 15:07:57.709580-07:00,2023.4,598.7,1404.9,1478.3,1354.9,1334.1,1532.9,2039.4,3437.0,3435.8,2378.7,1646.4,1624.7,3438.2,1553.4,1884.0,3439.5,3438.2,645.7,1169.1,897.4,519.5,1523.6,2058.4,3439.5,3444.3,929.6,1073.8,1623.7,1865.4,1716.7,1259.6,-1.0,28.0,-42.0,10114.0,2499.0,2547.0,12386.0,-334.0,-156.0,238.0,-3.0,43.0,0.0,15956.0,1523.0,1641.0,2973.0,-407.0,-109.0,-79.0,1.0
