Time,P0,P1,P2,P3,P4,P5,P6,P7,P8,P9,P10,P11,P12,P13,P14,P15,P16,P17,P18,P19,P20,P21,P22,P23,P24,P25,P26,P27,P28,P29,P30,P31,ECG,AX0,AY0,AZ0,QW0,QX0,QY0,QZ0,GX0,GY0,GZ0,AX1,AY1,AZ1,QW1,QX1,QY1,QZ1,GX1,GY1,GZ1
2022-05-06 11:28:33.082345-07:00,1880.1,558.6,1316.9,1485.6,978.2,1203.5,1425.9,1740.6,3439.5,3441.9,1496.7,1399.4,1352.1,3437.0,975.6,1402.1,3433.4,3435.8,771.1,1427.7,993.6,573.8,1369.4,1678.6,3440.7,3439.5,698.7,1020.2,1345.8,1457.1,1221.3,921.1,-24.0,-34.0,32.0,7772.0,9644.0,-10281.0,-3055.0,64.0,56.0,4.0,-10.0,-25.0,0.0,9546.0,13229.0,-969.0,1171.0,54.0,12.0,-14.0,1.0
2022-05-06 11:28:33.083435-07:00,1880.1,558.6,1316.9,1485.6,983.3,1203.5,1422.2,1739.7,3439.5,3441.9,1496.7,1399.4,1355.8,3439.5,975.6,1404.9,3437.0,3438.2,775.3,1424.1,993.6,573.8,1369.4,1678.6,3438.2,3438.2,706.0,1025.4,1345.8,1457.1,1221.3,921.1,-34.0,-66.0,41.0,7819.0,9645.0,-10260.0,-3001.0,-5.0,234.0,102.0,-18.0,-20.0,-1.0,9542.0,13232.0,-966.0,1170.0,0.0,-5.0,-7.0,1.0
2022-05-06 11:28:33.084905-07:00,1874.2,560.2,1307.0,1480.1,983.3,1203.5,1422.2,1739.7,3439.5,3441.9,1492.1,1405.8,1355.8,3439.5,975.6,1404.9,3437.0,3438.2,775.3,1424.1,996.2,574.6,1377.5,1683.3,3438.2,3438.2,706.0,1025.4,1343.1,1455.2,1219.5,927.1,-8.0,-45.0,68.0,7930.0,9590.0,-10271.0,-2844.0,15.0,414.0,510.0,-7.0,-4.0,20.0,9525.0,13244.0,-983.0,1160.0,92.0,-66.0,35.0,1.0
2022-05-06 11:28:33.087535-07:00,1874.2,560.2,1307.0,1480.1,977.3,1192.9,1392.1,1690.0,3439.5,3441.9,1492.1,1405.8,1382.1,3433.4,979.9,1398.5,3449.1,3433.4,775.3,1424.1,996.2,574.6,1377.5,1683.3,3440.7,3440.7,706.9,1045.2,1343.1,1455.2,1219.5,927.1,13.0,76.0,24.0,8268.0,9344.0,-10287.0,-2635.0,-720.0,903.0,749.0,-20.0,11.0,-15.0,9537.0,13233.0,-1043.0,1128.0,-246.0,-171.0,117.0,1.0
2022-05-06 11:28:33.172108-07:00,1895.8,553.8,1309.7,1478.3,977.3,1192.9,1392.1,1810.0,3443.1,3445.5,1547.8,1409.4,1382.1,3433.4,979.9,1400.3,3439.5,3433.4,775.3,1424.1,991.9,576.2,1393.9,1684.3,3445.5,3440.7,706.9,1045.2,1350.3,1464.4,1218.6,928.8,-15.0,-87.0,27.0,8910.0,8936.0,-10115.0,-2624.0,-1576.0,1055.0,562.0,3.0,-80.0,9.0,9733.0,13085.0,-1139.0,1092.0,-717.0,-108.0,125.0,1.0
2022-05-06 11:28:33.173128-07:00,1880.1,553.8,1309.7,1478.3,971.3,1189.4,1512.5,1810.0,3449.1,3445.5,1547.8,1409.4,1414.9,3439.5,1017.6,1400.3,3439.5,3438.2,767.8,1436.0,991.9,576.2,1393.9,1695.7,3445.5,3441.9,713.4,1096.4,1350.3,1464.4,1218.6,926.2,-15.0,-60.0,-55.0,9477.0,8551.0,-9968.0,-2480.0,-558.0,892.0,855.0,-1.0,-66.0,-6.0,9870.0,12972.0,-1206.0,1136.0,-209.0,130.0,211.0,1.0
2022-05-06 11:28:33.352210-07:00,1880.1,552.2,1349.4,1480.1,971.3,1189.4,1512.5,1872.3,3449.1,3441.9,1535.7,1401.2,1414.9,3439.5,1017.6,1414.9,3433.4,3438.2,767.8,1436.0,997.0,569.0,1433.2,1695.7,3441.9,3441.9,713.4,1096.4,1347.6,1476.4,1256.0,926.2,-33.0,72.0,-77.0,9747.0,8365.0,-9916.0,-2265.0,-293.0,459.0,278.0,-7.0,-28.0,-3.0,9919.0,12925.0,-1229.0,1215.0,-208.0,72.0,89.0,1.0
2022-05-06 11:28:33.353255-07:00,1871.3,552.2,1349.4,1480.1,976.5,1190.3,1563.7,1872.3,3441.9,3441.9,1535.7,1401.2,1418.6,3440.7,1026.3,1414.9,3433.4,3439.5,776.9,1438.7,997.0,569.0,1433.2,1688.1,3441.9,3441.9,721.6,1059.9,1347.6,1476.4,1256.0,925.4,-50.0,-62.0,-35.0,9842.0,8342.0,-9828.0,-2318.0,-102.0,-14.0,-256.0,-5.0,-66.0,24.0,9998.0,12865.0,-1236.0,1203.0,-116.0,-53.0,-62.0,1.0
2022-05-06 11:28:33.502908-07:00,1871.3,548.2,1352.1,1486.6,976.5,1190.3,1563.7,1857.6,3441.9,3440.7,1533.8,1403.0,1418.6,3440.7,1026.3,1398.5,3432.2,3439.5,776.9,1438.7,992.7,576.2,1447.9,1688.1,3440.7,3441.9,721.6,1059.9,1343.1,1476.4,1270.3,925.4,-9.0,-17.0,13.0,9736.0,8435.0,-9848.0,-2349.0,322.0,-219.0,-116.0,-5.0,-38.0,-6.0,9969.0,12892.0,-1222.0,1173.0,114.0,-30.0,-57.0,1.0
2022-05-06 11:28:33.503895-07:00,1877.2,549.8,1352.1,1486.6,977.3,1191.2,1548.7,1857.6,3435.8,3444.3,1533.8,1403.0,1412.2,3447.9,1028.0,1398.5,3432.2,3444.3,771.1,1434.1,992.7,576.2,1432.3,1685.3,3440.7,3440.7,725.8,1047.0,1343.1,1476.4,1274.7,921.1,-26.0,-65.0,17.0,9722.0,8431.0,-9854.0,-2397.0,-253.0,-10.0,-16.0,-8.0,-40.0,2.0,10000.0,12868.0,-1235.0,1150.0,-213.0,-49.0,29.0,1.0
2022-05-06 11:28:33.505415-07:00,1877.2,549.8,1352.1,1478.3,977.3,1191.2,1537.6,1829.4,3435.8,3444.3,1539.4,1393.0,1412.2,3447.9,1039.2,1406.7,3437.0,3435.8,771.1,1434.1,1009.9,573.8,1432.3,1685.3,3441.9,3439.5,725.8,1047.0,1340.4,1475.5,1274.7,921.1,-25.0,-30.0,5.0,9780.0,8373.0,-9833.0,-2447.0,-211.0,29.0,3.0,-1.0,-34.0,9.0,10070.0,12811.0,-1264.0,1146.0,-202.0,-18.0,38.0,1.0
2022-05-06 11:28:33.506234-07:00,1872.3,545.8,1352.1,1478.3,982.5,1189.4,1537.6,1829.4,3437.0,3444.3,1539.4,1393.0,1405.8,3444.3,1039.2,1406.7,3437.0,3435.8,770.3,1434.1,1009.9,573.8,1434.1,1675.7,3441.9,3439.5,718.4,1045.2,1340.4,1475.5,1270.3,929.6,-10.0,-22.0,4.0,9838.0,8324.0,-9801.0,-2512.0,-304.0,73.0,-82.0,-1.0,-20.0,-11.0,10164.0,12735.0,-1287.0,1137.0,-388.0,-17.0,15.0,1.0
2022-05-06 11:28:33.652998-07:00,1872.3,545.8,1354.0,1481.9,982.5,1189.4,1539.4,1825.5,3437.0,3444.3,1525.5,1404.9,1405.8,3444.3,1043.5,1404.0,3434.6,3438.2,770.3,1434.1,995.3,576.2,1434.1,1675.7,3435.8,3440.7,718.4,1045.2,1346.7,1473.6,1270.3,929.6,-44.0,-70.0,6.0,9913.0,8275.0,-9749.0,-2581.0,-122.0,30.0,-21.0,-7.0,-53.0,31.0,10241.0,12673.0,-1299.0,1122.0,-84.0,-8.0,-6.0,1.0
2022-05-06 11:28:33.712078-07:00,1874.2,548.2,1354.0,1481.9,985.9,1182.3,1539.4,1825.5,3440.7,3438.2,1525.5,1404.9,1412.2,3439.5,1043.5,1404.0,3434.6,3438.2,776.1,1439.6,995.3,576.2,1431.4,1683.3,3435.8,3440.7,715.1,1042.6,1346.7,1473.6,1274.7,946.6,-28.0,-11.0,-4.0,9897.0,8280.0,-9761.0,-2575.0,29.0,-33.0,-5.0,-16.0,-22.0,-6.0,10238.0,12676.0,-1297.0,1122.0,-14.0,-4.0,-7.0,1.0
2022-05-06 11:28:33.714316-07:00,1874.2,548.2,1339.5,1492.1,985.9,1182.3,1519.9,1815.8,3440.7,3438.2,1533.8,1402.1,1412.2,3439.5,1038.3,1407.6,3429.8,3433.4,776.1,1439.6,993.6,576.2,1431.4,1683.3,3435.8,3440.7,715.1,1042.6,1342.2,1476.4,1274.7,946.6,-33.0,-41.0,10.0,9907.0,8266.0,-9757.0,-2601.0,-63.0,-12.0,-6.0,-9.0,-40.0,5.0,10257.0,12661.0,-1304.0,1113.0,-64.0,-15.0,9.0,1.0
2022-05-06 11:28:33.714921-07:00,1863.5,549.0,1336.8,1492.1,980.7,1180.6,1519.9,1815.8,3432.2,3444.3,1537.6,1402.1,1413.1,3433.4,1038.3,1407.6,3429.8,3433.4,775.3,1435.0,993.6,569.0,1436.0,1677.6,3435.8,3440.7,715.1,1038.3,1342.2,1494.9,1281.9,921.1,-18.0,-15.0,14.0,9915.0,8260.0,-9752.0,-2608.0,-16.0,28.0,-24.0,-5.0,-26.0,0.0,10270.0,12650.0,-1306.0,1112.0,-60.0,3.0,-4.0,1.0
2022-05-06 11:28:33.742164-07:00,1863.5,549.0,1336.8,1475.5,980.7,1182.3,1525.5,1805.2,3432.2,3444.3,1537.6,1398.5,1413.1,3444.3,1038.3,1404.9,3441.9,3443.1,772.0,1435.0,995.3,569.0,1436.0,1677.6,3440.7,3438.2,715.9,1038.3,1344.9,1494.9,1281.9,921.1,-28.0,-48.0,6.0,9945.0,8275.0,-9701.0,-2636.0,-102.0,107.0,-149.0,-3.0,-35.0,11.0,10314.0,12616.0,-1302.0,1101.0,-145.0,1.0,-35.0,1.0
2022-05-06 11:28:33.802078-07:00,1867.4,547.4,1339.5,1475.5,984.2,1182.3,1525.5,1805.2,3443.1,3439.5,1532.0,1398.5,1418.6,3444.3,1038.3,1404.9,3441.9,3443.1,772.0,1425.0,995.3,573.8,1431.4,1688.1,3440.7,3438.2,715.9,1042.6,1344.9,1476.4,1278.3,930.5,-42.0,-63.0,5.0,9974.0,8300.0,-9644.0,-2656.0,20.0,98.0,-78.0,-9.0,-45.0,19.0,10339.0,12596.0,-1293.0,1091.0,9.0,13.0,-27.0,1.0
2022-05-06 11:28:33.862293-07:00,1867.4,547.4,1339.5,1482.9,984.2,1182.3,1526.4,1822.6,3443.1,3439.5,1532.0,1403.0,1418.6,3444.3,1045.2,1407.6,3438.2,3446.7,772.0,1425.0,994.5,573.8,1431.4,1688.1,3445.5,3439.5,719.2,1042.6,1348.5,1476.4,1278.3,930.5,-27.0,-25.0,0.0,9966.0,8338.0,-9624.0,-2639.0,70.0,43.0,-57.0,-9.0,-28.0,-5.0,10332.0,12604.0,-1280.0,1089.0,11.0,8.0,-26.0,1.0
2022-05-06 11:28:33.892118-07:00,1866.4,549.8,1325.0,1482.9,979.9,1182.3,1526.4,1822.6,3446.7,3441.9,1530.1,1403.0,1406.7,3444.3,1045.2,1407.6,3438.2,3446.7,772.0,1425.9,994.5,570.6,1430.5,1691.9,3445.5,3439.5,719.2,1038.3,1348.5,1475.5,1270.3,928.8,-31.0,-51.0,4.0,9969.0,8366.0,-9594.0,-2650.0,-16.0,28.0,-89.0,-2.0,-40.0,10.0,10341.0,12598.0,-1272.0,1081.0,-20.0,-5.0,-25.0,1.0
2022-05-06 11:28:34.012208-07:00,1866.4,549.8,1325.0,1480.1,978.2,1186.7,1522.7,1818.7,3446.7,3441.9,1530.1,1400.3,1396.7,3428.6,1033.2,1413.1,3437.0,3439.5,767.0,1425.9,996.2,570.6,1430.5,1691.9,3438.2,3435.8,717.5,1031.4,1346.7,1475.5,1270.3,928.8,-33.0,-39.0,1.0,9958.0,8386.0,-9588.0,-2647.0,55.0,2.0,-13.0,-5.0,-37.0,4.0,10335.0,12604.0,-1266.0,1077.0,34.0,5.0,-15.0,1.0
2022-05-06 11:28:34.014477-07:00,1867.4,545.8,1341.3,1471.8,978.2,1186.7,1522.7,1818.7,3438.2,3449.1,1537.6,1403.0,1396.7,3428.6,1033.2,1413.1,3437.0,3439.5,767.0,1425.9,986.7,575.4,1427.7,1688.1,3438.2,3435.8,717.5,1031.4,1347.6,1481.0,1277.4,927.9,-25.0,-34.0,6.0,9943.0,8409.0,-9585.0,-2643.0,47.0,10.0,-52.0,-5.0,-27.0,6.0,10328.0,12611.0,-1259.0,1073.0,14.0,3.0,-23.0,1.0
2022-05-06 11:28:34.132172-07:00,1867.4,545.8,1341.3,1471.8,978.2,1177.0,1518.0,1808.1,3438.2,3449.1,1537.6,1403.0,1405.8,3441.9,1040.9,1413.1,3428.6,3437.0,770.3,1434.1,986.7,575.4,1427.7,1688.1,3439.5,3443.1,720.8,1029.7,1347.6,1481.0,1277.4,927.9,-37.0,-44.0,5.0,9934.0,8434.0,-9573.0,-2642.0,46.0,15.0,-41.0,-13.0,-35.0,4.0,10321.0,12618.0,-1250.0,1067.0,28.0,6.0,-17.0,1.0
2022-05-06 11:28:34.311851-07:00,1860.6,551.4,1337.7,1485.6,978.2,1177.0,1518.0,1808.1,3435.8,3440.7,1534.8,1393.0,1405.8,3441.9,1040.9,1413.1,3428.6,3437.0,770.3,1434.1,988.5,576.2,1418.6,1679.5,3439.5,3443.1,720.8,1029.7,1351.2,1472.7,1276.5,935.6,-33.0,-43.0,1.0,9932.0,8442.0,-9568.0,-2642.0,-22.0,11.0,2.0,-9.0,-31.0,0.0,10323.0,12617.0,-1249.0,1065.0,-25.0,-4.0,4.0,1.0
2022-05-06 11:28:34.372765-07:00,1860.6,551.4,1337.7,1485.6,977.3,1185.9,1517.1,1802.3,3435.8,3440.7,1534.8,1393.0,1399.4,3440.7,1031.4,1408.5,3437.0,3435.8,769.5,1429.5,988.5,576.2,1418.6,1679.5,3441.9,3443.1,714.2,1034.0,1351.2,1472.7,1276.5,935.6,-31.0,-41.0,6.0,9940.0,8434.0,-9565.0,-2647.0,-11.0,-11.0,3.0,-6.0,-36.0,6.0,10330.0,12611.0,-1250.0,1065.0,-10.0,-1.0,4.0,1.0
2022-05-06 11:28:34.431903-07:00,1860.6,541.8,1341.3,1481.9,977.3,1185.9,1517.1,1802.3,3441.9,3443.1,1535.7,1399.4,1399.4,3440.7,1031.4,1408.5,3437.0,3435.8,769.5,1429.5,989.3,570.6,1420.4,1678.6,3441.9,3443.1,714.2,1034.0,1341.3,1483.8,1273.9,925.4,-24.0,-42.0,8.0,9937.0,8434.0,-9568.0,-2648.0,1.0,-11.0,5.0,-2.0,-31.0,4.0,10330.0,12611.0,-1250.0,1065.0,0.0,1.0,4.0,1.0
2022-05-06 11:28:34.582123-07:00,1867.4,541.8,1341.3,1481.9,976.5,1183.2,1512.5,1811.0,3433.4,3443.1,1535.7,1399.4,1401.2,3440.7,1038.3,1404.0,3435.8,3428.6,767.8,1433.2,989.3,570.6,1420.4,1688.1,3438.2,3444.3,720.0,1031.4,1341.3,1483.8,1273.9,934.7,-36.0,-43.0,6.0,9940.0,8427.0,-9570.0,-2650.0,-5.0,-10.0,10.0,-7.0,-38.0,8.0,10329.0,12611.0,-1250.0,1065.0,18.0,-2.0,-1.0,1.0
2022-05-06 11:28:34.822870-07:00,1867.4,549.8,1331.4,1480.1,976.5,1183.2,1512.5,1801.3,3433.4,3435.8,1539.4,1406.7,1401.2,3440.7,1038.3,1407.6,3439.5,3428.6,767.8,1433.2,985.0,576.2,1424.1,1688.1,3451.6,3444.3,720.0,1031.4,1345.8,1480.1,1281.0,934.7,-26.0,-26.0,4.0,9933.0,8432.0,-9575.0,-2646.0,-9.0,2.0,-1.0,-11.0,-23.0,0.0,10327.0,12613.0,-1248.0,1067.0,-18.0,-1.0,-1.0,1.0
2022-05-06 11:28:34.823616-07:00,1851.8,549.8,1331.4,1480.1,973.9,1182.3,1505.1,1801.3,3440.7,3435.8,1539.4,1406.7,1401.2,3449.1,1034.0,1407.6,3439.5,3434.6,772.0,1428.6,985.0,576.2,1424.1,1679.5,3451.6,3435.8,712.6,1028.8,1345.8,1480.1,1281.0,930.5,-32.0,-40.0,4.0,9943.0,8425.0,-9569.0,-2652.0,-7.0,8.0,-2.0,-11.0,-33.0,7.0,10335.0,12607.0,-1249.0,1066.0,-10.0,6.0,1.0,1.0
2022-05-06 11:28:34.824821-07:00,1856.7,545.0,1331.4,1475.5,982.5,1176.2,1506.9,1796.5,3437.0,3435.8,1534.8,1396.7,1399.4,3440.7,1044.4,1413.1,3439.5,3449.1,777.8,1434.1,989.3,569.0,1422.2,1680.5,3444.3,3447.9,718.4,1028.0,1346.7,1470.9,1278.3,925.4,-24.0,-41.0,8.0,9941.0,8434.0,-9564.0,-2651.0,25.0,7.0,1.0,-2.0,-36.0,4.0,10335.0,12607.0,-1248.0,1067.0,14.0,9.0,-1.0,1.0
2022-05-06 11:28:34.826050-07:00,1856.7,543.4,1329.6,1467.2,982.5,1176.2,1494.0,1794.5,3437.0,3439.5,1532.0,1403.0,1399.4,3440.7,1034.9,1404.9,3435.8,3449.1,777.8,1434.1,979.9,573.0,1420.4,1680.5,3449.1,3450.4,718.4,1028.0,1346.7,1468.1,1272.1,925.4,-29.0,-47.0,6.0,9942.0,8436.0,-9561.0,-2647.0,16.0,7.0,-3.0,-3.0,-38.0,13.0,10332.0,12609.0,-1247.0,1068.0,24.0,9.0,-3.0,1.0
2022-05-06 11:28:34.827236-07:00,1856.7,543.4,1329.6,1467.2,982.5,1176.2,1494.0,1794.5,3437.0,3439.5,1532.0,1403.0,1399.4,3440.7,1034.9,1404.9,3435.8,3449.1,777.8,1434.1,979.9,573.0,1420.4,1680.5,3449.1,3450.4,718.4,1028.0,1346.7,1468.1,1272.1,925.4,-29.0,-47.0,6.0,9942.0,8436.0,-9561.0,-2647.0,16.0,7.0,-3.0,-3.0,-38.0,13.0,10332.0,12609.0,-1247.0,1068.0,24.0,9.0,-3.0,1.0
2022-05-06 11:28:34.851956-07:00,1856.7,543.4,1329.6,1467.2,982.5,1176.2,1494.0,1794.5,3437.0,3439.5,1532.0,1403.0,1399.4,3440.7,1034.9,1404.9,3435.8,3449.1,777.8,1434.1,979.9,573.0,1420.4,1680.5,3449.1,3450.4,718.4,1028.0,1346.7,1468.1,1272.1,925.4,-29.0,-47.0,6.0,9942.0,8436.0,-9561.0,-2647.0,16.0,7.0,-3.0,-3.0,-38.0,13.0,10332.0,12609.0,-1247.0,1068.0,24.0,9.0,-3.0,1.0
2022-05-06 11:28:34.972301-07:00,1858.6,550.6,1324.1,1470.0,974.8,1192.9,1504.1,1782.9,3435.8,3443.1,1534.8,1404.9,1400.3,3433.4,1031.4,1410.3,3440.7,3438.2,767.8,1427.7,986.7,573.8,1418.6,1681.4,3441.9,3435.8,706.0,1022.8,1344.9,1473.6,1271.2,927.1,-28.0,-51.0,14.0,9908.0,8452.0,-9595.0,-2602.0,279.0,-77.0,123.0,0.0,-35.0,13.0,10275.0,12656.0,-1239.0,1080.0,284.0,29.0,-3.0,1.0
2022-05-06 11:28:35.032075-07:00,1854.7,550.6,1330.5,1470.0,977.3,1192.9,1504.1,1782.9,3439.5,3441.9,1529.2,1404.9,1396.7,3433.4,1031.4,1410.3,3440.7,3438.2,767.8,1428.6,986.7,570.6,1411.3,1684.3,3441.9,3435.8,706.0,1026.3,1344.9,1472.7,1286.4,924.5,-19.0,-22.0,-4.0,9849.0,8470.0,-9658.0,-2530.0,81.0,-71.0,120.0,-5.0,-24.0,-12.0,10200.0,12716.0,-1230.0,1094.0,145.0,2.0,16.0,1.0
2022-05-06 11:28:35.033061-07:00,1854.7,550.6,1330.5,1473.6,977.3,1189.4,1495.8,1781.0,3439.5,3441.9,1529.2,1398.5,1396.7,3439.5,1030.6,1404.0,3447.9,3437.0,771.1,1428.6,988.5,570.6,1411.3,1684.3,3445.5,3437.0,719.2,1026.3,1341.3,1472.7,1286.4,924.5,-34.0,-16.0,5.0,9839.0,8447.0,-9691.0,-2520.0,-69.0,-37.0,12.0,-14.0,-30.0,0.0,10193.0,12720.0,-1238.0,1092.0,-48.0,-27.0,9.0,1.0
2022-05-06 11:28:35.034178-07:00,1848.9,549.0,1316.9,1471.8,979.9,1189.4,1495.8,1781.0,3449.1,3443.1,1527.3,1403.0,1393.0,3439.5,1030.6,1404.0,3447.9,3437.0,771.1,1437.8,990.2,569.8,1418.6,1687.2,3445.5,3437.0,719.2,1021.1,1340.4,1478.3,1271.2,931.3,-35.0,-47.0,13.0,9845.0,8436.0,-9689.0,-2545.0,-5.0,-3.0,-21.0,-9.0,-37.0,10.0,10209.0,12708.0,-1244.0,1084.0,-14.0,-5.0,-6.0,1.0
2022-05-06 11:28:35.122457-07:00,1848.9,549.0,1316.9,1471.8,980.7,1173.5,1494.0,1772.3,3449.1,3443.1,1527.3,1403.0,1400.3,3440.7,1036.6,1409.4,3429.8,3438.2,766.2,1428.6,990.2,569.8,1418.6,1687.2,3441.9,3444.3,722.5,1021.1,1340.4,1478.3,1271.2,931.3,-24.0,-36.0,10.0,9847.0,8435.0,-9687.0,-2549.0,-43.0,5.0,-6.0,-4.0,-36.0,2.0,10214.0,12703.0,-1244.0,1084.0,-37.0,-8.0,7.0,1.0
2022-05-06 11:28:35.123574-07:00,1851.8,540.2,1325.9,1472.7,980.7,1173.5,1494.0,1772.3,3438.2,3438.2,1525.5,1393.9,1400.3,3440.7,1036.6,1409.4,3429.8,3438.2,766.2,1428.6,994.5,569.0,1417.6,1677.6,3441.9,3444.3,722.5,1021.1,1344.0,1481.0,1266.7,927.1,-22.0,-39.0,7.0,9851.0,8432.0,-9683.0,-2554.0,11.0,5.0,-8.0,4.0,-32.0,10.0,10218.0,12700.0,-1244.0,1084.0,-4.0,5.0,-2.0,1.0
2022-05-06 11:28:35.212815-07:00,1851.8,540.2,1325.9,1472.7,978.2,1170.9,1494.9,1782.9,3438.2,3438.2,1525.5,1393.9,1397.6,3438.2,1037.5,1408.5,3441.9,3441.9,769.5,1426.8,994.5,569.0,1417.6,1677.6,3450.4,3438.2,713.4,1019.4,1344.0,1481.0,1266.7,927.1,-28.0,-43.0,3.0,9854.0,8430.0,-9682.0,-2557.0,-9.0,-14.0,4.0,0.0,-36.0,7.0,10221.0,12698.0,-1244.0,1084.0,-6.0,2.0,-1.0,1.0
2022-05-06 11:28:35.213618-07:00,1848.9,545.0,1324.1,1472.7,978.2,1170.9,1494.9,1782.9,3444.3,3447.9,1523.6,1400.3,1397.6,3438.2,1037.5,1408.5,3441.9,3441.9,769.5,1426.8,984.2,571.4,1419.5,1683.3,3450.4,3438.2,713.4,1019.4,1344.0,1472.7,1273.0,929.6,-36.0,-20.0,-10.0,9837.0,8432.0,-9696.0,-2560.0,69.0,-129.0,-22.0,-9.0,-31.0,11.0,10210.0,12708.0,-1239.0,1082.0,58.0,-5.0,-24.0,1.0
2022-05-06 11:28:35.302220-07:00,1848.9,545.0,1324.1,1472.7,982.5,1177.9,1486.6,1775.2,3437.0,3447.9,1523.6,1400.3,1395.7,3435.8,1033.2,1403.0,3449.1,3437.0,769.5,1434.1,984.2,571.4,1419.5,1681.4,3450.4,3439.5,716.7,1023.7,1344.0,1472.7,1273.0,925.4,-29.0,-46.0,15.0,9787.0,8442.0,-9729.0,-2593.0,-18.0,-92.0,0.0,-13.0,-28.0,0.0,10202.0,12716.0,-1237.0,1069.0,8.0,-27.0,-15.0,1.0
2022-05-06 11:28:35.392156-07:00,1848.9,541.8,1323.2,1485.6,982.5,1177.9,1486.6,1757.0,3437.0,3441.9,1531.0,1405.8,1395.7,3435.8,1033.2,1406.7,3444.3,3437.0,769.5,1434.1,994.5,572.2,1411.3,1681.4,3444.3,3439.5,716.7,1023.7,1349.4,1481.9,1266.7,925.4,-35.0,-42.0,30.0,9787.0,8430.0,-9735.0,-2612.0,1.0,16.0,2.0,-8.0,-38.0,15.0,10210.0,12709.0,-1244.0,1064.0,-21.0,-2.0,10.0,1.0
2022-05-06 11:28:35.422184-07:00,1845.0,541.8,1323.2,1485.6,978.2,1174.4,1496.7,1757.0,3446.7,3441.9,1531.0,1405.8,1393.0,3438.2,1036.6,1406.7,3444.3,3439.5,770.3,1425.9,994.5,572.2,1411.3,1680.5,3444.3,3443.1,718.4,1021.1,1349.4,1481.9,1266.7,928.8,-24.0,-23.0,8.0,9787.0,8443.0,-9727.0,-2597.0,38.0,56.0,-17.0,-7.0,-23.0,0.0,10203.0,12714.0,-1237.0,1072.0,12.0,28.0,-8.0,1.0
2022-05-06 11:28:35.452800-07:00,1845.0,545.8,1324.1,1475.5,978.2,1174.4,1496.7,1767.5,3446.7,3440.7,1525.5,1395.7,1393.0,3438.2,1036.6,1402.1,3435.8,3439.5,770.3,1425.9,983.3,570.6,1411.3,1680.5,3444.3,3443.1,718.4,1021.1,1346.7,1478.3,1273.0,928.8,-36.0,-47.0,4.0,9794.0,8457.0,-9711.0,-2588.0,38.0,18.0,-10.0,-7.0,-34.0,9.0,10202.0,12715.0,-1232.0,1077.0,17.0,18.0,-7.0,1.0
2022-05-06 11:28:35.542172-07:00,1849.8,545.8,1324.1,1475.5,978.2,1179.7,1489.3,1767.5,3438.2,3440.7,1525.5,1395.7,1390.3,3433.4,1035.7,1402.1,3435.8,3428.6,769.5,1424.1,983.3,570.6,1411.3,1678.6,3444.3,3444.3,712.6,1015.1,1346.7,1478.3,1273.0,929.6,-23.0,-28.0,20.0,9795.0,8468.0,-9701.0,-2583.0,9.0,48.0,-41.0,-2.0,-38.0,9.0,10202.0,12715.0,-1229.0,1080.0,-15.0,12.0,-10.0,1.0
2022-05-06 11:28:35.602148-07:00,1849.8,548.2,1332.3,1480.1,978.2,1179.7,1489.3,1762.7,3438.2,3445.5,1530.1,1401.2,1390.3,3433.4,1035.7,1409.4,3438.2,3428.6,769.5,1424.1,985.9,569.0,1417.6,1678.6,3444.3,3444.3,712.6,1015.1,1338.6,1477.3,1273.0,929.6,-31.0,-37.0,4.0,9793.0,8511.0,-9665.0,-2583.0,79.0,43.0,-136.0,-7.0,-36.0,13.0,10206.0,12714.0,-1213.0,1078.0,14.0,16.0,-47.0,1.0
2022-05-06 11:28:35.901938-07:00,1848.9,543.4,1332.3,1480.1,975.6,1170.9,1484.7,1762.7,3443.1,3450.4,1530.1,1401.2,1393.9,3458.9,1036.6,1409.4,3438.2,3435.8,776.1,1425.9,985.9,569.0,1411.3,1678.6,3444.3,3444.3,716.7,1021.9,1338.6,1477.3,1273.9,925.4,-34.0,-41.0,-16.0,9749.0,8583.0,-9643.0,-2598.0,137.0,-63.0,-192.0,1.0,-49.0,3.0,10200.0,12721.0,-1193.0,1069.0,36.0,8.0,-51.0,1.0
2022-05-06 11:28:35.932080-07:00,1848.9,543.4,1320.5,1470.0,975.6,1170.9,1485.6,1754.1,3443.1,3450.4,1531.0,1398.5,1393.9,3458.9,1030.6,1402.1,3433.4,3449.1,776.1,1425.9,989.3,572.2,1411.3,1678.6,3444.3,3449.1,716.7,1021.9,1346.7,1478.3,1273.9,925.4,-23.0,-88.0,-69.0,9526.0,8779.0,-9676.0,-2646.0,883.0,-560.0,-544.0,14.0,-97.0,16.0,10105.0,12802.0,-1133.0,1076.0,523.0,140.0,-131.0,1.0
2022-05-06 11:28:35.992124-07:00,1852.8,545.0,1320.5,1470.0,989.3,1176.2,1485.6,1754.1,3439.5,3450.4,1531.0,1398.5,1396.7,3439.5,1030.6,1402.1,3433.4,3449.1,772.0,1433.2,989.3,572.2,1408.5,1683.3,3444.3,3449.1,715.1,1019.4,1346.7,1478.3,1269.4,928.8,-6.0,28.0,-2.0,8975.0,9262.0,-9764.0,-2602.0,1339.0,-604.0,-738.0,0.0,19.0,23.0,9870.0,12991.0,-1019.0,1102.0,659.0,103.0,-170.0,1.0
2022-05-06 11:28:36.052160-07:00,1852.8,545.0,1332.3,1475.5,989.3,1176.2,1469.0,1750.2,3439.5,3450.4,1523.6,1396.7,1396.7,3439.5,1011.6,1404.0,3435.8,3437.0,772.0,1433.2,987.6,571.4,1408.5,1683.3,3443.1,3439.5,715.1,1019.4,1343.1,1476.4,1269.4,928.8,-30.0,-27.0,96.0,8639.0,9585.0,-9732.0,-2688.0,306.0,-144.0,-683.0,-31.0,13.0,2.0,9758.0,13082.0,-938.0,1094.0,89.0,24.0,-135.0,1.0
2022-05-06 11:28:36.053474-07:00,1845.0,546.6,1332.3,1475.5,979.0,1180.6,1469.0,1750.2,3437.0,3435.8,1523.6,1396.7,1389.4,3445.5,1011.6,1404.0,3435.8,3437.0,774.5,1425.9,987.6,571.4,1393.9,1672.9,3443.1,3439.5,706.0,2972.3,1343.1,1476.4,1239.9,927.9,-55.0,-111.0,-18.0,8554.0,9750.0,-9620.0,-2767.0,299.0,-74.0,-342.0,-9.0,-64.0,9.0,9744.0,13096.0,-892.0,1094.0,145.0,68.0,-53.0,1.0
2022-05-06 11:28:36.054455-07:00,1845.0,546.6,1317.8,1464.4,979.0,1178.8,1459.8,1740.6,3437.0,3435.8,1512.5,1399.4,1389.4,3438.2,997.0,1396.7,3433.4,3438.2,773.6,1425.9,986.7,567.4,1393.9,1672.9,3445.5,3444.3,700.3,2972.3,1343.1,1470.9,1239.9,927.9,-35.0,-58.0,-49.0,8710.0,9314.0,-9603.0,-3690.0,-1773.0,-549.0,-80.0,-14.0,-13.0,21.0,10463.0,12521.0,-1203.0,856.0,-1597.0,-525.0,121.0,1.0
2022-05-06 11:28:36.055405-07:00,1848.9,554.6,1307.0,1469.0,983.3,1177.0,1453.4,1740.6,3440.7,3428.6,1502.3,1394.8,1391.2,3435.8,994.5,1402.1,3438.2,3433.4,773.6,1428.6,991.0,572.2,1374.8,1686.2,3451.6,3449.1,705.2,1028.8,1344.0,1461.7,1229.3,926.2,56.0,-130.0,71.0,8831.0,8960.0,-9666.0,-4092.0,-451.0,-470.0,312.0,25.0,-45.0,-52.0,10717.0,12298.0,-1345.0,734.0,-322.0,-314.0,80.0,1.0
2022-05-06 11:28:36.172693-07:00,1848.9,554.6,1307.0,1470.9,983.3,1182.3,1434.1,1732.0,3440.7,3428.6,1502.3,1403.0,1391.2,3437.0,994.5,1403.0,3432.2,3434.6,771.1,1428.6,991.0,572.2,1374.8,1686.2,3441.9,3437.0,711.0,1028.8,1349.4,1461.7,1229.3,926.2,10.0,7.0,8.0,8834.0,8851.0,-9786.0,-4036.0,127.0,-53.0,241.0,29.0,-55.0,-12.0,10710.0,12299.0,-1424.0,662.0,156.0,-181.0,-59.0,1.0
2022-05-06 11:28:36.174903-07:00,1841.1,541.8,1306.1,1470.9,978.2,1182.3,1434.1,1732.0,3435.8,3441.9,1498.6,1397.6,1390.3,3437.0,994.5,1403.0,3432.2,3434.6,771.1,1418.6,985.0,569.0,1372.1,1681.4,3441.9,3437.0,711.0,1026.3,1344.9,1457.1,1231.9,923.7,-14.0,-88.0,43.0,8814.0,8844.0,-9794.0,-4075.0,-120.0,-114.0,-108.0,21.0,-51.0,43.0,10686.0,12322.0,-1445.0,570.0,-5.0,-226.0,-135.0,1.0
2022-05-06 11:28:36.175812-07:00,1841.1,541.8,1306.1,1470.9,981.6,1182.3,1429.5,1717.7,3435.8,3441.9,1498.6,1397.6,1386.6,3443.1,990.2,1401.2,3438.2,3437.0,768.7,1420.4,985.0,569.0,1372.1,1681.4,3447.9,3449.1,697.9,1026.3,1344.9,1457.1,1231.9,923.7,-20.0,-127.0,72.0,8734.0,8857.0,-9833.0,-4127.0,133.0,-247.0,-78.0,12.0,-102.0,43.0,10666.0,12341.0,-1462.0,480.0,59.0,-146.0,-48.0,1.0
2022-05-06 11:28:36.179499-07:00,1836.2,546.6,1308.8,1468.1,981.6,1182.3,1429.5,1717.7,3438.2,3444.3,1500.4,1394.8,1386.6,3443.1,990.2,1401.2,3438.2,3437.0,768.7,1420.4,990.2,570.6,1365.7,1685.3,3447.9,3449.1,697.9,1026.3,1342.2,1456.2,1231.9,925.4,14.0,-47.0,35.0,8663.0,8867.0,-9861.0,-4185.0,46.0,-161.0,-99.0,0.0,4.0,-18.0,10662.0,12341.0,-1506.0,439.0,-115.0,-115.0,7.0,1.0
2022-05-06 11:28:36.232108-07:00,1836.2,546.6,1308.8,1468.1,976.5,1175.3,1420.4,1732.0,3438.2,3444.3,1500.4,1394.8,1386.6,3444.3,984.2,1403.0,3438.2,3443.1,764.5,1423.1,990.2,570.6,1365.7,1685.3,3447.9,3441.9,695.4,3112.5,1342.2,1456.2,1231.9,925.4,-83.0,11.0,72.0,8632.0,8871.0,-9865.0,-4234.0,54.0,-156.0,-299.0,-44.0,-131.0,47.0,10721.0,12288.0,-1538.0,372.0,-185.0,-65.0,-88.0,1.0
2022-05-06 11:28:36.562266-07:00,1831.3,546.6,1302.5,1466.3,976.5,1175.3,1420.4,1732.0,3439.5,3451.6,1500.4,1396.7,1386.6,3444.3,984.2,1403.0,3438.2,3443.1,764.5,1423.1,984.2,566.6,1367.6,1686.2,3447.9,3441.9,695.4,3112.5,1349.4,1460.8,1232.8,922.0,-63.0,-114.0,116.0,8522.0,9025.0,-9807.0,-4266.0,318.0,107.0,-358.0,-43.0,-62.0,41.0,10756.0,12261.0,-1505.0,378.0,-36.0,249.0,27.0,1.0
2022-05-06 11:28:36.652113-07:00,1831.3,546.6,1302.5,1466.3,973.9,1171.8,1413.1,1705.3,3439.5,3451.6,1500.4,1396.7,1387.5,3428.6,983.3,1400.3,3438.2,3440.7,767.0,1420.4,984.2,566.6,1367.6,1686.2,3441.9,3440.7,690.5,2263.1,1349.4,1460.8,1232.8,922.0,-47.0,-24.0,56.0,8543.0,9163.0,-9685.0,-4206.0,-12.0,456.0,-246.0,-22.0,-28.0,21.0,10793.0,12232.0,-1441.0,497.0,-106.0,360.0,215.0,1.0
2022-05-06 11:28:36.653385-07:00,1823.6,549.8,1302.5,1466.3,973.9,1171.8,1413.1,1686.2,3438.2,3441.9,1500.4,1394.8,1387.5,3428.6,983.3,1402.1,3434.6,3440.7,767.0,1420.4,985.0,569.8,1360.3,1684.3,3437.0,3440.7,690.5,2263.1,1338.6,1462.6,1228.4,933.0,-44.0,-40.0,25.0,8628.0,9312.0,-9498.0,-4132.0,167.0,510.0,-319.0,-1.0,-26.0,20.0,10824.0,12199.0,-1418.0,680.0,55.0,365.0,267.0,1.0
2022-05-06 11:28:36.802185-07:00,1832.3,549.8,1302.5,1466.3,981.6,1177.0,1404.9,1686.2,3446.7,3441.9,1500.4,1394.8,1380.3,3437.0,981.6,1402.1,3434.6,3438.2,772.0,1420.4,985.0,569.8,1360.3,1684.3,3437.0,3444.3,699.5,1570.2,1338.6,1462.6,1228.4,925.4,-23.0,-52.0,-25.0,8638.0,9488.0,-9370.0,-3999.0,442.0,370.0,-233.0,-4.0,-28.0,4.0,10787.0,12224.0,-1383.0,864.0,258.0,327.0,146.0,1.0
2022-05-06 11:28:36.805305-07:00,1832.3,550.6,1295.4,1472.7,981.6,1177.0,1404.9,1694.8,3446.7,3437.0,1490.3,1397.6,1380.3,3437.0,981.6,1401.2,3437.0,3438.2,772.0,1420.4,992.7,574.6,1354.0,1684.3,3441.9,3444.3,699.5,1570.2,1330.5,1465.4,1228.4,925.4,-29.0,-51.0,-14.0,8560.0,9695.0,-9279.0,-3883.0,406.0,262.0,-305.0,-10.0,-31.0,-6.0,10709.0,12288.0,-1326.0,995.0,226.0,243.0,47.0,1.0
2022-05-06 11:28:36.832803-07:00,1830.4,550.6,1295.4,1472.7,980.7,1182.3,1404.9,1694.8,3435.8,3437.0,1490.3,1397.6,1388.5,3437.0,984.2,1401.2,3437.0,3434.6,767.8,1418.6,992.7,574.6,1354.0,1681.4,3441.9,3446.7,697.0,3399.6,1330.5,1465.4,1228.4,930.5,-21.0,-79.0,-18.0,8492.0,9832.0,-9235.0,-3790.0,331.0,106.0,-46.0,8.0,-25.0,-3.0,10633.0,12353.0,-1262.0,1079.0,270.0,140.0,-11.0,1.0
2022-05-06 11:28:36.833715-07:00,1834.3,546.6,1295.4,1475.5,984.2,1173.5,1405.8,1702.4,3441.9,3438.2,1488.4,1391.2,1374.8,3438.2,975.6,1394.8,3433.4,3437.0,767.8,1414.0,995.3,570.6,1344.9,1685.3,3439.5,3438.2,694.6,1206.2,1343.1,1457.1,1223.9,933.0,-31.0,-42.0,17.0,8472.0,9828.0,-9260.0,-3783.0,-209.0,-30.0,26.0,-8.0,-31.0,10.0,10596.0,12387.0,-1244.0,1082.0,-160.0,-50.0,-3.0,1.0
2022-05-06 11:28:36.834305-07:00,1834.3,546.6,1295.4,1475.5,984.2,1173.5,1405.8,1702.4,3441.9,3438.2,1488.4,1391.2,1374.8,3438.2,975.6,1394.8,3433.4,3437.0,767.8,1414.0,995.3,570.6,1344.9,1685.3,3439.5,3438.2,694.6,1206.2,1343.1,1457.1,1223.9,933.0,-31.0,-42.0,17.0,8472.0,9828.0,-9260.0,-3783.0,-209.0,-30.0,26.0,-8.0,-31.0,10.0,10596.0,12387.0,-1244.0,1082.0,-160.0,-50.0,-3.0,1.0
2022-05-06 11:28:36.835544-07:00,1822.6,550.6,1287.3,1470.0,974.8,1163.8,1393.0,1691.9,3438.2,3439.5,1484.7,1398.5,1385.7,3439.5,976.5,1396.7,3434.6,3439.5,757.9,1420.4,990.2,572.2,1338.6,1675.7,3438.2,3447.9,694.6,3468.6,1351.2,1457.1,1223.9,926.2,-25.0,74.0,-33.0,8483.0,9799.0,-9220.0,-3930.0,-155.0,-190.0,-512.0,-2.0,1.0,-17.0,10698.0,12300.0,-1276.0,1035.0,-309.0,-68.0,-108.0,1.0
2022-05-06 11:28:36.862125-07:00,1822.6,550.6,1290.0,1468.1,974.8,1163.8,1397.6,1688.1,3438.2,3439.5,1488.4,1397.6,1385.7,3439.5,971.3,1394.8,3441.9,3435.8,757.9,1420.4,994.5,572.2,1338.6,1675.7,3449.1,3434.6,694.6,3468.6,1342.2,1455.2,1223.9,926.2,-4.0,-134.0,60.0,8175.0,10030.0,-8963.0,-4546.0,79.0,-348.0,-485.0,-6.0,-43.0,5.0,10881.0,12161.0,-1212.0,832.0,-161.0,-96.0,-195.0,1.0
2022-05-06 11:28:36.863193-07:00,1834.3,551.4,1292.7,1469.0,975.6,1175.3,1379.4,1692.9,3443.1,3444.3,1492.1,1401.2,1383.0,3438.2,973.1,1394.8,3433.4,3427.4,768.7,1416.7,995.3,571.4,1341.3,1684.3,3440.7,3438.2,696.2,1015.1,1339.5,1462.6,1221.3,937.3,-45.0,15.0,31.0,8073.0,10107.0,-8857.0,-4761.0,-249.0,-285.0,-679.0,-16.0,-25.0,33.0,10950.0,12107.0,-1176.0,755.0,-286.0,-65.0,-149.0,1.0
2022-05-06 11:28:36.922703-07:00,1832.3,550.6,1290.9,1469.0,973.1,1163.8,1379.4,1692.9,3446.7,3440.7,1495.8,1401.2,1380.3,3449.1,973.1,1394.8,3433.4,3427.4,765.3,1426.8,995.3,573.8,1339.5,1682.4,3440.7,3438.2,697.0,1017.6,1339.5,1457.1,1223.9,925.4,-15.0,-96.0,57.0,7929.0,10231.0,-8728.0,-4971.0,195.0,-160.0,-618.0,-5.0,-37.0,7.0,10995.0,12071.0,-1148.0,712.0,-1.0,4.0,-78.0,1.0
2022-05-06 11:28:36.982012-07:00,1832.3,550.6,1290.9,1470.9,973.1,1175.3,1379.4,1668.2,3446.7,3440.7,1495.8,1402.1,1380.3,3438.2,968.8,1396.7,3449.1,3438.2,767.0,1426.8,1005.6,573.8,1339.5,1682.4,3437.0,3444.3,693.8,1017.6,1344.9,1457.1,1223.9,925.4,-14.0,-33.0,45.0,7797.0,10374.0,-8617.0,-5076.0,61.0,-41.0,-558.0,-4.0,-31.0,12.0,11002.0,12069.0,-1115.0,692.0,-30.0,56.0,-106.0,1.0
2022-05-06 11:28:37.012824-07:00,1825.5,545.0,1297.2,1470.9,980.7,1175.3,1379.4,1668.2,3440.7,3444.3,1499.5,1402.1,1385.7,3438.2,968.8,1396.7,3449.1,3438.2,767.0,1436.9,1005.6,572.2,1338.6,1684.3,3437.0,3444.3,693.8,1012.5,1344.9,1464.4,1219.5,923.7,-29.0,-125.0,41.0,7677.0,10509.0,-8503.0,-5174.0,296.0,-110.0,-436.0,-10.0,-53.0,20.0,10997.0,12079.0,-1065.0,676.0,195.0,41.0,-105.0,1.0
2022-05-06 11:28:37.072263-07:00,1825.5,545.0,1297.2,1462.6,980.7,1170.9,1368.5,1660.6,3440.7,3444.3,1499.5,1395.7,1385.7,3435.8,966.2,1403.0,3438.2,3432.2,765.3,1436.9,998.7,572.2,1338.6,1684.3,3445.5,3437.0,692.9,1012.5,1338.6,1464.4,1219.5,923.7,-16.0,-84.0,50.0,7556.0,10607.0,-8495.0,-5165.0,194.0,33.0,-70.0,-4.0,-25.0,2.0,10941.0,12134.0,-1021.0,670.0,134.0,31.0,-50.0,1.0
2022-05-06 11:28:37.132377-07:00,1826.5,554.6,1283.7,1462.6,980.7,1170.9,1368.5,1660.6,3443.1,3445.5,1496.7,1395.7,1377.5,3435.8,966.2,1403.0,3438.2,3432.2,765.3,1444.2,998.7,569.0,1340.4,1686.2,3445.5,3437.0,692.9,1009.0,1338.6,1457.1,1223.9,923.7,-31.0,-75.0,18.0,7556.0,10631.0,-8507.0,-5095.0,59.0,107.0,102.0,-18.0,-28.0,5.0,10910.0,12163.0,-1007.0,673.0,37.0,20.0,6.0,1.0
2022-05-06 11:28:37.162189-07:00,1826.5,554.6,1283.7,1466.3,975.6,1178.8,1371.2,1659.6,3443.1,3445.5,1496.7,1403.0,1387.5,3446.7,973.1,1402.1,3438.2,3439.5,769.5,1443.3,993.6,569.0,1340.4,1686.2,3440.7,3438.2,692.9,1006.5,1335.0,1457.1,1223.9,923.7,-16.0,-87.0,41.0,7569.0,10629.0,-8521.0,-5056.0,49.0,68.0,115.0,-11.0,-28.0,-2.0,10894.0,12177.0,-1005.0,683.0,67.0,6.0,12.0,1.0
2022-05-06 11:28:37.222812-07:00,1829.4,548.2,1292.7,1469.0,975.6,1178.8,1371.2,1659.6,3437.0,3435.8,1492.1,1403.0,1387.5,3446.7,973.1,1402.1,3438.2,3439.5,769.5,1443.3,991.9,573.8,1335.0,1688.1,3440.7,3438.2,692.9,1006.5,1346.7,1455.2,1223.0,925.4,-25.0,-104.0,42.0,7647.0,10592.0,-8542.0,-4980.0,-72.0,262.0,368.0,-9.0,-58.0,30.0,10886.0,12182.0,-1020.0,693.0,-17.0,12.0,84.0,1.0
2022-05-06 11:28:37.312104-07:00,1829.4,548.2,1292.7,1469.0,979.9,1168.2,1363.0,1640.7,3437.0,3435.8,1492.1,1403.0,1382.1,3440.7,964.5,1395.7,3438.2,3438.2,762.9,1438.7,991.9,573.8,1335.0,1688.1,3444.3,3439.5,701.1,1007.3,1346.7,1455.2,1223.0,925.4,-39.0,-57.0,30.0,7717.0,10545.0,-8615.0,-4846.0,196.0,98.0,363.0,-5.0,-31.0,8.0,10860.0,12202.0,-1040.0,728.0,218.0,23.0,81.0,1.0
2022-05-06 11:28:37.313249-07:00,1819.7,549.0,1280.1,1462.6,979.9,1168.2,1363.0,1640.7,3428.6,3441.9,1489.3,1401.2,1382.1,3440.7,964.5,1395.7,3438.2,3438.2,762.9,1438.7,991.9,573.8,1334.1,1680.5,3444.3,3439.5,701.1,1007.3,1339.5,1453.4,1227.5,924.5,0.0,-99.0,22.0,7778.0,10491.0,-8715.0,-4684.0,3.0,291.0,537.0,7.0,-63.0,14.0,10796.0,12255.0,-1054.0,770.0,126.0,60.0,104.0,1.0
2022-05-06 11:28:37.672199-07:00,1819.7,549.0,1280.1,1462.6,987.6,1168.2,1359.4,1640.7,3428.6,3441.9,1489.3,1401.2,1380.3,3439.5,968.8,1398.5,3444.3,3445.5,762.0,1432.3,991.9,573.8,1334.1,1680.5,3443.1,3438.2,690.5,1006.5,1339.5,1453.4,1227.5,924.5,-34.0,3.0,-2.0,7858.0,10419.0,-8807.0,-4536.0,56.0,8.0,270.0,1.0,-13.0,0.0,10754.0,12287.0,-1071.0,819.0,148.0,46.0,69.0,1.0
2022-05-06 11:28:37.673674-07:00,1814.9,549.0,1281.0,1463.5,987.6,1168.2,1359.4,1630.3,3443.1,3445.5,1490.3,1404.9,1380.3,3439.5,968.8,1398.5,3439.5,3445.5,762.0,1432.3,995.3,573.0,1328.7,1688.1,3437.0,3438.2,690.5,1006.5,1344.9,1459.8,1217.7,927.1,8.0,-104.0,72.0,7936.0,10352.0,-8863.0,-4445.0,-161.0,368.0,442.0,4.0,-49.0,15.0,10713.0,12320.0,-1072.0,852.0,13.0,71.0,57.0,1.0
2022-05-06 11:28:37.852284-07:00,1817.8,549.0,1281.0,1463.5,973.9,1170.9,1354.9,1630.3,3446.7,3445.5,1490.3,1404.9,1377.5,3440.7,967.1,1398.5,3439.5,3437.0,757.1,1428.6,995.3,573.0,1328.7,1682.4,3437.0,3443.1,687.2,1100.8,1344.9,1459.8,1217.7,923.7,-32.0,5.0,29.0,8097.0,10261.0,-8903.0,-4281.0,-66.0,196.0,434.0,-4.0,2.0,-3.0,10694.0,12334.0,-1072.0,896.0,253.0,74.0,19.0,1.0
2022-05-06 11:28:37.853739-07:00,1817.8,549.8,1282.8,1472.7,973.9,1170.9,1354.9,1637.9,3446.7,3440.7,1488.4,1396.7,1377.5,3440.7,967.1,1401.2,3439.5,3437.0,757.1,1428.6,988.5,576.2,1332.3,1682.4,3441.9,3443.1,687.2,1100.8,1347.6,1458.0,1220.4,923.7,44.0,-265.0,106.0,8380.0,10078.0,-8923.0,-4124.0,-795.0,1071.0,940.0,32.0,-136.0,67.0,10628.0,12389.0,-1056.0,937.0,-244.0,110.0,151.0,1.0
2022-05-06 11:28:37.912580-07:00,1844.0,549.8,1282.8,1472.7,973.9,1171.8,1354.0,1637.9,3438.2,3440.7,1488.4,1396.7,1377.5,3433.4,964.5,1401.2,3439.5,3438.2,761.2,1420.4,988.5,576.2,1332.3,1679.5,3441.9,3444.3,691.3,1023.7,1347.6,1458.0,1220.4,923.7,-83.0,11.0,-77.0,8743.0,9832.0,-8997.0,-3792.0,258.0,112.0,906.0,-12.0,-39.0,-5.0,10600.0,12404.0,-1069.0,1031.0,499.0,115.0,129.0,1.0
2022-05-06 11:28:37.913600-07:00,1844.0,553.8,1285.5,1471.8,973.9,1171.8,1354.0,1658.7,3438.2,3443.1,1496.7,1410.3,1377.5,3433.4,964.5,1395.7,3435.8,3438.2,761.2,1420.4,989.3,572.2,1335.0,1679.5,3439.5,3444.3,691.3,1023.7,1344.0,1455.2,1218.6,923.7,-7.0,-111.0,91.0,9031.0,9451.0,-9291.0,-3351.0,-105.0,339.0,556.0,0.0,-41.0,18.0,10410.0,12553.0,-1082.0,1150.0,139.0,42.0,48.0,1.0
2022-05-06 11:28:37.914736-07:00,1837.2,553.8,1283.7,1466.3,974.8,1173.5,1426.8,1695.7,3435.8,3437.0,1509.7,1398.5,1389.4,3438.2,962.8,1404.0,3435.8,3433.4,761.2,1423.1,992.7,571.4,1332.3,1682.4,3445.5,3438.2,694.6,1021.9,1353.1,1450.6,1222.2,923.7,-26.0,-42.0,43.0,9212.0,9304.0,-9353.0,-3090.0,87.0,460.0,809.0,2.0,-47.0,21.0,10338.0,12607.0,-1085.0,1206.0,408.0,100.0,109.0,1.0
2022-05-06 11:28:37.917128-07:00,1826.5,547.4,1280.1,1466.3,974.8,1168.2,1600.2,1849.8,3439.5,3445.5,1494.9,1399.4,1390.3,3449.1,966.2,1395.7,3433.4,3440.7,768.7,1422.2,991.0,569.0,1325.0,1685.3,3443.1,3444.3,697.0,1009.9,1347.6,1449.7,1223.9,929.6,-19.0,-33.0,-26.0,9736.0,8772.0,-9611.0,-2083.0,-14.0,249.0,744.0,-10.0,-42.0,-18.0,9911.0,12923.0,-1025.0,1472.0,341.0,114.0,77.0,1.0
2022-05-06 11:28:38.032775-07:00,1825.5,553.8,1275.6,1466.3,973.1,1166.5,1600.2,1849.8,3438.2,3434.6,1489.3,1399.4,1396.7,3444.3,966.2,1395.7,3433.4,3440.7,767.8,1426.8,991.0,569.0,1328.7,1689.1,3443.1,3444.3,699.5,1000.5,1347.6,1461.7,1228.4,936.4,-39.0,4.0,3.0,9777.0,8668.0,-9709.0,-1858.0,201.0,56.0,504.0,-11.0,-18.0,11.0,9813.0,12990.0,-1022.0,1530.0,279.0,89.0,87.0,1.0
2022-05-06 11:28:38.092575-07:00,1825.5,553.8,1275.6,1466.3,973.1,1168.2,1636.0,1872.3,3438.2,3434.6,1489.3,1399.4,1396.7,3435.8,963.7,1402.1,3440.7,3440.7,776.9,1426.8,990.2,569.0,1328.7,1689.1,3433.4,3449.1,691.3,1000.5,1342.2,1461.7,1228.4,936.4,-18.0,-86.0,-2.0,9852.0,8486.0,-9820.0,-1715.0,-262.0,152.0,722.0,-7.0,-50.0,-20.0,9729.0,13045.0,-1016.0,1599.0,129.0,107.0,133.0,1.0
2022-05-06 11:28:38.095016-07:00,1815.8,550.6,1276.5,1466.3,974.8,1168.2,1636.0,1872.3,3440.7,3438.2,1500.4,1399.4,1401.2,3435.8,963.7,1402.1,3440.7,3440.7,776.9,1430.5,990.2,571.4,1321.4,1679.5,3433.4,3449.1,691.3,1003.0,1342.2,1461.7,1215.1,936.4,-31.0,-8.0,13.0,9938.0,8289.0,-9935.0,-1499.0,24.0,141.0,683.0,-3.0,-38.0,17.0,9677.0,13073.0,-1048.0,1672.0,186.0,59.0,155.0,1.0
2022-05-06 11:28:38.152075-07:00,1815.8,550.6,1276.5,1469.0,974.8,1164.7,1665.3,1879.1,3440.7,3438.2,1500.4,1399.4,1401.2,3441.9,962.0,1399.4,3439.5,3439.5,781.1,1430.5,991.9,571.4,1321.4,1679.5,3450.4,3440.7,696.2,1003.0,1344.9,1461.7,1215.1,936.4,0.0,-45.0,39.0,9997.0,8123.0,-10042.0,-1294.0,15.0,190.0,683.0,1.0,-34.0,-8.0,9596.0,13123.0,-1061.0,1736.0,227.0,88.0,114.0,1.0
2022-05-06 11:28:38.153635-07:00,1820.7,557.0,1275.6,1469.0,971.3,1164.7,1665.3,1879.1,3438.2,3435.8,1495.8,1399.4,1405.8,3441.9,962.0,1399.4,3439.5,3439.5,781.1,1436.9,991.9,576.2,1321.4,1677.6,3450.4,3440.7,696.2,998.7,1344.9,1450.6,1219.5,940.7,-25.0,-2.0,-24.0,10102.0,7964.0,-10094.0,-1029.0,114.0,374.0,617.0,0.0,-49.0,11.0,9534.0,13159.0,-1065.0,1803.0,182.0,94.0,101.0,1.0
2022-05-06 11:28:38.392138-07:00,1820.7,557.0,1275.6,1470.9,971.3,1169.1,1722.4,1923.3,3438.2,3435.8,1495.8,1399.4,1405.8,3437.0,958.5,1396.7,3432.2,3441.9,787.7,1436.9,1001.3,576.2,1321.4,1677.6,3441.9,3449.1,694.6,998.7,1342.2,1450.6,1219.5,940.7,-15.0,-43.0,16.0,10172.0,7860.0,-10126.0,-809.0,17.0,264.0,499.0,-2.0,-35.0,3.0,9449.0,13214.0,-1053.0,1850.0,260.0,73.0,30.0,1.0
2022-05-06 11:28:38.395009-07:00,1823.6,550.6,1275.6,1466.3,977.3,1169.1,1722.4,1923.3,3440.7,3449.1,1494.9,1413.1,1406.7,3437.0,958.5,1396.7,3432.2,3441.9,787.7,1448.8,1008.2,580.2,1316.9,1683.3,3441.9,3449.1,694.6,997.9,1344.9,1449.7,1226.6,956.0,-41.0,13.0,-16.0,10270.0,7705.0,-10162.0,-576.0,-11.0,342.0,624.0,-9.0,-26.0,2.0,9335.0,13290.0,-1027.0,1900.0,327.0,104.0,45.0,1.0
2022-05-06 11:28:38.395869-07:00,1823.6,550.6,1275.6,1466.3,977.3,1166.5,1761.8,1955.8,3440.7,3449.1,1494.9,1413.1,1426.8,3426.2,959.4,1398.5,3438.2,3433.4,786.9,1476.4,1008.2,580.2,1316.9,1683.3,3435.8,3447.9,704.4,1004.8,1344.9,1449.7,1226.6,956.0,-44.0,-29.0,-46.0,10335.0,7570.0,-10205.0,-414.0,-65.0,71.0,400.0,-5.0,-34.0,-7.0,9246.0,13348.0,-1002.0,1947.0,220.0,90.0,19.0,1.0
2022-05-06 11:28:38.396687-07:00,1834.3,549.8,1273.9,1467.2,977.3,1166.5,1761.8,1955.8,3439.5,3441.9,1498.6,1408.5,1426.8,3426.2,959.4,1398.5,3438.2,3433.4,786.9,1476.4,1024.5,581.0,1326.8,1677.6,3435.8,3447.9,704.4,1004.8,1344.0,1447.9,1223.9,961.1,-31.0,8.0,-12.0,10330.0,7461.0,-10294.0,-325.0,11.0,-50.0,372.0,-7.0,-26.0,-6.0,9186.0,13384.0,-998.0,1982.0,107.0,42.0,63.0,1.0
2022-05-06 11:28:38.422045-07:00,1834.3,549.8,1273.9,1467.2,983.3,1163.8,1769.5,1955.8,3439.5,3441.9,1498.6,1408.5,1421.3,3449.1,958.5,1402.1,3438.2,3439.5,793.5,1489.3,1024.5,581.0,1326.8,1677.6,3439.5,3440.7,693.8,1000.5,1344.0,1447.9,1223.9,961.1,-15.0,-5.0,14.0,10317.0,7402.0,-10350.0,-297.0,-19.0,-99.0,33.0,0.0,-28.0,7.0,9174.0,13389.0,-1006.0,2000.0,11.0,-2.0,12.0,1.0
2022-05-06 11:28:38.451907-07:00,1828.4,543.4,1276.5,1464.4,983.3,1163.8,1769.5,1955.8,3441.9,3449.1,1496.7,1396.7,1421.3,3449.1,958.5,1402.1,3438.2,3439.5,793.5,1489.3,1019.4,585.9,1325.0,1681.4,3439.5,3440.7,693.8,1000.5,1344.0,1465.4,1220.4,973.1,-44.0,-10.0,-4.0,10313.0,7400.0,-10355.0,-303.0,31.0,29.0,15.0,-8.0,-34.0,18.0,9174.0,13389.0,-1006.0,2000.0,6.0,9.0,2.0,1.0
2022-05-06 11:28:38.542078-07:00,1833.3,543.4,1276.5,1464.4,978.2,1170.9,1767.5,1947.9,3445.5,3449.1,1496.7,1396.7,1416.7,3437.0,958.5,1401.2,3445.5,3446.7,787.7,1482.9,1019.4,585.9,1325.0,1686.2,3451.6,3437.0,692.9,1000.5,1344.0,1465.4,1220.4,972.2,-24.0,-37.0,13.0,10282.0,7435.0,-10361.0,-289.0,165.0,-51.0,-33.0,2.0,-37.0,4.0,9150.0,13405.0,-1000.0,2004.0,97.0,-1.0,-10.0,1.0
2022-05-06 11:28:38.572032-07:00,1833.3,549.0,1264.0,1480.1,978.2,1170.9,1767.5,1940.0,3445.5,3437.0,1496.7,1412.2,1416.7,3437.0,958.5,1400.3,3429.8,3446.7,787.7,1482.9,1011.6,587.5,1320.5,1686.2,3444.3,3437.0,692.9,1000.5,1345.8,1458.0,1224.8,972.2,-41.0,-12.0,-16.0,10248.0,7467.0,-10372.0,-275.0,35.0,-61.0,-29.0,-6.0,-31.0,6.0,9134.0,13416.0,-999.0,2004.0,-3.0,-14.0,3.0,1.0
2022-05-06 11:28:38.602077-07:00,1826.5,549.0,1264.0,1480.1,982.5,1163.0,1756.0,1940.0,3443.1,3437.0,1496.7,1412.2,1417.6,3438.2,960.2,1400.3,3429.8,3439.5,795.2,1481.0,1011.6,587.5,1320.5,1688.1,3444.3,3441.9,694.6,997.0,1345.8,1458.0,1224.8,975.6,-24.0,-37.0,13.0,10223.0,7471.0,-10393.0,-298.0,-13.0,-58.0,26.0,-4.0,-38.0,4.0,9133.0,13417.0,-1001.0,2001.0,-2.0,-9.0,9.0,1.0
2022-05-06 11:28:38.871656-07:00,1826.5,552.2,1267.6,1458.9,982.5,1163.0,1756.0,1931.1,3443.1,3439.5,1496.7,1400.3,1417.6,3438.2,960.2,1400.3,3440.7,3439.5,795.2,1481.0,1018.5,586.7,1323.2,1688.1,3444.3,3441.9,694.6,997.0,1346.7,1456.2,1215.1,975.6,-25.0,12.0,3.0,10209.0,7479.0,-10402.0,-287.0,43.0,-27.0,-38.0,-3.0,-28.0,6.0,9124.0,13424.0,-999.0,2001.0,16.0,0.0,-17.0,1.0
2022-05-06 11:28:38.873924-07:00,1821.6,552.2,1267.6,1458.9,976.5,1160.3,1748.3,1931.1,3438.2,3439.5,1496.7,1400.3,1422.2,3435.8,956.0,1400.3,3440.7,3437.0,797.7,1476.4,1018.5,586.7,1323.2,1684.3,3444.3,3440.7,694.6,996.2,1346.7,1456.2,1215.1,976.5,-35.0,-31.0,1.0,10211.0,7489.0,-10392.0,-290.0,26.0,28.0,5.0,-9.0,-26.0,8.0,9121.0,13426.0,-993.0,2000.0,20.0,14.0,-9.0,1.0
2022-05-06 11:28:38.902184-07:00,1821.6,550.6,1262.2,1470.0,976.5,1160.3,1745.4,1926.2,3438.2,3438.2,1494.0,1402.1,1422.2,3435.8,952.6,1397.6,3439.5,3438.2,797.7,1476.4,1015.9,587.5,1321.4,1684.3,3449.1,3446.7,694.6,996.2,1338.6,1454.3,1214.2,976.5,-32.0,-19.0,-14.0,10202.0,7495.0,-10398.0,-287.0,18.0,-26.0,3.0,-10.0,-32.0,0.0,9114.0,13431.0,-990.0,2003.0,2.0,-4.0,3.0,1.0
2022-05-06 11:28:38.905521-07:00,1827.5,557.8,1262.2,1470.0,971.3,1163.0,1745.4,1926.2,3439.5,3438.2,1494.0,1402.1,1420.4,3438.2,952.6,1397.6,3439.5,3438.2,797.7,1478.3,1015.9,587.5,1325.0,1674.8,3449.1,3446.7,690.5,997.9,1338.6,1454.3,1215.1,979.9,-33.0,-16.0,-3.0,10168.0,7510.0,-10419.0,-295.0,24.0,-106.0,-4.0,-10.0,-19.0,6.0,9109.0,13435.0,-994.0,1997.0,7.0,-19.0,-1.0,1.0
2022-05-06 11:28:38.906327-07:00,1827.5,557.8,1264.9,1468.1,971.3,1163.0,1736.8,1920.3,3439.5,3438.2,1493.0,1400.3,1420.4,3438.2,960.2,1399.4,3431.0,3435.8,797.7,1478.3,1021.9,589.1,1325.0,1674.8,3444.3,3446.7,690.5,997.9,1344.9,1449.7,1215.1,979.9,-27.0,-18.0,3.0,10145.0,7495.0,-10451.0,-330.0,-47.0,-123.0,11.0,-9.0,-31.0,5.0,9113.0,13433.0,-998.0,1992.0,-27.0,-12.0,4.0,1.0
2022-05-06 11:28:38.906981-07:00,1822.6,545.8,1264.9,1468.1,978.2,1164.7,1736.8,1920.3,3435.8,3441.9,1493.0,1400.3,1418.6,3431.0,960.2,1399.4,3431.0,3435.8,793.5,1471.8,1021.9,589.1,1316.9,1679.5,3444.3,3446.7,692.9,997.0,1344.9,1449.7,1211.5,974.8,-24.0,-23.0,9.0,10106.0,7493.0,-10489.0,-371.0,-15.0,-177.0,-23.0,-5.0,-34.0,4.0,9123.0,13426.0,-1007.0,1981.0,-29.0,-33.0,2.0,1.0
2022-05-06 11:28:38.991966-07:00,1822.6,545.8,1257.8,1463.5,978.2,1164.7,1722.4,1914.4,3435.8,3441.9,1489.3,1403.0,1418.6,3431.0,950.0,1399.4,3433.4,3437.0,793.5,1471.8,1017.6,589.1,1316.9,1679.5,3438.2,3440.7,692.9,997.0,1350.3,1452.5,1211.5,974.8,-29.0,-6.0,28.0,10083.0,7485.0,-10517.0,-383.0,1.0,-25.0,41.0,-6.0,-27.0,19.0,9123.0,13427.0,-1012.0,1975.0,-4.0,0.0,-1.0,1.0
2022-05-06 11:28:39.022057-07:00,1820.7,548.2,1257.8,1463.5,977.3,1163.8,1722.4,1914.4,3437.0,3438.2,1489.3,1403.0,1424.1,3444.3,950.0,1399.4,3433.4,3437.0,796.0,1466.3,1017.6,589.1,1315.1,1671.9,3438.2,3440.7,695.4,993.6,1350.3,1452.5,1213.3,967.1,-27.0,-9.0,8.0,10081.0,7490.0,-10515.0,-382.0,19.0,23.0,-28.0,-6.0,-26.0,6.0,9120.0,13429.0,-1009.0,1977.0,-4.0,15.0,-10.0,1.0
2022-05-06 11:28:39.051952-07:00,1820.7,548.2,1264.9,1470.9,977.3,1169.1,1722.4,1907.5,3437.0,3438.2,1491.2,1404.0,1424.1,3441.9,949.2,1403.0,3445.5,3437.0,798.5,1466.3,1015.1,584.3,1315.1,1671.9,3444.3,3443.1,687.2,993.6,1343.1,1453.4,1213.3,967.1,-30.0,-22.0,2.0,10080.0,7505.0,-10505.0,-381.0,38.0,2.0,-22.0,-5.0,-22.0,8.0,9116.0,13432.0,-1006.0,1976.0,14.0,3.0,-9.0,1.0
2022-05-06 11:28:39.112494-07:00,1818.7,549.8,1256.9,1470.9,975.6,1169.1,1722.4,1907.5,3447.9,3444.3,1485.6,1404.0,1428.6,3441.9,949.2,1403.0,3445.5,3437.0,798.5,1469.0,1015.1,589.9,1327.8,1682.4,3444.3,3443.1,687.2,993.6,1343.1,1449.7,1213.3,973.9,-27.0,-4.0,-1.0,10093.0,7502.0,-10495.0,-391.0,-76.0,38.0,-35.0,-9.0,-35.0,12.0,9131.0,13422.0,-1008.0,1975.0,-79.0,-6.0,-7.0,1.0
2022-05-06 11:28:39.172026-07:00,1818.7,549.8,1256.9,1466.3,975.6,1160.3,1718.6,1909.5,3447.9,3444.3,1485.6,1400.3,1428.6,3435.8,952.6,1398.5,3438.2,3441.9,796.0,1469.0,1014.2,589.9,1327.8,1682.4,3438.2,3437.0,687.2,993.6,1346.7,1449.7,1213.3,973.9,-31.0,-35.0,0.0,10093.0,7506.0,-10491.0,-406.0,59.0,-50.0,-5.0,-4.0,-31.0,8.0,9134.0,13420.0,-1009.0,1973.0,62.0,-7.0,-10.0,1.0
2022-05-06 11:28:39.441930-07:00,1822.6,544.2,1255.1,1466.3,979.0,1160.3,1718.6,1909.5,3443.1,3433.4,1484.7,1400.3,1418.6,3435.8,952.6,1398.5,3438.2,3441.9,796.0,1463.5,1014.2,582.6,1311.5,1675.7,3438.2,3437.0,687.2,997.0,1346.7,1446.0,1215.1,988.5,-25.0,-7.0,6.0,10079.0,7513.0,-10500.0,-399.0,-16.0,16.0,-11.0,-8.0,-29.0,9.0,9125.0,13426.0,-1008.0,1974.0,-24.0,-2.0,-4.0,1.0
2022-05-06 11:28:39.443392-07:00,1822.6,544.2,1255.1,1462.6,979.0,1167.4,1718.6,1902.6,3443.1,3433.4,1484.7,1403.0,1418.6,3439.5,955.1,1396.7,3441.9,3434.6,795.2,1463.5,1020.2,582.6,1311.5,1675.7,3445.5,3444.3,684.0,997.0,1350.3,1446.0,1215.1,988.5,-25.0,-26.0,7.0,10079.0,7526.0,-10491.0,-403.0,65.0,6.0,-22.0,-7.0,-26.0,5.0,9123.0,13427.0,-1006.0,1973.0,48.0,8.0,-11.0,1.0
2022-05-06 11:28:39.502129-07:00,1820.7,548.2,1263.1,1467.2,979.9,1167.4,1718.6,1902.6,3449.1,3440.7,1482.9,1404.9,1426.8,3439.5,955.1,1396.7,3441.9,3434.6,795.2,1462.6,1009.9,580.2,1311.5,1686.2,3445.5,3444.3,684.0,995.3,1337.7,1445.1,1216.8,971.3,-32.0,-22.0,-12.0,10085.0,7534.0,-10478.0,-394.0,-35.0,38.0,-17.0,-11.0,-40.0,9.0,9125.0,13427.0,-1005.0,1972.0,-32.0,3.0,-1.0,1.0
2022-05-06 11:28:39.503644-07:00,1820.7,548.2,1263.1,1467.2,979.9,1156.8,1710.0,1894.8,3449.1,3440.7,1482.9,1404.9,1430.5,3441.9,952.6,1397.6,3437.0,3437.0,795.2,1466.3,1009.9,580.2,1311.5,1686.2,3443.1,3433.4,688.9,994.5,1337.7,1445.1,1216.8,971.3,-17.0,-26.0,-1.0,10074.0,7536.0,-10489.0,-397.0,27.0,-64.0,30.0,-7.0,-39.0,0.0,9121.0,13429.0,-1004.0,1972.0,24.0,-6.0,6.0,1.0
2022-05-06 11:28:39.504673-07:00,1820.7,545.0,1258.7,1462.6,979.9,1156.8,1710.0,1894.8,3433.4,3439.5,1483.8,1401.2,1430.5,3441.9,952.6,1397.6,3437.0,3437.0,795.2,1466.3,1016.8,580.2,1313.3,1679.5,3443.1,3433.4,688.9,994.5,1345.8,1446.0,1208.0,967.1,-23.0,-7.0,14.0,10064.0,7533.0,-10500.0,-398.0,-42.0,22.0,-12.0,-5.0,-29.0,16.0,9128.0,13425.0,-1005.0,1972.0,-37.0,3.0,-2.0,1.0
2022-05-06 11:28:39.505625-07:00,1820.7,545.0,1258.7,1462.6,972.2,1160.3,1710.0,1888.9,3433.4,3439.5,1483.8,1401.2,1415.8,3439.5,945.8,1401.2,3435.8,3429.8,793.5,1463.5,1016.8,580.2,1313.3,1679.5,3449.1,3446.7,684.8,989.3,1345.8,1446.0,1208.0,967.1,-22.0,-21.0,-5.0,10072.0,7533.0,-10492.0,-401.0,64.0,-11.0,-14.0,-6.0,-31.0,7.0,9123.0,13428.0,-1003.0,1971.0,54.0,5.0,-10.0,1.0
2022-05-06 11:28:39.507169-07:00,1820.7,545.8,1257.8,1461.7,972.2,1160.3,1710.0,1888.9,3434.6,3446.7,1481.0,1398.5,1415.8,3439.5,945.8,1401.2,3435.8,3429.8,793.5,1463.5,1009.9,585.9,1315.1,1681.4,3449.1,3446.7,684.8,989.3,1346.7,1447.9,1210.6,973.9,-21.0,-4.0,-1.0,10051.0,7559.0,-10495.0,-388.0,12.0,-4.0,-31.0,-6.0,-32.0,7.0,9118.0,13433.0,-999.0,1966.0,-26.0,-18.0,-14.0,1.0
2022-05-06 11:28:39.562284-07:00,1820.7,545.8,1257.8,1461.7,977.3,1165.6,1702.4,1880.1,3434.6,3446.7,1481.0,1398.5,1437.8,3440.7,949.2,1401.2,3435.8,3440.7,798.5,1464.4,1009.9,585.9,1315.1,1681.4,3446.7,3441.9,687.2,990.2,1346.7,1447.9,1210.6,973.9,-25.0,-13.0,8.0,10052.0,7568.0,-10486.0,-398.0,-8.0,43.0,-26.0,-12.0,-21.0,15.0,9128.0,13426.0,-1000.0,1961.0,-26.0,-6.0,-10.0,1.0
2022-05-06 11:28:39.621927-07:00,1817.8,549.0,1252.4,1461.7,977.3,1165.6,1702.4,1886.0,3434.6,3443.1,1484.7,1406.7,1437.8,3440.7,949.2,1396.7,3437.0,3440.7,798.5,1464.4,1015.9,581.8,1314.2,1677.6,3444.3,3441.9,687.2,990.2,1342.2,1450.6,1210.6,974.8,-24.0,-20.0,-3.0,10062.0,7569.0,-10476.0,-401.0,-10.0,-25.0,-13.0,-9.0,-31.0,9.0,9136.0,13421.0,-1001.0,1961.0,-12.0,-1.0,0.0,1.0
2022-05-06 11:28:39.741961-07:00,1815.8,549.0,1252.4,1461.7,983.3,1159.4,1702.4,1886.0,3438.2,3443.1,1484.7,1406.7,1414.9,3439.5,947.5,1396.7,3437.0,3438.2,792.7,1463.5,1015.9,581.8,1314.2,1686.2,3444.3,3443.1,686.4,988.5,1342.2,1450.6,1210.6,969.6,-14.0,2.0,12.0,10051.0,7569.0,-10486.0,-403.0,-20.0,11.0,18.0,-7.0,-24.0,6.0,9131.0,13425.0,-1000.0,1961.0,-4.0,-5.0,1.0,1.0
2022-05-06 11:28:39.742987-07:00,1815.8,544.2,1258.7,1461.7,983.3,1159.4,1702.4,1882.0,3438.2,3437.0,1482.9,1401.2,1414.9,3439.5,947.5,1395.7,3438.2,3438.2,792.7,1463.5,1009.9,581.0,1317.8,1686.2,3447.9,3443.1,686.4,988.5,1347.6,1452.5,1211.5,969.6,-26.0,-26.0,-5.0,10064.0,7564.0,-10476.0,-412.0,4.0,-3.0,-28.0,-7.0,-35.0,13.0,9138.0,13420.0,-1000.0,1960.0,7.0,0.0,-7.0,1.0
2022-05-06 11:28:39.772533-07:00,1820.7,544.2,1258.7,1461.7,982.5,1156.8,1702.4,1882.0,3444.3,3437.0,1482.9,1401.2,1416.7,3447.9,953.4,1395.7,3438.2,3439.5,797.7,1468.1,1009.9,581.0,1317.8,1679.5,3447.9,3443.1,684.0,997.9,1347.6,1452.5,1211.5,967.9,-18.0,-18.0,6.0,10047.0,7572.0,-10487.0,-418.0,13.0,-54.0,13.0,-10.0,-32.0,5.0,9130.0,13425.0,-999.0,1958.0,13.0,-12.0,-3.0,1.0
2022-05-06 11:28:40.012699-07:00,1820.7,546.6,1256.9,1467.2,982.5,1156.8,1702.4,1872.3,3444.3,3444.3,1487.5,1406.7,1416.7,3447.9,953.4,1397.6,3433.4,3439.5,797.7,1468.1,1011.6,580.2,1316.0,1679.5,3439.5,3443.1,684.0,997.9,1342.2,1457.1,1213.3,967.9,-27.0,-9.0,10.0,10040.0,7574.0,-10492.0,-418.0,0.0,33.0,-30.0,-7.0,-31.0,17.0,9133.0,13424.0,-1001.0,1955.0,-17.0,-12.0,-5.0,1.0
2022-05-06 11:28:40.013854-07:00,1817.8,550.6,1256.9,1467.2,984.2,1157.7,1704.3,1872.3,3433.4,3443.1,1487.5,1406.7,1426.8,3443.1,948.3,1397.6,3433.4,3433.4,791.0,1458.0,1011.6,580.2,1313.3,1676.7,3439.5,3432.2,685.6,989.3,1342.2,1457.1,1210.6,972.2,-24.0,-29.0,2.0,10043.0,7578.0,-10487.0,-422.0,-22.0,-27.0,29.0,-8.0,-37.0,3.0,9133.0,13424.0,-1000.0,1954.0,3.0,8.0,2.0,1.0
2022-05-06 11:28:40.015051-07:00,1817.8,550.6,1245.3,1457.1,984.2,1157.7,1697.6,1872.3,3433.4,3443.1,1483.8,1398.5,1426.8,3443.1,948.3,1393.0,3432.2,3435.8,791.0,1458.0,1007.3,589.1,1313.3,1676.7,3438.2,3444.3,685.6,989.3,1344.0,1449.7,1210.6,972.2,-19.0,0.0,3.0,10041.0,7568.0,-10496.0,-418.0,-24.0,-2.0,0.0,-6.0,-30.0,12.0,9134.0,13423.0,-1004.0,1957.0,-17.0,-4.0,12.0,1.0
2022-05-06 11:28:40.017107-07:00,1806.1,545.8,1245.3,1457.1,988.5,1162.1,1697.6,1872.3,3439.5,3443.1,1483.8,1398.5,1425.0,3435.8,948.3,1393.0,3432.2,3435.8,793.5,1459.8,1007.3,589.1,1311.5,1688.1,3438.2,3444.3,682.3,988.5,1344.0,1449.7,1206.2,968.8,-23.0,-17.0,15.0,10044.0,7565.0,-10496.0,-419.0,10.0,19.0,18.0,-11.0,-29.0,10.0,9139.0,13420.0,-1005.0,1957.0,-2.0,7.0,7.0,1.0
2022-05-06 11:28:40.072630-07:00,1806.1,545.8,1249.7,1467.2,988.5,1162.1,1691.0,1882.0,3439.5,3443.1,1485.6,1409.4,1425.0,3435.8,949.2,1395.7,3435.8,3429.8,793.5,1459.8,1015.1,585.9,1311.5,1688.1,3441.9,3441.9,682.3,988.5,1346.7,1450.6,1206.2,968.8,-23.0,-12.0,-2.0,10049.0,7565.0,-10491.0,-413.0,18.0,-1.0,-20.0,-6.0,-33.0,8.0,9140.0,13418.0,-1003.0,1959.0,3.0,4.0,-6.0,1.0
2022-05-06 11:28:40.073237-07:00,1806.1,545.8,1249.7,1467.2,988.5,1162.1,1691.0,1882.0,3439.5,3443.1,1485.6,1409.4,1425.0,3435.8,949.2,1395.7,3435.8,3429.8,793.5,1459.8,1015.1,585.9,1311.5,1688.1,3441.9,3441.9,682.3,988.5,1346.7,1450.6,1206.2,968.8,-23.0,-12.0,-2.0,10049.0,7565.0,-10491.0,-413.0,18.0,-1.0,-20.0,-6.0,-33.0,8.0,9140.0,13418.0,-1003.0,1959.0,3.0,4.0,-6.0,1.0
2022-05-06 11:28:40.101748-07:00,1811.0,544.2,1251.5,1455.2,973.1,1155.9,1689.1,1873.2,3437.0,3434.6,1486.6,1404.9,1425.0,3443.1,949.2,1389.4,3439.5,3439.5,796.0,1463.5,1014.2,582.6,1314.2,1680.5,3449.1,3444.3,688.0,985.0,1338.6,1454.3,1208.0,969.6,-20.0,-7.0,10.0,10027.0,7576.0,-10504.0,-407.0,6.0,28.0,-3.0,-15.0,-27.0,2.0,9120.0,13433.0,-994.0,1955.0,16.0,-1.0,1.0,1.0
2022-05-06 11:28:40.162646-07:00,1814.9,550.6,1255.1,1455.2,977.3,1155.9,1689.1,1873.2,3439.5,3440.7,1479.2,1404.9,1419.5,3443.1,949.2,1389.4,3439.5,3439.5,796.0,1461.7,1014.2,575.4,1309.7,1693.8,3449.1,3444.3,688.0,986.7,1338.6,1448.8,1202.7,972.2,-27.0,-23.0,-11.0,10038.0,7575.0,-10494.0,-414.0,0.0,-19.0,-19.0,-9.0,-34.0,10.0,9128.0,13428.0,-996.0,1954.0,-22.0,-13.0,-5.0,1.0
2022-05-06 11:28:40.401989-07:00,1814.9,550.6,1255.1,1460.8,977.3,1156.8,1690.0,1874.2,3439.5,3440.7,1479.2,1404.9,1419.5,3440.7,945.8,1395.7,3437.0,3433.4,795.2,1461.7,1013.3,575.4,1309.7,1693.8,3432.2,3440.7,691.3,986.7,1338.6,1448.8,1202.7,972.2,-20.0,-20.0,4.0,10021.0,7582.0,-10505.0,-418.0,60.0,-68.0,-2.0,-5.0,-31.0,8.0,9119.0,13435.0,-997.0,1944.0,49.0,-33.0,-17.0,1.0
2022-05-06 11:28:40.403270-07:00,1802.3,544.2,1248.8,1460.8,980.7,1156.8,1690.0,1874.2,3449.1,3432.2,1481.9,1404.9,1420.4,3440.7,945.8,1395.7,3437.0,3433.4,795.2,1460.8,1013.3,581.8,1300.7,1684.3,3432.2,3440.7,691.3,991.0,1338.6,1448.8,1199.1,970.5,-17.0,-5.0,24.0,9990.0,7601.0,-10522.0,-398.0,57.0,16.0,13.0,-7.0,-25.0,4.0,9091.0,13455.0,-992.0,1942.0,73.0,16.0,-4.0,1.0
2022-05-06 11:28:40.521922-07:00,1802.3,544.2,1248.8,1464.4,980.7,1161.2,1691.9,1881.1,3449.1,3432.2,1481.9,1396.7,1420.4,3438.2,947.5,1393.0,3441.9,3439.5,791.0,1460.8,1015.9,581.8,1300.7,1684.3,3449.1,3444.3,682.3,991.0,1344.9,1448.8,1199.1,970.5,-27.0,-24.0,-5.0,9999.0,7608.0,-10508.0,-395.0,-41.0,35.0,-46.0,-12.0,-32.0,9.0,9092.0,13454.0,-991.0,1944.0,-41.0,2.0,-8.0,1.0
2022-05-06 11:28:40.612954-07:00,1810.0,544.2,1257.8,1464.4,979.9,1161.2,1691.9,1881.1,3444.3,3443.1,1480.1,1396.7,1418.6,3438.2,947.5,1393.0,3441.9,3439.5,791.0,1455.2,1015.9,584.3,1309.7,1675.7,3449.1,3444.3,682.3,991.0,1344.9,1450.6,1209.7,969.6,-19.0,-12.0,1.0,9994.0,7607.0,-10513.0,-396.0,36.0,-40.0,29.0,-6.0,-31.0,8.0,9087.0,13457.0,-990.0,1944.0,39.0,1.0,2.0,1.0
2022-05-06 11:28:40.642575-07:00,1810.0,544.2,1257.8,1461.7,974.8,1161.2,1685.3,1875.2,3444.3,3443.1,1480.1,1408.5,1420.4,3443.1,951.7,1395.7,3446.7,3437.0,791.0,1455.2,1000.5,584.3,1309.7,1675.7,3441.9,3445.5,688.9,987.6,1347.6,1450.6,1209.7,969.6,-25.0,-16.0,14.0,9994.0,7605.0,-10515.0,-399.0,-28.0,28.0,-20.0,-6.0,-26.0,11.0,9092.0,13454.0,-991.0,1944.0,-39.0,-4.0,-2.0,1.0
2022-05-06 11:28:40.643759-07:00,1812.9,552.2,1254.2,1465.4,974.8,1161.2,1685.3,1875.2,3444.3,3435.8,1476.4,1396.7,1420.4,3443.1,951.7,1395.7,3446.7,3437.0,791.0,1455.2,1006.5,583.5,1313.3,1679.5,3441.9,3445.5,688.9,987.6,1344.0,1448.8,1202.7,974.8,-22.0,-16.0,-4.0,9991.0,7611.0,-10514.0,-397.0,33.0,-37.0,3.0,-9.0,-31.0,12.0,9087.0,13457.0,-990.0,1944.0,30.0,6.0,-5.0,1.0
2022-05-06 11:28:40.644943-07:00,1812.9,552.2,1254.2,1465.4,974.8,1163.0,1691.9,1873.2,3444.3,3435.8,1476.4,1396.7,1420.4,3449.1,944.1,1393.0,3443.1,3444.3,791.0,1454.3,1006.5,583.5,1313.3,1679.5,3437.0,3433.4,675.8,991.9,1344.0,1448.8,1202.7,974.8,-17.0,-16.0,8.0,9985.0,7609.0,-10520.0,-403.0,-28.0,-6.0,7.0,-8.0,-34.0,7.0,9086.0,13458.0,-990.0,1944.0,-15.0,-2.0,4.0,1.0
2022-05-06 11:28:40.646986-07:00,1809.0,541.8,1249.7,1464.4,974.8,1163.0,1691.9,1873.2,3441.9,3444.3,1477.3,1403.0,1420.4,3449.1,944.1,1393.0,3443.1,3444.3,791.0,1454.3,1006.5,582.6,1306.1,1685.3,3437.0,3433.4,675.8,991.9,1344.9,1444.2,1208.0,970.5,-22.0,-19.0,2.0,9986.0,7608.0,-10519.0,-406.0,3.0,-5.0,-11.0,-10.0,-31.0,15.0,9090.0,13455.0,-991.0,1944.0,6.0,6.0,-4.0,1.0
2022-05-06 11:28:40.672057-07:00,1809.0,541.8,1249.7,1464.4,974.8,1163.0,1691.9,1873.2,3441.9,3444.3,1477.3,1403.0,1420.4,3449.1,944.1,1393.0,3443.1,3444.3,791.0,1454.3,1006.5,582.6,1306.1,1685.3,3437.0,3433.4,675.8,991.9,1344.9,1444.2,1208.0,970.5,-22.0,-19.0,2.0,9986.0,7608.0,-10519.0,-406.0,3.0,-5.0,-11.0,-10.0,-31.0,15.0,9090.0,13455.0,-991.0,1944.0,6.0,6.0,-4.0,1.0
2022-05-06 11:28:40.702152-07:00,1814.9,544.2,1254.2,1461.7,979.9,1156.8,1694.8,1873.2,3441.9,3443.1,1493.0,1399.4,1407.6,3441.9,948.3,1392.1,3441.9,3434.6,800.2,1447.9,1009.9,583.5,1307.0,1681.4,3441.9,3438.2,685.6,993.6,1346.7,1447.0,1200.9,966.2,-24.0,-17.0,-5.0,9976.0,7618.0,-10522.0,-407.0,36.0,-10.0,-11.0,-9.0,-34.0,16.0,9082.0,13461.0,-990.0,1944.0,29.0,10.0,-5.0,1.0
2022-05-06 11:28:40.761862-07:00,1814.9,543.4,1251.5,1463.5,979.9,1156.8,1694.8,1872.3,3441.9,3445.5,1480.1,1404.9,1407.6,3441.9,948.3,1393.9,3434.6,3434.6,800.2,1447.9,1007.3,575.4,1310.6,1681.4,3444.3,3438.2,685.6,993.6,1341.3,1446.0,1205.3,966.2,-20.0,-9.0,10.0,9965.0,7621.0,-10530.0,-411.0,-19.0,-20.0,7.0,-12.0,-30.0,8.0,9078.0,13464.0,-989.0,1945.0,-8.0,-8.0,-1.0,1.0
2022-05-06 11:28:40.822553-07:00,1813.9,543.4,1251.5,1463.5,982.5,1155.0,1691.9,1872.3,3439.5,3445.5,1480.1,1404.9,1413.1,3449.1,947.5,1393.9,3434.6,3440.7,796.9,1459.8,1007.3,575.4,1310.6,1678.6,3444.3,3438.2,692.1,986.7,1341.3,1446.0,1205.3,973.9,-27.0,-11.0,9.0,9970.0,7619.0,-10527.0,-416.0,7.0,19.0,-22.0,-8.0,-33.0,17.0,9081.0,13462.0,-988.0,1943.0,4.0,3.0,-14.0,1.0
2022-05-06 11:28:40.852642-07:00,1813.9,547.4,1250.6,1457.1,982.5,1155.0,1691.9,1872.3,3439.5,3433.4,1473.6,1401.2,1413.1,3449.1,947.5,1399.4,3431.0,3440.7,796.9,1459.8,1009.0,581.0,1306.1,1678.6,3438.2,3438.2,692.1,986.7,1347.6,1446.0,1197.4,973.9,-20.0,-23.0,1.0,9971.0,7623.0,-10523.0,-421.0,-23.0,9.0,-3.0,-8.0,-38.0,7.0,9083.0,13460.0,-987.0,1945.0,-19.0,5.0,-1.0,1.0
2022-05-06 11:28:41.121938-07:00,1804.2,542.6,1250.6,1457.1,977.3,1155.0,1691.0,1872.3,3438.2,3441.9,1473.6,1401.2,1415.8,3443.1,949.2,1399.4,3431.0,3438.2,793.5,1462.6,1009.0,581.0,1301.6,1680.5,3438.2,3446.7,684.0,994.5,1347.6,1446.0,1202.7,970.5,-24.0,-9.0,8.0,9974.0,7621.0,-10521.0,-424.0,-24.0,10.0,-14.0,-12.0,-27.0,7.0,9089.0,13456.0,-988.0,1944.0,-21.0,-4.0,-6.0,1.0
2022-05-06 11:28:41.123522-07:00,1804.2,542.6,1245.3,1459.8,977.3,1155.0,1682.4,1864.5,3438.2,3441.9,1475.5,1395.7,1415.8,3443.1,944.9,1394.8,3435.8,3428.6,793.5,1462.6,1006.5,582.6,1301.6,1680.5,3444.3,3444.3,684.0,994.5,1343.1,1447.0,1202.7,970.5,-27.0,-18.0,2.0,9979.0,7621.0,-10517.0,-427.0,6.0,-2.0,5.0,-12.0,-34.0,18.0,9090.0,13455.0,-988.0,1944.0,13.0,-2.0,0.0,1.0
2022-05-06 11:28:41.124352-07:00,1812.9,547.4,1245.3,1459.8,976.5,1155.9,1682.4,1864.5,3435.8,3440.7,1475.5,1395.7,1423.1,3428.6,944.9,1394.8,3435.8,3428.6,792.7,1457.1,1006.5,582.6,1307.0,1673.8,3444.3,3444.3,688.0,985.9,1343.1,1447.0,1205.3,970.5,-21.0,-12.0,5.0,9972.0,7625.0,-10521.0,-426.0,8.0,-7.0,6.0,-7.0,-26.0,6.0,9082.0,13461.0,-987.0,1945.0,13.0,1.0,-1.0,1.0
2022-05-06 11:28:41.125986-07:00,1812.9,547.4,1245.3,1462.6,976.5,1155.9,1679.5,1864.5,3435.8,3440.7,1481.9,1398.5,1423.1,3428.6,949.2,1392.1,3433.4,3433.4,792.7,1457.1,1004.8,582.6,1307.0,1673.8,3444.3,3440.7,688.0,985.9,1354.9,1447.9,1205.3,970.5,-28.0,-26.0,6.0,9969.0,7627.0,-10521.0,-423.0,31.0,-14.0,7.0,-10.0,-30.0,17.0,9071.0,13468.0,-985.0,1945.0,65.0,-4.0,-7.0,1.0
2022-05-06 11:28:41.151314-07:00,1806.1,545.0,1245.3,1462.6,969.6,1156.8,1679.5,1864.5,3434.6,3439.5,1481.9,1398.5,1421.3,3437.0,949.2,1392.1,3433.4,3433.4,792.7,1447.9,1004.8,582.6,1319.6,1681.4,3444.3,3440.7,688.0,986.7,1354.9,1447.9,1208.9,974.8,-17.0,-7.0,5.0,9950.0,7631.0,-10537.0,-414.0,17.0,-36.0,13.0,-9.0,-26.0,-3.0,9053.0,13481.0,-983.0,1947.0,11.0,1.0,1.0,1.0
2022-05-06 11:28:41.152734-07:00,1806.1,545.0,1243.5,1468.1,969.6,1156.8,1683.3,1878.1,3434.6,3439.5,1481.9,1399.4,1421.3,3437.0,941.5,1396.7,3432.2,3428.6,792.7,1447.9,1007.3,582.6,1319.6,1681.4,3443.1,3431.0,688.0,986.7,1342.2,1447.9,1208.9,974.8,-25.0,-23.0,12.0,9947.0,7635.0,-10537.0,-417.0,21.0,-2.0,-5.0,-10.0,-30.0,15.0,9054.0,13480.0,-983.0,1947.0,16.0,1.0,-5.0,1.0
2022-05-06 11:28:41.242059-07:00,1809.0,547.4,1244.4,1468.1,969.6,1154.2,1683.3,1878.1,3443.1,3433.4,1481.0,1399.4,1419.5,3439.5,941.5,1396.7,3432.2,3428.6,788.6,1455.2,1007.3,575.4,1304.3,1699.5,3443.1,3431.0,680.7,986.7,1342.2,1444.2,1210.6,968.8,-18.0,-5.0,7.0,9950.0,7635.0,-10534.0,-410.0,-18.0,41.0,-3.0,-14.0,-27.0,8.0,9054.0,13479.0,-979.0,1952.0,-22.0,10.0,1.0,1.0
2022-05-06 11:28:41.243135-07:00,1809.0,547.4,1244.4,1462.6,969.6,1154.2,1674.8,1865.4,3443.1,3433.4,1481.0,1399.4,1419.5,3445.5,950.0,1395.7,3435.8,3443.1,788.6,1455.2,1009.9,575.4,1304.3,1699.5,3437.0,3444.3,688.0,986.7,1342.2,1444.2,1210.6,968.8,-24.0,-15.0,-2.0,9961.0,7634.0,-10525.0,-415.0,-14.0,-1.0,-12.0,-14.0,-35.0,8.0,9063.0,13473.0,-979.0,1953.0,-12.0,3.0,-3.0,1.0
2022-05-06 11:28:41.512730-07:00,1809.0,552.2,1251.5,1462.6,982.5,1154.2,1674.8,1865.4,3435.8,3437.0,1473.6,1399.4,1414.9,3445.5,950.0,1395.7,3435.8,3443.1,788.6,1460.8,1009.9,576.2,1305.2,1671.9,3437.0,3444.3,688.0,991.9,1342.2,1448.8,1208.0,971.3,-26.0,-21.0,6.0,9960.0,7631.0,-10528.0,-417.0,34.0,-19.0,16.0,-10.0,-39.0,17.0,9060.0,13475.0,-979.0,1953.0,38.0,-5.0,0.0,1.0
2022-05-06 11:28:41.514244-07:00,1809.0,552.2,1251.5,1461.7,982.5,1153.3,1680.5,1852.8,3435.8,3437.0,1473.6,1395.7,1414.9,3438.2,937.3,1389.4,3435.8,3432.2,786.1,1460.8,1007.3,576.2,1305.2,1671.9,3440.7,3443.1,683.1,991.9,1347.6,1448.8,1208.0,971.3,-21.0,-5.0,11.0,9953.0,7627.0,-10537.0,-421.0,-64.0,-11.0,3.0,-14.0,-33.0,9.0,9057.0,13477.0,-979.0,1953.0,-31.0,-2.0,5.0,1.0
2022-05-06 11:28:41.514997-07:00,1804.2,549.0,1262.2,1461.7,971.3,1153.3,1680.5,1852.8,3439.5,3444.3,1480.1,1395.7,1414.9,3438.2,937.3,1389.4,3435.8,3432.2,786.1,1470.9,1007.3,574.6,1307.9,1681.4,3440.7,3443.1,683.1,985.0,1347.6,1441.5,1203.5,967.9,-17.0,-19.0,8.0,9953.0,7615.0,-10545.0,-430.0,-14.0,-27.0,30.0,-9.0,-27.0,4.0,9060.0,13475.0,-979.0,1953.0,0.0,4.0,5.0,1.0
2022-05-06 11:28:41.542057-07:00,1804.2,549.0,1262.2,1460.8,982.5,1155.9,1680.5,1864.5,3439.5,3444.3,1480.1,1396.7,1418.6,3433.4,950.0,1395.7,3439.5,3435.8,791.0,1447.9,1006.5,574.6,1307.9,1681.4,3440.7,3439.5,684.8,981.6,1340.4,1441.5,1203.5,967.9,-21.0,-11.0,6.0,9964.0,7601.0,-10545.0,-440.0,-42.0,11.0,-5.0,-8.0,-30.0,12.0,9070.0,13469.0,-981.0,1952.0,-24.0,-1.0,0.0,1.0
2022-05-06 11:28:41.543205-07:00,1804.2,547.4,1254.2,1461.7,982.5,1155.9,1680.5,1864.5,3443.1,3444.3,1468.1,1397.6,1418.6,3433.4,950.0,1395.7,3439.5,3435.8,791.0,1447.9,1005.6,574.6,1309.7,1693.8,3440.7,3439.5,684.8,981.6,1340.4,1445.1,1203.5,969.6,-24.0,-11.0,1.0,9965.0,7598.0,-10545.0,-442.0,-1.0,4.0,-7.0,-11.0,-31.0,6.0,9070.0,13468.0,-981.0,1952.0,-7.0,0.0,3.0,1.0
2022-05-06 11:28:41.543722-07:00,1804.2,547.4,1254.2,1461.7,982.5,1155.9,1680.5,1864.5,3443.1,3444.3,1468.1,1397.6,1418.6,3433.4,950.0,1395.7,3439.5,3435.8,791.0,1447.9,1005.6,574.6,1309.7,1693.8,3440.7,3439.5,684.8,981.6,1340.4,1445.1,1203.5,969.6,-24.0,-11.0,1.0,9965.0,7598.0,-10545.0,-442.0,-1.0,4.0,-7.0,-11.0,-31.0,6.0,9070.0,13468.0,-981.0,1952.0,-7.0,0.0,3.0,1.0
2022-05-06 11:28:41.602846-07:00,1802.3,540.2,1248.0,1461.7,973.9,1153.3,1677.6,1870.3,3444.3,3434.6,1475.5,1403.0,1426.8,3437.0,946.6,1396.7,3437.0,3428.6,792.7,1460.8,1009.9,581.0,1308.8,1681.4,3444.3,3438.2,687.2,987.6,1347.6,1450.6,1200.0,974.8,-24.0,-4.0,1.0,9966.0,7606.0,-10539.0,-439.0,-18.0,23.0,-16.0,-13.0,-27.0,19.0,9072.0,13467.0,-981.0,1952.0,-27.0,1.0,-3.0,1.0
2022-05-06 11:28:41.662485-07:00,1802.3,540.2,1248.0,1461.7,978.2,1164.7,1671.9,1865.4,3444.3,3434.6,1475.5,1403.0,1414.9,3444.3,950.9,1399.4,3441.9,3446.7,793.5,1456.2,1009.9,581.0,1308.8,1681.4,3445.5,3449.1,679.1,979.9,1347.6,1450.6,1200.0,974.8,-25.0,-18.0,-2.0,9964.0,7608.0,-10540.0,-442.0,19.0,-29.0,15.0,-11.0,-28.0,9.0,9070.0,13468.0,-981.0,1952.0,12.0,-8.0,4.0,1.0
2022-05-06 11:28:41.722151-07:00,1811.9,543.4,1246.2,1459.8,978.2,1164.7,1671.9,1865.4,3440.7,3445.5,1476.4,1401.2,1414.9,3444.3,950.9,1399.4,3441.9,3446.7,793.5,1456.2,1004.8,583.5,1307.9,1681.4,3445.5,3449.1,679.1,979.9,1344.9,1444.2,1201.8,964.5,-20.0,-21.0,12.0,9953.0,7606.0,-10551.0,-447.0,0.0,-33.0,11.0,-7.0,-28.0,14.0,9068.0,13470.0,-980.0,1952.0,21.0,2.0,5.0,1.0
2022-05-06 11:28:41.752005-07:00,1811.0,543.4,1246.2,1459.8,978.2,1149.8,1675.7,1867.4,3444.3,3445.5,1476.4,1401.2,1407.6,3439.5,947.5,1397.6,3432.2,3439.5,792.7,1453.4,1004.8,583.5,1307.9,1681.4,3438.2,3443.1,683.1,985.0,1344.9,1444.2,1201.8,966.2,-24.0,-15.0,7.0,9955.0,7591.0,-10560.0,-452.0,-63.0,-8.0,24.0,-10.0,-35.0,11.0,9066.0,13471.0,-982.0,1953.0,-10.0,-1.0,14.0,1.0
2022-05-06 11:28:41.812572-07:00,1811.0,545.8,1247.1,1468.1,978.2,1149.8,1675.7,1866.4,3444.3,3443.1,1474.6,1397.6,1407.6,3439.5,947.5,1399.4,3443.1,3439.5,792.7,1453.4,1011.6,577.8,1307.9,1681.4,3444.3,3443.1,683.1,985.0,1344.0,1446.0,1212.4,966.2,-18.0,-14.0,6.0,9956.0,7578.0,-10567.0,-454.0,10.0,-17.0,21.0,-5.0,-32.0,10.0,9064.0,13471.0,-987.0,1958.0,13.0,9.0,10.0,1.0
2022-05-06 11:28:41.992734-07:00,1807.1,545.8,1247.1,1468.1,982.5,1155.0,1673.8,1866.4,3444.3,3443.1,1474.6,1397.6,1417.6,3438.2,949.2,1399.4,3443.1,3443.1,791.9,1447.9,1011.6,577.8,1307.9,1681.4,3444.3,3443.1,685.6,1001.3,1344.0,1446.0,1212.4,970.5,-19.0,-9.0,9.0,9957.0,7576.0,-10568.0,-453.0,-20.0,22.0,-1.0,-9.0,-26.0,7.0,9068.0,13468.0,-987.0,1958.0,-32.0,5.0,5.0,1.0
2022-05-06 11:28:41.993553-07:00,1807.1,542.6,1249.7,1456.2,982.5,1155.0,1673.8,1866.4,3444.3,3443.1,1478.3,1397.6,1417.6,3438.2,949.2,1392.1,3444.3,3443.1,791.9,1447.9,1015.1,579.4,1307.0,1681.4,3441.9,3443.1,685.6,1001.3,1354.9,1449.7,1201.8,970.5,-25.0,-24.0,8.0,9968.0,7572.0,-10561.0,-459.0,10.0,5.0,-8.0,-8.0,-36.0,16.0,9075.0,13464.0,-988.0,1958.0,18.0,6.0,-4.0,1.0
2022-05-06 11:28:41.994717-07:00,1800.3,542.6,1249.7,1456.2,979.9,1153.3,1670.1,1866.4,3441.9,3443.1,1478.3,1397.6,1422.2,3449.1,942.4,1392.1,3444.3,3438.2,794.4,1459.8,1015.1,579.4,1307.0,1674.8,3441.9,3440.7,684.8,989.3,1354.9,1449.7,1201.8,969.6,-23.0,-8.0,6.0,9965.0,7575.0,-10561.0,-456.0,-10.0,4.0,-7.0,-11.0,-26.0,5.0,9068.0,13468.0,-987.0,1958.0,0.0,1.0,0.0,1.0
2022-05-06 11:28:41.997004-07:00,1800.3,543.4,1253.3,1470.9,979.9,1153.3,1671.9,1856.7,3441.9,3435.8,1474.6,1401.2,1422.2,3449.1,947.5,1393.9,3441.9,3441.9,794.4,1459.8,1013.3,578.6,1310.6,1674.8,3439.5,3446.7,684.8,989.3,1357.6,1445.1,1201.8,969.6,-17.0,-1.0,9.0,9980.0,7575.0,-10547.0,-466.0,-41.0,50.0,-53.0,-8.0,-28.0,6.0,9079.0,13461.0,-988.0,1957.0,-64.0,0.0,-1.0,1.0
2022-05-06 11:28:42.112005-07:00,1798.4,541.0,1253.3,1470.9,969.6,1160.3,1671.9,1856.7,3441.9,3437.0,1474.6,1401.2,1418.6,3427.4,947.5,1393.9,3441.9,3441.9,794.4,1447.0,1013.3,578.6,1315.1,1679.5,3439.5,3446.7,684.8,982.5,1357.6,1445.1,1201.8,969.6,-9.0,13.0,43.0,9997.0,7617.0,-10500.0,-478.0,50.0,140.0,-178.0,-13.0,-25.0,13.0,9088.0,13456.0,-985.0,1954.0,42.0,6.0,-41.0,1.0
2022-05-06 11:28:42.141963-07:00,1798.4,541.0,1242.6,1459.8,969.6,1160.3,1673.8,1857.6,3441.9,3437.0,1479.2,1395.7,1418.6,3427.4,942.4,1398.5,3431.0,3437.0,794.4,1447.0,1004.8,582.6,1315.1,1679.5,3429.8,3449.1,684.8,982.5,1337.7,1445.1,1201.8,969.6,-15.0,16.0,17.0,10069.0,7697.0,-10370.0,-512.0,-23.0,309.0,-406.0,-6.0,-26.0,11.0,9095.0,13454.0,-965.0,1945.0,-86.0,16.0,-63.0,1.0
2022-05-06 11:28:42.143151-07:00,1808.1,546.6,1242.6,1459.8,984.2,1149.8,1673.8,1857.6,3438.2,3437.0,1479.2,1395.7,1414.9,3440.7,942.4,1398.5,3431.0,3437.0,788.6,1453.4,1004.8,582.6,1313.3,1680.5,3429.8,3449.1,682.3,992.7,1337.7,1445.1,1200.0,971.3,-45.0,9.0,-50.0,10099.0,7896.0,-10186.0,-590.0,216.0,128.0,-729.0,-13.0,-41.0,16.0,9137.0,13429.0,-945.0,1929.0,-82.0,-15.0,-80.0,1.0
2022-05-06 11:28:42.202014-07:00,1808.1,546.6,1244.4,1459.8,984.2,1149.8,1683.3,1870.3,3438.2,3437.0,1480.1,1399.4,1414.9,3440.7,944.9,1397.6,3434.6,3439.5,788.6,1453.4,1005.6,576.2,1313.3,1680.5,3439.5,3449.1,682.3,992.7,1341.3,1438.7,1200.0,971.3,-36.0,-17.0,-45.0,9992.0,8179.0,-10055.0,-770.0,250.0,-318.0,-836.0,-10.0,-30.0,8.0,9163.0,13418.0,-924.0,1892.0,-39.0,-62.0,-103.0,1.0
2022-05-06 11:28:42.262087-07:00,1812.9,542.6,1251.5,1459.8,978.2,1163.8,1683.3,1870.3,3433.4,3437.0,1494.9,1399.4,1416.7,3435.8,944.9,1397.6,3434.6,3439.5,783.6,1447.0,1005.6,581.8,1326.8,1677.6,3439.5,3449.1,689.7,989.3,1341.3,1448.8,1203.5,962.8,-40.0,-30.0,-24.0,9816.0,8429.0,-10005.0,-972.0,536.0,-605.0,-953.0,-10.0,-42.0,19.0,9170.0,13423.0,-905.0,1835.0,77.0,-102.0,-134.0,1.0
2022-05-06 11:28:42.322826-07:00,1812.9,542.6,1251.5,1465.4,978.2,1159.4,1691.0,1881.1,3433.4,3437.0,1494.9,1401.2,1416.7,3440.7,942.4,1395.7,3439.5,3428.6,786.1,1447.0,997.0,581.8,1326.8,1677.6,3433.4,3439.5,685.6,989.3,1346.7,1448.8,1203.5,962.8,3.0,-25.0,47.0,9507.0,8774.0,-9981.0,-1206.0,236.0,-506.0,-742.0,-8.0,-11.0,-9.0,9135.0,13458.0,-868.0,1763.0,-10.0,-67.0,-118.0,1.0
2022-05-06 11:28:42.352057-07:00,1800.3,545.8,1248.0,1465.4,977.3,1159.4,1691.0,1881.1,3449.1,3438.2,1492.1,1401.2,1413.1,3440.7,942.4,1395.7,3439.5,3428.6,786.1,1456.2,997.0,578.6,1325.9,1678.6,3433.4,3439.5,685.6,991.9,1346.7,1449.7,1204.4,963.7,-37.0,-35.0,-17.0,9345.0,8974.0,-9921.0,-1460.0,128.0,-454.0,-741.0,-12.0,-57.0,21.0,9214.0,13412.0,-858.0,1707.0,-162.0,-69.0,-104.0,1.0
2022-05-06 11:28:42.411942-07:00,1800.3,545.8,1248.0,1463.5,977.3,1158.6,1711.0,1893.8,3449.1,3438.2,1492.1,1399.4,1413.1,3443.1,939.0,1398.5,3438.2,3439.5,782.7,1456.2,994.5,578.6,1325.9,1678.6,3447.9,3437.0,683.1,991.9,1346.7,1449.7,1204.4,963.7,-7.0,23.0,6.0,9099.0,9224.0,-9883.0,-1698.0,281.0,-587.0,-827.0,-21.0,-2.0,1.0,9257.0,13392.0,-831.0,1650.0,-139.0,-65.0,-139.0,1.0
2022-05-06 11:28:42.503160-07:00,1810.0,538.6,1241.7,1463.5,975.6,1158.6,1711.0,1893.8,3441.9,3438.2,1507.8,1399.4,1411.3,3443.1,939.0,1398.5,3438.2,3439.5,782.7,1445.1,994.5,577.0,1326.8,1681.4,3447.9,3437.0,683.1,994.5,1346.7,1437.8,1197.4,965.4,-31.0,-60.0,27.0,8898.0,9449.0,-9795.0,-2009.0,74.0,-419.0,-891.0,-14.0,-53.0,31.0,9378.0,13317.0,-820.0,1574.0,-288.0,-98.0,-137.0,1.0
2022-05-06 11:28:42.531920-07:00,1810.0,538.6,1241.7,1459.8,975.6,1156.8,1707.2,1899.7,3441.9,3438.2,1507.8,1406.7,1411.3,3441.9,939.8,1395.7,3447.9,3439.5,785.2,1445.1,994.5,577.0,1326.8,1681.4,3441.9,3449.1,688.0,994.5,1338.6,1437.8,1197.4,965.4,-11.0,-17.0,39.0,8629.0,9726.0,-9718.0,-2225.0,793.0,-530.0,-821.0,-11.0,-32.0,13.0,9358.0,13339.0,-775.0,1524.0,275.0,-12.0,-170.0,1.0
2022-05-06 11:28:42.591979-07:00,1821.6,545.0,1250.6,1460.8,975.6,1156.8,1707.2,1899.7,3439.5,3440.7,1505.1,1408.5,1416.7,3441.9,939.8,1395.7,3447.9,3439.5,785.2,1440.5,1001.3,577.8,1325.0,1678.6,3441.9,3449.1,688.0,994.5,1346.7,1447.9,1199.1,965.4,-7.0,33.0,40.0,8287.0,10078.0,-9621.0,-2374.0,245.0,-302.0,-1082.0,-22.0,10.0,-16.0,9331.0,13368.0,-700.0,1474.0,-147.0,-10.0,-216.0,1.0
2022-05-06 11:28:42.593446-07:00,1821.6,545.0,1250.6,1460.8,979.0,1162.1,1693.8,1891.8,3439.5,3440.7,1505.1,1408.5,1415.8,3444.3,946.6,1393.9,3434.6,3435.8,785.2,1436.9,1001.3,577.8,1325.0,1678.6,3440.7,3440.7,681.5,988.5,1346.7,1447.9,1199.1,965.4,-16.0,-49.0,15.0,8146.0,10359.0,-9363.0,-2667.0,-43.0,-182.0,-1135.0,-10.0,-26.0,8.0,9469.0,13282.0,-646.0,1392.0,-416.0,-66.0,-224.0,1.0
2022-05-06 11:28:42.652199-07:00,1834.3,547.4,1234.6,1459.8,979.0,1162.1,1693.8,1891.8,3444.3,3435.8,1512.5,1407.6,1415.8,3444.3,946.6,1393.9,3434.6,3435.8,785.2,1436.9,996.2,581.0,1317.8,1678.6,3440.7,3440.7,681.5,988.5,1342.2,1440.5,1200.9,962.0,-19.0,72.0,1.0,8053.0,10608.0,-9053.0,-3015.0,-627.0,-270.0,-1405.0,-16.0,12.0,7.0,9718.0,13113.0,-618.0,1295.0,-954.0,-137.0,-229.0,1.0
2022-05-06 11:28:42.711938-07:00,1834.3,547.4,1234.6,1459.8,980.7,1163.8,1679.5,1885.0,3444.3,3435.8,1512.5,1407.6,1414.0,3428.6,939.0,1395.7,3432.2,3435.8,782.7,1429.5,996.2,581.0,1317.8,1678.6,3435.8,3446.7,692.9,997.9,1342.2,1440.5,1200.9,962.0,-19.0,-140.0,31.0,8035.0,10785.0,-8662.0,-3537.0,-142.0,-351.0,-1262.0,-4.0,-73.0,42.0,10003.0,12908.0,-607.0,1177.0,-585.0,-121.0,-180.0,1.0
2022-05-06 11:28:42.742090-07:00,1832.3,549.0,1249.7,1455.2,980.7,1163.8,1679.5,1885.0,3443.1,3443.1,1522.7,1409.4,1414.0,3428.6,939.0,1395.7,3432.2,3435.8,782.7,1429.5,1001.3,581.0,1314.2,1680.5,3435.8,3446.7,692.9,997.9,1344.9,1447.0,1201.8,955.1,-10.0,4.0,32.0,7857.0,10998.0,-8401.0,-3895.0,-216.0,-364.0,-1145.0,-10.0,-7.0,15.0,10163.0,12791.0,-587.0,1089.0,-546.0,-108.0,-193.0,1.0
2022-05-06 11:28:42.832015-07:00,1828.4,549.0,1249.7,1455.2,978.2,1156.8,1665.3,1870.3,3451.6,3443.1,1522.7,1409.4,1414.0,3443.1,944.1,1399.4,3435.8,3438.2,786.9,1434.1,1001.3,581.0,1314.2,1685.3,3438.2,3437.0,701.1,986.7,1344.9,1447.0,1201.8,957.7,-20.0,-92.0,16.0,7728.0,11165.0,-8098.0,-4299.0,-90.0,-403.0,-1081.0,2.0,-50.0,29.0,10317.0,12675.0,-563.0,1003.0,-342.0,-120.0,-265.0,1.0
2022-05-06 11:28:42.862058-07:00,1828.4,546.6,1232.8,1458.0,978.2,1156.8,1665.3,1877.2,3451.6,3444.3,1536.6,1409.4,1414.0,3443.1,944.1,1402.1,3446.7,3438.2,786.9,1434.1,996.2,577.8,1307.9,1685.3,3455.2,3437.0,701.1,986.7,1343.1,1436.9,1201.8,957.7,-14.0,-51.0,63.0,7489.0,11332.0,-7935.0,-4582.0,151.0,-387.0,-697.0,0.0,-28.0,28.0,10372.0,12641.0,-511.0,889.0,-83.0,-107.0,-247.0,1.0
2022-05-06 11:28:42.891919-07:00,1831.3,546.6,1232.8,1458.0,977.3,1159.4,1659.6,1877.2,3439.5,3444.3,1536.6,1409.4,1421.3,3439.5,941.5,1402.1,3446.7,3445.5,781.9,1439.6,996.2,577.8,1307.9,1683.3,3455.2,3449.1,689.7,992.7,1343.1,1436.9,1201.8,956.0,-32.0,-110.0,52.0,7359.0,11417.0,-7782.0,-4834.0,-212.0,-299.0,-630.0,-20.0,-55.0,30.0,10464.0,12573.0,-469.0,791.0,-332.0,-82.0,-198.0,1.0
2022-05-06 11:28:42.952004-07:00,1831.3,552.2,1239.9,1455.2,977.3,1159.4,1659.6,1859.6,3439.5,3449.1,1544.1,1419.5,1421.3,3439.5,941.5,1397.6,3435.8,3445.5,781.9,1439.6,993.6,581.0,1299.0,1683.3,3437.0,3449.1,689.7,992.7,1344.9,1446.0,1202.7,956.0,-22.0,-77.0,82.0,7248.0,11482.0,-7683.0,-5005.0,156.0,-121.0,-310.0,-23.0,-38.0,24.0,10512.0,12539.0,-433.0,729.0,47.0,-8.0,-110.0,1.0
2022-05-06 11:28:43.011922-07:00,1837.2,552.2,1239.9,1455.2,973.9,1165.6,1651.1,1859.6,3444.3,3449.1,1544.1,1419.5,1408.5,3440.7,944.1,1397.6,3435.8,3438.2,776.9,1448.8,993.6,581.0,1299.0,1678.6,3437.0,3445.5,698.7,990.2,1344.9,1446.0,1202.7,954.3,-23.0,-69.0,45.0,7200.0,11539.0,-7590.0,-5082.0,-149.0,0.0,-371.0,-10.0,-43.0,26.0,10536.0,12521.0,-400.0,712.0,-184.0,56.0,-42.0,1.0
2022-05-06 11:28:43.042049-07:00,1837.2,551.4,1243.5,1453.4,973.9,1165.6,1651.1,1848.9,3444.3,3438.2,1547.8,1413.1,1408.5,3440.7,944.1,1391.2,3435.8,3438.2,776.9,1448.8,993.6,581.0,1299.8,1678.6,3454.0,3445.5,698.7,990.2,1348.5,1447.0,1196.5,954.3,-6.0,-100.0,54.0,7164.0,11600.0,-7490.0,-5143.0,133.0,74.0,-129.0,-8.0,-29.0,20.0,10550.0,12509.0,-367.0,715.0,132.0,48.0,-51.0,1.0
2022-05-06 11:28:43.102653-07:00,1834.3,546.6,1243.5,1453.4,973.1,1163.8,1631.3,1848.9,3435.8,3449.1,1547.8,1413.1,1407.6,3439.5,939.0,1391.2,3435.8,3444.3,767.8,1447.9,993.6,581.0,1294.5,1684.3,3454.0,3445.5,689.7,990.2,1348.5,1447.0,1199.1,955.1,-22.0,-37.0,22.0,7163.0,11631.0,-7470.0,-5103.0,-2.0,113.0,25.0,-11.0,-42.0,3.0,10528.0,12528.0,-346.0,722.0,17.0,39.0,-10.0,1.0
2022-05-06 11:28:43.132406-07:00,1834.3,546.6,1238.2,1467.2,973.1,1163.8,1629.4,1842.0,3435.8,3449.1,1539.4,1414.0,1407.6,3439.5,943.2,1393.9,3431.0,3441.9,767.8,1447.9,992.7,582.6,1294.5,1684.3,3444.3,3443.1,689.7,990.2,1342.2,1448.8,1199.1,955.1,-18.0,-62.0,40.0,7156.0,11662.0,-7433.0,-5096.0,29.0,44.0,-132.0,-5.0,-16.0,25.0,10522.0,12533.0,-328.0,727.0,-13.0,23.0,-33.0,1.0
2022-05-06 11:28:43.192617-07:00,1846.9,553.0,1238.2,1467.2,973.9,1162.1,1629.4,1842.0,3435.8,3439.5,1539.4,1414.0,1410.3,3443.1,943.2,1393.9,3431.0,3441.9,774.5,1444.2,992.7,582.6,1290.0,1675.7,3444.3,3443.1,686.4,994.5,1342.2,1448.8,1195.6,960.2,-16.0,-37.0,23.0,7184.0,11661.0,-7401.0,-5105.0,-116.0,57.0,-17.0,-11.0,-30.0,9.0,10551.0,12509.0,-322.0,724.0,-151.0,0.0,-5.0,1.0
2022-05-06 11:28:43.281957-07:00,1846.9,553.0,1246.2,1455.2,973.9,1162.1,1619.0,1833.3,3435.8,3439.5,1543.1,1419.5,1410.3,3443.1,947.5,1391.2,3449.1,3434.6,774.5,1444.2,995.3,580.2,1290.0,1675.7,3449.1,3444.3,686.4,994.5,1342.2,1447.0,1195.6,960.2,-16.0,-43.0,55.0,7190.0,11680.0,-7355.0,-5120.0,114.0,58.0,-146.0,-8.0,-23.0,28.0,10574.0,12490.0,-317.0,721.0,77.0,12.0,-27.0,1.0
2022-05-06 11:28:43.283244-07:00,1835.2,558.6,1246.2,1455.2,976.5,1164.7,1619.0,1833.3,3444.3,3439.5,1543.1,1419.5,1409.4,3443.1,947.5,1391.2,3449.1,3434.6,767.8,1448.8,995.3,580.2,1286.4,1674.8,3449.1,3444.3,688.0,988.5,1342.2,1447.0,1200.0,956.8,-12.0,-85.0,31.0,7176.0,11711.0,-7323.0,-5115.0,-5.0,15.0,9.0,-17.0,-58.0,6.0,10554.0,12508.0,-301.0,721.0,54.0,8.0,-12.0,1.0
2022-05-06 11:28:43.342267-07:00,1835.2,558.6,1239.1,1459.8,976.5,1159.4,1620.9,1816.8,3444.3,3439.5,1542.2,1413.1,1409.4,3445.5,939.0,1397.6,3431.0,3432.2,770.3,1448.8,995.3,578.6,1286.4,1674.8,3437.0,3449.1,682.3,988.5,1348.5,1440.5,1200.0,956.8,-17.0,-48.0,31.0,7166.0,11726.0,-7320.0,-5100.0,37.0,27.0,-48.0,-14.0,-22.0,14.0,10537.0,12522.0,-295.0,723.0,3.0,8.0,-10.0,1.0
2022-05-06 11:28:43.401978-07:00,1839.1,552.2,1243.5,1459.8,978.2,1159.4,1620.9,1816.8,3438.2,3439.5,1537.6,1413.1,1414.0,3445.5,939.0,1397.6,3431.0,3432.2,770.3,1447.9,995.3,577.0,1294.5,1679.5,3437.0,3449.1,682.3,987.6,1348.5,1446.0,1198.2,960.2,-20.0,-62.0,33.0,7158.0,11738.0,-7310.0,-5096.0,37.0,18.0,22.0,-14.0,-31.0,17.0,10533.0,12525.0,-292.0,721.0,29.0,-2.0,7.0,1.0
2022-05-06 11:28:43.491962-07:00,1839.1,552.2,1243.5,1447.0,978.2,1164.7,1608.7,1828.4,3438.2,3439.5,1537.6,1410.3,1414.0,3438.2,945.8,1393.9,3434.6,3432.2,767.8,1447.9,992.7,577.0,1294.5,1679.5,3444.3,3434.6,686.4,987.6,1341.3,1446.0,1198.2,960.2,-15.0,-51.0,27.0,7166.0,11726.0,-7325.0,-5092.0,-49.0,-14.0,64.0,-7.0,-42.0,13.0,10537.0,12522.0,-298.0,719.0,-43.0,-26.0,9.0,1.0
2022-05-06 11:28:43.493208-07:00,1841.1,551.4,1246.2,1447.0,975.6,1164.7,1608.7,1828.4,3441.9,3435.8,1529.2,1410.3,1406.7,3438.2,945.8,1393.9,3434.6,3432.2,767.8,1439.6,992.7,578.6,1285.5,1688.1,3444.3,3434.6,686.4,983.3,1341.3,1440.5,1191.2,954.3,-19.0,-78.0,34.0,7165.0,11713.0,-7340.0,-5102.0,34.0,-46.0,60.0,-10.0,-32.0,23.0,10544.0,12517.0,-303.0,712.0,17.0,-16.0,7.0,1.0
2022-05-06 11:28:43.611970-07:00,1841.1,551.4,1246.2,1458.0,975.6,1161.2,1618.1,1829.4,3441.9,3435.8,1529.2,1412.2,1406.7,3439.5,939.0,1394.8,3435.8,3440.7,768.7,1439.6,996.2,578.6,1285.5,1688.1,3437.0,3435.8,685.6,983.3,1340.4,1440.5,1191.2,954.3,-16.0,-43.0,35.0,7167.0,11685.0,-7390.0,-5090.0,20.0,-27.0,135.0,-10.0,-35.0,18.0,10538.0,12521.0,-316.0,707.0,22.0,-24.0,23.0,1.0
2022-05-06 11:28:43.613677-07:00,1834.3,561.0,1234.6,1454.3,973.1,1161.2,1618.1,1829.4,3444.3,3434.6,1522.7,1414.0,1412.2,3439.5,939.0,1394.8,3435.8,3440.7,768.7,1444.2,996.2,576.2,1281.9,1682.4,3437.0,3435.8,685.6,991.0,1344.0,1447.9,1199.1,951.7,-13.0,-67.0,42.0,7149.0,11671.0,-7421.0,-5102.0,-9.0,-108.0,4.0,-12.0,-31.0,21.0,10541.0,12519.0,-321.0,702.0,-32.0,-10.0,-5.0,1.0
2022-05-06 11:28:43.672117-07:00,1834.3,561.0,1234.6,1454.3,977.3,1157.7,1606.8,1817.8,3444.3,3434.6,1522.7,1414.0,1406.7,3440.7,942.4,1393.9,3432.2,3437.0,771.1,1440.5,996.2,576.2,1281.9,1682.4,3445.5,3438.2,685.6,987.6,1344.0,1447.9,1199.1,951.7,-6.0,-41.0,39.0,7150.0,11646.0,-7449.0,-5118.0,-7.0,-30.0,85.0,-9.0,-26.0,7.0,10552.0,12510.0,-328.0,701.0,-21.0,-14.0,20.0,1.0
2022-05-06 11:28:43.731976-07:00,1829.4,552.2,1251.5,1456.2,977.3,1157.7,1606.8,1817.8,3437.0,3446.7,1524.5,1411.3,1406.7,3440.7,942.4,1393.9,3432.2,3437.0,771.1,1440.5,994.5,576.2,1290.0,1680.5,3445.5,3438.2,685.6,987.6,1342.2,1442.4,1201.8,960.2,-19.0,-86.0,32.0,7162.0,11635.0,-7455.0,-5118.0,-32.0,-23.0,35.0,-9.0,-32.0,24.0,10563.0,12500.0,-332.0,701.0,-12.0,-7.0,4.0,1.0
2022-05-06 11:28:43.733439-07:00,1829.4,552.2,1251.5,1456.2,975.6,1152.4,1605.8,1816.8,3437.0,3446.7,1524.5,1411.3,1404.0,3433.4,938.1,1389.4,3428.6,3440.7,765.3,1442.4,994.5,576.2,1290.0,1680.5,3449.1,3446.7,688.0,987.6,1342.2,1442.4,1201.8,960.2,-7.0,-91.0,21.0,7168.0,11598.0,-7521.0,-5097.0,65.0,-68.0,272.0,-15.0,-33.0,-5.0,10558.0,12504.0,-345.0,701.0,44.0,-38.0,54.0,1.0
2022-05-06 11:28:43.791970-07:00,1830.4,549.8,1243.5,1451.6,975.6,1152.4,1605.8,1816.8,3438.2,3441.9,1525.5,1404.0,1404.0,3433.4,938.1,1389.4,3428.6,3440.7,765.3,1442.4,991.9,577.0,1281.0,1668.2,3449.1,3446.7,688.0,987.6,1347.6,1443.3,1200.9,953.4,-16.0,17.0,32.0,7186.0,11541.0,-7588.0,-5101.0,-170.0,-133.0,27.0,-8.0,-13.0,17.0,10583.0,12483.0,-373.0,698.0,-242.0,-36.0,6.0,1.0
2022-05-06 11:28:43.852097-07:00,1830.4,549.8,1243.5,1451.6,971.3,1161.2,1600.2,1821.6,3438.2,3441.9,1525.5,1404.0,1410.3,3435.8,942.4,1398.5,3426.2,3432.2,762.0,1433.2,991.9,577.0,1281.0,1668.2,3438.2,3441.9,677.4,985.0,1347.6,1443.3,1200.9,953.4,-11.0,-96.0,49.0,7212.0,11498.0,-7582.0,-5171.0,-36.0,-76.0,46.0,-6.0,-51.0,26.0,10634.0,12439.0,-385.0,686.0,25.0,-24.0,17.0,1.0
2022-05-06 11:28:43.941962-07:00,1826.5,549.0,1242.6,1458.0,971.3,1161.2,1600.2,1807.1,3441.9,3440.7,1530.1,1409.4,1410.3,3435.8,942.4,1393.0,3432.2,3432.2,762.0,1433.2,999.6,575.4,1279.2,1678.6,3435.8,3441.9,677.4,985.0,1342.2,1445.1,1197.4,952.6,-14.0,-20.0,53.0,7211.0,11480.0,-7613.0,-5166.0,-53.0,9.0,28.0,-9.0,-32.0,22.0,10637.0,12437.0,-393.0,682.0,-57.0,0.0,-4.0,1.0
2022-05-06 11:28:43.943776-07:00,1822.6,549.0,1242.6,1458.0,970.5,1157.7,1604.9,1807.1,3438.2,3440.7,1530.1,1409.4,1408.5,3444.3,945.8,1393.0,3432.2,3439.5,764.5,1441.5,999.6,575.4,1279.2,1679.5,3435.8,3445.5,692.9,980.7,1342.2,1445.1,1197.4,949.2,-14.0,-93.0,34.0,7224.0,11478.0,-7611.0,-5155.0,66.0,36.0,62.0,-10.0,-43.0,17.0,10635.0,12438.0,-389.0,685.0,100.0,12.0,12.0,1.0
2022-05-06 11:28:44.031981-07:00,1822.6,545.0,1235.5,1453.4,970.5,1157.7,1604.9,1810.0,3438.2,3438.2,1530.1,1408.5,1408.5,3444.3,945.8,1390.3,3435.8,3439.5,764.5,1441.5,995.3,576.2,1281.0,1679.5,3444.3,3445.5,692.9,980.7,1338.6,1444.2,1199.1,949.2,-9.0,-17.0,21.0,7221.0,11470.0,-7652.0,-5117.0,8.0,-18.0,87.0,-7.0,-18.0,6.0,10616.0,12454.0,-394.0,691.0,-54.0,-19.0,11.0,1.0
2022-05-06 11:28:44.033465-07:00,1817.8,545.0,1235.5,1453.4,973.1,1155.0,1605.8,1810.0,3440.7,3438.2,1530.1,1408.5,1407.6,3438.2,947.5,1390.3,3435.8,3433.4,762.9,1431.4,995.3,576.2,1281.0,1683.3,3444.3,3439.5,676.6,980.7,1338.6,1444.2,1199.1,950.0,-16.0,-60.0,33.0,7229.0,11448.0,-7654.0,-5151.0,-67.0,-89.0,-12.0,-11.0,-41.0,20.0,10643.0,12431.0,-400.0,684.0,-47.0,-22.0,-2.0,1.0
2022-05-06 11:28:44.092491-07:00,1817.8,556.2,1241.7,1450.6,973.1,1155.0,1605.8,1811.0,3440.7,3444.3,1519.0,1409.4,1407.6,3438.2,947.5,1397.6,3435.8,3433.4,762.9,1431.4,989.3,573.8,1276.5,1683.3,3439.5,3439.5,676.6,980.7,1344.0,1440.5,1199.1,950.0,-13.0,-27.0,43.0,7228.0,11430.0,-7668.0,-5172.0,-33.0,-36.0,24.0,-7.0,-25.0,19.0,10656.0,12420.0,-405.0,676.0,-65.0,-6.0,8.0,1.0
2022-05-06 11:28:44.211977-07:00,1817.8,549.0,1241.7,1450.6,979.9,1154.2,1593.6,1811.0,3440.7,3431.0,1519.0,1409.4,1400.3,3429.8,940.7,1397.6,3435.8,3439.5,759.6,1431.4,989.3,573.8,1277.4,1681.4,3439.5,3446.7,672.5,994.5,1344.0,1440.5,1198.2,956.8,-20.0,-51.0,27.0,7242.0,11419.0,-7656.0,-5194.0,-19.0,0.0,-18.0,-7.0,-37.0,25.0,10672.0,12406.0,-405.0,676.0,0.0,2.0,-7.0,1.0
2022-05-06 11:28:44.213180-07:00,1817.8,549.0,1240.8,1450.6,979.9,1154.2,1575.8,1805.2,3440.7,3431.0,1519.9,1412.2,1400.3,3429.8,935.6,1393.9,3439.5,3429.8,759.6,1431.4,991.9,574.6,1277.4,1681.4,3438.2,3437.0,672.5,994.5,1338.6,1440.5,1198.2,956.8,-7.0,-38.0,34.0,7231.0,11417.0,-7660.0,-5208.0,2.0,-29.0,-11.0,-7.0,-30.0,4.0,10674.0,12405.0,-405.0,675.0,-25.0,-6.0,-3.0,1.0
2022-05-06 11:28:44.242332-07:00,1823.6,557.0,1240.8,1450.6,977.3,1155.9,1575.8,1805.2,3438.2,3446.7,1519.9,1412.2,1420.4,3444.3,935.6,1393.9,3439.5,3429.8,762.9,1431.4,991.9,574.6,1277.4,1679.5,3438.2,3437.0,683.1,985.0,1338.6,1440.5,1198.2,950.0,-18.0,-48.0,29.0,7238.0,11415.0,-7646.0,-5223.0,-12.0,-1.0,-9.0,-9.0,-34.0,13.0,10683.0,12397.0,-405.0,674.0,-6.0,-1.0,-7.0,1.0
2022-05-06 11:28:44.302675-07:00,1823.6,557.0,1239.9,1455.2,977.3,1155.9,1593.6,1801.3,3438.2,3446.7,1521.8,1413.1,1420.4,3444.3,938.1,1386.6,3443.1,3433.4,762.9,1431.4,991.0,576.2,1277.4,1679.5,3438.2,3438.2,683.1,985.0,1346.7,1448.8,1198.2,950.0,-8.0,-39.0,27.0,7238.0,11414.0,-7643.0,-5229.0,-17.0,7.0,-11.0,-5.0,-31.0,12.0,10685.0,12396.0,-404.0,673.0,-11.0,6.0,-1.0,1.0
2022-05-06 11:28:44.332141-07:00,1813.9,556.2,1239.9,1455.2,969.6,1157.7,1593.6,1801.3,3444.3,3446.7,1521.8,1413.1,1404.0,3439.5,938.1,1386.6,3443.1,3433.4,762.0,1427.7,991.0,576.2,1278.3,1679.5,3438.2,3438.2,680.7,983.3,1346.7,1448.8,1196.5,951.7,-18.0,-53.0,30.0,7245.0,11415.0,-7633.0,-5232.0,5.0,13.0,11.0,-9.0,-36.0,17.0,10691.0,12390.0,-403.0,673.0,2.0,6.0,0.0,1.0
2022-05-06 11:28:44.392060-07:00,1813.9,556.2,1244.4,1456.2,969.6,1149.8,1597.4,1807.1,3444.3,3446.7,1522.7,1410.3,1404.0,3439.5,938.1,1388.5,3433.4,3440.7,762.0,1427.7,990.2,574.6,1278.3,1679.5,3444.3,3440.7,680.7,983.3,1338.6,1447.0,1196.5,951.7,-9.0,-30.0,26.0,7248.0,11416.0,-7637.0,-5220.0,10.0,35.0,20.0,-6.0,-30.0,13.0,10684.0,12396.0,-405.0,675.0,26.0,9.0,13.0,1.0
2022-05-06 11:28:44.481986-07:00,1816.8,549.8,1240.8,1456.2,974.8,1149.8,1597.4,1807.1,3438.2,3444.3,1519.0,1410.3,1401.2,3441.9,938.1,1388.5,3433.4,3440.7,757.9,1429.5,990.2,575.4,1278.3,1681.4,3444.3,3440.7,679.9,976.5,1338.6,1448.8,1200.9,950.0,-11.0,-54.0,30.0,7250.0,11421.0,-7623.0,-5227.0,-22.0,-2.0,-39.0,-7.0,-37.0,13.0,10686.0,12395.0,-402.0,674.0,-15.0,7.0,-12.0,1.0
2022-05-06 11:28:44.483248-07:00,1816.8,549.8,1240.8,1459.8,974.8,1156.8,1586.1,1798.4,3438.2,3444.3,1519.0,1404.9,1401.2,3449.1,937.3,1389.4,3439.5,3431.0,760.4,1429.5,990.2,575.4,1278.3,1681.4,3438.2,3449.1,679.1,976.5,1338.6,1448.8,1200.9,950.0,-13.0,-43.0,23.0,7251.0,11422.0,-7621.0,-5227.0,33.0,6.0,22.0,-8.0,-32.0,8.0,10685.0,12396.0,-400.0,672.0,26.0,0.0,4.0,1.0
2022-05-06 11:28:44.572092-07:00,1818.7,555.4,1234.6,1459.8,973.1,1156.8,1586.1,1798.4,3445.5,3441.9,1517.1,1404.9,1408.5,3449.1,937.3,1389.4,3439.5,3431.0,760.4,1434.1,990.2,573.8,1273.0,1677.6,3438.2,3449.1,679.1,993.6,1338.6,1444.2,1206.2,951.7,-10.0,-50.0,20.0,7244.0,11426.0,-7623.0,-5224.0,-25.0,-15.0,-3.0,-8.0,-30.0,16.0,10681.0,12399.0,-399.0,673.0,-17.0,2.0,-8.0,1.0
2022-05-06 11:28:44.601987-07:00,1818.7,555.4,1234.6,1459.8,973.1,1142.7,1582.4,1790.7,3445.5,3441.9,1517.1,1411.3,1408.5,3434.6,942.4,1399.4,3438.2,3432.2,758.7,1434.1,991.0,573.8,1273.0,1677.6,3440.7,3438.2,678.2,993.6,1344.0,1444.2,1206.2,951.7,-8.0,-42.0,26.0,7252.0,11417.0,-7622.0,-5233.0,-20.0,5.0,24.0,-2.0,-39.0,13.0,10691.0,12391.0,-402.0,670.0,-14.0,-10.0,11.0,1.0
2022-05-06 11:28:44.631959-07:00,1812.9,553.0,1242.6,1459.8,973.1,1142.7,1582.4,1790.7,3438.2,3444.3,1515.3,1411.3,1408.5,3434.6,942.4,1399.4,3438.2,3432.2,758.7,1428.6,991.0,577.0,1270.3,1675.7,3440.7,3438.2,678.2,988.5,1344.0,1455.2,1194.7,950.0,-9.0,-22.0,26.0,7263.0,11410.0,-7618.0,-5240.0,-46.0,-10.0,-33.0,-3.0,-29.0,12.0,10701.0,12382.0,-404.0,671.0,-45.0,5.0,-2.0,1.0
2022-05-06 11:28:44.722064-07:00,1812.9,553.0,1242.6,1457.1,980.7,1160.3,1583.3,1788.7,3438.2,3444.3,1515.3,1405.8,1397.6,3451.6,941.5,1393.9,3433.4,3435.8,757.9,1420.4,982.5,577.0,1270.3,1675.7,3444.3,3440.7,679.1,979.9,1346.7,1455.2,1194.7,950.0,-13.0,-61.0,26.0,7264.0,11408.0,-7601.0,-5268.0,10.0,-40.0,-32.0,-10.0,-41.0,9.0,10720.0,12366.0,-400.0,668.0,-15.0,-8.0,-12.0,1.0
2022-05-06 11:28:44.781963-07:00,1812.9,554.6,1239.1,1449.7,980.7,1160.3,1583.3,1788.7,3438.2,3443.1,1520.8,1404.0,1397.6,3451.6,941.5,1393.9,3433.4,3435.8,757.9,1420.4,989.3,577.0,1275.6,1678.6,3444.3,3440.7,679.1,979.9,1340.4,1435.0,1205.3,943.2,-12.0,-40.0,33.0,7256.0,11406.0,-7601.0,-5285.0,-73.0,-4.0,-3.0,-9.0,-33.0,10.0,10729.0,12358.0,-399.0,667.0,-63.0,-4.0,9.0,1.0
2022-05-06 11:28:44.811969-07:00,1812.9,554.6,1239.1,1449.7,976.5,1156.8,1580.5,1799.4,3438.2,3443.1,1520.8,1404.0,1404.0,3433.4,935.6,1389.4,3434.6,3435.8,755.4,1426.8,989.3,577.0,1275.6,1678.6,3431.0,3443.1,681.5,979.0,1340.4,1435.0,1205.3,943.2,-8.0,-47.0,19.0,7274.0,11391.0,-7591.0,-5306.0,-45.0,-37.0,9.0,-5.0,-30.0,10.0,10752.0,12338.0,-404.0,669.0,-55.0,-5.0,11.0,1.0
2022-05-06 11:28:44.841909-07:00,1814.9,554.6,1241.7,1442.4,976.5,1156.8,1580.5,1799.4,3441.9,3451.6,1517.1,1412.2,1404.0,3433.4,935.6,1389.4,3434.6,3435.8,755.4,1426.8,990.2,573.8,1267.6,1677.6,3431.0,3443.1,681.5,979.0,1337.7,1438.7,1197.4,964.5,-8.0,-48.0,29.0,7282.0,11377.0,-7590.0,-5327.0,-35.0,-31.0,-3.0,-7.0,-33.0,19.0,10769.0,12323.0,-408.0,666.0,-48.0,-13.0,4.0,1.0
2022-05-06 11:28:44.901957-07:00,1814.9,554.6,1241.7,1442.4,976.5,1163.0,1579.6,1788.7,3441.9,3451.6,1517.1,1412.2,1395.7,3444.3,943.2,1393.9,3434.6,3438.2,752.1,1429.5,990.2,573.8,1267.6,1677.6,3445.5,3435.8,679.1,983.3,1337.7,1438.7,1197.4,964.5,-8.0,-40.0,40.0,7289.0,11366.0,-7586.0,-5345.0,-38.0,10.0,-21.0,-9.0,-34.0,13.0,10782.0,12312.0,-411.0,663.0,-46.0,-5.0,0.0,1.0
2022-05-06 11:28:44.932056-07:00,1814.9,550.6,1244.4,1459.8,976.5,1163.0,1579.6,1783.9,3439.5,3437.0,1506.0,1407.6,1395.7,3444.3,943.2,1392.1,3435.8,3438.2,752.1,1429.5,988.5,574.6,1266.7,1677.6,3438.2,3435.8,679.1,983.3,1350.3,1443.3,1192.0,945.8,-10.0,-56.0,27.0,7295.0,11369.0,-7573.0,-5350.0,24.0,4.0,11.0,-7.0,-38.0,14.0,10787.0,12307.0,-408.0,667.0,11.0,11.0,3.0,1.0
2022-05-06 11:28:44.991877-07:00,1811.9,550.6,1244.4,1459.8,968.8,1153.3,1576.8,1783.9,3444.3,3437.0,1506.0,1407.6,1398.5,3433.4,932.2,1392.1,3435.8,3444.3,758.7,1426.8,988.5,574.6,1266.7,1677.6,3438.2,3438.2,679.1,987.6,1350.3,1443.3,1192.0,953.4,-6.0,-36.0,20.0,7294.0,11369.0,-7577.0,-5347.0,-49.0,-6.0,-7.0,-6.0,-30.0,14.0,10784.0,12310.0,-407.0,668.0,-22.0,-2.0,2.0,1.0
2022-05-06 11:28:45.081924-07:00,1811.9,553.8,1241.7,1458.9,968.8,1153.3,1576.8,1779.1,3444.3,3435.8,1510.6,1403.0,1398.5,3433.4,932.2,1387.5,3437.0,3444.3,758.7,1426.8,984.2,572.2,1273.0,1677.6,3438.2,3438.2,679.1,987.6,1337.7,1444.2,1195.6,953.4,-5.0,-48.0,29.0,7302.0,11359.0,-7570.0,-5367.0,-59.0,-29.0,-11.0,-9.0,-32.0,13.0,10800.0,12296.0,-410.0,665.0,-60.0,-14.0,-6.0,1.0
2022-05-06 11:28:45.083284-07:00,1812.9,553.8,1241.7,1458.9,973.1,1146.3,1573.9,1779.1,3444.3,3435.8,1510.6,1403.0,1399.4,3446.7,942.4,1387.5,3437.0,3434.6,757.9,1426.8,984.2,572.2,1273.0,1677.6,3438.2,3446.7,683.1,971.3,1337.7,1444.2,1195.6,950.9,-7.0,-38.0,20.0,7326.0,11337.0,-7557.0,-5397.0,-118.0,-19.0,-20.0,-8.0,-45.0,11.0,10834.0,12266.0,-415.0,661.0,-137.0,-11.0,6.0,1.0
2022-05-06 11:28:45.142589-07:00,1812.9,552.2,1232.8,1458.0,973.1,1146.3,1573.9,1782.9,3444.3,3440.7,1506.9,1407.6,1399.4,3446.7,942.4,1396.7,3440.7,3434.6,757.9,1426.8,983.3,577.0,1271.2,1677.6,3441.9,3446.7,683.1,971.3,1341.3,1441.5,1195.6,950.9,-9.0,-45.0,36.0,7332.0,11328.0,-7548.0,-5419.0,4.0,-20.0,15.0,-7.0,-34.0,22.0,10852.0,12250.0,-416.0,659.0,3.0,-3.0,2.0,1.0
2022-05-06 11:28:45.291954-07:00,1818.7,552.2,1232.8,1458.0,973.1,1154.2,1573.9,1782.9,3439.5,3440.7,1506.9,1407.6,1388.5,3439.5,946.6,1396.7,3440.7,3433.4,757.1,1430.5,983.3,577.0,1271.2,1671.9,3441.9,3445.5,676.6,973.9,1341.3,1441.5,1195.6,948.3,-10.0,-43.0,29.0,7338.0,11324.0,-7545.0,-5423.0,-8.0,19.0,-8.0,-7.0,-37.0,19.0,10856.0,12247.0,-416.0,659.0,-16.0,5.0,4.0,1.0
2022-05-06 11:28:45.293982-07:00,1818.7,555.4,1243.5,1462.6,973.1,1154.2,1570.2,1787.8,3439.5,3437.0,1506.0,1403.0,1388.5,3439.5,938.1,1393.0,3444.3,3441.9,757.1,1430.5,994.5,577.8,1261.3,1671.9,3446.7,3458.9,676.6,973.9,1343.1,1439.6,1198.2,948.3,-12.0,-44.0,19.0,7337.0,11327.0,-7543.0,-5423.0,41.0,-15.0,-9.0,-5.0,-35.0,15.0,10854.0,12248.0,-416.0,659.0,25.0,5.0,-3.0,1.0
2022-05-06 11:28:45.294895-07:00,1817.8,548.2,1243.5,1462.6,979.0,1158.6,1570.2,1787.8,3439.5,3437.0,1506.0,1403.0,1402.1,3438.2,938.1,1393.0,3444.3,3441.9,759.6,1426.8,994.5,577.8,1262.2,1673.8,3446.7,3458.9,679.9,977.3,1343.1,1439.6,1197.4,949.2,-1.0,-51.0,31.0,7331.0,11326.0,-7547.0,-5429.0,-50.0,13.0,10.0,-8.0,-36.0,6.0,10851.0,12251.0,-417.0,659.0,-35.0,-11.0,6.0,1.0
2022-05-06 11:28:45.351902-07:00,1817.8,548.2,1241.7,1454.3,979.0,1158.6,1580.5,1777.2,3439.5,3437.0,1511.5,1406.7,1402.1,3438.2,939.8,1395.7,3434.6,3437.0,759.6,1426.8,985.0,573.8,1262.2,1673.8,3434.6,3449.1,679.9,977.3,1338.6,1450.6,1197.4,949.2,-7.0,-40.0,29.0,7333.0,11326.0,-7543.0,-5429.0,34.0,1.0,2.0,-5.0,-29.0,18.0,10851.0,12251.0,-417.0,662.0,44.0,15.0,6.0,1.0
2022-05-06 11:28:45.426383-07:00,1815.8,553.8,1241.7,1454.3,973.1,1154.2,1580.5,1777.2,3437.0,3437.0,1511.5,1406.7,1396.7,3444.3,939.8,1395.7,3434.6,3437.0,759.6,1421.3,985.0,573.8,1264.9,1678.6,3434.6,3449.1,684.0,975.6,1338.6,1450.6,1194.7,944.1,-6.0,-43.0,25.0,7336.0,11328.0,-7539.0,-5428.0,-18.0,19.0,-9.0,-3.0,-32.0,16.0,10849.0,12252.0,-413.0,667.0,-14.0,12.0,8.0,1.0
2022-05-06 11:28:45.471980-07:00,1815.8,553.8,1237.3,1451.6,973.1,1154.2,1582.4,1778.1,3437.0,3437.0,1511.5,1400.3,1396.7,3444.3,935.6,1387.5,3437.0,3438.2,759.6,1421.3,991.0,574.6,1264.9,1678.6,3440.7,3433.4,684.0,975.6,1343.1,1441.5,1194.7,944.1,0.0,-47.0,17.0,7337.0,11330.0,-7537.0,-5426.0,23.0,-5.0,6.0,-3.0,-37.0,3.0,10847.0,12254.0,-412.0,669.0,23.0,5.0,-2.0,1.0
2022-05-06 11:28:45.502074-07:00,1826.5,557.0,1237.3,1451.6,978.2,1150.6,1582.4,1778.1,3444.3,3438.2,1517.1,1400.3,1396.7,3444.3,935.6,1387.5,3437.0,3438.2,757.9,1425.0,991.0,577.0,1264.0,1678.6,3440.7,3433.4,681.5,979.0,1343.1,1443.3,1200.0,950.0,-5.0,-45.0,29.0,7338.0,11329.0,-7535.0,-5428.0,-42.0,-5.0,-1.0,-5.0,-38.0,20.0,10849.0,12252.0,-412.0,669.0,-37.0,1.0,4.0,1.0
2022-05-06 11:28:45.531859-07:00,1826.5,557.0,1237.3,1461.7,978.2,1155.9,1573.9,1779.1,3444.3,3438.2,1517.1,1404.9,1396.7,3443.1,932.2,1391.2,3435.8,3428.6,754.6,1425.0,982.5,577.0,1264.0,1678.6,3432.2,3439.5,672.5,979.0,1342.2,1443.3,1200.0,950.0,-4.0,-36.0,27.0,7336.0,11325.0,-7537.0,-5437.0,28.0,-32.0,1.0,-8.0,-26.0,13.0,10851.0,12250.0,-412.0,669.0,19.0,-4.0,-3.0,1.0
2022-05-06 11:28:45.591797-07:00,1819.7,552.2,1240.8,1461.7,973.9,1155.9,1573.9,1779.1,3438.2,3438.2,1506.9,1404.9,1404.9,3443.1,932.2,1391.2,3435.8,3428.6,754.6,1418.6,982.5,577.0,1263.1,1677.6,3432.2,3439.5,672.5,975.6,1342.2,1446.0,1194.7,950.0,-4.0,-58.0,29.0,7336.0,11322.0,-7533.0,-5447.0,-18.0,5.0,-6.0,-7.0,-36.0,9.0,10855.0,12247.0,-412.0,669.0,-15.0,4.0,1.0,1.0
2022-05-06 11:28:45.652572-07:00,1819.7,552.2,1240.8,1455.2,973.9,1157.7,1554.3,1773.3,3438.2,3438.2,1506.9,1408.5,1404.9,3434.6,937.3,1389.4,3434.6,3434.6,756.3,1418.6,987.6,577.0,1263.1,1677.6,3441.9,3438.2,680.7,975.6,1336.8,1446.0,1194.7,950.0,-8.0,-39.0,19.0,7338.0,11326.0,-7529.0,-5442.0,-7.0,3.0,-11.0,-6.0,-30.0,17.0,10852.0,12249.0,-412.0,669.0,-1.0,8.0,-5.0,1.0
2022-05-06 11:28:45.681725-07:00,1806.1,554.6,1236.4,1455.2,976.5,1157.7,1554.3,1773.3,3445.5,3438.2,1508.8,1408.5,1401.2,3434.6,937.3,1389.4,3434.6,3434.6,756.3,1425.9,987.6,577.0,1265.8,1682.4,3441.9,3438.2,680.7,973.1,1336.8,1446.0,1179.7,950.0,0.0,-37.0,26.0,7336.0,11321.0,-7534.0,-5450.0,-6.0,-19.0,22.0,-5.0,-28.0,10.0,10856.0,12246.0,-413.0,668.0,-13.0,-10.0,7.0,1.0
2022-05-06 11:28:45.741837-07:00,1806.1,554.6,1236.4,1454.3,971.3,1157.7,1576.8,1774.3,3445.5,3438.2,1508.8,1414.0,1403.0,3437.0,937.3,1390.3,3431.0,3437.0,756.3,1419.5,985.0,577.0,1265.8,1682.4,3433.4,3438.2,678.2,976.5,1335.0,1446.0,1179.7,950.0,-10.0,-41.0,25.0,7348.0,11310.0,-7528.0,-5463.0,-59.0,-27.0,-16.0,-9.0,-31.0,17.0,10873.0,12231.0,-415.0,666.0,-66.0,-7.0,-4.0,1.0
2022-05-06 11:28:45.773008-07:00,1817.8,551.4,1236.4,1454.3,971.3,1157.7,1576.8,1774.3,3437.0,3438.2,1507.8,1404.0,1403.0,3437.0,937.3,1390.3,3431.0,3437.0,756.3,1419.5,984.2,576.2,1255.1,1681.4,3433.4,3438.2,678.2,976.5,1342.2,1444.2,1190.3,945.8,-5.0,-55.0,27.0,7362.0,11296.0,-7518.0,-5488.0,-57.0,-12.0,-6.0,-6.0,-40.0,11.0,10896.0,12210.0,-416.0,665.0,-53.0,4.0,9.0,1.0
2022-05-06 11:28:45.832380-07:00,1817.8,551.4,1236.4,1454.3,973.9,1154.2,1574.9,1781.0,3437.0,3438.2,1507.8,1404.0,1395.7,3449.1,939.8,1397.6,3438.2,3440.7,755.4,1421.3,984.2,576.2,1255.1,1681.4,3446.7,3437.0,676.6,977.3,1342.2,1444.2,1190.3,945.8,-6.0,-28.0,31.0,7364.0,11295.0,-7513.0,-5494.0,7.0,-3.0,-23.0,-2.0,-35.0,19.0,10899.0,12208.0,-415.0,668.0,0.0,12.0,4.0,1.0
2022-05-06 11:28:45.892555-07:00,1815.8,550.6,1238.2,1456.2,973.9,1154.2,1574.9,1781.0,3437.0,3441.9,1505.1,1410.3,1395.7,3449.1,939.8,1397.6,3438.2,3440.7,755.4,1421.3,986.7,574.6,1261.3,1681.4,3446.7,3437.0,676.6,977.3,1350.3,1439.6,1188.5,949.2,-3.0,-55.0,24.0,7354.0,11307.0,-7498.0,-5504.0,12.0,-4.0,-38.0,-4.0,-34.0,18.0,10899.0,12207.0,-410.0,674.0,2.0,14.0,-5.0,1.0
2022-05-06 11:28:45.922576-07:00,1815.8,550.6,1238.2,1456.2,972.2,1153.3,1574.9,1773.3,3437.0,3441.9,1505.1,1410.3,1399.4,3438.2,943.2,1393.9,3439.5,3433.4,757.1,1419.5,986.7,574.6,1261.3,1681.4,3441.9,3446.7,679.9,977.3,1350.3,1439.6,1188.5,949.2,-8.0,-28.0,18.0,7350.0,11310.0,-7499.0,-5501.0,21.0,0.0,2.0,-4.0,-32.0,7.0,10894.0,12212.0,-409.0,675.0,17.0,1.0,0.0,1.0
2022-05-06 11:28:45.981957-07:00,1810.0,550.6,1246.2,1459.8,972.2,1153.3,1574.9,1773.3,3435.8,3443.1,1511.5,1396.7,1399.4,3438.2,943.2,1393.9,3439.5,3433.4,757.1,1419.5,985.0,574.6,1259.6,1676.7,3441.9,3446.7,679.9,977.3,1343.1,1433.2,1195.6,948.3,-9.0,-69.0,25.0,7352.0,11312.0,-7484.0,-5514.0,-31.0,-9.0,-37.0,-7.0,-38.0,22.0,10902.0,12205.0,-409.0,674.0,-20.0,6.0,-5.0,1.0
2022-05-06 11:28:46.041939-07:00,1816.8,550.6,1246.2,1459.8,979.9,1156.8,1563.7,1772.3,3433.4,3443.1,1511.5,1396.7,1390.3,3441.9,942.4,1390.3,3439.5,3438.2,757.9,1418.6,985.0,574.6,1259.6,1677.6,3445.5,3449.1,674.2,969.6,1343.1,1433.2,1195.6,950.0,-11.0,-36.0,22.0,7350.0,11311.0,-7488.0,-5514.0,-27.0,-4.0,8.0,-5.0,-27.0,15.0,10901.0,12206.0,-409.0,674.0,-24.0,-2.0,2.0,1.0
2022-05-06 11:28:46.072509-07:00,1816.8,550.6,1236.4,1451.6,979.9,1156.8,1563.7,1770.4,3433.4,3438.2,1505.1,1404.0,1390.3,3441.9,942.4,1389.4,3434.6,3438.2,757.9,1418.6,977.3,570.6,1260.4,1677.6,3439.5,3449.1,674.2,969.6,1347.6,1442.4,1198.2,950.0,-6.0,-46.0,26.0,7354.0,11310.0,-7483.0,-5517.0,0.0,14.0,-14.0,-5.0,-38.0,16.0,10905.0,12202.0,-409.0,674.0,2.0,5.0,-2.0,1.0
2022-05-06 11:28:46.131922-07:00,1839.1,550.6,1236.4,1451.6,984.2,1150.6,1566.5,1770.4,3439.5,3438.2,1505.1,1404.0,1393.0,3428.6,938.1,1389.4,3434.6,3435.8,755.4,1419.5,977.3,570.6,1260.4,1688.1,3439.5,3450.4,672.5,972.2,1347.6,1442.4,1198.2,941.5,-11.0,-48.0,26.0,7351.0,11313.0,-7479.0,-5519.0,-11.0,1.0,-17.0,-9.0,-28.0,18.0,10904.0,12203.0,-409.0,674.0,-11.0,3.0,-5.0,1.0
2022-05-06 11:28:46.191921-07:00,1839.1,551.4,1240.8,1458.0,984.2,1150.6,1566.5,1771.4,3439.5,3438.2,1507.8,1400.3,1393.0,3428.6,938.1,1391.2,3426.2,3435.8,755.4,1419.5,985.0,571.4,1262.2,1688.1,3443.1,3450.4,672.5,972.2,1350.3,1440.5,1198.2,941.5,-5.0,-52.0,25.0,7355.0,11313.0,-7474.0,-5524.0,-7.0,10.0,3.0,-7.0,-38.0,18.0,10908.0,12200.0,-408.0,675.0,-6.0,11.0,6.0,1.0
2022-05-06 11:28:46.221969-07:00,1816.8,551.4,1240.8,1458.0,971.3,1148.0,1562.7,1771.4,3441.9,3438.2,1507.8,1400.3,1405.8,3437.0,940.7,1391.2,3426.2,3443.1,756.3,1431.4,985.0,571.4,1262.2,1677.6,3443.1,3437.0,679.1,974.8,1350.3,1440.5,1198.2,947.5,-11.0,-41.0,25.0,7352.0,11318.0,-7468.0,-5525.0,14.0,-7.0,-38.0,-10.0,-38.0,19.0,10907.0,12200.0,-405.0,679.0,11.0,15.0,-2.0,1.0
2022-05-06 11:28:46.282016-07:00,1816.8,548.2,1235.5,1463.5,971.3,1148.0,1568.3,1777.2,3441.9,3438.2,1507.8,1407.6,1405.8,3437.0,944.1,1392.1,3433.4,3435.8,756.3,1431.4,981.6,583.5,1260.4,1677.6,3440.7,3451.6,679.1,974.8,1345.8,1442.4,1194.7,947.5,-1.0,-37.0,23.0,7345.0,11323.0,-7465.0,-5527.0,-12.0,13.0,-11.0,-4.0,-28.0,12.0,10903.0,12204.0,-402.0,681.0,-8.0,2.0,-2.0,1.0
2022-05-06 11:28:46.342013-07:00,1817.8,548.2,1235.5,1463.5,969.6,1156.8,1568.3,1777.2,3441.9,3438.2,1507.8,1407.6,1399.4,3439.5,944.1,1392.1,3433.4,3435.8,757.9,1423.1,981.6,583.5,1262.2,1675.7,3440.7,3451.6,679.1,972.2,1345.8,1442.4,1193.8,948.3,-6.0,-47.0,27.0,7343.0,11330.0,-7461.0,-5520.0,18.0,16.0,2.0,-6.0,-26.0,21.0,10897.0,12209.0,-400.0,683.0,18.0,9.0,3.0,1.0
2022-05-06 11:28:46.401883-07:00,1817.8,548.2,1244.4,1456.2,969.6,1156.8,1564.6,1778.1,3441.9,3438.2,1508.8,1404.9,1399.4,3439.5,941.5,1384.8,3438.2,3432.2,757.9,1423.1,980.7,577.0,1262.2,1675.7,3433.4,3449.1,679.1,972.2,1339.5,1446.0,1193.8,948.3,-8.0,-42.0,17.0,7340.0,11334.0,-7460.0,-5518.0,37.0,-5.0,-17.0,-3.0,-36.0,15.0,10894.0,12212.0,-399.0,683.0,31.0,0.0,-11.0,1.0
2022-05-06 11:28:46.432002-07:00,1817.8,546.6,1244.4,1456.2,978.2,1151.5,1564.6,1778.1,3439.5,3440.7,1508.8,1404.9,1402.1,3433.4,941.5,1384.8,3438.2,3432.2,750.5,1423.1,980.7,577.0,1262.2,1670.1,3433.4,3449.1,675.8,976.5,1339.5,1446.0,1197.4,959.4,-4.0,-48.0,32.0,7341.0,11332.0,-7459.0,-5522.0,-43.0,15.0,5.0,-6.0,-35.0,16.0,10896.0,12210.0,-398.0,682.0,-29.0,-2.0,5.0,1.0
2022-05-06 11:28:46.521931-07:00,1817.8,546.6,1239.1,1455.2,978.2,1151.5,1565.5,1768.5,3439.5,3440.7,1505.1,1407.6,1402.1,3433.4,933.9,1396.7,3439.5,3433.4,750.5,1423.1,979.9,569.0,1262.2,1670.1,3440.7,3449.1,675.8,976.5,1341.3,1439.6,1197.4,959.4,-4.0,-32.0,20.0,7352.0,11332.0,-7448.0,-5523.0,-38.0,10.0,-31.0,-2.0,-31.0,16.0,10903.0,12204.0,-397.0,680.0,-37.0,-4.0,-16.0,1.0
2022-05-06 11:28:46.523438-07:00,1818.7,550.6,1239.1,1455.2,973.9,1155.9,1565.5,1768.5,3439.5,3438.2,1505.1,1407.6,1398.5,3435.8,933.9,1396.7,3439.5,3433.4,750.5,1426.8,979.9,569.0,1264.9,1674.8,3440.7,3449.1,676.6,976.5,1341.3,1439.6,1196.5,947.5,-3.0,-59.0,29.0,7359.0,11327.0,-7435.0,-5540.0,-43.0,-9.0,-12.0,-6.0,-40.0,13.0,10918.0,12191.0,-396.0,678.0,-41.0,-9.0,0.0,1.0
2022-05-06 11:28:46.582038-07:00,1818.7,550.6,1236.4,1458.9,973.9,1151.5,1568.3,1772.3,3439.5,3438.2,1510.6,1408.5,1398.5,3439.5,940.7,1392.1,3435.8,3444.3,752.9,1426.8,985.9,577.0,1264.9,1674.8,3447.9,3445.5,680.7,976.5,1345.8,1445.1,1196.5,947.5,-4.0,-35.0,28.0,7363.0,11327.0,-7434.0,-5538.0,3.0,5.0,1.0,-5.0,-30.0,19.0,10919.0,12190.0,-396.0,678.0,-5.0,-1.0,1.0,1.0
2022-05-06 11:28:46.641935-07:00,1818.7,556.2,1237.3,1458.9,972.2,1151.5,1568.3,1772.3,3449.1,3441.9,1499.5,1408.5,1399.4,3439.5,940.7,1392.1,3435.8,3444.3,752.9,1420.4,985.9,572.2,1258.7,1680.5,3447.9,3445.5,680.7,976.5,1345.8,1445.1,1196.5,948.3,-4.0,-52.0,20.0,7362.0,11325.0,-7436.0,-5539.0,4.0,-7.0,12.0,-4.0,-34.0,10.0,10919.0,12190.0,-396.0,678.0,0.0,-8.0,3.0,1.0
2022-05-06 11:28:46.672075-07:00,1818.7,556.2,1237.3,1450.6,972.2,1152.4,1559.0,1756.0,3449.1,3441.9,1499.5,1408.5,1399.4,3438.2,931.3,1393.9,3441.9,3439.5,752.1,1420.4,987.6,572.2,1258.7,1680.5,3447.9,3444.3,674.2,976.5,1345.8,1445.1,1196.5,948.3,-8.0,-39.0,28.0,7360.0,11320.0,-7445.0,-5540.0,-1.0,-26.0,12.0,-10.0,-32.0,15.0,10919.0,12190.0,-399.0,676.0,0.0,-13.0,2.0,1.0
2022-05-06 11:28:46.732056-07:00,1820.7,553.8,1238.2,1450.6,973.9,1152.4,1559.0,1756.0,3433.4,3443.1,1509.7,1408.5,1396.7,3438.2,931.3,1393.9,3441.9,3439.5,752.1,1425.0,987.6,574.6,1257.8,1677.6,3447.9,3444.3,674.2,976.5,1345.8,1435.0,1197.4,944.1,-5.0,-53.0,27.0,7364.0,11316.0,-7445.0,-5543.0,11.0,5.0,12.0,-2.0,-43.0,18.0,10923.0,12187.0,-399.0,675.0,2.0,1.0,9.0,1.0
2022-05-06 11:28:46.791983-07:00,1820.7,553.8,1238.2,1454.3,973.9,1154.2,1560.9,1765.6,3433.4,3443.1,1509.7,1405.8,1396.7,3428.6,938.1,1397.6,3433.4,3438.2,753.8,1425.0,991.0,574.6,1257.8,1677.6,3445.5,3445.5,678.2,976.5,1343.1,1435.0,1197.4,944.1,-7.0,-49.0,25.0,7363.0,11316.0,-7446.0,-5544.0,-17.0,-9.0,4.0,-6.0,-36.0,17.0,10923.0,12187.0,-399.0,675.0,-20.0,-3.0,-4.0,1.0
2022-05-06 11:28:46.821824-07:00,1831.3,547.4,1239.1,1458.9,973.1,1154.2,1560.9,1765.6,3449.1,3434.6,1505.1,1406.7,1397.6,3428.6,938.1,1397.6,3433.4,3438.2,753.8,1420.4,983.3,575.4,1252.4,1679.5,3445.5,3445.5,678.2,979.0,1344.9,1438.7,1196.5,944.9,0.0,-25.0,21.0,7369.0,11310.0,-7450.0,-5542.0,-33.0,5.0,9.0,-4.0,-26.0,11.0,10924.0,12186.0,-399.0,675.0,-20.0,-9.0,3.0,1.0
2022-05-06 11:28:46.911913-07:00,1831.3,547.4,1239.1,1458.9,978.2,1157.7,1559.9,1763.7,3449.1,3434.6,1505.1,1406.7,1397.6,3441.9,937.3,1389.4,3432.2,3439.5,751.3,1418.6,983.3,575.4,1252.4,1679.5,3445.5,3445.5,681.5,977.3,1344.9,1438.7,1196.5,944.9,-12.0,-45.0,20.0,7383.0,11301.0,-7437.0,-5560.0,-68.0,-27.0,-23.0,-8.0,-31.0,20.0,10942.0,12170.0,-401.0,673.0,-69.0,-11.0,-5.0,1.0
2022-05-06 11:28:46.941883-07:00,1814.9,545.8,1253.3,1454.3,978.2,1157.7,1559.9,1763.7,3437.0,3444.3,1507.8,1404.0,1397.6,3441.9,937.3,1389.4,3432.2,3439.5,751.3,1418.6,984.2,571.4,1259.6,1680.5,3445.5,3445.5,681.5,977.3,1347.6,1436.9,1193.8,948.3,-11.0,-52.0,22.0,7399.0,11282.0,-7426.0,-5590.0,-63.0,-27.0,-13.0,-11.0,-38.0,18.0,10971.0,12143.0,-409.0,666.0,-79.0,-19.0,-3.0,1.0
2022-05-06 11:28:47.031837-07:00,1814.9,545.8,1253.3,1454.3,975.6,1153.3,1559.0,1763.7,3437.0,3444.3,1507.8,1404.0,1389.4,3439.5,937.3,1390.3,3444.3,3439.5,752.1,1432.3,984.2,571.4,1259.6,1680.5,3449.1,3450.4,670.9,981.6,1347.6,1436.9,1193.8,948.3,-9.0,-25.0,12.0,7401.0,11273.0,-7414.0,-5622.0,-75.0,-55.0,-76.0,-8.0,-28.0,15.0,10994.0,12123.0,-413.0,658.0,-92.0,-18.0,-20.0,1.0
2022-05-06 11:28:47.033313-07:00,1818.7,549.8,1237.3,1455.2,975.6,1153.3,1559.0,1763.7,3450.4,3446.7,1502.3,1404.9,1389.4,3439.5,937.3,1390.3,3444.3,3439.5,752.1,1432.3,978.2,572.2,1257.8,1679.5,3449.1,3450.4,670.9,981.6,1338.6,1439.6,1193.8,949.2,-16.0,0.0,3.0,7410.0,11256.0,-7345.0,-5735.0,-348.0,-177.0,-300.0,-13.0,-11.0,24.0,11066.0,12059.0,-419.0,626.0,-361.0,-71.0,-56.0,1.0
2022-05-06 11:28:47.091915-07:00,1818.7,549.8,1237.3,1455.2,974.8,1159.4,1563.7,1766.6,3450.4,3446.7,1502.3,1404.9,1399.4,3446.7,948.3,1397.6,3437.0,3451.6,754.6,1418.6,978.2,572.2,1257.8,1679.5,3441.9,3447.9,675.0,975.6,1338.6,1439.6,1193.8,949.2,6.0,-19.0,7.0,7463.0,11178.0,-7203.0,-5992.0,-592.0,-306.0,-430.0,-12.0,-44.0,-5.0,11257.0,11883.0,-444.0,570.0,-706.0,-126.0,-38.0,1.0
2022-05-06 11:28:47.122016-07:00,1823.6,556.2,1234.6,1456.2,974.8,1159.4,1563.7,1773.3,3428.6,3438.2,1513.4,1404.9,1399.4,3446.7,948.3,1389.4,3446.7,3451.6,754.6,1418.6,983.3,579.4,1257.8,1677.6,3439.5,3447.9,675.0,975.6,1337.7,1433.2,1193.8,947.5,-5.0,-72.0,41.0,7443.0,11135.0,-7003.0,-6327.0,-504.0,-421.0,-703.0,-8.0,-28.0,33.0,11472.0,11677.0,-472.0,498.0,-743.0,-133.0,-82.0,1.0
2022-05-06 11:28:47.181933-07:00,1821.6,556.2,1234.6,1456.2,971.3,1155.9,1568.3,1773.3,3438.2,3438.2,1513.4,1404.9,1388.5,3444.3,925.4,1389.4,3446.7,3437.0,757.1,1461.7,983.3,579.4,1257.8,1680.5,3439.5,3441.9,675.8,973.1,1337.7,1433.2,1193.8,945.8,19.0,3.0,68.0,7420.0,11119.0,-6771.0,-6625.0,-455.0,-128.0,-755.0,-3.0,-41.0,15.0,11685.0,11465.0,-505.0,440.0,-667.0,-106.0,-32.0,1.0
2022-05-06 11:28:47.272709-07:00,1821.6,553.0,1241.7,1451.6,971.3,1155.9,1568.3,1778.1,3438.2,3441.9,1508.8,1396.7,1388.5,3444.3,925.4,1393.0,3441.9,3437.0,757.1,1461.7,991.0,576.2,1258.7,1680.5,3449.1,3441.9,675.8,973.1,1336.8,1437.8,1190.3,945.8,4.0,-65.0,61.0,7380.0,11185.0,-6490.0,-6836.0,-397.0,35.0,-1004.0,17.0,-32.0,43.0,11873.0,11273.0,-504.0,377.0,-605.0,-61.0,-144.0,1.0
2022-05-06 11:28:47.274067-07:00,1819.7,553.0,1241.7,1451.6,982.5,1170.0,1559.0,1778.1,3444.3,3441.9,1508.8,1396.7,1399.4,3438.2,932.2,1393.0,3441.9,3440.7,766.2,1541.3,991.0,576.2,1258.7,1682.4,3449.1,3449.1,681.5,985.9,1336.8,1437.8,1190.3,944.9,6.0,-40.0,35.0,7304.0,11294.0,-6160.0,-7042.0,-125.0,186.0,-843.0,-14.0,10.0,12.0,12004.0,11136.0,-468.0,319.0,-320.0,15.0,-157.0,1.0
2022-05-06 11:28:47.331665-07:00,1819.7,553.8,1233.7,1455.2,982.5,1170.0,1559.0,1792.6,3444.3,3445.5,1522.7,1409.4,1399.4,3438.2,932.2,1393.9,3438.2,3440.7,766.2,1541.3,990.2,581.8,1260.4,1682.4,3439.5,3449.1,681.5,985.9,1339.5,1440.5,1193.8,944.9,-20.0,-77.0,15.0,7222.0,11442.0,-5849.0,-7151.0,-33.0,190.0,-718.0,-10.0,-29.0,46.0,12081.0,11057.0,-415.0,262.0,-170.0,21.0,-189.0,1.0
2022-05-06 11:28:47.422431-07:00,1859.6,553.8,1233.7,1455.2,977.3,1185.9,1566.5,1792.6,3446.7,3429.8,1522.7,1409.4,1393.0,3438.2,935.6,1393.9,3438.2,3439.5,763.7,1559.0,990.2,581.8,1267.6,1680.5,3439.5,3447.9,679.1,1005.6,1339.5,1440.5,1198.2,952.6,-6.0,-58.0,13.0,7131.0,11568.0,-5611.0,-7232.0,-54.0,117.0,-605.0,-14.0,-34.0,18.0,12135.0,11000.0,-356.0,198.0,-179.0,6.0,-195.0,1.0
2022-05-06 11:28:47.423926-07:00,1859.6,553.8,1237.3,1448.8,977.3,1185.9,1567.4,1783.9,3446.7,3429.8,1523.6,1419.5,1393.0,3438.2,932.2,1393.9,3434.6,3439.5,763.7,1559.0,997.0,577.0,1267.6,1680.5,3437.0,3446.7,679.1,1005.6,1338.6,1442.4,1198.2,952.6,15.0,0.0,5.0,7069.0,11663.0,-5367.0,-7324.0,-255.0,158.0,-722.0,2.0,1.0,5.0,12208.0,10922.0,-302.0,120.0,-334.0,-46.0,-238.0,1.0
2022-05-06 11:28:47.541943-07:00,1896.7,553.8,1237.3,1448.8,977.3,1185.0,1567.4,1783.9,3449.1,3434.6,1523.6,1419.5,1407.6,3449.1,932.2,1393.9,3434.6,3439.5,765.3,1568.3,997.0,577.0,1271.2,1677.6,3437.0,3446.7,679.9,1021.1,1338.6,1442.4,1199.1,950.9,25.0,-49.0,24.0,7018.0,11725.0,-5094.0,-7467.0,-277.0,15.0,-663.0,-39.0,-34.0,4.0,12296.0,10825.0,-257.0,14.0,-371.0,-62.0,-274.0,1.0
2022-05-06 11:28:47.543253-07:00,1896.7,553.8,1232.8,1463.5,977.3,1185.0,1561.8,1772.3,3449.1,3434.6,1538.5,1424.1,1407.6,3449.1,933.9,1393.9,3432.2,3438.2,765.3,1568.3,1006.5,578.6,1271.2,1677.6,3445.5,3439.5,679.9,1021.1,1345.8,1444.2,1199.1,950.9,2.0,-95.0,32.0,7016.0,11743.0,-4803.0,-7633.0,-334.0,-30.0,-579.0,-2.0,-50.0,18.0,12433.0,10667.0,-226.0,-78.0,-469.0,-70.0,-174.0,1.0
2022-05-06 11:28:47.572067-07:00,1887.9,552.2,1232.8,1463.5,980.7,1190.3,1561.8,1772.3,3437.0,3438.2,1538.5,1424.1,1412.2,3439.5,933.9,1393.9,3432.2,3438.2,764.5,1570.2,1006.5,578.6,1277.4,1675.7,3445.5,3439.5,679.9,1020.2,1345.8,1444.2,1205.3,949.2,3.0,-86.0,44.0,6988.0,11760.0,-4575.0,-7771.0,-263.0,33.0,-499.0,-8.0,-43.0,33.0,12536.0,10547.0,-195.0,-149.0,-366.0,-44.0,-149.0,1.0
2022-05-06 11:28:47.632494-07:00,1887.9,552.2,1230.2,1454.3,980.7,1185.9,1551.5,1758.9,3437.0,3438.2,1540.3,1420.4,1412.2,3438.2,934.7,1397.6,3437.0,3434.6,765.3,1570.2,1006.5,582.6,1277.4,1675.7,3440.7,3443.1,679.9,1020.2,1342.2,1446.0,1205.3,949.2,4.0,-23.0,19.0,6986.0,11763.0,-4347.0,-7897.0,-465.0,-2.0,-608.0,-11.0,-22.0,20.0,12656.0,10401.0,-171.0,-208.0,-542.0,-57.0,-130.0,1.0
2022-05-06 11:28:47.721956-07:00,1893.8,551.4,1234.6,1454.3,973.1,1185.9,1551.5,1758.9,3449.1,3438.2,1538.5,1420.4,1408.5,3438.2,934.7,1397.6,3437.0,3434.6,765.3,1568.3,1006.5,580.2,1268.5,1673.8,3440.7,3443.1,679.9,1016.8,1342.2,1447.9,1203.5,950.9,12.0,-76.0,39.0,6999.0,11765.0,-4042.0,-8043.0,-346.0,134.0,-602.0,8.0,-49.0,24.0,12766.0,10265.0,-162.0,-276.0,-407.0,-45.0,-154.0,1.0
2022-05-06 11:28:47.752859-07:00,1893.8,551.4,1234.6,1462.6,973.1,1189.4,1559.9,1764.6,3449.1,3438.2,1538.5,1430.5,1408.5,3449.1,938.1,1397.6,3437.0,3428.6,760.4,1568.3,1009.9,580.2,1268.5,1673.8,3439.5,3440.7,670.9,1016.8,1343.1,1447.9,1203.5,950.9,0.0,-33.0,11.0,6997.0,11780.0,-3753.0,-8163.0,-488.0,5.0,-667.0,-7.0,-23.0,30.0,12891.0,10105.0,-136.0,-343.0,-579.0,-69.0,-148.0,1.0
2022-05-06 11:28:47.811916-07:00,1891.8,553.0,1242.6,1462.6,973.9,1189.4,1559.9,1764.6,3439.5,3434.6,1536.6,1430.5,1405.8,3449.1,938.1,1397.6,3437.0,3428.6,760.4,1564.6,1009.9,575.4,1265.8,1678.6,3439.5,3440.7,670.9,1011.6,1343.1,1448.8,1202.7,946.6,29.0,-98.0,8.0,7010.0,11743.0,-3436.0,-8342.0,-527.0,22.0,-627.0,-11.0,-45.0,8.0,13048.0,9900.0,-117.0,-417.0,-536.0,-98.0,-137.0,1.0
2022-05-06 11:28:47.872194-07:00,1891.8,553.0,1242.6,1452.5,973.9,1195.6,1552.5,1768.5,3439.5,3434.6,1536.6,1420.4,1405.8,3441.9,946.6,1399.4,3439.5,3444.3,768.7,1564.6,1012.5,575.4,1265.8,1678.6,3443.1,3449.1,679.9,1011.6,1343.1,1448.8,1202.7,946.6,-3.0,-25.0,26.0,7028.0,11714.0,-3152.0,-8479.0,-444.0,-10.0,-532.0,-5.0,-21.0,21.0,13154.0,9756.0,-121.0,-479.0,-528.0,-75.0,-89.0,1.0
2022-05-06 11:28:47.873703-07:00,1888.9,557.0,1239.1,1452.5,979.0,1195.6,1552.5,1768.5,3443.1,3437.0,1533.8,1420.4,1404.0,3441.9,946.6,1399.4,3439.5,3444.3,768.7,1565.5,1012.5,579.4,1264.9,1675.7,3443.1,3449.1,679.9,1025.4,1343.1,1456.2,1220.4,951.7,-3.0,-97.0,11.0,7050.0,11647.0,-2851.0,-8658.0,-579.0,-100.0,-685.0,-3.0,-40.0,8.0,13327.0,9515.0,-115.0,-536.0,-659.0,-80.0,-128.0,1.0
2022-05-06 11:28:47.931874-07:00,1888.9,557.0,1239.1,1455.2,975.6,1209.7,1554.3,1755.0,3443.1,3437.0,1533.8,1424.1,1410.3,3433.4,935.6,1389.4,3431.0,3435.8,765.3,1559.9,1017.6,579.4,1264.9,1675.7,3444.3,3449.1,677.4,1015.9,1346.7,1456.2,1220.4,951.7,11.0,-98.0,21.0,7045.0,11593.0,-2619.0,-8806.0,-257.0,-68.0,-375.0,7.0,-60.0,16.0,13439.0,9353.0,-109.0,-593.0,-365.0,-72.0,-78.0,1.0
2022-05-06 11:28:47.992097-07:00,1887.9,557.0,1235.5,1458.0,975.6,1209.7,1554.3,1755.0,3438.2,3441.9,1531.0,1424.1,1410.3,3433.4,935.6,1389.4,3431.0,3435.8,765.3,1559.9,1014.2,577.8,1268.5,1680.5,3444.3,3449.1,677.4,1015.9,1344.9,1455.2,1219.5,942.4,-3.0,-45.0,32.0,7040.0,11535.0,-2465.0,-8929.0,-314.0,-155.0,-392.0,-2.0,-19.0,28.0,13549.0,9189.0,-113.0,-641.0,-449.0,-76.0,-92.0,1.0
2022-05-06 11:28:48.053158-07:00,1887.9,557.0,1235.5,1458.0,970.5,1195.6,1549.7,1756.0,3438.2,3441.9,1531.0,1424.1,1396.7,3444.3,935.6,1393.9,3438.2,3444.3,763.7,1552.5,1014.2,577.8,1268.5,1680.5,3443.1,3450.4,681.5,1008.2,1344.9,1455.2,1219.5,942.4,18.0,-110.0,23.0,7014.0,11492.0,-2338.0,-9039.0,-138.0,-98.0,-282.0,-3.0,-61.0,28.0,13623.0,9074.0,-102.0,-696.0,-290.0,-73.0,-97.0,1.0
2022-05-06 11:28:48.081769-07:00,1904.6,549.8,1234.6,1451.6,970.5,1195.6,1549.7,1756.0,3438.2,3438.2,1535.7,1428.6,1396.7,3444.3,935.6,1393.9,3438.2,3444.3,763.7,1552.5,1015.9,578.6,1263.1,1674.8,3443.1,3450.4,681.5,1008.2,1344.0,1437.8,1215.1,944.9,-4.0,3.0,48.0,6993.0,11437.0,-2289.0,-9137.0,-120.0,-196.0,-190.0,0.0,-23.0,8.0,13687.0,8975.0,-105.0,-735.0,-249.0,-53.0,-77.0,1.0
2022-05-06 11:28:48.142137-07:00,1904.6,549.8,1234.6,1451.6,975.6,1195.6,1544.1,1752.1,3438.2,3438.2,1535.7,1428.6,1398.5,3435.8,939.0,1402.1,3438.2,3444.3,759.6,1550.6,1015.9,578.6,1263.1,1674.8,3441.9,3446.7,670.9,1009.0,1344.0,1437.8,1215.1,944.9,25.0,-51.0,38.0,6935.0,11442.0,-2210.0,-9195.0,72.0,33.0,-260.0,10.0,-53.0,21.0,13702.0,8947.0,-69.0,-796.0,-53.0,4.0,-180.0,1.0
2022-05-06 11:28:48.172166-07:00,1896.7,551.4,1241.7,1454.3,975.6,1195.6,1544.1,1747.3,3443.1,3449.1,1532.9,1424.1,1398.5,3435.8,939.0,1391.2,3433.4,3444.3,759.6,1550.6,1022.8,582.6,1264.0,1679.5,3441.9,3446.7,670.9,1009.0,1345.8,1451.6,1213.3,944.9,13.0,-115.0,32.0,6875.0,11437.0,-2114.0,-9268.0,-122.0,-124.0,-289.0,-10.0,-59.0,16.0,13744.0,8878.0,-43.0,-844.0,-230.0,-42.0,-123.0,1.0
2022-05-06 11:28:48.231796-07:00,1899.7,551.4,1241.7,1454.3,972.2,1195.6,1534.8,1747.3,3444.3,3449.1,1532.9,1424.1,1403.0,3437.0,940.7,1391.2,3433.4,3446.7,768.7,1545.0,1022.8,582.6,1264.0,1676.7,3441.9,3450.4,680.7,1003.0,1345.8,1451.6,1213.3,945.8,12.0,-86.0,41.0,6825.0,11421.0,-2059.0,-9337.0,18.0,-45.0,-161.0,-4.0,-49.0,30.0,13780.0,8817.0,-22.0,-897.0,-106.0,-27.0,-106.0,1.0
2022-05-06 11:28:48.291802-07:00,1899.7,549.0,1239.1,1448.8,972.2,1195.6,1534.8,1741.6,3444.3,3444.3,1534.8,1424.1,1403.0,3437.0,940.7,1394.8,3452.8,3446.7,768.7,1545.0,1018.5,581.8,1264.0,1676.7,3451.6,3450.4,680.7,1003.0,1344.0,1449.7,1209.7,945.8,3.0,-64.0,32.0,6798.0,11393.0,-2006.0,-9402.0,-79.0,-68.0,-100.0,-1.0,-35.0,22.0,13814.0,8761.0,-15.0,-927.0,-139.0,-32.0,-18.0,1.0
2022-05-06 11:28:48.323590-07:00,1910.5,549.0,1239.1,1448.8,973.1,1197.4,1540.3,1741.6,3446.7,3444.3,1534.8,1424.1,1401.2,3440.7,940.7,1394.8,3452.8,3446.7,759.6,1540.3,1018.5,581.8,1264.0,1673.8,3451.6,3449.1,678.2,1008.2,1344.0,1449.7,1209.7,947.5,17.0,-80.0,35.0,6795.0,11371.0,-1961.0,-9441.0,-92.0,-15.0,-107.0,-1.0,-51.0,21.0,13843.0,8713.0,-17.0,-944.0,-108.0,-28.0,-29.0,1.0
2022-05-06 11:28:48.382490-07:00,1910.5,545.8,1232.8,1453.4,973.1,1197.4,1540.3,1758.9,3446.7,3437.0,1531.0,1420.4,1401.2,3440.7,940.7,1398.5,3434.6,3446.7,759.6,1540.3,1021.9,578.6,1267.6,1673.8,3449.1,3449.1,678.2,1008.2,1343.1,1447.9,1212.4,947.5,27.0,-66.0,45.0,6796.0,11337.0,-1896.0,-9494.0,-77.0,-35.0,-68.0,3.0,-39.0,12.0,13874.0,8662.0,-17.0,-952.0,-18.0,37.0,27.0,1.0
2022-05-06 11:28:48.441856-07:00,1922.3,546.6,1232.8,1453.4,975.6,1194.7,1545.0,1758.9,3428.6,3441.9,1531.0,1420.4,1400.3,3439.5,936.4,1398.5,3434.6,3449.1,755.4,1535.7,1021.9,578.6,1265.8,1680.5,3449.1,3438.2,677.4,1003.0,1343.1,1447.9,1208.0,947.5,3.0,-68.0,15.0,6796.0,11337.0,-1850.0,-9503.0,-14.0,96.0,-26.0,-6.0,-37.0,31.0,13877.0,8659.0,0.0,-936.0,35.0,49.0,-5.0,1.0
2022-05-06 11:28:48.472138-07:00,1922.3,546.6,1232.8,1453.4,975.6,1194.7,1536.6,1747.3,3428.6,3441.9,1538.5,1433.2,1400.3,3439.5,941.5,1393.9,3439.5,3438.2,755.4,1535.7,1015.9,582.6,1265.8,1680.5,3443.1,3438.2,677.4,1003.0,1344.9,1450.6,1208.0,947.5,22.0,-49.0,31.0,6806.0,11335.0,-1824.0,-9503.0,-43.0,52.0,-32.0,0.0,-22.0,10.0,13884.0,8649.0,10.0,-930.0,42.0,20.0,-10.0,1.0
2022-05-06 11:28:48.531890-07:00,1910.5,541.0,1232.8,1453.4,980.7,1188.5,1536.6,1747.3,3439.5,3445.5,1538.5,1433.2,1403.0,3435.8,941.5,1393.9,3439.5,3438.2,754.6,1553.4,1015.9,582.6,1260.4,1678.6,3443.1,3438.2,674.2,1008.2,1344.9,1450.6,1203.5,945.8,8.0,-93.0,-1.0,6792.0,11364.0,-1787.0,-9485.0,-33.0,53.0,-99.0,5.0,-38.0,25.0,13877.0,8659.0,28.0,-938.0,-62.0,17.0,-45.0,1.0
2022-05-06 11:28:48.562057-07:00,1910.5,541.0,1231.0,1458.0,980.7,1188.5,1536.6,1737.8,3439.5,3445.5,1537.6,1424.1,1403.0,3435.8,937.3,1385.7,3435.8,3437.0,754.6,1553.4,1015.9,573.8,1260.4,1678.6,3438.2,3439.5,674.2,1008.2,1344.9,1442.4,1203.5,945.8,20.0,-35.0,31.0,6789.0,11345.0,-1781.0,-9511.0,5.0,-21.0,12.0,-9.0,-25.0,-6.0,13893.0,8634.0,28.0,-944.0,6.0,-20.0,10.0,1.0
2022-05-06 11:28:48.621920-07:00,1895.8,549.8,1231.0,1458.0,973.9,1195.6,1536.6,1737.8,3449.1,3439.5,1537.6,1424.1,1401.2,3438.2,937.3,1385.7,3435.8,3437.0,762.0,1540.3,1015.9,573.8,1262.2,1677.6,3438.2,3439.5,675.0,1005.6,1344.9,1442.4,1202.7,941.5,33.0,-103.0,18.0,6785.0,11353.0,-1750.0,-9510.0,-69.0,28.0,-108.0,0.0,-42.0,18.0,13900.0,8621.0,30.0,-951.0,-54.0,-8.0,-30.0,1.0
2022-05-06 11:28:48.681901-07:00,1895.8,549.8,1234.6,1455.2,973.9,1195.6,1532.9,1744.5,3449.1,3439.5,1539.4,1429.5,1401.2,3438.2,936.4,1393.0,3441.9,3440.7,762.0,1540.3,1014.2,579.4,1262.2,1677.6,3437.0,3441.9,675.0,1005.6,1342.2,1449.7,1202.7,941.5,17.0,-44.0,33.0,6782.0,11356.0,-1749.0,-9509.0,40.0,19.0,53.0,0.0,-35.0,13.0,13898.0,8623.0,30.0,-956.0,60.0,1.0,16.0,1.0
2022-05-06 11:28:48.711922-07:00,1895.8,546.6,1231.9,1455.2,972.2,1188.5,1532.9,1744.5,3443.1,3438.2,1534.8,1429.5,1393.0,3438.2,936.4,1393.0,3441.9,3440.7,759.6,1533.8,1014.2,578.6,1252.4,1674.8,3437.0,3441.9,678.2,1003.9,1342.2,1454.3,1202.7,946.6,14.0,-60.0,46.0,6781.0,11384.0,-1749.0,-9476.0,68.0,160.0,-7.0,-5.0,-53.0,21.0,13876.0,8660.0,41.0,-955.0,183.0,77.0,-45.0,1.0
2022-05-06 11:28:48.801906-07:00,1895.8,546.6,1231.9,1457.1,972.2,1190.3,1542.2,1746.4,3443.1,3438.2,1534.8,1425.9,1393.0,3439.5,938.1,1397.6,3440.7,3428.6,755.4,1533.8,1014.2,578.6,1252.4,1674.8,3447.9,3443.1,675.8,1003.9,1348.5,1454.3,1202.7,946.6,24.0,-67.0,5.0,6770.0,11427.0,-1740.0,-9434.0,-6.0,40.0,2.0,-7.0,-38.0,2.0,13861.0,8683.0,68.0,-949.0,1.0,27.0,8.0,1.0
2022-05-06 11:28:48.831840-07:00,1898.7,545.0,1233.7,1457.1,969.6,1190.3,1542.2,1746.4,3441.9,3439.5,1531.0,1425.9,1399.4,3439.5,938.1,1397.6,3440.7,3428.6,755.4,1538.5,1014.2,575.4,1260.4,1680.5,3447.9,3443.1,675.8,1009.0,1348.5,1447.0,1202.7,948.3,7.0,-54.0,4.0,6762.0,11440.0,-1734.0,-9425.0,50.0,43.0,-30.0,0.0,-30.0,10.0,13855.0,8692.0,76.0,-951.0,37.0,12.0,-32.0,1.0
2022-05-06 11:28:48.861879-07:00,1898.7,545.0,1233.7,1468.1,969.6,1205.3,1526.4,1745.4,3441.9,3439.5,1531.0,1428.6,1399.4,3444.3,939.0,1399.4,3441.9,3435.8,756.3,1538.5,1013.3,575.4,1260.4,1680.5,3441.9,3449.1,670.9,1009.0,1335.0,1447.0,1202.7,948.3,27.0,-87.0,17.0,6755.0,11444.0,-1738.0,-9425.0,15.0,-24.0,36.0,0.0,-40.0,8.0,13854.0,8694.0,77.0,-955.0,23.0,-8.0,2.0,1.0
2022-05-06 11:28:48.921986-07:00,1900.7,548.2,1246.2,1468.1,979.9,1205.3,1526.4,1745.4,3444.3,3435.8,1542.2,1428.6,1401.2,3444.3,939.0,1399.4,3441.9,3435.8,756.3,1533.8,1013.3,581.0,1260.4,1673.8,3441.9,3449.1,670.9,1006.5,1335.0,1449.7,1204.4,948.3,2.0,-47.0,18.0,6748.0,11443.0,-1742.0,-9430.0,-36.0,-10.0,-54.0,4.0,-28.0,28.0,13857.0,8689.0,76.0,-960.0,-40.0,-11.0,-15.0,1.0
2022-05-06 11:28:48.981822-07:00,1900.7,548.2,1246.2,1453.4,977.3,1195.6,1535.7,1741.6,3444.3,3435.8,1542.2,1422.2,1402.1,3433.4,935.6,1388.5,3439.5,3435.8,757.1,1529.2,1015.9,581.0,1260.4,1673.8,3434.6,3449.1,679.9,1002.2,1339.5,1449.7,1204.4,948.3,25.0,-68.0,37.0,6742.0,11434.0,-1755.0,-9442.0,42.0,-33.0,37.0,0.0,-37.0,14.0,13857.0,8688.0,76.0,-962.0,47.0,25.0,25.0,1.0
2022-05-06 11:28:49.011868-07:00,1898.7,550.6,1241.7,1453.4,977.3,1195.6,1535.7,1741.6,3444.3,3428.6,1530.1,1420.4,1402.1,3433.4,935.6,1388.5,3439.5,3435.8,757.1,1529.2,1011.6,579.4,1260.4,1676.7,3434.6,3449.1,679.9,1002.2,1344.9,1445.1,1204.4,950.9,14.0,-49.0,35.0,6748.0,11424.0,-1744.0,-9453.0,-18.0,52.0,2.0,1.0,-27.0,15.0,13857.0,8689.0,83.0,-950.0,56.0,34.0,5.0,1.0
2022-05-06 11:28:49.102771-07:00,1898.7,550.6,1241.7,1453.4,965.4,1198.2,1529.2,1729.1,3444.3,3428.6,1530.1,1420.4,1401.2,3449.1,932.2,1391.2,3439.5,3440.7,757.1,1528.3,1011.6,579.4,1260.4,1676.7,3440.7,3441.9,659.5,1000.5,1344.9,1445.1,1204.4,950.9,30.0,-59.0,21.0,6741.0,11447.0,-1737.0,-9431.0,108.0,109.0,63.0,1.0,-47.0,6.0,13835.0,8724.0,94.0,-946.0,172.0,31.0,-14.0,1.0
2022-05-06 11:28:49.132399-07:00,1901.6,545.0,1226.6,1456.2,965.4,1198.2,1529.2,1729.1,3441.9,3445.5,1529.2,1425.9,1401.2,3449.1,932.2,1391.2,3439.5,3440.7,757.1,1528.3,1007.3,578.6,1259.6,1684.3,3440.7,3441.9,659.5,1000.5,1347.6,1450.6,1206.2,945.8,9.0,-29.0,3.0,6735.0,11476.0,-1759.0,-9396.0,18.0,44.0,38.0,-7.0,-15.0,15.0,13817.0,8754.0,101.0,-938.0,-7.0,21.0,20.0,1.0
2022-05-06 11:28:49.161972-07:00,1901.6,545.0,1226.6,1456.2,976.5,1192.0,1532.0,1735.8,3441.9,3445.5,1529.2,1425.9,1397.6,3434.6,938.1,1390.3,3434.6,3440.7,757.9,1532.9,1007.3,578.6,1259.6,1684.3,3444.3,3449.1,672.5,1007.3,1347.6,1450.6,1206.2,945.8,39.0,-60.0,3.0,6739.0,11475.0,-1757.0,-9395.0,21.0,1.0,12.0,0.0,-37.0,-10.0,13818.0,8752.0,107.0,-932.0,21.0,8.0,2.0,1.0
2022-05-06 11:28:49.253010-07:00,1899.7,540.2,1235.5,1454.3,976.5,1192.0,1532.0,1730.1,3433.4,3438.2,1529.2,1425.9,1397.6,3434.6,938.1,1393.0,3438.2,3440.7,757.9,1532.9,1004.8,572.2,1256.9,1676.7,3438.2,3449.1,672.5,1007.3,1343.1,1448.8,1203.5,945.8,19.0,-40.0,11.0,6737.0,11475.0,-1770.0,-9394.0,31.0,-34.0,41.0,0.0,-29.0,4.0,13816.0,8757.0,106.0,-931.0,10.0,3.0,12.0,1.0
2022-05-06 11:28:49.281733-07:00,1908.5,540.2,1235.5,1454.3,974.8,1191.2,1525.5,1730.1,3445.5,3438.2,1529.2,1425.9,1393.0,3444.3,939.0,1393.0,3438.2,3444.3,757.1,1526.4,1004.8,572.2,1256.9,1676.7,3438.2,3439.5,675.8,1003.9,1343.1,1448.8,1203.5,944.9,29.0,-73.0,29.0,6734.0,11464.0,-1777.0,-9408.0,25.0,-17.0,31.0,-1.0,-48.0,5.0,13818.0,8753.0,106.0,-931.0,49.0,2.0,2.0,1.0
2022-05-06 11:28:49.311911-07:00,1908.5,543.4,1230.2,1448.8,974.8,1191.2,1525.5,1724.4,3445.5,3450.4,1529.2,1411.3,1393.0,3444.3,939.0,1397.6,3433.4,3444.3,757.1,1526.4,1011.6,574.6,1257.8,1676.7,3435.8,3439.5,675.8,1003.9,1341.3,1446.0,1208.9,944.9,5.0,-54.0,42.0,6721.0,11494.0,-1813.0,-9374.0,169.0,134.0,121.0,5.0,-44.0,20.0,13792.0,8794.0,112.0,-926.0,233.0,58.0,5.0,1.0
