Time,P0,P1,P2,P3,P4,P5,P6,P7,P8,P9,P10,P11,P12,P13,P14,P15,P16,P17,P18,P19,P20,P21,P22,P23,P24,P25,P26,P27,P28,P29,P30,P31,ECG,AX0,AY0,AZ0,QW0,QX0,QY0,QZ0,GX0,GY0,GZ0,AX1,AY1,AZ1,QW1,QX1,QY1,QZ1,GX1,GY1,GZ1
2022-05-06 12:46:06.737052-07:00,1877.2,642.4,1219.5,1521.8,965.4,1201.8,1617.1,1874.2,3437.0,3438.2,1485.6,1392.1,1465.4,3444.3,974.8,1443.3,3438.2,3432.2,691.3,1328.7,947.5,559.4,1409.4,1733.9,3444.3,3447.9,692.9,1047.8,1274.7,1519.0,1209.7,954.3,0.0,10.0,15.0,7696.0,12329.0,-6227.0,-4292.0,-34.0,-1.0,18.0,-3.0,10.0,16.0,9157.0,11646.0,4940.0,4955.0,-27.0,-4.0,7.0,1.0
2022-05-06 12:46:06.764580-07:00,1885.0,640.8,1224.8,1521.8,968.8,1201.8,1617.1,1874.2,3449.1,3438.2,1485.6,1392.1,1461.7,3444.3,974.8,1443.3,3438.2,3432.2,691.3,1329.6,947.5,567.4,1407.6,1723.4,3444.3,3447.9,692.9,1040.1,1274.7,1518.0,1211.5,949.2,7.0,5.0,13.0,7702.0,12317.0,-6237.0,-4301.0,0.0,-30.0,17.0,-1.0,14.0,7.0,9165.0,11641.0,4936.0,4957.0,-7.0,-7.0,6.0,1.0
2022-05-06 12:46:06.824746-07:00,1885.0,640.8,1224.8,1515.3,968.8,1214.2,1605.8,1865.4,3449.1,3438.2,1485.6,1397.6,1461.7,3444.3,977.3,1438.7,3439.5,3438.2,694.6,1329.6,948.3,567.4,1407.6,1723.4,3439.5,3445.5,694.6,1040.1,1285.5,1518.0,1211.5,949.2,6.0,0.0,20.0,7708.0,12310.0,-6239.0,-4307.0,-7.0,7.0,2.0,-4.0,9.0,16.0,9166.0,11639.0,4936.0,4958.0,-15.0,-2.0,2.0,1.0
2022-05-06 12:46:06.884532-07:00,1886.9,640.8,1214.2,1515.3,965.4,1214.2,1605.8,1865.4,3443.1,3441.9,1490.3,1397.6,1460.8,3444.3,977.3,1438.7,3439.5,3438.2,694.6,1325.9,948.3,565.0,1409.4,1720.5,3439.5,3445.5,694.6,1047.8,1285.5,1527.3,1210.6,956.8,5.0,5.0,15.0,7714.0,12307.0,-6238.0,-4308.0,-23.0,9.0,6.0,0.0,6.0,8.0,9168.0,11638.0,4935.0,4959.0,-11.0,-1.0,2.0,1.0
2022-05-06 12:46:06.916527-07:00,1886.9,640.8,1214.2,1511.5,965.4,1208.0,1617.1,1856.7,3443.1,3441.9,1490.3,1393.0,1460.8,3451.6,966.2,1440.5,3443.1,3435.8,690.5,1325.9,946.6,565.0,1409.4,1720.5,3440.7,3441.9,692.9,1047.8,1279.2,1527.3,1210.6,956.8,6.0,1.0,16.0,7723.0,12305.0,-6234.0,-4304.0,8.0,24.0,9.0,0.0,5.0,13.0,9173.0,11634.0,4933.0,4961.0,-4.0,3.0,8.0,1.0
2022-05-06 12:46:06.974904-07:00,1886.9,650.5,1216.8,1516.2,961.1,1208.0,1617.1,1856.7,3446.7,3434.6,1484.7,1391.2,1454.3,3451.6,966.2,1440.5,3443.1,3435.8,690.5,1323.2,947.5,565.8,1409.4,1720.5,3440.7,3441.9,692.9,1041.8,1279.2,1522.7,1210.6,949.2,1.0,8.0,11.0,7725.0,12309.0,-6229.0,-4294.0,0.0,23.0,9.0,3.0,5.0,15.0,9171.0,11636.0,4933.0,4961.0,-2.0,2.0,2.0,1.0
2022-05-06 12:46:07.034552-07:00,1886.9,650.5,1216.8,1516.2,973.9,1204.4,1604.0,1855.7,3446.7,3434.6,1484.7,1391.2,1458.0,3445.5,977.3,1442.4,3439.5,3440.7,689.7,1329.6,947.5,565.8,1409.4,1720.5,3443.1,3447.9,692.1,1048.7,1279.2,1522.7,1210.6,949.2,3.0,14.0,3.0,7726.0,12314.0,-6226.0,-4285.0,11.0,22.0,-5.0,3.0,11.0,12.0,9170.0,11636.0,4932.0,4961.0,7.0,9.0,4.0,1.0
2022-05-06 12:46:07.064588-07:00,1879.1,638.4,1219.5,1510.6,973.9,1204.4,1604.0,1855.7,3444.3,3440.7,1490.3,1389.4,1458.0,3445.5,977.3,1442.4,3439.5,3440.7,689.7,1329.6,943.2,565.8,1403.0,1727.2,3443.1,3447.9,692.1,1048.7,1276.5,1527.3,1210.6,951.7,3.0,0.0,12.0,7724.0,12318.0,-6225.0,-4277.0,28.0,10.0,7.0,0.0,9.0,14.0,9168.0,11638.0,4933.0,4960.0,24.0,0.0,2.0,1.0
2022-05-06 12:46:07.125663-07:00,1879.1,638.4,1219.5,1510.6,962.0,1199.1,1604.0,1852.8,3444.3,3440.7,1490.3,1389.4,1458.9,3438.2,966.2,1448.8,3434.6,3439.5,694.6,1324.1,943.2,565.8,1403.0,1727.2,3434.6,3441.9,695.4,1047.0,1276.5,1527.3,1210.6,951.7,-1.0,9.0,11.0,7728.0,12316.0,-6224.0,-4277.0,-28.0,-2.0,-9.0,-3.0,4.0,15.0,9168.0,11638.0,4933.0,4960.0,-30.0,3.0,0.0,1.0
2022-05-06 12:46:07.184526-07:00,1876.2,644.0,1223.0,1517.1,962.0,1199.1,1604.0,1852.8,3438.2,3444.3,1489.3,1395.7,1458.9,3438.2,966.2,1448.8,3434.6,3439.5,694.6,1324.1,948.3,564.2,1407.6,1725.3,3434.6,3441.9,695.4,1047.0,1280.1,1525.5,1207.1,954.3,3.0,6.0,15.0,7728.0,12313.0,-6227.0,-4281.0,8.0,-5.0,8.0,-1.0,13.0,7.0,9171.0,11636.0,4932.0,4961.0,-4.0,-5.0,5.0,1.0
2022-05-06 12:46:07.244518-07:00,1876.2,644.0,1223.0,1517.1,967.1,1201.8,1601.1,1833.3,3438.2,3444.3,1489.3,1395.7,1458.9,3431.0,965.4,1433.2,3435.8,3435.8,689.7,1324.1,948.3,564.2,1407.6,1725.3,3437.0,3444.3,690.5,1044.4,1280.1,1525.5,1207.1,954.3,1.0,2.0,15.0,7723.0,12316.0,-6229.0,-4280.0,41.0,-12.0,4.0,-1.0,6.0,12.0,9170.0,11637.0,4933.0,4961.0,17.0,2.0,2.0,1.0
2022-05-06 12:46:07.274680-07:00,1886.0,640.8,1227.5,1519.0,967.1,1201.8,1601.1,1825.5,3439.5,3443.1,1485.6,1396.7,1458.9,3431.0,965.4,1443.3,3438.2,3435.8,689.7,1324.1,946.6,562.6,1406.7,1725.3,3446.7,3444.3,690.5,1044.4,1283.7,1522.7,1211.5,950.9,7.0,5.0,12.0,7706.0,12321.0,-6238.0,-4280.0,28.0,-29.0,2.0,3.0,1.0,8.0,9162.0,11643.0,4936.0,4957.0,15.0,4.0,-2.0,1.0
2022-05-06 12:46:07.365165-07:00,1874.2,640.8,1227.5,1519.0,959.4,1207.1,1606.8,1825.5,3439.5,3443.1,1485.6,1396.7,1460.8,3438.2,971.3,1443.3,3438.2,3428.6,688.9,1324.1,946.6,562.6,1406.7,1728.2,3446.7,3438.2,694.6,1041.8,1283.7,1522.7,1211.5,956.8,-7.0,12.0,-3.0,7645.0,12340.0,-6266.0,-4296.0,188.0,-179.0,-40.0,-5.0,10.0,14.0,9142.0,11657.0,4948.0,4948.0,118.0,9.0,-22.0,1.0
2022-05-06 12:46:07.366448-07:00,1874.2,648.1,1218.6,1512.5,959.4,1207.1,1606.8,1853.7,3439.5,3449.1,1488.4,1393.0,1460.8,3438.2,971.3,1439.6,3439.5,3428.6,688.9,1324.1,942.4,565.0,1401.2,1728.2,3449.1,3438.2,694.6,1041.8,1276.5,1525.5,1210.6,956.8,19.0,13.0,22.0,7587.0,12340.0,-6306.0,-4340.0,-12.0,-108.0,-8.0,-3.0,20.0,-2.0,9119.0,11674.0,4965.0,4933.0,18.0,-11.0,-13.0,1.0
2022-05-06 12:46:07.424745-07:00,1888.9,648.1,1218.6,1512.5,968.8,1208.0,1599.3,1853.7,3446.7,3449.1,1488.4,1393.0,1463.5,3441.9,969.6,1439.6,3439.5,3433.4,690.5,1325.0,942.4,565.0,1401.2,1732.0,3449.1,3449.1,697.0,1040.1,1276.5,1525.5,1210.6,955.1,3.0,3.0,25.0,7608.0,12323.0,-6304.0,-4354.0,-9.0,5.0,12.0,-3.0,0.0,19.0,9138.0,11664.0,4955.0,4934.0,-31.0,-10.0,0.0,1.0
2022-05-06 12:46:07.575364-07:00,1888.9,636.7,1221.3,1517.1,968.8,1208.0,1599.3,1836.2,3446.7,3438.2,1489.3,1392.1,1463.5,3441.9,969.6,1445.1,3433.4,3433.4,690.5,1325.0,945.8,562.6,1400.3,1732.0,3443.1,3449.1,697.0,1040.1,1279.2,1522.7,1214.2,955.1,10.0,9.0,27.0,7615.0,12320.0,-6302.0,-4351.0,-11.0,46.0,-4.0,2.0,9.0,13.0,9134.0,11666.0,4956.0,4933.0,9.0,5.0,-6.0,1.0
2022-05-06 12:46:07.576272-07:00,1880.1,640.8,1221.3,1517.1,965.4,1195.6,1607.7,1836.2,3438.2,3432.2,1489.3,1392.1,1463.5,3445.5,971.3,1445.1,3433.4,3434.6,690.5,1323.2,945.8,562.6,1404.0,1724.4,3443.1,3439.5,698.7,1044.4,1279.2,1522.7,1208.9,943.2,-2.0,2.0,8.0,7631.0,12324.0,-6289.0,-4333.0,18.0,51.0,12.0,-1.0,9.0,12.0,9131.0,11667.0,4960.0,4935.0,18.0,16.0,2.0,1.0
2022-05-06 12:46:07.605013-07:00,1880.1,640.8,1216.0,1515.3,965.4,1195.6,1610.5,1843.0,3438.2,3432.2,1489.3,1387.5,1463.5,3445.5,973.9,1441.5,3434.6,3428.6,690.5,1323.2,944.1,566.6,1404.0,1724.4,3440.7,3438.2,698.7,1044.4,1282.8,1530.1,1208.9,943.2,0.0,6.0,2.0,7632.0,12329.0,-6286.0,-4321.0,-10.0,-2.0,-4.0,-1.0,7.0,13.0,9129.0,11667.0,4961.0,4935.0,-12.0,-2.0,-4.0,1.0
2022-05-06 12:46:07.634547-07:00,1878.1,642.4,1216.0,1515.3,958.5,1203.5,1610.5,1843.0,3441.9,3443.1,1489.3,1387.5,1453.4,3439.5,973.9,1441.5,3434.6,3428.6,688.9,1325.0,944.1,566.6,1396.7,1727.2,3440.7,3438.2,691.3,1041.8,1282.8,1530.1,1211.5,940.7,2.0,13.0,8.0,7640.0,12321.0,-6288.0,-4329.0,-62.0,-4.0,1.0,-6.0,11.0,15.0,9139.0,11662.0,4955.0,4935.0,-49.0,-14.0,-10.0,1.0
2022-05-06 12:46:07.664850-07:00,1878.1,642.4,1215.1,1519.0,958.5,1203.5,1603.0,1849.8,3441.9,3443.1,1480.1,1399.4,1453.4,3439.5,977.3,1442.4,3432.2,3439.5,688.9,1325.0,943.2,564.2,1396.7,1727.2,3438.2,3444.3,691.3,1041.8,1281.9,1526.4,1211.5,940.7,1.0,3.0,21.0,7651.0,12313.0,-6284.0,-4334.0,21.0,12.0,-4.0,-1.0,5.0,19.0,9145.0,11659.0,4952.0,4935.0,11.0,-1.0,1.0,1.0
2022-05-06 12:46:07.755079-07:00,1872.3,635.9,1215.1,1519.0,957.7,1206.2,1603.0,1849.8,3438.2,3444.3,1480.1,1399.4,1458.0,3438.2,977.3,1442.4,3432.2,3439.5,691.3,1324.1,943.2,564.2,1395.7,1727.2,3438.2,3444.3,692.1,1041.8,1281.9,1526.4,1207.1,955.1,2.0,7.0,5.0,7653.0,12316.0,-6281.0,-4327.0,28.0,20.0,7.0,1.0,8.0,13.0,9138.0,11664.0,4955.0,4933.0,34.0,6.0,-5.0,1.0
2022-05-06 12:46:07.784682-07:00,1872.3,635.9,1221.3,1508.8,957.7,1206.2,1596.4,1839.1,3438.2,3444.3,1484.7,1395.7,1458.0,3438.2,968.8,1441.5,3438.2,3437.0,691.3,1324.1,946.6,568.2,1395.7,1727.2,3441.9,3434.6,692.1,1041.8,1283.7,1524.5,1207.1,955.1,0.0,4.0,4.0,7659.0,12317.0,-6276.0,-4321.0,-33.0,9.0,-14.0,-1.0,3.0,16.0,9140.0,11662.0,4954.0,4933.0,-33.0,-1.0,-5.0,1.0
2022-05-06 12:46:07.814620-07:00,1875.2,637.6,1214.2,1508.8,957.7,1200.0,1596.4,1839.1,3443.1,3440.7,1500.4,1395.7,1462.6,3435.8,968.8,1441.5,3438.2,3437.0,686.4,1325.0,946.6,565.8,1395.7,1727.2,3441.9,3434.6,684.8,1046.1,1283.7,1525.5,1206.2,948.3,3.0,10.0,8.0,7659.0,12317.0,-6275.0,-4323.0,5.0,-12.0,5.0,-3.0,13.0,8.0,9140.0,11662.0,4954.0,4933.0,5.0,-3.0,3.0,1.0
2022-05-06 12:46:07.874454-07:00,1875.2,637.6,1214.2,1516.2,957.7,1200.0,1605.8,1828.4,3443.1,3440.7,1500.4,1393.9,1462.6,3444.3,972.2,1440.5,3437.0,3429.8,692.9,1325.0,942.4,565.8,1395.7,1727.2,3441.9,3438.2,693.8,1046.1,1281.9,1525.5,1206.2,948.3,0.0,5.0,15.0,7669.0,12311.0,-6272.0,-4328.0,-49.0,-4.0,-1.0,-2.0,7.0,27.0,9148.0,11656.0,4951.0,4937.0,-40.0,-6.0,-4.0,1.0
2022-05-06 12:46:07.994508-07:00,1885.0,647.3,1217.7,1516.2,958.5,1200.0,1605.8,1828.4,3433.4,3437.0,1485.6,1393.9,1459.8,3444.3,972.2,1440.5,3437.0,3429.8,692.9,1323.2,942.4,565.0,1395.7,1728.2,3441.9,3438.2,693.8,1040.1,1281.9,1525.5,1204.4,949.2,2.0,8.0,7.0,7676.0,12303.0,-6273.0,-4336.0,11.0,-18.0,5.0,-4.0,11.0,11.0,9151.0,11654.0,4949.0,4938.0,14.0,-8.0,-1.0,1.0
2022-05-06 12:46:07.996118-07:00,1885.0,647.3,1217.7,1513.4,958.5,1202.7,1597.4,1843.0,3433.4,3437.0,1485.6,1395.7,1459.8,3454.0,966.2,1441.5,3433.4,3440.7,688.0,1323.2,947.5,565.0,1395.7,1728.2,3438.2,3431.0,692.9,1040.1,1276.5,1525.5,1204.4,949.2,2.0,-3.0,15.0,7685.0,12297.0,-6271.0,-4341.0,-36.0,12.0,3.0,0.0,2.0,18.0,9158.0,11649.0,4947.0,4941.0,-26.0,-3.0,0.0,1.0
2022-05-06 12:46:08.024610-07:00,1877.2,641.6,1211.5,1513.4,956.0,1202.7,1597.4,1843.0,3439.5,3440.7,1481.9,1395.7,1461.7,3454.0,966.2,1441.5,3433.4,3440.7,688.0,1325.0,947.5,562.6,1393.9,1728.2,3438.2,3431.0,692.9,1039.2,1276.5,1530.1,1213.3,951.7,6.0,0.0,13.0,7691.0,12295.0,-6267.0,-4340.0,21.0,4.0,-4.0,0.0,4.0,15.0,9158.0,11648.0,4946.0,4941.0,17.0,4.0,-2.0,1.0
2022-05-06 12:46:08.114372-07:00,1877.2,641.6,1211.5,1506.9,957.7,1203.5,1597.4,1832.3,3439.5,3440.7,1481.9,1403.0,1458.9,3435.8,966.2,1436.9,3435.8,3435.8,692.9,1316.9,939.8,562.6,1393.9,1728.2,3444.3,3441.9,692.1,1035.7,1282.8,1530.1,1213.3,951.7,4.0,9.0,10.0,7689.0,12296.0,-6269.0,-4339.0,-24.0,1.0,7.0,-3.0,13.0,7.0,9157.0,11649.0,4947.0,4941.0,-14.0,-1.0,0.0,1.0
2022-05-06 12:46:08.115340-07:00,1869.3,633.5,1226.6,1514.3,957.7,1203.5,1597.4,1832.3,3439.5,3445.5,1477.3,1390.3,1458.9,3435.8,966.2,1436.9,3435.8,3435.8,692.9,1316.9,939.8,563.4,1396.7,1731.1,3444.3,3441.9,692.1,1035.7,1282.8,1522.7,1203.5,945.8,4.0,-6.0,14.0,7701.0,12289.0,-6265.0,-4343.0,-4.0,-6.0,-1.0,-4.0,3.0,14.0,9162.0,11645.0,4945.0,4943.0,-3.0,-5.0,-3.0,1.0
2022-05-06 12:46:08.174702-07:00,1869.3,633.5,1226.6,1514.3,969.6,1217.7,1596.4,1835.2,3439.5,3445.5,1477.3,1390.3,1458.9,3440.7,971.3,1435.0,3440.7,3440.7,686.4,1315.1,939.8,563.4,1396.7,1731.1,3445.5,3443.1,693.8,1034.9,1282.8,1522.7,1203.5,945.8,2.0,16.0,13.0,7698.0,12290.0,-6267.0,-4341.0,-22.0,1.0,5.0,-5.0,13.0,18.0,9160.0,11647.0,4945.0,4942.0,-17.0,1.0,0.0,1.0
2022-05-06 12:46:08.235251-07:00,1867.4,628.6,1220.4,1515.3,969.6,1217.7,1596.4,1835.2,3449.1,3437.0,1484.7,1389.4,1458.9,3440.7,971.3,1435.0,3440.7,3440.7,686.4,1315.1,940.7,561.8,1392.1,1722.4,3445.5,3443.1,693.8,1034.9,1274.7,1522.7,1202.7,949.2,1.0,3.0,8.0,7712.0,12282.0,-6262.0,-4347.0,-16.0,6.0,-1.0,-3.0,10.0,11.0,9171.0,11638.0,4941.0,4947.0,-30.0,-2.0,3.0,1.0
2022-05-06 12:46:08.264374-07:00,1867.4,628.6,1220.4,1515.3,966.2,1195.6,1592.7,1829.4,3449.1,3437.0,1484.7,1389.4,1458.0,3439.5,968.8,1445.1,3434.6,3435.8,692.9,1319.6,940.7,561.8,1392.1,1722.4,3449.1,3438.2,690.5,1040.9,1274.7,1522.7,1202.7,949.2,4.0,-4.0,5.0,7725.0,12274.0,-6254.0,-4358.0,-72.0,-14.0,-18.0,-3.0,10.0,9.0,9195.0,11621.0,4932.0,4953.0,-71.0,-14.0,-13.0,1.0
2022-05-06 12:46:08.385143-07:00,1873.2,635.1,1205.3,1515.3,966.2,1195.6,1592.7,1830.4,3437.0,3441.9,1481.0,1388.5,1458.0,3439.5,968.8,1437.8,3429.8,3435.8,692.9,1319.6,940.7,569.8,1393.0,1721.5,3428.6,3438.2,690.5,1040.9,1278.3,1525.5,1216.0,951.7,3.0,8.0,21.0,7725.0,12270.0,-6257.0,-4366.0,14.0,-13.0,-3.0,-1.0,6.0,10.0,9198.0,11621.0,4928.0,4950.0,-4.0,-6.0,0.0,1.0
2022-05-06 12:46:08.385895-07:00,1869.3,635.1,1205.3,1515.3,959.4,1188.5,1588.9,1830.4,3435.8,3441.9,1481.0,1388.5,1464.4,3433.4,957.7,1437.8,3429.8,3434.6,692.9,1321.4,940.7,569.8,1393.0,1722.4,3428.6,3444.3,692.9,1036.6,1278.3,1525.5,1216.0,948.3,0.0,4.0,11.0,7732.0,12268.0,-6253.0,-4365.0,7.0,13.0,5.0,-4.0,8.0,18.0,9198.0,11621.0,4928.0,4950.0,12.0,8.0,5.0,1.0
2022-05-06 12:46:08.414647-07:00,1869.3,633.5,1215.1,1512.5,959.4,1188.5,1588.9,1839.1,3435.8,3440.7,1481.9,1385.7,1464.4,3433.4,957.7,1436.9,3440.7,3434.6,692.9,1321.4,945.8,558.6,1391.2,1722.4,3438.2,3444.3,692.9,1036.6,1276.5,1516.2,1210.6,948.3,2.0,0.0,10.0,7727.0,12274.0,-6253.0,-4356.0,18.0,12.0,-2.0,-4.0,15.0,18.0,9188.0,11629.0,4932.0,4947.0,33.0,1.0,1.0,1.0
2022-05-06 12:46:08.475077-07:00,1868.4,633.5,1215.1,1512.5,965.4,1197.4,1593.6,1839.1,3441.9,3440.7,1481.9,1385.7,1463.5,3444.3,967.9,1436.9,3440.7,3433.4,686.4,1321.4,945.8,558.6,1391.2,1726.3,3438.2,3443.1,688.0,1014.2,1276.5,1516.2,1210.6,945.8,3.0,16.0,19.0,7718.0,12284.0,-6254.0,-4343.0,59.0,39.0,0.0,-5.0,10.0,21.0,9172.0,11640.0,4940.0,4942.0,43.0,13.0,7.0,1.0
2022-05-06 12:46:08.594496-07:00,1868.4,635.9,1211.5,1516.2,965.4,1197.4,1593.6,1825.5,3441.9,3447.9,1486.6,1383.9,1463.5,3444.3,967.9,1436.9,3439.5,3433.4,686.4,1321.4,942.4,561.0,1396.7,1726.3,3440.7,3443.1,688.0,1014.2,1281.9,1520.8,1207.1,945.8,0.0,-5.0,-2.0,7728.0,12290.0,-6240.0,-4328.0,2.0,53.0,-8.0,0.0,0.0,15.0,9168.0,11640.0,4944.0,4945.0,32.0,8.0,6.0,1.0
2022-05-06 12:46:08.654873-07:00,1864.5,635.9,1211.5,1516.2,971.3,1199.1,1596.4,1825.5,3437.0,3447.9,1486.6,1383.9,1457.1,3439.5,959.4,1436.9,3439.5,3428.6,688.9,1320.5,942.4,561.0,1396.7,1724.4,3440.7,3441.9,689.7,1037.5,1281.9,1520.8,1207.1,950.9,2.0,11.0,6.0,7721.0,12298.0,-6240.0,-4318.0,-9.0,6.0,-3.0,-1.0,10.0,8.0,9158.0,11647.0,4949.0,4942.0,-2.0,3.0,0.0,1.0
2022-05-06 12:46:08.656615-07:00,1864.5,642.4,1212.4,1506.9,971.3,1199.1,1588.9,1825.5,3437.0,3434.6,1485.6,1392.1,1457.1,3439.5,969.6,1439.6,3444.3,3433.4,688.9,1320.5,939.0,561.8,1392.1,1724.4,3441.9,3438.2,689.7,1037.5,1279.2,1521.8,1205.3,950.9,-2.0,7.0,12.0,7726.0,12295.0,-6238.0,-4321.0,3.0,1.0,-5.0,-5.0,11.0,20.0,9162.0,11644.0,4947.0,4944.0,-1.0,-9.0,-2.0,1.0
2022-05-06 12:46:08.657518-07:00,1872.3,628.6,1212.4,1506.9,960.2,1201.8,1588.9,1825.5,3434.6,3444.3,1485.6,1392.1,1461.7,3439.5,969.6,1439.6,3444.3,3433.4,689.7,1324.1,939.0,561.8,1393.0,1723.4,3441.9,3438.2,693.8,1039.2,1279.2,1521.8,1208.9,953.4,4.0,15.0,13.0,7725.0,12294.0,-6239.0,-4322.0,-2.0,-5.0,9.0,-2.0,7.0,15.0,9162.0,11644.0,4947.0,4944.0,-1.0,5.0,5.0,1.0
2022-05-06 12:46:08.714621-07:00,1872.3,628.6,1209.7,1502.3,960.2,1201.8,1597.4,1825.5,3434.6,3444.3,1480.1,1392.1,1461.7,3439.5,961.1,1439.6,3439.5,3428.6,689.7,1324.1,939.0,558.6,1393.0,1723.4,3444.3,3443.1,693.8,1039.2,1273.0,1521.8,1208.9,953.4,2.0,8.0,13.0,7722.0,12297.0,-6237.0,-4322.0,22.0,1.0,-10.0,-4.0,7.0,22.0,9161.0,11645.0,4948.0,4943.0,14.0,-4.0,-1.0,1.0
2022-05-06 12:46:08.774622-07:00,1866.4,630.3,1209.7,1502.3,964.5,1202.7,1597.4,1825.5,3438.2,3438.2,1480.1,1392.1,1454.3,3444.3,961.1,1439.6,3439.5,3428.6,687.2,1321.4,939.0,558.6,1397.6,1723.4,3444.3,3443.1,689.7,1039.2,1273.0,1521.8,1208.0,942.4,1.0,9.0,5.0,7721.0,12298.0,-6238.0,-4321.0,-7.0,-3.0,11.0,-4.0,5.0,12.0,9160.0,11646.0,4948.0,4943.0,-4.0,0.0,0.0,1.0
2022-05-06 12:46:08.865195-07:00,1866.4,630.3,1208.0,1506.9,964.5,1202.7,1588.0,1820.7,3438.2,3438.2,1481.0,1393.9,1454.3,3444.3,964.5,1433.2,3434.6,3441.9,687.2,1321.4,946.6,555.4,1397.6,1723.4,3441.9,3444.3,689.7,1039.2,1277.4,1524.5,1208.0,942.4,5.0,6.0,14.0,7728.0,12294.0,-6237.0,-4323.0,-20.0,-6.0,11.0,0.0,11.0,19.0,9165.0,11642.0,4946.0,4945.0,-15.0,-1.0,1.0,1.0
2022-05-06 12:46:08.894559-07:00,1854.7,635.9,1210.6,1506.9,959.4,1206.2,1588.0,1820.7,3435.8,3441.9,1471.8,1393.9,1460.8,3439.5,964.5,1433.2,3434.6,3441.9,691.3,1317.8,946.6,565.0,1391.2,1725.3,3441.9,3444.3,693.8,1042.6,1277.4,1523.6,1210.6,960.2,4.0,0.0,14.0,7730.0,12292.0,-6237.0,-4324.0,-15.0,-9.0,0.0,-3.0,3.0,16.0,9167.0,11640.0,4945.0,4946.0,-12.0,4.0,-3.0,1.0
2022-05-06 12:46:08.924865-07:00,1854.7,635.9,1210.6,1510.6,959.4,1192.0,1593.6,1822.6,3435.8,3441.9,1471.8,1387.5,1460.8,3446.7,971.3,1437.8,3437.0,3434.6,686.4,1317.8,944.1,565.0,1391.2,1725.3,3441.9,3437.0,686.4,1042.6,1277.4,1523.6,1210.6,960.2,5.0,7.0,11.0,7731.0,12292.0,-6236.0,-4323.0,4.0,9.0,0.0,-3.0,11.0,19.0,9167.0,11640.0,4945.0,4946.0,1.0,2.0,-1.0,1.0
2022-05-06 12:46:08.954682-07:00,1866.4,640.0,1214.2,1510.6,956.8,1192.0,1593.6,1822.6,3444.3,3446.7,1475.5,1387.5,1464.4,3446.7,971.3,1437.8,3437.0,3434.6,686.4,1321.4,944.1,564.2,1389.4,1716.7,3441.9,3437.0,686.4,1040.1,1277.4,1516.2,1207.1,952.6,2.0,2.0,12.0,7728.0,12294.0,-6237.0,-4322.0,15.0,-12.0,-3.0,-5.0,9.0,16.0,9164.0,11642.0,4946.0,4945.0,14.0,3.0,-4.0,1.0
2022-05-06 12:46:09.015120-07:00,1866.4,640.0,1214.2,1513.4,956.8,1197.4,1585.2,1830.4,3444.3,3446.7,1475.5,1389.4,1464.4,3445.5,967.1,1441.5,3439.5,3432.2,691.3,1321.4,944.1,564.2,1389.4,1716.7,3437.0,3440.7,692.9,1040.1,1281.9,1516.2,1207.1,952.6,-1.0,10.0,7.0,7726.0,12294.0,-6238.0,-4322.0,-8.0,7.0,8.0,-6.0,10.0,17.0,9164.0,11642.0,4946.0,4945.0,-11.0,1.0,7.0,1.0
2022-05-06 12:46:09.134659-07:00,1866.4,628.6,1208.0,1513.4,962.8,1197.4,1585.2,1830.4,3446.7,3437.0,1480.1,1389.4,1463.5,3445.5,967.1,1441.5,3439.5,3432.2,691.3,1322.3,944.1,562.6,1391.2,1723.4,3437.0,3440.7,692.9,1041.8,1281.9,1525.5,1206.2,952.6,4.0,7.0,12.0,7726.0,12295.0,-6238.0,-4322.0,22.0,-8.0,2.0,-2.0,9.0,22.0,9163.0,11643.0,4947.0,4944.0,21.0,-5.0,0.0,1.0
2022-05-06 12:46:09.135796-07:00,1866.4,628.6,1208.0,1521.8,967.1,1197.4,1575.8,1825.5,3446.7,3437.0,1480.1,1390.3,1457.1,3438.2,959.4,1440.5,3435.8,3435.8,688.9,1325.0,940.7,562.6,1391.2,1723.4,3440.7,3444.3,689.7,1037.5,1279.2,1525.5,1206.2,952.6,3.0,6.0,16.0,7722.0,12293.0,-6242.0,-4327.0,4.0,-15.0,-6.0,-1.0,14.0,13.0,9162.0,11644.0,4947.0,4944.0,-3.0,-5.0,-5.0,1.0
2022-05-06 12:46:09.164602-07:00,1865.4,636.7,1210.6,1505.1,967.1,1197.4,1575.8,1825.5,3445.5,3443.1,1473.6,1389.4,1457.1,3438.2,959.4,1440.5,3435.8,3435.8,688.9,1325.0,942.4,560.2,1392.1,1726.3,3440.7,3444.3,689.7,1037.5,1285.5,1528.3,1210.6,948.3,3.0,-4.0,14.0,7730.0,12289.0,-6239.0,-4329.0,-17.0,15.0,5.0,-3.0,1.0,19.0,9168.0,11639.0,4944.0,4946.0,-12.0,0.0,2.0,1.0
2022-05-06 12:46:09.225021-07:00,1865.4,636.7,1210.6,1505.1,959.4,1207.1,1573.9,1819.7,3445.5,3443.1,1473.6,1389.4,1465.4,3439.5,961.1,1437.8,3439.5,3435.8,687.2,1314.2,942.4,560.2,1392.1,1726.3,3449.1,3438.2,696.2,1032.3,1285.5,1528.3,1210.6,948.3,-2.0,11.0,10.0,7730.0,12288.0,-6242.0,-4328.0,-3.0,-15.0,5.0,-5.0,11.0,20.0,9168.0,11639.0,4944.0,4946.0,-7.0,-4.0,1.0,1.0
2022-05-06 12:46:09.254611-07:00,1867.4,637.6,1200.9,1510.6,959.4,1207.1,1573.9,1819.7,3449.1,3435.8,1483.8,1392.1,1465.4,3439.5,961.1,1437.8,3439.5,3435.8,687.2,1314.2,934.7,565.0,1391.2,1726.3,3449.1,3438.2,696.2,1032.3,1277.4,1522.7,1209.7,950.9,1.0,6.0,18.0,7730.0,12286.0,-6243.0,-4331.0,-13.0,5.0,-1.0,-4.0,14.0,19.0,9168.0,11639.0,4944.0,4946.0,-9.0,2.0,1.0,1.0
2022-05-06 12:46:09.344537-07:00,1867.4,637.6,1200.9,1510.6,958.5,1192.0,1589.9,1809.0,3449.1,3435.8,1483.8,1392.1,1460.8,3434.6,970.5,1440.5,3438.2,3439.5,688.0,1316.0,934.7,565.0,1391.2,1726.3,3447.9,3451.6,690.5,1033.2,1277.4,1522.7,1209.7,950.9,2.0,10.0,7.0,7733.0,12285.0,-6242.0,-4332.0,4.0,-3.0,6.0,-3.0,10.0,20.0,9170.0,11638.0,4944.0,4947.0,-5.0,0.0,-2.0,1.0
2022-05-06 12:46:09.374560-07:00,1870.3,631.9,1216.8,1514.3,958.5,1192.0,1589.9,1809.0,3441.9,3449.1,1470.9,1389.4,1460.8,3434.6,970.5,1440.5,3438.2,3439.5,688.0,1316.0,940.7,559.4,1390.3,1743.5,3447.9,3451.6,690.5,1033.2,1284.6,1523.6,1207.1,950.0,3.0,-4.0,8.0,7743.0,12275.0,-6245.0,-4335.0,-21.0,-10.0,28.0,-5.0,4.0,12.0,9178.0,11632.0,4939.0,4949.0,-12.0,-10.0,6.0,1.0
2022-05-06 12:46:09.405838-07:00,1863.5,631.9,1216.8,1514.3,961.1,1195.6,1587.1,1826.5,3437.0,3449.1,1470.9,1389.4,1469.0,3431.0,961.1,1436.0,3437.0,3428.6,687.2,1321.4,940.7,559.4,1390.3,1725.3,3441.9,3444.3,688.9,1040.1,1284.6,1523.6,1207.1,947.5,6.0,4.0,15.0,7753.0,12269.0,-6244.0,-4336.0,-22.0,-5.0,2.0,-2.0,6.0,18.0,9184.0,11628.0,4937.0,4951.0,-11.0,2.0,2.0,1.0
2022-05-06 12:46:09.465186-07:00,1863.5,628.6,1218.6,1514.3,961.1,1195.6,1587.1,1822.6,3437.0,3444.3,1489.3,1391.2,1469.0,3431.0,961.1,1437.8,3432.2,3428.6,687.2,1321.4,944.1,555.4,1390.3,1725.3,3449.1,3444.3,688.9,1040.1,1281.9,1522.7,1200.9,947.5,3.0,17.0,15.0,7749.0,12272.0,-6246.0,-4334.0,1.0,-2.0,1.0,-3.0,13.0,21.0,9181.0,11630.0,4938.0,4950.0,0.0,-1.0,-2.0,1.0
2022-05-06 12:46:09.524638-07:00,1859.6,628.6,1218.6,1514.3,957.7,1198.2,1585.2,1822.6,3447.9,3444.3,1489.3,1391.2,1455.2,3433.4,967.1,1437.8,3432.2,3438.2,695.4,1320.5,944.1,555.4,1390.3,1725.3,3449.1,3438.2,684.8,1047.8,1281.9,1522.7,1200.9,948.3,3.0,4.0,9.0,7757.0,12267.0,-6243.0,-4338.0,-21.0,3.0,-7.0,-7.0,3.0,15.0,9187.0,11625.0,4935.0,4953.0,-21.0,-1.0,-3.0,1.0
2022-05-06 12:46:09.614619-07:00,1859.6,631.1,1211.5,1511.5,957.7,1198.2,1585.2,1822.6,3447.9,3444.3,1482.9,1393.0,1455.2,3433.4,967.1,1441.5,3443.1,3438.2,695.4,1320.5,939.0,565.0,1390.3,1725.3,3447.9,3438.2,684.8,1047.8,1280.1,1524.5,1202.7,948.3,2.0,9.0,13.0,7751.0,12270.0,-6245.0,-4336.0,15.0,-8.0,-6.0,-4.0,13.0,19.0,9184.0,11628.0,4937.0,4951.0,9.0,-6.0,-2.0,1.0
2022-05-06 12:46:09.616167-07:00,1863.5,631.1,1211.5,1511.5,956.8,1199.1,1588.0,1822.6,3447.9,3444.3,1482.9,1393.0,1461.7,3444.3,967.9,1441.5,3443.1,3433.4,688.0,1320.5,939.0,565.0,1390.3,1717.7,3447.9,3444.3,687.2,1038.3,1280.1,1524.5,1202.7,953.4,5.0,12.0,15.0,7751.0,12270.0,-6245.0,-4336.0,-11.0,7.0,1.0,-5.0,10.0,16.0,9184.0,11627.0,4937.0,4952.0,-11.0,4.0,1.0,1.0
2022-05-06 12:46:09.674582-07:00,1863.5,630.3,1208.0,1509.7,956.8,1199.1,1582.4,1824.6,3447.9,3433.4,1477.3,1389.4,1461.7,3444.3,960.2,1446.0,3444.3,3437.0,688.0,1320.5,939.0,563.4,1390.3,1717.7,3446.7,3443.1,687.2,1038.3,1276.5,1525.5,1202.7,953.4,5.0,8.0,14.0,7748.0,12273.0,-6246.0,-4332.0,24.0,-5.0,-3.0,-1.0,12.0,21.0,9181.0,11630.0,4938.0,4950.0,15.0,2.0,1.0,1.0
2022-05-06 12:46:09.735131-07:00,1856.7,629.5,1208.0,1509.7,958.5,1195.6,1582.4,1824.6,3435.8,3434.6,1477.3,1389.4,1452.5,3440.7,960.2,1446.0,3444.3,3437.0,685.6,1324.1,939.0,563.4,1389.4,1723.4,3446.7,3443.1,688.0,1045.2,1276.5,1525.5,1207.1,945.8,1.0,3.0,12.0,7749.0,12272.0,-6245.0,-4334.0,0.0,11.0,-10.0,-4.0,5.0,21.0,9184.0,11628.0,4937.0,4952.0,-5.0,1.0,0.0,1.0
2022-05-06 12:46:09.764607-07:00,1856.7,629.5,1213.3,1514.3,958.5,1195.6,1572.1,1825.5,3435.8,3434.6,1476.4,1392.1,1452.5,3440.7,959.4,1428.6,3439.5,3438.2,685.6,1324.1,942.4,557.0,1389.4,1723.4,3444.3,3438.2,688.0,1045.2,1287.3,1530.1,1207.1,945.8,7.0,8.0,21.0,7751.0,12271.0,-6244.0,-4335.0,-38.0,5.0,2.0,0.0,3.0,19.0,9189.0,11624.0,4936.0,4953.0,-39.0,9.0,-11.0,1.0
2022-05-06 12:46:09.824050-07:00,1850.8,631.9,1213.3,1514.3,964.5,1203.5,1572.1,1825.5,3433.4,3443.1,1476.4,1392.1,1461.7,3446.7,959.4,1428.6,3439.5,3438.2,688.9,1321.4,942.4,557.0,1412.2,1726.3,3444.3,3438.2,682.3,1033.2,1287.3,1530.1,1202.7,941.5,-7.0,-60.0,-34.0,7695.0,12276.0,-6306.0,-4331.0,409.0,-276.0,182.0,14.0,-12.0,23.0,9167.0,11636.0,4949.0,4950.0,198.0,22.0,7.0,1.0
2022-05-06 12:46:09.853832-07:00,1850.8,631.9,1209.7,1512.5,964.5,1203.5,1629.4,1866.4,3433.4,3443.1,1481.0,1387.5,1461.7,3446.7,964.5,1440.5,3432.2,3435.8,688.9,1321.4,943.2,565.0,1412.2,1726.3,3451.6,3449.1,682.3,1033.2,1277.4,1526.4,1202.7,941.5,61.0,18.0,94.0,7622.0,12156.0,-6540.0,-4448.0,-620.0,-446.0,451.0,-9.0,41.0,1.0,9159.0,11631.0,4969.0,4958.0,-251.0,21.0,-34.0,1.0
2022-05-06 12:46:09.974244-07:00,2143.3,681.5,1209.7,1512.5,957.7,1369.4,1629.4,1866.4,3444.3,3447.9,1481.0,1387.5,1455.2,3435.8,964.5,1440.5,3432.2,3435.8,685.6,1316.9,943.2,565.0,2272.4,1726.3,3451.6,3449.1,688.9,1412.2,1277.4,1526.4,1208.9,956.8,-35.0,-178.0,-4.0,7790.0,11932.0,-6735.0,-4473.0,130.0,-502.0,842.0,-17.0,-75.0,67.0,9197.0,11594.0,4950.0,4993.0,245.0,70.0,77.0,1.0
2022-05-06 12:46:10.094213-07:00,2143.3,681.5,1206.2,1509.7,957.7,1834.3,1584.2,1760.8,3444.3,3447.9,1500.4,1396.7,1455.2,3437.0,963.7,1438.7,3439.5,3440.7,684.8,1316.9,946.6,569.8,2272.4,1726.3,3437.0,3434.6,729.9,1412.2,1277.4,1517.1,1208.9,956.8,-19.0,115.0,-7.0,7727.0,11734.0,-7178.0,-4416.0,-24.0,-450.0,769.0,-12.0,32.0,-4.0,9085.0,11669.0,4972.0,5002.0,34.0,44.0,106.0,1.0
2022-05-06 12:46:10.096591-07:00,2388.1,757.9,1212.4,1509.7,959.4,1834.3,1584.2,1760.8,3441.9,3428.6,1480.1,1396.7,1457.1,3437.0,963.7,1438.7,3439.5,3440.7,684.8,1321.4,946.6,569.8,2135.1,1735.8,3437.0,3434.6,729.9,1539.4,1277.4,1514.3,1210.6,985.0,-7.0,-3.0,23.0,7762.0,11559.0,-7388.0,-4471.0,-102.0,-327.0,391.0,-4.0,-6.0,18.0,9086.0,11667.0,4956.0,5020.0,45.0,11.0,28.0,1.0
2022-05-06 12:46:10.096966-07:00,2388.1,757.9,1212.4,1515.3,959.4,1834.3,1458.0,1579.6,3441.9,3428.6,1480.1,1387.5,1457.1,3435.8,961.1,1441.5,3433.4,3433.4,685.6,1321.4,948.3,569.8,2135.1,1735.8,3443.1,3433.4,720.8,1539.4,1277.4,1514.3,1210.6,985.0,4.0,59.0,29.0,7742.0,11446.0,-7567.0,-4498.0,-53.0,-257.0,286.0,-6.0,7.0,15.0,9055.0,11687.0,4967.0,5019.0,45.0,11.0,7.0,1.0
2022-05-06 12:46:10.098760-07:00,2357.7,759.6,1215.1,1515.3,960.2,1834.3,1458.0,1579.6,3449.1,3428.6,1460.8,1387.5,1469.0,3435.8,961.1,1441.5,3433.4,3433.4,685.6,1330.5,948.3,567.4,2087.6,1727.2,3443.1,3433.4,720.8,1494.9,1277.4,1521.8,1208.9,967.9,25.0,-2.0,77.0,7760.0,11403.0,-7594.0,-4531.0,-64.0,26.0,-9.0,-11.0,6.0,15.0,9059.0,11682.0,4971.0,5018.0,24.0,12.0,-14.0,1.0
2022-05-06 12:46:10.213798-07:00,2357.7,759.6,1215.1,1510.6,960.2,1795.5,1435.0,1546.9,3449.1,3428.6,1460.8,1393.9,1469.0,3449.1,966.2,1437.8,3439.5,3439.5,689.7,1330.5,945.8,567.4,2087.6,1727.2,3449.1,3438.2,723.3,1494.9,1277.4,1521.8,1208.9,967.9,-2.0,27.0,5.0,7771.0,11432.0,-7564.0,-4489.0,131.0,98.0,-87.0,-11.0,20.0,21.0,9043.0,11684.0,4991.0,5024.0,118.0,50.0,-15.0,1.0
2022-05-06 12:46:10.215694-07:00,2325.4,749.6,1211.5,1509.7,958.5,1795.5,1435.0,1546.9,3435.8,3435.8,1458.0,1397.6,1467.2,3449.1,966.2,1437.8,3439.5,3439.5,689.7,1323.2,946.6,566.6,2055.4,1726.3,3449.1,3438.2,723.3,1460.8,1275.6,1520.8,1210.6,965.4,6.0,-20.0,8.0,7753.0,11489.0,-7525.0,-4439.0,95.0,172.0,-7.0,5.0,3.0,16.0,9016.0,11698.0,5013.0,5019.0,68.0,26.0,-2.0,1.0
2022-05-06 12:46:10.304091-07:00,2325.4,749.6,1211.5,1509.7,963.7,1768.5,1411.3,1536.6,3435.8,3435.8,1458.0,1397.6,1458.9,3444.3,967.9,1440.5,3439.5,3439.5,688.0,1332.3,946.6,566.6,2055.4,1726.3,3440.7,3438.2,729.0,1444.2,1275.6,1520.8,1210.6,965.4,-12.0,-3.0,-17.0,7750.0,11524.0,-7503.0,-4390.0,76.0,25.0,-81.0,-3.0,7.0,11.0,9002.0,11704.0,5024.0,5018.0,47.0,13.0,-5.0,1.0
2022-05-06 12:46:10.305824-07:00,2304.5,746.3,1217.7,1516.2,963.7,1768.5,1411.3,1536.6,3441.9,3449.1,1440.5,1387.5,1458.9,3444.3,967.9,1440.5,3439.5,3439.5,688.0,1332.3,945.8,564.2,2039.4,1717.7,3440.7,3438.2,729.0,1444.2,1282.8,1519.9,1207.1,967.1,7.0,5.0,16.0,7702.0,11553.0,-7513.0,-4380.0,47.0,-60.0,64.0,-3.0,26.0,5.0,8980.0,11720.0,5034.0,5009.0,4.0,-7.0,6.0,1.0
2022-05-06 12:46:10.364276-07:00,2304.5,746.3,1217.7,1516.2,955.1,1739.7,1400.3,1521.8,3441.9,3449.1,1440.5,1387.5,1460.8,3439.5,967.1,1440.5,3435.8,3437.0,685.6,1322.3,945.8,564.2,2039.4,1717.7,3438.2,3444.3,739.7,1433.2,1282.8,1519.9,1207.1,967.1,-8.0,22.0,13.0,7726.0,11513.0,-7541.0,-4395.0,-116.0,-52.0,40.0,-10.0,4.0,9.0,9020.0,11694.0,5010.0,5022.0,-91.0,-19.0,18.0,1.0
2022-05-06 12:46:10.424237-07:00,2303.5,746.3,1218.6,1512.5,955.1,1739.7,1400.3,1521.8,3435.8,3449.1,1447.9,1393.0,1460.8,3439.5,967.1,1440.5,3435.8,3437.0,685.6,1322.3,947.5,567.4,2021.4,1725.3,3438.2,3444.3,739.7,1433.2,1281.9,1522.7,1208.0,965.4,19.0,13.0,42.0,7727.0,11503.0,-7541.0,-4420.0,39.0,30.0,-54.0,1.0,18.0,18.0,9022.0,11696.0,5006.0,5019.0,11.0,-6.0,-9.0,1.0
2022-05-06 12:46:10.454453-07:00,2285.9,746.3,1218.6,1512.5,958.5,1723.4,1396.7,1510.6,3438.2,3449.1,1447.9,1393.0,1460.8,3444.3,962.8,1443.3,3429.8,3428.6,688.9,1325.0,947.5,567.4,2021.4,1726.3,3438.2,3445.5,725.8,1437.8,1281.9,1522.7,1208.0,969.6,6.0,17.0,24.0,7753.0,11515.0,-7502.0,-4409.0,-20.0,125.0,-76.0,2.0,-1.0,19.0,9039.0,11679.0,5003.0,5030.0,8.0,27.0,-11.0,1.0
2022-05-06 12:46:10.543903-07:00,2285.9,737.3,1207.1,1516.2,958.5,1723.4,1396.7,1507.8,3438.2,3440.7,1470.0,1393.9,1460.8,3444.3,962.8,1436.0,3441.9,3428.6,688.9,1325.0,949.2,561.0,2009.4,1726.3,3449.1,3445.5,725.8,1437.8,1276.5,1531.0,1206.2,969.6,3.0,-2.0,1.0,7752.0,11557.0,-7451.0,-4389.0,97.0,71.0,-96.0,-1.0,9.0,18.0,9024.0,11685.0,5022.0,5026.0,68.0,22.0,-22.0,1.0
2022-05-06 12:46:10.573728-07:00,2282.8,737.3,1207.1,1516.2,962.0,1708.1,1389.4,1507.8,3438.2,3440.7,1470.0,1393.9,1455.2,3451.6,962.0,1436.0,3441.9,3444.3,685.6,1311.5,949.2,561.0,2009.4,1730.1,3449.1,3444.3,728.2,1414.9,1276.5,1531.0,1206.2,967.9,-5.0,-1.0,3.0,7740.0,11582.0,-7431.0,-4378.0,-49.0,30.0,-8.0,-9.0,6.0,6.0,9022.0,11685.0,5029.0,5022.0,-42.0,-10.0,-8.0,1.0
2022-05-06 12:46:10.604217-07:00,2282.8,734.8,1202.7,1511.5,962.0,1708.1,1389.4,1509.7,3438.2,3441.9,1438.7,1384.8,1455.2,3451.6,962.0,1440.5,3432.2,3444.3,685.6,1311.5,942.4,565.8,2003.5,1730.1,3439.5,3444.3,728.2,1414.9,1276.5,1530.1,1208.9,967.9,-1.0,-7.0,13.0,7745.0,11575.0,-7436.0,-4380.0,38.0,-48.0,25.0,-10.0,-1.0,15.0,9027.0,11682.0,5025.0,5024.0,6.0,-5.0,15.0,1.0
2022-05-06 12:46:10.694512-07:00,2283.8,734.8,1202.7,1511.5,959.4,1702.4,1390.3,1509.7,3439.5,3441.9,1438.7,1384.8,1453.4,3434.6,960.2,1440.5,3432.2,3439.5,689.7,1325.0,942.4,565.8,2003.5,1725.3,3439.5,3438.2,727.4,1418.6,1276.5,1530.1,1208.9,962.0,3.0,16.0,17.0,7719.0,11572.0,-7464.0,-4386.0,38.0,-50.0,20.0,-3.0,20.0,12.0,9028.0,11682.0,5022.0,5024.0,0.0,-15.0,2.0,1.0
2022-05-06 12:46:10.724681-07:00,2283.8,736.5,1201.8,1511.5,959.4,1702.4,1390.3,1497.7,3439.5,3435.8,1438.7,1393.0,1453.4,3434.6,960.2,1441.5,3440.7,3439.5,689.7,1325.0,944.1,571.4,1986.6,1725.3,3438.2,3438.2,727.4,1418.6,1270.3,1513.4,1203.5,962.0,0.0,0.0,26.0,7723.0,11561.0,-7473.0,-4392.0,20.0,-27.0,26.0,-9.0,2.0,18.0,9037.0,11676.0,5018.0,5026.0,14.0,-1.0,13.0,1.0
2022-05-06 12:46:10.814074-07:00,2280.7,735.6,1201.8,1511.5,959.4,1691.9,1391.2,1497.7,3435.8,3443.1,1438.7,1393.0,1457.1,3441.9,961.1,1441.5,3440.7,3434.6,686.4,1329.6,944.1,571.4,1982.6,1727.2,3438.2,3443.1,725.8,1416.7,1270.3,1513.4,1206.2,967.1,4.0,10.0,11.0,7704.0,11570.0,-7484.0,-4381.0,73.0,-6.0,-14.0,1.0,17.0,9.0,9028.0,11682.0,5021.0,5025.0,32.0,11.0,-3.0,1.0
2022-05-06 12:46:10.814775-07:00,2280.7,735.6,1203.5,1514.3,959.4,1691.9,1377.5,1500.4,3435.8,3443.1,1442.4,1393.0,1457.1,3441.9,959.4,1441.5,3440.7,3433.4,686.4,1329.6,940.7,566.6,1982.6,1727.2,3443.1,3439.5,725.8,1416.7,1282.8,1514.3,1206.2,967.1,-1.0,7.0,0.0,7687.0,11580.0,-7494.0,-4369.0,50.0,-11.0,33.0,-4.0,6.0,4.0,9021.0,11686.0,5026.0,5023.0,17.0,4.0,2.0,1.0
2022-05-06 12:46:10.874343-07:00,2279.6,738.1,1203.5,1514.3,956.0,1679.5,1377.5,1500.4,3441.9,3440.7,1442.4,1393.0,1463.5,3449.1,959.4,1441.5,3440.7,3433.4,691.3,1323.2,940.7,566.6,1982.6,1720.5,3443.1,3439.5,728.2,1415.8,1282.8,1514.3,1203.5,954.3,6.0,4.0,10.0,7673.0,11581.0,-7507.0,-4369.0,33.0,-39.0,-24.0,0.0,3.0,-1.0,9021.0,11687.0,5026.0,5021.0,4.0,-16.0,4.0,1.0
2022-05-06 12:46:10.933845-07:00,2279.6,738.1,1201.8,1515.3,956.0,1679.5,1375.7,1494.0,3441.9,3440.7,1436.0,1393.9,1463.5,3449.1,967.1,1440.5,3438.2,3438.2,691.3,1323.2,950.0,562.6,1982.6,1720.5,3441.9,3440.7,728.2,1415.8,1285.5,1517.1,1203.5,954.3,2.0,13.0,25.0,7672.0,11582.0,-7504.0,-4373.0,-18.0,25.0,14.0,-6.0,14.0,16.0,9026.0,11685.0,5023.0,5019.0,-22.0,6.0,2.0,1.0
2022-05-06 12:46:10.963964-07:00,2275.5,726.6,1201.8,1515.3,957.7,1674.8,1375.7,1494.0,3444.3,3438.2,1436.0,1393.9,1450.6,3439.5,967.1,1440.5,3438.2,3438.2,687.2,1318.7,950.0,562.6,1980.6,1727.2,3441.9,3440.7,728.2,1409.4,1285.5,1517.1,1204.4,967.1,5.0,-1.0,11.0,7700.0,11576.0,-7486.0,-4369.0,-38.0,51.0,-29.0,-5.0,9.0,14.0,9037.0,11676.0,5019.0,5023.0,9.0,-4.0,-5.0,1.0
2022-05-06 12:46:11.053905-07:00,2275.5,726.6,1204.4,1515.3,957.7,1669.1,1375.7,1500.4,3444.3,3438.2,1429.5,1391.2,1450.6,3444.3,954.3,1445.1,3438.2,3438.2,687.2,1318.7,946.6,565.0,1980.6,1727.2,3438.2,3433.4,722.5,1409.4,1275.6,1519.0,1204.4,967.1,-2.0,-3.0,5.0,7691.0,11586.0,-7485.0,-4363.0,40.0,7.0,7.0,-6.0,12.0,9.0,9032.0,11681.0,5023.0,5020.0,17.0,8.0,-3.0,1.0
2022-05-06 12:46:11.055691-07:00,2274.5,727.4,1200.0,1515.3,950.9,1669.1,1375.7,1500.4,3440.7,3437.0,1425.9,1391.2,1459.8,3444.3,954.3,1445.1,3438.2,3438.2,687.2,1318.7,946.6,565.0,1972.7,1727.2,3438.2,3433.4,722.5,1408.5,1275.6,1515.3,1201.8,967.1,-1.0,22.0,0.0,7690.0,11580.0,-7498.0,-4357.0,1.0,-8.0,19.0,-3.0,12.0,15.0,9033.0,11680.0,5020.0,5022.0,-33.0,-12.0,13.0,1.0
2022-05-06 12:46:11.144651-07:00,2274.5,727.4,1200.0,1515.3,950.9,1679.5,1374.8,1494.9,3440.7,3437.0,1425.9,1386.6,1459.8,3429.8,957.7,1441.5,3441.9,3428.6,683.1,1318.7,946.6,565.0,1972.7,1727.2,3438.2,3437.0,718.4,1408.5,1282.8,1515.3,1201.8,967.1,0.0,0.0,16.0,7678.0,11582.0,-7500.0,-4370.0,37.0,-47.0,-12.0,0.0,14.0,15.0,9040.0,11676.0,5016.0,5024.0,2.0,2.0,-5.0,1.0
2022-05-06 12:46:11.174448-07:00,2263.1,727.4,1205.3,1515.3,953.4,1679.5,1374.8,1494.9,3443.1,3435.8,1435.0,1386.6,1455.2,3429.8,957.7,1441.5,3441.9,3428.6,683.1,1316.0,946.6,569.0,1978.6,1725.3,3438.2,3437.0,718.4,1404.9,1282.8,1520.8,1200.9,961.1,-1.0,17.0,2.0,7684.0,11562.0,-7520.0,-4378.0,-43.0,-40.0,80.0,-4.0,9.0,-3.0,9052.0,11667.0,5009.0,5029.0,-57.0,-17.0,20.0,1.0
2022-05-06 12:46:11.204849-07:00,2263.1,727.4,1205.3,1511.5,953.4,1669.1,1371.2,1484.7,3443.1,3435.8,1435.0,1393.9,1455.2,3447.9,962.0,1441.5,3444.3,3449.1,684.0,1316.0,939.8,569.0,1978.6,1725.3,3447.9,3441.9,725.8,1404.9,1278.3,1520.8,1200.9,961.1,5.0,8.0,17.0,7681.0,11545.0,-7543.0,-4389.0,18.0,-68.0,32.0,-1.0,1.0,11.0,9065.0,11660.0,4994.0,5035.0,-7.0,0.0,11.0,1.0
2022-05-06 12:46:11.264377-07:00,2267.2,736.5,1200.0,1510.6,959.4,1669.1,1371.2,1484.7,3431.0,3433.4,1424.1,1393.0,1456.2,3447.9,962.0,1441.5,3444.3,3449.1,684.0,1316.9,947.5,569.8,1958.8,1730.1,3447.9,3441.9,725.8,1399.4,1281.0,1520.8,1207.1,963.7,-1.0,-7.0,16.0,7690.0,11534.0,-7550.0,-4389.0,-43.0,20.0,18.0,-5.0,3.0,20.0,9069.0,11656.0,4993.0,5038.0,-16.0,16.0,-1.0,1.0
2022-05-06 12:46:11.323872-07:00,2267.2,736.5,1200.0,1510.6,956.0,1670.1,1366.6,1493.0,3431.0,3433.4,1424.1,1393.0,1457.1,3444.3,961.1,1436.0,3439.5,3441.9,688.9,1322.3,947.5,569.8,1958.8,1730.1,3438.2,3445.5,723.3,1402.1,1281.0,1520.8,1207.1,963.7,-2.0,19.0,15.0,7683.0,11521.0,-7585.0,-4374.0,76.0,-37.0,98.0,-6.0,10.0,5.0,9066.0,11658.0,4992.0,5042.0,9.0,-1.0,28.0,1.0
2022-05-06 12:46:11.353975-07:00,2265.2,723.3,1192.9,1504.1,956.0,1670.1,1366.6,1493.0,3443.1,3434.6,1430.5,1390.3,1457.1,3444.3,961.1,1436.0,3439.5,3441.9,688.9,1322.3,950.0,567.4,1961.8,1722.4,3438.2,3445.5,723.3,1402.1,1277.4,1504.1,1202.7,961.1,3.0,-1.0,9.0,7668.0,11517.0,-7608.0,-4374.0,45.0,-57.0,8.0,0.0,2.0,7.0,9065.0,11659.0,4989.0,5045.0,13.0,-5.0,4.0,1.0
2022-05-06 12:46:11.414412-07:00,2265.2,723.3,1192.9,1504.1,962.0,1660.6,1364.8,1486.6,3443.1,3434.6,1430.5,1390.3,1467.2,3441.9,962.0,1441.5,3434.6,3441.9,689.7,1325.0,950.0,567.4,1961.8,1722.4,3449.1,3438.2,723.3,1402.1,1277.4,1504.1,1202.7,961.1,3.0,7.0,16.0,7660.0,11507.0,-7630.0,-4375.0,-6.0,-38.0,61.0,-5.0,16.0,17.0,9064.0,11659.0,4990.0,5044.0,-13.0,-8.0,8.0,1.0
2022-05-06 12:46:11.444463-07:00,2259.0,724.1,1197.4,1510.6,962.0,1660.6,1364.8,1486.6,3435.8,3445.5,1425.9,1390.3,1467.2,3441.9,962.0,1441.5,3434.6,3441.9,689.7,1325.0,946.6,566.6,1963.7,1728.2,3449.1,3438.2,723.3,1402.1,1279.2,1519.9,1202.7,964.5,4.0,19.0,15.0,7669.0,11495.0,-7637.0,-4380.0,-10.0,0.0,-15.0,2.0,5.0,12.0,9072.0,11653.0,4986.0,5047.0,-15.0,5.0,-4.0,1.0
2022-05-06 12:46:11.533923-07:00,2259.0,724.1,1197.4,1510.6,956.0,1656.8,1364.8,1463.5,3435.8,3445.5,1425.9,1390.3,1459.8,3433.4,961.1,1434.1,3429.8,3437.0,684.0,1319.6,946.6,566.6,1963.7,1728.2,3438.2,3444.3,729.0,1393.0,1279.2,1519.9,1202.7,964.5,2.0,2.0,9.0,7646.0,11502.0,-7647.0,-4383.0,81.0,-54.0,32.0,-5.0,9.0,5.0,9066.0,11658.0,4988.0,5045.0,47.0,4.0,-2.0,1.0
2022-05-06 12:46:11.594162-07:00,2254.8,715.9,1194.7,1499.5,956.0,1656.8,1364.8,1479.2,3435.8,3439.5,1426.8,1389.4,1459.8,3433.4,961.1,1443.3,3441.9,3437.0,684.0,1319.6,941.5,564.2,1953.9,1720.5,3444.3,3444.3,729.0,1393.0,1275.6,1515.3,1200.0,970.5,3.0,14.0,18.0,7638.0,11494.0,-7665.0,-4383.0,4.0,-20.0,12.0,-4.0,2.0,5.0,9064.0,11660.0,4989.0,5043.0,-22.0,-8.0,9.0,1.0
2022-05-06 12:46:11.595280-07:00,2255.9,715.9,1194.7,1499.5,953.4,1657.7,1367.6,1479.2,3434.6,3439.5,1426.8,1389.4,1457.1,3440.7,967.1,1443.3,3441.9,3439.5,687.2,1319.6,941.5,564.2,1953.9,1726.3,3444.3,3441.9,723.3,1391.2,1275.6,1515.3,1200.0,958.5,5.0,1.0,15.0,7640.0,11498.0,-7660.0,-4381.0,18.0,31.0,-18.0,-5.0,6.0,7.0,9066.0,11659.0,4988.0,5043.0,11.0,11.0,1.0,1.0
2022-05-06 12:46:11.654513-07:00,2255.9,719.2,1191.2,1516.2,953.4,1657.7,1367.6,1492.1,3434.6,3449.1,1424.1,1383.0,1457.1,3440.7,967.1,1448.8,3439.5,3439.5,687.2,1319.6,940.7,567.4,1949.9,1726.3,3435.8,3441.9,723.3,1391.2,1285.5,1513.4,1199.1,958.5,4.0,-1.0,2.0,7639.0,11501.0,-7656.0,-4381.0,12.0,-3.0,6.0,1.0,2.0,4.0,9065.0,11659.0,4989.0,5044.0,3.0,3.0,-4.0,1.0
2022-05-06 12:46:11.714028-07:00,2249.7,719.2,1191.2,1516.2,963.7,1659.6,1369.4,1492.1,3437.0,3449.1,1424.1,1383.0,1456.2,3440.7,959.4,1448.8,3439.5,3434.6,685.6,1322.3,940.7,567.4,1949.9,1724.4,3435.8,3435.8,725.8,1385.7,1285.5,1513.4,1199.1,960.2,0.0,3.0,8.0,7632.0,11507.0,-7656.0,-4379.0,38.0,-2.0,-15.0,-3.0,4.0,5.0,9062.0,11661.0,4990.0,5043.0,38.0,4.0,-5.0,1.0
2022-05-06 12:46:11.744481-07:00,2249.7,720.0,1198.2,1507.8,963.7,1659.6,1369.4,1473.6,3437.0,3435.8,1420.4,1398.5,1456.2,3440.7,959.4,1428.6,3450.4,3434.6,685.6,1322.3,942.4,562.6,1951.9,1724.4,3438.2,3435.8,725.8,1385.7,1281.9,1516.2,1204.4,960.2,2.0,14.0,9.0,7644.0,11508.0,-7642.0,-4380.0,-82.0,46.0,-21.0,-4.0,2.0,22.0,9060.0,11663.0,4991.0,5042.0,-62.0,8.0,-9.0,1.0
2022-05-06 12:46:11.864252-07:00,2241.4,718.4,1198.2,1507.8,956.0,1649.2,1364.8,1473.6,3445.5,3439.5,1420.4,1398.5,1456.2,3447.9,960.2,1428.6,3450.4,3439.5,688.9,1316.9,942.4,562.6,1945.0,1725.3,3438.2,3441.9,718.4,1381.2,1281.9,1516.2,1198.2,959.4,1.0,11.0,5.0,7632.0,11513.0,-7648.0,-4376.0,110.0,-31.0,-4.0,-2.0,11.0,5.0,9055.0,11665.0,4994.0,5042.0,91.0,4.0,-4.0,1.0
2022-05-06 12:46:11.864866-07:00,2241.4,718.4,1203.5,1512.5,956.0,1649.2,1353.1,1470.9,3445.5,3439.5,1415.8,1389.4,1456.2,3447.9,956.0,1441.5,3433.4,3428.6,688.9,1316.9,940.7,566.6,1945.0,1725.3,3432.2,3440.7,718.4,1381.2,1283.7,1510.6,1198.2,959.4,-4.0,1.0,16.0,7634.0,11515.0,-7638.0,-4384.0,-53.0,21.0,-28.0,-7.0,-1.0,15.0,9051.0,11668.0,4999.0,5038.0,-40.0,-3.0,-10.0,1.0
2022-05-06 12:46:11.923732-07:00,2242.5,725.8,1203.5,1512.5,953.4,1650.2,1353.1,1470.9,3435.8,3439.5,1415.8,1389.4,1457.1,3435.8,956.0,1441.5,3433.4,3428.6,688.0,1316.9,940.7,566.6,1944.0,1723.4,3432.2,3440.7,724.1,1389.4,1283.7,1510.6,1201.8,967.1,3.0,13.0,8.0,7631.0,11524.0,-7633.0,-4373.0,49.0,14.0,-18.0,-4.0,21.0,6.0,9046.0,11670.0,5003.0,5038.0,35.0,12.0,3.0,1.0
2022-05-06 12:46:11.953958-07:00,2242.5,725.8,1191.2,1509.7,953.4,1650.2,1358.5,1467.2,3435.8,3439.5,1422.2,1389.4,1457.1,3435.8,963.7,1443.3,3433.4,3440.7,688.0,1316.9,944.1,566.6,1944.0,1723.4,3440.7,3450.4,724.1,1389.4,1281.9,1506.9,1201.8,967.1,6.0,9.0,8.0,7637.0,11525.0,-7627.0,-4371.0,-44.0,33.0,7.0,-1.0,12.0,4.0,9045.0,11670.0,5004.0,5038.0,-57.0,-4.0,-6.0,1.0
2022-05-06 12:46:12.013885-07:00,2240.4,724.1,1191.2,1509.7,958.5,1645.4,1358.5,1467.2,3450.4,3444.3,1422.2,1389.4,1455.2,3433.4,963.7,1443.3,3433.4,3440.7,685.6,1321.4,944.1,566.6,1943.0,1715.8,3440.7,3450.4,715.9,1393.9,1281.9,1506.9,1201.8,973.9,-2.0,1.0,4.0,7656.0,11515.0,-7619.0,-4380.0,-6.0,-9.0,-7.0,-10.0,7.0,4.0,9061.0,11658.0,4999.0,5043.0,13.0,-5.0,-3.0,1.0
2022-05-06 12:46:12.074181-07:00,2240.4,724.1,1203.5,1514.3,958.5,1657.7,1356.7,1467.2,3450.4,3444.3,1419.5,1388.5,1455.2,3441.9,952.6,1439.6,3440.7,3440.7,686.4,1321.4,941.5,561.0,1943.0,1715.8,3451.6,3444.3,724.1,1393.9,1279.2,1520.8,1201.8,973.9,1.0,3.0,22.0,7662.0,11516.0,-7610.0,-4380.0,-8.0,19.0,8.0,-3.0,2.0,23.0,9062.0,11657.0,5000.0,5043.0,-9.0,3.0,-4.0,1.0
2022-05-06 12:46:12.110419-07:00,2232.2,717.5,1199.1,1514.3,961.1,1657.7,1356.7,1467.2,3438.2,3446.7,1411.3,1388.5,1470.9,3441.9,952.6,1439.6,3440.7,3440.7,686.4,1316.9,941.5,566.6,1938.0,1727.2,3451.6,3444.3,724.1,1390.3,1279.2,1516.2,1202.7,958.5,-6.0,8.0,-1.0,7663.0,11508.0,-7624.0,-4378.0,-3.0,-28.0,28.0,-8.0,11.0,4.0,9064.0,11655.0,5000.0,5044.0,-14.0,-4.0,6.0,1.0
2022-05-06 12:46:12.164407-07:00,2232.2,717.5,1199.1,1514.3,961.1,1640.7,1352.1,1468.1,3438.2,3446.7,1411.3,1389.4,1470.9,3443.1,963.7,1436.9,3428.6,3431.0,684.8,1316.9,946.6,566.6,1938.0,1727.2,3443.1,3441.9,725.8,1390.3,1277.4,1516.2,1202.7,958.5,2.0,10.0,13.0,7664.0,11501.0,-7628.0,-4388.0,-30.0,-15.0,0.0,-6.0,14.0,13.0,9074.0,11649.0,4994.0,5044.0,-38.0,-11.0,-4.0,1.0
2022-05-06 12:46:12.194993-07:00,2242.5,718.4,1196.5,1514.3,952.6,1640.7,1352.1,1468.1,3441.9,3435.8,1415.8,1389.4,1461.7,3443.1,963.7,1436.9,3428.6,3431.0,684.8,1323.2,946.6,562.6,1932.1,1725.3,3443.1,3441.9,725.8,1385.7,1277.4,1510.6,1200.0,962.8,2.0,-5.0,13.0,7670.0,11489.0,-7636.0,-4392.0,28.0,-32.0,43.0,-2.0,3.0,16.0,9087.0,11640.0,4990.0,5047.0,4.0,0.0,7.0,1.0
2022-05-06 12:46:12.285289-07:00,2242.5,718.4,1196.5,1510.6,952.6,1646.4,1349.4,1467.2,3441.9,3435.8,1415.8,1391.2,1461.7,3441.9,948.3,1436.9,3439.5,3433.4,688.0,1323.2,942.4,562.6,1932.1,1725.3,3441.9,3441.9,723.3,1385.7,1275.6,1510.6,1200.0,962.8,4.0,18.0,7.0,7670.0,11486.0,-7643.0,-4389.0,-39.0,2.0,-10.0,-1.0,10.0,8.0,9086.0,11641.0,4989.0,5048.0,-32.0,0.0,-9.0,1.0
2022-05-06 12:46:12.314584-07:00,2238.4,715.1,1196.5,1510.6,955.1,1646.4,1349.4,1467.2,3447.9,3444.3,1414.9,1391.2,1463.5,3441.9,948.3,1436.9,3439.5,3433.4,688.0,1320.5,942.4,567.4,1934.1,1728.2,3441.9,3441.9,723.3,1387.5,1275.6,1516.2,1192.9,964.5,4.0,-2.0,10.0,7668.0,11482.0,-7652.0,-4387.0,17.0,-24.0,66.0,-5.0,6.0,2.0,9086.0,11641.0,4989.0,5047.0,25.0,-2.0,4.0,1.0
2022-05-06 12:46:12.345062-07:00,2238.4,715.1,1196.5,1510.6,964.5,1646.4,1353.1,1471.8,3447.9,3444.3,1414.9,1387.5,1458.0,3445.5,964.5,1443.3,3440.7,3428.6,686.4,1316.9,937.3,567.4,1934.1,1728.2,3445.5,3446.7,724.1,1380.3,1278.3,1516.2,1192.9,964.5,6.0,23.0,21.0,7677.0,11476.0,-7660.0,-4375.0,4.0,75.0,-36.0,-2.0,6.0,30.0,9085.0,11641.0,4991.0,5046.0,-3.0,6.0,-11.0,1.0
2022-05-06 12:46:12.405445-07:00,2238.4,711.8,1196.5,1515.3,964.5,1646.4,1353.1,1471.8,3451.6,3443.1,1414.9,1390.3,1458.0,3445.5,964.5,1443.3,3440.7,3428.6,686.4,1316.9,942.4,565.8,1925.2,1723.4,3445.5,3446.7,724.1,1380.3,1281.9,1519.0,1196.5,965.4,1.0,-5.0,16.0,7680.0,11500.0,-7629.0,-4360.0,91.0,93.0,-68.0,-5.0,4.0,12.0,9074.0,11644.0,5008.0,5043.0,86.0,33.0,-17.0,1.0
2022-05-06 12:46:12.464512-07:00,2238.4,711.8,1196.5,1515.3,958.5,1644.5,1353.1,1478.3,3451.6,3443.1,1414.9,1390.3,1461.7,3439.5,959.4,1433.2,3438.2,3438.2,686.4,1318.7,942.4,565.8,1925.2,1723.4,3438.2,3444.3,728.2,1388.5,1281.9,1519.0,1196.5,965.4,3.0,16.0,0.0,7674.0,11534.0,-7602.0,-4327.0,-19.0,103.0,-35.0,-8.0,27.0,-7.0,9058.0,11651.0,5023.0,5042.0,-15.0,10.0,-13.0,1.0
2022-05-06 12:46:12.494685-07:00,2239.4,719.2,1200.0,1507.8,958.5,1644.5,1353.1,1478.3,3443.1,3445.5,1412.2,1390.3,1461.7,3439.5,959.4,1433.2,3438.2,3438.2,686.4,1318.7,940.7,560.2,1927.2,1719.6,3438.2,3444.3,728.2,1388.5,1281.0,1513.4,1200.0,961.1,62.0,-18.0,124.0,7750.0,11550.0,-7533.0,-4270.0,-168.0,835.0,31.0,-15.0,29.0,-39.0,9123.0,11611.0,4991.0,5047.0,-441.0,-146.0,31.0,1.0
2022-05-06 12:46:12.554636-07:00,2239.4,719.2,1200.0,1507.8,949.2,1668.2,1373.9,1481.9,3443.1,3445.5,1412.2,1390.3,1458.9,3441.9,961.1,1436.9,3437.0,3441.9,692.9,1318.7,940.7,560.2,1927.2,1719.6,3435.8,3446.7,722.5,1467.2,1281.0,1513.4,1200.0,961.1,-33.0,67.0,16.0,8152.0,11565.0,-7239.0,-3977.0,-999.0,1445.0,-56.0,-8.0,-17.0,48.0,9380.0,11444.0,4828.0,5116.0,-1017.0,-75.0,71.0,1.0
2022-05-06 12:46:12.615198-07:00,2317.0,749.6,1193.8,1506.0,949.2,1668.2,1373.9,1834.3,3446.7,3449.1,1436.0,1388.5,1458.9,3441.9,961.1,1432.3,3445.5,3441.9,692.9,1318.7,941.5,565.0,2194.2,1727.2,3445.5,3446.7,722.5,1467.2,1278.3,1507.8,1205.3,961.1,-8.0,-59.0,-37.0,8583.0,11570.0,-6787.0,-3852.0,52.0,833.0,-731.0,22.0,-87.0,35.0,9601.0,11276.0,4700.0,5198.0,54.0,-2.0,24.0,1.0
2022-05-06 12:46:12.645111-07:00,2350.4,749.6,1193.8,1506.0,952.6,1607.7,1633.1,1834.3,3437.0,3449.1,1436.0,1388.5,1456.2,3449.1,957.7,1432.3,3445.5,3437.0,688.9,1335.9,941.5,565.0,2194.2,1729.1,3445.5,3449.1,714.2,1576.8,1278.3,1507.8,1205.3,959.4,0.0,121.0,-26.0,8403.0,11911.0,-6466.0,-3760.0,816.0,240.0,-1009.0,3.0,47.0,-19.0,9503.0,11352.0,4769.0,5150.0,492.0,32.0,-127.0,1.0
2022-05-06 12:46:12.704530-07:00,2350.4,743.0,1197.4,1515.3,952.6,1607.7,1633.1,2415.5,3437.0,3441.9,1492.1,1389.4,1456.2,3449.1,957.7,1434.1,3443.1,3437.0,688.9,1335.9,937.3,561.8,2221.9,1729.1,3438.2,3449.1,714.2,1576.8,1296.3,1515.3,1205.3,959.4,0.0,-18.0,-17.0,8169.0,12211.0,-6125.0,-3884.0,14.0,-66.0,-1073.0,-1.0,9.0,14.0,9469.0,11375.0,4853.0,5083.0,-11.0,-11.0,-191.0,1.0
2022-05-06 12:46:12.764619-07:00,2283.8,743.0,1197.4,1515.3,961.1,1463.5,1881.1,2415.5,3447.9,3441.9,1492.1,1389.4,1481.9,3438.2,956.8,1434.1,3443.1,3449.1,688.9,1329.6,937.3,561.8,2221.9,1728.2,3438.2,3447.9,706.0,1388.5,1296.3,1515.3,1205.3,965.4,7.0,-92.0,25.0,8047.0,12324.0,-5917.0,-4097.0,116.0,-155.0,-347.0,-10.0,2.0,-2.0,9481.0,11364.0,4897.0,5042.0,138.0,-13.0,-84.0,1.0
2022-05-06 12:46:12.794571-07:00,2283.8,735.6,1190.3,1506.9,961.1,1463.5,1881.1,2295.2,3447.9,3441.9,1544.1,1391.2,1481.9,3438.2,956.8,1439.6,3440.7,3449.1,688.9,1329.6,935.6,561.0,1867.4,1728.2,3438.2,3447.9,706.0,1388.5,1281.0,1519.9,1195.6,965.4,16.0,18.0,36.0,8043.0,12341.0,-5834.0,-4172.0,-399.0,170.0,-231.0,-6.0,14.0,0.0,9518.0,11341.0,4885.0,5035.0,-319.0,-44.0,-24.0,1.0
2022-05-06 12:46:12.975476-07:00,2243.5,735.6,1190.3,1506.9,965.4,1441.5,1868.4,2295.2,3450.4,3441.9,1544.1,1391.2,1467.2,3439.5,959.4,1439.6,3440.7,3443.1,688.9,1323.2,935.6,561.0,1867.4,1728.2,3438.2,3447.9,710.1,1321.4,1281.0,1519.9,1195.6,971.3,-11.0,-31.0,21.0,8109.0,12338.0,-5728.0,-4201.0,179.0,-2.0,-58.0,2.0,-3.0,19.0,9546.0,11317.0,4874.0,5046.0,188.0,28.0,-2.0,1.0
2022-05-06 12:46:12.976845-07:00,2243.5,735.6,1196.5,1506.9,965.4,1441.5,1842.0,2230.1,3450.4,3438.2,1540.3,1389.4,1467.2,3439.5,958.5,1437.8,3443.1,3428.6,688.9,1323.2,939.8,561.0,1758.9,1728.2,3449.1,3441.9,710.1,1321.4,1273.9,1513.4,1209.7,971.3,19.0,50.0,11.0,8084.0,12369.0,-5707.0,-4187.0,-233.0,177.0,-110.0,-7.0,33.0,4.0,9516.0,11339.0,4895.0,5035.0,-117.0,-7.0,-18.0,1.0
2022-05-06 12:46:12.977571-07:00,2194.2,712.6,1196.5,1506.9,956.0,1425.0,1842.0,2230.1,3435.8,3435.8,1540.3,1389.4,1456.2,3449.1,958.5,1437.8,3443.1,3428.6,688.9,1325.0,939.8,561.0,1711.9,1725.3,3449.1,3441.9,701.1,1282.8,1273.9,1513.4,1200.9,966.2,-5.0,-8.0,-6.0,8132.0,12365.0,-5645.0,-4189.0,144.0,-28.0,-24.0,-7.0,4.0,7.0,9531.0,11323.0,4897.0,5039.0,131.0,19.0,-18.0,1.0
2022-05-06 12:46:13.004497-07:00,2194.2,712.6,1194.7,1506.9,956.0,1425.0,1825.5,2176.9,3435.8,3435.8,1534.8,1391.2,1456.2,3449.1,962.0,1440.5,3439.5,3444.3,688.9,1325.0,939.0,562.6,1711.9,1725.3,3443.1,3444.3,701.1,1282.8,1279.2,1517.1,1200.9,966.2,9.0,4.0,4.0,8109.0,12378.0,-5644.0,-4197.0,-146.0,-2.0,-29.0,-6.0,18.0,7.0,9528.0,11327.0,4904.0,5032.0,-129.0,-16.0,-12.0,1.0
2022-05-06 12:46:13.064607-07:00,2193.2,712.6,1194.7,1506.9,960.2,1413.1,1825.5,2176.9,3437.0,3438.2,1534.8,1391.2,1463.5,3450.4,962.0,1440.5,3439.5,3444.3,689.7,1325.9,939.0,562.6,1687.2,1723.4,3443.1,3444.3,698.7,1266.7,1279.2,1517.1,1201.8,973.1,8.0,-1.0,5.0,8177.0,12328.0,-5631.0,-4229.0,-311.0,-47.0,48.0,-8.0,2.0,3.0,9600.0,11271.0,4865.0,5057.0,-300.0,-26.0,20.0,1.0
2022-05-06 12:46:13.094614-07:00,2193.2,712.6,1192.0,1511.5,960.2,1413.1,1795.5,2157.5,3437.0,3438.2,1524.5,1391.2,1463.5,3450.4,952.6,1427.7,3432.2,3444.3,689.7,1325.9,936.4,563.4,1687.2,1723.4,3443.1,3444.3,698.7,1266.7,1285.5,1514.3,1201.8,973.1,4.0,4.0,20.0,8261.0,12255.0,-5619.0,-4294.0,-201.0,-87.0,-27.0,0.0,4.0,23.0,9680.0,11212.0,4816.0,5083.0,-197.0,-35.0,14.0,1.0
2022-05-06 12:46:13.154548-07:00,2162.6,706.0,1190.3,1511.5,951.7,1408.5,1795.5,2157.5,3441.9,3440.7,1527.3,1391.2,1455.2,3439.5,952.6,1427.7,3432.2,3444.3,686.4,1326.8,936.4,557.8,1672.9,1727.2,3443.1,3444.3,696.2,1256.9,1285.5,1514.3,1195.6,972.2,6.0,-22.0,18.0,8304.0,12208.0,-5614.0,-4350.0,-99.0,-97.0,22.0,0.0,-15.0,18.0,9735.0,11169.0,4787.0,5101.0,-128.0,-7.0,9.0,1.0
2022-05-06 12:46:13.214622-07:00,2162.6,706.0,1190.3,1509.7,951.7,1399.4,1792.6,2136.1,3441.9,3440.7,1527.3,1380.3,1455.2,3439.5,952.6,1436.9,3439.5,3433.4,684.0,1326.8,928.8,557.8,1672.9,1727.2,3438.2,3439.5,696.2,1256.9,1277.4,1514.3,1195.6,972.2,10.0,20.0,20.0,8281.0,12206.0,-5637.0,-4370.0,13.0,-29.0,-42.0,-1.0,20.0,10.0,9736.0,11168.0,4788.0,5100.0,47.0,2.0,-5.0,1.0
2022-05-06 12:46:13.245110-07:00,2152.4,700.3,1191.2,1509.7,961.1,1399.4,1792.6,2136.1,3432.2,3437.0,1520.8,1380.3,1456.2,3439.5,952.6,1436.9,3439.5,3433.4,684.0,1319.6,928.8,556.2,1654.9,1724.4,3438.2,3439.5,696.2,1247.1,1277.4,1506.9,1187.6,962.8,0.0,-10.0,11.0,8290.0,12204.0,-5625.0,-4375.0,-25.0,32.0,21.0,-7.0,-1.0,7.0,9744.0,11159.0,4789.0,5102.0,-17.0,10.0,-1.0,1.0
2022-05-06 12:46:13.365239-07:00,2152.4,700.3,1191.2,1507.8,961.1,1393.0,1782.0,2110.8,3432.2,3437.0,1520.8,1393.9,1456.2,3444.3,953.4,1444.2,3443.1,3428.6,691.3,1319.6,936.4,556.2,1654.9,1724.4,3443.1,3433.4,693.8,1247.1,1278.3,1506.9,1187.6,962.8,5.0,24.0,-5.0,8296.0,12200.0,-5635.0,-4361.0,-4.0,-6.0,33.0,0.0,14.0,0.0,9743.0,11158.0,4789.0,5106.0,3.0,0.0,10.0,1.0
2022-05-06 12:46:13.366083-07:00,2146.3,708.5,1198.2,1507.8,954.3,1393.0,1782.0,2110.8,3444.3,3431.0,1519.0,1393.9,1458.0,3444.3,953.4,1444.2,3443.1,3428.6,691.3,1319.6,936.4,552.2,1631.3,1715.8,3443.1,3433.4,693.8,1236.4,1278.3,1515.3,1193.8,964.5,-2.0,-1.0,16.0,8323.0,12180.0,-5636.0,-4366.0,-104.0,8.0,37.0,-4.0,4.0,18.0,9761.0,11147.0,4778.0,5107.0,-76.0,-16.0,4.0,1.0
2022-05-06 12:46:13.394680-07:00,2146.3,708.5,1198.2,1506.9,957.7,1390.3,1769.5,2111.8,3444.3,3431.0,1519.0,1387.5,1453.4,3444.3,953.4,1434.1,3438.2,3435.8,682.3,1323.2,933.0,552.2,1631.3,1715.8,3444.3,3435.8,685.6,1231.0,1278.3,1515.3,1193.8,964.5,3.0,3.0,13.0,8362.0,12145.0,-5647.0,-4372.0,-85.0,-15.0,61.0,-3.0,-3.0,9.0,9788.0,11128.0,4761.0,5112.0,-69.0,-18.0,13.0,1.0
2022-05-06 12:46:13.484554-07:00,2125.0,696.2,1188.5,1508.8,957.7,1390.3,1769.5,2111.8,3449.1,3449.1,1514.3,1383.9,1453.4,3444.3,953.4,1434.1,3438.2,3435.8,682.3,1323.2,930.5,561.0,1617.1,1725.3,3444.3,3435.8,685.6,1231.0,1278.3,1518.0,1200.0,966.2,-3.0,11.0,14.0,8387.0,12125.0,-5651.0,-4375.0,-51.0,-1.0,12.0,-1.0,4.0,21.0,9797.0,11121.0,4753.0,5116.0,-26.0,1.0,2.0,1.0
2022-05-06 12:46:13.545219-07:00,2125.0,696.2,1188.5,1508.8,950.9,1376.6,1768.5,2090.6,3449.1,3449.1,1514.3,1383.9,1452.5,3434.6,952.6,1436.0,3433.4,3449.1,688.0,1308.8,930.5,561.0,1617.1,1725.3,3444.3,3441.9,689.7,1224.8,1278.3,1518.0,1200.0,966.2,4.0,6.0,3.0,8398.0,12116.0,-5652.0,-4379.0,-2.0,1.0,14.0,-5.0,5.0,0.0,9802.0,11116.0,4752.0,5119.0,5.0,2.0,4.0,1.0
2022-05-06 12:46:13.546494-07:00,2130.1,698.7,1200.0,1517.1,950.9,1376.6,1768.5,2090.6,3441.9,3449.1,1512.5,1386.6,1452.5,3434.6,952.6,1436.0,3433.4,3449.1,688.0,1308.8,931.3,559.4,1618.1,1725.3,3444.3,3441.9,689.7,1224.8,1277.4,1511.5,1194.7,961.1,1.0,2.0,12.0,8399.0,12116.0,-5652.0,-4375.0,-1.0,17.0,-2.0,-3.0,1.0,13.0,9799.0,11119.0,4754.0,5117.0,12.0,-3.0,-4.0,1.0
2022-05-06 12:46:13.605617-07:00,2130.1,698.7,1200.0,1517.1,956.0,1378.5,1766.6,2092.6,3441.9,3449.1,1512.5,1386.6,1455.2,3440.7,954.3,1442.4,3438.2,3440.7,679.1,1320.5,931.3,559.4,1618.1,1725.3,3444.3,3441.9,692.1,1216.8,1277.4,1511.5,1194.7,961.1,9.0,7.0,7.0,8399.0,12118.0,-5654.0,-4370.0,11.0,-5.0,19.0,-2.0,10.0,0.0,9796.0,11121.0,4757.0,5116.0,14.0,8.0,4.0,1.0
2022-05-06 12:46:13.634635-07:00,2116.9,694.6,1185.0,1511.5,956.0,1378.5,1766.6,2092.6,3441.9,3449.1,1506.0,1388.5,1455.2,3440.7,954.3,1442.4,3438.2,3440.7,679.1,1320.5,928.8,558.6,1604.9,1726.3,3444.3,3441.9,692.1,1216.8,1273.9,1507.8,1195.6,973.9,1.0,10.0,12.0,8402.0,12115.0,-5655.0,-4369.0,11.0,2.0,-1.0,-2.0,11.0,9.0,9799.0,11118.0,4755.0,5117.0,8.0,-7.0,1.0,1.0
2022-05-06 12:46:13.694981-07:00,2103.7,694.6,1185.0,1511.5,962.0,1373.0,1758.9,2092.6,3438.2,3449.1,1506.0,1388.5,1459.8,3449.1,950.0,1447.9,3444.3,3444.3,685.6,1325.0,928.8,558.6,1604.9,1726.3,3438.2,3445.5,695.4,1215.1,1273.9,1507.8,1195.6,959.4,1.0,0.0,6.0,8409.0,12109.0,-5659.0,-4367.0,10.0,10.0,29.0,-5.0,-1.0,5.0,9806.0,11112.0,4753.0,5120.0,-10.0,-2.0,7.0,1.0
2022-05-06 12:46:13.755394-07:00,2103.7,692.9,1194.7,1515.3,962.0,1373.0,1758.9,2066.5,3438.2,3441.9,1511.5,1381.2,1459.8,3449.1,950.0,1437.8,3437.0,3444.3,685.6,1325.0,931.3,560.2,1598.3,1726.3,3427.4,3445.5,695.4,1215.1,1281.9,1513.4,1192.0,959.4,-2.0,2.0,8.0,8400.0,12117.0,-5660.0,-4359.0,39.0,1.0,-29.0,-3.0,3.0,15.0,9798.0,11118.0,4756.0,5118.0,34.0,12.0,0.0,1.0
2022-05-06 12:46:13.784202-07:00,2094.7,692.9,1194.7,1515.3,950.9,1379.4,1764.6,2066.5,3438.2,3441.9,1511.5,1381.2,1458.9,3443.1,952.6,1437.8,3437.0,3428.6,688.0,1316.0,931.3,560.2,1598.3,1717.7,3427.4,3449.1,688.9,1210.6,1281.9,1513.4,1192.0,962.8,3.0,0.0,12.0,8380.0,12127.0,-5668.0,-4360.0,2.0,-11.0,1.0,-5.0,5.0,5.0,9787.0,11127.0,4763.0,5114.0,2.0,3.0,-4.0,1.0
2022-05-06 12:46:13.904309-07:00,2094.7,700.3,1190.3,1513.4,950.9,1379.4,1764.6,2069.5,3438.2,3440.7,1507.8,1386.6,1458.9,3443.1,952.6,1441.5,3439.5,3428.6,688.0,1316.0,929.6,558.6,1588.9,1717.7,3438.2,3449.1,688.9,1210.6,1273.0,1518.0,1195.6,962.8,-3.0,3.0,4.0,8391.0,12117.0,-5672.0,-4362.0,-20.0,-18.0,29.0,-8.0,1.0,8.0,9794.0,11120.0,4759.0,5118.0,-20.0,-6.0,11.0,1.0
2022-05-06 12:46:13.905835-07:00,2096.7,700.3,1190.3,1513.4,947.5,1377.5,1755.0,2069.5,3449.1,3440.7,1507.8,1386.6,1446.0,3441.9,953.4,1441.5,3439.5,3437.0,682.3,1315.1,929.6,558.6,1588.9,1722.4,3438.2,3445.5,691.3,1189.4,1273.0,1518.0,1195.6,969.6,3.0,14.0,12.0,8385.0,12115.0,-5686.0,-4363.0,22.0,-23.0,18.0,0.0,12.0,18.0,9794.0,11121.0,4758.0,5117.0,11.0,-2.0,1.0,1.0
2022-05-06 12:46:13.934956-07:00,2096.7,696.2,1188.5,1508.8,947.5,1377.5,1738.7,2064.5,3449.1,3438.2,1505.1,1378.5,1446.0,3441.9,953.4,1453.4,3438.2,3434.6,682.3,1315.1,928.8,557.8,1589.9,1722.4,3441.9,3444.3,691.3,1189.4,1281.9,1506.9,1192.0,969.6,4.0,6.0,13.0,8385.0,12109.0,-5692.0,-4369.0,-9.0,-9.0,-8.0,-6.0,6.0,9.0,9796.0,11120.0,4758.0,5116.0,-9.0,0.0,-10.0,1.0
2022-05-06 12:46:14.024741-07:00,2094.7,678.2,1188.5,1508.8,955.1,1365.7,1738.7,2064.5,3443.1,3441.9,1505.1,1378.5,1455.2,3444.3,953.4,1453.4,3438.2,3434.6,687.2,1319.6,928.8,557.8,1582.4,1728.2,3441.9,3444.3,688.9,1200.9,1281.9,1506.9,1191.2,966.2,0.0,2.0,11.0,8392.0,12109.0,-5686.0,-4366.0,28.0,28.0,-3.0,-2.0,7.0,11.0,9798.0,11117.0,4758.0,5118.0,20.0,12.0,4.0,1.0
2022-05-06 12:46:14.055542-07:00,2094.7,678.2,1190.3,1509.7,955.1,1365.7,1727.2,2052.4,3443.1,3441.9,1506.0,1388.5,1455.2,3444.3,948.3,1441.5,3431.0,3439.5,687.2,1319.6,925.4,554.6,1582.4,1728.2,3437.0,3439.5,688.9,1200.9,1281.9,1515.3,1191.2,966.2,3.0,7.0,2.0,8387.0,12114.0,-5683.0,-4364.0,1.0,-11.0,-19.0,-6.0,8.0,4.0,9795.0,11120.0,4762.0,5116.0,5.0,7.0,-10.0,1.0
2022-05-06 12:46:14.085228-07:00,2094.7,686.4,1190.3,1509.7,950.9,1365.7,1727.2,2052.4,3439.5,3444.3,1506.0,1388.5,1455.2,3446.7,948.3,1441.5,3431.0,3439.5,682.3,1319.6,925.4,554.6,1575.8,1720.5,3437.0,3439.5,689.7,1203.5,1281.9,1515.3,1196.5,968.8,4.0,1.0,18.0,8394.0,12107.0,-5682.0,-4373.0,-64.0,5.0,3.0,-6.0,4.0,12.0,9804.0,11114.0,4758.0,5115.0,-55.0,-6.0,3.0,1.0
2022-05-06 12:46:14.145094-07:00,2094.7,686.4,1196.5,1507.8,950.9,1365.7,1732.0,2041.4,3439.5,3444.3,1506.9,1387.5,1455.2,3446.7,953.4,1429.5,3439.5,3438.2,682.3,1319.6,931.3,560.2,1575.8,1720.5,3426.2,3446.7,689.7,1203.5,1276.5,1506.9,1196.5,968.8,-2.0,-1.0,3.0,8420.0,12096.0,-5667.0,-4371.0,-3.0,28.0,-4.0,0.0,-2.0,15.0,9816.0,11103.0,4752.0,5121.0,0.0,14.0,2.0,1.0
2022-05-06 12:46:14.294610-07:00,2087.6,683.1,1188.5,1507.8,952.6,1363.0,1732.0,2041.4,3441.9,3444.3,1501.4,1387.5,1451.6,3438.2,953.4,1429.5,3439.5,3438.2,684.8,1318.7,931.3,549.8,1576.8,1717.7,3426.2,3446.7,692.9,1196.5,1276.5,1511.5,1199.1,967.9,12.0,19.0,5.0,8400.0,12107.0,-5677.0,-4368.0,7.0,-15.0,-13.0,-2.0,18.0,1.0,9802.0,11115.0,4759.0,5115.0,3.0,-6.0,-8.0,1.0
2022-05-06 12:46:14.295713-07:00,2087.6,683.1,1188.5,1510.6,952.6,1357.6,1725.3,2053.4,3441.9,3444.3,1501.4,1383.9,1451.6,3439.5,945.8,1431.4,3434.6,3441.9,689.7,1318.7,929.6,549.8,1576.8,1717.7,3444.3,3435.8,692.9,1196.5,1278.3,1511.5,1199.1,967.9,0.0,-14.0,14.0,8418.0,12095.0,-5670.0,-4374.0,2.0,7.0,20.0,-3.0,-3.0,9.0,9813.0,11105.0,4753.0,5120.0,16.0,6.0,14.0,1.0
2022-05-06 12:46:14.296967-07:00,2083.6,683.1,1195.6,1510.6,951.7,1357.6,1725.3,2053.4,3437.0,3447.9,1507.8,1383.9,1458.0,3439.5,945.8,1431.4,3434.6,3441.9,689.7,1314.2,929.6,553.0,1574.9,1725.3,3444.3,3435.8,692.9,1200.9,1278.3,1508.8,1186.7,979.0,6.0,22.0,6.0,8408.0,12102.0,-5679.0,-4365.0,-3.0,-3.0,-3.0,-2.0,11.0,8.0,9803.0,11114.0,4755.0,5118.0,-7.0,-1.0,-3.0,1.0
2022-05-06 12:46:14.354542-07:00,2083.6,683.1,1195.6,1499.5,951.7,1357.6,1726.3,2049.4,3437.0,3447.9,1507.8,1389.4,1458.0,3438.2,945.8,1433.2,3428.6,3439.5,685.6,1314.2,933.0,553.0,1574.9,1725.3,3443.1,3438.2,685.6,1200.9,1277.4,1508.8,1186.7,979.0,0.0,0.0,12.0,8409.0,12101.0,-5672.0,-4373.0,11.0,-11.0,-20.0,-8.0,1.0,10.0,9805.0,11113.0,4755.0,5118.0,13.0,-5.0,-7.0,1.0
2022-05-06 12:46:14.414667-07:00,2076.5,684.0,1192.0,1499.5,956.0,1357.6,1726.3,2049.4,3438.2,3437.0,1497.7,1389.4,1457.1,3438.2,945.8,1433.2,3428.6,3439.5,685.6,1307.9,933.0,556.2,1562.7,1725.3,3443.1,3438.2,685.6,1192.0,1277.4,1511.5,1192.0,968.8,7.0,-3.0,17.0,8392.0,12114.0,-5675.0,-4366.0,79.0,11.0,7.0,-2.0,10.0,9.0,9789.0,11127.0,4762.0,5111.0,77.0,7.0,4.0,1.0
2022-05-06 12:46:14.474724-07:00,2076.5,684.0,1192.0,1522.7,956.0,1354.0,1725.3,2055.4,3438.2,3437.0,1497.7,1378.5,1457.1,3439.5,953.4,1439.6,3439.5,3449.1,685.6,1307.9,922.0,556.2,1562.7,1725.3,3433.4,3444.3,690.5,1192.0,1275.6,1511.5,1192.0,968.8,2.0,7.0,12.0,8386.0,12121.0,-5674.0,-4357.0,-19.0,6.0,9.0,-4.0,6.0,10.0,9781.0,11134.0,4766.0,5107.0,-10.0,2.0,-4.0,1.0
2022-05-06 12:46:14.504487-07:00,2072.5,684.0,1192.9,1511.5,947.5,1354.0,1725.3,2055.4,3444.3,3449.1,1497.7,1380.3,1454.3,3439.5,953.4,1439.6,3439.5,3449.1,685.6,1310.6,933.0,561.0,1561.8,1721.5,3433.4,3444.3,690.5,1190.3,1283.7,1514.3,1198.2,961.1,4.0,11.0,0.0,8393.0,12112.0,-5682.0,-4359.0,-15.0,-15.0,15.0,-2.0,9.0,5.0,9785.0,11131.0,4763.0,5109.0,-15.0,-9.0,5.0,1.0
2022-05-06 12:46:14.534595-07:00,2072.5,684.0,1192.9,1511.5,947.5,1353.1,1718.6,2039.4,3444.3,3449.1,1497.7,1380.3,1456.2,3438.2,945.8,1436.9,3435.8,3440.7,688.9,1309.7,933.0,561.0,1561.8,1721.5,3435.8,3450.4,688.9,1191.2,1283.7,1514.3,1198.2,961.1,4.0,10.0,9.0,8391.0,12108.0,-5687.0,-4367.0,10.0,-28.0,10.0,0.0,8.0,13.0,9787.0,11130.0,4761.0,5110.0,2.0,-3.0,-3.0,1.0
2022-05-06 12:46:14.595026-07:00,2075.5,683.1,1191.2,1507.8,947.5,1353.1,1718.6,2039.4,3443.1,3449.1,1493.0,1387.5,1456.2,3438.2,945.8,1436.9,3435.8,3440.7,688.9,1309.7,927.1,554.6,1559.0,1722.4,3435.8,3450.4,688.9,1191.2,1273.9,1526.4,1198.2,962.0,3.0,2.0,14.0,8389.0,12107.0,-5690.0,-4371.0,4.0,-1.0,2.0,-2.0,0.0,13.0,9787.0,11130.0,4761.0,5110.0,5.0,0.0,0.0,1.0
2022-05-06 12:46:14.654598-07:00,2075.5,683.1,1191.2,1507.8,945.8,1361.2,1719.6,2025.4,3443.1,3449.1,1493.0,1387.5,1453.4,3434.6,952.6,1436.9,3440.7,3440.7,682.3,1313.3,927.1,554.6,1559.0,1722.4,3445.5,3444.3,684.8,1187.6,1273.9,1526.4,1198.2,962.0,3.0,6.0,11.0,8385.0,12109.0,-5692.0,-4369.0,11.0,-1.0,-1.0,-2.0,2.0,10.0,9786.0,11131.0,4762.0,5110.0,7.0,1.0,-2.0,1.0
2022-05-06 12:46:14.684760-07:00,2074.5,684.0,1193.8,1505.1,945.8,1361.2,1719.6,2025.4,3438.2,3447.9,1501.4,1383.9,1453.4,3434.6,952.6,1436.9,3440.7,3440.7,682.3,1313.3,922.8,557.0,1557.1,1718.6,3445.5,3444.3,684.8,1187.6,1274.7,1519.0,1197.4,965.4,0.0,2.0,6.0,8387.0,12109.0,-5690.0,-4368.0,-19.0,2.0,1.0,-8.0,7.0,13.0,9787.0,11130.0,4761.0,5110.0,-15.0,-1.0,-1.0,1.0
2022-05-06 12:46:14.744869-07:00,2058.4,684.0,1193.8,1505.1,950.9,1351.2,1709.1,2022.4,3438.2,3447.9,1501.4,1383.9,1456.2,3447.9,944.9,1434.1,3434.6,3440.7,687.2,1313.3,922.8,557.0,1557.1,1726.3,3437.0,3440.7,688.9,1185.0,1274.7,1519.0,1197.4,959.4,6.0,12.0,13.0,8388.0,12107.0,-5691.0,-4370.0,-10.0,1.0,3.0,0.0,12.0,13.0,9788.0,11129.0,4761.0,5110.0,-9.0,-4.0,3.0,1.0
2022-05-06 12:46:14.805418-07:00,2058.4,674.2,1192.9,1508.8,950.9,1351.2,1709.1,2022.4,3438.2,3438.2,1500.4,1388.5,1456.2,3447.9,944.9,1442.4,3439.5,3440.7,687.2,1313.3,922.0,558.6,1556.2,1726.3,3441.9,3440.7,688.9,1185.0,1275.6,1509.7,1196.5,959.4,5.0,1.0,15.0,8389.0,12107.0,-5691.0,-4371.0,-7.0,7.0,8.0,0.0,8.0,10.0,9789.0,11129.0,4760.0,5110.0,-7.0,2.0,-1.0,1.0
2022-05-06 12:46:14.864624-07:00,2066.5,674.2,1192.9,1508.8,956.0,1344.9,1718.6,2022.4,3445.5,3438.2,1500.4,1388.5,1452.5,3449.1,945.8,1442.4,3439.5,3433.4,685.6,1315.1,922.0,558.6,1556.2,1722.4,3441.9,3438.2,685.6,1179.7,1275.6,1509.7,1196.5,965.4,7.0,3.0,14.0,8393.0,12106.0,-5689.0,-4367.0,6.0,10.0,12.0,-4.0,4.0,10.0,9790.0,11128.0,4759.0,5110.0,9.0,2.0,4.0,1.0
2022-05-06 12:46:14.894618-07:00,2066.5,674.2,1190.3,1496.7,956.0,1344.9,1718.6,2027.4,3445.5,3444.3,1495.8,1377.5,1452.5,3449.1,945.8,1439.6,3439.5,3433.4,685.6,1315.1,918.6,554.6,1552.5,1722.4,3445.5,3438.2,685.6,1179.7,1274.7,1510.6,1200.0,965.4,2.0,4.0,11.0,8394.0,12107.0,-5689.0,-4364.0,-1.0,-2.0,-5.0,-1.0,3.0,13.0,9790.0,11127.0,4759.0,5111.0,-9.0,-4.0,1.0,1.0
2022-05-06 12:46:14.954496-07:00,2068.5,674.2,1190.3,1496.7,952.6,1352.1,1711.0,2027.4,3443.1,3444.3,1495.8,1377.5,1456.2,3444.3,949.2,1439.6,3439.5,3438.2,687.2,1314.2,918.6,554.6,1552.5,1726.3,3445.5,3435.8,686.4,1185.9,1274.7,1510.6,1200.0,966.2,0.0,5.0,15.0,8395.0,12108.0,-5688.0,-4361.0,-8.0,15.0,21.0,-5.0,9.0,11.0,9789.0,11128.0,4758.0,5112.0,-18.0,4.0,12.0,1.0
2022-05-06 12:46:15.104280-07:00,2068.5,679.1,1196.5,1508.8,952.6,1352.1,1711.0,2027.4,3443.1,3443.1,1493.0,1385.7,1456.2,3444.3,949.2,1433.2,3443.1,3438.2,687.2,1314.2,933.0,553.8,1553.4,1726.3,3449.1,3435.8,686.4,1185.9,1278.3,1512.5,1198.2,966.2,5.0,8.0,4.0,8406.0,12099.0,-5692.0,-4357.0,-16.0,-5.0,12.0,-1.0,1.0,8.0,9796.0,11122.0,4753.0,5116.0,-12.0,-6.0,2.0,1.0
2022-05-06 12:46:15.105829-07:00,2067.5,684.8,1196.5,1508.8,950.9,1355.8,1713.8,2027.4,3438.2,3439.5,1493.0,1385.7,1454.3,3446.7,957.7,1433.2,3443.1,3439.5,683.1,1309.7,933.0,553.8,1539.4,1724.4,3449.1,3443.1,688.9,1180.6,1278.3,1512.5,1189.4,963.7,6.0,13.0,19.0,8397.0,12104.0,-5696.0,-4358.0,1.0,-9.0,-18.0,-2.0,15.0,16.0,9793.0,11125.0,4756.0,5113.0,-12.0,-6.0,-6.0,1.0
2022-05-06 12:46:15.194621-07:00,2067.5,684.8,1197.4,1526.4,950.9,1355.8,1709.1,2013.4,3438.2,3439.5,1499.5,1382.1,1454.3,3446.7,951.7,1433.2,3434.6,3439.5,683.1,1309.7,930.5,556.2,1539.4,1724.4,3433.4,3449.1,688.9,1180.6,1269.4,1511.5,1189.4,963.7,3.0,1.0,10.0,8404.0,12099.0,-5692.0,-4361.0,-12.0,7.0,18.0,-4.0,4.0,13.0,9798.0,11120.0,4754.0,5116.0,-8.0,-2.0,8.0,1.0
2022-05-06 12:46:15.195661-07:00,2045.4,678.2,1197.4,1526.4,950.9,1340.4,1709.1,2013.4,3431.0,3433.4,1499.5,1382.1,1459.8,3434.6,951.7,1433.2,3434.6,3439.5,682.3,1309.7,930.5,556.2,1541.3,1723.4,3433.4,3449.1,688.9,1181.5,1269.4,1511.5,1192.0,966.2,6.0,17.0,11.0,8402.0,12100.0,-5696.0,-4357.0,27.0,-4.0,-8.0,0.0,12.0,9.0,9795.0,11123.0,4755.0,5114.0,17.0,-2.0,-7.0,1.0
2022-05-06 12:46:15.196940-07:00,2045.4,678.2,1192.0,1512.5,950.9,1340.4,1700.5,2012.4,3431.0,3433.4,1500.4,1377.5,1459.8,3434.6,949.2,1436.9,3439.5,3438.2,682.3,1309.7,921.1,560.2,1541.3,1723.4,3435.8,3434.6,688.9,1181.5,1270.3,1511.5,1192.0,966.2,5.0,-5.0,12.0,8403.0,12100.0,-5692.0,-4361.0,-27.0,-5.0,3.0,-6.0,7.0,12.0,9801.0,11118.0,4756.0,5114.0,-22.0,-5.0,0.0,1.0
2022-05-06 12:46:15.255230-07:00,2062.5,674.2,1192.0,1512.5,944.1,1350.3,1700.5,2012.4,3438.2,3441.9,1500.4,1377.5,1453.4,3433.4,949.2,1436.9,3439.5,3438.2,684.0,1310.6,921.1,560.2,1543.1,1727.2,3435.8,3434.6,688.0,1177.0,1270.3,1511.5,1188.5,961.1,3.0,0.0,13.0,8407.0,12096.0,-5696.0,-4361.0,45.0,-13.0,23.0,-1.0,-4.0,8.0,9797.0,11122.0,4757.0,5112.0,41.0,-1.0,8.0,1.0
2022-05-06 12:46:15.284678-07:00,2062.5,674.2,1202.7,1510.6,944.1,1347.6,1708.1,2039.4,3438.2,3441.9,1484.7,1390.3,1453.4,3446.7,950.9,1433.2,3444.3,3443.1,684.0,1310.6,927.1,553.8,1543.1,1727.2,3444.3,3438.2,692.9,1177.0,1278.3,1512.5,1188.5,961.1,6.0,18.0,16.0,8402.0,12097.0,-5705.0,-4354.0,-30.0,23.0,-11.0,0.0,11.0,10.0,9795.0,11123.0,4758.0,5112.0,-27.0,6.0,-2.0,1.0
2022-05-06 12:46:15.344563-07:00,2058.4,686.4,1193.8,1510.6,948.3,1347.6,1708.1,2039.4,3443.1,3434.6,1491.2,1390.3,1451.6,3446.7,950.9,1433.2,3444.3,3443.1,684.0,1311.5,927.1,551.4,1541.3,1728.2,3444.3,3438.2,692.9,1174.4,1278.3,1509.7,1189.4,961.1,8.0,9.0,12.0,8408.0,12096.0,-5699.0,-4352.0,25.0,-7.0,16.0,-5.0,7.0,10.0,9793.0,11125.0,4759.0,5111.0,17.0,0.0,3.0,1.0
2022-05-06 12:46:15.405253-07:00,2058.4,686.4,1193.8,1512.5,948.3,1345.8,1692.9,2020.4,3443.1,3434.6,1491.2,1383.9,1451.6,3444.3,953.4,1433.2,3439.5,3449.1,683.1,1311.5,922.8,551.4,1541.3,1728.2,3446.7,3439.5,688.9,1174.4,1283.7,1509.7,1189.4,961.1,4.0,4.0,11.0,8412.0,12092.0,-5704.0,-4349.0,-20.0,9.0,8.0,0.0,4.0,10.0,9795.0,11123.0,4758.0,5112.0,-11.0,-9.0,0.0,1.0
2022-05-06 12:46:15.434592-07:00,2053.4,675.8,1198.2,1512.5,951.7,1345.8,1692.9,2020.4,3434.6,3449.1,1494.9,1383.9,1457.1,3444.3,953.4,1433.2,3439.5,3449.1,683.1,1304.3,922.8,553.8,1541.3,1731.1,3446.7,3439.5,688.9,1173.5,1283.7,1512.5,1186.7,959.4,5.0,-24.0,18.0,8406.0,12096.0,-5708.0,-4347.0,179.0,-21.0,36.0,0.0,-21.0,26.0,9779.0,11137.0,4767.0,5104.0,129.0,6.0,-11.0,1.0
2022-05-06 12:46:15.524826-07:00,2053.4,675.8,1198.2,1506.9,951.7,1349.4,1694.8,2011.4,3434.6,3449.1,1494.9,1387.5,1457.1,3441.9,947.5,1437.8,3446.7,3435.8,687.2,1304.3,927.9,553.8,1541.3,1731.1,3449.1,3440.7,694.6,1173.5,1277.4,1512.5,1186.7,959.4,88.0,57.0,20.0,8294.0,12118.0,-5830.0,-4336.0,78.0,-388.0,300.0,12.0,70.0,-23.0,9672.0,11215.0,4826.0,5081.0,372.0,76.0,-2.0,1.0
2022-05-06 12:46:15.554662-07:00,2079.5,674.2,1197.4,1507.8,953.4,1349.4,1694.8,2011.4,3440.7,3433.4,1465.4,1383.0,1440.5,3441.9,947.5,1437.8,3446.7,3435.8,687.2,1302.5,922.0,558.6,1995.5,1724.4,3449.1,3440.7,694.6,1214.2,1280.1,1510.6,1195.6,962.0,-39.0,-40.0,-12.0,8366.0,11997.0,-5974.0,-4338.0,-185.0,-242.0,531.0,-13.0,7.0,41.0,9641.0,11229.0,4845.0,5090.0,66.0,58.0,16.0,1.0
2022-05-06 12:46:15.584897-07:00,2079.5,674.2,1197.4,1507.8,950.9,1596.4,1704.3,2094.7,3440.7,3433.4,1465.4,1383.0,1457.1,3433.4,949.2,1436.9,3449.1,3438.2,683.1,1314.2,922.0,558.6,1995.5,1724.4,3440.7,3446.7,724.1,1595.5,1280.1,1510.6,1195.6,962.0,10.0,-56.0,-46.0,8356.0,11847.0,-6311.0,-4295.0,503.0,-680.0,1015.0,-6.0,-5.0,12.0,9513.0,11320.0,4887.0,5091.0,508.0,74.0,143.0,1.0
2022-05-06 12:46:15.644647-07:00,2324.3,731.5,1185.0,1509.7,950.9,1596.4,1704.3,2094.7,3444.3,3446.7,1430.5,1383.9,1457.1,3433.4,949.2,1436.9,3449.1,3438.2,683.1,1314.2,928.8,558.6,2252.8,1731.1,3440.7,3446.7,724.1,1595.5,1276.5,1512.5,1197.4,965.4,12.0,-19.0,-38.0,8220.0,11632.0,-6846.0,-4322.0,-92.0,-1102.0,955.0,-30.0,31.0,-56.0,9398.0,11408.0,4898.0,5095.0,30.0,3.0,115.0,1.0
2022-05-06 12:46:15.704619-07:00,2324.3,731.5,1185.0,1509.7,952.6,1916.4,1531.0,1659.6,3444.3,3446.7,1430.5,1383.9,1456.2,3444.3,950.9,1441.5,3428.6,3443.1,684.0,1317.8,928.8,558.6,2252.8,1731.1,3444.3,3447.9,723.3,1495.8,1276.5,1512.5,1197.4,965.4,0.0,55.0,73.0,8154.0,11346.0,-7334.0,-4407.0,280.0,-696.0,842.0,-20.0,0.0,40.0,9324.0,11480.0,4874.0,5096.0,465.0,-17.0,154.0,1.0
2022-05-06 12:46:15.765207-07:00,2402.9,760.4,1192.0,1511.5,952.6,1916.4,1531.0,1659.6,3444.3,3445.5,1414.9,1393.9,1456.2,3444.3,950.9,1441.5,3428.6,3443.1,684.0,1317.8,934.7,561.8,2128.0,1720.5,3444.3,3447.9,723.3,1495.8,1277.4,1511.5,1181.5,964.5,43.0,74.0,62.0,7977.0,11270.0,-7679.0,-4338.0,389.0,-365.0,442.0,14.0,58.0,29.0,9149.0,11610.0,4927.0,5066.0,364.0,78.0,24.0,1.0
2022-05-06 12:46:15.794569-07:00,2402.9,760.4,1192.0,1511.5,956.0,1908.5,1417.6,1542.2,3444.3,3445.5,1414.9,1393.9,1458.9,3440.7,948.3,1437.8,3437.0,3439.5,683.1,1315.1,934.7,561.8,2128.0,1720.5,3443.1,3438.2,711.0,1460.8,1277.4,1511.5,1181.5,964.5,-12.0,-17.0,6.0,8022.0,11194.0,-7755.0,-4316.0,-318.0,123.0,133.0,-10.0,-28.0,18.0,9162.0,11587.0,4932.0,5090.0,-140.0,42.0,-6.0,1.0
2022-05-06 12:46:15.855000-07:00,2359.8,750.5,1177.9,1515.3,956.0,1908.5,1417.6,1519.9,3431.0,3438.2,1421.3,1389.4,1458.9,3440.7,948.3,1436.9,3438.2,3439.5,683.1,1315.1,940.7,556.2,2078.5,1713.8,3445.5,3438.2,711.0,1460.8,1283.7,1507.8,1186.7,960.2,11.0,42.0,0.0,8069.0,11183.0,-7746.0,-4275.0,47.0,108.0,10.0,-5.0,27.0,-14.0,9134.0,11602.0,4950.0,5089.0,41.0,11.0,-7.0,1.0
2022-05-06 12:46:15.975306-07:00,2332.6,750.5,1177.9,1515.3,955.1,1875.2,1386.6,1519.9,3435.8,3438.2,1421.3,1389.4,1450.6,3440.7,950.9,1436.9,3438.2,3437.0,685.6,1311.5,940.7,556.2,2078.5,1716.7,3445.5,3451.6,714.2,1434.1,1283.7,1507.8,1186.7,961.1,-12.0,-22.0,-14.0,8131.0,11162.0,-7708.0,-4280.0,-163.0,114.0,47.0,-5.0,-11.0,25.0,9182.0,11564.0,4932.0,5109.0,-154.0,-7.0,13.0,1.0
2022-05-06 12:46:15.976408-07:00,2332.6,738.1,1182.3,1505.1,955.1,1875.2,1386.6,1513.4,3435.8,3446.7,1412.2,1387.5,1450.6,3440.7,950.9,1444.2,3434.6,3437.0,685.6,1311.5,928.8,565.0,2042.4,1716.7,3443.1,3451.6,714.2,1434.1,1284.6,1511.5,1187.6,961.1,14.0,57.0,29.0,8137.0,11146.0,-7726.0,-4277.0,55.0,-53.0,-12.0,-4.0,14.0,-4.0,9176.0,11569.0,4927.0,5111.0,36.0,-8.0,-1.0,1.0
2022-05-06 12:46:16.035215-07:00,2319.1,738.1,1182.3,1505.1,953.4,1861.5,1374.8,1513.4,3441.9,3446.7,1412.2,1387.5,1460.8,3441.9,945.8,1444.2,3434.6,3433.4,682.3,1310.6,928.8,565.0,2042.4,1724.4,3443.1,3446.7,708.5,1426.8,1284.6,1511.5,1187.6,964.5,-6.0,-24.0,8.0,8152.0,11162.0,-7675.0,-4299.0,-94.0,78.0,-101.0,-6.0,0.0,15.0,9197.0,11552.0,4925.0,5114.0,-47.0,13.0,-15.0,1.0
2022-05-06 12:46:16.036066-07:00,2319.1,745.5,1185.9,1504.1,953.4,1861.5,1374.8,1494.9,3441.9,3441.9,1408.5,1393.0,1460.8,3441.9,945.8,1433.2,3437.0,3433.4,682.3,1310.6,929.6,565.0,2031.4,1724.4,3444.3,3446.7,708.5,1426.8,1280.1,1509.7,1188.5,964.5,12.0,34.0,9.0,8138.0,11173.0,-7677.0,-4294.0,57.0,-57.0,13.0,-7.0,6.0,-5.0,9189.0,11557.0,4928.0,5113.0,1.0,-17.0,13.0,1.0
2022-05-06 12:46:16.094632-07:00,2307.7,739.7,1185.9,1504.1,949.2,1839.1,1362.1,1494.9,3439.5,3434.6,1408.5,1393.0,1479.2,3450.4,954.3,1433.2,3437.0,3439.5,685.6,1310.6,929.6,565.0,2016.4,1717.7,3444.3,3440.7,712.6,1425.9,1280.1,1509.7,1183.2,962.0,-1.0,-10.0,12.0,8136.0,11169.0,-7680.0,-4303.0,-30.0,-20.0,31.0,-3.0,8.0,20.0,9209.0,11545.0,4917.0,5116.0,-48.0,-4.0,4.0,1.0
2022-05-06 12:46:16.184512-07:00,2307.7,739.7,1189.4,1509.7,949.2,1839.1,1358.5,1483.8,3439.5,3434.6,1414.0,1383.9,1479.2,3450.4,947.5,1426.8,3439.5,3437.0,685.6,1310.6,930.5,563.4,2016.4,1717.7,3438.2,3443.1,712.6,1425.9,1281.9,1506.0,1183.2,962.0,3.0,27.0,29.0,8148.0,11160.0,-7679.0,-4304.0,-41.0,30.0,-25.0,-6.0,12.0,18.0,9221.0,11535.0,4909.0,5123.0,-42.0,-7.0,7.0,1.0
2022-05-06 12:46:16.214541-07:00,2295.2,731.5,1189.4,1509.7,952.6,1816.8,1358.5,1483.8,3439.5,3440.7,1414.0,1383.9,1464.4,3444.3,947.5,1426.8,3439.5,3437.0,681.5,1311.5,930.5,563.4,2004.5,1715.8,3438.2,3443.1,720.8,1424.1,1281.9,1506.0,1187.6,957.7,-3.0,11.0,14.0,8135.0,11171.0,-7678.0,-4303.0,96.0,-29.0,-6.0,-1.0,10.0,17.0,9225.0,11532.0,4908.0,5124.0,51.0,8.0,-5.0,1.0
2022-05-06 12:46:16.274529-07:00,2295.2,731.5,1180.6,1505.1,952.6,1816.8,1354.9,1488.4,3439.5,3440.7,1404.0,1390.3,1464.4,3444.3,952.6,1436.0,3438.2,3446.7,681.5,1311.5,931.3,556.2,2004.5,1715.8,3440.7,3450.4,720.8,1424.1,1280.1,1506.9,1187.6,957.7,-1.0,16.0,8.0,8138.0,11171.0,-7672.0,-4309.0,-58.0,27.0,-31.0,-10.0,8.0,6.0,9223.0,11531.0,4913.0,5124.0,-56.0,2.0,-4.0,1.0
2022-05-06 12:46:16.275650-07:00,2304.5,724.1,1180.6,1505.1,948.3,1786.8,1354.9,1488.4,3441.9,3445.5,1404.0,1390.3,1459.8,3444.3,952.6,1436.0,3438.2,3446.7,683.1,1310.6,931.3,556.2,2002.5,1722.4,3440.7,3450.4,713.4,1415.8,1280.1,1506.9,1187.6,944.9,3.0,0.0,21.0,8129.0,11183.0,-7659.0,-4315.0,83.0,-15.0,-37.0,0.0,1.0,16.0,9237.0,11523.0,4906.0,5126.0,45.0,8.0,-5.0,1.0
2022-05-06 12:46:16.395289-07:00,2304.5,724.1,1179.7,1506.9,948.3,1775.2,1355.8,1481.9,3441.9,3445.5,1397.6,1384.8,1459.8,3439.5,946.6,1432.3,3437.0,3438.2,684.8,1310.6,932.2,560.2,2002.5,1722.4,3443.1,3443.1,713.4,1415.8,1279.2,1502.3,1187.6,944.9,4.0,16.0,15.0,8130.0,11183.0,-7658.0,-4317.0,-38.0,15.0,3.0,-7.0,7.0,11.0,9231.0,11525.0,4912.0,5125.0,3.0,16.0,-1.0,1.0
2022-05-06 12:46:16.396198-07:00,2282.8,720.8,1181.5,1506.9,950.0,1775.2,1355.8,1481.9,3449.1,3439.5,1388.5,1384.8,1457.1,3439.5,946.6,1432.3,3437.0,3438.2,684.8,1309.7,932.2,563.4,1994.5,1722.4,3443.1,3443.1,713.4,1408.5,1279.2,1505.1,1188.5,952.6,3.0,14.0,17.0,8169.0,11191.0,-7611.0,-4306.0,-34.0,166.0,-98.0,1.0,6.0,16.0,9240.0,11519.0,4909.0,5128.0,-58.0,-9.0,-3.0,1.0
2022-05-06 12:46:16.424509-07:00,2282.8,720.8,1181.5,1503.2,950.0,1770.4,1345.8,1507.8,3449.1,3439.5,1388.5,1385.7,1457.1,3438.2,949.2,1434.1,3443.1,3440.7,684.8,1309.7,943.2,563.4,1994.5,1722.4,3449.1,3438.2,715.9,1408.5,1276.5,1505.1,1188.5,952.6,0.0,-22.0,-2.0,8137.0,11220.0,-7613.0,-4287.0,215.0,-62.0,64.0,-5.0,-5.0,9.0,9226.0,11524.0,4920.0,5128.0,156.0,30.0,0.0,1.0
2022-05-06 12:46:16.574369-07:00,2277.6,720.8,1174.4,1503.2,950.0,1770.4,1345.8,1507.8,3438.2,3435.8,1390.3,1385.7,1458.0,3438.2,949.2,1434.1,3443.1,3440.7,684.8,1306.1,943.2,558.6,1984.6,1718.6,3449.1,3438.2,715.9,1414.0,1276.5,1506.0,1190.3,954.3,5.0,34.0,10.0,8116.0,11220.0,-7647.0,-4266.0,-70.0,13.0,19.0,-6.0,17.0,3.0,9205.0,11540.0,4930.0,5122.0,-66.0,-15.0,-3.0,1.0
2022-05-06 12:46:16.575867-07:00,2277.6,720.8,1174.4,1515.3,950.0,1775.2,1347.6,1473.6,3438.2,3435.8,1390.3,1378.5,1458.0,3445.5,947.5,1438.7,3437.0,3440.7,687.2,1306.1,928.8,558.6,1984.6,1718.6,3444.3,3441.9,712.6,1414.0,1285.5,1506.0,1190.3,954.3,-2.0,-6.0,21.0,8116.0,11218.0,-7648.0,-4269.0,87.0,-43.0,15.0,-2.0,0.0,21.0,9217.0,11532.0,4924.0,5125.0,62.0,6.0,13.0,1.0
2022-05-06 12:46:16.577407-07:00,2279.6,710.1,1178.8,1515.3,945.8,1775.2,1347.6,1473.6,3435.8,3444.3,1404.9,1378.5,1453.4,3445.5,947.5,1438.7,3437.0,3440.7,687.2,1299.0,928.8,557.0,1985.6,1726.3,3444.3,3441.9,712.6,1409.4,1285.5,1507.8,1188.5,956.0,6.0,14.0,15.0,8073.0,11235.0,-7678.0,-4254.0,115.0,-39.0,5.0,-4.0,11.0,8.0,9195.0,11550.0,4929.0,5117.0,44.0,-12.0,10.0,1.0
2022-05-06 12:46:16.664424-07:00,2279.6,710.1,1178.8,1506.9,957.7,1756.0,1340.4,1473.6,3435.8,3444.3,1404.9,1388.5,1454.3,3445.5,956.8,1431.4,3438.2,3449.1,683.1,1310.6,927.9,557.0,1985.6,1726.3,3446.7,3446.7,712.6,1404.0,1281.9,1507.8,1188.5,956.0,-3.0,-6.0,7.0,8035.0,11249.0,-7699.0,-4251.0,142.0,-79.0,7.0,-5.0,-1.0,13.0,9188.0,11557.0,4932.0,5112.0,71.0,5.0,18.0,1.0
2022-05-06 12:46:16.694587-07:00,2268.3,724.9,1184.1,1506.0,957.7,1756.0,1340.4,1473.6,3444.3,3440.7,1393.9,1389.4,1454.3,3445.5,956.8,1431.4,3438.2,3449.1,683.1,1310.6,932.2,557.8,1977.6,1718.6,3446.7,3446.7,712.6,1404.0,1282.8,1509.7,1190.3,955.1,5.0,23.0,25.0,7990.0,11264.0,-7728.0,-4241.0,49.0,-7.0,-1.0,-5.0,22.0,5.0,9156.0,11579.0,4946.0,5104.0,8.0,-2.0,4.0,1.0
2022-05-06 12:46:16.724598-07:00,2268.3,724.9,1184.1,1506.0,955.1,1757.9,1344.0,1479.2,3444.3,3440.7,1393.9,1389.4,1450.6,3441.9,953.4,1436.0,3445.5,3451.6,676.6,1305.2,932.2,557.8,1977.6,1718.6,3449.1,3444.3,707.7,1396.7,1282.8,1509.7,1190.3,955.1,0.0,3.0,4.0,7995.0,11264.0,-7720.0,-4247.0,16.0,-7.0,-17.0,0.0,4.0,7.0,9163.0,11573.0,4945.0,5106.0,11.0,-1.0,-1.0,1.0
2022-05-06 12:46:16.785161-07:00,2268.3,719.2,1181.5,1504.1,955.1,1757.9,1344.0,1479.2,3438.2,3444.3,1383.9,1383.0,1450.6,3441.9,953.4,1436.0,3445.5,3451.6,676.6,1305.2,930.5,564.2,1970.7,1724.4,3449.1,3444.3,707.7,1396.7,1277.4,1502.3,1189.4,954.3,5.0,14.0,8.0,7996.0,11263.0,-7717.0,-4252.0,-40.0,8.0,-14.0,-3.0,17.0,7.0,9163.0,11574.0,4945.0,5106.0,-27.0,2.0,-9.0,1.0
2022-05-06 12:46:16.844678-07:00,2268.3,719.2,1181.5,1504.1,945.8,1752.1,1341.3,1474.6,3438.2,3444.3,1383.9,1383.0,1461.7,3441.9,944.9,1433.2,3446.7,3438.2,685.6,1304.3,930.5,564.2,1970.7,1724.4,3450.4,3431.0,705.2,1412.2,1277.4,1502.3,1189.4,954.3,0.0,17.0,11.0,8004.0,11267.0,-7702.0,-4256.0,-23.0,17.0,-25.0,-4.0,17.0,14.0,9168.0,11569.0,4950.0,5102.0,5.0,0.0,-29.0,1.0
2022-05-06 12:46:16.874439-07:00,2262.1,716.7,1181.5,1504.1,945.8,1752.1,1341.3,1466.3,3444.3,3444.3,1388.5,1380.3,1461.7,3441.9,944.9,1438.7,3440.7,3438.2,685.6,1304.3,934.7,558.6,1981.6,1722.4,3446.7,3431.0,705.2,1412.2,1272.1,1510.6,1186.7,959.4,-2.0,2.0,7.0,8026.0,11243.0,-7708.0,-4266.0,-116.0,-18.0,62.0,-10.0,12.0,4.0,9182.0,11558.0,4947.0,5104.0,-120.0,-20.0,2.0,1.0
2022-05-06 12:46:16.934710-07:00,2260.0,716.7,1181.5,1504.1,945.8,1733.0,1337.7,1466.3,3441.9,3444.3,1388.5,1380.3,1457.1,3438.2,953.4,1438.7,3440.7,3443.1,684.8,1303.4,934.7,558.6,1981.6,1730.1,3446.7,3454.0,703.6,1404.9,1272.1,1510.6,1186.7,955.1,-4.0,3.0,3.0,8038.0,11215.0,-7722.0,-4291.0,31.0,-93.0,19.0,-4.0,-5.0,13.0,9215.0,11539.0,4929.0,5108.0,1.0,-29.0,1.0,1.0
2022-05-06 12:46:17.024837-07:00,2260.0,710.1,1180.6,1507.8,945.8,1733.0,1337.7,1473.6,3441.9,3433.4,1387.5,1378.5,1457.1,3438.2,953.4,1433.2,3433.4,3443.1,684.8,1303.4,927.1,560.2,1968.7,1730.1,3449.1,3454.0,703.6,1404.9,1281.9,1505.1,1187.6,955.1,11.0,18.0,32.0,8046.0,11196.0,-7732.0,-4307.0,-110.0,18.0,8.0,-8.0,16.0,13.0,9222.0,11537.0,4926.0,5103.0,-91.0,-4.0,-17.0,1.0
2022-05-06 12:46:17.144606-07:00,2254.8,710.1,1180.6,1507.8,956.8,1732.0,1340.4,1473.6,3433.4,3433.4,1387.5,1378.5,1447.0,3438.2,946.6,1433.2,3433.4,3439.5,681.5,1305.2,927.1,560.2,1968.7,1726.3,3449.1,3449.1,708.5,1404.0,1281.9,1505.1,1187.6,957.7,6.0,0.0,10.0,8067.0,11182.0,-7720.0,-4325.0,17.0,-12.0,-28.0,-1.0,-4.0,6.0,9248.0,11515.0,4920.0,5110.0,17.0,-5.0,-9.0,1.0
2022-05-06 12:46:17.204771-07:00,2254.8,712.6,1185.0,1517.1,956.8,1732.0,1340.4,1461.7,3433.4,3441.9,1390.3,1382.1,1447.0,3438.2,946.6,1448.8,3433.4,3439.5,681.5,1305.2,933.0,563.4,1969.7,1726.3,3443.1,3449.1,708.5,1404.0,1270.3,1503.2,1190.3,957.7,-2.0,17.0,12.0,8056.0,11194.0,-7716.0,-4324.0,-7.0,5.0,-14.0,-10.0,24.0,17.0,9241.0,11520.0,4927.0,5106.0,-11.0,12.0,-12.0,1.0
2022-05-06 12:46:17.206080-07:00,2249.7,712.6,1185.0,1517.1,948.3,1729.1,1338.6,1461.7,3444.3,3441.9,1390.3,1382.1,1455.2,3435.8,953.4,1448.8,3433.4,3440.7,680.7,1299.0,933.0,563.4,1969.7,1727.2,3443.1,3440.7,708.5,1394.8,1270.3,1503.2,1190.3,954.3,2.0,12.0,2.0,8064.0,11190.0,-7709.0,-4331.0,-4.0,17.0,-37.0,-4.0,11.0,-1.0,9251.0,11510.0,4925.0,5111.0,-28.0,1.0,6.0,1.0
2022-05-06 12:46:17.206936-07:00,2249.7,724.1,1182.3,1510.6,948.3,1729.1,1338.6,1470.0,3444.3,3449.1,1386.6,1384.8,1455.2,3435.8,946.6,1436.9,3439.5,3435.8,680.7,1299.0,929.6,557.0,1965.7,1727.2,3454.0,3449.1,708.5,1394.8,1282.8,1510.6,1181.5,954.3,4.0,-9.0,8.0,8072.0,11189.0,-7692.0,-4349.0,-75.0,-11.0,-10.0,-3.0,7.0,9.0,9264.0,11499.0,4922.0,5114.0,-56.0,-5.0,-15.0,1.0
2022-05-06 12:46:17.235127-07:00,2259.0,715.9,1182.3,1510.6,943.2,1722.4,1338.6,1470.0,3439.5,3443.1,1386.6,1384.8,1454.3,3449.1,946.6,1436.9,3439.5,3435.8,682.3,1302.5,929.6,557.0,1964.7,1726.3,3454.0,3449.1,706.9,1396.7,1282.8,1510.6,1188.5,950.0,1.0,6.0,14.0,8087.0,11171.0,-7697.0,-4361.0,-45.0,-23.0,28.0,-8.0,1.0,6.0,9281.0,11487.0,4915.0,5118.0,-56.0,-16.0,8.0,1.0
2022-05-06 12:46:17.325155-07:00,2259.0,715.9,1183.2,1504.1,943.2,1722.4,1332.3,1465.4,3439.5,3443.1,1391.2,1387.5,1454.3,3449.1,945.8,1443.3,3433.4,3449.1,682.3,1302.5,927.1,561.8,1964.7,1726.3,3435.8,3433.4,706.9,1396.7,1281.0,1507.8,1188.5,950.0,4.0,7.0,17.0,8082.0,11166.0,-7703.0,-4370.0,11.0,-36.0,6.0,0.0,12.0,12.0,9291.0,11482.0,4908.0,5117.0,2.0,3.0,-6.0,1.0
2022-05-06 12:46:17.505186-07:00,2237.3,715.1,1183.2,1504.1,939.0,1712.9,1332.3,1465.4,3439.5,3434.6,1391.2,1387.5,1458.0,3439.5,945.8,1443.3,3433.4,3449.1,680.7,1304.3,927.1,561.8,1954.8,1717.7,3435.8,3433.4,711.0,1389.4,1281.0,1507.8,1190.3,950.0,-2.0,16.0,9.0,8086.0,11156.0,-7713.0,-4370.0,-16.0,-20.0,21.0,-5.0,9.0,5.0,9291.0,11482.0,4908.0,5117.0,0.0,3.0,-3.0,1.0
2022-05-06 12:46:17.506798-07:00,2237.3,715.1,1179.7,1507.8,939.0,1712.9,1334.1,1470.9,3439.5,3434.6,1383.0,1381.2,1458.0,3439.5,951.7,1436.0,3437.0,3440.7,680.7,1304.3,931.3,561.8,1954.8,1717.7,3437.0,3451.6,711.0,1389.4,1291.8,1505.1,1190.3,950.0,6.0,1.0,20.0,8089.0,11157.0,-7705.0,-4376.0,8.0,23.0,-23.0,-3.0,7.0,14.0,9290.0,11483.0,4908.0,5117.0,11.0,3.0,-5.0,1.0
2022-05-06 12:46:17.534567-07:00,2256.9,715.9,1174.4,1507.8,949.2,1713.8,1334.1,1470.9,3443.1,3438.2,1383.0,1381.2,1451.6,3439.5,951.7,1436.0,3437.0,3440.7,679.1,1304.3,931.3,563.4,1956.8,1725.3,3437.0,3451.6,711.0,1393.9,1291.8,1505.1,1188.5,969.6,-1.0,-7.0,10.0,8096.0,11158.0,-7700.0,-4370.0,17.0,12.0,27.0,-5.0,0.0,10.0,9288.0,11483.0,4910.0,5119.0,24.0,19.0,11.0,1.0
2022-05-06 12:46:17.564561-07:00,2256.9,715.9,1174.4,1506.0,949.2,1714.8,1329.6,1458.0,3443.1,3438.2,1383.0,1386.6,1451.6,3432.2,945.8,1434.1,3440.7,3438.2,683.1,1304.3,925.4,563.4,1956.8,1725.3,3443.1,3443.1,710.1,1393.9,1278.3,1505.1,1188.5,969.6,-1.0,20.0,-6.0,8090.0,11161.0,-7711.0,-4355.0,33.0,-22.0,9.0,-6.0,15.0,12.0,9276.0,11490.0,4914.0,5122.0,27.0,1.0,4.0,1.0
2022-05-06 12:46:17.566099-07:00,2254.8,718.4,1181.5,1506.0,950.9,1714.8,1329.6,1458.0,3435.8,3438.2,1382.1,1386.6,1459.8,3432.2,945.8,1434.1,3440.7,3438.2,683.1,1305.2,925.4,558.6,1943.0,1722.4,3443.1,3443.1,710.1,1382.1,1278.3,1507.8,1189.4,956.0,0.0,0.0,10.0,8083.0,11161.0,-7715.0,-4359.0,-13.0,-22.0,2.0,-3.0,8.0,16.0,9275.0,11491.0,4915.0,5121.0,-8.0,-5.0,-7.0,1.0
2022-05-06 12:46:17.594523-07:00,2254.8,718.4,1181.5,1507.8,950.9,1712.9,1335.0,1455.2,3435.8,3438.2,1382.1,1383.0,1459.8,3449.1,943.2,1438.7,3444.3,3438.2,684.8,1305.2,930.5,558.6,1943.0,1722.4,3438.2,3443.1,708.5,1382.1,1280.1,1507.8,1189.4,956.0,-2.0,6.0,7.0,8081.0,11154.0,-7725.0,-4365.0,10.0,-26.0,14.0,-9.0,12.0,12.0,9273.0,11492.0,4916.0,5120.0,-6.0,-5.0,4.0,1.0
2022-05-06 12:46:17.744580-07:00,2249.7,722.5,1179.7,1507.8,948.3,1712.9,1335.0,1455.2,3439.5,3432.2,1382.1,1383.0,1454.3,3449.1,943.2,1438.7,3444.3,3438.2,684.8,1308.8,930.5,561.8,1940.0,1716.7,3438.2,3443.1,708.5,1390.3,1280.1,1508.8,1189.4,957.7,0.0,23.0,10.0,8077.0,11151.0,-7732.0,-4367.0,-40.0,4.0,6.0,-4.0,12.0,10.0,9273.0,11492.0,4916.0,5120.0,-12.0,12.0,6.0,1.0
2022-05-06 12:46:17.746200-07:00,2249.7,722.5,1179.7,1508.8,952.6,1711.0,1321.4,1470.9,3439.5,3432.2,1382.1,1383.9,1461.7,3444.3,939.0,1438.7,3441.9,3429.8,684.0,1302.5,930.5,561.8,1940.0,1716.7,3437.0,3435.8,712.6,1382.1,1278.3,1508.8,1189.4,957.7,0.0,-3.0,9.0,8092.0,11137.0,-7731.0,-4375.0,7.0,-17.0,37.0,-6.0,7.0,14.0,9281.0,11485.0,4913.0,5124.0,-4.0,-7.0,2.0,1.0
2022-05-06 12:46:17.747129-07:00,2246.6,711.0,1176.2,1511.5,952.6,1711.0,1321.4,1470.9,3441.9,3452.8,1380.3,1381.2,1461.7,3444.3,939.0,1438.7,3441.9,3429.8,684.0,1302.5,929.6,561.0,1937.1,1713.8,3437.0,3435.8,712.6,1382.1,1275.6,1508.8,1184.1,950.9,6.0,20.0,12.0,8088.0,11130.0,-7745.0,-4377.0,-3.0,-2.0,-15.0,-5.0,6.0,2.0,9279.0,11486.0,4914.0,5123.0,7.0,-4.0,0.0,1.0
2022-05-06 12:46:17.774996-07:00,2246.6,711.0,1176.2,1511.5,944.1,1700.5,1325.9,1459.8,3441.9,3452.8,1380.3,1381.2,1450.6,3437.0,947.5,1435.0,3438.2,3438.2,679.1,1300.7,929.6,561.0,1937.1,1713.8,3445.5,3449.1,709.3,1380.3,1275.6,1508.8,1184.1,950.9,-3.0,-11.0,11.0,8095.0,11132.0,-7735.0,-4375.0,36.0,18.0,14.0,-3.0,1.0,22.0,9280.0,11486.0,4913.0,5124.0,9.0,8.0,3.0,1.0
2022-05-06 12:46:17.834604-07:00,2236.3,715.9,1177.9,1499.5,944.1,1700.5,1325.9,1459.8,3437.0,3438.2,1373.0,1381.2,1450.6,3437.0,947.5,1435.0,3438.2,3438.2,679.1,1300.7,933.0,557.0,1935.1,1714.8,3445.5,3449.1,709.3,1380.3,1276.5,1499.5,1187.6,951.7,6.0,23.0,12.0,8075.0,11140.0,-7749.0,-4366.0,40.0,-10.0,-14.0,-7.0,21.0,4.0,9270.0,11493.0,4919.0,5121.0,37.0,7.0,-1.0,1.0
2022-05-06 12:46:17.894530-07:00,2236.3,715.9,1177.9,1499.5,948.3,1702.4,1323.2,1451.6,3437.0,3438.2,1373.0,1381.2,1451.6,3440.7,949.2,1436.0,3446.7,3434.6,683.1,1300.7,933.0,557.0,1935.1,1714.8,3445.5,3438.2,711.0,1377.5,1276.5,1499.5,1187.6,951.7,-1.0,7.0,10.0,8087.0,11138.0,-7742.0,-4365.0,-56.0,48.0,15.0,-4.0,7.0,15.0,9271.0,11492.0,4918.0,5121.0,-46.0,0.0,2.0,1.0
2022-05-06 12:46:18.014539-07:00,2238.4,714.2,1178.8,1509.7,948.3,1702.4,1323.2,1451.6,3433.4,3444.3,1375.7,1388.5,1451.6,3440.7,949.2,1436.0,3446.7,3434.6,683.1,1300.7,933.0,557.0,1936.1,1718.6,3445.5,3438.2,711.0,1377.5,1281.9,1511.5,1185.9,949.2,-2.0,7.0,5.0,8092.0,11139.0,-7739.0,-4357.0,99.0,-36.0,-19.0,-6.0,7.0,20.0,9277.0,11487.0,4916.0,5124.0,48.0,6.0,3.0,1.0
2022-05-06 12:46:18.016160-07:00,2229.1,714.2,1178.8,1509.7,944.9,1695.7,1325.9,1458.0,3449.1,3444.3,1375.7,1388.5,1456.2,3443.1,946.6,1436.0,3438.2,3433.4,681.5,1298.1,933.0,557.0,1936.1,1723.4,3445.5,3445.5,707.7,1367.6,1281.9,1511.5,1185.9,953.4,2.0,-1.0,18.0,8047.0,11155.0,-7766.0,-4353.0,52.0,-50.0,64.0,-8.0,14.0,4.0,9261.0,11498.0,4924.0,5120.0,2.0,11.0,7.0,1.0
2022-05-06 12:46:18.044611-07:00,2229.1,712.6,1180.6,1507.8,944.9,1695.7,1325.9,1440.5,3449.1,3440.7,1379.4,1383.9,1456.2,3443.1,946.6,1431.4,3437.0,3433.4,681.5,1298.1,927.1,561.8,1934.1,1723.4,3445.5,3445.5,707.7,1367.6,1281.0,1510.6,1190.3,953.4,11.0,29.0,1.0,8024.0,11157.0,-7797.0,-4334.0,161.0,-32.0,-10.0,-6.0,1.0,6.0,9257.0,11500.0,4921.0,5126.0,94.0,13.0,19.0,1.0
2022-05-06 12:46:18.074719-07:00,2241.4,712.6,1180.6,1507.8,944.9,1705.3,1325.0,1440.5,3428.6,3440.7,1379.4,1383.9,1461.7,3449.1,950.9,1431.4,3437.0,3445.5,686.4,1307.9,927.1,561.8,1934.1,1719.6,3445.5,3439.5,710.1,1367.6,1281.0,1510.6,1190.3,950.9,8.0,9.0,17.0,7975.0,11183.0,-7816.0,-4322.0,-7.0,8.0,14.0,-4.0,15.0,9.0,9226.0,11520.0,4937.0,5120.0,7.0,8.0,-10.0,1.0
2022-05-06 12:46:18.164575-07:00,2241.4,711.0,1178.8,1507.8,944.9,1705.3,1325.0,1447.0,3428.6,3437.0,1398.5,1397.6,1461.7,3449.1,950.9,1432.3,3433.4,3445.5,686.4,1307.9,927.1,556.2,1930.2,1719.6,3443.1,3439.5,710.1,1367.6,1279.2,1511.5,1184.1,950.9,5.0,18.0,3.0,7988.0,11175.0,-7816.0,-4318.0,-8.0,13.0,9.0,-4.0,8.0,3.0,9230.0,11517.0,4937.0,5121.0,16.0,-5.0,3.0,1.0
2022-05-06 12:46:18.225429-07:00,2239.4,711.0,1178.8,1507.8,950.0,1694.8,1324.1,1447.0,3449.1,3437.0,1398.5,1397.6,1464.4,3449.1,948.3,1432.3,3433.4,3433.4,681.5,1302.5,927.1,556.2,1930.2,1724.4,3443.1,3440.7,713.4,1366.6,1279.2,1511.5,1184.1,960.2,3.0,3.0,8.0,7992.0,11186.0,-7799.0,-4316.0,-58.0,77.0,-32.0,-2.0,5.0,9.0,9227.0,11519.0,4940.0,5118.0,-21.0,5.0,-15.0,1.0
2022-05-06 12:46:18.255367-07:00,2239.4,711.8,1178.8,1509.7,950.0,1694.8,1316.9,1446.0,3449.1,3443.1,1378.5,1384.8,1464.4,3449.1,961.1,1435.0,3435.8,3444.3,681.5,1302.5,926.2,563.4,1915.4,1724.4,3439.5,3440.7,713.4,1366.6,1285.5,1507.8,1188.5,960.2,0.0,0.0,2.0,8011.0,11181.0,-7784.0,-4318.0,-8.0,-4.0,8.0,-5.0,-1.0,3.0,9235.0,11512.0,4941.0,5118.0,22.0,-9.0,1.0,1.0
2022-05-06 12:46:18.284603-07:00,2237.3,707.7,1178.8,1509.7,953.4,1701.4,1316.9,1446.0,3441.9,3441.9,1378.5,1384.8,1459.8,3446.7,961.1,1435.0,3435.8,3444.3,684.8,1299.0,926.2,563.4,1917.4,1721.5,3439.5,3440.7,708.5,1358.5,1285.5,1507.8,1185.0,946.6,5.0,-1.0,11.0,7979.0,11193.0,-7807.0,-4306.0,145.0,-63.0,46.0,-4.0,18.0,7.0,9211.0,11532.0,4952.0,5108.0,122.0,3.0,6.0,1.0
2022-05-06 12:46:18.344619-07:00,2237.3,707.7,1174.4,1506.0,953.4,1701.4,1327.8,1453.4,3441.9,3441.9,1373.0,1389.4,1459.8,3446.7,951.7,1435.0,3443.1,3435.8,684.8,1299.0,924.5,557.0,1917.4,1721.5,3443.1,3446.7,708.5,1358.5,1273.9,1505.1,1185.0,946.6,-2.0,-7.0,-3.0,7977.0,11183.0,-7825.0,-4302.0,-105.0,-10.0,28.0,3.0,-6.0,13.0,9206.0,11537.0,4954.0,5105.0,-91.0,-10.0,3.0,1.0
2022-05-06 12:46:18.584487-07:00,2233.2,706.9,1174.4,1506.0,942.4,1691.9,1327.8,1453.4,3437.0,3432.2,1373.0,1389.4,1455.2,3443.1,951.7,1435.0,3443.1,3435.8,682.3,1307.0,924.5,557.0,1920.3,1726.3,3443.1,3446.7,715.9,1358.5,1273.9,1505.1,1185.9,949.2,7.0,26.0,18.0,7961.0,11166.0,-7857.0,-4318.0,81.0,-102.0,39.0,-5.0,18.0,3.0,9208.0,11535.0,4952.0,5104.0,44.0,-14.0,6.0,1.0
2022-05-06 12:46:18.585706-07:00,2233.2,706.9,1188.5,1506.0,942.4,1691.9,1316.9,1438.7,3437.0,3432.2,1372.1,1386.6,1455.2,3443.1,941.5,1424.1,3437.0,3438.2,682.3,1307.0,933.0,557.0,1920.3,1726.3,3428.6,3444.3,715.9,1358.5,1275.6,1507.8,1185.9,949.2,-2.0,9.0,10.0,7976.0,11157.0,-7846.0,-4333.0,-124.0,35.0,-50.0,-4.0,-1.0,31.0,9223.0,11525.0,4944.0,5107.0,-115.0,-6.0,-14.0,1.0
2022-05-06 12:46:18.587025-07:00,2228.1,712.6,1178.8,1506.0,950.9,1695.7,1316.9,1438.7,3433.4,3449.1,1382.1,1386.6,1458.9,3440.7,941.5,1424.1,3437.0,3438.2,683.1,1307.9,933.0,562.6,1916.4,1711.9,3428.6,3444.3,715.9,1354.9,1275.6,1510.6,1188.5,956.0,10.0,13.0,19.0,7971.0,11162.0,-7836.0,-4346.0,44.0,-21.0,-5.0,-1.0,25.0,4.0,9229.0,11521.0,4946.0,5106.0,-2.0,3.0,-9.0,1.0
2022-05-06 12:46:18.588521-07:00,2228.1,712.6,1178.8,1506.0,950.9,1688.1,1309.7,1446.0,3433.4,3449.1,1382.1,1383.0,1458.9,3439.5,950.0,1437.8,3444.3,3435.8,682.3,1307.9,928.8,562.6,1916.4,1711.9,3443.1,3438.2,716.7,1354.9,1282.8,1510.6,1188.5,956.0,0.0,7.0,5.0,8036.0,11125.0,-7818.0,-4357.0,-309.0,96.0,40.0,-14.0,4.0,-11.0,9277.0,11484.0,4922.0,5123.0,-295.0,-34.0,1.0,1.0
2022-05-06 12:46:18.590004-07:00,2237.3,717.5,1185.0,1506.0,945.8,1688.1,1309.7,1446.0,3438.2,3437.0,1376.6,1383.0,1459.8,3439.5,950.0,1437.8,3444.3,3435.8,682.3,1301.6,928.8,559.4,1950.9,1717.7,3443.1,3438.2,716.7,1354.9,1282.8,1504.1,1196.5,955.1,33.0,70.0,163.0,8170.0,11142.0,-7713.0,-4248.0,18.0,924.0,5.0,-15.0,10.0,9.0,9347.0,11444.0,4870.0,5136.0,-306.0,-102.0,84.0,1.0
2022-05-06 12:46:18.644597-07:00,2237.3,717.5,1185.0,1507.8,945.8,1849.8,1393.0,1523.6,3438.2,3437.0,1376.6,1383.9,1459.8,3441.9,939.0,1434.1,3439.5,3444.3,682.3,1301.6,924.5,559.4,1950.9,1717.7,3451.6,3445.5,704.4,1354.9,1278.3,1504.1,1196.5,955.1,-9.0,37.0,-46.0,8527.0,11278.0,-7285.0,-3934.0,-632.0,1391.0,-438.0,-3.0,-32.0,52.0,9537.0,11310.0,4738.0,5207.0,-876.0,-61.0,70.0,1.0
2022-05-06 12:46:18.675056-07:00,2340.0,742.2,1177.9,1507.8,947.5,1849.8,1393.0,1523.6,3449.1,3438.2,1436.9,1383.9,1451.6,3441.9,939.0,1434.1,3439.5,3444.3,682.3,1307.0,924.5,557.0,2426.1,1726.3,3451.6,3445.5,704.4,1709.1,1278.3,1509.7,1177.9,954.3,25.0,26.0,-8.0,8692.0,11497.0,-6815.0,-3774.0,355.0,996.0,-885.0,20.0,-6.0,26.0,9638.0,11238.0,4678.0,5231.0,65.0,-58.0,-40.0,1.0
2022-05-06 12:46:18.825203-07:00,2340.0,742.2,1177.9,1499.5,947.5,1581.4,1691.0,2213.7,3449.1,3438.2,1436.9,1385.7,1451.6,3450.4,944.9,1436.9,3439.5,3433.4,683.1,1307.0,922.0,557.0,2426.1,1726.3,3440.7,3441.9,698.7,1709.1,1281.0,1509.7,1177.9,954.3,1.0,25.0,-53.0,8499.0,11885.0,-6427.0,-3695.0,618.0,193.0,-1014.0,11.0,17.0,-7.0,9581.0,11283.0,4742.0,5181.0,272.0,49.0,-155.0,1.0
2022-05-06 12:46:18.826269-07:00,2329.5,730.7,1185.9,1507.8,938.1,1581.4,1691.0,2213.7,3446.7,3438.2,1502.3,1382.1,1457.1,3450.4,944.9,1436.9,3439.5,3433.4,683.1,1309.7,918.6,554.6,1944.0,1733.9,3440.7,3441.9,698.7,1475.5,1278.3,1505.1,1181.5,957.7,-4.0,-47.0,-16.0,8199.0,12161.0,-6210.0,-3842.0,581.0,-289.0,-815.0,0.0,17.0,9.0,9503.0,11338.0,4848.0,5105.0,371.0,25.0,-177.0,1.0
2022-05-06 12:46:18.827373-07:00,2329.5,730.7,1185.9,1507.8,946.6,1515.3,1827.5,2368.2,3446.7,3438.2,1502.3,1382.1,1458.0,3437.0,944.9,1435.0,3440.7,3450.4,688.9,1307.0,918.6,554.6,1944.0,1733.9,3454.0,3444.3,701.9,1373.0,1278.3,1505.1,1181.5,957.7,14.0,0.0,39.0,8016.0,12272.0,-6125.0,-4007.0,-51.0,-175.0,-422.0,-14.0,17.0,3.0,9472.0,11366.0,4902.0,5049.0,-75.0,-26.0,-74.0,1.0
2022-05-06 12:46:18.884613-07:00,2279.6,718.4,1174.4,1504.1,946.6,1515.3,1827.5,2368.2,3443.1,3441.9,1494.0,1378.5,1458.0,3437.0,944.9,1435.0,3440.7,3450.4,688.9,1307.0,921.1,551.4,1833.3,1717.7,3454.0,3444.3,701.9,1373.0,1274.7,1504.1,1187.6,958.5,16.0,-3.0,46.0,7956.0,12316.0,-6013.0,-4161.0,71.0,-208.0,-466.0,6.0,12.0,22.0,9512.0,11334.0,4901.0,5047.0,11.0,-2.0,-56.0,1.0
2022-05-06 12:46:18.914800-07:00,2279.6,718.4,1174.4,1504.1,945.8,1502.3,1826.5,2284.8,3443.1,3441.9,1494.0,1378.5,1458.9,3444.3,945.8,1434.1,3438.2,3439.5,686.4,1308.8,921.1,551.4,1833.3,1717.7,3440.7,3449.1,692.9,1339.5,1274.7,1504.1,1187.6,958.5,20.0,-21.0,50.0,7892.0,12368.0,-5925.0,-4250.0,-5.0,44.0,-206.0,3.0,13.0,17.0,9521.0,11325.0,4918.0,5034.0,-23.0,5.0,-51.0,1.0
2022-05-06 12:46:19.034703-07:00,2251.7,712.6,1185.9,1511.5,945.8,1502.3,1826.5,2284.8,3444.3,3450.4,1494.0,1390.3,1458.9,3444.3,945.8,1434.1,3438.2,3439.5,686.4,1308.8,927.1,556.2,1761.8,1720.5,3440.7,3449.1,692.9,1339.5,1278.3,1498.6,1190.3,981.6,0.0,-12.0,1.0,7932.0,12379.0,-5861.0,-4234.0,-46.0,97.0,-43.0,-6.0,-5.0,20.0,9542.0,11302.0,4925.0,5040.0,-27.0,30.0,-16.0,1.0
2022-05-06 12:46:19.035823-07:00,2229.1,712.6,1185.9,1511.5,948.3,1481.9,1795.5,2208.6,3432.2,3450.4,1494.0,1390.3,1452.5,3444.3,941.5,1439.6,3449.1,3444.3,682.3,1295.4,927.1,556.2,1761.8,1729.1,3451.6,3443.1,698.7,1324.1,1278.3,1498.6,1190.3,979.9,4.0,10.0,-5.0,7915.0,12396.0,-5862.0,-4216.0,104.0,0.0,21.0,-6.0,23.0,-4.0,9522.0,11313.0,4940.0,5037.0,94.0,10.0,11.0,1.0
2022-05-06 12:46:19.094613-07:00,2229.1,704.4,1173.5,1507.8,948.3,1481.9,1795.5,2182.0,3432.2,3439.5,1493.0,1390.3,1452.5,3444.3,941.5,1439.6,3434.6,3444.3,682.3,1295.4,923.7,557.0,1732.0,1729.1,3438.2,3443.1,698.7,1324.1,1275.6,1510.6,1186.7,979.9,-1.0,12.0,6.0,7932.0,12386.0,-5857.0,-4221.0,-123.0,-9.0,-7.0,-2.0,3.0,20.0,9538.0,11301.0,4931.0,5043.0,-116.0,-10.0,5.0,1.0
2022-05-06 12:46:19.124864-07:00,2214.7,704.4,1173.5,1507.8,944.9,1472.7,1775.2,2182.0,3440.7,3439.5,1493.0,1390.3,1452.5,3435.8,940.7,1439.6,3434.6,3444.3,683.1,1308.8,923.7,557.0,1732.0,1718.6,3438.2,3447.9,695.4,1299.8,1275.6,1510.6,1186.7,985.0,6.0,-12.0,16.0,7949.0,12364.0,-5861.0,-4247.0,29.0,-48.0,15.0,0.0,5.0,9.0,9562.0,11283.0,4920.0,5049.0,20.0,-16.0,4.0,1.0
2022-05-06 12:46:19.184607-07:00,2214.7,696.2,1170.9,1496.7,944.9,1472.7,1775.2,2147.3,3440.7,3446.7,1487.5,1386.6,1452.5,3435.8,940.7,1435.0,3441.9,3444.3,683.1,1308.8,920.3,553.0,1712.9,1718.6,3438.2,3447.9,695.4,1299.8,1274.7,1506.9,1193.8,985.0,-2.0,17.0,32.0,7956.0,12366.0,-5848.0,-4247.0,-65.0,68.0,-60.0,-3.0,5.0,34.0,9567.0,11280.0,4917.0,5050.0,-60.0,11.0,-7.0,1.0
2022-05-06 12:46:19.214741-07:00,2202.4,696.2,1170.9,1496.7,952.6,1464.4,1758.9,2147.3,3443.1,3446.7,1487.5,1386.6,1456.2,3439.5,947.5,1435.0,3441.9,3434.6,683.1,1304.3,920.3,553.0,1712.9,1721.5,3438.2,3443.1,694.6,1281.9,1274.7,1506.9,1193.8,989.3,-3.0,-15.0,5.0,7947.0,12380.0,-5839.0,-4234.0,119.0,5.0,23.0,-6.0,3.0,6.0,9559.0,11281.0,4928.0,5051.0,111.0,19.0,-2.0,1.0
2022-05-06 12:46:19.274816-07:00,2202.4,695.4,1179.7,1510.6,952.6,1464.4,1749.3,2136.1,3443.1,3440.7,1486.6,1384.8,1456.2,3439.5,939.0,1433.2,3443.1,3443.1,683.1,1304.3,914.4,554.6,1696.7,1721.5,3454.0,3444.3,694.6,1281.9,1275.6,1510.6,1185.9,989.3,7.0,11.0,5.0,7940.0,12382.0,-5849.0,-4225.0,-58.0,10.0,8.0,-4.0,4.0,6.0,9552.0,11286.0,4930.0,5050.0,-66.0,-4.0,13.0,1.0
2022-05-06 12:46:19.364660-07:00,2194.2,690.5,1179.7,1510.6,950.9,1460.8,1749.3,2136.1,3443.1,3440.7,1486.6,1384.8,1456.2,3450.4,939.0,1433.2,3443.1,3443.1,679.1,1302.5,914.4,554.6,1684.3,1717.7,3454.0,3444.3,690.5,1281.9,1275.6,1510.6,1186.7,991.0,0.0,17.0,13.0,7945.0,12380.0,-5844.0,-4231.0,35.0,-31.0,-21.0,-2.0,13.0,16.0,9558.0,11282.0,4927.0,5053.0,29.0,-1.0,-2.0,1.0
2022-05-06 12:46:19.366281-07:00,2194.2,690.5,1172.6,1506.9,950.9,1460.8,1733.0,2129.0,3443.1,3440.7,1485.6,1385.7,1456.2,3450.4,940.7,1436.9,3439.5,3428.6,679.1,1302.5,916.9,551.4,1684.3,1717.7,3438.2,3438.2,690.5,1281.9,1276.5,1507.8,1186.7,991.0,7.0,8.0,17.0,7957.0,12369.0,-5845.0,-4239.0,-76.0,14.0,22.0,-1.0,1.0,12.0,9566.0,11274.0,4924.0,5056.0,-62.0,-6.0,6.0,1.0
2022-05-06 12:46:19.424934-07:00,2186.0,691.3,1172.6,1506.9,944.9,1457.1,1733.0,2129.0,3433.4,3444.3,1485.6,1385.7,1459.8,3444.3,940.7,1436.9,3439.5,3428.6,683.1,1305.2,916.9,551.4,1678.6,1718.6,3438.2,3438.2,687.2,1270.3,1276.5,1507.8,1185.9,979.9,1.0,8.0,11.0,7972.0,12360.0,-5839.0,-4244.0,12.0,-9.0,-26.0,-3.0,0.0,12.0,9576.0,11267.0,4920.0,5060.0,13.0,4.0,-6.0,1.0
2022-05-06 12:46:19.544631-07:00,2186.0,691.3,1170.0,1510.6,944.9,1457.1,1736.8,2115.9,3433.4,3444.3,1486.6,1381.2,1459.8,3444.3,946.6,1435.0,3432.2,3445.5,683.1,1305.2,917.7,551.4,1678.6,1718.6,3434.6,3445.5,687.2,1270.3,1281.9,1511.5,1185.9,979.9,1.0,15.0,14.0,7962.0,12370.0,-5830.0,-4248.0,3.0,-1.0,-30.0,-5.0,19.0,12.0,9570.0,11269.0,4927.0,5059.0,-8.0,1.0,-10.0,1.0
2022-05-06 12:46:19.545743-07:00,2183.0,688.9,1170.0,1510.6,936.4,1456.2,1736.8,2115.9,3439.5,3440.7,1486.6,1381.2,1456.2,3435.8,946.6,1435.0,3432.2,3445.5,694.6,1302.5,917.7,551.4,1666.3,1721.5,3434.6,3445.5,685.6,1266.7,1281.9,1511.5,1181.5,981.6,4.0,-6.0,10.0,7977.0,12361.0,-5820.0,-4258.0,-33.0,-2.0,-1.0,-3.0,3.0,5.0,9581.0,11259.0,4923.0,5063.0,-13.0,-5.0,0.0,1.0
2022-05-06 12:46:19.604251-07:00,2183.0,688.9,1175.3,1499.5,936.4,1433.2,1721.5,2102.7,3439.5,3440.7,1483.8,1385.7,1456.2,3435.8,949.2,1439.6,3440.7,3439.5,684.0,1302.5,918.6,553.8,1666.3,1721.5,3443.1,3452.8,692.1,1266.7,1273.9,1502.3,1181.5,981.6,2.0,18.0,15.0,7969.0,12366.0,-5821.0,-4259.0,68.0,-16.0,-32.0,-3.0,5.0,12.0,9572.0,11267.0,4928.0,5058.0,68.0,8.0,4.0,1.0
2022-05-06 12:46:19.634601-07:00,2179.9,689.7,1170.9,1499.5,946.6,1433.2,1721.5,2102.7,3438.2,3440.7,1486.6,1385.7,1450.6,3435.8,949.2,1439.6,3440.7,3439.5,684.0,1304.3,918.6,556.2,1647.3,1721.5,3443.1,3452.8,692.1,1264.0,1273.9,1504.1,1187.6,987.6,2.0,1.0,22.0,7965.0,12371.0,-5815.0,-4259.0,-14.0,29.0,11.0,-3.0,8.0,15.0,9567.0,11269.0,4933.0,5058.0,-9.0,5.0,0.0,1.0
2022-05-06 12:46:19.694689-07:00,2179.9,689.7,1170.9,1499.5,946.6,1442.4,1720.5,2092.6,3438.2,3440.7,1486.6,1383.0,1450.6,3446.7,943.2,1443.3,3433.4,3435.8,685.6,1304.3,921.1,556.2,1647.3,1721.5,3445.5,3438.2,689.7,1264.0,1278.3,1504.1,1187.6,987.6,7.0,-11.0,8.0,7981.0,12362.0,-5817.0,-4252.0,13.0,14.0,16.0,-6.0,-1.0,9.0,9573.0,11264.0,4930.0,5061.0,25.0,5.0,8.0,1.0
2022-05-06 12:46:19.724996-07:00,2162.6,685.6,1177.0,1499.5,953.4,1442.4,1720.5,2092.6,3454.0,3439.5,1485.6,1383.0,1456.2,3446.7,943.2,1443.3,3433.4,3435.8,685.6,1295.4,921.1,553.8,1638.8,1715.8,3445.5,3438.2,689.7,1256.0,1278.3,1506.0,1175.3,987.6,4.0,2.0,22.0,7974.0,12369.0,-5817.0,-4247.0,-22.0,13.0,-19.0,0.0,-4.0,16.0,9566.0,11270.0,4934.0,5057.0,-13.0,4.0,-3.0,1.0
2022-05-06 12:46:19.814557-07:00,2162.6,685.6,1177.0,1506.0,953.4,1435.0,1711.0,2081.6,3454.0,3439.5,1485.6,1382.1,1456.2,3447.9,940.7,1439.6,3438.2,3433.4,680.7,1295.4,919.4,553.8,1638.8,1715.8,3441.9,3437.0,691.3,1256.0,1275.6,1506.0,1175.3,987.6,0.0,12.0,11.0,7976.0,12370.0,-5815.0,-4240.0,13.0,3.0,32.0,-5.0,10.0,6.0,9566.0,11270.0,4934.0,5057.0,8.0,3.0,5.0,1.0
2022-05-06 12:46:19.935348-07:00,2155.5,679.1,1175.3,1495.8,946.6,1435.0,1711.0,2081.6,3444.3,3439.5,1482.9,1380.3,1449.7,3447.9,940.7,1439.6,3438.2,3433.4,680.7,1303.4,916.0,557.0,1634.1,1718.6,3441.9,3437.0,691.3,1256.9,1274.7,1508.8,1193.8,981.6,1.0,3.0,6.0,7980.0,12366.0,-5820.0,-4239.0,-5.0,-23.0,-6.0,-2.0,5.0,7.0,9567.0,11269.0,4934.0,5057.0,10.0,1.0,0.0,1.0
2022-05-06 12:46:19.936805-07:00,2155.5,679.1,1175.3,1495.8,944.1,1437.8,1728.2,2074.5,3444.3,3439.5,1482.9,1380.3,1449.7,3444.3,953.4,1433.2,3439.5,3441.9,682.3,1294.5,916.0,557.0,1634.1,1718.6,3446.7,3449.1,689.7,1240.8,1274.7,1508.8,1193.8,981.6,0.0,6.0,12.0,7982.0,12362.0,-5824.0,-4242.0,-3.0,8.0,21.0,-2.0,2.0,12.0,9567.0,11269.0,4933.0,5058.0,-4.0,1.0,9.0,1.0
2022-05-06 12:46:19.937736-07:00,2152.4,679.1,1169.1,1503.2,944.1,1437.8,1728.2,2074.5,3441.9,3438.2,1466.3,1379.4,1449.7,3444.3,953.4,1433.2,3439.5,3441.9,682.3,1294.5,916.0,552.2,1631.3,1717.7,3446.7,3449.1,689.7,1240.8,1277.4,1502.3,1181.5,985.0,0.0,14.0,13.0,7983.0,12358.0,-5832.0,-4240.0,-6.0,-20.0,17.0,-6.0,12.0,9.0,9566.0,11270.0,4935.0,5057.0,20.0,-6.0,-1.0,1.0
2022-05-06 12:46:19.964796-07:00,2152.4,679.1,1169.1,1503.2,945.8,1436.0,1711.0,2059.4,3441.9,3438.2,1466.3,1379.4,1451.6,3433.4,949.2,1436.9,3444.3,3433.4,679.1,1299.0,916.0,552.2,1631.3,1717.7,3445.5,3444.3,686.4,1244.4,1277.4,1502.3,1181.5,985.0,-1.0,-6.0,18.0,8007.0,12344.0,-5829.0,-4241.0,-44.0,42.0,24.0,-3.0,-3.0,10.0,9578.0,11260.0,4930.0,5061.0,-42.0,1.0,6.0,1.0
2022-05-06 12:46:20.024949-07:00,2154.4,678.2,1176.2,1507.8,945.8,1436.0,1711.0,2059.4,3445.5,3446.7,1475.5,1379.4,1451.6,3433.4,949.2,1436.9,3444.3,3433.4,679.1,1299.0,916.9,552.2,1627.5,1726.3,3445.5,3444.3,686.4,1244.4,1277.4,1500.4,1185.9,983.3,2.0,7.0,7.0,8014.0,12343.0,-5828.0,-4229.0,-7.0,3.0,5.0,-1.0,3.0,14.0,9575.0,11262.0,4931.0,5062.0,5.0,1.0,-1.0,1.0
2022-05-06 12:46:20.084586-07:00,2144.3,678.2,1176.2,1507.8,948.3,1435.0,1704.3,2066.5,3441.9,3446.7,1475.5,1379.4,1454.3,3431.0,952.6,1433.2,3431.0,3439.5,678.2,1310.6,916.9,552.2,1627.5,1711.9,3438.2,3450.4,692.1,1246.2,1277.4,1500.4,1185.9,981.6,1.0,7.0,14.0,8019.0,12338.0,-5831.0,-4233.0,-38.0,-17.0,20.0,-4.0,6.0,9.0,9577.0,11259.0,4931.0,5062.0,-22.0,-8.0,0.0,1.0
2022-05-06 12:46:20.204682-07:00,2144.3,683.1,1175.3,1499.5,948.3,1435.0,1704.3,2042.4,3441.9,3445.5,1481.9,1385.7,1454.3,3431.0,952.6,1434.1,3439.5,3439.5,678.2,1310.6,919.4,555.4,1631.3,1711.9,3440.7,3450.4,692.1,1246.2,1273.0,1506.9,1184.1,981.6,3.0,10.0,18.0,8027.0,12330.0,-5832.0,-4237.0,29.0,5.0,0.0,0.0,7.0,14.0,9581.0,11256.0,4928.0,5063.0,18.0,6.0,9.0,1.0
2022-05-06 12:46:20.206292-07:00,2138.2,683.1,1175.3,1499.5,950.0,1422.2,1701.4,2042.4,3446.7,3445.5,1481.9,1385.7,1448.8,3428.6,948.3,1434.1,3439.5,3449.1,682.3,1303.4,919.4,555.4,1631.3,1717.7,3440.7,3449.1,679.1,1238.2,1273.0,1506.9,1184.1,973.1,3.0,2.0,7.0,8034.0,12330.0,-5827.0,-4231.0,-12.0,41.0,-4.0,-2.0,-3.0,13.0,9582.0,11256.0,4928.0,5063.0,-5.0,7.0,1.0,1.0
2022-05-06 12:46:20.234724-07:00,2138.2,675.8,1174.4,1503.2,950.0,1422.2,1701.4,2055.4,3446.7,3438.2,1474.6,1388.5,1448.8,3428.6,948.3,1437.8,3435.8,3449.1,682.3,1303.4,916.0,551.4,1615.2,1717.7,3441.9,3449.1,679.1,1238.2,1279.2,1495.8,1185.9,973.1,5.0,4.0,14.0,8025.0,12342.0,-5823.0,-4221.0,53.0,16.0,-23.0,-2.0,5.0,8.0,9571.0,11264.0,4936.0,5059.0,57.0,13.0,-10.0,1.0
2022-05-06 12:46:20.264842-07:00,2135.1,675.8,1174.4,1503.2,956.0,1420.4,1703.3,2055.4,3441.9,3438.2,1474.6,1388.5,1453.4,3441.9,942.4,1437.8,3435.8,3429.8,685.6,1291.8,916.0,551.4,1615.2,1729.1,3441.9,3440.7,689.7,1226.6,1279.2,1495.8,1185.9,979.0,8.0,12.0,3.0,8017.0,12351.0,-5820.0,-4212.0,-16.0,22.0,-2.0,-4.0,7.0,0.0,9563.0,11270.0,4940.0,5056.0,-5.0,-2.0,1.0,1.0
2022-05-06 12:46:20.474392-07:00,2135.1,670.9,1163.8,1515.3,956.0,1420.4,1703.3,2053.4,3441.9,3444.3,1474.6,1378.5,1453.4,3441.9,942.4,1436.9,3439.5,3429.8,685.6,1291.8,912.7,557.0,1618.1,1729.1,3451.6,3440.7,689.7,1226.6,1277.4,1499.5,1189.4,979.0,-2.0,-2.0,16.0,8020.0,12355.0,-5808.0,-4212.0,85.0,13.0,-29.0,-3.0,7.0,21.0,9562.0,11270.0,4941.0,5057.0,47.0,14.0,2.0,1.0
2022-05-06 12:46:20.475393-07:00,2134.1,668.4,1163.8,1515.3,946.6,1419.5,1699.5,2053.4,3439.5,3439.5,1474.6,1378.5,1447.0,3439.5,945.8,1436.9,3439.5,3434.6,683.1,1299.8,912.7,557.0,1608.7,1721.5,3451.6,3449.1,684.8,1231.9,1277.4,1499.5,1179.7,983.3,4.0,17.0,8.0,7996.0,12372.0,-5814.0,-4200.0,-37.0,20.0,14.0,-2.0,12.0,7.0,9542.0,11284.0,4953.0,5053.0,-9.0,7.0,-2.0,1.0
2022-05-06 12:46:20.476643-07:00,2134.1,668.4,1170.0,1503.2,946.6,1419.5,1685.3,2034.4,3439.5,3439.5,1479.2,1382.1,1447.0,3439.5,944.9,1432.3,3429.8,3438.2,683.1,1299.8,916.0,552.2,1608.7,1721.5,3438.2,3444.3,684.8,1231.9,1278.3,1504.1,1179.7,983.3,-2.0,10.0,2.0,8013.0,12362.0,-5812.0,-4200.0,3.0,-10.0,13.0,-5.0,5.0,8.0,9552.0,11276.0,4948.0,5057.0,-7.0,2.0,9.0,1.0
2022-05-06 12:46:20.478224-07:00,2136.1,676.6,1170.0,1503.2,946.6,1415.8,1685.3,2034.4,3437.0,3449.1,1479.2,1382.1,1452.5,3437.0,944.9,1432.3,3429.8,3438.2,682.3,1302.5,916.0,552.2,1606.8,1716.7,3438.2,3444.3,687.2,1227.5,1278.3,1504.1,1180.6,979.0,5.0,-2.0,18.0,8012.0,12357.0,-5821.0,-4203.0,19.0,-14.0,18.0,-1.0,6.0,12.0,9551.0,11276.0,4947.0,5058.0,3.0,0.0,12.0,1.0
2022-05-06 12:46:20.534480-07:00,2136.1,676.6,1170.0,1499.5,946.6,1415.8,1685.3,2033.4,3437.0,3449.1,1477.3,1378.5,1452.5,3437.0,939.0,1436.9,3438.2,3434.6,682.3,1302.5,916.9,553.8,1606.8,1716.7,3440.7,3428.6,687.2,1227.5,1275.6,1503.2,1180.6,979.0,3.0,8.0,23.0,8006.0,12358.0,-5832.0,-4196.0,-25.0,11.0,27.0,0.0,5.0,18.0,9546.0,11281.0,4945.0,5059.0,-11.0,2.0,7.0,1.0
2022-05-06 12:46:20.564401-07:00,2126.0,674.2,1170.0,1499.5,949.2,1411.3,1685.3,2033.4,3444.3,3440.7,1477.3,1378.5,1449.7,3441.9,939.0,1436.9,3438.2,3434.6,683.1,1290.0,916.9,553.8,1608.7,1717.7,3440.7,3428.6,683.1,1228.4,1275.6,1503.2,1181.5,984.2,4.0,6.0,11.0,8011.0,12356.0,-5834.0,-4192.0,26.0,22.0,-24.0,0.0,-3.0,8.0,9545.0,11282.0,4946.0,5059.0,27.0,2.0,2.0,1.0
2022-05-06 12:46:20.625332-07:00,2126.0,674.2,1175.3,1504.1,949.2,1415.8,1684.3,2028.4,3444.3,3440.7,1478.3,1383.0,1449.7,3444.3,947.5,1437.8,3432.2,3438.2,684.0,1290.0,915.2,554.6,1608.7,1717.7,3435.8,3445.5,681.5,1228.4,1279.2,1500.4,1181.5,984.2,0.0,12.0,14.0,7992.0,12376.0,-5824.0,-4180.0,100.0,30.0,-28.0,-1.0,16.0,16.0,9523.0,11298.0,4957.0,5053.0,104.0,19.0,-3.0,1.0
2022-05-06 12:46:20.714408-07:00,2123.0,678.2,1170.0,1504.1,944.1,1415.8,1684.3,2028.4,3435.8,3441.9,1474.6,1383.0,1451.6,3444.3,947.5,1437.8,3432.2,3438.2,684.0,1293.6,915.2,550.6,1604.9,1716.7,3435.8,3445.5,681.5,1223.9,1279.2,1503.2,1177.0,985.0,1.0,0.0,0.0,7981.0,12386.0,-5827.0,-4168.0,-38.0,8.0,19.0,-6.0,0.0,2.0,9514.0,11303.0,4963.0,5051.0,-31.0,7.0,8.0,1.0
2022-05-06 12:46:20.805603-07:00,2123.0,678.2,1170.0,1504.1,944.1,1405.8,1676.7,2030.4,3435.8,3441.9,1474.6,1379.4,1451.6,3433.4,945.8,1435.0,3440.7,3437.0,684.8,1293.6,919.4,550.6,1604.9,1716.7,3441.9,3449.1,687.2,1223.9,1275.6,1503.2,1177.0,985.0,6.0,25.0,5.0,7984.0,12380.0,-5835.0,-4170.0,-6.0,-31.0,15.0,-3.0,21.0,2.0,9520.0,11300.0,4959.0,5054.0,-15.0,-10.0,8.0,1.0
2022-05-06 12:46:20.806663-07:00,2119.9,672.5,1182.3,1504.1,944.9,1405.8,1676.7,2030.4,3439.5,3438.2,1472.7,1379.4,1453.4,3433.4,945.8,1435.0,3440.7,3437.0,684.8,1305.2,919.4,552.2,1598.3,1719.6,3441.9,3449.1,687.2,1224.8,1275.6,1504.1,1185.0,991.0,4.0,-9.0,30.0,7988.0,12375.0,-5832.0,-4179.0,-15.0,-8.0,-10.0,-5.0,-6.0,26.0,9526.0,11295.0,4956.0,5055.0,6.0,-2.0,2.0,1.0
2022-05-06 12:46:20.808395-07:00,2119.9,672.5,1182.3,1506.9,944.9,1414.0,1679.5,2019.4,3439.5,3438.2,1472.7,1378.5,1453.4,3443.1,949.2,1431.4,3439.5,3443.1,684.8,1305.2,915.2,552.2,1598.3,1719.6,3446.7,3439.5,683.1,1224.8,1277.4,1504.1,1185.0,991.0,-2.0,15.0,11.0,7980.0,12383.0,-5832.0,-4169.0,2.0,30.0,7.0,-5.0,14.0,17.0,9519.0,11300.0,4959.0,5053.0,-8.0,10.0,2.0,1.0
2022-05-06 12:46:20.924931-07:00,2112.8,672.5,1177.0,1503.2,958.5,1414.0,1679.5,2019.4,3439.5,3440.7,1470.9,1380.3,1440.5,3443.1,949.2,1431.4,3439.5,3443.1,684.8,1299.0,910.1,557.0,1601.1,1723.4,3446.7,3439.5,683.1,1217.7,1275.6,1504.1,1187.6,979.0,5.0,16.0,5.0,7984.0,12382.0,-5832.0,-4167.0,7.0,-3.0,5.0,-2.0,15.0,0.0,9519.0,11301.0,4959.0,5053.0,7.0,-9.0,-5.0,1.0
2022-05-06 12:46:20.926126-07:00,2112.8,672.5,1177.0,1503.2,944.9,1411.3,1668.2,2015.4,3439.5,3440.7,1470.9,1380.3,1453.4,3445.5,946.6,1436.0,3443.1,3435.8,683.1,1295.4,910.1,557.0,1601.1,1723.4,3443.1,3435.8,684.8,1214.2,1275.6,1504.1,1187.6,979.0,2.0,4.0,20.0,7985.0,12383.0,-5827.0,-4171.0,3.0,-4.0,-20.0,1.0,3.0,15.0,9521.0,11298.0,4958.0,5054.0,7.0,-7.0,-3.0,1.0
2022-05-06 12:46:21.074828-07:00,2117.9,670.1,1179.7,1519.0,944.9,1411.3,1668.2,2015.4,3445.5,3444.3,1463.5,1385.7,1453.4,3445.5,946.6,1436.0,3443.1,3435.8,683.1,1295.4,917.7,550.6,1591.7,1720.5,3443.1,3435.8,684.8,1214.2,1277.4,1498.6,1185.9,973.1,8.0,0.0,16.0,7989.0,12382.0,-5823.0,-4168.0,-37.0,29.0,12.0,0.0,0.0,12.0,9524.0,11296.0,4955.0,5057.0,-15.0,4.0,13.0,1.0
2022-05-06 12:46:21.076655-07:00,2117.9,670.1,1179.7,1519.0,945.8,1404.9,1671.9,2045.4,3445.5,3444.3,1463.5,1385.7,1461.7,3435.8,941.5,1438.7,3437.0,3438.2,679.1,1296.3,917.7,550.6,1591.7,1720.5,3445.5,3439.5,679.9,1217.7,1277.4,1498.6,1185.9,973.1,2.0,12.0,7.0,7995.0,12384.0,-5818.0,-4157.0,2.0,24.0,-15.0,-2.0,10.0,6.0,9521.0,11299.0,4954.0,5058.0,-1.0,0.0,4.0,1.0
2022-05-06 12:46:21.077507-07:00,2109.8,671.7,1178.8,1508.8,945.8,1404.9,1671.9,2045.4,3439.5,3433.4,1464.4,1379.4,1461.7,3435.8,941.5,1438.7,3437.0,3438.2,679.1,1296.3,911.8,553.8,1590.8,1726.3,3445.5,3439.5,679.9,1217.7,1270.3,1499.5,1174.4,977.3,2.0,1.0,15.0,7998.0,12387.0,-5813.0,-4151.0,-1.0,23.0,16.0,-4.0,6.0,12.0,9521.0,11299.0,4954.0,5058.0,2.0,-1.0,8.0,1.0
2022-05-06 12:46:21.225383-07:00,2109.8,671.7,1178.8,1508.8,948.3,1412.2,1671.9,2011.4,3439.5,3433.4,1464.4,1379.4,1448.8,3438.2,942.4,1434.1,3439.5,3439.5,674.2,1300.7,911.8,553.8,1590.8,1726.3,3445.5,3446.7,684.8,1212.4,1270.3,1499.5,1174.4,977.3,0.0,1.0,9.0,8002.0,12384.0,-5817.0,-4148.0,-5.0,-16.0,7.0,-1.0,4.0,13.0,9523.0,11297.0,4953.0,5058.0,-8.0,-5.0,2.0,1.0
2022-05-06 12:46:21.226349-07:00,2102.7,663.6,1183.2,1507.8,948.3,1412.2,1671.9,2005.5,3439.5,3443.1,1462.6,1382.1,1448.8,3438.2,942.4,1431.4,3428.6,3439.5,674.2,1300.7,917.7,549.8,1589.9,1713.8,3441.9,3446.7,684.8,1212.4,1278.3,1506.0,1182.3,974.8,0.0,7.0,12.0,8003.0,12380.0,-5822.0,-4151.0,-37.0,8.0,15.0,-4.0,10.0,12.0,9526.0,11295.0,4952.0,5060.0,-44.0,-9.0,9.0,1.0
2022-05-06 12:46:21.227195-07:00,2110.8,663.6,1183.2,1507.8,944.1,1402.1,1674.8,2005.5,3440.7,3443.1,1462.6,1382.1,1449.7,3444.3,948.3,1431.4,3428.6,3443.1,687.2,1298.1,917.7,549.8,1589.9,1716.7,3441.9,3446.7,684.8,1208.0,1278.3,1506.0,1182.3,969.6,1.0,-1.0,12.0,8015.0,12372.0,-5826.0,-4145.0,3.0,-1.0,33.0,-1.0,7.0,19.0,9534.0,11288.0,4944.0,5065.0,-10.0,-7.0,11.0,1.0
2022-05-06 12:46:21.315073-07:00,2110.8,666.8,1173.5,1499.5,944.1,1402.1,1674.8,2017.4,3440.7,3439.5,1468.1,1381.2,1449.7,3444.3,948.3,1433.2,3438.2,3443.1,687.2,1298.1,917.7,557.0,1586.1,1716.7,3443.1,3446.7,684.8,1208.0,1274.7,1509.7,1181.5,969.6,9.0,11.0,14.0,8023.0,12362.0,-5841.0,-4138.0,-28.0,6.0,51.0,0.0,12.0,7.0,9537.0,11289.0,4935.0,5068.0,-37.0,-18.0,20.0,1.0
2022-05-06 12:46:21.317473-07:00,2108.8,666.8,1173.5,1499.5,944.1,1395.7,1672.9,2017.4,3435.8,3439.5,1468.1,1381.2,1444.2,3445.5,945.8,1433.2,3438.2,3443.1,681.5,1297.2,917.7,557.0,1586.1,1720.5,3443.1,3439.5,683.1,1222.2,1274.7,1509.7,1181.5,976.5,7.0,12.0,17.0,8039.0,12351.0,-5850.0,-4128.0,-10.0,8.0,48.0,0.0,4.0,16.0,9546.0,11284.0,4922.0,5075.0,-14.0,-12.0,16.0,1.0
2022-05-06 12:46:21.435041-07:00,2108.8,666.0,1173.5,1510.6,944.1,1395.7,1672.9,2011.4,3435.8,3449.1,1471.8,1394.8,1444.2,3445.5,945.8,1432.3,3437.0,3443.1,681.5,1297.2,912.7,552.2,1580.5,1720.5,3439.5,3439.5,683.1,1222.2,1266.7,1508.8,1177.9,976.5,3.0,10.0,15.0,8045.0,12344.0,-5863.0,-4118.0,-13.0,3.0,32.0,-4.0,8.0,17.0,9546.0,11284.0,4919.0,5078.0,2.0,-6.0,7.0,1.0
2022-05-06 12:46:21.436177-07:00,2103.7,662.7,1173.5,1510.6,950.9,1404.9,1665.3,2011.4,3449.1,3440.7,1471.8,1394.8,1453.4,3445.5,942.4,1432.3,3437.0,3432.2,684.8,1294.5,912.7,552.2,1587.1,1716.7,3439.5,3449.1,682.3,1206.2,1266.7,1508.8,1177.0,990.2,44.0,5.0,14.0,7989.0,12355.0,-5925.0,-4106.0,272.0,-168.0,142.0,17.0,0.0,6.0,9473.0,11340.0,4955.0,5054.0,388.0,71.0,-5.0,1.0
2022-05-06 12:46:21.464355-07:00,2103.7,662.7,1184.1,1499.5,950.9,1404.9,1684.3,2052.4,3449.1,3440.7,1463.5,1378.5,1453.4,3445.5,939.0,1438.7,3435.8,3441.9,684.8,1294.5,911.8,555.4,1587.1,1716.7,3446.7,3440.7,682.3,1206.2,1276.5,1509.7,1177.0,990.2,-9.0,-55.0,-22.0,7950.0,12275.0,-6146.0,-4098.0,100.0,-426.0,706.0,10.0,-15.0,10.0,9400.0,11385.0,4991.0,5054.0,168.0,50.0,61.0,1.0
2022-05-06 12:46:21.524986-07:00,2172.8,698.7,1184.1,1499.5,940.7,1445.1,1684.3,2052.4,3438.2,3444.3,1463.5,1378.5,1453.4,3445.5,939.0,1438.7,3435.8,3441.9,679.1,1297.2,911.8,555.4,2413.4,1717.7,3446.7,3440.7,691.3,1409.4,1276.5,1509.7,1177.0,979.0,-11.0,-4.0,-30.0,7851.0,12063.0,-6618.0,-4180.0,277.0,-1148.0,841.0,-8.0,32.0,-25.0,9310.0,11457.0,5005.0,5045.0,346.0,-4.0,99.0,1.0
2022-05-06 12:46:21.555028-07:00,2172.8,698.7,1172.6,1508.8,940.7,1445.1,1583.3,1930.2,3438.2,3444.3,1425.9,1386.6,1453.4,3445.5,956.0,1441.5,3435.8,3433.4,679.1,1297.2,916.9,551.4,2413.4,1717.7,3449.1,3447.9,691.3,1409.4,1266.7,1507.8,1177.0,979.0,-45.0,-36.0,58.0,7737.0,11742.0,-7232.0,-4289.0,37.0,-1000.0,1390.0,-27.0,3.0,4.0,9213.0,11518.0,5029.0,5061.0,204.0,116.0,104.0,1.0
2022-05-06 12:46:21.675740-07:00,2371.3,746.3,1172.6,1508.8,945.8,1995.5,1583.3,1930.2,3437.0,3440.7,1425.9,1386.6,1452.5,3444.3,956.0,1441.5,3435.8,3433.4,685.6,1305.2,916.9,551.4,2191.2,1723.4,3449.1,3447.9,757.1,1548.7,1266.7,1507.8,1184.1,964.5,19.0,165.0,-11.0,7691.0,11472.0,-7697.0,-4292.0,-59.0,-570.0,604.0,-3.0,36.0,-45.0,9159.0,11561.0,5008.0,5079.0,-51.0,-78.0,115.0,1.0
2022-05-06 12:46:21.678941-07:00,2371.3,746.3,1172.6,1503.2,945.8,1995.5,1448.8,1616.2,3437.0,3440.7,1404.0,1384.8,1452.5,3444.3,949.2,1436.9,3443.1,3439.5,685.6,1305.2,915.2,555.4,2191.2,1723.4,3454.0,3450.4,757.1,1548.7,1273.9,1502.3,1184.1,964.5,25.0,31.0,82.0,7787.0,11328.0,-7780.0,-4354.0,-381.0,26.0,166.0,8.0,-3.0,57.0,9218.0,11528.0,4959.0,5096.0,-222.0,-11.0,-2.0,1.0
2022-05-06 12:46:21.705093-07:00,2335.8,738.1,1174.4,1503.2,945.8,1926.2,1448.8,1616.2,3449.1,3445.5,1396.7,1384.8,1447.9,3441.9,949.2,1436.9,3443.1,3439.5,679.1,1302.5,915.2,557.0,2131.1,1721.5,3454.0,3450.4,755.4,1487.5,1273.9,1499.5,1186.7,973.9,5.0,-29.0,47.0,7831.0,11304.0,-7771.0,-4353.0,168.0,-7.0,44.0,-1.0,-10.0,53.0,9207.0,11529.0,4975.0,5099.0,260.0,53.0,-9.0,1.0
2022-05-06 12:46:21.765088-07:00,2335.8,738.1,1174.4,1510.6,945.8,1940.0,1404.9,1567.4,3449.1,3445.5,1396.7,1385.7,1447.9,3433.4,945.8,1437.8,3438.2,3431.0,683.1,1302.5,924.5,557.0,2131.1,1721.5,3441.9,3445.5,778.6,1487.5,1274.7,1499.5,1186.7,973.9,16.0,59.0,4.0,7683.0,11379.0,-7870.0,-4242.0,564.0,-42.0,47.0,1.0,6.0,-13.0,9066.0,11627.0,5047.0,5059.0,518.0,56.0,-3.0,1.0
2022-05-06 12:46:21.824853-07:00,2304.5,735.6,1171.8,1510.6,942.4,1940.0,1404.9,1567.4,3441.9,3435.8,1391.2,1385.7,1445.1,3433.4,945.8,1437.8,3438.2,3431.0,683.1,1301.6,924.5,552.2,2111.8,1719.6,3441.9,3445.5,778.6,1473.6,1274.7,1503.2,1181.5,969.6,21.0,47.0,47.0,7627.0,11510.0,-7791.0,-4135.0,96.0,411.0,-267.0,-3.0,43.0,34.0,8958.0,11700.0,5113.0,5017.0,155.0,47.0,-45.0,1.0
2022-05-06 12:46:21.855046-07:00,2304.5,735.6,1171.8,1508.8,942.4,1887.9,1393.9,1549.7,3441.9,3435.8,1391.2,1390.3,1445.1,3439.5,946.6,1434.1,3428.6,3433.4,675.8,1301.6,918.6,552.2,2111.8,1719.6,3445.5,3439.5,791.0,1473.6,1273.9,1503.2,1181.5,969.6,-12.0,-34.0,-42.0,7654.0,11545.0,-7733.0,-4097.0,88.0,67.0,14.0,-8.0,-22.0,-15.0,8936.0,11702.0,5144.0,5018.0,116.0,33.0,-5.0,1.0
2022-05-06 12:46:22.004945-07:00,2283.8,729.0,1175.3,1508.8,940.7,1887.9,1393.9,1549.7,3445.5,3438.2,1391.2,1390.3,1451.6,3439.5,946.6,1434.1,3428.6,3433.4,675.8,1289.1,918.6,551.4,2066.5,1726.3,3445.5,3439.5,791.0,1433.2,1273.9,1509.7,1189.4,968.8,21.0,49.0,30.0,7641.0,11572.0,-7725.0,-4057.0,-75.0,157.0,-46.0,-5.0,50.0,-13.0,8913.0,11722.0,5150.0,5006.0,-75.0,-20.0,3.0,1.0
2022-05-06 12:46:22.035267-07:00,2283.8,729.0,1175.3,1503.2,939.0,1867.4,1372.1,1541.3,3445.5,3438.2,1391.2,1385.7,1449.7,3438.2,950.0,1438.7,3433.4,3445.5,681.5,1297.2,918.6,551.4,2066.5,1726.3,3446.7,3446.7,784.4,1432.3,1281.9,1509.7,1189.4,968.8,-13.0,-40.0,0.0,7706.0,11551.0,-7682.0,-4079.0,-60.0,-38.0,22.0,0.0,-25.0,15.0,8959.0,11687.0,5129.0,5026.0,-41.0,7.0,11.0,1.0
2022-05-06 12:46:22.065288-07:00,2273.4,725.8,1173.5,1509.7,939.0,1867.4,1372.1,1541.3,3441.9,3444.3,1380.3,1384.8,1449.7,3438.2,950.0,1438.7,3433.4,3445.5,681.5,1297.2,920.3,554.6,2055.4,1718.6,3446.7,3446.7,784.4,1432.3,1278.3,1504.1,1181.5,973.9,15.0,58.0,38.0,7682.0,11548.0,-7720.0,-4058.0,-17.0,18.0,57.0,0.0,37.0,3.0,8939.0,11705.0,5130.0,5020.0,-25.0,-15.0,4.0,1.0
2022-05-06 12:46:22.124551-07:00,2273.4,725.8,1173.5,1509.7,944.1,1843.0,1366.6,1522.7,3441.9,3444.3,1380.3,1384.8,1450.6,3429.8,944.1,1436.0,3437.0,3441.9,675.8,1294.5,920.3,554.6,2055.4,1718.6,3444.3,3445.5,786.9,1424.1,1278.3,1504.1,1181.5,973.9,-2.0,-11.0,3.0,7722.0,11534.0,-7696.0,-4066.0,22.0,23.0,-43.0,0.0,-13.0,10.0,8956.0,11694.0,5126.0,5019.0,87.0,-4.0,-11.0,1.0
2022-05-06 12:46:22.184481-07:00,2265.2,726.6,1166.5,1505.1,944.1,1843.0,1366.6,1522.7,3438.2,3444.3,1397.6,1381.2,1450.6,3429.8,944.1,1436.0,3437.0,3441.9,675.8,1294.5,920.3,550.6,2042.4,1721.5,3444.3,3445.5,786.9,1424.1,1277.4,1503.2,1181.5,962.0,7.0,12.0,33.0,7648.0,11572.0,-7726.0,-4042.0,176.0,-62.0,42.0,-1.0,33.0,20.0,8884.0,11746.0,5164.0,4988.0,187.0,20.0,-13.0,1.0
2022-05-06 12:46:22.185886-07:00,2265.2,726.6,1166.5,1505.1,939.0,1825.5,1363.9,1528.3,3438.2,3444.3,1397.6,1381.2,1448.8,3439.5,946.6,1431.4,3444.3,3431.0,675.8,1297.2,920.3,550.6,2042.4,1721.5,3444.3,3445.5,791.0,1420.4,1277.4,1503.2,1181.5,962.0,-2.0,15.0,-9.0,7687.0,11540.0,-7727.0,-4058.0,-219.0,23.0,-3.0,-8.0,-4.0,-14.0,8916.0,11724.0,5155.0,4991.0,-164.0,-26.0,-19.0,1.0
2022-05-06 12:46:22.274682-07:00,2267.2,729.0,1175.3,1496.7,939.0,1825.5,1363.9,1515.3,3443.1,3434.6,1383.0,1384.8,1448.8,3439.5,946.6,1439.6,3435.8,3431.0,675.8,1297.2,919.4,557.0,2026.4,1723.4,3438.2,3445.5,791.0,1420.4,1266.7,1496.7,1183.2,967.9,8.0,-28.0,25.0,7720.0,11512.0,-7714.0,-4101.0,-73.0,-65.0,46.0,2.0,6.0,18.0,8962.0,11694.0,5136.0,4998.0,-90.0,-18.0,-5.0,1.0
2022-05-06 12:46:22.276372-07:00,2262.1,729.0,1175.3,1496.7,944.9,1824.6,1363.9,1515.3,3449.1,3434.6,1383.0,1384.8,1451.6,3441.9,944.9,1439.6,3435.8,3434.6,680.7,1295.4,919.4,557.0,2026.4,1715.8,3438.2,3437.0,791.9,1415.8,1266.7,1496.7,1183.2,961.1,1.0,26.0,17.0,7763.0,11456.0,-7744.0,-4119.0,-172.0,-34.0,86.0,0.0,-3.0,16.0,9001.0,11669.0,5113.0,5011.0,-174.0,-24.0,15.0,1.0
2022-05-06 12:46:22.364609-07:00,2262.1,715.1,1167.4,1509.7,944.9,1824.6,1363.9,1514.3,3449.1,3438.2,1370.3,1374.8,1451.6,3441.9,944.9,1436.9,3439.5,3434.6,680.7,1295.4,921.1,556.2,2015.4,1715.8,3435.8,3437.0,791.9,1415.8,1289.1,1497.7,1181.5,961.1,10.0,3.0,41.0,7762.0,11453.0,-7744.0,-4128.0,145.0,0.0,-32.0,-1.0,-1.0,23.0,9021.0,11659.0,5098.0,5013.0,60.0,-10.0,12.0,1.0
2022-05-06 12:46:22.365905-07:00,2267.2,715.1,1167.4,1509.7,950.0,1808.1,1353.1,1514.3,3446.7,3438.2,1370.3,1374.8,1451.6,3445.5,941.5,1436.9,3439.5,3449.1,676.6,1287.3,921.1,556.2,2015.4,1719.6,3435.8,3438.2,786.1,1414.0,1289.1,1497.7,1181.5,963.7,2.0,12.0,12.0,7768.0,11467.0,-7728.0,-4111.0,32.0,45.0,-32.0,0.0,5.0,15.0,9010.0,11665.0,5106.0,5011.0,9.0,19.0,-9.0,1.0
2022-05-06 12:46:22.425218-07:00,2267.2,720.0,1165.6,1503.2,950.0,1808.1,1353.1,1517.1,3446.7,3445.5,1378.5,1388.5,1451.6,3445.5,941.5,1433.2,3438.2,3449.1,676.6,1287.3,917.7,551.4,2018.4,1719.6,3449.1,3438.2,786.1,1414.0,1273.9,1503.2,1181.5,963.7,-1.0,6.0,8.0,7739.0,11495.0,-7722.0,-4096.0,102.0,11.0,-43.0,-5.0,10.0,6.0,8991.0,11678.0,5116.0,5004.0,76.0,3.0,-5.0,1.0
2022-05-06 12:46:22.454575-07:00,2241.4,720.0,1165.6,1503.2,932.2,1811.0,1353.1,1517.1,3437.0,3445.5,1378.5,1388.5,1453.4,3439.5,946.6,1433.2,3438.2,3439.5,684.0,1290.9,917.7,551.4,2018.4,1717.7,3449.1,3447.9,785.2,1411.3,1273.9,1503.2,1181.5,957.7,1.0,-7.0,10.0,7722.0,11503.0,-7729.0,-4092.0,48.0,-25.0,23.0,-3.0,0.0,2.0,8980.0,11686.0,5123.0,5000.0,23.0,6.0,-5.0,1.0
2022-05-06 12:46:22.515088-07:00,2241.4,716.7,1167.4,1506.0,932.2,1811.0,1352.1,1510.6,3437.0,3441.9,1373.0,1381.2,1453.4,3439.5,950.0,1435.0,3441.9,3434.6,684.0,1290.9,919.4,553.8,2014.4,1717.7,3444.3,3435.8,785.2,1411.3,1277.4,1506.0,1181.5,957.7,4.0,21.0,16.0,7720.0,11504.0,-7731.0,-4092.0,-21.0,-16.0,-26.0,2.0,17.0,3.0,8978.0,11689.0,5123.0,4997.0,-17.0,-5.0,-8.0,1.0
2022-05-06 12:46:22.634573-07:00,2248.7,710.1,1167.4,1506.0,945.8,1811.0,1352.1,1510.6,3438.2,3435.8,1373.0,1381.2,1450.6,3444.3,950.0,1435.0,3441.9,3434.6,679.9,1288.2,919.4,553.8,2004.5,1726.3,3444.3,3435.8,781.1,1410.3,1277.4,1506.0,1187.6,965.4,-1.0,7.0,20.0,7727.0,11503.0,-7724.0,-4094.0,43.0,12.0,2.0,-2.0,0.0,20.0,8986.0,11683.0,5120.0,4998.0,13.0,5.0,-5.0,1.0
2022-05-06 12:46:22.635696-07:00,2248.7,710.1,1171.8,1509.7,945.8,1811.0,1354.0,1509.7,3438.2,3435.8,1376.6,1380.3,1450.6,3444.3,946.6,1442.4,3421.3,3441.9,679.9,1288.2,912.7,557.8,2004.5,1726.3,3444.3,3443.1,781.1,1410.3,1276.5,1504.1,1187.6,965.4,3.0,14.0,9.0,7727.0,11502.0,-7730.0,-4084.0,-41.0,12.0,34.0,-4.0,12.0,3.0,8981.0,11685.0,5123.0,4999.0,-13.0,12.0,-3.0,1.0
2022-05-06 12:46:22.664716-07:00,2235.3,710.1,1171.8,1509.7,939.0,1796.5,1354.0,1509.7,3440.7,3446.7,1376.6,1380.3,1447.9,3439.5,946.6,1442.4,3421.3,3441.9,677.4,1296.3,912.7,557.8,1993.5,1715.8,3444.3,3443.1,783.6,1406.7,1276.5,1504.1,1187.6,963.7,0.0,2.0,16.0,7743.0,11494.0,-7723.0,-4089.0,27.0,-17.0,-23.0,1.0,3.0,14.0,8991.0,11678.0,5119.0,5002.0,11.0,-8.0,-4.0,1.0
