Time,P0,P1,P2,P3,P4,P5,P6,P7,P8,P9,P10,P11,P12,P13,P14,P15,P16,P17,P18,P19,P20,P21,P22,P23,P24,P25,P26,P27,P28,P29,P30,P31,ECG,AX0,AY0,AZ0,QW0,QX0,QY0,QZ0,GX0,GY0,GZ0,AX1,AY1,AZ1,QW1,QX1,QY1,QZ1,GX1,GY1,GZ1
2022-05-06 12:48:00.402842-07:00,1835.2,650.5,1163.8,1474.6,960.2,1160.3,1460.8,1759.8,3439.5,3441.9,1659.6,1449.7,1464.4,3437.0,1027.1,1460.8,3435.8,3437.0,669.3,1356.7,933.0,547.4,1308.8,1783.9,3433.4,3443.1,756.3,1066.0,1271.2,1473.6,1156.8,1003.9,1.0,9.0,1.0,8638.0,12511.0,-4213.0,-4422.0,-3.0,8.0,-3.0,-4.0,0.0,9.0,10024.0,10087.0,5468.0,6026.0,0.0,-1.0,-2.0,1.0
2022-05-06 12:48:00.463619-07:00,1837.2,650.5,1163.8,1474.6,943.2,1163.0,1456.2,1759.8,3439.5,3441.9,1659.6,1449.7,1466.3,3441.9,1025.4,1460.8,3435.8,3429.8,664.4,1352.1,933.0,547.4,1308.8,1763.7,3433.4,3437.0,762.0,1062.5,1271.2,1473.6,1156.8,1003.0,0.0,0.0,14.0,8635.0,12509.0,-4217.0,-4428.0,3.0,-30.0,2.0,-11.0,-8.0,16.0,10025.0,10087.0,5467.0,6026.0,-8.0,-10.0,-2.0,1.0
2022-05-06 12:48:00.464535-07:00,1837.2,644.0,1163.0,1484.7,943.2,1163.0,1456.2,1772.3,3439.5,3437.0,1657.7,1454.3,1466.3,3441.9,1025.4,1469.0,3437.0,3429.8,664.4,1352.1,937.3,543.4,1316.0,1763.7,3446.7,3437.0,762.0,1062.5,1266.7,1474.6,1156.8,1003.0,1.0,1.0,19.0,8640.0,12503.0,-4223.0,-4430.0,-24.0,11.0,23.0,-2.0,-5.0,19.0,10026.0,10087.0,5463.0,6028.0,-19.0,-6.0,18.0,1.0
2022-05-06 12:48:00.465641-07:00,1838.2,644.0,1163.0,1484.7,951.7,1164.7,1456.2,1772.3,3435.8,3437.0,1657.7,1454.3,1466.3,3440.7,1027.1,1469.0,3437.0,3434.6,667.6,1349.4,937.3,543.4,1316.0,1759.8,3446.7,3443.1,763.7,1077.3,1266.7,1474.6,1156.8,1009.9,2.0,4.0,13.0,8642.0,12503.0,-4222.0,-4427.0,25.0,-8.0,-7.0,-3.0,0.0,15.0,10026.0,10086.0,5459.0,6032.0,14.0,1.0,2.0,1.0
2022-05-06 12:48:00.523267-07:00,1838.2,645.7,1162.1,1472.7,951.7,1164.7,1453.4,1757.9,3435.8,3441.9,1655.8,1453.4,1466.3,3440.7,1021.9,1466.3,3444.3,3440.7,667.6,1349.4,939.8,543.4,1310.6,1759.8,3439.5,3449.1,763.7,1077.3,1276.5,1470.9,1159.4,1009.9,-3.0,0.0,11.0,8641.0,12503.0,-4223.0,-4427.0,-5.0,-12.0,3.0,-5.0,-10.0,18.0,10024.0,10088.0,5460.0,6031.0,-6.0,-6.0,2.0,1.0
2022-05-06 12:48:00.553161-07:00,1845.0,644.9,1162.1,1472.7,953.4,1156.8,1453.4,1757.9,3437.0,3441.9,1655.8,1453.4,1466.3,3446.7,1021.9,1466.3,3444.3,3440.7,669.3,1345.8,939.8,543.4,1314.2,1756.0,3439.5,3449.1,759.6,1072.1,1276.5,1470.9,1155.9,1006.5,0.0,7.0,11.0,8641.0,12503.0,-4223.0,-4428.0,-1.0,7.0,6.0,-6.0,-2.0,22.0,10024.0,10088.0,5460.0,6031.0,-1.0,-3.0,7.0,1.0
2022-05-06 12:48:00.673761-07:00,1845.0,644.9,1163.8,1480.1,953.4,1156.8,1453.4,1751.2,3437.0,3441.9,1656.8,1456.2,1466.3,3446.7,1023.7,1460.8,3431.0,3440.7,669.3,1345.8,941.5,546.6,1314.2,1756.0,3439.5,3440.7,759.6,1072.1,1272.1,1470.9,1155.9,1006.5,3.0,6.0,18.0,8637.0,12506.0,-4225.0,-4426.0,37.0,14.0,-1.0,-1.0,-3.0,15.0,10021.0,10091.0,5459.0,6033.0,26.0,0.0,12.0,1.0
2022-05-06 12:48:00.674398-07:00,1841.1,650.5,1163.8,1480.1,945.8,1164.7,1453.4,1751.2,3434.6,3439.5,1656.8,1456.2,1462.6,3446.7,1023.7,1460.8,3431.0,3440.7,669.3,1350.3,941.5,546.6,1317.8,1759.8,3439.5,3440.7,762.0,1072.1,1272.1,1470.9,1156.8,997.9,0.0,4.0,19.0,8631.0,12512.0,-4225.0,-4421.0,-19.0,13.0,-4.0,-9.0,-3.0,18.0,10017.0,10095.0,5460.0,6031.0,-4.0,2.0,3.0,1.0
2022-05-06 12:48:00.733011-07:00,1841.1,650.5,1163.8,1477.3,945.8,1164.7,1458.9,1770.4,3434.6,3439.5,1653.9,1444.2,1462.6,3446.7,1027.1,1466.3,3433.4,3432.2,669.3,1350.3,939.0,545.8,1317.8,1759.8,3439.5,3428.6,762.0,1072.1,1270.3,1478.3,1156.8,997.9,2.0,11.0,9.0,8633.0,12514.0,-4221.0,-4414.0,16.0,18.0,-4.0,-1.0,0.0,14.0,10013.0,10099.0,5458.0,6033.0,27.0,6.0,14.0,1.0
2022-05-06 12:48:00.763627-07:00,1833.3,643.2,1163.8,1477.3,950.0,1161.2,1458.9,1770.4,3438.2,3437.0,1653.9,1444.2,1470.9,3438.2,1027.1,1466.3,3433.4,3432.2,664.4,1354.0,939.0,545.8,1314.2,1758.9,3439.5,3428.6,755.4,1070.3,1270.3,1478.3,1161.2,1004.8,-2.0,0.0,4.0,8633.0,12516.0,-4219.0,-4412.0,27.0,-21.0,1.0,-9.0,-5.0,17.0,10011.0,10100.0,5459.0,6032.0,14.0,-4.0,2.0,1.0
2022-05-06 12:48:00.822934-07:00,1833.3,643.2,1163.8,1479.2,950.0,1161.2,1458.0,1751.2,3438.2,3437.0,1653.0,1451.6,1470.9,3449.1,1019.4,1470.0,3440.7,3441.9,668.4,1354.0,939.0,547.4,1314.2,1758.9,3449.1,3437.0,754.6,1070.3,1266.7,1478.3,1161.2,1004.8,0.0,-4.0,22.0,8631.0,12513.0,-4224.0,-4418.0,-22.0,-4.0,11.0,-6.0,-13.0,21.0,10013.0,10101.0,5457.0,6031.0,-22.0,-4.0,6.0,1.0
2022-05-06 12:48:00.853228-07:00,1842.0,655.4,1168.2,1479.2,951.7,1161.2,1458.0,1751.2,3444.3,3433.4,1655.8,1451.6,1466.3,3449.1,1019.4,1470.0,3440.7,3441.9,668.4,1349.4,939.0,545.0,1311.5,1758.9,3449.1,3437.0,754.6,1062.5,1266.7,1480.1,1155.0,1008.2,3.0,11.0,15.0,8635.0,12512.0,-4224.0,-4415.0,10.0,15.0,-7.0,-5.0,-8.0,21.0,10014.0,10100.0,5456.0,6031.0,2.0,3.0,5.0,1.0
2022-05-06 12:48:00.913005-07:00,1842.0,655.4,1168.2,1478.3,951.7,1163.0,1447.9,1757.9,3444.3,3433.4,1655.8,1453.4,1466.3,3444.3,1029.7,1471.8,3444.3,3431.0,666.8,1349.4,937.3,545.0,1311.5,1758.9,3446.7,3445.5,757.1,1062.5,1266.7,1480.1,1155.0,1008.2,2.0,5.0,13.0,8627.0,12518.0,-4226.0,-4411.0,23.0,-7.0,6.0,-4.0,-1.0,15.0,10008.0,10106.0,5460.0,6028.0,24.0,2.0,0.0,1.0
2022-05-06 12:48:00.973267-07:00,1834.3,645.7,1157.7,1478.3,949.2,1163.0,1447.9,1757.9,3452.8,3440.7,1656.8,1453.4,1471.8,3444.3,1029.7,1471.8,3444.3,3431.0,666.8,1355.8,937.3,545.0,1319.6,1764.6,3446.7,3445.5,757.1,1066.9,1266.7,1480.1,1171.8,1005.6,-1.0,7.0,13.0,8623.0,12519.0,-4229.0,-4413.0,-16.0,-11.0,10.0,-7.0,0.0,19.0,10008.0,10106.0,5460.0,6028.0,-11.0,-5.0,-1.0,1.0
2022-05-06 12:48:01.063081-07:00,1834.3,645.7,1157.7,1476.4,949.2,1156.8,1452.5,1757.0,3452.8,3440.7,1656.8,1454.3,1471.8,3445.5,1029.7,1462.6,3444.3,3434.6,666.0,1355.8,937.3,545.0,1319.6,1764.6,3444.3,3445.5,759.6,1066.9,1274.7,1480.1,1171.8,1005.6,-1.0,7.0,14.0,8625.0,12517.0,-4230.0,-4415.0,30.0,-19.0,-4.0,-5.0,-2.0,21.0,10008.0,10105.0,5460.0,6028.0,18.0,-3.0,-9.0,1.0
2022-05-06 12:48:01.093235-07:00,1831.3,648.9,1163.8,1475.5,949.2,1156.8,1452.5,1757.0,3438.2,3445.5,1653.9,1447.0,1470.9,3445.5,1029.7,1462.6,3444.3,3434.6,666.0,1353.1,938.1,545.8,1316.9,1752.1,3444.3,3445.5,759.6,1066.0,1265.8,1479.2,1132.2,1004.8,11.0,-7.0,22.0,8620.0,12516.0,-4235.0,-4420.0,-7.0,-1.0,13.0,0.0,-10.0,9.0,10008.0,10106.0,5460.0,6028.0,-14.0,-3.0,5.0,1.0
2022-05-06 12:48:01.123601-07:00,1831.3,648.9,1163.8,1475.5,951.7,1163.8,1457.1,1760.8,3438.2,3445.5,1653.9,1447.0,1468.1,3444.3,1021.1,1465.4,3434.6,3437.0,659.5,1354.0,938.1,545.8,1316.9,1752.1,3449.1,3438.2,757.1,1071.2,1265.8,1479.2,1132.2,1004.8,1.0,14.0,14.0,8624.0,12515.0,-4238.0,-4415.0,-6.0,17.0,-5.0,-3.0,0.0,22.0,10006.0,10108.0,5457.0,6031.0,-8.0,8.0,9.0,1.0
2022-05-06 12:48:01.153273-07:00,1837.2,645.7,1170.0,1492.1,951.7,1163.8,1457.1,1760.8,3449.1,3444.3,1646.4,1447.9,1468.1,3444.3,1021.1,1465.4,3434.6,3437.0,659.5,1354.0,938.1,541.8,1312.4,1758.9,3449.1,3438.2,757.1,1071.2,1265.8,1477.3,1153.3,1007.3,-1.0,9.0,16.0,8620.0,12518.0,-4239.0,-4413.0,6.0,-16.0,3.0,-2.0,-1.0,20.0,10003.0,10111.0,5459.0,6029.0,14.0,0.0,-1.0,1.0
2022-05-06 12:48:01.213114-07:00,1837.2,645.7,1170.0,1492.1,950.0,1161.2,1453.4,1764.6,3449.1,3444.3,1646.4,1447.9,1470.9,3433.4,1021.1,1470.9,3435.8,3449.1,662.7,1352.1,938.1,541.8,1312.4,1758.9,3445.5,3447.9,758.7,1066.9,1265.8,1477.3,1153.3,1007.3,0.0,9.0,16.0,8619.0,12516.0,-4240.0,-4416.0,-9.0,6.0,0.0,-7.0,-4.0,17.0,10003.0,10111.0,5459.0,6029.0,-6.0,4.0,4.0,1.0
2022-05-06 12:48:01.332713-07:00,1831.3,644.0,1169.1,1474.6,950.0,1161.2,1453.4,1764.6,3440.7,3441.9,1658.7,1447.9,1470.9,3433.4,1021.1,1470.9,3435.8,3449.1,662.7,1352.1,932.2,544.2,1315.1,1756.0,3445.5,3447.9,758.7,1066.9,1274.7,1472.7,1155.9,1000.5,-2.0,7.0,16.0,8618.0,12520.0,-4238.0,-4410.0,6.0,19.0,2.0,-3.0,-1.0,22.0,10002.0,10111.0,5459.0,6029.0,9.0,6.0,5.0,1.0
2022-05-06 12:48:01.334251-07:00,1834.3,644.0,1169.1,1474.6,950.0,1161.2,1452.5,1759.8,3446.7,3441.9,1658.7,1447.9,1465.4,3432.2,1020.2,1462.6,3443.1,3439.5,664.4,1354.0,932.2,544.2,1315.1,1759.8,3435.8,3443.1,773.6,1063.4,1274.7,1472.7,1155.9,1003.0,1.0,12.0,13.0,8619.0,12521.0,-4237.0,-4408.0,4.0,-6.0,-10.0,-6.0,-1.0,10.0,10003.0,10111.0,5460.0,6028.0,1.0,0.0,-10.0,1.0
2022-05-06 12:48:01.362560-07:00,1834.3,650.5,1164.7,1475.5,950.0,1161.2,1452.5,1759.8,3446.7,3446.7,1652.0,1450.6,1465.4,3432.2,1020.2,1462.6,3439.5,3439.5,664.4,1354.0,934.7,542.6,1305.2,1759.8,3439.5,3443.1,773.6,1063.4,1274.7,1471.8,1155.0,1003.0,3.0,4.0,23.0,8615.0,12521.0,-4237.0,-4415.0,9.0,-4.0,0.0,0.0,-3.0,17.0,10004.0,10110.0,5462.0,6026.0,6.0,0.0,-10.0,1.0
2022-05-06 12:48:01.393057-07:00,1835.2,650.5,1164.7,1475.5,943.2,1163.8,1451.6,1759.8,3437.0,3446.7,1652.0,1450.6,1471.8,3451.6,1024.5,1462.6,3439.5,3440.7,665.2,1347.6,934.7,542.6,1305.2,1761.8,3439.5,3439.5,751.3,1059.9,1274.7,1471.8,1155.0,1003.0,2.0,5.0,17.0,8615.0,12521.0,-4237.0,-4415.0,10.0,14.0,-7.0,-4.0,-7.0,20.0,10003.0,10111.0,5462.0,6026.0,3.0,4.0,-4.0,1.0
2022-05-06 12:48:01.453747-07:00,1835.2,642.4,1163.0,1482.9,943.2,1163.8,1451.6,1760.8,3437.0,3441.9,1653.9,1450.6,1471.8,3451.6,1024.5,1472.7,3446.7,3440.7,665.2,1347.6,937.3,541.8,1310.6,1761.8,3443.1,3439.5,751.3,1059.9,1267.6,1471.8,1159.4,1003.0,0.0,10.0,12.0,8615.0,12524.0,-4234.0,-4410.0,-7.0,3.0,-12.0,-3.0,-4.0,19.0,10002.0,10112.0,5464.0,6024.0,-1.0,8.0,-11.0,1.0
2022-05-06 12:48:01.513633-07:00,1830.4,642.4,1163.0,1482.9,951.7,1156.8,1456.2,1760.8,3444.3,3441.9,1653.9,1450.6,1465.4,3446.7,1018.5,1472.7,3446.7,3439.5,662.7,1344.0,937.3,541.8,1310.6,1759.8,3443.1,3441.9,754.6,1062.5,1267.6,1471.8,1159.4,1008.2,-1.0,-1.0,20.0,8609.0,12527.0,-4232.0,-4415.0,23.0,-21.0,-16.0,-8.0,-11.0,19.0,10003.0,10111.0,5469.0,6019.0,14.0,3.0,-15.0,1.0
2022-05-06 12:48:01.543544-07:00,1830.4,645.7,1164.7,1481.0,951.7,1156.8,1449.7,1756.0,3444.3,3439.5,1653.0,1448.8,1465.4,3446.7,1030.6,1466.3,3428.6,3437.0,662.7,1344.0,943.2,542.6,1310.6,1759.8,3440.7,3438.2,754.6,1062.5,1274.7,1474.6,1157.7,1008.2,2.0,1.0,23.0,8609.0,12527.0,-4229.0,-4418.0,6.0,23.0,-7.0,-5.0,-13.0,22.0,10000.0,10113.0,5472.0,6018.0,7.0,8.0,2.0,1.0
2022-05-06 12:48:01.603323-07:00,1844.0,647.3,1164.7,1481.0,947.5,1156.8,1449.7,1756.0,3428.6,3441.9,1653.0,1448.8,1462.6,3441.9,1030.6,1466.3,3428.6,3437.0,669.3,1354.9,943.2,542.6,1315.1,1753.1,3440.7,3438.2,756.3,1072.1,1274.7,1474.6,1158.6,994.5,0.0,4.0,6.0,8609.0,12529.0,-4227.0,-4413.0,6.0,-14.0,0.0,-6.0,-3.0,14.0,9996.0,10117.0,5474.0,6017.0,10.0,5.0,-4.0,1.0
2022-05-06 12:48:01.662884-07:00,1844.0,647.3,1168.2,1477.3,947.5,1156.8,1453.4,1755.0,3428.6,3441.9,1654.9,1450.6,1462.6,3441.9,1019.4,1466.3,3434.6,3439.5,669.3,1354.9,937.3,545.8,1315.1,1753.1,3428.6,3443.1,756.3,1072.1,1269.4,1480.1,1158.6,994.5,4.0,5.0,24.0,8610.0,12526.0,-4229.0,-4418.0,-11.0,1.0,-7.0,-7.0,-1.0,16.0,9997.0,10115.0,5474.0,6018.0,-10.0,3.0,0.0,1.0
2022-05-06 12:48:01.783156-07:00,1841.1,646.5,1168.2,1477.3,949.2,1161.2,1453.4,1755.0,3435.8,3450.4,1654.9,1450.6,1470.9,3438.2,1019.4,1466.3,3434.6,3439.5,666.0,1348.5,937.3,545.8,1316.0,1756.0,3428.6,3443.1,754.6,1062.5,1269.4,1480.1,1160.3,1000.5,3.0,9.0,14.0,8617.0,12523.0,-4225.0,-4417.0,10.0,12.0,-11.0,-7.0,-4.0,23.0,9998.0,10115.0,5473.0,6018.0,13.0,7.0,-9.0,1.0
2022-05-06 12:48:01.813699-07:00,1841.1,646.5,1163.8,1478.3,949.2,1161.2,1449.7,1765.6,3435.8,3450.4,1657.7,1451.6,1470.9,3438.2,1024.5,1467.2,3432.2,3433.4,666.0,1348.5,933.0,544.2,1316.0,1756.0,3444.3,3428.6,754.6,1062.5,1272.1,1476.4,1160.3,1000.5,0.0,-2.0,15.0,8613.0,12525.0,-4223.0,-4419.0,0.0,-5.0,-1.0,-11.0,-5.0,20.0,9994.0,10116.0,5478.0,6017.0,1.0,4.0,-4.0,1.0
2022-05-06 12:48:01.814434-07:00,1839.1,644.0,1163.8,1478.3,944.9,1157.7,1449.7,1765.6,3433.4,3433.4,1657.7,1451.6,1467.2,3437.0,1024.5,1467.2,3432.2,3433.4,668.4,1349.4,933.0,544.2,1317.8,1755.0,3444.3,3428.6,755.4,1070.3,1272.1,1476.4,1159.4,1003.9,0.0,7.0,18.0,8618.0,12522.0,-4221.0,-4422.0,-19.0,2.0,-10.0,-6.0,-1.0,23.0,9997.0,10114.0,5476.0,6019.0,-21.0,1.0,-5.0,1.0
2022-05-06 12:48:01.872997-07:00,1839.1,644.0,1163.8,1477.3,944.9,1161.2,1458.9,1763.7,3433.4,3433.4,1649.2,1454.3,1467.2,3437.0,1023.7,1470.9,3438.2,3439.5,667.6,1349.4,930.5,542.6,1317.8,1755.0,3449.1,3443.1,751.3,1070.3,1268.5,1478.3,1159.4,1003.9,2.0,9.0,11.0,8626.0,12516.0,-4218.0,-4426.0,-11.0,-12.0,-4.0,-5.0,-5.0,17.0,10001.0,10110.0,5474.0,6021.0,-18.0,-2.0,-6.0,1.0
2022-05-06 12:48:01.903191-07:00,1833.3,633.5,1161.2,1477.3,942.4,1161.2,1458.9,1763.7,3435.8,3428.6,1667.2,1454.3,1458.0,3437.0,1023.7,1470.9,3438.2,3439.5,667.6,1348.5,930.5,540.2,1304.3,1758.9,3449.1,3443.1,751.3,1067.7,1268.5,1473.6,1157.7,1006.5,0.0,2.0,17.0,8635.0,12506.0,-4219.0,-4435.0,-34.0,-15.0,3.0,-6.0,-11.0,21.0,10009.0,10103.0,5468.0,6024.0,-31.0,-4.0,0.0,1.0
2022-05-06 12:48:02.203617-07:00,1833.3,633.5,1161.2,1478.3,942.4,1164.7,1456.2,1760.8,3435.8,3428.6,1667.2,1440.5,1458.0,3433.4,1025.4,1462.6,3438.2,3431.0,669.3,1348.5,933.9,540.2,1304.3,1758.9,3446.7,3445.5,757.1,1067.7,1271.2,1473.6,1157.7,1006.5,-1.0,12.0,14.0,8640.0,12501.0,-4220.0,-4440.0,10.0,-6.0,-1.0,-3.0,-4.0,22.0,10011.0,10101.0,5467.0,6025.0,-2.0,3.0,1.0,1.0
2022-05-06 12:48:02.204463-07:00,1833.3,648.9,1168.2,1478.3,942.4,1164.7,1456.2,1760.8,3444.3,3438.2,1657.7,1440.5,1470.9,3433.4,1025.4,1462.6,3438.2,3431.0,669.3,1354.0,933.9,550.6,1315.1,1764.6,3446.7,3445.5,757.1,1067.7,1271.2,1472.7,1154.2,1004.8,-3.0,5.0,16.0,8645.0,12498.0,-4217.0,-4440.0,5.0,12.0,-6.0,-5.0,-5.0,24.0,10012.0,10100.0,5466.0,6026.0,13.0,7.0,-8.0,1.0
2022-05-06 12:48:02.205574-07:00,1833.3,648.9,1168.2,1476.4,942.4,1171.8,1454.3,1757.0,3444.3,3438.2,1657.7,1447.9,1470.9,3439.5,1027.1,1466.3,3438.2,3434.6,663.6,1354.0,939.8,550.6,1315.1,1764.6,3437.0,3433.4,750.5,1067.7,1274.7,1472.7,1154.2,1004.8,-2.0,1.0,14.0,8646.0,12496.0,-4217.0,-4443.0,-13.0,-1.0,-10.0,-8.0,-8.0,15.0,10014.0,10098.0,5467.0,6025.0,-15.0,2.0,-7.0,1.0
2022-05-06 12:48:02.206922-07:00,1823.6,651.4,1166.5,1473.6,943.2,1171.8,1454.3,1757.0,3444.3,3444.3,1646.4,1451.6,1470.9,3439.5,1027.1,1466.3,3438.2,3434.6,663.6,1347.6,939.8,541.0,1317.8,1758.9,3437.0,3433.4,750.5,1068.6,1269.4,1475.5,1161.2,1007.3,-2.0,9.0,17.0,8649.0,12494.0,-4216.0,-4445.0,1.0,3.0,5.0,-5.0,0.0,22.0,10020.0,10092.0,5466.0,6026.0,1.0,5.0,5.0,1.0
2022-05-06 12:48:02.232819-07:00,1823.6,651.4,1166.5,1473.6,944.1,1155.9,1453.4,1770.4,3444.3,3444.3,1646.4,1451.6,1469.0,3437.0,1023.7,1466.3,3434.6,3444.3,662.7,1354.0,939.8,541.0,1317.8,1758.9,3441.9,3444.3,751.3,1066.9,1269.4,1475.5,1161.2,1007.3,2.0,9.0,15.0,8650.0,12494.0,-4216.0,-4445.0,19.0,-3.0,-2.0,-6.0,-5.0,16.0,10025.0,10087.0,5465.0,6027.0,7.0,-2.0,-2.0,1.0
2022-05-06 12:48:02.292913-07:00,1823.6,651.4,1166.5,1473.6,944.1,1155.9,1453.4,1770.4,3444.3,3444.3,1646.4,1451.6,1469.0,3437.0,1023.7,1466.3,3434.6,3444.3,662.7,1354.0,939.8,541.0,1317.8,1758.9,3441.9,3444.3,751.3,1066.9,1269.4,1475.5,1161.2,1007.3,2.0,9.0,15.0,8650.0,12494.0,-4216.0,-4445.0,19.0,-3.0,-2.0,-6.0,-5.0,16.0,10025.0,10087.0,5465.0,6027.0,7.0,-2.0,-2.0,1.0
2022-05-06 12:48:02.294466-07:00,1823.6,642.4,1168.2,1473.6,944.1,1156.8,1447.9,1759.8,3434.6,3449.1,1650.2,1451.6,1461.7,3440.7,1025.4,1457.1,3438.2,3449.1,657.9,1350.3,939.8,545.0,1310.6,1748.3,3441.9,3443.1,753.8,1068.6,1272.1,1472.7,1164.7,998.7,1.0,1.0,17.0,8657.0,12488.0,-4213.0,-4449.0,5.0,-4.0,1.0,-11.0,-6.0,18.0,10040.0,10071.0,5462.0,6030.0,-4.0,-3.0,3.0,1.0
2022-05-06 12:48:02.473500-07:00,1823.6,642.4,1168.2,1473.6,951.7,1161.2,1447.0,1744.5,3434.6,3449.1,1650.2,1451.6,1460.8,3440.7,1021.1,1460.8,3437.0,3440.7,666.0,1345.8,939.8,545.0,1310.6,1748.3,3450.4,3438.2,752.9,1067.7,1272.1,1472.7,1164.7,998.7,2.0,3.0,16.0,8658.0,12487.0,-4213.0,-4450.0,-7.0,3.0,-7.0,-6.0,-5.0,19.0,10044.0,10067.0,5462.0,6031.0,-3.0,3.0,-1.0,1.0
2022-05-06 12:48:02.474697-07:00,1834.3,644.0,1163.8,1481.0,951.7,1161.2,1447.0,1750.2,3443.1,3444.3,1653.9,1448.8,1460.8,3440.7,1021.1,1470.9,3432.2,3440.7,666.0,1345.8,930.5,547.4,1314.2,1766.6,3438.2,3438.2,752.9,1067.7,1268.5,1479.2,1159.4,1003.0,0.0,6.0,12.0,8658.0,12487.0,-4213.0,-4449.0,6.0,2.0,-1.0,-7.0,-2.0,12.0,10046.0,10065.0,5463.0,6030.0,4.0,1.0,-2.0,1.0
2022-05-06 12:48:02.475484-07:00,1825.5,644.0,1163.8,1481.0,948.3,1157.7,1448.8,1750.2,3443.1,3444.3,1653.9,1448.8,1460.8,3449.1,1022.8,1470.9,3432.2,3438.2,662.7,1344.0,930.5,547.4,1314.2,1760.8,3438.2,3444.3,753.8,1067.7,1268.5,1479.2,1159.4,1016.8,2.0,4.0,16.0,8660.0,12485.0,-4212.0,-4450.0,-3.0,6.0,-5.0,-4.0,-5.0,14.0,10049.0,10062.0,5463.0,6031.0,-3.0,3.0,0.0,1.0
2022-05-06 12:48:02.562932-07:00,1825.5,645.7,1164.7,1474.6,948.3,1157.7,1448.8,1758.9,3443.1,3438.2,1653.9,1450.6,1460.8,3449.1,1022.8,1470.9,3440.7,3438.2,662.7,1344.0,939.8,539.4,1314.2,1760.8,3444.3,3444.3,753.8,1067.7,1273.0,1470.9,1155.0,1016.8,-7.0,2.0,0.0,8662.0,12485.0,-4211.0,-4450.0,14.0,-3.0,0.0,-4.0,0.0,19.0,10052.0,10059.0,5462.0,6032.0,6.0,3.0,0.0,1.0
2022-05-06 12:48:02.564514-07:00,1834.3,645.7,1164.7,1474.6,951.7,1158.6,1452.5,1758.9,3440.7,3438.2,1653.9,1450.6,1463.5,3449.1,1024.5,1470.9,3440.7,3438.2,667.6,1345.8,939.8,539.4,1314.2,1756.0,3444.3,3446.7,748.0,1068.6,1273.0,1470.9,1155.0,1002.2,1.0,7.0,10.0,8660.0,12485.0,-4213.0,-4452.0,-8.0,-9.0,4.0,-6.0,-2.0,17.0,10054.0,10056.0,5462.0,6031.0,-9.0,0.0,-5.0,1.0
2022-05-06 12:48:02.593029-07:00,1834.3,645.7,1167.4,1477.3,951.7,1158.6,1452.5,1763.7,3440.7,3444.3,1659.6,1447.0,1463.5,3449.1,1024.5,1462.6,3433.4,3438.2,667.6,1345.8,937.3,541.0,1316.0,1756.0,3428.6,3446.7,748.0,1068.6,1274.7,1474.6,1159.4,1002.2,-3.0,0.0,20.0,8660.0,12485.0,-4211.0,-4453.0,-10.0,4.0,-10.0,-12.0,-11.0,18.0,10057.0,10053.0,5462.0,6032.0,-3.0,3.0,-2.0,1.0
2022-05-06 12:48:02.683601-07:00,1824.6,643.2,1167.4,1477.3,948.3,1156.8,1445.1,1763.7,3428.6,3443.1,1659.6,1447.0,1462.6,3435.8,1025.4,1462.6,3433.4,3433.4,665.2,1354.9,937.3,541.0,1309.7,1756.0,3428.6,3444.3,751.3,1068.6,1274.7,1474.6,1156.8,999.6,5.0,9.0,13.0,8658.0,12486.0,-4212.0,-4452.0,-2.0,-4.0,6.0,-3.0,-4.0,15.0,10059.0,10051.0,5463.0,6031.0,-4.0,6.0,5.0,1.0
2022-05-06 12:48:02.713660-07:00,1824.6,643.2,1165.6,1478.3,948.3,1156.8,1451.6,1753.1,3428.6,3443.1,1649.2,1453.4,1462.6,3435.8,1018.5,1462.6,3437.0,3439.5,665.2,1354.9,936.4,544.2,1309.7,1756.0,3433.4,3443.1,751.3,1068.6,1273.0,1478.3,1156.8,999.6,2.0,7.0,12.0,8658.0,12487.0,-4209.0,-4455.0,-7.0,9.0,-20.0,-5.0,-3.0,16.0,10064.0,10047.0,5461.0,6033.0,-8.0,-1.0,-9.0,1.0
2022-05-06 12:48:02.743057-07:00,1834.3,643.2,1165.6,1478.3,944.1,1157.7,1451.6,1753.1,3435.8,3445.5,1649.2,1453.4,1464.4,3439.5,1018.5,1462.6,3437.0,3439.5,670.1,1354.0,936.4,544.2,1316.0,1755.0,3433.4,3443.1,757.9,1064.3,1273.0,1478.3,1157.7,994.5,-1.0,2.0,19.0,8653.0,12490.0,-4208.0,-4455.0,24.0,-9.0,9.0,-11.0,-2.0,12.0,10066.0,10045.0,5462.0,6032.0,18.0,0.0,1.0,1.0
2022-05-06 12:48:02.833087-07:00,1834.3,643.2,1163.8,1477.3,944.1,1157.7,1446.0,1772.3,3435.8,3445.5,1655.8,1449.7,1464.4,3439.5,1016.8,1471.8,3435.8,3439.5,670.1,1354.0,932.2,546.6,1316.0,1755.0,3438.2,3449.1,757.9,1064.3,1269.4,1473.6,1157.7,994.5,2.0,7.0,9.0,8655.0,12489.0,-4207.0,-4456.0,-19.0,4.0,0.0,0.0,-3.0,12.0,10070.0,10041.0,5460.0,6034.0,-13.0,-1.0,1.0,1.0
2022-05-06 12:48:02.893507-07:00,1825.5,643.2,1163.8,1477.3,950.9,1164.7,1446.0,1772.3,3444.3,3428.6,1655.8,1449.7,1461.7,3446.7,1016.8,1471.8,3435.8,3439.5,664.4,1344.9,932.2,546.6,1310.6,1754.1,3438.2,3449.1,750.5,1069.5,1269.4,1473.6,1155.9,1003.0,0.0,6.0,16.0,8651.0,12490.0,-4210.0,-4457.0,16.0,-18.0,-5.0,-7.0,-3.0,12.0,10071.0,10040.0,5461.0,6033.0,5.0,-5.0,-6.0,1.0
2022-05-06 12:48:02.953836-07:00,1825.5,643.2,1164.7,1481.9,950.9,1163.0,1445.1,1757.0,3444.3,3428.6,1649.2,1448.8,1461.7,3449.1,1018.5,1468.1,3440.7,3438.2,664.4,1344.9,934.7,545.0,1310.6,1754.1,3438.2,3441.9,744.7,1069.5,1278.3,1471.8,1155.9,1003.0,0.0,8.0,19.0,8651.0,12488.0,-4214.0,-4458.0,-5.0,2.0,12.0,-7.0,-4.0,11.0,10074.0,10036.0,5461.0,6034.0,-2.0,-2.0,8.0,1.0
2022-05-06 12:48:02.954653-07:00,1829.4,644.9,1164.7,1481.9,948.3,1163.0,1445.1,1757.0,3443.1,3439.5,1664.4,1448.8,1464.4,3449.1,1018.5,1468.1,3440.7,3438.2,664.4,1345.8,934.7,537.0,1317.8,1753.1,3438.2,3441.9,744.7,1062.5,1278.3,1479.2,1163.0,995.3,0.0,4.0,13.0,8654.0,12490.0,-4210.0,-4452.0,31.0,16.0,-8.0,-2.0,-4.0,14.0,10075.0,10035.0,5460.0,6035.0,22.0,4.0,4.0,1.0
2022-05-06 12:48:03.013007-07:00,1829.4,644.9,1164.7,1478.3,948.3,1160.3,1453.4,1758.9,3443.1,3439.5,1664.4,1450.6,1464.4,3441.9,1026.3,1459.8,3434.6,3429.8,668.4,1345.8,935.6,537.0,1317.8,1753.1,3444.3,3432.2,752.1,1062.5,1268.5,1479.2,1163.0,995.3,1.0,4.0,17.0,8648.0,12495.0,-4208.0,-4450.0,9.0,16.0,-9.0,-4.0,-7.0,11.0,10073.0,10037.0,5463.0,6033.0,11.0,8.0,-2.0,1.0
2022-05-06 12:48:03.133306-07:00,1833.3,644.9,1168.2,1478.3,943.2,1160.3,1453.4,1758.9,3440.7,3434.6,1653.9,1450.6,1458.9,3441.9,1026.3,1459.8,3434.6,3429.8,668.4,1345.8,935.6,550.6,1309.7,1756.0,3444.3,3432.2,752.1,1062.5,1268.5,1475.5,1164.7,1005.6,0.0,12.0,10.0,8646.0,12500.0,-4199.0,-4450.0,1.0,11.0,-41.0,-5.0,-6.0,14.0,10074.0,10035.0,5463.0,6033.0,2.0,2.0,-10.0,1.0
2022-05-06 12:48:03.134549-07:00,1833.3,644.9,1168.2,1476.4,943.2,1153.3,1449.7,1745.4,3440.7,3434.6,1653.9,1454.3,1458.9,3433.4,1018.5,1469.0,3439.5,3428.6,665.2,1345.8,939.0,550.6,1309.7,1756.0,3452.8,3435.8,746.3,1062.5,1270.3,1475.5,1164.7,1005.6,0.0,-5.0,18.0,8634.0,12509.0,-4190.0,-4455.0,22.0,-1.0,-10.0,-7.0,-6.0,12.0,10070.0,10039.0,5469.0,6028.0,17.0,5.0,1.0,1.0
2022-05-06 12:48:03.135416-07:00,1824.6,640.0,1164.7,1476.4,944.1,1153.3,1449.7,1745.4,3445.5,3439.5,1641.6,1454.3,1463.5,3433.4,1018.5,1469.0,3439.5,3428.6,665.2,1345.8,939.0,545.8,1317.8,1759.8,3452.8,3435.8,746.3,1066.0,1270.3,1470.9,1163.0,1002.2,5.0,7.0,10.0,8634.0,12509.0,-4191.0,-4454.0,-9.0,1.0,5.0,-7.0,0.0,7.0,10070.0,10039.0,5469.0,6028.0,-8.0,-1.0,3.0,1.0
2022-05-06 12:48:03.253334-07:00,1824.6,640.0,1164.7,1477.3,944.9,1159.4,1450.6,1756.0,3445.5,3439.5,1641.6,1452.5,1468.1,3447.9,1017.6,1455.2,3433.4,3437.0,667.6,1353.1,937.3,545.8,1317.8,1759.8,3438.2,3438.2,756.3,1066.0,1268.5,1470.9,1163.0,1002.2,-1.0,4.0,20.0,8634.0,12509.0,-4191.0,-4454.0,7.0,1.0,1.0,-9.0,-8.0,17.0,10070.0,10039.0,5469.0,6028.0,8.0,0.0,1.0,1.0
2022-05-06 12:48:03.254424-07:00,1829.4,640.0,1156.8,1481.0,944.9,1159.4,1450.6,1756.0,3443.1,3440.7,1647.3,1453.4,1468.1,3447.9,1017.6,1455.2,3433.4,3437.0,667.6,1353.1,938.1,547.4,1309.7,1756.0,3438.2,3438.2,756.3,1066.0,1268.5,1472.7,1161.2,1003.9,1.0,8.0,19.0,8637.0,12508.0,-4191.0,-4453.0,-14.0,13.0,8.0,-5.0,-6.0,12.0,10071.0,10038.0,5468.0,6029.0,-10.0,-1.0,4.0,1.0
2022-05-06 12:48:03.283350-07:00,1829.4,640.0,1156.8,1481.0,946.6,1161.2,1449.7,1757.0,3443.1,3440.7,1647.3,1453.4,1463.5,3431.0,1021.9,1455.2,3433.4,3437.0,666.8,1348.5,938.1,547.4,1309.7,1756.0,3441.9,3449.1,745.5,1065.1,1268.5,1472.7,1161.2,1003.9,7.0,16.0,48.0,8645.0,12502.0,-4189.0,-4455.0,11.0,-13.0,-3.0,-7.0,-4.0,14.0,10069.0,10040.0,5469.0,6028.0,33.0,7.0,3.0,1.0
2022-05-06 12:48:03.343092-07:00,1825.5,641.6,1161.2,1484.7,946.6,1161.2,1449.7,1757.0,3439.5,3444.3,1643.5,1448.8,1463.5,3431.0,1021.9,1455.2,3433.4,3437.0,666.8,1348.5,937.3,544.2,1312.4,1754.1,3441.9,3449.1,745.5,1065.1,1268.5,1480.1,1159.4,1003.9,-36.0,22.0,-61.0,8607.0,12495.0,-4214.0,-4525.0,64.0,-377.0,-98.0,-8.0,37.0,4.0,10070.0,10039.0,5467.0,6030.0,-22.0,-23.0,-3.0,1.0
2022-05-06 12:48:03.433765-07:00,1825.5,641.6,1161.2,1484.7,956.8,1181.5,1456.2,1758.9,3439.5,3444.3,1643.5,1448.8,1464.4,3438.2,1444.2,1525.5,3439.5,3438.2,661.1,1348.5,937.3,544.2,1312.4,1754.1,3443.1,3439.5,752.1,1285.5,1268.5,1480.1,1159.4,1003.9,37.0,-86.0,-15.0,8635.0,12388.0,-4342.0,-4644.0,-434.0,-441.0,326.0,22.0,-45.0,-91.0,10092.0,10040.0,5433.0,6023.0,-155.0,-101.0,53.0,1.0
2022-05-06 12:48:03.434886-07:00,1864.5,644.9,1156.8,1473.6,956.8,1181.5,1456.2,1762.7,3437.0,3444.3,2225.0,1499.5,1464.4,3438.2,1444.2,1699.5,3435.8,3438.2,661.1,1348.5,939.0,541.0,1581.4,1910.5,3441.9,3439.5,752.1,1285.5,1269.4,1475.5,1154.2,1003.0,143.0,132.0,-58.0,8974.0,12117.0,-4304.0,-4751.0,-1666.0,-33.0,-8.0,2.0,110.0,9.0,10167.0,9998.0,5362.0,6030.0,-721.0,-110.0,-13.0,1.0
2022-05-06 12:48:03.492969-07:00,1980.6,644.9,1156.8,1473.6,944.9,1303.4,1461.7,1762.7,3443.1,3444.3,2225.0,1499.5,1535.7,3440.7,1735.8,1699.5,3435.8,3438.2,662.7,1349.4,939.0,541.0,1581.4,1996.5,3441.9,3443.1,795.2,1516.2,1269.4,1475.5,1154.2,1006.5,0.0,-215.0,71.0,9355.0,11885.0,-4068.0,-4807.0,-554.0,316.0,55.0,-12.0,-111.0,127.0,10351.0,9829.0,5227.0,6113.0,-251.0,-11.0,61.0,1.0
2022-05-06 12:48:03.583963-07:00,1980.6,646.5,1166.5,1482.9,944.9,1303.4,1461.7,1792.6,3443.1,3441.9,2398.7,1507.8,1535.7,3440.7,1735.8,1707.2,3433.4,3438.2,662.7,1349.4,935.6,544.2,1636.0,1996.5,3444.3,3443.1,795.2,1516.2,1269.4,1470.9,1159.4,1006.5,63.0,108.0,97.0,9404.0,11915.0,-4047.0,-4653.0,172.0,620.0,134.0,10.0,27.0,-10.0,10272.0,9894.0,5270.0,6103.0,211.0,61.0,21.0,1.0
2022-05-06 12:48:03.586406-07:00,2021.4,646.5,1166.5,1482.9,944.1,1331.4,1499.5,1792.6,3444.3,3441.9,2398.7,1507.8,1552.5,3454.0,1665.3,1707.2,3433.4,3435.8,665.2,1356.7,935.6,544.2,1636.0,1993.5,3444.3,3437.0,801.0,1509.7,1269.4,1470.9,1159.4,1003.0,-29.0,-32.0,-56.0,9491.0,11975.0,-3904.0,-4441.0,209.0,417.0,70.0,-15.0,-48.0,25.0,10233.0,9902.0,5313.0,6120.0,305.0,106.0,-13.0,1.0
2022-05-06 12:48:03.643087-07:00,2021.4,653.8,1164.7,1475.5,944.1,1331.4,1499.5,2095.7,3444.3,3435.8,2364.0,1511.5,1552.5,3454.0,1665.3,1710.0,3437.0,3435.8,665.2,1356.7,935.6,545.0,1615.2,1993.5,3440.7,3437.0,801.0,1509.7,1274.7,1478.3,1165.6,1003.0,-18.0,-21.0,-60.0,9453.0,12083.0,-3836.0,-4285.0,-174.0,308.0,-77.0,9.0,-4.0,12.0,10178.0,9946.0,5369.0,6090.0,-78.0,28.0,-34.0,1.0
2022-05-06 12:48:03.792999-07:00,1979.6,661.9,1164.7,1475.5,957.7,1367.6,1771.4,2095.7,3454.0,3441.9,2364.0,1511.5,1560.9,3438.2,1632.2,1710.0,3437.0,3434.6,670.1,1351.2,935.6,545.0,1607.7,1991.5,3440.7,3443.1,825.2,1499.5,1274.7,1478.3,1165.6,1009.9,36.0,87.0,23.0,9448.0,12087.0,-3863.0,-4260.0,93.0,-5.0,104.0,-5.0,64.0,-64.0,10156.0,9977.0,5378.0,6069.0,44.0,-56.0,1.0,1.0
2022-05-06 12:48:03.794204-07:00,1979.6,661.9,1153.3,1476.4,957.7,1367.6,1904.6,2160.5,3454.0,3441.9,2320.1,1510.6,1560.9,3438.2,1606.8,1706.2,3439.5,3449.1,670.1,1351.2,940.7,545.0,1607.7,1991.5,3446.7,3437.0,825.2,1499.5,1274.7,1475.5,1165.6,1009.9,-29.0,-32.0,-4.0,9508.0,12041.0,-3853.0,-4266.0,-117.0,-90.0,57.0,-11.0,-44.0,50.0,10216.0,9934.0,5331.0,6080.0,-108.0,-63.0,-5.0,1.0
2022-05-06 12:48:03.795449-07:00,2011.4,675.0,1153.3,1476.4,953.4,1385.7,1904.6,2160.5,3437.0,3444.3,2320.1,1510.6,1553.4,3437.0,1606.8,1706.2,3439.5,3449.1,667.6,1355.8,940.7,545.0,1585.2,1982.6,3446.7,3437.0,889.0,1483.8,1274.7,1475.5,1167.4,1018.5,36.0,47.0,22.0,9493.0,12011.0,-3938.0,-4307.0,125.0,-196.0,74.0,0.0,9.0,-23.0,10223.0,9946.0,5313.0,6064.0,63.0,-67.0,1.0,1.0
2022-05-06 12:48:03.853046-07:00,2011.4,675.0,1155.0,1466.3,953.4,1385.7,1935.1,2122.0,3437.0,3444.3,2294.2,1503.2,1553.4,3437.0,1588.9,1697.6,3439.5,3433.4,667.6,1355.8,939.0,547.4,1585.2,1982.6,3440.7,3449.1,889.0,1483.8,1266.7,1473.6,1167.4,1018.5,23.0,-22.0,43.0,9466.0,12005.0,-3969.0,-4354.0,-98.0,-69.0,-79.0,8.0,-10.0,0.0,10274.0,9909.0,5291.0,6058.0,-165.0,-40.0,-60.0,1.0
2022-05-06 12:48:03.883160-07:00,2078.5,696.2,1155.0,1466.3,945.8,1404.0,1935.1,2122.0,3435.8,3437.0,2294.2,1503.2,1555.3,3440.7,1588.9,1697.6,3439.5,3433.4,665.2,1360.3,939.0,547.4,1575.8,1987.5,3440.7,3449.1,950.0,1478.3,1266.7,1473.6,1168.2,1034.0,14.0,57.0,12.0,9475.0,11985.0,-3990.0,-4371.0,-24.0,-56.0,76.0,0.0,33.0,-19.0,10283.0,9907.0,5283.0,6052.0,-38.0,-37.0,0.0,1.0
2022-05-06 12:48:03.973595-07:00,2078.5,696.2,1150.6,1471.8,945.8,1404.0,1908.5,2095.7,3435.8,3437.0,2276.5,1498.6,1555.3,3440.7,1584.2,1698.6,3435.8,3443.1,665.2,1360.3,943.2,547.4,1575.8,1987.5,3432.2,3444.3,950.0,1478.3,1266.7,1478.3,1168.2,1034.0,-21.0,-26.0,22.0,9514.0,11956.0,-3977.0,-4376.0,-68.0,32.0,6.0,-5.0,-24.0,36.0,10310.0,9882.0,5265.0,6062.0,-39.0,-6.0,-15.0,1.0
2022-05-06 12:48:04.003075-07:00,2074.5,688.0,1153.3,1471.8,945.8,1396.7,1908.5,2095.7,3435.8,3434.6,2267.2,1498.6,1544.1,3449.1,1584.2,1698.6,3435.8,3443.1,662.7,1355.8,943.2,549.0,1558.1,1973.7,3432.2,3444.3,963.7,1453.4,1266.7,1471.8,1166.5,1076.4,22.0,35.0,17.0,9510.0,11956.0,-3996.0,-4367.0,52.0,12.0,31.0,0.0,-1.0,-13.0,10300.0,9893.0,5270.0,6058.0,25.0,4.0,11.0,1.0
2022-05-06 12:48:04.033681-07:00,2074.5,688.0,1153.3,1476.4,945.8,1381.2,1895.8,2070.5,3435.8,3434.6,2267.2,1491.2,1544.1,3444.3,1577.7,1695.7,3438.2,3438.2,664.4,1355.8,943.2,549.0,1558.1,1973.7,3446.7,3443.1,956.0,1453.4,1266.7,1471.8,1166.5,1076.4,-16.0,-22.0,17.0,9513.0,11966.0,-3978.0,-4351.0,18.0,25.0,-17.0,-7.0,-24.0,42.0,10300.0,9891.0,5273.0,6060.0,24.0,17.0,-7.0,1.0
2022-05-06 12:48:04.123639-07:00,2052.4,676.6,1150.6,1476.4,948.3,1381.2,1895.8,2070.5,3438.2,3438.2,2253.8,1491.2,1536.6,3444.3,1577.7,1695.7,3438.2,3438.2,664.4,1349.4,943.2,548.2,1559.0,1974.6,3446.7,3443.1,956.0,1441.5,1266.7,1470.0,1160.3,1066.0,14.0,20.0,5.0,9501.0,11974.0,-3991.0,-4344.0,-36.0,5.0,12.0,-9.0,8.0,-14.0,10298.0,9894.0,5274.0,6057.0,-55.0,-20.0,4.0,1.0
2022-05-06 12:48:04.153635-07:00,2052.4,676.6,1150.6,1478.3,948.3,1384.8,1871.3,2046.4,3438.2,3438.2,2253.8,1492.1,1536.6,3441.9,1573.0,1685.3,3434.6,3441.9,666.0,1349.4,933.9,548.2,1559.0,1974.6,3437.0,3454.0,950.9,1441.5,1268.5,1470.0,1160.3,1066.0,-6.0,-7.0,28.0,9520.0,11964.0,-3974.0,-4343.0,-20.0,32.0,-29.0,1.0,-15.0,26.0,10310.0,9881.0,5268.0,6062.0,26.0,15.0,-10.0,1.0
2022-05-06 12:48:04.183195-07:00,2064.5,672.5,1162.1,1478.3,942.4,1384.8,1871.3,2046.4,3450.4,3439.5,2246.6,1492.1,1539.4,3441.9,1573.0,1685.3,3434.6,3441.9,666.0,1353.1,933.9,548.2,1549.7,1975.6,3437.0,3454.0,950.9,1419.5,1268.5,1471.8,1160.3,1066.0,12.0,8.0,10.0,9516.0,11976.0,-3963.0,-4330.0,24.0,44.0,1.0,-7.0,-1.0,15.0,10309.0,9878.0,5272.0,6066.0,-4.0,1.0,0.0,1.0
2022-05-06 12:48:04.333147-07:00,2064.5,672.5,1162.1,1482.9,950.0,1375.7,1861.5,2048.4,3450.4,3439.5,2246.6,1491.2,1535.7,3443.1,1567.4,1685.3,3437.0,3438.2,659.5,1349.4,938.1,548.2,1549.7,1975.6,3444.3,3440.7,944.9,1418.6,1273.0,1471.8,1160.3,1066.0,-3.0,-4.0,10.0,9525.0,11981.0,-3943.0,-4315.0,-2.0,36.0,-14.0,-3.0,-12.0,11.0,10312.0,9873.0,5273.0,6067.0,14.0,11.0,-11.0,1.0
2022-05-06 12:48:04.334944-07:00,2062.5,679.1,1149.8,1469.0,950.0,1375.7,1861.5,2048.4,3439.5,3444.3,2241.4,1493.0,1535.7,3443.1,1567.4,1685.3,3437.0,3438.2,659.5,1349.4,939.8,548.2,1544.1,1968.7,3444.3,3440.7,944.9,1418.6,1266.7,1473.6,1169.1,1058.2,2.0,25.0,35.0,9522.0,11992.0,-3928.0,-4306.0,11.0,81.0,-58.0,-7.0,6.0,-2.0,10314.0,9869.0,5277.0,6067.0,-49.0,15.0,-14.0,1.0
2022-05-06 12:48:04.335865-07:00,2062.5,679.1,1149.8,1469.0,947.5,1381.2,1856.7,2036.4,3439.5,3444.3,2241.4,1493.0,1535.7,3438.2,1565.5,1683.3,3439.5,3433.4,666.8,1354.0,939.8,548.2,1544.1,1968.7,3444.3,3445.5,944.1,1409.4,1266.7,1473.6,1169.1,1058.2,-4.0,-15.0,3.0,9537.0,12005.0,-3879.0,-4281.0,54.0,44.0,32.0,-13.0,-20.0,33.0,10312.0,9866.0,5282.0,6072.0,54.0,5.0,6.0,1.0
2022-05-06 12:48:04.423032-07:00,2055.4,678.2,1154.2,1478.3,947.5,1381.2,1856.7,2036.4,3438.2,3445.5,2233.2,1487.5,1535.7,3438.2,1565.5,1683.3,3439.5,3433.4,666.8,1354.0,939.0,550.6,1547.8,1969.7,3444.3,3445.5,944.1,1409.4,1271.2,1475.5,1162.1,1061.7,5.0,22.0,0.0,9516.0,12021.0,-3896.0,-4267.0,56.0,3.0,-30.0,-9.0,-1.0,0.0,10306.0,9872.0,5287.0,6068.0,0.0,-10.0,-25.0,1.0
2022-05-06 12:48:04.483088-07:00,2055.4,678.2,1154.2,1478.3,948.3,1371.2,1850.8,2019.4,3438.2,3445.5,2233.2,1487.5,1529.2,3440.7,1559.9,1681.4,3438.2,3438.2,666.8,1354.0,939.0,550.6,1547.8,1969.7,3438.2,3439.5,942.4,1402.1,1271.2,1475.5,1162.1,1061.7,15.0,10.0,20.0,9509.0,12024.0,-3890.0,-4280.0,-32.0,-50.0,18.0,-9.0,0.0,8.0,10314.0,9864.0,5284.0,6069.0,-60.0,-10.0,3.0,1.0
2022-05-06 12:48:04.513095-07:00,2049.4,677.4,1147.1,1478.3,948.3,1371.2,1850.8,2025.4,3438.2,3444.3,2236.3,1483.8,1529.2,3440.7,1559.9,1674.8,3438.2,3438.2,666.8,1354.0,941.5,545.0,1540.3,1963.7,3438.2,3439.5,942.4,1402.1,1274.7,1473.6,1161.2,1057.3,8.0,20.0,14.0,9528.0,12002.0,-3898.0,-4290.0,-20.0,-39.0,2.0,-3.0,5.0,8.0,10334.0,9847.0,5268.0,6077.0,-38.0,-22.0,-7.0,1.0
2022-05-06 12:48:04.543469-07:00,2048.4,677.4,1147.1,1478.3,946.6,1371.2,1849.8,2025.4,3437.0,3444.3,2236.3,1483.8,1518.0,3445.5,1554.3,1674.8,3440.7,3437.0,665.2,1348.5,941.5,545.0,1540.3,1963.7,3446.7,3438.2,935.6,1391.2,1274.7,1473.6,1161.2,1062.5,-2.0,4.0,18.0,9527.0,11998.0,-3899.0,-4303.0,15.0,-33.0,0.0,-5.0,0.0,12.0,10344.0,9839.0,5263.0,6077.0,-8.0,-7.0,-7.0,1.0
2022-05-06 12:48:04.633160-07:00,2048.4,672.5,1143.6,1481.0,946.6,1371.2,1849.8,2017.4,3437.0,3441.9,2231.1,1477.3,1518.0,3445.5,1554.3,1671.9,3438.2,3437.0,665.2,1348.5,933.9,543.4,1537.6,1963.7,3433.4,3438.2,935.6,1391.2,1266.7,1469.0,1158.6,1062.5,10.0,17.0,9.0,9533.0,11987.0,-3910.0,-4312.0,-2.0,-25.0,16.0,-9.0,-6.0,4.0,10350.0,9832.0,5260.0,6080.0,3.0,-8.0,-1.0,1.0
2022-05-06 12:48:04.634731-07:00,2038.4,672.5,1143.6,1481.0,954.3,1369.4,1837.2,2017.4,3435.8,3441.9,2231.1,1477.3,1526.4,3440.7,1544.1,1671.9,3438.2,3438.2,666.8,1352.1,933.9,543.4,1537.6,1959.8,3433.4,3443.1,937.3,1393.9,1266.7,1469.0,1158.6,1059.9,1.0,2.0,27.0,9535.0,11984.0,-3908.0,-4318.0,10.0,-14.0,-7.0,-6.0,0.0,7.0,10355.0,9828.0,5257.0,6081.0,0.0,1.0,-2.0,1.0
2022-05-06 12:48:04.693169-07:00,2038.4,676.6,1153.3,1471.8,954.3,1369.4,1837.2,2017.4,3435.8,3454.0,2221.9,1479.2,1526.4,3440.7,1544.1,1672.9,3444.3,3438.2,666.8,1352.1,933.9,550.6,1542.2,1959.8,3444.3,3443.1,937.3,1393.9,1271.2,1473.6,1163.8,1059.9,0.0,14.0,10.0,9536.0,11983.0,-3909.0,-4314.0,10.0,14.0,6.0,-1.0,12.0,-3.0,10355.0,9827.0,5259.0,6082.0,-18.0,0.0,0.0,1.0
2022-05-06 12:48:04.812991-07:00,2051.4,676.6,1153.3,1471.8,950.0,1370.3,1844.0,2017.4,3444.3,3454.0,2221.9,1479.2,1522.7,3440.7,1546.9,1672.9,3444.3,3440.7,664.4,1345.8,933.9,550.6,1542.2,1961.8,3444.3,3440.7,933.0,1392.1,1271.2,1473.6,1163.8,1065.1,-9.0,-4.0,3.0,9530.0,11992.0,-3903.0,-4310.0,45.0,-11.0,-3.0,-4.0,-12.0,19.0,10359.0,9822.0,5258.0,6082.0,18.0,-2.0,-7.0,1.0
2022-05-06 12:48:04.814237-07:00,2051.4,672.5,1152.4,1474.6,950.0,1370.3,1838.2,2019.4,3444.3,3451.6,2216.8,1485.6,1522.7,3440.7,1545.0,1670.1,3439.5,3445.5,664.4,1345.8,939.8,547.4,1532.9,1961.8,3443.1,3450.4,933.0,1392.1,1273.9,1466.3,1163.8,1065.1,7.0,18.0,16.0,9530.0,11978.0,-3934.0,-4321.0,-72.0,-38.0,38.0,1.0,6.0,-13.0,10365.0,9819.0,5251.0,6083.0,-99.0,-26.0,15.0,1.0
2022-05-06 12:48:04.873635-07:00,2047.4,669.3,1152.4,1474.6,951.7,1369.4,1838.2,2019.4,3439.5,3428.6,2216.8,1485.6,1524.5,3447.9,1545.0,1670.1,3439.5,3445.5,666.8,1346.7,939.8,547.4,1532.9,1953.9,3443.1,3450.4,932.2,1382.1,1273.9,1466.3,1161.2,1063.4,-1.0,7.0,19.0,9552.0,11959.0,-3930.0,-4327.0,21.0,-15.0,15.0,-3.0,-12.0,32.0,10382.0,9806.0,5235.0,6090.0,37.0,4.0,14.0,1.0
2022-05-06 12:48:04.903126-07:00,2047.4,669.3,1150.6,1468.1,951.7,1369.4,1827.5,2012.4,3439.5,3428.6,2214.7,1486.6,1524.5,3447.9,1541.3,1669.1,3428.6,3441.9,666.8,1346.7,941.5,545.0,1532.9,1953.9,3444.3,3445.5,932.2,1382.1,1274.7,1469.0,1161.2,1063.4,1.0,7.0,14.0,9540.0,11963.0,-3948.0,-4329.0,8.0,-13.0,0.0,-10.0,-4.0,9.0,10374.0,9814.0,5239.0,6087.0,0.0,4.0,-5.0,1.0
2022-05-06 12:48:04.963021-07:00,2050.4,669.3,1150.6,1468.1,945.8,1368.5,1827.5,2012.4,3434.6,3438.2,2214.7,1486.6,1527.3,3444.3,1541.3,1669.1,3428.6,3441.9,674.2,1352.1,941.5,545.0,1534.8,1946.9,3444.3,3445.5,934.7,1384.8,1274.7,1469.0,1162.1,1058.2,-4.0,-10.0,6.0,9538.0,11966.0,-3942.0,-4327.0,36.0,6.0,-4.0,-11.0,-16.0,18.0,10375.0,9810.0,5242.0,6088.0,37.0,7.0,-4.0,1.0
2022-05-06 12:48:04.993050-07:00,2050.4,669.3,1152.4,1470.0,945.8,1368.5,1818.7,2001.5,3434.6,3438.2,2211.6,1485.6,1527.3,3444.3,1541.3,1669.1,3433.4,3437.0,674.2,1352.1,939.8,545.0,1534.8,1946.9,3440.7,3435.8,934.7,1384.8,1274.7,1470.0,1162.1,1058.2,10.0,8.0,13.0,9539.0,11963.0,-3950.0,-4329.0,-71.0,-18.0,5.0,0.0,-3.0,-2.0,10375.0,9812.0,5243.0,6086.0,-62.0,-18.0,2.0,1.0
2022-05-06 12:48:05.053175-07:00,2044.4,671.7,1143.6,1470.0,946.6,1364.8,1818.7,2001.5,3441.9,3440.7,2206.5,1485.6,1522.7,3439.5,1541.3,1669.1,3433.4,3437.0,665.2,1345.8,939.8,543.4,1523.6,1949.9,3440.7,3435.8,925.4,1382.1,1274.7,1474.6,1153.3,1060.8,-11.0,-10.0,27.0,9567.0,11949.0,-3924.0,-4330.0,-30.0,65.0,-27.0,0.0,-14.0,33.0,10389.0,9799.0,5232.0,6091.0,-6.0,17.0,0.0,1.0
2022-05-06 12:48:05.083631-07:00,2044.4,671.7,1143.6,1474.6,946.6,1363.9,1821.6,1990.5,3441.9,3440.7,2206.5,1485.6,1522.7,3443.1,1530.1,1669.1,3435.8,3433.4,663.6,1345.8,935.6,543.4,1523.6,1949.9,3441.9,3444.3,925.4,1382.1,1275.6,1474.6,1153.3,1060.8,14.0,24.0,-3.0,9560.0,11954.0,-3936.0,-4318.0,16.0,2.0,33.0,-4.0,8.0,-8.0,10380.0,9805.0,5239.0,6091.0,-7.0,0.0,12.0,1.0
2022-05-06 12:48:05.173626-07:00,2033.4,673.3,1147.1,1474.6,950.0,1363.9,1821.6,1990.5,3444.3,3438.2,2207.5,1485.6,1521.8,3443.1,1530.1,1669.1,3435.8,3433.4,663.6,1343.1,935.6,548.2,1525.5,1950.9,3441.9,3444.3,925.4,1382.1,1275.6,1470.0,1154.2,1063.4,-8.0,-8.0,12.0,9566.0,11952.0,-3930.0,-4317.0,20.0,-22.0,5.0,-7.0,-11.0,20.0,10388.0,9796.0,5234.0,6095.0,12.0,4.0,-4.0,1.0
2022-05-06 12:48:05.233230-07:00,2033.4,673.3,1147.1,1472.7,950.0,1363.9,1814.9,2000.5,3444.3,3438.2,2207.5,1477.3,1521.8,3439.5,1530.1,1665.3,3438.2,3437.0,659.5,1343.1,933.9,548.2,1525.5,1950.9,3441.9,3438.2,926.2,1382.1,1266.7,1470.0,1154.2,1063.4,16.0,24.0,15.0,9571.0,11945.0,-3935.0,-4321.0,-76.0,33.0,-27.0,0.0,4.0,-7.0,10391.0,9793.0,5233.0,6097.0,-77.0,2.0,8.0,1.0
2022-05-06 12:48:05.234670-07:00,2035.4,668.4,1150.6,1472.7,950.9,1363.9,1814.9,2000.5,3443.1,3446.7,2192.2,1477.3,1528.3,3439.5,1530.1,1665.3,3438.2,3437.0,659.5,1355.8,933.9,543.4,1521.8,1948.9,3441.9,3438.2,926.2,1386.6,1266.7,1470.9,1177.9,1058.2,-2.0,-6.0,12.0,9594.0,11927.0,-3917.0,-4335.0,-36.0,-12.0,-7.0,-5.0,-13.0,15.0,10416.0,9768.0,5218.0,6109.0,-42.0,0.0,-2.0,1.0
2022-05-06 12:48:05.383093-07:00,2035.4,668.4,1150.6,1475.5,950.9,1366.6,1826.5,1994.5,3443.1,3446.7,2192.2,1480.1,1528.3,3438.2,1531.0,1657.7,3434.6,3434.6,664.4,1355.8,935.6,543.4,1521.8,1948.9,3438.2,3432.2,914.4,1386.6,1274.7,1470.9,1177.9,1058.2,4.0,15.0,15.0,9585.0,11932.0,-3926.0,-4332.0,35.0,11.0,8.0,-6.0,3.0,5.0,10417.0,9766.0,5218.0,6109.0,10.0,-4.0,5.0,1.0
2022-05-06 12:48:05.442988-07:00,2037.4,668.4,1151.5,1472.7,947.5,1366.6,1826.5,1994.5,3434.6,3449.1,2199.3,1481.9,1518.0,3438.2,1531.0,1657.7,3434.6,3434.6,664.4,1342.2,935.6,543.4,1519.9,1947.9,3438.2,3432.2,914.4,1380.3,1269.4,1470.9,1159.4,1054.8,0.0,-2.0,11.0,9588.0,11930.0,-3928.0,-4330.0,10.0,-9.0,20.0,-6.0,-7.0,12.0,10418.0,9765.0,5217.0,6110.0,8.0,8.0,3.0,1.0
2022-05-06 12:48:05.444592-07:00,2037.4,668.4,1151.5,1472.7,944.1,1356.7,1817.8,1993.5,3434.6,3449.1,2199.3,1481.9,1519.0,3438.2,1529.2,1663.4,3440.7,3439.5,665.2,1342.2,935.6,543.4,1519.9,1947.9,3441.9,3438.2,921.1,1372.1,1269.4,1470.9,1159.4,1054.8,4.0,12.0,7.0,9596.0,11923.0,-3930.0,-4330.0,-39.0,-4.0,-9.0,-5.0,-7.0,8.0,10421.0,9762.0,5215.0,6111.0,-42.0,-7.0,-1.0,1.0
2022-05-06 12:48:05.473891-07:00,2038.4,661.9,1149.8,1474.6,944.1,1356.7,1817.8,1993.5,3445.5,3437.0,2198.3,1481.9,1519.0,3438.2,1529.2,1663.4,3440.7,3439.5,665.2,1342.2,933.0,540.2,1518.0,1947.9,3441.9,3438.2,921.1,1372.1,1270.3,1461.7,1159.4,1056.5,-8.0,-4.0,10.0,9599.0,11921.0,-3926.0,-4334.0,21.0,-33.0,8.0,-6.0,-11.0,30.0,10430.0,9752.0,5211.0,6115.0,6.0,1.0,0.0,1.0
2022-05-06 12:48:05.533159-07:00,2038.4,661.9,1149.8,1474.6,946.6,1354.0,1812.9,1996.5,3445.5,3437.0,2198.3,1481.9,1523.6,3446.7,1540.3,1670.1,3433.4,3432.2,668.4,1348.5,933.0,540.2,1518.0,1947.9,3441.9,3449.1,917.7,1369.4,1270.3,1461.7,1159.4,1056.5,-3.0,9.0,12.0,9596.0,11921.0,-3930.0,-4336.0,6.0,8.0,-14.0,-3.0,-6.0,16.0,10431.0,9751.0,5211.0,6115.0,-5.0,7.0,-2.0,1.0
2022-05-06 12:48:05.534967-07:00,2035.4,663.6,1155.9,1463.5,946.6,1354.0,1812.9,1996.5,3433.4,3439.5,2190.1,1471.8,1523.6,3446.7,1540.3,1670.1,3433.4,3432.2,668.4,1348.5,933.9,544.2,1520.8,1945.0,3441.9,3449.1,917.7,1369.4,1267.6,1469.0,1159.4,1052.2,-7.0,2.0,7.0,9589.0,11922.0,-3936.0,-4342.0,10.0,-42.0,7.0,-7.0,-6.0,12.0,10434.0,9748.0,5210.0,6116.0,-12.0,3.0,1.0,1.0
2022-05-06 12:48:05.593776-07:00,2039.4,663.6,1155.9,1463.5,946.6,1338.6,1806.1,1984.6,3454.0,3439.5,2190.1,1471.8,1521.8,3434.6,1536.6,1656.8,3449.1,3439.5,666.0,1347.6,933.9,544.2,1520.8,1945.9,3433.4,3446.7,922.0,1372.1,1267.6,1469.0,1159.4,1056.5,10.0,13.0,20.0,9579.0,11921.0,-3949.0,-4355.0,31.0,-13.0,-16.0,6.0,-2.0,11.0,10436.0,9746.0,5210.0,6116.0,9.0,3.0,-4.0,1.0
2022-05-06 12:48:05.654930-07:00,2039.4,665.2,1148.0,1473.6,946.6,1338.6,1806.1,1976.6,3454.0,3440.7,2183.0,1481.9,1521.8,3434.6,1536.6,1666.3,3440.7,3439.5,666.0,1347.6,939.8,545.0,1519.0,1945.9,3441.9,3446.7,922.0,1372.1,1272.1,1478.3,1157.7,1056.5,2.0,-1.0,11.0,9568.0,11925.0,-3957.0,-4360.0,53.0,-26.0,16.0,-2.0,-4.0,9.0,10436.0,9745.0,5210.0,6117.0,28.0,3.0,-5.0,1.0
2022-05-06 12:48:05.697043-07:00,2037.4,665.2,1148.0,1473.6,954.3,1357.6,1811.0,1976.6,3440.7,3440.7,2183.0,1481.9,1518.0,3444.3,1532.9,1666.3,3440.7,3438.2,666.8,1341.3,939.8,545.0,1519.0,1946.9,3441.9,3441.9,921.1,1371.2,1272.1,1478.3,1157.7,1053.0,4.0,4.0,16.0,9577.0,11917.0,-3958.0,-4363.0,-52.0,15.0,-2.0,-5.0,-6.0,7.0,10439.0,9742.0,5208.0,6119.0,-42.0,3.0,9.0,1.0
2022-05-06 12:48:05.743010-07:00,2037.4,668.4,1150.6,1465.4,954.3,1357.6,1811.0,1986.6,3440.7,3451.6,2187.1,1472.7,1518.0,3444.3,1532.9,1655.8,3429.8,3438.2,666.8,1341.3,936.4,546.6,1519.0,1946.9,3447.9,3441.9,921.1,1371.2,1274.7,1470.9,1159.4,1053.0,-6.0,-1.0,11.0,9569.0,11923.0,-3961.0,-4361.0,71.0,-13.0,1.0,-9.0,-2.0,19.0,10441.0,9739.0,5207.0,6121.0,43.0,6.0,1.0,1.0
2022-05-06 12:48:05.772953-07:00,2047.4,668.4,1150.6,1465.4,951.7,1353.1,1811.0,1986.6,3449.1,3451.6,2187.1,1472.7,1515.3,3444.3,1530.1,1655.8,3429.8,3445.5,667.6,1347.6,936.4,546.6,1519.0,1943.0,3447.9,3438.2,922.8,1363.0,1274.7,1470.9,1159.4,1048.7,0.0,7.0,8.0,9566.0,11924.0,-3968.0,-4360.0,-29.0,-7.0,8.0,-9.0,-3.0,3.0,10439.0,9742.0,5209.0,6119.0,-25.0,-10.0,0.0,1.0
2022-05-06 12:48:05.863306-07:00,2047.4,661.9,1148.9,1481.0,951.7,1353.1,1799.4,1988.5,3449.1,3444.3,2182.0,1487.5,1515.3,3444.3,1527.3,1659.6,3438.2,3438.2,667.6,1347.6,933.9,542.6,1519.9,1943.0,3450.4,3441.9,922.8,1363.0,1266.7,1470.9,1158.6,1048.7,0.0,-8.0,12.0,9570.0,11919.0,-3969.0,-4362.0,31.0,-18.0,16.0,-2.0,-5.0,8.0,10443.0,9737.0,5206.0,6120.0,17.0,-2.0,4.0,1.0
2022-05-06 12:48:05.923069-07:00,2038.4,663.6,1148.9,1481.0,941.5,1355.8,1799.4,1988.5,3435.8,3441.9,2182.0,1487.5,1519.0,3437.0,1527.3,1659.6,3438.2,3438.2,666.8,1341.3,933.9,542.6,1516.2,1937.1,3450.4,3441.9,914.4,1361.2,1266.7,1470.9,1160.3,1056.5,7.0,1.0,6.0,9568.0,11916.0,-3980.0,-4364.0,-20.0,-33.0,23.0,0.0,-1.0,0.0,10444.0,9738.0,5206.0,6119.0,-21.0,-12.0,1.0,1.0
2022-05-06 12:48:05.925675-07:00,2038.4,663.6,1142.7,1472.7,941.5,1355.8,1797.4,1968.7,3435.8,3441.9,2185.0,1478.3,1519.0,3437.0,1524.5,1648.3,3434.6,3441.9,666.8,1341.3,932.2,547.4,1516.2,1937.1,3441.9,3449.1,914.4,1361.2,1272.1,1470.0,1160.3,1056.5,5.0,14.0,21.0,9579.0,11906.0,-3983.0,-4366.0,-19.0,24.0,-14.0,0.0,-6.0,16.0,10451.0,9732.0,5200.0,6120.0,-14.0,13.0,1.0,1.0
2022-05-06 12:48:06.043740-07:00,2038.4,665.2,1142.7,1472.7,943.2,1354.9,1797.4,1968.7,3437.0,3433.4,2185.0,1478.3,1515.3,3443.1,1524.5,1648.3,3434.6,3441.9,664.4,1344.0,932.2,547.4,1515.3,1935.1,3441.9,3449.1,922.8,1358.5,1272.1,1470.0,1157.7,1050.4,0.0,2.0,7.0,9579.0,11911.0,-3974.0,-4359.0,35.0,24.0,-1.0,-6.0,-5.0,8.0,10447.0,9732.0,5206.0,6123.0,29.0,15.0,-3.0,1.0
2022-05-06 12:48:06.045233-07:00,2038.4,665.2,1145.4,1470.9,943.2,1354.9,1803.2,1969.7,3437.0,3433.4,2183.0,1479.2,1515.3,3443.1,1520.8,1649.2,3439.5,3438.2,664.4,1344.0,932.2,544.2,1515.3,1935.1,3437.0,3447.9,922.8,1358.5,1267.6,1471.8,1157.7,1050.4,0.0,4.0,4.0,9576.0,11916.0,-3974.0,-4355.0,-18.0,-5.0,8.0,-8.0,0.0,4.0,10445.0,9733.0,5209.0,6122.0,-19.0,-6.0,4.0,1.0
2022-05-06 12:48:06.103260-07:00,2033.4,659.5,1145.4,1470.9,942.4,1354.0,1803.2,1969.7,3445.5,3433.4,2183.0,1479.2,1514.3,3439.5,1520.8,1649.2,3439.5,3438.2,664.4,1346.7,932.2,544.2,1512.5,1939.0,3437.0,3447.9,916.0,1356.7,1267.6,1471.8,1156.8,1063.4,-2.0,2.0,11.0,9578.0,11912.0,-3976.0,-4359.0,6.0,-30.0,6.0,-6.0,-6.0,8.0,10448.0,9730.0,5207.0,6123.0,-4.0,-7.0,3.0,1.0
2022-05-06 12:48:06.133410-07:00,2033.4,659.5,1148.9,1480.1,942.4,1351.2,1803.2,1986.6,3445.5,3433.4,2177.9,1481.9,1514.3,3437.0,1518.0,1659.6,3433.4,3434.6,665.2,1346.7,931.3,543.4,1512.5,1939.0,3434.6,3438.2,919.4,1356.7,1269.4,1466.3,1156.8,1063.4,6.0,17.0,17.0,9580.0,11905.0,-3983.0,-4365.0,-17.0,-2.0,4.0,-1.0,-7.0,8.0,10451.0,9727.0,5205.0,6124.0,-16.0,-2.0,-2.0,1.0
2022-05-06 12:48:06.253921-07:00,2030.4,666.8,1148.9,1480.1,943.2,1351.2,1803.2,1986.6,3439.5,3431.0,2167.7,1481.9,1510.6,3437.0,1518.0,1659.6,3433.4,3434.6,665.2,1344.0,931.3,542.6,1505.1,1933.1,3434.6,3438.2,919.4,1357.6,1269.4,1462.6,1149.8,1047.8,0.0,0.0,18.0,9588.0,11899.0,-3978.0,-4369.0,-27.0,17.0,-24.0,-1.0,-12.0,9.0,10456.0,9721.0,5203.0,6126.0,-18.0,13.0,-2.0,1.0
2022-05-06 12:48:06.254770-07:00,2030.4,666.8,1148.9,1474.6,943.2,1344.9,1806.1,1986.6,3439.5,3431.0,2167.7,1485.6,1510.6,3431.0,1540.3,1656.8,3437.0,3423.7,670.1,1344.0,933.0,542.6,1505.1,1933.1,3439.5,3441.9,916.9,1357.6,1268.5,1462.6,1149.8,1047.8,21.0,29.0,-1.0,9595.0,11893.0,-3968.0,-4381.0,-108.0,-33.0,-116.0,1.0,-16.0,-20.0,10463.0,9710.0,5202.0,6134.0,-99.0,8.0,-18.0,1.0
2022-05-06 12:48:06.283375-07:00,2031.4,675.0,1150.6,1474.6,949.2,1344.9,1806.1,1986.6,3441.9,3435.8,2221.9,1485.6,1510.6,3431.0,1540.3,1656.8,3437.0,3423.7,670.1,1346.7,933.0,545.0,1513.4,1933.1,3439.5,3441.9,916.9,1363.0,1268.5,1470.0,1164.7,1047.0,-5.0,-87.0,5.0,9677.0,11864.0,-3780.0,-4446.0,-291.0,350.0,-454.0,-4.0,-35.0,104.0,10473.0,9676.0,5222.0,6153.0,118.0,166.0,-5.0,1.0
2022-05-06 12:48:06.343073-07:00,2031.4,675.0,1150.6,1480.1,949.2,1338.6,2086.6,2512.2,3441.9,3435.8,2221.9,1520.8,1510.6,3428.6,1742.6,1704.3,3439.5,3428.6,666.0,1346.7,931.3,545.0,1513.4,1933.1,3445.5,3437.0,895.7,1363.0,1273.0,1470.0,1164.7,1047.0,44.0,1.0,-69.0,9541.0,12013.0,-3717.0,-4390.0,1108.0,59.0,53.0,7.0,45.0,-34.0,10342.0,9760.0,5339.0,6140.0,496.0,177.0,9.0,1.0
2022-05-06 12:48:06.432944-07:00,2015.4,685.6,1181.5,1482.9,941.5,1338.6,2086.6,2512.2,3435.8,3446.7,2143.3,1510.6,1516.2,3428.6,1742.6,1704.3,3439.5,3428.6,666.0,1344.9,936.4,551.4,1579.6,1929.2,3445.5,3437.0,895.7,1422.2,1275.6,1478.3,1155.0,1049.6,-7.0,-35.0,79.0,9012.0,12314.0,-4117.0,-4318.0,1470.0,-1034.0,539.0,-25.0,-31.0,-47.0,10152.0,9914.0,5463.0,6102.0,787.0,72.0,83.0,1.0
2022-05-06 12:48:06.553591-07:00,2015.4,685.6,1181.5,1482.9,942.4,1331.4,1941.0,2450.4,3435.8,3446.7,2143.3,1510.6,1519.0,3439.5,1598.3,1688.1,3432.2,3432.2,667.6,1347.6,936.4,551.4,1579.6,1929.2,3438.2,3444.3,865.4,1434.1,1275.6,1478.3,1155.0,1049.6,0.0,-45.0,-48.0,8805.0,12391.0,-4325.0,-4320.0,98.0,-160.0,-176.0,-10.0,-85.0,0.0,10068.0,9989.0,5496.0,6091.0,-128.0,33.0,32.0,1.0
2022-05-06 12:48:06.613114-07:00,1982.6,692.1,1188.5,1480.1,942.4,1331.4,1941.0,2450.4,3452.8,3441.9,1954.8,1497.7,1519.0,3439.5,1598.3,1688.1,3432.2,3432.2,667.6,1347.6,928.8,547.4,1600.2,1982.6,3438.2,3444.3,865.4,1434.1,1273.0,1470.0,1175.3,1050.4,19.0,82.0,96.0,8612.0,12513.0,-4307.0,-4375.0,154.0,236.0,-363.0,9.0,54.0,80.0,10014.0,10040.0,5532.0,6061.0,255.0,47.0,-17.0,1.0
2022-05-06 12:48:06.616099-07:00,1982.6,692.1,1188.5,1480.1,939.0,1295.4,1731.1,2102.7,3452.8,3441.9,1954.8,1497.7,1514.3,3441.9,1346.7,1632.2,3438.2,3435.8,663.6,1345.8,928.8,547.4,1600.2,1982.6,3440.7,3443.1,850.3,1356.7,1273.0,1470.0,1175.3,1050.4,-4.0,-52.0,24.0,8560.0,12610.0,-4170.0,-4333.0,428.0,240.0,-135.0,-2.0,-20.0,-1.0,9965.0,10069.0,5583.0,6047.0,353.0,67.0,-19.0,1.0
2022-05-06 12:48:06.617021-07:00,2001.5,700.3,1188.5,1476.4,939.0,1295.4,1731.1,2102.7,3440.7,3437.0,1865.4,1493.0,1514.3,3441.9,1346.7,1632.2,3438.2,3435.8,663.6,1345.8,935.6,550.6,1536.6,1948.9,3440.7,3443.1,850.3,1356.7,1273.0,1469.0,1160.3,1046.1,-5.0,36.0,-26.0,8442.0,12729.0,-4140.0,-4241.0,200.0,175.0,-30.0,-9.0,30.0,-1.0,9865.0,10153.0,5643.0,6015.0,238.0,31.0,36.0,1.0
2022-05-06 12:48:06.642997-07:00,2001.5,700.3,1188.5,1476.4,938.1,1284.6,1671.9,1940.0,3440.7,3437.0,1865.4,1493.0,1514.3,3429.8,1272.1,1600.2,3439.5,3444.3,673.3,1342.2,935.6,550.6,1536.6,1948.9,3444.3,3443.1,832.7,1310.6,1273.0,1469.0,1160.3,1046.1,-25.0,1.0,-41.0,8432.0,12756.0,-4130.0,-4191.0,7.0,-116.0,100.0,-10.0,3.0,8.0,9846.0,10170.0,5642.0,6018.0,-9.0,-18.0,44.0,1.0
2022-05-06 12:48:06.733306-07:00,1993.5,688.9,1170.9,1483.8,938.1,1284.6,1671.9,2003.5,3446.7,3440.7,1842.0,1481.0,1514.3,3429.8,1272.1,1592.7,3440.7,3444.3,673.3,1342.2,933.0,557.0,1471.8,1927.2,3449.1,3443.1,832.7,1310.6,1273.0,1466.3,1161.2,1040.9,3.0,16.0,12.0,8448.0,12721.0,-4168.0,-4227.0,-210.0,-92.0,16.0,1.0,0.0,16.0,9883.0,10149.0,5602.0,6031.0,-189.0,-48.0,21.0,1.0
2022-05-06 12:48:06.734418-07:00,1990.5,688.9,1170.9,1483.8,953.4,1265.8,1693.8,2003.5,3447.9,3440.7,1842.0,1481.0,1503.2,3443.1,1252.4,1592.7,3440.7,3444.3,664.4,1338.6,933.0,557.0,1471.8,1916.4,3449.1,3440.7,830.2,1273.0,1273.0,1466.3,1161.2,1040.1,1.0,-12.0,22.0,8502.0,12670.0,-4177.0,-4264.0,16.0,-118.0,68.0,-3.0,-31.0,19.0,9928.0,10116.0,5560.0,6053.0,-46.0,-18.0,25.0,1.0
2022-05-06 12:48:06.793056-07:00,1990.5,684.8,1162.1,1477.3,953.4,1265.8,1693.8,2047.4,3447.9,3449.1,1824.6,1481.0,1503.2,3443.1,1252.4,1582.4,3437.0,3444.3,664.4,1338.6,927.9,550.6,1438.7,1916.4,3441.9,3440.7,830.2,1273.0,1262.2,1468.1,1161.2,1040.1,7.0,43.0,49.0,8497.0,12664.0,-4197.0,-4270.0,-106.0,100.0,-46.0,2.0,6.0,10.0,9931.0,10118.0,5551.0,6051.0,-45.0,-11.0,-4.0,1.0
2022-05-06 12:48:06.823052-07:00,1987.5,684.8,1162.1,1477.3,946.6,1260.4,1697.6,2047.4,3451.6,3449.1,1824.6,1481.0,1507.8,3443.1,1230.2,1582.4,3437.0,3437.0,670.1,1335.0,927.9,550.6,1438.7,1910.5,3441.9,3438.2,825.2,1249.7,1262.2,1468.1,1161.2,1034.9,-1.0,-4.0,0.0,8522.0,12668.0,-4157.0,-4249.0,43.0,45.0,7.0,-7.0,-3.0,12.0,9927.0,10116.0,5557.0,6056.0,79.0,28.0,9.0,1.0
2022-05-06 12:48:06.912914-07:00,1987.5,684.8,1163.8,1490.3,946.6,1260.4,1697.6,2041.4,3451.6,3445.5,1816.8,1478.3,1507.8,3443.1,1230.2,1573.9,3438.2,3437.0,670.1,1335.0,933.9,551.4,1427.7,1910.5,3434.6,3438.2,825.2,1249.7,1273.9,1471.8,1156.8,1034.9,10.0,23.0,2.0,8516.0,12666.0,-4180.0,-4242.0,-6.0,-31.0,47.0,-9.0,3.0,-13.0,9913.0,10125.0,5567.0,6055.0,-7.0,-7.0,9.0,1.0
2022-05-06 12:48:06.973039-07:00,1974.6,676.6,1163.8,1490.3,953.4,1256.0,1680.5,2041.4,3441.9,3441.9,1816.8,1478.3,1502.3,3440.7,1221.3,1573.9,3438.2,3440.7,667.6,1340.4,933.9,551.4,1415.8,1895.8,3434.6,3441.9,821.9,1243.5,1273.9,1471.8,1153.3,1035.7,-6.0,-20.0,20.0,8540.0,12647.0,-4179.0,-4253.0,-55.0,-40.0,14.0,-11.0,-10.0,13.0,9934.0,10112.0,5553.0,6056.0,-56.0,-19.0,-5.0,1.0
2022-05-06 12:48:07.003672-07:00,1974.6,676.6,1162.1,1475.5,953.4,1256.0,1670.1,2022.4,3441.9,3441.9,1806.1,1479.2,1502.3,3440.7,1216.0,1564.6,3441.9,3439.5,667.6,1340.4,932.2,553.8,1415.8,1895.8,3444.3,3445.5,821.9,1243.5,1274.7,1462.6,1153.3,1035.7,-6.0,14.0,27.0,8552.0,12632.0,-4194.0,-4258.0,-53.0,12.0,17.0,-2.0,-13.0,20.0,9941.0,10110.0,5542.0,6058.0,-39.0,-12.0,21.0,1.0
2022-05-06 12:48:07.272910-07:00,1977.6,671.7,1162.1,1475.5,944.1,1256.9,1670.1,2022.4,3439.5,3441.9,1806.1,1479.2,1500.4,3438.2,1216.0,1564.6,3441.9,3439.5,666.0,1336.8,932.2,553.8,1411.3,1890.9,3444.3,3445.5,814.4,1235.5,1274.7,1462.6,1157.7,1036.6,7.0,13.0,16.0,8571.0,12627.0,-4184.0,-4247.0,-7.0,70.0,-4.0,-5.0,-2.0,7.0,9939.0,10111.0,5539.0,6062.0,33.0,3.0,4.0,1.0
2022-05-06 12:48:07.274065-07:00,1977.6,671.7,1164.7,1472.7,944.1,1256.9,1666.3,2005.5,3439.5,3441.9,1799.4,1471.8,1500.4,3438.2,1212.4,1563.7,3431.0,3441.9,666.0,1336.8,930.5,543.4,1411.3,1890.9,3428.6,3449.1,814.4,1235.5,1266.7,1472.7,1157.7,1036.6,0.0,8.0,8.0,8575.0,12639.0,-4158.0,-4226.0,2.0,64.0,-39.0,-3.0,2.0,9.0,9931.0,10116.0,5545.0,6060.0,8.0,21.0,-11.0,1.0
2022-05-06 12:48:07.275048-07:00,1972.7,674.2,1164.7,1472.7,950.9,1246.2,1666.3,2005.5,3440.7,3435.8,1799.4,1471.8,1494.0,3438.2,1212.4,1563.7,3431.0,3441.9,661.9,1340.4,930.5,543.4,1402.1,1879.1,3428.6,3449.1,817.7,1231.9,1266.7,1472.7,1161.2,1040.1,3.0,11.0,4.0,8576.0,12641.0,-4154.0,-4223.0,1.0,-11.0,26.0,-5.0,6.0,-2.0,9931.0,10112.0,5548.0,6064.0,-10.0,-4.0,4.0,1.0
2022-05-06 12:48:07.276108-07:00,1972.7,674.2,1161.2,1481.0,950.9,1243.5,1678.6,2040.4,3440.7,3435.8,1785.8,1477.3,1494.0,3443.1,1194.7,1563.7,3423.7,3441.9,664.4,1340.4,930.5,545.8,1402.1,1879.1,3439.5,3449.1,818.5,1231.9,1273.0,1470.0,1161.2,1040.1,-3.0,-6.0,16.0,8596.0,12626.0,-4152.0,-4231.0,-43.0,-37.0,6.0,-6.0,-11.0,14.0,9948.0,10101.0,5536.0,6067.0,-53.0,-13.0,2.0,1.0
2022-05-06 12:48:07.278081-07:00,1956.8,679.1,1157.7,1481.0,947.5,1243.5,1678.6,2040.4,3445.5,3435.8,1787.8,1477.3,1494.9,3443.1,1194.7,1563.7,3423.7,3441.9,664.4,1329.6,930.5,546.6,1403.0,1883.0,3439.5,3449.1,818.5,1226.6,1273.0,1470.0,1157.7,1030.6,3.0,13.0,19.0,8604.0,12616.0,-4157.0,-4238.0,-29.0,13.0,1.0,-6.0,1.0,11.0,9955.0,10094.0,5531.0,6070.0,-24.0,0.0,9.0,1.0
2022-05-06 12:48:07.334392-07:00,1951.9,680.7,1163.0,1477.3,948.3,1248.0,1670.1,2022.4,3432.2,3444.3,1785.8,1477.3,1488.4,3445.5,1193.8,1558.1,3428.6,3439.5,665.2,1335.9,928.8,546.6,1398.5,1874.2,3438.2,3437.0,808.5,1216.8,1273.0,1472.7,1150.6,1026.3,6.0,4.0,7.0,8621.0,12611.0,-4148.0,-4226.0,-9.0,-8.0,21.0,-2.0,-2.0,1.0,9956.0,10092.0,5532.0,6071.0,-3.0,-2.0,7.0,1.0
2022-05-06 12:48:07.423016-07:00,1951.9,680.7,1163.0,1479.2,948.3,1247.1,1661.5,2011.4,3432.2,3444.3,1785.8,1472.7,1488.4,3438.2,1189.4,1556.2,3435.8,3439.5,661.1,1335.9,932.2,546.6,1398.5,1874.2,3441.9,3438.2,808.5,1216.8,1271.2,1472.7,1150.6,1026.3,0.0,0.0,12.0,8632.0,12603.0,-4154.0,-4222.0,1.0,-16.0,22.0,-2.0,-8.0,11.0,9962.0,10087.0,5528.0,6074.0,2.0,-2.0,-1.0,1.0
2022-05-06 12:48:07.424169-07:00,1957.8,670.9,1165.6,1479.2,944.9,1247.1,1661.5,2011.4,3439.5,3439.5,1771.4,1472.7,1488.4,3438.2,1189.4,1556.2,3435.8,3439.5,661.1,1338.6,932.2,540.2,1393.0,1877.2,3441.9,3438.2,808.5,1220.4,1271.2,1465.4,1157.7,1040.9,5.0,13.0,22.0,8624.0,12604.0,-4165.0,-4225.0,7.0,1.0,-1.0,-2.0,0.0,8.0,9956.0,10092.0,5532.0,6071.0,11.0,3.0,6.0,1.0
2022-05-06 12:48:07.483222-07:00,1957.8,670.9,1165.6,1475.5,942.4,1231.9,1657.7,2010.4,3439.5,3439.5,1771.4,1474.6,1498.6,3433.4,1196.5,1556.2,3437.0,3438.2,666.0,1331.4,931.3,540.2,1393.0,1877.2,3433.4,3444.3,808.5,1212.4,1268.5,1465.4,1157.7,1040.9,0.0,7.0,-1.0,8635.0,12601.0,-4158.0,-4219.0,2.0,20.0,12.0,0.0,-5.0,10.0,9955.0,10091.0,5534.0,6072.0,12.0,8.0,0.0,1.0
2022-05-06 12:48:07.633245-07:00,1951.9,671.7,1160.3,1486.6,942.4,1231.9,1657.7,2010.4,3440.7,3438.2,1776.2,1471.8,1498.6,3433.4,1196.5,1556.2,3437.0,3438.2,666.0,1331.4,925.4,545.8,1393.9,1871.3,3433.4,3444.3,808.5,1212.4,1276.5,1469.0,1151.5,1029.7,8.0,7.0,10.0,8633.0,12598.0,-4164.0,-4225.0,-10.0,-15.0,-1.0,-2.0,0.0,1.0,9954.0,10093.0,5534.0,6070.0,1.0,-11.0,-2.0,1.0
2022-05-06 12:48:07.634961-07:00,1951.9,671.7,1160.3,1486.6,942.4,1239.1,1662.5,2037.4,3440.7,3438.2,1776.2,1471.8,1493.0,3439.5,1181.5,1549.7,3439.5,3437.0,670.9,1339.5,925.4,545.8,1393.9,1871.3,3438.2,3438.2,812.7,1209.7,1276.5,1469.0,1151.5,1029.7,0.0,1.0,9.0,8640.0,12595.0,-4156.0,-4227.0,11.0,-7.0,-8.0,0.0,-5.0,10.0,9958.0,10090.0,5532.0,6072.0,13.0,2.0,-6.0,1.0
2022-05-06 12:48:07.635720-07:00,1952.9,674.2,1169.1,1476.4,942.4,1239.1,1662.5,2037.4,3434.6,3431.0,1768.5,1470.9,1493.0,3439.5,1181.5,1549.7,3439.5,3437.0,670.9,1339.5,931.3,544.2,1385.7,1863.5,3438.2,3438.2,812.7,1209.7,1271.2,1469.0,1159.4,1021.9,3.0,7.0,8.0,8646.0,12589.0,-4158.0,-4233.0,-62.0,-3.0,0.0,0.0,-6.0,8.0,9961.0,10087.0,5531.0,6073.0,-47.0,-5.0,-4.0,1.0
2022-05-06 12:48:07.693614-07:00,1952.9,674.2,1169.1,1476.4,948.3,1239.1,1653.9,2008.4,3434.6,3431.0,1768.5,1470.9,1494.0,3441.9,1180.6,1551.5,3445.5,3437.0,670.1,1333.2,931.3,544.2,1385.7,1863.5,3439.5,3449.1,804.4,1207.1,1271.2,1469.0,1159.4,1021.9,0.0,-5.0,16.0,8656.0,12579.0,-4157.0,-4241.0,16.0,-35.0,0.0,-4.0,0.0,13.0,9970.0,10078.0,5527.0,6076.0,8.0,-5.0,-7.0,1.0
2022-05-06 12:48:07.753160-07:00,1951.9,671.7,1158.6,1485.6,948.3,1239.1,1653.9,2010.4,3439.5,3438.2,1766.6,1469.0,1494.0,3441.9,1180.6,1545.0,3427.4,3437.0,670.1,1333.2,927.1,542.6,1394.8,1863.5,3433.4,3449.1,804.4,1207.1,1267.6,1473.6,1155.9,1026.3,5.0,1.0,16.0,8654.0,12574.0,-4170.0,-4250.0,-4.0,-27.0,23.0,-3.0,0.0,4.0,9971.0,10077.0,5527.0,6076.0,-10.0,-4.0,9.0,1.0
2022-05-06 12:48:07.872987-07:00,1967.7,671.7,1158.6,1485.6,944.9,1239.1,1653.9,2010.4,3438.2,3438.2,1766.6,1469.0,1486.6,3439.5,1183.2,1545.0,3427.4,3437.0,663.6,1332.3,927.1,542.6,1394.8,1868.4,3433.4,3447.9,801.0,1205.3,1267.6,1473.6,1155.9,1018.5,-8.0,-6.0,10.0,8663.0,12568.0,-4169.0,-4248.0,8.0,-12.0,3.0,-2.0,-16.0,13.0,9977.0,10072.0,5524.0,6079.0,-4.0,6.0,-5.0,1.0
2022-05-06 12:48:07.993606-07:00,1967.7,673.3,1156.8,1470.9,944.9,1239.1,1653.9,1991.5,3438.2,3444.3,1761.8,1466.3,1486.6,3439.5,1183.2,1547.8,3435.8,3437.0,663.6,1332.3,927.9,543.4,1390.3,1868.4,3439.5,3447.9,801.0,1205.3,1274.7,1469.0,1161.2,1018.5,0.0,16.0,7.0,8639.0,12571.0,-4196.0,-4262.0,10.0,-82.0,12.0,-6.0,6.0,-2.0,9968.0,10080.0,5530.0,6073.0,17.0,0.0,-5.0,1.0
2022-05-06 12:48:07.994513-07:00,1946.9,673.3,1156.8,1470.9,949.2,1233.7,1640.7,1991.5,3444.3,3444.3,1761.8,1466.3,1484.7,3431.0,1182.3,1547.8,3435.8,3439.5,661.9,1341.3,927.9,543.4,1390.3,1865.4,3439.5,3449.1,801.9,1206.2,1274.7,1469.0,1161.2,1027.1,0.0,10.0,19.0,8641.0,12559.0,-4211.0,-4278.0,20.0,-37.0,13.0,0.0,-6.0,13.0,9975.0,10076.0,5524.0,6074.0,5.0,-14.0,7.0,1.0
2022-05-06 12:48:07.995489-07:00,1946.9,665.2,1161.2,1475.5,949.2,1233.7,1640.7,1972.7,3444.3,3438.2,1757.9,1464.4,1484.7,3431.0,1182.3,1540.3,3428.6,3439.5,661.9,1341.3,931.3,545.8,1385.7,1865.4,3446.7,3449.1,801.9,1206.2,1279.2,1468.1,1155.9,1027.1,1.0,9.0,16.0,8636.0,12561.0,-4213.0,-4282.0,36.0,-9.0,-11.0,1.0,0.0,17.0,9970.0,10081.0,5527.0,6071.0,30.0,6.0,-9.0,1.0
2022-05-06 12:48:07.996786-07:00,1946.9,665.2,1161.2,1475.5,943.2,1235.5,1633.1,1972.7,3435.8,3438.2,1757.9,1464.4,1488.4,3445.5,1177.0,1540.3,3428.6,3439.5,666.0,1339.5,931.3,545.8,1385.7,1865.4,3446.7,3458.9,811.0,1200.0,1279.2,1468.1,1155.9,1028.0,1.0,4.0,6.0,8630.0,12564.0,-4217.0,-4280.0,16.0,-12.0,13.0,-5.0,-5.0,0.0,9963.0,10086.0,5532.0,6070.0,16.0,5.0,2.0,1.0
2022-05-06 12:48:08.022946-07:00,1946.9,665.2,1162.1,1474.6,943.2,1235.5,1635.0,1973.7,3435.8,3437.0,1762.7,1467.2,1488.4,3445.5,1176.2,1545.0,3437.0,3433.4,666.0,1339.5,933.9,546.6,1384.8,1865.4,3443.1,3449.1,811.0,1200.0,1266.7,1473.6,1153.3,1028.0,8.0,1.0,16.0,8640.0,12556.0,-4216.0,-4284.0,-38.0,6.0,-3.0,0.0,-4.0,6.0,9967.0,10082.0,5530.0,6072.0,-25.0,-1.0,1.0,1.0
2022-05-06 12:48:08.143793-07:00,1938.0,664.4,1162.1,1474.6,940.7,1232.8,1635.0,1973.7,3435.8,3439.5,1762.7,1467.2,1483.8,3437.0,1176.2,1545.0,3437.0,3433.4,664.4,1335.0,933.9,546.6,1383.9,1849.8,3443.1,3449.1,801.9,1205.3,1266.7,1473.6,1155.0,1017.6,2.0,10.0,12.0,8642.0,12559.0,-4204.0,-4282.0,5.0,16.0,-27.0,-2.0,0.0,4.0,9967.0,10081.0,5531.0,6071.0,10.0,8.0,-11.0,1.0
2022-05-06 12:48:08.144706-07:00,1938.0,664.4,1158.6,1478.3,940.7,1232.8,1633.1,1984.6,3435.8,3439.5,1757.0,1470.9,1483.8,3437.0,1173.5,1544.1,3423.7,3428.6,664.4,1335.0,933.0,545.8,1383.9,1849.8,3437.0,3441.9,801.9,1205.3,1274.7,1472.7,1155.0,1017.6,-1.0,-3.0,10.0,8651.0,12560.0,-4191.0,-4276.0,-4.0,29.0,11.0,-6.0,-4.0,8.0,9967.0,10081.0,5533.0,6071.0,9.0,10.0,5.0,1.0
2022-05-06 12:48:08.233251-07:00,1947.9,665.2,1158.6,1478.3,941.5,1231.9,1633.1,1984.6,3439.5,3437.0,1757.0,1470.9,1482.9,3440.7,1173.5,1544.1,3423.7,3428.6,666.8,1329.6,933.0,545.8,1383.0,1854.7,3437.0,3441.9,800.2,1190.3,1274.7,1472.7,1151.5,1028.8,3.0,9.0,0.0,8646.0,12566.0,-4190.0,-4269.0,39.0,-2.0,-11.0,0.0,-2.0,5.0,9962.0,10084.0,5535.0,6072.0,26.0,4.0,2.0,1.0
2022-05-06 12:48:08.234394-07:00,1947.9,665.2,1159.4,1478.3,941.5,1231.9,1639.8,1979.6,3439.5,3437.0,1760.8,1481.9,1482.9,3440.7,1177.9,1541.3,3433.4,3433.4,666.8,1329.6,929.6,545.0,1383.0,1854.7,3441.9,3443.1,800.2,1190.3,1272.1,1471.8,1151.5,1028.8,2.0,-2.0,8.0,8651.0,12562.0,-4188.0,-4274.0,-26.0,-17.0,9.0,-1.0,-4.0,7.0,9966.0,10080.0,5533.0,6074.0,-24.0,-5.0,-1.0,1.0
2022-05-06 12:48:08.263670-07:00,1937.1,669.3,1162.1,1478.3,945.8,1238.2,1639.8,1979.6,3443.1,3431.0,1752.1,1481.9,1482.9,3433.4,1177.9,1541.3,3433.4,3433.4,663.6,1330.5,929.6,541.0,1374.8,1845.9,3441.9,3443.1,801.9,1195.6,1272.1,1466.3,1148.9,1023.7,-3.0,0.0,2.0,8657.0,12552.0,-4201.0,-4276.0,12.0,-20.0,38.0,-5.0,-9.0,14.0,9972.0,10074.0,5528.0,6078.0,-6.0,0.0,9.0,1.0
2022-05-06 12:48:08.383185-07:00,1937.1,669.3,1162.1,1473.6,945.8,1233.7,1636.9,1975.6,3443.1,3431.0,1752.1,1470.0,1482.9,3443.1,1164.7,1545.0,3438.2,3433.4,666.8,1330.5,936.4,541.0,1374.8,1845.9,3449.1,3438.2,802.7,1195.6,1272.1,1466.3,1148.9,1023.7,5.0,24.0,3.0,8651.0,12547.0,-4218.0,-4288.0,-26.0,-52.0,-19.0,-6.0,2.0,4.0,9975.0,10074.0,5525.0,6077.0,-29.0,-17.0,-8.0,1.0
2022-05-06 12:48:08.385023-07:00,1946.9,665.2,1157.7,1473.6,943.2,1233.7,1636.9,1975.6,3435.8,3428.6,1754.1,1470.0,1485.6,3443.1,1164.7,1545.0,3438.2,3433.4,666.8,1339.5,936.4,543.4,1380.3,1855.7,3449.1,3438.2,802.7,1188.5,1272.1,1464.4,1158.6,1019.4,-1.0,-8.0,20.0,8665.0,12536.0,-4206.0,-4302.0,-22.0,-5.0,-3.0,-9.0,-11.0,14.0,9983.0,10067.0,5521.0,6079.0,-5.0,3.0,2.0,1.0
2022-05-06 12:48:08.412878-07:00,1946.9,665.2,1157.7,1476.4,943.2,1231.0,1626.5,1974.6,3435.8,3428.6,1754.1,1462.6,1485.6,3441.9,1170.0,1544.1,3434.6,3439.5,668.4,1339.5,928.8,543.4,1380.3,1855.7,3445.5,3441.9,805.2,1188.5,1266.7,1464.4,1158.6,1019.4,6.0,16.0,3.0,8662.0,12538.0,-4209.0,-4299.0,5.0,3.0,-8.0,0.0,7.0,1.0,9976.0,10072.0,5526.0,6078.0,12.0,10.0,-4.0,1.0
2022-05-06 12:48:08.473955-07:00,1939.0,673.3,1155.9,1476.4,939.0,1231.0,1626.5,1974.6,3438.2,3428.6,1750.2,1462.6,1485.6,3441.9,1170.0,1544.1,3434.6,3439.5,668.4,1330.5,928.8,543.4,1372.1,1855.7,3445.5,3441.9,805.2,1190.3,1266.7,1471.8,1153.3,1024.5,-2.0,-4.0,14.0,8664.0,12542.0,-4196.0,-4299.0,2.0,6.0,-14.0,-3.0,-11.0,13.0,9976.0,10072.0,5529.0,6075.0,10.0,8.0,-5.0,1.0
2022-05-06 12:48:08.533411-07:00,1939.0,673.3,1155.9,1471.8,943.2,1230.2,1623.7,1968.7,3438.2,3428.6,1750.2,1472.7,1477.3,3440.7,1163.8,1545.0,3437.0,3438.2,670.1,1336.8,927.9,543.4,1372.1,1855.7,3438.2,3450.4,796.0,1192.9,1270.3,1471.8,1153.3,1024.5,2.0,7.0,13.0,8670.0,12540.0,-4193.0,-4293.0,-18.0,33.0,7.0,-2.0,-3.0,9.0,9977.0,10071.0,5528.0,6076.0,-12.0,-1.0,8.0,1.0
2022-05-06 12:48:08.563421-07:00,1937.1,666.0,1159.4,1478.3,943.2,1230.2,1623.7,1968.7,3440.7,3438.2,1740.6,1466.3,1477.3,3440.7,1163.8,1545.0,3437.0,3438.2,670.1,1336.8,933.0,542.6,1373.0,1846.9,3438.2,3450.4,796.0,1192.9,1270.3,1470.0,1157.7,1023.7,1.0,7.0,18.0,8675.0,12542.0,-4183.0,-4288.0,7.0,24.0,-21.0,1.0,3.0,14.0,9975.0,10073.0,5529.0,6075.0,11.0,8.0,-5.0,1.0
2022-05-06 12:48:08.654690-07:00,1937.1,666.0,1159.4,1478.3,944.1,1229.3,1619.0,1963.7,3440.7,3438.2,1740.6,1466.3,1477.3,3428.6,1167.4,1539.4,3443.1,3440.7,666.0,1331.4,933.0,542.6,1373.0,1846.9,3443.1,3445.5,794.4,1189.4,1270.3,1470.0,1157.7,1023.7,4.0,5.0,14.0,8675.0,12544.0,-4177.0,-4289.0,11.0,-8.0,-12.0,-6.0,-5.0,4.0,9974.0,10072.0,5530.0,6076.0,0.0,-3.0,-6.0,1.0
2022-05-06 12:48:08.743273-07:00,1932.1,666.8,1149.8,1472.7,944.1,1229.3,1619.0,1963.7,3443.1,3437.0,1753.1,1461.7,1477.3,3428.6,1167.4,1539.4,3443.1,3440.7,666.0,1331.4,925.4,542.6,1373.9,1847.9,3443.1,3445.5,794.4,1189.4,1266.7,1467.2,1153.3,1028.8,0.0,8.0,14.0,8677.0,12544.0,-4169.0,-4290.0,-2.0,25.0,-25.0,-4.0,-5.0,13.0,9976.0,10070.0,5530.0,6077.0,3.0,-5.0,-2.0,1.0
2022-05-06 12:48:08.745040-07:00,1932.1,666.8,1149.8,1472.7,946.6,1228.4,1626.5,1969.7,3443.1,3437.0,1753.1,1461.7,1472.7,3438.2,1168.2,1536.6,3444.3,3438.2,666.8,1324.1,925.4,542.6,1373.9,1847.9,3445.5,3443.1,776.1,1180.6,1266.7,1467.2,1153.3,1028.8,0.0,-4.0,2.0,8683.0,12546.0,-4156.0,-4287.0,17.0,13.0,0.0,-7.0,-7.0,8.0,9975.0,10072.0,5530.0,6076.0,21.0,5.0,1.0,1.0
2022-05-06 12:48:08.803074-07:00,1930.2,657.9,1155.0,1476.4,946.6,1228.4,1626.5,1969.7,3433.4,3444.3,1736.8,1465.4,1472.7,3438.2,1168.2,1536.6,3444.3,3438.2,666.8,1324.1,927.9,541.8,1373.0,1851.8,3445.5,3443.1,776.1,1180.6,1269.4,1473.6,1160.3,1021.9,1.0,15.0,6.0,8681.0,12548.0,-4158.0,-4282.0,-35.0,10.0,4.0,-8.0,3.0,5.0,9974.0,10072.0,5531.0,6076.0,-21.0,-1.0,1.0,1.0
2022-05-06 12:48:08.833070-07:00,1932.1,657.9,1155.0,1476.4,941.5,1229.3,1632.2,1968.7,3431.0,3444.3,1736.8,1465.4,1481.9,3434.6,1164.7,1534.8,3437.0,3438.2,666.8,1335.0,927.9,541.8,1373.0,1845.0,3446.7,3438.2,797.7,1191.2,1269.4,1473.6,1160.3,1021.9,6.0,12.0,13.0,8686.0,12545.0,-4155.0,-4282.0,17.0,-2.0,-10.0,-4.0,-5.0,6.0,9975.0,10071.0,5530.0,6076.0,9.0,3.0,-9.0,1.0
2022-05-06 12:48:08.862965-07:00,1932.1,660.3,1155.9,1474.6,941.5,1229.3,1632.2,1966.7,3431.0,3444.3,1745.4,1460.8,1481.9,3434.6,1164.7,1534.8,3441.9,3438.2,666.8,1335.0,927.1,545.8,1375.7,1845.0,3438.2,3438.2,797.7,1191.2,1279.2,1464.4,1156.8,1021.9,-3.0,0.0,12.0,8692.0,12543.0,-4150.0,-4283.0,13.0,15.0,18.0,-7.0,-10.0,16.0,9976.0,10070.0,5529.0,6077.0,21.0,9.0,3.0,1.0
2022-05-06 12:48:08.983848-07:00,1929.2,660.3,1155.9,1474.6,944.1,1227.5,1626.5,1966.7,3443.1,3444.3,1745.4,1460.8,1478.3,3439.5,1160.3,1534.8,3441.9,3435.8,666.0,1325.0,927.1,545.8,1375.7,1837.2,3438.2,3444.3,796.0,1203.5,1279.2,1464.4,1156.8,1018.5,0.0,16.0,3.0,8690.0,12547.0,-4151.0,-4274.0,9.0,30.0,-25.0,-5.0,1.0,3.0,9971.0,10075.0,5533.0,6075.0,11.0,2.0,-6.0,1.0
2022-05-06 12:48:08.984771-07:00,1929.2,661.1,1155.9,1468.1,944.1,1227.5,1626.5,1959.8,3443.1,3435.8,1738.7,1462.6,1478.3,3439.5,1160.3,1532.0,3439.5,3435.8,666.0,1325.0,929.6,547.4,1375.7,1837.2,3428.6,3444.3,796.0,1203.5,1264.0,1475.5,1164.7,1018.5,2.0,-7.0,16.0,8696.0,12549.0,-4134.0,-4271.0,-25.0,34.0,9.0,-6.0,-10.0,11.0,9969.0,10076.0,5534.0,6074.0,5.0,9.0,2.0,1.0
2022-05-06 12:48:09.013044-07:00,1927.2,661.1,1155.9,1468.1,944.1,1227.5,1621.8,1959.8,3439.5,3435.8,1738.7,1462.6,1477.3,3437.0,1166.5,1532.0,3439.5,3449.1,666.0,1327.8,929.6,547.4,1375.7,1840.1,3428.6,3445.5,796.9,1179.7,1264.0,1475.5,1164.7,1026.3,9.0,14.0,5.0,8706.0,12549.0,-4126.0,-4260.0,11.0,28.0,-27.0,-1.0,0.0,4.0,9965.0,10080.0,5538.0,6071.0,26.0,2.0,-14.0,1.0
2022-05-06 12:48:09.073525-07:00,1927.2,660.3,1155.0,1477.3,944.1,1227.5,1621.8,1942.0,3439.5,3439.5,1736.8,1464.4,1477.3,3437.0,1161.2,1532.9,3432.2,3438.2,666.0,1327.8,927.9,543.4,1371.2,1840.1,3444.3,3440.7,796.9,1179.7,1266.7,1470.0,1159.4,1026.3,1.0,1.0,18.0,8699.0,12557.0,-4109.0,-4266.0,56.0,-7.0,-52.0,-10.0,-13.0,13.0,9961.0,10082.0,5547.0,6065.0,42.0,12.0,-12.0,1.0
2022-05-06 12:48:09.133808-07:00,1929.2,657.0,1155.0,1477.3,946.6,1220.4,1621.8,1942.0,3440.7,3437.0,1736.8,1464.4,1481.0,3445.5,1161.2,1532.9,3432.2,3438.2,665.2,1330.5,927.9,543.4,1373.9,1841.1,3444.3,3440.7,798.5,1181.5,1266.7,1470.0,1153.3,1009.9,1.0,3.0,3.0,8691.0,12565.0,-4102.0,-4267.0,-28.0,14.0,19.0,-5.0,-4.0,3.0,9957.0,10083.0,5551.0,6068.0,-12.0,10.0,10.0,1.0
2022-05-06 12:48:09.193021-07:00,1929.2,657.0,1161.2,1475.5,946.6,1220.4,1618.1,1954.8,3440.7,3437.0,1740.6,1458.9,1481.0,3445.5,1156.8,1541.3,3439.5,3434.6,665.2,1330.5,926.2,546.6,1373.9,1841.1,3435.8,3446.7,798.5,1181.5,1265.8,1470.9,1153.3,1009.9,-10.0,45.0,7.0,8707.0,12552.0,-4103.0,-4270.0,-94.0,-53.0,2.0,-4.0,8.0,16.0,9970.0,10075.0,5545.0,6066.0,-43.0,-34.0,-37.0,1.0
2022-05-06 12:48:09.223064-07:00,1922.3,666.8,1161.2,1475.5,938.1,1230.2,1618.1,1954.8,3440.7,3444.3,1740.6,1458.9,1481.0,3445.5,1156.8,1541.3,3439.5,3434.6,661.9,1330.5,926.2,546.6,1377.5,1838.2,3435.8,3446.7,798.5,1200.0,1265.8,1470.9,1152.4,1018.5,-37.0,26.0,12.0,8814.0,12455.0,-4096.0,-4340.0,-891.0,-189.0,47.0,-14.0,30.0,18.0,10090.0,9984.0,5467.0,6088.0,-707.0,-131.0,19.0,1.0
2022-05-06 12:48:09.343094-07:00,1922.3,666.8,1153.3,1475.5,938.1,1230.2,1834.3,2242.5,3440.7,3444.3,1772.3,1464.4,1481.0,3445.5,1563.7,1588.9,3437.0,3441.9,661.9,1330.5,933.0,543.4,1377.5,1838.2,3429.8,3443.1,798.5,1200.0,1264.9,1470.0,1152.4,1018.5,97.0,14.0,13.0,8986.0,12223.0,-4161.0,-4578.0,-515.0,-631.0,21.0,-4.0,4.0,-80.0,10299.0,9836.0,5296.0,6129.0,-619.0,-301.0,-41.0,1.0
2022-05-06 12:48:09.345523-07:00,1941.0,668.4,1157.7,1475.5,945.8,1277.4,1834.3,2242.5,3434.6,3441.9,2598.3,1464.4,1484.7,3438.2,1563.7,1588.9,3437.0,3441.9,667.6,1334.1,933.0,549.0,1696.7,1887.9,3429.8,3443.1,821.0,1425.0,1264.9,1473.6,1154.2,1021.9,110.0,91.0,97.0,9206.0,11972.0,-4128.0,-4829.0,-1550.0,-29.0,-286.0,32.0,29.0,-3.0,10595.0,9629.0,5078.0,6139.0,-1204.0,-399.0,-164.0,1.0
2022-05-06 12:48:09.433490-07:00,1941.0,668.4,1157.7,1474.6,945.8,1399.4,1828.4,2316.0,3434.6,3441.9,2598.3,1520.8,1484.7,3450.4,1791.6,1752.1,3449.1,3439.5,666.0,1334.1,932.2,549.0,1696.7,1887.9,3446.7,3441.9,1012.5,1425.0,1273.0,1473.6,1154.2,1021.9,-63.0,-122.0,164.0,9779.0,11580.0,-3695.0,-5006.0,-2159.0,576.0,-233.0,-6.0,-101.0,108.0,10960.0,9310.0,4818.0,6198.0,-1116.0,-218.0,-54.0,1.0
2022-05-06 12:48:09.434931-07:00,1961.8,676.6,1150.6,1474.6,937.3,1399.4,1828.4,2316.0,3439.5,3437.0,2623.2,1520.8,1599.3,3450.4,1791.6,1752.1,3449.1,3439.5,666.0,1358.5,932.2,546.6,1678.6,1935.1,3446.7,3441.9,1012.5,1545.0,1273.0,1506.0,1161.2,1028.8,9.0,93.0,50.0,10082.0,11409.0,-3462.0,-4962.0,34.0,516.0,87.0,14.0,10.0,9.0,11054.0,9239.0,4741.0,6198.0,146.0,-50.0,-79.0,1.0
2022-05-06 12:48:09.523025-07:00,1961.8,676.6,1150.6,1472.7,937.3,1552.5,1978.6,2378.7,3439.5,3437.0,2623.2,1609.6,1599.3,3438.2,1678.6,1806.1,3443.1,3434.6,668.4,1358.5,934.7,546.6,1678.6,1935.1,3441.9,3441.9,1206.2,1545.0,1276.5,1506.0,1161.2,1028.8,-35.0,-79.0,-31.0,10139.0,11450.0,-3317.0,-4851.0,7.0,347.0,-106.0,-25.0,-25.0,-21.0,11115.0,9181.0,4727.0,6186.0,-203.0,-11.0,-122.0,1.0
2022-05-06 12:48:09.524153-07:00,1994.5,745.5,1152.4,1472.7,943.2,1552.5,1978.6,2378.7,3447.9,3439.5,2553.0,1609.6,1591.7,3438.2,1678.6,1806.1,3443.1,3434.6,668.4,1426.8,934.7,549.0,1653.0,2020.4,3441.9,3441.9,1206.2,1580.5,1276.5,1500.4,1160.3,1025.4,-39.0,14.0,-61.0,10136.0,11508.0,-3267.0,-4753.0,93.0,235.0,60.0,-6.0,27.0,-4.0,11088.0,9210.0,4771.0,6156.0,166.0,39.0,-39.0,1.0
2022-05-06 12:48:09.583447-07:00,1994.5,745.5,1152.4,1474.6,943.2,1548.7,1964.7,2324.3,3447.9,3439.5,2553.0,1630.3,1591.7,3433.4,1623.7,1896.7,3437.0,3429.8,666.8,1426.8,943.2,549.0,1653.0,2020.4,3445.5,3441.9,1177.0,1580.5,1274.7,1500.4,1160.3,1025.4,15.0,8.0,-12.0,10132.0,11532.0,-3271.0,-4700.0,18.0,-11.0,69.0,1.0,5.0,-19.0,11079.0,9223.0,4783.0,6146.0,-33.0,-16.0,6.0,1.0
2022-05-06 12:48:09.613268-07:00,1988.5,745.5,1155.0,1474.6,937.3,1548.7,1964.7,2324.3,3444.3,3438.2,2500.4,1619.0,1587.1,3433.4,1623.7,1896.7,3437.0,3429.8,666.8,1448.8,936.4,541.8,1635.0,2016.4,3445.5,3441.9,1177.0,1534.8,1273.0,1489.3,1141.0,1111.2,-12.0,12.0,14.0,10154.0,11508.0,-3291.0,-4696.0,-50.0,-13.0,80.0,2.0,-6.0,30.0,11101.0,9203.0,4755.0,6156.0,-72.0,-36.0,22.0,1.0
2022-05-06 12:48:09.673119-07:00,1988.5,745.5,1155.0,1474.6,940.7,1535.7,1928.2,2253.8,3444.3,3438.2,2500.4,1619.0,1574.9,3433.4,1607.7,1886.9,3435.8,3432.2,673.3,1440.5,936.4,541.8,1635.0,2016.4,3444.3,3446.7,1173.5,1497.7,1273.0,1489.3,1141.0,1111.2,12.0,22.0,6.0,10172.0,11478.0,-3330.0,-4705.0,-33.0,-91.0,62.0,0.0,-5.0,-13.0,11127.0,9180.0,4731.0,6162.0,-97.0,-18.0,0.0,1.0
2022-05-06 12:48:09.733150-07:00,1983.6,742.2,1141.9,1470.0,940.7,1535.7,1928.2,2253.8,3438.2,3446.7,2468.5,1624.7,1574.9,3433.4,1607.7,1886.9,3435.8,3432.2,673.3,1440.5,938.1,543.4,1619.9,2008.4,3444.3,3446.7,1173.5,1497.7,1274.7,1489.3,1153.3,1182.3,-1.0,-23.0,24.0,10176.0,11465.0,-3343.0,-4719.0,8.0,-30.0,-4.0,-5.0,-20.0,22.0,11143.0,9166.0,4717.0,6166.0,-3.0,-2.0,-1.0,1.0
2022-05-06 12:48:09.973678-07:00,1983.6,742.2,1141.9,1470.0,943.2,1519.0,1900.7,2225.0,3438.2,3446.7,2468.5,1624.7,1575.8,3437.0,1601.1,1880.1,3445.5,3437.0,664.4,1442.4,938.1,543.4,1619.9,2008.4,3443.1,3440.7,1153.3,1484.7,1274.7,1489.3,1153.3,1182.3,0.0,4.0,-1.0,10167.0,11468.0,-3371.0,-4712.0,5.0,-21.0,53.0,-5.0,-6.0,3.0,11141.0,9167.0,4715.0,6168.0,-40.0,-4.0,18.0,1.0
2022-05-06 12:48:09.975980-07:00,1974.6,730.7,1154.2,1478.3,943.2,1519.0,1900.7,2225.0,3438.2,3439.5,2460.0,1621.8,1575.8,3437.0,1601.1,1880.1,3445.5,3437.0,664.4,1442.4,935.6,547.4,1603.0,2001.5,3443.1,3440.7,1153.3,1484.7,1264.0,1479.2,1145.4,1163.0,6.0,21.0,6.0,10160.0,11463.0,-3404.0,-4713.0,63.0,-70.0,40.0,-2.0,5.0,-5.0,11143.0,9167.0,4709.0,6168.0,10.0,-20.0,-3.0,1.0
2022-05-06 12:48:10.033318-07:00,1972.7,730.7,1154.2,1478.3,940.7,1517.1,1884.0,2199.3,3439.5,3439.5,2460.0,1621.8,1576.8,3440.7,1584.2,1871.3,3431.0,3439.5,668.4,1438.7,935.6,547.4,1603.0,1995.5,3439.5,3443.1,1154.2,1482.9,1264.0,1479.2,1145.4,1158.6,-3.0,-10.0,25.0,10150.0,11464.0,-3417.0,-4722.0,11.0,1.0,-18.0,-2.0,-8.0,23.0,11148.0,9163.0,4706.0,6169.0,-20.0,12.0,-5.0,1.0
2022-05-06 12:48:10.034559-07:00,1972.7,727.4,1143.6,1466.3,940.7,1517.1,1884.0,2193.2,3439.5,3438.2,2436.7,1619.9,1576.8,3440.7,1584.2,1861.5,3437.0,3439.5,668.4,1438.7,936.4,547.4,1597.4,1995.5,3445.5,3443.1,1154.2,1482.9,1271.2,1481.0,1142.7,1158.6,4.0,12.0,0.0,10142.0,11467.0,-3432.0,-4724.0,56.0,-40.0,29.0,-7.0,-5.0,1.0,11144.0,9165.0,4710.0,6169.0,25.0,2.0,8.0,1.0
2022-05-06 12:48:10.062805-07:00,1968.7,727.4,1143.6,1466.3,946.6,1510.6,1879.1,2193.2,3437.0,3438.2,2436.7,1619.9,1574.9,3439.5,1580.5,1861.5,3437.0,3441.9,664.4,1439.6,936.4,547.4,1597.4,1991.5,3445.5,3444.3,1151.5,1469.0,1271.2,1481.0,1142.7,1151.5,-7.0,-6.0,6.0,10135.0,11470.0,-3440.0,-4724.0,8.0,19.0,5.0,0.0,-13.0,15.0,11145.0,9163.0,4708.0,6171.0,-8.0,13.0,8.0,1.0
2022-05-06 12:48:10.063858-07:00,1968.7,727.4,1143.6,1466.3,946.6,1510.6,1879.1,2193.2,3437.0,3438.2,2436.7,1619.9,1574.9,3439.5,1580.5,1861.5,3437.0,3441.9,664.4,1439.6,936.4,547.4,1597.4,1991.5,3445.5,3444.3,1151.5,1469.0,1271.2,1481.0,1142.7,1151.5,-7.0,-6.0,6.0,10135.0,11470.0,-3440.0,-4724.0,8.0,19.0,5.0,0.0,-13.0,15.0,11145.0,9163.0,4708.0,6171.0,-8.0,13.0,8.0,1.0
2022-05-06 12:48:10.064826-07:00,1983.6,721.6,1144.5,1478.3,938.1,1506.0,1874.2,2186.0,3440.7,3438.2,2420.8,1607.7,1569.3,3440.7,1585.2,1856.7,3443.1,3439.5,666.0,1435.0,927.9,546.6,1586.1,1978.6,3449.1,3441.9,1137.5,1453.4,1266.7,1476.4,1141.0,1146.3,-7.0,1.0,27.0,10137.0,11453.0,-3485.0,-4729.0,-123.0,5.0,-13.0,-6.0,-15.0,27.0,11153.0,9156.0,4696.0,6178.0,-66.0,-8.0,1.0,1.0
2022-05-06 12:48:10.122987-07:00,1983.6,721.6,1139.2,1475.5,938.1,1506.0,1861.5,2187.1,3440.7,3441.9,2417.6,1614.3,1569.3,3440.7,1571.1,1861.5,3433.4,3439.5,666.0,1435.0,939.8,544.2,1576.8,1978.6,3440.7,3428.6,1137.5,1453.4,1266.7,1472.7,1142.7,1146.3,6.0,5.0,9.0,10138.0,11454.0,-3482.0,-4728.0,52.0,3.0,18.0,0.0,10.0,2.0,11151.0,9155.0,4699.0,6180.0,8.0,8.0,2.0,1.0
2022-05-06 12:48:10.243496-07:00,1959.8,718.4,1139.2,1475.5,950.0,1505.1,1861.5,2187.1,3444.3,3438.2,2417.6,1614.3,1566.5,3449.1,1571.1,1861.5,3433.4,3439.5,670.1,1432.3,939.8,544.2,1566.5,1983.6,3440.7,3428.6,1137.5,1435.0,1266.7,1472.7,1143.6,1150.6,0.0,18.0,11.0,10130.0,11467.0,-3479.0,-4715.0,41.0,43.0,-9.0,0.0,4.0,12.0,11144.0,9160.0,4705.0,6182.0,16.0,17.0,-4.0,1.0
2022-05-06 12:48:10.244884-07:00,1959.8,718.4,1139.2,1479.2,950.0,1505.1,1857.6,2167.7,3444.3,3438.2,2406.0,1604.9,1566.5,3449.1,1570.2,1855.7,3433.4,3438.2,670.1,1432.3,928.8,547.4,1566.5,1983.6,3440.7,3438.2,1137.5,1435.0,1272.1,1472.7,1143.6,1150.6,0.0,-3.0,2.0,10127.0,11476.0,-3469.0,-4707.0,25.0,27.0,5.0,-8.0,0.0,7.0,11137.0,9162.0,4714.0,6184.0,20.0,21.0,6.0,1.0
2022-05-06 12:48:10.272902-07:00,1946.9,720.0,1139.2,1479.2,943.2,1495.8,1857.6,2167.7,3434.6,3451.6,2406.0,1604.9,1566.5,3439.5,1570.2,1855.7,3433.4,3438.2,666.8,1431.4,928.8,547.4,1569.3,1964.7,3440.7,3438.2,1134.9,1436.9,1272.1,1472.7,1147.1,1140.1,4.0,11.0,5.0,10130.0,11475.0,-3469.0,-4702.0,-17.0,16.0,4.0,-7.0,-9.0,6.0,11136.0,9161.0,4716.0,6185.0,-2.0,0.0,-1.0,1.0
2022-05-06 12:48:10.333194-07:00,1946.9,720.0,1143.6,1474.6,943.2,1495.8,1853.7,2160.5,3434.6,3451.6,2400.8,1610.5,1566.5,3439.5,1570.2,1845.9,3432.2,3440.7,666.8,1431.4,933.9,547.4,1569.3,1964.7,3443.1,3439.5,1134.9,1436.9,1273.0,1474.6,1147.1,1140.1,-1.0,0.0,6.0,10136.0,11476.0,-3457.0,-4696.0,9.0,18.0,7.0,-10.0,-1.0,10.0,11133.0,9163.0,4719.0,6186.0,20.0,11.0,-4.0,1.0
2022-05-06 12:48:10.453342-07:00,1947.9,725.8,1143.6,1474.6,945.8,1494.0,1853.7,2160.5,3440.7,3431.0,2400.8,1610.5,1561.8,3449.1,1570.2,1845.9,3432.2,3440.7,670.9,1431.4,933.9,547.4,1559.0,1969.7,3443.1,3439.5,1130.5,1429.5,1273.0,1474.6,1142.7,1143.6,7.0,8.0,2.0,10154.0,11462.0,-3447.0,-4697.0,-109.0,11.0,-7.0,-2.0,2.0,0.0,11134.0,9162.0,4718.0,6186.0,-56.0,-8.0,6.0,1.0
2022-05-06 12:48:10.454584-07:00,1947.9,725.8,1146.3,1468.1,945.8,1486.6,1841.1,2150.4,3440.7,3431.0,2389.2,1604.9,1561.8,3439.5,1559.0,1838.2,3439.5,3439.5,663.6,1431.4,930.5,543.4,1559.0,1969.7,3447.9,3446.7,1127.0,1429.5,1271.2,1475.5,1142.7,1143.6,2.0,0.0,12.0,10166.0,11452.0,-3439.0,-4701.0,30.0,0.0,4.0,-3.0,-2.0,13.0,11139.0,9157.0,4714.0,6187.0,29.0,3.0,-4.0,1.0
2022-05-06 12:48:10.513059-07:00,1950.9,715.1,1147.1,1468.1,946.6,1486.6,1841.1,2150.4,3441.9,3435.8,2375.5,1604.9,1563.7,3439.5,1559.0,1838.2,3439.5,3439.5,663.6,1424.1,930.5,547.4,1554.3,1972.7,3447.9,3446.7,1127.0,1430.5,1271.2,1473.6,1142.7,1143.6,-1.0,-6.0,11.0,10160.0,11457.0,-3442.0,-4700.0,5.0,-12.0,-2.0,-11.0,-19.0,18.0,11136.0,9161.0,4716.0,6186.0,1.0,-2.0,2.0,1.0
2022-05-06 12:48:10.514246-07:00,1950.9,715.1,1147.1,1474.6,946.6,1477.3,1844.0,2149.3,3441.9,3435.8,2375.5,1606.8,1563.7,3446.7,1559.0,1838.2,3441.9,3429.8,664.4,1424.1,933.9,547.4,1554.3,1972.7,3443.1,3441.9,1120.0,1430.5,1277.4,1473.6,1142.7,1143.6,1.0,3.0,8.0,10165.0,11453.0,-3442.0,-4700.0,25.0,-9.0,8.0,-4.0,-8.0,8.0,11136.0,9161.0,4713.0,6189.0,21.0,4.0,8.0,1.0
2022-05-06 12:48:10.603245-07:00,1948.9,717.5,1144.5,1474.6,942.4,1477.3,1844.0,2149.3,3451.6,3434.6,2366.1,1606.8,1561.8,3446.7,1559.0,1838.2,3441.9,3429.8,664.4,1430.5,933.9,546.6,1541.3,1973.7,3443.1,3441.9,1120.0,1419.5,1277.4,1473.6,1143.6,1136.6,0.0,5.0,10.0,10150.0,11466.0,-3445.0,-4698.0,32.0,9.0,-11.0,-8.0,-4.0,11.0,11129.0,9167.0,4719.0,6186.0,16.0,8.0,-7.0,1.0
2022-05-06 12:48:10.633236-07:00,1948.9,717.5,1144.5,1470.0,942.4,1476.4,1851.8,2139.2,3451.6,3434.6,2366.1,1604.0,1561.8,3443.1,1558.1,1834.3,3439.5,3421.3,666.0,1430.5,933.0,546.6,1541.3,1973.7,3445.5,3444.3,1128.7,1419.5,1270.3,1473.6,1143.6,1136.6,6.0,1.0,14.0,10150.0,11465.0,-3453.0,-4694.0,-20.0,0.0,30.0,-7.0,-3.0,8.0,11128.0,9169.0,4720.0,6186.0,-7.0,3.0,16.0,1.0
2022-05-06 12:48:10.663182-07:00,1943.0,712.6,1141.9,1472.7,939.0,1476.4,1851.8,2139.2,3441.9,3441.9,2368.2,1602.1,1556.2,3443.1,1558.1,1834.3,3439.5,3421.3,666.0,1425.9,930.5,547.4,1546.9,1964.7,3445.5,3444.3,1128.7,1414.9,1271.2,1478.3,1141.0,1142.7,2.0,8.0,14.0,10156.0,11463.0,-3447.0,-4691.0,17.0,20.0,-21.0,-5.0,-15.0,17.0,11129.0,9166.0,4716.0,6190.0,10.0,9.0,-2.0,1.0
2022-05-06 12:48:10.753308-07:00,1943.0,712.6,1141.9,1472.7,944.9,1479.2,1836.2,2136.1,3441.9,3441.9,2368.2,1602.1,1557.1,3435.8,1555.3,1826.5,3438.2,3437.0,662.7,1430.5,930.5,547.4,1546.9,1964.7,3449.1,3441.9,1124.4,1403.0,1271.2,1478.3,1141.0,1142.7,4.0,5.0,11.0,10138.0,11480.0,-3450.0,-4685.0,37.0,-7.0,-6.0,-6.0,-2.0,7.0,11121.0,9172.0,4723.0,6190.0,12.0,12.0,-4.0,1.0
2022-05-06 12:48:10.783128-07:00,1944.0,710.1,1140.1,1471.8,944.9,1479.2,1836.2,2136.1,3446.7,3449.1,2358.8,1602.1,1557.1,3435.8,1555.3,1826.5,3438.2,3437.0,662.7,1430.5,936.4,541.0,1545.0,1967.7,3449.1,3441.9,1124.4,1403.0,1269.4,1479.2,1147.1,1144.5,2.0,2.0,11.0,10139.0,11485.0,-3442.0,-4679.0,-4.0,27.0,2.0,-5.0,-4.0,12.0,11119.0,9172.0,4726.0,6191.0,5.0,9.0,4.0,1.0
2022-05-06 12:48:10.812736-07:00,1944.0,710.1,1140.1,1471.8,942.4,1487.5,1835.2,2142.2,3446.7,3449.1,2358.8,1602.1,1560.9,3433.4,1554.3,1829.4,3437.0,3434.6,662.7,1426.8,936.4,541.0,1545.0,1967.7,3443.1,3444.3,1121.7,1417.6,1269.4,1479.2,1147.1,1144.5,7.0,20.0,-2.0,10149.0,11478.0,-3439.0,-4675.0,-75.0,7.0,10.0,-6.0,12.0,2.0,11120.0,9170.0,4727.0,6193.0,-57.0,-7.0,1.0,1.0
2022-05-06 12:48:10.903833-07:00,1939.0,714.2,1141.9,1474.6,942.4,1487.5,1835.2,2142.2,3438.2,3437.0,2350.4,1606.8,1560.9,3433.4,1554.3,1829.4,3437.0,3434.6,662.7,1426.8,931.3,541.0,1537.6,1966.7,3443.1,3444.3,1121.7,1417.6,1272.1,1478.3,1142.7,1135.7,-6.0,-18.0,20.0,10180.0,11456.0,-3421.0,-4676.0,-24.0,21.0,16.0,-14.0,-23.0,29.0,11138.0,9149.0,4714.0,6202.0,2.0,-1.0,6.0,1.0
2022-05-06 12:48:10.963056-07:00,1939.0,714.2,1141.9,1474.6,939.0,1476.4,1833.3,2128.0,3438.2,3437.0,2350.4,1606.8,1556.2,3428.6,1557.1,1811.9,3435.8,3435.8,666.8,1427.7,931.3,541.0,1537.6,1966.7,3428.6,3433.4,1116.5,1399.4,1272.1,1478.3,1142.7,1135.7,-3.0,5.0,2.0,10178.0,11463.0,-3429.0,-4657.0,25.0,8.0,35.0,-6.0,-7.0,22.0,11127.0,9156.0,4721.0,6204.0,20.0,5.0,13.0,1.0
2022-05-06 12:48:10.964314-07:00,1933.1,705.2,1146.3,1472.7,939.0,1476.4,1833.3,2125.0,3445.5,3443.1,2351.4,1596.4,1556.2,3428.6,1557.1,1817.8,3438.2,3435.8,666.8,1427.7,933.0,543.4,1526.4,1959.8,3439.5,3433.4,1116.5,1399.4,1272.1,1471.8,1143.6,1141.0,11.0,19.0,-17.0,10167.0,11461.0,-3459.0,-4665.0,12.0,-77.0,12.0,-3.0,4.0,-12.0,11124.0,9163.0,4719.0,6201.0,-15.0,-30.0,-5.0,1.0
2022-05-06 12:48:11.083170-07:00,1935.1,705.2,1146.3,1472.7,937.3,1471.8,1849.8,2125.0,3438.2,3443.1,2351.4,1596.4,1554.3,3437.0,1547.8,1817.8,3438.2,3446.7,670.1,1426.8,933.0,543.4,1526.4,1962.8,3439.5,3445.5,1111.2,1387.5,1272.1,1471.8,1143.6,1139.2,-1.0,-1.0,27.0,10160.0,11452.0,-3477.0,-4686.0,-4.0,-59.0,4.0,-9.0,-2.0,28.0,11133.0,9160.0,4709.0,6198.0,-25.0,-10.0,2.0,1.0
2022-05-06 12:48:11.084620-07:00,1935.1,706.9,1141.9,1474.6,937.3,1471.8,1849.8,2126.0,3438.2,3444.3,2351.4,1597.4,1554.3,3437.0,1547.8,1806.1,3438.2,3446.7,670.1,1426.8,935.6,542.6,1522.7,1962.8,3443.1,3445.5,1111.2,1387.5,1266.7,1473.6,1142.7,1139.2,9.0,14.0,19.0,10169.0,11438.0,-3489.0,-4693.0,-21.0,-8.0,8.0,0.0,-6.0,12.0,11141.0,9150.0,4700.0,6204.0,-20.0,3.0,10.0,1.0
2022-05-06 12:48:11.113137-07:00,1934.1,706.9,1141.9,1474.6,939.8,1466.3,1829.4,2126.0,3444.3,3444.3,2351.4,1597.4,1559.0,3449.1,1543.1,1806.1,3438.2,3440.7,665.2,1424.1,935.6,542.6,1522.7,1964.7,3443.1,3444.3,1108.6,1385.7,1266.7,1473.6,1142.7,1139.2,1.0,4.0,3.0,10171.0,11435.0,-3489.0,-4696.0,7.0,-10.0,-10.0,-8.0,-7.0,7.0,11145.0,9145.0,4698.0,6207.0,-2.0,-3.0,-5.0,1.0
2022-05-06 12:48:11.173702-07:00,1934.1,711.8,1144.5,1470.9,939.8,1466.3,1829.4,2118.9,3444.3,3444.3,2340.0,1596.4,1559.0,3449.1,1543.1,1814.9,3428.6,3440.7,665.2,1424.1,931.3,541.8,1519.9,1964.7,3435.8,3444.3,1108.6,1385.7,1268.5,1478.3,1137.5,1139.2,2.0,6.0,17.0,10172.0,11435.0,-3488.0,-4695.0,7.0,19.0,2.0,-7.0,-5.0,21.0,11146.0,9143.0,4699.0,6207.0,16.0,6.0,5.0,1.0
2022-05-06 12:48:11.233155-07:00,1935.1,708.5,1144.5,1470.9,940.7,1462.6,1828.4,2118.9,3435.8,3437.0,2340.0,1596.4,1547.8,3443.1,1535.7,1814.9,3428.6,3438.2,668.4,1415.8,931.3,541.8,1522.7,1952.9,3435.8,3438.2,1111.2,1390.3,1268.5,1478.3,1139.2,1133.1,-3.0,-5.0,7.0,10176.0,11438.0,-3480.0,-4686.0,14.0,24.0,9.0,-7.0,-18.0,24.0,11146.0,9142.0,4701.0,6207.0,25.0,10.0,3.0,1.0
2022-05-06 12:48:11.263610-07:00,1935.1,708.5,1144.5,1476.4,940.7,1462.6,1824.6,2111.8,3435.8,3437.0,2342.0,1599.3,1547.8,3443.1,1544.1,1802.3,3427.4,3439.5,668.4,1415.8,927.9,548.2,1522.7,1952.9,3434.6,3438.2,1111.2,1390.3,1272.1,1474.6,1139.2,1133.1,7.0,9.0,7.0,10180.0,11434.0,-3480.0,-4684.0,-30.0,5.0,5.0,0.0,-1.0,-1.0,11147.0,9141.0,4702.0,6207.0,-18.0,0.0,-1.0,1.0
2022-05-06 12:48:11.353657-07:00,1924.3,707.7,1144.5,1476.4,938.1,1461.7,1824.6,2111.8,3438.2,3441.9,2342.0,1599.3,1552.5,3444.3,1544.1,1802.3,3427.4,3439.5,666.8,1422.2,927.9,548.2,1517.1,1959.8,3434.6,3438.2,1130.5,1374.8,1272.1,1474.6,1137.5,1134.9,4.0,5.0,11.0,10182.0,11431.0,-3481.0,-4687.0,-16.0,-19.0,-9.0,-3.0,0.0,6.0,11151.0,9137.0,4701.0,6207.0,-15.0,-1.0,-2.0,1.0
2022-05-06 12:48:11.355118-07:00,1924.3,707.7,1146.3,1466.3,938.1,1461.7,1814.9,2106.8,3438.2,3441.9,2336.8,1597.4,1552.5,3444.3,1545.0,1802.3,3440.7,3435.8,666.8,1422.2,933.0,541.8,1517.1,1959.8,3438.2,3449.1,1130.5,1374.8,1270.3,1476.4,1137.5,1134.9,8.0,7.0,24.0,10185.0,11426.0,-3486.0,-4691.0,5.0,7.0,13.0,-4.0,-14.0,25.0,11153.0,9133.0,4700.0,6208.0,20.0,5.0,6.0,1.0
2022-05-06 12:48:11.473016-07:00,1928.2,701.9,1146.3,1466.3,943.2,1464.4,1814.9,2106.8,3440.7,3446.7,2336.8,1597.4,1552.5,3440.7,1545.0,1802.3,3440.7,3435.8,666.0,1422.2,933.0,541.8,1512.5,1946.9,3438.2,3449.1,1099.0,1376.6,1270.3,1476.4,1140.1,1134.9,2.0,3.0,6.0,10188.0,11427.0,-3482.0,-4684.0,12.0,26.0,6.0,-6.0,-8.0,3.0,11150.0,9136.0,4704.0,6207.0,17.0,6.0,-6.0,1.0
2022-05-06 12:48:11.699455-07:00,1928.2,701.9,1141.9,1473.6,943.2,1458.9,1826.5,2101.7,3440.7,3446.7,2328.5,1599.3,1552.5,3441.9,1524.5,1808.1,3443.1,3433.4,663.6,1422.2,925.4,544.2,1512.5,1946.9,3438.2,3449.1,1104.3,1376.6,1271.2,1477.3,1140.1,1134.9,10.0,8.0,8.0,10194.0,11424.0,-3477.0,-4681.0,-26.0,32.0,-4.0,-1.0,-1.0,-4.0,11149.0,9136.0,4705.0,6207.0,-1.0,3.0,2.0,1.0
2022-05-06 12:48:11.701256-07:00,1919.3,698.7,1142.7,1473.6,946.6,1458.9,1826.5,2101.7,3449.1,3440.7,2329.5,1599.3,1544.1,3441.9,1524.5,1808.1,3443.1,3433.4,663.6,1426.8,925.4,545.0,1511.5,1952.9,3438.2,3449.1,1104.3,1375.7,1271.2,1477.3,1133.1,1140.1,0.0,0.0,23.0,10196.0,11429.0,-3465.0,-4674.0,48.0,38.0,-8.0,-1.0,-15.0,25.0,11148.0,9136.0,4709.0,6207.0,43.0,23.0,-2.0,1.0
2022-05-06 12:48:11.702232-07:00,1919.3,698.7,1142.7,1466.3,946.6,1460.8,1812.9,2102.7,3449.1,3440.7,2329.5,1608.7,1544.1,3440.7,1528.3,1799.4,3426.2,3435.8,667.6,1426.8,932.2,545.0,1511.5,1952.9,3444.3,3438.2,1097.3,1375.7,1271.2,1477.3,1133.1,1140.1,7.0,16.0,2.0,10189.0,11441.0,-3465.0,-4661.0,-1.0,31.0,12.0,-3.0,9.0,1.0,11139.0,9140.0,4720.0,6208.0,4.0,7.0,3.0,1.0
2022-05-06 12:48:11.713471-07:00,1922.3,696.2,1142.7,1466.3,940.7,1460.8,1812.9,2102.7,3445.5,3435.8,2333.7,1608.7,1546.9,3440.7,1528.3,1799.4,3426.2,3435.8,667.6,1416.7,932.2,552.2,1499.5,1952.9,3444.3,3438.2,1097.3,1368.5,1271.2,1470.0,1135.7,1137.5,0.0,1.0,0.0,10197.0,11439.0,-3455.0,-4654.0,7.0,4.0,-1.0,-9.0,-2.0,16.0,11141.0,9138.0,4719.0,6208.0,3.0,-7.0,0.0,1.0
2022-05-06 12:48:11.714675-07:00,1922.3,696.2,1142.7,1474.6,940.7,1456.2,1811.0,2105.8,3445.5,3435.8,2333.7,1601.1,1546.9,3445.5,1526.4,1794.5,3441.9,3428.6,663.6,1416.7,932.2,552.2,1499.5,1952.9,3443.1,3428.6,1106.0,1368.5,1269.4,1470.0,1135.7,1137.5,1.0,-1.0,7.0,10200.0,11434.0,-3460.0,-4657.0,-4.0,-28.0,31.0,-3.0,-6.0,9.0,11146.0,9132.0,4717.0,6210.0,-5.0,-12.0,-4.0,1.0
2022-05-06 12:48:11.773550-07:00,1932.1,699.5,1154.2,1474.6,946.6,1456.2,1811.0,2105.8,3439.5,3433.4,2344.1,1601.1,1542.2,3445.5,1526.4,1794.5,3441.9,3428.6,663.6,1414.9,932.2,545.0,1504.1,1944.0,3443.1,3428.6,1106.0,1363.9,1269.4,1476.4,1137.5,1140.1,0.0,9.0,11.0,10208.0,11426.0,-3465.0,-4655.0,8.0,5.0,11.0,-5.0,0.0,18.0,11148.0,9132.0,4715.0,6208.0,29.0,4.0,-7.0,1.0
2022-05-06 12:48:11.774621-07:00,1932.1,699.5,1154.2,1469.0,939.8,1448.8,1813.9,2097.7,3439.5,3433.4,2344.1,1601.1,1552.5,3440.7,1539.4,1797.4,3431.0,3433.4,669.3,1417.6,925.4,545.0,1504.1,1944.0,3439.5,3445.5,1103.4,1366.6,1269.4,1476.4,1137.5,1140.1,0.0,0.0,-4.0,10211.0,11421.0,-3474.0,-4654.0,4.0,-28.0,33.0,-7.0,-4.0,2.0,11146.0,9134.0,4716.0,6206.0,7.0,-7.0,0.0,1.0
2022-05-06 12:48:11.803640-07:00,1932.1,699.5,1134.0,1474.6,939.8,1448.8,1813.9,2097.7,3441.9,3443.1,2325.4,1596.4,1552.5,3440.7,1539.4,1797.4,3431.0,3433.4,669.3,1417.6,928.8,545.8,1499.5,1948.9,3439.5,3445.5,1103.4,1366.6,1271.2,1479.2,1146.3,1147.1,0.0,-4.0,11.0,10215.0,11409.0,-3488.0,-4663.0,23.0,-49.0,4.0,-2.0,-16.0,18.0,11154.0,9129.0,4708.0,6206.0,-42.0,-11.0,14.0,1.0
2022-05-06 12:48:11.863665-07:00,1932.1,699.5,1134.0,1474.6,939.8,1452.5,1813.9,2103.7,3441.9,3443.1,2325.4,1596.4,1546.9,3435.8,1532.0,1801.3,3434.6,3449.1,662.7,1425.0,928.8,545.8,1499.5,1948.9,3443.1,3438.2,1096.4,1373.9,1271.2,1479.2,1146.3,1147.1,4.0,1.0,16.0,10205.0,11411.0,-3501.0,-4671.0,-17.0,-20.0,2.0,-7.0,-10.0,19.0,11155.0,9128.0,4706.0,6206.0,-3.0,2.0,-1.0,1.0
2022-05-06 12:48:11.983271-07:00,1929.2,697.9,1141.0,1466.3,939.8,1452.5,1813.9,2103.7,3433.4,3440.7,2318.1,1602.1,1546.9,3435.8,1532.0,1801.3,3434.6,3449.1,662.7,1425.0,926.2,545.0,1498.6,1946.9,3443.1,3438.2,1096.4,1373.9,1266.7,1475.5,1137.5,1150.6,-4.0,-12.0,20.0,10224.0,11396.0,-3492.0,-4672.0,22.0,32.0,1.0,-2.0,-27.0,22.0,11163.0,9119.0,4701.0,6209.0,-23.0,6.0,1.0,1.0
2022-05-06 12:48:11.986057-07:00,1929.2,697.9,1141.0,1466.3,941.5,1449.7,1806.1,2091.6,3433.4,3440.7,2318.1,1602.1,1545.9,3449.1,1525.5,1792.6,3438.2,3437.0,666.8,1430.5,926.2,545.0,1498.6,1946.9,3439.5,3441.9,1103.4,1356.7,1266.7,1475.5,1137.5,1150.6,10.0,-2.0,-3.0,10211.0,11411.0,-3494.0,-4663.0,33.0,-4.0,6.0,-5.0,2.0,-7.0,11153.0,9127.0,4713.0,6207.0,48.0,8.0,-5.0,1.0
2022-05-06 12:48:12.163104-07:00,1931.1,691.3,1145.4,1470.0,941.5,1449.7,1806.1,2082.6,3439.5,3439.5,2319.1,1596.4,1545.9,3449.1,1525.5,1799.4,3435.8,3437.0,666.8,1430.5,927.1,550.6,1500.4,1951.9,3446.7,3441.9,1103.4,1356.7,1267.6,1470.0,1142.7,1145.4,0.0,-1.0,7.0,10210.0,11409.0,-3498.0,-4666.0,-44.0,-38.0,3.0,-10.0,-11.0,7.0,11154.0,9127.0,4713.0,6207.0,-45.0,-11.0,1.0,1.0
2022-05-06 12:48:12.193011-07:00,1928.2,691.3,1145.4,1470.0,941.5,1441.5,1806.1,2082.6,3444.3,3439.5,2319.1,1596.4,1539.4,3439.5,1528.3,1799.4,3435.8,3438.2,659.5,1421.3,927.1,550.6,1500.4,1959.8,3446.7,3435.8,1094.7,1360.3,1267.6,1470.0,1142.7,1155.9,-1.0,18.0,27.0,10162.0,11453.0,-3501.0,-4664.0,596.0,30.0,-138.0,0.0,-34.0,39.0,11149.0,9124.0,4721.0,6214.0,162.0,112.0,4.0,1.0
2022-05-06 12:48:12.194412-07:00,1928.2,706.0,1141.9,1467.2,941.5,1441.5,1806.1,2087.6,3444.3,3438.2,2330.6,1592.7,1539.4,3439.5,1528.3,1799.4,3438.2,3438.2,659.5,1421.3,933.0,542.6,1500.4,1959.8,3441.9,3435.8,1094.7,1360.3,1264.9,1469.0,1137.5,1155.9,0.0,-2.0,-24.0,10003.0,11597.0,-3526.0,-4632.0,291.0,46.0,-6.0,-7.0,25.0,2.0,11051.0,9198.0,4827.0,6196.0,256.0,97.0,-27.0,1.0
2022-05-06 12:48:12.195377-07:00,1920.3,706.0,1141.9,1467.2,935.6,1437.8,1800.3,2087.6,3438.2,3438.2,2330.6,1592.7,1549.7,3438.2,1563.7,1799.4,3438.2,3439.5,670.1,1419.5,933.0,542.6,1500.4,1946.9,3441.9,3449.1,1103.4,1352.1,1264.9,1469.0,1137.5,1149.8,7.0,29.0,-30.0,10023.0,11581.0,-3541.0,-4618.0,-163.0,-16.0,45.0,-9.0,2.0,-26.0,11043.0,9206.0,4829.0,6198.0,-87.0,-45.0,15.0,1.0
2022-05-06 12:48:12.283174-07:00,1920.3,705.2,1139.2,1473.6,935.6,1437.8,1800.3,2102.7,3438.2,3441.9,2321.2,1586.1,1549.7,3438.2,1563.7,1803.2,3439.5,3439.5,670.1,1419.5,925.4,542.6,1489.3,1946.9,3440.7,3449.1,1103.4,1352.1,1270.3,1471.8,1141.0,1149.8,128.0,-6.0,-32.0,10000.0,11595.0,-3495.0,-4667.0,1.0,12.0,-347.0,77.0,-19.0,17.0,11041.0,9193.0,4843.0,6210.0,186.0,135.0,2.0,1.0
2022-05-06 12:48:12.284816-07:00,1957.8,806.9,1139.2,1473.6,933.9,1438.7,1838.2,2102.7,3437.0,3438.2,2321.2,1586.1,1550.6,3441.9,1636.9,1803.2,3439.5,3433.4,667.6,1411.3,925.4,542.6,1787.8,1949.9,3440.7,3449.1,1168.2,1411.3,1270.3,1471.8,1144.5,1155.0,-319.0,-433.0,-409.0,9655.0,11781.0,-3869.0,-4633.0,2885.0,-1425.0,943.0,-59.0,-163.0,-42.0,10779.0,9385.0,5015.0,6246.0,1483.0,321.0,343.0,1.0
2022-05-06 12:48:12.313110-07:00,1957.8,806.9,1161.2,1474.6,933.9,1438.7,1827.5,2390.3,3437.0,3438.2,2960.9,1681.4,1550.6,3441.9,1604.9,1813.9,3432.2,3435.8,667.6,1411.3,928.8,543.4,1787.8,1949.9,3437.0,3439.5,1168.2,1411.3,1269.4,1488.4,1144.5,1155.0,-340.0,-115.0,54.0,8864.0,12205.0,-4605.0,-4437.0,465.0,738.0,278.0,-155.0,404.0,200.0,10148.0,9978.0,5335.0,6117.0,1069.0,247.0,203.0,1.0
2022-05-06 12:48:12.406587-07:00,2130.1,812.7,1161.2,1474.6,943.2,1414.9,1827.5,2390.3,3440.7,3439.5,2960.9,1681.4,1553.4,3449.1,1604.9,1813.9,3432.2,3435.8,666.8,1401.2,928.8,543.4,1690.0,1994.5,3437.0,3439.5,1100.8,1517.1,1269.4,1488.4,1144.5,1148.9,0.0,-11.0,-30.0,8656.0,12371.0,-4664.0,-4326.0,802.0,102.0,-210.0,-28.0,-50.0,-9.0,10024.0,10059.0,5416.0,6118.0,599.0,175.0,10.0,1.0
2022-05-06 12:48:12.493159-07:00,2130.1,812.7,1152.4,1468.1,943.2,1414.9,1665.3,2022.4,3440.7,3439.5,2126.0,1604.9,1553.4,3449.1,1375.7,1707.2,3428.6,3439.5,666.8,1401.2,929.6,541.0,1690.0,1994.5,3432.2,3440.7,1100.8,1517.1,1273.9,1474.6,1144.5,1148.9,22.0,-52.0,-51.0,8512.0,12484.0,-4644.0,-4308.0,-65.0,-6.0,-88.0,-22.0,-20.0,-54.0,9911.0,10140.0,5507.0,6087.0,78.0,48.0,-8.0,1.0
2022-05-06 12:48:12.494549-07:00,2098.7,794.4,1152.4,1468.1,948.3,1368.5,1665.3,2022.4,3439.5,3437.0,2126.0,1604.9,1545.9,3446.7,1375.7,1707.2,3428.6,3439.5,665.2,1399.4,929.6,541.0,1596.4,1953.9,3432.2,3440.7,1016.8,1427.7,1273.9,1474.6,1139.2,1136.6,-4.0,7.0,20.0,8534.0,12487.0,-4603.0,-4299.0,-140.0,108.0,-39.0,-8.0,0.0,21.0,9927.0,10133.0,5494.0,6086.0,-86.0,-39.0,16.0,1.0
2022-05-06 12:48:12.553320-07:00,2098.7,794.4,1155.9,1477.3,948.3,1348.5,1627.5,1929.2,3439.5,3437.0,2058.4,1589.9,1545.9,3439.5,1295.4,1681.4,3438.2,3435.8,664.4,1399.4,928.8,545.0,1596.4,1953.9,3438.2,3435.8,989.3,1427.7,1269.4,1471.8,1139.2,1136.6,18.0,24.0,76.0,8611.0,12458.0,-4543.0,-4295.0,-218.0,237.0,-50.0,-1.0,-7.0,20.0,9970.0,10105.0,5446.0,6104.0,-128.0,-50.0,36.0,1.0
2022-05-06 12:48:12.554472-07:00,2105.8,784.4,1159.4,1477.3,940.7,1348.5,1627.5,1929.2,3444.3,3437.0,2018.4,1589.9,1546.9,3439.5,1295.4,1681.4,3438.2,3435.8,664.4,1390.3,928.8,545.0,1514.3,1947.9,3438.2,3435.8,989.3,1364.8,1269.4,1479.2,1139.2,1130.5,-9.0,-14.0,13.0,8730.0,12444.0,-4416.0,-4227.0,-271.0,292.0,-41.0,-10.0,-25.0,3.0,10003.0,10072.0,5423.0,6125.0,-114.0,34.0,-13.0,1.0
2022-05-06 12:48:12.762639-07:00,2105.8,784.4,1159.4,1470.9,940.7,1335.9,1648.3,1967.7,3444.3,3437.0,2018.4,1575.8,1546.9,3440.7,1255.1,1670.1,3428.6,3429.8,667.6,1390.3,927.9,545.0,1514.3,1947.9,3445.5,3437.0,980.7,1364.8,1273.0,1479.2,1139.2,1130.5,4.0,-6.0,-15.0,8741.0,12458.0,-4393.0,-4186.0,203.0,-87.0,77.0,-10.0,4.0,-18.0,9983.0,10078.0,5442.0,6131.0,177.0,29.0,12.0,1.0
2022-05-06 12:48:12.763877-07:00,2106.8,773.6,1155.9,1470.9,941.5,1335.9,1648.3,1967.7,3440.7,3435.8,1994.5,1575.8,1537.6,3440.7,1255.1,1670.1,3428.6,3429.8,667.6,1385.7,927.9,549.0,1470.0,1937.1,3445.5,3437.0,980.7,1304.3,1273.0,1473.6,1140.1,1124.4,0.0,10.0,31.0,8757.0,12436.0,-4413.0,-4197.0,-347.0,56.0,-29.0,-4.0,14.0,-9.0,9986.0,10084.0,5437.0,6122.0,-225.0,-56.0,-11.0,1.0
2022-05-06 12:48:12.764879-07:00,2106.8,773.6,1155.9,1472.7,941.5,1326.8,1662.5,2009.4,3440.7,3435.8,1994.5,1566.5,1537.6,3438.2,1232.8,1653.9,3440.7,3432.2,666.8,1385.7,923.7,549.0,1470.0,1937.1,3449.1,3439.5,957.7,1304.3,1263.1,1473.6,1140.1,1124.4,5.0,-25.0,27.0,8857.0,12365.0,-4385.0,-4227.0,-57.0,-104.0,97.0,0.0,-24.0,8.0,10045.0,10035.0,5386.0,6150.0,-31.0,-30.0,44.0,1.0
2022-05-06 12:48:12.792952-07:00,2082.6,774.5,1155.0,1472.7,934.7,1326.8,1662.5,2009.4,3441.9,3441.9,1985.6,1566.5,1527.3,3438.2,1232.8,1653.9,3440.7,3432.2,666.8,1382.1,923.7,547.4,1464.4,1922.3,3449.1,3439.5,957.7,1286.4,1263.1,1470.0,1137.5,1121.7,9.0,38.0,44.0,8866.0,12349.0,-4418.0,-4220.0,-142.0,82.0,14.0,3.0,-2.0,12.0,10038.0,10047.0,5378.0,6149.0,-67.0,-4.0,11.0,1.0
2022-05-06 12:48:12.822738-07:00,2082.6,774.5,1155.0,1471.8,939.0,1317.8,1696.7,2084.6,3441.9,3441.9,1985.6,1567.4,1533.8,3439.5,1231.9,1641.6,3444.3,3440.7,665.2,1383.9,924.5,547.4,1464.4,1922.3,3447.9,3440.7,956.8,1271.2,1272.1,1470.0,1137.5,1121.7,0.0,1.0,25.0,8902.0,12350.0,-4362.0,-4199.0,25.0,124.0,-58.0,-6.0,-4.0,10.0,10041.0,10040.0,5381.0,6152.0,77.0,27.0,-11.0,1.0
2022-05-06 12:48:12.852952-07:00,2041.4,766.2,1159.4,1471.8,939.0,1317.8,1696.7,2084.6,3438.2,3440.7,1971.7,1561.8,1533.8,3439.5,1231.9,1641.6,3444.3,3440.7,665.2,1383.9,925.4,547.4,1458.9,1914.4,3447.9,3440.7,956.8,1271.2,1272.1,1475.5,1138.4,1110.4,5.0,-4.0,-1.0,8922.0,12359.0,-4331.0,-4164.0,-89.0,118.0,20.0,-5.0,3.0,-11.0,10022.0,10052.0,5401.0,6147.0,-12.0,7.0,-1.0,1.0
2022-05-06 12:48:12.943058-07:00,2041.4,766.2,1159.4,1471.8,937.3,1322.3,1726.3,2114.9,3438.2,3440.7,1971.7,1561.8,1524.5,3439.5,1217.7,1642.6,3437.0,3441.9,667.6,1377.5,925.4,547.4,1458.9,1914.4,3440.7,3439.5,948.3,1258.7,1272.1,1475.5,1138.4,1110.4,-3.0,12.0,-4.0,8942.0,12349.0,-4335.0,-4146.0,30.0,-59.0,68.0,-1.0,5.0,6.0,10020.0,10054.0,5402.0,6146.0,48.0,-2.0,4.0,1.0
2022-05-06 12:48:12.972948-07:00,2026.4,767.8,1156.8,1465.4,937.3,1322.3,1726.3,2114.9,3435.8,3434.6,1964.7,1556.2,1524.5,3439.5,1217.7,1642.6,3437.0,3441.9,667.6,1377.5,924.5,543.4,1442.4,1904.6,3440.7,3439.5,948.3,1258.7,1269.4,1470.9,1135.7,1113.0,13.0,12.0,-3.0,8964.0,12313.0,-4370.0,-4168.0,-163.0,-75.0,54.0,-5.0,-8.0,-2.0,10028.0,10051.0,5393.0,6145.0,-100.0,-30.0,10.0,1.0
2022-05-06 12:48:13.033138-07:00,2026.4,767.8,1156.8,1465.4,939.8,1317.8,1757.0,2155.5,3435.8,3434.6,1964.7,1556.2,1526.4,3444.3,1212.4,1631.3,3432.2,3434.6,667.6,1374.8,924.5,543.4,1442.4,1904.6,3438.2,3447.9,941.5,1253.3,1269.4,1470.9,1135.7,1113.0,1.0,10.0,31.0,9000.0,12277.0,-4380.0,-4185.0,-28.0,-47.0,41.0,-2.0,-5.0,9.0,10052.0,10035.0,5373.0,6149.0,-21.0,-17.0,-4.0,1.0
2022-05-06 12:48:13.063614-07:00,2010.4,762.9,1153.3,1477.3,939.8,1317.8,1757.0,2113.9,3438.2,3438.2,1950.9,1553.4,1526.4,3444.3,1212.4,1623.7,3438.2,3434.6,667.6,1374.8,920.3,537.0,1440.5,1902.6,3440.7,3447.9,941.5,1253.3,1264.9,1466.3,1141.0,1112.1,12.0,11.0,28.0,9018.0,12262.0,-4382.0,-4190.0,-16.0,22.0,1.0,-5.0,-4.0,-2.0,10051.0,10037.0,5375.0,6147.0,16.0,7.0,8.0,1.0
2022-05-06 12:48:13.123190-07:00,1991.5,762.9,1153.3,1477.3,945.8,1310.6,1738.7,2113.9,3440.7,3438.2,1950.9,1553.4,1523.6,3441.9,1209.7,1623.7,3438.2,3439.5,663.6,1372.1,920.3,537.0,1440.5,1903.6,3440.7,3449.1,929.6,1243.5,1264.9,1466.3,1141.0,1104.3,1.0,2.0,6.0,9041.0,12259.0,-4360.0,-4170.0,11.0,65.0,0.0,-3.0,-11.0,11.0,10049.0,10035.0,5376.0,6152.0,25.0,16.0,8.0,1.0
2022-05-06 12:48:13.213009-07:00,1991.5,757.9,1150.6,1470.0,945.8,1310.6,1738.7,2093.7,3440.7,3439.5,1943.0,1555.3,1523.6,3441.9,1209.7,1618.1,3437.0,3439.5,663.6,1372.1,916.0,541.8,1439.6,1903.6,3438.2,3449.1,929.6,1243.5,1271.2,1472.7,1134.0,1104.3,2.0,11.0,-1.0,9019.0,12273.0,-4369.0,-4166.0,44.0,-40.0,-7.0,-4.0,3.0,-11.0,10035.0,10048.0,5386.0,6146.0,30.0,-3.0,-9.0,1.0
2022-05-06 12:48:13.214745-07:00,1987.5,757.9,1150.6,1470.0,941.5,1305.2,1720.5,2093.7,3439.5,3439.5,1943.0,1555.3,1519.9,3432.2,1193.8,1618.1,3437.0,3439.5,661.1,1374.8,916.0,541.8,1439.6,1892.8,3438.2,3444.3,928.8,1234.6,1271.2,1472.7,1134.0,1103.4,1.0,7.0,25.0,9035.0,12265.0,-4353.0,-4176.0,-80.0,29.0,-33.0,-4.0,-13.0,16.0,10047.0,10038.0,5379.0,6148.0,-66.0,-9.0,-7.0,1.0
2022-05-06 12:48:13.273023-07:00,1987.5,752.1,1151.5,1480.1,941.5,1305.2,1720.5,2078.5,3439.5,3445.5,1927.2,1549.7,1519.9,3432.2,1193.8,1620.9,3440.7,3439.5,661.1,1374.8,922.8,544.2,1430.5,1892.8,3437.0,3444.3,928.8,1234.6,1268.5,1478.3,1135.7,1103.4,2.0,2.0,13.0,9030.0,12268.0,-4357.0,-4171.0,102.0,-17.0,25.0,0.0,0.0,2.0,10043.0,10041.0,5381.0,6147.0,86.0,6.0,9.0,1.0
2022-05-06 12:48:13.333149-07:00,1977.6,752.1,1151.5,1480.1,935.6,1307.9,1713.8,2078.5,3443.1,3445.5,1927.2,1549.7,1516.2,3440.7,1195.6,1620.9,3440.7,3429.8,666.0,1371.2,922.8,544.2,1430.5,1886.9,3437.0,3444.3,924.5,1234.6,1268.5,1478.3,1135.7,1098.2,2.0,1.0,13.0,9031.0,12266.0,-4360.0,-4172.0,-65.0,1.0,-8.0,-9.0,-6.0,1.0,10043.0,10042.0,5381.0,6147.0,-41.0,3.0,-8.0,1.0
2022-05-06 12:48:13.363054-07:00,1977.6,752.1,1150.6,1470.0,935.6,1307.9,1708.1,2057.4,3443.1,3444.3,1930.2,1545.0,1516.2,3440.7,1192.0,1612.4,3431.0,3439.5,666.0,1371.2,921.1,545.0,1429.5,1886.9,3438.2,3441.9,924.5,1234.6,1266.7,1480.1,1144.5,1098.2,0.0,-6.0,10.0,9052.0,12251.0,-4353.0,-4177.0,-33.0,0.0,16.0,-7.0,-10.0,0.0,10052.0,10033.0,5376.0,6151.0,-22.0,-4.0,8.0,1.0
2022-05-06 12:48:13.393169-07:00,1978.6,743.0,1150.6,1470.0,938.1,1298.1,1708.1,2057.4,3433.4,3439.5,1930.2,1545.0,1520.8,3447.9,1192.0,1612.4,3431.0,3439.5,665.2,1370.3,921.1,545.0,1425.9,1885.0,3438.2,3441.9,920.3,1227.5,1266.7,1480.1,1139.2,1108.6,1.0,7.0,20.0,9060.0,12247.0,-4353.0,-4173.0,-16.0,4.0,11.0,-3.0,-4.0,8.0,10052.0,10033.0,5374.0,6153.0,7.0,8.0,7.0,1.0
2022-05-06 12:48:13.453207-07:00,1978.6,743.0,1146.3,1470.9,938.1,1298.1,1693.8,2045.4,3433.4,3439.5,1916.4,1552.5,1520.8,3447.9,1196.5,1599.3,3435.8,3440.7,665.2,1370.3,925.4,543.4,1425.9,1885.0,3428.6,3443.1,920.3,1227.5,1274.7,1468.1,1139.2,1108.6,-1.0,11.0,2.0,9054.0,12250.0,-4360.0,-4169.0,58.0,-17.0,7.0,-3.0,7.0,-1.0,10048.0,10036.0,5377.0,6150.0,29.0,-5.0,-1.0,1.0
2022-05-06 12:48:13.513017-07:00,1976.6,740.6,1146.3,1470.9,940.7,1301.6,1693.8,2045.4,3431.0,3446.7,1916.4,1552.5,1517.1,3449.1,1196.5,1599.3,3435.8,3440.7,666.8,1367.6,925.4,543.4,1421.3,1881.1,3428.6,3443.1,919.4,1230.2,1274.7,1468.1,1147.1,1102.5,-1.0,-8.0,13.0,9068.0,12244.0,-4347.0,-4170.0,-28.0,40.0,-19.0,-9.0,-13.0,15.0,10055.0,10030.0,5373.0,6154.0,-27.0,-3.0,1.0,1.0
2022-05-06 12:48:13.543054-07:00,1976.6,740.6,1150.6,1470.0,940.7,1301.6,1684.3,2033.4,3431.0,3446.7,1912.4,1538.5,1517.1,3449.1,1189.4,1607.7,3433.4,3435.8,666.8,1367.6,923.7,540.2,1421.3,1881.1,3432.2,3441.9,919.4,1230.2,1273.9,1475.5,1147.1,1102.5,4.0,16.0,7.0,9066.0,12247.0,-4348.0,-4165.0,-10.0,-7.0,2.0,-5.0,-1.0,-3.0,10052.0,10033.0,5376.0,6152.0,-7.0,5.0,-2.0,1.0
2022-05-06 12:48:13.603561-07:00,1956.8,739.7,1148.0,1470.0,930.5,1299.0,1684.3,2033.4,3444.3,3438.2,1907.5,1538.5,1507.8,3449.1,1189.4,1607.7,3433.4,3435.8,661.1,1372.1,923.7,541.0,1423.1,1878.1,3432.2,3441.9,913.5,1226.6,1273.9,1472.7,1134.9,1098.2,2.0,-1.0,13.0,9069.0,12245.0,-4346.0,-4168.0,9.0,-7.0,-6.0,-7.0,-7.0,6.0,10054.0,10031.0,5375.0,6152.0,1.0,-4.0,3.0,1.0
2022-05-06 12:48:13.662819-07:00,1956.8,739.7,1148.0,1480.1,930.5,1293.6,1685.3,2040.4,3444.3,3438.2,1907.5,1542.2,1507.8,3449.1,1185.0,1607.7,3437.0,3441.9,665.2,1372.1,921.1,541.0,1423.1,1878.1,3447.9,3443.1,914.4,1226.6,1276.5,1472.7,1134.9,1098.2,5.0,4.0,19.0,9066.0,12248.0,-4343.0,-4167.0,20.0,9.0,-9.0,-3.0,8.0,6.0,10052.0,10032.0,5376.0,6151.0,17.0,-1.0,-3.0,1.0
2022-05-06 12:48:13.693179-07:00,1960.8,740.6,1150.6,1480.1,936.4,1293.6,1685.3,2040.4,3438.2,3427.4,1903.6,1542.2,1507.8,3449.1,1185.0,1607.7,3437.0,3441.9,665.2,1364.8,921.1,540.2,1417.6,1879.1,3447.9,3443.1,914.4,1222.2,1276.5,1468.1,1135.7,1101.7,4.0,13.0,8.0,9068.0,12245.0,-4349.0,-4166.0,-8.0,-4.0,22.0,-4.0,3.0,0.0,10053.0,10030.0,5377.0,6152.0,-22.0,-6.0,4.0,1.0
2022-05-06 12:48:13.903624-07:00,1960.8,740.6,1150.6,1470.9,936.4,1297.2,1685.3,2034.4,3438.2,3427.4,1903.6,1540.3,1507.8,3432.2,1178.8,1613.4,3439.5,3433.4,662.7,1364.8,923.7,540.2,1417.6,1879.1,3439.5,3437.0,904.2,1222.2,1265.8,1468.1,1135.7,1101.7,1.0,4.0,14.0,9075.0,12239.0,-4349.0,-4168.0,-29.0,-9.0,0.0,-6.0,-11.0,12.0,10059.0,10025.0,5373.0,6154.0,-12.0,3.0,-5.0,1.0
2022-05-06 12:48:13.933239-07:00,1969.7,747.2,1154.2,1470.9,938.1,1297.2,1685.3,2034.4,3437.0,3447.9,1895.8,1540.3,1507.8,3432.2,1178.8,1613.4,3439.5,3433.4,662.7,1370.3,923.7,545.8,1415.8,1878.1,3439.5,3437.0,904.2,1217.7,1265.8,1469.0,1143.6,1097.3,3.0,6.0,12.0,9082.0,12230.0,-4359.0,-4170.0,-16.0,-23.0,30.0,-7.0,-5.0,11.0,10060.0,10024.0,5372.0,6155.0,-17.0,-4.0,6.0,1.0
2022-05-06 12:48:13.934587-07:00,1969.7,747.2,1154.2,1467.2,939.0,1298.1,1667.2,2033.4,3437.0,3447.9,1895.8,1536.6,1532.0,3439.5,1180.6,1607.7,3440.7,3437.0,663.6,1362.1,918.6,545.8,1415.8,1878.1,3450.4,3443.1,905.9,1216.8,1266.7,1469.0,1143.6,1097.3,6.0,8.0,22.0,9088.0,12219.0,-4368.0,-4178.0,-36.0,3.0,-9.0,-1.0,-8.0,7.0,10067.0,10021.0,5367.0,6155.0,-34.0,-10.0,0.0,1.0
2022-05-06 12:48:13.936056-07:00,1953.9,738.9,1151.5,1470.9,939.0,1298.1,1667.2,2033.4,3431.0,3439.5,1894.8,1534.8,1532.0,3439.5,1180.6,1607.7,3440.7,3437.0,663.6,1362.1,918.6,537.0,1409.4,1875.2,3450.4,3443.1,905.9,1216.8,1272.1,1469.0,1137.5,1099.0,-3.0,0.0,12.0,9108.0,12209.0,-4358.0,-4174.0,7.0,18.0,14.0,-5.0,-8.0,10.0,10070.0,10017.0,5365.0,6157.0,16.0,4.0,3.0,1.0
2022-05-06 12:48:13.962982-07:00,1953.9,738.9,1151.5,1470.9,940.7,1296.3,1671.9,2025.4,3431.0,3439.5,1894.8,1534.8,1505.1,3429.8,1178.8,1607.7,3439.5,3437.0,668.4,1360.3,918.6,537.0,1409.4,1875.2,3438.2,3445.5,905.0,1215.1,1272.1,1469.0,1137.5,1099.0,3.0,17.0,14.0,9103.0,12214.0,-4361.0,-4169.0,-36.0,27.0,-12.0,-1.0,-13.0,10.0,10066.0,10022.0,5367.0,6154.0,-14.0,9.0,4.0,1.0
2022-05-06 12:48:13.992796-07:00,1949.9,748.8,1161.2,1474.6,940.7,1296.3,1671.9,2025.4,3435.8,3438.2,1892.8,1541.3,1505.1,3429.8,1178.8,1607.7,3439.5,3437.0,668.4,1360.3,921.1,537.0,1412.2,1868.4,3438.2,3445.5,905.0,1215.1,1274.7,1469.0,1134.0,1096.4,0.0,18.0,9.0,9100.0,12218.0,-4359.0,-4165.0,30.0,-5.0,2.0,-7.0,3.0,4.0,10061.0,10027.0,5370.0,6152.0,10.0,-2.0,-4.0,1.0
2022-05-06 12:48:14.083068-07:00,1949.9,748.8,1161.2,1474.6,935.6,1291.8,1675.7,2012.4,3435.8,3438.2,1892.8,1541.3,1502.3,3429.8,1181.5,1596.4,3432.2,3443.1,662.7,1360.3,921.1,537.0,1412.2,1868.4,3439.5,3446.7,905.9,1216.0,1274.7,1469.0,1134.0,1096.4,0.0,1.0,8.0,9105.0,12214.0,-4359.0,-4166.0,-16.0,-17.0,29.0,-4.0,-11.0,6.0,10062.0,10025.0,5369.0,6153.0,-8.0,2.0,4.0,1.0
2022-05-06 12:48:14.113039-07:00,1944.0,738.1,1155.9,1468.1,935.6,1291.8,1675.7,2012.4,3444.3,3434.6,1884.0,1537.6,1502.3,3429.8,1181.5,1596.4,3432.2,3443.1,662.7,1360.3,924.5,539.4,1411.3,1871.3,3439.5,3446.7,905.9,1216.0,1265.8,1470.9,1136.6,1098.2,-1.0,1.0,20.0,9112.0,12208.0,-4357.0,-4169.0,18.0,13.0,-39.0,-2.0,-10.0,15.0,10063.0,10025.0,5369.0,6152.0,-7.0,5.0,-5.0,1.0
2022-05-06 12:48:14.233014-07:00,1939.0,738.1,1155.9,1468.1,939.8,1289.1,1668.2,2027.4,3434.6,3434.6,1884.0,1537.6,1507.8,3444.3,1173.5,1606.8,3439.5,3438.2,663.6,1376.6,924.5,539.4,1411.3,1871.3,3449.1,3438.2,891.5,1207.1,1265.8,1470.9,1136.6,1095.6,0.0,-2.0,8.0,9107.0,12216.0,-4348.0,-4166.0,14.0,12.0,13.0,-6.0,-3.0,6.0,10056.0,10029.0,5375.0,6151.0,33.0,17.0,-3.0,1.0
2022-05-06 12:48:14.235748-07:00,1939.0,735.6,1150.6,1473.6,939.8,1289.1,1668.2,2011.4,3434.6,3443.1,1883.0,1533.8,1507.8,3444.3,1173.5,1606.8,3431.0,3438.2,663.6,1376.6,920.3,538.6,1396.7,1871.3,3435.8,3438.2,891.5,1207.1,1269.4,1469.0,1137.5,1095.6,0.0,0.0,5.0,9113.0,12211.0,-4350.0,-4164.0,-26.0,9.0,-12.0,-5.0,-7.0,3.0,10057.0,10028.0,5375.0,6152.0,-34.0,-4.0,-2.0,1.0
2022-05-06 12:48:14.262972-07:00,1944.0,735.6,1150.6,1473.6,944.9,1284.6,1667.2,2011.4,3444.3,3443.1,1883.0,1533.8,1500.4,3428.6,1175.3,1606.8,3431.0,3439.5,664.4,1364.8,920.3,538.6,1396.7,1869.3,3435.8,3441.9,900.8,1216.0,1269.4,1469.0,1137.5,1095.6,7.0,16.0,10.0,9103.0,12215.0,-4356.0,-4169.0,5.0,-40.0,6.0,-7.0,2.0,3.0,10055.0,10030.0,5378.0,6148.0,7.0,-3.0,-15.0,1.0
2022-05-06 12:48:14.293779-07:00,1944.0,734.0,1147.1,1477.3,944.9,1284.6,1667.2,2020.4,3444.3,3441.9,1890.9,1541.3,1500.4,3428.6,1175.3,1599.3,3439.5,3439.5,664.4,1364.8,923.7,540.2,1407.6,1869.3,3440.7,3441.9,900.8,1216.0,1273.9,1470.0,1139.2,1095.6,4.0,10.0,23.0,9112.0,12204.0,-4358.0,-4181.0,-42.0,18.0,-23.0,-4.0,-6.0,10.0,10066.0,10021.0,5375.0,6147.0,-48.0,-14.0,-11.0,1.0
2022-05-06 12:48:14.413082-07:00,1939.0,734.0,1147.1,1477.3,939.8,1284.6,1672.9,2020.4,3447.9,3441.9,1890.9,1541.3,1500.4,3439.5,1170.0,1599.3,3439.5,3438.2,664.4,1355.8,923.7,540.2,1407.6,1864.5,3440.7,3443.1,892.4,1203.5,1273.9,1470.0,1139.2,1092.9,-1.0,-12.0,12.0,9123.0,12200.0,-4341.0,-4186.0,58.0,-3.0,0.0,-10.0,-10.0,15.0,10067.0,10019.0,5377.0,6148.0,46.0,13.0,-5.0,1.0
2022-05-06 12:48:14.414473-07:00,1939.0,734.8,1144.5,1468.1,939.8,1284.6,1672.9,2011.4,3447.9,3446.7,1885.0,1530.1,1500.4,3439.5,1170.0,1590.8,3440.7,3428.6,664.4,1355.8,922.8,542.6,1409.4,1864.5,3447.9,3444.3,892.4,1203.5,1274.7,1470.9,1140.1,1092.9,2.0,0.0,6.0,9118.0,12205.0,-4342.0,-4179.0,-57.0,22.0,-11.0,-3.0,-5.0,7.0,10061.0,10023.0,5382.0,6147.0,-39.0,3.0,-1.0,1.0
2022-05-06 12:48:14.443197-07:00,1952.9,732.3,1144.5,1468.1,941.5,1283.7,1672.9,2011.4,3438.2,3449.1,1885.0,1530.1,1506.9,3449.1,1170.0,1590.8,3440.7,3428.6,670.9,1364.8,922.8,542.6,1412.2,1860.6,3447.9,3444.3,889.0,1204.4,1274.7,1470.9,1140.1,1092.9,-1.0,14.0,10.0,9120.0,12202.0,-4342.0,-4183.0,44.0,-35.0,4.0,-6.0,-2.0,6.0,10063.0,10022.0,5381.0,6147.0,18.0,-5.0,-4.0,1.0
2022-05-06 12:48:14.503545-07:00,1952.9,732.3,1150.6,1466.3,941.5,1283.7,1653.9,2001.5,3438.2,3449.1,1875.2,1533.8,1506.9,3449.1,1167.4,1590.8,3428.6,3441.9,670.9,1364.8,917.7,540.2,1412.2,1860.6,3440.7,3435.8,889.0,1204.4,1273.9,1470.9,1140.1,1092.9,0.0,14.0,21.0,9121.0,12198.0,-4347.0,-4190.0,-61.0,21.0,-10.0,-5.0,1.0,5.0,10066.0,10018.0,5379.0,6149.0,-40.0,0.0,-4.0,1.0
2022-05-06 12:48:14.562974-07:00,1929.2,729.9,1150.6,1466.3,941.5,1290.9,1653.9,2001.5,3440.7,3445.5,1875.2,1533.8,1494.0,3441.9,1167.4,1590.8,3428.6,3441.9,662.7,1359.4,917.7,540.2,1410.3,1855.7,3440.7,3435.8,889.0,1205.3,1273.9,1470.9,1137.5,1096.4,2.0,0.0,-1.0,9133.0,12190.0,-4344.0,-4191.0,53.0,-19.0,40.0,-5.0,-11.0,8.0,10065.0,10019.0,5380.0,6149.0,56.0,10.0,5.0,1.0
2022-05-06 12:48:14.593647-07:00,1929.2,729.9,1154.2,1468.1,941.5,1290.9,1658.7,1989.5,3440.7,3445.5,1882.0,1532.0,1494.0,3441.9,1166.5,1583.3,3426.2,3443.1,662.7,1359.4,918.6,541.0,1410.3,1855.7,3433.4,3438.2,889.0,1205.3,1264.9,1470.9,1137.5,1096.4,5.0,8.0,8.0,9126.0,12187.0,-4367.0,-4191.0,-25.0,-39.0,21.0,-5.0,-1.0,1.0,10060.0,10025.0,5382.0,6145.0,-30.0,-14.0,0.0,1.0
2022-05-06 12:48:14.654793-07:00,1936.1,730.7,1149.8,1468.1,939.8,1288.2,1658.7,1989.5,3449.1,3437.0,1872.3,1532.0,1506.9,3441.9,1166.5,1583.3,3426.2,3443.1,671.7,1357.6,918.6,543.4,1400.3,1856.7,3433.4,3438.2,888.2,1203.5,1264.9,1471.8,1142.7,1089.5,3.0,4.0,22.0,9135.0,12173.0,-4373.0,-4205.0,-11.0,-26.0,0.0,-2.0,-5.0,12.0,10068.0,10021.0,5376.0,6145.0,-8.0,-4.0,2.0,1.0
2022-05-06 12:48:14.743030-07:00,1936.1,730.7,1149.8,1468.1,939.8,1283.7,1666.3,1996.5,3449.1,3437.0,1872.3,1529.2,1506.9,3439.5,1165.6,1590.8,3433.4,3433.4,662.7,1357.6,919.4,543.4,1400.3,1856.7,3444.3,3435.8,883.9,1203.5,1273.0,1471.8,1142.7,1089.5,2.0,5.0,21.0,9136.0,12170.0,-4376.0,-4208.0,10.0,0.0,-8.0,-2.0,-1.0,9.0,10065.0,10024.0,5377.0,6144.0,10.0,6.0,-6.0,1.0
2022-05-06 12:48:15.013133-07:00,1941.0,726.6,1148.0,1468.1,932.2,1283.7,1666.3,1996.5,3446.7,3432.2,1862.5,1529.2,1501.4,3439.5,1165.6,1590.8,3433.4,3433.4,662.7,1356.7,919.4,543.4,1402.1,1870.3,3444.3,3435.8,883.9,1203.5,1273.0,1462.6,1133.1,1088.6,2.0,-1.0,9.0,9139.0,12170.0,-4371.0,-4206.0,3.0,15.0,8.0,-8.0,-5.0,4.0,10063.0,10021.0,5381.0,6147.0,7.0,13.0,7.0,1.0
2022-05-06 12:48:15.014428-07:00,1941.0,726.6,1148.0,1468.1,932.2,1286.4,1637.9,1990.5,3446.7,3432.2,1862.5,1525.5,1501.4,3433.4,1161.2,1589.9,3440.7,3431.0,665.2,1356.7,919.4,543.4,1402.1,1870.3,3449.1,3438.2,876.4,1203.5,1266.7,1462.6,1133.1,1088.6,4.0,2.0,0.0,9141.0,12170.0,-4373.0,-4201.0,-11.0,-6.0,7.0,-9.0,-1.0,3.0,10060.0,10022.0,5382.0,6150.0,-7.0,0.0,4.0,1.0
2022-05-06 12:48:15.133594-07:00,1932.1,728.2,1147.1,1468.1,940.7,1286.4,1637.9,1990.5,3446.7,3432.2,1865.4,1525.5,1506.0,3433.4,1161.2,1589.9,3440.7,3431.0,665.2,1368.5,919.4,544.2,1399.4,1855.7,3449.1,3438.2,876.4,1205.3,1266.7,1474.6,1127.0,1086.8,2.0,4.0,20.0,9143.0,12166.0,-4373.0,-4208.0,-11.0,-24.0,-15.0,-6.0,-5.0,15.0,10063.0,10020.0,5380.0,6151.0,-3.0,-1.0,-3.0,1.0
2022-05-06 12:48:15.135335-07:00,1932.1,728.2,1147.1,1469.0,940.7,1280.1,1654.9,1994.5,3446.7,3432.2,1865.4,1532.0,1506.0,3446.7,1159.4,1588.0,3435.8,3440.7,664.4,1368.5,916.9,544.2,1399.4,1855.7,3437.0,3439.5,888.2,1205.3,1269.4,1474.6,1127.0,1086.8,2.0,8.0,9.0,9141.0,12165.0,-4374.0,-4212.0,10.0,4.0,0.0,-6.0,0.0,6.0,10062.0,10020.0,5380.0,6151.0,9.0,3.0,-7.0,1.0
2022-05-06 12:48:15.136616-07:00,1934.1,729.9,1157.7,1465.4,939.8,1280.1,1654.9,1994.5,3447.9,3437.0,1861.5,1528.3,1499.5,3446.7,1159.4,1588.0,3435.8,3440.7,664.4,1362.1,915.2,541.8,1410.3,1857.6,3437.0,3439.5,888.2,1198.2,1271.2,1471.8,1136.6,1088.6,-2.0,2.0,10.0,9136.0,12170.0,-4374.0,-4212.0,24.0,0.0,-12.0,-7.0,-10.0,7.0,10060.0,10023.0,5383.0,6148.0,14.0,-1.0,-6.0,1.0
2022-05-06 12:48:15.138184-07:00,1934.1,729.9,1157.7,1465.4,933.9,1281.0,1652.0,1991.5,3447.9,3437.0,1861.5,1528.3,1496.7,3433.4,1160.3,1589.9,3443.1,3428.6,666.0,1356.7,915.2,541.8,1410.3,1857.6,3443.1,3441.9,883.1,1195.6,1271.2,1471.8,1136.6,1088.6,-3.0,-6.0,5.0,9125.0,12178.0,-4380.0,-4205.0,-9.0,-14.0,13.0,-5.0,-17.0,10.0,10053.0,10026.0,5390.0,6150.0,1.0,5.0,-5.0,1.0
2022-05-06 12:48:15.222996-07:00,1925.2,728.2,1153.3,1468.1,933.9,1280.1,1647.3,1988.5,3445.5,3441.9,1852.8,1530.1,1504.1,3429.8,1158.6,1589.9,3439.5,3438.2,665.2,1359.4,924.5,538.6,1414.0,1852.8,3435.8,3449.1,875.5,1208.0,1273.0,1462.6,1139.2,1092.9,-6.0,20.0,13.0,9108.0,12178.0,-4403.0,-4216.0,22.0,-75.0,12.0,-4.0,2.0,9.0,10053.0,10025.0,5391.0,6148.0,-16.0,-1.0,-14.0,1.0
2022-05-06 12:48:15.403468-07:00,1947.9,731.5,1149.8,1470.9,949.2,1311.5,1650.2,1999.5,3443.1,3437.0,1865.4,1529.2,1496.7,3449.1,1356.7,1602.1,3438.2,3435.8,667.6,1363.0,917.7,544.2,1461.7,1897.7,3435.8,3447.9,874.7,1374.8,1273.0,1465.4,1137.5,1089.5,149.0,-90.0,19.0,9408.0,11985.0,-4121.0,-4394.0,-838.0,323.0,-327.0,-20.0,-99.0,-47.0,10309.0,9823.0,5250.0,6173.0,-696.0,-157.0,-106.0,1.0
2022-05-06 12:48:15.404756-07:00,1947.9,737.3,1148.0,1464.4,949.2,1311.5,1650.2,2238.4,3443.1,3443.1,2762.4,1592.7,1496.7,3449.1,1356.7,1757.9,3428.6,3435.8,667.6,1363.0,921.1,542.6,1706.2,1897.7,3438.2,3447.9,874.7,1374.8,1269.4,1468.1,1132.2,1089.5,271.0,216.0,73.0,9670.0,11865.0,-3849.0,-4399.0,-1209.0,4.0,-244.0,36.0,42.0,-44.0,10542.0,9644.0,5091.0,6195.0,-1051.0,-277.0,-104.0,1.0
2022-05-06 12:48:15.462735-07:00,1948.9,737.3,1148.0,1464.4,932.2,1425.0,1746.4,2238.4,3443.1,3443.1,2762.4,1592.7,1545.9,3444.3,1805.2,1757.9,3428.6,3439.5,666.8,1365.7,921.1,542.6,1706.2,1986.6,3438.2,3449.1,1060.8,1527.3,1269.4,1468.1,1132.2,1089.5,-15.0,-193.0,-44.0,10047.0,11587.0,-3490.0,-4590.0,-898.0,158.0,-372.0,5.0,-130.0,25.0,10920.0,9299.0,4840.0,6268.0,-1075.0,-284.0,-88.0,1.0
2022-05-06 12:48:15.464074-07:00,1948.9,737.3,1142.7,1461.7,932.2,1425.0,1746.4,2309.7,3443.1,3444.3,2722.7,1708.1,1545.9,3444.3,1805.2,1794.5,3433.4,3439.5,666.8,1365.7,921.1,542.6,1732.0,1986.6,3440.7,3449.1,1060.8,1527.3,1275.6,1484.7,1139.2,1089.5,5.0,28.0,66.0,10151.0,11504.0,-3462.0,-4591.0,-173.0,23.0,276.0,-16.0,-45.0,56.0,11048.0,9220.0,4718.0,6254.0,-169.0,-181.0,8.0,1.0
2022-05-06 12:48:15.465806-07:00,1959.8,737.3,1142.7,1461.7,938.1,1573.9,1858.6,2309.7,3440.7,3444.3,2722.7,1708.1,1559.0,3435.8,1703.3,1794.5,3433.4,3434.6,664.4,1398.5,921.1,542.6,1732.0,2035.4,3440.7,3435.8,1241.7,1595.5,1275.6,1484.7,1139.2,1097.3,-12.0,-150.0,37.0,10270.0,11450.0,-3350.0,-4542.0,-321.0,427.0,-241.0,4.0,-100.0,79.0,11160.0,9130.0,4628.0,6254.0,-171.0,-43.0,-68.0,1.0
2022-05-06 12:48:15.467051-07:00,1959.8,745.5,1143.6,1467.2,938.1,1573.9,1945.9,2305.6,3440.7,3441.9,2584.2,1757.0,1559.0,3435.8,1645.4,1835.2,3438.2,3438.2,664.4,1398.5,927.9,541.8,1767.5,2035.4,3445.5,3438.2,1241.7,1595.5,1270.3,1496.7,1141.9,1097.3,104.0,81.0,28.0,10195.0,11575.0,-3311.0,-4422.0,241.0,243.0,64.0,-39.0,58.0,-45.0,11118.0,9176.0,4682.0,6221.0,0.0,-4.0,-33.0,1.0
2022-05-06 12:48:15.522930-07:00,1965.7,745.5,1143.6,1467.2,939.8,1706.2,1945.9,2305.6,3428.6,3445.5,2584.2,1757.0,1564.6,3435.8,1645.4,1835.2,3438.2,3438.2,668.4,1458.9,927.9,541.8,1778.1,2078.5,3445.5,3438.2,1240.8,1581.4,1270.3,1496.7,1135.7,1115.6,-21.0,-31.0,6.0,10245.0,11606.0,-3184.0,-4315.0,14.0,394.0,-43.0,4.0,-25.0,53.0,11117.0,9171.0,4694.0,6222.0,158.0,58.0,-35.0,1.0
2022-05-06 12:48:15.553141-07:00,1965.7,745.5,1139.2,1470.9,939.8,1706.2,1914.4,2244.5,3428.6,3445.5,2507.9,1772.3,1564.6,3435.8,1615.2,1869.3,3433.4,3439.5,668.4,1458.9,933.0,550.6,1778.1,2078.5,3439.5,3449.1,1240.8,1581.4,1268.5,1498.6,1135.7,1115.6,45.0,63.0,-15.0,10163.0,11709.0,-3222.0,-4202.0,406.0,97.0,173.0,-18.0,29.0,-57.0,11036.0,9252.0,4765.0,6192.0,235.0,33.0,0.0,1.0
2022-05-06 12:48:15.613069-07:00,1946.9,748.0,1139.2,1470.9,937.3,1691.9,1914.4,2244.5,3433.4,3444.3,2507.9,1772.3,1556.2,3449.1,1615.2,1869.3,3433.4,3439.5,666.0,1481.9,933.0,550.6,1745.4,2063.5,3439.5,3449.1,1213.3,1546.9,1268.5,1498.6,1136.6,1163.8,-36.0,-39.0,-3.0,10141.0,11749.0,-3203.0,-4157.0,95.0,-6.0,-6.0,-5.0,-50.0,60.0,11028.0,9256.0,4774.0,6193.0,25.0,30.0,6.0,1.0
2022-05-06 12:48:15.706691-07:00,1946.9,748.0,1139.2,1463.5,937.3,1691.9,1899.7,2193.2,3433.4,3444.3,2468.5,1775.2,1556.2,3449.1,1599.3,1855.7,3434.6,3433.4,666.0,1481.9,930.5,544.2,1745.4,2063.5,3443.1,3440.7,1213.3,1546.9,1270.3,1483.8,1136.6,1163.8,16.0,39.0,-19.0,10096.0,11772.0,-3270.0,-4152.0,68.0,-101.0,42.0,-15.0,3.0,-20.0,11013.0,9275.0,4785.0,6182.0,-26.0,-36.0,-3.0,1.0
2022-05-06 12:48:15.707813-07:00,1964.7,749.6,1139.2,1463.5,933.9,1661.5,1899.7,2193.2,3440.7,3435.8,2468.5,1775.2,1546.9,3444.3,1599.3,1855.7,3434.6,3433.4,664.4,1478.3,930.5,544.2,1730.1,2069.5,3443.1,3440.7,1195.6,1518.0,1270.3,1483.8,1147.1,1194.7,-12.0,-23.0,30.0,10059.0,11799.0,-3271.0,-4164.0,186.0,-38.0,-9.0,0.0,-16.0,44.0,11013.0,9277.0,4792.0,6174.0,100.0,25.0,-25.0,1.0
2022-05-06 12:48:15.792997-07:00,1964.7,749.6,1131.4,1467.2,933.9,1638.8,1872.3,2172.8,3440.7,3435.8,2436.7,1795.5,1546.9,3438.2,1588.0,1857.6,3439.5,3429.8,663.6,1478.3,927.1,541.8,1730.1,2069.5,3445.5,3438.2,1187.6,1518.0,1273.0,1485.6,1147.1,1194.7,56.0,67.0,18.0,10020.0,11821.0,-3312.0,-4164.0,-13.0,42.0,-23.0,3.0,38.0,-31.0,11005.0,9282.0,4800.0,6174.0,-49.0,18.0,13.0,1.0
2022-05-06 12:48:15.794371-07:00,1947.9,745.5,1136.6,1467.2,935.6,1638.8,1872.3,2172.8,3437.0,3435.8,2416.6,1795.5,1544.1,3438.2,1588.0,1857.6,3439.5,3429.8,663.6,1470.0,927.1,544.2,1712.9,2061.5,3445.5,3438.2,1187.6,1512.5,1273.0,1486.6,1142.7,1191.2,-4.0,-29.0,1.0,10015.0,11820.0,-3319.0,-4174.0,115.0,-88.0,55.0,-5.0,-16.0,25.0,11008.0,9278.0,4797.0,6178.0,68.0,9.0,-4.0,1.0
2022-05-06 12:48:15.942740-07:00,1947.9,745.5,1136.6,1473.6,935.6,1627.5,1842.0,2148.3,3437.0,3435.8,2416.6,1796.5,1544.1,3449.1,1579.6,1849.8,3444.3,3437.0,661.9,1470.0,923.7,544.2,1712.9,2061.5,3450.4,3440.7,1185.9,1512.5,1278.3,1486.6,1142.7,1191.2,33.0,37.0,2.0,9991.0,11813.0,-3384.0,-4198.0,-56.0,-81.0,18.0,-8.0,18.0,-21.0,11016.0,9273.0,4787.0,6180.0,-137.0,-33.0,24.0,1.0
2022-05-06 12:48:16.032891-07:00,1945.9,729.0,1140.1,1473.6,943.2,1627.5,1842.0,2148.3,3434.6,3433.4,2405.0,1796.5,1545.0,3449.1,1579.6,1849.8,3444.3,3437.0,661.9,1467.2,923.7,545.0,1704.3,2055.4,3450.4,3440.7,1185.9,1485.6,1278.3,1489.3,1146.3,1178.8,-9.0,-55.0,11.0,10043.0,11751.0,-3378.0,-4250.0,-58.0,-138.0,38.0,-5.0,-44.0,29.0,11069.0,9218.0,4740.0,6202.0,-55.0,-21.0,-8.0,1.0
2022-05-06 12:48:16.092622-07:00,1945.9,729.0,1140.1,1474.6,943.2,1619.0,1837.2,2123.0,3434.6,3433.4,2405.0,1786.8,1545.0,3443.1,1566.5,1834.3,3439.5,3439.5,664.4,1467.2,927.1,545.0,1704.3,2055.4,3447.9,3437.0,1177.9,1485.6,1268.5,1489.3,1146.3,1178.8,10.0,18.0,32.0,10020.0,11752.0,-3429.0,-4262.0,-10.0,-49.0,38.0,0.0,11.0,27.0,11059.0,9233.0,4744.0,6195.0,-9.0,-3.0,17.0,1.0
2022-05-06 12:48:16.183580-07:00,1938.0,727.4,1139.2,1473.6,939.8,1619.0,1837.2,2123.0,3443.1,3445.5,2390.3,1780.1,1538.5,3443.1,1566.5,1834.3,3439.5,3439.5,664.4,1463.5,923.7,540.2,1687.2,2046.4,3447.9,3437.0,1177.9,1477.3,1264.9,1485.6,1148.9,1173.5,17.0,21.0,10.0,10033.0,11736.0,-3453.0,-4256.0,-17.0,9.0,37.0,-3.0,-4.0,5.0,11059.0,9232.0,4742.0,6199.0,4.0,12.0,8.0,1.0
2022-05-06 12:48:16.184846-07:00,1938.0,727.4,1139.2,1473.6,941.5,1612.4,1841.1,2126.0,3443.1,3445.5,2390.3,1780.1,1534.8,3437.0,1565.5,1838.2,3434.6,3439.5,663.6,1458.0,923.7,540.2,1687.2,2046.4,3446.7,3447.9,1171.8,1472.7,1264.9,1485.6,1148.9,1173.5,9.0,-5.0,8.0,10014.0,11749.0,-3474.0,-4249.0,86.0,-14.0,42.0,-10.0,0.0,8.0,11045.0,9244.0,4755.0,6195.0,53.0,10.0,6.0,1.0
2022-05-06 12:48:16.186335-07:00,1931.1,727.4,1141.0,1466.3,941.5,1612.4,1841.1,2126.0,3449.1,3443.1,2366.1,1772.3,1534.8,3437.0,1565.5,1838.2,3434.6,3439.5,663.6,1458.0,926.2,542.6,1688.1,2042.4,3446.7,3447.9,1171.8,1472.7,1271.2,1483.8,1147.1,1182.3,-4.0,-3.0,-1.0,10010.0,11750.0,-3489.0,-4241.0,42.0,-38.0,36.0,-3.0,-15.0,17.0,11044.0,9243.0,4755.0,6199.0,33.0,2.0,3.0,1.0
2022-05-06 12:48:16.187327-07:00,1931.1,727.4,1141.0,1466.3,937.3,1598.3,1835.2,2115.9,3449.1,3443.1,2366.1,1772.3,1537.6,3433.4,1560.9,1822.6,3432.2,3444.3,665.2,1459.8,926.2,542.6,1688.1,2042.4,3444.3,3439.5,1174.4,1461.7,1271.2,1483.8,1147.1,1182.3,15.0,10.0,0.0,10007.0,11745.0,-3508.0,-4247.0,-11.0,-40.0,16.0,-5.0,2.0,-2.0,11044.0,9245.0,4755.0,6196.0,-15.0,-18.0,-4.0,1.0
2022-05-06 12:48:16.212998-07:00,1930.2,725.8,1142.7,1470.9,937.3,1598.3,1835.2,2115.9,3440.7,3447.9,2342.0,1780.1,1537.6,3433.4,1560.9,1822.6,3432.2,3444.3,665.2,1459.8,925.4,538.6,1679.5,2037.4,3444.3,3439.5,1174.4,1461.7,1266.7,1484.7,1153.3,1170.9,9.0,2.0,26.0,10020.0,11732.0,-3509.0,-4251.0,-2.0,15.0,-2.0,-3.0,-10.0,21.0,11055.0,9233.0,4749.0,6199.0,7.0,9.0,-2.0,1.0
2022-05-06 12:48:16.243053-07:00,1928.2,725.8,1142.7,1470.9,940.7,1587.1,1831.3,2099.7,3441.9,3447.9,2342.0,1780.1,1530.1,3450.4,1561.8,1808.1,3439.5,3435.8,666.8,1453.4,925.4,538.6,1679.5,2032.4,3444.3,3445.5,1172.6,1463.5,1266.7,1484.7,1153.3,1162.1,-1.0,1.0,6.0,10009.0,11745.0,-3511.0,-4238.0,49.0,4.0,28.0,-6.0,-3.0,20.0,11049.0,9233.0,4759.0,6201.0,42.0,16.0,-7.0,1.0
2022-05-06 12:48:16.332947-07:00,1928.2,722.5,1138.4,1462.6,940.7,1587.1,1831.3,2103.7,3441.9,3438.2,2361.9,1780.1,1530.1,3450.4,1561.8,1814.9,3444.3,3435.8,666.8,1453.4,920.3,543.4,1680.5,2032.4,3447.9,3445.5,1172.6,1463.5,1273.9,1493.0,1175.3,1162.1,18.0,13.0,-5.0,10018.0,11733.0,-3527.0,-4239.0,-82.0,-17.0,9.0,-6.0,0.0,-12.0,11048.0,9234.0,4759.0,6201.0,-51.0,-6.0,9.0,1.0
