Time,P0,P1,P2,P3,P4,P5,P6,P7,P8,P9,P10,P11,P12,P13,P14,P15,P16,P17,P18,P19,P20,P21,P22,P23,P24,P25,P26,P27,P28,P29,P30,P31,ECG,AX0,AY0,AZ0,QW0,QX0,QY0,QZ0,GX0,GY0,GZ0,AX1,AY1,AZ1,QW1,QX1,QY1,QZ1,GX1,GY1,GZ1
2022-05-06 14:35:44.505752-07:00,1115.6,675.8,926.2,878.9,824.4,723.3,1597.4,1326.8,3467.4,3469.8,1018.5,801.0,1400.3,3460.1,1171.8,1149.8,3475.9,3475.9,329.8,619.7,946.6,1166.5,567.4,1712.9,3481.9,3466.1,618.1,680.7,1685.3,922.0,833.6,767.8,6.0,-15.0,-1.0,10073.0,-11450.0,5903.0,-1016.0,-57.0,-13.0,1.0,1.0,0.0,-11.0,7249.0,-14596.0,-41.0,1686.0,-58.0,8.0,3.0,1.0
2022-05-06 14:35:44.566213-07:00,1113.9,675.8,926.2,878.9,822.7,728.2,1596.4,1321.4,3468.6,3469.8,1018.5,801.0,1400.3,3478.3,1175.3,1161.2,3473.4,3478.3,323.6,618.9,946.6,1166.5,567.4,1719.6,3467.4,3479.5,616.5,683.1,1685.3,922.0,833.6,761.2,10.0,7.0,10.0,10072.0,-11450.0,5905.0,-1012.0,44.0,5.0,7.0,5.0,-4.0,2.0,7257.0,-14592.0,-42.0,1688.0,51.0,-6.0,-1.0,1.0
2022-05-06 14:35:44.566892-07:00,1113.9,683.1,926.2,875.5,822.7,728.2,1596.4,1325.9,3468.6,3477.1,1016.8,797.7,1400.3,3478.3,1175.3,1156.8,3474.6,3478.3,323.6,618.9,944.9,1160.3,569.8,1719.6,3475.9,3479.5,616.5,683.1,1676.7,910.1,837.7,761.2,5.0,0.0,3.0,10074.0,-11451.0,5898.0,-1019.0,-35.0,-16.0,-36.0,3.0,-6.0,-2.0,7253.0,-14594.0,-42.0,1688.0,-38.0,3.0,-6.0,1.0
2022-05-06 14:35:44.596164-07:00,1117.4,683.1,926.2,875.5,821.0,723.3,1601.1,1325.9,3475.9,3477.1,1016.8,797.7,1400.3,3478.3,1170.9,1156.8,3474.6,3474.6,323.6,614.1,944.9,1160.3,569.8,1726.3,3475.9,3474.6,621.4,685.6,1676.7,910.1,837.7,765.3,13.0,-2.0,3.0,10069.0,-11460.0,5888.0,-1022.0,-15.0,0.0,-16.0,3.0,0.0,-5.0,7245.0,-14598.0,-43.0,1688.0,-12.0,-4.0,-3.0,1.0
2022-05-06 14:35:44.715502-07:00,1117.4,675.8,921.1,875.5,821.0,723.3,1601.1,1318.7,3475.9,3469.8,1015.9,792.7,1400.3,3478.3,1170.9,1154.2,3479.5,3474.6,323.6,614.1,944.1,1166.5,565.8,1726.3,3472.2,3474.6,621.4,685.6,1675.7,913.5,832.7,765.3,0.0,-1.0,2.0,10070.0,-11462.0,5882.0,-1026.0,-8.0,-17.0,-11.0,1.0,-8.0,4.0,7245.0,-14598.0,-43.0,1688.0,-9.0,4.0,-6.0,1.0
2022-05-06 14:35:44.717134-07:00,1115.6,676.6,926.2,874.7,829.4,724.1,1586.1,1317.8,3468.6,3469.8,1013.3,794.4,1399.4,3483.2,1169.1,1158.6,3483.2,3466.1,328.2,619.7,944.9,1165.6,569.0,1729.1,3483.2,3472.2,618.1,692.9,1675.7,916.0,835.2,778.6,1.0,-2.0,6.0,10071.0,-11462.0,5881.0,-1023.0,-10.0,-12.0,-8.0,6.0,-10.0,7.0,7248.0,-14596.0,-43.0,1689.0,-8.0,2.0,-2.0,1.0
2022-05-06 14:35:44.719025-07:00,1114.7,679.1,926.2,874.7,824.4,731.5,1597.4,1317.8,3475.9,3481.9,1013.3,794.4,1401.2,3468.6,1170.0,1158.6,3483.2,3472.2,332.1,623.0,944.9,1165.6,565.8,1720.5,3483.2,3474.6,627.8,688.0,1675.7,916.0,841.9,764.5,4.0,-10.0,6.0,10073.0,-11462.0,5878.0,-1018.0,12.0,-8.0,18.0,3.0,-10.0,0.0,7250.0,-14595.0,-43.0,1689.0,24.0,-2.0,7.0,1.0
2022-05-06 14:35:44.775982-07:00,1114.7,679.1,920.3,871.3,824.4,731.5,1591.7,1316.9,3475.9,3481.9,1013.3,795.2,1401.2,3468.6,1175.3,1157.7,3479.5,3479.5,332.1,623.0,943.2,1159.4,565.8,1720.5,3483.2,3480.7,627.8,688.0,1683.3,919.4,841.9,764.5,6.0,13.0,5.0,10079.0,-11455.0,5881.0,-1024.0,6.0,17.0,5.0,3.0,4.0,2.0,7259.0,-14591.0,-42.0,1689.0,-2.0,7.0,1.0,1.0
2022-05-06 14:35:44.805837-07:00,1118.2,676.6,920.3,871.3,817.7,732.3,1591.7,1316.9,3467.4,3478.3,1013.3,795.2,1401.2,3468.6,1175.3,1157.7,3479.5,3479.5,329.8,617.3,943.2,1159.4,567.4,1711.0,3483.2,3480.7,619.7,688.9,1683.3,919.4,836.9,772.0,7.0,-6.0,0.0,10077.0,-11460.0,5875.0,-1020.0,-15.0,-34.0,-5.0,8.0,-3.0,-4.0,7253.0,-14594.0,-42.0,1689.0,-9.0,-3.0,-2.0,1.0
2022-05-06 14:35:44.806996-07:00,1118.2,676.6,921.1,874.7,817.7,732.3,1594.6,1315.1,3467.4,3478.3,1011.6,795.2,1401.2,3468.6,1178.8,1147.1,3467.4,3467.4,329.8,617.3,946.6,1161.2,567.4,1711.0,3473.4,3472.2,619.7,688.9,1675.7,910.1,836.9,772.0,11.0,-1.0,11.0,10080.0,-11460.0,5871.0,-1018.0,22.0,18.0,9.0,4.0,0.0,0.0,7256.0,-14592.0,-42.0,1689.0,18.0,2.0,0.0,1.0
2022-05-06 14:35:44.835256-07:00,1113.9,680.7,921.1,874.7,826.0,731.5,1594.6,1315.1,3464.9,3472.2,1011.6,795.2,1399.4,3473.4,1178.8,1147.1,3467.4,3467.4,326.7,621.4,946.6,1161.2,565.0,1714.8,3473.4,3472.2,618.9,684.8,1675.7,910.1,831.1,757.9,-1.0,-3.0,-2.0,10080.0,-11461.0,5870.0,-1014.0,-24.0,-37.0,0.0,1.0,-7.0,5.0,7255.0,-14593.0,-42.0,1689.0,-14.0,4.0,-4.0,1.0
2022-05-06 14:35:44.895427-07:00,1113.9,680.7,921.1,877.2,826.0,728.2,1588.9,1316.9,3464.9,3472.2,1010.8,796.0,1399.4,3456.4,1175.3,1161.2,3467.4,3473.4,334.4,621.4,947.5,1165.6,565.0,1714.8,3483.2,3478.3,623.0,684.8,1683.3,914.4,831.1,757.9,13.0,-7.0,12.0,10087.0,-11459.0,5863.0,-1006.0,33.0,5.0,14.0,4.0,-2.0,-5.0,7257.0,-14591.0,-42.0,1690.0,34.0,-12.0,1.0,1.0
2022-05-06 14:35:44.955193-07:00,1111.2,679.9,925.4,877.2,826.9,728.2,1588.9,1316.9,3471.0,3475.9,1015.9,796.0,1396.7,3456.4,1175.3,1161.2,3467.4,3473.4,334.4,618.9,947.5,1167.4,564.2,1715.8,3483.2,3478.3,623.0,682.3,1683.3,912.7,834.4,759.6,1.0,5.0,13.0,10087.0,-11456.0,5867.0,-1021.0,6.0,25.0,-23.0,3.0,-6.0,6.0,7263.0,-14589.0,-42.0,1690.0,-11.0,2.0,-4.0,1.0
2022-05-06 14:35:45.015529-07:00,1111.2,679.9,925.4,870.5,826.9,726.6,1578.6,1316.9,3471.0,3475.9,1015.9,798.5,1396.7,3473.4,1172.6,1153.3,3481.9,3474.6,323.6,618.9,940.7,1167.4,564.2,1715.8,3469.8,3473.4,619.7,682.3,1671.9,912.7,834.4,759.6,2.0,-21.0,3.0,10083.0,-11459.0,5866.0,-1021.0,-33.0,18.0,32.0,0.0,-13.0,-8.0,7256.0,-14592.0,-43.0,1690.0,-8.0,0.0,10.0,1.0
2022-05-06 14:35:45.045445-07:00,1114.7,683.1,927.9,870.5,823.5,726.6,1578.6,1316.9,3473.4,3467.4,1007.3,798.5,1397.6,3473.4,1172.6,1153.3,3481.9,3474.6,323.6,617.3,940.7,1161.2,572.2,1711.9,3469.8,3473.4,619.7,683.1,1671.9,910.1,836.1,764.5,9.0,13.0,11.0,10075.0,-11449.0,5899.0,-1027.0,18.0,63.0,28.0,9.0,-6.0,10.0,7260.0,-14590.0,-35.0,1693.0,23.0,11.0,14.0,1.0
2022-05-06 14:35:45.135028-07:00,1114.7,683.1,927.9,877.2,823.5,724.9,1588.0,1312.4,3473.4,3467.4,1007.3,798.5,1397.6,3477.1,1169.1,1157.7,3478.3,3477.1,326.7,617.3,948.3,1161.2,572.2,1711.9,3477.1,3484.4,612.5,683.1,1676.7,910.1,836.1,764.5,5.0,5.0,-12.0,10070.0,-11449.0,5904.0,-1041.0,-45.0,11.0,-27.0,0.0,1.0,-7.0,7260.0,-14591.0,-30.0,1688.0,-46.0,15.0,-2.0,1.0
2022-05-06 14:35:45.166033-07:00,1113.0,672.5,922.8,873.0,825.2,724.9,1588.0,1312.4,3475.9,3471.0,1015.1,799.4,1396.7,3477.1,1169.1,1157.7,3478.3,3477.1,326.7,614.1,940.7,1158.6,571.4,1719.6,3477.1,3484.4,612.5,682.3,1678.6,911.8,840.3,763.7,5.0,-1.0,5.0,10063.0,-11453.0,5908.0,-1043.0,41.0,33.0,37.0,6.0,-2.0,3.0,7257.0,-14592.0,-30.0,1686.0,31.0,-5.0,8.0,1.0
2022-05-06 14:35:45.195240-07:00,1113.0,672.5,922.8,873.0,826.9,725.8,1582.4,1314.2,3475.9,3471.0,1015.1,799.4,1404.9,3467.4,1164.7,1155.9,3479.5,3478.3,323.6,621.4,940.7,1158.6,571.4,1719.6,3477.1,3479.5,618.9,684.0,1678.6,911.8,840.3,763.7,9.0,7.0,6.0,10067.0,-11448.0,5911.0,-1042.0,-21.0,-16.0,-25.0,2.0,0.0,-1.0,7262.0,-14589.0,-29.0,1686.0,-12.0,-6.0,-7.0,1.0
2022-05-06 14:35:45.225319-07:00,1113.9,678.2,929.6,876.4,826.9,725.8,1582.4,1314.2,3477.1,3477.1,1006.5,799.4,1404.9,3467.4,1164.7,1155.9,3479.5,3478.3,323.6,621.4,945.8,1162.1,570.6,1713.8,3477.1,3479.5,618.9,684.0,1685.3,927.1,835.2,766.2,7.0,-14.0,11.0,10068.0,-11446.0,5912.0,-1052.0,44.0,45.0,15.0,3.0,-7.0,0.0,7265.0,-14588.0,-29.0,1686.0,24.0,-4.0,8.0,1.0
2022-05-06 14:35:45.285166-07:00,1113.9,678.2,929.6,876.4,817.7,729.9,1583.3,1306.1,3477.1,3477.1,1006.5,799.4,1393.0,3471.0,1184.1,1141.0,3472.2,3477.1,329.8,610.8,945.8,1162.1,570.6,1713.8,3473.4,3467.4,612.5,679.9,1685.3,927.1,835.2,766.2,0.0,14.0,1.0,10074.0,-11434.0,5924.0,-1065.0,-8.0,8.0,-4.0,3.0,-3.0,3.0,7272.0,-14584.0,-27.0,1687.0,-8.0,2.0,2.0,1.0
2022-05-06 14:35:45.345474-07:00,1117.4,676.6,929.6,866.3,817.7,729.9,1583.3,1306.1,3474.6,3473.4,1011.6,794.4,1393.0,3471.0,1184.1,1141.0,3472.2,3477.1,329.8,610.8,941.5,1164.7,569.8,1711.9,3473.4,3467.4,612.5,679.9,1671.9,910.1,837.7,765.3,5.0,-4.0,-4.0,10070.0,-11437.0,5924.0,-1064.0,10.0,-2.0,-1.0,5.0,-4.0,-1.0,7267.0,-14587.0,-28.0,1687.0,10.0,-2.0,0.0,1.0
2022-05-06 14:35:45.405225-07:00,1117.4,676.6,929.6,866.3,824.4,717.5,1589.9,1317.8,3474.6,3473.4,1011.6,794.4,1394.8,3474.6,1166.5,1146.3,3467.4,3468.6,322.8,619.7,941.5,1164.7,569.8,1711.9,3474.6,3478.3,618.9,680.7,1671.9,910.1,837.7,765.3,4.0,-3.0,2.0,10077.0,-11427.0,5931.0,-1066.0,23.0,29.0,39.0,3.0,-13.0,2.0,7275.0,-14583.0,-27.0,1687.0,18.0,-2.0,3.0,1.0
2022-05-06 14:35:45.435205-07:00,1116.5,679.1,926.2,871.3,824.4,717.5,1589.9,1314.2,3474.6,3468.6,1009.9,807.7,1394.8,3474.6,1166.5,1155.0,3478.3,3468.6,322.8,619.7,933.0,1168.2,567.4,1717.7,3484.4,3478.3,618.9,680.7,1684.3,911.0,831.1,762.9,18.0,8.0,7.0,10080.0,-11422.0,5936.0,-1067.0,-20.0,-5.0,-17.0,4.0,5.0,-2.0,7280.0,-14581.0,-27.0,1686.0,-2.0,3.0,-12.0,1.0
2022-05-06 14:35:45.525269-07:00,1113.0,679.1,926.2,871.3,830.2,724.9,1583.3,1314.2,3467.4,3468.6,1009.9,807.7,1401.2,3473.4,1174.4,1155.0,3478.3,3480.7,330.5,618.1,933.0,1168.2,567.4,1712.9,3484.4,3483.2,614.1,679.1,1684.3,911.0,831.1,757.9,0.0,-14.0,1.0,10076.0,-11423.0,5940.0,-1073.0,22.0,12.0,22.0,2.0,-13.0,-2.0,7281.0,-14580.0,-27.0,1686.0,22.0,2.0,12.0,1.0
2022-05-06 14:35:45.526252-07:00,1113.0,683.1,926.2,867.9,830.2,724.9,1583.3,1311.5,3467.4,3473.4,1007.3,795.2,1401.2,3473.4,1174.4,1147.1,3477.1,3480.7,330.5,618.1,941.5,1171.8,565.0,1712.9,3475.9,3483.2,614.1,679.1,1674.8,912.7,833.6,757.9,13.0,11.0,12.0,10080.0,-11417.0,5944.0,-1071.0,-23.0,-8.0,-14.0,5.0,3.0,1.0,7282.0,-14579.0,-24.0,1687.0,-15.0,1.0,1.0,1.0
2022-05-06 14:35:45.585214-07:00,1107.8,683.1,926.2,867.9,821.0,722.5,1581.4,1311.5,3473.4,3473.4,1007.3,795.2,1396.7,3464.9,1172.6,1147.1,3477.1,3478.3,332.9,614.1,941.5,1171.8,565.0,1710.0,3475.9,3475.9,620.5,699.5,1674.8,912.7,833.6,769.5,0.0,-19.0,0.0,10072.0,-11424.0,5944.0,-1076.0,21.0,47.0,19.0,0.0,-15.0,-5.0,7278.0,-14581.0,-25.0,1687.0,11.0,3.0,6.0,1.0
2022-05-06 14:35:45.645445-07:00,1107.8,678.2,923.7,876.4,821.0,722.5,1581.4,1306.1,3473.4,3462.5,1013.3,798.5,1396.7,3464.9,1172.6,1154.2,3483.2,3478.3,332.9,614.1,939.0,1160.3,566.6,1710.0,3474.6,3475.9,620.5,699.5,1674.8,916.9,846.1,769.5,12.0,14.0,1.0,10074.0,-11415.0,5957.0,-1080.0,-23.0,-10.0,2.0,8.0,-3.0,2.0,7279.0,-14581.0,-23.0,1688.0,-27.0,-5.0,5.0,1.0
2022-05-06 14:35:45.675415-07:00,1105.1,684.8,923.7,876.4,823.5,723.3,1584.2,1306.1,3472.2,3466.1,1013.3,798.5,1397.6,3466.1,1172.6,1154.2,3483.2,3472.2,332.1,619.7,939.0,1160.3,566.6,1708.1,3474.6,3471.0,616.5,691.3,1674.8,916.9,835.2,762.0,12.0,-11.0,4.0,10068.0,-11421.0,5955.0,-1079.0,-7.0,44.0,14.0,5.0,-2.0,-11.0,7273.0,-14584.0,-23.0,1688.0,-1.0,5.0,0.0,1.0
2022-05-06 14:35:45.796026-07:00,1105.1,684.8,925.4,871.3,823.5,723.3,1577.7,1306.1,3472.2,3466.1,1015.1,801.9,1397.6,3466.1,1177.0,1157.7,3462.5,3478.3,332.1,619.7,943.2,1163.8,566.6,1708.1,3472.2,3480.7,616.5,691.3,1681.4,917.7,835.2,762.0,0.0,4.0,2.0,10058.0,-11417.0,5978.0,-1085.0,-17.0,4.0,19.0,6.0,-11.0,7.0,7268.0,-14586.0,-21.0,1690.0,-20.0,5.0,10.0,1.0
2022-05-06 14:35:45.796926-07:00,1114.7,678.2,925.4,871.3,822.7,721.6,1577.7,1306.1,3462.5,3479.5,1015.1,801.9,1389.4,3473.4,1177.0,1157.7,3462.5,3478.3,326.7,616.5,943.2,1163.8,567.4,1712.9,3472.2,3480.7,617.3,680.7,1681.4,917.7,835.2,760.4,13.0,3.0,0.0,10060.0,-11418.0,5974.0,-1079.0,-4.0,17.0,3.0,1.0,3.0,-12.0,7271.0,-14585.0,-21.0,1690.0,1.0,0.0,-5.0,1.0
2022-05-06 14:35:45.825294-07:00,1114.7,678.2,930.5,871.3,822.7,721.6,1576.8,1304.3,3462.5,3479.5,1018.5,796.9,1389.4,3473.4,1181.5,1149.8,3468.6,3467.4,326.7,616.5,945.8,1159.4,567.4,1712.9,3477.1,3475.9,617.3,680.7,1704.3,910.1,835.2,760.4,2.0,4.0,-1.0,10057.0,-11418.0,5979.0,-1085.0,2.0,-29.0,2.0,8.0,-1.0,0.0,7270.0,-14585.0,-22.0,1691.0,12.0,-13.0,3.0,1.0
2022-05-06 14:35:45.885911-07:00,1116.5,675.0,930.5,871.3,823.5,729.0,1576.8,1304.3,3457.6,3466.1,1018.5,796.9,1396.7,3471.0,1181.5,1149.8,3468.6,3467.4,326.7,621.4,945.8,1159.4,564.2,1709.1,3477.1,3475.9,614.1,679.9,1704.3,910.1,830.2,762.9,14.0,-7.0,12.0,10056.0,-11424.0,5971.0,-1072.0,-23.0,-2.0,1.0,6.0,-7.0,-6.0,7264.0,-14588.0,-22.0,1691.0,-14.0,-1.0,-8.0,1.0
2022-05-06 14:35:45.945394-07:00,1116.5,675.0,922.0,871.3,823.5,727.4,1580.5,1307.9,3457.6,3466.1,1010.8,799.4,1396.7,3468.6,1174.4,1151.5,3478.3,3477.1,326.7,621.4,944.1,1162.1,564.2,1709.1,3471.0,3483.2,618.1,679.9,1684.3,911.0,830.2,762.9,-2.0,5.0,2.0,10057.0,-11420.0,5976.0,-1080.0,9.0,-4.0,-15.0,7.0,-5.0,14.0,7268.0,-14586.0,-22.0,1691.0,-1.0,0.0,2.0,1.0
2022-05-06 14:35:45.975278-07:00,1110.4,675.0,919.4,871.3,821.9,727.4,1580.5,1307.9,3466.1,3478.3,1008.2,799.4,1398.5,3468.6,1174.4,1151.5,3478.3,3477.1,326.7,621.4,944.1,1162.1,567.4,1718.6,3471.0,3483.2,618.1,680.7,1684.3,913.5,845.3,762.0,12.0,-16.0,15.0,10051.0,-11428.0,5970.0,-1072.0,-10.0,14.0,12.0,6.0,-6.0,-10.0,7261.0,-14590.0,-23.0,1691.0,-6.0,-3.0,1.0,1.0
2022-05-06 14:35:46.065064-07:00,1110.4,675.0,919.4,873.0,821.9,721.6,1572.1,1303.4,3466.1,3478.3,1008.2,797.7,1398.5,3469.8,1179.7,1153.3,3488.0,3479.5,323.6,621.4,943.2,1162.1,567.4,1718.6,3483.2,3478.3,618.1,680.7,1684.3,913.5,845.3,762.0,4.0,9.0,-1.0,10051.0,-11423.0,5981.0,-1077.0,-32.0,-13.0,-6.0,3.0,-5.0,4.0,7262.0,-14589.0,-23.0,1691.0,-24.0,1.0,0.0,1.0
2022-05-06 14:35:46.125144-07:00,1114.7,671.7,925.4,873.0,824.4,721.6,1572.1,1303.4,3474.6,3477.1,1011.6,797.7,1395.7,3469.8,1179.7,1153.3,3488.0,3479.5,323.6,620.5,943.2,1163.0,570.6,1733.9,3483.2,3478.3,618.1,682.3,1684.3,921.1,838.6,766.2,9.0,-9.0,1.0,10044.0,-11435.0,5973.0,-1061.0,-67.0,-31.0,18.0,2.0,2.0,-11.0,7252.0,-14594.0,-25.0,1690.0,-37.0,-2.0,-4.0,1.0
2022-05-06 14:35:46.126345-07:00,1114.7,671.7,925.4,873.0,824.4,721.6,1580.5,1305.2,3474.6,3477.1,1011.6,796.9,1395.7,3473.4,1184.1,1154.2,3481.9,3469.8,326.7,620.5,940.7,1163.0,570.6,1733.9,3477.1,3474.6,615.7,682.3,1681.4,921.1,838.6,766.2,6.0,21.0,15.0,10042.0,-11437.0,5975.0,-1048.0,40.0,-11.0,7.0,9.0,1.0,12.0,7258.0,-14591.0,-26.0,1694.0,28.0,-14.0,0.0,1.0
2022-05-06 14:35:46.186233-07:00,1109.5,676.6,923.7,873.0,822.7,721.6,1580.5,1305.2,3467.4,3462.5,1008.2,796.9,1395.7,3473.4,1184.1,1154.2,3481.9,3469.8,326.7,621.4,940.7,1169.1,565.0,1720.5,3477.1,3474.6,615.7,687.2,1681.4,909.3,833.6,764.5,4.0,-10.0,2.0,10040.0,-11443.0,5965.0,-1044.0,-32.0,-33.0,-9.0,6.0,0.0,-1.0,7247.0,-14596.0,-28.0,1693.0,-32.0,2.0,-8.0,1.0
2022-05-06 14:35:46.275410-07:00,1109.5,676.6,923.7,873.8,840.3,725.8,1570.2,1297.2,3467.4,3462.5,1008.2,793.5,1396.7,3466.1,1184.1,1152.4,3478.3,3472.2,330.5,617.3,945.8,1169.1,565.0,1720.5,3462.5,3468.6,618.1,679.9,1676.7,909.3,833.6,764.5,11.0,11.0,8.0,10042.0,-11441.0,5968.0,-1036.0,25.0,0.0,20.0,7.0,1.0,6.0,7252.0,-14594.0,-27.0,1695.0,25.0,-5.0,9.0,1.0
2022-05-06 14:35:46.276402-07:00,1107.8,674.2,922.0,867.1,840.3,725.8,1570.2,1297.2,3464.9,3478.3,1003.9,791.0,1396.7,3466.1,1184.1,1152.4,3478.3,3472.2,330.5,617.3,942.4,1164.7,563.4,1711.0,3462.5,3468.6,618.1,679.9,1676.7,905.0,835.2,761.2,1.0,0.0,5.0,10041.0,-11443.0,5967.0,-1031.0,-18.0,-2.0,-13.0,2.0,-5.0,2.0,7244.0,-14597.0,-28.0,1695.0,-19.0,3.0,-6.0,1.0
2022-05-06 14:35:46.335256-07:00,1107.8,674.2,922.0,867.1,824.4,718.4,1571.1,1293.6,3464.9,3478.3,1003.9,791.0,1397.6,3475.9,1194.7,1149.8,3472.2,3475.9,323.6,614.1,942.4,1164.7,563.4,1711.0,3473.4,3471.0,623.0,679.9,1676.7,905.0,835.2,761.2,13.0,2.0,0.0,10039.0,-11446.0,5965.0,-1032.0,-12.0,3.0,-1.0,8.0,-1.0,-5.0,7244.0,-14597.0,-28.0,1695.0,0.0,-8.0,-4.0,1.0
2022-05-06 14:35:46.365481-07:00,1115.6,674.2,935.6,871.3,824.4,718.4,1571.1,1293.6,3467.4,3473.4,1015.1,793.5,1397.6,3475.9,1194.7,1149.8,3472.2,3475.9,323.6,614.1,937.3,1153.3,564.2,1709.1,3473.4,3471.0,623.0,679.9,1677.6,906.7,831.1,778.6,4.0,-1.0,1.0,10035.0,-11450.0,5965.0,-1030.0,-34.0,-20.0,2.0,4.0,-6.0,1.0,7241.0,-14599.0,-29.0,1694.0,-10.0,-3.0,-11.0,1.0
2022-05-06 14:35:46.425355-07:00,1115.6,674.2,935.6,871.3,825.2,726.6,1575.8,1314.2,3467.4,3473.4,1015.1,793.5,1401.2,3473.4,1191.2,1150.6,3473.4,3475.9,327.5,623.0,937.3,1153.3,564.2,1709.1,3467.4,3486.8,616.5,684.8,1677.6,906.7,831.1,778.6,8.0,-8.0,1.0,10030.0,-11455.0,5964.0,-1022.0,23.0,-17.0,6.0,9.0,-13.0,4.0,7246.0,-14596.0,-30.0,1696.0,30.0,-11.0,-3.0,1.0
2022-05-06 14:35:46.516076-07:00,1109.5,679.1,923.7,871.3,825.2,726.6,1575.8,1287.3,3469.8,3462.5,1014.2,799.4,1401.2,3473.4,1191.2,1157.7,3478.3,3475.9,327.5,623.0,956.0,1163.0,568.2,1709.1,3481.9,3486.8,616.5,684.8,1677.6,908.4,836.1,761.2,8.0,-1.0,12.0,10037.0,-11452.0,5958.0,-1017.0,-12.0,-12.0,-7.0,5.0,-6.0,1.0,7251.0,-14594.0,-29.0,1696.0,-9.0,3.0,-1.0,1.0
2022-05-06 14:35:46.517465-07:00,1101.7,679.1,923.7,871.3,825.2,717.5,1580.5,1287.3,3474.6,3462.5,1014.2,799.4,1393.0,3480.7,1192.9,1157.7,3478.3,3467.4,329.8,617.3,956.0,1163.0,568.2,1709.1,3481.9,3474.6,621.4,688.0,1677.6,908.4,836.1,762.0,4.0,-6.0,7.0,10034.0,-11455.0,5959.0,-1016.0,34.0,3.0,9.0,11.0,-14.0,6.0,7248.0,-14595.0,-30.0,1696.0,22.0,-1.0,5.0,1.0
2022-05-06 14:35:46.575598-07:00,1101.7,679.9,920.3,863.7,825.2,717.5,1580.5,1283.7,3474.6,3477.1,1004.8,798.5,1393.0,3480.7,1192.9,1152.4,3472.2,3467.4,329.8,617.3,933.9,1152.4,568.2,1709.1,3477.1,3474.6,621.4,688.0,1680.5,911.8,833.6,762.0,11.0,-3.0,7.0,10038.0,-11451.0,5959.0,-1018.0,-14.0,1.0,-3.0,7.0,-7.0,-4.0,7250.0,-14594.0,-30.0,1696.0,-19.0,1.0,4.0,1.0
2022-05-06 14:35:46.635928-07:00,1111.2,679.9,920.3,863.7,823.5,723.3,1563.7,1283.7,3472.2,3477.1,1004.8,798.5,1384.8,3471.0,1195.6,1152.4,3472.2,3473.4,330.5,613.3,933.9,1152.4,568.2,1707.2,3477.1,3477.1,618.1,684.8,1680.5,911.8,833.6,761.2,3.0,-8.0,3.0,10042.0,-11448.0,5960.0,-1017.0,28.0,-25.0,13.0,5.0,-13.0,-1.0,7255.0,-14592.0,-28.0,1696.0,17.0,1.0,12.0,1.0
2022-05-06 14:35:46.665326-07:00,1111.2,672.5,918.6,872.1,823.5,723.3,1563.7,1282.8,3472.2,3467.4,1015.1,797.7,1384.8,3471.0,1195.6,1161.2,3479.5,3473.4,330.5,613.3,943.2,1159.4,563.4,1707.2,3490.5,3477.1,618.1,684.8,1682.4,909.3,836.9,761.2,12.0,-4.0,8.0,10043.0,-11449.0,5957.0,-1011.0,-27.0,7.0,6.0,7.0,-7.0,-2.0,7253.0,-14593.0,-26.0,1697.0,-17.0,0.0,6.0,1.0
2022-05-06 14:35:46.785495-07:00,1104.3,675.8,918.6,872.1,821.0,720.8,1565.5,1282.8,3472.2,3469.8,1015.1,797.7,1393.9,3484.4,1192.0,1161.2,3479.5,3477.1,330.5,615.7,943.2,1159.4,564.2,1694.8,3490.5,3475.9,618.9,696.2,1682.4,909.3,837.7,765.3,11.0,0.0,1.0,10041.0,-11449.0,5959.0,-1013.0,-19.0,5.0,4.0,10.0,-2.0,-5.0,7251.0,-14594.0,-26.0,1696.0,-18.0,11.0,5.0,1.0
2022-05-06 14:35:46.786707-07:00,1104.3,675.8,922.8,867.1,821.0,720.8,1559.0,1273.9,3472.2,3469.8,1012.5,796.0,1393.9,3484.4,1192.9,1153.3,3483.2,3473.4,330.5,615.7,942.4,1163.0,564.2,1694.8,3485.6,3478.3,618.9,696.2,1691.0,911.8,837.7,765.3,7.0,2.0,1.0,10034.0,-11456.0,5958.0,-1007.0,-25.0,-19.0,-6.0,3.0,-6.0,0.0,7243.0,-14598.0,-26.0,1695.0,-16.0,-8.0,0.0,1.0
2022-05-06 14:35:46.815444-07:00,1118.2,678.2,922.8,867.1,825.2,721.6,1559.0,1273.9,3466.1,3473.4,1012.5,796.0,1393.0,3467.4,1192.9,1153.3,3483.2,3473.4,329.0,618.9,942.4,1163.0,569.0,1705.3,3485.6,3478.3,617.3,695.4,1691.0,911.8,835.2,762.9,6.0,-5.0,7.0,10036.0,-11456.0,5954.0,-1005.0,29.0,-1.0,6.0,7.0,-9.0,1.0,7242.0,-14599.0,-26.0,1695.0,27.0,-5.0,-4.0,1.0
2022-05-06 14:35:46.875834-07:00,1118.2,678.2,931.3,870.5,825.2,721.6,1571.1,1263.1,3466.1,3473.4,1011.6,799.4,1393.0,3467.4,1202.7,1148.9,3473.4,3484.4,329.0,618.9,944.1,1161.2,569.0,1705.3,3467.4,3481.9,617.3,695.4,1674.8,917.7,835.2,762.9,3.0,-10.0,10.0,10044.0,-11453.0,5949.0,-994.0,9.0,-43.0,16.0,6.0,-5.0,-3.0,7245.0,-14597.0,-26.0,1695.0,9.0,-4.0,8.0,1.0
2022-05-06 14:35:46.935261-07:00,1106.0,672.5,931.3,870.5,831.9,716.7,1571.1,1263.1,3464.9,3468.6,1011.6,799.4,1395.7,3463.7,1202.7,1148.9,3473.4,3484.4,323.6,619.7,944.1,1161.2,566.6,1708.1,3467.4,3481.9,618.1,690.5,1674.8,917.7,835.2,762.0,6.0,-1.0,13.0,10043.0,-11454.0,5950.0,-990.0,14.0,36.0,-8.0,6.0,-9.0,4.0,7243.0,-14598.0,-26.0,1695.0,-8.0,2.0,0.0,1.0
2022-05-06 14:35:46.965797-07:00,1106.0,672.5,921.1,871.3,831.9,716.7,1569.3,1262.2,3464.9,3468.6,1013.3,798.5,1395.7,3463.7,1200.0,1157.7,3472.2,3472.2,323.6,619.7,940.7,1157.7,566.6,1708.1,3474.6,3478.3,618.1,690.5,1674.8,911.8,835.2,762.0,6.0,-3.0,1.0,10042.0,-11453.0,5953.0,-998.0,-32.0,3.0,4.0,6.0,-3.0,-6.0,7243.0,-14598.0,-26.0,1695.0,-33.0,6.0,7.0,1.0
2022-05-06 14:35:47.025647-07:00,1110.4,672.5,923.7,871.3,825.2,729.0,1569.3,1262.2,3471.0,3471.0,1009.9,798.5,1393.0,3456.4,1200.0,1157.7,3472.2,3472.2,323.6,621.4,940.7,1158.6,567.4,1702.4,3474.6,3478.3,614.9,692.1,1674.8,906.7,835.2,766.2,8.0,9.0,5.0,10039.0,-11451.0,5961.0,-1000.0,20.0,5.0,-2.0,7.0,-3.0,8.0,7241.0,-14599.0,-25.0,1695.0,17.0,0.0,4.0,1.0
2022-05-06 14:35:47.085201-07:00,1110.4,672.5,923.7,865.4,825.2,718.4,1553.4,1267.6,3471.0,3471.0,1009.9,791.0,1393.0,3477.1,1203.5,1154.2,3477.1,3467.4,325.9,621.4,946.6,1158.6,567.4,1702.4,3469.8,3473.4,617.3,692.1,1683.3,906.7,835.2,766.2,7.0,-4.0,6.0,10038.0,-11453.0,5957.0,-1006.0,-10.0,25.0,-18.0,4.0,-1.0,-5.0,7240.0,-14599.0,-26.0,1695.0,-20.0,5.0,-4.0,1.0
2022-05-06 14:35:47.115458-07:00,1100.8,673.3,921.1,865.4,822.7,718.4,1553.4,1267.6,3467.4,3473.4,1006.5,791.0,1393.0,3477.1,1203.5,1154.2,3477.1,3467.4,325.9,617.3,946.6,1168.2,561.0,1707.2,3469.8,3473.4,617.3,693.8,1683.3,912.7,836.1,763.7,9.0,-4.0,3.0,10040.0,-11451.0,5959.0,-1006.0,5.0,-1.0,23.0,7.0,-2.0,-2.0,7240.0,-14599.0,-26.0,1695.0,6.0,-2.0,9.0,1.0
2022-05-06 14:35:47.175621-07:00,1100.8,673.3,921.1,868.8,822.7,721.6,1566.5,1264.0,3467.4,3473.4,1006.5,793.5,1393.0,3467.4,1196.5,1153.3,3475.9,3478.3,330.5,617.3,940.7,1168.2,561.0,1707.2,3483.2,3472.2,615.7,693.8,1676.7,912.7,836.1,763.7,13.0,3.0,10.0,10040.0,-11449.0,5963.0,-1003.0,8.0,-11.0,-4.0,10.0,-3.0,5.0,7240.0,-14599.0,-26.0,1695.0,7.0,0.0,0.0,1.0
2022-05-06 14:35:47.265695-07:00,1104.3,667.6,923.7,868.8,828.5,721.6,1566.5,1264.0,3473.4,3473.4,1007.3,793.5,1392.1,3467.4,1196.5,1153.3,3475.9,3478.3,330.5,614.1,940.7,1162.1,557.8,1703.3,3483.2,3472.2,615.7,689.7,1676.7,909.3,831.1,757.9,0.0,-16.0,1.0,10049.0,-11444.0,5956.0,-1003.0,35.0,-45.0,4.0,4.0,-16.0,6.0,7248.0,-14595.0,-24.0,1696.0,27.0,0.0,11.0,1.0
2022-05-06 14:35:47.267952-07:00,1104.3,667.6,923.7,866.3,823.5,724.1,1578.6,1268.5,3473.4,3473.4,1007.3,799.4,1393.9,3468.6,1192.9,1153.3,3483.2,3473.4,328.2,619.7,939.8,1162.1,557.8,1703.3,3479.5,3477.1,616.5,718.4,1677.6,909.3,831.1,757.9,-22.0,-105.0,69.0,10087.0,-11427.0,5930.0,-981.0,266.0,-217.0,18.0,7.0,-143.0,32.0,7265.0,-14586.0,-12.0,1700.0,98.0,0.0,44.0,1.0
2022-05-06 14:35:47.325330-07:00,1088.6,675.8,922.0,872.1,823.5,724.1,1578.6,1268.5,3467.4,3468.6,1045.2,830.2,1393.9,3468.6,1192.9,1153.3,3483.2,3473.4,328.2,619.7,942.4,1156.8,566.6,1702.4,3479.5,3477.1,616.5,718.4,1681.4,910.1,831.1,754.6,7.0,-54.0,55.0,10391.0,-11201.0,5825.0,-1030.0,1446.0,-377.0,99.0,26.0,-24.0,9.0,7543.0,-14440.0,76.0,1739.0,981.0,-13.0,225.0,1.0
2022-05-06 14:35:47.505345-07:00,1088.6,675.8,922.0,872.1,819.4,740.6,1607.7,1302.5,3467.4,3468.6,1045.2,830.2,1416.7,3475.9,1239.9,1180.6,3478.3,3480.7,326.7,618.9,942.4,1156.8,566.6,1702.4,3481.9,3478.3,632.7,831.1,1681.4,910.1,831.1,754.6,-51.0,-65.0,-33.0,10781.0,-10852.0,5771.0,-1072.0,902.0,-401.0,228.0,15.0,-103.0,30.0,7758.0,-14320.0,238.0,1771.0,437.0,93.0,381.0,1.0
2022-05-06 14:35:47.507691-07:00,1116.5,679.1,924.5,873.8,819.4,740.6,1607.7,1302.5,3467.4,3475.9,1234.6,888.2,1416.7,3475.9,1239.9,1180.6,3478.3,3480.7,326.7,618.9,942.4,1160.3,591.5,1760.8,3481.9,3478.3,632.7,831.1,1684.3,927.9,838.6,772.8,9.0,-59.0,-8.0,11188.0,-10576.0,5516.0,-989.0,1404.0,-1175.0,-212.0,19.0,-55.0,21.0,7969.0,-14190.0,431.0,1838.0,879.0,-3.0,405.0,1.0
2022-05-06 14:35:47.508393-07:00,1116.5,679.1,924.5,873.8,820.2,789.4,1810.0,1290.9,3467.4,3475.9,1234.6,888.2,1448.8,3466.1,1401.2,1444.2,3471.0,3483.2,330.5,623.8,942.4,1160.3,591.5,1760.8,3474.6,3483.2,672.5,936.4,1684.3,927.9,838.6,772.8,30.0,122.0,-59.0,11828.0,-10112.0,5033.0,-980.0,1591.0,-992.0,-291.0,-6.0,143.0,-74.0,8533.0,-13843.0,615.0,1899.0,1579.0,-29.0,224.0,1.0
2022-05-06 14:35:47.535169-07:00,1106.0,682.3,955.1,899.1,820.2,789.4,1810.0,1403.0,3471.0,3467.4,1335.9,875.5,1448.8,3466.1,1401.2,1669.1,3472.2,3483.2,330.5,623.8,945.8,1156.8,606.0,1841.1,3468.6,3483.2,672.5,936.4,1688.1,946.6,844.4,776.1,-32.0,52.0,-149.0,12150.0,-9899.0,4673.0,-1002.0,31.0,-819.0,-549.0,-32.0,20.0,-59.0,8840.0,-13644.0,694.0,1911.0,319.0,0.0,43.0,1.0
2022-05-06 14:35:47.565508-07:00,1106.9,682.3,955.1,899.1,817.7,835.2,1939.0,1403.0,3473.4,3467.4,1335.9,875.5,1469.0,3474.6,1521.8,1669.1,3472.2,3481.9,347.6,620.5,945.8,1156.8,606.0,1946.9,3468.6,3477.1,720.8,956.8,1688.1,946.6,844.4,778.6,-34.0,15.0,-80.0,12235.0,-9952.0,4335.0,-951.0,-174.0,-350.0,-153.0,-21.0,32.0,-122.0,8959.0,-13565.0,670.0,1933.0,224.0,-163.0,-87.0,1.0
2022-05-06 14:35:47.745462-07:00,1106.9,692.1,938.1,893.2,817.7,835.2,1939.0,1505.1,3473.4,3467.4,1381.2,862.1,1469.0,3474.6,1521.8,1675.7,3477.1,3481.9,347.6,620.5,945.8,1159.4,615.7,1946.9,3480.7,3477.1,720.8,956.8,1703.3,954.3,852.8,778.6,-49.0,0.0,-89.0,12089.0,-10165.0,4254.0,-936.0,-571.0,-29.0,-243.0,-15.0,-28.0,62.0,8927.0,-13579.0,554.0,2007.0,-321.0,-322.0,-142.0,1.0
2022-05-06 14:35:47.746772-07:00,1113.9,692.1,938.1,893.2,820.2,871.3,1986.6,1505.1,3472.2,3467.4,1381.2,862.1,1472.7,3480.7,1575.8,1675.7,3477.1,3478.3,362.3,625.4,945.8,1159.4,615.7,1943.0,3480.7,3475.9,757.9,973.9,1703.3,954.3,852.8,785.2,47.0,102.0,0.0,11991.0,-10351.0,4095.0,-862.0,-835.0,-251.0,-315.0,4.0,40.0,-80.0,8900.0,-13591.0,413.0,2080.0,-253.0,-308.0,-200.0,1.0
2022-05-06 14:35:47.747592-07:00,1113.9,707.7,933.0,892.4,820.2,871.3,1986.6,1519.9,3472.2,3468.6,1365.7,855.3,1472.7,3480.7,1575.8,1650.2,3488.0,3478.3,362.3,625.4,947.5,1156.8,621.4,1943.0,3477.1,3475.9,757.9,973.9,1695.7,961.1,857.9,785.2,-49.0,89.0,-89.0,11729.0,-10672.0,4020.0,-909.0,-907.0,-310.0,-299.0,16.0,21.0,49.0,8758.0,-13678.0,228.0,2140.0,-372.0,-251.0,-288.0,1.0
2022-05-06 14:35:47.775237-07:00,1125.2,707.7,933.0,892.4,827.7,897.4,2005.5,1519.9,3474.6,3468.6,1365.7,855.3,1502.3,3483.2,1604.0,1650.2,3488.0,3477.1,365.4,627.0,947.5,1156.8,621.4,1895.8,3477.1,3472.2,792.7,992.7,1695.7,961.1,857.9,786.9,33.0,-40.0,44.0,11451.0,-11055.0,3806.0,-770.0,-1347.0,-212.0,-437.0,-7.0,-50.0,-22.0,8521.0,-13827.0,47.0,2153.0,-704.0,-201.0,-269.0,1.0
2022-05-06 14:35:47.895591-07:00,1125.2,715.9,925.4,890.7,827.7,897.4,2019.4,1509.7,3474.6,3466.1,1358.5,857.9,1502.3,3483.2,1554.3,1627.5,3480.7,3478.3,365.4,627.0,951.7,1159.4,625.4,1895.8,3477.1,3480.7,792.7,992.7,1691.0,999.6,885.6,786.9,-18.0,-4.0,-1.0,11101.0,-11444.0,3699.0,-748.0,-1192.0,-250.0,-168.0,17.0,-4.0,84.0,8289.0,-13968.0,-116.0,2149.0,-838.0,-68.0,-219.0,1.0
2022-05-06 14:35:47.955906-07:00,1146.3,722.5,925.4,890.7,821.9,924.5,2019.4,1509.7,3469.8,3467.4,1358.5,857.9,1525.5,3485.6,1554.3,1627.5,3480.7,3478.3,366.2,635.9,951.7,1159.4,620.5,1848.9,3477.1,3480.7,792.7,975.6,1691.0,999.6,981.6,795.2,43.0,-129.0,83.0,10738.0,-11834.0,3573.0,-562.0,-939.0,-185.0,-154.0,25.0,-75.0,-20.0,7994.0,-14141.0,-239.0,2121.0,-619.0,-57.0,-154.0,1.0
2022-05-06 14:35:48.105170-07:00,1146.3,722.5,926.2,890.7,821.9,924.5,2009.4,1500.4,3469.8,3467.4,1363.9,880.6,1525.5,3485.6,1528.3,1578.6,3473.4,3479.5,366.2,635.9,961.1,1156.8,620.5,1848.9,3474.6,3484.4,792.7,975.6,1697.6,1097.3,981.6,795.2,-7.0,4.0,1.0,10483.0,-12061.0,3576.0,-530.0,-860.0,65.0,27.0,20.0,5.0,67.0,7838.0,-14229.0,-331.0,2104.0,-577.0,-19.0,-146.0,1.0
2022-05-06 14:35:48.135704-07:00,1177.9,725.8,926.2,890.7,822.7,937.3,2009.4,1500.4,3475.9,3477.1,1363.9,880.6,1553.4,3474.6,1528.3,1578.6,3473.4,3479.5,351.4,638.4,961.1,1156.8,631.9,1870.3,3474.6,3484.4,785.2,956.8,1697.6,1097.3,1199.1,795.2,-15.0,-31.0,37.0,10299.0,-12209.0,3618.0,-463.0,82.0,172.0,3.0,17.0,-85.0,-4.0,7740.0,-14284.0,-400.0,2084.0,154.0,-69.0,-113.0,1.0
2022-05-06 14:35:48.136734-07:00,1177.9,725.8,936.4,905.9,822.7,937.3,1982.6,1489.3,3475.9,3477.1,1298.1,885.6,1553.4,3474.6,1738.7,1564.6,3468.6,3474.6,351.4,638.4,965.4,1155.9,631.9,1870.3,3488.0,3480.7,785.2,956.8,1750.2,1248.8,1199.1,795.2,27.0,-24.0,-83.0,10286.0,-12190.0,3695.0,-626.0,137.0,459.0,-120.0,28.0,-20.0,1.0,7910.0,-14187.0,-431.0,2097.0,368.0,-100.0,-98.0,1.0
2022-05-06 14:35:48.137802-07:00,1164.7,716.7,1087.7,905.9,831.9,937.3,1982.6,1489.3,3471.0,3471.0,1277.4,885.6,1528.3,3466.1,1738.7,1564.6,3468.6,3474.6,353.7,644.0,965.4,1155.9,610.8,1998.5,3488.0,3480.7,783.6,939.0,1750.2,1276.5,1258.7,787.7,-7.0,-38.0,-36.0,10291.0,-12136.0,3816.0,-821.0,183.0,400.0,100.0,2.0,-14.0,8.0,8080.0,-14086.0,-463.0,2126.0,420.0,-113.0,-73.0,1.0
2022-05-06 14:35:48.139037-07:00,1164.7,716.7,1087.7,975.6,831.9,921.1,1979.6,1466.3,3471.0,3471.0,1277.4,880.6,1528.3,3472.2,1762.7,1576.8,3480.7,3474.6,347.6,644.0,968.8,1155.9,610.8,1998.5,3483.2,3472.2,778.6,939.0,1851.8,1276.5,1258.7,787.7,-3.0,-1.0,-3.0,10321.0,-12080.0,3900.0,-881.0,36.0,77.0,67.0,11.0,-27.0,18.0,8176.0,-14026.0,-472.0,2152.0,208.0,-60.0,-9.0,1.0
2022-05-06 14:35:48.166077-07:00,1161.2,728.2,1118.2,975.6,828.5,921.1,1979.6,1466.3,3467.4,3469.8,1278.3,880.6,1520.8,3472.2,1762.7,1576.8,3480.7,3474.6,347.6,641.6,968.8,1162.1,611.7,2116.9,3483.2,3472.2,778.6,938.1,1851.8,1303.4,1248.8,791.9,7.0,-70.0,-11.0,10314.0,-12076.0,3939.0,-847.0,-128.0,4.0,262.0,14.0,-14.0,-44.0,8210.0,-14001.0,-469.0,2189.0,-10.0,-96.0,71.0,1.0
2022-05-06 14:35:48.315878-07:00,1161.2,728.2,1118.2,987.6,828.5,905.0,1959.8,1447.9,3467.4,3469.8,1278.3,870.5,1520.8,3467.4,1748.3,1595.5,3488.0,3463.7,348.3,641.6,956.0,1162.1,611.7,2116.9,3473.4,3467.4,768.7,938.1,1955.8,1303.4,1248.8,791.9,-4.0,-85.0,17.0,10310.0,-12044.0,4063.0,-751.0,208.0,34.0,495.0,-7.0,-76.0,-12.0,8225.0,-13982.0,-431.0,2257.0,210.0,-102.0,196.0,1.0
2022-05-06 14:35:48.375123-07:00,1161.2,715.9,1101.7,987.6,827.7,905.0,1959.8,1447.9,3473.4,3471.0,1273.0,870.5,1516.2,3467.4,1748.3,1595.5,3488.0,3463.7,348.3,640.0,956.0,1149.8,602.8,2118.9,3473.4,3467.4,768.7,933.0,1955.8,1276.5,1233.7,789.4,29.0,-42.0,15.0,10390.0,-11921.0,4237.0,-642.0,351.0,52.0,545.0,25.0,-37.0,-7.0,8307.0,-13918.0,-352.0,2363.0,372.0,-166.0,271.0,1.0
2022-05-06 14:35:48.406055-07:00,1161.2,715.9,1101.7,982.5,829.4,900.0,1924.3,1435.0,3473.4,3471.0,1273.0,875.5,1515.3,3475.9,1741.6,1589.9,3467.4,3474.6,345.2,640.8,956.8,1149.8,602.8,2118.9,3480.7,3480.7,762.0,929.6,1940.0,1276.5,1233.7,789.4,4.0,56.0,8.0,10468.0,-11795.0,4408.0,-550.0,119.0,37.0,401.0,0.0,-2.0,28.0,8366.0,-13866.0,-264.0,2472.0,118.0,-105.0,274.0,1.0
2022-05-06 14:35:48.406897-07:00,1155.0,726.6,1096.4,973.1,829.4,900.0,1924.3,1435.0,3478.3,3478.3,1264.0,864.6,1515.3,3475.9,1741.6,1589.9,3467.4,3474.6,345.2,640.8,954.3,1157.7,599.6,2178.9,3480.7,3480.7,762.0,929.6,1916.4,1264.9,1218.6,791.0,25.0,67.0,9.0,10490.0,-11744.0,4502.0,-471.0,23.0,-44.0,166.0,21.0,25.0,17.0,8364.0,-13853.0,-206.0,2557.0,27.0,-97.0,178.0,1.0
2022-05-06 14:35:48.408584-07:00,1155.0,726.6,1096.4,973.1,826.0,907.6,1900.7,1417.6,3478.3,3478.3,1264.0,864.6,1516.2,3468.6,1723.4,1581.4,3474.6,3477.1,342.1,640.0,954.3,1157.7,599.6,2178.9,3474.6,3483.2,757.9,916.9,1916.4,1264.9,1218.6,791.0,27.0,58.0,8.0,10498.0,-11722.0,4542.0,-427.0,22.0,35.0,112.0,10.0,38.0,12.0,8354.0,-13849.0,-180.0,2612.0,-15.0,-63.0,88.0,1.0
2022-05-06 14:35:48.646195-07:00,1161.2,711.0,1103.4,966.2,826.0,907.6,1900.7,1417.6,3473.4,3471.0,1245.3,863.7,1516.2,3468.6,1723.4,1581.4,3474.6,3477.1,342.1,640.0,950.9,1149.8,597.9,2109.8,3474.6,3483.2,757.9,916.9,1912.4,1264.9,1219.5,786.9,5.0,24.0,10.0,10501.0,-11707.0,4575.0,-424.0,45.0,25.0,-4.0,8.0,-15.0,24.0,8358.0,-13842.0,-171.0,2635.0,42.0,-23.0,25.0,1.0
2022-05-06 14:35:48.736021-07:00,1161.2,711.0,1103.4,966.2,825.2,900.8,1899.7,1404.0,3473.4,3471.0,1245.3,863.7,1506.9,3479.5,1716.7,1573.9,3475.9,3483.2,339.8,635.1,950.9,1149.8,597.9,2109.8,3483.2,3478.3,765.3,922.8,1912.4,1264.9,1219.5,786.9,3.0,-25.0,9.0,10541.0,-11677.0,4557.0,-446.0,274.0,-21.0,-24.0,0.0,-4.0,-5.0,8406.0,-13811.0,-165.0,2645.0,235.0,-26.0,3.0,1.0
2022-05-06 14:35:48.737401-07:00,1150.6,715.9,1100.8,966.2,825.2,900.8,1899.7,1404.0,3471.0,3471.0,1253.3,867.1,1506.9,3479.5,1716.7,1573.9,3475.9,3483.2,339.8,635.1,956.0,1157.7,597.9,2086.6,3483.2,3478.3,765.3,922.8,1891.8,1252.4,1233.7,791.9,-5.0,12.0,-13.0,10601.0,-11620.0,4561.0,-469.0,61.0,14.0,18.0,-3.0,-4.0,-3.0,8455.0,-13780.0,-154.0,2652.0,74.0,-13.0,12.0,1.0
2022-05-06 14:35:48.738507-07:00,1153.3,715.9,1100.8,966.2,826.0,892.4,1929.2,1393.0,3474.6,3471.0,1253.3,867.1,1508.8,3478.3,1710.0,1568.3,3475.9,3480.7,337.5,635.9,956.0,1157.7,597.9,2081.6,3467.4,3480.7,752.9,915.2,1891.8,1252.4,1233.7,783.6,11.0,-10.0,-2.0,10600.0,-11622.0,4558.0,-469.0,2.0,-10.0,-14.0,10.0,-9.0,-19.0,8459.0,-13775.0,-154.0,2664.0,-14.0,-47.0,24.0,1.0
2022-05-06 14:35:48.739315-07:00,1153.3,708.5,1094.7,967.1,826.0,892.4,1929.2,1399.4,3474.6,3472.2,1245.3,861.2,1508.8,3478.3,1710.0,1571.1,3480.7,3480.7,337.5,635.9,952.6,1155.0,597.1,2081.6,3478.3,3480.7,752.9,915.2,1894.8,1250.6,1212.4,783.6,4.0,19.0,15.0,10608.0,-11612.0,4565.0,-475.0,38.0,29.0,31.0,8.0,-3.0,20.0,8460.0,-13771.0,-156.0,2685.0,41.0,-30.0,12.0,1.0
2022-05-06 14:35:48.885590-07:00,1146.3,708.5,1094.7,967.1,821.9,892.4,1892.8,1399.4,3479.5,3472.2,1245.3,861.2,1504.1,3480.7,1708.1,1571.1,3480.7,3488.0,349.1,635.9,952.6,1155.0,597.1,2061.5,3478.3,3475.9,752.1,916.0,1894.8,1250.6,1212.4,788.6,10.0,17.0,18.0,10616.0,-11604.0,4566.0,-482.0,4.0,8.0,-31.0,7.0,4.0,11.0,8476.0,-13759.0,-160.0,2696.0,21.0,-18.0,-10.0,1.0
2022-05-06 14:35:48.886456-07:00,1146.3,708.5,1094.7,967.1,821.9,892.4,1892.8,1399.4,3479.5,3472.2,1245.3,861.2,1504.1,3480.7,1708.1,1571.1,3480.7,3488.0,349.1,635.9,952.6,1155.0,597.1,2061.5,3478.3,3475.9,752.1,916.0,1894.8,1250.6,1212.4,788.6,10.0,17.0,18.0,10616.0,-11604.0,4566.0,-482.0,4.0,8.0,-31.0,7.0,4.0,11.0,8476.0,-13759.0,-160.0,2696.0,21.0,-18.0,-10.0,1.0
2022-05-06 14:35:48.915169-07:00,1140.1,708.5,1089.5,966.2,826.0,884.8,1889.9,1395.7,3472.2,3466.1,1253.3,869.6,1516.2,3466.1,1704.3,1568.3,3474.6,3477.1,343.7,632.7,951.7,1158.6,589.9,2060.5,3477.1,3472.2,752.9,906.7,1885.0,1256.9,1210.6,788.6,12.0,-15.0,14.0,10601.0,-11627.0,4539.0,-507.0,27.0,23.0,0.0,8.0,-16.0,4.0,8461.0,-13769.0,-179.0,2690.0,10.0,5.0,-16.0,1.0
2022-05-06 14:35:48.945986-07:00,1140.1,710.1,1099.0,973.1,826.0,884.8,1885.0,1397.6,3472.2,3471.0,1249.7,865.4,1516.2,3466.1,1707.2,1562.7,3488.0,3475.9,343.7,632.7,950.9,1155.0,586.7,2060.5,3478.3,3478.3,752.9,906.7,1876.2,1253.3,1216.0,788.6,1.0,-5.0,-4.0,10616.0,-11612.0,4543.0,-521.0,53.0,-14.0,2.0,1.0,-18.0,6.0,8481.0,-13757.0,-180.0,2688.0,67.0,6.0,-5.0,1.0
2022-05-06 14:35:48.976029-07:00,1131.4,709.3,1099.0,973.1,830.2,893.2,1885.0,1397.6,3462.5,3467.4,1249.7,865.4,1506.0,3472.2,1707.2,1562.7,3488.0,3475.9,340.6,635.9,950.9,1155.0,595.5,2046.4,3478.3,3478.3,744.7,905.9,1876.2,1253.3,1211.5,779.4,12.0,-1.0,-2.0,10626.0,-11603.0,4539.0,-523.0,32.0,9.0,5.0,8.0,-1.0,-9.0,8493.0,-13749.0,-178.0,2687.0,5.0,-4.0,-3.0,1.0
2022-05-06 14:35:48.976889-07:00,1131.4,709.3,1091.2,963.7,830.2,893.2,1879.1,1411.3,3462.5,3467.4,1244.4,865.4,1506.0,3472.2,1702.4,1565.5,3479.5,3477.1,340.6,635.9,953.4,1158.6,595.5,2046.4,3473.4,3474.6,744.7,905.9,1882.0,1253.3,1211.5,779.4,10.0,8.0,11.0,10642.0,-11590.0,4536.0,-528.0,64.0,-11.0,2.0,7.0,-1.0,4.0,8504.0,-13743.0,-179.0,2686.0,48.0,-4.0,-11.0,1.0
2022-05-06 14:35:49.005303-07:00,1141.0,703.6,1091.2,963.7,823.5,889.8,1879.1,1411.3,3468.6,3477.1,1244.4,865.4,1508.8,3467.4,1702.4,1565.5,3479.5,3477.1,343.7,648.1,953.4,1158.6,588.3,2038.4,3473.4,3474.6,736.5,905.9,1882.0,1253.3,1215.1,786.1,12.0,0.0,-3.0,10661.0,-11574.0,4532.0,-537.0,38.0,-11.0,-23.0,11.0,-8.0,-1.0,8526.0,-13730.0,-181.0,2680.0,48.0,7.0,-23.0,1.0
2022-05-06 14:35:49.125331-07:00,1141.0,703.6,1093.8,966.2,823.5,889.8,1879.1,1379.4,3468.6,3477.1,1243.5,867.1,1508.8,3467.4,1696.7,1555.3,3466.1,3484.4,343.7,648.1,949.2,1155.0,588.3,2038.4,3471.0,3477.1,736.5,905.9,1871.3,1248.8,1215.1,786.1,0.0,-14.0,3.0,10673.0,-11566.0,4523.0,-547.0,77.0,-12.0,-16.0,3.0,-21.0,5.0,8545.0,-13720.0,-185.0,2674.0,65.0,-7.0,-14.0,1.0
2022-05-06 14:35:49.126477-07:00,1136.6,715.1,1093.8,966.2,821.0,889.0,1879.1,1379.4,3478.3,3481.9,1243.5,867.1,1506.9,3466.1,1696.7,1555.3,3466.1,3484.4,341.4,640.0,949.2,1155.0,590.7,2055.4,3471.0,3477.1,736.5,895.7,1871.3,1248.8,1204.4,784.4,3.0,3.0,-5.0,10702.0,-11543.0,4514.0,-551.0,45.0,-43.0,5.0,3.0,-15.0,2.0,8574.0,-13702.0,-181.0,2673.0,58.0,-5.0,1.0,1.0
2022-05-06 14:35:49.185315-07:00,1136.6,715.1,1086.0,968.8,821.0,883.1,1872.3,1366.6,3478.3,3481.9,1243.5,865.4,1506.9,3471.0,1692.9,1564.6,3469.8,3483.2,339.0,640.0,951.7,1161.2,590.7,2055.4,3479.5,3481.9,739.7,895.7,1873.2,1241.7,1204.4,784.4,9.0,1.0,0.0,10715.0,-11536.0,4499.0,-540.0,20.0,-25.0,15.0,7.0,0.0,-5.0,8587.0,-13693.0,-181.0,2676.0,29.0,-14.0,2.0,1.0
2022-05-06 14:35:49.334907-07:00,1139.2,700.3,1090.3,968.8,825.2,883.1,1872.3,1366.6,3478.3,3464.9,1241.7,865.4,1498.6,3471.0,1692.9,1564.6,3469.8,3483.2,339.0,631.1,951.7,1157.7,586.7,2040.4,3479.5,3481.9,739.7,899.1,1873.2,1242.6,1205.3,784.4,8.0,7.0,6.0,10718.0,-11533.0,4502.0,-534.0,-14.0,-9.0,12.0,4.0,-11.0,9.0,8587.0,-13693.0,-182.0,2676.0,-24.0,-12.0,-6.0,1.0
2022-05-06 14:35:49.335966-07:00,1139.2,700.3,1090.3,967.1,825.2,881.4,1861.5,1371.2,3478.3,3464.9,1241.7,861.2,1498.6,3473.4,1690.0,1559.0,3477.1,3466.1,338.3,631.1,948.3,1157.7,586.7,2040.4,3469.8,3471.0,738.1,899.1,1873.2,1242.6,1205.3,784.4,1.0,6.0,-1.0,10719.0,-11537.0,4490.0,-528.0,-11.0,-47.0,-28.0,2.0,-8.0,6.0,8587.0,-13693.0,-186.0,2675.0,2.0,-7.0,-14.0,1.0
2022-05-06 14:35:49.337252-07:00,1135.7,702.8,1092.1,967.1,821.9,881.4,1861.5,1371.2,3483.2,3479.5,1240.8,861.2,1502.3,3473.4,1690.0,1559.0,3477.1,3466.1,338.3,637.6,948.3,1153.3,591.5,2034.4,3469.8,3471.0,738.1,892.4,1873.2,1244.4,1203.5,784.4,9.0,-2.0,5.0,10733.0,-11536.0,4460.0,-518.0,53.0,-43.0,-11.0,3.0,-5.0,-3.0,8598.0,-13686.0,-193.0,2677.0,49.0,-12.0,-12.0,1.0
2022-05-06 14:35:49.365262-07:00,1135.7,702.8,1092.1,966.2,821.9,886.5,1876.2,1374.8,3483.2,3479.5,1240.8,862.9,1502.3,3473.4,1690.0,1559.0,3472.2,3483.2,342.1,637.6,944.9,1153.3,591.5,2034.4,3481.9,3478.3,734.8,892.4,1869.3,1244.4,1203.5,784.4,6.0,6.0,-4.0,10751.0,-11522.0,4451.0,-515.0,14.0,-46.0,-7.0,7.0,-4.0,5.0,8614.0,-13677.0,-197.0,2674.0,9.0,-6.0,-15.0,1.0
2022-05-06 14:35:49.456063-07:00,1138.4,698.7,1098.2,967.1,834.4,886.5,1876.2,1374.8,3473.4,3469.8,1239.9,862.9,1495.8,3473.4,1690.0,1559.0,3472.2,3483.2,342.1,628.6,948.3,1153.3,589.1,2047.4,3481.9,3478.3,734.8,897.4,1861.5,1242.6,1214.2,785.2,10.0,-20.0,13.0,10751.0,-11530.0,4433.0,-493.0,-24.0,-55.0,13.0,6.0,-13.0,-10.0,8609.0,-13679.0,-203.0,2675.0,-2.0,-17.0,-7.0,1.0
2022-05-06 14:35:49.456928-07:00,1138.4,698.7,1098.2,967.1,826.9,889.0,1862.5,1373.0,3473.4,3469.8,1239.9,862.9,1496.7,3467.4,1684.3,1563.7,3488.0,3475.9,335.9,633.5,948.3,1153.3,589.1,2047.4,3480.7,3479.5,739.7,889.8,1861.5,1242.6,1214.2,785.2,7.0,8.0,11.0,10768.0,-11515.0,4433.0,-489.0,53.0,3.0,22.0,5.0,-10.0,9.0,8625.0,-13669.0,-203.0,2678.0,55.0,-5.0,8.0,1.0
2022-05-06 14:35:49.515953-07:00,1130.5,704.4,1099.0,964.5,826.9,889.0,1862.5,1373.0,3469.8,3464.9,1241.7,858.7,1496.7,3467.4,1684.3,1563.7,3488.0,3475.9,335.9,633.5,951.7,1153.3,586.7,2019.4,3480.7,3479.5,739.7,889.8,1848.9,1232.8,1200.9,778.6,13.0,0.0,7.0,10771.0,-11512.0,4432.0,-483.0,-28.0,-27.0,-8.0,4.0,-10.0,3.0,8626.0,-13668.0,-204.0,2678.0,-20.0,-5.0,0.0,1.0
2022-05-06 14:35:49.576012-07:00,1130.5,704.4,1099.0,964.5,825.2,877.2,1868.4,1378.5,3469.8,3464.9,1241.7,858.7,1495.8,3462.5,1679.5,1559.9,3477.1,3474.6,333.6,632.7,951.7,1153.3,586.7,2019.4,3478.3,3478.3,728.2,889.8,1848.9,1232.8,1200.9,778.6,2.0,-9.0,17.0,10777.0,-11509.0,4428.0,-484.0,82.0,20.0,9.0,2.0,-10.0,11.0,8643.0,-13657.0,-201.0,2678.0,83.0,9.0,6.0,1.0
2022-05-06 14:35:49.605338-07:00,1140.1,703.6,1081.6,959.4,825.2,877.2,1868.4,1378.5,3467.4,3471.0,1238.2,865.4,1495.8,3462.5,1679.5,1559.9,3477.1,3474.6,333.6,632.7,949.2,1153.3,587.5,2011.4,3478.3,3478.3,728.2,889.8,1857.6,1242.6,1200.0,784.4,14.0,0.0,-2.0,10802.0,-11483.0,4433.0,-496.0,67.0,18.0,12.0,5.0,-2.0,-9.0,8673.0,-13639.0,-192.0,2673.0,55.0,13.0,9.0,1.0
2022-05-06 14:35:49.665450-07:00,1133.1,703.6,1081.6,959.4,828.5,884.8,1866.4,1385.7,3471.0,3471.0,1238.2,865.4,1500.4,3467.4,1688.1,1559.0,3472.2,3478.3,333.6,634.3,949.2,1153.3,587.5,2013.4,3467.4,3479.5,730.7,879.7,1857.6,1242.6,1200.0,784.4,3.0,0.0,1.0,10797.0,-11483.0,4443.0,-504.0,-59.0,41.0,6.0,0.0,-12.0,-1.0,8661.0,-13648.0,-192.0,2669.0,-68.0,11.0,7.0,1.0
2022-05-06 14:35:49.816040-07:00,1133.1,705.2,1086.0,967.9,828.5,884.8,1866.4,1373.0,3471.0,3471.0,1242.6,860.4,1500.4,3467.4,1688.1,1557.1,3472.2,3478.3,333.6,634.3,951.7,1159.4,585.9,2013.4,3488.0,3479.5,730.7,879.7,1857.6,1232.8,1199.1,784.4,7.0,-6.0,11.0,10783.0,-11493.0,4451.0,-505.0,12.0,8.0,19.0,2.0,-11.0,3.0,8651.0,-13653.0,-190.0,2671.0,1.0,0.0,18.0,1.0
2022-05-06 14:35:49.816987-07:00,1133.1,705.2,1086.0,967.9,826.0,885.6,1866.4,1373.0,3472.2,3471.0,1242.6,860.4,1494.0,3475.9,1682.4,1557.1,3472.2,3479.5,335.9,627.0,951.7,1159.4,585.9,2011.4,3488.0,3467.4,730.7,883.1,1857.6,1232.8,1199.1,788.6,9.0,17.0,0.0,10790.0,-11482.0,4463.0,-502.0,6.0,12.0,21.0,6.0,-2.0,1.0,8657.0,-13649.0,-181.0,2675.0,-1.0,2.0,14.0,1.0
2022-05-06 14:35:49.818168-07:00,1133.1,705.2,1090.3,974.8,826.0,885.6,1866.4,1383.0,3472.2,3475.9,1239.1,857.9,1494.0,3475.9,1682.4,1558.1,3485.6,3479.5,335.9,627.0,945.8,1159.4,582.6,2011.4,3488.0,3467.4,730.7,883.1,1849.8,1241.7,1197.4,788.6,4.0,7.0,0.0,10778.0,-11493.0,4465.0,-502.0,-71.0,6.0,-24.0,-1.0,-2.0,3.0,8636.0,-13662.0,-186.0,2676.0,-74.0,-12.0,-6.0,1.0
2022-05-06 14:35:49.875272-07:00,1130.5,705.2,1090.3,974.8,838.6,879.7,1845.0,1383.0,3469.8,3475.9,1239.1,857.9,1492.1,3472.2,1679.5,1558.1,3485.6,3480.7,335.2,630.3,945.8,1159.4,582.6,2019.4,3488.0,3475.9,730.7,878.0,1849.8,1241.7,1197.4,784.4,7.0,-6.0,8.0,10767.0,-11505.0,4459.0,-505.0,35.0,8.0,-14.0,4.0,-13.0,0.0,8628.0,-13667.0,-187.0,2676.0,22.0,-1.0,-6.0,1.0
2022-05-06 14:35:49.905448-07:00,1130.5,702.8,1087.7,965.4,838.6,879.7,1845.0,1369.4,3469.8,3462.5,1229.3,857.9,1492.1,3472.2,1679.5,1547.8,3480.7,3480.7,335.2,630.3,943.2,1153.3,582.6,2019.4,3481.9,3475.9,730.7,878.0,1842.0,1232.8,1192.9,784.4,8.0,10.0,-8.0,10775.0,-11499.0,4457.0,-508.0,-33.0,-14.0,-5.0,4.0,0.0,-1.0,8629.0,-13667.0,-187.0,2676.0,-31.0,-5.0,-8.0,1.0
2022-05-06 14:35:49.965560-07:00,1133.1,700.3,1087.7,965.4,821.9,885.6,1864.5,1369.4,3484.4,3477.1,1229.3,857.9,1496.7,3475.9,1678.6,1547.8,3480.7,3483.2,335.9,633.5,943.2,1153.3,580.2,1991.5,3481.9,3478.3,738.9,874.7,1842.0,1232.8,1196.5,787.7,10.0,-6.0,7.0,10770.0,-11506.0,4450.0,-505.0,-3.0,-13.0,-17.0,6.0,-12.0,3.0,8624.0,-13670.0,-191.0,2674.0,5.0,-6.0,-7.0,1.0
2022-05-06 14:35:50.025289-07:00,1133.1,700.3,1084.2,970.5,821.9,885.6,1860.6,1371.2,3484.4,3477.1,1236.4,857.9,1496.7,3475.9,1675.7,1555.3,3479.5,3474.6,335.9,633.5,950.0,1154.2,580.2,1991.5,3475.9,3489.2,738.9,874.7,1846.9,1234.6,1196.5,787.7,6.0,-3.0,7.0,10777.0,-11505.0,4436.0,-509.0,47.0,1.0,-16.0,3.0,-5.0,2.0,8633.0,-13664.0,-191.0,2676.0,31.0,-6.0,-7.0,1.0
2022-05-06 14:35:50.055333-07:00,1136.6,703.6,1084.2,970.5,824.4,881.4,1860.6,1371.2,3473.4,3479.5,1236.4,857.9,1500.4,3466.1,1675.7,1555.3,3479.5,3474.6,333.6,634.3,950.0,1154.2,582.6,1988.5,3475.9,3489.2,735.6,884.8,1846.9,1234.6,1194.7,786.1,10.0,8.0,7.0,10786.0,-11496.0,4434.0,-514.0,-17.0,-7.0,-9.0,7.0,0.0,0.0,8635.0,-13663.0,-190.0,2676.0,-46.0,-3.0,-2.0,1.0
2022-05-06 14:35:50.116139-07:00,1136.6,703.6,1086.0,966.2,824.4,881.4,1854.7,1370.3,3473.4,3479.5,1232.8,862.9,1500.4,3466.1,1676.7,1555.3,3478.3,3478.3,333.6,634.3,949.2,1155.0,582.6,1988.5,3481.9,3474.6,735.6,884.8,1844.0,1237.3,1194.7,786.1,9.0,-11.0,13.0,10773.0,-11510.0,4429.0,-514.0,-6.0,3.0,-25.0,3.0,-24.0,7.0,8624.0,-13670.0,-194.0,2674.0,-3.0,3.0,-5.0,1.0
2022-05-06 14:35:50.175383-07:00,1130.5,704.4,1086.0,966.2,823.5,878.9,1854.7,1370.3,3464.9,3475.9,1232.8,862.9,1500.4,3471.0,1676.7,1555.3,3478.3,3478.3,337.5,631.9,949.2,1155.0,583.5,1978.6,3481.9,3474.6,728.2,882.3,1844.0,1237.3,1196.5,781.1,8.0,11.0,-1.0,10783.0,-11501.0,4429.0,-520.0,36.0,1.0,17.0,7.0,-1.0,2.0,8634.0,-13664.0,-192.0,2675.0,15.0,11.0,4.0,1.0
2022-05-06 14:35:50.265533-07:00,1130.5,704.4,1079.9,966.2,823.5,879.7,1862.5,1357.6,3464.9,3475.9,1235.5,851.1,1500.4,3477.1,1684.3,1542.2,3480.7,3480.7,336.7,631.9,948.3,1150.6,583.5,1978.6,3478.3,3477.1,732.3,882.3,1848.9,1229.3,1196.5,781.1,9.0,6.0,5.0,10787.0,-11498.0,4428.0,-519.0,-19.0,-18.0,-34.0,7.0,-9.0,2.0,8636.0,-13663.0,-191.0,2672.0,-21.0,9.0,-10.0,1.0
2022-05-06 14:35:50.266803-07:00,1130.5,697.0,1089.5,966.2,820.2,879.7,1862.5,1357.6,3472.2,3467.4,1231.9,851.1,1492.1,3477.1,1684.3,1542.2,3480.7,3480.7,336.7,635.1,948.3,1151.5,581.0,1975.6,3478.3,3477.1,732.3,874.7,1848.9,1223.9,1185.9,782.7,9.0,21.0,13.0,10790.0,-11502.0,4409.0,-524.0,54.0,-35.0,-65.0,6.0,1.0,19.0,8641.0,-13661.0,-194.0,2666.0,63.0,21.0,-31.0,1.0
2022-05-06 14:35:50.355464-07:00,1130.5,697.0,1089.5,977.3,820.2,877.2,1839.1,1367.6,3472.2,3467.4,1231.9,862.1,1492.1,3473.4,1671.9,1548.7,3477.1,3473.4,335.2,635.1,945.8,1151.5,581.0,1975.6,3483.2,3478.3,729.9,874.7,1843.0,1223.9,1185.9,782.7,16.0,55.0,3.0,10821.0,-11489.0,4365.0,-549.0,106.0,-77.0,-174.0,9.0,16.0,21.0,8674.0,-13644.0,-201.0,2645.0,94.0,39.0,-94.0,1.0
2022-05-06 14:35:50.356638-07:00,1127.9,705.2,1118.2,977.3,821.0,877.2,1839.1,1367.6,3474.6,3469.8,1232.8,862.1,1491.2,3473.4,1671.9,1548.7,3477.1,3473.4,335.2,644.0,945.8,1161.2,577.8,1969.7,3483.2,3478.3,729.9,878.0,1843.0,1235.5,1194.7,785.2,28.0,55.0,-11.0,10857.0,-11498.0,4244.0,-596.0,136.0,-199.0,-408.0,11.0,5.0,12.0,8693.0,-13642.0,-233.0,2592.0,61.0,70.0,-201.0,1.0
2022-05-06 14:35:50.415562-07:00,1127.9,705.2,1118.2,993.6,821.0,886.5,1866.4,1371.2,3474.6,3469.8,1232.8,857.9,1491.2,3468.6,1668.2,1553.4,3478.3,3468.6,329.0,644.0,950.9,1161.2,577.8,1969.7,3479.5,3471.0,728.2,878.0,1848.9,1235.5,1194.7,785.2,1.0,29.0,2.0,10946.0,-11470.0,4074.0,-682.0,300.0,-114.0,-315.0,1.0,28.0,6.0,8795.0,-13589.0,-290.0,2517.0,281.0,61.0,-267.0,1.0
2022-05-06 14:35:50.475236-07:00,1129.6,699.5,1140.1,993.6,828.5,886.5,1866.4,1371.2,3473.4,3466.1,1231.9,857.9,1488.4,3468.6,1668.2,1553.4,3478.3,3468.6,329.0,631.1,950.9,1153.3,586.7,1950.9,3479.5,3471.0,728.2,873.0,1848.9,1267.6,1233.7,781.1,-4.0,-26.0,-5.0,11031.0,-11432.0,3937.0,-762.0,238.0,-170.0,-357.0,-13.0,-47.0,-5.0,8901.0,-13533.0,-353.0,2438.0,244.0,60.0,-230.0,1.0
2022-05-06 14:35:50.505455-07:00,1129.6,699.5,1140.1,1016.8,824.4,889.0,1857.6,1373.9,3473.4,3466.1,1231.9,857.9,1504.1,3471.0,1674.8,1545.0,3478.3,3478.3,332.1,631.9,950.0,1153.3,586.7,1950.9,3489.2,3474.6,729.0,876.4,1869.3,1267.6,1233.7,781.1,14.0,-242.0,34.0,11005.0,-11476.0,3871.0,-799.0,-569.0,125.0,-16.0,23.0,-451.0,66.0,8880.0,-13557.0,-397.0,2373.0,-229.0,30.0,-48.0,1.0
2022-05-06 14:35:50.595564-07:00,1128.7,697.9,1172.6,1022.8,824.4,889.0,1857.6,1373.9,3472.2,3472.2,1226.6,859.5,1504.1,3471.0,1674.8,1545.0,3478.3,3478.3,332.1,631.9,950.9,1155.9,584.3,1936.1,3489.2,3474.6,729.0,876.4,1880.1,1267.6,1263.1,782.7,7.0,5.0,19.0,10984.0,-11497.0,3854.0,-856.0,-105.0,76.0,-129.0,3.0,34.0,53.0,8882.0,-13561.0,-402.0,2342.0,-119.0,108.0,-8.0,1.0
2022-05-06 14:35:50.715494-07:00,1128.7,697.9,1172.6,1022.8,830.2,902.5,1849.8,1367.6,3472.2,3472.2,1226.6,859.5,1494.9,3473.4,1668.2,1536.6,3474.6,3481.9,332.9,633.5,950.9,1155.9,584.3,1936.1,3467.4,3483.2,731.5,875.5,1880.1,1267.6,1263.1,782.7,18.0,-5.0,-4.0,10916.0,-11559.0,3859.0,-874.0,-219.0,97.0,-63.0,12.0,4.0,-14.0,8818.0,-13610.0,-397.0,2300.0,-214.0,92.0,-31.0,1.0
2022-05-06 14:35:50.716889-07:00,1126.1,700.3,1171.8,1028.8,830.2,902.5,1849.8,1367.6,3464.9,3477.1,1221.3,857.9,1494.9,3473.4,1668.2,1536.6,3474.6,3481.9,332.9,633.5,947.5,1151.5,581.8,1978.6,3467.4,3483.2,731.5,875.5,1878.1,1275.6,1239.1,779.4,-28.0,-56.0,4.0,10847.0,-11627.0,3845.0,-901.0,-191.0,-23.0,-194.0,18.0,0.0,23.0,8741.0,-13666.0,-400.0,2261.0,-209.0,71.0,-48.0,1.0
2022-05-06 14:35:50.718068-07:00,1126.1,700.3,1171.8,1028.8,826.9,893.2,1840.1,1361.2,3464.9,3477.1,1221.3,857.9,1500.4,3460.1,1675.7,1552.5,3479.5,3477.1,331.3,632.7,947.5,1151.5,581.8,1978.6,3478.3,3468.6,733.2,878.0,1878.1,1275.6,1239.1,779.4,6.0,9.0,-15.0,10820.0,-11664.0,3808.0,-907.0,15.0,-54.0,-103.0,5.0,-7.0,1.0,8705.0,-13694.0,-393.0,2229.0,-36.0,68.0,-2.0,1.0
2022-05-06 14:35:50.775298-07:00,1119.1,702.8,1162.1,1017.6,826.9,893.2,1840.1,1375.7,3463.7,3467.4,1217.7,859.5,1500.4,3460.1,1675.7,1550.6,3478.3,3477.1,331.3,632.7,953.4,1158.6,585.9,1997.5,3475.9,3468.6,733.2,878.0,1858.6,1281.9,1231.9,776.9,-4.0,-14.0,-29.0,10852.0,-11648.0,3764.0,-901.0,113.0,-114.0,-39.0,5.0,-13.0,-26.0,8738.0,-13675.0,-387.0,2220.0,124.0,9.0,-20.0,1.0
2022-05-06 14:35:50.805289-07:00,1125.2,702.8,1162.1,1017.6,825.2,897.4,1857.6,1375.7,3473.4,3467.4,1217.7,859.5,1489.3,3466.1,1680.5,1550.6,3478.3,3478.3,333.6,628.6,953.4,1158.6,585.9,2007.4,3475.9,3488.0,729.9,873.0,1858.6,1281.9,1231.9,788.6,-14.0,-7.0,16.0,10904.0,-11619.0,3707.0,-898.0,133.0,-98.0,-79.0,-7.0,-2.0,2.0,8755.0,-13663.0,-388.0,2228.0,37.0,-35.0,0.0,1.0
2022-05-06 14:35:50.865263-07:00,1125.2,697.9,1134.0,1006.5,825.2,897.4,1857.6,1404.0,3473.4,3464.9,1213.3,857.0,1489.3,3466.1,1680.5,1543.1,3479.5,3478.3,333.6,628.6,945.8,1153.3,580.2,2007.4,3485.6,3488.0,729.9,873.0,1846.9,1256.0,1218.6,788.6,11.0,12.0,-7.0,10954.0,-11576.0,3689.0,-913.0,183.0,-7.0,-18.0,17.0,-19.0,42.0,8807.0,-13628.0,-384.0,2237.0,110.0,3.0,0.0,1.0
2022-05-06 14:35:50.925101-07:00,1147.1,697.9,1134.0,1006.5,826.0,890.7,1860.6,1404.0,3468.6,3464.9,1213.3,857.0,1490.3,3479.5,1655.8,1543.1,3479.5,3488.0,332.9,632.7,945.8,1153.3,580.2,2013.4,3485.6,3477.1,731.5,873.0,1846.9,1256.0,1218.6,786.1,17.0,-17.0,35.0,11022.0,-11532.0,3624.0,-905.0,262.0,-219.0,-103.0,13.0,-20.0,-1.0,8860.0,-13592.0,-376.0,2243.0,176.0,4.0,25.0,1.0
2022-05-06 14:35:50.955222-07:00,1147.1,699.5,1126.1,997.9,826.0,890.7,1860.6,1468.1,3468.6,3473.4,1208.9,848.6,1490.3,3479.5,1655.8,1546.9,3475.9,3488.0,332.9,632.7,944.9,1153.3,583.5,2013.4,3483.2,3477.1,731.5,873.0,1838.2,1257.8,1216.8,786.1,5.0,-6.0,18.0,11144.0,-11447.0,3518.0,-915.0,233.0,-165.0,-117.0,-5.0,-17.0,-6.0,8895.0,-13570.0,-358.0,2247.0,74.0,-2.0,17.0,1.0
2022-05-06 14:35:51.045074-07:00,1169.1,700.3,1126.1,997.9,825.2,898.3,1886.0,1468.1,3464.9,3469.8,1208.9,848.6,1501.4,3467.4,1657.7,1546.9,3475.9,3466.1,334.4,632.7,944.9,1153.3,582.6,1996.5,3483.2,3473.4,732.3,870.5,1838.2,1257.8,1225.7,799.4,31.0,17.0,23.0,11238.0,-11377.0,3436.0,-956.0,508.0,-108.0,-224.0,18.0,13.0,1.0,9001.0,-13499.0,-323.0,2258.0,469.0,6.0,43.0,1.0
2022-05-06 14:35:51.075273-07:00,1169.1,700.3,1112.1,986.7,825.2,898.3,1951.9,1547.8,3464.9,3469.8,1216.8,852.0,1501.4,3467.4,1634.1,1527.3,3475.9,3481.9,334.4,632.7,953.4,1156.8,582.6,1996.5,3478.3,3485.6,732.3,870.5,1852.8,1260.4,1225.7,799.4,19.0,-40.0,52.0,11382.0,-11246.0,3358.0,-1065.0,411.0,141.0,-140.0,-2.0,-30.0,-2.0,9098.0,-13434.0,-285.0,2261.0,359.0,23.0,42.0,1.0
2022-05-06 14:35:51.105380-07:00,1178.8,701.9,1112.1,986.7,825.2,895.7,1951.9,1547.8,3472.2,3468.6,1216.8,852.0,1495.8,3475.9,1634.1,1527.3,3475.9,3481.9,336.7,635.9,953.4,1156.8,585.9,1971.7,3478.3,3485.6,729.9,861.2,1852.8,1260.4,1238.2,811.9,38.0,-10.0,68.0,11537.0,-11043.0,3423.0,-1295.0,966.0,580.0,-190.0,4.0,14.0,0.0,9322.0,-13280.0,-224.0,2262.0,749.0,41.0,31.0,1.0
2022-05-06 14:35:51.225175-07:00,1178.8,701.9,1088.6,971.3,825.2,895.7,2031.4,1613.4,3472.2,3468.6,1246.2,847.8,1495.8,3475.9,1631.3,1509.7,3472.2,3475.9,336.7,635.9,948.3,1163.0,585.9,1971.7,3474.6,3479.5,729.9,861.2,1830.4,1275.6,1238.2,811.9,34.0,13.0,-13.0,11749.0,-10690.0,3645.0,-1683.0,850.0,1132.0,-94.0,-9.0,-20.0,-54.0,9488.0,-13167.0,-167.0,2240.0,87.0,135.0,47.0,1.0
2022-05-06 14:35:51.226346-07:00,1187.6,693.8,1088.6,971.3,822.7,892.4,2031.4,1613.4,3471.0,3474.6,1246.2,847.8,1495.8,3468.6,1631.3,1509.7,3472.2,3475.9,338.3,623.8,948.3,1163.0,583.5,1962.8,3474.6,3479.5,735.6,865.4,1830.4,1275.6,1246.2,831.1,26.0,-19.0,22.0,11797.0,-10443.0,3908.0,-2222.0,667.0,1382.0,-346.0,4.0,12.0,28.0,9599.0,-13093.0,-110.0,2204.0,308.0,155.0,41.0,1.0
2022-05-06 14:35:51.255405-07:00,1187.6,693.8,1064.3,963.7,822.7,892.4,2116.9,1686.2,3471.0,3474.6,1248.0,849.5,1495.8,3468.6,1615.2,1486.6,3467.4,3467.4,338.3,623.8,950.0,1147.1,583.5,1962.8,3477.1,3478.3,735.6,865.4,1825.5,1267.6,1246.2,831.1,131.0,3.0,97.0,11778.0,-10182.0,4302.0,-2744.0,532.0,1842.0,-95.0,-6.0,35.0,-90.0,9667.0,-13053.0,-16.0,2142.0,70.0,282.0,89.0,1.0
2022-05-06 14:35:51.345931-07:00,1185.9,697.9,1079.0,963.7,826.0,885.6,2116.9,1686.2,3478.3,3475.9,1276.5,849.5,1499.5,3464.9,1615.2,1486.6,3467.4,3467.4,336.7,640.8,950.0,1156.8,579.4,1942.0,3477.1,3478.3,711.8,864.6,1825.5,1246.2,1218.6,826.0,-8.0,102.0,-113.0,11575.0,-9881.0,4969.0,-3482.0,35.0,2481.0,-84.0,21.0,129.0,93.0,9567.0,-13142.0,87.0,2047.0,-598.0,428.0,73.0,1.0
2022-05-06 14:35:51.348240-07:00,1185.9,697.9,1079.0,967.1,826.0,871.3,2110.8,1694.8,3478.3,3475.9,1276.5,843.6,1499.5,3472.2,1595.5,1481.9,3471.0,3472.2,346.8,640.8,950.9,1156.8,579.4,1942.0,3477.1,3469.8,717.5,864.6,1807.1,1246.2,1218.6,826.0,26.0,-71.0,-93.0,11088.0,-9857.0,5859.0,-3743.0,-1414.0,2056.0,751.0,-12.0,-113.0,-71.0,9072.0,-13507.0,203.0,1911.0,-1466.0,500.0,171.0,1.0
2022-05-06 14:35:51.405441-07:00,1162.1,722.5,1092.9,967.1,835.2,871.3,2110.8,1694.8,3467.4,3462.5,1258.7,843.6,1518.0,3472.2,1595.5,1481.9,3471.0,3472.2,346.8,632.7,950.9,1163.0,599.6,1950.9,3477.1,3469.8,717.5,862.1,1807.1,1216.8,1177.0,817.7,-102.0,181.0,-229.0,10620.0,-9964.0,6490.0,-3776.0,-1237.0,653.0,334.0,4.0,-7.0,24.0,8503.0,-13886.0,250.0,1802.0,-1743.0,351.0,63.0,1.0
2022-05-06 14:35:51.465214-07:00,1162.1,722.5,1092.9,965.4,835.2,863.7,2113.9,1731.1,3467.4,3462.5,1258.7,846.1,1518.0,3469.8,1658.7,1511.5,3478.3,3474.6,335.9,632.7,948.3,1163.0,599.6,1950.9,3483.2,3474.6,733.2,862.1,1801.3,1216.8,1177.0,817.7,-31.0,-86.0,-63.0,10047.0,-10590.0,6685.0,-3261.0,-2636.0,-750.0,97.0,10.0,-137.0,51.0,7804.0,-14306.0,238.0,1681.0,-1568.0,268.0,-44.0,1.0
2022-05-06 14:35:51.495285-07:00,1251.5,749.6,1073.8,965.4,855.3,863.7,2113.9,1731.1,3471.0,3471.0,1164.7,846.1,1507.8,3469.8,1658.7,1511.5,3478.3,3474.6,335.9,628.6,948.3,1157.7,697.0,2024.4,3483.2,3474.6,733.2,916.0,1801.3,1208.9,1179.7,811.9,34.0,83.0,-20.0,9766.0,-10982.0,6658.0,-2850.0,-545.0,-313.0,34.0,22.0,38.0,-18.0,7438.0,-14506.0,224.0,1627.0,-554.0,94.0,-18.0,1.0
2022-05-06 14:35:51.555221-07:00,1251.5,749.6,1073.8,948.3,848.6,855.3,1995.5,1609.6,3471.0,3471.0,1164.7,843.6,1500.4,3477.1,1445.1,1430.5,3483.2,3479.5,340.6,627.0,953.4,1157.7,697.0,2024.4,3475.9,3478.3,718.4,798.5,1794.5,1208.9,1179.7,811.9,32.0,-128.0,45.0,9543.0,-11191.0,6728.0,-2624.0,-878.0,-41.0,208.0,2.0,-43.0,-50.0,7185.0,-14637.0,208.0,1592.0,-474.0,45.0,-19.0,1.0
2022-05-06 14:35:51.615251-07:00,1324.1,767.8,1043.5,934.7,848.6,855.3,1995.5,1609.6,3479.5,3471.0,1133.1,836.9,1500.4,3477.1,1445.1,1430.5,3483.2,3479.5,340.6,627.0,945.8,1151.5,692.1,2034.4,3475.9,3478.3,718.4,798.5,1798.4,1146.3,1083.4,811.9,-58.0,40.0,-28.0,9514.0,-11183.0,6801.0,-2570.0,85.0,-138.0,181.0,6.0,-17.0,37.0,7170.0,-14645.0,217.0,1587.0,67.0,28.0,47.0,1.0
2022-05-06 14:35:51.645400-07:00,1324.1,767.8,1043.5,934.7,841.9,845.3,1927.2,1544.1,3479.5,3471.0,1133.1,836.9,1491.2,3478.3,1404.9,1391.2,3478.3,3471.0,335.2,630.3,945.8,1151.5,692.1,2034.4,3472.2,3474.6,708.5,761.2,1798.4,1146.3,1083.4,811.9,90.0,-22.0,34.0,9533.0,-11260.0,6709.0,-2398.0,-355.0,-410.0,-81.0,9.0,57.0,-58.0,7126.0,-14666.0,223.0,1587.0,-267.0,-11.0,-9.0,1.0
2022-05-06 14:35:51.735260-07:00,1330.5,775.3,1040.9,934.7,841.9,845.3,1927.2,1544.1,3467.4,3472.2,1121.7,842.8,1491.2,3478.3,1404.9,1391.2,3478.3,3471.0,335.2,630.3,948.3,1153.3,682.3,2008.4,3472.2,3474.6,708.5,761.2,1791.6,1129.6,1061.7,800.2,-29.0,-11.0,4.0,9501.0,-11293.0,6709.0,-2371.0,112.0,77.0,19.0,13.0,-63.0,41.0,7092.0,-14682.0,219.0,1588.0,139.0,-3.0,8.0,1.0
2022-05-06 14:35:51.765321-07:00,1330.5,775.3,1040.9,934.7,841.1,817.7,1905.6,1510.6,3467.4,3472.2,1121.7,842.8,1477.3,3478.3,1377.5,1377.5,3474.6,3474.6,344.5,629.5,948.3,1153.3,682.3,2008.4,3471.0,3475.9,701.1,750.5,1791.6,1129.6,1061.7,800.2,38.0,-7.0,2.0,9536.0,-11302.0,6644.0,-2371.0,-60.0,-146.0,-122.0,11.0,17.0,-23.0,7104.0,-14677.0,220.0,1584.0,-70.0,9.0,-16.0,1.0
2022-05-06 14:35:51.795175-07:00,1321.4,773.6,1028.8,929.6,841.1,817.7,1905.6,1510.6,3488.0,3472.2,1111.2,834.4,1477.3,3478.3,1377.5,1377.5,3474.6,3474.6,344.5,629.5,950.0,1154.2,679.1,1991.5,3471.0,3475.9,701.1,750.5,1776.2,1117.4,1049.6,798.5,-9.0,-27.0,10.0,9527.0,-11302.0,6648.0,-2396.0,61.0,148.0,15.0,9.0,-48.0,7.0,7094.0,-14682.0,215.0,1582.0,64.0,-2.0,7.0,1.0
2022-05-06 14:35:51.855257-07:00,1328.7,773.6,1028.8,929.6,841.1,814.4,1881.1,1481.9,3469.8,3472.2,1111.2,834.4,1479.2,3473.4,1363.9,1370.3,3473.4,3474.6,336.7,623.8,950.0,1154.2,679.1,1987.5,3472.2,3481.9,703.6,742.2,1776.2,1117.4,1049.6,800.2,18.0,-3.0,3.0,9540.0,-11283.0,6659.0,-2407.0,-34.0,-8.0,44.0,2.0,-4.0,-18.0,7115.0,-14672.0,221.0,1584.0,-30.0,2.0,21.0,1.0
2022-05-06 14:35:52.035996-07:00,1328.7,765.3,1022.8,932.2,841.1,814.4,1881.1,1494.9,3469.8,3474.6,1106.9,828.5,1479.2,3473.4,1363.9,1363.0,3473.4,3474.6,336.7,623.8,950.9,1158.6,675.8,1987.5,3478.3,3481.9,703.6,742.2,1766.6,1106.0,1047.8,800.2,15.0,0.0,16.0,9506.0,-11296.0,6687.0,-2401.0,-125.0,82.0,26.0,13.0,-13.0,15.0,7089.0,-14684.0,227.0,1587.0,-99.0,19.0,26.0,1.0
2022-05-06 14:35:52.037541-07:00,1314.2,765.3,1022.8,932.2,852.0,811.0,1860.6,1494.9,3467.4,3474.6,1106.9,828.5,1463.5,3467.4,1364.8,1363.0,3473.4,3471.0,333.6,631.9,950.9,1158.6,675.8,1968.7,3478.3,3478.3,700.3,735.6,1766.6,1106.0,1047.8,798.5,12.0,-1.0,-3.0,9489.0,-11299.0,6701.0,-2412.0,19.0,20.0,12.0,7.0,5.0,-7.0,7077.0,-14690.0,235.0,1582.0,27.0,17.0,18.0,1.0
2022-05-06 14:35:52.038332-07:00,1314.2,763.7,1025.4,932.2,852.0,811.0,1860.6,1445.1,3467.4,3468.6,1104.3,837.7,1463.5,3467.4,1364.8,1353.1,3473.4,3471.0,333.6,631.9,944.1,1157.7,669.3,1968.7,3467.4,3478.3,700.3,735.6,1759.8,1105.1,1037.5,798.5,17.0,6.0,-1.0,9472.0,-11312.0,6707.0,-2402.0,-97.0,-19.0,-20.0,9.0,9.0,0.0,7065.0,-14696.0,241.0,1579.0,-79.0,5.0,0.0,1.0
2022-05-06 14:35:52.065273-07:00,1317.8,763.7,1025.4,932.2,837.7,810.2,1848.9,1445.1,3467.4,3468.6,1104.3,837.7,1470.9,3472.2,1353.1,1353.1,3473.4,3471.0,335.9,629.5,944.1,1157.7,669.3,1960.8,3467.4,3467.4,695.4,736.5,1759.8,1105.1,1037.5,796.9,-2.0,2.0,1.0,9471.0,-11310.0,6711.0,-2405.0,72.0,6.0,26.0,10.0,-14.0,12.0,7059.0,-14699.0,239.0,1577.0,62.0,-3.0,10.0,1.0
2022-05-06 14:35:52.095282-07:00,1317.8,760.4,1028.0,923.7,837.7,810.2,1849.8,1434.1,3467.4,3463.7,1100.8,831.9,1470.9,3472.2,1352.1,1345.8,3472.2,3471.0,335.9,629.5,939.0,1155.0,673.3,1960.8,3473.4,3473.4,695.4,736.5,1767.5,1092.9,1030.6,796.9,4.0,13.0,0.0,9479.0,-11308.0,6703.0,-2408.0,-32.0,13.0,-25.0,4.0,4.0,7.0,7068.0,-14695.0,240.0,1576.0,-69.0,5.0,-1.0,1.0
2022-05-06 14:35:52.185326-07:00,1308.8,767.8,1028.0,923.7,844.4,804.4,1849.8,1434.1,3469.8,3471.0,1100.8,831.9,1466.3,3467.4,1352.1,1345.8,3472.2,3471.0,332.1,622.2,939.0,1155.0,669.3,1947.9,3473.4,3473.4,697.9,734.0,1767.5,1092.9,1035.7,797.7,6.0,-27.0,14.0,9450.0,-11341.0,6697.0,-2383.0,-114.0,-35.0,-7.0,0.0,-13.0,-1.0,7025.0,-14716.0,237.0,1573.0,-91.0,4.0,2.0,1.0
2022-05-06 14:35:52.215265-07:00,1308.8,767.8,1017.6,920.3,844.4,804.4,1831.3,1425.9,3469.8,3471.0,1093.8,831.1,1466.3,3467.4,1355.8,1346.7,3468.6,3477.1,332.1,622.2,939.0,1156.8,669.3,1947.9,3480.7,3478.3,697.9,734.0,1757.9,1088.6,1035.7,797.7,27.0,26.0,9.0,9477.0,-11329.0,6678.0,-2381.0,135.0,-55.0,-13.0,11.0,17.0,-3.0,7030.0,-14713.0,234.0,1576.0,89.0,-22.0,-2.0,1.0
2022-05-06 14:35:52.245699-07:00,1317.8,760.4,1017.6,920.3,839.4,806.0,1831.3,1425.9,3464.9,3479.5,1093.8,831.1,1465.4,3471.0,1355.8,1346.7,3468.6,3477.1,333.6,629.5,939.0,1156.8,675.0,1932.1,3480.7,3478.3,692.9,734.8,1757.9,1088.6,1028.0,797.7,6.0,-5.0,0.0,9478.0,-11334.0,6671.0,-2376.0,-85.0,-18.0,-18.0,9.0,-17.0,0.0,7028.0,-14714.0,230.0,1577.0,-78.0,-4.0,-16.0,1.0
2022-05-06 14:35:52.335409-07:00,1317.8,760.4,1015.1,926.2,839.4,806.0,1825.5,1418.6,3464.9,3479.5,1093.8,836.9,1465.4,3471.0,1348.5,1340.4,3478.3,3479.5,333.6,629.5,955.1,1154.2,675.0,1932.1,3484.4,3490.5,692.9,734.8,1759.8,1092.1,1028.0,797.7,11.0,-22.0,18.0,9490.0,-11337.0,6648.0,-2376.0,159.0,-35.0,-32.0,6.0,-10.0,10.0,7029.0,-14713.0,222.0,1580.0,134.0,-29.0,-10.0,1.0
2022-05-06 14:35:52.365285-07:00,1295.4,757.1,1021.9,926.2,842.8,806.0,1825.5,1418.6,3462.5,3473.4,1090.3,836.9,1461.7,3475.9,1348.5,1340.4,3478.3,3479.5,335.9,624.6,955.1,1146.3,668.4,1923.3,3484.4,3490.5,698.7,726.6,1759.8,1079.0,1020.2,797.7,2.0,13.0,8.0,9517.0,-11323.0,6634.0,-2375.0,-60.0,-23.0,-10.0,10.0,-12.0,8.0,7059.0,-14698.0,220.0,1585.0,-90.0,3.0,-4.0,1.0
2022-05-06 14:35:52.395342-07:00,1295.4,757.1,1021.9,924.5,842.8,816.0,1818.7,1412.2,3462.5,3473.4,1090.3,831.9,1461.7,3474.6,1343.1,1334.1,3472.2,3471.0,337.5,624.6,940.7,1146.3,668.4,1923.3,3475.9,3475.9,692.9,726.6,1759.8,1079.0,1020.2,797.7,30.0,-22.0,18.0,9506.0,-11349.0,6612.0,-2357.0,3.0,-61.0,-21.0,9.0,3.0,-6.0,7038.0,-14709.0,217.0,1584.0,14.0,1.0,-8.0,1.0
2022-05-06 14:35:52.485375-07:00,1291.8,762.0,1021.1,924.5,841.9,816.0,1818.7,1412.2,3485.6,3468.6,1092.9,831.9,1467.2,3474.6,1343.1,1334.1,3472.2,3471.0,337.5,624.6,940.7,1158.6,663.6,1932.1,3475.9,3475.9,692.9,724.1,1759.8,1083.4,1020.2,791.0,-10.0,17.0,-3.0,9523.0,-11314.0,6636.0,-2386.0,40.0,63.0,31.0,9.0,-21.0,11.0,7068.0,-14694.0,219.0,1583.0,49.0,0.0,10.0,1.0
2022-05-06 14:35:52.515269-07:00,1291.8,762.0,1021.1,917.7,841.9,804.4,1807.1,1417.6,3485.6,3468.6,1092.9,829.4,1467.2,3474.6,1339.5,1333.2,3479.5,3474.6,331.3,624.6,944.9,1158.6,663.6,1932.1,3479.5,3479.5,695.4,724.1,1756.0,1083.4,1020.2,791.0,21.0,7.0,2.0,9525.0,-11335.0,6602.0,-2373.0,-4.0,-112.0,-90.0,12.0,3.0,0.0,7056.0,-14700.0,217.0,1582.0,-47.0,2.0,10.0,1.0
2022-05-06 14:35:52.545407-07:00,1289.1,757.9,1012.5,917.7,835.2,804.4,1807.1,1417.6,3472.2,3461.3,1087.7,829.4,1455.2,3474.6,1339.5,1333.2,3479.5,3474.6,331.3,625.4,944.9,1157.7,663.6,1921.3,3479.5,3479.5,695.4,725.8,1756.0,1078.2,1019.4,798.5,-4.0,-7.0,0.0,9519.0,-11335.0,6607.0,-2385.0,5.0,114.0,29.0,6.0,-24.0,5.0,7049.0,-14704.0,218.0,1580.0,-26.0,14.0,5.0,1.0
2022-05-06 14:35:52.634986-07:00,1289.1,757.9,1012.5,927.9,835.2,811.0,1809.0,1416.7,3472.2,3461.3,1087.7,827.7,1455.2,3480.7,1346.7,1331.4,3481.9,3475.9,335.2,625.4,940.7,1157.7,663.6,1921.3,3483.2,3460.1,688.0,725.8,1755.0,1078.2,1019.4,798.5,18.0,-5.0,1.0,9516.0,-11337.0,6608.0,-2388.0,-30.0,-82.0,-31.0,7.0,-1.0,-6.0,7045.0,-14706.0,218.0,1579.0,-21.0,-6.0,0.0,1.0
2022-05-06 14:35:52.665241-07:00,1290.9,763.7,1011.6,922.8,839.4,811.0,1809.0,1416.7,3468.6,3473.4,1081.6,833.6,1467.2,3480.7,1346.7,1331.4,3481.9,3475.9,335.2,626.2,945.8,1158.6,661.9,1912.4,3483.2,3460.1,688.0,721.6,1758.9,1091.2,1015.9,796.9,0.0,6.0,1.0,9522.0,-11334.0,6603.0,-2387.0,6.0,86.0,39.0,9.0,-14.0,10.0,7052.0,-14703.0,218.0,1578.0,-14.0,9.0,5.0,1.0
2022-05-06 14:35:52.695513-07:00,1290.9,763.7,1011.6,922.8,850.3,809.4,1801.3,1402.1,3468.6,3473.4,1081.6,833.6,1463.5,3466.1,1335.9,1327.8,3467.4,3477.1,339.8,622.2,945.8,1158.6,661.9,1912.4,3469.8,3485.6,691.3,717.5,1758.9,1091.2,1015.9,796.9,7.0,-3.0,-4.0,9508.0,-11344.0,6607.0,-2383.0,-28.0,-79.0,-42.0,4.0,3.0,-2.0,7040.0,-14709.0,217.0,1576.0,-12.0,-4.0,0.0,1.0
2022-05-06 14:35:52.755309-07:00,1277.4,756.3,1027.1,924.5,850.3,809.4,1801.3,1402.1,3471.0,3469.8,1086.0,833.6,1463.5,3466.1,1335.9,1327.8,3467.4,3477.1,339.8,622.2,939.8,1153.3,661.1,1906.6,3469.8,3485.6,691.3,717.5,1747.3,1079.9,1019.4,791.0,7.0,1.0,11.0,9521.0,-11350.0,6583.0,-2372.0,25.0,-3.0,18.0,8.0,-4.0,0.0,7045.0,-14706.0,217.0,1576.0,29.0,-9.0,-3.0,1.0
2022-05-06 14:35:52.875110-07:00,1277.4,756.3,1027.1,924.5,832.7,801.0,1792.6,1391.2,3471.0,3469.8,1086.0,833.6,1460.8,3469.8,1329.6,1322.3,3471.0,3473.4,331.3,621.4,939.8,1153.3,661.1,1906.6,3467.4,3473.4,695.4,713.4,1747.3,1079.9,1019.4,791.0,0.0,10.0,-4.0,9525.0,-11344.0,6586.0,-2375.0,-9.0,-31.0,-23.0,11.0,-12.0,12.0,7050.0,-14704.0,216.0,1574.0,-12.0,-6.0,-4.0,1.0
2022-05-06 14:35:52.876048-07:00,1282.8,761.2,1020.2,915.2,832.7,801.0,1792.6,1391.2,3464.9,3467.4,1085.1,819.4,1460.8,3469.8,1329.6,1322.3,3471.0,3473.4,331.3,621.4,943.2,1151.5,656.2,1891.8,3467.4,3473.4,695.4,713.4,1748.3,1067.7,1016.8,788.6,16.0,-15.0,3.0,9536.0,-11355.0,6557.0,-2356.0,-9.0,-80.0,-2.0,4.0,-3.0,-14.0,7053.0,-14703.0,212.0,1574.0,11.0,-17.0,-8.0,1.0
2022-05-06 14:35:52.935307-07:00,1275.6,761.2,1020.2,915.2,839.4,800.2,1784.9,1397.6,3462.5,3467.4,1085.1,819.4,1459.8,3462.5,1337.7,1326.8,3478.3,3478.3,330.5,623.0,943.2,1151.5,656.2,1893.8,3475.9,3477.1,682.3,720.8,1748.3,1067.7,1016.8,797.7,9.0,23.0,3.0,9545.0,-11353.0,6548.0,-2355.0,10.0,-14.0,-10.0,8.0,-12.0,10.0,7058.0,-14700.0,209.0,1579.0,-14.0,-13.0,-1.0,1.0
2022-05-06 14:35:52.966103-07:00,1275.6,751.3,1011.6,922.8,839.4,800.2,1784.9,1380.3,3462.5,3468.6,1082.5,826.9,1459.8,3462.5,1337.7,1325.0,3479.5,3478.3,330.5,623.0,946.6,1151.5,663.6,1893.8,3474.6,3477.1,682.3,720.8,1748.3,1075.6,1018.5,797.7,0.0,-18.0,8.0,9541.0,-11378.0,6519.0,-2334.0,-110.0,-69.0,-35.0,9.0,2.0,-6.0,7034.0,-14712.0,200.0,1575.0,-107.0,1.0,-16.0,1.0
2022-05-06 14:35:52.995572-07:00,1278.3,751.3,1011.6,922.8,838.6,811.0,1776.2,1380.3,3466.1,3468.6,1082.5,826.9,1455.2,3473.4,1335.9,1325.0,3479.5,3478.3,333.6,628.6,946.6,1151.5,663.6,1893.8,3474.6,3481.9,679.1,719.2,1748.3,1075.6,1018.5,792.7,15.0,0.0,13.0,9539.0,-11389.0,6509.0,-2316.0,59.0,-19.0,18.0,0.0,2.0,-2.0,7034.0,-14712.0,197.0,1577.0,60.0,-11.0,2.0,1.0
2022-05-06 14:35:53.115488-07:00,1278.3,758.7,1015.1,919.4,838.6,811.0,1776.2,1380.3,3466.1,3478.3,1082.5,824.4,1455.2,3473.4,1335.9,1316.9,3467.4,3478.3,333.6,628.6,943.2,1155.0,660.3,1893.8,3477.1,3481.9,679.1,719.2,1748.3,1079.0,1013.3,792.7,7.0,6.0,1.0,9543.0,-11384.0,6514.0,-2311.0,-34.0,-29.0,-1.0,6.0,-11.0,8.0,7035.0,-14711.0,196.0,1577.0,-24.0,0.0,-1.0,1.0
2022-05-06 14:35:53.117244-07:00,1274.7,758.7,1015.1,919.4,838.6,812.7,1774.3,1380.3,3477.1,3478.3,1082.5,824.4,1452.5,3472.2,1332.3,1316.9,3467.4,3480.7,338.3,624.6,943.2,1155.0,660.3,1887.9,3477.1,3481.9,687.2,716.7,1748.3,1079.0,1013.3,793.5,11.0,-9.0,-1.0,9541.0,-11394.0,6501.0,-2305.0,1.0,-8.0,-6.0,9.0,-3.0,-4.0,7027.0,-14715.0,195.0,1576.0,0.0,-3.0,-6.0,1.0
2022-05-06 14:35:53.175431-07:00,1274.7,757.9,1007.3,927.9,838.6,812.7,1774.3,1384.8,3477.1,3478.3,1079.9,828.5,1452.5,3472.2,1332.3,1318.7,3473.4,3480.7,338.3,624.6,939.0,1153.3,657.0,1887.9,3480.7,3481.9,687.2,716.7,1749.3,1071.2,1015.1,793.5,2.0,5.0,8.0,9545.0,-11391.0,6503.0,-2304.0,7.0,-10.0,10.0,6.0,-5.0,3.0,7030.0,-14714.0,195.0,1576.0,-13.0,-7.0,6.0,1.0
2022-05-06 14:35:53.205072-07:00,1273.9,754.6,1007.3,927.9,837.7,809.4,1783.9,1384.8,3478.3,3475.9,1079.9,828.5,1458.9,3469.8,1337.7,1318.7,3473.4,3471.0,334.4,621.4,939.0,1153.3,657.0,1890.9,3480.7,3483.2,682.3,715.1,1749.3,1071.2,1009.9,784.4,12.0,6.0,5.0,9545.0,-11397.0,6494.0,-2293.0,-16.0,-39.0,-3.0,8.0,4.0,5.0,7020.0,-14719.0,193.0,1575.0,-41.0,1.0,-7.0,1.0
2022-05-06 14:35:53.265725-07:00,1273.9,754.6,1008.2,919.4,837.7,809.4,1777.2,1367.6,3478.3,3475.9,1082.5,826.0,1458.9,3469.8,1344.0,1323.2,3469.8,3479.5,334.4,621.4,942.4,1155.0,657.0,1890.9,3469.8,3483.2,682.3,715.1,1745.4,1073.8,1009.9,784.4,-13.0,-32.0,0.0,9558.0,-11407.0,6474.0,-2249.0,72.0,-224.0,21.0,11.0,-29.0,28.0,6997.0,-14730.0,196.0,1569.0,11.0,18.0,21.0,1.0
2022-05-06 14:35:53.296326-07:00,1276.5,750.5,1008.2,919.4,841.9,818.5,1777.2,1367.6,3474.6,3478.3,1082.5,826.0,1455.2,3468.6,1344.0,1323.2,3469.8,3479.5,329.8,622.2,942.4,1155.0,672.5,1895.8,3469.8,3483.2,684.0,744.7,1745.4,1073.8,1021.9,784.4,14.0,-23.0,-17.0,9719.0,-11399.0,6318.0,-2032.0,119.0,-1023.0,144.0,1.0,-16.0,-23.0,7036.0,-14711.0,218.0,1571.0,183.0,-11.0,64.0,1.0
2022-05-06 14:35:53.385364-07:00,1276.5,750.5,1011.6,919.4,841.9,818.5,1805.2,1364.8,3474.6,3478.3,1106.0,856.2,1455.2,3468.6,1452.5,1371.2,3478.3,3481.9,329.8,622.2,948.3,1154.2,672.5,1895.8,3468.6,3480.7,684.0,744.7,1747.3,1083.4,1021.9,784.4,35.0,-114.0,11.0,9910.0,-11358.0,6191.0,-1696.0,166.0,-888.0,424.0,-3.0,-15.0,-37.0,7072.0,-14690.0,250.0,1600.0,238.0,-68.0,121.0,1.0
2022-05-06 14:35:53.445622-07:00,1247.1,751.3,1011.6,919.4,833.6,861.2,1805.2,1364.8,3471.0,3475.9,1106.0,856.2,1461.7,3469.8,1452.5,1371.2,3478.3,3481.9,341.4,627.8,948.3,1154.2,678.2,1912.4,3468.6,3480.7,689.7,904.2,1747.3,1083.4,1053.0,797.7,-37.0,-18.0,8.0,10205.0,-11135.0,6183.0,-1440.0,497.0,-820.0,629.0,12.0,-35.0,26.0,7221.0,-14610.0,298.0,1658.0,482.0,-102.0,125.0,1.0
2022-05-06 14:35:53.446910-07:00,1247.1,751.3,1018.5,917.7,833.6,896.6,1848.9,1335.0,3471.0,3475.9,1317.8,878.0,1461.7,3478.3,1574.9,1627.5,3471.0,3475.9,342.9,627.8,944.1,1159.4,678.2,1912.4,3478.3,3478.3,697.0,904.2,1751.2,1114.7,1053.0,797.7,24.0,63.0,0.0,10583.0,-10920.0,5996.0,-1109.0,607.0,-1087.0,315.0,14.0,15.0,5.0,7441.0,-14491.0,333.0,1722.0,467.0,-142.0,62.0,1.0
2022-05-06 14:35:53.535354-07:00,1231.9,756.3,1009.0,917.7,837.7,896.6,1848.9,1335.0,3473.4,3464.9,1333.2,878.0,1481.0,3478.3,1574.9,1627.5,3471.0,3475.9,342.9,627.8,944.1,1162.1,666.0,1975.6,3478.3,3478.3,697.0,984.2,1751.2,1115.6,1051.3,806.0,-5.0,70.0,13.0,10909.0,-10771.0,5712.0,-891.0,701.0,-917.0,-88.0,6.0,-11.0,29.0,7664.0,-14367.0,333.0,1782.0,677.0,-154.0,-12.0,1.0
2022-05-06 14:35:53.565504-07:00,1231.9,756.3,1009.0,926.2,837.7,914.4,1940.0,1318.7,3473.4,3464.9,1333.2,858.7,1481.0,3469.8,1697.6,1684.3,3475.9,3477.1,349.1,627.8,939.0,1162.1,666.0,1975.6,3477.1,3480.7,721.6,984.2,1749.3,1115.6,1051.3,806.0,59.0,37.0,-18.0,11164.0,-10715.0,5333.0,-741.0,-8.0,-936.0,-368.0,8.0,96.0,-64.0,7883.0,-14244.0,310.0,1816.0,208.0,-119.0,-103.0,1.0
2022-05-06 14:35:53.625391-07:00,1212.4,738.1,998.7,926.2,836.1,914.4,1940.0,1318.7,3467.4,3468.6,1363.9,858.7,1480.1,3469.8,1697.6,1684.3,3475.9,3477.1,349.1,628.6,939.0,1153.3,654.6,1965.7,3477.1,3480.7,721.6,1015.9,1749.3,1100.8,1041.8,803.5,39.0,3.0,0.0,11265.0,-10805.0,4937.0,-646.0,33.0,-940.0,-612.0,1.0,6.0,-6.0,7947.0,-14207.0,270.0,1838.0,432.0,-141.0,-91.0,1.0
2022-05-06 14:35:53.655390-07:00,1212.4,738.1,998.7,926.2,836.1,927.9,1976.6,1498.6,3467.4,3468.6,1363.9,851.1,1480.1,3467.4,1682.4,1656.8,3477.1,3464.9,342.1,628.6,946.6,1153.3,654.6,1965.7,3479.5,3471.0,738.9,1015.9,1736.8,1100.8,1041.8,803.5,25.0,106.0,-68.0,11333.0,-10904.0,4551.0,-634.0,-319.0,-558.0,-646.0,2.0,52.0,6.0,8085.0,-14126.0,212.0,1861.0,-62.0,-87.0,-168.0,1.0
2022-05-06 14:35:53.715705-07:00,1202.7,752.1,1004.8,916.9,832.7,927.9,1976.6,1498.6,3466.1,3457.6,1349.4,847.8,1476.4,3467.4,1682.4,1656.8,3477.1,3464.9,342.1,627.8,941.5,1158.6,651.4,1919.3,3479.5,3471.0,738.9,1015.1,1740.6,1127.0,1053.0,801.0,0.0,-50.0,20.0,11233.0,-11148.0,4191.0,-636.0,-432.0,-405.0,-701.0,-11.0,-19.0,-3.0,8037.0,-14156.0,104.0,1854.0,-52.0,-137.0,-258.0,1.0
2022-05-06 14:35:53.746189-07:00,1202.7,752.1,1004.8,916.9,833.6,946.6,2003.5,1604.0,3466.1,3457.6,1349.4,847.8,1487.5,3462.5,1633.1,1630.3,3478.3,3473.4,346.8,623.8,941.5,1158.6,651.4,1919.3,3479.5,3475.9,762.9,993.6,1740.6,1127.0,1053.0,801.0,-58.0,-15.0,-50.0,11169.0,-11293.0,3959.0,-694.0,-381.0,-192.0,-427.0,-5.0,27.0,55.0,8105.0,-14117.0,-28.0,1854.0,63.0,-139.0,-305.0,1.0
2022-05-06 14:35:53.805314-07:00,1197.4,735.6,999.6,911.8,833.6,946.6,2003.5,1604.0,3469.8,3473.4,1354.0,875.5,1487.5,3462.5,1633.1,1630.3,3478.3,3473.4,346.8,623.8,945.8,1153.3,641.6,1901.6,3479.5,3475.9,762.9,993.6,1733.9,1218.6,1160.3,797.7,47.0,-122.0,74.0,11014.0,-11534.0,3722.0,-504.0,-777.0,-616.0,-179.0,-5.0,-52.0,-90.0,8120.0,-14110.0,-149.0,1838.0,42.0,-136.0,-187.0,1.0
2022-05-06 14:35:53.865663-07:00,1197.4,735.6,999.6,911.8,839.4,970.5,2018.4,1618.1,3469.8,3473.4,1354.0,875.5,1491.2,3473.4,1623.7,1607.7,3478.3,3480.7,354.5,624.6,945.8,1153.3,641.6,1901.6,3475.9,3483.2,762.0,979.9,1733.9,1218.6,1160.3,797.7,-11.0,36.0,60.0,10941.0,-11621.0,3657.0,-567.0,80.0,406.0,-216.0,0.0,18.0,115.0,8212.0,-14051.0,-247.0,1872.0,318.0,-147.0,-142.0,1.0
2022-05-06 14:35:53.925461-07:00,1220.4,724.9,979.9,910.1,839.4,970.5,2018.4,1618.1,3473.4,3467.4,1313.3,886.5,1491.2,3473.4,1623.7,1607.7,3478.3,3480.7,354.5,624.6,950.0,1150.6,631.9,1863.5,3475.9,3483.2,762.0,979.9,1750.2,1256.9,1245.3,796.9,-8.0,-47.0,31.0,10847.0,-11684.0,3718.0,-664.0,-163.0,373.0,-42.0,3.0,-47.0,-12.0,8310.0,-13991.0,-310.0,1881.0,273.0,-78.0,-103.0,1.0
2022-05-06 14:35:53.955305-07:00,1220.4,724.9,979.9,910.1,838.6,952.6,2008.4,1636.9,3473.4,3467.4,1313.3,886.5,1479.2,3462.5,1676.7,1561.8,3473.4,3471.0,347.6,629.5,950.0,1150.6,631.9,1863.5,3475.9,3472.2,748.0,968.8,1750.2,1256.9,1245.3,796.9,-1.0,-24.0,-106.0,10716.0,-11755.0,3848.0,-791.0,-282.0,376.0,80.0,14.0,-7.0,33.0,8423.0,-13921.0,-344.0,1894.0,68.0,-19.0,-42.0,1.0
2022-05-06 14:35:53.985447-07:00,1208.0,721.6,1016.8,921.1,838.6,952.6,2008.4,1526.4,3478.3,3467.4,1290.0,894.1,1479.2,3462.5,1676.7,1533.8,3474.6,3471.0,347.6,629.5,950.0,1151.5,624.6,1887.9,3475.9,3472.2,748.0,968.8,1755.0,1276.5,1256.0,799.4,38.0,-9.0,24.0,10643.0,-11792.0,3942.0,-763.0,-85.0,195.0,197.0,9.0,-10.0,-37.0,8465.0,-13893.0,-364.0,1901.0,156.0,-64.0,-26.0,1.0
2022-05-06 14:35:54.075253-07:00,1191.2,721.6,1016.8,921.1,827.7,927.9,1950.9,1526.4,3471.0,3467.4,1290.0,894.1,1476.4,3467.4,1652.0,1533.8,3474.6,3475.9,342.9,625.4,950.0,1151.5,624.6,1886.0,3475.9,3480.7,752.1,956.0,1755.0,1276.5,1256.0,801.0,9.0,50.0,4.0,10687.0,-11706.0,4060.0,-844.0,338.0,258.0,107.0,17.0,-12.0,32.0,8593.0,-13811.0,-378.0,1930.0,560.0,-96.0,-42.0,1.0
2022-05-06 14:35:54.165609-07:00,1191.2,724.9,1074.7,941.5,827.7,927.9,1950.9,1515.3,3471.0,3467.4,1274.7,885.6,1476.4,3467.4,1652.0,1548.7,3479.5,3475.9,342.9,625.4,944.1,1149.8,614.1,1886.0,3478.3,3480.7,752.1,956.0,1793.6,1274.7,1243.5,801.0,21.0,-23.0,-28.0,10703.0,-11660.0,4145.0,-863.0,51.0,61.0,199.0,12.0,-22.0,-30.0,8714.0,-13732.0,-386.0,1945.0,195.0,-27.0,-5.0,1.0
2022-05-06 14:35:54.166872-07:00,1187.6,724.9,1074.7,941.5,834.4,913.5,1938.0,1515.3,3473.4,3467.4,1274.7,885.6,1474.6,3474.6,1656.8,1548.7,3479.5,3473.4,344.5,626.2,944.1,1149.8,614.1,1895.8,3478.3,3478.3,727.4,961.1,1793.6,1274.7,1243.5,798.5,-2.0,-70.0,8.0,10708.0,-11604.0,4288.0,-847.0,61.0,280.0,338.0,-5.0,-54.0,-26.0,8790.0,-13680.0,-388.0,1973.0,151.0,-92.0,40.0,1.0
2022-05-06 14:35:54.195471-07:00,1187.6,721.6,1088.6,945.8,834.4,913.5,1938.0,1484.7,3473.4,3471.0,1266.7,883.9,1474.6,3474.6,1656.8,1546.9,3478.3,3473.4,344.5,626.2,948.3,1155.0,616.5,1895.8,3477.1,3478.3,727.4,961.1,1860.6,1290.0,1232.8,798.5,-3.0,-13.0,-15.0,10688.0,-11559.0,4471.0,-785.0,-257.0,117.0,448.0,-2.0,-21.0,-11.0,8823.0,-13650.0,-370.0,2034.0,-43.0,-77.0,137.0,1.0
2022-05-06 14:35:54.255409-07:00,1181.5,724.9,1088.6,945.8,837.7,901.7,1909.5,1484.7,3472.2,3472.2,1266.7,883.9,1470.0,3472.2,1636.9,1546.9,3478.3,3474.6,335.2,629.5,948.3,1155.0,606.0,1926.2,3477.1,3469.8,726.6,949.2,1860.6,1290.0,1223.0,793.5,25.0,-77.0,4.0,10546.0,-11624.0,4661.0,-620.0,-470.0,117.0,527.0,8.0,-57.0,-45.0,8709.0,-13714.0,-340.0,2098.0,-341.0,-92.0,206.0,1.0
2022-05-06 14:35:54.315471-07:00,1181.5,724.9,1069.5,943.2,837.7,901.7,1873.2,1458.9,3472.2,3472.2,1266.7,882.3,1470.0,3472.2,1632.2,1535.7,3474.6,3467.4,335.2,629.5,953.4,1153.3,606.0,1926.2,3484.4,3477.1,726.6,949.2,1919.3,1290.0,1223.0,793.5,0.0,-18.0,39.0,10432.0,-11635.0,4900.0,-483.0,-271.0,238.0,628.0,0.0,-25.0,20.0,8605.0,-13764.0,-295.0,2205.0,-187.0,-138.0,282.0,1.0
2022-05-06 14:35:54.345607-07:00,1167.4,729.0,1069.5,943.2,832.7,899.1,1873.2,1458.9,3471.0,3469.8,1266.7,882.3,1469.0,3464.9,1632.2,1535.7,3474.6,3467.4,339.0,627.0,953.4,1153.3,602.8,1930.2,3484.4,3477.1,723.3,953.4,1919.3,1290.0,1216.0,814.4,29.0,39.0,23.0,10368.0,-11607.0,5108.0,-366.0,-84.0,116.0,475.0,21.0,4.0,28.0,8520.0,-13800.0,-213.0,2316.0,-65.0,-92.0,321.0,1.0
2022-05-06 14:35:54.405956-07:00,1167.4,729.0,1077.3,944.9,832.7,899.1,1867.4,1436.0,3471.0,3469.8,1272.1,879.7,1469.0,3464.9,1642.6,1532.9,3488.0,3478.3,339.0,627.0,950.0,1152.4,602.8,1930.2,3467.4,3475.9,723.3,953.4,1888.9,1289.1,1216.0,814.4,30.0,62.0,12.0,10349.0,-11566.0,5242.0,-282.0,-11.0,57.0,277.0,13.0,26.0,27.0,8484.0,-13806.0,-130.0,2413.0,-23.0,-90.0,256.0,1.0
2022-05-06 14:35:54.435720-07:00,1170.0,717.5,1077.3,944.9,828.5,905.0,1867.4,1436.0,3462.5,3478.3,1272.1,879.7,1471.8,3473.4,1642.6,1532.9,3488.0,3478.3,337.5,624.6,950.0,1152.4,597.9,1927.2,3467.4,3475.9,720.8,946.6,1888.9,1289.1,1213.3,796.9,36.0,90.0,-10.0,10366.0,-11534.0,5282.0,-257.0,81.0,-28.0,31.0,12.0,86.0,12.0,8483.0,-13795.0,-80.0,2483.0,61.0,-65.0,121.0,1.0
2022-05-06 14:35:54.495609-07:00,1170.0,717.5,1059.1,943.2,828.5,905.0,1855.7,1408.5,3462.5,3478.3,1260.4,881.4,1471.8,3473.4,1645.4,1535.7,3473.4,3475.9,337.5,624.6,946.6,1149.8,597.9,1927.2,3471.0,3477.1,720.8,946.6,1876.2,1275.6,1213.3,796.9,17.0,33.0,0.0,10371.0,-11534.0,5272.0,-236.0,-46.0,-46.0,-19.0,-1.0,9.0,3.0,8482.0,-13791.0,-73.0,2508.0,-58.0,-31.0,-1.0,1.0
2022-05-06 14:35:54.555958-07:00,1165.6,715.9,1051.3,943.2,835.2,891.5,1855.7,1408.5,3473.4,3472.2,1255.1,881.4,1473.6,3472.2,1645.4,1535.7,3473.4,3475.9,340.6,627.8,946.6,1155.0,597.9,1934.1,3471.0,3477.1,720.8,935.6,1876.2,1274.7,1208.9,796.9,3.0,-14.0,9.0,10380.0,-11542.0,5236.0,-242.0,36.0,-68.0,-90.0,-10.0,-14.0,-1.0,8483.0,-13789.0,-95.0,2514.0,16.0,-36.0,-43.0,1.0
2022-05-06 14:35:54.585873-07:00,1165.6,715.9,1051.3,943.2,835.2,886.5,1850.8,1414.0,3473.4,3472.2,1255.1,879.7,1473.6,3462.5,1634.1,1541.3,3477.1,3479.5,335.9,627.8,948.3,1155.0,597.9,1934.1,3484.4,3467.4,717.5,935.6,1858.6,1274.7,1208.9,796.9,7.0,-10.0,0.0,10416.0,-11526.0,5199.0,-251.0,82.0,-64.0,-48.0,0.0,-15.0,-3.0,8517.0,-13767.0,-114.0,2520.0,76.0,-50.0,-36.0,1.0
2022-05-06 14:35:54.675424-07:00,1160.3,715.1,1053.9,943.2,835.2,886.5,1850.8,1414.0,3477.1,3478.3,1253.3,879.7,1470.0,3462.5,1634.1,1541.3,3477.1,3479.5,335.9,623.8,948.3,1151.5,595.5,1901.6,3484.4,3467.4,717.5,935.6,1858.6,1268.5,1202.7,796.9,20.0,-4.0,6.0,10435.0,-11525.0,5163.0,-241.0,-18.0,-89.0,-33.0,10.0,-7.0,-3.0,8527.0,-13759.0,-137.0,2530.0,-11.0,-61.0,-34.0,1.0
2022-05-06 14:35:54.735738-07:00,1160.3,715.1,1053.9,936.4,835.2,896.6,1836.2,1399.4,3477.1,3478.3,1253.3,876.4,1470.0,3478.3,1627.5,1529.2,3477.1,3483.2,336.7,623.8,947.5,1151.5,595.5,1901.6,3488.0,3488.0,708.5,935.6,1852.8,1268.5,1202.7,796.9,9.0,-14.0,23.0,10445.0,-11530.0,5133.0,-232.0,19.0,-48.0,1.0,3.0,-12.0,17.0,8536.0,-13751.0,-156.0,2542.0,31.0,-46.0,-12.0,1.0
2022-05-06 14:35:54.736917-07:00,1155.0,714.2,1053.9,936.4,826.9,896.6,1836.2,1399.4,3469.8,3464.9,1257.8,876.4,1468.1,3478.3,1627.5,1529.2,3477.1,3483.2,336.7,622.2,947.5,1154.2,591.5,1883.0,3488.0,3488.0,708.5,933.9,1852.8,1267.6,1199.1,797.7,15.0,-3.0,20.0,10472.0,-11518.0,5104.0,-227.0,53.0,-81.0,-27.0,7.0,-17.0,24.0,8562.0,-13733.0,-162.0,2551.0,51.0,-20.0,-4.0,1.0
2022-05-06 14:35:54.795958-07:00,1155.0,714.2,1053.9,936.4,823.5,887.3,1832.3,1395.7,3469.8,3464.9,1257.8,871.3,1469.0,3467.4,1620.9,1521.8,3488.0,3469.8,332.9,612.5,945.8,1154.2,591.5,1883.0,3467.4,3472.2,712.6,925.4,1850.8,1267.6,1199.1,797.7,16.0,-15.0,15.0,10498.0,-11509.0,5072.0,-220.0,45.0,-48.0,-19.0,4.0,-4.0,1.0,8583.0,-13719.0,-163.0,2556.0,67.0,-15.0,1.0,1.0
2022-05-06 14:35:54.855437-07:00,1151.5,715.9,1051.3,937.3,823.5,887.3,1832.3,1395.7,3471.0,3481.9,1252.4,873.8,1469.0,3467.4,1620.9,1521.8,3488.0,3469.8,332.9,612.5,945.8,1152.4,592.3,1889.9,3467.4,3472.2,712.6,925.4,1841.1,1259.6,1201.8,792.7,10.0,15.0,0.0,10531.0,-11480.0,5067.0,-232.0,99.0,-6.0,2.0,3.0,-6.0,10.0,8618.0,-13697.0,-157.0,2558.0,73.0,-1.0,-2.0,1.0
2022-05-06 14:35:54.975293-07:00,1151.5,715.9,1051.3,937.3,826.9,880.6,1833.3,1394.8,3471.0,3481.9,1252.4,873.8,1467.2,3477.1,1627.5,1530.1,3478.3,3467.4,334.4,623.0,945.8,1152.4,592.3,1889.9,3472.2,3485.6,711.0,922.8,1841.1,1259.6,1201.8,792.7,13.0,5.0,5.0,10545.0,-11476.0,5049.0,-238.0,8.0,-22.0,-38.0,8.0,0.0,-1.0,8623.0,-13694.0,-159.0,2557.0,-1.0,-7.0,-11.0,1.0
2022-05-06 14:35:55.006088-07:00,1148.0,728.2,1055.6,943.2,826.9,880.6,1833.3,1394.8,3471.0,3467.4,1242.6,874.7,1467.2,3477.1,1627.5,1530.1,3478.3,3467.4,334.4,623.0,944.9,1154.2,593.1,1901.6,3472.2,3485.6,711.0,922.8,1839.1,1252.4,1192.0,788.6,13.0,-7.0,14.0,10551.0,-11477.0,5034.0,-245.0,31.0,-9.0,-28.0,9.0,-12.0,3.0,8633.0,-13688.0,-161.0,2555.0,44.0,2.0,-14.0,1.0
2022-05-06 14:35:55.065428-07:00,1148.0,728.2,1055.6,943.2,824.4,884.8,1822.6,1384.8,3471.0,3467.4,1242.6,874.7,1466.3,3460.1,1617.1,1524.5,3475.9,3488.0,330.5,623.8,944.9,1154.2,593.1,1901.6,3467.4,3480.7,716.7,925.4,1839.1,1252.4,1192.0,788.6,11.0,-5.0,2.0,10564.0,-11472.0,5016.0,-255.0,20.0,-39.0,-37.0,1.0,-8.0,-1.0,8646.0,-13680.0,-161.0,2550.0,26.0,13.0,-11.0,1.0
2022-05-06 14:35:55.126072-07:00,1139.2,711.8,1059.1,939.8,824.4,884.8,1822.6,1384.8,3466.1,3473.4,1241.7,872.1,1466.3,3460.1,1617.1,1524.5,3475.9,3488.0,330.5,623.8,943.2,1157.7,589.9,1887.9,3467.4,3480.7,716.7,925.4,1845.9,1262.2,1196.5,787.7,14.0,-6.0,4.0,10572.0,-11472.0,5000.0,-257.0,5.0,-10.0,-12.0,4.0,-14.0,-5.0,8649.0,-13678.0,-162.0,2549.0,-3.0,2.0,-3.0,1.0
2022-05-06 14:35:55.127622-07:00,1155.0,711.8,1059.1,939.8,829.4,884.8,1821.6,1388.5,3467.4,3473.4,1241.7,872.1,1465.4,3480.7,1619.0,1517.1,3469.8,3472.2,333.6,621.4,943.2,1157.7,589.9,1882.0,3475.9,3475.9,706.9,923.7,1845.9,1262.2,1196.5,791.0,8.0,1.0,4.0,10566.0,-11476.0,5004.0,-261.0,-38.0,29.0,7.0,5.0,-10.0,3.0,8638.0,-13686.0,-164.0,2547.0,-62.0,14.0,5.0,1.0
2022-05-06 14:35:55.185281-07:00,1155.0,708.5,1048.7,935.6,829.4,884.8,1821.6,1386.6,3467.4,3473.4,1244.4,868.8,1465.4,3480.7,1619.0,1517.1,3472.2,3472.2,333.6,621.4,946.6,1153.3,588.3,1882.0,3478.3,3475.9,706.9,923.7,1838.2,1253.3,1193.8,791.0,11.0,-12.0,11.0,10550.0,-11493.0,4997.0,-266.0,-24.0,-1.0,-43.0,2.0,-9.0,5.0,8626.0,-13693.0,-167.0,2547.0,7.0,0.0,7.0,1.0
2022-05-06 14:35:55.186508-07:00,1150.6,708.5,1048.7,935.6,827.7,885.6,1816.8,1386.6,3478.3,3473.4,1244.4,868.8,1464.4,3469.8,1613.4,1517.1,3472.2,3467.4,329.0,623.8,946.6,1153.3,588.3,1888.9,3478.3,3473.4,710.1,919.4,1838.2,1253.3,1193.8,796.0,14.0,21.0,-5.0,10567.0,-11478.0,4996.0,-281.0,71.0,25.0,15.0,3.0,14.0,0.0,8648.0,-13680.0,-160.0,2545.0,37.0,12.0,-1.0,1.0
2022-05-06 14:35:55.246120-07:00,1150.6,711.0,1049.6,935.6,827.7,885.6,1816.8,1383.0,3478.3,3469.8,1238.2,873.8,1464.4,3469.8,1613.4,1519.0,3474.6,3467.4,329.0,623.8,944.1,1150.6,588.3,1888.9,3477.1,3473.4,710.1,919.4,1831.3,1250.6,1192.0,796.0,7.0,-10.0,-13.0,10562.0,-11487.0,4985.0,-280.0,-68.0,-53.0,-57.0,6.0,-5.0,-8.0,8645.0,-13683.0,-165.0,2542.0,-58.0,-9.0,-24.0,1.0
2022-05-06 14:35:55.365617-07:00,1146.3,711.0,1049.6,935.6,835.2,882.3,1825.5,1383.0,3468.6,3469.8,1238.2,873.8,1461.7,3467.4,1617.1,1519.0,3474.6,3480.7,332.9,636.7,944.1,1150.6,588.3,1868.4,3477.1,3479.5,706.0,921.1,1831.3,1250.6,1192.0,793.5,17.0,-18.0,18.0,10560.0,-11499.0,4961.0,-272.0,40.0,-8.0,4.0,8.0,-8.0,-6.0,8638.0,-13687.0,-174.0,2542.0,49.0,-3.0,2.0,1.0
2022-05-06 14:35:55.455953-07:00,1146.3,697.0,1053.0,939.0,835.2,882.3,1826.5,1382.1,3468.6,3471.0,1246.2,870.5,1461.7,3467.4,1607.7,1522.7,3473.4,3474.6,332.9,636.7,943.2,1157.7,584.3,1868.4,3480.7,3473.4,706.0,921.1,1839.1,1245.3,1183.2,793.5,12.0,8.0,-3.0,10581.0,-11479.0,4964.0,-278.0,32.0,-27.0,11.0,6.0,-3.0,4.0,8659.0,-13674.0,-171.0,2541.0,4.0,-6.0,-2.0,1.0
2022-05-06 14:35:55.457036-07:00,1143.6,708.5,1053.0,939.0,835.2,878.0,1826.5,1382.1,3474.6,3480.7,1246.2,870.5,1469.0,3478.3,1607.7,1522.7,3473.4,3474.6,330.5,620.5,943.2,1157.7,590.7,1859.6,3480.7,3473.4,707.7,920.3,1839.1,1245.3,1192.0,783.6,9.0,-15.0,11.0,10581.0,-11483.0,4954.0,-274.0,-8.0,5.0,-10.0,5.0,-13.0,0.0,8658.0,-13674.0,-172.0,2541.0,1.0,-8.0,2.0,1.0
2022-05-06 14:35:55.457930-07:00,1143.6,708.5,1061.7,934.7,835.2,878.0,1813.9,1381.2,3474.6,3480.7,1248.0,867.1,1469.0,3478.3,1612.4,1511.5,3467.4,3479.5,330.5,620.5,948.3,1155.0,590.7,1859.6,3472.2,3481.9,707.7,920.3,1824.6,1254.2,1192.0,783.6,7.0,12.0,4.0,10594.0,-11471.0,4954.0,-284.0,58.0,7.0,-2.0,0.0,2.0,5.0,8671.0,-13667.0,-170.0,2540.0,27.0,13.0,9.0,1.0
2022-05-06 14:35:55.486196-07:00,1147.1,706.9,1061.7,934.7,827.7,880.6,1813.9,1381.2,3472.2,3488.0,1248.0,867.1,1458.9,3471.0,1612.4,1511.5,3467.4,3479.5,331.3,624.6,948.3,1155.0,590.7,1840.1,3472.2,3481.9,704.4,915.2,1824.6,1254.2,1192.0,782.7,8.0,11.0,-8.0,10600.0,-11467.0,4952.0,-288.0,-14.0,-5.0,-19.0,3.0,0.0,-1.0,8675.0,-13665.0,-168.0,2536.0,-31.0,4.0,-12.0,1.0
2022-05-06 14:35:55.546050-07:00,1147.1,706.9,1055.6,939.0,827.7,880.6,1810.0,1363.9,3472.2,3488.0,1238.2,869.6,1458.9,3471.0,1613.4,1522.7,3477.1,3478.3,331.3,624.6,946.6,1153.3,590.7,1840.1,3473.4,3474.6,704.4,915.2,1824.6,1248.8,1192.0,782.7,10.0,-20.0,3.0,10592.0,-11482.0,4933.0,-285.0,-18.0,-42.0,-29.0,0.0,-14.0,-5.0,8665.0,-13671.0,-175.0,2533.0,0.0,-10.0,-4.0,1.0
2022-05-06 14:35:55.635463-07:00,1141.9,712.6,1054.8,939.0,826.9,876.4,1810.0,1363.9,3472.2,3473.4,1246.2,869.6,1470.9,3469.8,1613.4,1522.7,3477.1,3478.3,329.8,623.0,946.6,1158.6,587.5,1842.0,3473.4,3474.6,700.3,914.4,1824.6,1249.7,1192.9,791.9,9.0,9.0,6.0,10608.0,-11474.0,4915.0,-287.0,60.0,-42.0,-25.0,7.0,-3.0,13.0,8680.0,-13661.0,-176.0,2536.0,82.0,-6.0,-9.0,1.0
2022-05-06 14:35:55.636674-07:00,1141.9,712.6,1054.8,940.7,826.9,878.0,1813.9,1373.9,3472.2,3473.4,1246.2,866.3,1470.9,3479.5,1609.6,1515.3,3479.5,3480.7,341.4,623.0,944.9,1158.6,587.5,1842.0,3488.0,3479.5,695.4,914.4,1827.5,1249.7,1192.9,791.9,19.0,9.0,6.0,10626.0,-11465.0,4899.0,-282.0,18.0,-26.0,-3.0,8.0,5.0,-8.0,8705.0,-13646.0,-173.0,2535.0,17.0,10.0,-15.0,1.0
2022-05-06 14:35:55.695413-07:00,1141.9,709.3,1063.4,940.7,832.7,878.0,1813.9,1373.9,3472.2,3469.8,1242.6,866.3,1464.4,3479.5,1609.6,1515.3,3479.5,3480.7,341.4,620.5,944.9,1170.0,585.9,1825.5,3488.0,3479.5,695.4,913.5,1827.5,1248.0,1197.4,793.5,8.0,-6.0,7.0,10626.0,-11465.0,4897.0,-284.0,0.0,15.0,5.0,0.0,-13.0,-1.0,8706.0,-13646.0,-176.0,2529.0,-2.0,9.0,-8.0,1.0
2022-05-06 14:35:55.755352-07:00,1141.9,709.3,1063.4,940.7,832.7,872.1,1814.9,1376.6,3472.2,3469.8,1242.6,873.8,1464.4,3467.4,1596.4,1508.8,3473.4,3471.0,335.2,620.5,943.2,1170.0,585.9,1825.5,3478.3,3475.9,709.3,913.5,1820.7,1248.0,1197.4,793.5,5.0,-1.0,1.0,10628.0,-11461.0,4903.0,-293.0,10.0,5.0,-8.0,3.0,-11.0,4.0,8710.0,-13643.0,-176.0,2528.0,15.0,8.0,-6.0,1.0
2022-05-06 14:35:55.845525-07:00,1135.7,706.9,1057.3,940.7,817.7,872.1,1814.9,1376.6,3468.6,3478.3,1241.7,873.8,1465.4,3467.4,1596.4,1508.8,3473.4,3471.0,335.2,619.7,943.2,1151.5,581.8,1815.8,3478.3,3475.9,709.3,913.5,1820.7,1244.4,1177.0,785.2,13.0,-1.0,6.0,10627.0,-11465.0,4897.0,-292.0,-11.0,-4.0,6.0,7.0,-4.0,0.0,8711.0,-13643.0,-176.0,2528.0,-9.0,7.0,-3.0,1.0
2022-05-06 14:35:55.846949-07:00,1135.7,706.9,1057.3,950.9,817.7,871.3,1807.1,1368.5,3468.6,3478.3,1241.7,861.2,1465.4,3485.6,1609.6,1509.7,3472.2,3472.2,332.1,619.7,940.7,1151.5,581.8,1815.8,3473.4,3466.1,709.3,913.5,1818.7,1244.4,1177.0,785.2,8.0,2.0,7.0,10626.0,-11466.0,4896.0,-292.0,-3.0,6.0,7.0,1.0,-9.0,4.0,8708.0,-13645.0,-176.0,2526.0,-5.0,10.0,-3.0,1.0
2022-05-06 14:35:55.935319-07:00,1145.4,701.1,1053.9,939.8,819.4,871.3,1807.1,1368.5,3471.0,3474.6,1238.2,871.3,1458.9,3485.6,1609.6,1509.7,3472.2,3472.2,332.1,621.4,944.1,1155.0,587.5,1818.7,3473.4,3466.1,709.3,910.1,1824.6,1248.0,1170.9,795.2,8.0,2.0,0.0,10625.0,-11468.0,4892.0,-295.0,-21.0,-10.0,-21.0,4.0,-5.0,1.0,8706.0,-13647.0,-176.0,2526.0,-19.0,5.0,-9.0,1.0
2022-05-06 14:35:55.936510-07:00,1145.4,701.1,1053.9,939.8,826.0,874.7,1811.9,1370.3,3471.0,3474.6,1238.2,871.3,1463.5,3473.4,1599.3,1510.6,3478.3,3488.0,329.8,624.6,944.1,1155.0,587.5,1818.7,3473.4,3477.1,707.7,908.4,1824.6,1248.0,1170.9,795.2,14.0,-9.0,6.0,10624.0,-11475.0,4879.0,-297.0,20.0,-1.0,-19.0,7.0,-18.0,-3.0,8699.0,-13651.0,-178.0,2527.0,4.0,-10.0,-5.0,1.0
2022-05-06 14:35:55.995750-07:00,1142.7,701.9,1064.3,939.0,826.0,874.7,1811.9,1370.3,3467.4,3474.6,1240.8,867.9,1463.5,3473.4,1599.3,1510.6,3478.3,3488.0,329.8,624.6,947.5,1154.2,584.3,1818.7,3473.4,3477.1,707.7,908.4,1818.7,1246.2,1182.3,790.2,0.0,1.0,-2.0,10642.0,-11464.0,4865.0,-310.0,48.0,-39.0,-24.0,5.0,4.0,6.0,8718.0,-13639.0,-176.0,2527.0,72.0,-7.0,-8.0,1.0
2022-05-06 14:35:56.115494-07:00,1142.7,701.9,1064.3,939.0,828.5,876.4,1807.1,1378.5,3467.4,3474.6,1240.8,867.9,1458.9,3469.8,1604.0,1510.6,3483.2,3480.7,336.7,624.6,947.5,1154.2,584.3,1818.7,3474.6,3475.9,701.9,908.4,1818.7,1246.2,1182.3,790.2,7.0,-16.0,7.0,10647.0,-11462.0,4857.0,-302.0,11.0,-4.0,17.0,2.0,-14.0,-7.0,8725.0,-13634.0,-177.0,2530.0,16.0,-10.0,4.0,1.0
2022-05-06 14:35:56.175477-07:00,1143.6,693.8,1057.3,944.1,828.5,876.4,1807.1,1378.5,3468.6,3478.3,1236.4,867.9,1458.9,3469.8,1604.0,1510.6,3483.2,3480.7,336.7,624.6,942.4,1153.3,580.2,1810.0,3474.6,3475.9,701.9,908.4,1816.8,1254.2,1182.3,785.2,11.0,3.0,10.0,10648.0,-11459.0,4864.0,-298.0,-7.0,12.0,23.0,5.0,-12.0,8.0,8723.0,-13634.0,-172.0,2533.0,-16.0,-5.0,18.0,1.0
2022-05-06 14:35:56.177423-07:00,1136.6,693.8,1057.3,944.1,821.0,883.1,1811.9,1374.8,3471.0,3478.3,1236.4,867.9,1460.8,3460.1,1600.2,1505.1,3480.7,3475.9,329.0,620.5,942.4,1153.3,580.2,1822.6,3477.1,3477.1,702.8,903.4,1816.8,1254.2,1182.3,785.2,14.0,11.0,4.0,10644.0,-11462.0,4865.0,-296.0,-24.0,-1.0,-6.0,8.0,-2.0,3.0,8717.0,-13638.0,-171.0,2535.0,-32.0,1.0,4.0,1.0
2022-05-06 14:35:56.178875-07:00,1136.6,712.6,1053.9,946.6,821.0,883.1,1811.9,1369.4,3471.0,3474.6,1242.6,868.8,1460.8,3460.1,1600.2,1501.4,3474.6,3475.9,329.0,620.5,949.2,1152.4,584.3,1822.6,3477.1,3477.1,702.8,903.4,1815.8,1246.2,1191.2,785.2,12.0,29.0,6.0,10644.0,-11465.0,4859.0,-310.0,33.0,27.0,-51.0,9.0,17.0,17.0,8720.0,-13637.0,-174.0,2531.0,18.0,18.0,-29.0,1.0
2022-05-06 14:35:56.235883-07:00,1140.1,712.6,1053.9,946.6,817.7,877.2,1803.2,1369.4,3467.4,3474.6,1242.6,868.8,1463.5,3464.9,1603.0,1501.4,3474.6,3473.4,325.1,620.5,949.2,1152.4,584.3,1809.0,3477.1,3480.7,702.8,898.3,1815.8,1246.2,1191.2,788.6,19.0,18.0,13.0,10660.0,-11457.0,4839.0,-337.0,102.0,8.0,-64.0,6.0,21.0,6.0,8746.0,-13624.0,-183.0,2510.0,110.0,30.0,-68.0,1.0
2022-05-06 14:35:56.355923-07:00,1140.1,711.8,1057.3,952.6,817.7,877.2,1803.2,1371.2,3467.4,3463.7,1240.8,865.4,1463.5,3464.9,1603.0,1508.8,3479.5,3473.4,325.1,620.5,944.1,1158.6,578.6,1809.0,3475.9,3480.7,702.8,898.3,1817.8,1239.9,1181.5,788.6,6.0,20.0,-2.0,10688.0,-11440.0,4813.0,-387.0,113.0,18.0,-133.0,4.0,8.0,6.0,8785.0,-13605.0,-205.0,2472.0,96.0,49.0,-127.0,1.0
2022-05-06 14:35:56.356961-07:00,1136.6,711.8,1057.3,952.6,828.5,878.9,1799.4,1371.2,3469.8,3463.7,1240.8,865.4,1463.5,3472.2,1593.6,1508.8,3479.5,3472.2,332.1,618.9,944.1,1158.6,578.6,1807.1,3475.9,3477.1,706.0,907.6,1817.8,1239.9,1181.5,791.9,20.0,-18.0,-2.0,10716.0,-11423.0,4787.0,-445.0,105.0,66.0,-110.0,11.0,-30.0,-13.0,8823.0,-13588.0,-238.0,2430.0,63.0,23.0,-127.0,1.0
2022-05-06 14:35:56.415472-07:00,1136.6,704.4,1053.9,953.4,828.5,878.9,1799.4,1367.6,3469.8,3472.2,1231.9,865.4,1463.5,3472.2,1593.6,1499.5,3488.0,3472.2,332.1,618.9,948.3,1157.7,580.2,1807.1,3478.3,3477.1,706.0,907.6,1814.9,1255.1,1190.3,791.9,-3.0,-17.0,7.0,10728.0,-11422.0,4758.0,-500.0,11.0,-13.0,-138.0,3.0,-23.0,15.0,8842.0,-13581.0,-274.0,2395.0,-6.0,26.0,-105.0,1.0
2022-05-06 14:35:56.445556-07:00,1140.1,706.0,1053.9,953.4,824.4,873.0,1798.4,1367.6,3468.6,3471.0,1231.9,865.4,1456.2,3478.3,1591.7,1499.5,3488.0,3478.3,328.2,618.9,948.3,1157.7,585.9,1812.9,3478.3,3478.3,701.9,902.5,1814.9,1255.1,1193.8,791.9,17.0,-3.0,21.0,10725.0,-11442.0,4713.0,-518.0,-41.0,-19.0,-102.0,11.0,-10.0,1.0,8840.0,-13588.0,-301.0,2360.0,-44.0,44.0,-89.0,1.0
2022-05-06 14:35:56.475430-07:00,1140.1,706.0,1056.5,944.9,824.4,873.0,1802.3,1366.6,3468.6,3471.0,1231.9,868.8,1456.2,3478.3,1597.4,1493.0,3473.4,3479.5,328.2,618.9,947.5,1157.7,585.9,1812.9,3474.6,3485.6,701.9,902.5,1815.8,1248.0,1193.8,791.9,12.0,10.0,23.0,10710.0,-11469.0,4678.0,-554.0,-64.0,29.0,-142.0,4.0,-11.0,15.0,8830.0,-13601.0,-325.0,2315.0,-51.0,70.0,-98.0,1.0
2022-05-06 14:35:56.685376-07:00,1138.4,712.6,1056.5,944.9,822.7,878.0,1802.3,1366.6,3464.9,3467.4,1231.9,868.8,1460.8,3464.9,1597.4,1493.0,3473.4,3479.5,325.9,626.2,947.5,1157.7,589.1,1824.6,3474.6,3485.6,695.4,902.5,1815.8,1248.0,1191.2,795.2,6.0,8.0,5.0,10703.0,-11488.0,4640.0,-613.0,12.0,63.0,-173.0,-4.0,4.0,-2.0,8836.0,-13606.0,-349.0,2265.0,-14.0,68.0,-117.0,1.0
2022-05-06 14:35:56.686722-07:00,1138.4,712.6,1056.5,942.4,822.7,878.0,1807.1,1367.6,3464.9,3467.4,1230.2,864.6,1460.8,3464.9,1579.6,1494.0,3467.4,3474.6,325.9,626.2,949.2,1154.2,589.1,1824.6,3473.4,3467.4,695.4,902.5,1833.3,1251.5,1191.2,795.2,-1.0,-11.0,-12.0,10696.0,-11498.0,4619.0,-694.0,32.0,100.0,-145.0,-2.0,-19.0,-5.0,8838.0,-13612.0,-375.0,2214.0,-2.0,54.0,-113.0,1.0
2022-05-06 14:35:56.687675-07:00,1134.9,706.0,1056.5,942.4,825.2,871.3,1807.1,1367.6,3471.0,3474.6,1230.2,864.6,1461.7,3474.6,1579.6,1494.0,3467.4,3474.6,329.8,621.4,949.2,1154.2,580.2,1791.6,3473.4,3467.4,707.7,901.7,1833.3,1251.5,1190.3,782.7,6.0,-13.0,-19.0,10682.0,-11518.0,4592.0,-753.0,-31.0,42.0,-141.0,-1.0,-11.0,-21.0,8833.0,-13621.0,-401.0,2172.0,-63.0,42.0,-90.0,1.0
2022-05-06 14:35:56.689170-07:00,1134.9,706.0,1050.4,940.7,825.2,872.1,1794.5,1375.7,3471.0,3474.6,1229.3,863.7,1461.7,3474.6,1580.5,1484.7,3480.7,3478.3,329.8,621.4,940.7,1157.7,580.2,1791.6,3478.3,3473.4,703.6,901.7,1816.8,1249.7,1190.3,782.7,4.0,-2.0,-18.0,10653.0,-11561.0,4547.0,-788.0,-101.0,-41.0,-174.0,9.0,-19.0,-1.0,8802.0,-13645.0,-434.0,2144.0,-102.0,5.0,-83.0,1.0
2022-05-06 14:35:56.775361-07:00,1125.2,707.7,1048.7,940.7,824.4,872.1,1794.5,1375.7,3474.6,3477.1,1231.0,863.7,1461.7,3474.6,1580.5,1484.7,3480.7,3478.3,329.8,624.6,940.7,1153.3,581.8,1807.1,3478.3,3473.4,703.6,900.8,1816.8,1253.3,1186.7,792.7,21.0,3.0,6.0,10654.0,-11586.0,4476.0,-814.0,50.0,-54.0,-132.0,8.0,-1.0,-2.0,8809.0,-13642.0,-467.0,2125.0,43.0,-5.0,-91.0,1.0
2022-05-06 14:35:56.777199-07:00,1125.2,707.7,1048.7,941.5,824.4,873.0,1793.6,1372.1,3474.6,3477.1,1231.0,865.4,1461.7,3474.6,1571.1,1484.7,3483.2,3473.4,332.1,624.6,940.7,1153.3,581.8,1807.1,3488.0,3467.4,701.1,900.8,1807.1,1253.3,1186.7,792.7,0.0,1.0,2.0,10685.0,-11579.0,4411.0,-849.0,120.0,-77.0,-178.0,-3.0,-16.0,7.0,8843.0,-13621.0,-500.0,2107.0,116.0,-19.0,-96.0,1.0
2022-05-06 14:35:56.835433-07:00,1143.6,706.9,1053.0,941.5,818.5,873.0,1793.6,1372.1,3480.7,3472.2,1223.9,865.4,1449.7,3474.6,1571.1,1484.7,3483.2,3473.4,332.1,615.7,940.7,1157.7,581.0,1797.4,3488.0,3467.4,701.1,900.8,1807.1,1248.8,1183.2,788.6,22.0,26.0,9.0,10739.0,-11564.0,4313.0,-892.0,147.0,-104.0,-226.0,8.0,16.0,0.0,8893.0,-13590.0,-532.0,2089.0,97.0,0.0,-110.0,1.0
2022-05-06 14:35:56.986011-07:00,1143.6,706.9,1053.0,944.1,818.5,864.6,1800.3,1371.2,3480.7,3472.2,1223.9,865.4,1449.7,3473.4,1551.5,1488.4,3475.9,3467.4,325.1,615.7,944.9,1157.7,581.0,1797.4,3477.1,3478.3,706.9,900.8,1809.0,1248.8,1183.2,788.6,-24.0,-164.0,31.0,10751.0,-11571.0,4254.0,-921.0,-172.0,-24.0,-43.0,4.0,-219.0,-14.0,8878.0,-13602.0,-564.0,2068.0,-383.0,36.0,30.0,1.0
2022-05-06 14:35:56.987023-07:00,1130.5,706.0,1048.7,939.8,827.7,864.6,1800.3,1371.2,3469.8,3469.8,1228.4,857.9,1458.9,3473.4,1551.5,1488.4,3475.9,3467.4,325.1,621.4,947.5,1157.7,583.5,1811.9,3477.1,3478.3,706.9,899.1,1815.8,1239.9,1183.2,789.4,11.0,22.0,26.0,10740.0,-11597.0,4210.0,-938.0,-87.0,-30.0,-119.0,19.0,12.0,21.0,8870.0,-13608.0,-583.0,2059.0,-133.0,10.0,-17.0,1.0
2022-05-06 14:35:56.988087-07:00,1130.5,706.0,1048.7,939.8,825.2,876.4,1790.7,1371.2,3469.8,3469.8,1228.4,857.9,1461.7,3468.6,1559.0,1490.3,3488.0,3478.3,323.6,623.8,947.5,1157.7,583.5,1811.9,3477.1,3479.5,698.7,894.9,1815.8,1239.9,1183.2,789.4,23.0,-56.0,-6.0,10712.0,-11648.0,4137.0,-939.0,-101.0,-179.0,-147.0,25.0,-57.0,-27.0,8825.0,-13638.0,-598.0,2054.0,-214.0,-42.0,-5.0,1.0
2022-05-06 14:35:57.045462-07:00,1136.6,708.5,1042.6,939.0,825.2,876.4,1790.7,1371.2,3467.4,3483.2,1223.9,857.9,1461.7,3468.6,1559.0,1490.3,3488.0,3478.3,323.6,623.8,945.8,1155.9,583.5,1800.3,3477.1,3479.5,698.7,894.9,1814.9,1242.6,1179.7,784.4,27.0,16.0,20.0,10746.0,-11632.0,4091.0,-965.0,70.0,47.0,-66.0,4.0,20.0,2.0,8810.0,-13645.0,-608.0,2067.0,-44.0,-6.0,8.0,1.0
2022-05-06 14:35:57.195188-07:00,1136.6,708.5,1042.6,939.0,821.0,865.4,1829.4,1441.5,3467.4,3483.2,1223.9,857.9,1463.5,3467.4,1536.6,1483.8,3457.6,3478.3,330.5,617.3,945.8,1155.9,583.5,1800.3,3466.1,3480.7,703.6,892.4,1814.9,1242.6,1179.7,784.4,7.0,-31.0,11.0,10718.0,-11658.0,4084.0,-977.0,-33.0,-42.0,-53.0,5.0,-18.0,-5.0,8778.0,-13666.0,-610.0,2063.0,-14.0,-1.0,9.0,1.0
2022-05-06 14:35:57.255411-07:00,1147.1,707.7,1038.3,935.6,821.0,865.4,1829.4,1441.5,3478.3,3479.5,1221.3,858.7,1463.5,3467.4,1536.6,1483.8,3457.6,3478.3,330.5,617.3,944.1,1152.4,585.9,1787.8,3466.1,3480.7,703.6,892.4,1807.1,1228.4,1176.2,790.2,6.0,-3.0,5.0,10729.0,-11648.0,4077.0,-1004.0,47.0,94.0,-38.0,3.0,-6.0,-3.0,8780.0,-13665.0,-608.0,2065.0,-17.0,2.0,20.0,1.0
2022-05-06 14:35:57.315526-07:00,1147.1,707.7,1038.3,935.6,822.7,859.5,1850.8,1489.3,3478.3,3479.5,1221.3,858.7,1456.2,3469.8,1538.5,1476.4,3477.1,3475.9,320.5,620.5,944.1,1152.4,585.9,1787.8,3477.1,3475.9,699.5,889.8,1807.1,1228.4,1176.2,790.2,-13.0,-6.0,-11.0,10738.0,-11642.0,4067.0,-1026.0,7.0,-118.0,-65.0,4.0,-36.0,53.0,8788.0,-13659.0,-600.0,2067.0,5.0,22.0,27.0,1.0
2022-05-06 14:35:57.495177-07:00,1147.1,706.9,1028.0,931.3,822.7,859.5,1850.8,1531.0,3466.1,3488.0,1215.1,852.8,1456.2,3469.8,1538.5,1490.3,3475.9,3475.9,320.5,620.5,939.0,1156.8,584.3,1782.9,3478.3,3475.9,699.5,889.8,1807.1,1241.7,1174.4,793.5,23.0,9.0,28.0,10785.0,-11627.0,3997.0,-990.0,160.0,-107.0,-44.0,15.0,2.0,-3.0,8797.0,-13654.0,-569.0,2070.0,14.0,48.0,83.0,1.0
2022-05-06 14:35:57.496552-07:00,1174.4,706.9,1028.0,931.3,826.9,873.8,1868.4,1531.0,3479.5,3488.0,1215.1,852.8,1465.4,3474.6,1536.6,1490.3,3475.9,3478.3,332.1,621.4,939.0,1156.8,584.3,1798.4,3478.3,3481.9,706.0,892.4,1807.1,1241.7,1174.4,798.5,5.0,-5.0,8.0,10814.0,-11616.0,3947.0,-999.0,75.0,-113.0,-100.0,13.0,-6.0,24.0,8789.0,-13661.0,-529.0,2068.0,59.0,73.0,69.0,1.0
2022-05-06 14:35:57.497959-07:00,1174.4,703.6,1030.6,932.2,826.9,873.8,1868.4,1581.4,3479.5,3469.8,1216.0,858.7,1465.4,3474.6,1536.6,1486.6,3486.8,3478.3,332.1,621.4,942.4,1153.3,581.0,1798.4,3483.2,3481.9,706.0,892.4,1791.6,1254.2,1175.3,798.5,46.0,-43.0,84.0,10891.0,-11582.0,3831.0,-1004.0,468.0,-194.0,-317.0,22.0,-64.0,37.0,8762.0,-13682.0,-480.0,2060.0,-49.0,120.0,142.0,1.0
2022-05-06 14:35:57.499238-07:00,1223.9,703.6,1030.6,932.2,831.9,880.6,1911.5,1581.4,3489.2,3469.8,1216.0,858.7,1478.3,3480.7,1544.1,1486.6,3486.8,3473.4,329.8,617.3,942.4,1153.3,581.0,1785.8,3483.2,3471.0,706.0,888.2,1791.6,1254.2,1175.3,811.9,11.0,-54.0,119.0,11116.0,-11405.0,3663.0,-1176.0,773.0,38.0,-341.0,16.0,-59.0,89.0,8774.0,-13679.0,-395.0,2045.0,333.0,202.0,186.0,1.0
2022-05-06 14:35:57.500179-07:00,1223.9,707.7,1024.5,919.4,831.9,880.6,1911.5,1759.8,3489.2,3475.9,1229.3,847.0,1478.3,3480.7,1544.1,1484.7,3485.6,3473.4,329.8,617.3,938.1,1163.0,584.3,1785.8,3478.3,3471.0,706.0,888.2,1788.7,1263.1,1202.7,811.9,50.0,-84.0,99.0,11474.0,-11010.0,3641.0,-1515.0,1945.0,631.0,-406.0,-3.0,5.0,27.0,9100.0,-13472.0,-210.0,2016.0,1549.0,295.0,242.0,1.0
2022-05-06 14:35:57.645323-07:00,1206.2,701.9,1024.5,919.4,816.9,888.2,2176.9,1759.8,3478.3,3469.8,1229.3,847.0,1469.0,3469.8,1529.2,1484.7,3485.6,3479.5,331.3,619.7,938.1,1163.0,585.1,1854.7,3478.3,3477.1,698.7,881.4,1788.7,1263.1,1168.2,835.2,67.0,94.0,76.0,11830.0,-10516.0,3698.0,-2053.0,1194.0,1227.0,-396.0,-9.0,109.0,-110.0,9523.0,-13188.0,11.0,1955.0,587.0,451.0,158.0,1.0
2022-05-06 14:35:57.646319-07:00,1206.2,701.9,1024.5,919.4,816.9,888.2,2176.9,1759.8,3478.3,3469.8,1229.3,847.0,1469.0,3469.8,1529.2,1484.7,3485.6,3479.5,331.3,619.7,938.1,1163.0,585.1,1854.7,3478.3,3477.1,698.7,881.4,1788.7,1263.1,1168.2,835.2,67.0,94.0,76.0,11830.0,-10516.0,3698.0,-2053.0,1194.0,1227.0,-396.0,-9.0,109.0,-110.0,9523.0,-13188.0,11.0,1955.0,587.0,451.0,158.0,1.0
2022-05-06 14:35:57.647393-07:00,1177.9,719.2,1015.9,926.2,821.9,881.4,2111.8,1698.6,3467.4,3480.7,1256.0,852.0,1477.3,3468.6,1526.4,1464.4,3475.9,3478.3,329.8,620.5,944.1,1154.2,581.8,1820.7,3473.4,3480.7,691.3,878.0,1783.9,1218.6,1142.7,831.1,2.0,61.0,-244.0,11808.0,-9630.0,4896.0,-3507.0,221.0,2067.0,326.0,5.0,85.0,-61.0,9643.0,-13132.0,347.0,1695.0,-323.0,438.0,123.0,1.0
2022-05-06 14:35:57.648226-07:00,1177.9,719.2,1037.5,920.3,821.9,881.4,2160.5,1805.2,3467.4,3480.7,1246.2,889.0,1477.3,3468.6,1534.8,1458.0,3477.1,3478.3,329.8,620.5,951.7,1154.2,581.8,1820.7,3475.9,3474.6,691.3,878.0,1780.1,1200.9,1142.7,831.1,-18.0,-26.0,-162.0,11235.0,-9928.0,5574.0,-3545.0,-2007.0,995.0,168.0,-36.0,2.0,-12.0,9094.0,-13530.0,418.0,1579.0,-2338.0,359.0,86.0,1.0
2022-05-06 14:35:57.675338-07:00,1204.4,735.6,1037.5,920.3,840.3,875.5,2160.5,1805.2,3467.4,3472.2,1246.2,889.0,1493.0,3461.3,1534.8,1458.0,3477.1,3478.3,333.6,624.6,951.7,1154.2,662.7,1853.7,3475.9,3474.6,705.2,917.7,1780.1,1200.9,1146.3,820.2,-99.0,-118.0,0.0,10543.0,-10616.0,5934.0,-3060.0,-2530.0,-365.0,519.0,-9.0,-175.0,-60.0,8225.0,-14084.0,423.0,1497.0,-2166.0,299.0,28.0,1.0
2022-05-06 14:35:57.735299-07:00,1204.4,735.6,1032.3,920.3,840.3,875.5,2039.4,1717.7,3467.4,3472.2,1220.4,852.8,1493.0,3461.3,1501.4,1446.0,3478.3,3479.5,333.6,624.6,939.0,1155.0,662.7,1853.7,3483.2,3480.7,705.2,917.7,1761.8,1220.4,1146.3,820.2,29.0,113.0,-80.0,10282.0,-10839.0,6108.0,-2818.0,-708.0,47.0,287.0,23.0,32.0,41.0,7884.0,-14280.0,430.0,1473.0,-636.0,74.0,-5.0,1.0
2022-05-06 14:35:57.795122-07:00,1248.0,756.3,1015.9,920.3,834.4,864.6,2039.4,1717.7,3473.4,3474.6,1146.3,852.8,1468.1,3473.4,1501.4,1446.0,3478.3,3479.5,336.7,621.4,939.0,1155.9,683.1,1888.9,3483.2,3480.7,706.9,900.0,1761.8,1160.3,1105.1,818.5,23.0,-75.0,43.0,10039.0,-11089.0,6224.0,-2438.0,-1153.0,-363.0,489.0,-12.0,1.0,-52.0,7615.0,-14429.0,416.0,1443.0,-616.0,84.0,-34.0,1.0
2022-05-06 14:35:57.825901-07:00,1248.0,756.3,1015.9,919.4,834.4,854.5,1955.8,1613.4,3473.4,3474.6,1146.3,847.8,1468.1,3463.7,1410.3,1417.6,3477.1,3473.4,335.2,621.4,945.8,1155.9,683.1,1888.9,3490.5,3472.2,695.4,900.0,1772.3,1160.3,1105.1,818.5,39.0,-47.0,53.0,9849.0,-11197.0,6414.0,-2222.0,-427.0,189.0,444.0,20.0,-25.0,26.0,7407.0,-14538.0,399.0,1436.0,-401.0,3.0,19.0,1.0
2022-05-06 14:35:57.886094-07:00,1307.9,748.8,1000.5,919.4,827.7,854.5,1955.8,1613.4,3474.6,3480.7,1116.5,847.8,1464.4,3463.7,1410.3,1417.6,3477.1,3473.4,335.2,619.7,945.8,1163.0,679.1,1908.5,3490.5,3472.2,695.4,806.9,1772.3,1123.5,1053.0,813.5,-4.0,12.0,18.0,9764.0,-11214.0,6564.0,-2064.0,-317.0,-105.0,339.0,9.0,-16.0,-2.0,7325.0,-14579.0,410.0,1439.0,-66.0,27.0,46.0,1.0
2022-05-06 14:35:57.945235-07:00,1307.9,748.8,1000.5,905.9,827.7,841.1,1901.6,1573.9,3474.6,3480.7,1116.5,841.1,1464.4,3478.3,1360.3,1391.2,3474.6,3478.3,329.8,619.7,946.6,1163.0,679.1,1908.5,3480.7,3469.8,688.9,806.9,1761.8,1123.5,1053.0,813.5,34.0,10.0,41.0,9682.0,-11259.0,6640.0,-1962.0,-304.0,99.0,127.0,6.0,-10.0,-5.0,7257.0,-14613.0,423.0,1438.0,-266.0,36.0,32.0,1.0
2022-05-06 14:35:57.975451-07:00,1311.5,755.4,993.6,905.9,837.7,841.1,1901.6,1573.9,3471.0,3462.5,1106.0,841.1,1464.4,3478.3,1360.3,1391.2,3474.6,3478.3,329.8,631.1,946.6,1152.4,675.8,1901.6,3480.7,3469.8,688.9,769.5,1761.8,1113.0,1010.8,810.2,-14.0,26.0,20.0,9645.0,-11245.0,6705.0,-2005.0,87.0,173.0,31.0,11.0,5.0,32.0,7215.0,-14634.0,440.0,1427.0,45.0,61.0,25.0,1.0
2022-05-06 14:35:58.035416-07:00,1311.5,755.4,993.6,903.4,839.4,829.4,1867.4,1542.2,3471.0,3462.5,1106.0,834.4,1467.2,3473.4,1349.4,1368.5,3474.6,3469.8,336.7,620.5,944.1,1152.4,675.8,1901.6,3475.9,3480.7,695.4,752.9,1749.3,1113.0,1010.8,810.2,38.0,-9.0,9.0,9652.0,-11232.0,6708.0,-2032.0,42.0,83.0,-82.0,15.0,5.0,-30.0,7224.0,-14632.0,465.0,1398.0,-23.0,69.0,14.0,1.0
2022-05-06 14:35:58.095216-07:00,1308.8,747.2,991.0,901.7,839.4,829.4,1867.4,1542.2,3467.4,3474.6,1103.4,836.9,1467.2,3473.4,1349.4,1368.5,3474.6,3469.8,336.7,620.5,945.8,1157.7,670.1,1884.0,3475.9,3480.7,695.4,752.9,1747.3,1098.2,1033.2,807.7,-1.0,-36.0,-12.0,9619.0,-11227.0,6741.0,-2106.0,-15.0,179.0,-4.0,14.0,-31.0,-2.0,7191.0,-14649.0,479.0,1377.0,-56.0,50.0,29.0,1.0
2022-05-06 14:35:58.125406-07:00,1308.8,747.2,991.0,901.7,838.6,820.2,1852.8,1516.2,3467.4,3474.6,1103.4,836.9,1458.9,3467.4,1338.6,1357.6,3467.4,3480.7,332.9,624.6,945.8,1157.7,670.1,1884.0,3473.4,3483.2,684.8,745.5,1747.3,1098.2,1033.2,807.7,14.0,0.0,-5.0,9618.0,-11206.0,6772.0,-2123.0,44.0,22.0,53.0,7.0,12.0,-15.0,7200.0,-14644.0,502.0,1377.0,59.0,-2.0,52.0,1.0
2022-05-06 14:35:58.185307-07:00,1309.7,740.6,984.2,900.0,838.6,820.2,1852.8,1516.2,3471.0,3475.9,1091.2,838.6,1458.9,3467.4,1338.6,1357.6,3467.4,3480.7,332.9,624.6,942.4,1154.2,670.1,1896.7,3473.4,3483.2,684.8,745.5,1749.3,1081.6,1014.2,804.4,0.0,-4.0,18.0,9602.0,-11195.0,6808.0,-2138.0,19.0,92.0,30.0,7.0,-15.0,18.0,7194.0,-14646.0,517.0,1381.0,-10.0,11.0,38.0,1.0
2022-05-06 14:35:58.245509-07:00,1309.7,740.6,984.2,900.0,831.1,821.9,1825.5,1493.0,3471.0,3475.9,1091.2,838.6,1457.1,3471.0,1327.8,1344.0,3475.9,3475.9,329.8,623.0,942.4,1154.2,670.1,1896.7,3477.1,3483.2,679.1,738.1,1749.3,1081.6,1014.2,804.4,21.0,-7.0,1.0,9593.0,-11203.0,6810.0,-2131.0,-73.0,-13.0,4.0,3.0,4.0,-18.0,7186.0,-14650.0,531.0,1379.0,-47.0,18.0,29.0,1.0
2022-05-06 14:35:58.275308-07:00,1296.3,741.4,979.9,896.6,831.1,821.9,1825.5,1493.0,3474.6,3464.9,1092.1,838.6,1457.1,3471.0,1327.8,1344.0,3475.9,3475.9,329.8,623.0,950.0,1149.8,659.5,1872.3,3477.1,3483.2,679.1,738.1,1745.4,1088.6,1009.9,801.0,4.0,1.0,-5.0,9590.0,-11199.0,6819.0,-2131.0,53.0,3.0,26.0,10.0,-3.0,2.0,7182.0,-14651.0,540.0,1380.0,46.0,2.0,16.0,1.0
2022-05-06 14:35:58.335918-07:00,1285.5,741.4,979.9,896.6,832.7,812.7,1804.2,1469.0,3466.1,3464.9,1092.1,838.6,1449.7,3472.2,1328.7,1335.0,3471.0,3478.3,333.6,622.2,950.0,1149.8,659.5,1875.2,3468.6,3474.6,675.8,728.2,1745.4,1088.6,1009.9,801.9,13.0,16.0,-2.0,9613.0,-11194.0,6800.0,-2119.0,40.0,-94.0,-32.0,11.0,7.0,-3.0,7198.0,-14643.0,542.0,1381.0,30.0,-10.0,-3.0,1.0
2022-05-06 14:35:58.395570-07:00,1285.5,738.9,979.9,890.7,832.7,812.7,1804.2,1465.4,3466.1,3478.3,1097.3,831.1,1449.7,3472.2,1328.7,1337.7,3474.6,3478.3,333.6,622.2,940.7,1155.0,657.0,1875.2,3480.7,3474.6,675.8,728.2,1720.5,1076.4,1004.8,801.9,14.0,-17.0,14.0,9624.0,-11210.0,6761.0,-2106.0,-17.0,-78.0,-52.0,8.0,-10.0,2.0,7195.0,-14645.0,535.0,1380.0,-13.0,-2.0,-18.0,1.0
2022-05-06 14:35:58.424973-07:00,1281.0,738.9,979.9,890.7,838.6,817.7,1795.5,1465.4,3467.4,3478.3,1097.3,831.1,1441.5,3469.8,1325.0,1337.7,3474.6,3474.6,333.6,617.3,940.7,1155.0,657.0,1873.2,3480.7,3467.4,672.5,732.3,1720.5,1076.4,1004.8,797.7,-5.0,-15.0,24.0,9666.0,-11192.0,6727.0,-2119.0,226.0,-48.0,-39.0,2.0,-16.0,13.0,7227.0,-14630.0,535.0,1378.0,139.0,-11.0,6.0,1.0
2022-05-06 14:35:58.485347-07:00,1281.0,742.2,979.9,898.3,838.6,817.7,1795.5,1458.0,3467.4,3464.9,1090.3,835.2,1441.5,3469.8,1325.0,1335.9,3488.0,3474.6,333.6,617.3,943.2,1155.9,649.7,1873.2,3483.2,3467.4,672.5,732.3,1730.1,1079.0,1004.8,797.7,14.0,0.0,-5.0,9703.0,-11180.0,6693.0,-2122.0,-78.0,-67.0,-20.0,13.0,0.0,-16.0,7253.0,-14616.0,536.0,1377.0,-72.0,8.0,-9.0,1.0
2022-05-06 14:35:58.665081-07:00,1277.4,742.2,979.9,898.3,831.9,809.4,1803.2,1458.0,3472.2,3464.9,1090.3,835.2,1447.0,3468.6,1325.0,1335.9,3488.0,3473.4,330.5,618.9,943.2,1155.9,649.7,1868.4,3483.2,3467.4,675.0,733.2,1730.1,1079.0,1004.8,801.9,6.0,-16.0,28.0,9697.0,-11188.0,6692.0,-2109.0,87.0,21.0,37.0,7.0,-17.0,16.0,7246.0,-14620.0,535.0,1376.0,75.0,-9.0,14.0,1.0
2022-05-06 14:35:58.695423-07:00,1277.4,733.2,987.6,895.7,831.9,809.4,1776.2,1446.0,3472.2,3468.6,1084.2,828.5,1447.0,3468.6,1323.2,1333.2,3473.4,3479.5,330.5,618.9,942.4,1149.8,657.0,1868.4,3478.3,3477.1,675.0,733.2,1745.4,1077.3,1003.0,801.9,3.0,10.0,0.0,9715.0,-11170.0,6693.0,-2118.0,-30.0,-9.0,-3.0,6.0,5.0,-6.0,7264.0,-14611.0,539.0,1375.0,-26.0,10.0,2.0,1.0
2022-05-06 14:35:58.696740-07:00,1275.6,731.5,987.6,895.7,828.5,807.7,1776.2,1446.0,3468.6,3472.2,1084.2,828.5,1448.8,3473.4,1323.2,1333.2,3473.4,3479.5,329.8,623.0,942.4,1149.8,653.8,1844.0,3478.3,3477.1,675.8,724.9,1745.4,1077.3,997.9,796.9,10.0,-20.0,15.0,9693.0,-11187.0,6700.0,-2106.0,-36.0,26.0,31.0,9.0,-8.0,2.0,7241.0,-14623.0,537.0,1376.0,-33.0,4.0,13.0,1.0
2022-05-06 14:35:58.697685-07:00,1275.6,731.5,979.0,899.1,828.5,807.7,1768.5,1436.9,3468.6,3472.2,1085.1,832.7,1448.8,3473.4,1322.3,1325.0,3475.9,3480.7,329.8,623.0,946.6,1156.8,653.8,1844.0,3478.3,3474.6,675.8,724.9,1735.8,1070.3,997.9,796.9,1.0,13.0,5.0,9704.0,-11173.0,6708.0,-2109.0,36.0,-7.0,-5.0,3.0,-1.0,1.0,7257.0,-14615.0,541.0,1376.0,31.0,-4.0,0.0,1.0
2022-05-06 14:35:58.725427-07:00,1266.7,733.2,979.0,899.1,823.5,813.5,1768.5,1436.9,3474.6,3469.8,1085.1,832.7,1448.8,3468.6,1322.3,1325.0,3475.9,3480.7,325.1,631.9,946.6,1156.8,653.8,1858.6,3478.3,3474.6,671.7,727.4,1735.8,1070.3,992.7,803.5,16.0,-5.0,0.0,9694.0,-11194.0,6689.0,-2100.0,-81.0,-27.0,-37.0,5.0,0.0,-3.0,7247.0,-14620.0,537.0,1374.0,-66.0,-11.0,-13.0,1.0
2022-05-06 14:35:58.875946-07:00,1266.7,733.2,991.0,899.1,823.5,813.5,1772.3,1435.0,3474.6,3469.8,1078.2,824.4,1448.8,3468.6,1320.5,1320.5,3467.4,3475.9,325.1,631.9,947.5,1155.9,653.8,1858.6,3478.3,3475.9,671.7,727.4,1735.8,1073.8,992.7,803.5,3.0,-5.0,12.0,9697.0,-11193.0,6688.0,-2095.0,53.0,-29.0,20.0,8.0,-13.0,6.0,7240.0,-14623.0,531.0,1378.0,44.0,-16.0,5.0,1.0
2022-05-06 14:35:58.876989-07:00,1264.0,735.6,977.3,899.1,828.5,801.0,1772.3,1435.0,3467.4,3464.9,1081.6,824.4,1448.8,3468.6,1320.5,1320.5,3467.4,3475.9,323.6,618.9,947.5,1146.3,648.1,1848.9,3478.3,3475.9,667.6,725.8,1735.8,1066.0,994.5,800.2,17.0,5.0,9.0,9702.0,-11199.0,6673.0,-2089.0,-49.0,-13.0,-39.0,7.0,0.0,0.0,7248.0,-14619.0,528.0,1380.0,-42.0,-5.0,-13.0,1.0
2022-05-06 14:35:58.935417-07:00,1264.0,735.6,977.3,895.7,828.5,806.0,1760.8,1425.0,3467.4,3464.9,1081.6,831.1,1448.8,3477.1,1312.4,1309.7,3468.6,3471.0,327.5,618.9,943.2,1146.3,648.1,1848.9,3468.6,3488.0,666.0,725.8,1729.1,1066.0,994.5,800.2,3.0,-20.0,4.0,9708.0,-11196.0,6667.0,-2094.0,76.0,-25.0,-5.0,8.0,-6.0,-1.0,7246.0,-14620.0,524.0,1379.0,80.0,-20.0,-3.0,1.0
2022-05-06 14:35:58.936679-07:00,1264.9,732.3,973.1,895.7,826.9,806.0,1760.8,1425.0,3475.9,3473.4,1076.4,831.1,1440.5,3477.1,1312.4,1309.7,3468.6,3471.0,327.5,616.5,943.2,1152.4,648.1,1850.8,3468.6,3488.0,666.0,725.8,1729.1,1064.3,991.0,800.2,10.0,0.0,12.0,9723.0,-11193.0,6653.0,-2086.0,9.0,-44.0,-16.0,7.0,-1.0,1.0,7265.0,-14611.0,522.0,1384.0,22.0,-10.0,-6.0,1.0
2022-05-06 14:35:59.025362-07:00,1264.9,732.3,973.1,900.0,826.9,800.2,1751.2,1426.8,3475.9,3473.4,1076.4,838.6,1440.5,3478.3,1314.2,1322.3,3488.0,3467.4,326.7,616.5,944.9,1152.4,648.1,1850.8,3474.6,3473.4,668.4,725.8,1734.9,1064.3,991.0,800.2,4.0,-1.0,8.0,9717.0,-11201.0,6650.0,-2083.0,-58.0,16.0,3.0,7.0,-14.0,5.0,7265.0,-14610.0,521.0,1385.0,-48.0,12.0,-2.0,1.0
2022-05-06 14:35:59.055747-07:00,1259.6,732.3,981.6,900.0,828.5,800.2,1751.2,1426.8,3483.2,3468.6,1080.8,838.6,1441.5,3478.3,1314.2,1322.3,3488.0,3467.4,326.7,615.7,944.9,1170.0,647.3,1849.8,3474.6,3473.4,668.4,720.8,1734.9,1066.9,986.7,792.7,7.0,12.0,2.0,9717.0,-11198.0,6653.0,-2091.0,29.0,7.0,3.0,6.0,4.0,5.0,7263.0,-14612.0,521.0,1384.0,29.0,3.0,8.0,1.0
2022-05-06 14:35:59.115323-07:00,1259.6,732.3,981.6,898.3,828.5,798.5,1745.4,1415.8,3483.2,3468.6,1080.8,831.9,1441.5,3472.2,1312.4,1317.8,3474.6,3464.9,323.6,615.7,944.9,1170.0,647.3,1849.8,3480.7,3474.6,669.3,720.8,1732.0,1066.9,986.7,792.7,4.0,-8.0,6.0,9696.0,-11212.0,6661.0,-2086.0,-67.0,25.0,8.0,6.0,-8.0,2.0,7250.0,-14618.0,520.0,1382.0,-56.0,5.0,7.0,1.0
2022-05-06 14:35:59.175390-07:00,1269.4,729.0,980.7,896.6,839.4,798.5,1745.4,1415.8,3477.1,3488.0,1069.5,831.9,1440.5,3472.2,1312.4,1317.8,3474.6,3464.9,323.6,625.4,940.7,1148.0,644.9,1840.1,3480.7,3474.6,669.3,725.8,1727.2,1064.3,984.2,791.0,4.0,1.0,9.0,9694.0,-11212.0,6663.0,-2088.0,48.0,-11.0,-12.0,6.0,-8.0,3.0,7244.0,-14621.0,520.0,1382.0,36.0,-7.0,3.0,1.0
2022-05-06 14:35:59.176710-07:00,1269.4,729.0,980.7,896.6,827.7,799.4,1748.3,1409.4,3477.1,3488.0,1069.5,831.9,1435.0,3468.6,1306.1,1313.3,3478.3,3472.2,325.9,619.7,940.7,1148.0,644.9,1840.1,3472.2,3478.3,670.1,720.8,1727.2,1064.3,984.2,791.0,9.0,-9.0,2.0,9691.0,-11221.0,6653.0,-2084.0,-106.0,-2.0,-2.0,1.0,-12.0,-8.0,7247.0,-14620.0,518.0,1380.0,-80.0,5.0,-11.0,1.0
2022-05-06 14:35:59.235450-07:00,1259.6,731.5,980.7,900.8,827.7,799.4,1748.3,1409.4,3464.9,3474.6,1074.7,826.9,1435.0,3468.6,1306.1,1313.3,3478.3,3472.2,325.9,619.7,946.6,1152.4,640.0,1834.3,3472.2,3478.3,670.1,720.8,1729.1,1063.4,986.7,794.4,-3.0,-3.0,-2.0,9689.0,-11229.0,6649.0,-2065.0,-19.0,-92.0,24.0,6.0,-15.0,22.0,7237.0,-14625.0,516.0,1380.0,-33.0,1.0,8.0,1.0
2022-05-06 14:35:59.265416-07:00,1259.6,731.5,980.7,900.8,830.2,805.2,1741.6,1403.0,3464.9,3474.6,1074.7,826.9,1445.1,3460.1,1310.6,1311.5,3473.4,3481.9,328.2,614.9,946.6,1152.4,640.0,1834.3,3463.7,3467.4,666.8,737.3,1729.1,1063.4,986.7,794.4,-67.0,-41.0,-23.0,9717.0,-11291.0,6546.0,-1915.0,-281.0,-817.0,-80.0,7.0,-73.0,34.0,7215.0,-14635.0,525.0,1382.0,-90.0,25.0,81.0,1.0
2022-05-06 14:35:59.326292-07:00,1252.4,730.7,978.2,894.9,830.2,805.2,1741.6,1403.0,3468.6,3471.0,1088.6,836.9,1445.1,3460.1,1310.6,1311.5,3473.4,3481.9,328.2,614.9,942.4,1155.0,648.1,1836.2,3463.7,3467.4,666.8,737.3,1717.7,1063.4,985.0,781.1,48.0,-146.0,98.0,10051.0,-11277.0,6129.0,-1634.0,1512.0,-1256.0,-112.0,42.0,-41.0,55.0,7317.0,-14580.0,579.0,1405.0,857.0,-61.0,147.0,1.0
2022-05-06 14:35:59.415364-07:00,1246.2,730.7,978.2,894.9,825.2,821.0,2225.0,1745.4,3464.9,3471.0,1088.6,836.9,1438.7,3469.8,1366.6,1339.5,3478.3,3477.1,329.8,613.3,942.4,1155.0,648.1,1854.7,3472.2,3481.9,663.6,916.9,1717.7,1063.4,985.0,804.4,-62.0,144.0,14.0,10568.0,-11032.0,5709.0,-1563.0,544.0,-1139.0,-451.0,-2.0,-16.0,41.0,7634.0,-14412.0,686.0,1406.0,426.0,143.0,184.0,1.0
2022-05-06 14:35:59.417789-07:00,1246.2,739.7,978.2,903.4,825.2,821.0,2225.0,1740.6,3464.9,3475.9,1306.1,863.7,1438.7,3469.8,1366.6,1460.8,3474.6,3477.1,329.8,613.3,941.5,1157.7,649.7,1854.7,3484.4,3481.9,663.6,916.9,1718.6,1086.0,991.0,804.4,56.0,-33.0,-14.0,10839.0,-11168.0,4936.0,-1364.0,695.0,-1923.0,-1222.0,-1.0,-58.0,47.0,7703.0,-14370.0,813.0,1390.0,327.0,116.0,272.0,1.0
2022-05-06 14:35:59.536080-07:00,1232.8,739.7,978.2,903.4,826.9,858.7,2270.3,1740.6,3474.6,3475.9,1306.1,863.7,1450.6,3480.7,1441.5,1460.8,3474.6,3472.2,326.7,619.7,941.5,1157.7,649.7,1872.3,3484.4,3469.8,679.9,1011.6,1718.6,1086.0,991.0,814.4,3.0,109.0,-133.0,11408.0,-11031.0,3903.0,-1179.0,934.0,-2491.0,-1067.0,18.0,103.0,-86.0,8112.0,-14134.0,983.0,1382.0,1263.0,144.0,240.0,1.0
2022-05-06 14:35:59.537101-07:00,1232.8,724.9,973.9,899.1,826.9,858.7,2270.3,1774.3,3474.6,3471.0,1343.1,851.1,1450.6,3480.7,1441.5,1533.8,3483.2,3472.2,326.7,619.7,950.9,1158.6,644.0,1872.3,3480.7,3469.8,679.9,1011.6,1719.6,1079.9,992.7,814.4,48.0,-40.0,-96.0,11733.0,-10998.0,3012.0,-859.0,394.0,-1398.0,-554.0,13.0,156.0,-279.0,8435.0,-13938.0,1068.0,1367.0,658.0,-101.0,26.0,1.0
2022-05-06 14:35:59.565521-07:00,1223.9,724.9,973.9,899.1,832.7,867.9,2265.2,1774.3,3472.2,3471.0,1343.1,851.1,1451.6,3467.4,1471.8,1533.8,3483.2,3467.4,344.5,624.6,950.9,1158.6,644.0,1856.7,3480.7,3478.3,708.5,970.5,1719.6,1079.9,992.7,812.7,-73.0,31.0,-108.0,11802.0,-10988.0,2788.0,-787.0,-188.0,-346.0,-94.0,-32.0,12.0,-46.0,8565.0,-13859.0,982.0,1427.0,201.0,-329.0,-174.0,1.0
2022-05-06 14:35:59.745486-07:00,1223.9,721.6,967.9,902.5,832.7,867.9,2265.2,1747.3,3472.2,3468.6,1348.5,849.5,1451.6,3467.4,1471.8,1518.0,3480.7,3467.4,344.5,624.6,971.3,1160.3,631.1,1856.7,3477.1,3478.3,708.5,970.5,1715.8,1075.6,988.5,812.7,27.0,8.0,0.0,11764.0,-11070.0,2644.0,-706.0,-126.0,-243.0,-67.0,18.0,43.0,-15.0,8629.0,-13821.0,815.0,1511.0,116.0,-432.0,-280.0,1.0
2022-05-06 14:35:59.748451-07:00,1216.8,711.8,967.9,902.5,826.0,867.1,2240.4,1747.3,3477.1,3462.5,1348.5,849.5,1452.5,3474.6,1443.3,1518.0,3480.7,3463.7,349.9,620.5,971.3,1160.3,623.0,1834.3,3477.1,3475.9,737.3,939.0,1715.8,1075.6,1001.3,806.9,48.0,84.0,93.0,11636.0,-11180.0,2719.0,-805.0,-565.0,773.0,-272.0,-5.0,3.0,9.0,8668.0,-13798.0,582.0,1610.0,-123.0,-515.0,-393.0,1.0
2022-05-06 14:35:59.749335-07:00,1216.8,711.8,971.3,899.1,826.0,867.1,2201.4,1692.9,3477.1,3462.5,1327.8,844.4,1452.5,3474.6,1483.8,1489.3,3480.7,3477.1,349.9,620.5,959.4,1156.8,623.0,1834.3,3472.2,3480.7,737.3,939.0,1718.6,1093.8,1001.3,806.9,-10.0,24.0,-47.0,11467.0,-11283.0,2916.0,-1069.0,-338.0,482.0,18.0,6.0,18.0,72.0,8679.0,-13793.0,343.0,1657.0,-25.0,-274.0,-390.0,1.0
2022-05-06 14:35:59.895128-07:00,1221.3,714.2,971.3,899.1,825.2,876.4,2201.4,1692.9,3473.4,3472.2,1327.8,844.4,1451.6,3474.6,1483.8,1489.3,3480.7,3477.1,350.6,623.0,959.4,1156.8,615.7,1835.2,3472.2,3480.7,749.6,963.7,1718.6,1093.8,1077.3,811.9,-9.0,-37.0,-2.0,11171.0,-11535.0,3066.0,-1094.0,-1155.0,317.0,-32.0,-14.0,-96.0,1.0,8516.0,-13898.0,146.0,1648.0,-729.0,-163.0,-324.0,1.0
2022-05-06 14:35:59.925879-07:00,1221.3,714.2,981.6,901.7,825.2,876.4,2127.0,1653.0,3473.4,3472.2,1320.5,857.9,1451.6,3474.6,1557.1,1496.7,3469.8,3478.3,350.6,623.0,958.5,1161.2,615.7,1835.2,3475.9,3478.3,749.6,963.7,1718.6,1174.4,1077.3,811.9,-9.0,-65.0,-1.0,10864.0,-11808.0,3148.0,-1030.0,-849.0,-59.0,232.0,10.0,-4.0,-4.0,8327.0,-14013.0,4.0,1649.0,-477.0,-124.0,-179.0,1.0
2022-05-06 14:35:59.926905-07:00,1234.6,714.2,981.6,901.7,824.4,894.1,2127.0,1653.0,3466.1,3473.4,1320.5,857.9,1470.9,3471.0,1557.1,1496.7,3469.8,3478.3,355.3,628.6,958.5,1161.2,608.4,1827.5,3475.9,3478.3,743.0,979.0,1718.6,1174.4,1179.7,806.0,27.0,-3.0,27.0,10576.0,-12057.0,3239.0,-855.0,-981.0,22.0,228.0,11.0,-2.0,-5.0,8102.0,-14143.0,-111.0,1656.0,-669.0,-115.0,-161.0,1.0
2022-05-06 14:35:59.928488-07:00,1234.6,714.2,987.6,916.0,824.4,902.5,2081.6,1612.4,3466.1,3473.4,1306.1,867.1,1470.9,3467.4,1604.9,1484.7,3469.8,3477.1,349.9,628.6,956.8,1154.2,608.4,1827.5,3467.4,3485.6,739.7,979.0,1713.8,1267.6,1179.7,806.0,19.0,-21.0,37.0,10365.0,-12230.0,3302.0,-721.0,-422.0,-150.0,160.0,7.0,-35.0,32.0,7964.0,-14220.0,-204.0,1663.0,-141.0,-91.0,-135.0,1.0
2022-05-06 14:36:00.045375-07:00,1207.1,713.4,994.5,916.0,824.4,902.5,2081.6,1612.4,3481.9,3477.1,1299.0,867.1,1468.1,3467.4,1604.9,1484.7,3469.8,3477.1,349.9,635.1,956.8,1156.8,600.4,1828.4,3467.4,3485.6,739.7,975.6,1713.8,1314.2,1298.1,809.4,26.0,33.0,37.0,10317.0,-12261.0,3352.0,-667.0,-179.0,139.0,169.0,16.0,20.0,-21.0,8019.0,-14187.0,-278.0,1668.0,81.0,-109.0,-160.0,1.0
2022-05-06 14:36:00.046684-07:00,1207.1,713.4,994.5,915.2,824.4,891.5,2054.4,1585.2,3481.9,3477.1,1299.0,885.6,1468.1,3474.6,1644.5,1485.6,3473.4,3485.6,349.1,635.1,956.8,1156.8,600.4,1828.4,3479.5,3479.5,731.5,975.6,1717.7,1314.2,1298.1,809.4,4.0,-12.0,35.0,10217.0,-12298.0,3498.0,-749.0,-175.0,596.0,90.0,-4.0,-4.0,2.0,8064.0,-14159.0,-355.0,1677.0,37.0,-84.0,-130.0,1.0
2022-05-06 14:36:00.075457-07:00,1197.4,722.5,1020.2,915.2,825.2,891.5,2054.4,1585.2,3477.1,3469.8,1274.7,885.6,1454.3,3474.6,1644.5,1485.6,3473.4,3485.6,349.1,624.6,956.8,1157.7,597.9,1866.4,3479.5,3479.5,731.5,955.1,1717.7,1304.3,1277.4,814.4,-3.0,-73.0,17.0,10233.0,-12255.0,3586.0,-818.0,310.0,53.0,139.0,13.0,-3.0,-29.0,8175.0,-14092.0,-393.0,1695.0,460.0,-90.0,-55.0,1.0
2022-05-06 14:36:00.136159-07:00,1197.4,722.5,1020.2,922.8,825.2,885.6,2043.4,1551.5,3477.1,3469.8,1274.7,887.3,1454.3,3468.6,1668.2,1530.1,3477.1,3472.2,339.8,624.6,955.1,1157.7,597.9,1866.4,3488.0,3473.4,734.0,955.1,1724.4,1304.3,1277.4,814.4,31.0,73.0,55.0,10256.0,-12182.0,3753.0,-875.0,-80.0,549.0,189.0,3.0,39.0,-20.0,8287.0,-14021.0,-419.0,1731.0,129.0,-104.0,-54.0,1.0
2022-05-06 14:36:00.165333-07:00,1191.2,720.8,1072.9,968.8,829.4,885.6,2043.4,1551.5,3473.4,3469.8,1267.6,887.3,1458.0,3468.6,1668.2,1530.1,3477.1,3472.2,339.8,630.3,949.2,1151.5,596.3,1870.3,3488.0,3473.4,734.0,951.7,1817.8,1303.4,1260.4,810.2,21.0,-4.0,-10.0,10234.0,-12139.0,3918.0,-996.0,185.0,317.0,76.0,25.0,-18.0,1.0,8400.0,-13950.0,-443.0,1759.0,337.0,-104.0,-61.0,1.0
2022-05-06 14:36:00.285362-07:00,1191.2,720.8,1072.9,968.8,821.0,876.4,2038.4,1546.9,3473.4,3469.8,1267.6,887.3,1466.3,3472.2,1698.6,1565.5,3479.5,3483.2,342.1,635.9,949.2,1151.5,596.3,1870.3,3488.0,3488.0,724.9,960.2,1817.8,1303.4,1260.4,810.2,9.0,-22.0,0.0,10252.0,-12081.0,4029.0,-1074.0,184.0,270.0,133.0,6.0,-18.0,-6.0,8493.0,-13889.0,-466.0,1789.0,315.0,-101.0,-37.0,1.0
2022-05-06 14:36:00.286656-07:00,1170.9,708.5,1188.5,1026.3,821.0,876.4,2038.4,1546.9,3463.7,3478.3,1276.5,891.5,1466.3,3472.2,1698.6,1565.5,3479.5,3483.2,342.1,635.9,955.1,1162.1,595.5,1870.3,3488.0,3488.0,724.9,960.2,2007.4,1346.7,1252.4,810.2,13.0,3.0,29.0,10278.0,-12026.0,4120.0,-1096.0,32.0,86.0,153.0,5.0,-12.0,12.0,8567.0,-13839.0,-481.0,1815.0,139.0,-61.0,-8.0,1.0
