Time,P0,P1,P2,P3,P4,P5,P6,P7,P8,P9,P10,P11,P12,P13,P14,P15,P16,P17,P18,P19,P20,P21,P22,P23,P24,P25,P26,P27,P28,P29,P30,P31,ECG,AX0,AY0,AZ0,QW0,QX0,QY0,QZ0,GX0,GY0,GZ0,AX1,AY1,AZ1,QW1,QX1,QY1,QZ1,GX1,GY1,GZ1
2022-05-06 15:02:11.755941-07:00,1003.0,643.2,918.6,868.8,826.9,706.0,1488.4,1221.3,3477.1,3483.2,952.6,766.2,1551.5,3472.2,1134.0,1117.4,3485.6,3472.2,321.3,537.0,806.0,1052.2,454.5,1646.4,3478.3,3475.9,577.8,634.3,1548.7,894.9,812.7,772.0,0.0,9.0,20.0,771.0,1849.0,12872.0,-9936.0,-59.0,33.0,51.0,-5.0,-10.0,18.0,6786.0,-14049.0,4764.0,-1525.0,-68.0,-9.0,-1.0,1.0
2022-05-06 15:02:11.785624-07:00,1003.0,640.8,918.6,868.8,821.0,710.1,1488.4,1221.3,3480.7,3488.0,952.6,766.2,1553.4,3472.2,1134.0,1117.4,3485.6,3472.2,315.9,533.8,806.0,1052.2,456.9,1640.7,3478.3,3475.9,580.2,633.5,1548.7,894.9,816.0,767.8,1.0,25.0,1.0,769.0,1870.0,12894.0,-9904.0,-231.0,97.0,65.0,-10.0,35.0,5.0,6742.0,-14070.0,4768.0,-1518.0,-206.0,32.0,-31.0,1.0
2022-05-06 15:02:11.846292-07:00,1003.0,640.8,916.9,871.3,821.0,710.1,1476.4,1223.9,3480.7,3488.0,954.3,770.3,1553.4,3472.2,1141.0,1112.1,3472.2,3477.1,315.9,533.8,801.9,1053.0,456.9,1640.7,3467.4,3469.8,580.2,633.5,1545.9,891.5,816.0,767.8,-74.0,-7.0,65.0,752.0,1926.0,12964.0,-9802.0,-196.0,178.0,20.0,-78.0,-31.0,26.0,6630.0,-14117.0,4782.0,-1521.0,-207.0,135.0,4.0,1.0
2022-05-06 15:02:11.906207-07:00,1016.8,636.7,916.9,871.3,828.5,701.1,1476.4,1223.9,3473.4,3471.0,954.3,770.3,1559.9,3473.4,1141.0,1112.1,3472.2,3477.1,317.4,533.8,801.9,1053.0,451.4,1643.5,3467.4,3469.8,577.8,640.8,1545.9,891.5,816.9,784.4,-71.0,3.0,1.0,686.0,1999.0,12987.0,-9763.0,27.0,350.0,76.0,-93.0,0.0,-19.0,6588.0,-14106.0,4851.0,-1584.0,39.0,256.0,105.0,1.0
2022-05-06 15:02:11.935857-07:00,1016.8,636.7,920.3,873.8,828.5,701.1,1470.0,1223.0,3473.4,3471.0,950.9,767.0,1559.9,3473.4,1132.2,1114.7,3457.6,3480.7,317.4,533.8,806.0,1047.8,451.4,1643.5,3477.1,3478.3,577.8,640.8,1540.3,893.2,816.9,784.4,-56.0,-108.0,-20.0,591.0,2112.0,13011.0,-9713.0,52.0,222.0,57.0,-47.0,-100.0,-2.0,6527.0,-14100.0,4934.0,-1636.0,-16.0,145.0,88.0,1.0
2022-05-06 15:02:12.026085-07:00,1011.6,640.8,922.0,873.8,841.9,712.6,1470.0,1223.0,3471.0,3477.1,960.2,767.0,1554.3,3466.1,1132.2,1114.7,3457.6,3480.7,317.4,533.8,806.0,1056.5,452.2,1652.0,3477.1,3478.3,585.1,630.3,1540.3,892.4,807.7,773.6,19.0,51.0,-45.0,560.0,2185.0,12942.0,-9790.0,13.0,44.0,121.0,-23.0,58.0,-36.0,6617.0,-14046.0,4964.0,-1647.0,170.0,-15.0,49.0,1.0
2022-05-06 15:02:12.056100-07:00,1011.6,640.8,922.0,870.5,841.9,705.2,1472.7,1232.8,3471.0,3477.1,960.2,764.5,1554.3,3472.2,1135.7,1119.1,3483.2,3479.5,319.0,533.8,804.4,1056.5,452.2,1652.0,3478.3,3474.6,581.8,630.3,1545.0,892.4,807.7,773.6,53.0,-9.0,33.0,577.0,2223.0,12956.0,-9763.0,15.0,-47.0,90.0,63.0,-9.0,57.0,6604.0,-14057.0,4961.0,-1614.0,24.0,-79.0,9.0,1.0
2022-05-06 15:02:12.086203-07:00,1007.3,645.7,927.9,870.5,823.5,705.2,1472.7,1232.8,3467.4,3469.8,954.3,764.5,1558.1,3472.2,1135.7,1119.1,3483.2,3479.5,319.0,537.0,804.4,1055.6,455.3,1636.9,3478.3,3474.6,581.8,633.5,1545.0,892.4,817.7,772.0,126.0,68.0,67.0,644.0,2264.0,12932.0,-9781.0,-25.0,11.0,264.0,105.0,60.0,68.0,6648.0,-14038.0,4958.0,-1608.0,38.0,-2.0,40.0,1.0
2022-05-06 15:02:12.146644-07:00,1007.3,645.7,927.9,867.1,823.5,701.9,1466.3,1217.7,3467.4,3469.8,954.3,762.9,1558.1,3478.3,1134.9,1111.2,3473.4,3467.4,317.4,537.0,797.7,1055.6,455.3,1636.9,3477.1,3462.5,578.6,633.5,1540.3,892.4,817.7,772.0,144.0,40.0,70.0,685.0,2345.0,12944.0,-9742.0,-27.0,55.0,38.0,123.0,-3.0,72.0,6625.0,-14044.0,4971.0,-1614.0,-73.0,73.0,-27.0,1.0
2022-05-06 15:02:12.205974-07:00,1004.8,635.9,924.5,867.1,833.6,701.9,1466.3,1217.7,3480.7,3479.5,950.9,762.9,1553.4,3478.3,1134.9,1111.2,3473.4,3467.4,317.4,532.2,797.7,1048.7,453.7,1647.3,3477.1,3462.5,578.6,635.9,1540.3,890.7,812.7,779.4,-36.0,-277.0,-127.0,652.0,2322.0,12946.0,-9748.0,41.0,-25.0,-276.0,-29.0,-237.0,-211.0,6600.0,-14056.0,4964.0,-1639.0,-52.0,-57.0,-45.0,1.0
2022-05-06 15:02:12.235578-07:00,1004.8,635.9,924.5,864.6,835.2,707.7,1470.0,1218.6,3480.7,3479.5,950.9,763.7,1559.9,3473.4,1136.6,1119.1,3472.2,3475.9,318.2,532.2,802.7,1048.7,453.7,1647.3,3471.0,3481.9,581.0,636.7,1539.4,890.7,812.7,779.4,11.0,-10.0,-35.0,703.0,2279.0,12937.0,-9766.0,-186.0,-188.0,355.0,-3.0,9.0,-31.0,6628.0,-14059.0,4942.0,-1554.0,-132.0,-253.0,137.0,1.0
2022-05-06 15:02:12.325937-07:00,1009.0,639.2,933.0,873.0,835.2,707.7,1470.0,1218.6,3462.5,3467.4,952.6,770.3,1559.9,3473.4,1136.6,1119.1,3472.2,3475.9,318.2,532.2,805.2,1058.2,453.7,1650.2,3471.0,3481.9,581.0,636.7,1545.0,894.9,810.2,776.1,-17.0,31.0,-30.0,801.0,2311.0,12949.0,-9736.0,106.0,-95.0,22.0,-33.0,16.0,-9.0,6648.0,-14065.0,4934.0,-1441.0,74.0,-240.0,59.0,1.0
2022-05-06 15:02:12.385930-07:00,1009.0,639.2,933.0,873.0,825.2,711.0,1466.3,1231.9,3462.5,3467.4,952.6,770.3,1553.4,3467.4,1134.0,1118.2,3478.3,3472.2,320.5,533.8,805.2,1058.2,453.7,1650.2,3480.7,3473.4,572.2,640.0,1545.0,894.9,810.2,776.1,0.0,-4.0,-19.0,858.0,2277.0,12926.0,-9768.0,-80.0,-246.0,81.0,-7.0,-1.0,0.0,6691.0,-14064.0,4904.0,-1345.0,-67.0,-252.0,26.0,1.0
2022-05-06 15:02:12.386958-07:00,1004.8,660.3,933.0,875.5,825.2,711.0,1466.3,1231.9,3474.6,3467.4,952.6,764.5,1553.4,3467.4,1134.0,1118.2,3478.3,3472.2,320.5,533.8,804.4,1047.0,453.0,1643.5,3480.7,3473.4,572.2,640.0,1539.4,899.1,806.0,768.7,24.0,5.0,46.0,970.0,2246.0,12929.0,-9761.0,27.0,-256.0,77.0,11.0,-23.0,42.0,6722.0,-14072.0,4866.0,-1250.0,88.0,-234.0,3.0,1.0
2022-05-06 15:02:12.446225-07:00,1004.8,660.3,933.0,875.5,825.2,710.1,1466.3,1225.7,3474.6,3467.4,952.6,764.5,1562.7,3469.8,1134.0,1114.7,3468.6,3475.9,318.2,529.8,804.4,1047.0,453.0,1643.5,3474.6,3468.6,578.6,631.9,1539.4,899.1,806.0,768.7,21.0,19.0,48.0,1060.0,2206.0,12903.0,-9796.0,47.0,-182.0,34.0,5.0,-3.0,34.0,6786.0,-14060.0,4824.0,-1192.0,45.0,-139.0,-18.0,1.0
2022-05-06 15:02:12.506005-07:00,1005.6,640.0,933.0,870.5,825.2,710.1,1466.3,1218.6,3469.8,3468.6,950.0,762.0,1562.7,3469.8,1134.0,1116.5,3467.4,3475.9,318.2,529.8,806.0,1050.4,448.2,1636.9,3478.3,3468.6,578.6,631.9,1545.0,895.7,806.9,764.5,5.0,2.0,59.0,1112.0,2162.0,12882.0,-9827.0,32.0,-84.0,-25.0,-15.0,-6.0,29.0,6821.0,-14055.0,4796.0,-1164.0,47.0,-43.0,-17.0,1.0
2022-05-06 15:02:12.535771-07:00,1000.5,640.0,933.0,870.5,825.2,702.8,1469.0,1218.6,3478.3,3468.6,950.0,762.0,1554.3,3471.0,1130.5,1116.5,3467.4,3477.1,318.2,530.6,806.0,1050.4,448.2,1642.6,3478.3,3485.6,577.8,633.5,1545.0,895.7,806.9,767.0,1.0,0.0,24.0,1115.0,2147.0,12859.0,-9861.0,106.0,18.0,-16.0,-4.0,-15.0,21.0,6854.0,-14042.0,4787.0,-1168.0,80.0,11.0,-9.0,1.0
2022-05-06 15:02:12.625874-07:00,1000.5,637.6,923.7,869.6,825.2,702.8,1469.0,1223.9,3478.3,3471.0,954.3,772.0,1554.3,3471.0,1130.5,1116.5,3479.5,3477.1,318.2,530.6,803.5,1053.9,455.3,1642.6,3478.3,3485.6,577.8,633.5,1545.0,893.2,811.9,767.0,27.0,2.0,8.0,1103.0,2140.0,12832.0,-9899.0,61.0,17.0,-36.0,7.0,0.0,4.0,6885.0,-14025.0,4788.0,-1188.0,44.0,29.0,-9.0,1.0
2022-05-06 15:02:12.656013-07:00,998.7,637.6,923.7,869.6,838.6,701.9,1467.2,1223.9,3471.0,3471.0,954.3,772.0,1558.1,3466.1,1133.1,1116.5,3479.5,3478.3,318.2,527.4,803.5,1053.9,455.3,1633.1,3478.3,3479.5,586.7,635.9,1545.0,893.2,811.9,767.0,23.0,-8.0,1.0,1072.0,2129.0,12825.0,-9913.0,64.0,47.0,-45.0,9.0,-8.0,2.0,6888.0,-14022.0,4787.0,-1204.0,23.0,24.0,-14.0,1.0
2022-05-06 15:02:12.686404-07:00,998.7,641.6,923.7,867.1,838.6,701.9,1467.2,1226.6,3471.0,3479.5,950.9,768.7,1558.1,3466.1,1133.1,1120.9,3481.9,3478.3,318.2,527.4,805.2,1056.5,458.5,1633.1,3480.7,3479.5,586.7,635.9,1544.1,907.6,813.5,767.0,1.0,1.0,-9.0,1050.0,2124.0,12815.0,-9929.0,-9.0,-17.0,-24.0,-6.0,0.0,0.0,6894.0,-14020.0,4783.0,-1216.0,-10.0,13.0,-20.0,1.0
2022-05-06 15:02:12.746433-07:00,1003.9,641.6,923.7,867.1,830.2,704.4,1470.0,1226.6,3467.4,3479.5,950.9,768.7,1547.8,3471.0,1134.9,1120.9,3481.9,3479.5,316.7,530.6,805.2,1056.5,458.5,1650.2,3480.7,3478.3,577.0,631.9,1544.1,907.6,813.5,771.1,1.0,-6.0,0.0,1049.0,2106.0,12817.0,-9931.0,17.0,-28.0,-40.0,-7.0,-6.0,3.0,6889.0,-14025.0,4775.0,-1217.0,1.0,-10.0,-24.0,1.0
2022-05-06 15:02:12.835884-07:00,1003.9,642.4,925.4,872.1,830.2,704.4,1468.1,1222.2,3467.4,3468.6,948.3,762.9,1547.8,3471.0,1135.7,1111.2,3478.3,3484.4,316.7,530.6,803.5,1047.0,452.2,1650.2,3475.9,3474.6,577.0,631.9,1546.9,894.9,813.5,771.1,11.0,12.0,-1.0,1045.0,2092.0,12805.0,-9949.0,36.0,-28.0,-27.0,1.0,-3.0,11.0,6907.0,-14019.0,4763.0,-1226.0,37.0,6.0,-29.0,1.0
2022-05-06 15:02:12.895962-07:00,1004.8,637.6,925.4,872.1,824.4,704.4,1468.1,1222.2,3478.3,3468.6,948.3,762.9,1549.7,3472.2,1135.7,1111.2,3478.3,3484.4,321.3,531.4,803.5,1047.0,453.7,1642.6,3475.9,3474.6,582.6,631.9,1546.9,894.9,812.7,763.7,19.0,-15.0,18.0,1039.0,2069.0,12795.0,-9968.0,100.0,10.0,-48.0,1.0,-14.0,6.0,6923.0,-14015.0,4749.0,-1241.0,70.0,5.0,-31.0,1.0
2022-05-06 15:02:12.897026-07:00,1004.8,637.6,931.3,884.8,824.4,704.4,1462.6,1230.2,3478.3,3468.6,949.2,766.2,1549.7,3472.2,1131.4,1117.4,3478.3,3480.7,321.3,531.4,801.9,1047.8,453.7,1642.6,3478.3,3472.2,582.6,631.9,1546.9,891.5,812.7,763.7,5.0,0.0,1.0,1013.0,2057.0,12774.0,-10001.0,45.0,33.0,-34.0,-5.0,-1.0,9.0,6945.0,-14006.0,4741.0,-1251.0,27.0,7.0,-8.0,1.0
2022-05-06 15:02:12.956135-07:00,1003.0,636.7,931.3,884.8,831.9,701.9,1462.6,1230.2,3467.4,3475.9,949.2,766.2,1554.3,3467.4,1131.4,1117.4,3478.3,3480.7,321.3,533.8,801.9,1047.8,456.9,1650.2,3478.3,3472.2,578.6,634.3,1546.9,891.5,816.0,770.3,3.0,4.0,17.0,1000.0,2052.0,12772.0,-10004.0,5.0,46.0,-9.0,-13.0,0.0,7.0,6943.0,-14005.0,4744.0,-1255.0,-9.0,17.0,2.0,1.0
2022-05-06 15:02:12.985851-07:00,1003.0,636.7,931.3,873.8,831.9,701.9,1469.0,1216.8,3467.4,3475.9,950.9,766.2,1554.3,3467.4,1136.6,1109.5,3468.6,3467.4,321.3,533.8,807.7,1045.2,456.9,1650.2,3472.2,3480.7,578.6,634.3,1536.6,887.3,816.0,770.3,15.0,10.0,1.0,971.0,2056.0,12764.0,-10018.0,88.0,43.0,-79.0,12.0,0.0,12.0,6952.0,-13999.0,4746.0,-1264.0,44.0,10.0,-6.0,1.0
2022-05-06 15:02:13.076035-07:00,1003.9,637.6,918.6,873.8,825.2,709.3,1469.0,1216.8,3474.6,3467.4,951.7,766.2,1553.4,3474.6,1136.6,1109.5,3468.6,3467.4,317.4,533.0,807.7,1056.5,454.5,1649.2,3472.2,3480.7,584.3,634.3,1536.6,896.6,812.7,771.1,14.0,-17.0,-9.0,946.0,2035.0,12757.0,-10033.0,16.0,7.0,-18.0,2.0,-1.0,-9.0,6954.0,-13998.0,4744.0,-1270.0,-1.0,9.0,-8.0,1.0
2022-05-06 15:02:13.136104-07:00,1003.9,637.6,918.6,863.7,825.2,706.9,1469.0,1217.7,3474.6,3467.4,951.7,757.9,1553.4,3471.0,1134.9,1110.4,3471.0,3478.3,317.4,533.0,803.5,1056.5,454.5,1649.2,3488.0,3479.5,578.6,634.3,1541.3,896.6,812.7,771.1,10.0,-11.0,3.0,940.0,2035.0,12759.0,-10031.0,5.0,-2.0,-3.0,0.0,-9.0,1.0,6951.0,-14000.0,4744.0,-1267.0,-11.0,-14.0,2.0,1.0
2022-05-06 15:02:13.137801-07:00,1009.0,641.6,926.2,863.7,827.7,706.9,1469.0,1217.7,3466.1,3464.9,952.6,757.9,1551.5,3471.0,1134.9,1110.4,3471.0,3478.3,317.4,534.6,803.5,1053.0,452.2,1637.9,3488.0,3479.5,578.6,633.5,1541.3,891.5,799.4,771.1,11.0,16.0,6.0,942.0,2031.0,12753.0,-10039.0,-32.0,-15.0,-1.0,0.0,5.0,10.0,6961.0,-13996.0,4741.0,-1267.0,2.0,-5.0,7.0,1.0
2022-05-06 15:02:13.256075-07:00,1009.0,641.6,926.2,868.8,827.7,703.6,1462.6,1228.4,3466.1,3464.9,952.6,765.3,1551.5,3467.4,1134.0,1111.2,3472.2,3467.4,321.3,534.6,802.7,1053.0,452.2,1637.9,3477.1,3467.4,578.6,633.5,1553.4,891.5,799.4,771.1,2.0,3.0,19.0,940.0,2030.0,12772.0,-10015.0,-77.0,23.0,-22.0,-4.0,-12.0,17.0,6935.0,-14008.0,4746.0,-1263.0,-81.0,25.0,-1.0,1.0
2022-05-06 15:02:13.257130-07:00,1010.8,645.7,922.8,868.8,822.7,703.6,1462.6,1228.4,3474.6,3472.2,950.9,765.3,1559.0,3467.4,1134.0,1111.2,3472.2,3467.4,321.3,533.8,802.7,1048.7,448.2,1641.6,3477.1,3467.4,578.6,634.3,1553.4,899.1,808.5,767.8,12.0,10.0,-4.0,927.0,2028.0,12775.0,-10013.0,-13.0,21.0,-12.0,0.0,7.0,0.0,6933.0,-14006.0,4752.0,-1275.0,14.0,34.0,1.0,1.0
2022-05-06 15:02:13.285942-07:00,1010.8,645.7,922.8,870.5,822.7,705.2,1452.5,1223.0,3474.6,3472.2,950.9,766.2,1551.5,3472.2,1134.9,1116.5,3469.8,3475.9,317.4,530.6,804.4,1048.7,448.2,1641.6,3474.6,3478.3,579.4,628.6,1540.3,899.1,808.5,767.8,7.0,0.0,5.0,913.0,2030.0,12785.0,-10001.0,-42.0,34.0,-28.0,-4.0,-9.0,7.0,6917.0,-14011.0,4759.0,-1282.0,-26.0,23.0,-3.0,1.0
2022-05-06 15:02:13.345834-07:00,1009.9,635.9,924.5,866.3,822.7,705.2,1452.5,1223.0,3474.6,3467.4,956.8,762.9,1551.5,3472.2,1134.9,1116.5,3469.8,3475.9,317.4,530.6,801.0,1053.9,451.4,1637.9,3474.6,3478.3,579.4,628.6,1545.0,891.5,806.0,767.0,11.0,-3.0,7.0,895.0,2014.0,12787.0,-10004.0,66.0,5.0,-51.0,-7.0,3.0,3.0,6933.0,-14001.0,4761.0,-1299.0,67.0,28.0,-11.0,1.0
2022-05-06 15:02:13.436084-07:00,1009.9,635.9,924.5,866.3,817.7,712.6,1470.0,1223.9,3474.6,3467.4,956.8,762.9,1554.3,3473.4,1132.2,1119.1,3472.2,3473.4,319.0,535.4,801.0,1053.9,451.4,1637.9,3483.2,3479.5,563.4,629.5,1545.0,891.5,806.0,767.0,7.0,0.0,-2.0,879.0,2010.0,12778.0,-10018.0,-30.0,22.0,-18.0,3.0,-4.0,1.0,6929.0,-14000.0,4765.0,-1307.0,-50.0,19.0,5.0,1.0
2022-05-06 15:02:13.437499-07:00,1000.5,638.4,926.2,870.5,817.7,712.6,1470.0,1223.9,3468.6,3472.2,956.8,766.2,1554.3,3473.4,1132.2,1119.1,3472.2,3473.4,319.0,535.4,808.5,1041.8,455.3,1636.0,3483.2,3479.5,563.4,629.5,1545.9,909.3,811.0,772.0,12.0,-5.0,-1.0,868.0,2006.0,12784.0,-10012.0,51.0,14.0,-22.0,7.0,-6.0,1.0,6928.0,-13998.0,4771.0,-1311.0,37.0,5.0,12.0,1.0
2022-05-06 15:02:13.496536-07:00,1000.5,638.4,926.2,870.5,829.4,706.0,1466.3,1231.0,3468.6,3472.2,956.8,766.2,1565.5,3463.7,1138.4,1116.5,3478.3,3466.1,314.4,533.0,808.5,1041.8,455.3,1636.0,3481.9,3473.4,582.6,633.5,1545.9,909.3,811.0,772.0,4.0,3.0,-12.0,853.0,1998.0,12771.0,-10031.0,-33.0,-3.0,-23.0,-4.0,11.0,-5.0,6934.0,-13995.0,4771.0,-1312.0,-61.0,1.0,-1.0,1.0
2022-05-06 15:02:13.585422-07:00,1007.3,639.2,926.2,867.9,829.4,706.0,1466.3,1222.2,3473.4,3464.9,953.4,764.5,1565.5,3463.7,1138.4,1115.6,3479.5,3466.1,314.4,533.0,811.9,1053.9,451.4,1639.8,3477.1,3473.4,582.6,633.5,1565.5,895.7,811.9,773.6,3.0,-8.0,8.0,854.0,1994.0,12784.0,-10015.0,17.0,-14.0,14.0,-2.0,-11.0,12.0,6929.0,-13998.0,4771.0,-1308.0,53.0,-16.0,3.0,1.0
2022-05-06 15:02:13.615998-07:00,1009.0,639.2,926.2,867.9,827.7,701.9,1466.3,1222.2,3457.6,3464.9,953.4,764.5,1558.1,3473.4,1133.1,1115.6,3479.5,3479.5,311.3,533.8,811.9,1053.9,451.4,1640.7,3477.1,3475.9,581.0,635.9,1565.5,895.7,811.9,778.6,4.0,9.0,0.0,863.0,1995.0,12774.0,-10027.0,-21.0,-28.0,13.0,-2.0,1.0,3.0,6949.0,-13990.0,4767.0,-1310.0,-1.0,-12.0,4.0,1.0
2022-05-06 15:02:13.675908-07:00,1009.0,640.8,921.1,872.1,827.7,701.9,1466.3,1216.0,3457.6,3474.6,949.2,767.0,1558.1,3473.4,1133.1,1115.6,3479.5,3479.5,311.3,533.8,802.7,1054.8,454.5,1640.7,3474.6,3475.9,581.0,635.9,1543.1,891.5,810.2,778.6,12.0,0.0,16.0,880.0,1992.0,12789.0,-10006.0,-30.0,-11.0,24.0,0.0,-4.0,5.0,6936.0,-13996.0,4769.0,-1305.0,-7.0,-4.0,12.0,1.0
2022-05-06 15:02:13.706665-07:00,1008.2,640.8,921.1,872.1,824.4,710.1,1458.0,1216.0,3474.6,3474.6,949.2,767.0,1553.4,3475.9,1135.7,1115.6,3479.5,3478.3,319.0,531.4,802.7,1054.8,454.5,1640.7,3474.6,3475.9,580.2,629.5,1543.1,891.5,810.2,772.0,4.0,10.0,3.0,883.0,1998.0,12791.0,-10003.0,2.0,20.0,12.0,-5.0,3.0,4.0,6936.0,-13995.0,4770.0,-1305.0,2.0,9.0,5.0,1.0
2022-05-06 15:02:13.796733-07:00,1008.2,640.8,925.4,865.4,824.4,710.1,1458.0,1224.8,3474.6,3472.2,956.0,768.7,1553.4,3475.9,1135.7,1115.6,3481.9,3478.3,319.0,531.4,810.2,1053.9,451.4,1640.7,3474.6,3475.9,580.2,629.5,1541.3,892.4,811.9,772.0,7.0,-2.0,-1.0,884.0,2002.0,12793.0,-9999.0,-18.0,-9.0,4.0,-4.0,0.0,0.0,6929.0,-13999.0,4771.0,-1301.0,-27.0,-6.0,4.0,1.0
2022-05-06 15:02:13.855947-07:00,1002.2,639.2,925.4,865.4,828.5,709.3,1464.4,1224.8,3472.2,3467.4,956.0,768.7,1559.9,3468.6,1130.5,1115.6,3481.9,3478.3,321.3,533.0,810.2,1053.9,450.6,1642.6,3474.6,3475.9,574.6,634.3,1541.3,892.4,815.2,764.5,13.0,5.0,-3.0,887.0,1998.0,12796.0,-9996.0,3.0,-18.0,9.0,2.0,3.0,-1.0,6927.0,-14000.0,4770.0,-1298.0,9.0,-20.0,3.0,1.0
2022-05-06 15:02:13.857047-07:00,1002.2,639.2,919.4,872.1,828.5,709.3,1467.2,1221.3,3472.2,3467.4,950.9,767.0,1559.9,3468.6,1134.0,1114.7,3472.2,3477.1,321.3,533.0,805.2,1051.3,450.6,1642.6,3474.6,3475.9,574.6,634.3,1540.3,889.0,815.2,764.5,10.0,15.0,2.0,893.0,1998.0,12794.0,-9998.0,-17.0,-28.0,7.0,2.0,0.0,9.0,6929.0,-14001.0,4767.0,-1292.0,-12.0,-13.0,-12.0,1.0
2022-05-06 15:02:13.886456-07:00,1003.9,638.4,919.4,872.1,847.8,701.9,1467.2,1221.3,3468.6,3477.1,950.9,767.0,1551.5,3479.5,1134.0,1114.7,3472.2,3477.1,324.4,533.8,805.2,1051.3,451.4,1636.9,3474.6,3475.9,581.8,630.3,1540.3,889.0,809.4,764.5,3.0,7.0,18.0,897.0,1988.0,12793.0,-10000.0,36.0,-12.0,-38.0,-5.0,-3.0,15.0,6935.0,-14000.0,4759.0,-1296.0,41.0,9.0,-26.0,1.0
2022-05-06 15:02:13.976608-07:00,1003.9,638.4,921.1,867.1,847.8,701.9,1461.7,1216.8,3468.6,3477.1,950.0,766.2,1551.5,3479.5,1132.2,1107.8,3477.1,3478.3,324.4,533.8,803.5,1053.0,451.4,1636.9,3474.6,3478.3,581.8,630.3,1539.4,888.2,809.4,764.5,9.0,-8.0,12.0,890.0,1982.0,12792.0,-10004.0,-23.0,23.0,-4.0,-3.0,-6.0,4.0,6938.0,-13999.0,4756.0,-1306.0,-15.0,29.0,-3.0,1.0
2022-05-06 15:02:13.977956-07:00,1002.2,638.4,921.1,867.1,838.6,705.2,1461.7,1216.8,3464.9,3464.9,950.0,766.2,1553.4,3467.4,1132.2,1107.8,3477.1,3478.3,322.8,533.8,803.5,1053.0,455.3,1637.9,3474.6,3478.3,581.0,631.1,1539.4,888.2,807.7,766.2,4.0,-7.0,-4.0,876.0,1990.0,12793.0,-10002.0,24.0,28.0,-7.0,-2.0,-5.0,2.0,6934.0,-13998.0,4762.0,-1317.0,18.0,17.0,10.0,1.0
2022-05-06 15:02:14.096016-07:00,1002.2,638.4,926.2,873.0,838.6,705.2,1476.4,1218.6,3464.9,3464.9,949.2,765.3,1553.4,3467.4,1131.4,1109.5,3472.2,3473.4,322.8,533.8,804.4,1053.0,455.3,1637.9,3483.2,3479.5,581.0,631.1,1534.8,895.7,807.7,766.2,3.0,10.0,-14.0,869.0,1998.0,12795.0,-9999.0,-43.0,4.0,11.0,-2.0,2.0,0.0,6929.0,-13999.0,4767.0,-1318.0,-32.0,7.0,3.0,1.0
2022-05-06 15:02:14.097116-07:00,1005.6,641.6,922.0,873.0,835.2,708.5,1476.4,1218.6,3467.4,3468.6,955.1,765.3,1552.5,3469.8,1131.4,1109.5,3472.2,3473.4,319.7,530.6,804.4,1046.1,454.5,1637.9,3483.2,3479.5,581.8,630.3,1534.8,888.2,811.9,769.5,3.0,3.0,-12.0,877.0,1994.0,12795.0,-9998.0,43.0,-74.0,20.0,0.0,0.0,1.0,6930.0,-13999.0,4766.0,-1316.0,30.0,-11.0,-4.0,1.0
2022-05-06 15:02:14.126186-07:00,1005.6,641.6,922.0,867.9,835.2,708.5,1458.0,1216.0,3467.4,3468.6,955.1,766.2,1552.5,3472.2,1137.5,1114.7,3467.4,3466.1,318.2,530.6,803.5,1046.1,454.5,1637.9,3473.4,3478.3,580.2,630.3,1540.3,888.2,811.9,769.5,10.0,-1.0,4.0,915.0,1986.0,12794.0,-9999.0,-64.0,-84.0,53.0,-5.0,-2.0,3.0,6931.0,-13999.0,4763.0,-1311.0,-34.0,-13.0,-3.0,1.0
2022-05-06 15:02:14.215728-07:00,1005.6,631.9,922.8,867.9,825.2,708.5,1458.0,1216.0,3464.9,3468.6,953.4,766.2,1557.1,3472.2,1137.5,1114.7,3467.4,3466.1,318.2,533.0,803.5,1054.8,453.0,1632.2,3473.4,3478.3,580.2,632.7,1540.3,888.2,807.7,774.5,11.0,10.0,12.0,947.0,1978.0,12797.0,-9994.0,-16.0,-13.0,3.0,-6.0,3.0,1.0,6935.0,-13999.0,4760.0,-1306.0,13.0,-17.0,-1.0,1.0
2022-05-06 15:02:14.245563-07:00,1005.6,631.9,922.8,861.2,825.2,704.4,1467.2,1217.7,3464.9,3468.6,953.4,764.5,1557.1,3472.2,1130.5,1115.6,3466.1,3480.7,320.5,533.0,806.0,1054.8,453.0,1632.2,3477.1,3478.3,580.2,632.7,1548.7,888.2,807.7,774.5,5.0,-2.0,11.0,945.0,1981.0,12804.0,-9984.0,8.0,23.0,-2.0,-1.0,-8.0,20.0,6926.0,-14003.0,4761.0,-1303.0,-20.0,4.0,4.0,1.0
2022-05-06 15:02:14.276316-07:00,1003.0,639.2,922.0,861.2,827.7,704.4,1467.2,1217.7,3469.8,3464.9,950.9,764.5,1555.3,3472.2,1130.5,1115.6,3466.1,3480.7,320.5,536.2,806.0,1056.5,458.5,1637.9,3477.1,3478.3,580.2,629.5,1548.7,889.0,812.7,771.1,5.0,0.0,0.0,940.0,1985.0,12807.0,-9980.0,-44.0,20.0,5.0,-5.0,0.0,-3.0,6923.0,-14005.0,4762.0,-1304.0,-39.0,11.0,7.0,1.0
2022-05-06 15:02:14.335862-07:00,1003.0,639.2,922.0,862.9,831.1,702.8,1453.4,1219.5,3469.8,3464.9,950.9,767.0,1550.6,3468.6,1137.5,1120.9,3472.2,3480.7,314.4,529.0,806.0,1056.5,458.5,1637.9,3471.0,3483.2,580.2,633.5,1540.3,889.0,812.7,771.1,6.0,8.0,-8.0,938.0,1987.0,12806.0,-9981.0,7.0,-16.0,18.0,-7.0,12.0,-4.0,6923.0,-14004.0,4764.0,-1303.0,34.0,-5.0,6.0,1.0
2022-05-06 15:02:14.396606-07:00,1009.9,636.7,915.2,867.1,831.1,702.8,1453.4,1219.5,3469.8,3474.6,951.7,765.3,1550.6,3468.6,1137.5,1120.9,3472.2,3480.7,314.4,529.0,801.0,1056.5,457.7,1628.4,3471.0,3483.2,580.2,633.5,1545.0,887.3,813.5,763.7,13.0,-2.0,10.0,951.0,1983.0,12815.0,-9968.0,-4.0,-20.0,-16.0,-1.0,-6.0,4.0,6914.0,-14009.0,4763.0,-1295.0,-21.0,-18.0,-5.0,1.0
2022-05-06 15:02:14.485545-07:00,1009.9,636.7,915.2,867.1,825.2,698.7,1457.1,1223.9,3469.8,3474.6,951.7,765.3,1551.5,3471.0,1138.4,1114.7,3467.4,3483.2,315.9,541.0,801.0,1056.5,457.7,1628.4,3474.6,3474.6,578.6,637.6,1545.0,887.3,813.5,763.7,-4.0,2.0,0.0,948.0,1973.0,12801.0,-9989.0,36.0,-52.0,-6.0,-5.0,5.0,5.0,6932.0,-14003.0,4756.0,-1297.0,53.0,-6.0,-10.0,1.0
2022-05-06 15:02:14.488552-07:00,1002.2,632.7,917.7,867.1,825.2,698.7,1457.1,1223.9,3471.0,3464.9,953.4,769.5,1551.5,3471.0,1138.4,1114.7,3467.4,3483.2,315.9,541.0,801.0,1046.1,455.3,1637.9,3474.6,3474.6,578.6,637.6,1534.8,894.1,801.9,764.5,11.0,-20.0,11.0,966.0,1964.0,12806.0,-9983.0,11.0,-47.0,13.0,1.0,-15.0,14.0,6924.0,-14007.0,4757.0,-1294.0,-25.0,-5.0,-1.0,1.0
2022-05-06 15:02:14.545963-07:00,1002.2,632.7,917.7,867.1,826.9,710.1,1453.4,1221.3,3471.0,3464.9,953.4,769.5,1553.4,3464.9,1131.4,1111.2,3475.9,3475.9,317.4,533.8,801.0,1046.1,455.3,1637.9,3478.3,3477.1,581.8,637.6,1534.8,894.1,801.9,764.5,-7.0,-110.0,-6.0,1015.0,1951.0,12778.0,-10017.0,334.0,-339.0,182.0,-4.0,-44.0,-8.0,6954.0,-13992.0,4755.0,-1302.0,163.0,-14.0,20.0,1.0
2022-05-06 15:02:14.635934-07:00,1003.9,648.1,922.0,865.4,826.9,710.1,1453.4,1239.1,3474.6,3462.5,951.7,767.8,1553.4,3464.9,1131.4,1111.2,3478.3,3475.9,317.4,533.8,804.4,1054.8,452.2,1641.6,3491.7,3477.1,581.8,637.6,1540.3,894.9,807.7,770.3,-20.0,-80.0,-46.0,1214.0,1980.0,12492.0,-10343.0,1925.0,-629.0,624.0,-25.0,-38.0,0.0,7263.0,-13837.0,4732.0,-1352.0,1396.0,-185.0,51.0,1.0
2022-05-06 15:02:14.638952-07:00,1004.8,648.1,922.0,865.4,827.7,726.6,1620.9,1239.1,3474.6,3462.5,951.7,767.8,1554.3,3472.2,1146.3,1111.2,3478.3,3473.4,320.5,533.0,804.4,1054.8,452.2,1640.7,3491.7,3480.7,588.3,793.5,1540.3,894.9,807.7,781.9,-18.0,-86.0,-138.0,1559.0,2115.0,11734.0,-11128.0,2926.0,-943.0,1025.0,-46.0,-53.0,-76.0,8132.0,-13373.0,4598.0,-1524.0,2768.0,-394.0,43.0,1.0
2022-05-06 15:02:14.695908-07:00,1004.8,646.5,927.1,877.2,827.7,726.6,1620.9,1267.6,3474.6,3480.7,960.2,767.0,1554.3,3472.2,1146.3,1121.7,3467.4,3473.4,320.5,533.0,810.2,1049.6,465.6,1640.7,3473.4,3480.7,588.3,793.5,1527.3,975.6,851.1,781.9,-25.0,-154.0,-148.0,1965.0,2274.0,10608.0,-12119.0,4129.0,-921.0,1031.0,-40.0,-109.0,-74.0,9430.0,-12571.0,4317.0,-1689.0,3962.0,-852.0,164.0,1.0
2022-05-06 15:02:14.726318-07:00,1021.1,646.5,927.1,877.2,824.4,778.6,1766.6,1267.6,3478.3,3480.7,960.2,767.0,1559.9,3468.6,1202.7,1121.7,3467.4,3472.2,322.8,539.4,810.2,1049.6,465.6,1667.2,3473.4,3479.5,604.4,994.5,1527.3,975.6,851.1,791.9,-22.0,53.0,-223.0,2346.0,2453.0,8964.0,-13288.0,4440.0,-1436.0,1284.0,-30.0,22.0,-65.0,11034.0,-11322.0,3904.0,-1802.0,4907.0,-1079.0,318.0,1.0
2022-05-06 15:02:14.785887-07:00,1021.1,648.1,927.9,900.8,824.4,778.6,1766.6,1307.0,3478.3,3466.1,967.9,786.9,1559.9,3468.6,1202.7,1164.7,3472.2,3472.2,322.8,539.4,807.7,1047.0,491.7,1667.2,3478.3,3479.5,604.4,994.5,1537.6,1042.6,895.7,791.9,75.0,126.0,-135.0,2774.0,2479.0,7360.0,-14157.0,3432.0,-1083.0,724.0,4.0,71.0,-94.0,12290.0,-10096.0,3491.0,-1808.0,3488.0,-973.0,280.0,1.0
2022-05-06 15:02:14.845924-07:00,1020.2,653.8,927.9,900.8,831.9,773.6,1759.8,1307.0,3473.4,3466.1,967.9,786.9,1553.4,3469.8,1276.5,1164.7,3472.2,3483.2,325.1,545.0,807.7,1047.0,485.3,1674.8,3478.3,3477.1,625.4,964.5,1537.6,1042.6,889.8,781.1,97.0,117.0,-97.0,3046.0,2313.0,6012.0,-14753.0,2756.0,-1622.0,459.0,57.0,79.0,-1.0,13111.0,-9157.0,3099.0,-1757.0,2682.0,-898.0,145.0,1.0
2022-05-06 15:02:14.876474-07:00,1020.2,653.8,961.1,911.0,831.9,773.6,1782.0,1307.9,3473.4,3466.1,966.2,784.4,1553.4,3469.8,1264.0,1161.2,3477.1,3480.7,325.1,545.0,811.9,1050.4,485.3,1674.8,3477.1,3485.6,625.4,964.5,1545.9,1022.8,889.8,781.1,114.0,126.0,-21.0,3243.0,1922.0,4859.0,-15186.0,2242.0,-1494.0,-20.0,50.0,54.0,11.0,13682.0,-8430.0,2691.0,-1707.0,2055.0,-881.0,-43.0,1.0
2022-05-06 15:02:14.935999-07:00,1021.1,644.9,961.1,911.0,831.1,767.0,1782.0,1307.9,3469.8,3466.1,966.2,784.4,1559.9,3464.9,1264.0,1161.2,3477.1,3480.7,323.6,544.2,811.9,1050.4,486.9,1665.3,3477.1,3485.6,636.7,941.5,1545.9,1022.8,869.6,786.1,112.0,129.0,234.0,3267.0,1644.0,4131.0,-15427.0,420.0,-150.0,27.0,8.0,23.0,110.0,14013.0,-7983.0,2362.0,-1664.0,830.0,-548.0,-20.0,1.0
2022-05-06 15:02:15.055940-07:00,1021.1,644.9,1060.8,980.7,831.1,767.0,1772.3,1293.6,3469.8,3466.1,996.2,784.4,1559.9,3464.9,1281.0,1153.3,3472.2,3483.2,323.6,544.2,801.9,1050.4,486.9,1665.3,3478.3,3474.6,636.7,941.5,1540.3,999.6,869.6,786.1,-24.0,-75.0,23.0,3228.0,1804.0,3977.0,-15458.0,1180.0,198.0,-15.0,3.0,-91.0,82.0,14096.0,-7881.0,2280.0,-1558.0,1006.0,-234.0,248.0,1.0
2022-05-06 15:02:15.057175-07:00,1021.1,646.5,1060.8,980.7,843.6,767.0,1772.3,1293.6,3467.4,3473.4,996.2,784.4,1559.9,3467.4,1281.0,1153.3,3472.2,3483.2,329.8,539.4,801.9,1050.4,486.1,1781.0,3478.3,3474.6,625.4,911.0,1540.3,999.6,871.3,960.2,34.0,174.0,-101.0,3122.0,1949.0,3663.0,-15540.0,258.0,95.0,-294.0,19.0,124.0,11.0,14246.0,-7641.0,2210.0,-1490.0,272.0,-200.0,83.0,1.0
2022-05-06 15:02:15.085835-07:00,1021.1,646.5,1121.7,1009.0,843.6,761.2,1811.0,1310.6,3467.4,3473.4,1097.3,807.7,1559.9,3469.8,1436.0,1251.5,3478.3,3483.2,330.5,539.4,811.0,1048.7,486.1,1781.0,3483.2,3472.2,627.8,911.0,1556.2,1002.2,871.3,960.2,-33.0,-42.0,114.0,2976.0,1972.0,3642.0,-15570.0,384.0,153.0,-272.0,-9.0,-60.0,105.0,14268.0,-7621.0,2154.0,-1461.0,327.0,-97.0,5.0,1.0
2022-05-06 15:02:15.175941-07:00,1029.7,657.0,1118.2,1009.0,836.9,761.2,1811.0,1310.6,3467.4,3468.6,1142.7,807.7,1637.9,3469.8,1436.0,1251.5,3478.3,3483.2,330.5,541.8,811.0,1052.2,486.9,1911.5,3483.2,3472.2,627.8,899.1,1556.2,1040.1,900.0,937.3,37.0,119.0,-85.0,2806.0,2054.0,3555.0,-15611.0,-46.0,369.0,-494.0,-3.0,110.0,-35.0,14322.0,-7521.0,2137.0,-1479.0,-46.0,16.0,-35.0,1.0
2022-05-06 15:02:15.296726-07:00,1029.7,657.0,1118.2,1011.6,836.9,761.2,1811.9,1294.5,3467.4,3468.6,1142.7,826.9,1637.9,3473.4,1582.4,1367.6,3468.6,3467.4,326.7,541.8,811.9,1052.2,486.9,1911.5,3483.2,3473.4,640.0,899.1,1554.3,1040.1,900.0,937.3,1.0,-44.0,-6.0,2542.0,2124.0,3726.0,-15607.0,-237.0,299.0,-592.0,0.0,-1.0,15.0,14271.0,-7614.0,2119.0,-1525.0,-142.0,-9.0,-195.0,1.0
2022-05-06 15:02:15.298014-07:00,1034.0,657.9,1175.3,1011.6,855.3,761.2,1811.9,1294.5,3469.8,3480.7,1221.3,826.9,1726.3,3473.4,1582.4,1367.6,3468.6,3467.4,326.7,550.6,811.9,1052.2,497.2,2014.4,3483.2,3473.4,640.0,929.6,1554.3,1024.5,900.0,930.5,-64.0,-196.0,9.0,2325.0,2211.0,3882.0,-15591.0,32.0,406.0,-110.0,-11.0,-126.0,36.0,14230.0,-7680.0,2117.0,-1577.0,50.0,59.0,-23.0,1.0
2022-05-06 15:02:15.298994-07:00,1034.0,657.9,1175.3,1093.8,855.3,768.7,1785.8,1319.6,3469.8,3480.7,1221.3,826.0,1726.3,3471.0,1711.0,1516.2,3478.3,3473.4,327.5,550.6,815.2,1052.2,497.2,2014.4,3483.2,3479.5,657.0,929.6,1551.5,1024.5,900.0,930.5,82.0,56.0,-79.0,2275.0,2411.0,3853.0,-15576.0,-47.0,662.0,50.0,45.0,38.0,-33.0,14249.0,-7639.0,2123.0,-1590.0,-52.0,41.0,-37.0,1.0
2022-05-06 15:02:15.326336-07:00,1038.3,670.9,1271.2,1093.8,939.8,768.7,1785.8,1319.6,3473.4,3477.1,1219.5,826.0,1757.9,3471.0,1711.0,1516.2,3478.3,3473.4,327.5,545.8,815.2,1049.6,487.7,2299.3,3483.2,3479.5,657.0,926.2,1551.5,1079.0,936.4,979.0,31.0,91.0,-27.0,2228.0,2638.0,4039.0,-15498.0,-758.0,581.0,-88.0,18.0,75.0,34.0,14203.0,-7717.0,2127.0,-1625.0,-514.0,94.0,-183.0,1.0
2022-05-06 15:02:15.385473-07:00,1038.3,670.9,1271.2,1154.2,942.4,780.3,1801.3,1338.6,3473.4,3477.1,1219.5,818.5,1772.3,3467.4,1723.4,1565.5,3477.1,3464.9,330.5,549.0,814.4,1049.6,487.7,2299.3,3474.6,3478.3,677.4,927.9,1598.3,1079.0,936.4,979.0,11.0,46.0,41.0,2206.0,2774.0,4529.0,-15342.0,-1657.0,509.0,-204.0,16.0,-13.0,23.0,14013.0,-8028.0,2180.0,-1690.0,-1275.0,258.0,-216.0,1.0
2022-05-06 15:02:15.445798-07:00,1032.3,675.8,1280.1,1134.0,942.4,780.3,1801.3,1338.6,3477.1,3471.0,1218.6,816.9,1772.3,3467.4,1723.4,1565.5,3477.1,3464.9,330.5,549.0,826.9,1045.2,490.1,2291.0,3474.6,3478.3,677.4,927.9,1837.2,1174.4,1037.5,979.0,-4.0,47.0,16.0,2105.0,2894.0,5335.0,-15072.0,-2175.0,954.0,-615.0,5.0,-6.0,40.0,13640.0,-8603.0,2327.0,-1721.0,-2038.0,383.0,-102.0,1.0
2022-05-06 15:02:15.506024-07:00,1032.3,675.8,1280.1,1134.0,930.5,770.3,1784.9,1343.1,3477.1,3471.0,1218.6,816.9,1772.3,3475.9,1732.0,1585.2,3471.0,3480.7,327.5,542.6,826.9,1045.2,490.1,2291.0,3478.3,3483.2,679.9,933.0,1837.2,1174.4,1037.5,979.0,20.0,37.0,-18.0,1916.0,3021.0,6363.0,-14668.0,-2604.0,769.0,-450.0,4.0,52.0,9.0,13060.0,-9396.0,2584.0,-1706.0,-2411.0,565.0,-19.0,1.0
2022-05-06 15:02:15.535815-07:00,1028.0,672.5,1237.3,1105.1,930.5,770.3,1784.9,1343.1,3467.4,3466.1,1214.2,811.0,1772.3,3475.9,1732.0,1585.2,3471.0,3480.7,327.5,542.6,817.7,1054.8,479.8,2225.0,3478.3,3483.2,679.9,933.0,1910.5,1197.4,1034.9,969.6,54.0,-43.0,-19.0,1815.0,3133.0,7419.0,-14152.0,-2301.0,944.0,-530.0,15.0,-40.0,-56.0,12389.0,-10193.0,2877.0,-1666.0,-2326.0,510.0,25.0,1.0
2022-05-06 15:02:15.595469-07:00,1028.0,672.5,1237.3,1105.1,914.4,779.4,1776.2,1330.5,3467.4,3466.1,1214.2,811.0,1755.0,3464.9,1715.8,1605.8,3475.9,3480.7,326.7,543.4,817.7,1054.8,479.8,2225.0,3485.6,3468.6,669.3,916.0,1910.5,1197.4,1034.9,969.6,7.0,-11.0,-80.0,1575.0,3249.0,8297.0,-13659.0,-2105.0,839.0,-631.0,-12.0,10.0,-21.0,11732.0,-10878.0,3140.0,-1616.0,-2168.0,483.0,45.0,1.0
2022-05-06 15:02:15.685576-07:00,1024.5,674.2,1216.0,1088.6,914.4,779.4,1776.2,1325.9,3472.2,3466.1,1204.4,814.4,1755.0,3464.9,1715.8,1606.8,3475.9,3480.7,326.7,543.4,811.0,1057.3,483.0,2219.8,3480.7,3468.6,669.3,916.0,1905.6,1190.3,1033.2,957.7,-10.0,-81.0,-37.0,1385.0,3309.0,9111.0,-13136.0,-1838.0,644.0,-454.0,-25.0,-54.0,-26.0,11072.0,-11489.0,3385.0,-1550.0,-1832.0,395.0,86.0,1.0
2022-05-06 15:02:15.686825-07:00,1039.2,674.2,1216.0,1088.6,933.0,781.9,1772.3,1325.9,3478.3,3466.1,1204.4,814.4,1737.8,3474.6,1715.8,1606.8,3475.9,3480.7,324.4,548.2,811.0,1057.3,483.0,2156.5,3480.7,3483.2,670.1,912.7,1905.6,1190.3,1033.2,956.8,7.0,4.0,-34.0,1237.0,3353.0,9702.0,-12710.0,-1275.0,509.0,-394.0,-10.0,-10.0,2.0,10553.0,-11918.0,3581.0,-1486.0,-1312.0,313.0,104.0,1.0
2022-05-06 15:02:15.746425-07:00,1039.2,666.0,1200.0,1079.0,933.0,781.9,1772.3,1322.3,3478.3,3478.3,1192.0,811.9,1737.8,3474.6,1715.8,1604.0,3475.9,3480.7,324.4,548.2,827.7,1051.3,482.2,2156.5,3477.1,3483.2,670.1,912.7,1923.3,1190.3,1032.3,956.8,10.0,5.0,-36.0,1093.0,3369.0,10133.0,-12378.0,-1031.0,401.0,-344.0,-14.0,15.0,-2.0,10152.0,-12218.0,3739.0,-1449.0,-1006.0,304.0,72.0,1.0
2022-05-06 15:02:15.806020-07:00,1028.8,666.0,1200.0,1079.0,937.3,779.4,1749.3,1322.3,3477.1,3478.3,1192.0,811.9,1738.7,3475.9,1706.2,1604.0,3475.9,3473.4,329.0,545.8,827.7,1051.3,482.2,2144.3,3477.1,3473.4,685.6,911.8,1923.3,1190.3,1032.3,950.9,21.0,-51.0,6.0,973.0,3378.0,10492.0,-12083.0,-941.0,427.0,-315.0,2.0,-37.0,5.0,9801.0,-12464.0,3872.0,-1430.0,-1000.0,287.0,63.0,1.0
2022-05-06 15:02:15.835994-07:00,1028.8,666.0,1200.0,1070.3,937.3,779.4,1749.3,1325.9,3477.1,3473.4,1194.7,811.9,1738.7,3475.9,1706.2,1587.1,3478.3,3473.4,329.0,545.8,811.0,1052.2,479.8,2144.3,3483.2,3473.4,685.6,911.8,1884.0,1183.2,1021.1,950.9,41.0,-72.0,36.0,838.0,3421.0,10758.0,-11844.0,-635.0,450.0,-185.0,0.0,-2.0,-2.0,9520.0,-12640.0,4003.0,-1422.0,-641.0,273.0,110.0,1.0
2022-05-06 15:02:15.896256-07:00,1024.5,666.0,1200.0,1070.3,937.3,778.6,1757.9,1325.9,3467.4,3477.1,1194.7,811.9,1754.1,3468.6,1700.5,1587.1,3478.3,3477.1,323.6,545.0,811.0,1052.2,481.4,2103.7,3483.2,3481.9,710.1,911.0,1884.0,1183.2,1021.9,948.3,-8.0,20.0,-27.0,730.0,3584.0,10919.0,-11654.0,-480.0,525.0,59.0,-11.0,-8.0,8.0,9323.0,-12742.0,4140.0,-1420.0,-483.0,265.0,160.0,1.0
2022-05-06 15:02:15.956099-07:00,1024.5,666.0,1196.5,1071.2,937.3,778.6,1748.3,1316.9,3467.4,3477.1,1194.7,810.2,1754.1,3468.6,1697.6,1589.9,3469.8,3468.6,323.6,545.0,820.2,1052.2,481.4,2103.7,3473.4,3473.4,710.1,911.0,1888.9,1182.3,1021.9,948.3,12.0,30.0,-41.0,655.0,3682.0,11115.0,-11442.0,-682.0,336.0,-150.0,-12.0,4.0,-5.0,9103.0,-12861.0,4267.0,-1399.0,-689.0,210.0,115.0,1.0
2022-05-06 15:02:15.985705-07:00,1025.4,665.2,1196.5,1071.2,948.3,786.1,1748.3,1316.9,3469.8,3478.3,1194.7,810.2,1751.2,3478.3,1697.6,1589.9,3469.8,3468.6,322.1,544.2,820.2,1052.2,480.6,2080.6,3473.4,3473.4,710.1,916.0,1888.9,1182.3,1016.8,946.6,8.0,8.0,-53.0,565.0,3691.0,11297.0,-11264.0,-370.0,236.0,-215.0,-22.0,17.0,-12.0,8896.0,-12980.0,4350.0,-1376.0,-410.0,132.0,39.0,1.0
2022-05-06 15:02:16.045776-07:00,1025.4,665.2,1192.0,1077.3,948.3,786.1,1751.2,1315.1,3469.8,3478.3,1196.5,811.9,1751.2,3478.3,1679.5,1581.4,3467.4,3469.8,322.1,544.2,815.2,1043.5,480.6,2080.6,3478.3,3473.4,710.1,916.0,1866.4,1178.8,1016.8,946.6,26.0,-19.0,-46.0,494.0,3662.0,11419.0,-11153.0,-372.0,48.0,-207.0,-11.0,30.0,-29.0,8762.0,-13060.0,4385.0,-1361.0,-366.0,55.0,-17.0,1.0
2022-05-06 15:02:16.076524-07:00,1021.1,661.1,1192.0,1077.3,947.5,777.8,1751.2,1315.1,3468.6,3475.9,1196.5,811.9,1757.0,3464.9,1679.5,1581.4,3467.4,3469.8,325.9,549.0,815.2,1043.5,473.5,2051.4,3478.3,3473.4,701.9,907.6,1866.4,1178.8,1007.3,942.4,9.0,-37.0,-11.0,489.0,3675.0,11483.0,-11084.0,-28.0,66.0,132.0,1.0,-24.0,12.0,8692.0,-13106.0,4392.0,-1346.0,4.0,-13.0,4.0,1.0
2022-05-06 15:02:16.165961-07:00,1021.1,661.1,1186.7,1066.9,947.5,778.6,1746.4,1323.2,3468.6,3475.9,1181.5,812.7,1757.0,3472.2,1688.1,1583.3,3475.9,3478.3,324.4,549.0,814.4,1056.5,473.5,2051.4,3471.0,3480.7,709.3,907.6,1865.4,1176.2,1007.3,942.4,18.0,-12.0,2.0,541.0,3698.0,11492.0,-11064.0,-151.0,-81.0,74.0,-1.0,1.0,9.0,8698.0,-13106.0,4385.0,-1336.0,-76.0,-35.0,-1.0,1.0
2022-05-06 15:02:16.196604-07:00,1017.6,665.2,1197.4,1066.9,939.8,778.6,1746.4,1323.2,3466.1,3473.4,1189.4,812.7,1749.3,3472.2,1688.1,1583.3,3475.9,3478.3,324.4,544.2,814.4,1053.0,473.5,2032.4,3471.0,3480.7,709.3,903.4,1865.4,1171.8,1010.8,935.6,17.0,11.0,16.0,594.0,3718.0,11494.0,-11052.0,68.0,-6.0,139.0,0.0,-5.0,9.0,8707.0,-13105.0,4375.0,-1319.0,113.0,-52.0,15.0,1.0
2022-05-06 15:02:16.225945-07:00,1017.6,665.2,1197.4,1059.9,939.8,776.1,1737.8,1311.5,3466.1,3473.4,1189.4,809.4,1749.3,3474.6,1672.9,1576.8,3471.0,3472.2,320.5,544.2,821.9,1053.0,473.5,2032.4,3475.9,3467.4,697.9,903.4,1849.8,1171.8,1010.8,935.6,-1.0,31.0,7.0,603.0,3731.0,11504.0,-11037.0,-169.0,-5.0,-63.0,-7.0,0.0,23.0,8708.0,-13107.0,4372.0,-1305.0,-152.0,0.0,-1.0,1.0
2022-05-06 15:02:16.286332-07:00,1025.4,665.2,1184.1,1059.9,934.7,776.1,1737.8,1311.5,3467.4,3474.6,1189.4,809.4,1746.4,3474.6,1672.9,1576.8,3471.0,3472.2,320.5,538.6,821.9,1054.8,475.8,2020.4,3475.9,3467.4,697.9,900.0,1849.8,1176.2,1009.0,944.1,21.0,-30.0,0.0,603.0,3712.0,11536.0,-11010.0,54.0,33.0,42.0,-4.0,-13.0,-9.0,8682.0,-13124.0,4377.0,-1295.0,97.0,-4.0,21.0,1.0
2022-05-06 15:02:16.345736-07:00,1025.4,665.2,1184.1,1067.7,934.7,773.6,1739.7,1317.8,3467.4,3474.6,1189.4,815.2,1746.4,3467.4,1664.4,1565.5,3472.2,3469.8,322.1,538.6,818.5,1054.8,475.8,2020.4,3478.3,3473.4,695.4,900.0,1855.7,1176.2,1009.0,944.1,11.0,25.0,-7.0,596.0,3730.0,11535.0,-11006.0,-140.0,-3.0,-51.0,3.0,3.0,9.0,8667.0,-13132.0,4383.0,-1288.0,-170.0,8.0,4.0,1.0
2022-05-06 15:02:16.436222-07:00,1018.5,662.7,1185.9,1067.7,939.0,773.6,1739.7,1317.8,3478.3,3466.1,1181.5,815.2,1747.3,3467.4,1664.4,1565.5,3472.2,3469.8,322.1,547.4,818.5,1054.8,471.1,2033.4,3478.3,3473.4,695.4,898.3,1855.7,1165.6,1009.0,939.0,30.0,-24.0,0.0,601.0,3688.0,11578.0,-10974.0,-23.0,-54.0,-50.0,-2.0,7.0,-4.0,8639.0,-13152.0,4380.0,-1281.0,25.0,-13.0,-16.0,1.0
2022-05-06 15:02:16.437777-07:00,1018.5,662.7,1185.9,1061.7,943.2,774.5,1736.8,1307.9,3478.3,3466.1,1181.5,811.9,1743.5,3474.6,1670.1,1572.1,3484.4,3483.2,322.8,545.0,811.0,1054.8,471.1,2033.4,3481.9,3481.9,691.3,894.9,1852.8,1165.6,1009.0,939.0,3.0,17.0,0.0,604.0,3672.0,11569.0,-10988.0,-39.0,-56.0,-44.0,-1.0,3.0,9.0,8644.0,-13151.0,4371.0,-1287.0,-68.0,-2.0,-27.0,1.0
2022-05-06 15:02:16.495838-07:00,1021.9,670.9,1185.9,1070.3,943.2,774.5,1736.8,1307.9,3478.3,3471.0,1185.0,809.4,1743.5,3474.6,1670.1,1572.1,3484.4,3483.2,322.8,545.0,815.2,1049.6,467.1,2017.4,3481.9,3481.9,691.3,894.9,1845.9,1170.0,1003.9,939.0,15.0,-47.0,8.0,637.0,3634.0,11610.0,-10956.0,-109.0,-84.0,13.0,-4.0,-20.0,-3.0,8617.0,-13172.0,4364.0,-1281.0,-20.0,-22.0,-12.0,1.0
2022-05-06 15:02:16.526286-07:00,1021.9,670.9,1185.9,1070.3,932.2,772.8,1732.0,1304.3,3478.3,3471.0,1185.0,809.4,1740.6,3461.3,1667.2,1563.7,3477.1,3475.9,320.5,547.4,815.2,1049.6,467.1,2017.4,3480.7,3483.2,688.9,896.6,1845.9,1170.0,1003.9,939.0,17.0,29.0,6.0,660.0,3629.0,11597.0,-10970.0,39.0,-39.0,9.0,2.0,6.0,18.0,8641.0,-13160.0,4354.0,-1276.0,14.0,-28.0,-3.0,1.0
2022-05-06 15:02:16.585578-07:00,1021.1,663.6,1187.6,1065.1,932.2,772.8,1732.0,1304.3,3477.1,3473.4,1182.3,811.9,1740.6,3461.3,1667.2,1563.7,3477.1,3475.9,320.5,547.4,813.5,1053.0,472.7,1995.5,3480.7,3483.2,688.9,896.6,1840.1,1165.6,1005.6,935.6,20.0,-23.0,7.0,672.0,3601.0,11613.0,-10962.0,-57.0,-88.0,-37.0,-4.0,0.0,8.0,8631.0,-13168.0,4350.0,-1272.0,1.0,-7.0,-13.0,1.0
2022-05-06 15:02:16.615930-07:00,1021.1,663.6,1187.6,1065.1,936.4,771.1,1733.9,1299.0,3477.1,3473.4,1182.3,811.9,1739.7,3460.1,1664.4,1571.1,3483.2,3477.1,323.6,549.0,813.5,1053.0,472.7,1995.5,3481.9,3468.6,690.5,898.3,1840.1,1165.6,1005.6,935.6,9.0,10.0,6.0,685.0,3597.0,11610.0,-10965.0,-8.0,19.0,6.0,0.0,0.0,11.0,8638.0,-13164.0,4348.0,-1272.0,-30.0,-6.0,-3.0,1.0
2022-05-06 15:02:16.676240-07:00,1028.8,659.5,1179.7,1064.3,936.4,771.1,1733.9,1302.5,3475.9,3472.2,1183.2,818.5,1739.7,3460.1,1664.4,1565.5,3479.5,3477.1,323.6,549.0,815.2,1047.0,471.9,1991.5,3488.0,3468.6,690.5,898.3,1841.1,1175.3,1000.5,938.1,16.0,-7.0,5.0,685.0,3583.0,11616.0,-10963.0,24.0,-34.0,-27.0,-3.0,-12.0,8.0,8636.0,-13166.0,4348.0,-1272.0,41.0,-8.0,-11.0,1.0
2022-05-06 15:02:16.735955-07:00,1020.2,659.5,1179.7,1064.3,928.8,777.8,1729.1,1302.5,3467.4,3472.2,1183.2,818.5,1735.8,3466.1,1661.5,1565.5,3479.5,3474.6,324.4,543.4,815.2,1047.0,471.9,1979.6,3488.0,3469.8,692.1,895.7,1841.1,1175.3,1000.5,933.9,15.0,10.0,3.0,689.0,3584.0,11600.0,-10980.0,41.0,0.0,29.0,-1.0,0.0,-4.0,8656.0,-13153.0,4344.0,-1275.0,23.0,-9.0,-2.0,1.0
2022-05-06 15:02:16.766239-07:00,1020.2,658.7,1178.8,1072.9,928.8,777.8,1729.1,1305.2,3467.4,3480.7,1183.2,808.5,1735.8,3466.1,1661.5,1565.5,3479.5,3474.6,324.4,543.4,816.9,1047.0,471.1,1979.6,3474.6,3469.8,692.1,895.7,1815.8,1163.8,1000.5,933.9,11.0,-24.0,7.0,694.0,3579.0,11614.0,-10967.0,-34.0,-15.0,-2.0,-3.0,-12.0,11.0,8642.0,-13163.0,4346.0,-1270.0,1.0,-7.0,1.0,1.0
2022-05-06 15:02:16.826684-07:00,1026.3,658.7,1178.8,1072.9,925.4,769.5,1720.5,1305.2,3477.1,3480.7,1183.2,808.5,1732.0,3473.4,1667.2,1565.5,3479.5,3474.6,323.6,540.2,816.9,1047.0,471.1,1971.7,3474.6,3477.1,697.9,884.8,1815.8,1163.8,1000.5,933.0,20.0,8.0,2.0,701.0,3575.0,11601.0,-10981.0,21.0,-24.0,5.0,-1.0,4.0,-2.0,8658.0,-13153.0,4342.0,-1272.0,3.0,-7.0,-3.0,1.0
2022-05-06 15:02:16.915665-07:00,1026.3,661.9,1181.5,1068.6,925.4,769.5,1720.5,1299.0,3477.1,3477.1,1176.2,807.7,1732.0,3473.4,1667.2,1559.0,3477.1,3474.6,323.6,540.2,816.9,1053.0,470.3,1971.7,3467.4,3477.1,697.9,884.8,1821.6,1161.2,1008.2,933.0,14.0,-9.0,1.0,702.0,3564.0,11613.0,-10972.0,-45.0,-23.0,-28.0,0.0,-6.0,14.0,8645.0,-13162.0,4342.0,-1265.0,-34.0,-11.0,-8.0,1.0
2022-05-06 15:02:16.917199-07:00,1020.2,662.7,1181.5,1068.6,926.2,772.0,1731.1,1299.0,3473.4,3473.4,1176.2,807.7,1733.9,3466.1,1656.8,1559.0,3477.1,3467.4,317.4,542.6,816.9,1053.0,470.3,1958.8,3467.4,3475.9,690.5,874.7,1821.6,1161.2,1004.8,932.2,26.0,-10.0,3.0,711.0,3545.0,11606.0,-10985.0,66.0,-46.0,1.0,0.0,3.0,-2.0,8659.0,-13155.0,4337.0,-1263.0,76.0,-20.0,-7.0,1.0
2022-05-06 15:02:16.976382-07:00,1020.2,662.7,1174.4,1065.1,926.2,772.0,1728.2,1299.0,3473.4,3473.4,1170.0,811.9,1733.9,3466.1,1657.7,1565.5,3477.1,3478.3,317.4,542.6,818.5,1050.4,470.3,1958.8,3484.4,3486.8,690.5,874.7,1829.4,1158.6,1004.8,932.2,2.0,18.0,1.0,705.0,3544.0,11588.0,-11004.0,18.0,-1.0,-12.0,0.0,-2.0,21.0,8676.0,-13145.0,4332.0,-1263.0,-31.0,3.0,-12.0,1.0
2022-05-06 15:02:17.035514-07:00,1015.9,660.3,1174.4,1065.1,931.3,772.0,1728.2,1299.0,3466.1,3478.3,1170.0,811.9,1730.1,3477.1,1657.7,1565.5,3477.1,3478.3,321.3,542.6,818.5,1050.4,467.9,1967.7,3484.4,3486.8,688.9,889.0,1829.4,1158.6,999.6,939.8,19.0,-10.0,0.0,710.0,3510.0,11601.0,-11001.0,-19.0,-97.0,-76.0,-2.0,4.0,10.0,8673.0,-13149.0,4326.0,-1265.0,52.0,4.0,-25.0,1.0
2022-05-06 15:02:17.066120-07:00,1015.9,660.3,1184.1,1070.3,931.3,772.0,1730.1,1290.9,3466.1,3478.3,1175.3,811.9,1730.1,3477.1,1655.8,1556.2,3472.2,3474.6,321.3,542.6,816.0,1051.3,467.9,1967.7,3468.6,3484.4,688.9,889.0,1841.1,1161.2,999.6,939.8,16.0,-4.0,2.0,713.0,3483.0,11587.0,-11024.0,79.0,-10.0,18.0,2.0,0.0,7.0,8698.0,-13134.0,4317.0,-1278.0,37.0,-2.0,-12.0,1.0
2022-05-06 15:02:17.126286-07:00,1023.7,659.5,1184.1,1070.3,937.3,771.1,1730.1,1290.9,3463.7,3472.2,1175.3,811.9,1729.1,3469.8,1655.8,1556.2,3472.2,3474.6,323.6,543.4,816.0,1051.3,471.1,1974.6,3468.6,3484.4,692.9,889.8,1841.1,1161.2,999.6,935.6,5.0,1.0,0.0,719.0,3470.0,11592.0,-11023.0,-76.0,-71.0,-37.0,-4.0,-8.0,18.0,8691.0,-13139.0,4317.0,-1276.0,-35.0,-2.0,-9.0,1.0
2022-05-06 15:02:17.185492-07:00,1023.7,659.5,1177.0,1062.5,937.3,768.7,1727.2,1296.3,3463.7,3472.2,1176.2,810.2,1729.1,3473.4,1649.2,1554.3,3478.3,3474.6,320.5,543.4,817.7,1049.6,471.1,1974.6,3474.6,3479.5,684.8,889.8,1828.4,1162.1,999.6,935.6,22.0,13.0,0.0,727.0,3442.0,11596.0,-11027.0,76.0,-3.0,8.0,0.0,14.0,-10.0,8700.0,-13134.0,4315.0,-1277.0,45.0,1.0,-11.0,1.0
2022-05-06 15:02:17.215991-07:00,1020.2,657.9,1177.9,1062.5,923.7,768.7,1727.2,1296.3,3467.4,3474.6,1177.9,810.2,1717.7,3473.4,1649.2,1554.3,3478.3,3474.6,320.5,545.8,817.7,1050.4,467.1,1980.6,3474.6,3479.5,684.8,885.6,1828.4,1157.7,1004.8,927.9,13.0,-2.0,-1.0,712.0,3435.0,11600.0,-11026.0,-80.0,-19.0,-66.0,0.0,-3.0,7.0,8687.0,-13144.0,4311.0,-1277.0,-108.0,8.0,-23.0,1.0
2022-05-06 15:02:17.276283-07:00,1020.2,657.9,1177.9,1066.0,923.7,764.5,1710.0,1289.1,3467.4,3474.6,1177.9,812.7,1717.7,3457.6,1653.0,1555.3,3474.6,3475.9,322.8,545.8,816.9,1050.4,467.1,1980.6,3479.5,3471.0,686.4,885.6,1825.5,1157.7,1004.8,927.9,15.0,-31.0,9.0,713.0,3410.0,11630.0,-11002.0,-12.0,-3.0,-11.0,0.0,-14.0,3.0,8663.0,-13160.0,4309.0,-1273.0,67.0,-8.0,1.0,1.0
2022-05-06 15:02:17.336101-07:00,1015.1,666.0,1179.7,1066.0,926.2,764.5,1710.0,1289.1,3471.0,3468.6,1173.5,812.7,1728.2,3457.6,1653.0,1555.3,3474.6,3475.9,322.8,545.8,816.9,1047.8,464.0,1998.5,3479.5,3471.0,686.4,880.6,1825.5,1149.8,994.5,927.9,5.0,20.0,-2.0,710.0,3417.0,11614.0,-11017.0,-30.0,-13.0,-13.0,-2.0,2.0,7.0,8676.0,-13152.0,4308.0,-1276.0,-104.0,2.0,-2.0,1.0
2022-05-06 15:02:17.425876-07:00,1015.1,666.0,1179.7,1055.6,926.2,772.0,1716.7,1298.1,3471.0,3468.6,1173.5,806.0,1728.2,3472.2,1653.9,1552.5,3457.6,3474.6,322.8,545.8,815.2,1047.8,464.0,1998.5,3469.8,3480.7,688.9,880.6,1835.2,1149.8,994.5,927.9,15.0,-23.0,2.0,722.0,3401.0,11639.0,-10994.0,0.0,-18.0,16.0,0.0,-7.0,6.0,8657.0,-13164.0,4310.0,-1270.0,114.0,-12.0,7.0,1.0
2022-05-06 15:02:17.427273-07:00,1009.0,653.0,1182.3,1055.6,924.5,772.0,1716.7,1298.1,3464.9,3467.4,1170.9,806.0,1725.3,3472.2,1653.9,1552.5,3457.6,3474.6,322.8,545.8,815.2,1048.7,465.6,1986.6,3469.8,3480.7,688.9,880.6,1835.2,1159.4,1003.0,933.9,-6.0,-71.0,-13.0,739.0,3408.0,11570.0,-11064.0,387.0,-132.0,98.0,-7.0,-45.0,23.0,8753.0,-13103.0,4295.0,-1291.0,453.0,-45.0,10.0,1.0
2022-05-06 15:02:17.485996-07:00,1009.0,653.0,1182.3,1061.7,928.8,766.2,1719.6,1292.7,3464.9,3467.4,1170.9,807.7,1737.8,3466.1,1644.5,1550.6,3488.0,3477.1,325.9,535.4,811.0,1048.7,465.6,1986.6,3479.5,3477.1,682.3,878.9,1817.8,1159.4,1003.0,933.9,-2.0,-96.0,-61.0,836.0,3424.0,11234.0,-11394.0,1530.0,-487.0,483.0,-5.0,-42.0,-9.0,9160.0,-12835.0,4233.0,-1373.0,1668.0,-193.0,29.0,1.0
2022-05-06 15:02:17.515957-07:00,1021.1,666.8,1167.4,1058.2,928.8,766.2,1719.6,1292.7,3479.5,3475.9,1171.8,809.4,1737.8,3466.1,1644.5,1550.6,3488.0,3477.1,325.9,535.4,811.0,1047.8,460.8,1995.5,3479.5,3477.1,682.3,878.9,1816.8,1158.6,997.9,922.0,20.0,29.0,-86.0,1057.0,3429.0,10555.0,-12006.0,2068.0,-841.0,657.0,-4.0,25.0,-47.0,9874.0,-12330.0,4083.0,-1498.0,2136.0,-353.0,-10.0,1.0
2022-05-06 15:02:17.576369-07:00,1021.1,666.8,1167.4,1058.2,927.1,773.6,1716.7,1288.2,3479.5,3475.9,1171.8,809.4,1731.1,3471.0,1644.5,1554.3,3469.8,3466.1,317.4,539.4,811.0,1047.8,460.8,1995.5,3475.9,3477.1,684.8,873.8,1816.8,1158.6,997.9,922.0,23.0,18.0,-58.0,1350.0,3343.0,9821.0,-12609.0,1939.0,-1078.0,612.0,-6.0,10.0,-26.0,10588.0,-11782.0,3868.0,-1599.0,2104.0,-457.0,-62.0,1.0
2022-05-06 15:02:17.635797-07:00,1012.5,657.9,1171.8,1062.5,927.1,773.6,1716.7,1288.2,3473.4,3474.6,1163.8,811.0,1731.1,3471.0,1644.5,1554.3,3469.8,3466.1,317.4,539.4,809.4,1056.5,464.0,2076.5,3475.9,3477.1,684.8,873.8,1836.2,1157.7,997.0,931.3,23.0,51.0,-25.0,1649.0,3156.0,9099.0,-13152.0,1730.0,-1170.0,436.0,-4.0,3.0,4.0,11241.0,-11231.0,3622.0,-1679.0,1888.0,-459.0,-87.0,1.0
2022-05-06 15:02:17.666102-07:00,1012.5,657.9,1171.8,1062.5,925.4,767.8,1728.2,1291.8,3473.4,3474.6,1163.8,811.0,1773.3,3473.4,1641.6,1549.7,3475.9,3475.9,323.6,541.8,809.4,1056.5,464.0,2076.5,3474.6,3464.9,701.9,880.6,1836.2,1157.7,997.0,931.3,24.0,-28.0,40.0,1943.0,2893.0,8439.0,-13604.0,1658.0,-1227.0,409.0,3.0,-18.0,16.0,11812.0,-10694.0,3389.0,-1753.0,1893.0,-394.0,-53.0,1.0
2022-05-06 15:02:17.756603-07:00,1015.9,653.0,1173.5,1050.4,925.4,767.8,1728.2,1292.7,3481.9,3475.9,1171.8,810.2,1773.3,3473.4,1641.6,1563.7,3472.2,3475.9,323.6,541.8,812.7,1047.8,464.0,2272.4,3474.6,3464.9,701.9,880.6,1824.6,1159.4,997.0,923.7,18.0,44.0,-12.0,2213.0,2667.0,7634.0,-14076.0,2020.0,-1155.0,426.0,0.0,-3.0,20.0,12399.0,-10064.0,3166.0,-1842.0,2046.0,-328.0,-33.0,1.0
2022-05-06 15:02:17.785872-07:00,1021.1,653.0,1173.5,1050.4,922.0,768.7,1718.6,1292.7,3471.0,3475.9,1171.8,810.2,1780.1,3477.1,1648.3,1563.7,3472.2,3474.6,322.1,541.0,812.7,1047.8,464.0,2522.9,3474.6,3478.3,685.6,883.1,1824.6,1159.4,997.0,922.0,25.0,-40.0,36.0,2448.0,2417.0,6844.0,-14483.0,1684.0,-1029.0,455.0,-16.0,-47.0,-27.0,12897.0,-9464.0,2966.0,-1929.0,1668.0,-283.0,17.0,1.0
2022-05-06 15:02:17.815768-07:00,1021.1,659.5,1182.3,1044.4,922.0,768.7,1718.6,1291.8,3471.0,3467.4,1162.1,808.5,1780.1,3477.1,1648.3,1555.3,3485.6,3474.6,322.1,541.0,807.7,1041.8,470.3,2522.9,3473.4,3478.3,685.6,883.1,1810.0,1156.8,1000.5,922.0,44.0,120.0,-3.0,2650.0,2295.0,6230.0,-14742.0,1020.0,-534.0,246.0,11.0,54.0,-10.0,13240.0,-9017.0,2826.0,-1961.0,869.0,-197.0,22.0,1.0
2022-05-06 15:02:17.905888-07:00,1018.5,659.5,1182.3,1044.4,913.5,774.5,1721.5,1291.8,3462.5,3467.4,1162.1,808.5,1787.8,3462.5,1649.2,1555.3,3485.6,3475.9,324.4,535.4,807.7,1041.8,470.3,2503.6,3473.4,3472.2,686.4,882.3,1810.0,1156.8,1000.5,941.5,13.0,17.0,18.0,2699.0,2162.0,6024.0,-14839.0,238.0,-406.0,-52.0,0.0,25.0,52.0,13347.0,-8881.0,2750.0,-1964.0,290.0,-103.0,-27.0,1.0
2022-05-06 15:02:17.965610-07:00,1018.5,657.9,1171.8,1046.1,913.5,774.5,1721.5,1290.9,3462.5,3469.8,1164.7,811.9,1787.8,3462.5,1649.2,1574.9,3462.5,3475.9,324.4,535.4,811.9,1048.7,473.5,2503.6,3479.5,3472.2,686.4,882.3,1848.9,1156.8,997.0,941.5,-25.0,-65.0,-4.0,2756.0,2021.0,5810.0,-14933.0,787.0,-510.0,109.0,-7.0,-68.0,40.0,13477.0,-8703.0,2670.0,-1982.0,892.0,-157.0,-17.0,1.0
2022-05-06 15:02:18.026810-07:00,1019.4,653.0,1171.8,1046.1,913.5,770.3,1711.9,1290.9,3467.4,3477.1,1164.7,811.9,1788.7,3473.4,1646.4,1574.9,3462.5,3474.6,320.5,537.0,811.9,1048.7,473.5,2525.0,3479.5,3474.6,683.1,879.7,1848.9,1156.8,992.7,968.8,2.0,18.0,-40.0,2816.0,1929.0,5540.0,-15036.0,-274.0,129.0,1.0,-22.0,-71.0,14.0,13616.0,-8504.0,2599.0,-1990.0,-440.0,19.0,115.0,1.0
2022-05-06 15:02:18.027714-07:00,1019.4,653.0,1154.2,1036.6,913.5,770.3,1718.6,1282.8,3467.4,3477.1,1166.5,818.5,1788.7,3473.4,1620.9,1519.0,3467.4,3483.2,320.5,537.0,812.7,1045.2,473.5,2525.0,3467.4,3489.2,683.1,879.7,1878.1,1161.2,992.7,968.8,21.0,10.0,1.0,2760.0,1891.0,5565.0,-15042.0,5.0,-89.0,-112.0,16.0,9.0,38.0,13583.0,-8550.0,2616.0,-1994.0,-91.0,46.0,1.0,1.0
2022-05-06 15:02:18.086159-07:00,1027.1,657.0,1154.2,1036.6,900.0,766.2,1718.6,1282.8,3471.0,3478.3,1166.5,818.5,1767.5,3474.6,1620.9,1519.0,3467.4,3483.2,323.6,541.0,812.7,1045.2,478.2,2533.6,3467.4,3489.2,671.7,871.3,1878.1,1161.2,999.6,947.5,16.0,7.0,3.0,2734.0,1803.0,5592.0,-15048.0,-212.0,-222.0,-152.0,1.0,8.0,24.0,13538.0,-8609.0,2652.0,-2003.0,-342.0,133.0,-4.0,1.0
2022-05-06 15:02:18.115952-07:00,1027.1,657.0,1165.6,1055.6,900.0,766.2,1707.2,1284.6,3471.0,3478.3,1159.4,822.7,1767.5,3474.6,1605.8,1499.5,3477.1,3472.2,323.6,541.0,811.9,1053.0,478.2,2533.6,3479.5,3473.4,671.7,871.3,1892.8,1162.1,999.6,947.5,68.0,49.0,-15.0,2749.0,1595.0,5729.0,-15017.0,-482.0,-564.0,-180.0,35.0,7.0,41.0,13422.0,-8762.0,2723.0,-2027.0,-635.0,217.0,-50.0,1.0
2022-05-06 15:02:18.175927-07:00,1025.4,659.5,1165.6,1055.6,905.9,765.3,1707.2,1284.6,3475.9,3467.4,1159.4,822.7,1811.9,3473.4,1605.8,1499.5,3477.1,3472.2,325.9,541.0,811.9,1053.0,487.7,2494.0,3479.5,3473.4,670.9,873.0,1892.8,1162.1,997.9,939.0,55.0,79.0,32.0,2735.0,1365.0,6103.0,-14894.0,-1580.0,17.0,-245.0,-1.0,75.0,-51.0,13067.0,-9237.0,2869.0,-2032.0,-2142.0,349.0,-143.0,1.0
2022-05-06 15:02:18.235919-07:00,1025.4,659.5,1149.8,1025.4,905.9,762.9,1741.6,1338.6,3475.9,3467.4,1142.7,815.2,1811.9,3473.4,1566.5,1454.3,3474.6,3477.1,332.9,541.0,813.5,1049.6,487.7,2494.0,3471.0,3478.3,676.6,873.0,1857.6,1154.2,997.9,939.0,21.0,-14.0,-13.0,2567.0,1436.0,7134.0,-14453.0,-2890.0,1254.0,-330.0,-25.0,2.0,-67.0,12224.0,-10261.0,3160.0,-1930.0,-3476.0,488.0,-65.0,1.0
2022-05-06 15:02:18.295835-07:00,1023.7,684.0,1103.4,1025.4,905.0,762.9,1741.6,1338.6,3473.4,3467.4,1109.5,815.2,1841.1,3473.4,1566.5,1454.3,3474.6,3477.1,332.9,540.2,813.5,1047.8,494.8,2469.5,3471.0,3478.3,676.6,842.8,1857.6,1100.8,959.4,935.6,18.0,2.0,-56.0,2273.0,1764.0,8423.0,-13755.0,-3395.0,1682.0,-272.0,-24.0,0.0,-30.0,11176.0,-11331.0,3474.0,-1753.0,-3545.0,440.0,31.0,1.0
2022-05-06 15:02:18.325838-07:00,1023.7,684.0,1103.4,1000.5,905.0,765.3,1774.3,1344.0,3473.4,3467.4,1109.5,809.4,1841.1,3477.1,1448.8,1387.5,3478.3,3472.2,332.9,540.2,821.0,1047.8,494.8,2469.5,3477.1,3475.9,667.6,842.8,1834.3,1100.8,959.4,935.6,-8.0,10.0,-72.0,1931.0,2169.0,9745.0,-12847.0,-3241.0,2052.0,-133.0,-20.0,-66.0,-19.0,10079.0,-12260.0,3763.0,-1548.0,-3227.0,461.0,84.0,1.0
2022-05-06 15:02:18.385540-07:00,1037.5,685.6,1085.1,1000.5,901.7,765.3,1774.3,1344.0,3466.1,3464.9,1079.9,809.4,1801.3,3477.1,1448.8,1387.5,3478.3,3472.2,332.9,557.8,821.0,1049.6,498.0,2493.0,3477.1,3475.9,667.6,834.4,1834.3,1079.9,928.8,927.9,-1.0,-30.0,-30.0,1575.0,2531.0,10856.0,-11904.0,-3035.0,1569.0,-247.0,-7.0,-42.0,8.0,9058.0,-12975.0,4015.0,-1380.0,-2728.0,438.0,75.0,1.0
2022-05-06 15:02:18.445956-07:00,1037.5,685.6,1085.1,991.9,901.7,762.0,1733.0,1316.9,3466.1,3464.9,1079.9,801.9,1801.3,3481.9,1395.7,1365.7,3475.9,3477.1,334.4,557.8,821.9,1049.6,498.0,2493.0,3477.1,3475.9,659.5,834.4,1816.8,1079.9,928.8,927.9,-10.0,23.0,-35.0,1256.0,2762.0,11693.0,-11068.0,-2378.0,1223.0,-356.0,-10.0,-9.0,-4.0,8215.0,-13482.0,4200.0,-1239.0,-2217.0,323.0,56.0,1.0
2022-05-06 15:02:18.476019-07:00,1042.6,682.3,1076.4,981.6,898.3,762.0,1733.0,1316.9,3468.6,3467.4,1059.9,800.2,1787.8,3481.9,1395.7,1365.7,3475.9,3477.1,334.4,540.2,811.9,1051.3,501.2,2490.8,3477.1,3475.9,659.5,787.7,1796.5,1066.0,921.1,919.4,12.0,-60.0,-23.0,996.0,2874.0,12320.0,-10363.0,-1597.0,896.0,-313.0,-7.0,-20.0,11.0,7553.0,-13835.0,4328.0,-1121.0,-1380.0,203.0,52.0,1.0
2022-05-06 15:02:18.565448-07:00,1042.6,682.3,1076.4,981.6,897.4,754.6,1716.7,1336.8,3468.6,3467.4,1059.9,800.2,1768.5,3464.9,1375.7,1354.0,3472.2,3480.7,334.4,548.2,811.9,1051.3,501.2,2490.8,3488.0,3467.4,661.9,757.1,1796.5,1066.0,921.1,919.4,-2.0,6.0,-44.0,795.0,2973.0,12578.0,-10038.0,-529.0,540.0,-123.0,-5.0,0.0,-12.0,7293.0,-13956.0,4394.0,-1082.0,-499.0,127.0,77.0,1.0
2022-05-06 15:02:18.626131-07:00,1047.8,687.2,1053.0,973.9,897.4,754.6,1716.7,1336.8,3472.2,3467.4,1047.8,791.0,1768.5,3464.9,1375.7,1354.0,3472.2,3480.7,334.4,548.2,817.7,1043.5,501.2,2450.4,3488.0,3467.4,661.9,757.1,1795.5,1027.1,911.8,912.7,5.0,-59.0,4.0,695.0,3024.0,12734.0,-9831.0,-387.0,261.0,-62.0,-1.0,-29.0,7.0,7088.0,-14045.0,4454.0,-1052.0,-314.0,84.0,58.0,1.0
2022-05-06 15:02:18.627331-07:00,1047.8,687.2,1053.0,973.9,900.8,752.1,1711.0,1375.7,3472.2,3467.4,1047.8,791.0,1764.6,3473.4,1358.5,1341.3,3474.6,3473.4,329.0,547.4,817.7,1043.5,501.2,2450.4,3481.9,3478.3,657.0,742.2,1795.5,1027.1,911.8,912.7,9.0,22.0,-29.0,627.0,3096.0,12736.0,-9811.0,114.0,216.0,93.0,12.0,-3.0,4.0,7076.0,-14038.0,4490.0,-1060.0,235.0,29.0,54.0,1.0
2022-05-06 15:02:18.685461-07:00,1055.6,697.0,1042.6,956.0,900.8,752.1,1711.0,1375.7,3466.1,3461.3,1045.2,791.0,1764.6,3473.4,1358.5,1341.3,3474.6,3473.4,329.0,547.4,822.7,1045.2,494.0,2408.1,3481.9,3478.3,657.0,742.2,1787.8,1033.2,906.7,912.7,0.0,-27.0,20.0,641.0,3127.0,12782.0,-9740.0,-351.0,-55.0,28.0,-7.0,-32.0,14.0,7089.0,-14024.0,4513.0,-1072.0,-153.0,53.0,46.0,1.0
2022-05-06 15:02:18.716034-07:00,1062.5,697.0,1042.6,956.0,898.3,741.4,1706.2,1404.0,3477.1,3461.3,1045.2,791.0,1745.4,3463.7,1348.5,1334.1,3483.2,3467.4,340.6,552.2,822.7,1045.2,494.0,2371.3,3477.1,3478.3,652.2,728.2,1787.8,1033.2,906.7,910.1,18.0,-8.0,26.0,665.0,3162.0,12778.0,-9732.0,190.0,83.0,153.0,-5.0,5.0,5.0,7093.0,-14010.0,4548.0,-1080.0,221.0,56.0,94.0,1.0
2022-05-06 15:02:18.775999-07:00,1062.5,685.6,1029.7,950.9,898.3,741.4,1706.2,1412.2,3477.1,3474.6,1049.6,797.7,1745.4,3463.7,1348.5,1324.1,3479.5,3467.4,340.6,552.2,818.5,1050.4,493.2,2371.3,3483.2,3478.3,652.2,728.2,1772.3,1036.6,902.5,910.1,30.0,29.0,-7.0,657.0,3204.0,12766.0,-9735.0,-150.0,34.0,-31.0,0.0,18.0,-12.0,7125.0,-13978.0,4591.0,-1101.0,-150.0,74.0,57.0,1.0
2022-05-06 15:02:18.806046-07:00,1063.4,685.6,1029.7,950.9,902.5,738.1,1706.2,1412.2,3471.0,3474.6,1049.6,797.7,1733.0,3462.5,1344.0,1324.1,3479.5,3480.7,326.7,545.8,818.5,1050.4,493.2,2346.2,3483.2,3478.3,646.5,726.6,1772.3,1036.6,902.5,905.9,19.0,-27.0,-5.0,618.0,3209.0,12826.0,-9657.0,-194.0,167.0,-41.0,0.0,7.0,-11.0,7039.0,-14011.0,4623.0,-1094.0,-155.0,62.0,26.0,1.0
2022-05-06 15:02:18.867030-07:00,1063.4,680.7,1014.2,956.8,902.5,738.1,1706.2,1403.0,3471.0,3467.4,1037.5,792.7,1733.0,3462.5,1344.0,1318.7,3485.6,3480.7,326.7,545.8,816.0,1046.1,495.6,2346.2,3486.8,3478.3,646.5,726.6,1772.3,1022.8,898.3,905.9,2.0,14.0,-17.0,586.0,3247.0,12864.0,-9595.0,-194.0,64.0,-3.0,-1.0,1.0,-2.0,6982.0,-14033.0,4646.0,-1088.0,-163.0,23.0,20.0,1.0
2022-05-06 15:02:18.925848-07:00,1059.1,680.7,1014.2,956.8,891.5,736.5,1688.1,1403.0,3475.9,3467.4,1037.5,792.7,1723.4,3480.7,1341.3,1318.7,3485.6,3488.0,331.3,551.4,816.0,1046.1,495.6,2342.0,3486.8,3477.1,644.9,719.2,1772.3,1022.8,898.3,902.5,21.0,-18.0,18.0,608.0,3211.0,12925.0,-9524.0,-172.0,-48.0,-45.0,-5.0,11.0,-9.0,6923.0,-14062.0,4651.0,-1071.0,-91.0,-3.0,-11.0,1.0
2022-05-06 15:02:18.985460-07:00,1059.1,671.7,1022.8,959.4,891.5,736.5,1688.1,1384.8,3475.9,3472.2,1029.7,796.9,1723.4,3480.7,1341.3,1325.0,3477.1,3488.0,331.3,551.4,816.0,1052.2,494.8,2342.0,3478.3,3477.1,644.9,719.2,1776.2,1022.8,896.6,902.5,4.0,16.0,3.0,606.0,3214.0,12935.0,-9509.0,-21.0,-4.0,8.0,-4.0,10.0,-1.0,6910.0,-14068.0,4652.0,-1066.0,-2.0,-1.0,6.0,1.0
2022-05-06 15:02:19.016024-07:00,1057.3,673.3,1022.8,959.4,894.9,741.4,1674.8,1384.8,3475.9,3475.9,1029.7,796.9,1728.2,3466.1,1337.7,1325.0,3477.1,3472.2,329.0,546.6,816.0,1052.2,491.7,2287.9,3478.3,3481.9,640.8,715.1,1776.2,1022.8,890.7,899.1,17.0,-17.0,25.0,620.0,3190.0,12966.0,-9474.0,-132.0,-44.0,-41.0,1.0,-5.0,1.0,6872.0,-14087.0,4655.0,-1053.0,-110.0,-1.0,-2.0,1.0
2022-05-06 15:02:19.105959-07:00,1057.3,673.3,1012.5,944.1,894.9,741.4,1688.1,1375.7,3475.9,3475.9,1032.3,783.6,1728.2,3466.1,1339.5,1319.6,3469.8,3475.9,329.0,546.6,812.7,1045.2,491.7,2287.9,3473.4,3479.5,640.8,715.1,1772.3,1024.5,890.7,899.1,6.0,5.0,15.0,612.0,3192.0,12968.0,-9471.0,7.0,47.0,28.0,-1.0,-2.0,13.0,6868.0,-14088.0,4657.0,-1051.0,0.0,1.0,16.0,1.0
2022-05-06 15:02:19.107932-07:00,1048.7,675.0,1012.5,944.1,887.3,736.5,1688.1,1375.7,3475.9,3475.9,1032.3,783.6,1713.8,3477.1,1339.5,1319.6,3469.8,3475.9,329.0,542.6,812.7,1045.2,483.0,2302.5,3473.4,3479.5,636.7,711.8,1772.3,1024.5,889.8,899.1,12.0,-8.0,5.0,612.0,3192.0,12978.0,-9458.0,-56.0,-11.0,-21.0,-1.0,0.0,-4.0,6856.0,-14093.0,4660.0,-1046.0,-42.0,5.0,2.0,1.0
2022-05-06 15:02:19.165933-07:00,1048.7,675.0,1004.8,939.0,887.3,736.5,1667.2,1376.6,3475.9,3475.9,1030.6,792.7,1713.8,3477.1,1330.5,1316.9,3480.7,3475.9,329.0,542.6,812.7,1053.0,483.0,2302.5,3474.6,3479.5,636.7,711.8,1757.0,1034.0,889.8,899.1,8.0,13.0,-7.0,611.0,3186.0,12976.0,-9462.0,29.0,-26.0,-11.0,0.0,14.0,-1.0,6859.0,-14092.0,4660.0,-1045.0,25.0,-12.0,-3.0,1.0
2022-05-06 15:02:19.225906-07:00,1044.4,674.2,1004.8,939.0,890.7,731.5,1667.2,1376.6,3468.6,3473.4,1030.6,792.7,1710.0,3472.2,1330.5,1316.9,3480.7,3475.9,329.8,547.4,812.7,1053.0,484.5,2276.5,3474.6,3479.5,634.3,712.6,1757.0,1034.0,886.5,890.7,9.0,-6.0,13.0,627.0,3164.0,12992.0,-9446.0,-113.0,-80.0,-36.0,-1.0,-6.0,3.0,6840.0,-14103.0,4656.0,-1035.0,-91.0,-14.0,-17.0,1.0
2022-05-06 15:02:19.256615-07:00,1044.4,674.2,1003.9,935.6,890.7,734.0,1656.8,1367.6,3468.6,3473.4,1030.6,791.0,1710.0,3478.3,1329.6,1309.7,3478.3,3483.2,328.2,547.4,819.4,1051.3,484.5,2276.5,3474.6,3483.2,641.6,712.6,1760.8,1020.2,886.5,890.7,13.0,0.0,14.0,643.0,3128.0,12991.0,-9458.0,99.0,-39.0,0.0,-2.0,12.0,-4.0,6846.0,-14104.0,4647.0,-1030.0,105.0,-23.0,-10.0,1.0
2022-05-06 15:02:19.316453-07:00,1047.0,672.5,1003.0,935.6,893.2,734.0,1656.8,1367.6,3467.4,3475.9,1021.1,791.0,1709.1,3478.3,1329.6,1309.7,3478.3,3483.2,328.2,546.6,819.4,1048.7,488.5,2269.3,3474.6,3483.2,641.6,708.5,1760.8,1013.3,886.5,890.7,4.0,-2.0,10.0,648.0,3128.0,12980.0,-9474.0,-43.0,-30.0,-8.0,-1.0,-6.0,4.0,6859.0,-14098.0,4644.0,-1030.0,-32.0,-1.0,-6.0,1.0
2022-05-06 15:02:19.375869-07:00,1047.0,672.5,1003.0,930.5,893.2,733.2,1645.4,1362.1,3467.4,3475.9,1021.1,793.5,1709.1,3475.9,1334.1,1306.1,3480.7,3467.4,328.2,546.6,811.0,1048.7,488.5,2269.3,3475.9,3478.3,631.9,708.5,1760.8,1013.3,886.5,890.7,16.0,-6.0,14.0,658.0,3114.0,12987.0,-9467.0,27.0,-22.0,2.0,-1.0,1.0,1.0,6850.0,-14103.0,4645.0,-1026.0,32.0,-7.0,5.0,1.0
2022-05-06 15:02:19.406549-07:00,1046.1,677.4,1000.5,930.5,884.8,733.2,1645.4,1362.1,3474.6,3472.2,1028.0,793.5,1709.1,3475.9,1334.1,1306.1,3480.7,3467.4,328.2,550.6,811.0,1041.8,483.0,2259.0,3475.9,3478.3,631.9,707.7,1760.8,1013.3,883.9,890.7,7.0,6.0,1.0,654.0,3111.0,12978.0,-9481.0,-29.0,8.0,-17.0,-1.0,-2.0,1.0,6857.0,-14099.0,4644.0,-1028.0,-45.0,1.0,-8.0,1.0
2022-05-06 15:02:19.466354-07:00,1046.1,677.4,1000.5,929.6,884.8,733.2,1651.1,1362.1,3474.6,3472.2,1028.0,789.4,1709.1,3475.9,1335.9,1307.9,3475.9,3483.2,327.5,550.6,811.0,1041.8,483.0,2259.0,3472.2,3475.9,636.7,707.7,1750.2,1013.3,883.9,890.7,10.0,5.0,7.0,654.0,3104.0,12982.0,-9478.0,24.0,-15.0,-5.0,-3.0,4.0,0.0,6850.0,-14103.0,4643.0,-1025.0,9.0,-11.0,-5.0,1.0
2022-05-06 15:02:19.525938-07:00,1049.6,672.5,1008.2,932.2,883.9,733.2,1651.1,1362.1,3467.4,3478.3,1021.1,792.7,1711.0,3475.9,1335.9,1307.9,3475.9,3483.2,327.5,548.2,821.9,1046.1,483.7,2252.8,3472.2,3475.9,636.7,711.0,1745.4,1005.6,883.1,893.2,8.0,4.0,4.0,648.0,3094.0,12975.0,-9492.0,48.0,-24.0,-34.0,-3.0,-1.0,10.0,6855.0,-14101.0,4642.0,-1026.0,32.0,-7.0,-11.0,1.0
2022-05-06 15:02:19.556413-07:00,1049.6,672.5,1008.2,932.2,889.8,733.2,1650.2,1361.2,3467.4,3478.3,1021.1,792.7,1709.1,3468.6,1328.7,1307.9,3477.1,3478.3,330.5,552.2,821.9,1046.1,483.7,2252.8,3484.4,3475.9,635.9,705.2,1745.4,1005.6,883.1,893.2,16.0,4.0,10.0,651.0,3079.0,12970.0,-9503.0,22.0,-36.0,0.0,0.0,0.0,-2.0,6861.0,-14099.0,4639.0,-1028.0,30.0,-8.0,-4.0,1.0
2022-05-06 15:02:19.615570-07:00,1047.0,672.5,1003.0,930.5,889.8,733.2,1650.2,1361.2,3474.6,3466.1,1028.0,791.0,1709.1,3468.6,1328.7,1307.9,3477.1,3478.3,330.5,552.2,811.9,1049.6,483.7,2245.6,3484.4,3475.9,635.9,705.2,1747.3,1007.3,881.4,893.2,0.0,-12.0,14.0,650.0,3077.0,12971.0,-9502.0,-20.0,10.0,-8.0,-3.0,-15.0,11.0,6856.0,-14102.0,4638.0,-1025.0,-30.0,-1.0,-5.0,1.0
2022-05-06 15:02:19.676406-07:00,1047.0,672.5,1003.0,930.5,885.6,734.8,1641.6,1360.3,3474.6,3466.1,1028.0,791.0,1701.4,3475.9,1327.8,1307.0,3478.3,3479.5,330.5,541.8,811.9,1049.6,483.7,2245.6,3481.9,3478.3,647.3,706.0,1747.3,1007.3,881.4,893.2,10.0,3.0,0.0,649.0,3074.0,12962.0,-9516.0,33.0,1.0,16.0,-6.0,11.0,-7.0,6869.0,-14096.0,4638.0,-1029.0,33.0,-4.0,6.0,1.0
2022-05-06 15:02:19.706117-07:00,1045.2,663.6,993.6,927.9,885.6,734.8,1641.6,1360.3,3480.7,3469.8,1028.8,789.4,1701.4,3475.9,1327.8,1307.0,3478.3,3479.5,330.5,541.8,816.0,1043.5,481.4,2239.4,3481.9,3478.3,647.3,706.0,1745.4,1012.5,888.2,888.2,8.0,-10.0,12.0,648.0,3075.0,12964.0,-9513.0,-7.0,-3.0,-4.0,-1.0,-2.0,2.0,6867.0,-14096.0,4638.0,-1028.0,-12.0,1.0,-2.0,1.0
2022-05-06 15:02:19.765986-07:00,1047.0,663.6,993.6,927.9,886.5,724.9,1654.9,1361.2,3478.3,3469.8,1028.8,789.4,1703.3,3480.7,1326.8,1303.4,3480.7,3474.6,327.5,552.2,816.0,1043.5,481.4,2235.3,3475.9,3477.1,637.6,704.4,1745.4,1012.5,888.2,886.5,10.0,8.0,2.0,643.0,3075.0,12949.0,-9533.0,81.0,-8.0,7.0,-1.0,-2.0,3.0,6885.0,-14088.0,4637.0,-1034.0,69.0,-6.0,3.0,1.0
2022-05-06 15:02:19.825968-07:00,1047.0,677.4,998.7,928.8,886.5,724.9,1654.9,1350.3,3478.3,3478.3,1023.7,793.5,1703.3,3480.7,1326.8,1300.7,3477.1,3474.6,327.5,552.2,818.5,1044.4,483.0,2235.3,3479.5,3477.1,637.6,704.4,1734.9,1008.2,889.0,886.5,7.0,0.0,12.0,643.0,3077.0,12946.0,-9537.0,-36.0,5.0,-2.0,0.0,-2.0,9.0,6887.0,-14087.0,4637.0,-1034.0,-39.0,-2.0,-5.0,1.0
2022-05-06 15:02:19.856327-07:00,1044.4,677.4,998.7,928.8,883.9,734.0,1648.3,1350.3,3483.2,3478.3,1023.7,793.5,1698.6,3467.4,1321.4,1300.7,3477.1,3473.4,327.5,553.8,818.5,1044.4,483.0,2228.1,3479.5,3485.6,630.3,708.5,1734.9,1008.2,889.0,883.9,6.0,10.0,0.0,640.0,3076.0,12943.0,-9542.0,33.0,1.0,2.0,-5.0,-1.0,-1.0,6889.0,-14086.0,4636.0,-1035.0,42.0,-1.0,4.0,1.0
2022-05-06 15:02:19.915833-07:00,1044.4,670.1,994.5,933.0,883.9,734.0,1648.3,1359.4,3483.2,3474.6,1028.0,791.0,1698.6,3467.4,1321.4,1288.2,3484.4,3473.4,327.5,553.8,818.5,1048.7,481.4,2228.1,3478.3,3485.6,630.3,708.5,1736.8,1003.9,887.3,883.9,10.0,-7.0,11.0,642.0,3073.0,12952.0,-9530.0,-42.0,6.0,-6.0,-2.0,0.0,2.0,6877.0,-14091.0,4637.0,-1031.0,-40.0,-3.0,2.0,1.0
2022-05-06 15:02:19.975964-07:00,1043.5,670.1,994.5,933.0,880.6,729.0,1638.8,1359.4,3478.3,3474.6,1028.0,791.0,1692.9,3477.1,1318.7,1288.2,3484.4,3475.9,329.0,546.6,818.5,1048.7,481.4,2210.6,3478.3,3480.7,631.1,706.0,1736.8,1003.9,887.3,888.2,8.0,2.0,6.0,637.0,3073.0,12946.0,-9539.0,60.0,-4.0,-9.0,-2.0,1.0,0.0,6882.0,-14089.0,4637.0,-1032.0,45.0,0.0,1.0,1.0
2022-05-06 15:02:20.006093-07:00,1043.5,664.4,1003.0,920.3,880.6,729.0,1640.7,1349.4,3478.3,3478.3,1025.4,784.4,1692.9,3477.1,1325.0,1300.7,3483.2,3488.0,329.0,546.6,811.0,1046.1,479.8,2210.6,3489.2,3475.9,631.1,706.0,1716.7,1004.8,885.6,888.2,5.0,13.0,-4.0,637.0,3065.0,12961.0,-9520.0,-172.0,6.0,-14.0,-7.0,4.0,-1.0,6872.0,-14095.0,4636.0,-1030.0,-146.0,9.0,-14.0,1.0
2022-05-06 15:02:20.065948-07:00,1045.2,661.9,1003.0,920.3,884.8,731.5,1640.7,1349.4,3474.6,3471.0,1025.4,784.4,1690.0,3474.6,1325.0,1300.7,3483.2,3488.0,326.7,550.6,811.0,1046.1,486.9,2205.5,3489.2,3475.9,630.3,699.5,1716.7,1004.8,885.6,885.6,8.0,-24.0,18.0,642.0,3059.0,12980.0,-9496.0,38.0,-16.0,7.0,-1.0,-7.0,5.0,6832.0,-14114.0,4638.0,-1018.0,43.0,-6.0,5.0,1.0
2022-05-06 15:02:20.125952-07:00,1045.2,661.9,995.3,932.2,884.8,731.5,1637.9,1355.8,3474.6,3471.0,1025.4,791.0,1690.0,3474.6,1315.1,1290.9,3474.6,3488.0,326.7,550.6,814.4,1047.0,486.9,2205.5,3479.5,3479.5,630.3,699.5,1729.1,1008.2,885.6,885.6,2.0,17.0,3.0,639.0,3074.0,12982.0,-9490.0,-118.0,28.0,9.0,-4.0,0.0,4.0,6841.0,-14109.0,4639.0,-1020.0,-105.0,14.0,4.0,1.0
2022-05-06 15:02:20.156432-07:00,1043.5,670.1,995.3,932.2,882.3,724.9,1637.9,1355.8,3483.2,3473.4,1025.4,791.0,1692.9,3475.9,1315.1,1290.9,3474.6,3488.0,323.6,545.8,814.4,1047.0,481.4,2195.2,3479.5,3479.5,627.0,701.1,1729.1,1008.2,883.1,887.3,9.0,-9.0,6.0,639.0,3076.0,12999.0,-9465.0,9.0,15.0,13.0,-6.0,-5.0,0.0,6808.0,-14125.0,4642.0,-1012.0,-2.0,7.0,3.0,1.0
2022-05-06 15:02:20.215883-07:00,1043.5,670.1,996.2,928.8,882.3,724.9,1630.3,1344.9,3483.2,3473.4,1023.7,786.1,1692.9,3475.9,1309.7,1296.3,3478.3,3472.2,323.6,545.8,813.5,1050.4,481.4,2195.2,3474.6,3477.1,627.0,701.1,1733.9,1002.2,883.1,887.3,7.0,17.0,-5.0,635.0,3082.0,12989.0,-9478.0,5.0,-13.0,-6.0,0.0,8.0,-1.0,6820.0,-14119.0,4641.0,-1016.0,3.0,-4.0,-2.0,1.0
2022-05-06 15:02:20.275881-07:00,1036.6,665.2,993.6,928.8,878.0,732.3,1630.3,1344.9,3467.4,3467.4,1022.8,786.1,1688.1,3467.4,1309.7,1296.3,3478.3,3472.2,326.7,543.4,813.5,1053.0,480.6,2199.3,3474.6,3477.1,629.5,700.3,1733.9,1007.3,878.0,881.4,5.0,-12.0,6.0,647.0,3074.0,13003.0,-9460.0,-52.0,-31.0,-2.0,1.0,-14.0,3.0,6806.0,-14127.0,4639.0,-1012.0,-57.0,-2.0,-13.0,1.0
2022-05-06 15:02:20.305977-07:00,1036.6,665.2,993.6,928.8,878.0,726.6,1631.3,1350.3,3467.4,3467.4,1022.8,788.6,1688.1,3478.3,1315.1,1293.6,3483.2,3468.6,323.6,543.4,815.2,1053.0,480.6,2199.3,3477.1,3478.3,627.8,700.3,1727.2,1007.3,878.0,881.4,2.0,-31.0,-10.0,670.0,3067.0,12956.0,-9525.0,344.0,-136.0,64.0,-13.0,-24.0,1.0,6826.0,-14118.0,4635.0,-1015.0,234.0,-30.0,4.0,1.0
2022-05-06 15:02:20.395910-07:00,1041.8,661.9,994.5,928.8,878.0,726.6,1631.3,1350.3,3480.7,3466.1,1020.2,788.6,1686.2,3478.3,1315.1,1293.6,3483.2,3468.6,323.6,546.6,815.2,1053.9,483.0,2185.0,3477.1,3478.3,627.8,703.6,1727.2,1007.3,881.4,878.9,3.0,-157.0,-19.0,725.0,3054.0,12602.0,-9989.0,2354.0,-591.0,302.0,-22.0,-87.0,33.0,7069.0,-14002.0,4613.0,-1055.0,1784.0,-205.0,79.0,1.0
2022-05-06 15:02:20.425935-07:00,1041.8,661.9,994.5,927.1,878.0,747.2,1738.7,1371.2,3480.7,3466.1,1020.2,790.2,1686.2,3478.3,1348.5,1296.3,3467.4,3479.5,328.2,546.6,811.0,1053.9,483.0,2185.0,3472.2,3480.7,634.3,703.6,1723.4,1007.3,881.4,878.9,-5.0,-21.0,-180.0,948.0,3010.0,11560.0,-11173.0,3769.0,-1289.0,700.0,-22.0,0.0,-38.0,8035.0,-13492.0,4506.0,-1241.0,3264.0,-425.0,48.0,1.0
2022-05-06 15:02:20.456480-07:00,1047.8,670.1,1004.8,927.1,877.2,747.2,1738.7,1371.2,3466.1,3464.9,1028.0,790.2,1688.1,3478.3,1348.5,1296.3,3467.4,3479.5,328.2,550.6,811.0,1047.8,482.2,2188.1,3472.2,3480.7,634.3,848.6,1723.4,1006.5,876.4,905.9,10.0,-40.0,-93.0,1337.0,2853.0,10371.0,-12286.0,3490.0,-1612.0,731.0,-11.0,-39.0,-13.0,9216.0,-12776.0,4271.0,-1429.0,3231.0,-692.0,-32.0,1.0
2022-05-06 15:02:20.515502-07:00,1047.8,670.1,1004.8,927.9,877.2,767.0,1807.1,1343.1,3466.1,3464.9,1028.0,791.0,1687.2,3473.4,1344.9,1295.4,3477.1,3471.0,320.5,543.4,823.5,1047.8,482.2,2188.1,3479.5,3480.7,640.0,922.0,1733.0,1006.5,876.4,905.9,14.0,4.0,-126.0,1755.0,2656.0,8933.0,-13360.0,4026.0,-1719.0,849.0,-12.0,-1.0,-17.0,10489.0,-11857.0,3911.0,-1591.0,4136.0,-820.0,-28.0,1.0
2022-05-06 15:02:20.635581-07:00,1033.2,665.2,1021.9,936.4,877.2,767.0,1807.1,1343.1,3474.6,3475.9,1025.4,794.4,1687.2,3473.4,1344.9,1295.4,3477.1,3471.0,320.5,543.4,816.9,1054.8,483.0,2163.6,3479.5,3480.7,640.0,922.0,1726.3,1000.5,885.6,889.0,11.0,67.0,-138.0,2174.0,2332.0,7390.0,-14271.0,3612.0,-1915.0,602.0,0.0,40.0,-13.0,11772.0,-10708.0,3480.0,-1760.0,3643.0,-754.0,-80.0,1.0
2022-05-06 15:02:20.637254-07:00,1033.2,665.2,1021.9,936.4,890.7,777.8,1775.2,1329.6,3474.6,3475.9,1025.4,794.4,1679.5,3462.5,1348.5,1288.2,3481.9,3471.0,324.4,545.8,816.9,1054.8,483.0,2163.6,3473.4,3475.9,641.6,891.5,1726.3,1000.5,885.6,889.0,46.0,135.0,-60.0,2436.0,1900.0,6082.0,-14896.0,2630.0,-1604.0,138.0,-14.0,83.0,-9.0,12680.0,-9731.0,3065.0,-1887.0,2446.0,-655.0,-174.0,1.0
2022-05-06 15:02:20.695986-07:00,1029.7,661.9,1022.8,935.6,890.7,777.8,1775.2,1329.6,3474.6,3462.5,1035.7,791.9,1679.5,3462.5,1348.5,1288.2,3481.9,3471.0,324.4,545.8,802.7,1045.2,479.0,2153.4,3473.4,3475.9,641.6,891.5,1726.3,997.0,878.0,881.4,10.0,32.0,12.0,2522.0,1480.0,5092.0,-15296.0,2115.0,-1307.0,-141.0,0.0,68.0,48.0,13265.0,-9021.0,2697.0,-1957.0,1986.0,-567.0,-153.0,1.0
2022-05-06 15:02:20.755815-07:00,1029.7,661.9,1022.8,935.6,880.6,767.0,1768.5,1326.8,3474.6,3462.5,1035.7,791.9,1677.6,3461.3,1367.6,1303.4,3480.7,3467.4,332.1,546.6,802.7,1045.2,479.0,2153.4,3478.3,3467.4,644.0,899.1,1726.3,997.0,878.0,881.4,-74.0,67.0,309.0,2557.0,1319.0,4495.0,-15490.0,337.0,260.0,235.0,-1.0,-83.0,144.0,13554.0,-8643.0,2474.0,-1974.0,-119.0,-148.0,102.0,1.0
2022-05-06 15:02:20.758805-07:00,1027.1,665.2,1108.6,997.9,880.6,767.0,1768.5,1326.8,3468.6,3472.2,1065.1,799.4,1677.6,3461.3,1367.6,1303.4,3480.7,3467.4,332.1,546.6,807.7,1042.6,482.2,2144.3,3478.3,3467.4,644.0,899.1,1717.7,1021.9,898.3,883.9,29.0,64.0,-43.0,2492.0,1523.0,4385.0,-15514.0,939.0,414.0,-32.0,10.0,152.0,61.0,13681.0,-8460.0,2458.0,-1913.0,925.0,-94.0,174.0,1.0
2022-05-06 15:02:20.815459-07:00,1028.0,665.2,1108.6,997.9,880.6,776.1,1749.3,1335.0,3473.4,3472.2,1065.1,799.4,1702.4,3473.4,1526.4,1324.1,3488.0,3484.4,325.9,541.8,807.7,1042.6,482.2,2168.7,3479.5,3478.3,642.4,926.2,1717.7,1021.9,898.3,890.7,-32.0,69.0,-33.0,2444.0,1651.0,4293.0,-15534.0,-321.0,162.0,-73.0,0.0,10.0,68.0,13737.0,-8386.0,2429.0,-1870.0,-201.0,-60.0,28.0,1.0
2022-05-06 15:02:20.875910-07:00,1028.0,665.2,1151.5,1052.2,880.6,776.1,1749.3,1324.1,3473.4,3463.7,1094.7,801.0,1702.4,3473.4,1526.4,1400.3,3478.3,3484.4,325.9,541.8,815.2,1047.0,466.4,2168.7,3472.2,3478.3,642.4,926.2,1722.4,1064.3,931.3,890.7,-1.0,-37.0,-46.0,2460.0,1756.0,4474.0,-15469.0,-319.0,520.0,255.0,14.0,50.0,-4.0,13738.0,-8396.0,2429.0,-1822.0,79.0,-87.0,123.0,1.0
2022-05-06 15:02:20.905940-07:00,1017.6,665.2,1151.5,1052.2,882.3,781.9,1731.1,1324.1,3472.2,3463.7,1094.7,801.0,1909.5,3475.9,1684.3,1400.3,3478.3,3474.6,328.2,541.8,815.2,1047.0,466.4,2305.6,3472.2,3474.6,664.4,905.0,1722.4,1064.3,931.3,926.2,23.0,57.0,-48.0,2513.0,1957.0,4702.0,-15368.0,-599.0,553.0,190.0,26.0,58.0,56.0,13695.0,-8476.0,2431.0,-1774.0,-368.0,-41.0,9.0,1.0
2022-05-06 15:02:20.965621-07:00,1017.6,659.5,1155.9,1047.8,882.3,781.9,1731.1,1316.9,3472.2,3466.1,1112.1,803.5,1909.5,3475.9,1684.3,1554.3,3483.2,3474.6,328.2,541.8,811.9,1049.6,471.1,2305.6,3477.1,3474.6,664.4,905.0,1737.8,1196.5,1069.5,926.2,138.0,137.0,-18.0,2504.0,2144.0,5037.0,-15238.0,-859.0,639.0,-165.0,64.0,61.0,93.0,13582.0,-8652.0,2435.0,-1782.0,-722.0,92.0,-197.0,1.0
2022-05-06 15:02:21.026067-07:00,1028.8,659.5,1155.9,1047.8,872.1,777.8,1745.4,1316.9,3479.5,3466.1,1112.1,803.5,1946.9,3478.3,1713.8,1554.3,3483.2,3479.5,323.6,541.0,811.9,1049.6,471.1,2249.7,3477.1,3488.0,683.1,940.7,1737.8,1196.5,1069.5,943.2,31.0,31.0,61.0,2316.0,2369.0,5701.0,-14999.0,-1932.0,1081.0,-535.0,16.0,21.0,79.0,13226.0,-9153.0,2554.0,-1787.0,-1917.0,333.0,-77.0,1.0
2022-05-06 15:02:21.056380-07:00,1028.8,663.6,1142.7,1038.3,872.1,777.8,1719.6,1311.5,3479.5,3474.6,1115.6,797.7,1946.9,3478.3,1686.2,1538.5,3483.2,3481.9,323.6,541.0,814.4,1041.8,473.5,2249.7,3474.6,3481.9,683.1,940.7,1767.5,1195.6,1071.2,943.2,39.0,10.0,-6.0,2035.0,2653.0,6665.0,-14589.0,-2211.0,1366.0,-539.0,20.0,40.0,56.0,12637.0,-9891.0,2810.0,-1735.0,-2288.0,487.0,47.0,1.0
2022-05-06 15:02:21.115529-07:00,1027.1,662.7,1142.7,1038.3,884.8,779.4,1719.6,1311.5,3472.2,3471.0,1115.6,797.7,1954.8,3475.9,1686.2,1538.5,3483.2,3481.9,326.7,541.0,814.4,1041.8,471.1,2158.5,3474.6,3481.9,676.6,931.3,1767.5,1195.6,1063.4,934.7,16.0,6.0,-61.0,1705.0,2931.0,7663.0,-14079.0,-2325.0,1312.0,-700.0,-2.0,13.0,63.0,11904.0,-10690.0,3114.0,-1659.0,-2522.0,544.0,58.0,1.0
2022-05-06 15:02:21.175881-07:00,1027.1,662.7,1139.2,1036.6,884.8,779.4,1710.0,1307.0,3472.2,3471.0,1110.4,794.4,1954.8,3475.9,1671.9,1521.8,3471.0,3481.9,326.7,541.0,811.0,1053.0,471.1,2158.5,3477.1,3477.1,676.6,931.3,1763.7,1192.0,1063.4,934.7,-4.0,-20.0,-86.0,1380.0,3127.0,8584.0,-13530.0,-2226.0,1102.0,-663.0,-14.0,-38.0,29.0,11151.0,-11400.0,3400.0,-1605.0,-2382.0,584.0,36.0,1.0
2022-05-06 15:02:21.235888-07:00,1022.8,661.1,1139.2,1036.6,881.4,783.6,1710.0,1307.0,3473.4,3481.9,1110.4,794.4,1939.0,3484.4,1671.9,1521.8,3471.0,3481.9,329.0,543.4,811.0,1053.0,471.1,2127.0,3477.1,3477.1,679.9,926.2,1763.7,1192.0,1060.8,922.0,6.0,-53.0,-98.0,1110.0,3253.0,9423.0,-12955.0,-2136.0,955.0,-590.0,-18.0,-22.0,-13.0,10417.0,-12005.0,3665.0,-1542.0,-2214.0,496.0,101.0,1.0
2022-05-06 15:02:21.265575-07:00,1022.8,661.1,1140.1,1034.9,881.4,783.6,1713.8,1300.7,3473.4,3481.9,1099.9,796.9,1939.0,3484.4,1667.2,1511.5,3472.2,3481.9,329.0,543.4,807.7,1049.6,471.1,2127.0,3474.6,3484.4,679.9,926.2,1754.1,1186.7,1060.8,922.0,9.0,-18.0,-75.0,867.0,3378.0,10176.0,-12358.0,-1951.0,894.0,-502.0,-3.0,-21.0,47.0,9711.0,-12522.0,3906.0,-1444.0,-1955.0,406.0,133.0,1.0
2022-05-06 15:02:21.325924-07:00,1021.9,669.3,1137.5,1034.9,867.9,781.1,1713.8,1300.7,3478.3,3478.3,1115.6,796.9,1921.3,3475.9,1667.2,1511.5,3472.2,3481.9,328.2,543.4,807.7,1043.5,469.5,2122.0,3474.6,3484.4,672.5,922.8,1754.1,1181.5,1057.3,919.4,15.0,-14.0,-56.0,667.0,3455.0,10759.0,-11845.0,-1429.0,625.0,-431.0,1.0,-29.0,53.0,9138.0,-12896.0,4095.0,-1364.0,-1376.0,320.0,101.0,1.0
2022-05-06 15:02:21.385447-07:00,1021.9,669.3,1137.5,1032.3,867.9,779.4,1710.0,1293.6,3478.3,3478.3,1115.6,792.7,1921.3,3467.4,1655.8,1505.1,3478.3,3484.4,328.2,543.4,810.2,1043.5,469.5,2122.0,3478.3,3480.7,672.5,922.8,1759.8,1181.5,1057.3,919.4,15.0,-20.0,-39.0,502.0,3486.0,11113.0,-11512.0,-733.0,416.0,-310.0,0.0,-19.0,54.0,8776.0,-13107.0,4225.0,-1330.0,-727.0,243.0,71.0,1.0
2022-05-06 15:02:21.416509-07:00,1021.1,666.8,1141.0,1032.3,872.1,779.4,1710.0,1293.6,3472.2,3472.2,1099.0,792.7,1916.4,3467.4,1655.8,1505.1,3478.3,3484.4,328.2,537.0,810.2,1045.2,460.8,2095.7,3478.3,3480.7,672.5,910.1,1759.8,1181.5,1040.1,923.7,31.0,-27.0,-49.0,376.0,3514.0,11325.0,-11300.0,-572.0,349.0,-221.0,-4.0,2.0,18.0,8536.0,-13237.0,4316.0,-1317.0,-575.0,189.0,54.0,1.0
2022-05-06 15:02:21.476207-07:00,1021.1,666.8,1141.0,1024.5,872.1,778.6,1702.4,1289.1,3472.2,3472.2,1099.0,794.4,1916.4,3480.7,1652.0,1509.7,3464.9,3464.9,326.7,537.0,812.7,1045.2,460.8,2095.7,3479.5,3480.7,675.0,910.1,1753.1,1181.5,1040.1,923.7,0.0,-77.0,-34.0,292.0,3644.0,11406.0,-11180.0,-17.0,408.0,226.0,-14.0,-62.0,44.0,8437.0,-13276.0,4387.0,-1325.0,49.0,129.0,91.0,1.0
2022-05-06 15:02:21.506055-07:00,1017.6,656.2,1141.0,1024.5,864.6,778.6,1702.4,1289.1,3478.3,3469.8,1092.1,794.4,1914.4,3480.7,1652.0,1509.7,3464.9,3464.9,326.7,542.6,812.7,1048.7,460.0,2078.5,3479.5,3480.7,675.0,901.7,1753.1,1182.3,1042.6,915.2,13.0,92.0,-64.0,271.0,3798.0,11392.0,-11143.0,-229.0,240.0,129.0,-17.0,31.0,13.0,8419.0,-13269.0,4437.0,-1342.0,-265.0,97.0,46.0,1.0
2022-05-06 15:02:21.565599-07:00,1017.6,656.2,1141.0,1033.2,873.0,780.3,1705.3,1287.3,3478.3,3469.8,1092.1,796.0,1902.6,3473.4,1653.9,1500.4,3467.4,3479.5,328.2,541.8,813.5,1048.7,460.0,2078.5,3474.6,3478.3,687.2,898.3,1758.9,1182.3,1042.6,915.2,-15.0,-43.0,-24.0,248.0,3866.0,11529.0,-10978.0,-424.0,218.0,2.0,-24.0,-53.0,54.0,8255.0,-13361.0,4478.0,-1313.0,-351.0,61.0,20.0,1.0
2022-05-06 15:02:21.625519-07:00,1022.8,670.9,1138.4,1035.7,873.0,780.3,1705.3,1287.3,3488.0,3472.2,1095.6,791.0,1902.6,3473.4,1653.9,1500.4,3467.4,3479.5,328.2,541.8,811.0,1050.4,462.4,2079.5,3474.6,3478.3,687.2,898.3,1746.4,1174.4,1047.0,918.6,12.0,26.0,-43.0,249.0,3904.0,11572.0,-10919.0,-115.0,27.0,22.0,-6.0,-7.0,29.0,8215.0,-13380.0,4497.0,-1303.0,-107.0,8.0,20.0,1.0
2022-05-06 15:02:21.655929-07:00,1022.8,670.9,1138.4,1035.7,870.5,784.4,1699.5,1285.5,3488.0,3472.2,1095.6,791.0,1904.6,3475.9,1641.6,1503.2,3480.7,3479.5,323.6,542.6,811.0,1050.4,462.4,2079.5,3473.4,3477.1,672.5,906.7,1746.4,1174.4,1047.0,918.6,25.0,1.0,-24.0,253.0,3895.0,11641.0,-10848.0,-232.0,41.0,-53.0,-2.0,-25.0,47.0,8145.0,-13423.0,4502.0,-1279.0,-219.0,-5.0,-11.0,1.0
2022-05-06 15:02:21.715414-07:00,1017.6,656.2,1134.0,1031.4,870.5,784.4,1699.5,1285.5,3481.9,3469.8,1085.1,796.0,1904.6,3475.9,1641.6,1503.2,3480.7,3479.5,323.6,542.6,811.9,1048.7,464.8,2056.4,3473.4,3477.1,672.5,906.7,1753.1,1159.4,1046.1,910.1,15.0,-6.0,-23.0,268.0,3870.0,11676.0,-10820.0,-29.0,-122.0,-33.0,-4.0,-25.0,42.0,8141.0,-13429.0,4494.0,-1273.0,23.0,-23.0,-23.0,1.0
2022-05-06 15:02:21.746454-07:00,1017.6,656.2,1134.0,1031.4,865.4,772.8,1690.0,1286.4,3481.9,3469.8,1085.1,796.0,1893.8,3467.4,1633.1,1494.9,3483.2,3467.4,322.1,545.8,811.9,1048.7,464.8,2056.4,3485.6,3480.7,671.7,903.4,1753.1,1159.4,1046.1,910.1,25.0,0.0,-16.0,286.0,3836.0,11693.0,-10812.0,-71.0,-26.0,-27.0,-2.0,-14.0,30.0,8140.0,-13435.0,4481.0,-1267.0,-63.0,-35.0,-25.0,1.0
2022-05-06 15:02:21.835960-07:00,1014.2,660.3,1131.4,1028.0,865.4,772.8,1690.0,1285.5,3479.5,3483.2,1094.7,796.0,1893.8,3467.4,1633.1,1494.9,3479.5,3467.4,322.1,545.8,811.0,1052.2,457.7,2048.4,3481.9,3480.7,671.7,903.4,1744.5,1160.3,1042.6,916.0,0.0,5.0,-2.0,303.0,3806.0,11711.0,-10803.0,-42.0,-121.0,-41.0,-4.0,-21.0,54.0,8140.0,-13440.0,4468.0,-1260.0,-19.0,-10.0,-15.0,1.0
2022-05-06 15:02:21.865528-07:00,1017.6,660.3,1131.4,1028.0,872.1,776.1,1693.8,1285.5,3477.1,3483.2,1094.7,796.0,1896.7,3479.5,1636.9,1494.9,3479.5,3478.3,322.8,542.6,811.0,1052.2,457.7,2036.4,3481.9,3475.9,670.1,898.3,1744.5,1160.3,1042.6,911.8,13.0,-2.0,-14.0,326.0,3750.0,11750.0,-10780.0,-101.0,-87.0,-80.0,-4.0,-21.0,36.0,8132.0,-13447.0,4461.0,-1256.0,-80.0,-4.0,-23.0,1.0
2022-05-06 15:02:21.896172-07:00,1017.6,659.5,1133.1,1034.0,872.1,776.1,1693.8,1287.3,3477.1,3478.3,1089.5,789.4,1896.7,3479.5,1636.9,1495.8,3483.2,3478.3,322.8,542.6,804.4,1051.3,461.6,2036.4,3477.1,3475.9,670.1,898.3,1738.7,1163.0,1043.5,911.8,8.0,14.0,-27.0,342.0,3685.0,11789.0,-10759.0,-141.0,-151.0,-110.0,-9.0,0.0,30.0,8132.0,-13451.0,4449.0,-1257.0,-109.0,-2.0,-33.0,1.0
2022-05-06 15:02:21.985944-07:00,1022.8,659.5,1133.1,1034.0,878.9,771.1,1684.3,1287.3,3467.4,3478.3,1089.5,789.4,1883.0,3466.1,1630.3,1495.8,3483.2,3488.0,322.1,537.0,804.4,1051.3,461.6,2084.6,3477.1,3472.2,666.8,892.4,1738.7,1163.0,1043.5,908.4,5.0,-21.0,-22.0,382.0,3624.0,11849.0,-10712.0,-166.0,-139.0,-37.0,-11.0,-26.0,28.0,8097.0,-13476.0,4442.0,-1245.0,-84.0,-25.0,-20.0,1.0
2022-05-06 15:02:22.016047-07:00,1022.8,659.5,1138.4,1021.9,878.9,771.1,1684.3,1288.2,3467.4,3478.3,1083.4,793.5,1883.0,3466.1,1630.3,1497.7,3478.3,3488.0,322.1,537.0,810.2,1046.1,456.1,2084.6,3483.2,3472.2,666.8,892.4,1752.1,1172.6,1038.3,908.4,42.0,-14.0,-11.0,425.0,3608.0,11849.0,-10716.0,81.0,-13.0,137.0,-3.0,8.0,2.0,8115.0,-13470.0,4429.0,-1234.0,94.0,-51.0,2.0,1.0
2022-05-06 15:02:22.045943-07:00,1021.9,651.4,1138.4,1021.9,857.9,779.4,1693.8,1288.2,3477.1,3472.2,1083.4,793.5,1885.0,3467.4,1630.3,1497.7,3478.3,3479.5,325.9,545.0,810.2,1046.1,458.5,2132.1,3483.2,3477.1,666.0,895.7,1752.1,1172.6,1037.5,915.2,-7.0,24.0,-7.0,441.0,3655.0,11830.0,-10720.0,-35.0,3.0,52.0,-4.0,-32.0,53.0,8138.0,-13460.0,4419.0,-1227.0,-20.0,-16.0,-9.0,1.0
2022-05-06 15:02:22.106564-07:00,1021.9,651.4,1129.6,1023.7,857.9,779.4,1690.0,1273.9,3477.1,3472.2,1090.3,792.7,1885.0,3467.4,1626.5,1503.2,3477.1,3474.6,325.9,545.0,811.9,1047.8,458.5,2132.1,3474.6,3483.2,666.0,895.7,1775.2,1170.9,1037.5,915.2,19.0,-9.0,-3.0,453.0,3663.0,11825.0,-10723.0,67.0,27.0,55.0,-3.0,-9.0,26.0,8150.0,-13455.0,4413.0,-1224.0,70.0,-16.0,1.0,1.0
2022-05-06 15:02:22.165526-07:00,1027.1,657.9,1129.6,1023.7,867.1,776.1,1690.0,1273.9,3466.1,3478.3,1090.3,792.7,1877.2,3473.4,1626.5,1503.2,3477.1,3474.6,325.1,537.8,811.9,1047.8,453.7,2107.8,3474.6,3483.2,664.4,893.2,1775.2,1170.9,1034.0,919.4,-1.0,2.0,-15.0,452.0,3677.0,11828.0,-10715.0,-81.0,-7.0,-9.0,-4.0,-29.0,35.0,8171.0,-13444.0,4408.0,-1225.0,-75.0,2.0,7.0,1.0
2022-05-06 15:02:22.196163-07:00,1027.1,657.9,1133.1,1027.1,867.1,776.1,1691.9,1273.0,3466.1,3478.3,1086.8,798.5,1877.2,3473.4,1634.1,1498.6,3478.3,3477.1,325.1,537.8,803.5,1054.8,453.7,2107.8,3471.0,3477.1,664.4,893.2,1777.2,1174.4,1034.0,919.4,25.0,-6.0,-9.0,462.0,3674.0,11832.0,-10711.0,29.0,6.0,45.0,-1.0,-4.0,15.0,8182.0,-13438.0,4406.0,-1225.0,27.0,-7.0,5.0,1.0
2022-05-06 15:02:22.256434-07:00,1015.1,656.2,1133.1,1027.1,865.4,771.1,1691.9,1273.0,3472.2,3478.3,1086.8,798.5,1874.2,3485.6,1634.1,1498.6,3478.3,3477.1,324.4,538.6,803.5,1054.8,460.0,2103.7,3471.0,3477.1,663.6,884.8,1777.2,1174.4,1043.5,921.1,2.0,11.0,-11.0,471.0,3669.0,11844.0,-10699.0,-71.0,-47.0,-33.0,-5.0,-18.0,35.0,8183.0,-13438.0,4405.0,-1223.0,-56.0,-2.0,-12.0,1.0
2022-05-06 15:02:22.316195-07:00,1015.1,656.2,1130.5,1034.0,865.4,771.1,1690.0,1281.0,3472.2,3478.3,1089.5,791.0,1874.2,3485.6,1623.7,1497.7,3478.3,3480.7,324.4,538.6,809.4,1044.4,460.0,2103.7,3483.2,3475.9,663.6,884.8,1787.8,1160.3,1043.5,921.1,30.0,-7.0,-19.0,478.0,3641.0,11856.0,-10695.0,20.0,-19.0,10.0,-4.0,-1.0,2.0,8188.0,-13438.0,4397.0,-1224.0,23.0,-21.0,-16.0,1.0
2022-05-06 15:02:22.346182-07:00,1023.7,657.9,1135.7,1034.0,874.7,772.0,1690.0,1281.0,3478.3,3484.4,1084.2,791.0,1876.2,3467.4,1623.7,1497.7,3478.3,3480.7,325.9,542.6,809.4,1046.1,457.7,2068.5,3483.2,3475.9,666.0,886.5,1787.8,1170.0,1035.7,920.3,-8.0,0.0,-11.0,491.0,3628.0,11862.0,-10692.0,-39.0,-85.0,-14.0,-5.0,-20.0,37.0,8193.0,-13438.0,4387.0,-1218.0,2.0,-21.0,-3.0,1.0
2022-05-06 15:02:22.406008-07:00,1023.7,657.9,1135.7,1048.7,874.7,772.8,1672.9,1276.5,3478.3,3484.4,1084.2,791.0,1876.2,3478.3,1616.2,1492.1,3488.0,3469.8,320.5,542.6,810.2,1046.1,457.7,2068.5,3484.4,3474.6,663.6,886.5,1784.9,1170.0,1035.7,920.3,35.0,3.0,-5.0,518.0,3607.0,11863.0,-10697.0,6.0,-25.0,23.0,2.0,2.0,8.0,8207.0,-13432.0,4382.0,-1215.0,26.0,-16.0,-8.0,1.0
2022-05-06 15:02:22.466500-07:00,1019.4,653.8,1147.1,1048.7,892.4,772.8,1672.9,1276.5,3472.2,3474.6,1082.5,791.0,1872.3,3478.3,1616.2,1492.1,3488.0,3469.8,320.5,547.4,810.2,1051.3,457.7,2046.4,3484.4,3474.6,663.6,893.2,1784.9,1157.7,1021.1,910.1,-5.0,-4.0,-2.0,522.0,3610.0,11868.0,-10690.0,-37.0,-20.0,-6.0,-10.0,-32.0,33.0,8213.0,-13428.0,4380.0,-1213.0,-35.0,-2.0,-2.0,1.0
2022-05-06 15:02:22.496139-07:00,1019.4,653.8,1147.1,1066.0,892.4,773.6,1684.3,1277.4,3472.2,3474.6,1082.5,795.2,1872.3,3480.7,1618.1,1478.3,3478.3,3469.8,324.4,547.4,804.4,1051.3,457.7,2046.4,3480.7,3472.2,674.2,893.2,1786.8,1157.7,1021.1,910.1,21.0,1.0,-5.0,528.0,3608.0,11869.0,-10689.0,4.0,19.0,32.0,0.0,-3.0,17.0,8225.0,-13421.0,4379.0,-1214.0,-1.0,1.0,10.0,1.0
2022-05-06 15:02:22.556360-07:00,1027.1,653.0,1151.5,1066.0,890.7,773.6,1684.3,1277.4,3478.3,3488.0,1076.4,795.2,1882.0,3480.7,1618.1,1478.3,3478.3,3469.8,324.4,540.2,804.4,1048.7,453.0,2048.4,3480.7,3472.2,674.2,884.8,1786.8,1162.1,1034.0,911.8,-2.0,5.0,-6.0,519.0,3630.0,11872.0,-10680.0,-1.0,37.0,7.0,-4.0,-17.0,37.0,8226.0,-13420.0,4381.0,-1213.0,-17.0,10.0,11.0,1.0
2022-05-06 15:02:22.615517-07:00,1027.1,653.0,1151.5,1070.3,891.5,772.8,1682.4,1272.1,3478.3,3488.0,1076.4,791.0,1880.1,3468.6,1620.9,1490.3,3477.1,3474.6,325.1,542.6,813.5,1048.7,453.0,2048.4,3484.4,3472.2,663.6,882.3,1791.6,1162.1,1034.0,911.8,15.0,-2.0,-21.0,513.0,3610.0,11879.0,-10678.0,13.0,-43.0,-66.0,-6.0,-4.0,7.0,8232.0,-13417.0,4380.0,-1216.0,17.0,-1.0,-10.0,1.0
2022-05-06 15:02:22.646311-07:00,1023.7,663.6,1148.9,1084.2,891.5,772.8,1682.4,1272.1,3472.2,3475.9,1074.7,789.4,1880.1,3468.6,1620.9,1490.3,3477.1,3474.6,325.1,542.6,812.7,1041.8,453.7,2032.4,3484.4,3472.2,663.6,882.3,1782.9,1166.5,1034.0,910.1,1.0,-6.0,-29.0,516.0,3581.0,11865.0,-10703.0,89.0,-113.0,-18.0,-1.0,-5.0,14.0,8266.0,-13400.0,4367.0,-1221.0,110.0,-36.0,-15.0,1.0
2022-05-06 15:02:22.706053-07:00,1023.7,663.6,1148.9,1084.2,893.2,771.1,1680.5,1274.7,3472.2,3475.9,1074.7,789.4,1879.1,3472.2,1619.9,1493.0,3477.1,3475.9,322.8,546.6,812.7,1041.8,453.7,2032.4,3475.9,3478.3,670.9,886.5,1782.9,1166.5,1034.0,910.1,18.0,-2.0,-9.0,553.0,3546.0,11854.0,-10726.0,-2.0,-96.0,34.0,-5.0,-15.0,16.0,8300.0,-13384.0,4352.0,-1217.0,21.0,-43.0,-9.0,1.0
2022-05-06 15:02:22.765416-07:00,1021.9,659.5,1146.3,1080.8,893.2,771.1,1680.5,1274.7,3480.7,3469.8,1084.2,789.4,1879.1,3472.2,1619.9,1493.0,3477.1,3475.9,322.8,546.6,807.7,1049.6,455.3,2027.4,3475.9,3478.3,670.9,886.5,1781.0,1157.7,1024.5,912.7,5.0,1.0,11.0,583.0,3531.0,11849.0,-10735.0,10.0,-74.0,24.0,-4.0,-14.0,23.0,8318.0,-13378.0,4340.0,-1209.0,43.0,-32.0,-6.0,1.0
2022-05-06 15:02:22.796324-07:00,1021.9,659.5,1146.3,1080.8,898.3,783.6,1668.2,1267.6,3480.7,3469.8,1084.2,789.4,1880.1,3467.4,1611.5,1487.5,3478.3,3474.6,327.5,544.2,807.7,1049.6,455.3,2027.4,3477.1,3480.7,670.1,888.2,1781.0,1157.7,1024.5,912.7,12.0,17.0,3.0,597.0,3523.0,11842.0,-10744.0,-1.0,-20.0,7.0,-2.0,-5.0,19.0,8339.0,-13366.0,4334.0,-1208.0,-3.0,4.0,6.0,1.0
2022-05-06 15:02:22.856078-07:00,1020.2,660.3,1154.2,1079.9,898.3,783.6,1668.2,1265.8,3472.2,3473.4,1084.2,798.5,1880.1,3467.4,1611.5,1472.7,3480.7,3474.6,327.5,544.2,811.9,1050.4,448.2,2030.4,3469.8,3480.7,670.1,888.2,1776.2,1161.2,1028.0,903.4,4.0,-3.0,-9.0,597.0,3522.0,11850.0,-10736.0,-14.0,-6.0,-6.0,-3.0,-11.0,22.0,8338.0,-13366.0,4335.0,-1209.0,-1.0,7.0,8.0,1.0
2022-05-06 15:02:22.915508-07:00,1020.2,660.3,1154.2,1079.9,903.4,769.5,1675.7,1265.8,3477.1,3473.4,1084.2,798.5,1881.1,3472.2,1615.2,1472.7,3480.7,3477.1,327.5,537.0,811.9,1050.4,448.2,2016.4,3469.8,3478.3,665.2,883.9,1776.2,1161.2,1028.0,918.6,14.0,11.0,-19.0,599.0,3517.0,11850.0,-10737.0,6.0,-10.0,-7.0,-2.0,2.0,9.0,8344.0,-13363.0,4336.0,-1209.0,7.0,-3.0,5.0,1.0
2022-05-06 15:02:22.946161-07:00,1020.2,657.9,1156.8,1086.0,903.4,769.5,1675.7,1266.7,3477.1,3467.4,1072.9,790.2,1881.1,3472.2,1615.2,1481.0,3472.2,3477.1,327.5,537.0,811.9,1044.4,451.4,2016.4,3479.5,3478.3,665.2,883.9,1775.2,1156.8,1028.8,918.6,-3.0,-9.0,-16.0,600.0,3512.0,11851.0,-10737.0,17.0,-36.0,3.0,-7.0,-16.0,19.0,8351.0,-13358.0,4335.0,-1209.0,30.0,-7.0,6.0,1.0
2022-05-06 15:02:23.005846-07:00,1023.7,657.9,1156.8,1086.0,909.3,772.0,1678.6,1266.7,3469.8,3467.4,1072.9,790.2,1864.5,3467.4,1604.0,1481.0,3472.2,3488.0,322.1,543.4,811.9,1044.4,451.4,2005.5,3479.5,3483.2,666.8,894.1,1775.2,1156.8,1028.8,909.3,10.0,3.0,-4.0,615.0,3501.0,11840.0,-10752.0,36.0,-41.0,11.0,-3.0,-6.0,9.0,8375.0,-13345.0,4329.0,-1210.0,46.0,-16.0,2.0,1.0
2022-05-06 15:02:23.065556-07:00,1023.7,653.8,1152.4,1086.0,909.3,772.0,1678.6,1257.8,3469.8,3477.1,1078.2,790.2,1864.5,3467.4,1604.0,1484.7,3467.4,3488.0,322.1,543.4,813.5,1046.1,448.2,2005.5,3467.4,3483.2,666.8,894.1,1759.8,1152.4,1027.1,909.3,9.0,4.0,-9.0,623.0,3496.0,11824.0,-10771.0,47.0,-24.0,11.0,-4.0,-1.0,13.0,8400.0,-13331.0,4324.0,-1212.0,47.0,-13.0,-4.0,1.0
2022-05-06 15:02:23.156135-07:00,1012.5,653.8,1152.4,1086.0,910.1,778.6,1677.6,1257.8,3475.9,3475.9,1078.2,790.2,1870.3,3469.8,1608.7,1484.7,3467.4,3483.2,322.1,541.8,813.5,1046.1,454.5,1992.5,3467.4,3474.6,675.0,881.4,1759.8,1152.4,1028.8,905.0,4.0,-13.0,-4.0,630.0,3489.0,11822.0,-10776.0,9.0,-33.0,11.0,-5.0,-13.0,18.0,8410.0,-13325.0,4322.0,-1210.0,24.0,-16.0,8.0,1.0
2022-05-06 15:02:23.157642-07:00,1012.5,653.8,1154.2,1090.3,910.1,778.6,1675.7,1260.4,3475.9,3475.9,1078.2,789.4,1870.3,3469.8,1597.4,1472.7,3477.1,3478.3,322.1,541.8,807.7,1040.9,454.5,1992.5,3480.7,3467.4,675.0,881.4,1762.7,1145.4,1028.8,905.0,15.0,33.0,-5.0,637.0,3492.0,11810.0,-10787.0,-2.0,-3.0,-3.0,0.0,2.0,16.0,8428.0,-13314.0,4321.0,-1210.0,-13.0,-5.0,0.0,1.0
2022-05-06 15:02:23.215485-07:00,1014.2,655.4,1154.2,1090.3,901.7,769.5,1675.7,1260.4,3475.9,3471.0,1078.2,789.4,1864.5,3480.7,1597.4,1472.7,3477.1,3478.3,322.1,538.6,807.7,1040.9,450.6,1989.5,3480.7,3467.4,671.7,877.2,1762.7,1145.4,1029.7,904.2,8.0,-8.0,-1.0,636.0,3489.0,11818.0,-10779.0,13.0,15.0,14.0,-5.0,-4.0,9.0,8423.0,-13317.0,4322.0,-1208.0,20.0,8.0,3.0,1.0
2022-05-06 15:02:23.246356-07:00,1014.2,655.4,1150.6,1097.3,901.7,769.5,1669.1,1248.8,3475.9,3471.0,1076.4,793.5,1864.5,3480.7,1612.4,1470.0,3473.4,3480.7,322.1,538.6,806.9,1049.6,450.6,1989.5,3467.4,3484.4,671.7,877.2,1759.8,1158.6,1029.7,904.2,7.0,-19.0,2.0,631.0,3507.0,11817.0,-10775.0,11.0,48.0,34.0,-4.0,-18.0,17.0,8426.0,-13314.0,4325.0,-1206.0,11.0,-2.0,17.0,1.0
2022-05-06 15:02:23.306053-07:00,1021.9,653.8,1150.6,1097.3,919.4,768.7,1669.1,1248.8,3475.9,3467.4,1076.4,793.5,1860.6,3477.1,1612.4,1470.0,3473.4,3480.7,320.5,541.0,806.9,1049.6,456.1,1978.6,3467.4,3484.4,666.0,878.9,1759.8,1158.6,1021.1,912.7,7.0,17.0,-15.0,630.0,3523.0,11808.0,-10780.0,-16.0,-2.0,15.0,0.0,6.0,11.0,8437.0,-13307.0,4328.0,-1205.0,-23.0,7.0,8.0,1.0
2022-05-06 15:02:23.365882-07:00,1021.9,653.8,1148.9,1117.4,919.4,768.7,1672.9,1267.6,3475.9,3467.4,1080.8,787.7,1860.6,3478.3,1592.7,1476.4,3479.5,3484.4,324.4,541.0,806.9,1053.0,456.1,1978.6,3477.1,3472.2,670.9,878.9,1760.8,1146.3,1021.1,912.7,7.0,4.0,-6.0,630.0,3534.0,11811.0,-10772.0,29.0,19.0,23.0,-3.0,-11.0,19.0,8432.0,-13309.0,4329.0,-1203.0,38.0,-3.0,9.0,1.0
2022-05-06 15:02:23.396507-07:00,1013.3,652.2,1152.4,1117.4,939.8,768.7,1672.9,1267.6,3472.2,3474.6,1076.4,787.7,1863.5,3478.3,1592.7,1476.4,3479.5,3484.4,324.4,541.8,806.9,1049.6,450.6,1978.6,3477.1,3472.2,670.9,879.7,1760.8,1159.4,1022.8,902.5,14.0,-8.0,-13.0,632.0,3529.0,11792.0,-10795.0,102.0,-31.0,12.0,-4.0,1.0,3.0,8458.0,-13294.0,4326.0,-1210.0,102.0,-9.0,-9.0,1.0
2022-05-06 15:02:23.456101-07:00,1013.3,652.2,1152.4,1121.7,939.8,766.2,1655.8,1270.3,3472.2,3474.6,1076.4,790.2,1863.5,3473.4,1588.9,1470.0,3472.2,3475.9,322.8,541.8,806.9,1049.6,450.6,1978.6,3472.2,3474.6,675.0,879.7,1761.8,1159.4,1022.8,902.5,-2.0,-62.0,-9.0,647.0,3555.0,11706.0,-10879.0,468.0,-84.0,174.0,-5.0,-47.0,29.0,8526.0,-13251.0,4319.0,-1229.0,463.0,-32.0,7.0,1.0
2022-05-06 15:02:23.515535-07:00,1019.4,652.2,1141.9,1121.7,943.2,766.2,1655.8,1270.3,3467.4,3471.0,1077.3,790.2,1865.4,3473.4,1588.9,1470.0,3472.2,3475.9,322.8,537.0,806.9,1046.1,448.2,1992.5,3472.2,3474.6,675.0,878.9,1761.8,1153.3,1021.1,899.1,-11.0,-105.0,-53.0,721.0,3632.0,11318.0,-11253.0,1726.0,-365.0,577.0,-12.0,-60.0,21.0,8855.0,-13040.0,4277.0,-1306.0,1711.0,-126.0,22.0,1.0
2022-05-06 15:02:23.575996-07:00,1019.4,652.2,1141.9,1109.5,943.2,768.7,1677.6,1250.6,3467.4,3471.0,1077.3,794.4,1865.4,3475.9,1592.7,1459.8,3479.5,3478.3,317.4,537.0,806.9,1046.1,448.2,1992.5,3481.9,3480.7,664.4,878.9,1749.3,1153.3,1021.1,899.1,-25.0,9.0,-110.0,927.0,3627.0,10511.0,-11997.0,2641.0,-1153.0,649.0,-6.0,-15.0,29.0,9611.0,-12515.0,4153.0,-1480.0,2706.0,-290.0,-29.0,1.0
2022-05-06 15:02:23.606065-07:00,1020.2,655.4,1139.2,1091.2,929.6,768.7,1677.6,1250.6,3480.7,3469.8,1074.7,795.2,1860.6,3475.9,1592.7,1459.8,3479.5,3478.3,317.4,537.0,807.7,1052.2,452.2,2058.4,3481.9,3480.7,664.4,876.4,1746.4,1147.1,1019.4,907.6,54.0,-60.0,-113.0,1256.0,3486.0,9413.0,-12888.0,3252.0,-1322.0,947.0,-8.0,4.0,-53.0,10598.0,-11745.0,3913.0,-1694.0,3326.0,-455.0,-60.0,1.0
2022-05-06 15:02:23.665493-07:00,1020.2,655.4,1139.2,1091.2,918.6,767.0,1670.1,1261.3,3480.7,3469.8,1074.7,795.2,1880.1,3475.9,1597.4,1463.5,3464.9,3473.4,324.4,545.0,807.7,1052.2,452.2,2058.4,3478.3,3483.2,661.1,878.0,1746.4,1147.1,1019.4,907.6,20.0,64.0,-105.0,1664.0,3362.0,8119.0,-13727.0,3029.0,-1475.0,1098.0,-6.0,47.0,-5.0,11660.0,-10767.0,3598.0,-1894.0,3300.0,-522.0,0.0,1.0
2022-05-06 15:02:23.696285-07:00,1017.6,651.4,1126.1,1072.1,918.6,767.0,1670.1,1261.3,3483.2,3468.6,1072.1,791.0,1880.1,3475.9,1597.4,1463.5,3464.9,3473.4,324.4,545.0,812.7,1044.4,449.0,2032.4,3478.3,3483.2,661.1,878.0,1710.0,1123.5,1016.8,900.8,34.0,99.0,-45.0,2100.0,3119.0,7123.0,-14267.0,1803.0,-1407.0,697.0,0.0,33.0,-24.0,12469.0,-9906.0,3291.0,-2000.0,2012.0,-513.0,7.0,1.0
2022-05-06 15:02:23.756074-07:00,1017.6,651.4,1126.1,1072.1,913.5,768.7,1680.5,1255.1,3483.2,3468.6,1072.1,791.0,1896.7,3473.4,1578.6,1453.4,3478.3,3475.9,323.6,543.4,812.7,1044.4,449.0,2032.4,3483.2,3477.1,653.8,868.8,1710.0,1123.5,1016.8,900.8,40.0,48.0,50.0,2357.0,2812.0,6533.0,-14570.0,1053.0,-1010.0,246.0,0.0,14.0,55.0,12912.0,-9401.0,3043.0,-2019.0,1124.0,-407.0,-47.0,1.0
2022-05-06 15:02:23.815408-07:00,1023.7,651.4,1126.1,1059.9,913.5,768.7,1680.5,1255.1,3469.8,3471.0,1106.0,808.5,1896.7,3473.4,1578.6,1453.4,3478.3,3475.9,323.6,543.4,805.2,1053.0,446.7,2015.4,3483.2,3477.1,653.8,868.8,1711.0,1118.2,1016.8,891.5,33.0,38.0,60.0,2492.0,2554.0,6119.0,-14773.0,762.0,-786.0,67.0,0.0,29.0,46.0,13182.0,-9076.0,2861.0,-2029.0,780.0,-255.0,-49.0,1.0
2022-05-06 15:02:23.846219-07:00,1023.7,651.4,1126.1,1059.9,905.0,767.0,1665.3,1264.9,3469.8,3471.0,1106.0,808.5,1869.3,3467.4,1555.3,1446.0,3480.7,3474.6,322.1,538.6,805.2,1053.0,446.7,2015.4,3472.2,3473.4,666.8,868.8,1711.0,1118.2,1016.8,891.5,2.0,15.0,40.0,2535.0,2391.0,5804.0,-14920.0,646.0,-408.0,-17.0,-5.0,-3.0,54.0,13362.0,-8845.0,2737.0,-2044.0,574.0,-158.0,-21.0,1.0
2022-05-06 15:02:23.905997-07:00,1015.1,653.8,1120.9,1049.6,905.0,767.0,1665.3,1261.3,3469.8,3469.8,1097.3,804.4,1869.3,3467.4,1555.3,1413.1,3474.6,3474.6,322.1,538.6,811.9,1049.6,455.3,2056.4,3478.3,3473.4,666.8,868.8,1704.3,1120.9,1023.7,891.5,10.0,30.0,4.0,2525.0,2259.0,5640.0,-15005.0,177.0,-326.0,-163.0,-4.0,34.0,27.0,13467.0,-8702.0,2668.0,-2057.0,167.0,-56.0,-52.0,1.0
2022-05-06 15:02:23.965482-07:00,1020.2,653.8,1120.9,1049.6,905.9,767.0,1670.1,1261.3,3478.3,3469.8,1097.3,804.4,1860.6,3472.2,1539.4,1413.1,3474.6,3478.3,324.4,544.2,811.9,1049.6,455.3,2055.4,3478.3,3480.7,653.8,859.5,1704.3,1120.9,1023.7,895.7,1.0,-64.0,0.0,2518.0,2153.0,5568.0,-15048.0,215.0,-244.0,-26.0,2.0,-22.0,16.0,13504.0,-8652.0,2633.0,-2074.0,255.0,-38.0,-31.0,1.0
2022-05-06 15:02:24.025964-07:00,1020.2,653.8,1117.4,1037.5,905.9,767.0,1670.1,1260.4,3478.3,3467.4,1080.8,802.7,1860.6,3472.2,1539.4,1407.6,3475.9,3478.3,324.4,544.2,811.9,1047.0,458.5,2055.4,3483.2,3480.7,653.8,859.5,1701.4,1116.5,1018.5,895.7,1.0,0.0,-29.0,2520.0,2085.0,5426.0,-15109.0,307.0,-236.0,-65.0,5.0,3.0,21.0,13571.0,-8552.0,2598.0,-2095.0,270.0,-35.0,-23.0,1.0
2022-05-06 15:02:24.056022-07:00,1017.6,653.8,1117.4,1037.5,905.0,771.1,1663.4,1260.4,3472.2,3467.4,1080.8,802.7,1843.0,3472.2,1527.3,1407.6,3475.9,3474.6,325.1,540.2,811.9,1047.0,458.5,2044.4,3483.2,3485.6,659.5,847.0,1701.4,1116.5,1018.5,889.8,-10.0,-29.0,-57.0,2522.0,1959.0,5308.0,-15168.0,325.0,-451.0,-65.0,-8.0,-12.0,18.0,13627.0,-8468.0,2564.0,-2112.0,253.0,-52.0,-27.0,1.0
2022-05-06 15:02:24.087461-07:00,1017.6,653.8,1115.6,1034.0,905.0,771.1,1663.4,1258.7,3472.2,3469.8,1068.6,791.9,1843.0,3472.2,1527.3,1408.5,3472.2,3474.6,325.1,540.2,805.2,1047.0,460.0,2044.4,3483.2,3485.6,659.5,847.0,1695.7,1112.1,1015.9,889.8,-74.0,-15.0,0.0,2515.0,1856.0,5288.0,-15189.0,-186.0,-90.0,-177.0,-4.0,-63.0,56.0,13667.0,-8411.0,2530.0,-2123.0,-316.0,49.0,24.0,1.0
2022-05-06 15:02:24.206141-07:00,1021.9,648.1,1115.6,1034.0,894.9,762.9,1683.3,1258.7,3473.4,3474.6,1068.6,791.9,1841.1,3468.6,1515.3,1408.5,3472.2,3473.4,323.6,533.8,805.2,1047.0,464.0,2049.4,3483.2,3479.5,651.4,834.4,1695.7,1112.1,1016.8,900.8,4.0,8.0,-4.0,2477.0,1790.0,5332.0,-15188.0,-116.0,-134.0,-142.0,1.0,29.0,32.0,13625.0,-8469.0,2558.0,-2127.0,-144.0,67.0,-11.0,1.0
2022-05-06 15:02:24.207872-07:00,1021.9,648.1,1107.8,1038.3,894.9,762.9,1658.7,1242.6,3473.4,3474.6,1054.8,789.4,1841.1,3468.6,1507.8,1402.1,3474.6,3474.6,323.6,533.8,811.9,1047.0,464.0,2049.4,3472.2,3477.1,651.4,834.4,1690.0,1113.9,1016.8,900.8,5.0,39.0,-28.0,2504.0,1618.0,5416.0,-15173.0,-405.0,-575.0,-100.0,6.0,0.0,36.0,13565.0,-8548.0,2606.0,-2138.0,-444.0,171.0,-21.0,1.0
2022-05-06 15:02:24.235979-07:00,1021.9,649.7,1107.8,1038.3,893.2,762.9,1658.7,1242.6,3467.4,3478.3,1054.8,789.4,1825.5,3462.5,1507.8,1402.1,3474.6,3474.6,320.5,540.2,811.9,1047.0,478.2,2076.5,3472.2,3477.1,656.2,840.3,1690.0,1113.9,1018.5,916.0,73.0,39.0,39.0,2519.0,1395.0,5647.0,-15108.0,-863.0,-63.0,-166.0,-2.0,52.0,-50.0,13377.0,-8808.0,2709.0,-2142.0,-977.0,206.0,-56.0,1.0
2022-05-06 15:02:24.296113-07:00,1021.9,649.7,1108.6,1034.9,893.2,762.9,1674.8,1282.8,3467.4,3478.3,1041.8,788.6,1825.5,3462.5,1517.1,1388.5,3469.8,3467.4,320.5,540.2,811.0,1048.7,478.2,2076.5,3467.4,3479.5,656.2,840.3,1695.7,1141.9,1018.5,916.0,21.0,30.0,47.0,2429.0,1423.0,6388.0,-14822.0,-2321.0,811.0,-221.0,-18.0,0.0,-63.0,12908.0,-9437.0,2890.0,-2101.0,-2603.0,334.0,-40.0,1.0
2022-05-06 15:02:24.385689-07:00,1025.4,676.6,1108.6,1034.9,899.1,763.7,1674.8,1282.8,3472.2,3463.7,1041.8,788.6,1811.9,3467.4,1517.1,1388.5,3469.8,3467.4,334.4,536.2,811.0,1048.7,484.5,2089.6,3467.4,3479.5,657.0,841.1,1695.7,1141.9,986.7,896.6,21.0,-34.0,42.0,2264.0,1692.0,7496.0,-14292.0,-2790.0,1480.0,-91.0,-9.0,-15.0,-2.0,12068.0,-10431.0,3191.0,-1954.0,-3184.0,419.0,57.0,1.0
2022-05-06 15:02:24.388617-07:00,1025.4,676.6,1066.0,1007.3,899.1,761.2,1733.0,1299.8,3472.2,3463.7,1030.6,792.7,1811.9,3467.4,1438.7,1338.6,3475.9,3479.5,332.1,536.2,818.5,1050.4,484.5,2089.6,3469.8,3479.5,655.4,841.1,1690.0,1103.4,986.7,896.6,-12.0,74.0,-34.0,2008.0,2162.0,8591.0,-13635.0,-2794.0,1741.0,-70.0,-14.0,10.0,-4.0,11184.0,-11309.0,3500.0,-1789.0,-2839.0,448.0,103.0,1.0
2022-05-06 15:02:24.446228-07:00,1021.1,683.1,1057.3,1007.3,896.6,761.2,1733.0,1299.8,3471.0,3472.2,1016.8,792.7,1806.1,3467.4,1438.7,1338.6,3475.9,3479.5,332.1,543.4,818.5,1045.2,476.6,2091.6,3469.8,3479.5,655.4,837.7,1690.0,1081.6,961.1,899.1,4.0,-41.0,-83.0,1762.0,2548.0,9758.0,-12791.0,-3108.0,1575.0,-106.0,-15.0,-19.0,-28.0,10210.0,-12125.0,3809.0,-1627.0,-2931.0,539.0,82.0,1.0
2022-05-06 15:02:24.535737-07:00,1021.1,683.1,1057.3,997.0,896.6,756.3,1690.0,1288.2,3471.0,3472.2,1016.8,788.6,1806.1,3471.0,1372.1,1325.0,3464.9,3477.1,327.5,543.4,816.9,1045.2,476.6,2091.6,3477.1,3479.5,651.4,837.7,1687.2,1081.6,961.1,899.1,-5.0,-2.0,-91.0,1541.0,2857.0,10776.0,-11907.0,-2826.0,1237.0,-132.0,-16.0,-3.0,-34.0,9305.0,-12769.0,4071.0,-1496.0,-2455.0,441.0,68.0,1.0
2022-05-06 15:02:24.626078-07:00,1038.3,689.7,1049.6,997.0,884.8,756.3,1690.0,1288.2,3468.6,3460.1,1011.6,788.6,1804.2,3471.0,1372.1,1325.0,3464.9,3477.1,327.5,543.4,816.9,1044.4,476.6,2153.4,3477.1,3479.5,651.4,777.8,1687.2,1059.9,950.0,905.9,21.0,3.0,-42.0,1355.0,3001.0,11611.0,-11080.0,-2312.0,934.0,-314.0,-1.0,0.0,-18.0,8488.0,-13285.0,4250.0,-1353.0,-2003.0,249.0,-1.0,1.0
2022-05-06 15:02:24.627418-07:00,1038.3,689.7,1049.6,991.9,884.8,749.6,1680.5,1289.1,3468.6,3460.1,1011.6,786.9,1804.2,3472.2,1354.0,1306.1,3483.2,3477.1,329.0,543.4,816.0,1044.4,476.6,2153.4,3474.6,3479.5,649.7,777.8,1682.4,1059.9,950.0,905.9,10.0,-41.0,0.0,1151.0,3057.0,12251.0,-10377.0,-1784.0,793.0,-359.0,-5.0,-21.0,-9.0,7839.0,-13661.0,4345.0,-1223.0,-1531.0,147.0,-15.0,1.0
2022-05-06 15:02:24.656002-07:00,1031.4,681.5,1038.3,977.3,884.8,749.6,1680.5,1289.1,3480.7,3473.4,1000.5,787.7,1793.6,3472.2,1354.0,1306.1,3483.2,3477.1,329.0,549.8,821.0,1042.6,481.4,2124.0,3474.6,3479.5,649.7,748.8,1681.4,1050.4,936.4,890.7,-11.0,-82.0,40.0,951.0,3110.0,12685.0,-9846.0,-1183.0,657.0,-233.0,-4.0,-27.0,5.0,7339.0,-13922.0,4417.0,-1116.0,-1076.0,120.0,34.0,1.0
2022-05-06 15:02:24.685994-07:00,1031.4,681.5,1038.3,977.3,886.5,744.7,1675.7,1324.1,3480.7,3473.4,1000.5,787.7,1782.0,3471.0,1346.7,1297.2,3474.6,3472.2,323.6,555.4,821.0,1042.6,481.4,2124.0,3478.3,3469.8,650.5,734.0,1681.4,1050.4,936.4,890.7,4.0,-11.0,29.0,784.0,3164.0,12936.0,-9511.0,-755.0,508.0,-196.0,-6.0,0.0,-2.0,7025.0,-14069.0,4476.0,-1053.0,-697.0,110.0,40.0,1.0
2022-05-06 15:02:24.775978-07:00,1047.8,679.1,1028.8,973.9,886.5,744.7,1675.7,1324.1,3466.1,3464.9,1000.5,782.7,1782.0,3471.0,1346.7,1297.2,3474.6,3472.2,323.6,555.4,817.7,1051.3,479.0,2118.9,3478.3,3469.8,650.5,734.0,1671.0,1036.6,922.0,893.2,-8.0,-55.0,3.0,662.0,3193.0,13066.0,-9332.0,-222.0,270.0,-86.0,-8.0,-10.0,-11.0,6862.0,-14138.0,4519.0,-1028.0,-202.0,68.0,48.0,1.0
2022-05-06 15:02:24.806020-07:00,1047.8,679.1,1028.8,973.9,880.6,740.6,1685.3,1359.4,3466.1,3464.9,1000.5,782.7,1763.7,3477.1,1329.6,1289.1,3477.1,3471.0,330.5,554.6,817.7,1051.3,479.0,2118.9,3481.9,3475.9,641.6,729.0,1671.0,1036.6,922.0,893.2,11.0,16.0,-1.0,598.0,3227.0,13055.0,-9341.0,155.0,116.0,-2.0,5.0,33.0,-21.0,6864.0,-14129.0,4542.0,-1035.0,49.0,25.0,29.0,1.0
2022-05-06 15:02:24.895789-07:00,1066.0,686.4,999.6,958.5,880.6,740.6,1685.3,1359.4,3467.4,3469.8,1003.0,782.7,1763.7,3477.1,1329.6,1289.1,3477.1,3471.0,330.5,554.6,818.5,1050.4,486.1,2097.7,3481.9,3475.9,641.6,729.0,1669.1,1022.8,916.0,883.9,-10.0,-25.0,17.0,583.0,3225.0,13046.0,-9353.0,104.0,-71.0,-36.0,6.0,-9.0,3.0,6877.0,-14121.0,4544.0,-1044.0,154.0,-7.0,-10.0,1.0
2022-05-06 15:02:24.897018-07:00,1066.0,686.4,999.6,958.5,892.4,746.3,1676.7,1344.0,3467.4,3469.8,1003.0,782.7,1748.3,3480.7,1322.3,1290.9,3473.4,3477.1,326.7,557.0,818.5,1050.4,486.1,2097.7,3479.5,3484.4,635.1,713.4,1669.1,1022.8,916.0,883.9,11.0,16.0,21.0,604.0,3193.0,12988.0,-9444.0,215.0,-91.0,-5.0,-3.0,26.0,-22.0,6954.0,-14086.0,4533.0,-1059.0,170.0,-28.0,-20.0,1.0
2022-05-06 15:02:24.956732-07:00,1077.3,685.6,1008.2,952.6,892.4,746.3,1676.7,1341.3,3464.9,3464.9,1002.2,786.1,1748.3,3480.7,1322.3,1281.9,3480.7,3477.1,326.7,557.0,819.4,1047.0,485.3,2077.5,3479.5,3484.4,635.1,713.4,1664.4,1027.1,915.2,886.5,-6.0,-1.0,30.0,613.0,3155.0,12975.0,-9474.0,-26.0,-99.0,-74.0,-4.0,4.0,-1.0,6958.0,-14088.0,4520.0,-1058.0,-35.0,-10.0,-25.0,1.0
2022-05-06 15:02:24.987131-07:00,1075.6,685.6,1008.2,952.6,879.7,743.0,1667.2,1341.3,3475.9,3464.9,1002.2,786.1,1748.3,3474.6,1323.2,1281.9,3480.7,3472.2,335.2,557.0,819.4,1047.0,485.3,2081.6,3479.5,3480.7,640.8,714.2,1664.4,1027.1,915.2,883.9,1.0,-37.0,47.0,620.0,3134.0,12957.0,-9506.0,169.0,-18.0,27.0,0.0,10.0,-10.0,6979.0,-14078.0,4517.0,-1065.0,141.0,-12.0,14.0,1.0
2022-05-06 15:02:25.046118-07:00,1075.6,687.2,1013.3,958.5,879.7,743.0,1667.2,1329.6,3475.9,3478.3,1014.2,789.4,1748.3,3474.6,1323.2,1283.7,3483.2,3472.2,335.2,557.0,811.9,1047.0,479.8,2081.6,3481.9,3480.7,640.8,714.2,1647.3,1022.8,919.4,883.9,2.0,-9.0,38.0,622.0,3139.0,12963.0,-9495.0,-140.0,15.0,-13.0,-2.0,-3.0,-2.0,6967.0,-14083.0,4519.0,-1061.0,-135.0,9.0,10.0,1.0
2022-05-06 15:02:25.106022-07:00,1071.2,687.2,1013.3,958.5,878.0,729.0,1661.5,1329.6,3468.6,3478.3,1014.2,789.4,1738.7,3472.2,1317.8,1283.7,3483.2,3469.8,329.8,550.6,811.9,1047.0,479.8,2070.5,3481.9,3474.6,633.5,724.1,1647.3,1022.8,919.4,876.4,1.0,-19.0,38.0,612.0,3141.0,12961.0,-9498.0,156.0,29.0,10.0,-3.0,4.0,-4.0,6961.0,-14084.0,4528.0,-1058.0,126.0,3.0,25.0,1.0
2022-05-06 15:02:25.135991-07:00,1071.2,684.8,1003.9,949.2,878.0,729.0,1661.5,1330.5,3468.6,3478.3,997.9,782.7,1738.7,3472.2,1317.8,1277.4,3488.0,3469.8,329.8,550.6,813.5,1041.8,481.4,2070.5,3479.5,3474.6,633.5,724.1,1665.3,1019.4,915.2,876.4,3.0,-5.0,21.0,611.0,3149.0,12960.0,-9497.0,-127.0,22.0,0.0,0.0,7.0,-16.0,6962.0,-14081.0,4537.0,-1058.0,-120.0,7.0,11.0,1.0
2022-05-06 15:02:25.196262-07:00,1075.6,682.3,1003.9,949.2,871.3,735.6,1655.8,1330.5,3473.4,3467.4,997.9,782.7,1743.5,3478.3,1309.7,1277.4,3488.0,3474.6,325.9,553.8,813.5,1041.8,478.2,2113.9,3479.5,3474.6,634.3,708.5,1665.3,1019.4,909.3,878.0,4.0,2.0,19.0,607.0,3156.0,12966.0,-9487.0,35.0,24.0,15.0,-1.0,15.0,-9.0,6947.0,-14087.0,4542.0,-1051.0,18.0,-2.0,6.0,1.0
2022-05-06 15:02:25.256075-07:00,1075.6,682.3,1000.5,953.4,871.3,735.6,1654.9,1320.5,3473.4,3467.4,996.2,786.9,1743.5,3478.3,1302.5,1273.9,3462.5,3477.1,325.9,553.8,811.9,1048.7,478.2,2113.9,3467.4,3467.4,634.3,708.5,1659.6,1021.9,909.3,878.0,-3.0,-7.0,25.0,608.0,3145.0,12969.0,-9485.0,-1.0,-42.0,-42.0,0.0,9.0,-6.0,6938.0,-14092.0,4542.0,-1046.0,3.0,-10.0,-4.0,1.0
2022-05-06 15:02:25.286479-07:00,1074.7,683.1,1000.5,953.4,873.8,730.7,1654.9,1320.5,3467.4,3475.9,996.2,786.9,1741.6,3474.6,1302.5,1273.9,3462.5,3477.1,329.8,553.8,811.9,1048.7,479.8,2073.5,3467.4,3467.4,631.9,712.6,1659.6,1021.9,912.7,869.6,3.0,-24.0,30.0,611.0,3124.0,12966.0,-9497.0,8.0,-7.0,10.0,0.0,0.0,-7.0,6934.0,-14095.0,4539.0,-1041.0,22.0,-12.0,-4.0,1.0
2022-05-06 15:02:25.346204-07:00,1074.7,683.1,998.7,951.7,873.8,730.7,1652.0,1323.2,3467.4,3475.9,999.6,776.9,1741.6,3474.6,1312.4,1271.2,3471.0,3486.8,329.8,553.8,814.4,1052.2,479.8,2073.5,3483.2,3477.1,631.9,712.6,1656.8,1018.5,912.7,869.6,4.0,13.0,28.0,617.0,3119.0,12959.0,-9508.0,-50.0,-21.0,-20.0,-2.0,13.0,-2.0,6938.0,-14094.0,4537.0,-1038.0,-64.0,-2.0,-8.0,1.0
2022-05-06 15:02:25.406093-07:00,1066.9,687.2,998.7,951.7,882.3,727.4,1652.0,1323.2,3462.5,3475.9,999.6,776.9,1723.4,3467.4,1312.4,1271.2,3471.0,3486.8,329.0,546.6,814.4,1052.2,476.6,2047.4,3483.2,3477.1,630.3,706.0,1656.8,1018.5,904.2,875.5,-6.0,-22.0,29.0,619.0,3113.0,12965.0,-9501.0,22.0,-7.0,10.0,-1.0,0.0,-2.0,6919.0,-14103.0,4539.0,-1032.0,38.0,-6.0,8.0,1.0
2022-05-06 15:02:25.436043-07:00,1066.9,687.2,1001.3,944.1,882.3,724.9,1650.2,1314.2,3462.5,3475.9,994.5,785.2,1723.4,3473.4,1304.3,1264.0,3474.6,3483.2,326.7,546.6,811.9,1044.4,476.6,2047.4,3479.5,3468.6,631.9,706.0,1647.3,1018.5,904.2,875.5,-4.0,10.0,14.0,619.0,3117.0,12950.0,-9521.0,30.0,-19.0,-5.0,-1.0,9.0,-6.0,6936.0,-14094.0,4540.0,-1036.0,47.0,-6.0,7.0,1.0
2022-05-06 15:02:25.495807-07:00,1073.8,675.8,995.3,944.1,883.9,724.9,1650.2,1314.2,3464.9,3468.6,991.9,785.2,1726.3,3473.4,1304.3,1264.0,3474.6,3483.2,326.7,552.2,811.9,1047.8,478.2,2056.4,3479.5,3468.6,631.9,700.3,1647.3,1016.8,898.3,878.9,6.0,-22.0,29.0,626.0,3105.0,12959.0,-9511.0,-62.0,12.0,-3.0,-2.0,-6.0,-5.0,6913.0,-14106.0,4539.0,-1029.0,-32.0,-3.0,-8.0,1.0
2022-05-06 15:02:25.556170-07:00,1073.8,675.8,995.3,947.5,883.9,722.5,1652.0,1322.3,3464.9,3468.6,991.9,777.8,1726.3,3467.4,1305.2,1264.9,3475.9,3473.4,325.1,552.2,808.5,1047.8,478.2,2056.4,3474.6,3472.2,631.9,700.3,1657.7,1016.8,898.3,878.9,-4.0,9.0,19.0,625.0,3111.0,12948.0,-9524.0,76.0,-39.0,6.0,0.0,12.0,-8.0,6934.0,-14097.0,4536.0,-1031.0,53.0,-12.0,3.0,1.0
2022-05-06 15:02:25.585924-07:00,1062.5,684.0,992.7,947.5,877.2,722.5,1652.0,1322.3,3472.2,3472.2,993.6,777.8,1730.1,3467.4,1305.2,1264.9,3475.9,3473.4,325.1,557.0,808.5,1051.3,483.7,2059.4,3474.6,3472.2,631.9,697.9,1657.7,1011.6,902.5,872.1,8.0,-19.0,33.0,628.0,3098.0,12950.0,-9525.0,-19.0,9.0,-4.0,0.0,7.0,-11.0,6928.0,-14100.0,4536.0,-1028.0,9.0,3.0,-4.0,1.0
2022-05-06 15:02:25.645706-07:00,1062.5,684.0,992.7,944.9,877.2,725.8,1640.7,1307.9,3472.2,3472.2,993.6,784.4,1730.1,3469.8,1303.4,1264.9,3474.6,3477.1,329.0,557.0,815.2,1051.3,483.7,2059.4,3474.6,3483.2,631.1,697.9,1657.7,1011.6,902.5,872.1,-3.0,-2.0,15.0,628.0,3110.0,12938.0,-9538.0,40.0,-16.0,36.0,-4.0,9.0,-2.0,6949.0,-14089.0,4535.0,-1035.0,84.0,-4.0,8.0,1.0
2022-05-06 15:02:25.706389-07:00,1064.3,677.4,999.6,950.0,872.1,725.8,1640.7,1307.9,3468.6,3461.3,997.9,783.6,1722.4,3469.8,1303.4,1264.9,3474.6,3477.1,329.0,552.2,816.9,1051.3,473.5,2041.4,3474.6,3483.2,631.1,703.6,1653.0,1012.5,906.7,871.3,10.0,-4.0,33.0,648.0,3112.0,12937.0,-9538.0,-29.0,1.0,29.0,0.0,9.0,-10.0,6952.0,-14088.0,4535.0,-1035.0,-3.0,0.0,0.0,1.0
2022-05-06 15:02:25.736032-07:00,1064.3,677.4,999.6,950.0,875.5,728.2,1637.9,1314.2,3468.6,3461.3,997.9,783.6,1720.5,3472.2,1299.8,1262.2,3483.2,3469.8,325.9,551.4,816.9,1051.3,473.5,2041.4,3483.2,3475.9,631.1,697.9,1653.0,1012.5,906.7,871.3,-2.0,-3.0,27.0,647.0,3114.0,12929.0,-9548.0,26.0,0.0,-16.0,-2.0,-1.0,0.0,6954.0,-14087.0,4535.0,-1036.0,12.0,5.0,-2.0,1.0
2022-05-06 15:02:25.795789-07:00,1068.6,686.4,993.6,944.9,875.5,728.2,1637.9,1314.2,3472.2,3475.9,992.7,781.9,1720.5,3472.2,1299.8,1262.2,3483.2,3469.8,325.9,551.4,813.5,1046.1,475.8,2029.4,3483.2,3475.9,631.1,697.9,1657.7,1001.3,900.8,866.3,2.0,-7.0,11.0,648.0,3108.0,12925.0,-9555.0,-24.0,-4.0,5.0,0.0,3.0,-14.0,6954.0,-14087.0,4536.0,-1036.0,-15.0,1.0,6.0,1.0
2022-05-06 15:02:25.885445-07:00,1068.6,686.4,993.6,944.9,875.5,734.8,1645.4,1306.1,3472.2,3475.9,992.7,781.9,1715.8,3467.4,1299.8,1287.3,3481.9,3473.4,323.6,549.8,813.5,1046.1,475.8,2029.4,3478.3,3464.9,633.5,700.3,1657.7,1001.3,900.8,866.3,1.0,9.0,19.0,646.0,3108.0,12917.0,-9566.0,34.0,7.0,6.0,-1.0,10.0,-2.0,6958.0,-14085.0,4535.0,-1037.0,29.0,-2.0,2.0,1.0
2022-05-06 15:02:25.887531-07:00,1063.4,682.3,997.9,942.4,875.5,734.8,1645.4,1306.1,3477.1,3463.7,992.7,785.2,1715.8,3467.4,1299.8,1287.3,3481.9,3473.4,323.6,549.8,810.2,1051.3,475.0,2025.4,3478.3,3464.9,633.5,700.3,1655.8,1009.0,904.2,867.9,2.0,-1.0,12.0,645.0,3100.0,12917.0,-9569.0,-26.0,-39.0,-30.0,-1.0,7.0,-3.0,6950.0,-14089.0,4535.0,-1035.0,-42.0,5.0,-10.0,1.0
2022-05-06 15:02:25.946573-07:00,1067.7,682.3,997.9,942.4,871.3,722.5,1632.2,1317.8,3461.3,3463.7,992.7,785.2,1717.7,3474.6,1297.2,1260.4,3474.6,3478.3,326.7,549.8,810.2,1051.3,475.0,2015.4,3483.2,3462.5,627.8,695.4,1655.8,1009.0,904.2,867.1,13.0,-12.0,21.0,659.0,3083.0,12918.0,-9571.0,-12.0,-10.0,16.0,0.0,6.0,-11.0,6945.0,-14092.0,4534.0,-1034.0,-5.0,-7.0,-4.0,1.0
2022-05-06 15:02:26.006005-07:00,1067.7,675.8,993.6,946.6,871.3,722.5,1632.2,1312.4,3461.3,3478.3,991.0,781.9,1717.7,3474.6,1297.2,1257.8,3479.5,3478.3,326.7,549.8,814.4,1053.0,477.4,2015.4,3474.6,3462.5,627.8,695.4,1652.0,1002.2,896.6,867.1,0.0,8.0,20.0,666.0,3080.0,12920.0,-9570.0,-38.0,-13.0,-9.0,-3.0,10.0,-2.0,6936.0,-14096.0,4534.0,-1031.0,-23.0,0.0,-2.0,1.0
2022-05-06 15:02:26.065463-07:00,1060.8,675.8,993.6,946.6,873.8,718.4,1643.5,1312.4,3478.3,3478.3,991.0,781.9,1702.4,3467.4,1299.8,1257.8,3479.5,3479.5,325.1,546.6,814.4,1053.0,477.4,2011.4,3474.6,3477.1,623.8,689.7,1652.0,1002.2,896.6,866.3,6.0,4.0,13.0,665.0,3078.0,12930.0,-9556.0,-67.0,27.0,7.0,0.0,8.0,-8.0,6920.0,-14104.0,4536.0,-1027.0,-35.0,12.0,-7.0,1.0
2022-05-06 15:02:26.096055-07:00,1060.8,676.6,995.3,948.3,873.8,718.4,1643.5,1316.9,3478.3,3477.1,992.7,776.1,1702.4,3467.4,1299.8,1253.3,3457.6,3479.5,325.1,546.6,804.4,1041.8,475.8,2011.4,3478.3,3477.1,623.8,689.7,1652.0,1019.4,901.7,866.3,1.0,-5.0,14.0,669.0,3078.0,12945.0,-9537.0,-46.0,-17.0,-3.0,2.0,14.0,-3.0,6901.0,-14113.0,4538.0,-1021.0,-45.0,-1.0,2.0,1.0
2022-05-06 15:02:26.156111-07:00,1071.2,676.6,995.3,948.3,874.7,717.5,1638.8,1316.9,3475.9,3477.1,992.7,776.1,1710.0,3475.9,1297.2,1253.3,3457.6,3479.5,324.4,549.8,804.4,1041.8,475.8,2013.4,3478.3,3480.7,623.0,698.7,1652.0,1019.4,901.7,873.0,-4.0,-9.0,16.0,672.0,3069.0,12952.0,-9529.0,13.0,-36.0,-20.0,-5.0,3.0,-1.0,6891.0,-14118.0,4539.0,-1018.0,8.0,-3.0,-6.0,1.0
2022-05-06 15:02:26.186029-07:00,1071.2,679.1,998.7,947.5,874.7,717.5,1630.3,1310.6,3475.9,3481.9,990.2,785.2,1710.0,3475.9,1295.4,1258.7,3469.8,3479.5,324.4,549.8,813.5,1053.0,475.8,2013.4,3473.4,3480.7,623.0,698.7,1648.3,1010.8,899.1,873.0,3.0,-19.0,22.0,686.0,3055.0,12958.0,-9524.0,-53.0,-45.0,-12.0,1.0,-7.0,-3.0,6882.0,-14123.0,4539.0,-1014.0,-28.0,-13.0,-5.0,1.0
2022-05-06 15:02:26.245736-07:00,1062.5,681.5,998.7,947.5,870.5,720.0,1630.3,1310.6,3462.5,3467.4,990.2,785.2,1709.1,3483.2,1295.4,1258.7,3469.8,3479.5,326.7,555.4,813.5,1053.0,472.7,1997.5,3473.4,3480.7,625.4,692.1,1648.3,1010.8,896.6,867.1,3.0,2.0,21.0,694.0,3045.0,12957.0,-9529.0,10.0,-22.0,-17.0,1.0,5.0,0.0,6888.0,-14120.0,4537.0,-1013.0,8.0,1.0,-8.0,1.0
2022-05-06 15:02:26.306061-07:00,1062.5,681.5,994.5,937.3,870.5,720.0,1646.4,1309.7,3462.5,3467.4,1001.3,786.9,1709.1,3483.2,1291.8,1255.1,3472.2,3473.4,326.7,555.4,811.0,1052.2,472.7,1997.5,3479.5,3475.9,625.4,692.1,1642.6,1010.8,896.6,867.1,2.0,-5.0,15.0,699.0,3029.0,12956.0,-9535.0,-53.0,-36.0,-11.0,0.0,3.0,-8.0,6882.0,-14123.0,4538.0,-1011.0,-29.0,0.0,-2.0,1.0
2022-05-06 15:02:26.336006-07:00,1063.4,678.2,994.5,937.3,883.9,728.2,1646.4,1309.7,3461.3,3473.4,1001.3,786.9,1703.3,3478.3,1291.8,1255.1,3472.2,3473.4,332.1,549.8,811.0,1052.2,471.9,1997.5,3479.5,3475.9,627.8,688.9,1642.6,1010.8,896.6,862.1,2.0,2.0,26.0,705.0,3023.0,12959.0,-9532.0,37.0,11.0,8.0,1.0,3.0,2.0,6882.0,-14123.0,4538.0,-1011.0,30.0,-1.0,7.0,1.0
2022-05-06 15:02:26.396456-07:00,1063.4,678.2,998.7,946.6,883.9,728.2,1628.4,1298.1,3461.3,3473.4,992.7,776.1,1703.3,3478.3,1299.8,1253.3,3477.1,3474.6,332.1,549.8,811.9,1046.1,471.9,1997.5,3467.4,3484.4,627.8,688.9,1642.6,1002.2,896.6,862.1,0.0,5.0,15.0,701.0,3022.0,12953.0,-9541.0,21.0,3.0,-10.0,-1.0,11.0,0.0,6883.0,-14123.0,4538.0,-1011.0,11.0,8.0,-1.0,1.0
2022-05-06 15:02:26.426517-07:00,1065.1,675.8,998.7,946.6,875.5,718.4,1628.4,1298.1,3467.4,3473.4,992.7,776.1,1697.6,3478.3,1299.8,1253.3,3477.1,3474.6,329.0,549.8,811.9,1046.1,475.0,2019.4,3467.4,3484.4,622.2,686.4,1642.6,1002.2,894.1,853.7,0.0,-14.0,13.0,699.0,3024.0,12953.0,-9540.0,-16.0,9.0,11.0,-1.0,-6.0,-1.0,6880.0,-14124.0,4538.0,-1010.0,-4.0,0.0,4.0,1.0
2022-05-06 15:02:26.485666-07:00,1065.1,675.8,986.7,946.6,875.5,726.6,1627.5,1307.0,3467.4,3473.4,987.6,782.7,1697.6,3472.2,1290.9,1254.2,3478.3,3473.4,330.5,549.8,810.2,1047.0,475.0,2019.4,3477.1,3480.7,629.5,686.4,1652.0,1009.9,894.1,853.7,8.0,17.0,5.0,702.0,3022.0,12944.0,-9552.0,6.0,-12.0,-4.0,-2.0,15.0,-13.0,6891.0,-14119.0,4537.0,-1013.0,1.0,-3.0,-7.0,1.0
2022-05-06 15:02:26.545989-07:00,1059.9,672.5,991.0,946.6,874.7,726.6,1627.5,1307.0,3467.4,3467.4,981.6,782.7,1699.5,3472.2,1290.9,1254.2,3478.3,3473.4,330.5,549.8,810.2,1047.8,471.9,1994.5,3477.1,3480.7,629.5,692.9,1652.0,1007.3,891.5,867.9,-2.0,-11.0,19.0,702.0,3017.0,12946.0,-9552.0,20.0,-18.0,-3.0,-2.0,-3.0,-3.0,6889.0,-14120.0,4536.0,-1013.0,22.0,-8.0,-3.0,1.0
2022-05-06 15:02:26.606228-07:00,1059.9,672.5,991.0,943.2,874.7,732.3,1615.2,1299.8,3467.4,3467.4,981.6,778.6,1699.5,3471.0,1296.3,1256.9,3478.3,3467.4,326.7,549.8,816.0,1047.8,471.9,1994.5,3484.4,3475.9,620.5,692.9,1646.4,1007.3,891.5,867.9,8.0,2.0,23.0,707.0,3014.0,12944.0,-9555.0,-50.0,14.0,-3.0,0.0,8.0,-2.0,6887.0,-14121.0,4536.0,-1012.0,-48.0,2.0,-3.0,1.0
2022-05-06 15:02:26.636049-07:00,1052.2,675.8,989.3,943.2,874.7,732.3,1615.2,1299.8,3464.9,3469.8,992.7,778.6,1697.6,3471.0,1296.3,1256.9,3478.3,3467.4,326.7,554.6,816.0,1052.2,471.9,1988.5,3484.4,3475.9,620.5,679.9,1646.4,997.9,899.1,861.2,-3.0,-7.0,14.0,700.0,3018.0,12942.0,-9558.0,45.0,9.0,1.0,-3.0,3.0,-4.0,6892.0,-14118.0,4536.0,-1013.0,41.0,3.0,10.0,1.0
2022-05-06 15:02:26.755754-07:00,1052.2,675.8,989.3,934.7,874.7,725.8,1651.1,1310.6,3464.9,3469.8,992.7,776.1,1697.6,3480.7,1299.0,1256.0,3467.4,3485.6,325.9,554.6,810.2,1052.2,471.9,1988.5,3481.9,3474.6,624.6,679.9,1647.3,997.9,899.1,861.2,1.0,16.0,2.0,695.0,3019.0,12934.0,-9568.0,-32.0,12.0,-6.0,2.0,13.0,-2.0,6893.0,-14118.0,4536.0,-1014.0,-32.0,5.0,-5.0,1.0
2022-05-06 15:02:26.757086-07:00,1059.9,682.3,986.7,937.3,872.1,725.8,1651.1,1310.6,3462.5,3462.5,991.0,779.4,1695.7,3480.7,1299.0,1256.0,3467.4,3485.6,325.9,546.6,809.4,1052.2,473.5,1980.6,3481.9,3474.6,624.6,683.1,1651.1,1001.3,891.5,861.2,1.0,-13.0,16.0,701.0,3014.0,12944.0,-9556.0,36.0,-12.0,10.0,0.0,-6.0,0.0,6883.0,-14123.0,4537.0,-1011.0,26.0,-10.0,0.0,1.0
2022-05-06 15:02:26.786098-07:00,1059.9,682.3,986.7,937.3,869.6,717.5,1631.3,1312.4,3462.5,3462.5,991.0,779.4,1708.1,3475.9,1299.8,1245.3,3474.6,3481.9,323.6,549.8,809.4,1052.2,473.5,1980.6,3479.5,3480.7,627.8,694.6,1651.1,1001.3,891.5,861.2,-6.0,-17.0,13.0,709.0,3005.0,12928.0,-9579.0,108.0,-99.0,-3.0,-4.0,-7.0,0.0,6899.0,-14115.0,4535.0,-1014.0,78.0,-21.0,0.0,1.0
2022-05-06 15:02:26.845910-07:00,1054.8,681.5,994.5,940.7,869.6,717.5,1631.3,1312.4,3479.5,3478.3,982.5,780.3,1708.1,3475.9,1299.8,1245.3,3474.6,3481.9,323.6,549.8,813.5,1050.4,469.5,1991.5,3479.5,3480.7,627.8,694.6,1652.0,990.2,893.2,868.8,-24.0,-154.0,1.0,748.0,2963.0,12822.0,-9731.0,1464.0,-622.0,82.0,-10.0,-108.0,37.0,7041.0,-14046.0,4529.0,-1033.0,1294.0,-146.0,91.0,1.0
2022-05-06 15:02:26.876489-07:00,1054.8,681.5,994.5,940.7,871.3,738.1,1690.0,1309.7,3479.5,3478.3,982.5,780.3,1695.7,3483.2,1318.7,1271.2,3473.4,3483.2,323.6,547.4,813.5,1050.4,469.5,1991.5,3474.6,3481.9,622.2,806.0,1652.0,990.2,893.2,868.8,0.0,8.0,-102.0,893.0,2885.0,12158.0,-10559.0,2989.0,-930.0,431.0,-3.0,41.0,-67.0,7809.0,-13647.0,4454.0,-1178.0,2437.0,-314.0,49.0,1.0
2022-05-06 15:02:26.936283-07:00,1041.8,676.6,995.3,938.1,871.3,738.1,1690.0,1309.7,3475.9,3478.3,987.6,784.4,1695.7,3483.2,1318.7,1271.2,3473.4,3483.2,323.6,547.4,809.4,1050.4,478.2,1969.7,3474.6,3481.9,622.2,806.0,1642.6,1004.8,897.4,865.4,-11.0,28.0,-21.0,1144.0,2751.0,11315.0,-11468.0,2392.0,-1207.0,301.0,-9.0,2.0,-16.0,8660.0,-13161.0,4300.0,-1313.0,2215.0,-444.0,-69.0,1.0
2022-05-06 15:02:26.997272-07:00,1047.0,676.6,995.3,938.1,867.9,762.9,1787.8,1294.5,3478.3,3478.3,987.6,784.4,1688.1,3471.0,1326.8,1255.1,3481.9,3478.3,325.9,550.6,809.4,1050.4,478.2,1967.7,3477.1,3485.6,629.5,934.7,1642.6,1004.8,897.4,867.9,11.0,-5.0,-21.0,1391.0,2568.0,10428.0,-12295.0,3005.0,-1066.0,374.0,-8.0,0.0,10.0,9549.0,-12597.0,4064.0,-1433.0,2882.0,-549.0,-93.0,1.0
2022-05-06 15:02:27.029487-07:00,1047.0,666.8,979.0,941.5,867.9,762.9,1787.8,1288.2,3478.3,3469.8,997.0,784.4,1688.1,3471.0,1326.8,1258.7,3472.2,3478.3,325.9,550.6,811.0,1051.3,481.4,1967.7,3469.8,3485.6,629.5,934.7,1643.5,996.2,898.3,867.9,12.0,2.0,-1.0,1633.0,2416.0,9411.0,-13091.0,2568.0,-1123.0,363.0,10.0,-34.0,-3.0,10511.0,-11881.0,3785.0,-1571.0,2793.0,-523.0,-68.0,1.0
2022-05-06 15:02:27.086162-07:00,1037.5,666.8,979.0,941.5,881.4,772.8,1789.7,1288.2,3469.8,3469.8,997.0,784.4,1684.3,3462.5,1332.3,1258.7,3472.2,3479.5,326.7,547.4,811.0,1051.3,481.4,1955.8,3469.8,3474.6,629.5,934.7,1643.5,996.2,898.3,868.8,21.0,32.0,2.0,1857.0,2219.0,8381.0,-13778.0,2907.0,-1149.0,368.0,6.0,-2.0,10.0,11435.0,-11068.0,3498.0,-1717.0,3018.0,-426.0,-70.0,1.0
2022-05-06 15:02:27.145697-07:00,1037.5,674.2,1001.3,936.4,881.4,772.8,1789.7,1308.8,3469.8,3475.9,1003.9,789.4,1684.3,3462.5,1332.3,1259.6,3474.6,3479.5,326.7,547.4,810.2,1047.8,473.5,1955.8,3474.6,3474.6,629.5,934.7,1638.8,1002.2,889.8,868.8,3.0,5.0,-47.0,2094.0,2000.0,7219.0,-14420.0,2878.0,-1297.0,333.0,-20.0,-35.0,-36.0,12312.0,-10147.0,3211.0,-1890.0,2883.0,-400.0,-61.0,1.0
2022-05-06 15:02:27.206020-07:00,1034.9,674.2,1001.3,936.4,878.0,772.8,1776.2,1308.8,3467.4,3475.9,1003.9,789.4,1683.3,3471.0,1338.6,1259.6,3474.6,3481.9,325.9,545.0,810.2,1047.8,473.5,1951.9,3474.6,3483.2,626.2,918.6,1638.8,1002.2,889.8,866.3,17.0,99.0,-66.0,2244.0,1737.0,6129.0,-14927.0,1979.0,-924.0,89.0,-31.0,95.0,-41.0,13019.0,-9292.0,2906.0,-2038.0,1969.0,-384.0,-108.0,1.0
2022-05-06 15:02:27.235955-07:00,1034.9,659.5,1011.6,942.4,878.0,772.8,1757.9,1299.0,3467.4,3478.3,1034.9,797.7,1683.3,3471.0,1402.1,1268.5,3468.6,3481.9,325.9,545.0,811.9,1066.9,474.3,1951.9,3478.3,3484.4,626.2,918.6,1637.9,993.6,894.9,866.3,21.0,-24.0,18.0,2361.0,1501.0,5491.0,-15181.0,1019.0,-719.0,116.0,-22.0,-21.0,-41.0,13410.0,-8780.0,2667.0,-2097.0,1259.0,-377.0,-78.0,1.0
2022-05-06 15:02:27.295564-07:00,1038.3,657.9,1011.6,942.4,875.5,767.8,1757.9,1299.0,3472.2,3468.6,1034.9,797.7,1741.6,3469.8,1402.1,1268.5,3468.6,3481.9,331.3,545.8,811.9,1066.9,467.1,1952.9,3478.3,3484.4,633.5,896.6,1637.9,993.6,917.7,962.8,-28.0,52.0,182.0,2413.0,1532.0,5130.0,-15295.0,309.0,694.0,55.0,-15.0,-45.0,37.0,13651.0,-8452.0,2505.0,-2090.0,596.0,-208.0,144.0,1.0
2022-05-06 15:02:27.356103-07:00,1038.3,657.9,1089.5,1004.8,875.5,767.8,1759.8,1313.3,3472.2,3468.6,1048.7,797.7,1741.6,3469.8,1559.9,1299.0,3474.6,3472.2,331.3,545.8,807.7,1051.3,467.1,1952.9,3471.0,3479.5,633.5,896.6,1626.5,1025.4,917.7,962.8,48.0,88.0,-43.0,2318.0,1771.0,5003.0,-15326.0,214.0,580.0,31.0,7.0,99.0,9.0,13788.0,-8256.0,2447.0,-2040.0,568.0,-176.0,77.0,1.0
2022-05-06 15:02:27.385973-07:00,1028.0,661.1,1089.5,1004.8,869.6,769.5,1759.8,1313.3,3468.6,3478.3,1048.7,797.7,1840.1,3473.4,1559.9,1299.0,3474.6,3472.2,326.7,545.8,807.7,1051.3,468.7,2002.5,3471.0,3479.5,642.4,910.1,1626.5,1025.4,1019.4,963.7,39.0,-36.0,26.0,2292.0,2047.0,5079.0,-15271.0,-427.0,686.0,206.0,27.0,-12.0,10.0,13855.0,-8171.0,2395.0,-1997.0,-87.0,-96.0,86.0,1.0
2022-05-06 15:02:27.445700-07:00,1028.0,661.1,1146.3,1060.8,869.6,769.5,1752.1,1311.5,3468.6,3478.3,1091.2,801.9,1840.1,3473.4,1680.5,1442.4,3478.3,3477.1,326.7,545.8,810.2,1047.8,468.7,2002.5,3467.4,3480.7,642.4,910.1,1641.6,1129.6,1019.4,963.7,116.0,106.0,-16.0,2275.0,2285.0,5262.0,-15177.0,-396.0,633.0,-38.0,40.0,80.0,15.0,13814.0,-8252.0,2388.0,-1955.0,-220.0,-65.0,-46.0,1.0
2022-05-06 15:02:27.476464-07:00,1038.3,663.6,1134.9,1060.8,870.5,771.1,1752.1,1311.5,3471.0,3467.4,1076.4,801.9,1943.0,3479.5,1680.5,1442.4,3478.3,3477.1,329.0,549.0,810.2,1047.8,466.4,2082.6,3467.4,3480.7,675.0,922.8,1641.6,1175.3,1064.3,973.9,-16.0,85.0,75.0,2150.0,2499.0,5745.0,-14985.0,-2192.0,947.0,-459.0,-1.0,-22.0,8.0,13602.0,-8585.0,2429.0,-1958.0,-1593.0,180.0,-112.0,1.0
2022-05-06 15:02:27.536133-07:00,1038.3,663.6,1134.9,1042.6,870.5,779.4,1726.3,1305.2,3471.0,3467.4,1076.4,796.0,1943.0,3467.4,1652.0,1458.9,3477.1,3462.5,332.9,549.0,822.7,1047.8,466.4,2082.6,3483.2,3477.1,676.6,922.8,1663.4,1175.3,1064.3,973.9,15.0,-57.0,63.0,1890.0,2693.0,6769.0,-14553.0,-2317.0,1296.0,-508.0,0.0,-58.0,19.0,13031.0,-9380.0,2653.0,-1900.0,-2522.0,402.0,21.0,1.0
2022-05-06 15:02:27.595713-07:00,1034.0,660.3,1127.9,1042.6,863.7,779.4,1726.3,1305.2,3468.6,3473.4,1072.9,796.0,1984.6,3467.4,1652.0,1458.9,3477.1,3462.5,332.9,540.2,822.7,1047.0,467.9,2009.4,3483.2,3477.1,676.6,943.2,1663.4,1170.0,1056.5,969.6,6.0,30.0,-16.0,1632.0,2994.0,7693.0,-14058.0,-2171.0,1246.0,-436.0,-12.0,22.0,-22.0,12405.0,-10128.0,2942.0,-1828.0,-2283.0,498.0,96.0,1.0
2022-05-06 15:02:27.626363-07:00,1034.0,660.3,1127.9,1029.7,863.7,775.3,1716.7,1288.2,3468.6,3473.4,1072.9,794.4,1984.6,3471.0,1636.9,1442.4,3471.0,3473.4,322.8,540.2,811.0,1047.0,467.9,2009.4,3483.2,3472.2,674.2,943.2,1653.9,1170.0,1056.5,969.6,24.0,21.0,-52.0,1389.0,3239.0,8588.0,-13500.0,-2246.0,1183.0,-550.0,-8.0,10.0,-61.0,11710.0,-10852.0,3247.0,-1734.0,-2360.0,490.0,107.0,1.0
