Time,P0,P1,P2,P3,P4,P5,P6,P7,P8,P9,P10,P11,P12,P13,P14,P15,P16,P17,P18,P19,P20,P21,P22,P23,P24,P25,P26,P27,P28,P29,P30,P31,ECG,AX0,AY0,AZ0,QW0,QX0,QY0,QZ0,GX0,GY0,GZ0,AX1,AY1,AZ1,QW1,QX1,QY1,QZ1,GX1,GY1,GZ1
2022-05-06 15:33:50.457092-07:00,1801.3,562.6,1148.0,1341.3,1004.8,1114.7,1194.7,1281.0,3433.4,3438.2,1505.1,1300.7,1371.2,3441.9,1013.3,1462.6,3443.1,3445.5,614.1,1223.9,832.7,496.4,1286.4,1661.5,3439.5,3443.1,676.6,981.6,1280.1,1478.3,1231.0,1075.6,4.0,-5.0,-2.0,-7565.0,-12434.0,5692.0,4920.0,15.0,3.0,-11.0,0.0,0.0,0.0,10964.0,10715.0,5109.0,2705.0,11.0,10.0,-2.0,1.0
2022-05-06 15:33:50.487432-07:00,1801.3,556.2,1146.3,1342.2,1004.8,1114.7,1194.7,1281.0,3433.4,3451.6,1499.5,1314.2,1371.2,3441.9,1013.3,1461.7,3441.9,3445.5,614.1,1223.9,830.2,494.0,1293.6,1661.5,3444.3,3443.1,676.6,981.6,1278.3,1476.4,1224.8,1075.6,0.0,-6.0,-7.0,-7563.0,-12438.0,5690.0,4916.0,-12.0,5.0,1.0,-5.0,1.0,5.0,10963.0,10715.0,5110.0,2705.0,-7.0,1.0,-2.0,1.0
2022-05-06 15:33:50.547482-07:00,1788.7,556.2,1146.3,1342.2,1001.3,1115.6,1202.7,1281.0,3438.2,3451.6,1499.5,1314.2,1383.9,3438.2,1014.2,1461.7,3441.9,3437.0,614.1,1221.3,830.2,494.0,1293.6,1653.9,3444.3,3441.9,677.4,985.0,1278.3,1476.4,1224.8,1080.8,4.0,-2.0,-2.0,-7564.0,-12438.0,5690.0,4916.0,-5.0,1.0,4.0,4.0,4.0,4.0,10963.0,10715.0,5110.0,2705.0,-2.0,0.0,2.0,1.0
2022-05-06 15:33:50.607862-07:00,1788.7,562.6,1149.8,1333.2,1001.3,1115.6,1192.0,1286.4,3438.2,3443.1,1506.0,1301.6,1383.9,3438.2,1016.8,1462.6,3432.2,3449.1,614.1,1221.3,836.9,492.5,1289.1,1653.9,3444.3,3444.3,677.4,985.0,1274.7,1475.5,1231.0,1080.8,2.0,-1.0,-2.0,-7566.0,-12436.0,5689.0,4916.0,1.0,-6.0,-6.0,-2.0,1.0,4.0,10964.0,10715.0,5110.0,2706.0,2.0,1.0,-3.0,1.0
2022-05-06 15:33:50.637676-07:00,1781.0,561.0,1149.8,1333.2,997.0,1117.4,1192.0,1286.4,3435.8,3433.4,1506.0,1301.6,1377.5,3446.7,1016.8,1462.6,3432.2,3449.1,618.1,1230.2,836.9,492.5,1288.2,1657.7,3444.3,3444.3,680.7,985.0,1274.7,1475.5,1223.9,1077.3,7.0,-3.0,0.0,-7567.0,-12436.0,5690.0,4915.0,-7.0,-1.0,11.0,2.0,2.0,4.0,10964.0,10715.0,5109.0,2706.0,-1.0,-2.0,2.0,1.0
2022-05-06 15:33:50.698007-07:00,1781.0,561.0,1146.3,1338.6,997.0,1117.4,1210.6,1279.2,3435.8,3433.4,1500.4,1295.4,1377.5,3446.7,1012.5,1460.8,3431.0,3428.6,618.1,1230.2,838.6,490.1,1288.2,1657.7,3437.0,3435.8,680.7,985.0,1277.4,1471.8,1223.9,1077.3,8.0,1.0,-1.0,-7565.0,-12436.0,5690.0,4915.0,6.0,-9.0,-16.0,-1.0,3.0,0.0,10964.0,10715.0,5109.0,2706.0,7.0,-1.0,-5.0,1.0
2022-05-06 15:33:50.757261-07:00,1788.7,561.0,1146.3,1338.6,1000.5,1116.5,1210.6,1279.2,3429.8,3441.9,1500.4,1295.4,1374.8,3433.4,1012.5,1460.8,3431.0,3428.6,614.9,1227.5,838.6,490.1,1293.6,1654.9,3437.0,3435.8,679.9,983.3,1277.4,1471.8,1239.1,1067.7,0.0,-8.0,0.0,-7565.0,-12438.0,5686.0,4916.0,8.0,9.0,-3.0,-5.0,-6.0,4.0,10963.0,10715.0,5110.0,2705.0,10.0,6.0,1.0,1.0
2022-05-06 15:33:50.787330-07:00,1788.7,561.0,1142.7,1332.3,1000.5,1116.5,1190.3,1300.7,3429.8,3441.9,1494.0,1296.3,1374.8,3433.4,1015.1,1458.9,3433.4,3433.4,614.9,1227.5,833.6,490.9,1293.6,1654.9,3434.6,3443.1,679.9,983.3,1274.7,1470.0,1239.1,1067.7,2.0,2.0,-2.0,-7562.0,-12440.0,5687.0,4916.0,-8.0,4.0,-12.0,-4.0,8.0,0.0,10962.0,10717.0,5110.0,2705.0,-5.0,-2.0,-7.0,1.0
2022-05-06 15:33:50.907369-07:00,1783.9,556.2,1153.3,1332.3,1007.3,1115.6,1190.3,1300.7,3441.9,3446.7,1504.1,1296.3,1375.7,3443.1,1015.1,1458.9,3433.4,3433.4,616.5,1228.4,833.6,492.5,1291.8,1655.8,3434.6,3443.1,678.2,985.9,1274.7,1470.0,1233.7,1079.9,3.0,-4.0,0.0,-7564.0,-12440.0,5680.0,4919.0,-7.0,11.0,-11.0,-3.0,-1.0,5.0,10963.0,10715.0,5110.0,2705.0,-2.0,1.0,-5.0,1.0
2022-05-06 15:33:50.908292-07:00,1783.9,556.2,1153.3,1346.7,1007.3,1115.6,1194.7,1285.5,3441.9,3446.7,1504.1,1304.3,1375.7,3437.0,1020.2,1458.0,3438.2,3437.0,616.5,1228.4,833.6,492.5,1291.8,1655.8,3438.2,3437.0,680.7,985.9,1272.1,1470.0,1233.7,1079.9,7.0,0.0,-5.0,-7564.0,-12440.0,5680.0,4919.0,4.0,-5.0,8.0,-4.0,9.0,0.0,10963.0,10715.0,5110.0,2705.0,2.0,1.0,0.0,1.0
2022-05-06 15:33:50.937381-07:00,1782.0,559.4,1147.1,1346.7,1003.9,1115.6,1194.7,1285.5,3433.4,3439.5,1502.3,1304.3,1376.6,3437.0,1020.2,1458.0,3438.2,3437.0,616.5,1228.4,833.6,494.8,1287.3,1652.0,3438.2,3437.0,680.7,983.3,1272.1,1478.3,1231.0,1078.2,6.0,0.0,-5.0,-7568.0,-12439.0,5678.0,4920.0,-18.0,7.0,-10.0,0.0,5.0,4.0,10966.0,10713.0,5109.0,2707.0,-15.0,-2.0,-1.0,1.0
2022-05-06 15:33:50.997269-07:00,1782.0,559.4,1147.1,1336.8,1003.9,1116.5,1200.0,1291.8,3433.4,3439.5,1502.3,1304.3,1376.6,3441.9,1015.1,1461.7,3435.8,3437.0,622.2,1228.4,838.6,494.8,1287.3,1652.0,3444.3,3438.2,679.9,983.3,1274.7,1478.3,1231.0,1078.2,3.0,-2.0,1.0,-7572.0,-12438.0,5675.0,4919.0,-14.0,12.0,-2.0,-5.0,1.0,7.0,10966.0,10712.0,5109.0,2707.0,-13.0,0.0,0.0,1.0
2022-05-06 15:33:51.087216-07:00,1793.6,571.4,1149.8,1336.8,997.9,1116.5,1200.0,1291.8,3440.7,3435.8,1498.6,1304.3,1377.5,3441.9,1015.1,1461.7,3435.8,3437.0,622.2,1229.3,838.6,490.9,1281.0,1658.7,3444.3,3438.2,679.9,985.0,1274.7,1470.9,1230.2,1081.6,8.0,-1.0,1.0,-7575.0,-12437.0,5672.0,4920.0,2.0,3.0,-14.0,3.0,0.0,-1.0,10968.0,10711.0,5108.0,2707.0,4.0,2.0,-2.0,1.0
2022-05-06 15:33:51.088691-07:00,1793.6,571.4,1149.8,1342.2,1000.5,1111.2,1187.6,1286.4,3440.7,3435.8,1498.6,1298.1,1376.6,3444.3,1013.3,1467.2,3434.6,3438.2,618.9,1230.2,838.6,490.9,1281.0,1658.7,3454.0,3438.2,683.1,982.5,1276.5,1470.9,1230.2,1081.6,1.0,-7.0,-3.0,-7575.0,-12441.0,5665.0,4919.0,-5.0,-1.0,-6.0,-4.0,4.0,8.0,10968.0,10711.0,5108.0,2707.0,-1.0,5.0,-4.0,1.0
2022-05-06 15:33:51.147187-07:00,1800.3,561.8,1142.7,1328.7,1000.5,1111.2,1187.6,1286.4,3439.5,3439.5,1497.7,1302.5,1376.6,3444.3,1013.3,1467.2,3434.6,3438.2,618.9,1230.2,832.7,489.3,1294.5,1657.7,3454.0,3438.2,683.1,982.5,1276.5,1473.6,1229.3,1072.1,2.0,-4.0,-3.0,-7572.0,-12442.0,5667.0,4918.0,5.0,-10.0,-1.0,-1.0,3.0,1.0,10965.0,10713.0,5109.0,2706.0,-1.0,-4.0,-5.0,1.0
2022-05-06 15:33:51.207738-07:00,1800.3,561.8,1142.7,1328.7,1008.2,1122.6,1197.4,1285.5,3439.5,3439.5,1497.7,1302.5,1375.7,3443.1,1011.6,1458.0,3433.4,3437.0,617.3,1230.2,832.7,489.3,1294.5,1657.7,3451.6,3447.9,674.2,979.9,1276.5,1473.6,1229.3,1072.1,2.0,-4.0,0.0,-7572.0,-12441.0,5667.0,4920.0,-10.0,3.0,-9.0,-1.0,2.0,3.0,10965.0,10714.0,5109.0,2706.0,-2.0,6.0,-3.0,1.0
2022-05-06 15:33:51.267920-07:00,1791.6,561.0,1149.8,1338.6,1008.2,1122.6,1197.4,1285.5,3434.6,3445.5,1499.5,1310.6,1375.7,3443.1,1011.6,1458.0,3433.4,3437.0,617.3,1230.2,832.7,494.8,1290.9,1657.7,3451.6,3447.9,674.2,979.9,1271.2,1474.6,1236.4,1077.3,4.0,-3.0,2.0,-7569.0,-12443.0,5666.0,4923.0,8.0,4.0,-9.0,-2.0,2.0,1.0,10964.0,10715.0,5109.0,2705.0,4.0,3.0,-3.0,1.0
2022-05-06 15:33:51.297143-07:00,1791.6,561.0,1149.8,1338.6,996.2,1113.9,1200.0,1287.3,3434.6,3445.5,1499.5,1310.6,1381.2,3438.2,1016.8,1462.6,3438.2,3437.0,619.7,1222.2,832.7,494.8,1290.9,1657.7,3440.7,3447.9,672.5,979.0,1271.2,1474.6,1236.4,1077.3,1.0,-4.0,-4.0,-7571.0,-12443.0,5664.0,4920.0,7.0,3.0,8.0,-1.0,0.0,5.0,10964.0,10715.0,5109.0,2705.0,13.0,-1.0,2.0,1.0
2022-05-06 15:33:51.357398-07:00,1782.9,566.6,1141.0,1336.8,996.2,1113.9,1200.0,1287.3,3439.5,3445.5,1504.1,1301.6,1381.2,3438.2,1016.8,1462.6,3438.2,3437.0,619.7,1222.2,834.4,493.2,1286.4,1661.5,3440.7,3447.9,672.5,979.0,1270.3,1473.6,1237.3,1072.9,3.0,3.0,-2.0,-7567.0,-12446.0,5662.0,4921.0,-5.0,-6.0,-21.0,0.0,2.0,6.0,10961.0,10718.0,5110.0,2704.0,-6.0,4.0,-7.0,1.0
2022-05-06 15:33:51.417272-07:00,1801.3,566.6,1141.0,1336.8,997.0,1120.0,1194.7,1286.4,3437.0,3445.5,1504.1,1301.6,1376.6,3449.1,1018.5,1460.8,3443.1,3438.2,617.3,1231.9,834.4,493.2,1286.4,1653.9,3447.9,3443.1,677.4,981.6,1270.3,1473.6,1237.3,1072.1,5.0,-11.0,-1.0,-7571.0,-12445.0,5659.0,4920.0,-6.0,19.0,15.0,-1.0,0.0,2.0,10962.0,10717.0,5109.0,2704.0,-3.0,3.0,7.0,1.0
2022-05-06 15:33:51.447379-07:00,1801.3,570.6,1147.1,1331.4,997.0,1120.0,1194.7,1291.8,3437.0,3438.2,1498.6,1295.4,1376.6,3449.1,1018.5,1467.2,3437.0,3438.2,617.3,1231.9,826.0,490.9,1289.1,1653.9,3445.5,3443.1,677.4,981.6,1280.1,1466.3,1229.3,1072.1,4.0,6.0,-3.0,-7571.0,-12445.0,5659.0,4921.0,-1.0,-7.0,-14.0,-2.0,6.0,2.0,10962.0,10717.0,5109.0,2704.0,-3.0,-3.0,-7.0,1.0
2022-05-06 15:33:51.507498-07:00,1790.7,570.6,1147.1,1331.4,1008.2,1112.1,1200.0,1291.8,3450.4,3438.2,1498.6,1295.4,1373.0,3446.7,1012.5,1467.2,3437.0,3431.0,621.4,1231.9,826.0,490.9,1289.1,1659.6,3445.5,3440.7,675.8,980.7,1280.1,1466.3,1229.3,1079.0,3.0,-6.0,0.0,-7572.0,-12444.0,5660.0,4920.0,-13.0,11.0,16.0,-5.0,3.0,5.0,10962.0,10717.0,5109.0,2704.0,-5.0,-6.0,5.0,1.0
2022-05-06 15:33:51.537338-07:00,1790.7,556.2,1154.2,1335.0,1008.2,1112.1,1200.0,1285.5,3450.4,3445.5,1503.2,1298.1,1373.0,3446.7,1012.5,1457.1,3440.7,3431.0,621.4,1231.9,831.1,498.0,1292.7,1659.6,3450.4,3440.7,675.8,980.7,1272.1,1477.3,1239.1,1079.0,6.0,6.0,0.0,-7571.0,-12446.0,5656.0,4922.0,-1.0,7.0,-32.0,-1.0,4.0,3.0,10962.0,10717.0,5109.0,2704.0,-3.0,9.0,-7.0,1.0
2022-05-06 15:33:51.627835-07:00,1788.7,556.2,1154.2,1335.0,997.0,1120.9,1201.8,1285.5,3438.2,3445.5,1503.2,1298.1,1373.9,3444.3,1021.1,1457.1,3440.7,3438.2,613.3,1222.2,831.1,498.0,1292.7,1655.8,3450.4,3441.9,679.1,979.9,1272.1,1477.3,1239.1,1069.5,2.0,-10.0,0.0,-7569.0,-12450.0,5651.0,4920.0,10.0,12.0,9.0,-5.0,2.0,8.0,10960.0,10718.0,5110.0,2704.0,12.0,7.0,7.0,1.0
2022-05-06 15:33:51.657325-07:00,1788.7,566.6,1144.5,1349.4,997.0,1120.9,1197.4,1284.6,3438.2,3435.8,1499.5,1303.4,1373.9,3444.3,1011.6,1459.8,3449.1,3445.5,613.3,1222.2,835.2,494.8,1290.9,1655.8,3441.9,3450.4,679.1,979.9,1281.9,1474.6,1231.9,1069.5,3.0,-4.0,-3.0,-7570.0,-12452.0,5646.0,4919.0,4.0,1.0,-21.0,-2.0,-1.0,5.0,10959.0,10719.0,5111.0,2704.0,4.0,5.0,-7.0,1.0
2022-05-06 15:33:51.716958-07:00,1800.3,561.0,1144.5,1349.4,1002.2,1108.6,1197.4,1284.6,3439.5,3439.5,1499.5,1303.4,1379.4,3433.4,1011.6,1459.8,3449.1,3445.5,619.7,1226.6,835.2,494.8,1285.5,1653.9,3441.9,3450.4,687.2,985.0,1281.9,1474.6,1225.7,1067.7,9.0,-11.0,3.0,-7567.0,-12455.0,5645.0,4918.0,0.0,5.0,12.0,-3.0,1.0,1.0,10959.0,10720.0,5111.0,2703.0,0.0,-2.0,6.0,1.0
2022-05-06 15:33:51.746929-07:00,1800.3,561.0,1153.3,1333.2,1002.2,1108.6,1194.7,1281.9,3439.5,3439.5,1496.7,1296.3,1379.4,3433.4,1017.6,1446.0,3432.2,3437.0,619.7,1226.6,831.9,491.7,1285.5,1653.9,3438.2,3441.9,687.2,985.0,1278.3,1468.1,1225.7,1067.7,5.0,-2.0,-10.0,-7570.0,-12454.0,5645.0,4916.0,6.0,-2.0,-9.0,-1.0,5.0,3.0,10959.0,10720.0,5111.0,2703.0,12.0,-2.0,-7.0,1.0
2022-05-06 15:33:51.956808-07:00,1788.7,563.4,1153.3,1333.2,998.7,1113.0,1194.7,1281.9,3438.2,3439.5,1496.7,1296.3,1379.4,3449.1,1017.6,1446.0,3432.2,3437.0,618.1,1234.6,831.9,491.7,1288.2,1649.2,3438.2,3441.9,674.2,984.2,1278.3,1468.1,1223.9,1073.8,10.0,-7.0,6.0,-7563.0,-12459.0,5644.0,4916.0,-7.0,8.0,0.0,0.0,1.0,4.0,10955.0,10724.0,5112.0,2701.0,-11.0,-3.0,3.0,1.0
2022-05-06 15:33:51.958116-07:00,1788.7,563.4,1145.4,1341.3,998.7,1113.0,1193.8,1281.0,3438.2,3439.5,1506.9,1302.5,1379.4,3449.1,1013.3,1453.4,3423.7,3449.1,618.1,1234.6,838.6,490.1,1288.2,1649.2,3437.0,3449.1,674.2,984.2,1278.3,1462.6,1223.9,1073.8,3.0,-5.0,-8.0,-7566.0,-12459.0,5641.0,4914.0,26.0,-10.0,-1.0,-1.0,-2.0,10.0,10956.0,10723.0,5112.0,2701.0,30.0,7.0,1.0,1.0
2022-05-06 15:33:51.987813-07:00,1782.9,563.4,1141.9,1341.3,1001.3,1117.4,1193.8,1281.0,3433.4,3428.6,1505.1,1302.5,1374.8,3439.5,1013.3,1453.4,3423.7,3449.1,617.3,1223.9,838.6,493.2,1290.9,1654.9,3437.0,3449.1,675.0,982.5,1278.3,1476.4,1228.4,1066.9,10.0,-5.0,0.0,-7560.0,-12460.0,5641.0,4919.0,-18.0,3.0,-12.0,-5.0,2.0,3.0,10954.0,10725.0,5113.0,2700.0,-12.0,-4.0,-3.0,1.0
2022-05-06 15:33:51.988740-07:00,1782.9,563.4,1141.9,1336.8,1001.3,1117.4,1196.5,1289.1,3433.4,3428.6,1505.1,1300.7,1374.8,3435.8,1016.8,1463.5,3437.0,3441.9,618.1,1223.9,833.6,493.2,1290.9,1654.9,3441.9,3441.9,679.1,982.5,1278.3,1476.4,1228.4,1066.9,3.0,1.0,-2.0,-7563.0,-12459.0,5641.0,4918.0,9.0,-4.0,6.0,-6.0,3.0,1.0,10954.0,10725.0,5113.0,2700.0,4.0,1.0,5.0,1.0
2022-05-06 15:33:51.989995-07:00,1791.6,569.0,1148.0,1336.8,1003.9,1117.4,1196.5,1289.1,3441.9,3443.1,1500.4,1300.7,1377.5,3435.8,1016.8,1463.5,3437.0,3441.9,618.1,1231.9,833.6,491.7,1284.6,1661.5,3441.9,3441.9,679.1,983.3,1278.3,1471.8,1227.5,1074.7,5.0,-2.0,1.0,-7562.0,-12460.0,5638.0,4920.0,3.0,3.0,-14.0,-5.0,5.0,5.0,10954.0,10725.0,5113.0,2700.0,0.0,3.0,-5.0,1.0
2022-05-06 15:33:52.077867-07:00,1791.6,569.0,1148.0,1329.6,1003.9,1115.6,1200.9,1283.7,3441.9,3443.1,1500.4,1298.1,1377.5,3446.7,1017.6,1461.7,3435.8,3429.8,618.1,1231.9,828.5,491.7,1284.6,1661.5,3450.4,3439.5,679.1,983.3,1264.9,1471.8,1227.5,1074.7,5.0,-3.0,-2.0,-7562.0,-12461.0,5638.0,4919.0,-1.0,2.0,1.0,-3.0,4.0,5.0,10954.0,10725.0,5113.0,2700.0,0.0,2.0,2.0,1.0
2022-05-06 15:33:52.107949-07:00,1790.7,565.8,1141.9,1329.6,1009.0,1115.6,1200.9,1283.7,3438.2,3439.5,1500.4,1298.1,1378.5,3446.7,1017.6,1461.7,3435.8,3429.8,618.1,1227.5,828.5,489.3,1291.8,1655.8,3450.4,3439.5,679.1,983.3,1264.9,1478.3,1231.0,1075.6,8.0,-3.0,0.0,-7562.0,-12461.0,5638.0,4919.0,7.0,3.0,-7.0,-1.0,3.0,4.0,10954.0,10725.0,5113.0,2700.0,2.0,1.0,-3.0,1.0
2022-05-06 15:33:52.137336-07:00,1790.7,565.8,1141.9,1343.1,1009.0,1114.7,1185.9,1288.2,3438.2,3439.5,1500.4,1303.4,1378.5,3435.8,1010.8,1459.8,3439.5,3439.5,616.5,1227.5,834.4,489.3,1291.8,1655.8,3433.4,3438.2,678.2,983.3,1278.3,1478.3,1231.0,1075.6,6.0,-8.0,-2.0,-7563.0,-12460.0,5637.0,4919.0,-6.0,2.0,2.0,0.0,1.0,2.0,10954.0,10725.0,5113.0,2700.0,-3.0,-4.0,2.0,1.0
2022-05-06 15:33:52.197670-07:00,1779.1,574.6,1149.8,1339.5,1001.3,1114.7,1185.9,1288.2,3439.5,3439.5,1502.3,1299.0,1372.1,3435.8,1010.8,1459.8,3439.5,3439.5,616.5,1223.9,833.6,493.2,1281.0,1656.8,3433.4,3438.2,678.2,983.3,1276.5,1475.5,1227.5,1073.8,6.0,1.0,0.0,-7563.0,-12460.0,5638.0,4920.0,0.0,-9.0,-8.0,-3.0,6.0,2.0,10954.0,10725.0,5113.0,2700.0,3.0,0.0,-3.0,1.0
2022-05-06 15:33:52.227334-07:00,1779.1,574.6,1149.8,1339.5,1001.3,1120.9,1192.9,1292.7,3439.5,3439.5,1502.3,1299.0,1379.4,3434.6,1012.5,1459.8,3437.0,3432.2,614.1,1226.6,833.6,493.2,1281.0,1656.8,3434.6,3449.1,671.7,982.5,1276.5,1475.5,1227.5,1073.8,6.0,-9.0,2.0,-7562.0,-12461.0,5635.0,4920.0,0.0,13.0,1.0,0.0,-3.0,6.0,10954.0,10725.0,5113.0,2700.0,4.0,5.0,5.0,1.0
2022-05-06 15:33:52.317872-07:00,1792.6,561.0,1151.5,1336.8,1001.3,1120.9,1192.9,1292.7,3437.0,3441.9,1495.8,1303.4,1379.4,3434.6,1012.5,1459.8,3437.0,3432.2,614.1,1226.6,832.7,490.1,1290.0,1658.7,3434.6,3449.1,671.7,982.5,1274.7,1468.1,1238.2,1077.3,5.0,-2.0,-6.0,-7563.0,-12462.0,5634.0,4918.0,-5.0,5.0,-5.0,-3.0,2.0,2.0,10954.0,10725.0,5113.0,2700.0,-4.0,4.0,-2.0,1.0
2022-05-06 15:33:52.407217-07:00,1792.6,561.0,1151.5,1336.8,997.0,1103.4,1196.5,1285.5,3437.0,3441.9,1495.8,1303.4,1380.3,3439.5,1015.1,1458.0,3441.9,3437.0,614.1,1223.0,832.7,490.1,1290.0,1658.7,3449.1,3449.1,675.8,981.6,1274.7,1468.1,1238.2,1077.3,10.0,-5.0,-5.0,-7563.0,-12462.0,5634.0,4918.0,8.0,-3.0,3.0,3.0,3.0,2.0,10954.0,10725.0,5113.0,2700.0,7.0,-3.0,2.0,1.0
2022-05-06 15:33:52.408385-07:00,1792.6,561.8,1159.4,1344.0,997.0,1103.4,1196.5,1285.5,3441.9,3433.4,1494.9,1307.0,1380.3,3439.5,1015.1,1458.0,3441.9,3437.0,614.1,1223.0,834.4,489.3,1290.9,1653.9,3449.1,3449.1,675.8,981.6,1274.7,1464.4,1231.0,1072.1,7.0,-4.0,-2.0,-7565.0,-12461.0,5633.0,4919.0,-8.0,-4.0,-8.0,-3.0,-4.0,5.0,10955.0,10724.0,5112.0,2701.0,-6.0,-1.0,0.0,1.0
2022-05-06 15:33:52.437150-07:00,1789.7,561.8,1159.4,1344.0,1003.0,1113.0,1189.4,1286.4,3440.7,3433.4,1494.9,1307.0,1378.5,3437.0,1013.3,1456.2,3438.2,3434.6,614.1,1223.0,834.4,489.3,1290.9,1655.8,3443.1,3446.7,675.8,979.9,1274.7,1464.4,1231.0,1078.2,4.0,1.0,0.0,-7563.0,-12463.0,5631.0,4920.0,3.0,7.0,-3.0,-7.0,2.0,9.0,10953.0,10725.0,5113.0,2700.0,1.0,4.0,-2.0,1.0
2022-05-06 15:33:52.497281-07:00,1789.7,565.8,1148.9,1340.4,1003.0,1113.0,1189.4,1297.2,3440.7,3439.5,1500.4,1303.4,1378.5,3437.0,1013.3,1456.2,3428.6,3434.6,614.1,1223.0,834.4,494.0,1286.4,1655.8,3441.9,3446.7,675.8,979.9,1267.6,1475.5,1225.7,1078.2,5.0,0.0,-6.0,-7567.0,-12462.0,5628.0,4918.0,5.0,5.0,-2.0,-3.0,3.0,2.0,10954.0,10724.0,5113.0,2700.0,6.0,2.0,1.0,1.0
2022-05-06 15:33:52.526985-07:00,1782.9,565.8,1148.9,1340.4,1003.9,1113.0,1192.0,1297.2,3440.7,3439.5,1500.4,1303.4,1372.1,3444.3,1014.2,1456.2,3428.6,3438.2,614.1,1221.3,834.4,494.0,1286.4,1657.7,3441.9,3447.9,673.3,978.2,1267.6,1475.5,1225.7,1072.9,5.0,-8.0,2.0,-7566.0,-12464.0,5626.0,4919.0,-2.0,-1.0,-5.0,-4.0,5.0,3.0,10953.0,10725.0,5113.0,2700.0,1.0,2.0,-2.0,1.0
2022-05-06 15:33:52.587304-07:00,1782.9,561.0,1150.6,1336.8,1003.9,1113.0,1192.0,1287.3,3440.7,3444.3,1506.0,1295.4,1372.1,3444.3,1014.2,1466.3,3439.5,3438.2,614.1,1221.3,838.6,502.8,1284.6,1657.7,3449.1,3447.9,673.3,978.2,1268.5,1470.0,1229.3,1072.9,3.0,-1.0,-3.0,-7567.0,-12465.0,5624.0,4916.0,13.0,-1.0,-1.0,-5.0,7.0,6.0,10953.0,10725.0,5113.0,2700.0,12.0,2.0,-1.0,1.0
2022-05-06 15:33:52.647129-07:00,1782.0,561.0,1150.6,1336.8,993.6,1120.9,1187.6,1287.3,3439.5,3444.3,1506.0,1295.4,1367.6,3444.3,1015.1,1466.3,3439.5,3439.5,617.3,1226.6,838.6,502.8,1284.6,1659.6,3449.1,3444.3,675.0,981.6,1268.5,1470.0,1229.3,1072.9,9.0,-4.0,2.0,-7563.0,-12466.0,5626.0,4918.0,-3.0,4.0,-9.0,-5.0,3.0,6.0,10951.0,10727.0,5113.0,2699.0,3.0,-4.0,-8.0,1.0
2022-05-06 15:33:52.677721-07:00,1782.0,563.4,1152.4,1335.0,993.6,1120.9,1187.6,1286.4,3439.5,3437.0,1504.1,1299.8,1367.6,3444.3,1015.1,1463.5,3440.7,3439.5,617.3,1226.6,829.4,495.6,1284.6,1659.6,3449.1,3444.3,675.0,981.6,1271.2,1471.8,1231.9,1072.9,5.0,-8.0,0.0,-7564.0,-12466.0,5624.0,4917.0,-3.0,10.0,4.0,-3.0,-3.0,1.0,10951.0,10727.0,5113.0,2699.0,-5.0,3.0,4.0,1.0
2022-05-06 15:33:52.737967-07:00,1786.8,565.0,1152.4,1335.0,998.7,1106.0,1191.2,1286.4,3439.5,3444.3,1504.1,1299.8,1371.2,3438.2,1018.5,1463.5,3440.7,3444.3,614.1,1225.7,829.4,495.6,1292.7,1671.0,3449.1,3446.7,673.3,981.6,1271.2,1471.8,1228.4,1075.6,9.0,3.0,-10.0,-7564.0,-12467.0,5623.0,4917.0,-2.0,-7.0,-7.0,-3.0,6.0,1.0,10951.0,10727.0,5113.0,2699.0,1.0,1.0,0.0,1.0
2022-05-06 15:33:52.827487-07:00,1786.8,565.0,1142.7,1334.1,998.7,1106.0,1191.2,1288.2,3439.5,3444.3,1500.4,1305.2,1371.2,3438.2,1007.3,1463.5,3431.0,3444.3,614.1,1225.7,835.2,493.2,1292.7,1671.0,3449.1,3446.7,673.3,981.6,1275.6,1477.3,1228.4,1075.6,10.0,-8.0,-1.0,-7564.0,-12467.0,5623.0,4917.0,-9.0,-5.0,1.0,-3.0,0.0,2.0,10951.0,10727.0,5113.0,2699.0,1.0,-5.0,0.0,1.0
2022-05-06 15:33:52.829041-07:00,1781.0,553.0,1142.7,1334.1,1001.3,1106.9,1191.2,1288.2,3429.8,3439.5,1500.4,1305.2,1373.9,3424.9,1007.3,1463.5,3431.0,3444.3,616.5,1223.0,835.2,493.2,1289.1,1658.7,3449.1,3446.7,676.6,980.7,1275.6,1477.3,1225.7,1068.6,6.0,0.0,-3.0,-7568.0,-12463.0,5623.0,4919.0,-3.0,-14.0,8.0,-5.0,1.0,2.0,10954.0,10726.0,5111.0,2698.0,-4.0,-11.0,5.0,1.0
2022-05-06 15:33:52.886984-07:00,1781.0,553.0,1143.6,1336.8,1001.3,1106.9,1191.2,1288.2,3429.8,3439.5,1483.8,1303.4,1373.9,3424.9,1014.2,1458.0,3428.6,3444.3,616.5,1223.0,838.6,487.7,1289.1,1658.7,3439.5,3435.8,676.6,980.7,1270.3,1470.0,1225.7,1068.6,6.0,0.0,2.0,-7568.0,-12463.0,5624.0,4921.0,-2.0,-3.0,-2.0,-3.0,5.0,10.0,10954.0,10726.0,5110.0,2697.0,-1.0,-1.0,3.0,1.0
2022-05-06 15:33:52.946751-07:00,1791.6,558.6,1143.6,1336.8,994.5,1112.1,1191.2,1288.2,3440.7,3446.7,1483.8,1303.4,1373.9,3437.0,1014.2,1458.0,3428.6,3444.3,617.3,1229.3,838.6,487.7,1296.3,1649.2,3439.5,3435.8,672.5,982.5,1270.3,1470.0,1226.6,1078.2,5.0,-3.0,-1.0,-7573.0,-12460.0,5622.0,4922.0,-4.0,8.0,-4.0,-1.0,1.0,6.0,10956.0,10724.0,5110.0,2698.0,-1.0,-2.0,4.0,1.0
2022-05-06 15:33:52.977159-07:00,1791.6,558.6,1148.9,1327.8,994.5,1112.1,1186.7,1287.3,3440.7,3446.7,1499.5,1303.4,1373.9,3443.1,1017.6,1459.8,3439.5,3431.0,621.4,1229.3,833.6,489.3,1296.3,1649.2,3447.9,3445.5,676.6,982.5,1270.3,1478.3,1226.6,1078.2,10.0,-6.0,-3.0,-7571.0,-12461.0,5623.0,4922.0,1.0,-4.0,-6.0,0.0,0.0,0.0,10954.0,10726.0,5110.0,2697.0,4.0,2.0,0.0,1.0
2022-05-06 15:33:53.067549-07:00,1811.0,569.8,1148.0,1327.8,995.3,1112.1,1186.7,1287.3,3443.1,3431.0,1497.7,1303.4,1369.4,3443.1,1017.6,1459.8,3439.5,3431.0,621.4,1224.8,833.6,489.3,1285.5,1655.8,3447.9,3445.5,676.6,973.1,1270.3,1470.9,1235.5,1069.5,3.0,0.0,-9.0,-7570.0,-12462.0,5625.0,4920.0,15.0,-2.0,11.0,-4.0,3.0,3.0,10954.0,10726.0,5110.0,2698.0,8.0,-1.0,10.0,1.0
2022-05-06 15:33:53.096671-07:00,1811.0,569.8,1148.0,1335.0,995.3,1113.0,1192.9,1289.1,3443.1,3431.0,1497.7,1293.6,1369.4,3441.9,1016.8,1473.6,3439.5,3434.6,617.3,1224.8,826.0,489.3,1285.5,1655.8,3439.5,3440.7,673.3,973.1,1274.7,1470.9,1235.5,1069.5,8.0,-4.0,-1.0,-7572.0,-12459.0,5627.0,4920.0,-5.0,-12.0,4.0,-2.0,3.0,4.0,10954.0,10727.0,5109.0,2699.0,4.0,0.0,1.0,1.0
2022-05-06 15:33:53.157179-07:00,1792.6,569.8,1145.4,1335.0,993.6,1113.0,1192.9,1289.1,3441.9,3437.0,1499.5,1293.6,1376.6,3441.9,1016.8,1473.6,3439.5,3434.6,617.3,1235.5,826.0,494.0,1285.5,1649.2,3439.5,3440.7,673.3,979.0,1274.7,1473.6,1231.9,1073.8,12.0,-3.0,3.0,-7568.0,-12460.0,5630.0,4922.0,2.0,0.0,-1.0,2.0,4.0,6.0,10953.0,10727.0,5109.0,2698.0,5.0,1.0,2.0,1.0
2022-05-06 15:33:53.187739-07:00,1792.6,569.8,1145.4,1327.8,993.6,1116.5,1192.0,1288.2,3441.9,3437.0,1499.5,1301.6,1376.6,3437.0,1016.8,1456.2,3434.6,3433.4,611.7,1235.5,831.1,494.0,1285.5,1649.2,3433.4,3451.6,674.2,979.0,1273.9,1473.6,1231.9,1073.8,5.0,0.0,-4.0,-7570.0,-12461.0,5628.0,4916.0,10.0,14.0,8.0,-7.0,3.0,3.0,10952.0,10729.0,5109.0,2698.0,15.0,7.0,6.0,1.0
2022-05-06 15:33:53.247187-07:00,1795.5,559.4,1159.4,1339.5,995.3,1116.5,1192.0,1288.2,3439.5,3449.1,1506.9,1302.5,1375.7,3437.0,1016.8,1456.2,3434.6,3433.4,611.7,1227.5,836.1,494.8,1290.0,1654.9,3433.4,3451.6,674.2,982.5,1270.3,1478.3,1226.6,1074.7,11.0,-6.0,-1.0,-7565.0,-12465.0,5625.0,4917.0,14.0,9.0,-19.0,0.0,4.0,8.0,10947.0,10731.0,5113.0,2700.0,14.0,12.0,-4.0,1.0
2022-05-06 15:33:53.277369-07:00,1795.5,559.4,1159.4,1339.5,993.6,1116.5,1192.9,1281.0,3439.5,3449.1,1506.9,1302.5,1375.7,3440.7,1017.6,1457.1,3433.4,3435.8,618.1,1223.0,836.1,494.8,1290.0,1654.9,3447.9,3443.1,679.9,979.9,1270.3,1478.3,1226.6,1074.7,8.0,-6.0,-5.0,-7568.0,-12467.0,5621.0,4913.0,-17.0,18.0,4.0,-2.0,0.0,2.0,10947.0,10731.0,5113.0,2700.0,-8.0,-1.0,5.0,1.0
2022-05-06 15:33:53.337480-07:00,1783.9,563.4,1146.3,1337.7,993.6,1116.5,1192.9,1281.0,3441.9,3449.1,1501.4,1303.4,1375.7,3440.7,1017.6,1457.1,3433.4,3435.8,618.1,1223.0,836.1,493.2,1294.5,1649.2,3447.9,3443.1,679.9,979.9,1273.0,1466.3,1239.1,1077.3,11.0,2.0,-3.0,-7568.0,-12469.0,5619.0,4911.0,15.0,-6.0,-11.0,-3.0,7.0,1.0,10946.0,10733.0,5113.0,2699.0,12.0,4.0,0.0,1.0
2022-05-06 15:33:53.397197-07:00,1783.9,563.4,1146.3,1337.7,1001.3,1106.9,1185.9,1301.6,3441.9,3449.1,1501.4,1303.4,1367.6,3431.0,1018.5,1457.1,3440.7,3444.3,618.9,1224.8,836.1,493.2,1294.5,1649.2,3447.9,3445.5,674.2,982.5,1273.0,1466.3,1239.1,1077.3,3.0,-8.0,-3.0,-7571.0,-12469.0,5616.0,4908.0,-22.0,19.0,6.0,0.0,-3.0,11.0,10948.0,10731.0,5112.0,2700.0,-17.0,0.0,4.0,1.0
2022-05-06 15:33:53.427340-07:00,1793.6,561.8,1161.2,1335.0,1001.3,1106.9,1185.9,1301.6,3444.3,3438.2,1500.4,1300.7,1367.6,3431.0,1018.5,1457.1,3440.7,3444.3,618.9,1224.8,830.2,494.0,1284.6,1651.1,3447.9,3445.5,674.2,982.5,1274.7,1476.4,1226.6,1073.8,12.0,-1.0,-4.0,-7570.0,-12468.0,5618.0,4912.0,19.0,-26.0,-14.0,0.0,6.0,1.0,10947.0,10731.0,5113.0,2699.0,12.0,4.0,-8.0,1.0
2022-05-06 15:33:53.487698-07:00,1793.6,561.8,1161.2,1335.0,993.6,1122.6,1177.9,1287.3,3444.3,3438.2,1500.4,1300.7,1382.1,3438.2,1012.5,1457.1,3439.5,3433.4,614.9,1228.4,830.2,494.0,1284.6,1651.1,3445.5,3435.8,665.2,989.3,1274.7,1476.4,1226.6,1073.8,4.0,-7.0,-1.0,-7569.0,-12468.0,5615.0,4917.0,-25.0,17.0,0.0,-3.0,-4.0,11.0,10950.0,10729.0,5112.0,2700.0,-21.0,-3.0,4.0,1.0
2022-05-06 15:33:53.637269-07:00,1787.8,560.2,1147.1,1334.1,993.6,1122.6,1177.9,1280.1,3449.1,3438.2,1493.0,1301.6,1382.1,3438.2,1012.5,1455.2,3437.0,3433.4,614.9,1228.4,833.6,499.6,1282.8,1664.4,3451.6,3435.8,665.2,989.3,1276.5,1470.9,1232.8,1073.8,9.0,3.0,-4.0,-7573.0,-12466.0,5613.0,4918.0,6.0,-6.0,-10.0,-2.0,9.0,0.0,10951.0,10727.0,5111.0,2701.0,9.0,7.0,-2.0,1.0
2022-05-06 15:33:53.697929-07:00,1786.8,560.2,1147.1,1334.1,990.2,1110.4,1198.2,1280.1,3439.5,3438.2,1493.0,1301.6,1375.7,3449.1,1018.5,1455.2,3437.0,3449.1,623.8,1226.6,833.6,499.6,1282.8,1653.9,3451.6,3438.2,677.4,976.5,1276.5,1470.9,1232.8,1077.3,7.0,-12.0,0.0,-7572.0,-12467.0,5608.0,4922.0,-17.0,-3.0,-3.0,-4.0,-5.0,3.0,10953.0,10726.0,5111.0,2702.0,-14.0,1.0,-3.0,1.0
2022-05-06 15:33:53.698773-07:00,1786.8,557.8,1148.0,1344.0,990.2,1110.4,1198.2,1287.3,3439.5,3435.8,1498.6,1302.5,1375.7,3449.1,1018.5,1455.2,3435.8,3449.1,623.8,1226.6,834.4,493.2,1284.6,1653.9,3449.1,3438.2,677.4,976.5,1277.4,1472.7,1230.2,1077.3,6.0,-1.0,-7.0,-7575.0,-12465.0,5609.0,4921.0,-12.0,1.0,8.0,-1.0,0.0,3.0,10954.0,10725.0,5111.0,2702.0,-9.0,-2.0,6.0,1.0
2022-05-06 15:33:53.699840-07:00,1785.8,557.8,1148.0,1344.0,999.6,1108.6,1189.4,1287.3,3434.6,3435.8,1498.6,1302.5,1383.0,3440.7,1018.5,1455.2,3435.8,3438.2,617.3,1224.8,834.4,493.2,1284.6,1654.9,3449.1,3446.7,671.7,1003.0,1277.4,1472.7,1230.2,1068.6,8.0,-1.0,-2.0,-7573.0,-12463.0,5612.0,4925.0,7.0,-14.0,-5.0,-3.0,5.0,6.0,10954.0,10725.0,5111.0,2702.0,-1.0,-4.0,-4.0,1.0
2022-05-06 15:33:53.727306-07:00,1785.8,563.4,1143.6,1344.0,999.6,1108.6,1189.4,1288.2,3434.6,3449.1,1496.7,1303.4,1383.0,3440.7,1018.5,1468.1,3431.0,3438.2,617.3,1224.8,831.1,493.2,1286.4,1654.9,3449.1,3446.7,671.7,1003.0,1248.0,1472.7,1227.5,1068.6,10.0,-10.0,0.0,-7580.0,-12458.0,5610.0,4930.0,-22.0,-3.0,10.0,0.0,-5.0,6.0,10958.0,10721.0,5110.0,2705.0,-9.0,-6.0,4.0,1.0
2022-05-06 15:33:53.787184-07:00,1789.7,559.4,1143.6,1344.0,996.2,1121.7,1186.7,1288.2,3441.9,3439.5,1496.7,1303.4,1378.5,3441.9,1030.6,1468.1,3431.0,3437.0,617.3,1223.9,831.1,493.2,1289.1,1654.9,3449.1,3443.1,669.3,979.0,1248.0,1472.7,1229.3,1072.9,10.0,8.0,-4.0,-7573.0,-12461.0,5615.0,4929.0,22.0,-22.0,-15.0,0.0,9.0,5.0,10956.0,10723.0,5110.0,2704.0,6.0,7.0,-9.0,1.0
2022-05-06 15:33:53.847234-07:00,1789.7,559.4,1148.9,1333.2,996.2,1121.7,1192.9,1279.2,3441.9,3439.5,1499.5,1291.8,1378.5,3441.9,1010.8,1459.8,3447.9,3438.2,617.3,1223.9,827.7,490.9,1289.1,1654.9,3451.6,3445.5,669.3,979.0,1274.7,1469.0,1229.3,1072.9,12.0,-17.0,0.0,-7572.0,-12459.0,5613.0,4937.0,-7.0,2.0,2.0,2.0,-4.0,6.0,10959.0,10720.0,5111.0,2703.0,0.0,1.0,3.0,1.0
2022-05-06 15:33:53.907253-07:00,1787.8,566.6,1148.9,1333.2,1003.9,1112.1,1192.9,1279.2,3433.4,3439.5,1499.5,1291.8,1373.0,3435.8,1010.8,1459.8,3447.9,3438.2,623.0,1226.6,827.7,490.9,1289.1,1647.3,3451.6,3445.5,679.9,979.9,1274.7,1469.0,1226.6,1069.5,8.0,4.0,-4.0,-7572.0,-12459.0,5612.0,4937.0,-11.0,-7.0,-13.0,-4.0,5.0,4.0,10959.0,10720.0,5111.0,2703.0,-8.0,0.0,-7.0,1.0
2022-05-06 15:33:53.937170-07:00,1787.8,566.6,1152.4,1333.2,1003.9,1112.1,1196.5,1281.0,3433.4,3439.5,1494.0,1304.3,1373.0,3435.8,1016.8,1459.8,3429.8,3440.7,623.0,1226.6,831.9,490.1,1289.1,1647.3,3440.7,3443.1,679.9,979.9,1274.7,1474.6,1226.6,1069.5,10.0,-9.0,1.0,-7572.0,-12461.0,5609.0,4938.0,2.0,18.0,2.0,-1.0,2.0,8.0,10959.0,10720.0,5111.0,2703.0,7.0,2.0,1.0,1.0
2022-05-06 15:33:53.997231-07:00,1782.9,561.0,1152.4,1333.2,993.6,1114.7,1196.5,1281.0,3434.6,3449.1,1494.0,1304.3,1367.6,3439.5,1016.8,1459.8,3429.8,3440.7,612.5,1228.4,831.9,490.1,1288.2,1653.0,3440.7,3443.1,675.0,978.2,1274.7,1474.6,1234.6,1084.2,6.0,-2.0,-4.0,-7574.0,-12460.0,5606.0,4938.0,9.0,-15.0,-17.0,-1.0,1.0,7.0,10959.0,10719.0,5111.0,2704.0,9.0,2.0,-3.0,1.0
2022-05-06 15:33:54.027431-07:00,1782.9,561.0,1148.0,1340.4,993.6,1114.7,1196.5,1292.7,3434.6,3449.1,1493.0,1299.8,1367.6,3439.5,1012.5,1456.2,3437.0,3443.1,614.1,1228.4,832.7,494.0,1288.2,1653.0,3438.2,3449.1,679.9,978.2,1270.3,1476.4,1234.6,1084.2,9.0,-11.0,0.0,-7571.0,-12463.0,5603.0,4939.0,-29.0,24.0,5.0,-6.0,-3.0,8.0,10959.0,10719.0,5112.0,2703.0,-20.0,-1.0,4.0,1.0
2022-05-06 15:33:54.117228-07:00,1810.0,569.8,1150.6,1340.4,997.0,1114.7,1196.5,1292.7,3444.3,3438.2,1502.3,1299.8,1375.7,3439.5,1012.5,1456.2,3437.0,3443.1,614.1,1225.7,832.7,493.2,1293.6,1657.7,3438.2,3449.1,679.9,980.7,1270.3,1478.3,1221.3,1070.3,5.0,6.0,-8.0,-7580.0,-12459.0,5602.0,4936.0,7.0,-12.0,1.0,-2.0,6.0,2.0,10961.0,10717.0,5111.0,2704.0,5.0,-3.0,-3.0,1.0
2022-05-06 15:33:54.118860-07:00,1810.0,569.8,1150.6,1331.4,997.0,1115.6,1188.5,1281.0,3444.3,3438.2,1502.3,1296.3,1375.7,3443.1,1017.6,1456.2,3428.6,3437.0,616.5,1225.7,833.6,493.2,1293.6,1657.7,3437.0,3441.9,675.0,980.7,1276.5,1478.3,1221.3,1070.3,11.0,-3.0,0.0,-7575.0,-12459.0,5603.0,4945.0,-2.0,-15.0,-14.0,-5.0,0.0,10.0,10961.0,10717.0,5111.0,2704.0,-4.0,0.0,-7.0,1.0
2022-05-06 15:33:54.178248-07:00,1778.1,564.2,1146.3,1331.4,1000.5,1115.6,1188.5,1281.0,3428.6,3424.9,1495.8,1296.3,1379.4,3443.1,1017.6,1456.2,3428.6,3437.0,616.5,1228.4,833.6,495.6,1283.7,1647.3,3437.0,3441.9,675.0,974.8,1276.5,1472.7,1227.5,1079.9,10.0,-1.0,-2.0,-7574.0,-12459.0,5603.0,4945.0,11.0,0.0,-4.0,-2.0,0.0,4.0,10961.0,10717.0,5111.0,2704.0,7.0,3.0,1.0,1.0
2022-05-06 15:33:54.237151-07:00,1778.1,564.2,1146.3,1333.2,1000.5,1113.0,1196.5,1280.1,3428.6,3424.9,1495.8,1299.0,1379.4,3444.3,1009.9,1458.9,3429.8,3435.8,618.9,1228.4,835.2,495.6,1283.7,1647.3,3438.2,3441.9,686.4,974.8,1276.5,1472.7,1227.5,1079.9,12.0,-2.0,-6.0,-7572.0,-12461.0,5600.0,4946.0,1.0,-6.0,-16.0,-3.0,3.0,4.0,10961.0,10717.0,5112.0,2705.0,-1.0,5.0,-7.0,1.0
2022-05-06 15:33:54.297297-07:00,1782.0,569.8,1146.3,1333.2,1000.5,1113.0,1196.5,1280.1,3432.2,3435.8,1495.8,1299.0,1373.0,3444.3,1009.9,1458.9,3429.8,3435.8,618.9,1231.9,835.2,490.1,1288.2,1651.1,3438.2,3441.9,686.4,977.3,1276.5,1472.7,1224.8,1070.3,7.0,-10.0,2.0,-7574.0,-12461.0,5597.0,4945.0,-13.0,20.0,7.0,-2.0,0.0,8.0,10961.0,10717.0,5112.0,2705.0,-9.0,-2.0,5.0,1.0
2022-05-06 15:33:54.327471-07:00,1782.0,569.8,1146.3,1335.9,997.9,1106.9,1191.2,1281.0,3432.2,3435.8,1495.8,1300.7,1373.9,3437.0,1018.5,1461.7,3435.8,3443.1,613.3,1227.5,831.1,490.1,1288.2,1651.1,3440.7,3440.7,670.1,978.2,1270.3,1472.7,1224.8,1070.3,6.0,1.0,-7.0,-7578.0,-12462.0,5594.0,4941.0,10.0,5.0,-10.0,-5.0,0.0,4.0,10960.0,10718.0,5112.0,2704.0,11.0,6.0,-4.0,1.0
2022-05-06 15:33:54.387285-07:00,1790.7,560.2,1148.9,1333.2,997.9,1106.9,1191.2,1281.0,3444.3,3435.8,1505.1,1303.4,1373.9,3437.0,1018.5,1461.7,3435.8,3443.1,613.3,1227.5,832.7,492.5,1288.2,1673.8,3440.7,3440.7,670.1,978.2,1270.3,1469.0,1226.6,1073.8,12.0,-10.0,-2.0,-7573.0,-12464.0,5593.0,4945.0,-4.0,-2.0,-4.0,0.0,-1.0,4.0,10960.0,10718.0,5112.0,2704.0,-3.0,0.0,-3.0,1.0
2022-05-06 15:33:54.417327-07:00,1790.7,560.2,1148.9,1333.2,997.0,1112.1,1192.0,1317.8,3444.3,3435.8,1505.1,1303.4,1374.8,3435.8,1021.1,1462.6,3432.2,3435.8,613.3,1233.7,832.7,492.5,1288.2,1673.8,3428.6,3441.9,678.2,979.9,1270.3,1469.0,1226.6,1073.8,10.0,0.0,-8.0,-7575.0,-12464.0,5591.0,4943.0,-2.0,7.0,0.0,-2.0,-1.0,2.0,10960.0,10718.0,5112.0,2704.0,-1.0,1.0,2.0,1.0
2022-05-06 15:33:54.478353-07:00,1781.0,559.4,1150.6,1334.1,997.0,1112.1,1192.0,1317.8,3444.3,3437.0,1493.0,1297.2,1374.8,3435.8,1021.1,1462.6,3432.2,3435.8,613.3,1233.7,831.9,493.2,1291.8,1665.3,3428.6,3441.9,678.2,979.9,1271.2,1464.4,1233.7,1074.7,9.0,-10.0,1.0,-7574.0,-12465.0,5588.0,4945.0,-5.0,4.0,-7.0,-2.0,-4.0,7.0,10960.0,10718.0,5112.0,2704.0,-1.0,-1.0,-4.0,1.0
2022-05-06 15:33:54.537322-07:00,1781.0,559.4,1150.6,1334.1,993.6,1105.1,1192.0,1277.4,3444.3,3437.0,1493.0,1297.2,1373.9,3432.2,1014.2,1459.8,3438.2,3434.6,610.8,1225.7,831.9,493.2,1291.8,1665.3,3439.5,3434.6,683.1,985.0,1271.2,1464.4,1233.7,1074.7,11.0,4.0,-4.0,-7575.0,-12466.0,5587.0,4944.0,-7.0,12.0,-6.0,-2.0,4.0,2.0,10960.0,10718.0,5112.0,2704.0,-8.0,6.0,-2.0,1.0
2022-05-06 15:33:54.567227-07:00,1781.0,565.0,1161.2,1335.0,993.6,1105.1,1192.0,1284.6,3433.4,3435.8,1500.4,1298.1,1373.9,3432.2,1014.2,1457.1,3444.3,3434.6,610.8,1225.7,833.6,494.8,1287.3,1648.3,3440.7,3434.6,683.1,985.0,1266.7,1459.8,1223.9,1062.5,13.0,-10.0,-1.0,-7575.0,-12468.0,5581.0,4944.0,6.0,0.0,-16.0,0.0,-5.0,5.0,10958.0,10718.0,5113.0,2705.0,14.0,9.0,-5.0,1.0
2022-05-06 15:33:54.627655-07:00,1787.8,565.0,1161.2,1335.0,997.0,1113.9,1177.9,1284.6,3441.9,3435.8,1500.4,1298.1,1367.6,3451.6,1011.6,1457.1,3444.3,3431.0,618.9,1223.9,833.6,494.8,1287.3,1659.6,3440.7,3449.1,677.4,979.0,1266.7,1459.8,1223.9,1074.7,10.0,-3.0,-12.0,-7575.0,-12470.0,5580.0,4943.0,-9.0,2.0,4.0,-5.0,0.0,2.0,10958.0,10718.0,5113.0,2705.0,-2.0,0.0,2.0,1.0
2022-05-06 15:33:54.687252-07:00,1787.8,569.0,1148.9,1329.6,997.0,1113.9,1177.9,1289.1,3441.9,3428.6,1501.4,1296.3,1367.6,3451.6,1011.6,1455.2,3433.4,3431.0,618.9,1223.9,834.4,489.3,1289.1,1659.6,3444.3,3449.1,677.4,979.0,1273.0,1472.7,1228.4,1074.7,9.0,0.0,-2.0,-7575.0,-12469.0,5580.0,4944.0,2.0,-8.0,-2.0,-1.0,0.0,7.0,10958.0,10718.0,5113.0,2705.0,-3.0,-2.0,1.0,1.0
2022-05-06 15:33:54.717303-07:00,1783.9,569.0,1148.9,1329.6,995.3,1112.1,1188.5,1289.1,3449.1,3428.6,1501.4,1296.3,1367.6,3449.1,1015.9,1455.2,3433.4,3441.9,615.7,1223.9,834.4,489.3,1289.1,1656.8,3444.3,3449.1,679.9,971.3,1273.0,1472.7,1228.4,1069.5,10.0,-3.0,-1.0,-7579.0,-12468.0,5577.0,4943.0,2.0,10.0,8.0,-2.0,0.0,7.0,10960.0,10717.0,5113.0,2706.0,9.0,-2.0,7.0,1.0
2022-05-06 15:33:54.777341-07:00,1783.9,560.2,1142.7,1346.7,995.3,1112.1,1188.5,1282.8,3449.1,3443.1,1500.4,1297.2,1367.6,3449.1,1015.9,1457.1,3441.9,3441.9,615.7,1223.9,831.9,493.2,1287.3,1656.8,3438.2,3449.1,679.9,971.3,1271.2,1470.0,1231.0,1069.5,14.0,-8.0,-3.0,-7578.0,-12470.0,5576.0,4942.0,-14.0,-4.0,-13.0,1.0,1.0,6.0,10960.0,10717.0,5113.0,2706.0,-9.0,1.0,-1.0,1.0
2022-05-06 15:33:54.837863-07:00,1787.8,560.2,1142.7,1346.7,1002.2,1110.4,1192.9,1282.8,3444.3,3443.1,1500.4,1297.2,1376.6,3440.7,1015.1,1457.1,3441.9,3439.5,614.1,1231.9,831.9,493.2,1287.3,1653.9,3438.2,3437.0,675.0,981.6,1271.2,1470.0,1231.0,1075.6,8.0,0.0,-6.0,-7580.0,-12469.0,5574.0,4942.0,2.0,10.0,0.0,-5.0,5.0,7.0,10960.0,10717.0,5113.0,2706.0,5.0,2.0,0.0,1.0
2022-05-06 15:33:54.897170-07:00,1787.8,560.2,1149.8,1333.2,1002.2,1110.4,1189.4,1287.3,3444.3,3438.2,1495.8,1302.5,1376.6,3440.7,1016.8,1459.8,3437.0,3433.4,614.1,1231.9,834.4,494.0,1288.2,1653.9,3438.2,3439.5,675.0,981.6,1273.0,1466.3,1225.7,1075.6,12.0,-7.0,-3.0,-7580.0,-12470.0,5573.0,4941.0,-3.0,-1.0,7.0,0.0,-5.0,4.0,10960.0,10717.0,5113.0,2706.0,3.0,-2.0,4.0,1.0
2022-05-06 15:33:54.957443-07:00,1796.5,561.0,1149.8,1333.2,1008.2,1120.9,1189.4,1287.3,3444.3,3441.9,1495.8,1302.5,1375.7,3439.5,1016.8,1459.8,3437.0,3433.4,615.7,1223.9,834.4,494.0,1288.2,1656.8,3438.2,3439.5,677.4,980.7,1273.0,1466.3,1235.5,1073.8,12.0,-7.0,-2.0,-7580.0,-12470.0,5573.0,4941.0,-10.0,3.0,-9.0,-2.0,0.0,7.0,10961.0,10716.0,5113.0,2706.0,-12.0,-2.0,-1.0,1.0
2022-05-06 15:33:54.987317-07:00,1796.5,561.0,1148.0,1337.7,1008.2,1120.9,1189.4,1285.5,3444.3,3441.9,1500.4,1297.2,1375.7,3439.5,1019.4,1453.4,3427.4,3439.5,615.7,1223.9,829.4,488.5,1288.2,1656.8,3441.9,3450.4,677.4,980.7,1272.1,1474.6,1235.5,1073.8,14.0,-1.0,0.0,-7580.0,-12470.0,5574.0,4941.0,9.0,5.0,8.0,-4.0,4.0,4.0,10960.0,10717.0,5113.0,2706.0,6.0,-5.0,0.0,1.0
2022-05-06 15:33:55.017640-07:00,1795.5,560.2,1148.0,1337.7,996.2,1115.6,1189.4,1285.5,3429.8,3451.6,1500.4,1297.2,1375.7,3444.3,1019.4,1453.4,3427.4,3439.5,615.7,1223.0,829.4,488.5,1290.0,1653.0,3441.9,3450.4,680.7,980.7,1272.1,1474.6,1223.0,1067.7,10.0,4.0,-7.0,-7583.0,-12470.0,5571.0,4938.0,-4.0,1.0,-13.0,-1.0,0.0,8.0,10960.0,10717.0,5113.0,2706.0,-1.0,9.0,-2.0,1.0
2022-05-06 15:33:55.077436-07:00,1795.5,560.2,1147.1,1354.0,996.2,1115.6,1186.7,1288.2,3429.8,3451.6,1494.0,1308.8,1375.7,3444.3,1010.8,1462.6,3439.5,3429.8,615.7,1223.0,831.1,498.0,1290.0,1653.0,3443.1,3440.7,680.7,980.7,1258.7,1466.3,1223.0,1067.7,9.0,-1.0,-3.0,-7580.0,-12473.0,5570.0,4938.0,-11.0,5.0,3.0,-6.0,7.0,7.0,10958.0,10718.0,5114.0,2705.0,6.0,-1.0,-3.0,1.0
2022-05-06 15:33:55.137179-07:00,1789.7,558.6,1147.1,1354.0,1003.9,1114.7,1186.7,1288.2,3445.5,3437.0,1502.3,1308.8,1379.4,3440.7,1010.8,1462.6,3439.5,3429.8,618.1,1222.2,831.1,496.4,1291.8,1651.1,3443.1,3440.7,680.7,991.9,1258.7,1476.4,1227.5,1078.2,6.0,2.0,-7.0,-7583.0,-12471.0,5568.0,4940.0,16.0,-9.0,-12.0,-4.0,7.0,11.0,10960.0,10717.0,5114.0,2706.0,8.0,1.0,-4.0,1.0
2022-05-06 15:33:55.167893-07:00,1789.7,558.6,1147.1,1333.2,1003.9,1114.7,1197.4,1284.6,3445.5,3437.0,1502.3,1295.4,1379.4,3440.7,1016.8,1455.2,3437.0,3433.4,616.5,1222.2,830.2,496.4,1291.8,1651.1,3449.1,3439.5,675.8,991.9,1268.5,1476.4,1227.5,1078.2,11.0,-10.0,0.0,-7580.0,-12475.0,5565.0,4939.0,-11.0,24.0,3.0,-3.0,0.0,9.0,10957.0,10719.0,5114.0,2705.0,-2.0,-2.0,-2.0,1.0
2022-05-06 15:33:55.227589-07:00,1774.3,576.2,1154.2,1333.2,1002.2,1114.7,1197.4,1284.6,3444.3,3437.0,1499.5,1295.4,1379.4,3440.7,1016.8,1455.2,3437.0,3433.4,616.5,1220.4,830.2,490.9,1290.9,1652.0,3449.1,3439.5,675.8,973.1,1268.5,1471.8,1220.4,1072.1,12.0,0.0,-8.0,-7587.0,-12474.0,5563.0,4932.0,5.0,18.0,10.0,0.0,4.0,2.0,10957.0,10719.0,5114.0,2705.0,9.0,-2.0,3.0,1.0
2022-05-06 15:33:55.287837-07:00,1774.3,576.2,1154.2,1338.6,1002.2,1111.2,1187.6,1284.6,3444.3,3437.0,1499.5,1299.8,1379.4,3445.5,1019.4,1457.1,3443.1,3439.5,614.1,1220.4,836.9,490.9,1290.9,1652.0,3454.0,3440.7,675.0,973.1,1264.9,1471.8,1220.4,1072.1,14.0,-5.0,-3.0,-7586.0,-12476.0,5560.0,4933.0,3.0,-5.0,-18.0,0.0,2.0,3.0,10957.0,10719.0,5114.0,2705.0,0.0,-1.0,-4.0,1.0
2022-05-06 15:33:55.317379-07:00,1783.9,562.6,1146.3,1338.6,994.5,1111.2,1187.6,1284.6,3439.5,3433.4,1499.5,1299.8,1374.8,3445.5,1019.4,1457.1,3443.1,3439.5,614.1,1220.4,836.9,494.0,1280.1,1658.7,3454.0,3440.7,675.0,976.5,1264.9,1472.7,1231.0,1067.7,10.0,-9.0,0.0,-7587.0,-12476.0,5557.0,4935.0,-16.0,3.0,8.0,-5.0,-2.0,5.0,10958.0,10718.0,5114.0,2705.0,-8.0,-7.0,1.0,1.0
2022-05-06 15:33:55.378006-07:00,1783.9,562.6,1146.3,1342.2,1008.2,1109.5,1188.5,1294.5,3439.5,3433.4,1499.5,1304.3,1380.3,3443.1,1010.8,1454.3,3438.2,3434.6,613.3,1225.7,835.2,494.0,1280.1,1658.7,3435.8,3434.6,679.9,972.2,1274.7,1472.7,1231.0,1067.7,11.0,15.0,-7.0,-7590.0,-12475.0,5558.0,4932.0,10.0,-8.0,-8.0,0.0,11.0,3.0,10959.0,10718.0,5114.0,2706.0,5.0,5.0,-1.0,1.0
2022-05-06 15:33:55.437860-07:00,1796.5,560.2,1149.8,1330.5,1008.2,1109.5,1188.5,1294.5,3441.9,3449.1,1492.1,1300.7,1380.3,3443.1,1010.8,1454.3,3438.2,3434.6,613.3,1225.7,836.9,492.5,1288.2,1651.1,3435.8,3434.6,679.9,972.2,1273.9,1470.9,1228.4,1070.3,12.0,-11.0,3.0,-7584.0,-12478.0,5555.0,4937.0,-3.0,0.0,-5.0,-3.0,-2.0,10.0,10957.0,10719.0,5114.0,2705.0,-3.0,3.0,-3.0,1.0
2022-05-06 15:33:55.467288-07:00,1796.5,560.2,1149.8,1330.5,991.9,1111.2,1192.0,1285.5,3441.9,3449.1,1492.1,1300.7,1379.4,3432.2,1015.1,1454.3,3438.2,3441.9,621.4,1228.4,836.9,492.5,1288.2,1651.1,3444.3,3445.5,675.8,969.6,1273.9,1470.9,1228.4,1070.3,8.0,4.0,-10.0,-7589.0,-12476.0,5554.0,4935.0,-14.0,-6.0,-2.0,-6.0,6.0,5.0,10958.0,10718.0,5114.0,2705.0,-14.0,-7.0,0.0,1.0
2022-05-06 15:33:55.527415-07:00,1799.4,561.8,1146.3,1335.0,991.9,1111.2,1192.0,1285.5,3433.4,3443.1,1502.3,1299.8,1379.4,3432.2,1015.1,1454.3,3438.2,3441.9,621.4,1228.4,831.1,492.5,1296.3,1658.7,3444.3,3445.5,675.8,969.6,1270.3,1470.9,1227.5,1075.6,12.0,-9.0,0.0,-7587.0,-12476.0,5552.0,4938.0,7.0,9.0,2.0,-2.0,0.0,7.0,10958.0,10718.0,5114.0,2705.0,2.0,-4.0,2.0,1.0
2022-05-06 15:33:55.647972-07:00,1799.4,561.8,1146.3,1335.0,992.7,1120.0,1186.7,1284.6,3433.4,3443.1,1502.3,1299.8,1373.0,3435.8,1013.3,1451.6,3432.2,3440.7,617.3,1217.7,831.1,492.5,1296.3,1658.7,3449.1,3443.1,683.1,981.6,1270.3,1470.9,1227.5,1075.6,16.0,2.0,0.0,-7590.0,-12475.0,5552.0,4938.0,0.0,5.0,-5.0,-1.0,0.0,7.0,10958.0,10718.0,5114.0,2705.0,7.0,-2.0,3.0,1.0
2022-05-06 15:33:55.677369-07:00,1785.8,564.2,1145.4,1334.1,992.7,1120.0,1186.7,1284.6,3433.4,3437.0,1500.4,1299.0,1373.0,3435.8,1013.3,1451.6,3432.2,3440.7,617.3,1217.7,831.1,494.8,1286.4,1653.0,3449.1,3443.1,683.1,981.6,1267.6,1474.6,1233.7,1072.9,7.0,-10.0,-1.0,-7587.0,-12482.0,5545.0,4932.0,-8.0,33.0,-12.0,-5.0,0.0,13.0,10955.0,10721.0,5115.0,2705.0,-1.0,9.0,-1.0,1.0
2022-05-06 15:33:55.678588-07:00,1804.2,564.2,1145.4,1334.1,997.0,1108.6,1195.6,1281.0,3443.1,3437.0,1500.4,1299.0,1373.9,3438.2,1015.9,1457.1,3428.6,3435.8,619.7,1228.4,831.1,494.8,1286.4,1654.9,3445.5,3440.7,675.8,977.3,1267.6,1474.6,1233.7,1067.7,15.0,2.0,-6.0,-7581.0,-12485.0,5548.0,4931.0,34.0,-18.0,-7.0,0.0,7.0,3.0,10950.0,10725.0,5118.0,2704.0,24.0,5.0,-3.0,1.0
2022-05-06 15:33:55.737176-07:00,1804.2,559.4,1148.9,1328.7,997.0,1108.6,1195.6,1281.9,3443.1,3444.3,1502.3,1297.2,1373.9,3438.2,1015.9,1464.4,3440.7,3435.8,619.7,1228.4,835.2,492.5,1284.6,1654.9,3443.1,3440.7,675.8,977.3,1273.0,1462.6,1220.4,1067.7,6.0,-10.0,-8.0,-7585.0,-12484.0,5546.0,4928.0,-19.0,30.0,15.0,-7.0,-3.0,3.0,10951.0,10724.0,5117.0,2704.0,-14.0,-5.0,5.0,1.0
2022-05-06 15:33:55.797328-07:00,1784.9,559.4,1148.9,1328.7,1011.6,1114.7,1189.4,1281.9,3443.1,3444.3,1502.3,1297.2,1371.2,3435.8,1011.6,1464.4,3440.7,3429.8,620.5,1226.6,835.2,492.5,1284.6,1657.7,3443.1,3444.3,679.9,978.2,1273.0,1462.6,1220.4,1072.1,18.0,11.0,-8.0,-7585.0,-12481.0,5550.0,4933.0,3.0,-47.0,-20.0,-2.0,17.0,4.0,10952.0,10723.0,5117.0,2705.0,-2.0,-6.0,-12.0,1.0
2022-05-06 15:33:55.827372-07:00,1784.9,567.4,1153.3,1338.6,1011.6,1114.7,1189.4,1279.2,3443.1,3440.7,1496.7,1295.4,1371.2,3435.8,1011.6,1447.9,3437.0,3429.8,620.5,1226.6,828.5,494.8,1288.2,1657.7,3440.7,3444.3,679.9,978.2,1271.2,1472.7,1228.4,1072.1,11.0,-16.0,6.0,-7582.0,-12480.0,5549.0,4940.0,-18.0,14.0,13.0,-4.0,-8.0,14.0,10953.0,10722.0,5120.0,2702.0,-10.0,-1.0,9.0,1.0
2022-05-06 15:33:55.887290-07:00,1776.2,567.4,1153.3,1338.6,1000.5,1110.4,1186.7,1279.2,3437.0,3440.7,1496.7,1295.4,1368.5,3440.7,1013.3,1447.9,3437.0,3438.2,619.7,1224.8,828.5,494.8,1288.2,1653.9,3440.7,3441.9,673.3,986.7,1271.2,1472.7,1228.4,1068.6,14.0,5.0,-6.0,-7584.0,-12476.0,5551.0,4944.0,18.0,-24.0,-18.0,-3.0,5.0,0.0,10955.0,10720.0,5119.0,2704.0,11.0,7.0,-8.0,1.0
2022-05-06 15:33:55.918066-07:00,1776.2,569.8,1143.6,1338.6,1000.5,1110.4,1188.5,1287.3,3437.0,3426.2,1496.7,1295.4,1368.5,3440.7,1023.7,1454.3,3439.5,3446.7,619.7,1224.8,830.2,494.8,1289.1,1653.9,3433.4,3452.8,673.3,986.7,1255.1,1468.1,1227.5,1068.6,15.0,-11.0,2.0,-7583.0,-12478.0,5547.0,4946.0,-34.0,30.0,10.0,0.0,-2.0,6.0,10954.0,10721.0,5119.0,2703.0,-29.0,-7.0,8.0,1.0
2022-05-06 15:33:55.977342-07:00,1784.9,559.4,1143.6,1338.6,994.5,1118.2,1188.5,1287.3,3440.7,3433.4,1496.7,1295.4,1372.1,3443.1,1023.7,1454.3,3439.5,3446.7,618.1,1225.7,830.2,494.8,1289.1,1652.0,3433.4,3452.8,675.8,973.1,1255.1,1468.1,1230.2,1079.0,13.0,3.0,-5.0,-7587.0,-12477.0,5549.0,4942.0,32.0,-18.0,-7.0,-4.0,0.0,6.0,10957.0,10718.0,5117.0,2704.0,22.0,3.0,-4.0,1.0
2022-05-06 15:33:56.037478-07:00,1784.9,559.4,1142.7,1331.4,994.5,1118.2,1192.9,1287.3,3440.7,3433.4,1498.6,1303.4,1372.1,3443.1,1015.1,1463.5,3428.6,3441.9,618.1,1225.7,832.7,494.0,1289.1,1652.0,3444.3,3443.1,675.8,973.1,1266.7,1472.7,1230.2,1079.0,16.0,-11.0,3.0,-7583.0,-12478.0,5545.0,4949.0,-19.0,13.0,-9.0,0.0,-3.0,3.0,10956.0,10720.0,5118.0,2704.0,-13.0,-1.0,1.0,1.0
2022-05-06 15:33:56.187909-07:00,1793.6,557.8,1142.7,1331.4,997.9,1117.4,1192.9,1287.3,3441.9,3441.9,1498.6,1303.4,1376.6,3440.7,1015.1,1463.5,3428.6,3441.9,613.3,1231.9,832.7,494.0,1287.3,1658.7,3444.3,3443.1,674.2,982.5,1266.7,1472.7,1223.0,1066.0,12.0,1.0,-6.0,-7586.0,-12478.0,5545.0,4944.0,5.0,-4.0,5.0,1.0,-1.0,9.0,10956.0,10719.0,5118.0,2704.0,12.0,4.0,2.0,1.0
2022-05-06 15:33:56.188889-07:00,1793.6,557.8,1147.1,1335.0,997.9,1117.4,1190.3,1281.0,3441.9,3441.9,1499.5,1299.0,1376.6,3440.7,1018.5,1457.1,3432.2,3444.3,613.3,1231.9,831.1,496.4,1287.3,1658.7,3440.7,3449.1,674.2,982.5,1266.7,1473.6,1223.0,1066.0,17.0,-6.0,2.0,-7579.0,-12481.0,5544.0,4948.0,10.0,3.0,-13.0,-2.0,3.0,5.0,10955.0,10720.0,5118.0,2703.0,4.0,4.0,-6.0,1.0
2022-05-06 15:33:56.189901-07:00,1786.8,563.4,1148.9,1335.0,1003.0,1111.2,1190.3,1281.0,3438.2,3441.9,1501.4,1299.0,1375.7,3444.3,1018.5,1457.1,3432.2,3444.3,618.9,1223.9,831.1,492.5,1296.3,1658.7,3440.7,3449.1,676.6,980.7,1266.7,1465.4,1222.2,1070.3,11.0,-4.0,-8.0,-7583.0,-12480.0,5541.0,4947.0,-8.0,3.0,1.0,-3.0,2.0,9.0,10956.0,10720.0,5118.0,2704.0,0.0,5.0,3.0,1.0
2022-05-06 15:33:56.217288-07:00,1786.8,563.4,1148.9,1334.1,1003.0,1114.7,1192.0,1289.1,3438.2,3441.9,1501.4,1296.3,1375.7,3443.1,1012.5,1459.8,3440.7,3435.8,618.1,1223.9,832.7,492.5,1296.3,1658.7,3445.5,3445.5,683.1,980.7,1273.9,1465.4,1222.2,1070.3,16.0,-9.0,-1.0,-7577.0,-12483.0,5539.0,4951.0,1.0,4.0,-12.0,-3.0,1.0,6.0,10954.0,10721.0,5119.0,2702.0,-5.0,-2.0,-5.0,1.0
2022-05-06 15:33:56.277786-07:00,1779.1,569.0,1152.4,1334.1,997.0,1114.7,1192.0,1289.1,3440.7,3444.3,1493.0,1296.3,1377.5,3443.1,1012.5,1459.8,3440.7,3435.8,618.1,1222.2,832.7,494.8,1289.1,1659.6,3445.5,3445.5,683.1,972.2,1273.9,1466.3,1230.2,1069.5,11.0,-3.0,-7.0,-7585.0,-12481.0,5541.0,4942.0,-3.0,10.0,22.0,-1.0,-3.0,9.0,10954.0,10722.0,5117.0,2704.0,19.0,-3.0,8.0,1.0
2022-05-06 15:33:56.337636-07:00,1779.1,569.0,1152.4,1335.9,997.0,1109.5,1191.2,1287.3,3440.7,3444.3,1493.0,1301.6,1377.5,3441.9,1010.8,1462.6,3437.0,3428.6,617.3,1222.2,831.9,494.8,1289.1,1659.6,3449.1,3438.2,673.3,972.2,1268.5,1466.3,1230.2,1069.5,17.0,-9.0,0.0,-7584.0,-12480.0,5535.0,4952.0,-15.0,-8.0,-40.0,-2.0,-5.0,1.0,10953.0,10722.0,5119.0,2702.0,-2.0,5.0,-9.0,1.0
2022-05-06 15:33:56.397310-07:00,1789.7,559.4,1148.0,1335.9,999.6,1109.5,1191.2,1287.3,3441.9,3449.1,1494.9,1301.6,1375.7,3441.9,1010.8,1462.6,3437.0,3428.6,617.3,1223.9,831.9,494.8,1281.9,1656.8,3449.1,3438.2,673.3,982.5,1268.5,1469.0,1246.2,1071.2,12.0,-13.0,3.0,-7589.0,-12483.0,5532.0,4942.0,-6.0,49.0,34.0,-6.0,-2.0,12.0,10953.0,10723.0,5117.0,2703.0,-1.0,-2.0,15.0,1.0
2022-05-06 15:33:56.427402-07:00,1789.7,559.4,1148.0,1334.1,999.6,1113.9,1177.9,1277.4,3441.9,3449.1,1494.9,1305.2,1375.7,3444.3,1015.1,1455.2,3441.9,3438.2,612.5,1223.9,838.6,494.8,1281.9,1656.8,3444.3,3433.4,675.0,982.5,1267.6,1469.0,1246.2,1071.2,13.0,8.0,-12.0,-7592.0,-12485.0,5529.0,4936.0,5.0,-4.0,-26.0,2.0,-1.0,8.0,10952.0,10723.0,5116.0,2704.0,9.0,5.0,-11.0,1.0
2022-05-06 15:33:56.487210-07:00,1802.3,563.4,1142.7,1337.7,994.5,1113.9,1177.9,1277.4,3443.1,3444.3,1498.6,1299.0,1372.1,3444.3,1015.1,1455.2,3441.9,3438.2,612.5,1224.8,834.4,493.2,1290.0,1649.2,3444.3,3433.4,675.0,979.0,1273.0,1465.4,1231.0,1057.3,12.0,-6.0,-4.0,-7588.0,-12488.0,5525.0,4937.0,-18.0,14.0,4.0,-9.0,0.0,3.0,10951.0,10724.0,5118.0,2702.0,-12.0,-1.0,6.0,1.0
2022-05-06 15:33:56.547275-07:00,1802.3,563.4,1142.7,1337.7,993.6,1122.6,1188.5,1281.0,3443.1,3444.3,1498.6,1299.0,1371.2,3441.9,1014.2,1454.3,3439.5,3438.2,618.9,1230.2,834.4,493.2,1290.0,1649.2,3433.4,3438.2,679.9,981.6,1273.0,1465.4,1231.0,1057.3,16.0,2.0,-14.0,-7590.0,-12484.0,5521.0,4949.0,1.0,-40.0,-38.0,1.0,0.0,5.0,10954.0,10721.0,5117.0,2704.0,-3.0,2.0,-13.0,1.0
2022-05-06 15:33:56.577347-07:00,1787.8,565.0,1148.0,1338.6,993.6,1122.6,1188.5,1281.0,3444.3,3449.1,1494.9,1297.2,1371.2,3441.9,1014.2,1454.3,3439.5,3438.2,618.9,1230.2,833.6,490.9,1281.0,1653.9,3433.4,3438.2,679.9,981.6,1268.5,1468.1,1231.0,1064.3,19.0,-16.0,15.0,-7586.0,-12488.0,5509.0,4958.0,-19.0,32.0,-10.0,-1.0,-7.0,19.0,10956.0,10719.0,5120.0,2701.0,-18.0,-1.0,4.0,1.0
2022-05-06 15:33:56.637301-07:00,1787.8,565.0,1148.0,1338.6,997.9,1114.7,1190.3,1287.3,3444.3,3449.1,1494.9,1297.2,1372.1,3424.9,1021.9,1458.9,3435.8,3441.9,616.5,1226.6,833.6,490.9,1281.0,1653.9,3444.3,3444.3,672.5,974.8,1268.5,1468.1,1231.0,1064.3,10.0,16.0,-13.0,-7591.0,-12488.0,5510.0,4950.0,17.0,-2.0,-1.0,-8.0,10.0,3.0,10956.0,10719.0,5119.0,2703.0,11.0,6.0,-4.0,1.0
2022-05-06 15:33:56.667210-07:00,1787.8,558.6,1153.3,1339.5,997.9,1114.7,1190.3,1287.3,3449.1,3434.6,1494.0,1306.1,1372.1,3424.9,1021.9,1458.9,3435.8,3441.9,616.5,1226.6,838.6,493.2,1287.3,1646.4,3444.3,3444.3,672.5,974.8,1271.2,1474.6,1228.4,1077.3,14.0,-17.0,1.0,-7585.0,-12494.0,5501.0,4954.0,2.0,11.0,-11.0,-4.0,-3.0,6.0,10956.0,10718.0,5123.0,2700.0,-4.0,-2.0,-3.0,1.0
2022-05-06 15:33:56.727457-07:00,1788.7,558.6,1153.3,1339.5,995.3,1124.4,1189.4,1296.3,3449.1,3434.6,1494.0,1306.1,1373.0,3431.0,1010.8,1458.9,3447.9,3431.0,619.7,1232.8,838.6,493.2,1287.3,1653.0,3452.8,3433.4,669.3,979.0,1271.2,1474.6,1228.4,1070.3,10.0,3.0,-15.0,-7593.0,-12492.0,5502.0,4947.0,-7.0,-7.0,10.0,-6.0,0.0,9.0,10956.0,10718.0,5122.0,2701.0,3.0,-2.0,0.0,1.0
2022-05-06 15:33:56.787369-07:00,1788.7,567.4,1148.0,1342.2,995.3,1124.4,1189.4,1277.4,3449.1,3435.8,1495.8,1298.1,1373.0,3431.0,1010.8,1451.6,3441.9,3431.0,619.7,1232.8,835.2,490.1,1282.8,1653.0,3443.1,3433.4,669.3,979.0,1266.7,1469.0,1233.7,1070.3,17.0,-10.0,2.0,-7585.0,-12494.0,5502.0,4954.0,-4.0,-1.0,-13.0,-3.0,4.0,5.0,10956.0,10717.0,5123.0,2700.0,-12.0,-1.0,1.0,1.0
2022-05-06 15:33:56.817304-07:00,1782.9,567.4,1148.0,1342.2,1011.6,1113.0,1193.8,1277.4,3437.0,3435.8,1495.8,1298.1,1378.5,3439.5,1006.5,1451.6,3441.9,3435.8,618.1,1224.8,835.2,490.1,1282.8,1652.0,3443.1,3449.1,679.9,971.3,1266.7,1469.0,1233.7,1072.1,14.0,1.0,-12.0,-7590.0,-12489.0,5507.0,4953.0,12.0,-10.0,22.0,0.0,7.0,6.0,10959.0,10715.0,5122.0,2701.0,15.0,-2.0,6.0,1.0
2022-05-06 15:33:56.937281-07:00,1782.9,561.0,1155.0,1358.5,1011.6,1113.0,1193.8,1284.6,3437.0,3443.1,1501.4,1303.4,1378.5,3439.5,1006.5,1453.4,3441.9,3435.8,618.1,1224.8,837.7,498.0,1282.8,1652.0,3449.1,3449.1,679.9,971.3,1258.7,1474.6,1231.0,1072.1,15.0,-2.0,-3.0,-7585.0,-12489.0,5508.0,4959.0,-9.0,-15.0,-17.0,-2.0,4.0,6.0,10958.0,10716.0,5123.0,2700.0,-14.0,-3.0,-8.0,1.0
2022-05-06 15:33:56.939077-07:00,1787.8,561.0,1155.0,1358.5,991.0,1113.0,1185.9,1284.6,3437.0,3443.1,1501.4,1303.4,1363.9,3433.4,1009.9,1453.4,3441.9,3449.1,612.5,1226.6,837.7,498.0,1282.8,1655.8,3449.1,3449.1,675.0,976.5,1258.7,1474.6,1231.0,1068.6,11.0,2.0,-1.0,-7585.0,-12490.0,5507.0,4958.0,-2.0,4.0,7.0,-5.0,10.0,10.0,10959.0,10715.0,5123.0,2701.0,-5.0,2.0,-1.0,1.0
2022-05-06 15:33:56.967206-07:00,1787.8,561.8,1148.9,1346.7,991.0,1113.0,1185.9,1291.8,3437.0,3444.3,1497.7,1297.2,1363.9,3433.4,1009.9,1458.9,3441.9,3449.1,612.5,1226.6,829.4,493.2,1284.6,1655.8,3440.7,3449.1,675.0,976.5,1269.4,1473.6,1231.9,1068.6,17.0,-7.0,-4.0,-7584.0,-12490.0,5507.0,4959.0,16.0,7.0,-13.0,-4.0,-1.0,7.0,10958.0,10716.0,5123.0,2700.0,17.0,9.0,-5.0,1.0
2022-05-06 15:33:57.027362-07:00,1786.8,561.0,1148.9,1346.7,995.3,1107.8,1187.6,1291.8,3447.9,3438.2,1497.7,1297.2,1375.7,3440.7,1009.9,1458.9,3441.9,3449.1,614.1,1227.5,829.4,493.2,1283.7,1653.0,3440.7,3446.7,679.1,975.6,1269.4,1473.6,1223.9,1072.1,15.0,-5.0,-2.0,-7582.0,-12492.0,5506.0,4957.0,-8.0,18.0,12.0,-1.0,-2.0,9.0,10956.0,10717.0,5123.0,2699.0,-9.0,0.0,7.0,1.0
2022-05-06 15:33:57.057540-07:00,1786.8,561.0,1147.1,1335.9,995.3,1107.8,1193.8,1283.7,3447.9,3438.2,1501.4,1299.0,1375.7,3440.7,1015.1,1456.2,3431.0,3439.5,614.1,1227.5,829.4,495.6,1283.7,1653.0,3439.5,3444.3,679.1,975.6,1273.0,1469.0,1223.9,1072.1,16.0,-1.0,-11.0,-7586.0,-12489.0,5505.0,4959.0,-11.0,-20.0,-6.0,-3.0,5.0,3.0,10958.0,10716.0,5123.0,2700.0,-4.0,-3.0,-6.0,1.0
2022-05-06 15:33:57.117387-07:00,1782.9,561.8,1147.1,1335.9,1001.3,1119.1,1193.8,1283.7,3433.4,3443.1,1501.4,1299.0,1375.7,3444.3,1015.1,1456.2,3431.0,3439.5,621.4,1242.6,829.4,495.6,1290.0,1642.6,3439.5,3444.3,679.1,980.7,1273.0,1469.0,1227.5,1061.7,18.0,-9.0,-2.0,-7589.0,-12485.0,5508.0,4963.0,-15.0,3.0,17.0,0.0,-4.0,9.0,10959.0,10715.0,5123.0,2700.0,-4.0,-10.0,6.0,1.0
2022-05-06 15:33:57.177792-07:00,1782.9,561.8,1145.4,1335.9,1001.3,1119.1,1192.9,1288.2,3433.4,3443.1,1500.4,1301.6,1375.7,3444.3,1009.0,1452.5,3431.0,3437.0,621.4,1242.6,834.4,492.5,1290.0,1642.6,3441.9,3449.1,679.1,980.7,1274.7,1470.9,1227.5,1061.7,14.0,2.0,1.0,-7590.0,-12485.0,5509.0,4960.0,11.0,9.0,-13.0,0.0,2.0,18.0,10956.0,10718.0,5123.0,2699.0,6.0,6.0,-1.0,1.0
2022-05-06 15:33:57.237313-07:00,1782.9,560.2,1145.4,1335.9,993.6,1111.2,1192.9,1288.2,3438.2,3449.1,1500.4,1301.6,1389.4,3441.9,1009.0,1452.5,3431.0,3437.0,618.1,1218.6,834.4,492.5,1283.7,1655.8,3441.9,3449.1,672.5,977.3,1274.7,1470.9,1231.9,1070.3,12.0,-9.0,-2.0,-7589.0,-12487.0,5506.0,4959.0,-12.0,30.0,3.0,-14.0,0.0,3.0,10956.0,10718.0,5123.0,2699.0,-5.0,-1.0,5.0,1.0
2022-05-06 15:33:57.267261-07:00,1782.9,560.2,1145.4,1338.6,993.6,1109.5,1184.1,1289.1,3438.2,3449.1,1500.4,1299.0,1389.4,3441.9,1011.6,1444.2,3433.4,3437.0,616.5,1218.6,835.2,494.0,1283.7,1655.8,3444.3,3449.1,673.3,977.3,1266.7,1465.4,1231.9,1070.3,16.0,-1.0,-11.0,-7593.0,-12488.0,5502.0,4954.0,17.0,-16.0,-7.0,-1.0,3.0,7.0,10956.0,10718.0,5123.0,2698.0,9.0,1.0,-6.0,1.0
2022-05-06 15:33:57.327404-07:00,1803.2,553.8,1146.3,1338.6,997.0,1109.5,1184.1,1289.1,3445.5,3439.5,1495.8,1299.0,1370.3,3441.9,1011.6,1444.2,3433.4,3437.0,616.5,1222.2,835.2,491.7,1284.6,1656.8,3444.3,3449.1,673.3,976.5,1266.7,1474.6,1233.7,1070.3,19.0,-9.0,0.0,-7585.0,-12491.0,5502.0,4961.0,-20.0,-3.0,-2.0,0.0,2.0,11.0,10956.0,10718.0,5123.0,2699.0,-15.0,-5.0,-3.0,1.0
2022-05-06 15:33:57.387274-07:00,1803.2,553.8,1146.3,1346.7,997.0,1111.2,1196.5,1289.1,3445.5,3439.5,1495.8,1303.4,1370.3,3449.1,1005.6,1457.1,3428.6,3434.6,614.1,1222.2,838.6,491.7,1284.6,1656.8,3444.3,3441.9,666.0,976.5,1268.5,1474.6,1233.7,1070.3,13.0,7.0,-2.0,-7591.0,-12487.0,5501.0,4962.0,1.0,-14.0,-11.0,-5.0,7.0,9.0,10958.0,10716.0,5122.0,2700.0,1.0,2.0,0.0,1.0
2022-05-06 15:33:57.447268-07:00,1786.8,570.6,1146.3,1346.7,1002.2,1111.2,1196.5,1289.1,3438.2,3439.5,1504.1,1303.4,1374.8,3449.1,1005.6,1457.1,3428.6,3434.6,614.1,1222.2,838.6,494.8,1277.4,1649.2,3444.3,3441.9,666.0,973.9,1268.5,1470.9,1227.5,1077.3,22.0,-14.0,5.0,-7585.0,-12490.0,5497.0,4968.0,1.0,19.0,-7.0,0.0,-1.0,8.0,10957.0,10716.0,5125.0,2700.0,9.0,9.0,-8.0,1.0
2022-05-06 15:33:57.477390-07:00,1786.8,570.6,1146.3,1331.4,1002.2,1113.0,1184.1,1288.2,3438.2,3439.5,1504.1,1304.3,1374.8,3441.9,1014.2,1463.5,3433.4,3435.8,620.5,1222.2,832.7,494.8,1277.4,1649.2,3437.0,3437.0,689.7,973.9,1272.1,1470.9,1227.5,1077.3,9.0,1.0,-12.0,-7595.0,-12489.0,5494.0,4959.0,-15.0,10.0,14.0,-8.0,0.0,7.0,10958.0,10715.0,5124.0,2701.0,-7.0,-7.0,7.0,1.0
2022-05-06 15:33:57.537240-07:00,1790.7,562.6,1147.1,1334.1,994.5,1113.0,1184.1,1288.2,3438.2,3444.3,1496.7,1295.4,1375.7,3441.9,1014.2,1463.5,3433.4,3435.8,620.5,1224.8,831.1,492.5,1281.9,1652.0,3437.0,3437.0,689.7,974.8,1266.7,1470.9,1224.8,1067.7,18.0,-7.0,2.0,-7593.0,-12491.0,5492.0,4960.0,16.0,0.0,-15.0,-1.0,0.0,9.0,10956.0,10716.0,5124.0,2701.0,15.0,6.0,-6.0,1.0
2022-05-06 15:33:57.567064-07:00,1790.7,562.6,1147.1,1334.1,990.2,1112.1,1182.3,1290.9,3438.2,3444.3,1496.7,1295.4,1372.1,3437.0,1008.2,1459.8,3439.5,3440.7,614.9,1228.4,831.1,492.5,1281.9,1652.0,3439.5,3435.8,674.2,977.3,1266.7,1470.9,1224.8,1067.7,15.0,-10.0,-6.0,-7596.0,-12491.0,5490.0,4957.0,-30.0,21.0,11.0,-8.0,12.0,0.0,10957.0,10716.0,5124.0,2701.0,-13.0,-2.0,7.0,1.0
2022-05-06 15:33:57.626896-07:00,1790.7,559.4,1155.9,1333.2,990.2,1112.1,1182.3,1290.9,3444.3,3446.7,1494.9,1299.0,1372.1,3437.0,1008.2,1459.8,3439.5,3440.7,614.9,1228.4,831.1,496.4,1282.8,1642.6,3439.5,3435.8,674.2,977.3,1269.4,1458.9,1227.5,1068.6,23.0,1.0,-4.0,-7595.0,-12492.0,5489.0,4957.0,27.0,-23.0,-20.0,0.0,8.0,4.0,10957.0,10716.0,5123.0,2701.0,23.0,8.0,-3.0,1.0
2022-05-06 15:33:57.687986-07:00,1790.7,559.4,1155.9,1333.2,999.6,1113.9,1192.9,1290.0,3444.3,3446.7,1494.9,1299.0,1374.8,3441.9,1015.1,1458.0,3437.0,3443.1,614.1,1228.4,831.1,496.4,1282.8,1642.6,3446.7,3445.5,677.4,981.6,1269.4,1458.9,1227.5,1068.6,15.0,-15.0,-5.0,-7594.0,-12496.0,5485.0,4955.0,-2.0,26.0,9.0,-4.0,-5.0,8.0,10956.0,10717.0,5125.0,2699.0,0.0,0.0,6.0,1.0
2022-05-06 15:33:57.748069-07:00,1795.5,561.8,1144.5,1334.1,999.6,1113.9,1192.9,1290.0,3438.2,3443.1,1492.1,1310.6,1374.8,3441.9,1015.1,1458.0,3437.0,3443.1,614.1,1228.4,835.2,492.5,1281.0,1653.9,3446.7,3445.5,677.4,981.6,1278.3,1468.1,1223.9,1075.6,25.0,4.0,2.0,-7572.0,-12506.0,5493.0,4952.0,96.0,-39.0,-27.0,2.0,5.0,5.0,10942.0,10729.0,5132.0,2694.0,71.0,14.0,-11.0,1.0
2022-05-06 15:33:57.777338-07:00,1795.5,561.8,1144.5,1334.1,997.9,1112.1,1188.5,1287.3,3438.2,3443.1,1492.1,1310.6,1371.2,3444.3,1008.2,1453.4,3438.2,3433.4,615.7,1230.2,835.2,492.5,1281.0,1653.9,3439.5,3428.6,698.7,982.5,1278.3,1468.1,1223.9,1075.6,16.0,-12.0,-3.0,-7566.0,-12512.0,5488.0,4951.0,-40.0,26.0,10.0,-4.0,-6.0,6.0,10939.0,10731.0,5136.0,2692.0,-26.0,3.0,6.0,1.0
2022-05-06 15:33:57.807628-07:00,1789.7,569.0,1139.2,1335.0,997.9,1112.1,1188.5,1286.4,3438.2,3440.7,1492.1,1295.4,1371.2,3444.3,1008.2,1457.1,3437.0,3433.4,615.7,1230.2,831.9,491.7,1290.0,1661.5,3443.1,3428.6,698.7,982.5,1265.8,1466.3,1220.4,1069.5,21.0,8.0,-9.0,-7568.0,-12511.0,5489.0,4950.0,16.0,-26.0,-17.0,0.0,11.0,8.0,10939.0,10731.0,5135.0,2692.0,11.0,5.0,-11.0,1.0
2022-05-06 15:33:57.867784-07:00,1785.8,569.0,1139.2,1335.0,995.3,1110.4,1191.2,1286.4,3439.5,3440.7,1492.1,1295.4,1372.1,3439.5,1016.8,1457.1,3437.0,3433.4,621.4,1225.7,831.9,491.7,1290.0,1651.1,3443.1,3434.6,672.5,978.2,1265.8,1466.3,1220.4,1066.9,12.0,-10.0,0.0,-7571.0,-12510.0,5483.0,4955.0,-27.0,18.0,5.0,-7.0,0.0,14.0,10943.0,10727.0,5135.0,2693.0,-20.0,-3.0,4.0,1.0
2022-05-06 15:33:57.927741-07:00,1785.8,557.8,1146.3,1333.2,995.3,1110.4,1191.2,1296.3,3439.5,3437.0,1496.7,1296.3,1372.1,3439.5,1016.8,1451.6,3441.9,3433.4,621.4,1225.7,835.2,492.5,1283.7,1651.1,3443.1,3434.6,672.5,978.2,1263.1,1469.0,1227.5,1066.9,22.0,12.0,-5.0,-7576.0,-12506.0,5487.0,4953.0,11.0,-15.0,-3.0,2.0,11.0,5.0,10943.0,10727.0,5134.0,2695.0,10.0,0.0,-2.0,1.0
2022-05-06 15:33:57.958096-07:00,1787.8,557.8,1146.3,1333.2,1004.8,1113.0,1189.4,1296.3,3449.1,3437.0,1496.7,1296.3,1373.0,3443.1,1015.1,1451.6,3441.9,3439.5,617.3,1223.0,835.2,492.5,1283.7,1657.7,3443.1,3444.3,680.7,974.8,1263.1,1469.0,1227.5,1069.5,11.0,-13.0,2.0,-7576.0,-12508.0,5481.0,4954.0,-22.0,24.0,3.0,-9.0,-5.0,13.0,10945.0,10725.0,5133.0,2696.0,-16.0,0.0,3.0,1.0
2022-05-06 15:33:58.077388-07:00,1787.8,561.8,1155.0,1335.0,1004.8,1113.0,1189.4,1285.5,3449.1,3438.2,1498.6,1299.8,1373.0,3443.1,1015.1,1451.6,3439.5,3439.5,617.3,1223.0,835.2,490.9,1288.2,1657.7,3437.0,3444.3,680.7,974.8,1270.3,1466.3,1231.0,1069.5,17.0,12.0,-11.0,-7584.0,-12505.0,5481.0,4950.0,4.0,-15.0,-4.0,0.0,8.0,3.0,10946.0,10724.0,5132.0,2698.0,8.0,6.0,3.0,1.0
2022-05-06 15:33:58.078544-07:00,1784.9,555.4,1155.0,1335.0,995.3,1113.9,1191.2,1285.5,3437.0,3449.1,1498.6,1299.8,1368.5,3437.0,1017.6,1451.6,3439.5,3438.2,614.9,1228.4,835.2,490.9,1280.1,1651.1,3437.0,3452.8,672.5,977.3,1270.3,1466.3,1231.0,1067.7,13.0,-13.0,3.0,-7580.0,-12506.0,5479.0,4955.0,-7.0,11.0,-1.0,-4.0,-6.0,14.0,10946.0,10724.0,5132.0,2697.0,-3.0,-2.0,3.0,1.0
2022-05-06 15:33:58.107331-07:00,1784.9,555.4,1148.0,1335.9,995.3,1113.9,1192.9,1280.1,3437.0,3449.1,1499.5,1300.7,1368.5,3437.0,1015.1,1457.1,3429.8,3439.5,614.9,1228.4,834.4,494.0,1280.1,1651.1,3443.1,3446.7,672.5,977.3,1271.2,1469.0,1231.0,1067.7,19.0,2.0,-6.0,-7583.0,-12504.0,5480.0,4956.0,8.0,-14.0,-5.0,1.0,-2.0,10.0,10946.0,10724.0,5132.0,2697.0,4.0,-2.0,-3.0,1.0
2022-05-06 15:33:58.167151-07:00,1782.0,557.0,1148.0,1335.9,995.3,1115.6,1192.9,1280.1,3438.2,3445.5,1499.5,1300.7,1374.8,3426.2,1015.1,1457.1,3429.8,3439.5,621.4,1225.7,834.4,494.0,1285.5,1651.1,3443.1,3446.7,672.5,977.3,1271.2,1469.0,1231.0,1070.3,20.0,-13.0,4.0,-7576.0,-12506.0,5478.0,4962.0,3.0,-3.0,-9.0,0.0,0.0,7.0,10945.0,10724.0,5134.0,2695.0,-3.0,-2.0,-8.0,1.0
2022-05-06 15:33:58.287906-07:00,1782.0,557.0,1156.8,1328.7,995.3,1115.6,1190.3,1287.3,3438.2,3445.5,1497.7,1300.7,1374.8,3426.2,1012.5,1459.8,3427.4,3431.0,621.4,1225.7,836.1,494.0,1285.5,1651.1,3438.2,3438.2,672.5,977.3,1268.5,1463.5,1231.0,1070.3,16.0,3.0,-7.0,-7581.0,-12506.0,5476.0,4958.0,-9.0,8.0,8.0,0.0,4.0,4.0,10946.0,10724.0,5134.0,2696.0,-1.0,3.0,5.0,1.0
2022-05-06 15:33:58.288763-07:00,1789.7,560.2,1156.8,1328.7,1003.0,1120.9,1190.3,1287.3,3443.1,3447.9,1497.7,1300.7,1369.4,3438.2,1012.5,1459.8,3427.4,3431.0,615.7,1220.4,836.1,494.0,1285.5,1652.0,3438.2,3438.2,680.7,977.3,1268.5,1463.5,1231.0,1061.7,19.0,-5.0,-2.0,-7577.0,-12508.0,5474.0,4960.0,8.0,-10.0,-17.0,-5.0,2.0,5.0,10945.0,10724.0,5134.0,2695.0,3.0,2.0,-6.0,1.0
2022-05-06 15:33:58.317244-07:00,1789.7,560.2,1142.7,1337.7,1003.0,1120.9,1190.3,1281.9,3443.1,3447.9,1500.4,1299.8,1369.4,3438.2,1011.6,1458.0,3435.8,3441.9,615.7,1220.4,833.6,494.8,1285.5,1652.0,3443.1,3438.2,680.7,977.3,1268.5,1472.7,1231.0,1061.7,18.0,-2.0,-3.0,-7585.0,-12504.0,5471.0,4964.0,-26.0,-5.0,10.0,-1.0,-5.0,12.0,10951.0,10719.0,5131.0,2696.0,-22.0,-9.0,3.0,1.0
2022-05-06 15:33:58.407294-07:00,1779.1,569.0,1145.4,1337.7,995.3,1110.4,1190.3,1281.9,3439.5,3426.2,1494.9,1299.8,1383.9,3449.1,1011.6,1458.0,3435.8,3441.9,614.9,1222.2,833.6,495.6,1281.9,1655.8,3443.1,3438.2,675.0,973.1,1268.5,1471.8,1223.9,1069.5,19.0,8.0,0.0,-7579.0,-12506.0,5472.0,4964.0,9.0,4.0,-12.0,-5.0,3.0,12.0,10948.0,10722.0,5132.0,2695.0,2.0,1.0,-5.0,1.0
2022-05-06 15:33:58.408746-07:00,1779.1,569.0,1145.4,1334.1,995.3,1113.0,1193.8,1287.3,3439.5,3426.2,1494.9,1304.3,1383.9,3435.8,1008.2,1458.9,3433.4,3433.4,615.7,1222.2,830.2,495.6,1281.9,1655.8,3447.9,3449.1,680.7,973.1,1267.6,1471.8,1223.9,1069.5,17.0,-7.0,-3.0,-7584.0,-12507.0,5466.0,4961.0,-4.0,21.0,6.0,-5.0,4.0,9.0,10951.0,10720.0,5132.0,2696.0,3.0,-1.0,5.0,1.0
2022-05-06 15:33:58.497316-07:00,1782.9,570.6,1145.4,1334.1,1000.5,1113.0,1193.8,1287.3,3445.5,3444.3,1496.7,1304.3,1373.0,3435.8,1008.2,1458.9,3433.4,3433.4,615.7,1225.7,830.2,491.7,1282.8,1653.9,3447.9,3449.1,680.7,976.5,1267.6,1470.0,1223.0,1066.9,21.0,-3.0,-6.0,-7581.0,-12508.0,5466.0,4963.0,-3.0,-10.0,-16.0,-4.0,3.0,10.0,10949.0,10722.0,5132.0,2695.0,-2.0,0.0,-5.0,1.0
2022-05-06 15:33:58.527370-07:00,1782.9,570.6,1145.4,1348.5,1000.5,1111.2,1191.2,1285.5,3445.5,3444.3,1496.7,1297.2,1373.0,3440.7,1003.9,1453.4,3437.0,3434.6,618.1,1225.7,830.2,491.7,1282.8,1653.9,3440.7,3437.0,675.0,976.5,1264.0,1470.0,1223.0,1066.9,20.0,0.0,0.0,-7583.0,-12508.0,5466.0,4960.0,-4.0,24.0,13.0,-3.0,7.0,13.0,10949.0,10722.0,5131.0,2696.0,1.0,-6.0,10.0,1.0
2022-05-06 15:33:58.557313-07:00,1785.8,565.0,1155.9,1348.5,997.9,1111.2,1191.2,1285.5,3438.2,3443.1,1496.7,1297.2,1372.1,3440.7,1003.9,1453.4,3437.0,3434.6,618.1,1230.2,830.2,490.9,1289.1,1649.2,3440.7,3437.0,675.0,972.2,1264.0,1470.0,1223.9,1072.1,20.0,-5.0,-1.0,-7584.0,-12509.0,5463.0,4960.0,7.0,-11.0,-13.0,-3.0,2.0,6.0,10949.0,10722.0,5131.0,2696.0,8.0,-4.0,-4.0,1.0
2022-05-06 15:33:58.617887-07:00,1785.8,565.0,1155.9,1333.2,1003.9,1113.9,1185.9,1281.9,3438.2,3443.1,1496.7,1295.4,1369.4,3435.8,1015.9,1457.1,3438.2,3434.6,615.7,1221.3,834.4,490.9,1289.1,1649.2,3443.1,3445.5,669.3,981.6,1269.4,1470.0,1223.9,1072.1,20.0,-3.0,-3.0,-7588.0,-12510.0,5460.0,4956.0,-28.0,33.0,15.0,-1.0,0.0,9.0,10949.0,10722.0,5131.0,2697.0,-17.0,-4.0,5.0,1.0
2022-05-06 15:33:58.677349-07:00,1800.3,557.8,1149.8,1327.8,1003.9,1113.9,1185.9,1281.9,3438.2,3440.7,1495.8,1299.8,1369.4,3435.8,1015.9,1457.1,3438.2,3434.6,615.7,1221.3,833.6,493.2,1287.3,1649.2,3443.1,3445.5,669.3,981.6,1273.0,1465.4,1227.5,1073.8,18.0,-4.0,-7.0,-7596.0,-12506.0,5459.0,4954.0,2.0,-11.0,-6.0,0.0,0.0,8.0,10949.0,10722.0,5131.0,2697.0,7.0,-3.0,-2.0,1.0
2022-05-06 15:33:58.827430-07:00,1800.3,557.8,1149.8,1327.8,994.5,1115.6,1193.8,1286.4,3438.2,3440.7,1495.8,1299.8,1375.7,3433.4,1009.9,1455.2,3432.2,3438.2,614.1,1223.9,833.6,493.2,1287.3,1649.2,3440.7,3444.3,675.8,970.5,1273.0,1465.4,1227.5,1073.8,17.0,-8.0,0.0,-7593.0,-12508.0,5457.0,4955.0,-15.0,18.0,1.0,-2.0,-7.0,13.0,10948.0,10723.0,5131.0,2696.0,-15.0,-4.0,3.0,1.0
2022-05-06 15:33:58.887250-07:00,1780.1,559.4,1152.4,1333.2,994.5,1115.6,1193.8,1286.4,3441.9,3440.7,1495.8,1305.2,1375.7,3433.4,1009.9,1455.2,3432.2,3438.2,614.1,1223.9,831.9,494.0,1285.5,1652.0,3440.7,3444.3,675.8,970.5,1270.3,1468.1,1220.4,1069.5,17.0,8.0,-12.0,-7597.0,-12507.0,5455.0,4953.0,23.0,-13.0,-2.0,-2.0,7.0,6.0,10949.0,10722.0,5131.0,2696.0,19.0,6.0,-3.0,1.0
2022-05-06 15:33:58.947505-07:00,1780.1,559.4,1152.4,1333.2,994.5,1119.1,1187.6,1292.7,3441.9,3440.7,1495.8,1305.2,1374.8,3431.0,1005.6,1453.4,3443.1,3438.2,613.3,1224.8,831.9,494.0,1285.5,1652.0,3440.7,3441.9,674.2,977.3,1270.3,1468.1,1220.4,1069.5,19.0,-8.0,-2.0,-7592.0,-12510.0,5454.0,4956.0,-21.0,3.0,-6.0,-7.0,-6.0,9.0,10948.0,10723.0,5132.0,2696.0,-16.0,-5.0,-2.0,1.0
2022-05-06 15:33:58.948433-07:00,1779.1,565.0,1147.1,1344.9,994.5,1119.1,1187.6,1292.7,3438.2,3428.6,1493.0,1298.1,1374.8,3431.0,1005.6,1453.4,3443.1,3438.2,613.3,1224.8,833.6,496.4,1281.0,1653.9,3440.7,3441.9,674.2,977.3,1273.0,1470.9,1224.8,1062.5,22.0,5.0,-12.0,-7595.0,-12508.0,5452.0,4957.0,11.0,-15.0,-5.0,1.0,3.0,9.0,10950.0,10720.0,5131.0,2697.0,7.0,0.0,-6.0,1.0
2022-05-06 15:33:58.949619-07:00,1777.2,565.0,1147.1,1344.9,993.6,1113.9,1189.4,1273.9,3444.3,3428.6,1493.0,1298.1,1370.3,3437.0,1009.0,1454.3,3435.8,3440.7,621.4,1228.4,833.6,496.4,1281.0,1649.2,3439.5,3441.9,675.8,976.5,1273.0,1470.9,1224.8,1065.1,24.0,-11.0,-3.0,-7588.0,-12509.0,5452.0,4965.0,-8.0,-8.0,-7.0,0.0,3.0,6.0,10951.0,10720.0,5132.0,2695.0,-10.0,-4.0,0.0,1.0
2022-05-06 15:33:58.977838-07:00,1777.2,566.6,1144.5,1335.0,993.6,1113.9,1189.4,1278.3,3444.3,3439.5,1492.1,1299.8,1370.3,3437.0,1009.0,1460.8,3449.1,3440.7,621.4,1228.4,831.1,491.7,1285.5,1649.2,3451.6,3441.9,675.8,976.5,1269.4,1464.4,1218.6,1065.1,13.0,5.0,-10.0,-7597.0,-12505.0,5453.0,4961.0,-4.0,-4.0,15.0,-2.0,11.0,11.0,10953.0,10718.0,5130.0,2698.0,-2.0,-4.0,6.0,1.0
2022-05-06 15:33:59.037296-07:00,1782.0,566.6,1144.5,1335.0,991.9,1106.9,1183.2,1278.3,3440.7,3439.5,1492.1,1299.8,1373.0,3434.6,1008.2,1460.8,3449.1,3440.7,619.7,1227.5,831.1,491.7,1285.5,1652.0,3451.6,3438.2,670.1,979.0,1269.4,1464.4,1218.6,1068.6,20.0,-5.0,3.0,-7591.0,-12506.0,5453.0,4968.0,4.0,-2.0,-20.0,-1.0,0.0,11.0,10953.0,10717.0,5131.0,2697.0,2.0,3.0,-5.0,1.0
2022-05-06 15:33:59.097296-07:00,1782.0,557.8,1144.5,1346.7,991.9,1106.9,1183.2,1289.1,3440.7,3443.1,1498.6,1297.2,1373.0,3434.6,1008.2,1455.2,3438.2,3440.7,619.7,1227.5,832.7,492.5,1280.1,1652.0,3445.5,3438.2,670.1,979.0,1266.7,1472.7,1227.5,1068.6,17.0,-5.0,-7.0,-7595.0,-12506.0,5448.0,4965.0,2.0,9.0,2.0,0.0,-6.0,12.0,10952.0,10718.0,5132.0,2698.0,13.0,11.0,4.0,1.0
2022-05-06 15:33:59.098943-07:00,1778.1,557.8,1144.5,1346.7,1004.8,1108.6,1189.4,1289.1,3439.5,3443.1,1498.6,1297.2,1371.2,3438.2,1010.8,1455.2,3438.2,3444.3,620.5,1219.5,832.7,492.5,1280.1,1652.0,3445.5,3435.8,680.7,971.3,1266.7,1472.7,1227.5,1065.1,24.0,-8.0,-6.0,-7589.0,-12511.0,5449.0,4964.0,7.0,8.0,-20.0,-2.0,0.0,8.0,10949.0,10721.0,5134.0,2697.0,8.0,2.0,-2.0,1.0
2022-05-06 15:33:59.188075-07:00,1778.1,561.0,1152.4,1331.4,1004.8,1108.6,1191.2,1282.8,3439.5,3437.0,1495.8,1299.8,1371.2,3438.2,1007.3,1456.2,3439.5,3435.8,620.5,1219.5,831.9,490.9,1281.9,1652.0,3440.7,3446.7,680.7,971.3,1274.7,1466.3,1227.5,1065.1,15.0,5.0,-11.0,-7597.0,-12509.0,5451.0,4953.0,-22.0,8.0,18.0,-2.0,2.0,11.0,10950.0,10719.0,5133.0,2697.0,-15.0,-10.0,7.0,1.0
2022-05-06 15:33:59.217362-07:00,1786.8,560.2,1152.4,1331.4,994.5,1108.6,1191.2,1282.8,3444.3,3443.1,1495.8,1299.8,1373.0,3437.0,1007.3,1456.2,3439.5,3435.8,617.3,1223.9,831.9,490.9,1281.0,1653.0,3440.7,3446.7,672.5,976.5,1274.7,1466.3,1221.3,1066.9,17.0,-2.0,-3.0,-7600.0,-12507.0,5453.0,4950.0,10.0,-4.0,-8.0,-4.0,1.0,10.0,10951.0,10718.0,5133.0,2697.0,5.0,-3.0,-3.0,1.0
2022-05-06 15:33:59.337463-07:00,1786.8,560.2,1140.1,1339.5,994.5,1108.6,1188.5,1288.2,3444.3,3443.1,1491.2,1291.8,1373.0,3437.0,1009.9,1441.5,3428.6,3431.0,617.3,1223.9,832.7,492.5,1281.0,1653.0,3428.6,3441.9,672.5,976.5,1271.2,1470.9,1221.3,1066.9,15.0,-4.0,-4.0,-7600.0,-12507.0,5456.0,4947.0,-4.0,0.0,5.0,-1.0,-3.0,11.0,10951.0,10718.0,5133.0,2697.0,-2.0,0.0,1.0,1.0
2022-05-06 15:33:59.338593-07:00,1795.5,559.4,1140.1,1339.5,992.7,1111.2,1188.5,1288.2,3437.0,3437.0,1491.2,1291.8,1373.9,3449.1,1009.9,1441.5,3428.6,3431.0,618.1,1224.8,832.7,492.5,1280.1,1646.4,3428.6,3441.9,677.4,976.5,1271.2,1470.9,1226.6,1070.3,16.0,0.0,-8.0,-7599.0,-12509.0,5458.0,4942.0,6.0,-9.0,-14.0,-3.0,5.0,7.0,10951.0,10718.0,5133.0,2697.0,2.0,1.0,-9.0,1.0
2022-05-06 15:33:59.397334-07:00,1795.5,559.4,1147.1,1336.8,992.7,1111.2,1192.9,1281.0,3437.0,3437.0,1489.3,1299.8,1373.9,3449.1,1000.5,1463.5,3441.9,3440.7,618.1,1224.8,827.7,496.4,1280.1,1646.4,3437.0,3435.8,677.4,976.5,1269.4,1461.7,1226.6,1070.3,17.0,-3.0,1.0,-7602.0,-12508.0,5458.0,4939.0,-7.0,23.0,8.0,-1.0,-3.0,12.0,10951.0,10718.0,5133.0,2697.0,-1.0,-1.0,3.0,1.0
2022-05-06 15:33:59.399580-07:00,1791.6,555.4,1146.3,1336.8,1015.1,1112.1,1192.9,1281.0,3431.0,3441.9,1490.3,1299.8,1373.0,3441.9,1000.5,1463.5,3441.9,3440.7,614.9,1223.9,827.7,495.6,1281.9,1643.5,3437.0,3435.8,677.4,970.5,1269.4,1474.6,1228.4,1062.5,22.0,-4.0,0.0,-7602.0,-12510.0,5458.0,4936.0,12.0,-15.0,-20.0,2.0,1.0,4.0,10951.0,10718.0,5134.0,2697.0,7.0,3.0,-6.0,1.0
2022-05-06 15:33:59.457618-07:00,1791.6,555.4,1146.3,1338.6,1015.1,1113.9,1194.7,1281.9,3431.0,3441.9,1490.3,1301.6,1373.0,3428.6,1016.8,1453.4,3440.7,3440.7,614.1,1223.9,829.4,495.6,1281.9,1643.5,3440.7,3438.2,677.4,970.5,1266.7,1474.6,1228.4,1062.5,12.0,-6.0,-7.0,-7600.0,-12511.0,5459.0,4934.0,-17.0,12.0,7.0,-7.0,1.0,8.0,10952.0,10717.0,5134.0,2697.0,-11.0,-2.0,3.0,1.0
2022-05-06 15:33:59.638039-07:00,1784.9,569.8,1151.5,1338.6,1001.3,1113.9,1194.7,1281.9,3433.4,3428.6,1494.9,1301.6,1372.1,3428.6,1016.8,1453.4,3440.7,3440.7,614.1,1226.6,829.4,490.9,1282.8,1650.2,3440.7,3438.2,677.4,973.1,1266.7,1468.1,1216.0,1068.6,17.0,-2.0,-1.0,-7602.0,-12511.0,5459.0,4931.0,6.0,-9.0,-8.0,-1.0,3.0,10.0,10952.0,10717.0,5134.0,2697.0,1.0,-3.0,-4.0,1.0
2022-05-06 15:33:59.638977-07:00,1784.9,569.8,1151.5,1338.6,1001.3,1110.4,1185.9,1287.3,3433.4,3428.6,1494.9,1295.4,1372.1,3443.1,1015.1,1454.3,3428.6,3428.6,618.1,1226.6,834.4,490.9,1282.8,1650.2,3443.1,3435.8,678.2,973.1,1274.7,1468.1,1216.0,1068.6,17.0,-5.0,-3.0,-7605.0,-12509.0,5460.0,4929.0,-9.0,-4.0,7.0,-4.0,0.0,6.0,10952.0,10717.0,5133.0,2697.0,-4.0,-1.0,4.0,1.0
2022-05-06 15:33:59.639957-07:00,1781.0,562.6,1145.4,1338.6,985.0,1110.4,1185.9,1287.3,3439.5,3439.5,1504.1,1295.4,1372.1,3443.1,1015.1,1454.3,3428.6,3428.6,618.1,1224.8,834.4,492.5,1286.4,1657.7,3443.1,3435.8,678.2,973.1,1274.7,1461.7,1221.3,1081.6,16.0,-7.0,0.0,-7606.0,-12509.0,5462.0,4926.0,-7.0,16.0,-3.0,0.0,1.0,9.0,10952.0,10717.0,5133.0,2697.0,-9.0,-1.0,2.0,1.0
2022-05-06 15:33:59.697901-07:00,1781.0,562.6,1145.4,1332.3,985.0,1107.8,1192.0,1278.3,3439.5,3439.5,1504.1,1299.0,1372.1,3440.7,1015.1,1450.6,3433.4,3433.4,618.1,1224.8,831.1,492.5,1286.4,1657.7,3444.3,3445.5,673.3,973.1,1272.1,1461.7,1221.3,1081.6,16.0,0.0,-10.0,-7609.0,-12508.0,5463.0,4924.0,13.0,-19.0,-5.0,1.0,-1.0,8.0,10952.0,10717.0,5133.0,2697.0,12.0,-4.0,-5.0,1.0
2022-05-06 15:33:59.698997-07:00,1779.1,553.0,1144.5,1330.5,995.3,1107.8,1192.0,1278.3,3439.5,3439.5,1493.0,1295.4,1382.1,3440.7,1015.1,1450.6,3433.4,3433.4,618.1,1223.9,834.4,488.5,1289.1,1650.2,3444.3,3445.5,673.3,973.1,1264.0,1469.0,1223.0,1069.5,14.0,-6.0,0.0,-7608.0,-12506.0,5468.0,4924.0,-24.0,14.0,-2.0,-3.0,2.0,9.0,10953.0,10716.0,5133.0,2698.0,-18.0,-7.0,1.0,1.0
2022-05-06 15:33:59.757433-07:00,1779.1,553.0,1144.5,1330.5,993.6,1105.1,1185.9,1278.3,3439.5,3439.5,1493.0,1295.4,1373.9,3438.2,1014.2,1456.2,3428.6,3434.6,610.0,1226.6,834.4,488.5,1289.1,1650.2,3429.8,3441.9,678.2,977.3,1264.0,1469.0,1223.0,1069.5,13.0,0.0,-5.0,-7614.0,-12505.0,5468.0,4917.0,9.0,7.0,7.0,-7.0,5.0,13.0,10953.0,10716.0,5133.0,2698.0,8.0,1.0,7.0,1.0
2022-05-06 15:33:59.817334-07:00,1784.9,560.2,1154.2,1334.1,993.6,1105.1,1185.9,1278.3,3441.9,3433.4,1497.7,1300.7,1373.9,3438.2,1014.2,1456.2,3428.6,3434.6,610.0,1226.6,835.2,487.7,1281.0,1651.1,3429.8,3441.9,678.2,977.3,1264.9,1470.9,1223.0,1060.8,16.0,-5.0,-5.0,-7613.0,-12505.0,5470.0,4917.0,-8.0,-3.0,-3.0,0.0,2.0,5.0,10954.0,10715.0,5133.0,2698.0,-7.0,-2.0,-5.0,1.0
2022-05-06 15:33:59.847332-07:00,1784.9,560.2,1154.2,1334.1,1000.5,1103.4,1185.0,1281.0,3441.9,3433.4,1497.7,1300.7,1366.6,3435.8,1015.9,1456.2,3441.9,3435.8,607.6,1223.0,835.2,487.7,1281.0,1651.1,3445.5,3438.2,675.8,975.6,1264.9,1470.9,1223.0,1060.8,10.0,2.0,-5.0,-7613.0,-12505.0,5471.0,4915.0,0.0,-7.0,1.0,1.0,-2.0,13.0,10954.0,10715.0,5133.0,2698.0,3.0,1.0,1.0,1.0
2022-05-06 15:33:59.967543-07:00,1779.1,565.0,1148.0,1330.5,1000.5,1103.4,1185.0,1281.0,3449.1,3433.4,1500.4,1294.5,1366.6,3435.8,1015.9,1456.2,3441.9,3435.8,607.6,1223.0,836.1,490.9,1288.2,1653.9,3445.5,3438.2,675.8,975.6,1267.6,1487.5,1223.0,1068.6,15.0,-6.0,3.0,-7611.0,-12506.0,5473.0,4914.0,12.0,1.0,-8.0,0.0,0.0,11.0,10954.0,10715.0,5133.0,2698.0,9.0,3.0,-8.0,1.0
2022-05-06 15:33:59.968782-07:00,1787.8,565.0,1148.0,1330.5,991.9,1111.2,1185.9,1282.8,3449.1,3433.4,1500.4,1294.5,1367.6,3438.2,1003.9,1454.3,3449.1,3439.5,619.7,1222.2,836.1,490.9,1288.2,1653.0,3441.9,3445.5,674.2,979.0,1267.6,1487.5,1223.0,1072.1,15.0,0.0,-5.0,-7613.0,-12506.0,5473.0,4911.0,-9.0,-4.0,4.0,0.0,0.0,9.0,10954.0,10715.0,5133.0,2698.0,0.0,2.0,3.0,1.0
2022-05-06 15:34:00.027163-07:00,1787.8,569.8,1152.4,1328.7,991.9,1111.2,1185.9,1281.9,3449.1,3433.4,1492.1,1299.0,1367.6,3438.2,1003.9,1455.2,3439.5,3439.5,619.7,1222.2,830.2,493.2,1278.3,1653.0,3446.7,3445.5,674.2,979.0,1281.9,1466.3,1222.2,1072.1,12.0,-9.0,1.0,-7613.0,-12506.0,5474.0,4909.0,5.0,7.0,-6.0,0.0,0.0,7.0,10954.0,10715.0,5133.0,2698.0,3.0,0.0,-2.0,1.0
2022-05-06 15:34:00.057446-07:00,1782.0,569.8,1152.4,1328.7,1006.5,1107.8,1184.1,1281.9,3435.8,3433.4,1492.1,1299.0,1375.7,3439.5,1005.6,1455.2,3439.5,3437.0,618.1,1227.5,830.2,493.2,1278.3,1653.0,3446.7,3444.3,679.9,967.9,1281.9,1466.3,1222.2,1070.3,8.0,3.0,-5.0,-7610.0,-12510.0,5477.0,4901.0,19.0,-5.0,8.0,-4.0,4.0,12.0,10949.0,10721.0,5134.0,2696.0,19.0,0.0,5.0,1.0
2022-05-06 15:34:00.117251-07:00,1782.0,556.2,1141.0,1339.5,1006.5,1107.8,1184.1,1279.2,3435.8,3439.5,1515.3,1294.5,1375.7,3439.5,1005.6,1452.5,3444.3,3437.0,618.1,1227.5,828.5,486.1,1281.9,1653.0,3449.1,3444.3,679.9,967.9,1257.8,1472.7,1220.4,1070.3,16.0,-9.0,-1.0,-7609.0,-12511.0,5479.0,4899.0,-5.0,1.0,-9.0,0.0,0.0,6.0,10948.0,10721.0,5135.0,2695.0,0.0,0.0,-3.0,1.0
2022-05-06 15:34:00.147608-07:00,1783.9,556.2,1141.0,1339.5,993.6,1110.4,1190.3,1279.2,3444.3,3439.5,1515.3,1294.5,1369.4,3438.2,1015.1,1452.5,3444.3,3454.0,618.1,1231.9,828.5,486.1,1281.9,1650.2,3449.1,3447.9,675.8,969.6,1257.8,1472.7,1220.4,1066.0,6.0,4.0,-3.0,-7610.0,-12509.0,5480.0,4899.0,-10.0,-2.0,4.0,-5.0,3.0,8.0,10948.0,10721.0,5135.0,2695.0,-7.0,0.0,6.0,1.0
2022-05-06 15:34:00.208022-07:00,1783.9,562.6,1140.1,1340.4,993.6,1110.4,1189.4,1282.8,3444.3,3444.3,1502.3,1290.9,1369.4,3438.2,1010.8,1458.0,3437.0,3429.8,618.1,1231.9,831.1,494.0,1281.9,1650.2,3437.0,3438.2,675.8,969.6,1263.1,1465.4,1229.3,1066.0,13.0,-4.0,0.0,-7610.0,-12509.0,5480.0,4900.0,12.0,6.0,-7.0,0.0,0.0,12.0,10948.0,10721.0,5135.0,2695.0,11.0,4.0,-3.0,1.0
2022-05-06 15:34:00.267407-07:00,1782.0,556.2,1140.1,1340.4,997.9,1110.4,1189.4,1282.8,3443.1,3444.3,1502.3,1290.9,1374.8,3443.1,1010.8,1458.0,3437.0,3429.8,616.5,1223.0,831.1,494.0,1284.6,1652.0,3437.0,3438.2,669.3,966.2,1263.1,1465.4,1222.2,1072.1,9.0,-4.0,-1.0,-7613.0,-12509.0,5479.0,4898.0,-22.0,14.0,-5.0,0.0,1.0,11.0,10948.0,10721.0,5135.0,2695.0,-14.0,2.0,-1.0,1.0
2022-05-06 15:34:00.297271-07:00,1782.0,556.2,1154.2,1333.2,997.9,1110.4,1187.6,1275.6,3443.1,3444.3,1496.7,1299.0,1374.8,3443.1,1015.1,1453.4,3433.4,3437.0,616.5,1223.0,835.2,493.2,1284.6,1652.0,3443.1,3443.1,669.3,966.2,1271.2,1466.3,1222.2,1072.1,12.0,-2.0,-5.0,-7611.0,-12510.0,5479.0,4898.0,29.0,-1.0,-3.0,-3.0,1.0,8.0,10947.0,10723.0,5135.0,2695.0,24.0,5.0,2.0,1.0
2022-05-06 15:34:00.357408-07:00,1787.8,561.8,1154.2,1333.2,990.2,1119.1,1187.6,1275.6,3440.7,3443.1,1496.7,1299.0,1367.6,3439.5,1015.1,1453.4,3433.4,3437.0,614.1,1227.5,835.2,493.2,1280.1,1646.4,3443.1,3443.1,674.2,975.6,1271.2,1466.3,1224.8,1084.2,12.0,-10.0,0.0,-7617.0,-12506.0,5477.0,4900.0,-37.0,3.0,-1.0,-8.0,0.0,8.0,10951.0,10719.0,5134.0,2696.0,-32.0,-8.0,1.0,1.0
2022-05-06 15:34:00.417340-07:00,1787.8,561.8,1148.0,1338.6,990.2,1119.1,1189.4,1283.7,3440.7,3443.1,1500.4,1299.0,1367.6,3439.5,1015.1,1460.8,3437.0,3438.2,614.1,1227.5,836.9,495.6,1280.1,1646.4,3432.2,3440.7,674.2,975.6,1268.5,1470.9,1224.8,1084.2,15.0,8.0,-2.0,-7614.0,-12508.0,5478.0,4900.0,9.0,-13.0,-6.0,0.0,12.0,10.0,10949.0,10720.0,5134.0,2696.0,8.0,-1.0,-4.0,1.0
2022-05-06 15:34:00.447349-07:00,1775.2,558.6,1148.0,1338.6,996.2,1110.4,1189.4,1283.7,3441.9,3444.3,1500.4,1299.0,1370.3,3444.3,1015.1,1460.8,3437.0,3438.2,619.7,1222.2,836.9,495.6,1280.1,1647.3,3432.2,3440.7,672.5,976.5,1268.5,1470.9,1223.0,1064.3,9.0,-5.0,0.0,-7614.0,-12510.0,5475.0,4897.0,10.0,22.0,-1.0,0.0,-2.0,16.0,10949.0,10720.0,5134.0,2696.0,9.0,7.0,4.0,1.0
2022-05-06 15:34:00.508321-07:00,1775.2,558.6,1154.2,1324.1,996.2,1112.1,1186.7,1273.9,3441.9,3444.3,1494.9,1301.6,1370.3,3438.2,1014.2,1455.2,3433.4,3428.6,620.5,1222.2,832.7,493.2,1280.1,1647.3,3441.9,3447.9,675.8,976.5,1273.9,1465.4,1223.0,1064.3,11.0,0.0,-8.0,-7614.0,-12512.0,5472.0,4895.0,-7.0,-1.0,-15.0,-3.0,4.0,9.0,10948.0,10721.0,5134.0,2695.0,-3.0,2.0,-7.0,1.0
2022-05-06 15:34:00.567419-07:00,1783.9,566.6,1145.4,1324.1,988.5,1112.1,1186.7,1273.9,3443.1,3437.0,1493.0,1301.6,1366.6,3438.2,1014.2,1455.2,3433.4,3428.6,620.5,1224.8,832.7,491.7,1281.0,1651.1,3441.9,3447.9,675.8,977.3,1273.9,1470.9,1229.3,1071.2,14.0,0.0,-2.0,-7614.0,-12513.0,5471.0,4896.0,-8.0,9.0,4.0,0.0,4.0,8.0,10948.0,10721.0,5134.0,2695.0,-3.0,-7.0,4.0,1.0
2022-05-06 15:34:00.627365-07:00,1783.9,566.6,1145.4,1330.5,988.5,1115.6,1185.9,1297.2,3443.1,3437.0,1493.0,1295.4,1366.6,3443.1,1007.3,1452.5,3449.1,3428.6,610.8,1224.8,832.7,491.7,1281.0,1651.1,3441.9,3439.5,678.2,977.3,1267.6,1470.9,1229.3,1071.2,13.0,0.0,-4.0,-7615.0,-12510.0,5472.0,4900.0,16.0,-24.0,-5.0,-6.0,0.0,11.0,10950.0,10720.0,5134.0,2696.0,10.0,1.0,-2.0,1.0
2022-05-06 15:34:00.657373-07:00,1788.7,565.0,1144.5,1330.5,991.9,1115.6,1185.9,1297.2,3450.4,3433.4,1495.8,1295.4,1375.7,3443.1,1007.3,1452.5,3449.1,3428.6,610.8,1224.8,832.7,492.5,1275.6,1649.2,3441.9,3439.5,678.2,977.3,1267.6,1468.1,1223.9,1068.6,13.0,-8.0,5.0,-7613.0,-12511.0,5472.0,4901.0,-21.0,15.0,3.0,0.0,-2.0,10.0,10947.0,10722.0,5135.0,2695.0,-11.0,-3.0,4.0,1.0
2022-05-06 15:34:00.717929-07:00,1788.7,565.0,1144.5,1327.8,991.9,1104.3,1181.5,1281.9,3450.4,3433.4,1495.8,1292.7,1375.7,3438.2,1018.5,1454.3,3441.9,3433.4,616.5,1224.8,833.6,492.5,1275.6,1649.2,3446.7,3433.4,675.0,977.3,1270.3,1468.1,1223.9,1068.6,10.0,6.0,-9.0,-7618.0,-12512.0,5467.0,4897.0,6.0,-2.0,-6.0,-2.0,0.0,12.0,10948.0,10721.0,5135.0,2695.0,5.0,2.0,-2.0,1.0
2022-05-06 15:34:00.747280-07:00,1780.1,561.8,1135.7,1333.2,995.3,1104.3,1181.5,1281.9,3438.2,3438.2,1495.8,1299.0,1367.6,3438.2,1018.5,1454.3,3441.9,3433.4,616.5,1223.9,828.5,491.7,1281.0,1654.9,3446.7,3433.4,675.0,977.3,1270.3,1465.4,1222.2,1077.3,17.0,-11.0,-2.0,-7616.0,-12512.0,5466.0,4900.0,2.0,5.0,-3.0,0.0,-3.0,11.0,10948.0,10721.0,5135.0,2695.0,-3.0,2.0,1.0,1.0
2022-05-06 15:34:00.837257-07:00,1780.1,561.8,1135.7,1333.2,996.2,1118.2,1188.5,1275.6,3438.2,3438.2,1495.8,1299.0,1375.7,3446.7,1011.6,1440.5,3428.6,3443.1,618.1,1233.7,828.5,491.7,1281.0,1654.9,3449.1,3454.0,669.3,979.9,1270.3,1465.4,1222.2,1077.3,11.0,4.0,-9.0,-7616.0,-12511.0,5468.0,4900.0,-7.0,-11.0,1.0,-3.0,4.0,11.0,10948.0,10721.0,5135.0,2695.0,-3.0,-4.0,0.0,1.0
2022-05-06 15:34:00.868022-07:00,1791.6,560.2,1144.5,1329.6,996.2,1118.2,1188.5,1275.6,3444.3,3437.0,1492.1,1291.8,1375.7,3446.7,1011.6,1440.5,3428.6,3443.1,618.1,1233.7,831.9,499.6,1289.1,1648.3,3449.1,3454.0,669.3,979.9,1266.7,1476.4,1224.8,1070.3,13.0,-6.0,1.0,-7613.0,-12513.0,5467.0,4901.0,14.0,1.0,-3.0,-1.0,4.0,15.0,10948.0,10722.0,5135.0,2695.0,7.0,1.0,-2.0,1.0
2022-05-06 15:34:00.927389-07:00,1791.6,560.2,1144.5,1329.6,991.9,1113.0,1189.4,1281.9,3444.3,3437.0,1492.1,1291.8,1373.0,3438.2,1011.6,1456.2,3444.3,3432.2,614.9,1225.7,831.9,499.6,1289.1,1648.3,3438.2,3444.3,671.7,972.2,1266.7,1476.4,1224.8,1070.3,12.0,-1.0,-1.0,-7617.0,-12511.0,5465.0,4901.0,-13.0,11.0,1.0,-4.0,-1.0,10.0,10948.0,10721.0,5135.0,2695.0,-5.0,3.0,1.0,1.0
2022-05-06 15:34:00.957465-07:00,1781.0,561.0,1148.0,1332.3,991.9,1113.0,1189.4,1281.9,3443.1,3435.8,1490.3,1295.4,1373.0,3438.2,1011.6,1456.2,3444.3,3432.2,614.9,1225.7,831.9,496.4,1281.9,1649.2,3438.2,3444.3,671.7,972.2,1274.7,1489.3,1227.5,1068.6,10.0,0.0,-3.0,-7613.0,-12514.0,5464.0,4901.0,7.0,7.0,-15.0,-4.0,0.0,9.0,10947.0,10723.0,5135.0,2695.0,5.0,6.0,-4.0,1.0
2022-05-06 15:34:01.047301-07:00,1781.0,561.0,1148.0,1332.3,992.7,1113.0,1192.0,1285.5,3443.1,3435.8,1490.3,1295.4,1379.4,3438.2,1021.9,1463.5,3424.9,3439.5,614.1,1223.9,831.9,496.4,1281.9,1649.2,3435.8,3440.7,677.4,981.6,1274.7,1489.3,1227.5,1068.6,16.0,-5.0,-4.0,-7613.0,-12514.0,5461.0,4903.0,-10.0,6.0,-3.0,0.0,2.0,7.0,10947.0,10723.0,5135.0,2695.0,-5.0,-6.0,-2.0,1.0
2022-05-06 15:34:01.049057-07:00,1782.9,558.6,1146.3,1339.5,992.7,1113.0,1192.0,1283.7,3433.4,3435.8,1492.1,1297.2,1379.4,3438.2,1021.9,1454.3,3441.9,3439.5,614.1,1223.9,836.1,490.9,1273.0,1649.2,3439.5,3440.7,677.4,981.6,1269.4,1466.3,1224.8,1063.4,14.0,0.0,-5.0,-7613.0,-12514.0,5462.0,4904.0,0.0,-11.0,-1.0,-2.0,3.0,7.0,10947.0,10723.0,5135.0,2695.0,1.0,0.0,2.0,1.0
2022-05-06 15:34:01.107585-07:00,1782.9,558.6,1146.3,1339.5,988.5,1110.4,1194.7,1283.7,3437.0,3435.8,1492.1,1297.2,1367.6,3441.9,1007.3,1454.3,3441.9,3439.5,619.7,1228.4,836.1,490.9,1273.0,1649.2,3439.5,3439.5,679.9,976.5,1269.4,1466.3,1224.8,1068.6,12.0,-3.0,-1.0,-7613.0,-12513.0,5462.0,4905.0,-11.0,2.0,-2.0,-2.0,4.0,11.0,10947.0,10723.0,5135.0,2695.0,-7.0,-2.0,-2.0,1.0
2022-05-06 15:34:01.287725-07:00,1782.9,562.6,1146.3,1339.5,988.5,1110.4,1194.7,1281.9,3437.0,3432.2,1493.0,1298.1,1367.6,3441.9,1007.3,1454.3,3435.8,3439.5,619.7,1228.4,831.9,488.5,1281.0,1649.2,3449.1,3439.5,679.9,976.5,1271.2,1470.9,1228.4,1068.6,10.0,2.0,-3.0,-7617.0,-12512.0,5459.0,4904.0,4.0,-8.0,-6.0,-5.0,7.0,17.0,10948.0,10721.0,5135.0,2695.0,5.0,4.0,-3.0,1.0
2022-05-06 15:34:01.289452-07:00,1771.4,562.6,1146.3,1339.5,983.3,1104.3,1194.7,1281.9,3444.3,3432.2,1493.0,1298.1,1373.9,3435.8,1011.6,1454.3,3435.8,3443.1,618.1,1215.1,831.9,488.5,1281.0,1657.7,3449.1,3438.2,671.7,975.6,1271.2,1470.9,1228.4,1068.6,17.0,-7.0,0.0,-7612.0,-12514.0,5457.0,4911.0,-7.0,4.0,-15.0,-2.0,2.0,9.0,10947.0,10723.0,5135.0,2695.0,-5.0,8.0,-3.0,1.0
2022-05-06 15:34:01.377337-07:00,1771.4,563.4,1144.5,1342.2,983.3,1104.3,1194.7,1275.6,3444.3,3441.9,1494.9,1298.1,1373.9,3435.8,1011.6,1450.6,3431.0,3443.1,618.1,1215.1,832.7,498.0,1280.1,1657.7,3444.3,3438.2,671.7,975.6,1271.2,1462.6,1224.8,1068.6,10.0,3.0,-6.0,-7619.0,-12511.0,5455.0,4907.0,-5.0,12.0,14.0,-5.0,3.0,11.0,10949.0,10721.0,5134.0,2696.0,-2.0,-3.0,7.0,1.0
2022-05-06 15:34:01.378909-07:00,1780.1,556.2,1144.5,1342.2,992.7,1113.0,1184.1,1275.6,3445.5,3440.7,1494.9,1298.1,1375.7,3438.2,1015.1,1450.6,3431.0,3438.2,611.7,1223.0,832.7,498.0,1290.9,1653.0,3444.3,3443.1,674.2,968.8,1271.2,1462.6,1223.9,1072.1,18.0,-4.0,0.0,-7618.0,-12512.0,5454.0,4909.0,4.0,-8.0,-13.0,0.0,0.0,11.0,10949.0,10721.0,5134.0,2696.0,6.0,2.0,-3.0,1.0
2022-05-06 15:34:01.380187-07:00,1780.1,556.2,1146.3,1345.8,992.7,1113.0,1185.9,1292.7,3445.5,3440.7,1496.7,1299.0,1375.7,3438.2,1008.2,1459.8,3428.6,3439.5,611.7,1223.0,834.4,490.1,1290.9,1653.0,3434.6,3446.7,674.2,968.8,1267.6,1463.5,1223.9,1072.1,14.0,-3.0,2.0,-7620.0,-12512.0,5453.0,4908.0,-10.0,19.0,5.0,-1.0,0.0,10.0,10949.0,10721.0,5134.0,2696.0,-4.0,-3.0,6.0,1.0
2022-05-06 15:34:01.407240-07:00,1789.7,557.0,1146.3,1345.8,993.6,1109.5,1185.9,1292.7,3428.6,3444.3,1496.7,1299.0,1370.3,3435.8,1008.2,1459.8,3428.6,3439.5,612.5,1225.7,834.4,490.1,1278.3,1651.1,3434.6,3446.7,673.3,972.2,1267.6,1463.5,1224.8,1066.0,12.0,1.0,-5.0,-7619.0,-12516.0,5448.0,4905.0,18.0,-3.0,-18.0,-5.0,1.0,9.0,10948.0,10721.0,5135.0,2697.0,17.0,5.0,-5.0,1.0
2022-05-06 15:34:01.466906-07:00,1789.7,557.0,1142.7,1332.3,993.6,1109.5,1180.6,1278.3,3428.6,3444.3,1502.3,1292.7,1370.3,3435.8,1015.1,1443.3,3433.4,3434.6,612.5,1225.7,831.1,491.7,1278.3,1651.1,3437.0,3438.2,673.3,972.2,1266.7,1462.6,1224.8,1066.0,16.0,-7.0,0.0,-7617.0,-12518.0,5446.0,4905.0,-11.0,11.0,8.0,0.0,0.0,14.0,10945.0,10724.0,5135.0,2696.0,-5.0,-3.0,5.0,1.0
2022-05-06 15:34:01.527451-07:00,1786.8,559.4,1142.7,1332.3,996.2,1104.3,1180.6,1278.3,3443.1,3444.3,1502.3,1292.7,1368.5,3431.0,1015.1,1443.3,3433.4,3434.6,614.1,1220.4,831.1,491.7,1282.8,1645.4,3437.0,3438.2,666.0,972.2,1266.7,1462.6,1220.4,1066.9,11.0,-2.0,-5.0,-7619.0,-12517.0,5446.0,4905.0,3.0,-12.0,-7.0,-6.0,7.0,9.0,10945.0,10724.0,5135.0,2696.0,2.0,-7.0,-6.0,1.0
2022-05-06 15:34:01.557252-07:00,1786.8,559.4,1148.9,1335.9,996.2,1112.1,1186.7,1293.6,3443.1,3444.3,1493.0,1294.5,1368.5,3438.2,1007.3,1448.8,3431.0,3434.6,617.3,1220.4,833.6,492.5,1282.8,1645.4,3434.6,3435.8,675.0,972.2,1263.1,1472.7,1220.4,1066.9,19.0,-6.0,2.0,-7617.0,-12516.0,5447.0,4909.0,-7.0,4.0,-3.0,0.0,2.0,9.0,10945.0,10724.0,5135.0,2696.0,-8.0,0.0,2.0,1.0
2022-05-06 15:34:01.617684-07:00,1775.2,566.6,1144.5,1335.9,991.9,1112.1,1186.7,1293.6,3439.5,3441.9,1494.0,1294.5,1367.6,3438.2,1007.3,1448.8,3431.0,3434.6,617.3,1223.9,833.6,491.7,1272.1,1651.1,3434.6,3435.8,675.0,973.9,1263.1,1474.6,1230.2,1077.3,13.0,0.0,-7.0,-7620.0,-12518.0,5444.0,4904.0,-3.0,10.0,-1.0,-2.0,2.0,14.0,10946.0,10723.0,5135.0,2696.0,-3.0,-1.0,-1.0,1.0
2022-05-06 15:34:01.647371-07:00,1775.2,566.6,1144.5,1330.5,991.9,1106.0,1191.2,1289.1,3439.5,3441.9,1494.0,1295.4,1367.6,3447.9,1007.3,1453.4,3441.9,3423.7,615.7,1223.9,835.2,491.7,1272.1,1651.1,3449.1,3427.4,672.5,973.9,1265.8,1474.6,1230.2,1077.3,17.0,-3.0,-2.0,-7617.0,-12519.0,5445.0,4903.0,6.0,3.0,-6.0,0.0,8.0,8.0,10945.0,10724.0,5135.0,2695.0,1.0,4.0,-3.0,1.0
2022-05-06 15:34:01.707394-07:00,1781.0,561.8,1143.6,1330.5,1001.3,1106.0,1191.2,1289.1,3451.6,3432.2,1492.1,1295.4,1379.4,3447.9,1007.3,1453.4,3441.9,3423.7,615.7,1225.7,835.2,489.3,1279.2,1649.2,3449.1,3427.4,672.5,973.1,1265.8,1465.4,1223.9,1072.1,12.0,-9.0,-3.0,-7620.0,-12517.0,5444.0,4904.0,-10.0,8.0,0.0,-6.0,-1.0,14.0,10946.0,10723.0,5135.0,2696.0,1.0,1.0,1.0,1.0
2022-05-06 15:34:01.797333-07:00,1781.0,561.8,1143.6,1333.2,1001.3,1115.6,1187.6,1283.7,3451.6,3432.2,1492.1,1295.4,1379.4,3441.9,1005.6,1457.1,3438.2,3431.0,615.7,1225.7,835.2,489.3,1279.2,1649.2,3444.3,3441.9,678.2,973.1,1273.0,1465.4,1223.9,1072.1,18.0,-1.0,-3.0,-7620.0,-12518.0,5444.0,4904.0,3.0,2.0,-6.0,-2.0,7.0,9.0,10945.0,10725.0,5135.0,2695.0,0.0,4.0,-2.0,1.0
2022-05-06 15:34:01.798656-07:00,1783.9,550.6,1151.5,1333.2,990.2,1115.6,1187.6,1283.7,3438.2,3432.2,1493.0,1295.4,1371.2,3441.9,1005.6,1457.1,3438.2,3431.0,615.7,1224.8,835.2,489.3,1277.4,1642.6,3444.3,3441.9,678.2,973.1,1273.0,1467.2,1217.7,1066.0,15.0,-4.0,-2.0,-7622.0,-12517.0,5443.0,4903.0,-11.0,5.0,-1.0,-2.0,0.0,13.0,10945.0,10725.0,5135.0,2695.0,-6.0,-2.0,-1.0,1.0
2022-05-06 15:34:01.857545-07:00,1783.9,550.6,1151.5,1330.5,989.3,1106.9,1204.4,1284.6,3438.2,3432.2,1493.0,1295.4,1369.4,3441.9,1009.0,1453.4,3428.6,3441.9,618.1,1221.3,834.4,489.3,1277.4,1642.6,3449.1,3439.5,679.9,976.5,1268.5,1467.2,1217.7,1066.0,17.0,-3.0,-1.0,-7622.0,-12517.0,5443.0,4904.0,5.0,-11.0,3.0,-1.0,3.0,9.0,10945.0,10725.0,5135.0,2695.0,0.0,-1.0,0.0,1.0
2022-05-06 15:34:01.917354-07:00,1780.1,557.8,1144.5,1337.7,989.3,1106.9,1204.4,1284.6,3439.5,3435.8,1491.2,1294.5,1369.4,3441.9,1009.0,1453.4,3428.6,3441.9,618.1,1221.3,831.1,491.7,1280.1,1644.5,3449.1,3439.5,679.9,976.5,1268.5,1447.9,1223.9,1068.6,14.0,0.0,-2.0,-7622.0,-12516.0,5443.0,4905.0,-7.0,4.0,2.0,-3.0,2.0,12.0,10945.0,10725.0,5135.0,2695.0,-3.0,-4.0,2.0,1.0
2022-05-06 15:34:01.947269-07:00,1780.1,557.8,1144.5,1337.7,994.5,1103.4,1193.8,1285.5,3439.5,3435.8,1491.2,1294.5,1373.0,3432.2,1011.6,1451.6,3428.6,3435.8,611.7,1219.5,831.1,491.7,1280.1,1644.5,3437.0,3438.2,663.6,973.9,1268.5,1447.9,1223.9,1068.6,12.0,0.0,-3.0,-7625.0,-12515.0,5442.0,4905.0,2.0,-8.0,-3.0,-5.0,4.0,13.0,10945.0,10725.0,5135.0,2695.0,10.0,2.0,-6.0,1.0
2022-05-06 15:34:02.007218-07:00,1782.0,559.4,1148.9,1339.5,994.5,1103.4,1193.8,1285.5,3438.2,3440.7,1489.3,1299.8,1373.0,3432.2,1011.6,1451.6,3428.6,3435.8,611.7,1219.5,831.1,493.2,1283.7,1645.4,3437.0,3438.2,663.6,973.9,1269.4,1478.3,1222.2,1070.3,18.0,-3.0,-4.0,-7622.0,-12516.0,5443.0,4905.0,-4.0,13.0,-8.0,-5.0,0.0,8.0,10942.0,10727.0,5136.0,2694.0,-7.0,2.0,1.0,1.0
2022-05-06 15:34:02.097611-07:00,1782.0,559.4,1148.9,1339.5,991.9,1103.4,1188.5,1280.1,3438.2,3440.7,1489.3,1299.8,1371.2,3435.8,1011.6,1451.6,3435.8,3438.2,622.2,1223.9,831.1,493.2,1283.7,1645.4,3449.1,3438.2,670.9,972.2,1269.4,1478.3,1222.2,1070.3,13.0,-3.0,-7.0,-7627.0,-12517.0,5439.0,4901.0,2.0,-4.0,3.0,-1.0,-2.0,16.0,10942.0,10727.0,5136.0,2694.0,11.0,1.0,-3.0,1.0
2022-05-06 15:34:02.099563-07:00,1777.2,563.4,1144.5,1330.5,991.9,1103.4,1188.5,1279.2,3435.8,3435.8,1490.3,1292.7,1371.2,3435.8,1011.6,1451.6,3445.5,3438.2,622.2,1223.9,831.9,490.9,1281.9,1650.2,3445.5,3438.2,670.9,972.2,1266.7,1467.2,1225.7,1061.7,20.0,-5.0,0.0,-7624.0,-12518.0,5440.0,4902.0,-9.0,9.0,-10.0,0.0,1.0,12.0,10940.0,10729.0,5137.0,2693.0,-8.0,1.0,0.0,1.0
2022-05-06 15:34:02.217839-07:00,1781.0,563.4,1144.5,1330.5,992.7,1109.5,1192.9,1279.2,3428.6,3435.8,1490.3,1292.7,1377.5,3439.5,1021.9,1451.6,3445.5,3438.2,614.1,1221.3,831.9,490.9,1281.9,1651.1,3445.5,3438.2,675.0,973.9,1266.7,1467.2,1225.7,1064.3,12.0,0.0,-5.0,-7624.0,-12518.0,5439.0,4902.0,10.0,0.0,-4.0,-6.0,2.0,10.0,10940.0,10729.0,5137.0,2693.0,11.0,6.0,-1.0,1.0
2022-05-06 15:34:02.218884-07:00,1781.0,561.8,1147.1,1324.1,992.7,1109.5,1192.9,1283.7,3428.6,3431.0,1496.7,1293.6,1377.5,3439.5,1021.9,1464.4,3441.9,3438.2,614.1,1221.3,826.9,490.9,1274.7,1651.1,3449.1,3438.2,675.0,973.9,1262.2,1467.2,1222.2,1064.3,14.0,-6.0,-3.0,-7623.0,-12519.0,5436.0,4904.0,-3.0,8.0,-11.0,-5.0,-1.0,10.0,10940.0,10730.0,5137.0,2693.0,-1.0,3.0,-4.0,1.0
2022-05-06 15:34:02.247555-07:00,1782.9,561.8,1147.1,1324.1,1002.2,1111.2,1190.3,1283.7,3434.6,3431.0,1496.7,1293.6,1367.6,3433.4,1015.1,1464.4,3441.9,3438.2,614.1,1218.6,826.9,490.9,1274.7,1653.0,3449.1,3444.3,675.0,972.2,1262.2,1467.2,1222.2,1068.6,14.0,-1.0,-4.0,-7621.0,-12520.0,5436.0,4904.0,-3.0,3.0,3.0,-3.0,0.0,9.0,10938.0,10731.0,5137.0,2692.0,-1.0,-3.0,2.0,1.0
2022-05-06 15:34:02.307252-07:00,1782.9,560.2,1143.6,1337.7,1002.2,1111.2,1190.3,1281.0,3434.6,3433.4,1493.0,1288.2,1367.6,3433.4,1015.1,1452.5,3440.7,3438.2,614.1,1218.6,832.7,494.8,1281.0,1653.0,3438.2,3444.3,675.0,972.2,1264.9,1470.9,1219.5,1068.6,15.0,-3.0,-1.0,-7623.0,-12519.0,5435.0,4905.0,4.0,-2.0,-14.0,-3.0,2.0,13.0,10938.0,10731.0,5137.0,2692.0,0.0,1.0,-2.0,1.0
2022-05-06 15:34:02.427434-07:00,1782.9,557.8,1143.6,1337.7,991.0,1119.1,1186.7,1281.0,3445.5,3437.0,1493.0,1288.2,1369.4,3435.8,1010.8,1452.5,3440.7,3429.8,614.9,1239.1,832.7,494.8,1274.7,1649.2,3438.2,3445.5,676.6,973.1,1264.9,1470.9,1223.0,1066.9,15.0,-7.0,0.0,-7622.0,-12520.0,5433.0,4906.0,1.0,2.0,5.0,-2.0,0.0,13.0,10938.0,10731.0,5137.0,2692.0,1.0,-3.0,2.0,1.0
2022-05-06 15:34:02.428967-07:00,1782.9,557.8,1157.7,1333.2,991.0,1119.1,1186.7,1282.8,3445.5,3437.0,1496.7,1293.6,1369.4,3435.8,1007.3,1459.8,3432.2,3440.7,614.9,1239.1,833.6,496.4,1274.7,1649.2,3449.1,3447.9,676.6,973.1,1271.2,1464.4,1223.0,1066.9,14.0,-2.0,-7.0,-7622.0,-12521.0,5432.0,4906.0,-6.0,3.0,-16.0,0.0,0.0,13.0,10938.0,10731.0,5137.0,2692.0,1.0,3.0,-3.0,1.0
2022-05-06 15:34:02.517526-07:00,1785.8,558.6,1157.7,1333.2,986.7,1104.3,1186.7,1282.8,3428.6,3449.1,1496.7,1293.6,1366.6,3433.4,1007.3,1459.8,3432.2,3440.7,612.5,1223.9,833.6,496.4,1276.5,1638.8,3449.1,3447.9,679.1,977.3,1271.2,1464.4,1223.0,1063.4,15.0,2.0,-3.0,-7621.0,-12521.0,5430.0,4907.0,-4.0,1.0,1.0,-2.0,8.0,12.0,10938.0,10731.0,5137.0,2692.0,6.0,-4.0,1.0,1.0
2022-05-06 15:34:02.518806-07:00,1785.8,558.6,1148.0,1329.6,986.7,1104.3,1188.5,1290.0,3428.6,3449.1,1487.5,1297.2,1366.6,3433.4,1014.2,1456.2,3426.2,3434.6,612.5,1223.9,827.7,489.3,1276.5,1638.8,3435.8,3433.4,679.1,977.3,1269.4,1463.5,1223.0,1063.4,15.0,-5.0,-6.0,-7624.0,-12520.0,5429.0,4908.0,-11.0,1.0,-5.0,-1.0,-1.0,12.0,10939.0,10730.0,5137.0,2692.0,-8.0,-6.0,0.0,1.0
2022-05-06 15:34:02.547376-07:00,1781.0,561.8,1148.0,1329.6,990.2,1110.4,1188.5,1290.0,3428.6,3435.8,1487.5,1297.2,1370.3,3440.7,1014.2,1456.2,3426.2,3434.6,617.3,1224.8,827.7,489.3,1285.5,1643.5,3435.8,3433.4,675.0,969.6,1269.4,1463.5,1224.8,1070.3,15.0,1.0,0.0,-7622.0,-12521.0,5430.0,4908.0,-1.0,-9.0,-5.0,-4.0,5.0,13.0,10938.0,10731.0,5137.0,2692.0,1.0,0.0,-2.0,1.0
2022-05-06 15:34:02.637351-07:00,1781.0,561.8,1142.7,1340.4,990.2,1110.4,1190.3,1288.2,3428.6,3435.8,1500.4,1298.1,1370.3,3440.7,1015.1,1453.4,3432.2,3443.1,617.3,1224.8,829.4,496.4,1285.5,1643.5,3438.2,3440.7,675.0,969.6,1266.7,1470.9,1224.8,1070.3,8.0,-2.0,-5.0,-7624.0,-12520.0,5429.0,4908.0,1.0,12.0,-3.0,-5.0,0.0,17.0,10938.0,10731.0,5137.0,2692.0,0.0,1.0,-1.0,1.0
2022-05-06 15:34:02.639842-07:00,1784.9,554.6,1137.5,1340.4,1002.2,1106.9,1190.3,1288.2,3449.1,3441.9,1493.0,1298.1,1376.6,3458.9,1015.1,1453.4,3432.2,3443.1,619.7,1224.8,829.4,493.2,1278.3,1652.0,3438.2,3440.7,678.2,980.7,1266.7,1465.4,1223.9,1062.5,15.0,-4.0,-4.0,-7625.0,-12519.0,5428.0,4908.0,-2.0,-4.0,-1.0,-2.0,-2.0,9.0,10938.0,10731.0,5137.0,2692.0,0.0,0.0,-2.0,1.0
2022-05-06 15:34:02.728125-07:00,1784.9,554.6,1137.5,1332.3,1002.2,1110.4,1196.5,1281.0,3449.1,3441.9,1493.0,1293.6,1376.6,3437.0,1007.3,1449.7,3435.8,3428.6,621.4,1224.8,827.7,493.2,1278.3,1652.0,3441.9,3433.4,672.5,980.7,1273.0,1465.4,1223.9,1062.5,17.0,-4.0,-5.0,-7626.0,-12519.0,5428.0,4908.0,-23.0,-2.0,6.0,-5.0,1.0,11.0,10939.0,10730.0,5137.0,2692.0,-14.0,-4.0,3.0,1.0
2022-05-06 15:34:02.787327-07:00,1778.1,561.8,1145.4,1332.3,986.7,1110.4,1196.5,1281.0,3438.2,3441.9,1492.1,1293.6,1366.6,3437.0,1007.3,1449.7,3435.8,3428.6,621.4,1223.9,827.7,494.0,1278.3,1649.2,3441.9,3433.4,672.5,969.6,1273.0,1466.3,1223.0,1062.5,16.0,3.0,-3.0,-7630.0,-12516.0,5427.0,4912.0,6.0,-13.0,-5.0,-2.0,5.0,14.0,10941.0,10728.0,5136.0,2693.0,-1.0,0.0,-3.0,1.0
2022-05-06 15:34:02.788596-07:00,1778.1,561.8,1145.4,1330.5,986.7,1112.1,1187.6,1280.1,3438.2,3441.9,1492.1,1295.4,1366.6,3444.3,1002.2,1457.1,3427.4,3438.2,615.7,1223.9,831.1,494.0,1278.3,1649.2,3449.1,3438.2,675.0,969.6,1268.5,1466.3,1223.0,1062.5,16.0,-4.0,-1.0,-7628.0,-12517.0,5426.0,4913.0,-1.0,7.0,1.0,-3.0,0.0,12.0,10941.0,10728.0,5136.0,2693.0,-3.0,5.0,0.0,1.0
2022-05-06 15:34:02.907397-07:00,1777.2,563.4,1149.8,1330.5,994.5,1112.1,1187.6,1280.1,3449.1,3441.9,1487.5,1295.4,1374.8,3444.3,1002.2,1457.1,3427.4,3438.2,615.7,1223.0,831.1,492.5,1283.7,1649.2,3449.1,3438.2,675.0,978.2,1268.5,1467.2,1213.3,1059.9,13.0,1.0,-9.0,-7629.0,-12518.0,5423.0,4910.0,-7.0,8.0,-6.0,-1.0,0.0,14.0,10941.0,10728.0,5136.0,2693.0,-2.0,-2.0,0.0,1.0
2022-05-06 15:34:02.909073-07:00,1777.2,563.4,1149.8,1333.2,994.5,1106.9,1187.6,1284.6,3449.1,3441.9,1487.5,1299.8,1373.0,3437.0,1004.8,1454.3,3433.4,3444.3,618.1,1221.3,831.9,492.5,1283.7,1649.2,3445.5,3444.3,678.2,974.8,1263.1,1467.2,1213.3,1059.9,16.0,-4.0,-1.0,-7628.0,-12518.0,5423.0,4912.0,2.0,-1.0,-1.0,-2.0,2.0,13.0,10941.0,10728.0,5136.0,2693.0,5.0,-5.0,0.0,1.0
2022-05-06 15:34:02.997274-07:00,1779.1,566.6,1140.1,1339.5,994.5,1106.9,1187.6,1284.6,3440.7,3445.5,1490.3,1298.1,1373.0,3437.0,1004.8,1454.3,3433.4,3444.3,618.1,1221.3,833.6,492.5,1286.4,1650.2,3445.5,3444.3,678.2,974.8,1273.0,1466.3,1233.7,1072.9,17.0,-3.0,-4.0,-7631.0,-12517.0,5422.0,4913.0,-10.0,-5.0,1.0,-2.0,0.0,13.0,10942.0,10727.0,5136.0,2694.0,-7.0,-4.0,2.0,1.0
2022-05-06 15:34:02.998428-07:00,1779.1,566.6,1140.1,1339.5,994.5,1118.2,1184.1,1281.9,3440.7,3445.5,1490.3,1298.1,1368.5,3428.6,1009.0,1451.6,3428.6,3441.9,617.3,1223.9,833.6,492.5,1286.4,1650.2,3439.5,3433.4,674.2,975.6,1273.0,1466.3,1233.7,1072.9,13.0,0.0,-5.0,-7628.0,-12519.0,5421.0,4912.0,5.0,7.0,-8.0,-3.0,4.0,18.0,10941.0,10728.0,5136.0,2693.0,6.0,5.0,2.0,1.0
2022-05-06 15:34:03.087635-07:00,1781.0,558.6,1144.5,1327.8,994.5,1118.2,1184.1,1281.9,3440.7,3449.1,1492.1,1297.2,1368.5,3428.6,1009.0,1451.6,3428.6,3441.9,617.3,1223.9,830.2,492.5,1279.2,1652.0,3439.5,3433.4,674.2,975.6,1270.3,1466.3,1228.4,1068.6,12.0,-2.0,-9.0,-7630.0,-12518.0,5420.0,4913.0,4.0,1.0,-1.0,-5.0,8.0,11.0,10942.0,10727.0,5136.0,2694.0,4.0,1.0,2.0,1.0
2022-05-06 15:34:03.088814-07:00,1781.0,558.6,1144.5,1327.8,991.9,1126.1,1179.7,1273.9,3440.7,3449.1,1492.1,1297.2,1374.8,3438.2,1007.3,1453.4,3438.2,3439.5,614.1,1223.0,830.2,492.5,1279.2,1652.0,3449.1,3445.5,666.8,977.3,1270.3,1466.3,1228.4,1068.6,15.0,-1.0,-2.0,-7630.0,-12518.0,5420.0,4913.0,-2.0,-4.0,-4.0,-4.0,3.0,17.0,10942.0,10727.0,5136.0,2694.0,-1.0,-3.0,0.0,1.0
2022-05-06 15:34:03.147444-07:00,1786.8,562.6,1137.5,1328.7,991.9,1126.1,1179.7,1285.5,3443.1,3435.8,1486.6,1295.4,1374.8,3438.2,1007.3,1453.4,3435.8,3439.5,614.1,1223.0,829.4,492.5,1278.3,1650.2,3445.5,3445.5,666.8,977.3,1266.7,1458.0,1222.2,1067.7,17.0,3.0,-2.0,-7630.0,-12518.0,5420.0,4913.0,6.0,-2.0,0.0,-6.0,7.0,15.0,10941.0,10728.0,5136.0,2694.0,10.0,5.0,-1.0,1.0
2022-05-06 15:34:03.207329-07:00,1771.4,562.6,1137.5,1328.7,996.2,1105.1,1202.7,1285.5,3440.7,3435.8,1486.6,1295.4,1371.2,3435.8,1011.6,1453.4,3435.8,3439.5,618.1,1220.4,829.4,492.5,1278.3,1652.0,3445.5,3443.1,679.9,972.2,1266.7,1458.0,1222.2,1066.0,14.0,-9.0,-2.0,-7630.0,-12518.0,5420.0,4913.0,-1.0,3.0,-8.0,0.0,-4.0,15.0,10941.0,10729.0,5136.0,2693.0,4.0,2.0,-1.0,1.0
2022-05-06 15:34:03.237373-07:00,1771.4,556.2,1144.5,1333.2,996.2,1105.1,1202.7,1287.3,3440.7,3441.9,1494.9,1294.5,1371.2,3435.8,1011.6,1451.6,3429.8,3439.5,618.1,1220.4,831.1,493.2,1281.9,1652.0,3441.9,3443.1,679.9,972.2,1264.9,1471.8,1225.7,1066.0,16.0,0.0,-5.0,-7624.0,-12522.0,5422.0,4911.0,22.0,7.0,0.0,-7.0,7.0,8.0,10935.0,10735.0,5138.0,2690.0,22.0,0.0,0.0,1.0
2022-05-06 15:34:03.297399-07:00,1778.1,556.2,1144.5,1333.2,994.5,1106.9,1183.2,1287.3,3444.3,3441.9,1494.9,1294.5,1363.9,3439.5,1011.6,1451.6,3429.8,3438.2,615.7,1224.8,831.1,493.2,1281.9,1652.0,3441.9,3437.0,674.2,981.6,1264.9,1471.8,1225.7,1068.6,20.0,-3.0,-4.0,-7622.0,-12523.0,5423.0,4910.0,-9.0,-2.0,-1.0,-3.0,0.0,11.0,10933.0,10736.0,5138.0,2690.0,-7.0,-6.0,-1.0,1.0
2022-05-06 15:34:03.357072-07:00,1778.1,569.0,1154.2,1341.3,994.5,1106.9,1183.2,1280.1,3444.3,3440.7,1492.1,1297.2,1363.9,3439.5,1011.6,1456.2,3441.9,3438.2,615.7,1224.8,836.1,491.7,1281.9,1652.0,3444.3,3437.0,674.2,981.6,1268.5,1464.4,1222.2,1068.6,17.0,-1.0,-6.0,-7624.0,-12522.0,5422.0,4910.0,4.0,-9.0,-2.0,-1.0,-1.0,16.0,10935.0,10735.0,5138.0,2690.0,6.0,-1.0,0.0,1.0
2022-05-06 15:34:03.387658-07:00,1782.0,569.0,1154.2,1341.3,998.7,1105.1,1186.7,1280.1,3433.4,3440.7,1492.1,1297.2,1372.1,3438.2,1011.6,1456.2,3441.9,3441.9,615.7,1224.8,836.1,491.7,1281.9,1646.4,3444.3,3444.3,672.5,975.6,1268.5,1464.4,1222.2,1061.7,15.0,1.0,-3.0,-7625.0,-12521.0,5422.0,4911.0,-17.0,7.0,1.0,-3.0,-2.0,12.0,10935.0,10735.0,5138.0,2690.0,-14.0,-1.0,0.0,1.0
2022-05-06 15:34:03.477448-07:00,1782.0,561.0,1146.3,1335.9,998.7,1105.1,1204.4,1282.8,3433.4,3439.5,1502.3,1301.6,1372.1,3438.2,1011.6,1447.9,3435.8,3439.5,615.7,1224.8,830.2,493.2,1281.0,1646.4,3444.3,3438.2,672.5,975.6,1273.0,1467.2,1221.3,1061.7,15.0,0.0,-3.0,-7626.0,-12522.0,5420.0,4908.0,8.0,3.0,-6.0,-1.0,0.0,11.0,10935.0,10735.0,5138.0,2690.0,6.0,3.0,2.0,1.0
2022-05-06 15:34:03.507797-07:00,1776.2,561.0,1146.3,1335.9,991.0,1112.1,1204.4,1282.8,3439.5,3434.6,1502.3,1301.6,1363.9,3443.1,1011.6,1447.9,3435.8,3439.5,621.4,1225.7,830.2,493.2,1282.8,1649.2,3444.3,3438.2,677.4,973.9,1273.0,1467.2,1228.4,1066.9,16.0,-6.0,-3.0,-7626.0,-12522.0,5420.0,4908.0,-8.0,2.0,2.0,0.0,0.0,11.0,10935.0,10735.0,5138.0,2690.0,4.0,-2.0,3.0,1.0
2022-05-06 15:34:03.537421-07:00,1776.2,561.0,1141.9,1335.9,991.0,1112.1,1186.7,1282.8,3439.5,3434.6,1493.0,1298.1,1363.9,3443.1,1013.3,1457.1,3429.8,3438.2,621.4,1225.7,830.2,492.5,1282.8,1649.2,3438.2,3438.2,677.4,973.9,1264.9,1468.1,1228.4,1066.9,15.0,-1.0,-7.0,-7626.0,-12522.0,5420.0,4908.0,-2.0,0.0,1.0,-1.0,-1.0,12.0,10935.0,10735.0,5138.0,2690.0,2.0,-2.0,4.0,1.0
2022-05-06 15:34:03.628245-07:00,1779.1,556.2,1141.9,1335.9,991.0,1104.3,1186.7,1282.8,3444.3,3438.2,1493.0,1298.1,1364.8,3440.7,1013.3,1457.1,3429.8,3438.2,614.1,1223.0,830.2,492.5,1279.2,1659.6,3438.2,3438.2,676.6,973.1,1264.9,1468.1,1227.5,1062.5,13.0,-3.0,-2.0,-7626.0,-12522.0,5420.0,4908.0,-4.0,3.0,-1.0,-2.0,3.0,17.0,10935.0,10735.0,5138.0,2690.0,-3.0,0.0,1.0,1.0
2022-05-06 15:34:03.657372-07:00,1779.1,556.2,1145.4,1331.4,991.0,1104.3,1191.2,1284.6,3444.3,3438.2,1492.1,1306.1,1364.8,3440.7,1011.6,1446.0,3432.2,3434.6,614.1,1223.0,831.1,494.0,1279.2,1659.6,3437.0,3440.7,676.6,973.1,1267.6,1467.2,1227.5,1062.5,16.0,3.0,0.0,-7629.0,-12521.0,5419.0,4909.0,1.0,-5.0,3.0,0.0,0.0,14.0,10935.0,10735.0,5138.0,2690.0,-3.0,-9.0,-1.0,1.0
2022-05-06 15:34:03.717363-07:00,1777.2,563.4,1157.7,1331.4,992.7,1107.8,1191.2,1284.6,3435.8,3444.3,1496.7,1306.1,1370.3,3441.9,1011.6,1446.0,3432.2,3434.6,613.3,1223.9,831.1,486.1,1282.8,1658.7,3437.0,3440.7,672.5,977.3,1267.6,1463.5,1228.4,1066.9,13.0,-6.0,-2.0,-7629.0,-12520.0,5419.0,4910.0,-10.0,9.0,-4.0,-3.0,0.0,15.0,10935.0,10735.0,5138.0,2690.0,-6.0,4.0,4.0,1.0
2022-05-06 15:34:03.747346-07:00,1777.2,563.4,1157.7,1340.4,992.7,1111.2,1186.7,1283.7,3435.8,3444.3,1496.7,1294.5,1370.3,3443.1,1012.5,1453.4,3437.0,3440.7,617.3,1223.9,826.0,486.1,1282.8,1658.7,3440.7,3439.5,672.5,977.3,1270.3,1463.5,1228.4,1066.9,16.0,-2.0,-5.0,-7629.0,-12521.0,5418.0,4908.0,9.0,-3.0,-2.0,-2.0,7.0,9.0,10933.0,10736.0,5138.0,2690.0,9.0,0.0,0.0,1.0
2022-05-06 15:34:03.837653-07:00,1782.9,557.0,1147.1,1340.4,993.6,1111.2,1186.7,1283.7,3437.0,3437.0,1494.9,1294.5,1373.0,3443.1,1012.5,1453.4,3437.0,3440.7,617.3,1223.0,826.0,486.1,1286.4,1648.3,3440.7,3439.5,672.5,974.8,1270.3,1464.4,1222.2,1062.5,17.0,-5.0,-3.0,-7629.0,-12521.0,5418.0,4908.0,0.0,1.0,5.0,-1.0,0.0,17.0,10933.0,10736.0,5138.0,2690.0,6.0,-6.0,3.0,1.0
2022-05-06 15:34:03.839265-07:00,1782.9,557.0,1147.1,1334.1,993.6,1112.1,1182.3,1287.3,3437.0,3437.0,1494.9,1290.9,1373.0,3437.0,1009.9,1447.0,3441.9,3432.2,616.5,1223.0,830.2,486.1,1286.4,1648.3,3439.5,3433.4,675.0,974.8,1259.6,1464.4,1222.2,1062.5,19.0,0.0,-3.0,-7627.0,-12522.0,5419.0,4907.0,-1.0,2.0,-5.0,-3.0,4.0,13.0,10931.0,10738.0,5139.0,2689.0,0.0,0.0,-2.0,1.0
2022-05-06 15:34:03.897870-07:00,1782.9,564.2,1144.5,1334.1,988.5,1112.1,1182.3,1287.3,3437.0,3432.2,1496.7,1290.9,1369.4,3437.0,1009.9,1447.0,3441.9,3432.2,616.5,1226.6,830.2,491.7,1278.3,1647.3,3439.5,3433.4,675.0,973.1,1259.6,1465.4,1244.4,1073.8,14.0,-8.0,-5.0,-7628.0,-12522.0,5419.0,4907.0,-2.0,-1.0,4.0,0.0,2.0,9.0,10931.0,10738.0,5139.0,2689.0,3.0,0.0,6.0,1.0
2022-05-06 15:34:04.047353-07:00,1782.9,564.2,1144.5,1335.0,999.6,1105.1,1186.7,1286.4,3437.0,3432.2,1496.7,1300.7,1369.4,3429.8,1010.8,1451.6,3428.6,3438.2,616.5,1229.3,829.4,491.7,1278.3,1647.3,3447.9,3444.3,675.0,971.3,1267.6,1465.4,1244.4,1073.8,19.0,-4.0,-2.0,-7630.0,-12521.0,5418.0,4908.0,-15.0,-3.0,-1.0,1.0,1.0,13.0,10932.0,10737.0,5138.0,2689.0,-11.0,0.0,4.0,1.0
2022-05-06 15:34:04.107290-07:00,1792.6,555.4,1143.6,1333.2,999.6,1105.1,1186.7,1286.4,3437.0,3441.9,1498.6,1295.4,1369.4,3429.8,1010.8,1451.6,3428.6,3438.2,616.5,1229.3,828.5,494.0,1277.4,1641.6,3447.9,3444.3,675.0,971.3,1268.5,1468.1,1224.8,1067.7,15.0,2.0,0.0,-7631.0,-12521.0,5417.0,4908.0,4.0,-4.0,5.0,1.0,0.0,20.0,10933.0,10736.0,5138.0,2690.0,1.0,-2.0,5.0,1.0
2022-05-06 15:34:04.109208-07:00,1792.6,555.4,1143.6,1333.2,997.9,1117.4,1186.7,1268.5,3437.0,3441.9,1498.6,1295.4,1371.2,3435.8,1009.9,1452.5,3434.6,3433.4,612.5,1222.2,828.5,494.0,1277.4,1641.6,3438.2,3443.1,672.5,975.6,1268.5,1468.1,1224.8,1067.7,13.0,-4.0,-7.0,-7637.0,-12518.0,5415.0,4908.0,-16.0,7.0,-1.0,-7.0,0.0,16.0,10936.0,10733.0,5138.0,2691.0,-11.0,-2.0,2.0,1.0
2022-05-06 15:34:04.137907-07:00,1774.3,568.2,1143.6,1334.1,997.9,1117.4,1186.7,1268.5,3440.7,3438.2,1485.6,1294.5,1371.2,3435.8,1009.9,1452.5,3434.6,3433.4,612.5,1222.2,834.4,490.1,1281.0,1648.3,3438.2,3443.1,672.5,975.6,1264.9,1462.6,1226.6,1066.0,21.0,-1.0,-1.0,-7634.0,-12520.0,5416.0,4907.0,12.0,2.0,-4.0,0.0,7.0,13.0,10933.0,10736.0,5138.0,2690.0,5.0,-2.0,0.0,1.0
2022-05-06 15:34:04.139145-07:00,1774.3,568.2,1143.6,1334.1,989.3,1110.4,1186.7,1279.2,3440.7,3438.2,1485.6,1294.5,1367.6,3431.0,1009.9,1459.8,3438.2,3431.0,614.9,1216.8,834.4,490.1,1281.0,1648.3,3449.1,3438.2,674.2,974.8,1264.9,1462.6,1226.6,1066.0,13.0,-7.0,-3.0,-7637.0,-12520.0,5413.0,4906.0,8.0,6.0,8.0,-1.0,-5.0,19.0,10932.0,10737.0,5139.0,2689.0,18.0,4.0,5.0,1.0
2022-05-06 15:34:04.197252-07:00,1787.8,553.0,1148.0,1333.2,989.3,1110.4,1186.7,1279.2,3445.5,3433.4,1495.8,1299.8,1367.6,3431.0,1009.9,1459.8,3438.2,3431.0,614.9,1216.8,833.6,483.0,1277.4,1662.5,3449.1,3438.2,674.2,974.8,1263.1,1463.5,1219.5,1063.4,19.0,1.0,-2.0,-7633.0,-12522.0,5415.0,4904.0,-12.0,8.0,-11.0,0.0,7.0,13.0,10930.0,10740.0,5139.0,2688.0,-8.0,3.0,-5.0,1.0
2022-05-06 15:34:04.257277-07:00,1779.1,553.0,1148.0,1333.2,991.9,1107.8,1188.5,1287.3,3431.0,3433.4,1495.8,1299.8,1370.3,3443.1,1009.9,1448.8,3433.4,3433.4,614.9,1225.7,833.6,483.0,1277.4,1648.3,3444.3,3443.1,678.2,973.1,1263.1,1463.5,1219.5,1066.9,18.0,-5.0,-3.0,-7633.0,-12522.0,5412.0,4906.0,16.0,6.0,4.0,-1.0,2.0,13.0,10928.0,10741.0,5139.0,2687.0,12.0,3.0,4.0,1.0
2022-05-06 15:34:04.317359-07:00,1779.1,556.2,1147.1,1335.9,991.9,1107.8,1188.5,1280.1,3431.0,3433.4,1490.3,1296.3,1370.3,3443.1,1009.9,1453.4,3434.6,3433.4,614.9,1225.7,833.6,493.2,1277.4,1648.3,3447.9,3443.1,678.2,973.1,1263.1,1462.6,1220.4,1066.9,16.0,-1.0,-5.0,-7633.0,-12523.0,5412.0,4905.0,-9.0,0.0,-4.0,-2.0,0.0,13.0,10928.0,10741.0,5139.0,2687.0,4.0,2.0,-2.0,1.0
2022-05-06 15:34:04.407331-07:00,1780.1,556.2,1147.1,1335.9,1001.3,1106.0,1183.2,1280.1,3439.5,3433.4,1490.3,1296.3,1372.1,3431.0,1007.3,1453.4,3434.6,3434.6,615.7,1222.2,833.6,493.2,1277.4,1641.6,3447.9,3439.5,672.5,977.3,1263.1,1462.6,1220.4,1069.5,19.0,-6.0,0.0,-7631.0,-12524.0,5413.0,4904.0,-3.0,10.0,2.0,-3.0,4.0,12.0,10928.0,10742.0,5140.0,2687.0,-5.0,-1.0,3.0,1.0
2022-05-06 15:34:04.409723-07:00,1780.1,556.2,1141.0,1327.8,1001.3,1106.0,1183.2,1284.6,3439.5,3446.7,1481.9,1291.8,1372.1,3431.0,1007.3,1446.0,3435.8,3434.6,615.7,1222.2,833.6,492.5,1277.4,1641.6,3449.1,3439.5,672.5,977.3,1285.5,1464.4,1224.8,1069.5,15.0,0.0,-6.0,-7640.0,-12523.0,5409.0,4899.0,-1.0,12.0,8.0,-1.0,0.0,12.0,10930.0,10740.0,5139.0,2689.0,11.0,4.0,6.0,1.0
2022-05-06 15:34:04.437412-07:00,1778.1,556.2,1141.0,1327.8,989.3,1108.6,1181.5,1284.6,3447.9,3446.7,1481.9,1291.8,1366.6,3445.5,1019.4,1446.0,3435.8,3439.5,619.7,1219.5,833.6,492.5,1277.4,1653.9,3449.1,3445.5,673.3,968.8,1285.5,1464.4,1224.8,1062.5,17.0,-3.0,-5.0,-7638.0,-12524.0,5410.0,4897.0,-4.0,-7.0,-4.0,1.0,0.0,14.0,10928.0,10742.0,5139.0,2688.0,-9.0,1.0,0.0,1.0
2022-05-06 15:34:04.617926-07:00,1778.1,577.8,1154.2,1332.3,989.3,1108.6,1186.7,1282.8,3447.9,3439.5,1493.0,1295.4,1366.6,3445.5,1008.2,1456.2,3435.8,3435.8,619.7,1219.5,831.9,486.1,1281.9,1653.9,3449.1,3434.6,673.3,968.8,1271.2,1470.9,1223.0,1062.5,16.0,-9.0,0.0,-7641.0,-12522.0,5408.0,4898.0,4.0,5.0,2.0,0.0,-2.0,18.0,10929.0,10740.0,5139.0,2688.0,14.0,0.0,2.0,1.0
2022-05-06 15:34:04.647878-07:00,1783.9,563.4,1154.2,1332.3,991.9,1108.6,1186.7,1282.8,3433.4,3441.9,1493.0,1295.4,1373.0,3449.1,1008.2,1456.2,3435.8,3435.8,615.7,1226.6,831.9,486.1,1277.4,1664.4,3449.1,3434.6,670.1,973.1,1271.2,1470.9,1224.8,1064.3,19.0,0.0,-1.0,-7638.0,-12523.0,5410.0,4899.0,-5.0,-1.0,-12.0,0.0,5.0,14.0,10928.0,10741.0,5139.0,2688.0,-12.0,1.0,-4.0,1.0
2022-05-06 15:34:04.677983-07:00,1783.9,563.4,1150.6,1330.5,991.9,1108.6,1185.9,1291.8,3433.4,3441.9,1488.4,1298.1,1373.0,3449.1,1007.3,1451.6,3432.2,3434.6,615.7,1226.6,827.7,486.1,1277.4,1664.4,3431.0,3449.1,670.1,973.1,1267.6,1459.8,1224.8,1064.3,17.0,-1.0,-6.0,-7640.0,-12524.0,5407.0,4898.0,13.0,5.0,5.0,-2.0,-1.0,16.0,10926.0,10744.0,5140.0,2687.0,14.0,3.0,4.0,1.0
2022-05-06 15:34:04.680827-07:00,1783.9,549.8,1150.6,1330.5,989.3,1112.1,1185.9,1291.8,3440.7,3431.0,1488.4,1298.1,1367.6,3440.7,1007.3,1451.6,3432.2,3434.6,616.5,1228.4,827.7,486.1,1281.0,1648.3,3431.0,3449.1,678.2,973.9,1267.6,1459.8,1220.4,1062.5,17.0,-1.0,-5.0,-7639.0,-12524.0,5407.0,4898.0,2.0,0.0,-6.0,1.0,-4.0,18.0,10926.0,10744.0,5140.0,2687.0,6.0,1.0,-2.0,1.0
2022-05-06 15:34:04.681723-07:00,1783.9,549.8,1146.3,1330.5,989.3,1112.1,1181.5,1282.8,3440.7,3431.0,1486.6,1301.6,1367.6,3440.7,1009.0,1456.2,3428.6,3437.0,616.5,1228.4,833.6,487.7,1281.0,1648.3,3438.2,3449.1,678.2,973.9,1265.8,1462.6,1220.4,1062.5,19.0,-6.0,-2.0,-7639.0,-12524.0,5407.0,4898.0,-17.0,13.0,1.0,0.0,1.0,12.0,10925.0,10744.0,5140.0,2687.0,-14.0,-1.0,4.0,1.0
2022-05-06 15:34:04.737885-07:00,1780.1,560.2,1141.0,1330.5,986.7,1106.0,1181.5,1282.8,3433.4,3433.4,1494.9,1301.6,1363.9,3435.8,1009.0,1456.2,3428.6,3437.0,614.1,1223.0,833.6,492.5,1284.6,1650.2,3438.2,3449.1,674.2,966.2,1265.8,1466.3,1225.7,1067.7,14.0,6.0,-10.0,-7641.0,-12525.0,5405.0,4895.0,4.0,-1.0,-8.0,-5.0,6.0,14.0,10925.0,10745.0,5140.0,2686.0,6.0,2.0,0.0,1.0
2022-05-06 15:34:04.797954-07:00,1780.1,560.2,1141.0,1332.3,986.7,1104.3,1187.6,1279.2,3433.4,3433.4,1494.9,1292.7,1363.9,3441.9,1021.9,1452.5,3432.2,3439.5,618.9,1223.0,826.0,492.5,1284.6,1650.2,3435.8,3433.4,669.3,966.2,1259.6,1466.3,1225.7,1067.7,22.0,-8.0,-3.0,-7644.0,-12523.0,5404.0,4896.0,-14.0,10.0,8.0,2.0,-1.0,10.0,10927.0,10743.0,5139.0,2687.0,-14.0,-8.0,1.0,1.0
2022-05-06 15:34:04.828035-07:00,1780.1,554.6,1137.5,1332.3,986.7,1104.3,1187.6,1279.2,3433.4,3438.2,1490.3,1292.7,1362.1,3441.9,1021.9,1452.5,3432.2,3439.5,618.9,1221.3,826.0,491.7,1281.9,1654.9,3435.8,3433.4,669.3,969.6,1259.6,1464.4,1224.8,1084.2,19.0,8.0,-5.0,-7646.0,-12523.0,5404.0,4894.0,-4.0,-4.0,-6.0,1.0,4.0,18.0,10927.0,10743.0,5139.0,2687.0,1.0,-1.0,-4.0,1.0
2022-05-06 15:34:04.887423-07:00,1780.1,554.6,1137.5,1330.5,986.7,1102.5,1177.9,1277.4,3433.4,3438.2,1490.3,1296.3,1362.1,3434.6,1007.3,1454.3,3434.6,3427.4,615.7,1221.3,826.0,491.7,1281.9,1654.9,3444.3,3439.5,670.9,969.6,1269.4,1464.4,1224.8,1084.2,15.0,-9.0,-3.0,-7646.0,-12523.0,5404.0,4894.0,6.0,-2.0,0.0,-3.0,3.0,15.0,10927.0,10743.0,5139.0,2687.0,6.0,-1.0,-2.0,1.0
2022-05-06 15:34:04.947901-07:00,1775.2,573.0,1143.6,1330.5,995.3,1102.5,1177.9,1277.4,3438.2,3438.2,1495.8,1296.3,1359.4,3434.6,1007.3,1454.3,3434.6,3427.4,615.7,1223.0,826.0,490.1,1280.1,1650.2,3444.3,3439.5,670.9,973.1,1269.4,1463.5,1216.8,1062.5,18.0,-2.0,-4.0,-7649.0,-12522.0,5403.0,4895.0,-18.0,5.0,-7.0,2.0,0.0,17.0,10927.0,10742.0,5139.0,2687.0,-10.0,-2.0,-1.0,1.0
2022-05-06 15:34:05.007391-07:00,1775.2,573.0,1143.6,1339.5,995.3,1114.7,1177.0,1275.6,3438.2,3438.2,1495.8,1299.0,1359.4,3439.5,1008.2,1451.6,3432.2,3432.2,618.9,1223.0,831.9,490.1,1280.1,1650.2,3438.2,3441.9,676.6,973.1,1269.4,1463.5,1216.8,1062.5,17.0,4.0,-5.0,-7647.0,-12522.0,5403.0,4894.0,19.0,0.0,2.0,-4.0,5.0,16.0,10926.0,10743.0,5139.0,2687.0,18.0,7.0,1.0,1.0
2022-05-06 15:34:05.157377-07:00,1775.2,564.2,1144.5,1332.3,987.6,1114.7,1177.0,1275.6,3429.8,3438.2,1482.9,1295.4,1364.8,3439.5,1008.2,1451.6,3432.2,3432.2,618.9,1221.3,833.6,493.2,1273.9,1644.5,3438.2,3441.9,676.6,971.3,1267.6,1462.6,1223.9,1062.5,19.0,-11.0,-3.0,-7651.0,-12520.0,5402.0,4896.0,-21.0,-2.0,-1.0,1.0,-5.0,15.0,10927.0,10742.0,5139.0,2688.0,-13.0,-2.0,1.0,1.0
2022-05-06 15:34:05.218110-07:00,1775.2,564.2,1144.5,1332.3,991.9,1120.9,1185.9,1282.8,3429.8,3438.2,1482.9,1295.4,1368.5,3428.6,1015.1,1448.8,3432.2,3439.5,614.1,1219.5,833.6,493.2,1273.9,1644.5,3437.0,3439.5,670.9,979.0,1267.6,1462.6,1223.9,1062.5,20.0,-7.0,0.0,-7651.0,-12520.0,5401.0,4896.0,-1.0,3.0,-9.0,1.0,0.0,18.0,10927.0,10742.0,5139.0,2688.0,0.0,2.0,-5.0,1.0
2022-05-06 15:34:05.219133-07:00,1783.9,573.0,1145.4,1334.1,991.9,1120.9,1185.9,1282.8,3441.9,3440.7,1492.1,1293.6,1368.5,3428.6,1015.1,1448.8,3432.2,3439.5,614.1,1219.5,831.1,496.4,1280.1,1645.4,3437.0,3439.5,670.9,979.0,1263.1,1459.8,1225.7,1064.3,17.0,-2.0,-5.0,-7653.0,-12519.0,5403.0,4894.0,2.0,6.0,12.0,-4.0,4.0,15.0,10927.0,10742.0,5139.0,2688.0,0.0,-3.0,6.0,1.0
2022-05-06 15:34:05.307464-07:00,1783.9,573.0,1145.4,1334.1,988.5,1100.8,1185.0,1280.1,3441.9,3440.7,1492.1,1293.6,1371.2,3435.8,1007.3,1450.6,3439.5,3446.7,613.3,1224.8,831.1,496.4,1280.1,1645.4,3439.5,3446.7,676.6,973.1,1263.1,1459.8,1225.7,1064.3,19.0,-4.0,-4.0,-7650.0,-12520.0,5400.0,4899.0,6.0,-11.0,-20.0,0.0,0.0,15.0,10927.0,10742.0,5139.0,2688.0,3.0,5.0,-6.0,1.0
2022-05-06 15:34:05.309334-07:00,1781.0,556.2,1140.1,1331.4,988.5,1100.8,1185.0,1280.1,3443.1,3443.1,1492.1,1300.7,1371.2,3435.8,1007.3,1450.6,3439.5,3446.7,613.3,1224.8,831.1,490.9,1278.3,1644.5,3439.5,3446.7,676.6,973.1,1278.3,1465.4,1222.2,1059.9,16.0,-5.0,-6.0,-7651.0,-12521.0,5398.0,4898.0,-14.0,14.0,5.0,-2.0,1.0,17.0,10928.0,10742.0,5140.0,2687.0,-4.0,2.0,1.0,1.0
2022-05-06 15:34:05.310450-07:00,1780.1,556.2,1140.1,1331.4,991.0,1103.4,1187.6,1281.0,3443.1,3443.1,1492.1,1300.7,1365.7,3431.0,1009.0,1453.4,3439.5,3438.2,612.5,1225.7,831.1,490.9,1278.3,1647.3,3444.3,3440.7,674.2,973.9,1278.3,1465.4,1222.2,1064.3,18.0,0.0,-9.0,-7650.0,-12522.0,5397.0,4897.0,14.0,-8.0,-12.0,0.0,4.0,11.0,10927.0,10742.0,5140.0,2687.0,11.0,1.0,-4.0,1.0
2022-05-06 15:34:05.337183-07:00,1780.1,553.0,1139.2,1334.1,991.0,1103.4,1187.6,1273.9,3443.1,3444.3,1494.0,1291.8,1365.7,3431.0,1009.0,1455.2,3444.3,3438.2,612.5,1225.7,831.9,488.5,1275.6,1647.3,3443.1,3440.7,674.2,973.9,1263.1,1464.4,1220.4,1064.3,13.0,-8.0,-4.0,-7652.0,-12521.0,5395.0,4899.0,-24.0,4.0,3.0,-2.0,0.0,13.0,10929.0,10741.0,5139.0,2688.0,-17.0,-6.0,0.0,1.0
2022-05-06 15:34:05.428470-07:00,1780.1,553.0,1139.2,1334.1,987.6,1107.8,1182.3,1273.9,3439.5,3444.3,1494.0,1291.8,1365.7,3435.8,1007.3,1455.2,3444.3,3435.8,615.7,1219.5,831.9,488.5,1275.6,1652.0,3443.1,3441.9,676.6,966.2,1263.1,1464.4,1220.4,1066.0,21.0,2.0,-4.0,-7652.0,-12520.0,5396.0,4902.0,9.0,-14.0,-5.0,1.0,3.0,15.0,10930.0,10740.0,5139.0,2688.0,2.0,-2.0,-2.0,1.0
2022-05-06 15:34:05.457314-07:00,1780.1,565.0,1145.4,1345.8,987.6,1107.8,1182.3,1280.1,3439.5,3434.6,1491.2,1299.8,1365.7,3435.8,1007.3,1447.9,3438.2,3435.8,615.7,1219.5,827.7,494.8,1277.4,1652.0,3438.2,3441.9,676.6,966.2,1271.2,1464.4,1224.8,1066.0,15.0,-5.0,-3.0,-7653.0,-12521.0,5393.0,4901.0,-6.0,13.0,-4.0,-1.0,-1.0,20.0,10930.0,10740.0,5139.0,2688.0,-3.0,1.0,4.0,1.0
2022-05-06 15:34:05.487421-07:00,1784.9,565.0,1145.4,1345.8,996.2,1117.4,1184.1,1280.1,3441.9,3434.6,1491.2,1299.8,1369.4,3437.0,1009.0,1447.9,3438.2,3438.2,611.7,1223.9,827.7,494.8,1277.4,1645.4,3438.2,3440.7,676.6,964.5,1271.2,1464.4,1224.8,1064.3,19.0,-4.0,-2.0,-7652.0,-12521.0,5392.0,4902.0,-8.0,9.0,-10.0,-1.0,-3.0,14.0,10930.0,10740.0,5139.0,2688.0,-6.0,1.0,-2.0,1.0
2022-05-06 15:34:05.547359-07:00,1784.9,561.8,1130.5,1337.7,996.2,1117.4,1184.1,1276.5,3441.9,3437.0,1486.6,1296.3,1369.4,3437.0,1009.0,1456.2,3445.5,3438.2,611.7,1223.9,827.7,494.8,1279.2,1645.4,3439.5,3440.7,676.6,964.5,1263.1,1464.4,1224.8,1064.3,17.0,0.0,-9.0,-7655.0,-12520.0,5393.0,4899.0,3.0,2.0,7.0,-1.0,4.0,17.0,10931.0,10738.0,5139.0,2689.0,5.0,-1.0,2.0,1.0
2022-05-06 15:34:05.577625-07:00,1783.9,557.0,1130.5,1337.7,991.9,1100.8,1174.4,1276.5,3447.9,3440.7,1486.6,1296.3,1375.7,3444.3,1003.9,1456.2,3445.5,3431.0,621.4,1225.7,827.7,494.8,1281.9,1653.9,3439.5,3439.5,674.2,971.3,1263.1,1464.4,1221.3,1065.1,21.0,-10.0,0.0,-7656.0,-12518.0,5398.0,4898.0,-13.0,-9.0,0.0,0.0,-3.0,15.0,10932.0,10737.0,5139.0,2689.0,-7.0,-4.0,-3.0,1.0
2022-05-06 15:34:05.638053-07:00,1783.9,557.0,1139.2,1329.6,991.9,1100.8,1185.9,1279.2,3447.9,3440.7,1490.3,1302.5,1375.7,3444.3,1010.8,1449.7,3428.6,3433.4,621.4,1225.7,834.4,492.5,1281.9,1653.9,3438.2,3445.5,674.2,971.3,1270.3,1464.4,1221.3,1065.1,16.0,1.0,-1.0,-7658.0,-12518.0,5399.0,4893.0,3.0,13.0,-6.0,-2.0,4.0,15.0,10932.0,10737.0,5139.0,2689.0,4.0,4.0,-1.0,1.0
2022-05-06 15:34:05.727560-07:00,1790.7,561.0,1139.2,1329.6,991.9,1116.5,1185.9,1279.2,3433.4,3432.2,1490.3,1302.5,1369.4,3433.4,1010.8,1449.7,3428.6,3433.4,612.5,1224.8,834.4,492.5,1281.0,1645.4,3438.2,3445.5,679.9,974.8,1270.3,1464.4,1220.4,1067.7,14.0,-3.0,-7.0,-7658.0,-12518.0,5401.0,4890.0,11.0,4.0,-6.0,-2.0,0.0,15.0,10932.0,10737.0,5139.0,2689.0,11.0,2.0,-2.0,1.0
2022-05-06 15:34:05.757259-07:00,1790.7,561.0,1148.9,1339.5,991.9,1116.5,1189.4,1296.3,3433.4,3432.2,1490.3,1287.3,1369.4,3433.4,1011.6,1444.2,3428.6,3440.7,612.5,1224.8,835.2,495.6,1281.0,1645.4,3439.5,3445.5,679.9,974.8,1268.5,1458.9,1220.4,1067.7,18.0,-5.0,-4.0,-7660.0,-12517.0,5403.0,4887.0,-25.0,-5.0,-3.0,3.0,2.0,11.0,10932.0,10737.0,5139.0,2689.0,-19.0,-2.0,1.0,1.0
2022-05-06 15:34:05.787487-07:00,1788.7,558.6,1148.9,1339.5,992.7,1106.9,1189.4,1296.3,3439.5,3443.1,1490.3,1287.3,1364.8,3441.9,1011.6,1444.2,3428.6,3440.7,614.9,1216.8,835.2,495.6,1275.6,1651.1,3439.5,3445.5,679.9,970.5,1268.5,1458.9,1224.8,1055.6,17.0,3.0,-5.0,-7662.0,-12515.0,5406.0,4886.0,8.0,-12.0,-1.0,-3.0,2.0,16.0,10935.0,10735.0,5138.0,2690.0,2.0,-10.0,1.0,1.0
2022-05-06 15:34:05.847938-07:00,1788.7,558.6,1146.3,1331.4,992.7,1105.1,1185.0,1277.4,3439.5,3443.1,1488.4,1299.0,1364.8,3435.8,1011.6,1447.9,3439.5,3432.2,614.1,1216.8,828.5,496.4,1275.6,1651.1,3444.3,3440.7,670.1,970.5,1264.9,1474.6,1224.8,1055.6,16.0,-12.0,5.0,-7667.0,-12513.0,5407.0,4884.0,-9.0,10.0,5.0,1.0,-5.0,20.0,10937.0,10733.0,5137.0,2691.0,0.0,-5.0,4.0,1.0
2022-05-06 15:34:05.877478-07:00,1788.7,561.8,1141.0,1331.4,985.0,1105.1,1185.0,1277.4,3441.9,3439.5,1490.3,1299.0,1363.9,3435.8,1011.6,1447.9,3439.5,3432.2,614.1,1222.2,828.5,492.5,1285.5,1646.4,3444.3,3440.7,670.1,965.4,1264.9,1463.5,1221.3,1060.8,17.0,7.0,-5.0,-7666.0,-12515.0,5407.0,4881.0,-11.0,10.0,-20.0,0.0,9.0,13.0,10935.0,10735.0,5137.0,2690.0,-8.0,7.0,-4.0,1.0
2022-05-06 15:34:05.937397-07:00,1788.7,561.8,1141.0,1332.3,985.0,1106.0,1192.9,1280.1,3441.9,3439.5,1490.3,1296.3,1363.9,3433.4,1003.9,1449.7,3439.5,3427.4,613.3,1222.2,829.4,492.5,1285.5,1646.4,3441.9,3437.0,677.4,965.4,1264.9,1463.5,1221.3,1060.8,12.0,-5.0,-6.0,-7667.0,-12516.0,5405.0,4878.0,14.0,-7.0,3.0,-2.0,2.0,12.0,10935.0,10735.0,5137.0,2690.0,9.0,-4.0,0.0,1.0
2022-05-06 15:34:05.997393-07:00,1770.4,565.0,1142.7,1332.3,997.0,1106.0,1192.9,1280.1,3443.1,3439.5,1495.8,1296.3,1363.0,3433.4,1003.9,1449.7,3439.5,3427.4,613.3,1217.7,829.4,493.2,1276.5,1646.4,3441.9,3437.0,677.4,978.2,1264.9,1461.7,1222.2,1059.1,16.0,-3.0,-2.0,-7671.0,-12514.0,5406.0,4877.0,-23.0,3.0,2.0,0.0,2.0,18.0,10936.0,10733.0,5137.0,2690.0,-16.0,-5.0,2.0,1.0
2022-05-06 15:34:06.027904-07:00,1770.4,565.0,1142.7,1333.2,997.0,1113.0,1186.7,1277.4,3443.1,3439.5,1495.8,1296.3,1363.0,3435.8,1000.5,1447.9,3440.7,3431.0,616.5,1217.7,831.1,493.2,1276.5,1646.4,3444.3,3444.3,674.2,978.2,1264.9,1461.7,1222.2,1059.1,12.0,3.0,-3.0,-7670.0,-12514.0,5408.0,4874.0,9.0,1.0,-7.0,0.0,4.0,17.0,10937.0,10732.0,5137.0,2691.0,4.0,0.0,-1.0,1.0
2022-05-06 15:34:06.087342-07:00,1778.1,562.6,1144.5,1334.1,991.0,1113.0,1186.7,1277.4,3441.9,3438.2,1496.7,1292.7,1383.0,3435.8,1000.5,1447.9,3440.7,3431.0,616.5,1223.0,831.1,498.0,1280.1,1647.3,3444.3,3444.3,674.2,973.9,1266.7,1465.4,1206.2,1062.5,10.0,-6.0,-4.0,-7676.0,-12513.0,5406.0,4870.0,-9.0,14.0,5.0,-5.0,1.0,17.0,10939.0,10731.0,5136.0,2692.0,1.0,3.0,1.0,1.0
2022-05-06 15:34:06.147378-07:00,1778.1,562.6,1144.5,1334.1,992.7,1105.1,1191.2,1285.5,3441.9,3438.2,1496.7,1292.7,1367.6,3443.1,1012.5,1450.6,3439.5,3438.2,622.2,1225.7,831.1,498.0,1280.1,1647.3,3435.8,3444.3,676.6,970.5,1266.7,1465.4,1206.2,1062.5,15.0,0.0,-4.0,-7675.0,-12514.0,5408.0,4866.0,-1.0,-3.0,-7.0,4.0,-1.0,15.0,10938.0,10732.0,5137.0,2691.0,-4.0,2.0,-1.0,1.0
2022-05-06 15:34:06.177546-07:00,1780.1,557.0,1142.7,1329.6,992.7,1105.1,1191.2,1285.5,3441.9,3440.7,1491.2,1295.4,1367.6,3443.1,1012.5,1450.6,3439.5,3438.2,622.2,1225.7,834.4,493.2,1281.9,1650.2,3435.8,3444.3,676.6,970.5,1269.4,1462.6,1223.0,1055.6,14.0,-8.0,-3.0,-7674.0,-12514.0,5410.0,4867.0,0.0,2.0,2.0,-3.0,0.0,14.0,10938.0,10732.0,5137.0,2691.0,-1.0,-3.0,2.0,1.0
2022-05-06 15:34:06.237344-07:00,1780.1,557.0,1142.7,1329.6,996.2,1109.5,1179.7,1284.6,3441.9,3440.7,1491.2,1295.4,1363.0,3438.2,1011.6,1454.3,3435.8,3433.4,617.3,1219.5,834.4,493.2,1281.9,1650.2,3433.4,3438.2,679.9,974.8,1269.4,1462.6,1223.0,1055.6,14.0,4.0,-5.0,-7675.0,-12514.0,5410.0,4864.0,1.0,-5.0,-3.0,-1.0,2.0,11.0,10938.0,10732.0,5137.0,2691.0,7.0,1.0,-3.0,1.0
2022-05-06 15:34:06.297410-07:00,1783.9,559.4,1150.6,1329.6,996.2,1109.5,1179.7,1284.6,3444.3,3439.5,1486.6,1298.1,1363.0,3438.2,1011.6,1454.3,3435.8,3433.4,617.3,1219.5,831.1,494.8,1280.1,1645.4,3433.4,3438.2,679.9,974.8,1263.1,1448.8,1220.4,1071.2,14.0,-6.0,0.0,-7673.0,-12516.0,5409.0,4863.0,-3.0,-1.0,-10.0,-2.0,2.0,19.0,10938.0,10732.0,5137.0,2691.0,0.0,2.0,-3.0,1.0
2022-05-06 15:34:06.327570-07:00,1783.9,559.4,1150.6,1329.6,992.7,1111.2,1183.2,1290.0,3444.3,3439.5,1486.6,1298.1,1372.1,3440.7,1009.0,1447.9,3435.8,3434.6,620.5,1226.6,831.1,494.8,1280.1,1645.4,3432.2,3435.8,673.3,971.3,1263.1,1448.8,1220.4,1071.2,13.0,-7.0,-4.0,-7676.0,-12516.0,5409.0,4859.0,6.0,15.0,4.0,0.0,-2.0,16.0,10939.0,10731.0,5136.0,2692.0,8.0,6.0,5.0,1.0
2022-05-06 15:34:06.387250-07:00,1774.3,563.4,1150.6,1339.5,992.7,1111.2,1183.2,1278.3,3449.1,3432.2,1496.7,1298.1,1372.1,3440.7,1009.0,1454.3,3438.2,3434.6,620.5,1226.6,832.7,491.7,1278.3,1649.2,3451.6,3435.8,673.3,971.3,1266.7,1458.9,1221.3,1063.4,16.0,0.0,-6.0,-7672.0,-12518.0,5412.0,4857.0,2.0,-11.0,-12.0,0.0,2.0,14.0,10937.0,10732.0,5137.0,2691.0,5.0,-4.0,-3.0,1.0
