Time,P0,P1,P2,P3,P4,P5,P6,P7,P8,P9,P10,P11,P12,P13,P14,P15,P16,P17,P18,P19,P20,P21,P22,P23,P24,P25,P26,P27,P28,P29,P30,P31,ECG,AX0,AY0,AZ0,QW0,QX0,QY0,QZ0,GX0,GY0,GZ0,AX1,AY1,AZ1,QW1,QX1,QY1,QZ1,GX1,GY1,GZ1
2022-05-06 12:46:06.749245-07:00,1130.5,674.2,970.5,933.0,809.4,737.3,1647.3,1464.4,3473.4,3466.1,1014.2,815.2,1404.9,3474.6,1253.3,1221.3,3467.4,3477.1,314.4,578.6,916.9,1174.4,548.2,1583.3,3472.2,3474.6,614.9,711.0,1517.1,1020.2,934.7,818.5,3.0,-2.0,10.0,-808.0,2979.0,12654.0,-9939.0,34.0,-33.0,-27.0,8.0,-2.0,2.0,6736.0,-13705.0,5029.0,-3152.0,31.0,-3.0,-6.0,1.0
2022-05-06 12:46:06.809617-07:00,1131.4,669.3,976.5,933.0,796.0,737.3,1647.3,1464.4,3466.1,3467.4,1016.8,815.2,1400.3,3474.6,1253.3,1221.3,3467.4,3477.1,314.4,575.4,916.9,1176.2,542.6,1579.6,3472.2,3474.6,614.9,712.6,1517.1,1021.1,930.5,796.0,-3.0,-2.0,18.0,-806.0,2970.0,12649.0,-9948.0,-6.0,-4.0,6.0,1.0,-2.0,4.0,6742.0,-13703.0,5027.0,-3153.0,10.0,-5.0,-3.0,1.0
2022-05-06 12:46:06.840012-07:00,1131.4,669.3,976.5,928.8,796.0,728.2,1628.4,1459.8,3466.1,3467.4,1016.8,811.9,1400.3,3473.4,1252.4,1215.1,3471.0,3475.9,312.8,575.4,922.8,1176.2,542.6,1579.6,3478.3,3462.5,626.2,712.6,1519.0,1021.1,930.5,796.0,4.0,2.0,10.0,-808.0,2967.0,12648.0,-9950.0,-4.0,2.0,-27.0,2.0,-1.0,8.0,6742.0,-13703.0,5027.0,-3153.0,-1.0,3.0,-8.0,1.0
2022-05-06 12:46:06.900155-07:00,1124.4,673.3,980.7,928.8,801.0,728.2,1628.4,1459.8,3471.0,3466.1,1021.9,811.9,1401.2,3473.4,1252.4,1215.1,3471.0,3475.9,312.8,580.2,922.8,1176.2,539.4,1582.4,3478.3,3462.5,626.2,708.5,1519.0,1022.8,935.6,796.0,-2.0,1.0,10.0,-815.0,2957.0,12644.0,-9957.0,30.0,-10.0,-13.0,1.0,4.0,4.0,6747.0,-13701.0,5026.0,-3154.0,28.0,-6.0,-6.0,1.0
2022-05-06 12:46:06.959624-07:00,1124.4,673.3,980.7,918.6,801.0,724.9,1628.4,1457.1,3471.0,3466.1,1021.9,816.9,1401.2,3472.2,1254.2,1222.2,3480.7,3467.4,305.1,580.2,915.2,1176.2,539.4,1582.4,3466.1,3464.9,613.3,708.5,1511.5,1022.8,935.6,796.0,0.0,-3.0,23.0,-815.0,2955.0,12641.0,-9962.0,-9.0,-9.0,-4.0,7.0,-9.0,12.0,6748.0,-13700.0,5024.0,-3156.0,-8.0,1.0,-7.0,1.0
2022-05-06 12:46:07.019556-07:00,1129.6,675.8,973.9,932.2,802.7,724.9,1628.4,1457.1,3467.4,3468.6,1015.9,811.0,1400.3,3472.2,1254.2,1222.2,3480.7,3467.4,305.1,582.6,916.9,1177.0,542.6,1582.4,3466.1,3464.9,613.3,707.7,1519.0,1027.1,928.8,792.7,0.0,-3.0,16.0,-816.0,2954.0,12639.0,-9965.0,-5.0,15.0,1.0,0.0,-2.0,8.0,6749.0,-13700.0,5024.0,-3156.0,-4.0,-3.0,-5.0,1.0
2022-05-06 12:46:07.049436-07:00,1129.6,675.8,973.9,932.2,801.9,724.9,1630.3,1465.4,3467.4,3468.6,1015.9,811.0,1406.7,3467.4,1256.9,1212.4,3471.0,3480.7,309.0,580.2,916.9,1177.0,542.6,1582.4,3480.7,3478.3,610.0,705.2,1519.0,1027.1,928.8,792.7,-1.0,3.0,11.0,-823.0,2958.0,12634.0,-9969.0,-10.0,21.0,-10.0,6.0,-3.0,6.0,6751.0,-13698.0,5024.0,-3159.0,-10.0,11.0,-8.0,1.0
2022-05-06 12:46:07.139150-07:00,1128.7,666.0,975.6,933.0,801.9,724.9,1630.3,1465.4,3472.2,3478.3,1021.9,812.7,1406.7,3467.4,1256.9,1212.4,3471.0,3480.7,309.0,580.2,925.4,1174.4,541.8,1583.3,3480.7,3478.3,610.0,705.2,1526.4,1021.9,933.0,798.5,0.0,-8.0,11.0,-829.0,2955.0,12638.0,-9965.0,13.0,0.0,-17.0,2.0,-5.0,1.0,6746.0,-13700.0,5026.0,-3158.0,11.0,2.0,-3.0,1.0
2022-05-06 12:46:07.140673-07:00,1128.7,666.0,975.6,933.0,801.9,724.1,1629.4,1455.2,3472.2,3478.3,1021.9,812.7,1402.1,3464.9,1264.0,1213.3,3468.6,3474.6,315.1,580.2,925.4,1174.4,541.8,1583.3,3467.4,3480.7,615.7,707.7,1526.4,1021.9,933.0,798.5,7.0,3.0,12.0,-835.0,2948.0,12631.0,-9975.0,20.0,-12.0,-26.0,10.0,-2.0,7.0,6754.0,-13696.0,5024.0,-3161.0,11.0,-2.0,-1.0,1.0
2022-05-06 12:46:07.199569-07:00,1125.2,679.1,979.0,933.9,801.9,724.1,1629.4,1455.2,3474.6,3469.8,1015.9,811.0,1402.1,3464.9,1264.0,1213.3,3468.6,3474.6,315.1,580.2,920.3,1174.4,545.0,1574.9,3467.4,3480.7,615.7,707.7,1519.0,1025.4,930.5,797.7,-1.0,-10.0,17.0,-846.0,2932.0,12628.0,-9983.0,18.0,-5.0,-49.0,1.0,-5.0,6.0,6755.0,-13695.0,5023.0,-3165.0,10.0,12.0,-11.0,1.0
2022-05-06 12:46:07.229579-07:00,1123.5,679.1,979.0,933.9,805.2,724.9,1626.5,1451.6,3468.6,3469.8,1015.9,811.0,1406.7,3467.4,1254.2,1216.0,3477.1,3474.6,311.3,581.0,920.3,1174.4,545.0,1572.1,3478.3,3472.2,610.0,708.5,1519.0,1025.4,930.5,795.2,2.0,-7.0,17.0,-859.0,2919.0,12618.0,-9998.0,52.0,9.0,-17.0,4.0,-4.0,4.0,6768.0,-13689.0,5017.0,-3172.0,35.0,5.0,-6.0,1.0
2022-05-06 12:46:07.290436-07:00,1123.5,672.5,969.6,927.9,805.2,724.9,1626.5,1459.8,3468.6,3469.8,1016.8,811.9,1406.7,3467.4,1254.2,1222.2,3488.0,3474.6,311.3,581.0,916.0,1178.8,539.4,1572.1,3477.1,3472.2,610.0,708.5,1513.4,1021.1,934.7,795.2,3.0,-7.0,13.0,-864.0,2917.0,12606.0,-10014.0,4.0,2.0,7.0,6.0,-3.0,0.0,6775.0,-13684.0,5017.0,-3178.0,-6.0,6.0,1.0,1.0
2022-05-06 12:46:07.350146-07:00,1125.2,672.5,969.6,927.9,806.0,729.0,1628.4,1459.8,3464.9,3469.8,1016.8,811.9,1412.2,3471.0,1258.7,1222.2,3488.0,3467.4,312.0,578.6,916.0,1178.8,539.4,1573.9,3477.1,3474.6,614.9,708.5,1513.4,1021.1,934.7,791.0,2.0,4.0,10.0,-864.0,2924.0,12605.0,-10013.0,-18.0,6.0,13.0,5.0,0.0,3.0,6775.0,-13684.0,5017.0,-3178.0,-7.0,5.0,-2.0,1.0
2022-05-06 12:46:07.470265-07:00,1125.2,668.4,967.1,928.8,806.0,729.0,1628.4,1457.1,3464.9,3478.3,1017.6,808.5,1412.2,3471.0,1258.7,1216.8,3471.0,3467.4,312.0,578.6,922.0,1173.5,540.2,1573.9,3473.4,3474.6,614.9,708.5,1512.5,1016.8,934.7,791.0,0.0,2.0,8.0,-862.0,2925.0,12607.0,-10010.0,12.0,3.0,6.0,6.0,0.0,4.0,6774.0,-13685.0,5017.0,-3178.0,16.0,5.0,0.0,1.0
2022-05-06 12:46:07.471483-07:00,1129.6,668.4,967.1,928.8,797.7,728.2,1629.4,1457.1,3471.0,3478.3,1017.6,808.5,1405.8,3478.3,1252.4,1216.8,3471.0,3472.2,309.7,581.8,922.0,1173.5,540.2,1571.1,3473.4,3477.1,614.9,711.0,1512.5,1016.8,934.7,796.0,0.0,0.0,10.0,-862.0,2926.0,12608.0,-10009.0,-17.0,-8.0,10.0,9.0,-1.0,5.0,6775.0,-13684.0,5017.0,-3178.0,-8.0,-3.0,4.0,1.0
2022-05-06 12:46:07.499469-07:00,1129.6,668.4,981.6,929.6,797.7,728.2,1629.4,1446.0,3471.0,3467.4,1012.5,816.0,1405.8,3478.3,1252.4,1218.6,3478.3,3472.2,309.7,581.8,919.4,1169.1,544.2,1571.1,3481.9,3477.1,614.9,711.0,1514.3,1020.2,934.7,796.0,-2.0,-4.0,22.0,-858.0,2925.0,12613.0,-10002.0,-9.0,-4.0,1.0,4.0,-7.0,8.0,6770.0,-13687.0,5018.0,-3176.0,-8.0,-4.0,6.0,1.0
2022-05-06 12:46:07.529611-07:00,1124.4,673.3,981.6,929.6,803.5,724.1,1608.7,1446.0,3474.6,3467.4,1012.5,816.0,1405.8,3457.6,1252.4,1218.6,3478.3,3472.2,318.2,581.0,919.4,1169.1,537.0,1566.5,3481.9,3477.1,609.2,703.6,1514.3,1020.2,927.1,792.7,0.0,-3.0,13.0,-859.0,2925.0,12610.0,-10007.0,16.0,9.0,-4.0,4.0,-1.0,3.0,6775.0,-13685.0,5017.0,-3178.0,9.0,0.0,6.0,1.0
2022-05-06 12:46:07.589702-07:00,1124.4,673.3,969.6,936.4,803.5,724.1,1615.2,1451.6,3474.6,3467.4,1016.8,810.2,1405.8,3457.6,1252.4,1215.1,3475.9,3474.6,318.2,581.0,909.3,1179.7,537.0,1566.5,3481.9,3475.9,609.2,703.6,1515.3,1020.2,927.1,792.7,0.0,-5.0,18.0,-859.0,2925.0,12613.0,-10003.0,-9.0,1.0,7.0,5.0,-2.0,5.0,6771.0,-13686.0,5018.0,-3177.0,-4.0,-3.0,7.0,1.0
2022-05-06 12:46:07.650243-07:00,1127.0,673.3,969.6,936.4,803.5,732.3,1615.2,1451.6,3467.4,3472.2,1016.8,810.2,1398.5,3479.5,1252.4,1215.1,3475.9,3474.6,313.6,573.0,909.3,1179.7,540.2,1576.8,3481.9,3475.9,610.8,706.9,1515.3,1020.2,927.9,794.4,0.0,0.0,12.0,-859.0,2921.0,12609.0,-10009.0,22.0,-11.0,-11.0,4.0,-2.0,2.0,6777.0,-13683.0,5017.0,-3178.0,12.0,0.0,4.0,1.0
2022-05-06 12:46:07.679994-07:00,1127.0,673.3,969.6,924.5,803.5,732.3,1622.8,1433.2,3467.4,3472.2,1016.8,816.0,1398.5,3479.5,1253.3,1213.3,3475.9,3467.4,313.6,573.0,916.0,1176.2,540.2,1576.8,3467.4,3473.4,610.8,706.9,1519.0,1015.1,927.9,794.4,3.0,1.0,19.0,-862.0,2918.0,12600.0,-10020.0,26.0,6.0,-9.0,6.0,0.0,5.0,6785.0,-13680.0,5016.0,-3181.0,15.0,-5.0,2.0,1.0
2022-05-06 12:46:07.739753-07:00,1121.7,670.9,969.6,924.5,809.4,725.8,1622.8,1433.2,3467.4,3468.6,1016.8,816.0,1397.6,3473.4,1253.3,1213.3,3475.9,3467.4,308.2,586.7,916.0,1176.2,535.4,1576.8,3467.4,3473.4,614.9,706.0,1519.0,1015.1,928.8,790.2,1.0,0.0,16.0,-867.0,2919.0,12596.0,-10026.0,17.0,4.0,-8.0,4.0,-3.0,5.0,6785.0,-13679.0,5017.0,-3180.0,4.0,-3.0,10.0,1.0
2022-05-06 12:46:07.800035-07:00,1121.7,670.9,971.3,933.9,809.4,729.0,1619.9,1444.2,3467.4,3468.6,1014.2,813.5,1397.6,3479.5,1245.3,1216.8,3475.9,3479.5,311.3,586.7,923.7,1178.8,535.4,1576.8,3488.0,3475.9,609.2,706.0,1522.7,1013.3,928.8,790.2,0.0,1.0,12.0,-866.0,2919.0,12599.0,-10021.0,-24.0,-3.0,9.0,2.0,-1.0,4.0,6783.0,-13680.0,5019.0,-3179.0,-16.0,1.0,6.0,1.0
2022-05-06 12:46:07.829629-07:00,1118.2,667.6,972.2,933.9,805.2,729.0,1619.9,1444.2,3471.0,3472.2,1015.1,813.5,1400.3,3479.5,1245.3,1216.8,3475.9,3479.5,311.3,578.6,923.7,1177.0,544.2,1573.9,3488.0,3475.9,609.2,709.3,1522.7,1021.9,931.3,797.7,-1.0,-2.0,16.0,-868.0,2920.0,12596.0,-10025.0,33.0,13.0,5.0,3.0,-1.0,3.0,6783.0,-13679.0,5019.0,-3179.0,26.0,-1.0,3.0,1.0
2022-05-06 12:46:07.889728-07:00,1118.2,667.6,972.2,923.7,805.2,727.4,1623.7,1441.5,3471.0,3472.2,1015.1,813.5,1400.3,3469.8,1248.0,1217.7,3467.4,3479.5,313.6,578.6,914.4,1177.0,544.2,1573.9,3480.7,3467.4,607.6,709.3,1515.3,1021.9,931.3,797.7,-3.0,-3.0,17.0,-868.0,2919.0,12595.0,-10027.0,8.0,-16.0,-8.0,0.0,-4.0,5.0,6788.0,-13677.0,5017.0,-3181.0,11.0,6.0,5.0,1.0
2022-05-06 12:46:07.949548-07:00,1128.7,671.7,969.6,923.7,802.7,727.4,1623.7,1441.5,3472.2,3472.2,1019.4,813.5,1402.1,3469.8,1248.0,1217.7,3467.4,3479.5,313.6,580.2,914.4,1175.3,541.0,1574.9,3480.7,3467.4,607.6,704.4,1515.3,1018.5,921.1,793.5,0.0,-11.0,16.0,-862.0,2915.0,12597.0,-10026.0,-11.0,-10.0,7.0,3.0,-4.0,1.0,6789.0,-13677.0,5017.0,-3181.0,-10.0,-11.0,4.0,1.0
2022-05-06 12:46:07.979624-07:00,1128.7,671.7,969.6,926.2,802.7,735.6,1613.4,1440.5,3472.2,3472.2,1019.4,813.5,1402.1,3475.9,1260.4,1216.8,3469.8,3478.3,311.3,580.2,920.3,1175.3,541.0,1574.9,3472.2,3474.6,610.8,704.4,1519.9,1018.5,921.1,793.5,2.0,11.0,19.0,-859.0,2914.0,12595.0,-10029.0,-4.0,-8.0,-4.0,1.0,1.0,10.0,6792.0,-13676.0,5015.0,-3179.0,0.0,-2.0,1.0,1.0
2022-05-06 12:46:08.100140-07:00,1120.0,668.4,970.5,925.4,802.7,735.6,1613.4,1440.5,3472.2,3472.2,1013.3,823.5,1401.2,3475.9,1260.4,1216.8,3469.8,3478.3,311.3,582.6,917.7,1174.4,541.0,1570.2,3472.2,3474.6,610.8,706.0,1518.0,1013.3,936.4,796.0,5.0,-3.0,19.0,-867.0,2907.0,12590.0,-10036.0,29.0,15.0,-18.0,4.0,0.0,4.0,6795.0,-13674.0,5016.0,-3183.0,24.0,9.0,-3.0,1.0
2022-05-06 12:46:08.101042-07:00,1120.0,668.4,970.5,925.4,808.5,726.6,1611.5,1447.9,3472.2,3472.2,1013.3,823.5,1408.5,3471.0,1256.0,1211.5,3473.4,3471.0,310.5,589.1,917.7,1174.4,541.0,1570.2,3471.0,3479.5,613.3,703.6,1518.0,1013.3,936.4,796.0,0.0,0.0,15.0,-873.0,2905.0,12583.0,-10046.0,30.0,-3.0,-6.0,3.0,-2.0,7.0,6799.0,-13672.0,5016.0,-3184.0,15.0,2.0,10.0,1.0
2022-05-06 12:46:08.249621-07:00,1127.0,670.9,979.0,932.2,808.5,726.6,1611.5,1447.9,3474.6,3467.4,1021.1,811.0,1408.5,3471.0,1256.0,1211.5,3473.4,3471.0,310.5,589.1,917.7,1184.1,543.4,1574.9,3471.0,3479.5,613.3,703.6,1517.1,1020.2,927.1,794.4,-1.0,-2.0,17.0,-873.0,2904.0,12582.0,-10046.0,-3.0,-5.0,-8.0,0.0,-10.0,11.0,6798.0,-13672.0,5017.0,-3183.0,-6.0,-1.0,1.0,1.0
2022-05-06 12:46:08.309678-07:00,1127.0,670.9,979.0,932.2,801.9,731.5,1614.3,1440.5,3474.6,3467.4,1021.1,811.0,1404.0,3473.4,1252.4,1217.7,3469.8,3478.3,312.8,579.4,917.7,1184.1,543.4,1574.9,3479.5,3474.6,609.2,711.0,1517.1,1020.2,927.1,794.4,2.0,7.0,14.0,-880.0,2895.0,12575.0,-10057.0,21.0,3.0,-30.0,0.0,-1.0,4.0,6807.0,-13668.0,5014.0,-3187.0,17.0,4.0,-7.0,1.0
2022-05-06 12:46:08.310739-07:00,1129.6,671.7,969.6,923.7,801.9,731.5,1614.3,1440.5,3475.9,3466.1,1013.3,815.2,1404.0,3473.4,1252.4,1217.7,3469.8,3478.3,312.8,579.4,916.0,1177.0,537.8,1564.6,3479.5,3474.6,609.2,711.0,1512.5,1014.2,923.7,793.5,4.0,-13.0,17.0,-887.0,2887.0,12571.0,-10064.0,12.0,-1.0,-1.0,7.0,-3.0,0.0,6808.0,-13667.0,5014.0,-3187.0,1.0,-3.0,2.0,1.0
2022-05-06 12:46:08.311414-07:00,1120.9,671.7,969.6,923.7,801.9,725.8,1611.5,1447.0,3472.2,3466.1,1013.3,815.2,1403.0,3463.7,1262.2,1212.4,3480.7,3477.1,311.3,579.4,916.0,1177.0,537.8,1568.3,3473.4,3473.4,608.4,706.0,1512.5,1014.2,923.7,799.4,5.0,6.0,19.0,-894.0,2888.0,12560.0,-10076.0,58.0,25.0,-16.0,2.0,-4.0,8.0,6813.0,-13664.0,5014.0,-3188.0,30.0,1.0,11.0,1.0
2022-05-06 12:46:08.399638-07:00,1120.9,674.2,967.9,927.9,801.9,725.8,1611.5,1432.3,3472.2,3473.4,1009.0,815.2,1403.0,3463.7,1262.2,1220.4,3475.9,3477.1,311.3,579.4,915.2,1167.4,537.0,1568.3,3483.2,3473.4,608.4,706.0,1517.1,1015.1,929.6,799.4,-4.0,0.0,6.0,-917.0,2890.0,12544.0,-10094.0,13.0,24.0,2.0,0.0,-2.0,6.0,6823.0,-13659.0,5012.0,-3192.0,19.0,-2.0,4.0,1.0
2022-05-06 12:46:08.400682-07:00,1126.1,674.2,967.9,927.9,811.9,724.1,1611.5,1432.3,3474.6,3473.4,1009.0,815.2,1399.4,3473.4,1256.0,1220.4,3475.9,3478.3,310.5,576.2,915.2,1167.4,537.0,1576.8,3483.2,3478.3,607.6,709.3,1517.1,1015.1,929.6,797.7,4.0,2.0,21.0,-916.0,2905.0,12551.0,-10082.0,-71.0,55.0,41.0,2.0,-9.0,9.0,6815.0,-13663.0,5014.0,-3189.0,-50.0,-4.0,5.0,1.0
2022-05-06 12:46:08.429594-07:00,1126.1,665.2,977.3,932.2,811.9,724.1,1611.5,1448.8,3474.6,3471.0,1013.3,814.4,1399.4,3473.4,1256.0,1216.0,3483.2,3478.3,310.5,576.2,915.2,1179.7,538.6,1576.8,3478.3,3478.3,607.6,709.3,1530.1,1018.5,924.5,797.7,0.0,2.0,12.0,-922.0,2924.0,12555.0,-10070.0,5.0,16.0,-1.0,1.0,-7.0,9.0,6803.0,-13669.0,5017.0,-3184.0,-14.0,7.0,8.0,1.0
2022-05-06 12:46:08.549632-07:00,1117.4,665.2,977.3,932.2,805.2,725.8,1602.1,1448.8,3462.5,3471.0,1013.3,814.4,1397.6,3473.4,1253.3,1216.0,3483.2,3468.6,309.7,577.8,915.2,1179.7,538.6,1566.5,3478.3,3483.2,609.2,697.0,1530.1,1018.5,924.5,790.2,-2.0,-4.0,7.0,-923.0,2925.0,12556.0,-10068.0,-14.0,2.0,11.0,1.0,-6.0,6.0,6803.0,-13669.0,5017.0,-3184.0,-6.0,-7.0,-2.0,1.0
2022-05-06 12:46:08.550686-07:00,1117.4,666.0,973.9,932.2,805.2,725.8,1602.1,1439.6,3462.5,3474.6,1009.9,813.5,1397.6,3473.4,1253.3,1213.3,3477.1,3468.6,309.7,577.8,918.6,1176.2,539.4,1566.5,3475.9,3483.2,609.2,697.0,1514.3,1015.1,930.5,790.2,3.0,0.0,20.0,-918.0,2930.0,12557.0,-10067.0,-7.0,11.0,15.0,3.0,-5.0,6.0,6803.0,-13669.0,5017.0,-3184.0,3.0,-6.0,1.0,1.0
2022-05-06 12:46:08.640558-07:00,1121.7,673.3,973.9,932.2,797.7,724.9,1600.2,1439.6,3467.4,3477.1,1009.9,813.5,1404.0,3457.6,1244.4,1213.3,3477.1,3467.4,309.0,581.0,918.6,1176.2,540.2,1566.5,3475.9,3474.6,613.3,706.9,1514.3,1015.1,928.8,798.5,1.0,4.0,14.0,-918.0,2931.0,12553.0,-10070.0,-16.0,13.0,2.0,2.0,0.0,3.0,6803.0,-13669.0,5017.0,-3184.0,-2.0,0.0,7.0,1.0
2022-05-06 12:46:08.641336-07:00,1121.7,673.3,972.2,933.9,797.7,724.9,1608.7,1433.2,3467.4,3477.1,1015.9,812.7,1404.0,3457.6,1259.6,1212.4,3475.9,3473.4,309.0,581.0,916.9,1171.8,540.2,1566.5,3473.4,3477.1,613.3,706.9,1519.0,1015.1,928.8,798.5,0.0,0.0,6.0,-920.0,2933.0,12554.0,-10069.0,-4.0,7.0,12.0,1.0,0.0,2.0,6801.0,-13670.0,5018.0,-3183.0,1.0,0.0,3.0,1.0
2022-05-06 12:46:08.759634-07:00,1127.0,664.4,972.2,933.9,801.9,729.9,1608.7,1433.2,3475.9,3468.6,1015.9,812.7,1401.2,3467.4,1259.6,1212.4,3475.9,3473.4,306.7,581.8,916.9,1171.8,537.8,1572.1,3473.4,3477.1,612.5,701.9,1519.0,1015.1,933.0,790.2,2.0,1.0,13.0,-920.0,2934.0,12553.0,-10069.0,0.0,0.0,-2.0,0.0,-1.0,2.0,6801.0,-13670.0,5018.0,-3183.0,7.0,5.0,1.0,1.0
2022-05-06 12:46:08.760818-07:00,1127.0,664.4,973.1,938.1,801.9,729.9,1609.6,1436.9,3475.9,3468.6,1010.8,815.2,1401.2,3467.4,1262.2,1215.1,3474.6,3478.3,306.7,581.8,921.1,1170.9,537.8,1572.1,3480.7,3480.7,612.5,701.9,1513.4,1014.2,933.0,790.2,-2.0,-4.0,15.0,-920.0,2933.0,12551.0,-10072.0,33.0,-10.0,-12.0,1.0,-9.0,6.0,6801.0,-13670.0,5017.0,-3184.0,8.0,-2.0,0.0,1.0
2022-05-06 12:46:08.789618-07:00,1118.2,664.4,973.1,938.1,805.2,733.2,1609.6,1436.9,3471.0,3467.4,1010.8,815.2,1406.7,3472.2,1262.2,1215.1,3474.6,3478.3,310.5,581.8,921.1,1170.9,540.2,1574.9,3480.7,3480.7,611.7,706.9,1513.4,1014.2,927.1,794.4,5.0,0.0,14.0,-922.0,2928.0,12542.0,-10085.0,14.0,-9.0,-5.0,5.0,0.0,4.0,6810.0,-13666.0,5016.0,-3187.0,12.0,-3.0,6.0,1.0
2022-05-06 12:46:08.849535-07:00,1118.2,664.4,975.6,924.5,805.2,724.9,1605.8,1450.6,3471.0,3467.4,1016.8,811.0,1406.7,3467.4,1257.8,1216.8,3477.1,3477.1,315.9,581.8,919.4,1174.4,540.2,1574.9,3474.6,3472.2,610.8,706.9,1516.2,1020.2,927.1,794.4,1.0,0.0,16.0,-922.0,2928.0,12542.0,-10085.0,-23.0,1.0,0.0,3.0,-6.0,9.0,6805.0,-13668.0,5017.0,-3185.0,-16.0,4.0,1.0,1.0
2022-05-06 12:46:08.969685-07:00,1124.4,670.1,979.0,924.5,802.7,724.9,1605.8,1450.6,3474.6,3467.4,1015.9,811.0,1404.9,3467.4,1257.8,1216.8,3477.1,3477.1,315.9,577.0,919.4,1176.2,536.2,1573.0,3474.6,3472.2,610.8,705.2,1516.2,1012.5,926.2,795.2,0.0,-6.0,11.0,-921.0,2928.0,12546.0,-10081.0,-8.0,-1.0,-8.0,1.0,-13.0,6.0,6803.0,-13669.0,5017.0,-3184.0,1.0,-3.0,1.0,1.0
2022-05-06 12:46:08.999442-07:00,1124.4,670.1,979.0,930.5,802.7,724.9,1596.4,1445.1,3474.6,3467.4,1015.9,817.7,1404.9,3466.1,1256.9,1215.1,3473.4,3471.0,312.0,577.0,910.1,1176.2,536.2,1573.0,3471.0,3468.6,606.8,705.2,1506.9,1012.5,926.2,795.2,1.0,1.0,11.0,-921.0,2925.0,12539.0,-10090.0,3.0,-14.0,-3.0,0.0,1.0,4.0,6810.0,-13665.0,5015.0,-3187.0,4.0,-2.0,3.0,1.0
2022-05-06 12:46:09.000495-07:00,1128.7,666.0,969.6,930.5,801.0,724.9,1596.4,1445.1,3475.9,3474.6,1013.3,817.7,1407.6,3466.1,1256.9,1215.1,3473.4,3471.0,312.0,580.2,910.1,1174.4,533.8,1571.1,3471.0,3468.6,606.8,707.7,1506.9,1010.8,923.7,798.5,3.0,5.0,12.0,-922.0,2925.0,12539.0,-10090.0,-17.0,14.0,5.0,1.0,-2.0,7.0,6809.0,-13666.0,5016.0,-3187.0,-12.0,4.0,-1.0,1.0
2022-05-06 12:46:09.029605-07:00,1128.7,666.0,969.6,927.9,801.0,727.4,1607.7,1447.9,3475.9,3474.6,1013.3,811.9,1407.6,3466.1,1258.7,1215.1,3477.1,3478.3,309.7,580.2,915.2,1174.4,533.8,1571.1,3467.4,3471.0,611.7,707.7,1522.7,1010.8,923.7,798.5,3.0,0.0,6.0,-928.0,2930.0,12539.0,-10088.0,0.0,10.0,-3.0,0.0,3.0,2.0,6810.0,-13665.0,5015.0,-3187.0,-2.0,0.0,0.0,1.0
2022-05-06 12:46:09.210366-07:00,1120.0,671.7,966.2,922.8,802.7,727.4,1607.7,1447.9,3473.4,3472.2,1015.9,811.0,1405.8,3466.1,1258.7,1215.1,3477.1,3478.3,309.7,579.4,916.0,1177.0,538.6,1567.4,3467.4,3471.0,611.7,703.6,1514.3,1015.9,919.4,792.7,1.0,-3.0,10.0,-927.0,2930.0,12540.0,-10086.0,-30.0,-15.0,1.0,7.0,-1.0,5.0,6808.0,-13667.0,5016.0,-3185.0,-19.0,-3.0,0.0,1.0
2022-05-06 12:46:09.212100-07:00,1120.0,671.7,966.2,922.8,805.2,729.0,1607.7,1443.3,3473.4,3472.2,1015.9,811.0,1395.7,3475.9,1254.2,1201.8,3468.6,3473.4,312.8,575.4,916.0,1177.0,538.6,1567.4,3471.0,3479.5,610.8,703.6,1514.3,1015.9,919.4,792.7,0.0,6.0,21.0,-926.0,2928.0,12542.0,-10085.0,16.0,13.0,7.0,4.0,-2.0,11.0,6810.0,-13667.0,5015.0,-3184.0,10.0,1.0,2.0,1.0
2022-05-06 12:46:09.212824-07:00,1123.5,671.7,979.0,933.0,805.2,729.0,1607.7,1443.3,3467.4,3475.9,1010.8,804.4,1395.7,3475.9,1254.2,1201.8,3468.6,3473.4,312.8,575.4,913.5,1177.0,544.2,1564.6,3471.0,3479.5,610.8,703.6,1518.0,1005.6,919.4,792.7,4.0,-5.0,14.0,-929.0,2930.0,12541.0,-10085.0,-12.0,12.0,-9.0,4.0,-5.0,4.0,6806.0,-13669.0,5016.0,-3183.0,-8.0,5.0,2.0,1.0
2022-05-06 12:46:09.299696-07:00,1123.5,671.7,979.0,933.0,801.9,735.6,1608.7,1438.7,3467.4,3475.9,1010.8,804.4,1400.3,3468.6,1250.6,1216.0,3467.4,3477.1,308.2,576.2,913.5,1177.0,544.2,1564.6,3480.7,3475.9,604.4,703.6,1518.0,1005.6,919.4,792.7,2.0,4.0,8.0,-933.0,2932.0,12540.0,-10085.0,-7.0,7.0,5.0,1.0,-4.0,5.0,6806.0,-13669.0,5016.0,-3183.0,2.0,-5.0,4.0,1.0
2022-05-06 12:46:09.300672-07:00,1124.4,661.1,966.2,926.2,801.9,735.6,1608.7,1438.7,3473.4,3469.8,1012.5,811.9,1400.3,3468.6,1250.6,1216.0,3467.4,3477.1,308.2,576.2,915.2,1182.3,540.2,1571.1,3480.7,3475.9,604.4,703.6,1513.4,1012.5,923.7,795.2,3.0,6.0,8.0,-933.0,2930.0,12536.0,-10091.0,20.0,-14.0,-14.0,0.0,-2.0,6.0,6811.0,-13666.0,5014.0,-3185.0,13.0,-3.0,-5.0,1.0
2022-05-06 12:46:09.359745-07:00,1124.4,661.1,966.2,926.2,805.2,723.3,1605.8,1472.7,3473.4,3469.8,1012.5,811.9,1396.7,3468.6,1254.2,1217.7,3474.6,3473.4,308.2,575.4,915.2,1182.3,540.2,1571.1,3475.9,3478.3,606.8,712.6,1513.4,1012.5,923.7,795.2,6.0,-2.0,15.0,-937.0,2923.0,12534.0,-10095.0,10.0,-9.0,-17.0,3.0,-3.0,8.0,6814.0,-13665.0,5014.0,-3185.0,11.0,1.0,-5.0,1.0
2022-05-06 12:46:09.389858-07:00,1126.1,660.3,972.2,925.4,805.2,723.3,1605.8,1443.3,3473.4,3466.1,1021.9,820.2,1396.7,3468.6,1254.2,1217.7,3472.2,3473.4,308.2,575.4,917.7,1175.3,537.8,1573.0,3475.9,3478.3,606.8,712.6,1512.5,1012.5,927.1,796.9,5.0,-1.0,13.0,-941.0,2919.0,12529.0,-10102.0,12.0,-7.0,-6.0,3.0,-5.0,5.0,6815.0,-13664.0,5013.0,-3186.0,11.0,-2.0,5.0,1.0
2022-05-06 12:46:09.420300-07:00,1123.5,660.3,972.2,925.4,803.5,725.8,1590.8,1443.3,3471.0,3466.1,1021.9,820.2,1412.2,3468.6,1247.1,1217.7,3472.2,3464.9,309.7,583.5,917.7,1175.3,537.8,1577.7,3475.9,3469.8,606.8,711.8,1512.5,1012.5,927.1,796.0,6.0,3.0,14.0,-942.0,2918.0,12526.0,-10105.0,4.0,5.0,-2.0,3.0,-1.0,7.0,6816.0,-13664.0,5013.0,-3186.0,-4.0,1.0,2.0,1.0
2022-05-06 12:46:09.510504-07:00,1123.5,668.4,988.5,925.4,803.5,725.8,1590.8,1442.4,3471.0,3472.2,1014.2,811.0,1412.2,3468.6,1247.1,1219.5,3477.1,3464.9,309.7,583.5,911.0,1170.9,537.0,1577.7,3478.3,3469.8,606.8,711.8,1509.7,1014.2,922.8,796.0,0.0,-4.0,11.0,-944.0,2917.0,12527.0,-10105.0,6.0,4.0,-9.0,4.0,-4.0,6.0,6816.0,-13664.0,5013.0,-3186.0,2.0,0.0,2.0,1.0
2022-05-06 12:46:09.539598-07:00,1120.9,668.4,988.5,925.4,810.2,725.8,1600.2,1442.4,3457.6,3472.2,1014.2,811.0,1403.0,3467.4,1261.3,1219.5,3477.1,3472.2,312.8,579.4,911.0,1170.9,537.0,1567.4,3478.3,3472.2,607.6,707.7,1509.7,1014.2,922.8,794.4,3.0,-2.0,12.0,-944.0,2916.0,12526.0,-10106.0,1.0,6.0,5.0,3.0,-6.0,4.0,6818.0,-13663.0,5013.0,-3187.0,8.0,-3.0,0.0,1.0
2022-05-06 12:46:09.569642-07:00,1120.9,668.4,971.3,928.8,810.2,725.8,1600.2,1439.6,3457.6,3473.4,1015.9,815.2,1403.0,3467.4,1261.3,1217.7,3480.7,3472.2,312.8,579.4,911.0,1177.9,539.4,1567.4,3480.7,3472.2,607.6,707.7,1506.9,1015.1,920.3,794.4,2.0,2.0,15.0,-945.0,2916.0,12523.0,-10110.0,20.0,0.0,-2.0,2.0,0.0,5.0,6823.0,-13660.0,5012.0,-3189.0,16.0,3.0,-1.0,1.0
2022-05-06 12:46:09.720363-07:00,1125.2,666.8,971.3,928.8,801.9,726.6,1616.2,1439.6,3472.2,3468.6,1015.9,815.2,1404.0,3473.4,1258.7,1217.7,3480.7,3474.6,307.4,584.3,911.0,1177.9,537.0,1562.7,3480.7,3480.7,607.6,705.2,1506.9,1015.1,923.7,797.7,4.0,-3.0,16.0,-945.0,2916.0,12522.0,-10111.0,0.0,-2.0,3.0,2.0,-5.0,5.0,6824.0,-13660.0,5011.0,-3189.0,3.0,-5.0,3.0,1.0
2022-05-06 12:46:09.721740-07:00,1125.2,666.8,973.9,923.7,801.9,726.6,1597.4,1438.7,3472.2,3468.6,1012.5,809.4,1404.0,3473.4,1258.7,1223.9,3478.3,3477.1,307.4,584.3,916.0,1175.3,537.0,1562.7,3472.2,3477.1,607.6,705.2,1513.4,1013.3,923.7,797.7,3.0,4.0,12.0,-944.0,2915.0,12521.0,-10112.0,10.0,-18.0,-9.0,2.0,-4.0,5.0,6824.0,-13660.0,5011.0,-3189.0,13.0,-3.0,3.0,1.0
2022-05-06 12:46:09.723855-07:00,1127.9,665.2,973.9,923.7,797.7,725.8,1597.4,1438.7,3469.8,3483.2,1012.5,809.4,1402.1,3462.5,1258.7,1223.9,3478.3,3477.1,305.1,581.8,916.0,1175.3,535.4,1568.3,3472.2,3477.1,612.5,715.9,1513.4,1013.3,920.3,771.1,2.0,-8.0,16.0,-944.0,2911.0,12522.0,-10113.0,5.0,-1.0,-4.0,4.0,-8.0,9.0,6825.0,-13659.0,5011.0,-3190.0,11.0,2.0,-1.0,1.0
2022-05-06 12:46:09.779571-07:00,1127.9,665.2,969.6,928.8,797.7,725.8,1590.8,1411.3,3469.8,3483.2,1014.2,818.5,1402.1,3462.5,1259.6,1211.5,3467.4,3471.0,305.1,581.8,918.6,1174.4,535.4,1568.3,3467.4,3475.9,612.5,715.9,1519.9,1015.1,920.3,771.1,6.0,1.0,-1.0,-938.0,2906.0,12522.0,-10114.0,-64.0,-110.0,11.0,3.0,12.0,9.0,6819.0,-13661.0,5013.0,-3189.0,-157.0,23.0,-5.0,1.0
2022-05-06 12:46:09.869487-07:00,1118.2,668.4,969.6,928.8,799.4,723.3,1590.8,1411.3,3462.5,3478.3,1014.2,818.5,1404.9,3467.4,1259.6,1211.5,3467.4,3471.0,311.3,580.2,918.6,1174.4,539.4,1569.3,3467.4,3475.9,607.6,721.6,1519.9,1015.1,924.5,793.5,76.0,20.0,15.0,-805.0,2789.0,12603.0,-10058.0,-391.0,-692.0,-288.0,24.0,-8.0,-23.0,6726.0,-13705.0,5039.0,-3160.0,-248.0,-33.0,14.0,1.0
2022-05-06 12:46:09.899235-07:00,1118.2,668.4,978.2,941.5,799.4,772.8,1634.1,1508.8,3462.5,3478.3,1014.2,814.4,1404.9,3462.5,1256.9,1217.7,3468.6,3477.1,312.0,580.2,912.7,1179.7,539.4,1569.3,3468.6,3475.9,634.3,721.6,1520.8,1013.3,924.5,793.5,-20.0,33.0,28.0,-762.0,2450.0,12726.0,-9995.0,106.0,-362.0,-975.0,-6.0,-27.0,63.0,6685.0,-13729.0,5049.0,-3127.0,65.0,34.0,31.0,1.0
2022-05-06 12:46:09.929152-07:00,1148.0,723.3,990.2,941.5,806.0,772.8,1634.1,1508.8,3472.2,3473.4,1021.1,814.4,1403.0,3462.5,1256.9,1217.7,3468.6,3477.1,312.0,575.4,912.7,1178.8,618.1,1566.5,3468.6,3475.9,634.3,1158.6,1520.8,1017.6,933.9,796.9,-1.0,-38.0,-7.0,-872.0,1931.0,12785.0,-10024.0,-69.0,-583.0,-1082.0,-9.0,21.0,-35.0,6670.0,-13728.0,5068.0,-3132.0,-96.0,5.0,-15.0,1.0
2022-05-06 12:46:10.019290-07:00,1148.0,723.3,990.2,943.2,806.0,832.7,1672.9,1557.1,3472.2,3473.4,1021.1,840.3,1403.0,3474.6,1259.6,1222.2,3471.0,3466.1,308.2,575.4,924.5,1178.8,618.1,1566.5,3479.5,3473.4,669.3,1158.6,1510.6,1017.6,933.9,796.9,-8.0,-47.0,45.0,-967.0,1505.0,12785.0,-10089.0,554.0,-331.0,-731.0,14.0,0.0,23.0,6724.0,-13703.0,5050.0,-3152.0,370.0,15.0,33.0,1.0
2022-05-06 12:46:10.020576-07:00,1202.7,788.6,997.0,943.2,805.2,832.7,1672.9,1557.1,3474.6,3464.9,1030.6,840.3,1407.6,3474.6,1259.6,1222.2,3471.0,3466.1,308.2,583.5,924.5,1177.9,657.0,1567.4,3479.5,3473.4,669.3,1182.3,1510.6,1025.4,941.5,806.0,-2.0,-20.0,14.0,-1067.0,1209.0,12721.0,-10198.0,-34.0,-193.0,-473.0,0.0,-2.0,10.0,6797.0,-13662.0,5048.0,-3179.0,-21.0,10.0,30.0,1.0
2022-05-06 12:46:10.078793-07:00,1202.7,788.6,997.0,946.6,805.2,831.1,1673.8,1432.3,3474.6,3464.9,1030.6,842.8,1407.6,3474.6,1253.3,1219.5,3488.0,3484.4,310.5,583.5,925.4,1177.9,657.0,1567.4,3473.4,3474.6,670.9,1182.3,1515.3,1025.4,941.5,806.0,5.0,-24.0,51.0,-1113.0,1086.0,12757.0,-10162.0,-80.0,61.0,-80.0,-1.0,-17.0,12.0,6774.0,-13669.0,5069.0,-3163.0,-76.0,1.0,56.0,1.0
2022-05-06 12:46:10.138735-07:00,1218.6,790.2,1001.3,946.6,802.7,831.1,1673.8,1432.3,3466.1,3473.4,1029.7,842.8,1417.6,3474.6,1253.3,1219.5,3488.0,3484.4,310.5,584.3,925.4,1198.2,657.9,1548.7,3473.4,3474.6,670.9,1157.7,1515.3,1030.6,938.1,811.9,-19.0,1.0,-7.0,-1157.0,1090.0,12778.0,-10130.0,-91.0,38.0,-71.0,-2.0,1.0,1.0,6737.0,-13675.0,5110.0,-3151.0,-141.0,59.0,57.0,1.0
2022-05-06 12:46:10.168788-07:00,1218.6,790.2,1001.3,950.0,805.2,826.9,1662.5,1371.2,3466.1,3473.4,1029.7,848.6,1404.0,3471.0,1255.1,1218.6,3474.6,3478.3,308.2,585.1,922.0,1198.2,657.9,1548.7,3472.2,3480.7,670.1,1133.1,1508.8,1030.6,938.1,811.9,1.0,-9.0,-12.0,-1166.0,1090.0,12802.0,-10099.0,-29.0,-22.0,22.0,1.0,1.0,-11.0,6699.0,-13687.0,5131.0,-3148.0,-36.0,14.0,1.0,1.0
2022-05-06 12:46:10.319157-07:00,1218.6,779.4,1009.9,942.4,805.2,826.9,1662.5,1371.2,3462.5,3464.9,1024.5,849.5,1404.0,3471.0,1255.1,1218.6,3474.6,3478.3,308.2,585.1,915.2,1177.9,660.3,1567.4,3472.2,3480.7,670.1,1133.1,1506.9,1021.1,939.0,808.5,1.0,7.0,23.0,-1163.0,1081.0,12787.0,-10120.0,180.0,-41.0,-73.0,2.0,-3.0,18.0,6715.0,-13682.0,5122.0,-3147.0,101.0,-18.0,-7.0,1.0
2022-05-06 12:46:10.321459-07:00,1218.6,779.4,1009.9,942.4,801.0,824.4,1661.5,1359.4,3462.5,3464.9,1024.5,849.5,1411.3,3460.1,1252.4,1209.7,3467.4,3472.2,308.2,581.8,915.2,1177.9,660.3,1567.4,3469.8,3481.9,667.6,1115.6,1506.9,1021.1,939.0,808.5,2.0,-21.0,20.0,-1168.0,1039.0,12772.0,-10142.0,-37.0,-13.0,11.0,1.0,0.0,-4.0,6721.0,-13681.0,5116.0,-3151.0,-25.0,-10.0,-20.0,1.0
2022-05-06 12:46:10.322386-07:00,1214.2,780.3,995.3,943.2,801.0,824.4,1661.5,1359.4,3468.6,3472.2,1023.7,844.4,1411.3,3460.1,1252.4,1209.7,3467.4,3472.2,308.2,581.8,922.0,1173.5,654.6,1566.5,3469.8,3481.9,667.6,1115.6,1515.3,1025.4,939.8,811.9,15.0,23.0,23.0,-1162.0,1071.0,12754.0,-10163.0,85.0,75.0,56.0,7.0,-2.0,11.0,6741.0,-13672.0,5111.0,-3155.0,78.0,3.0,21.0,1.0
2022-05-06 12:46:10.379590-07:00,1214.2,780.3,995.3,943.2,805.2,815.2,1648.3,1344.9,3468.6,3472.2,1023.7,844.4,1416.7,3466.1,1248.8,1224.8,3480.7,3474.6,305.1,583.5,922.0,1173.5,654.6,1566.5,3477.1,3479.5,659.5,1114.7,1515.3,1025.4,939.8,811.9,-1.0,-1.0,-5.0,-1172.0,1074.0,12750.0,-10166.0,-37.0,-57.0,-50.0,0.0,-2.0,-5.0,6732.0,-13671.0,5127.0,-3155.0,-58.0,31.0,22.0,1.0
2022-05-06 12:46:10.499181-07:00,1215.1,786.9,1000.5,935.6,805.2,815.2,1648.3,1333.2,3474.6,3461.3,1018.5,850.3,1416.7,3466.1,1248.8,1202.7,3475.9,3474.6,305.1,583.5,927.1,1174.4,651.4,1559.0,3477.1,3479.5,659.5,1114.7,1514.3,1025.4,933.9,812.7,2.0,-29.0,37.0,-1169.0,1070.0,12754.0,-10162.0,130.0,77.0,72.0,-1.0,-15.0,13.0,6732.0,-13671.0,5127.0,-3155.0,91.0,-11.0,-3.0,1.0
2022-05-06 12:46:10.500565-07:00,1218.6,786.9,1000.5,935.6,797.7,816.0,1642.6,1333.2,3473.4,3461.3,1018.5,850.3,1407.6,3469.8,1253.3,1202.7,3475.9,3481.9,325.9,581.0,927.1,1174.4,651.4,1557.1,3477.1,3481.9,664.4,1105.1,1514.3,1025.4,933.9,810.2,0.0,27.0,-4.0,-1171.0,1089.0,12732.0,-10187.0,-66.0,-65.0,-47.0,0.0,3.0,0.0,6750.0,-13659.0,5129.0,-3161.0,-37.0,17.0,18.0,1.0
2022-05-06 12:46:10.529116-07:00,1218.6,776.1,997.0,950.0,797.7,816.0,1642.6,1327.8,3473.4,3467.4,1021.1,847.0,1407.6,3469.8,1253.3,1214.2,3477.1,3481.9,325.9,581.0,908.4,1184.1,655.4,1557.1,3479.5,3481.9,664.4,1105.1,1507.8,1029.7,942.4,810.2,6.0,-32.0,29.0,-1165.0,1055.0,12743.0,-10177.0,102.0,11.0,-18.0,5.0,-18.0,8.0,6743.0,-13664.0,5128.0,-3155.0,54.0,-19.0,-11.0,1.0
2022-05-06 12:46:10.588772-07:00,1210.6,776.1,997.0,950.0,796.0,815.2,1643.5,1327.8,3472.2,3467.4,1021.1,847.0,1411.3,3471.0,1256.0,1214.2,3477.1,3475.9,312.8,582.6,908.4,1184.1,655.4,1559.9,3479.5,3478.3,661.1,1090.3,1507.8,1029.7,942.4,811.0,5.0,7.0,9.0,-1172.0,1062.0,12714.0,-10212.0,11.0,11.0,44.0,-1.0,3.0,8.0,6775.0,-13648.0,5122.0,-3167.0,40.0,11.0,10.0,1.0
2022-05-06 12:46:10.618985-07:00,1210.6,780.3,1001.3,943.2,796.0,815.2,1643.5,1316.0,3472.2,3472.2,1017.6,841.1,1411.3,3471.0,1256.0,1221.3,3481.9,3475.9,312.8,582.6,923.7,1176.2,657.0,1559.9,3488.0,3478.3,661.1,1090.3,1512.5,1028.0,940.7,811.0,11.0,-5.0,13.0,-1159.0,1069.0,12723.0,-10201.0,-47.0,-28.0,-22.0,6.0,-11.0,10.0,6759.0,-13655.0,5127.0,-3162.0,-38.0,-6.0,2.0,1.0
2022-05-06 12:46:10.680604-07:00,1210.6,780.3,1001.3,943.2,802.7,816.9,1639.8,1316.0,3472.2,3472.2,1017.6,841.1,1405.8,3469.8,1258.7,1221.3,3481.9,3474.6,305.9,586.7,923.7,1176.2,657.0,1559.0,3488.0,3475.9,666.0,1087.7,1512.5,1028.0,940.7,809.4,-7.0,-1.0,16.0,-1157.0,1045.0,12715.0,-10215.0,61.0,-25.0,-24.0,-1.0,-2.0,8.0,6774.0,-13649.0,5123.0,-3165.0,50.0,-7.0,5.0,1.0
2022-05-06 12:46:10.799608-07:00,1210.6,767.8,994.5,940.7,802.7,816.9,1635.0,1319.6,3472.2,3479.5,1014.2,837.7,1405.8,3469.8,1256.9,1217.7,3475.9,3472.2,305.9,586.7,926.2,1177.9,651.4,1559.0,3473.4,3473.4,666.0,1087.7,1515.3,1018.5,936.4,809.4,7.0,-4.0,22.0,-1152.0,1036.0,12711.0,-10221.0,-18.0,-20.0,-9.0,-3.0,-9.0,13.0,6772.0,-13650.0,5123.0,-3164.0,4.0,7.0,0.0,1.0
2022-05-06 12:46:10.800774-07:00,1212.4,778.6,994.5,940.7,801.9,821.9,1635.0,1319.6,3478.3,3478.3,1014.2,837.7,1409.4,3467.4,1256.9,1217.7,3475.9,3472.2,307.4,583.5,926.2,1177.9,652.2,1553.4,3473.4,3473.4,666.8,1086.8,1515.3,1018.5,928.8,808.5,0.0,-3.0,8.0,-1157.0,1020.0,12704.0,-10231.0,28.0,-21.0,-48.0,7.0,-5.0,16.0,6782.0,-13645.0,5121.0,-3168.0,13.0,3.0,-8.0,1.0
2022-05-06 12:46:10.829385-07:00,1212.4,778.6,1001.3,939.0,801.9,821.9,1637.9,1309.7,3478.3,3478.3,1014.2,837.7,1409.4,3467.4,1252.4,1211.5,3467.4,3469.8,307.4,583.5,911.8,1184.1,652.2,1553.4,3475.9,3468.6,666.8,1086.8,1506.9,1024.5,928.8,808.5,8.0,-13.0,20.0,-1148.0,1004.0,12706.0,-10231.0,-21.0,-16.0,27.0,6.0,-9.0,6.0,6775.0,-13648.0,5122.0,-3165.0,-9.0,-6.0,6.0,1.0
2022-05-06 12:46:10.888885-07:00,1206.2,775.3,1001.3,939.0,801.9,816.9,1637.9,1309.7,3475.9,3473.4,1014.2,837.7,1419.5,3478.3,1252.4,1211.5,3467.4,3469.8,312.0,573.8,911.8,1184.1,653.8,1558.1,3475.9,3468.6,662.7,1084.2,1506.9,1024.5,935.6,804.4,-1.0,-5.0,20.0,-1153.0,1011.0,12698.0,-10240.0,53.0,30.0,-12.0,1.0,-11.0,19.0,6779.0,-13647.0,5121.0,-3166.0,20.0,5.0,6.0,1.0
2022-05-06 12:46:10.979302-07:00,1206.2,775.3,995.3,943.2,801.9,816.9,1626.5,1309.7,3475.9,3473.4,1015.1,836.9,1419.5,3478.3,1259.6,1218.6,3467.4,3473.4,312.0,573.8,911.8,1177.9,653.8,1558.1,3468.6,3480.7,662.7,1084.2,1511.5,1021.9,935.6,804.4,-1.0,-1.0,-10.0,-1158.0,1011.0,12684.0,-10256.0,-56.0,-18.0,37.0,0.0,4.0,3.0,6775.0,-13647.0,5124.0,-3167.0,-63.0,0.0,1.0,1.0
2022-05-06 12:46:10.980463-07:00,1202.7,777.8,994.5,943.2,801.9,817.7,1626.5,1309.7,3473.4,3469.8,1005.6,836.9,1414.0,3467.4,1259.6,1218.6,3467.4,3473.4,305.1,582.6,911.8,1176.2,652.2,1561.8,3468.6,3480.7,656.2,1075.6,1511.5,1015.1,933.9,806.9,5.0,-3.0,30.0,-1142.0,1026.0,12701.0,-10235.0,16.0,13.0,18.0,1.0,-14.0,14.0,6763.0,-13653.0,5127.0,-3163.0,20.0,5.0,7.0,1.0
2022-05-06 12:46:11.039615-07:00,1202.7,777.8,994.5,934.7,801.9,809.4,1640.7,1302.5,3473.4,3469.8,1005.6,836.9,1414.0,3475.9,1248.8,1216.8,3478.3,3472.2,303.6,582.6,922.8,1176.2,652.2,1561.8,3474.6,3475.9,657.0,1075.6,1509.7,1015.1,933.9,806.9,1.0,-4.0,-1.0,-1148.0,1022.0,12685.0,-10255.0,11.0,-15.0,-2.0,0.0,3.0,1.0,6774.0,-13647.0,5124.0,-3170.0,-11.0,2.0,-11.0,1.0
2022-05-06 12:46:11.069427-07:00,1207.1,772.0,991.0,934.7,798.5,809.4,1640.7,1302.5,3467.4,3462.5,1008.2,836.9,1409.4,3475.9,1248.8,1216.8,3478.3,3472.2,303.6,583.5,922.8,1176.2,652.2,1556.2,3474.6,3475.9,657.0,1070.3,1509.7,1020.2,936.4,808.5,14.0,-8.0,33.0,-1136.0,1025.0,12697.0,-10241.0,-64.0,-14.0,3.0,4.0,-16.0,13.0,6756.0,-13656.0,5126.0,-3165.0,-32.0,2.0,6.0,1.0
2022-05-06 12:46:11.159518-07:00,1207.1,772.0,991.0,946.6,798.5,812.7,1632.2,1286.4,3467.4,3462.5,1008.2,852.0,1409.4,3469.8,1255.1,1213.3,3472.2,3474.6,305.1,583.5,926.2,1176.2,652.2,1556.2,3474.6,3475.9,656.2,1070.3,1514.3,1020.2,936.4,808.5,-2.0,-10.0,3.0,-1142.0,1012.0,12691.0,-10249.0,49.0,-6.0,-18.0,0.0,2.0,2.0,6767.0,-13649.0,5127.0,-3169.0,26.0,3.0,5.0,1.0
2022-05-06 12:46:11.220095-07:00,1199.1,764.5,994.5,946.6,801.0,812.7,1632.2,1286.4,3463.7,3462.5,1015.1,852.0,1411.3,3469.8,1255.1,1213.3,3472.2,3474.6,305.1,585.9,926.2,1181.5,645.7,1547.8,3474.6,3475.9,656.2,1066.0,1514.3,1015.1,929.6,803.5,6.0,6.0,19.0,-1143.0,1021.0,12687.0,-10253.0,-30.0,25.0,23.0,4.0,-10.0,17.0,6762.0,-13652.0,5128.0,-3167.0,-14.0,-7.0,3.0,1.0
2022-05-06 12:46:11.223541-07:00,1199.1,764.5,994.5,938.1,805.2,814.4,1641.6,1295.4,3463.7,3462.5,1015.1,838.6,1407.6,3478.3,1254.2,1216.0,3475.9,3475.9,306.7,575.4,918.6,1181.5,645.7,1547.8,3466.1,3467.4,656.2,1063.4,1512.5,1015.1,929.6,803.5,-2.0,-6.0,4.0,-1159.0,1020.0,12683.0,-10256.0,67.0,-14.0,-58.0,4.0,-9.0,11.0,6766.0,-13649.0,5128.0,-3171.0,42.0,13.0,5.0,1.0
2022-05-06 12:46:11.549322-07:00,1199.1,767.0,990.2,935.6,805.2,814.4,1641.6,1295.4,3464.9,3467.4,1015.9,836.1,1407.6,3478.3,1254.2,1216.0,3475.9,3475.9,306.7,575.4,922.0,1177.0,648.1,1550.6,3466.1,3467.4,656.2,1063.4,1510.6,1020.2,927.1,806.9,0.0,-23.0,19.0,-1158.0,1008.0,12675.0,-10268.0,-10.0,-16.0,51.0,-7.0,-16.0,3.0,6769.0,-13649.0,5126.0,-3173.0,-5.0,-18.0,-7.0,1.0
2022-05-06 12:46:11.550498-07:00,1199.1,767.0,990.2,935.6,801.9,809.4,1641.6,1316.0,3464.9,3467.4,1015.9,836.1,1403.0,3463.7,1254.2,1209.7,3480.7,3472.2,305.1,589.1,922.0,1177.0,648.1,1550.6,3472.2,3478.3,653.0,1063.4,1510.6,1020.2,927.1,806.9,7.0,18.0,18.0,-1146.0,1010.0,12674.0,-10270.0,-29.0,-31.0,-54.0,3.0,-5.0,20.0,6774.0,-13647.0,5124.0,-3170.0,-7.0,13.0,10.0,1.0
2022-05-06 12:46:11.551761-07:00,1207.1,769.5,994.5,940.7,801.9,809.4,1641.6,1316.0,3475.9,3474.6,1010.8,837.7,1403.0,3463.7,1254.2,1209.7,3480.7,3472.2,305.1,589.1,922.8,1174.4,650.5,1560.9,3472.2,3478.3,653.0,1063.4,1506.9,1016.8,932.2,811.9,2.0,-16.0,5.0,-1148.0,983.0,12679.0,-10266.0,12.0,-9.0,5.0,2.0,-3.0,-1.0,6773.0,-13646.0,5128.0,-3173.0,16.0,-2.0,-8.0,1.0
2022-05-06 12:46:11.552914-07:00,1207.1,769.5,994.5,940.7,801.9,807.7,1630.3,1299.8,3475.9,3474.6,1010.8,837.7,1410.3,3475.9,1254.2,1218.6,3471.0,3472.2,304.3,581.0,922.8,1174.4,650.5,1560.9,3472.2,3480.7,660.3,1058.2,1506.9,1016.8,932.2,811.9,9.0,7.0,26.0,-1142.0,995.0,12674.0,-10272.0,21.0,32.0,24.0,0.0,-8.0,14.0,6775.0,-13646.0,5127.0,-3171.0,15.0,1.0,8.0,1.0
2022-05-06 12:46:11.609219-07:00,1202.7,779.4,991.9,947.5,801.9,807.7,1630.3,1299.8,3473.4,3474.6,1009.0,837.7,1410.3,3475.9,1254.2,1218.6,3471.0,3472.2,304.3,581.0,916.9,1177.9,647.3,1545.0,3472.2,3480.7,660.3,1058.2,1505.1,1016.8,928.8,804.4,0.0,-7.0,0.0,-1155.0,993.0,12670.0,-10276.0,-25.0,-9.0,-45.0,2.0,-4.0,7.0,6776.0,-13643.0,5129.0,-3174.0,-10.0,11.0,5.0,1.0
2022-05-06 12:46:11.669015-07:00,1197.4,768.7,991.0,939.0,806.9,811.0,1634.1,1299.8,3472.2,3477.1,1009.9,838.6,1404.0,3468.6,1252.4,1215.1,3472.2,3478.3,305.1,584.3,908.4,1178.8,644.0,1545.0,3480.7,3475.9,654.6,1052.2,1504.1,1015.1,927.1,810.2,3.0,-19.0,5.0,-1156.0,966.0,12677.0,-10269.0,-48.0,-25.0,14.0,4.0,-2.0,-3.0,6779.0,-13642.0,5128.0,-3175.0,-41.0,-7.0,-4.0,1.0
2022-05-06 12:46:11.670346-07:00,1197.4,771.1,988.5,939.8,806.9,811.0,1634.1,1292.7,3472.2,3475.9,1008.2,835.2,1404.0,3468.6,1252.4,1215.1,3474.6,3478.3,305.1,584.3,911.8,1174.4,644.9,1545.0,3484.4,3475.9,654.6,1052.2,1499.5,1014.2,933.9,810.2,2.0,13.0,17.0,-1155.0,972.0,12670.0,-10277.0,66.0,31.0,2.0,-2.0,-10.0,18.0,6784.0,-13641.0,5126.0,-3172.0,48.0,-14.0,11.0,1.0
2022-05-06 12:46:11.729177-07:00,1198.2,771.1,988.5,939.8,802.7,811.0,1635.0,1292.7,3467.4,3475.9,1008.2,835.2,1401.2,3467.4,1252.4,1215.1,3474.6,3474.6,308.2,587.5,911.8,1174.4,644.9,1552.5,3484.4,3480.7,653.8,1042.6,1499.5,1014.2,933.9,808.5,-3.0,-16.0,7.0,-1160.0,966.0,12671.0,-10276.0,-68.0,-29.0,-2.0,1.0,-8.0,2.0,6784.0,-13639.0,5130.0,-3175.0,-46.0,14.0,-2.0,1.0
2022-05-06 12:46:11.789267-07:00,1198.2,767.0,991.0,942.4,802.7,811.0,1632.2,1286.4,3467.4,3464.9,1005.6,824.4,1401.2,3467.4,1257.8,1215.1,3477.1,3473.4,308.2,587.5,912.7,1177.9,644.9,1552.5,3467.4,3485.6,653.8,1042.6,1503.2,1010.8,925.4,808.5,10.0,-4.0,20.0,-1150.0,960.0,12680.0,-10268.0,53.0,7.0,-20.0,0.0,-9.0,8.0,6779.0,-13642.0,5130.0,-3171.0,31.0,-13.0,2.0,1.0
2022-05-06 12:46:11.819541-07:00,1192.0,770.3,991.0,942.4,800.2,816.9,1632.2,1286.4,3468.6,3467.4,1005.6,824.4,1404.0,3471.0,1257.8,1215.1,3477.1,3473.4,305.9,583.5,912.7,1177.9,648.9,1540.3,3467.4,3485.6,653.8,1044.4,1503.2,1010.8,933.0,791.9,-7.0,-7.0,7.0,-1166.0,953.0,12660.0,-10290.0,-19.0,2.0,1.0,0.0,-3.0,14.0,6795.0,-13634.0,5126.0,-3177.0,4.0,14.0,-1.0,1.0
2022-05-06 12:46:11.878895-07:00,1192.0,770.3,1000.5,957.7,800.2,816.9,1630.3,1291.8,3468.6,3467.4,1007.3,836.1,1404.0,3471.0,1256.9,1208.9,3473.4,3478.3,305.9,583.5,918.6,1181.5,648.9,1540.3,3477.1,3483.2,653.8,1044.4,1497.7,1021.9,933.0,791.9,7.0,-1.0,17.0,-1161.0,959.0,12671.0,-10277.0,-20.0,3.0,-18.0,4.0,-15.0,12.0,6784.0,-13640.0,5129.0,-3173.0,-27.0,4.0,-1.0,1.0
2022-05-06 12:46:11.939025-07:00,1179.7,770.3,1000.5,957.7,797.7,810.2,1630.3,1291.8,3467.4,3473.4,1007.3,836.1,1404.0,3463.7,1256.9,1208.9,3473.4,3478.3,305.1,578.6,918.6,1181.5,644.9,1552.5,3477.1,3483.2,658.7,1045.2,1497.7,1021.9,925.4,799.4,0.0,4.0,0.0,-1176.0,947.0,12654.0,-10297.0,59.0,-5.0,-32.0,1.0,3.0,9.0,6803.0,-13630.0,5125.0,-3181.0,78.0,6.0,3.0,1.0
2022-05-06 12:46:11.969025-07:00,1179.7,770.3,990.2,939.8,797.7,810.2,1632.2,1294.5,3467.4,3473.4,1003.9,835.2,1404.0,3463.7,1259.6,1208.9,3468.6,3473.4,305.1,578.6,920.3,1165.6,644.9,1552.5,3475.9,3474.6,658.7,1045.2,1507.8,1014.2,925.4,799.4,2.0,-9.0,14.0,-1174.0,942.0,12660.0,-10291.0,-64.0,-24.0,2.0,0.0,-8.0,4.0,6796.0,-13633.0,5127.0,-3179.0,-52.0,-2.0,-3.0,1.0
2022-05-06 12:46:12.029523-07:00,1190.3,765.3,991.9,939.8,801.0,808.5,1632.2,1294.5,3460.1,3471.0,1009.9,835.2,1403.0,3469.8,1259.6,1208.9,3468.6,3473.4,306.7,584.3,920.3,1177.9,644.0,1550.6,3475.9,3474.6,654.6,1043.5,1507.8,1016.8,927.1,806.0,1.0,-1.0,19.0,-1180.0,933.0,12663.0,-10287.0,40.0,9.0,-53.0,1.0,-11.0,18.0,6796.0,-13633.0,5127.0,-3179.0,32.0,5.0,2.0,1.0
2022-05-06 12:46:12.119052-07:00,1190.3,765.3,991.9,939.0,801.0,805.2,1626.5,1291.8,3460.1,3471.0,1009.9,847.0,1403.0,3479.5,1253.3,1215.1,3471.0,3472.2,305.9,584.3,924.5,1177.9,644.0,1550.6,3472.2,3471.0,653.0,1043.5,1505.1,1016.8,927.1,806.0,2.0,-1.0,-1.0,-1184.0,918.0,12659.0,-10293.0,-59.0,-19.0,5.0,3.0,3.0,0.0,6802.0,-13629.0,5126.0,-3184.0,-16.0,2.0,-4.0,1.0
2022-05-06 12:46:12.120561-07:00,1192.0,773.6,995.3,939.0,802.7,805.2,1626.5,1291.8,3469.8,3463.7,1007.3,847.0,1412.2,3479.5,1253.3,1215.1,3471.0,3472.2,305.9,581.0,924.5,1184.1,635.9,1551.5,3472.2,3471.0,653.0,1041.8,1505.1,1018.5,916.9,809.4,0.0,-14.0,29.0,-1182.0,916.0,12669.0,-10280.0,38.0,12.0,-26.0,-6.0,-21.0,19.0,6792.0,-13634.0,5129.0,-3180.0,4.0,-5.0,4.0,1.0
2022-05-06 12:46:12.209768-07:00,1192.0,773.6,995.3,937.3,802.7,802.7,1636.0,1286.4,3469.8,3463.7,1007.3,837.7,1412.2,3472.2,1252.4,1210.6,3472.2,3480.7,309.0,581.0,917.7,1184.1,635.9,1551.5,3481.9,3467.4,655.4,1041.8,1508.8,1018.5,916.9,809.4,0.0,1.0,-6.0,-1190.0,909.0,12654.0,-10299.0,-35.0,-21.0,11.0,-5.0,0.0,6.0,6807.0,-13626.0,5126.0,-3186.0,2.0,6.0,4.0,1.0
2022-05-06 12:46:12.211317-07:00,1192.9,760.4,987.6,937.3,799.4,802.7,1636.0,1286.4,3478.3,3471.0,1005.6,837.7,1406.7,3472.2,1252.4,1210.6,3472.2,3480.7,309.0,580.2,917.7,1181.5,636.7,1551.5,3481.9,3467.4,655.4,1036.6,1508.8,1014.2,922.0,802.7,8.0,-14.0,27.0,-1183.0,909.0,12672.0,-10278.0,6.0,23.0,-13.0,2.0,-11.0,7.0,6790.0,-13634.0,5130.0,-3180.0,-34.0,-6.0,3.0,1.0
2022-05-06 12:46:12.270066-07:00,1192.9,760.4,987.6,934.7,799.4,807.7,1627.5,1290.9,3478.3,3471.0,1005.6,835.2,1406.7,3467.4,1252.4,1211.5,3469.8,3467.4,304.3,580.2,918.6,1181.5,636.7,1551.5,3475.9,3478.3,654.6,1036.6,1511.5,1014.2,922.0,802.7,-1.0,6.0,5.0,-1213.0,904.0,12647.0,-10305.0,49.0,60.0,-45.0,0.0,-1.0,12.0,6811.0,-13624.0,5125.0,-3188.0,70.0,6.0,-2.0,1.0
2022-05-06 12:46:12.330034-07:00,1195.6,762.0,991.0,938.1,801.9,807.7,1627.5,1290.9,3469.8,3471.0,1007.3,840.3,1408.5,3467.4,1252.4,1211.5,3469.8,3467.4,304.3,581.8,921.1,1179.7,641.6,1545.0,3475.9,3478.3,654.6,1036.6,1510.6,1016.8,925.4,805.2,2.0,-5.0,-2.0,-1217.0,903.0,12665.0,-10283.0,-167.0,-47.0,-2.0,6.0,0.0,-4.0,6796.0,-13631.0,5129.0,-3185.0,-104.0,8.0,-2.0,1.0
2022-05-06 12:46:12.659585-07:00,1195.6,762.0,991.0,938.1,796.0,810.2,1632.2,1291.8,3469.8,3471.0,1007.3,840.3,1406.7,3455.2,1259.6,1216.8,3478.3,3481.9,306.7,583.5,921.1,1179.7,641.6,1545.0,3473.4,3480.7,648.1,1042.6,1510.6,1016.8,925.4,805.2,-2.0,-3.0,16.0,-1220.0,885.0,12682.0,-10263.0,106.0,14.0,-75.0,0.0,-10.0,22.0,6783.0,-13638.0,5131.0,-3178.0,61.0,-10.0,2.0,1.0
2022-05-06 12:46:12.662552-07:00,1192.0,766.2,986.7,940.7,796.0,810.2,1632.2,1291.8,3462.5,3469.8,1000.5,829.4,1406.7,3455.2,1259.6,1216.8,3478.3,3481.9,306.7,583.5,920.3,1170.9,633.5,1547.8,3473.4,3480.7,648.1,1042.6,1510.6,1013.3,924.5,799.4,1.0,-8.0,4.0,-1234.0,871.0,12664.0,-10285.0,-59.0,26.0,22.0,2.0,0.0,0.0,6803.0,-13628.0,5126.0,-3187.0,-10.0,10.0,-8.0,1.0
2022-05-06 12:46:12.663454-07:00,1192.0,766.2,986.7,940.7,798.5,802.7,1619.0,1283.7,3462.5,3469.8,1000.5,829.4,1406.7,3462.5,1256.9,1212.4,3474.6,3473.4,307.4,581.0,920.3,1170.9,633.5,1547.8,3483.2,3475.9,653.8,1039.2,1510.6,1013.3,924.5,799.4,15.0,-13.0,33.0,-1239.0,896.0,12674.0,-10270.0,-16.0,126.0,66.0,4.0,-10.0,6.0,6793.0,-13634.0,5127.0,-3183.0,7.0,-13.0,2.0,1.0
2022-05-06 12:46:12.690598-07:00,1179.7,766.2,991.0,940.7,798.5,802.7,1619.0,1283.7,3472.2,3472.2,1007.3,831.1,1406.7,3462.5,1256.9,1212.4,3474.6,3473.4,307.4,581.0,912.7,1177.0,635.9,1550.6,3483.2,3475.9,653.8,1039.2,1506.9,1010.8,927.9,806.0,-5.0,-10.0,93.0,-1334.0,1032.0,12641.0,-10286.0,205.0,847.0,230.0,4.0,-10.0,25.0,6826.0,-13625.0,5103.0,-3187.0,160.0,-38.0,-62.0,1.0
2022-05-06 12:46:12.691532-07:00,1179.7,766.2,991.0,940.7,796.0,806.9,1616.2,1292.7,3472.2,3472.2,1007.3,831.1,1401.2,3464.9,1247.1,1214.2,3478.3,3466.1,306.7,575.4,912.7,1177.0,635.9,1552.5,3472.2,3478.3,655.4,1106.0,1506.9,1010.8,927.9,807.7,-31.0,-68.0,-131.0,-1565.0,1454.0,12472.0,-10408.0,403.0,834.0,803.0,-18.0,-21.0,-18.0,6904.0,-13593.0,5049.0,-3241.0,381.0,38.0,-86.0,1.0
2022-05-06 12:46:12.692470-07:00,1179.7,760.4,977.3,927.1,796.0,806.9,1616.2,1524.5,3472.2,3464.9,1021.1,831.1,1401.2,3464.9,1247.1,1215.1,3474.6,3466.1,306.7,575.4,915.2,1174.4,646.5,1552.5,3471.0,3478.3,655.4,1106.0,1508.8,1015.1,920.3,807.7,28.0,38.0,10.0,-1577.0,2012.0,12385.0,-10417.0,-277.0,846.0,1022.0,11.0,-16.0,17.0,6899.0,-13608.0,5019.0,-3235.0,-62.0,-77.0,-54.0,1.0
2022-05-06 12:46:12.719611-07:00,1176.2,754.6,973.9,919.4,801.0,796.9,1637.9,1725.3,3464.9,3468.6,1035.7,829.4,1400.3,3477.1,1247.1,1211.5,3473.4,3483.2,307.4,579.4,922.8,1176.2,633.5,1559.9,3469.8,3478.3,641.6,928.8,1512.5,1009.0,916.9,811.9,9.0,1.0,0.0,-1415.0,2729.0,12431.0,-10221.0,-527.0,13.0,485.0,-5.0,11.0,-9.0,6848.0,-13637.0,5041.0,-3187.0,-206.0,-6.0,-7.0,1.0
2022-05-06 12:46:12.780150-07:00,1170.9,754.6,973.9,919.4,804.4,778.6,1671.0,1725.3,3469.8,3468.6,1035.7,829.4,1397.6,3462.5,1237.3,1211.5,3473.4,3479.5,306.7,572.2,922.8,1176.2,633.5,1559.0,3469.8,3488.0,635.9,866.3,1512.5,1009.0,916.9,807.7,25.0,5.0,32.0,-1282.0,2896.0,12482.0,-10129.0,45.0,24.0,336.0,9.0,-22.0,20.0,6855.0,-13636.0,5033.0,-3189.0,206.0,-2.0,-7.0,1.0
2022-05-06 12:46:12.839619-07:00,1170.9,740.6,971.3,924.5,804.4,778.6,1683.3,1708.1,3469.8,3468.6,1025.4,823.5,1397.6,3462.5,1240.8,1209.7,3474.6,3474.6,306.7,572.2,919.4,1172.6,622.2,1559.0,3473.4,3473.4,635.9,866.3,1507.8,1006.5,916.0,807.7,12.0,35.0,-10.0,-1231.0,2973.0,12444.0,-10160.0,-92.0,-33.0,103.0,7.0,5.0,4.0,6920.0,-13603.0,5017.0,-3215.0,42.0,4.0,0.0,1.0
2022-05-06 12:46:12.869668-07:00,1162.1,744.7,971.3,924.5,798.5,773.6,1683.3,1708.1,3473.4,3473.4,1025.4,823.5,1400.3,3471.0,1240.8,1209.7,3474.6,3474.6,305.9,570.6,919.4,1172.6,619.7,1572.1,3473.4,3473.4,631.1,844.4,1507.8,1006.5,912.7,806.0,3.0,-20.0,22.0,-1177.0,2994.0,12481.0,-10115.0,-89.0,-64.0,83.0,-1.0,-18.0,9.0,6896.0,-13615.0,5024.0,-3206.0,-19.0,-4.0,9.0,1.0
2022-05-06 12:46:12.929574-07:00,1162.1,744.7,962.0,923.7,798.5,773.6,1682.4,1695.7,3473.4,3473.4,1028.0,825.2,1400.3,3471.0,1242.6,1206.2,3473.4,3480.7,305.9,570.6,911.8,1171.8,619.7,1572.1,3471.0,3477.1,631.1,844.4,1506.9,1005.6,912.7,806.0,6.0,31.0,17.0,-1149.0,3010.0,12486.0,-10107.0,-39.0,-3.0,6.0,0.0,0.0,12.0,6907.0,-13608.0,5024.0,-3209.0,-16.0,2.0,8.0,1.0
2022-05-06 12:46:12.959658-07:00,1170.0,724.9,962.0,923.7,802.7,771.1,1682.4,1695.7,3466.1,3473.4,1028.0,825.2,1393.9,3475.9,1242.6,1206.2,3473.4,3480.7,306.7,575.4,911.8,1171.8,610.0,1565.5,3471.0,3477.1,632.7,838.6,1506.9,1005.6,915.2,797.7,3.0,-11.0,15.0,-1149.0,2998.0,12499.0,-10095.0,40.0,-15.0,-45.0,1.0,-9.0,8.0,6900.0,-13612.0,5023.0,-3208.0,55.0,-1.0,-18.0,1.0
2022-05-06 12:46:13.019640-07:00,1170.0,724.9,961.1,922.8,802.7,771.1,1668.2,1659.6,3466.1,3473.4,1024.5,826.9,1393.9,3475.9,1239.1,1210.6,3469.8,3474.6,306.7,575.4,920.3,1180.6,610.0,1565.5,3467.4,3478.3,632.7,838.6,1511.5,1006.5,915.2,797.7,9.0,-6.0,8.0,-1147.0,2972.0,12492.0,-10111.0,11.0,-79.0,-35.0,9.0,-3.0,2.0,6917.0,-13605.0,5016.0,-3216.0,11.0,-3.0,0.0,1.0
2022-05-06 12:46:13.079622-07:00,1159.4,724.9,961.1,922.8,805.2,772.0,1668.2,1659.6,3461.3,3466.1,1024.5,826.9,1385.7,3468.6,1239.1,1210.6,3469.8,3474.6,308.2,576.2,920.3,1180.6,606.8,1563.7,3467.4,3478.3,625.4,831.9,1511.5,1006.5,919.4,806.9,-3.0,4.0,22.0,-1149.0,2942.0,12486.0,-10128.0,110.0,-4.0,-53.0,4.0,-13.0,19.0,6928.0,-13601.0,5010.0,-3216.0,83.0,-8.0,-7.0,1.0
2022-05-06 12:46:13.139605-07:00,1159.4,724.9,965.4,922.8,805.2,768.7,1662.5,1652.0,3461.3,3466.1,1028.8,823.5,1385.7,3472.2,1238.2,1209.7,3475.9,3467.4,309.0,576.2,913.5,1172.6,606.8,1563.7,3467.4,3478.3,627.8,831.9,1508.8,1006.5,919.4,806.9,-1.0,-5.0,17.0,-1173.0,2910.0,12462.0,-10164.0,90.0,-5.0,-81.0,0.0,-5.0,8.0,6958.0,-13586.0,5002.0,-3228.0,54.0,4.0,-10.0,1.0
2022-05-06 12:46:13.170836-07:00,1149.8,721.6,964.5,922.8,801.9,768.7,1662.5,1652.0,3473.4,3464.9,1028.8,823.5,1392.1,3472.2,1238.2,1209.7,3475.9,3467.4,309.0,574.6,913.5,1174.4,609.2,1554.3,3467.4,3478.3,627.8,820.2,1508.8,1000.5,913.5,808.5,2.0,-11.0,10.0,-1198.0,2885.0,12444.0,-10190.0,75.0,3.0,-50.0,2.0,-7.0,8.0,6979.0,-13576.0,4996.0,-3236.0,48.0,-7.0,4.0,1.0
2022-05-06 12:46:13.229918-07:00,1149.8,721.6,964.5,923.7,801.9,772.0,1665.3,1639.8,3473.4,3464.9,1028.8,821.0,1392.1,3475.9,1238.2,1212.4,3468.6,3478.3,310.5,574.6,911.0,1174.4,609.2,1554.3,3477.1,3472.2,628.6,820.2,1509.7,1000.5,913.5,808.5,1.0,10.0,8.0,-1207.0,2871.0,12430.0,-10209.0,23.0,-34.0,-24.0,1.0,1.0,7.0,6997.0,-13566.0,4992.0,-3243.0,19.0,3.0,-10.0,1.0
2022-05-06 12:46:13.259585-07:00,1154.2,711.8,964.5,923.7,795.2,772.0,1665.3,1639.8,3471.0,3464.9,1024.5,821.0,1395.7,3475.9,1238.2,1212.4,3468.6,3478.3,310.5,568.2,911.0,1175.3,598.7,1567.4,3477.1,3472.2,628.6,814.4,1509.7,1002.2,919.4,807.7,7.0,-6.0,15.0,-1196.0,2844.0,12436.0,-10211.0,-14.0,-74.0,-49.0,0.0,-7.0,9.0,6999.0,-13566.0,4988.0,-3246.0,18.0,-2.0,-10.0,1.0
2022-05-06 12:46:13.319977-07:00,1154.2,711.8,964.5,922.8,795.2,771.1,1643.5,1630.3,3471.0,3464.9,1024.5,821.9,1395.7,3474.6,1241.7,1215.1,3474.6,3474.6,299.0,568.2,909.3,1175.3,598.7,1567.4,3472.2,3477.1,626.2,814.4,1507.8,1002.2,919.4,807.7,4.0,0.0,16.0,-1192.0,2821.0,12427.0,-10229.0,28.0,-31.0,-2.0,6.0,-3.0,9.0,7012.0,-13559.0,4983.0,-3253.0,12.0,0.0,-2.0,1.0
2022-05-06 12:46:13.379578-07:00,1148.0,713.4,963.7,918.6,795.2,771.1,1643.5,1630.3,3462.5,3468.6,1028.0,825.2,1395.7,3474.6,1241.7,1215.1,3474.6,3474.6,299.0,578.6,915.2,1177.0,602.8,1559.0,3472.2,3477.1,626.2,807.7,1516.2,1003.9,911.8,805.2,7.0,-6.0,13.0,-1179.0,2807.0,12435.0,-10224.0,-8.0,-58.0,-29.0,3.0,-7.0,4.0,7007.0,-13562.0,4984.0,-3251.0,-17.0,3.0,5.0,1.0
2022-05-06 12:46:13.409904-07:00,1148.0,713.4,963.7,918.6,801.9,766.2,1645.4,1624.7,3462.5,3468.6,1028.0,825.2,1393.9,3468.6,1239.1,1208.0,3467.4,3475.9,311.3,572.2,915.2,1177.0,602.8,1559.0,3471.0,3473.4,627.0,813.5,1516.2,1003.9,911.8,805.2,6.0,3.0,16.0,-1184.0,2787.0,12424.0,-10243.0,81.0,-3.0,-33.0,2.0,0.0,7.0,7022.0,-13554.0,4980.0,-3257.0,54.0,-7.0,-4.0,1.0
2022-05-06 12:46:13.769979-07:00,1157.7,718.4,967.1,922.8,801.9,766.2,1645.4,1624.7,3468.6,3469.8,1027.1,817.7,1393.9,3468.6,1239.1,1208.0,3467.4,3475.9,311.3,572.2,916.0,1165.6,602.0,1563.7,3471.0,3473.4,627.0,813.5,1508.8,993.6,911.8,796.0,-3.0,0.0,8.0,-1191.0,2780.0,12411.0,-10260.0,-8.0,-16.0,12.0,1.0,-1.0,12.0,7029.0,-13551.0,4978.0,-3260.0,-30.0,3.0,3.0,1.0
2022-05-06 12:46:13.770786-07:00,1157.7,718.4,967.1,922.8,797.7,759.6,1640.7,1609.6,3468.6,3469.8,1027.1,817.7,1389.4,3471.0,1239.1,1208.0,3473.4,3467.4,309.7,566.6,916.0,1165.6,602.0,1563.7,3467.4,3467.4,619.7,803.5,1508.8,993.6,911.8,796.0,3.0,-1.0,19.0,-1184.0,2778.0,12420.0,-10250.0,-10.0,-2.0,-10.0,1.0,-9.0,9.0,7020.0,-13555.0,4980.0,-3257.0,9.0,2.0,0.0,1.0
2022-05-06 12:46:13.772300-07:00,1148.0,720.0,959.4,919.4,797.7,759.6,1640.7,1609.6,3472.2,3478.3,1024.5,828.5,1389.4,3471.0,1239.1,1208.0,3473.4,3467.4,309.7,566.6,905.0,1180.6,594.7,1557.1,3467.4,3467.4,619.7,803.5,1501.4,1000.5,913.5,804.4,2.0,-1.0,8.0,-1191.0,2767.0,12414.0,-10260.0,18.0,-17.0,-25.0,5.0,0.0,4.0,7030.0,-13550.0,4978.0,-3261.0,6.0,4.0,2.0,1.0
2022-05-06 12:46:13.773858-07:00,1145.4,720.0,959.4,919.4,801.9,762.0,1633.1,1612.4,3472.2,3478.3,1024.5,828.5,1393.0,3464.9,1242.6,1211.5,3478.3,3473.4,304.3,570.6,905.0,1180.6,594.7,1564.6,3467.4,3474.6,628.6,808.5,1501.4,1000.5,913.5,800.2,9.0,-1.0,15.0,-1184.0,2757.0,12414.0,-10263.0,-3.0,-29.0,-10.0,1.0,-3.0,4.0,7032.0,-13549.0,4977.0,-3262.0,13.0,-7.0,-1.0,1.0
2022-05-06 12:46:13.829166-07:00,1145.4,710.1,967.1,923.7,801.9,762.0,1633.1,1612.4,3472.2,3473.4,1021.9,825.2,1393.0,3464.9,1242.6,1208.0,3480.7,3473.4,304.3,570.6,911.8,1177.9,601.2,1564.6,3467.4,3474.6,628.6,808.5,1516.2,1003.9,922.8,800.2,6.0,2.0,23.0,-1188.0,2747.0,12408.0,-10272.0,38.0,-1.0,-18.0,2.0,-3.0,11.0,7041.0,-13544.0,4975.0,-3265.0,35.0,-1.0,3.0,1.0
2022-05-06 12:46:13.829853-07:00,1145.4,710.1,967.1,923.7,801.9,762.0,1633.1,1612.4,3472.2,3473.4,1021.9,825.2,1393.0,3464.9,1242.6,1208.0,3480.7,3473.4,304.3,570.6,911.8,1177.9,601.2,1564.6,3467.4,3474.6,628.6,808.5,1516.2,1003.9,922.8,800.2,6.0,2.0,23.0,-1188.0,2747.0,12408.0,-10272.0,38.0,-1.0,-18.0,2.0,-3.0,11.0,7041.0,-13544.0,4975.0,-3265.0,35.0,-1.0,3.0,1.0
2022-05-06 12:46:13.859386-07:00,1143.6,715.9,967.1,913.5,800.2,765.3,1635.0,1610.5,3469.8,3467.4,1025.4,818.5,1382.1,3472.2,1240.8,1212.4,3478.3,3479.5,308.2,571.4,908.4,1174.4,593.9,1562.7,3479.5,3478.3,626.2,798.5,1507.8,999.6,914.4,805.2,5.0,-15.0,3.0,-1223.0,2724.0,12400.0,-10284.0,-13.0,-7.0,-27.0,9.0,-5.0,0.0,7034.0,-13545.0,4977.0,-3276.0,-10.0,7.0,-7.0,1.0
2022-05-06 12:46:13.950120-07:00,1137.5,715.1,967.1,913.5,805.2,768.7,1640.7,1610.5,3478.3,3477.1,1025.4,818.5,1394.8,3471.0,1240.8,1212.4,3478.3,3474.6,308.2,567.4,908.4,1174.4,593.9,1552.5,3479.5,3467.4,618.1,796.9,1507.8,999.6,918.6,796.0,2.0,0.0,7.0,-1226.0,2717.0,12397.0,-10289.0,30.0,-19.0,-21.0,4.0,-6.0,4.0,7039.0,-13542.0,4976.0,-3278.0,34.0,-5.0,0.0,1.0
2022-05-06 12:46:13.979568-07:00,1137.5,715.1,975.6,919.4,805.2,768.7,1638.8,1635.0,3478.3,3477.1,1021.1,821.0,1394.8,3471.0,1238.2,1209.7,3477.1,3471.0,308.2,567.4,913.5,1175.3,593.9,1552.5,3467.4,3480.7,618.1,796.9,1508.8,1001.3,918.6,796.0,6.0,0.0,18.0,-1231.0,2700.0,12388.0,-10304.0,23.0,-22.0,-26.0,4.0,-5.0,10.0,7049.0,-13536.0,4973.0,-3282.0,19.0,0.0,-5.0,1.0
2022-05-06 12:46:14.010118-07:00,1149.8,711.8,975.6,919.4,799.4,765.3,1638.8,1635.0,3469.8,3468.6,1021.1,821.0,1385.7,3462.5,1238.2,1209.7,3477.1,3471.0,308.2,573.0,913.5,1175.3,595.5,1551.5,3467.4,3480.7,623.8,798.5,1508.8,1001.3,916.9,796.0,7.0,3.0,12.0,-1232.0,2697.0,12386.0,-10307.0,-4.0,-2.0,-3.0,4.0,-2.0,5.0,7051.0,-13536.0,4973.0,-3282.0,-1.0,4.0,4.0,1.0
2022-05-06 12:46:14.069607-07:00,1149.8,711.8,961.1,917.7,799.4,765.3,1621.8,1588.0,3469.8,3468.6,1021.1,818.5,1385.7,3462.5,1230.2,1206.2,3469.8,3467.4,308.2,573.0,921.1,1177.0,595.5,1551.5,3475.9,3479.5,623.8,798.5,1505.1,1000.5,916.9,796.0,0.0,-4.0,14.0,-1233.0,2694.0,12387.0,-10307.0,8.0,-12.0,-8.0,1.0,-5.0,7.0,7050.0,-13536.0,4973.0,-3282.0,12.0,-2.0,-3.0,1.0
2022-05-06 12:46:14.129626-07:00,1141.9,710.1,961.1,917.7,796.0,761.2,1621.8,1588.0,3457.6,3478.3,1021.1,818.5,1395.7,3479.5,1230.2,1206.2,3469.8,3467.4,309.0,573.8,921.1,1177.0,592.3,1550.6,3475.9,3479.5,620.5,798.5,1505.1,1000.5,916.9,797.7,2.0,3.0,9.0,-1229.0,2689.0,12382.0,-10314.0,-2.0,-33.0,-5.0,3.0,-7.0,8.0,7053.0,-13535.0,4972.0,-3282.0,-12.0,-8.0,-5.0,1.0
2022-05-06 12:46:14.159586-07:00,1141.9,710.1,962.0,926.2,796.0,762.0,1609.6,1587.1,3457.6,3478.3,1026.3,813.5,1395.7,3475.9,1239.1,1213.3,3474.6,3484.4,308.2,573.8,907.6,1184.1,592.3,1550.6,3469.8,3472.2,620.5,798.5,1510.6,1002.2,916.9,797.7,7.0,-12.0,15.0,-1214.0,2680.0,12385.0,-10314.0,9.0,-26.0,13.0,5.0,-13.0,5.0,7048.0,-13539.0,4972.0,-3277.0,7.0,-15.0,1.0,1.0
2022-05-06 12:46:14.219570-07:00,1144.5,708.5,967.1,926.2,798.5,762.0,1609.6,1587.1,3477.1,3477.1,1026.3,813.5,1394.8,3475.9,1239.1,1213.3,3474.6,3484.4,308.2,561.0,907.6,1176.2,587.5,1559.0,3469.8,3472.2,620.5,791.0,1510.6,1001.3,911.0,799.4,2.0,14.0,16.0,-1215.0,2675.0,12371.0,-10333.0,46.0,-12.0,-22.0,4.0,2.0,11.0,7063.0,-13532.0,4967.0,-3280.0,25.0,5.0,0.0,1.0
2022-05-06 12:46:14.279623-07:00,1144.5,708.5,967.1,918.6,798.5,757.1,1617.1,1597.4,3477.1,3477.1,1026.3,813.5,1394.8,3467.4,1239.1,1216.0,3477.1,3471.0,307.4,561.0,905.9,1176.2,587.5,1559.0,3479.5,3475.9,626.2,791.0,1505.1,1001.3,911.0,799.4,3.0,-15.0,17.0,-1217.0,2672.0,12378.0,-10325.0,-37.0,5.0,12.0,6.0,-6.0,5.0,7052.0,-13538.0,4970.0,-3276.0,-35.0,2.0,2.0,1.0
2022-05-06 12:46:14.310017-07:00,1147.1,713.4,961.1,918.6,798.5,757.1,1617.1,1597.4,3472.2,3473.4,1019.4,813.5,1395.7,3467.4,1239.1,1216.0,3477.1,3471.0,307.4,573.0,905.9,1174.4,593.1,1567.4,3479.5,3475.9,626.2,793.5,1505.1,998.7,914.4,801.9,7.0,15.0,14.0,-1216.0,2678.0,12376.0,-10326.0,33.0,11.0,-6.0,3.0,-6.0,9.0,7060.0,-13533.0,4969.0,-3278.0,41.0,6.0,7.0,1.0
2022-05-06 12:46:14.369546-07:00,1147.1,713.4,961.1,915.2,798.5,753.8,1614.3,1594.6,3472.2,3473.4,1019.4,820.2,1395.7,3466.1,1229.3,1212.4,3478.3,3473.4,305.1,573.0,919.4,1174.4,593.1,1567.4,3475.9,3480.7,623.8,793.5,1516.2,998.7,914.4,801.9,0.0,-14.0,8.0,-1224.0,2669.0,12374.0,-10330.0,-20.0,-2.0,-16.0,0.0,-5.0,6.0,7057.0,-13535.0,4969.0,-3279.0,-32.0,2.0,-9.0,1.0
2022-05-06 12:46:14.429604-07:00,1144.5,716.7,959.4,918.6,798.5,753.8,1614.3,1594.6,3478.3,3466.1,1016.8,816.0,1397.6,3466.1,1229.3,1212.4,3478.3,3473.4,305.1,579.4,914.4,1183.2,587.5,1557.1,3475.9,3480.7,623.8,789.4,1507.8,997.0,908.4,801.9,9.0,6.0,12.0,-1224.0,2669.0,12376.0,-10328.0,16.0,2.0,-6.0,7.0,-6.0,8.0,7061.0,-13533.0,4968.0,-3280.0,22.0,6.0,0.0,1.0
2022-05-06 12:46:14.489468-07:00,1144.5,716.7,959.4,918.6,797.7,758.7,1619.9,1581.4,3478.3,3466.1,1016.8,816.0,1394.8,3464.9,1232.8,1209.7,3481.9,3467.4,309.7,573.8,914.4,1183.2,587.5,1557.1,3478.3,3480.7,624.6,791.0,1507.8,997.0,908.4,801.9,5.0,-2.0,9.0,-1231.0,2660.0,12371.0,-10335.0,20.0,-11.0,-23.0,8.0,1.0,7.0,7066.0,-13529.0,4968.0,-3284.0,-4.0,8.0,-7.0,1.0
2022-05-06 12:46:14.520059-07:00,1137.5,704.4,958.5,913.5,797.7,758.7,1619.9,1581.4,3471.0,3468.6,1020.2,820.2,1394.8,3464.9,1232.8,1209.7,3481.9,3467.4,309.7,573.8,907.6,1174.4,588.3,1555.3,3478.3,3480.7,624.6,791.0,1507.8,995.3,916.9,794.4,2.0,-5.0,13.0,-1230.0,2657.0,12374.0,-10332.0,-7.0,-7.0,-2.0,5.0,-7.0,6.0,7063.0,-13531.0,4969.0,-3283.0,-2.0,1.0,-4.0,1.0
2022-05-06 12:46:14.579530-07:00,1137.5,704.4,958.5,913.5,797.7,748.0,1611.5,1588.9,3471.0,3468.6,1020.2,820.2,1390.3,3460.1,1244.4,1208.0,3467.4,3474.6,306.7,570.6,907.6,1174.4,588.3,1555.3,3483.2,3479.5,619.7,795.2,1507.8,995.3,916.9,794.4,2.0,-5.0,18.0,-1232.0,2657.0,12374.0,-10332.0,1.0,12.0,3.0,3.0,-9.0,9.0,7065.0,-13530.0,4968.0,-3283.0,13.0,-4.0,-2.0,1.0
2022-05-06 12:46:14.669543-07:00,1135.7,705.2,961.1,918.6,797.7,748.0,1611.5,1588.9,3478.3,3478.3,1018.5,819.4,1390.3,3460.1,1244.4,1208.0,3467.4,3474.6,306.7,570.6,908.4,1168.2,590.7,1567.4,3483.2,3479.5,619.7,795.2,1503.2,993.6,911.8,805.2,0.0,-1.0,10.0,-1236.0,2654.0,12368.0,-10339.0,31.0,-18.0,-24.0,5.0,-3.0,6.0,7071.0,-13527.0,4967.0,-3286.0,5.0,2.0,1.0,1.0
2022-05-06 12:46:14.759613-07:00,1135.7,705.2,961.1,918.6,803.5,753.8,1619.0,1608.7,3478.3,3478.3,1018.5,819.4,1393.0,3464.9,1240.8,1208.0,3475.9,3478.3,304.3,576.2,908.4,1168.2,590.7,1567.4,3475.9,3464.9,618.9,789.4,1503.2,993.6,911.8,805.2,0.0,-6.0,21.0,-1239.0,2646.0,12361.0,-10349.0,26.0,5.0,3.0,2.0,-12.0,8.0,7073.0,-13526.0,4966.0,-3287.0,26.0,-7.0,-4.0,1.0
2022-05-06 12:46:14.880386-07:00,1140.1,704.4,954.3,917.7,803.5,753.8,1619.0,1583.3,3478.3,3464.9,1014.2,817.7,1393.0,3464.9,1240.8,1214.2,3466.1,3478.3,304.3,576.2,913.5,1172.6,587.5,1556.2,3479.5,3464.9,618.9,789.4,1510.6,999.6,909.3,803.5,9.0,0.0,15.0,-1241.0,2642.0,12354.0,-10358.0,23.0,-11.0,-16.0,12.0,2.0,6.0,7083.0,-13520.0,4964.0,-3290.0,7.0,3.0,4.0,1.0
2022-05-06 12:46:14.881324-07:00,1138.4,704.4,954.3,917.7,797.7,749.6,1619.9,1583.3,3467.4,3464.9,1014.2,817.7,1399.4,3463.7,1238.2,1214.2,3466.1,3480.7,302.8,569.0,913.5,1172.6,587.5,1551.5,3479.5,3480.7,620.5,788.6,1510.6,999.6,909.3,799.4,9.0,0.0,17.0,-1238.0,2637.0,12353.0,-10361.0,-21.0,-10.0,9.0,6.0,-3.0,6.0,7081.0,-13521.0,4964.0,-3290.0,-14.0,1.0,-5.0,1.0
2022-05-06 12:46:14.882224-07:00,1138.4,706.9,962.0,921.1,797.7,749.6,1619.9,1575.8,3467.4,3475.9,1021.1,811.0,1399.4,3463.7,1238.2,1209.7,3473.4,3480.7,302.8,569.0,908.4,1169.1,589.1,1551.5,3475.9,3480.7,620.5,788.6,1500.4,993.6,911.8,799.4,4.0,0.0,21.0,-1238.0,2638.0,12353.0,-10361.0,32.0,2.0,-7.0,3.0,-7.0,10.0,7084.0,-13520.0,4964.0,-3290.0,29.0,4.0,10.0,1.0
2022-05-06 12:46:14.883422-07:00,1140.1,706.9,962.0,921.1,806.0,758.7,1619.9,1575.8,3475.9,3475.9,1021.1,811.0,1386.6,3475.9,1237.3,1209.7,3473.4,3474.6,304.3,569.8,908.4,1169.1,589.1,1553.4,3475.9,3478.3,614.1,792.7,1500.4,993.6,911.8,798.5,1.0,0.0,12.0,-1236.0,2641.0,12353.0,-10360.0,-36.0,3.0,18.0,3.0,-8.0,9.0,7082.0,-13521.0,4965.0,-3289.0,-14.0,-7.0,9.0,1.0
2022-05-06 12:46:14.939938-07:00,1140.1,707.7,956.0,921.1,806.0,758.7,1619.9,1577.7,3475.9,3478.3,1021.1,818.5,1386.6,3475.9,1237.3,1202.7,3473.4,3474.6,304.3,569.8,905.9,1175.3,586.7,1553.4,3483.2,3478.3,614.1,792.7,1507.8,997.9,914.4,798.5,1.0,-4.0,17.0,-1232.0,2640.0,12356.0,-10357.0,2.0,-14.0,-13.0,-1.0,-9.0,11.0,7081.0,-13521.0,4965.0,-3288.0,19.0,1.0,0.0,1.0
2022-05-06 12:46:14.969521-07:00,1138.4,708.5,956.0,921.1,799.4,760.4,1604.9,1577.7,3467.4,3471.0,1021.1,818.5,1391.2,3464.9,1237.3,1202.7,3473.4,3467.4,302.8,573.8,905.9,1175.3,589.1,1563.7,3483.2,3473.4,619.7,791.9,1507.8,997.9,913.5,796.0,4.0,0.0,9.0,-1236.0,2634.0,12349.0,-10367.0,24.0,0.0,-7.0,3.0,-2.0,8.0,7091.0,-13516.0,4963.0,-3291.0,4.0,-1.0,-4.0,1.0
2022-05-06 12:46:15.090317-07:00,1138.4,708.5,958.5,914.4,799.4,760.4,1614.3,1579.6,3467.4,3471.0,1019.4,811.9,1391.2,3464.9,1232.8,1211.5,3485.6,3477.1,302.8,573.8,919.4,1170.0,589.1,1563.7,3483.2,3472.2,619.7,791.9,1511.5,1000.5,913.5,796.0,8.0,-2.0,23.0,-1229.0,2635.0,12355.0,-10360.0,-30.0,-6.0,16.0,8.0,-9.0,12.0,7085.0,-13520.0,4964.0,-3289.0,-21.0,-6.0,7.0,1.0
2022-05-06 12:46:15.091259-07:00,1142.7,710.1,958.5,914.4,801.0,759.6,1614.3,1579.6,3463.7,3473.4,1019.4,811.9,1397.6,3471.0,1232.8,1211.5,3485.6,3477.1,306.7,577.0,919.4,1170.0,590.7,1547.8,3483.2,3472.2,620.5,788.6,1511.5,1000.5,908.4,795.2,5.0,2.0,14.0,-1232.0,2634.0,12350.0,-10366.0,14.0,10.0,-11.0,4.0,0.0,6.0,7087.0,-13518.0,4964.0,-3290.0,13.0,7.0,0.0,1.0
2022-05-06 12:46:15.119513-07:00,1142.7,710.1,962.0,921.1,801.0,759.6,1607.7,1579.6,3463.7,3473.4,1024.5,821.9,1397.6,3471.0,1236.4,1216.0,3471.0,3485.6,306.7,577.0,907.6,1172.6,590.7,1547.8,3479.5,3473.4,620.5,788.6,1506.9,993.6,908.4,795.2,7.0,0.0,4.0,-1234.0,2631.0,12348.0,-10369.0,8.0,-12.0,0.0,3.0,2.0,0.0,7089.0,-13517.0,4963.0,-3291.0,12.0,4.0,8.0,1.0
2022-05-06 12:46:15.149750-07:00,1137.5,711.0,962.0,921.1,801.9,755.4,1607.7,1579.6,3464.9,3472.2,1024.5,821.9,1388.5,3474.6,1236.4,1216.0,3471.0,3485.6,312.8,571.4,907.6,1172.6,585.9,1557.1,3479.5,3473.4,627.0,791.9,1506.9,993.6,909.3,801.9,5.0,2.0,19.0,-1231.0,2627.0,12348.0,-10370.0,4.0,-21.0,-7.0,5.0,-7.0,15.0,7092.0,-13516.0,4963.0,-3292.0,26.0,-6.0,0.0,1.0
2022-05-06 12:46:15.209746-07:00,1137.5,711.0,964.5,911.0,801.9,755.4,1604.0,1578.6,3464.9,3472.2,1017.6,813.5,1388.5,3474.6,1248.0,1210.6,3467.4,3477.1,312.8,571.4,906.7,1171.8,585.9,1557.1,3473.4,3483.2,627.0,791.9,1499.5,1002.2,909.3,801.9,4.0,5.0,15.0,-1235.0,2616.0,12337.0,-10386.0,46.0,-3.0,-21.0,5.0,2.0,4.0,7104.0,-13509.0,4960.0,-3296.0,36.0,4.0,-6.0,1.0
2022-05-06 12:46:15.270073-07:00,1140.1,705.2,962.0,911.0,802.7,758.7,1604.0,1578.6,3479.5,3474.6,1021.9,813.5,1385.7,3467.4,1248.0,1210.6,3467.4,3477.1,305.1,574.6,906.7,1174.4,581.8,1553.4,3473.4,3483.2,623.8,786.1,1499.5,1001.3,911.8,798.5,5.0,-6.0,14.0,-1238.0,2612.0,12336.0,-10388.0,0.0,-3.0,-2.0,4.0,-6.0,5.0,7103.0,-13510.0,4960.0,-3296.0,9.0,-1.0,2.0,1.0
2022-05-06 12:46:15.299695-07:00,1140.1,705.2,962.0,922.8,802.7,758.7,1603.0,1589.9,3479.5,3474.6,1021.9,815.2,1385.7,3475.9,1241.7,1209.7,3464.9,3484.4,301.3,574.6,912.7,1174.4,581.8,1553.4,3469.8,3474.6,617.3,786.1,1504.1,1001.3,911.8,798.5,5.0,-3.0,17.0,-1239.0,2609.0,12332.0,-10393.0,5.0,-12.0,-10.0,4.0,-7.0,11.0,7107.0,-13508.0,4959.0,-3297.0,8.0,-4.0,3.0,1.0
2022-05-06 12:46:15.360187-07:00,1140.1,695.4,959.4,922.8,797.7,758.7,1603.0,1589.9,3478.3,3468.6,1014.2,815.2,1393.9,3475.9,1241.7,1209.7,3464.9,3484.4,301.3,577.0,912.7,1174.4,581.8,1547.8,3469.8,3474.6,617.3,783.6,1504.1,997.0,907.6,800.2,10.0,5.0,16.0,-1239.0,2607.0,12330.0,-10396.0,-8.0,7.0,4.0,5.0,-1.0,9.0,7114.0,-13504.0,4957.0,-3300.0,9.0,0.0,-2.0,1.0
2022-05-06 12:46:15.450227-07:00,1140.1,695.4,959.4,907.6,797.7,754.6,1604.0,1563.7,3478.3,3468.6,1014.2,811.0,1393.9,3471.0,1248.0,1209.7,3461.3,3467.4,306.7,577.0,916.9,1174.4,581.8,1547.8,3468.6,3485.6,620.5,783.6,1501.4,997.0,907.6,800.2,5.0,1.0,17.0,-1245.0,2608.0,12330.0,-10395.0,21.0,11.0,-11.0,1.0,-9.0,12.0,7110.0,-13506.0,4958.0,-3298.0,8.0,1.0,1.0,1.0
2022-05-06 12:46:15.451479-07:00,1134.0,716.7,958.5,907.6,801.9,754.6,1604.0,1563.7,3472.2,3464.9,1026.3,811.0,1394.8,3471.0,1248.0,1209.7,3461.3,3467.4,306.7,570.6,916.9,1168.2,582.6,1552.5,3468.6,3485.6,620.5,783.6,1501.4,998.7,907.6,798.5,11.0,17.0,-33.0,-1248.0,2583.0,12325.0,-10407.0,2.0,-118.0,-58.0,14.0,15.0,19.0,7095.0,-13512.0,4963.0,-3297.0,-130.0,33.0,-4.0,1.0
2022-05-06 12:46:15.539681-07:00,1134.0,716.7,958.5,917.7,802.7,758.7,1611.5,1559.0,3472.2,3464.9,1026.3,821.0,1388.5,3468.6,1263.1,1209.7,3477.1,3488.0,305.1,572.2,913.5,1168.2,582.6,1552.5,3472.2,3480.7,622.2,902.5,1508.8,998.7,907.6,798.5,42.0,5.0,35.0,-1115.0,2417.0,12422.0,-10347.0,-359.0,-590.0,-253.0,14.0,6.0,-41.0,6980.0,-13569.0,4996.0,-3263.0,-304.0,-20.0,14.0,1.0
2022-05-06 12:46:15.629506-07:00,1134.0,711.8,973.1,921.1,802.7,758.7,1611.5,1559.0,3478.3,3473.4,1009.9,826.0,1388.5,3468.6,1263.1,1209.7,3477.1,3488.0,305.1,572.2,911.8,1171.8,593.1,1547.8,3472.2,3480.7,622.2,902.5,1506.9,993.6,908.4,803.5,39.0,86.0,13.0,-1148.0,2159.0,12418.0,-10404.0,515.0,-121.0,-638.0,10.0,-23.0,43.0,6992.0,-13567.0,4993.0,-3250.0,233.0,-9.0,22.0,1.0
2022-05-06 12:46:15.660171-07:00,1134.0,711.8,973.1,921.1,794.4,791.9,1609.6,1615.2,3478.3,3473.4,1009.9,826.0,1385.7,3467.4,1268.5,1221.3,3479.5,3477.1,305.9,574.6,911.8,1171.8,593.1,1547.8,3483.2,3483.2,648.9,1125.2,1506.9,993.6,908.4,803.5,0.0,-57.0,50.0,-1325.0,1774.0,12387.0,-10492.0,336.0,-383.0,-1079.0,0.0,-30.0,4.0,6981.0,-13562.0,5017.0,-3255.0,-109.0,54.0,45.0,1.0
2022-05-06 12:46:15.960317-07:00,1142.7,760.4,994.5,936.4,794.4,791.9,1609.6,1615.2,3468.6,3467.4,1007.3,836.1,1385.7,3467.4,1268.5,1221.3,3479.5,3477.1,305.9,574.6,910.1,1164.7,640.0,1568.3,3483.2,3483.2,648.9,1125.2,1507.8,1002.2,916.9,800.2,13.0,58.0,-28.0,-1624.0,1120.0,12182.0,-10776.0,1215.0,-625.0,-1801.0,6.0,2.0,28.0,7122.0,-13462.0,5041.0,-3328.0,659.0,175.0,154.0,1.0
2022-05-06 12:46:16.049924-07:00,1142.7,760.4,994.5,936.4,797.7,814.4,1630.3,1453.4,3468.6,3467.4,1007.3,836.1,1401.2,3471.0,1246.2,1208.0,3480.7,3475.9,312.0,581.0,910.1,1164.7,640.0,1568.3,3474.6,3477.1,693.8,1146.3,1507.8,1002.2,916.9,800.2,-13.0,-20.0,-35.0,-1937.0,590.0,12027.0,-10940.0,281.0,-55.0,-831.0,-18.0,33.0,-29.0,7239.0,-13363.0,5076.0,-3421.0,274.0,151.0,53.0,1.0
2022-05-06 12:46:16.051987-07:00,1176.2,792.7,978.2,937.3,797.7,814.4,1630.3,1355.8,3472.2,3460.1,1010.8,831.9,1401.2,3471.0,1246.2,1210.6,3488.0,3475.9,312.0,581.0,912.7,1177.9,659.5,1548.7,3475.9,3477.1,693.8,1146.3,1507.8,1003.0,912.7,808.5,-11.0,0.0,-24.0,-2056.0,447.0,12131.0,-10810.0,-562.0,-160.0,-415.0,12.0,-14.0,36.0,7154.0,-13389.0,5133.0,-3410.0,-375.0,72.0,75.0,1.0
2022-05-06 12:46:16.052865-07:00,1184.1,792.7,978.2,937.3,799.4,826.0,1610.5,1355.8,3479.5,3460.1,1010.8,831.9,1405.8,3477.1,1245.3,1210.6,3488.0,3475.9,308.2,581.0,912.7,1177.9,659.5,1545.9,3475.9,3478.3,692.1,1139.2,1507.8,1003.0,912.7,807.7,-14.0,-67.0,-13.0,-2048.0,267.0,12255.0,-10677.0,-170.0,-255.0,-192.0,-15.0,0.0,-35.0,7061.0,-13426.0,5188.0,-3378.0,-101.0,-7.0,9.0,1.0
2022-05-06 12:46:16.053576-07:00,1184.1,791.9,979.9,939.8,799.4,826.0,1610.5,1325.0,3479.5,3466.1,1015.1,837.7,1405.8,3477.1,1245.3,1208.0,3474.6,3475.9,308.2,581.0,905.0,1180.6,656.2,1545.9,3479.5,3478.3,692.1,1139.2,1506.0,1008.2,916.9,807.7,5.0,3.0,25.0,-2020.0,257.0,12251.0,-10686.0,87.0,5.0,103.0,7.0,-5.0,14.0,7064.0,-13434.0,5165.0,-3372.0,29.0,-29.0,-41.0,1.0
2022-05-06 12:46:16.054147-07:00,1184.1,791.9,979.9,939.8,799.4,826.0,1610.5,1325.0,3479.5,3466.1,1015.1,837.7,1405.8,3477.1,1245.3,1208.0,3474.6,3475.9,308.2,581.0,905.0,1180.6,656.2,1545.9,3479.5,3478.3,692.1,1139.2,1506.0,1008.2,916.9,807.7,5.0,3.0,25.0,-2020.0,257.0,12251.0,-10686.0,87.0,5.0,103.0,7.0,-5.0,14.0,7064.0,-13434.0,5165.0,-3372.0,29.0,-29.0,-41.0,1.0
2022-05-06 12:46:16.109519-07:00,1187.6,787.7,986.7,946.6,816.9,814.4,1582.4,1300.7,3467.4,3466.1,1004.8,832.7,1400.3,3473.4,1237.3,1209.7,3483.2,3474.6,303.6,585.9,919.4,1172.6,662.7,1545.0,3483.2,3473.4,677.4,1092.9,1515.3,1013.3,922.0,807.7,3.0,-61.0,33.0,-1925.0,327.0,12313.0,-10631.0,41.0,-78.0,39.0,2.0,-18.0,2.0,6960.0,-13496.0,5175.0,-3325.0,33.0,-31.0,-34.0,1.0
2022-05-06 12:46:16.111536-07:00,1177.0,784.4,986.7,946.6,803.5,808.5,1582.4,1300.7,3471.0,3468.6,1004.8,832.7,1405.8,3471.0,1237.3,1209.7,3483.2,3474.6,300.5,584.3,919.4,1172.6,661.9,1536.6,3483.2,3473.4,678.2,1079.0,1515.3,1013.3,915.2,798.5,0.0,31.0,8.0,-1917.0,330.0,12259.0,-10694.0,157.0,19.0,-8.0,9.0,-3.0,22.0,7016.0,-13471.0,5154.0,-3344.0,104.0,-6.0,-8.0,1.0
2022-05-06 12:46:16.169569-07:00,1177.0,784.4,976.5,938.1,803.5,808.5,1575.8,1284.6,3471.0,3468.6,1007.3,827.7,1405.8,3471.0,1235.5,1212.4,3471.0,3471.0,300.5,584.3,912.7,1177.0,661.9,1536.6,3462.5,3475.9,678.2,1079.0,1506.9,1000.5,915.2,798.5,7.0,-28.0,9.0,-1899.0,295.0,12277.0,-10678.0,-147.0,-134.0,-12.0,7.0,-2.0,-4.0,7008.0,-13476.0,5151.0,-3344.0,-82.0,-5.0,-14.0,1.0
2022-05-06 12:46:16.199663-07:00,1182.3,790.2,976.5,938.1,800.2,812.7,1575.8,1284.6,3472.2,3468.6,1007.3,827.7,1406.7,3478.3,1235.5,1212.4,3471.0,3471.0,305.1,579.4,912.7,1177.0,659.5,1541.3,3462.5,3475.9,679.1,1071.2,1506.9,1000.5,916.9,801.9,9.0,0.0,34.0,-1867.0,275.0,12295.0,-10664.0,30.0,-32.0,11.0,3.0,-5.0,9.0,7007.0,-13479.0,5148.0,-3339.0,43.0,-16.0,2.0,1.0
2022-05-06 12:46:16.260139-07:00,1182.3,790.2,981.6,939.0,800.2,812.7,1583.3,1279.2,3472.2,3468.6,1003.9,829.4,1406.7,3478.3,1242.6,1212.4,3460.1,3474.6,305.1,579.4,910.1,1177.0,659.5,1541.3,3478.3,3478.3,679.1,1071.2,1501.4,1009.9,916.9,801.9,-2.0,5.0,-11.0,-1869.0,282.0,12271.0,-10690.0,50.0,6.0,41.0,3.0,13.0,-3.0,7024.0,-13471.0,5143.0,-3345.0,-2.0,8.0,-4.0,1.0
2022-05-06 12:46:16.319916-07:00,1184.1,781.1,987.6,939.0,806.9,804.4,1583.3,1279.2,3471.0,3462.5,1003.0,829.4,1402.1,3464.9,1242.6,1212.4,3460.1,3474.6,302.0,585.9,910.1,1171.8,656.2,1540.3,3478.3,3478.3,674.2,1066.0,1501.4,998.7,919.4,806.0,11.0,-12.0,29.0,-1840.0,283.0,12291.0,-10672.0,-72.0,-86.0,18.0,3.0,-10.0,2.0,7008.0,-13479.0,5146.0,-3339.0,-28.0,-16.0,-2.0,1.0
2022-05-06 12:46:16.410033-07:00,1184.1,781.1,987.6,931.3,806.9,809.4,1573.9,1282.8,3471.0,3462.5,1003.0,837.7,1402.1,3471.0,1231.0,1214.2,3475.9,3468.6,305.9,585.9,902.5,1171.8,656.2,1540.3,3479.5,3472.2,675.0,1066.0,1509.7,998.7,919.4,806.0,-6.0,-5.0,22.0,-1840.0,270.0,12281.0,-10685.0,64.0,28.0,-22.0,1.0,-6.0,24.0,7023.0,-13473.0,5141.0,-3342.0,57.0,5.0,-3.0,1.0
2022-05-06 12:46:16.411080-07:00,1179.7,781.9,982.5,931.3,806.0,809.4,1573.9,1282.8,3463.7,3457.6,1006.5,837.7,1404.9,3471.0,1231.0,1214.2,3475.9,3468.6,305.9,586.7,902.5,1178.8,652.2,1545.9,3479.5,3472.2,675.0,1070.3,1509.7,1006.5,916.0,808.5,15.0,-9.0,8.0,-1830.0,269.0,12282.0,-10685.0,-75.0,-46.0,40.0,11.0,-4.0,-6.0,7023.0,-13473.0,5141.0,-3342.0,-52.0,-18.0,-7.0,1.0
2022-05-06 12:46:16.469725-07:00,1179.7,781.9,982.5,934.7,806.0,798.5,1574.9,1286.4,3463.7,3457.6,1006.5,831.1,1404.9,3483.2,1239.1,1209.7,3477.1,3467.4,309.0,586.7,913.5,1178.8,652.2,1545.9,3480.7,3479.5,672.5,1070.3,1503.2,1006.5,916.0,808.5,-1.0,-9.0,28.0,-1832.0,265.0,12280.0,-10687.0,104.0,38.0,-60.0,6.0,-14.0,22.0,7033.0,-13472.0,5130.0,-3339.0,130.0,-18.0,-13.0,1.0
2022-05-06 12:46:16.499629-07:00,1170.9,781.1,980.7,934.7,811.9,798.5,1574.9,1286.4,3466.1,3473.4,1005.6,831.1,1403.0,3483.2,1239.1,1209.7,3477.1,3467.4,309.0,582.6,913.5,1182.3,652.2,1545.0,3480.7,3479.5,672.5,1058.2,1503.2,1004.8,916.0,805.2,6.0,-8.0,0.0,-1838.0,233.0,12243.0,-10729.0,46.0,-86.0,-16.0,10.0,5.0,-2.0,7076.0,-13450.0,5118.0,-3355.0,51.0,-1.0,-4.0,1.0
2022-05-06 12:46:16.560091-07:00,1170.9,781.1,980.7,938.1,799.4,797.7,1587.1,1277.4,3466.1,3473.4,1005.6,830.2,1404.9,3473.4,1240.8,1210.6,3467.4,3457.6,302.0,585.1,906.7,1182.3,652.2,1545.0,3471.0,3473.4,667.6,1056.5,1495.8,1004.8,916.0,805.2,15.0,-12.0,32.0,-1807.0,212.0,12265.0,-10710.0,-91.0,-83.0,4.0,5.0,-12.0,5.0,7066.0,-13459.0,5116.0,-3342.0,-44.0,-26.0,2.0,1.0
2022-05-06 12:46:16.889230-07:00,1173.5,781.1,982.5,931.3,799.4,797.7,1587.1,1277.4,3469.8,3472.2,1004.8,836.1,1404.9,3473.4,1240.8,1210.6,3467.4,3457.6,302.0,585.1,908.4,1175.3,651.4,1544.1,3471.0,3473.4,667.6,1056.5,1507.8,1003.0,916.0,802.7,-6.0,18.0,0.0,-1802.0,205.0,12257.0,-10719.0,22.0,-23.0,3.0,9.0,6.0,10.0,7077.0,-13455.0,5112.0,-3343.0,22.0,10.0,6.0,1.0
2022-05-06 12:46:16.890591-07:00,1173.5,781.1,982.5,931.3,799.4,797.7,1576.8,1273.9,3469.8,3472.2,1004.8,836.1,1404.0,3462.5,1239.1,1213.3,3475.9,3477.1,305.1,581.8,908.4,1175.3,651.4,1544.1,3472.2,3474.6,670.9,1048.7,1507.8,1003.0,916.0,802.7,12.0,-22.0,21.0,-1780.0,188.0,12278.0,-10699.0,-53.0,-46.0,0.0,4.0,-6.0,-5.0,7056.0,-13464.0,5121.0,-3338.0,-35.0,-6.0,10.0,1.0
2022-05-06 12:46:16.949609-07:00,1176.2,781.9,985.0,935.6,799.4,797.7,1576.8,1273.9,3468.6,3468.6,995.3,828.5,1404.0,3462.5,1239.1,1213.3,3475.9,3477.1,305.1,581.8,917.7,1174.4,651.4,1544.1,3472.2,3474.6,670.9,1048.7,1505.1,1002.2,917.7,799.4,-6.0,6.0,-8.0,-1787.0,194.0,12251.0,-10729.0,122.0,0.0,30.0,7.0,1.0,13.0,7077.0,-13454.0,5116.0,-3340.0,72.0,-4.0,15.0,1.0
2022-05-06 12:46:16.980167-07:00,1176.2,781.9,985.0,935.6,803.5,796.0,1571.1,1276.5,3468.6,3468.6,995.3,828.5,1400.3,3472.2,1231.0,1208.0,3478.3,3472.2,305.9,581.0,917.7,1174.4,651.4,1544.1,3479.5,3481.9,661.1,1049.6,1505.1,1002.2,917.7,799.4,12.0,-5.0,23.0,-1747.0,190.0,12268.0,-10717.0,-119.0,-100.0,32.0,6.0,-8.0,9.0,7063.0,-13462.0,5121.0,-3332.0,-89.0,-13.0,4.0,1.0
2022-05-06 12:46:16.981381-07:00,1171.8,784.4,981.6,933.9,803.5,796.0,1571.1,1268.5,3472.2,3466.1,994.5,829.4,1400.3,3472.2,1231.0,1211.5,3475.9,3472.2,305.9,581.0,913.5,1183.2,644.9,1547.8,3477.1,3481.9,661.1,1049.6,1501.4,1012.5,918.6,806.9,3.0,10.0,16.0,-1742.0,180.0,12257.0,-10730.0,120.0,27.0,-10.0,1.0,3.0,12.0,7077.0,-13457.0,5115.0,-3332.0,97.0,-14.0,4.0,1.0
2022-05-06 12:46:17.070162-07:00,1170.9,784.4,981.6,933.9,801.9,806.9,1566.5,1268.5,3467.4,3466.1,994.5,829.4,1400.3,3467.4,1234.6,1211.5,3475.9,3469.8,299.0,580.2,913.5,1183.2,644.9,1541.3,3477.1,3479.5,666.8,1040.9,1501.4,1012.5,918.6,806.0,5.0,-24.0,20.0,-1744.0,186.0,12258.0,-10729.0,-81.0,-16.0,15.0,2.0,-9.0,-3.0,7076.0,-13457.0,5114.0,-3333.0,-77.0,9.0,6.0,1.0
2022-05-06 12:46:17.071404-07:00,1169.1,776.9,978.2,932.2,798.5,801.9,1563.7,1274.7,3475.9,3467.4,1003.0,826.9,1402.1,3472.2,1239.1,1209.7,3474.6,3467.4,299.0,578.6,911.8,1182.3,645.7,1551.5,3479.5,3475.9,667.6,1046.1,1504.1,1015.1,916.0,799.4,-2.0,-6.0,-6.0,-1750.0,183.0,12247.0,-10740.0,-33.0,-54.0,-2.0,3.0,0.0,3.0,7081.0,-13454.0,5115.0,-3335.0,-35.0,-3.0,-4.0,1.0
2022-05-06 12:46:17.072606-07:00,1169.1,773.6,981.6,933.9,798.5,801.9,1563.7,1262.2,3475.9,3472.2,1000.5,831.1,1402.1,3472.2,1239.1,1213.3,3475.9,3467.4,299.0,578.6,916.0,1181.5,640.8,1551.5,3483.2,3475.9,667.6,1046.1,1501.4,1007.3,913.5,799.4,12.0,1.0,31.0,-1730.0,175.0,12253.0,-10737.0,48.0,-2.0,9.0,0.0,-13.0,25.0,7074.0,-13460.0,5113.0,-3328.0,22.0,-23.0,1.0,1.0
2022-05-06 12:46:17.073626-07:00,1170.9,773.6,981.6,933.9,804.4,807.7,1564.6,1262.2,3467.4,3472.2,1000.5,831.1,1397.6,3478.3,1238.2,1213.3,3475.9,3478.3,306.7,578.6,916.0,1181.5,640.8,1545.0,3483.2,3480.7,666.8,1046.1,1501.4,1007.3,913.5,804.4,3.0,-2.0,3.0,-1733.0,168.0,12247.0,-10743.0,-64.0,-29.0,-25.0,4.0,-5.0,4.0,7083.0,-13456.0,5111.0,-3330.0,-42.0,5.0,4.0,1.0
2022-05-06 12:46:17.099512-07:00,1170.9,778.6,979.0,930.5,804.4,807.7,1571.1,1259.6,3467.4,3478.3,998.7,831.9,1397.6,3478.3,1239.1,1214.2,3472.2,3468.6,306.7,578.6,919.4,1167.4,646.5,1545.0,3479.5,3488.0,666.8,1046.1,1510.6,1004.8,913.5,804.4,4.0,-19.0,13.0,-1724.0,146.0,12256.0,-10735.0,49.0,-65.0,-22.0,6.0,-2.0,-3.0,7074.0,-13460.0,5113.0,-3326.0,20.0,-3.0,5.0,1.0
2022-05-06 12:46:17.160271-07:00,1175.3,775.3,979.0,930.5,801.0,798.5,1571.1,1259.6,3471.0,3478.3,998.7,831.9,1415.8,3462.5,1239.1,1214.2,3472.2,3468.6,305.9,573.0,919.4,1167.4,644.9,1542.2,3479.5,3488.0,662.7,1041.8,1510.6,1004.8,916.9,803.5,0.0,11.0,10.0,-1713.0,139.0,12246.0,-10748.0,-17.0,-35.0,17.0,2.0,1.0,14.0,7086.0,-13456.0,5108.0,-3327.0,-4.0,-14.0,1.0,1.0
2022-05-06 12:46:17.219368-07:00,1175.3,775.3,987.6,928.8,801.0,798.5,1557.1,1261.3,3471.0,3478.3,997.9,831.1,1415.8,3462.5,1242.6,1209.7,3477.1,3477.1,305.9,573.0,905.0,1176.2,644.9,1542.2,3478.3,3479.5,662.7,1041.8,1497.7,1009.0,916.9,803.5,11.0,-1.0,20.0,-1697.0,133.0,12256.0,-10739.0,-19.0,-27.0,17.0,6.0,-6.0,7.0,7076.0,-13461.0,5111.0,-3323.0,-3.0,-6.0,3.0,1.0
2022-05-06 12:46:17.279635-07:00,1168.2,778.6,987.6,928.8,801.9,802.7,1557.1,1261.3,3471.0,3473.4,997.9,831.1,1399.4,3463.7,1242.6,1209.7,3477.1,3477.1,304.3,581.8,905.0,1176.2,645.7,1543.1,3478.3,3479.5,664.4,1038.3,1497.7,1009.0,917.7,797.7,-2.0,-7.0,15.0,-1695.0,132.0,12255.0,-10740.0,3.0,16.0,1.0,-1.0,1.0,0.0,7077.0,-13460.0,5113.0,-3322.0,10.0,-2.0,4.0,1.0
2022-05-06 12:46:17.309602-07:00,1168.2,778.6,984.2,936.4,801.9,802.7,1579.6,1270.3,3471.0,3473.4,997.0,824.4,1399.4,3463.7,1232.8,1217.7,3468.6,3484.4,304.3,581.8,913.5,1177.9,645.7,1543.1,3477.1,3475.9,664.4,1038.3,1502.3,1000.5,917.7,797.7,4.0,-4.0,6.0,-1693.0,135.0,12254.0,-10742.0,-15.0,-26.0,8.0,7.0,-4.0,5.0,7080.0,-13459.0,5112.0,-3323.0,-14.0,0.0,2.0,1.0
2022-05-06 12:46:17.369547-07:00,1163.8,771.1,979.9,936.4,802.7,794.4,1579.6,1270.3,3464.9,3477.1,993.6,824.4,1405.8,3462.5,1232.8,1217.7,3468.6,3484.4,303.6,585.1,913.5,1180.6,648.9,1542.2,3477.1,3475.9,664.4,1039.2,1502.3,1004.8,919.4,800.2,2.0,-10.0,21.0,-1686.0,120.0,12257.0,-10740.0,1.0,-19.0,-18.0,2.0,-7.0,6.0,7081.0,-13459.0,5111.0,-3321.0,-3.0,-15.0,6.0,1.0
2022-05-06 12:46:17.429540-07:00,1163.8,771.1,979.9,943.2,802.7,798.5,1579.6,1257.8,3464.9,3477.1,993.6,826.0,1405.8,3469.8,1239.1,1216.8,3485.6,3477.1,302.0,585.1,911.8,1180.6,648.9,1542.2,3473.4,3472.2,675.8,1039.2,1501.4,1004.8,919.4,800.2,4.0,8.0,10.0,-1684.0,120.0,12244.0,-10755.0,21.0,4.0,26.0,10.0,12.0,1.0,7088.0,-13455.0,5109.0,-3323.0,37.0,5.0,3.0,1.0
2022-05-06 12:46:17.459508-07:00,1166.5,774.5,982.5,943.2,808.5,798.5,1579.6,1257.8,3471.0,3467.4,997.0,826.0,1398.5,3469.8,1239.1,1216.8,3485.6,3477.1,302.0,581.8,911.8,1201.8,647.3,1545.0,3473.4,3472.2,675.8,1033.2,1501.4,1001.3,919.4,803.5,5.0,-6.0,14.0,-1677.0,111.0,12252.0,-10747.0,-3.0,-40.0,-41.0,3.0,-3.0,-2.0,7081.0,-13459.0,5112.0,-3320.0,18.0,-2.0,2.0,1.0
2022-05-06 12:46:17.519886-07:00,1166.5,774.5,982.5,928.8,808.5,801.9,1593.6,1263.1,3471.0,3467.4,997.0,829.4,1398.5,3457.6,1237.3,1207.1,3483.2,3467.4,302.8,581.8,913.5,1201.8,647.3,1545.0,3471.0,3479.5,666.0,1033.2,1508.8,1001.3,919.4,803.5,0.0,0.0,13.0,-1689.0,98.0,12229.0,-10772.0,83.0,23.0,-4.0,3.0,-1.0,10.0,7102.0,-13448.0,5107.0,-3328.0,42.0,-3.0,-4.0,1.0
2022-05-06 12:46:17.549865-07:00,1170.0,772.8,988.5,928.8,801.0,801.9,1593.6,1263.1,3477.1,3469.8,1001.3,829.4,1403.0,3457.6,1237.3,1207.1,3483.2,3467.4,302.8,579.4,913.5,1175.3,637.6,1547.8,3471.0,3479.5,666.0,1035.7,1508.8,997.9,925.4,805.2,8.0,-14.0,17.0,-1675.0,102.0,12241.0,-10760.0,-91.0,-44.0,27.0,7.0,-7.0,4.0,7087.0,-13456.0,5110.0,-3322.0,-52.0,1.0,5.0,1.0
2022-05-06 12:46:17.609544-07:00,1170.0,772.8,988.5,933.0,801.0,793.5,1576.8,1264.0,3477.1,3469.8,1001.3,828.5,1403.0,3472.2,1235.5,1209.7,3471.0,3485.6,298.2,579.4,908.4,1175.3,637.6,1547.8,3478.3,3472.2,662.7,1035.7,1504.1,997.9,925.4,805.2,2.0,-2.0,13.0,-1678.0,94.0,12226.0,-10776.0,100.0,23.0,-28.0,0.0,0.0,15.0,7105.0,-13446.0,5106.0,-3329.0,77.0,-4.0,-1.0,1.0
2022-05-06 12:46:17.669438-07:00,1164.7,771.1,979.0,929.6,801.0,793.5,1576.8,1264.0,3469.8,3472.2,994.5,832.7,1400.3,3472.2,1235.5,1209.7,3471.0,3485.6,298.2,583.5,913.5,1179.7,638.4,1542.2,3478.3,3472.2,662.7,1034.0,1498.6,1003.0,920.3,799.4,3.0,8.0,0.0,-1672.0,92.0,12225.0,-10779.0,-95.0,-35.0,18.0,8.0,4.0,0.0,7101.0,-13449.0,5107.0,-3327.0,-86.0,1.0,0.0,1.0
2022-05-06 12:46:17.699594-07:00,1164.7,771.1,979.0,929.6,797.7,791.9,1578.6,1251.5,3469.8,3472.2,994.5,832.7,1403.0,3461.3,1234.6,1206.2,3472.2,3478.3,302.8,584.3,913.5,1179.7,638.4,1542.2,3467.4,3477.1,661.1,1032.3,1498.6,1003.0,920.3,799.4,10.0,-16.0,23.0,-1677.0,90.0,12240.0,-10761.0,24.0,38.0,-25.0,-2.0,-14.0,12.0,7091.0,-13454.0,5109.0,-3322.0,58.0,0.0,-2.0,1.0
2022-05-06 12:46:17.760325-07:00,1175.3,771.1,979.0,932.2,797.7,791.9,1578.6,1251.5,3478.3,3473.4,991.0,827.7,1403.0,3461.3,1234.6,1206.2,3472.2,3478.3,302.8,584.3,911.8,1177.9,640.8,1539.4,3467.4,3477.1,661.1,1032.3,1504.1,1007.3,919.4,804.4,-5.0,4.0,-10.0,-1683.0,88.0,12230.0,-10771.0,-41.0,-19.0,11.0,3.0,6.0,0.0,7104.0,-13447.0,5105.0,-3327.0,-56.0,-1.0,-4.0,1.0
2022-05-06 12:46:17.879590-07:00,1175.3,771.1,979.0,932.2,801.9,787.7,1573.0,1252.4,3478.3,3473.4,991.0,827.7,1419.5,3467.4,1232.8,1204.4,3481.9,3478.3,305.9,569.0,911.8,1177.9,640.8,1539.4,3474.6,3475.9,676.6,1029.7,1504.1,1007.3,919.4,804.4,15.0,-15.0,22.0,-1672.0,95.0,12249.0,-10752.0,-13.0,20.0,15.0,7.0,-16.0,9.0,7087.0,-13458.0,5108.0,-3317.0,26.0,-9.0,0.0,1.0
2022-05-06 12:46:17.880694-07:00,1163.0,779.4,966.2,933.9,801.9,787.7,1573.0,1252.4,3472.2,3473.4,994.5,835.2,1419.5,3467.4,1232.8,1204.4,3481.9,3478.3,305.9,569.0,907.6,1172.6,637.6,1543.1,3474.6,3475.9,676.6,1029.7,1502.3,1003.9,918.6,803.5,1.0,-3.0,0.0,-1677.0,93.0,12236.0,-10765.0,0.0,-10.0,-3.0,4.0,4.0,-1.0,7097.0,-13451.0,5109.0,-3322.0,-22.0,2.0,8.0,1.0
2022-05-06 12:46:17.909507-07:00,1164.7,779.4,966.2,933.9,796.9,799.4,1578.6,1251.5,3464.9,3473.4,994.5,835.2,1401.2,3462.5,1232.8,1209.7,3477.1,3472.2,301.3,578.6,907.6,1172.6,637.6,1545.0,3477.1,3472.2,663.6,1032.3,1502.3,1003.9,918.6,805.2,10.0,-8.0,13.0,-1679.0,106.0,12243.0,-10757.0,5.0,44.0,19.0,0.0,-8.0,1.0,7089.0,-13457.0,5109.0,-3315.0,10.0,-21.0,-8.0,1.0
2022-05-06 12:46:17.999505-07:00,1164.7,775.3,979.0,941.5,796.9,799.4,1578.6,1259.6,3464.9,3467.4,995.3,827.7,1401.2,3462.5,1232.8,1210.6,3475.9,3472.2,301.3,578.6,910.1,1166.5,638.4,1545.0,3471.0,3472.2,663.6,1032.3,1504.1,1004.8,916.9,805.2,-5.0,-2.0,7.0,-1676.0,118.0,12246.0,-10754.0,-55.0,-42.0,42.0,6.0,-2.0,2.0,7080.0,-13464.0,5108.0,-3308.0,-76.0,12.0,5.0,1.0
2022-05-06 12:46:18.001209-07:00,1167.4,775.3,979.0,941.5,803.5,794.4,1569.3,1259.6,3475.9,3467.4,995.3,827.7,1400.3,3468.6,1231.0,1210.6,3475.9,3474.6,299.0,581.8,910.1,1166.5,638.4,1545.0,3471.0,3473.4,663.6,1031.4,1504.1,1004.8,916.9,803.5,11.0,-10.0,20.0,-1665.0,117.0,12262.0,-10737.0,1.0,6.0,-19.0,1.0,-9.0,5.0,7057.0,-13475.0,5114.0,-3300.0,28.0,-12.0,3.0,1.0
2022-05-06 12:46:18.060100-07:00,1167.4,774.5,981.6,935.6,803.5,794.4,1569.3,1249.7,3475.9,3471.0,997.0,829.4,1400.3,3468.6,1231.0,1209.7,3474.6,3474.6,299.0,581.8,920.3,1178.8,633.5,1545.0,3479.5,3473.4,663.6,1031.4,1501.4,1002.2,911.0,803.5,-7.0,0.0,-1.0,-1680.0,114.0,12250.0,-10749.0,15.0,1.0,-8.0,7.0,7.0,0.0,7067.0,-13472.0,5110.0,-3301.0,-46.0,2.0,-3.0,1.0
2022-05-06 12:46:18.090059-07:00,1163.8,774.5,981.6,935.6,798.5,789.4,1568.3,1249.7,3467.4,3471.0,997.0,829.4,1399.4,3469.8,1232.8,1209.7,3474.6,3478.3,303.6,580.2,920.3,1178.8,633.5,1541.3,3479.5,3475.9,662.7,1022.8,1501.4,1002.2,911.0,801.9,8.0,-12.0,21.0,-1665.0,124.0,12275.0,-10723.0,-119.0,-12.0,45.0,6.0,-20.0,12.0,7042.0,-13485.0,5116.0,-3291.0,-34.0,5.0,12.0,1.0
2022-05-06 12:46:18.179699-07:00,1163.8,772.0,987.6,944.1,798.5,789.4,1574.9,1250.6,3467.4,3473.4,997.0,817.7,1399.4,3469.8,1231.9,1206.2,3478.3,3483.2,303.6,580.2,904.2,1177.0,633.5,1541.3,3475.9,3477.1,662.7,1022.8,1522.7,1005.6,919.4,801.9,-1.0,-14.0,11.0,-1669.0,120.0,12276.0,-10720.0,32.0,0.0,-31.0,0.0,-7.0,8.0,7045.0,-13482.0,5118.0,-3291.0,57.0,1.0,-3.0,1.0
2022-05-06 12:46:18.269583-07:00,1167.4,764.5,987.6,944.1,798.5,792.7,1574.9,1250.6,3464.9,3468.6,997.0,817.7,1402.1,3469.8,1231.9,1206.2,3478.3,3483.2,304.3,575.4,904.2,1177.0,633.5,1539.4,3475.9,3477.1,666.0,1024.5,1522.7,1005.6,912.7,806.0,3.0,15.0,-1.0,-1667.0,113.0,12277.0,-10720.0,-102.0,-37.0,5.0,1.0,11.0,0.0,7047.0,-13482.0,5118.0,-3291.0,-106.0,-6.0,-3.0,1.0
2022-05-06 12:46:18.270690-07:00,1167.4,764.5,979.9,938.1,798.5,792.7,1565.5,1255.1,3464.9,3468.6,993.6,831.9,1402.1,3469.8,1229.3,1206.2,3488.0,3473.4,304.3,575.4,913.5,1179.7,633.5,1539.4,3477.1,3478.3,666.0,1024.5,1506.0,1020.2,912.7,806.0,2.0,-23.0,29.0,-1671.0,109.0,12288.0,-10706.0,70.0,30.0,-26.0,4.0,-16.0,15.0,7040.0,-13485.0,5120.0,-3289.0,134.0,10.0,10.0,1.0
2022-05-06 12:46:18.329657-07:00,1161.2,770.3,979.9,938.1,800.2,791.0,1565.5,1255.1,3472.2,3467.4,993.6,831.9,1400.3,3472.2,1229.3,1206.2,3488.0,3473.4,301.3,581.0,913.5,1179.7,631.9,1541.3,3477.1,3478.3,662.7,1028.8,1506.0,1020.2,919.4,804.4,-8.0,13.0,-18.0,-1673.0,106.0,12257.0,-10742.0,-8.0,-31.0,29.0,10.0,9.0,-4.0,7063.0,-13472.0,5116.0,-3300.0,-14.0,6.0,-2.0,1.0
2022-05-06 12:46:18.389400-07:00,1161.2,770.3,983.3,924.5,800.2,791.0,1565.5,1247.1,3472.2,3467.4,1003.0,831.9,1400.3,3472.2,1235.5,1207.1,3472.2,3478.3,301.3,581.0,916.0,1178.8,631.9,1541.3,3466.1,3483.2,662.7,1028.8,1503.2,997.0,919.4,804.4,15.0,-11.0,28.0,-1668.0,99.0,12285.0,-10711.0,-16.0,4.0,-51.0,0.0,-19.0,23.0,7042.0,-13484.0,5120.0,-3290.0,17.0,-3.0,1.0,1.0
2022-05-06 12:46:18.391258-07:00,1157.7,767.8,983.3,924.5,811.9,795.2,1565.5,1247.1,3457.6,3475.9,1003.0,831.9,1396.7,3473.4,1235.5,1207.1,3472.2,3478.3,302.0,577.8,916.0,1178.8,632.7,1541.3,3466.1,3483.2,659.5,1018.5,1503.2,997.0,914.4,797.7,0.0,9.0,-6.0,-1663.0,77.0,12268.0,-10731.0,-3.0,-44.0,8.0,1.0,4.0,-1.0,7055.0,-13475.0,5119.0,-3297.0,-27.0,4.0,-5.0,1.0
2022-05-06 12:46:18.479660-07:00,1157.7,767.8,976.5,936.4,811.9,792.7,1565.5,1236.4,3457.6,3475.9,1001.3,835.2,1396.7,3471.0,1230.2,1210.6,3474.6,3464.9,308.2,577.8,911.8,1194.7,632.7,1541.3,3469.8,3472.2,658.7,1018.5,1504.1,998.7,914.4,797.7,16.0,-7.0,24.0,-1664.0,69.0,12283.0,-10714.0,-5.0,21.0,-40.0,7.0,-12.0,13.0,7043.0,-13482.0,5121.0,-3294.0,31.0,-6.0,4.0,1.0
2022-05-06 12:46:18.539703-07:00,1164.7,765.3,981.6,936.4,799.4,792.7,1565.5,1236.4,3467.4,3463.7,995.3,835.2,1393.0,3471.0,1230.2,1210.6,3474.6,3464.9,308.2,575.4,911.8,1174.4,627.0,1548.7,3469.8,3472.2,658.7,1021.1,1504.1,1003.0,916.0,804.4,-4.0,8.0,-4.0,-1686.0,61.0,12267.0,-10729.0,-4.0,12.0,-32.0,2.0,4.0,3.0,7058.0,-13474.0,5119.0,-3300.0,-18.0,2.0,0.0,1.0
2022-05-06 12:46:18.570325-07:00,1164.7,765.3,981.6,939.0,799.4,791.0,1578.6,1249.7,3467.4,3463.7,995.3,829.4,1393.0,3464.9,1232.8,1208.0,3477.1,3471.0,302.0,575.4,908.4,1174.4,627.0,1548.7,3479.5,3471.0,664.4,1021.1,1499.5,1003.0,916.0,804.4,8.0,-17.0,21.0,-1691.0,77.0,12277.0,-10716.0,-23.0,85.0,46.0,3.0,-7.0,-2.0,7043.0,-13485.0,5115.0,-3292.0,-11.0,-30.0,-26.0,1.0
2022-05-06 12:46:18.629657-07:00,1153.3,772.8,978.2,939.0,796.9,791.0,1578.6,1249.7,3463.7,3461.3,1001.3,829.4,1406.7,3464.9,1232.8,1208.0,3477.1,3471.0,302.0,581.8,908.4,1175.3,635.1,1538.5,3479.5,3471.0,664.4,1021.9,1499.5,999.6,914.4,798.5,0.0,9.0,79.0,-1809.0,270.0,12289.0,-10680.0,-283.0,880.0,248.0,-7.0,1.0,17.0,7045.0,-13501.0,5073.0,-3286.0,11.0,-76.0,-139.0,1.0
2022-05-06 12:46:18.659295-07:00,1153.3,772.8,978.2,928.8,796.9,796.0,1572.1,1335.9,3463.7,3461.3,1001.3,824.4,1406.7,3473.4,1229.3,1209.7,3466.1,3472.2,305.9,581.8,911.0,1175.3,635.1,1538.5,3478.3,3474.6,667.6,1021.9,1507.8,999.6,914.4,798.5,-24.0,-74.0,-22.0,-2061.0,694.0,12169.0,-10753.0,513.0,898.0,440.0,11.0,9.0,33.0,7199.0,-13440.0,4969.0,-3360.0,525.0,-16.0,-117.0,1.0
2022-05-06 12:46:18.690036-07:00,1155.0,769.5,967.9,916.0,805.2,796.0,1572.1,1335.9,3469.8,3468.6,1032.3,826.0,1396.7,3473.4,1229.3,1209.7,3466.1,3472.2,305.9,579.4,921.1,1175.3,640.0,1541.3,3478.3,3474.6,667.6,1069.5,1495.8,997.9,901.7,801.9,7.0,4.0,-34.0,-2076.0,1159.0,12055.0,-10838.0,-175.0,795.0,1006.0,-2.0,27.0,-49.0,7286.0,-13403.0,4915.0,-3398.0,128.0,-58.0,-84.0,1.0
2022-05-06 12:46:18.779684-07:00,1155.0,769.5,967.9,916.0,798.5,791.0,1638.8,1619.0,3469.8,3468.6,1032.3,826.0,1397.6,3471.0,1231.0,1203.5,3467.4,3474.6,312.0,576.2,921.1,1175.3,640.0,1541.3,3475.9,3474.6,657.0,918.6,1495.8,997.9,901.7,801.9,13.0,-22.0,31.0,-2047.0,1753.0,12091.0,-10723.0,-344.0,664.0,1010.0,11.0,-36.0,43.0,7263.0,-13431.0,4898.0,-3363.0,18.0,-51.0,29.0,1.0
2022-05-06 12:46:18.869624-07:00,1149.8,758.7,952.6,918.6,798.5,791.0,1638.8,1619.0,3473.4,3464.9,1026.3,818.5,1397.6,3471.0,1231.0,1203.5,3467.4,3474.6,312.0,576.2,912.7,1178.8,627.0,1540.3,3475.9,3474.6,657.0,918.6,1503.2,993.6,902.5,805.2,0.0,100.0,-36.0,-1911.0,2167.0,12110.0,-10650.0,-421.0,245.0,722.0,5.0,26.0,15.0,7263.0,-13426.0,4918.0,-3352.0,-174.0,17.0,48.0,1.0
2022-05-06 12:46:19.019567-07:00,1149.8,758.7,952.6,918.6,806.0,777.8,1666.3,1699.5,3473.4,3464.9,1026.3,818.5,1396.7,3469.8,1230.2,1204.4,3474.6,3468.6,310.5,575.4,912.7,1178.8,627.0,1540.3,3472.2,3478.3,649.7,866.3,1503.2,993.6,902.5,805.2,16.0,-31.0,-5.0,-1760.0,2391.0,12226.0,-10495.0,-378.0,77.0,487.0,6.0,-5.0,-4.0,7182.0,-13466.0,4949.0,-3322.0,-79.0,7.0,13.0,1.0
2022-05-06 12:46:19.021119-07:00,1148.9,750.5,968.8,924.5,806.0,777.8,1666.3,1699.5,3467.4,3471.0,1026.3,819.4,1396.7,3469.8,1230.2,1204.4,3474.6,3468.6,310.5,575.4,911.0,1177.0,627.8,1548.7,3472.2,3478.3,649.7,866.3,1499.5,983.3,900.8,811.9,7.0,50.0,-9.0,-1655.0,2562.0,12231.0,-10466.0,-152.0,14.0,351.0,11.0,4.0,6.0,7192.0,-13459.0,4951.0,-3323.0,-45.0,6.0,17.0,1.0
2022-05-06 12:46:19.022737-07:00,1148.9,750.5,968.8,924.5,811.0,777.8,1691.9,1683.3,3467.4,3471.0,1026.3,819.4,1398.5,3464.9,1229.3,1209.7,3468.6,3478.3,304.3,573.8,911.0,1177.0,627.8,1548.7,3483.2,3471.0,644.9,853.7,1499.5,983.3,900.8,811.9,19.0,5.0,8.0,-1568.0,2596.0,12270.0,-10425.0,-71.0,-112.0,57.0,4.0,-7.0,-2.0,7166.0,-13473.0,4959.0,-3311.0,-23.0,-15.0,-3.0,1.0
2022-05-06 12:46:19.169496-07:00,1154.2,734.8,967.1,921.1,811.0,777.8,1691.9,1645.4,3469.8,3469.8,1023.7,821.9,1398.5,3464.9,1229.3,1207.1,3472.2,3478.3,304.3,573.8,914.4,1175.3,610.8,1556.2,3477.1,3471.0,644.9,853.7,1504.1,1002.2,900.8,818.5,-5.0,0.0,-1.0,-1516.0,2583.0,12242.0,-10469.0,82.0,-153.0,113.0,2.0,3.0,3.0,7201.0,-13456.0,4947.0,-3323.0,102.0,5.0,-9.0,1.0
2022-05-06 12:46:19.200119-07:00,1139.2,734.8,967.1,921.1,801.0,770.3,1675.7,1645.4,3467.4,3469.8,1023.7,821.9,1387.5,3473.4,1227.5,1207.1,3472.2,3473.4,305.1,582.6,914.4,1175.3,610.8,1559.9,3477.1,3475.9,644.0,845.3,1504.1,1002.2,900.8,806.0,24.0,5.0,27.0,-1449.0,2568.0,12250.0,-10473.0,-20.0,-98.0,20.0,8.0,-12.0,9.0,7206.0,-13455.0,4943.0,-3322.0,31.0,-15.0,-11.0,1.0
2022-05-06 12:46:19.201230-07:00,1139.2,732.3,960.2,916.0,801.0,770.3,1675.7,1635.0,3467.4,3468.6,1024.5,814.4,1387.5,3473.4,1227.5,1204.4,3472.2,3473.4,305.1,582.6,905.0,1172.6,606.0,1559.9,3474.6,3475.9,644.0,845.3,1502.3,993.6,903.4,806.0,-2.0,-8.0,31.0,-1453.0,2546.0,12218.0,-10515.0,173.0,-12.0,-7.0,10.0,-4.0,26.0,7250.0,-13433.0,4928.0,-3337.0,143.0,8.0,-5.0,1.0
2022-05-06 12:46:19.289798-07:00,1143.6,732.3,960.2,916.0,805.2,768.7,1663.4,1635.0,3467.4,3468.6,1024.5,814.4,1390.3,3467.4,1231.0,1204.4,3472.2,3475.9,305.1,569.8,905.0,1172.6,606.0,1545.9,3474.6,3469.8,643.2,831.1,1502.3,993.6,903.4,813.5,7.0,28.0,-9.0,-1451.0,2541.0,12198.0,-10540.0,-88.0,-15.0,-8.0,3.0,14.0,-6.0,7266.0,-13424.0,4924.0,-3345.0,-83.0,9.0,4.0,1.0
2022-05-06 12:46:19.291825-07:00,1143.6,725.8,959.4,914.4,805.2,768.7,1663.4,1622.8,3467.4,3471.0,1025.4,815.2,1390.3,3467.4,1231.0,1202.7,3478.3,3475.9,305.1,569.8,904.2,1177.9,601.2,1545.9,3473.4,3469.8,643.2,831.1,1510.6,997.9,906.7,813.5,5.0,-5.0,15.0,-1456.0,2530.0,12208.0,-10529.0,79.0,-10.0,-36.0,4.0,-10.0,9.0,7264.0,-13425.0,4925.0,-3345.0,87.0,-3.0,-3.0,1.0
2022-05-06 12:46:19.292731-07:00,1140.1,729.0,959.4,914.4,797.7,767.8,1660.6,1622.8,3473.4,3469.8,1025.4,815.2,1393.9,3467.4,1232.8,1202.7,3478.3,3481.9,305.9,576.2,904.2,1177.9,601.2,1547.8,3473.4,3483.2,642.4,831.9,1510.6,997.9,905.0,809.4,2.0,0.0,10.0,-1454.0,2512.0,12204.0,-10539.0,-41.0,-40.0,-13.0,2.0,0.0,6.0,7274.0,-13420.0,4919.0,-3351.0,-28.0,-6.0,-14.0,1.0
2022-05-06 12:46:19.293610-07:00,1140.1,729.0,974.8,920.3,797.7,767.8,1657.7,1616.2,3473.4,3469.8,1019.4,819.4,1393.9,3467.4,1240.8,1206.2,3473.4,3477.1,305.9,576.2,911.0,1168.2,601.2,1547.8,3481.9,3483.2,642.4,831.9,1509.7,994.5,905.0,809.4,12.0,-1.0,19.0,-1448.0,2505.0,12206.0,-10540.0,9.0,-6.0,14.0,8.0,-2.0,7.0,7278.0,-13418.0,4918.0,-3353.0,26.0,-1.0,1.0,1.0
2022-05-06 12:46:19.349560-07:00,1137.5,718.4,974.8,920.3,806.0,764.5,1657.7,1616.2,3462.5,3473.4,1019.4,819.4,1391.2,3468.6,1240.8,1206.2,3473.4,3477.1,309.0,569.8,911.0,1168.2,596.3,1550.6,3481.9,3483.2,639.2,827.7,1509.7,994.5,906.7,804.4,8.0,9.0,5.0,-1434.0,2499.0,12216.0,-10531.0,-70.0,-51.0,-2.0,6.0,2.0,2.0,7269.0,-13422.0,4924.0,-3348.0,-57.0,3.0,10.0,1.0
2022-05-06 12:46:19.439633-07:00,1137.5,718.4,963.7,926.2,806.0,764.5,1651.1,1603.0,3462.5,3473.4,1025.4,818.5,1391.2,3468.6,1237.3,1207.1,3474.6,3475.9,309.0,569.8,924.5,1172.6,596.3,1550.6,3467.4,3474.6,639.2,827.7,1501.4,997.0,906.7,804.4,1.0,-5.0,10.0,-1423.0,2490.0,12222.0,-10528.0,7.0,-29.0,7.0,5.0,0.0,4.0,7264.0,-13424.0,4925.0,-3346.0,2.0,0.0,-2.0,1.0
2022-05-06 12:46:19.500113-07:00,1130.5,727.4,963.7,926.2,802.7,768.7,1651.1,1603.0,3473.4,3473.4,1025.4,818.5,1394.8,3478.3,1237.3,1207.1,3474.6,3475.9,300.5,569.0,924.5,1172.6,597.1,1548.7,3467.4,3474.6,635.9,821.9,1501.4,997.0,906.7,803.5,8.0,0.0,5.0,-1403.0,2475.0,12227.0,-10528.0,-10.0,-78.0,5.0,7.0,-1.0,6.0,7263.0,-13425.0,4925.0,-3346.0,8.0,3.0,0.0,1.0
2022-05-06 12:46:19.501244-07:00,1130.5,727.4,967.1,921.1,802.7,761.2,1644.5,1598.3,3473.4,3473.4,1021.9,821.9,1394.8,3467.4,1239.9,1191.2,3475.9,3477.1,305.1,569.0,905.0,1180.6,597.1,1548.7,3475.9,3475.9,639.2,821.9,1506.9,996.2,906.7,803.5,9.0,-15.0,18.0,-1375.0,2452.0,12238.0,-10524.0,-21.0,-74.0,-1.0,3.0,-9.0,4.0,7259.0,-13427.0,4926.0,-3346.0,3.0,-12.0,-6.0,1.0
2022-05-06 12:46:19.559616-07:00,1138.4,720.0,966.2,921.1,802.7,761.2,1644.5,1598.3,3466.1,3473.4,1021.9,821.9,1389.4,3467.4,1239.9,1191.2,3475.9,3477.1,305.1,567.4,905.0,1173.5,594.7,1552.5,3475.9,3475.9,639.2,821.0,1506.9,994.5,910.1,803.5,6.0,10.0,13.0,-1369.0,2433.0,12220.0,-10551.0,58.0,-54.0,-15.0,5.0,4.0,10.0,7281.0,-13416.0,4919.0,-3353.0,56.0,11.0,-4.0,1.0
2022-05-06 12:46:19.589607-07:00,1138.4,720.0,966.2,911.0,802.7,761.2,1643.5,1604.0,3466.1,3473.4,1021.9,819.4,1389.4,3469.8,1243.5,1198.2,3475.9,3467.4,301.3,567.4,905.0,1173.5,594.7,1552.5,3477.1,3473.4,631.9,821.0,1501.4,994.5,910.1,803.5,11.0,-17.0,11.0,-1347.0,2414.0,12238.0,-10537.0,-60.0,-42.0,-3.0,6.0,-10.0,1.0,7271.0,-13420.0,4923.0,-3352.0,-31.0,-7.0,-6.0,1.0
2022-05-06 12:46:19.680312-07:00,1143.6,720.0,963.7,911.0,812.7,761.2,1643.5,1604.0,3478.3,3469.8,1020.2,819.4,1391.2,3469.8,1243.5,1198.2,3475.9,3467.4,301.3,573.8,905.0,1171.8,597.1,1551.5,3477.1,3473.4,631.9,826.0,1501.4,991.9,933.9,812.7,4.0,19.0,14.0,-1354.0,2400.0,12224.0,-10555.0,44.0,-24.0,-40.0,7.0,4.0,10.0,7284.0,-13413.0,4919.0,-3358.0,43.0,6.0,1.0,1.0
2022-05-06 12:46:19.681344-07:00,1143.6,720.0,963.7,911.8,812.7,762.0,1647.3,1589.9,3478.3,3469.8,1020.2,817.7,1391.2,3469.8,1239.1,1208.9,3478.3,3469.8,305.1,573.8,911.0,1171.8,597.1,1551.5,3477.1,3471.0,639.2,826.0,1506.0,991.9,933.9,812.7,-2.0,-13.0,4.0,-1354.0,2385.0,12233.0,-10549.0,-36.0,-33.0,-11.0,4.0,-5.0,5.0,7280.0,-13415.0,4920.0,-3357.0,-25.0,-3.0,-1.0,1.0
2022-05-06 12:46:19.740017-07:00,1125.2,721.6,955.1,911.8,806.0,762.0,1647.3,1589.9,3473.4,3462.5,1021.9,817.7,1382.1,3469.8,1239.1,1208.9,3478.3,3469.8,305.1,573.0,911.0,1175.3,593.1,1550.6,3477.1,3471.0,639.2,817.7,1506.0,987.6,909.3,805.2,13.0,4.0,20.0,-1352.0,2378.0,12230.0,-10553.0,36.0,12.0,-11.0,8.0,-10.0,12.0,7280.0,-13417.0,4917.0,-3353.0,36.0,-10.0,3.0,1.0
2022-05-06 12:46:19.800035-07:00,1125.2,721.6,955.1,915.2,802.7,764.5,1642.6,1573.0,3473.4,3462.5,1021.9,814.4,1393.0,3467.4,1245.3,1202.7,3475.9,3467.4,310.5,570.6,904.2,1175.3,593.1,1550.6,3477.1,3469.8,634.3,820.2,1503.2,987.6,909.3,805.2,10.0,4.0,10.0,-1373.0,2358.0,12221.0,-10566.0,49.0,-5.0,-78.0,8.0,2.0,4.0,7290.0,-13412.0,4914.0,-3357.0,23.0,1.0,-4.0,1.0
2022-05-06 12:46:19.859694-07:00,1127.0,715.1,966.2,916.0,802.7,764.5,1642.6,1573.0,3473.4,3469.8,1018.5,814.4,1393.0,3467.4,1245.3,1202.7,3475.9,3467.4,310.5,570.6,902.5,1173.5,590.7,1548.7,3477.1,3469.8,634.3,820.2,1508.8,986.7,912.7,808.5,1.0,-15.0,5.0,-1386.0,2338.0,12222.0,-10567.0,-13.0,-23.0,-28.0,5.0,-9.0,10.0,7286.0,-13414.0,4913.0,-3357.0,-25.0,1.0,-2.0,1.0
2022-05-06 12:46:19.890017-07:00,1127.0,715.1,966.2,916.0,805.2,767.0,1638.8,1582.4,3473.4,3469.8,1018.5,814.4,1389.4,3466.1,1241.7,1208.0,3469.8,3477.1,302.8,569.0,902.5,1173.5,590.7,1548.7,3472.2,3472.2,660.3,817.7,1508.8,986.7,912.7,808.5,6.0,-11.0,15.0,-1381.0,2326.0,12231.0,-10561.0,-30.0,-24.0,-14.0,3.0,-8.0,2.0,7281.0,-13417.0,4914.0,-3356.0,2.0,-5.0,5.0,1.0
2022-05-06 12:46:20.100237-07:00,1132.2,719.2,957.7,916.0,805.2,767.0,1638.8,1582.4,3472.2,3471.0,1014.2,816.0,1389.4,3466.1,1241.7,1208.0,3469.8,3477.1,302.8,569.0,909.3,1162.1,589.9,1546.9,3472.2,3472.2,660.3,817.7,1498.6,994.5,903.4,807.7,5.0,5.0,10.0,-1384.0,2322.0,12223.0,-10570.0,14.0,17.0,7.0,3.0,0.0,4.0,7290.0,-13412.0,4911.0,-3359.0,-7.0,-1.0,-2.0,1.0
2022-05-06 12:46:20.102807-07:00,1132.2,719.2,957.7,916.0,804.4,752.9,1638.8,1581.4,3472.2,3471.0,1014.2,816.0,1395.7,3462.5,1241.7,1216.0,3478.3,3468.6,298.2,576.2,909.3,1162.1,589.9,1546.9,3477.1,3483.2,634.3,812.7,1498.6,994.5,903.4,807.7,5.0,-2.0,9.0,-1389.0,2325.0,12220.0,-10572.0,8.0,6.0,-2.0,4.0,0.0,-1.0,7292.0,-13410.0,4911.0,-3362.0,2.0,4.0,6.0,1.0
2022-05-06 12:46:20.103865-07:00,1134.0,724.1,956.8,922.0,804.4,752.9,1638.8,1577.7,3467.4,3467.4,1017.6,816.0,1395.7,3462.5,1241.7,1210.6,3475.9,3468.6,298.2,576.2,906.7,1178.8,586.7,1552.5,3472.2,3483.2,634.3,812.7,1508.8,992.7,899.1,801.0,5.0,-1.0,3.0,-1390.0,2325.0,12222.0,-10570.0,0.0,-11.0,-7.0,7.0,-5.0,4.0,7291.0,-13411.0,4911.0,-3362.0,9.0,-7.0,5.0,1.0
2022-05-06 12:46:20.104747-07:00,1131.4,724.1,956.8,922.0,808.5,762.0,1626.5,1577.7,3478.3,3467.4,1017.6,816.0,1398.5,3472.2,1247.1,1210.6,3475.9,3473.4,317.4,569.0,906.7,1178.8,586.7,1545.9,3472.2,3477.1,631.9,814.4,1508.8,992.7,899.1,804.4,2.0,0.0,13.0,-1396.0,2310.0,12212.0,-10584.0,48.0,-5.0,-32.0,3.0,0.0,9.0,7302.0,-13405.0,4908.0,-3366.0,33.0,-7.0,-8.0,1.0
2022-05-06 12:46:20.310041-07:00,1131.4,715.9,960.2,916.0,808.5,762.0,1626.5,1568.3,3478.3,3461.3,1016.8,812.7,1398.5,3472.2,1247.1,1207.1,3475.9,3473.4,317.4,569.0,907.6,1170.0,588.3,1545.9,3477.1,3477.1,631.9,814.4,1507.8,994.5,903.4,804.4,6.0,-4.0,16.0,-1403.0,2304.0,12205.0,-10592.0,10.0,3.0,-14.0,7.0,-5.0,11.0,7307.0,-13403.0,4907.0,-3368.0,8.0,7.0,-1.0,1.0
2022-05-06 12:46:20.311254-07:00,1125.2,715.9,960.2,916.0,800.2,762.0,1625.6,1568.3,3468.6,3461.3,1016.8,812.7,1390.3,3471.0,1243.5,1207.1,3475.9,3471.0,305.1,569.8,907.6,1170.0,588.3,1544.1,3477.1,3472.2,634.3,808.5,1507.8,994.5,903.4,803.5,3.0,-2.0,6.0,-1407.0,2299.0,12203.0,-10595.0,-1.0,5.0,-8.0,7.0,-1.0,7.0,7308.0,-13402.0,4906.0,-3369.0,-10.0,-1.0,8.0,1.0
2022-05-06 12:46:20.312222-07:00,1125.2,714.2,956.8,914.4,800.2,762.0,1625.6,1562.7,3468.6,3474.6,1020.2,813.5,1390.3,3471.0,1243.5,1212.4,3477.1,3471.0,305.1,569.8,905.9,1170.9,586.7,1544.1,3477.1,3472.2,634.3,808.5,1502.3,986.7,905.9,803.5,1.0,1.0,7.0,-1406.0,2290.0,12203.0,-10597.0,24.0,-24.0,-34.0,1.0,-5.0,6.0,7306.0,-13403.0,4906.0,-3367.0,6.0,-10.0,2.0,1.0
2022-05-06 12:46:20.313055-07:00,1123.5,714.2,956.8,914.4,806.0,764.5,1633.1,1562.7,3472.2,3474.6,1020.2,813.5,1393.0,3478.3,1250.6,1212.4,3477.1,3467.4,305.1,569.0,905.9,1170.9,586.7,1548.7,3477.1,3478.3,635.1,806.9,1502.3,986.7,905.9,801.9,4.0,-1.0,11.0,-1416.0,2277.0,12195.0,-10608.0,21.0,4.0,-20.0,7.0,-6.0,11.0,7319.0,-13396.0,4901.0,-3374.0,21.0,-4.0,-5.0,1.0
2022-05-06 12:46:20.369570-07:00,1123.5,716.7,960.2,914.4,806.0,764.5,1639.8,1568.3,3472.2,3473.4,1015.9,821.9,1393.0,3478.3,1248.0,1208.9,3475.9,3475.9,305.1,569.0,902.5,1167.4,586.7,1548.7,3473.4,3485.6,635.1,806.9,1511.5,996.2,900.8,801.9,6.0,-5.0,11.0,-1419.0,2266.0,12198.0,-10606.0,-14.0,-14.0,-26.0,5.0,-2.0,-1.0,7316.0,-13398.0,4901.0,-3372.0,-22.0,6.0,1.0,1.0
2022-05-06 12:46:20.400066-07:00,1127.0,714.2,960.2,914.4,803.5,758.7,1639.8,1568.3,3462.5,3478.3,1015.9,821.9,1393.9,3467.4,1248.0,1208.9,3475.9,3475.9,307.4,577.0,902.5,1167.4,585.1,1539.4,3473.4,3485.6,637.6,802.7,1511.5,996.2,901.7,799.4,4.0,-2.0,10.0,-1427.0,2264.0,12197.0,-10607.0,28.0,16.0,-20.0,6.0,-7.0,11.0,7316.0,-13398.0,4901.0,-3372.0,19.0,2.0,3.0,1.0
2022-05-06 12:46:20.459602-07:00,1127.0,714.2,958.5,920.3,803.5,758.7,1628.4,1565.5,3462.5,3478.3,1009.0,818.5,1393.9,3467.4,1247.1,1209.7,3467.4,3475.9,307.4,577.0,909.3,1161.2,585.1,1539.4,3480.7,3479.5,637.6,802.7,1501.4,993.6,901.7,799.4,0.0,-6.0,0.0,-1436.0,2254.0,12194.0,-10611.0,-12.0,-17.0,-20.0,2.0,-1.0,2.0,7318.0,-13397.0,4901.0,-3373.0,-18.0,4.0,-6.0,1.0
2022-05-06 12:46:20.489599-07:00,1129.6,709.3,958.5,920.3,811.0,764.5,1628.4,1565.5,3461.3,3467.4,1009.0,818.5,1391.2,3478.3,1247.1,1209.7,3467.4,3475.9,310.5,570.6,909.3,1161.2,581.0,1544.1,3480.7,3479.5,622.2,807.7,1501.4,993.6,905.9,806.0,5.0,-2.0,20.0,-1429.0,2253.0,12198.0,-10607.0,-5.0,-4.0,8.0,5.0,-7.0,7.0,7317.0,-13398.0,4900.0,-3373.0,2.0,2.0,-9.0,1.0
2022-05-06 12:46:20.549417-07:00,1129.6,709.3,961.1,921.1,811.0,764.5,1635.0,1560.9,3461.3,3467.4,1021.9,811.9,1391.2,3478.3,1264.9,1205.3,3478.3,3477.1,310.5,570.6,906.7,1170.9,581.0,1544.1,3467.4,3477.1,622.2,807.7,1507.8,986.7,905.9,806.0,0.0,-5.0,20.0,-1435.0,2255.0,12195.0,-10610.0,17.0,23.0,-4.0,3.0,-4.0,10.0,7323.0,-13395.0,4898.0,-3376.0,15.0,2.0,-1.0,1.0
2022-05-06 12:46:20.609588-07:00,1128.7,711.8,960.2,921.1,807.7,754.6,1635.0,1560.9,3473.4,3473.4,1015.1,811.9,1391.2,3475.9,1264.9,1205.3,3478.3,3477.1,303.6,576.2,906.7,1170.9,585.9,1541.3,3467.4,3477.1,634.3,806.9,1507.8,988.5,908.4,806.9,10.0,-2.0,9.0,-1434.0,2258.0,12198.0,-10606.0,-21.0,-4.0,11.0,11.0,-4.0,1.0,7317.0,-13398.0,4900.0,-3374.0,-19.0,-2.0,6.0,1.0
2022-05-06 12:46:20.639855-07:00,1128.7,711.8,960.2,916.9,807.7,757.9,1622.8,1571.1,3473.4,3473.4,1015.1,814.4,1391.2,3469.8,1248.8,1204.4,3474.6,3480.7,305.1,576.2,912.7,1170.9,585.9,1541.3,3467.4,3474.6,631.1,806.9,1504.1,988.5,908.4,806.9,3.0,6.0,5.0,-1435.0,2255.0,12195.0,-10610.0,22.0,-12.0,-19.0,6.0,0.0,8.0,7320.0,-13396.0,4899.0,-3375.0,20.0,2.0,-7.0,1.0
2022-05-06 12:46:20.699727-07:00,1128.7,706.0,962.0,916.9,800.2,757.9,1622.8,1571.1,3474.6,3478.3,1018.5,814.4,1392.1,3469.8,1248.8,1204.4,3474.6,3480.7,305.1,585.9,912.7,1167.4,580.2,1548.7,3467.4,3474.6,631.1,801.0,1504.1,991.9,898.3,811.9,6.0,-7.0,13.0,-1435.0,2246.0,12197.0,-10610.0,-6.0,-14.0,-7.0,8.0,-4.0,4.0,7321.0,-13397.0,4895.0,-3377.0,3.0,0.0,-9.0,1.0
2022-05-06 12:46:20.759690-07:00,1128.7,706.0,962.0,917.7,800.2,751.3,1629.4,1559.0,3474.6,3478.3,1018.5,823.5,1392.1,3466.1,1248.8,1208.9,3477.1,3479.5,305.1,585.9,905.0,1167.4,580.2,1548.7,3484.4,3475.9,635.1,801.0,1507.8,991.9,898.3,811.9,6.0,-6.0,22.0,-1433.0,2246.0,12198.0,-10609.0,7.0,7.0,9.0,6.0,-4.0,7.0,7322.0,-13396.0,4895.0,-3378.0,11.0,-1.0,1.0,1.0
2022-05-06 12:46:20.849555-07:00,1118.2,717.5,962.0,917.7,801.0,751.3,1629.4,1559.0,3468.6,3471.0,1023.7,823.5,1389.4,3466.1,1248.8,1208.9,3477.1,3479.5,305.1,576.2,905.0,1172.6,578.6,1538.5,3484.4,3475.9,635.1,805.2,1507.8,989.3,887.3,800.2,4.0,0.0,13.0,-1435.0,2244.0,12197.0,-10610.0,5.0,8.0,-12.0,5.0,-3.0,4.0,7324.0,-13395.0,4894.0,-3379.0,-8.0,4.0,-5.0,1.0
2022-05-06 12:46:20.850758-07:00,1118.2,717.5,962.0,917.7,801.9,754.6,1623.7,1559.9,3468.6,3471.0,1023.7,815.2,1394.8,3469.8,1250.6,1210.6,3471.0,3471.0,302.0,562.6,911.8,1172.6,578.6,1538.5,3475.9,3477.1,632.7,801.9,1499.5,989.3,887.3,800.2,-1.0,0.0,4.0,-1435.0,2243.0,12200.0,-10607.0,-27.0,0.0,-3.0,1.0,-1.0,2.0,7323.0,-13396.0,4891.0,-3381.0,-18.0,-1.0,-13.0,1.0
2022-05-06 12:46:20.939652-07:00,1120.9,710.1,961.1,911.0,801.9,754.6,1623.7,1559.9,3458.9,3473.4,1015.9,815.2,1394.8,3469.8,1250.6,1210.6,3471.0,3471.0,302.0,562.6,907.6,1176.2,582.6,1535.7,3475.9,3477.1,632.7,801.9,1503.2,987.6,905.0,801.9,9.0,-2.0,13.0,-1432.0,2240.0,12198.0,-10610.0,18.0,-10.0,-9.0,12.0,0.0,4.0,7327.0,-13394.0,4889.0,-3383.0,14.0,-4.0,-3.0,1.0
2022-05-06 12:46:20.941365-07:00,1120.9,710.1,961.1,911.0,803.5,752.9,1623.7,1543.1,3458.9,3473.4,1015.9,815.2,1386.6,3473.4,1247.1,1199.1,3464.9,3481.9,295.1,568.2,907.6,1176.2,582.6,1535.7,3467.4,3478.3,627.0,800.2,1503.2,987.6,905.0,801.9,7.0,-3.0,18.0,-1433.0,2239.0,12193.0,-10616.0,30.0,7.0,-5.0,8.0,-5.0,9.0,7331.0,-13392.0,4888.0,-3385.0,25.0,-5.0,-3.0,1.0
2022-05-06 12:46:21.029764-07:00,1134.0,705.2,950.9,922.8,803.5,752.9,1623.7,1543.1,3471.0,3462.5,1015.1,821.9,1386.6,3473.4,1247.1,1199.1,3464.9,3481.9,295.1,568.2,908.4,1163.0,577.8,1536.6,3467.4,3478.3,627.0,800.2,1505.1,957.7,896.6,806.9,4.0,-14.0,9.0,-1434.0,2232.0,12192.0,-10619.0,-11.0,-17.0,-7.0,7.0,-6.0,4.0,7336.0,-13389.0,4887.0,-3386.0,-3.0,-3.0,-1.0,1.0
2022-05-06 12:46:21.090417-07:00,1134.0,705.2,950.9,922.8,805.2,759.6,1619.9,1555.3,3471.0,3462.5,1015.1,821.9,1382.1,3464.9,1248.0,1210.6,3478.3,3478.3,303.6,577.8,908.4,1163.0,577.8,1536.6,3475.9,3469.8,638.4,801.0,1505.1,957.7,896.6,806.9,10.0,2.0,20.0,-1430.0,2233.0,12193.0,-10617.0,-21.0,3.0,10.0,4.0,-3.0,7.0,7336.0,-13389.0,4887.0,-3386.0,-14.0,4.0,0.0,1.0
2022-05-06 12:46:21.092040-07:00,1125.2,707.7,964.5,916.0,805.2,759.6,1619.9,1555.3,3478.3,3473.4,1019.4,813.5,1382.1,3464.9,1248.0,1210.6,3478.3,3478.3,303.6,577.8,907.6,1172.6,581.0,1533.8,3475.9,3469.8,638.4,801.0,1500.4,986.7,907.6,803.5,4.0,-1.0,21.0,-1435.0,2238.0,12195.0,-10614.0,-4.0,21.0,9.0,3.0,-1.0,7.0,7336.0,-13389.0,4887.0,-3386.0,-12.0,7.0,-3.0,1.0
2022-05-06 12:46:21.209663-07:00,1120.0,707.7,964.5,916.0,801.9,757.1,1614.3,1545.0,3474.6,3473.4,1019.4,813.5,1392.1,3462.5,1249.7,1207.1,3472.2,3472.2,305.9,571.4,907.6,1172.6,581.0,1546.9,3474.6,3467.4,627.8,802.7,1500.4,986.7,907.6,808.5,4.0,1.0,6.0,-1439.0,2236.0,12194.0,-10614.0,10.0,-5.0,-18.0,4.0,0.0,6.0,7335.0,-13390.0,4887.0,-3386.0,8.0,-2.0,-5.0,1.0
2022-05-06 12:46:21.210866-07:00,1120.0,706.9,960.2,916.0,801.9,757.1,1614.3,1551.5,3474.6,3469.8,1017.6,811.0,1392.1,3462.5,1249.7,1202.7,3472.2,3472.2,305.9,571.4,898.3,1175.3,583.5,1546.9,3481.9,3467.4,627.8,802.7,1497.7,991.0,904.2,808.5,9.0,-2.0,12.0,-1437.0,2232.0,12194.0,-10616.0,4.0,-11.0,-6.0,8.0,1.0,6.0,7337.0,-13389.0,4885.0,-3388.0,14.0,-3.0,-10.0,1.0
2022-05-06 12:46:21.239520-07:00,1127.0,706.9,960.2,916.0,799.4,758.7,1615.2,1551.5,3472.2,3469.8,1017.6,811.0,1386.6,3467.4,1251.5,1202.7,3472.2,3472.2,309.0,562.6,898.3,1175.3,583.5,1548.7,3481.9,3480.7,632.7,786.9,1497.7,991.0,904.2,806.0,10.0,-1.0,23.0,-1437.0,2229.0,12190.0,-10621.0,17.0,4.0,-8.0,8.0,0.0,9.0,7344.0,-13385.0,4882.0,-3391.0,20.0,0.0,-6.0,1.0
2022-05-06 12:46:21.330264-07:00,1127.0,712.6,963.7,922.8,799.4,758.7,1615.2,1547.8,3472.2,3468.6,1014.2,816.0,1386.6,3467.4,1251.5,1207.1,3467.4,3472.2,309.0,562.6,905.0,1168.2,577.8,1548.7,3483.2,3480.7,632.7,786.9,1507.8,989.3,897.4,806.0,10.0,-3.0,12.0,-1439.0,2229.0,12185.0,-10626.0,21.0,2.0,-1.0,10.0,0.0,7.0,7349.0,-13382.0,4880.0,-3393.0,19.0,9.0,-3.0,1.0
2022-05-06 12:46:21.332355-07:00,1121.7,712.6,963.7,922.8,806.9,750.5,1617.1,1547.8,3478.3,3468.6,1014.2,816.0,1388.5,3467.4,1260.4,1207.1,3467.4,3483.2,302.8,569.8,905.0,1168.2,577.8,1540.3,3483.2,3480.7,625.4,796.0,1507.8,989.3,897.4,803.5,4.0,-3.0,16.0,-1441.0,2239.0,12183.0,-10627.0,-15.0,24.0,26.0,8.0,0.0,5.0,7354.0,-13380.0,4879.0,-3395.0,0.0,0.0,-5.0,1.0
2022-05-06 12:46:21.420206-07:00,1121.7,707.7,953.4,918.6,806.9,750.5,1600.2,1546.9,3478.3,3467.4,1022.8,818.5,1388.5,3467.4,1258.7,1208.9,3474.6,3478.3,302.8,569.8,909.3,1171.8,580.2,1540.3,3479.5,3475.9,625.4,796.0,1501.4,995.3,907.6,803.5,-5.0,0.0,12.0,-1425.0,2248.0,12197.0,-10611.0,-126.0,-101.0,26.0,9.0,23.0,7.0,7342.0,-13386.0,4883.0,-3392.0,-185.0,37.0,-13.0,1.0
2022-05-06 12:46:21.449643-07:00,1121.7,714.2,953.4,918.6,805.2,762.9,1600.2,1546.9,3477.1,3474.6,1022.8,818.5,1387.5,3468.6,1258.7,1208.9,3474.6,3478.3,305.1,570.6,909.3,1171.8,581.0,1544.1,3479.5,3475.9,630.3,813.5,1501.4,995.3,903.4,801.0,79.0,60.0,28.0,-1321.0,2163.0,12289.0,-10536.0,-222.0,-283.0,-147.0,34.0,19.0,-22.0,7224.0,-13444.0,4916.0,-3365.0,-297.0,-12.0,-6.0,1.0
2022-05-06 12:46:21.509762-07:00,1121.7,714.2,973.9,918.6,805.2,762.9,1619.9,1573.0,3477.1,3474.6,1021.9,823.5,1387.5,3468.6,1259.6,1200.9,3477.1,3474.6,305.1,570.6,905.0,1163.0,581.0,1544.1,3474.6,3478.3,630.3,813.5,1503.2,988.5,903.4,801.0,14.0,-25.0,60.0,-1319.0,1947.0,12347.0,-10510.0,133.0,-340.0,-483.0,4.0,-20.0,-8.0,7109.0,-13509.0,4940.0,-3315.0,-112.0,0.0,13.0,1.0
2022-05-06 12:46:21.599817-07:00,1134.9,762.9,973.9,918.6,806.0,777.8,1619.9,1573.0,3456.4,3469.8,1021.9,823.5,1391.2,3471.0,1259.6,1200.9,3477.1,3474.6,308.2,565.0,905.0,1163.0,637.6,1545.9,3474.6,3478.3,648.9,1126.1,1503.2,988.5,913.5,798.5,-1.0,120.0,-51.0,-1495.0,1780.0,12340.0,-10524.0,-232.0,128.0,-650.0,22.0,16.0,44.0,7116.0,-13508.0,4938.0,-3311.0,-82.0,-3.0,-1.0,1.0
2022-05-06 12:46:21.601941-07:00,1134.9,762.9,978.2,931.3,806.0,777.8,1667.2,1545.9,3456.4,3469.8,1023.7,838.6,1391.2,3471.0,1242.6,1211.5,3468.6,3471.0,308.2,565.0,911.8,1167.4,637.6,1545.9,3478.3,3472.2,648.9,1126.1,1501.4,992.7,913.5,798.5,-15.0,-86.0,51.0,-1612.0,1498.0,12470.0,-10397.0,-197.0,-158.0,-673.0,-7.0,-4.0,-27.0,7031.0,-13541.0,4979.0,-3294.0,-221.0,80.0,65.0,1.0
2022-05-06 12:46:21.720535-07:00,1139.2,774.5,978.2,931.3,808.5,831.1,1667.2,1545.9,3462.5,3472.2,1023.7,838.6,1404.9,3471.0,1242.6,1211.5,3468.6,3471.0,299.0,573.8,911.8,1167.4,645.7,1538.5,3478.3,3472.2,713.4,1154.2,1501.4,992.7,913.5,820.2,9.0,18.0,9.0,-1766.0,1333.0,12499.0,-10359.0,-31.0,-8.0,-544.0,15.0,-7.0,20.0,7015.0,-13537.0,5009.0,-3300.0,28.0,47.0,59.0,1.0
2022-05-06 12:46:21.723232-07:00,1139.2,774.5,992.7,946.6,808.5,857.9,1653.9,1426.8,3462.5,3472.2,1022.8,836.9,1404.9,3467.4,1239.9,1210.6,3483.2,3474.6,302.8,573.8,911.0,1170.9,645.7,1538.5,3479.5,3481.9,720.8,1154.2,1500.4,1001.3,913.5,820.2,-3.0,-49.0,57.0,-1888.0,1047.0,12559.0,-10298.0,-56.0,-258.0,-692.0,-4.0,-1.0,23.0,6988.0,-13534.0,5056.0,-3295.0,-226.0,64.0,93.0,1.0
2022-05-06 12:46:21.749655-07:00,1163.0,791.9,995.3,946.6,812.7,857.9,1653.9,1426.8,3472.2,3463.7,1018.5,836.9,1415.8,3467.4,1239.9,1210.6,3483.2,3474.6,302.8,577.8,911.0,1178.8,657.9,1542.2,3479.5,3481.9,720.8,1134.9,1500.4,1009.9,905.0,810.2,-23.0,31.0,-35.0,-1942.0,797.0,12574.0,-10292.0,-59.0,-300.0,-477.0,8.0,15.0,1.0,6976.0,-13520.0,5107.0,-3302.0,-34.0,62.0,73.0,1.0
2022-05-06 12:46:21.780118-07:00,1163.0,791.9,995.3,936.4,812.7,862.1,1633.1,1355.8,3472.2,3463.7,1018.5,840.3,1415.8,3472.2,1223.9,1209.7,3473.4,3473.4,303.6,577.8,909.3,1178.8,657.9,1542.2,3477.1,3469.8,717.5,1134.9,1501.4,1009.9,905.0,810.2,10.0,-31.0,2.0,-1949.0,549.0,12615.0,-10257.0,36.0,-327.0,-423.0,2.0,0.0,-24.0,6956.0,-13515.0,5140.0,-3312.0,79.0,44.0,4.0,1.0
2022-05-06 12:46:21.900000-07:00,1159.4,794.4,989.3,936.4,805.2,862.1,1633.1,1355.8,3473.4,3473.4,1015.9,840.3,1414.9,3472.2,1223.9,1209.7,3473.4,3473.4,303.6,581.8,909.3,1172.6,650.5,1539.4,3477.1,3469.8,717.5,1110.4,1501.4,1007.3,918.6,805.2,0.0,3.0,28.0,-1992.0,445.0,12533.0,-10354.0,417.0,67.0,-101.0,14.0,3.0,29.0,7018.0,-13482.0,5121.0,-3347.0,225.0,-7.0,-31.0,1.0
2022-05-06 12:46:21.930307-07:00,1159.4,794.4,989.3,939.8,805.2,852.0,1629.4,1341.3,3473.4,3473.4,1015.9,836.9,1414.9,3464.9,1225.7,1202.7,3464.9,3474.6,305.1,581.8,905.0,1172.6,650.5,1539.4,3475.9,3472.2,705.2,1110.4,1500.4,1007.3,918.6,805.2,15.0,5.0,9.0,-2017.0,416.0,12486.0,-10407.0,9.0,-29.0,-56.0,14.0,-1.0,5.0,7031.0,-13474.0,5115.0,-3362.0,-53.0,29.0,-7.0,1.0
2022-05-06 12:46:21.931269-07:00,1172.6,786.9,986.7,933.9,799.4,852.0,1629.4,1341.3,3457.6,3468.6,1010.8,845.3,1420.4,3464.9,1225.7,1202.7,3464.9,3474.6,305.1,579.4,911.8,1167.4,649.7,1532.0,3475.9,3472.2,705.2,1097.3,1506.9,1009.9,922.0,802.7,11.0,-16.0,25.0,-2041.0,419.0,12479.0,-10410.0,59.0,128.0,-6.0,6.0,-6.0,14.0,7019.0,-13478.0,5119.0,-3364.0,10.0,10.0,0.0,1.0
2022-05-06 12:46:21.992521-07:00,1172.6,786.9,986.7,933.9,808.5,847.0,1626.5,1342.2,3457.6,3468.6,1010.8,845.3,1419.5,3475.9,1229.3,1225.7,3466.1,3473.4,301.3,584.3,911.8,1167.4,649.7,1532.0,3473.4,3479.5,703.6,1090.3,1506.9,1009.9,922.0,802.7,-9.0,3.0,-17.0,-2047.0,442.0,12479.0,-10408.0,-200.0,-80.0,45.0,7.0,0.0,-11.0,6977.0,-13498.0,5131.0,-3353.0,-208.0,2.0,0.0,1.0
2022-05-06 12:46:22.110316-07:00,1157.7,781.9,991.9,943.2,808.5,847.0,1626.5,1342.2,3461.3,3472.2,1011.6,841.1,1419.5,3475.9,1229.3,1225.7,3466.1,3473.4,301.3,584.3,921.1,1175.3,652.2,1532.0,3473.4,3479.5,703.6,1090.3,1505.1,1005.6,916.0,802.7,6.0,-39.0,38.0,-2004.0,430.0,12546.0,-10336.0,-60.0,-67.0,-9.0,10.0,-28.0,16.0,6938.0,-13521.0,5134.0,-3334.0,20.0,-28.0,-7.0,1.0
2022-05-06 12:46:22.111483-07:00,1157.7,781.9,991.9,943.2,802.7,849.5,1608.7,1324.1,3461.3,3472.2,1011.6,841.1,1416.7,3468.6,1227.5,1212.4,3467.4,3474.6,303.6,584.3,921.1,1175.3,652.2,1532.0,3475.9,3478.3,685.6,1086.0,1505.1,1005.6,916.0,802.7,-16.0,26.0,-27.0,-1985.0,410.0,12534.0,-10355.0,-17.0,-143.0,24.0,4.0,9.0,-12.0,6953.0,-13517.0,5123.0,-3336.0,-69.0,-18.0,-27.0,1.0
2022-05-06 12:46:22.200023-07:00,1160.3,782.7,989.3,943.2,802.7,849.5,1608.7,1324.1,3474.6,3469.8,1005.6,836.1,1416.7,3468.6,1227.5,1212.4,3467.4,3474.6,303.6,584.3,910.1,1182.3,645.7,1534.8,3475.9,3478.3,685.6,1086.0,1500.4,1015.1,919.4,801.9,16.0,-21.0,39.0,-1911.0,371.0,12577.0,-10318.0,-59.0,-157.0,14.0,8.0,-21.0,18.0,6936.0,-13532.0,5116.0,-3324.0,31.0,-17.0,-8.0,1.0
2022-05-06 12:46:22.290078-07:00,1157.7,782.7,989.3,943.2,808.5,851.1,1606.8,1321.4,3468.6,3469.8,1005.6,836.1,1419.5,3466.1,1222.2,1207.1,3471.0,3483.2,302.8,572.2,910.1,1182.3,645.7,1536.6,3480.7,3479.5,705.2,1077.3,1500.4,1015.1,919.4,802.7,-2.0,2.0,11.0,-1876.0,343.0,12576.0,-10326.0,-5.0,-61.0,18.0,7.0,0.0,13.0,6957.0,-13521.0,5110.0,-3332.0,-14.0,-5.0,4.0,1.0
2022-05-06 12:46:22.291064-07:00,1157.7,774.5,989.3,933.0,808.5,851.1,1606.8,1313.3,3468.6,3473.4,1005.6,837.7,1419.5,3466.1,1222.2,1208.0,3473.4,3483.2,302.8,572.2,909.3,1174.4,643.2,1536.6,3474.6,3479.5,705.2,1077.3,1502.3,1011.6,911.0,802.7,22.0,-32.0,37.0,-1830.0,313.0,12604.0,-10302.0,-22.0,-94.0,-2.0,9.0,-10.0,-7.0,6945.0,-13527.0,5116.0,-3324.0,-4.0,-19.0,17.0,1.0
2022-05-06 12:46:22.320159-07:00,1150.6,774.5,989.3,933.0,804.4,839.4,1620.9,1313.3,3472.2,3473.4,1005.6,837.7,1418.6,3469.8,1223.9,1208.0,3473.4,3478.3,299.7,581.8,909.3,1174.4,643.2,1534.8,3474.6,3467.4,695.4,1070.3,1502.3,1011.6,911.0,811.0,-4.0,10.0,10.0,-1826.0,320.0,12578.0,-10334.0,30.0,37.0,48.0,8.0,1.0,13.0,6968.0,-13517.0,5111.0,-3327.0,11.0,-6.0,11.0,1.0
2022-05-06 12:46:22.321409-07:00,1150.6,774.5,991.0,943.2,804.4,839.4,1620.9,1311.5,3472.2,3467.4,1007.3,831.1,1418.6,3469.8,1223.9,1208.9,3472.2,3478.3,299.7,581.8,916.9,1175.3,642.4,1534.8,3475.9,3467.4,695.4,1070.3,1490.3,1006.5,920.3,811.0,1.0,-16.0,12.0,-1811.0,342.0,12587.0,-10325.0,-56.0,-26.0,63.0,12.0,-3.0,1.0,6952.0,-13524.0,5117.0,-3320.0,-55.0,-4.0,18.0,1.0
2022-05-06 12:46:22.409703-07:00,1146.3,774.5,991.0,943.2,813.5,842.8,1605.8,1311.5,3468.6,3467.4,1007.3,831.1,1414.9,3475.9,1231.0,1208.9,3472.2,3480.7,305.9,589.9,916.9,1175.3,642.4,1529.2,3475.9,3467.4,699.5,1064.3,1490.3,1006.5,920.3,797.7,-7.0,-5.0,26.0,-1806.0,367.0,12577.0,-10337.0,94.0,60.0,59.0,1.0,-14.0,14.0,6958.0,-13522.0,5119.0,-3312.0,60.0,-15.0,18.0,1.0
2022-05-06 12:46:22.439555-07:00,1146.3,777.8,991.9,939.0,813.5,842.8,1605.8,1317.8,3468.6,3477.1,1002.2,835.2,1414.9,3475.9,1231.0,1207.1,3473.4,3480.7,305.9,589.9,911.8,1182.3,642.4,1529.2,3478.3,3467.4,699.5,1064.3,1504.1,1009.9,919.4,797.7,-7.0,12.0,-15.0,-1795.0,344.0,12599.0,-10314.0,-186.0,-142.0,-96.0,9.0,11.0,4.0,6943.0,-13530.0,5123.0,-3307.0,-110.0,-6.0,-13.0,1.0
2022-05-06 12:46:22.469961-07:00,1152.4,776.1,991.9,939.0,803.5,842.8,1614.3,1317.8,3468.6,3479.5,1002.2,835.2,1422.2,3467.4,1223.9,1207.1,3473.4,3477.1,308.2,581.0,911.8,1182.3,638.4,1530.1,3478.3,3483.2,699.5,1061.7,1504.1,1009.9,919.4,796.0,4.0,-39.0,31.0,-1770.0,285.0,12615.0,-10300.0,106.0,-84.0,-26.0,11.0,-11.0,7.0,6953.0,-13529.0,5112.0,-3306.0,124.0,-20.0,-8.0,1.0
2022-05-06 12:46:22.530271-07:00,1152.4,776.1,981.6,939.0,803.5,842.8,1622.8,1313.3,3468.6,3479.5,1003.9,839.4,1422.2,3467.4,1239.9,1208.0,3481.9,3475.9,308.2,581.0,905.0,1175.3,638.4,1530.1,3479.5,3481.9,699.5,1061.7,1500.4,1011.6,919.4,796.0,1.0,-6.0,33.0,-1753.0,268.0,12603.0,-10318.0,-12.0,-49.0,2.0,3.0,-2.0,14.0,6973.0,-13520.0,5105.0,-3311.0,-14.0,4.0,3.0,1.0
2022-05-06 12:46:22.620040-07:00,1158.6,772.8,981.6,939.0,799.4,846.1,1622.8,1313.3,3468.6,3466.1,1003.9,839.4,1411.3,3457.6,1239.9,1208.0,3481.9,3475.9,302.0,578.6,905.0,1175.3,637.6,1535.7,3479.5,3481.9,688.9,1054.8,1500.4,1011.6,917.7,796.9,10.0,2.0,27.0,-1753.0,266.0,12601.0,-10321.0,-2.0,42.0,-8.0,2.0,-5.0,4.0,6970.0,-13521.0,5105.0,-3311.0,3.0,-3.0,6.0,1.0
2022-05-06 12:46:22.649605-07:00,1158.6,772.8,988.5,939.0,799.4,846.1,1628.4,1302.5,3468.6,3466.1,1005.6,836.9,1411.3,3457.6,1223.9,1204.4,3475.9,3474.6,302.0,578.6,915.2,1173.5,637.6,1535.7,3479.5,3480.7,688.9,1054.8,1503.2,1011.6,917.7,796.9,-9.0,-15.0,-3.0,-1754.0,254.0,12605.0,-10315.0,-41.0,-55.0,-4.0,8.0,5.0,-1.0,6966.0,-13520.0,5111.0,-3314.0,-34.0,14.0,7.0,1.0
2022-05-06 12:46:22.709625-07:00,1154.2,770.3,988.5,939.0,799.4,841.9,1628.4,1302.5,3464.9,3462.5,1005.6,836.9,1419.5,3478.3,1223.9,1204.4,3475.9,3474.6,302.0,585.1,915.2,1173.5,636.7,1531.0,3479.5,3480.7,693.8,1050.4,1503.2,1011.6,918.6,805.2,6.0,-8.0,27.0,-1743.0,262.0,12608.0,-10313.0,20.0,20.0,20.0,8.0,-10.0,12.0,6962.0,-13524.0,5110.0,-3309.0,25.0,-16.0,5.0,1.0
2022-05-06 12:46:22.739599-07:00,1154.2,770.3,987.6,947.5,799.4,837.7,1618.1,1299.0,3464.9,3462.5,1006.5,833.6,1419.5,3472.2,1229.3,1211.5,3471.0,3471.0,305.9,585.1,916.0,1178.8,636.7,1531.0,3461.3,3477.1,692.9,1050.4,1507.8,1011.6,918.6,805.2,-11.0,-3.0,6.0,-1745.0,254.0,12607.0,-10314.0,-35.0,-62.0,-28.0,4.0,-5.0,11.0,6969.0,-13521.0,5108.0,-3312.0,-7.0,7.0,4.0,1.0
2022-05-06 12:46:22.769693-07:00,1152.4,770.3,979.9,947.5,798.5,837.7,1618.1,1299.0,3468.6,3473.4,1004.8,833.6,1411.3,3472.2,1229.3,1211.5,3471.0,3471.0,305.9,583.5,916.0,1184.1,635.1,1525.5,3461.3,3477.1,692.9,1046.1,1507.8,1015.1,915.2,796.9,12.0,-21.0,14.0,-1720.0,227.0,12618.0,-10306.0,6.0,-83.0,-11.0,3.0,0.0,-14.0,6965.0,-13524.0,5108.0,-3308.0,23.0,-16.0,-5.0,1.0
2022-05-06 12:46:22.830001-07:00,1152.4,770.3,979.9,933.9,798.5,842.8,1600.2,1299.0,3468.6,3473.4,1004.8,835.2,1411.3,3466.1,1225.7,1211.5,3475.9,3478.3,305.9,583.5,911.8,1184.1,635.1,1525.5,3478.3,3478.3,691.3,1046.1,1499.5,1015.1,915.2,796.9,2.0,-1.0,25.0,-1708.0,204.0,12607.0,-10322.0,41.0,-60.0,-30.0,8.0,-6.0,16.0,6990.0,-13513.0,5098.0,-3314.0,59.0,-4.0,5.0,1.0
2022-05-06 12:46:22.889611-07:00,1148.0,769.5,985.9,933.9,801.0,842.8,1600.2,1299.0,3468.6,3484.4,1001.3,835.2,1419.5,3466.1,1225.7,1211.5,3475.9,3478.3,305.9,581.0,911.8,1178.8,631.1,1537.6,3478.3,3478.3,691.3,1049.6,1499.5,1000.5,911.8,799.4,4.0,-12.0,23.0,-1701.0,180.0,12596.0,-10337.0,16.0,-19.0,-1.0,3.0,1.0,5.0,7001.0,-13507.0,5095.0,-3319.0,20.0,-6.0,-7.0,1.0
2022-05-06 12:46:22.949553-07:00,1148.0,769.5,985.9,939.8,801.0,840.3,1619.0,1312.4,3468.6,3484.4,1001.3,835.2,1419.5,3473.4,1228.4,1206.2,3477.1,3467.4,299.0,581.0,916.0,1178.8,631.1,1537.6,3478.3,3479.5,697.9,1049.6,1497.7,1000.5,911.8,799.4,0.0,5.0,9.0,-1709.0,190.0,12590.0,-10342.0,-6.0,16.0,-2.0,6.0,-10.0,14.0,7005.0,-13505.0,5095.0,-3320.0,-8.0,12.0,13.0,1.0
2022-05-06 12:46:22.980093-07:00,1144.5,764.5,979.9,939.8,804.4,840.3,1619.0,1312.4,3472.2,3478.3,1002.2,835.2,1414.9,3473.4,1228.4,1206.2,3477.1,3467.4,299.0,581.8,916.0,1184.1,634.3,1530.1,3478.3,3479.5,697.9,1051.3,1497.7,1002.2,913.5,806.9,0.0,-22.0,12.0,-1708.0,182.0,12593.0,-10340.0,34.0,1.0,-5.0,5.0,-1.0,2.0,7001.0,-13506.0,5101.0,-3316.0,18.0,-21.0,8.0,1.0
2022-05-06 12:46:23.039608-07:00,1144.5,764.5,979.9,931.3,801.0,844.4,1607.7,1317.8,3472.2,3478.3,1002.2,831.1,1421.3,3466.1,1235.5,1207.1,3468.6,3473.4,300.5,584.3,926.2,1184.1,634.3,1530.1,3479.5,3483.2,687.2,1038.3,1497.7,1002.2,913.5,806.9,0.0,0.0,14.0,-1707.0,189.0,12584.0,-10350.0,-14.0,-15.0,3.0,4.0,3.0,1.0,7010.0,-13504.0,5095.0,-3312.0,-13.0,-14.0,9.0,1.0
2022-05-06 12:46:23.069777-07:00,1148.9,766.2,980.7,936.4,801.0,844.4,1607.7,1317.8,3468.6,3467.4,1003.0,835.2,1421.3,3466.1,1235.5,1207.1,3468.6,3473.4,300.5,584.3,911.0,1174.4,629.5,1532.0,3479.5,3483.2,687.2,1038.3,1503.2,1011.6,916.9,804.4,4.0,-12.0,24.0,-1710.0,182.0,12586.0,-10348.0,9.0,-4.0,-22.0,4.0,-4.0,6.0,7008.0,-13506.0,5095.0,-3309.0,11.0,5.0,-1.0,1.0
2022-05-06 12:46:23.189717-07:00,1148.9,766.2,980.7,936.4,806.9,837.7,1618.1,1295.4,3468.6,3467.4,1003.0,835.2,1421.3,3467.4,1231.0,1202.7,3471.0,3479.5,300.5,583.5,911.0,1174.4,629.5,1532.0,3471.0,3480.7,692.9,1041.8,1503.2,1011.6,916.9,804.4,1.0,-13.0,20.0,-1715.0,181.0,12582.0,-10351.0,-16.0,-2.0,5.0,8.0,-7.0,6.0,7007.0,-13506.0,5095.0,-3309.0,-25.0,-2.0,14.0,1.0
2022-05-06 12:46:23.190973-07:00,1146.3,768.7,978.2,935.6,806.9,837.7,1618.1,1295.4,3475.9,3480.7,1006.5,835.2,1421.3,3467.4,1231.0,1202.7,3471.0,3479.5,300.5,583.5,908.4,1184.1,631.1,1533.8,3471.0,3480.7,692.9,1041.8,1503.2,1004.8,916.0,800.2,-2.0,3.0,6.0,-1719.0,185.0,12581.0,-10352.0,3.0,18.0,2.0,0.0,1.0,3.0,7005.0,-13507.0,5099.0,-3306.0,-2.0,-7.0,7.0,1.0
2022-05-06 12:46:23.339647-07:00,1146.3,768.7,978.2,935.6,801.9,834.4,1611.5,1308.8,3475.9,3480.7,1006.5,835.2,1414.0,3469.8,1227.5,1209.7,3475.9,3462.5,302.0,577.0,908.4,1184.1,631.1,1533.8,3467.4,3469.8,686.4,1038.3,1503.2,1004.8,916.0,800.2,0.0,5.0,2.0,-1724.0,181.0,12581.0,-10351.0,-10.0,-10.0,-21.0,7.0,3.0,9.0,7006.0,-13507.0,5099.0,-3305.0,0.0,7.0,-1.0,1.0
