Time,P0,P1,P2,P3,P4,P5,P6,P7,P8,P9,P10,P11,P12,P13,P14,P15,P16,P17,P18,P19,P20,P21,P22,P23,P24,P25,P26,P27,P28,P29,P30,P31,ECG,AX0,AY0,AZ0,QW0,QX0,QY0,QZ0,GX0,GY0,GZ0,AX1,AY1,AZ1,QW1,QX1,QY1,QZ1,GX1,GY1,GZ1
2022-05-06 11:42:47.223521-07:00,2004.5,614.1,1325.0,1572.1,1147.1,1214.2,1300.7,1573.9,3439.5,3443.1,1694.8,1577.7,1447.9,3438.2,1059.1,1506.0,3438.2,3438.2,727.4,1316.0,939.0,565.0,1387.5,1944.0,3449.1,3441.9,742.2,1053.9,1413.1,1569.3,1321.4,1077.3,0.0,0.0,5.0,4706.0,5745.0,-11551.0,-8936.0,10.0,1.0,8.0,0.0,-3.0,-3.0,11997.0,11134.0,744.0,-79.0,1.0,-3.0,5.0,1.0
2022-05-06 11:42:47.283698-07:00,2004.5,622.2,1322.3,1571.1,1147.1,1214.2,1296.3,1566.5,3439.5,3444.3,1697.6,1581.4,1447.9,3438.2,1056.5,1502.3,3444.3,3440.7,727.4,1316.0,939.8,562.6,1385.7,1944.0,3444.3,3450.4,742.2,1053.9,1418.6,1566.5,1320.5,1077.3,-7.0,-6.0,1.0,4706.0,5746.0,-11552.0,-8935.0,2.0,-13.0,9.0,-1.0,-8.0,0.0,11997.0,11134.0,744.0,-79.0,-3.0,-2.0,4.0,1.0
2022-05-06 11:42:47.314228-07:00,1994.5,612.5,1322.3,1571.1,1134.9,1216.0,1296.3,1566.5,3443.1,3440.7,1697.6,1581.4,1449.7,3438.2,1056.5,1502.3,3444.3,3440.7,724.9,1322.3,939.8,562.6,1387.5,1943.0,3444.3,3450.4,740.6,1056.5,1418.6,1566.5,1320.5,1069.5,0.0,-1.0,7.0,4701.0,5741.0,-11554.0,-8938.0,-15.0,-4.0,7.0,-1.0,-2.0,-4.0,11998.0,11133.0,744.0,-79.0,-18.0,-6.0,7.0,1.0
2022-05-06 11:42:47.463756-07:00,1994.5,612.5,1325.9,1571.1,1134.9,1216.0,1302.5,1567.4,3443.1,3440.7,1700.5,1577.7,1449.7,3438.2,1059.9,1503.2,3444.3,3439.5,724.9,1322.3,931.3,563.4,1387.5,1943.0,3449.1,3441.9,740.6,1056.5,1415.8,1570.2,1320.5,1069.5,-2.0,-2.0,6.0,4703.0,5739.0,-11551.0,-8941.0,1.0,-5.0,5.0,-2.0,-5.0,-1.0,12001.0,11129.0,742.0,-80.0,-2.0,-2.0,6.0,1.0
2022-05-06 11:42:47.493981-07:00,1992.5,620.5,1325.9,1571.1,1135.7,1208.0,1302.5,1567.4,3446.7,3439.5,1700.5,1577.7,1449.7,3437.0,1059.9,1503.2,3444.3,3439.5,729.0,1316.9,931.3,563.4,1386.6,1945.0,3449.1,3441.9,743.0,1051.3,1415.8,1570.2,1325.0,1069.5,-4.0,-7.0,5.0,4703.0,5739.0,-11551.0,-8941.0,4.0,2.0,4.0,-6.0,-8.0,-2.0,12001.0,11129.0,742.0,-80.0,-3.0,-2.0,4.0,1.0
2022-05-06 11:42:47.494997-07:00,1992.5,620.5,1328.7,1572.1,1135.7,1208.0,1299.8,1567.4,3446.7,3439.5,1693.8,1583.3,1449.7,3437.0,1060.8,1499.5,3438.2,3444.3,729.0,1316.9,937.3,558.6,1386.6,1945.0,3439.5,3449.1,743.0,1051.3,1418.6,1570.2,1325.0,1069.5,0.0,-2.0,3.0,4707.0,5735.0,-11552.0,-8940.0,-18.0,3.0,6.0,0.0,-10.0,-3.0,12003.0,11127.0,739.0,-79.0,-14.0,-7.0,12.0,1.0
2022-05-06 11:42:47.523502-07:00,2000.5,623.8,1321.4,1572.1,1137.5,1211.5,1299.8,1567.4,3443.1,3449.1,1689.1,1583.3,1450.6,3440.7,1060.8,1499.5,3438.2,3444.3,729.0,1321.4,937.3,566.6,1388.5,1949.9,3439.5,3449.1,744.7,1053.9,1418.6,1571.1,1320.5,1072.9,-2.0,-10.0,4.0,4708.0,5734.0,-11552.0,-8941.0,-3.0,-6.0,11.0,0.0,-6.0,1.0,12008.0,11122.0,733.0,-77.0,-8.0,-8.0,14.0,1.0
2022-05-06 11:42:47.554587-07:00,2000.5,623.8,1321.4,1576.8,1137.5,1212.4,1299.8,1563.7,3443.1,3449.1,1689.1,1584.2,1450.6,3443.1,1052.2,1505.1,3438.2,3437.0,724.9,1321.4,936.4,566.6,1388.5,1949.9,3441.9,3435.8,746.3,1053.9,1421.3,1571.1,1320.5,1072.9,0.0,-2.0,5.0,4713.0,5729.0,-11554.0,-8940.0,-11.0,-5.0,10.0,-2.0,-6.0,-4.0,12010.0,11120.0,728.0,-74.0,-16.0,-12.0,12.0,1.0
2022-05-06 11:42:47.673586-07:00,1996.5,627.8,1314.2,1576.8,1141.0,1212.4,1299.8,1563.7,3440.7,3449.1,1699.5,1584.2,1444.2,3443.1,1052.2,1505.1,3438.2,3437.0,724.9,1326.8,936.4,561.0,1391.2,1944.0,3441.9,3435.8,746.3,1049.6,1421.3,1560.9,1325.0,1073.8,0.0,0.0,6.0,4716.0,5725.0,-11553.0,-8942.0,-2.0,-3.0,17.0,0.0,0.0,-3.0,12014.0,11116.0,724.0,-71.0,-13.0,-9.0,9.0,1.0
2022-05-06 11:42:47.675033-07:00,1996.5,627.8,1314.2,1573.0,1141.0,1202.7,1302.5,1567.4,3440.7,3449.1,1699.5,1589.9,1444.2,3440.7,1055.6,1501.4,3443.1,3439.5,729.0,1326.8,935.6,561.0,1391.2,1944.0,3441.9,3445.5,743.0,1049.6,1416.7,1560.9,1325.0,1073.8,-6.0,-10.0,4.0,4720.0,5721.0,-11552.0,-8944.0,-10.0,-6.0,11.0,-1.0,-8.0,4.0,12016.0,11114.0,723.0,-70.0,-8.0,-8.0,14.0,1.0
2022-05-06 11:42:47.704041-07:00,1991.5,614.9,1323.2,1573.0,1143.6,1202.7,1302.5,1567.4,3443.1,3444.3,1693.8,1589.9,1452.5,3440.7,1055.6,1501.4,3443.1,3439.5,729.0,1321.4,935.6,564.2,1390.3,1941.0,3441.9,3445.5,743.0,1053.0,1416.7,1573.0,1329.6,1073.8,-1.0,3.0,4.0,4722.0,5711.0,-11554.0,-8946.0,-29.0,-3.0,13.0,1.0,-6.0,-2.0,12019.0,11111.0,716.0,-68.0,-25.0,-14.0,11.0,1.0
2022-05-06 11:42:47.883231-07:00,1991.5,614.9,1323.2,1571.1,1134.0,1227.5,1291.8,1559.0,3443.1,3444.3,1693.8,1582.4,1448.8,3443.1,1053.0,1503.2,3444.3,3435.8,727.4,1318.7,936.4,564.2,1390.3,1941.0,3435.8,3444.3,747.2,1052.2,1414.0,1573.0,1329.6,1073.8,-2.0,0.0,5.0,4723.0,5709.0,-11551.0,-8951.0,-2.0,-14.0,-2.0,-1.0,-6.0,0.0,12025.0,11105.0,714.0,-70.0,-12.0,-11.0,7.0,1.0
2022-05-06 11:42:47.884604-07:00,2007.4,616.5,1321.4,1574.9,1134.0,1227.5,1291.8,1559.0,3443.1,3441.9,1696.7,1577.7,1448.8,3443.1,1053.0,1503.2,3444.3,3435.8,727.4,1318.7,935.6,567.4,1385.7,1951.9,3435.8,3444.3,747.2,1052.2,1410.3,1567.4,1325.0,1077.3,-4.0,-15.0,1.0,4724.0,5707.0,-11548.0,-8954.0,-30.0,-1.0,2.0,0.0,-11.0,0.0,12030.0,11100.0,710.0,-69.0,-19.0,-4.0,11.0,1.0
2022-05-06 11:42:47.886023-07:00,2007.4,616.5,1321.4,1574.9,1144.5,1223.9,1294.5,1569.3,3443.1,3441.9,1696.7,1577.7,1447.9,3444.3,1059.1,1514.3,3438.2,3438.2,720.8,1315.1,935.6,567.4,1385.7,1951.9,3445.5,3438.2,736.5,1048.7,1410.3,1567.4,1325.0,1077.3,-5.0,2.0,3.0,4724.0,5698.0,-11548.0,-8961.0,-29.0,-19.0,0.0,-1.0,-3.0,-2.0,12038.0,11092.0,701.0,-68.0,-32.0,-14.0,16.0,1.0
2022-05-06 11:42:47.913487-07:00,1994.5,614.1,1325.0,1574.9,1144.5,1223.9,1294.5,1569.3,3433.4,3438.2,1696.7,1578.6,1447.9,3444.3,1059.1,1514.3,3438.2,3438.2,720.8,1315.1,936.4,564.2,1386.6,1949.9,3445.5,3438.2,736.5,1048.7,1418.6,1555.3,1318.7,1073.8,0.0,-20.0,14.0,4714.0,5696.0,-11546.0,-8969.0,-11.0,-7.0,-11.0,1.0,-7.0,2.0,12044.0,11086.0,694.0,-67.0,-14.0,-8.0,8.0,1.0
2022-05-06 11:42:48.093627-07:00,1994.5,614.1,1325.0,1574.9,1146.3,1213.3,1296.3,1569.3,3433.4,3438.2,1696.7,1578.6,1450.6,3446.7,1056.5,1504.1,3437.0,3443.1,717.5,1318.7,936.4,564.2,1386.6,1949.9,3438.2,3449.1,742.2,1052.2,1418.6,1555.3,1318.7,1073.8,0.0,9.0,-1.0,4726.0,5689.0,-11548.0,-8966.0,7.0,6.0,35.0,-1.0,-2.0,-4.0,12044.0,11086.0,690.0,-62.0,8.0,-6.0,13.0,1.0
2022-05-06 11:42:48.094601-07:00,1991.5,621.4,1319.6,1566.5,1146.3,1213.3,1296.3,1569.3,3437.0,3441.9,1692.9,1580.5,1450.6,3446.7,1056.5,1504.1,3437.0,3443.1,717.5,1318.7,936.4,561.0,1384.8,1942.0,3438.2,3449.1,742.2,1052.2,1419.5,1569.3,1316.9,1067.7,-4.0,-11.0,6.0,4729.0,5686.0,-11546.0,-8968.0,-23.0,4.0,10.0,0.0,-3.0,-1.0,12049.0,11081.0,685.0,-62.0,-25.0,-13.0,12.0,1.0
2022-05-06 11:42:48.095589-07:00,1992.5,621.4,1319.6,1566.5,1136.6,1209.7,1300.7,1567.4,3449.1,3441.9,1692.9,1580.5,1447.0,3443.1,1058.2,1497.7,3440.7,3441.9,721.6,1314.2,936.4,561.0,1384.8,1945.0,3444.3,3443.1,746.3,1048.7,1419.5,1569.3,1316.9,1070.3,-3.0,-1.0,6.0,4738.0,5672.0,-11546.0,-8973.0,-19.0,-16.0,28.0,-3.0,-6.0,0.0,12055.0,11075.0,679.0,-59.0,-16.0,-13.0,13.0,1.0
2022-05-06 11:42:48.097452-07:00,1992.5,618.1,1320.5,1564.6,1136.6,1209.7,1300.7,1560.9,3449.1,3446.7,1698.6,1582.4,1447.0,3443.1,1058.2,1512.5,3441.9,3441.9,721.6,1314.2,933.0,564.2,1383.0,1945.0,3444.3,3443.1,746.3,1048.7,1413.1,1565.5,1325.0,1070.3,0.0,-2.0,12.0,4735.0,5667.0,-11548.0,-8974.0,-5.0,-1.0,12.0,2.0,-7.0,1.0,12058.0,11072.0,672.0,-57.0,-5.0,-1.0,11.0,1.0
2022-05-06 11:42:48.243206-07:00,1982.6,618.1,1320.5,1564.6,1145.4,1215.1,1290.0,1560.9,3435.8,3446.7,1698.6,1582.4,1448.8,3443.1,1056.5,1512.5,3441.9,3443.1,728.2,1317.8,933.0,564.2,1383.0,1943.0,3444.3,3443.1,750.5,1042.6,1413.1,1565.5,1325.0,1074.7,-4.0,-2.0,3.0,4741.0,5661.0,-11553.0,-8969.0,27.0,-7.0,25.0,0.0,-9.0,-2.0,12054.0,11076.0,672.0,-57.0,18.0,0.0,9.0,1.0
2022-05-06 11:42:48.244588-07:00,1982.6,623.0,1312.4,1570.2,1145.4,1215.1,1290.0,1569.3,3435.8,3440.7,1693.8,1577.7,1448.8,3443.1,1056.5,1498.6,3433.4,3443.1,728.2,1317.8,936.4,563.4,1386.6,1943.0,3447.9,3443.1,750.5,1042.6,1404.0,1569.3,1316.9,1074.7,1.0,-3.0,7.0,4745.0,5659.0,-11555.0,-8965.0,2.0,15.0,10.0,1.0,-5.0,-3.0,12053.0,11077.0,672.0,-57.0,-4.0,-3.0,2.0,1.0
2022-05-06 11:42:48.245685-07:00,1990.5,623.0,1312.4,1570.2,1142.7,1210.6,1296.3,1569.3,3440.7,3440.7,1693.8,1577.7,1439.6,3435.8,1054.8,1498.6,3433.4,3438.2,730.7,1317.8,936.4,563.4,1386.6,1949.9,3447.9,3454.0,752.1,1044.4,1404.0,1569.3,1316.9,1070.3,-4.0,-8.0,1.0,4744.0,5658.0,-11556.0,-8965.0,6.0,-11.0,3.0,-1.0,-4.0,-4.0,12053.0,11077.0,671.0,-57.0,1.0,-8.0,11.0,1.0
2022-05-06 11:42:48.303903-07:00,1990.5,615.7,1328.7,1564.6,1142.7,1210.6,1298.1,1568.3,3440.7,3458.9,1687.2,1577.7,1439.6,3435.8,1058.2,1502.3,3441.9,3441.9,730.7,1317.8,936.4,558.6,1383.9,1949.9,3444.3,3441.9,752.1,1044.4,1406.7,1565.5,1319.6,1070.3,0.0,2.0,7.0,4746.0,5655.0,-11556.0,-8965.0,-11.0,0.0,9.0,1.0,-2.0,0.0,12054.0,11076.0,667.0,-56.0,0.0,-2.0,7.0,1.0
2022-05-06 11:42:48.483680-07:00,1985.6,618.9,1328.7,1564.6,1132.2,1213.3,1298.1,1568.3,3445.5,3437.0,1687.2,1577.7,1447.9,3441.9,1058.2,1502.3,3441.9,3441.9,734.8,1319.6,936.4,558.6,1384.8,1940.0,3444.3,3441.9,747.2,1045.2,1406.7,1565.5,1321.4,1064.3,-1.0,0.0,4.0,4745.0,5657.0,-11559.0,-8962.0,12.0,5.0,-5.0,1.0,-3.0,-2.0,12054.0,11077.0,667.0,-56.0,3.0,1.0,-8.0,1.0
2022-05-06 11:42:48.604540-07:00,1985.6,618.9,1319.6,1565.5,1132.2,1213.3,1296.3,1572.1,3445.5,3437.0,1698.6,1576.8,1447.9,3441.9,1052.2,1502.3,3431.0,3437.0,734.8,1319.6,938.1,566.6,1384.8,1940.0,3437.0,3446.7,747.2,1045.2,1410.3,1566.5,1321.4,1064.3,-7.0,-6.0,4.0,4746.0,5659.0,-11558.0,-8962.0,5.0,-1.0,-8.0,0.0,-8.0,1.0,12052.0,11079.0,667.0,-56.0,19.0,9.0,-7.0,1.0
2022-05-06 11:42:48.605287-07:00,1992.5,620.5,1319.6,1565.5,1138.4,1213.3,1296.3,1572.1,3441.9,3439.5,1698.6,1576.8,1447.0,3445.5,1052.2,1502.3,3431.0,3437.0,726.6,1317.8,938.1,566.6,1384.8,1941.0,3437.0,3446.7,745.5,1050.4,1410.3,1566.5,1316.0,1077.3,0.0,-2.0,5.0,4743.0,5659.0,-11560.0,-8960.0,2.0,-4.0,-7.0,1.0,-2.0,-3.0,12050.0,11080.0,667.0,-56.0,-4.0,2.0,-7.0,1.0
2022-05-06 11:42:48.606184-07:00,1992.5,620.5,1332.3,1566.5,1138.4,1213.3,1286.4,1574.9,3441.9,3439.5,1697.6,1580.5,1447.0,3445.5,1053.9,1495.8,3428.6,3435.8,726.6,1317.8,937.3,566.6,1384.8,1941.0,3445.5,3443.1,745.5,1050.4,1415.8,1563.7,1316.0,1077.3,-5.0,-4.0,4.0,4743.0,5659.0,-11559.0,-8961.0,6.0,-9.0,-5.0,0.0,-8.0,0.0,12049.0,11082.0,668.0,-56.0,13.0,4.0,-5.0,1.0
2022-05-06 11:42:48.607252-07:00,1996.5,624.6,1332.3,1566.5,1142.7,1208.0,1286.4,1574.9,3441.9,3444.3,1697.6,1580.5,1454.3,3437.0,1053.9,1495.8,3428.6,3435.8,728.2,1320.5,937.3,566.6,1382.1,1944.0,3445.5,3443.1,741.4,1048.7,1415.8,1563.7,1321.4,1070.3,-2.0,-4.0,8.0,4741.0,5660.0,-11562.0,-8958.0,-7.0,8.0,-5.0,-3.0,-5.0,0.0,12047.0,11084.0,668.0,-56.0,-2.0,8.0,-5.0,1.0
2022-05-06 11:42:48.663583-07:00,1996.5,624.6,1322.3,1571.1,1142.7,1212.4,1296.3,1561.8,3441.9,3444.3,1695.7,1586.1,1454.3,3439.5,1052.2,1499.5,3438.2,3439.5,728.2,1320.5,930.5,562.6,1382.1,1944.0,3449.1,3454.0,762.0,1048.7,1416.7,1566.5,1321.4,1070.3,-4.0,-5.0,5.0,4749.0,5665.0,-11558.0,-8956.0,-12.0,29.0,9.0,1.0,-9.0,0.0,12047.0,11084.0,668.0,-56.0,-2.0,4.0,2.0,1.0
2022-05-06 11:42:48.664592-07:00,1995.5,618.1,1331.4,1571.1,1136.6,1212.4,1296.3,1561.8,3446.7,3445.5,1689.1,1586.1,1447.0,3439.5,1052.2,1499.5,3438.2,3439.5,728.2,1316.9,930.5,563.4,1385.7,1940.0,3449.1,3454.0,762.0,1052.2,1416.7,1568.3,1318.7,1072.9,-5.0,1.0,3.0,4751.0,5667.0,-11557.0,-8954.0,-14.0,-9.0,-9.0,-2.0,-2.0,-1.0,12047.0,11084.0,668.0,-57.0,-1.0,3.0,-6.0,1.0
2022-05-06 11:42:48.693759-07:00,1995.5,618.1,1331.4,1574.9,1136.6,1216.8,1285.5,1556.2,3446.7,3445.5,1689.1,1575.8,1447.0,3439.5,1052.2,1495.8,3441.9,3432.2,728.2,1316.9,933.0,563.4,1385.7,1940.0,3440.7,3444.3,739.7,1052.2,1411.3,1568.3,1318.7,1072.9,-4.0,-4.0,8.0,4751.0,5668.0,-11557.0,-8954.0,13.0,-8.0,8.0,0.0,-8.0,-3.0,12047.0,11084.0,668.0,-57.0,12.0,-1.0,-6.0,1.0
2022-05-06 11:42:48.754122-07:00,1993.5,619.7,1321.4,1574.9,1141.0,1216.8,1285.5,1556.2,3449.1,3429.8,1692.9,1575.8,1445.1,3439.5,1052.2,1495.8,3441.9,3432.2,728.2,1315.1,933.0,565.8,1388.5,1940.0,3440.7,3444.3,739.7,1047.0,1411.3,1569.3,1313.3,1070.3,-4.0,-2.0,7.0,4749.0,5670.0,-11557.0,-8953.0,0.0,-4.0,-16.0,-3.0,-4.0,-3.0,12045.0,11086.0,669.0,-57.0,9.0,5.0,-10.0,1.0
2022-05-06 11:42:48.813478-07:00,1993.5,619.7,1321.4,1566.5,1141.0,1212.4,1297.2,1575.8,3449.1,3429.8,1692.9,1579.6,1445.1,3433.4,1048.7,1492.1,3439.5,3431.0,723.3,1315.1,937.3,565.8,1388.5,1940.0,3438.2,3441.9,740.6,1047.0,1411.3,1569.3,1313.3,1070.3,-5.0,-2.0,4.0,4744.0,5668.0,-11559.0,-8956.0,-7.0,-16.0,8.0,-3.0,-5.0,-7.0,12045.0,11086.0,669.0,-57.0,-8.0,-2.0,-3.0,1.0
2022-05-06 11:42:48.843904-07:00,1994.5,621.4,1314.2,1589.9,1138.4,1212.4,1297.2,1575.8,3446.7,3435.8,1686.2,1577.7,1453.4,3433.4,1048.7,1492.1,3439.5,3431.0,723.3,1317.8,936.4,562.6,1380.3,1942.0,3438.2,3441.9,740.6,1043.5,1404.9,1564.6,1307.9,1071.2,0.0,0.0,11.0,4740.0,5665.0,-11560.0,-8958.0,8.0,-8.0,-9.0,-3.0,-4.0,0.0,12045.0,11086.0,669.0,-57.0,3.0,4.0,-2.0,1.0
2022-05-06 11:42:48.993978-07:00,1994.5,621.4,1314.2,1589.9,1140.1,1212.4,1290.0,1563.7,3446.7,3435.8,1686.2,1577.7,1450.6,3449.1,1054.8,1492.1,3434.6,3433.4,732.3,1316.9,936.4,562.6,1380.3,1942.0,3444.3,3450.4,742.2,1042.6,1404.9,1564.6,1307.9,1071.2,-2.0,-7.0,7.0,4742.0,5670.0,-11560.0,-8954.0,6.0,25.0,-5.0,-3.0,-8.0,0.0,12044.0,11087.0,671.0,-56.0,9.0,15.0,-8.0,1.0
2022-05-06 11:42:48.995048-07:00,1991.5,618.1,1326.8,1567.4,1140.1,1212.4,1290.0,1563.7,3439.5,3441.9,1693.8,1576.8,1450.6,3449.1,1054.8,1492.1,3434.6,3433.4,732.3,1316.9,934.7,564.2,1381.2,1938.0,3444.3,3450.4,742.2,1042.6,1417.6,1559.9,1317.8,1077.3,-6.0,-2.0,0.0,4742.0,5672.0,-11560.0,-8952.0,-1.0,-5.0,-10.0,-3.0,-5.0,-6.0,12042.0,11089.0,673.0,-55.0,-2.0,-4.0,-5.0,1.0
2022-05-06 11:42:49.025941-07:00,1991.5,618.1,1326.8,1567.4,1144.5,1223.0,1291.8,1567.4,3439.5,3441.9,1693.8,1576.8,1447.9,3441.9,1056.5,1504.1,3443.1,3439.5,726.6,1311.5,934.7,564.2,1381.2,1938.0,3444.3,3443.1,738.1,1047.0,1417.6,1559.9,1317.8,1077.3,0.0,-1.0,15.0,4739.0,5670.0,-11561.0,-8953.0,-3.0,-3.0,-5.0,0.0,-8.0,0.0,12043.0,11088.0,673.0,-55.0,-11.0,-4.0,1.0,1.0
2022-05-06 11:42:49.173696-07:00,1994.5,616.5,1318.7,1569.3,1144.5,1223.0,1291.8,1567.4,3444.3,3437.0,1679.5,1577.7,1447.9,3441.9,1056.5,1504.1,3443.1,3439.5,726.6,1311.5,933.9,562.6,1383.0,1945.0,3444.3,3443.1,738.1,1047.0,1414.9,1564.6,1321.4,1070.3,-7.0,-3.0,3.0,4737.0,5672.0,-11564.0,-8950.0,28.0,-4.0,-5.0,-5.0,-6.0,-2.0,12041.0,11090.0,673.0,-55.0,17.0,1.0,-2.0,1.0
2022-05-06 11:42:49.174745-07:00,1994.5,616.5,1318.7,1569.3,1141.9,1218.6,1291.8,1563.7,3444.3,3437.0,1679.5,1577.7,1452.5,3449.1,1056.5,1501.4,3439.5,3435.8,729.0,1314.2,933.9,562.6,1383.0,1945.0,3443.1,3444.3,748.8,1047.0,1414.9,1564.6,1321.4,1070.3,-7.0,-3.0,5.0,4736.0,5672.0,-11566.0,-8948.0,-15.0,6.0,-4.0,-2.0,-3.0,-6.0,12041.0,11091.0,673.0,-55.0,-17.0,-2.0,-3.0,1.0
2022-05-06 11:42:49.204218-07:00,1983.6,621.4,1318.7,1570.2,1141.9,1218.6,1291.8,1562.7,3441.9,3438.2,1691.9,1586.1,1452.5,3449.1,1056.5,1500.4,3439.5,3435.8,729.0,1314.2,933.9,561.0,1382.1,1940.0,3435.8,3444.3,748.8,1047.0,1409.4,1566.5,1316.9,1066.0,-5.0,-1.0,2.0,4736.0,5671.0,-11565.0,-8951.0,-20.0,-4.0,5.0,-3.0,-8.0,-2.0,12042.0,11089.0,673.0,-55.0,-13.0,4.0,-6.0,1.0
2022-05-06 11:42:49.205325-07:00,1993.5,621.4,1318.7,1570.2,1142.7,1213.3,1293.6,1562.7,3438.2,3438.2,1691.9,1586.1,1444.2,3434.6,1052.2,1500.4,3439.5,3434.6,729.9,1314.2,933.9,561.0,1382.1,1944.0,3435.8,3449.1,739.7,1048.7,1409.4,1566.5,1316.9,1072.1,-2.0,0.0,14.0,4734.0,5668.0,-11564.0,-8954.0,0.0,-2.0,-1.0,-1.0,-4.0,-5.0,12042.0,11089.0,673.0,-55.0,-6.0,-1.0,-3.0,1.0
2022-05-06 11:42:49.263060-07:00,1993.5,615.7,1316.9,1565.5,1142.7,1213.3,1293.6,1565.5,3438.2,3443.1,1687.2,1579.6,1444.2,3434.6,1052.2,1495.8,3433.4,3434.6,729.9,1314.2,939.8,569.8,1377.5,1944.0,3437.0,3449.1,739.7,1048.7,1436.9,1563.7,1316.0,1072.1,-5.0,-1.0,8.0,4736.0,5671.0,-11565.0,-8950.0,31.0,11.0,-5.0,-2.0,-6.0,-1.0,12040.0,11092.0,673.0,-56.0,24.0,9.0,-4.0,1.0
2022-05-06 11:42:49.323533-07:00,1992.5,615.7,1316.9,1565.5,1135.7,1212.4,1287.3,1565.5,3449.1,3443.1,1687.2,1579.6,1452.5,3446.7,1048.7,1495.8,3433.4,3444.3,728.2,1318.7,939.8,569.8,1377.5,1933.1,3437.0,3446.7,749.6,1047.0,1436.9,1563.7,1316.0,1065.1,-6.0,-8.0,1.0,4733.0,5676.0,-11565.0,-8948.0,2.0,-2.0,-7.0,-5.0,-5.0,-1.0,12037.0,11095.0,676.0,-53.0,2.0,4.0,-8.0,1.0
2022-05-06 11:42:49.384217-07:00,1992.5,614.1,1319.6,1574.9,1135.7,1212.4,1287.3,1560.9,3449.1,3440.7,1692.9,1580.5,1452.5,3446.7,1048.7,1497.7,3433.4,3444.3,728.2,1318.7,935.6,568.2,1383.0,1933.1,3439.5,3446.7,749.6,1047.0,1414.0,1560.9,1315.1,1065.1,-2.0,-1.0,12.0,4729.0,5674.0,-11568.0,-8947.0,-2.0,10.0,5.0,-7.0,-8.0,-5.0,12037.0,11095.0,676.0,-53.0,4.0,6.0,2.0,1.0
2022-05-06 11:42:49.413525-07:00,1991.5,618.9,1319.6,1574.9,1134.0,1215.1,1299.0,1560.9,3444.3,3449.1,1692.9,1580.5,1452.5,3439.5,1056.5,1497.7,3433.4,3444.3,728.2,1313.3,935.6,568.2,1380.3,1940.0,3439.5,3443.1,747.2,1046.1,1414.0,1560.9,1322.3,1068.6,-5.0,0.0,2.0,4734.0,5679.0,-11566.0,-8944.0,19.0,4.0,-17.0,-2.0,-7.0,0.0,12034.0,11098.0,677.0,-52.0,24.0,13.0,-9.0,1.0
2022-05-06 11:42:49.444182-07:00,1991.5,618.9,1316.9,1565.5,1134.0,1215.1,1288.2,1559.0,3444.3,3449.1,1691.0,1579.6,1452.5,3439.5,1053.0,1494.9,3434.6,3437.0,728.2,1313.3,935.6,560.2,1380.3,1940.0,3438.2,3433.4,747.2,1046.1,1413.1,1571.1,1322.3,1068.6,-5.0,-11.0,6.0,4729.0,5685.0,-11569.0,-8940.0,-4.0,-7.0,13.0,-6.0,-8.0,-7.0,12032.0,11100.0,679.0,-54.0,1.0,-1.0,-1.0,1.0
2022-05-06 11:42:49.503819-07:00,1991.5,617.3,1316.9,1565.5,1136.6,1212.4,1288.2,1559.0,3449.1,3441.9,1691.0,1579.6,1448.8,3431.0,1053.0,1494.9,3434.6,3437.0,730.7,1315.1,935.6,560.2,1383.0,1932.1,3438.2,3433.4,745.5,1047.0,1413.1,1571.1,1311.5,1074.7,-2.0,1.0,11.0,4731.0,5682.0,-11570.0,-8939.0,-3.0,-2.0,-16.0,-2.0,-7.0,-1.0,12032.0,11100.0,679.0,-54.0,-1.0,2.0,-7.0,1.0
2022-05-06 11:42:49.564309-07:00,1991.5,617.3,1321.4,1569.3,1136.6,1212.4,1282.8,1554.3,3449.1,3441.9,1686.2,1580.5,1448.8,3431.0,1048.7,1495.8,3434.6,3432.2,730.7,1315.1,932.2,561.8,1383.0,1932.1,3433.4,3439.5,745.5,1047.0,1408.5,1568.3,1311.5,1074.7,-8.0,-9.0,7.0,4729.0,5685.0,-11569.0,-8939.0,6.0,9.0,7.0,-6.0,-8.0,-4.0,12032.0,11100.0,680.0,-54.0,8.0,9.0,-4.0,1.0
2022-05-06 11:42:49.593098-07:00,1994.5,619.7,1321.4,1569.3,1143.6,1211.5,1282.8,1554.3,3439.5,3444.3,1686.2,1580.5,1446.0,3444.3,1048.7,1495.8,3434.6,3432.2,732.3,1325.0,932.2,561.8,1382.1,1943.0,3433.4,3439.5,748.8,1049.6,1408.5,1568.3,1316.0,1070.3,-4.0,2.0,6.0,4727.0,5685.0,-11569.0,-8941.0,-10.0,-8.0,-12.0,-6.0,0.0,-7.0,12033.0,11098.0,680.0,-54.0,-16.0,-2.0,-7.0,1.0
2022-05-06 11:42:49.684273-07:00,1994.5,619.7,1316.9,1568.3,1143.6,1210.6,1286.4,1559.0,3439.5,3444.3,1685.3,1579.6,1446.0,3439.5,1048.7,1493.0,3431.0,3434.6,729.0,1325.0,935.6,562.6,1382.1,1943.0,3431.0,3437.0,746.3,1049.6,1409.4,1565.5,1316.0,1070.3,-5.0,2.0,12.0,4729.0,5683.0,-11567.0,-8943.0,11.0,-5.0,8.0,-8.0,-1.0,-6.0,12035.0,11097.0,680.0,-54.0,8.0,4.0,2.0,1.0
2022-05-06 11:42:49.713175-07:00,1993.5,616.5,1322.3,1568.3,1138.4,1210.6,1286.4,1559.0,3439.5,3439.5,1687.2,1579.6,1447.9,3439.5,1048.7,1493.0,3431.0,3434.6,729.0,1317.8,935.6,565.8,1381.2,1937.1,3431.0,3437.0,746.3,1045.2,1409.4,1571.1,1316.9,1066.0,-8.0,1.0,5.0,4729.0,5684.0,-11567.0,-8943.0,-6.0,14.0,-2.0,-8.0,-1.0,-6.0,12035.0,11097.0,680.0,-54.0,-5.0,5.0,-5.0,1.0
2022-05-06 11:42:49.743505-07:00,1993.5,616.5,1322.3,1572.1,1138.4,1208.0,1298.1,1563.7,3439.5,3439.5,1687.2,1581.4,1447.9,3438.2,1053.9,1495.8,3440.7,3433.4,721.6,1317.8,932.2,565.8,1381.2,1937.1,3449.1,3438.2,746.3,1045.2,1414.0,1571.1,1316.9,1066.0,-9.0,-1.0,6.0,4733.0,5686.0,-11564.0,-8943.0,-9.0,7.0,-2.0,-10.0,-5.0,-4.0,12035.0,11096.0,680.0,-54.0,-1.0,3.0,-3.0,1.0
2022-05-06 11:42:49.803899-07:00,1990.5,618.9,1325.0,1572.1,1139.2,1208.0,1298.1,1563.7,3444.3,3438.2,1679.5,1581.4,1447.9,3438.2,1053.9,1495.8,3440.7,3433.4,721.6,1317.8,932.2,559.4,1378.5,1935.1,3449.1,3438.2,746.3,1045.2,1414.0,1554.3,1325.0,1062.5,-2.0,3.0,10.0,4731.0,5684.0,-11565.0,-8944.0,-4.0,2.0,0.0,-6.0,-3.0,-3.0,12035.0,11096.0,680.0,-54.0,-7.0,-4.0,0.0,1.0
2022-05-06 11:42:49.863448-07:00,1990.5,618.9,1325.0,1564.6,1139.2,1208.9,1291.8,1564.6,3444.3,3438.2,1679.5,1578.6,1447.9,3435.8,1052.2,1506.0,3440.7,3432.2,727.4,1317.8,936.4,559.4,1378.5,1935.1,3449.1,3439.5,745.5,1045.2,1406.7,1554.3,1325.0,1062.5,-7.0,0.0,5.0,4734.0,5685.0,-11564.0,-8944.0,24.0,-2.0,3.0,-3.0,-6.0,-4.0,12034.0,11097.0,680.0,-54.0,16.0,2.0,-2.0,1.0
2022-05-06 11:42:49.954468-07:00,1995.5,622.2,1313.3,1564.6,1145.4,1208.9,1291.8,1564.6,3438.2,3440.7,1687.2,1578.6,1447.0,3435.8,1052.2,1506.0,3440.7,3432.2,727.4,1317.8,936.4,564.2,1377.5,1932.1,3449.1,3439.5,745.5,1046.1,1406.7,1572.1,1307.0,1072.1,-9.0,-2.0,7.0,4729.0,5686.0,-11567.0,-8940.0,-2.0,1.0,-6.0,-10.0,-2.0,-3.0,12032.0,11099.0,680.0,-54.0,-6.0,1.0,-7.0,1.0
2022-05-06 11:42:49.955255-07:00,1995.5,622.2,1313.3,1562.7,1140.1,1209.7,1290.0,1562.7,3438.2,3440.7,1687.2,1582.4,1448.8,3444.3,1053.9,1496.7,3438.2,3437.0,729.9,1319.6,930.5,564.2,1377.5,1932.1,3445.5,3446.7,743.9,1041.8,1409.4,1572.1,1307.0,1072.1,-7.0,2.0,8.0,4731.0,5685.0,-11566.0,-8942.0,1.0,-1.0,8.0,-6.0,-7.0,0.0,12033.0,11098.0,680.0,-54.0,5.0,0.0,7.0,1.0
2022-05-06 11:42:50.043084-07:00,1991.5,610.8,1321.4,1571.1,1140.1,1209.7,1290.0,1562.7,3440.7,3439.5,1686.2,1577.7,1448.8,3444.3,1053.9,1496.7,3438.2,3437.0,729.9,1319.6,928.8,563.4,1383.9,1934.1,3445.5,3446.7,743.9,1041.8,1410.3,1567.4,1313.3,1063.4,-6.0,-8.0,10.0,4731.0,5685.0,-11566.0,-8942.0,5.0,-2.0,-2.0,-4.0,-10.0,-3.0,12033.0,11098.0,680.0,-54.0,-9.0,-3.0,-2.0,1.0
2022-05-06 11:42:50.074028-07:00,1991.5,610.8,1321.4,1571.1,1143.6,1208.9,1305.2,1559.9,3440.7,3439.5,1686.2,1577.7,1441.5,3431.0,1051.3,1500.4,3429.8,3434.6,729.0,1314.2,928.8,563.4,1383.9,1934.1,3439.5,3445.5,739.7,1049.6,1410.3,1567.4,1313.3,1063.4,-8.0,-1.0,12.0,4731.0,5685.0,-11566.0,-8942.0,-1.0,0.0,0.0,-8.0,-7.0,0.0,12033.0,11098.0,680.0,-54.0,-2.0,-2.0,1.0,1.0
2022-05-06 11:42:50.104373-07:00,1989.5,615.7,1314.2,1570.2,1143.6,1208.9,1305.2,1559.9,3439.5,3441.9,1689.1,1577.7,1441.5,3431.0,1051.3,1500.4,3429.8,3434.6,729.0,1314.2,935.6,561.0,1376.6,1936.1,3439.5,3445.5,739.7,1049.6,1411.3,1572.1,1313.3,1069.5,-4.0,1.0,11.0,4730.0,5687.0,-11568.0,-8939.0,10.0,16.0,0.0,-5.0,-6.0,-3.0,12032.0,11099.0,680.0,-54.0,3.0,1.0,3.0,1.0
2022-05-06 11:42:50.163141-07:00,1989.5,615.7,1314.2,1570.2,1138.4,1201.8,1293.6,1558.1,3439.5,3441.9,1689.1,1577.7,1447.0,3443.1,1048.7,1496.7,3439.5,3433.4,725.8,1319.6,935.6,561.0,1376.6,1936.1,3438.2,3446.7,738.1,1041.8,1411.3,1572.1,1313.3,1069.5,-7.0,2.0,0.0,4732.0,5687.0,-11568.0,-8938.0,7.0,-11.0,8.0,-6.0,-4.0,-4.0,12032.0,11099.0,680.0,-54.0,-1.0,0.0,-1.0,1.0
2022-05-06 11:42:50.193588-07:00,1988.5,618.9,1325.0,1564.6,1138.4,1201.8,1293.6,1557.1,3441.9,3432.2,1684.3,1571.1,1447.0,3443.1,1048.7,1501.4,3435.8,3433.4,725.8,1319.6,935.6,558.6,1376.6,1938.0,3445.5,3446.7,738.1,1041.8,1408.5,1567.4,1302.5,1071.2,-8.0,-8.0,14.0,4727.0,5683.0,-11569.0,-8941.0,4.0,-12.0,-4.0,-8.0,-10.0,-1.0,12033.0,11098.0,680.0,-55.0,-1.0,-5.0,0.0,1.0
2022-05-06 11:42:50.283599-07:00,2001.5,618.9,1325.0,1564.6,1139.2,1206.2,1284.6,1557.1,3431.0,3432.2,1684.3,1571.1,1445.1,3435.8,1050.4,1501.4,3435.8,3449.1,725.8,1312.4,935.6,558.6,1376.6,1937.1,3445.5,3438.2,742.2,1040.9,1408.5,1567.4,1302.5,1065.1,-5.0,0.0,6.0,4728.0,5685.0,-11570.0,-8939.0,-9.0,16.0,2.0,-4.0,-5.0,-4.0,12033.0,11098.0,680.0,-55.0,4.0,3.0,2.0,1.0
2022-05-06 11:42:50.343569-07:00,2001.5,617.3,1317.8,1565.5,1139.2,1206.2,1284.6,1556.2,3431.0,3434.6,1693.8,1573.9,1445.1,3435.8,1050.4,1490.3,3439.5,3449.1,725.8,1312.4,932.2,563.4,1381.2,1937.1,3443.1,3438.2,742.2,1040.9,1422.2,1567.4,1317.8,1065.1,-5.0,0.0,4.0,4726.0,5685.0,-11571.0,-8938.0,7.0,-15.0,-4.0,-6.0,-4.0,-6.0,12033.0,11098.0,680.0,-55.0,-4.0,-7.0,-4.0,1.0
2022-05-06 11:42:50.403525-07:00,1986.6,617.3,1317.8,1565.5,1138.4,1209.7,1298.1,1556.2,3449.1,3434.6,1693.8,1573.9,1440.5,3439.5,1053.9,1490.3,3439.5,3444.3,726.6,1314.2,932.2,563.4,1381.2,1927.2,3443.1,3440.7,741.4,1042.6,1422.2,1567.4,1317.8,1067.7,-8.0,0.0,10.0,4729.0,5682.0,-11569.0,-8942.0,-17.0,11.0,12.0,-8.0,-9.0,0.0,12036.0,11095.0,680.0,-54.0,-11.0,-4.0,6.0,1.0
2022-05-06 11:42:50.433902-07:00,1986.6,611.7,1314.2,1563.7,1138.4,1209.7,1298.1,1555.3,3449.1,3446.7,1686.2,1577.7,1440.5,3439.5,1053.9,1495.8,3441.9,3444.3,726.6,1314.2,933.9,563.4,1374.8,1927.2,3443.1,3440.7,741.4,1042.6,1414.0,1566.5,1316.0,1067.7,-3.0,-3.0,1.0,4728.0,5682.0,-11570.0,-8940.0,7.0,-3.0,-6.0,-6.0,-5.0,-10.0,12035.0,11096.0,680.0,-54.0,-1.0,-3.0,-5.0,1.0
2022-05-06 11:42:50.493649-07:00,1983.6,614.1,1314.2,1563.7,1137.5,1209.7,1295.4,1555.3,3439.5,3441.9,1686.2,1577.7,1440.5,3441.9,1045.2,1495.8,3441.9,3440.7,728.2,1317.8,933.9,563.4,1380.3,1936.1,3443.1,3438.2,745.5,1045.2,1414.0,1566.5,1319.6,1069.5,-5.0,-4.0,12.0,4729.0,5677.0,-11572.0,-8941.0,-7.0,-12.0,20.0,-7.0,-5.0,-8.0,12036.0,11095.0,679.0,-55.0,-12.0,-7.0,13.0,1.0
2022-05-06 11:42:50.494900-07:00,1983.6,614.1,1316.0,1564.6,1137.5,1209.7,1287.3,1558.1,3439.5,3441.9,1690.0,1573.9,1440.5,3441.9,1047.0,1494.0,3428.6,3435.8,728.2,1317.8,933.9,565.8,1380.3,1936.1,3437.0,3440.7,745.5,1045.2,1410.3,1565.5,1319.6,1069.5,-7.0,-1.0,7.0,4734.0,5676.0,-11573.0,-8937.0,12.0,16.0,2.0,-6.0,-8.0,-1.0,12036.0,11095.0,676.0,-51.0,10.0,11.0,6.0,1.0
2022-05-06 11:42:50.553483-07:00,1974.6,617.3,1316.0,1564.6,1134.0,1208.0,1287.3,1558.1,3431.0,3438.2,1690.0,1573.9,1448.8,3428.6,1047.0,1494.0,3428.6,3435.8,729.0,1318.7,933.9,565.8,1373.0,1934.1,3437.0,3440.7,740.6,1042.6,1410.3,1565.5,1317.8,1070.3,-6.0,-8.0,4.0,4732.0,5678.0,-11575.0,-8934.0,-3.0,4.0,1.0,-6.0,-2.0,-6.0,12034.0,11098.0,676.0,-51.0,-7.0,-2.0,-1.0,1.0
2022-05-06 11:42:50.643532-07:00,1974.6,617.3,1311.5,1569.3,1134.0,1208.0,1292.7,1574.9,3431.0,3438.2,1682.4,1581.4,1448.8,3428.6,1056.5,1495.8,3439.5,3431.0,729.0,1318.7,938.1,560.2,1373.0,1934.1,3444.3,3440.7,740.6,1042.6,1414.0,1560.9,1317.8,1070.3,-3.0,3.0,9.0,4733.0,5674.0,-11577.0,-8933.0,5.0,-8.0,2.0,-6.0,-4.0,-7.0,12035.0,11097.0,674.0,-53.0,-9.0,-11.0,1.0,1.0
2022-05-06 11:42:50.674134-07:00,1991.5,619.7,1311.5,1569.3,1139.2,1209.7,1292.7,1574.9,3431.0,3444.3,1682.4,1581.4,1452.5,3445.5,1056.5,1495.8,3439.5,3431.0,724.1,1321.4,938.1,560.2,1381.2,1932.1,3444.3,3440.7,746.3,1043.5,1414.0,1560.9,1311.5,1065.1,-8.0,-11.0,13.0,4730.0,5678.0,-11575.0,-8935.0,12.0,3.0,2.0,-5.0,-7.0,0.0,12034.0,11097.0,673.0,-54.0,16.0,7.0,2.0,1.0
2022-05-06 11:42:50.703618-07:00,1991.5,619.7,1316.9,1571.1,1139.2,1209.7,1291.8,1557.1,3431.0,3444.3,1688.1,1582.4,1452.5,3445.5,1050.4,1491.2,3433.4,3441.9,724.1,1321.4,937.3,561.8,1381.2,1932.1,3438.2,3438.2,746.3,1043.5,1411.3,1564.6,1311.5,1065.1,-9.0,7.0,6.0,4729.0,5678.0,-11578.0,-8932.0,-5.0,1.0,-16.0,-11.0,-8.0,-2.0,12032.0,11099.0,673.0,-54.0,-3.0,5.0,-6.0,1.0
2022-05-06 11:42:50.793581-07:00,1982.6,616.5,1309.7,1571.1,1134.9,1213.3,1291.8,1557.1,3439.5,3439.5,1688.1,1582.4,1449.7,3452.8,1050.4,1491.2,3433.4,3441.9,723.3,1315.1,937.3,560.2,1375.7,1929.2,3438.2,3438.2,744.7,1036.6,1411.3,1563.7,1314.2,1070.3,-9.0,-9.0,9.0,4727.0,5679.0,-11577.0,-8935.0,-13.0,5.0,11.0,-11.0,-3.0,-8.0,12033.0,11099.0,673.0,-54.0,-14.0,-6.0,6.0,1.0
2022-05-06 11:42:50.824272-07:00,1982.6,616.5,1309.7,1569.3,1134.9,1196.5,1290.9,1561.8,3439.5,3439.5,1688.1,1580.5,1449.7,3437.0,1047.0,1499.5,3439.5,3437.0,721.6,1315.1,935.6,560.2,1375.7,1929.2,3454.0,3446.7,736.5,1036.6,1404.0,1563.7,1314.2,1070.3,-5.0,4.0,10.0,4728.0,5678.0,-11577.0,-8934.0,16.0,-5.0,-9.0,-4.0,-3.0,-3.0,12034.0,11098.0,673.0,-54.0,12.0,5.0,-5.0,1.0
2022-05-06 11:42:50.854143-07:00,1988.5,612.5,1320.5,1569.3,1141.9,1196.5,1290.9,1561.8,3435.8,3444.3,1680.5,1580.5,1445.1,3437.0,1047.0,1499.5,3439.5,3437.0,721.6,1316.0,935.6,565.0,1375.7,1931.1,3454.0,3446.7,736.5,1043.5,1404.0,1558.1,1313.3,1075.6,-3.0,-5.0,2.0,4727.0,5679.0,-11577.0,-8933.0,-3.0,4.0,5.0,-8.0,-3.0,-8.0,12032.0,11100.0,673.0,-54.0,-4.0,-8.0,-1.0,1.0
2022-05-06 11:42:50.913055-07:00,1988.5,612.5,1320.5,1570.2,1141.9,1213.3,1288.2,1559.9,3435.8,3444.3,1680.5,1582.4,1445.1,3437.0,1051.3,1496.7,3437.0,3433.4,724.9,1316.0,939.8,565.0,1375.7,1931.1,3451.6,3441.9,745.5,1043.5,1411.3,1558.1,1313.3,1075.6,-7.0,-2.0,8.0,4727.0,5679.0,-11577.0,-8933.0,-5.0,-6.0,-4.0,-6.0,-7.0,-8.0,12033.0,11099.0,673.0,-54.0,-3.0,0.0,2.0,1.0
2022-05-06 11:42:50.973490-07:00,1988.5,617.3,1316.9,1570.2,1139.2,1213.3,1288.2,1559.9,3437.0,3445.5,1688.1,1582.4,1448.8,3437.0,1051.3,1496.7,3437.0,3433.4,724.9,1320.5,939.8,564.2,1374.8,1932.1,3451.6,3441.9,745.5,1034.9,1411.3,1562.7,1314.2,1074.7,-3.0,-5.0,11.0,4727.0,5676.0,-11579.0,-8933.0,2.0,7.0,18.0,-12.0,-8.0,-2.0,12033.0,11099.0,673.0,-54.0,1.0,-6.0,9.0,1.0
2022-05-06 11:42:51.003898-07:00,1988.5,617.3,1316.9,1566.5,1135.7,1219.5,1290.9,1567.4,3437.0,3445.5,1688.1,1582.4,1450.6,3435.8,1053.9,1495.8,3431.0,3435.8,724.9,1325.0,935.6,564.2,1374.8,1932.1,3438.2,3433.4,744.7,1051.3,1413.1,1562.7,1314.2,1074.7,-8.0,4.0,6.0,4731.0,5676.0,-11579.0,-8931.0,6.0,2.0,-3.0,-8.0,-7.0,-4.0,12033.0,11099.0,673.0,-54.0,13.0,3.0,0.0,1.0
2022-05-06 11:42:51.063520-07:00,1995.5,614.9,1315.1,1571.1,1135.7,1219.5,1290.9,1567.4,3429.8,3441.9,1686.2,1582.4,1450.6,3435.8,1053.9,1495.8,3431.0,3435.8,724.9,1325.0,929.6,563.4,1380.3,1933.1,3438.2,3433.4,744.7,1051.3,1410.3,1563.7,1312.4,1071.2,-5.0,-2.0,7.0,4726.0,5676.0,-11581.0,-8931.0,-10.0,-9.0,-5.0,-7.0,-4.0,-4.0,12033.0,11099.0,673.0,-54.0,-14.0,-2.0,0.0,1.0
2022-05-06 11:42:51.154114-07:00,1995.5,614.9,1315.1,1571.1,1134.0,1203.5,1281.0,1559.0,3429.8,3441.9,1686.2,1582.4,1441.5,3439.5,1047.8,1500.4,3431.0,3439.5,728.2,1314.2,929.6,563.4,1380.3,1933.1,3443.1,3439.5,745.5,1043.5,1410.3,1563.7,1312.4,1071.2,-8.0,-3.0,15.0,4728.0,5674.0,-11579.0,-8934.0,-6.0,0.0,8.0,-3.0,-11.0,0.0,12037.0,11095.0,672.0,-55.0,-6.0,-4.0,-1.0,1.0
2022-05-06 11:42:51.244119-07:00,1988.5,614.1,1309.7,1575.8,1134.0,1203.5,1281.0,1559.0,3441.9,3440.7,1680.5,1578.6,1441.5,3439.5,1047.8,1500.4,3431.0,3439.5,728.2,1314.2,936.4,557.8,1382.1,1928.2,3443.1,3439.5,745.5,1043.5,1411.3,1553.4,1314.2,1069.5,-8.0,7.0,8.0,4725.0,5677.0,-11580.0,-8932.0,14.0,-3.0,-17.0,-9.0,0.0,-10.0,12035.0,11097.0,672.0,-55.0,8.0,1.0,-2.0,1.0
2022-05-06 11:42:51.244998-07:00,1988.5,614.1,1309.7,1575.8,1155.0,1205.3,1290.9,1561.8,3441.9,3440.7,1680.5,1578.6,1442.4,3438.2,1053.0,1497.7,3440.7,3437.0,721.6,1310.6,936.4,557.8,1382.1,1928.2,3445.5,3443.1,743.0,1041.8,1411.3,1553.4,1314.2,1069.5,-8.0,11.0,11.0,4729.0,5688.0,-11573.0,-8933.0,-6.0,36.0,-36.0,-6.0,-4.0,0.0,12035.0,11097.0,672.0,-55.0,-6.0,-5.0,-6.0,1.0
2022-05-06 11:42:51.246556-07:00,1991.5,615.7,1315.1,1566.5,1155.0,1205.3,1290.9,1561.8,3440.7,3432.2,1679.5,1580.5,1442.4,3438.2,1053.0,1497.7,3440.7,3437.0,721.6,1310.6,935.6,565.8,1381.2,1936.1,3445.5,3443.1,743.0,1041.8,1404.0,1559.9,1312.4,1073.8,-26.0,101.0,60.0,4730.0,5793.0,-11525.0,-8926.0,6.0,300.0,-379.0,-5.0,-11.0,24.0,12040.0,11091.0,672.0,-63.0,-7.0,32.0,-51.0,1.0
2022-05-06 11:42:51.393683-07:00,1986.6,615.7,1315.1,1566.5,1143.6,1216.0,1292.7,1564.6,3437.0,3432.2,1679.5,1580.5,1446.0,3433.4,1053.0,1490.3,3443.1,3435.8,737.3,1312.4,935.6,565.8,1381.2,1933.1,3445.5,3443.1,741.4,1059.9,1404.0,1559.9,1312.4,1067.7,8.0,56.0,35.0,4751.0,6093.0,-11352.0,-8937.0,-70.0,692.0,-712.0,6.0,4.0,-1.0,12032.0,11097.0,716.0,-71.0,7.0,79.0,-107.0,1.0
2022-05-06 11:42:51.394836-07:00,1986.6,621.4,1586.1,1660.6,1143.6,1216.0,1292.7,1891.8,3437.0,3441.9,1795.5,1610.5,1446.0,3433.4,1053.0,1534.8,3428.6,3435.8,737.3,1312.4,939.8,562.6,1403.0,1933.1,3440.7,3443.1,741.4,1059.9,1414.9,1676.7,1478.3,1067.7,-18.0,-61.0,-13.0,4820.0,6460.0,-11152.0,-8894.0,271.0,719.0,-538.0,-14.0,-15.0,-11.0,12012.0,11114.0,784.0,-67.0,165.0,118.0,-69.0,1.0
2022-05-06 11:42:51.454102-07:00,2027.4,621.4,1586.1,1660.6,1161.2,1238.2,1445.1,1891.8,3441.9,3441.9,1795.5,1610.5,1446.0,3444.3,1308.8,1534.8,3428.6,3435.8,727.4,1313.3,939.8,562.6,1403.0,2023.4,3440.7,3440.7,757.1,1065.1,1414.9,1676.7,1478.3,1069.5,-4.0,29.0,-38.0,4770.0,6741.0,-11034.0,-8860.0,-60.0,224.0,-698.0,-29.0,4.0,-17.0,11969.0,11157.0,831.0,-68.0,23.0,35.0,-99.0,1.0
2022-05-06 11:42:51.574269-07:00,2027.4,622.2,2068.5,1875.2,1161.2,1238.2,1445.1,2091.6,3441.9,3439.5,2491.9,1781.0,1446.0,3444.3,1308.8,1757.9,3437.0,3435.8,727.4,1313.3,936.4,557.8,1470.9,2023.4,3440.7,3440.7,757.1,1065.1,1490.3,2010.4,1921.3,1069.5,-16.0,-74.0,-23.0,4743.0,6922.0,-10872.0,-8935.0,-112.0,142.0,-354.0,-8.0,-18.0,0.0,11985.0,11137.0,868.0,-86.0,-42.0,23.0,-67.0,1.0
2022-05-06 11:42:51.604488-07:00,2049.4,622.2,2068.5,1875.2,1183.2,1335.9,1610.5,2091.6,3439.5,3439.5,2491.9,1781.0,1537.6,3438.2,1640.7,1757.9,3437.0,3441.9,734.8,1316.9,936.4,557.8,1470.9,2227.0,3440.7,3437.0,757.9,1079.0,1490.3,2010.4,1921.3,1070.3,-26.0,51.0,9.0,4745.0,7051.0,-10729.0,-9005.0,-307.0,209.0,-497.0,2.0,-1.0,-2.0,11994.0,11125.0,893.0,-99.0,-53.0,61.0,-60.0,1.0
2022-05-06 11:42:51.633512-07:00,2049.4,620.5,2166.7,2016.4,1183.2,1335.9,1708.1,2133.1,3439.5,3441.9,2771.3,1979.6,1537.6,3438.2,1722.4,1931.1,3438.2,3429.8,734.8,1316.9,933.0,569.8,1498.6,2227.0,3446.7,3438.2,757.9,1079.0,1525.5,2152.4,1993.5,1070.3,11.0,-78.0,34.0,4731.0,7156.0,-10584.0,-9102.0,-229.0,207.0,-310.0,-13.0,-17.0,0.0,11999.0,11116.0,942.0,-97.0,45.0,63.0,-76.0,1.0
2022-05-06 11:42:51.634853-07:00,2082.6,629.5,2166.7,2016.4,1260.4,1369.4,1708.1,2133.1,3433.4,3434.6,2771.3,1979.6,1625.6,3440.7,1722.4,1931.1,3438.2,3429.8,735.6,1319.6,933.0,569.8,1509.7,2410.3,3446.7,3438.2,783.6,1077.3,1525.5,2152.4,1951.9,1096.4,24.0,33.0,0.0,4807.0,7194.0,-10419.0,-9221.0,-639.0,16.0,-128.0,-10.0,6.0,-23.0,11977.0,11135.0,987.0,-91.0,52.0,96.0,-42.0,1.0
2022-05-06 11:42:51.663213-07:00,2082.6,629.5,2071.5,2024.4,1260.4,1369.4,1765.6,2155.5,3433.4,3434.6,2651.5,2034.4,1625.6,3440.7,1697.6,2001.5,3439.5,3440.7,735.6,1319.6,937.3,565.0,1509.7,2410.3,3449.1,3431.0,783.6,1077.3,1520.8,2166.7,1951.9,1096.4,-16.0,-66.0,17.0,4859.0,7173.0,-10256.0,-9391.0,-278.0,-45.0,-143.0,-17.0,-8.0,-10.0,11969.0,11140.0,1034.0,-86.0,18.0,58.0,-71.0,1.0
2022-05-06 11:42:51.723482-07:00,2329.5,643.2,2071.5,2024.4,1319.6,1379.4,1765.6,2155.5,3432.2,3441.9,2651.5,2034.4,1653.0,3445.5,1697.6,2001.5,3439.5,3440.7,734.8,1326.8,937.3,565.0,1559.9,2436.7,3449.1,3431.0,833.6,1073.8,1520.8,2166.7,1917.4,1210.6,19.0,0.0,-2.0,4866.0,7157.0,-10201.0,-9459.0,-85.0,-5.0,-101.0,0.0,-2.0,-1.0,11957.0,11150.0,1069.0,-86.0,54.0,77.0,-49.0,1.0
2022-05-06 11:42:51.784246-07:00,2329.5,643.2,1973.7,2019.4,1319.6,1379.4,1803.2,2194.2,3432.2,3441.9,2576.6,2068.5,1653.0,3445.5,1646.4,2012.4,3444.3,3439.5,734.8,1326.8,935.6,569.8,1559.9,2436.7,3438.2,3449.1,833.6,1073.8,1544.1,2171.8,1917.4,1210.6,-37.0,-45.0,-23.0,4859.0,7190.0,-10160.0,-9482.0,30.0,-41.0,-90.0,-2.0,-8.0,5.0,11937.0,11168.0,1103.0,-84.0,74.0,63.0,-22.0,1.0
2022-05-06 11:42:51.813092-07:00,2483.4,677.4,1908.5,2019.4,1459.8,1379.4,1803.2,2194.2,3433.4,3435.8,2524.0,2068.5,1705.3,3440.7,1646.4,2012.4,3444.3,3439.5,735.6,1337.7,935.6,564.2,1563.7,2480.2,3438.2,3449.1,865.4,1064.3,1544.1,2130.1,1865.4,1209.7,-12.0,-17.0,-26.0,4814.0,7178.0,-10175.0,-9498.0,-35.0,-167.0,24.0,-15.0,-3.0,-9.0,11922.0,11182.0,1125.0,-82.0,-47.0,-13.0,-1.0,1.0
2022-05-06 11:42:51.873471-07:00,2483.4,677.4,1908.5,2008.4,1459.8,1380.3,1824.6,2184.0,3433.4,3435.8,2524.0,2050.4,1705.3,3434.6,1619.0,2001.5,3439.5,3441.9,738.1,1337.7,941.5,564.2,1563.7,2480.2,3440.7,3439.5,862.9,1064.3,1711.0,2130.1,1865.4,1209.7,-9.0,-20.0,2.0,4770.0,7111.0,-10203.0,-9540.0,-11.0,-276.0,109.0,-10.0,-11.0,-4.0,11941.0,11162.0,1118.0,-91.0,-72.0,-47.0,10.0,1.0
2022-05-06 11:42:51.933548-07:00,2349.4,713.4,1881.1,2008.4,1504.1,1380.3,1824.6,2184.0,3438.2,3439.5,2482.3,2050.4,1711.0,3434.6,1619.0,2001.5,3439.5,3441.9,738.1,1349.4,941.5,561.8,1551.5,2438.8,3440.7,3439.5,862.9,1061.7,1711.0,2128.0,1834.3,1209.7,4.0,-21.0,23.0,4727.0,7026.0,-10237.0,-9588.0,-12.0,-226.0,60.0,-7.0,-13.0,0.0,11967.0,11136.0,1102.0,-98.0,-71.0,-35.0,9.0,1.0
2022-05-06 11:42:51.934806-07:00,2349.4,713.4,1881.1,2001.5,1504.1,1381.2,1809.0,2160.5,3438.2,3439.5,2482.3,2025.4,1711.0,3437.0,1594.6,1980.6,3433.4,3435.8,737.3,1349.4,948.3,561.8,1551.5,2438.8,3449.1,3433.4,866.3,1061.7,1711.0,2128.0,1834.3,1209.7,10.0,21.0,50.0,4710.0,6973.0,-10254.0,-9616.0,-48.0,15.0,-19.0,-1.0,-6.0,6.0,11987.0,11115.0,1087.0,-105.0,-52.0,-18.0,4.0,1.0
2022-05-06 11:42:51.993291-07:00,2284.8,711.8,1865.4,2001.5,1478.3,1381.2,1809.0,2160.5,3438.2,3438.2,2460.0,2025.4,1694.8,3437.0,1594.6,1980.6,3433.4,3435.8,737.3,1337.7,948.3,559.4,1545.0,2405.0,3449.1,3433.4,866.3,1053.0,1711.0,2106.8,1832.3,1208.9,-3.0,-7.0,14.0,4713.0,6983.0,-10260.0,-9601.0,114.0,22.0,45.0,-9.0,-2.0,-4.0,11979.0,11124.0,1090.0,-104.0,89.0,18.0,6.0,1.0
2022-05-06 11:42:52.113558-07:00,2284.8,711.8,1865.4,1976.6,1478.3,1376.6,1782.9,2126.0,3438.2,3438.2,2460.0,2008.4,1694.8,3444.3,1580.5,1971.7,3429.8,3441.9,738.9,1337.7,944.1,559.4,1545.0,2405.0,3443.1,3451.6,862.9,1053.0,1678.6,2106.8,1832.3,1208.9,-6.0,2.0,-6.0,4709.0,6994.0,-10281.0,-9573.0,-11.0,17.0,-18.0,-10.0,-7.0,-6.0,11960.0,11144.0,1095.0,-102.0,1.0,0.0,3.0,1.0
2022-05-06 11:42:52.115325-07:00,2272.4,711.0,1862.5,1975.6,1459.8,1376.6,1782.9,2126.0,3441.9,3433.4,2451.5,2000.5,1690.0,3444.3,1580.5,1971.7,3429.8,3441.9,738.9,1339.5,944.1,568.2,1532.9,2376.6,3443.1,3451.6,862.9,1047.8,1666.3,2103.7,1827.5,1210.6,-12.0,-25.0,5.0,4699.0,6999.0,-10280.0,-9575.0,-4.0,-42.0,19.0,-10.0,-5.0,3.0,11966.0,11138.0,1092.0,-106.0,-17.0,-16.0,-3.0,1.0
2022-05-06 11:42:52.144045-07:00,2272.4,711.0,1862.5,1975.6,1443.3,1367.6,1776.2,2106.8,3441.9,3433.4,2451.5,2000.5,1675.7,3444.3,1577.7,1962.8,3443.1,3438.2,736.5,1334.1,944.1,568.2,1532.9,2376.6,3435.8,3439.5,852.8,1043.5,1666.3,2103.7,1827.5,1210.6,0.0,3.0,8.0,4700.0,6972.0,-10290.0,-9583.0,1.0,-55.0,25.0,-1.0,-10.0,-8.0,11969.0,11135.0,1085.0,-105.0,-4.0,-15.0,22.0,1.0
2022-05-06 11:42:52.233430-07:00,2259.0,712.6,1849.8,1967.7,1443.3,1367.6,1776.2,2106.8,3441.9,3439.5,2431.4,1998.5,1675.7,3444.3,1577.7,1962.8,3443.1,3438.2,736.5,1334.1,944.1,566.6,1523.6,2345.2,3435.8,3439.5,852.8,1043.5,1653.9,2093.7,1817.8,1204.4,-9.0,-18.0,13.0,4701.0,6956.0,-10294.0,-9591.0,-4.0,-24.0,42.0,-7.0,-6.0,-1.0,11974.0,11130.0,1077.0,-110.0,-9.0,-14.0,9.0,1.0
2022-05-06 11:42:52.263987-07:00,2259.0,712.6,1849.8,1967.7,1441.5,1365.7,1767.5,2091.6,3441.9,3439.5,2431.4,1998.5,1671.0,3440.7,1574.9,1963.7,3439.5,3441.9,733.2,1337.7,944.1,566.6,1523.6,2345.2,3443.1,3446.7,855.3,1038.3,1653.9,2093.7,1817.8,1204.4,-3.0,-9.0,12.0,4708.0,6951.0,-10292.0,-9593.0,-22.0,28.0,-26.0,-2.0,-13.0,4.0,11978.0,11127.0,1073.0,-112.0,-14.0,-3.0,5.0,1.0
2022-05-06 11:42:52.323595-07:00,2247.6,711.0,1857.6,1975.6,1441.5,1365.7,1767.5,2091.6,3446.7,3435.8,2413.4,1991.5,1671.0,3440.7,1574.9,1963.7,3439.5,3441.9,733.2,1337.7,941.5,561.0,1519.0,2334.7,3443.1,3446.7,855.3,1038.3,1647.3,2082.6,1810.0,1198.2,4.0,-3.0,7.0,4713.0,6958.0,-10286.0,-9593.0,-6.0,6.0,0.0,-5.0,-4.0,-9.0,11979.0,11125.0,1073.0,-110.0,-2.0,1.0,10.0,1.0
2022-05-06 11:42:52.383377-07:00,2234.2,711.0,1857.6,1975.6,1425.0,1372.1,1764.6,2088.6,3441.9,3435.8,2413.4,1991.5,1668.2,3440.7,1566.5,1946.9,3444.3,3433.4,733.2,1335.9,941.5,561.0,1519.0,2327.4,3443.1,3449.1,852.8,1034.9,1647.3,2082.6,1810.0,1198.2,1.0,24.0,14.0,4718.0,6953.0,-10285.0,-9595.0,-35.0,3.0,21.0,-5.0,2.0,-9.0,11982.0,11123.0,1069.0,-110.0,-34.0,-19.0,13.0,1.0
2022-05-06 11:42:52.384773-07:00,2234.2,701.9,1849.8,1957.8,1425.0,1372.1,1764.6,2076.5,3441.9,3440.7,2408.1,1992.5,1668.2,3440.7,1566.5,1945.0,3438.2,3433.4,733.2,1335.9,942.4,568.2,1525.5,2327.4,3438.2,3449.1,852.8,1034.9,1637.9,2082.6,1834.3,1198.2,-11.0,-10.0,11.0,4727.0,6958.0,-10273.0,-9599.0,4.0,17.0,13.0,-13.0,-7.0,-5.0,11988.0,11116.0,1069.0,-111.0,7.0,1.0,3.0,1.0
2022-05-06 11:42:52.474277-07:00,2230.1,701.9,1849.8,1957.8,1425.0,1357.6,1757.0,2076.5,3440.7,3440.7,2408.1,1992.5,1656.8,3437.0,1559.0,1945.0,3438.2,3432.2,734.8,1327.8,942.4,568.2,1525.5,2310.8,3438.2,3444.3,847.0,1034.9,1637.9,2082.6,1834.3,1197.4,3.0,4.0,4.0,4727.0,6962.0,-10279.0,-9590.0,35.0,-4.0,8.0,-8.0,2.0,-8.0,11981.0,11123.0,1070.0,-111.0,14.0,2.0,1.0,1.0
2022-05-06 11:42:52.533461-07:00,2230.1,701.9,1841.1,1953.9,1425.0,1357.6,1757.0,2076.5,3440.7,3444.3,2399.7,1981.6,1656.8,3437.0,1559.0,1943.0,3434.6,3432.2,734.8,1327.8,942.4,566.6,1515.3,2310.8,3445.5,3444.3,847.0,1034.9,1629.4,2078.5,1801.3,1197.4,-2.0,4.0,15.0,4731.0,6958.0,-10280.0,-9590.0,21.0,-2.0,6.0,-5.0,-4.0,-4.0,11981.0,11124.0,1068.0,-115.0,-7.0,-20.0,1.0,1.0
2022-05-06 11:42:52.534772-07:00,2222.9,701.9,1841.1,1953.9,1423.1,1359.4,1745.4,2076.5,3439.5,3444.3,2399.7,1981.6,1657.7,3438.2,1559.0,1943.0,3434.6,3444.3,733.2,1330.5,942.4,566.6,1515.3,2308.7,3445.5,3443.1,843.6,1030.6,1629.4,2078.5,1801.3,1187.6,-6.0,-3.0,9.0,4723.0,6962.0,-10293.0,-9576.0,70.0,5.0,31.0,-3.0,-4.0,0.0,11970.0,11135.0,1067.0,-116.0,59.0,10.0,4.0,1.0
2022-05-06 11:42:52.593374-07:00,2222.9,697.0,1844.0,1951.9,1423.1,1359.4,1745.4,2064.5,3439.5,3446.7,2399.7,1970.7,1657.7,3438.2,1559.0,1943.0,3449.1,3444.3,733.2,1330.5,946.6,562.6,1515.3,2308.7,3438.2,3443.1,843.6,1030.6,1627.5,2074.5,1803.2,1187.6,2.0,6.0,-2.0,4726.0,6953.0,-10307.0,-9567.0,17.0,-22.0,28.0,-3.0,-5.0,-4.0,11962.0,11144.0,1067.0,-116.0,1.0,-9.0,7.0,1.0
2022-05-06 11:42:52.683497-07:00,2216.8,694.6,1844.0,1951.9,1412.2,1365.7,1749.3,2064.5,3435.8,3438.2,2399.7,1970.7,1657.7,3449.1,1553.4,1943.0,3449.1,3439.5,733.2,1339.5,946.6,562.6,1500.4,2301.4,3438.2,3449.1,851.1,1029.7,1627.5,2074.5,1797.4,1196.5,-2.0,-11.0,25.0,4719.0,6950.0,-10310.0,-9569.0,-19.0,2.0,-15.0,-2.0,-10.0,6.0,11968.0,11138.0,1063.0,-119.0,-18.0,-3.0,-2.0,1.0
2022-05-06 11:42:52.685207-07:00,2216.8,694.6,1839.1,1946.9,1412.2,1365.7,1741.6,2064.5,3435.8,3438.2,2395.5,1974.6,1657.7,3449.1,1553.4,1944.0,3434.6,3428.6,733.2,1339.5,942.4,563.4,1500.4,2301.4,3438.2,3440.7,851.1,1029.7,1624.7,2071.5,1797.4,1196.5,7.0,14.0,8.0,4725.0,6955.0,-10305.0,-9568.0,19.0,30.0,1.0,-3.0,0.0,-11.0,11962.0,11144.0,1065.0,-118.0,31.0,10.0,1.0,1.0
2022-05-06 11:42:52.833036-07:00,2219.8,689.7,1839.1,1946.9,1395.7,1360.3,1741.6,2064.5,3445.5,3434.6,2395.5,1974.6,1649.2,3438.2,1553.4,1944.0,3434.6,3428.6,734.8,1328.7,942.4,563.4,1501.4,2291.0,3438.2,3440.7,840.3,1027.1,1624.7,2071.5,1789.7,1189.4,-11.0,-16.0,-3.0,4727.0,6963.0,-10303.0,-9564.0,19.0,2.0,17.0,-9.0,-8.0,0.0,11957.0,11149.0,1067.0,-116.0,17.0,-1.0,-1.0,1.0
2022-05-06 11:42:52.894134-07:00,2219.8,689.7,1837.2,1946.9,1395.7,1360.3,1735.8,2057.4,3445.5,3434.6,2396.6,1972.7,1649.2,3438.2,1549.7,1943.0,3434.6,3434.6,734.8,1328.7,944.1,564.2,1501.4,2291.0,3441.9,3440.7,840.3,1027.1,1623.7,2065.5,1789.7,1189.4,-1.0,14.0,9.0,4731.0,6945.0,-10315.0,-9561.0,-10.0,-18.0,40.0,0.0,0.0,-6.0,11958.0,11149.0,1064.0,-117.0,-19.0,-15.0,6.0,1.0
2022-05-06 11:42:52.895060-07:00,2230.1,701.9,1837.2,1946.9,1398.5,1353.1,1735.8,2057.4,3440.7,3435.8,2396.6,1972.7,1646.4,3438.2,1549.7,1943.0,3434.6,3434.6,730.7,1329.6,944.1,564.2,1504.1,2286.9,3441.9,3440.7,847.0,1028.8,1623.7,2065.5,1791.6,1203.5,-7.0,-7.0,9.0,4734.0,6928.0,-10323.0,-9564.0,-9.0,-29.0,60.0,-3.0,-8.0,0.0,11958.0,11149.0,1064.0,-117.0,11.0,0.0,-1.0,1.0
2022-05-06 11:42:52.923969-07:00,2230.1,701.9,1833.3,1944.0,1398.5,1359.4,1735.8,2053.4,3440.7,3435.8,2374.5,1964.7,1646.4,3438.2,1544.1,1923.3,3426.2,3433.4,733.2,1329.6,946.6,563.4,1504.1,2286.9,3445.5,3446.7,847.0,1028.8,1624.7,2063.5,1791.6,1203.5,2.0,-3.0,18.0,4731.0,6918.0,-10333.0,-9562.0,14.0,-3.0,-31.0,-3.0,-10.0,2.0,11955.0,11151.0,1067.0,-121.0,3.0,4.0,-21.0,1.0
2022-05-06 11:42:52.984324-07:00,2229.1,706.0,1833.3,1944.0,1399.4,1359.4,1735.8,2053.4,3437.0,3438.2,2388.1,1964.7,1641.6,3438.2,1544.1,1923.3,3426.2,3433.4,733.2,1334.1,946.6,561.0,1509.7,2277.6,3445.5,3446.7,847.0,1022.8,1624.7,2060.5,1792.6,1188.5,-9.0,-12.0,4.0,4724.0,6923.0,-10331.0,-9564.0,10.0,-10.0,5.0,-8.0,-5.0,-2.0,11951.0,11155.0,1074.0,-128.0,28.0,5.0,-17.0,1.0
2022-05-06 11:42:52.985314-07:00,2229.1,706.0,1833.3,1945.9,1399.4,1348.5,1719.6,2046.4,3437.0,3438.2,2388.1,1962.8,1641.6,3446.7,1539.4,1925.2,3440.7,3432.2,729.9,1334.1,944.1,561.0,1509.7,2277.6,3449.1,3438.2,841.1,1022.8,1618.1,2060.5,1792.6,1188.5,2.0,16.0,8.0,4723.0,6914.0,-10336.0,-9564.0,7.0,-10.0,-3.0,-1.0,-4.0,-5.0,11948.0,11159.0,1075.0,-129.0,1.0,0.0,-4.0,1.0
2022-05-06 11:42:53.044021-07:00,2230.1,692.1,1834.3,1945.9,1393.0,1348.5,1719.6,2046.4,3440.7,3446.7,2378.7,1962.8,1640.7,3446.7,1539.4,1925.2,3440.7,3432.2,729.9,1335.0,944.1,566.6,1497.7,2275.5,3449.1,3438.2,841.1,1021.1,1618.1,2054.4,1787.8,1188.5,-3.0,-7.0,7.0,4723.0,6916.0,-10333.0,-9567.0,9.0,-7.0,8.0,-3.0,-7.0,-3.0,11947.0,11160.0,1075.0,-129.0,14.0,3.0,-9.0,1.0
2022-05-06 11:42:53.103427-07:00,2230.1,692.1,1834.3,1931.1,1393.0,1354.9,1721.5,2039.4,3440.7,3446.7,2378.7,1963.7,1640.7,3449.1,1540.3,1928.2,3431.0,3434.6,730.7,1335.0,941.5,566.6,1497.7,2275.5,3435.8,3443.1,837.7,1021.1,1608.7,2054.4,1787.8,1188.5,4.0,6.0,12.0,4722.0,6915.0,-10334.0,-9567.0,-2.0,-4.0,-8.0,-3.0,-6.0,-3.0,11946.0,11161.0,1075.0,-130.0,-11.0,0.0,-1.0,1.0
2022-05-06 11:42:53.133154-07:00,2210.6,697.0,1818.7,1931.1,1390.3,1354.9,1721.5,2039.4,3443.1,3433.4,2364.0,1963.7,1638.8,3449.1,1540.3,1928.2,3431.0,3434.6,730.7,1327.8,941.5,562.6,1494.9,2274.5,3435.8,3443.1,837.7,1020.2,1608.7,2053.4,1781.0,1181.5,-2.0,-9.0,11.0,4725.0,6919.0,-10327.0,-9570.0,-5.0,14.0,3.0,-5.0,-6.0,-2.0,11946.0,11161.0,1077.0,-128.0,18.0,10.0,-4.0,1.0
2022-05-06 11:42:53.253448-07:00,2210.6,697.0,1818.7,1936.1,1381.2,1349.4,1713.8,2042.4,3443.1,3433.4,2364.0,1961.8,1631.3,3435.8,1536.6,1927.2,3440.7,3439.5,735.6,1332.3,944.1,562.6,1494.9,2274.5,3446.7,3450.4,837.7,1020.2,1604.9,2053.4,1781.0,1181.5,-3.0,-2.0,4.0,4730.0,6921.0,-10327.0,-9567.0,-10.0,13.0,6.0,-10.0,-7.0,-1.0,11942.0,11164.0,1078.0,-128.0,5.0,6.0,0.0,1.0
2022-05-06 11:42:53.283512-07:00,2213.7,688.0,1822.6,1932.1,1381.2,1349.4,1713.8,2042.4,3441.9,3440.7,2370.3,1955.8,1631.3,3435.8,1536.6,1927.2,3440.7,3439.5,735.6,1332.3,942.4,561.0,1492.1,2273.4,3446.7,3450.4,837.7,1020.2,1596.4,2048.4,1775.2,1181.5,0.0,1.0,3.0,4733.0,6925.0,-10325.0,-9564.0,15.0,8.0,-11.0,-6.0,0.0,-6.0,11942.0,11164.0,1078.0,-128.0,0.0,0.0,-5.0,1.0
2022-05-06 11:42:53.284637-07:00,2213.7,688.0,1822.6,1932.1,1383.9,1354.0,1714.8,2034.4,3441.9,3440.7,2370.3,1955.8,1637.9,3440.7,1538.5,1920.3,3434.6,3434.6,731.5,1324.1,942.4,561.0,1492.1,2273.4,3445.5,3441.9,842.8,1022.8,1596.4,2048.4,1775.2,1181.5,0.0,-11.0,15.0,4734.0,6938.0,-10313.0,-9567.0,-24.0,42.0,-27.0,-7.0,-10.0,2.0,11944.0,11162.0,1078.0,-128.0,-9.0,1.0,-1.0,1.0
2022-05-06 11:42:53.403424-07:00,2217.8,692.9,1837.2,1931.1,1383.9,1354.0,1714.8,2034.4,3440.7,3438.2,2372.4,1954.8,1637.9,3440.7,1538.5,1920.3,3434.6,3434.6,731.5,1324.1,943.2,563.4,1493.0,2268.3,3445.5,3441.9,842.8,1022.8,1601.1,2051.4,1782.0,1182.3,-2.0,-4.0,0.0,4741.0,6951.0,-10305.0,-9563.0,6.0,22.0,-12.0,-7.0,-9.0,-9.0,11944.0,11162.0,1078.0,-128.0,6.0,4.0,-6.0,1.0
2022-05-06 11:42:53.433125-07:00,2217.8,692.9,1837.2,1931.1,1388.5,1349.4,1715.8,2045.4,3440.7,3438.2,2372.4,1954.8,1634.1,3443.1,1554.3,1918.3,3428.6,3433.4,729.0,1333.2,943.2,563.4,1493.0,2268.3,3446.7,3446.7,836.9,1017.6,1601.1,2051.4,1782.0,1182.3,8.0,-1.0,15.0,4730.0,6971.0,-10303.0,-9556.0,16.0,43.0,-59.0,-8.0,-1.0,-9.0,11946.0,11160.0,1078.0,-128.0,-24.0,-7.0,-5.0,1.0
2022-05-06 11:42:53.434908-07:00,2289.0,692.9,1890.9,1948.9,1388.5,1349.4,1715.8,2099.7,3438.2,3449.1,2390.3,1962.8,1634.1,3443.1,1554.3,1923.3,3439.5,3433.4,729.0,1333.2,940.7,561.8,1499.5,2283.8,3437.0,3446.7,836.9,1017.6,1636.9,2050.4,1796.5,1188.5,28.0,5.0,24.0,4740.0,7034.0,-10272.0,-9539.0,84.0,224.0,-186.0,0.0,-18.0,9.0,11958.0,11148.0,1073.0,-132.0,-26.0,-19.0,-4.0,1.0
2022-05-06 11:42:53.643398-07:00,2573.4,692.9,1890.9,1948.9,1398.5,1354.0,1731.1,2099.7,3435.8,3449.1,2390.3,1962.8,1653.0,3439.5,1630.3,1923.3,3439.5,3437.0,730.7,1326.8,940.7,561.8,1499.5,2325.4,3437.0,3449.1,837.7,1024.5,1636.9,2050.4,1796.5,1204.4,22.0,-11.0,-11.0,4739.0,7198.0,-10213.0,-9480.0,101.0,363.0,-286.0,-4.0,0.0,-22.0,11954.0,11152.0,1070.0,-137.0,-4.0,-32.0,-1.0,1.0
2022-05-06 11:42:53.646857-07:00,2573.4,699.5,2252.8,2041.4,1398.5,1354.0,1731.1,2098.7,3435.8,3438.2,2674.4,2035.4,1653.0,3439.5,1630.3,1961.8,3435.8,3437.0,730.7,1326.8,946.6,561.0,1494.0,2325.4,3439.5,3449.1,837.7,1024.5,1657.7,2151.4,2010.4,1204.4,18.0,-24.0,17.0,4758.0,7426.0,-10112.0,-9403.0,177.0,572.0,-417.0,-5.0,-18.0,15.0,11977.0,11130.0,1045.0,-153.0,-116.0,-91.0,22.0,1.0
2022-05-06 11:42:53.647712-07:00,2674.4,699.5,2252.8,2041.4,1389.4,1363.9,1715.8,2098.7,3446.7,3438.2,2674.4,2035.4,1667.2,3444.3,1838.2,1961.8,3435.8,3435.8,732.3,1335.0,946.6,561.0,1494.0,2477.0,3439.5,3439.5,826.0,1075.6,1657.7,2151.4,2010.4,1203.5,-17.0,-94.0,-88.0,4681.0,7712.0,-10147.0,-9169.0,1230.0,290.0,-167.0,10.0,-25.0,2.0,11975.0,11135.0,1012.0,-159.0,157.0,-56.0,70.0,1.0
2022-05-06 11:42:53.648416-07:00,2674.4,686.4,2391.3,2075.5,1389.4,1363.9,1715.8,2261.0,3446.7,3445.5,2884.0,2058.4,1667.2,3444.3,1838.2,1908.5,3437.0,3435.8,732.3,1335.0,937.3,565.8,1607.7,2477.0,3444.3,3439.5,826.0,1075.6,1665.3,2193.2,2149.3,1203.5,-3.0,-77.0,-49.0,4324.0,7763.0,-10542.0,-8851.0,1050.0,-693.0,349.0,7.0,-13.0,-9.0,11906.0,11213.0,961.0,-160.0,238.0,-75.0,115.0,1.0
2022-05-06 11:42:53.674011-07:00,2665.7,686.4,2391.3,2075.5,1383.9,1403.0,1772.3,2261.0,3440.7,3433.4,2884.0,2058.4,1695.7,3443.1,1724.4,1908.5,3437.0,3438.2,728.2,1336.8,937.3,565.8,1836.2,2557.3,3444.3,3444.3,811.9,1356.7,1665.3,2193.2,1942.0,1192.0,-39.0,-15.0,-50.0,4061.0,7553.0,-10937.0,-8676.0,1081.0,-1127.0,843.0,-21.0,7.0,-27.0,11815.0,11315.0,883.0,-147.0,358.0,-133.0,170.0,1.0
2022-05-06 11:42:53.793540-07:00,2665.7,686.4,2029.4,1947.9,1383.9,1403.0,1632.2,2090.6,3440.7,3433.4,2374.5,1955.8,1695.7,3443.1,1503.2,1827.5,3440.7,3433.4,728.2,1336.8,940.7,565.8,1836.2,2557.3,3437.0,3444.3,811.9,1356.7,1660.6,2038.4,1942.0,1192.0,-30.0,113.0,6.0,3692.0,7226.0,-11428.0,-8484.0,698.0,-800.0,438.0,-16.0,28.0,-13.0,11748.0,11392.0,796.0,-138.0,172.0,-60.0,125.0,1.0
2022-05-06 11:42:53.796210-07:00,2799.0,701.1,2029.4,1947.9,1356.7,1478.3,1632.2,2090.6,3438.2,3428.6,2374.5,1955.8,1690.0,3439.5,1503.2,1827.5,3440.7,3433.4,738.9,1359.4,940.7,565.8,1804.2,2488.7,3437.0,3444.3,813.5,1482.9,1660.6,2038.4,1760.8,1185.9,-6.0,18.0,35.0,3461.0,6987.0,-11631.0,-8507.0,71.0,-687.0,164.0,-10.0,-6.0,0.0,11763.0,11379.0,761.0,-130.0,-173.0,-75.0,69.0,1.0
2022-05-06 11:42:53.823348-07:00,2799.0,701.1,1825.5,1888.9,1356.7,1478.3,1556.2,1852.8,3438.2,3428.6,2108.8,1882.0,1690.0,3439.5,1384.8,1771.4,3439.5,3445.5,738.9,1359.4,946.6,566.6,1804.2,2488.7,3441.9,3437.0,813.5,1482.9,1638.8,1940.0,1760.8,1185.9,2.0,32.0,62.0,3313.0,6839.0,-11707.0,-8580.0,7.0,-294.0,-4.0,-4.0,-13.0,10.0,11803.0,11339.0,733.0,-132.0,-66.0,-16.0,7.0,1.0
2022-05-06 11:42:53.884268-07:00,2787.9,712.6,1825.5,1888.9,1309.7,1474.6,1556.2,1852.8,3438.2,3433.4,2108.8,1882.0,1672.9,3445.5,1384.8,1771.4,3439.5,3445.5,733.2,1372.1,946.6,566.6,1764.6,2403.9,3441.9,3437.0,811.0,1456.2,1638.8,1940.0,1695.7,1170.9,-1.0,9.0,36.0,3216.0,6805.0,-11739.0,-8602.0,171.0,-157.0,-63.0,-11.0,7.0,-11.0,11794.0,11348.0,742.0,-131.0,64.0,18.0,-11.0,1.0
2022-05-06 11:42:53.943386-07:00,2787.9,712.6,1750.2,1843.0,1309.7,1474.6,1514.3,1749.3,3438.2,3433.4,2063.5,1852.8,1672.9,3445.5,1343.1,1740.6,3433.4,3428.6,733.2,1372.1,942.4,562.6,1764.6,2403.9,3438.2,3441.9,811.0,1456.2,1619.9,1898.7,1695.7,1170.9,-13.0,-7.0,17.0,3177.0,6809.0,-11751.0,-8596.0,-37.0,16.0,36.0,-9.0,-3.0,-7.0,11783.0,11359.0,750.0,-128.0,14.0,20.0,-3.0,1.0
2022-05-06 11:42:53.973938-07:00,2732.6,711.0,1715.8,1843.0,1292.7,1468.1,1514.3,1749.3,3440.7,3438.2,2016.4,1852.8,1650.2,3444.3,1343.1,1740.6,3433.4,3428.6,733.2,1371.2,942.4,565.0,1745.4,2370.3,3438.2,3441.9,808.5,1427.7,1619.9,1875.2,1661.5,1167.4,0.0,3.0,-26.0,3208.0,6779.0,-11754.0,-8604.0,-56.0,-53.0,94.0,-4.0,0.0,-14.0,11788.0,11353.0,747.0,-128.0,-61.0,-33.0,28.0,1.0
2022-05-06 11:42:54.033515-07:00,2732.6,711.0,1715.8,1821.6,1292.7,1460.8,1493.0,1715.8,3440.7,3438.2,2016.4,1837.2,1650.2,3449.1,1328.7,1730.1,3444.3,3438.2,732.3,1371.2,942.4,565.0,1745.4,2370.3,3440.7,3440.7,803.5,1427.7,1605.8,1875.2,1661.5,1167.4,2.0,2.0,47.0,3219.0,6757.0,-11740.0,-8636.0,-83.0,42.0,-50.0,2.0,-11.0,6.0,11814.0,11327.0,738.0,-132.0,-57.0,-7.0,-13.0,1.0
2022-05-06 11:42:54.093494-07:00,2691.9,707.7,1691.0,1821.6,1279.2,1460.8,1493.0,1715.8,3444.3,3444.3,2007.4,1837.2,1647.3,3449.1,1328.7,1730.1,3444.3,3438.2,732.3,1367.6,942.4,563.4,1735.8,2350.4,3440.7,3440.7,803.5,1415.8,1605.8,1858.6,1644.5,1180.6,-10.0,-7.0,5.0,3264.0,6794.0,-11706.0,-8637.0,-55.0,214.0,-32.0,-10.0,-9.0,-6.0,11811.0,11329.0,756.0,-133.0,43.0,45.0,-28.0,1.0
2022-05-06 11:42:54.123900-07:00,2691.9,707.7,1691.0,1809.0,1279.2,1442.4,1486.6,1727.2,3444.3,3444.3,2007.4,1834.3,1647.3,3444.3,1325.0,1724.4,3438.2,3433.4,731.5,1367.6,941.5,563.4,1735.8,2350.4,3446.7,3443.1,805.2,1415.8,1596.4,1858.6,1644.5,1180.6,-3.0,17.0,-7.0,3308.0,6852.0,-11677.0,-8613.0,-50.0,110.0,-110.0,-7.0,0.0,-11.0,11801.0,11338.0,771.0,-131.0,-10.0,20.0,-12.0,1.0
2022-05-06 11:42:54.183251-07:00,2658.0,696.2,1667.2,1809.0,1268.5,1442.4,1486.6,1727.2,3447.9,3445.5,1987.5,1834.3,1642.6,3444.3,1325.0,1724.4,3438.2,3433.4,731.5,1363.9,941.5,564.2,1721.5,2324.3,3446.7,3443.1,805.2,1405.8,1596.4,1841.1,1630.3,1162.1,-27.0,-45.0,7.0,3330.0,6899.0,-11621.0,-8642.0,-135.0,104.0,-75.0,-7.0,-14.0,13.0,11815.0,11323.0,791.0,-128.0,-36.0,48.0,-25.0,1.0
2022-05-06 11:42:54.243273-07:00,2658.0,696.2,1667.2,1794.5,1259.6,1438.7,1472.7,1713.8,3447.9,3445.5,1987.5,1817.8,1635.0,3438.2,1297.2,1714.8,3438.2,3440.7,729.9,1358.5,939.0,564.2,1721.5,2324.3,3441.9,3443.1,801.0,1380.3,1597.4,1841.1,1630.3,1162.1,-1.0,23.0,5.0,3339.0,6909.0,-11615.0,-8640.0,43.0,-24.0,32.0,-6.0,7.0,-13.0,11808.0,11329.0,794.0,-127.0,11.0,-20.0,0.0,1.0
2022-05-06 11:42:54.273868-07:00,2637.3,688.9,1653.0,1784.9,1259.6,1438.7,1472.7,1713.8,3433.4,3433.4,1980.6,1808.1,1635.0,3438.2,1297.2,1714.8,3438.2,3440.7,729.9,1358.5,946.6,565.0,1699.5,2300.4,3441.9,3443.1,801.0,1380.3,1577.7,1849.8,1622.8,1158.6,0.0,19.0,42.0,3334.0,6917.0,-11601.0,-8655.0,-107.0,82.0,-128.0,-2.0,-6.0,1.0,11817.0,11320.0,793.0,-135.0,-56.0,1.0,-16.0,1.0
2022-05-06 11:42:54.364176-07:00,2637.3,688.9,1653.0,1784.9,1256.0,1426.8,1467.2,1702.4,3433.4,3433.4,1980.6,1808.1,1629.4,3434.6,1302.5,1709.1,3435.8,3439.5,726.6,1364.8,946.6,565.0,1699.5,2300.4,3435.8,3441.9,794.4,1374.8,1577.7,1849.8,1622.8,1158.6,-8.0,138.0,107.0,3387.0,7037.0,-11530.0,-8631.0,-76.0,729.0,-330.0,-4.0,19.0,0.0,11810.0,11326.0,809.0,-141.0,112.0,42.0,-66.0,1.0
2022-05-06 11:42:54.393386-07:00,2633.0,692.1,1829.4,1815.8,1256.0,1426.8,1467.2,1702.4,3445.5,3432.2,1993.5,1810.0,1629.4,3434.6,1302.5,1709.1,3435.8,3439.5,726.6,1364.8,939.8,561.8,1671.0,2295.2,3435.8,3441.9,794.4,1374.8,1590.8,1894.8,1717.7,1156.8,-21.0,-48.0,-44.0,3655.0,7254.0,-11348.0,-8584.0,-594.0,860.0,40.0,-32.0,5.0,-35.0,11739.0,11393.0,897.0,-151.0,222.0,145.0,-158.0,1.0
2022-05-06 11:42:54.453546-07:00,2633.0,692.1,1829.4,1815.8,1262.2,1396.7,1541.3,1980.6,3445.5,3432.2,1993.5,1810.0,1621.8,3446.7,1436.0,1713.8,3441.9,3437.0,727.4,1350.3,939.8,561.8,1671.0,2295.2,3439.5,3437.0,815.2,1399.4,1590.8,1894.8,1717.7,1156.8,-72.0,-21.0,-2.0,4150.0,7437.0,-11009.0,-8643.0,-1117.0,1034.0,-247.0,-17.0,-10.0,20.0,11792.0,11336.0,928.0,-162.0,-373.0,37.0,-64.0,1.0
2022-05-06 11:42:54.483768-07:00,2623.2,689.7,2329.5,2024.4,1262.2,1396.7,1541.3,1980.6,3440.7,3444.3,2630.8,1980.6,1621.8,3446.7,1436.0,1713.8,3441.9,3437.0,727.4,1350.3,935.6,563.4,1680.5,2293.1,3439.5,3437.0,815.2,1399.4,1615.2,2168.7,2095.7,1150.6,-35.0,-122.0,-70.0,4358.0,7569.0,-10763.0,-8735.0,388.0,-15.0,-109.0,0.0,-27.0,-29.0,11815.0,11308.0,982.0,-144.0,52.0,79.0,-35.0,1.0
2022-05-06 11:42:54.544111-07:00,2568.0,689.7,2329.5,2024.4,1274.7,1420.4,1713.8,2257.9,3435.8,3444.3,2630.8,1980.6,1653.0,3439.5,1754.1,1833.3,3437.0,3433.4,728.2,1349.4,935.6,563.4,1680.5,2403.9,3441.9,3438.2,801.0,1298.1,1615.2,2168.7,2095.7,1149.8,16.0,55.0,54.0,4277.0,7576.0,-10779.0,-8749.0,-605.0,-12.0,-152.0,-10.0,9.0,-9.0,11813.0,11308.0,999.0,-160.0,-151.0,17.0,-71.0,1.0
2022-05-06 11:42:54.693993-07:00,2568.0,687.2,2175.8,2053.4,1274.7,1420.4,1713.8,2291.0,3435.8,3449.1,2934.8,2025.4,1653.0,3439.5,1754.1,1992.5,3433.4,3433.4,728.2,1349.4,935.6,561.0,1676.7,2403.9,3433.4,3438.2,801.0,1298.1,1608.7,2188.1,2038.4,1149.8,-64.0,-132.0,-80.0,4396.0,7479.0,-10651.0,-8930.0,-519.0,-172.0,342.0,14.0,-68.0,19.0,11838.0,11278.0,1041.0,-136.0,89.0,118.0,-4.0,1.0
2022-05-06 11:42:54.723454-07:00,2618.8,687.2,2175.8,2053.4,1314.2,1443.3,1811.0,2291.0,3441.9,3449.1,2934.8,2025.4,1688.1,3441.9,1779.1,1992.5,3433.4,3438.2,729.0,1344.9,935.6,561.0,1676.7,2434.6,3433.4,3444.3,826.0,1246.2,1608.7,2188.1,2038.4,1186.7,58.0,83.0,-66.0,4576.0,7089.0,-10534.0,-9289.0,-1373.0,-548.0,294.0,-2.0,55.0,-49.0,11821.0,11295.0,1060.0,-125.0,-151.0,42.0,-50.0,1.0
2022-05-06 11:42:54.753879-07:00,2618.8,684.8,1982.6,2043.4,1314.2,1443.3,1811.0,2294.2,3441.9,3449.1,2711.7,1975.6,1688.1,3441.9,1779.1,2006.4,3440.7,3438.2,729.0,1344.9,933.9,566.6,1675.7,2434.6,3444.3,3444.3,826.0,1246.2,1577.7,2199.3,1964.7,1186.7,-1.0,-56.0,-22.0,4502.0,6902.0,-10547.0,-9449.0,248.0,-620.0,154.0,-7.0,-28.0,12.0,11833.0,11280.0,1082.0,-132.0,96.0,33.0,-35.0,1.0
2022-05-06 11:42:54.755125-07:00,2605.8,684.8,1982.6,2043.4,1411.3,1425.9,1913.4,2294.2,3443.1,3449.1,2711.7,1975.6,1698.6,3445.5,1688.1,2006.4,3440.7,3434.6,724.1,1348.5,933.9,566.6,1675.7,2446.2,3444.3,3444.3,856.2,1155.0,1577.7,2199.3,1964.7,1208.9,3.0,-16.0,-3.0,4331.0,6749.0,-10680.0,-9490.0,73.0,-512.0,58.0,-2.0,19.0,-21.0,11815.0,11297.0,1096.0,-139.0,-22.0,2.0,-31.0,1.0
2022-05-06 11:42:54.784038-07:00,2605.8,758.7,1889.9,2010.4,1411.3,1425.9,1928.2,2234.2,3443.1,3446.7,2612.3,2047.4,1698.6,3445.5,1636.0,2003.5,3441.9,3449.1,724.1,1348.5,944.1,566.6,1619.9,2446.2,3440.7,3441.9,856.2,1155.0,1636.9,2184.0,1895.8,1208.9,0.0,-30.0,3.0,4189.0,6623.0,-10755.0,-9557.0,79.0,-507.0,40.0,-10.0,-20.0,1.0,11834.0,11277.0,1099.0,-156.0,-54.0,-33.0,-28.0,1.0
2022-05-06 11:42:54.874155-07:00,2421.9,787.7,1889.9,2010.4,1428.6,1420.4,1928.2,2234.2,3441.9,3441.9,2612.3,2047.4,1694.8,3438.2,1636.0,2003.5,3441.9,3449.1,723.3,1360.3,944.1,566.6,1594.6,2464.2,3440.7,3441.9,857.9,1137.5,1636.9,2184.0,1867.4,1202.7,31.0,46.0,51.0,4077.0,6495.0,-10825.0,-9615.0,-36.0,-343.0,37.0,-2.0,13.0,-17.0,11865.0,11245.0,1087.0,-173.0,-163.0,-58.0,-8.0,1.0
2022-05-06 11:42:54.876256-07:00,2421.9,787.7,1858.6,1996.5,1428.6,1420.4,1899.7,2183.0,3441.9,3441.9,2553.0,2010.4,1694.8,3438.2,1609.6,1977.6,3431.0,3435.8,723.3,1360.3,964.5,569.0,1594.6,2464.2,3440.7,3437.0,857.9,1137.5,1655.8,2155.5,1867.4,1202.7,-27.0,-56.0,36.0,4050.0,6462.0,-10800.0,-9676.0,-53.0,-42.0,-21.0,5.0,-39.0,38.0,11905.0,11203.0,1086.0,-180.0,-14.0,23.0,-13.0,1.0
2022-05-06 11:42:54.934155-07:00,2341.0,785.2,1858.6,1996.5,1414.9,1412.2,1899.7,2183.0,3438.2,3438.2,2553.0,2010.4,1692.9,3435.8,1609.6,1977.6,3431.0,3435.8,729.0,1358.5,964.5,569.0,1576.8,2415.5,3440.7,3437.0,865.4,1133.1,1655.8,2155.5,1849.8,1202.7,18.0,26.0,23.0,4041.0,6462.0,-10812.0,-9667.0,-24.0,74.0,-25.0,-7.0,2.0,-21.0,11887.0,11220.0,1100.0,-175.0,7.0,24.0,-9.0,1.0
2022-05-06 11:42:54.993620-07:00,2341.0,785.2,1839.1,1981.6,1414.9,1412.2,1865.4,2155.5,3438.2,3438.2,2517.5,1988.5,1692.9,3435.8,1585.2,1961.8,3440.7,3441.9,729.0,1358.5,973.9,564.2,1576.8,2415.5,3443.1,3447.9,865.4,1133.1,1636.0,2145.3,1849.8,1202.7,-11.0,-9.0,-1.0,4066.0,6500.0,-10784.0,-9662.0,41.0,75.0,-27.0,-7.0,-3.0,-1.0,11886.0,11220.0,1106.0,-171.0,29.0,18.0,-4.0,1.0
2022-05-06 11:42:55.023462-07:00,2312.9,775.3,1827.5,1981.6,1394.8,1406.7,1865.4,2155.5,3434.6,3445.5,2501.5,1988.5,1677.6,3443.1,1585.2,1961.8,3440.7,3441.9,726.6,1354.9,973.9,569.8,1569.3,2382.9,3443.1,3447.9,857.9,1111.2,1636.0,2134.1,1840.1,1194.7,-8.0,-12.0,-16.0,4069.0,6503.0,-10788.0,-9654.0,11.0,-56.0,47.0,-15.0,-16.0,-5.0,11882.0,11225.0,1113.0,-167.0,2.0,-3.0,4.0,1.0
2022-05-06 11:42:55.114218-07:00,2312.9,775.3,1827.5,1973.7,1394.8,1406.7,1860.6,2136.1,3434.6,3445.5,2501.5,1978.6,1677.6,3441.9,1586.1,1963.7,3441.9,3433.4,727.4,1354.9,968.8,569.8,1569.3,2382.9,3451.6,3438.2,855.3,1111.2,1611.5,2134.1,1840.1,1194.7,-3.0,-21.0,19.0,4069.0,6475.0,-10786.0,-9676.0,-72.0,-50.0,28.0,-5.0,-17.0,-2.0,11899.0,11208.0,1103.0,-178.0,-74.0,-48.0,2.0,1.0
2022-05-06 11:42:55.173434-07:00,2301.4,764.5,1822.6,1973.7,1390.3,1406.7,1860.6,2136.1,3431.0,3440.7,2471.7,1978.6,1674.8,3441.9,1586.1,1963.7,3441.9,3433.4,727.4,1349.4,968.8,566.6,1556.2,2353.5,3451.6,3438.2,855.3,1114.7,1611.5,2125.0,1829.4,1193.8,14.0,20.0,26.0,4068.0,6455.0,-10787.0,-9688.0,22.0,-29.0,21.0,-7.0,-10.0,-7.0,11906.0,11200.0,1098.0,-180.0,-7.0,-6.0,7.0,1.0
2022-05-06 11:42:55.174694-07:00,2301.4,764.5,1822.6,1956.8,1390.3,1397.6,1845.0,2124.0,3431.0,3440.7,2471.7,1959.8,1674.8,3438.2,1589.9,1951.9,3435.8,3439.5,724.1,1349.4,971.3,566.6,1556.2,2353.5,3450.4,3444.3,858.7,1114.7,1604.9,2125.0,1829.4,1193.8,-7.0,-6.0,13.0,4071.0,6461.0,-10781.0,-9689.0,11.0,32.0,-15.0,-5.0,-5.0,-2.0,11907.0,11199.0,1099.0,-179.0,7.0,8.0,-5.0,1.0
2022-05-06 11:42:55.234091-07:00,2277.6,757.9,1839.1,1956.8,1378.5,1397.6,1845.0,2124.0,3440.7,3428.6,2474.9,1959.8,1656.8,3438.2,1589.9,1951.9,3435.8,3439.5,724.1,1348.5,971.3,565.8,1550.6,2338.9,3450.4,3444.3,858.7,1104.3,1604.9,2104.8,1812.9,1192.9,0.0,16.0,4.0,4073.0,6463.0,-10785.0,-9683.0,9.0,2.0,10.0,-9.0,1.0,-12.0,11900.0,11206.0,1103.0,-178.0,7.0,1.0,2.0,1.0
2022-05-06 11:42:55.323392-07:00,2277.6,757.9,1839.1,1959.8,1378.5,1404.9,1832.3,2126.0,3440.7,3428.6,2474.9,1964.7,1656.8,3437.0,1573.0,1954.8,3440.7,3435.8,725.8,1348.5,967.1,565.8,1550.6,2338.9,3440.7,3438.2,862.1,1104.3,1598.3,2104.8,1812.9,1192.9,-13.0,-2.0,10.0,4076.0,6470.0,-10775.0,-9688.0,4.0,22.0,-18.0,-6.0,-8.0,-3.0,11906.0,11199.0,1103.0,-179.0,-19.0,-5.0,-3.0,1.0
2022-05-06 11:42:55.353940-07:00,2265.2,759.6,1811.0,1943.0,1368.5,1404.9,1832.3,2126.0,3435.8,3440.7,2464.2,1948.9,1653.9,3437.0,1573.0,1954.8,3440.7,3435.8,725.8,1350.3,967.1,565.0,1547.8,2338.9,3440.7,3438.2,862.1,1106.9,1592.7,2110.8,1811.9,1189.4,-9.0,-7.0,2.0,4079.0,6473.0,-10773.0,-9687.0,5.0,9.0,15.0,-8.0,-4.0,-2.0,11903.0,11202.0,1103.0,-179.0,19.0,7.0,1.0,1.0
2022-05-06 11:42:55.413341-07:00,2265.2,759.6,1811.0,1943.0,1358.5,1389.4,1836.2,2110.8,3435.8,3440.7,2464.2,1948.9,1653.0,3443.1,1569.3,1941.0,3445.5,3444.3,724.1,1348.5,967.1,565.0,1547.8,2338.9,3446.7,3443.1,858.7,1098.2,1592.7,2110.8,1811.9,1189.4,-2.0,0.0,8.0,4077.0,6482.0,-10768.0,-9687.0,-14.0,22.0,-42.0,-7.0,-12.0,-4.0,11905.0,11201.0,1104.0,-180.0,-19.0,-2.0,-10.0,1.0
2022-05-06 11:42:55.447320-07:00,2272.4,748.0,1809.0,1951.9,1358.5,1389.4,1836.2,2110.8,3433.4,3437.0,2453.6,1952.9,1653.0,3443.1,1569.3,1941.0,3445.5,3444.3,724.1,1348.5,967.9,566.6,1542.2,2321.2,3446.7,3443.1,858.7,1098.2,1584.2,2113.9,1810.0,1189.4,-6.0,-6.0,6.0,4084.0,6497.0,-10757.0,-9687.0,2.0,39.0,-15.0,-7.0,-13.0,0.0,11906.0,11200.0,1105.0,-181.0,7.0,7.0,2.0,1.0
2022-05-06 11:42:55.473545-07:00,2272.4,748.0,1809.0,1951.9,1360.3,1387.5,1831.3,2102.7,3433.4,3437.0,2453.6,1952.9,1645.4,3441.9,1564.6,1939.0,3441.9,3439.5,719.2,1344.0,967.9,566.6,1542.2,2321.2,3446.7,3441.9,845.3,1093.8,1584.2,2113.9,1810.0,1189.4,-3.0,-11.0,8.0,4092.0,6511.0,-10745.0,-9686.0,-3.0,34.0,-16.0,-5.0,-8.0,-6.0,11905.0,11200.0,1106.0,-181.0,-8.0,-5.0,-2.0,1.0
2022-05-06 11:42:55.562901-07:00,2259.0,751.3,1803.2,1949.9,1360.3,1387.5,1831.3,2102.7,3428.6,3443.1,2450.4,1947.9,1645.4,3441.9,1564.6,1939.0,3441.9,3439.5,719.2,1344.0,964.5,562.6,1535.7,2312.9,3446.7,3441.9,845.3,1093.8,1579.6,2105.8,1815.8,1177.9,11.0,3.0,29.0,4109.0,6547.0,-10714.0,-9690.0,-54.0,141.0,-101.0,-6.0,-11.0,-5.0,11911.0,11194.0,1106.0,-181.0,-45.0,1.0,-8.0,1.0
2022-05-06 11:42:55.593420-07:00,2296.2,751.3,1803.2,1949.9,1357.6,1398.5,1824.6,2096.7,3437.0,3443.1,2450.4,1947.9,1649.2,3446.7,1569.3,1937.1,3445.5,3441.9,722.5,1344.0,964.5,562.6,1535.7,2327.4,3449.1,3444.3,847.0,1092.1,1579.6,2105.8,1815.8,1184.1,56.0,52.0,68.0,4164.0,6666.0,-10611.0,-9699.0,-146.0,467.0,-330.0,-5.0,6.0,-16.0,11932.0,11171.0,1113.0,-183.0,-114.0,-5.0,-24.0,1.0
2022-05-06 11:42:55.654231-07:00,2296.2,768.7,1840.1,1949.9,1357.6,1398.5,1824.6,2217.8,3437.0,3441.9,2469.5,1947.9,1649.2,3446.7,1569.3,1942.0,3441.9,3441.9,722.5,1344.0,962.8,563.4,1542.2,2327.4,3445.5,3444.3,847.0,1092.1,1624.7,2111.8,1811.9,1184.1,41.0,19.0,69.0,4294.0,7038.0,-10369.0,-9641.0,-138.0,1160.0,-707.0,-15.0,-11.0,20.0,11963.0,11136.0,1124.0,-184.0,-36.0,36.0,-19.0,1.0
2022-05-06 11:42:55.683466-07:00,2784.6,768.7,1840.1,1949.9,1381.2,1392.1,1868.4,2217.8,3438.2,3441.9,2469.5,1947.9,1655.8,3449.1,1638.8,1942.0,3441.9,3439.5,721.6,1345.8,962.8,563.4,1542.2,2380.8,3445.5,3438.2,850.3,1098.2,1624.7,2111.8,1811.9,1205.3,18.0,-25.0,-27.0,4438.0,7498.0,-10130.0,-9482.0,231.0,1103.0,-594.0,0.0,10.0,-14.0,11918.0,11182.0,1156.0,-168.0,193.0,70.0,-13.0,1.0
2022-05-06 11:42:55.773438-07:00,2784.6,801.0,2200.4,2042.4,1381.2,1392.1,1868.4,2354.6,3438.2,3445.5,2691.9,1970.7,1655.8,3449.1,1638.8,1960.8,3444.3,3439.5,721.6,1345.8,961.1,563.4,1542.2,2380.8,3444.3,3438.2,850.3,1098.2,1611.5,2197.3,2015.4,1205.3,6.0,-41.0,-52.0,4480.0,7895.0,-9991.0,-9285.0,296.0,748.0,-464.0,-15.0,-7.0,-13.0,11872.0,11229.0,1166.0,-164.0,110.0,0.0,4.0,1.0
2022-05-06 11:42:55.806120-07:00,2816.8,801.0,2200.4,2042.4,1344.0,1406.7,1887.9,2354.6,3435.8,3445.5,2691.9,1970.7,1663.4,3443.1,1833.3,1960.8,3444.3,3434.6,729.9,1344.0,961.1,563.4,1542.2,2489.8,3444.3,3440.7,830.2,1108.6,1611.5,2197.3,2015.4,1208.9,-3.0,-92.0,-62.0,4460.0,8152.0,-9932.0,-9135.0,492.0,377.0,-251.0,-12.0,-25.0,-11.0,11855.0,11249.0,1145.0,-175.0,32.0,-87.0,35.0,1.0
2022-05-06 11:42:55.832978-07:00,2816.8,781.9,2434.6,2098.7,1344.0,1406.7,1887.9,2325.4,3435.8,3435.8,2880.6,1966.7,1663.4,3443.1,1833.3,1919.3,3431.0,3434.6,729.9,1344.0,952.6,562.6,1589.9,2489.8,3433.4,3440.7,830.2,1108.6,1606.8,2209.6,2103.7,1208.9,-6.0,-28.0,-20.0,4238.0,8285.0,-10153.0,-8874.0,1276.0,-196.0,32.0,-24.0,-1.0,-8.0,11827.0,11283.0,1099.0,-183.0,90.0,-100.0,81.0,1.0
2022-05-06 11:42:55.893887-07:00,2801.2,764.5,2434.6,2098.7,1324.1,1419.5,1850.8,2325.4,3434.6,3444.3,2880.6,1966.7,1674.8,3438.2,1752.1,1919.3,3431.0,3435.8,724.9,1351.2,952.6,562.6,1865.4,2561.6,3433.4,3433.4,825.2,1227.5,1606.8,2209.6,2009.4,1188.5,43.0,-57.0,-23.0,3866.0,8197.0,-10641.0,-8548.0,1510.0,-662.0,704.0,-1.0,-13.0,-25.0,11785.0,11334.0,1030.0,-165.0,181.0,-117.0,205.0,1.0
2022-05-06 11:42:55.923863-07:00,2801.2,764.5,2316.0,2056.4,1324.1,1419.5,1760.8,2240.4,3434.6,3444.3,2762.4,1952.9,1674.8,3438.2,1550.6,1853.7,3428.6,3435.8,724.9,1351.2,958.5,564.2,1865.4,2561.6,3434.6,3437.0,825.2,1227.5,1635.0,2125.0,2009.4,1188.5,-28.0,51.0,-28.0,3636.0,8028.0,-10943.0,-8428.0,274.0,-694.0,201.0,-12.0,-10.0,4.0,11790.0,11337.0,941.0,-150.0,-85.0,-56.0,116.0,1.0
2022-05-06 11:42:56.044075-07:00,2855.9,757.9,2316.0,2056.4,1325.0,1532.0,1760.8,2240.4,3439.5,3439.5,2762.4,1952.9,1680.5,3440.7,1550.6,1853.7,3428.6,3435.8,733.2,1363.0,958.5,564.2,1952.9,2516.5,3434.6,3437.0,816.9,1507.8,1635.0,2125.0,1790.7,1186.7,-41.0,-98.0,-11.0,3451.0,7856.0,-11035.0,-8545.0,49.0,-672.0,197.0,-4.0,-37.0,19.0,11837.0,11291.0,906.0,-147.0,-94.0,-39.0,42.0,1.0
2022-05-06 11:42:56.044975-07:00,2855.9,757.9,1965.7,1935.1,1325.0,1532.0,1703.3,2136.1,3439.5,3439.5,2225.0,1857.6,1680.5,3440.7,1333.2,1772.3,3433.4,3432.2,733.2,1363.0,959.4,564.2,1952.9,2516.5,3434.6,3445.5,816.9,1507.8,1596.4,1991.5,1790.7,1186.7,29.0,54.0,60.0,3318.0,7641.0,-11170.0,-8619.0,50.0,-482.0,227.0,-14.0,4.0,-36.0,11855.0,11276.0,858.0,-150.0,-117.0,-107.0,84.0,1.0
2022-05-06 11:42:56.073886-07:00,2902.0,744.7,1965.7,1935.1,1294.5,1656.8,1703.3,2136.1,3444.3,3435.8,2225.0,1857.6,1671.9,3437.0,1333.2,1772.3,3433.4,3432.2,730.7,1370.3,959.4,564.2,1899.7,2433.5,3434.6,3445.5,804.4,1508.8,1596.4,1991.5,1689.1,1177.0,-21.0,12.0,79.0,3286.0,7649.0,-11150.0,-8648.0,69.0,59.0,-203.0,7.0,-30.0,44.0,11892.0,11238.0,832.0,-143.0,59.0,48.0,-1.0,1.0
2022-05-06 11:42:56.163230-07:00,2902.0,744.7,1816.8,1893.8,1294.5,1626.5,1615.2,1964.7,3444.3,3435.8,2074.5,1813.9,1671.9,3433.4,1287.3,1738.7,3432.2,3428.6,721.6,1370.3,964.5,566.6,1899.7,2433.5,3440.7,3444.3,804.4,1508.8,1587.1,1921.3,1689.1,1177.0,-1.0,-34.0,-18.0,3249.0,7719.0,-11153.0,-8597.0,130.0,94.0,-35.0,-14.0,7.0,-28.0,11837.0,11294.0,865.0,-131.0,175.0,57.0,-29.0,1.0
2022-05-06 11:42:56.223483-07:00,2839.2,734.8,1752.1,1893.8,1273.0,1626.5,1615.2,1964.7,3439.5,3435.8,2032.4,1813.9,1655.8,3433.4,1287.3,1738.7,3432.2,3428.6,721.6,1368.5,964.5,561.0,1867.4,2382.9,3440.7,3444.3,804.4,1465.4,1587.1,1880.1,1652.0,1176.2,-30.0,-28.0,-20.0,3262.0,7704.0,-11162.0,-8594.0,-19.0,-103.0,84.0,-13.0,-14.0,3.0,11817.0,11314.0,876.0,-132.0,-21.0,-23.0,8.0,1.0
2022-05-06 11:42:56.225231-07:00,2839.2,734.8,1752.1,1864.5,1273.0,1601.1,1580.5,1880.1,3439.5,3435.8,2032.4,1798.4,1655.8,3440.7,1258.7,1720.5,3446.7,3441.9,716.7,1368.5,962.8,561.0,1867.4,2382.9,3444.3,3437.0,795.2,1465.4,1582.4,1880.1,1652.0,1176.2,6.0,17.0,5.0,3225.0,7634.0,-11187.0,-8638.0,-72.0,-208.0,57.0,-5.0,5.0,-14.0,11838.0,11293.0,860.0,-143.0,-129.0,-68.0,3.0,1.0
2022-05-06 11:42:56.373288-07:00,2786.8,737.3,1721.5,1864.5,1254.2,1601.1,1580.5,1880.1,3444.3,3438.2,1998.5,1798.4,1643.5,3440.7,1258.7,1720.5,3446.7,3441.9,716.7,1365.7,962.8,564.2,1838.2,2360.9,3444.3,3437.0,795.2,1448.8,1582.4,1877.2,1623.7,1167.4,10.0,-18.0,36.0,3200.0,7570.0,-11193.0,-8695.0,-44.0,-208.0,91.0,-5.0,-14.0,-7.0,11870.0,11260.0,848.0,-154.0,-65.0,-39.0,0.0,1.0
2022-05-06 11:42:56.434369-07:00,2786.8,737.3,1721.5,1849.8,1254.2,1589.9,1582.4,1852.8,3444.3,3438.2,1998.5,1779.1,1643.5,3440.7,1260.4,1715.8,3444.3,3437.0,722.5,1365.7,961.1,564.2,1838.2,2360.9,3428.6,3446.7,790.2,1448.8,1570.2,1877.2,1623.7,1167.4,8.0,26.0,62.0,3171.0,7528.0,-11211.0,-8719.0,-59.0,41.0,-48.0,0.0,-9.0,7.0,11886.0,11244.0,837.0,-160.0,-23.0,7.0,-5.0,1.0
2022-05-06 11:42:56.435817-07:00,2759.1,732.3,1707.2,1825.5,1236.4,1589.9,1582.4,1852.8,3441.9,3440.7,1976.6,1776.2,1631.3,3440.7,1260.4,1715.8,3444.3,3437.0,722.5,1363.9,960.2,565.0,1827.5,2341.0,3428.6,3446.7,790.2,1425.0,1558.1,1856.7,1611.5,1163.8,-4.0,-12.0,13.0,3212.0,7550.0,-11190.0,-8711.0,10.0,165.0,67.0,-9.0,-9.0,-2.0,11871.0,11259.0,852.0,-152.0,74.0,36.0,-10.0,1.0
2022-05-06 11:42:56.464172-07:00,2759.1,732.3,1707.2,1825.5,1239.1,1575.8,1561.8,1841.1,3441.9,3440.7,1976.6,1776.2,1626.5,3440.7,1262.2,1711.9,3434.6,3438.2,716.7,1360.3,960.2,565.0,1827.5,2341.0,3444.3,3438.2,796.0,1434.1,1558.1,1856.7,1611.5,1163.8,-21.0,10.0,-18.0,3297.0,7575.0,-11177.0,-8675.0,-166.0,207.0,80.0,-16.0,0.0,-11.0,11845.0,11285.0,871.0,-155.0,77.0,30.0,-48.0,1.0
2022-05-06 11:42:56.465119-07:00,2729.3,724.9,1776.2,1830.4,1239.1,1575.8,1561.8,1841.1,3437.0,3449.1,2002.5,1772.3,1626.5,3440.7,1262.2,1711.9,3434.6,3438.2,716.7,1360.3,956.0,562.6,1819.7,2326.4,3444.3,3438.2,796.0,1434.1,1568.3,1872.3,1656.8,1166.5,-3.0,-24.0,8.0,3410.0,7578.0,-11122.0,-8700.0,-185.0,114.0,15.0,-15.0,-7.0,-4.0,11851.0,11277.0,883.0,-162.0,-54.0,-18.0,5.0,1.0
2022-05-06 11:42:56.583279-07:00,2729.3,724.9,1776.2,1830.4,1227.5,1540.3,1585.2,1966.7,3437.0,3449.1,2002.5,1772.3,1622.8,3439.5,1331.4,1713.8,3438.2,3449.1,711.8,1354.0,956.0,562.6,1819.7,2326.4,3444.3,3441.9,798.5,1451.6,1568.3,1872.3,1656.8,1166.5,6.0,27.0,87.0,3492.0,7635.0,-11065.0,-8690.0,-174.0,543.0,-95.0,-3.0,-5.0,16.0,11885.0,11243.0,859.0,-170.0,-120.0,-48.0,20.0,1.0
2022-05-06 11:42:56.643465-07:00,2708.4,721.6,1756.0,1818.7,1227.5,1540.3,1585.2,1966.7,3437.0,3449.1,2535.8,1893.8,1622.8,3439.5,1331.4,1713.8,3438.2,3449.1,711.8,1354.0,956.0,562.6,1828.4,2313.9,3444.3,3441.9,798.5,1451.6,1559.0,1863.5,1651.1,1160.3,-1.0,-11.0,93.0,3752.0,7804.0,-10900.0,-8639.0,-385.0,1051.0,-103.0,-8.0,-17.0,22.0,11900.0,11226.0,873.0,-157.0,12.0,91.0,-4.0,1.0
2022-05-06 11:42:56.674105-07:00,2708.4,721.6,1756.0,1818.7,1228.4,1511.5,1701.4,2168.7,3437.0,3449.1,2535.8,1893.8,1633.1,3441.9,1533.8,1732.0,3445.5,3449.1,717.5,1353.1,956.0,562.6,1828.4,2313.9,3452.8,3438.2,811.9,1438.7,1559.0,1863.5,1651.1,1160.3,-52.0,-7.0,-11.0,4082.0,8029.0,-10764.0,-8452.0,255.0,907.0,184.0,-13.0,-36.0,19.0,11827.0,11301.0,908.0,-136.0,417.0,98.0,-15.0,1.0
2022-05-06 11:42:56.675352-07:00,2637.3,728.2,1750.2,1811.9,1228.4,1511.5,1701.4,2131.1,3439.5,3438.2,2917.8,2061.5,1633.1,3441.9,1533.8,1850.8,3438.2,3449.1,717.5,1353.1,955.1,557.8,1846.9,2341.0,3441.9,3438.2,811.9,1438.7,1551.5,1928.2,1782.9,1153.3,15.0,12.0,-178.0,4297.0,8123.0,-10749.0,-8273.0,-265.0,124.0,148.0,-10.0,54.0,-61.0,11722.0,11406.0,949.0,-122.0,175.0,54.0,-60.0,1.0
2022-05-06 11:42:56.823384-07:00,2595.0,728.2,1750.2,1811.9,1215.1,1477.3,1687.2,2131.1,3444.3,3438.2,2917.8,2061.5,1627.5,3438.2,1775.2,1850.8,3438.2,3431.0,726.6,1346.7,955.1,557.8,1846.9,2401.8,3441.9,3445.5,821.9,1343.1,1551.5,1928.2,1782.9,1151.5,2.0,106.0,118.0,4537.0,8000.0,-10519.0,-8555.0,-2594.0,58.0,-2.0,6.0,-16.0,4.0,11776.0,11349.0,971.0,-145.0,-311.0,32.0,-84.0,1.0
2022-05-06 11:42:56.824682-07:00,2595.0,722.5,2015.4,1888.9,1215.1,1477.3,1687.2,2092.6,3444.3,3439.5,2677.7,1988.5,1627.5,3438.2,1775.2,1893.8,3439.5,3431.0,726.6,1346.7,944.9,562.6,1900.7,2401.8,3445.5,3445.5,821.9,1343.1,1562.7,2115.9,2054.4,1151.5,68.0,-125.0,-91.0,4831.0,7700.0,-10157.0,-9090.0,-246.0,-480.0,-194.0,-69.0,-12.0,-71.0,11854.0,11264.0,1013.0,-150.0,-237.0,-106.0,-63.0,1.0
2022-05-06 11:42:56.883079-07:00,2658.0,722.5,2015.4,1888.9,1247.1,1458.0,1659.6,2092.6,3440.7,3439.5,2677.7,1988.5,1631.3,3446.7,1749.3,1893.8,3439.5,3440.7,722.5,1338.6,944.9,562.6,1900.7,2409.2,3445.5,3447.9,817.7,1209.7,1562.7,2115.9,2054.4,1148.0,13.0,-58.0,2.0,4792.0,7578.0,-10070.0,-9309.0,-792.0,-631.0,-52.0,7.0,-17.0,63.0,11901.0,11214.0,1009.0,-163.0,-145.0,143.0,-81.0,1.0
2022-05-06 11:42:57.033659-07:00,2658.0,711.0,2305.6,2036.4,1247.1,1458.0,1659.6,2034.4,3440.7,3450.4,2571.3,2099.7,1631.3,3446.7,1749.3,2011.4,3437.0,3440.7,722.5,1338.6,949.2,562.6,1691.0,2409.2,3435.8,3447.9,817.7,1209.7,1593.6,2187.1,2047.4,1148.0,-8.0,47.0,40.0,4827.0,7398.0,-9994.0,-9515.0,-380.0,-196.0,281.0,6.0,3.0,31.0,11927.0,11184.0,1040.0,-164.0,-46.0,42.0,16.0,1.0
2022-05-06 11:42:57.036641-07:00,2767.9,710.1,2305.6,2036.4,1338.6,1462.6,1647.3,2034.4,3444.3,3451.6,2571.3,2099.7,1640.7,3444.3,1751.2,2011.4,3437.0,3441.9,723.3,1346.7,949.2,562.6,1622.8,2418.7,3435.8,3444.3,847.8,1142.7,1593.6,2187.1,1947.9,1155.0,-50.0,-112.0,-1.0,4901.0,7278.0,-9958.0,-9606.0,-238.0,-80.0,173.0,-26.0,-41.0,14.0,11938.0,11170.0,1059.0,-157.0,20.0,23.0,-3.0,1.0
2022-05-06 11:42:57.037915-07:00,2767.9,710.1,2195.2,2051.4,1338.6,1462.6,1657.7,2057.4,3444.3,3451.6,2505.8,2064.5,1640.7,3444.3,1679.5,2023.4,3444.3,3441.9,723.3,1346.7,953.4,559.4,1622.8,2418.7,3433.4,3446.7,847.8,1142.7,1699.5,2168.7,1947.9,1155.0,4.0,43.0,-26.0,4937.0,7161.0,-9991.0,-9642.0,-19.0,-285.0,149.0,-11.0,0.0,-11.0,11928.0,11181.0,1056.0,-148.0,-10.0,-25.0,22.0,1.0
2022-05-06 11:42:57.039127-07:00,2643.9,705.2,2195.2,2051.4,1385.7,1447.9,1657.7,2057.4,3440.7,3440.7,2505.8,2064.5,1640.7,3445.5,1679.5,2023.4,3444.3,3441.9,727.4,1343.1,953.4,559.4,1588.9,2454.7,3433.4,3446.7,857.0,1113.9,1699.5,2168.7,1886.0,1154.2,7.0,11.0,39.0,4893.0,7084.0,-10017.0,-9694.0,-115.0,-121.0,-68.0,-3.0,-8.0,4.0,11957.0,11152.0,1036.0,-160.0,-168.0,-58.0,-8.0,1.0
2022-05-06 11:42:57.123705-07:00,2643.9,705.2,2078.5,2029.4,1385.7,1447.9,1651.1,2077.5,3440.7,3440.7,2470.6,2041.4,1640.7,3445.5,1636.9,1998.5,3433.4,3449.1,727.4,1343.1,948.3,569.0,1588.9,2454.7,3439.5,3438.2,857.0,1113.9,1707.2,2130.1,1886.0,1154.2,4.0,-7.0,38.0,4874.0,7073.0,-10001.0,-9728.0,29.0,-13.0,-22.0,-6.0,-11.0,8.0,11985.0,11122.0,1029.0,-165.0,22.0,13.0,-5.0,1.0
2022-05-06 11:42:57.126164-07:00,2554.0,692.9,2078.5,2029.4,1378.5,1435.0,1651.1,2077.5,3439.5,3444.3,2470.6,2041.4,1626.5,3445.5,1636.9,1998.5,3433.4,3449.1,719.2,1338.6,948.3,569.0,1575.8,2400.8,3439.5,3438.2,856.2,1099.9,1707.2,2130.1,1882.0,1151.5,-13.0,-2.0,-10.0,4879.0,7094.0,-9995.0,-9716.0,6.0,73.0,-26.0,-6.0,-2.0,-3.0,11976.0,11132.0,1038.0,-158.0,10.0,34.0,-12.0,1.0
2022-05-06 11:42:57.183365-07:00,2554.0,692.9,2039.4,2007.4,1378.5,1422.2,1638.8,2061.5,3439.5,3444.3,2442.0,2033.4,1626.5,3444.3,1627.5,1987.5,3441.9,3439.5,716.7,1338.6,949.2,561.8,1575.8,2400.8,3449.1,3449.1,843.6,1099.9,1684.3,2115.9,1882.0,1151.5,-6.0,2.0,-14.0,4882.0,7107.0,-9984.0,-9716.0,-33.0,-6.0,-34.0,-18.0,-5.0,-9.0,11979.0,11128.0,1045.0,-156.0,-57.0,-17.0,-2.0,1.0
2022-05-06 11:42:57.213384-07:00,2516.5,693.8,2023.4,2007.4,1363.0,1422.2,1638.8,2061.5,3444.3,3441.9,2427.1,2033.4,1621.8,3444.3,1627.5,1987.5,3441.9,3439.5,716.7,1335.0,949.2,561.0,1568.3,2360.9,3449.1,3449.1,843.6,1095.6,1684.3,2113.9,1852.8,1141.9,-2.0,-3.0,16.0,4872.0,7108.0,-9974.0,-9731.0,-31.0,-24.0,-3.0,-11.0,-3.0,-1.0,11997.0,11109.0,1040.0,-163.0,-44.0,-21.0,11.0,1.0
2022-05-06 11:42:57.334148-07:00,2516.5,693.8,2023.4,1995.5,1363.0,1419.5,1638.8,2042.4,3444.3,3441.9,2427.1,2014.4,1621.8,3439.5,1612.4,1968.7,3434.6,3439.5,722.5,1335.0,953.4,561.0,1568.3,2360.9,3450.4,3438.2,852.8,1095.6,1667.2,2113.9,1852.8,1141.9,-3.0,-12.0,-2.0,4875.0,7105.0,-9964.0,-9742.0,19.0,-22.0,5.0,-9.0,-10.0,-2.0,12005.0,11100.0,1037.0,-163.0,21.0,-12.0,1.0,1.0
2022-05-06 11:42:57.394085-07:00,2501.5,696.2,2009.4,1995.5,1345.8,1419.5,1638.8,2042.4,3445.5,3438.2,2411.3,2014.4,1611.5,3439.5,1612.4,1968.7,3434.6,3439.5,722.5,1341.3,953.4,560.2,1560.9,2375.5,3450.4,3438.2,852.8,1091.2,1667.2,2086.6,1842.0,1154.2,0.0,1.0,6.0,4865.0,7099.0,-9975.0,-9740.0,-6.0,-14.0,0.0,-8.0,-6.0,-4.0,12007.0,11098.0,1036.0,-166.0,-23.0,-15.0,-2.0,1.0
2022-05-06 11:42:57.423374-07:00,2501.5,696.2,2009.4,1972.7,1345.8,1414.9,1624.7,2034.4,3445.5,3438.2,2411.3,2010.4,1611.5,3438.2,1601.1,1965.7,3443.1,3440.7,722.5,1341.3,950.0,560.2,1560.9,2375.5,3443.1,3432.2,842.8,1091.2,1654.9,2086.6,1842.0,1154.2,0.0,4.0,5.0,4860.0,7104.0,-9972.0,-9742.0,-12.0,3.0,3.0,-8.0,-1.0,-3.0,12010.0,11095.0,1036.0,-167.0,-23.0,-7.0,13.0,1.0
2022-05-06 11:42:57.424614-07:00,2485.5,690.5,1983.6,1972.7,1335.9,1414.9,1624.7,2034.4,3449.1,3423.7,2403.9,2010.4,1609.6,3438.2,1601.1,1965.7,3443.1,3440.7,722.5,1337.7,950.0,559.4,1545.0,2365.1,3443.1,3432.2,842.8,1080.8,1654.9,2077.5,1843.0,1148.0,-5.0,-10.0,6.0,4867.0,7103.0,-9964.0,-9748.0,9.0,-3.0,-7.0,-5.0,-5.0,-4.0,12017.0,11087.0,1033.0,-165.0,-3.0,-10.0,8.0,1.0
2022-05-06 11:42:57.694078-07:00,2485.5,690.5,1983.6,1972.7,1332.3,1413.1,1627.5,2028.4,3449.1,3423.7,2403.9,2001.5,1607.7,3449.1,1601.1,1986.6,3435.8,3440.7,720.8,1335.0,948.3,559.4,1545.0,2365.1,3440.7,3438.2,847.0,1073.8,1641.6,2077.5,1843.0,1148.0,1.0,13.0,11.0,4868.0,7099.0,-9968.0,-9746.0,-5.0,0.0,18.0,-8.0,-1.0,-4.0,12019.0,11085.0,1033.0,-166.0,-23.0,-5.0,3.0,1.0
2022-05-06 11:42:57.753354-07:00,2462.1,694.6,1983.6,1962.8,1332.3,1413.1,1627.5,2028.4,3444.3,3441.9,2400.8,1997.5,1607.7,3449.1,1601.1,1986.6,3435.8,3440.7,720.8,1335.0,953.4,558.6,1542.2,2346.2,3440.7,3438.2,847.0,1073.8,1634.1,2078.5,1831.3,1148.0,-2.0,2.0,8.0,4878.0,7105.0,-9957.0,-9748.0,2.0,30.0,-5.0,-9.0,-10.0,-1.0,12023.0,11081.0,1034.0,-166.0,0.0,-1.0,-3.0,1.0
2022-05-06 11:42:57.754684-07:00,2462.1,694.6,1983.6,1962.8,1328.7,1405.8,1618.1,2024.4,3444.3,3441.9,2400.8,1997.5,1610.5,3439.5,1594.6,1952.9,3431.0,3441.9,714.2,1331.4,953.4,558.6,1542.2,2346.2,3446.7,3440.7,842.8,1077.3,1634.1,2078.5,1831.3,1148.0,-9.0,-19.0,5.0,4889.0,7120.0,-9943.0,-9745.0,-33.0,71.0,-36.0,-5.0,-6.0,0.0,12024.0,11079.0,1034.0,-167.0,-15.0,-3.0,3.0,1.0
2022-05-06 11:42:57.755650-07:00,2451.5,687.2,1975.6,1967.7,1328.7,1405.8,1618.1,2024.4,3439.5,3450.4,2387.1,1991.5,1610.5,3439.5,1594.6,1952.9,3431.0,3441.9,714.2,1331.4,944.1,561.0,1541.3,2324.3,3446.7,3440.7,842.8,1077.3,1631.3,2072.5,1824.6,1144.5,0.0,3.0,-7.0,4894.0,7132.0,-9938.0,-9740.0,29.0,-18.0,14.0,-4.0,0.0,-13.0,12024.0,11079.0,1036.0,-167.0,-7.0,-1.0,0.0,1.0
2022-05-06 11:42:57.843116-07:00,2451.5,687.2,1975.6,1967.7,1326.8,1404.0,1615.2,2011.4,3439.5,3450.4,2387.1,1991.5,1596.4,3438.2,1582.4,1959.8,3439.5,3449.1,715.9,1334.1,944.1,561.0,1541.3,2324.3,3445.5,3439.5,846.1,1062.5,1631.3,2072.5,1824.6,1144.5,0.0,-5.0,12.0,4892.0,7128.0,-9936.0,-9745.0,-18.0,0.0,-15.0,-3.0,-12.0,1.0,12032.0,11071.0,1036.0,-167.0,-34.0,-2.0,-5.0,1.0
2022-05-06 11:42:58.143806-07:00,2501.5,685.6,1984.6,1947.9,1316.9,1409.4,1606.8,2001.5,3451.6,3449.1,2386.0,1992.5,1597.4,3443.1,1588.0,1945.0,3444.3,3432.2,720.0,1336.8,945.8,560.2,1533.8,2313.9,3446.7,3440.7,831.9,1064.3,1639.8,2074.5,1824.6,1143.6,20.0,15.0,15.0,4920.0,7201.0,-9882.0,-9733.0,-40.0,200.0,-72.0,-7.0,7.0,-10.0,12047.0,11055.0,1041.0,-169.0,-53.0,-28.0,-31.0,1.0
2022-05-06 11:42:58.203402-07:00,2501.5,691.3,2009.4,1955.8,1316.9,1409.4,1606.8,1987.5,3451.6,3449.1,2408.1,1989.5,1597.4,3443.1,1588.0,1949.9,3439.5,3432.2,720.0,1336.8,948.3,557.8,1533.8,2313.9,3443.1,3440.7,831.9,1064.3,1674.8,2076.5,1839.1,1143.6,11.0,-21.0,-10.0,5012.0,7307.0,-9770.0,-9719.0,-80.0,410.0,-160.0,-8.0,-11.0,1.0,12060.0,11039.0,1045.0,-181.0,0.0,-22.0,-33.0,1.0
2022-05-06 11:42:58.204782-07:00,2912.2,691.3,2009.4,1955.8,1313.3,1399.4,1598.3,1987.5,3440.7,3449.1,2408.1,1989.5,1587.1,3435.8,1643.5,1949.9,3439.5,3432.2,720.8,1334.1,948.3,557.8,1533.8,2309.7,3443.1,3441.9,840.3,1065.1,1674.8,2076.5,1839.1,1145.4,-67.0,-54.0,-13.0,5081.0,7499.0,-9660.0,-9647.0,23.0,533.0,-250.0,-13.0,-16.0,5.0,12057.0,11042.0,1049.0,-195.0,51.0,17.0,0.0,1.0
2022-05-06 11:42:58.205626-07:00,2912.2,679.1,2139.2,1965.7,1313.3,1399.4,1598.3,1974.6,3440.7,3441.9,2735.9,2037.4,1587.1,3435.8,1643.5,1932.1,3438.2,3432.2,720.8,1334.1,950.9,561.0,1541.3,2309.7,3432.2,3441.9,840.3,1065.1,1642.6,2088.6,1958.8,1145.4,-1.0,10.0,-59.0,5092.0,7589.0,-9651.0,-9580.0,245.0,62.0,-80.0,-4.0,-3.0,-9.0,12038.0,11062.0,1059.0,-198.0,81.0,-4.0,-66.0,1.0
2022-05-06 11:42:58.594257-07:00,2870.5,683.1,2139.2,1965.7,1291.8,1399.4,1599.3,1974.6,3437.0,3438.2,2735.9,2037.4,1578.6,3441.9,1801.3,1932.1,3438.2,3449.1,718.4,1335.9,950.9,561.0,1605.8,2319.1,3432.2,3449.1,832.7,1094.7,1642.6,2088.6,2023.4,1143.6,-11.0,-7.0,-38.0,4948.0,7665.0,-9715.0,-9530.0,374.0,-173.0,-198.0,-17.0,-1.0,-22.0,12026.0,11073.0,1074.0,-227.0,-36.0,-55.0,-43.0,1.0
2022-05-06 11:42:58.596732-07:00,2813.5,700.3,2088.6,1926.2,1273.9,1533.8,1615.2,1957.8,3440.7,3437.0,2226.0,1928.2,1612.4,3435.8,1355.8,1762.7,3435.8,3450.4,717.5,1335.9,947.5,570.6,1764.6,2408.1,3431.0,3439.5,859.5,1393.0,1663.4,2050.4,1998.5,1147.1,-88.0,-176.0,-69.0,4145.0,7916.0,-9982.0,-9432.0,-262.0,-191.0,-288.0,-25.0,-52.0,-13.0,12087.0,11004.0,1091.0,-260.0,-87.0,17.0,8.0,1.0
2022-05-06 11:42:58.597723-07:00,2855.9,714.2,1794.5,1926.2,1296.3,1654.9,1615.2,1957.8,3451.6,3444.3,2098.7,1928.2,1607.7,3438.2,1355.8,1762.7,3435.8,3450.4,719.2,1346.7,947.5,576.2,1816.8,2350.4,3431.0,3439.5,866.3,1506.9,1663.4,1939.0,1795.5,1141.9,104.0,65.0,-97.0,3847.0,7798.0,-10161.0,-9464.0,448.0,-878.0,-99.0,-16.0,56.0,-47.0,12089.0,11005.0,1050.0,-264.0,-142.0,-169.0,70.0,1.0
2022-05-06 11:42:58.686143-07:00,2855.9,714.2,1794.5,1864.5,1296.3,1748.3,1596.4,2035.4,3451.6,3444.3,2098.7,1886.9,1607.7,3440.7,1280.1,1721.5,3445.5,3435.8,717.5,1346.7,953.4,576.2,1816.8,2350.4,3441.9,3439.5,887.3,1506.9,1637.9,1939.0,1795.5,1141.9,-159.0,-73.0,146.0,3653.0,7691.0,-10201.0,-9585.0,214.0,-431.0,58.0,8.0,-81.0,85.0,12141.0,10952.0,1000.0,-266.0,311.0,93.0,57.0,1.0
2022-05-06 11:42:58.689100-07:00,2934.8,732.3,1675.7,1864.5,1258.7,1748.3,1596.4,2035.4,3446.7,3435.8,2031.4,1886.9,1583.3,3440.7,1280.1,1721.5,3445.5,3435.8,717.5,1383.0,953.4,573.0,1906.6,2317.0,3441.9,3439.5,887.3,1507.8,1637.9,1879.1,1704.3,1141.9,82.0,104.0,9.0,3499.0,7625.0,-10381.0,-9502.0,383.0,-67.0,-47.0,-1.0,35.0,-32.0,12018.0,11087.0,1016.0,-234.0,180.0,28.0,64.0,1.0
2022-05-06 11:42:58.689759-07:00,2934.8,732.3,1675.7,1864.5,1258.7,1748.3,1596.4,2035.4,3446.7,3435.8,2031.4,1886.9,1583.3,3440.7,1280.1,1721.5,3445.5,3435.8,717.5,1383.0,953.4,573.0,1906.6,2317.0,3441.9,3439.5,887.3,1507.8,1637.9,1879.1,1704.3,1141.9,82.0,104.0,9.0,3499.0,7625.0,-10381.0,-9502.0,383.0,-67.0,-47.0,-1.0,35.0,-32.0,12018.0,11087.0,1016.0,-234.0,180.0,28.0,64.0,1.0
2022-05-06 11:42:58.690445-07:00,2815.7,741.4,1611.5,1782.9,1223.9,1672.9,1460.8,1720.5,3444.3,3445.5,2753.6,1919.3,1578.6,3438.2,1273.9,1691.9,3439.5,3443.1,720.0,1392.1,952.6,569.0,2089.6,2254.8,3438.2,3449.1,878.9,1531.0,1591.7,1821.6,1619.0,1129.6,-94.0,-2.0,58.0,3199.0,7549.0,-10768.0,-9234.0,258.0,-148.0,339.0,3.0,-22.0,28.0,11904.0,11219.0,910.0,-220.0,-128.0,-98.0,46.0,1.0
2022-05-06 11:42:58.803509-07:00,2815.7,741.4,1611.5,1782.9,1215.1,1733.0,1518.0,1865.4,3444.3,3445.5,2753.6,1919.3,1619.0,3439.5,1685.3,1769.5,3433.4,3443.1,715.9,1391.2,952.6,569.0,2089.6,2254.8,3441.9,3447.9,922.0,1580.5,1591.7,1821.6,1619.0,1129.6,25.0,104.0,-6.0,2991.0,7398.0,-11074.0,-9063.0,662.0,-469.0,334.0,-9.0,48.0,-42.0,11880.0,11245.0,884.0,-233.0,127.0,-82.0,-11.0,1.0
2022-05-06 11:42:58.806609-07:00,2805.7,725.8,1612.4,1773.3,1215.1,1733.0,1518.0,1865.4,3444.3,3437.0,2877.3,2072.5,1619.0,3439.5,1685.3,1769.5,3433.4,3443.1,715.9,1391.2,945.8,569.0,2056.4,2308.7,3441.9,3447.9,922.0,1580.5,1598.3,1857.6,1674.8,1120.9,29.0,102.0,42.0,2947.0,7256.0,-11160.0,-9086.0,-609.0,-22.0,25.0,-9.0,27.0,-6.0,11927.0,11195.0,876.0,-277.0,-329.0,-92.0,-95.0,1.0
2022-05-06 11:42:58.807494-07:00,2773.5,725.8,1612.4,1773.3,1216.0,1638.8,1505.1,1811.0,3441.9,3437.0,2877.3,2072.5,1609.6,3441.9,1760.8,1861.5,3444.3,3441.9,711.8,1388.5,945.8,569.0,2056.4,2310.8,3449.1,3449.1,979.9,1695.7,1598.3,1857.6,1674.8,1122.6,77.0,-32.0,-27.0,3159.0,7198.0,-10934.0,-9332.0,-1036.0,13.0,43.0,3.0,-21.0,-23.0,11993.0,11120.0,923.0,-300.0,-142.0,117.0,-119.0,1.0
2022-05-06 11:42:58.893300-07:00,2773.5,712.6,2207.5,1941.0,1216.0,1638.8,1505.1,1731.1,3441.9,3439.5,2684.3,2057.4,1609.6,3441.9,1760.8,1877.2,3439.5,3441.9,711.8,1388.5,944.1,573.8,2187.1,2310.8,3438.2,3449.1,979.9,1695.7,1588.9,2018.4,1967.7,1122.6,38.0,-136.0,85.0,3301.0,7176.0,-10712.0,-9556.0,-263.0,343.0,-182.0,-1.0,-70.0,35.0,12070.0,11033.0,957.0,-306.0,-361.0,-68.0,-56.0,1.0
2022-05-06 11:42:59.043481-07:00,2691.9,712.6,2207.5,1941.0,1266.7,1647.3,1484.7,1731.1,3441.9,3439.5,2684.3,2057.4,1588.9,3440.7,1731.1,1877.2,3439.5,3444.3,715.9,1371.2,944.1,573.8,2187.1,2330.6,3438.2,3443.1,927.1,1452.5,1588.9,2018.4,1967.7,1122.6,-3.0,-29.0,104.0,3448.0,7229.0,-10608.0,-9579.0,-34.0,455.0,135.0,-17.0,-38.0,2.0,12081.0,11021.0,977.0,-286.0,265.0,169.0,27.0,1.0
2022-05-06 11:42:59.044836-07:00,2691.9,706.0,2178.9,2059.4,1266.7,1647.3,1484.7,1921.3,3441.9,3438.2,2697.4,2089.6,1588.9,3440.7,1731.1,1954.8,3432.2,3444.3,715.9,1371.2,951.7,568.2,2039.4,2330.6,3443.1,3443.1,927.1,1452.5,1587.1,2179.9,2041.4,1122.6,-24.0,-66.0,6.0,3735.0,7305.0,-10396.0,-9646.0,-1553.0,519.0,234.0,-12.0,-8.0,6.0,12054.0,11046.0,1036.0,-234.0,-103.0,203.0,-2.0,1.0
2022-05-06 11:42:59.045819-07:00,2784.6,706.0,2178.9,2059.4,1277.4,1604.0,1569.3,1921.3,3438.2,3438.2,2697.4,2089.6,1591.7,3443.1,1751.2,1954.8,3432.2,3440.7,713.4,1377.5,951.7,568.2,2039.4,2392.4,3443.1,3446.7,929.6,1393.9,1587.1,2179.9,2041.4,1118.2,20.0,-115.0,-71.0,4316.0,7112.0,-10049.0,-9911.0,-1275.0,459.0,790.0,15.0,-56.0,16.0,12055.0,11042.0,1081.0,-176.0,59.0,155.0,42.0,1.0
2022-05-06 11:42:59.193076-07:00,2784.6,769.5,2052.4,2031.4,1277.4,1604.0,1786.8,2309.7,3438.2,3449.1,2591.8,2098.7,1591.7,3443.1,1711.0,1991.5,3444.3,3439.5,713.4,1377.5,940.7,565.8,1935.1,2392.4,3443.1,3450.4,929.6,1393.9,1627.5,2157.5,1961.8,1118.2,-10.0,17.0,-92.0,4635.0,7000.0,-9932.0,-9966.0,-46.0,-8.0,107.0,-2.0,7.0,-26.0,12017.0,11081.0,1108.0,-138.0,139.0,94.0,24.0,1.0
2022-05-06 11:42:59.195837-07:00,2540.1,816.9,2052.4,2031.4,1397.6,1565.5,1786.8,2309.7,3447.9,3437.0,2591.8,2098.7,1605.8,3449.1,1711.0,1991.5,3444.3,3439.5,717.5,1374.8,940.7,565.8,1811.0,2408.1,3443.1,3450.4,939.8,1293.6,1627.5,2157.5,1913.4,1120.0,-8.0,-5.0,-57.0,4634.0,6933.0,-9964.0,-9981.0,-61.0,-264.0,169.0,-16.0,9.0,-23.0,11995.0,11103.0,1121.0,-136.0,8.0,-16.0,-21.0,1.0
2022-05-06 11:42:59.196791-07:00,2540.1,816.9,1969.7,2006.4,1397.6,1565.5,1800.3,2280.7,3447.9,3437.0,2531.5,2087.6,1605.8,3449.1,1643.5,1987.5,3438.2,3428.6,717.5,1374.8,944.9,569.8,1811.0,2408.1,3449.1,3441.9,939.8,1293.6,1670.1,2122.0,1913.4,1120.0,11.0,7.0,30.0,4605.0,6845.0,-9978.0,-10040.0,-113.0,-132.0,-69.0,-4.0,-5.0,4.0,12028.0,11068.0,1109.0,-158.0,-165.0,-65.0,-11.0,1.0
2022-05-06 11:42:59.223495-07:00,2398.7,799.4,1969.7,2006.4,1388.5,1537.6,1800.3,2280.7,3435.8,3443.1,2531.5,2087.6,1609.6,3446.7,1643.5,1987.5,3438.2,3428.6,711.8,1370.3,944.9,569.8,1756.0,2360.9,3449.1,3441.9,932.2,1244.4,1670.1,2122.0,1886.9,1119.1,-15.0,-39.0,20.0,4604.0,6835.0,-9948.0,-10078.0,33.0,17.0,36.0,-5.0,-27.0,20.0,12060.0,11034.0,1101.0,-164.0,-1.0,12.0,13.0,1.0
2022-05-06 11:42:59.343461-07:00,2398.7,799.4,1937.1,1982.6,1388.5,1537.6,1781.0,2226.0,3435.8,3443.1,2482.3,2055.4,1609.6,3446.7,1619.0,1976.6,3435.8,3437.0,711.8,1370.3,942.4,570.6,1756.0,2360.9,3440.7,3435.8,932.2,1244.4,1657.7,2100.7,1886.9,1119.1,4.0,18.0,-12.0,4611.0,6848.0,-9958.0,-10056.0,6.0,85.0,-40.0,1.0,6.0,-10.0,12042.0,11053.0,1111.0,-157.0,24.0,32.0,-10.0,1.0
2022-05-06 11:42:59.345314-07:00,2388.1,783.6,1917.4,1982.6,1365.7,1525.5,1781.0,2226.0,3441.9,3439.5,2464.2,2055.4,1593.6,3438.2,1619.0,1976.6,3435.8,3437.0,718.4,1364.8,942.4,561.8,1733.0,2325.4,3440.7,3435.8,926.2,1223.9,1657.7,2088.6,1855.7,1110.4,-25.0,-28.0,-14.0,4623.0,6878.0,-9936.0,-10051.0,-14.0,49.0,-8.0,-12.0,-11.0,6.0,12042.0,11052.0,1121.0,-161.0,-4.0,11.0,-13.0,1.0
2022-05-06 11:42:59.403467-07:00,2388.1,783.6,1917.4,1968.7,1365.7,1517.1,1780.1,2190.1,3441.9,3439.5,2464.2,2033.4,1593.6,3446.7,1605.8,1967.7,3433.4,3432.2,715.9,1364.8,946.6,561.8,1733.0,2325.4,3439.5,3449.1,916.9,1223.9,1637.9,2088.6,1855.7,1110.4,24.0,82.0,16.0,4634.0,6888.0,-9932.0,-10044.0,-41.0,110.0,-62.0,-3.0,21.0,-24.0,12047.0,11047.0,1114.0,-165.0,-86.0,-46.0,10.0,1.0
2022-05-06 11:42:59.404993-07:00,2368.2,781.9,1909.5,1968.7,1354.9,1517.1,1780.1,2190.1,3443.1,3438.2,2440.9,2033.4,1590.8,3446.7,1605.8,1967.7,3433.4,3432.2,715.9,1364.8,946.6,571.4,1718.6,2306.6,3439.5,3449.1,916.9,1217.7,1637.9,2070.5,1853.7,1113.9,-16.0,-55.0,0.0,4678.0,6952.0,-9835.0,-10075.0,-151.0,169.0,-85.0,-9.0,-22.0,6.0,12083.0,11008.0,1113.0,-165.0,-78.0,11.0,-8.0,1.0
2022-05-06 11:42:59.553375-07:00,2368.2,781.9,1909.5,1968.7,1354.9,1509.7,1753.1,2165.6,3443.1,3438.2,2440.9,2026.4,1590.8,3434.6,1598.3,1961.8,3438.2,3439.5,714.2,1364.8,938.1,571.4,1718.6,2306.6,3440.7,3437.0,918.6,1217.7,1613.4,2070.5,1853.7,1113.9,14.0,21.0,-3.0,4701.0,6997.0,-9812.0,-10055.0,44.0,120.0,-44.0,-9.0,6.0,-17.0,12084.0,11006.0,1117.0,-162.0,-4.0,0.0,-8.0,1.0
2022-05-06 11:42:59.674048-07:00,2358.8,793.5,1916.4,1968.7,1347.6,1509.7,1753.1,2165.6,3441.9,3447.9,2439.8,2026.4,1596.4,3434.6,1598.3,1961.8,3438.2,3439.5,714.2,1361.2,938.1,564.2,1711.9,2294.2,3440.7,3437.0,918.6,1202.7,1613.4,2063.5,1859.6,1114.7,-6.0,-17.0,0.0,4724.0,7080.0,-9762.0,-10035.0,-33.0,230.0,-125.0,-6.0,-9.0,3.0,12101.0,10987.0,1122.0,-168.0,-74.0,4.0,-16.0,1.0
2022-05-06 11:42:59.733062-07:00,2358.8,793.5,1916.4,1965.7,1347.6,1510.6,1728.2,2140.2,3441.9,3447.9,2439.8,2025.4,1596.4,3438.2,1617.1,1945.9,3433.4,3440.7,711.0,1361.2,940.7,564.2,1711.9,2294.2,3452.8,3437.0,911.8,1202.7,1607.7,2063.5,1859.6,1114.7,34.0,21.0,0.0,4757.0,7182.0,-9706.0,-10001.0,-7.0,322.0,-186.0,-11.0,10.0,-22.0,12128.0,10957.0,1124.0,-175.0,-141.0,-44.0,-24.0,1.0
2022-05-06 11:42:59.763514-07:00,2487.6,843.6,2041.4,1981.6,1368.5,1510.6,1728.2,2140.2,3444.3,3433.4,2709.5,2070.5,1576.8,3438.2,1617.1,1945.9,3433.4,3440.7,711.0,1357.6,938.1,562.6,1699.5,2282.8,3452.8,3437.0,911.8,1195.6,1596.4,2077.5,1930.2,1116.5,5.0,-40.0,2.0,4883.0,7391.0,-9512.0,-9975.0,-358.0,847.0,-311.0,-17.0,-25.0,16.0,12210.0,10868.0,1096.0,-193.0,-384.0,-105.0,21.0,1.0
2022-05-06 11:42:59.793725-07:00,2487.6,843.6,2041.4,1981.6,1323.2,1501.4,1704.3,2125.0,3444.3,3433.4,2709.5,2070.5,1559.9,3440.7,1800.3,1938.0,3437.0,3440.7,711.8,1354.0,938.1,562.6,1699.5,2282.8,3443.1,3440.7,910.1,1207.1,1596.4,2077.5,1930.2,1116.5,-24.0,-32.0,2.0,4997.0,7657.0,-9349.0,-9871.0,301.0,577.0,-304.0,0.0,-23.0,12.0,12281.0,10791.0,1070.0,-192.0,-83.0,-21.0,23.0,1.0
2022-05-06 11:42:59.794821-07:00,2557.3,806.9,2234.2,1979.6,1323.2,1501.4,1704.3,2125.0,3433.4,3440.7,2987.1,2153.4,1559.9,3440.7,1800.3,1938.0,3437.0,3440.7,711.8,1354.0,939.0,559.4,1705.3,2332.6,3443.1,3440.7,910.1,1207.1,1584.2,2073.5,1974.6,1112.1,-29.0,-12.0,-5.0,4947.0,7907.0,-9356.0,-9691.0,404.0,411.0,-209.0,-3.0,-4.0,0.0,12272.0,10800.0,1075.0,-192.0,73.0,34.0,-27.0,1.0
2022-05-06 11:42:59.796074-07:00,2557.3,806.9,2234.2,1979.6,1319.6,1499.5,1653.0,2061.5,3433.4,3440.7,2987.1,2153.4,1555.3,3444.3,1763.7,1908.5,3449.1,3445.5,712.6,1351.2,939.0,559.4,1705.3,2332.6,3445.5,3447.9,894.9,2372.4,1584.2,2073.5,1974.6,1112.1,-45.0,-46.0,-51.0,4952.0,8031.0,-9388.0,-9554.0,307.0,268.0,108.0,-15.0,-17.0,10.0,12246.0,10827.0,1093.0,-195.0,97.0,26.0,-15.0,1.0
2022-05-06 11:42:59.853434-07:00,2541.1,788.6,2217.8,1959.8,1319.6,1499.5,1653.0,2061.5,3437.0,3440.7,2978.0,2176.9,1555.3,3444.3,1763.7,1908.5,3449.1,3445.5,712.6,1351.2,937.3,563.4,1785.8,2330.6,3445.5,3447.9,894.9,2372.4,1577.7,2057.4,1940.0,1111.2,-23.0,79.0,-104.0,5005.0,8055.0,-9436.0,-9458.0,40.0,127.0,57.0,-12.0,-7.0,28.0,12214.0,10864.0,1095.0,-204.0,59.0,56.0,-25.0,1.0
2022-05-06 11:42:59.856295-07:00,2553.0,788.6,2217.8,1959.8,1290.0,1491.2,1627.5,2020.4,3437.0,3440.7,2978.0,2176.9,1596.4,3435.8,1711.9,1874.2,3449.1,3441.9,708.5,1350.3,937.3,563.4,1785.8,2407.1,3447.9,3441.9,894.1,3458.9,1577.7,2057.4,1940.0,1111.2,-34.0,-112.0,0.0,4847.0,8046.0,-9502.0,-9483.0,589.0,-381.0,-92.0,-5.0,-25.0,-21.0,12165.0,10914.0,1135.0,-217.0,189.0,46.0,-39.0,1.0
2022-05-06 11:42:59.914000-07:00,2553.0,781.9,2198.3,1970.7,1290.0,1491.2,1627.5,1998.5,3437.0,3449.1,2314.9,1994.5,1596.4,3435.8,1711.9,1806.1,3434.6,3441.9,708.5,1350.3,935.6,563.4,1718.6,2407.1,3439.5,3441.9,894.1,3458.9,1583.3,2046.4,1963.7,1111.2,123.0,145.0,-80.0,4612.0,8001.0,-9693.0,-9444.0,275.0,-471.0,-254.0,-6.0,55.0,-60.0,12135.0,10947.0,1136.0,-233.0,-100.0,-73.0,-32.0,1.0
2022-05-06 11:43:00.003415-07:00,2559.4,781.9,2198.3,1970.7,1288.2,1593.6,1642.6,1998.5,3434.6,3449.1,2314.9,1994.5,1603.0,3438.2,1485.6,1806.1,3434.6,3433.4,709.3,1347.6,935.6,563.4,1718.6,2361.9,3439.5,3443.1,876.4,1563.7,1583.3,2046.4,1963.7,1106.0,-84.0,-229.0,35.0,4423.0,8080.0,-9574.0,-9588.0,-58.0,-177.0,-497.0,0.0,-80.0,68.0,12205.0,10868.0,1142.0,-246.0,-67.0,21.0,-1.0,1.0
2022-05-06 11:43:00.005316-07:00,2559.4,776.9,2204.5,1928.2,1288.2,1593.6,1642.6,1982.6,3434.6,3440.7,2136.1,1926.2,1603.0,3438.2,1485.6,1736.8,3449.1,3433.4,709.3,1347.6,939.0,556.2,1811.0,2361.9,3435.8,3443.1,876.4,1563.7,1604.9,1983.6,1892.8,1106.0,31.0,88.0,-74.0,4203.0,8027.0,-9688.0,-9617.0,132.0,-550.0,-91.0,-17.0,53.0,-36.0,12183.0,10896.0,1105.0,-248.0,-74.0,-132.0,67.0,1.0
2022-05-06 11:43:00.243431-07:00,2764.6,776.9,2204.5,1928.2,1317.8,1741.6,1623.7,1982.6,3433.4,3440.7,2136.1,1926.2,1584.2,3445.5,1298.1,1736.8,3449.1,3438.2,709.3,1344.0,939.0,556.2,1811.0,2300.4,3435.8,3441.9,876.4,1518.0,1604.9,1983.6,1892.8,1112.1,12.0,-18.0,72.0,3884.0,7958.0,-9771.0,-9723.0,517.0,-715.0,-350.0,26.0,-16.0,-1.0,12217.0,10863.0,1054.0,-250.0,49.0,-49.0,65.0,1.0
2022-05-06 11:43:00.363379-07:00,2764.6,777.8,1842.0,1854.7,1317.8,1741.6,1632.2,2026.4,3433.4,3440.7,2070.5,1897.7,1584.2,3445.5,1257.8,1707.2,3440.7,3443.1,709.3,1344.0,939.8,567.4,1999.5,2300.4,3441.9,3449.1,876.4,1518.0,1588.0,1887.9,1708.1,1112.1,-30.0,-94.0,1.0,3639.0,7872.0,-9841.0,-9817.0,246.0,-687.0,-64.0,-1.0,-44.0,-2.0,12216.0,10867.0,1029.0,-238.0,51.0,-59.0,59.0,1.0
2022-05-06 11:43:00.454070-07:00,2844.8,802.7,1842.0,1854.7,1252.4,1821.6,1632.2,2026.4,3437.0,3444.3,2070.5,1897.7,1576.8,3438.2,1257.8,1707.2,3440.7,3443.1,715.9,1373.9,939.8,567.4,2004.5,2283.8,3441.9,3449.1,898.3,1550.6,1588.0,1887.9,1640.7,1105.1,-44.0,89.0,42.0,3421.0,7820.0,-10089.0,-9684.0,793.0,-170.0,73.0,-16.0,35.0,-22.0,12105.0,10993.0,1005.0,-219.0,512.0,71.0,50.0,1.0
2022-05-06 11:43:00.483435-07:00,2844.8,802.7,1726.3,1817.8,1252.4,1821.6,1539.4,1868.4,3437.0,3444.3,2034.4,1896.7,1576.8,3438.2,1254.2,1698.6,3437.0,3435.8,715.9,1373.9,944.9,571.4,2004.5,2283.8,3444.3,3445.5,898.3,1550.6,1566.5,1845.0,1640.7,1105.1,-8.0,-6.0,-20.0,3314.0,7871.0,-10172.0,-9593.0,277.0,-23.0,-134.0,-5.0,-5.0,-9.0,12022.0,11083.0,1018.0,-194.0,189.0,61.0,22.0,1.0
2022-05-06 11:43:00.485711-07:00,2781.2,810.2,1726.3,1817.8,1242.6,1756.0,1539.4,1868.4,3444.3,3431.0,2034.4,1896.7,1575.8,3445.5,1254.2,1698.6,3437.0,3435.8,706.9,1393.0,944.9,571.4,1972.7,2248.7,3444.3,3445.5,889.8,1555.3,1566.5,1845.0,1619.9,1112.1,-7.0,-12.0,-16.0,3186.0,7867.0,-10285.0,-9520.0,385.0,-195.0,57.0,-13.0,11.0,-15.0,11971.0,11139.0,1003.0,-192.0,116.0,-42.0,47.0,1.0
2022-05-06 11:43:00.487039-07:00,2781.2,810.2,1699.5,1799.4,1242.6,1756.0,1466.3,1698.6,3444.3,3431.0,2010.4,1871.3,1575.8,3445.5,1248.0,1688.1,3439.5,3438.2,706.9,1393.0,939.8,569.0,1972.7,2248.7,3446.7,3443.1,889.8,1555.3,1559.9,1821.6,1619.9,1112.1,-9.0,-5.0,25.0,3143.0,7839.0,-10331.0,-9506.0,31.0,-56.0,18.0,-7.0,-10.0,7.0,11975.0,11137.0,985.0,-192.0,-24.0,-17.0,22.0,1.0
2022-05-06 11:43:00.487965-07:00,2740.3,805.2,1699.5,1799.4,1228.4,1707.2,1466.3,1698.6,3434.6,3437.0,2010.4,1871.3,1566.5,3445.5,1248.0,1688.1,3439.5,3438.2,711.8,1405.8,939.8,569.0,1948.9,2233.2,3446.7,3443.1,883.9,1503.2,1559.9,1821.6,1603.0,1113.9,0.0,12.0,17.0,3118.0,7825.0,-10372.0,-9482.0,128.0,-22.0,42.0,1.0,9.0,-4.0,11965.0,11149.0,976.0,-189.0,62.0,-8.0,20.0,1.0
2022-05-06 11:43:00.488837-07:00,2740.3,805.2,1699.5,1799.4,1228.4,1707.2,1466.3,1698.6,3434.6,3437.0,2010.4,1871.3,1566.5,3445.5,1248.0,1688.1,3439.5,3438.2,711.8,1405.8,939.8,569.0,1948.9,2233.2,3446.7,3443.1,883.9,1503.2,1559.9,1821.6,1603.0,1113.9,0.0,12.0,17.0,3118.0,7825.0,-10372.0,-9482.0,128.0,-22.0,42.0,1.0,9.0,-4.0,11965.0,11149.0,976.0,-189.0,62.0,-8.0,20.0,1.0
2022-05-06 11:43:00.693737-07:00,2712.8,784.4,1669.1,1777.2,1229.3,1654.9,1406.7,1647.3,3441.9,3446.7,1983.6,1863.5,1577.7,3439.5,1239.9,1677.6,3433.4,3433.4,709.3,1400.3,936.4,571.4,1931.1,2213.7,3439.5,3440.7,873.8,1483.8,1543.1,1818.7,1589.9,1106.0,5.0,-35.0,17.0,3089.0,7880.0,-10444.0,-9366.0,211.0,120.0,43.0,-12.0,11.0,-19.0,11914.0,11202.0,982.0,-183.0,89.0,0.0,28.0,1.0
2022-05-06 11:43:00.694933-07:00,2697.4,791.0,1650.2,1777.2,1218.6,1654.9,1406.7,1647.3,3438.2,3444.3,2087.6,1863.5,1559.9,3439.5,1239.9,1677.6,3433.4,3433.4,709.3,1397.6,936.4,567.4,1966.7,2200.4,3439.5,3440.7,873.8,1470.0,1543.1,1808.1,1582.4,1099.9,-10.0,-14.0,64.0,3251.0,7943.0,-10437.0,-9265.0,-229.0,735.0,269.0,-6.0,-28.0,34.0,11911.0,11208.0,954.0,-190.0,-62.0,-70.0,48.0,1.0
2022-05-06 11:43:00.696164-07:00,2697.4,791.0,1650.2,1774.3,1218.6,1658.7,1458.9,1812.9,3438.2,3444.3,2087.6,1875.2,1559.9,3441.9,1374.8,1691.9,3439.5,3432.2,709.3,1397.6,938.1,567.4,1966.7,2200.4,3435.8,3440.7,873.8,1470.0,1543.1,1808.1,1582.4,1099.9,-65.0,-50.0,-106.0,3417.0,7949.0,-10524.0,-9100.0,806.0,66.0,298.0,-37.0,-36.0,-45.0,11882.0,11242.0,923.0,-154.0,316.0,-49.0,127.0,1.0
2022-05-06 11:43:00.697149-07:00,2752.5,782.7,1616.2,1756.0,1209.7,1658.7,1458.9,1812.9,3445.5,3438.2,3113.6,2075.5,1573.9,3441.9,1374.8,1691.9,3439.5,3432.2,709.3,1376.6,932.2,562.6,2092.6,2206.5,3435.8,3440.7,873.8,1583.3,1546.9,1788.7,1578.6,1104.3,36.0,7.0,76.0,3419.0,8022.0,-10604.0,-8942.0,-177.0,409.0,36.0,47.0,3.0,29.0,11856.0,11274.0,858.0,-194.0,-207.0,-146.0,24.0,1.0
2022-05-06 11:43:00.723443-07:00,2752.5,782.7,1616.2,1756.0,1221.3,1690.0,1480.1,1712.9,3445.5,3438.2,3113.6,2075.5,1596.4,3446.7,1766.6,1811.9,3437.0,3445.5,706.0,1375.7,932.2,562.6,2092.6,2206.5,3446.7,3443.1,879.7,1612.4,1546.9,1788.7,1578.6,1104.3,15.0,-21.0,-62.0,3403.0,7944.0,-10718.0,-8882.0,553.0,-264.0,222.0,-40.0,-7.0,-58.0,11829.0,11300.0,886.0,-190.0,201.0,17.0,-42.0,1.0
2022-05-06 11:43:00.753759-07:00,2662.4,761.2,1596.4,1750.2,1221.3,1690.0,1480.1,1712.9,3432.2,3440.7,2758.0,2062.5,1596.4,3446.7,1766.6,1811.9,3437.0,3445.5,706.0,1375.7,941.5,561.0,2051.4,2300.4,3446.7,3443.1,879.7,1612.4,1554.3,1832.3,1633.1,1105.1,-4.0,100.0,49.0,3356.0,7920.0,-10744.0,-8888.0,-464.0,23.0,-117.0,9.0,28.0,1.0,11841.0,11286.0,886.0,-229.0,-166.0,-29.0,-134.0,1.0
2022-05-06 11:43:00.814110-07:00,2662.4,761.2,1596.4,1750.2,1201.8,1649.2,1487.5,1660.6,3432.2,3440.7,2758.0,2062.5,1589.9,3433.4,1741.6,1854.7,3435.8,3441.9,706.0,1370.3,941.5,561.0,2051.4,2300.4,3444.3,3454.0,910.1,1607.7,1554.3,1832.3,1633.1,1105.1,-18.0,-61.0,39.0,3559.0,7915.0,-10512.0,-9090.0,-755.0,326.0,-26.0,-6.0,-17.0,6.0,11876.0,11245.0,943.0,-255.0,-152.0,0.0,-119.0,1.0
2022-05-06 11:43:00.873689-07:00,2639.5,743.9,1671.9,1748.3,1201.8,1649.2,1487.5,1660.6,3441.9,3446.7,2674.4,2133.1,1589.9,3433.4,1741.6,1854.7,3435.8,3441.9,706.0,1370.3,937.3,559.4,2071.5,2289.0,3444.3,3454.0,910.1,1607.7,1542.2,1935.1,1887.9,1112.1,-13.0,195.0,-23.0,3730.0,7987.0,-10384.0,-9105.0,-1123.0,585.0,-289.0,-25.0,42.0,6.0,11870.0,11244.0,1013.0,-275.0,-51.0,187.0,-191.0,1.0
2022-05-06 11:43:01.023517-07:00,2658.0,743.9,1671.9,1748.3,1209.7,1700.5,1485.6,1616.2,3440.7,3446.7,2674.4,2133.1,1578.6,3449.1,1690.0,1867.4,3440.7,3454.0,710.1,1368.5,937.3,559.4,2071.5,2327.4,3441.9,3443.1,907.6,1425.9,1542.2,1935.1,1887.9,1105.1,17.0,-322.0,-115.0,4056.0,8000.0,-9961.0,-9422.0,-762.0,-36.0,36.0,-13.0,-87.0,-21.0,12002.0,11096.0,1095.0,-267.0,-507.0,9.0,-33.0,1.0
2022-05-06 11:43:01.024894-07:00,2658.0,742.2,2331.6,1986.6,1209.7,1700.5,1485.6,1556.2,3440.7,3445.5,2704.0,2110.8,1578.6,3449.1,1690.0,1921.3,3437.0,3454.0,710.1,1368.5,933.0,564.2,1941.0,2327.4,3438.2,3443.1,907.6,1425.9,1570.2,2190.1,2071.5,1105.1,-25.0,54.0,59.0,4134.0,7898.0,-9985.0,-9447.0,-354.0,-171.0,272.0,24.0,21.0,51.0,12021.0,11076.0,1091.0,-273.0,95.0,107.0,17.0,1.0
2022-05-06 11:43:01.025815-07:00,2716.1,742.2,2331.6,1986.6,1275.6,1631.3,1513.4,1556.2,3445.5,3445.5,2704.0,2110.8,1585.2,3440.7,1719.6,1921.3,3437.0,3431.0,710.1,1367.6,933.0,564.2,1941.0,2322.2,3438.2,3443.1,920.3,1383.0,1570.2,2190.1,2071.5,1100.8,9.0,0.0,22.0,4321.0,7745.0,-9889.0,-9591.0,-719.0,128.0,380.0,-3.0,9.0,-2.0,11975.0,11121.0,1143.0,-223.0,123.0,164.0,-4.0,1.0
2022-05-06 11:43:01.083153-07:00,2716.1,749.6,2209.6,2031.4,1275.6,1631.3,1513.4,2264.1,3445.5,3445.5,2591.8,2099.7,1585.2,3440.7,1719.6,2000.5,3444.3,3431.0,710.1,1367.6,927.9,560.2,1891.8,2322.2,3437.0,3443.1,920.3,1383.0,1556.2,2193.2,1938.0,1100.8,25.0,-2.0,-69.0,4604.0,7571.0,-9779.0,-9710.0,-683.0,-115.0,441.0,11.0,-32.0,8.0,11964.0,11130.0,1182.0,-189.0,-74.0,95.0,7.0,1.0
2022-05-06 11:43:01.234089-07:00,2668.9,749.6,2209.6,2031.4,1328.7,1599.3,1807.1,2264.1,3444.3,3445.5,2591.8,2099.7,1602.1,3439.5,1711.9,2000.5,3444.3,3441.9,705.2,1380.3,927.9,560.2,1891.8,2401.8,3437.0,3449.1,916.9,1309.7,1556.2,2193.2,1938.0,1106.0,-19.0,-9.0,-25.0,4679.0,7418.0,-9778.0,-9793.0,-47.0,-308.0,138.0,-18.0,3.0,-16.0,11969.0,11123.0,1193.0,-191.0,-44.0,-45.0,0.0,1.0
2022-05-06 11:43:01.236788-07:00,2668.9,738.1,2069.5,2012.4,1328.7,1599.3,1807.1,2307.7,3444.3,3439.5,2530.4,2091.6,1602.1,3439.5,1711.9,1996.5,3444.3,3441.9,705.2,1380.3,939.0,563.4,1845.0,2401.8,3443.1,3449.1,916.9,1309.7,1636.9,2156.5,1874.2,1106.0,17.0,56.0,24.0,4654.0,7281.0,-9819.0,-9866.0,-137.0,-242.0,29.0,3.0,8.0,0.0,12003.0,11088.0,1175.0,-202.0,-161.0,-56.0,-6.0,1.0
2022-05-06 11:43:01.414338-07:00,2529.3,738.1,2069.5,2012.4,1370.3,1575.8,1852.8,2307.7,3437.0,3441.9,2530.4,2091.6,1609.6,3432.2,1660.6,1996.5,3444.3,3438.2,708.5,1363.9,939.0,563.4,1826.5,2367.2,3443.1,3441.9,919.4,1259.6,1636.9,2156.5,1853.7,1100.8,-21.0,-38.0,29.0,4630.0,7237.0,-9807.0,-9922.0,-42.0,-4.0,5.0,-4.0,-21.0,21.0,12035.0,11054.0,1170.0,-208.0,-33.0,3.0,-4.0,1.0
2022-05-06 11:43:01.416095-07:00,2529.3,738.1,2017.4,1991.5,1370.3,1575.8,1831.3,2250.7,3437.0,3441.9,2475.9,2065.5,1609.6,3432.2,1633.1,1986.6,3438.2,3435.8,708.5,1363.9,939.8,563.4,1826.5,2367.2,3444.3,3443.1,919.4,1259.6,1619.0,2127.0,1853.7,1100.8,5.0,9.0,-6.0,4637.0,7239.0,-9809.0,-9915.0,1.0,53.0,-12.0,-2.0,-1.0,-12.0,12021.0,11068.0,1179.0,-201.0,38.0,31.0,-2.0,1.0
2022-05-06 11:43:01.417186-07:00,2472.7,738.1,2017.4,1991.5,1345.8,1553.4,1831.3,2250.7,3443.1,3440.7,2475.9,2065.5,1604.9,3438.2,1633.1,1986.6,3438.2,3435.8,706.9,1367.6,939.8,563.4,1785.8,2319.1,3444.3,3443.1,907.6,1234.6,1619.0,2127.0,1832.3,1106.0,-19.0,-20.0,-15.0,4652.0,7256.0,-9790.0,-9915.0,-32.0,28.0,-16.0,-5.0,-12.0,2.0,12024.0,11064.0,1182.0,-200.0,-21.0,3.0,-5.0,1.0
2022-05-06 11:43:01.418703-07:00,2472.7,738.1,1996.5,1968.7,1345.8,1553.4,1809.0,2206.5,3443.1,3440.7,2439.8,2044.4,1604.9,3438.2,1610.5,1979.6,3438.2,3439.5,706.9,1367.6,937.3,565.8,1785.8,2319.1,3447.9,3446.7,907.6,1234.6,1600.2,2113.9,1832.3,1106.0,-1.0,9.0,-2.0,4649.0,7259.0,-9793.0,-9911.0,-4.0,0.0,-28.0,-6.0,10.0,-7.0,12028.0,11060.0,1181.0,-202.0,-22.0,-12.0,3.0,1.0
2022-05-06 11:43:01.443644-07:00,2431.4,726.6,1996.5,1968.7,1329.6,1545.0,1809.0,2206.5,3432.2,3438.2,2439.8,2044.4,1599.3,3446.7,1610.5,1979.6,3438.2,3439.5,701.9,1368.5,937.3,565.8,1765.6,2292.1,3447.9,3446.7,901.7,1228.4,1600.2,2113.9,1829.4,1101.7,-5.0,-2.0,1.0,4647.0,7271.0,-9781.0,-9915.0,-35.0,28.0,-32.0,-1.0,-6.0,-2.0,12038.0,11049.0,1180.0,-202.0,-37.0,1.0,-5.0,1.0
2022-05-06 11:43:01.564095-07:00,2455.7,734.8,2080.6,1959.8,1316.0,1536.6,1789.7,2176.9,3444.3,3444.3,2420.8,2025.4,1591.7,3441.9,1604.9,1955.8,3434.6,3433.4,705.2,1361.2,932.2,561.8,1754.1,2276.5,3444.3,3444.3,903.4,1215.1,1597.4,2134.1,1856.7,1099.9,45.0,13.0,-22.0,4630.0,7378.0,-9701.0,-9922.0,-137.0,272.0,-307.0,-5.0,-4.0,-17.0,12095.0,10989.0,1164.0,-209.0,-195.0,-66.0,21.0,1.0
2022-05-06 11:43:01.593288-07:00,2455.7,734.8,2080.6,1960.8,1316.0,1532.9,1752.1,2148.3,3444.3,3444.3,2420.8,2030.4,1591.7,3440.7,1677.6,1950.9,3441.9,3439.5,705.2,1361.2,928.8,561.8,1754.1,2276.5,3447.9,3439.5,897.4,1215.1,1606.8,2134.1,1856.7,1099.9,-47.0,-12.0,-72.0,4712.0,7481.0,-9495.0,-10006.0,-449.0,38.0,-212.0,-11.0,-20.0,-4.0,12211.0,10863.0,1122.0,-231.0,-467.0,-160.0,38.0,1.0
2022-05-06 11:43:01.595788-07:00,2578.8,723.3,2308.7,1960.8,1287.3,1532.9,1752.1,2148.3,3435.8,3439.5,2458.9,2030.4,1568.3,3440.7,1677.6,1950.9,3441.9,3439.5,705.2,1355.8,928.8,561.0,1742.6,2327.4,3447.9,3439.5,897.4,1231.9,1606.8,2201.4,2176.9,1097.3,80.0,62.0,39.0,4671.0,7479.0,-9336.0,-10174.0,-428.0,-195.0,-486.0,-12.0,17.0,-36.0,12377.0,10680.0,1047.0,-269.0,-672.0,-275.0,23.0,1.0
2022-05-06 11:43:01.654031-07:00,2578.8,723.3,2308.7,1949.9,1287.3,1553.4,1718.6,2091.6,3435.8,3439.5,2458.9,2044.4,1568.3,3439.5,1721.5,1913.4,3439.5,3428.6,709.3,1355.8,933.0,561.0,1742.6,2327.4,3445.5,3440.7,891.5,1231.9,1570.2,2201.4,2176.9,1097.3,-126.0,-163.0,0.0,4802.0,7630.0,-8859.0,-10425.0,-1410.0,622.0,-684.0,13.0,-89.0,108.0,12608.0,10411.0,993.0,-294.0,-735.0,-44.0,-30.0,1.0
2022-05-06 11:43:01.743417-07:00,2577.7,715.1,2081.6,1882.0,1255.1,1553.4,1718.6,2091.6,3440.7,3435.8,3242.3,2313.9,1563.7,3439.5,1721.5,1913.4,3439.5,3428.6,709.3,1355.8,927.1,561.0,1739.7,2442.0,3445.5,3440.7,891.5,1248.8,1564.6,2118.9,2075.5,1096.4,-20.0,63.0,31.0,4867.0,7709.0,-8672.0,-10494.0,196.0,276.0,-30.0,13.0,27.0,-13.0,12653.0,10356.0,993.0,-297.0,31.0,19.0,3.0,1.0
2022-05-06 11:43:01.744778-07:00,2577.7,715.1,2081.6,1882.0,1253.3,1520.8,1707.2,2064.5,3440.7,3435.8,3242.3,2313.9,1586.1,3438.2,1718.6,1893.8,3440.7,3449.1,705.2,1354.9,927.1,561.0,1739.7,2442.0,3438.2,3445.5,876.4,1241.7,1564.6,2118.9,2075.5,1096.4,24.0,-41.0,-81.0,4801.0,7828.0,-8751.0,-10369.0,586.0,125.0,-156.0,7.0,32.0,-21.0,12622.0,10391.0,1028.0,-289.0,116.0,80.0,-48.0,1.0
2022-05-06 11:43:01.803858-07:00,2568.0,715.9,1974.6,1849.8,1253.3,1520.8,1707.2,2064.5,3443.1,3446.7,2639.5,2091.6,1586.1,3438.2,1718.6,1893.8,3440.7,3449.1,705.2,1354.9,928.8,556.2,1738.7,2520.8,3438.2,3445.5,876.4,1241.7,1544.1,2074.5,1998.5,1095.6,7.0,17.0,80.0,4563.0,7926.0,-8954.0,-10228.0,300.0,-309.0,-127.0,10.0,79.0,-39.0,12624.0,10387.0,1037.0,-304.0,-161.0,-13.0,-31.0,1.0
2022-05-06 11:43:01.893238-07:00,2568.0,715.9,1974.6,1849.8,1229.3,1494.9,1702.4,2045.4,3443.1,3446.7,2639.5,2091.6,1572.1,3441.9,1581.4,1827.5,3440.7,3435.8,706.0,1345.8,928.8,556.2,1738.7,2520.8,3444.3,3439.5,848.6,1318.7,1544.1,2074.5,1998.5,1095.6,-19.0,92.0,22.0,4436.0,7937.0,-9027.0,-10212.0,492.0,-215.0,-80.0,-5.0,1.0,26.0,12649.0,10358.0,1030.0,-300.0,22.0,18.0,-5.0,1.0
2022-05-06 11:43:01.983451-07:00,2577.7,719.2,1914.4,1811.9,1229.3,1494.9,1702.4,2045.4,3449.1,3446.7,2248.7,1984.6,1572.1,3441.9,1581.4,1827.5,3440.7,3435.8,706.0,1345.8,932.2,562.6,1802.3,2515.4,3444.3,3439.5,848.6,1318.7,1558.1,2059.4,1987.5,1098.2,40.0,-29.0,-28.0,4240.0,8009.0,-9079.0,-10192.0,193.0,-91.0,-469.0,-3.0,21.0,-20.0,12648.0,10359.0,1035.0,-300.0,-52.0,7.0,-15.0,1.0
2022-05-06 11:43:02.043254-07:00,2577.7,719.2,1914.4,1811.9,1218.6,1687.2,1711.0,2063.5,3449.1,3446.7,2248.7,1984.6,1559.0,3434.6,1362.1,1761.8,3445.5,3439.5,701.9,1351.2,932.2,562.6,1802.3,2515.4,3444.3,3449.1,865.4,3466.1,1558.1,2059.4,1987.5,1098.2,-100.0,-161.0,-67.0,4133.0,8089.0,-8985.0,-10256.0,133.0,-123.0,-228.0,-9.0,-77.0,53.0,12654.0,10352.0,1033.0,-283.0,161.0,23.0,77.0,1.0
2022-05-06 11:43:02.313321-07:00,2666.8,742.2,1834.3,1814.9,1218.6,1687.2,1711.0,2109.8,3449.1,3446.7,2094.7,1933.1,1559.0,3434.6,1362.1,1714.8,3443.1,3439.5,701.9,1351.2,936.4,564.2,1829.4,2411.3,3445.5,3449.1,865.4,3466.1,1561.8,1963.7,1847.9,1094.7,7.0,42.0,-65.0,3913.0,7984.0,-9183.0,-10249.0,502.0,-634.0,-41.0,-12.0,8.0,-26.0,12641.0,10374.0,976.0,-258.0,-76.0,-92.0,136.0,1.0
2022-05-06 11:43:02.314717-07:00,2792.3,742.2,1834.3,1814.9,1226.6,1809.0,1694.8,2109.8,3440.7,3446.7,2094.7,1933.1,1559.9,3449.1,1248.8,1714.8,3443.1,3441.9,709.3,1361.2,936.4,564.2,1829.4,2363.0,3445.5,3449.1,885.6,1581.4,1561.8,1963.7,1847.9,1099.0,-132.0,84.0,120.0,3665.0,7917.0,-9316.0,-10273.0,811.0,-377.0,-21.0,28.0,-66.0,128.0,12613.0,10414.0,923.0,-229.0,579.0,65.0,85.0,1.0
2022-05-06 11:43:02.315752-07:00,2792.3,776.1,1662.5,1748.3,1226.6,1809.0,1694.8,1861.5,3440.7,3447.9,2049.4,1919.3,1559.9,3449.1,1248.8,1704.3,3439.5,3441.9,709.3,1361.2,933.9,562.6,1978.6,2363.0,3438.2,3449.1,885.6,1581.4,1539.4,1884.0,1701.4,1099.0,-34.0,7.0,-27.0,3538.0,7869.0,-9551.0,-10138.0,450.0,-183.0,206.0,-13.0,11.0,-29.0,12507.0,10540.0,928.0,-202.0,298.0,27.0,74.0,1.0
2022-05-06 11:43:02.316889-07:00,2745.8,776.1,1662.5,1748.3,1216.0,1790.7,1585.2,1861.5,3449.1,3447.9,2049.4,1919.3,1546.9,3433.4,1254.2,1704.3,3439.5,3434.6,705.2,1379.4,933.9,562.6,1978.6,2325.4,3438.2,3444.3,873.8,1560.9,1539.4,1884.0,1701.4,1092.1,-18.0,101.0,17.0,3371.0,7838.0,-9849.0,-9932.0,1054.0,-128.0,273.0,-10.0,30.0,2.0,12329.0,10750.0,910.0,-186.0,580.0,35.0,49.0,1.0
2022-05-06 11:43:02.403467-07:00,2745.8,793.5,1624.7,1738.7,1216.0,1790.7,1585.2,1687.2,3449.1,3441.9,2013.4,1909.5,1546.9,3433.4,1254.2,1694.8,3441.9,3434.6,705.2,1379.4,932.2,565.0,1935.1,2325.4,3443.1,3444.3,873.8,1560.9,1543.1,1859.6,1664.4,1092.1,-13.0,-55.0,-67.0,3271.0,7877.0,-10022.0,-9760.0,278.0,109.0,12.0,-2.0,2.0,1.0,12241.0,10850.0,918.0,-176.0,176.0,61.0,9.0,1.0
2022-05-06 11:43:02.433843-07:00,-17.0,-57.0,10.0,3227.0,7854.0,-10086.0,-9727.0,-86.0,21.0,16.0,-2.0,-46.0,33.0,12233.0,10860.0,903.0,-176.0,49.0,18.0,-3.0,1.0,1.0,18.0,7.0,3231.0,7857.0,-10108.0,-9700.0,36.0,60.0,-10.0,-1.0,-14.0,9.0,12226.0,10869.0,899.0,-173.0,7.0,-2.0,-1.0,1.0,-11.0,1.0,-8.0,12211.0,10885.0,910.0,-174.0,71.0,27.0,-5.0,1.0
2022-05-06 11:43:02.553429-07:00,2665.7,772.0,1592.7,1717.7,1190.3,1709.1,1425.9,1605.8,3437.0,3444.3,1972.7,1878.1,1537.6,3445.5,1231.9,1671.0,3434.6,3440.7,703.6,1392.1,939.8,565.8,1903.6,2293.1,3443.1,3440.7,863.7,1509.7,1526.4,1836.2,1633.1,1088.6,-4.0,-28.0,-2.0,3227.0,7880.0,-10103.0,-9688.0,43.0,26.0,8.0,-7.0,14.0,-12.0,12225.0,10870.0,895.0,-177.0,-167.0,-78.0,27.0,1.0
2022-05-06 11:43:02.583052-07:00,2648.2,765.3,1592.7,1717.7,1191.2,1711.0,1425.9,1605.8,3438.2,3435.8,1972.7,1878.1,1537.6,3447.9,1231.9,1671.0,3434.6,3440.7,706.0,1393.9,939.8,565.8,1884.0,2264.1,3443.1,3440.7,862.9,1500.4,1526.4,1836.2,1620.9,1091.2,6.0,18.0,-17.0,3241.0,7849.0,-10128.0,-9682.0,-20.0,-58.0,82.0,-16.0,-21.0,3.0,12246.0,10847.0,878.0,-181.0,46.0,-31.0,23.0,1.0
2022-05-06 11:43:02.733417-07:00,2648.2,765.3,1584.2,1711.9,1191.2,1698.6,1433.2,1610.5,3438.2,3435.8,1962.8,1872.3,1537.6,3440.7,1247.1,1674.8,3437.0,3433.4,702.8,1393.9,932.2,564.2,1884.0,2264.1,3445.5,3446.7,860.4,1500.4,1520.8,1822.6,1620.9,1091.2,-27.0,-42.0,18.0,3235.0,7823.0,-10132.0,-9701.0,75.0,-133.0,59.0,-1.0,10.0,-17.0,12244.0,10851.0,850.0,-185.0,-80.0,-54.0,39.0,1.0
2022-05-06 11:43:02.735039-07:00,2651.5,757.1,1573.9,1711.9,1176.2,1698.6,1433.2,1610.5,3443.1,3449.1,2122.0,1872.3,1524.5,3440.7,1247.1,1674.8,3437.0,3433.4,702.8,1382.1,932.2,562.6,1978.6,2257.9,3445.5,3446.7,860.4,1484.7,1520.8,1818.7,1617.1,1093.8,12.0,29.0,24.0,3215.0,7798.0,-10213.0,-9643.0,161.0,101.0,146.0,-3.0,-25.0,21.0,12240.0,10857.0,845.0,-183.0,242.0,61.0,-13.0,1.0
2022-05-06 11:43:02.764122-07:00,2651.5,757.1,1573.9,1711.9,1176.2,1714.8,1477.3,1773.3,3443.1,3449.1,2122.0,1894.8,1524.5,3433.4,1414.0,1699.5,3435.8,3437.0,705.2,1382.1,927.9,562.6,1978.6,2257.9,3449.1,3438.2,850.3,1484.7,1513.4,1818.7,1617.1,1093.8,-67.0,-61.0,70.0,3337.0,7828.0,-10206.0,-9585.0,-58.0,410.0,201.0,-8.0,-17.0,-18.0,12140.0,10966.0,883.0,-170.0,359.0,17.0,-40.0,1.0
2022-05-06 11:43:02.765086-07:00,2691.9,747.2,1560.9,1711.9,1180.6,1714.8,1477.3,1773.3,3439.5,3432.2,2862.7,1894.8,1537.6,3433.4,1414.0,1699.5,3435.8,3437.0,705.2,1371.2,927.9,563.4,2020.4,2287.9,3449.1,3438.2,850.3,1558.1,1513.4,1887.9,1686.2,1098.2,-5.0,-35.0,-176.0,3471.0,7922.0,-10259.0,-9402.0,650.0,208.0,200.0,-10.0,40.0,-8.0,12147.0,10957.0,881.0,-213.0,-442.0,-80.0,-145.0,1.0
2022-05-06 11:43:02.884053-07:00,2691.9,747.2,1560.9,1711.0,1180.6,1739.7,1533.8,1948.9,3439.5,3432.2,2862.7,2026.4,1537.6,3443.1,1824.6,1878.1,3445.5,3438.2,701.9,1371.2,933.0,563.4,2020.4,2287.9,3443.1,3449.1,914.4,1558.1,1512.5,1887.9,1686.2,1098.2,21.0,164.0,-64.0,3445.0,7916.0,-10313.0,-9356.0,-496.0,-122.0,-214.0,-23.0,-49.0,-11.0,12252.0,10836.0,914.0,-266.0,-270.0,10.0,-108.0,1.0
2022-05-06 11:43:02.913980-07:00,2654.7,739.7,1749.3,1711.0,1184.1,1739.7,1533.8,1948.9,3440.7,3439.5,2919.0,2026.4,1547.8,3443.1,1824.6,1878.1,3445.5,3438.2,701.9,1377.5,933.0,561.0,2065.5,2374.5,3443.1,3449.1,914.4,1671.9,1512.5,2119.9,2070.5,1094.7,43.0,-188.0,36.0,3523.0,7782.0,-10110.0,-9656.0,-949.0,-323.0,249.0,-11.0,35.0,-51.0,12347.0,10727.0,919.0,-288.0,-463.0,-142.0,-32.0,1.0
2022-05-06 11:43:02.943333-07:00,2654.7,739.7,1749.3,1753.1,1193.8,1655.8,1501.4,1820.7,3440.7,3439.5,2919.0,2106.8,1573.0,3441.9,1757.0,1970.7,3429.8,3438.2,697.0,1365.7,940.7,561.0,2065.5,2374.5,3439.5,3443.1,894.1,1474.6,1539.4,2119.9,2070.5,1094.7,29.0,191.0,58.0,3696.0,7557.0,-10010.0,-9873.0,-608.0,-207.0,44.0,3.0,-109.0,89.0,12455.0,10602.0,901.0,-316.0,-39.0,73.0,-16.0,1.0
2022-05-06 11:43:02.944569-07:00,2603.7,724.1,2301.4,1985.6,1193.8,1655.8,1501.4,1820.7,3446.7,3428.6,2750.2,2123.0,1573.0,3441.9,1757.0,1970.7,3429.8,3438.2,697.0,1365.7,929.6,561.0,1988.5,2346.2,3439.5,3443.1,894.1,1474.6,1558.1,2205.5,2046.4,1092.9,-28.0,-213.0,139.0,3852.0,7557.0,-9697.0,-10122.0,-1066.0,286.0,-106.0,7.0,0.0,-12.0,12388.0,10676.0,949.0,-281.0,411.0,232.0,-22.0,1.0
2022-05-06 11:43:03.093014-07:00,2603.7,724.1,2301.4,1985.6,1265.8,1643.5,1514.3,1592.7,3446.7,3428.6,2750.2,2123.0,1622.8,3446.7,1716.7,2033.4,3438.2,3440.7,700.3,1360.3,929.6,561.0,1988.5,2346.2,3438.2,3443.1,886.5,1417.6,1558.1,2205.5,2046.4,1092.9,-29.0,3.0,-23.0,4116.0,7493.0,-9554.0,-10201.0,-567.0,171.0,365.0,-8.0,17.0,-49.0,12290.0,10784.0,1020.0,-244.0,146.0,70.0,-37.0,1.0
2022-05-06 11:43:03.094166-07:00,2634.1,707.7,2140.2,2026.4,1265.8,1643.5,1514.3,1592.7,3447.9,3450.4,2604.8,2070.5,1622.8,3446.7,1716.7,2033.4,3438.2,3440.7,700.3,1360.3,929.6,555.4,1909.5,2299.3,3438.2,3443.1,886.5,1417.6,1515.3,2165.6,1959.8,1099.9,15.0,8.0,-66.0,4318.0,7267.0,-9539.0,-10295.0,-543.0,-238.0,628.0,0.0,-2.0,-13.0,12302.0,10769.0,1033.0,-240.0,-238.0,-8.0,17.0,1.0
2022-05-06 11:43:03.123913-07:00,2634.1,707.7,2140.2,2026.4,1324.1,1606.8,1641.6,1786.8,3447.9,3450.4,2604.8,2070.5,1630.3,3434.6,1674.8,2046.4,3439.5,3445.5,695.4,1368.5,929.6,555.4,1909.5,2299.3,3435.8,3449.1,890.7,1307.9,1515.3,2165.6,1959.8,1099.9,44.0,10.0,-63.0,4505.0,6998.0,-9479.0,-10456.0,-563.0,-293.0,291.0,-2.0,-7.0,-4.0,12365.0,10698.0,1018.0,-238.0,-144.0,-55.0,18.0,1.0
2022-05-06 11:43:03.125023-07:00,2776.8,750.5,1998.5,2006.4,1324.1,1606.8,1641.6,2299.3,3441.9,3444.3,2568.0,2059.4,1630.3,3434.6,1674.8,2077.5,3437.0,3445.5,695.4,1368.5,927.1,560.2,1752.1,2299.3,3440.7,3449.1,890.7,1307.9,1532.0,2136.1,1902.6,1096.4,24.0,31.0,34.0,4510.0,6842.0,-9485.0,-10551.0,-100.0,-291.0,117.0,-6.0,-6.0,0.0,12413.0,10643.0,1007.0,-243.0,-198.0,-1.0,-22.0,1.0
2022-05-06 11:43:03.126167-07:00,2611.3,750.5,1998.5,2006.4,1380.3,1563.7,1792.6,2299.3,3438.2,3444.3,2568.0,2059.4,1656.8,3439.5,1622.8,2077.5,3437.0,3435.8,697.9,1359.4,927.1,560.2,1752.1,2292.1,3440.7,3449.1,886.5,1258.7,1532.0,2136.1,1902.6,1092.1,10.0,-2.0,44.0,4527.0,6791.0,-9431.0,-10625.0,-237.0,35.0,-46.0,-6.0,3.0,-9.0,12433.0,10619.0,1015.0,-244.0,48.0,11.0,-16.0,1.0
2022-05-06 11:43:03.243407-07:00,2611.3,765.3,1957.8,1997.5,1380.3,1563.7,1792.6,2228.1,3438.2,3440.7,2522.9,2028.4,1656.8,3439.5,1622.8,2059.4,3439.5,3435.8,697.9,1359.4,924.5,562.6,1681.4,2292.1,3443.1,3449.1,886.5,1258.7,1535.7,2118.9,1862.5,1092.1,2.0,3.0,15.0,4533.0,6791.0,-9428.0,-10625.0,50.0,24.0,15.0,0.0,-8.0,2.0,12433.0,10618.0,1022.0,-246.0,-23.0,17.0,-14.0,1.0
2022-05-06 11:43:03.244863-07:00,2532.5,765.3,1957.8,1997.5,1363.0,1532.9,1770.4,2228.1,3449.1,3440.7,2522.9,2028.4,1628.4,3438.2,1602.1,2059.4,3439.5,3438.2,702.8,1360.3,924.5,562.6,1681.4,2267.2,3443.1,3449.1,902.5,1221.3,1535.7,2118.9,1862.5,1098.2,-18.0,-17.0,-10.0,4550.0,6815.0,-9407.0,-10621.0,-27.0,73.0,-36.0,-8.0,4.0,-20.0,12435.0,10616.0,1031.0,-248.0,-27.0,-13.0,-12.0,1.0
2022-05-06 11:43:03.246309-07:00,2532.5,748.0,1931.1,1967.7,1363.0,1532.9,1770.4,2175.8,3449.1,3446.7,2510.1,2021.4,1628.4,3438.2,1602.1,2055.4,3428.6,3438.2,702.8,1360.3,927.1,563.4,1666.3,2267.2,3444.3,3449.1,902.5,1221.3,1532.0,2103.7,1843.0,1098.2,5.0,18.0,-4.0,4552.0,6827.0,-9401.0,-10617.0,-8.0,18.0,-31.0,-3.0,-13.0,6.0,12450.0,10598.0,1032.0,-257.0,-55.0,-5.0,-18.0,1.0
2022-05-06 11:43:03.303480-07:00,2521.8,748.0,1931.1,1967.7,1335.0,1530.1,1740.6,2175.8,3444.3,3446.7,2510.1,2021.4,1619.9,3439.5,1595.5,2055.4,3428.6,3433.4,693.8,1357.6,927.1,563.4,1666.3,2254.8,3444.3,3440.7,879.7,1215.1,1532.0,2103.7,1843.0,1092.9,-2.0,-12.0,22.0,4551.0,6857.0,-9370.0,-10626.0,-41.0,103.0,-90.0,-7.0,-8.0,-2.0,12453.0,10593.0,1040.0,-257.0,38.0,21.0,-4.0,1.0
2022-05-06 11:43:03.423135-07:00,2521.8,743.0,1915.4,1963.7,1335.0,1530.1,1730.1,2175.8,3444.3,3439.5,2495.1,2007.4,1619.9,3439.5,1581.4,2051.4,3443.1,3446.7,693.8,1357.6,927.1,561.0,1648.3,2254.8,3450.4,3446.7,879.7,1215.1,1530.1,2091.6,1842.0,1092.9,-13.0,-16.0,-11.0,4553.0,6899.0,-9353.0,-10613.0,76.0,39.0,-13.0,-8.0,0.0,-11.0,12446.0,10601.0,1042.0,-257.0,-14.0,-16.0,-6.0,1.0
2022-05-06 11:43:03.483604-07:00,2608.0,746.3,1915.4,1963.7,1325.9,1530.1,1730.1,2175.8,3444.3,3437.0,2495.1,2007.4,1613.4,3445.5,1581.4,2051.4,3443.1,3446.7,699.5,1361.2,927.1,561.0,1636.0,2231.1,3450.4,3446.7,879.7,1214.2,1530.1,2091.6,1817.8,1092.9,-11.0,14.0,-15.0,4541.0,6908.0,-9370.0,-10597.0,2.0,-54.0,-2.0,4.0,-10.0,5.0,12450.0,10597.0,1035.0,-264.0,-28.0,-29.0,2.0,1.0
2022-05-06 11:43:03.485518-07:00,2608.0,746.3,1916.4,1950.9,1325.9,1530.1,1712.9,2129.0,3444.3,3437.0,2491.9,1987.5,1613.4,3445.5,1577.7,2014.4,3433.4,3426.2,699.5,1361.2,927.9,560.2,1636.0,2231.1,3440.7,3440.7,879.7,1214.2,1522.7,2086.6,1817.8,1092.9,-1.0,3.0,5.0,4522.0,6883.0,-9385.0,-10608.0,33.0,-94.0,6.0,-6.0,10.0,-17.0,12456.0,10591.0,1024.0,-276.0,-89.0,-44.0,2.0,1.0
2022-05-06 11:43:03.486770-07:00,2613.4,759.6,1916.4,1950.9,1317.8,1519.0,1712.9,2129.0,3441.9,3439.5,2491.9,1987.5,1597.4,3445.5,1577.7,2014.4,3433.4,3426.2,706.9,1362.1,927.9,560.2,1623.7,2210.6,3440.7,3440.7,875.5,1199.1,1522.7,2086.6,1817.8,1098.2,9.0,23.0,12.0,4479.0,6869.0,-9408.0,-10616.0,-76.0,-57.0,-56.0,-11.0,-6.0,-8.0,12505.0,10534.0,1012.0,-284.0,-259.0,-62.0,-10.0,1.0
