Time,P0,P1,P2,P3,P4,P5,P6,P7,P8,P9,P10,P11,P12,P13,P14,P15,P16,P17,P18,P19,P20,P21,P22,P23,P24,P25,P26,P27,P28,P29,P30,P31,ECG,AX0,AY0,AZ0,QW0,QX0,QY0,QZ0,GX0,GY0,GZ0,AX1,AY1,AZ1,QW1,QX1,QY1,QZ1,GX1,GY1,GZ1
2022-05-06 14:41:34.591246-07:00,1040.1,655.4,984.2,927.9,969.6,702.8,1537.6,1335.0,3472.2,3474.6,1076.4,841.9,1458.9,3466.1,1455.2,1263.1,3484.4,3488.0,304.3,552.2,845.3,1059.1,478.2,1393.0,3480.7,3480.7,631.9,658.7,1661.5,1040.1,973.9,865.4,3.0,14.0,4.0,9167.0,-8713.0,8806.0,-5562.0,8.0,12.0,-5.0,2.0,1.0,3.0,7811.0,-13825.0,3989.0,-619.0,4.0,8.0,3.0,1.0
2022-05-06 14:41:34.593469-07:00,1040.1,655.4,984.2,927.9,979.9,684.8,1530.1,1340.4,3472.2,3474.6,1076.4,841.9,1456.2,3461.3,1452.5,1264.0,3474.6,3483.2,315.9,560.2,845.3,1059.1,478.2,1393.0,3474.6,3474.6,626.2,657.0,1661.5,1040.1,973.9,865.4,8.0,7.0,-10.0,9167.0,-8709.0,8807.0,-5566.0,6.0,3.0,13.0,6.0,8.0,-4.0,7812.0,-13824.0,3989.0,-619.0,4.0,3.0,4.0,1.0
2022-05-06 14:41:34.681056-07:00,1032.3,647.3,994.5,922.0,979.9,684.8,1530.1,1340.4,3473.4,3474.6,1077.3,839.4,1456.2,3461.3,1452.5,1264.0,3474.6,3483.2,315.9,560.2,841.1,1055.6,486.9,1391.2,3474.6,3474.6,626.2,657.0,1653.9,1046.1,979.0,858.7,7.0,7.0,3.0,9166.0,-8708.0,8816.0,-5556.0,11.0,1.0,22.0,5.0,-3.0,6.0,7810.0,-13825.0,3990.0,-618.0,29.0,-6.0,7.0,1.0
2022-05-06 14:41:34.682029-07:00,1032.3,647.3,994.5,922.0,967.1,696.2,1532.9,1339.5,3473.4,3474.6,1077.3,839.4,1447.9,3471.0,1451.6,1264.0,3478.3,3478.3,308.2,550.6,841.1,1055.6,486.9,1391.2,3477.1,3473.4,635.1,653.8,1653.9,1046.1,979.0,858.7,6.0,5.0,-2.0,9167.0,-8707.0,8815.0,-5556.0,-16.0,-3.0,-11.0,5.0,2.0,-1.0,7810.0,-13825.0,3990.0,-618.0,-24.0,-1.0,-5.0,1.0
2022-05-06 14:41:34.771672-07:00,1049.6,649.7,987.6,922.0,967.1,696.2,1532.9,1340.4,3462.5,3468.6,1081.6,840.3,1447.9,3471.0,1451.6,1262.2,3467.4,3478.3,308.2,550.6,842.8,1057.3,480.6,1395.7,3467.4,3473.4,635.1,653.8,1652.0,1040.1,974.8,873.8,4.0,6.0,5.0,9166.0,-8706.0,8820.0,-5553.0,14.0,12.0,16.0,2.0,1.0,2.0,7811.0,-13825.0,3990.0,-618.0,21.0,0.0,8.0,1.0
2022-05-06 14:41:34.772541-07:00,1041.8,649.7,987.6,922.0,976.5,688.9,1532.9,1340.4,3467.4,3468.6,1081.6,840.3,1453.4,3478.3,1454.3,1262.2,3467.4,3477.1,311.3,553.8,842.8,1057.3,480.6,1392.1,3467.4,3480.7,630.3,659.5,1652.0,1040.1,974.8,856.2,3.0,7.0,-4.0,9167.0,-8702.0,8819.0,-5558.0,15.0,-1.0,-13.0,1.0,5.0,0.0,7814.0,-13823.0,3990.0,-619.0,7.0,-1.0,-6.0,1.0
2022-05-06 14:41:34.921784-07:00,1041.8,648.9,985.0,924.5,976.5,688.9,1532.9,1339.5,3467.4,3469.8,1084.2,836.9,1453.4,3478.3,1454.3,1259.6,3472.2,3477.1,311.3,553.8,838.6,1066.9,479.8,1392.1,3480.7,3480.7,630.3,659.5,1664.4,1048.7,975.6,856.2,10.0,-4.0,0.0,9165.0,-8704.0,8820.0,-5557.0,-22.0,12.0,11.0,6.0,-1.0,-3.0,7811.0,-13825.0,3990.0,-618.0,-19.0,-2.0,1.0,1.0
2022-05-06 14:41:34.922732-07:00,1040.1,648.9,985.0,924.5,981.6,692.9,1533.8,1339.5,3471.0,3469.8,1084.2,836.9,1457.1,3468.6,1452.5,1259.6,3472.2,3483.2,305.1,551.4,838.6,1066.9,479.8,1388.5,3480.7,3474.6,635.1,659.5,1664.4,1048.7,975.6,862.1,7.0,13.0,4.0,9169.0,-8704.0,8817.0,-5557.0,15.0,-15.0,-12.0,0.0,8.0,0.0,7816.0,-13822.0,3990.0,-619.0,2.0,-2.0,-6.0,1.0
2022-05-06 14:41:34.981038-07:00,1040.1,649.7,985.0,935.6,981.6,692.9,1533.8,1340.4,3471.0,3479.5,1081.6,842.8,1457.1,3468.6,1452.5,1256.0,3469.8,3483.2,305.1,551.4,841.9,1065.1,479.8,1388.5,3478.3,3474.6,635.1,659.5,1661.5,1045.2,973.1,862.1,10.0,-4.0,3.0,9170.0,-8705.0,8812.0,-5560.0,21.0,-8.0,-3.0,5.0,0.0,-4.0,7818.0,-13820.0,3990.0,-620.0,22.0,2.0,1.0,1.0
2022-05-06 14:41:35.011051-07:00,1042.6,653.0,985.0,935.6,981.6,694.6,1526.4,1340.4,3466.1,3473.4,1081.6,842.8,1455.2,3473.4,1460.8,1256.0,3469.8,3483.2,305.1,553.0,841.9,1065.1,479.8,1388.5,3478.3,3480.7,632.7,649.7,1661.5,1045.2,973.1,859.5,8.0,9.0,9.0,9170.0,-8705.0,8814.0,-5557.0,-22.0,3.0,7.0,2.0,3.0,-1.0,7817.0,-13821.0,3990.0,-620.0,-11.0,8.0,-1.0,1.0
2022-05-06 14:41:35.041072-07:00,1042.6,653.0,989.3,921.1,981.6,694.6,1529.2,1325.0,3466.1,3473.4,1082.5,838.6,1455.2,3473.4,1457.1,1258.7,3473.4,3472.2,305.1,553.0,843.6,1059.9,479.8,1388.5,3478.3,3479.5,632.7,649.7,1657.7,1047.0,973.1,859.5,4.0,-3.0,-4.0,9161.0,-8705.0,8824.0,-5557.0,-31.0,43.0,21.0,3.0,6.0,-6.0,7812.0,-13824.0,3990.0,-618.0,-37.0,9.0,4.0,1.0
2022-05-06 14:41:35.070994-07:00,1040.1,648.1,989.3,921.1,970.5,692.1,1529.2,1325.0,3457.6,3473.4,1082.5,838.6,1452.5,3472.2,1457.1,1258.7,3473.4,3472.2,305.9,551.4,843.6,1059.9,481.4,1395.7,3478.3,3479.5,629.5,653.8,1657.7,1047.0,977.3,855.3,11.0,17.0,4.0,9164.0,-8696.0,8830.0,-5555.0,23.0,6.0,21.0,5.0,6.0,-1.0,7815.0,-13822.0,3992.0,-618.0,9.0,-4.0,10.0,1.0
2022-05-06 14:41:35.131914-07:00,1040.1,648.1,990.2,920.3,970.5,692.1,1525.5,1329.6,3457.6,3473.4,1079.9,845.3,1452.5,3472.2,1451.6,1258.7,3469.8,3472.2,305.9,551.4,847.0,1057.3,481.4,1395.7,3471.0,3481.9,629.5,653.8,1668.2,1042.6,977.3,855.3,7.0,0.0,0.0,9161.0,-8695.0,8834.0,-5556.0,-6.0,12.0,4.0,0.0,-3.0,-4.0,7812.0,-13823.0,3992.0,-617.0,0.0,0.0,0.0,1.0
2022-05-06 14:41:35.220983-07:00,1035.7,653.8,990.2,920.3,981.6,692.1,1525.5,1329.6,3472.2,3474.6,1079.9,845.3,1456.2,3474.6,1451.6,1258.7,3469.8,3472.2,309.7,554.6,847.0,1057.3,473.5,1392.1,3471.0,3481.9,627.0,662.7,1668.2,1042.6,976.5,861.2,8.0,2.0,2.0,9161.0,-8695.0,8834.0,-5556.0,7.0,7.0,-3.0,0.0,1.0,-3.0,7812.0,-13823.0,3992.0,-617.0,7.0,2.0,-2.0,1.0
2022-05-06 14:41:35.311120-07:00,1035.7,653.8,992.7,925.4,981.6,692.1,1540.3,1338.6,3472.2,3474.6,1088.6,844.4,1456.2,3474.6,1457.1,1259.6,3483.2,3466.1,309.7,554.6,837.7,1066.0,473.5,1392.1,3474.6,3472.2,627.0,662.7,1661.5,1049.6,976.5,861.2,9.0,1.0,4.0,9161.0,-8695.0,8834.0,-5557.0,-11.0,-8.0,8.0,3.0,3.0,-2.0,7813.0,-13823.0,3992.0,-617.0,-9.0,-3.0,2.0,1.0
2022-05-06 14:41:35.312662-07:00,1045.2,651.4,985.0,925.4,973.1,691.3,1540.3,1338.6,3478.3,3466.1,1083.4,844.4,1453.4,3468.6,1457.1,1259.6,3483.2,3466.1,312.0,552.2,837.7,1060.8,479.0,1389.4,3474.6,3472.2,636.7,661.1,1661.5,1046.1,970.5,857.9,9.0,12.0,0.0,9164.0,-8691.0,8832.0,-5560.0,11.0,5.0,-7.0,3.0,11.0,-5.0,7818.0,-13820.0,3992.0,-619.0,-2.0,4.0,1.0,1.0
2022-05-06 14:41:35.370915-07:00,1045.2,651.4,985.0,924.5,973.1,696.2,1540.3,1333.2,3478.3,3466.1,1083.4,840.3,1453.4,3471.0,1460.8,1267.6,3483.2,3474.6,312.0,552.2,841.1,1060.8,479.0,1389.4,3484.4,3479.5,633.5,661.1,1663.4,1046.1,970.5,857.9,3.0,2.0,-3.0,9161.0,-8689.0,8835.0,-5564.0,-7.0,9.0,9.0,2.0,0.0,-2.0,7818.0,-13820.0,3992.0,-619.0,-4.0,-1.0,6.0,1.0
2022-05-06 14:41:35.371869-07:00,1045.2,655.4,985.0,924.5,974.8,696.2,1540.3,1333.2,3472.2,3467.4,1079.0,840.3,1447.9,3471.0,1460.8,1267.6,3483.2,3474.6,312.0,553.8,841.1,1065.1,478.2,1392.1,3484.4,3479.5,633.5,657.0,1663.4,1044.4,969.6,865.4,5.0,10.0,-2.0,9163.0,-8689.0,8834.0,-5562.0,10.0,-13.0,-9.0,0.0,4.0,0.0,7819.0,-13820.0,3992.0,-619.0,15.0,-2.0,-3.0,1.0
2022-05-06 14:41:35.460986-07:00,1045.2,655.4,985.0,922.0,974.8,692.9,1529.2,1333.2,3472.2,3467.4,1079.0,845.3,1447.9,3464.9,1446.0,1264.9,3483.2,3467.4,308.2,553.8,844.4,1065.1,478.2,1392.1,3474.6,3483.2,631.1,657.0,1655.8,1044.4,969.6,865.4,4.0,0.0,3.0,9165.0,-8689.0,8832.0,-5562.0,2.0,-5.0,4.0,3.0,1.0,2.0,7821.0,-13818.0,3992.0,-620.0,0.0,-8.0,-4.0,1.0
2022-05-06 14:41:35.520943-07:00,1045.2,661.1,990.2,922.0,974.8,692.9,1529.2,1333.2,3479.5,3468.6,1086.0,845.3,1447.9,3464.9,1446.0,1264.9,3483.2,3467.4,308.2,549.8,844.4,1058.2,477.4,1393.9,3474.6,3483.2,631.1,653.0,1655.8,1049.6,976.5,859.5,7.0,5.0,9.0,9166.0,-8690.0,8831.0,-5561.0,6.0,1.0,-7.0,3.0,1.0,0.0,7822.0,-13818.0,3992.0,-620.0,10.0,1.0,-2.0,1.0
2022-05-06 14:41:35.551818-07:00,1045.2,661.1,990.2,927.1,971.3,690.5,1538.5,1324.1,3479.5,3468.6,1086.0,839.4,1455.2,3466.1,1460.8,1257.8,3480.7,3477.1,309.0,553.0,841.1,1058.2,477.4,1393.9,3474.6,3483.2,627.8,656.2,1658.7,1049.6,976.5,859.5,5.0,-3.0,2.0,9162.0,-8688.0,8836.0,-5562.0,-11.0,18.0,11.0,0.0,-4.0,-5.0,7822.0,-13818.0,3992.0,-620.0,-15.0,5.0,7.0,1.0
2022-05-06 14:41:35.640994-07:00,1035.7,653.8,983.3,922.0,971.3,690.5,1538.5,1324.1,3471.0,3475.9,1079.9,836.9,1455.2,3466.1,1460.8,1257.8,3480.7,3477.1,309.0,553.0,842.8,1057.3,482.2,1386.6,3474.6,3483.2,627.8,656.2,1657.7,1048.7,974.8,858.7,7.0,9.0,-4.0,9162.0,-8688.0,8838.0,-5560.0,7.0,1.0,-2.0,1.0,9.0,-5.0,7821.0,-13818.0,3992.0,-619.0,4.0,2.0,-5.0,1.0
2022-05-06 14:41:35.642110-07:00,1035.7,653.8,983.3,922.0,977.3,699.5,1532.9,1330.5,3471.0,3475.9,1079.9,836.9,1448.8,3468.6,1447.0,1260.4,3478.3,3467.4,307.4,549.8,842.8,1057.3,482.2,1386.6,3488.0,3469.8,628.6,658.7,1657.7,1048.7,974.8,858.7,9.0,2.0,3.0,9164.0,-8688.0,8836.0,-5559.0,13.0,-13.0,0.0,5.0,4.0,-5.0,7822.0,-13818.0,3992.0,-619.0,17.0,-6.0,-3.0,1.0
2022-05-06 14:41:35.791346-07:00,1041.8,654.6,983.3,924.5,977.3,699.5,1532.9,1330.5,3483.2,3475.9,1083.4,837.7,1448.8,3468.6,1447.0,1260.4,3478.3,3467.4,307.4,549.8,838.6,1060.8,481.4,1390.3,3488.0,3469.8,628.6,658.7,1655.8,1046.1,972.2,862.1,8.0,2.0,10.0,9165.0,-8689.0,8834.0,-5558.0,-10.0,6.0,-1.0,1.0,0.0,-3.0,7823.0,-13817.0,3992.0,-619.0,-14.0,-3.0,-1.0,1.0
2022-05-06 14:41:35.792608-07:00,1041.8,654.6,983.3,924.5,978.2,690.5,1529.2,1338.6,3483.2,3475.9,1083.4,837.7,1450.6,3467.4,1453.4,1269.4,3481.9,3475.9,309.0,553.8,838.6,1060.8,481.4,1390.3,3480.7,3480.7,629.5,653.8,1655.8,1046.1,972.2,862.1,8.0,6.0,4.0,9164.0,-8685.0,8836.0,-5563.0,9.0,22.0,7.0,6.0,3.0,0.0,7827.0,-13815.0,3991.0,-620.0,17.0,8.0,6.0,1.0
2022-05-06 14:41:35.793325-07:00,1044.4,653.8,990.2,932.2,978.2,690.5,1529.2,1324.1,3467.4,3474.6,1079.9,838.6,1450.6,3467.4,1453.4,1256.0,3474.6,3475.9,309.0,553.8,837.7,1053.9,480.6,1391.2,3479.5,3480.7,629.5,653.8,1655.8,1034.0,973.9,855.3,10.0,3.0,1.0,9160.0,-8685.0,8840.0,-5564.0,8.0,0.0,-3.0,1.0,5.0,-6.0,7824.0,-13816.0,3993.0,-620.0,1.0,6.0,5.0,1.0
2022-05-06 14:41:35.881824-07:00,1044.4,653.8,990.2,932.2,972.2,692.1,1532.0,1324.1,3474.6,3474.6,1079.9,838.6,1453.4,3472.2,1455.2,1256.0,3474.6,3483.2,305.9,557.0,837.7,1053.9,480.6,1387.5,3479.5,3479.5,627.0,653.0,1655.8,1034.0,973.9,857.9,8.0,6.0,-6.0,9159.0,-8682.0,8841.0,-5568.0,-11.0,6.0,9.0,1.0,8.0,-7.0,7825.0,-13816.0,3993.0,-620.0,-2.0,-1.0,2.0,1.0
2022-05-06 14:41:35.882521-07:00,1044.4,653.0,983.3,933.0,972.2,692.1,1532.0,1330.5,3474.6,3468.6,1079.9,837.7,1453.4,3472.2,1455.2,1258.7,3480.7,3483.2,305.9,557.0,845.3,1059.1,480.6,1387.5,3483.2,3479.5,627.0,653.0,1661.5,1042.6,968.8,857.9,8.0,11.0,0.0,9162.0,-8683.0,8838.0,-5567.0,12.0,-32.0,-18.0,1.0,7.0,-1.0,7826.0,-13815.0,3992.0,-620.0,11.0,-5.0,-8.0,1.0
2022-05-06 14:41:35.941751-07:00,1044.4,653.0,983.3,933.0,985.9,694.6,1525.5,1330.5,3467.4,3468.6,1079.9,837.7,1452.5,3472.2,1454.3,1258.7,3480.7,3474.6,309.0,557.0,845.3,1059.1,480.6,1384.8,3483.2,3485.6,635.1,653.8,1661.5,1042.6,968.8,862.1,10.0,-5.0,8.0,9167.0,-8690.0,8828.0,-5564.0,-2.0,-7.0,3.0,6.0,3.0,-2.0,7827.0,-13816.0,3989.0,-619.0,3.0,-4.0,-6.0,1.0
2022-05-06 14:41:36.001017-07:00,1044.4,653.0,985.9,930.5,985.9,694.6,1525.5,1335.9,3467.4,3474.6,1080.8,845.3,1452.5,3472.2,1454.3,1257.8,3479.5,3474.6,309.0,557.0,845.3,1064.3,475.8,1384.8,3480.7,3485.6,635.1,653.8,1619.9,1046.1,974.8,862.1,8.0,5.0,16.0,9167.0,-8689.0,8830.0,-5562.0,8.0,7.0,-5.0,0.0,0.0,5.0,7827.0,-13816.0,3989.0,-619.0,0.0,7.0,6.0,1.0
2022-05-06 14:41:36.031043-07:00,1047.8,653.0,985.9,930.5,973.9,697.0,1528.3,1335.9,3467.4,3474.6,1080.8,845.3,1450.6,3471.0,1455.2,1257.8,3479.5,3477.1,309.0,554.6,845.3,1064.3,475.8,1386.6,3480.7,3478.3,631.1,653.8,1619.9,1046.1,974.8,859.5,8.0,0.0,-6.0,9167.0,-8689.0,8829.0,-5563.0,-14.0,5.0,2.0,3.0,4.0,-8.0,7827.0,-13815.0,3991.0,-622.0,-7.0,10.0,2.0,1.0
2022-05-06 14:41:36.121179-07:00,1047.8,654.6,989.3,920.3,973.9,697.0,1528.3,1338.6,3467.4,3473.4,1080.8,836.1,1450.6,3471.0,1455.2,1256.0,3472.2,3477.1,309.0,554.6,845.3,1060.8,479.8,1386.6,3478.3,3478.3,631.1,653.8,1656.8,1046.1,977.3,859.5,11.0,16.0,2.0,9168.0,-8687.0,8832.0,-5561.0,-19.0,9.0,14.0,2.0,9.0,-5.0,7828.0,-13815.0,3991.0,-622.0,8.0,-3.0,6.0,1.0
2022-05-06 14:41:36.122488-07:00,1043.5,655.4,989.3,920.3,973.1,691.3,1528.3,1338.6,3473.4,3473.4,1080.8,836.1,1453.4,3460.1,1455.2,1256.0,3472.2,3477.1,305.1,558.6,845.3,1060.8,473.5,1387.5,3478.3,3478.3,629.5,664.4,1656.8,1046.1,979.0,854.5,7.0,-5.0,0.0,9165.0,-8692.0,8832.0,-5558.0,18.0,-10.0,-11.0,0.0,1.0,-8.0,7824.0,-13817.0,3991.0,-621.0,2.0,-1.0,-4.0,1.0
2022-05-06 14:41:36.241031-07:00,1043.5,655.4,981.6,925.4,973.1,691.3,1519.9,1325.9,3473.4,3473.4,1082.5,838.6,1453.4,3460.1,1447.0,1260.4,3480.7,3472.2,305.1,558.6,846.1,1063.4,473.5,1387.5,3473.4,3464.9,629.5,664.4,1654.9,1045.2,979.0,854.5,10.0,4.0,4.0,9168.0,-8690.0,8829.0,-5560.0,-10.0,-5.0,1.0,5.0,0.0,-1.0,7828.0,-13815.0,3991.0,-622.0,-8.0,-6.0,-4.0,1.0
2022-05-06 14:41:36.242966-07:00,1048.7,649.7,981.6,925.4,974.8,693.8,1519.9,1325.9,3475.9,3466.1,1082.5,838.6,1451.6,3471.0,1447.0,1260.4,3480.7,3472.2,302.0,551.4,846.1,1063.4,476.6,1393.0,3473.4,3464.9,629.5,654.6,1654.9,1045.2,971.3,858.7,8.0,11.0,8.0,9171.0,-8687.0,8827.0,-5563.0,12.0,9.0,6.0,0.0,4.0,1.0,7830.0,-13814.0,3991.0,-623.0,9.0,-1.0,1.0,1.0
2022-05-06 14:41:36.270967-07:00,1048.7,649.7,984.2,925.4,974.8,693.8,1522.7,1324.1,3475.9,3466.1,1078.2,838.6,1451.6,3471.0,1453.4,1247.1,3475.9,3473.4,302.0,551.4,843.6,1055.6,476.6,1393.0,3473.4,3485.6,629.5,654.6,1654.9,1047.0,971.3,858.7,8.0,4.0,1.0,9172.0,-8686.0,8827.0,-5564.0,11.0,-4.0,10.0,6.0,2.0,0.0,7831.0,-13813.0,3991.0,-623.0,12.0,6.0,5.0,1.0
2022-05-06 14:41:36.331390-07:00,1041.8,659.5,986.7,925.4,976.5,692.1,1522.7,1324.1,3467.4,3466.1,1076.4,838.6,1448.8,3469.8,1453.4,1247.1,3475.9,3473.4,305.9,553.8,843.6,1059.9,475.8,1387.5,3473.4,3485.6,632.7,652.2,1654.9,1040.1,969.6,855.3,7.0,9.0,1.0,9174.0,-8683.0,8829.0,-5561.0,-1.0,5.0,9.0,2.0,6.0,-1.0,7832.0,-13812.0,3992.0,-622.0,1.0,3.0,6.0,1.0
2022-05-06 14:41:36.420972-07:00,1041.8,659.5,986.7,922.8,976.5,690.5,1530.1,1335.0,3467.4,3466.1,1076.4,841.9,1448.8,3468.6,1446.0,1259.6,3474.6,3464.9,305.1,553.8,836.9,1059.9,475.8,1387.5,3467.4,3477.1,631.1,652.2,1658.7,1040.1,969.6,855.3,9.0,6.0,0.0,9174.0,-8683.0,8829.0,-5561.0,4.0,3.0,0.0,4.0,6.0,-5.0,7831.0,-13813.0,3992.0,-622.0,-1.0,0.0,-2.0,1.0
2022-05-06 14:41:36.422408-07:00,1040.9,648.9,983.3,922.8,973.1,690.5,1530.1,1335.0,3467.4,3468.6,1076.4,841.9,1447.9,3468.6,1446.0,1259.6,3474.6,3464.9,305.1,553.8,836.9,1062.5,482.2,1392.1,3467.4,3477.1,631.1,654.6,1658.7,1051.3,973.9,857.9,10.0,4.0,9.0,9177.0,-8683.0,8826.0,-5560.0,-4.0,-7.0,2.0,6.0,7.0,-4.0,7833.0,-13811.0,3992.0,-623.0,-8.0,-6.0,-3.0,1.0
2022-05-06 14:41:36.481667-07:00,1040.9,648.9,983.3,926.2,973.1,690.5,1525.5,1332.3,3467.4,3468.6,1076.4,844.4,1447.9,3473.4,1448.8,1258.7,3473.4,3474.6,307.4,553.8,848.6,1062.5,482.2,1392.1,3480.7,3479.5,631.9,654.6,1658.7,1051.3,973.9,857.9,10.0,7.0,8.0,9177.0,-8683.0,8826.0,-5560.0,3.0,0.0,-3.0,2.0,6.0,-6.0,7834.0,-13811.0,3992.0,-623.0,6.0,-2.0,0.0,1.0
2022-05-06 14:41:36.571017-07:00,1039.2,648.1,979.9,926.2,977.3,690.5,1525.5,1332.3,3473.4,3474.6,1080.8,844.4,1452.5,3473.4,1448.8,1258.7,3473.4,3474.6,307.4,546.6,848.6,1059.1,483.7,1390.3,3480.7,3479.5,631.9,654.6,1658.7,1040.9,976.5,859.5,9.0,8.0,0.0,9175.0,-8682.0,8829.0,-5562.0,3.0,-1.0,7.0,2.0,2.0,0.0,7836.0,-13810.0,3992.0,-623.0,13.0,1.0,5.0,1.0
2022-05-06 14:41:36.572303-07:00,1039.2,648.1,979.9,923.7,972.2,689.7,1537.6,1333.2,3473.4,3474.6,1080.8,841.9,1456.2,3462.5,1449.7,1256.0,3473.4,3474.6,315.9,552.2,843.6,1059.1,483.7,1390.3,3477.1,3467.4,630.3,654.6,1655.8,1040.9,976.5,859.5,7.0,5.0,-5.0,9174.0,-8682.0,8829.0,-5562.0,-24.0,-10.0,-6.0,4.0,6.0,-9.0,7833.0,-13812.0,3992.0,-622.0,-21.0,2.0,-5.0,1.0
2022-05-06 14:41:36.662086-07:00,1044.4,657.0,984.2,923.7,972.2,689.7,1537.6,1333.2,3471.0,3485.6,1083.4,837.7,1456.2,3462.5,1449.7,1256.0,3473.4,3474.6,315.9,552.2,839.4,1059.1,482.2,1390.3,3477.1,3467.4,630.3,654.6,1649.2,1034.9,971.3,855.3,4.0,3.0,4.0,9175.0,-8685.0,8828.0,-5558.0,5.0,1.0,12.0,2.0,-1.0,1.0,7832.0,-13812.0,3992.0,-622.0,9.0,-1.0,-5.0,1.0
2022-05-06 14:41:36.662853-07:00,1044.4,657.0,984.2,923.7,973.9,697.0,1532.9,1325.9,3471.0,3485.6,1083.4,837.7,1449.7,3457.6,1458.9,1262.2,3477.1,3478.3,303.6,546.6,839.4,1059.1,482.2,1390.3,3473.4,3479.5,631.9,653.0,1649.2,1034.9,971.3,855.3,9.0,4.0,12.0,9172.0,-8688.0,8832.0,-5552.0,-5.0,8.0,1.0,1.0,0.0,5.0,7829.0,-13814.0,3992.0,-621.0,-3.0,7.0,3.0,1.0
2022-05-06 14:41:36.751683-07:00,1045.2,653.8,982.5,922.0,973.9,697.0,1532.9,1325.9,3488.0,3477.1,1076.4,841.1,1449.7,3457.6,1458.9,1262.2,3477.1,3478.3,303.6,546.6,841.9,1054.8,482.2,1389.4,3473.4,3479.5,631.9,653.0,1654.9,1032.3,973.1,856.2,10.0,-4.0,0.0,9172.0,-8685.0,8832.0,-5555.0,13.0,25.0,10.0,1.0,0.0,-8.0,7832.0,-13812.0,3992.0,-622.0,14.0,0.0,8.0,1.0
2022-05-06 14:41:36.871188-07:00,1045.2,653.8,982.5,922.0,977.3,693.8,1526.4,1323.2,3488.0,3477.1,1076.4,841.1,1451.6,3478.3,1456.2,1257.8,3474.6,3477.1,302.8,554.6,841.9,1054.8,482.2,1389.4,3477.1,3473.4,627.0,653.8,1654.9,1032.3,973.1,856.2,10.0,9.0,7.0,9171.0,-8681.0,8839.0,-5554.0,-20.0,5.0,-2.0,3.0,3.0,0.0,7828.0,-13814.0,3993.0,-621.0,-25.0,8.0,4.0,1.0
2022-05-06 14:41:36.872208-07:00,1045.2,650.5,982.5,941.5,977.3,693.8,1526.4,1323.2,3478.3,3474.6,1081.6,842.8,1451.6,3478.3,1456.2,1257.8,3474.6,3477.1,302.8,554.6,848.6,1059.1,480.6,1394.8,3477.1,3473.4,627.0,653.8,1657.7,1034.9,975.6,857.9,5.0,2.0,-2.0,9169.0,-8684.0,8838.0,-5555.0,14.0,1.0,-6.0,1.0,6.0,-7.0,7828.0,-13814.0,3993.0,-621.0,6.0,-1.0,-4.0,1.0
2022-05-06 14:41:36.873199-07:00,1033.2,650.5,982.5,941.5,979.9,697.9,1513.4,1329.6,3478.3,3474.6,1081.6,842.8,1449.7,3473.4,1440.5,1259.6,3488.0,3471.0,311.3,549.0,848.6,1059.1,480.6,1385.7,3477.1,3473.4,624.6,660.3,1657.7,1034.9,975.6,859.5,10.0,6.0,8.0,9172.0,-8683.0,8835.0,-5556.0,-10.0,-16.0,1.0,8.0,0.0,2.0,7829.0,-13813.0,3993.0,-622.0,3.0,-8.0,-2.0,1.0
2022-05-06 14:41:36.991078-07:00,1033.2,652.2,994.5,921.1,979.9,697.9,1513.4,1321.4,3478.3,3474.6,1081.6,841.9,1449.7,3473.4,1440.5,1250.6,3475.9,3471.0,311.3,549.0,841.9,1066.9,480.6,1385.7,3472.2,3473.4,624.6,660.3,1660.6,1049.6,979.0,859.5,4.0,-3.0,11.0,9172.0,-8684.0,8835.0,-5553.0,10.0,-3.0,-3.0,4.0,0.0,-2.0,7828.0,-13814.0,3993.0,-622.0,7.0,1.0,2.0,1.0
2022-05-06 14:41:36.993062-07:00,1037.5,652.2,994.5,921.1,968.8,692.1,1517.1,1321.4,3483.2,3474.6,1081.6,841.9,1447.9,3469.8,1451.6,1250.6,3475.9,3475.9,309.0,557.0,841.9,1066.9,480.6,1384.8,3472.2,3479.5,634.3,655.4,1660.6,1049.6,979.0,858.7,9.0,5.0,0.0,9175.0,-8681.0,8833.0,-5556.0,-13.0,3.0,1.0,4.0,1.0,-4.0,7831.0,-13812.0,3993.0,-622.0,-10.0,1.0,0.0,1.0
2022-05-06 14:41:37.051619-07:00,1037.5,657.9,991.0,927.9,968.8,692.1,1517.1,1334.1,3483.2,3472.2,1084.2,841.9,1447.9,3469.8,1451.6,1266.7,3480.7,3475.9,309.0,557.0,837.7,1063.4,486.9,1384.8,3478.3,3479.5,634.3,655.4,1655.8,1051.3,970.5,858.7,7.0,5.0,6.0,9175.0,-8681.0,8835.0,-5554.0,21.0,2.0,12.0,3.0,0.0,2.0,7830.0,-13813.0,3993.0,-622.0,21.0,-4.0,5.0,1.0
2022-05-06 14:41:37.111094-07:00,1049.6,657.9,991.0,927.9,980.7,685.6,1521.8,1334.1,3471.0,3472.2,1084.2,841.9,1450.6,3473.4,1453.4,1266.7,3480.7,3472.2,305.1,549.0,837.7,1063.4,486.9,1392.1,3478.3,3475.9,635.1,651.4,1655.8,1051.3,970.5,861.2,7.0,3.0,0.0,9177.0,-8679.0,8834.0,-5555.0,-1.0,3.0,-9.0,4.0,2.0,0.0,7834.0,-13811.0,3993.0,-623.0,-2.0,1.0,-2.0,1.0
2022-05-06 14:41:37.141042-07:00,1049.6,651.4,978.2,927.9,980.7,685.6,1517.1,1338.6,3471.0,3475.9,1079.9,841.9,1450.6,3473.4,1446.0,1259.6,3473.4,3477.1,305.1,549.0,859.5,1058.2,482.2,1392.1,3475.9,3481.9,635.1,651.4,1655.8,1038.3,973.1,861.2,10.0,5.0,6.0,9176.0,-8678.0,8835.0,-5556.0,11.0,9.0,5.0,1.0,0.0,0.0,7834.0,-13811.0,3993.0,-623.0,9.0,-2.0,6.0,1.0
2022-05-06 14:41:37.200983-07:00,1040.9,650.5,978.2,927.9,974.8,691.3,1517.1,1338.6,3466.1,3477.1,1079.9,841.9,1457.1,3473.4,1446.0,1259.6,3473.4,3477.1,304.3,562.6,859.5,1058.2,481.4,1383.9,3475.9,3481.9,629.5,661.9,1655.8,1038.3,970.5,851.1,10.0,3.0,3.0,9176.0,-8677.0,8835.0,-5557.0,-4.0,15.0,-3.0,0.0,0.0,-7.0,7833.0,-13811.0,3993.0,-623.0,-11.0,8.0,2.0,1.0
2022-05-06 14:41:37.230942-07:00,1040.9,650.5,981.6,923.7,974.8,691.3,1531.0,1323.2,3466.1,3477.1,1079.0,841.1,1457.1,3473.4,1453.4,1260.4,3478.3,3488.0,304.3,562.6,845.3,1063.4,481.4,1383.9,3475.9,3483.2,629.5,661.9,1658.7,1046.1,970.5,851.1,12.0,9.0,-1.0,9175.0,-8675.0,8836.0,-5560.0,6.0,4.0,-3.0,4.0,9.0,-6.0,7834.0,-13810.0,3993.0,-623.0,5.0,4.0,3.0,1.0
2022-05-06 14:41:37.261253-07:00,1045.2,648.1,981.6,923.7,968.8,697.9,1531.0,1323.2,3469.8,3473.4,1079.0,841.1,1450.6,3466.1,1453.4,1260.4,3478.3,3488.0,303.6,554.6,845.3,1063.4,476.6,1385.7,3475.9,3483.2,635.9,657.9,1658.7,1046.1,972.2,857.0,10.0,-3.0,-2.0,9181.0,-8672.0,8830.0,-5567.0,55.0,-27.0,-13.0,3.0,4.0,-8.0,7842.0,-13806.0,3993.0,-625.0,43.0,-8.0,-3.0,1.0
2022-05-06 14:41:37.321674-07:00,1045.2,648.1,984.2,918.6,968.8,697.9,1530.1,1322.3,3469.8,3473.4,1080.8,840.3,1450.6,3466.1,1448.8,1254.2,3481.9,3480.7,303.6,554.6,843.6,1061.7,476.6,1385.7,3474.6,3481.9,635.9,657.9,1657.7,1047.0,972.2,857.0,7.0,2.0,-1.0,9197.0,-8667.0,8814.0,-5572.0,-11.0,-43.0,-2.0,5.0,-22.0,-1.0,7853.0,-13800.0,3992.0,-628.0,-28.0,5.0,3.0,1.0
2022-05-06 14:41:37.381860-07:00,1037.5,651.4,984.2,918.6,972.2,692.1,1530.1,1322.3,3467.4,3472.2,1080.8,840.3,1456.2,3478.3,1448.8,1254.2,3481.9,3480.7,309.0,553.0,843.6,1061.7,481.4,1392.1,3474.6,3481.9,633.5,677.4,1657.7,1047.0,979.9,862.1,6.0,-94.0,67.0,9231.0,-8680.0,8774.0,-5559.0,242.0,-164.0,63.0,3.0,-37.0,0.0,7862.0,-13793.0,3997.0,-630.0,230.0,14.0,74.0,1.0
2022-05-06 14:41:37.411396-07:00,1037.5,651.4,977.3,923.7,972.2,728.2,1535.7,1344.9,3467.4,3472.2,1096.4,857.9,1456.2,3472.2,1684.3,1345.8,3480.7,3471.0,311.3,553.0,837.7,1055.6,481.4,1392.1,3473.4,3485.6,637.6,677.4,1659.6,1052.2,979.9,862.1,12.0,-85.0,61.0,9367.0,-8494.0,8726.0,-5691.0,1133.0,444.0,101.0,5.0,-29.0,43.0,8081.0,-13653.0,4037.0,-648.0,887.0,-67.0,214.0,1.0
2022-05-06 14:41:37.471076-07:00,1049.6,666.0,1021.9,923.7,976.5,728.2,1535.7,1344.9,3480.7,3466.1,1367.6,857.9,1469.0,3472.2,1684.3,1345.8,3480.7,3471.0,311.3,555.4,837.7,1065.1,525.8,1469.0,3473.4,3485.6,637.6,872.1,1659.6,1197.4,1053.9,858.7,3.0,-17.0,-53.0,9586.0,-8097.0,8667.0,-5988.0,1144.0,179.0,202.0,-3.0,13.0,-35.0,8474.0,-13396.0,4086.0,-684.0,1093.0,-77.0,205.0,1.0
2022-05-06 14:41:37.531057-07:00,1049.6,666.0,1021.9,952.6,976.5,745.5,1864.5,1390.3,3480.7,3466.1,1367.6,919.4,1469.0,3464.9,2173.8,1707.2,3474.6,3471.0,309.0,555.4,840.3,1065.1,525.8,1469.0,3477.1,3474.6,686.4,872.1,1666.3,1197.4,1053.9,858.7,26.0,53.0,-36.0,9803.0,-7651.0,8584.0,-6334.0,1645.0,503.0,260.0,17.0,61.0,41.0,8848.0,-13141.0,4118.0,-710.0,1101.0,-112.0,203.0,1.0
2022-05-06 14:41:37.561181-07:00,1045.2,662.7,1281.9,952.6,975.6,745.5,1864.5,1390.3,3480.7,3469.8,1537.6,919.4,1574.9,3464.9,2173.8,1707.2,3474.6,3471.0,309.0,552.2,840.3,1058.2,551.4,1501.4,3477.1,3474.6,686.4,1006.5,1666.3,1436.9,1313.3,856.2,-86.0,8.0,24.0,10073.0,-7205.0,8448.0,-6609.0,854.0,-201.0,118.0,-26.0,-17.0,12.0,9238.0,-12868.0,4112.0,-773.0,766.0,-55.0,37.0,1.0
2022-05-06 14:41:37.621674-07:00,1045.2,662.7,1281.9,1140.1,975.6,776.9,1911.5,1404.0,3480.7,3469.8,1537.6,1010.8,1574.9,3466.1,2238.4,1694.8,3478.3,3478.3,306.7,552.2,841.1,1058.2,551.4,1501.4,3483.2,3474.6,762.9,1006.5,1698.6,1436.9,1313.3,856.2,15.0,24.0,-58.0,10281.0,-7150.0,8221.0,-6634.0,282.0,-687.0,-208.0,10.0,35.0,-42.0,9471.0,-12702.0,4092.0,-816.0,562.0,-49.0,12.0,1.0
2022-05-06 14:41:37.711113-07:00,1047.8,666.0,1508.8,1294.5,990.2,776.9,1911.5,1404.0,3472.2,3464.9,1542.2,1066.9,1706.2,3466.1,2238.4,1694.8,3478.3,3478.3,306.7,557.0,835.2,1052.2,554.6,1559.9,3483.2,3474.6,762.9,1009.0,1766.6,1439.6,1414.9,866.3,53.0,26.0,-49.0,10443.0,-7222.0,7960.0,-6622.0,352.0,-605.0,-217.0,4.0,-1.0,8.0,9641.0,-12585.0,4051.0,-841.0,470.0,-116.0,-47.0,1.0
2022-05-06 14:41:37.771768-07:00,1047.8,666.0,1508.8,1294.5,997.9,776.1,1890.9,1390.3,3472.2,3464.9,1542.2,1066.9,1721.5,3473.4,2143.3,1706.2,3480.7,3474.6,310.5,555.4,835.2,1052.2,554.6,1559.9,3488.0,3475.9,772.0,994.5,1766.6,1439.6,1414.9,866.3,19.0,69.0,-33.0,10637.0,-7203.0,7660.0,-6689.0,433.0,-590.0,-239.0,13.0,29.0,0.0,9877.0,-12419.0,3983.0,-887.0,750.0,-107.0,-75.0,1.0
2022-05-06 14:41:37.772721-07:00,1041.8,659.5,1499.5,1301.6,997.9,776.1,1890.9,1390.3,3461.3,3473.4,1524.5,1075.6,1721.5,3473.4,2143.3,1706.2,3480.7,3474.6,310.5,555.4,851.1,1062.5,549.0,1598.3,3488.0,3475.9,772.0,994.5,1776.2,1438.7,1373.9,878.9,9.0,22.0,-25.0,10741.0,-7309.0,7384.0,-6718.0,100.0,-561.0,-437.0,0.0,-1.0,-35.0,10021.0,-12320.0,3921.0,-925.0,266.0,-92.0,-99.0,1.0
2022-05-06 14:41:37.861080-07:00,1041.8,659.5,1499.5,1301.6,1003.0,772.8,1883.0,1388.5,3461.3,3473.4,1524.5,1075.6,1703.3,3460.1,2100.7,1699.5,3467.4,3471.0,312.8,561.8,851.1,1062.5,549.0,1598.3,3472.2,3473.4,782.7,981.6,1776.2,1438.7,1373.9,878.9,10.0,15.0,-14.0,10836.0,-7388.0,7101.0,-6783.0,406.0,-424.0,-321.0,-16.0,29.0,-14.0,10184.0,-12209.0,3839.0,-960.0,659.0,-164.0,-104.0,1.0
2022-05-06 14:41:37.864653-07:00,1047.0,661.1,1501.4,1312.4,1003.0,772.8,1883.0,1388.5,3468.6,3479.5,1518.0,1085.1,1703.3,3460.1,2100.7,1699.5,3467.4,3471.0,312.8,561.8,838.6,1058.2,546.6,1612.4,3472.2,3473.4,782.7,981.6,1769.5,1403.0,1345.8,883.1,-5.0,30.0,-15.0,10907.0,-7453.0,6869.0,-6836.0,44.0,-429.0,-343.0,-6.0,25.0,-23.0,10360.0,-12087.0,3746.0,-986.0,412.0,-175.0,-108.0,1.0
2022-05-06 14:41:37.951006-07:00,1070.3,661.1,1501.4,1312.4,1008.2,775.3,1876.2,1373.0,3478.3,3479.5,1518.0,1085.1,1702.4,3472.2,2082.6,1694.8,3478.3,3472.2,318.2,559.4,838.6,1058.2,546.6,1606.8,3485.6,3477.1,788.6,980.7,1769.5,1403.0,1345.8,889.0,14.0,7.0,13.0,10933.0,-7556.0,6694.0,-6857.0,143.0,-303.0,-268.0,-2.0,-12.0,12.0,10465.0,-12026.0,3648.0,-988.0,289.0,-202.0,-119.0,1.0
2022-05-06 14:41:38.011063-07:00,1070.3,670.1,1484.7,1303.4,1008.2,775.3,1876.2,1382.1,3478.3,3483.2,1523.6,1080.8,1702.4,3472.2,2082.6,1684.3,3474.6,3472.2,318.2,559.4,837.7,1061.7,551.4,1606.8,3478.3,3477.1,788.6,980.7,1760.8,1389.4,1340.4,889.0,47.0,120.0,37.0,10951.0,-7629.0,6530.0,-6903.0,-197.0,-349.0,-333.0,47.0,15.0,12.0,10577.0,-11955.0,3553.0,-1008.0,206.0,-125.0,-141.0,1.0
2022-05-06 14:41:38.012519-07:00,1090.3,670.1,1484.7,1303.4,1128.7,771.1,1865.4,1382.1,3473.4,3483.2,1523.6,1080.8,1708.1,3467.4,2064.5,1684.3,3474.6,3472.2,311.3,568.2,837.7,1061.7,551.4,1594.6,3478.3,3474.6,795.2,977.3,1760.8,1389.4,1340.4,904.2,-9.0,-39.0,-17.0,10825.0,-7868.0,6499.0,-6864.0,-597.0,-14.0,-260.0,-9.0,-36.0,-2.0,10487.0,-12044.0,3519.0,-1006.0,-298.0,-15.0,-76.0,1.0
2022-05-06 14:41:38.100965-07:00,1090.3,673.3,1470.9,1267.6,1128.7,771.1,1865.4,1382.1,3473.4,3475.9,1510.6,1074.7,1708.1,3467.4,2064.5,1666.3,3473.4,3472.2,311.3,568.2,839.4,1055.6,553.8,1594.6,3468.6,3474.6,795.2,977.3,1787.8,1367.6,1331.4,904.2,12.0,81.0,-92.0,10694.0,-8136.0,6474.0,-6780.0,-909.0,-451.0,-224.0,24.0,85.0,-37.0,10397.0,-12130.0,3495.0,-1000.0,-403.0,-34.0,-90.0,1.0
2022-05-06 14:41:38.130959-07:00,1095.6,673.3,1470.9,1267.6,1158.6,777.8,1837.2,1382.1,3462.5,3475.9,1510.6,1074.7,1690.0,3469.8,2079.5,1666.3,3473.4,3484.4,311.3,573.0,839.4,1055.6,553.8,1558.1,3468.6,3483.2,775.3,976.5,1787.8,1367.6,1331.4,937.3,-50.0,-94.0,-1.0,10499.0,-8528.0,6476.0,-6599.0,-718.0,-408.0,-330.0,-28.0,-61.0,-16.0,10169.0,-12333.0,3470.0,-951.0,-545.0,-59.0,-109.0,1.0
2022-05-06 14:41:38.161066-07:00,1095.6,669.3,1470.9,1266.7,1158.6,777.8,1837.2,1357.6,3462.5,3473.4,1494.9,1074.7,1690.0,3469.8,2079.5,1638.8,3474.6,3484.4,311.3,573.0,838.6,1063.4,549.8,1558.1,3480.7,3483.2,775.3,976.5,1970.7,1402.1,1315.1,937.3,39.0,-6.0,-19.0,10394.0,-8827.0,6384.0,-6459.0,-604.0,-500.0,-247.0,4.0,22.0,-50.0,10048.0,-12444.0,3436.0,-907.0,-462.0,-110.0,-55.0,1.0
2022-05-06 14:41:38.221022-07:00,1080.8,673.3,1470.9,1266.7,1231.0,789.4,1828.4,1357.6,3473.4,3473.4,1494.9,1074.7,1691.0,3472.2,2108.8,1638.8,3474.6,3467.4,315.9,583.5,838.6,1063.4,546.6,1553.4,3480.7,3471.0,762.9,980.7,1970.7,1402.1,1356.7,965.4,-2.0,83.0,38.0,10401.0,-8981.0,6264.0,-6353.0,339.0,-226.0,39.0,2.0,30.0,-32.0,10022.0,-12481.0,3387.0,-865.0,282.0,-161.0,-49.0,1.0
2022-05-06 14:41:38.280998-07:00,1080.8,673.3,1482.9,1305.2,1231.0,789.4,1850.8,1375.7,3473.4,3473.4,1486.6,1063.4,1691.0,3472.2,2090.6,1647.3,3474.6,3473.4,315.9,583.5,841.9,1059.1,546.6,1553.4,3469.8,3477.1,762.9,980.7,2522.9,1432.3,1356.7,965.4,-42.0,-7.0,32.0,10441.0,-8928.0,6268.0,-6359.0,-166.0,465.0,225.0,-60.0,58.0,0.0,9962.0,-12547.0,3325.0,-838.0,-539.0,-75.0,-115.0,1.0
2022-05-06 14:41:38.340804-07:00,1083.4,666.0,1482.9,1305.2,1538.5,797.7,1850.8,1375.7,3475.9,3462.5,1486.6,1063.4,1681.4,3472.2,2090.6,1647.3,3474.6,3473.4,313.6,584.3,841.9,1059.1,541.0,1630.3,3469.8,3477.1,760.4,985.9,2522.9,1432.3,1345.8,1126.1,2.0,-79.0,77.0,10344.0,-8887.0,6519.0,-6322.0,-404.0,303.0,306.0,26.0,-103.0,81.0,9702.0,-12749.0,3339.0,-791.0,-666.0,94.0,48.0,1.0
2022-05-06 14:41:38.430993-07:00,1083.4,666.0,1494.9,1402.1,1538.5,797.7,1831.3,1335.0,3475.9,3462.5,1474.6,1088.6,1681.4,3472.2,2227.0,1645.4,3474.6,3471.0,313.6,584.3,841.9,1060.8,541.0,1630.3,3464.9,3473.4,760.4,985.9,2683.2,1404.9,1345.8,1126.1,60.0,-13.0,-51.0,10278.0,-8878.0,6733.0,-6217.0,-514.0,245.0,527.0,76.0,-11.0,29.0,9495.0,-12887.0,3408.0,-764.0,-557.0,128.0,83.0,1.0
2022-05-06 14:41:38.432255-07:00,1088.6,661.9,1494.9,1402.1,1297.2,799.4,1831.3,1335.0,3468.6,3477.1,1474.6,1088.6,1679.5,3472.2,2227.0,1645.4,3474.6,3471.0,314.4,582.6,841.9,1060.8,530.6,1624.7,3464.9,3473.4,752.9,1006.5,2683.2,1404.9,1326.8,1056.5,-25.0,-79.0,-86.0,10160.0,-8913.0,7052.0,-6003.0,-934.0,235.0,688.0,-14.0,-31.0,-70.0,9260.0,-13046.0,3465.0,-698.0,-786.0,11.0,135.0,1.0
2022-05-06 14:41:38.461173-07:00,1088.6,661.9,1479.2,1388.5,1297.2,795.2,1817.8,1324.1,3468.6,3477.1,1465.4,1104.3,1679.5,3475.9,2173.8,1587.1,3481.9,3466.1,314.4,582.6,842.8,1059.1,530.6,1624.7,3478.3,3474.6,746.3,1006.5,2598.3,1379.4,1326.8,1056.5,-41.0,-19.0,-1.0,9991.0,-9018.0,7441.0,-5651.0,-1192.0,208.0,823.0,-41.0,0.0,-30.0,8958.0,-13237.0,3555.0,-563.0,-999.0,-15.0,275.0,1.0
2022-05-06 14:41:38.521021-07:00,1071.2,672.5,1466.3,1388.5,1252.4,795.2,1817.8,1324.1,3475.9,3471.0,1460.8,1104.3,1666.3,3475.9,2173.8,1587.1,3481.9,3466.1,314.4,575.4,842.8,1060.8,527.4,1615.2,3478.3,3474.6,746.3,987.6,2598.3,1383.9,1308.8,1032.3,13.0,-14.0,31.0,9786.0,-9139.0,7848.0,-5248.0,-1024.0,134.0,757.0,12.0,-36.0,31.0,8669.0,-13406.0,3661.0,-396.0,-718.0,-57.0,303.0,1.0
2022-05-06 14:41:38.581087-07:00,1071.2,672.5,1466.3,1371.2,1252.4,795.2,1787.8,1310.6,3475.9,3471.0,1460.8,1097.3,1666.3,3472.2,2176.9,1563.7,3473.4,3461.3,310.5,575.4,840.3,1060.8,527.4,1615.2,3477.1,3469.8,737.3,987.6,2533.6,1383.9,1308.8,1032.3,20.0,18.0,30.0,9656.0,-9194.0,8160.0,-4908.0,-665.0,11.0,626.0,33.0,-22.0,43.0,8475.0,-13506.0,3758.0,-260.0,-467.0,-45.0,274.0,1.0
2022-05-06 14:41:38.611017-07:00,1071.2,663.6,1455.2,1371.2,1239.9,795.2,1787.8,1310.6,3478.3,3469.8,1455.2,1097.3,1652.0,3472.2,2176.9,1563.7,3473.4,3461.3,310.5,587.5,840.3,1060.8,525.0,1607.7,3477.1,3469.8,737.3,977.3,2533.6,1375.7,1304.3,1037.5,19.0,73.0,3.0,9610.0,-9208.0,8344.0,-4657.0,-356.0,-116.0,350.0,14.0,11.0,16.0,8408.0,-13534.0,3812.0,-188.0,-214.0,-46.0,181.0,1.0
2022-05-06 14:41:38.670842-07:00,1071.2,663.6,1455.2,1353.1,1239.9,786.1,1785.8,1301.6,3478.3,3469.8,1455.2,1099.0,1652.0,3469.8,2170.7,1546.9,3471.0,3464.9,302.0,587.5,841.9,1060.8,525.0,1607.7,3477.1,3469.8,729.9,977.3,2497.2,1375.7,1304.3,1037.5,2.0,10.0,-1.0,9596.0,-9239.0,8410.0,-4501.0,-128.0,-60.0,145.0,-12.0,-1.0,-26.0,8353.0,-13557.0,3855.0,-121.0,-65.0,-48.0,108.0,1.0
2022-05-06 14:41:38.730643-07:00,1072.1,662.7,1442.4,1354.9,1227.5,786.1,1785.8,1301.6,3478.3,3467.4,1454.3,1097.3,1649.2,3469.8,2170.7,1546.9,3471.0,3464.9,302.0,574.6,838.6,1059.9,526.6,1601.1,3477.1,3469.8,729.9,980.7,2500.4,1363.9,1304.3,1022.8,1.0,39.0,-3.0,9614.0,-9236.0,8418.0,-4453.0,55.0,-91.0,33.0,-8.0,34.0,-11.0,8359.0,-13547.0,3878.0,-82.0,60.0,-57.0,68.0,1.0
2022-05-06 14:41:38.761234-07:00,1072.1,662.7,1442.4,1354.9,1220.4,787.7,1790.7,1275.6,3478.3,3467.4,1454.3,1097.3,1653.9,3478.3,2140.2,1535.7,3473.4,3478.3,303.6,577.8,838.6,1059.9,526.6,1601.1,3478.3,3471.0,722.5,973.1,2500.4,1363.9,1304.3,1022.8,13.0,60.0,4.0,9656.0,-9206.0,8396.0,-4466.0,156.0,-41.0,-50.0,4.0,20.0,2.0,8400.0,-13521.0,3880.0,-62.0,89.0,-49.0,-8.0,1.0
2022-05-06 14:41:38.881926-07:00,1069.5,658.7,1441.5,1350.3,1220.4,787.7,1790.7,1275.6,3467.4,3475.9,1465.4,1110.4,1653.9,3478.3,2140.2,1535.7,3473.4,3478.3,303.6,577.8,838.6,1059.1,524.2,1595.5,3478.3,3471.0,722.5,973.1,2475.9,1363.0,1299.0,1020.2,5.0,-11.0,31.0,9688.0,-9205.0,8339.0,-4507.0,122.0,-90.0,-138.0,-3.0,12.0,2.0,8430.0,-13507.0,3863.0,-60.0,124.0,-17.0,-30.0,1.0
2022-05-06 14:41:38.971063-07:00,1069.5,658.7,1441.5,1350.3,1229.3,797.7,1780.1,1277.4,3467.4,3475.9,1465.4,1110.4,1647.3,3461.3,2142.2,1532.0,3472.2,3469.8,304.3,568.2,838.6,1059.1,524.2,1595.5,3477.1,3478.3,724.1,977.3,2475.9,1363.0,1299.0,1020.2,7.0,12.0,3.0,9749.0,-9153.0,8287.0,-4577.0,366.0,18.0,-37.0,10.0,-5.0,13.0,8505.0,-13461.0,3858.0,-80.0,249.0,-5.0,-10.0,1.0
2022-05-06 14:41:38.972308-07:00,1066.0,661.9,1440.5,1327.8,1229.3,797.7,1780.1,1277.4,3478.3,3471.0,1477.3,1104.3,1647.3,3461.3,2142.2,1532.0,3472.2,3469.8,304.3,568.2,836.1,1063.4,527.4,1597.4,3477.1,3478.3,724.1,977.3,2443.0,1386.6,1291.8,1025.4,5.0,6.0,15.0,9808.0,-9109.0,8224.0,-4650.0,129.0,-87.0,-126.0,5.0,36.0,0.0,8564.0,-13426.0,3850.0,-102.0,101.0,15.0,-37.0,1.0
2022-05-06 14:41:38.973321-07:00,1066.0,661.9,1440.5,1327.8,1235.5,776.9,1791.6,1277.4,3478.3,3471.0,1477.3,1104.3,1637.9,3462.5,2117.9,1522.7,3467.4,3478.3,309.0,570.6,836.1,1063.4,527.4,1597.4,3471.0,3469.8,720.8,971.3,2443.0,1386.6,1291.8,1025.4,6.0,8.0,0.0,9840.0,-9091.0,8186.0,-4686.0,65.0,12.0,-64.0,4.0,2.0,-27.0,8590.0,-13410.0,3848.0,-123.0,31.0,17.0,-28.0,1.0
2022-05-06 14:41:39.031183-07:00,1067.7,661.1,1431.4,1344.0,1235.5,776.9,1791.6,1274.7,3467.4,3472.2,1477.3,1105.1,1637.9,3462.5,2117.9,1506.0,3467.4,3478.3,309.0,570.6,836.1,1059.1,528.2,1593.6,3480.7,3469.8,720.8,971.3,2417.6,1366.6,1303.4,1038.3,-4.0,6.0,-1.0,9826.0,-9108.0,8169.0,-4711.0,-70.0,-22.0,-64.0,0.0,11.0,11.0,8577.0,-13419.0,3844.0,-131.0,-36.0,11.0,-17.0,1.0
2022-05-06 14:41:39.091115-07:00,1068.6,661.1,1431.4,1344.0,1246.2,777.8,1755.0,1274.7,3472.2,3472.2,1477.3,1105.1,1642.6,3475.9,2086.6,1506.0,3467.4,3474.6,303.6,571.4,836.1,1059.1,528.2,1577.7,3480.7,3473.4,715.9,965.4,2417.6,1366.6,1303.4,1035.7,1.0,10.0,1.0,9811.0,-9135.0,8162.0,-4704.0,-74.0,-44.0,-52.0,4.0,2.0,-2.0,8569.0,-13426.0,3840.0,-134.0,-7.0,3.0,-18.0,1.0
2022-05-06 14:41:39.121075-07:00,1068.6,652.2,1425.0,1353.1,1246.2,777.8,1755.0,1277.4,3472.2,3464.9,1470.0,1099.9,1642.6,3475.9,2086.6,1513.4,3477.1,3474.6,303.6,571.4,833.6,1056.5,522.6,1577.7,3479.5,3473.4,715.9,965.4,2399.7,1355.8,1288.2,1035.7,26.0,1.0,10.0,9793.0,-9177.0,8138.0,-4698.0,20.0,-26.0,-95.0,8.0,10.0,-14.0,8580.0,-13421.0,3830.0,-141.0,72.0,-12.0,-25.0,1.0
2022-05-06 14:41:39.211411-07:00,1068.6,652.2,1425.0,1353.1,1241.7,781.9,1762.7,1277.4,3472.2,3464.9,1470.0,1099.9,1631.3,3474.6,2069.5,1513.4,3477.1,3484.4,307.4,571.4,833.6,1056.5,522.6,1595.5,3479.5,3483.2,720.8,972.2,2399.7,1355.8,1288.2,1026.3,9.0,-23.0,9.0,9812.0,-9183.0,8090.0,-4731.0,198.0,-64.0,-80.0,3.0,-3.0,-5.0,8609.0,-13406.0,3816.0,-147.0,83.0,-18.0,-18.0,1.0
2022-05-06 14:41:39.212586-07:00,1068.6,660.3,1422.2,1334.1,1241.7,781.9,1762.7,1266.7,3472.2,3479.5,1499.5,1104.3,1631.3,3474.6,2069.5,1508.8,3475.9,3484.4,307.4,571.4,830.2,1060.8,525.8,1595.5,3472.2,3483.2,720.8,972.2,2396.6,1354.0,1288.2,1026.3,18.0,30.0,-15.0,9871.0,-9150.0,8034.0,-4766.0,117.0,-85.0,-18.0,6.0,27.0,-11.0,8653.0,-13380.0,3811.0,-156.0,122.0,-5.0,-3.0,1.0
2022-05-06 14:41:39.271556-07:00,1073.8,661.1,1422.2,1334.1,1226.6,779.4,1748.3,1266.7,3473.4,3473.4,1499.5,1104.3,1639.8,3475.9,2075.5,1508.8,3475.9,3485.6,309.0,576.2,830.2,1060.8,529.0,1588.9,3472.2,3484.4,717.5,969.6,2396.6,1354.0,1281.0,1049.6,9.0,-1.0,-4.0,9888.0,-9158.0,8004.0,-4765.0,-43.0,-21.0,-44.0,-6.0,6.0,-24.0,8656.0,-13380.0,3802.0,-160.0,-27.0,-16.0,-33.0,1.0
2022-05-06 14:41:39.331386-07:00,1073.8,661.1,1423.1,1324.1,1226.6,779.4,1752.1,1268.5,3473.4,3473.4,1485.6,1104.3,1639.8,3475.9,2046.4,1504.1,3473.4,3480.7,309.0,576.2,836.1,1062.5,529.0,1588.9,3483.2,3477.1,717.5,969.6,2361.9,1348.5,1281.0,1049.6,1.0,-9.0,3.0,9881.0,-9177.0,7998.0,-4754.0,-42.0,-55.0,16.0,0.0,0.0,-6.0,8647.0,-13390.0,3789.0,-157.0,-4.0,-17.0,-21.0,1.0
2022-05-06 14:41:39.361054-07:00,1073.8,660.3,1423.1,1324.1,1220.4,781.1,1752.1,1268.5,3462.5,3467.4,1485.6,1104.3,1633.1,3473.4,2046.4,1504.1,3473.4,3480.7,305.1,571.4,836.1,1062.5,525.8,1586.1,3483.2,3477.1,708.5,963.7,2361.9,1348.5,1285.5,1054.8,20.0,6.0,11.0,9874.0,-9192.0,8002.0,-4734.0,-76.0,20.0,-20.0,9.0,-6.0,3.0,8639.0,-13396.0,3786.0,-152.0,-31.0,-5.0,-3.0,1.0
2022-05-06 14:41:39.421619-07:00,1073.8,660.3,1415.8,1323.2,1220.4,781.1,1747.3,1285.5,3462.5,3467.4,1481.0,1112.1,1633.1,3473.4,2057.4,1505.1,3468.6,3478.3,305.1,571.4,834.4,1059.9,525.8,1586.1,3468.6,3475.9,708.5,963.7,2356.7,1344.9,1285.5,1054.8,2.0,-4.0,19.0,9844.0,-9224.0,8005.0,-4728.0,-46.0,-22.0,-38.0,0.0,16.0,0.0,8628.0,-13403.0,3785.0,-151.0,-9.0,12.0,0.0,1.0
2022-05-06 14:41:39.451032-07:00,1064.3,646.5,1415.8,1323.2,1235.5,779.4,1747.3,1285.5,3467.4,3467.4,1481.0,1112.1,1626.5,3473.4,2057.4,1505.1,3468.6,3478.3,308.2,581.0,834.4,1059.9,525.0,1567.4,3468.6,3475.9,714.2,967.1,2356.7,1344.9,1264.9,1041.8,0.0,-3.0,-9.0,9841.0,-9230.0,8003.0,-4730.0,17.0,-6.0,-16.0,-2.0,-6.0,-14.0,8628.0,-13403.0,3786.0,-154.0,6.0,-2.0,-2.0,1.0
2022-05-06 14:41:39.511232-07:00,1064.3,646.5,1417.6,1323.2,1235.5,782.7,1733.9,1263.1,3467.4,3467.4,1484.7,1116.5,1626.5,3469.8,2019.4,1508.8,3477.1,3467.4,307.4,581.0,845.3,1059.9,525.0,1567.4,3472.2,3475.9,715.9,967.1,2334.7,1346.7,1264.9,1041.8,7.0,15.0,1.0,9852.0,-9222.0,7993.0,-4738.0,56.0,-1.0,26.0,4.0,17.0,1.0,8635.0,-13399.0,3785.0,-152.0,40.0,-9.0,6.0,1.0
2022-05-06 14:41:39.571731-07:00,1060.8,657.0,1426.8,1323.2,1221.3,782.7,1733.9,1263.1,3462.5,3473.4,1481.0,1116.5,1630.3,3469.8,2019.4,1508.8,3477.1,3467.4,307.4,569.8,845.3,1056.5,519.5,1566.5,3472.2,3475.9,715.9,970.5,2334.7,1352.1,1280.1,1041.8,6.0,4.0,6.0,9851.0,-9223.0,7992.0,-4737.0,-60.0,-11.0,-27.0,-2.0,-3.0,2.0,8629.0,-13404.0,3780.0,-154.0,-55.0,-4.0,-23.0,1.0
2022-05-06 14:41:39.601418-07:00,1060.8,657.0,1426.8,1308.8,1221.3,777.8,1738.7,1271.2,3462.5,3473.4,1481.0,1105.1,1630.3,3467.4,2011.4,1497.7,3469.8,3469.8,309.0,569.8,833.6,1056.5,519.5,1566.5,3478.3,3466.1,711.0,970.5,2304.5,1352.1,1280.1,1041.8,19.0,5.0,6.0,9847.0,-9236.0,7988.0,-4728.0,-6.0,-5.0,3.0,3.0,4.0,-10.0,8625.0,-13407.0,3779.0,-153.0,10.0,4.0,0.0,1.0
2022-05-06 14:41:39.661659-07:00,1066.0,673.3,1418.6,1308.8,1218.6,777.8,1738.7,1271.2,3472.2,3467.4,1481.0,1105.1,1619.9,3467.4,2011.4,1497.7,3469.8,3469.8,309.0,568.2,833.6,1060.8,517.9,1578.6,3478.3,3466.1,711.0,960.2,2304.5,1344.0,1281.9,1052.2,16.0,18.0,5.0,9846.0,-9236.0,7989.0,-4729.0,-4.0,1.0,-18.0,6.0,-6.0,3.0,8625.0,-13407.0,3778.0,-156.0,4.0,1.0,-14.0,1.0
2022-05-06 14:41:39.721055-07:00,1066.0,673.3,1418.6,1323.2,1218.6,771.1,1732.0,1271.2,3472.2,3467.4,1481.0,1109.5,1619.9,3471.0,2008.4,1493.0,3478.3,3472.2,299.0,568.2,838.6,1060.8,517.9,1578.6,3469.8,3469.8,705.2,960.2,2328.5,1344.0,1281.9,1052.2,8.0,2.0,7.0,9841.0,-9244.0,7985.0,-4732.0,-9.0,-15.0,-23.0,4.0,-24.0,14.0,8620.0,-13411.0,3776.0,-164.0,11.0,19.0,-14.0,1.0
2022-05-06 14:41:39.751204-07:00,1066.9,659.5,1412.2,1323.2,1229.3,771.1,1732.0,1271.2,3475.9,3468.6,1478.3,1109.5,1631.3,3471.0,2008.4,1493.0,3478.3,3472.2,299.0,574.6,838.6,1055.6,520.3,1572.1,3469.8,3469.8,705.2,963.7,2328.5,1348.5,1279.2,1047.0,21.0,-5.0,4.0,9850.0,-9253.0,7961.0,-4734.0,102.0,-24.0,-26.0,2.0,0.0,-19.0,8645.0,-13394.0,3775.0,-177.0,122.0,8.0,-3.0,1.0
2022-05-06 14:41:39.811684-07:00,1066.9,659.5,1412.2,1327.8,1227.5,772.8,1732.0,1267.6,3475.9,3468.6,1478.3,1113.0,1619.0,3471.0,1998.5,1494.0,3467.4,3480.7,306.7,573.0,835.2,1055.6,520.3,1572.1,3478.3,3479.5,704.4,958.5,2338.9,1348.5,1279.2,1047.0,8.0,20.0,-3.0,9880.0,-9233.0,7934.0,-4756.0,75.0,-62.0,-42.0,3.0,7.0,-5.0,8677.0,-13374.0,3774.0,-188.0,55.0,-1.0,-11.0,1.0
2022-05-06 14:41:39.871005-07:00,1066.0,657.9,1415.8,1321.4,1227.5,772.8,1732.0,1267.6,3472.2,3467.4,1485.6,1106.9,1619.0,3471.0,1998.5,1494.0,3467.4,3480.7,306.7,573.0,834.4,1051.3,517.9,1605.8,3478.3,3479.5,704.4,958.5,2313.9,1339.5,1273.9,1050.4,4.0,5.0,-2.0,9893.0,-9237.0,7905.0,-4768.0,12.0,-16.0,-69.0,5.0,2.0,-4.0,8682.0,-13373.0,3766.0,-195.0,7.0,-3.0,-27.0,1.0
2022-05-06 14:41:39.931720-07:00,1066.0,657.9,1415.8,1321.4,1221.3,769.5,1727.2,1267.6,3472.2,3467.4,1485.6,1106.9,1623.7,3473.4,1991.5,1486.6,3475.9,3475.9,305.9,570.6,834.4,1051.3,517.9,1605.8,3481.9,3478.3,718.4,958.5,2313.9,1339.5,1273.9,1050.4,11.0,8.0,3.0,9895.0,-9246.0,7889.0,-4775.0,13.0,-41.0,-1.0,2.0,-5.0,5.0,8686.0,-13372.0,3761.0,-197.0,26.0,-2.0,-4.0,1.0
2022-05-06 14:41:39.991044-07:00,1067.7,656.2,1404.0,1322.3,1221.3,769.5,1727.2,1267.6,3474.6,3468.6,1471.8,1101.7,1623.7,3473.4,1991.5,1486.6,3475.9,3475.9,305.9,570.6,838.6,1062.5,517.9,1607.7,3481.9,3478.3,718.4,958.5,2307.7,1341.3,1270.3,1047.8,21.0,1.0,4.0,9894.0,-9265.0,7871.0,-4770.0,-41.0,-24.0,-110.0,5.0,-7.0,-9.0,8682.0,-13376.0,3755.0,-197.0,-19.0,-15.0,-16.0,1.0
2022-05-06 14:41:40.021116-07:00,1067.7,656.2,1404.0,1322.3,1216.8,783.6,1721.5,1262.2,3474.6,3468.6,1471.8,1101.7,1618.1,3478.3,1986.6,1491.2,3479.5,3474.6,309.0,573.8,838.6,1062.5,517.9,1607.7,3488.0,3477.1,709.3,955.1,2307.7,1341.3,1270.3,1047.8,5.0,2.0,-1.0,9885.0,-9286.0,7843.0,-4792.0,73.0,-10.0,-39.0,5.0,12.0,1.0,8694.0,-13369.0,3751.0,-203.0,64.0,2.0,-9.0,1.0
2022-05-06 14:41:40.051113-07:00,1059.9,657.0,1418.6,1309.7,1216.8,783.6,1721.5,1258.7,3471.0,3471.0,1462.6,1097.3,1618.1,3478.3,1986.6,1486.6,3471.0,3474.6,309.0,573.8,830.2,1053.9,515.5,1604.0,3478.3,3477.1,709.3,955.1,2300.4,1330.5,1270.3,1034.9,7.0,-4.0,-5.0,9903.0,-9275.0,7824.0,-4808.0,27.0,-41.0,-32.0,-1.0,-11.0,-13.0,8711.0,-13359.0,3748.0,-208.0,22.0,-13.0,-7.0,1.0
2022-05-06 14:41:40.111236-07:00,1059.9,657.0,1418.6,1309.7,1218.6,777.8,1718.6,1258.7,3471.0,3471.0,1462.6,1097.3,1615.2,3472.2,1970.7,1486.6,3471.0,3478.3,305.1,562.6,830.2,1053.9,515.5,1600.2,3478.3,3472.2,715.1,953.4,2300.4,1330.5,1270.3,1021.1,12.0,10.0,-6.0,9911.0,-9278.0,7808.0,-4813.0,9.0,-4.0,3.0,10.0,2.0,4.0,8714.0,-13357.0,3748.0,-209.0,4.0,0.0,-4.0,1.0
2022-05-06 14:41:40.171025-07:00,1059.9,657.0,1404.0,1321.4,1218.6,777.8,1718.6,1250.6,3471.0,3468.6,1470.9,1105.1,1615.2,3472.2,1970.7,1480.1,3478.3,3478.3,305.1,562.6,831.9,1060.8,518.7,1600.2,3485.6,3472.2,715.1,953.4,2290.0,1339.5,1268.5,1021.1,9.0,-11.0,1.0,9905.0,-9291.0,7806.0,-4803.0,-49.0,-21.0,-2.0,2.0,-10.0,-4.0,8700.0,-13367.0,3744.0,-208.0,-38.0,-8.0,-5.0,1.0
2022-05-06 14:41:40.201431-07:00,1054.8,657.0,1404.0,1321.4,1208.9,778.6,1712.9,1250.6,3473.4,3468.6,1470.9,1105.1,1621.8,3478.3,1971.7,1480.1,3478.3,3478.3,312.0,569.0,831.9,1060.8,518.7,1601.1,3485.6,3467.4,708.5,954.3,2290.0,1339.5,1268.5,1021.9,11.0,20.0,1.0,9899.0,-9300.0,7810.0,-4791.0,-37.0,-1.0,-11.0,10.0,1.0,0.0,8696.0,-13370.0,3744.0,-207.0,3.0,0.0,-9.0,1.0
2022-05-06 14:41:40.261255-07:00,1054.8,654.6,1407.6,1317.8,1208.9,778.6,1712.9,1248.8,3473.4,3464.9,1462.6,1099.9,1621.8,3478.3,1971.7,1481.9,3471.0,3478.3,312.0,569.0,827.7,1055.6,515.5,1601.1,3484.4,3467.4,708.5,954.3,2324.3,1343.1,1265.8,1021.9,12.0,28.0,0.0,9884.0,-9321.0,7807.0,-4786.0,-62.0,-18.0,-90.0,4.0,0.0,3.0,8693.0,-13373.0,3738.0,-211.0,13.0,2.0,-33.0,1.0
2022-05-06 14:41:40.321059-07:00,1066.9,654.6,1407.6,1317.8,1204.4,779.4,1716.7,1248.8,3478.3,3464.9,1462.6,1099.9,1616.2,3478.3,1965.7,1481.9,3471.0,3467.4,308.2,565.8,827.7,1055.6,515.5,1600.2,3484.4,3478.3,707.7,944.1,2324.3,1343.1,1265.8,1018.5,6.0,30.0,-7.0,9865.0,-9357.0,7776.0,-4805.0,45.0,-40.0,-152.0,7.0,10.0,5.0,8715.0,-13363.0,3725.0,-226.0,120.0,10.0,-63.0,1.0
2022-05-06 14:41:40.351096-07:00,1066.9,654.6,1409.4,1318.7,1204.4,779.4,1712.9,1272.1,3478.3,3466.1,1463.5,1099.0,1616.2,3478.3,1978.6,1479.2,3474.6,3483.2,308.2,565.8,836.9,1062.5,516.3,1600.2,3474.6,3479.5,707.7,944.1,2480.2,1343.1,1266.7,1018.5,11.0,31.0,-9.0,9870.0,-9391.0,7702.0,-4848.0,30.0,-107.0,-256.0,-2.0,17.0,-8.0,8757.0,-13343.0,3696.0,-257.0,137.0,-8.0,-115.0,1.0
2022-05-06 14:41:40.411283-07:00,1052.2,657.0,1409.4,1318.7,1231.9,769.5,1712.9,1272.1,3468.6,3478.3,1463.5,1099.0,1610.5,3474.6,1978.6,1479.2,3474.6,3483.2,307.4,568.2,836.9,1062.5,517.1,1584.2,3474.6,3479.5,702.8,955.1,2480.2,1343.1,1279.2,1017.6,10.0,37.0,-13.0,9861.0,-9432.0,7621.0,-4915.0,44.0,2.0,-270.0,5.0,11.0,2.0,8806.0,-13322.0,3652.0,-299.0,119.0,4.0,-132.0,1.0
2022-05-06 14:41:40.471024-07:00,1052.2,657.0,1409.4,1320.5,1231.9,769.5,1711.0,1292.7,3468.6,3478.3,1464.4,1103.4,1610.5,3474.6,2015.4,1479.2,3478.3,3478.3,307.4,568.2,834.4,1058.2,517.1,1584.2,3467.4,3479.5,702.8,955.1,2575.6,1363.9,1279.2,1017.6,18.0,-12.0,-1.0,9827.0,-9532.0,7497.0,-4980.0,-34.0,-209.0,-449.0,-4.0,51.0,-34.0,8829.0,-13321.0,3595.0,-338.0,116.0,-27.0,-186.0,1.0
2022-05-06 14:41:40.500723-07:00,1061.7,659.5,1409.4,1320.5,1297.2,775.3,1711.0,1292.7,3462.5,3472.2,1464.4,1103.4,1613.4,3472.2,2015.4,1479.2,3478.3,3478.3,308.2,565.8,834.4,1058.2,515.5,1555.3,3467.4,3479.5,706.0,947.5,2575.6,1363.9,1298.1,1062.5,-18.0,8.0,3.0,9808.0,-9599.0,7372.0,-5076.0,138.0,-28.0,-408.0,-4.0,-24.0,22.0,8868.0,-13313.0,3525.0,-382.0,184.0,-12.0,-172.0,1.0
2022-05-06 14:41:40.561884-07:00,1061.7,659.5,1431.4,1325.9,1297.2,775.3,1712.9,1285.5,3462.5,3472.2,1460.8,1093.8,1613.4,3472.2,2055.4,1481.0,3478.3,3478.3,308.2,565.8,836.9,1059.9,515.5,1555.3,3478.3,3469.8,706.0,947.5,2597.2,1367.6,1298.1,1062.5,30.0,8.0,-4.0,9798.0,-9663.0,7234.0,-5172.0,150.0,-63.0,-330.0,12.0,8.0,-19.0,8922.0,-13291.0,3462.0,-435.0,201.0,-9.0,-168.0,1.0
2022-05-06 14:41:40.651097-07:00,1066.9,660.3,1425.0,1325.9,1302.5,769.5,1712.9,1285.5,3480.7,3474.6,1476.4,1093.8,1611.5,3467.4,2055.4,1481.0,3478.3,3478.3,308.2,570.6,836.9,1059.9,517.1,1552.5,3478.3,3469.8,704.4,946.6,2597.2,1393.0,1320.5,1024.5,0.0,-9.0,-8.0,9793.0,-9705.0,7113.0,-5268.0,70.0,-116.0,-368.0,2.0,-16.0,-6.0,8972.0,-13272.0,3398.0,-485.0,97.0,-32.0,-157.0,1.0
2022-05-06 14:41:40.653437-07:00,1066.9,660.3,1425.0,1325.0,1302.5,771.1,1710.0,1310.6,3480.7,3474.6,1476.4,1091.2,1611.5,3475.9,2082.6,1478.3,3486.8,3462.5,309.0,570.6,837.7,1059.9,517.1,1552.5,3481.9,3473.4,704.4,946.6,2608.0,1393.0,1320.5,1024.5,170.0,27.0,79.0,9767.0,-9769.0,7006.0,-5341.0,-707.0,142.0,-105.0,39.0,-109.0,-62.0,9005.0,-13263.0,3341.0,-529.0,-627.0,72.0,-38.0,1.0
2022-05-06 14:41:40.711276-07:00,1066.9,670.1,1436.0,1325.0,1279.2,771.1,1710.0,1310.6,3474.6,3466.1,1491.2,1091.2,1611.5,3475.9,2082.6,1478.3,3486.8,3462.5,309.0,575.4,837.7,1059.1,521.0,1553.4,3481.9,3473.4,704.4,945.8,2608.0,1409.4,1336.8,1034.0,7.0,-7.0,1.0,9648.0,-9896.0,7030.0,-5291.0,-42.0,-62.0,-89.0,21.0,-21.0,14.0,8900.0,-13333.0,3346.0,-516.0,34.0,0.0,11.0,1.0
2022-05-06 14:41:40.801133-07:00,1066.9,670.1,1436.0,1325.9,1279.2,776.1,1708.1,1316.0,3474.6,3466.1,1491.2,1098.2,1611.5,3478.3,2221.9,1471.8,3472.2,3473.4,309.7,575.4,834.4,1059.1,521.0,1553.4,3488.0,3472.2,692.1,945.8,2609.1,1409.4,1336.8,1034.0,-5.0,68.0,10.0,9640.0,-9954.0,6930.0,-5330.0,15.0,-233.0,-519.0,5.0,36.0,32.0,8926.0,-13316.0,3341.0,-522.0,-5.0,9.0,-28.0,1.0
2022-05-06 14:41:40.802335-07:00,1064.3,661.9,1458.0,1325.9,1357.6,776.1,1708.1,1316.0,3478.3,3475.9,1579.6,1098.2,1614.3,3478.3,2221.9,1471.8,3472.2,3473.4,309.7,572.2,834.4,1060.8,524.2,1575.8,3488.0,3472.2,692.1,948.3,2609.1,1424.1,1393.0,1042.6,106.0,-122.0,32.0,9519.0,-10149.0,6830.0,-5308.0,-137.0,-241.0,-320.0,64.0,-92.0,81.0,8757.0,-13422.0,3365.0,-520.0,-512.0,129.0,87.0,1.0
2022-05-06 14:41:40.861858-07:00,1064.3,661.9,1458.0,1346.7,1730.1,771.1,1745.4,1539.4,3478.3,3475.9,1579.6,1098.2,1595.5,3473.4,2354.6,1466.3,3479.5,3475.9,321.3,573.8,841.1,1060.8,524.2,1575.8,3484.4,3475.9,706.0,948.3,2611.3,1424.1,1393.0,1042.6,10.0,88.0,-16.0,9542.0,-10223.0,6683.0,-5312.0,246.0,-164.0,-219.0,30.0,84.0,-73.0,8807.0,-13380.0,3401.0,-537.0,257.0,22.0,83.0,1.0
2022-05-06 14:41:40.921087-07:00,1058.2,661.1,1464.4,1338.6,1730.1,771.1,1745.4,1539.4,3474.6,3479.5,1571.1,1086.8,1595.5,3473.4,2354.6,1466.3,3479.5,3475.9,321.3,573.8,838.6,1063.4,528.2,1570.2,3484.4,3475.9,706.0,948.3,2559.4,1463.5,1375.7,1106.0,-43.0,83.0,35.0,9537.0,-10234.0,6621.0,-5376.0,-142.0,107.0,-332.0,-39.0,-8.0,54.0,8744.0,-13413.0,3432.0,-530.0,-378.0,89.0,21.0,1.0
2022-05-06 14:41:40.951236-07:00,1058.2,661.1,1464.4,1338.6,1660.6,765.3,1818.7,1611.5,3474.6,3479.5,1571.1,1086.8,1591.7,3460.1,2392.4,1502.3,3486.8,3488.0,309.0,573.0,838.6,1063.4,528.2,1570.2,3485.6,3484.4,694.6,946.6,2559.4,1463.5,1375.7,1106.0,52.0,-53.0,33.0,9481.0,-10290.0,6543.0,-5464.0,319.0,150.0,-153.0,27.0,5.0,-16.0,8698.0,-13434.0,3465.0,-555.0,397.0,95.0,36.0,1.0
2022-05-06 14:41:41.010916-07:00,1061.7,660.3,1453.4,1333.2,1660.6,765.3,1818.7,1611.5,3468.6,3475.9,1541.3,1081.6,1591.7,3460.1,2392.4,1502.3,3486.8,3488.0,309.0,573.0,836.9,1057.3,524.2,1574.9,3485.6,3484.4,694.6,946.6,2511.1,1489.3,1418.6,1185.0,-17.0,21.0,-23.0,9487.0,-10219.0,6538.0,-5590.0,161.0,277.0,-144.0,-22.0,8.0,-28.0,8790.0,-13363.0,3500.0,-605.0,221.0,96.0,50.0,1.0
2022-05-06 14:41:41.070928-07:00,1061.7,660.3,1453.4,1333.2,1546.9,764.5,1781.0,1577.7,3468.6,3475.9,1541.3,1081.6,1599.3,3477.1,2366.1,1495.8,3475.9,3477.1,304.3,569.0,836.9,1057.3,524.2,1574.9,3477.1,3479.5,690.5,928.8,2511.1,1489.3,1418.6,1185.0,-17.0,-7.0,-14.0,9465.0,-10139.0,6554.0,-5752.0,273.0,512.0,-54.0,-18.0,8.0,-22.0,8880.0,-13295.0,3518.0,-657.0,343.0,60.0,-4.0,1.0
2022-05-06 14:41:41.101117-07:00,1058.2,657.9,1471.8,1329.6,1546.9,764.5,1781.0,1577.7,3473.4,3473.4,1530.1,1074.7,1599.3,3477.1,2366.1,1495.8,3475.9,3477.1,304.3,569.0,831.1,1061.7,526.6,1564.6,3477.1,3479.5,690.5,928.8,2468.5,1479.2,1405.8,1168.2,-1.0,-12.0,4.0,9409.0,-10019.0,6660.0,-5930.0,-177.0,555.0,113.0,-7.0,2.0,5.0,9012.0,-13200.0,3530.0,-729.0,318.0,129.0,-1.0,1.0
2022-05-06 14:41:41.190927-07:00,1052.2,657.9,1471.8,1329.6,1470.0,776.1,1750.2,1545.0,3464.9,3473.4,1530.1,1074.7,1591.7,3479.5,2327.4,1499.5,3489.2,3472.2,311.3,569.0,831.1,1061.7,526.6,1561.8,3483.2,3473.4,692.9,927.1,2468.5,1479.2,1405.8,1115.6,71.0,-11.0,84.0,9315.0,-9899.0,6878.0,-6032.0,274.0,1092.0,391.0,20.0,52.0,3.0,9102.0,-13124.0,3572.0,-774.0,618.0,88.0,85.0,1.0
2022-05-06 14:41:41.220991-07:00,1052.2,652.2,1528.3,1361.2,1470.0,776.1,1750.2,1501.4,3464.9,3471.0,1516.2,1067.7,1591.7,3479.5,2327.4,1491.2,3474.6,3472.2,311.3,569.0,833.6,1059.1,516.3,1561.8,3474.6,3473.4,692.9,927.1,2408.1,1495.8,1423.1,1115.6,-5.0,17.0,-3.0,9212.0,-9634.0,7180.0,-6261.0,-14.0,843.0,192.0,5.0,3.0,14.0,9221.0,-13024.0,3619.0,-829.0,133.0,127.0,68.0,1.0
2022-05-06 14:41:41.251157-07:00,1053.0,652.2,1528.3,1361.2,1425.0,767.0,1776.2,1501.4,3469.8,3471.0,1516.2,1067.7,1581.4,3471.0,2296.2,1491.2,3474.6,3468.6,305.1,566.6,833.6,1059.1,516.3,1548.7,3474.6,3483.2,706.0,925.4,2408.1,1495.8,1423.1,1074.7,-69.0,-142.0,-22.0,9166.0,-9329.0,7477.0,-6441.0,880.0,876.0,863.0,-43.0,-142.0,53.0,9293.0,-12951.0,3692.0,-849.0,591.0,83.0,249.0,1.0
2022-05-06 14:41:41.310899-07:00,1053.0,659.5,1489.3,1278.3,1425.0,767.0,1776.2,1520.8,3469.8,3475.9,1515.3,1067.7,1581.4,3471.0,2296.2,1509.7,3475.9,3468.6,305.1,566.6,831.1,1060.8,514.7,1548.7,3472.2,3483.2,706.0,925.4,2355.6,1471.8,1425.9,1074.7,80.0,151.0,-68.0,9368.0,-8877.0,7665.0,-6566.0,764.0,498.0,641.0,35.0,152.0,-35.0,9580.0,-12709.0,3789.0,-883.0,700.0,28.0,241.0,1.0
2022-05-06 14:41:41.371307-07:00,1063.4,659.5,1489.3,1278.3,1523.6,772.0,1838.2,1520.8,3466.1,3475.9,1515.3,1067.7,1588.9,3479.5,2253.8,1509.7,3475.9,3478.3,302.0,568.2,831.1,1060.8,514.7,1545.0,3472.2,3480.7,695.4,917.7,2355.6,1471.8,1425.9,1474.6,76.0,-118.0,33.0,9651.0,-8357.0,7733.0,-6756.0,2286.0,494.0,795.0,-11.0,-35.0,-10.0,9720.0,-12597.0,3811.0,-861.0,383.0,-127.0,141.0,1.0
2022-05-06 14:41:41.401081-07:00,1063.4,653.0,1385.7,1210.6,1523.6,772.0,1828.4,1519.9,3466.1,3472.2,1501.4,1060.8,1588.9,3479.5,2283.8,1555.3,3477.1,3479.5,302.0,568.2,839.4,1059.9,515.5,1545.0,3479.5,3467.4,695.4,917.7,2308.7,1404.0,1356.7,1474.6,-23.0,114.0,-2.0,10076.0,-7382.0,7844.0,-7134.0,953.0,1863.0,1201.0,-29.0,74.0,-75.0,10022.0,-12369.0,3773.0,-875.0,328.0,-69.0,137.0,1.0
2022-05-06 14:41:41.461060-07:00,1069.5,689.7,1385.7,1210.6,1429.5,762.0,1828.4,1519.9,3466.1,3475.9,1501.4,1060.8,1628.4,3474.6,2283.8,1555.3,3477.1,3479.5,300.5,571.4,839.4,1059.9,532.2,1545.9,3479.5,3467.4,708.5,913.5,2308.7,1404.0,1360.3,1343.1,-55.0,12.0,-104.0,9946.0,-6797.0,8489.0,-7158.0,-1219.0,1179.0,1065.0,8.0,-40.0,34.0,9773.0,-12537.0,3892.0,-775.0,-1333.0,191.0,272.0,1.0
2022-05-06 14:41:41.580996-07:00,1069.5,689.7,1374.8,1196.5,1429.5,762.0,1848.9,1549.7,3466.1,3475.9,1485.6,1055.6,1628.4,3474.6,2244.5,1640.7,3472.2,3471.0,300.5,571.4,838.6,1066.9,532.2,1545.9,3477.1,3475.9,708.5,913.5,2268.3,1396.7,1360.3,1343.1,-25.0,229.0,-120.0,9731.0,-6598.0,9117.0,-6862.0,-153.0,1076.0,794.0,44.0,-36.0,146.0,9355.0,-12812.0,4044.0,-645.0,-870.0,158.0,190.0,1.0
2022-05-06 14:41:41.582198-07:00,1106.0,679.9,1374.8,1196.5,1392.1,760.4,1848.9,1549.7,3471.0,3464.9,1485.6,1055.6,1598.3,3475.9,2244.5,1640.7,3472.2,3471.0,312.0,572.2,838.6,1066.9,585.9,1544.1,3477.1,3475.9,717.5,948.3,2268.3,1396.7,1344.0,1284.6,11.0,12.0,-60.0,9621.0,-6630.0,9412.0,-6582.0,-1148.0,-254.0,239.0,-21.0,68.0,-67.0,9050.0,-13012.0,4101.0,-631.0,-1177.0,197.0,-90.0,1.0
2022-05-06 14:41:41.611052-07:00,1106.0,679.9,1357.6,1186.7,1392.1,760.4,1845.0,1561.8,3471.0,3464.9,1503.2,1081.6,1598.3,3475.9,2357.7,1574.9,3478.3,3478.3,312.0,572.2,835.2,1063.4,585.9,1544.1,3474.6,3480.7,717.5,948.3,2236.3,1374.8,1344.0,1284.6,-28.0,27.0,15.0,9534.0,-6863.0,9453.0,-6409.0,411.0,-18.0,-448.0,8.0,13.0,45.0,8778.0,-13197.0,4106.0,-591.0,-275.0,27.0,-89.0,1.0
2022-05-06 14:41:41.671066-07:00,1135.7,688.9,1343.1,1186.7,1366.6,757.1,1845.0,1561.8,3469.8,3475.9,1562.7,1081.6,1612.4,3473.4,2357.7,1574.9,3478.3,3478.3,304.3,568.2,835.2,1058.2,626.2,1580.5,3474.6,3480.7,711.8,952.6,2236.3,1354.0,1309.7,1221.3,57.0,42.0,-98.0,9513.0,-7078.0,9340.0,-6372.0,-1396.0,-687.0,-392.0,2.0,58.0,-58.0,8534.0,-13363.0,4086.0,-591.0,-1031.0,136.0,-227.0,1.0
2022-05-06 14:41:41.761012-07:00,1135.7,688.9,1343.1,1160.3,1366.6,755.4,1825.5,1532.0,3469.8,3475.9,1562.7,1042.6,1612.4,3468.6,2163.6,1505.1,3475.9,3475.9,302.8,568.2,840.3,1058.2,626.2,1580.5,3483.2,3477.1,701.9,952.6,2228.1,1354.0,1309.7,1221.3,18.0,-58.0,13.0,9360.0,-7550.0,9341.0,-6048.0,-645.0,-344.0,-121.0,2.0,-59.0,5.0,8206.0,-13581.0,4043.0,-559.0,-497.0,12.0,-180.0,1.0
2022-05-06 14:41:41.762187-07:00,1126.1,701.1,1263.1,1160.3,1354.9,755.4,1825.5,1532.0,3467.4,3468.6,1395.7,1042.6,1612.4,3468.6,2163.6,1505.1,3475.9,3475.9,302.8,568.2,840.3,1059.9,627.0,1599.3,3483.2,3477.1,701.9,937.3,2228.1,1335.9,1289.1,1218.6,53.0,0.0,-3.0,9330.0,-7799.0,9303.0,-5832.0,-756.0,-449.0,-24.0,0.0,46.0,-29.0,8070.0,-13675.0,4001.0,-545.0,-408.0,-11.0,-115.0,1.0
2022-05-06 14:41:41.821406-07:00,1126.1,701.1,1263.1,1134.9,1354.9,754.6,1793.6,1495.8,3467.4,3468.6,1395.7,1006.5,1612.4,3474.6,1847.9,1418.6,3475.9,3477.1,307.4,568.2,844.4,1059.9,627.0,1599.3,3481.9,3478.3,700.3,937.3,2226.0,1335.9,1289.1,1218.6,32.0,-61.0,69.0,9268.0,-7945.0,9357.0,-5645.0,70.0,187.0,177.0,16.0,-28.0,47.0,7974.0,-13742.0,3969.0,-519.0,37.0,-58.0,-41.0,1.0
2022-05-06 14:41:41.911156-07:00,1143.6,692.1,1219.5,1134.9,1340.4,754.6,1793.6,1495.8,3478.3,3478.3,1317.8,1006.5,1589.9,3474.6,1847.9,1418.6,3475.9,3477.1,307.4,561.0,844.4,1060.8,622.2,1601.1,3481.9,3478.3,700.3,845.3,2226.0,1274.7,1200.9,1200.9,22.0,2.0,26.0,9292.0,-7883.0,9400.0,-5619.0,-237.0,-115.0,108.0,-6.0,5.0,-17.0,8005.0,-13727.0,3957.0,-526.0,-57.0,4.0,-7.0,1.0
2022-05-06 14:41:41.912340-07:00,1143.6,692.1,1219.5,1106.0,1340.4,752.9,1760.8,1455.2,3478.3,3478.3,1317.8,979.0,1589.9,3477.1,1757.0,1378.5,3478.3,3467.4,308.2,561.0,837.7,1060.8,622.2,1601.1,3475.9,3474.6,692.9,845.3,2188.1,1274.7,1200.9,1200.9,28.0,-9.0,33.0,9253.0,-7921.0,9455.0,-5541.0,-147.0,195.0,60.0,5.0,-13.0,14.0,7942.0,-13761.0,3969.0,-512.0,-144.0,25.0,25.0,1.0
2022-05-06 14:41:41.970993-07:00,1153.3,696.2,1184.1,1088.6,1331.4,752.9,1760.8,1455.2,3477.1,3467.4,1284.6,971.3,1578.6,3477.1,1757.0,1378.5,3478.3,3467.4,308.2,570.6,832.7,1053.9,618.9,1601.1,3475.9,3474.6,692.9,801.9,2162.6,1243.5,1162.1,1188.5,7.0,18.0,-34.0,9218.0,-7916.0,9495.0,-5536.0,-15.0,-123.0,-16.0,3.0,4.0,0.0,7928.0,-13766.0,3977.0,-515.0,48.0,11.0,7.0,1.0
2022-05-06 14:41:42.001301-07:00,1153.3,696.2,1184.1,1088.6,1318.7,747.2,1744.5,1444.2,3477.1,3467.4,1284.6,971.3,1567.4,3471.0,1730.1,1372.1,3474.6,3467.4,299.0,573.0,832.7,1053.9,618.9,1601.1,3479.5,3479.5,687.2,784.4,2162.6,1243.5,1162.1,1188.5,62.0,-4.0,10.0,9245.0,-7961.0,9447.0,-5508.0,-33.0,8.0,-78.0,3.0,46.0,-54.0,7928.0,-13767.0,3972.0,-516.0,-45.0,-17.0,-26.0,1.0
2022-05-06 14:41:42.061694-07:00,1161.2,699.5,1164.7,1079.9,1318.7,747.2,1744.5,1444.2,3472.2,3471.0,1261.3,959.4,1567.4,3471.0,1730.1,1372.1,3474.6,3467.4,299.0,573.0,853.7,1056.5,607.6,1594.6,3479.5,3479.5,687.2,784.4,2142.2,1210.6,1147.1,1177.0,3.0,6.0,7.0,9236.0,-7964.0,9429.0,-5550.0,88.0,-76.0,-109.0,5.0,-3.0,22.0,7926.0,-13772.0,3961.0,-514.0,54.0,-12.0,-23.0,1.0
2022-05-06 14:41:42.091408-07:00,1161.2,699.5,1164.7,1079.9,1319.6,742.2,1727.2,1451.6,3472.2,3471.0,1261.3,959.4,1572.1,3478.3,1708.1,1356.7,3477.1,3475.9,308.2,572.2,853.7,1056.5,607.6,1594.6,3480.7,3474.6,682.3,785.2,2142.2,1210.6,1147.1,1177.0,45.0,-27.0,24.0,9251.0,-8004.0,9375.0,-5560.0,-74.0,-6.0,-54.0,6.0,12.0,-16.0,7930.0,-13772.0,3951.0,-521.0,-72.0,11.0,-21.0,1.0
2022-05-06 14:41:42.151124-07:00,1157.7,700.3,1147.1,1068.6,1319.6,742.2,1727.2,1451.6,3468.6,3472.2,1252.4,962.0,1572.1,3478.3,1708.1,1356.7,3477.1,3475.9,308.2,572.2,840.3,1059.1,606.0,1596.4,3480.7,3474.6,682.3,785.2,2134.1,1210.6,1130.5,1166.5,15.0,5.0,29.0,9221.0,-8017.0,9388.0,-5568.0,-76.0,31.0,-44.0,8.0,0.0,13.0,7918.0,-13778.0,3955.0,-524.0,-23.0,27.0,12.0,1.0
2022-05-06 14:41:42.210967-07:00,1153.3,700.3,1147.1,1068.6,1308.8,739.7,1715.8,1403.0,3471.0,3472.2,1252.4,962.0,1553.4,3471.0,1692.9,1354.0,3480.7,3480.7,312.8,564.2,840.3,1059.1,606.0,1573.0,3488.0,3479.5,682.3,785.2,2134.1,1210.6,1130.5,1164.7,23.0,7.0,-2.0,9200.0,-8034.0,9388.0,-5578.0,-9.0,-5.0,-56.0,5.0,18.0,-3.0,7908.0,-13780.0,3968.0,-531.0,-2.0,37.0,16.0,1.0
2022-05-06 14:41:42.241202-07:00,1153.3,703.6,1147.1,1063.4,1308.8,739.7,1715.8,1390.3,3471.0,3471.0,1242.6,960.2,1553.4,3471.0,1692.9,1343.1,3479.5,3480.7,312.8,564.2,833.6,1062.5,594.7,1573.0,3483.2,3479.5,682.3,785.2,2119.9,1187.6,1125.2,1164.7,14.0,-19.0,-13.0,9172.0,-8050.0,9403.0,-5575.0,-67.0,39.0,9.0,5.0,-18.0,-7.0,7885.0,-13789.0,3980.0,-538.0,-49.0,27.0,16.0,1.0
2022-05-06 14:41:42.301547-07:00,1157.7,703.6,1147.1,1063.4,1305.2,738.9,1710.0,1390.3,3464.9,3471.0,1242.6,960.2,1539.4,3457.6,1689.1,1343.1,3479.5,3478.3,305.9,576.2,833.6,1062.5,594.7,1564.6,3483.2,3467.4,682.3,787.7,2119.9,1187.6,1125.2,1155.0,33.0,39.0,-22.0,9179.0,-8060.0,9385.0,-5581.0,31.0,-117.0,-74.0,8.0,29.0,-17.0,7894.0,-13782.0,3984.0,-542.0,56.0,5.0,-13.0,1.0
2022-05-06 14:41:42.451154-07:00,1157.7,706.0,1146.3,1054.8,1305.2,738.9,1710.0,1373.9,3464.9,3479.5,1231.0,951.7,1539.4,3457.6,1689.1,1341.3,3483.2,3478.3,305.9,576.2,838.6,1055.6,600.4,1564.6,3486.8,3467.4,682.3,787.7,2098.7,1179.7,1113.9,1155.0,8.0,-22.0,9.0,9190.0,-8093.0,9349.0,-5576.0,-46.0,-86.0,-40.0,3.0,-20.0,-4.0,7889.0,-13787.0,3977.0,-545.0,-23.0,-5.0,-14.0,1.0
2022-05-06 14:41:42.452358-07:00,1155.9,706.0,1146.3,1054.8,1297.2,734.0,1703.3,1373.9,3475.9,3479.5,1231.0,951.7,1539.4,3481.9,1674.8,1341.3,3483.2,3477.1,312.0,579.4,838.6,1055.6,600.4,1575.8,3486.8,3480.7,679.9,796.0,2098.7,1179.7,1113.9,1147.1,26.0,9.0,21.0,9202.0,-8110.0,9318.0,-5582.0,97.0,-64.0,-68.0,6.0,6.0,12.0,7897.0,-13785.0,3968.0,-542.0,34.0,-31.0,-11.0,1.0
2022-05-06 14:41:42.541996-07:00,1155.9,703.6,1147.1,1061.7,1297.2,734.0,1692.9,1364.8,3475.9,3475.9,1219.5,956.8,1539.4,3481.9,1665.3,1342.2,3472.2,3481.9,312.0,579.4,841.9,1062.5,597.1,1575.8,3463.7,3479.5,679.9,796.0,2089.6,1179.7,1104.3,1147.1,28.0,-9.0,11.0,9215.0,-8127.0,9281.0,-5598.0,-73.0,-33.0,-56.0,5.0,5.0,-17.0,7907.0,-13782.0,3958.0,-548.0,-28.0,6.0,-24.0,1.0
2022-05-06 14:41:42.543219-07:00,1154.2,706.0,1147.1,1061.7,1287.3,731.5,1692.9,1364.8,3472.2,3467.4,1219.5,956.8,1542.2,3469.8,1665.3,1342.2,3472.2,3481.9,308.2,567.4,841.9,1062.5,597.9,1559.9,3463.7,3479.5,683.1,792.7,2089.6,1179.7,1099.0,1144.5,29.0,-17.0,29.0,9213.0,-8138.0,9273.0,-5597.0,139.0,-14.0,-12.0,7.0,-11.0,3.0,7900.0,-13787.0,3956.0,-546.0,71.0,-10.0,12.0,1.0
2022-05-06 14:41:42.544154-07:00,1154.2,706.0,1146.3,1053.9,1287.3,731.5,1682.4,1352.1,3472.2,3467.4,1217.7,950.0,1542.2,3469.8,1656.8,1326.8,3473.4,3480.7,308.2,567.4,836.1,1061.7,597.9,1559.9,3475.9,3485.6,683.1,792.7,2083.6,1174.4,1099.0,1144.5,29.0,20.0,-2.0,9235.0,-8132.0,9243.0,-5620.0,-85.0,-19.0,-70.0,2.0,20.0,-18.0,7928.0,-13769.0,3962.0,-555.0,17.0,28.0,4.0,1.0
2022-05-06 14:41:42.601608-07:00,1150.6,712.6,1146.3,1053.9,1284.6,732.3,1682.4,1352.1,3466.1,3467.4,1217.7,950.0,1535.7,3479.5,1656.8,1326.8,3473.4,3480.7,312.0,565.0,836.1,1061.7,591.5,1557.1,3475.9,3485.6,679.1,795.2,2083.6,1174.4,1093.8,1134.9,16.0,-26.0,9.0,9201.0,-8169.0,9247.0,-5616.0,-5.0,31.0,-19.0,8.0,-17.0,8.0,7897.0,-13785.0,3967.0,-554.0,-58.0,13.0,-1.0,1.0
2022-05-06 14:41:42.661704-07:00,1150.6,712.6,1140.1,1048.7,1284.6,732.3,1687.2,1357.6,3466.1,3467.4,1201.8,953.4,1535.7,3479.5,1650.2,1326.8,3478.3,3481.9,312.0,565.0,835.2,1060.8,591.5,1557.1,3474.6,3475.9,679.1,795.2,2077.5,1169.1,1093.8,1134.9,33.0,17.0,-8.0,9219.0,-8174.0,9226.0,-5613.0,-2.0,-130.0,-31.0,2.0,17.0,-12.0,7909.0,-13778.0,3967.0,-559.0,49.0,1.0,8.0,1.0
2022-05-06 14:41:42.691578-07:00,1172.6,706.0,1141.0,1048.7,1282.8,730.7,1687.2,1357.6,3478.3,3480.7,1200.9,953.4,1536.6,3474.6,1650.2,1326.8,3478.3,3481.9,305.1,566.6,835.2,1063.4,602.0,1567.4,3474.6,3475.9,677.4,802.7,2077.5,1167.4,1089.5,1121.7,25.0,-3.0,22.0,9226.0,-8206.0,9200.0,-5599.0,-38.0,4.0,-35.0,2.0,-6.0,0.0,7898.0,-13785.0,3965.0,-559.0,-37.0,-2.0,-14.0,1.0
2022-05-06 14:41:42.751554-07:00,1172.6,706.0,1141.0,1046.1,1282.8,729.9,1678.6,1346.7,3478.3,3480.7,1200.9,946.6,1536.6,3467.4,1639.8,1324.1,3475.9,3483.2,312.0,566.6,837.7,1063.4,602.0,1567.4,3480.7,3473.4,677.4,802.7,2059.4,1167.4,1089.5,1121.7,18.0,-8.0,9.0,9228.0,-8222.0,9180.0,-5604.0,7.0,-76.0,-25.0,5.0,-1.0,-1.0,7899.0,-13785.0,3961.0,-561.0,16.0,-4.0,-1.0,1.0
2022-05-06 14:41:42.811043-07:00,1155.0,707.7,1135.7,1046.1,1279.2,729.9,1678.6,1346.7,3467.4,3466.1,1199.1,946.6,1531.0,3467.4,1639.8,1324.1,3475.9,3483.2,312.0,569.0,837.7,1062.5,586.7,1549.7,3480.7,3473.4,677.4,802.7,2059.4,1165.6,1084.2,1129.6,25.0,-9.0,21.0,9231.0,-8229.0,9170.0,-5607.0,-5.0,37.0,36.0,4.0,1.0,-8.0,7898.0,-13786.0,3961.0,-559.0,4.0,-5.0,11.0,1.0
2022-05-06 14:41:42.901174-07:00,1155.0,707.7,1135.7,1049.6,1279.2,726.6,1670.1,1338.6,3467.4,3466.1,1199.1,944.9,1531.0,3472.2,1634.1,1322.3,3480.7,3473.4,305.1,569.0,837.7,1062.5,586.7,1549.7,3478.3,3471.0,675.8,802.7,2058.4,1165.6,1084.2,1129.6,21.0,11.0,6.0,9230.0,-8220.0,9174.0,-5614.0,-7.0,-21.0,-16.0,4.0,4.0,4.0,7904.0,-13782.0,3964.0,-561.0,0.0,11.0,6.0,1.0
2022-05-06 14:41:42.902369-07:00,1154.2,706.0,1134.9,1049.6,1271.2,726.6,1670.1,1338.6,3467.4,3471.0,1196.5,944.9,1529.2,3472.2,1634.1,1322.3,3480.7,3473.4,305.1,568.2,837.7,1063.4,588.3,1540.3,3478.3,3471.0,675.8,800.2,2058.4,1157.7,1082.5,1116.5,19.0,-19.0,6.0,9225.0,-8230.0,9169.0,-5617.0,10.0,24.0,19.0,3.0,-5.0,-6.0,7896.0,-13786.0,3964.0,-559.0,7.0,5.0,9.0,1.0
2022-05-06 14:41:42.991091-07:00,1154.2,706.0,1134.9,1047.8,1271.2,729.0,1671.0,1337.7,3467.4,3471.0,1196.5,939.8,1529.2,3468.6,1624.7,1325.0,3475.9,3475.9,304.3,568.2,831.9,1063.4,588.3,1540.3,3480.7,3473.4,670.9,800.2,2047.4,1157.7,1082.5,1116.5,16.0,12.0,3.0,9224.0,-8229.0,9172.0,-5614.0,-21.0,-42.0,-16.0,5.0,0.0,7.0,7896.0,-13786.0,3966.0,-558.0,-22.0,-4.0,1.0,1.0
2022-05-06 14:41:43.021566-07:00,1156.8,699.5,1136.6,1045.2,1276.5,729.0,1671.0,1337.7,3462.5,3474.6,1190.3,947.5,1526.4,3468.6,1624.7,1325.0,3475.9,3475.9,304.3,563.4,838.6,1061.7,589.9,1548.7,3480.7,3473.4,670.9,788.6,2039.4,1150.6,1079.9,1119.1,15.0,10.0,-5.0,9230.0,-8242.0,9151.0,-5618.0,-12.0,-40.0,-47.0,5.0,11.0,-14.0,7899.0,-13784.0,3966.0,-560.0,-9.0,2.0,-7.0,1.0
2022-05-06 14:41:43.051073-07:00,1156.8,699.5,1136.6,1045.2,1267.6,723.3,1671.9,1327.8,3462.5,3474.6,1190.3,947.5,1526.4,3464.9,1624.7,1320.5,3473.4,3480.7,304.3,562.6,838.6,1061.7,589.9,1548.7,3478.3,3481.9,678.2,797.7,2039.4,1150.6,1079.9,1119.1,10.0,-2.0,4.0,9224.0,-8273.0,9133.0,-5612.0,-36.0,-110.0,-43.0,7.0,3.0,4.0,7886.0,-13793.0,3961.0,-559.0,-11.0,3.0,-18.0,1.0
2022-05-06 14:41:43.141130-07:00,1146.3,708.5,1125.2,1044.4,1267.6,723.3,1671.9,1327.8,3475.9,3473.4,1186.7,943.2,1526.4,3464.9,1624.7,1320.5,3473.4,3480.7,304.3,562.6,840.3,1065.1,584.3,1549.7,3478.3,3481.9,678.2,797.7,2052.4,1155.0,1075.6,1112.1,16.0,-7.0,12.0,9239.0,-8290.0,9105.0,-5608.0,57.0,-27.0,6.0,6.0,-10.0,-5.0,7892.0,-13791.0,3956.0,-560.0,42.0,-14.0,-2.0,1.0
2022-05-06 14:41:43.142489-07:00,1146.3,708.5,1125.2,1044.4,1264.9,724.9,1671.9,1334.1,3475.9,3473.4,1186.7,943.2,1520.8,3457.6,1622.8,1316.9,3477.1,3477.1,308.2,563.4,840.3,1065.1,584.3,1549.7,3478.3,3477.1,669.3,799.4,2052.4,1155.0,1075.6,1112.1,10.0,15.0,6.0,9249.0,-8293.0,9087.0,-5616.0,-34.0,-80.0,-51.0,8.0,-3.0,19.0,7898.0,-13788.0,3954.0,-563.0,-18.0,12.0,-10.0,1.0
2022-05-06 14:41:43.321126-07:00,1145.4,701.1,1122.6,1044.4,1264.9,724.9,1671.9,1334.1,3475.9,3474.6,1180.6,943.2,1520.8,3457.6,1622.8,1316.9,3477.1,3477.1,308.2,563.4,836.1,1059.9,585.9,1547.8,3478.3,3477.1,669.3,799.4,2031.4,1148.9,1077.3,1106.9,24.0,-35.0,16.0,9245.0,-8327.0,9071.0,-5598.0,-23.0,8.0,7.0,4.0,-7.0,-13.0,7883.0,-13796.0,3956.0,-562.0,-4.0,-4.0,8.0,1.0
2022-05-06 14:41:43.322325-07:00,1142.7,701.1,1122.6,1044.4,1260.4,728.2,1675.7,1332.3,3472.2,3474.6,1180.6,943.2,1515.3,3464.9,1631.3,1320.5,3473.4,3481.9,305.9,569.8,836.1,1059.9,585.9,1546.9,3475.9,3468.6,675.8,809.4,2031.4,1148.9,1077.3,1108.6,16.0,25.0,6.0,9253.0,-8309.0,9075.0,-5607.0,17.0,15.0,0.0,7.0,9.0,3.0,7897.0,-13787.0,3959.0,-564.0,-16.0,7.0,4.0,1.0
2022-05-06 14:41:43.323683-07:00,1142.7,696.2,1127.9,1051.3,1260.4,728.2,1675.7,1334.1,3472.2,3473.4,1177.9,937.3,1515.3,3464.9,1631.3,1318.7,3474.6,3481.9,305.9,569.8,836.1,1062.5,585.1,1546.9,3480.7,3468.6,675.8,809.4,2022.4,1150.6,1079.9,1108.6,26.0,-1.0,5.0,9247.0,-8316.0,9072.0,-5609.0,-31.0,-13.0,-1.0,4.0,15.0,-11.0,7880.0,-13796.0,3963.0,-565.0,-47.0,13.0,4.0,1.0
2022-05-06 14:41:43.411208-07:00,1147.1,696.2,1127.9,1051.3,1261.3,728.2,1670.1,1334.1,3474.6,3473.4,1177.9,937.3,1518.0,3478.3,1614.3,1318.7,3474.6,3472.2,303.6,561.8,836.1,1062.5,585.1,1548.7,3480.7,3479.5,670.1,811.9,2022.4,1150.6,1079.9,1097.3,17.0,-7.0,41.0,9232.0,-8309.0,9089.0,-5618.0,67.0,144.0,45.0,6.0,-21.0,14.0,7863.0,-13801.0,3980.0,-563.0,22.0,24.0,49.0,1.0
2022-05-06 14:41:43.413707-07:00,1147.1,700.3,1127.0,1047.8,1261.3,728.2,1670.1,1332.3,3474.6,3474.6,1178.8,944.1,1518.0,3478.3,1614.3,1332.3,3478.3,3472.2,303.6,561.8,847.0,1062.5,589.9,1548.7,3480.7,3479.5,670.1,811.9,2043.4,1145.4,1066.0,1097.3,-3.0,-9.0,23.0,9255.0,-8246.0,9075.0,-5693.0,356.0,-17.0,-95.0,9.0,-19.0,7.0,7928.0,-13753.0,4013.0,-574.0,245.0,10.0,123.0,1.0
2022-05-06 14:41:43.531033-07:00,1134.9,700.3,1127.0,1047.8,1259.6,745.5,1680.5,1332.3,3473.4,3474.6,1178.8,944.1,1510.6,3469.8,1697.6,1332.3,3478.3,3477.1,305.9,563.4,847.0,1062.5,589.9,1537.6,3480.7,3481.9,674.2,960.2,2043.4,1145.4,1066.0,1100.8,6.0,15.0,-1.0,9361.0,-8146.0,8914.0,-5915.0,1166.0,328.0,-407.0,-4.0,18.0,42.0,8165.0,-13603.0,4047.0,-594.0,856.0,-48.0,123.0,1.0
2022-05-06 14:41:43.561862-07:00,1134.9,698.7,1121.7,1042.6,1259.6,745.5,1911.5,1496.7,3473.4,3473.4,1250.6,965.4,1510.6,3469.8,1965.7,1430.5,3473.4,3479.5,305.9,563.4,838.6,1070.3,589.9,1537.6,3474.6,3480.7,674.2,960.2,2023.4,1206.2,1108.6,1100.8,43.0,-6.0,-84.0,9507.0,-7923.0,8679.0,-6321.0,1038.0,153.0,-386.0,-25.0,42.0,-87.0,8556.0,-13361.0,4036.0,-652.0,1101.0,-155.0,59.0,1.0
2022-05-06 14:41:43.563364-07:00,1106.0,690.5,1121.7,1042.6,1259.6,757.1,1911.5,1496.7,3464.9,3479.5,1250.6,965.4,1518.0,3471.0,1965.7,1430.5,3473.4,3479.5,307.4,563.4,838.6,1070.3,585.9,1573.9,3474.6,3480.7,692.9,989.3,2023.4,1206.2,1306.1,1100.8,44.0,-25.0,-47.0,9573.0,-7649.0,8526.0,-6751.0,1622.0,692.0,-210.0,14.0,40.0,56.0,8940.0,-13120.0,3991.0,-673.0,1166.0,-189.0,26.0,1.0
2022-05-06 14:41:43.621011-07:00,1106.0,690.5,1207.1,1081.6,1259.6,757.1,1974.6,1493.0,3464.9,3479.5,1461.7,981.6,1518.0,3471.0,2434.6,1575.8,3467.4,3483.2,307.4,563.4,831.1,1061.7,585.9,1573.9,3472.2,3485.6,692.9,989.3,2025.4,1424.1,1306.1,1100.8,-55.0,-4.0,14.0,9837.0,-7144.0,8286.0,-7210.0,1493.0,-3.0,97.0,15.0,-47.0,37.0,9440.0,-12786.0,3910.0,-748.0,1268.0,-191.0,-27.0,1.0
2022-05-06 14:41:43.651744-07:00,1111.2,686.4,1207.1,1081.6,1256.9,750.5,1974.6,1493.0,3473.4,3473.4,1461.7,981.6,1553.4,3474.6,2434.6,1575.8,3467.4,3483.2,309.0,566.6,831.1,1061.7,588.3,1607.7,3472.2,3485.6,707.7,1007.3,2025.4,1424.1,1441.5,1100.8,58.0,106.0,-62.0,10081.0,-6875.0,7986.0,-7467.0,578.0,-271.0,-214.0,29.0,95.0,-28.0,9753.0,-12563.0,3852.0,-812.0,509.0,-71.0,-49.0,1.0
2022-05-06 14:41:43.711384-07:00,1111.2,686.4,1364.8,1191.2,1256.9,750.5,1958.8,1502.3,3473.4,3473.4,1572.1,1037.5,1553.4,3474.6,2342.0,1690.0,3473.4,3483.2,309.0,566.6,835.2,1057.3,588.3,1607.7,3475.9,3477.1,707.7,1007.3,2048.4,1486.6,1441.5,1100.8,-27.0,-25.0,-3.0,10144.0,-6908.0,7817.0,-7531.0,161.0,-386.0,-238.0,0.0,-27.0,18.0,9847.0,-12498.0,3819.0,-830.0,353.0,-43.0,-38.0,1.0
2022-05-06 14:41:43.771111-07:00,1098.2,685.6,1364.8,1191.2,1256.9,757.1,1958.8,1502.3,3469.8,3483.2,1572.1,1037.5,1605.8,3469.8,2342.0,1690.0,3473.4,3483.2,303.6,569.8,835.2,1057.3,585.1,1623.7,3475.9,3477.1,719.2,986.7,2048.4,1486.6,1396.7,1096.4,30.0,54.0,-75.0,10247.0,-6973.0,7611.0,-7541.0,152.0,-573.0,-121.0,14.0,34.0,-9.0,9987.0,-12395.0,3784.0,-866.0,296.0,-72.0,-63.0,1.0
2022-05-06 14:41:43.801085-07:00,1098.2,685.6,1461.7,1257.8,1256.9,752.1,1951.9,1481.9,3469.8,3483.2,1564.6,1063.4,1605.8,3464.9,2255.9,1683.3,3488.0,3471.0,306.7,569.8,835.2,1063.4,585.1,1623.7,3483.2,3473.4,732.3,986.7,2038.4,1458.0,1396.7,1096.4,-11.0,6.0,-5.0,10368.0,-7063.0,7377.0,-7526.0,587.0,-584.0,-212.0,3.0,-17.0,50.0,10090.0,-12324.0,3737.0,-886.0,633.0,-78.0,-58.0,1.0
2022-05-06 14:41:43.891426-07:00,1098.2,685.6,1495.8,1257.8,1250.6,752.1,1951.9,1481.9,3478.3,3469.8,1559.9,1063.4,1621.8,3464.9,2255.9,1683.3,3488.0,3471.0,306.7,567.4,835.2,1059.1,579.4,1635.0,3483.2,3473.4,732.3,977.3,2038.4,1437.8,1379.4,1089.5,54.0,70.0,-23.0,10518.0,-7111.0,7060.0,-7575.0,125.0,-532.0,-512.0,1.0,31.0,-52.0,10248.0,-12206.0,3683.0,-930.0,-9.0,-67.0,-99.0,1.0
2022-05-06 14:41:44.011128-07:00,1098.2,685.6,1495.8,1299.8,1250.6,750.5,1918.3,1461.7,3478.3,3469.8,1559.9,1066.9,1621.8,3479.5,2210.6,1678.6,3475.9,3467.4,306.7,567.4,832.7,1059.1,579.4,1635.0,3475.9,3467.4,763.7,977.3,2034.4,1437.8,1379.4,1089.5,-64.0,-73.0,-54.0,10518.0,-7276.0,6823.0,-7636.0,99.0,-628.0,-261.0,-22.0,-34.0,20.0,10245.0,-12223.0,3635.0,-926.0,286.0,-120.0,-77.0,1.0
2022-05-06 14:41:44.040768-07:00,1092.1,691.3,1519.9,1299.8,1244.4,750.5,1918.3,1461.7,3467.4,3466.1,1558.1,1066.9,1628.4,3479.5,2210.6,1678.6,3475.9,3467.4,306.7,563.4,832.7,1056.5,577.0,1620.9,3475.9,3467.4,763.7,986.7,2034.4,1431.4,1372.1,1097.3,50.0,-11.0,45.0,10577.0,-7420.0,6671.0,-7550.0,-171.0,-277.0,-81.0,6.0,5.0,-6.0,10318.0,-12176.0,3586.0,-925.0,39.0,-63.0,-5.0,1.0
2022-05-06 14:41:44.043890-07:00,1092.1,691.3,1519.9,1343.1,1244.4,744.7,1928.2,1449.7,3467.4,3466.1,1558.1,1079.9,1628.4,3467.4,2190.1,1680.5,3479.5,3467.4,302.0,563.4,831.1,1056.5,577.0,1620.9,3477.1,3475.9,762.9,986.7,2154.4,1431.4,1372.1,1097.3,23.0,10.0,-70.0,10547.0,-7543.0,6649.0,-7490.0,-325.0,-281.0,1.0,29.0,27.0,-3.0,10313.0,-12186.0,3574.0,-899.0,-63.0,-87.0,12.0,1.0
2022-05-06 14:41:44.131139-07:00,1098.2,686.4,1516.2,1333.2,1260.4,744.7,1928.2,1449.7,3469.8,3468.6,1561.8,1099.0,1648.3,3467.4,2190.1,1680.5,3479.5,3467.4,302.0,569.0,833.6,1053.9,574.6,1610.5,3477.1,3475.9,762.9,990.2,2139.2,1426.8,1339.5,1113.9,27.0,63.0,16.0,10538.0,-7716.0,6615.0,-7355.0,-457.0,-356.0,-93.0,20.0,56.0,-5.0,10303.0,-12208.0,3534.0,-869.0,-71.0,-136.0,-103.0,1.0
2022-05-06 14:41:44.132546-07:00,1098.2,686.4,1516.2,1333.2,1291.8,761.2,1896.7,1425.9,3469.8,3468.6,1561.8,1099.0,1667.2,3467.4,2158.5,1656.8,3472.2,3483.2,305.9,569.0,833.6,1053.9,574.6,1610.5,3472.2,3474.6,736.5,976.5,2139.2,1426.8,1339.5,1113.9,0.0,-53.0,-30.0,10519.0,-7896.0,6554.0,-7245.0,-256.0,-425.0,-53.0,-22.0,-44.0,6.0,10271.0,-12252.0,3478.0,-856.0,-36.0,-90.0,-74.0,1.0
2022-05-06 14:41:44.191053-07:00,1096.4,679.1,1509.7,1310.6,1291.8,761.2,1896.7,1425.9,3478.3,3475.9,1532.0,1062.5,1667.2,3467.4,2158.5,1656.8,3472.2,3483.2,305.9,569.0,827.7,1059.1,569.8,1586.1,3472.2,3474.6,736.5,976.5,2138.2,1404.0,1350.3,1141.9,21.0,58.0,-15.0,10531.0,-8042.0,6502.0,-7112.0,-361.0,-294.0,-80.0,-1.0,-1.0,0.0,10276.0,-12258.0,3444.0,-844.0,17.0,-54.0,-22.0,1.0
2022-05-06 14:41:44.192553-07:00,1096.4,679.1,1509.7,1310.6,1343.1,751.3,1869.3,1380.3,3478.3,3475.9,1532.0,1062.5,1659.6,3469.8,2153.4,1636.0,3473.4,3478.3,299.0,569.8,827.7,1059.1,569.8,1586.1,3477.1,3485.6,738.9,966.2,2138.2,1404.0,1350.3,1141.9,20.0,-53.0,-1.0,10475.0,-8247.0,6474.0,-6984.0,-286.0,-237.0,-30.0,-2.0,8.0,-43.0,10266.0,-12277.0,3411.0,-833.0,-53.0,-93.0,-55.0,1.0
2022-05-06 14:41:44.251628-07:00,1092.1,677.4,1472.7,1346.7,1343.1,751.3,1869.3,1380.3,3468.6,3473.4,1514.3,1053.0,1659.6,3469.8,2153.4,1636.0,3473.4,3478.3,299.0,569.8,827.7,1057.3,568.2,1559.0,3477.1,3485.6,738.9,966.2,2378.7,1448.8,1372.1,1147.1,45.0,20.0,36.0,10465.0,-8302.0,6485.0,-6925.0,-63.0,75.0,114.0,25.0,21.0,9.0,10301.0,-12261.0,3365.0,-819.0,107.0,-99.0,-57.0,1.0
2022-05-06 14:41:44.461444-07:00,1099.9,677.4,1472.7,1346.7,1622.8,762.9,1855.7,1377.5,3460.1,3473.4,1514.3,1053.0,1645.4,3469.8,2176.9,1635.0,3472.2,3472.2,305.1,577.0,827.7,1057.3,568.2,1546.9,3477.1,3477.1,713.4,963.7,2378.7,1448.8,1372.1,1148.0,57.0,69.0,8.0,10409.0,-8313.0,6575.0,-6910.0,-462.0,365.0,39.0,22.0,59.0,-25.0,10279.0,-12289.0,3331.0,-812.0,-310.0,-32.0,-98.0,1.0
2022-05-06 14:41:44.464099-07:00,1099.9,677.4,1460.8,1338.6,1622.8,762.9,1855.7,1295.4,3460.1,3474.6,1507.8,1050.4,1645.4,3469.8,2176.9,1604.9,3477.1,3472.2,305.1,577.0,835.2,1055.6,562.6,1546.9,3478.3,3477.1,713.4,963.7,2445.1,1412.2,1352.1,1148.0,-5.0,-51.0,-25.0,10220.0,-8370.0,6796.0,-6910.0,-550.0,412.0,-14.0,-3.0,-48.0,-7.0,10142.0,-12417.0,3280.0,-799.0,-409.0,-45.0,-157.0,1.0
2022-05-06 14:41:44.465013-07:00,1086.0,677.4,1460.8,1338.6,1509.7,774.5,1834.3,1295.4,3471.0,3474.6,1507.8,1050.4,1745.4,3467.4,2226.0,1604.9,3477.1,3478.3,305.1,578.6,835.2,1055.6,562.6,1549.7,3478.3,3469.8,720.8,1005.6,2445.1,1412.2,1352.1,1163.0,10.0,-50.0,-45.0,10044.0,-8454.0,7000.0,-6862.0,-554.0,268.0,190.0,9.0,-23.0,-29.0,9989.0,-12550.0,3249.0,-770.0,-600.0,-34.0,-43.0,1.0
2022-05-06 14:41:44.468401-07:00,1086.0,676.6,1453.4,1355.8,1509.7,774.5,1834.3,1279.2,3471.0,3479.5,1494.9,1029.7,1745.4,3467.4,2226.0,1570.2,3481.9,3478.3,305.1,578.6,831.1,1056.5,561.0,1549.7,3480.7,3469.8,720.8,1005.6,2495.1,1390.3,1338.6,1163.0,-11.0,-44.0,-14.0,9964.0,-8440.0,7213.0,-6776.0,-252.0,119.0,426.0,5.0,-55.0,27.0,9857.0,-12658.0,3249.0,-713.0,-317.0,-51.0,54.0,1.0
2022-05-06 14:41:44.551970-07:00,1083.4,676.6,1453.4,1355.8,1373.9,775.3,1823.6,1279.2,3472.2,3479.5,1494.9,1029.7,1783.9,3472.2,2185.0,1570.2,3481.9,3488.0,304.3,574.6,831.1,1056.5,561.0,1545.0,3480.7,3473.4,720.8,1008.2,2495.1,1390.3,1338.6,1135.7,29.0,8.0,45.0,9980.0,-8413.0,7373.0,-6609.0,-278.0,2.0,502.0,-4.0,-21.0,19.0,9761.0,-12727.0,3284.0,-638.0,-297.0,-45.0,164.0,1.0
2022-05-06 14:41:44.552940-07:00,1083.4,673.3,1456.2,1354.9,1373.9,775.3,1823.6,1259.6,3472.2,3473.4,1478.3,1024.5,1783.9,3472.2,2185.0,1542.2,3478.3,3488.0,304.3,574.6,831.1,1063.4,560.2,1545.0,3475.9,3473.4,720.8,1008.2,2516.5,1390.3,1325.9,1135.7,-6.0,90.0,43.0,9988.0,-8388.0,7562.0,-6413.0,-627.0,17.0,504.0,-11.0,31.0,77.0,9644.0,-12800.0,3354.0,-579.0,-483.0,122.0,157.0,1.0
2022-05-06 14:41:44.581118-07:00,1081.6,670.1,1456.2,1354.9,1302.5,779.4,1802.3,1259.6,3467.4,3477.1,1478.3,1024.5,1802.3,3467.4,2159.5,1542.2,3478.3,3477.1,306.7,566.6,831.1,1063.4,543.4,1544.1,3475.9,3477.1,708.5,1000.5,2516.5,1390.3,1319.6,1104.3,36.0,-14.0,38.0,9898.0,-8514.0,7802.0,-6092.0,-1024.0,-40.0,523.0,4.0,-22.0,-9.0,9374.0,-12969.0,3473.0,-561.0,-840.0,275.0,152.0,1.0
2022-05-06 14:41:44.641618-07:00,1081.6,670.1,1441.5,1345.8,1302.5,779.4,1792.6,1259.6,3467.4,3477.1,1466.3,1022.8,1802.3,3467.4,2142.2,1526.4,3464.9,3471.0,306.7,566.6,831.9,1057.3,543.4,1544.1,3478.3,3481.9,708.5,1000.5,2514.3,1390.3,1319.6,1104.3,-2.0,-22.0,-34.0,9695.0,-8686.0,8120.0,-5750.0,-1178.0,182.0,494.0,8.0,-34.0,-14.0,9030.0,-13176.0,3608.0,-525.0,-955.0,236.0,193.0,1.0
2022-05-06 14:41:44.790872-07:00,1086.0,673.3,1441.5,1345.8,1264.0,782.7,1792.6,1259.6,3467.4,3471.0,1466.3,1022.8,1815.8,3474.6,2142.2,1526.4,3464.9,3471.0,304.3,573.0,831.9,1057.3,541.8,1527.3,3478.3,3481.9,704.4,999.6,2514.3,1390.3,1309.7,1099.0,19.0,-38.0,-23.0,9498.0,-8870.0,8418.0,-5355.0,-1164.0,-100.0,526.0,11.0,-20.0,-39.0,8681.0,-13373.0,3746.0,-452.0,-901.0,165.0,236.0,1.0
2022-05-06 14:41:44.820982-07:00,1086.0,673.3,1435.0,1354.0,1264.0,782.7,1772.3,1257.8,3467.4,3471.0,1461.7,1028.8,1815.8,3474.6,2111.8,1523.6,3478.3,3477.1,304.3,573.0,830.2,1059.9,541.8,1527.3,3471.0,3478.3,704.4,999.6,2475.9,1378.5,1309.7,1099.0,41.0,-4.0,-16.0,9300.0,-9056.0,8670.0,-4977.0,-1171.0,-78.0,401.0,6.0,2.0,-17.0,8346.0,-13555.0,3862.0,-340.0,-967.0,51.0,224.0,1.0
2022-05-06 14:41:44.823626-07:00,1082.5,666.0,1435.0,1354.0,1249.7,785.2,1772.3,1257.8,3468.6,3469.8,1461.7,1028.8,1814.9,3474.6,2111.8,1523.6,3478.3,3477.1,307.4,565.8,830.2,1059.9,535.4,1524.5,3471.0,3478.3,706.0,992.7,2475.9,1378.5,1307.9,1078.2,20.0,-13.0,-15.0,9154.0,-9216.0,8839.0,-4645.0,-751.0,-216.0,350.0,0.0,15.0,-14.0,8080.0,-13696.0,3939.0,-235.0,-563.0,19.0,162.0,1.0
2022-05-06 14:41:44.881849-07:00,1082.5,666.0,1424.1,1342.2,1249.7,776.9,1778.1,1252.4,3468.6,3469.8,1458.9,1031.4,1814.9,3464.9,2086.6,1510.6,3471.0,3477.1,302.0,565.8,836.1,1056.5,535.4,1524.5,3472.2,3480.7,702.8,992.7,2442.0,1379.4,1307.9,1078.2,4.0,13.0,-24.0,9103.0,-9280.0,8941.0,-4418.0,-350.0,-92.0,265.0,3.0,-15.0,-18.0,7944.0,-13762.0,3988.0,-156.0,-247.0,-68.0,124.0,1.0
2022-05-06 14:41:44.882800-07:00,1085.1,676.6,1425.9,1342.2,1224.8,776.9,1778.1,1252.4,3468.6,3462.5,1453.4,1031.4,1807.1,3464.9,2086.6,1510.6,3471.0,3477.1,302.0,566.6,836.1,1059.9,532.2,1522.7,3472.2,3480.7,702.8,987.6,2442.0,1373.0,1308.8,1079.9,25.0,41.0,13.0,9119.0,-9309.0,8955.0,-4294.0,-46.0,-189.0,96.0,2.0,23.0,0.0,7907.0,-13778.0,4008.0,-91.0,-20.0,-83.0,82.0,1.0
2022-05-06 14:41:44.971168-07:00,1085.1,676.6,1425.9,1336.8,1224.8,776.9,1762.7,1242.6,3468.6,3462.5,1453.4,1036.6,1807.1,3471.0,2083.6,1512.5,3478.3,3472.2,303.6,566.6,832.7,1059.9,532.2,1522.7,3488.0,3475.9,706.0,987.6,2406.0,1373.0,1308.8,1079.9,7.0,34.0,1.0,9175.0,-9297.0,8931.0,-4251.0,143.0,-132.0,42.0,0.0,18.0,3.0,7945.0,-13758.0,4003.0,-63.0,130.0,-87.0,5.0,1.0
2022-05-06 14:41:45.030990-07:00,1087.7,670.1,1418.6,1336.8,1208.0,776.9,1762.7,1242.6,3478.3,3473.4,1447.9,1036.6,1810.0,3471.0,2083.6,1512.5,3478.3,3472.2,303.6,568.2,832.7,1058.2,529.0,1518.0,3488.0,3475.9,706.0,987.6,2406.0,1365.7,1306.1,1068.6,40.0,10.0,21.0,9254.0,-9280.0,8861.0,-4263.0,231.0,-173.0,-40.0,9.0,20.0,13.0,8011.0,-13725.0,3985.0,-57.0,225.0,-56.0,-22.0,1.0
2022-05-06 14:41:45.121645-07:00,1087.7,670.1,1418.6,1339.5,1208.0,776.1,1745.4,1248.8,3478.3,3473.4,1447.9,1031.4,1810.0,3472.2,2078.5,1516.2,3475.9,3472.2,303.6,568.2,850.3,1058.2,529.0,1518.0,3481.9,3472.2,701.1,987.6,2393.4,1365.7,1306.1,1068.6,22.0,10.0,10.0,9361.0,-9227.0,8782.0,-4306.0,286.0,-168.0,-66.0,1.0,-8.0,-6.0,8110.0,-13674.0,3960.0,-78.0,204.0,-45.0,-51.0,1.0
2022-05-06 14:41:45.122701-07:00,1085.1,666.8,1411.3,1332.3,1198.2,776.1,1745.4,1248.8,3471.0,3468.6,1449.7,1035.7,1807.1,3472.2,2078.5,1516.2,3475.9,3472.2,303.6,565.8,834.4,1058.2,528.2,1514.3,3481.9,3472.2,701.1,973.1,2377.6,1351.2,1298.1,1064.3,25.0,-4.0,8.0,9433.0,-9219.0,8693.0,-4348.0,186.0,-134.0,-95.0,7.0,8.0,3.0,8177.0,-13642.0,3931.0,-94.0,159.0,-28.0,-50.0,1.0
2022-05-06 14:41:45.151057-07:00,1085.1,666.8,1411.3,1332.3,1196.5,773.6,1757.0,1247.1,3471.0,3468.6,1449.7,1035.7,1793.6,3457.6,2100.7,1505.1,3475.9,3484.4,307.4,565.8,834.4,1058.2,528.2,1514.3,3479.5,3484.4,702.8,984.2,2377.6,1351.2,1298.1,1064.3,6.0,1.0,8.0,9492.0,-9217.0,8620.0,-4369.0,80.0,-168.0,-113.0,4.0,-29.0,10.0,8211.0,-13627.0,3912.0,-107.0,26.0,-15.0,-35.0,1.0
2022-05-06 14:41:45.211043-07:00,1085.1,656.2,1415.8,1326.8,1196.5,773.6,1757.0,1247.1,3464.9,3477.1,1443.3,1035.7,1793.6,3457.6,2100.7,1505.1,3475.9,3484.4,307.4,565.8,834.4,1052.2,528.2,1507.8,3479.5,3484.4,702.8,984.2,2364.0,1362.1,1299.8,1057.3,22.0,-15.0,-2.0,9526.0,-9261.0,8541.0,-4355.0,34.0,-139.0,-33.0,17.0,6.0,-23.0,8214.0,-13627.0,3904.0,-110.0,-12.0,16.0,-4.0,1.0
2022-05-06 14:41:45.271019-07:00,1085.1,656.2,1415.8,1326.8,1200.9,769.5,1751.2,1257.8,3464.9,3477.1,1443.3,1035.7,1790.7,3457.6,2106.8,1500.4,3475.9,3475.9,302.8,562.6,834.4,1052.2,528.2,1507.8,3479.5,3474.6,696.2,975.6,2364.0,1362.1,1299.8,1057.3,9.0,11.0,-5.0,9543.0,-9283.0,8511.0,-4331.0,-102.0,-98.0,-50.0,5.0,7.0,8.0,8190.0,-13641.0,3907.0,-111.0,-134.0,18.0,-10.0,1.0
2022-05-06 14:41:45.300928-07:00,1076.4,666.8,1411.3,1325.9,1200.9,769.5,1751.2,1257.8,3473.4,3477.1,1448.8,1046.1,1790.7,3457.6,2106.8,1500.4,3475.9,3475.9,302.8,562.6,835.2,1054.8,521.0,1507.8,3479.5,3474.6,696.2,975.6,2351.4,1347.6,1307.0,1040.9,29.0,7.0,2.0,9532.0,-9336.0,8489.0,-4285.0,-105.0,-85.0,-5.0,12.0,3.0,-18.0,8151.0,-13666.0,3903.0,-110.0,-69.0,-1.0,-25.0,1.0
2022-05-06 14:41:45.360908-07:00,1076.4,666.8,1411.3,1325.9,1163.0,772.0,1741.6,1249.7,3473.4,3477.1,1448.8,1046.1,1784.9,3471.0,2095.7,1499.5,3480.7,3478.3,299.7,569.8,835.2,1054.8,521.0,1507.8,3475.9,3477.1,701.1,970.5,2351.4,1347.6,1307.0,1040.9,12.0,7.0,12.0,9522.0,-9364.0,8476.0,-4269.0,23.0,-58.0,-29.0,5.0,2.0,10.0,8135.0,-13678.0,3892.0,-106.0,12.0,-6.0,-14.0,1.0
2022-05-06 14:41:45.391144-07:00,1087.7,662.7,1409.4,1329.6,1163.0,772.0,1741.6,1249.7,3474.6,3478.3,1436.9,1041.8,1784.9,3471.0,2095.7,1494.0,3480.7,3478.3,299.7,569.8,841.1,1055.6,526.6,1506.9,3485.6,3477.1,701.1,970.5,2340.0,1358.5,1296.3,1047.8,22.0,20.0,9.0,9538.0,-9380.0,8440.0,-4272.0,19.0,-53.0,-65.0,9.0,11.0,8.0,8141.0,-13676.0,3885.0,-112.0,22.0,-1.0,-26.0,1.0
2022-05-06 14:41:45.451633-07:00,1072.9,662.7,1409.4,1329.6,1174.4,779.4,1733.0,1249.7,3471.0,3478.3,1436.9,1041.8,1781.0,3466.1,2090.6,1494.0,3480.7,3477.1,297.4,568.2,841.1,1055.6,526.6,1502.3,3485.6,3483.2,700.3,973.1,2340.0,1358.5,1296.3,1044.4,8.0,-14.0,-3.0,9547.0,-9392.0,8411.0,-4280.0,56.0,-51.0,-43.0,2.0,-11.0,-8.0,8152.0,-13674.0,3873.0,-122.0,47.0,-3.0,-27.0,1.0
2022-05-06 14:41:45.481104-07:00,1072.9,665.2,1414.0,1322.3,1174.4,779.4,1733.0,1245.3,3471.0,3479.5,1441.5,1035.7,1781.0,3466.1,2090.6,1484.7,3474.6,3477.1,297.4,568.2,838.6,1055.6,521.0,1502.3,3469.8,3483.2,700.3,973.1,2325.4,1354.9,1288.2,1044.4,25.0,0.0,0.0,9567.0,-9403.0,8375.0,-4286.0,4.0,-71.0,-42.0,1.0,19.0,-8.0,8164.0,-13668.0,3866.0,-130.0,22.0,-2.0,-19.0,1.0
2022-05-06 14:41:45.541581-07:00,1078.2,665.2,1414.0,1322.3,1173.5,770.3,1737.8,1245.3,3483.2,3479.5,1441.5,1035.7,1782.0,3471.0,2081.6,1484.7,3474.6,3480.7,301.3,565.8,838.6,1055.6,521.0,1501.4,3469.8,3483.2,697.0,969.6,2325.4,1354.9,1288.2,1041.8,12.0,-2.0,-4.0,9571.0,-9419.0,8357.0,-4274.0,-33.0,-70.0,-29.0,3.0,-1.0,-6.0,8163.0,-13671.0,3860.0,-132.0,-17.0,-15.0,-18.0,1.0
2022-05-06 14:41:45.631300-07:00,1078.2,663.6,1404.0,1326.8,1173.5,770.3,1737.8,1247.1,3483.2,3471.0,1441.5,1041.8,1782.0,3471.0,2081.6,1491.2,3473.4,3480.7,301.3,565.8,832.7,1055.6,517.9,1501.4,3478.3,3483.2,697.0,969.6,2308.7,1355.8,1282.8,1041.8,18.0,-4.0,6.0,9573.0,-9436.0,8341.0,-4264.0,-4.0,-19.0,9.0,4.0,2.0,-3.0,8166.0,-13671.0,3854.0,-130.0,-8.0,-9.0,-3.0,1.0
2022-05-06 14:41:45.632552-07:00,1079.9,666.8,1404.0,1326.8,1156.8,767.8,1725.3,1247.1,3468.6,3467.4,1441.5,1041.8,1782.0,3477.1,2082.6,1491.2,3473.4,3479.5,303.6,568.2,832.7,1055.6,522.6,1484.7,3478.3,3478.3,690.5,969.6,2308.7,1355.8,1281.0,1038.3,20.0,12.0,10.0,9566.0,-9441.0,8345.0,-4261.0,-61.0,10.0,-5.0,9.0,-2.0,3.0,8159.0,-13675.0,3853.0,-128.0,-34.0,-3.0,-16.0,1.0
2022-05-06 14:41:45.691151-07:00,1079.9,666.8,1404.9,1320.5,1156.8,767.8,1725.3,1234.6,3468.6,3467.4,1435.0,1035.7,1782.0,3477.1,2077.5,1481.0,3468.6,3474.6,303.6,568.2,844.4,1060.8,522.6,1484.7,3477.1,3486.8,690.5,969.6,2313.9,1353.1,1281.0,1038.3,5.0,1.0,1.0,9539.0,-9468.0,8347.0,-4258.0,-90.0,30.0,-41.0,0.0,2.0,10.0,8148.0,-13683.0,3849.0,-131.0,-40.0,20.0,-16.0,1.0
2022-05-06 14:41:45.751047-07:00,1085.1,663.6,1404.9,1320.5,1174.4,771.1,1725.3,1234.6,3466.1,3473.4,1435.0,1035.7,1780.1,3466.1,2077.5,1481.0,3468.6,3474.6,301.3,572.2,844.4,1060.8,519.5,1481.0,3477.1,3486.8,699.5,967.1,2313.9,1353.1,1283.7,1039.2,7.0,-10.0,-1.0,9523.0,-9484.0,8349.0,-4254.0,-45.0,19.0,-9.0,7.0,-28.0,-11.0,8129.0,-13693.0,3853.0,-141.0,-68.0,32.0,7.0,1.0
2022-05-06 14:41:45.781620-07:00,1085.1,663.6,1403.0,1317.8,1174.4,771.1,1724.4,1244.4,3466.1,3473.4,1437.8,1034.0,1780.1,3466.1,2081.6,1470.9,3471.0,3475.9,301.3,572.2,830.2,1056.5,519.5,1481.0,3471.0,3485.6,699.5,967.1,2302.5,1352.1,1283.7,1039.2,10.0,0.0,2.0,9516.0,-9485.0,8352.0,-4260.0,3.0,11.0,-7.0,2.0,6.0,2.0,8120.0,-13696.0,3860.0,-144.0,10.0,12.0,15.0,1.0
2022-05-06 14:41:45.840973-07:00,1078.2,662.7,1403.0,1317.8,1169.1,778.6,1724.4,1244.4,3464.9,3478.3,1437.8,1034.0,1780.1,3475.9,2081.6,1470.9,3471.0,3475.9,296.7,565.0,830.2,1056.5,517.9,1477.3,3471.0,3485.6,697.0,961.1,2302.5,1352.1,1275.6,1031.4,10.0,20.0,-13.0,9518.0,-9482.0,8352.0,-4264.0,12.0,8.0,10.0,0.0,6.0,-5.0,8124.0,-13692.0,3868.0,-147.0,13.0,10.0,14.0,1.0
2022-05-06 14:41:45.901191-07:00,1078.2,662.7,1402.1,1318.7,1169.1,770.3,1715.8,1234.6,3464.9,3478.3,1436.0,1028.8,1780.1,3473.4,2088.6,1471.8,3467.4,3469.8,305.1,565.0,829.4,1059.9,517.9,1477.3,3488.0,3479.5,694.6,961.1,2292.1,1349.4,1275.6,1031.4,22.0,0.0,-7.0,9512.0,-9495.0,8345.0,-4261.0,-27.0,-29.0,-28.0,7.0,7.0,-17.0,8115.0,-13696.0,3870.0,-146.0,-24.0,1.0,-8.0,1.0
2022-05-06 14:41:45.931138-07:00,1073.8,657.9,1401.2,1318.7,1173.5,770.3,1715.8,1234.6,3471.0,3475.9,1429.5,1028.8,1767.5,3473.4,2088.6,1471.8,3467.4,3469.8,305.1,562.6,829.4,1055.6,520.3,1485.6,3488.0,3479.5,694.6,958.5,2292.1,1338.6,1283.7,1035.7,16.0,-2.0,0.0,9514.0,-9510.0,8325.0,-4261.0,6.0,-68.0,-62.0,8.0,-3.0,0.0,8110.0,-13700.0,3867.0,-143.0,-10.0,-23.0,-9.0,1.0
2022-05-06 14:41:45.991094-07:00,1073.8,657.9,1401.2,1309.7,1173.5,767.0,1721.5,1239.1,3471.0,3475.9,1429.5,1035.7,1767.5,3473.4,2086.6,1475.5,3469.8,3468.6,299.0,562.6,832.7,1055.6,520.3,1485.6,3478.3,3471.0,696.2,958.5,2278.6,1338.6,1283.7,1035.7,9.0,23.0,-9.0,9540.0,-9515.0,8286.0,-4270.0,63.0,-81.0,-37.0,2.0,10.0,-4.0,8133.0,-13688.0,3860.0,-148.0,60.0,-12.0,-24.0,1.0
2022-05-06 14:41:46.051108-07:00,1073.8,665.2,1407.6,1309.7,1174.4,767.0,1721.5,1239.1,3472.2,3462.5,1425.9,1035.7,1775.2,3473.4,2086.6,1475.5,3469.8,3468.6,299.0,568.2,832.7,1059.1,514.7,1481.9,3478.3,3471.0,696.2,961.1,2278.6,1344.9,1270.3,1035.7,16.0,-4.0,1.0,9551.0,-9532.0,8256.0,-4266.0,-4.0,-37.0,-31.0,4.0,-5.0,-1.0,8137.0,-13689.0,3849.0,-154.0,3.0,-13.0,-23.0,1.0
2022-05-06 14:41:46.081164-07:00,1073.8,665.2,1407.6,1324.1,1174.4,764.5,1718.6,1242.6,3472.2,3462.5,1425.9,1031.4,1775.2,3480.7,2102.7,1479.2,3481.9,3477.1,304.3,568.2,836.1,1059.1,514.7,1481.9,3481.9,3478.3,693.8,961.1,2277.6,1344.9,1270.3,1035.7,10.0,-1.0,3.0,9550.0,-9542.0,8248.0,-4261.0,-45.0,-24.0,-16.0,0.0,-10.0,3.0,8138.0,-13690.0,3844.0,-157.0,-24.0,-9.0,-14.0,1.0
2022-05-06 14:41:46.141124-07:00,1076.4,657.0,1391.2,1324.1,1173.5,764.5,1718.6,1242.6,3464.9,3467.4,1426.8,1031.4,1774.3,3480.7,2102.7,1479.2,3481.9,3477.1,304.3,562.6,836.1,1059.9,521.8,1478.3,3481.9,3478.3,693.8,956.0,2277.6,1338.6,1277.4,1029.7,29.0,8.0,8.0,9549.0,-9555.0,8241.0,-4249.0,-23.0,-34.0,10.0,13.0,-1.0,3.0,8133.0,-13693.0,3842.0,-153.0,-23.0,7.0,7.0,1.0
2022-05-06 14:41:46.231135-07:00,1076.4,657.0,1391.2,1308.8,1172.6,764.5,1711.9,1233.7,3464.9,3467.4,1426.8,1031.4,1767.5,3468.6,2098.7,1482.9,3484.4,3472.2,299.7,571.4,831.1,1059.9,521.8,1478.3,3479.5,3479.5,688.0,959.4,2266.2,1338.6,1277.4,1029.7,10.0,15.0,1.0,9538.0,-9569.0,8239.0,-4245.0,-61.0,12.0,-27.0,5.0,11.0,0.0,8126.0,-13698.0,3842.0,-151.0,-46.0,6.0,-9.0,1.0
2022-05-06 14:41:46.232403-07:00,1079.9,662.7,1399.4,1306.1,1172.6,764.5,1711.9,1233.7,3464.9,3467.4,1428.6,1037.5,1767.5,3468.6,2098.7,1482.9,3484.4,3472.2,299.7,571.4,835.2,1053.9,513.9,1481.9,3479.5,3479.5,688.0,959.4,2261.0,1344.9,1270.3,1028.0,1.0,-7.0,-2.0,9522.0,-9584.0,8241.0,-4241.0,-12.0,-14.0,-20.0,0.0,-6.0,4.0,8115.0,-13704.0,3841.0,-154.0,4.0,18.0,-14.0,1.0
2022-05-06 14:41:46.291120-07:00,1079.9,662.7,1399.4,1306.1,1176.2,772.0,1711.9,1234.6,3464.9,3467.4,1428.6,1037.5,1766.6,3473.4,2093.7,1470.9,3483.2,3484.4,305.9,567.4,835.2,1053.9,513.9,1481.9,3478.3,3477.1,685.6,962.0,2261.0,1344.9,1270.3,1028.0,13.0,18.0,-2.0,9531.0,-9581.0,8230.0,-4251.0,45.0,11.0,-12.0,6.0,8.0,6.0,8122.0,-13700.0,3841.0,-157.0,31.0,9.0,-1.0,1.0
2022-05-06 14:41:46.381096-07:00,1078.2,656.2,1393.0,1310.6,1176.2,772.0,1711.9,1234.6,3478.3,3467.4,1422.2,1032.3,1766.6,3473.4,2093.7,1470.9,3483.2,3484.4,305.9,567.4,827.7,1057.3,513.1,1463.5,3478.3,3477.1,685.6,962.0,2256.9,1350.3,1273.0,1032.3,7.0,9.0,-8.0,9527.0,-9588.0,8221.0,-4260.0,-5.0,-3.0,-38.0,5.0,3.0,0.0,8125.0,-13700.0,3836.0,-160.0,14.0,4.0,-20.0,1.0
2022-05-06 14:41:46.411226-07:00,1078.2,656.2,1393.0,1310.6,1170.0,763.7,1712.9,1245.3,3478.3,3467.4,1422.2,1032.3,1774.3,3463.7,2084.6,1471.8,3475.9,3474.6,297.4,565.8,827.7,1057.3,513.1,1463.5,3480.7,3480.7,692.1,960.2,2256.9,1350.3,1273.0,1032.3,17.0,15.0,-5.0,9515.0,-9610.0,8203.0,-4273.0,0.0,13.0,-89.0,6.0,14.0,-11.0,8132.0,-13698.0,3826.0,-168.0,44.0,3.0,-36.0,1.0
2022-05-06 14:41:46.471077-07:00,1075.6,659.5,1394.8,1306.1,1170.0,763.7,1712.9,1241.7,3477.1,3467.4,1423.1,1031.4,1774.3,3463.7,2084.6,1472.7,3478.3,3474.6,297.4,565.8,833.6,1055.6,518.7,1474.6,3475.9,3480.7,692.1,960.2,2250.7,1346.7,1272.1,1021.1,26.0,20.0,5.0,9501.0,-9634.0,8175.0,-4303.0,0.0,5.0,-136.0,6.0,16.0,-8.0,8142.0,-13697.0,3807.0,-186.0,27.0,11.0,-72.0,1.0
2022-05-06 14:41:46.501085-07:00,1082.5,659.5,1394.8,1306.1,1185.9,774.5,1710.0,1241.7,3467.4,3467.4,1423.1,1031.4,1762.7,3478.3,2070.5,1472.7,3478.3,3473.4,295.9,569.0,833.6,1055.6,518.7,1478.3,3475.9,3480.7,687.2,952.6,2250.7,1346.7,1272.1,1024.5,17.0,52.0,-4.0,9472.0,-9660.0,8147.0,-4361.0,-22.0,66.0,-170.0,7.0,39.0,12.0,8153.0,-13698.0,3778.0,-217.0,16.0,36.0,-107.0,1.0
2022-05-06 14:41:46.561204-07:00,1082.5,659.5,1394.8,1307.9,1185.9,774.5,1710.0,1246.2,3467.4,3467.4,1423.1,1028.8,1762.7,3478.3,2070.5,1481.9,3479.5,3473.4,295.9,569.0,826.0,1063.4,515.5,1478.3,3485.6,3480.7,687.2,952.6,2267.2,1354.0,1274.7,1024.5,0.0,17.0,-17.0,9424.0,-9724.0,8114.0,-4386.0,-94.0,-41.0,-205.0,3.0,-8.0,-12.0,8127.0,-13724.0,3738.0,-274.0,-28.0,87.0,-184.0,1.0
2022-05-06 14:41:46.591091-07:00,1069.5,659.5,1394.8,1307.9,1195.6,762.9,1710.0,1246.2,3474.6,3467.4,1423.1,1028.8,1758.9,3467.4,2112.8,1481.9,3479.5,3474.6,297.4,567.4,826.0,1063.4,515.5,1494.0,3485.6,3475.9,693.8,957.7,2267.2,1354.0,1274.7,1019.4,3.0,1.0,-10.0,9408.0,-9783.0,8034.0,-4435.0,21.0,-63.0,-296.0,0.0,-12.0,-19.0,8137.0,-13732.0,3679.0,-338.0,65.0,21.0,-182.0,1.0
2022-05-06 14:41:46.681035-07:00,1069.5,658.7,1396.7,1311.5,1195.6,762.9,1710.0,1263.1,3474.6,3473.4,1426.8,1027.1,1758.9,3467.4,2112.8,1477.3,3478.3,3474.6,297.4,567.4,830.2,1056.5,514.7,1494.0,3478.3,3475.9,693.8,957.7,2279.6,1354.9,1273.9,1019.4,22.0,-7.0,4.0,9390.0,-9853.0,7937.0,-4493.0,21.0,-71.0,-300.0,13.0,-24.0,9.0,8149.0,-13740.0,3620.0,-382.0,60.0,6.0,-153.0,1.0
2022-05-06 14:41:46.682317-07:00,1078.2,661.9,1396.7,1311.5,1202.7,767.8,1725.3,1263.1,3472.2,3468.6,1426.8,1027.1,1755.0,3471.0,2089.6,1477.3,3478.3,3478.3,305.9,566.6,830.2,1056.5,512.3,1490.3,3478.3,3483.2,686.4,960.2,2279.6,1354.9,1278.3,1019.4,-5.0,-35.0,13.0,9385.0,-9913.0,7817.0,-4582.0,121.0,-38.0,-352.0,8.0,-2.0,14.0,8194.0,-13726.0,3565.0,-419.0,139.0,-18.0,-134.0,1.0
2022-05-06 14:41:46.741165-07:00,1078.2,661.9,1390.3,1300.7,1202.7,767.8,1712.9,1267.6,3472.2,3468.6,1418.6,1028.0,1755.0,3471.0,2083.6,1461.7,3474.6,3475.9,305.9,566.6,839.4,1059.9,512.3,1490.3,3472.2,3481.9,686.4,960.2,2331.6,1363.0,1278.3,1019.4,22.0,22.0,7.0,9428.0,-9930.0,7693.0,-4665.0,215.0,-138.0,-251.0,15.0,-2.0,-9.0,8271.0,-13690.0,3523.0,-457.0,198.0,-24.0,-90.0,1.0
2022-05-06 14:41:46.801100-07:00,1079.0,661.9,1390.3,1300.7,1213.3,767.0,1712.9,1267.6,3468.6,3483.2,1418.6,1028.0,1753.1,3478.3,2083.6,1461.7,3474.6,3475.9,303.6,561.8,839.4,1059.9,515.5,1494.0,3472.2,3481.9,685.6,954.3,2331.6,1363.0,1277.4,1014.2,10.0,16.0,9.0,9441.0,-9966.0,7578.0,-4749.0,76.0,17.0,-339.0,13.0,10.0,2.0,8305.0,-13678.0,3486.0,-476.0,33.0,-29.0,-81.0,1.0
2022-05-06 14:41:46.831125-07:00,1079.0,661.9,1396.7,1281.9,1213.3,767.0,1708.1,1273.9,3468.6,3483.2,1420.4,1017.6,1753.1,3478.3,2078.5,1462.6,3473.4,3472.2,303.6,561.8,834.4,1055.6,515.5,1494.0,3471.0,3477.1,685.6,954.3,2377.6,1383.0,1277.4,1014.2,-6.0,9.0,-11.0,9420.0,-10012.0,7489.0,-4835.0,119.0,-88.0,-260.0,7.0,-5.0,2.0,8344.0,-13663.0,3448.0,-499.0,196.0,-38.0,-101.0,1.0
2022-05-06 14:41:46.891108-07:00,1072.9,666.8,1396.7,1281.9,1216.0,765.3,1708.1,1273.9,3467.4,3462.5,1420.4,1017.6,1747.3,3477.1,2078.5,1462.6,3473.4,3472.2,303.6,564.2,834.4,1055.6,517.1,1494.0,3471.0,3477.1,688.9,953.4,2377.6,1383.0,1278.3,1015.9,7.0,6.0,-3.0,9452.0,-10041.0,7366.0,-4900.0,178.0,-139.0,-273.0,-1.0,18.0,-9.0,8427.0,-13623.0,3399.0,-529.0,212.0,-24.0,-107.0,1.0
2022-05-06 14:41:46.921095-07:00,1072.9,666.8,1407.6,1296.3,1216.0,765.3,1712.9,1307.0,3467.4,3462.5,1426.8,1022.8,1747.3,3477.1,2106.8,1458.9,3477.1,3472.2,303.6,564.2,831.9,1055.6,517.1,1494.0,3471.0,3474.6,688.9,953.4,2429.3,1354.9,1278.3,1015.9,21.0,-26.0,7.0,9492.0,-10067.0,7230.0,-4972.0,195.0,-163.0,-280.0,19.0,-31.0,0.0,8490.0,-13592.0,3362.0,-548.0,197.0,-56.0,-56.0,1.0
2022-05-06 14:41:46.981189-07:00,1072.1,657.0,1398.5,1296.3,1441.5,762.0,1712.9,1307.0,3467.4,3478.3,1453.4,1022.8,1749.3,3471.0,2106.8,1458.9,3477.1,3472.2,297.4,566.6,831.9,1055.6,514.7,1507.8,3471.0,3474.6,681.5,951.7,2429.3,1358.5,1273.9,1049.6,10.0,7.0,-12.0,9412.0,-10168.0,7183.0,-4986.0,-274.0,-102.0,-229.0,-34.0,-100.0,17.0,8456.0,-13618.0,3348.0,-537.0,36.0,-20.0,85.0,1.0
2022-05-06 14:41:47.041134-07:00,1072.1,657.0,1398.5,1295.4,1441.5,769.5,1733.0,1405.8,3467.4,3478.3,1453.4,1011.6,1749.3,3471.0,2128.0,1463.5,3474.6,3472.2,303.6,566.6,831.9,1055.6,514.7,1507.8,3473.4,3478.3,688.0,951.7,2477.0,1358.5,1273.9,1049.6,-46.0,37.0,-14.0,9434.0,-10227.0,7020.0,-5055.0,189.0,-148.0,-537.0,104.0,33.0,23.0,8501.0,-13585.0,3369.0,-528.0,188.0,88.0,25.0,1.0
2022-05-06 14:41:47.100963-07:00,1069.5,662.7,1413.1,1295.4,1744.5,769.5,1733.0,1405.8,3474.6,3480.7,1479.2,1011.6,1753.1,3471.0,2128.0,1463.5,3474.6,3472.2,303.6,566.6,831.9,1062.5,514.7,1497.7,3473.4,3478.3,688.0,952.6,2477.0,1401.2,1292.7,1079.9,-22.0,80.0,8.0,9349.0,-10419.0,6827.0,-5085.0,-233.0,-85.0,-451.0,11.0,137.0,-43.0,8476.0,-13584.0,3430.0,-547.0,-66.0,181.0,66.0,1.0
2022-05-06 14:41:47.131279-07:00,1069.5,662.7,1413.1,1316.0,1744.5,768.7,1788.7,1584.2,3474.6,3480.7,1479.2,1009.9,1753.1,3478.3,2155.5,1471.8,3474.6,3472.2,307.4,566.6,833.6,1062.5,514.7,1497.7,3474.6,3479.5,686.4,952.6,2526.1,1401.2,1292.7,1079.9,6.0,-195.0,50.0,9238.0,-10545.0,6770.0,-5104.0,160.0,-78.0,-252.0,11.0,-132.0,12.0,8402.0,-13614.0,3490.0,-582.0,360.0,40.0,95.0,1.0
2022-05-06 14:41:47.191090-07:00,1065.1,665.2,1415.8,1316.0,1594.6,768.7,1788.7,1584.2,3467.4,3467.4,1451.6,1009.9,1752.1,3478.3,2155.5,1471.8,3474.6,3472.2,307.4,558.6,833.6,1058.2,521.8,1493.0,3474.6,3479.5,686.4,946.6,2526.1,1462.6,1363.9,1208.0,20.0,153.0,35.0,9440.0,-10334.0,6666.0,-5301.0,988.0,258.0,-27.0,7.0,97.0,-14.0,8712.0,-13401.0,3540.0,-650.0,889.0,105.0,120.0,1.0
2022-05-06 14:41:47.221120-07:00,1065.1,665.2,1415.8,1319.6,1495.8,757.1,1757.0,1516.2,3467.4,3467.4,1451.6,997.9,1747.3,3461.3,2122.0,1479.2,3477.1,3478.3,295.1,567.4,831.1,1058.2,521.8,1493.0,3478.3,3467.4,688.0,947.5,2457.9,1462.6,1363.9,1208.0,-14.0,-47.0,6.0,9438.0,-10159.0,6739.0,-5545.0,263.0,815.0,13.0,-12.0,-44.0,19.0,8884.0,-13270.0,3591.0,-718.0,763.0,142.0,70.0,1.0
2022-05-06 14:41:47.340652-07:00,1065.1,663.6,1462.6,1307.0,1495.8,757.1,1757.0,1516.2,3478.3,3479.5,1436.0,986.7,1747.3,3461.3,2122.0,1479.2,3477.1,3478.3,295.1,567.4,833.6,1055.6,516.3,1475.5,3478.3,3467.4,688.0,947.5,2419.8,1455.2,1388.5,1163.8,4.0,-72.0,-1.0,9480.0,-9872.0,6829.0,-5872.0,944.0,691.0,3.0,-11.0,-27.0,34.0,9244.0,-13005.0,3622.0,-864.0,1437.0,135.0,90.0,1.0
2022-05-06 14:41:47.342174-07:00,1065.1,663.6,1462.6,1307.0,1444.2,764.5,1721.5,1449.7,3478.3,3479.5,1436.0,986.7,1739.7,3468.6,2094.7,1470.0,3477.1,3475.9,300.5,573.0,833.6,1055.6,516.3,1475.5,3485.6,3480.7,688.9,948.3,2419.8,1455.2,1388.5,1163.8,0.0,-158.0,17.0,9575.0,-9495.0,7001.0,-6131.0,466.0,805.0,562.0,-21.0,-24.0,-77.0,9516.0,-12785.0,3677.0,-948.0,896.0,32.0,237.0,1.0
2022-05-06 14:41:47.371047-07:00,1065.1,657.9,1452.5,1323.2,1444.2,764.5,1721.5,1449.7,3475.9,3474.6,1430.5,993.6,1739.7,3468.6,2094.7,1470.0,3477.1,3475.9,300.5,573.0,833.6,1063.4,507.5,1486.6,3485.6,3480.7,688.9,948.3,2327.4,1451.6,1389.4,1139.2,26.0,3.0,16.0,9893.0,-8845.0,7185.0,-6380.0,1820.0,854.0,944.0,2.0,61.0,14.0,10039.0,-12358.0,3720.0,-1042.0,1615.0,28.0,273.0,1.0
2022-05-06 14:41:47.431157-07:00,1065.1,657.9,1452.5,1323.2,1413.1,752.9,1750.2,1428.6,3475.9,3474.6,1430.5,993.6,1731.1,3473.4,2076.5,1481.0,3485.6,3474.6,303.6,567.4,833.6,1063.4,507.5,1486.6,3477.1,3474.6,701.1,930.5,2327.4,1451.6,1389.4,1139.2,123.0,81.0,-24.0,10299.0,-8065.0,7345.0,-6587.0,1651.0,698.0,1078.0,29.0,95.0,-86.0,10507.0,-11938.0,3780.0,-1115.0,1436.0,1.0,253.0,1.0
2022-05-06 14:41:47.521713-07:00,1062.5,659.5,1403.0,1254.2,1413.1,752.9,1750.2,1434.1,3488.0,3480.7,1441.5,1008.2,1731.1,3473.4,2076.5,1530.1,3478.3,3474.6,303.6,567.4,832.7,1049.6,508.3,1470.0,3477.1,3474.6,701.1,930.5,2264.1,1404.9,1344.0,1273.9,92.0,29.0,-16.0,10623.0,-7159.0,7562.0,-6868.0,2102.0,1346.0,1041.0,-15.0,93.0,-34.0,10754.0,-11708.0,3802.0,-1128.0,431.0,-60.0,116.0,1.0
2022-05-06 14:41:47.522775-07:00,1081.6,659.5,1403.0,1254.2,1383.0,748.8,1755.0,1434.1,3474.6,3480.7,1441.5,1008.2,1744.5,3471.0,2130.1,1530.1,3478.3,3478.3,305.9,568.2,832.7,1049.6,508.3,1497.7,3477.1,3478.3,708.5,939.8,2264.1,1404.9,1344.0,1378.5,-36.0,169.0,-111.0,10796.0,-6153.0,7873.0,-7214.0,784.0,1795.0,934.0,-20.0,50.0,70.0,10698.0,-11742.0,3862.0,-1090.0,-534.0,187.0,147.0,1.0
2022-05-06 14:41:47.581655-07:00,1081.6,672.5,1380.3,1224.8,1383.0,748.8,1755.0,1419.5,3474.6,3471.0,1425.9,999.6,1744.5,3471.0,2130.1,1535.7,3478.3,3478.3,305.9,568.2,831.1,1053.0,563.4,1497.7,3467.4,3478.3,708.5,939.8,2247.6,1386.6,1331.4,1378.5,0.0,225.0,-213.0,10478.0,-5978.0,8521.0,-7094.0,-1682.0,1155.0,291.0,-8.0,78.0,-1.0,10099.0,-12218.0,4031.0,-966.0,-2553.0,350.0,53.0,1.0
2022-05-06 14:41:47.642045-07:00,1092.9,672.5,1380.3,1224.8,1360.3,743.0,1775.2,1419.5,3467.4,3471.0,1425.9,999.6,1811.0,3457.6,2100.7,1535.7,3478.3,3472.2,299.7,562.6,831.1,1053.0,563.4,1476.4,3467.4,3481.9,721.6,980.7,2247.6,1386.6,1331.4,1298.1,-38.0,25.0,-104.0,9875.0,-6561.0,9151.0,-6642.0,-2660.0,487.0,-372.0,25.0,-94.0,78.0,9105.0,-12943.0,4174.0,-772.0,-2788.0,354.0,-79.0,1.0
2022-05-06 14:41:47.670943-07:00,1092.9,675.8,1359.4,1225.7,1360.3,743.0,1775.2,1521.8,3467.4,3469.8,1537.6,1002.2,1811.0,3457.6,2100.7,1539.4,3478.3,3472.2,299.7,562.6,828.5,1055.6,622.2,1476.4,3481.9,3481.9,721.6,980.7,2225.0,1362.1,1324.1,1298.1,16.0,-19.0,-78.0,9410.0,-7307.0,9416.0,-6152.0,-2226.0,-721.0,-572.0,-23.0,-47.0,-6.0,8383.0,-13417.0,4203.0,-682.0,-1598.0,168.0,-239.0,1.0
2022-05-06 14:41:47.731127-07:00,1111.2,675.8,1359.4,1225.7,1353.1,742.2,1782.9,1521.8,3478.3,3469.8,1537.6,1002.2,1856.7,3472.2,2224.0,1539.4,3478.3,3478.3,302.0,569.0,828.5,1055.6,622.2,1529.2,3481.9,3488.0,711.8,944.9,2225.0,1362.1,1324.1,1274.7,25.0,82.0,-109.0,9189.0,-8034.0,9275.0,-5782.0,-1330.0,-1011.0,-992.0,20.0,36.0,2.0,7890.0,-13734.0,4145.0,-610.0,-1361.0,15.0,-332.0,1.0
2022-05-06 14:41:47.791069-07:00,1111.2,678.2,1274.7,1147.1,1353.1,742.2,1779.1,1517.1,3478.3,3473.4,1411.3,966.2,1856.7,3472.2,1802.3,1425.0,3479.5,3474.6,302.0,569.0,838.6,1060.8,645.7,1529.2,3480.7,3480.7,711.8,944.9,2200.4,1345.8,1302.5,1274.7,36.0,-115.0,-24.0,8964.0,-8747.0,9049.0,-5448.0,-1360.0,-577.0,-742.0,-14.0,39.0,-64.0,7417.0,-14031.0,4034.0,-522.0,-1171.0,-78.0,-338.0,1.0
2022-05-06 14:41:47.850974-07:00,1134.9,683.1,1274.7,1147.1,1334.1,753.8,1779.1,1517.1,3464.9,3478.3,1411.3,966.2,1807.1,3471.0,1802.3,1425.0,3479.5,3474.6,312.0,562.6,838.6,1060.8,627.8,1553.4,3480.7,3480.7,705.2,826.0,2200.4,1345.8,1173.5,1230.2,-26.0,-72.0,104.0,8799.0,-8950.0,9088.0,-5321.0,-43.0,265.0,129.0,0.0,-102.0,56.0,7230.0,-14155.0,3949.0,-453.0,-87.0,-130.0,-92.0,1.0
2022-05-06 14:41:47.881100-07:00,1134.9,683.1,1170.0,1081.6,1334.1,753.8,1758.9,1582.4,3464.9,3478.3,1293.6,951.7,1807.1,3471.0,1721.5,1373.9,3472.2,3474.6,312.0,562.6,837.7,1054.8,627.8,1553.4,3467.4,3477.1,705.2,826.0,2139.2,1244.4,1173.5,1230.2,26.0,53.0,109.0,8780.0,-8894.0,9154.0,-5333.0,-4.0,218.0,51.0,18.0,-21.0,62.0,7242.0,-14155.0,3928.0,-441.0,-51.0,4.0,-10.0,1.0
2022-05-06 14:41:47.941076-07:00,1136.6,686.4,1170.0,1081.6,1291.8,758.7,1758.9,1582.4,3463.7,3472.2,1293.6,951.7,1766.6,3467.4,1721.5,1373.9,3472.2,3474.6,301.3,561.0,837.7,1054.8,612.5,1559.9,3467.4,3477.1,698.7,793.5,2139.2,1244.4,1140.1,1203.5,0.0,-76.0,68.0,8613.0,-8893.0,9287.0,-5376.0,-263.0,599.0,15.0,0.0,-59.0,24.0,7131.0,-14204.0,3954.0,-438.0,-284.0,98.0,61.0,1.0
2022-05-06 14:41:47.971253-07:00,1136.6,686.4,1134.0,1068.6,1291.8,758.7,1741.6,1596.4,3463.7,3472.2,1276.5,942.4,1766.6,3467.4,1717.7,1369.4,3468.6,3479.5,301.3,561.0,842.8,1058.2,612.5,1559.9,3477.1,3479.5,698.7,793.5,2120.9,1214.2,1140.1,1203.5,21.0,30.0,-23.0,8530.0,-8778.0,9404.0,-5494.0,288.0,401.0,104.0,4.0,-2.0,-1.0,7156.0,-14175.0,4010.0,-459.0,239.0,71.0,116.0,1.0
2022-05-06 14:41:48.031518-07:00,1144.5,684.0,1129.6,1068.6,1280.1,748.8,1741.6,1596.4,3467.4,3467.4,1267.6,942.4,1742.6,3475.9,1717.7,1369.4,3468.6,3479.5,306.7,564.2,842.8,1057.3,607.6,1536.6,3477.1,3479.5,687.2,776.1,2120.9,1208.0,1127.9,1176.2,-6.0,4.0,-63.0,8474.0,-8689.0,9489.0,-5576.0,-108.0,234.0,47.0,2.0,-10.0,-6.0,7152.0,-14165.0,4051.0,-471.0,-99.0,50.0,46.0,1.0
2022-05-06 14:41:48.091050-07:00,1144.5,684.0,1129.6,1056.5,1280.1,748.0,1710.0,1573.9,3467.4,3467.4,1267.6,935.6,1742.6,3479.5,1675.7,1355.8,3477.1,3473.4,305.9,564.2,836.1,1057.3,607.6,1536.6,3488.0,3462.5,686.4,776.1,2097.7,1208.0,1127.9,1176.2,15.0,40.0,-40.0,8458.0,-8666.0,9511.0,-5598.0,98.0,62.0,18.0,11.0,26.0,-4.0,7163.0,-14157.0,4060.0,-470.0,65.0,-16.0,-2.0,1.0
2022-05-06 14:41:48.121579-07:00,1151.5,689.7,1111.2,1056.5,1261.3,748.0,1710.0,1573.9,3479.5,3469.8,1255.1,935.6,1729.1,3479.5,1675.7,1355.8,3477.1,3473.4,305.9,564.2,836.1,1061.7,602.0,1529.2,3488.0,3462.5,686.4,763.7,2097.7,1204.4,1118.2,1165.6,0.0,11.0,0.0,8454.0,-8666.0,9517.0,-5594.0,-52.0,-83.0,-24.0,2.0,-24.0,29.0,7159.0,-14162.0,4051.0,-465.0,-12.0,-17.0,-21.0,1.0
2022-05-06 14:41:48.181195-07:00,1151.5,689.7,1111.2,1050.4,1261.3,741.4,1704.3,1556.2,3479.5,3469.8,1255.1,939.0,1729.1,3469.8,1675.7,1353.1,3479.5,3473.4,309.7,564.2,840.3,1061.7,602.0,1529.2,3475.9,3478.3,684.0,763.7,2087.6,1204.4,1118.2,1165.6,20.0,1.0,17.0,8456.0,-8696.0,9503.0,-5569.0,-45.0,13.0,5.0,5.0,-3.0,12.0,7162.0,-14162.0,4044.0,-465.0,19.0,9.0,-6.0,1.0
2022-05-06 14:41:48.271070-07:00,1135.7,680.7,1113.0,1050.4,1252.4,741.4,1704.3,1556.2,3474.6,3462.5,1241.7,939.0,1718.6,3469.8,1675.7,1353.1,3479.5,3473.4,309.7,557.0,840.3,1054.8,597.9,1530.1,3475.9,3478.3,684.0,759.6,2087.6,1197.4,1117.4,1151.5,7.0,2.0,11.0,8418.0,-8728.0,9529.0,-5531.0,-191.0,-69.0,-27.0,11.0,-22.0,24.0,7150.0,-14166.0,4052.0,-471.0,-77.0,29.0,21.0,1.0
2022-05-06 14:41:48.272294-07:00,1135.7,680.7,1113.0,1049.6,1247.1,738.9,1706.2,1550.6,3474.6,3462.5,1241.7,924.5,1710.0,3477.1,1679.5,1344.9,3477.1,3480.7,305.1,565.0,842.8,1054.8,597.9,1530.1,3480.7,3469.8,675.0,751.3,2077.5,1197.4,1117.4,1151.5,28.0,0.0,15.0,8404.0,-8759.0,9508.0,-5540.0,124.0,114.0,-85.0,3.0,17.0,-8.0,7142.0,-14168.0,4057.0,-473.0,29.0,5.0,9.0,1.0
2022-05-06 14:41:48.331032-07:00,1140.1,682.3,1122.6,1051.3,1247.1,738.9,1706.2,1550.6,3478.3,3485.6,1240.8,933.0,1710.0,3477.1,1679.5,1344.9,3477.1,3480.7,305.1,565.0,842.8,1056.5,596.3,1537.6,3480.7,3469.8,675.0,751.3,2063.5,1189.4,1109.5,1144.5,-19.0,-12.0,-21.0,8400.0,-8720.0,9511.0,-5601.0,36.0,-11.0,9.0,-1.0,-28.0,12.0,7154.0,-14161.0,4062.0,-477.0,24.0,9.0,21.0,1.0
2022-05-06 14:41:48.391078-07:00,1140.1,682.3,1122.6,1051.3,1246.2,743.0,1694.8,1530.1,3478.3,3485.6,1240.8,933.0,1702.4,3474.6,1666.3,1347.6,3477.1,3475.9,303.6,569.8,842.8,1056.5,596.3,1537.6,3474.6,3475.9,673.3,752.1,2063.5,1189.4,1109.5,1144.5,28.0,8.0,17.0,8407.0,-8731.0,9510.0,-5576.0,-36.0,-21.0,17.0,9.0,3.0,0.0,7149.0,-14161.0,4070.0,-472.0,2.0,-6.0,13.0,1.0
2022-05-06 14:41:48.421074-07:00,1127.0,672.5,1129.6,1045.2,1246.2,743.0,1694.8,1530.1,3473.4,3477.1,1230.2,929.6,1702.4,3474.6,1666.3,1347.6,3477.1,3475.9,303.6,569.8,837.7,1058.2,593.9,1539.4,3474.6,3475.9,673.3,752.1,2059.4,1181.5,1103.4,1137.5,3.0,2.0,-2.0,8406.0,-8715.0,9515.0,-5593.0,19.0,26.0,-2.0,0.0,-2.0,1.0,7158.0,-14156.0,4073.0,-481.0,-12.0,21.0,9.0,1.0
2022-05-06 14:41:48.481078-07:00,1127.0,672.5,1129.6,1045.2,1230.2,736.5,1687.2,1518.0,3473.4,3477.1,1230.2,929.6,1691.0,3478.3,1663.4,1337.7,3475.9,3475.9,302.0,563.4,837.7,1058.2,593.9,1539.4,3479.5,3479.5,672.5,743.0,2059.4,1181.5,1103.4,1137.5,9.0,-11.0,15.0,8389.0,-8722.0,9526.0,-5590.0,-53.0,48.0,9.0,5.0,-19.0,14.0,7137.0,-14163.0,4083.0,-479.0,-16.0,16.0,24.0,1.0
2022-05-06 14:41:48.541089-07:00,1131.4,681.5,1109.5,1051.3,1230.2,736.5,1687.2,1518.0,3473.4,3467.4,1225.7,925.4,1691.0,3478.3,1663.4,1337.7,3475.9,3475.9,302.0,563.4,831.1,1059.1,592.3,1535.7,3479.5,3479.5,672.5,743.0,2046.4,1182.3,1101.7,1125.2,3.0,7.0,-2.0,8388.0,-8707.0,9532.0,-5604.0,13.0,34.0,6.0,3.0,0.0,7.0,7146.0,-14156.0,4093.0,-485.0,-58.0,34.0,22.0,1.0
2022-05-06 14:41:48.631199-07:00,1124.4,681.5,1109.5,1051.3,1223.9,739.7,1671.9,1510.6,3472.2,3467.4,1225.7,925.4,1681.4,3474.6,1661.5,1337.7,3472.2,3483.2,303.6,559.4,831.1,1059.1,592.3,1521.8,3473.4,3477.1,668.4,746.3,2046.4,1182.3,1101.7,1118.2,12.0,1.0,0.0,8376.0,-8709.0,9538.0,-5608.0,47.0,44.0,8.0,3.0,3.0,1.0,7134.0,-14157.0,4107.0,-488.0,64.0,18.0,24.0,1.0
2022-05-06 14:41:48.632512-07:00,1124.4,673.3,1108.6,1050.4,1223.9,739.7,1671.9,1510.6,3472.2,3475.9,1222.2,922.0,1681.4,3474.6,1661.5,1339.5,3480.7,3483.2,303.6,559.4,838.6,1058.2,584.3,1521.8,3477.1,3477.1,668.4,746.3,2032.4,1170.9,1095.6,1118.2,2.0,11.0,-16.0,8370.0,-8688.0,9553.0,-5624.0,-16.0,44.0,12.0,3.0,-5.0,4.0,7138.0,-14152.0,4118.0,-492.0,-37.0,8.0,11.0,1.0
2022-05-06 14:41:48.691086-07:00,1128.7,673.3,1108.6,1050.4,1233.7,738.1,1671.9,1510.6,3479.5,3475.9,1222.2,922.0,1682.4,3469.8,1655.8,1339.5,3480.7,3483.2,312.0,561.8,838.6,1058.2,584.3,1524.5,3477.1,3472.2,666.0,744.7,2032.4,1170.9,1095.6,1118.2,16.0,4.0,1.0,8368.0,-8689.0,9554.0,-5625.0,37.0,-3.0,-8.0,6.0,7.0,-4.0,7138.0,-14152.0,4119.0,-492.0,34.0,1.0,-1.0,1.0
2022-05-06 14:41:48.721026-07:00,1128.7,673.3,1111.2,1038.3,1233.7,738.1,1671.9,1511.5,3479.5,3475.9,1222.2,923.7,1682.4,3469.8,1655.8,1333.2,3467.4,3483.2,312.0,561.8,837.7,1066.9,587.5,1524.5,3474.6,3472.2,666.0,744.7,2032.4,1172.6,1090.3,1118.2,1.0,6.0,-4.0,8375.0,-8684.0,9548.0,-5632.0,21.0,-24.0,-13.0,2.0,-8.0,14.0,7143.0,-14150.0,4119.0,-493.0,7.0,-5.0,-6.0,1.0
2022-05-06 14:41:48.811568-07:00,1128.7,673.3,1111.2,1038.3,1224.8,731.5,1665.3,1511.5,3464.9,3475.9,1222.2,923.7,1681.4,3488.0,1646.4,1333.2,3467.4,3474.6,305.1,561.8,837.7,1066.9,587.5,1526.4,3474.6,3478.3,672.5,745.5,2032.4,1172.6,1090.3,1105.1,14.0,8.0,0.0,8389.0,-8703.0,9526.0,-5620.0,-13.0,-79.0,-40.0,3.0,3.0,-2.0,7138.0,-14152.0,4118.0,-493.0,0.0,-9.0,-17.0,1.0
2022-05-06 14:41:48.812618-07:00,1128.7,670.1,1106.9,1041.8,1224.8,731.5,1665.3,1484.7,3464.9,3477.1,1224.8,923.7,1681.4,3488.0,1645.4,1327.8,3480.7,3474.6,305.1,561.8,841.9,1054.8,594.7,1526.4,3478.3,3490.5,672.5,745.5,2038.4,1178.8,1088.6,1105.1,-1.0,0.0,1.0,8399.0,-8702.0,9510.0,-5632.0,81.0,4.0,-9.0,3.0,-14.0,18.0,7152.0,-14147.0,4112.0,-497.0,59.0,-13.0,-6.0,1.0
2022-05-06 14:41:48.871626-07:00,1131.4,676.6,1106.9,1041.8,1217.7,738.9,1665.3,1484.7,3478.3,3467.4,1224.8,923.7,1663.4,3473.4,1645.4,1327.8,3480.7,3474.6,305.1,555.4,841.9,1054.8,580.2,1534.8,3478.3,3490.5,671.7,742.2,2038.4,1178.8,1088.6,1098.2,15.0,-1.0,11.0,8411.0,-8718.0,9490.0,-5624.0,-62.0,-71.0,-35.0,8.0,-2.0,6.0,7153.0,-14146.0,4111.0,-496.0,-53.0,-7.0,-3.0,1.0
2022-05-06 14:41:48.961076-07:00,1131.4,676.6,1104.3,1046.1,1217.7,738.9,1662.5,1490.3,3478.3,3467.4,1213.3,916.0,1663.4,3473.4,1635.0,1334.1,3469.8,3484.4,305.1,555.4,840.3,1058.2,580.2,1534.8,3467.4,3477.1,671.7,742.2,2020.4,1170.9,1088.6,1098.2,-3.0,2.0,-5.0,8410.0,-8720.0,9484.0,-5631.0,21.0,35.0,5.0,0.0,-13.0,14.0,7155.0,-14146.0,4110.0,-496.0,13.0,3.0,2.0,1.0
2022-05-06 14:41:48.962582-07:00,1129.6,671.7,1104.3,1046.1,1214.2,732.3,1662.5,1490.3,3466.1,3477.1,1213.3,916.0,1665.3,3469.8,1635.0,1334.1,3469.8,3484.4,300.5,557.0,840.3,1058.2,586.7,1519.0,3467.4,3477.1,674.2,739.7,2020.4,1170.9,1087.7,1106.9,11.0,-5.0,-1.0,8412.0,-8727.0,9478.0,-5629.0,12.0,-30.0,-23.0,3.0,-5.0,0.0,7156.0,-14145.0,4110.0,-497.0,18.0,-3.0,4.0,1.0
2022-05-06 14:41:49.051116-07:00,1129.6,671.7,1103.4,1038.3,1214.2,732.3,1658.7,1486.6,3466.1,3477.1,1219.5,917.7,1665.3,3469.8,1626.5,1318.7,3472.2,3473.4,300.5,557.0,844.4,1059.9,586.7,1519.0,3471.0,3483.2,674.2,739.7,2021.4,1164.7,1087.7,1106.9,6.0,8.0,-7.0,8429.0,-8712.0,9468.0,-5644.0,42.0,7.0,30.0,4.0,-4.0,5.0,7181.0,-14134.0,4106.0,-498.0,25.0,-12.0,1.0,1.0
2022-05-06 14:41:49.081089-07:00,1117.4,676.6,1118.2,1038.3,1204.4,735.6,1658.7,1486.6,3475.9,3464.9,1216.0,917.7,1664.4,3467.4,1626.5,1318.7,3472.2,3473.4,310.5,562.6,844.4,1059.1,581.8,1518.0,3471.0,3483.2,662.7,738.9,2021.4,1161.2,1087.7,1097.3,12.0,-3.0,22.0,8427.0,-8727.0,9466.0,-5626.0,-49.0,-43.0,-25.0,2.0,-15.0,11.0,7168.0,-14141.0,4106.0,-494.0,-37.0,4.0,-3.0,1.0
2022-05-06 14:41:49.110580-07:00,1117.4,676.6,1118.2,1037.5,1204.4,738.9,1667.2,1478.3,3475.9,3464.9,1216.0,917.7,1664.4,3473.4,1617.1,1325.0,3481.9,3481.9,302.0,562.6,837.7,1059.1,581.8,1518.0,3475.9,3474.6,672.5,738.9,2006.4,1161.2,1087.7,1097.3,-2.0,-2.0,-3.0,8435.0,-8715.0,9457.0,-5649.0,59.0,56.0,16.0,0.0,-9.0,5.0,7184.0,-14132.0,4106.0,-499.0,39.0,11.0,10.0,1.0
2022-05-06 14:41:49.170987-07:00,1121.7,678.2,1102.5,1037.5,1210.6,738.9,1667.2,1478.3,3475.9,3478.3,1215.1,917.7,1655.8,3473.4,1617.1,1325.0,3481.9,3481.9,302.0,561.0,837.7,1057.3,579.4,1519.0,3475.9,3474.6,672.5,734.8,2006.4,1163.0,1073.8,1098.2,12.0,5.0,0.0,8424.0,-8718.0,9468.0,-5642.0,-67.0,-10.0,2.0,8.0,-9.0,6.0,7169.0,-14138.0,4114.0,-498.0,-61.0,15.0,12.0,1.0
2022-05-06 14:41:49.231102-07:00,1121.7,678.2,1102.5,1038.3,1210.6,735.6,1660.6,1499.5,3475.9,3478.3,1215.1,926.2,1655.8,3471.0,1623.7,1327.8,3475.9,3468.6,299.7,561.0,836.9,1057.3,579.4,1519.0,3484.4,3475.9,666.8,734.8,2000.5,1163.0,1073.8,1098.2,6.0,9.0,-7.0,8420.0,-8728.0,9468.0,-5632.0,-16.0,-5.0,6.0,2.0,2.0,0.0,7165.0,-14140.0,4114.0,-498.0,-14.0,5.0,-3.0,1.0
2022-05-06 14:41:49.261204-07:00,1123.5,670.9,1096.4,1038.3,1202.7,735.6,1660.6,1499.5,3479.5,3472.2,1207.1,926.2,1656.8,3471.0,1623.7,1327.8,3475.9,3468.6,299.7,566.6,836.9,1047.0,579.4,1509.7,3484.4,3475.9,666.8,736.5,2000.5,1162.1,1079.9,1095.6,5.0,-6.0,8.0,8411.0,-8746.0,9473.0,-5610.0,-64.0,-59.0,-14.0,0.0,-8.0,9.0,7151.0,-14147.0,4114.0,-494.0,-19.0,-6.0,-5.0,1.0
2022-05-06 14:41:49.321423-07:00,1123.5,670.9,1096.4,1034.9,1202.7,733.2,1640.7,1493.0,3479.5,3472.2,1207.1,917.7,1656.8,3469.8,1623.7,1320.5,3485.6,3484.4,302.0,566.6,843.6,1047.0,579.4,1509.7,3480.7,3478.3,661.1,736.5,2004.5,1162.1,1079.9,1095.6,7.0,18.0,-5.0,8436.0,-8735.0,9451.0,-5626.0,136.0,9.0,21.0,2.0,11.0,0.0,7185.0,-14131.0,4108.0,-499.0,133.0,-13.0,-13.0,1.0
2022-05-06 14:41:49.411065-07:00,1120.0,675.8,1106.9,1028.8,1207.1,733.2,1640.7,1493.0,3473.4,3478.3,1209.7,922.8,1647.3,3469.8,1623.7,1320.5,3485.6,3484.4,302.0,561.8,838.6,1053.9,573.8,1506.0,3480.7,3478.3,661.1,735.6,2000.5,1146.3,1069.5,1087.7,4.0,4.0,8.0,8443.0,-8725.0,9455.0,-5624.0,-58.0,7.0,25.0,5.0,-11.0,9.0,7192.0,-14128.0,4108.0,-501.0,-53.0,3.0,7.0,1.0
2022-05-06 14:41:49.441790-07:00,1120.0,675.8,1106.9,1028.8,1194.7,729.9,1655.8,1488.4,3473.4,3478.3,1209.7,922.8,1651.1,3474.6,1620.9,1322.3,3480.7,3485.6,306.7,556.2,838.6,1053.9,573.8,1506.0,3475.9,3480.7,659.5,731.5,2000.5,1146.3,1069.5,1087.7,8.0,-8.0,11.0,8436.0,-8735.0,9458.0,-5615.0,38.0,12.0,-3.0,3.0,-1.0,3.0,7179.0,-14133.0,4113.0,-496.0,37.0,1.0,14.0,1.0
2022-05-06 14:41:49.561128-07:00,1117.4,669.3,1098.2,1030.6,1194.7,729.9,1655.8,1488.4,3478.3,3471.0,1202.7,912.7,1651.1,3474.6,1620.9,1322.3,3480.7,3485.6,306.7,556.2,839.4,1061.7,569.0,1502.3,3475.9,3480.7,659.5,731.5,1982.6,1156.8,1069.5,1084.2,1.0,0.0,-2.0,8449.0,-8705.0,9456.0,-5644.0,79.0,24.0,18.0,3.0,-6.0,4.0,7202.0,-14119.0,4120.0,-498.0,42.0,-1.0,28.0,1.0
2022-05-06 14:41:49.562677-07:00,1117.4,669.3,1098.2,1030.6,1188.5,734.0,1659.6,1485.6,3478.3,3471.0,1202.7,912.7,1640.7,3467.4,1613.4,1317.8,3488.0,3475.9,302.0,556.2,839.4,1061.7,569.0,1502.3,3480.7,3477.1,661.9,743.9,1982.6,1156.8,1069.5,1084.2,-21.0,-85.0,63.0,8509.0,-8680.0,9405.0,-5678.0,407.0,-186.0,-71.0,8.0,-94.0,34.0,7245.0,-14094.0,4129.0,-505.0,243.0,2.0,38.0,1.0
2022-05-06 14:41:49.563591-07:00,1141.9,666.8,1100.8,1038.3,1188.5,734.0,1659.6,1485.6,3467.4,3472.2,1227.5,933.0,1640.7,3467.4,1613.4,1317.8,3488.0,3475.9,302.0,556.2,838.6,1058.2,577.0,1501.4,3480.7,3477.1,661.9,743.9,1987.5,1177.9,1080.8,1075.6,-15.0,-47.0,14.0,8895.0,-8546.0,9033.0,-5889.0,1788.0,-807.0,-287.0,10.0,-52.0,38.0,7603.0,-13896.0,4149.0,-567.0,1425.0,-84.0,145.0,1.0
2022-05-06 14:41:49.621176-07:00,1110.4,666.8,1100.8,1038.3,1192.9,783.6,1763.7,1502.3,3468.6,3472.2,1227.5,933.0,1651.1,3478.3,1811.0,1364.8,3478.3,3479.5,298.2,560.2,838.6,1058.2,577.0,1540.3,3478.3,3475.9,686.4,1015.9,1987.5,1177.9,1080.8,1083.4,34.0,9.0,-17.0,9379.0,-8259.0,8567.0,-6234.0,1461.0,-238.0,-228.0,-15.0,31.0,-84.0,8191.0,-13556.0,4141.0,-662.0,1389.0,-159.0,126.0,1.0
2022-05-06 14:41:49.681044-07:00,1110.4,670.9,1187.6,1113.0,1192.9,783.6,1763.7,1523.6,3468.6,3471.0,1465.4,963.7,1651.1,3478.3,1811.0,1592.7,3475.9,3479.5,298.2,560.2,841.1,1054.8,581.8,1540.3,3469.8,3475.9,686.4,1015.9,1989.5,1320.5,1174.4,1083.4,-1.0,-118.0,-54.0,9611.0,-7871.0,8386.0,-6616.0,1968.0,352.0,216.0,-20.0,-84.0,26.0,8669.0,-13261.0,4115.0,-709.0,1765.0,-248.0,131.0,1.0
2022-05-06 14:41:49.711384-07:00,1096.4,670.9,1187.6,1113.0,1193.8,782.7,1917.4,1523.6,3467.4,3471.0,1465.4,963.7,1720.5,3467.4,2354.6,1592.7,3475.9,3479.5,302.8,560.2,841.1,1054.8,581.8,1558.1,3469.8,3472.2,720.0,1062.5,1989.5,1320.5,1174.4,1085.1,59.0,61.0,61.0,10073.0,-7210.0,8121.0,-7002.0,1823.0,95.0,307.0,58.0,87.0,-37.0,9389.0,-12779.0,4036.0,-824.0,1424.0,-207.0,17.0,1.0
2022-05-06 14:41:49.771041-07:00,1096.4,666.8,1433.2,1261.3,1193.8,782.7,1917.4,1505.1,3467.4,3468.6,1604.0,1070.3,1720.5,3467.4,2354.6,1692.9,3469.8,3479.5,302.8,560.2,836.9,1070.3,602.8,1558.1,3475.9,3472.2,720.0,1062.5,2046.4,1545.9,1507.8,1085.1,-1.0,92.0,-52.0,10306.0,-6980.0,7866.0,-7186.0,436.0,-510.0,-190.0,3.0,45.0,28.0,9766.0,-12507.0,3981.0,-898.0,728.0,-67.0,-36.0,1.0
2022-05-06 14:41:49.831063-07:00,1092.9,666.8,1433.2,1261.3,1193.8,783.6,1919.3,1505.1,3466.1,3468.6,1604.0,1070.3,1765.6,3469.8,2313.9,1692.9,3469.8,3481.9,302.0,560.2,836.9,1070.3,602.8,1578.6,3475.9,3479.5,738.9,1043.5,2046.4,1545.9,1507.8,1098.2,34.0,-4.0,-35.0,10411.0,-7096.0,7627.0,-7179.0,171.0,-561.0,-310.0,15.0,-24.0,-55.0,9899.0,-12411.0,3941.0,-931.0,302.0,-70.0,-46.0,1.0
2022-05-06 14:41:49.861487-07:00,1092.9,666.0,1547.8,1364.8,1193.8,783.6,1891.8,1497.7,3466.1,3478.3,1570.2,1087.7,1765.6,3469.8,2216.8,1691.9,3477.1,3481.9,302.0,560.2,835.2,1052.2,596.3,1578.6,3472.2,3472.2,738.9,1043.5,2070.5,1476.4,1415.8,1098.2,18.0,41.0,-56.0,10543.0,-7197.0,7303.0,-7223.0,393.0,-766.0,-354.0,7.0,21.0,-4.0,10070.0,-12290.0,3880.0,-972.0,593.0,-110.0,-90.0,1.0
2022-05-06 14:41:49.921083-07:00,1095.6,665.2,1547.8,1364.8,1200.0,777.8,1891.8,1497.7,3469.8,3472.2,1570.2,1087.7,1757.0,3475.9,2216.8,1691.9,3477.1,3481.9,302.0,569.8,835.2,1052.2,587.5,1616.2,3472.2,3472.2,743.0,1026.3,2070.5,1476.4,1380.3,1166.5,28.0,-77.0,-13.0,10643.0,-7385.0,7028.0,-7158.0,-288.0,-705.0,-220.0,-5.0,-41.0,-10.0,10161.0,-12237.0,3804.0,-991.0,-151.0,-98.0,-95.0,1.0
2022-05-06 14:41:49.981637-07:00,1095.6,665.2,1551.5,1382.1,1200.0,777.8,1861.5,1486.6,3469.8,3472.2,1551.5,1086.0,1757.0,3475.9,2173.8,1671.0,3472.2,3478.3,302.0,569.8,835.2,1052.2,587.5,1616.2,3469.8,3483.2,743.0,1026.3,2050.4,1449.7,1380.3,1166.5,4.0,31.0,13.0,10722.0,-7518.0,6849.0,-7075.0,103.0,-470.0,-66.0,9.0,-14.0,15.0,10229.0,-12201.0,3740.0,-980.0,315.0,-150.0,-55.0,1.0
2022-05-06 14:41:50.011311-07:00,1088.6,666.8,1551.5,1382.1,1203.5,774.5,1861.5,1486.6,3457.6,3477.1,1551.5,1086.0,1742.6,3468.6,2173.8,1671.0,3472.2,3478.3,305.9,569.8,835.2,1052.2,581.0,1579.6,3469.8,3483.2,744.7,1034.0,2050.4,1449.7,1364.8,1167.4,-1.0,28.0,-36.0,10742.0,-7700.0,6717.0,-6975.0,-506.0,-566.0,-176.0,7.0,20.0,-5.0,10282.0,-12176.0,3675.0,-970.0,-64.0,-122.0,-79.0,1.0
2022-05-06 14:41:50.071604-07:00,1088.6,666.8,1548.7,1377.5,1203.5,774.5,1833.3,1446.0,3457.6,3477.1,1539.4,1080.8,1742.6,3468.6,2142.2,1666.3,3471.0,3472.2,305.9,569.8,836.1,1056.5,581.0,1579.6,3480.7,3478.3,744.7,1034.0,2029.4,1452.5,1364.8,1167.4,78.0,44.0,72.0,10740.0,-7917.0,6568.0,-6875.0,-43.0,-440.0,-192.0,1.0,-3.0,20.0,10301.0,-12181.0,3613.0,-952.0,254.0,-145.0,-84.0,1.0
2022-05-06 14:41:50.130996-07:00,1087.7,662.7,1548.7,1377.5,1278.3,774.5,1833.3,1446.0,3469.8,3475.9,1539.4,1080.8,1761.8,3471.0,2142.2,1666.3,3471.0,3472.2,305.1,569.8,836.1,1056.5,581.0,1573.0,3480.7,3478.3,745.5,1022.8,2029.4,1452.5,1350.3,1158.6,-13.0,5.0,-16.0,10698.0,-8089.0,6494.0,-6810.0,-431.0,-386.0,-255.0,2.0,-30.0,31.0,10279.0,-12211.0,3577.0,-939.0,-284.0,-17.0,-33.0,1.0
2022-05-06 14:41:50.191267-07:00,1087.7,662.7,1514.3,1334.1,1278.3,779.4,1811.9,1399.4,3469.8,3475.9,1539.4,1079.0,1761.8,3475.9,2131.1,1650.2,3472.2,3472.2,305.1,569.8,836.1,1058.2,581.0,1573.0,3473.4,3474.6,746.3,1022.8,2026.4,1416.7,1350.3,1158.6,58.0,-15.0,-22.0,10657.0,-8325.0,6385.0,-6693.0,-505.0,-487.0,-123.0,11.0,12.0,-41.0,10245.0,-12244.0,3565.0,-929.0,-103.0,-58.0,-51.0,1.0
2022-05-06 14:41:50.221179-07:00,1091.2,670.1,1487.5,1334.1,1254.2,779.4,1811.9,1399.4,3475.9,3462.5,1519.0,1079.0,1783.9,3475.9,2131.1,1650.2,3472.2,3472.2,305.1,571.4,836.1,1053.9,573.0,1566.5,3473.4,3474.6,746.3,1017.6,2026.4,1408.5,1346.7,1179.7,-3.0,-39.0,-33.0,10573.0,-8540.0,6344.0,-6593.0,-400.0,-247.0,-194.0,-27.0,-20.0,13.0,10183.0,-12306.0,3535.0,-900.0,-194.0,-93.0,-24.0,1.0
2022-05-06 14:41:50.280982-07:00,1091.2,670.1,1487.5,1310.6,1254.2,793.5,1780.1,1383.0,3475.9,3462.5,1519.0,1071.2,1783.9,3477.1,2134.1,1635.0,3472.2,3478.3,300.5,571.4,834.4,1053.9,573.0,1566.5,3478.3,3478.3,738.1,1017.6,2282.8,1408.5,1346.7,1179.7,34.0,-37.0,65.0,10578.0,-8667.0,6237.0,-6520.0,11.0,-395.0,-65.0,10.0,21.0,-59.0,10186.0,-12317.0,3499.0,-861.0,169.0,-179.0,-20.0,1.0
2022-05-06 14:41:50.311051-07:00,1090.3,661.9,1483.8,1310.6,1284.6,793.5,1780.1,1383.0,3474.6,3467.4,1498.6,1071.2,1757.0,3477.1,2134.1,1635.0,3472.2,3478.3,300.5,574.6,834.4,1051.3,561.8,1549.7,3478.3,3478.3,738.1,1010.8,2282.8,1439.6,1364.8,1170.9,-6.0,-31.0,-7.0,10677.0,-8588.0,6158.0,-6539.0,600.0,110.0,114.0,-2.0,65.0,-24.0,10279.0,-12256.0,3450.0,-822.0,594.0,-224.0,8.0,1.0
