Time,P0,P1,P2,P3,P4,P5,P6,P7,P8,P9,P10,P11,P12,P13,P14,P15,P16,P17,P18,P19,P20,P21,P22,P23,P24,P25,P26,P27,P28,P29,P30,P31,ECG,AX0,AY0,AZ0,QW0,QX0,QY0,QZ0,GX0,GY0,GZ0,AX1,AY1,AZ1,QW1,QX1,QY1,QZ1,GX1,GY1,GZ1
2022-05-06 12:58:09.894184-07:00,1673.8,618.1,1183.2,1386.6,889.8,1213.3,1198.2,1426.8,3444.3,3438.2,1378.5,1419.5,1375.7,3440.7,976.5,1318.7,3449.1,3437.0,641.6,1267.6,864.6,528.2,1264.9,1569.3,3439.5,3444.3,786.1,966.2,1568.3,1602.1,1350.3,1040.1,5.0,2.0,12.0,9902.0,13022.0,83.0,-902.0,18.0,-2.0,2.0,-5.0,0.0,13.0,8018.0,7429.0,8697.0,8563.0,15.0,3.0,0.0,1.0
2022-05-06 12:58:09.951338-07:00,1673.8,618.1,1183.2,1386.6,892.4,1217.7,1197.4,1427.7,3444.3,3438.2,1378.5,1419.5,1379.4,3432.2,976.5,1311.5,3437.0,3444.3,640.8,1268.5,864.6,528.2,1264.9,1569.3,3441.9,3449.1,790.2,969.6,1568.3,1602.1,1350.3,1040.1,0.0,3.0,14.0,9901.0,13023.0,85.0,-900.0,0.0,16.0,5.0,-8.0,0.0,13.0,8017.0,7430.0,8697.0,8562.0,7.0,6.0,2.0,1.0
2022-05-06 12:58:10.041172-07:00,1667.2,617.3,1186.7,1388.5,892.4,1217.7,1197.4,1427.7,3443.1,3449.1,1387.5,1420.4,1379.4,3432.2,976.5,1311.5,3437.0,3444.3,640.8,1268.5,860.4,526.6,1258.7,1570.2,3441.9,3449.1,790.2,969.6,1574.9,1560.9,1348.5,1043.5,0.0,-4.0,11.0,9899.0,13024.0,88.0,-896.0,15.0,9.0,-6.0,-2.0,-8.0,14.0,8016.0,7431.0,8699.0,8561.0,6.0,8.0,-4.0,1.0
2022-05-06 12:58:10.042639-07:00,1667.2,617.3,1186.7,1388.5,883.1,1219.5,1202.7,1427.7,3443.1,3449.1,1387.5,1420.4,1373.0,3438.2,979.0,1315.1,3435.8,3444.3,646.5,1267.6,860.4,526.6,1258.7,1570.2,3449.1,3440.7,786.9,965.4,1574.9,1560.9,1348.5,1043.5,6.0,0.0,8.0,9896.0,13026.0,88.0,-896.0,3.0,-4.0,-6.0,-7.0,-3.0,6.0,8015.0,7432.0,8699.0,8560.0,2.0,-1.0,-3.0,1.0
2022-05-06 12:58:10.101225-07:00,1668.2,614.9,1184.1,1386.6,883.1,1219.5,1202.7,1447.0,3439.5,3446.7,1391.2,1416.7,1373.0,3438.2,979.0,1315.1,3429.8,3444.3,646.5,1267.6,859.5,526.6,1265.8,1572.1,3443.1,3440.7,786.9,965.4,1561.8,1570.2,1353.1,1034.0,-3.0,-5.0,15.0,9899.0,13024.0,89.0,-896.0,-7.0,4.0,3.0,-8.0,-6.0,14.0,8018.0,7429.0,8697.0,8563.0,-7.0,-2.0,4.0,1.0
2022-05-06 12:58:10.161148-07:00,1660.6,614.9,1184.1,1386.6,895.7,1212.4,1203.5,1447.0,3437.0,3446.7,1391.2,1416.7,1376.6,3440.7,973.1,1315.1,3429.8,3437.0,640.0,1267.6,859.5,526.6,1265.8,1572.1,3443.1,3444.3,788.6,971.3,1561.8,1570.2,1353.1,1040.1,1.0,5.0,15.0,9899.0,13024.0,91.0,-892.0,-5.0,13.0,0.0,-8.0,-2.0,15.0,8017.0,7430.0,8697.0,8563.0,1.0,3.0,2.0,1.0
2022-05-06 12:58:10.221147-07:00,1660.6,607.6,1182.3,1387.5,895.7,1212.4,1203.5,1425.0,3437.0,3444.3,1387.5,1422.2,1376.6,3440.7,973.1,1314.2,3439.5,3437.0,640.0,1267.6,861.2,524.2,1262.2,1572.1,3449.1,3444.3,788.6,971.3,1564.6,1573.9,1361.2,1040.1,2.0,3.0,12.0,9898.0,13025.0,92.0,-893.0,6.0,6.0,-11.0,-4.0,-1.0,13.0,8017.0,7430.0,8697.0,8562.0,-2.0,6.0,-12.0,1.0
2022-05-06 12:58:10.251711-07:00,1667.2,607.6,1182.3,1387.5,889.0,1212.4,1192.9,1425.0,3433.4,3444.3,1387.5,1422.2,1379.4,3438.2,977.3,1314.2,3439.5,3439.5,640.0,1265.8,861.2,524.2,1262.2,1562.7,3449.1,3441.9,790.2,967.1,1564.6,1573.9,1361.2,1038.3,0.0,-6.0,13.0,9898.0,13025.0,93.0,-894.0,-3.0,7.0,2.0,-9.0,-8.0,12.0,8018.0,7429.0,8698.0,8562.0,6.0,4.0,8.0,1.0
2022-05-06 12:58:10.311769-07:00,1667.2,613.3,1177.0,1394.8,889.0,1212.4,1192.9,1424.1,3433.4,3449.1,1387.5,1420.4,1379.4,3438.2,977.3,1312.4,3440.7,3439.5,640.0,1265.8,862.1,528.2,1261.3,1562.7,3438.2,3441.9,790.2,967.1,1567.4,1569.3,1357.6,1038.3,2.0,7.0,9.0,9897.0,13026.0,90.0,-892.0,11.0,1.0,8.0,-7.0,-4.0,13.0,8017.0,7430.0,8697.0,8563.0,5.0,-2.0,5.0,1.0
2022-05-06 12:58:10.401252-07:00,1666.3,618.9,1177.0,1394.8,883.9,1211.5,1194.7,1424.1,3441.9,3431.0,1387.5,1420.4,1378.5,3449.1,979.9,1312.4,3440.7,3437.0,637.6,1264.9,862.1,528.2,1266.7,1569.3,3438.2,3437.0,786.1,963.7,1567.4,1569.3,1354.0,1034.9,3.0,1.0,13.0,9897.0,13026.0,89.0,-895.0,-10.0,-12.0,-4.0,-5.0,-6.0,12.0,8016.0,7431.0,8697.0,8562.0,0.0,-3.0,-2.0,1.0
2022-05-06 12:58:10.402323-07:00,1666.3,618.9,1174.4,1390.3,883.9,1211.5,1200.0,1427.7,3441.9,3431.0,1385.7,1414.9,1378.5,3449.1,969.6,1316.9,3438.2,3440.7,637.6,1264.9,864.6,522.6,1266.7,1569.3,3443.1,3441.9,786.1,963.7,1562.7,1578.6,1354.0,1034.9,1.0,0.0,17.0,9897.0,13026.0,89.0,-895.0,-5.0,-4.0,-9.0,-7.0,0.0,18.0,8016.0,7431.0,8697.0,8562.0,-5.0,-3.0,-5.0,1.0
2022-05-06 12:58:10.461638-07:00,1672.9,615.7,1174.4,1390.3,893.2,1210.6,1200.0,1427.7,3449.1,3441.9,1385.7,1414.9,1380.3,3439.5,969.6,1316.9,3438.2,3440.7,642.4,1265.8,864.6,522.6,1263.1,1571.1,3443.1,3441.9,790.2,963.7,1562.7,1578.6,1354.0,1042.6,3.0,0.0,16.0,9897.0,13026.0,89.0,-894.0,5.0,9.0,3.0,-6.0,-3.0,13.0,8016.0,7431.0,8697.0,8562.0,-2.0,2.0,-1.0,1.0
2022-05-06 12:58:10.491619-07:00,1672.9,615.7,1173.5,1378.5,893.2,1210.6,1200.0,1430.5,3449.1,3441.9,1382.1,1415.8,1380.3,3439.5,980.7,1309.7,3435.8,3441.9,642.4,1265.8,865.4,528.2,1263.1,1571.1,3437.0,3447.9,790.2,963.7,1567.4,1566.5,1354.0,1042.6,-1.0,-1.0,11.0,9898.0,13026.0,92.0,-891.0,3.0,4.0,-6.0,-7.0,-5.0,16.0,8016.0,7431.0,8697.0,8562.0,-2.0,4.0,3.0,1.0
2022-05-06 12:58:10.641103-07:00,1656.8,610.8,1173.5,1378.5,887.3,1208.0,1200.0,1430.5,3444.3,3440.7,1382.1,1415.8,1386.6,3437.0,980.7,1309.7,3435.8,3441.9,641.6,1268.5,865.4,528.2,1258.7,1571.1,3437.0,3447.9,791.9,967.9,1567.4,1566.5,1354.9,1034.0,3.0,2.0,10.0,9896.0,13027.0,91.0,-891.0,-3.0,-10.0,-7.0,-6.0,-4.0,13.0,8016.0,7432.0,8698.0,8561.0,-2.0,4.0,-2.0,1.0
2022-05-06 12:58:10.642674-07:00,1656.8,610.8,1174.4,1385.7,887.3,1216.8,1203.5,1425.9,3444.3,3440.7,1373.9,1417.6,1386.6,3438.2,976.5,1306.1,3439.5,3434.6,640.0,1268.5,865.4,521.8,1258.7,1571.1,3431.0,3440.7,789.4,967.9,1567.4,1573.9,1354.9,1034.0,2.0,-8.0,19.0,9896.0,13026.0,92.0,-899.0,1.0,-6.0,-3.0,-7.0,-4.0,12.0,8016.0,7432.0,8698.0,8561.0,0.0,-5.0,-5.0,1.0
2022-05-06 12:58:10.643234-07:00,1660.6,612.5,1178.8,1385.7,885.6,1216.8,1203.5,1425.9,3444.3,3443.1,1382.1,1417.6,1383.0,3438.2,976.5,1306.1,3439.5,3434.6,640.0,1270.3,865.4,525.8,1256.0,1566.5,3431.0,3440.7,789.4,970.5,1567.4,1570.2,1349.4,1031.4,0.0,-1.0,19.0,9898.0,13025.0,92.0,-899.0,-9.0,-3.0,2.0,-7.0,-7.0,11.0,8017.0,7430.0,8697.0,8563.0,-10.0,-4.0,4.0,1.0
2022-05-06 12:58:10.791202-07:00,1660.6,612.5,1178.8,1383.9,885.6,1216.0,1193.8,1422.2,3444.3,3443.1,1382.1,1421.3,1383.0,3437.0,973.1,1315.1,3439.5,3438.2,640.0,1270.3,865.4,525.8,1256.0,1566.5,3447.9,3437.0,788.6,970.5,1568.3,1570.2,1349.4,1031.4,4.0,3.0,20.0,9896.0,13026.0,92.0,-899.0,5.0,9.0,-3.0,-6.0,-7.0,15.0,8017.0,7430.0,8697.0,8563.0,8.0,-1.0,1.0,1.0
2022-05-06 12:58:10.792862-07:00,1665.3,607.6,1173.5,1383.9,884.8,1216.0,1193.8,1422.2,3441.9,3439.5,1381.2,1421.3,1374.8,3437.0,973.1,1315.1,3439.5,3438.2,640.0,1264.0,865.4,528.2,1259.6,1559.0,3447.9,3437.0,788.6,966.2,1568.3,1573.9,1354.9,1037.5,5.0,-5.0,13.0,9896.0,13026.0,92.0,-898.0,-1.0,-6.0,2.0,-4.0,-4.0,13.0,8017.0,7430.0,8697.0,8563.0,-1.0,3.0,-2.0,1.0
2022-05-06 12:58:10.794517-07:00,1665.3,607.6,1173.5,1383.9,884.8,1209.7,1208.9,1452.5,3441.9,3439.5,1381.2,1417.6,1374.8,3449.1,974.8,1316.9,3433.4,3433.4,640.8,1264.0,865.4,528.2,1259.6,1559.0,3450.4,3443.1,785.2,966.2,1565.5,1573.9,1354.9,1037.5,0.0,12.0,18.0,9892.0,13029.0,92.0,-898.0,8.0,7.0,-10.0,-10.0,-1.0,17.0,8015.0,7432.0,8699.0,8561.0,4.0,3.0,-5.0,1.0
2022-05-06 12:58:10.851799-07:00,1672.9,611.7,1177.9,1383.9,890.7,1209.7,1208.9,1452.5,3441.9,3440.7,1386.6,1417.6,1380.3,3449.1,974.8,1316.9,3433.4,3433.4,640.8,1265.8,865.4,531.4,1260.4,1573.9,3450.4,3443.1,785.2,963.7,1565.5,1572.1,1357.6,1039.2,4.0,-4.0,19.0,9893.0,13029.0,95.0,-900.0,11.0,12.0,7.0,-9.0,-1.0,14.0,8017.0,7430.0,8699.0,8561.0,11.0,4.0,0.0,1.0
2022-05-06 12:58:10.911751-07:00,1672.9,611.7,1177.9,1386.6,889.0,1209.7,1190.3,1418.6,3441.9,3440.7,1386.6,1419.5,1373.9,3445.5,972.2,1311.5,3435.8,3441.9,642.4,1270.3,862.9,531.4,1260.4,1573.9,3444.3,3440.7,799.4,961.1,1568.3,1572.1,1357.6,1039.2,3.0,1.0,7.0,9894.0,13028.0,97.0,-895.0,3.0,3.0,-11.0,-5.0,-5.0,14.0,8019.0,7429.0,8699.0,8561.0,1.0,-2.0,0.0,1.0
2022-05-06 12:58:10.941133-07:00,1665.3,614.1,1178.8,1387.5,889.0,1209.7,1190.3,1418.6,3440.7,3434.6,1378.5,1415.8,1373.9,3445.5,972.2,1311.5,3435.8,3441.9,642.4,1270.3,866.3,525.0,1263.1,1567.4,3444.3,3440.7,799.4,961.1,1572.1,1577.7,1352.1,1028.0,-2.0,-6.0,13.0,9895.0,13027.0,98.0,-897.0,-3.0,-11.0,19.0,-11.0,-1.0,15.0,8021.0,7427.0,8697.0,8562.0,-3.0,-10.0,11.0,1.0
2022-05-06 12:58:11.001154-07:00,1665.3,614.1,1178.8,1387.5,892.4,1207.1,1195.6,1426.8,3440.7,3434.6,1378.5,1415.8,1373.0,3428.6,978.2,1314.2,3444.3,3435.8,639.2,1267.6,866.3,525.0,1263.1,1567.4,3444.3,3446.7,789.4,958.5,1572.1,1577.7,1352.1,1028.0,1.0,9.0,17.0,9898.0,13025.0,89.0,-895.0,-15.0,-11.0,11.0,-7.0,0.0,19.0,8024.0,7430.0,8690.0,8564.0,-9.0,-12.0,11.0,1.0
2022-05-06 12:58:11.061707-07:00,1669.1,617.3,1177.0,1390.3,892.4,1207.1,1195.6,1426.8,3438.2,3440.7,1380.3,1419.5,1373.0,3428.6,978.2,1314.2,3444.3,3435.8,639.2,1267.6,862.1,525.8,1257.8,1568.3,3444.3,3446.7,789.4,958.5,1562.7,1568.3,1350.3,1040.1,4.0,4.0,21.0,9903.0,13021.0,86.0,-898.0,19.0,0.0,-9.0,-4.0,-2.0,16.0,8027.0,7427.0,8688.0,8565.0,15.0,3.0,-6.0,1.0
2022-05-06 12:58:11.090986-07:00,1669.1,617.3,1177.0,1390.3,883.1,1218.6,1194.7,1422.2,3438.2,3440.7,1380.3,1419.5,1378.5,3441.9,977.3,1319.6,3444.3,3444.3,637.6,1268.5,862.1,525.8,1257.8,1568.3,3443.1,3446.7,791.0,965.4,1562.7,1568.3,1350.3,1040.1,1.0,-8.0,13.0,9904.0,13021.0,88.0,-895.0,-2.0,21.0,4.0,-7.0,-9.0,13.0,8028.0,7424.0,8688.0,8566.0,1.0,10.0,8.0,1.0
2022-05-06 12:58:11.151286-07:00,1664.4,611.7,1185.9,1387.5,883.1,1218.6,1194.7,1421.3,3428.6,3444.3,1386.6,1418.6,1378.5,3441.9,977.3,1311.5,3433.4,3444.3,637.6,1268.5,862.1,530.6,1261.3,1571.1,3435.8,3446.7,791.0,965.4,1567.4,1574.9,1352.1,1034.0,6.0,6.0,11.0,9905.0,13020.0,88.0,-891.0,-5.0,-2.0,3.0,-5.0,-3.0,7.0,8029.0,7424.0,8687.0,8568.0,0.0,-1.0,2.0,1.0
2022-05-06 12:58:11.241101-07:00,1673.8,611.7,1185.9,1387.5,894.9,1210.6,1193.8,1421.3,3438.2,3444.3,1386.6,1418.6,1372.1,3445.5,973.9,1311.5,3433.4,3435.8,640.8,1274.7,862.1,530.6,1261.3,1575.8,3435.8,3443.1,786.9,967.1,1567.4,1574.9,1352.1,1034.0,4.0,2.0,21.0,9905.0,13020.0,88.0,-891.0,14.0,-3.0,-7.0,-4.0,0.0,15.0,8030.0,7423.0,8686.0,8568.0,10.0,8.0,-4.0,1.0
2022-05-06 12:58:11.242134-07:00,1673.8,614.9,1176.2,1395.7,894.9,1210.6,1193.8,1434.1,3438.2,3438.2,1384.8,1417.6,1372.1,3445.5,973.9,1312.4,3440.7,3435.8,640.8,1274.7,861.2,524.2,1260.4,1575.8,3446.7,3443.1,786.9,967.1,1579.6,1575.8,1349.4,1034.0,0.0,-4.0,20.0,9906.0,13020.0,90.0,-888.0,10.0,19.0,-1.0,-6.0,-5.0,13.0,8030.0,7421.0,8688.0,8568.0,6.0,11.0,1.0,1.0
2022-05-06 12:58:11.331195-07:00,1659.6,614.9,1176.2,1395.7,894.9,1216.8,1197.4,1434.1,3441.9,3438.2,1384.8,1417.6,1377.5,3437.0,977.3,1312.4,3440.7,3438.2,644.0,1263.1,861.2,524.2,1260.4,1562.7,3446.7,3438.2,789.4,964.5,1579.6,1575.8,1349.4,1035.7,3.0,4.0,12.0,9900.0,13024.0,94.0,-882.0,12.0,17.0,-4.0,-6.0,-2.0,12.0,8027.0,7421.0,8692.0,8566.0,13.0,11.0,2.0,1.0
2022-05-06 12:58:11.361093-07:00,1659.6,608.4,1179.7,1383.9,894.9,1216.8,1197.4,1420.4,3441.9,3439.5,1383.9,1419.5,1377.5,3437.0,977.3,1314.2,3441.9,3438.2,644.0,1263.1,860.4,528.2,1264.0,1562.7,3447.9,3438.2,789.4,964.5,1571.1,1572.1,1354.0,1035.7,-1.0,-2.0,12.0,9901.0,13024.0,98.0,-877.0,13.0,11.0,4.0,-4.0,-1.0,9.0,8028.0,7420.0,8692.0,8566.0,9.0,4.0,3.0,1.0
2022-05-06 12:58:11.391792-07:00,1667.2,608.4,1179.7,1383.9,895.7,1209.7,1198.2,1420.4,3449.1,3439.5,1383.9,1419.5,1374.8,3444.3,972.2,1314.2,3441.9,3433.4,636.7,1264.9,860.4,528.2,1264.0,1564.6,3447.9,3435.8,790.2,966.2,1571.1,1572.1,1354.0,1034.0,0.0,3.0,9.0,9899.0,13026.0,98.0,-876.0,-1.0,-5.0,-1.0,-4.0,-5.0,10.0,8029.0,7419.0,8692.0,8566.0,4.0,-4.0,2.0,1.0
2022-05-06 12:58:11.481673-07:00,1667.2,614.9,1180.6,1391.2,895.7,1209.7,1200.9,1428.6,3449.1,3441.9,1388.5,1417.6,1374.8,3444.3,971.3,1319.6,3441.9,3438.2,636.7,1264.9,857.9,525.8,1265.8,1564.6,3452.8,3449.1,790.2,966.2,1561.8,1573.0,1354.9,1034.0,2.0,3.0,22.0,9901.0,13024.0,98.0,-876.0,-3.0,1.0,-3.0,-4.0,-3.0,14.0,8030.0,7417.0,8691.0,8567.0,-5.0,3.0,2.0,1.0
2022-05-06 12:58:11.541099-07:00,1661.5,623.0,1180.6,1391.2,886.5,1213.3,1200.9,1428.6,3433.4,3441.9,1388.5,1417.6,1386.6,3438.2,971.3,1319.6,3441.9,3438.2,644.9,1271.2,857.9,525.8,1254.2,1562.7,3452.8,3449.1,793.5,967.1,1561.8,1573.0,1355.8,1042.6,0.0,1.0,20.0,9903.0,13023.0,100.0,-873.0,11.0,17.0,-1.0,-4.0,-7.0,15.0,8030.0,7417.0,8693.0,8566.0,15.0,14.0,0.0,1.0
2022-05-06 12:58:11.542145-07:00,1661.5,623.0,1178.8,1392.1,886.5,1213.3,1198.2,1434.1,3433.4,3441.9,1390.3,1420.4,1386.6,3438.2,980.7,1327.8,3428.6,3438.2,644.9,1271.2,863.7,528.2,1254.2,1562.7,3443.1,3454.0,793.5,967.1,1571.1,1570.2,1355.8,1042.6,1.0,0.0,8.0,9901.0,13025.0,104.0,-867.0,18.0,14.0,-7.0,-3.0,-4.0,8.0,8027.0,7415.0,8696.0,8567.0,12.0,8.0,-5.0,1.0
2022-05-06 12:58:11.601464-07:00,1665.3,617.3,1178.8,1392.1,889.0,1215.1,1198.2,1434.1,3438.2,3435.8,1390.3,1420.4,1376.6,3437.0,980.7,1327.8,3428.6,3438.2,635.9,1269.4,863.7,528.2,1263.1,1561.8,3443.1,3454.0,787.7,962.8,1571.1,1570.2,1354.0,1032.3,1.0,-6.0,17.0,9901.0,13025.0,107.0,-867.0,7.0,12.0,-1.0,-4.0,-8.0,9.0,8026.0,7414.0,8698.0,8567.0,8.0,10.0,6.0,1.0
2022-05-06 12:58:11.661156-07:00,1665.3,617.3,1182.3,1387.5,889.0,1215.1,1198.2,1427.7,3438.2,3435.8,1383.9,1413.1,1376.6,3437.0,978.2,1314.2,3439.5,3440.7,635.9,1269.4,864.6,526.6,1263.1,1561.8,3440.7,3445.5,787.7,962.8,1568.3,1574.9,1354.0,1032.3,0.0,0.0,10.0,9902.0,13024.0,111.0,-860.0,9.0,11.0,9.0,-5.0,-1.0,11.0,8024.0,7413.0,8698.0,8569.0,10.0,10.0,7.0,1.0
2022-05-06 12:58:11.691177-07:00,1667.2,615.7,1170.9,1387.5,881.4,1204.4,1198.2,1427.7,3439.5,3437.0,1390.3,1413.1,1383.0,3439.5,978.2,1314.2,3439.5,3440.7,640.0,1264.9,864.6,525.0,1267.6,1572.1,3440.7,3445.5,786.9,966.2,1568.3,1577.7,1351.2,1028.8,4.0,3.0,10.0,9901.0,13025.0,111.0,-860.0,1.0,5.0,2.0,-2.0,-2.0,9.0,8024.0,7414.0,8699.0,8568.0,2.0,4.0,4.0,1.0
2022-05-06 12:58:11.751345-07:00,1667.2,615.7,1170.9,1388.5,881.4,1220.4,1196.5,1426.8,3439.5,3437.0,1390.3,1420.4,1383.0,3435.8,982.5,1308.8,3440.7,3435.8,640.8,1264.9,861.2,525.0,1267.6,1572.1,3447.9,3450.4,785.2,966.2,1566.5,1577.7,1351.2,1028.8,3.0,-1.0,13.0,9902.0,13025.0,113.0,-856.0,5.0,10.0,-1.0,-5.0,0.0,12.0,8024.0,7412.0,8699.0,8569.0,4.0,5.0,7.0,1.0
2022-05-06 12:58:11.811285-07:00,1670.1,624.6,1181.5,1388.5,887.3,1220.4,1196.5,1426.8,3449.1,3435.8,1388.5,1420.4,1383.0,3435.8,982.5,1308.8,3440.7,3435.8,640.8,1265.8,861.2,526.6,1262.2,1572.1,3447.9,3450.4,785.2,959.4,1566.5,1566.5,1348.5,1039.2,-3.0,-6.0,10.0,9904.0,13024.0,116.0,-850.0,7.0,21.0,11.0,-7.0,-5.0,14.0,8023.0,7414.0,8697.0,8572.0,10.0,2.0,13.0,1.0
2022-05-06 12:58:11.841454-07:00,1670.1,624.6,1181.5,1388.5,887.3,1212.4,1185.9,1425.0,3449.1,3435.8,1388.5,1419.5,1383.0,3449.1,974.8,1316.0,3440.7,3437.0,640.0,1265.8,868.8,526.6,1262.2,1572.1,3449.1,3449.1,790.2,959.4,1566.5,1566.5,1348.5,1039.2,3.0,3.0,8.0,9902.0,13026.0,115.0,-845.0,-5.0,3.0,3.0,-1.0,3.0,9.0,8021.0,7416.0,8697.0,8571.0,-4.0,3.0,3.0,1.0
2022-05-06 12:58:12.020964-07:00,1672.9,621.4,1177.0,1388.5,885.6,1212.4,1185.9,1425.0,3449.1,3433.4,1384.8,1419.5,1381.2,3449.1,974.8,1316.0,3440.7,3437.0,640.0,1264.0,868.8,531.4,1262.2,1571.1,3449.1,3449.1,790.2,966.2,1566.5,1575.8,1354.9,1040.1,1.0,0.0,13.0,9900.0,13027.0,113.0,-846.0,17.0,-6.0,-2.0,-3.0,-3.0,10.0,8020.0,7417.0,8698.0,8570.0,11.0,-4.0,-2.0,1.0
2022-05-06 12:58:12.111911-07:00,1672.9,621.4,1177.0,1388.5,885.6,1215.1,1192.0,1421.3,3449.1,3433.4,1384.8,1419.5,1381.2,3444.3,972.2,1313.3,3440.7,3445.5,643.2,1264.0,860.4,531.4,1262.2,1571.1,3441.9,3443.1,791.9,966.2,1567.4,1575.8,1354.9,1040.1,1.0,0.0,14.0,9903.0,13024.0,113.0,-846.0,-5.0,9.0,9.0,-2.0,-3.0,16.0,8022.0,7415.0,8697.0,8570.0,0.0,5.0,7.0,1.0
2022-05-06 12:58:12.112766-07:00,1669.1,607.6,1174.4,1373.9,888.2,1215.1,1192.0,1421.3,3447.9,3445.5,1384.8,1414.0,1385.7,3444.3,972.2,1313.3,3440.7,3445.5,643.2,1267.6,863.7,529.0,1261.3,1576.8,3441.9,3443.1,791.9,959.4,1562.7,1569.3,1354.9,1042.6,4.0,-1.0,10.0,9902.0,13026.0,112.0,-844.0,11.0,10.0,-9.0,0.0,-2.0,13.0,8022.0,7415.0,8698.0,8570.0,6.0,2.0,-2.0,1.0
2022-05-06 12:58:12.114063-07:00,1669.1,607.6,1174.4,1373.9,895.7,1217.7,1195.6,1420.4,3447.9,3445.5,1384.8,1414.0,1379.4,3434.6,970.5,1315.1,3449.1,3434.6,640.8,1273.0,863.7,529.0,1261.3,1576.8,3439.5,3439.5,782.7,967.1,1562.7,1569.3,1354.9,1042.6,-1.0,-2.0,11.0,9903.0,13025.0,114.0,-845.0,5.0,10.0,-6.0,-8.0,-5.0,9.0,8022.0,7415.0,8698.0,8570.0,6.0,8.0,-3.0,1.0
2022-05-06 12:58:12.116199-07:00,1664.4,613.3,1181.5,1392.1,895.7,1217.7,1195.6,1420.4,3438.2,3438.2,1390.3,1419.5,1379.4,3434.6,970.5,1315.1,3449.1,3434.6,640.8,1273.0,859.5,530.6,1259.6,1569.3,3439.5,3439.5,782.7,967.1,1567.4,1573.0,1349.4,1039.2,4.0,6.0,10.0,9900.0,13027.0,113.0,-845.0,12.0,0.0,-7.0,-5.0,0.0,9.0,8021.0,7416.0,8699.0,8569.0,2.0,3.0,-6.0,1.0
2022-05-06 12:58:12.172070-07:00,1664.4,613.3,1181.5,1392.1,881.4,1207.1,1197.4,1441.5,3438.2,3438.2,1390.3,1419.5,1382.1,3435.8,976.5,1316.9,3439.5,3431.0,640.0,1267.6,859.5,530.6,1259.6,1569.3,3435.8,3443.1,791.9,964.5,1567.4,1573.0,1349.4,1039.2,1.0,0.0,10.0,9901.0,13026.0,114.0,-845.0,6.0,-5.0,-8.0,-4.0,-1.0,10.0,8021.0,7416.0,8699.0,8569.0,-1.0,0.0,-9.0,1.0
2022-05-06 12:58:12.201314-07:00,1662.5,614.9,1177.9,1389.4,881.4,1207.1,1197.4,1441.5,3439.5,3449.1,1386.6,1421.3,1382.1,3435.8,976.5,1316.9,3439.5,3431.0,640.0,1267.6,865.4,530.6,1264.9,1565.5,3435.8,3443.1,791.9,964.5,1562.7,1574.9,1351.2,1036.6,5.0,-1.0,15.0,9902.0,13025.0,116.0,-850.0,2.0,-11.0,-13.0,-2.0,-5.0,12.0,8024.0,7413.0,8702.0,8566.0,7.0,-1.0,-14.0,1.0
2022-05-06 12:58:12.260998-07:00,1669.1,614.9,1177.9,1389.4,885.6,1208.9,1200.0,1420.4,3444.3,3449.1,1386.6,1421.3,1379.4,3439.5,972.2,1316.9,3443.1,3437.0,641.6,1266.7,865.4,530.6,1264.9,1566.5,3447.9,3447.9,786.9,966.2,1562.7,1574.9,1351.2,1040.9,-3.0,-5.0,12.0,9908.0,13020.0,124.0,-855.0,-28.0,14.0,-34.0,-4.0,-7.0,14.0,8031.0,7406.0,8701.0,8566.0,-28.0,2.0,-18.0,1.0
2022-05-06 12:58:12.291228-07:00,1669.1,607.6,1185.9,1383.0,885.6,1208.9,1200.0,1415.8,3444.3,3439.5,1387.5,1414.9,1379.4,3439.5,972.2,1310.6,3433.4,3437.0,641.6,1266.7,862.9,525.0,1265.8,1566.5,3437.0,3447.9,786.9,966.2,1570.2,1574.9,1354.9,1040.9,0.0,5.0,6.0,9904.0,13023.0,130.0,-859.0,35.0,-4.0,-13.0,-8.0,0.0,6.0,8033.0,7404.0,8707.0,8560.0,24.0,1.0,-21.0,1.0
2022-05-06 12:58:12.351243-07:00,1672.9,607.6,1185.9,1383.0,892.4,1202.7,1194.7,1415.8,3438.2,3439.5,1387.5,1414.9,1373.9,3438.2,973.1,1310.6,3433.4,3444.3,642.4,1259.6,862.9,525.0,1265.8,1569.3,3437.0,3449.1,787.7,956.8,1570.2,1574.9,1354.9,1039.2,1.0,-9.0,11.0,9902.0,13024.0,136.0,-865.0,-11.0,-5.0,-21.0,-4.0,-5.0,7.0,8038.0,7400.0,8710.0,8556.0,-16.0,-10.0,-14.0,1.0
2022-05-06 12:58:12.411108-07:00,1672.9,610.0,1182.3,1382.1,892.4,1202.7,1194.7,1422.2,3438.2,3441.9,1387.5,1414.9,1373.9,3438.2,973.1,1313.3,3432.2,3444.3,642.4,1259.6,866.3,526.6,1261.3,1569.3,3438.2,3449.1,787.7,956.8,1585.2,1574.9,1351.2,1039.2,0.0,2.0,6.0,9903.0,13022.0,135.0,-870.0,1.0,-21.0,-1.0,-8.0,-2.0,8.0,8039.0,7400.0,8709.0,8556.0,-3.0,-8.0,-7.0,1.0
2022-05-06 12:58:12.471147-07:00,1663.4,610.0,1182.3,1382.1,888.2,1212.4,1202.7,1422.2,3449.1,3441.9,1387.5,1414.9,1377.5,3439.5,975.6,1313.3,3432.2,3433.4,637.6,1268.5,866.3,526.6,1261.3,1567.4,3438.2,3440.7,785.2,971.3,1585.2,1574.9,1351.2,1034.9,1.0,0.0,22.0,9906.0,13020.0,137.0,-876.0,-15.0,-4.0,-17.0,-4.0,-3.0,17.0,8044.0,7396.0,8708.0,8556.0,-20.0,-7.0,-8.0,1.0
2022-05-06 12:58:12.501924-07:00,1663.4,610.8,1180.6,1384.8,888.2,1212.4,1200.9,1418.6,3449.1,3443.1,1380.3,1416.7,1377.5,3439.5,974.8,1316.0,3437.0,3428.6,637.6,1268.5,862.1,526.6,1259.6,1567.4,3458.9,3439.5,785.2,971.3,1561.8,1568.3,1351.2,1034.9,2.0,-1.0,11.0,9910.0,13017.0,138.0,-877.0,10.0,-3.0,-9.0,-4.0,-5.0,12.0,8046.0,7393.0,8707.0,8557.0,6.0,5.0,-10.0,1.0
2022-05-06 12:58:12.561166-07:00,1663.4,617.3,1180.6,1384.8,884.8,1209.7,1200.9,1418.6,3438.2,3445.5,1380.3,1416.7,1377.5,3447.9,974.8,1316.0,3437.0,3428.6,644.0,1265.8,862.1,526.6,1259.6,1572.1,3458.9,3439.5,791.0,962.8,1561.8,1568.3,1345.8,1040.9,0.0,-3.0,7.0,9910.0,13017.0,138.0,-878.0,-15.0,-7.0,-7.0,-9.0,-2.0,10.0,8048.0,7391.0,8706.0,8558.0,-24.0,0.0,-3.0,1.0
2022-05-06 12:58:12.591956-07:00,1663.4,617.3,1180.6,1390.3,884.8,1209.7,1193.8,1411.3,3438.2,3445.5,1382.1,1417.6,1377.5,3447.9,973.1,1304.3,3438.2,3431.0,644.0,1265.8,863.7,532.2,1259.6,1572.1,3435.8,3449.1,791.0,962.8,1562.7,1566.5,1345.8,1040.9,1.0,0.0,8.0,9924.0,13005.0,134.0,-885.0,-58.0,-27.0,2.0,-10.0,-5.0,5.0,8059.0,7382.0,8694.0,8568.0,-66.0,-16.0,4.0,1.0
2022-05-06 12:58:12.651198-07:00,1666.3,615.7,1180.6,1390.3,892.4,1214.2,1193.8,1411.3,3444.3,3433.4,1382.1,1417.6,1381.2,3440.7,973.1,1304.3,3438.2,3431.0,641.6,1261.3,863.7,532.2,1267.6,1564.6,3435.8,3449.1,791.0,968.8,1562.7,1566.5,1353.1,1026.3,1.0,-5.0,15.0,9944.0,12990.0,127.0,-895.0,-29.0,-33.0,5.0,-3.0,-8.0,12.0,8074.0,7376.0,8677.0,8576.0,-20.0,-20.0,0.0,1.0
2022-05-06 12:58:12.711070-07:00,1666.3,615.7,1174.4,1384.8,892.4,1214.2,1190.3,1416.7,3444.3,3433.4,1390.3,1416.7,1381.2,3440.7,979.0,1308.8,3444.3,3438.2,641.6,1261.3,865.4,523.4,1267.6,1564.6,3439.5,3444.3,791.0,968.8,1567.4,1570.2,1353.1,1026.3,2.0,5.0,23.0,9953.0,12982.0,122.0,-902.0,-37.0,-9.0,-4.0,-2.0,0.0,14.0,8082.0,7374.0,8669.0,8579.0,-38.0,-7.0,1.0,1.0
2022-05-06 12:58:12.741142-07:00,1669.1,610.8,1174.4,1384.8,889.0,1208.0,1190.3,1416.7,3439.5,3438.2,1390.3,1416.7,1383.0,3435.8,979.0,1308.8,3444.3,3438.2,637.6,1266.7,865.4,523.4,1263.1,1568.3,3439.5,3444.3,783.6,964.5,1567.4,1570.2,1348.5,1039.2,0.0,8.0,19.0,9962.0,12976.0,123.0,-897.0,-12.0,25.0,13.0,-5.0,1.0,16.0,8084.0,7372.0,8667.0,8581.0,0.0,3.0,-6.0,1.0
2022-05-06 12:58:12.802113-07:00,1669.1,610.8,1180.6,1384.8,889.0,1218.6,1211.5,1425.9,3439.5,3438.2,1386.6,1418.6,1383.0,3444.3,974.8,1307.9,3440.7,3440.7,640.8,1266.7,862.9,527.4,1263.1,1568.3,3438.2,3439.5,787.7,964.5,1567.4,1573.9,1348.5,1039.2,9.0,39.0,31.0,9986.0,12960.0,131.0,-859.0,-122.0,136.0,38.0,-7.0,10.0,2.0,8096.0,7366.0,8665.0,8576.0,-49.0,-37.0,-33.0,1.0
2022-05-06 12:58:12.831172-07:00,1666.3,627.8,1174.4,1384.8,882.3,1218.6,1211.5,1425.9,3446.7,3431.0,1385.7,1418.6,1379.4,3444.3,974.8,1307.9,3440.7,3440.7,640.8,1268.5,862.9,524.2,1271.2,1569.3,3438.2,3439.5,787.7,962.8,1567.4,1569.3,1345.8,1034.0,0.0,21.0,43.0,10045.0,12919.0,275.0,-742.0,-143.0,584.0,-138.0,-7.0,-10.0,31.0,8148.0,7358.0,8654.0,8545.0,5.0,-116.0,-131.0,1.0
2022-05-06 12:58:12.891774-07:00,1666.3,627.8,1174.4,1382.1,882.3,1217.7,1382.1,1638.8,3446.7,3431.0,1385.7,1418.6,1379.4,3443.1,999.6,1312.4,3438.2,3439.5,640.8,1268.5,863.7,524.2,1271.2,1569.3,3449.1,3438.2,871.3,962.8,1563.7,1569.3,1345.8,1034.0,-8.0,69.0,75.0,10082.0,12894.0,518.0,-505.0,-311.0,863.0,-80.0,-29.0,23.0,40.0,8185.0,7373.0,8700.0,8450.0,61.0,-145.0,-180.0,1.0
2022-05-06 12:58:12.981273-07:00,1702.4,654.6,1181.5,1382.1,883.1,1217.7,1382.1,1638.8,3446.7,3437.0,1393.0,1418.6,1374.8,3443.1,999.6,1312.4,3438.2,3439.5,640.8,1273.9,863.7,536.2,1322.3,1565.5,3449.1,3438.2,871.3,1006.5,1563.7,1760.8,1660.6,1041.8,-17.0,-29.0,35.0,10354.0,12669.0,838.0,-149.0,-1008.0,1101.0,7.0,-21.0,-47.0,27.0,8338.0,7274.0,8620.0,8468.0,-529.0,-150.0,-159.0,1.0
2022-05-06 12:58:12.982918-07:00,1702.4,654.6,1181.5,1396.7,883.1,1257.8,1514.3,1932.1,3446.7,3437.0,1393.0,1420.4,1374.8,3444.3,1074.7,1324.1,3435.8,3434.6,642.4,1273.9,882.3,536.2,1322.3,1565.5,3449.1,3437.0,979.0,1006.5,1603.0,1760.8,1660.6,1041.8,-11.0,23.0,-7.0,10574.0,12461.0,1141.0,232.0,-654.0,980.0,-79.0,2.0,-3.0,42.0,8466.0,7172.0,8515.0,8534.0,-418.0,-60.0,-62.0,1.0
2022-05-06 12:58:13.071769-07:00,1738.7,648.9,1177.0,1390.3,878.0,1257.8,1514.3,1932.1,3447.9,3439.5,1421.3,1417.6,1380.3,3444.3,1074.7,1324.1,3435.8,3434.6,642.4,1285.5,875.5,538.6,1435.0,1574.9,3449.1,3437.0,979.0,1032.3,1671.0,2007.4,1999.5,1047.8,24.0,-36.0,-77.0,10808.0,12225.0,1419.0,412.0,-651.0,616.0,-318.0,-3.0,-29.0,-27.0,8615.0,7039.0,8357.0,8651.0,-550.0,-100.0,-35.0,1.0
2022-05-06 12:58:13.101910-07:00,1738.7,648.9,1177.0,1390.3,887.3,1281.9,1606.8,1981.6,3447.9,3439.5,1421.3,1417.6,1382.1,3451.6,1172.6,1353.1,3439.5,3435.8,647.3,1326.8,875.5,538.6,1435.0,1574.9,3446.7,3446.7,1056.5,1046.1,1671.0,2007.4,1999.5,1047.8,-38.0,-49.0,-67.0,10906.0,12114.0,1587.0,477.0,-186.0,149.0,-161.0,-23.0,-13.0,19.0,8699.0,6975.0,8281.0,8691.0,-199.0,-91.0,-56.0,1.0
2022-05-06 12:58:13.131105-07:00,1786.8,646.5,1197.4,1404.0,887.3,1281.9,1606.8,1981.6,3439.5,3439.5,1428.6,1425.9,1382.1,3451.6,1172.6,1353.1,3439.5,3435.8,647.3,1326.8,885.6,537.8,1447.9,1587.1,3446.7,3446.7,1056.5,1046.1,1991.5,2001.5,1901.6,1074.7,9.0,-36.0,-4.0,10955.0,12060.0,1657.0,471.0,-118.0,95.0,-137.0,-9.0,-23.0,3.0,8762.0,6943.0,8224.0,8708.0,-156.0,-95.0,-33.0,1.0
2022-05-06 12:58:13.191776-07:00,1786.8,646.5,1197.4,1404.0,881.4,1293.6,1563.7,1944.0,3439.5,3439.5,1428.6,1425.9,1376.6,3438.2,1225.7,1373.9,3435.8,3440.7,644.0,1348.5,885.6,537.8,1447.9,1587.1,3444.3,3443.1,1052.2,1040.9,1991.5,2001.5,1901.6,1074.7,-12.0,-26.0,31.0,10939.0,12062.0,1734.0,513.0,91.0,211.0,-8.0,-1.0,-22.0,50.0,8781.0,6949.0,8213.0,8695.0,99.0,-32.0,-1.0,1.0
2022-05-06 12:58:13.281134-07:00,1780.1,633.5,1192.0,1396.7,881.4,1293.6,1563.7,1944.0,3450.4,3441.9,1430.5,1422.2,1376.6,3438.2,1225.7,1373.9,3435.8,3440.7,644.0,1348.5,883.9,536.2,1425.9,1596.4,3444.3,3443.1,1052.2,1040.9,2006.4,1971.7,1852.8,1119.1,-7.0,-2.0,27.0,10897.0,12093.0,1775.0,545.0,158.0,98.0,-21.0,4.0,-13.0,25.0,8760.0,6968.0,8243.0,8672.0,122.0,44.0,-25.0,1.0
2022-05-06 12:58:13.283591-07:00,1780.1,633.5,1192.0,1396.7,886.5,1293.6,1541.3,1873.2,3450.4,3441.9,1430.5,1422.2,1384.8,3446.7,1213.3,1378.5,3439.5,3438.2,647.3,1344.0,883.9,536.2,1425.9,1596.4,3444.3,3449.1,1045.2,1034.9,2006.4,1971.7,1852.8,1119.1,-4.0,8.0,-6.0,10802.0,12167.0,1830.0,589.0,252.0,167.0,14.0,-1.0,8.0,32.0,8702.0,7000.0,8328.0,8623.0,255.0,85.0,-38.0,1.0
2022-05-06 12:58:13.341191-07:00,1773.3,627.0,1190.3,1397.6,886.5,1293.6,1541.3,1874.2,3449.1,3443.1,1427.7,1426.8,1384.8,3446.7,1213.3,1373.0,3446.7,3438.2,647.3,1344.0,883.9,541.0,1410.3,1600.2,3447.9,3449.1,1045.2,1034.9,2007.4,1947.9,1834.3,1127.9,-16.0,-15.0,-22.0,10764.0,12196.0,1859.0,616.0,46.0,24.0,15.0,-11.0,-13.0,20.0,8678.0,7000.0,8368.0,8609.0,40.0,45.0,-15.0,1.0
2022-05-06 12:58:13.401401-07:00,1783.9,627.0,1190.3,1397.6,885.6,1305.2,1534.8,1874.2,3449.1,3443.1,1427.7,1426.8,1383.9,3433.4,1209.7,1373.0,3446.7,3433.4,641.6,1338.6,883.9,541.0,1410.3,1607.7,3447.9,3438.2,1029.7,1019.4,2007.4,1947.9,1834.3,1170.0,3.0,-1.0,-21.0,10733.0,12226.0,1840.0,613.0,154.0,-56.0,60.0,-10.0,-1.0,0.0,8660.0,7013.0,8398.0,8587.0,123.0,3.0,-19.0,1.0
2022-05-06 12:58:13.431066-07:00,1783.9,627.8,1188.5,1383.0,885.6,1305.2,1534.8,1872.3,3449.1,3443.1,1425.0,1409.4,1383.9,3433.4,1209.7,1375.7,3437.0,3433.4,641.6,1338.6,883.9,533.0,1409.4,1607.7,3433.4,3438.2,1029.7,1019.4,1967.7,1946.9,1817.8,1170.0,0.0,-6.0,6.0,10726.0,12237.0,1811.0,594.0,-70.0,-67.0,-20.0,-5.0,-13.0,12.0,8676.0,7010.0,8382.0,8589.0,-86.0,-38.0,-1.0,1.0
2022-05-06 12:58:13.491605-07:00,1776.2,627.8,1188.5,1383.0,889.0,1305.2,1512.5,1872.3,3435.8,3443.1,1425.0,1409.4,1383.0,3432.2,1208.0,1375.7,3437.0,3434.6,644.0,1342.2,883.9,533.0,1409.4,1613.4,3433.4,3446.7,1034.0,1015.1,1967.7,1946.9,1817.8,1172.6,8.0,-6.0,17.0,10733.0,12236.0,1791.0,567.0,52.0,-62.0,8.0,-8.0,-9.0,7.0,8686.0,7004.0,8371.0,8593.0,6.0,-12.0,-8.0,1.0
2022-05-06 12:58:13.581146-07:00,1776.2,623.8,1189.4,1401.2,889.0,1305.2,1512.5,1853.7,3435.8,3454.0,1427.7,1419.5,1383.0,3432.2,1208.0,1375.7,3441.9,3434.6,644.0,1342.2,884.8,535.4,1391.2,1613.4,3445.5,3446.7,1034.0,1015.1,1927.2,1938.0,1813.9,1172.6,8.0,-2.0,11.0,10738.0,12234.0,1781.0,549.0,-40.0,-28.0,-27.0,0.0,-7.0,9.0,8699.0,6995.0,8357.0,8601.0,-58.0,-9.0,-2.0,1.0
2022-05-06 12:58:13.611191-07:00,1774.3,621.4,1189.4,1401.2,889.8,1314.2,1513.4,1853.7,3449.1,3439.5,1427.7,1419.5,1380.3,3441.9,1205.3,1375.7,3441.9,3440.7,646.5,1339.5,884.8,535.4,1390.3,1604.0,3445.5,3438.2,1024.5,1002.2,1927.2,1938.0,1809.0,1163.0,4.0,-10.0,7.0,10745.0,12228.0,1777.0,535.0,17.0,-32.0,5.0,-6.0,-4.0,13.0,8705.0,6988.0,8351.0,8607.0,-2.0,0.0,-1.0,1.0
2022-05-06 12:58:13.641232-07:00,1774.3,621.4,1182.3,1397.6,889.8,1314.2,1499.5,1838.2,3449.1,3439.5,1417.6,1417.6,1380.3,3441.9,1212.4,1380.3,3435.8,3440.7,646.5,1339.5,885.6,533.8,1390.3,1604.0,3438.2,3444.3,1024.5,1002.2,1902.6,1924.3,1809.0,1163.0,-11.0,14.0,6.0,10741.0,12233.0,1776.0,534.0,-21.0,-7.0,-6.0,-8.0,6.0,27.0,8707.0,6985.0,8350.0,8609.0,-29.0,6.0,-2.0,1.0
2022-05-06 12:58:13.701380-07:00,1775.2,614.1,1182.3,1397.6,892.4,1304.3,1499.5,1838.2,3443.1,3438.2,1417.6,1417.6,1381.2,3443.1,1212.4,1380.3,3435.8,3440.7,646.5,1335.0,885.6,533.8,1377.5,1604.9,3438.2,3444.3,1023.7,1011.6,1902.6,1924.3,1796.5,1149.8,4.0,-20.0,8.0,10750.0,12227.0,1762.0,531.0,15.0,-2.0,48.0,-11.0,-20.0,-2.0,8713.0,6978.0,8343.0,8615.0,23.0,-7.0,10.0,1.0
2022-05-06 12:58:13.761368-07:00,1775.2,614.1,1192.0,1390.3,892.4,1304.3,1492.1,1835.2,3443.1,3438.2,1419.5,1419.5,1381.2,3443.1,1189.4,1367.6,3440.7,3439.5,646.5,1335.0,882.3,537.8,1377.5,1604.9,3441.9,3441.9,1023.7,1011.6,1882.0,1930.2,1796.5,1149.8,0.0,5.0,16.0,10744.0,12229.0,1770.0,558.0,-33.0,77.0,-2.0,-7.0,-1.0,24.0,8710.0,6975.0,8347.0,8617.0,-22.0,14.0,8.0,1.0
2022-05-06 12:58:13.851503-07:00,1769.5,619.7,1192.0,1390.3,892.4,1303.4,1492.1,1835.2,3444.3,3438.2,1419.5,1419.5,1376.6,3446.7,1189.4,1367.6,3440.7,3439.5,644.0,1347.6,882.3,537.8,1374.8,1604.0,3441.9,3441.9,1015.9,997.0,1882.0,1930.2,1795.5,1150.6,10.0,2.0,-7.0,10744.0,12227.0,1779.0,578.0,30.0,18.0,22.0,-5.0,0.0,-3.0,8704.0,6972.0,8354.0,8618.0,33.0,15.0,2.0,1.0
2022-05-06 12:58:13.852679-07:00,1769.5,619.7,1185.0,1399.4,892.4,1310.6,1493.0,1830.4,3444.3,3438.2,1412.2,1416.7,1376.6,3438.2,1192.9,1373.9,3435.8,3438.2,646.5,1347.6,887.3,536.2,1374.8,1604.0,3447.9,3437.0,1024.5,997.0,1881.1,1937.1,1795.5,1150.6,8.0,-5.0,-1.0,10745.0,12227.0,1777.0,580.0,-9.0,-17.0,-13.0,-5.0,-9.0,2.0,8706.0,6969.0,8352.0,8621.0,-19.0,-11.0,-4.0,1.0
2022-05-06 12:58:13.911646-07:00,1768.5,617.3,1190.3,1399.4,889.0,1310.6,1493.0,1830.4,3447.9,3445.5,1421.3,1416.7,1382.1,3438.2,1192.9,1373.9,3435.8,3438.2,646.5,1342.2,887.3,541.0,1372.1,1596.4,3447.9,3437.0,1024.5,1005.6,1881.1,1927.2,1785.8,1148.0,5.0,7.0,9.0,10743.0,12229.0,1774.0,574.0,-17.0,-2.0,-7.0,-3.0,0.0,10.0,8709.0,6967.0,8350.0,8622.0,-26.0,-9.0,0.0,1.0
2022-05-06 12:58:14.001368-07:00,1768.5,617.3,1190.3,1391.2,889.0,1299.0,1481.9,1815.8,3447.9,3445.5,1421.3,1424.1,1382.1,3439.5,1185.9,1374.8,3437.0,3439.5,643.2,1342.2,884.8,541.0,1372.1,1596.4,3444.3,3440.7,1008.2,1005.6,1865.4,1927.2,1785.8,1148.0,-4.0,-8.0,11.0,10749.0,12224.0,1772.0,576.0,14.0,-9.0,28.0,-5.0,-13.0,15.0,8714.0,6961.0,8344.0,8627.0,-2.0,8.0,3.0,1.0
2022-05-06 12:58:14.003345-07:00,1763.7,619.7,1189.4,1391.2,881.4,1299.0,1481.9,1815.8,3440.7,3433.4,1412.2,1424.1,1380.3,3439.5,1185.9,1374.8,3437.0,3439.5,643.2,1341.3,884.8,537.0,1371.2,1604.9,3444.3,3440.7,1008.2,1003.0,1865.4,1924.3,1794.5,1141.0,2.0,5.0,4.0,10746.0,12228.0,1764.0,583.0,6.0,5.0,9.0,-3.0,-2.0,6.0,8714.0,6956.0,8345.0,8630.0,9.0,15.0,-1.0,1.0
2022-05-06 12:58:14.061192-07:00,1763.7,619.7,1189.4,1389.4,881.4,1300.7,1481.9,1818.7,3440.7,3433.4,1412.2,1414.9,1380.3,3445.5,1190.3,1373.9,3441.9,3438.2,640.0,1341.3,882.3,537.0,1371.2,1604.9,3438.2,3438.2,1013.3,1003.0,1852.8,1924.3,1794.5,1141.0,5.0,6.0,-1.0,10740.0,12233.0,1762.0,580.0,18.0,-37.0,-8.0,-2.0,-5.0,7.0,8711.0,6955.0,8352.0,8628.0,15.0,3.0,-11.0,1.0
2022-05-06 12:58:14.091215-07:00,1769.5,614.1,1189.4,1389.4,884.8,1300.7,1481.9,1818.7,3439.5,3439.5,1412.2,1414.9,1383.0,3445.5,1190.3,1373.9,3441.9,3438.2,640.0,1338.6,882.3,536.2,1371.2,1604.9,3438.2,3438.2,1013.3,1004.8,1852.8,1910.5,1769.5,1139.2,6.0,-5.0,10.0,10742.0,12233.0,1753.0,563.0,-7.0,-15.0,-11.0,-5.0,-7.0,6.0,8715.0,6952.0,8351.0,8627.0,-16.0,-14.0,-3.0,1.0
2022-05-06 12:58:14.241328-07:00,1769.5,614.1,1189.4,1397.6,889.8,1293.6,1472.7,1819.7,3439.5,3439.5,1412.2,1420.4,1385.7,3443.1,1190.3,1366.6,3437.0,3433.4,642.4,1341.3,883.9,536.2,1371.2,1604.9,3433.4,3439.5,1009.0,1000.5,1857.6,1910.5,1769.5,1139.2,-8.0,0.0,9.0,10747.0,12230.0,1751.0,559.0,0.0,-11.0,-3.0,-3.0,-6.0,24.0,8720.0,6948.0,8345.0,8630.0,3.0,0.0,-3.0,1.0
2022-05-06 12:58:14.242547-07:00,1767.5,613.3,1188.5,1385.7,889.8,1293.6,1472.7,1819.7,3447.9,3437.0,1412.2,1420.4,1385.7,3443.1,1190.3,1366.6,3437.0,3433.4,642.4,1341.3,884.8,536.2,1367.6,1603.0,3433.4,3439.5,1009.0,1000.5,1839.1,1917.4,1782.0,1136.6,5.0,6.0,6.0,10739.0,12237.0,1748.0,555.0,20.0,-4.0,-1.0,-2.0,-1.0,7.0,8720.0,6948.0,8349.0,8627.0,8.0,8.0,-9.0,1.0
2022-05-06 12:58:14.243355-07:00,1767.5,613.3,1188.5,1385.7,884.8,1307.9,1483.8,1808.1,3447.9,3437.0,1412.2,1420.4,1387.5,3441.9,1188.5,1365.7,3439.5,3428.6,644.0,1338.6,884.8,536.2,1367.6,1603.0,3446.7,3449.1,1001.3,1004.8,1839.1,1917.4,1782.0,1136.6,1.0,-11.0,7.0,10742.0,12235.0,1747.0,550.0,-4.0,-23.0,0.0,-8.0,-11.0,8.0,8723.0,6944.0,8347.0,8628.0,-4.0,1.0,-3.0,1.0
2022-05-06 12:58:14.301517-07:00,1757.0,615.7,1198.2,1391.2,884.8,1307.9,1483.8,1808.1,3444.3,3433.4,1412.2,1418.6,1387.5,3441.9,1188.5,1365.7,3439.5,3428.6,644.0,1338.6,883.1,533.8,1363.9,1600.2,3446.7,3449.1,1001.3,1004.8,1838.2,1910.5,1765.6,1130.5,4.0,-6.0,6.0,10747.0,12231.0,1743.0,547.0,-26.0,-16.0,-9.0,-1.0,-13.0,8.0,8728.0,6939.0,8343.0,8632.0,-29.0,-14.0,4.0,1.0
2022-05-06 12:58:14.331079-07:00,1757.0,615.7,1198.2,1391.2,883.9,1292.7,1477.3,1809.0,3444.3,3433.4,1412.2,1418.6,1370.3,3439.5,1192.0,1369.4,3431.0,3433.4,640.0,1339.5,883.1,533.8,1363.9,1600.2,3433.4,3439.5,1007.3,997.0,1838.2,1910.5,1765.6,1130.5,0.0,7.0,6.0,10743.0,12235.0,1742.0,545.0,17.0,-13.0,-5.0,-5.0,-2.0,15.0,8729.0,6938.0,8342.0,8632.0,2.0,0.0,-5.0,1.0
2022-05-06 12:58:14.391960-07:00,1761.8,610.8,1190.3,1391.2,883.9,1292.7,1477.3,1793.6,3445.5,3435.8,1410.3,1421.3,1370.3,3439.5,1192.0,1384.8,3431.0,3433.4,640.0,1339.5,880.6,534.6,1365.7,1596.4,3443.1,3439.5,1007.3,997.0,1832.3,1912.4,1772.3,1134.9,0.0,-9.0,7.0,10746.0,12233.0,1739.0,538.0,0.0,-19.0,2.0,-5.0,-8.0,11.0,8734.0,6932.0,8337.0,8636.0,-3.0,3.0,-2.0,1.0
2022-05-06 12:58:14.481045-07:00,1752.1,610.8,1190.3,1391.2,885.6,1296.3,1473.6,1793.6,3439.5,3435.8,1410.3,1421.3,1378.5,3437.0,1190.3,1384.8,3431.0,3445.5,640.0,1336.8,880.6,534.6,1365.7,1601.1,3443.1,3445.5,993.6,1000.5,1832.3,1912.4,1772.3,1121.7,7.0,2.0,13.0,10745.0,12236.0,1730.0,534.0,17.0,-2.0,-4.0,0.0,0.0,4.0,8735.0,6931.0,8336.0,8637.0,8.0,-8.0,-3.0,1.0
2022-05-06 12:58:14.482678-07:00,1752.1,607.6,1183.2,1399.4,885.6,1296.3,1473.6,1791.6,3439.5,3439.5,1414.0,1433.2,1378.5,3437.0,1190.3,1367.6,3435.8,3445.5,640.0,1336.8,881.4,534.6,1365.7,1601.1,3441.9,3445.5,993.6,1000.5,1834.3,1909.5,1763.7,1121.7,-2.0,-3.0,13.0,10743.0,12236.0,1738.0,537.0,10.0,21.0,-1.0,-5.0,-2.0,13.0,8736.0,6930.0,8335.0,8637.0,11.0,10.0,-2.0,1.0
2022-05-06 12:58:14.571207-07:00,1764.6,607.6,1183.2,1399.4,891.5,1299.8,1479.2,1791.6,3440.7,3439.5,1414.0,1433.2,1383.0,3438.2,1196.5,1367.6,3435.8,3440.7,646.5,1339.5,881.4,534.6,1365.7,1595.5,3441.9,3449.1,997.9,993.6,1834.3,1909.5,1763.7,1118.2,0.0,0.0,1.0,10735.0,12243.0,1732.0,540.0,1.0,-26.0,25.0,-5.0,-3.0,5.0,8731.0,6930.0,8343.0,8636.0,3.0,9.0,2.0,1.0
2022-05-06 12:58:14.631205-07:00,1764.6,612.5,1185.0,1392.1,891.5,1299.8,1479.2,1794.5,3440.7,3439.5,1410.3,1420.4,1383.0,3438.2,1196.5,1375.7,3440.7,3440.7,646.5,1339.5,885.6,530.6,1356.7,1595.5,3437.0,3449.1,997.9,993.6,1822.6,1897.7,1756.0,1118.2,4.0,5.0,2.0,10736.0,12244.0,1722.0,537.0,-4.0,-10.0,-9.0,-3.0,2.0,2.0,8731.0,6930.0,8343.0,8636.0,-11.0,-9.0,-2.0,1.0
2022-05-06 12:58:14.632319-07:00,1756.0,612.5,1185.0,1392.1,891.5,1308.8,1474.6,1794.5,3439.5,3439.5,1410.3,1420.4,1383.9,3440.7,1181.5,1375.7,3440.7,3434.6,644.9,1335.9,885.6,530.6,1356.7,1602.1,3437.0,3440.7,1002.2,995.3,1822.6,1897.7,1756.0,1118.2,-3.0,-14.0,4.0,10742.0,12240.0,1711.0,530.0,7.0,-67.0,30.0,-3.0,-11.0,9.0,8736.0,6924.0,8338.0,8640.0,-1.0,-5.0,2.0,1.0
2022-05-06 12:58:14.691663-07:00,1756.0,605.2,1185.9,1382.1,891.5,1308.8,1458.9,1783.9,3439.5,3433.4,1421.3,1419.5,1383.9,3440.7,1188.5,1372.1,3428.6,3441.9,644.9,1335.9,883.1,535.4,1364.8,1602.1,3441.9,3450.4,1002.2,995.3,1814.9,1896.7,1760.8,1118.2,8.0,22.0,12.0,10744.0,12245.0,1670.0,520.0,6.0,-52.0,51.0,-6.0,-4.0,0.0,8739.0,6924.0,8334.0,8641.0,-4.0,-19.0,7.0,1.0
2022-05-06 12:58:14.781139-07:00,1765.6,614.1,1185.9,1382.1,881.4,1308.8,1458.9,1783.9,3449.1,3433.4,1421.3,1419.5,1380.3,3445.5,1188.5,1372.1,3428.6,3441.9,641.6,1338.6,883.1,535.4,1364.8,1607.7,3441.9,3450.4,1001.3,996.2,1814.9,1896.7,1759.8,1125.2,0.0,-11.0,18.0,10747.0,12244.0,1659.0,513.0,-2.0,-28.0,2.0,3.0,-8.0,18.0,8744.0,6923.0,8328.0,8642.0,-8.0,-4.0,1.0,1.0
2022-05-06 12:58:14.782313-07:00,1765.6,614.1,1187.6,1395.7,881.4,1308.8,1457.1,1784.9,3449.1,3433.4,1414.0,1418.6,1380.3,3445.5,1185.0,1375.7,3434.6,3439.5,641.6,1338.6,883.1,537.8,1364.8,1607.7,3437.0,3439.5,1001.3,996.2,1816.8,1888.9,1759.8,1125.2,8.0,5.0,8.0,10746.0,12246.0,1646.0,515.0,12.0,-7.0,19.0,-3.0,-8.0,5.0,8745.0,6922.0,8327.0,8643.0,14.0,3.0,2.0,1.0
2022-05-06 12:58:14.841058-07:00,1750.2,602.0,1187.6,1395.7,885.6,1310.6,1457.1,1784.9,3444.3,3445.5,1414.0,1418.6,1385.7,3454.0,1185.0,1375.7,3434.6,3439.5,644.9,1338.6,883.1,537.8,1353.1,1597.4,3437.0,3439.5,1001.3,997.9,1816.8,1888.9,1754.1,1117.4,-6.0,2.0,8.0,10744.0,12248.0,1648.0,514.0,-14.0,-5.0,-6.0,-2.0,-9.0,11.0,8745.0,6923.0,8328.0,8642.0,-12.0,3.0,-2.0,1.0
2022-05-06 12:58:14.901596-07:00,1750.2,602.0,1193.8,1392.1,885.6,1310.6,1468.1,1776.2,3444.3,3445.5,1414.0,1418.6,1385.7,3454.0,1189.4,1370.3,3444.3,3444.3,644.9,1338.6,886.5,530.6,1353.1,1597.4,3441.9,3440.7,1001.3,997.9,1818.7,1896.7,1754.1,1117.4,6.0,13.0,8.0,10741.0,12252.0,1646.0,516.0,7.0,6.0,0.0,-4.0,2.0,10.0,8745.0,6923.0,8329.0,8641.0,-4.0,1.0,-4.0,1.0
2022-05-06 12:58:14.961185-07:00,1752.1,608.4,1181.5,1392.1,885.6,1305.2,1468.1,1776.2,3440.7,3437.0,1410.3,1418.6,1374.8,3440.7,1189.4,1370.3,3444.3,3444.3,633.5,1337.7,886.5,536.2,1356.7,1600.2,3441.9,3440.7,998.7,994.5,1818.7,1887.9,1753.1,1118.2,2.0,-13.0,5.0,10743.0,12250.0,1641.0,507.0,17.0,-33.0,13.0,-2.0,-10.0,3.0,8748.0,6920.0,8326.0,8643.0,7.0,-5.0,2.0,1.0
2022-05-06 12:58:14.991108-07:00,1752.1,608.4,1181.5,1388.5,885.6,1307.9,1481.9,1782.0,3440.7,3437.0,1410.3,1414.9,1374.8,3444.3,1188.5,1366.6,3438.2,3435.8,642.4,1337.7,881.4,536.2,1356.7,1600.2,3451.6,3444.3,999.6,994.5,1799.4,1887.9,1753.1,1118.2,5.0,3.0,17.0,10745.0,12250.0,1634.0,503.0,1.0,8.0,-11.0,-2.0,-6.0,28.0,8750.0,6918.0,8323.0,8645.0,6.0,9.0,-3.0,1.0
2022-05-06 12:58:15.081042-07:00,1756.0,614.9,1189.4,1388.5,886.5,1307.9,1481.9,1782.0,3449.1,3440.7,1414.0,1414.9,1380.3,3444.3,1188.5,1366.6,3438.2,3435.8,642.4,1339.5,881.4,531.4,1354.9,1603.0,3451.6,3444.3,999.6,992.7,1799.4,1885.0,1750.2,1120.0,6.0,-3.0,12.0,10741.0,12254.0,1632.0,500.0,-3.0,-6.0,-5.0,0.0,-10.0,4.0,8751.0,6917.0,8324.0,8644.0,0.0,5.0,0.0,1.0
2022-05-06 12:58:15.082777-07:00,1756.0,614.9,1189.4,1393.9,886.5,1303.4,1458.0,1782.0,3449.1,3440.7,1414.0,1422.2,1380.3,3441.9,1180.6,1375.7,3439.5,3431.0,644.9,1339.5,880.6,531.4,1354.9,1603.0,3444.3,3440.7,997.0,992.7,1805.2,1885.0,1750.2,1120.0,1.0,-3.0,12.0,10741.0,12253.0,1635.0,503.0,-12.0,29.0,-5.0,-4.0,-4.0,16.0,8752.0,6917.0,8324.0,8644.0,-2.0,0.0,8.0,1.0
2022-05-06 12:58:15.141113-07:00,1757.0,604.4,1189.4,1393.9,885.6,1303.4,1458.0,1782.0,3444.3,3435.8,1411.3,1422.2,1386.6,3441.9,1180.6,1375.7,3439.5,3431.0,644.9,1332.3,880.6,533.8,1356.7,1601.1,3444.3,3440.7,997.0,996.2,1805.2,1888.9,1744.5,1116.5,-1.0,2.0,7.0,10738.0,12255.0,1637.0,505.0,11.0,-4.0,3.0,0.0,-5.0,6.0,8751.0,6917.0,8325.0,8643.0,7.0,6.0,0.0,1.0
2022-05-06 12:58:15.171300-07:00,1757.0,604.4,1189.4,1398.5,886.5,1310.6,1467.2,1771.4,3444.3,3435.8,1411.3,1419.5,1383.9,3440.7,1178.8,1372.1,3435.8,3440.7,644.9,1337.7,883.1,533.8,1356.7,1601.1,3440.7,3435.8,992.7,997.0,1802.3,1888.9,1744.5,1116.5,5.0,0.0,9.0,10738.0,12256.0,1634.0,502.0,7.0,-2.0,-8.0,-3.0,-4.0,10.0,8751.0,6916.0,8325.0,8643.0,2.0,-6.0,-2.0,1.0
2022-05-06 12:58:15.291108-07:00,1748.3,602.0,1185.9,1387.5,886.5,1310.6,1467.2,1771.4,3445.5,3440.7,1413.1,1415.8,1383.9,3440.7,1178.8,1372.1,3435.8,3440.7,644.9,1337.7,880.6,533.8,1358.5,1604.9,3440.7,3435.8,992.7,997.0,1797.4,1890.9,1749.3,1111.2,-3.0,-15.0,12.0,10740.0,12254.0,1636.0,501.0,13.0,-9.0,18.0,-3.0,-11.0,10.0,8754.0,6913.0,8323.0,8645.0,22.0,6.0,6.0,1.0
2022-05-06 12:58:15.292327-07:00,1748.3,602.0,1185.9,1387.5,883.9,1300.7,1457.1,1774.3,3445.5,3440.7,1413.1,1415.8,1379.4,3438.2,1192.9,1373.9,3438.2,3440.7,645.7,1335.0,880.6,533.8,1358.5,1604.9,3443.1,3458.9,989.3,992.7,1797.4,1890.9,1749.3,1111.2,3.0,0.0,9.0,10739.0,12255.0,1633.0,503.0,-18.0,-10.0,-5.0,0.0,-7.0,9.0,8754.0,6913.0,8323.0,8645.0,-8.0,-1.0,4.0,1.0
2022-05-06 12:58:15.351243-07:00,1748.3,603.6,1185.9,1390.3,883.9,1300.7,1457.1,1774.3,3438.2,3444.3,1414.9,1416.7,1379.4,3438.2,1192.9,1373.9,3438.2,3440.7,645.7,1335.0,885.6,536.2,1366.6,1600.2,3443.1,3458.9,989.3,992.7,1800.3,1892.8,1753.1,1113.9,1.0,1.0,12.0,10740.0,12254.0,1632.0,502.0,-15.0,6.0,-6.0,-3.0,-4.0,15.0,8755.0,6912.0,8322.0,8646.0,-18.0,3.0,0.0,1.0
2022-05-06 12:58:15.411878-07:00,1748.3,603.6,1185.9,1390.3,883.9,1299.8,1460.8,1779.1,3438.2,3444.3,1414.9,1416.7,1381.2,3441.9,1191.2,1372.1,3445.5,3437.0,642.4,1336.8,885.6,536.2,1366.6,1600.2,3449.1,3439.5,993.6,991.9,1800.3,1892.8,1753.1,1113.9,7.0,-7.0,9.0,10745.0,12250.0,1631.0,502.0,-9.0,-1.0,4.0,-4.0,-2.0,0.0,8759.0,6907.0,8317.0,8650.0,-11.0,7.0,2.0,1.0
2022-05-06 12:58:15.441097-07:00,1756.0,600.4,1185.9,1389.4,883.9,1299.8,1460.8,1779.1,3439.5,3441.9,1405.8,1423.1,1381.2,3441.9,1191.2,1372.1,3445.5,3437.0,642.4,1336.8,883.1,535.4,1353.1,1603.0,3449.1,3439.5,993.6,991.9,1795.5,1882.0,1748.3,1112.1,3.0,0.0,10.0,10766.0,12231.0,1639.0,497.0,-100.0,6.0,-57.0,-2.0,-12.0,4.0,8773.0,6893.0,8301.0,8663.0,-107.0,-17.0,7.0,1.0
2022-05-06 12:58:15.502177-07:00,1737.8,600.4,1185.9,1389.4,879.7,1312.4,1455.2,1767.5,3445.5,3441.9,1405.8,1423.1,1384.8,3446.7,1185.0,1369.4,3439.5,3433.4,639.2,1335.0,883.1,535.4,1353.1,1604.9,3444.3,3438.2,1005.6,993.6,1795.5,1882.0,1748.3,1112.1,1.0,-6.0,19.0,10776.0,12222.0,1643.0,491.0,11.0,-10.0,10.0,-1.0,-4.0,10.0,8783.0,6885.0,8290.0,8671.0,1.0,0.0,0.0,1.0
2022-05-06 12:58:15.531157-07:00,1737.8,605.2,1187.6,1396.7,879.7,1312.4,1455.2,1769.5,3445.5,3439.5,1419.5,1414.9,1384.8,3446.7,1185.0,1369.4,3433.4,3433.4,639.2,1335.0,882.3,531.4,1360.3,1604.9,3443.1,3438.2,1005.6,993.6,1799.4,1877.2,1745.4,1112.1,10.0,13.0,13.0,10783.0,12216.0,1640.0,487.0,-64.0,-6.0,-32.0,-4.0,1.0,-3.0,8790.0,6875.0,8281.0,8679.0,-73.0,-2.0,6.0,1.0
2022-05-06 12:58:15.591071-07:00,1751.2,605.2,1187.6,1396.7,877.2,1312.4,1453.4,1769.5,3444.3,3439.5,1419.5,1414.9,1380.3,3449.1,1179.7,1369.4,3433.4,3440.7,644.9,1329.6,882.3,531.4,1360.3,1602.1,3443.1,3445.5,992.7,996.2,1799.4,1877.2,1745.4,1141.0,27.0,8.0,41.0,10804.0,12192.0,1673.0,495.0,-50.0,155.0,-93.0,5.0,6.0,-13.0,8803.0,6858.0,8265.0,8696.0,-70.0,15.0,6.0,1.0
2022-05-06 12:58:15.621350-07:00,1751.2,604.4,1189.4,1376.6,877.2,1312.4,1453.4,1786.8,3444.3,3447.9,1411.3,1419.5,1380.3,3449.1,1179.7,1362.1,3444.3,3440.7,644.9,1329.6,882.3,536.2,1354.0,1602.1,3441.9,3445.5,992.7,996.2,2011.4,1880.1,1755.0,1141.0,-12.0,-8.0,24.0,10844.0,12139.0,1789.0,540.0,-237.0,272.0,-243.0,7.0,-13.0,23.0,8815.0,6808.0,8234.0,8751.0,-259.0,85.0,21.0,1.0
2022-05-06 12:58:15.681823-07:00,1742.6,604.4,1189.4,1376.6,895.7,1316.0,1474.6,1786.8,3439.5,3447.9,1411.3,1419.5,1379.4,3444.3,1180.6,1362.1,3444.3,3441.9,648.9,1330.5,882.3,536.2,1354.0,1605.8,3441.9,3445.5,999.6,994.5,2011.4,1880.1,1755.0,1221.3,-29.0,-94.0,18.0,10874.0,12093.0,1908.0,558.0,321.0,135.0,16.0,3.0,-48.0,38.0,8793.0,6768.0,8233.0,8805.0,198.0,167.0,68.0,1.0
2022-05-06 12:58:15.741114-07:00,1742.6,632.7,1189.4,1393.9,895.7,1316.0,1488.4,1821.6,3439.5,3434.6,1411.3,1413.1,1379.4,3444.3,1158.6,1357.6,3443.1,3435.8,648.9,1330.5,883.1,529.8,1356.7,1605.8,3445.5,3443.1,999.6,994.5,2070.5,1891.8,1802.3,1221.3,16.0,0.0,-45.0,10709.0,12245.0,1868.0,568.0,495.0,-190.0,81.0,-4.0,-7.0,-9.0,8653.0,6862.0,8374.0,8738.0,498.0,191.0,80.0,1.0
2022-05-06 12:58:15.771237-07:00,1729.1,655.4,1189.4,1393.9,892.4,1325.0,1488.4,1821.6,3438.2,3445.5,1411.3,1413.1,1376.6,3438.2,1158.6,1357.6,3443.1,3435.8,641.6,1341.3,883.1,529.8,1354.0,1596.4,3445.5,3443.1,1011.6,995.3,2070.5,1891.8,1917.4,1200.0,-47.0,-46.0,-21.0,10521.0,12424.0,1784.0,445.0,821.0,-466.0,104.0,-12.0,-14.0,36.0,8473.0,6975.0,8528.0,8675.0,662.0,187.0,146.0,1.0
2022-05-06 12:58:15.831192-07:00,1729.1,655.4,1205.3,1410.3,892.4,1325.0,1475.5,1827.5,3438.2,3445.5,1414.9,1420.4,1376.6,3438.2,1124.4,1348.5,3428.6,3433.4,641.6,1341.3,887.3,533.8,1354.0,1596.4,3439.5,3446.7,1011.6,995.3,2008.4,1913.4,1917.4,1200.0,9.0,-42.0,-65.0,10277.0,12666.0,1527.0,261.0,772.0,-900.0,374.0,-18.0,-19.0,-24.0,8283.0,7121.0,8663.0,8607.0,576.0,127.0,233.0,1.0
2022-05-06 12:58:15.891738-07:00,1733.0,664.4,1205.3,1410.3,886.5,1372.1,1475.5,1827.5,3440.7,3437.0,1414.9,1420.4,1381.2,3443.1,1124.4,1348.5,3428.6,3433.4,648.9,1319.6,887.3,533.8,1353.1,1588.0,3439.5,3446.7,984.2,997.9,2008.4,1913.4,1741.6,1183.2,14.0,114.0,18.0,10006.0,12920.0,1173.0,25.0,793.0,-715.0,210.0,-3.0,56.0,12.0,8109.0,7294.0,8791.0,8497.0,565.0,-11.0,128.0,1.0
2022-05-06 12:58:15.921386-07:00,1733.0,664.4,1201.8,1389.4,886.5,1372.1,1441.5,1797.4,3440.7,3437.0,1419.5,1421.3,1381.2,3443.1,1085.1,1344.0,3434.6,3431.0,648.9,1319.6,876.4,537.8,1353.1,1588.0,3449.1,3443.1,984.2,997.9,1936.1,1805.2,1741.6,1183.2,11.0,79.0,53.0,9905.0,13013.0,975.0,-203.0,-231.0,-537.0,-121.0,-8.0,19.0,-7.0,8105.0,7313.0,8760.0,8516.0,-355.0,-51.0,60.0,1.0
2022-05-06 12:58:15.981248-07:00,1733.0,662.7,1201.8,1389.4,896.6,1353.1,1441.5,1797.4,3439.5,3439.5,1419.5,1421.3,1376.6,3449.1,1085.1,1344.0,3434.6,3431.0,638.4,1307.0,876.4,537.8,1350.3,1583.3,3449.1,3443.1,950.0,993.6,1936.1,1805.2,1621.8,1170.9,-4.0,-43.0,63.0,10021.0,12923.0,937.0,-374.0,-160.0,-239.0,-112.0,0.0,-30.0,29.0,8185.0,7249.0,8653.0,8603.0,-229.0,-44.0,16.0,1.0
2022-05-06 12:58:16.041383-07:00,1733.0,662.7,1194.7,1384.8,896.6,1330.5,1393.0,1746.4,3439.5,3439.5,1400.3,1420.4,1376.6,3435.8,1065.1,1336.8,3438.2,3439.5,647.3,1307.0,878.9,535.4,1350.3,1583.3,3441.9,3439.5,919.4,993.6,1865.4,1753.1,1621.8,1170.9,11.0,5.0,57.0,10036.0,12912.0,905.0,-428.0,-71.0,5.0,48.0,2.0,-8.0,13.0,8192.0,7246.0,8634.0,8618.0,-48.0,5.0,34.0,1.0
2022-05-06 12:58:16.101315-07:00,1741.6,657.9,1183.2,1384.8,892.4,1330.5,1393.0,1746.4,3446.7,3432.2,1397.6,1420.4,1382.1,3435.8,1065.1,1336.8,3438.2,3439.5,647.3,1309.7,878.9,531.4,1326.8,1583.3,3441.9,3439.5,919.4,1001.3,1865.4,1712.9,1563.7,1158.6,2.0,0.0,23.0,10041.0,12909.0,901.0,-404.0,169.0,32.0,36.0,-1.0,0.0,12.0,8170.0,7254.0,8647.0,8620.0,154.0,43.0,16.0,1.0
2022-05-06 12:58:16.131072-07:00,1741.6,657.9,1183.2,1404.0,892.4,1315.1,1367.6,1687.2,3446.7,3432.2,1397.6,1416.7,1382.1,3440.7,1047.0,1324.1,3438.2,3433.4,641.6,1309.7,878.0,531.4,1326.8,1583.3,3441.9,3446.7,893.2,1001.3,1829.4,1712.9,1563.7,1158.6,-8.0,2.0,7.0,9993.0,12947.0,903.0,-383.0,60.0,74.0,21.0,-2.0,-3.0,13.0,8139.0,7269.0,8679.0,8604.0,57.0,44.0,5.0,1.0
2022-05-06 12:58:16.191070-07:00,1741.6,666.0,1183.2,1404.0,883.9,1315.1,1367.6,1687.2,3449.1,3444.3,1393.9,1416.7,1380.3,3440.7,1047.0,1324.1,3438.2,3433.4,641.6,1322.3,878.0,531.4,1320.5,1583.3,3441.9,3446.7,893.2,992.7,1829.4,1706.2,1549.7,1151.5,8.0,1.0,12.0,9975.0,12961.0,901.0,-358.0,29.0,48.0,51.0,-5.0,-5.0,0.0,8124.0,7272.0,8696.0,8598.0,27.0,11.0,3.0,1.0
2022-05-06 12:58:16.221763-07:00,1741.6,666.0,1183.2,1384.8,883.9,1318.7,1348.5,1650.2,3449.1,3444.3,1393.9,1416.7,1380.3,3444.3,1037.5,1339.5,3444.3,3439.5,644.0,1322.3,879.7,531.4,1320.5,1583.3,3440.7,3438.2,886.5,992.7,1811.0,1706.2,1549.7,1151.5,1.0,-8.0,22.0,9979.0,12960.0,894.0,-319.0,-50.0,79.0,83.0,-7.0,-12.0,3.0,8126.0,7271.0,8692.0,8601.0,-27.0,-8.0,15.0,1.0
2022-05-06 12:58:16.281486-07:00,1733.9,666.0,1186.7,1387.5,885.6,1318.7,1348.5,1650.2,3440.7,3437.0,1394.8,1412.2,1381.2,3444.3,1037.5,1339.5,3444.3,3439.5,644.0,1311.5,878.9,531.4,1315.1,1584.2,3440.7,3438.2,886.5,986.7,1793.6,1693.8,1531.0,1150.6,1.0,12.0,5.0,9993.0,12951.0,882.0,-272.0,-51.0,38.0,78.0,-2.0,1.0,5.0,8128.0,7269.0,8688.0,8605.0,-14.0,-7.0,2.0,1.0
2022-05-06 12:58:16.341034-07:00,1733.9,666.0,1186.7,1387.5,889.0,1317.8,1350.3,1636.0,3440.7,3437.0,1394.8,1412.2,1373.9,3449.1,1042.6,1330.5,3440.7,3444.3,643.2,1307.0,878.9,531.4,1315.1,1584.2,3441.9,3446.7,878.9,985.9,1793.6,1693.8,1531.0,1150.6,4.0,4.0,10.0,10002.0,12945.0,869.0,-254.0,32.0,-19.0,25.0,1.0,0.0,7.0,8127.0,7271.0,8690.0,8603.0,39.0,1.0,2.0,1.0
2022-05-06 12:58:16.371212-07:00,1724.4,646.5,1187.6,1391.2,889.0,1317.8,1350.3,1636.0,3438.2,3441.9,1382.1,1413.1,1373.9,3449.1,1042.6,1330.5,3440.7,3444.3,643.2,1307.0,876.4,533.0,1318.7,1582.4,3441.9,3446.7,878.9,985.9,1772.3,1680.5,1523.6,1145.4,2.0,-3.0,22.0,9998.0,12949.0,855.0,-262.0,-26.0,-16.0,13.0,-5.0,-8.0,4.0,8128.0,7269.0,8688.0,8605.0,-37.0,-5.0,-6.0,1.0
2022-05-06 12:58:16.431449-07:00,1724.4,646.5,1187.6,1391.2,891.5,1302.5,1337.7,1626.5,3438.2,3441.9,1382.1,1413.1,1374.8,3443.1,1035.7,1327.8,3434.6,3437.0,640.0,1302.5,876.4,533.0,1318.7,1582.4,3435.8,3450.4,864.6,987.6,1772.3,1680.5,1523.6,1145.4,-2.0,-5.0,22.0,10012.0,12938.0,849.0,-254.0,0.0,11.0,19.0,-3.0,-5.0,15.0,8130.0,7267.0,8685.0,8608.0,28.0,8.0,10.0,1.0
2022-05-06 12:58:16.491094-07:00,1719.6,648.9,1184.1,1393.0,891.5,1302.5,1337.7,1626.5,3441.9,3438.2,1392.1,1423.1,1374.8,3443.1,1035.7,1327.8,3434.6,3437.0,640.0,1302.5,877.2,529.0,1315.1,1580.5,3435.8,3450.4,864.6,987.6,1780.1,1681.4,1515.3,1146.3,5.0,12.0,10.0,9999.0,12950.0,839.0,-250.0,38.0,-10.0,23.0,-1.0,6.0,1.0,8122.0,7273.0,8694.0,8602.0,12.0,3.0,-2.0,1.0
2022-05-06 12:58:16.551414-07:00,1719.6,648.9,1184.1,1393.0,885.6,1312.4,1330.5,1615.2,3441.9,3438.2,1392.1,1423.1,1375.7,3435.8,1029.7,1325.9,3440.7,3437.0,640.8,1305.2,877.2,529.0,1315.1,1580.5,3445.5,3446.7,867.9,982.5,1780.1,1681.4,1515.3,1146.3,2.0,-2.0,19.0,10001.0,12948.0,837.0,-247.0,-7.0,14.0,-11.0,-1.0,-16.0,14.0,8124.0,7270.0,8693.0,8603.0,-3.0,3.0,-6.0,1.0
2022-05-06 12:58:16.641124-07:00,1729.1,646.5,1176.2,1383.0,885.6,1312.4,1330.5,1616.2,3434.6,3438.2,1389.4,1414.0,1375.7,3435.8,1029.7,1328.7,3439.5,3437.0,640.8,1305.2,873.8,533.0,1308.8,1578.6,3444.3,3446.7,867.9,982.5,1760.8,1695.7,1506.9,1142.7,5.0,8.0,20.0,9988.0,12958.0,840.0,-253.0,64.0,-19.0,-10.0,-2.0,3.0,4.0,8119.0,7276.0,8699.0,8597.0,12.0,7.0,4.0,1.0
2022-05-06 12:58:16.642359-07:00,1726.3,646.5,1176.2,1383.0,892.4,1303.4,1324.1,1616.2,3438.2,3438.2,1389.4,1414.0,1373.0,3441.9,1023.7,1328.7,3439.5,3438.2,637.6,1296.3,873.8,533.0,1308.8,1578.6,3444.3,3438.2,867.9,982.5,1760.8,1695.7,1506.9,1138.4,3.0,-7.0,18.0,9997.0,12951.0,846.0,-247.0,-54.0,37.0,2.0,-4.0,-7.0,4.0,8125.0,7270.0,8692.0,8603.0,-42.0,-2.0,3.0,1.0
2022-05-06 12:58:16.671320-07:00,1726.3,647.3,1182.3,1390.3,892.4,1303.4,1324.1,1607.7,3438.2,3439.5,1384.8,1418.6,1373.0,3441.9,1023.7,1328.7,3449.1,3438.2,637.6,1296.3,870.5,537.8,1312.4,1578.6,3444.3,3438.2,867.9,982.5,1756.0,1676.7,1495.8,1138.4,9.0,18.0,18.0,9997.0,12950.0,849.0,-241.0,72.0,-4.0,-1.0,-6.0,7.0,4.0,8123.0,7272.0,8693.0,8602.0,58.0,4.0,0.0,1.0
2022-05-06 12:58:16.731138-07:00,1720.5,647.3,1182.3,1390.3,884.8,1293.6,1332.3,1607.7,3435.8,3439.5,1384.8,1418.6,1374.8,3446.7,1024.5,1328.7,3449.1,3441.9,639.2,1299.0,870.5,537.8,1312.4,1582.4,3444.3,3446.7,859.5,982.5,1756.0,1676.7,1495.8,1132.2,3.0,-8.0,13.0,9999.0,12948.0,860.0,-238.0,-42.0,26.0,-5.0,-6.0,-6.0,5.0,8124.0,7270.0,8692.0,8604.0,-33.0,1.0,-4.0,1.0
2022-05-06 12:58:16.791458-07:00,1720.5,640.0,1187.6,1390.3,884.8,1293.6,1332.3,1597.4,3435.8,3440.7,1386.6,1412.2,1374.8,3446.7,1024.5,1323.2,3433.4,3441.9,639.2,1299.0,867.1,531.4,1304.3,1582.4,3438.2,3446.7,859.5,982.5,1743.5,1672.9,1496.7,1132.2,0.0,4.0,14.0,10001.0,12946.0,870.0,-226.0,23.0,28.0,-12.0,-3.0,-3.0,16.0,8124.0,7270.0,8693.0,8603.0,26.0,12.0,-3.0,1.0
2022-05-06 12:58:16.821274-07:00,1713.8,648.1,1187.6,1390.3,882.3,1291.8,1334.1,1597.4,3428.6,3443.1,1386.6,1412.2,1378.5,3440.7,1023.7,1323.2,3433.4,3437.0,643.2,1302.5,867.1,531.4,1302.5,1578.6,3438.2,3445.5,856.2,973.1,1743.5,1672.9,1494.0,1127.9,0.0,-11.0,12.0,9999.0,12947.0,879.0,-230.0,-12.0,24.0,-13.0,-4.0,-7.0,7.0,8123.0,7270.0,8696.0,8601.0,-12.0,1.0,-4.0,1.0
2022-05-06 12:58:16.881804-07:00,1713.8,648.1,1182.3,1390.3,882.3,1291.8,1329.6,1601.1,3428.6,3443.1,1393.9,1411.3,1378.5,3440.7,1023.7,1325.0,3437.0,3438.2,643.2,1302.5,875.5,534.6,1302.5,1578.6,3446.7,3449.1,856.2,973.1,1735.8,1672.9,1494.0,1127.9,-3.0,2.0,17.0,10005.0,12942.0,884.0,-221.0,-13.0,38.0,1.0,-2.0,1.0,8.0,8124.0,7268.0,8694.0,8603.0,-10.0,-7.0,4.0,1.0
2022-05-06 12:58:16.941032-07:00,1717.7,641.6,1182.3,1390.3,890.7,1293.6,1329.6,1601.1,3438.2,3439.5,1393.9,1411.3,1380.3,3443.1,1023.7,1325.0,3437.0,3438.2,643.2,1298.1,875.5,534.6,1304.3,1580.5,3446.7,3449.1,859.5,979.9,1735.8,1672.9,1493.0,1125.2,4.0,-1.0,11.0,10009.0,12939.0,886.0,-217.0,7.0,-16.0,13.0,-1.0,-5.0,6.0,8126.0,7266.0,8692.0,8605.0,4.0,1.0,-5.0,1.0
2022-05-06 12:58:16.971297-07:00,1717.7,641.6,1181.5,1385.7,890.7,1293.6,1316.9,1586.1,3438.2,3439.5,1389.4,1410.3,1380.3,3443.1,1021.1,1320.5,3431.0,3435.8,643.2,1298.1,872.1,534.6,1304.3,1580.5,3439.5,3449.1,859.5,979.9,1733.0,1669.1,1493.0,1125.2,3.0,1.0,21.0,10010.0,12939.0,879.0,-221.0,6.0,-13.0,1.0,-7.0,-3.0,5.0,8126.0,7266.0,8693.0,8605.0,-1.0,0.0,1.0,1.0
2022-05-06 12:58:17.031714-07:00,1716.7,643.2,1181.5,1385.7,883.1,1282.8,1316.9,1586.1,3434.6,3445.5,1389.4,1410.3,1378.5,3454.0,1021.1,1320.5,3431.0,3435.8,640.0,1297.2,872.1,534.6,1313.3,1574.9,3439.5,3449.1,856.2,984.2,1733.0,1669.1,1491.2,1139.2,7.0,0.0,12.0,10016.0,12934.0,880.0,-219.0,-19.0,9.0,7.0,0.0,-3.0,9.0,8129.0,7264.0,8690.0,8607.0,-11.0,1.0,4.0,1.0
2022-05-06 12:58:17.121301-07:00,1716.7,643.2,1189.4,1391.2,883.1,1296.3,1324.1,1585.2,3434.6,3445.5,1381.2,1419.5,1378.5,3449.1,1021.9,1323.2,3444.3,3433.4,642.4,1297.2,873.0,532.2,1313.3,1574.9,3449.1,3449.1,856.2,984.2,1725.3,1664.4,1491.2,1139.2,4.0,10.0,10.0,10013.0,12937.0,876.0,-216.0,21.0,-10.0,3.0,-3.0,4.0,5.0,8126.0,7266.0,8693.0,8604.0,15.0,0.0,-4.0,1.0
2022-05-06 12:58:17.122401-07:00,1711.9,640.0,1181.5,1391.2,884.8,1296.3,1324.1,1585.2,3441.9,3435.8,1383.0,1419.5,1376.6,3449.1,1021.9,1323.2,3444.3,3433.4,642.4,1302.5,873.0,528.2,1306.1,1576.8,3449.1,3449.1,856.2,979.9,1725.3,1653.0,1486.6,1131.4,0.0,-6.0,18.0,10018.0,12933.0,876.0,-223.0,-12.0,-3.0,-10.0,-5.0,-9.0,10.0,8129.0,7264.0,8691.0,8607.0,-13.0,2.0,-1.0,1.0
2022-05-06 12:58:17.181092-07:00,1711.9,640.0,1181.5,1382.1,884.8,1291.8,1317.8,1588.9,3441.9,3435.8,1383.0,1414.9,1376.6,3429.8,1021.9,1322.3,3438.2,3433.4,641.6,1302.5,875.5,528.2,1306.1,1576.8,3449.1,3446.7,847.0,979.9,1726.3,1653.0,1486.6,1131.4,3.0,-3.0,12.0,10020.0,12932.0,869.0,-218.0,-2.0,1.0,38.0,-2.0,-3.0,7.0,8129.0,7264.0,8691.0,8607.0,-4.0,-2.0,5.0,1.0
2022-05-06 12:58:17.241135-07:00,1711.9,635.9,1182.3,1382.1,883.1,1291.8,1317.8,1588.9,3435.8,3440.7,1386.6,1414.9,1375.7,3429.8,1021.9,1322.3,3438.2,3433.4,641.6,1303.4,875.5,533.8,1293.6,1568.3,3449.1,3446.7,847.0,979.9,1726.3,1656.8,1489.3,1123.5,6.0,10.0,9.0,10019.0,12933.0,858.0,-213.0,33.0,-27.0,6.0,0.0,0.0,2.0,8126.0,7268.0,8691.0,8604.0,32.0,-10.0,11.0,1.0
2022-05-06 12:58:17.271448-07:00,1711.9,635.9,1182.3,1389.4,883.1,1287.3,1315.1,1583.3,3435.8,3440.7,1386.6,1418.6,1375.7,3444.3,1014.2,1321.4,3432.2,3426.2,642.4,1303.4,873.8,533.8,1293.6,1568.3,3441.9,3441.9,852.0,979.9,1720.5,1656.8,1489.3,1123.5,0.0,-14.0,18.0,10025.0,12929.0,860.0,-219.0,-60.0,12.0,-6.0,-3.0,-13.0,10.0,8130.0,7264.0,8688.0,8608.0,-50.0,-4.0,1.0,1.0
2022-05-06 12:58:17.330698-07:00,1716.7,632.7,1182.3,1389.4,885.6,1287.3,1315.1,1583.3,3440.7,3444.3,1383.9,1418.6,1374.8,3444.3,1014.2,1321.4,3432.2,3426.2,642.4,1296.3,873.8,529.8,1300.7,1575.8,3441.9,3441.9,852.0,977.3,1720.5,1652.0,1487.5,1147.1,0.0,13.0,14.0,10024.0,12930.0,854.0,-213.0,52.0,-3.0,20.0,-4.0,2.0,12.0,8125.0,7269.0,8690.0,8606.0,44.0,5.0,10.0,1.0
2022-05-06 12:58:17.390671-07:00,1716.7,632.7,1182.3,1382.1,886.5,1286.4,1315.1,1579.6,3440.7,3444.3,1383.9,1417.6,1365.7,3444.3,1019.4,1325.9,3440.7,3435.8,640.0,1302.5,872.1,529.8,1300.7,1575.8,3445.5,3446.7,852.8,979.9,1716.7,1652.0,1487.5,1147.1,8.0,0.0,14.0,10030.0,12925.0,857.0,-212.0,-33.0,10.0,-7.0,-1.0,0.0,4.0,8125.0,7269.0,8690.0,8607.0,-29.0,2.0,0.0,1.0
2022-05-06 12:58:17.421332-07:00,1713.8,638.4,1183.2,1387.5,886.5,1286.4,1315.1,1579.6,3440.7,3440.7,1383.9,1417.6,1365.7,3444.3,1019.4,1325.9,3440.7,3435.8,640.0,1302.5,871.3,533.0,1296.3,1573.0,3445.5,3446.7,852.8,979.9,1713.8,1648.3,1477.3,1127.0,1.0,7.0,9.0,10029.0,12926.0,852.0,-209.0,18.0,2.0,13.0,-6.0,1.0,9.0,8124.0,7270.0,8689.0,8608.0,19.0,1.0,12.0,1.0
2022-05-06 12:58:17.511072-07:00,1713.8,638.4,1183.2,1387.5,878.0,1288.2,1309.7,1590.8,3440.7,3440.7,1383.9,1417.6,1377.5,3435.8,1018.5,1319.6,3444.3,3444.3,640.0,1294.5,871.3,533.0,1296.3,1573.0,3445.5,3446.7,855.3,975.6,1713.8,1648.3,1477.3,1127.0,2.0,-1.0,15.0,10038.0,12919.0,852.0,-208.0,-20.0,0.0,-2.0,0.0,-5.0,6.0,8127.0,7267.0,8685.0,8611.0,-25.0,-7.0,2.0,1.0
2022-05-06 12:58:17.541107-07:00,1711.9,637.6,1176.2,1390.3,878.0,1288.2,1309.7,1590.8,3446.7,3446.7,1382.1,1419.5,1377.5,3435.8,1018.5,1319.6,3444.3,3444.3,640.0,1294.5,873.8,527.4,1301.6,1574.9,3445.5,3446.7,855.3,975.6,1707.2,1655.8,1478.3,1122.6,5.0,0.0,14.0,10045.0,12914.0,849.0,-201.0,-24.0,17.0,11.0,0.0,-6.0,5.0,8130.0,7264.0,8682.0,8614.0,-20.0,-4.0,-1.0,1.0
2022-05-06 12:58:17.571501-07:00,1711.9,637.6,1176.2,1390.3,883.1,1290.0,1306.1,1582.4,3446.7,3446.7,1382.1,1419.5,1378.5,3439.5,1017.6,1325.0,3441.9,3449.1,642.4,1297.2,873.8,527.4,1301.6,1574.9,3450.4,3454.0,851.1,981.6,1707.2,1655.8,1478.3,1122.6,-1.0,-3.0,18.0,10046.0,12913.0,854.0,-196.0,19.0,2.0,-2.0,-4.0,-3.0,15.0,8130.0,7264.0,8682.0,8614.0,20.0,5.0,7.0,1.0
2022-05-06 12:58:17.661046-07:00,1717.7,640.8,1180.6,1383.0,883.1,1290.0,1306.1,1573.0,3441.9,3445.5,1375.7,1414.9,1378.5,3439.5,1017.6,1320.5,3449.1,3449.1,642.4,1297.2,873.0,529.0,1303.4,1573.0,3443.1,3454.0,851.1,981.6,1711.0,1644.5,1467.2,1127.0,3.0,5.0,8.0,10045.0,12914.0,849.0,-192.0,9.0,10.0,12.0,-9.0,1.0,5.0,8127.0,7267.0,8685.0,8611.0,10.0,2.0,7.0,1.0
2022-05-06 12:58:17.751505-07:00,1718.6,640.8,1180.6,1383.0,886.5,1281.9,1312.4,1573.0,3441.9,3445.5,1375.7,1414.9,1378.5,3438.2,1018.5,1320.5,3449.1,3440.7,642.4,1296.3,873.0,529.0,1303.4,1575.8,3443.1,3454.0,844.4,978.2,1711.0,1644.5,1467.2,1114.7,-2.0,3.0,14.0,10049.0,12911.0,858.0,-187.0,-15.0,18.0,-12.0,1.0,-5.0,16.0,8128.0,7265.0,8683.0,8613.0,-18.0,0.0,-4.0,1.0
2022-05-06 12:58:17.753299-07:00,1718.6,638.4,1174.4,1390.3,886.5,1281.9,1312.4,1570.2,3441.9,3446.7,1383.0,1415.8,1378.5,3438.2,1018.5,1316.9,3441.9,3440.7,642.4,1296.3,878.9,529.0,1301.6,1575.8,3433.4,3454.0,844.4,978.2,1694.8,1650.2,1470.0,1114.7,3.0,0.0,10.0,10045.0,12914.0,855.0,-185.0,24.0,1.0,17.0,-2.0,-3.0,6.0,8126.0,7268.0,8685.0,8611.0,23.0,5.0,3.0,1.0
2022-05-06 12:58:17.781159-07:00,1712.9,638.4,1174.4,1390.3,884.8,1277.4,1311.5,1570.2,3435.8,3446.7,1383.0,1415.8,1379.4,3440.7,1021.9,1316.9,3441.9,3438.2,647.3,1299.8,878.9,529.0,1301.6,1574.9,3433.4,3449.1,848.6,979.9,1694.8,1650.2,1470.0,1114.7,0.0,0.0,13.0,10051.0,12909.0,854.0,-176.0,-14.0,8.0,18.0,0.0,-6.0,12.0,8129.0,7265.0,8682.0,8614.0,-20.0,-2.0,-4.0,1.0
2022-05-06 12:58:17.811160-07:00,1712.9,633.5,1183.2,1392.1,884.8,1277.4,1311.5,1577.7,3435.8,3446.7,1393.9,1417.6,1379.4,3440.7,1021.9,1317.8,3449.1,3438.2,647.3,1299.8,873.8,527.4,1297.2,1574.9,3449.1,3449.1,848.6,979.9,1691.9,1641.6,1471.8,1114.7,4.0,1.0,11.0,10048.0,12912.0,850.0,-176.0,20.0,-14.0,-10.0,-4.0,-5.0,9.0,8127.0,7267.0,8684.0,8612.0,10.0,1.0,-8.0,1.0
2022-05-06 12:58:17.901246-07:00,1712.9,631.9,1183.2,1392.1,890.7,1283.7,1312.4,1577.7,3431.0,3440.7,1393.9,1417.6,1377.5,3435.8,1015.9,1317.8,3449.1,3438.2,644.9,1295.4,873.8,527.4,1299.8,1573.9,3449.1,3458.9,849.5,970.5,1691.9,1641.6,1462.6,1109.5,0.0,-4.0,22.0,10046.0,12913.0,855.0,-178.0,-16.0,16.0,-1.0,-4.0,-4.0,13.0,8127.0,7267.0,8684.0,8611.0,-9.0,6.0,5.0,1.0
2022-05-06 12:58:17.931148-07:00,1712.9,631.9,1182.3,1381.2,890.7,1283.7,1314.2,1571.1,3431.0,3440.7,1382.1,1420.4,1377.5,3435.8,1011.6,1318.7,3428.6,3441.9,644.9,1295.4,871.3,531.4,1299.8,1573.9,3447.9,3440.7,849.5,970.5,1694.8,1649.2,1462.6,1109.5,4.0,0.0,11.0,10040.0,12918.0,855.0,-170.0,41.0,8.0,12.0,-2.0,-1.0,11.0,8122.0,7269.0,8690.0,8609.0,36.0,8.0,8.0,1.0
2022-05-06 12:58:17.961290-07:00,1708.1,630.3,1182.3,1381.2,887.3,1280.1,1314.2,1571.1,3438.2,3433.4,1382.1,1420.4,1383.0,3449.1,1011.6,1318.7,3428.6,3441.9,644.9,1295.4,871.3,531.4,1299.8,1566.5,3447.9,3440.7,843.6,977.3,1694.8,1649.2,1455.2,1114.7,4.0,8.0,15.0,10040.0,12917.0,860.0,-169.0,-37.0,23.0,-14.0,-1.0,4.0,7.0,8122.0,7270.0,8690.0,8608.0,-27.0,0.0,0.0,1.0
2022-05-06 12:58:18.029518-07:00,1708.1,630.3,1174.4,1388.5,887.3,1280.1,1316.0,1575.8,3438.2,3433.4,1378.5,1419.5,1383.0,3449.1,1010.8,1310.6,3426.2,3437.0,644.9,1295.4,870.5,530.6,1299.8,1566.5,3440.7,3441.9,843.6,977.3,1695.7,1647.3,1455.2,1114.7,2.0,-2.0,5.0,10042.0,12917.0,855.0,-168.0,30.0,-24.0,20.0,-2.0,-8.0,10.0,8123.0,7269.0,8689.0,8609.0,34.0,4.0,9.0,1.0
2022-05-06 12:58:18.080860-07:00,1717.7,633.5,1174.4,1388.5,883.9,1274.7,1316.0,1575.8,3433.4,3443.1,1378.5,1419.5,1376.6,3437.0,1010.8,1310.6,3426.2,3437.0,647.3,1307.9,870.5,530.6,1291.8,1569.3,3440.7,3441.9,838.6,975.6,1695.7,1647.3,1460.8,1096.4,2.0,19.0,12.0,10022.0,12932.0,854.0,-201.0,62.0,-71.0,-72.0,-4.0,13.0,9.0,8107.0,7283.0,8704.0,8597.0,42.0,10.0,-4.0,1.0
2022-05-06 12:58:18.110946-07:00,1717.7,633.5,1174.4,1385.7,883.9,1274.7,1300.7,1573.0,3433.4,3443.1,1382.1,1415.8,1376.6,3437.0,1008.2,1315.1,3428.6,3434.6,647.3,1307.9,871.3,535.4,1291.8,1569.3,3438.2,3449.1,838.6,975.6,1687.2,1643.5,1460.8,1096.4,3.0,-17.0,21.0,10025.0,12929.0,857.0,-215.0,-37.0,24.0,24.0,-4.0,-13.0,8.0,8111.0,7278.0,8702.0,8600.0,-45.0,-3.0,6.0,1.0
2022-05-06 12:58:18.171246-07:00,1714.8,638.4,1185.0,1385.7,885.6,1270.3,1300.7,1573.0,3440.7,3445.5,1382.1,1415.8,1380.3,3444.3,1008.2,1315.1,3428.6,3434.6,647.3,1298.1,871.3,532.2,1298.1,1574.9,3438.2,3449.1,837.7,976.5,1687.2,1643.5,1462.6,1116.5,-4.0,13.0,13.0,10026.0,12928.0,854.0,-203.0,29.0,-4.0,4.0,-6.0,0.0,20.0,8110.0,7279.0,8698.0,8604.0,27.0,4.0,12.0,1.0
2022-05-06 12:58:18.231131-07:00,1714.8,638.4,1185.0,1390.3,885.6,1275.6,1303.4,1559.0,3440.7,3445.5,1382.1,1413.1,1380.3,3445.5,1014.2,1319.6,3435.8,3444.3,642.4,1298.1,867.9,532.2,1298.1,1574.9,3440.7,3440.7,835.2,976.5,1690.0,1643.5,1462.6,1116.5,9.0,-1.0,12.0,10023.0,12931.0,855.0,-201.0,-36.0,21.0,0.0,2.0,-5.0,2.0,8111.0,7278.0,8697.0,8605.0,-31.0,-1.0,-3.0,1.0
2022-05-06 12:58:18.291204-07:00,1710.0,631.9,1183.2,1390.3,883.1,1275.6,1303.4,1559.0,3441.9,3438.2,1377.5,1413.1,1377.5,3445.5,1014.2,1319.6,3435.8,3444.3,642.4,1290.9,867.9,527.4,1300.7,1571.1,3440.7,3440.7,835.2,979.9,1690.0,1642.6,1458.0,1118.2,0.0,-5.0,16.0,10032.0,12923.0,856.0,-193.0,7.0,-1.0,17.0,-4.0,-12.0,14.0,8114.0,7274.0,8692.0,8610.0,7.0,0.0,10.0,1.0
2022-05-06 12:58:18.321254-07:00,1710.0,631.9,1183.2,1387.5,883.1,1271.2,1297.2,1574.9,3441.9,3438.2,1377.5,1414.0,1377.5,3440.7,1014.2,1309.7,3434.6,3435.8,640.8,1290.9,871.3,527.4,1300.7,1571.1,3435.8,3435.8,842.8,979.9,1687.2,1642.6,1458.0,1118.2,3.0,12.0,22.0,10030.0,12926.0,852.0,-188.0,-39.0,24.0,11.0,-3.0,3.0,13.0,8115.0,7274.0,8692.0,8610.0,-28.0,1.0,-1.0,1.0
2022-05-06 12:58:18.381114-07:00,1710.0,631.9,1175.3,1387.5,888.2,1271.2,1297.2,1574.9,3438.2,3434.6,1383.0,1414.0,1378.5,3440.7,1014.2,1309.7,3434.6,3435.8,640.8,1296.3,871.3,531.4,1284.6,1573.9,3435.8,3435.8,842.8,974.8,1687.2,1638.8,1456.2,1119.1,4.0,0.0,11.0,10040.0,12918.0,855.0,-177.0,29.0,18.0,20.0,-2.0,0.0,7.0,8117.0,7270.0,8689.0,8613.0,27.0,10.0,-2.0,1.0
2022-05-06 12:58:18.441110-07:00,1710.0,631.9,1175.3,1393.0,883.1,1273.0,1295.4,1566.5,3438.2,3434.6,1383.0,1414.9,1392.1,3443.1,1003.0,1320.5,3437.0,3438.2,640.8,1299.0,871.3,531.4,1284.6,1573.9,3438.2,3443.1,837.7,980.7,1683.3,1638.8,1456.2,1119.1,1.0,-7.0,8.0,10040.0,12918.0,855.0,-170.0,-11.0,-13.0,-4.0,-1.0,-8.0,11.0,8119.0,7268.0,8687.0,8615.0,-16.0,1.0,4.0,1.0
2022-05-06 12:58:18.471695-07:00,1708.1,633.5,1180.6,1382.1,883.1,1273.0,1295.4,1566.5,3438.2,3438.2,1385.7,1415.8,1392.1,3443.1,1003.0,1320.5,3437.0,3438.2,640.8,1299.0,875.5,533.8,1297.2,1576.8,3438.2,3443.1,837.7,980.7,1682.4,1636.9,1457.1,1117.4,4.0,12.0,17.0,10043.0,12916.0,847.0,-175.0,-15.0,-6.0,4.0,-5.0,2.0,4.0,8120.0,7267.0,8687.0,8616.0,-11.0,-1.0,-2.0,1.0
2022-05-06 12:58:18.531149-07:00,1708.1,633.5,1180.6,1382.1,883.1,1276.5,1299.8,1555.3,3438.2,3438.2,1385.7,1415.8,1373.0,3439.5,1014.2,1317.8,3437.0,3446.7,642.4,1296.3,875.5,533.8,1297.2,1576.8,3435.8,3446.7,846.1,969.6,1682.4,1636.9,1457.1,1117.4,5.0,0.0,20.0,10051.0,12909.0,849.0,-186.0,4.0,-21.0,-34.0,2.0,-4.0,9.0,8127.0,7261.0,8685.0,8616.0,4.0,-1.0,-19.0,1.0
2022-05-06 12:58:18.561146-07:00,1706.2,631.1,1178.8,1386.6,883.1,1276.5,1299.8,1555.3,3439.5,3440.7,1385.7,1408.5,1373.0,3439.5,1014.2,1317.8,3437.0,3446.7,642.4,1296.3,868.8,527.4,1295.4,1566.5,3435.8,3446.7,846.1,969.6,1676.7,1634.1,1453.4,1112.1,8.0,18.0,43.0,10061.0,12901.0,860.0,-186.0,10.0,80.0,-29.0,-8.0,-6.0,9.0,8135.0,7252.0,8686.0,8615.0,-13.0,-6.0,-26.0,1.0
2022-05-06 12:58:18.622073-07:00,1706.2,631.1,1178.8,1386.6,886.5,1274.7,1307.9,1566.5,3439.5,3440.7,1385.7,1408.5,1377.5,3440.7,1016.8,1317.8,3439.5,3441.9,642.4,1288.2,868.8,527.4,1295.4,1566.5,3446.7,3443.1,841.1,978.2,1676.7,1634.1,1453.4,1112.1,7.0,72.0,41.0,10077.0,12885.0,914.0,-148.0,-312.0,227.0,-89.0,-3.0,17.0,15.0,8166.0,7229.0,8685.0,8607.0,-115.0,-35.0,-96.0,1.0
2022-05-06 12:58:18.681190-07:00,1714.8,627.0,1189.4,1388.5,886.5,1274.7,1307.9,1566.5,3441.9,3441.9,1382.1,1411.3,1377.5,3440.7,1016.8,1317.8,3439.5,3441.9,642.4,1288.2,873.0,529.8,1314.2,1566.5,3446.7,3443.1,841.1,978.2,1680.5,1659.6,1499.5,1106.9,-6.0,-34.0,9.0,10200.0,12781.0,1022.0,-77.0,-282.0,264.0,-21.0,-3.0,-17.0,25.0,8235.0,7170.0,8656.0,8618.0,-97.0,-34.0,-115.0,1.0
2022-05-06 12:58:18.711175-07:00,1709.1,627.0,1189.4,1388.5,879.7,1280.1,1422.2,1713.8,3444.3,3441.9,1382.1,1411.3,1383.0,3449.1,1040.9,1324.1,3428.6,3434.6,640.0,1290.0,873.0,529.8,1314.2,1570.2,3437.0,3440.7,887.3,986.7,1680.5,1659.6,1499.5,1117.4,-3.0,21.0,7.0,10274.0,12717.0,1074.0,40.0,-323.0,268.0,185.0,-13.0,11.0,12.0,8281.0,7144.0,8651.0,8601.0,-106.0,-64.0,-100.0,1.0
2022-05-06 12:58:18.771850-07:00,1709.1,628.6,1182.3,1385.7,879.7,1280.1,1422.2,1974.6,3444.3,3447.9,1379.4,1428.6,1383.0,3449.1,1040.9,1325.9,3437.0,3434.6,640.0,1290.0,871.3,531.4,1322.3,1570.2,3441.9,3440.7,887.3,986.7,1705.3,1817.8,1783.9,1117.4,10.0,-22.0,5.0,10429.0,12587.0,1091.0,187.0,-583.0,254.0,105.0,-2.0,-8.0,0.0,8391.0,7075.0,8568.0,8636.0,-398.0,-120.0,-74.0,1.0
2022-05-06 12:58:18.831720-07:00,1712.9,628.6,1182.3,1385.7,892.4,1278.3,1592.7,1974.6,3449.1,3447.9,1379.4,1428.6,1381.2,3440.7,1060.8,1325.9,3437.0,3434.6,648.1,1286.4,871.3,531.4,1322.3,1566.5,3441.9,3449.1,922.0,1005.6,1705.3,1817.8,1783.9,1119.1,14.0,11.0,1.0,10559.0,12474.0,1121.0,289.0,-211.0,161.0,31.0,7.0,-2.0,13.0,8475.0,7027.0,8504.0,8655.0,-169.0,-88.0,-76.0,1.0
2022-05-06 12:58:18.861197-07:00,1712.9,627.0,1192.0,1397.6,892.4,1278.3,1592.7,1943.0,3449.1,3440.7,1383.0,1419.5,1381.2,3440.7,1060.8,1335.0,3435.8,3434.6,648.1,1286.4,873.0,536.2,1347.6,1566.5,3441.9,3449.1,922.0,1005.6,1733.9,1977.6,1939.0,1119.1,9.0,-5.0,-6.0,10651.0,12391.0,1161.0,341.0,-361.0,106.0,-36.0,0.0,0.0,7.0,8536.0,6986.0,8458.0,8674.0,-305.0,-85.0,-62.0,1.0
2022-05-06 12:58:18.921628-07:00,1777.2,627.0,1192.0,1397.6,891.5,1273.9,1586.1,1943.0,3445.5,3440.7,1383.0,1419.5,1383.9,3458.9,1092.1,1335.0,3435.8,3434.6,644.0,1299.8,873.0,536.2,1347.6,1575.8,3441.9,3437.0,961.1,1008.2,1733.9,1977.6,1939.0,1116.5,24.0,-21.0,12.0,10718.0,12327.0,1209.0,368.0,-124.0,149.0,-65.0,8.0,-17.0,-17.0,8612.0,6936.0,8394.0,8701.0,-117.0,-63.0,-51.0,1.0
2022-05-06 12:58:19.011122-07:00,1777.2,623.8,1192.0,1388.5,891.5,1273.9,1573.0,1941.0,3445.5,3438.2,1383.0,1420.4,1383.9,3458.9,1110.4,1335.0,3440.7,3433.4,644.0,1299.8,869.6,537.8,1336.8,1575.8,3445.5,3439.5,961.1,1008.2,1751.2,2027.4,1899.7,1116.5,0.0,-6.0,16.0,10750.0,12290.0,1287.0,418.0,-196.0,202.0,-95.0,7.0,-7.0,30.0,8662.0,6912.0,8355.0,8708.0,-219.0,-67.0,-26.0,1.0
2022-05-06 12:58:19.041708-07:00,1783.9,632.7,1192.0,1388.5,886.5,1286.4,1573.0,1941.0,3443.1,3443.1,1383.0,1420.4,1379.4,3441.9,1110.4,1335.0,3440.7,3433.4,644.0,1311.5,869.6,537.8,1325.9,1589.9,3445.5,3439.5,1001.3,1004.8,1751.2,2027.4,1837.2,1130.5,-4.0,-33.0,0.0,10792.0,12241.0,1384.0,443.0,-77.0,136.0,-158.0,9.0,-8.0,19.0,8714.0,6873.0,8313.0,8726.0,-65.0,-19.0,-55.0,1.0
2022-05-06 12:58:19.071562-07:00,1783.9,632.7,1185.9,1391.2,886.5,1286.4,1567.4,1897.7,3443.1,3443.1,1384.8,1418.6,1379.4,3441.9,1167.4,1355.8,3434.6,3437.0,644.0,1311.5,877.2,533.0,1325.9,1589.9,3438.2,3444.3,1001.3,1004.8,1971.7,2019.4,1837.2,1130.5,-3.0,-6.0,8.0,10770.0,12254.0,1444.0,441.0,103.0,97.0,-62.0,0.0,-1.0,12.0,8725.0,6866.0,8325.0,8710.0,70.0,10.0,-40.0,1.0
2022-05-06 12:58:19.131174-07:00,1776.2,630.3,1185.9,1391.2,883.9,1297.2,1567.4,1897.7,3440.7,3441.9,1384.8,1418.6,1382.1,3441.9,1167.4,1355.8,3434.6,3437.0,640.0,1325.0,877.2,533.0,1325.0,1596.4,3438.2,3444.3,1013.3,1000.5,1971.7,2019.4,1818.7,1139.2,10.0,-1.0,-5.0,10753.0,12267.0,1470.0,432.0,19.0,-32.0,-70.0,-10.0,-8.0,-8.0,8728.0,6864.0,8342.0,8693.0,-9.0,-15.0,-36.0,1.0
2022-05-06 12:58:19.161206-07:00,1776.2,630.3,1196.5,1390.3,883.9,1297.2,1535.7,1885.0,3440.7,3441.9,1380.3,1414.9,1382.1,3441.9,1186.7,1359.4,3443.1,3438.2,640.0,1325.0,878.9,529.8,1325.0,1596.4,3443.1,3458.9,1013.3,1000.5,2032.4,2000.5,1818.7,1139.2,8.0,-12.0,19.0,10753.0,12265.0,1489.0,403.0,-15.0,-13.0,-67.0,0.0,-9.0,8.0,8742.0,6859.0,8341.0,8684.0,-37.0,-23.0,-22.0,1.0
2022-05-06 12:58:19.251258-07:00,1782.0,612.5,1196.5,1390.3,878.9,1290.0,1535.7,1885.0,3440.7,3447.9,1382.1,1414.9,1377.5,3441.9,1186.7,1359.4,3443.1,3438.2,646.5,1328.7,878.9,529.0,1325.0,1596.4,3443.1,3458.9,1019.4,990.2,2032.4,1961.8,1793.6,1155.0,0.0,1.0,9.0,10759.0,12258.0,1504.0,401.0,-3.0,19.0,-29.0,1.0,-6.0,23.0,8754.0,6855.0,8334.0,8681.0,1.0,-9.0,-15.0,1.0
2022-05-06 12:58:19.281121-07:00,1782.0,612.5,1196.5,1385.7,878.9,1288.2,1525.5,1867.4,3440.7,3447.9,1382.1,1417.6,1377.5,3438.2,1199.1,1372.1,3428.6,3439.5,644.0,1328.7,878.9,529.0,1325.0,1596.4,3441.9,3438.2,1015.1,990.2,2012.4,1961.8,1793.6,1155.0,4.0,9.0,19.0,10755.0,12260.0,1516.0,396.0,26.0,34.0,-38.0,1.0,-3.0,11.0,8757.0,6852.0,8336.0,8677.0,30.0,5.0,-14.0,1.0
2022-05-06 12:58:19.311252-07:00,1785.8,624.6,1192.0,1385.7,883.1,1288.2,1525.5,1867.4,3440.7,3439.5,1380.3,1417.6,1376.6,3438.2,1199.1,1372.1,3428.6,3439.5,644.0,1329.6,878.9,532.2,1322.3,1602.1,3441.9,3438.2,1015.1,991.9,2012.4,1943.0,1782.0,1161.2,2.0,-10.0,0.0,10754.0,12260.0,1531.0,390.0,19.0,-19.0,-18.0,0.0,-7.0,10.0,8759.0,6851.0,8340.0,8673.0,9.0,14.0,-13.0,1.0
2022-05-06 12:58:19.401191-07:00,1785.8,624.6,1192.0,1389.4,883.1,1299.8,1512.5,1864.5,3440.7,3439.5,1380.3,1411.3,1376.6,3444.3,1200.9,1379.4,3438.2,3439.5,644.0,1329.6,878.9,532.2,1322.3,1602.1,3449.1,3438.2,1007.3,991.9,1980.6,1943.0,1782.0,1161.2,11.0,6.0,-3.0,10744.0,12270.0,1520.0,373.0,22.0,-68.0,-14.0,-2.0,0.0,-2.0,8759.0,6848.0,8345.0,8670.0,-7.0,-12.0,-17.0,1.0
2022-05-06 12:58:19.431771-07:00,1789.7,612.5,1186.7,1389.4,886.5,1299.8,1512.5,1864.5,3446.7,3441.9,1384.8,1411.3,1393.0,3444.3,1200.9,1379.4,3438.2,3439.5,644.0,1329.6,878.9,536.2,1316.9,1604.0,3449.1,3438.2,1007.3,991.0,1980.6,1934.1,1769.5,1163.8,-2.0,-18.0,15.0,10749.0,12267.0,1518.0,351.0,-12.0,-47.0,-21.0,-2.0,-18.0,23.0,8770.0,6843.0,8338.0,8670.0,-24.0,-11.0,-7.0,1.0
2022-05-06 12:58:19.491287-07:00,1789.7,612.5,1186.7,1387.5,886.5,1303.4,1511.5,1822.6,3446.7,3441.9,1384.8,1417.6,1393.0,3446.7,1200.0,1386.6,3443.1,3429.8,640.8,1329.6,876.4,536.2,1316.9,1604.0,3444.3,3441.9,1003.0,991.0,1947.9,1934.1,1769.5,1163.8,-2.0,12.0,9.0,10749.0,12268.0,1509.0,340.0,20.0,-9.0,-10.0,-3.0,9.0,22.0,8773.0,6840.0,8335.0,8673.0,12.0,4.0,-5.0,1.0
2022-05-06 12:58:19.521074-07:00,1775.2,613.3,1194.7,1389.4,879.7,1303.4,1511.5,1822.6,3443.1,3439.5,1379.4,1409.4,1380.3,3446.7,1200.0,1386.6,3443.1,3429.8,640.8,1324.1,874.7,533.0,1319.6,1605.8,3444.3,3441.9,1003.0,986.7,1915.4,1921.3,1763.7,1155.0,2.0,4.0,8.0,10753.0,12264.0,1514.0,335.0,8.0,1.0,-10.0,-2.0,-4.0,16.0,8775.0,6837.0,8333.0,8675.0,11.0,5.0,-1.0,1.0
2022-05-06 12:58:19.581491-07:00,1775.2,613.3,1194.7,1389.4,890.7,1297.2,1497.7,1817.8,3443.1,3439.5,1379.4,1409.4,1378.5,3441.9,1194.7,1375.7,3444.3,3428.6,644.9,1320.5,874.7,533.0,1319.6,1605.8,3449.1,3437.0,999.6,980.7,1915.4,1921.3,1763.7,1155.0,-7.0,-8.0,9.0,10762.0,12255.0,1525.0,337.0,-33.0,29.0,-23.0,-3.0,-9.0,25.0,8778.0,6833.0,8329.0,8678.0,-14.0,8.0,-2.0,1.0
2022-05-06 12:58:19.641088-07:00,1782.9,610.8,1200.0,1397.6,890.7,1297.2,1497.7,1817.8,3441.9,3440.7,1388.5,1407.6,1378.5,3441.9,1194.7,1375.7,3444.3,3428.6,644.9,1320.5,871.3,529.0,1321.4,1608.7,3449.1,3437.0,999.6,980.7,1894.8,1933.1,1760.8,1151.5,4.0,-6.0,9.0,10767.0,12250.0,1526.0,338.0,-20.0,0.0,10.0,0.0,-7.0,8.0,8780.0,6831.0,8327.0,8680.0,-16.0,-2.0,7.0,1.0
2022-05-06 12:58:19.671221-07:00,1782.9,610.8,1200.0,1397.6,883.1,1296.3,1497.7,1814.9,3441.9,3440.7,1388.5,1407.6,1381.2,3435.8,1193.8,1373.9,3438.2,3439.5,643.2,1322.3,871.3,529.0,1321.4,1608.7,3441.9,3449.1,997.9,984.2,1894.8,1933.1,1760.8,1151.5,-2.0,10.0,7.0,10771.0,12248.0,1521.0,339.0,-11.0,-22.0,2.0,-4.0,0.0,20.0,8783.0,6828.0,8324.0,8683.0,-23.0,-3.0,-1.0,1.0
2022-05-06 12:58:19.731367-07:00,1787.8,625.4,1196.5,1390.3,883.1,1296.3,1497.7,1814.9,3441.9,3433.4,1373.9,1414.9,1381.2,3435.8,1193.8,1373.9,3438.2,3439.5,643.2,1322.3,879.7,529.8,1317.8,1609.6,3441.9,3449.1,997.9,984.2,1886.9,1911.5,1739.7,1150.6,0.0,0.0,14.0,10776.0,12244.0,1516.0,336.0,7.0,-9.0,-5.0,-3.0,-3.0,15.0,8786.0,6823.0,8320.0,8687.0,0.0,-2.0,-1.0,1.0
2022-05-06 12:58:19.791206-07:00,1786.8,625.4,1196.5,1390.3,881.4,1298.1,1488.4,1802.3,3439.5,3433.4,1373.9,1414.9,1383.0,3445.5,1192.9,1376.6,3438.2,3449.1,643.2,1324.1,879.7,529.8,1317.8,1608.7,3438.2,3445.5,1012.5,982.5,1886.9,1911.5,1739.7,1141.0,2.0,-5.0,16.0,10781.0,12239.0,1520.0,334.0,-2.0,10.0,-11.0,0.0,-7.0,18.0,8789.0,6820.0,8317.0,8690.0,9.0,4.0,0.0,1.0
2022-05-06 12:58:19.821097-07:00,1786.8,607.6,1197.4,1383.9,881.4,1298.1,1488.4,1802.3,3439.5,3444.3,1379.4,1414.9,1383.0,3445.5,1192.9,1371.2,3438.2,3449.1,643.2,1324.1,878.9,533.0,1314.2,1608.7,3443.1,3445.5,1012.5,982.5,1866.4,1905.6,1744.5,1141.0,8.0,-1.0,9.0,10777.0,12243.0,1517.0,330.0,0.0,-11.0,1.0,-2.0,-5.0,3.0,8789.0,6820.0,8318.0,8689.0,-13.0,6.0,2.0,1.0
2022-05-06 12:58:19.881196-07:00,1776.2,607.6,1197.4,1383.9,895.7,1290.9,1481.0,1802.3,3439.5,3444.3,1379.4,1414.9,1377.5,3449.1,1187.6,1371.2,3438.2,3438.2,641.6,1318.7,878.9,533.0,1314.2,1604.0,3443.1,3440.7,991.9,980.7,1866.4,1905.6,1744.5,1138.4,7.0,1.0,13.0,10781.0,12239.0,1517.0,330.0,7.0,6.0,-10.0,1.0,-5.0,8.0,8791.0,6816.0,8315.0,8692.0,8.0,6.0,-2.0,1.0
2022-05-06 12:58:19.971091-07:00,1776.2,607.6,1187.6,1392.1,895.7,1290.9,1481.0,1800.3,3439.5,3438.2,1383.0,1412.2,1377.5,3449.1,1187.6,1373.9,3438.2,3438.2,641.6,1318.7,874.7,529.8,1323.2,1604.0,3439.5,3440.7,991.9,980.7,1857.6,1897.7,1740.6,1138.4,2.0,-10.0,12.0,10780.0,12240.0,1520.0,328.0,5.0,-10.0,-4.0,-1.0,-9.0,14.0,8791.0,6816.0,8315.0,8692.0,-1.0,11.0,-1.0,1.0
2022-05-06 12:58:19.972487-07:00,1778.1,607.6,1187.6,1392.1,886.5,1291.8,1487.5,1800.3,3444.3,3438.2,1383.0,1412.2,1380.3,3439.5,1188.5,1373.9,3438.2,3435.8,647.3,1324.1,874.7,529.8,1323.2,1605.8,3439.5,3449.1,984.2,982.5,1857.6,1897.7,1740.6,1131.4,8.0,10.0,6.0,10776.0,12243.0,1517.0,332.0,-2.0,14.0,6.0,-3.0,-1.0,7.0,8790.0,6813.0,8316.0,8694.0,-9.0,-6.0,4.0,1.0
2022-05-06 12:58:20.031345-07:00,1778.1,606.8,1186.7,1384.8,886.5,1291.8,1487.5,1811.9,3444.3,3435.8,1379.4,1414.9,1380.3,3439.5,1188.5,1376.6,3443.1,3435.8,647.3,1324.1,876.4,533.8,1309.7,1605.8,3446.7,3449.1,984.2,982.5,1852.8,1894.8,1742.6,1131.4,9.0,-8.0,13.0,10777.0,12242.0,1520.0,334.0,23.0,5.0,2.0,2.0,-11.0,7.0,8792.0,6812.0,8315.0,8695.0,26.0,8.0,-1.0,1.0
2022-05-06 12:58:20.061874-07:00,1775.2,597.9,1186.7,1384.8,885.6,1287.3,1480.1,1811.9,3438.2,3434.6,1379.4,1414.9,1385.7,3439.5,1187.6,1376.6,3443.1,3429.8,646.5,1322.3,876.4,533.8,1307.9,1612.4,3446.7,3444.3,985.0,974.8,1852.8,1894.8,1733.0,1125.2,5.0,-3.0,7.0,10770.0,12248.0,1521.0,334.0,14.0,1.0,0.0,-1.0,-6.0,4.0,8788.0,6814.0,8319.0,8693.0,11.0,9.0,-4.0,1.0
2022-05-06 12:58:20.121716-07:00,1775.2,597.9,1190.3,1384.8,885.6,1287.3,1472.7,1792.6,3438.2,3434.6,1383.0,1415.8,1385.7,3439.5,1183.2,1373.0,3439.5,3438.2,646.5,1322.3,875.5,528.2,1307.9,1612.4,3449.1,3441.9,985.0,974.8,1844.0,1891.8,1733.0,1125.2,0.0,-13.0,12.0,10771.0,12247.0,1524.0,332.0,-12.0,3.0,-8.0,-4.0,-16.0,17.0,8789.0,6813.0,8318.0,8693.0,-9.0,1.0,2.0,1.0
2022-05-06 12:58:20.211145-07:00,1772.3,610.0,1190.3,1384.8,884.8,1287.3,1472.7,1792.6,3438.2,3441.9,1383.0,1415.8,1380.3,3447.9,1183.2,1373.0,3439.5,3438.2,640.0,1321.4,875.5,528.2,1308.8,1608.7,3449.1,3441.9,985.9,978.2,1844.0,1891.8,1732.0,1120.0,4.0,5.0,5.0,10768.0,12251.0,1515.0,331.0,22.0,-19.0,19.0,-5.0,6.0,7.0,8788.0,6815.0,8320.0,8692.0,16.0,-1.0,2.0,1.0
2022-05-06 12:58:20.212452-07:00,1772.3,610.0,1193.8,1397.6,884.8,1287.3,1480.1,1780.1,3438.2,3441.9,1379.4,1419.5,1380.3,3447.9,1185.9,1367.6,3433.4,3439.5,640.0,1321.4,869.6,530.6,1308.8,1608.7,3451.6,3443.1,985.9,978.2,1832.3,1887.9,1732.0,1120.0,4.0,0.0,10.0,10773.0,12247.0,1508.0,325.0,-21.0,-29.0,-7.0,-3.0,-6.0,8.0,8793.0,6812.0,8314.0,8695.0,-22.0,-11.0,-3.0,1.0
2022-05-06 12:58:20.271214-07:00,1771.4,613.3,1193.8,1397.6,887.3,1287.3,1480.1,1780.1,3434.6,3441.9,1379.4,1419.5,1374.8,3439.5,1185.9,1367.6,3433.4,3439.5,640.8,1318.7,869.6,530.6,1312.4,1606.8,3451.6,3443.1,982.5,977.3,1832.3,1887.9,1730.1,1127.9,9.0,-11.0,23.0,10781.0,12241.0,1506.0,318.0,-25.0,8.0,-12.0,1.0,-12.0,3.0,8800.0,6809.0,8305.0,8698.0,-13.0,3.0,2.0,1.0
2022-05-06 12:58:20.361166-07:00,1771.4,613.3,1192.0,1387.5,887.3,1288.2,1475.5,1785.8,3434.6,3441.9,1378.5,1419.5,1374.8,3443.1,1181.5,1374.8,3441.9,3438.2,635.9,1318.7,877.2,534.6,1312.4,1606.8,3444.3,3447.9,968.8,977.3,1831.3,1902.6,1730.1,1127.9,-5.0,0.0,14.0,10782.0,12239.0,1510.0,327.0,7.0,13.0,12.0,0.0,-4.0,20.0,8802.0,6808.0,8304.0,8699.0,16.0,9.0,4.0,1.0
2022-05-06 12:58:20.362619-07:00,1766.6,602.0,1190.3,1387.5,884.8,1288.2,1475.5,1785.8,3449.1,3439.5,1382.1,1419.5,1377.5,3443.1,1181.5,1374.8,3441.9,3438.2,635.9,1320.5,877.2,532.2,1310.6,1605.8,3444.3,3447.9,968.8,976.5,1831.3,1884.0,1724.4,1133.1,15.0,6.0,7.0,10782.0,12239.0,1511.0,328.0,2.0,15.0,-1.0,2.0,-2.0,-4.0,8801.0,6808.0,8305.0,8699.0,4.0,4.0,3.0,1.0
2022-05-06 12:58:20.451172-07:00,1766.6,602.0,1190.3,1393.0,884.8,1290.0,1472.7,1777.2,3449.1,3439.5,1382.1,1417.6,1377.5,3438.2,1184.1,1375.7,3439.5,3434.6,646.5,1320.5,874.7,532.2,1310.6,1605.8,3454.0,3446.7,978.2,976.5,1832.3,1884.0,1724.4,1133.1,2.0,-6.0,9.0,10779.0,12241.0,1517.0,327.0,23.0,-7.0,-5.0,-3.0,-6.0,12.0,8802.0,6807.0,8304.0,8699.0,16.0,3.0,-6.0,1.0
2022-05-06 12:58:20.453909-07:00,1781.0,602.0,1196.5,1393.0,884.8,1290.0,1472.7,1777.2,3439.5,3437.0,1373.9,1417.6,1374.8,3438.2,1184.1,1375.7,3439.5,3434.6,646.5,1320.5,874.7,532.2,1306.1,1605.8,3454.0,3446.7,978.2,974.8,1832.3,1892.8,1725.3,1126.1,0.0,-5.0,18.0,10777.0,12243.0,1516.0,325.0,-19.0,18.0,-4.0,0.0,-10.0,17.0,8802.0,6807.0,8304.0,8699.0,-13.0,8.0,5.0,1.0
2022-05-06 12:58:20.541102-07:00,1781.0,602.0,1196.5,1386.6,884.8,1286.4,1463.5,1780.1,3439.5,3437.0,1373.9,1415.8,1374.8,3444.3,1192.9,1376.6,3434.6,3434.6,639.2,1320.5,877.2,532.2,1306.1,1605.8,3443.1,3438.2,978.2,974.8,1830.4,1892.8,1725.3,1126.1,2.0,10.0,12.0,10771.0,12248.0,1517.0,326.0,54.0,5.0,-5.0,0.0,0.0,11.0,8798.0,6807.0,8309.0,8698.0,39.0,15.0,-7.0,1.0
2022-05-06 12:58:20.601181-07:00,1775.2,600.4,1185.9,1383.9,885.6,1286.4,1463.5,1780.1,3443.1,3441.9,1376.6,1411.3,1373.9,3444.3,1192.9,1376.6,3434.6,3434.6,639.2,1322.3,874.7,532.2,1316.0,1609.6,3443.1,3438.2,978.2,976.5,1828.4,1884.0,1717.7,1119.1,-5.0,-10.0,11.0,10764.0,12253.0,1524.0,330.0,14.0,26.0,16.0,-4.0,-8.0,17.0,8794.0,6805.0,8314.0,8700.0,20.0,16.0,-3.0,1.0
2022-05-06 12:58:20.603085-07:00,1775.2,600.4,1185.9,1383.9,889.8,1281.0,1470.9,1775.2,3443.1,3441.9,1376.6,1411.3,1373.0,3435.8,1191.2,1374.8,3443.1,3449.1,640.8,1319.6,874.7,532.2,1316.0,1609.6,3444.3,3443.1,973.9,973.9,1828.4,1884.0,1717.7,1119.1,7.0,3.0,4.0,10757.0,12260.0,1523.0,334.0,-2.0,-8.0,-7.0,-1.0,-3.0,1.0,8791.0,6805.0,8317.0,8699.0,-3.0,0.0,-6.0,1.0
2022-05-06 12:58:20.661212-07:00,1774.3,598.7,1185.9,1395.7,889.8,1281.0,1470.9,1775.2,3446.7,3441.9,1377.5,1414.9,1373.0,3435.8,1191.2,1374.8,3443.1,3449.1,640.8,1319.6,874.7,527.4,1314.2,1604.9,3444.3,3443.1,973.9,973.9,1826.5,1873.2,1723.4,1118.2,5.0,5.0,10.0,10756.0,12260.0,1522.0,333.0,14.0,4.0,-15.0,-6.0,1.0,14.0,8792.0,6805.0,8317.0,8699.0,8.0,-3.0,-9.0,1.0
2022-05-06 12:58:20.721122-07:00,1774.3,598.7,1185.9,1395.7,892.4,1288.2,1471.8,1773.3,3446.7,3441.9,1377.5,1414.9,1383.9,3437.0,1185.0,1379.4,3449.1,3434.6,640.8,1313.3,874.7,527.4,1314.2,1604.9,3449.1,3439.5,975.6,969.6,1826.5,1873.2,1723.4,1118.2,-3.0,-4.0,22.0,10759.0,12257.0,1526.0,329.0,-3.0,2.0,3.0,-1.0,-10.0,19.0,8795.0,6800.0,8313.0,8702.0,-6.0,3.0,2.0,1.0
2022-05-06 12:58:20.751193-07:00,1774.3,602.0,1177.9,1388.5,892.4,1288.2,1471.8,1773.3,3440.7,3446.7,1384.8,1414.9,1383.9,3437.0,1185.0,1379.4,3449.1,3434.6,640.8,1313.3,873.8,529.8,1316.0,1604.9,3449.1,3439.5,975.6,969.6,1815.8,1879.1,1722.4,1123.5,15.0,16.0,8.0,10760.0,12258.0,1520.0,329.0,-1.0,2.0,-10.0,4.0,7.0,4.0,8796.0,6799.0,8312.0,8703.0,0.0,-5.0,-7.0,1.0
2022-05-06 12:58:20.811167-07:00,1774.3,602.0,1177.9,1388.5,884.8,1272.1,1472.7,1772.3,3440.7,3446.7,1384.8,1414.9,1386.6,3434.6,1185.0,1373.9,3437.0,3435.8,643.2,1317.8,873.8,529.8,1316.0,1604.9,3441.9,3432.2,975.6,973.9,1815.8,1879.1,1722.4,1123.5,1.0,-13.0,15.0,10765.0,12252.0,1527.0,323.0,-3.0,5.0,-3.0,-3.0,-11.0,10.0,8801.0,6794.0,8307.0,8708.0,-7.0,0.0,-3.0,1.0
2022-05-06 12:58:20.871120-07:00,1776.2,598.7,1184.1,1383.0,884.8,1272.1,1472.7,1775.2,3445.5,3435.8,1383.0,1415.8,1386.6,3434.6,1185.0,1383.0,3441.9,3435.8,643.2,1317.8,877.2,532.2,1315.1,1604.0,3440.7,3432.2,975.6,973.9,1812.9,1879.1,1722.4,1129.6,9.0,-3.0,18.0,10764.0,12253.0,1526.0,322.0,3.0,-4.0,-2.0,-4.0,-8.0,2.0,8801.0,6793.0,8307.0,8708.0,7.0,-1.0,3.0,1.0
2022-05-06 12:58:20.931131-07:00,1778.1,598.7,1184.1,1383.0,885.6,1283.7,1465.4,1775.2,3435.8,3435.8,1383.0,1415.8,1378.5,3444.3,1187.6,1383.0,3441.9,3440.7,640.8,1316.0,877.2,532.2,1315.1,1608.7,3440.7,3440.7,967.9,976.5,1812.9,1879.1,1722.4,1120.0,2.0,7.0,11.0,10764.0,12252.0,1530.0,327.0,0.0,15.0,-6.0,0.0,1.0,19.0,8802.0,6792.0,8306.0,8708.0,10.0,8.0,1.0,1.0
2022-05-06 12:58:20.991263-07:00,1778.1,598.7,1185.0,1394.8,885.6,1283.7,1465.4,1766.6,3435.8,3451.6,1379.4,1413.1,1378.5,3444.3,1187.6,1373.9,3438.2,3440.7,640.8,1316.0,875.5,533.0,1314.2,1608.7,3435.8,3440.7,967.9,976.5,1810.0,1877.2,1713.8,1120.0,4.0,-1.0,7.0,10764.0,12252.0,1529.0,326.0,2.0,-10.0,2.0,0.0,-4.0,0.0,8803.0,6792.0,8306.0,8708.0,1.0,-4.0,-1.0,1.0
2022-05-06 12:58:21.081111-07:00,1772.3,598.7,1185.0,1394.8,887.3,1275.6,1469.0,1766.6,3444.3,3451.6,1379.4,1413.1,1378.5,3438.2,1189.4,1373.9,3438.2,3438.2,646.5,1313.3,875.5,533.0,1314.2,1612.4,3435.8,3439.5,962.8,971.3,1810.0,1877.2,1713.8,1123.5,-3.0,-1.0,14.0,10765.0,12252.0,1528.0,325.0,-2.0,1.0,7.0,-2.0,-2.0,14.0,8804.0,6791.0,8305.0,8709.0,0.0,0.0,2.0,1.0
2022-05-06 12:58:21.082471-07:00,1772.3,594.7,1185.0,1392.1,887.3,1275.6,1469.0,1766.6,3444.3,3444.3,1378.5,1416.7,1378.5,3438.2,1189.4,1375.7,3443.1,3438.2,646.5,1313.3,867.9,529.0,1317.8,1612.4,3451.6,3439.5,962.8,971.3,1803.2,1870.3,1715.8,1123.5,0.0,0.0,15.0,10765.0,12251.0,1529.0,327.0,28.0,1.0,12.0,-1.0,-7.0,13.0,8804.0,6790.0,8306.0,8709.0,18.0,12.0,1.0,1.0
2022-05-06 12:58:21.171328-07:00,1771.4,598.7,1185.0,1392.1,882.3,1273.0,1463.5,1766.6,3444.3,3447.9,1378.5,1416.7,1382.1,3443.1,1183.2,1375.7,3443.1,3437.0,640.0,1315.1,867.9,529.0,1309.7,1605.8,3451.6,3446.7,963.7,975.6,1803.2,1870.3,1710.0,1120.9,1.0,-3.0,13.0,10761.0,12255.0,1529.0,328.0,11.0,21.0,-4.0,-5.0,-5.0,10.0,8802.0,6790.0,8307.0,8708.0,6.0,12.0,3.0,1.0
2022-05-06 12:58:21.231140-07:00,1771.4,598.7,1185.0,1390.3,882.3,1273.0,1465.4,1770.4,3444.3,3447.9,1367.6,1407.6,1382.1,3443.1,1196.5,1367.6,3441.9,3435.8,640.0,1315.1,873.0,531.4,1309.7,1605.8,3444.3,3449.1,963.7,975.6,1805.2,1871.3,1710.0,1120.9,3.0,-13.0,10.0,10759.0,12257.0,1533.0,331.0,-27.0,-33.0,-2.0,-1.0,-15.0,0.0,8803.0,6788.0,8307.0,8710.0,-25.0,-8.0,7.0,1.0
2022-05-06 12:58:21.260707-07:00,1771.4,596.3,1185.0,1390.3,886.5,1281.9,1465.4,1770.4,3441.9,3435.8,1367.6,1407.6,1371.2,3443.1,1196.5,1367.6,3441.9,3435.8,644.0,1317.8,873.0,531.4,1312.4,1607.7,3444.3,3449.1,969.6,971.3,1805.2,1871.3,1710.0,1120.0,10.0,13.0,15.0,10758.0,12258.0,1524.0,330.0,-12.0,5.0,-11.0,0.0,-5.0,2.0,8803.0,6790.0,8307.0,8708.0,-12.0,-11.0,6.0,1.0
2022-05-06 12:58:21.261955-07:00,1771.4,596.3,1187.6,1385.7,886.5,1281.9,1458.0,1755.0,3441.9,3435.8,1383.0,1419.5,1371.2,3443.1,1191.2,1373.0,3439.5,3437.0,644.0,1317.8,873.8,534.6,1312.4,1607.7,3435.8,3449.1,969.6,971.3,1801.3,1869.3,1710.0,1120.0,6.0,4.0,21.0,10760.0,12256.0,1532.0,324.0,30.0,8.0,-26.0,2.0,0.0,8.0,8802.0,6792.0,8309.0,8706.0,25.0,-1.0,-8.0,1.0
2022-05-06 12:58:21.321279-07:00,1779.1,597.9,1187.6,1385.7,883.1,1283.7,1458.0,1755.0,3438.2,3446.7,1383.0,1419.5,1374.8,3449.1,1191.2,1373.0,3439.5,3437.0,647.3,1316.9,873.8,534.6,1316.0,1606.8,3435.8,3449.1,969.6,977.3,1801.3,1869.3,1711.0,1119.1,-3.0,-14.0,12.0,10761.0,12253.0,1548.0,329.0,19.0,28.0,-1.0,0.0,-11.0,11.0,8800.0,6792.0,8312.0,8706.0,26.0,13.0,9.0,1.0
2022-05-06 12:58:21.381211-07:00,1779.1,597.9,1189.4,1392.1,883.1,1283.7,1461.7,1766.6,3438.2,3446.7,1377.5,1419.5,1374.8,3449.1,1194.7,1378.5,3443.1,3435.8,647.3,1316.9,879.7,532.2,1316.0,1606.8,3449.1,3441.9,969.6,977.3,1804.2,1869.3,1711.0,1119.1,10.0,23.0,9.0,10747.0,12265.0,1545.0,342.0,57.0,19.0,24.0,2.0,3.0,2.0,8789.0,6801.0,8324.0,8698.0,40.0,8.0,3.0,1.0
2022-05-06 12:58:21.411429-07:00,1771.4,591.5,1184.1,1392.1,879.7,1278.3,1461.7,1766.6,3450.4,3440.7,1370.3,1419.5,1377.5,3428.6,1194.7,1378.5,3443.1,3435.8,642.4,1317.8,879.7,529.0,1306.1,1606.8,3449.1,3441.9,972.2,971.3,1804.2,1864.5,1708.1,1122.6,-12.0,-22.0,2.0,10749.0,12262.0,1553.0,352.0,-12.0,25.0,2.0,0.0,-14.0,27.0,8792.0,6798.0,8321.0,8701.0,-8.0,8.0,5.0,1.0
2022-05-06 12:58:21.471235-07:00,1771.4,591.5,1184.1,1388.5,879.7,1299.0,1470.0,1759.8,3450.4,3440.7,1370.3,1412.2,1377.5,3447.9,1185.0,1375.7,3446.7,3432.2,640.0,1317.8,877.2,529.0,1306.1,1606.8,3443.1,3439.5,972.2,971.3,1802.3,1864.5,1708.1,1122.6,11.0,32.0,-4.0,10736.0,12274.0,1554.0,345.0,92.0,28.0,-69.0,-1.0,5.0,-10.0,8787.0,6799.0,8318.0,8708.0,-62.0,49.0,24.0,1.0
2022-05-06 12:58:21.531165-07:00,1772.3,603.6,1185.9,1388.5,885.6,1299.0,1470.0,1759.8,3438.2,3441.9,1375.7,1412.2,1378.5,3447.9,1185.0,1375.7,3446.7,3432.2,640.0,1316.9,877.2,537.8,1304.3,1603.0,3443.1,3439.5,972.2,967.9,1802.3,1871.3,1733.9,1129.6,-5.0,-138.0,31.0,10751.0,12254.0,1609.0,306.0,-108.0,-10.0,-135.0,15.0,-86.0,36.0,8799.0,6739.0,8276.0,8781.0,-143.0,152.0,86.0,1.0
2022-05-06 12:58:21.561263-07:00,1772.3,603.6,1185.9,1389.4,885.6,1289.1,1478.3,1775.2,3438.2,3441.9,1375.7,1420.4,1378.5,3434.6,1160.3,1357.6,3439.5,3437.0,645.7,1316.9,873.8,537.8,1304.3,1603.0,3445.5,3439.5,998.7,967.9,2212.7,1871.3,1733.9,1129.6,10.0,-31.0,-36.0,10647.0,12357.0,1515.0,267.0,501.0,-402.0,270.0,-5.0,0.0,-3.0,8651.0,6804.0,8389.0,8770.0,455.0,216.0,182.0,1.0
2022-05-06 12:58:21.621675-07:00,1754.1,650.5,1184.1,1389.4,883.1,1289.1,1478.3,1775.2,3449.1,3435.8,1374.8,1420.4,1381.2,3434.6,1160.3,1357.6,3439.5,3437.0,645.7,1310.6,873.8,530.6,1293.6,1594.6,3445.5,3439.5,998.7,978.2,2212.7,1947.9,1932.1,1146.3,8.0,43.0,0.0,10508.0,12504.0,1281.0,175.0,542.0,-502.0,277.0,-13.0,6.0,-13.0,8471.0,6920.0,8505.0,8744.0,525.0,132.0,225.0,1.0
2022-05-06 12:58:21.681195-07:00,1754.1,650.5,1184.1,1386.6,882.3,1344.0,1493.0,1816.8,3449.1,3435.8,1374.8,1419.5,1379.4,3440.7,1128.7,1353.1,3438.2,3440.7,643.2,1320.5,871.3,530.6,1293.6,1594.6,3439.5,3454.0,971.3,979.9,2102.7,1947.9,1932.1,1146.3,-5.0,39.0,24.0,10335.0,12665.0,1107.0,43.0,595.0,-507.0,109.0,0.0,39.0,15.0,8305.0,7065.0,8614.0,8680.0,571.0,75.0,173.0,1.0
2022-05-06 12:58:21.711163-07:00,1748.3,658.7,1180.6,1380.3,882.3,1344.0,1493.0,1816.8,3439.5,3449.1,1374.8,1416.7,1379.4,3440.7,1128.7,1353.1,3438.2,3440.7,643.2,1320.5,877.2,533.8,1307.0,1588.0,3439.5,3454.0,971.3,979.9,1997.5,1865.4,1812.9,1140.1,11.0,48.0,64.0,10223.0,12768.0,952.0,-43.0,341.0,-157.0,184.0,-7.0,-25.0,31.0,8197.0,7160.0,8685.0,8634.0,339.0,33.0,94.0,1.0
2022-05-06 12:58:21.771271-07:00,1748.3,658.7,1180.6,1380.3,892.4,1333.2,1455.2,1820.7,3439.5,3449.1,1374.8,1416.7,1378.5,3438.2,1090.3,1336.8,3433.4,3441.9,636.7,1305.2,877.2,533.8,1307.0,1588.0,3443.1,3440.7,948.3,989.3,1997.5,1865.4,1812.9,1140.1,-12.0,-32.0,20.0,10065.0,12896.0,896.0,-49.0,382.0,-188.0,116.0,15.0,-7.0,53.0,8102.0,7247.0,8761.0,8575.0,220.0,62.0,89.0,1.0
2022-05-06 12:58:21.801139-07:00,1757.9,666.0,1189.4,1386.6,892.4,1333.2,1455.2,1820.7,3439.5,3444.3,1395.7,1414.9,1378.5,3438.2,1090.3,1336.8,3433.4,3441.9,636.7,1305.2,874.7,533.0,1431.4,1581.4,3443.1,3440.7,948.3,989.3,1933.1,1797.4,1692.9,1128.7,-17.0,37.0,-16.0,9939.0,13006.0,706.0,-71.0,452.0,-248.0,380.0,-15.0,-1.0,-18.0,7995.0,7318.0,8835.0,8539.0,366.0,82.0,113.0,1.0
2022-05-06 12:58:21.861139-07:00,1757.9,666.0,1189.4,1386.6,884.8,1376.6,1412.2,1745.4,3439.5,3444.3,1395.7,1414.9,1371.2,3433.4,1076.4,1341.3,3438.2,3440.7,640.0,1303.4,874.7,533.0,1431.4,1581.4,3445.5,3446.7,915.2,1108.6,1933.1,1797.4,1692.9,1128.7,1.0,33.0,-35.0,9784.0,13129.0,554.0,-121.0,329.0,-365.0,103.0,-7.0,30.0,0.0,7907.0,7393.0,8894.0,8494.0,136.0,29.0,70.0,1.0
2022-05-06 12:58:21.921691-07:00,1904.6,688.9,1177.9,1384.8,884.8,1376.6,1412.2,1664.4,3438.2,3445.5,1397.6,1418.6,1371.2,3433.4,1076.4,1333.2,3428.6,3440.7,640.0,1303.4,872.1,537.8,1608.7,1588.0,3441.9,3446.7,915.2,1108.6,1881.1,1758.9,1609.6,1121.7,1.0,-11.0,2.0,9754.0,13155.0,421.0,-253.0,72.0,-405.0,121.0,-4.0,-7.0,6.0,7901.0,7403.0,8882.0,8504.0,-4.0,-26.0,43.0,1.0
2022-05-06 12:58:21.951637-07:00,1978.6,688.9,1177.9,1384.8,882.3,1366.6,1378.5,1664.4,3440.7,3445.5,1397.6,1418.6,1377.5,3440.7,1068.6,1333.2,3428.6,3444.3,641.6,1303.4,872.1,537.8,1608.7,1580.5,3441.9,3443.1,896.6,1147.1,1881.1,1758.9,1609.6,1121.7,9.0,0.0,24.0,9771.0,13144.0,255.0,-375.0,-61.0,-510.0,130.0,-9.0,-8.0,-5.0,7914.0,7409.0,8850.0,8521.0,-91.0,-51.0,50.0,1.0
2022-05-06 12:58:22.011157-07:00,1978.6,701.1,1172.6,1384.8,882.3,1366.6,1378.5,1596.4,3440.7,3437.0,1393.0,1420.4,1377.5,3440.7,1068.6,1330.5,3438.2,3444.3,641.6,1303.4,874.7,533.0,1617.1,1580.5,3444.3,3443.1,896.6,1147.1,1850.8,1730.1,1573.9,1121.7,-1.0,27.0,47.0,9776.0,13137.0,141.0,-510.0,-2.0,-302.0,-33.0,2.0,4.0,33.0,7933.0,7416.0,8812.0,8536.0,-81.0,-47.0,29.0,1.0
2022-05-06 12:58:22.071229-07:00,1999.5,701.1,1172.6,1384.8,906.7,1373.9,1345.8,1596.4,3444.3,3437.0,1393.0,1420.4,1383.0,3438.2,1058.2,1330.5,3438.2,3441.9,647.3,1305.2,874.7,533.0,1617.1,1579.6,3444.3,3439.5,891.5,1154.2,1850.8,1730.1,1573.9,1107.8,15.0,-2.0,48.0,9797.0,13118.0,95.0,-605.0,-28.0,-169.0,-30.0,2.0,-20.0,-2.0,7955.0,7399.0,8783.0,8559.0,-85.0,-9.0,12.0,1.0
2022-05-06 12:58:22.101242-07:00,1999.5,698.7,1179.7,1379.4,906.7,1373.9,1345.8,1552.5,3444.3,3443.1,1388.5,1424.1,1383.0,3438.2,1058.2,1327.8,3439.5,3441.9,647.3,1305.2,873.0,530.6,1619.0,1579.6,3438.2,3439.5,891.5,1154.2,1824.6,1716.7,1557.1,1107.8,2.0,49.0,44.0,9758.0,13145.0,116.0,-645.0,147.0,29.0,-171.0,5.0,16.0,32.0,7955.0,7404.0,8789.0,8549.0,46.0,-6.0,-25.0,1.0
2022-05-06 12:58:22.161406-07:00,1986.6,698.7,1179.7,1379.4,889.8,1363.9,1337.7,1552.5,3443.1,3443.1,1388.5,1424.1,1376.6,3443.1,1047.8,1327.8,3439.5,3443.1,636.7,1299.0,873.0,530.6,1619.0,1576.8,3438.2,3444.3,890.7,1155.0,1824.6,1716.7,1557.1,1104.3,10.0,-55.0,15.0,9768.0,13135.0,171.0,-671.0,-57.0,40.0,-58.0,-6.0,-20.0,-1.0,7965.0,7382.0,8796.0,8552.0,-57.0,33.0,-32.0,1.0
2022-05-06 12:58:22.251182-07:00,1986.6,692.9,1177.9,1387.5,889.8,1363.9,1322.3,1539.4,3443.1,3439.5,1391.2,1418.6,1376.6,3443.1,1051.3,1326.8,3441.9,3433.4,636.7,1299.0,874.7,534.6,1612.4,1576.8,3449.1,3444.3,890.7,1155.0,1811.0,1711.0,1549.7,1104.3,5.0,18.0,16.0,9754.0,13147.0,184.0,-655.0,44.0,77.0,-16.0,-7.0,-6.0,0.0,7960.0,7382.0,8804.0,8548.0,33.0,-8.0,3.0,1.0
2022-05-06 12:58:22.281131-07:00,2003.5,684.8,1177.9,1387.5,884.8,1371.2,1322.3,1539.4,3437.0,3449.1,1391.2,1418.6,1379.4,3443.1,1051.3,1326.8,3441.9,3433.4,640.0,1302.5,874.7,534.6,1599.3,1578.6,3449.1,3444.3,878.0,1143.6,1811.0,1711.0,1536.6,1096.4,-4.0,-2.0,12.0,9774.0,13132.0,190.0,-657.0,-83.0,-65.0,-2.0,-1.0,-11.0,13.0,7971.0,7371.0,8795.0,8557.0,-70.0,3.0,-16.0,1.0
2022-05-06 12:58:22.341181-07:00,2003.5,684.8,1177.9,1386.6,884.8,1371.2,1313.3,1525.5,3437.0,3449.1,1390.3,1413.1,1379.4,3443.1,1041.8,1322.3,3428.6,3433.4,640.0,1302.5,873.8,533.0,1599.3,1578.6,3439.5,3439.5,878.0,1143.6,1804.2,1703.3,1536.6,1096.4,-5.0,25.0,6.0,9776.0,13129.0,191.0,-684.0,-21.0,-68.0,-86.0,-6.0,1.0,20.0,7979.0,7369.0,8791.0,8556.0,-15.0,-21.0,-20.0,1.0
2022-05-06 12:58:22.371772-07:00,1975.6,682.3,1177.9,1386.6,880.6,1355.8,1313.3,1525.5,3439.5,3441.9,1390.3,1413.1,1376.6,3441.9,1041.8,1322.3,3428.6,3433.4,640.8,1299.8,873.8,533.0,1597.4,1577.7,3439.5,3439.5,879.7,1140.1,1804.2,1703.3,1527.3,1103.4,5.0,-9.0,37.0,9790.0,13115.0,210.0,-730.0,-15.0,-37.0,-68.0,-4.0,0.0,20.0,7999.0,7355.0,8779.0,8561.0,-44.0,-5.0,-22.0,1.0
2022-05-06 12:58:22.402240-07:00,1975.6,682.3,1177.9,1379.4,880.6,1355.8,1316.9,1532.0,3439.5,3441.9,1387.5,1418.6,1376.6,3441.9,1034.9,1324.1,3439.5,3437.0,640.8,1299.8,878.9,535.4,1597.4,1577.7,3439.5,3438.2,879.7,1140.1,1799.4,1699.5,1527.3,1103.4,3.0,1.0,25.0,9795.0,13111.0,224.0,-735.0,19.0,23.0,-24.0,-6.0,0.0,21.0,8007.0,7346.0,8772.0,8568.0,3.0,-7.0,-2.0,1.0
2022-05-06 12:58:22.461689-07:00,1967.7,684.8,1173.5,1379.4,885.6,1343.1,1316.9,1532.0,3445.5,3440.7,1391.2,1418.6,1378.5,3441.9,1034.9,1324.1,3439.5,3437.0,640.8,1293.6,878.9,537.0,1594.6,1578.6,3439.5,3438.2,871.3,1126.1,1799.4,1692.9,1529.2,1098.2,5.0,-5.0,18.0,9806.0,13103.0,234.0,-733.0,-26.0,17.0,-2.0,-1.0,0.0,17.0,8011.0,7342.0,8768.0,8571.0,-23.0,2.0,1.0,1.0
2022-05-06 12:58:22.551106-07:00,1967.7,684.8,1173.5,1382.1,885.6,1331.4,1302.5,1533.8,3445.5,3440.7,1391.2,1416.7,1378.5,3435.8,1035.7,1325.9,3435.8,3439.5,647.3,1293.6,874.7,537.0,1594.6,1578.6,3446.7,3446.7,867.9,1126.1,1781.0,1692.9,1529.2,1098.2,3.0,12.0,17.0,9808.0,13102.0,246.0,-721.0,14.0,39.0,-28.0,-7.0,-5.0,6.0,8013.0,7340.0,8767.0,8573.0,4.0,-3.0,-4.0,1.0
2022-05-06 12:58:22.552503-07:00,1971.7,675.8,1187.6,1382.1,883.9,1331.4,1302.5,1533.8,3445.5,3435.8,1384.8,1416.7,1376.6,3435.8,1035.7,1325.9,3435.8,3439.5,647.3,1299.8,874.7,529.8,1585.2,1574.9,3446.7,3446.7,867.9,1119.1,1781.0,1687.2,1506.9,1090.3,8.0,-23.0,11.0,9814.0,13097.0,241.0,-737.0,-19.0,-77.0,34.0,1.0,-11.0,17.0,8018.0,7335.0,8762.0,8578.0,-30.0,-1.0,2.0,1.0
2022-05-06 12:58:22.611298-07:00,1971.7,675.8,1187.6,1383.0,883.9,1335.0,1312.4,1532.9,3445.5,3435.8,1384.8,1418.6,1376.6,3441.9,1035.7,1324.1,3435.8,3441.9,641.6,1299.8,870.5,529.8,1585.2,1574.9,3440.7,3450.4,866.3,1119.1,1777.2,1687.2,1506.9,1090.3,1.0,27.0,8.0,9809.0,13100.0,194.0,-750.0,0.0,-94.0,34.0,-15.0,5.0,1.0,8014.0,7344.0,8760.0,8575.0,12.0,-23.0,14.0,1.0
2022-05-06 12:58:22.671208-07:00,1966.7,677.4,1174.4,1383.0,889.0,1335.0,1312.4,1532.9,3450.4,3446.7,1381.2,1418.6,1380.3,3441.9,1035.7,1324.1,3435.8,3441.9,641.6,1298.1,870.5,532.2,1581.4,1579.6,3440.7,3450.4,866.3,1116.5,1777.2,1692.9,1506.9,1096.4,2.0,-7.0,40.0,9826.0,13086.0,192.0,-778.0,-43.0,-26.0,-15.0,2.0,-8.0,24.0,8030.0,7338.0,8744.0,8582.0,-43.0,-14.0,-7.0,1.0
2022-05-06 12:58:22.731093-07:00,1966.7,677.4,1174.4,1385.7,883.1,1339.5,1302.5,1525.5,3450.4,3446.7,1381.2,1418.6,1393.9,3441.9,1029.7,1325.9,3443.1,3434.6,642.4,1290.9,867.9,532.2,1581.4,1579.6,3446.7,3444.3,862.9,1115.6,1771.4,1692.9,1506.9,1096.4,8.0,12.0,30.0,9838.0,13078.0,179.0,-769.0,0.0,10.0,26.0,-6.0,0.0,12.0,8033.0,7334.0,8740.0,8586.0,9.0,2.0,9.0,1.0
2022-05-06 12:58:22.791103-07:00,1969.7,673.3,1176.2,1390.3,883.1,1339.5,1302.5,1525.5,3438.2,3435.8,1385.7,1421.3,1393.9,3441.9,1029.7,1325.9,3443.1,3434.6,642.4,1290.9,874.7,533.0,1582.4,1574.9,3446.7,3444.3,862.9,1115.6,1767.5,1682.4,1508.8,1091.2,-4.0,13.0,29.0,9835.0,13080.0,206.0,-766.0,31.0,41.0,-64.0,-3.0,5.0,28.0,8029.0,7335.0,8747.0,8581.0,22.0,20.0,-13.0,1.0
2022-05-06 12:58:22.792407-07:00,1969.7,673.3,1176.2,1390.3,892.4,1339.5,1298.1,1515.3,3438.2,3435.8,1385.7,1421.3,1373.9,3444.3,1034.0,1324.1,3438.2,3434.6,643.2,1296.3,874.7,533.0,1582.4,1574.9,3443.1,3445.5,863.7,1108.6,1767.5,1682.4,1508.8,1091.2,3.0,-9.0,4.0,9836.0,13079.0,206.0,-765.0,-2.0,-8.0,28.0,-5.0,-11.0,-5.0,8030.0,7328.0,8752.0,8583.0,9.0,2.0,-6.0,1.0
2022-05-06 12:58:22.881105-07:00,1958.8,678.2,1179.7,1382.1,892.4,1339.5,1298.1,1515.3,3433.4,3449.1,1377.5,1417.6,1373.9,3444.3,1034.0,1324.1,3438.2,3434.6,643.2,1296.3,872.1,528.2,1580.5,1573.9,3443.1,3445.5,863.7,1108.6,1757.0,1688.1,1502.3,1090.3,5.0,2.0,31.0,9842.0,13074.0,217.0,-768.0,1.0,32.0,-68.0,-1.0,-2.0,16.0,8039.0,7327.0,8745.0,8581.0,-26.0,-24.0,-11.0,1.0
2022-05-06 12:58:22.941086-07:00,1958.8,678.2,1179.7,1382.1,879.7,1338.6,1307.9,1531.0,3433.4,3449.1,1377.5,1417.6,1377.5,3439.5,1034.9,1321.4,3446.7,3435.8,636.7,1294.5,872.1,528.2,1580.5,1573.9,3449.1,3449.1,858.7,1107.8,1757.0,1688.1,1502.3,1090.3,8.0,-19.0,26.0,9839.0,13076.0,233.0,-760.0,33.0,42.0,18.0,-2.0,-15.0,19.0,8038.0,7327.0,8746.0,8581.0,26.0,14.0,6.0,1.0
2022-05-06 12:58:22.971727-07:00,1949.9,673.3,1171.8,1388.5,879.7,1338.6,1307.9,1531.0,3449.1,3438.2,1377.5,1420.4,1377.5,3439.5,1034.9,1321.4,3446.7,3435.8,636.7,1294.5,868.8,533.0,1576.8,1579.6,3449.1,3449.1,858.7,1107.8,1753.1,1670.1,1492.1,1092.1,3.0,11.0,13.0,9839.0,13078.0,250.0,-717.0,-22.0,130.0,13.0,-2.0,1.0,11.0,8033.0,7332.0,8749.0,8580.0,-6.0,-5.0,11.0,1.0
2022-05-06 12:58:23.061113-07:00,1960.8,673.3,1171.8,1388.5,881.4,1326.8,1306.1,1523.6,3438.2,3438.2,1377.5,1420.4,1376.6,3438.2,1028.0,1325.9,3438.2,3440.7,643.2,1296.3,868.8,533.0,1576.8,1571.1,3443.1,3435.8,858.7,1107.8,1753.1,1670.1,1492.1,1087.7,6.0,9.0,4.0,9829.0,13086.0,258.0,-716.0,70.0,-33.0,-27.0,-5.0,5.0,-2.0,8028.0,7334.0,8754.0,8578.0,54.0,6.0,-1.0,1.0
2022-05-06 12:58:23.121859-07:00,1960.8,666.8,1176.2,1386.6,881.4,1326.8,1306.1,1521.8,3438.2,3433.4,1383.9,1422.2,1376.6,3438.2,1028.0,1325.9,3435.8,3440.7,643.2,1296.3,868.8,533.0,1568.3,1571.1,3440.7,3435.8,858.7,1107.8,1752.1,1681.4,1488.4,1087.7,9.0,-10.0,16.0,9826.0,13088.0,250.0,-721.0,-7.0,-6.0,15.0,-9.0,-11.0,7.0,8028.0,7339.0,8754.0,8572.0,-4.0,-29.0,17.0,1.0
2022-05-06 12:58:23.122804-07:00,1945.9,666.8,1176.2,1386.6,878.0,1330.5,1291.8,1521.8,3438.2,3433.4,1383.9,1422.2,1375.7,3445.5,1021.1,1325.9,3435.8,3447.9,642.4,1291.8,868.8,533.0,1568.3,1562.7,3440.7,3449.1,860.4,1092.9,1752.1,1681.4,1488.4,1089.5,-10.0,8.0,24.0,9831.0,13084.0,251.0,-727.0,20.0,-53.0,-12.0,-1.0,-8.0,18.0,8032.0,7341.0,8748.0,8573.0,4.0,3.0,-5.0,1.0
2022-05-06 12:58:23.181157-07:00,1945.9,667.6,1173.5,1379.4,878.0,1330.5,1291.8,1535.7,3438.2,3440.7,1380.3,1413.1,1375.7,3445.5,1021.1,1325.0,3437.0,3447.9,642.4,1291.8,867.9,537.8,1562.7,1562.7,3437.0,3449.1,860.4,1092.9,1736.8,1672.9,1492.1,1089.5,11.0,2.0,18.0,9828.0,13086.0,239.0,-741.0,-9.0,-19.0,-13.0,0.0,-7.0,2.0,8030.0,7344.0,8751.0,8570.0,-4.0,-7.0,-2.0,1.0
2022-05-06 12:58:23.211087-07:00,1945.0,667.6,1173.5,1379.4,888.2,1326.8,1295.4,1535.7,3440.7,3440.7,1380.3,1413.1,1373.9,3443.1,1018.5,1325.0,3437.0,3428.6,644.0,1292.7,867.9,537.8,1562.7,1571.1,3437.0,3438.2,852.0,1101.7,1736.8,1672.9,1492.1,1092.1,-8.0,-1.0,27.0,9836.0,13080.0,246.0,-741.0,12.0,6.0,10.0,-4.0,-5.0,23.0,8035.0,7341.0,8746.0,8573.0,14.0,7.0,2.0,1.0
2022-05-06 12:58:23.241262-07:00,1945.0,675.0,1179.7,1386.6,888.2,1326.8,1284.6,1535.7,3440.7,3428.6,1371.2,1414.9,1373.9,3443.1,1016.8,1325.0,3440.7,3439.5,644.0,1292.7,872.1,532.2,1564.6,1571.1,3439.5,3449.1,852.0,1101.7,1735.8,1672.9,1490.3,1092.1,9.0,10.0,12.0,9823.0,13089.0,246.0,-746.0,39.0,8.0,-39.0,-2.0,6.0,7.0,8027.0,7348.0,8756.0,8564.0,41.0,3.0,-1.0,1.0
2022-05-06 12:58:23.300943-07:00,1946.9,666.8,1179.7,1386.6,887.3,1329.6,1284.6,1535.7,3438.2,3443.1,1371.2,1414.9,1383.0,3449.1,1016.8,1325.0,3440.7,3439.5,640.8,1292.7,872.1,532.2,1561.8,1576.8,3439.5,3449.1,850.3,1097.3,1735.8,1672.9,1491.2,1091.2,-9.0,-4.0,28.0,9824.0,13088.0,269.0,-734.0,2.0,97.0,5.0,-6.0,-4.0,27.0,8027.0,7348.0,8757.0,8563.0,16.0,6.0,2.0,1.0
2022-05-06 12:58:23.361111-07:00,1946.9,666.8,1175.3,1383.9,887.3,1329.6,1281.0,1529.2,3438.2,3443.1,1380.3,1414.0,1383.0,3449.1,1022.8,1325.0,3431.0,3433.4,640.8,1292.7,872.1,531.4,1561.8,1576.8,3437.0,3441.9,850.3,1097.3,1736.8,1667.2,1491.2,1091.2,3.0,19.0,7.0,9815.0,13097.0,282.0,-708.0,86.0,26.0,-28.0,-3.0,6.0,6.0,8016.0,7356.0,8767.0,8556.0,70.0,13.0,-6.0,1.0
2022-05-06 12:58:23.421141-07:00,1952.9,668.4,1175.3,1383.9,889.0,1320.5,1281.0,1529.2,3435.8,3439.5,1380.3,1414.0,1382.1,3438.2,1022.8,1325.0,3431.0,3433.4,641.6,1297.2,872.1,531.4,1559.0,1572.1,3437.0,3441.9,847.0,1095.6,1736.8,1667.2,1481.0,1081.6,2.0,-10.0,6.0,9799.0,13108.0,294.0,-718.0,-30.0,-46.0,6.0,-4.0,2.0,13.0,8015.0,7355.0,8775.0,8550.0,-29.0,-2.0,-18.0,1.0
2022-05-06 12:58:23.451169-07:00,1952.9,668.4,1176.2,1386.6,889.0,1320.5,1289.1,1514.3,3435.8,3439.5,1383.0,1420.4,1382.1,3438.2,1017.6,1319.6,3433.4,3443.1,641.6,1297.2,872.1,529.0,1559.0,1572.1,3440.7,3443.1,847.0,1095.6,1731.1,1669.1,1481.0,1081.6,4.0,12.0,9.0,9805.0,13103.0,290.0,-732.0,6.0,-18.0,-48.0,-5.0,3.0,9.0,8022.0,7356.0,8770.0,8548.0,3.0,-28.0,-3.0,1.0
2022-05-06 12:58:23.511234-07:00,1950.9,661.1,1176.2,1386.6,895.7,1332.3,1289.1,1514.3,3438.2,3440.7,1383.0,1420.4,1376.6,3439.5,1017.6,1319.6,3433.4,3443.1,644.9,1296.3,872.1,529.0,1559.0,1574.9,3440.7,3443.1,837.7,1091.2,1731.1,1669.1,1474.6,1079.9,0.0,-16.0,26.0,9821.0,13090.0,300.0,-743.0,-44.0,-17.0,15.0,-5.0,-14.0,22.0,8036.0,7348.0,8756.0,8556.0,-36.0,-7.0,1.0,1.0
2022-05-06 12:58:23.541635-07:00,1950.9,661.1,1182.3,1382.1,895.7,1327.8,1288.2,1528.3,3438.2,3440.7,1375.7,1412.2,1376.6,3440.7,1021.1,1325.0,3433.4,3432.2,642.4,1296.3,871.3,529.8,1559.0,1574.9,3446.7,3441.9,841.1,1091.2,1724.4,1667.2,1474.6,1079.9,9.0,19.0,20.0,9821.0,13090.0,293.0,-741.0,12.0,33.0,-37.0,-1.0,3.0,9.0,8033.0,7352.0,8760.0,8552.0,9.0,5.0,-2.0,1.0
2022-05-06 12:58:23.601748-07:00,1954.8,668.4,1170.9,1382.1,884.8,1327.8,1288.2,1528.3,3438.2,3433.4,1373.0,1412.2,1380.3,3440.7,1021.1,1325.0,3433.4,3432.2,642.4,1292.7,871.3,531.4,1559.9,1566.5,3446.7,3441.9,841.1,1093.8,1724.4,1662.5,1470.0,1080.8,4.0,-23.0,14.0,9818.0,13092.0,309.0,-739.0,40.0,3.0,19.0,3.0,-22.0,13.0,8030.0,7350.0,8762.0,8553.0,39.0,14.0,8.0,1.0
2022-05-06 12:58:23.661702-07:00,1954.8,668.4,1170.9,1380.3,884.8,1317.8,1270.3,1537.6,3438.2,3433.4,1373.0,1425.0,1380.3,3441.9,1017.6,1319.6,3439.5,3439.5,642.4,1292.7,867.9,531.4,1559.9,1566.5,3445.5,3444.3,841.1,1093.8,1727.2,1662.5,1470.0,1080.8,2.0,11.0,6.0,9810.0,13099.0,303.0,-730.0,-12.0,16.0,9.0,-9.0,6.0,1.0,8026.0,7355.0,8765.0,8550.0,-6.0,-2.0,6.0,1.0
2022-05-06 12:58:23.691162-07:00,1935.1,660.3,1173.5,1380.3,882.3,1317.8,1270.3,1537.6,3438.2,3428.6,1379.4,1425.0,1383.0,3441.9,1017.6,1319.6,3439.5,3439.5,642.4,1297.2,867.9,529.8,1553.4,1572.1,3445.5,3444.3,841.1,1091.2,1727.2,1660.6,1465.4,1088.6,2.0,0.0,14.0,9819.0,13092.0,304.0,-730.0,-16.0,-21.0,1.0,-3.0,-9.0,9.0,8032.0,7350.0,8760.0,8554.0,0.0,-4.0,-10.0,1.0
2022-05-06 12:58:23.751853-07:00,1935.1,660.3,1173.5,1374.8,882.3,1325.0,1289.1,1515.3,3438.2,3428.6,1379.4,1419.5,1383.0,3451.6,1020.2,1321.4,3439.5,3439.5,641.6,1297.2,869.6,529.8,1553.4,1572.1,3435.8,3434.6,838.6,1091.2,1724.4,1660.6,1465.4,1088.6,3.0,0.0,30.0,9815.0,13095.0,306.0,-735.0,27.0,18.0,-18.0,-2.0,-7.0,13.0,8028.0,7353.0,8765.0,8549.0,15.0,11.0,4.0,1.0
2022-05-06 12:58:23.841145-07:00,1933.1,661.9,1180.6,1380.3,893.2,1325.0,1289.1,1515.3,3437.0,3439.5,1383.0,1416.7,1377.5,3451.6,1020.2,1321.4,3439.5,3439.5,641.6,1290.9,867.9,534.6,1556.2,1572.1,3435.8,3434.6,838.6,1094.7,1722.4,1664.4,1480.1,1082.5,0.0,7.0,6.0,9820.0,13091.0,317.0,-719.0,5.0,38.0,7.0,-3.0,0.0,10.0,8026.0,7352.0,8766.0,8551.0,21.0,10.0,2.0,1.0
2022-05-06 12:58:23.842936-07:00,1933.1,661.9,1180.6,1380.3,874.7,1324.1,1291.8,1523.6,3437.0,3439.5,1383.0,1416.7,1371.2,3449.1,1028.0,1322.3,3447.9,3441.9,643.2,1285.5,867.9,534.6,1556.2,1572.1,3449.1,3451.6,842.8,1092.1,1722.4,1664.4,1480.1,1082.5,5.0,4.0,12.0,9816.0,13094.0,322.0,-716.0,5.0,0.0,-16.0,1.0,-5.0,0.0,8023.0,7354.0,8769.0,8549.0,2.0,-6.0,0.0,1.0
2022-05-06 12:58:23.901074-07:00,1935.1,657.0,1179.7,1388.5,874.7,1324.1,1291.8,1523.6,3447.9,3440.7,1376.6,1421.3,1371.2,3449.1,1028.0,1322.3,3447.9,3441.9,643.2,1285.5,871.3,528.2,1559.0,1569.3,3449.1,3451.6,842.8,1092.1,1711.9,1661.5,1477.3,1084.2,0.0,-7.0,18.0,9818.0,13093.0,319.0,-714.0,-18.0,-1.0,29.0,-7.0,-4.0,11.0,8024.0,7353.0,8769.0,8549.0,-9.0,2.0,4.0,1.0
2022-05-06 12:58:23.991145-07:00,1935.1,657.0,1179.7,1388.5,889.8,1323.2,1288.2,1519.0,3447.9,3440.7,1376.6,1421.3,1374.8,3435.8,1017.6,1319.6,3444.3,3433.4,640.0,1296.3,871.3,528.2,1559.0,1569.3,3454.0,3444.3,835.2,1091.2,1711.9,1661.5,1477.3,1084.2,4.0,11.0,12.0,9819.0,13093.0,312.0,-702.0,34.0,18.0,-7.0,-2.0,-1.0,10.0,8022.0,7356.0,8772.0,8546.0,19.0,-3.0,-4.0,1.0
2022-05-06 12:58:23.992380-07:00,1946.9,663.6,1173.5,1380.3,889.8,1323.2,1288.2,1519.0,3437.0,3449.1,1383.0,1430.5,1374.8,3435.8,1017.6,1319.6,3444.3,3433.4,640.0,1296.3,868.8,532.2,1551.5,1570.2,3454.0,3444.3,835.2,1091.2,1714.8,1659.6,1472.7,1082.5,8.0,-14.0,19.0,9822.0,13090.0,326.0,-700.0,-54.0,35.0,-12.0,-3.0,-3.0,11.0,8026.0,7351.0,8767.0,8551.0,-35.0,2.0,1.0,1.0
2022-05-06 12:58:24.081366-07:00,1939.0,663.6,1173.5,1380.3,881.4,1324.1,1288.2,1519.0,3443.1,3449.1,1383.0,1430.5,1377.5,3438.2,1011.6,1322.3,3449.1,3434.6,639.2,1289.1,868.8,532.2,1551.5,1569.3,3450.4,3444.3,836.9,1086.0,1714.8,1659.6,1472.7,1091.2,0.0,3.0,15.0,9826.0,13089.0,333.0,-677.0,24.0,52.0,24.0,-2.0,-4.0,11.0,8026.0,7352.0,8768.0,8549.0,21.0,-1.0,6.0,1.0
2022-05-06 12:58:24.141206-07:00,1939.0,659.5,1175.3,1383.9,881.4,1324.1,1288.2,1506.0,3443.1,3443.1,1375.7,1420.4,1377.5,3438.2,1011.6,1315.1,3443.1,3434.6,639.2,1289.1,870.5,533.0,1548.7,1569.3,3446.7,3444.3,836.9,1086.0,1711.9,1664.4,1469.0,1091.2,1.0,11.0,6.0,9824.0,13091.0,341.0,-669.0,10.0,6.0,-23.0,2.0,-14.0,12.0,8023.0,7354.0,8770.0,8548.0,12.0,11.0,7.0,1.0
2022-05-06 12:58:24.144349-07:00,1930.2,659.5,1175.3,1383.9,882.3,1313.3,1290.9,1506.0,3438.2,3443.1,1375.7,1420.4,1383.0,3441.9,1013.3,1315.1,3443.1,3438.2,642.4,1289.1,870.5,533.0,1548.7,1574.9,3446.7,3445.5,837.7,1092.1,1711.9,1664.4,1469.0,1079.9,1.0,-7.0,17.0,9825.0,13089.0,346.0,-675.0,-30.0,8.0,-8.0,-6.0,-6.0,8.0,8024.0,7353.0,8772.0,8547.0,-23.0,-3.0,-8.0,1.0
2022-05-06 12:58:24.201129-07:00,1930.2,666.8,1177.0,1383.0,882.3,1313.3,1290.9,1511.5,3438.2,3443.1,1376.6,1413.1,1383.0,3441.9,1013.3,1316.0,3441.9,3438.2,642.4,1289.1,869.6,537.0,1554.3,1574.9,3435.8,3445.5,837.7,1092.1,1708.1,1654.9,1470.9,1079.9,3.0,16.0,13.0,9822.0,13091.0,345.0,-673.0,63.0,-19.0,-9.0,-7.0,7.0,7.0,8025.0,7352.0,8771.0,8547.0,45.0,6.0,-10.0,1.0
2022-05-06 12:58:24.291061-07:00,1927.2,666.8,1177.0,1383.0,893.2,1313.3,1290.9,1511.5,3440.7,3443.1,1376.6,1413.1,1367.6,3445.5,1014.2,1316.0,3441.9,3445.5,641.6,1288.2,869.6,537.0,1554.3,1570.2,3435.8,3458.9,835.2,1099.0,1708.1,1654.9,1470.9,1076.4,-3.0,-16.0,8.0,9821.0,13092.0,354.0,-675.0,-40.0,33.0,-7.0,0.0,-9.0,15.0,8024.0,7353.0,8778.0,8540.0,-32.0,6.0,-7.0,1.0
2022-05-06 12:58:24.321696-07:00,1927.2,661.1,1174.4,1378.5,893.2,1313.3,1290.9,1517.1,3440.7,3451.6,1376.6,1425.0,1367.6,3445.5,1014.2,1315.1,3438.2,3445.5,641.6,1288.2,861.2,526.6,1550.6,1570.2,3443.1,3458.9,835.2,1099.0,1709.1,1649.2,1470.9,1076.4,-2.0,10.0,17.0,9819.0,13094.0,357.0,-669.0,29.0,18.0,-17.0,-3.0,-3.0,12.0,8024.0,7353.0,8778.0,8539.0,12.0,-2.0,-1.0,1.0
2022-05-06 12:58:24.351259-07:00,1926.2,661.9,1174.4,1378.5,885.6,1313.3,1280.1,1517.1,3438.2,3440.7,1376.6,1425.0,1371.2,3438.2,1013.3,1315.1,3438.2,3441.9,644.0,1291.8,861.2,526.6,1546.9,1571.1,3443.1,3437.0,833.6,1089.5,1709.1,1649.2,1464.4,1079.9,9.0,0.0,15.0,9815.0,13096.0,361.0,-672.0,21.0,0.0,0.0,-3.0,-5.0,0.0,8025.0,7350.0,8781.0,8539.0,20.0,12.0,-9.0,1.0
2022-05-06 12:58:24.411187-07:00,1926.2,661.9,1174.4,1386.6,885.6,1313.3,1283.7,1515.3,3438.2,3440.7,1374.8,1421.3,1371.2,3438.2,1008.2,1316.0,3439.5,3438.2,644.0,1291.8,869.6,531.4,1546.9,1571.1,3449.1,3439.5,833.6,1089.5,1702.4,1653.9,1464.4,1079.9,2.0,-8.0,10.0,9814.0,13097.0,364.0,-667.0,-20.0,5.0,0.0,-4.0,-4.0,9.0,8022.0,7351.0,8783.0,8538.0,-16.0,5.0,0.0,1.0
2022-05-06 12:58:24.441194-07:00,1931.1,652.2,1174.4,1386.6,880.6,1316.0,1283.7,1515.3,3439.5,3438.2,1374.8,1421.3,1381.2,3446.7,1008.2,1316.0,3439.5,3438.2,643.2,1284.6,869.6,531.4,1545.0,1573.0,3449.1,3439.5,830.2,1084.2,1702.4,1653.9,1460.8,1078.2,-1.0,-2.0,9.0,9820.0,13094.0,352.0,-659.0,19.0,-14.0,54.0,-6.0,-3.0,7.0,8025.0,7348.0,8779.0,8542.0,24.0,1.0,11.0,1.0
2022-05-06 12:58:24.531213-07:00,1931.1,652.2,1170.9,1391.2,880.6,1316.0,1287.3,1511.5,3439.5,3438.2,1376.6,1419.5,1381.2,3446.7,1011.6,1307.9,3431.0,3428.6,643.2,1284.6,868.8,530.6,1545.0,1573.0,3438.2,3445.5,830.2,1084.2,1698.6,1653.9,1460.8,1078.2,-2.0,16.0,19.0,9818.0,13096.0,341.0,-658.0,-8.0,-15.0,-16.0,-3.0,9.0,16.0,8021.0,7352.0,8781.0,8541.0,-16.0,-4.0,-7.0,1.0
2022-05-06 12:58:24.561173-07:00,1921.3,655.4,1170.9,1391.2,881.4,1314.2,1287.3,1511.5,3428.6,3445.5,1376.6,1419.5,1376.6,3433.4,1011.6,1307.9,3431.0,3428.6,643.2,1288.2,868.8,530.6,1547.8,1566.5,3438.2,3445.5,832.7,1089.5,1698.6,1653.9,1458.9,1076.4,7.0,-12.0,23.0,9825.0,13091.0,337.0,-655.0,-7.0,17.0,46.0,-1.0,-7.0,0.0,8025.0,7348.0,8777.0,8545.0,6.0,6.0,-5.0,1.0
2022-05-06 12:58:24.591125-07:00,1921.3,655.4,1176.2,1384.8,881.4,1295.4,1286.4,1506.9,3428.6,3445.5,1379.4,1426.8,1376.6,3446.7,1007.3,1318.7,3439.5,3435.8,640.0,1288.2,867.1,527.4,1547.8,1566.5,3438.2,3445.5,831.1,1089.5,1700.5,1643.5,1458.9,1076.4,2.0,15.0,33.0,9843.0,13079.0,343.0,-612.0,-73.0,143.0,47.0,-9.0,1.0,7.0,8030.0,7345.0,8772.0,8548.0,-47.0,-16.0,-16.0,1.0
2022-05-06 12:58:24.651074-07:00,1929.2,661.9,1170.0,1384.8,883.9,1295.4,1286.4,1506.9,3444.3,3443.1,1371.2,1426.8,1374.8,3446.7,1007.3,1318.7,3439.5,3435.8,640.0,1287.3,867.1,533.0,1545.0,1571.1,3438.2,3445.5,831.1,1082.5,1700.5,1666.3,1494.9,1079.0,-21.0,63.0,24.0,9905.0,13038.0,340.0,-483.0,-375.0,297.0,302.0,-12.0,28.0,0.0,8053.0,7329.0,8764.0,8548.0,-198.0,-56.0,-53.0,1.0
2022-05-06 12:58:24.711205-07:00,1929.2,661.9,1170.0,1378.5,883.9,1316.9,1459.8,1704.3,3444.3,3443.1,1371.2,1417.6,1374.8,3441.9,1027.1,1316.9,3433.4,3440.7,633.5,1287.3,869.6,533.0,1545.0,1571.1,3450.4,3439.5,852.0,1082.5,1705.3,1666.3,1494.9,1079.0,41.0,-27.0,-13.0,10172.0,12836.0,328.0,-310.0,-811.0,228.0,162.0,-4.0,-52.0,-44.0,8175.0,7246.0,8647.0,8621.0,-562.0,-144.0,-49.0,1.0
2022-05-06 12:58:24.771255-07:00,1939.0,670.1,1192.0,1378.5,884.8,1316.9,1459.8,1704.3,3450.4,3428.6,1376.6,1417.6,1375.7,3441.9,1027.1,1316.9,3433.4,3440.7,633.5,1286.4,869.6,530.6,1547.8,1565.5,3450.4,3439.5,852.0,1090.3,1705.3,1757.9,1679.5,1076.4,-15.0,8.0,46.0,10257.0,12767.0,430.0,-168.0,53.0,477.0,0.0,-5.0,11.0,84.0,8272.0,7195.0,8575.0,8643.0,40.0,-72.0,-113.0,1.0
2022-05-06 12:58:24.801072-07:00,1939.0,670.1,1192.0,1383.0,884.8,1307.9,1550.6,1909.5,3450.4,3428.6,1376.6,1414.9,1375.7,3441.9,1059.1,1321.4,3449.1,3431.0,640.8,1286.4,869.6,530.6,1547.8,1565.5,3445.5,3440.7,914.4,1090.3,1718.6,1757.9,1679.5,1076.4,41.0,88.0,3.0,10318.0,12716.0,535.0,-45.0,-469.0,358.0,-137.0,-10.0,18.0,-40.0,8336.0,7162.0,8564.0,8620.0,-390.0,-125.0,-203.0,1.0
2022-05-06 12:58:24.861494-07:00,1934.1,677.4,1180.6,1383.0,883.9,1307.9,1550.6,1909.5,3449.1,3444.3,1381.2,1414.9,1382.1,3441.9,1059.1,1321.4,3449.1,3431.0,640.8,1292.7,869.6,533.8,1594.6,1567.4,3445.5,3440.7,914.4,1096.4,1718.6,1922.3,1912.4,1081.6,-54.0,-48.0,-18.0,10446.0,12597.0,798.0,23.0,-191.0,349.0,-413.0,15.0,-56.0,78.0,8478.0,7049.0,8493.0,8645.0,-198.0,-4.0,-178.0,1.0
2022-05-06 12:58:24.891737-07:00,1934.1,677.4,1180.6,1381.2,888.2,1306.1,1550.6,1904.6,3449.1,3444.3,1381.2,1419.5,1378.5,3438.2,1118.2,1339.5,3439.5,3446.7,646.5,1294.5,874.7,533.8,1594.6,1567.4,3444.3,3449.1,942.4,1112.1,1743.5,1922.3,1912.4,1081.6,65.0,-8.0,-20.0,10403.0,12622.0,944.0,-29.0,176.0,153.0,-324.0,5.0,17.0,-55.0,8520.0,7000.0,8511.0,8626.0,8.0,10.0,-110.0,1.0
2022-05-06 12:58:24.951673-07:00,1919.3,653.0,1197.4,1404.9,888.2,1306.1,1550.6,1904.6,3449.1,3444.3,1412.2,1418.6,1378.5,3438.2,1118.2,1339.5,3439.5,3446.7,646.5,1294.5,873.8,536.2,1671.9,1570.2,3444.3,3449.1,942.4,1112.1,1745.4,1986.6,1908.5,1078.2,-15.0,-14.0,-22.0,10462.0,12561.0,1093.0,-39.0,-448.0,120.0,-214.0,-6.0,-5.0,20.0,8585.0,6946.0,8474.0,8641.0,-450.0,-99.0,-53.0,1.0
2022-05-06 12:58:25.011145-07:00,1919.3,653.0,1197.4,1404.9,879.7,1304.3,1546.9,1929.2,3449.1,3444.3,1412.2,1418.6,1382.1,3432.2,1153.3,1344.9,3428.6,3445.5,648.1,1310.6,873.8,536.2,1671.9,1570.2,3446.7,3446.7,982.5,1107.8,1745.4,1986.6,1908.5,1078.2,-4.0,-26.0,12.0,10578.0,12458.0,1159.0,-20.0,-205.0,99.0,-51.0,-8.0,-12.0,6.0,8674.0,6880.0,8383.0,8693.0,-162.0,-61.0,-16.0,1.0
2022-05-06 12:58:25.041184-07:00,1902.6,649.7,1195.6,1388.5,879.7,1304.3,1546.9,1929.2,3449.1,3454.0,1426.8,1420.4,1382.1,3432.2,1153.3,1344.9,3428.6,3445.5,648.1,1310.6,875.5,535.4,1685.3,1570.2,3446.7,3446.7,982.5,1107.8,1814.9,2018.4,1864.5,1076.4,-2.0,0.0,3.0,10636.0,12404.0,1203.0,7.0,-209.0,62.0,-27.0,5.0,-5.0,20.0,8718.0,6853.0,8339.0,8713.0,-184.0,-44.0,-18.0,1.0
2022-05-06 12:58:25.101161-07:00,1902.6,649.7,1195.6,1388.5,884.8,1313.3,1535.7,1913.4,3449.1,3454.0,1426.8,1420.4,1382.1,3432.2,1176.2,1355.8,3438.2,3449.1,648.9,1317.8,875.5,535.4,1685.3,1570.2,3449.1,3439.5,1006.5,1100.8,1814.9,2018.4,1864.5,1076.4,9.0,-13.0,8.0,10689.0,12358.0,1212.0,21.0,-86.0,46.0,11.0,-3.0,-3.0,7.0,8767.0,6820.0,8290.0,8737.0,-60.0,-34.0,-21.0,1.0
2022-05-06 12:58:25.221276-07:00,1884.0,652.2,1200.0,1388.5,884.8,1313.3,1535.7,1878.1,3449.1,3438.2,1422.2,1420.4,1382.1,3432.2,1176.2,1349.4,3432.2,3449.1,648.9,1317.8,873.8,535.4,1673.8,1573.9,3437.0,3439.5,1006.5,1100.8,1936.1,1980.6,1826.5,1079.9,-10.0,14.0,1.0,10711.0,12338.0,1216.0,32.0,-92.0,11.0,12.0,0.0,8.0,29.0,8790.0,6810.0,8273.0,8738.0,-65.0,-40.0,-18.0,1.0
2022-05-06 12:58:25.281121-07:00,1889.9,652.2,1200.0,1388.5,882.3,1315.1,1519.9,1878.1,3432.2,3438.2,1422.2,1420.4,1379.4,3443.1,1178.8,1349.4,3432.2,3439.5,645.7,1333.2,873.8,535.4,1673.8,1586.1,3437.0,3443.1,1009.0,1097.3,1936.1,1980.6,1826.5,1111.2,9.0,-6.0,0.0,10741.0,12316.0,1178.0,12.0,-26.0,-138.0,35.0,2.0,-6.0,3.0,8817.0,6798.0,8247.0,8745.0,-46.0,-36.0,-8.0,1.0
2022-05-06 12:58:25.283039-07:00,1889.9,643.2,1195.6,1398.5,882.3,1315.1,1519.9,1867.4,3432.2,3444.3,1417.6,1419.5,1379.4,3443.1,1178.8,1365.7,3433.4,3439.5,645.7,1333.2,871.3,540.2,1663.4,1586.1,3438.2,3443.1,1009.0,1097.3,2009.4,1974.6,1796.5,1111.2,13.0,-7.0,-5.0,10747.0,12317.0,1112.0,-38.0,16.0,-185.0,41.0,-7.0,-1.0,0.0,8834.0,6798.0,8228.0,8746.0,-7.0,-41.0,-1.0,1.0
2022-05-06 12:58:25.284441-07:00,1874.2,643.2,1195.6,1398.5,872.1,1317.8,1505.1,1867.4,3440.7,3444.3,1417.6,1419.5,1383.0,3437.0,1190.3,1365.7,3433.4,3437.0,643.2,1327.8,871.3,540.2,1663.4,1594.6,3438.2,3445.5,1000.5,1086.8,2009.4,1974.6,1796.5,1147.1,0.0,13.0,11.0,10755.0,12315.0,1051.0,-76.0,-36.0,-142.0,44.0,0.0,-1.0,13.0,8849.0,6805.0,8212.0,8740.0,-52.0,-58.0,8.0,1.0
2022-05-06 12:58:25.401160-07:00,1874.2,639.2,1200.0,1406.7,872.1,1317.8,1505.1,1853.7,3440.7,3428.6,1414.9,1424.1,1383.0,3437.0,1190.3,1373.0,3445.5,3437.0,643.2,1327.8,877.2,537.8,1647.3,1594.6,3438.2,3445.5,1000.5,1086.8,1955.8,1968.7,1782.0,1147.1,23.0,-11.0,35.0,10784.0,12293.0,1001.0,-111.0,-33.0,-93.0,17.0,5.0,-11.0,5.0,8876.0,6799.0,8180.0,8747.0,-22.0,-30.0,7.0,1.0
2022-05-06 12:58:25.403009-07:00,1870.3,639.2,1200.0,1406.7,883.1,1331.4,1499.5,1853.7,3445.5,3428.6,1414.9,1424.1,1384.8,3444.3,1194.7,1373.0,3445.5,3440.7,643.2,1327.8,877.2,537.8,1647.3,1606.8,3438.2,3449.1,991.9,1085.1,1955.8,1968.7,1782.0,1145.4,-1.0,11.0,20.0,10793.0,12286.0,991.0,-110.0,-27.0,2.0,9.0,2.0,-5.0,26.0,8882.0,6796.0,8173.0,8750.0,-21.0,5.0,5.0,1.0
2022-05-06 12:58:25.431428-07:00,1870.3,632.7,1195.6,1396.7,883.1,1331.4,1499.5,1844.0,3445.5,3439.5,1414.0,1424.1,1384.8,3444.3,1208.9,1375.7,3439.5,3439.5,643.2,1327.8,869.6,532.2,1633.1,1606.8,3449.1,3443.1,991.9,1085.1,1916.4,1955.8,1780.1,1145.4,2.0,-3.0,1.0,10797.0,12283.0,991.0,-111.0,26.0,5.0,2.0,-8.0,-5.0,9.0,8883.0,6789.0,8172.0,8755.0,22.0,19.0,-1.0,1.0
2022-05-06 12:58:25.491672-07:00,1876.2,630.3,1195.6,1396.7,880.6,1318.7,1499.5,1844.0,3437.0,3438.2,1414.0,1424.1,1382.1,3444.3,1208.9,1375.7,3439.5,3439.5,643.2,1333.2,869.6,532.2,1635.0,1604.9,3449.1,3443.1,1004.8,1086.0,1916.4,1955.8,1772.3,1132.2,-9.0,1.0,-3.0,10793.0,12286.0,996.0,-104.0,-33.0,-4.0,1.0,-6.0,-7.0,16.0,8882.0,6787.0,8174.0,8756.0,-18.0,-7.0,-3.0,1.0
2022-05-06 12:58:25.581171-07:00,1876.2,630.3,1195.6,1396.7,880.6,1318.7,1485.6,1841.1,3437.0,3438.2,1413.1,1420.4,1382.1,3444.3,1200.0,1367.6,3435.8,3433.4,643.2,1333.2,878.0,530.6,1635.0,1604.9,3438.2,3449.1,1004.8,1086.0,1886.9,1940.0,1772.3,1132.2,6.0,2.0,6.0,10794.0,12285.0,993.0,-108.0,3.0,1.0,0.0,-3.0,-5.0,6.0,8883.0,6786.0,8173.0,8757.0,-20.0,-5.0,6.0,1.0
2022-05-06 12:58:25.583425-07:00,1859.6,624.6,1195.6,1396.7,885.6,1309.7,1485.6,1841.1,3439.5,3444.3,1413.1,1420.4,1381.2,3435.8,1200.0,1367.6,3435.8,3433.4,640.0,1332.3,878.0,530.6,1639.8,1603.0,3438.2,3449.1,991.9,1078.2,1886.9,1940.0,1756.0,1147.1,-9.0,-2.0,9.0,10800.0,12280.0,1001.0,-105.0,-34.0,-3.0,-17.0,-2.0,-6.0,25.0,8889.0,6778.0,8166.0,8763.0,-43.0,-1.0,4.0,1.0
2022-05-06 12:58:25.641190-07:00,1859.6,624.6,1199.1,1395.7,885.6,1309.7,1485.6,1830.4,3439.5,3444.3,1404.9,1424.1,1381.2,3435.8,1193.8,1376.6,3434.6,3433.4,640.0,1332.3,874.7,532.2,1639.8,1603.0,3439.5,3451.6,991.9,1078.2,1868.4,1924.3,1756.0,1147.1,10.0,-5.0,5.0,10810.0,12271.0,997.0,-110.0,-5.0,-6.0,1.0,0.0,-13.0,9.0,8894.0,6772.0,8159.0,8769.0,6.0,0.0,3.0,1.0
2022-05-06 12:58:25.701223-07:00,1866.4,620.5,1193.8,1395.7,890.7,1310.6,1485.6,1830.4,3439.5,3444.3,1404.0,1424.1,1386.6,3445.5,1193.8,1376.6,3434.6,3433.4,643.2,1331.4,874.7,536.2,1629.4,1599.3,3439.5,3451.6,993.6,1076.4,1868.4,1918.3,1753.1,1133.1,0.0,-6.0,10.0,10810.0,12271.0,994.0,-112.0,14.0,-5.0,5.0,-2.0,-9.0,9.0,8895.0,6771.0,8159.0,8770.0,8.0,-1.0,-2.0,1.0
2022-05-06 12:58:25.731212-07:00,1866.4,620.5,1193.8,1401.2,890.7,1316.9,1483.8,1817.8,3439.5,3444.3,1404.0,1420.4,1386.6,3439.5,1192.0,1373.0,3438.2,3431.0,644.0,1331.4,873.8,536.2,1629.4,1599.3,3444.3,3444.3,986.7,1076.4,1857.6,1918.3,1753.1,1133.1,11.0,3.0,4.0,10804.0,12276.0,993.0,-113.0,12.0,-13.0,6.0,-3.0,2.0,4.0,8894.0,6771.0,8161.0,8769.0,6.0,7.0,0.0,1.0
2022-05-06 12:58:25.791538-07:00,1865.4,617.3,1194.7,1401.2,886.5,1316.9,1483.8,1817.8,3435.8,3428.6,1404.9,1420.4,1383.0,3439.5,1192.0,1373.0,3438.2,3431.0,644.0,1328.7,873.8,539.4,1619.9,1604.9,3444.3,3444.3,986.7,1072.9,1857.6,1913.4,1732.0,1127.9,-1.0,-6.0,13.0,10807.0,12274.0,996.0,-110.0,-8.0,22.0,-7.0,-4.0,-15.0,13.0,8895.0,6770.0,8160.0,8769.0,-7.0,4.0,4.0,1.0
2022-05-06 12:58:25.881227-07:00,1865.4,617.3,1194.7,1397.6,886.5,1316.0,1485.6,1820.7,3435.8,3428.6,1404.9,1421.3,1383.0,3438.2,1189.4,1375.7,3443.1,3432.2,642.4,1328.7,871.3,539.4,1619.9,1604.9,3439.5,3440.7,989.3,1072.9,1843.0,1913.4,1732.0,1127.9,6.0,8.0,4.0,10802.0,12278.0,996.0,-105.0,17.0,13.0,6.0,-1.0,-5.0,8.0,8893.0,6771.0,8163.0,8768.0,14.0,4.0,7.0,1.0
2022-05-06 12:58:25.882523-07:00,1871.3,621.4,1196.5,1397.6,878.0,1316.0,1485.6,1820.7,3449.1,3438.2,1404.0,1421.3,1384.8,3438.2,1189.4,1375.7,3443.1,3432.2,642.4,1323.2,871.3,533.8,1617.1,1601.1,3439.5,3440.7,989.3,1071.2,1843.0,1911.5,1733.9,1117.4,4.0,1.0,8.0,10805.0,12276.0,996.0,-103.0,-2.0,2.0,8.0,-4.0,-4.0,8.0,8894.0,6768.0,8161.0,8770.0,-4.0,1.0,3.0,1.0
