Time,P0,P1,P2,P3,P4,P5,P6,P7,P8,P9,P10,P11,P12,P13,P14,P15,P16,P17,P18,P19,P20,P21,P22,P23,P24,P25,P26,P27,P28,P29,P30,P31,ECG,AX0,AY0,AZ0,QW0,QX0,QY0,QZ0,GX0,GY0,GZ0,AX1,AY1,AZ1,QW1,QX1,QY1,QZ1,GX1,GY1,GZ1
2022-05-06 12:44:35.534805-07:00,1975.6,620.5,1253.3,1557.1,916.0,1250.6,1574.9,1808.1,3437.0,3443.1,1557.1,1418.6,1499.5,3439.5,978.2,1465.4,3437.0,3441.9,680.7,1325.0,893.2,545.8,1422.2,1781.0,3447.9,3437.0,683.1,1081.6,1299.8,1543.1,1227.5,984.2,3.0,8.0,10.0,7640.0,11699.0,-6553.0,-5499.0,7.0,-11.0,42.0,-1.0,5.0,7.0,9848.0,11412.0,4413.0,4664.0,11.0,-3.0,5.0,1.0
2022-05-06 12:44:35.624217-07:00,1985.6,625.4,1243.5,1550.6,916.0,1250.6,1574.9,1821.6,3449.1,3438.2,1547.8,1418.6,1499.5,3439.5,978.2,1471.8,3439.5,3441.9,680.7,1325.0,894.9,545.0,1426.8,1778.1,3440.7,3437.0,683.1,1081.6,1299.8,1543.1,1227.5,985.0,2.0,3.0,6.0,7650.0,11691.0,-6558.0,-5498.0,-24.0,4.0,17.0,-1.0,2.0,6.0,9850.0,11410.0,4412.0,4665.0,-13.0,-4.0,-2.0,1.0
2022-05-06 12:44:35.625245-07:00,1970.7,625.4,1243.5,1550.6,913.5,1236.4,1561.8,1821.6,3428.6,3438.2,1547.8,1418.6,1508.8,3434.6,979.9,1471.8,3439.5,3435.8,682.3,1329.6,894.9,545.0,1426.8,1781.0,3440.7,3445.5,680.7,1078.2,1299.8,1543.1,1227.5,982.5,3.0,9.0,11.0,7652.0,11686.0,-6565.0,-5496.0,7.0,-17.0,16.0,-4.0,7.0,6.0,9851.0,11410.0,4411.0,4664.0,6.0,-5.0,-2.0,1.0
2022-05-06 12:44:35.654356-07:00,1970.7,622.2,1247.1,1553.4,913.5,1236.4,1561.8,1807.1,3428.6,3437.0,1558.1,1421.3,1508.8,3434.6,979.9,1470.9,3444.3,3435.8,682.3,1329.6,891.5,546.6,1414.9,1781.0,3443.1,3445.5,680.7,1078.2,1291.8,1548.7,1227.5,982.5,3.0,9.0,6.0,7658.0,11681.0,-6569.0,-5495.0,-15.0,-1.0,23.0,-5.0,5.0,4.0,9851.0,11410.0,4411.0,4664.0,-5.0,-7.0,3.0,1.0
2022-05-06 12:44:35.725468-07:00,1975.6,622.2,1247.1,1553.4,927.1,1246.2,1558.1,1807.1,3446.7,3437.0,1558.1,1421.3,1494.9,3449.1,980.7,1470.9,3444.3,3432.2,679.9,1313.3,891.5,546.6,1414.9,1781.0,3443.1,3439.5,676.6,1068.6,1291.8,1548.7,1227.5,987.6,1.0,1.0,13.0,7667.0,11672.0,-6573.0,-5495.0,-36.0,-10.0,27.0,-2.0,6.0,10.0,9857.0,11407.0,4406.0,4663.0,-26.0,-12.0,6.0,1.0
2022-05-06 12:44:35.774121-07:00,1975.6,624.6,1246.2,1554.3,927.1,1246.2,1558.1,1803.2,3446.7,3449.1,1549.7,1419.5,1494.9,3449.1,980.7,1466.3,3433.4,3432.2,679.9,1313.3,897.4,553.8,1420.4,1781.0,3440.7,3439.5,676.6,1068.6,1298.1,1542.2,1229.3,987.6,2.0,20.0,7.0,7679.0,11662.0,-6581.0,-5492.0,2.0,0.0,23.0,-4.0,10.0,2.0,9861.0,11404.0,4400.0,4667.0,-5.0,-6.0,11.0,1.0
2022-05-06 12:44:35.804159-07:00,1974.6,625.4,1246.2,1554.3,916.9,1239.9,1564.6,1803.2,3435.8,3443.1,1549.7,1419.5,1497.7,3445.5,977.3,1466.3,3433.4,3437.0,679.1,1324.1,897.4,553.8,1423.1,1782.0,3440.7,3444.3,675.8,1081.6,1298.1,1542.2,1227.5,985.0,1.0,3.0,12.0,7682.0,11660.0,-6579.0,-5493.0,-4.0,-7.0,4.0,-6.0,-1.0,18.0,9866.0,11400.0,4398.0,4668.0,-4.0,-4.0,-3.0,1.0
2022-05-06 12:44:35.864459-07:00,1974.6,625.4,1240.8,1559.9,916.9,1239.9,1551.5,1809.0,3435.8,3443.1,1566.5,1422.2,1497.7,3445.5,982.5,1472.7,3446.7,3449.1,679.1,1324.1,897.4,546.6,1423.1,1782.0,3445.5,3445.5,675.8,1081.6,1300.7,1549.7,1227.5,985.0,4.0,9.0,14.0,7679.0,11662.0,-6580.0,-5491.0,3.0,6.0,-5.0,-6.0,6.0,13.0,9864.0,11401.0,4399.0,4668.0,5.0,4.0,1.0,1.0
2022-05-06 12:44:35.984967-07:00,1975.6,634.3,1240.8,1559.9,921.1,1232.8,1551.5,1809.0,3437.0,3441.9,1566.5,1422.2,1494.9,3449.1,982.5,1472.7,3446.7,3449.1,675.8,1321.4,897.4,546.6,1421.3,1773.3,3445.5,3445.5,672.5,1073.8,1300.7,1549.7,1224.8,984.2,2.0,4.0,7.0,7681.0,11661.0,-6579.0,-5492.0,0.0,5.0,4.0,-3.0,1.0,10.0,9864.0,11401.0,4399.0,4668.0,4.0,4.0,0.0,1.0
2022-05-06 12:44:35.985601-07:00,1975.6,634.3,1244.4,1554.3,921.1,1232.8,1546.9,1785.8,3437.0,3441.9,1554.3,1434.1,1494.9,3449.1,979.9,1461.7,3440.7,3433.4,675.8,1321.4,895.7,548.2,1421.3,1773.3,3437.0,3435.8,672.5,1073.8,1303.4,1549.7,1224.8,984.2,0.0,6.0,13.0,7677.0,11664.0,-6579.0,-5492.0,-1.0,-3.0,-18.0,-6.0,6.0,5.0,9862.0,11403.0,4401.0,4666.0,-7.0,-6.0,-10.0,1.0
2022-05-06 12:44:36.015151-07:00,1959.8,618.9,1244.4,1554.3,917.7,1246.2,1546.9,1785.8,3432.2,3435.8,1554.3,1434.1,1507.8,3439.5,979.9,1461.7,3440.7,3433.4,682.3,1335.0,895.7,548.2,1426.8,1772.3,3437.0,3435.8,679.1,1071.2,1303.4,1549.7,1229.3,980.7,4.0,6.0,15.0,7683.0,11658.0,-6581.0,-5494.0,-18.0,4.0,30.0,-3.0,5.0,4.0,9864.0,11401.0,4400.0,4667.0,-12.0,-4.0,3.0,1.0
2022-05-06 12:44:36.104166-07:00,1959.8,618.9,1243.5,1551.5,917.7,1246.2,1545.9,1787.8,3432.2,3435.8,1555.3,1423.1,1507.8,3439.5,974.8,1470.9,3437.0,3439.5,682.3,1335.0,894.9,549.8,1426.8,1772.3,3437.0,3438.2,679.1,1071.2,1303.4,1545.9,1229.3,980.7,4.0,13.0,11.0,7692.0,11650.0,-6587.0,-5491.0,-3.0,-5.0,19.0,-3.0,9.0,9.0,9866.0,11400.0,4399.0,4668.0,-2.0,-9.0,1.0,1.0
2022-05-06 12:44:36.105082-07:00,1963.7,623.8,1256.9,1551.5,912.7,1234.6,1545.9,1787.8,3433.4,3449.1,1556.2,1423.1,1503.2,3437.0,974.8,1470.9,3437.0,3439.5,685.6,1320.5,894.9,550.6,1427.7,1774.3,3437.0,3438.2,683.1,1075.6,1303.4,1542.2,1229.3,985.9,7.0,10.0,13.0,7691.0,11648.0,-6591.0,-5493.0,-2.0,-15.0,0.0,0.0,2.0,5.0,9866.0,11400.0,4399.0,4668.0,-5.0,-2.0,-4.0,1.0
2022-05-06 12:44:36.164349-07:00,1963.7,623.8,1256.9,1560.9,912.7,1232.8,1545.9,1786.8,3433.4,3449.1,1556.2,1418.6,1503.2,3440.7,978.2,1466.3,3439.5,3432.2,682.3,1320.5,894.1,550.6,1427.7,1774.3,3451.6,3440.7,680.7,1075.6,1307.0,1542.2,1229.3,985.9,2.0,0.0,15.0,7692.0,11645.0,-6592.0,-5497.0,-2.0,-7.0,7.0,-7.0,2.0,9.0,9867.0,11399.0,4399.0,4668.0,-3.0,-4.0,2.0,1.0
2022-05-06 12:44:36.224483-07:00,1970.7,625.4,1243.5,1560.9,916.9,1232.8,1545.9,1786.8,3435.8,3439.5,1549.7,1418.6,1499.5,3440.7,978.2,1466.3,3439.5,3432.2,682.3,1320.5,894.1,550.6,1426.8,1781.0,3451.6,3440.7,680.7,1071.2,1307.0,1545.9,1248.0,979.9,4.0,6.0,14.0,7692.0,11645.0,-6592.0,-5497.0,-7.0,-1.0,-7.0,-4.0,2.0,15.0,9867.0,11399.0,4399.0,4668.0,-9.0,-5.0,1.0,1.0
2022-05-06 12:44:36.254091-07:00,1970.7,625.4,1243.5,1554.3,916.9,1237.3,1547.8,1796.5,3435.8,3439.5,1549.7,1418.6,1499.5,3440.7,979.0,1474.6,3438.2,3428.6,683.1,1320.5,895.7,550.6,1426.8,1781.0,3452.8,3437.0,675.8,1071.2,1299.8,1545.9,1248.0,979.9,1.0,8.0,12.0,7691.0,11645.0,-6592.0,-5498.0,0.0,-17.0,5.0,-3.0,5.0,13.0,9867.0,11399.0,4399.0,4668.0,1.0,0.0,2.0,1.0
2022-05-06 12:44:36.314977-07:00,1967.7,622.2,1240.8,1554.3,915.2,1237.3,1547.8,1796.5,3449.1,3440.7,1551.5,1418.6,1496.7,3440.7,979.0,1474.6,3438.2,3428.6,683.1,1319.6,895.7,548.2,1419.5,1776.2,3452.8,3437.0,675.8,1069.5,1299.8,1540.3,1230.2,983.3,4.0,8.0,10.0,7690.0,11644.0,-6594.0,-5500.0,4.0,-8.0,4.0,-5.0,2.0,11.0,9867.0,11399.0,4399.0,4668.0,8.0,-2.0,-2.0,1.0
2022-05-06 12:44:36.374012-07:00,1967.7,622.2,1240.8,1567.4,917.7,1234.6,1542.2,1785.8,3449.1,3440.7,1551.5,1413.1,1497.7,3443.1,979.9,1470.9,3449.1,3437.0,684.8,1319.6,895.7,548.2,1419.5,1776.2,3446.7,3446.7,678.2,1063.4,1299.8,1540.3,1230.2,983.3,3.0,9.0,13.0,7687.0,11642.0,-6597.0,-5503.0,0.0,-28.0,-4.0,-4.0,4.0,12.0,9867.0,11399.0,4399.0,4668.0,-3.0,-2.0,-4.0,1.0
2022-05-06 12:44:36.494379-07:00,1964.7,628.6,1242.6,1550.6,917.7,1234.6,1542.2,1785.8,3439.5,3449.1,1572.1,1414.0,1497.7,3443.1,979.9,1470.9,3449.1,3437.0,684.8,1319.6,893.2,546.6,1413.1,1771.4,3446.7,3446.7,678.2,1063.4,1298.1,1548.7,1230.2,981.6,2.0,5.0,14.0,7686.0,11640.0,-6599.0,-5508.0,-8.0,9.0,1.0,-5.0,3.0,15.0,9868.0,11398.0,4398.0,4669.0,-1.0,0.0,2.0,1.0
2022-05-06 12:44:36.524178-07:00,1964.7,628.6,1242.6,1550.6,917.7,1239.1,1530.1,1776.2,3439.5,3449.1,1572.1,1414.0,1494.9,3431.0,984.2,1470.9,3450.4,3440.7,679.1,1325.0,893.2,546.6,1413.1,1771.4,3447.9,3449.1,675.0,1067.7,1298.1,1548.7,1230.2,981.6,3.0,7.0,8.0,7684.0,11641.0,-6600.0,-5507.0,15.0,-12.0,0.0,-2.0,4.0,11.0,9865.0,11401.0,4400.0,4667.0,11.0,1.0,-1.0,1.0
2022-05-06 12:44:36.525182-07:00,1963.7,623.0,1241.7,1554.3,917.7,1239.1,1530.1,1776.2,3440.7,3435.8,1548.7,1415.8,1494.9,3431.0,984.2,1470.9,3450.4,3440.7,679.1,1325.0,889.8,543.4,1415.8,1773.3,3447.9,3449.1,675.0,1067.7,1293.6,1551.5,1231.0,983.3,6.0,12.0,10.0,7682.0,11637.0,-6604.0,-5513.0,-37.0,-11.0,6.0,-4.0,8.0,0.0,9869.0,11398.0,4397.0,4668.0,-32.0,-5.0,1.0,1.0
2022-05-06 12:44:36.554208-07:00,1963.7,623.0,1241.7,1554.3,918.6,1238.2,1537.6,1771.4,3440.7,3435.8,1548.7,1415.8,1498.6,3433.4,976.5,1469.0,3439.5,3449.1,679.1,1313.3,889.8,543.4,1415.8,1773.3,3443.1,3441.9,672.5,1068.6,1293.6,1551.5,1231.0,983.3,4.0,-1.0,20.0,7694.0,11628.0,-6600.0,-5520.0,-23.0,-14.0,18.0,-2.0,1.0,19.0,9876.0,11393.0,4394.0,4669.0,-8.0,-5.0,9.0,1.0
2022-05-06 12:44:36.615210-07:00,1972.7,631.1,1238.2,1551.5,918.6,1238.2,1537.6,1776.2,3433.4,3443.1,1549.7,1411.3,1498.6,3433.4,976.5,1460.8,3439.5,3449.1,679.1,1313.3,894.9,549.8,1410.3,1774.3,3440.7,3441.9,672.5,1068.6,1305.2,1546.9,1226.6,990.2,8.0,15.0,12.0,7702.0,11619.0,-6607.0,-5520.0,-20.0,18.0,13.0,-5.0,5.0,3.0,9878.0,11391.0,4391.0,4671.0,-13.0,0.0,9.0,1.0
2022-05-06 12:44:36.674376-07:00,1969.7,631.1,1238.2,1551.5,918.6,1230.2,1532.0,1776.2,3445.5,3443.1,1549.7,1411.3,1504.1,3443.1,973.1,1460.8,3439.5,3440.7,682.3,1326.8,894.9,549.8,1410.3,1769.5,3440.7,3440.7,679.9,1069.5,1305.2,1546.9,1226.6,980.7,1.0,5.0,12.0,7708.0,11621.0,-6599.0,-5516.0,8.0,16.0,-12.0,-4.0,1.0,21.0,9878.0,11391.0,4391.0,4671.0,6.0,4.0,-6.0,1.0
2022-05-06 12:44:36.704139-07:00,1969.7,623.8,1236.4,1559.0,918.6,1230.2,1532.0,1768.5,3445.5,3441.9,1555.3,1411.3,1504.1,3443.1,973.1,1462.6,3433.4,3440.7,682.3,1326.8,895.7,546.6,1414.9,1769.5,3444.3,3440.7,679.9,1069.5,1303.4,1545.9,1223.9,980.7,4.0,11.0,8.0,7702.0,11627.0,-6600.0,-5510.0,0.0,7.0,-3.0,-4.0,7.0,11.0,9871.0,11396.0,4395.0,4669.0,10.0,-2.0,-7.0,1.0
2022-05-06 12:44:36.824080-07:00,1956.8,623.8,1236.4,1559.0,907.6,1235.5,1531.0,1768.5,3437.0,3441.9,1555.3,1411.3,1493.0,3445.5,975.6,1462.6,3433.4,3443.1,686.4,1324.1,895.7,546.6,1414.9,1774.3,3444.3,3443.1,679.1,1066.9,1303.4,1545.9,1223.9,980.7,2.0,7.0,12.0,7703.0,11627.0,-6600.0,-5510.0,14.0,-7.0,12.0,-8.0,1.0,12.0,9871.0,11397.0,4395.0,4668.0,10.0,-2.0,2.0,1.0
2022-05-06 12:44:36.825107-07:00,1956.8,621.4,1243.5,1552.5,907.6,1235.5,1531.0,1762.7,3437.0,3437.0,1547.8,1414.0,1493.0,3445.5,975.6,1468.1,3439.5,3443.1,686.4,1324.1,889.8,550.6,1412.2,1774.3,3444.3,3443.1,679.1,1066.9,1303.4,1545.0,1223.9,980.7,3.0,0.0,19.0,7703.0,11624.0,-6602.0,-5513.0,-10.0,-9.0,-10.0,-7.0,0.0,16.0,9873.0,11395.0,4395.0,4669.0,-16.0,-9.0,-6.0,1.0
2022-05-06 12:44:36.854069-07:00,1964.7,621.4,1243.5,1552.5,918.6,1231.0,1527.3,1762.7,3437.0,3437.0,1547.8,1414.0,1496.7,3440.7,973.9,1468.1,3439.5,3434.6,679.1,1316.9,889.8,550.6,1412.2,1769.5,3444.3,3439.5,689.7,1068.6,1303.4,1545.0,1223.9,987.6,2.0,12.0,23.0,7704.0,11625.0,-6600.0,-5511.0,2.0,18.0,2.0,-4.0,4.0,19.0,9872.0,11395.0,4395.0,4670.0,5.0,10.0,4.0,1.0
2022-05-06 12:44:36.913903-07:00,1964.7,625.4,1240.8,1547.8,918.6,1231.0,1529.2,1757.0,3437.0,3444.3,1548.7,1420.4,1496.7,3440.7,978.2,1467.2,3437.0,3443.1,679.1,1316.9,891.5,546.6,1419.5,1769.5,3443.1,3438.2,689.7,1068.6,1299.8,1536.6,1228.4,987.6,6.0,7.0,9.0,7707.0,11628.0,-6598.0,-5505.0,27.0,9.0,-7.0,-5.0,3.0,13.0,9868.0,11399.0,4397.0,4668.0,23.0,6.0,-5.0,1.0
2022-05-06 12:44:36.943855-07:00,1949.9,631.1,1240.8,1547.8,916.0,1235.5,1529.2,1757.0,3434.6,3444.3,1548.7,1420.4,1502.3,3443.1,978.2,1467.2,3437.0,3443.1,677.4,1320.5,891.5,546.6,1417.6,1776.2,3443.1,3438.2,674.2,1070.3,1299.8,1536.6,1230.2,983.3,4.0,8.0,11.0,7701.0,11630.0,-6600.0,-5505.0,3.0,-16.0,-7.0,-6.0,5.0,8.0,9866.0,11401.0,4399.0,4665.0,1.0,-11.0,-6.0,1.0
2022-05-06 12:44:37.004215-07:00,1949.9,631.1,1239.9,1556.2,916.0,1235.5,1531.0,1766.6,3434.6,3444.3,1544.1,1418.6,1502.3,3443.1,979.9,1468.1,3438.2,3435.8,677.4,1320.5,896.6,549.0,1417.6,1776.2,3435.8,3445.5,674.2,1070.3,1302.5,1544.1,1230.2,983.3,3.0,5.0,16.0,7708.0,11623.0,-6599.0,-5512.0,-16.0,2.0,9.0,-6.0,1.0,16.0,9871.0,11397.0,4397.0,4667.0,-12.0,-2.0,7.0,1.0
2022-05-06 12:44:37.064980-07:00,1956.8,618.1,1239.9,1556.2,912.7,1231.0,1531.0,1766.6,3438.2,3445.5,1544.1,1418.6,1504.1,3440.7,979.9,1468.1,3438.2,3435.8,677.4,1316.9,896.6,549.0,1410.3,1771.4,3435.8,3445.5,679.9,1072.1,1302.5,1544.1,1225.7,973.9,4.0,16.0,12.0,7712.0,11619.0,-6601.0,-5511.0,2.0,4.0,-2.0,-3.0,10.0,13.0,9870.0,11397.0,4396.0,4668.0,-2.0,-3.0,0.0,1.0
2022-05-06 12:44:37.094424-07:00,1956.8,618.1,1253.3,1551.5,912.7,1231.0,1530.1,1765.6,3438.2,3445.5,1553.4,1418.6,1504.1,3440.7,974.8,1468.1,3431.0,3450.4,677.4,1316.9,904.2,549.0,1410.3,1771.4,3441.9,3445.5,679.9,1072.1,1299.0,1550.6,1225.7,973.9,0.0,3.0,15.0,7713.0,11618.0,-6601.0,-5513.0,8.0,-13.0,0.0,-10.0,0.0,15.0,9870.0,11398.0,4396.0,4668.0,3.0,-3.0,0.0,1.0
2022-05-06 12:44:37.154019-07:00,1961.8,623.8,1234.6,1551.5,918.6,1231.0,1530.1,1765.6,3445.5,3443.1,1551.5,1418.6,1500.4,3439.5,974.8,1468.1,3431.0,3450.4,682.3,1316.9,904.2,549.0,1417.6,1771.4,3441.9,3445.5,677.4,1059.1,1299.0,1545.0,1233.7,991.9,3.0,11.0,14.0,7716.0,11616.0,-6600.0,-5515.0,-8.0,14.0,3.0,-4.0,3.0,12.0,9870.0,11398.0,4396.0,4668.0,-8.0,2.0,2.0,1.0
2022-05-06 12:44:37.214840-07:00,1961.8,623.8,1234.6,1559.9,918.6,1226.6,1521.8,1752.1,3445.5,3443.1,1551.5,1414.9,1500.4,3444.3,971.3,1466.3,3437.0,3444.3,684.8,1316.9,894.1,549.0,1417.6,1771.4,3438.2,3440.7,679.9,1059.1,1305.2,1545.0,1233.7,991.9,2.0,10.0,14.0,7720.0,11614.0,-6599.0,-5515.0,4.0,-11.0,9.0,-4.0,3.0,11.0,9870.0,11398.0,4396.0,4668.0,7.0,-2.0,4.0,1.0
2022-05-06 12:44:37.274138-07:00,1958.8,623.0,1239.1,1559.9,916.9,1226.6,1521.8,1752.1,3441.9,3441.9,1546.9,1414.9,1497.7,3444.3,971.3,1466.3,3437.0,3444.3,684.8,1322.3,894.1,547.4,1414.0,1775.2,3438.2,3440.7,679.9,1062.5,1305.2,1541.3,1215.1,980.7,5.0,10.0,17.0,7725.0,11606.0,-6604.0,-5518.0,-6.0,-6.0,14.0,-3.0,0.0,11.0,9871.0,11397.0,4394.0,4668.0,1.0,-4.0,8.0,1.0
2022-05-06 12:44:37.304194-07:00,1958.8,623.0,1239.1,1552.5,916.9,1229.3,1514.3,1755.0,3441.9,3441.9,1546.9,1419.5,1497.7,3446.7,978.2,1466.3,3437.0,3440.7,680.7,1322.3,900.8,547.4,1414.0,1775.2,3439.5,3446.7,677.4,1062.5,1307.0,1541.3,1215.1,980.7,1.0,2.0,16.0,7731.0,11607.0,-6597.0,-5516.0,7.0,23.0,-21.0,-4.0,-1.0,19.0,9871.0,11397.0,4394.0,4668.0,15.0,3.0,-7.0,1.0
2022-05-06 12:44:37.364336-07:00,1960.8,619.7,1242.6,1552.5,911.8,1229.3,1514.3,1755.0,3437.0,3441.9,1549.7,1419.5,1493.0,3446.7,978.2,1466.3,3437.0,3440.7,680.7,1320.5,900.8,547.4,1404.0,1773.3,3439.5,3446.7,677.4,1066.0,1307.0,1545.0,1221.3,973.9,1.0,7.0,8.0,7725.0,11611.0,-6598.0,-5514.0,12.0,-3.0,8.0,-10.0,8.0,11.0,9866.0,11402.0,4396.0,4666.0,-3.0,-5.0,1.0,1.0
2022-05-06 12:44:37.394554-07:00,1960.8,619.7,1242.6,1555.3,916.0,1235.5,1537.6,1757.0,3437.0,3441.9,1549.7,1419.5,1514.3,3444.3,979.0,1463.5,3439.5,3434.6,680.7,1309.7,894.1,547.4,1404.0,1773.3,3444.3,3437.0,679.9,1064.3,1300.7,1545.0,1221.3,973.9,7.0,8.0,12.0,7728.0,11609.0,-6598.0,-5515.0,16.0,-2.0,0.0,-6.0,7.0,15.0,9868.0,11400.0,4395.0,4667.0,6.0,-5.0,0.0,1.0
2022-05-06 12:44:37.454202-07:00,1961.8,627.8,1238.2,1546.9,916.0,1235.5,1537.6,1757.0,3444.3,3445.5,1544.1,1413.1,1514.3,3444.3,979.0,1463.5,3439.5,3434.6,680.7,1309.7,894.1,548.2,1412.2,1774.3,3444.3,3437.0,679.9,1064.3,1301.6,1543.1,1224.8,979.0,0.0,3.0,11.0,7731.0,11607.0,-6597.0,-5517.0,2.0,-4.0,8.0,-8.0,4.0,11.0,9868.0,11400.0,4395.0,4667.0,3.0,-3.0,-1.0,1.0
2022-05-06 12:44:37.514135-07:00,1961.8,627.8,1238.2,1546.9,910.1,1223.9,1529.2,1748.3,3444.3,3445.5,1544.1,1413.1,1493.0,3441.9,975.6,1468.1,3443.1,3438.2,679.1,1317.8,894.1,548.2,1412.2,1774.3,3440.7,3440.7,679.1,1057.3,1301.6,1543.1,1224.8,979.0,6.0,8.0,19.0,7738.0,11600.0,-6601.0,-5515.0,-27.0,17.0,15.0,-3.0,12.0,13.0,9868.0,11400.0,4395.0,4667.0,-17.0,-7.0,3.0,1.0
2022-05-06 12:44:37.544520-07:00,1970.7,620.5,1242.6,1559.0,910.1,1223.9,1529.2,1748.3,3449.1,3435.8,1546.9,1414.9,1493.0,3441.9,975.6,1468.1,3443.1,3438.2,679.1,1317.8,892.4,546.6,1412.2,1773.3,3440.7,3440.7,679.1,1057.3,1302.5,1545.9,1225.7,977.3,4.0,15.0,11.0,7745.0,11600.0,-6600.0,-5508.0,37.0,21.0,2.0,-5.0,4.0,13.0,9871.0,11398.0,4394.0,4668.0,24.0,7.0,1.0,1.0
2022-05-06 12:44:37.604257-07:00,1970.7,620.5,1242.6,1559.0,911.8,1223.9,1521.8,1757.9,3449.1,3435.8,1546.9,1414.9,1495.8,3434.6,973.1,1470.9,3435.8,3434.6,686.4,1316.9,892.4,546.6,1412.2,1773.3,3449.1,3450.4,671.7,1060.8,1302.5,1545.9,1225.7,977.3,1.0,4.0,9.0,7747.0,11602.0,-6598.0,-5502.0,3.0,13.0,11.0,-6.0,6.0,13.0,9866.0,11401.0,4396.0,4667.0,6.0,3.0,2.0,1.0
2022-05-06 12:44:37.664308-07:00,1956.8,617.3,1237.3,1557.1,911.8,1223.9,1521.8,1757.9,3438.2,3438.2,1545.0,1420.4,1495.8,3434.6,973.1,1470.9,3435.8,3434.6,686.4,1316.9,895.7,550.6,1404.0,1776.2,3449.1,3450.4,671.7,1060.8,1302.5,1544.1,1225.7,977.3,0.0,15.0,8.0,7749.0,11601.0,-6599.0,-5502.0,0.0,-8.0,-7.0,-7.0,3.0,14.0,9866.0,11401.0,4396.0,4667.0,-1.0,-2.0,-2.0,1.0
2022-05-06 12:44:37.724766-07:00,1954.8,617.3,1237.3,1557.1,921.1,1234.6,1530.1,1746.4,3437.0,3438.2,1545.0,1420.4,1492.1,3444.3,972.2,1474.6,3439.5,3443.1,679.1,1319.6,895.7,550.6,1404.0,1771.4,3437.0,3438.2,672.5,1058.2,1302.5,1544.1,1225.7,984.2,1.0,7.0,10.0,7750.0,11599.0,-6601.0,-5501.0,4.0,-7.0,12.0,-10.0,5.0,14.0,9866.0,11401.0,4396.0,4667.0,4.0,-4.0,6.0,1.0
2022-05-06 12:44:37.755954-07:00,1954.8,623.8,1231.0,1554.3,921.1,1234.6,1530.1,1757.0,3437.0,3441.9,1549.7,1409.4,1492.1,3444.3,972.2,1464.4,3432.2,3443.1,679.1,1319.6,895.7,550.6,1408.5,1771.4,3440.7,3438.2,672.5,1058.2,1295.4,1537.6,1217.7,984.2,0.0,3.0,10.0,7753.0,11597.0,-6598.0,-5504.0,12.0,5.0,-13.0,-6.0,0.0,21.0,9869.0,11399.0,4395.0,4668.0,7.0,-6.0,-2.0,1.0
2022-05-06 12:44:37.844738-07:00,1955.8,623.8,1231.0,1554.3,916.0,1223.9,1519.9,1757.0,3439.5,3441.9,1549.7,1409.4,1492.1,3439.5,979.0,1464.4,3432.2,3443.1,677.4,1321.4,895.7,550.6,1408.5,1773.3,3440.7,3445.5,678.2,1057.3,1295.4,1537.6,1217.7,978.2,2.0,11.0,10.0,7749.0,11600.0,-6598.0,-5503.0,-6.0,-5.0,-9.0,-3.0,6.0,11.0,9865.0,11403.0,4397.0,4666.0,-5.0,4.0,-6.0,1.0
2022-05-06 12:44:37.846396-07:00,1955.8,627.0,1235.5,1548.7,916.0,1223.9,1519.9,1750.2,3439.5,3445.5,1539.4,1417.6,1492.1,3439.5,979.0,1470.9,3428.6,3443.1,677.4,1321.4,899.1,550.6,1409.4,1773.3,3439.5,3445.5,678.2,1057.3,1297.2,1544.1,1221.3,978.2,0.0,6.0,9.0,7750.0,11600.0,-6598.0,-5502.0,15.0,-6.0,4.0,-4.0,5.0,16.0,9864.0,11404.0,4397.0,4666.0,9.0,-1.0,6.0,1.0
2022-05-06 12:44:37.904304-07:00,1954.8,627.0,1235.5,1548.7,924.5,1225.7,1524.5,1750.2,3441.9,3445.5,1539.4,1417.6,1501.4,3443.1,973.1,1470.9,3428.6,3433.4,681.5,1321.4,899.1,550.6,1409.4,1780.1,3439.5,3450.4,676.6,1065.1,1297.2,1544.1,1221.3,975.6,3.0,8.0,11.0,7750.0,11600.0,-6598.0,-5503.0,-12.0,4.0,5.0,-9.0,6.0,16.0,9864.0,11403.0,4397.0,4666.0,-17.0,-6.0,6.0,1.0
2022-05-06 12:44:37.964344-07:00,1954.8,632.7,1239.1,1546.9,924.5,1225.7,1516.2,1750.2,3441.9,3439.5,1550.6,1430.5,1501.4,3443.1,978.2,1466.3,3435.8,3431.0,681.5,1321.4,892.4,547.4,1404.0,1780.1,3438.2,3441.9,676.6,1065.1,1300.7,1545.9,1219.5,975.6,-2.0,6.0,11.0,7752.0,11599.0,-6595.0,-5506.0,-1.0,0.0,-13.0,-6.0,2.0,19.0,9869.0,11399.0,4395.0,4668.0,-2.0,-7.0,-2.0,1.0
2022-05-06 12:44:37.994524-07:00,1961.8,625.4,1239.1,1546.9,908.4,1223.9,1516.2,1750.2,3449.1,3437.0,1550.6,1430.5,1506.0,3439.5,978.2,1466.3,3435.8,3431.0,679.9,1321.4,892.4,547.4,1401.2,1775.2,3438.2,3441.9,677.4,1058.2,1300.7,1545.9,1226.6,991.0,6.0,7.0,14.0,7750.0,11600.0,-6597.0,-5503.0,3.0,13.0,9.0,-6.0,2.0,15.0,9870.0,11398.0,4396.0,4667.0,0.0,0.0,6.0,1.0
2022-05-06 12:44:38.084241-07:00,1961.8,625.4,1235.5,1547.8,908.4,1223.9,1518.0,1741.6,3449.1,3437.0,1549.7,1419.5,1506.0,3439.5,975.6,1463.5,3438.2,3443.1,679.9,1321.4,892.4,546.6,1401.2,1775.2,3440.7,3449.1,677.4,1058.2,1304.3,1545.9,1226.6,991.0,2.0,3.0,6.0,7752.0,11601.0,-6595.0,-5501.0,6.0,5.0,-9.0,-2.0,2.0,13.0,9872.0,11396.0,4396.0,4667.0,3.0,-7.0,-5.0,1.0
2022-05-06 12:44:38.114388-07:00,1956.8,617.3,1235.5,1547.8,922.0,1228.4,1518.0,1741.6,3439.5,3440.7,1549.7,1419.5,1497.7,3449.1,975.6,1463.5,3438.2,3443.1,684.0,1320.5,892.4,546.6,1407.6,1770.4,3440.7,3449.1,679.9,1059.9,1304.3,1545.9,1228.4,979.0,1.0,3.0,16.0,7751.0,11601.0,-6596.0,-5502.0,2.0,-16.0,1.0,-7.0,6.0,18.0,9875.0,11394.0,4396.0,4668.0,4.0,1.0,3.0,1.0
2022-05-06 12:44:38.144523-07:00,1956.8,617.3,1238.2,1552.5,922.0,1228.4,1530.1,1750.2,3439.5,3440.7,1541.3,1425.0,1497.7,3449.1,977.3,1464.4,3437.0,3439.5,684.0,1320.5,894.9,547.4,1407.6,1770.4,3449.1,3440.7,679.9,1059.9,1300.7,1541.3,1228.4,979.0,5.0,9.0,10.0,7755.0,11600.0,-6595.0,-5499.0,-7.0,18.0,6.0,-1.0,0.0,17.0,9879.0,11390.0,4395.0,4668.0,-1.0,10.0,5.0,1.0
2022-05-06 12:44:38.234540-07:00,1958.8,615.7,1239.1,1552.5,921.1,1223.9,1530.1,1750.2,3438.2,3440.7,1544.1,1425.0,1500.4,3438.2,977.3,1464.4,3437.0,3439.5,675.8,1321.4,894.9,545.8,1402.1,1770.4,3449.1,3440.7,674.2,1063.4,1300.7,1536.6,1219.5,987.6,1.0,11.0,7.0,7752.0,11603.0,-6596.0,-5496.0,9.0,-8.0,1.0,-4.0,11.0,11.0,9878.0,11390.0,4396.0,4668.0,5.0,-3.0,-4.0,1.0
2022-05-06 12:44:38.264520-07:00,1958.8,615.7,1239.1,1544.1,921.1,1230.2,1522.7,1764.6,3438.2,3440.7,1544.1,1416.7,1500.4,3443.1,976.5,1466.3,3444.3,3439.5,679.1,1321.4,890.7,545.8,1402.1,1770.4,3454.0,3434.6,679.1,1063.4,1297.2,1536.6,1219.5,987.6,1.0,11.0,14.0,7751.0,11602.0,-6597.0,-5497.0,2.0,8.0,-3.0,-7.0,7.0,12.0,9880.0,11388.0,4397.0,4668.0,-5.0,-1.0,-3.0,1.0
2022-05-06 12:44:38.294466-07:00,1947.9,618.9,1235.5,1544.1,911.0,1230.2,1522.7,1764.6,3444.3,3439.5,1544.1,1416.7,1504.1,3443.1,976.5,1466.3,3444.3,3439.5,679.1,1323.2,890.7,545.8,1407.6,1776.2,3454.0,3434.6,679.1,1056.5,1297.2,1546.9,1213.3,979.9,4.0,0.0,15.0,7752.0,11603.0,-6596.0,-5497.0,5.0,3.0,6.0,-4.0,3.0,10.0,9883.0,11385.0,4396.0,4669.0,5.0,-2.0,0.0,1.0
2022-05-06 12:44:38.354187-07:00,1947.9,618.9,1235.5,1552.5,911.0,1231.0,1512.5,1757.0,3444.3,3439.5,1544.1,1418.6,1504.1,3441.9,973.1,1462.6,3449.1,3433.4,683.1,1323.2,891.5,545.8,1407.6,1776.2,3438.2,3440.7,671.7,1056.5,1315.1,1546.9,1213.3,979.9,5.0,7.0,4.0,7749.0,11603.0,-6598.0,-5498.0,-2.0,-19.0,-5.0,-1.0,0.0,12.0,9886.0,11384.0,4397.0,4669.0,-6.0,-6.0,-7.0,1.0
2022-05-06 12:44:38.444498-07:00,1951.9,617.3,1234.6,1552.5,916.9,1231.0,1512.5,1757.0,3449.1,3437.0,1552.5,1418.6,1494.9,3441.9,973.1,1462.6,3449.1,3433.4,683.1,1321.4,891.5,550.6,1408.5,1778.1,3438.2,3440.7,671.7,1058.2,1315.1,1536.6,1211.5,979.9,16.0,-15.0,-18.0,7700.0,11613.0,-6626.0,-5511.0,263.0,-202.0,-21.0,14.0,-8.0,23.0,9869.0,11393.0,4408.0,4668.0,244.0,104.0,-6.0,1.0
2022-05-06 12:44:38.474786-07:00,1951.9,617.3,1234.6,1552.5,916.9,1264.9,1521.8,1768.5,3449.1,3437.0,1552.5,1414.0,1494.9,3444.3,971.3,1466.3,3439.5,3431.0,674.2,1321.4,893.2,550.6,1408.5,1778.1,3443.1,3440.7,678.2,1058.2,1303.4,1536.6,1211.5,979.9,85.0,-23.0,29.0,7532.0,11552.0,-6867.0,-5577.0,12.0,-596.0,591.0,16.0,64.0,-13.0,9770.0,11453.0,4472.0,4671.0,182.0,80.0,27.0,1.0
2022-05-06 12:44:38.534215-07:00,2043.4,643.2,1231.0,1549.7,911.0,1264.9,1521.8,1768.5,3443.1,3446.7,1563.7,1421.3,1497.7,3444.3,971.3,1466.3,3439.5,3431.0,674.2,1316.9,900.0,545.0,2238.4,1770.4,3443.1,3440.7,678.2,1184.1,1297.2,1534.8,1234.6,976.5,-63.0,-97.0,-28.0,7658.0,11324.0,-7116.0,-5560.0,-34.0,-460.0,687.0,-44.0,-57.0,24.0,9747.0,11460.0,4483.0,4690.0,29.0,32.0,94.0,1.0
2022-05-06 12:44:38.594684-07:00,2043.4,643.2,1231.0,1549.7,919.4,1636.0,1540.3,1775.2,3443.1,3446.7,1563.7,1421.3,1500.4,3435.8,976.5,1470.9,3432.2,3444.3,679.1,1332.3,900.0,545.0,2238.4,1770.4,3445.5,3445.5,715.1,1537.6,1297.2,1534.8,1234.6,976.5,6.0,-5.0,-4.0,7555.0,11159.0,-7478.0,-5561.0,348.0,-714.0,701.0,-3.0,13.0,13.0,9669.0,11518.0,4490.0,4705.0,361.0,44.0,105.0,1.0
2022-05-06 12:44:38.595741-07:00,2379.7,725.8,1250.6,1563.7,919.4,1636.0,1540.3,1775.2,3438.2,3438.2,1532.9,1423.1,1500.4,3435.8,976.5,1470.9,3432.2,3444.3,679.1,1332.3,898.3,549.0,2190.1,1778.1,3445.5,3445.5,715.1,1537.6,1303.4,1539.4,1227.5,988.5,-9.0,26.0,-4.0,7537.0,10963.0,-7755.0,-5596.0,-165.0,-470.0,522.0,-15.0,11.0,5.0,9613.0,11562.0,4486.0,4712.0,-68.0,-16.0,54.0,1.0
2022-05-06 12:44:38.714156-07:00,2379.7,725.8,1250.6,1563.7,916.0,1738.7,1443.3,1583.3,3438.2,3438.2,1532.9,1423.1,1496.7,3434.6,970.5,1466.3,3439.5,3437.0,678.2,1346.7,898.3,549.0,2190.1,1778.1,3446.7,3450.4,708.5,1488.4,1303.4,1539.4,1227.5,988.5,29.0,61.0,54.0,7522.0,10824.0,-7936.0,-5633.0,-89.0,-313.0,360.0,-13.0,28.0,6.0,9602.0,11576.0,4470.0,4717.0,-53.0,-23.0,39.0,1.0
2022-05-06 12:44:38.715240-07:00,2390.3,738.1,1250.6,1555.3,916.0,1738.7,1443.3,1583.3,3433.4,3445.5,1515.3,1416.7,1496.7,3434.6,970.5,1466.3,3439.5,3437.0,678.2,1346.7,905.0,549.8,2114.9,1771.4,3446.7,3450.4,708.5,1488.4,1301.6,1545.9,1226.6,990.2,12.0,33.0,65.0,7570.0,10734.0,-7983.0,-5673.0,-58.0,54.0,-77.0,0.0,-10.0,29.0,9644.0,11544.0,4443.0,4734.0,-13.0,17.0,-3.0,1.0
2022-05-06 12:44:38.744434-07:00,2367.2,738.1,1250.6,1555.3,910.1,1713.8,1400.3,1531.0,3438.2,3445.5,1515.3,1416.7,1500.4,3444.3,971.3,1469.0,3434.6,3451.6,677.4,1340.4,905.0,549.8,2114.9,1776.2,3439.5,3445.5,718.4,1455.2,1301.6,1545.9,1226.6,992.7,11.0,6.0,33.0,7539.0,10798.0,-7948.0,-5642.0,172.0,135.0,-98.0,-1.0,10.0,28.0,9610.0,11563.0,4472.0,4730.0,122.0,59.0,-26.0,1.0
2022-05-06 12:44:38.834268-07:00,2367.2,750.5,1242.6,1554.3,910.1,1713.8,1400.3,1509.7,3438.2,3435.8,1515.3,1414.0,1500.4,3444.3,971.3,1462.6,3434.6,3451.6,677.4,1340.4,896.6,554.6,2087.6,1776.2,3437.0,3445.5,718.4,1455.2,1303.4,1540.3,1222.2,992.7,-15.0,3.0,-30.0,7540.0,10852.0,-7910.0,-5590.0,61.0,101.0,-37.0,-17.0,-9.0,-4.0,9592.0,11567.0,4496.0,4734.0,59.0,26.0,-7.0,1.0
2022-05-06 12:44:38.894465-07:00,2343.1,750.5,1242.6,1554.3,921.1,1678.6,1373.0,1509.7,3433.4,3435.8,1515.3,1414.0,1499.5,3449.1,972.2,1462.6,3434.6,3446.7,681.5,1339.5,896.6,554.6,2087.6,1772.3,3437.0,3446.7,719.2,1447.0,1303.4,1540.3,1222.2,994.5,4.0,17.0,-3.0,7513.0,10901.0,-7887.0,-5564.0,72.0,9.0,-90.0,1.0,22.0,4.0,9576.0,11579.0,4505.0,4730.0,7.0,-2.0,-10.0,1.0
2022-05-06 12:44:38.895700-07:00,2343.1,735.6,1244.4,1553.4,921.1,1678.6,1373.0,1497.7,3433.4,3438.2,1508.8,1410.3,1499.5,3449.1,972.2,1467.2,3433.4,3446.7,681.5,1339.5,896.6,557.0,2063.5,1772.3,3449.1,3446.7,719.2,1447.0,1294.5,1536.6,1220.4,994.5,-5.0,-7.0,19.0,7503.0,10908.0,-7883.0,-5568.0,-8.0,0.0,48.0,-12.0,4.0,18.0,9587.0,11572.0,4500.0,4731.0,-23.0,-12.0,23.0,1.0
2022-05-06 12:44:38.954457-07:00,2337.9,735.6,1244.4,1553.4,924.5,1665.3,1364.8,1497.7,3443.1,3438.2,1508.8,1410.3,1495.8,3435.8,969.6,1467.2,3433.4,3435.8,682.3,1339.5,896.6,557.0,2063.5,1770.4,3449.1,3449.1,708.5,1440.5,1294.5,1536.6,1220.4,993.6,13.0,40.0,18.0,7510.0,10903.0,-7885.0,-5566.0,-54.0,36.0,-62.0,-1.0,7.0,6.0,9593.0,11568.0,4494.0,4732.0,-49.0,-7.0,-15.0,1.0
2022-05-06 12:44:39.014183-07:00,2337.9,729.9,1239.1,1574.9,924.5,1665.3,1364.8,1493.0,3443.1,3438.2,1504.1,1421.3,1495.8,3435.8,969.6,1458.0,3437.0,3435.8,682.3,1339.5,905.9,553.8,2053.4,1770.4,3443.1,3449.1,708.5,1440.5,1314.2,1534.8,1219.5,993.6,0.0,0.0,10.0,7568.0,10906.0,-7811.0,-5585.0,-280.0,156.0,-63.0,0.0,12.0,37.0,9623.0,11542.0,4490.0,4738.0,-136.0,15.0,-35.0,1.0
2022-05-06 12:44:39.045161-07:00,2307.7,738.1,1239.1,1574.9,916.0,1643.5,1357.6,1493.0,3435.8,3443.1,1504.1,1421.3,1500.4,3438.2,974.8,1458.0,3437.0,3433.4,678.2,1343.1,905.9,553.8,2026.4,1772.3,3443.1,3435.8,702.8,1444.2,1314.2,1534.8,1218.6,990.2,-5.0,-29.0,-11.0,7629.0,10873.0,-7787.0,-5601.0,24.0,-75.0,129.0,-10.0,-4.0,1.0,9656.0,11511.0,4485.0,4751.0,20.0,-15.0,28.0,1.0
2022-05-06 12:44:39.104229-07:00,2307.7,738.1,1242.6,1561.8,916.0,1643.5,1346.7,1488.4,3435.8,3443.1,1505.1,1415.8,1500.4,3438.2,973.1,1463.5,3428.6,3438.2,678.2,1343.1,900.0,557.0,2026.4,1772.3,3440.7,3444.3,702.8,1444.2,1304.3,1542.2,1218.6,990.2,4.0,23.0,19.0,7641.0,10833.0,-7826.0,-5609.0,-147.0,-39.0,51.0,-5.0,16.0,9.0,9668.0,11508.0,4465.0,4754.0,-138.0,-38.0,14.0,1.0
2022-05-06 12:44:39.164332-07:00,2316.0,731.5,1242.6,1561.8,917.7,1623.7,1346.7,1488.4,3443.1,3438.2,1505.1,1415.8,1500.4,3443.1,973.1,1463.5,3428.6,3438.2,684.0,1335.0,900.0,557.0,2020.4,1774.3,3440.7,3444.3,707.7,1429.5,1304.3,1542.2,1217.7,986.7,2.0,-17.0,11.0,7677.0,10785.0,-7829.0,-5647.0,-50.0,-100.0,83.0,-4.0,-16.0,12.0,9718.0,11471.0,4434.0,4768.0,-80.0,-15.0,20.0,1.0
2022-05-06 12:44:39.194457-07:00,2316.0,731.5,1232.8,1555.3,917.7,1623.7,1347.6,1484.7,3443.1,3438.2,1492.1,1425.9,1500.4,3443.1,980.7,1458.0,3431.0,3437.0,684.0,1335.0,903.4,558.6,2020.4,1774.3,3433.4,3444.3,707.7,1429.5,1299.8,1538.5,1217.7,986.7,11.0,48.0,34.0,7672.0,10750.0,-7878.0,-5652.0,-37.0,-1.0,47.0,-5.0,24.0,6.0,9721.0,11473.0,4422.0,4769.0,-19.0,-15.0,15.0,1.0
2022-05-06 12:44:39.254074-07:00,2333.7,724.1,1232.8,1555.3,919.4,1612.4,1347.6,1484.7,3454.0,3438.2,1492.1,1425.9,1500.4,3443.1,980.7,1458.0,3431.0,3437.0,684.0,1337.7,903.4,558.6,2017.4,1773.3,3433.4,3444.3,703.6,1432.3,1299.8,1538.5,1217.7,990.2,2.0,-6.0,15.0,7689.0,10751.0,-7860.0,-5653.0,82.0,53.0,-56.0,2.0,-10.0,17.0,9736.0,11460.0,4417.0,4775.0,6.0,17.0,-11.0,1.0
2022-05-06 12:44:39.344331-07:00,2333.7,724.1,1239.9,1561.8,919.4,1601.1,1337.7,1475.5,3454.0,3438.2,1504.1,1419.5,1500.4,3445.5,979.0,1474.6,3434.6,3438.2,682.3,1337.7,900.0,555.4,2017.4,1773.3,3441.9,3452.8,711.0,1432.3,1305.2,1544.1,1217.7,990.2,8.0,-8.0,14.0,7669.0,10777.0,-7861.0,-5628.0,12.0,18.0,58.0,-4.0,0.0,3.0,9711.0,11476.0,4438.0,4768.0,70.0,24.0,-10.0,1.0
2022-05-06 12:44:39.404307-07:00,2320.1,721.6,1244.4,1561.8,918.6,1601.1,1337.7,1475.5,3444.3,3443.1,1498.6,1419.5,1492.1,3445.5,979.0,1474.6,3434.6,3438.2,682.3,1337.7,900.0,549.8,2007.4,1777.2,3441.9,3452.8,711.0,1434.1,1305.2,1541.3,1212.4,985.9,-5.0,20.0,-6.0,7692.0,10758.0,-7876.0,-5613.0,-35.0,5.0,70.0,-10.0,0.0,-2.0,9712.0,11474.0,4437.0,4771.0,-20.0,-1.0,11.0,1.0
2022-05-06 12:44:39.405519-07:00,2320.1,721.6,1244.4,1555.3,918.6,1587.1,1348.5,1470.9,3444.3,3443.1,1498.6,1417.6,1492.1,3438.2,973.9,1464.4,3443.1,3439.5,685.6,1337.7,898.3,549.8,2007.4,1777.2,3444.3,3446.7,709.3,1434.1,1299.8,1541.3,1212.4,985.9,5.0,11.0,22.0,7690.0,10760.0,-7873.0,-5616.0,9.0,19.0,-45.0,-3.0,21.0,12.0,9713.0,11475.0,4434.0,4769.0,0.0,-17.0,-5.0,1.0
2022-05-06 12:44:39.464292-07:00,2301.4,719.2,1234.6,1555.3,914.4,1587.1,1348.5,1470.9,3446.7,3443.1,1489.3,1417.6,1497.7,3438.2,973.9,1464.4,3443.1,3439.5,685.6,1334.1,898.3,557.0,2002.5,1771.4,3444.3,3446.7,709.3,1426.8,1299.8,1538.5,1223.9,990.2,1.0,11.0,21.0,7717.0,10749.0,-7860.0,-5619.0,-27.0,44.0,27.0,-10.0,0.0,5.0,9727.0,11464.0,4430.0,4771.0,-21.0,2.0,9.0,1.0
2022-05-06 12:44:39.494433-07:00,2301.4,719.2,1234.6,1554.3,914.4,1576.8,1330.5,1470.0,3446.7,3443.1,1489.3,1419.5,1497.7,3441.9,975.6,1469.0,3449.1,3434.6,684.0,1334.1,897.4,557.0,2002.5,1771.4,3443.1,3445.5,708.5,1426.8,1299.8,1538.5,1223.9,990.2,5.0,36.0,15.0,7725.0,10778.0,-7821.0,-5604.0,9.0,161.0,-157.0,3.0,16.0,18.0,9725.0,11466.0,4433.0,4770.0,-2.0,0.0,-22.0,1.0
2022-05-06 12:44:39.554870-07:00,2291.0,728.2,1234.6,1549.7,910.1,1576.8,1330.5,1470.0,3441.9,3443.1,1490.3,1413.1,1497.7,3441.9,975.6,1469.0,3449.1,3434.6,684.0,1335.9,905.9,553.0,2011.4,1793.6,3443.1,3445.5,708.5,1426.8,1300.7,1536.6,1224.8,991.9,-2.0,-41.0,-12.0,7739.0,10823.0,-7748.0,-5601.0,-26.0,76.0,-64.0,0.0,0.0,9.0,9731.0,11455.0,4449.0,4768.0,11.0,36.0,-32.0,1.0
2022-05-06 12:44:39.614213-07:00,2291.0,728.2,1234.6,1549.7,911.8,1558.1,1325.9,1463.5,3441.9,3443.1,1490.3,1413.1,1492.1,3443.1,973.1,1466.3,3439.5,3435.8,680.7,1330.5,905.9,553.0,2011.4,1793.6,3445.5,3449.1,709.3,1419.5,1300.7,1536.6,1224.8,991.9,-4.0,15.0,-5.0,7751.0,10806.0,-7763.0,-5598.0,-37.0,-49.0,77.0,-12.0,10.0,-14.0,9734.0,11453.0,4444.0,4773.0,-48.0,-24.0,32.0,1.0
2022-05-06 12:44:39.704288-07:00,2286.9,717.5,1227.5,1552.5,911.8,1558.1,1325.9,1463.5,3444.3,3449.1,1484.7,1412.2,1492.1,3443.1,973.1,1466.3,3439.5,3435.8,680.7,1330.5,901.7,549.8,1990.5,1772.3,3445.5,3449.1,709.3,1419.5,1304.3,1545.0,1220.4,993.6,-5.0,-1.0,11.0,7787.0,10767.0,-7763.0,-5622.0,-151.0,-22.0,32.0,-6.0,0.0,27.0,9768.0,11431.0,4415.0,4781.0,-132.0,-25.0,11.0,1.0
2022-05-06 12:44:39.706258-07:00,2286.9,717.5,1227.5,1552.5,911.8,1559.0,1332.3,1470.9,3444.3,3449.1,1484.7,1412.2,1494.0,3439.5,972.2,1471.8,3438.2,3441.9,679.9,1333.2,901.7,549.8,1990.5,1772.3,3447.9,3437.0,709.3,1407.6,1304.3,1545.0,1220.4,993.6,5.0,14.0,20.0,7789.0,10732.0,-7799.0,-5636.0,29.0,-95.0,91.0,-5.0,7.0,5.0,9777.0,11427.0,4407.0,4780.0,19.0,-19.0,17.0,1.0
2022-05-06 12:44:39.734238-07:00,2275.5,715.9,1237.3,1547.8,911.8,1559.0,1332.3,1470.9,3435.8,3441.9,1492.1,1416.7,1494.0,3439.5,972.2,1471.8,3438.2,3441.9,679.9,1333.2,898.3,551.4,1986.6,1767.5,3447.9,3437.0,709.3,1407.6,1302.5,1535.7,1223.0,994.5,3.0,8.0,26.0,7800.0,10710.0,-7813.0,-5644.0,-66.0,31.0,0.0,-3.0,-5.0,21.0,9787.0,11422.0,4396.0,4781.0,-52.0,-3.0,0.0,1.0
2022-05-06 12:44:39.795117-07:00,2275.5,715.9,1237.3,1547.8,911.0,1542.2,1331.4,1458.0,3435.8,3441.9,1492.1,1416.7,1494.9,3433.4,976.5,1469.0,3444.3,3441.9,679.1,1332.3,898.3,551.4,1986.6,1767.5,3441.9,3443.1,706.9,1400.3,1302.5,1535.7,1223.0,994.5,2.0,14.0,-3.0,7795.0,10717.0,-7815.0,-5635.0,87.0,-3.0,11.0,-4.0,13.0,-3.0,9780.0,11425.0,4403.0,4783.0,73.0,13.0,-5.0,1.0
2022-05-06 12:44:39.854295-07:00,2282.8,726.6,1231.0,1552.5,911.0,1542.2,1331.4,1465.4,3428.6,3438.2,1487.5,1417.6,1494.9,3433.4,976.5,1466.3,3431.0,3441.9,679.1,1332.3,898.3,554.6,1988.5,1771.4,3438.2,3443.1,706.9,1400.3,1303.4,1539.4,1218.6,985.0,-1.0,-5.0,-1.0,7793.0,10711.0,-7822.0,-5639.0,-51.0,-43.0,24.0,-6.0,0.0,2.0,9784.0,11424.0,4400.0,4780.0,-51.0,-19.0,2.0,1.0
2022-05-06 12:44:39.884315-07:00,2289.0,726.6,1231.0,1552.5,913.5,1536.6,1330.5,1465.4,3439.5,3438.2,1487.5,1417.6,1495.8,3451.6,975.6,1466.3,3431.0,3438.2,682.3,1328.7,898.3,554.6,1988.5,1768.5,3438.2,3441.9,706.9,1398.5,1303.4,1539.4,1218.6,991.0,0.0,16.0,4.0,7794.0,10683.0,-7852.0,-5649.0,3.0,-85.0,77.0,-8.0,7.0,4.0,9796.0,11418.0,4389.0,4781.0,-25.0,-17.0,19.0,1.0
2022-05-06 12:44:39.945114-07:00,2289.0,718.4,1233.7,1544.1,913.5,1536.6,1330.5,1468.1,3439.5,3435.8,1492.1,1414.9,1495.8,3451.6,975.6,1467.2,3437.0,3438.2,682.3,1328.7,898.3,554.6,1974.6,1768.5,3440.7,3441.9,706.9,1398.5,1299.0,1542.2,1216.8,991.0,7.0,16.0,31.0,7786.0,10664.0,-7873.0,-5668.0,-27.0,-50.0,-7.0,-5.0,11.0,12.0,9808.0,11411.0,4377.0,4781.0,-46.0,-22.0,3.0,1.0
2022-05-06 12:44:40.034160-07:00,2283.8,718.4,1233.7,1544.1,919.4,1543.1,1327.8,1468.1,3443.1,3435.8,1492.1,1414.9,1500.4,3440.7,967.9,1467.2,3437.0,3444.3,684.8,1339.5,898.3,554.6,1974.6,1770.4,3440.7,3440.7,701.9,1401.2,1299.0,1542.2,1216.8,990.2,4.0,9.0,32.0,7805.0,10654.0,-7859.0,-5679.0,4.0,42.0,-22.0,-7.0,-3.0,19.0,9818.0,11403.0,4373.0,4783.0,-5.0,10.0,2.0,1.0
2022-05-06 12:44:40.035267-07:00,2283.8,711.8,1231.0,1547.8,919.4,1543.1,1327.8,1454.3,3443.1,3439.5,1483.8,1411.3,1500.4,3440.7,967.9,1460.8,3440.7,3444.3,684.8,1339.5,901.7,555.4,1982.6,1770.4,3449.1,3440.7,701.9,1401.2,1303.4,1539.4,1220.4,990.2,8.0,14.0,1.0,7797.0,10684.0,-7837.0,-5662.0,57.0,68.0,-72.0,0.0,17.0,0.0,9809.0,11408.0,4381.0,4785.0,33.0,14.0,-9.0,1.0
2022-05-06 12:44:40.094492-07:00,2278.6,718.4,1231.0,1547.8,916.0,1545.9,1323.2,1454.3,3433.4,3449.1,1483.8,1411.3,1496.7,3452.8,973.9,1460.8,3440.7,3433.4,689.7,1335.0,901.7,555.4,1990.5,1771.4,3449.1,3441.9,716.7,1401.2,1303.4,1539.4,1221.3,983.3,-6.0,-11.0,-5.0,7811.0,10697.0,-7809.0,-5657.0,-35.0,35.0,-11.0,-9.0,-5.0,3.0,9815.0,11402.0,4384.0,4783.0,-18.0,6.0,-5.0,1.0
2022-05-06 12:44:40.154764-07:00,2278.6,718.4,1232.8,1549.7,916.0,1545.9,1319.6,1457.1,3433.4,3449.1,1489.3,1412.2,1496.7,3452.8,973.1,1465.4,3438.2,3435.8,689.7,1335.0,903.4,557.0,1990.5,1771.4,3438.2,3431.0,716.7,1401.2,1294.5,1541.3,1221.3,983.3,7.0,18.0,15.0,7808.0,10700.0,-7811.0,-5654.0,-8.0,-7.0,-1.0,-2.0,13.0,9.0,9813.0,11403.0,4385.0,4782.0,-12.0,-7.0,5.0,1.0
2022-05-06 12:44:40.184557-07:00,2273.4,711.8,1232.8,1549.7,916.9,1537.6,1319.6,1457.1,3449.1,3440.7,1489.3,1412.2,1494.9,3438.2,973.1,1465.4,3438.2,3435.8,686.4,1328.7,903.4,557.0,1980.6,1772.3,3438.2,3431.0,706.0,1400.3,1294.5,1541.3,1217.7,996.2,0.0,10.0,13.0,7816.0,10693.0,-7808.0,-5660.0,2.0,-11.0,-3.0,-2.0,4.0,11.0,9818.0,11400.0,4382.0,4784.0,12.0,0.0,-3.0,1.0
2022-05-06 12:44:40.244457-07:00,2273.4,711.8,1231.9,1556.2,916.9,1537.6,1323.2,1453.4,3449.1,3440.7,1476.4,1414.9,1494.9,3438.2,987.6,1461.7,3438.2,3444.3,686.4,1328.7,904.2,554.6,1980.6,1772.3,3434.6,3447.9,706.0,1400.3,1299.8,1536.6,1217.7,996.2,3.0,10.0,13.0,7815.0,10690.0,-7817.0,-5655.0,7.0,2.0,41.0,-10.0,7.0,-2.0,9810.0,11406.0,4385.0,4781.0,13.0,-2.0,12.0,1.0
2022-05-06 12:44:40.304806-07:00,2266.2,712.6,1231.9,1556.2,911.0,1535.7,1323.2,1453.4,3438.2,3444.3,1476.4,1414.9,1496.7,3432.2,987.6,1461.7,3438.2,3444.3,686.4,1327.8,904.2,554.6,1974.6,1772.3,3434.6,3447.9,709.3,1386.6,1299.8,1536.6,1221.3,990.2,-1.0,7.0,8.0,7825.0,10689.0,-7808.0,-5655.0,10.0,1.0,-23.0,0.0,1.0,14.0,9812.0,11405.0,4383.0,4783.0,14.0,2.0,-8.0,1.0
2022-05-06 12:44:40.334233-07:00,2266.2,712.6,1228.4,1553.4,911.0,1535.7,1318.7,1452.5,3438.2,3444.3,1481.0,1409.4,1496.7,3432.2,973.1,1459.8,3426.2,3439.5,686.4,1327.8,902.5,549.8,1974.6,1772.3,3444.3,3449.1,709.3,1386.6,1303.4,1545.0,1221.3,990.2,3.0,8.0,7.0,7812.0,10691.0,-7821.0,-5651.0,20.0,-31.0,25.0,-5.0,3.0,3.0,9805.0,11411.0,4386.0,4780.0,2.0,-1.0,2.0,1.0
2022-05-06 12:44:40.395031-07:00,2263.1,710.1,1226.6,1553.4,908.4,1532.0,1318.7,1452.5,3443.1,3449.1,1485.6,1409.4,1496.7,3426.2,973.1,1459.8,3426.2,3439.5,684.0,1332.3,902.5,549.8,1966.7,1768.5,3444.3,3449.1,707.7,1387.5,1303.4,1544.1,1222.2,988.5,1.0,19.0,18.0,7809.0,10686.0,-7830.0,-5652.0,-19.0,11.0,-3.0,-3.0,7.0,15.0,9807.0,11411.0,4384.0,4778.0,-11.0,-8.0,-2.0,1.0
2022-05-06 12:44:40.545171-07:00,2263.1,710.1,1226.6,1548.7,908.4,1521.8,1316.9,1454.3,3443.1,3449.1,1485.6,1414.9,1496.7,3439.5,969.6,1469.0,3440.7,3435.8,680.7,1332.3,911.0,549.8,1966.7,1768.5,3443.1,3439.5,705.2,1387.5,1293.6,1544.1,1222.2,988.5,6.0,-3.0,3.0,7813.0,10683.0,-7830.0,-5654.0,27.0,-17.0,15.0,-4.0,4.0,6.0,9808.0,11410.0,4383.0,4778.0,11.0,4.0,9.0,1.0
2022-05-06 12:44:40.546883-07:00,2269.3,711.8,1229.3,1548.7,922.0,1521.8,1316.9,1454.3,3435.8,3428.6,1485.6,1414.9,1494.0,3439.5,969.6,1469.0,3440.7,3435.8,680.7,1325.0,911.0,554.6,1964.7,1771.4,3443.1,3439.5,705.2,1391.2,1293.6,1536.6,1220.4,987.6,7.0,12.0,16.0,7820.0,10672.0,-7834.0,-5659.0,-56.0,3.0,6.0,-5.0,-1.0,9.0,9815.0,11406.0,4379.0,4778.0,-42.0,-14.0,0.0,1.0
2022-05-06 12:44:40.547860-07:00,2269.3,711.8,1229.3,1548.7,922.0,1525.5,1325.9,1453.4,3435.8,3428.6,1485.6,1415.8,1494.0,3443.1,974.8,1460.8,3434.6,3434.6,679.1,1325.0,902.5,554.6,1964.7,1771.4,3449.1,3437.0,703.6,1391.2,1300.7,1536.6,1220.4,987.6,3.0,8.0,15.0,7813.0,10678.0,-7832.0,-5659.0,59.0,-9.0,-18.0,-7.0,11.0,9.0,9810.0,11410.0,4381.0,4777.0,42.0,5.0,-1.0,1.0
2022-05-06 12:44:40.604218-07:00,2269.3,695.4,1225.7,1548.7,911.8,1525.5,1325.9,1453.4,3435.8,3441.9,1478.3,1415.8,1494.9,3443.1,974.8,1460.8,3434.6,3434.6,679.1,1335.9,902.5,553.0,1957.8,1773.3,3449.1,3437.0,703.6,1382.1,1300.7,1535.7,1214.2,985.0,2.0,-4.0,7.0,7816.0,10676.0,-7833.0,-5659.0,-12.0,-4.0,20.0,-2.0,0.0,3.0,9810.0,11410.0,4381.0,4777.0,-7.0,-6.0,7.0,1.0
2022-05-06 12:44:40.634264-07:00,2269.3,695.4,1225.7,1549.7,922.0,1523.6,1309.7,1450.6,3435.8,3441.9,1478.3,1411.3,1489.3,3446.7,967.9,1460.8,3434.6,3446.7,679.1,1325.0,901.7,553.0,1957.8,1773.3,3440.7,3438.2,701.1,1383.0,1298.1,1535.7,1214.2,985.0,4.0,17.0,15.0,7816.0,10676.0,-7830.0,-5660.0,4.0,10.0,-31.0,2.0,3.0,13.0,9809.0,11411.0,4382.0,4776.0,5.0,7.0,-1.0,1.0
2022-05-06 12:44:40.694346-07:00,2254.8,704.4,1223.9,1559.9,922.0,1523.6,1309.7,1450.6,3444.3,3443.1,1477.3,1415.8,1489.3,3446.7,967.9,1460.8,3434.6,3446.7,679.1,1325.0,899.1,553.0,1950.9,1766.6,3440.7,3438.2,701.1,1383.0,1298.1,1545.0,1221.3,988.5,0.0,9.0,3.0,7812.0,10681.0,-7831.0,-5657.0,3.0,4.0,19.0,-2.0,6.0,4.0,9804.0,11415.0,4384.0,4774.0,0.0,3.0,2.0,1.0
2022-05-06 12:44:40.756922-07:00,2254.8,704.4,1223.9,1559.9,914.4,1525.5,1317.8,1452.5,3444.3,3443.1,1477.3,1415.8,1491.2,3441.9,973.9,1461.7,3443.1,3438.2,685.6,1329.6,899.1,553.0,1950.9,1766.6,3441.9,3437.0,712.6,1382.1,1298.1,1545.0,1221.3,988.5,0.0,7.0,6.0,7811.0,10675.0,-7840.0,-5657.0,30.0,-36.0,12.0,-5.0,9.0,1.0,9802.0,11417.0,4384.0,4774.0,20.0,-6.0,1.0,1.0
2022-05-06 12:44:40.784625-07:00,2259.0,700.3,1222.2,1544.1,914.4,1525.5,1317.8,1452.5,3446.7,3439.5,1485.6,1416.7,1491.2,3441.9,973.9,1461.7,3443.1,3438.2,685.6,1329.6,902.5,557.0,1958.8,1770.4,3441.9,3437.0,712.6,1382.1,1299.0,1532.0,1216.8,988.5,1.0,1.0,18.0,7809.0,10673.0,-7842.0,-5659.0,-14.0,-5.0,-4.0,-2.0,-3.0,14.0,9801.0,11418.0,4385.0,4773.0,-8.0,-3.0,2.0,1.0
2022-05-06 12:44:40.844393-07:00,2259.0,700.3,1222.2,1544.1,917.7,1513.4,1313.3,1448.8,3446.7,3439.5,1485.6,1416.7,1498.6,3439.5,973.1,1466.3,3441.9,3439.5,683.1,1325.0,902.5,557.0,1958.8,1770.4,3439.5,3440.7,711.8,1380.3,1299.0,1532.0,1216.8,988.5,2.0,17.0,17.0,7813.0,10674.0,-7840.0,-5657.0,-4.0,25.0,-3.0,-5.0,7.0,14.0,9800.0,11419.0,4385.0,4773.0,-2.0,4.0,-3.0,1.0
2022-05-06 12:44:40.904726-07:00,2257.9,704.4,1223.9,1549.7,917.7,1513.4,1313.3,1452.5,3428.6,3449.1,1465.4,1412.2,1498.6,3439.5,973.1,1465.4,3428.6,3439.5,683.1,1325.0,897.4,551.4,1950.9,1765.6,3441.9,3440.7,711.8,1380.3,1305.2,1537.6,1224.8,982.5,2.0,2.0,5.0,7817.0,10681.0,-7827.0,-5656.0,41.0,12.0,-35.0,-4.0,4.0,10.0,9797.0,11421.0,4386.0,4772.0,26.0,6.0,-5.0,1.0
2022-05-06 12:44:40.964456-07:00,2253.8,704.4,1223.9,1549.7,916.9,1520.8,1313.3,1452.5,3438.2,3449.1,1465.4,1412.2,1487.5,3454.0,970.5,1465.4,3428.6,3449.1,684.8,1326.8,897.4,551.4,1950.9,1777.2,3441.9,3441.9,698.7,1376.6,1305.2,1537.6,1224.8,991.0,3.0,3.0,6.0,7803.0,10692.0,-7829.0,-5651.0,-9.0,-7.0,6.0,-4.0,6.0,6.0,9792.0,11425.0,4389.0,4771.0,-14.0,-1.0,2.0,1.0
2022-05-06 12:44:40.994745-07:00,2253.8,703.6,1229.3,1543.1,916.9,1520.8,1313.3,1439.6,3438.2,3439.5,1475.5,1404.0,1487.5,3454.0,970.5,1470.9,3438.2,3449.1,684.8,1326.8,896.6,549.8,1945.9,1777.2,3446.7,3441.9,698.7,1376.6,1299.8,1541.3,1221.3,991.0,0.0,9.0,5.0,7808.0,10686.0,-7832.0,-5652.0,-3.0,-13.0,25.0,-4.0,2.0,14.0,9797.0,11421.0,4386.0,4774.0,-13.0,2.0,11.0,1.0
2022-05-06 12:44:41.114334-07:00,2241.4,703.6,1229.3,1543.1,922.8,1522.7,1315.1,1439.6,3428.6,3439.5,1475.5,1404.0,1488.4,3441.9,973.9,1470.9,3438.2,3437.0,684.8,1320.5,896.6,549.8,1945.9,1773.3,3446.7,3445.5,706.0,1374.8,1299.8,1541.3,1221.3,990.2,2.0,7.0,1.0,7803.0,10676.0,-7847.0,-5657.0,2.0,-57.0,22.0,-6.0,4.0,7.0,9801.0,11419.0,4382.0,4773.0,-18.0,-12.0,4.0,1.0
2022-05-06 12:44:41.115507-07:00,2241.4,698.7,1233.7,1553.4,922.8,1522.7,1315.1,1443.3,3428.6,3443.1,1473.6,1413.1,1488.4,3441.9,973.9,1470.9,3441.9,3437.0,684.8,1320.5,898.3,560.2,1948.9,1773.3,3438.2,3445.5,706.0,1374.8,1309.7,1542.2,1217.7,990.2,2.0,2.0,23.0,7803.0,10656.0,-7863.0,-5671.0,-51.0,-33.0,41.0,-5.0,-3.0,18.0,9815.0,11411.0,4370.0,4775.0,-42.0,-11.0,15.0,1.0
2022-05-06 12:44:41.145081-07:00,2246.6,698.7,1233.7,1553.4,917.7,1519.0,1311.5,1443.3,3440.7,3443.1,1473.6,1413.1,1486.6,3443.1,969.6,1470.9,3441.9,3433.4,684.0,1322.3,898.3,560.2,1948.9,1772.3,3438.2,3443.1,702.8,1376.6,1309.7,1542.2,1217.7,989.3,5.0,13.0,17.0,7808.0,10643.0,-7876.0,-5671.0,15.0,-6.0,21.0,-2.0,3.0,16.0,9812.0,11413.0,4368.0,4776.0,15.0,0.0,7.0,1.0
2022-05-06 12:44:41.234136-07:00,2246.6,704.4,1224.8,1550.6,917.7,1519.0,1325.9,1448.8,3440.7,3449.1,1470.0,1414.9,1486.6,3443.1,970.5,1470.9,3435.8,3433.4,684.0,1322.3,900.0,553.8,1945.9,1772.3,3454.0,3449.1,702.8,1376.6,1299.8,1541.3,1227.5,989.3,-1.0,5.0,10.0,7806.0,10644.0,-7877.0,-5670.0,5.0,7.0,-15.0,-5.0,0.0,8.0,9812.0,11414.0,4368.0,4776.0,3.0,0.0,-8.0,1.0
2022-05-06 12:44:41.235872-07:00,2256.9,707.7,1224.8,1550.6,911.8,1509.7,1325.9,1448.8,3439.5,3444.3,1470.0,1414.9,1494.0,3427.4,970.5,1470.9,3435.8,3433.4,684.0,1328.7,900.0,553.8,1943.0,1769.5,3454.0,3449.1,701.9,1373.0,1299.8,1541.3,1216.0,979.9,2.0,7.0,6.0,7806.0,10646.0,-7875.0,-5670.0,-22.0,22.0,0.0,-2.0,5.0,13.0,9813.0,11412.0,4367.0,4777.0,-22.0,6.0,2.0,1.0
2022-05-06 12:44:41.294299-07:00,2256.9,707.7,1222.2,1550.6,911.8,1509.7,1315.1,1438.7,3439.5,3444.3,1477.3,1415.8,1494.0,3427.4,969.6,1461.7,3431.0,3437.0,684.0,1328.7,899.1,557.0,1943.0,1769.5,3439.5,3433.4,701.9,1373.0,1299.8,1536.6,1216.0,979.9,6.0,16.0,10.0,7808.0,10647.0,-7873.0,-5669.0,18.0,-3.0,-5.0,-4.0,10.0,9.0,9811.0,11415.0,4368.0,4776.0,16.0,-3.0,-3.0,1.0
2022-05-06 12:44:41.384110-07:00,2252.8,701.9,1222.2,1550.6,916.9,1512.5,1315.1,1438.7,3439.5,3440.7,1477.3,1415.8,1500.4,3444.3,969.6,1461.7,3431.0,3437.0,686.4,1346.7,899.1,557.0,1943.0,1769.5,3439.5,3433.4,709.3,1376.6,1299.8,1536.6,1218.6,1003.0,0.0,-2.0,16.0,7809.0,10647.0,-7872.0,-5668.0,14.0,11.0,4.0,-6.0,2.0,13.0,9810.0,11416.0,4369.0,4775.0,19.0,3.0,1.0,1.0
2022-05-06 12:44:41.474233-07:00,2252.8,701.9,1229.3,1546.9,916.9,1512.5,1313.3,1435.0,3439.5,3440.7,1472.7,1414.0,1500.4,3444.3,969.6,1461.7,3441.9,3438.2,686.4,1346.7,898.3,561.0,1943.0,1769.5,3444.3,3439.5,709.3,1376.6,1303.4,1538.5,1218.6,1003.0,4.0,-1.0,3.0,7803.0,10653.0,-7872.0,-5666.0,9.0,-9.0,-15.0,-4.0,4.0,8.0,9806.0,11419.0,4371.0,4774.0,3.0,-1.0,-6.0,1.0
2022-05-06 12:44:41.476032-07:00,2251.7,701.9,1218.6,1546.9,916.0,1505.1,1313.3,1435.0,3437.0,3439.5,1472.7,1414.0,1493.0,3438.2,969.6,1461.7,3441.9,3438.2,686.4,1339.5,898.3,552.2,1945.9,1769.5,3444.3,3439.5,705.2,1374.8,1303.4,1542.2,1228.4,988.5,2.0,11.0,16.0,7798.0,10657.0,-7870.0,-5666.0,-15.0,11.0,-13.0,-1.0,2.0,13.0,9803.0,11421.0,4372.0,4773.0,-4.0,-5.0,-6.0,1.0
2022-05-06 12:44:41.564386-07:00,2251.7,701.9,1218.6,1544.1,916.0,1506.0,1315.1,1447.0,3437.0,3439.5,1472.7,1409.4,1493.0,3435.8,973.1,1466.3,3428.6,3438.2,695.4,1339.5,898.3,552.2,1945.9,1769.5,3444.3,3443.1,699.5,1374.8,1305.2,1542.2,1228.4,988.5,2.0,25.0,9.0,7800.0,10656.0,-7870.0,-5665.0,5.0,2.0,8.0,-5.0,7.0,11.0,9804.0,11421.0,4371.0,4773.0,3.0,-5.0,-2.0,1.0
2022-05-06 12:44:41.594323-07:00,2251.7,710.1,1226.6,1544.1,914.4,1506.0,1315.1,1447.0,3444.3,3443.1,1469.0,1409.4,1500.4,3435.8,973.1,1466.3,3428.6,3438.2,695.4,1325.0,898.3,553.8,1942.0,1765.6,3444.3,3443.1,699.5,1375.7,1305.2,1538.5,1216.0,991.0,4.0,19.0,42.0,7813.0,10656.0,-7860.0,-5663.0,-44.0,121.0,-26.0,-14.0,6.0,-2.0,9818.0,11413.0,4361.0,4772.0,-81.0,-32.0,3.0,1.0
2022-05-06 12:44:41.595611-07:00,2251.7,710.1,1226.6,1545.9,914.4,1537.6,1325.9,1449.7,3444.3,3443.1,1469.0,1410.3,1500.4,3435.8,968.8,1459.8,3431.0,3434.6,683.1,1325.0,902.5,553.8,1942.0,1765.6,3447.9,3439.5,702.8,1375.7,1297.2,1538.5,1216.0,991.0,-6.0,51.0,73.0,7893.0,10724.0,-7743.0,-5584.0,-94.0,807.0,-259.0,-23.0,24.0,24.0,9880.0,11370.0,4319.0,4784.0,-286.0,-58.0,36.0,1.0
2022-05-06 12:44:41.654258-07:00,2313.9,734.8,1231.0,1545.9,917.7,1537.6,1325.9,1449.7,3438.2,3439.5,1519.9,1410.3,1500.4,3435.8,968.8,1459.8,3431.0,3434.6,683.1,1329.6,902.5,553.0,2263.1,1767.5,3447.9,3439.5,702.8,1502.3,1297.2,1538.5,1216.0,994.5,7.0,20.0,-19.0,8016.0,10922.0,-7455.0,-5414.0,101.0,763.0,-532.0,7.0,2.0,16.0,9949.0,11323.0,4277.0,4792.0,-91.0,-62.0,-39.0,1.0
2022-05-06 12:44:41.684545-07:00,2313.9,734.8,1231.0,1553.4,917.7,1470.0,1671.0,2078.5,3438.2,3439.5,1519.9,1414.9,1500.4,3444.3,971.3,1458.9,3434.6,3431.0,691.3,1329.6,899.1,553.0,2263.1,1767.5,3441.9,3439.5,692.1,1502.3,1303.4,1538.5,1216.0,994.5,24.0,20.0,-20.0,8013.0,11168.0,-7165.0,-5308.0,57.0,547.0,-609.0,-1.0,50.0,-8.0,9979.0,11308.0,4273.0,4765.0,-71.0,-68.0,-101.0,1.0
2022-05-06 12:44:41.744472-07:00,2351.4,731.5,1232.8,1544.1,920.3,1470.0,1671.0,2078.5,3446.7,3446.7,1567.4,1415.8,1491.2,3444.3,971.3,1458.9,3434.6,3431.0,691.3,1330.5,901.7,550.6,2025.4,1770.4,3441.9,3439.5,692.1,1436.0,1299.0,1542.2,1219.5,985.9,0.0,-53.0,-35.0,8036.0,11323.0,-6904.0,-5290.0,-38.0,216.0,-366.0,8.0,-25.0,10.0,10049.0,11258.0,4266.0,4743.0,-134.0,-20.0,-77.0,1.0
2022-05-06 12:44:41.804243-07:00,2351.4,731.5,1232.8,1544.1,915.2,1395.7,1869.3,2332.6,3446.7,3446.7,1567.4,1415.8,1493.0,3434.6,963.7,1459.8,3441.9,3438.2,678.2,1334.1,901.7,550.6,2025.4,1770.4,3440.7,3445.5,694.6,1325.0,1299.0,1542.2,1219.5,985.9,5.0,4.0,12.0,8022.0,11406.0,-6782.0,-5292.0,-101.0,158.0,-261.0,-1.0,23.0,8.0,10057.0,11254.0,4275.0,4727.0,-53.0,-7.0,-39.0,1.0
2022-05-06 12:44:41.864123-07:00,2302.5,713.4,1218.6,1552.5,915.2,1395.7,1869.3,2332.6,3439.5,3437.0,1577.7,1416.7,1493.0,3434.6,963.7,1459.8,3441.9,3438.2,678.2,1334.1,893.2,551.4,1783.9,1767.5,3440.7,3445.5,694.6,1325.0,1303.4,1536.6,1216.0,993.6,5.0,-19.0,20.0,8036.0,11450.0,-6670.0,-5318.0,-17.0,70.0,-199.0,2.0,-12.0,18.0,10082.0,11233.0,4273.0,4728.0,1.0,0.0,-17.0,1.0
2022-05-06 12:44:41.894310-07:00,2302.5,713.4,1218.6,1552.5,916.0,1374.8,1885.0,2280.7,3439.5,3437.0,1577.7,1416.7,1497.7,3438.2,957.7,1463.5,3438.2,3446.7,685.6,1340.4,893.2,551.4,1783.9,1767.5,3449.1,3444.3,690.5,1272.1,1303.4,1536.6,1216.0,993.6,0.0,3.0,6.0,8019.0,11488.0,-6622.0,-5321.0,-13.0,64.0,-110.0,-6.0,7.0,17.0,10077.0,11236.0,4285.0,4718.0,4.0,9.0,-29.0,1.0
2022-05-06 12:44:41.954180-07:00,2261.0,705.2,1218.6,1548.7,916.0,1374.8,1885.0,2280.7,3439.5,3440.7,1578.6,1415.8,1497.7,3438.2,957.7,1463.5,3438.2,3446.7,685.6,1340.4,894.9,549.0,1685.3,1772.3,3449.1,3444.3,690.5,1272.1,1303.4,1534.8,1221.3,1009.9,-9.0,-3.0,7.0,8033.0,11500.0,-6578.0,-5327.0,-44.0,61.0,-62.0,-10.0,11.0,20.0,10080.0,11233.0,4290.0,4715.0,-13.0,10.0,-6.0,1.0
2022-05-06 12:44:42.014811-07:00,2238.4,705.2,1218.6,1548.7,922.8,1366.6,1839.1,2203.4,3437.0,3440.7,1578.6,1415.8,1498.6,3449.1,961.1,1462.6,3446.7,3433.4,685.6,1339.5,894.9,549.0,1685.3,1769.5,3444.3,3440.7,696.2,1245.3,1303.4,1534.8,1221.3,1003.9,2.0,2.0,0.0,8041.0,11499.0,-6566.0,-5332.0,-45.0,-12.0,6.0,-6.0,3.0,6.0,10086.0,11228.0,4290.0,4716.0,-27.0,-9.0,-1.0,1.0
2022-05-06 12:44:42.048365-07:00,2238.4,701.1,1221.3,1551.5,922.8,1366.6,1839.1,2167.7,3437.0,3445.5,1573.0,1414.0,1498.6,3449.1,961.1,1462.6,3437.0,3433.4,685.6,1339.5,891.5,550.6,1653.9,1769.5,3433.4,3440.7,696.2,1245.3,1299.0,1540.3,1216.8,1003.9,0.0,6.0,19.0,8056.0,11481.0,-6564.0,-5351.0,-40.0,-30.0,-7.0,-4.0,1.0,20.0,10097.0,11222.0,4282.0,4714.0,-13.0,-14.0,-9.0,1.0
2022-05-06 12:44:42.164245-07:00,2219.8,701.1,1221.3,1551.5,916.9,1365.7,1821.6,2167.7,3437.0,3445.5,1573.0,1414.0,1500.4,3441.9,960.2,1462.6,3437.0,3439.5,682.3,1334.1,891.5,550.6,1653.9,1772.3,3433.4,3437.0,693.8,1231.0,1299.0,1540.3,1216.8,1008.2,4.0,13.0,21.0,8058.0,11470.0,-6571.0,-5365.0,0.0,-15.0,0.0,-6.0,10.0,10.0,10100.0,11221.0,4280.0,4712.0,6.0,-2.0,-5.0,1.0
2022-05-06 12:44:42.165430-07:00,2219.8,697.0,1226.6,1540.3,916.9,1365.7,1821.6,2134.1,3437.0,3438.2,1570.2,1415.8,1500.4,3441.9,960.2,1458.0,3428.6,3439.5,682.3,1334.1,894.1,549.0,1638.8,1772.3,3439.5,3437.0,693.8,1231.0,1296.3,1535.7,1212.4,1008.2,-1.0,6.0,10.0,8069.0,11464.0,-6565.0,-5367.0,-21.0,36.0,10.0,-1.0,-3.0,15.0,10105.0,11216.0,4278.0,4715.0,-13.0,8.0,11.0,1.0
2022-05-06 12:44:42.194305-07:00,2196.3,697.0,1226.6,1540.3,910.1,1353.1,1809.0,2134.1,3439.5,3438.2,1570.2,1415.8,1504.1,3437.0,960.2,1458.0,3428.6,3439.5,683.1,1335.9,894.1,549.0,1638.8,1770.4,3439.5,3440.7,688.9,1215.1,1296.3,1535.7,1212.4,1003.9,1.0,13.0,6.0,8073.0,11465.0,-6560.0,-5364.0,27.0,-9.0,-16.0,-6.0,9.0,8.0,10102.0,11218.0,4280.0,4713.0,28.0,1.0,-12.0,1.0
2022-05-06 12:44:42.224164-07:00,2196.3,697.0,1221.3,1551.5,910.1,1353.1,1787.8,2123.0,3439.5,3434.6,1573.0,1412.2,1504.1,3437.0,962.8,1470.0,3443.1,3433.4,683.1,1335.9,889.8,548.2,1623.7,1770.4,3443.1,3428.6,688.9,1215.1,1295.4,1531.0,1220.4,1003.9,-1.0,0.0,16.0,8072.0,11463.0,-6559.0,-5372.0,-36.0,-15.0,3.0,-7.0,-1.0,11.0,10108.0,11213.0,4281.0,4711.0,-31.0,-7.0,-1.0,1.0
2022-05-06 12:44:42.284773-07:00,2173.8,692.9,1221.3,1551.5,918.6,1345.8,1787.8,2123.0,3434.6,3444.3,1573.0,1412.2,1501.4,3440.7,962.8,1470.0,3443.1,3433.4,689.7,1336.8,889.8,548.2,1612.4,1763.7,3443.1,3428.6,688.0,1222.2,1295.4,1531.0,1219.5,1003.9,3.0,7.0,12.0,8083.0,11452.0,-6558.0,-5380.0,-26.0,-5.0,13.0,-2.0,2.0,13.0,10115.0,11207.0,4279.0,4713.0,-8.0,3.0,5.0,1.0
2022-05-06 12:44:42.374233-07:00,2173.8,692.9,1226.6,1549.7,918.6,1345.8,1787.8,2104.8,3434.6,3444.3,1568.3,1419.5,1501.4,3440.7,962.0,1451.6,3429.8,3441.9,689.7,1336.8,895.7,551.4,1612.4,1763.7,3438.2,3438.2,688.0,1222.2,1300.7,1532.0,1219.5,1003.9,7.0,14.0,8.0,8082.0,11452.0,-6560.0,-5379.0,33.0,-11.0,5.0,-5.0,6.0,12.0,10110.0,11211.0,4282.0,4712.0,29.0,3.0,-1.0,1.0
2022-05-06 12:44:42.375395-07:00,2165.6,688.0,1226.6,1549.7,911.8,1352.1,1787.8,2104.8,3441.9,3439.5,1568.3,1419.5,1506.0,3444.3,962.0,1451.6,3429.8,3441.9,681.5,1334.1,895.7,551.4,1604.0,1763.7,3438.2,3438.2,686.4,1211.5,1300.7,1532.0,1217.7,1007.3,0.0,-2.0,11.0,8094.0,11447.0,-6553.0,-5379.0,-23.0,23.0,8.0,-1.0,-2.0,14.0,10117.0,11205.0,4280.0,4714.0,-15.0,2.0,6.0,1.0
2022-05-06 12:44:42.434401-07:00,2165.6,688.0,1224.8,1556.2,911.8,1352.1,1775.2,2091.6,3441.9,3439.5,1556.2,1413.1,1506.0,3444.3,967.9,1462.6,3435.8,3432.2,681.5,1334.1,897.4,546.6,1604.0,1763.7,3439.5,3446.7,686.4,1211.5,1299.0,1551.5,1217.7,1007.3,2.0,13.0,10.0,8094.0,11450.0,-6554.0,-5372.0,22.0,3.0,-7.0,-4.0,9.0,12.0,10112.0,11209.0,4282.0,4712.0,28.0,1.0,-6.0,1.0
2022-05-06 12:44:42.494409-07:00,2167.7,682.3,1224.8,1556.2,914.4,1350.3,1775.2,2091.6,3439.5,3438.2,1556.2,1413.1,1500.4,3435.8,967.9,1462.6,3435.8,3432.2,684.0,1332.3,897.4,546.6,1600.2,1769.5,3439.5,3446.7,683.1,1210.6,1299.0,1551.5,1219.5,997.0,1.0,-1.0,8.0,8097.0,11451.0,-6549.0,-5373.0,-8.0,18.0,0.0,-8.0,-2.0,11.0,10113.0,11209.0,4283.0,4711.0,-6.0,0.0,1.0,1.0
2022-05-06 12:44:42.524772-07:00,2167.7,682.3,1217.7,1544.1,914.4,1337.7,1769.5,2097.7,3439.5,3438.2,1552.5,1413.1,1500.4,3432.2,960.2,1461.7,3433.4,3439.5,686.4,1332.3,893.2,543.4,1600.2,1769.5,3449.1,3443.1,692.1,1210.6,1303.4,1522.7,1219.5,997.0,0.0,10.0,3.0,8099.0,11450.0,-6551.0,-5367.0,6.0,-4.0,17.0,-5.0,6.0,7.0,10111.0,11210.0,4284.0,4710.0,10.0,-7.0,4.0,1.0
2022-05-06 12:44:42.584313-07:00,2150.4,686.4,1223.0,1544.1,915.2,1337.7,1769.5,2097.7,3429.8,3444.3,1555.3,1413.1,1502.3,3432.2,960.2,1461.7,3433.4,3439.5,686.4,1331.4,893.2,549.8,1588.9,1782.9,3449.1,3443.1,692.1,1199.1,1303.4,1534.8,1217.7,997.9,3.0,1.0,16.0,8105.0,11445.0,-6550.0,-5370.0,-19.0,8.0,6.0,0.0,5.0,14.0,10115.0,11207.0,4284.0,4711.0,-13.0,-8.0,5.0,1.0
2022-05-06 12:44:42.644988-07:00,2150.4,686.4,1223.0,1550.6,915.2,1334.1,1757.9,2088.6,3429.8,3444.3,1555.3,1412.2,1502.3,3439.5,956.0,1458.9,3435.8,3432.2,684.0,1331.4,893.2,549.8,1588.9,1782.9,3451.6,3443.1,685.6,1199.1,1303.4,1534.8,1217.7,997.9,2.0,5.0,13.0,8111.0,11441.0,-6550.0,-5370.0,10.0,10.0,2.0,-3.0,1.0,7.0,10117.0,11204.0,4283.0,4711.0,11.0,2.0,-4.0,1.0
2022-05-06 12:44:42.674674-07:00,2143.3,688.0,1221.3,1550.6,908.4,1334.1,1757.9,2088.6,3450.4,3434.6,1556.2,1412.2,1522.7,3439.5,956.0,1458.9,3435.8,3432.2,684.0,1329.6,893.2,549.8,1584.2,1769.5,3451.6,3443.1,685.6,1199.1,1303.4,1538.5,1206.2,1003.0,5.0,9.0,9.0,8110.0,11442.0,-6551.0,-5368.0,-3.0,2.0,7.0,-2.0,8.0,8.0,10116.0,11205.0,4285.0,4711.0,4.0,1.0,4.0,1.0
2022-05-06 12:44:42.734981-07:00,2143.3,688.0,1221.3,1544.1,908.4,1339.5,1756.0,2077.5,3450.4,3434.6,1556.2,1414.9,1522.7,3440.7,963.7,1458.0,3440.7,3438.2,691.3,1329.6,891.5,549.8,1584.2,1769.5,3444.3,3437.0,688.0,1199.1,1303.4,1538.5,1206.2,1003.0,-2.0,13.0,0.0,8112.0,11440.0,-6554.0,-5365.0,7.0,-9.0,8.0,-7.0,10.0,10.0,10115.0,11206.0,4286.0,4710.0,14.0,-7.0,-1.0,1.0
2022-05-06 12:44:42.824826-07:00,2142.2,679.1,1216.8,1547.8,916.9,1339.5,1756.0,2077.5,3443.1,3441.9,1554.3,1411.3,1502.3,3440.7,963.7,1458.0,3440.7,3438.2,691.3,1350.3,895.7,550.6,1581.4,1766.6,3444.3,3437.0,688.0,1192.0,1303.4,1535.7,1211.5,1000.5,2.0,3.0,13.0,8110.0,11437.0,-6560.0,-5370.0,3.0,-17.0,14.0,-8.0,0.0,11.0,10116.0,11205.0,4286.0,4710.0,3.0,-6.0,4.0,1.0
2022-05-06 12:44:42.826264-07:00,2142.2,679.1,1216.8,1547.8,922.8,1338.6,1764.6,2068.5,3443.1,3441.9,1554.3,1411.3,1496.7,3446.7,958.5,1462.6,3435.8,3435.8,682.3,1331.4,895.7,550.6,1581.4,1766.6,3435.8,3438.2,686.4,1191.2,1303.4,1535.7,1211.5,1000.5,4.0,6.0,11.0,8114.0,11432.0,-6563.0,-5371.0,-2.0,-3.0,6.0,-1.0,-3.0,8.0,10118.0,11203.0,4285.0,4711.0,-5.0,-2.0,1.0,1.0
2022-05-06 12:44:42.884303-07:00,2134.1,684.0,1230.2,1549.7,922.8,1338.6,1764.6,2068.5,3440.7,3439.5,1548.7,1411.3,1496.7,3446.7,958.5,1462.6,3435.8,3435.8,682.3,1331.4,892.4,549.0,1583.3,1772.3,3435.8,3438.2,686.4,1191.2,1292.7,1524.5,1217.7,997.0,3.0,13.0,9.0,8111.0,11433.0,-6564.0,-5371.0,8.0,-11.0,-11.0,0.0,9.0,12.0,10117.0,11204.0,4285.0,4711.0,3.0,-3.0,-5.0,1.0
2022-05-06 12:44:42.944288-07:00,2134.1,684.0,1230.2,1549.7,914.4,1335.0,1750.2,2065.5,3440.7,3439.5,1548.7,1411.3,1500.4,3440.7,967.9,1466.3,3441.9,3433.4,683.1,1332.3,892.4,549.0,1583.3,1772.3,3444.3,3451.6,686.4,1192.0,1292.7,1524.5,1217.7,997.0,-2.0,-4.0,7.0,8110.0,11432.0,-6565.0,-5372.0,-2.0,-11.0,15.0,-11.0,3.0,18.0,10117.0,11204.0,4285.0,4711.0,4.0,-7.0,6.0,1.0
2022-05-06 12:44:43.004107-07:00,2136.1,683.1,1227.5,1546.9,914.4,1335.0,1750.2,2065.5,3439.5,3441.9,1552.5,1419.5,1500.4,3440.7,967.9,1466.3,3441.9,3433.4,683.1,1332.3,888.2,545.8,1574.9,1763.7,3444.3,3451.6,686.4,1192.0,1295.4,1543.1,1212.4,997.9,0.0,8.0,12.0,8114.0,11430.0,-6569.0,-5367.0,4.0,4.0,15.0,-3.0,-1.0,14.0,10116.0,11205.0,4283.0,4713.0,3.0,-3.0,10.0,1.0
2022-05-06 12:44:43.033957-07:00,2136.1,683.1,1227.5,1546.9,913.5,1330.5,1743.5,2049.4,3439.5,3441.9,1552.5,1419.5,1500.4,3437.0,962.0,1460.8,3434.6,3441.9,682.3,1333.2,888.2,545.8,1574.9,1763.7,3447.9,3438.2,683.1,1189.4,1295.4,1543.1,1212.4,997.9,2.0,5.0,8.0,8108.0,11433.0,-6576.0,-5360.0,36.0,-9.0,9.0,-5.0,-3.0,12.0,10108.0,11212.0,4286.0,4710.0,37.0,-5.0,-4.0,1.0
2022-05-06 12:44:43.094334-07:00,2126.0,681.5,1221.3,1548.7,913.5,1330.5,1743.5,2048.4,3441.9,3443.1,1552.5,1407.6,1500.4,3437.0,962.0,1455.2,3438.2,3441.9,682.3,1333.2,894.9,551.4,1576.8,1763.7,3446.7,3438.2,683.1,1189.4,1311.5,1532.0,1216.8,995.3,4.0,14.0,4.0,8100.0,11431.0,-6589.0,-5361.0,-21.0,-22.0,13.0,-5.0,7.0,2.0,10103.0,11217.0,4288.0,4707.0,-17.0,-10.0,2.0,1.0
2022-05-06 12:44:43.154173-07:00,2118.9,681.5,1221.3,1548.7,913.5,1330.5,1738.7,2048.4,3441.9,3443.1,1552.5,1407.6,1496.7,3449.1,961.1,1455.2,3438.2,3440.7,684.0,1318.7,894.9,551.4,1576.8,1771.4,3446.7,3443.1,683.1,1186.7,1311.5,1532.0,1216.8,997.0,-1.0,6.0,14.0,8104.0,11426.0,-6589.0,-5364.0,7.0,-8.0,3.0,-6.0,4.0,14.0,10106.0,11214.0,4286.0,4709.0,8.0,-5.0,5.0,1.0
2022-05-06 12:44:43.184334-07:00,2118.9,683.1,1223.9,1545.9,913.5,1330.5,1738.7,2047.4,3441.9,3452.8,1554.3,1410.3,1496.7,3449.1,961.1,1461.7,3440.7,3440.7,684.0,1318.7,888.2,546.6,1575.8,1771.4,3440.7,3443.1,683.1,1186.7,1298.1,1537.6,1219.5,997.0,7.0,12.0,14.0,8104.0,11427.0,-6591.0,-5362.0,-2.0,13.0,8.0,-3.0,7.0,10.0,10104.0,11216.0,4287.0,4708.0,-8.0,-2.0,5.0,1.0
2022-05-06 12:44:43.244603-07:00,2125.0,683.1,1223.9,1545.9,921.1,1329.6,1739.7,2047.4,3445.5,3452.8,1554.3,1410.3,1500.4,3441.9,964.5,1461.7,3440.7,3440.7,684.0,1325.0,888.2,546.6,1575.8,1768.5,3440.7,3443.1,684.0,1185.9,1298.1,1537.6,1219.5,1001.3,5.0,4.0,8.0,8107.0,11425.0,-6589.0,-5364.0,-12.0,7.0,-4.0,-1.0,0.0,7.0,10105.0,11215.0,4287.0,4708.0,-7.0,-5.0,-1.0,1.0
2022-05-06 12:44:43.274284-07:00,2125.0,677.4,1226.6,1562.7,921.1,1329.6,1739.7,2038.4,3445.5,3449.1,1549.7,1415.8,1500.4,3441.9,964.5,1457.1,3438.2,3440.7,684.0,1325.0,893.2,547.4,1562.7,1768.5,3439.5,3443.1,684.0,1185.9,1300.7,1532.9,1209.7,1001.3,5.0,3.0,9.0,8106.0,11425.0,-6590.0,-5363.0,15.0,-1.0,2.0,-3.0,3.0,13.0,10105.0,11215.0,4287.0,4708.0,11.0,-3.0,-2.0,1.0
2022-05-06 12:44:43.334347-07:00,2123.0,684.8,1226.6,1562.7,918.6,1326.8,1725.3,2038.4,3449.1,3446.7,1549.7,1415.8,1500.4,3444.3,965.4,1457.1,3438.2,3439.5,683.1,1332.3,893.2,547.4,1564.6,1769.5,3439.5,3446.7,681.5,1178.8,1300.7,1532.9,1210.6,993.6,2.0,9.0,19.0,8106.0,11425.0,-6592.0,-5362.0,-13.0,6.0,6.0,-6.0,5.0,12.0,10104.0,11216.0,4287.0,4708.0,-14.0,-1.0,4.0,1.0
2022-05-06 12:44:43.423974-07:00,2123.0,684.8,1225.7,1547.8,918.6,1326.8,1728.2,2037.4,3449.1,3446.7,1546.9,1413.1,1500.4,3444.3,960.2,1449.7,3428.6,3433.4,683.1,1332.3,892.4,548.2,1564.6,1769.5,3440.7,3443.1,681.5,1178.8,1297.2,1529.2,1210.6,993.6,6.0,4.0,12.0,8107.0,11424.0,-6591.0,-5362.0,3.0,10.0,5.0,0.0,0.0,12.0,10105.0,11215.0,4287.0,4708.0,4.0,-2.0,1.0,1.0
2022-05-06 12:44:43.425363-07:00,2118.9,679.1,1225.7,1547.8,914.4,1329.6,1728.2,2037.4,3444.3,3441.9,1546.9,1413.1,1499.5,3438.2,960.2,1449.7,3428.6,3433.4,693.8,1330.5,892.4,548.2,1562.7,1771.4,3440.7,3443.1,679.9,1175.3,1297.2,1529.2,1222.2,997.0,4.0,1.0,9.0,8106.0,11424.0,-6592.0,-5363.0,3.0,-17.0,-4.0,0.0,-3.0,10.0,10105.0,11215.0,4287.0,4708.0,-2.0,-7.0,-3.0,1.0
2022-05-06 12:44:43.484612-07:00,2118.9,679.1,1224.8,1548.7,914.4,1329.6,1730.1,2038.4,3444.3,3441.9,1552.5,1409.4,1499.5,3438.2,961.1,1458.0,3444.3,3444.3,693.8,1330.5,892.4,548.2,1562.7,1771.4,3433.4,3438.2,679.9,1175.3,1301.6,1536.6,1222.2,997.0,0.0,15.0,13.0,8105.0,11423.0,-6596.0,-5361.0,13.0,2.0,7.0,-3.0,7.0,10.0,10105.0,11216.0,4287.0,4708.0,11.0,0.0,2.0,1.0
2022-05-06 12:44:43.544323-07:00,2109.8,675.0,1224.8,1548.7,915.2,1324.1,1730.1,2038.4,3441.9,3439.5,1552.5,1409.4,1500.4,3439.5,961.1,1458.0,3444.3,3444.3,679.1,1328.7,892.4,548.2,1557.1,1768.5,3433.4,3438.2,682.3,1180.6,1301.6,1536.6,1214.2,997.0,3.0,2.0,16.0,8104.0,11425.0,-6593.0,-5361.0,1.0,11.0,-7.0,-1.0,3.0,11.0,10104.0,11216.0,4287.0,4708.0,5.0,9.0,-2.0,1.0
2022-05-06 12:44:43.574602-07:00,2109.8,675.0,1233.7,1547.8,915.2,1315.1,1721.5,2027.4,3441.9,3439.5,1545.0,1413.1,1500.4,3439.5,959.4,1455.2,3438.2,3433.4,680.7,1328.7,890.7,547.4,1557.1,1768.5,3446.7,3443.1,679.9,1180.6,1300.7,1539.4,1214.2,997.0,5.0,16.0,11.0,8100.0,11428.0,-6596.0,-5358.0,5.0,-1.0,-2.0,-4.0,5.0,4.0,10100.0,11220.0,4289.0,4706.0,-1.0,-2.0,0.0,1.0
2022-05-06 12:44:43.634680-07:00,2109.8,676.6,1217.7,1547.8,913.5,1315.1,1721.5,2027.4,3445.5,3433.4,1544.1,1413.1,1494.0,3439.5,959.4,1455.2,3438.2,3433.4,680.7,1324.1,890.7,547.4,1555.3,1771.4,3446.7,3443.1,679.9,1176.2,1300.7,1531.0,1208.0,998.7,0.0,2.0,13.0,8098.0,11428.0,-6598.0,-5360.0,16.0,-14.0,4.0,-9.0,-2.0,10.0,10100.0,11220.0,4289.0,4706.0,8.0,-10.0,2.0,1.0
2022-05-06 12:44:43.694302-07:00,2109.8,676.6,1217.7,1551.5,913.5,1320.5,1711.9,2024.4,3445.5,3433.4,1544.1,1414.9,1494.0,3438.2,958.5,1455.2,3439.5,3427.4,685.6,1324.1,894.9,547.4,1555.3,1771.4,3445.5,3439.5,684.0,1176.2,1302.5,1531.0,1208.0,998.7,5.0,9.0,14.0,8099.0,11425.0,-6599.0,-5363.0,-14.0,-2.0,11.0,-2.0,4.0,8.0,10102.0,11218.0,4286.0,4708.0,-9.0,-4.0,5.0,1.0
2022-05-06 12:44:43.724159-07:00,2105.8,675.8,1225.7,1551.5,910.1,1320.5,1711.9,2024.4,3438.2,3431.0,1538.5,1414.9,1496.7,3438.2,958.5,1455.2,3439.5,3427.4,685.6,1332.3,894.9,548.2,1552.5,1770.4,3445.5,3439.5,684.0,1178.8,1302.5,1539.4,1212.4,998.7,8.0,11.0,12.0,8099.0,11425.0,-6601.0,-5362.0,16.0,-6.0,-4.0,0.0,4.0,11.0,10102.0,11218.0,4286.0,4708.0,5.0,-1.0,-4.0,1.0
2022-05-06 12:44:43.784151-07:00,2105.8,675.8,1225.7,1546.9,910.1,1332.3,1716.7,2025.4,3438.2,3431.0,1538.5,1412.2,1496.7,3441.9,952.6,1464.4,3443.1,3437.0,679.1,1332.3,894.1,548.2,1552.5,1770.4,3441.9,3439.5,679.1,1178.8,1298.1,1539.4,1212.4,998.7,2.0,2.0,14.0,8097.0,11427.0,-6598.0,-5364.0,1.0,2.0,-9.0,-5.0,1.0,12.0,10102.0,11218.0,4286.0,4708.0,-1.0,-1.0,-9.0,1.0
2022-05-06 12:44:43.874217-07:00,2105.8,675.8,1225.7,1546.9,914.4,1332.3,1716.7,2025.4,3443.1,3435.8,1546.9,1412.2,1504.1,3441.9,952.6,1464.4,3443.1,3437.0,679.1,1326.8,894.1,548.2,1553.4,1770.4,3441.9,3439.5,679.1,1172.6,1298.1,1541.3,1213.3,997.9,6.0,8.0,14.0,8097.0,11427.0,-6600.0,-5362.0,-1.0,9.0,13.0,-2.0,2.0,10.0,10101.0,11219.0,4286.0,4708.0,5.0,5.0,11.0,1.0
2022-05-06 12:44:43.875344-07:00,2105.8,675.8,1225.7,1545.0,910.1,1319.6,1716.7,2027.4,3443.1,3435.8,1546.9,1409.4,1494.9,3437.0,961.1,1461.7,3428.6,3441.9,679.1,1320.5,893.2,548.2,1553.4,1770.4,3428.6,3438.2,683.1,1182.3,1300.7,1541.3,1213.3,997.9,4.0,10.0,11.0,8100.0,11424.0,-6601.0,-5362.0,8.0,-12.0,-3.0,-2.0,2.0,12.0,10103.0,11218.0,4285.0,4709.0,-4.0,-2.0,2.0,1.0
2022-05-06 12:44:43.934225-07:00,2119.9,674.2,1231.9,1556.2,910.1,1319.6,1716.7,2027.4,3443.1,3445.5,1544.1,1412.2,1494.9,3437.0,961.1,1461.7,3428.6,3441.9,679.1,1320.5,891.5,546.6,1551.5,1774.3,3428.6,3438.2,683.1,1182.3,1303.4,1533.8,1215.1,991.9,3.0,1.0,16.0,8099.0,11423.0,-6603.0,-5364.0,-1.0,2.0,3.0,-7.0,-1.0,13.0,10103.0,11218.0,4285.0,4709.0,1.0,-2.0,-3.0,1.0
2022-05-06 12:44:43.994460-07:00,2119.9,674.2,1231.9,1556.2,921.1,1314.2,1718.6,2015.4,3443.1,3445.5,1544.1,1412.2,1495.8,3433.4,958.5,1463.5,3441.9,3444.3,677.4,1324.1,891.5,546.6,1551.5,1774.3,3434.6,3440.7,680.7,1165.6,1303.4,1533.8,1215.1,991.9,2.0,7.0,10.0,8100.0,11422.0,-6603.0,-5363.0,-6.0,3.0,6.0,0.0,8.0,15.0,10103.0,11218.0,4285.0,4709.0,-1.0,1.0,-1.0,1.0
2022-05-06 12:44:44.023859-07:00,2099.7,670.9,1214.2,1556.2,921.1,1314.2,1718.6,2015.4,3441.9,3433.4,1529.2,1407.6,1495.8,3433.4,958.5,1463.5,3441.9,3444.3,677.4,1324.1,890.7,545.8,1547.8,1768.5,3434.6,3440.7,680.7,1165.6,1296.3,1532.0,1209.7,1001.3,7.0,10.0,14.0,8100.0,11423.0,-6602.0,-5362.0,0.0,10.0,-7.0,-4.0,5.0,14.0,10101.0,11219.0,4286.0,4708.0,0.0,-1.0,-1.0,1.0
2022-05-06 12:44:44.084195-07:00,2099.7,670.9,1214.2,1556.2,916.0,1306.1,1714.8,2011.4,3441.9,3433.4,1529.2,1407.6,1504.1,3438.2,961.1,1455.2,3434.6,3438.2,680.7,1325.0,890.7,545.8,1547.8,1768.5,3451.6,3438.2,694.6,1167.4,1296.3,1532.0,1209.7,1001.3,4.0,8.0,7.0,8100.0,11423.0,-6602.0,-5361.0,9.0,-2.0,-1.0,-4.0,3.0,12.0,10101.0,11219.0,4286.0,4708.0,8.0,-2.0,0.0,1.0
2022-05-06 12:44:44.144452-07:00,2097.7,670.1,1220.4,1548.7,916.0,1306.1,1714.8,2006.4,3449.1,3443.1,1536.6,1414.0,1504.1,3438.2,961.1,1458.0,3434.6,3438.2,680.7,1325.0,895.7,543.4,1548.7,1765.6,3444.3,3438.2,694.6,1167.4,1295.4,1533.8,1216.8,997.0,2.0,1.0,15.0,8101.0,11422.0,-6602.0,-5362.0,-9.0,1.0,12.0,-5.0,0.0,14.0,10100.0,11220.0,4286.0,4708.0,-9.0,-1.0,5.0,1.0
2022-05-06 12:44:44.174388-07:00,2092.6,670.1,1220.4,1548.7,909.3,1318.7,1717.7,2006.4,3434.6,3443.1,1536.6,1414.0,1496.7,3440.7,962.0,1458.0,3434.6,3426.2,686.4,1323.2,895.7,543.4,1548.7,1770.4,3444.3,3438.2,681.5,1175.3,1295.4,1533.8,1216.8,996.2,3.0,12.0,4.0,8105.0,11414.0,-6611.0,-5361.0,-34.0,-37.0,32.0,-3.0,11.0,8.0,10101.0,11220.0,4285.0,4707.0,-14.0,-11.0,5.0,1.0
2022-05-06 12:44:44.234156-07:00,2092.6,671.7,1223.9,1545.0,909.3,1318.7,1717.7,2020.4,3434.6,3434.6,1539.4,1404.9,1496.7,3440.7,962.0,1459.8,3435.8,3426.2,686.4,1323.2,893.2,545.8,1543.1,1770.4,3440.7,3438.2,681.5,1175.3,1294.5,1545.9,1216.0,996.2,9.0,13.0,20.0,8110.0,11399.0,-6623.0,-5371.0,-24.0,-18.0,9.0,1.0,0.0,12.0,10108.0,11217.0,4279.0,4705.0,-27.0,-12.0,6.0,1.0
2022-05-06 12:44:44.324113-07:00,2097.7,671.7,1223.9,1545.0,914.4,1314.2,1709.1,2020.4,3433.4,3434.6,1539.4,1404.9,1491.2,3450.4,962.0,1459.8,3435.8,3441.9,683.1,1324.1,893.2,545.8,1543.1,1768.5,3440.7,3439.5,679.1,1174.4,1294.5,1545.9,1216.0,991.9,3.0,4.0,24.0,8112.0,11396.0,-6623.0,-5375.0,45.0,-13.0,7.0,3.0,1.0,15.0,10111.0,11215.0,4276.0,4704.0,45.0,3.0,2.0,1.0
2022-05-06 12:44:44.384882-07:00,2097.7,662.7,1220.4,1546.9,914.4,1314.2,1709.1,2001.5,3433.4,3435.8,1542.2,1402.1,1491.2,3450.4,962.0,1460.8,3441.9,3441.9,683.1,1324.1,883.1,549.8,1546.9,1768.5,3438.2,3439.5,679.1,1174.4,1295.4,1535.7,1213.3,991.9,1.0,8.0,14.0,8117.0,11394.0,-6622.0,-5372.0,-39.0,43.0,-13.0,-8.0,2.0,9.0,10106.0,11220.0,4278.0,4702.0,-31.0,5.0,-1.0,1.0
2022-05-06 12:44:44.385828-07:00,2091.6,662.7,1220.4,1546.9,916.0,1314.2,1701.4,2001.5,3445.5,3435.8,1542.2,1402.1,1499.5,3433.4,962.0,1460.8,3441.9,3431.0,677.4,1317.8,883.1,549.8,1546.9,1773.3,3438.2,3441.9,677.4,1160.3,1295.4,1535.7,1213.3,995.3,0.0,2.0,8.0,8122.0,11401.0,-6613.0,-5362.0,37.0,1.0,24.0,-2.0,1.0,17.0,10104.0,11221.0,4281.0,4703.0,35.0,5.0,-1.0,1.0
2022-05-06 12:44:44.444427-07:00,2091.6,665.2,1228.4,1543.1,916.0,1314.2,1709.1,1992.5,3445.5,3439.5,1539.4,1409.4,1499.5,3433.4,960.2,1454.3,3435.8,3432.2,677.4,1317.8,889.0,545.8,1543.1,1773.3,3444.3,3437.0,677.4,1160.3,1296.3,1541.3,1207.1,995.3,5.0,19.0,3.0,8122.0,11392.0,-6629.0,-5362.0,-22.0,-50.0,35.0,-4.0,9.0,0.0,10102.0,11224.0,4281.0,4701.0,-27.0,-22.0,5.0,1.0
2022-05-06 12:44:44.504047-07:00,2088.6,673.3,1228.4,1543.1,916.9,1311.5,1709.1,1992.5,3428.6,3444.3,1539.4,1409.4,1495.8,3444.3,960.2,1454.3,3435.8,3432.2,684.0,1316.9,889.0,545.8,1544.1,1763.7,3444.3,3437.0,677.4,1168.2,1296.3,1541.3,1217.7,994.5,2.0,0.0,22.0,8130.0,11377.0,-6631.0,-5378.0,-25.0,-23.0,-4.0,-5.0,-4.0,24.0,10113.0,11217.0,4273.0,4700.0,-15.0,-8.0,1.0,1.0
2022-05-06 12:44:44.534085-07:00,2088.6,673.3,1216.8,1545.9,916.9,1311.5,1712.9,1992.5,3428.6,3444.3,1536.6,1401.2,1495.8,3444.3,957.7,1451.6,3435.8,3441.9,684.0,1316.9,891.5,549.8,1544.1,1763.7,3439.5,3438.2,677.4,1168.2,1293.6,1532.0,1217.7,994.5,5.0,16.0,14.0,8132.0,11373.0,-6631.0,-5382.0,8.0,6.0,-16.0,0.0,7.0,15.0,10114.0,11216.0,4272.0,4701.0,1.0,9.0,-1.0,1.0
2022-05-06 12:44:44.594473-07:00,2099.7,670.9,1216.8,1545.9,915.2,1305.2,1712.9,1992.5,3444.3,3445.5,1536.6,1401.2,1493.0,3440.7,957.7,1451.6,3435.8,3441.9,686.4,1325.9,891.5,549.8,1541.3,1763.7,3439.5,3438.2,686.4,1166.5,1293.6,1532.0,1210.6,997.0,2.0,5.0,8.0,8130.0,11378.0,-6625.0,-5383.0,26.0,14.0,-14.0,-2.0,4.0,12.0,10111.0,11218.0,4273.0,4700.0,19.0,7.0,-12.0,1.0
2022-05-06 12:44:44.624137-07:00,2099.7,670.9,1226.6,1544.1,915.2,1305.2,1704.3,2000.5,3444.3,3445.5,1538.5,1415.8,1493.0,3440.7,958.5,1456.2,3445.5,3444.3,686.4,1325.9,891.5,546.6,1541.3,1763.7,3438.2,3444.3,686.4,1166.5,1296.3,1524.5,1210.6,997.0,6.0,-16.0,-12.0,8119.0,11382.0,-6635.0,-5380.0,93.0,-55.0,23.0,5.0,-36.0,27.0,10101.0,11228.0,4282.0,4692.0,96.0,2.0,-17.0,1.0
2022-05-06 12:44:44.684319-07:00,2089.6,668.4,1223.9,1544.1,918.6,1323.2,1704.3,2000.5,3433.4,3445.5,1527.3,1415.8,1498.6,3440.7,958.5,1456.2,3445.5,3444.3,684.8,1336.8,891.5,552.2,1604.0,1761.8,3438.2,3444.3,683.1,1168.2,1296.3,1537.6,1209.7,998.7,51.0,-23.0,-11.0,7991.0,11369.0,-6788.0,-5409.0,175.0,-451.0,250.0,27.0,20.0,-10.0,10014.0,11293.0,4343.0,4664.0,243.0,74.0,-11.0,1.0
2022-05-06 12:44:44.714383-07:00,2089.6,668.4,1223.9,1554.3,918.6,1426.8,1734.9,2049.4,3433.4,3445.5,1527.3,1412.2,1498.6,3435.8,956.8,1457.1,3444.3,3438.2,679.1,1336.8,894.1,552.2,1604.0,1761.8,3447.9,3439.5,692.9,1168.2,1298.1,1537.6,1209.7,998.7,-9.0,-51.0,18.0,8028.0,11223.0,-6955.0,-5446.0,-365.0,-275.0,455.0,-1.0,9.0,44.0,9969.0,11317.0,4377.0,4671.0,-14.0,68.0,-12.0,1.0
2022-05-06 12:44:44.774334-07:00,2220.9,692.1,1224.8,1554.3,915.2,1426.8,1734.9,2049.4,3439.5,3444.3,1492.1,1412.2,1501.4,3435.8,956.8,1457.1,3444.3,3438.2,679.1,1328.7,894.1,546.6,2332.6,1765.6,3447.9,3439.5,692.9,1443.3,1298.1,1532.0,1219.5,994.5,-34.0,-14.0,-43.0,8029.0,11035.0,-7272.0,-5415.0,440.0,-676.0,859.0,-28.0,27.0,10.0,9899.0,11359.0,4403.0,4694.0,381.0,75.0,106.0,1.0
2022-05-06 12:44:44.834213-07:00,2220.9,692.1,1224.8,1548.7,915.2,1731.1,1598.3,1925.2,3439.5,3444.3,1492.1,1415.8,1501.4,3438.2,962.8,1465.4,3441.9,3439.5,677.4,1328.7,884.8,546.6,2332.6,1765.6,3450.4,3433.4,750.5,1443.3,1298.1,1532.0,1219.5,994.5,-18.0,20.0,0.0,7951.0,10782.0,-7730.0,-5406.0,-85.0,-634.0,889.0,-28.0,37.0,16.0,9805.0,11433.0,4412.0,4704.0,87.0,14.0,95.0,1.0
2022-05-06 12:44:44.864284-07:00,2346.2,742.2,1221.3,1548.7,912.7,1731.1,1598.3,1925.2,3435.8,3438.2,1477.3,1415.8,1494.9,3438.2,962.8,1465.4,3441.9,3439.5,677.4,1317.8,884.8,555.4,2172.8,1767.5,3450.4,3433.4,750.5,1541.3,1298.1,1539.4,1214.2,996.2,20.0,34.0,37.0,7976.0,10491.0,-8069.0,-5444.0,-44.0,-534.0,679.0,-8.0,-1.0,2.0,9816.0,11423.0,4365.0,4746.0,-98.0,-27.0,145.0,1.0
2022-05-06 12:44:44.924119-07:00,2346.2,742.2,1221.3,1545.0,912.7,1805.2,1456.2,1619.9,3435.8,3438.2,1477.3,1406.7,1498.6,3445.5,956.8,1454.3,3444.3,3441.9,679.1,1340.4,897.4,555.4,2172.8,1767.5,3440.7,3444.3,743.9,1481.9,1299.8,1539.4,1214.2,996.2,33.0,99.0,117.0,7963.0,10398.0,-8206.0,-5438.0,-127.0,11.0,74.0,18.0,35.0,62.0,9804.0,11438.0,4332.0,4766.0,9.0,0.0,25.0,1.0
2022-05-06 12:44:44.984807-07:00,2382.9,752.1,1224.8,1558.1,912.7,1805.2,1456.2,1619.9,3443.1,3445.5,1470.9,1411.3,1498.6,3445.5,956.8,1454.3,3444.3,3441.9,679.1,1340.4,898.3,553.0,2100.7,1771.4,3440.7,3444.3,743.9,1481.9,1303.4,1537.6,1208.9,994.5,-12.0,-17.0,17.0,8025.0,10420.0,-8131.0,-5417.0,78.0,213.0,-72.0,-5.0,-11.0,43.0,9783.0,11441.0,4369.0,4768.0,218.0,88.0,-56.0,1.0
2022-05-06 12:44:45.014631-07:00,2382.9,752.1,1224.8,1558.1,911.0,1719.6,1404.9,1557.1,3443.1,3445.5,1470.9,1411.3,1491.2,3435.8,955.1,1458.0,3446.7,3441.9,683.1,1337.7,898.3,553.0,2100.7,1771.4,3449.1,3438.2,732.3,1447.9,1303.4,1537.6,1208.9,994.5,-13.0,-6.0,-49.0,8007.0,10439.0,-8167.0,-5352.0,63.0,14.0,157.0,-20.0,1.0,-30.0,9700.0,11492.0,4436.0,4755.0,136.0,56.0,-21.0,1.0
2022-05-06 12:44:45.104228-07:00,2367.2,743.0,1230.2,1545.0,911.0,1719.6,1404.9,1557.1,3433.4,3447.9,1455.2,1413.1,1491.2,3435.8,955.1,1458.0,3446.7,3441.9,683.1,1337.7,909.3,556.2,2075.5,1761.8,3449.1,3438.2,732.3,1447.9,1304.3,1555.3,1210.6,986.7,8.0,21.0,-19.0,8015.0,10388.0,-8215.0,-5366.0,-72.0,-172.0,72.0,-9.0,17.0,-40.0,9702.0,11489.0,4429.0,4761.0,-57.0,-45.0,37.0,1.0
2022-05-06 12:44:45.134438-07:00,2367.2,743.0,1230.2,1545.0,914.4,1711.0,1374.8,1531.0,3433.4,3447.9,1455.2,1413.1,1494.9,3431.0,957.7,1460.8,3437.0,3433.4,679.1,1338.6,909.3,556.2,2075.5,1761.8,3444.3,3433.4,731.5,1444.2,1304.3,1555.3,1210.6,986.7,2.0,-2.0,44.0,8039.0,10329.0,-8229.0,-5422.0,-164.0,-127.0,81.0,-2.0,-15.0,45.0,9747.0,11466.0,4390.0,4765.0,-154.0,-45.0,26.0,1.0
2022-05-06 12:44:45.164250-07:00,2354.6,731.5,1231.9,1545.0,914.4,1711.0,1374.8,1531.0,3439.5,3444.3,1455.2,1416.7,1494.9,3431.0,957.7,1460.8,3437.0,3433.4,679.1,1338.6,906.7,555.4,2067.5,1772.3,3444.3,3433.4,731.5,1444.2,1293.6,1533.8,1216.8,986.7,8.0,19.0,38.0,8029.0,10286.0,-8279.0,-5445.0,116.0,-160.0,35.0,4.0,3.0,24.0,9761.0,11458.0,4373.0,4770.0,38.0,-6.0,13.0,1.0
2022-05-06 12:44:45.224626-07:00,2346.2,731.5,1231.9,1545.0,921.1,1675.7,1367.6,1523.6,3429.8,3444.3,1455.2,1416.7,1500.4,3440.7,954.3,1460.8,3434.6,3439.5,679.9,1335.0,906.7,555.4,2067.5,1766.6,3449.1,3451.6,739.7,1437.8,1293.6,1533.8,1216.8,988.5,4.0,22.0,14.0,7987.0,10303.0,-8298.0,-5445.0,77.0,5.0,-62.0,-3.0,17.0,15.0,9749.0,11465.0,4385.0,4767.0,24.0,27.0,-25.0,1.0
2022-05-06 12:44:45.284057-07:00,2346.2,728.2,1217.7,1545.0,921.1,1675.7,1367.6,1519.0,3429.8,3439.5,1451.6,1411.3,1500.4,3440.7,954.3,1461.7,3439.5,3439.5,679.9,1335.0,905.0,560.2,2038.4,1766.6,3438.2,3451.6,739.7,1437.8,1296.3,1528.3,1209.7,988.5,-7.0,-17.0,-20.0,7962.0,10326.0,-8299.0,-5436.0,109.0,-35.0,-3.0,-8.0,10.0,-2.0,9735.0,11473.0,4397.0,4765.0,76.0,9.0,6.0,1.0
2022-05-06 12:44:45.344645-07:00,2336.8,728.2,1217.7,1545.0,920.3,1672.9,1362.1,1519.0,3445.5,3439.5,1451.6,1411.3,1492.1,3443.1,962.0,1461.7,3439.5,3439.5,679.1,1343.1,905.0,560.2,2038.4,1766.6,3438.2,3446.7,730.7,1434.1,1296.3,1528.3,1209.7,986.7,-2.0,6.0,11.0,7947.0,10308.0,-8332.0,-5441.0,-67.0,-82.0,86.0,-11.0,4.0,11.0,9735.0,11476.0,4395.0,4760.0,-54.0,-16.0,7.0,1.0
2022-05-06 12:44:45.374179-07:00,2336.8,724.1,1224.8,1557.1,920.3,1672.9,1362.1,1503.2,3445.5,3443.1,1474.6,1405.8,1492.1,3443.1,962.0,1457.1,3438.2,3439.5,679.1,1343.1,907.6,557.8,2023.4,1766.6,3440.7,3446.7,730.7,1434.1,1294.5,1532.9,1206.2,986.7,7.0,18.0,17.0,7958.0,10274.0,-8352.0,-5458.0,6.0,-43.0,17.0,-2.0,4.0,12.0,9751.0,11467.0,4379.0,4763.0,-9.0,-22.0,17.0,1.0
2022-05-06 12:44:45.434120-07:00,2313.9,724.1,1224.8,1557.1,911.8,1656.8,1352.1,1503.2,3443.1,3443.1,1474.6,1405.8,1493.0,3445.5,960.2,1457.1,3438.2,3446.7,682.3,1344.0,907.6,557.8,2023.4,1762.7,3440.7,3444.3,732.3,1423.1,1294.5,1532.9,1206.2,991.0,8.0,17.0,22.0,7970.0,10267.0,-8347.0,-5461.0,-19.0,25.0,4.0,-1.0,6.0,25.0,9757.0,11462.0,4375.0,4765.0,-2.0,10.0,-7.0,1.0
2022-05-06 12:44:45.494210-07:00,2313.9,726.6,1218.6,1543.1,911.8,1656.8,1354.0,1497.7,3443.1,3438.2,1450.6,1410.3,1493.0,3445.5,956.0,1459.8,3439.5,3428.6,682.3,1344.0,905.0,556.2,2016.4,1762.7,3443.1,3443.1,732.3,1423.1,1298.1,1539.4,1207.1,991.0,2.0,9.0,0.0,7965.0,10272.0,-8346.0,-5462.0,25.0,-10.0,-37.0,-4.0,16.0,-5.0,9750.0,11465.0,4385.0,4765.0,39.0,12.0,-14.0,1.0
2022-05-06 12:44:45.554078-07:00,2308.7,732.3,1218.6,1543.1,911.8,1658.7,1354.0,1497.7,3435.8,3441.9,1450.6,1410.3,1490.3,3440.7,956.0,1459.8,3439.5,3428.6,685.6,1331.4,905.0,556.2,2010.4,1766.6,3443.1,3443.1,733.2,1419.5,1298.1,1539.4,1214.2,986.7,-1.0,-4.0,1.0,7966.0,10271.0,-8344.0,-5464.0,-12.0,-7.0,37.0,-8.0,0.0,7.0,9749.0,11465.0,4389.0,4762.0,-2.0,-2.0,0.0,1.0
2022-05-06 12:44:45.614025-07:00,2308.7,732.3,1219.5,1544.1,911.8,1658.7,1344.9,1494.0,3435.8,3441.9,1444.2,1408.5,1490.3,3440.7,959.4,1464.4,3449.1,3437.0,685.6,1331.4,906.7,558.6,2010.4,1766.6,3444.3,3438.2,733.2,1419.5,1299.0,1525.5,1214.2,986.7,-3.0,15.0,-4.0,7970.0,10250.0,-8364.0,-5466.0,-16.0,-54.0,42.0,-5.0,4.0,6.0,9752.0,11464.0,4381.0,4765.0,-20.0,-16.0,20.0,1.0
2022-05-06 12:44:45.616363-07:00,2302.5,716.7,1219.5,1544.1,914.4,1641.6,1344.9,1494.0,3439.5,3444.3,1444.2,1408.5,1500.4,3441.9,959.4,1464.4,3449.1,3437.0,682.3,1339.5,906.7,558.6,2000.5,1762.7,3444.3,3438.2,732.3,1426.8,1299.0,1525.5,1208.9,985.9,-1.0,7.0,25.0,7984.0,10239.0,-8353.0,-5484.0,-88.0,28.0,-37.0,-2.0,0.0,33.0,9768.0,11454.0,4372.0,4764.0,-58.0,-10.0,-14.0,1.0
2022-05-06 12:44:45.704148-07:00,2302.5,716.7,1216.0,1545.9,914.4,1641.6,1345.8,1500.4,3439.5,3444.3,1445.1,1411.3,1500.4,3441.9,959.4,1461.7,3435.8,3440.7,682.3,1339.5,905.0,549.8,2000.5,1762.7,3439.5,3446.7,732.3,1426.8,1308.8,1529.2,1208.9,985.9,8.0,25.0,17.0,7968.0,10250.0,-8358.0,-5480.0,90.0,-3.0,-15.0,-2.0,17.0,8.0,9760.0,11461.0,4376.0,4761.0,65.0,6.0,1.0,1.0
2022-05-06 12:44:45.734202-07:00,2308.7,721.6,1216.0,1545.9,910.1,1636.9,1345.8,1500.4,3440.7,3443.1,1445.1,1411.3,1494.0,3434.6,959.4,1461.7,3435.8,3440.7,681.5,1335.9,905.0,549.8,1999.5,1766.6,3439.5,3446.7,731.5,1413.1,1308.8,1529.2,1208.9,980.7,-5.0,3.0,-3.0,7978.0,10258.0,-8337.0,-5484.0,-50.0,26.0,-47.0,-4.0,-10.0,10.0,9770.0,11452.0,4373.0,4764.0,-39.0,-1.0,-7.0,1.0
2022-05-06 12:44:45.764346-07:00,2308.7,721.6,1223.9,1545.9,910.1,1625.6,1350.3,1484.7,3440.7,3443.1,1450.6,1413.1,1494.0,3440.7,956.0,1465.4,3445.5,3434.6,679.9,1335.9,907.6,554.6,1999.5,1766.6,3443.1,3438.2,725.8,1413.1,1299.0,1532.9,1208.9,980.7,1.0,-3.0,9.0,7971.0,10268.0,-8328.0,-5487.0,25.0,0.0,-9.0,-4.0,8.0,15.0,9766.0,11456.0,4377.0,4761.0,23.0,4.0,-8.0,1.0
2022-05-06 12:44:45.854172-07:00,2291.0,721.6,1213.3,1545.9,913.5,1625.6,1350.3,1484.7,3438.2,3440.7,1440.5,1413.1,1494.0,3440.7,956.0,1465.4,3445.5,3434.6,679.9,1333.2,907.6,556.2,2004.5,1768.5,3443.1,3438.2,725.8,1411.3,1299.0,1531.0,1210.6,988.5,2.0,25.0,15.0,7972.0,10266.0,-8330.0,-5487.0,-9.0,14.0,-18.0,-3.0,7.0,13.0,9769.0,11454.0,4376.0,4760.0,-5.0,0.0,2.0,1.0
2022-05-06 12:44:45.884091-07:00,2291.0,721.6,1213.3,1544.1,913.5,1627.5,1337.7,1482.9,3438.2,3440.7,1440.5,1407.6,1494.0,3443.1,960.2,1461.7,3441.9,3439.5,680.7,1333.2,910.1,556.2,2004.5,1768.5,3445.5,3432.2,724.9,1411.3,1299.8,1531.0,1210.6,988.5,1.0,-8.0,9.0,7980.0,10275.0,-8312.0,-5486.0,35.0,19.0,-17.0,0.0,-4.0,16.0,9769.0,11452.0,4379.0,4763.0,35.0,24.0,2.0,1.0
2022-05-06 12:44:45.914093-07:00,2289.0,719.2,1212.4,1544.1,911.0,1627.5,1337.7,1482.9,3434.6,3429.8,1440.5,1407.6,1494.0,3443.1,960.2,1461.7,3441.9,3439.5,680.7,1337.7,910.1,560.2,1991.5,1768.5,3445.5,3432.2,724.9,1409.4,1299.8,1532.9,1210.6,991.9,1.0,18.0,0.0,7965.0,10283.0,-8324.0,-5473.0,30.0,-31.0,19.0,-9.0,12.0,-4.0,9757.0,11461.0,4385.0,4760.0,12.0,-15.0,6.0,1.0
2022-05-06 12:44:45.973977-07:00,2289.0,719.2,1212.4,1543.1,911.0,1620.9,1331.4,1484.7,3434.6,3429.8,1440.5,1413.1,1494.0,3444.3,963.7,1461.7,3444.3,3440.7,684.8,1337.7,900.8,560.2,1991.5,1768.5,3454.0,3446.7,724.9,1409.4,1303.4,1532.9,1210.6,991.9,-1.0,8.0,13.0,7967.0,10278.0,-8325.0,-5479.0,-17.0,-7.0,-17.0,-6.0,2.0,19.0,9766.0,11453.0,4382.0,4761.0,-12.0,-4.0,-2.0,1.0
2022-05-06 12:44:46.064072-07:00,2289.0,714.2,1216.0,1552.5,908.4,1620.9,1331.4,1484.7,3438.2,3445.5,1446.0,1412.2,1496.7,3444.3,963.7,1461.7,3444.3,3440.7,684.8,1335.0,910.1,559.4,1987.5,1765.6,3454.0,3446.7,724.9,1404.9,1300.7,1540.3,1232.8,982.5,7.0,12.0,7.0,7951.0,10281.0,-8335.0,-5482.0,22.0,-29.0,21.0,-3.0,12.0,7.0,9762.0,11457.0,4385.0,4759.0,3.0,-2.0,3.0,1.0
2022-05-06 12:44:46.065813-07:00,2289.0,714.2,1216.0,1552.5,921.1,1604.0,1338.6,1481.0,3438.2,3445.5,1446.0,1412.2,1494.0,3431.0,957.7,1458.9,3435.8,3434.6,681.5,1333.2,910.1,559.4,1987.5,1765.6,3451.6,3440.7,723.3,1399.4,1300.7,1540.3,1232.8,982.5,0.0,6.0,16.0,7951.0,10268.0,-8347.0,-5487.0,9.0,-32.0,31.0,-5.0,4.0,17.0,9767.0,11454.0,4383.0,4760.0,3.0,0.0,0.0,1.0
2022-05-06 12:44:46.123986-07:00,2279.6,716.7,1221.3,1556.2,921.1,1604.0,1338.6,1481.0,3441.9,3438.2,1443.3,1415.8,1494.0,3431.0,957.7,1458.9,3435.8,3434.6,681.5,1333.2,912.7,556.2,1975.6,1776.2,3451.6,3440.7,723.3,1399.4,1299.8,1529.2,1212.4,989.3,7.0,18.0,10.0,7954.0,10256.0,-8356.0,-5491.0,-20.0,15.0,-9.0,-4.0,10.0,2.0,9774.0,11448.0,4380.0,4762.0,-23.0,-10.0,1.0,1.0
2022-05-06 12:44:46.184144-07:00,2279.6,716.7,1221.3,1556.2,911.8,1607.7,1329.6,1472.7,3441.9,3438.2,1443.3,1415.8,1480.1,3432.2,956.0,1461.7,3433.4,3441.9,678.2,1327.8,912.7,556.2,1975.6,1776.2,3435.8,3449.1,725.8,1396.7,1299.8,1529.2,1212.4,989.3,2.0,4.0,11.0,7961.0,10256.0,-8348.0,-5493.0,23.0,-5.0,-5.0,-4.0,1.0,12.0,9775.0,11446.0,4380.0,4762.0,31.0,-2.0,-1.0,1.0
2022-05-06 12:44:46.214622-07:00,2273.4,714.2,1209.7,1548.7,911.8,1607.7,1329.6,1472.7,3438.2,3441.9,1433.2,1407.6,1480.1,3432.2,956.0,1461.7,3433.4,3441.9,678.2,1327.8,902.5,561.8,1981.6,1768.5,3435.8,3449.1,725.8,1396.7,1299.8,1534.8,1211.5,986.7,0.0,9.0,10.0,7954.0,10257.0,-8356.0,-5490.0,-16.0,3.0,20.0,-5.0,4.0,3.0,9774.0,11447.0,4381.0,4761.0,-34.0,-5.0,7.0,1.0
2022-05-06 12:44:46.364192-07:00,2274.5,714.2,1209.7,1548.7,912.7,1612.4,1329.6,1472.7,3440.7,3441.9,1433.2,1407.6,1489.3,3434.6,959.4,1456.2,3440.7,3439.5,680.7,1336.8,902.5,561.8,1981.6,1768.5,3433.4,3440.7,734.8,1404.0,1299.8,1534.8,1211.5,991.0,4.0,17.0,11.0,7962.0,10254.0,-8351.0,-5493.0,26.0,13.0,-38.0,-1.0,7.0,6.0,9780.0,11442.0,4379.0,4763.0,19.0,-8.0,0.0,1.0
2022-05-06 12:44:46.367061-07:00,2274.5,711.8,1214.2,1551.5,912.7,1612.4,1329.6,1480.1,3440.7,3445.5,1436.9,1414.0,1489.3,3434.6,959.4,1458.9,3440.7,3439.5,680.7,1336.8,900.0,561.8,1982.6,1768.5,3439.5,3440.7,734.8,1404.0,1301.6,1528.3,1209.7,991.0,3.0,-1.0,18.0,7974.0,10264.0,-8324.0,-5499.0,-60.0,58.0,-41.0,-4.0,0.0,17.0,9784.0,11439.0,4383.0,4760.0,-28.0,4.0,-19.0,1.0
2022-05-06 12:44:46.367919-07:00,2263.1,711.8,1214.2,1551.5,915.2,1605.8,1325.9,1480.1,3444.3,3445.5,1436.9,1414.0,1493.0,3438.2,961.1,1458.9,3440.7,3439.5,686.4,1324.1,900.0,561.8,1982.6,1762.7,3439.5,3438.2,728.2,1404.9,1301.6,1528.3,1209.7,989.3,1.0,0.0,-7.0,7981.0,10269.0,-8309.0,-5500.0,38.0,-30.0,-28.0,-3.0,1.0,-4.0,9788.0,11435.0,4386.0,4758.0,5.0,1.0,-6.0,1.0
2022-05-06 12:44:46.424842-07:00,2263.1,717.5,1219.5,1542.2,915.2,1605.8,1325.9,1470.9,3444.3,3441.9,1433.2,1404.9,1493.0,3438.2,961.1,1461.7,3434.6,3439.5,686.4,1324.1,904.2,561.8,1982.6,1762.7,3439.5,3438.2,728.2,1404.9,1299.0,1531.0,1208.9,989.3,1.0,1.0,13.0,7969.0,10274.0,-8313.0,-5502.0,-37.0,2.0,22.0,-8.0,1.0,14.0,9789.0,11434.0,4385.0,4759.0,-32.0,4.0,10.0,1.0
2022-05-06 12:44:46.484109-07:00,2265.2,717.5,1219.5,1542.2,915.2,1599.3,1328.7,1470.9,3443.1,3441.9,1433.2,1404.9,1489.3,3441.9,965.4,1461.7,3434.6,3438.2,680.7,1325.9,904.2,561.8,1982.6,1765.6,3439.5,3444.3,726.6,1400.3,1299.0,1531.0,1208.9,981.6,5.0,13.0,10.0,7968.0,10266.0,-8322.0,-5504.0,52.0,-46.0,15.0,0.0,12.0,10.0,9789.0,11433.0,4385.0,4760.0,35.0,-2.0,2.0,1.0
2022-05-06 12:44:46.514461-07:00,2265.2,715.1,1211.5,1540.3,915.2,1599.3,1328.7,1461.7,3443.1,3441.9,1433.2,1410.3,1489.3,3441.9,965.4,1458.9,3445.5,3438.2,680.7,1325.9,900.0,561.0,1967.7,1765.6,3445.5,3444.3,726.6,1400.3,1293.6,1532.9,1210.6,981.6,0.0,7.0,11.0,7958.0,10260.0,-8338.0,-5507.0,-2.0,-28.0,20.0,-8.0,4.0,12.0,9788.0,11435.0,4386.0,4758.0,-9.0,-4.0,-3.0,1.0
2022-05-06 12:44:46.574188-07:00,2265.2,706.0,1211.5,1540.3,911.8,1604.9,1325.0,1461.7,3433.4,3435.8,1433.2,1410.3,1490.3,3435.8,957.7,1458.9,3445.5,3439.5,679.1,1332.3,900.0,561.0,1959.8,1768.5,3445.5,3441.9,724.9,1392.1,1293.6,1532.9,1205.3,996.2,2.0,14.0,3.0,7956.0,10253.0,-8347.0,-5509.0,-23.0,-4.0,0.0,4.0,0.0,9.0,9789.0,11433.0,4386.0,4759.0,-13.0,0.0,6.0,1.0
2022-05-06 12:44:46.634274-07:00,2265.2,706.0,1218.6,1553.4,911.8,1604.9,1330.5,1476.4,3433.4,3435.8,1424.1,1408.5,1490.3,3435.8,956.8,1457.1,3428.6,3446.7,679.1,1332.3,907.6,557.8,1959.8,1768.5,3437.0,3437.0,724.9,1392.1,1290.0,1532.0,1205.3,996.2,2.0,10.0,9.0,7957.0,10250.0,-8349.0,-5510.0,21.0,-27.0,25.0,0.0,7.0,15.0,9792.0,11431.0,4385.0,4760.0,16.0,-1.0,5.0,1.0
2022-05-06 12:44:46.664273-07:00,2266.2,719.2,1218.6,1553.4,916.0,1592.7,1330.5,1476.4,3438.2,3433.4,1424.1,1408.5,1484.7,3443.1,956.8,1457.1,3428.6,3446.7,679.1,1331.4,907.6,557.8,1950.9,1763.7,3437.0,3437.0,724.9,1395.7,1290.0,1532.0,1203.5,991.0,4.0,18.0,16.0,7959.0,10239.0,-8360.0,-5509.0,-22.0,27.0,4.0,-5.0,-3.0,10.0,9795.0,11429.0,4384.0,4760.0,-17.0,0.0,5.0,1.0
2022-05-06 12:44:46.724064-07:00,2266.2,719.2,1210.6,1541.3,916.0,1592.7,1316.9,1470.9,3438.2,3433.4,1437.8,1408.5,1484.7,3443.1,954.3,1458.9,3433.4,3441.9,679.1,1331.4,905.0,559.4,1950.9,1763.7,3439.5,3440.7,724.9,1395.7,1299.8,1535.7,1203.5,991.0,5.0,-10.0,11.0,7978.0,10243.0,-8337.0,-5510.0,44.0,16.0,-14.0,4.0,-2.0,15.0,9797.0,11425.0,4386.0,4762.0,29.0,16.0,-12.0,1.0
2022-05-06 12:44:46.844097-07:00,2247.6,711.8,1210.6,1541.3,913.5,1594.6,1316.9,1470.9,3434.6,3444.3,1437.8,1408.5,1493.0,3439.5,954.3,1458.9,3433.4,3441.9,685.6,1329.6,905.0,559.4,1955.8,1760.8,3439.5,3440.7,721.6,1398.5,1299.8,1535.7,1202.7,993.6,-1.0,6.0,-3.0,7959.0,10252.0,-8355.0,-5494.0,41.0,-26.0,39.0,-6.0,8.0,-2.0,9782.0,11438.0,4393.0,4757.0,9.0,-3.0,7.0,1.0
2022-05-06 12:44:46.845479-07:00,2247.6,711.8,1209.7,1543.1,913.5,1588.9,1325.0,1471.8,3434.6,3444.3,1432.3,1413.1,1493.0,3435.8,964.5,1459.8,3433.4,3437.0,684.0,1329.6,903.4,556.2,1955.8,1760.8,3435.8,3438.2,726.6,1398.5,1303.4,1529.2,1202.7,993.6,0.0,6.0,17.0,7958.0,10241.0,-8368.0,-5495.0,-6.0,-24.0,21.0,-4.0,1.0,10.0,9787.0,11437.0,4387.0,4754.0,-8.0,-15.0,8.0,1.0
2022-05-06 12:44:46.874245-07:00,2259.0,712.6,1215.1,1543.1,914.4,1588.9,1325.0,1471.8,3441.9,3445.5,1434.1,1413.1,1491.2,3435.8,964.5,1459.8,3433.4,3437.0,684.0,1328.7,903.4,560.2,1947.9,1764.6,3435.8,3438.2,726.6,1389.4,1303.4,1534.8,1208.0,981.6,5.0,10.0,12.0,7944.0,10245.0,-8379.0,-5492.0,58.0,-16.0,-5.0,1.0,10.0,14.0,9778.0,11444.0,4391.0,4750.0,33.0,2.0,4.0,1.0
2022-05-06 12:44:46.934204-07:00,2259.0,712.6,1215.1,1545.0,914.4,1588.0,1322.3,1463.5,3441.9,3445.5,1434.1,1407.6,1491.2,3433.4,959.4,1462.6,3437.0,3437.0,681.5,1328.7,904.2,560.2,1947.9,1764.6,3450.4,3438.2,724.1,1389.4,1299.8,1534.8,1208.0,981.6,1.0,5.0,9.0,7944.0,10246.0,-8380.0,-5488.0,-16.0,20.0,11.0,2.0,2.0,12.0,9778.0,11444.0,4391.0,4750.0,-9.0,1.0,-1.0,1.0
2022-05-06 12:44:46.964269-07:00,2255.9,713.4,1210.6,1545.0,916.0,1588.0,1322.3,1463.5,3445.5,3439.5,1429.5,1407.6,1484.7,3433.4,959.4,1462.6,3437.0,3437.0,681.5,1341.3,904.2,557.0,1950.9,1770.4,3450.4,3438.2,724.1,1386.6,1299.8,1537.6,1208.9,985.0,4.0,7.0,9.0,7944.0,10254.0,-8371.0,-5488.0,6.0,14.0,-39.0,-2.0,9.0,7.0,9778.0,11444.0,4393.0,4749.0,4.0,5.0,-10.0,1.0
2022-05-06 12:44:47.024293-07:00,2255.9,713.4,1210.6,1544.1,916.0,1589.9,1321.4,1458.9,3445.5,3439.5,1429.5,1406.7,1484.7,3439.5,954.3,1455.2,3441.9,3435.8,684.0,1341.3,905.0,557.0,1950.9,1770.4,3449.1,3440.7,723.3,1386.6,1314.2,1537.6,1208.9,985.0,-1.0,13.0,5.0,7945.0,10257.0,-8365.0,-5489.0,19.0,-10.0,19.0,-8.0,0.0,20.0,9778.0,11444.0,4393.0,4749.0,15.0,-2.0,7.0,1.0
2022-05-06 12:44:47.114193-07:00,2248.7,711.8,1210.6,1544.1,912.7,1589.9,1321.4,1458.9,3441.9,3431.0,1425.0,1406.7,1489.3,3439.5,954.3,1455.2,3441.9,3435.8,684.0,1332.3,905.0,553.8,1948.9,1765.6,3449.1,3440.7,723.3,1390.3,1314.2,1532.0,1206.2,987.6,4.0,19.0,21.0,7944.0,10254.0,-8368.0,-5491.0,-37.0,24.0,-21.0,-3.0,15.0,8.0,9780.0,11443.0,4392.0,4750.0,-42.0,-6.0,-7.0,1.0
2022-05-06 12:44:47.115509-07:00,2248.7,711.8,1210.6,1542.2,911.8,1581.4,1321.4,1457.1,3441.9,3431.0,1425.0,1407.6,1490.3,3440.7,952.6,1447.9,3440.7,3446.7,683.1,1330.5,905.0,553.8,1948.9,1765.6,3438.2,3447.9,722.5,1396.7,1302.5,1532.0,1206.2,987.6,1.0,-18.0,-1.0,7974.0,10248.0,-8341.0,-5500.0,-38.0,-4.0,11.0,-1.0,-8.0,12.0,9793.0,11432.0,4387.0,4755.0,7.0,5.0,1.0,1.0
2022-05-06 12:44:47.204190-07:00,2245.6,705.2,1206.2,1545.0,911.8,1581.4,1321.4,1457.1,3437.0,3438.2,1430.5,1404.0,1490.3,3440.7,952.6,1447.9,3440.7,3446.7,683.1,1330.5,903.4,557.0,1952.9,1762.7,3438.2,3447.9,722.5,1396.7,1293.6,1532.0,1211.5,985.0,0.0,11.0,6.0,7969.0,10228.0,-8370.0,-5501.0,-46.0,-55.0,68.0,0.0,16.0,-1.0,9797.0,11432.0,4378.0,4752.0,-74.0,-29.0,11.0,1.0
2022-05-06 12:44:47.205976-07:00,2245.6,705.2,1206.2,1545.0,921.1,1589.9,1327.8,1480.1,3437.0,3438.2,1430.5,1404.0,1492.1,3433.4,955.1,1470.9,3439.5,3440.7,680.7,1327.8,903.4,557.0,1952.9,1762.7,3447.9,3445.5,738.9,1391.2,1293.6,1532.0,1211.5,985.0,9.0,20.0,15.0,7977.0,10193.0,-8389.0,-5525.0,-20.0,-85.0,32.0,0.0,8.0,6.0,9815.0,11423.0,4366.0,4750.0,-9.0,-15.0,5.0,1.0
2022-05-06 12:44:47.264441-07:00,2252.8,712.6,1202.7,1544.1,921.1,1589.9,1327.8,1480.1,3438.2,3445.5,1430.5,1407.6,1492.1,3433.4,955.1,1470.9,3439.5,3440.7,680.7,1327.8,905.9,551.4,1952.9,1772.3,3447.9,3445.5,738.9,1391.2,1290.0,1530.1,1205.3,1001.3,6.0,-1.0,16.0,8001.0,10169.0,-8385.0,-5541.0,-83.0,35.0,23.0,-2.0,0.0,24.0,9837.0,11408.0,4352.0,4754.0,-84.0,-17.0,12.0,1.0
2022-05-06 12:44:47.324009-07:00,2252.8,712.6,1202.7,1544.1,910.1,1582.4,1331.4,1480.1,3438.2,3445.5,1430.5,1407.6,1506.9,3437.0,955.1,1462.6,3433.4,3440.7,679.1,1330.5,905.9,551.4,1952.9,1772.3,3447.9,3443.1,717.5,1400.3,1290.0,1530.1,1205.3,1001.3,1.0,13.0,17.0,7992.0,10178.0,-8388.0,-5533.0,78.0,10.0,-19.0,-3.0,16.0,11.0,9829.0,11415.0,4354.0,4751.0,49.0,8.0,-10.0,1.0
2022-05-06 12:44:47.413600-07:00,2256.9,708.5,1207.1,1548.7,910.1,1582.4,1331.4,1494.0,3440.7,3439.5,1428.6,1413.1,1506.9,3437.0,955.1,1465.4,3431.0,3440.7,679.1,1330.5,909.3,556.2,1947.9,1767.5,3435.8,3443.1,717.5,1400.3,1296.3,1533.8,1205.3,985.0,-2.0,-8.0,32.0,8004.0,10205.0,-8364.0,-5502.0,74.0,184.0,-17.0,-17.0,9.0,6.0,9837.0,11411.0,4344.0,4752.0,-54.0,-42.0,29.0,1.0
2022-05-06 12:44:47.414659-07:00,2282.8,708.5,1207.1,1548.7,909.3,1598.3,1338.6,1494.0,3441.9,3439.5,1428.6,1413.1,1493.0,3438.2,960.2,1465.4,3431.0,3428.6,681.5,1332.3,909.3,556.2,1947.9,1768.5,3435.8,3438.2,722.5,1482.9,1296.3,1533.8,1205.3,987.6,-6.0,89.0,1.0,8086.0,10283.0,-8242.0,-5420.0,-158.0,588.0,-259.0,-16.0,18.0,8.0,9907.0,11370.0,4279.0,4763.0,-363.0,-128.0,41.0,1.0
2022-05-06 12:44:47.474789-07:00,2282.8,722.5,1206.2,1555.3,909.3,1598.3,1338.6,2079.5,3441.9,3449.1,1447.9,1411.3,1493.0,3438.2,960.2,1455.2,3440.7,3428.6,681.5,1332.3,900.0,560.2,2214.7,1768.5,3438.2,3438.2,722.5,1482.9,1302.5,1533.8,1214.2,987.6,14.0,81.0,-11.0,8133.0,10505.0,-7951.0,-5358.0,226.0,662.0,-740.0,0.0,8.0,-4.0,9998.0,11320.0,4207.0,4757.0,-101.0,-144.0,-17.0,1.0
2022-05-06 12:44:47.508336-07:00,2363.0,722.5,1206.2,1555.3,916.9,1560.9,1635.0,2079.5,3440.7,3449.1,1447.9,1411.3,1492.1,3438.2,956.0,1455.2,3440.7,3438.2,680.7,1331.4,900.0,560.2,2214.7,1765.6,3438.2,3446.7,715.9,1496.7,1302.5,1533.8,1214.2,979.9,-2.0,-22.0,18.0,8113.0,10790.0,-7584.0,-5355.0,73.0,555.0,-925.0,16.0,-21.0,34.0,10056.0,11282.0,4195.0,4735.0,-117.0,-2.0,-86.0,1.0
2022-05-06 12:44:47.564316-07:00,2363.0,729.0,1211.5,1545.9,916.9,1560.9,1635.0,2265.2,3440.7,3434.6,1536.6,1407.6,1492.1,3438.2,956.0,1458.9,3439.5,3438.2,680.7,1331.4,900.0,551.4,2055.4,1765.6,3445.5,3446.7,715.9,1496.7,1297.2,1533.8,1203.5,979.9,18.0,4.0,-5.0,7990.0,11066.0,-7313.0,-5354.0,283.0,338.0,-716.0,-3.0,19.0,12.0,10042.0,11295.0,4242.0,4693.0,113.0,-12.0,-133.0,1.0
2022-05-06 12:44:47.624035-07:00,2355.6,729.0,1211.5,1545.9,922.8,1458.0,1780.1,2265.2,3449.1,3434.6,1536.6,1407.6,1489.3,3445.5,956.8,1458.9,3439.5,3441.9,683.1,1335.9,900.0,551.4,2055.4,1770.4,3445.5,3438.2,708.5,1361.2,1297.2,1533.8,1203.5,989.3,0.0,-20.0,-8.0,8001.0,11216.0,-7053.0,-5373.0,-221.0,379.0,-511.0,-2.0,11.0,24.0,10073.0,11261.0,4274.0,4679.0,-179.0,39.0,-99.0,1.0
2022-05-06 12:44:47.654211-07:00,2355.6,728.2,1213.3,1544.1,922.8,1458.0,1886.9,2286.9,3449.1,3447.9,1581.4,1412.2,1489.3,3445.5,955.1,1456.2,3439.5,3440.7,683.1,1335.9,899.1,549.8,1834.3,1770.4,3446.7,3440.7,708.5,1361.2,1301.6,1537.6,1212.4,989.3,-2.0,-29.0,-2.0,8010.0,11306.0,-6868.0,-5411.0,0.0,191.0,-376.0,-15.0,0.0,3.0,10118.0,11219.0,4279.0,4678.0,-46.0,-9.0,-43.0,1.0
2022-05-06 12:44:47.714242-07:00,2298.3,720.8,1213.3,1544.1,919.4,1424.1,1886.9,2286.9,3440.7,3444.3,1581.4,1412.2,1494.0,3437.0,955.1,1456.2,3439.5,3440.7,688.0,1336.8,899.1,549.8,1746.4,1767.5,3446.7,3440.7,705.2,1295.4,1301.6,1537.6,1212.4,992.7,15.0,4.0,17.0,8017.0,11360.0,-6741.0,-5447.0,-159.0,150.0,-257.0,0.0,14.0,3.0,10150.0,11192.0,4278.0,4675.0,-173.0,-14.0,-44.0,1.0
2022-05-06 12:44:47.805032-07:00,2298.3,720.8,1210.6,1545.0,919.4,1424.1,1867.4,2212.7,3440.7,3444.3,1578.6,1414.0,1494.0,3437.0,956.0,1447.0,3433.4,3441.9,688.0,1336.8,899.1,550.6,1746.4,1767.5,3444.3,3443.1,705.2,1295.4,1303.4,1532.9,1212.4,992.7,-4.0,-14.0,17.0,8042.0,11404.0,-6627.0,-5459.0,60.0,143.0,-201.0,0.0,-22.0,34.0,10190.0,11156.0,4268.0,4681.0,-13.0,6.0,-20.0,1.0
2022-05-06 12:44:47.834178-07:00,2273.4,706.0,1210.6,1545.0,920.3,1410.3,1867.4,2212.7,3450.4,3444.3,1578.6,1414.0,1492.1,3446.7,956.0,1447.0,3433.4,3441.9,688.0,1333.2,899.1,550.6,1688.1,1767.5,3444.3,3443.1,705.2,1260.4,1303.4,1532.9,1211.5,1007.3,18.0,40.0,27.0,7987.0,11490.0,-6570.0,-5428.0,80.0,175.0,-179.0,4.0,30.0,7.0,10159.0,11178.0,4297.0,4670.0,51.0,36.0,-37.0,1.0
2022-05-06 12:44:47.864223-07:00,2273.4,706.0,1210.6,1534.8,920.3,1410.3,1834.3,2170.7,3450.4,3444.3,1572.1,1414.0,1492.1,3446.7,950.9,1458.9,3439.5,3443.1,688.0,1333.2,895.7,552.2,1688.1,1767.5,3443.1,3440.7,705.2,1260.4,1295.4,1531.0,1211.5,1007.3,-13.0,-34.0,-10.0,8007.0,11535.0,-6482.0,-5408.0,48.0,120.0,-86.0,-5.0,-14.0,21.0,10163.0,11167.0,4312.0,4676.0,63.0,32.0,-14.0,1.0
2022-05-06 12:44:47.924284-07:00,2262.1,697.9,1206.2,1534.8,918.6,1404.9,1834.3,2170.7,3435.8,3435.8,1566.5,1414.0,1494.0,3438.2,950.9,1458.9,3439.5,3443.1,679.1,1337.7,895.7,552.2,1645.4,1782.0,3443.1,3440.7,695.4,1244.4,1295.4,1530.1,1208.9,1018.5,-2.0,13.0,-15.0,7976.0,11561.0,-6486.0,-5392.0,64.0,-40.0,-16.0,-8.0,16.0,-1.0,10139.0,11185.0,4326.0,4670.0,32.0,-2.0,0.0,1.0
2022-05-06 12:44:47.954131-07:00,2262.1,697.9,1206.2,1545.9,918.6,1389.4,1804.2,2137.2,3435.8,3435.8,1566.5,1409.4,1494.0,3444.3,956.8,1461.7,3441.9,3449.1,686.4,1337.7,893.2,552.2,1645.4,1782.0,3446.7,3449.1,698.7,1244.4,1298.1,1530.1,1208.9,1018.5,-1.0,-12.0,20.0,7979.0,11554.0,-6483.0,-5409.0,-35.0,-23.0,6.0,-2.0,-9.0,24.0,10156.0,11173.0,4315.0,4673.0,-59.0,-6.0,16.0,1.0
2022-05-06 12:44:48.014172-07:00,2233.2,694.6,1207.1,1545.9,919.4,1389.4,1804.2,2137.2,3446.7,3428.6,1560.9,1409.4,1498.6,3444.3,956.8,1461.7,3441.9,3449.1,686.4,1327.8,893.2,549.0,1614.3,1765.6,3446.7,3449.1,698.7,1232.8,1298.1,1528.3,1199.1,1015.1,8.0,18.0,15.0,7965.0,11553.0,-6503.0,-5405.0,62.0,-26.0,7.0,4.0,6.0,11.0,10146.0,11182.0,4316.0,4672.0,50.0,4.0,3.0,1.0
2022-05-06 12:44:48.074946-07:00,2233.2,694.6,1207.1,1549.7,919.4,1378.5,1783.9,2119.9,3446.7,3428.6,1560.9,1412.2,1498.6,3440.7,953.4,1464.4,3440.7,3440.7,679.1,1327.8,899.1,549.0,1614.3,1765.6,3445.5,3439.5,695.4,1232.8,1292.7,1528.3,1199.1,1015.1,4.0,1.0,12.0,7945.0,11566.0,-6508.0,-5402.0,64.0,-5.0,-12.0,2.0,4.0,17.0,10132.0,11192.0,4328.0,4669.0,48.0,11.0,-5.0,1.0
2022-05-06 12:44:48.104367-07:00,2227.0,688.0,1209.7,1549.7,917.7,1378.5,1783.9,2119.9,3438.2,3435.8,1559.9,1412.2,1492.1,3440.7,953.4,1464.4,3440.7,3440.7,679.1,1335.0,899.1,553.8,1588.9,1765.6,3445.5,3439.5,695.4,1222.2,1292.7,1529.2,1211.5,1015.1,1.0,6.0,1.0,7957.0,11566.0,-6499.0,-5395.0,-52.0,46.0,-5.0,-6.0,0.0,6.0,10133.0,11191.0,4328.0,4669.0,-28.0,2.0,2.0,1.0
2022-05-06 12:44:48.194313-07:00,2227.0,688.0,1209.7,1547.8,924.5,1371.2,1777.2,2102.7,3438.2,3435.8,1559.9,1414.0,1495.8,3443.1,964.5,1460.8,3441.9,3439.5,678.2,1331.4,894.9,553.8,1588.9,1765.6,3444.3,3449.1,694.6,1209.7,1299.8,1529.2,1211.5,1015.1,2.0,10.0,7.0,7954.0,11566.0,-6500.0,-5399.0,24.0,-30.0,-2.0,2.0,8.0,5.0,10133.0,11191.0,4328.0,4669.0,16.0,-3.0,-4.0,1.0
2022-05-06 12:44:48.224833-07:00,2221.9,692.1,1215.1,1546.9,924.5,1371.2,1777.2,2102.7,3443.1,3443.1,1559.9,1412.2,1495.8,3443.1,964.5,1460.8,3441.9,3439.5,678.2,1331.4,894.9,551.4,1590.8,1767.5,3444.3,3449.1,694.6,1209.7,1294.5,1531.0,1210.6,1002.2,-3.0,18.0,4.0,7954.0,11564.0,-6501.0,-5401.0,2.0,-1.0,-3.0,-3.0,9.0,13.0,10137.0,11187.0,4326.0,4669.0,-25.0,-11.0,0.0,1.0
2022-05-06 12:44:48.254455-07:00,2221.9,692.1,1215.1,1546.9,919.4,1363.9,1779.1,2090.6,3443.1,3443.1,1559.9,1412.2,1494.9,3435.8,954.3,1461.7,3446.7,3443.1,678.2,1328.7,894.9,551.4,1590.8,1767.5,3449.1,3449.1,701.9,1204.4,1294.5,1531.0,1210.6,1002.2,0.0,16.0,14.0,7947.0,11575.0,-6481.0,-5413.0,39.0,6.0,-87.0,0.0,4.0,20.0,10146.0,11180.0,4326.0,4668.0,17.0,4.0,-22.0,1.0
2022-05-06 12:44:48.314876-07:00,2218.8,684.8,1221.3,1538.5,919.4,1363.9,1779.1,2090.6,3449.1,3446.7,1567.4,1414.0,1494.9,3435.8,954.3,1461.7,3446.7,3443.1,678.2,1328.7,895.7,546.6,1585.2,1765.6,3449.1,3449.1,701.9,1204.4,1298.1,1531.0,1206.2,1004.8,4.0,-15.0,8.0,7930.0,11593.0,-6468.0,-5415.0,38.0,20.0,-19.0,1.0,-5.0,15.0,10140.0,11183.0,4337.0,4664.0,36.0,9.0,-9.0,1.0
2022-05-06 12:44:48.374795-07:00,2218.8,684.8,1221.3,1538.5,912.7,1369.4,1764.6,2077.5,3449.1,3446.7,1567.4,1414.0,1496.7,3440.7,960.2,1460.8,3445.5,3445.5,679.9,1326.8,895.7,546.6,1585.2,1765.6,3439.5,3443.1,692.1,1195.6,1298.1,1531.0,1206.2,1004.8,-1.0,2.0,9.0,7933.0,11601.0,-6459.0,-5404.0,-2.0,27.0,-14.0,-1.0,0.0,18.0,10133.0,11188.0,4342.0,4663.0,22.0,10.0,1.0,1.0
2022-05-06 12:44:48.404244-07:00,2200.4,685.6,1202.7,1542.2,912.7,1369.4,1764.6,2077.5,3440.7,3437.0,1549.7,1412.2,1496.7,3440.7,960.2,1460.8,3445.5,3445.5,679.9,1326.8,890.7,549.0,1567.4,1768.5,3439.5,3443.1,692.1,1195.6,1299.8,1531.0,1210.6,1009.9,3.0,10.0,6.0,7930.0,11603.0,-6466.0,-5396.0,18.0,7.0,21.0,-3.0,8.0,4.0,10125.0,11195.0,4345.0,4659.0,13.0,-6.0,7.0,1.0
2022-05-06 12:44:48.464210-07:00,2198.3,685.6,1202.7,1542.2,915.2,1365.7,1762.7,2059.4,3444.3,3437.0,1549.7,1412.2,1494.0,3438.2,957.7,1459.8,3428.6,3439.5,683.1,1325.9,890.7,549.0,1567.4,1763.7,3439.5,3447.9,699.5,1201.8,1299.8,1531.0,1210.6,1010.8,3.0,0.0,10.0,7927.0,11601.0,-6467.0,-5403.0,14.0,-18.0,-14.0,0.0,-1.0,13.0,10125.0,11196.0,4345.0,4658.0,19.0,-7.0,-6.0,1.0
2022-05-06 12:44:48.525000-07:00,2198.3,686.4,1210.6,1545.0,915.2,1365.7,1762.7,2060.5,3444.3,3438.2,1555.3,1409.4,1494.0,3438.2,957.7,1461.7,3439.5,3439.5,683.1,1325.9,894.9,549.8,1565.5,1763.7,3433.4,3447.9,699.5,1201.8,1295.4,1532.0,1203.5,1010.8,5.0,2.0,19.0,7927.0,11601.0,-6471.0,-5399.0,-3.0,15.0,28.0,-1.0,2.0,8.0,10122.0,11198.0,4347.0,4657.0,4.0,7.0,6.0,1.0
2022-05-06 12:44:48.584334-07:00,2196.3,686.4,1210.6,1545.0,925.4,1359.4,1764.6,2060.5,3444.3,3438.2,1555.3,1409.4,1497.7,3450.4,967.1,1461.7,3439.5,3449.1,684.0,1332.3,894.9,549.8,1565.5,1763.7,3433.4,3441.9,699.5,1189.4,1295.4,1532.0,1203.5,1002.2,4.0,15.0,7.0,7937.0,11600.0,-6469.0,-5387.0,-12.0,34.0,2.0,2.0,8.0,12.0,10122.0,11198.0,4346.0,4658.0,-6.0,-1.0,-2.0,1.0
2022-05-06 12:44:48.614245-07:00,2196.3,680.7,1206.2,1544.1,925.4,1359.4,1764.6,2062.5,3444.3,3449.1,1550.6,1409.4,1497.7,3450.4,967.1,1457.1,3444.3,3449.1,684.0,1332.3,891.5,551.4,1554.3,1763.7,3446.7,3441.9,699.5,1189.4,1291.8,1527.3,1214.2,1002.2,-2.0,-6.0,5.0,7940.0,11600.0,-6468.0,-5384.0,58.0,-15.0,15.0,-8.0,-7.0,14.0,10118.0,11201.0,4349.0,4656.0,54.0,-2.0,6.0,1.0
2022-05-06 12:44:48.674150-07:00,2191.2,680.7,1206.2,1544.1,925.4,1353.1,1762.7,2062.5,3446.7,3449.1,1550.6,1409.4,1508.8,3440.7,958.5,1457.1,3444.3,3433.4,684.0,1328.7,891.5,551.4,1554.3,1765.6,3446.7,3449.1,691.3,1196.5,1291.8,1527.3,1214.2,1004.8,9.0,15.0,16.0,7925.0,11606.0,-6480.0,-5379.0,-13.0,1.0,-14.0,1.0,9.0,4.0,10113.0,11206.0,4351.0,4653.0,-12.0,0.0,7.0,1.0
2022-05-06 12:44:48.704303-07:00,2191.2,679.9,1206.2,1550.6,925.4,1353.1,1742.6,2040.4,3446.7,3446.7,1552.5,1412.2,1508.8,3440.7,964.5,1452.5,3434.6,3428.6,684.0,1328.7,894.9,549.0,1552.5,1765.6,3444.3,3444.3,691.3,1196.5,1298.1,1537.6,1200.9,1004.8,5.0,12.0,9.0,7927.0,11607.0,-6475.0,-5379.0,-9.0,5.0,-18.0,2.0,8.0,10.0,10113.0,11205.0,4351.0,4654.0,7.0,3.0,0.0,1.0
2022-05-06 12:44:48.824177-07:00,2184.0,679.9,1206.2,1550.6,918.6,1354.9,1742.6,2040.4,3437.0,3441.9,1552.5,1412.2,1494.0,3443.1,964.5,1452.5,3434.6,3428.6,679.1,1323.2,894.9,549.0,1552.5,1766.6,3444.3,3444.3,692.1,1189.4,1298.1,1537.6,1209.7,1004.8,1.0,0.0,8.0,7934.0,11607.0,-6464.0,-5384.0,36.0,7.0,-5.0,0.0,0.0,15.0,10116.0,11202.0,4351.0,4657.0,30.0,11.0,-5.0,1.0
2022-05-06 12:44:48.826487-07:00,2184.0,679.9,1217.7,1536.6,918.6,1354.9,1749.3,2035.4,3437.0,3441.9,1547.8,1411.3,1494.0,3443.1,955.1,1463.5,3434.6,3434.6,679.1,1323.2,898.3,550.6,1552.5,1766.6,3441.9,3446.7,692.1,1189.4,1290.9,1533.8,1209.7,1004.8,2.0,3.0,10.0,7928.0,11611.0,-6464.0,-5383.0,-15.0,12.0,-12.0,-5.0,0.0,6.0,10110.0,11206.0,4355.0,4656.0,-7.0,4.0,-4.0,1.0
2022-05-06 12:44:48.944241-07:00,2182.0,686.4,1217.7,1536.6,908.4,1355.8,1749.3,2035.4,3443.1,3441.9,1547.8,1411.3,1495.8,3431.0,955.1,1463.5,3434.6,3434.6,684.0,1322.3,898.3,550.6,1542.2,1762.7,3441.9,3446.7,693.8,1191.2,1290.9,1533.8,1206.2,1005.6,-1.0,2.0,9.0,7936.0,11609.0,-6459.0,-5381.0,0.0,-2.0,19.0,0.0,1.0,11.0,10112.0,11204.0,4354.0,4656.0,-3.0,1.0,9.0,1.0
2022-05-06 12:44:48.946329-07:00,2182.0,686.4,1215.1,1546.9,908.4,1355.8,1742.6,2034.4,3443.1,3441.9,1551.5,1411.3,1495.8,3431.0,961.1,1472.7,3434.6,3438.2,684.0,1322.3,893.2,549.0,1542.2,1762.7,3443.1,3449.1,693.8,1191.2,1297.2,1529.2,1206.2,1005.6,5.0,14.0,7.0,7928.0,11609.0,-6469.0,-5380.0,22.0,-42.0,-6.0,0.0,5.0,4.0,10108.0,11209.0,4354.0,4654.0,4.0,-15.0,-4.0,1.0
2022-05-06 12:44:48.974042-07:00,2178.9,671.7,1211.5,1546.9,918.6,1354.0,1742.6,2034.4,3443.1,3440.7,1551.5,1411.3,1492.1,3449.1,961.1,1472.7,3434.6,3438.2,679.1,1323.2,893.2,546.6,1537.6,1768.5,3443.1,3449.1,686.4,1183.2,1297.2,1527.3,1203.5,996.2,0.0,0.0,8.0,7917.0,11607.0,-6478.0,-5390.0,18.0,-36.0,9.0,-2.0,0.0,14.0,10111.0,11208.0,4352.0,4652.0,-1.0,-10.0,-5.0,1.0
2022-05-06 12:44:49.035119-07:00,2178.9,671.7,1211.5,1538.5,918.6,1348.5,1729.1,2027.4,3443.1,3440.7,1551.5,1412.2,1492.1,3432.2,961.1,1462.6,3440.7,3428.6,679.9,1323.2,895.7,546.6,1537.6,1768.5,3440.7,3439.5,696.2,1183.2,1301.6,1527.3,1203.5,996.2,6.0,20.0,13.0,7908.0,11606.0,-6485.0,-5398.0,-21.0,-21.0,-34.0,0.0,4.0,5.0,10111.0,11208.0,4352.0,4652.0,-7.0,2.0,0.0,1.0
2022-05-06 12:44:49.064139-07:00,2172.8,688.0,1211.5,1538.5,923.7,1348.5,1729.1,2027.4,3444.3,3443.1,1544.1,1412.2,1492.1,3432.2,961.1,1462.6,3440.7,3428.6,679.9,1323.2,895.7,545.0,1530.1,1774.3,3440.7,3439.5,696.2,1182.3,1301.6,1529.2,1203.5,1006.5,0.0,-6.0,11.0,7904.0,11607.0,-6472.0,-5417.0,48.0,-22.0,-32.0,-1.0,-4.0,16.0,10114.0,11205.0,4350.0,4654.0,22.0,6.0,-8.0,1.0
2022-05-06 12:44:49.124317-07:00,2172.8,688.0,1211.5,1545.0,923.7,1350.3,1731.1,2025.4,3444.3,3443.1,1544.1,1415.8,1492.1,3439.5,962.0,1464.4,3431.0,3434.6,679.1,1323.2,894.1,545.0,1530.1,1774.3,3450.4,3439.5,699.5,1182.3,1300.7,1529.2,1203.5,1006.5,4.0,0.0,8.0,7887.0,11615.0,-6479.0,-5418.0,-6.0,-11.0,0.0,-5.0,-3.0,11.0,10107.0,11212.0,4354.0,4650.0,-14.0,-6.0,0.0,1.0
2022-05-06 12:44:49.184095-07:00,2167.7,683.1,1204.4,1545.0,921.1,1350.3,1731.1,2025.4,3441.9,3438.2,1544.1,1415.8,1503.2,3439.5,962.0,1464.4,3431.0,3434.6,679.1,1325.9,894.1,548.2,1527.3,1763.7,3450.4,3439.5,699.5,1180.6,1300.7,1528.3,1208.9,1003.9,3.0,11.0,10.0,7880.0,11616.0,-6483.0,-5420.0,8.0,-7.0,-9.0,0.0,8.0,11.0,10105.0,11213.0,4355.0,4650.0,4.0,-6.0,0.0,1.0
2022-05-06 12:44:49.214138-07:00,2167.7,683.1,1204.4,1545.0,921.1,1340.4,1740.6,2021.4,3441.9,3438.2,1544.1,1409.4,1503.2,3437.0,964.5,1458.9,3444.3,3434.6,679.1,1325.9,902.5,548.2,1527.3,1763.7,3440.7,3449.1,694.6,1180.6,1296.3,1528.3,1208.9,1003.9,7.0,11.0,5.0,7878.0,11613.0,-6488.0,-5424.0,5.0,-27.0,7.0,0.0,0.0,4.0,10109.0,11211.0,4352.0,4649.0,-6.0,-9.0,7.0,1.0
2022-05-06 12:44:49.334188-07:00,2159.5,683.1,1216.8,1545.0,920.3,1340.4,1740.6,2021.4,3444.3,3438.2,1532.9,1410.3,1492.1,3437.0,964.5,1458.9,3444.3,3434.6,679.1,1327.8,895.7,549.0,1530.1,1775.2,3440.7,3449.1,694.6,1177.9,1298.1,1532.0,1216.0,1008.2,0.0,2.0,18.0,7872.0,11614.0,-6488.0,-5431.0,12.0,-8.0,-17.0,-1.0,-1.0,19.0,10109.0,11211.0,4352.0,4649.0,8.0,2.0,3.0,1.0
2022-05-06 12:44:49.394755-07:00,2159.5,683.1,1216.8,1545.0,922.0,1331.4,1711.9,2027.4,3444.3,3438.2,1532.9,1410.3,1507.8,3435.8,967.9,1461.7,3440.7,3428.6,678.2,1328.7,895.7,549.0,1530.1,1775.2,3440.7,3440.7,694.6,1177.0,1298.1,1532.0,1216.0,1008.2,3.0,7.0,12.0,7862.0,11621.0,-6492.0,-5424.0,54.0,3.0,4.0,-2.0,1.0,15.0,10101.0,11218.0,4355.0,4646.0,44.0,3.0,3.0,1.0
2022-05-06 12:44:49.396919-07:00,2164.6,672.5,1215.1,1529.2,922.0,1331.4,1711.9,2027.4,3441.9,3443.1,1539.4,1408.5,1507.8,3435.8,967.9,1461.7,3440.7,3428.6,678.2,1328.7,893.2,548.2,1519.9,1762.7,3440.7,3440.7,694.6,1177.0,1299.8,1533.8,1205.3,1007.3,0.0,5.0,2.0,7852.0,11628.0,-6497.0,-5419.0,-3.0,-8.0,7.0,-5.0,7.0,8.0,10093.0,11225.0,4359.0,4643.0,-7.0,-2.0,2.0,1.0
2022-05-06 12:44:49.454159-07:00,2164.6,672.5,1215.1,1529.2,917.7,1335.0,1726.3,2017.4,3441.9,3443.1,1539.4,1408.5,1499.5,3443.1,967.1,1453.4,3439.5,3438.2,672.5,1325.9,893.2,548.2,1519.9,1762.7,3445.5,3440.7,688.9,1177.0,1299.8,1533.8,1205.3,1007.3,0.0,10.0,9.0,7857.0,11624.0,-6498.0,-5420.0,-23.0,-14.0,1.0,-2.0,3.0,10.0,10098.0,11221.0,4356.0,4645.0,-27.0,-12.0,2.0,1.0
2022-05-06 12:44:49.455410-07:00,2159.5,670.9,1209.7,1535.7,917.7,1335.0,1726.3,2017.4,3434.6,3438.2,1540.3,1412.2,1499.5,3443.1,967.1,1453.4,3439.5,3438.2,672.5,1325.9,889.8,543.4,1523.6,1772.3,3445.5,3440.7,688.9,1177.0,1289.1,1542.2,1208.9,1004.8,0.0,13.0,15.0,7852.0,11624.0,-6502.0,-5422.0,23.0,-6.0,6.0,-2.0,4.0,13.0,10099.0,11221.0,4355.0,4644.0,4.0,-2.0,6.0,1.0
2022-05-06 12:44:49.514364-07:00,2162.6,670.9,1209.7,1535.7,913.5,1340.4,1723.4,2008.4,3443.1,3438.2,1540.3,1412.2,1492.1,3439.5,970.5,1461.7,3449.1,3440.7,681.5,1319.6,889.8,543.4,1523.6,1763.7,3446.7,3443.1,694.6,1175.3,1289.1,1542.2,1208.9,1006.5,6.0,-2.0,9.0,7857.0,11620.0,-6500.0,-5424.0,-20.0,5.0,0.0,3.0,-3.0,14.0,10103.0,11217.0,4354.0,4646.0,-1.0,-1.0,4.0,1.0
2022-05-06 12:44:49.574316-07:00,2162.6,676.6,1226.6,1547.8,913.5,1340.4,1723.4,2007.4,3443.1,3440.7,1538.5,1408.5,1492.1,3439.5,970.5,1465.4,3439.5,3440.7,681.5,1319.6,891.5,546.6,1517.1,1763.7,3441.9,3443.1,694.6,1175.3,1299.0,1529.2,1202.7,1006.5,6.0,4.0,13.0,7852.0,11624.0,-6502.0,-5422.0,10.0,9.0,6.0,-1.0,2.0,6.0,10098.0,11222.0,4356.0,4644.0,6.0,5.0,0.0,1.0
2022-05-06 12:44:49.634183-07:00,2159.5,676.6,1226.6,1547.8,916.0,1339.5,1713.8,2007.4,3440.7,3440.7,1538.5,1408.5,1489.3,3443.1,967.1,1465.4,3439.5,3429.8,675.8,1307.9,891.5,546.6,1517.1,1770.4,3441.9,3449.1,691.3,1169.1,1299.0,1529.2,1202.7,1009.0,5.0,5.0,14.0,7852.0,11625.0,-6499.0,-5422.0,-12.0,-3.0,-11.0,-1.0,2.0,12.0,10098.0,11222.0,4356.0,4644.0,-17.0,-9.0,-7.0,1.0
2022-05-06 12:44:49.694270-07:00,2159.5,668.4,1210.6,1544.1,916.0,1339.5,1713.8,2005.5,3440.7,3445.5,1539.4,1412.2,1489.3,3443.1,967.1,1459.8,3433.4,3429.8,675.8,1307.9,896.6,553.8,1510.6,1770.4,3441.9,3449.1,691.3,1169.1,1296.3,1531.0,1207.1,1009.0,1.0,8.0,10.0,7856.0,11622.0,-6499.0,-5423.0,23.0,-8.0,8.0,-2.0,-1.0,8.0,10100.0,11220.0,4355.0,4644.0,29.0,-1.0,-1.0,1.0
2022-05-06 12:44:49.724095-07:00,2145.3,668.4,1210.6,1544.1,917.7,1337.7,1719.6,2005.5,3437.0,3445.5,1539.4,1412.2,1498.6,3437.0,965.4,1459.8,3433.4,3440.7,681.5,1323.2,896.6,553.8,1510.6,1760.8,3441.9,3434.6,692.9,1171.8,1296.3,1531.0,1207.1,1008.2,-1.0,-4.0,14.0,7847.0,11627.0,-6503.0,-5421.0,1.0,1.0,-7.0,-4.0,-1.0,18.0,10094.0,11225.0,4357.0,4642.0,6.0,4.0,2.0,1.0
2022-05-06 12:44:49.784186-07:00,2145.3,669.3,1217.7,1545.0,917.7,1337.7,1719.6,1994.5,3437.0,3438.2,1540.3,1414.9,1498.6,3437.0,965.4,1456.2,3439.5,3440.7,681.5,1323.2,891.5,550.6,1513.4,1760.8,3443.1,3434.6,692.9,1171.8,1301.6,1532.9,1202.7,1008.2,3.0,18.0,6.0,7840.0,11630.0,-6511.0,-5416.0,30.0,-16.0,19.0,4.0,1.0,3.0,10089.0,11230.0,4359.0,4640.0,10.0,-3.0,1.0,1.0
2022-05-06 12:44:49.814241-07:00,2152.4,669.3,1217.7,1545.0,919.4,1341.3,1710.0,1994.5,3441.9,3443.1,1540.3,1414.9,1492.1,3438.2,965.4,1456.2,3439.5,3435.8,680.7,1321.4,891.5,550.6,1515.3,1772.3,3443.1,3444.3,685.6,1170.0,1301.6,1532.9,1211.5,1000.5,5.0,9.0,19.0,7836.0,11631.0,-6513.0,-5416.0,11.0,-3.0,-11.0,0.0,11.0,17.0,10089.0,11230.0,4361.0,4639.0,-1.0,-4.0,-8.0,1.0
2022-05-06 12:44:49.874179-07:00,2152.4,669.3,1215.1,1537.6,919.4,1341.3,1712.9,1994.5,3441.9,3443.1,1535.7,1407.6,1492.1,3438.2,965.4,1464.4,3428.6,3440.7,680.7,1321.4,891.5,551.4,1515.3,1772.3,3440.7,3443.1,685.6,1170.0,1299.0,1530.1,1211.5,1000.5,3.0,8.0,6.0,7838.0,11630.0,-6514.0,-5414.0,22.0,12.0,19.0,-4.0,-3.0,9.0,10089.0,11230.0,4360.0,4640.0,28.0,2.0,11.0,1.0
2022-05-06 12:44:49.904297-07:00,2143.3,666.0,1215.1,1537.6,913.5,1337.7,1712.9,1994.5,3434.6,3440.7,1535.7,1407.6,1492.1,3441.9,965.4,1464.4,3428.6,3440.7,683.1,1327.8,891.5,551.4,1506.0,1769.5,3440.7,3443.1,690.5,1168.2,1299.0,1530.1,1203.5,1008.2,5.0,0.0,13.0,7831.0,11635.0,-6518.0,-5409.0,11.0,-10.0,-5.0,0.0,1.0,13.0,10085.0,11234.0,4361.0,4638.0,5.0,-3.0,-1.0,1.0
2022-05-06 12:44:49.964253-07:00,2143.3,666.0,1216.8,1541.3,913.5,1337.7,1718.6,1994.5,3434.6,3440.7,1536.6,1408.5,1492.1,3441.9,966.2,1455.2,3438.2,3437.0,683.1,1327.8,891.5,549.0,1506.0,1769.5,3449.1,3450.4,690.5,1168.2,1298.1,1533.8,1203.5,1008.2,3.0,7.0,10.0,7829.0,11635.0,-6520.0,-5408.0,-9.0,-6.0,7.0,-3.0,-1.0,12.0,10084.0,11234.0,4362.0,4638.0,-5.0,-5.0,-1.0,1.0
2022-05-06 12:44:50.024183-07:00,2143.3,666.0,1216.8,1541.3,910.1,1336.8,1718.6,1994.5,3431.0,3445.5,1536.6,1408.5,1490.3,3444.3,966.2,1455.2,3438.2,3437.0,677.4,1320.5,891.5,549.0,1504.1,1761.8,3449.1,3450.4,684.8,1162.1,1298.1,1533.8,1204.4,998.7,6.0,15.0,20.0,7824.0,11639.0,-6523.0,-5403.0,29.0,12.0,16.0,-2.0,13.0,14.0,10078.0,11240.0,4364.0,4636.0,11.0,-3.0,4.0,1.0
2022-05-06 12:44:50.054515-07:00,2143.3,666.0,1221.3,1561.8,910.1,1343.1,1706.2,1993.5,3431.0,3445.5,1535.7,1411.3,1490.3,3433.4,965.4,1463.5,3432.2,3429.8,678.2,1320.5,891.5,552.2,1504.1,1761.8,3438.2,3440.7,690.5,1162.1,1295.4,1527.3,1204.4,998.7,3.0,4.0,7.0,7837.0,11634.0,-6522.0,-5397.0,-19.0,20.0,16.0,-1.0,0.0,6.0,10081.0,11237.0,4363.0,4637.0,20.0,4.0,4.0,1.0
2022-05-06 12:44:50.114200-07:00,2141.2,668.4,1222.2,1561.8,911.8,1343.1,1706.2,1993.5,3445.5,3438.2,1533.8,1411.3,1490.3,3433.4,965.4,1463.5,3432.2,3429.8,678.2,1309.7,891.5,545.8,1509.7,1760.8,3438.2,3440.7,690.5,1163.0,1295.4,1527.3,1201.8,1005.6,0.0,-4.0,15.0,7835.0,11633.0,-6530.0,-5393.0,14.0,-25.0,50.0,-5.0,3.0,12.0,10071.0,11246.0,4367.0,4633.0,35.0,0.0,12.0,1.0
2022-05-06 12:44:50.174126-07:00,2141.2,668.4,1222.2,1546.9,911.8,1329.6,1704.3,1991.5,3445.5,3438.2,1533.8,1404.0,1490.3,3439.5,962.8,1458.9,3443.1,3440.7,678.2,1309.7,890.7,545.8,1509.7,1760.8,3441.9,3449.1,692.1,1163.0,1298.1,1527.3,1201.8,1005.6,4.0,15.0,9.0,7843.0,11617.0,-6551.0,-5390.0,-39.0,-17.0,36.0,-4.0,2.0,14.0,10065.0,11251.0,4365.0,4636.0,-32.0,-5.0,9.0,1.0
2022-05-06 12:44:50.204319-07:00,2136.1,666.0,1216.8,1546.9,922.0,1329.6,1704.3,1991.5,3438.2,3431.0,1529.2,1404.0,1493.0,3439.5,962.8,1458.9,3443.1,3440.7,678.2,1307.0,890.7,548.2,1502.3,1765.6,3441.9,3449.1,692.1,1168.2,1298.1,1533.8,1208.9,1001.3,2.0,2.0,29.0,7853.0,11608.0,-6548.0,-5399.0,-3.0,9.0,-10.0,-3.0,1.0,23.0,10072.0,11245.0,4362.0,4638.0,15.0,5.0,0.0,1.0
2022-05-06 12:44:50.294121-07:00,2136.1,666.0,1216.8,1538.5,922.0,1332.3,1711.0,1982.6,3438.2,3431.0,1529.2,1409.4,1493.0,3443.1,962.8,1473.6,3438.2,3428.6,679.1,1307.0,891.5,548.2,1502.3,1765.6,3449.1,3437.0,692.1,1168.2,1301.6,1533.8,1208.9,1001.3,2.0,15.0,11.0,7852.0,11611.0,-6548.0,-5394.0,9.0,11.0,-2.0,-3.0,6.0,11.0,10066.0,11249.0,4366.0,4638.0,6.0,6.0,-4.0,1.0
2022-05-06 12:44:50.296011-07:00,2135.1,664.4,1223.9,1547.8,916.9,1332.3,1711.0,1982.6,3440.7,3432.2,1535.7,1411.3,1489.3,3443.1,962.8,1473.6,3438.2,3428.6,679.1,1317.8,897.4,550.6,1506.0,1762.7,3449.1,3437.0,692.1,1158.6,1301.6,1529.2,1198.2,1001.3,-1.0,1.0,13.0,7860.0,11609.0,-6544.0,-5392.0,-3.0,32.0,-4.0,-10.0,0.0,15.0,10068.0,11248.0,4365.0,4638.0,19.0,3.0,3.0,1.0
2022-05-06 12:44:50.354215-07:00,2135.1,664.4,1223.9,1547.8,922.0,1329.6,1701.4,1987.5,3440.7,3432.2,1535.7,1411.3,1494.0,3443.1,959.4,1459.8,3441.9,3439.5,680.7,1318.7,897.4,550.6,1506.0,1762.7,3447.9,3444.3,687.2,1164.7,1301.6,1529.2,1198.2,1001.3,10.0,4.0,18.0,7862.0,11613.0,-6541.0,-5382.0,-3.0,25.0,11.0,2.0,1.0,20.0,10061.0,11254.0,4368.0,4635.0,3.0,-1.0,-3.0,1.0
2022-05-06 12:44:50.414800-07:00,2132.1,667.6,1231.9,1536.6,922.0,1329.6,1701.4,1987.5,3437.0,3447.9,1533.8,1405.8,1494.0,3443.1,959.4,1459.8,3441.9,3439.5,680.7,1318.7,892.4,549.0,1509.7,1761.8,3447.9,3444.3,687.2,1164.7,1303.4,1531.0,1207.1,1002.2,14.0,-2.0,6.0,7863.0,11607.0,-6564.0,-5367.0,93.0,-32.0,103.0,11.0,-9.0,14.0,10043.0,11270.0,4377.0,4626.0,223.0,7.0,-18.0,1.0
2022-05-06 12:44:50.444325-07:00,2132.1,667.6,1231.9,1536.6,910.1,1337.7,1709.1,1995.5,3437.0,3447.9,1533.8,1405.8,1492.1,3432.2,967.1,1456.2,3437.0,3443.1,678.2,1322.3,892.4,549.0,1509.7,1761.8,3446.7,3450.4,689.7,1239.1,1303.4,1531.0,1207.1,1002.2,18.0,-3.0,-4.0,7870.0,11538.0,-6689.0,-5351.0,-228.0,-147.0,445.0,1.0,9.0,1.0,9981.0,11314.0,4417.0,4615.0,-43.0,42.0,4.0,1.0
2022-05-06 12:44:50.506712-07:00,2141.2,673.3,1217.7,1536.6,910.1,1337.7,1709.1,1995.5,3445.5,3449.1,1510.6,1412.2,1492.1,3432.2,967.1,1456.2,3437.0,3443.1,678.2,1322.3,890.7,546.6,2023.4,1764.6,3446.7,3450.4,689.7,1239.1,1299.8,1525.5,1202.7,1003.0,-14.0,-11.0,-25.0,8004.0,11363.0,-6847.0,-5327.0,-183.0,-255.0,574.0,-8.0,4.0,-2.0,9968.0,11317.0,4421.0,4632.0,136.0,25.0,62.0,1.0
2022-05-06 12:44:50.564309-07:00,2141.2,673.3,1217.7,1536.6,915.2,1464.4,1697.6,2101.7,3445.5,3449.1,1510.6,1412.2,1492.1,3435.8,994.5,1468.1,3435.8,3435.8,678.2,1321.4,890.7,546.6,2023.4,1764.6,3446.7,3435.8,738.1,1506.0,1299.8,1525.5,1202.7,1003.0,-33.0,14.0,-15.0,8012.0,11225.0,-7065.0,-5322.0,108.0,-403.0,455.0,-7.0,9.0,3.0,9916.0,11356.0,4426.0,4643.0,175.0,34.0,65.0,1.0
2022-05-06 12:44:50.594856-07:00,2235.3,694.6,1216.8,1540.3,915.2,1464.4,1697.6,1882.0,3447.9,3438.2,1474.6,1407.6,1492.1,3435.8,994.5,1461.7,3440.7,3435.8,678.2,1321.4,896.6,552.2,2250.7,1761.8,3450.4,3435.8,738.1,1506.0,1296.3,1533.8,1207.1,993.6,29.0,55.0,-13.0,7973.0,11102.0,-7278.0,-5352.0,4.0,-410.0,291.0,-7.0,19.0,-19.0,9866.0,11398.0,4426.0,4646.0,-20.0,-16.0,59.0,1.0
2022-05-06 12:44:50.654778-07:00,2337.9,694.6,1216.8,1540.3,911.8,1595.5,1572.1,1882.0,3449.1,3438.2,1474.6,1407.6,1486.6,3449.1,985.9,1461.7,3440.7,3433.4,682.3,1316.9,896.6,552.2,2250.7,1764.6,3450.4,3449.1,772.8,1527.3,1296.3,1533.8,1207.1,993.6,1.0,-53.0,24.0,7938.0,11007.0,-7398.0,-5434.0,31.0,-442.0,193.0,6.0,-40.0,34.0,9865.0,11394.0,4417.0,4666.0,166.0,42.0,34.0,1.0
2022-05-06 12:44:50.714072-07:00,2337.9,713.4,1216.8,1552.5,911.8,1595.5,1572.1,1703.3,3449.1,3438.2,1461.7,1408.5,1486.6,3449.1,985.9,1461.7,3440.7,3433.4,682.3,1316.9,897.4,555.4,2183.0,1764.6,3443.1,3449.1,772.8,1527.3,1295.4,1525.5,1202.7,993.6,7.0,2.0,11.0,7851.0,10935.0,-7563.0,-5479.0,51.0,-391.0,237.0,0.0,-9.0,18.0,9795.0,11444.0,4444.0,4666.0,149.0,50.0,43.0,1.0
2022-05-06 12:44:50.744300-07:00,2412.4,713.4,1216.8,1552.5,917.7,1678.6,1494.0,1703.3,3444.3,3438.2,1461.7,1408.5,1490.3,3438.2,976.5,1461.7,3440.7,3439.5,679.9,1322.3,897.4,555.4,2183.0,1762.7,3443.1,3446.7,771.1,1497.7,1295.4,1525.5,1202.7,995.3,-11.0,22.0,42.0,7806.0,10843.0,-7699.0,-5538.0,45.0,-348.0,190.0,-5.0,-4.0,16.0,9750.0,11469.0,4464.0,4681.0,132.0,75.0,34.0,1.0
2022-05-06 12:44:50.804267-07:00,2412.4,742.2,1211.5,1555.3,917.7,1678.6,1494.0,1581.4,3444.3,3450.4,1451.6,1408.5,1490.3,3438.2,976.5,1463.5,3434.6,3439.5,679.9,1322.3,891.5,563.4,2133.1,1762.7,3454.0,3446.7,771.1,1497.7,1291.8,1530.1,1201.8,995.3,16.0,16.0,-28.0,7694.0,10803.0,-7854.0,-5554.0,312.0,-363.0,179.0,4.0,18.0,-16.0,9672.0,11520.0,4503.0,4681.0,253.0,44.0,10.0,1.0
2022-05-06 12:44:50.894132-07:00,2381.8,752.1,1211.5,1555.3,915.2,1707.2,1428.6,1581.4,3444.3,3446.7,1451.6,1408.5,1498.6,3451.6,971.3,1463.5,3434.6,3439.5,677.4,1344.0,891.5,563.4,2074.5,1761.8,3454.0,3435.8,778.6,1481.0,1291.8,1530.1,1201.8,997.9,-10.0,16.0,22.0,7589.0,10759.0,-7988.0,-5592.0,135.0,-347.0,114.0,-15.0,-2.0,26.0,9647.0,11536.0,4516.0,4679.0,51.0,0.0,17.0,1.0
2022-05-06 12:44:50.924871-07:00,2381.8,752.1,1222.2,1546.9,915.2,1707.2,1375.7,1516.2,3444.3,3446.7,1446.0,1410.3,1498.6,3451.6,969.6,1457.1,3433.4,3439.5,677.4,1344.0,905.0,565.0,2074.5,1761.8,3431.0,3444.3,778.6,1481.0,1297.2,1529.2,1201.8,997.9,26.0,63.0,48.0,7534.0,10747.0,-8053.0,-5596.0,9.0,-20.0,40.0,6.0,38.0,11.0,9630.0,11550.0,4519.0,4676.0,-6.0,-6.0,9.0,1.0
2022-05-06 12:44:50.954751-07:00,2356.7,740.6,1222.2,1546.9,918.6,1675.7,1375.7,1516.2,3441.9,3441.9,1446.0,1410.3,1489.3,3438.2,969.6,1457.1,3433.4,3439.5,680.7,1349.4,905.0,565.0,2040.4,1760.8,3431.0,3444.3,791.9,1437.8,1297.2,1529.2,1208.0,1005.6,2.0,-9.0,12.0,7572.0,10730.0,-8043.0,-5593.0,6.0,56.0,55.0,3.0,-24.0,24.0,9644.0,11537.0,4515.0,4685.0,26.0,26.0,13.0,1.0
2022-05-06 12:44:51.014189-07:00,2356.7,740.6,1220.4,1547.8,918.6,1675.7,1352.1,1505.1,3441.9,3441.9,1443.3,1407.6,1489.3,3438.2,962.0,1463.5,3439.5,3438.2,680.7,1349.4,903.4,565.0,2040.4,1760.8,3441.9,3449.1,791.9,1437.8,1299.8,1529.2,1208.0,1005.6,3.0,26.0,-8.0,7577.0,10734.0,-8059.0,-5556.0,-21.0,55.0,37.0,-3.0,16.0,-9.0,9628.0,11546.0,4524.0,4685.0,-12.0,2.0,-5.0,1.0
2022-05-06 12:44:51.044221-07:00,2342.0,728.2,1220.4,1547.8,912.7,1662.5,1352.1,1505.1,3445.5,3438.2,1443.3,1407.6,1487.5,3445.5,962.0,1463.5,3439.5,3438.2,675.8,1354.0,903.4,565.0,2033.4,1762.7,3441.9,3449.1,782.7,1427.7,1299.8,1529.2,1204.4,970.5,0.0,0.0,10.0,7603.0,10727.0,-8046.0,-5551.0,-21.0,10.0,3.0,-1.0,-1.0,13.0,9643.0,11535.0,4518.0,4688.0,-25.0,-10.0,-3.0,1.0
2022-05-06 12:44:51.104282-07:00,2342.0,728.2,1222.2,1546.9,912.7,1649.2,1339.5,1475.5,3445.5,3438.2,1441.5,1412.2,1487.5,3434.6,979.0,1458.0,3433.4,3434.6,679.9,1354.0,901.7,562.6,2033.4,1762.7,3444.3,3445.5,785.2,1427.7,1297.2,1548.7,1204.4,970.5,5.0,9.0,21.0,7607.0,10720.0,-8050.0,-5554.0,-33.0,11.0,50.0,-2.0,5.0,11.0,9646.0,11533.0,4517.0,4688.0,-12.0,-8.0,9.0,1.0
2022-05-06 12:44:51.164855-07:00,2324.3,725.8,1223.0,1546.9,915.2,1649.2,1339.5,1475.5,3441.9,3437.0,1425.9,1412.2,1493.0,3434.6,979.0,1458.0,3433.4,3434.6,679.9,1354.0,901.7,561.0,2013.4,1764.6,3444.3,3445.5,785.2,1422.2,1297.2,1531.0,1206.2,993.6,1.0,17.0,11.0,7636.0,10697.0,-8058.0,-5547.0,35.0,3.0,63.0,0.0,14.0,18.0,9658.0,11524.0,4508.0,4695.0,-9.0,-7.0,18.0,1.0
2022-05-06 12:44:51.194828-07:00,2324.3,725.8,1223.0,1546.9,915.2,1639.8,1339.5,1481.9,3441.9,3437.0,1425.9,1410.3,1493.0,3440.7,966.2,1463.5,3435.8,3429.8,679.9,1354.0,896.6,561.0,2013.4,1764.6,3450.4,3434.6,776.9,1422.2,1293.6,1531.0,1206.2,993.6,4.0,10.0,3.0,7626.0,10696.0,-8078.0,-5535.0,3.0,-33.0,-24.0,1.0,9.0,6.0,9651.0,11529.0,4510.0,4694.0,2.0,-9.0,-4.0,1.0
2022-05-06 12:44:51.254438-07:00,2318.1,721.6,1226.6,1546.9,918.6,1639.8,1339.5,1481.9,3445.5,3433.4,1425.9,1410.3,1488.4,3440.7,966.2,1463.5,3435.8,3429.8,679.9,1346.7,896.6,565.0,2001.5,1756.0,3450.4,3434.6,776.9,1415.8,1293.6,1532.0,1205.3,988.5,2.0,1.0,22.0,7608.0,10691.0,-8093.0,-5545.0,57.0,-59.0,51.0,-1.0,2.0,17.0,9653.0,11529.0,4509.0,4692.0,10.0,-5.0,0.0,1.0
2022-05-06 12:44:51.314195-07:00,2318.1,721.6,1226.6,1549.7,918.6,1631.3,1335.9,1479.2,3445.5,3433.4,1425.9,1400.3,1488.4,3439.5,967.1,1457.1,3444.3,3437.0,674.2,1346.7,902.5,565.0,2001.5,1756.0,3445.5,3445.5,772.8,1415.8,1298.1,1532.0,1205.3,988.5,1.0,19.0,11.0,7598.0,10686.0,-8114.0,-5539.0,2.0,14.0,-40.0,0.0,3.0,16.0,9650.0,11531.0,4510.0,4692.0,-3.0,-2.0,5.0,1.0
2022-05-06 12:44:51.344182-07:00,2310.8,724.1,1216.8,1549.7,916.9,1631.3,1335.9,1479.2,3447.9,3445.5,1422.2,1400.3,1488.4,3439.5,967.1,1457.1,3444.3,3437.0,674.2,1345.8,902.5,557.0,1999.5,1768.5,3445.5,3445.5,772.8,1408.5,1298.1,1549.7,1210.6,991.9,2.0,0.0,10.0,7586.0,10696.0,-8106.0,-5547.0,85.0,-29.0,0.0,-2.0,13.0,11.0,9649.0,11531.0,4511.0,4692.0,48.0,8.0,-3.0,1.0
2022-05-06 12:44:51.404232-07:00,2310.8,724.1,1216.8,1545.0,917.7,1623.7,1334.1,1462.6,3447.9,3445.5,1422.2,1405.8,1490.3,3439.5,965.4,1457.1,3434.6,3441.9,682.3,1344.9,898.3,557.0,1999.5,1768.5,3438.2,3444.3,770.3,1407.6,1304.3,1549.7,1210.6,991.9,5.0,10.0,19.0,7575.0,10694.0,-8122.0,-5544.0,-35.0,1.0,6.0,-3.0,0.0,10.0,9645.0,11535.0,4512.0,4689.0,-32.0,-12.0,-1.0,1.0
2022-05-06 12:44:51.464161-07:00,2306.6,722.5,1226.6,1547.8,917.7,1623.7,1334.1,1462.6,3441.9,3446.7,1416.7,1406.7,1490.3,3439.5,965.4,1457.1,3434.6,3441.9,682.3,1344.9,900.0,560.2,1990.5,1764.6,3438.2,3444.3,770.3,1407.6,1308.8,1528.3,1210.6,986.7,-2.0,20.0,22.0,7582.0,10695.0,-8115.0,-5541.0,66.0,57.0,-37.0,-3.0,5.0,22.0,9648.0,11533.0,4511.0,4689.0,17.0,16.0,-7.0,1.0
