Time,P0,P1,P2,P3,P4,P5,P6,P7,P8,P9,P10,P11,P12,P13,P14,P15,P16,P17,P18,P19,P20,P21,P22,P23,P24,P25,P26,P27,P28,P29,P30,P31,ECG,AX0,AY0,AZ0,QW0,QX0,QY0,QZ0,GX0,GY0,GZ0,AX1,AY1,AZ1,QW1,QX1,QY1,QZ1,GX1,GY1,GZ1
2022-05-03 15:03:31.544111-07:00,2038.4,588.3,1342.2,1631.3,1057.3,1322.3,1436.9,1697.6,3447.9,3446.7,1647.3,1400.3,1404.9,3441.9,1086.8,1527.3,3443.1,3438.2,784.4,1529.2,1073.8,624.6,1502.3,1712.9,3450.4,3447.9,772.0,919.4,1292.7,1514.3,1395.7,1227.5,0.0,-5.0,0.0,8471.0,11379.0,6097.0,5479.0,-2.0,-11.0,-1.0,3.0,1.0,-4.0,10340.0,9515.0,6624.0,5206.0,-1.0,-9.0,-4.0,1.0
2022-05-03 15:03:31.754768-07:00,2038.4,588.3,1344.9,1635.0,1057.3,1322.3,1448.8,1693.8,3447.9,3446.7,1637.9,1404.0,1404.9,3441.9,1098.2,1532.9,3438.2,3440.7,784.4,1529.2,1072.9,621.4,1502.3,1712.9,3449.1,3443.1,772.0,919.4,1290.9,1521.8,1395.7,1227.5,-3.0,-5.0,1.0,8472.0,11379.0,6097.0,5479.0,-7.0,-4.0,6.0,0.0,0.0,-1.0,10340.0,9515.0,6624.0,5206.0,0.0,-4.0,2.0,1.0
2022-05-03 15:03:32.144786-07:00,2021.4,593.9,1344.9,1635.0,1057.3,1321.4,1448.8,1693.8,3444.3,3444.3,1637.9,1404.0,1404.0,3444.3,1098.2,1532.9,3438.2,3440.7,784.4,1531.0,1072.9,621.4,1502.3,1719.6,3449.1,3443.1,757.9,916.0,1290.9,1521.8,1396.7,1227.5,0.0,-5.0,1.0,8472.0,11379.0,6097.0,5479.0,0.0,4.0,2.0,3.0,0.0,0.0,10340.0,9515.0,6624.0,5206.0,-3.0,6.0,1.0,1.0
2022-05-03 15:03:32.146205-07:00,2021.4,593.9,1342.2,1633.1,1057.3,1321.4,1448.8,1703.3,3444.3,3444.3,1638.8,1405.8,1404.0,3444.3,1102.5,1532.9,3445.5,3439.5,784.4,1531.0,1081.6,625.4,1502.3,1719.6,3444.3,3449.1,757.9,916.0,1293.6,1521.8,1396.7,1227.5,0.0,-3.0,0.0,8472.0,11379.0,6097.0,5479.0,3.0,-4.0,-3.0,2.0,2.0,0.0,10340.0,9515.0,6624.0,5206.0,2.0,3.0,0.0,1.0
2022-05-03 15:03:32.325271-07:00,2034.4,593.9,1342.2,1633.1,1055.6,1319.6,1448.8,1703.3,3438.2,3440.7,1638.8,1405.8,1406.7,3443.1,1102.5,1532.9,3445.5,3439.5,784.4,1537.6,1081.6,625.4,1501.4,1712.9,3444.3,3449.1,768.7,911.8,1293.6,1521.8,1405.8,1231.9,-1.0,-7.0,0.0,8472.0,11379.0,6097.0,5479.0,0.0,3.0,2.0,0.0,-1.0,1.0,10340.0,9515.0,6624.0,5206.0,-4.0,1.0,2.0,1.0
2022-05-03 15:03:32.326583-07:00,2034.4,593.9,1348.5,1636.0,1055.6,1322.3,1447.9,1713.8,3438.2,3440.7,1634.1,1403.0,1406.7,3440.7,1098.2,1528.3,3435.8,3446.7,786.1,1537.6,1072.9,623.0,1501.4,1712.9,3454.0,3449.1,769.5,911.8,1288.2,1527.3,1405.8,1231.9,-1.0,-3.0,1.0,8472.0,11379.0,6097.0,5479.0,1.0,-9.0,1.0,0.0,0.0,2.0,10340.0,9515.0,6624.0,5206.0,7.0,-4.0,0.0,1.0
2022-05-03 15:03:32.328012-07:00,2031.4,587.5,1348.5,1636.0,1054.8,1322.3,1447.9,1713.8,3443.1,3440.7,1643.5,1403.0,1397.6,3440.7,1098.2,1528.3,3435.8,3446.7,786.1,1535.7,1072.9,623.8,1503.2,1712.9,3454.0,3449.1,769.5,911.8,1288.2,1525.5,1396.7,1229.3,-1.0,-2.0,3.0,8472.0,11379.0,6097.0,5479.0,-1.0,3.0,-4.0,0.0,-2.0,2.0,10340.0,9515.0,6624.0,5206.0,-2.0,1.0,-1.0,1.0
2022-05-03 15:03:32.415590-07:00,2038.4,596.3,1353.1,1634.1,1055.6,1320.5,1443.3,1699.5,3449.1,3446.7,1636.9,1400.3,1405.8,3441.9,1090.3,1526.4,3440.7,3438.2,792.7,1534.8,1072.9,621.4,1505.1,1715.8,3443.1,3450.4,766.2,911.8,1283.7,1518.0,1396.7,1228.4,0.0,-2.0,3.0,8474.0,11377.0,6096.0,5480.0,-8.0,8.0,-5.0,2.0,0.0,5.0,10344.0,9513.0,6621.0,5206.0,-6.0,2.0,1.0,1.0
2022-05-03 15:03:32.416949-07:00,2043.4,591.5,1358.5,1633.1,1055.6,1320.5,1443.3,1706.2,3449.1,3451.6,1635.0,1404.0,1405.8,3441.9,1090.3,1533.8,3440.7,3438.2,792.7,1534.8,1072.1,614.1,1498.6,1711.0,3449.1,3450.4,766.2,911.8,1289.1,1519.9,1400.3,1226.6,-2.0,-5.0,0.0,8472.0,11377.0,6097.0,5481.0,6.0,5.0,-3.0,1.0,-1.0,-3.0,10344.0,9513.0,6621.0,5206.0,3.0,6.0,-1.0,1.0
2022-05-03 15:03:32.417777-07:00,2034.4,589.1,1344.9,1632.2,1055.6,1315.1,1446.0,1698.6,3445.5,3450.4,1640.7,1412.2,1400.3,3440.7,1086.0,1524.5,3438.2,3443.1,784.4,1534.8,1077.3,620.5,1501.4,1718.6,3445.5,3449.1,763.7,915.2,1286.4,1528.3,1394.8,1227.5,-1.0,-4.0,-1.0,8472.0,11377.0,6097.0,5481.0,-2.0,3.0,-4.0,0.0,3.0,0.0,10344.0,9513.0,6621.0,5206.0,-8.0,1.0,-2.0,1.0
2022-05-03 15:03:32.444909-07:00,2034.4,587.5,1345.8,1633.1,1055.6,1315.1,1446.0,1699.5,3445.5,3449.1,1643.5,1398.5,1400.3,3440.7,1086.0,1533.8,3441.9,3443.1,784.4,1534.8,1072.1,623.8,1499.5,1718.6,3454.0,3449.1,763.7,915.2,1297.2,1521.8,1401.2,1227.5,1.0,0.0,0.0,8472.0,11378.0,6097.0,5480.0,10.0,6.0,9.0,3.0,0.0,-1.0,10344.0,9513.0,6620.0,5207.0,6.0,3.0,4.0,1.0
2022-05-03 15:03:32.685422-07:00,2037.4,592.3,1345.8,1633.1,1060.8,1317.8,1452.5,1699.5,3438.2,3447.9,1643.5,1398.5,1405.8,3441.9,1094.7,1533.8,3441.9,3438.2,788.6,1536.6,1072.1,623.8,1503.2,1711.0,3454.0,3443.1,772.0,916.9,1297.2,1521.8,1400.3,1224.8,0.0,-5.0,0.0,8472.0,11378.0,6097.0,5480.0,0.0,6.0,-4.0,3.0,1.0,0.0,10344.0,9513.0,6620.0,5207.0,2.0,5.0,0.0,1.0
2022-05-03 15:03:32.686122-07:00,2037.4,592.3,1338.6,1635.0,1060.8,1317.8,1451.6,1690.0,3438.2,3447.9,1650.2,1405.8,1405.8,3441.9,1092.9,1520.8,3444.3,3443.1,788.6,1536.6,1069.5,620.5,1503.2,1711.0,3449.1,3440.7,772.0,916.9,1289.1,1532.9,1400.3,1224.8,-1.0,-7.0,2.0,8472.0,11378.0,6097.0,5480.0,5.0,1.0,4.0,2.0,0.0,0.0,10344.0,9513.0,6620.0,5207.0,0.0,5.0,2.0,1.0
2022-05-03 15:03:33.254211-07:00,2057.4,597.1,1338.6,1635.0,1056.5,1307.9,1451.6,1690.0,3440.7,3443.1,1650.2,1405.8,1401.2,3445.5,1092.9,1520.8,3444.3,3443.1,786.9,1531.0,1069.5,620.5,1498.6,1714.8,3449.1,3440.7,766.2,916.0,1289.1,1532.9,1404.9,1231.9,-1.0,-1.0,-4.0,8471.0,11377.0,6098.0,5481.0,8.0,12.0,1.0,-2.0,2.0,-1.0,10344.0,9512.0,6622.0,5208.0,6.0,11.0,3.0,1.0
2022-05-03 15:03:33.344825-07:00,2057.4,597.1,1348.5,1640.7,1056.5,1307.9,1450.6,1694.8,3440.7,3443.1,1634.1,1401.2,1401.2,3445.5,1090.3,1527.3,3438.2,3437.0,786.9,1531.0,1080.8,621.4,1498.6,1714.8,3451.6,3449.1,766.2,916.0,1293.6,1521.8,1404.9,1231.9,-3.0,-5.0,-3.0,8471.0,11377.0,6099.0,5482.0,5.0,0.0,4.0,-1.0,2.0,-3.0,10343.0,9512.0,6622.0,5208.0,3.0,4.0,3.0,1.0
2022-05-03 15:03:33.375327-07:00,2035.4,595.5,1348.5,1640.7,1059.1,1325.0,1450.6,1694.8,3437.0,3449.1,1634.1,1401.2,1402.1,3449.1,1090.3,1527.3,3438.2,3437.0,787.7,1540.3,1080.8,621.4,1500.4,1718.6,3451.6,3449.1,770.3,918.6,1293.6,1521.8,1401.2,1230.2,0.0,-2.0,-1.0,8470.0,11377.0,6098.0,5483.0,2.0,5.0,9.0,1.0,1.0,0.0,10343.0,9512.0,6622.0,5208.0,0.0,-3.0,6.0,1.0
2022-05-03 15:03:33.524695-07:00,2035.4,595.5,1354.9,1633.1,1059.1,1325.0,1447.9,1688.1,3437.0,3449.1,1641.6,1405.8,1402.1,3449.1,1089.5,1529.2,3438.2,3446.7,787.7,1540.3,1072.9,621.4,1500.4,1718.6,3444.3,3451.6,770.3,918.6,1290.9,1521.8,1401.2,1230.2,1.0,-5.0,-4.0,8470.0,11377.0,6098.0,5483.0,3.0,-7.0,8.0,1.0,0.0,-4.0,10343.0,9512.0,6622.0,5208.0,4.0,-7.0,2.0,1.0
2022-05-03 15:03:33.525723-07:00,2034.4,592.3,1346.7,1633.1,1056.5,1321.4,1447.9,1688.1,3446.7,3440.7,1641.6,1405.8,1398.5,3440.7,1089.5,1529.2,3438.2,3446.7,792.7,1533.8,1072.9,623.0,1497.7,1710.0,3444.3,3451.6,767.8,916.9,1290.9,1525.5,1394.8,1231.9,5.0,-6.0,0.0,8470.0,11378.0,6097.0,5483.0,-1.0,-2.0,7.0,6.0,0.0,-4.0,10344.0,9512.0,6622.0,5208.0,-3.0,-8.0,5.0,1.0
2022-05-03 15:03:33.526604-07:00,2034.4,592.3,1346.7,1628.4,1056.5,1316.9,1448.8,1698.6,3446.7,3440.7,1641.6,1402.1,1398.5,3443.1,1093.8,1528.3,3440.7,3445.5,787.7,1533.8,1066.0,623.0,1497.7,1710.0,3438.2,3449.1,764.5,916.9,1289.1,1525.5,1394.8,1231.9,0.0,-4.0,-2.0,8470.0,11379.0,6096.0,5482.0,6.0,-13.0,1.0,3.0,5.0,-3.0,10342.0,9513.0,6622.0,5207.0,0.0,-3.0,-2.0,1.0
2022-05-03 15:03:33.527374-07:00,2034.4,592.3,1346.7,1628.4,1056.5,1316.9,1448.8,1698.6,3446.7,3440.7,1641.6,1402.1,1398.5,3443.1,1093.8,1528.3,3440.7,3445.5,787.7,1533.8,1066.0,623.0,1497.7,1710.0,3438.2,3449.1,764.5,916.9,1289.1,1525.5,1394.8,1231.9,0.0,-4.0,-2.0,8470.0,11379.0,6096.0,5482.0,6.0,-13.0,1.0,3.0,5.0,-3.0,10342.0,9513.0,6622.0,5207.0,0.0,-3.0,-2.0,1.0
2022-05-03 15:03:33.529536-07:00,2035.4,589.1,1338.6,1634.1,1070.3,1312.4,1443.3,1697.6,3445.5,3447.9,1634.1,1403.0,1400.3,3441.9,1092.9,1530.1,3449.1,3444.3,783.6,1525.5,1071.2,617.3,1497.7,1718.6,3450.4,3454.0,770.3,917.7,1290.9,1517.1,1395.7,1228.4,3.0,-5.0,1.0,8458.0,11383.0,6095.0,5494.0,-4.0,-2.0,-2.0,7.0,0.0,-2.0,10340.0,9516.0,6622.0,5207.0,-7.0,-3.0,-3.0,1.0
2022-05-03 15:03:33.795644-07:00,-1.0,-3.0,0.0,8458.0,11383.0,6095.0,5494.0,-8.0,1.0,-2.0,2.0,1.0,-4.0,10340.0,9516.0,6622.0,5207.0,-1.0,-1.0,-2.0,1.0,1.0,-6.0,0.0,8458.0,11383.0,6095.0,5494.0,0.0,1.0,2.0,3.0,2.0,-3.0,10340.0,9516.0,6622.0,5207.0,1.0,4.0,2.0,1.0,4.0,-1.0,-2.0,10340.0,9516.0,6622.0,5207.0,-4.0,1.0,-1.0,1.0
2022-05-03 15:03:33.796544-07:00,2031.4,592.3,1340.4,1633.1,1052.2,1325.0,1447.0,1703.3,3438.2,3451.6,1630.3,1402.1,1394.8,3444.3,1092.9,1528.3,3444.3,3446.7,790.2,1531.0,1075.6,618.9,1496.7,1714.8,3449.1,3449.1,768.7,907.6,1291.8,1528.3,1393.0,1229.3,1.0,-4.0,-4.0,8458.0,11383.0,6095.0,5494.0,-2.0,4.0,-3.0,3.0,2.0,-3.0,10340.0,9516.0,6622.0,5207.0,2.0,4.0,2.0,1.0
2022-05-03 15:03:33.797446-07:00,2027.4,592.3,1340.4,1633.1,1057.3,1318.7,1447.0,1703.3,3443.1,3444.3,1630.3,1402.1,1400.3,3441.9,1092.9,1528.3,3444.3,3446.7,790.2,1535.7,1075.6,618.9,1500.4,1712.9,3449.1,3449.1,762.9,915.2,1291.8,1528.3,1393.0,1228.4,0.0,-5.0,-5.0,8458.0,11383.0,6095.0,5494.0,2.0,6.0,3.0,4.0,-2.0,-3.0,10340.0,9516.0,6622.0,5207.0,-4.0,-2.0,-1.0,1.0
2022-05-03 15:03:33.915195-07:00,2027.4,592.3,1344.9,1623.7,1057.3,1318.7,1447.0,1694.8,3443.1,3444.3,1642.6,1408.5,1400.3,3441.9,1087.7,1527.3,3438.2,3445.5,790.2,1535.7,1066.9,618.1,1500.4,1712.9,3440.7,3443.1,762.9,915.2,1290.0,1521.8,1393.0,1228.4,0.0,-3.0,-5.0,8458.0,11383.0,6095.0,5494.0,-7.0,-7.0,-1.0,4.0,3.0,1.0,10340.0,9516.0,6622.0,5207.0,-3.0,-8.0,3.0,1.0
2022-05-03 15:03:34.364269-07:00,2031.4,587.5,1344.9,1623.7,1055.6,1312.4,1447.0,1694.8,3443.1,3444.3,1642.6,1408.5,1404.0,3444.3,1087.7,1527.3,3438.2,3445.5,786.1,1534.8,1066.9,618.1,1502.3,1714.8,3440.7,3443.1,764.5,916.9,1290.0,1521.8,1401.2,1231.9,3.0,-5.0,0.0,8458.0,11383.0,6095.0,5494.0,-3.0,-9.0,4.0,4.0,1.0,-1.0,10341.0,9516.0,6621.0,5207.0,4.0,4.0,2.0,1.0
2022-05-03 15:03:34.455513-07:00,2033.4,592.3,1346.7,1633.1,1053.9,1319.6,1446.0,1695.7,3433.4,3439.5,1628.4,1400.3,1406.7,3454.0,1087.7,1530.1,3443.1,3449.1,789.4,1534.8,1071.2,619.7,1494.0,1709.1,3447.9,3449.1,765.3,916.9,1290.9,1523.6,1390.3,1227.5,0.0,-5.0,2.0,8458.0,11383.0,6095.0,5494.0,6.0,1.0,4.0,3.0,4.0,-4.0,10341.0,9516.0,6621.0,5207.0,-1.0,3.0,0.0,1.0
2022-05-03 15:03:34.545032-07:00,2033.4,592.3,1346.7,1629.4,1053.9,1319.6,1447.0,1691.0,3433.4,3439.5,1642.6,1396.7,1406.7,3444.3,1083.4,1528.3,3441.9,3449.1,784.4,1534.8,1072.9,620.5,1494.0,1709.1,3438.2,3455.2,772.0,916.9,1290.9,1523.6,1390.3,1227.5,3.0,-5.0,-3.0,8458.0,11383.0,6095.0,5494.0,-3.0,3.0,-1.0,5.0,1.0,-5.0,10341.0,9516.0,6621.0,5207.0,-3.0,0.0,4.0,1.0
2022-05-03 15:03:34.546506-07:00,2030.4,588.3,1338.6,1629.4,1052.2,1319.6,1447.0,1691.0,3449.1,3443.1,1635.0,1396.7,1401.2,3444.3,1083.4,1528.3,3441.9,3449.1,784.4,1531.0,1072.9,623.8,1499.5,1722.4,3438.2,3455.2,772.0,916.9,1290.9,1515.3,1395.7,1223.9,1.0,-6.0,-3.0,8458.0,11383.0,6095.0,5494.0,1.0,0.0,3.0,2.0,2.0,-2.0,10341.0,9516.0,6621.0,5207.0,4.0,-7.0,-1.0,1.0
2022-05-03 15:03:34.547207-07:00,2030.4,588.3,1338.6,1633.1,1052.2,1316.0,1432.3,1701.4,3449.1,3443.1,1635.0,1401.2,1401.2,3437.0,1093.8,1532.9,3438.2,3437.0,787.7,1531.0,1069.5,623.8,1499.5,1722.4,3449.1,3438.2,766.2,916.9,1296.3,1515.3,1395.7,1223.9,0.0,-4.0,-2.0,8458.0,11383.0,6095.0,5494.0,3.0,-3.0,-1.0,2.0,2.0,-2.0,10341.0,9516.0,6621.0,5207.0,4.0,-7.0,-1.0,1.0
2022-05-03 15:03:34.547827-07:00,2030.4,588.3,1338.6,1633.1,1052.2,1316.0,1432.3,1701.4,3449.1,3443.1,1635.0,1401.2,1401.2,3437.0,1093.8,1532.9,3438.2,3437.0,787.7,1531.0,1069.5,623.8,1499.5,1722.4,3449.1,3438.2,766.2,916.9,1296.3,1515.3,1395.7,1223.9,0.0,-4.0,-2.0,8458.0,11383.0,6095.0,5494.0,3.0,-3.0,-1.0,2.0,2.0,-2.0,10341.0,9516.0,6621.0,5207.0,4.0,-7.0,-1.0,1.0
2022-05-03 15:03:34.548406-07:00,2030.4,588.3,1338.6,1633.1,1052.2,1316.0,1432.3,1701.4,3449.1,3443.1,1635.0,1401.2,1401.2,3437.0,1093.8,1532.9,3438.2,3437.0,787.7,1531.0,1069.5,623.8,1499.5,1722.4,3449.1,3438.2,766.2,916.9,1296.3,1515.3,1395.7,1223.9,0.0,-4.0,-2.0,8458.0,11383.0,6095.0,5494.0,3.0,-3.0,-1.0,1.0,2.0,-3.0,10341.0,9515.0,6622.0,5208.0,-6.0,-1.0,-2.0,1.0
2022-05-03 15:03:34.550148-07:00,2031.4,590.7,1346.7,1638.8,1059.1,1316.9,1447.9,1698.6,3439.5,3438.2,1638.8,1398.5,1399.4,3441.9,1093.8,1530.1,3439.5,3444.3,789.4,1525.5,1066.9,620.5,1501.4,1709.1,3445.5,3456.4,768.7,911.0,1288.2,1520.8,1399.4,1231.9,-2.0,0.0,-1.0,8448.0,11382.0,6104.0,5500.0,0.0,4.0,-2.0,3.0,0.0,-3.0,10341.0,9515.0,6622.0,5208.0,2.0,5.0,1.0,1.0
2022-05-03 15:03:34.604356-07:00,2039.4,590.7,1346.7,1638.8,1056.5,1308.8,1441.5,1698.6,3440.7,3438.2,1638.8,1398.5,1403.0,3443.1,1092.9,1530.1,3439.5,3443.1,788.6,1537.6,1066.9,620.5,1501.4,1712.9,3445.5,3451.6,767.0,917.7,1288.2,1520.8,1399.4,1220.4,2.0,-7.0,0.0,8448.0,11382.0,6104.0,5500.0,2.0,6.0,-1.0,3.0,4.0,-5.0,10341.0,9515.0,6622.0,5208.0,5.0,3.0,3.0,1.0
2022-05-03 15:03:34.665456-07:00,2039.4,591.5,1339.5,1634.1,1056.5,1308.8,1441.5,1694.8,3440.7,3444.3,1627.5,1384.8,1403.0,3443.1,1092.9,1537.6,3438.2,3443.1,788.6,1537.6,1068.6,623.8,1504.1,1712.9,3447.9,3451.6,767.0,917.7,1293.6,1519.0,1397.6,1220.4,3.0,0.0,-4.0,8447.0,11383.0,6103.0,5501.0,4.0,1.0,7.0,4.0,-1.0,-3.0,10341.0,9515.0,6622.0,5208.0,-7.0,-7.0,-1.0,1.0
2022-05-03 15:03:34.695122-07:00,2032.4,591.5,1339.5,1634.1,1057.3,1316.9,1465.4,1694.8,3441.9,3444.3,1627.5,1384.8,1390.3,3440.7,1088.6,1537.6,3438.2,3440.7,789.4,1527.3,1068.6,623.8,1504.1,1709.1,3447.9,3449.1,768.7,909.3,1293.6,1519.0,1397.6,1227.5,0.0,-10.0,0.0,8448.0,11383.0,6102.0,5501.0,-7.0,-10.0,-3.0,5.0,2.0,2.0,10341.0,9515.0,6622.0,5208.0,-4.0,-6.0,3.0,1.0
2022-05-03 15:03:34.754845-07:00,2032.4,595.5,1350.3,1635.0,1057.3,1316.9,1445.1,1699.5,3441.9,3443.1,1638.8,1397.6,1390.3,3440.7,1086.8,1530.1,3437.0,3444.3,789.4,1527.3,1072.1,618.1,1501.4,1709.1,3449.1,3447.9,768.7,909.3,1291.8,1520.8,1397.6,1227.5,0.0,1.0,2.0,8448.0,11384.0,6101.0,5500.0,-1.0,-1.0,7.0,1.0,0.0,3.0,10341.0,9515.0,6622.0,5208.0,4.0,7.0,-4.0,1.0
2022-05-03 15:03:34.785364-07:00,2039.4,591.5,1350.3,1635.0,1060.8,1320.5,1445.1,1699.5,3444.3,3446.7,1638.8,1397.6,1405.8,3444.3,1086.8,1530.1,3437.0,3444.3,790.2,1530.1,1072.1,618.1,1492.1,1713.8,3449.1,3447.9,767.8,915.2,1291.8,1520.8,1399.4,1224.8,-1.0,-3.0,6.0,8448.0,11384.0,6101.0,5500.0,4.0,5.0,-8.0,0.0,0.0,1.0,10340.0,9515.0,6622.0,5208.0,4.0,11.0,3.0,1.0
2022-05-03 15:03:34.935331-07:00,2039.4,591.5,1338.6,1629.4,1060.8,1320.5,1460.8,1693.8,3444.3,3446.7,1636.9,1401.2,1405.8,3444.3,1092.1,1527.3,3435.8,3440.7,790.2,1530.1,1072.1,623.8,1492.1,1713.8,3449.1,3452.8,767.8,915.2,1292.7,1509.7,1399.4,1224.8,0.0,-9.0,0.0,8446.0,11383.0,6103.0,5502.0,6.0,15.0,1.0,6.0,1.0,-9.0,10340.0,9515.0,6623.0,5209.0,-4.0,5.0,-2.0,1.0
2022-05-03 15:03:35.444939-07:00,2033.4,589.9,1338.6,1629.4,1056.5,1315.1,1460.8,1693.8,3439.5,3449.1,1636.9,1401.2,1412.2,3443.1,1092.1,1527.3,3435.8,3440.7,785.2,1532.0,1072.1,623.8,1498.6,1711.0,3449.1,3452.8,762.9,912.7,1292.7,1509.7,1396.7,1228.4,3.0,-3.0,-5.0,8445.0,11383.0,6104.0,5504.0,0.0,4.0,0.0,4.0,1.0,-2.0,10340.0,9515.0,6623.0,5209.0,0.0,-1.0,-1.0,1.0
2022-05-03 15:03:35.475440-07:00,2033.4,589.9,1344.9,1629.4,1056.5,1315.1,1448.8,1700.5,3439.5,3449.1,1620.9,1408.5,1412.2,3443.1,1091.2,1527.3,3449.1,3447.9,785.2,1532.0,1073.8,622.2,1498.6,1711.0,3451.6,3441.9,762.9,912.7,1284.6,1516.2,1396.7,1228.4,1.0,-4.0,-3.0,8445.0,11383.0,6104.0,5504.0,-3.0,-3.0,-1.0,1.0,0.0,0.0,10340.0,9515.0,6623.0,5209.0,-5.0,-6.0,0.0,1.0
2022-05-03 15:03:35.565659-07:00,2022.4,591.5,1342.2,1629.4,1056.5,1319.6,1448.8,1700.5,3433.4,3449.1,1642.6,1408.5,1401.2,3446.7,1091.2,1527.3,3449.1,3447.9,783.6,1532.0,1073.8,619.7,1487.5,1713.8,3451.6,3441.9,770.3,917.7,1284.6,1520.8,1392.1,1239.9,0.0,-5.0,2.0,8446.0,11383.0,6103.0,5503.0,-3.0,-10.0,1.0,4.0,1.0,-1.0,10340.0,9515.0,6623.0,5209.0,0.0,2.0,2.0,1.0
2022-05-03 15:03:35.567710-07:00,2022.4,591.5,1342.2,1629.4,1056.5,1314.2,1426.8,1699.5,3433.4,3449.1,1642.6,1393.9,1401.2,3446.7,1091.2,1533.8,3439.5,3441.9,788.6,1532.0,1070.3,619.7,1487.5,1713.8,3452.8,3446.7,768.7,917.7,1288.2,1520.8,1392.1,1239.9,3.0,0.0,2.0,8446.0,11383.0,6103.0,5503.0,4.0,2.0,3.0,1.0,1.0,0.0,10340.0,9515.0,6623.0,5209.0,7.0,0.0,-4.0,1.0
2022-05-03 15:03:35.568406-07:00,2016.4,589.1,1349.4,1629.4,1061.7,1314.2,1426.8,1699.5,3440.7,3449.1,1651.1,1393.9,1404.0,3446.7,1091.2,1533.8,3439.5,3441.9,788.6,1535.7,1070.3,623.8,1498.6,1710.0,3452.8,3446.7,768.7,914.4,1288.2,1524.5,1393.0,1223.9,0.0,-6.0,2.0,8445.0,11382.0,6104.0,5504.0,7.0,5.0,-3.0,-1.0,26.0,-8.0,10317.0,9492.0,6695.0,5203.0,-369.0,15.0,-149.0,1.0
2022-05-03 15:03:35.594616-07:00,2036.4,593.1,1345.8,1633.1,1051.3,1332.3,1445.1,1705.3,3445.5,3449.1,1634.1,1407.6,1401.2,3445.5,1086.8,1528.3,3440.7,3439.5,788.6,1528.3,1066.0,623.8,1500.4,1719.6,3444.3,3450.4,769.5,916.0,1284.6,1520.8,1401.2,1225.7,-6.0,35.0,-20.0,8403.0,11435.0,6257.0,5282.0,82.0,-158.0,-466.0,-14.0,42.0,-47.0,10625.0,9176.0,6602.0,5269.0,-1417.0,-220.0,-396.0,1.0
2022-05-03 15:03:35.595957-07:00,2044.4,594.7,1348.5,1634.1,1051.3,1332.3,1445.1,1705.3,3441.9,3445.5,1653.9,1412.2,1401.2,3445.5,1086.8,1528.3,3440.7,3439.5,788.6,1528.3,1069.5,620.5,1567.4,1713.8,3444.3,3450.4,769.5,916.0,1296.3,1525.5,1393.0,1227.5,38.0,188.0,-28.0,8665.0,11226.0,6384.0,5155.0,-942.0,-44.0,-1052.0,-14.0,42.0,-47.0,10625.0,9176.0,6602.0,5269.0,-1417.0,-220.0,-396.0,1.0
2022-05-03 15:03:35.596508-07:00,2044.4,594.7,1348.5,1634.1,1051.3,1332.3,1445.1,1705.3,3441.9,3445.5,1653.9,1412.2,1401.2,3445.5,1086.8,1528.3,3440.7,3439.5,788.6,1528.3,1069.5,620.5,1567.4,1713.8,3444.3,3450.4,769.5,916.0,1296.3,1525.5,1393.0,1227.5,38.0,188.0,-28.0,8665.0,11226.0,6384.0,5155.0,-942.0,-44.0,-1052.0,12.0,-62.0,26.0,11291.0,8358.0,6719.0,5094.0,-281.0,103.0,-438.0,1.0
2022-05-03 15:03:35.654810-07:00,2054.4,589.1,1337.7,1630.3,1056.5,1317.8,1444.2,1702.4,3438.2,3449.1,1653.9,1402.1,1402.1,3443.1,1084.2,1530.1,3435.8,3440.7,790.2,1540.3,1064.3,617.3,1574.9,1712.9,3440.7,3454.0,762.0,911.8,1287.3,1528.3,1394.8,1239.1,24.0,-49.0,60.0,9665.0,10089.0,7540.0,4048.0,27.0,-14.0,-1422.0,20.0,-41.0,-1.0,11393.0,8182.0,6801.0,5042.0,-292.0,125.0,-391.0,1.0
2022-05-03 15:03:35.714808-07:00,2054.4,593.9,1337.7,1651.1,1056.5,1317.8,1444.2,1698.6,3438.2,3439.5,1649.2,1403.0,1402.1,3443.1,1084.2,1521.8,3441.9,3440.7,790.2,1540.3,1086.0,634.3,1556.2,1712.9,3443.1,3454.0,762.0,911.8,1281.9,1517.1,1392.1,1239.1,4.0,-23.0,26.0,9831.0,9793.0,7874.0,3724.0,-157.0,-25.0,-1195.0,5.0,62.0,-11.0,11480.0,8016.0,6881.0,5004.0,-330.0,84.0,-370.0,1.0
2022-05-03 15:03:35.748432-07:00,2046.4,593.9,1337.7,1651.1,1053.0,1320.5,1437.8,1698.6,3444.3,3439.5,1649.2,1403.0,1398.5,3437.0,1074.7,1521.8,3441.9,3440.7,784.4,1545.0,1086.0,634.3,1556.2,1712.9,3443.1,3447.9,772.0,915.2,1281.9,1517.1,1392.1,1229.3,23.0,44.0,-17.0,9974.0,9516.0,8162.0,3431.0,-175.0,-19.0,-1206.0,11.0,19.0,-22.0,11619.0,7799.0,6917.0,4976.0,-429.0,14.0,-421.0,1.0
2022-05-03 15:03:35.805138-07:00,2046.4,586.7,1340.4,1626.5,1053.0,1320.5,1437.8,1694.8,3444.3,3445.5,1656.8,1404.0,1398.5,3437.0,1074.7,1527.3,3443.1,3440.7,784.4,1545.0,1075.6,625.4,1561.8,1712.9,3443.1,3447.9,772.0,915.2,1284.6,1514.3,1388.5,1229.3,11.0,15.0,-45.0,10174.0,9161.0,8435.0,3137.0,-255.0,-130.0,-1336.0,-4.0,9.0,-3.0,11788.0,7562.0,6925.0,4932.0,-646.0,-113.0,-487.0,1.0
2022-05-03 15:03:35.834752-07:00,2039.4,597.1,1340.4,1626.5,1053.9,1339.5,1438.7,1694.8,3449.1,3451.6,1656.8,1404.0,1401.2,3449.1,1086.8,1527.3,3443.1,3449.1,805.2,1546.9,1075.6,625.4,1575.8,1708.1,3443.1,3446.7,774.5,907.6,1284.6,1514.3,1389.4,1231.0,29.0,13.0,-33.0,10402.0,8774.0,8686.0,2793.0,-396.0,-193.0,-1441.0,2.0,52.0,-19.0,11990.0,7300.0,6905.0,4869.0,-597.0,-142.0,-465.0,1.0
2022-05-03 15:03:36.374384-07:00,2039.4,597.1,1337.7,1631.3,1053.9,1339.5,1446.0,1692.9,3449.1,3451.6,1658.7,1404.0,1401.2,3449.1,1089.5,1526.4,3435.8,3440.7,805.2,1546.9,1085.1,626.2,1575.8,1708.1,3445.5,3454.0,774.5,907.6,1293.6,1520.8,1389.4,1231.0,36.0,-8.0,44.0,10623.0,8390.0,8911.0,2406.0,-139.0,-299.0,-1348.0,-5.0,17.0,21.0,12184.0,7052.0,6870.0,4802.0,-540.0,-147.0,-429.0,1.0
2022-05-03 15:03:36.434754-07:00,2067.5,610.0,1337.7,1631.3,1052.2,1393.9,1446.0,1692.9,3438.2,3449.1,1658.7,1404.0,1404.9,3443.1,1089.5,1526.4,3435.8,3440.7,803.5,1597.4,1085.1,626.2,1630.3,1700.5,3445.5,3454.0,770.3,933.9,1293.6,1520.8,1393.9,1228.4,25.0,17.0,57.0,10770.0,8033.0,9148.0,2058.0,-189.0,-94.0,-1288.0,11.0,-5.0,15.0,12359.0,6814.0,6841.0,4739.0,-470.0,-47.0,-424.0,1.0
2022-05-03 15:03:36.466748-07:00,2067.5,610.0,1339.5,1634.1,1052.2,1393.9,1438.7,1703.3,3438.2,3449.1,1658.7,1406.7,1404.9,3443.1,1087.7,1524.5,3443.1,3441.9,803.5,1597.4,1090.3,621.4,1630.3,1700.5,3443.1,3446.7,770.3,933.9,1292.7,1524.5,1393.9,1228.4,21.0,-21.0,66.0,10874.0,7670.0,9400.0,1736.0,-119.0,42.0,-1195.0,15.0,-11.0,13.0,12497.0,6595.0,6839.0,4689.0,-484.0,-22.0,-330.0,1.0
2022-05-03 15:03:36.974564-07:00,2080.6,632.7,1339.5,1634.1,1053.9,1440.5,1438.7,1703.3,3446.7,3445.5,1658.7,1406.7,1403.0,3433.4,1087.7,1524.5,3443.1,3441.9,824.4,1611.5,1090.3,621.4,1657.7,1712.9,3443.1,3446.7,774.5,960.2,1292.7,1524.5,1392.1,1226.6,10.0,-49.0,28.0,10931.0,7349.0,9629.0,1489.0,-180.0,53.0,-991.0,11.0,-32.0,7.0,12605.0,6409.0,6832.0,4668.0,-350.0,-18.0,-196.0,1.0
2022-05-03 15:03:36.977113-07:00,2080.6,632.7,1337.7,1631.3,1053.9,1449.7,1433.2,1700.5,3446.7,3445.5,1664.4,1419.5,1403.0,3444.3,1091.2,1529.2,3435.8,3444.3,830.2,1611.5,1113.0,625.4,1657.7,1712.9,3447.9,3444.3,775.3,960.2,1283.7,1522.7,1392.1,1226.6,32.0,-78.0,26.0,10991.0,7095.0,9774.0,1325.0,-219.0,30.0,-596.0,6.0,14.0,14.0,12708.0,6227.0,6815.0,4661.0,-179.0,1.0,-159.0,1.0
2022-05-03 15:03:36.978099-07:00,2074.5,641.6,1347.6,1634.1,1053.9,1445.1,1431.4,1712.9,3443.1,3437.0,1657.7,1419.5,1398.5,3454.0,1086.8,1531.0,3438.2,3446.7,834.4,1627.5,1116.5,625.4,1646.4,1712.9,3443.1,3443.1,778.6,951.7,1290.9,1519.9,1387.5,1230.2,-8.0,16.0,7.0,11029.0,6911.0,9883.0,1166.0,-28.0,-34.0,-395.0,6.0,14.0,14.0,12708.0,6227.0,6815.0,4661.0,-179.0,1.0,-159.0,1.0
2022-05-03 15:03:36.978593-07:00,2074.5,641.6,1347.6,1634.1,1053.9,1445.1,1431.4,1712.9,3443.1,3437.0,1657.7,1419.5,1398.5,3454.0,1086.8,1531.0,3438.2,3446.7,834.4,1627.5,1116.5,625.4,1646.4,1712.9,3443.1,3443.1,778.6,951.7,1290.9,1519.9,1387.5,1230.2,-8.0,16.0,7.0,11029.0,6911.0,9883.0,1166.0,-28.0,-34.0,-395.0,12.0,4.0,2.0,12743.0,6144.0,6839.0,4639.0,-2.0,3.0,-7.0,1.0
2022-05-03 15:03:36.979320-07:00,2066.5,648.1,1335.9,1623.7,1055.6,1436.9,1417.6,1692.9,3438.2,3443.1,1653.0,1415.8,1394.8,3454.0,1084.2,1530.1,3438.2,3433.4,817.7,1630.3,1126.1,624.6,1633.1,1711.9,3446.7,3443.1,772.8,953.4,1292.7,1519.0,1383.9,1223.9,14.0,11.0,15.0,11046.0,6788.0,9967.0,1001.0,-32.0,55.0,-38.0,10.0,-5.0,11.0,12746.0,6141.0,6839.0,4637.0,-15.0,1.0,-15.0,1.0
2022-05-03 15:03:37.034831-07:00,2077.5,644.9,1335.9,1619.0,1055.6,1436.9,1417.6,1692.9,3438.2,3447.9,1656.8,1415.8,1394.8,3454.0,1084.2,1530.1,3438.2,3433.4,817.7,1630.3,1119.1,630.3,1635.0,1707.2,3446.7,3443.1,772.8,953.4,1290.9,1519.9,1383.0,1227.5,13.0,-16.0,11.0,11042.0,6768.0,9984.0,1002.0,-20.0,12.0,-45.0,7.0,2.0,3.0,12752.0,6158.0,6774.0,4691.0,12.0,6.0,21.0,1.0
2022-05-03 15:03:37.037242-07:00,2070.5,640.0,1329.6,1629.4,1051.3,1426.8,1418.6,1701.4,3444.3,3444.3,1654.9,1414.9,1406.7,3440.7,1078.2,1531.0,3438.2,3437.0,828.5,1617.1,1112.1,627.8,1625.6,1714.8,3454.0,3454.0,771.1,944.1,1294.5,1512.5,1380.3,1224.8,16.0,-5.0,18.0,11098.0,6731.0,9929.0,1177.0,-22.0,23.0,22.0,8.0,12.0,5.0,12745.0,6170.0,6774.0,4694.0,35.0,18.0,11.0,1.0
2022-05-03 15:03:37.305454-07:00,2072.5,642.4,1329.6,1629.4,1054.8,1437.8,1418.6,1701.4,3456.4,3450.4,1654.9,1414.9,1397.6,3447.9,1078.2,1531.0,3438.2,3437.0,826.9,1639.8,1112.1,627.8,1623.7,1714.8,3454.0,3454.0,774.5,943.2,1294.5,1512.5,1373.9,1233.7,9.0,11.0,9.0,11092.0,6737.0,9930.0,1195.0,11.0,45.0,19.0,6.0,8.0,6.0,12740.0,6178.0,6778.0,4692.0,16.0,5.0,5.0,1.0
2022-05-03 15:03:37.306817-07:00,2072.5,642.4,1331.4,1643.5,1054.8,1437.8,1419.5,1695.7,3456.4,3450.4,1647.3,1417.6,1397.6,3447.9,1079.9,1532.9,3440.7,3437.0,826.9,1639.8,1107.8,628.6,1623.7,1714.8,3446.7,3451.6,774.5,943.2,1284.6,1516.2,1373.9,1233.7,12.0,-9.0,12.0,11082.0,6735.0,9940.0,1209.0,-27.0,45.0,-6.0,12.0,0.0,-3.0,12735.0,6187.0,6777.0,4694.0,16.0,-3.0,26.0,1.0
2022-05-03 15:03:37.334748-07:00,2067.5,640.0,1333.2,1643.5,1052.2,1441.5,1419.5,1695.7,3444.3,3441.9,1662.5,1417.6,1399.4,3433.4,1079.9,1532.9,3440.7,3437.0,830.2,1617.1,1107.8,632.7,1617.1,1711.0,3446.7,3451.6,768.7,938.1,1284.6,1519.9,1374.8,1248.8,26.0,-2.0,18.0,11079.0,6741.0,9937.0,1223.0,-5.0,6.0,54.0,4.0,20.0,14.0,12728.0,6201.0,6776.0,4698.0,-8.0,5.0,-2.0,1.0
2022-05-03 15:03:37.365802-07:00,2067.5,640.0,1333.2,1632.2,1052.2,1429.5,1414.9,1692.9,3444.3,3441.9,1662.5,1411.3,1399.4,3438.2,1082.5,1532.0,3439.5,3443.1,824.4,1617.1,1112.1,632.7,1617.1,1711.0,3454.0,3449.1,775.3,938.1,1284.6,1519.9,1374.8,1248.8,-2.0,34.0,12.0,11068.0,6752.0,9940.0,1245.0,1.0,60.0,22.0,8.0,-6.0,-3.0,12733.0,6193.0,6773.0,4700.0,-19.0,-3.0,-7.0,1.0
2022-05-03 15:03:37.367002-07:00,2068.5,641.6,1325.0,1632.2,1053.9,1429.5,1414.9,1692.9,3441.9,3447.9,1641.6,1411.3,1386.6,3438.2,1082.5,1532.0,3439.5,3443.1,824.4,1615.2,1112.1,630.3,1617.1,1710.0,3454.0,3449.1,775.3,939.8,1284.6,1510.6,1383.0,1223.9,15.0,-21.0,7.0,11070.0,6733.0,9949.0,1257.0,-36.0,-4.0,-14.0,8.0,-6.0,-3.0,12733.0,6193.0,6773.0,4700.0,-19.0,-3.0,-7.0,1.0
2022-05-03 15:03:37.367580-07:00,2068.5,641.6,1325.0,1632.2,1053.9,1429.5,1414.9,1692.9,3441.9,3447.9,1641.6,1411.3,1386.6,3438.2,1082.5,1532.0,3439.5,3443.1,824.4,1615.2,1112.1,630.3,1617.1,1710.0,3454.0,3449.1,775.3,939.8,1284.6,1510.6,1383.0,1223.9,15.0,-21.0,7.0,11070.0,6733.0,9949.0,1257.0,-36.0,-4.0,-14.0,10.0,10.0,1.0,12728.0,6203.0,6770.0,4704.0,19.0,-2.0,-2.0,1.0
2022-05-03 15:03:37.484732-07:00,2075.5,633.5,1327.8,1630.3,1060.8,1434.1,1418.6,1706.2,3441.9,3447.9,1653.9,1417.6,1397.6,3439.5,1075.6,1532.9,3449.1,3443.1,813.5,1620.9,1111.2,627.8,1617.1,1694.8,3451.6,3449.1,774.5,939.8,1292.7,1512.5,1384.8,1228.4,9.0,20.0,15.0,11071.0,6751.0,9934.0,1271.0,22.0,-3.0,11.0,8.0,2.0,5.0,12726.0,6206.0,6771.0,4702.0,25.0,5.0,3.0,1.0
2022-05-03 15:03:37.515573-07:00,2075.5,633.5,1327.8,1636.9,1060.8,1433.2,1413.1,1699.5,3441.9,3447.9,1653.9,1414.0,1397.6,3450.4,1072.9,1522.7,3443.1,3444.3,825.2,1620.9,1113.0,627.8,1617.1,1694.8,3451.6,3441.9,776.1,939.8,1277.4,1512.5,1384.8,1228.4,10.0,0.0,19.0,11071.0,6752.0,9933.0,1274.0,13.0,21.0,5.0,9.0,1.0,1.0,12722.0,6214.0,6775.0,4698.0,16.0,10.0,5.0,1.0
2022-05-03 15:03:37.516798-07:00,2071.5,639.2,1332.3,1629.4,1052.2,1433.2,1413.1,1699.5,3444.3,3440.7,1652.0,1414.0,1393.0,3450.4,1072.9,1522.7,3443.1,3444.3,825.2,1616.2,1103.4,628.6,1610.5,1705.3,3451.6,3441.9,776.1,937.3,1290.0,1518.0,1375.7,1230.2,11.0,8.0,17.0,11062.0,6761.0,9936.0,1279.0,15.0,20.0,14.0,10.0,7.0,1.0,12719.0,6220.0,6778.0,4696.0,20.0,8.0,-2.0,1.0
2022-05-03 15:03:37.574910-07:00,2071.5,639.2,1332.3,1629.4,1053.0,1432.3,1419.5,1697.6,3444.3,3440.7,1652.0,1414.0,1395.7,3449.1,1072.9,1525.5,3428.6,3444.3,841.1,1622.8,1103.4,628.6,1610.5,1705.3,3450.4,3450.4,776.9,939.8,1290.0,1518.0,1375.7,1230.2,12.0,5.0,9.0,11057.0,6764.0,9938.0,1282.0,17.0,18.0,9.0,9.0,2.0,0.0,12718.0,6222.0,6779.0,4694.0,-9.0,-5.0,1.0,1.0
2022-05-03 15:03:37.635493-07:00,2061.5,640.8,1325.9,1617.1,1053.0,1432.3,1419.5,1697.6,3445.5,3444.3,1657.7,1411.3,1395.7,3449.1,1072.9,1525.5,3428.6,3444.3,841.1,1622.8,1101.7,631.9,1611.5,1714.8,3450.4,3450.4,776.9,939.8,1291.8,1515.3,1376.6,1226.6,9.0,-1.0,11.0,11055.0,6764.0,9941.0,1286.0,-19.0,10.0,2.0,5.0,7.0,2.0,12718.0,6222.0,6779.0,4694.0,4.0,-4.0,1.0,1.0
2022-05-03 15:03:37.995620-07:00,2061.5,640.8,1325.9,1617.1,1057.3,1424.1,1412.2,1691.0,3445.5,3444.3,1657.7,1411.3,1405.8,3445.5,1080.8,1523.6,3428.6,3434.6,825.2,1612.4,1101.7,631.9,1611.5,1714.8,3440.7,3438.2,775.3,933.9,1291.8,1515.3,1376.6,1226.6,6.0,8.0,11.0,11057.0,6765.0,9937.0,1289.0,18.0,-14.0,9.0,10.0,3.0,0.0,12718.0,6222.0,6778.0,4694.0,-2.0,-10.0,1.0,1.0
2022-05-03 15:03:38.024101-07:00,2067.5,640.8,1324.1,1628.4,1057.3,1424.1,1412.2,1691.0,3443.1,3446.7,1645.4,1420.4,1405.8,3445.5,1080.8,1523.6,3428.6,3434.6,825.2,1612.4,1105.1,623.8,1612.4,1710.0,3440.7,3438.2,775.3,933.9,1286.4,1515.3,1373.9,1225.7,14.0,0.0,16.0,11060.0,6769.0,9931.0,1285.0,7.0,-14.0,3.0,8.0,0.0,6.0,12718.0,6221.0,6777.0,4696.0,-4.0,1.0,11.0,1.0
2022-05-03 15:03:38.085533-07:00,2066.5,640.8,1324.1,1628.4,1052.2,1426.8,1412.2,1701.4,3449.1,3446.7,1645.4,1420.4,1401.2,3443.1,1074.7,1519.9,3449.1,3440.7,822.7,1612.4,1105.1,623.8,1612.4,1712.9,3438.2,3444.3,772.8,939.8,1286.4,1515.3,1373.9,1223.9,11.0,2.0,22.0,11066.0,6764.0,9927.0,1292.0,-24.0,11.0,12.0,10.0,7.0,4.0,12713.0,6230.0,6776.0,4699.0,19.0,5.0,22.0,1.0
2022-05-03 15:03:38.086436-07:00,2066.5,640.8,1325.9,1627.5,1052.2,1426.8,1412.2,1699.5,3449.1,3438.2,1653.0,1414.9,1401.2,3443.1,1074.7,1528.3,3437.0,3440.7,822.7,1612.4,1106.0,623.8,1604.9,1712.9,3449.1,3444.3,772.8,939.8,1283.7,1510.6,1376.6,1223.9,14.0,10.0,17.0,11065.0,6769.0,9923.0,1310.0,4.0,19.0,43.0,11.0,4.0,-3.0,12710.0,6235.0,6776.0,4700.0,11.0,6.0,6.0,1.0
2022-05-03 15:03:38.087422-07:00,2059.4,640.8,1325.9,1627.5,1054.8,1425.0,1418.6,1699.5,3435.8,3438.2,1653.0,1414.9,1397.6,3438.2,1079.0,1528.3,3437.0,3443.1,820.2,1601.1,1106.0,623.8,1604.9,1706.2,3449.1,3441.9,771.1,934.7,1283.7,1510.6,1376.6,1223.9,11.0,10.0,10.0,11063.0,6772.0,9922.0,1321.0,-6.0,21.0,5.0,7.0,7.0,2.0,12709.0,6238.0,6777.0,4699.0,2.0,-4.0,-7.0,1.0
2022-05-03 15:03:38.115599-07:00,2065.5,634.3,1322.3,1628.4,1052.2,1413.1,1411.3,1694.8,3433.4,3443.1,1643.5,1412.2,1399.4,3444.3,1072.9,1527.3,3443.1,3443.1,816.0,1606.8,1100.8,624.6,1600.2,1712.9,3439.5,3441.9,767.0,932.2,1292.7,1507.8,1373.9,1227.5,3.0,7.0,10.0,11063.0,6770.0,9920.0,1341.0,14.0,-7.0,-8.0,9.0,-5.0,3.0,12709.0,6238.0,6777.0,4699.0,1.0,-7.0,7.0,1.0
2022-05-03 15:03:38.145668-07:00,2063.5,640.8,1322.3,1628.4,1058.2,1418.6,1411.3,1694.8,3441.9,3440.7,1643.5,1412.2,1395.7,3439.5,1072.9,1527.3,3443.1,3443.1,826.9,1599.3,1100.8,624.6,1604.9,1710.0,3439.5,3441.9,770.3,927.1,1292.7,1507.8,1373.0,1224.8,11.0,-4.0,19.0,11064.0,6771.0,9919.0,1343.0,-9.0,11.0,15.0,11.0,-2.0,9.0,12700.0,6253.0,6780.0,4699.0,69.0,11.0,18.0,1.0
2022-05-03 15:03:38.174877-07:00,2063.5,640.8,1322.3,1630.3,1058.2,1418.6,1412.2,1685.3,3441.9,3440.7,1653.9,1412.2,1395.7,3439.5,1076.4,1522.7,3429.8,3441.9,826.9,1599.3,1097.3,626.2,1604.9,1710.0,3438.2,3454.0,770.3,927.1,1289.1,1532.0,1373.0,1224.8,8.0,0.0,24.0,11054.0,6787.0,9916.0,1356.0,63.0,36.0,54.0,13.0,19.0,5.0,12689.0,6265.0,6791.0,4696.0,21.0,23.0,-11.0,1.0
2022-05-03 15:03:38.234843-07:00,2056.4,635.1,1322.3,1630.3,1052.2,1425.0,1412.2,1685.3,3443.1,3446.7,1653.9,1412.2,1396.7,3440.7,1076.4,1522.7,3429.8,3441.9,822.7,1605.8,1097.3,626.2,1598.3,1708.1,3438.2,3454.0,767.0,935.6,1289.1,1532.0,1374.8,1232.8,0.0,24.0,14.0,11037.0,6798.0,9928.0,1355.0,16.0,36.0,-27.0,8.0,0.0,-4.0,12689.0,6261.0,6796.0,4693.0,-9.0,3.0,-9.0,1.0
2022-05-03 15:03:38.354846-07:00,2056.4,635.1,1328.7,1626.5,1052.2,1420.4,1415.8,1694.8,3443.1,3446.7,1645.4,1413.1,1396.7,3440.7,1067.7,1534.8,3437.0,3449.1,823.5,1605.8,1104.3,630.3,1598.3,1708.1,3444.3,3446.7,767.8,935.6,1284.6,1515.3,1374.8,1232.8,15.0,-8.0,0.0,11035.0,6790.0,9937.0,1351.0,-2.0,0.0,-16.0,8.0,2.0,2.0,12691.0,6260.0,6794.0,4694.0,-16.0,-14.0,-1.0,1.0
2022-05-03 15:03:39.104597-07:00,2067.5,632.7,1325.0,1626.5,1056.5,1420.4,1415.8,1694.8,3438.2,3449.1,1650.2,1413.1,1393.0,3440.7,1067.7,1534.8,3437.0,3449.1,823.5,1588.0,1104.3,627.0,1601.1,1714.8,3444.3,3446.7,767.8,936.4,1284.6,1494.0,1373.0,1222.2,2.0,-4.0,7.0,11039.0,6790.0,9932.0,1348.0,2.0,-26.0,6.0,8.0,8.0,11.0,12693.0,6260.0,6791.0,4692.0,5.0,-9.0,-10.0,1.0
2022-05-03 15:03:39.105504-07:00,2067.5,632.7,1325.0,1632.2,1056.5,1416.7,1412.2,1694.8,3438.2,3449.1,1650.2,1415.8,1393.0,3439.5,1074.7,1525.5,3445.5,3438.2,825.2,1588.0,1101.7,627.0,1601.1,1714.8,3454.0,3438.2,771.1,936.4,1289.1,1494.0,1373.0,1222.2,4.0,5.0,14.0,11043.0,6792.0,9927.0,1343.0,14.0,-10.0,-13.0,13.0,-11.0,3.0,12695.0,6257.0,6791.0,4691.0,-11.0,3.0,7.0,1.0
2022-05-03 15:03:39.106871-07:00,2061.5,633.5,1326.8,1632.2,1054.8,1416.7,1412.2,1694.8,3439.5,3449.1,1656.8,1415.8,1398.5,3439.5,1074.7,1525.5,3445.5,3438.2,825.2,1597.4,1101.7,629.5,1597.4,1714.8,3454.0,3438.2,771.1,929.6,1289.1,1517.1,1372.1,1228.4,19.0,-16.0,20.0,11051.0,6792.0,9919.0,1346.0,-12.0,-20.0,41.0,6.0,16.0,12.0,12689.0,6263.0,6793.0,4697.0,24.0,19.0,11.0,1.0
2022-05-03 15:03:39.108335-07:00,2061.5,633.5,1326.8,1636.0,1054.8,1417.6,1404.0,1696.7,3439.5,3449.1,1656.8,1411.3,1398.5,3438.2,1064.3,1521.8,3446.7,3433.4,825.2,1597.4,1097.3,629.5,1597.4,1714.8,3441.9,3438.2,764.5,929.6,1285.5,1517.1,1372.1,1228.4,-4.0,20.0,19.0,11048.0,6800.0,9915.0,1354.0,12.0,27.0,4.0,13.0,-5.0,-4.0,12684.0,6263.0,6800.0,4699.0,-1.0,11.0,0.0,1.0
2022-05-03 15:03:39.109863-07:00,2059.4,634.3,1326.8,1636.0,1053.0,1417.6,1404.0,1696.7,3449.1,3444.3,1653.0,1411.3,1398.5,3438.2,1064.3,1521.8,3446.7,3433.4,825.2,1599.3,1097.3,631.1,1597.4,1710.0,3441.9,3438.2,764.5,929.6,1285.5,1502.3,1371.2,1235.5,14.0,-10.0,4.0,11045.0,6796.0,9920.0,1358.0,-11.0,12.0,0.0,9.0,7.0,4.0,12690.0,6263.0,6793.0,4694.0,12.0,15.0,3.0,1.0
2022-05-03 15:03:39.195632-07:00,2058.4,635.9,1326.8,1626.5,1055.6,1421.3,1413.1,1697.6,3444.3,3441.9,1654.9,1414.9,1401.2,3437.0,1072.9,1526.4,3444.3,3440.7,823.5,1602.1,1097.3,628.6,1600.2,1714.8,3443.1,3445.5,767.0,933.0,1281.0,1514.3,1375.7,1223.0,7.0,0.0,13.0,11063.0,6826.0,9879.0,1366.0,8.0,38.0,-4.0,12.0,-1.0,2.0,12684.0,6269.0,6797.0,4695.0,11.0,7.0,18.0,1.0
2022-05-03 15:03:39.199089-07:00,2054.4,634.3,1322.3,1630.3,1052.2,1414.9,1406.7,1699.5,3449.1,3439.5,1651.1,1417.6,1409.4,3449.1,1070.3,1529.2,3433.4,3437.0,819.4,1600.2,1100.8,627.8,1597.4,1724.4,3451.6,3444.3,770.3,927.1,1273.0,1515.3,1370.3,1226.6,10.0,-8.0,4.0,11054.0,6830.0,9885.0,1377.0,-9.0,8.0,46.0,8.0,18.0,0.0,12681.0,6274.0,6793.0,4703.0,11.0,-7.0,15.0,1.0
2022-05-03 15:03:39.225116-07:00,2054.4,634.3,1325.0,1628.4,1052.2,1414.9,1409.4,1680.5,3449.1,3439.5,1647.3,1411.3,1409.4,3449.1,1068.6,1510.6,3438.2,3446.7,819.4,1600.2,1092.9,623.8,1597.4,1724.4,3445.5,3451.6,770.3,927.1,1284.6,1516.2,1370.3,1226.6,6.0,19.0,6.0,11054.0,6840.0,9875.0,1393.0,1.0,7.0,14.0,12.0,7.0,7.0,12683.0,6271.0,6793.0,4701.0,-20.0,-4.0,-12.0,1.0
2022-05-03 15:03:39.284893-07:00,2058.4,631.9,1325.0,1628.4,1060.8,1413.1,1409.4,1680.5,3451.6,3443.1,1647.3,1411.3,1396.7,3449.1,1068.6,1510.6,3438.2,3446.7,824.4,1581.4,1092.9,623.8,1598.3,1711.0,3445.5,3451.6,767.0,928.8,1284.6,1516.2,1373.0,1228.4,15.0,-4.0,13.0,11056.0,6837.0,9875.0,1392.0,-21.0,-15.0,-17.0,8.0,0.0,5.0,12687.0,6266.0,6790.0,4703.0,-8.0,-11.0,5.0,1.0
2022-05-03 15:03:39.404814-07:00,2058.4,631.9,1330.5,1625.6,1060.8,1413.1,1418.6,1687.2,3451.6,3443.1,1644.5,1411.3,1396.7,3449.1,1074.7,1523.6,3449.1,3449.1,824.4,1581.4,1096.4,629.5,1598.3,1711.0,3444.3,3438.2,767.0,928.8,1288.2,1507.8,1373.0,1228.4,5.0,-4.0,16.0,11063.0,6832.0,9871.0,1392.0,-4.0,11.0,9.0,15.0,0.0,9.0,12686.0,6266.0,6790.0,4703.0,5.0,1.0,10.0,1.0
2022-05-03 15:03:39.405894-07:00,2054.4,627.0,1322.3,1625.6,1053.0,1416.7,1418.6,1687.2,3450.4,3449.1,1637.9,1411.3,1395.7,3443.1,1074.7,1523.6,3449.1,3449.1,821.9,1599.3,1096.4,623.8,1595.5,1711.0,3444.3,3438.2,770.3,928.8,1288.2,1509.7,1370.3,1229.3,9.0,-1.0,13.0,11064.0,6834.0,9868.0,1397.0,-1.0,4.0,13.0,10.0,2.0,-1.0,12686.0,6268.0,6790.0,4703.0,14.0,4.0,10.0,1.0
2022-05-03 15:03:39.465682-07:00,2054.4,627.0,1322.3,1625.6,1053.0,1411.3,1402.1,1698.6,3450.4,3449.1,1637.9,1413.1,1395.7,3435.8,1091.2,1526.4,3449.1,3438.2,817.7,1599.3,1092.1,623.8,1595.5,1711.0,3450.4,3446.7,769.5,928.8,1286.4,1509.7,1370.3,1229.3,13.0,-2.0,12.0,11064.0,6837.0,9865.0,1402.0,1.0,18.0,18.0,10.0,11.0,7.0,12682.0,6274.0,6791.0,4702.0,8.0,8.0,0.0,1.0
2022-05-03 15:03:39.495552-07:00,2060.5,627.8,1323.2,1625.6,1059.1,1411.3,1402.1,1698.6,3439.5,3443.1,1653.0,1413.1,1393.9,3435.8,1091.2,1526.4,3449.1,3438.2,817.7,1591.7,1092.1,634.3,1590.8,1710.0,3450.4,3446.7,769.5,926.2,1286.4,1515.3,1371.2,1220.4,3.0,12.0,7.0,11057.0,6840.0,9870.0,1408.0,11.0,22.0,5.0,6.0,6.0,0.0,12684.0,6272.0,6791.0,4702.0,-12.0,-5.0,-9.0,1.0
2022-05-03 15:03:39.525089-07:00,2060.5,627.8,1323.2,1630.3,1059.1,1414.9,1400.3,1694.8,3439.5,3443.1,1653.0,1411.3,1393.9,3445.5,1072.1,1522.7,3446.7,3444.3,822.7,1591.7,1094.7,634.3,1590.8,1710.0,3443.1,3458.9,772.0,926.2,1286.4,1515.3,1371.2,1220.4,13.0,-5.0,8.0,11058.0,6837.0,9871.0,1407.0,-13.0,7.0,-17.0,11.0,1.0,5.0,12685.0,6271.0,6789.0,4702.0,-11.0,-13.0,7.0,1.0
2022-05-03 15:03:39.705471-07:00,2054.4,631.9,1326.8,1630.3,1055.6,1414.9,1400.3,1694.8,3443.1,3438.2,1650.2,1411.3,1401.2,3445.5,1072.1,1522.7,3446.7,3444.3,822.7,1592.7,1094.7,624.6,1593.6,1710.0,3443.1,3458.9,772.0,933.9,1286.4,1510.6,1369.4,1220.4,10.0,-4.0,10.0,11058.0,6838.0,9870.0,1409.0,-9.0,-12.0,17.0,10.0,8.0,2.0,12685.0,6270.0,6789.0,4702.0,-16.0,-6.0,-2.0,1.0
2022-05-03 15:03:39.734880-07:00,2054.4,631.9,1326.8,1643.5,1055.6,1412.2,1403.0,1693.8,3443.1,3438.2,1650.2,1415.8,1401.2,3444.3,1076.4,1521.8,3445.5,3437.0,826.0,1592.7,1094.7,624.6,1593.6,1710.0,3449.1,3447.9,769.5,933.9,1290.0,1510.6,1369.4,1220.4,14.0,22.0,22.0,11062.0,6841.0,9863.0,1411.0,0.0,-19.0,-3.0,11.0,0.0,5.0,12688.0,6267.0,6791.0,4698.0,-6.0,8.0,-18.0,1.0
2022-05-03 15:03:39.736085-07:00,2059.4,630.3,1325.9,1633.1,1063.4,1412.2,1403.0,1693.8,3451.6,3449.1,1638.8,1407.6,1400.3,3444.3,1076.4,1521.8,3445.5,3437.0,826.0,1593.6,1099.9,623.0,1592.7,1714.8,3449.1,3447.9,769.5,924.5,1290.9,1510.6,1369.4,1225.7,7.0,-5.0,12.0,11062.0,6832.0,9870.0,1406.0,-6.0,9.0,-36.0,9.0,-7.0,0.0,12686.0,6269.0,6792.0,4699.0,11.0,-9.0,15.0,1.0
2022-05-03 15:03:39.736850-07:00,2059.4,630.3,1325.9,1633.1,1053.9,1415.8,1408.5,1695.7,3451.6,3449.1,1638.8,1407.6,1401.2,3443.1,1076.4,1512.5,3449.1,3446.7,811.9,1588.0,1099.9,623.0,1592.7,1714.8,3443.1,3454.0,769.5,928.8,1290.9,1510.6,1369.4,1225.7,10.0,7.0,13.0,11062.0,6833.0,9869.0,1405.0,20.0,-7.0,31.0,10.0,9.0,10.0,12686.0,6268.0,6791.0,4699.0,-11.0,5.0,-10.0,1.0
2022-05-03 15:03:40.245659-07:00,2043.4,630.3,1323.2,1626.5,1053.9,1415.8,1408.5,1695.7,3454.0,3449.1,1651.1,1414.9,1401.2,3443.1,1076.4,1512.5,3449.1,3446.7,811.9,1588.0,1097.3,627.0,1589.9,1712.9,3443.1,3454.0,769.5,928.8,1290.9,1506.9,1367.6,1231.0,5.0,8.0,8.0,11062.0,6835.0,9868.0,1405.0,-3.0,1.0,-17.0,13.0,-5.0,0.0,12686.0,6269.0,6790.0,4701.0,12.0,-8.0,18.0,1.0
2022-05-03 15:03:40.305747-07:00,2043.4,630.3,1323.2,1626.5,1052.2,1413.1,1404.0,1694.8,3454.0,3449.1,1651.1,1414.9,1399.4,3449.1,1072.1,1523.6,3449.1,3449.1,817.7,1592.7,1097.3,627.0,1589.9,1712.9,3445.5,3438.2,773.6,925.4,1290.9,1506.9,1367.6,1231.0,13.0,-10.0,6.0,11064.0,6838.0,9864.0,1407.0,-2.0,-13.0,39.0,10.0,6.0,3.0,12683.0,6274.0,6787.0,4705.0,1.0,-5.0,2.0,1.0
2022-05-03 15:03:40.335201-07:00,2050.4,628.6,1333.2,1628.4,1052.2,1413.1,1404.0,1694.8,3444.3,3445.5,1645.4,1414.0,1399.4,3449.1,1072.1,1523.6,3449.1,3449.1,817.7,1592.7,1093.8,631.9,1590.8,1712.9,3445.5,3438.2,773.6,925.4,1288.2,1514.3,1366.6,1222.2,4.0,25.0,12.0,11063.0,6850.0,9854.0,1418.0,4.0,-2.0,15.0,15.0,5.0,7.0,12685.0,6271.0,6789.0,4701.0,-10.0,4.0,-19.0,1.0
2022-05-03 15:03:40.424968-07:00,2051.4,628.6,1333.2,1628.4,1056.5,1417.6,1404.0,1683.3,3446.7,3445.5,1645.4,1414.0,1399.4,3437.0,1069.5,1521.8,3443.1,3441.9,817.7,1589.9,1093.8,631.9,1590.8,1709.1,3451.6,3458.9,767.8,927.1,1288.2,1514.3,1366.6,1228.4,13.0,-2.0,13.0,11064.0,6841.0,9861.0,1412.0,2.0,10.0,-36.0,6.0,4.0,1.0,12688.0,6267.0,6788.0,4702.0,6.0,2.0,5.0,1.0
2022-05-03 15:03:40.426162-07:00,2051.4,628.6,1328.7,1630.3,1056.5,1417.6,1404.0,1699.5,3446.7,3447.9,1653.9,1410.3,1399.4,3437.0,1069.5,1526.4,3438.2,3441.9,817.7,1589.9,1090.3,630.3,1589.9,1709.1,3451.6,3458.9,767.8,927.1,1285.5,1511.5,1380.3,1228.4,4.0,-1.0,15.0,11067.0,6835.0,9862.0,1411.0,0.0,10.0,-1.0,6.0,4.0,1.0,12688.0,6267.0,6788.0,4702.0,6.0,2.0,5.0,1.0
2022-05-03 15:03:40.426800-07:00,2051.4,628.6,1328.7,1630.3,1056.5,1417.6,1404.0,1699.5,3446.7,3447.9,1653.9,1410.3,1399.4,3437.0,1069.5,1526.4,3438.2,3441.9,817.7,1589.9,1090.3,630.3,1589.9,1709.1,3451.6,3458.9,767.8,927.1,1285.5,1511.5,1380.3,1228.4,4.0,-1.0,15.0,11067.0,6835.0,9862.0,1411.0,0.0,10.0,-1.0,11.0,-2.0,0.0,12683.0,6281.0,6775.0,4713.0,3.0,-1.0,40.0,1.0
2022-05-03 15:03:40.428159-07:00,2052.4,631.9,1325.9,1626.5,1057.3,1410.3,1388.5,1693.8,3440.7,3449.1,1654.9,1415.8,1404.9,3447.9,1070.3,1515.3,3438.2,3438.2,820.2,1589.9,1094.7,632.7,1595.5,1711.9,3445.5,3449.1,766.2,918.6,1290.0,1507.8,1364.8,1225.7,10.0,-16.0,3.0,11078.0,6876.0,9819.0,1423.0,-4.0,-31.0,84.0,10.0,8.0,2.0,12674.0,6300.0,6761.0,4732.0,-6.0,-35.0,105.0,1.0
2022-05-03 15:03:40.429181-07:00,2052.4,631.9,1325.9,1629.4,1057.3,1410.3,1404.9,1685.3,3440.7,3449.1,1652.0,1414.0,1404.9,3447.9,1070.3,1523.6,3435.8,3437.0,820.2,1589.9,1094.7,627.8,1595.5,1711.9,3447.9,3443.1,766.2,918.6,1291.8,1510.6,1364.8,1225.7,7.0,-27.0,9.0,11082.0,6916.0,9781.0,1464.0,-35.0,-36.0,238.0,15.0,-34.0,-5.0,12667.0,6334.0,6702.0,4790.0,-8.0,-89.0,259.0,1.0
2022-05-03 15:03:40.694531-07:00,2063.5,627.0,1325.9,1629.4,1054.8,1405.8,1404.9,1685.3,3450.4,3441.9,1652.0,1414.0,1394.8,3447.9,1070.3,1523.6,3435.8,3437.0,818.5,1586.1,1094.7,627.8,1591.7,1715.8,3447.9,3443.1,764.5,926.2,1291.8,1510.6,1371.2,1223.0,35.0,-63.0,18.0,11102.0,6981.0,9686.0,1624.0,-230.0,9.0,598.0,8.0,-10.0,28.0,12614.0,6447.0,6643.0,4862.0,221.0,-48.0,344.0,1.0
2022-05-03 15:03:40.725600-07:00,2063.5,627.0,1324.1,1633.1,1054.8,1404.0,1404.9,1695.7,3450.4,3441.9,1644.5,1414.0,1394.8,3445.5,1062.5,1524.5,3441.9,3432.2,818.5,1586.1,1096.4,620.5,1591.7,1715.8,3443.1,3445.5,764.5,926.2,1281.0,1515.3,1371.2,1223.0,-3.0,-18.0,26.0,11085.0,7144.0,9538.0,1885.0,7.0,-23.0,894.0,6.0,1.0,3.0,12552.0,6562.0,6600.0,4926.0,167.0,-28.0,255.0,1.0
2022-05-03 15:03:40.815854-07:00,2054.4,623.8,1324.1,1633.1,1053.9,1404.0,1404.9,1695.7,3445.5,3446.7,1653.9,1414.0,1396.7,3445.5,1062.5,1524.5,3441.9,3432.2,818.5,1594.6,1096.4,624.6,1593.6,1714.8,3443.1,3445.5,764.5,923.7,1281.0,1506.9,1371.2,1223.9,13.0,47.0,7.0,11064.0,7349.0,9355.0,2120.0,-39.0,-77.0,720.0,12.0,46.0,-4.0,12507.0,6644.0,6583.0,4955.0,45.0,-37.0,134.0,1.0
2022-05-03 15:03:40.816812-07:00,2054.4,623.8,1324.1,1635.0,1053.9,1404.9,1401.2,1688.1,3445.5,3446.7,1653.9,1408.5,1396.7,3444.3,1068.6,1518.0,3446.7,3449.1,816.9,1594.6,1092.1,624.6,1593.6,1714.8,3445.5,3435.8,772.0,923.7,1287.3,1506.9,1371.2,1223.9,18.0,68.0,-38.0,11059.0,7517.0,9199.0,2238.0,21.0,-237.0,499.0,1.0,18.0,-23.0,12518.0,6651.0,6526.0,4991.0,-36.0,-91.0,112.0,1.0
2022-05-03 15:03:40.817646-07:00,2065.5,623.0,1321.4,1635.0,1048.7,1404.9,1401.2,1688.1,3443.1,3441.9,1644.5,1408.5,1393.0,3444.3,1068.6,1518.0,3446.7,3449.1,816.9,1597.4,1092.1,627.0,1582.4,1718.6,3445.5,3435.8,772.0,929.6,1287.3,1505.1,1368.5,1223.0,22.0,5.0,5.0,11133.0,7567.0,9042.0,2338.0,-174.0,-240.0,321.0,15.0,4.0,14.0,12500.0,6703.0,6489.0,5014.0,82.0,-51.0,157.0,1.0
2022-05-03 15:03:40.818783-07:00,2065.5,623.0,1321.4,1628.4,1048.7,1404.0,1397.6,1695.7,3443.1,3441.9,1644.5,1396.7,1393.0,3447.9,1069.5,1525.5,3438.2,3435.8,817.7,1597.4,1087.7,627.0,1582.4,1718.6,3441.9,3449.1,772.0,929.6,1281.9,1505.1,1368.5,1223.0,12.0,-18.0,27.0,11156.0,7635.0,8927.0,2451.0,-80.0,-41.0,449.0,19.0,-16.0,28.0,12411.0,6866.0,6401.0,5126.0,221.0,5.0,320.0,1.0
2022-05-03 15:03:40.844833-07:00,2070.5,624.6,1331.4,1626.5,1053.9,1401.2,1404.0,1697.6,3440.7,3447.9,1642.6,1408.5,1399.4,3449.1,1067.7,1522.7,3434.6,3435.8,809.4,1577.7,1083.4,622.2,1578.6,1706.2,3438.2,3445.5,757.9,926.2,1292.7,1509.7,1367.6,1232.8,-10.0,-62.0,7.0,11103.0,7857.0,8656.0,2916.0,-52.0,99.0,851.0,10.0,36.0,-19.0,12283.0,7050.0,6321.0,5282.0,215.0,1.0,266.0,1.0
2022-05-03 15:03:40.875071-07:00,2053.4,623.8,1328.7,1629.4,1056.5,1400.3,1403.0,1695.7,3449.1,3445.5,1638.8,1413.1,1398.5,3449.1,1073.8,1520.8,3443.1,3444.3,809.4,1583.3,1083.4,623.0,1576.8,1710.0,3445.5,3450.4,762.0,970.5,1296.3,1504.1,1373.9,1223.9,15.0,8.0,-1.0,11002.0,8086.0,8342.0,3526.0,-61.0,76.0,749.0,19.0,-116.0,20.0,12191.0,7179.0,6297.0,5349.0,334.0,38.0,407.0,1.0
2022-05-03 15:03:41.000371-07:00,2050.4,623.8,1321.4,1631.3,1056.5,1400.3,1403.0,1695.7,3449.1,3443.1,1642.6,1405.8,1398.5,3449.1,1073.8,1520.8,3443.1,3444.3,809.4,1583.3,1079.9,622.2,1570.2,1711.0,3445.5,3450.4,762.0,970.5,1289.1,1513.4,1369.4,1228.4,17.0,-180.0,-18.0,10878.0,8268.0,8163.0,3884.0,34.0,179.0,1273.0,17.0,26.0,-15.0,11999.0,7442.0,6304.0,5416.0,566.0,42.0,524.0,1.0
2022-05-03 15:03:41.001223-07:00,2050.4,623.8,1321.4,1631.3,1052.2,1405.8,1413.1,1687.2,3449.1,3443.1,1642.6,1405.8,1397.6,3449.1,1075.6,1532.0,3444.3,3438.2,808.5,1581.4,1079.9,622.2,1570.2,1711.0,3443.1,3449.1,765.3,958.5,1289.1,1513.4,1369.4,1228.4,41.0,51.0,44.0,10636.0,8671.0,7875.0,4255.0,202.0,157.0,1653.0,15.0,-22.0,36.0,11843.0,7643.0,6265.0,5522.0,458.0,53.0,453.0,1.0
2022-05-03 15:03:41.054770-07:00,2062.5,626.2,1327.8,1626.5,1052.2,1405.8,1413.1,1693.8,3447.9,3456.4,1644.5,1396.7,1397.6,3449.1,1075.6,1519.9,3428.6,3438.2,808.5,1581.4,1085.1,618.9,1579.6,1710.0,3443.1,3449.1,765.3,958.5,1288.2,1504.1,1373.0,1228.4,-31.0,91.0,-1.0,10404.0,9021.0,7553.0,4665.0,356.0,-242.0,1343.0,6.0,52.0,-65.0,11736.0,7776.0,6253.0,5580.0,18.0,-34.0,240.0,1.0
2022-05-03 15:03:41.145165-07:00,2063.5,626.2,1327.8,1626.5,1050.4,1393.0,1406.7,1693.8,3440.7,3456.4,1644.5,1396.7,1403.0,3449.1,1074.7,1519.9,3428.6,3441.9,811.0,1583.3,1085.1,618.9,1579.6,1711.9,3443.1,3452.8,774.5,966.2,1288.2,1504.1,1373.0,1229.3,85.0,86.0,-5.0,10320.0,9257.0,7239.0,4881.0,-288.0,-39.0,842.0,2.0,78.0,0.0,11691.0,7827.0,6225.0,5635.0,157.0,36.0,135.0,1.0
2022-05-03 15:03:41.204874-07:00,2063.5,624.6,1321.4,1619.9,1050.4,1393.0,1406.7,1691.0,3440.7,3449.1,1638.8,1413.1,1403.0,3449.1,1074.7,1517.1,3440.7,3441.9,811.0,1583.3,1073.8,625.4,1578.6,1711.9,3449.1,3452.8,774.5,966.2,1291.8,1505.1,1369.4,1229.3,-18.0,95.0,-35.0,10258.0,9340.0,7096.0,5062.0,93.0,-85.0,418.0,4.0,-12.0,6.0,11682.0,7836.0,6211.0,5656.0,-96.0,-29.0,37.0,1.0
2022-05-03 15:03:41.207165-07:00,2058.4,624.6,1321.4,1619.9,1030.6,1386.6,1407.6,1691.0,3443.1,3449.1,1638.8,1413.1,1393.0,3444.3,1072.9,1517.1,3440.7,3439.5,806.9,1581.4,1073.8,625.4,1578.6,1711.0,3449.1,3446.7,775.3,968.8,1291.8,1505.1,1369.4,1225.7,-3.0,-24.0,-1.0,10261.0,9344.0,7036.0,5133.0,-188.0,47.0,91.0,2.0,10.0,0.0,11666.0,7859.0,6212.0,5657.0,148.0,11.0,32.0,1.0
2022-05-03 15:03:41.234894-07:00,2058.4,622.2,1320.5,1632.2,1030.6,1386.6,1407.6,1697.6,3443.1,3439.5,1637.9,1405.8,1393.0,3444.3,1072.9,1528.3,3440.7,3439.5,806.9,1581.4,1084.2,627.0,1571.1,1711.0,3450.4,3446.7,775.3,968.8,1257.8,1502.3,1368.5,1225.7,0.0,10.0,-3.0,10236.0,9377.0,7016.0,5147.0,177.0,-33.0,101.0,4.0,24.0,7.0,11662.0,7860.0,6218.0,5657.0,-80.0,16.0,-32.0,1.0
2022-05-03 15:03:41.325058-07:00,2049.4,622.2,1320.5,1632.2,1052.2,1383.0,1401.2,1697.6,3441.9,3439.5,1637.9,1405.8,1397.6,3439.5,1072.1,1528.3,3440.7,3450.4,802.7,1573.0,1084.2,627.0,1571.1,1710.0,3450.4,3451.6,767.8,961.1,1257.8,1502.3,1368.5,1230.2,0.0,18.0,9.0,10234.0,9372.0,7028.0,5144.0,-121.0,64.0,-110.0,11.0,-12.0,4.0,11654.0,7863.0,6229.0,5655.0,114.0,20.0,32.0,1.0
2022-05-03 15:03:41.326765-07:00,2049.4,623.0,1337.7,1632.2,1052.2,1383.0,1398.5,1695.7,3441.9,3441.9,1638.8,1396.7,1397.6,3439.5,1070.3,1523.6,3444.3,3438.2,802.7,1573.0,1077.3,627.0,1569.3,1710.0,3443.1,3446.7,767.8,961.1,1299.0,1508.8,1364.8,1230.2,1.0,-75.0,-8.0,10237.0,9342.0,7053.0,5158.0,44.0,94.0,95.0,-1.0,24.0,7.0,11613.0,7920.0,6231.0,5659.0,119.0,-19.0,104.0,1.0
2022-05-03 15:03:41.384824-07:00,2063.5,618.1,1337.7,1632.2,1049.6,1373.9,1398.5,1695.7,3444.3,3443.1,1638.8,1396.7,1399.4,3440.7,1070.3,1523.6,3444.3,3438.2,805.2,1559.0,1077.3,627.0,1564.6,1706.2,3443.1,3446.7,771.1,952.6,1299.0,1508.8,1363.9,1228.4,-15.0,-3.0,-14.0,10175.0,9396.0,7032.0,5214.0,84.0,-29.0,310.0,12.0,-51.0,-11.0,11566.0,7991.0,6223.0,5664.0,201.0,-20.0,122.0,1.0
2022-05-03 15:03:41.444736-07:00,2063.5,618.1,1315.1,1627.5,1049.6,1373.9,1396.7,1695.7,3444.3,3443.1,1636.0,1406.7,1399.4,3440.7,1072.1,1531.0,3446.7,3441.9,805.2,1559.0,1077.3,624.6,1564.6,1706.2,3454.0,3449.1,771.1,952.6,1285.5,1512.5,1363.9,1228.4,12.0,0.0,-8.0,10104.0,9504.0,6938.0,5279.0,263.0,-57.0,387.0,4.0,39.0,-8.0,11539.0,8037.0,6227.0,5649.0,-12.0,-30.0,-41.0,1.0
2022-05-03 15:03:41.474941-07:00,2078.5,619.7,1315.1,1627.5,1057.3,1367.6,1396.7,1695.7,3446.7,3439.5,1636.0,1406.7,1404.9,3451.6,1072.1,1531.0,3446.7,3441.9,810.2,1574.9,1077.3,624.6,1566.5,1713.8,3454.0,3449.1,772.0,972.2,1285.5,1512.5,1360.3,1224.8,6.0,98.0,-1.0,10021.0,9633.0,6888.0,5269.0,60.0,-133.0,-40.0,7.0,-13.0,8.0,11572.0,8003.0,6219.0,5639.0,-61.0,-14.0,-49.0,1.0
2022-05-03 15:03:41.535065-07:00,2078.5,619.7,1324.1,1629.4,1057.3,1367.6,1401.2,1690.0,3446.7,3439.5,1632.2,1401.2,1404.9,3451.6,1061.7,1522.7,3441.9,3437.0,810.2,1574.9,1078.2,626.2,1566.5,1713.8,3446.7,3450.4,772.0,972.2,1284.6,1502.3,1360.3,1224.8,-5.0,-41.0,4.0,10066.0,9608.0,6893.0,5223.0,-35.0,-45.0,-117.0,0.0,5.0,20.0,11578.0,7995.0,6219.0,5637.0,-7.0,3.0,-8.0,1.0
2022-05-03 15:03:41.654696-07:00,2046.4,626.2,1324.1,1629.4,1053.0,1373.0,1401.2,1690.0,3450.4,3444.3,1632.2,1401.2,1409.4,3449.1,1061.7,1522.7,3441.9,3437.0,801.9,1574.9,1078.2,626.2,1562.7,1714.8,3446.7,3450.4,764.5,972.2,1284.6,1502.3,1370.3,1216.8,-7.0,1.0,13.0,10083.0,9598.0,6900.0,5200.0,7.0,-18.0,-21.0,9.0,-1.0,12.0,11576.0,7995.0,6222.0,5639.0,26.0,25.0,-12.0,1.0
2022-05-03 15:03:41.834990-07:00,2046.4,626.2,1325.0,1632.2,1053.0,1373.0,1391.2,1694.8,3450.4,3444.3,1636.0,1402.1,1409.4,3440.7,1072.1,1514.3,3439.5,3445.5,809.4,1574.9,1073.8,623.0,1562.7,1714.8,3445.5,3449.1,767.0,972.2,1290.9,1511.5,1370.3,1216.8,0.0,1.0,4.0,10083.0,9596.0,6909.0,5191.0,54.0,25.0,-42.0,3.0,0.0,2.0,11572.0,7991.0,6235.0,5639.0,-11.0,21.0,-18.0,1.0
2022-05-03 15:03:41.865869-07:00,2050.4,623.0,1319.6,1632.2,1057.3,1373.0,1391.2,1694.8,3438.2,3449.1,1636.9,1402.1,1404.9,3440.7,1072.1,1514.3,3439.5,3445.5,809.4,1574.9,1073.8,627.8,1568.3,1706.2,3445.5,3449.1,767.0,968.8,1290.9,1502.3,1366.6,1223.9,1.0,-5.0,-6.0,10077.0,9588.0,6936.0,5182.0,-23.0,65.0,-67.0,0.0,-5.0,3.0,11580.0,7978.0,6231.0,5645.0,-49.0,-12.0,-3.0,1.0
2022-05-03 15:03:41.866856-07:00,2050.4,623.0,1319.6,1623.7,1057.3,1371.2,1386.6,1695.7,3438.2,3449.1,1636.9,1402.1,1404.9,3449.1,1069.5,1516.2,3444.3,3438.2,801.9,1574.9,1074.7,627.8,1568.3,1706.2,3445.5,3439.5,768.7,968.8,1289.1,1502.3,1366.6,1223.9,-6.0,-18.0,-14.0,10085.0,9563.0,6954.0,5189.0,-72.0,5.0,-12.0,-2.0,0.0,-1.0,11582.0,7983.0,6225.0,5640.0,16.0,-24.0,-2.0,1.0
2022-05-03 15:03:41.985069-07:00,2058.4,617.3,1330.5,1623.7,1052.2,1371.2,1386.6,1695.7,3443.1,3438.2,1632.2,1402.1,1396.7,3449.1,1069.5,1516.2,3444.3,3438.2,801.9,1569.3,1074.7,618.9,1559.0,1712.9,3445.5,3439.5,768.7,967.1,1289.1,1506.0,1361.2,1223.0,-3.0,1.0,-7.0,10093.0,9560.0,6946.0,5189.0,27.0,-40.0,22.0,2.0,6.0,6.0,11603.0,7968.0,6206.0,5639.0,-113.0,-48.0,-15.0,1.0
2022-05-03 15:03:41.986724-07:00,2058.4,617.3,1330.5,1625.6,1052.2,1369.4,1395.7,1695.7,3443.1,3438.2,1632.2,1402.1,1396.7,3434.6,1070.3,1534.8,3445.5,3435.8,799.4,1569.3,1075.6,618.9,1559.0,1712.9,3447.9,3447.9,771.1,967.1,1286.4,1506.0,1361.2,1223.0,-4.0,5.0,-2.0,10108.0,9562.0,6927.0,5181.0,-105.0,-80.0,-23.0,8.0,-10.0,9.0,11632.0,7942.0,6184.0,5641.0,-43.0,-16.0,-23.0,1.0
2022-05-03 15:03:42.194992-07:00,2052.4,620.5,1318.7,1640.7,1054.8,1369.4,1395.7,1695.7,3446.7,3450.4,1632.2,1405.8,1396.7,3434.6,1070.3,1534.8,3445.5,3435.8,799.4,1558.1,1074.7,624.6,1550.6,1711.9,3447.9,3447.9,771.1,968.8,1287.3,1506.9,1364.8,1230.2,3.0,-10.0,5.0,10153.0,9535.0,6904.0,5176.0,-41.0,-44.0,-47.0,-1.0,3.0,13.0,11636.0,7936.0,6189.0,5636.0,-54.0,12.0,-37.0,1.0
2022-05-03 15:03:42.314467-07:00,2052.4,620.5,1318.7,1640.7,1052.2,1363.0,1392.1,1699.5,3446.7,3450.4,1632.2,1405.8,1396.7,3444.3,1070.3,1510.6,3440.7,3443.1,800.2,1567.4,1074.7,624.6,1550.6,1711.9,3445.5,3447.9,761.2,967.1,1287.3,1506.9,1364.8,1230.2,0.0,-6.0,12.0,10167.0,9523.0,6913.0,5155.0,-48.0,-5.0,-93.0,5.0,-22.0,9.0,11652.0,7909.0,6187.0,5642.0,-8.0,20.0,-3.0,1.0
2022-05-03 15:03:42.404664-07:00,2055.4,622.2,1319.6,1628.4,1052.2,1363.0,1392.1,1699.5,3445.5,3445.5,1627.5,1404.9,1396.7,3444.3,1070.3,1510.6,3440.7,3443.1,800.2,1567.4,1076.4,625.4,1558.1,1709.1,3445.5,3447.9,761.2,967.1,1292.7,1507.8,1363.0,1231.0,-7.0,-39.0,5.0,10194.0,9485.0,6930.0,5151.0,-21.0,42.0,-26.0,3.0,0.0,1.0,11643.0,7915.0,6195.0,5644.0,5.0,17.0,14.0,1.0
2022-05-03 15:03:42.435738-07:00,2055.4,622.2,1319.6,1628.4,1054.8,1363.0,1398.5,1692.9,3445.5,3445.5,1627.5,1404.9,1396.7,3446.7,1072.1,1515.3,3445.5,3440.7,797.7,1560.9,1076.4,625.4,1558.1,1709.1,3450.4,3438.2,764.5,962.0,1292.7,1507.8,1363.0,1231.0,2.0,4.0,-2.0,10179.0,9489.0,6942.0,5158.0,18.0,45.0,18.0,3.0,6.0,5.0,11639.0,7913.0,6199.0,5649.0,0.0,18.0,-10.0,1.0
2022-05-03 15:03:42.436566-07:00,2055.4,616.5,1318.7,1629.4,1054.8,1363.0,1398.5,1692.9,3444.3,3438.2,1636.0,1407.6,1396.7,3446.7,1072.1,1515.3,3445.5,3440.7,797.7,1560.9,1075.6,620.5,1549.7,1710.0,3450.4,3438.2,764.5,962.0,1288.2,1496.7,1362.1,1223.9,0.0,5.0,-4.0,10169.0,9485.0,6954.0,5166.0,-4.0,43.0,-35.0,4.0,4.0,5.0,11637.0,7914.0,6207.0,5644.0,-14.0,3.0,-21.0,1.0
2022-05-03 15:03:42.466825-07:00,2055.4,616.5,1318.7,1629.4,1057.3,1356.7,1389.4,1694.8,3444.3,3438.2,1636.0,1407.6,1399.4,3438.2,1066.9,1539.4,3440.7,3449.1,801.0,1559.0,1075.6,620.5,1549.7,1710.0,3451.6,3444.3,764.5,966.2,1288.2,1496.7,1362.1,1223.9,1.0,8.0,4.0,10166.0,9476.0,6974.0,5163.0,7.0,-1.0,-31.0,1.0,-3.0,9.0,11635.0,7910.0,6216.0,5645.0,22.0,13.0,-3.0,1.0
2022-05-03 15:03:42.467833-07:00,2050.4,618.1,1324.1,1625.6,1048.7,1365.7,1393.0,1689.1,3447.9,3454.0,1637.9,1396.7,1396.7,3440.7,1070.3,1516.2,3446.7,3446.7,798.5,1560.9,1073.8,620.5,1544.1,1710.0,3454.0,3444.3,768.7,976.5,1286.4,1502.3,1369.4,1228.4,0.0,-14.0,-3.0,10166.0,9469.0,6991.0,5154.0,23.0,26.0,-23.0,0.0,-8.0,6.0,11635.0,7909.0,6216.0,5645.0,-16.0,-5.0,6.0,1.0
2022-05-03 15:03:42.524955-07:00,2050.4,618.1,1319.6,1628.4,1059.9,1361.2,1389.4,1701.4,3441.9,3443.1,1630.3,1400.3,1399.4,3431.0,1070.3,1537.6,3449.1,3446.7,796.9,1562.7,1072.1,627.0,1545.9,1715.8,3449.1,3446.7,764.5,971.3,1288.2,1498.6,1358.5,1223.9,-1.0,-12.0,-7.0,10163.0,9466.0,6995.0,5158.0,-29.0,10.0,7.0,0.0,4.0,5.0,11634.0,7910.0,6215.0,5647.0,16.0,5.0,7.0,1.0
2022-05-03 15:03:42.526079-07:00,2048.4,616.5,1319.6,1628.4,1053.0,1360.3,1389.4,1701.4,3454.0,3437.0,1630.3,1400.3,1391.2,3445.5,1070.3,1537.6,3449.1,3446.7,794.4,1556.2,1072.1,627.0,1542.2,1710.0,3449.1,3446.7,765.3,956.8,1288.2,1498.6,1365.7,1231.0,-3.0,-4.0,-1.0,10165.0,9467.0,6988.0,5163.0,1.0,-5.0,19.0,3.0,3.0,4.0,11631.0,7914.0,6217.0,5645.0,2.0,2.0,-8.0,1.0
2022-05-03 15:03:42.764710-07:00,2048.4,616.5,1318.7,1617.1,1053.0,1360.3,1390.3,1698.6,3454.0,3437.0,1635.0,1401.2,1391.2,3445.5,1071.2,1518.0,3444.3,3439.5,794.4,1556.2,1067.7,625.4,1542.2,1710.0,3446.7,3457.6,765.3,956.8,1292.7,1501.4,1365.7,1231.0,-1.0,1.0,0.0,10161.0,9473.0,6989.0,5158.0,13.0,-4.0,-17.0,-1.0,-1.0,6.0,11631.0,7914.0,6217.0,5645.0,2.0,-1.0,3.0,1.0
2022-05-03 15:03:42.765830-07:00,2049.4,618.9,1318.7,1617.1,1051.3,1360.3,1390.3,1698.6,3443.1,3451.6,1635.0,1401.2,1399.4,3444.3,1071.2,1518.0,3444.3,3439.5,806.9,1559.9,1067.7,625.4,1545.0,1711.0,3446.7,3457.6,764.5,957.7,1292.7,1501.4,1368.5,1216.8,0.0,-10.0,-9.0,10162.0,9469.0,6995.0,5156.0,-8.0,22.0,-13.0,3.0,3.0,6.0,11631.0,7915.0,6217.0,5644.0,11.0,4.0,2.0,1.0
2022-05-03 15:03:42.766908-07:00,2049.4,618.9,1328.7,1633.1,1051.3,1360.3,1386.6,1695.7,3443.1,3451.6,1629.4,1408.5,1399.4,3444.3,1072.1,1516.2,3449.1,3435.8,806.9,1559.9,1072.9,623.0,1545.0,1711.0,3449.1,3444.3,764.5,957.7,1293.6,1503.2,1368.5,1216.8,-2.0,5.0,8.0,10160.0,9472.0,6994.0,5156.0,18.0,-1.0,12.0,3.0,0.0,8.0,11631.0,7915.0,6218.0,5644.0,9.0,1.0,3.0,1.0
2022-05-03 15:03:42.768115-07:00,2051.4,619.7,1326.8,1633.1,1053.0,1352.1,1386.6,1695.7,3444.3,3444.3,1640.7,1408.5,1393.9,3449.1,1072.1,1516.2,3449.1,3435.8,791.0,1559.9,1072.9,623.8,1548.7,1707.2,3449.1,3444.3,770.3,957.7,1293.6,1501.4,1364.8,1224.8,-2.0,-9.0,-1.0,10158.0,9472.0,6995.0,5157.0,2.0,14.0,-1.0,2.0,-4.0,4.0,11626.0,7922.0,6221.0,5641.0,11.0,2.0,6.0,1.0
2022-05-03 15:03:42.771569-07:00,2051.4,619.7,1326.8,1628.4,1053.0,1355.8,1393.9,1688.1,3444.3,3444.3,1640.7,1400.3,1393.9,3444.3,1060.8,1522.7,3441.9,3435.8,794.4,1559.9,1059.9,623.8,1548.7,1707.2,3447.9,3443.1,772.8,957.7,1296.3,1501.4,1364.8,1224.8,0.0,0.0,0.0,10151.0,9480.0,6995.0,5158.0,19.0,4.0,22.0,-1.0,0.0,0.0,11626.0,7922.0,6221.0,5640.0,-8.0,1.0,-5.0,1.0
2022-05-03 15:03:43.694985-07:00,2056.4,616.5,1321.4,1628.4,1053.9,1355.8,1393.9,1688.1,3445.5,3443.1,1635.0,1400.3,1394.8,3444.3,1060.8,1522.7,3441.9,3435.8,794.4,1559.0,1059.9,619.7,1548.7,1711.0,3447.9,3443.1,772.8,962.0,1296.3,1494.0,1356.7,1239.1,1.0,2.0,5.0,10153.0,9478.0,6994.0,5159.0,-15.0,8.0,-15.0,1.0,2.0,7.0,11624.0,7923.0,6223.0,5641.0,-6.0,-3.0,-3.0,1.0
2022-05-03 15:03:43.965145-07:00,2056.4,616.5,1321.4,1636.0,1053.9,1361.2,1393.9,1691.9,3445.5,3443.1,1635.0,1403.0,1394.8,3435.8,1063.4,1516.2,3438.2,3434.6,796.0,1559.0,1066.9,619.7,1548.7,1711.0,3441.9,3440.7,767.8,962.0,1295.4,1494.0,1356.7,1239.1,1.0,-6.0,0.0,10152.0,9475.0,7000.0,5157.0,3.0,3.0,-5.0,1.0,6.0,5.0,11623.0,7925.0,6224.0,5639.0,18.0,-3.0,5.0,1.0
2022-05-03 15:03:43.995486-07:00,2052.4,616.5,1323.2,1636.0,1052.2,1361.2,1393.9,1691.9,3443.1,3449.1,1638.8,1403.0,1394.8,3435.8,1063.4,1516.2,3438.2,3434.6,796.0,1549.7,1066.9,627.8,1540.3,1710.0,3441.9,3440.7,767.8,956.8,1295.4,1507.8,1351.2,1221.3,0.0,0.0,-1.0,10150.0,9480.0,6997.0,5156.0,18.0,-13.0,22.0,5.0,3.0,11.0,11624.0,7923.0,6223.0,5640.0,-12.0,-2.0,-6.0,1.0
2022-05-03 15:03:43.996304-07:00,2052.4,616.5,1323.2,1631.3,1053.9,1363.9,1385.7,1686.2,3443.1,3449.1,1638.8,1406.7,1396.7,3447.9,1066.0,1512.5,3438.2,3440.7,797.7,1560.9,1065.1,627.8,1540.3,1710.0,3440.7,3446.7,770.3,955.1,1286.4,1507.8,1351.2,1221.3,-4.0,7.0,2.0,10152.0,9476.0,6998.0,5158.0,-19.0,5.0,-12.0,3.0,-2.0,6.0,11623.0,7924.0,6223.0,5640.0,13.0,6.0,4.0,1.0
2022-05-03 15:03:43.997654-07:00,2047.4,615.7,1327.8,1633.1,1053.9,1363.9,1385.7,1686.2,3439.5,3439.5,1628.4,1404.9,1396.7,3447.9,1066.0,1512.5,3438.2,3440.7,797.7,1560.9,1067.7,626.2,1536.6,1710.0,3440.7,3446.7,770.3,955.1,1288.2,1504.1,1360.3,1225.7,0.0,-13.0,3.0,10150.0,9478.0,7001.0,5155.0,23.0,-1.0,8.0,4.0,1.0,5.0,11630.0,7915.0,6217.0,5648.0,27.0,6.0,1.0,1.0
2022-05-03 15:03:44.025301-07:00,2046.4,614.1,1316.9,1624.7,1050.4,1361.2,1385.7,1689.1,3445.5,3451.6,1630.3,1412.2,1401.2,3449.1,1070.3,1527.3,3440.7,3443.1,791.0,1556.2,1062.5,623.0,1539.4,1711.0,3441.9,3454.0,762.0,958.5,1292.7,1503.2,1359.4,1229.3,2.0,-8.0,2.0,10158.0,9463.0,7003.0,5163.0,35.0,7.0,5.0,4.0,1.0,5.0,11630.0,7915.0,6217.0,5648.0,27.0,6.0,1.0,1.0
2022-05-03 15:03:44.115192-07:00,2046.4,614.1,1316.9,1624.7,1050.4,1361.2,1385.7,1689.1,3445.5,3451.6,1630.3,1412.2,1401.2,3449.1,1070.3,1527.3,3440.7,3443.1,791.0,1556.2,1062.5,623.0,1539.4,1711.0,3441.9,3454.0,762.0,958.5,1292.7,1503.2,1359.4,1229.3,2.0,-8.0,2.0,10158.0,9463.0,7003.0,5163.0,35.0,7.0,5.0,4.0,1.0,5.0,11630.0,7915.0,6217.0,5648.0,27.0,6.0,1.0,1.0
2022-05-03 15:03:44.116044-07:00,2046.4,614.1,1316.9,1624.7,1050.4,1361.2,1385.7,1689.1,3445.5,3451.6,1630.3,1412.2,1401.2,3449.1,1070.3,1527.3,3440.7,3443.1,791.0,1556.2,1062.5,623.0,1539.4,1711.0,3441.9,3454.0,762.0,958.5,1292.7,1503.2,1359.4,1229.3,2.0,-8.0,2.0,10158.0,9463.0,7003.0,5163.0,35.0,7.0,5.0,2.0,1.0,8.0,11622.0,7926.0,6223.0,5642.0,-7.0,0.0,-3.0,1.0
2022-05-03 15:03:44.145657-07:00,2052.4,618.9,1321.4,1631.3,1054.8,1351.2,1387.5,1691.9,3451.6,3441.9,1636.0,1404.0,1398.5,3443.1,1065.1,1519.0,3434.6,3439.5,794.4,1555.3,1064.3,627.8,1540.3,1712.9,3439.5,3445.5,767.0,949.2,1283.7,1507.8,1364.8,1223.9,4.0,-6.0,2.0,10147.0,9475.0,7008.0,5154.0,-7.0,6.0,-3.0,6.0,3.0,7.0,11622.0,7926.0,6223.0,5642.0,2.0,-1.0,1.0,1.0
2022-05-03 15:03:44.564980-07:00,2052.4,618.9,1321.4,1631.3,1053.9,1345.8,1396.7,1691.9,3451.6,3441.9,1636.0,1404.0,1395.7,3443.1,1064.3,1516.2,3441.9,3445.5,796.9,1552.5,1064.3,627.8,1540.3,1712.9,3450.4,3449.1,762.0,954.3,1283.7,1507.8,1364.8,1223.9,2.0,-3.0,5.0,10147.0,9475.0,7009.0,5155.0,-2.0,-5.0,5.0,0.0,0.0,2.0,11622.0,7926.0,6223.0,5642.0,8.0,-5.0,3.0,1.0
2022-05-03 15:03:44.685024-07:00,2053.4,614.9,1312.4,1631.3,1053.9,1345.8,1396.7,1691.9,3443.1,3446.7,1629.4,1404.0,1395.7,3443.1,1064.3,1516.2,3441.9,3445.5,796.9,1552.5,1062.5,626.2,1538.5,1702.4,3450.4,3449.1,762.0,954.3,1284.6,1490.3,1359.4,1229.3,4.0,0.0,5.0,10147.0,9475.0,7009.0,5155.0,11.0,6.0,5.0,6.0,2.0,7.0,11618.0,7931.0,6225.0,5639.0,22.0,4.0,0.0,1.0
2022-05-03 15:03:44.686301-07:00,2053.4,614.9,1312.4,1631.3,1052.2,1354.0,1377.5,1695.7,3443.1,3446.7,1629.4,1404.0,1397.6,3449.1,1072.1,1527.3,3451.6,3438.2,796.0,1555.3,1062.5,626.2,1538.5,1702.4,3447.9,3450.4,764.5,960.2,1284.6,1490.3,1359.4,1229.3,4.0,-1.0,3.0,10142.0,9479.0,7013.0,5153.0,21.0,9.0,-4.0,-3.0,-1.0,7.0,11617.0,7933.0,6226.0,5638.0,3.0,3.0,0.0,1.0
2022-05-03 15:03:44.687252-07:00,2055.4,610.8,1318.7,1636.0,1052.2,1354.0,1377.5,1695.7,3438.2,3438.2,1626.5,1404.9,1397.6,3449.1,1072.1,1527.3,3451.6,3438.2,796.0,1555.3,1056.5,619.7,1541.3,1704.3,3447.9,3450.4,764.5,960.2,1290.0,1503.2,1362.1,1227.5,0.0,-6.0,7.0,10139.0,9480.0,7015.0,5153.0,2.0,-2.0,-4.0,3.0,3.0,9.0,11615.0,7935.0,6227.0,5637.0,13.0,6.0,6.0,1.0
2022-05-03 15:03:44.688613-07:00,2040.4,610.8,1318.7,1636.0,1050.4,1350.3,1390.3,1694.8,3444.3,3438.2,1626.5,1404.9,1394.8,3438.2,1064.3,1507.8,3445.5,3439.5,792.7,1554.3,1056.5,619.7,1541.3,1709.1,3451.6,3447.9,770.3,949.2,1290.0,1503.2,1362.1,1221.3,0.0,-4.0,5.0,10137.0,9480.0,7017.0,5154.0,16.0,7.0,9.0,2.0,0.0,10.0,11609.0,7945.0,6231.0,5632.0,1.0,-3.0,1.0,1.0
2022-05-03 15:03:44.715203-07:00,2040.4,613.3,1325.0,1625.6,1050.4,1350.3,1390.3,1689.1,3444.3,3444.3,1634.1,1407.6,1394.8,3438.2,1064.3,1508.8,3433.4,3439.5,792.7,1554.3,1065.1,628.6,1536.6,1709.1,3438.2,3447.9,770.3,949.2,1286.4,1504.1,1363.9,1221.3,-2.0,-5.0,4.0,10128.0,9492.0,7014.0,5153.0,-1.0,5.0,1.0,6.0,2.0,11.0,11606.0,7950.0,6232.0,5631.0,2.0,-3.0,-1.0,1.0
2022-05-03 15:03:44.716363-07:00,2049.4,614.9,1320.5,1622.8,1053.0,1354.0,1383.0,1691.0,3437.0,3447.9,1634.1,1407.6,1393.0,3443.1,1066.0,1518.0,3443.1,3440.7,796.9,1547.8,1060.8,617.3,1538.5,1710.0,3460.1,3441.9,765.3,953.4,1288.2,1502.3,1357.6,1225.7,4.0,3.0,8.0,10123.0,9499.0,7009.0,5159.0,-1.0,4.0,-5.0,5.0,1.0,5.0,11603.0,7953.0,6234.0,5629.0,19.0,9.0,1.0,1.0
2022-05-03 15:03:44.805011-07:00,2038.4,607.6,1324.1,1613.4,1050.4,1352.1,1390.3,1689.1,3444.3,3433.4,1634.1,1403.0,1399.4,3449.1,1065.1,1513.4,3435.8,3444.3,794.4,1568.3,1055.6,626.2,1537.6,1708.1,3440.7,3446.7,767.0,949.2,1285.5,1499.5,1361.2,1223.9,5.0,-5.0,5.0,10120.0,9502.0,7010.0,5157.0,20.0,8.0,-1.0,2.0,4.0,11.0,11602.0,7955.0,6235.0,5628.0,8.0,1.0,3.0,1.0
2022-05-03 15:03:44.806150-07:00,2055.4,610.8,1324.1,1613.4,1052.2,1348.5,1390.3,1689.1,3444.3,3450.4,1634.1,1403.0,1398.5,3439.5,1065.1,1513.4,3435.8,3444.3,794.4,1551.5,1055.6,626.2,1537.6,1711.0,3440.7,3446.7,762.0,949.2,1285.5,1499.5,1361.2,1223.9,0.0,0.0,3.0,10117.0,9505.0,7012.0,5154.0,10.0,7.0,4.0,6.0,2.0,8.0,11599.0,7959.0,6237.0,5626.0,16.0,6.0,3.0,1.0
2022-05-03 15:03:44.865246-07:00,2055.4,610.8,1314.2,1623.7,1052.2,1344.9,1384.8,1696.7,3444.3,3450.4,1626.5,1403.0,1398.5,3439.5,1064.3,1525.5,3437.0,3441.9,790.2,1551.5,1057.3,624.6,1537.6,1711.0,3443.1,3451.6,767.0,949.2,1290.9,1499.5,1361.2,1223.9,3.0,-6.0,5.0,10114.0,9508.0,7014.0,5152.0,17.0,0.0,3.0,4.0,-4.0,8.0,11598.0,7961.0,6235.0,5628.0,7.0,8.0,10.0,1.0
2022-05-03 15:03:44.955029-07:00,2047.4,614.9,1320.5,1623.7,1053.0,1344.9,1384.8,1696.7,3438.2,3446.7,1633.1,1403.0,1391.2,3439.5,1064.3,1525.5,3437.0,3441.9,790.2,1550.6,1057.3,620.5,1532.9,1711.0,3443.1,3451.6,767.0,948.3,1290.9,1503.2,1359.4,1226.6,0.0,-7.0,1.0,10110.0,9510.0,7015.0,5154.0,8.0,14.0,18.0,3.0,-3.0,4.0,11597.0,7962.0,6236.0,5627.0,-5.0,0.0,3.0,1.0
2022-05-03 15:03:45.075098-07:00,2047.4,614.9,1320.5,1627.5,1053.0,1351.2,1385.7,1679.5,3438.2,3446.7,1633.1,1403.0,1391.2,3441.9,1062.5,1519.9,3443.1,3445.5,798.5,1550.6,1072.1,620.5,1532.9,1711.0,3447.9,3446.7,773.6,948.3,1283.7,1503.2,1359.4,1226.6,6.0,-6.0,4.0,10107.0,9513.0,7015.0,5155.0,-10.0,-3.0,3.0,9.0,0.0,6.0,11597.0,7962.0,6236.0,5628.0,-13.0,-3.0,5.0,1.0
2022-05-03 15:03:45.076729-07:00,2038.4,614.9,1328.7,1627.5,1055.6,1351.2,1385.7,1679.5,3444.3,3447.9,1630.3,1403.0,1397.6,3441.9,1062.5,1519.9,3443.1,3445.5,798.5,1549.7,1072.1,625.4,1540.3,1703.3,3447.9,3446.7,773.6,946.6,1283.7,1508.8,1362.1,1218.6,8.0,1.0,6.0,10107.0,9513.0,7015.0,5155.0,-9.0,6.0,2.0,8.0,5.0,8.0,11598.0,7961.0,6235.0,5628.0,9.0,5.0,3.0,1.0
2022-05-03 15:03:45.077923-07:00,2038.4,614.9,1328.7,1625.6,1055.6,1354.0,1379.4,1692.9,3444.3,3447.9,1630.3,1401.2,1397.6,3441.9,1061.7,1518.0,3444.3,3439.5,798.5,1549.7,1060.8,625.4,1540.3,1703.3,3451.6,3451.6,765.3,946.6,1290.9,1508.8,1362.1,1218.6,5.0,0.0,6.0,10107.0,9511.0,7015.0,5157.0,9.0,3.0,2.0,9.0,0.0,0.0,11598.0,7960.0,6235.0,5628.0,-10.0,-3.0,-1.0,1.0
2022-05-03 15:03:45.165209-07:00,2045.4,611.7,1325.0,1625.6,1046.1,1354.0,1379.4,1692.9,3438.2,3438.2,1624.7,1401.2,1396.7,3441.9,1061.7,1518.0,3444.3,3439.5,798.5,1550.6,1060.8,627.8,1535.7,1711.9,3451.6,3451.6,765.3,949.2,1290.9,1494.0,1360.3,1231.9,6.0,2.0,21.0,10107.0,9512.0,7016.0,5157.0,-7.0,0.0,-3.0,5.0,9.0,9.0,11597.0,7961.0,6236.0,5628.0,17.0,4.0,0.0,1.0
2022-05-03 15:03:45.315685-07:00,2045.4,611.7,1325.0,1626.5,1051.3,1350.3,1381.2,1696.7,3438.2,3438.2,1624.7,1402.1,1396.7,3443.1,1062.5,1521.8,3433.4,3440.7,798.5,1553.4,1063.4,627.8,1535.7,1711.9,3447.9,3438.2,768.7,955.1,1288.2,1494.0,1360.3,1231.9,0.0,-1.0,2.0,10106.0,9511.0,7017.0,5159.0,10.0,6.0,1.0,2.0,-3.0,3.0,11597.0,7960.0,6236.0,5629.0,-18.0,-7.0,-2.0,1.0
2022-05-03 15:03:45.316558-07:00,2049.4,610.0,1317.8,1631.3,1051.3,1350.3,1381.2,1696.7,3451.6,3441.9,1628.4,1406.7,1396.7,3443.1,1062.5,1521.8,3433.4,3440.7,798.5,1553.4,1070.3,623.8,1533.8,1711.0,3447.9,3438.2,768.7,955.1,1287.3,1500.4,1359.4,1232.8,0.0,-7.0,2.0,10104.0,9513.0,7018.0,5157.0,-8.0,-1.0,-9.0,1.0,16.0,4.0,11598.0,7960.0,6236.0,5629.0,8.0,-3.0,1.0,1.0
2022-05-03 15:03:45.317505-07:00,2049.4,610.0,1317.8,1631.3,1052.2,1348.5,1383.0,1692.9,3451.6,3441.9,1628.4,1406.7,1398.5,3449.1,1060.8,1519.0,3446.7,3440.7,791.0,1554.3,1070.3,623.8,1533.8,1711.0,3451.6,3439.5,761.2,944.1,1287.3,1500.4,1359.4,1232.8,0.0,7.0,13.0,10105.0,9512.0,7017.0,5159.0,7.0,-14.0,10.0,5.0,-22.0,0.0,11603.0,7953.0,6231.0,5634.0,-39.0,5.0,20.0,1.0
2022-05-03 15:03:45.434823-07:00,2038.4,610.8,1317.8,1628.4,1052.2,1348.5,1383.0,1692.9,3455.2,3447.9,1626.5,1398.5,1398.5,3449.1,1060.8,1519.0,3446.7,3440.7,791.0,1554.3,1064.3,623.8,1537.6,1715.8,3451.6,3439.5,761.2,944.1,1286.4,1504.1,1362.1,1216.8,11.0,-26.0,17.0,10113.0,9504.0,7007.0,5172.0,-98.0,13.0,36.0,2.0,-17.0,10.0,11605.0,7944.0,6222.0,5651.0,-56.0,8.0,43.0,1.0
2022-05-03 15:03:45.674994-07:00,2038.4,610.8,1317.8,1628.4,1053.9,1354.9,1382.1,1686.2,3455.2,3447.9,1626.5,1398.5,1405.8,3449.1,1060.8,1527.3,3443.1,3439.5,789.4,1547.8,1064.3,623.8,1537.6,1715.8,3445.5,3447.9,768.7,945.8,1286.4,1504.1,1362.1,1216.8,7.0,-24.0,20.0,10115.0,9486.0,6987.0,5227.0,-141.0,86.0,126.0,5.0,0.0,-4.0,11602.0,7944.0,6208.0,5673.0,-38.0,12.0,64.0,1.0
2022-05-03 15:03:45.765183-07:00,2046.4,614.9,1320.5,1626.5,1053.9,1354.9,1382.1,1689.1,3443.1,3444.3,1631.3,1402.1,1405.8,3449.1,1060.8,1517.1,3441.9,3439.5,789.4,1547.8,1058.2,627.0,1530.1,1709.1,3445.5,3447.9,768.7,945.8,1287.3,1500.4,1358.5,1220.4,8.0,-7.0,12.0,10107.0,9474.0,6952.0,5309.0,-141.0,85.0,186.0,9.0,0.0,10.0,11599.0,7943.0,6184.0,5707.0,-22.0,-2.0,96.0,1.0
2022-05-03 15:03:45.825498-07:00,2069.5,614.9,1320.5,1626.5,1053.0,1354.0,1386.6,1689.1,3447.9,3444.3,1631.3,1402.1,1395.7,3450.4,1067.7,1517.1,3441.9,3441.9,787.7,1553.4,1058.2,627.0,1530.1,1711.9,3445.5,3447.9,767.0,956.0,1287.3,1500.4,1358.5,1224.8,2.0,-30.0,16.0,10100.0,9441.0,6906.0,5441.0,-193.0,170.0,264.0,6.0,14.0,9.0,11590.0,7951.0,6143.0,5757.0,-97.0,-20.0,186.0,1.0
2022-05-03 15:03:45.885030-07:00,2069.5,611.7,1319.6,1623.7,1053.0,1354.0,1386.6,1692.9,3447.9,3446.7,1623.7,1408.5,1395.7,3450.4,1067.7,1525.5,3449.1,3441.9,787.7,1553.4,1065.1,631.1,1543.1,1711.9,3441.9,3447.9,767.0,956.0,1290.0,1492.1,1361.2,1224.8,0.0,-41.0,5.0,10071.0,9429.0,6811.0,5631.0,-293.0,152.0,541.0,8.0,-2.0,-8.0,11572.0,7964.0,6071.0,5852.0,26.0,16.0,323.0,1.0
2022-05-03 15:03:45.886484-07:00,2053.4,611.7,1319.6,1623.7,1054.8,1349.4,1381.2,1692.9,3447.9,3446.7,1623.7,1408.5,1400.3,3445.5,1054.8,1525.5,3449.1,3440.7,791.0,1560.9,1065.1,631.1,1543.1,1708.1,3441.9,3444.3,772.0,970.5,1290.0,1492.1,1361.2,1225.7,17.0,-96.0,-4.0,9988.0,9491.0,6573.0,5949.0,-199.0,4.0,1158.0,2.0,52.0,-8.0,11482.0,8066.0,6004.0,5958.0,118.0,-20.0,418.0,1.0
2022-05-03 15:03:45.887583-07:00,2053.4,611.7,1319.6,1641.6,1054.8,1349.4,1381.2,1691.9,3447.9,3445.5,1635.0,1409.4,1400.3,3445.5,1054.8,1515.3,3443.1,3440.7,791.0,1560.9,1072.9,629.5,1539.4,1708.1,3443.1,3444.3,772.0,970.5,1290.9,1501.4,1362.1,1225.7,17.0,15.0,17.0,9810.0,9693.0,6165.0,6343.0,-252.0,-121.0,1565.0,80.0,183.0,-21.0,7776.0,11094.0,3738.0,8421.0,409.0,-427.0,1728.0,23.0
2022-05-03 15:03:46.065750-07:00,21.0,-141.0,23.0,9123.0,10150.0,5051.0,7528.0,152.0,162.0,2683.0,3.0,-45.0,30.0,11115.0,8510.0,5819.0,6215.0,1063.0,53.0,910.0,1.0,-48.0,74.0,-83.0,8336.0,10650.0,4384.0,8143.0,673.0,-210.0,2889.0,-5.0,-43.0,54.0,10623.0,9007.0,5901.0,6297.0,1330.0,280.0,820.0,1.0,80.0,183.0,-21.0,7776.0,11094.0,3738.0,8421.0,409.0,-427.0,1728.0,23.0
2022-05-03 15:03:46.066313-07:00,21.0,-141.0,23.0,9123.0,10150.0,5051.0,7528.0,152.0,162.0,2683.0,3.0,-45.0,30.0,11115.0,8510.0,5819.0,6215.0,1063.0,53.0,910.0,1.0,-48.0,74.0,-83.0,8336.0,10650.0,4384.0,8143.0,673.0,-210.0,2889.0,-5.0,-43.0,54.0,10623.0,9007.0,5901.0,6297.0,1330.0,280.0,820.0,1.0,0.0,-9.0,-28.0,9906.0,9609.0,6108.0,6377.0,16.0,46.0,92.0,1.0
2022-05-03 15:03:46.066875-07:00,21.0,-141.0,23.0,9123.0,10150.0,5051.0,7528.0,152.0,162.0,2683.0,3.0,-45.0,30.0,11115.0,8510.0,5819.0,6215.0,1063.0,53.0,910.0,1.0,-48.0,74.0,-83.0,8336.0,10650.0,4384.0,8143.0,673.0,-210.0,2889.0,-5.0,-43.0,54.0,10623.0,9007.0,5901.0,6297.0,1330.0,280.0,820.0,1.0,3.0,-13.0,-1.0,9896.0,9615.0,6079.0,6411.0,-23.0,-15.0,106.0,1.0
2022-05-03 15:03:46.067878-07:00,2062.5,614.1,1355.8,1650.2,1048.7,1389.4,1398.5,1694.8,3443.1,3441.9,1634.1,1409.4,1397.6,3441.9,1067.7,1520.8,3437.0,3443.1,805.2,1675.7,1127.9,659.5,1614.3,1716.7,3443.1,3458.9,837.7,1012.5,1287.3,1501.4,1363.9,1223.9,-17.0,-31.0,-55.0,7403.0,11321.0,3343.0,8619.0,-114.0,45.0,398.0,18.0,9.0,0.0,9836.0,9681.0,6080.0,6404.0,344.0,-15.0,97.0,1.0
2022-05-03 15:03:46.395859-07:00,2046.4,616.5,1352.1,1650.2,1053.0,1396.7,1398.5,1694.8,3446.7,3438.2,1646.4,1409.4,1400.3,3444.3,1067.7,1520.8,3437.0,3443.1,811.9,1699.5,1127.9,673.3,1627.5,1711.0,3443.1,3458.9,862.9,1022.8,1287.3,1506.9,1372.1,1228.4,-25.0,-10.0,-30.0,7372.0,11321.0,3174.0,8709.0,-186.0,-69.0,392.0,0.0,18.0,-2.0,9769.0,9739.0,6111.0,6387.0,-61.0,18.0,0.0,1.0
2022-05-03 15:03:46.398128-07:00,2046.4,616.5,1352.1,1645.4,1053.0,1395.7,1395.7,1690.0,3446.7,3438.2,1646.4,1400.3,1400.3,3438.2,1070.3,1521.8,3446.7,3443.1,809.4,1699.5,1136.6,673.3,1627.5,1711.0,3443.1,3450.4,878.0,1022.8,1281.0,1506.9,1372.1,1228.4,3.0,28.0,22.0,7282.0,11389.0,3038.0,8745.0,215.0,-137.0,352.0,0.0,10.0,-17.0,9802.0,9706.0,6092.0,6406.0,-125.0,-12.0,-16.0,1.0
2022-05-03 15:03:46.635643-07:00,2054.4,615.7,1353.1,1645.4,1053.9,1395.7,1395.7,1690.0,3445.5,3450.4,1653.0,1400.3,1397.6,3438.2,1070.3,1521.8,3446.7,3443.1,809.4,1707.2,1136.6,674.2,1644.5,1708.1,3443.1,3450.4,878.0,3468.6,1281.0,1520.8,1397.6,1222.2,-13.0,31.0,-15.0,7153.0,11464.0,2978.0,8773.0,-17.0,17.0,63.0,0.0,1.0,3.0,9827.0,9684.0,6076.0,6417.0,-59.0,-13.0,-6.0,1.0
2022-05-03 15:03:46.637218-07:00,2053.4,619.7,1354.0,1645.4,1057.3,1393.0,1392.1,1696.7,3444.3,3443.1,1645.4,1408.5,1397.6,3440.7,1075.6,1531.0,3449.1,3437.0,809.4,1711.0,1140.1,672.5,1686.2,1711.0,3451.6,3452.8,885.6,1132.2,1292.7,1514.3,1390.3,1232.8,-10.0,22.0,-19.0,7180.0,11448.0,2966.0,8776.0,-105.0,15.0,-42.0,6.0,-2.0,-5.0,9815.0,9713.0,6065.0,6401.0,-14.0,-30.0,12.0,1.0
2022-05-03 15:03:46.875025-07:00,2053.4,619.7,1354.0,1646.4,1057.3,1394.8,1387.5,1696.7,3444.3,3443.1,1645.4,1404.9,1397.6,3446.7,1067.7,1527.3,3443.1,3451.6,802.7,1711.0,1134.0,672.5,1686.2,1711.0,3443.1,3445.5,882.3,1132.2,1292.7,1514.3,1390.3,1232.8,-18.0,0.0,-14.0,7205.0,11431.0,2964.0,8779.0,-33.0,-9.0,-2.0,1.0,0.0,11.0,9823.0,9709.0,6055.0,6404.0,-12.0,-1.0,11.0,1.0
2022-05-03 15:03:46.877997-07:00,2049.4,614.9,1347.6,1639.8,1056.5,1384.8,1395.7,1694.8,3438.2,3443.1,1641.6,1408.5,1397.6,3437.0,1062.5,1530.1,3443.1,3444.3,805.2,1690.0,1128.7,666.8,1724.4,1714.8,3447.9,3449.1,883.9,1092.9,1286.4,1510.6,1378.5,1225.7,-6.0,11.0,12.0,7142.0,11525.0,2904.0,8728.0,0.0,-84.0,81.0,1.0,0.0,11.0,9823.0,9709.0,6055.0,6404.0,-12.0,-1.0,11.0,1.0
2022-05-03 15:03:46.878978-07:00,2075.5,614.9,1347.6,1639.8,1053.0,1392.1,1382.1,1691.0,3450.4,3443.1,1641.6,1408.5,1397.6,3435.8,1070.3,1532.0,3437.0,3454.0,804.4,1687.2,1128.7,666.8,1724.4,1716.7,3451.6,3443.1,880.6,1116.5,1286.4,1510.6,1378.5,1220.4,-17.0,3.0,12.0,7141.0,11539.0,2878.0,8719.0,-2.0,-27.0,51.0,2.0,-4.0,0.0,9849.0,9691.0,6031.0,6413.0,0.0,-20.0,0.0,1.0
2022-05-03 15:03:46.879639-07:00,2075.5,614.9,1347.6,1639.8,1053.0,1392.1,1382.1,1691.0,3450.4,3443.1,1641.6,1408.5,1397.6,3435.8,1070.3,1532.0,3437.0,3454.0,804.4,1687.2,1128.7,666.8,1724.4,1716.7,3451.6,3443.1,880.6,1116.5,1286.4,1510.6,1378.5,1220.4,-17.0,3.0,12.0,7141.0,11539.0,2878.0,8719.0,-2.0,-27.0,51.0,4.0,6.0,2.0,9857.0,9686.0,6025.0,6416.0,-57.0,-1.0,-9.0,1.0
2022-05-03 15:03:46.905791-07:00,2059.4,611.7,1340.4,1636.0,1052.2,1404.9,1382.1,1693.8,3447.9,3450.4,1632.2,1404.9,1401.2,3449.1,1066.0,1527.3,3443.1,3454.0,807.7,1688.1,1128.7,673.3,1747.3,1718.6,3447.9,3443.1,887.3,1119.1,1281.0,1508.8,1370.3,1231.0,-9.0,4.0,3.0,7165.0,11550.0,2810.0,8706.0,-8.0,-48.0,17.0,4.0,-7.0,-3.0,9876.0,9666.0,6013.0,6428.0,2.0,-3.0,1.0,1.0
2022-05-03 15:03:46.906815-07:00,2059.4,608.4,1340.4,1636.0,1052.2,1404.9,1382.1,1690.0,3447.9,3443.1,1630.3,1404.9,1401.2,3449.1,1066.0,1523.6,3437.0,3454.0,807.7,1688.1,1127.9,668.4,1779.1,1718.6,3449.1,3443.1,887.3,1119.1,1289.1,1509.7,1367.6,1231.0,-5.0,11.0,14.0,7169.0,11557.0,2800.0,8697.0,-45.0,-6.0,-6.0,2.0,3.0,0.0,9877.0,9666.0,6011.0,6427.0,0.0,-8.0,-7.0,1.0
2022-05-03 15:03:46.907675-07:00,2055.4,618.1,1340.4,1636.0,1048.7,1385.7,1376.6,1690.0,3452.8,3438.2,1630.3,1404.9,1396.7,3447.9,1063.4,1523.6,3437.0,3437.0,805.2,1683.3,1127.9,668.4,1780.1,1710.0,3449.1,3449.1,875.5,1134.0,1289.1,1509.7,1366.6,1229.3,-12.0,-3.0,-5.0,7187.0,11547.0,2794.0,8697.0,4.0,1.0,-9.0,1.0,-5.0,2.0,9878.0,9665.0,6010.0,6428.0,-14.0,-5.0,-5.0,1.0
2022-05-03 15:03:46.995165-07:00,2059.4,616.5,1342.2,1640.7,1047.8,1391.2,1378.5,1692.9,3445.5,3445.5,1627.5,1404.0,1402.1,3438.2,1059.1,1534.8,3444.3,3444.3,805.2,1679.5,1126.1,667.6,1773.3,1710.0,3449.1,3447.9,881.4,1127.9,1287.3,1506.9,1369.4,1229.3,-5.0,1.0,-1.0,7192.0,11548.0,2798.0,8690.0,-5.0,-22.0,-18.0,-2.0,2.0,-6.0,9879.0,9665.0,6010.0,6428.0,-2.0,-5.0,-1.0,1.0
2022-05-03 15:03:46.997477-07:00,2057.4,614.1,1342.2,1640.7,1049.6,1383.9,1378.5,1692.9,3444.3,3449.1,1627.5,1404.0,1399.4,3444.3,1059.1,1534.8,3444.3,3444.3,798.5,1679.5,1126.1,667.6,1773.3,1702.4,3449.1,3447.9,869.6,1129.6,1287.3,1506.9,1368.5,1224.8,-9.0,0.0,-4.0,7199.0,11550.0,2796.0,8683.0,-27.0,-10.0,-11.0,-1.0,-4.0,2.0,9882.0,9662.0,6007.0,6429.0,-11.0,-6.0,-4.0,1.0
2022-05-03 15:03:47.145015-07:00,2057.4,614.1,1338.6,1641.6,1049.6,1387.5,1390.3,1687.2,3444.3,3449.1,1628.4,1407.6,1399.4,3454.0,1072.1,1527.3,3449.1,3440.7,806.9,1679.5,1120.9,663.6,1773.3,1702.4,3451.6,3443.1,876.4,1129.6,1292.7,1507.8,1368.5,1224.8,-6.0,7.0,-4.0,7206.0,11553.0,2792.0,8675.0,-9.0,-33.0,-14.0,1.0,0.0,0.0,9881.0,9665.0,6008.0,6427.0,13.0,-11.0,-4.0,1.0
2022-05-03 15:03:47.146741-07:00,2055.4,612.5,1334.1,1641.6,1051.3,1387.5,1390.3,1687.2,3446.7,3443.1,1626.5,1407.6,1401.2,3454.0,1072.1,1527.3,3449.1,3440.7,806.9,1678.6,1120.9,666.8,1766.6,1706.2,3451.6,3443.1,876.4,1124.4,1292.7,1504.1,1368.5,1223.0,-8.0,1.0,-7.0,7210.0,11555.0,2795.0,8667.0,-9.0,-5.0,-17.0,1.0,0.0,5.0,9869.0,9677.0,6016.0,6419.0,89.0,2.0,6.0,1.0
2022-05-03 15:03:47.175235-07:00,2055.4,612.5,1334.1,1634.1,1051.3,1380.3,1373.9,1699.5,3446.7,3443.1,1626.5,1400.3,1401.2,3438.2,1070.3,1529.2,3443.1,3435.8,801.0,1678.6,1120.0,666.8,1766.6,1706.2,3446.7,3443.1,873.8,1124.4,1289.1,1504.1,1368.5,1223.0,0.0,8.0,2.0,7214.0,11561.0,2792.0,8658.0,6.0,-40.0,-12.0,1.0,2.0,-3.0,9847.0,9700.0,6030.0,6406.0,51.0,-9.0,4.0,1.0
2022-05-03 15:03:47.265008-07:00,2064.5,614.9,1330.5,1634.1,1049.6,1380.3,1373.9,1699.5,3441.9,3445.5,1611.5,1400.3,1399.4,3438.2,1070.3,1529.2,3443.1,3435.8,801.0,1682.4,1120.0,667.6,1764.6,1710.0,3446.7,3443.1,873.8,1119.1,1289.1,1502.3,1335.0,1222.2,-7.0,0.0,-8.0,7204.0,11574.0,2801.0,8645.0,77.0,-24.0,-1.0,1.0,4.0,-3.0,9850.0,9697.0,6028.0,6407.0,-32.0,-2.0,-7.0,1.0
2022-05-03 15:03:47.267745-07:00,2064.5,614.9,1330.5,1635.0,1049.6,1385.7,1381.2,1691.9,3441.9,3445.5,1611.5,1394.8,1399.4,3438.2,1066.9,1530.1,3439.5,3433.4,803.5,1682.4,1129.6,667.6,1764.6,1710.0,3449.1,3447.9,878.0,1119.1,1289.1,1502.3,1335.0,1222.2,5.0,15.0,0.0,7179.0,11606.0,2804.0,8622.0,46.0,-51.0,8.0,0.0,-1.0,-4.0,9855.0,9692.0,6024.0,6410.0,-16.0,-6.0,2.0,1.0
2022-05-03 15:03:47.294961-07:00,2058.4,609.2,1327.8,1635.0,1051.3,1385.7,1381.2,1691.9,3440.7,3449.1,1622.8,1394.8,1400.3,3438.2,1066.9,1530.1,3439.5,3433.4,803.5,1684.3,1129.6,667.6,1767.5,1711.0,3449.1,3447.9,878.0,1114.7,1289.1,1498.6,1367.6,1222.2,-4.0,2.0,-2.0,7183.0,11606.0,2809.0,8616.0,-18.0,16.0,-28.0,1.0,6.0,-5.0,9857.0,9691.0,6022.0,6410.0,-13.0,-11.0,-1.0,1.0
2022-05-03 15:03:47.384876-07:00,2058.4,609.2,1327.8,1635.0,1053.9,1384.8,1381.2,1695.7,3440.7,3449.1,1622.8,1404.9,1396.7,3446.7,1054.8,1526.4,3433.4,3449.1,808.5,1672.9,1122.6,667.6,1767.5,1711.0,3444.3,3447.9,872.1,1119.1,1287.3,1498.6,1367.6,1222.2,-4.0,0.0,-5.0,7190.0,11606.0,2809.0,8611.0,-18.0,-29.0,7.0,-1.0,-10.0,7.0,9862.0,9687.0,6021.0,6409.0,3.0,6.0,0.0,1.0
2022-05-03 15:03:47.415083-07:00,2052.4,618.1,1336.8,1638.8,1053.9,1384.8,1381.2,1695.7,3447.9,3443.1,1626.5,1404.0,1396.7,3446.7,1054.8,1526.4,3433.4,3449.1,808.5,1672.9,1119.1,663.6,1757.9,1702.4,3444.3,3447.9,872.1,1119.1,1282.8,1504.1,1365.7,1224.8,2.0,14.0,-2.0,7192.0,11609.0,2801.0,8608.0,-15.0,-2.0,-5.0,0.0,1.0,4.0,9856.0,9693.0,6025.0,6406.0,28.0,7.0,4.0,1.0
2022-05-03 15:03:47.474964-07:00,2052.4,618.1,1336.8,1638.8,1049.6,1379.4,1382.1,1688.1,3447.9,3443.1,1626.5,1404.0,1393.0,3446.7,1065.1,1520.8,3438.2,3438.2,805.2,1671.0,1119.1,663.6,1757.9,1702.4,3440.7,3447.9,869.6,1117.4,1282.8,1504.1,1365.7,1224.8,-13.0,-3.0,1.0,7202.0,11603.0,2803.0,8607.0,4.0,11.0,-7.0,0.0,0.0,-4.0,9853.0,9696.0,6027.0,6404.0,6.0,5.0,0.0,1.0
2022-05-03 15:03:47.504776-07:00,2053.4,614.9,1335.9,1634.1,1049.6,1379.4,1382.1,1688.1,3447.9,3444.3,1624.7,1400.3,1393.0,3446.7,1065.1,1520.8,3438.2,3438.2,805.2,1671.0,1116.5,666.0,1754.1,1715.8,3440.7,3447.9,869.6,1117.4,1287.3,1503.2,1364.8,1222.2,-3.0,9.0,-2.0,7192.0,11610.0,2811.0,8603.0,53.0,-8.0,2.0,0.0,0.0,-5.0,9852.0,9697.0,6028.0,6404.0,-2.0,-4.0,1.0,1.0
2022-05-03 15:03:47.595013-07:00,2053.4,614.9,1335.9,1634.1,1053.0,1371.2,1383.9,1691.0,3447.9,3444.3,1624.7,1400.3,1396.7,3450.4,1056.5,1533.8,3444.3,3446.7,802.7,1675.7,1116.5,666.0,1754.1,1715.8,3445.5,3447.9,858.7,1111.2,1287.3,1503.2,1364.8,1222.2,-6.0,2.0,1.0,7184.0,11613.0,2822.0,8602.0,7.0,30.0,-14.0,2.0,0.0,-4.0,9852.0,9697.0,6028.0,6404.0,-4.0,-7.0,-6.0,1.0
2022-05-03 15:03:47.655742-07:00,2057.4,609.2,1333.2,1636.0,1053.0,1371.2,1383.9,1693.8,3438.2,3454.0,1619.9,1401.2,1396.7,3450.4,1056.5,1530.1,3441.9,3446.7,802.7,1675.7,1120.9,665.2,1764.6,1711.0,3440.7,3447.9,858.7,1111.2,1283.7,1503.2,1364.8,1223.9,0.0,5.0,-6.0,7182.0,11611.0,2829.0,8604.0,2.0,11.0,-6.0,-2.0,0.0,0.0,9850.0,9699.0,6028.0,6404.0,21.0,-4.0,12.0,1.0
2022-05-03 15:03:47.744725-07:00,2049.4,609.2,1333.2,1636.0,1045.2,1367.6,1376.6,1693.8,3438.2,3454.0,1619.9,1401.2,1402.1,3444.3,1057.3,1530.1,3441.9,3445.5,805.2,1671.0,1120.9,665.2,1764.6,1711.0,3440.7,3445.5,871.3,1107.8,1283.7,1503.2,1364.8,1223.0,-4.0,5.0,-4.0,7184.0,11610.0,2833.0,8602.0,2.0,-9.0,-22.0,0.0,-2.0,0.0,9849.0,9700.0,6028.0,6404.0,-5.0,-6.0,1.0,1.0
2022-05-03 15:03:47.746109-07:00,2049.4,610.8,1335.0,1639.8,1045.2,1367.6,1376.6,1694.8,3438.2,3443.1,1632.2,1396.7,1402.1,3444.3,1057.3,1520.8,3449.1,3445.5,805.2,1671.0,1116.5,659.5,1772.3,1711.0,3447.9,3445.5,871.3,1107.8,1286.4,1506.0,1360.3,1223.0,-4.0,0.0,-2.0,7185.0,11616.0,2829.0,8595.0,14.0,-32.0,22.0,0.0,-7.0,-4.0,9846.0,9703.0,6030.0,6402.0,22.0,3.0,4.0,1.0
2022-05-03 15:03:47.747450-07:00,2053.4,610.8,1335.0,1639.8,1048.7,1374.8,1382.1,1694.8,3439.5,3443.1,1632.2,1396.7,1385.7,3447.9,1053.9,1520.8,3449.1,3444.3,805.2,1667.2,1116.5,659.5,1772.3,1708.1,3447.9,3438.2,862.9,1115.6,1286.4,1506.0,1360.3,1218.6,0.0,13.0,-1.0,7185.0,11619.0,2824.0,8593.0,-14.0,2.0,-8.0,0.0,-5.0,0.0,9846.0,9702.0,6030.0,6402.0,-15.0,-3.0,7.0,1.0
2022-05-03 15:03:48.015007-07:00,2053.4,607.6,1326.8,1626.5,1048.7,1374.8,1382.1,1692.9,3439.5,3451.6,1627.5,1396.7,1385.7,3447.9,1053.9,1524.5,3449.1,3444.3,805.2,1667.2,1109.5,664.4,1756.0,1708.1,3451.6,3438.2,862.9,1115.6,1285.5,1501.4,1363.9,1218.6,-4.0,0.0,2.0,7181.0,11621.0,2827.0,8592.0,24.0,4.0,3.0,0.0,-4.0,-4.0,9846.0,9703.0,6030.0,6402.0,14.0,-4.0,2.0,1.0
2022-05-03 15:03:48.016179-07:00,2045.4,607.6,1326.8,1626.5,1053.0,1373.9,1383.0,1692.9,3440.7,3451.6,1627.5,1396.7,1398.5,3439.5,1054.8,1524.5,3449.1,3437.0,798.5,1672.9,1109.5,664.4,1756.0,1712.9,3451.6,3445.5,873.0,1106.9,1285.5,1501.4,1363.9,1223.0,-4.0,4.0,-4.0,7183.0,11620.0,2825.0,8593.0,-28.0,2.0,-1.0,1.0,0.0,-3.0,9842.0,9707.0,6032.0,6400.0,-7.0,-5.0,4.0,1.0
2022-05-03 15:03:48.017251-07:00,2045.4,607.6,1328.7,1633.1,1053.0,1373.9,1382.1,1692.9,3440.7,3438.2,1618.1,1404.9,1398.5,3439.5,1054.8,1520.8,3437.0,3441.9,798.5,1672.9,1116.5,663.6,1756.0,1712.9,3450.4,3454.0,873.0,1106.9,1288.2,1516.2,1354.9,1223.0,1.0,4.0,-3.0,7184.0,11621.0,2823.0,8592.0,14.0,-14.0,-2.0,3.0,0.0,1.0,9845.0,9704.0,6030.0,6402.0,-27.0,-3.0,0.0,1.0
2022-05-03 15:03:48.018537-07:00,2055.4,607.6,1328.7,1633.1,1060.8,1378.5,1382.1,1692.9,3441.9,3445.5,1618.1,1404.9,1401.2,3438.2,1054.8,1520.8,3437.0,3441.9,805.2,1671.9,1116.5,663.6,1748.3,1711.0,3450.4,3454.0,868.8,1108.6,1288.2,1516.2,1345.8,1226.6,2.0,6.0,-5.0,7177.0,11628.0,2828.0,8587.0,10.0,-1.0,-2.0,1.0,-10.0,0.0,9851.0,9697.0,6026.0,6405.0,-3.0,9.0,-5.0,1.0
2022-05-03 15:03:48.020349-07:00,2055.4,607.6,1329.6,1630.3,1060.8,1378.5,1383.0,1695.7,3441.9,3445.5,1615.2,1407.6,1401.2,3438.2,1053.0,1514.3,3435.8,3443.1,805.2,1671.9,1106.9,660.3,1748.3,1711.0,3446.7,3452.8,868.8,1108.6,1285.5,1497.7,1345.8,1226.6,0.0,5.0,2.0,7183.0,11621.0,2832.0,8589.0,-28.0,24.0,-24.0,0.0,0.0,0.0,9847.0,9700.0,6030.0,6404.0,16.0,11.0,0.0,1.0
2022-05-03 15:03:48.104717-07:00,2054.4,609.2,1329.6,1630.3,1056.5,1379.4,1383.0,1695.7,3445.5,3449.1,1615.2,1407.6,1398.5,3449.1,1053.0,1514.3,3435.8,3443.1,802.7,1672.9,1106.9,660.3,1757.0,1712.9,3446.7,3452.8,873.0,1106.9,1285.5,1497.7,1356.7,1228.4,0.0,-2.0,-4.0,7185.0,11615.0,2843.0,8592.0,36.0,21.0,-15.0,1.0,-3.0,0.0,9846.0,9701.0,6031.0,6404.0,0.0,7.0,3.0,1.0
2022-05-03 15:03:48.105813-07:00,2054.4,609.2,1328.7,1631.3,1056.5,1379.4,1376.6,1690.0,3445.5,3449.1,1608.7,1406.7,1398.5,3449.1,1054.8,1520.8,3444.3,3438.2,802.7,1672.9,1125.2,667.6,1757.0,1712.9,3445.5,3449.1,873.0,1106.9,1287.3,1499.5,1356.7,1228.4,-3.0,9.0,0.0,7173.0,11619.0,2859.0,8591.0,31.0,19.0,-12.0,1.0,-1.0,0.0,9843.0,9702.0,6032.0,6405.0,13.0,0.0,8.0,1.0
2022-05-03 15:03:48.165117-07:00,2059.4,609.2,1320.5,1631.3,1053.0,1376.6,1376.6,1690.0,3441.9,3444.3,1609.6,1406.7,1396.7,3449.1,1054.8,1520.8,3444.3,3438.2,801.9,1660.6,1125.2,657.9,1744.5,1709.1,3445.5,3449.1,869.6,1104.3,1287.3,1499.5,1357.6,1240.8,-3.0,0.0,0.0,7175.0,11612.0,2870.0,8595.0,6.0,31.0,-12.0,0.0,2.0,-3.0,9840.0,9705.0,6034.0,6403.0,-1.0,-2.0,6.0,1.0
2022-05-03 15:03:48.195251-07:00,2059.4,609.2,1320.5,1636.9,1053.0,1371.2,1379.4,1688.1,3441.9,3444.3,1609.6,1402.1,1396.7,3434.6,1048.7,1521.8,3444.3,3437.0,806.0,1660.6,1113.9,657.9,1744.5,1709.1,3441.9,3449.1,878.9,1104.3,1288.2,1499.5,1357.6,1240.8,-4.0,5.0,-7.0,7168.0,11613.0,2877.0,8597.0,23.0,-9.0,8.0,5.0,2.0,-1.0,9840.0,9705.0,6034.0,6403.0,-16.0,-6.0,-1.0,1.0
2022-05-03 15:03:48.285079-07:00,2057.4,609.2,1324.1,1636.9,1048.7,1371.2,1379.4,1688.1,3445.5,3449.1,1614.3,1402.1,1396.7,3434.6,1048.7,1521.8,3444.3,3437.0,806.0,1664.4,1113.9,663.6,1745.4,1704.3,3441.9,3449.1,878.9,1106.0,1288.2,1501.4,1350.3,1230.2,-2.0,3.0,-8.0,7167.0,11616.0,2877.0,8594.0,-3.0,-9.0,7.0,3.0,-4.0,-3.0,9849.0,9698.0,6028.0,6407.0,-42.0,-7.0,-8.0,1.0
2022-05-03 15:03:48.314952-07:00,2057.4,609.2,1324.1,1621.8,1048.7,1367.6,1380.3,1689.1,3445.5,3449.1,1614.3,1400.3,1396.7,3449.1,1048.7,1521.8,3439.5,3438.2,804.4,1664.4,1112.1,663.6,1745.4,1704.3,3449.1,3445.5,864.6,1106.0,1284.6,1501.4,1350.3,1230.2,2.0,13.0,-3.0,7168.0,11616.0,2877.0,8594.0,-13.0,3.0,-14.0,-2.0,-3.0,7.0,9861.0,9686.0,6022.0,6413.0,-35.0,3.0,-8.0,1.0
2022-05-03 15:03:48.404834-07:00,2053.4,611.7,1331.4,1621.8,1056.5,1367.6,1380.3,1689.1,3440.7,3451.6,1619.9,1400.3,1394.8,3449.1,1048.7,1521.8,3439.5,3438.2,804.4,1674.8,1112.1,662.7,1742.6,1711.0,3449.1,3445.5,864.6,1099.9,1284.6,1504.1,1362.1,1224.8,-1.0,1.0,-6.0,7190.0,11604.0,2879.0,8591.0,-50.0,11.0,-51.0,3.0,0.0,-2.0,9861.0,9684.0,6023.0,6415.0,24.0,6.0,8.0,1.0
2022-05-03 15:03:48.645210-07:00,2053.4,611.7,1331.4,1628.4,1056.5,1373.0,1377.5,1690.0,3440.7,3451.6,1619.9,1405.8,1394.8,3444.3,1044.4,1516.2,3438.2,3445.5,806.9,1674.8,1113.0,662.7,1742.6,1711.0,3449.1,3447.9,867.1,1099.9,1288.2,1504.1,1362.1,1224.8,-4.0,-1.0,0.0,7208.0,11589.0,2891.0,8592.0,-19.0,42.0,-26.0,0.0,-5.0,-1.0,9858.0,9686.0,6025.0,6414.0,10.0,8.0,1.0,1.0
2022-05-03 15:03:48.646898-07:00,2052.4,611.7,1325.0,1634.1,1047.0,1373.0,1377.5,1690.0,3449.1,3443.1,1616.2,1392.1,1394.8,3444.3,1044.4,1516.2,3438.2,3445.5,806.9,1669.1,1111.2,661.9,1741.6,1702.4,3449.1,3447.9,867.1,1096.4,1281.0,1502.3,1362.1,1224.8,2.0,6.0,-6.0,7198.0,11591.0,2895.0,8596.0,36.0,-3.0,15.0,1.0,-1.0,-10.0,9856.0,9688.0,6027.0,6412.0,-3.0,-8.0,6.0,1.0
2022-05-03 15:03:49.125007-07:00,2052.4,611.7,1325.0,1634.1,1052.2,1367.6,1384.8,1689.1,3449.1,3443.1,1616.2,1392.1,1396.7,3445.5,1053.9,1516.2,3440.7,3449.1,801.0,1664.4,1111.2,661.9,1741.6,1702.4,3443.1,3451.6,859.5,1094.7,1281.0,1502.3,1362.1,1224.8,-4.0,-1.0,-2.0,7191.0,11594.0,2900.0,8596.0,22.0,6.0,8.0,2.0,1.0,-1.0,9858.0,9688.0,6024.0,6411.0,-9.0,-9.0,1.0,1.0
2022-05-03 15:03:49.126710-07:00,2056.4,608.4,1323.2,1636.0,1052.2,1367.6,1384.8,1689.1,3445.5,3458.9,1619.9,1406.7,1396.7,3445.5,1053.9,1516.2,3440.7,3449.1,801.0,1664.4,1116.5,669.3,1735.8,1704.3,3443.1,3451.6,859.5,1094.7,1291.8,1488.4,1353.1,1228.4,0.0,10.0,-10.0,7183.0,11601.0,2899.0,8594.0,6.0,-16.0,8.0,1.0,-3.0,1.0,9854.0,9691.0,6028.0,6411.0,-5.0,5.0,1.0,1.0
2022-05-03 15:03:49.215821-07:00,2056.4,608.4,1323.2,1636.0,1059.1,1365.7,1375.7,1691.9,3445.5,3458.9,1619.9,1406.7,1396.7,3443.1,1047.8,1522.7,3433.4,3439.5,801.0,1663.4,1116.5,669.3,1735.8,1704.3,3438.2,3445.5,857.9,1096.4,1291.8,1488.4,1353.1,1228.4,0.0,5.0,0.0,7192.0,11601.0,2894.0,8588.0,-18.0,-11.0,-15.0,4.0,-2.0,2.0,9864.0,9689.0,6017.0,6406.0,-27.0,-20.0,-10.0,1.0
2022-05-03 15:03:49.244951-07:00,2046.4,610.8,1325.0,1636.0,1051.3,1374.8,1379.4,1695.7,3438.2,3450.4,1619.9,1401.2,1396.7,3440.7,1051.3,1524.5,3444.3,3440.7,801.0,1664.4,1113.0,657.0,1718.6,1709.1,3455.2,3454.0,854.5,1089.5,1291.8,1492.1,1355.8,1214.2,-8.0,3.0,-6.0,7180.0,11601.0,2906.0,8593.0,5.0,16.0,-5.0,4.0,-2.0,2.0,9864.0,9689.0,6017.0,6406.0,-27.0,-20.0,-10.0,1.0
2022-05-03 15:03:49.246170-07:00,2046.4,611.7,1325.0,1644.5,1051.3,1374.8,1379.4,1688.1,3438.2,3434.6,1619.9,1407.6,1396.7,3440.7,1051.3,1517.1,3439.5,3440.7,801.0,1664.4,1116.5,661.1,1728.2,1709.1,3440.7,3454.0,854.5,1089.5,1290.0,1506.0,1355.8,1214.2,0.0,7.0,4.0,7200.0,11604.0,2899.0,8576.0,-41.0,-20.0,-21.0,1.0,1.0,0.0,9875.0,9680.0,6011.0,6411.0,-10.0,-16.0,-3.0,1.0
2022-05-03 15:03:49.246795-07:00,2046.4,611.7,1325.0,1644.5,1051.3,1374.8,1379.4,1688.1,3438.2,3434.6,1619.9,1407.6,1396.7,3440.7,1051.3,1517.1,3439.5,3440.7,801.0,1664.4,1116.5,661.1,1728.2,1709.1,3440.7,3454.0,854.5,1089.5,1290.0,1506.0,1355.8,1214.2,0.0,7.0,4.0,7200.0,11604.0,2899.0,8576.0,-41.0,-20.0,-21.0,1.0,1.0,0.0,9875.0,9680.0,6011.0,6411.0,-10.0,-16.0,-3.0,1.0
2022-05-03 15:03:49.275110-07:00,2040.4,611.7,1325.9,1628.4,1049.6,1349.4,1373.0,1691.9,3449.1,3449.1,1613.4,1396.7,1394.8,3443.1,1053.0,1521.8,3443.1,3444.3,800.2,1654.9,1119.1,666.8,1714.8,1711.0,3446.7,3450.4,854.5,1087.7,1281.0,1500.4,1357.6,1230.2,-1.0,10.0,-3.0,7203.0,11596.0,2913.0,8579.0,-13.0,-5.0,-16.0,5.0,5.0,8.0,9873.0,9683.0,6011.0,6408.0,3.0,7.0,-3.0,1.0
2022-05-03 15:03:49.275984-07:00,2040.4,611.7,1325.9,1628.4,1049.6,1349.4,1373.0,1691.9,3449.1,3449.1,1613.4,1396.7,1394.8,3443.1,1053.0,1521.8,3443.1,3444.3,800.2,1654.9,1119.1,666.8,1714.8,1711.0,3446.7,3450.4,854.5,1087.7,1281.0,1500.4,1357.6,1230.2,-1.0,10.0,-3.0,7203.0,11596.0,2913.0,8579.0,-13.0,-5.0,-16.0,3.0,-2.0,-5.0,9871.0,9681.0,6014.0,6411.0,4.0,13.0,1.0,1.0
2022-05-03 15:03:49.335098-07:00,2053.4,610.0,1325.0,1635.0,1055.6,1359.4,1376.6,1701.4,3438.2,3445.5,1612.4,1404.9,1396.7,3445.5,1047.0,1513.4,3449.1,3450.4,801.0,1664.4,1113.9,661.1,1713.8,1705.3,3447.9,3451.6,859.5,1080.8,1287.3,1501.4,1347.6,1221.3,4.0,8.0,8.0,7202.0,11597.0,2920.0,8576.0,16.0,14.0,-13.0,-1.0,-1.0,-7.0,9871.0,9681.0,6014.0,6411.0,-1.0,-2.0,-2.0,1.0
2022-05-03 15:03:49.365139-07:00,2053.4,610.0,1325.0,1629.4,1055.6,1359.4,1375.7,1688.1,3438.2,3445.5,1612.4,1410.3,1396.7,3455.2,1045.2,1523.6,3449.1,3434.6,804.4,1664.4,1108.6,661.1,1713.8,1705.3,3454.0,3438.2,863.7,1080.8,1289.1,1501.4,1347.6,1221.3,0.0,1.0,-5.0,7195.0,11598.0,2928.0,8578.0,19.0,7.0,-2.0,1.0,-5.0,-6.0,9871.0,9681.0,6014.0,6411.0,-6.0,-8.0,0.0,1.0
2022-05-03 15:03:49.755059-07:00,2052.4,607.6,1328.7,1629.4,1047.0,1359.4,1375.7,1688.1,3444.3,3435.8,1617.1,1410.3,1401.2,3455.2,1045.2,1523.6,3449.1,3434.6,804.4,1661.5,1108.6,659.5,1711.9,1722.4,3454.0,3438.2,863.7,1086.0,1289.1,1488.4,1348.5,1216.8,0.0,2.0,-10.0,7193.0,11597.0,2930.0,8580.0,-2.0,4.0,3.0,-1.0,-5.0,1.0,9872.0,9682.0,6013.0,6410.0,-3.0,-8.0,-1.0,1.0
2022-05-03 15:03:49.785108-07:00,2052.4,607.6,1328.7,1629.4,1047.0,1368.5,1374.8,1687.2,3444.3,3435.8,1617.1,1408.5,1401.2,3450.4,1051.3,1515.3,3444.3,3444.3,800.2,1661.5,1109.5,659.5,1711.9,1722.4,3447.9,3450.4,858.7,1086.0,1286.4,1488.4,1348.5,1216.8,1.0,0.0,-9.0,7193.0,11599.0,2929.0,8578.0,-8.0,-9.0,-5.0,6.0,-2.0,1.0,9872.0,9682.0,6013.0,6410.0,-9.0,-6.0,1.0,1.0
2022-05-03 15:03:49.786486-07:00,2056.4,612.5,1320.5,1629.4,1052.2,1368.5,1374.8,1687.2,3443.1,3445.5,1619.9,1408.5,1393.0,3450.4,1051.3,1515.3,3444.3,3444.3,800.2,1650.2,1109.5,657.9,1716.7,1709.1,3447.9,3450.4,858.7,1083.4,1286.4,1500.4,1354.0,1223.9,-1.0,1.0,0.0,7195.0,11599.0,2927.0,8577.0,0.0,-17.0,0.0,-1.0,-7.0,3.0,9874.0,9679.0,6012.0,6412.0,-3.0,-1.0,-6.0,1.0
2022-05-03 15:03:49.787451-07:00,2056.4,612.5,1320.5,1625.6,1045.2,1360.3,1373.9,1691.9,3443.1,3445.5,1619.9,1401.2,1396.7,3446.7,1049.6,1537.6,3445.5,3441.9,799.4,1653.0,1107.8,657.9,1716.7,1709.1,3449.1,3449.1,857.0,1082.5,1287.3,1500.4,1354.0,1223.9,3.0,5.0,3.0,7196.0,11601.0,2925.0,8574.0,-7.0,5.0,-4.0,2.0,0.0,0.0,9874.0,9679.0,6012.0,6412.0,-3.0,8.0,-1.0,1.0
2022-05-03 15:03:49.788375-07:00,2053.4,608.4,1312.4,1627.5,1045.2,1360.3,1373.9,1691.9,3454.0,3447.9,1619.9,1402.1,1396.7,3446.7,1049.6,1537.6,3445.5,3441.9,799.4,1653.0,1112.1,657.9,1710.0,1711.0,3449.1,3449.1,857.0,1082.5,1288.2,1494.0,1354.0,1231.9,-6.0,0.0,-1.0,7200.0,11596.0,2928.0,8576.0,-2.0,3.0,-13.0,-1.0,-3.0,-2.0,9874.0,9679.0,6012.0,6412.0,3.0,4.0,-3.0,1.0
2022-05-03 15:03:49.790019-07:00,2053.4,608.4,1312.4,1627.5,1052.2,1358.5,1374.8,1687.2,3454.0,3447.9,1619.9,1402.1,1394.8,3445.5,1050.4,1514.3,3449.1,3438.2,805.2,1649.2,1112.1,657.9,1710.0,1711.0,3445.5,3447.9,857.9,1085.1,1288.2,1494.0,1354.0,1231.9,0.0,5.0,0.0,7202.0,11594.0,2936.0,8574.0,2.0,14.0,0.0,2.0,0.0,-6.0,9874.0,9679.0,6012.0,6412.0,3.0,1.0,0.0,1.0
2022-05-03 15:03:49.965811-07:00,2073.5,610.0,1322.3,1625.6,1047.0,1360.3,1386.6,1687.2,3449.1,3441.9,1616.2,1404.9,1388.5,3438.2,1050.4,1516.2,3449.1,3446.7,797.7,1654.9,1112.1,666.8,1708.1,1711.0,3449.1,3441.9,853.7,1077.3,1288.2,1493.0,1350.3,1228.4,-3.0,3.0,-8.0,7201.0,11593.0,2937.0,8576.0,9.0,2.0,0.0,2.0,-4.0,0.0,9874.0,9679.0,6012.0,6412.0,2.0,-5.0,-4.0,1.0
2022-05-03 15:03:50.235831-07:00,2073.5,611.7,1313.3,1626.5,1047.0,1360.3,1386.6,1691.9,3449.1,3445.5,1612.4,1405.8,1388.5,3438.2,1050.4,1518.0,3449.1,3446.7,797.7,1654.9,1103.4,653.0,1709.1,1711.0,3443.1,3441.9,853.7,1077.3,1290.9,1501.4,1351.2,1228.4,2.0,4.0,0.0,7201.0,11593.0,2937.0,8576.0,0.0,-4.0,-4.0,0.0,0.0,1.0,9874.0,9679.0,6012.0,6412.0,-5.0,-5.0,-6.0,1.0
2022-05-03 15:03:50.265180-07:00,2047.4,611.7,1313.3,1626.5,1045.2,1360.3,1383.0,1691.9,3444.3,3445.5,1612.4,1405.8,1390.3,3449.1,1045.2,1518.0,3449.1,3443.1,803.5,1658.7,1103.4,653.0,1709.1,1707.2,3443.1,3445.5,855.3,1084.2,1290.9,1501.4,1351.2,1223.9,-1.0,3.0,-3.0,7201.0,11593.0,2937.0,8576.0,1.0,-3.0,0.0,2.0,-4.0,0.0,9874.0,9678.0,6013.0,6412.0,6.0,-3.0,-4.0,1.0
2022-05-03 15:03:50.295000-07:00,2047.4,608.4,1316.9,1631.3,1045.2,1360.3,1383.0,1690.0,3444.3,3444.3,1612.4,1402.1,1390.3,3449.1,1045.2,1512.5,3437.0,3443.1,803.5,1658.7,1103.4,660.3,1702.4,1707.2,3443.1,3445.5,855.3,1084.2,1273.9,1492.1,1345.8,1223.9,0.0,4.0,1.0,7202.0,11593.0,2940.0,8575.0,-5.0,5.0,-22.0,0.0,0.0,-3.0,9874.0,9678.0,6013.0,6412.0,-7.0,-6.0,1.0,1.0
2022-05-03 15:03:50.355125-07:00,2047.4,608.4,1316.9,1631.3,1049.6,1366.6,1386.6,1690.0,3444.3,3444.3,1612.4,1402.1,1397.6,3439.5,1040.9,1512.5,3437.0,3441.9,805.2,1645.4,1103.4,660.3,1702.4,1711.0,3443.1,3449.1,856.2,1072.9,1273.9,1492.1,1345.8,1224.8,4.0,-5.0,1.0,7204.0,11590.0,2945.0,8575.0,-4.0,-1.0,-6.0,0.0,-4.0,-6.0,9875.0,9677.0,6015.0,6410.0,-3.0,-6.0,-15.0,1.0
2022-05-03 15:03:50.356864-07:00,2047.4,606.8,1325.0,1635.0,1049.6,1366.6,1374.8,1687.2,3444.3,3447.9,1624.7,1406.7,1397.6,3439.5,1038.3,1509.7,3449.1,3432.2,805.2,1645.4,1106.9,659.5,1706.2,1711.0,3443.1,3445.5,856.2,1072.9,1292.7,1498.6,1345.8,1224.8,0.0,7.0,-1.0,7204.0,11591.0,2945.0,8574.0,6.0,4.0,-3.0,-7.0,-19.0,2.0,9893.0,9663.0,6013.0,6407.0,-89.0,-20.0,-45.0,1.0
2022-05-03 15:03:50.475293-07:00,2055.4,606.8,1328.7,1641.6,1048.7,1358.5,1382.1,1687.2,3441.9,3443.1,1610.5,1404.9,1396.7,3443.1,1036.6,1508.8,3437.0,3439.5,802.7,1653.0,1115.6,660.3,1700.5,1711.9,3440.7,3444.3,854.5,1075.6,1289.1,1492.1,1350.3,1228.4,-1.0,5.0,-5.0,7204.0,11587.0,2967.0,8572.0,-2.0,-14.0,-43.0,3.0,-6.0,0.0,9936.0,9627.0,6013.0,6395.0,-81.0,-7.0,-96.0,1.0
2022-05-03 15:03:50.505146-07:00,2047.4,607.6,1328.7,1641.6,1047.8,1361.2,1382.1,1687.2,3438.2,3447.9,1617.1,1404.9,1404.9,3450.4,1036.6,1508.8,3437.0,3439.5,802.7,1654.9,1115.6,662.7,1708.1,1711.0,3440.7,3444.3,852.8,1076.4,1289.1,1492.1,1350.3,1228.4,-12.0,20.0,-24.0,7235.0,11577.0,2997.0,8549.0,-31.0,-2.0,-187.0,-2.0,12.0,16.0,9981.0,9583.0,6031.0,6373.0,-102.0,-11.0,-173.0,1.0
2022-05-03 15:03:50.595437-07:00,2047.4,607.6,1328.7,1629.4,1047.8,1358.5,1369.4,1671.0,3438.2,3447.9,1617.1,1404.9,1404.9,3446.7,1047.8,1517.1,3443.1,3449.1,799.4,1654.9,1111.2,662.7,1708.1,1711.0,3445.5,3443.1,861.2,1076.4,1283.7,1492.1,1350.3,1228.4,-12.0,15.0,2.0,7322.0,11540.0,3102.0,8488.0,-8.0,116.0,-413.0,3.0,-11.0,2.0,10037.0,9529.0,6066.0,6332.0,-94.0,3.0,-196.0,1.0
2022-05-03 15:03:50.835154-07:00,2060.5,607.6,1316.9,1629.4,1047.0,1358.5,1369.4,1671.0,3441.9,3449.1,1613.4,1404.9,1397.6,3446.7,1047.8,1517.1,3443.1,3449.1,799.4,1656.8,1111.2,661.9,1722.4,1712.9,3445.5,3443.1,861.2,1090.3,1283.7,1492.1,1354.9,1224.8,0.0,44.0,-13.0,7399.0,11489.0,3300.0,8415.0,179.0,60.0,-602.0,-7.0,-7.0,2.0,10121.0,9446.0,6082.0,6308.0,-321.0,-31.0,-218.0,1.0
2022-05-03 15:03:51.015869-07:00,2060.5,607.6,1316.9,1627.5,1047.0,1354.0,1377.5,1687.2,3441.9,3449.1,1613.4,1408.5,1397.6,3438.2,1047.8,1514.3,3444.3,3444.3,803.5,1656.8,1107.8,661.9,1722.4,1712.9,3447.9,3450.4,852.8,1090.3,1290.9,1492.1,1354.9,1224.8,12.0,-1.0,13.0,7483.0,11463.0,3540.0,8277.0,180.0,58.0,-625.0,1.0,36.0,11.0,10299.0,9277.0,6056.0,6295.0,-615.0,-75.0,-358.0,1.0
2022-05-03 15:03:51.018555-07:00,2045.4,612.5,1325.9,1627.5,1053.9,1354.0,1377.5,1687.2,3447.9,3447.9,1613.4,1408.5,1387.5,3438.2,1047.8,1514.3,3444.3,3444.3,803.5,1651.1,1107.8,665.2,1706.2,1709.1,3447.9,3450.4,852.8,1064.3,1290.9,1493.0,1345.8,1234.6,-13.0,33.0,-39.0,7592.0,11412.0,3773.0,8144.0,10.0,-49.0,-736.0,7.0,-38.0,42.0,10762.0,8848.0,5995.0,6196.0,-276.0,-83.0,-372.0,1.0
2022-05-03 15:03:51.075288-07:00,2045.4,612.5,1325.9,1626.5,1053.9,1354.0,1376.6,1687.2,3447.9,3447.9,1613.4,1401.2,1387.5,3449.1,1045.2,1510.6,3438.2,3440.7,796.9,1651.1,1112.1,665.2,1706.2,1709.1,3438.2,3443.1,847.8,1064.3,1284.6,1493.0,1345.8,1234.6,3.0,48.0,-66.0,7849.0,11351.0,3979.0,7884.0,-162.0,-435.0,-1094.0,6.0,-8.0,-7.0,10994.0,8609.0,6628.0,5432.0,-13.0,27.0,-181.0,1.0
2022-05-03 15:03:51.315887-07:00,2046.4,614.9,1338.6,1627.5,1046.1,1384.8,1393.0,1694.8,3444.3,3447.9,1612.4,1404.0,1393.9,3449.1,1053.9,1520.8,3438.2,3438.2,800.2,1645.4,1112.1,662.7,1705.3,1706.2,3443.1,3443.1,847.0,1050.4,1291.8,1507.8,1361.2,1223.0,18.0,-39.0,52.0,8645.0,11159.0,4335.0,7098.0,-233.0,-284.0,-1096.0,1.0,-9.0,14.0,11028.0,8567.0,6649.0,5406.0,-20.0,3.0,-102.0,1.0
2022-05-03 15:03:51.317171-07:00,2050.4,615.7,1362.1,1627.5,1051.3,1438.7,1381.2,1680.5,3450.4,3441.9,1617.1,1402.1,1396.7,3438.2,1061.7,1520.8,3445.5,3435.8,798.5,1639.8,1099.0,666.0,1681.4,1713.8,3447.9,3443.1,822.7,1049.6,1290.9,1508.8,1383.0,1217.7,30.0,-31.0,19.0,9208.0,10532.0,7064.0,4777.0,114.0,57.0,-643.0,3.0,-5.0,6.0,11034.0,8558.0,6669.0,5382.0,-9.0,-4.0,-53.0,1.0
2022-05-03 15:03:51.318500-07:00,2048.4,604.4,1354.0,1633.1,1050.4,1427.7,1381.2,1695.7,3449.1,3443.1,1619.9,1401.2,1393.9,3445.5,1061.7,1515.3,3444.3,3438.2,801.0,1627.5,1093.8,661.1,1649.2,1709.1,3446.7,3445.5,822.7,1051.3,1297.2,1507.8,1368.5,1228.4,0.0,-30.0,1.0,9239.0,10442.0,7226.0,4672.0,87.0,41.0,-390.0,0.0,-5.0,6.0,11036.0,8558.0,6648.0,5404.0,-24.0,6.0,-7.0,1.0
2022-05-03 15:03:51.375164-07:00,2048.4,605.2,1353.1,1625.6,1050.4,1427.7,1383.0,1695.7,3449.1,3445.5,1619.9,1401.2,1393.9,3445.5,1059.1,1518.0,3446.7,3440.7,801.0,1627.5,1098.2,666.8,1649.2,1709.1,3452.8,3447.9,822.7,1051.3,1296.3,1511.5,1375.7,1228.4,26.0,-17.0,28.0,9247.0,10413.0,7310.0,4589.0,38.0,29.0,-196.0,0.0,10.0,0.0,11033.0,8561.0,6653.0,5399.0,46.0,13.0,-16.0,1.0
2022-05-03 15:03:51.376573-07:00,2051.4,610.0,1353.1,1625.6,1042.6,1425.0,1383.0,1695.7,3445.5,3454.0,1619.9,1401.2,1402.1,3451.6,1059.1,1518.0,3446.7,3440.7,798.5,1618.1,1098.2,666.8,1637.9,1697.6,3452.8,3447.9,821.0,1022.8,1296.3,1511.5,1369.4,1222.2,18.0,5.0,14.0,9220.0,10407.0,7312.0,4654.0,-19.0,29.0,-38.0,7.0,-7.0,10.0,11037.0,8557.0,6655.0,5396.0,-19.0,2.0,-4.0,1.0
2022-05-03 15:03:51.378321-07:00,2043.4,604.4,1347.6,1626.5,1049.6,1413.1,1373.9,1700.5,3445.5,3446.7,1617.1,1405.8,1394.8,3445.5,1055.6,1510.6,3439.5,3444.3,808.5,1612.4,1083.4,658.7,1626.5,1711.9,3447.9,3449.1,816.0,1010.8,1288.2,1504.1,1370.3,1218.6,18.0,9.0,9.0,9220.0,10404.0,7321.0,4647.0,54.0,-31.0,-25.0,0.0,-1.0,13.0,11031.0,8564.0,6657.0,5395.0,24.0,4.0,11.0,1.0
2022-05-03 15:03:51.495329-07:00,2043.4,604.4,1345.8,1621.8,1049.6,1411.3,1376.6,1696.7,3445.5,3446.7,1619.0,1400.3,1394.8,3446.7,1066.9,1514.3,3438.2,3439.5,794.4,1612.4,1085.1,661.1,1626.5,1711.9,3449.1,3441.9,820.2,1010.8,1287.3,1504.1,1370.3,1218.6,16.0,-9.0,20.0,9225.0,10403.0,7322.0,4637.0,-11.0,7.0,-24.0,4.0,-6.0,-2.0,11030.0,8565.0,6656.0,5396.0,11.0,-2.0,6.0,1.0
2022-05-03 15:03:51.496659-07:00,2038.4,608.4,1350.3,1621.8,1041.8,1411.3,1376.6,1696.7,3449.1,3437.0,1612.4,1400.3,1391.2,3446.7,1066.9,1514.3,3438.2,3439.5,794.4,1595.5,1085.1,659.5,1620.9,1707.2,3449.1,3441.9,820.2,1004.8,1287.3,1505.1,1368.5,1221.3,11.0,2.0,16.0,9219.0,10409.0,7320.0,4639.0,21.0,-6.0,32.0,3.0,-5.0,5.0,11029.0,8566.0,6656.0,5395.0,-11.0,-1.0,-5.0,1.0
2022-05-03 15:03:51.525866-07:00,2038.4,608.4,1350.3,1609.6,1041.8,1396.7,1370.3,1695.7,3449.1,3437.0,1612.4,1403.0,1391.2,3443.1,1056.5,1503.2,3433.4,3443.1,791.9,1595.5,1075.6,659.5,1620.9,1707.2,3447.9,3437.0,811.0,1004.8,1285.5,1505.1,1368.5,1221.3,20.0,5.0,11.0,9219.0,10412.0,7310.0,4649.0,-1.0,-6.0,15.0,3.0,2.0,7.0,11030.0,8565.0,6655.0,5396.0,10.0,2.0,2.0,1.0
2022-05-03 15:03:51.589190-07:00,2040.4,606.8,1324.1,1609.6,1047.8,1396.7,1370.3,1695.7,3437.0,3440.7,1604.0,1403.0,1394.8,3443.1,1056.5,1503.2,3433.4,3443.1,791.9,1610.5,1075.6,659.5,1600.2,1714.8,3447.9,3437.0,811.0,1008.2,1285.5,1501.4,1364.8,1222.2,12.0,2.0,9.0,9220.0,10410.0,7306.0,4657.0,-24.0,-6.0,-12.0,5.0,-5.0,10.0,11032.0,8563.0,6653.0,5398.0,-22.0,-12.0,10.0,1.0
2022-05-03 15:03:51.855131-07:00,2040.4,606.8,1324.1,1627.5,1047.8,1406.7,1377.5,1691.0,3437.0,3440.7,1604.0,1401.2,1394.8,3446.7,1058.2,1512.5,3451.6,3446.7,792.7,1610.5,1086.0,659.5,1600.2,1714.8,3445.5,3456.4,816.9,1008.2,1282.8,1501.4,1364.8,1222.2,15.0,1.0,18.0,9226.0,10405.0,7301.0,4664.0,14.0,23.0,0.0,0.0,-12.0,7.0,11030.0,8567.0,6648.0,5403.0,41.0,7.0,17.0,1.0
2022-05-03 15:03:51.857030-07:00,2040.4,602.0,1340.4,1623.7,1056.5,1406.7,1377.5,1691.0,3446.7,3449.1,1608.7,1406.7,1394.8,3446.7,1058.2,1512.5,3451.6,3446.7,792.7,1610.5,1076.4,658.7,1603.0,1711.0,3445.5,3456.4,816.9,1004.8,1291.8,1508.8,1351.2,1223.9,8.0,-4.0,12.0,9225.0,10399.0,7303.0,4676.0,-52.0,23.0,19.0,4.0,5.0,8.0,11018.0,8575.0,6659.0,5402.0,13.0,19.0,-9.0,1.0
2022-05-03 15:03:51.975787-07:00,2040.4,602.0,1340.4,1623.7,1049.6,1403.0,1375.7,1695.7,3446.7,3449.1,1608.7,1406.7,1393.9,3446.7,1053.9,1517.1,3441.9,3439.5,795.2,1612.4,1076.4,658.7,1603.0,1711.0,3451.6,3445.5,818.5,996.2,1291.8,1508.8,1351.2,1223.9,12.0,8.0,16.0,9227.0,10396.0,7291.0,4697.0,61.0,1.0,44.0,5.0,-1.0,0.0,11015.0,8574.0,6665.0,5401.0,15.0,5.0,-4.0,1.0
2022-05-03 15:03:51.976796-07:00,2035.4,606.8,1343.1,1622.8,1049.6,1403.0,1375.7,1695.7,3452.8,3445.5,1609.6,1405.8,1393.9,3446.7,1053.9,1517.1,3441.9,3439.5,795.2,1612.4,1074.7,654.6,1605.8,1711.0,3451.6,3445.5,818.5,996.2,1289.1,1496.7,1363.0,1232.8,11.0,8.0,6.0,9205.0,10415.0,7295.0,4691.0,25.0,9.0,-28.0,3.0,0.0,5.0,11011.0,8579.0,6664.0,5402.0,20.0,-2.0,16.0,1.0
2022-05-03 15:03:51.978753-07:00,2035.4,606.8,1343.1,1622.8,1044.4,1403.0,1373.9,1691.0,3452.8,3445.5,1609.6,1405.8,1393.0,3445.5,1059.9,1519.0,3438.2,3446.7,791.9,1595.5,1074.7,654.6,1605.8,1711.0,3452.8,3440.7,814.4,1001.3,1289.1,1496.7,1363.0,1232.8,18.0,-11.0,7.0,9207.0,10414.0,7301.0,4682.0,24.0,-20.0,-8.0,5.0,3.0,1.0,11009.0,8582.0,6664.0,5402.0,11.0,0.0,-3.0,1.0
2022-05-03 15:03:51.979909-07:00,2047.4,607.6,1338.6,1623.7,1044.4,1403.0,1373.9,1691.0,3438.2,3454.0,1612.4,1405.8,1393.0,3445.5,1059.9,1519.0,3438.2,3446.7,791.9,1595.5,1076.4,656.2,1608.7,1719.6,3452.8,3440.7,814.4,1001.3,1291.8,1504.1,1363.9,1228.4,4.0,1.0,7.0,9201.0,10423.0,7295.0,4683.0,24.0,-10.0,40.0,2.0,0.0,5.0,11005.0,8588.0,6667.0,5398.0,20.0,-1.0,0.0,1.0
2022-05-03 15:03:52.005437-07:00,2047.4,607.6,1338.6,1623.7,1048.7,1397.6,1375.7,1693.8,3438.2,3454.0,1612.4,1405.8,1387.5,3452.8,1061.7,1511.5,3443.1,3437.0,806.9,1601.1,1076.4,656.2,1608.7,1719.6,3449.1,3449.1,816.9,994.5,1291.8,1504.1,1363.9,1228.4,14.0,12.0,14.0,9198.0,10439.0,7279.0,4680.0,19.0,-29.0,0.0,-1.0,5.0,2.0,11004.0,8589.0,6670.0,5394.0,7.0,6.0,-12.0,1.0
2022-05-03 15:03:52.095048-07:00,2046.4,607.6,1336.8,1628.4,1050.4,1409.4,1367.6,1696.7,3445.5,3450.4,1610.5,1403.0,1396.7,3451.6,1056.5,1518.0,3439.5,3443.1,790.2,1602.1,1082.5,660.3,1600.2,1707.2,3456.4,3446.7,812.7,994.5,1288.2,1498.6,1351.2,1219.5,9.0,10.0,15.0,9196.0,10448.0,7269.0,4677.0,19.0,-16.0,5.0,0.0,-9.0,11.0,11000.0,8593.0,6672.0,5393.0,19.0,-4.0,14.0,1.0
2022-05-03 15:03:52.185961-07:00,2046.4,605.2,1335.0,1620.9,1050.4,1409.4,1367.6,1675.7,3445.5,3443.1,1612.4,1402.1,1396.7,3451.6,1056.5,1506.0,3446.7,3443.1,790.2,1602.1,1072.9,659.5,1599.3,1707.2,3445.5,3446.7,812.7,994.5,1289.1,1503.2,1361.2,1219.5,8.0,-1.0,11.0,9195.0,10449.0,7272.0,4672.0,17.0,15.0,-23.0,0.0,1.0,0.0,10996.0,8598.0,6672.0,5391.0,-4.0,-6.0,1.0,1.0
2022-05-03 15:03:52.187031-07:00,2039.4,605.2,1335.0,1620.9,1047.0,1396.7,1372.1,1675.7,3443.1,3443.1,1612.4,1402.1,1386.6,3451.6,1061.7,1506.0,3446.7,3441.9,798.5,1590.8,1072.9,659.5,1599.3,1706.2,3445.5,3441.9,808.5,990.2,1289.1,1503.2,1361.2,1226.6,3.0,-15.0,-6.0,9185.0,10454.0,7276.0,4674.0,37.0,-6.0,38.0,5.0,1.0,5.0,10996.0,8598.0,6673.0,5392.0,4.0,11.0,-5.0,1.0
2022-05-03 15:03:52.187974-07:00,2039.4,608.4,1334.1,1614.3,1047.0,1396.7,1372.1,1691.0,3443.1,3441.9,1608.7,1404.9,1386.6,3451.6,1061.7,1508.8,3449.1,3441.9,798.5,1590.8,1078.2,657.0,1597.4,1706.2,3454.0,3441.9,808.5,990.2,1281.9,1501.4,1356.7,1226.6,7.0,17.0,13.0,9179.0,10471.0,7262.0,4669.0,7.0,-23.0,10.0,3.0,-6.0,5.0,10994.0,8599.0,6672.0,5395.0,4.0,2.0,17.0,1.0
2022-05-03 15:03:52.424968-07:00,2043.4,605.2,1334.1,1614.3,1049.6,1396.7,1368.5,1691.0,3439.5,3438.2,1608.7,1404.9,1394.8,3452.8,1051.3,1508.8,3449.1,3441.9,792.7,1604.9,1078.2,657.0,1591.7,1717.7,3454.0,3455.2,813.5,987.6,1281.9,1501.4,1361.2,1223.9,14.0,0.0,15.0,9181.0,10471.0,7260.0,4668.0,11.0,6.0,-11.0,1.0,-1.0,3.0,10992.0,8601.0,6669.0,5400.0,-1.0,9.0,12.0,1.0
2022-05-03 15:03:52.427734-07:00,2043.4,605.2,1334.1,1617.1,1049.6,1396.7,1369.4,1695.7,3439.5,3438.2,1619.9,1402.1,1394.8,3452.8,1056.5,1513.4,3443.1,3444.3,792.7,1604.9,1071.2,653.8,1591.7,1717.7,3450.4,3454.0,813.5,987.6,1290.9,1499.5,1361.2,1223.9,11.0,1.0,13.0,9177.0,10471.0,7259.0,4678.0,1.0,11.0,32.0,4.0,1.0,5.0,10988.0,8601.0,6674.0,5402.0,7.0,15.0,-9.0,1.0
2022-05-03 15:03:52.428721-07:00,2037.4,602.0,1334.1,1617.1,1053.9,1388.5,1369.4,1695.7,3440.7,3449.1,1619.9,1402.1,1409.4,3450.4,1056.5,1513.4,3443.1,3444.3,787.7,1596.4,1071.2,653.8,1582.4,1706.2,3450.4,3454.0,810.2,990.2,1290.9,1499.5,1354.0,1223.0,8.0,5.0,8.0,9171.0,10474.0,7253.0,4691.0,-2.0,11.0,19.0,2.0,-3.0,2.0,10987.0,8600.0,6675.0,5405.0,-6.0,-7.0,15.0,1.0
2022-05-03 15:03:52.455077-07:00,2037.4,602.0,1331.4,1625.6,1053.9,1388.5,1368.5,1695.7,3440.7,3449.1,1603.0,1403.0,1409.4,3450.4,1049.6,1517.1,3437.0,3447.9,787.7,1596.4,1072.9,652.2,1582.4,1706.2,3452.8,3449.1,810.2,990.2,1289.1,1502.3,1354.0,1223.0,7.0,5.0,5.0,9167.0,10473.0,7261.0,4690.0,18.0,25.0,-32.0,0.0,9.0,2.0,10982.0,8605.0,6673.0,5407.0,9.0,-7.0,5.0,1.0
2022-05-03 15:03:52.456228-07:00,2026.4,605.2,1331.4,1625.6,1049.6,1390.3,1368.5,1695.7,3449.1,3446.7,1603.0,1403.0,1391.2,3447.9,1049.6,1517.1,3437.0,3447.9,790.2,1599.3,1072.9,652.2,1582.4,1711.0,3452.8,3449.1,807.7,993.6,1289.1,1502.3,1368.5,1213.3,10.0,-12.0,10.0,9169.0,10468.0,7263.0,4695.0,-15.0,11.0,22.0,5.0,-1.0,7.0,10986.0,8603.0,6670.0,5408.0,-12.0,-9.0,-5.0,1.0
2022-05-03 15:03:52.485183-07:00,2026.4,605.2,1332.3,1627.5,1049.6,1390.3,1372.1,1685.3,3449.1,3446.7,1608.7,1404.0,1391.2,3447.9,1047.0,1513.4,3438.2,3445.5,790.2,1599.3,1075.6,652.2,1582.4,1711.0,3450.4,3443.1,807.7,993.6,1288.2,1499.5,1368.5,1213.3,12.0,21.0,4.0,9161.0,10472.0,7258.0,4710.0,-6.0,23.0,20.0,0.0,2.0,2.0,10985.0,8607.0,6670.0,5405.0,8.0,-11.0,3.0,1.0
2022-05-03 15:03:52.545405-07:00,2030.4,599.6,1339.5,1627.5,1053.0,1382.1,1372.1,1685.3,3438.2,3440.7,1604.9,1404.0,1388.5,3443.1,1047.0,1513.4,3438.2,3445.5,791.0,1597.4,1075.6,653.8,1575.8,1711.0,3450.4,3443.1,811.9,987.6,1288.2,1494.0,1352.1,1224.8,4.0,-10.0,4.0,9169.0,10453.0,7262.0,4729.0,-38.0,35.0,-16.0,-2.0,0.0,5.0,10985.0,8606.0,6669.0,5405.0,-15.0,-1.0,-7.0,1.0
2022-05-03 15:03:52.604918-07:00,2030.4,599.6,1339.5,1618.1,1053.0,1383.9,1375.7,1705.3,3438.2,3440.7,1604.9,1403.0,1388.5,3450.4,1049.6,1512.5,3449.1,3446.7,783.6,1597.4,1070.3,653.8,1575.8,1711.0,3447.9,3440.7,806.9,987.6,1288.2,1494.0,1352.1,1224.8,8.0,9.0,8.0,9163.0,10459.0,7261.0,4729.0,23.0,-9.0,13.0,0.0,-1.0,9.0,10985.0,8606.0,6670.0,5405.0,25.0,4.0,8.0,1.0
2022-05-03 15:03:52.635210-07:00,2035.4,602.0,1332.3,1618.1,1053.0,1383.9,1375.7,1705.3,3444.3,3451.6,1608.7,1403.0,1393.9,3450.4,1049.6,1512.5,3449.1,3446.7,783.6,1594.6,1070.3,653.0,1575.8,1707.2,3447.9,3440.7,806.9,982.5,1288.2,1498.6,1349.4,1223.0,11.0,0.0,18.0,9166.0,10458.0,7260.0,4728.0,-22.0,-5.0,-15.0,4.0,-3.0,3.0,10985.0,8606.0,6670.0,5405.0,-13.0,1.0,8.0,1.0
2022-05-03 15:03:52.995187-07:00,2035.4,602.0,1332.3,1622.8,1053.0,1378.5,1373.9,1687.2,3444.3,3451.6,1608.7,1401.2,1393.9,3438.2,1048.7,1512.5,3437.0,3433.4,784.4,1594.6,1070.3,653.0,1575.8,1707.2,3438.2,3446.7,804.4,982.5,1283.7,1498.6,1349.4,1223.0,2.0,2.0,11.0,9166.0,10459.0,7258.0,4730.0,41.0,-5.0,22.0,-1.0,-1.0,2.0,10985.0,8606.0,6670.0,5405.0,-4.0,-9.0,0.0,1.0
2022-05-03 15:03:53.205713-07:00,2045.4,600.4,1328.7,1622.8,1053.0,1378.5,1373.9,1687.2,3447.9,3440.7,1610.5,1401.2,1393.0,3438.2,1048.7,1512.5,3437.0,3433.4,784.4,1595.5,1070.3,653.0,1564.6,1711.0,3438.2,3446.7,804.4,985.9,1283.7,1501.4,1347.6,1223.0,9.0,0.0,3.0,9159.0,10465.0,7253.0,4734.0,-22.0,3.0,18.0,4.0,-1.0,6.0,10987.0,8606.0,6668.0,5404.0,-6.0,-7.0,1.0,1.0
2022-05-03 15:03:53.206748-07:00,2045.4,600.4,1328.7,1621.8,1041.8,1380.3,1363.0,1687.2,3447.9,3440.7,1610.5,1396.7,1392.1,3449.1,1055.6,1517.1,3441.9,3440.7,789.4,1590.8,1072.1,653.0,1564.6,1711.0,3443.1,3443.1,802.7,983.3,1279.2,1501.4,1347.6,1223.0,5.0,2.0,6.0,9159.0,10467.0,7248.0,4739.0,-9.0,1.0,8.0,3.0,-1.0,5.0,10987.0,8606.0,6668.0,5404.0,9.0,9.0,-5.0,1.0
2022-05-03 15:03:53.625328-07:00,2033.4,606.8,1330.5,1600.2,1041.8,1380.3,1363.0,1687.2,3449.1,3449.1,1604.0,1397.6,1392.1,3449.1,1055.6,1517.1,3441.9,3440.7,789.4,1590.8,1064.3,653.8,1566.5,1711.0,3443.1,3443.1,802.7,983.3,1286.4,1499.5,1354.0,1216.0,8.0,3.0,8.0,9162.0,10466.0,7244.0,4741.0,-7.0,-14.0,13.0,1.0,-2.0,12.0,10986.0,8604.0,6672.0,5403.0,-3.0,7.0,-3.0,1.0
2022-05-03 15:03:53.745257-07:00,2033.4,606.8,1330.5,1600.2,1053.0,1376.6,1366.6,1685.3,3449.1,3449.1,1604.0,1397.6,1393.0,3444.3,1048.7,1507.8,3449.1,3444.3,793.5,1600.2,1064.3,653.8,1566.5,1711.0,3438.2,3451.6,810.2,981.6,1286.4,1499.5,1354.0,1216.0,9.0,11.0,12.0,9164.0,10465.0,7241.0,4744.0,8.0,14.0,-14.0,1.0,-2.0,12.0,10986.0,8604.0,6672.0,5403.0,-3.0,7.0,-3.0,1.0
2022-05-03 15:03:53.747696-07:00,2030.4,597.9,1332.3,1615.2,1053.0,1376.6,1366.6,1685.3,3443.1,3441.9,1607.7,1398.5,1393.0,3444.3,1048.7,1507.8,3449.1,3444.3,793.5,1600.2,1074.7,651.4,1566.5,1708.1,3438.2,3451.6,810.2,981.6,1283.7,1496.7,1354.9,1224.8,2.0,-6.0,10.0,9164.0,10457.0,7253.0,4744.0,2.0,11.0,-20.0,1.0,-2.0,12.0,10986.0,8604.0,6672.0,5403.0,-3.0,7.0,-3.0,1.0
2022-05-03 15:03:53.748569-07:00,2030.4,597.9,1332.3,1615.2,1053.0,1376.6,1366.6,1685.3,3443.1,3441.9,1607.7,1398.5,1393.0,3444.3,1048.7,1507.8,3449.1,3444.3,793.5,1600.2,1074.7,651.4,1566.5,1708.1,3438.2,3451.6,810.2,981.6,1283.7,1496.7,1354.9,1224.8,2.0,-6.0,10.0,9164.0,10457.0,7253.0,4744.0,2.0,11.0,-20.0,5.0,1.0,5.0,10988.0,8599.0,6679.0,5399.0,-7.0,4.0,8.0,1.0
2022-05-03 15:03:53.749271-07:00,2030.4,597.9,1332.3,1615.2,1053.0,1376.6,1366.6,1685.3,3443.1,3441.9,1607.7,1398.5,1393.0,3444.3,1048.7,1507.8,3449.1,3444.3,793.5,1600.2,1074.7,651.4,1566.5,1708.1,3438.2,3451.6,810.2,981.6,1283.7,1496.7,1354.9,1224.8,2.0,-6.0,10.0,9164.0,10457.0,7253.0,4744.0,2.0,11.0,-20.0,5.0,-1.0,3.0,10985.0,8602.0,6681.0,5397.0,6.0,-5.0,1.0,1.0
2022-05-03 15:03:53.750145-07:00,2046.4,602.0,1332.3,1616.2,1050.4,1373.9,1367.6,1702.4,3449.1,3449.1,1606.8,1399.4,1395.7,3450.4,1048.7,1509.7,3443.1,3438.2,786.9,1595.5,1067.7,655.4,1559.9,1711.0,3440.7,3458.9,804.4,980.7,1289.1,1494.0,1349.4,1224.8,4.0,6.0,9.0,9161.0,10445.0,7267.0,4753.0,-14.0,-9.0,21.0,0.0,2.0,1.0,10985.0,8602.0,6682.0,5396.0,8.0,-7.0,8.0,1.0
2022-05-03 15:03:53.750904-07:00,2046.4,601.2,1331.4,1613.4,1050.4,1373.9,1373.9,1691.9,3449.1,3445.5,1612.4,1412.2,1395.7,3450.4,1044.4,1512.5,3437.0,3443.1,786.9,1595.5,1066.0,653.8,1574.9,1711.0,3445.5,3455.2,804.4,980.7,1289.1,1497.7,1352.1,1224.8,9.0,4.0,6.0,9161.0,10448.0,7261.0,4758.0,3.0,-15.0,1.0,0.0,2.0,1.0,10985.0,8602.0,6682.0,5396.0,8.0,-7.0,8.0,1.0
2022-05-03 15:03:53.775738-07:00,2039.4,598.7,1328.7,1615.2,1047.8,1367.6,1369.4,1696.7,3444.3,3449.1,1605.8,1409.4,1394.8,3435.8,1053.0,1509.7,3437.0,3438.2,787.7,1585.2,1070.3,653.0,1561.8,1706.2,3440.7,3445.5,806.9,979.0,1286.4,1496.7,1351.2,1223.0,3.0,8.0,6.0,9158.0,10449.0,7257.0,4768.0,13.0,2.0,19.0,6.0,-4.0,4.0,10987.0,8600.0,6681.0,5396.0,8.0,2.0,1.0,1.0
2022-05-03 15:03:53.776458-07:00,2039.4,598.7,1328.7,1615.2,1047.8,1367.6,1369.4,1696.7,3444.3,3449.1,1605.8,1409.4,1394.8,3435.8,1053.0,1509.7,3437.0,3438.2,787.7,1585.2,1070.3,653.0,1561.8,1706.2,3440.7,3445.5,806.9,979.0,1286.4,1496.7,1351.2,1223.0,3.0,8.0,6.0,9158.0,10449.0,7257.0,4768.0,13.0,2.0,19.0,3.0,-1.0,1.0,10986.0,8602.0,6682.0,5396.0,-5.0,3.0,2.0,1.0
2022-05-03 15:03:53.835405-07:00,2047.4,601.2,1320.5,1620.9,1051.3,1372.1,1366.6,1691.9,3440.7,3441.9,1603.0,1401.2,1393.0,3447.9,1045.2,1509.7,3438.2,3445.5,782.7,1585.2,1068.6,657.0,1551.5,1712.9,3447.9,3443.1,805.2,977.3,1286.4,1497.7,1375.7,1219.5,9.0,-3.0,10.0,9160.0,10446.0,7258.0,4768.0,19.0,4.0,4.0,6.0,-1.0,6.0,10986.0,8601.0,6682.0,5396.0,5.0,7.0,-8.0,1.0
2022-05-03 15:03:54.164981-07:00,2029.4,605.2,1336.8,1619.0,1050.4,1372.1,1366.6,1691.9,3445.5,3441.9,1608.7,1404.9,1393.0,3447.9,1045.2,1509.7,3438.2,3445.5,782.7,1588.0,1060.8,653.0,1548.7,1709.1,3447.9,3443.1,805.2,980.7,1289.1,1490.3,1369.4,1225.7,7.0,6.0,6.0,9158.0,10449.0,7256.0,4769.0,-4.0,1.0,5.0,0.0,0.0,1.0,10986.0,8601.0,6682.0,5396.0,-8.0,-4.0,1.0,1.0
2022-05-03 15:03:54.315757-07:00,2029.4,605.2,1336.8,1619.0,1047.8,1375.7,1366.6,1691.0,3445.5,3441.9,1608.7,1404.9,1397.6,3441.9,1054.8,1508.8,3439.5,3433.4,781.1,1588.0,1060.8,653.0,1548.7,1709.1,3445.5,3443.1,796.9,979.0,1289.1,1490.3,1369.4,1225.7,3.0,4.0,8.0,9158.0,10445.0,7262.0,4769.0,5.0,10.0,-21.0,4.0,2.0,6.0,10988.0,8598.0,6681.0,5398.0,-2.0,1.0,-11.0,1.0
2022-05-03 15:03:54.406090-07:00,2030.4,597.9,1324.1,1616.2,1047.8,1375.7,1366.6,1691.0,3445.5,3445.5,1601.1,1404.0,1397.6,3441.9,1054.8,1508.8,3439.5,3433.4,781.1,1588.0,1062.5,654.6,1556.2,1711.9,3445.5,3443.1,796.9,979.0,1290.0,1492.1,1345.8,1229.3,5.0,-2.0,5.0,9160.0,10443.0,7263.0,4766.0,-11.0,-11.0,3.0,0.0,-6.0,8.0,10990.0,8596.0,6683.0,5394.0,-5.0,1.0,-7.0,1.0
2022-05-03 15:03:54.465306-07:00,2030.4,597.9,1324.1,1616.2,1051.3,1367.6,1367.6,1695.7,3445.5,3445.5,1601.1,1404.0,1389.4,3438.2,1046.1,1510.6,3443.1,3432.2,784.4,1588.0,1062.5,654.6,1556.2,1711.9,3445.5,3446.7,806.0,976.5,1290.0,1492.1,1345.8,1229.3,2.0,10.0,9.0,9166.0,10440.0,7260.0,4766.0,-6.0,-13.0,-14.0,4.0,1.0,6.0,10990.0,8596.0,6683.0,5394.0,5.0,1.0,5.0,1.0
2022-05-03 15:03:54.735463-07:00,2030.4,602.8,1323.2,1616.2,1051.3,1367.6,1367.6,1695.7,3449.1,3454.0,1613.4,1402.1,1389.4,3438.2,1046.1,1510.6,3443.1,3432.2,784.4,1588.0,1067.7,651.4,1555.3,1702.4,3445.5,3446.7,806.0,976.5,1287.3,1506.9,1348.5,1223.0,2.0,-6.0,10.0,9170.0,10436.0,7265.0,4760.0,-8.0,-2.0,-15.0,6.0,3.0,7.0,10991.0,8595.0,6686.0,5391.0,3.0,-2.0,-12.0,1.0
2022-05-03 15:03:54.975008-07:00,2030.4,602.8,1323.2,1616.2,1052.2,1370.3,1364.8,1693.8,3444.3,3454.0,1613.4,1402.1,1395.7,3443.1,1052.2,1495.8,3435.8,3446.7,788.6,1584.2,1067.7,651.4,1555.3,1702.4,3438.2,3445.5,801.9,977.3,1287.3,1506.9,1348.5,1217.7,8.0,4.0,14.0,9170.0,10436.0,7265.0,4759.0,14.0,6.0,11.0,5.0,2.0,2.0,10993.0,8593.0,6688.0,5388.0,2.0,3.0,-9.0,1.0
2022-05-03 15:03:54.976759-07:00,2031.4,599.6,1318.7,1619.0,1047.8,1372.1,1351.2,1685.3,3445.5,3439.5,1604.0,1408.5,1393.0,3445.5,1047.0,1515.3,3450.4,3438.2,784.4,1591.7,1069.5,649.7,1546.9,1711.0,3455.2,3443.1,794.4,973.1,1289.1,1500.4,1346.7,1226.6,7.0,10.0,12.0,9169.0,10442.0,7273.0,4736.0,14.0,-3.0,-24.0,1.0,2.0,3.0,10993.0,8593.0,6688.0,5388.0,1.0,-4.0,-7.0,1.0
2022-05-03 15:03:54.978647-07:00,2033.4,599.6,1325.0,1616.2,1045.2,1375.7,1370.3,1687.2,3446.7,3446.7,1605.8,1403.0,1395.7,3443.1,1046.1,1506.9,3435.8,3441.9,798.5,1586.1,1065.1,652.2,1548.7,1707.2,3445.5,3446.7,800.2,971.3,1289.1,1500.4,1354.0,1220.4,7.0,-4.0,6.0,9169.0,10439.0,7283.0,4726.0,10.0,-5.0,-22.0,1.0,2.0,3.0,10993.0,8593.0,6688.0,5388.0,1.0,-4.0,-7.0,1.0
2022-05-03 15:03:54.979854-07:00,2036.4,597.9,1325.0,1616.2,1059.1,1367.6,1370.3,1687.2,3445.5,3449.1,1605.8,1403.0,1388.5,3446.7,1046.1,1506.9,3435.8,3441.9,786.1,1589.9,1065.1,652.2,1553.4,1709.1,3445.5,3446.7,800.2,974.8,1289.1,1500.4,1351.2,1223.0,4.0,10.0,10.0,9170.0,10437.0,7288.0,4721.0,8.0,-3.0,-15.0,2.0,-2.0,2.0,11002.0,8582.0,6682.0,5394.0,-5.0,1.0,2.0,1.0
2022-05-03 15:03:55.004863-07:00,2036.4,597.9,1325.0,1616.2,1059.1,1367.6,1370.3,1687.2,3445.5,3449.1,1605.8,1403.0,1388.5,3446.7,1046.1,1506.9,3435.8,3441.9,786.1,1589.9,1065.1,652.2,1553.4,1709.1,3445.5,3446.7,800.2,974.8,1289.1,1500.4,1351.2,1223.0,4.0,10.0,10.0,9170.0,10437.0,7288.0,4721.0,8.0,-3.0,-15.0,2.0,-2.0,2.0,11002.0,8582.0,6682.0,5394.0,-5.0,1.0,2.0,1.0
2022-05-03 15:03:55.335304-07:00,2033.4,602.0,1330.5,1619.9,1047.0,1363.9,1364.8,1691.9,3438.2,3438.2,1596.4,1403.0,1382.1,3447.9,1043.5,1510.6,3449.1,3439.5,783.6,1587.1,1060.8,653.8,1546.9,1722.4,3449.1,3449.1,798.5,971.3,1288.2,1500.4,1338.6,1222.2,5.0,3.0,12.0,9177.0,10423.0,7291.0,4734.0,-13.0,13.0,-1.0,2.0,0.0,4.0,11003.0,8581.0,6682.0,5395.0,-6.0,-1.0,4.0,1.0
2022-05-03 15:03:55.336292-07:00,2033.4,602.0,1330.5,1619.9,1047.0,1363.9,1364.8,1691.9,3438.2,3438.2,1596.4,1403.0,1382.1,3447.9,1043.5,1510.6,3449.1,3439.5,783.6,1587.1,1060.8,653.8,1546.9,1722.4,3449.1,3449.1,798.5,971.3,1288.2,1500.4,1338.6,1222.2,5.0,3.0,12.0,9177.0,10423.0,7291.0,4734.0,-13.0,13.0,-1.0,7.0,-1.0,1.0,11003.0,8581.0,6682.0,5395.0,0.0,0.0,-5.0,1.0
2022-05-03 15:03:55.337307-07:00,2028.4,595.5,1332.3,1620.9,1049.6,1368.5,1363.9,1685.3,3447.9,3447.9,1608.7,1403.0,1393.0,3451.6,1041.8,1510.6,3443.1,3440.7,784.4,1585.2,1066.0,652.2,1546.9,1709.1,3450.4,3445.5,801.9,972.2,1289.1,1494.0,1348.5,1220.4,3.0,5.0,11.0,9178.0,10424.0,7289.0,4735.0,0.0,-2.0,6.0,2.0,-9.0,5.0,11003.0,8581.0,6682.0,5395.0,9.0,5.0,-3.0,1.0
2022-05-03 15:03:55.338130-07:00,2043.4,601.2,1334.1,1619.9,1049.6,1368.5,1363.9,1685.3,3444.3,3443.1,1601.1,1401.2,1393.0,3451.6,1041.8,1510.6,3443.1,3440.7,784.4,1585.2,1062.5,645.7,1545.0,1712.9,3450.4,3445.5,801.9,972.2,1293.6,1496.7,1344.9,1224.8,14.0,8.0,14.0,9177.0,10425.0,7290.0,4734.0,3.0,-4.0,-10.0,2.0,-1.0,-1.0,11001.0,8583.0,6683.0,5393.0,18.0,-1.0,-8.0,1.0
2022-05-03 15:03:55.455896-07:00,2043.4,601.2,1334.1,1619.9,1039.2,1362.1,1372.1,1687.2,3444.3,3443.1,1601.1,1401.2,1393.0,3438.2,1057.3,1509.7,3444.3,3445.5,782.7,1575.8,1062.5,645.7,1545.0,1712.9,3449.1,3449.1,801.9,975.6,1293.6,1496.7,1344.9,1224.8,7.0,3.0,9.0,9179.0,10420.0,7293.0,4734.0,10.0,7.0,-13.0,5.0,2.0,-14.0,11049.0,8535.0,6721.0,5323.0,-49.0,-47.0,-184.0,1.0
2022-05-03 15:03:55.515502-07:00,2031.4,598.7,1320.5,1615.2,1039.2,1362.1,1372.1,1690.0,3446.7,3452.8,1608.7,1398.5,1393.0,3438.2,1057.3,1512.5,3438.2,3445.5,782.7,1575.8,1066.0,653.0,1540.3,1711.9,3458.9,3449.1,801.9,975.6,1286.4,1490.3,1350.3,1221.3,9.0,6.0,8.0,9176.0,10423.0,7297.0,4727.0,30.0,-13.0,-13.0,8.0,38.0,-20.0,11105.0,8480.0,6765.0,5238.0,-119.0,-34.0,-359.0,1.0
2022-05-03 15:03:55.516875-07:00,2028.4,602.0,1323.2,1617.1,1048.7,1368.5,1360.3,1690.0,3441.9,3445.5,1597.4,1402.1,1393.9,3438.2,1046.1,1509.7,3433.4,3439.5,786.9,1586.1,1070.3,650.5,1547.8,1709.1,3443.1,3450.4,801.0,976.5,1281.0,1493.0,1342.2,1223.0,14.0,43.0,-17.0,9199.0,10376.0,7479.0,4496.0,174.0,-125.0,-499.0,2.0,17.0,-9.0,11291.0,8254.0,6786.0,5174.0,-795.0,-80.0,-592.0,1.0
2022-05-03 15:03:55.545341-07:00,2028.4,602.0,1322.3,1623.7,1048.7,1368.5,1360.3,1686.2,3441.9,3444.3,1607.7,1397.6,1393.9,3438.2,1046.1,1508.8,3441.9,3439.5,786.9,1586.1,1061.7,652.2,1546.9,1709.1,3449.1,3450.4,801.0,976.5,1290.0,1494.0,1348.5,1223.0,26.0,117.0,11.0,9250.0,10307.0,7671.0,4220.0,234.0,-181.0,-948.0,2.0,105.0,-1.0,11683.0,7756.0,6738.0,5138.0,-1536.0,-168.0,-860.0,1.0
2022-05-03 15:03:55.546784-07:00,2030.4,602.0,1322.3,1623.7,1047.8,1360.3,1364.8,1686.2,3444.3,3444.3,1607.7,1397.6,1392.1,3438.2,1045.2,1508.8,3441.9,3440.7,787.7,1585.2,1061.7,652.2,1546.9,1711.0,3449.1,3452.8,798.5,976.5,1290.0,1494.0,1348.5,1223.0,16.0,161.0,-19.0,9451.0,10020.0,7992.0,3853.0,-347.0,-190.0,-1722.0,49.0,-38.0,-44.0,12145.0,7099.0,6654.0,5124.0,-1728.0,-149.0,-864.0,1.0
