Time,P0,P1,P2,P3,P4,P5,P6,P7,P8,P9,P10,P11,P12,P13,P14,P15,P16,P17,P18,P19,P20,P21,P22,P23,P24,P25,P26,P27,P28,P29,P30,P31,ECG,AX0,AY0,AZ0,QW0,QX0,QY0,QZ0,GX0,GY0,GZ0,AX1,AY1,AZ1,QW1,QX1,QY1,QZ1,GX1,GY1,GZ1
2022-05-03 14:43:58.367882-07:00,2268.3,732.3,1305.2,1524.5,976.5,1426.8,1424.1,1802.3,3444.3,3438.2,1627.5,1446.0,1360.3,3454.0,1092.9,1590.8,3438.2,3446.7,758.7,1483.8,1007.3,627.0,1528.3,1730.1,3451.6,3443.1,760.4,959.4,1235.5,1495.8,1316.9,1266.7,25.0,2.0,18.0,9483.0,12764.0,2278.0,3225.0,-281.0,-319.0,35.0,-7.0,-7.0,-14.0,11030.0,10272.0,5153.0,3836.0,-128.0,-76.0,5.0,1.0
2022-05-03 14:43:58.368898-07:00,2268.3,732.3,1305.2,1523.6,976.5,1425.0,1403.0,1793.6,3444.3,3438.2,1627.5,1448.8,1360.3,3446.7,1101.7,1588.9,3439.5,3440.7,756.3,1483.8,1015.1,627.0,1528.3,1730.1,3449.1,3441.9,774.5,959.4,1239.1,1495.8,1316.9,1266.7,37.0,56.0,75.0,9617.0,12677.0,2249.0,3192.0,-385.0,72.0,-192.0,5.0,-7.0,4.0,11122.0,10201.0,5086.0,3847.0,-354.0,-129.0,-3.0,1.0
2022-05-03 14:43:58.369748-07:00,2262.1,715.1,1300.7,1523.6,978.2,1425.0,1403.0,1793.6,3449.1,3449.1,1619.0,1448.8,1353.1,3446.7,1101.7,1588.9,3439.5,3440.7,756.3,1478.3,1015.1,629.5,1534.8,1721.5,3449.1,3441.9,774.5,956.0,1239.1,1495.8,1330.5,1265.8,-2.0,25.0,68.0,9728.0,12551.0,2437.0,3215.0,-184.0,442.0,-529.0,17.0,-38.0,47.0,11215.0,10117.0,5046.0,3852.0,-220.0,-23.0,-65.0,1.0
2022-05-03 14:43:58.397709-07:00,2262.1,715.1,1300.7,1524.5,978.2,1404.0,1434.1,1791.6,3449.1,3449.1,1619.0,1440.5,1353.1,3444.3,1097.3,1589.9,3433.4,3434.6,749.6,1478.3,1017.6,629.5,1534.8,1721.5,3446.7,3439.5,767.0,956.0,1236.4,1495.8,1330.5,1265.8,6.0,-52.0,32.0,9720.0,12495.0,2755.0,3201.0,284.0,448.0,-578.0,8.0,-33.0,52.0,11205.0,10105.0,5103.0,3838.0,215.0,161.0,-119.0,1.0
2022-05-03 14:43:58.488089-07:00,2265.2,711.8,1307.9,1519.9,974.8,1404.0,1434.1,1791.6,3449.1,3444.3,1635.0,1442.4,1360.3,3444.3,1097.3,1589.9,3433.4,3434.6,749.6,1494.0,1009.9,631.1,1514.3,1728.2,3446.7,3439.5,767.0,950.9,1231.0,1494.9,1318.7,1273.0,5.0,-53.0,-15.0,9584.0,12527.0,3027.0,3237.0,360.0,527.0,-219.0,-3.0,-14.0,9.0,11090.0,10177.0,5220.0,3824.0,334.0,199.0,-46.0,1.0
2022-05-03 14:43:58.489907-07:00,2265.2,711.8,1307.9,1519.9,980.7,1405.8,1467.2,1796.5,3449.1,3444.3,1635.0,1442.4,1355.8,3441.9,1099.0,1580.5,3443.1,3435.8,754.6,1472.7,1009.9,631.1,1514.3,1728.2,3449.1,3446.7,753.8,946.6,1231.0,1494.9,1318.7,1273.0,6.0,-36.0,-70.0,9432.0,12582.0,3172.0,3331.0,399.0,293.0,74.0,-10.0,-12.0,-19.0,10981.0,10252.0,5304.0,3824.0,333.0,145.0,19.0,1.0
2022-05-03 14:43:58.547729-07:00,2247.6,702.8,1299.0,1523.6,980.7,1405.8,1467.2,1796.5,3437.0,3438.2,1620.9,1445.1,1355.8,3441.9,1099.0,1580.5,3443.1,3435.8,754.6,1472.7,1006.5,627.0,1530.1,1727.2,3449.1,3446.7,753.8,946.6,1223.9,1485.6,1316.9,1268.5,16.0,32.0,-50.0,9304.0,12653.0,3209.0,3387.0,187.0,131.0,71.0,-9.0,11.0,-26.0,10902.0,10319.0,5342.0,3818.0,137.0,30.0,21.0,1.0
2022-05-03 14:43:58.607613-07:00,2247.6,702.8,1299.0,1523.6,982.5,1404.0,1460.8,1789.7,3437.0,3438.2,1620.9,1445.1,1361.2,3441.9,1094.7,1579.6,3438.2,3439.5,749.6,1468.1,1006.5,627.0,1530.1,1727.2,3445.5,3443.1,752.9,937.3,1223.9,1485.6,1316.9,1268.5,11.0,14.0,-21.0,9293.0,12655.0,3222.0,3399.0,-48.0,-20.0,-40.0,-4.0,1.0,-6.0,10904.0,10319.0,5337.0,3815.0,-59.0,-37.0,-10.0,1.0
2022-05-03 14:43:58.727624-07:00,2237.3,697.9,1303.4,1522.7,982.5,1404.0,1460.8,1789.7,3450.4,3445.5,1646.4,1445.1,1361.2,3441.9,1094.7,1579.6,3438.2,3439.5,749.6,1468.1,1011.6,628.6,1514.3,1721.5,3445.5,3443.1,752.9,937.3,1234.6,1487.5,1325.0,1256.9,10.0,3.0,12.0,9323.0,12638.0,3220.0,3378.0,-58.0,-50.0,-41.0,-1.0,-15.0,11.0,10935.0,10299.0,5319.0,3806.0,-73.0,-60.0,-22.0,1.0
2022-05-03 14:43:58.787482-07:00,2240.4,697.9,1303.4,1522.7,975.6,1408.5,1479.2,1796.5,3439.5,3445.5,1646.4,1445.1,1358.5,3439.5,1089.5,1577.7,3439.5,3446.7,744.7,1476.4,1011.6,628.6,1514.3,1728.2,3445.5,3447.9,755.4,940.7,1234.6,1487.5,1325.0,1271.2,-1.0,6.0,4.0,9328.0,12646.0,3218.0,3339.0,94.0,-149.0,-52.0,1.0,-21.0,33.0,10955.0,10288.0,5311.0,3793.0,49.0,-16.0,-36.0,1.0
2022-05-03 14:43:58.788835-07:00,2240.4,697.9,1295.4,1516.2,975.6,1408.5,1479.2,1805.2,3439.5,3451.6,1625.6,1436.0,1358.5,3439.5,1089.5,1577.7,3441.9,3446.7,744.7,1476.4,1009.0,628.6,1513.4,1728.2,3445.5,3447.9,755.4,940.7,1227.5,1491.2,1316.9,1271.2,43.0,5.0,-3.0,9331.0,12669.0,3204.0,3255.0,-12.0,-161.0,-121.0,-9.0,-10.0,-20.0,10946.0,10297.0,5328.0,3770.0,8.0,-15.0,-45.0,1.0
2022-05-03 14:43:58.790802-07:00,2260.0,697.9,1295.4,1516.2,977.3,1396.7,1698.6,1805.2,3458.9,3451.6,1625.6,1436.0,1347.6,3449.1,1107.8,1577.7,3441.9,3446.7,755.4,1475.5,1009.0,628.6,1513.4,1727.2,3445.5,3443.1,751.3,940.7,1227.5,1491.2,1316.9,1269.4,3.0,-5.0,7.0,9352.0,12654.0,3242.0,3215.0,-41.0,-6.0,-152.0,0.0,-9.0,24.0,10957.0,10287.0,5336.0,3752.0,-32.0,-12.0,-45.0,1.0
2022-05-03 14:43:58.907919-07:00,2260.0,706.0,1307.0,1522.7,977.3,1396.7,1698.6,1807.1,3458.9,3443.1,1624.7,1442.4,1347.6,3449.1,1107.8,1582.4,3435.8,3446.7,755.4,1475.5,1008.2,631.1,1510.6,1727.2,3447.9,3443.1,751.3,940.7,1235.5,1492.1,1324.1,1269.4,2.0,-47.0,3.0,9369.0,12638.0,3264.0,3207.0,-28.0,30.0,-1.0,-6.0,-33.0,22.0,10972.0,10275.0,5334.0,3744.0,-32.0,-28.0,3.0,1.0
2022-05-03 14:43:58.938029-07:00,2274.5,706.0,1307.0,1522.7,976.5,1391.2,1752.1,1807.1,3449.1,3443.1,1624.7,1442.4,1357.6,3450.4,1099.0,1582.4,3435.8,3439.5,754.6,1484.7,1008.2,631.1,1510.6,1728.2,3447.9,3447.9,748.8,939.0,1235.5,1492.1,1324.1,1269.4,11.0,28.0,7.0,9342.0,12661.0,3245.0,3212.0,89.0,-26.0,60.0,-2.0,-6.0,10.0,10965.0,10284.0,5331.0,3745.0,61.0,11.0,15.0,1.0
2022-05-03 14:43:58.997745-07:00,2274.5,703.6,1302.5,1524.5,976.5,1391.2,1752.1,1801.3,3449.1,3446.7,1626.5,1438.7,1357.6,3450.4,1099.0,1584.2,3440.7,3439.5,754.6,1484.7,1006.5,635.1,1506.9,1728.2,3446.7,3447.9,748.8,939.0,1239.1,1491.2,1317.8,1269.4,12.0,0.0,-1.0,9336.0,12666.0,3245.0,3212.0,-8.0,14.0,-13.0,-3.0,-9.0,6.0,10957.0,10289.0,5337.0,3746.0,6.0,13.0,1.0,1.0
2022-05-03 14:43:58.998602-07:00,2274.5,691.3,1302.5,1524.5,977.3,1391.2,1748.3,1801.3,3438.2,3451.6,1626.5,1438.7,1360.3,3449.1,1105.1,1584.2,3440.7,3435.8,752.1,1475.5,1006.5,635.1,1511.5,1730.1,3446.7,3447.9,755.4,943.2,1239.1,1491.2,1319.6,1259.6,16.0,7.0,8.0,9329.0,12667.0,3253.0,3221.0,24.0,51.0,-8.0,-4.0,-5.0,3.0,10955.0,10290.0,5338.0,3746.0,4.0,2.0,0.0,1.0
2022-05-03 14:43:59.028191-07:00,2274.5,691.3,1297.2,1516.2,977.3,1391.2,1712.9,1788.7,3438.2,3451.6,1636.9,1448.8,1360.3,3449.1,1099.9,1580.5,3446.7,3438.2,752.1,1475.5,1009.0,632.7,1511.5,1730.1,3449.1,3454.0,755.4,943.2,1232.8,1492.1,1319.6,1259.6,8.0,-6.0,3.0,9326.0,12660.0,3271.0,3238.0,0.0,46.0,-9.0,0.0,-16.0,15.0,10956.0,10287.0,5341.0,3749.0,7.0,18.0,3.0,1.0
2022-05-03 14:43:59.088128-07:00,2247.6,691.3,1297.2,1516.2,976.5,1390.3,1712.9,1788.7,3441.9,3431.0,1636.9,1448.8,1353.1,3445.5,1099.9,1580.5,3446.7,3438.2,753.8,1478.3,1009.0,632.7,1507.8,1727.2,3449.1,3454.0,745.5,933.0,1232.8,1492.1,1322.3,1265.8,10.0,10.0,2.0,9312.0,12664.0,3283.0,3250.0,35.0,40.0,-9.0,-2.0,-9.0,3.0,10948.0,10290.0,5349.0,3752.0,17.0,20.0,-1.0,1.0
2022-05-03 14:43:59.177675-07:00,2247.6,691.3,1295.4,1514.3,976.5,1390.3,1692.9,1782.9,3441.9,3431.0,1611.5,1439.6,1353.1,3445.5,1099.9,1562.7,3438.2,3438.2,753.8,1478.3,1008.2,631.9,1507.8,1727.2,3444.3,3445.5,745.5,933.0,1236.4,1484.7,1322.3,1265.8,7.0,-7.0,-2.0,9308.0,12661.0,3296.0,3263.0,-3.0,32.0,1.0,-4.0,-10.0,2.0,10947.0,10288.0,5353.0,3756.0,-5.0,9.0,7.0,1.0
2022-05-03 14:43:59.179342-07:00,2230.1,685.6,1295.4,1514.3,979.0,1388.5,1692.9,1782.9,3438.2,3437.0,1611.5,1439.6,1355.8,3435.8,1099.9,1562.7,3438.2,3438.2,752.9,1477.3,1008.2,631.9,1497.7,1723.4,3444.3,3445.5,752.9,937.3,1236.4,1484.7,1319.6,1264.9,7.0,5.0,3.0,9304.0,12658.0,3299.0,3280.0,-12.0,40.0,15.0,0.0,-8.0,7.0,10950.0,10284.0,5350.0,3760.0,-23.0,-6.0,12.0,1.0
2022-05-03 14:43:59.237604-07:00,2230.1,685.6,1294.5,1510.6,979.0,1386.6,1660.6,1780.1,3438.2,3437.0,1619.0,1438.7,1355.8,3444.3,1099.9,1573.9,3435.8,3443.1,747.2,1477.3,1006.5,623.8,1497.7,1723.4,3439.5,3452.8,742.2,937.3,1231.0,1486.6,1319.6,1264.9,4.0,0.0,0.0,9305.0,12655.0,3297.0,3289.0,0.0,1.0,13.0,0.0,-12.0,13.0,10953.0,10281.0,5348.0,3762.0,8.0,4.0,8.0,1.0
2022-05-03 14:43:59.298440-07:00,2235.3,681.5,1295.4,1510.6,978.2,1386.6,1660.6,1780.1,3438.2,3444.3,1620.9,1438.7,1353.1,3444.3,1099.9,1573.9,3435.8,3443.1,747.2,1463.5,1006.5,625.4,1507.8,1726.3,3439.5,3452.8,742.2,938.1,1231.0,1484.7,1316.9,1252.4,12.0,5.0,3.0,9300.0,12661.0,3288.0,3290.0,6.0,-6.0,18.0,-1.0,-7.0,6.0,10951.0,10284.0,5349.0,3760.0,5.0,3.0,8.0,1.0
2022-05-03 14:43:59.357372-07:00,2235.3,681.5,1295.4,1523.6,978.2,1387.5,1645.4,1783.9,3438.2,3444.3,1620.9,1438.7,1353.1,3438.2,1093.8,1582.4,3433.4,3441.9,758.7,1463.5,1006.5,625.4,1507.8,1726.3,3445.5,3449.1,748.8,938.1,1234.6,1484.7,1316.9,1252.4,10.0,-1.0,2.0,9300.0,12662.0,3280.0,3296.0,0.0,-10.0,29.0,-1.0,-11.0,7.0,10951.0,10284.0,5348.0,3761.0,4.0,0.0,9.0,1.0
2022-05-03 14:43:59.387873-07:00,2227.0,683.1,1296.3,1523.6,973.1,1387.5,1645.4,1783.9,3449.1,3449.1,1623.7,1438.7,1357.6,3438.2,1093.8,1582.4,3433.4,3441.9,758.7,1476.4,1006.5,630.3,1499.5,1727.2,3445.5,3449.1,748.8,933.0,1234.6,1489.3,1317.8,1270.3,8.0,8.0,2.0,9298.0,12665.0,3269.0,3299.0,10.0,-18.0,15.0,0.0,-8.0,7.0,10951.0,10285.0,5348.0,3762.0,8.0,4.0,6.0,1.0
2022-05-03 14:43:59.447715-07:00,2227.0,683.1,1296.3,1516.2,973.1,1386.6,1621.8,1776.2,3449.1,3449.1,1623.7,1443.3,1357.6,3447.9,1094.7,1576.8,3439.5,3438.2,751.3,1476.4,1001.3,630.3,1499.5,1727.2,3443.1,3428.6,743.9,933.0,1239.9,1489.3,1317.8,1270.3,11.0,2.0,1.0,9295.0,12669.0,3261.0,3300.0,-4.0,-4.0,18.0,0.0,-9.0,5.0,10950.0,10285.0,5348.0,3761.0,0.0,0.0,8.0,1.0
2022-05-03 14:43:59.478288-07:00,2215.7,688.0,1303.4,1516.2,980.7,1386.6,1621.8,1776.2,3449.1,3444.3,1609.6,1443.3,1355.8,3447.9,1094.7,1576.8,3439.5,3438.2,751.3,1472.7,1001.3,635.1,1495.8,1723.4,3443.1,3428.6,743.9,930.5,1239.9,1489.3,1308.8,1262.2,4.0,5.0,3.0,9294.0,12669.0,3258.0,3306.0,2.0,7.0,8.0,0.0,-12.0,13.0,10951.0,10284.0,5347.0,3761.0,3.0,7.0,6.0,1.0
2022-05-03 14:43:59.597749-07:00,2215.7,688.0,1303.4,1523.6,978.2,1389.4,1619.0,1775.2,3449.1,3444.3,1609.6,1437.8,1350.3,3450.4,1092.9,1574.9,3443.1,3440.7,751.3,1471.8,1006.5,635.1,1495.8,1723.4,3440.7,3444.3,738.1,931.3,1233.7,1489.3,1308.8,1262.2,9.0,0.0,5.0,9294.0,12669.0,3255.0,3309.0,-1.0,-5.0,13.0,1.0,-10.0,6.0,10952.0,10283.0,5347.0,3762.0,0.0,1.0,6.0,1.0
2022-05-03 14:43:59.657743-07:00,2229.1,681.5,1290.9,1522.7,978.2,1389.4,1619.0,1775.2,3445.5,3443.1,1619.9,1438.7,1350.3,3450.4,1092.9,1574.9,3443.1,3440.7,751.3,1471.8,1018.5,630.3,1502.3,1724.4,3440.7,3444.3,738.1,931.3,1239.1,1484.7,1318.7,1263.1,9.0,3.0,2.0,9297.0,12667.0,3250.0,3313.0,-12.0,5.0,12.0,0.0,-9.0,7.0,10955.0,10280.0,5346.0,3763.0,-11.0,-1.0,6.0,1.0
2022-05-03 14:43:59.957772-07:00,2229.1,681.5,1290.9,1522.7,975.6,1385.7,1611.5,1762.7,3445.5,3443.1,1619.9,1438.7,1354.0,3446.7,1086.0,1585.2,3437.0,3439.5,743.9,1476.4,1018.5,630.3,1502.3,1724.4,3443.1,3445.5,743.9,931.3,1239.1,1484.7,1318.7,1263.1,8.0,6.0,0.0,9299.0,12667.0,3247.0,3313.0,6.0,-17.0,3.0,0.0,-9.0,5.0,10955.0,10280.0,5346.0,3763.0,6.0,1.0,0.0,1.0
2022-05-03 14:44:00.017647-07:00,2219.8,675.0,1312.4,1518.0,975.6,1385.7,1611.5,1762.7,3454.0,3444.3,1621.8,1436.0,1354.0,3446.7,1086.0,1585.2,3437.0,3439.5,743.9,1476.4,1005.6,627.0,1497.7,1731.1,3443.1,3445.5,743.9,931.3,1227.5,1485.6,1309.7,1269.4,8.0,0.0,1.0,9301.0,12666.0,3245.0,3312.0,-7.0,-8.0,4.0,-3.0,-10.0,2.0,10955.0,10280.0,5346.0,3763.0,-3.0,-3.0,2.0,1.0
2022-05-03 14:44:00.077776-07:00,2219.8,675.0,1312.4,1518.0,976.5,1382.1,1604.0,1772.3,3454.0,3444.3,1621.8,1436.0,1361.2,3440.7,1095.6,1578.6,3438.2,3446.7,755.4,1478.3,1005.6,627.0,1497.7,1731.1,3450.4,3447.9,748.0,931.3,1227.5,1485.6,1309.7,1269.4,7.0,8.0,3.0,9301.0,12666.0,3243.0,3313.0,-2.0,-6.0,-5.0,2.0,-9.0,8.0,10956.0,10279.0,5346.0,3763.0,-3.0,1.0,-3.0,1.0
2022-05-03 14:44:00.137420-07:00,2208.6,674.2,1295.4,1513.4,976.5,1382.1,1604.0,1763.7,3447.9,3451.6,1608.7,1436.9,1361.2,3440.7,1095.6,1574.9,3449.1,3446.7,755.4,1478.3,1007.3,627.8,1504.1,1724.4,3437.0,3447.9,748.0,931.3,1236.4,1486.6,1323.2,1273.0,8.0,1.0,4.0,9301.0,12666.0,3243.0,3313.0,-6.0,5.0,-5.0,0.0,-9.0,11.0,10957.0,10279.0,5345.0,3763.0,-3.0,5.0,2.0,1.0
2022-05-03 14:44:00.167601-07:00,2220.9,674.2,1295.4,1513.4,974.8,1381.2,1597.4,1763.7,3447.9,3451.6,1608.7,1436.9,1354.0,3445.5,1092.1,1574.9,3449.1,3449.1,752.9,1476.4,1007.3,627.8,1504.1,1734.9,3437.0,3439.5,738.1,933.0,1236.4,1486.6,1323.2,1267.6,8.0,4.0,4.0,9299.0,12668.0,3243.0,3313.0,15.0,0.0,3.0,-1.0,-10.0,8.0,10956.0,10280.0,5346.0,3763.0,6.0,1.0,1.0,1.0
2022-05-03 14:44:00.197695-07:00,2221.9,674.2,1308.8,1521.8,976.5,1385.7,1589.9,1760.8,3445.5,3439.5,1618.1,1437.8,1356.7,3447.9,1079.0,1573.9,3433.4,3443.1,752.9,1482.9,1008.2,623.8,1495.8,1717.7,3438.2,3452.8,744.7,933.0,1231.0,1487.5,1314.2,1263.1,9.0,1.0,1.0,9295.0,12671.0,3243.0,3314.0,-9.0,-1.0,-3.0,0.0,-8.0,4.0,10954.0,10282.0,5347.0,3762.0,-1.0,0.0,0.0,1.0
2022-05-03 14:44:00.228363-07:00,2207.5,674.2,1308.8,1521.8,982.5,1381.2,1589.9,1760.8,3444.3,3439.5,1618.1,1437.8,1355.8,3449.1,1090.3,1573.9,3433.4,3438.2,754.6,1478.3,1008.2,623.8,1495.8,1725.3,3438.2,3443.1,739.7,931.3,1231.0,1487.5,1314.2,1263.1,13.0,12.0,7.0,9295.0,12670.0,3241.0,3316.0,1.0,16.0,10.0,3.0,-5.0,10.0,10954.0,10282.0,5347.0,3762.0,2.0,-6.0,8.0,1.0
2022-05-03 14:44:00.317503-07:00,2217.8,669.3,1297.2,1516.2,973.1,1385.7,1577.7,1761.8,3445.5,3444.3,1620.9,1445.1,1357.6,3446.7,1090.3,1573.0,3449.1,3445.5,756.3,1475.5,1018.5,625.4,1492.1,1730.1,3447.9,3447.9,743.0,936.4,1231.0,1487.5,1309.7,1263.1,6.0,0.0,-3.0,9293.0,12670.0,3243.0,3321.0,2.0,-22.0,17.0,1.0,-12.0,8.0,10951.0,10284.0,5349.0,3762.0,0.0,-1.0,8.0,1.0
2022-05-03 14:44:00.348536-07:00,2217.8,669.3,1303.4,1518.0,973.1,1385.7,1583.3,1768.5,3445.5,3444.3,1622.8,1433.2,1357.6,3446.7,1090.3,1566.5,3439.5,3449.1,756.3,1475.5,1008.2,631.9,1492.1,1730.1,3441.9,3454.0,743.0,936.4,1231.0,1486.6,1309.7,1263.1,8.0,-3.0,0.0,9295.0,12672.0,3233.0,3317.0,-23.0,-25.0,18.0,1.0,-6.0,5.0,10951.0,10284.0,5349.0,3762.0,-8.0,1.0,3.0,1.0
2022-05-03 14:44:00.349399-07:00,2206.5,671.7,1303.4,1518.0,978.2,1382.1,1583.3,1768.5,3444.3,3454.0,1622.8,1433.2,1361.2,3449.1,1090.3,1566.5,3439.5,3449.1,752.1,1474.6,1008.2,631.9,1498.6,1724.4,3441.9,3454.0,745.5,931.3,1231.0,1486.6,1311.5,1276.5,10.0,2.0,3.0,9301.0,12672.0,3215.0,3317.0,-6.0,-22.0,33.0,0.0,-11.0,5.0,10955.0,10281.0,5345.0,3764.0,-11.0,-5.0,12.0,1.0
2022-05-03 14:44:00.350450-07:00,2206.5,671.7,1289.1,1515.3,978.2,1382.1,1573.0,1761.8,3444.3,3454.0,1613.4,1441.5,1361.2,3449.1,1092.9,1574.9,3443.1,3443.1,752.1,1474.6,1008.2,632.7,1498.6,1724.4,3444.3,3447.9,745.5,931.3,1230.2,1486.6,1311.5,1276.5,8.0,4.0,10.0,9303.0,12673.0,3207.0,3317.0,-12.0,-4.0,1.0,6.0,-11.0,13.0,10956.0,10279.0,5343.0,3765.0,-7.0,1.0,3.0,1.0
2022-05-03 14:44:00.377757-07:00,2203.4,666.0,1298.1,1515.3,976.5,1389.4,1573.0,1761.8,3440.7,3454.0,1618.1,1441.5,1361.2,3454.0,1092.9,1574.9,3443.1,3443.1,752.9,1478.3,1008.2,629.5,1492.1,1722.4,3444.3,3447.9,739.7,933.0,1230.2,1488.4,1308.8,1248.8,13.0,1.0,6.0,9303.0,12673.0,3205.0,3318.0,12.0,3.0,19.0,3.0,-7.0,6.0,10955.0,10281.0,5344.0,3764.0,13.0,4.0,5.0,1.0
2022-05-03 14:44:00.407757-07:00,2203.4,666.0,1298.1,1534.8,976.5,1386.6,1575.8,1759.8,3440.7,3454.0,1618.1,1440.5,1361.2,3450.4,1087.7,1584.2,3445.5,3429.8,755.4,1478.3,1015.1,629.5,1492.1,1722.4,3440.7,3449.1,743.0,933.0,1232.8,1488.4,1308.8,1248.8,8.0,4.0,2.0,9299.0,12675.0,3205.0,3321.0,-9.0,2.0,-8.0,2.0,-8.0,8.0,10954.0,10281.0,5344.0,3764.0,-1.0,7.0,0.0,1.0
2022-05-03 14:44:00.467475-07:00,2203.4,665.2,1288.2,1534.8,975.6,1386.6,1575.8,1759.8,3445.5,3439.5,1613.4,1440.5,1344.0,3450.4,1087.7,1584.2,3445.5,3429.8,755.4,1471.8,1015.1,633.5,1494.0,1726.3,3440.7,3449.1,743.0,936.4,1232.8,1484.7,1303.4,1267.6,7.0,1.0,1.0,9299.0,12675.0,3205.0,3321.0,5.0,-12.0,5.0,-2.0,-10.0,6.0,10954.0,10281.0,5344.0,3764.0,-3.0,-1.0,1.0,1.0
2022-05-03 14:44:00.527747-07:00,2203.4,665.2,1288.2,1518.0,975.6,1385.7,1572.1,1763.7,3445.5,3439.5,1613.4,1445.1,1344.0,3439.5,1093.8,1568.3,3444.3,3434.6,752.1,1471.8,1000.5,633.5,1494.0,1726.3,3449.1,3450.4,738.1,936.4,1239.1,1484.7,1303.4,1267.6,8.0,3.0,5.0,9300.0,12677.0,3201.0,3316.0,-13.0,-11.0,3.0,-1.0,-10.0,9.0,10954.0,10281.0,5344.0,3764.0,-6.0,-5.0,2.0,1.0
2022-05-03 14:44:00.529392-07:00,2209.6,666.8,1299.8,1518.0,972.2,1385.7,1572.1,1763.7,3446.7,3443.1,1618.1,1445.1,1354.9,3439.5,1093.8,1568.3,3444.3,3434.6,752.1,1478.3,1000.5,628.6,1494.0,1732.0,3449.1,3450.4,738.1,928.8,1239.1,1487.5,1299.8,1272.1,7.0,1.0,8.0,9302.0,12676.0,3198.0,3316.0,5.0,-8.0,13.0,2.0,-10.0,9.0,10954.0,10281.0,5344.0,3764.0,7.0,4.0,5.0,1.0
2022-05-03 14:44:00.588423-07:00,2209.6,666.8,1299.8,1515.3,972.2,1378.5,1569.3,1756.0,3446.7,3443.1,1618.1,1438.7,1354.9,3449.1,1080.8,1577.7,3449.1,3438.2,754.6,1478.3,1007.3,628.6,1494.0,1732.0,3450.4,3438.2,742.2,928.8,1232.8,1487.5,1299.8,1272.1,12.0,8.0,4.0,9299.0,12679.0,3195.0,3318.0,1.0,0.0,4.0,2.0,-8.0,3.0,10953.0,10283.0,5345.0,3763.0,0.0,-2.0,6.0,1.0
2022-05-03 14:44:00.707782-07:00,2199.3,675.0,1305.2,1521.8,973.9,1378.5,1569.3,1756.0,3444.3,3449.1,1616.2,1441.5,1353.1,3449.1,1080.8,1577.7,3449.1,3438.2,754.6,1481.9,1007.3,625.4,1487.5,1724.4,3450.4,3438.2,742.2,928.8,1234.6,1487.5,1302.5,1264.0,12.0,4.0,4.0,9300.0,12678.0,3195.0,3318.0,2.0,-6.0,4.0,3.0,-9.0,9.0,10953.0,10283.0,5345.0,3763.0,3.0,2.0,1.0,1.0
2022-05-03 14:44:00.708704-07:00,2199.3,675.0,1305.2,1521.8,972.2,1382.1,1563.7,1757.0,3444.3,3449.1,1616.2,1441.5,1358.5,3431.0,1084.2,1573.9,3449.1,3447.9,754.6,1483.8,1007.3,625.4,1487.5,1724.4,3444.3,3450.4,738.9,933.0,1234.6,1487.5,1302.5,1264.0,10.0,6.0,6.0,9300.0,12678.0,3195.0,3318.0,5.0,3.0,-4.0,3.0,-11.0,4.0,10953.0,10283.0,5345.0,3763.0,4.0,3.0,-1.0,1.0
2022-05-03 14:44:00.827654-07:00,2200.4,668.4,1290.9,1522.7,972.2,1382.1,1563.7,1757.0,3449.1,3447.9,1619.9,1452.5,1358.5,3431.0,1084.2,1573.9,3449.1,3447.9,754.6,1483.8,1003.0,624.6,1490.3,1725.3,3444.3,3450.4,738.9,933.0,1237.3,1480.1,1305.2,1262.2,8.0,0.0,0.0,9300.0,12677.0,3196.0,3318.0,-3.0,10.0,-4.0,1.0,-12.0,9.0,10953.0,10283.0,5345.0,3763.0,1.0,1.0,0.0,1.0
2022-05-03 14:44:00.828773-07:00,2200.4,668.4,1290.9,1522.7,974.8,1383.0,1563.7,1762.7,3449.1,3447.9,1619.9,1452.5,1357.6,3444.3,1078.2,1573.0,3443.1,3441.9,748.0,1470.0,1003.0,624.6,1490.3,1725.3,3445.5,3444.3,740.6,933.0,1237.3,1480.1,1305.2,1262.2,9.0,8.0,2.0,9298.0,12679.0,3197.0,3318.0,12.0,1.0,5.0,3.0,-8.0,8.0,10953.0,10283.0,5345.0,3763.0,5.0,2.0,0.0,1.0
2022-05-03 14:44:00.830263-07:00,2222.9,671.7,1294.5,1523.6,974.8,1383.0,1563.7,1762.7,3440.7,3444.3,1608.7,1437.8,1357.6,3444.3,1078.2,1573.0,3443.1,3441.9,748.0,1470.0,1006.5,627.0,1495.8,1733.9,3445.5,3444.3,740.6,933.0,1233.7,1485.6,1307.9,1269.4,10.0,2.0,3.0,9298.0,12679.0,3197.0,3318.0,-6.0,-2.0,1.0,2.0,-8.0,4.0,10953.0,10283.0,5345.0,3763.0,-10.0,1.0,4.0,1.0
2022-05-03 14:44:00.948199-07:00,2222.9,671.7,1294.5,1523.6,973.9,1380.3,1549.7,1773.3,3440.7,3444.3,1608.7,1437.8,1353.1,3446.7,1092.9,1573.9,3446.7,3449.1,746.3,1478.3,1006.5,627.0,1495.8,1733.9,3451.6,3443.1,745.5,925.4,1233.7,1485.6,1307.9,1269.4,9.0,5.0,4.0,9300.0,12678.0,3196.0,3318.0,3.0,-7.0,0.0,0.0,-8.0,13.0,10954.0,10282.0,5344.0,3764.0,-1.0,0.0,-3.0,1.0
2022-05-03 14:44:01.008146-07:00,2209.6,676.6,1293.6,1526.4,973.9,1380.3,1549.7,1761.8,3454.0,3446.7,1613.4,1441.5,1353.1,3446.7,1092.9,1578.6,3444.3,3449.1,746.3,1478.3,1005.6,629.5,1496.7,1719.6,3444.3,3443.1,745.5,925.4,1229.3,1483.8,1305.2,1267.6,13.0,0.0,8.0,9301.0,12678.0,3194.0,3316.0,-1.0,0.0,-1.0,2.0,-9.0,4.0,10954.0,10282.0,5344.0,3764.0,-2.0,-2.0,2.0,1.0
2022-05-03 14:44:01.009488-07:00,2196.3,676.6,1293.6,1526.4,973.9,1374.8,1555.3,1761.8,3450.4,3446.7,1613.4,1441.5,1357.6,3439.5,1090.3,1578.6,3444.3,3440.7,751.3,1471.8,1005.6,629.5,1496.7,1725.3,3444.3,3450.4,746.3,946.6,1229.3,1483.8,1305.2,1260.4,11.0,2.0,5.0,9301.0,12678.0,3194.0,3316.0,5.0,9.0,1.0,0.0,-10.0,6.0,10954.0,10282.0,5344.0,3764.0,4.0,3.0,0.0,1.0
2022-05-03 14:44:01.067551-07:00,2196.3,671.7,1295.4,1519.9,973.9,1374.8,1555.3,1758.9,3450.4,3449.1,1610.5,1443.3,1357.6,3439.5,1090.3,1571.1,3450.4,3440.7,751.3,1471.8,1007.3,627.0,1486.6,1725.3,3451.6,3450.4,746.3,946.6,1215.1,1486.6,1308.8,1260.4,10.0,5.0,2.0,9299.0,12679.0,3195.0,3316.0,12.0,-4.0,-4.0,0.0,-10.0,4.0,10954.0,10282.0,5344.0,3764.0,2.0,1.0,-1.0,1.0
2022-05-03 14:44:01.157713-07:00,2200.4,671.7,1295.4,1519.9,978.2,1373.9,1563.7,1758.9,3447.9,3449.1,1610.5,1443.3,1354.0,3443.1,1083.4,1571.1,3450.4,3449.1,748.8,1480.1,1007.3,627.0,1486.6,1734.9,3451.6,3450.4,738.9,945.8,1215.1,1486.6,1308.8,1267.6,8.0,2.0,3.0,9300.0,12679.0,3195.0,3316.0,-11.0,-1.0,0.0,0.0,-9.0,5.0,10954.0,10281.0,5344.0,3764.0,-8.0,-5.0,4.0,1.0
2022-05-03 14:44:01.158779-07:00,2200.4,666.0,1296.3,1514.3,978.2,1373.9,1563.7,1760.8,3447.9,3449.1,1614.3,1441.5,1354.0,3443.1,1083.4,1567.4,3443.1,3449.1,748.8,1480.1,1003.9,629.5,1494.9,1734.9,3447.9,3450.4,738.9,945.8,1231.0,1482.9,1308.8,1267.6,11.0,10.0,9.0,9299.0,12680.0,3194.0,3314.0,12.0,-5.0,4.0,0.0,-6.0,7.0,10954.0,10281.0,5344.0,3764.0,7.0,5.0,2.0,1.0
2022-05-03 14:44:01.248735-07:00,2208.6,666.8,1296.3,1514.3,974.8,1380.3,1556.2,1760.8,3441.9,3439.5,1614.3,1441.5,1354.9,3445.5,1085.1,1567.4,3443.1,3435.8,748.0,1472.7,1003.9,629.5,1493.0,1729.1,3447.9,3449.1,734.0,927.9,1231.0,1482.9,1310.6,1260.4,8.0,0.0,3.0,9297.0,12680.0,3197.0,3318.0,-1.0,16.0,-3.0,3.0,-11.0,8.0,10954.0,10281.0,5344.0,3764.0,6.0,7.0,5.0,1.0
2022-05-03 14:44:01.277879-07:00,2208.6,666.8,1290.0,1510.6,974.8,1380.3,1547.8,1760.8,3441.9,3439.5,1608.7,1438.7,1354.9,3445.5,1081.6,1568.3,3443.1,3449.1,748.0,1472.7,1007.3,620.5,1493.0,1729.1,3449.1,3443.1,734.0,927.9,1231.9,1479.2,1310.6,1260.4,12.0,5.0,3.0,9297.0,12680.0,3197.0,3318.0,3.0,0.0,3.0,3.0,-8.0,7.0,10954.0,10282.0,5344.0,3764.0,1.0,1.0,2.0,1.0
2022-05-03 14:44:01.279615-07:00,2205.5,670.1,1290.0,1510.6,973.9,1374.8,1547.8,1760.8,3445.5,3449.1,1608.7,1438.7,1347.6,3445.5,1081.6,1568.3,3443.1,3449.1,752.1,1478.3,1007.3,620.5,1491.2,1721.5,3449.1,3443.1,733.2,927.9,1231.9,1479.2,1305.2,1264.9,13.0,3.0,6.0,9297.0,12680.0,3197.0,3318.0,2.0,-3.0,-1.0,4.0,-10.0,8.0,10954.0,10282.0,5344.0,3764.0,2.0,4.0,1.0,1.0
2022-05-03 14:44:01.398200-07:00,2205.5,670.1,1283.7,1514.3,973.9,1374.8,1554.3,1756.0,3445.5,3449.1,1621.8,1433.2,1347.6,3445.5,1085.1,1574.9,3431.0,3440.7,752.1,1478.3,1009.0,632.7,1491.2,1721.5,3447.9,3438.2,733.2,927.9,1231.0,1481.9,1305.2,1264.9,7.0,5.0,2.0,9297.0,12680.0,3197.0,3318.0,4.0,2.0,-1.0,5.0,-7.0,8.0,10954.0,10282.0,5344.0,3764.0,6.0,5.0,-4.0,1.0
2022-05-03 14:44:01.457671-07:00,2198.3,666.8,1283.7,1514.3,970.5,1384.8,1554.3,1756.0,3438.2,3438.2,1621.8,1433.2,1351.2,3451.6,1085.1,1574.9,3431.0,3440.7,754.6,1472.7,1009.0,632.7,1490.3,1720.5,3447.9,3438.2,743.0,931.3,1231.0,1481.9,1304.3,1269.4,8.0,2.0,1.0,9297.0,12680.0,3197.0,3318.0,-7.0,7.0,-1.0,0.0,-7.0,6.0,10954.0,10282.0,5344.0,3764.0,0.0,5.0,2.0,1.0
2022-05-03 14:44:01.458508-07:00,2198.3,666.8,1287.3,1516.2,970.5,1384.8,1553.4,1759.8,3438.2,3438.2,1610.5,1427.7,1351.2,3451.6,1078.2,1569.3,3440.7,3445.5,754.6,1472.7,1003.9,625.4,1490.3,1720.5,3441.9,3449.1,743.0,931.3,1236.4,1486.6,1304.3,1269.4,8.0,9.0,4.0,9297.0,12680.0,3197.0,3318.0,0.0,-1.0,-2.0,2.0,-7.0,9.0,10954.0,10282.0,5344.0,3764.0,-4.0,5.0,1.0,1.0
2022-05-03 14:44:01.518414-07:00,2201.4,670.9,1293.6,1516.2,970.5,1377.5,1553.4,1759.8,3443.1,3443.1,1604.0,1427.7,1352.1,3440.7,1078.2,1569.3,3440.7,3445.5,750.5,1470.0,1003.9,625.4,1494.0,1721.5,3441.9,3449.1,736.5,927.9,1236.4,1481.0,1301.6,1269.4,11.0,2.0,6.0,9297.0,12680.0,3197.0,3317.0,-4.0,-4.0,6.0,5.0,-8.0,3.0,10954.0,10282.0,5344.0,3764.0,-7.0,-1.0,4.0,1.0
2022-05-03 14:44:01.519698-07:00,2201.4,670.9,1293.6,1510.6,970.5,1384.8,1544.1,1753.1,3443.1,3443.1,1604.0,1441.5,1352.1,3449.1,1085.1,1573.9,3443.1,3435.8,750.5,1470.0,1004.8,625.4,1494.0,1721.5,3451.6,3446.7,735.6,927.9,1230.2,1481.0,1301.6,1269.4,9.0,7.0,5.0,9297.0,12680.0,3197.0,3317.0,-3.0,0.0,-1.0,3.0,-9.0,9.0,10954.0,10282.0,5344.0,3764.0,8.0,4.0,-3.0,1.0
2022-05-03 14:44:01.578175-07:00,2194.2,659.5,1289.1,1510.6,973.1,1384.8,1544.1,1753.1,3446.7,3443.1,1609.6,1441.5,1354.0,3449.1,1085.1,1573.9,3443.1,3435.8,750.5,1473.6,1004.8,635.1,1493.0,1726.3,3451.6,3446.7,735.6,927.9,1230.2,1485.6,1310.6,1269.4,12.0,3.0,7.0,9297.0,12680.0,3198.0,3317.0,-3.0,9.0,-7.0,2.0,-9.0,9.0,10954.0,10282.0,5344.0,3764.0,3.0,7.0,-1.0,1.0
2022-05-03 14:44:01.638382-07:00,2194.2,659.5,1289.1,1519.9,973.1,1375.7,1553.4,1757.9,3446.7,3443.1,1609.6,1438.7,1354.0,3449.1,1090.3,1575.8,3431.0,3449.1,749.6,1473.6,1004.8,635.1,1493.0,1726.3,3441.9,3449.1,732.3,927.9,1231.0,1485.6,1310.6,1269.4,10.0,6.0,3.0,9297.0,12679.0,3198.0,3318.0,5.0,7.0,-3.0,3.0,-8.0,6.0,10954.0,10282.0,5344.0,3764.0,-2.0,1.0,1.0,1.0
2022-05-03 14:44:01.668119-07:00,2197.3,672.5,1290.0,1519.9,973.9,1375.7,1553.4,1757.9,3440.7,3438.2,1611.5,1438.7,1355.8,3449.1,1090.3,1575.8,3431.0,3449.1,749.6,1478.3,1004.8,627.0,1485.6,1727.2,3441.9,3449.1,732.3,927.9,1231.0,1495.8,1302.5,1267.6,11.0,1.0,2.0,9297.0,12679.0,3198.0,3318.0,4.0,-8.0,5.0,0.0,-9.0,5.0,10954.0,10282.0,5344.0,3764.0,-6.0,-3.0,2.0,1.0
2022-05-03 14:44:01.757483-07:00,2197.3,672.5,1290.0,1517.1,974.8,1379.4,1541.3,1756.0,3440.7,3438.2,1611.5,1443.3,1351.2,3447.9,1078.2,1563.7,3441.9,3439.5,752.1,1473.6,1009.9,627.0,1485.6,1727.2,3444.3,3449.1,738.9,934.7,1233.7,1495.8,1302.5,1267.6,7.0,0.0,5.0,9297.0,12679.0,3198.0,3318.0,-1.0,-6.0,-7.0,1.0,-10.0,10.0,10954.0,10282.0,5344.0,3764.0,5.0,1.0,0.0,1.0
2022-05-03 14:44:01.817929-07:00,2199.3,667.6,1289.1,1519.0,974.8,1379.4,1541.3,1756.0,3447.9,3446.7,1611.5,1441.5,1351.2,3447.9,1078.2,1563.7,3441.9,3439.5,752.1,1473.6,1005.6,625.4,1494.9,1727.2,3444.3,3449.1,738.9,934.7,1225.7,1484.7,1322.3,1264.0,10.0,4.0,7.0,9296.0,12680.0,3198.0,3318.0,11.0,7.0,1.0,0.0,-7.0,5.0,10953.0,10283.0,5345.0,3763.0,9.0,6.0,2.0,1.0
2022-05-03 14:44:01.877746-07:00,2199.3,667.6,1289.1,1519.0,967.9,1371.2,1551.5,1752.1,3447.9,3446.7,1611.5,1441.5,1358.5,3445.5,1091.2,1569.3,3444.3,3439.5,751.3,1470.9,1005.6,625.4,1494.9,1727.2,3443.1,3443.1,733.2,932.2,1225.7,1484.7,1322.3,1264.0,10.0,7.0,3.0,9288.0,12685.0,3200.0,3321.0,31.0,4.0,13.0,0.0,-6.0,6.0,10951.0,10285.0,5346.0,3763.0,6.0,5.0,6.0,1.0
2022-05-03 14:44:01.879180-07:00,2196.3,668.4,1294.5,1506.9,967.9,1371.2,1551.5,1752.1,3449.1,3440.7,1600.2,1431.4,1358.5,3445.5,1091.2,1569.3,3444.3,3439.5,751.3,1470.9,1006.5,629.5,1492.1,1733.9,3443.1,3443.1,733.2,932.2,1231.9,1484.7,1307.9,1264.9,11.0,8.0,4.0,9287.0,12686.0,3197.0,3322.0,-2.0,0.0,3.0,2.0,-8.0,6.0,10951.0,10285.0,5346.0,3763.0,-8.0,-3.0,2.0,1.0
2022-05-03 14:44:01.937988-07:00,2196.3,668.4,1294.5,1506.9,974.8,1370.3,1545.0,1757.9,3449.1,3440.7,1600.2,1431.4,1356.7,3444.3,1079.0,1572.1,3438.2,3439.5,748.0,1471.8,1006.5,629.5,1492.1,1733.9,3450.4,3440.7,734.8,932.2,1231.9,1484.7,1307.9,1264.9,12.0,3.0,9.0,9287.0,12686.0,3197.0,3322.0,-7.0,-4.0,-3.0,2.0,-11.0,9.0,10951.0,10285.0,5346.0,3763.0,2.0,5.0,1.0,1.0
2022-05-03 14:44:02.057472-07:00,2196.3,666.8,1282.8,1514.3,974.8,1370.3,1545.0,1757.9,3447.9,3446.7,1618.1,1445.1,1356.7,3444.3,1079.0,1572.1,3438.2,3439.5,748.0,1471.8,1007.3,629.5,1490.3,1723.4,3450.4,3440.7,734.8,932.2,1232.8,1488.4,1307.0,1263.1,11.0,7.0,5.0,9287.0,12686.0,3197.0,3322.0,3.0,-4.0,-4.0,3.0,-9.0,8.0,10950.0,10285.0,5346.0,3763.0,7.0,7.0,-1.0,1.0
2022-05-03 14:44:02.178433-07:00,2192.2,666.8,1282.8,1514.3,979.0,1380.3,1547.8,1754.1,3440.7,3446.7,1618.1,1445.1,1354.0,3441.9,1084.2,1578.6,3441.9,3440.7,758.7,1474.6,1007.3,629.5,1490.3,1725.3,3444.3,3452.8,743.0,931.3,1232.8,1488.4,1307.0,1261.3,11.0,0.0,1.0,9288.0,12685.0,3197.0,3322.0,-2.0,-4.0,1.0,4.0,-9.0,8.0,10950.0,10285.0,5346.0,3763.0,-4.0,1.0,1.0,1.0
2022-05-03 14:44:02.238134-07:00,2192.2,674.2,1288.2,1507.8,979.0,1380.3,1547.8,1758.9,3440.7,3443.1,1609.6,1432.3,1354.0,3441.9,1084.2,1575.8,3438.2,3440.7,758.7,1474.6,1002.2,629.5,1488.4,1725.3,3441.9,3452.8,743.0,931.3,1233.7,1483.8,1307.0,1261.3,8.0,1.0,6.0,9288.0,12685.0,3197.0,3322.0,-7.0,10.0,11.0,1.0,-8.0,5.0,10950.0,10285.0,5346.0,3763.0,-7.0,-3.0,1.0,1.0
2022-05-03 14:44:02.268148-07:00,2201.4,674.2,1288.2,1507.8,980.7,1378.5,1544.1,1758.9,3435.8,3443.1,1609.6,1432.3,1354.0,3452.8,1085.1,1575.8,3438.2,3450.4,750.5,1472.7,1002.2,629.5,1488.4,1724.4,3441.9,3449.1,741.4,911.8,1233.7,1483.8,1307.0,1261.3,5.0,2.0,-16.0,9294.0,12680.0,3193.0,3329.0,-40.0,9.0,8.0,1.0,-23.0,11.0,10953.0,10282.0,5345.0,3764.0,-8.0,2.0,5.0,1.0
2022-05-03 14:44:02.297767-07:00,2201.4,663.6,1293.6,1514.3,980.7,1378.5,1544.1,1747.3,3435.8,3447.9,1604.0,1440.5,1354.0,3452.8,1085.1,1573.9,3439.5,3450.4,750.5,1472.7,1002.2,627.0,1486.6,1724.4,3443.1,3449.1,741.4,911.8,1231.0,1491.2,1307.0,1261.3,6.0,20.0,11.0,9305.0,12667.0,3195.0,3344.0,-12.0,51.0,-16.0,4.0,-6.0,5.0,10955.0,10280.0,5347.0,3764.0,5.0,7.0,-14.0,1.0
2022-05-03 14:44:02.298954-07:00,2191.2,663.6,1293.6,1514.3,978.2,1383.0,1540.3,1747.3,3446.7,3447.9,1604.0,1440.5,1359.4,3444.3,1110.4,1573.9,3439.5,3439.5,739.7,1473.6,1002.2,627.0,1486.6,1726.3,3443.1,3447.9,731.5,938.1,1231.0,1491.2,1307.0,1264.9,10.0,4.0,-2.0,9312.0,12655.0,3211.0,3356.0,-62.0,37.0,-34.0,1.0,-6.0,13.0,10956.0,10276.0,5353.0,3762.0,-22.0,5.0,-15.0,1.0
2022-05-03 14:44:02.387809-07:00,2191.2,666.8,1310.6,1527.3,978.2,1383.0,1533.8,1755.0,3446.7,3445.5,1638.8,1437.8,1359.4,3444.3,1163.0,1588.0,3439.5,3441.9,739.7,1473.6,1006.5,633.5,1495.8,1726.3,3439.5,3447.9,731.5,938.1,1229.3,1500.4,1339.5,1264.9,-1.0,0.0,9.0,9334.0,12634.0,3219.0,3367.0,-70.0,2.0,21.0,2.0,-8.0,10.0,10963.0,10268.0,5353.0,3762.0,-19.0,-4.0,-8.0,1.0
2022-05-03 14:44:02.389539-07:00,2200.4,666.0,1310.6,1527.3,982.5,1381.2,1533.8,1755.0,3433.4,3444.3,1638.8,1437.8,1357.6,3443.1,1163.0,1588.0,3439.5,3441.9,752.9,1476.4,1006.5,633.5,1507.8,1714.8,3439.5,3447.9,738.9,939.0,1229.3,1500.4,1368.5,1266.7,-5.0,0.0,-1.0,9353.0,12624.0,3192.0,3377.0,-56.0,-91.0,91.0,0.0,-6.0,15.0,10963.0,10268.0,5353.0,3762.0,13.0,5.0,-3.0,1.0
2022-05-03 14:44:02.390318-07:00,2200.4,666.0,1335.9,1526.4,982.5,1381.2,1534.8,1753.1,3433.4,3444.3,1671.0,1445.1,1357.6,3443.1,1216.0,1593.6,3450.4,3434.6,752.9,1476.4,1003.9,628.6,1507.8,1714.8,3447.9,3446.7,738.9,939.0,1232.8,1494.0,1368.5,1266.7,15.0,1.0,-16.0,9378.0,12629.0,3117.0,3359.0,-105.0,-183.0,106.0,-4.0,-5.0,-7.0,10966.0,10267.0,5351.0,3762.0,-34.0,-27.0,-1.0,1.0
2022-05-03 14:44:02.507554-07:00,2190.1,670.9,1335.9,1526.4,991.0,1388.5,1534.8,1753.1,3437.0,3446.7,1671.0,1445.1,1355.8,3438.2,1216.0,1593.6,3450.4,3434.6,748.8,1475.5,1003.9,628.6,1524.5,1719.6,3447.9,3446.7,742.2,942.4,1232.8,1494.0,1435.0,1258.7,0.0,15.0,5.0,9419.0,12626.0,3026.0,3335.0,-149.0,-208.0,116.0,7.0,-8.0,17.0,10983.0,10256.0,5336.0,3760.0,-49.0,-29.0,-6.0,1.0
2022-05-03 14:44:02.508633-07:00,2190.1,670.9,1393.0,1537.6,991.0,1388.5,1545.0,1757.9,3437.0,3446.7,1725.3,1451.6,1355.8,3438.2,1302.5,1628.4,3433.4,3444.3,748.8,1475.5,1009.9,627.0,1524.5,1719.6,3446.7,3451.6,742.2,942.4,1234.6,1533.8,1435.0,1258.7,24.0,-3.0,9.0,9475.0,12620.0,2917.0,3302.0,-132.0,-189.0,102.0,-1.0,-13.0,6.0,11003.0,10241.0,5325.0,3760.0,-79.0,-31.0,-4.0,1.0
2022-05-03 14:44:02.567792-07:00,2206.5,667.6,1393.0,1537.6,1024.5,1400.3,1545.0,1757.9,3447.9,3447.9,1725.3,1451.6,1361.2,3445.5,1302.5,1628.4,3433.4,3444.3,748.8,1478.3,1009.9,627.0,1550.6,1733.0,3446.7,3451.6,741.4,954.3,1234.6,1533.8,1524.5,1268.5,6.0,30.0,34.0,9516.0,12608.0,2844.0,3293.0,-128.0,-62.0,46.0,2.0,-13.0,22.0,11029.0,10221.0,5308.0,3763.0,-76.0,-15.0,-5.0,1.0
2022-05-03 14:44:02.568935-07:00,2206.5,667.6,1489.3,1555.3,1024.5,1414.0,1536.6,1753.1,3447.9,3447.9,1832.3,1476.4,1361.2,3451.6,1415.8,1682.4,3451.6,3440.7,754.6,1478.3,1000.5,631.9,1550.6,1733.0,3433.4,3443.1,738.1,954.3,1227.5,1581.4,1524.5,1268.5,18.0,0.0,18.0,9558.0,12591.0,2794.0,3278.0,-101.0,-80.0,47.0,2.0,-6.0,3.0,11053.0,10195.0,5302.0,3772.0,-79.0,-4.0,-13.0,1.0
2022-05-03 14:44:02.658473-07:00,2204.5,661.1,1644.5,1555.3,1056.5,1414.0,1536.6,1753.1,3440.7,3438.2,2024.4,1476.4,1375.7,3451.6,1415.8,1682.4,3451.6,3440.7,754.6,1478.3,1000.5,627.0,1580.5,1757.0,3433.4,3443.1,738.1,959.4,1227.5,1693.8,1676.7,1264.9,-6.0,2.0,-3.0,9596.0,12569.0,2755.0,3281.0,-127.0,-102.0,63.0,3.0,-9.0,15.0,11076.0,10169.0,5296.0,3782.0,-76.0,4.0,-12.0,1.0
2022-05-03 14:44:02.717816-07:00,2204.5,661.1,1644.5,1597.4,1056.5,1436.0,1541.3,1736.8,3440.7,3438.2,2024.4,1507.8,1375.7,3445.5,1530.1,1757.0,3449.1,3438.2,757.1,1478.3,1008.2,627.0,1580.5,1757.0,3447.9,3451.6,745.5,959.4,1242.6,1693.8,1676.7,1264.9,16.0,2.0,3.0,9631.0,12566.0,2679.0,3257.0,-110.0,-148.0,81.0,-3.0,-5.0,-3.0,11083.0,10161.0,5301.0,3777.0,3.0,-14.0,-27.0,1.0
2022-05-03 14:44:02.719069-07:00,2225.0,671.7,1799.4,1597.4,1091.2,1436.0,1541.3,1736.8,3441.9,3440.7,2166.7,1507.8,1397.6,3445.5,1530.1,1757.0,3449.1,3438.2,757.1,1473.6,1008.2,627.0,1604.9,1798.4,3447.9,3451.6,745.5,985.0,1242.6,1813.9,1840.1,1272.1,8.0,-4.0,-10.0,9688.0,12537.0,2608.0,3256.0,-216.0,-107.0,93.0,10.0,-16.0,19.0,11103.0,10148.0,5290.0,3766.0,-74.0,-53.0,-23.0,1.0
2022-05-03 14:44:02.807498-07:00,2225.0,671.7,1799.4,1669.1,1091.2,1456.2,1546.9,1750.2,3441.9,3440.7,2166.7,1545.0,1397.6,3443.1,1616.2,1861.5,3440.7,3443.1,757.1,1473.6,1007.3,627.0,1604.9,1798.4,3449.1,3447.9,765.3,985.0,1239.1,1813.9,1840.1,1272.1,9.0,1.0,0.0,9751.0,12514.0,2515.0,3230.0,-153.0,-208.0,97.0,-5.0,-1.0,2.0,11129.0,10131.0,5277.0,3755.0,-40.0,-43.0,-27.0,1.0
2022-05-03 14:44:02.837878-07:00,2254.8,666.0,1882.0,1714.8,1111.2,1456.2,1546.9,1750.2,3450.4,3437.0,2250.7,1578.6,1425.0,3443.1,1616.2,1861.5,3440.7,3443.1,757.1,1478.3,1008.2,628.6,1625.6,1818.7,3449.1,3447.9,765.3,986.7,1237.3,1874.2,1906.6,1267.6,7.0,4.0,9.0,9816.0,12487.0,2421.0,3207.0,-176.0,-203.0,69.0,6.0,-17.0,9.0,11150.0,10120.0,5265.0,3740.0,-47.0,-45.0,-26.0,1.0
2022-05-03 14:44:02.897831-07:00,2254.8,666.0,1882.0,1714.8,1127.0,1471.8,1540.3,1753.1,3450.4,3437.0,2250.7,1578.6,1432.3,3441.9,1671.0,1935.1,3438.2,3435.8,746.3,1475.5,1008.2,628.6,1625.6,1818.7,3443.1,3443.1,778.6,990.2,1237.3,1874.2,1906.6,1267.6,-2.0,13.0,19.0,9877.0,12467.0,2323.0,3173.0,-181.0,-224.0,126.0,0.0,-16.0,8.0,11164.0,10114.0,5258.0,3723.0,-12.0,-44.0,-25.0,1.0
2022-05-03 14:44:02.928258-07:00,2351.4,673.3,1936.1,1766.6,1127.0,1471.8,1540.3,1753.1,3446.7,3447.9,2330.6,1612.4,1432.3,3441.9,1671.0,1935.1,3438.2,3435.8,746.3,1475.5,1007.3,629.5,1639.8,1849.8,3443.1,3443.1,778.6,990.2,1239.9,1919.3,1943.0,1266.7,-5.0,5.0,9.0,9946.0,12450.0,2192.0,3114.0,-176.0,-333.0,113.0,-1.0,-10.0,26.0,11173.0,10113.0,5254.0,3704.0,-10.0,-33.0,-26.0,1.0
2022-05-03 14:44:02.988487-07:00,2351.4,673.3,1936.1,1766.6,1142.7,1511.5,1542.2,1753.1,3446.7,3447.9,2330.6,1612.4,1457.1,3445.5,1710.0,1991.5,3449.1,3447.9,754.6,1478.3,1007.3,629.5,1639.8,1849.8,3458.9,3443.1,794.4,1000.5,1239.9,1919.3,1943.0,1266.7,46.0,51.0,47.0,10008.0,12448.0,2073.0,3004.0,-55.0,-342.0,-107.0,3.0,1.0,-4.0,11175.0,10113.0,5267.0,3682.0,47.0,1.0,-97.0,1.0
2022-05-03 14:44:03.018074-07:00,2665.7,675.8,1951.9,1763.7,1142.7,1511.5,1542.2,1753.1,3454.0,3443.1,2400.8,1658.7,1457.1,3445.5,1710.0,1991.5,3449.1,3447.9,754.6,1478.3,1025.4,633.5,1663.4,1911.5,3458.9,3443.1,794.4,1000.5,1242.6,1932.1,1960.8,1269.4,26.0,-20.0,45.0,10017.0,12461.0,2072.0,2919.0,52.0,-43.0,-61.0,12.0,-12.0,21.0,11151.0,10127.0,5313.0,3649.0,144.0,59.0,-75.0,1.0
2022-05-03 14:44:03.107432-07:00,2665.7,675.8,1951.9,1763.7,1144.5,1534.8,1631.3,1757.0,3454.0,3443.1,2400.8,1658.7,1470.9,3439.5,1741.6,2024.4,3449.1,3444.3,778.6,1470.0,1025.4,633.5,1663.4,1911.5,3451.6,3447.9,812.7,990.2,1242.6,1932.1,1960.8,1269.4,22.0,-48.0,30.0,9994.0,12473.0,2081.0,2942.0,54.0,116.0,92.0,-4.0,-44.0,29.0,11103.0,10161.0,5357.0,3634.0,142.0,69.0,-4.0,1.0
2022-05-03 14:44:03.137939-07:00,2733.7,682.3,1966.7,1808.1,1144.5,1534.8,1631.3,1770.4,3451.6,3446.7,2435.6,1707.2,1470.9,3439.5,1741.6,2047.4,3451.6,3444.3,778.6,1470.0,1028.8,641.6,1675.7,1940.0,3449.1,3447.9,812.7,990.2,1242.6,1943.0,1970.7,1268.5,8.0,24.0,-16.0,9946.0,12490.0,2110.0,3012.0,152.0,208.0,53.0,3.0,6.0,31.0,11040.0,10208.0,5402.0,3630.0,295.0,100.0,-15.0,1.0
2022-05-03 14:44:03.168184-07:00,2770.2,682.3,1966.7,1808.1,1176.2,1538.5,1771.4,1770.4,3449.1,3446.7,2435.6,1707.2,1466.3,3454.0,1710.0,2047.4,3451.6,3446.7,794.4,1499.5,1028.8,641.6,1675.7,2026.4,3449.1,3445.5,822.7,988.5,1242.6,1943.0,1970.7,1256.9,4.0,10.0,-34.0,9864.0,12538.0,2153.0,3049.0,262.0,51.0,-12.0,0.0,-7.0,7.0,10924.0,10303.0,5483.0,3589.0,417.0,108.0,-72.0,1.0
2022-05-03 14:44:03.257997-07:00,2770.2,684.0,1957.8,1830.4,1176.2,1538.5,1771.4,1779.1,3449.1,3447.9,2436.7,1702.4,1466.3,3454.0,1710.0,2040.4,3443.1,3446.7,794.4,1499.5,1042.6,645.7,1676.7,2026.4,3447.9,3445.5,822.7,988.5,1306.1,1918.3,1929.2,1256.9,11.0,6.0,-31.0,9805.0,12581.0,2189.0,3036.0,41.0,28.0,-42.0,0.0,-3.0,-7.0,10840.0,10368.0,5555.0,3545.0,161.0,44.0,-60.0,1.0
2022-05-03 14:44:03.287342-07:00,2660.2,684.0,1957.8,1830.4,1196.5,1542.2,1806.1,1779.1,3449.1,3447.9,2436.7,1702.4,1483.8,3449.1,1691.0,2040.4,3443.1,3439.5,809.4,1497.7,1042.6,645.7,1676.7,2083.6,3447.9,3449.1,835.2,979.9,1306.1,1918.3,1929.2,1264.9,-7.0,-40.0,-13.0,9842.0,12552.0,2192.0,3034.0,-134.0,6.0,-41.0,-3.0,-36.0,-6.0,10844.0,10365.0,5560.0,3533.0,-30.0,-36.0,-10.0,1.0
2022-05-03 14:44:03.377856-07:00,2660.2,679.1,1946.9,1842.0,1196.5,1542.2,1806.1,1783.9,3449.1,3447.9,2437.7,1716.7,1483.8,3449.1,1691.0,2022.4,3444.3,3439.5,809.4,1497.7,1043.5,645.7,1671.0,2083.6,3449.1,3449.1,835.2,979.9,1322.3,1900.7,1898.7,1264.9,3.0,11.0,3.0,9858.0,12547.0,2172.0,3019.0,-9.0,-88.0,11.0,-1.0,-4.0,17.0,10845.0,10375.0,5548.0,3520.0,38.0,-42.0,3.0,1.0
2022-05-03 14:44:03.467773-07:00,2553.0,675.8,1946.9,1842.0,1204.4,1542.2,1782.9,1783.9,3438.2,3446.7,2437.7,1716.7,1481.9,3438.2,1662.5,2022.4,3444.3,3444.3,807.7,1508.8,1043.5,645.7,1662.5,2069.5,3449.1,3446.7,826.0,981.6,1322.3,1900.7,1897.7,1261.3,21.0,8.0,28.0,9868.0,12550.0,2155.0,2987.0,-31.0,-42.0,-28.0,2.0,-6.0,5.0,10846.0,10382.0,5540.0,3509.0,-9.0,-23.0,-5.0,1.0
2022-05-03 14:44:03.468833-07:00,2553.0,675.8,1930.2,1833.3,1204.4,1542.2,1776.2,1789.7,3438.2,3446.7,2405.0,1714.8,1481.9,3438.2,1655.8,2024.4,3439.5,3445.5,807.7,1508.8,1048.7,641.6,1662.5,2069.5,3443.1,3441.9,826.0,981.6,1325.0,1872.3,1897.7,1261.3,20.0,-2.0,20.0,9884.0,12546.0,2126.0,2970.0,-5.0,-103.0,26.0,3.0,-18.0,15.0,10855.0,10378.0,5533.0,3507.0,17.0,-11.0,-2.0,1.0
2022-05-03 14:44:03.470042-07:00,2498.3,670.1,1930.2,1833.3,1200.9,1541.3,1776.2,1789.7,3438.2,3445.5,2405.0,1714.8,1477.3,3454.0,1655.8,2024.4,3439.5,3445.5,814.4,1517.1,1048.7,641.6,1657.7,2071.5,3443.1,3441.9,826.9,985.9,1325.0,1872.3,1887.9,1251.5,11.0,6.0,15.0,9882.0,12550.0,2115.0,2968.0,26.0,21.0,-9.0,1.0,-10.0,12.0,10845.0,10386.0,5538.0,3505.0,30.0,11.0,7.0,1.0
2022-05-03 14:44:03.528393-07:00,2498.3,670.1,1912.4,1833.3,1200.9,1541.3,1768.5,1774.3,3438.2,3445.5,2401.8,1711.0,1477.3,3454.0,1641.6,2023.4,3449.1,3449.1,814.4,1517.1,1053.0,640.8,1657.7,2071.5,3449.1,3446.7,826.9,985.9,1316.0,1873.2,1887.9,1251.5,15.0,13.0,8.0,9881.0,12550.0,2116.0,2973.0,-2.0,-1.0,-9.0,-2.0,-2.0,5.0,10842.0,10387.0,5541.0,3507.0,8.0,6.0,-6.0,1.0
2022-05-03 14:44:03.588078-07:00,2458.9,679.1,1912.4,1833.3,1208.9,1545.0,1768.5,1774.3,3446.7,3441.9,2401.8,1711.0,1489.3,3444.3,1641.6,2023.4,3449.1,3449.1,815.2,1516.2,1053.0,640.8,1653.9,2057.4,3449.1,3446.7,824.4,980.7,1316.0,1873.2,1887.9,1268.5,10.0,0.0,0.0,9883.0,12545.0,2128.0,2973.0,-2.0,14.0,-34.0,1.0,-6.0,12.0,10843.0,10383.0,5547.0,3505.0,3.0,17.0,-19.0,1.0
2022-05-03 14:44:03.618287-07:00,2458.9,679.1,1906.6,1821.6,1208.9,1545.0,1760.8,1787.8,3446.7,3441.9,2392.4,1712.9,1489.3,3444.3,1633.1,1999.5,3443.1,3443.1,815.2,1516.2,1049.6,640.0,1653.9,2057.4,3450.4,3450.4,824.4,980.7,1308.8,1862.5,1887.9,1268.5,16.0,-9.0,7.0,9885.0,12546.0,2128.0,2966.0,-3.0,-19.0,-12.0,1.0,-15.0,-4.0,10844.0,10380.0,5552.0,3503.0,-3.0,2.0,-10.0,1.0
2022-05-03 14:44:03.677718-07:00,2428.2,670.9,1887.9,1821.6,1194.7,1536.6,1760.8,1787.8,3447.9,3440.7,2379.7,1712.9,1477.3,3446.7,1633.1,1999.5,3443.1,3443.1,819.4,1524.5,1049.6,641.6,1648.3,2045.4,3450.4,3450.4,823.5,971.3,1308.8,1848.9,1868.4,1263.1,9.0,6.0,2.0,9885.0,12545.0,2127.0,2968.0,-3.0,5.0,-4.0,-3.0,-12.0,7.0,10845.0,10379.0,5552.0,3503.0,0.0,-5.0,5.0,1.0
2022-05-03 14:44:03.797809-07:00,2428.2,670.9,1887.9,1820.7,1194.7,1530.1,1757.9,1772.3,3447.9,3440.7,2379.7,1706.2,1477.3,3440.7,1631.3,2007.4,3437.0,3437.0,820.2,1524.5,1056.5,641.6,1648.3,2045.4,3441.9,3449.1,826.0,971.3,1314.2,1848.9,1868.4,1263.1,12.0,8.0,7.0,9887.0,12546.0,2123.0,2964.0,3.0,-26.0,-3.0,0.0,-5.0,9.0,10846.0,10378.0,5552.0,3503.0,3.0,-3.0,-4.0,1.0
2022-05-03 14:44:03.800068-07:00,2402.9,676.6,1890.9,1820.7,1204.4,1530.1,1757.9,1772.3,3451.6,3444.3,2378.7,1706.2,1468.1,3440.7,1631.3,2007.4,3437.0,3437.0,820.2,1515.3,1056.5,638.4,1649.2,2056.4,3441.9,3449.1,826.0,970.5,1314.2,1857.6,1879.1,1263.1,8.0,-3.0,9.0,9891.0,12544.0,2117.0,2961.0,-19.0,-9.0,3.0,0.0,-16.0,13.0,10847.0,10377.0,5552.0,3503.0,-8.0,0.0,0.0,1.0
2022-05-03 14:44:03.917405-07:00,2402.9,676.6,1890.9,1818.7,1204.4,1533.8,1744.5,1780.1,3451.6,3444.3,2378.7,1705.3,1468.1,3449.1,1621.8,1999.5,3434.6,3446.7,817.7,1515.3,1054.8,638.4,1649.2,2056.4,3452.8,3441.9,819.4,970.5,1308.8,1857.6,1879.1,1263.1,7.0,1.0,2.0,9895.0,12543.0,2107.0,2962.0,-7.0,-18.0,23.0,0.0,-8.0,9.0,10849.0,10375.0,5550.0,3505.0,3.0,0.0,12.0,1.0
2022-05-03 14:44:03.918325-07:00,2400.8,675.8,1880.1,1818.7,1197.4,1533.8,1744.5,1780.1,3451.6,3451.6,2369.3,1705.3,1470.0,3449.1,1621.8,1999.5,3434.6,3446.7,817.7,1514.3,1054.8,644.0,1640.7,2050.4,3452.8,3441.9,819.4,966.2,1308.8,1849.8,1868.4,1262.2,12.0,9.0,7.0,9896.0,12545.0,2095.0,2957.0,0.0,-33.0,5.0,2.0,-11.0,6.0,10850.0,10375.0,5550.0,3505.0,2.0,0.0,-2.0,1.0
2022-05-03 14:44:03.920270-07:00,2400.8,675.8,1880.1,1832.3,1200.0,1532.0,1746.4,1778.1,3451.6,3451.6,2369.3,1703.3,1481.0,3449.1,1619.0,1990.5,3443.1,3440.7,818.5,1517.1,1056.5,644.0,1640.7,2050.4,3450.4,3444.3,822.7,967.1,1313.3,1849.8,1868.4,1262.2,10.0,-4.0,8.0,9896.0,12547.0,2091.0,2952.0,13.0,-14.0,-1.0,2.0,-13.0,14.0,10850.0,10374.0,5550.0,3506.0,7.0,10.0,0.0,1.0
2022-05-03 14:44:03.978374-07:00,2361.9,666.0,1877.2,1817.8,1200.0,1532.0,1746.4,1778.1,3449.1,3445.5,2367.2,1700.5,1481.0,3449.1,1619.0,1990.5,3443.1,3440.7,818.5,1517.1,1057.3,640.8,1647.3,2055.4,3450.4,3444.3,822.7,967.1,1304.3,1834.3,1865.4,1262.2,8.0,4.0,9.0,9895.0,12550.0,2081.0,2947.0,4.0,-19.0,15.0,-4.0,-2.0,8.0,10850.0,10372.0,5552.0,3508.0,2.0,3.0,8.0,1.0
2022-05-03 14:44:04.037385-07:00,2361.9,666.0,1877.2,1817.8,1194.7,1537.6,1746.4,1774.3,3449.1,3445.5,2367.2,1700.5,1470.0,3441.9,1617.1,1987.5,3443.1,3445.5,825.2,1508.8,1057.3,640.8,1647.3,2055.4,3449.1,3454.0,821.0,967.9,1304.3,1834.3,1865.4,1262.2,7.0,0.0,4.0,9895.0,12550.0,2077.0,2952.0,-2.0,-4.0,7.0,2.0,-6.0,11.0,10851.0,10372.0,5551.0,3509.0,-2.0,2.0,1.0,1.0
2022-05-03 14:44:04.128309-07:00,2341.0,666.8,1877.2,1799.4,1194.7,1537.6,1746.4,1774.3,3447.9,3441.9,2352.5,1699.5,1470.0,3441.9,1617.1,1987.5,3443.1,3445.5,825.2,1508.8,1053.9,640.8,1642.6,2045.4,3449.1,3454.0,821.0,967.9,1305.2,1840.1,1866.4,1270.3,7.0,-7.0,7.0,9894.0,12552.0,2074.0,2950.0,12.0,2.0,1.0,0.0,-16.0,6.0,10851.0,10372.0,5551.0,3509.0,10.0,5.0,5.0,1.0
2022-05-03 14:44:04.129431-07:00,2341.0,666.8,1877.2,1799.4,1187.6,1526.4,1739.7,1775.2,3447.9,3441.9,2352.5,1699.5,1470.9,3443.1,1618.1,1980.6,3439.5,3454.0,814.4,1517.1,1053.9,640.8,1642.6,2045.4,3458.9,3450.4,813.5,968.8,1305.2,1840.1,1866.4,1270.3,10.0,3.0,4.0,9888.0,12556.0,2068.0,2955.0,12.0,4.0,21.0,-1.0,-10.0,7.0,10848.0,10375.0,5548.0,3512.0,12.0,2.0,19.0,1.0
2022-05-03 14:44:04.157773-07:00,2351.4,671.7,1845.9,1806.1,1187.6,1526.4,1739.7,1777.2,3446.7,3443.1,2353.5,1694.8,1470.9,3443.1,1618.1,1978.6,3449.1,3454.0,814.4,1517.1,1057.3,642.4,1642.6,2042.4,3449.1,3450.4,813.5,968.8,1299.0,1827.5,1861.5,1260.4,4.0,7.0,0.0,9885.0,12559.0,2057.0,2958.0,-4.0,-21.0,30.0,0.0,-9.0,9.0,10847.0,10377.0,5544.0,3516.0,-4.0,-3.0,10.0,1.0
2022-05-03 14:44:04.218400-07:00,2336.8,671.7,1845.9,1806.1,1180.6,1522.7,1734.9,1777.2,3445.5,3443.1,2353.5,1694.8,1459.8,3454.0,1611.5,1978.6,3449.1,3441.9,818.5,1519.0,1057.3,642.4,1642.6,2037.4,3449.1,3443.1,819.4,964.5,1299.0,1827.5,1861.5,1263.1,19.0,7.0,11.0,9885.0,12563.0,2035.0,2957.0,-3.0,-32.0,27.0,4.0,-14.0,-1.0,10847.0,10378.0,5542.0,3518.0,0.0,-6.0,9.0,1.0
2022-05-03 14:44:04.277708-07:00,2336.8,667.6,1860.6,1790.7,1180.6,1522.7,1734.9,1773.3,3445.5,3450.4,2347.3,1690.0,1459.8,3454.0,1611.5,1978.6,3438.2,3441.9,818.5,1519.0,1058.2,640.0,1638.8,2037.4,3446.7,3443.1,819.4,964.5,1303.4,1837.2,1856.7,1263.1,2.0,1.0,4.0,9886.0,12563.0,2032.0,2960.0,-3.0,-6.0,2.0,3.0,-5.0,16.0,10847.0,10377.0,5542.0,3518.0,-3.0,0.0,2.0,1.0
2022-05-03 14:44:04.337908-07:00,2317.0,667.6,1860.6,1790.7,1185.9,1520.8,1732.0,1773.3,3455.2,3450.4,2347.3,1690.0,1461.7,3444.3,1600.2,1978.6,3438.2,3444.3,816.0,1508.8,1058.2,640.0,1638.8,2028.4,3446.7,3450.4,816.0,962.0,1303.4,1837.2,1856.7,1265.8,6.0,2.0,10.0,9887.0,12562.0,2030.0,2959.0,2.0,-3.0,1.0,-1.0,-16.0,7.0,10848.0,10376.0,5542.0,3518.0,-3.0,3.0,1.0,1.0
2022-05-03 14:44:04.367413-07:00,2317.0,665.2,1851.8,1807.1,1185.9,1520.8,1732.0,1772.3,3455.2,3441.9,2332.6,1691.0,1461.7,3444.3,1600.2,1968.7,3440.7,3444.3,816.0,1508.8,1054.8,634.3,1626.5,2028.4,3444.3,3450.4,816.0,962.0,1300.7,1837.2,1848.9,1265.8,2.0,-8.0,12.0,9890.0,12559.0,2029.0,2963.0,-18.0,10.0,13.0,0.0,-14.0,14.0,10852.0,10373.0,5539.0,3521.0,-23.0,6.0,18.0,1.0
2022-05-03 14:44:04.517688-07:00,2328.5,665.2,1851.8,1807.1,1195.6,1530.1,1735.8,1772.3,3449.1,3441.9,2332.6,1691.0,1469.0,3443.1,1607.7,1968.7,3440.7,3441.9,814.4,1506.0,1054.8,634.3,1626.5,2030.4,3444.3,3446.7,819.4,962.0,1300.7,1837.2,1848.9,1265.8,13.0,12.0,5.0,9890.0,12558.0,2011.0,2977.0,6.0,4.0,62.0,-2.0,-6.0,0.0,10851.0,10375.0,5528.0,3533.0,1.0,5.0,39.0,1.0
2022-05-03 14:44:04.518795-07:00,2328.5,661.1,1861.5,1793.6,1195.6,1530.1,1733.0,1772.3,3449.1,3454.0,2342.0,1687.2,1469.0,3443.1,1605.8,1974.6,3437.0,3435.8,814.4,1506.0,1049.6,641.6,1638.8,2030.4,3451.6,3445.5,819.4,962.0,1316.0,1828.4,1858.6,1265.8,18.0,24.0,1.0,9887.0,12561.0,1994.0,2988.0,-7.0,-8.0,15.0,2.0,-5.0,-1.0,10849.0,10378.0,5522.0,3539.0,-9.0,7.0,2.0,1.0
2022-05-03 14:44:04.520461-07:00,2325.4,666.8,1861.5,1793.6,1180.6,1522.7,1733.0,1772.3,3445.5,3447.9,2342.0,1687.2,1457.1,3446.7,1605.8,1974.6,3437.0,3435.8,816.0,1506.9,1049.6,641.6,1636.0,2033.4,3451.6,3445.5,816.9,957.7,1316.0,1828.4,1846.9,1263.1,9.0,0.0,5.0,9888.0,12561.0,1990.0,2987.0,-2.0,-17.0,2.0,4.0,-15.0,5.0,10850.0,10378.0,5522.0,3539.0,1.0,3.0,-2.0,1.0
2022-05-03 14:44:04.757431-07:00,2325.4,666.8,1852.8,1803.2,1180.6,1522.7,1719.6,1768.5,3445.5,3447.9,2341.0,1697.6,1457.1,3446.7,1600.2,1974.6,3441.9,3438.2,816.0,1506.9,1056.5,641.6,1636.0,2033.4,3439.5,3451.6,816.9,957.7,1298.1,1830.4,1846.9,1263.1,7.0,3.0,10.0,9889.0,12561.0,1989.0,2988.0,-6.0,0.0,5.0,0.0,-13.0,8.0,10850.0,10378.0,5522.0,3539.0,-7.0,1.0,6.0,1.0
2022-05-03 14:44:04.758602-07:00,2318.1,662.7,1852.8,1803.2,1187.6,1518.0,1719.6,1768.5,3445.5,3446.7,2341.0,1697.6,1462.6,3454.0,1600.2,1974.6,3441.9,3438.2,814.4,1511.5,1056.5,641.6,1622.8,2009.4,3439.5,3451.6,819.4,965.4,1298.1,1830.4,1847.9,1262.2,8.0,-1.0,13.0,9891.0,12557.0,1990.0,2993.0,1.0,29.0,-9.0,0.0,-18.0,7.0,10850.0,10378.0,5522.0,3539.0,0.0,9.0,7.0,1.0
2022-05-03 14:44:04.877664-07:00,2318.1,662.7,1851.8,1794.5,1187.6,1518.0,1728.2,1765.6,3445.5,3446.7,2341.0,1696.7,1462.6,3454.0,1597.4,1965.7,3441.9,3440.7,814.4,1511.5,1054.8,642.4,1622.8,2009.4,3441.9,3441.9,819.4,965.4,1299.8,1825.5,1847.9,1262.2,7.0,8.0,7.0,9888.0,12556.0,1992.0,3003.0,18.0,1.0,26.0,-2.0,-2.0,8.0,10844.0,10381.0,5523.0,3546.0,13.0,15.0,14.0,1.0
2022-05-03 14:44:04.907461-07:00,2312.9,666.0,1848.9,1794.5,1180.6,1520.8,1728.2,1765.6,3445.5,3444.3,2335.8,1696.7,1447.9,3454.0,1597.4,1965.7,3441.9,3440.7,807.7,1506.9,1054.8,634.3,1627.5,2021.4,3441.9,3441.9,818.5,953.4,1299.8,1826.5,1857.6,1281.0,9.0,7.0,-3.0,9883.0,12560.0,1988.0,3007.0,7.0,2.0,-8.0,0.0,-6.0,2.0,10840.0,10383.0,5525.0,3547.0,10.0,11.0,-6.0,1.0
2022-05-03 14:44:04.908980-07:00,2312.9,666.0,1848.9,1800.3,1180.6,1517.1,1722.4,1757.9,3445.5,3444.3,2335.8,1695.7,1447.9,3449.1,1600.2,1967.7,3435.8,3438.2,814.4,1506.9,1053.0,634.3,1627.5,2021.4,3452.8,3444.3,818.5,953.4,1290.9,1826.5,1857.6,1281.0,7.0,1.0,0.0,9883.0,12561.0,1987.0,3008.0,4.0,-10.0,-3.0,1.0,-12.0,2.0,10840.0,10383.0,5525.0,3547.0,6.0,-5.0,-5.0,1.0
2022-05-03 14:44:04.998492-07:00,2300.4,670.9,1843.0,1800.3,1185.0,1517.1,1722.4,1757.9,3443.1,3444.3,2320.1,1695.7,1458.0,3449.1,1600.2,1967.7,3435.8,3438.2,814.4,1506.9,1053.0,638.4,1623.7,2017.4,3452.8,3444.3,818.5,963.7,1290.9,1827.5,1841.1,1262.2,6.0,2.0,8.0,9883.0,12561.0,1986.0,3006.0,-7.0,-9.0,-10.0,0.0,-9.0,10.0,10841.0,10384.0,5524.0,3546.0,-7.0,-7.0,-4.0,1.0
2022-05-03 14:44:04.999387-07:00,2300.4,670.9,1843.0,1796.5,1185.0,1521.8,1698.6,1773.3,3443.1,3444.3,2320.1,1695.7,1458.0,3456.4,1580.5,1962.8,3446.7,3438.2,810.2,1506.9,1048.7,638.4,1623.7,2017.4,3447.9,3438.2,819.4,963.7,1290.9,1827.5,1841.1,1262.2,8.0,4.0,10.0,9885.0,12559.0,1986.0,3007.0,3.0,-6.0,-2.0,5.0,-11.0,13.0,10841.0,10384.0,5524.0,3546.0,0.0,2.0,-3.0,1.0
2022-05-03 14:44:05.000433-07:00,2309.7,671.7,1840.1,1796.5,1181.5,1521.8,1698.6,1773.3,3445.5,3440.7,2328.5,1695.7,1459.8,3456.4,1580.5,1962.8,3446.7,3438.2,810.2,1507.8,1048.7,633.5,1619.9,2023.4,3447.9,3438.2,819.4,960.2,1290.9,1819.7,1836.2,1262.2,1.0,0.0,8.0,9885.0,12558.0,1989.0,3010.0,16.0,27.0,-13.0,-1.0,-12.0,13.0,10839.0,10384.0,5526.0,3548.0,9.0,13.0,-1.0,1.0
2022-05-03 14:44:05.001696-07:00,2309.7,671.7,1840.1,1790.7,1181.5,1517.1,1718.6,1758.9,3445.5,3440.7,2328.5,1682.4,1459.8,3452.8,1584.2,1967.7,3441.9,3449.1,814.4,1507.8,1051.3,633.5,1619.9,2023.4,3441.9,3440.7,819.4,960.2,1283.7,1819.7,1836.2,1262.2,2.0,4.0,0.0,9884.0,12558.0,1994.0,3013.0,11.0,-1.0,-1.0,-3.0,-11.0,5.0,10839.0,10384.0,5526.0,3548.0,0.0,5.0,1.0,1.0
2022-05-03 14:44:05.027604-07:00,2298.3,665.2,1834.3,1795.5,1183.2,1517.1,1718.6,1758.9,3443.1,3441.9,2316.0,1692.9,1464.4,3452.8,1584.2,1967.7,3441.9,3449.1,814.4,1501.4,1056.5,637.6,1622.8,2014.4,3441.9,3440.7,819.4,958.5,1282.8,1829.4,1841.1,1269.4,3.0,0.0,1.0,9881.0,12560.0,1994.0,3013.0,-8.0,4.0,6.0,0.0,-6.0,11.0,10839.0,10384.0,5526.0,3548.0,-7.0,3.0,2.0,1.0
2022-05-03 14:44:05.117480-07:00,2298.3,665.2,1834.3,1795.5,1170.0,1514.3,1724.4,1765.6,3443.1,3441.9,2316.0,1692.9,1461.7,3444.3,1582.4,1954.8,3438.2,3440.7,809.4,1502.3,1056.5,637.6,1622.8,2014.4,3443.1,3444.3,816.9,951.7,1282.8,1829.4,1841.1,1269.4,10.0,3.0,7.0,9882.0,12560.0,1988.0,3013.0,2.0,-7.0,5.0,0.0,-11.0,3.0,10840.0,10383.0,5526.0,3548.0,3.0,-6.0,6.0,1.0
2022-05-03 14:44:05.118978-07:00,2299.3,666.0,1846.9,1795.5,1170.0,1514.3,1724.4,1765.6,3446.7,3449.1,2321.2,1686.2,1461.7,3444.3,1582.4,1954.8,3438.2,3440.7,809.4,1502.3,1055.6,640.0,1619.0,2013.4,3443.1,3444.3,816.9,951.7,1285.5,1817.8,1845.9,1267.6,6.0,0.0,5.0,9884.0,12558.0,1987.0,3015.0,-10.0,7.0,-3.0,0.0,-11.0,11.0,10841.0,10381.0,5526.0,3549.0,-13.0,-1.0,3.0,1.0
2022-05-03 14:44:05.177609-07:00,2299.3,666.0,1846.9,1795.5,1181.5,1499.5,1711.0,1765.6,3446.7,3449.1,2321.2,1686.2,1453.4,3444.3,1584.2,1967.7,3439.5,3439.5,811.9,1501.4,1055.6,640.0,1619.0,2013.4,3454.0,3440.7,811.0,953.4,1285.5,1817.8,1845.9,1267.6,7.0,-2.0,10.0,9884.0,12558.0,1983.0,3017.0,16.0,0.0,15.0,2.0,-8.0,11.0,10841.0,10381.0,5526.0,3549.0,7.0,-1.0,8.0,1.0
2022-05-03 14:44:05.207304-07:00,2313.9,665.2,1843.0,1779.1,1181.5,1499.5,1711.0,1765.6,3441.9,3449.1,2316.0,1691.9,1453.4,3444.3,1584.2,1967.7,3439.5,3439.5,811.9,1501.4,1051.3,633.5,1636.0,2011.4,3454.0,3440.7,811.0,953.4,1284.6,1809.0,1849.8,1264.0,10.0,11.0,5.0,9880.0,12561.0,1977.0,3023.0,3.0,-1.0,12.0,1.0,-7.0,3.0,10841.0,10382.0,5525.0,3550.0,4.0,1.0,8.0,1.0
2022-05-03 14:44:05.357503-07:00,2316.0,665.2,1843.0,1779.1,1175.3,1519.9,1706.2,1773.3,3446.7,3449.1,2316.0,1691.9,1480.1,3444.3,1572.1,1964.7,3439.5,3443.1,806.0,1502.3,1051.3,633.5,1636.0,2007.4,3445.5,3443.1,816.9,949.2,1284.6,1809.0,1849.8,1259.6,2.0,2.0,4.0,9881.0,12560.0,1978.0,3023.0,6.0,9.0,-15.0,-1.0,-10.0,9.0,10841.0,10382.0,5525.0,3550.0,-2.0,1.0,-9.0,1.0
2022-05-03 14:44:05.387451-07:00,2316.0,668.4,1841.1,1791.6,1175.3,1519.9,1706.2,1772.3,3446.7,3452.8,2330.6,1684.3,1480.1,3444.3,1572.1,1959.8,3446.7,3443.1,806.0,1502.3,1056.5,639.2,1621.8,2007.4,3447.9,3443.1,816.9,949.2,1292.7,1817.8,1833.3,1259.6,5.0,2.0,9.0,9881.0,12560.0,1980.0,3022.0,0.0,2.0,-5.0,-1.0,-10.0,7.0,10841.0,10382.0,5525.0,3550.0,0.0,3.0,-1.0,1.0
2022-05-03 14:44:05.388941-07:00,2322.2,668.4,1841.1,1791.6,1180.6,1511.5,1711.0,1772.3,3449.1,3452.8,2330.6,1684.3,1454.3,3443.1,1586.1,1959.8,3446.7,3438.2,811.9,1497.7,1056.5,639.2,1621.8,2014.4,3447.9,3444.3,814.4,944.1,1292.7,1817.8,1833.3,1267.6,1.0,2.0,2.0,9881.0,12559.0,1982.0,3024.0,-5.0,8.0,-3.0,0.0,-9.0,13.0,10841.0,10382.0,5525.0,3550.0,-2.0,1.0,3.0,1.0
2022-05-03 14:44:05.447966-07:00,2322.2,659.5,1842.0,1788.7,1180.6,1511.5,1711.0,1767.5,3449.1,3443.1,2321.2,1683.3,1454.3,3443.1,1586.1,1954.8,3438.2,3438.2,811.9,1497.7,1042.6,640.0,1619.9,2014.4,3452.8,3444.3,814.4,944.1,1286.4,1811.9,1847.9,1267.6,9.0,7.0,2.0,9881.0,12559.0,1978.0,3024.0,4.0,-10.0,11.0,4.0,-9.0,6.0,10841.0,10382.0,5525.0,3550.0,4.0,0.0,5.0,1.0
2022-05-03 14:44:05.477689-07:00,2313.9,659.5,1842.0,1788.7,1171.8,1506.9,1711.0,1767.5,3446.7,3443.1,2321.2,1683.3,1456.2,3449.1,1587.1,1954.8,3438.2,3441.9,811.9,1506.9,1042.6,640.0,1619.9,2015.4,3452.8,3444.3,816.0,950.9,1286.4,1811.9,1847.9,1258.7,1.0,1.0,-2.0,9881.0,12559.0,1978.0,3024.0,-7.0,-5.0,-2.0,1.0,-9.0,11.0,10841.0,10382.0,5525.0,3550.0,-4.0,-3.0,2.0,1.0
2022-05-03 14:44:05.507496-07:00,2313.9,664.4,1837.2,1787.8,1171.8,1506.9,1711.0,1768.5,3446.7,3444.3,2310.8,1687.2,1456.2,3449.1,1587.1,1963.7,3435.8,3441.9,811.9,1506.9,1053.9,633.5,1619.0,2015.4,3446.7,3444.3,816.0,950.9,1283.7,1812.9,1832.3,1258.7,9.0,0.0,13.0,9882.0,12561.0,1974.0,3019.0,-5.0,-3.0,-8.0,0.0,-11.0,14.0,10841.0,10382.0,5524.0,3550.0,-11.0,-3.0,-1.0,1.0
2022-05-03 14:44:05.567991-07:00,2311.8,659.5,1837.2,1787.8,1175.3,1506.9,1705.3,1768.5,3440.7,3447.9,2310.8,1687.2,1450.6,3449.1,1576.8,1963.7,3435.8,3449.1,810.2,1505.1,1053.9,633.5,1611.5,2010.4,3446.7,3449.1,811.9,962.0,1283.7,1812.9,1839.1,1269.4,4.0,2.0,11.0,9882.0,12560.0,1975.0,3021.0,-1.0,14.0,5.0,3.0,-7.0,13.0,10843.0,10381.0,5524.0,3550.0,4.0,5.0,11.0,1.0
2022-05-03 14:44:05.628129-07:00,2311.8,659.5,1823.6,1791.6,1175.3,1506.9,1702.4,1763.7,3440.7,3447.9,2309.7,1688.1,1450.6,3449.1,1579.6,1957.8,3440.7,3444.3,810.2,1505.1,1054.8,636.7,1611.5,2010.4,3446.7,3444.3,811.9,962.0,1284.6,1818.7,1839.1,1269.4,3.0,7.0,5.0,9881.0,12561.0,1976.0,3021.0,6.0,2.0,1.0,-1.0,-7.0,8.0,10842.0,10381.0,5523.0,3551.0,1.0,5.0,-1.0,1.0
2022-05-03 14:44:05.747376-07:00,2308.7,665.2,1823.6,1791.6,1170.9,1509.7,1702.4,1763.7,3445.5,3440.7,2309.7,1688.1,1454.3,3435.8,1579.6,1957.8,3440.7,3444.3,812.7,1505.1,1054.8,636.7,1615.2,2004.5,3446.7,3444.3,816.9,949.2,1284.6,1818.7,1836.2,1257.8,1.0,0.0,2.0,9882.0,12560.0,1979.0,3020.0,-1.0,11.0,-13.0,0.0,-12.0,6.0,10842.0,10381.0,5523.0,3551.0,0.0,2.0,-2.0,1.0
2022-05-03 14:44:05.838206-07:00,2308.7,665.2,1833.3,1775.2,1170.9,1509.7,1710.0,1759.8,3445.5,3440.7,2313.9,1688.1,1454.3,3435.8,1579.6,1955.8,3432.2,3443.1,812.7,1505.1,1048.7,634.3,1615.2,2004.5,3438.2,3445.5,816.9,949.2,1285.5,1817.8,1836.2,1257.8,8.0,9.0,4.0,9882.0,12560.0,1978.0,3019.0,8.0,-17.0,11.0,2.0,-9.0,7.0,10842.0,10382.0,5524.0,3551.0,10.0,0.0,4.0,1.0
2022-05-03 14:44:05.839751-07:00,2308.7,658.7,1833.3,1775.2,1174.4,1511.5,1710.0,1759.8,3440.7,3438.2,2313.9,1688.1,1447.9,3441.9,1579.6,1955.8,3432.2,3443.1,807.7,1499.5,1048.7,634.3,1618.1,2007.4,3438.2,3445.5,817.7,947.5,1285.5,1817.8,1836.2,1264.9,4.0,-1.0,6.0,9882.0,12561.0,1976.0,3017.0,-7.0,8.0,-8.0,-2.0,-11.0,14.0,10841.0,10382.0,5524.0,3550.0,-5.0,0.0,-2.0,1.0
2022-05-03 14:44:05.868497-07:00,2308.7,658.7,1825.5,1786.8,1174.4,1502.3,1694.8,1775.2,3440.7,3438.2,2304.5,1679.5,1447.9,3449.1,1577.7,1949.9,3439.5,3438.2,804.4,1499.5,1044.4,631.9,1618.1,2007.4,3438.2,3450.4,826.0,947.5,1287.3,1812.9,1836.2,1264.9,10.0,8.0,6.0,9882.0,12561.0,1975.0,3017.0,0.0,-10.0,13.0,1.0,-12.0,9.0,10841.0,10382.0,5524.0,3550.0,0.0,0.0,4.0,1.0
2022-05-03 14:44:05.869626-07:00,2317.0,659.5,1830.4,1786.8,1174.4,1502.3,1694.8,1775.2,3438.2,3449.1,2299.3,1679.5,1453.4,3449.1,1577.7,1949.9,3439.5,3438.2,804.4,1500.4,1044.4,633.5,1616.2,2006.4,3438.2,3450.4,826.0,946.6,1287.3,1818.7,1835.2,1264.9,10.0,3.0,6.0,9882.0,12561.0,1974.0,3016.0,3.0,-6.0,3.0,4.0,-9.0,6.0,10841.0,10382.0,5524.0,3550.0,6.0,1.0,0.0,1.0
2022-05-03 14:44:05.987523-07:00,2317.0,659.5,1830.4,1784.9,1174.4,1513.4,1701.4,1755.0,3438.2,3449.1,2299.3,1679.5,1453.4,3446.7,1578.6,1946.9,3438.2,3438.2,804.4,1500.4,1048.7,633.5,1616.2,2006.4,3451.6,3454.0,814.4,946.6,1285.5,1818.7,1835.2,1264.9,11.0,1.0,9.0,9882.0,12561.0,1974.0,3016.0,1.0,3.0,-6.0,1.0,-10.0,5.0,10841.0,10382.0,5524.0,3550.0,-7.0,-3.0,-2.0,1.0
2022-05-03 14:44:06.017482-07:00,2303.5,663.6,1836.2,1784.9,1172.6,1513.4,1701.4,1755.0,3445.5,3449.1,2305.6,1679.5,1455.2,3446.7,1578.6,1946.9,3438.2,3438.2,804.4,1504.1,1048.7,640.8,1614.3,2007.4,3451.6,3454.0,814.4,947.5,1285.5,1811.9,1825.5,1265.8,10.0,5.0,5.0,9883.0,12560.0,1976.0,3019.0,5.0,0.0,0.0,0.0,-16.0,8.0,10841.0,10382.0,5524.0,3550.0,6.0,2.0,3.0,1.0
2022-05-03 14:44:06.018515-07:00,2303.5,663.6,1836.2,1779.1,1172.6,1506.9,1700.5,1757.9,3445.5,3449.1,2305.6,1675.7,1455.2,3445.5,1579.6,1946.9,3446.7,3444.3,801.9,1504.1,1047.8,640.8,1614.3,2007.4,3450.4,3443.1,812.7,947.5,1279.2,1811.9,1825.5,1265.8,6.0,3.0,3.0,9883.0,12560.0,1976.0,3019.0,4.0,-5.0,4.0,0.0,-7.0,7.0,10841.0,10382.0,5524.0,3550.0,-2.0,0.0,1.0,1.0
2022-05-03 14:44:06.077742-07:00,2311.8,667.6,1825.5,1779.1,1163.8,1506.9,1700.5,1757.9,3446.7,3443.1,2303.5,1675.7,1450.6,3445.5,1579.6,1946.9,3446.7,3444.3,801.9,1499.5,1047.8,633.5,1609.6,2004.5,3450.4,3443.1,812.7,950.9,1279.2,1811.9,1832.3,1261.3,6.0,4.0,4.0,9882.0,12560.0,1973.0,3021.0,-1.0,2.0,2.0,1.0,-12.0,10.0,10841.0,10382.0,5524.0,3550.0,-1.0,-1.0,0.0,1.0
2022-05-03 14:44:06.107880-07:00,2311.8,667.6,1825.5,1782.0,1170.9,1509.7,1698.6,1758.9,3446.7,3443.1,2303.5,1675.7,1452.5,3449.1,1564.6,1939.0,3437.0,3444.3,808.5,1500.4,1045.2,633.5,1609.6,2004.5,3444.3,3438.2,815.2,942.4,1267.6,1811.9,1832.3,1261.3,4.0,3.0,6.0,9882.0,12560.0,1973.0,3021.0,-8.0,2.0,-3.0,0.0,-10.0,8.0,10842.0,10382.0,5524.0,3551.0,-10.0,-9.0,2.0,1.0
2022-05-03 14:44:06.168465-07:00,2365.1,666.8,1810.0,1789.7,1170.9,1509.7,1698.6,1758.9,3449.1,3438.2,2299.3,1682.4,1452.5,3449.1,1564.6,1939.0,3437.0,3444.3,808.5,1500.4,1053.0,633.5,1610.5,2004.5,3444.3,3438.2,815.2,942.4,1288.2,1807.1,1834.3,1269.4,9.0,-6.0,16.0,9883.0,12557.0,1983.0,3024.0,-10.0,41.0,-28.0,1.0,-17.0,12.0,10846.0,10377.0,5521.0,3552.0,-24.0,-7.0,4.0,1.0
2022-05-03 14:44:06.227926-07:00,2365.1,666.8,1810.0,1789.7,1167.4,1506.9,1695.7,1759.8,3449.1,3438.2,2299.3,1682.4,1447.0,3449.1,1588.0,1956.8,3437.0,3445.5,806.9,1496.7,1053.0,633.5,1610.5,2004.5,3440.7,3447.9,815.2,947.5,1288.2,1807.1,1834.3,1269.4,8.0,16.0,3.0,9886.0,12550.0,1992.0,3037.0,-8.0,12.0,21.0,4.0,5.0,13.0,10850.0,10374.0,5515.0,3558.0,8.0,-6.0,14.0,1.0
2022-05-03 14:44:06.258044-07:00,2453.6,653.0,1822.6,1782.0,1167.4,1506.9,1695.7,1759.8,3447.9,3443.1,2282.8,1684.3,1447.0,3449.1,1588.0,1956.8,3437.0,3445.5,806.9,1496.7,1050.4,635.9,1615.2,1997.5,3440.7,3447.9,815.2,947.5,1288.2,1801.3,1830.4,1264.0,11.0,7.0,9.0,9882.0,12554.0,1995.0,3034.0,8.0,8.0,-31.0,5.0,-4.0,9.0,10847.0,10376.0,5519.0,3556.0,0.0,15.0,-16.0,1.0
2022-05-03 14:44:06.317994-07:00,2453.6,653.0,1822.6,1782.0,1169.1,1511.5,1700.5,1770.4,3447.9,3443.1,2282.8,1684.3,1454.3,3444.3,1578.6,1942.0,3449.1,3438.2,804.4,1501.4,1050.4,635.9,1615.2,1997.5,3447.9,3449.1,819.4,945.8,1288.2,1801.3,1830.4,1264.0,6.0,-8.0,0.0,9880.0,12554.0,2002.0,3032.0,20.0,-8.0,-2.0,2.0,-12.0,3.0,10845.0,10376.0,5523.0,3555.0,14.0,1.0,-3.0,1.0
2022-05-03 14:44:06.377645-07:00,2403.9,653.0,1838.2,1779.1,1169.1,1511.5,1700.5,1760.8,3443.1,3440.7,2289.0,1678.6,1454.3,3444.3,1578.6,1935.1,3444.3,3438.2,804.4,1501.4,1047.8,633.5,1605.8,1990.5,3449.1,3449.1,819.4,945.8,1278.3,1821.6,1834.3,1266.7,6.0,9.0,0.0,9879.0,12557.0,1998.0,3027.0,-6.0,-18.0,2.0,-1.0,-5.0,5.0,10844.0,10378.0,5524.0,3553.0,-10.0,-18.0,-4.0,1.0
2022-05-03 14:44:06.437508-07:00,2419.8,653.0,1838.2,1779.1,1164.7,1506.0,1678.6,1760.8,3441.9,3440.7,2289.0,1678.6,1449.7,3438.2,1562.7,1935.1,3444.3,3444.3,806.0,1498.6,1047.8,633.5,1605.8,2000.5,3449.1,3435.8,811.9,946.6,1278.3,1821.6,1834.3,1267.6,7.0,4.0,8.0,9883.0,12557.0,1992.0,3020.0,1.0,-24.0,-1.0,0.0,-8.0,9.0,10847.0,10379.0,5519.0,3549.0,3.0,-24.0,-6.0,1.0
2022-05-03 14:44:06.467845-07:00,2419.8,662.7,1822.6,1776.2,1164.7,1506.0,1678.6,1764.6,3441.9,3435.8,2300.4,1678.6,1449.7,3438.2,1562.7,1939.0,3446.7,3444.3,806.0,1498.6,1046.1,636.7,1600.2,2000.5,3450.4,3435.8,811.9,946.6,1286.4,1811.0,1829.4,1267.6,5.0,0.0,12.0,9884.0,12558.0,1988.0,3015.0,-7.0,-15.0,2.0,0.0,-13.0,14.0,10849.0,10381.0,5514.0,3544.0,-2.0,-11.0,1.0,1.0
2022-05-03 14:44:06.557829-07:00,2412.4,662.7,1822.6,1776.2,1166.5,1492.1,1689.1,1764.6,3446.7,3435.8,2300.4,1678.6,1447.9,3445.5,1573.0,1939.0,3446.7,3435.8,795.2,1500.4,1046.1,636.7,1600.2,1993.5,3450.4,3446.7,811.0,948.3,1286.4,1811.0,1829.4,1263.1,9.0,7.0,11.0,9884.0,12560.0,1979.0,3011.0,-2.0,-21.0,10.0,1.0,-8.0,13.0,10850.0,10382.0,5512.0,3543.0,-4.0,-3.0,1.0,1.0
2022-05-03 14:44:06.560868-07:00,2412.4,656.2,1814.9,1777.2,1166.5,1492.1,1689.1,1768.5,3446.7,3449.1,2296.2,1681.4,1447.9,3445.5,1573.0,1945.9,3439.5,3435.8,795.2,1500.4,1045.2,638.4,1604.0,1993.5,3452.8,3446.7,811.0,948.3,1263.1,1804.2,1834.3,1263.1,9.0,1.0,5.0,9884.0,12561.0,1977.0,3009.0,2.0,-4.0,8.0,5.0,-12.0,10.0,10850.0,10382.0,5512.0,3543.0,-1.0,1.0,4.0,1.0
2022-05-03 14:44:06.677916-07:00,2389.2,656.2,1814.9,1777.2,1164.7,1504.1,1681.4,1768.5,3445.5,3449.1,2296.2,1681.4,1449.7,3443.1,1549.7,1945.9,3439.5,3449.1,803.5,1507.8,1045.2,638.4,1604.0,1987.5,3452.8,3451.6,811.0,943.2,1263.1,1804.2,1834.3,1261.3,11.0,2.0,6.0,9884.0,12561.0,1975.0,3011.0,4.0,4.0,6.0,1.0,-11.0,6.0,10850.0,10382.0,5512.0,3543.0,0.0,1.0,4.0,1.0
2022-05-03 14:44:06.679322-07:00,2389.2,655.4,1824.6,1779.1,1164.7,1504.1,1681.4,1758.9,3445.5,3447.9,2302.5,1671.9,1449.7,3443.1,1566.5,1942.0,3449.1,3444.3,803.5,1507.8,1053.0,639.2,1608.7,1987.5,3454.0,3451.6,811.0,943.2,1271.2,1808.1,1834.3,1261.3,9.0,10.0,2.0,9883.0,12561.0,1975.0,3014.0,-1.0,-10.0,15.0,1.0,-7.0,6.0,10850.0,10382.0,5512.0,3543.0,8.0,1.0,2.0,1.0
2022-05-03 14:44:06.737753-07:00,2382.9,660.3,1824.6,1779.1,1163.8,1507.8,1681.4,1758.9,3447.9,3444.3,2302.5,1671.9,1440.5,3450.4,1566.5,1942.0,3449.1,3444.3,801.9,1497.7,1053.0,639.2,1605.8,1976.6,3454.0,3451.6,815.2,948.3,1271.2,1808.1,1818.7,1260.4,8.0,3.0,7.0,9883.0,12561.0,1976.0,3013.0,-4.0,12.0,-14.0,0.0,-11.0,10.0,10850.0,10382.0,5512.0,3543.0,-6.0,-5.0,-4.0,1.0
2022-05-03 14:44:06.797857-07:00,2382.9,660.3,1815.8,1773.3,1163.8,1507.8,1691.0,1759.8,3447.9,3444.3,2289.0,1678.6,1440.5,3450.4,1566.5,1935.1,3438.2,3443.1,801.9,1497.7,1043.5,633.5,1605.8,1976.6,3450.4,3443.1,815.2,948.3,1268.5,1801.3,1818.7,1260.4,6.0,4.0,0.0,9886.0,12559.0,1977.0,3014.0,4.0,-13.0,8.0,1.0,-6.0,12.0,10853.0,10379.0,5511.0,3544.0,7.0,-8.0,1.0,1.0
2022-05-03 14:44:06.799023-07:00,2416.6,657.0,1815.8,1773.3,1163.0,1509.7,1691.0,1759.8,3451.6,3458.9,2289.0,1678.6,1442.4,3441.9,1566.5,1935.1,3438.2,3443.1,805.2,1495.8,1043.5,633.5,1600.2,1982.6,3450.4,3443.1,813.5,951.7,1268.5,1801.3,1824.6,1265.8,9.0,4.0,0.0,9887.0,12560.0,1972.0,3008.0,-3.0,-22.0,-7.0,2.0,-10.0,11.0,10854.0,10379.0,5510.0,3541.0,-6.0,-11.0,-11.0,1.0
2022-05-03 14:44:06.858450-07:00,2416.6,657.0,1807.1,1779.1,1163.0,1509.7,1689.1,1765.6,3451.6,3458.9,2282.8,1677.6,1442.4,3441.9,1569.3,1937.1,3438.2,3449.1,805.2,1495.8,1050.4,635.9,1600.2,1982.6,3446.7,3440.7,813.5,951.7,1275.6,1805.2,1824.6,1265.8,5.0,-3.0,9.0,9888.0,12562.0,1966.0,3000.0,-8.0,-24.0,2.0,-1.0,-16.0,13.0,10857.0,10379.0,5507.0,3537.0,-5.0,-11.0,-1.0,1.0
2022-05-03 14:44:06.918050-07:00,2375.5,657.0,1813.9,1779.1,1161.2,1507.8,1689.1,1765.6,3438.2,3451.6,2282.8,1677.6,1447.9,3443.1,1569.3,1937.1,3438.2,3449.1,805.2,1507.8,1050.4,639.2,1601.1,1987.5,3446.7,3440.7,808.5,934.7,1275.6,1800.3,1823.6,1263.1,7.0,3.0,14.0,9890.0,12562.0,1962.0,2997.0,-4.0,-9.0,1.0,1.0,-15.0,15.0,10858.0,10381.0,5504.0,3534.0,2.0,-4.0,3.0,1.0
2022-05-03 14:44:06.948194-07:00,2375.5,657.0,1813.9,1778.1,1161.2,1502.3,1686.2,1744.5,3438.2,3451.6,2282.8,1671.0,1447.9,3440.7,1551.5,1926.2,3437.0,3434.6,805.2,1507.8,1047.8,639.2,1601.1,1987.5,3444.3,3449.1,811.0,934.7,1270.3,1800.3,1823.6,1263.1,10.0,3.0,13.0,9890.0,12561.0,1963.0,2998.0,-1.0,7.0,5.0,3.0,-2.0,22.0,10858.0,10381.0,5504.0,3534.0,2.0,7.0,3.0,1.0
2022-05-03 14:44:07.007437-07:00,2369.3,657.9,1807.1,1778.1,1160.3,1502.3,1686.2,1744.5,3445.5,3444.3,2293.1,1671.0,1447.9,3440.7,1551.5,1926.2,3437.0,3434.6,805.2,1495.8,1047.8,635.9,1604.9,1980.6,3444.3,3449.1,811.0,946.6,1270.3,1807.1,1812.9,1261.3,12.0,8.0,9.0,9887.0,12563.0,1964.0,3000.0,12.0,21.0,-11.0,0.0,-8.0,14.0,10856.0,10381.0,5506.0,3535.0,10.0,19.0,-4.0,1.0
2022-05-03 14:44:07.128504-07:00,2369.3,657.9,1807.1,1779.1,1160.3,1501.4,1684.3,1762.7,3445.5,3444.3,2293.1,1674.8,1447.9,3446.7,1566.5,1934.1,3443.1,3439.5,801.9,1495.8,1050.4,635.9,1604.9,1980.6,3441.9,3454.0,813.5,946.6,1269.4,1807.1,1812.9,1261.3,5.0,-1.0,-2.0,9885.0,12562.0,1971.0,3004.0,8.0,5.0,4.0,0.0,-9.0,8.0,10854.0,10381.0,5510.0,3538.0,9.0,1.0,4.0,1.0
2022-05-03 14:44:07.129873-07:00,2366.1,661.1,1811.9,1779.1,1163.8,1501.4,1684.3,1762.7,3445.5,3445.5,2282.8,1674.8,1443.3,3446.7,1566.5,1934.1,3443.1,3439.5,801.9,1497.7,1050.4,633.5,1600.2,1981.6,3441.9,3454.0,813.5,944.9,1269.4,1806.1,1794.5,1264.9,8.0,4.0,6.0,9884.0,12563.0,1972.0,3004.0,-6.0,-2.0,-15.0,0.0,-12.0,9.0,10853.0,10381.0,5510.0,3538.0,-6.0,-2.0,-6.0,1.0
2022-05-03 14:44:07.158370-07:00,2366.1,661.1,1811.9,1778.1,1163.8,1508.8,1683.3,1762.7,3445.5,3445.5,2282.8,1671.9,1443.3,3450.4,1556.2,1941.0,3451.6,3435.8,806.9,1497.7,1044.4,633.5,1600.2,1981.6,3445.5,3446.7,810.2,944.9,1274.7,1806.1,1794.5,1264.9,9.0,0.0,4.0,9885.0,12562.0,1974.0,3002.0,10.0,4.0,1.0,0.0,-14.0,12.0,10853.0,10381.0,5510.0,3538.0,7.0,1.0,1.0,1.0
2022-05-03 14:44:07.218430-07:00,2375.5,656.2,1808.1,1772.3,1169.1,1508.8,1683.3,1762.7,3438.2,3446.7,2282.8,1664.4,1441.5,3450.4,1556.2,1941.0,3451.6,3435.8,806.9,1498.6,1047.0,637.6,1600.2,1983.6,3445.5,3446.7,810.2,944.1,1278.3,1797.4,1820.7,1263.1,10.0,-5.0,16.0,9882.0,12564.0,1976.0,3004.0,6.0,36.0,-6.0,0.0,-17.0,15.0,10852.0,10382.0,5510.0,3538.0,-2.0,7.0,13.0,1.0
2022-05-03 14:44:07.248358-07:00,2375.5,656.2,1808.1,1772.3,1171.8,1507.8,1688.1,1754.1,3438.2,3446.7,2282.8,1664.4,1446.0,3446.7,1554.3,1928.2,3449.1,3440.7,805.2,1500.4,1047.0,637.6,1600.2,1983.6,3449.1,3449.1,806.0,946.6,1278.3,1797.4,1820.7,1263.1,19.0,-13.0,21.0,9876.0,12562.0,1994.0,3021.0,56.0,118.0,-42.0,4.0,-28.0,16.0,10849.0,10385.0,5506.0,3546.0,-2.0,14.0,27.0,1.0
2022-05-03 14:44:07.307502-07:00,2496.2,663.6,1843.0,1783.9,1171.8,1507.8,1688.1,1754.1,3449.1,3450.4,2292.1,1676.7,1446.0,3446.7,1554.3,1928.2,3449.1,3440.7,805.2,1500.4,1047.0,628.6,1594.6,1978.6,3449.1,3449.1,806.0,946.6,1299.8,1797.4,1804.2,1259.6,-16.0,-12.0,27.0,9851.0,12553.0,2083.0,3080.0,0.0,300.0,-5.0,-6.0,6.0,38.0,10861.0,10374.0,5487.0,3571.0,-116.0,8.0,79.0,1.0
2022-05-03 14:44:07.398570-07:00,2496.2,663.6,1843.0,1783.9,1160.3,1509.7,1680.5,1756.0,3449.1,3450.4,2292.1,1676.7,1440.5,3440.7,1611.5,1954.8,3441.9,3441.9,808.5,1495.8,1047.0,628.6,1594.6,1978.6,3443.1,3443.1,809.4,950.0,1299.8,1797.4,1804.2,1259.6,20.0,32.0,-1.0,9827.0,12548.0,2132.0,3141.0,132.0,148.0,-86.0,9.0,0.0,9.0,10870.0,10362.0,5470.0,3604.0,-11.0,40.0,20.0,1.0
2022-05-03 14:44:07.399626-07:00,2946.1,657.9,1916.4,1802.3,1160.3,1509.7,1680.5,1756.0,3443.1,3444.3,2307.7,1673.8,1440.5,3440.7,1611.5,1954.8,3441.9,3441.9,808.5,1495.8,1047.0,637.6,1614.3,1975.6,3443.1,3443.1,809.4,950.0,1326.8,1839.1,1909.5,1266.7,-11.0,9.0,-6.0,9779.0,12553.0,2254.0,3186.0,109.0,275.0,-122.0,-4.0,-9.0,6.0,10862.0,10359.0,5483.0,3617.0,-1.0,41.0,4.0,1.0
2022-05-03 14:44:07.458348-07:00,3098.6,657.9,1916.4,1802.3,1158.6,1498.6,1679.5,1757.9,3450.4,3444.3,2307.7,1673.8,1433.2,3434.6,1700.5,2002.5,3443.1,3449.1,798.5,1494.9,1047.0,637.6,1614.3,1983.6,3439.5,3454.0,806.9,946.6,1326.8,1839.1,1909.5,1265.8,13.0,6.0,-9.0,9730.0,12567.0,2349.0,3210.0,172.0,118.0,-107.0,5.0,-5.0,2.0,10851.0,10362.0,5495.0,3624.0,45.0,30.0,-8.0,1.0
2022-05-03 14:44:07.517691-07:00,3098.6,659.5,1975.6,1826.5,1158.6,1498.6,1679.5,1764.6,3450.4,3438.2,2324.3,1661.5,1433.2,3434.6,1700.5,2041.4,3438.2,3449.1,798.5,1494.9,1041.8,633.5,1610.5,1983.6,3438.2,3454.0,806.9,946.6,1316.9,1860.6,1958.8,1265.8,6.0,8.0,-10.0,9672.0,12595.0,2445.0,3208.0,206.0,133.0,-209.0,0.0,-19.0,24.0,10844.0,10365.0,5505.0,3618.0,11.0,9.0,-28.0,1.0
2022-05-03 14:44:07.548290-07:00,3127.5,659.5,1975.6,1826.5,1165.6,1501.4,1672.9,1764.6,3447.9,3438.2,2324.3,1661.5,1436.9,3450.4,1748.3,2041.4,3438.2,3440.7,802.7,1497.7,1041.8,633.5,1610.5,1988.5,3438.2,3455.2,798.5,940.7,1316.9,1860.6,1958.8,1261.3,9.0,-9.0,15.0,9607.0,12630.0,2559.0,3176.0,202.0,118.0,-150.0,-1.0,-3.0,6.0,10840.0,10367.0,5516.0,3608.0,32.0,1.0,-17.0,1.0
2022-05-03 14:44:07.607342-07:00,3127.5,661.9,2052.4,1856.7,1165.6,1501.4,1672.9,1757.0,3447.9,3447.9,2375.5,1659.6,1436.9,3450.4,1748.3,2057.4,3443.1,3440.7,802.7,1497.7,1041.8,635.1,1619.0,1988.5,3444.3,3455.2,798.5,940.7,1311.5,1874.2,1994.5,1261.3,9.0,23.0,9.0,9553.0,12652.0,2639.0,3183.0,128.0,143.0,-92.0,2.0,-2.0,9.0,10841.0,10371.0,5509.0,3607.0,-11.0,-20.0,23.0,1.0
2022-05-03 14:44:07.668385-07:00,3098.6,661.9,2052.4,1856.7,1159.4,1503.2,1654.9,1757.0,3445.5,3447.9,2375.5,1659.6,1431.4,3454.0,1774.3,2057.4,3443.1,3440.7,801.9,1493.0,1041.8,635.1,1619.0,1981.6,3444.3,3441.9,801.9,950.9,1311.5,1874.2,1994.5,1266.7,11.0,8.0,27.0,9512.0,12661.0,2727.0,3197.0,137.0,170.0,-141.0,7.0,-7.0,14.0,10840.0,10374.0,5506.0,3606.0,25.0,10.0,-8.0,1.0
2022-05-03 14:44:07.727912-07:00,3098.6,656.2,2015.4,1840.1,1159.4,1503.2,1654.9,1748.3,3445.5,3445.5,2367.2,1641.6,1431.4,3454.0,1774.3,2029.4,3440.7,3440.7,801.9,1493.0,1042.6,639.2,1619.0,1981.6,3447.9,3441.9,801.9,950.9,1317.8,1855.7,1961.8,1266.7,4.0,-4.0,12.0,9472.0,12666.0,2815.0,3219.0,98.0,158.0,-61.0,0.0,-7.0,12.0,10828.0,10381.0,5517.0,3607.0,46.0,32.0,1.0,1.0
2022-05-03 14:44:07.907562-07:00,3063.9,652.2,2015.4,1840.1,1157.7,1499.5,1646.4,1748.3,3435.8,3451.6,2367.2,1641.6,1425.9,3441.9,1710.0,2029.4,3440.7,3443.1,795.2,1486.6,1042.6,639.2,1616.2,1973.7,3447.9,3443.1,798.5,960.2,1317.8,1855.7,1886.9,1268.5,-7.0,5.0,-15.0,9431.0,12676.0,2875.0,3247.0,144.0,59.0,-51.0,0.0,-18.0,13.0,10812.0,10388.0,5528.0,3615.0,42.0,50.0,11.0,1.0
2022-05-03 14:44:07.908637-07:00,3063.9,652.2,1939.0,1818.7,1157.7,1499.5,1636.9,1762.7,3435.8,3451.6,2324.3,1632.2,1425.9,3441.9,1654.9,1991.5,3434.6,3445.5,795.2,1486.6,1045.2,638.4,1616.2,1973.7,3445.5,3449.1,798.5,960.2,1311.5,1836.2,1886.9,1268.5,13.0,7.0,-2.0,9379.0,12701.0,2936.0,3247.0,126.0,133.0,-95.0,-5.0,-9.0,-4.0,10790.0,10400.0,5546.0,3619.0,46.0,32.0,6.0,1.0
2022-05-03 14:44:07.910619-07:00,3030.6,661.9,1939.0,1818.7,1145.4,1488.4,1636.9,1762.7,3441.9,3454.0,2324.3,1632.2,1416.7,3449.1,1654.9,1991.5,3434.6,3445.5,792.7,1495.8,1045.2,638.4,1611.5,1965.7,3445.5,3449.1,798.5,953.4,1311.5,1836.2,1866.4,1270.3,-13.0,-15.0,-15.0,9353.0,12693.0,3016.0,3279.0,46.0,144.0,-75.0,-1.0,-11.0,16.0,10790.0,10396.0,5547.0,3628.0,-18.0,16.0,21.0,1.0
2022-05-03 14:44:07.912037-07:00,3030.6,661.9,1886.9,1804.2,1145.4,1488.4,1639.8,1757.0,3441.9,3454.0,2307.7,1631.3,1416.7,3449.1,1579.6,1973.7,3433.4,3450.4,792.7,1495.8,1040.9,634.3,1611.5,1965.7,3446.7,3444.3,798.5,953.4,1314.2,1796.5,1866.4,1270.3,1.0,1.0,10.0,9309.0,12711.0,3057.0,3295.0,138.0,119.0,6.0,3.0,-9.0,9.0,10784.0,10401.0,5543.0,3637.0,2.0,0.0,35.0,1.0
2022-05-03 14:44:08.057466-07:00,2979.1,653.8,1886.9,1804.2,1149.8,1494.0,1639.8,1757.0,3449.1,3445.5,2307.7,1631.3,1416.7,3443.1,1579.6,1973.7,3433.4,3450.4,791.9,1495.8,1040.9,634.3,1611.5,1963.7,3446.7,3444.3,798.5,955.1,1314.2,1796.5,1810.0,1263.1,28.0,24.0,6.0,9264.0,12732.0,3081.0,3318.0,102.0,64.0,5.0,3.0,-1.0,-2.0,10785.0,10403.0,5530.0,3648.0,-3.0,-15.0,30.0,1.0
2022-05-03 14:44:08.117863-07:00,2979.1,653.8,1815.8,1786.8,1149.8,1484.7,1635.0,1759.8,3449.1,3445.5,2268.3,1620.9,1416.7,3445.5,1517.1,1941.0,3432.2,3449.1,792.7,1495.8,1036.6,636.7,1611.5,1963.7,3443.1,3450.4,800.2,955.1,1315.1,1780.1,1810.0,1263.1,10.0,3.0,16.0,9234.0,12730.0,3147.0,3346.0,103.0,159.0,-118.0,4.0,-17.0,14.0,10791.0,10400.0,5522.0,3652.0,-20.0,0.0,4.0,1.0
2022-05-03 14:44:08.119076-07:00,2950.7,653.8,1772.3,1786.8,1140.1,1484.7,1635.0,1759.8,3447.9,3449.1,2235.3,1620.9,1422.2,3445.5,1517.1,1941.0,3432.2,3449.1,792.7,1493.0,1036.6,637.6,1608.7,1947.9,3443.1,3450.4,800.2,956.8,1315.1,1764.6,1753.1,1265.8,-6.0,-5.0,0.0,9169.0,12741.0,3262.0,3375.0,236.0,221.0,-137.0,0.0,-10.0,19.0,10790.0,10399.0,5523.0,3657.0,25.0,23.0,13.0,1.0
2022-05-03 14:44:08.207942-07:00,2950.7,653.8,1772.3,1778.1,1140.1,1483.8,1633.1,1757.9,3447.9,3449.1,2235.3,1606.8,1422.2,3451.6,1471.8,1928.2,3447.9,3438.2,791.0,1493.0,1034.9,637.6,1608.7,1947.9,3449.1,3443.1,801.9,956.8,1311.5,1764.6,1753.1,1265.8,4.0,14.0,12.0,9079.0,12775.0,3363.0,3390.0,225.0,177.0,-76.0,4.0,-3.0,7.0,10766.0,10416.0,5535.0,3661.0,79.0,35.0,18.0,1.0
2022-05-03 14:44:08.298490-07:00,2922.4,653.0,1725.3,1778.1,1113.0,1483.8,1633.1,1757.9,3443.1,3443.1,2205.5,1606.8,1409.4,3451.6,1471.8,1928.2,3447.9,3438.2,791.0,1495.8,1034.9,634.3,1607.7,1925.2,3449.1,3443.1,801.9,969.6,1311.5,1734.9,1734.9,1261.3,3.0,15.0,10.0,9033.0,12776.0,3440.0,3432.0,68.0,228.0,-72.0,1.0,-9.0,10.0,10752.0,10424.0,5540.0,3671.0,11.0,26.0,17.0,1.0
2022-05-03 14:44:08.299642-07:00,2922.4,653.0,1725.3,1765.6,1113.0,1482.9,1620.9,1752.1,3443.1,3443.1,2205.5,1604.9,1409.4,3440.7,1425.9,1905.6,3445.5,3445.5,785.2,1495.8,1039.2,634.3,1607.7,1925.2,3443.1,3446.7,792.7,969.6,1308.8,1734.9,1734.9,1261.3,2.0,2.0,-5.0,9001.0,12760.0,3536.0,3477.0,87.0,199.0,-120.0,5.0,-6.0,13.0,10741.0,10426.0,5552.0,3681.0,47.0,47.0,4.0,1.0
2022-05-03 14:44:08.300585-07:00,2867.2,659.5,1706.2,1765.6,1114.7,1482.9,1620.9,1752.1,3443.1,3451.6,2169.7,1604.9,1415.8,3440.7,1425.9,1905.6,3445.5,3445.5,785.2,1491.2,1039.2,634.3,1607.7,1928.2,3443.1,3446.7,792.7,990.2,1308.8,1729.1,1718.6,1263.1,-8.0,-13.0,-6.0,8955.0,12757.0,3627.0,3515.0,92.0,226.0,-71.0,-2.0,-11.0,8.0,10717.0,10440.0,5568.0,3688.0,56.0,42.0,22.0,1.0
2022-05-03 14:44:08.302108-07:00,2867.2,659.5,1706.2,1757.0,1105.1,1480.1,1604.9,1748.3,3443.1,3451.6,2169.7,1604.9,1406.7,3445.5,1396.7,1886.9,3438.2,3438.2,791.0,1493.0,1031.4,634.3,1607.7,1928.2,3450.4,3449.1,802.7,993.6,1311.5,1729.1,1718.6,1263.1,5.0,5.0,-7.0,8912.0,12760.0,3679.0,3558.0,53.0,145.0,2.0,0.0,-6.0,1.0,10696.0,10456.0,5572.0,3696.0,38.0,12.0,33.0,1.0
2022-05-03 14:44:08.358449-07:00,2821.3,666.0,1690.0,1748.3,1105.1,1480.1,1604.9,1748.3,3449.1,3445.5,2144.3,1592.7,1406.7,3445.5,1396.7,1886.9,3438.2,3438.2,791.0,1493.0,1034.0,635.9,1607.7,1919.3,3450.4,3449.1,802.7,993.6,1308.8,1717.7,1692.9,1263.1,4.0,-1.0,-13.0,8882.0,12765.0,3710.0,3583.0,44.0,55.0,-15.0,5.0,1.0,10.0,10687.0,10466.0,5566.0,3701.0,26.0,-1.0,26.0,1.0
2022-05-03 14:44:08.478176-07:00,2821.3,666.0,1690.0,1748.3,1097.3,1489.3,1603.0,1740.6,3449.1,3445.5,2144.3,1592.7,1406.7,3443.1,1380.3,1872.3,3440.7,3450.4,789.4,1482.9,1034.0,635.9,1607.7,1919.3,3443.1,3445.5,793.5,1003.9,1308.8,1717.7,1692.9,1263.1,3.0,-12.0,-9.0,8877.0,12769.0,3698.0,3593.0,-21.0,-31.0,86.0,-4.0,-10.0,1.0,10690.0,10469.0,5548.0,3711.0,-36.0,-25.0,54.0,1.0
2022-05-03 14:44:08.480880-07:00,2789.0,673.3,1667.2,1743.5,1097.3,1489.3,1603.0,1740.6,3449.1,3447.9,2102.7,1581.4,1406.7,3443.1,1380.3,1872.3,3440.7,3450.4,789.4,1482.9,1033.2,631.1,1610.5,1908.5,3443.1,3445.5,793.5,1003.9,1295.4,1710.0,1674.8,1266.7,-14.0,0.0,-21.0,8866.0,12779.0,3659.0,3625.0,-20.0,13.0,131.0,0.0,0.0,24.0,10698.0,10473.0,5516.0,3725.0,-44.0,-44.0,71.0,1.0
2022-05-03 14:44:08.537369-07:00,2789.0,673.3,1667.2,1743.5,1100.8,1479.2,1593.6,1756.0,3449.1,3447.9,2102.7,1581.4,1403.0,3449.1,1354.0,1870.3,3441.9,3444.3,787.7,1485.6,1033.2,631.1,1610.5,1908.5,3458.9,3451.6,800.2,1017.6,1295.4,1710.0,1674.8,1266.7,6.0,5.0,11.0,8877.0,12790.0,3578.0,3638.0,-77.0,-106.0,202.0,-3.0,-16.0,5.0,10716.0,10470.0,5476.0,3741.0,-76.0,-50.0,71.0,1.0
2022-05-03 14:44:08.717525-07:00,2752.5,679.1,1653.0,1736.8,1100.8,1479.2,1593.6,1756.0,3438.2,3446.7,2059.4,1573.0,1403.0,3449.1,1354.0,1855.7,3441.9,3444.3,787.7,1485.6,1028.8,632.7,1615.2,1899.7,3443.1,3451.6,800.2,1017.6,1290.0,1710.0,1654.9,1263.1,10.0,39.0,6.0,8896.0,12798.0,3483.0,3656.0,-47.0,-130.0,143.0,4.0,-1.0,1.0,10740.0,10461.0,5436.0,3756.0,-69.0,-52.0,48.0,1.0
2022-05-03 14:44:08.719949-07:00,2743.6,679.1,1653.0,1736.8,1091.2,1482.9,1570.2,1756.0,3449.1,3446.7,2059.4,1573.0,1408.5,3450.4,1334.1,1855.7,3441.9,3438.2,791.0,1482.9,1028.8,632.7,1615.2,1898.7,3443.1,3458.9,784.4,1021.1,1290.0,1710.0,1654.9,1258.7,-3.0,39.0,38.0,8918.0,12793.0,3462.0,3639.0,-107.0,-5.0,-94.0,6.0,-10.0,16.0,10765.0,10446.0,5412.0,3759.0,-97.0,-30.0,-8.0,1.0
2022-05-03 14:44:08.720862-07:00,2743.6,686.4,1628.4,1727.2,1091.2,1482.9,1570.2,1755.0,3449.1,3449.1,2042.4,1578.6,1408.5,3450.4,1334.1,1842.0,3445.5,3438.2,791.0,1482.9,1028.8,639.2,1613.4,1898.7,3449.1,3458.9,784.4,1021.1,1294.5,1698.6,1650.2,1258.7,-6.0,-28.0,6.0,8958.0,12757.0,3495.0,3640.0,-29.0,47.0,-57.0,2.0,-22.0,31.0,10791.0,10421.0,5403.0,3768.0,-43.0,6.0,0.0,1.0
2022-05-03 14:44:08.777852-07:00,2728.2,686.4,1628.4,1727.2,1088.6,1483.8,1558.1,1755.0,3450.4,3449.1,2042.4,1578.6,1406.7,3445.5,1310.6,1842.0,3445.5,3444.3,786.9,1500.4,1028.8,639.2,1613.4,1889.9,3449.1,3446.7,786.1,1011.6,1294.5,1698.6,1650.2,1264.9,-5.0,-15.0,-7.0,8947.0,12777.0,3475.0,3614.0,49.0,-144.0,66.0,2.0,-16.0,16.0,10783.0,10430.0,5406.0,3763.0,41.0,6.0,6.0,1.0
2022-05-03 14:44:08.780682-07:00,2728.2,684.0,1615.2,1730.1,1088.6,1483.8,1558.1,1749.3,3450.4,3445.5,2039.4,1566.5,1406.7,3445.5,1310.6,1839.1,3447.9,3444.3,786.9,1500.4,1023.7,634.3,1607.7,1889.9,3449.1,3446.7,786.1,1011.6,1285.5,1694.8,1634.1,1264.9,4.0,21.0,7.0,8949.0,12796.0,3416.0,3597.0,-36.0,-71.0,73.0,0.0,-10.0,8.0,10783.0,10433.0,5398.0,3763.0,-38.0,-30.0,20.0,1.0
2022-05-03 14:44:08.837840-07:00,2713.9,684.0,1615.2,1730.1,1082.5,1470.9,1540.3,1749.3,3445.5,3445.5,2039.4,1566.5,1395.7,3443.1,1311.5,1839.1,3447.9,3443.1,791.9,1490.3,1023.7,634.3,1607.7,1891.8,3449.1,3450.4,785.2,1003.9,1285.5,1694.8,1634.1,1263.1,2.0,16.0,22.0,8971.0,12792.0,3396.0,3577.0,-24.0,-67.0,-45.0,8.0,-11.0,17.0,10792.0,10427.0,5395.0,3762.0,2.0,11.0,-20.0,1.0
2022-05-03 14:44:08.897658-07:00,2713.9,682.3,1603.0,1728.2,1082.5,1470.9,1521.8,1755.0,3445.5,3446.7,2018.4,1562.7,1395.7,3443.1,1290.0,1838.2,3447.9,3449.1,791.9,1490.3,1028.8,632.7,1608.7,1891.8,3449.1,3447.9,785.2,1003.9,1298.1,1677.6,1618.1,1263.1,4.0,6.0,21.0,8979.0,12786.0,3418.0,3558.0,20.0,61.0,-85.0,0.0,-11.0,10.0,10786.0,10427.0,5410.0,3757.0,25.0,27.0,-25.0,1.0
2022-05-03 14:44:08.898951-07:00,2702.9,676.6,1603.0,1728.2,1084.2,1465.4,1521.8,1755.0,3452.8,3439.5,2018.4,1562.7,1396.7,3447.9,1290.0,1838.2,3447.9,3449.1,786.9,1482.9,1028.8,632.7,1596.4,1884.0,3449.1,3447.9,784.4,1003.0,1298.1,1677.6,1608.7,1259.6,3.0,-13.0,-6.0,8962.0,12789.0,3449.0,3561.0,77.0,35.0,3.0,2.0,-14.0,13.0,10765.0,10437.0,5431.0,3757.0,79.0,49.0,-4.0,1.0
2022-05-03 14:44:09.047629-07:00,2702.9,676.6,1598.3,1711.9,1084.2,1465.4,1526.4,1748.3,3452.8,3439.5,2004.5,1556.2,1396.7,3447.9,1292.7,1827.5,3438.2,3446.7,786.9,1482.9,1024.5,634.3,1596.4,1884.0,3451.6,3449.1,784.4,1003.0,1295.4,1687.2,1608.7,1259.6,5.0,13.0,-15.0,8937.0,12802.0,3456.0,3568.0,40.0,22.0,7.0,0.0,-3.0,0.0,10746.0,10449.0,5446.0,3759.0,30.0,18.0,3.0,1.0
2022-05-03 14:44:09.078577-07:00,2689.7,676.6,1598.3,1711.9,1083.4,1461.7,1526.4,1748.3,3440.7,3449.1,2004.5,1556.2,1401.2,3454.0,1292.7,1827.5,3438.2,3446.7,783.6,1481.0,1024.5,634.3,1593.6,1875.2,3451.6,3449.1,786.9,994.5,1295.4,1687.2,1602.1,1252.4,4.0,-6.0,-9.0,8944.0,12797.0,3457.0,3569.0,-48.0,-17.0,-6.0,2.0,-13.0,6.0,10747.0,10447.0,5446.0,3761.0,-25.0,-6.0,-2.0,1.0
2022-05-03 14:44:09.227774-07:00,2689.7,676.6,1586.1,1711.0,1083.4,1461.7,1513.4,1748.3,3440.7,3449.1,1998.5,1558.1,1401.2,3454.0,1287.3,1816.8,3441.9,3444.3,783.6,1481.0,1028.8,631.1,1593.6,1875.2,3444.3,3445.5,786.9,994.5,1290.9,1687.2,1602.1,1252.4,0.0,0.0,-5.0,8954.0,12798.0,3435.0,3558.0,-11.0,-75.0,32.0,0.0,-11.0,12.0,10754.0,10443.0,5441.0,3761.0,-21.0,-14.0,5.0,1.0
2022-05-03 14:44:09.229013-07:00,2678.8,673.3,1586.1,1711.0,1077.3,1451.6,1513.4,1748.3,3445.5,3443.1,1996.5,1558.1,1398.5,3440.7,1287.3,1816.8,3441.9,3444.3,785.2,1492.1,1028.8,631.9,1593.6,1880.1,3444.3,3445.5,777.8,990.2,1290.9,1676.7,1592.7,1274.7,2.0,1.0,5.0,8967.0,12803.0,3402.0,3540.0,-27.0,-75.0,32.0,0.0,-8.0,9.0,10760.0,10439.0,5435.0,3759.0,-15.0,-13.0,1.0,1.0
2022-05-03 14:44:09.229969-07:00,2678.8,673.3,1586.1,1708.1,1077.3,1455.2,1511.5,1739.7,3445.5,3443.1,1996.5,1556.2,1398.5,3454.0,1281.9,1815.8,3446.7,3438.2,786.1,1492.1,1029.7,631.9,1593.6,1880.1,3446.7,3450.4,780.3,990.2,1291.8,1676.7,1592.7,1274.7,3.0,13.0,10.0,8973.0,12805.0,3382.0,3535.0,-6.0,-13.0,15.0,1.0,-7.0,16.0,10767.0,10436.0,5430.0,3757.0,-14.0,-12.0,3.0,1.0
2022-05-03 14:44:09.231024-07:00,2684.3,676.6,1585.2,1708.1,1079.0,1455.2,1511.5,1739.7,3435.8,3446.7,1985.6,1556.2,1392.1,3454.0,1281.9,1815.8,3446.7,3438.2,786.1,1487.5,1029.7,632.7,1589.9,1873.2,3446.7,3450.4,780.3,994.5,1291.8,1679.5,1596.4,1261.3,2.0,0.0,8.0,8974.0,12804.0,3382.0,3536.0,-2.0,3.0,1.0,0.0,-12.0,15.0,10767.0,10436.0,5430.0,3757.0,8.0,4.0,-2.0,1.0
2022-05-03 14:44:09.287461-07:00,2684.3,676.6,1585.2,1707.2,1079.0,1451.6,1503.2,1737.8,3435.8,3446.7,1985.6,1555.3,1392.1,3445.5,1263.1,1811.9,3440.7,3449.1,783.6,1487.5,1042.6,632.7,1589.9,1873.2,3444.3,3450.4,779.4,994.5,1295.4,1679.5,1596.4,1261.3,4.0,6.0,4.0,8971.0,12806.0,3378.0,3540.0,-1.0,15.0,15.0,2.0,-10.0,8.0,10765.0,10439.0,5430.0,3756.0,2.0,-4.0,5.0,1.0
2022-05-03 14:44:09.289072-07:00,2675.5,676.6,1591.7,1707.2,1075.6,1451.6,1503.2,1737.8,3438.2,3449.1,1985.6,1555.3,1396.7,3445.5,1263.1,1811.9,3440.7,3449.1,783.6,1479.2,1042.6,635.1,1589.9,1875.2,3444.3,3450.4,779.4,986.7,1295.4,1668.2,1589.9,1263.1,7.0,10.0,1.0,8970.0,12806.0,3381.0,3542.0,10.0,2.0,-16.0,1.0,-10.0,11.0,10764.0,10439.0,5431.0,3756.0,13.0,1.0,-6.0,1.0
2022-05-03 14:44:09.587586-07:00,2675.5,676.6,1591.7,1708.1,1075.6,1456.2,1506.9,1739.7,3438.2,3449.1,1985.6,1558.1,1396.7,3438.2,1277.4,1803.2,3444.3,3449.1,786.9,1479.2,1024.5,635.1,1589.9,1875.2,3454.0,3447.9,772.8,986.7,1296.3,1668.2,1589.9,1263.1,7.0,1.0,2.0,8971.0,12804.0,3387.0,3539.0,3.0,12.0,-13.0,1.0,-11.0,8.0,10762.0,10441.0,5431.0,3755.0,-2.0,1.0,-5.0,1.0
2022-05-03 14:44:09.589369-07:00,2665.7,669.3,1576.8,1708.1,1077.3,1456.2,1506.9,1739.7,3449.1,3447.9,1974.6,1563.7,1397.6,3438.2,1277.4,1803.2,3444.3,3449.1,786.9,1490.3,1027.1,631.1,1585.2,1877.2,3454.0,3447.9,772.8,989.3,1289.1,1670.1,1593.6,1259.6,0.0,6.0,4.0,8970.0,12804.0,3391.0,3541.0,-3.0,4.0,-10.0,0.0,-10.0,13.0,10762.0,10441.0,5431.0,3755.0,4.0,5.0,-8.0,1.0
2022-05-03 14:44:09.590332-07:00,2665.7,669.3,1576.8,1708.1,1066.0,1453.4,1507.8,1737.8,3449.1,3447.9,1974.6,1563.7,1392.1,3450.4,1285.5,1805.2,3441.9,3441.9,784.4,1484.7,1027.1,631.1,1585.2,1877.2,3438.2,3446.7,778.6,988.5,1289.1,1670.1,1593.6,1259.6,1.0,0.0,1.0,8971.0,12805.0,3387.0,3538.0,0.0,-29.0,12.0,0.0,-11.0,12.0,10761.0,10442.0,5432.0,3754.0,10.0,8.0,-3.0,1.0
2022-05-03 14:44:09.591185-07:00,2668.9,672.5,1578.6,1703.3,1066.0,1453.4,1507.8,1737.8,3451.6,3443.1,1972.7,1556.2,1392.1,3450.4,1285.5,1805.2,3441.9,3441.9,784.4,1484.7,1028.0,631.9,1581.4,1862.5,3438.2,3446.7,778.6,988.5,1289.1,1671.0,1585.2,1269.4,0.0,8.0,-7.0,8973.0,12812.0,3364.0,3528.0,-16.0,-79.0,45.0,-2.0,-6.0,11.0,10758.0,10446.0,5433.0,3752.0,9.0,-7.0,6.0,1.0
2022-05-03 14:44:09.593525-07:00,2668.9,672.5,1578.6,1703.3,1072.1,1454.3,1494.9,1741.6,3451.6,3443.1,1972.7,1556.2,1393.9,3449.1,1268.5,1807.1,3433.4,3433.4,785.2,1477.3,1028.0,631.9,1581.4,1862.5,3446.7,3450.4,771.1,985.9,1289.1,1671.0,1585.2,1269.4,11.0,6.0,10.0,8987.0,12813.0,3332.0,3521.0,-57.0,-41.0,44.0,0.0,-8.0,4.0,10763.0,10443.0,5428.0,3752.0,-32.0,-16.0,9.0,1.0
2022-05-03 14:44:09.648267-07:00,2655.8,667.6,1575.8,1704.3,1072.1,1454.3,1494.9,1741.6,3445.5,3443.1,1971.7,1545.9,1393.9,3449.1,1268.5,1807.1,3433.4,3433.4,785.2,1477.3,1031.4,638.4,1587.1,1863.5,3446.7,3450.4,771.1,985.9,1288.2,1663.4,1589.9,1264.0,6.0,10.0,7.0,9002.0,12808.0,3309.0,3522.0,-23.0,-14.0,17.0,1.0,-9.0,12.0,10769.0,10438.0,5425.0,3754.0,-10.0,-3.0,3.0,1.0
2022-05-03 14:44:09.650274-07:00,2643.9,667.6,1575.8,1704.3,1069.5,1440.5,1496.7,1741.6,3449.1,3443.1,1971.7,1545.9,1386.6,3447.9,1266.7,1804.2,3440.7,3446.7,788.6,1483.8,1031.4,638.4,1587.1,1866.4,3447.9,3444.3,778.6,983.3,1288.2,1663.4,1589.9,1262.2,4.0,-1.0,3.0,9008.0,12805.0,3303.0,3525.0,7.0,1.0,21.0,2.0,-13.0,14.0,10770.0,10436.0,5424.0,3754.0,6.0,8.0,6.0,1.0
2022-05-03 14:44:09.707504-07:00,2643.9,662.7,1575.8,1706.2,1069.5,1440.5,1496.7,1729.1,3449.1,3449.1,1967.7,1550.6,1386.6,3447.9,1266.7,1801.3,3435.8,3446.7,788.6,1483.8,1025.4,634.3,1580.5,1866.4,3446.7,3444.3,778.6,983.3,1288.2,1659.6,1584.2,1262.2,5.0,6.0,3.0,9001.0,12810.0,3301.0,3527.0,0.0,9.0,-6.0,4.0,-12.0,9.0,10768.0,10438.0,5426.0,3755.0,2.0,4.0,-5.0,1.0
2022-05-03 14:44:09.797700-07:00,2637.3,662.7,1575.8,1706.2,1064.3,1446.0,1496.7,1729.1,3444.3,3449.1,1967.7,1550.6,1391.2,3441.9,1262.2,1801.3,3435.8,3449.1,783.6,1487.5,1025.4,634.3,1580.5,1866.4,3446.7,3440.7,764.5,979.9,1288.2,1659.6,1584.2,1261.3,1.0,6.0,1.0,8996.0,12812.0,3304.0,3527.0,20.0,-14.0,6.0,-2.0,-7.0,14.0,10764.0,10441.0,5428.0,3753.0,15.0,5.0,-3.0,1.0
2022-05-03 14:44:09.918354-07:00,2637.3,663.6,1562.7,1707.2,1064.3,1446.0,1496.7,1739.7,3444.3,3440.7,1968.7,1543.1,1391.2,3441.9,1262.2,1816.8,3438.2,3449.1,783.6,1487.5,1021.9,630.3,1573.0,1866.4,3450.4,3440.7,764.5,979.9,1289.1,1664.4,1586.1,1261.3,0.0,2.0,-5.0,8995.0,12817.0,3295.0,3521.0,11.0,-52.0,35.0,-5.0,-9.0,13.0,10763.0,10443.0,5428.0,3753.0,18.0,-6.0,6.0,1.0
2022-05-03 14:44:09.947802-07:00,2641.7,663.6,1562.7,1707.2,1062.5,1442.4,1488.4,1739.7,3443.1,3440.7,1968.7,1543.1,1387.5,3444.3,1267.6,1816.8,3438.2,3449.1,780.3,1485.6,1021.9,630.3,1573.0,1873.2,3450.4,3438.2,765.3,990.2,1289.1,1664.4,1586.1,1264.0,12.0,11.0,6.0,8996.0,12827.0,3269.0,3507.0,-6.0,-48.0,18.0,1.0,-3.0,3.0,10761.0,10444.0,5429.0,3752.0,-10.0,-7.0,6.0,1.0
2022-05-03 14:44:10.007323-07:00,2641.7,667.6,1569.3,1692.9,1062.5,1442.4,1488.4,1729.1,3443.1,3450.4,1960.8,1545.0,1387.5,3444.3,1267.6,1799.4,3449.1,3449.1,780.3,1485.6,1026.3,635.1,1573.0,1873.2,3446.7,3438.2,765.3,990.2,1287.3,1666.3,1582.4,1264.0,0.0,0.0,10.0,9005.0,12823.0,3262.0,3506.0,-29.0,11.0,-2.0,0.0,-11.0,16.0,10766.0,10439.0,5427.0,3755.0,-7.0,3.0,3.0,1.0
2022-05-03 14:44:10.008496-07:00,2633.0,661.1,1569.3,1692.9,1063.4,1444.2,1484.7,1729.1,3447.9,3450.4,1960.8,1545.0,1407.6,3445.5,1266.7,1799.4,3449.1,3446.7,785.2,1482.9,1026.3,635.1,1573.9,1863.5,3446.7,3451.6,770.3,976.5,1287.3,1666.3,1576.8,1262.2,8.0,12.0,7.0,9004.0,12823.0,3261.0,3509.0,18.0,8.0,12.0,0.0,-9.0,9.0,10761.0,10443.0,5430.0,3753.0,23.0,11.0,4.0,1.0
2022-05-03 14:44:10.038391-07:00,2633.0,661.1,1563.7,1694.8,1063.4,1444.2,1485.6,1732.0,3447.9,3450.4,1958.8,1545.0,1407.6,3445.5,1261.3,1796.5,3441.9,3441.9,785.2,1482.9,1022.8,637.6,1573.9,1863.5,3446.7,3449.1,770.3,976.5,1290.0,1657.7,1576.8,1262.2,3.0,8.0,1.0,8998.0,12824.0,3266.0,3515.0,3.0,24.0,-10.0,2.0,-10.0,12.0,10758.0,10444.0,5433.0,3756.0,9.0,12.0,-5.0,1.0
2022-05-03 14:44:10.067996-07:00,2627.5,666.0,1563.7,1694.8,1063.4,1445.1,1485.6,1732.0,3444.3,3445.5,1958.8,1545.0,1391.2,3446.7,1261.3,1796.5,3441.9,3441.9,781.9,1481.9,1022.8,637.6,1576.8,1860.6,3446.7,3449.1,768.7,978.2,1290.0,1657.7,1574.9,1271.2,0.0,3.0,-3.0,8994.0,12825.0,3272.0,3516.0,30.0,-24.0,1.0,-1.0,-10.0,9.0,10752.0,10448.0,5437.0,3754.0,17.0,7.0,-1.0,1.0
2022-05-03 14:44:10.127689-07:00,2627.5,666.0,1559.9,1689.1,1063.4,1445.1,1483.8,1730.1,3444.3,3445.5,1951.9,1541.3,1391.2,3446.7,1258.7,1789.7,3438.2,3439.5,781.9,1481.9,1021.1,631.1,1576.8,1860.6,3443.1,3454.0,768.7,978.2,1286.4,1655.8,1574.9,1271.2,8.0,12.0,6.0,8993.0,12827.0,3270.0,3512.0,-31.0,5.0,-2.0,2.0,-3.0,9.0,10756.0,10445.0,5436.0,3756.0,-24.0,-1.0,2.0,1.0
2022-05-03 14:44:10.157318-07:00,2628.6,665.2,1559.9,1689.1,1066.9,1436.9,1483.8,1730.1,3438.2,3445.5,1951.9,1541.3,1391.2,3444.3,1258.7,1789.7,3438.2,3439.5,781.1,1483.8,1021.1,631.1,1574.9,1857.6,3443.1,3454.0,768.7,980.7,1286.4,1655.8,1573.0,1259.6,3.0,0.0,5.0,8999.0,12821.0,3275.0,3513.0,2.0,9.0,-18.0,0.0,-12.0,16.0,10758.0,10442.0,5435.0,3758.0,10.0,10.0,-8.0,1.0
2022-05-03 14:44:10.188390-07:00,2628.6,665.2,1566.5,1693.8,1066.9,1441.5,1492.1,1741.6,3438.2,3445.5,1951.9,1545.0,1391.2,3446.7,1257.8,1785.8,3446.7,3446.7,784.4,1483.8,1022.8,633.5,1574.9,1857.6,3439.5,3454.0,769.5,980.7,1283.7,1653.0,1573.0,1259.6,1.0,12.0,1.0,8994.0,12824.0,3279.0,3514.0,16.0,24.0,7.0,0.0,-6.0,11.0,10755.0,10444.0,5437.0,3758.0,6.0,3.0,5.0,1.0
2022-05-03 14:44:10.308034-07:00,2623.2,657.0,1555.3,1693.8,1063.4,1441.5,1492.1,1741.6,3444.3,3445.5,1946.9,1545.0,1385.7,3446.7,1257.8,1785.8,3446.7,3446.7,784.4,1485.6,1022.8,630.3,1569.3,1865.4,3439.5,3454.0,769.5,973.1,1283.7,1653.9,1574.9,1271.2,4.0,5.0,6.0,8993.0,12823.0,3280.0,3516.0,-5.0,6.0,-4.0,2.0,-11.0,9.0,10755.0,10444.0,5437.0,3758.0,1.0,0.0,-4.0,1.0
2022-05-03 14:44:10.309540-07:00,2623.2,657.0,1555.3,1692.9,1063.4,1448.8,1491.2,1732.0,3444.3,3445.5,1946.9,1546.9,1385.7,3449.1,1257.8,1795.5,3438.2,3443.1,783.6,1485.6,1021.1,630.3,1569.3,1865.4,3450.4,3440.7,763.7,973.1,1278.3,1653.9,1574.9,1271.2,1.0,4.0,2.0,8995.0,12822.0,3280.0,3517.0,2.0,-2.0,8.0,1.0,-9.0,12.0,10755.0,10444.0,5437.0,3758.0,2.0,0.0,3.0,1.0
2022-05-03 14:44:10.337816-07:00,2621.0,662.7,1561.8,1692.9,1056.5,1448.8,1491.2,1732.0,3450.4,3446.7,1943.0,1546.9,1389.4,3449.1,1257.8,1795.5,3438.2,3443.1,783.6,1481.9,1021.1,636.7,1574.9,1856.7,3450.4,3440.7,763.7,979.9,1278.3,1655.8,1574.9,1271.2,8.0,5.0,5.0,8996.0,12821.0,3280.0,3517.0,-10.0,-4.0,-6.0,2.0,-9.0,14.0,10756.0,10443.0,5437.0,3759.0,-10.0,-2.0,-2.0,1.0
2022-05-03 14:44:10.517477-07:00,2621.0,662.7,1561.8,1691.9,1056.5,1444.2,1484.7,1731.1,3450.4,3446.7,1943.0,1536.6,1389.4,3443.1,1263.1,1786.8,3440.7,3432.2,781.1,1481.9,1021.9,636.7,1574.9,1856.7,3447.9,3444.3,764.5,979.9,1281.0,1655.8,1574.9,1271.2,2.0,3.0,8.0,8997.0,12820.0,3282.0,3516.0,3.0,5.0,-9.0,0.0,-12.0,13.0,10756.0,10443.0,5437.0,3759.0,1.0,3.0,-3.0,1.0
2022-05-03 14:44:10.578125-07:00,2613.4,666.8,1549.7,1691.9,1061.7,1444.2,1484.7,1731.1,3439.5,3445.5,1948.9,1536.6,1387.5,3443.1,1263.1,1786.8,3440.7,3432.2,781.1,1483.8,1021.9,635.9,1568.3,1855.7,3447.9,3444.3,764.5,975.6,1281.0,1655.8,1553.4,1260.4,0.0,3.0,2.0,8997.0,12819.0,3283.0,3518.0,3.0,10.0,7.0,0.0,-12.0,11.0,10756.0,10443.0,5437.0,3759.0,6.0,0.0,2.0,1.0
2022-05-03 14:44:10.637566-07:00,2613.4,666.8,1549.7,1691.9,1063.4,1437.8,1480.1,1731.1,3439.5,3445.5,1948.9,1538.5,1392.1,3451.6,1256.9,1782.9,3443.1,3438.2,777.8,1484.7,1021.9,635.9,1568.3,1855.7,3447.9,3454.0,768.7,973.9,1281.0,1655.8,1553.4,1260.4,7.0,6.0,4.0,8997.0,12820.0,3282.0,3516.0,3.0,-14.0,2.0,1.0,-10.0,8.0,10756.0,10443.0,5437.0,3758.0,2.0,-1.0,1.0,1.0
2022-05-03 14:44:10.638700-07:00,2616.7,661.1,1552.5,1678.6,1063.4,1437.8,1480.1,1731.1,3449.1,3440.7,1944.0,1541.3,1392.1,3451.6,1256.9,1782.9,3443.1,3438.2,777.8,1484.7,1024.5,634.3,1574.9,1856.7,3447.9,3454.0,768.7,973.9,1278.3,1657.7,1560.9,1266.7,2.0,1.0,8.0,9000.0,12818.0,3281.0,3517.0,4.0,0.0,3.0,0.0,-6.0,9.0,10756.0,10443.0,5437.0,3759.0,10.0,-4.0,4.0,1.0
2022-05-03 14:44:10.639827-07:00,2616.7,661.1,1552.5,1678.6,1065.1,1441.5,1477.3,1728.2,3449.1,3440.7,1944.0,1541.3,1389.4,3445.5,1252.4,1789.7,3441.9,3440.7,784.4,1484.7,1024.5,634.3,1574.9,1856.7,3449.1,3449.1,762.9,976.5,1278.3,1657.7,1560.9,1266.7,6.0,5.0,1.0,8999.0,12819.0,3281.0,3515.0,-2.0,-10.0,7.0,-1.0,-10.0,8.0,10755.0,10444.0,5437.0,3758.0,4.0,-2.0,7.0,1.0
2022-05-03 14:44:10.641558-07:00,2625.4,660.3,1554.3,1689.1,1065.1,1441.5,1477.3,1728.2,3446.7,3443.1,1939.0,1537.6,1389.4,3445.5,1252.4,1789.7,3441.9,3440.7,784.4,1484.7,1028.8,635.9,1567.4,1853.7,3449.1,3449.1,762.9,976.5,1289.1,1652.0,1559.0,1261.3,4.0,3.0,2.0,8999.0,12820.0,3278.0,3513.0,1.0,1.0,-4.0,3.0,-5.0,10.0,10754.0,10445.0,5438.0,3758.0,-3.0,4.0,-2.0,1.0
2022-05-03 14:44:10.817545-07:00,2625.4,660.3,1554.3,1689.1,1060.8,1450.6,1481.9,1729.1,3446.7,3443.1,1939.0,1537.6,1387.5,3449.1,1253.3,1778.1,3441.9,3449.1,774.5,1479.2,1028.8,635.9,1567.4,1853.7,3449.1,3450.4,766.2,977.3,1289.1,1652.0,1559.0,1261.3,3.0,6.0,0.0,8999.0,12820.0,3278.0,3513.0,3.0,4.0,-2.0,-2.0,-9.0,10.0,10754.0,10445.0,5438.0,3758.0,4.0,0.0,-1.0,1.0
2022-05-03 14:44:10.818510-07:00,2601.5,651.4,1548.7,1687.2,1060.8,1450.6,1481.9,1729.1,3445.5,3434.6,1944.0,1543.1,1387.5,3449.1,1253.3,1782.9,3437.0,3449.1,774.5,1479.2,1021.9,629.5,1569.3,1856.7,3445.5,3450.4,766.2,977.3,1282.8,1653.9,1563.7,1261.3,4.0,2.0,5.0,8999.0,12820.0,3278.0,3513.0,-9.0,4.0,-6.0,0.0,-8.0,7.0,10754.0,10445.0,5438.0,3758.0,-4.0,4.0,0.0,1.0
2022-05-03 14:44:10.878424-07:00,2625.4,651.4,1548.7,1687.2,1057.3,1436.0,1478.3,1729.1,3458.9,3434.6,1944.0,1543.1,1384.8,3449.1,1259.6,1782.9,3437.0,3444.3,778.6,1481.9,1021.9,629.5,1569.3,1845.9,3445.5,3445.5,766.2,971.3,1282.8,1653.9,1563.7,1261.3,4.0,7.0,6.0,8999.0,12820.0,3278.0,3513.0,1.0,1.0,0.0,4.0,-7.0,11.0,10754.0,10445.0,5438.0,3758.0,7.0,8.0,-1.0,1.0
2022-05-03 14:44:10.879972-07:00,2625.4,658.7,1550.6,1685.3,1057.3,1436.0,1478.3,1733.0,3458.9,3445.5,1936.1,1531.0,1384.8,3449.1,1259.6,1780.1,3445.5,3444.3,778.6,1481.9,1025.4,631.9,1565.5,1845.9,3446.7,3445.5,766.2,971.3,1277.4,1658.7,1562.7,1261.3,5.0,2.0,3.0,8999.0,12820.0,3278.0,3513.0,-4.0,2.0,0.0,-1.0,-9.0,10.0,10754.0,10445.0,5438.0,3758.0,-1.0,-2.0,1.0,1.0
2022-05-03 14:44:10.937788-07:00,2598.3,658.7,1550.6,1685.3,1061.7,1441.5,1478.3,1733.0,3438.2,3445.5,1936.1,1531.0,1383.0,3443.1,1245.3,1780.1,3445.5,3435.8,781.1,1481.0,1025.4,631.9,1565.5,1849.8,3446.7,3447.9,761.2,973.1,1277.4,1658.7,1562.7,1259.6,3.0,7.0,7.0,8999.0,12820.0,3278.0,3513.0,2.0,-1.0,1.0,0.0,-9.0,12.0,10754.0,10445.0,5438.0,3758.0,3.0,1.0,-1.0,1.0
2022-05-03 14:44:10.939007-07:00,2598.3,666.8,1547.8,1690.0,1061.7,1441.5,1478.3,1730.1,3438.2,3454.0,1942.0,1538.5,1383.0,3443.1,1245.3,1782.9,3441.9,3435.8,781.1,1481.0,1026.3,637.6,1559.9,1849.8,3450.4,3447.9,761.2,973.1,1281.9,1650.2,1553.4,1259.6,0.0,0.0,3.0,8999.0,12820.0,3278.0,3513.0,-8.0,5.0,-9.0,-1.0,-12.0,9.0,10754.0,10445.0,5438.0,3758.0,-2.0,1.0,0.0,1.0
2022-05-03 14:44:10.998098-07:00,2596.1,666.8,1547.8,1690.0,1053.9,1431.4,1474.6,1730.1,3444.3,3454.0,1942.0,1538.5,1378.5,3445.5,1254.2,1782.9,3441.9,3444.3,787.7,1481.9,1026.3,637.6,1559.9,1852.8,3450.4,3446.7,766.2,971.3,1281.9,1650.2,1553.4,1270.3,7.0,9.0,1.0,9000.0,12820.0,3278.0,3513.0,5.0,-9.0,2.0,5.0,-8.0,9.0,10754.0,10445.0,5438.0,3758.0,-2.0,-2.0,-2.0,1.0
2022-05-03 14:44:11.057347-07:00,2596.1,657.0,1549.7,1686.2,1053.9,1431.4,1480.1,1726.3,3444.3,3441.9,1945.0,1532.9,1378.5,3445.5,1253.3,1784.9,3444.3,3440.7,787.7,1481.9,1019.4,634.3,1560.9,1852.8,3438.2,3457.6,766.2,971.3,1271.2,1649.2,1549.7,1270.3,4.0,3.0,4.0,9003.0,12818.0,3276.0,3512.0,-15.0,-2.0,8.0,0.0,-12.0,12.0,10755.0,10444.0,5437.0,3758.0,-6.0,0.0,2.0,1.0
2022-05-03 14:44:11.118300-07:00,2601.5,660.3,1549.7,1686.2,1059.9,1436.0,1480.1,1726.3,3437.0,3449.1,1945.0,1532.9,1389.4,3441.9,1253.3,1784.9,3444.3,3440.7,780.3,1485.6,1019.4,634.3,1559.9,1850.8,3438.2,3457.6,764.5,969.6,1271.2,1649.2,1557.1,1258.7,5.0,10.0,3.0,9004.0,12818.0,3274.0,3512.0,3.0,-4.0,4.0,-1.0,-9.0,9.0,10755.0,10444.0,5437.0,3758.0,1.0,1.0,3.0,1.0
2022-05-03 14:44:11.148293-07:00,2601.5,660.3,1540.3,1679.5,1059.9,1436.0,1480.1,1722.4,3437.0,3449.1,1927.2,1537.6,1389.4,3441.9,1257.8,1782.9,3444.3,3449.1,780.3,1485.6,1017.6,631.1,1559.9,1850.8,3440.7,3452.8,764.5,969.6,1283.7,1648.3,1557.1,1258.7,4.0,4.0,5.0,9007.0,12817.0,3274.0,3512.0,-12.0,5.0,1.0,1.0,-9.0,12.0,10755.0,10444.0,5437.0,3758.0,1.0,2.0,1.0,1.0
2022-05-03 14:44:11.267736-07:00,2601.5,661.1,1540.3,1679.5,1055.6,1434.1,1480.1,1722.4,3438.2,3445.5,1927.2,1537.6,1390.3,3438.2,1257.8,1782.9,3444.3,3449.1,780.3,1478.3,1017.6,631.1,1563.7,1869.3,3440.7,3452.8,764.5,973.1,1283.7,1648.3,1552.5,1259.6,6.0,5.0,9.0,9007.0,12817.0,3274.0,3512.0,1.0,8.0,0.0,1.0,-11.0,12.0,10755.0,10444.0,5437.0,3758.0,1.0,3.0,3.0,1.0
2022-05-03 14:44:11.269027-07:00,2601.5,661.1,1545.0,1674.8,1055.6,1434.1,1473.6,1734.9,3438.2,3445.5,1938.0,1538.5,1390.3,3438.2,1241.7,1779.1,3445.5,3441.9,780.3,1478.3,1022.8,631.1,1563.7,1869.3,3449.1,3438.2,764.5,973.1,1279.2,1645.4,1552.5,1259.6,6.0,7.0,2.0,9007.0,12817.0,3273.0,3511.0,4.0,-11.0,-1.0,0.0,-7.0,11.0,10755.0,10444.0,5437.0,3758.0,7.0,1.0,3.0,1.0
2022-05-03 14:44:11.417444-07:00,2595.0,657.0,1545.0,1674.8,1052.2,1436.0,1473.6,1734.9,3449.1,3443.1,1923.3,1538.5,1390.3,3445.5,1241.7,1779.1,3445.5,3441.9,774.5,1474.6,1022.8,630.3,1559.9,1850.8,3449.1,3438.2,758.7,974.8,1279.2,1651.1,1559.9,1266.7,7.0,0.0,4.0,9007.0,12816.0,3273.0,3512.0,-4.0,3.0,3.0,0.0,-9.0,14.0,10755.0,10444.0,5437.0,3758.0,-1.0,-6.0,3.0,1.0
2022-05-03 14:44:11.419108-07:00,2595.0,657.0,1545.0,1676.7,1052.2,1433.2,1478.3,1720.5,3449.1,3443.1,1923.3,1529.2,1390.3,3446.7,1253.3,1773.3,3437.0,3446.7,781.1,1474.6,1022.8,630.3,1559.9,1850.8,3443.1,3449.1,762.9,974.8,1279.2,1651.1,1559.9,1266.7,3.0,5.0,6.0,9007.0,12817.0,3273.0,3511.0,10.0,0.0,1.0,0.0,-9.0,12.0,10755.0,10444.0,5437.0,3758.0,7.0,8.0,0.0,1.0
2022-05-03 14:44:11.419983-07:00,2590.7,654.6,1540.3,1676.7,1055.6,1433.2,1478.3,1720.5,3446.7,3437.0,1931.1,1529.2,1383.0,3446.7,1253.3,1773.3,3437.0,3446.7,781.1,1479.2,1022.8,631.9,1561.8,1846.9,3443.1,3449.1,762.9,972.2,1279.2,1647.3,1545.0,1248.0,7.0,3.0,2.0,9005.0,12818.0,3274.0,3511.0,7.0,5.0,4.0,0.0,-9.0,9.0,10753.0,10446.0,5438.0,3757.0,-1.0,2.0,3.0,1.0
2022-05-03 14:44:11.447833-07:00,2590.7,654.6,1540.3,1681.4,1055.6,1437.8,1473.6,1727.2,3446.7,3437.0,1931.1,1529.2,1383.0,3445.5,1244.4,1782.9,3437.0,3443.1,777.8,1479.2,1027.1,631.9,1561.8,1846.9,3445.5,3449.1,764.5,972.2,1280.1,1647.3,1545.0,1248.0,6.0,6.0,-1.0,9004.0,12820.0,3273.0,3509.0,11.0,-13.0,-3.0,1.0,-8.0,7.0,10753.0,10446.0,5438.0,3757.0,6.0,0.0,-3.0,1.0
2022-05-03 14:44:11.627933-07:00,2589.6,658.7,1546.9,1681.4,1056.5,1437.8,1473.6,1727.2,3446.7,3441.9,1929.2,1529.2,1377.5,3445.5,1244.4,1782.9,3437.0,3443.1,777.8,1485.6,1027.1,628.6,1561.8,1840.1,3445.5,3449.1,764.5,973.1,1280.1,1641.6,1551.5,1264.0,12.0,-4.0,4.0,9003.0,12821.0,3269.0,3508.0,12.0,-10.0,18.0,0.0,-11.0,12.0,10753.0,10446.0,5438.0,3757.0,2.0,-6.0,5.0,1.0
2022-05-03 14:44:11.629580-07:00,2589.6,658.7,1546.9,1681.4,1056.5,1435.0,1470.0,1733.9,3446.7,3441.9,1929.2,1533.8,1377.5,3449.1,1245.3,1772.3,3446.7,3444.3,778.6,1485.6,1019.4,628.6,1561.8,1840.1,3443.1,3440.7,758.7,973.1,1275.6,1641.6,1551.5,1264.0,4.0,8.0,3.0,8998.0,12827.0,3265.0,3505.0,20.0,-18.0,-2.0,2.0,-5.0,10.0,10752.0,10447.0,5438.0,3756.0,10.0,-1.0,1.0,1.0
2022-05-03 14:44:11.630534-07:00,2589.6,655.4,1536.6,1692.9,1063.4,1435.0,1470.0,1733.9,3444.3,3441.9,1932.1,1535.7,1382.1,3449.1,1245.3,1772.3,3446.7,3444.3,778.6,1481.0,1025.4,631.9,1557.1,1840.1,3443.1,3440.7,758.7,973.9,1280.1,1641.6,1548.7,1259.6,4.0,4.0,12.0,8996.0,12827.0,3270.0,3506.0,-5.0,29.0,-8.0,2.0,-10.0,13.0,10750.0,10449.0,5439.0,3755.0,4.0,13.0,2.0,1.0
2022-05-03 14:44:11.632081-07:00,2589.6,655.4,1536.6,1692.9,1053.0,1441.5,1470.9,1726.3,3444.3,3441.9,1932.1,1535.7,1385.7,3435.8,1241.7,1780.1,3445.5,3440.7,776.1,1478.3,1025.4,631.9,1557.1,1840.1,3450.4,3451.6,763.7,969.6,1280.1,1641.6,1548.7,1259.6,7.0,4.0,3.0,8990.0,12827.0,3277.0,3513.0,14.0,20.0,6.0,0.0,-11.0,13.0,10744.0,10452.0,5444.0,3757.0,18.0,9.0,6.0,1.0
2022-05-03 14:44:11.688079-07:00,2578.8,653.8,1545.0,1679.5,1053.0,1441.5,1470.9,1726.3,3441.9,3447.9,1934.1,1537.6,1385.7,3435.8,1241.7,1780.1,3445.5,3440.7,776.1,1478.3,1014.2,632.7,1549.7,1839.1,3450.4,3451.6,763.7,969.6,1275.6,1653.0,1552.5,1259.6,8.0,6.0,-2.0,8989.0,12827.0,3279.0,3516.0,0.0,4.0,1.0,1.0,-8.0,10.0,10740.0,10455.0,5447.0,3757.0,8.0,1.0,3.0,1.0
2022-05-03 14:44:11.748475-07:00,2578.8,653.8,1545.0,1679.5,1048.7,1431.4,1460.8,1725.3,3441.9,3447.9,1934.1,1537.6,1386.6,3449.1,1238.2,1772.3,3446.7,3445.5,771.1,1481.9,1014.2,632.7,1549.7,1839.1,3441.9,3443.1,754.6,962.8,1275.6,1653.0,1552.5,1259.6,2.0,0.0,-1.0,8989.0,12827.0,3279.0,3516.0,-2.0,-13.0,-2.0,0.0,-11.0,9.0,10740.0,10455.0,5447.0,3757.0,1.0,-1.0,2.0,1.0
2022-05-03 14:44:11.808182-07:00,2578.8,661.1,1542.2,1680.5,1048.7,1431.4,1460.8,1725.3,3447.9,3447.9,1915.4,1531.0,1386.6,3449.1,1238.2,1772.3,3446.7,3445.5,771.1,1481.9,1022.8,625.4,1562.7,1845.0,3441.9,3443.1,754.6,962.8,1275.6,1641.6,1550.6,1268.5,4.0,5.0,0.0,8989.0,12831.0,3267.0,3512.0,10.0,-30.0,22.0,0.0,-10.0,11.0,10740.0,10455.0,5446.0,3757.0,4.0,-12.0,10.0,1.0
2022-05-03 14:44:11.927865-07:00,2590.7,661.1,1542.2,1680.5,1050.4,1441.5,1471.8,1725.3,3449.1,3447.9,1915.4,1531.0,1380.3,3438.2,1244.4,1768.5,3449.1,3444.3,776.9,1477.3,1022.8,625.4,1562.7,1861.5,3440.7,3454.0,762.0,973.9,1275.6,1641.6,1550.6,1259.6,5.0,5.0,6.0,8989.0,12834.0,3259.0,3506.0,-7.0,-21.0,2.0,2.0,-9.0,12.0,10742.0,10457.0,5441.0,3755.0,-3.0,-9.0,3.0,1.0
2022-05-03 14:44:11.930793-07:00,2590.7,653.8,1531.0,1684.3,1050.4,1441.5,1471.8,1725.3,3449.1,3439.5,1929.2,1532.9,1380.3,3438.2,1244.4,1777.2,3439.5,3444.3,776.9,1477.3,1034.9,631.9,1556.2,1861.5,3445.5,3454.0,762.0,973.9,1279.2,1657.7,1552.5,1259.6,8.0,6.0,15.0,8989.0,12837.0,3253.0,3500.0,11.0,-9.0,13.0,3.0,-10.0,14.0,10741.0,10458.0,5442.0,3754.0,14.0,6.0,4.0,1.0
2022-05-03 14:44:11.931633-07:00,2588.5,653.8,1531.0,1684.3,1057.3,1436.0,1463.5,1725.3,3444.3,3439.5,1929.2,1532.9,1383.0,3444.3,1240.8,1777.2,3439.5,3439.5,779.4,1498.6,1034.9,631.9,1556.2,1833.3,3445.5,3445.5,762.9,971.3,1279.2,1657.7,1552.5,1264.0,4.0,8.0,8.0,8983.0,12840.0,3256.0,3504.0,14.0,32.0,5.0,-3.0,-11.0,15.0,10734.0,10462.0,5447.0,3755.0,23.0,20.0,3.0,1.0
2022-05-03 14:44:12.017726-07:00,2588.5,651.4,1545.0,1678.6,1057.3,1436.0,1463.5,1733.9,3444.3,3447.9,1918.3,1533.8,1383.0,3444.3,1240.8,1771.4,3443.1,3439.5,779.4,1498.6,1024.5,630.3,1556.2,1833.3,3447.9,3445.5,762.9,971.3,1279.2,1638.8,1553.4,1264.0,4.0,3.0,1.0,8975.0,12841.0,3261.0,3513.0,20.0,10.0,18.0,1.0,-7.0,9.0,10725.0,10467.0,5454.0,3756.0,19.0,11.0,11.0,1.0
2022-05-03 14:44:12.048304-07:00,2576.6,651.4,1545.0,1678.6,1058.2,1435.0,1464.4,1733.9,3437.0,3447.9,1918.3,1533.8,1383.0,3443.1,1248.0,1771.4,3443.1,3449.1,780.3,1481.9,1024.5,630.3,1556.2,1838.2,3447.9,3451.6,763.7,969.6,1279.2,1638.8,1553.4,1266.7,7.0,5.0,-1.0,8969.0,12845.0,3256.0,3518.0,-4.0,5.0,25.0,4.0,-8.0,8.0,10721.0,10471.0,5452.0,3758.0,1.0,-1.0,10.0,1.0
2022-05-03 14:44:12.107502-07:00,2576.6,657.9,1537.6,1678.6,1058.2,1435.0,1464.4,1728.2,3437.0,3443.1,1916.4,1526.4,1383.0,3443.1,1248.0,1775.2,3439.5,3449.1,780.3,1481.9,1021.1,630.3,1559.9,1838.2,3441.9,3451.6,763.7,969.6,1281.0,1637.9,1542.2,1266.7,5.0,7.0,0.0,8971.0,12845.0,3247.0,3526.0,-24.0,11.0,21.0,5.0,-9.0,11.0,10720.0,10472.0,5451.0,3760.0,-11.0,-5.0,7.0,1.0
2022-05-03 14:44:12.228073-07:00,2583.1,658.7,1537.6,1678.6,1050.4,1434.1,1490.3,1728.2,3439.5,3447.9,1916.4,1526.4,1375.7,3449.1,1243.5,1775.2,3439.5,3449.1,779.4,1478.3,1021.1,630.3,1567.4,1848.9,3441.9,3447.9,759.6,971.3,1281.0,1637.9,1552.5,1266.7,1.0,16.0,1.0,8974.0,12840.0,3247.0,3534.0,13.0,-9.0,-20.0,3.0,-7.0,12.0,10720.0,10472.0,5453.0,3760.0,26.0,10.0,-24.0,1.0
2022-05-03 14:44:12.230756-07:00,2583.1,658.7,1537.6,1680.5,1050.4,1434.1,1460.8,1729.1,3439.5,3447.9,1928.2,1528.3,1375.7,3449.1,1266.7,1775.2,3441.9,3428.6,779.4,1478.3,1025.4,632.7,1567.4,1848.9,3450.4,3445.5,759.6,971.3,1275.6,1634.1,1552.5,1266.7,5.0,45.0,20.0,8988.0,12821.0,3289.0,3529.0,-57.0,136.0,-228.0,2.0,-18.0,22.0,10722.0,10465.0,5471.0,3746.0,-5.0,16.0,-81.0,1.0
2022-05-03 14:44:12.258294-07:00,2570.2,660.3,1537.6,1680.5,1052.2,1439.6,1460.8,1729.1,3449.1,3454.0,1928.2,1528.3,1383.9,3445.5,1266.7,1775.2,3441.9,3428.6,781.9,1489.3,1025.4,632.7,1563.7,1836.2,3450.4,3445.5,758.7,986.7,1275.6,1634.1,1569.3,1258.7,-9.0,-26.0,6.0,9012.0,12775.0,3406.0,3523.0,-57.0,119.0,-182.0,1.0,-13.0,27.0,10725.0,10449.0,5505.0,3732.0,6.0,56.0,-75.0,1.0
2022-05-03 14:44:12.288280-07:00,2570.2,660.3,1548.7,1674.8,1052.2,1439.6,1486.6,1719.6,3449.1,3454.0,1941.0,1525.5,1383.9,3445.5,1324.1,1779.1,3440.7,3446.7,781.9,1489.3,1028.8,633.5,1563.7,1836.2,3434.6,3445.5,758.7,986.7,1276.5,1648.3,1569.3,1258.7,-18.0,-53.0,-36.0,9035.0,12756.0,3416.0,3524.0,-71.0,-179.0,195.0,-7.0,-16.0,15.0,10723.0,10439.0,5523.0,3740.0,19.0,32.0,23.0,1.0
2022-05-03 14:44:12.348778-07:00,2583.1,657.0,1548.7,1674.8,1054.8,1439.6,1486.6,1719.6,3440.7,3447.9,1941.0,1525.5,1374.8,3437.0,1324.1,1779.1,3440.7,3446.7,781.1,1487.5,1028.8,633.5,1560.9,1834.3,3434.6,3445.5,758.7,985.0,1276.5,1648.3,1592.7,1265.8,42.0,38.0,-37.0,9058.0,12790.0,3248.0,3499.0,-65.0,-319.0,283.0,2.0,11.0,-26.0,10714.0,10453.0,5506.0,3751.0,-7.0,-50.0,66.0,1.0
2022-05-03 14:44:12.557838-07:00,2583.1,657.0,1564.6,1682.4,1054.8,1435.0,1471.8,1717.7,3440.7,3447.9,1961.8,1532.9,1374.8,3445.5,1324.1,1789.7,3447.9,3444.3,776.9,1487.5,1019.4,630.3,1560.9,1834.3,3440.7,3450.4,757.9,985.0,1274.7,1657.7,1592.7,1265.8,19.0,32.0,18.0,9120.0,12788.0,3120.0,3461.0,-253.0,-192.0,-12.0,12.0,-1.0,14.0,10763.0,10426.0,5459.0,3754.0,-204.0,-92.0,-4.0,1.0
2022-05-03 14:44:12.559366-07:00,2581.0,654.6,1566.5,1682.4,1049.6,1435.0,1471.8,1717.7,3454.0,3449.1,1969.7,1532.9,1374.8,3445.5,1324.1,1789.7,3447.9,3444.3,776.9,1484.7,1019.4,632.7,1568.3,1839.1,3440.7,3450.4,757.9,985.9,1274.7,1657.7,1596.4,1264.0,-5.0,-27.0,31.0,9209.0,12748.0,3066.0,3424.0,-128.0,-119.0,47.0,1.0,-29.0,37.0,10818.0,10383.0,5427.0,3759.0,-115.0,-42.0,3.0,1.0
2022-05-03 14:44:12.648563-07:00,2581.0,654.6,1566.5,1670.1,1049.6,1427.7,1457.1,1719.6,3454.0,3449.1,1969.7,1531.0,1374.8,3440.7,1345.8,1789.7,3439.5,3433.4,778.6,1484.7,1018.5,632.7,1568.3,1839.1,3443.1,3447.9,759.6,985.9,1270.3,1657.7,1596.4,1264.0,0.0,10.0,19.0,9232.0,12749.0,3008.0,3411.0,4.0,-97.0,94.0,0.0,-14.0,23.0,10830.0,10375.0,5417.0,3765.0,29.0,12.0,17.0,1.0
2022-05-03 14:44:12.649623-07:00,2587.4,653.0,1550.6,1670.1,1056.5,1427.7,1457.1,1719.6,3450.4,3449.1,1990.5,1531.0,1384.8,3440.7,1345.8,1789.7,3439.5,3433.4,778.6,1482.9,1018.5,632.7,1573.9,1843.0,3443.1,3447.9,759.6,989.3,1270.3,1649.2,1566.5,1268.5,17.0,13.0,-3.0,9232.0,12764.0,2957.0,3396.0,-4.0,-105.0,64.0,8.0,-4.0,1.0,10820.0,10380.0,5423.0,3768.0,18.0,21.0,0.0,1.0
2022-05-03 14:44:12.650809-07:00,2587.4,653.0,1550.6,1677.6,1056.5,1432.3,1470.0,1726.3,3450.4,3449.1,1990.5,1538.5,1384.8,3443.1,1382.1,1795.5,3440.7,3433.4,776.1,1482.9,1020.2,632.7,1573.9,1843.0,3458.9,3438.2,758.7,989.3,1278.3,1649.2,1566.5,1268.5,8.0,11.0,-5.0,9237.0,12775.0,2919.0,3376.0,-6.0,-80.0,14.0,-1.0,-7.0,3.0,10820.0,10378.0,5427.0,3768.0,-21.0,-2.0,-14.0,1.0
2022-05-03 14:44:12.652072-07:00,2576.6,654.6,1559.9,1677.6,1051.3,1432.3,1470.0,1726.3,3443.1,3449.1,2035.4,1538.5,1390.3,3443.1,1382.1,1795.5,3440.7,3433.4,776.1,1490.3,1020.2,628.6,1576.8,1840.1,3458.9,3438.2,758.7,979.9,1278.3,1657.7,1598.3,1258.7,0.0,7.0,17.0,9253.0,12774.0,2898.0,3355.0,-43.0,-60.0,-6.0,-1.0,-10.0,14.0,10835.0,10366.0,5422.0,3766.0,-35.0,-19.0,-11.0,1.0
2022-05-03 14:44:12.887528-07:00,2576.6,654.6,1559.9,1680.5,1056.5,1437.8,1467.2,1723.4,3443.1,3449.1,2035.4,1545.0,1380.3,3441.9,1412.2,1798.4,3449.1,3446.7,784.4,1478.3,1020.2,628.6,1576.8,1840.1,3449.1,3441.9,760.4,985.9,1273.0,1657.7,1598.3,1258.7,9.0,2.0,5.0,9266.0,12775.0,2877.0,3333.0,15.0,-93.0,13.0,2.0,-9.0,9.0,10841.0,10361.0,5422.0,3764.0,10.0,7.0,-12.0,1.0
2022-05-03 14:44:12.888746-07:00,2569.1,650.5,1578.6,1681.4,1056.5,1437.8,1467.2,1723.4,3437.0,3440.7,2077.5,1546.9,1380.3,3441.9,1412.2,1798.4,3449.1,3446.7,784.4,1478.3,1019.4,634.3,1584.2,1845.9,3449.1,3441.9,760.4,985.9,1278.3,1679.5,1651.1,1260.4,8.0,4.0,-5.0,9270.0,12783.0,2854.0,3309.0,-15.0,-64.0,5.0,0.0,-6.0,8.0,10842.0,10360.0,5426.0,3760.0,-6.0,-7.0,-12.0,1.0
2022-05-03 14:44:12.889641-07:00,2569.1,650.5,1578.6,1681.4,1070.3,1422.2,1464.4,1720.5,3437.0,3440.7,2077.5,1546.9,1397.6,3449.1,1481.9,1809.0,3445.5,3438.2,774.5,1483.8,1019.4,634.3,1584.2,1845.9,3443.1,3447.9,759.6,979.9,1278.3,1679.5,1651.1,1260.4,16.0,11.0,0.0,9276.0,12792.0,2827.0,3281.0,7.0,-122.0,10.0,7.0,-4.0,5.0,10841.0,10360.0,5430.0,3754.0,19.0,1.0,-23.0,1.0
2022-05-03 14:44:13.008233-07:00,2577.7,650.5,1635.0,1680.5,1070.3,1422.2,1464.4,1720.5,3443.1,3449.1,2113.9,1558.1,1397.6,3449.1,1481.9,1809.0,3445.5,3438.2,774.5,1483.8,1019.4,634.3,1585.2,1841.1,3443.1,3447.9,759.6,979.9,1275.6,1700.5,1703.3,1260.4,12.0,0.0,2.0,9295.0,12794.0,2795.0,3246.0,-41.0,-108.0,5.0,0.0,-6.0,13.0,10847.0,10355.0,5432.0,3746.0,-11.0,-10.0,-22.0,1.0
2022-05-03 14:44:13.038347-07:00,2577.7,650.5,1635.0,1680.5,1088.6,1436.0,1468.1,1719.6,3443.1,3449.1,2113.9,1558.1,1393.9,3449.1,1541.3,1841.1,3449.1,3428.6,774.5,1491.2,1019.4,634.3,1585.2,1841.1,3452.8,3444.3,756.3,979.0,1275.6,1700.5,1703.3,1260.4,12.0,4.0,8.0,9318.0,12792.0,2765.0,3216.0,-50.0,-125.0,9.0,1.0,-5.0,12.0,10853.0,10351.0,5434.0,3738.0,-6.0,-6.0,-21.0,1.0
2022-05-03 14:44:13.039487-07:00,2585.3,645.7,1711.0,1694.8,1088.6,1436.0,1468.1,1727.2,3447.9,3454.0,2167.7,1572.1,1393.9,3449.1,1541.3,1866.4,3449.1,3428.6,774.5,1491.2,1021.9,635.1,1596.4,1849.8,3440.7,3444.3,756.3,979.0,1277.4,1750.2,1776.2,1264.9,3.0,7.0,3.0,9346.0,12783.0,2733.0,3197.0,-83.0,-60.0,14.0,0.0,-8.0,12.0,10858.0,10346.0,5436.0,3734.0,-16.0,-4.0,-13.0,1.0
2022-05-03 14:44:13.097880-07:00,2577.7,645.7,1711.0,1694.8,1113.9,1440.5,1456.2,1727.2,3449.1,3454.0,2167.7,1572.1,1393.0,3440.7,1593.6,1866.4,3449.1,3445.5,772.8,1485.6,1021.9,635.1,1596.4,1857.6,3440.7,3444.3,762.9,979.9,1277.4,1750.2,1776.2,1264.0,19.0,0.0,2.0,9381.0,12770.0,2699.0,3175.0,-84.0,-112.0,11.0,3.0,-8.0,9.0,10866.0,10338.0,5439.0,3730.0,-11.0,-9.0,-21.0,1.0
2022-05-03 14:44:13.099081-07:00,2577.7,646.5,1798.4,1702.4,1113.9,1440.5,1456.2,1726.3,3449.1,3451.6,2233.2,1584.2,1393.0,3440.7,1593.6,1901.6,3438.2,3445.5,772.8,1485.6,1019.4,636.7,1604.0,1857.6,3440.7,3444.3,762.9,979.9,1276.5,1811.9,1862.5,1264.0,5.0,13.0,-8.0,9417.0,12754.0,2665.0,3163.0,-95.0,-69.0,22.0,0.0,0.0,10.0,10876.0,10330.0,5436.0,3725.0,-30.0,-13.0,-12.0,1.0
2022-05-03 14:44:13.128456-07:00,2601.5,646.5,1798.4,1702.4,1119.1,1451.6,1456.2,1726.3,3452.8,3451.6,2233.2,1584.2,1395.7,3443.1,1640.7,1901.6,3438.2,3439.5,776.1,1496.7,1019.4,636.7,1604.0,1865.4,3440.7,3451.6,758.7,979.9,1276.5,1811.9,1862.5,1263.1,-1.0,1.0,9.0,9457.0,12740.0,2614.0,3141.0,-113.0,-128.0,46.0,-1.0,-10.0,4.0,10889.0,10322.0,5432.0,3718.0,-23.0,-27.0,-20.0,1.0
2022-05-03 14:44:13.337892-07:00,2601.5,646.5,1857.6,1735.8,1119.1,1451.6,1456.2,1737.8,3452.8,3443.1,2269.3,1600.2,1395.7,3443.1,1640.7,1935.1,3440.7,3439.5,776.1,1496.7,1013.3,631.1,1607.7,1865.4,3447.9,3451.6,758.7,979.9,1273.9,1846.9,1897.7,1263.1,2.0,12.0,-5.0,9509.0,12726.0,2539.0,3104.0,-148.0,-201.0,59.0,2.0,-1.0,10.0,10906.0,10311.0,5424.0,3708.0,-45.0,-40.0,-25.0,1.0
2022-05-03 14:44:13.339599-07:00,2673.3,646.5,1857.6,1735.8,1127.9,1458.0,1466.3,1737.8,3449.1,3443.1,2269.3,1600.2,1397.6,3437.0,1686.2,1935.1,3440.7,3438.2,776.9,1476.4,1013.3,631.1,1607.7,1869.3,3447.9,3449.1,766.2,982.5,1273.9,1846.9,1897.7,1264.0,10.0,11.0,10.0,9578.0,12703.0,2450.0,3055.0,-191.0,-200.0,41.0,4.0,-9.0,4.0,10934.0,10291.0,5414.0,3697.0,-74.0,-44.0,-33.0,1.0
2022-05-03 14:44:13.457488-07:00,2673.3,640.0,1909.5,1752.1,1127.9,1458.0,1472.7,1722.4,3449.1,3450.4,2307.7,1622.8,1397.6,3437.0,1709.1,1972.7,3444.3,3443.1,776.9,1476.4,1021.9,627.8,1613.4,1869.3,3443.1,3449.1,766.2,982.5,1281.9,1887.9,1945.9,1264.0,7.0,-2.0,11.0,9651.0,12672.0,2376.0,3011.0,-165.0,-172.0,24.0,0.0,-7.0,15.0,10962.0,10269.0,5407.0,3687.0,-51.0,-34.0,-38.0,1.0
2022-05-03 14:44:13.460644-07:00,2739.2,647.3,1909.5,1752.1,1148.0,1468.1,1472.7,1722.4,3435.8,3445.5,2307.7,1622.8,1404.9,3438.2,1709.1,1972.7,3444.3,3443.1,779.4,1500.4,1021.9,627.8,1619.9,1872.3,3443.1,3449.1,772.8,976.5,1281.9,1887.9,1963.7,1266.7,-1.0,2.0,12.0,9711.0,12651.0,2299.0,2968.0,-136.0,-230.0,58.0,-1.0,-12.0,10.0,10982.0,10253.0,5403.0,3674.0,-21.0,-20.0,-34.0,1.0
2022-05-03 14:44:13.607523-07:00,2739.2,647.3,1991.5,1789.7,1148.0,1468.1,1479.2,1703.3,3435.8,3445.5,2338.9,1655.8,1404.9,3438.2,1728.2,1991.5,3439.5,3443.1,779.4,1500.4,1019.4,627.0,1619.9,1872.3,3445.5,3444.3,772.8,976.5,1280.1,1908.5,1963.7,1266.7,2.0,24.0,15.0,9759.0,12648.0,2198.0,2898.0,-120.0,-282.0,63.0,-5.0,6.0,8.0,10988.0,10248.0,5412.0,3660.0,-12.0,-17.0,-46.0,1.0
2022-05-03 14:44:13.610452-07:00,2809.0,652.2,1991.5,1789.7,1173.5,1477.3,1479.2,1703.3,3449.1,3451.6,2338.9,1655.8,1412.2,3438.2,1728.2,1991.5,3439.5,3443.1,788.6,1485.6,1019.4,627.0,1626.5,1890.9,3445.5,3444.3,791.0,975.6,1280.1,1908.5,1988.5,1259.6,38.0,36.0,22.0,9835.0,12634.0,2064.0,2798.0,-174.0,-358.0,26.0,0.0,20.0,-3.0,11008.0,10233.0,5413.0,3641.0,-63.0,-56.0,-67.0,1.0
2022-05-03 14:44:13.611423-07:00,2809.0,652.2,2003.5,1805.2,1173.5,1477.3,1535.7,1711.0,3449.1,3451.6,2393.4,1711.0,1412.2,3438.2,1736.8,2013.4,3441.9,3440.7,788.6,1485.6,1031.4,635.1,1626.5,1890.9,3444.3,3446.7,791.0,975.6,1270.3,1925.2,1988.5,1259.6,28.0,-19.0,13.0,9937.0,12575.0,1996.0,2755.0,-302.0,-100.0,12.0,15.0,-30.0,19.0,11062.0,10189.0,5396.0,3626.0,-170.0,-59.0,-48.0,1.0
2022-05-03 14:44:13.612339-07:00,2829.1,656.2,2003.5,1805.2,1162.1,1490.3,1535.7,1711.0,3441.9,3443.1,2393.4,1711.0,1426.8,3438.2,1736.8,2013.4,3441.9,3440.7,783.6,1489.3,1031.4,635.1,1622.8,1917.4,3444.3,3446.7,815.2,972.2,1270.3,1925.2,1954.8,1265.8,19.0,-27.0,10.0,9984.0,12535.0,1984.0,2772.0,-45.0,90.0,26.0,-3.0,-8.0,28.0,11076.0,10175.0,5398.0,3617.0,82.0,13.0,-31.0,1.0
2022-05-03 14:44:13.613144-07:00,2829.1,656.2,1997.5,1817.8,1162.1,1497.7,1602.1,1721.5,3441.9,3443.1,2402.9,1733.9,1426.8,3440.7,1702.4,2030.4,3451.6,3447.9,784.4,1489.3,1040.1,629.5,1622.8,1917.4,3458.9,3438.2,804.4,972.2,1281.9,1919.3,1954.8,1265.8,9.0,-10.0,-3.0,9967.0,12542.0,1979.0,2806.0,56.0,52.0,62.0,0.0,-21.0,5.0,11037.0,10211.0,5426.0,3594.0,189.0,27.0,-26.0,1.0
2022-05-03 14:44:13.698264-07:00,2753.6,655.4,1975.6,1817.8,1169.1,1497.7,1602.1,1721.5,3441.9,3445.5,2400.8,1733.9,1414.0,3440.7,1702.4,2030.4,3451.6,3447.9,784.4,1482.9,1040.1,631.9,1615.2,1959.8,3458.9,3438.2,804.4,967.1,1281.9,1892.8,1911.5,1267.6,-5.0,13.0,-24.0,9957.0,12546.0,1976.0,2824.0,-60.0,-19.0,32.0,0.0,0.0,-3.0,11001.0,10244.0,5450.0,3573.0,63.0,0.0,-19.0,1.0
2022-05-03 14:44:13.728891-07:00,2653.7,665.2,1956.8,1834.3,1185.0,1491.2,1646.4,1724.4,3446.7,3435.8,2387.1,1755.0,1416.7,3438.2,1671.9,2015.4,3439.5,3437.0,795.2,1500.4,1044.4,634.3,1614.3,1988.5,3450.4,3458.9,818.5,962.0,1293.6,1875.2,1895.8,1261.3,9.0,16.0,2.0,10040.0,12483.0,1955.0,2825.0,-104.0,26.0,-61.0,6.0,-2.0,9.0,11027.0,10232.0,5439.0,3544.0,-29.0,-50.0,-41.0,1.0
2022-05-03 14:44:13.730935-07:00,2653.7,665.2,1956.8,1836.2,1185.0,1489.3,1641.6,1733.9,3446.7,3435.8,2387.1,1739.7,1416.7,3444.3,1661.5,1997.5,3445.5,3438.2,796.0,1500.4,1047.0,634.3,1614.3,1988.5,3455.2,3449.1,817.7,962.0,1304.3,1875.2,1895.8,1261.3,14.0,0.0,17.0,10065.0,12460.0,1993.0,2815.0,-9.0,51.0,-137.0,0.0,-19.0,11.0,11036.0,10228.0,5447.0,3516.0,34.0,-18.0,-76.0,1.0
2022-05-03 14:44:13.788302-07:00,2541.1,666.8,1944.0,1828.4,1186.7,1489.3,1641.6,1733.9,3449.1,3441.9,2379.7,1728.2,1418.6,3444.3,1661.5,1997.5,3445.5,3438.2,796.0,1507.8,1047.8,631.9,1616.2,2009.4,3455.2,3449.1,817.7,960.2,1316.0,1861.5,1887.9,1256.0,1.0,-12.0,17.0,10076.0,12442.0,2060.0,2806.0,-10.0,95.0,-146.0,1.0,-23.0,25.0,11038.0,10224.0,5467.0,3491.0,26.0,0.0,-64.0,1.0
2022-05-03 14:44:13.847537-07:00,2541.1,666.8,1944.0,1828.4,1199.1,1483.8,1638.8,1740.6,3449.1,3441.9,2379.7,1728.2,1428.6,3444.3,1647.3,1993.5,3433.4,3445.5,798.5,1515.3,1047.8,631.9,1616.2,2009.4,3447.9,3449.1,816.0,952.6,1316.0,1861.5,1887.9,1256.0,-5.0,-34.0,14.0,10077.0,12434.0,2100.0,2807.0,31.0,36.0,-11.0,2.0,-28.0,17.0,11040.0,10219.0,5478.0,3481.0,45.0,19.0,-8.0,1.0
2022-05-03 14:44:13.877794-07:00,2439.8,657.0,1935.1,1825.5,1199.1,1483.8,1638.8,1740.6,3446.7,3437.0,2360.9,1735.8,1428.6,3444.3,1647.3,1993.5,3433.4,3445.5,798.5,1515.3,1047.0,634.3,1604.0,2011.4,3447.9,3449.1,816.0,952.6,1316.9,1847.9,1877.2,1267.6,6.0,0.0,3.0,10043.0,12458.0,2105.0,2818.0,104.0,21.0,43.0,-3.0,-5.0,6.0,11010.0,10243.0,5493.0,3480.0,101.0,40.0,21.0,1.0
2022-05-03 14:44:13.967433-07:00,2439.8,657.0,1935.1,1825.5,1210.6,1481.9,1628.4,1729.1,3446.7,3437.0,2360.9,1735.8,1432.3,3440.7,1638.8,1982.6,3449.1,3437.0,800.2,1526.4,1047.0,634.3,1604.0,2011.4,3450.4,3439.5,816.9,949.2,1316.9,1847.9,1877.2,1267.6,13.0,0.0,-3.0,10022.0,12475.0,2090.0,2827.0,30.0,-7.0,55.0,-1.0,0.0,-2.0,10990.0,10258.0,5500.0,3488.0,29.0,22.0,27.0,1.0
2022-05-03 14:44:14.027948-07:00,2412.4,647.3,1906.6,1825.5,1210.6,1481.9,1628.4,1729.1,3451.6,3449.1,2347.3,1722.4,1432.3,3440.7,1638.8,1982.6,3449.1,3437.0,800.2,1526.4,1049.6,629.5,1604.9,2002.5,3450.4,3439.5,816.9,949.2,1311.5,1845.9,1870.3,1268.5,10.0,5.0,-2.0,10006.0,12485.0,2088.0,2844.0,39.0,42.0,20.0,1.0,0.0,4.0,10976.0,10271.0,5502.0,3494.0,40.0,15.0,19.0,1.0
2022-05-03 14:44:14.029711-07:00,2412.4,647.3,1906.6,1825.5,1190.3,1482.9,1631.3,1733.0,3451.6,3449.1,2347.3,1722.4,1426.8,3455.2,1635.0,1970.7,3441.9,3443.1,808.5,1512.5,1049.6,629.5,1604.9,2002.5,3440.7,3450.4,805.2,949.2,1311.5,1845.9,1870.3,1268.5,18.0,0.0,9.0,9989.0,12494.0,2093.0,2859.0,44.0,33.0,22.0,3.0,-14.0,1.0,10966.0,10281.0,5501.0,3496.0,27.0,1.0,19.0,1.0
2022-05-03 14:44:14.087478-07:00,2387.1,648.9,1891.8,1822.6,1190.3,1482.9,1631.3,1738.7,3449.1,3449.1,2350.4,1717.7,1426.8,3455.2,1635.0,1971.7,3450.4,3443.1,808.5,1512.5,1050.4,632.7,1597.4,1990.5,3443.1,3450.4,805.2,949.2,1308.8,1835.2,1858.6,1262.2,-5.0,-16.0,13.0,9961.0,12503.0,2104.0,2909.0,80.0,139.0,115.0,-4.0,-6.0,21.0,10952.0,10296.0,5496.0,3505.0,54.0,14.0,67.0,1.0
2022-05-03 14:44:14.147714-07:00,2383.9,648.9,1891.8,1822.6,1182.3,1481.9,1620.9,1738.7,3451.6,3449.1,2350.4,1717.7,1422.2,3449.1,1631.3,1971.7,3450.4,3439.5,801.9,1515.3,1050.4,632.7,1597.4,1975.6,3443.1,3452.8,812.7,944.9,1308.8,1835.2,1858.6,1256.9,-1.0,23.0,0.0,9935.0,12514.0,2099.0,2955.0,29.0,39.0,68.0,0.0,-1.0,17.0,10939.0,10307.0,5490.0,3523.0,30.0,35.0,38.0,1.0
2022-05-03 14:44:14.207602-07:00,2383.9,653.8,1886.9,1818.7,1182.3,1481.9,1620.9,1735.8,3451.6,3440.7,2327.4,1718.6,1422.2,3449.1,1631.3,1968.7,3450.4,3439.5,801.9,1515.3,1042.6,631.9,1591.7,1975.6,3452.8,3452.8,812.7,944.9,1305.2,1832.3,1859.6,1256.9,13.0,22.0,-10.0,9921.0,12521.0,2096.0,2974.0,26.0,23.0,4.0,0.0,2.0,-5.0,10925.0,10313.0,5498.0,3532.0,20.0,31.0,2.0,1.0
2022-05-03 14:44:14.267836-07:00,2374.5,653.8,1886.9,1818.7,1185.0,1476.4,1611.5,1735.8,3438.2,3440.7,2327.4,1718.6,1421.3,3447.9,1621.8,1968.7,3450.4,3444.3,796.9,1511.5,1042.6,631.9,1591.7,1983.6,3452.8,3444.3,816.0,945.8,1305.2,1832.3,1859.6,1261.3,8.0,-11.0,-10.0,9916.0,12524.0,2097.0,2976.0,4.0,-16.0,1.0,2.0,-17.0,-5.0,10922.0,10313.0,5504.0,3537.0,3.0,7.0,2.0,1.0
2022-05-03 14:44:14.327649-07:00,2374.5,649.7,1873.2,1797.4,1185.0,1476.4,1611.5,1729.1,3438.2,3445.5,2324.3,1711.9,1421.3,3447.9,1621.8,1963.7,3447.9,3444.3,796.9,1511.5,1058.2,640.8,1591.7,1983.6,3446.7,3444.3,816.0,945.8,1295.4,1827.5,1853.7,1261.3,3.0,9.0,-3.0,9917.0,12526.0,2091.0,2973.0,-20.0,-30.0,11.0,0.0,-8.0,4.0,10925.0,10312.0,5500.0,3536.0,-17.0,-20.0,6.0,1.0
2022-05-03 14:44:14.358597-07:00,2352.5,658.7,1873.2,1797.4,1175.3,1474.6,1612.4,1729.1,3445.5,3440.7,2324.3,1711.9,1420.4,3447.9,1589.9,1963.7,3447.9,3449.1,797.7,1511.5,1058.2,640.8,1588.0,1976.6,3446.7,3446.7,815.2,933.9,1295.4,1827.5,1858.6,1261.3,14.0,2.0,19.0,9923.0,12525.0,2078.0,2962.0,13.0,-22.0,-16.0,3.0,-11.0,8.0,10927.0,10313.0,5496.0,3532.0,10.0,-9.0,-9.0,1.0
