Time,P0,P1,P2,P3,P4,P5,P6,P7,P8,P9,P10,P11,P12,P13,P14,P15,P16,P17,P18,P19,P20,P21,P22,P23,P24,P25,P26,P27,P28,P29,P30,P31,ECG,AX0,AY0,AZ0,QW0,QX0,QY0,QZ0,GX0,GY0,GZ0,AX1,AY1,AZ1,QW1,QX1,QY1,QZ1,GX1,GY1,GZ1
2022-05-03 16:55:45.247775-07:00,2135.1,625.4,1436.9,1665.3,1104.3,1302.5,1537.6,1780.1,3449.1,3449.1,1812.9,1467.2,1294.5,3445.5,1170.9,1602.1,3439.5,3445.5,706.9,1280.1,967.1,602.0,1417.6,1887.9,3449.1,3446.7,730.7,979.0,1345.8,1614.3,1395.7,1083.4,-5.0,1.0,11.0,9896.0,11504.0,4289.0,4445.0,7.0,-6.0,6.0,0.0,-6.0,10.0,10085.0,8294.0,6869.0,7124.0,8.0,3.0,-1.0,1.0
2022-05-03 16:55:45.248687-07:00,2141.2,631.1,1436.9,1665.3,1103.4,1306.1,1537.6,1780.1,3444.3,3447.9,1812.9,1467.2,1296.3,3454.0,1170.9,1602.1,3439.5,3445.5,702.8,1282.8,967.1,602.0,1418.6,1888.9,3449.1,3446.7,735.6,982.5,1345.8,1614.3,1396.7,1084.2,-6.0,-3.0,5.0,9893.0,11506.0,4291.0,4445.0,1.0,9.0,2.0,-2.0,-8.0,8.0,10084.0,8296.0,6870.0,7123.0,0.0,8.0,2.0,1.0
2022-05-03 16:55:45.278440-07:00,2141.2,631.1,1435.0,1667.2,1103.4,1304.3,1534.8,1778.1,3444.3,3447.9,1818.7,1463.5,1296.3,3447.9,1165.6,1603.0,3439.5,3449.1,699.5,1282.8,956.0,604.4,1418.6,1888.9,3444.3,3451.6,730.7,982.5,1348.5,1607.7,1396.7,1084.2,-5.0,-3.0,-5.0,9892.0,11505.0,4293.0,4449.0,14.0,13.0,10.0,-3.0,-5.0,0.0,10081.0,8298.0,6872.0,7122.0,15.0,5.0,1.0,1.0
2022-05-03 16:55:45.279338-07:00,2140.2,625.4,1433.2,1667.2,1105.1,1304.3,1534.8,1778.1,3454.0,3447.9,1810.0,1463.5,1296.3,3447.9,1165.6,1603.0,3439.5,3449.1,699.5,1300.7,956.0,603.6,1414.9,1887.9,3444.3,3451.6,730.7,975.6,1348.5,1614.3,1394.8,1080.8,-5.0,4.0,-7.0,9887.0,11508.0,4295.0,4450.0,-2.0,-5.0,-2.0,-6.0,0.0,-3.0,10079.0,8300.0,6874.0,7120.0,-4.0,-3.0,-3.0,1.0
2022-05-03 16:55:45.280596-07:00,2140.2,625.4,1433.2,1667.2,1105.1,1299.0,1534.8,1771.4,3454.0,3447.9,1810.0,1464.4,1296.3,3451.6,1156.8,1606.8,3440.7,3444.3,706.0,1300.7,966.2,603.6,1414.9,1887.9,3445.5,3450.4,725.8,975.6,1350.3,1614.3,1394.8,1080.8,-5.0,-3.0,3.0,9891.0,11507.0,4291.0,4448.0,-3.0,-9.0,5.0,-3.0,-5.0,3.0,10081.0,8299.0,6873.0,7121.0,-2.0,-6.0,2.0,1.0
2022-05-03 16:55:45.283136-07:00,2127.0,623.0,1440.5,1667.2,1106.0,1299.0,1534.8,1771.4,3446.7,3449.1,1820.7,1464.4,1299.8,3451.6,1156.8,1606.8,3440.7,3444.3,706.0,1278.3,966.2,598.7,1411.3,1894.8,3445.5,3450.4,725.8,975.6,1350.3,1612.4,1397.6,1080.8,-6.0,3.0,3.0,9891.0,11507.0,4291.0,4448.0,-6.0,-5.0,2.0,-3.0,-4.0,6.0,10080.0,8299.0,6873.0,7121.0,-7.0,-7.0,1.0,1.0
2022-05-03 16:55:45.338598-07:00,2135.1,630.3,1429.5,1665.3,1100.8,1311.5,1537.6,1769.5,3444.3,3452.8,1809.0,1462.6,1299.8,3441.9,1162.1,1608.7,3449.1,3438.2,697.0,1281.9,959.4,599.6,1425.0,1892.8,3458.9,3451.6,728.2,977.3,1343.1,1608.7,1392.1,1088.6,-8.0,-5.0,3.0,9895.0,11501.0,4295.0,4449.0,5.0,9.0,-7.0,-5.0,-7.0,4.0,10081.0,8298.0,6872.0,7121.0,7.0,5.0,-2.0,1.0
2022-05-03 16:55:45.398432-07:00,2135.1,624.6,1438.7,1661.5,1100.8,1311.5,1537.6,1769.5,3449.1,3445.5,1807.1,1459.8,1299.8,3441.9,1162.1,1608.7,3449.1,3438.2,697.0,1281.9,954.3,602.0,1418.6,1894.8,3458.9,3451.6,728.2,977.3,1345.8,1605.8,1395.7,1083.4,-2.0,1.0,-1.0,9895.0,11501.0,4295.0,4449.0,-1.0,5.0,3.0,-1.0,-5.0,1.0,10081.0,8298.0,6872.0,7121.0,3.0,2.0,3.0,1.0
2022-05-03 16:55:45.428411-07:00,2135.1,624.6,1438.7,1661.5,1100.8,1295.4,1534.8,1772.3,3449.1,3445.5,1807.1,1459.8,1285.5,3443.1,1158.6,1609.6,3444.3,3438.2,697.0,1281.0,954.3,602.0,1418.6,1894.8,3446.7,3454.0,725.8,969.6,1345.8,1605.8,1395.7,1083.4,-5.0,0.0,-7.0,9894.0,11503.0,4296.0,4448.0,13.0,-3.0,-10.0,-4.0,-4.0,2.0,10080.0,8300.0,6873.0,7120.0,12.0,-1.0,-6.0,1.0
2022-05-03 16:55:45.488095-07:00,2129.0,623.0,1436.0,1669.1,1100.8,1295.4,1534.8,1772.3,3446.7,3444.3,1811.9,1470.9,1285.5,3443.1,1158.6,1609.6,3444.3,3438.2,697.0,1281.0,956.0,600.4,1414.9,1888.9,3446.7,3454.0,725.8,969.6,1344.0,1607.7,1393.0,1081.6,-2.0,-6.0,0.0,9893.0,11503.0,4297.0,4447.0,-2.0,-3.0,-1.0,-1.0,-6.0,1.0,10080.0,8300.0,6873.0,7120.0,-2.0,-1.0,0.0,1.0
2022-05-03 16:55:45.578407-07:00,2129.0,623.0,1436.0,1669.1,1103.4,1306.1,1529.2,1778.1,3446.7,3444.3,1811.9,1470.9,1294.5,3438.2,1162.1,1609.6,3445.5,3439.5,697.0,1277.4,956.0,600.4,1414.9,1888.9,3449.1,3449.1,724.1,971.3,1344.0,1607.7,1393.0,1081.6,-1.0,-1.0,-1.0,9891.0,11505.0,4298.0,4446.0,14.0,-3.0,0.0,-4.0,-6.0,3.0,10080.0,8300.0,6873.0,7120.0,9.0,4.0,-1.0,1.0
2022-05-03 16:55:45.637742-07:00,2135.1,627.0,1433.2,1666.3,1103.4,1306.1,1529.2,1771.4,3443.1,3444.3,1811.9,1462.6,1294.5,3438.2,1162.1,1604.9,3438.2,3439.5,697.0,1277.4,957.7,600.4,1424.1,1887.9,3445.5,3449.1,724.1,971.3,1343.1,1614.3,1393.0,1086.0,-7.0,-4.0,2.0,9891.0,11505.0,4298.0,4446.0,-1.0,1.0,8.0,-4.0,-6.0,4.0,10080.0,8300.0,6873.0,7120.0,4.0,2.0,2.0,1.0
2022-05-03 16:55:45.638750-07:00,2131.1,627.0,1433.2,1666.3,1101.7,1301.6,1525.5,1771.4,3443.1,3444.3,1811.9,1462.6,1291.8,3443.1,1162.1,1604.9,3438.2,3449.1,695.4,1277.4,957.7,600.4,1424.1,1880.1,3445.5,3450.4,724.9,973.9,1343.1,1614.3,1393.0,1079.0,-2.0,-1.0,-2.0,9890.0,11506.0,4298.0,4446.0,7.0,-5.0,3.0,-6.0,-3.0,2.0,10079.0,8301.0,6874.0,7119.0,-1.0,-1.0,-1.0,1.0
2022-05-03 16:55:45.698395-07:00,2131.1,625.4,1431.4,1669.1,1101.7,1301.6,1525.5,1767.5,3443.1,3444.3,1805.2,1463.5,1291.8,3443.1,1162.1,1604.0,3440.7,3449.1,695.4,1277.4,952.6,601.2,1415.8,1880.1,3449.1,3450.4,724.9,973.9,1361.2,1612.4,1388.5,1079.0,-5.0,-5.0,0.0,9890.0,11506.0,4298.0,4446.0,0.0,8.0,4.0,-1.0,-5.0,4.0,10079.0,8301.0,6874.0,7119.0,-1.0,-1.0,4.0,1.0
2022-05-03 16:55:45.728240-07:00,2134.1,625.4,1431.4,1669.1,1094.7,1300.7,1534.8,1767.5,3450.4,3444.3,1805.2,1463.5,1290.0,3437.0,1155.9,1604.0,3440.7,3440.7,701.1,1281.9,952.6,601.2,1415.8,1887.9,3449.1,3447.9,729.0,974.8,1361.2,1612.4,1388.5,1083.4,-2.0,3.0,-2.0,9889.0,11507.0,4296.0,4448.0,2.0,-4.0,9.0,-4.0,-4.0,0.0,10079.0,8301.0,6874.0,7119.0,1.0,-1.0,2.0,1.0
2022-05-03 16:55:45.788409-07:00,2134.1,623.8,1430.5,1675.7,1094.7,1300.7,1534.8,1772.3,3450.4,3445.5,1805.2,1470.9,1290.0,3437.0,1155.9,1604.9,3443.1,3440.7,701.1,1281.9,962.0,604.4,1407.6,1887.9,3451.6,3447.9,729.0,974.8,1339.5,1604.9,1389.4,1083.4,-4.0,-3.0,5.0,9889.0,11507.0,4296.0,4448.0,-6.0,3.0,-5.0,-1.0,-4.0,7.0,10079.0,8301.0,6874.0,7119.0,-1.0,1.0,-1.0,1.0
2022-05-03 16:55:45.877730-07:00,2129.0,623.8,1430.5,1675.7,1109.5,1307.0,1530.1,1772.3,3449.1,3445.5,1805.2,1470.9,1294.5,3447.9,1148.9,1604.9,3443.1,3449.1,699.5,1277.4,962.0,604.4,1407.6,1886.9,3451.6,3449.1,733.2,970.5,1339.5,1604.9,1389.4,1082.5,-4.0,0.0,0.0,9888.0,11508.0,4296.0,4448.0,10.0,8.0,-1.0,-2.0,-4.0,2.0,10079.0,8302.0,6874.0,7119.0,9.0,5.0,1.0,1.0
2022-05-03 16:55:45.879204-07:00,2129.0,627.0,1433.2,1658.7,1109.5,1307.0,1549.7,1760.8,3449.1,3444.3,1811.0,1466.3,1294.5,3447.9,1161.2,1600.2,3445.5,3441.9,699.5,1277.4,960.2,604.4,1412.2,1886.9,3450.4,3454.0,733.2,970.5,1346.7,1607.7,1389.4,1082.5,-3.0,-5.0,-1.0,9888.0,11507.0,4297.0,4449.0,-4.0,6.0,1.0,-3.0,-4.0,0.0,10079.0,8302.0,6874.0,7119.0,3.0,3.0,1.0,1.0
2022-05-03 16:55:45.967689-07:00,2134.1,621.4,1433.2,1658.7,1105.1,1301.6,1549.7,1760.8,3447.9,3445.5,1811.0,1466.3,1292.7,3449.1,1161.2,1600.2,3445.5,3441.9,700.3,1281.9,960.2,604.4,1414.0,1885.0,3450.4,3454.0,726.6,973.9,1346.7,1607.7,1386.6,1080.8,0.0,2.0,-1.0,9888.0,11507.0,4297.0,4449.0,3.0,-5.0,-3.0,2.0,-3.0,0.0,10079.0,8302.0,6874.0,7119.0,4.0,-9.0,-2.0,1.0
2022-05-03 16:55:45.997825-07:00,2134.1,621.4,1433.2,1661.5,1105.1,1301.6,1535.7,1768.5,3447.9,3445.5,1804.2,1466.3,1292.7,3449.1,1161.2,1600.2,3444.3,3443.1,700.3,1281.9,960.2,598.7,1414.0,1885.0,3440.7,3447.9,726.6,973.9,1346.7,1607.7,1386.6,1080.8,-9.0,-7.0,3.0,9888.0,11507.0,4299.0,4448.0,-6.0,-4.0,-4.0,-4.0,-8.0,8.0,10079.0,8302.0,6874.0,7119.0,2.0,-1.0,-4.0,1.0
2022-05-03 16:55:46.057574-07:00,2142.2,627.8,1433.2,1661.5,1108.6,1298.1,1535.7,1768.5,3441.9,3451.6,1804.2,1466.3,1296.3,3449.1,1161.2,1600.2,3444.3,3443.1,698.7,1281.9,960.2,598.7,1415.8,1890.9,3440.7,3447.9,729.9,971.3,1346.7,1607.7,1388.5,1079.9,-8.0,-1.0,1.0,9888.0,11507.0,4299.0,4448.0,-6.0,8.0,4.0,-4.0,-6.0,6.0,10079.0,8302.0,6874.0,7119.0,2.0,1.0,2.0,1.0
2022-05-03 16:55:46.117865-07:00,2142.2,627.8,1430.5,1659.6,1108.6,1298.1,1529.2,1772.3,3441.9,3451.6,1801.3,1476.4,1296.3,3449.1,1155.9,1605.8,3441.9,3443.1,698.7,1281.9,957.7,602.8,1415.8,1890.9,3444.3,3445.5,729.9,971.3,1342.2,1606.8,1388.5,1079.9,-5.0,-2.0,-2.0,9888.0,11507.0,4299.0,4448.0,0.0,7.0,0.0,-3.0,-5.0,0.0,10079.0,8302.0,6874.0,7119.0,3.0,2.0,1.0,1.0
2022-05-03 16:55:46.147634-07:00,2131.1,623.0,1443.3,1659.6,1115.6,1303.4,1529.2,1772.3,3454.0,3443.1,1811.0,1476.4,1291.8,3446.7,1155.9,1605.8,3441.9,3443.1,698.7,1280.1,957.7,606.8,1412.2,1892.8,3444.3,3445.5,729.9,966.2,1342.2,1597.4,1388.5,1074.7,2.0,2.0,0.0,9889.0,11506.0,4298.0,4448.0,-11.0,-8.0,2.0,2.0,-3.0,1.0,10079.0,8302.0,6874.0,7119.0,-9.0,-6.0,-1.0,1.0
2022-05-03 16:55:46.207775-07:00,2131.1,623.0,1443.3,1661.5,1115.6,1299.0,1541.3,1757.9,3454.0,3443.1,1811.0,1462.6,1291.8,3451.6,1153.3,1605.8,3440.7,3435.8,699.5,1280.1,952.6,606.8,1412.2,1892.8,3449.1,3450.4,729.0,966.2,1344.0,1597.4,1388.5,1074.7,-4.0,-6.0,2.0,9889.0,11507.0,4297.0,4446.0,-1.0,-6.0,-6.0,-2.0,-8.0,1.0,10079.0,8301.0,6874.0,7120.0,0.0,-4.0,-3.0,1.0
2022-05-03 16:55:46.237945-07:00,2136.1,625.4,1425.0,1661.5,1097.3,1299.0,1541.3,1757.9,3449.1,3449.1,1800.3,1462.6,1284.6,3451.6,1153.3,1605.8,3440.7,3435.8,699.5,1280.1,952.6,600.4,1405.8,1891.8,3449.1,3450.4,729.0,969.6,1344.0,1607.7,1381.2,1082.5,-8.0,-1.0,1.0,9889.0,11507.0,4296.0,4448.0,-4.0,1.0,9.0,-7.0,-3.0,4.0,10079.0,8301.0,6874.0,7120.0,0.0,1.0,5.0,1.0
2022-05-03 16:55:46.328435-07:00,2136.1,625.4,1425.0,1660.6,1097.3,1299.0,1536.6,1767.5,3449.1,3449.1,1800.3,1463.5,1284.6,3443.1,1157.7,1600.2,3437.0,3441.9,701.9,1280.1,958.5,600.4,1405.8,1891.8,3451.6,3446.7,731.5,969.6,1346.7,1607.7,1381.2,1082.5,-8.0,-2.0,-3.0,9889.0,11507.0,4295.0,4448.0,-6.0,-1.0,0.0,-4.0,-4.0,4.0,10079.0,8301.0,6874.0,7120.0,-8.0,-3.0,0.0,1.0
2022-05-03 16:55:46.329392-07:00,2131.1,631.1,1426.8,1660.6,1103.4,1299.0,1536.6,1767.5,3443.1,3438.2,1799.4,1463.5,1292.7,3443.1,1157.7,1600.2,3437.0,3441.9,701.9,1279.2,958.5,597.9,1411.3,1881.1,3451.6,3446.7,731.5,974.8,1346.7,1610.5,1389.4,1082.5,-4.0,-4.0,0.0,9891.0,11505.0,4294.0,4449.0,-8.0,-4.0,7.0,-1.0,-6.0,1.0,10080.0,8300.0,6873.0,7120.0,-6.0,0.0,4.0,1.0
2022-05-03 16:55:46.417850-07:00,2131.1,631.1,1426.8,1656.8,1103.4,1299.8,1532.0,1776.2,3443.1,3438.2,1799.4,1468.1,1292.7,3444.3,1159.4,1607.7,3450.4,3440.7,701.1,1279.2,958.5,597.9,1411.3,1881.1,3449.1,3441.9,729.0,974.8,1338.6,1610.5,1389.4,1082.5,-5.0,0.0,0.0,9893.0,11503.0,4293.0,4450.0,-18.0,0.0,5.0,-3.0,-5.0,4.0,10081.0,8299.0,6873.0,7121.0,-11.0,2.0,5.0,1.0
2022-05-03 16:55:46.477779-07:00,2130.1,620.5,1428.6,1661.5,1114.7,1299.8,1532.0,1776.2,3447.9,3444.3,1800.3,1471.8,1290.9,3444.3,1159.4,1607.7,3450.4,3440.7,701.1,1281.9,960.2,602.0,1411.3,1892.8,3449.1,3441.9,729.0,967.1,1348.5,1601.1,1388.5,1079.0,-5.0,-3.0,-3.0,9898.0,11501.0,4288.0,4453.0,-9.0,-11.0,14.0,-3.0,-8.0,1.0,10083.0,8296.0,6870.0,7123.0,-7.0,-4.0,7.0,1.0
2022-05-03 16:55:46.479182-07:00,2130.1,620.5,1428.6,1661.5,1102.5,1299.8,1534.8,1771.4,3447.9,3444.3,1800.3,1471.8,1295.4,3449.1,1155.9,1603.0,3435.8,3447.9,700.3,1272.1,960.2,602.0,1411.3,1892.8,3458.9,3452.8,729.0,969.6,1348.5,1601.1,1388.5,1079.0,0.0,6.0,0.0,9899.0,11501.0,4284.0,4452.0,-14.0,-3.0,-3.0,0.0,-4.0,3.0,10084.0,8295.0,6870.0,7123.0,-15.0,-5.0,0.0,1.0
2022-05-03 16:55:46.597758-07:00,2134.1,623.8,1425.0,1665.3,1102.5,1299.8,1534.8,1771.4,3445.5,3445.5,1796.5,1470.9,1295.4,3449.1,1155.9,1603.0,3435.8,3447.9,700.3,1272.1,956.0,600.4,1409.4,1888.9,3458.9,3452.8,729.0,969.6,1344.9,1611.5,1389.4,1076.4,-5.0,-4.0,0.0,9901.0,11499.0,4285.0,4451.0,1.0,1.0,-7.0,-1.0,-4.0,6.0,10086.0,8293.0,6868.0,7125.0,0.0,3.0,-3.0,1.0
2022-05-03 16:55:46.627895-07:00,2134.1,623.8,1425.0,1665.3,1108.6,1299.8,1533.8,1767.5,3445.5,3445.5,1796.5,1470.9,1293.6,3443.1,1148.0,1606.8,3441.9,3443.1,701.9,1281.9,956.0,600.4,1409.4,1888.9,3455.2,3449.1,730.7,968.8,1344.9,1611.5,1389.4,1076.4,-4.0,-1.0,3.0,9901.0,11498.0,4286.0,4453.0,-2.0,10.0,-3.0,-1.0,-6.0,6.0,10086.0,8293.0,6868.0,7125.0,-4.0,7.0,2.0,1.0
2022-05-03 16:55:46.629560-07:00,2131.1,624.6,1428.6,1658.7,1108.6,1299.8,1533.8,1767.5,3441.9,3449.1,1797.4,1467.2,1293.6,3443.1,1148.0,1606.8,3441.9,3443.1,701.9,1281.9,952.6,597.9,1414.9,1886.0,3455.2,3449.1,730.7,968.8,1343.1,1598.3,1393.9,1079.0,-6.0,0.0,3.0,9900.0,11497.0,4290.0,4455.0,1.0,14.0,-13.0,-7.0,-8.0,4.0,10085.0,8293.0,6869.0,7125.0,-1.0,10.0,-2.0,1.0
2022-05-03 16:55:46.747846-07:00,2135.1,624.6,1428.6,1658.7,1103.4,1302.5,1528.3,1762.7,3454.0,3449.1,1797.4,1467.2,1289.1,3450.4,1152.4,1612.4,3438.2,3443.1,695.4,1281.9,952.6,597.9,1414.9,1889.9,3446.7,3454.0,724.9,973.9,1343.1,1598.3,1393.9,1078.2,-10.0,-5.0,-4.0,9899.0,11495.0,4294.0,4459.0,-3.0,9.0,6.0,-6.0,-3.0,6.0,10085.0,8292.0,6870.0,7126.0,-1.0,1.0,5.0,1.0
2022-05-03 16:55:46.748967-07:00,2135.1,626.2,1424.1,1667.2,1103.4,1302.5,1528.3,1764.6,3454.0,3450.4,1797.4,1472.7,1289.1,3450.4,1152.4,1605.8,3439.5,3443.1,695.4,1281.9,958.5,601.2,1410.3,1889.9,3458.9,3454.0,724.9,973.9,1345.8,1612.4,1390.3,1078.2,-4.0,3.0,-5.0,9900.0,11494.0,4293.0,4460.0,-11.0,-8.0,4.0,-6.0,-2.0,0.0,10085.0,8292.0,6870.0,7126.0,-6.0,-9.0,2.0,1.0
2022-05-03 16:55:46.807590-07:00,2132.1,626.2,1424.1,1667.2,1104.3,1296.3,1532.9,1764.6,3450.4,3450.4,1797.4,1472.7,1296.3,3449.1,1154.2,1605.8,3439.5,3447.9,698.7,1277.4,958.5,601.2,1410.3,1896.7,3458.9,3450.4,723.3,967.1,1345.8,1612.4,1390.3,1081.6,-2.0,-3.0,6.0,9903.0,11495.0,4289.0,4456.0,-8.0,-15.0,2.0,0.0,-6.0,6.0,10086.0,8293.0,6868.0,7125.0,-9.0,-10.0,1.0,1.0
2022-05-03 16:55:46.837936-07:00,2132.1,624.6,1426.8,1672.9,1104.3,1296.3,1532.9,1766.6,3450.4,3447.9,1799.4,1464.4,1296.3,3449.1,1154.2,1604.9,3439.5,3447.9,698.7,1277.4,967.1,602.8,1410.3,1896.7,3451.6,3450.4,723.3,967.1,1338.6,1604.9,1383.9,1081.6,-3.0,0.0,6.0,9905.0,11493.0,4287.0,4456.0,-8.0,0.0,-3.0,-2.0,-4.0,5.0,10086.0,8293.0,6868.0,7125.0,-5.0,-1.0,1.0,1.0
2022-05-03 16:55:47.078080-07:00,2128.0,624.6,1426.8,1672.9,1104.3,1295.4,1529.2,1766.6,3444.3,3447.9,1799.4,1464.4,1293.6,3447.9,1157.7,1604.9,3439.5,3444.3,701.1,1277.4,967.1,602.8,1410.3,1888.9,3451.6,3454.0,732.3,975.6,1338.6,1604.9,1383.9,1079.0,-7.0,-4.0,0.0,9905.0,11493.0,4288.0,4457.0,-6.0,7.0,2.0,-3.0,-4.0,9.0,10086.0,8293.0,6868.0,7125.0,0.0,4.0,6.0,1.0
2022-05-03 16:55:47.079605-07:00,2128.0,628.6,1423.1,1661.5,1104.3,1295.4,1529.2,1759.8,3444.3,3437.0,1801.3,1461.7,1293.6,3447.9,1157.7,1599.3,3444.3,3444.3,701.1,1277.4,952.6,599.6,1410.3,1888.9,3454.0,3454.0,732.3,975.6,1337.7,1604.0,1389.4,1079.0,-5.0,0.0,3.0,9907.0,11491.0,4284.0,4460.0,-12.0,7.0,12.0,-1.0,-7.0,9.0,10086.0,8293.0,6868.0,7125.0,-8.0,5.0,7.0,1.0
2022-05-03 16:55:47.081604-07:00,2136.1,623.0,1423.1,1661.5,1101.7,1293.6,1531.0,1759.8,3443.1,3449.1,1801.3,1461.7,1293.6,3445.5,1149.8,1599.3,3444.3,3439.5,700.3,1275.6,952.6,599.6,1414.0,1887.9,3454.0,3447.9,726.6,967.1,1337.7,1604.0,1387.5,1078.2,-3.0,0.0,-3.0,9907.0,11491.0,4285.0,4460.0,8.0,4.0,-9.0,-4.0,-7.0,7.0,10086.0,8293.0,6868.0,7125.0,0.0,-2.0,-2.0,1.0
2022-05-03 16:55:47.083093-07:00,2136.1,623.0,1418.6,1663.4,1101.7,1293.6,1530.1,1772.3,3443.1,3449.1,1794.5,1467.2,1293.6,3445.5,1153.3,1596.4,3441.9,3441.9,700.3,1275.6,960.2,605.2,1414.0,1887.9,3446.7,3444.3,726.6,967.1,1342.2,1602.1,1387.5,1078.2,-13.0,-8.0,4.0,9908.0,11490.0,4286.0,4459.0,12.0,0.0,6.0,-10.0,-10.0,11.0,10086.0,8293.0,6868.0,7125.0,9.0,6.0,4.0,1.0
2022-05-03 16:55:47.108654-07:00,2140.2,625.4,1418.6,1663.4,1096.4,1292.7,1530.1,1772.3,3443.1,3446.7,1794.5,1467.2,1296.3,3443.1,1153.3,1596.4,3441.9,3441.9,700.3,1282.8,960.2,605.2,1410.3,1886.9,3446.7,3444.3,726.6,977.3,1342.2,1602.1,1384.8,1074.7,-8.0,1.0,12.0,9901.0,11495.0,4287.0,4460.0,20.0,26.0,1.0,-2.0,-8.0,9.0,10081.0,8298.0,6872.0,7122.0,20.0,9.0,7.0,1.0
2022-05-03 16:55:47.167851-07:00,2140.2,625.4,1423.1,1665.3,1096.4,1292.7,1527.3,1772.3,3443.1,3446.7,1799.4,1461.7,1296.3,3443.1,1150.6,1601.1,3438.2,3444.3,700.3,1282.8,959.4,597.9,1410.3,1886.9,3443.1,3441.9,726.6,977.3,1343.1,1604.9,1384.8,1074.7,-3.0,-5.0,3.0,9891.0,11498.0,4297.0,4466.0,16.0,35.0,3.0,0.0,-4.0,3.0,10072.0,8299.0,6883.0,7123.0,20.0,25.0,8.0,1.0
2022-05-03 16:55:47.257842-07:00,2129.0,622.2,1423.1,1665.3,1099.9,1299.8,1527.3,1772.3,3449.1,3444.3,1799.4,1461.7,1290.0,3440.7,1150.6,1601.1,3438.2,3444.3,698.7,1282.8,959.4,597.9,1410.3,1888.9,3443.1,3441.9,740.6,963.7,1343.1,1604.9,1383.9,1085.1,5.0,0.0,-15.0,9886.0,11495.0,4306.0,4475.0,2.0,13.0,1.0,5.0,-2.0,-6.0,10068.0,8298.0,6887.0,7127.0,5.0,4.0,8.0,1.0
2022-05-03 16:55:47.318582-07:00,2129.0,622.2,1425.9,1659.6,1099.9,1298.1,1532.0,1766.6,3449.1,3444.3,1797.4,1466.3,1290.0,3443.1,1151.5,1603.0,3441.9,3450.4,701.1,1282.8,961.1,602.0,1410.3,1888.9,3438.2,3447.9,728.2,963.7,1346.7,1602.1,1383.9,1085.1,3.0,-1.0,-2.0,9888.0,11496.0,4304.0,4471.0,-12.0,-24.0,-9.0,0.0,-3.0,1.0,10069.0,8297.0,6886.0,7127.0,-12.0,-8.0,-8.0,1.0
2022-05-03 16:55:47.319395-07:00,2127.0,622.2,1423.1,1659.6,1099.9,1298.1,1532.0,1766.6,3449.1,3440.7,1794.5,1466.3,1290.0,3443.1,1151.5,1603.0,3441.9,3450.4,701.1,1275.6,961.1,605.2,1415.8,1887.9,3438.2,3447.9,728.2,965.4,1346.7,1604.9,1381.2,1080.8,-11.0,1.0,2.0,9894.0,11494.0,4298.0,4467.0,-11.0,-12.0,-1.0,-7.0,-6.0,13.0,10074.0,8297.0,6881.0,7126.0,-8.0,-11.0,-4.0,1.0
2022-05-03 16:55:47.321076-07:00,2127.0,622.2,1423.1,1657.7,1099.9,1297.2,1523.6,1764.6,3449.1,3440.7,1794.5,1462.6,1290.0,3449.1,1148.0,1613.4,3435.8,3440.7,698.7,1275.6,961.1,605.2,1415.8,1887.9,3447.9,3435.8,728.2,965.4,1344.9,1604.9,1381.2,1080.8,-9.0,-4.0,12.0,9901.0,11491.0,4292.0,4464.0,-22.0,-15.0,1.0,-5.0,-9.0,14.0,10078.0,8296.0,6876.0,7126.0,-16.0,-10.0,-1.0,1.0
2022-05-03 16:55:47.408717-07:00,2139.2,624.6,1415.8,1657.7,1101.7,1297.2,1523.6,1764.6,3443.1,3441.9,1801.3,1462.6,1288.2,3449.1,1148.0,1613.4,3435.8,3440.7,698.7,1285.5,961.1,602.8,1409.4,1892.8,3447.9,3435.8,728.2,973.9,1344.9,1603.0,1385.7,1082.5,-3.0,0.0,8.0,9905.0,11490.0,4288.0,4465.0,11.0,8.0,8.0,0.0,-3.0,8.0,10079.0,8295.0,6875.0,7126.0,12.0,0.0,3.0,1.0
2022-05-03 16:55:47.437777-07:00,2139.2,624.6,1415.8,1661.5,1101.7,1296.3,1534.8,1765.6,3443.1,3441.9,1801.3,1455.2,1288.2,3449.1,1148.0,1599.3,3439.5,3428.6,698.7,1285.5,959.4,602.8,1409.4,1892.8,3443.1,3444.3,729.0,973.9,1341.3,1603.0,1385.7,1082.5,-4.0,-2.0,1.0,9902.0,11491.0,4291.0,4465.0,-6.0,9.0,-4.0,-1.0,-6.0,7.0,10077.0,8297.0,6877.0,7125.0,4.0,8.0,1.0,1.0
2022-05-03 16:55:47.527956-07:00,2132.1,622.2,1426.8,1661.5,1099.0,1296.3,1534.8,1765.6,3445.5,3446.7,1807.1,1455.2,1296.3,3449.1,1148.0,1599.3,3439.5,3428.6,698.7,1281.0,959.4,598.7,1409.4,1883.0,3443.1,3444.3,729.0,965.4,1341.3,1592.7,1383.9,1080.8,-5.0,2.0,-2.0,9902.0,11490.0,4290.0,4466.0,8.0,2.0,4.0,-1.0,-1.0,1.0,10076.0,8297.0,6877.0,7125.0,6.0,2.0,3.0,1.0
2022-05-03 16:55:47.558413-07:00,2132.1,622.2,1426.8,1660.6,1099.9,1299.0,1529.2,1766.6,3445.5,3446.7,1807.1,1461.7,1290.9,3438.2,1155.0,1604.0,3441.9,3445.5,695.4,1273.9,960.2,598.7,1409.4,1883.0,3443.1,3440.7,728.2,972.2,1343.1,1592.7,1383.9,1080.8,-4.0,-2.0,0.0,9902.0,11490.0,4290.0,4466.0,-6.0,-1.0,-3.0,-2.0,-5.0,6.0,10076.0,8297.0,6877.0,7125.0,-2.0,1.0,-4.0,1.0
2022-05-03 16:55:47.588304-07:00,2129.0,620.5,1425.9,1660.6,1099.9,1299.0,1529.2,1766.6,3446.7,3440.7,1794.5,1462.6,1290.9,3438.2,1155.0,1604.0,3441.9,3445.5,695.4,1273.9,962.0,595.5,1407.6,1888.9,3443.1,3440.7,728.2,972.2,1345.8,1608.7,1381.2,1078.2,-7.0,-2.0,2.0,9903.0,11490.0,4290.0,4466.0,3.0,-1.0,6.0,-4.0,-7.0,12.0,10076.0,8297.0,6877.0,7125.0,1.0,-1.0,3.0,1.0
2022-05-03 16:55:47.767785-07:00,2129.0,620.5,1425.9,1660.6,1103.4,1299.0,1531.0,1763.7,3446.7,3440.7,1794.5,1462.6,1286.4,3443.1,1163.0,1598.3,3446.7,3447.9,702.8,1280.1,962.0,595.5,1407.6,1888.9,3451.6,3449.1,733.2,966.2,1345.8,1608.7,1381.2,1078.2,-3.0,-2.0,3.0,9903.0,11490.0,4290.0,4466.0,0.0,-1.0,2.0,-2.0,-6.0,8.0,10076.0,8297.0,6877.0,7125.0,2.0,-1.0,3.0,1.0
2022-05-03 16:55:47.797803-07:00,2136.1,623.0,1423.1,1656.8,1103.4,1299.0,1531.0,1763.7,3446.7,3450.4,1786.8,1466.3,1286.4,3443.1,1163.0,1598.3,3446.7,3447.9,702.8,1280.1,958.5,601.2,1406.7,1912.4,3451.6,3449.1,733.2,966.2,1342.2,1598.3,1383.9,1078.2,-7.0,-4.0,0.0,9903.0,11490.0,4290.0,4466.0,7.0,-8.0,11.0,-3.0,-6.0,8.0,10076.0,8297.0,6877.0,7125.0,8.0,-6.0,3.0,1.0
2022-05-03 16:55:48.007931-07:00,2136.1,623.0,1423.1,1656.8,1100.8,1299.8,1538.5,1759.8,3446.7,3450.4,1786.8,1466.3,1291.8,3439.5,1155.0,1600.2,3444.3,3449.1,698.7,1279.2,958.5,601.2,1406.7,1912.4,3447.9,3444.3,722.5,961.1,1342.2,1598.3,1383.9,1078.2,-5.0,2.0,2.0,9902.0,11491.0,4286.0,4468.0,0.0,-3.0,10.0,-1.0,-5.0,7.0,10077.0,8297.0,6877.0,7125.0,0.0,-7.0,4.0,1.0
2022-05-03 16:55:48.067463-07:00,2126.0,622.2,1415.8,1658.7,1100.8,1299.8,1538.5,1766.6,3446.7,3438.2,1792.6,1463.5,1291.8,3439.5,1155.0,1603.0,3445.5,3449.1,698.7,1279.2,958.5,602.0,1413.1,1897.7,3455.2,3444.3,722.5,961.1,1346.7,1595.5,1390.3,1076.4,-5.0,-2.0,2.0,9902.0,11491.0,4286.0,4468.0,2.0,-8.0,-3.0,0.0,-6.0,9.0,10077.0,8298.0,6876.0,7124.0,8.0,-6.0,-5.0,1.0
2022-05-03 16:55:48.068532-07:00,2132.1,622.2,1415.8,1658.7,1106.9,1304.3,1527.3,1766.6,3449.1,3438.2,1792.6,1463.5,1290.9,3445.5,1148.0,1603.0,3445.5,3445.5,697.9,1281.9,958.5,602.0,1413.1,1887.9,3455.2,3451.6,730.7,969.6,1346.7,1595.5,1390.3,1081.6,0.0,-6.0,4.0,9901.0,11493.0,4285.0,4466.0,0.0,-2.0,5.0,2.0,-4.0,9.0,10076.0,8299.0,6877.0,7123.0,2.0,-5.0,5.0,1.0
2022-05-03 16:55:48.069525-07:00,2132.1,620.5,1423.1,1654.9,1106.9,1304.3,1527.3,1764.6,3449.1,3446.7,1803.2,1470.9,1290.9,3445.5,1148.0,1603.0,3444.3,3445.5,697.9,1281.9,960.2,601.2,1415.8,1887.9,3440.7,3451.6,730.7,969.6,1342.2,1604.0,1383.0,1081.6,-2.0,2.0,6.0,9901.0,11494.0,4284.0,4467.0,-1.0,-2.0,1.0,2.0,-4.0,8.0,10076.0,8299.0,6877.0,7123.0,9.0,-2.0,-4.0,1.0
2022-05-03 16:55:48.218394-07:00,2126.0,620.5,1423.1,1654.9,1100.8,1299.0,1520.8,1764.6,3449.1,3446.7,1803.2,1470.9,1294.5,3450.4,1152.4,1603.0,3444.3,3440.7,701.1,1281.0,960.2,601.2,1415.8,1879.1,3440.7,3449.1,730.7,966.2,1342.2,1604.0,1383.0,1085.1,-7.0,-4.0,2.0,9898.0,11496.0,4285.0,4466.0,9.0,6.0,2.0,0.0,-6.0,11.0,10075.0,8300.0,6878.0,7122.0,10.0,0.0,2.0,1.0
2022-05-03 16:55:48.308004-07:00,2131.1,618.9,1419.5,1661.5,1099.9,1301.6,1530.1,1756.0,3440.7,3451.6,1797.4,1458.9,1290.9,3452.8,1148.9,1598.3,3449.1,3439.5,701.9,1280.1,961.1,602.0,1407.6,1886.9,3441.9,3449.1,736.5,965.4,1342.2,1598.3,1386.6,1085.1,1.0,-1.0,1.0,9897.0,11496.0,4283.0,4469.0,5.0,0.0,-2.0,1.0,-2.0,5.0,10075.0,8300.0,6878.0,7122.0,4.0,-3.0,-1.0,1.0
2022-05-03 16:55:48.309234-07:00,2131.1,625.4,1426.8,1668.2,1099.9,1301.6,1527.3,1766.6,3440.7,3457.6,1789.7,1470.9,1290.9,3452.8,1149.8,1596.4,3437.0,3447.9,701.9,1280.1,960.2,594.7,1409.4,1886.9,3444.3,3451.6,736.5,965.4,1349.4,1598.3,1382.1,1085.1,-7.0,-3.0,3.0,9897.0,11496.0,4283.0,4469.0,-5.0,-7.0,6.0,-1.0,-3.0,8.0,10075.0,8301.0,6878.0,7122.0,-9.0,-7.0,4.0,1.0
2022-05-03 16:55:48.310395-07:00,2123.0,624.6,1426.8,1668.2,1103.4,1295.4,1527.3,1766.6,3443.1,3454.0,1789.7,1470.9,1292.7,3449.1,1149.8,1596.4,3437.0,3447.9,697.0,1281.9,960.2,594.7,1413.1,1880.1,3444.3,3451.6,729.9,962.0,1349.4,1598.3,1380.3,1079.0,-6.0,1.0,5.0,9897.0,11497.0,4282.0,4470.0,5.0,2.0,-2.0,-5.0,-7.0,9.0,10075.0,8301.0,6878.0,7122.0,9.0,1.0,-2.0,1.0
2022-05-03 16:55:48.311126-07:00,2123.0,624.6,1418.6,1658.7,1103.4,1295.4,1532.0,1758.9,3443.1,3454.0,1794.5,1461.7,1292.7,3449.1,1149.8,1594.6,3444.3,3445.5,697.0,1281.9,960.2,598.7,1413.1,1880.1,3438.2,3445.5,729.9,962.0,1344.0,1602.1,1380.3,1079.0,0.0,-4.0,2.0,9897.0,11497.0,4282.0,4470.0,7.0,6.0,-1.0,2.0,-8.0,5.0,10075.0,8301.0,6878.0,7121.0,7.0,0.0,0.0,1.0
2022-05-03 16:55:48.312901-07:00,2135.1,624.6,1420.4,1656.8,1102.5,1308.8,1535.7,1763.7,3444.3,3443.1,1799.4,1466.3,1291.8,3444.3,1146.3,1597.4,3449.1,3445.5,701.9,1285.5,959.4,603.6,1413.1,1885.0,3443.1,3444.3,727.4,970.5,1338.6,1598.3,1387.5,1078.2,-5.0,0.0,2.0,9896.0,11496.0,4283.0,4471.0,1.0,-6.0,-7.0,0.0,-5.0,6.0,10075.0,8301.0,6878.0,7121.0,-2.0,-6.0,-4.0,1.0
2022-05-03 16:55:48.398590-07:00,2131.1,626.2,1414.9,1656.8,1097.3,1296.3,1535.7,1763.7,3444.3,3445.5,1796.5,1466.3,1290.9,3445.5,1146.3,1597.4,3449.1,3445.5,706.0,1280.1,959.4,605.2,1408.5,1883.0,3443.1,3444.3,728.2,965.4,1338.6,1604.0,1378.5,1074.7,-9.0,-3.0,7.0,9896.0,11496.0,4283.0,4471.0,3.0,6.0,-1.0,0.0,-6.0,11.0,10075.0,8301.0,6878.0,7121.0,2.0,0.0,-2.0,1.0
2022-05-03 16:55:48.399436-07:00,2131.1,626.2,1414.9,1657.7,1097.3,1298.1,1529.2,1763.7,3444.3,3445.5,1796.5,1466.3,1290.9,3447.9,1149.8,1604.0,3440.7,3440.7,703.6,1280.1,961.1,605.2,1408.5,1883.0,3450.4,3438.2,729.9,965.4,1346.7,1604.0,1378.5,1074.7,-11.0,0.0,-2.0,9894.0,11495.0,4287.0,4475.0,7.0,16.0,-2.0,-9.0,-6.0,6.0,10074.0,8303.0,6879.0,7120.0,11.0,3.0,-1.0,1.0
2022-05-03 16:55:48.427993-07:00,2127.0,625.4,1423.1,1657.7,1103.4,1298.1,1529.2,1763.7,3450.4,3449.1,1790.7,1466.3,1288.2,3447.9,1149.8,1604.0,3440.7,3440.7,703.6,1280.1,961.1,597.9,1406.7,1887.9,3450.4,3438.2,729.9,969.6,1346.7,1600.2,1385.7,1084.2,-4.0,0.0,4.0,9892.0,11497.0,4288.0,4475.0,12.0,-2.0,7.0,0.0,-3.0,6.0,10073.0,8303.0,6879.0,7120.0,0.0,0.0,5.0,1.0
2022-05-03 16:55:48.487946-07:00,2127.0,625.4,1423.1,1659.6,1103.4,1299.8,1533.8,1756.0,3450.4,3449.1,1790.7,1469.0,1288.2,3443.1,1148.9,1599.3,3451.6,3437.0,706.0,1280.1,958.5,597.9,1406.7,1887.9,3454.0,3449.1,730.7,969.6,1346.7,1600.2,1385.7,1084.2,-10.0,-7.0,-19.0,9895.0,11494.0,4290.0,4473.0,-3.0,-7.0,-27.0,2.0,-1.0,11.0,10075.0,8302.0,6877.0,7121.0,-2.0,9.0,-2.0,1.0
2022-05-03 16:55:48.547808-07:00,2132.1,628.6,1419.5,1659.6,1096.4,1299.8,1533.8,1756.0,3451.6,3446.7,1960.8,1469.0,1298.1,3443.1,1148.9,1599.3,3451.6,3437.0,706.0,1280.1,958.5,602.8,1415.8,1886.9,3454.0,3449.1,730.7,968.8,1346.7,1604.0,1379.4,1081.6,-4.0,1.0,-4.0,9890.0,11499.0,4298.0,4464.0,15.0,-5.0,-13.0,-4.0,4.0,0.0,10070.0,8306.0,6882.0,7118.0,9.0,1.0,0.0,1.0
2022-05-03 16:55:48.577991-07:00,2132.1,628.6,1419.5,1661.5,1096.4,1293.6,1532.9,1754.1,3451.6,3446.7,1960.8,1491.2,1298.1,3444.3,1193.8,1614.3,3443.1,3438.2,698.7,1280.1,963.7,602.8,1415.8,1886.9,3443.1,3449.1,731.5,968.8,1344.9,1604.0,1379.4,1081.6,-9.0,2.0,-15.0,9899.0,11489.0,4296.0,4470.0,-21.0,-10.0,3.0,-5.0,1.0,6.0,10075.0,8301.0,6878.0,7123.0,-8.0,-7.0,2.0,1.0
2022-05-03 16:55:48.667749-07:00,2124.0,624.6,1455.2,1657.7,1101.7,1293.6,1532.9,1754.1,3449.1,3446.7,2001.5,1490.3,1317.8,3444.3,1193.8,1614.3,3443.1,3438.2,698.7,1274.7,958.5,594.7,1424.1,1890.9,3443.1,3449.1,731.5,973.1,1335.0,1613.4,1410.3,1082.5,-6.0,-13.0,9.0,9903.0,11487.0,4292.0,4471.0,-4.0,-24.0,15.0,2.0,0.0,18.0,10076.0,8300.0,6876.0,7123.0,-10.0,9.0,0.0,1.0
2022-05-03 16:55:48.669413-07:00,2124.0,624.6,1455.2,1657.7,1106.9,1303.4,1523.6,1758.9,3449.1,3446.7,2001.5,1490.3,1325.0,3444.3,1247.1,1615.2,3433.4,3449.1,701.9,1282.8,958.5,594.7,1424.1,1890.9,3452.8,3454.0,734.0,979.0,1335.0,1613.4,1410.3,1082.5,1.0,5.0,-1.0,9907.0,11492.0,4275.0,4466.0,-11.0,-38.0,28.0,0.0,-4.0,0.0,10076.0,8300.0,6876.0,7123.0,5.0,-8.0,4.0,1.0
2022-05-03 16:55:48.788949-07:00,2134.1,626.2,1559.0,1692.9,1106.9,1303.4,1523.6,1758.9,3446.7,3439.5,2094.7,1522.7,1325.0,3444.3,1247.1,1615.2,3433.4,3449.1,701.9,1282.8,962.0,597.9,1426.8,1899.7,3452.8,3454.0,734.0,979.0,1344.9,1649.2,1491.2,1087.7,-12.0,-7.0,-4.0,9930.0,11476.0,4251.0,4478.0,-94.0,-57.0,66.0,4.0,-9.0,12.0,10081.0,8296.0,6865.0,7130.0,-21.0,-2.0,10.0,1.0
2022-05-03 16:55:48.790127-07:00,2134.1,626.2,1559.0,1692.9,1121.7,1309.7,1526.4,1757.9,3446.7,3439.5,2094.7,1522.7,1345.8,3452.8,1388.5,1667.2,3440.7,3444.3,702.8,1280.1,962.0,597.9,1426.8,1899.7,3454.0,3440.7,735.6,987.6,1344.9,1649.2,1491.2,1087.7,-8.0,-8.0,0.0,9959.0,11472.0,4189.0,4485.0,-127.0,-68.0,109.0,-12.0,-6.0,-3.0,10088.0,8297.0,6854.0,7130.0,-48.0,-45.0,21.0,1.0
2022-05-03 16:55:48.817698-07:00,2136.1,623.8,1822.6,1782.0,1121.7,1309.7,1526.4,1757.9,3447.9,3451.6,2300.4,1582.4,1345.8,3452.8,1388.5,1667.2,3440.7,3444.3,702.8,1280.1,962.0,600.4,1439.6,1931.1,3454.0,3440.7,735.6,987.6,1354.9,1798.4,1652.0,1078.2,15.0,4.0,-20.0,10004.0,11448.0,4098.0,4528.0,-212.0,-134.0,171.0,12.0,-18.0,13.0,10102.0,8298.0,6829.0,7135.0,-43.0,-36.0,23.0,1.0
2022-05-03 16:55:48.908738-07:00,2136.1,623.8,1822.6,1782.0,1147.1,1338.6,1531.0,1765.6,3447.9,3451.6,2300.4,1582.4,1381.2,3446.7,1571.1,1776.2,3449.1,3447.9,697.9,1289.1,962.0,600.4,1439.6,1931.1,3454.0,3447.9,740.6,994.5,1354.9,1798.4,1652.0,1078.2,-21.0,14.0,28.0,10067.0,11400.0,4036.0,4565.0,-241.0,4.0,65.0,-1.0,-14.0,25.0,10119.0,8290.0,6810.0,7137.0,-39.0,-15.0,-7.0,1.0
2022-05-03 16:55:48.938809-07:00,2192.2,621.4,2046.4,1939.0,1147.1,1338.6,1531.0,1774.3,3447.9,3446.7,2481.3,1635.0,1381.2,3446.7,1571.1,1890.9,3445.5,3447.9,697.9,1289.1,957.7,605.2,1463.5,1999.5,3458.9,3447.9,740.6,994.5,1353.1,1959.8,1835.2,1078.2,25.0,-8.0,15.0,10155.0,11349.0,3927.0,4592.0,-383.0,-190.0,163.0,7.0,-6.0,-7.0,10132.0,8280.0,6801.0,7140.0,-53.0,-21.0,7.0,1.0
2022-05-03 16:55:48.997756-07:00,2349.4,621.4,2046.4,1939.0,1167.4,1361.2,1545.9,1774.3,3443.1,3446.7,2481.3,1635.0,1415.8,3446.7,1684.3,1890.9,3445.5,3449.1,701.9,1284.6,957.7,605.2,1463.5,2076.5,3458.9,3450.4,743.9,1001.3,1353.1,1959.8,1835.2,1079.9,10.0,27.0,39.0,10250.0,11258.0,3841.0,4675.0,-359.0,85.0,125.0,-5.0,-1.0,4.0,10147.0,8271.0,6786.0,7142.0,-3.0,-13.0,-17.0,1.0
2022-05-03 16:55:49.028460-07:00,2349.4,630.3,2110.8,2069.5,1167.4,1361.2,1545.9,1868.4,3443.1,3445.5,2569.1,1694.8,1415.8,3446.7,1684.3,1982.6,3446.7,3449.1,701.9,1284.6,958.5,606.0,1499.5,2076.5,3451.6,3450.4,743.9,1001.3,1370.3,2052.4,1903.6,1079.9,20.0,-50.0,-11.0,10285.0,11216.0,3794.0,4740.0,-19.0,51.0,133.0,7.0,-42.0,15.0,10108.0,8296.0,6847.0,7111.0,337.0,102.0,-82.0,1.0
2022-05-03 16:55:49.118070-07:00,2707.3,630.3,2110.8,2069.5,1200.9,1377.5,1611.5,1868.4,3438.2,3445.5,2569.1,1694.8,1436.0,3449.1,1709.1,1982.6,3446.7,3440.7,699.5,1289.1,958.5,606.0,1499.5,2144.3,3451.6,3443.1,780.3,1003.0,1370.3,2052.4,1903.6,1083.4,-3.0,-21.0,-15.0,10211.0,11277.0,3779.0,4766.0,299.0,-60.0,160.0,5.0,-21.0,15.0,9992.0,8380.0,6996.0,7031.0,604.0,173.0,-109.0,1.0
2022-05-03 16:55:49.119194-07:00,2707.3,627.8,2110.8,2126.0,1200.9,1377.5,1611.5,2011.4,3438.2,3449.1,2589.6,1725.3,1436.0,3449.1,1709.1,2038.4,3443.1,3440.7,699.5,1289.1,960.2,605.2,1541.3,2144.3,3451.6,3443.1,780.3,1003.0,1376.6,2100.7,1950.9,1083.4,-19.0,0.0,0.0,10084.0,11386.0,3809.0,4755.0,336.0,63.0,83.0,0.0,4.0,24.0,9842.0,8493.0,7178.0,6921.0,562.0,153.0,-84.0,1.0
2022-05-03 16:55:49.268467-07:00,2894.1,743.9,2110.8,2126.0,1243.5,1390.3,1711.0,2011.4,3443.1,3447.9,2589.6,1725.3,1447.9,3438.2,1697.6,2038.4,3443.1,3438.2,701.9,1291.8,960.2,605.2,1553.4,2219.8,3451.6,3440.7,795.2,1011.6,1376.6,2100.7,1936.1,1092.1,-19.0,0.0,-30.0,9995.0,11460.0,3826.0,4752.0,214.0,6.0,51.0,-8.0,12.0,4.0,9728.0,8573.0,7314.0,6841.0,387.0,112.0,-69.0,1.0
2022-05-03 16:55:49.269350-07:00,2894.1,743.9,2071.5,2132.1,1243.5,1390.3,1787.8,2062.5,3443.1,3447.9,2615.6,1757.0,1447.9,3438.2,1688.1,2058.4,3451.6,3443.1,701.9,1291.8,957.7,603.6,1553.4,2219.8,3451.6,3445.5,795.2,1011.6,1492.1,2084.6,1936.1,1092.1,11.0,11.0,-29.0,9960.0,11500.0,3807.0,4741.0,58.0,-62.0,10.0,-7.0,-11.0,-29.0,9671.0,8612.0,7385.0,6798.0,165.0,39.0,-51.0,1.0
2022-05-03 16:55:49.298387-07:00,2880.6,771.1,2071.5,2132.1,1314.2,1389.4,1787.8,2062.5,3449.1,3443.1,2615.6,1757.0,1470.9,3454.0,1688.1,2058.4,3451.6,3443.1,701.1,1285.5,957.7,603.6,1563.7,2289.0,3451.6,3445.5,791.0,996.2,1492.1,2084.6,1913.4,1105.1,-17.0,-6.0,-27.0,9956.0,11512.0,3813.0,4718.0,-20.0,-55.0,-14.0,-4.0,4.0,5.0,9652.0,8629.0,7416.0,6768.0,52.0,-5.0,-30.0,1.0
2022-05-03 16:55:49.537361-07:00,2880.6,771.1,2026.4,2114.9,1314.2,1389.4,1790.7,2050.4,3449.1,3443.1,2562.6,1757.9,1470.9,3454.0,1657.7,2052.4,3440.7,3449.1,701.1,1285.5,956.8,602.8,1563.7,2289.0,3444.3,3444.3,791.0,996.2,1532.9,2067.5,1913.4,1105.1,-12.0,-23.0,-4.0,9982.0,11512.0,3781.0,4689.0,-72.0,-108.0,-7.0,-9.0,-10.0,2.0,9663.0,8630.0,7411.0,6758.0,-22.0,-41.0,-2.0,1.0
2022-05-03 16:55:49.718502-07:00,2848.1,765.3,2026.4,2114.9,1362.1,1390.3,1790.7,2050.4,3449.1,3443.1,2562.6,1757.9,1488.4,3439.5,1657.7,2052.4,3440.7,3449.1,701.1,1290.0,956.8,602.8,1551.5,2300.4,3444.3,3444.3,793.5,991.0,1532.9,2067.5,1906.6,1112.1,1.0,18.0,0.0,10004.0,11519.0,3725.0,4667.0,-55.0,-232.0,73.0,0.0,-9.0,3.0,9674.0,8639.0,7393.0,6750.0,-4.0,-60.0,-2.0,1.0
2022-05-03 16:55:49.719444-07:00,2848.1,765.3,2010.4,2111.8,1362.1,1390.3,1781.0,2033.4,3449.1,3443.1,2543.3,1752.1,1488.4,3439.5,1647.3,2043.4,3439.5,3443.1,701.1,1290.0,957.7,606.0,1551.5,2300.4,3450.4,3449.1,793.5,991.0,1545.0,2053.4,1906.6,1112.1,2.0,-11.0,29.0,10036.0,11527.0,3660.0,4630.0,-42.0,-36.0,1.0,-3.0,-8.0,13.0,9690.0,8640.0,7376.0,6744.0,-20.0,-35.0,7.0,1.0
2022-05-03 16:55:49.720407-07:00,2785.7,752.1,1991.5,2111.8,1364.8,1393.9,1781.0,2033.4,3438.2,3441.9,2518.6,1752.1,1485.6,3449.1,1647.3,2043.4,3439.5,3443.1,704.4,1289.1,957.7,603.6,1551.5,2303.5,3450.4,3449.1,791.0,985.9,1545.0,2049.4,1892.8,1107.8,7.0,15.0,16.0,10047.0,11530.0,3631.0,4622.0,-25.0,-100.0,27.0,6.0,0.0,0.0,9695.0,8644.0,7370.0,6739.0,-4.0,-13.0,-10.0,1.0
2022-05-03 16:55:49.808787-07:00,2785.7,752.1,1991.5,2103.7,1364.8,1387.5,1779.1,2022.4,3438.2,3441.9,2518.6,1747.3,1485.6,3441.9,1641.6,2036.4,3438.2,3444.3,704.4,1289.1,957.7,603.6,1551.5,2303.5,3449.1,3449.1,789.4,985.9,1539.4,2049.4,1892.8,1107.8,-7.0,-2.0,12.0,10055.0,11532.0,3621.0,4608.0,8.0,20.0,-31.0,2.0,-3.0,14.0,9694.0,8645.0,7375.0,6733.0,12.0,11.0,-12.0,1.0
2022-05-03 16:55:49.809855-07:00,2741.4,750.5,1981.6,2103.7,1358.5,1387.5,1779.1,2022.4,3445.5,3438.2,2514.3,1747.3,1493.0,3441.9,1641.6,2036.4,3438.2,3444.3,704.4,1287.3,957.7,601.2,1549.7,2293.1,3449.1,3449.1,789.4,976.5,1539.4,2036.4,1901.6,1106.0,-5.0,-4.0,5.0,10057.0,11529.0,3626.0,4608.0,11.0,-2.0,5.0,-3.0,-8.0,10.0,9692.0,8645.0,7379.0,6732.0,25.0,9.0,-2.0,1.0
2022-05-03 16:55:49.810610-07:00,2698.5,743.9,1969.7,2087.6,1345.8,1390.3,1763.7,2001.5,3445.5,3451.6,2498.3,1745.4,1484.7,3445.5,1633.1,2029.4,3449.1,3449.1,706.0,1284.6,957.7,605.2,1544.1,2292.1,3452.8,3449.1,791.0,975.6,1517.1,2028.4,1875.2,1108.6,4.0,18.0,7.0,10035.0,11537.0,3628.0,4632.0,11.0,-12.0,-15.0,1.0,4.0,-4.0,9680.0,8655.0,7379.0,6736.0,12.0,3.0,-16.0,1.0
2022-05-03 16:55:49.812830-07:00,2698.5,743.9,1969.7,2087.6,1337.7,1382.1,1753.1,1987.5,3445.5,3451.6,2498.3,1745.4,1479.2,3441.9,1624.7,2018.4,3438.2,3443.1,705.2,1289.1,957.7,605.2,1544.1,2292.1,3447.9,3449.1,791.0,977.3,1517.1,2028.4,1875.2,1108.6,-10.0,-17.0,-1.0,10036.0,11535.0,3638.0,4629.0,3.0,6.0,7.0,1.0,-9.0,8.0,9681.0,8654.0,7379.0,6735.0,6.0,3.0,-1.0,1.0
2022-05-03 16:55:49.897866-07:00,2687.5,732.3,1960.8,2072.5,1337.7,1382.1,1753.1,1987.5,3451.6,3449.1,2475.9,1735.8,1479.2,3441.9,1624.7,2018.4,3438.2,3443.1,705.2,1289.1,959.4,601.2,1535.7,2277.6,3447.9,3449.1,791.0,977.3,1507.8,2029.4,1874.2,1104.3,-4.0,3.0,0.0,10036.0,11535.0,3636.0,4630.0,-6.0,2.0,3.0,0.0,-3.0,1.0,9681.0,8654.0,7379.0,6736.0,0.0,-3.0,6.0,1.0
2022-05-03 16:55:50.077744-07:00,2687.5,732.3,1960.8,2072.5,1335.9,1390.3,1744.5,1983.6,3451.6,3449.1,2475.9,1735.8,1470.9,3444.3,1619.0,2015.4,3440.7,3440.7,706.0,1282.8,959.4,601.2,1535.7,2277.6,3447.9,3443.1,790.2,966.2,1507.8,2029.4,1874.2,1104.3,0.0,-6.0,9.0,10036.0,11536.0,3635.0,4627.0,16.0,0.0,7.0,1.0,0.0,2.0,9681.0,8654.0,7380.0,6736.0,13.0,10.0,-2.0,1.0
2022-05-03 16:55:50.347887-07:00,2667.8,730.7,1964.7,2060.5,1335.9,1390.3,1744.5,1983.6,3437.0,3450.4,2485.5,1729.1,1470.9,3444.3,1619.0,2015.4,3440.7,3440.7,706.0,1282.8,954.3,608.4,1532.9,2262.1,3447.9,3443.1,790.2,966.2,1495.8,2025.4,1871.3,1103.4,-15.0,-1.0,5.0,10028.0,11541.0,3639.0,4629.0,25.0,14.0,18.0,-5.0,-2.0,18.0,9672.0,8656.0,7387.0,6736.0,22.0,15.0,12.0,1.0
2022-05-03 16:55:50.349539-07:00,2664.6,730.7,1964.7,2060.5,1337.7,1379.4,1735.8,1976.6,3449.1,3450.4,2485.5,1729.1,1477.3,3446.7,1619.9,2009.4,3439.5,3444.3,706.0,1290.9,954.3,608.4,1532.9,2267.2,3456.4,3446.7,792.7,968.8,1495.8,2025.4,1871.3,1099.9,-6.0,2.0,-1.0,10021.0,11546.0,3641.0,4632.0,14.0,18.0,6.0,0.0,-3.0,5.0,9664.0,8658.0,7395.0,6738.0,22.0,20.0,5.0,1.0
2022-05-03 16:55:50.350471-07:00,2664.6,730.7,1950.9,2066.5,1337.7,1379.4,1735.8,1982.6,3449.1,3437.0,2468.5,1729.1,1477.3,3446.7,1619.9,2015.4,3445.5,3444.3,706.0,1290.9,951.7,600.4,1529.2,2267.2,3449.1,3446.7,792.7,968.8,1500.4,2010.4,1864.5,1099.9,-4.0,10.0,-7.0,10018.0,11547.0,3645.0,4632.0,-5.0,2.0,-12.0,-2.0,2.0,3.0,9662.0,8658.0,7398.0,6738.0,-2.0,-2.0,-10.0,1.0
2022-05-03 16:55:50.351263-07:00,2663.5,730.7,1950.9,2066.5,1326.8,1380.3,1751.2,1982.6,3451.6,3437.0,2468.5,1729.1,1478.3,3444.3,1611.5,2015.4,3445.5,3447.9,708.5,1279.2,951.7,600.4,1529.2,2252.8,3449.1,3451.6,781.1,962.0,1500.4,2010.4,1864.5,1099.9,-4.0,-15.0,-1.0,10022.0,11546.0,3651.0,4622.0,-9.0,-21.0,-15.0,1.0,-15.0,2.0,9666.0,8656.0,7400.0,6732.0,-4.0,-13.0,-7.0,1.0
2022-05-03 16:55:50.352901-07:00,2663.5,729.0,1947.9,2077.5,1326.8,1380.3,1751.2,1966.7,3451.6,3446.7,2474.9,1733.0,1478.3,3444.3,1611.5,2010.4,3441.9,3447.9,708.5,1279.2,953.4,604.4,1526.4,2252.8,3445.5,3451.6,781.1,962.0,1480.1,2013.4,1862.5,1099.9,-3.0,3.0,4.0,10022.0,11548.0,3646.0,4622.0,0.0,7.0,18.0,0.0,-8.0,5.0,9666.0,8658.0,7397.0,6732.0,3.0,-3.0,15.0,1.0
2022-05-03 16:55:50.378322-07:00,2653.7,729.0,1947.9,2077.5,1329.6,1382.1,1735.8,1966.7,3449.1,3446.7,2474.9,1733.0,1478.3,3441.9,1616.2,2010.4,3441.9,3443.1,701.9,1281.0,953.4,604.4,1526.4,2254.8,3445.5,3447.9,784.4,962.8,1480.1,2013.4,1862.5,1104.3,-4.0,-2.0,-3.0,10024.0,11539.0,3662.0,4625.0,-13.0,5.0,7.0,2.0,-5.0,3.0,9670.0,8649.0,7401.0,6735.0,-12.0,9.0,4.0,1.0
2022-05-03 16:55:50.408051-07:00,2643.9,720.8,1945.0,2061.5,1326.8,1381.2,1732.0,1965.7,3444.3,3449.1,2462.1,1728.2,1472.7,3441.9,1607.7,1998.5,3438.2,3445.5,707.7,1286.4,957.7,608.4,1526.4,2239.4,3450.4,3445.5,788.6,967.1,1489.3,2006.4,1854.7,1099.0,-15.0,3.0,-6.0,10027.0,11536.0,3661.0,4629.0,-12.0,-7.0,16.0,-11.0,-5.0,8.0,9672.0,8646.0,7398.0,6737.0,-13.0,0.0,9.0,1.0
2022-05-03 16:55:50.498334-07:00,2643.9,720.8,1938.0,2054.4,1326.8,1381.2,1729.1,1959.8,3444.3,3449.1,2465.3,1729.1,1472.7,3441.9,1608.7,2008.4,3444.3,3449.1,707.7,1286.4,954.3,607.6,1526.4,2239.4,3445.5,3445.5,788.6,967.1,1493.0,2000.5,1854.7,1099.0,-9.0,3.0,2.0,10030.0,11535.0,3658.0,4625.0,-13.0,-12.0,-10.0,-4.0,-5.0,11.0,9673.0,8646.0,7397.0,6738.0,-9.0,-10.0,-2.0,1.0
2022-05-03 16:55:50.527772-07:00,2635.1,718.4,1938.0,2054.4,1324.1,1373.9,1729.1,1959.8,3451.6,3444.3,2465.3,1729.1,1470.0,3443.1,1608.7,2008.4,3444.3,3449.1,713.4,1286.4,954.3,607.6,1522.7,2248.7,3445.5,3445.5,786.9,974.8,1493.0,2000.5,1860.6,1097.3,1.0,-5.0,14.0,10033.0,11534.0,3658.0,4622.0,3.0,3.0,3.0,4.0,-11.0,8.0,9673.0,8646.0,7397.0,6737.0,1.0,7.0,6.0,1.0
2022-05-03 16:55:50.587840-07:00,2635.1,718.4,1941.0,2054.4,1324.1,1374.8,1727.2,1962.8,3451.6,3444.3,2452.6,1726.3,1470.0,3443.1,1604.0,1994.5,3438.2,3451.6,709.3,1286.4,959.4,606.0,1522.7,2248.7,3441.9,3446.7,798.5,974.8,1481.0,2002.5,1860.6,1097.3,-3.0,-4.0,-4.0,10031.0,11531.0,3663.0,4628.0,-2.0,21.0,9.0,3.0,0.0,7.0,9672.0,8645.0,7399.0,6738.0,6.0,8.0,10.0,1.0
2022-05-03 16:55:50.647757-07:00,2627.5,722.5,1942.0,2054.4,1325.0,1374.8,1727.2,1962.8,3441.9,3441.9,2450.4,1726.3,1475.5,3443.1,1604.0,1994.5,3438.2,3451.6,709.3,1281.9,959.4,605.2,1522.7,2250.7,3441.9,3446.7,798.5,963.7,1481.0,1998.5,1855.7,1097.3,-5.0,-5.0,-3.0,10028.0,11534.0,3664.0,4627.0,1.0,0.0,6.0,0.0,-11.0,4.0,9669.0,8648.0,7400.0,6738.0,-5.0,0.0,8.0,1.0
2022-05-03 16:55:50.798442-07:00,2627.5,722.5,1942.0,2044.4,1325.0,1372.1,1727.2,1956.8,3441.9,3441.9,2450.4,1728.2,1475.5,3450.4,1600.2,1985.6,3438.2,3439.5,703.6,1281.9,960.2,605.2,1522.7,2250.7,3449.1,3449.1,787.7,963.7,1491.2,1998.5,1855.7,1097.3,-15.0,0.0,0.0,10029.0,11536.0,3654.0,4629.0,-4.0,-24.0,28.0,-7.0,-11.0,6.0,9669.0,8648.0,7397.0,6740.0,7.0,-10.0,9.0,1.0
2022-05-03 16:55:50.799775-07:00,2627.5,725.8,1937.1,2044.4,1324.1,1372.1,1727.2,1956.8,3440.7,3441.9,2445.1,1728.2,1471.8,3450.4,1600.2,1985.6,3438.2,3439.5,703.6,1285.5,960.2,597.9,1519.9,2239.4,3449.1,3449.1,787.7,959.4,1491.2,2000.5,1843.0,1095.6,-10.0,7.0,3.0,10029.0,11539.0,3644.0,4628.0,-6.0,-7.0,8.0,-7.0,-7.0,6.0,9671.0,8650.0,7395.0,6738.0,-11.0,-10.0,5.0,1.0
2022-05-03 16:55:50.800711-07:00,2627.5,725.8,1937.1,2046.4,1324.1,1377.5,1716.7,1959.8,3440.7,3441.9,2445.1,1722.4,1471.8,3449.1,1594.6,1994.5,3443.1,3439.5,702.8,1285.5,956.0,597.9,1519.9,2239.4,3443.1,3438.2,785.2,959.4,1483.8,2000.5,1843.0,1095.6,-5.0,-4.0,0.0,10032.0,11537.0,3642.0,4628.0,1.0,-14.0,3.0,0.0,-9.0,8.0,9675.0,8651.0,7391.0,6736.0,2.0,-11.0,1.0,1.0
2022-05-03 16:55:50.827749-07:00,2613.4,720.0,1935.1,2048.4,1325.0,1377.5,1716.7,1959.8,3438.2,3445.5,2445.1,1717.7,1473.6,3449.1,1594.6,1994.5,3443.1,3439.5,702.8,1287.3,958.5,599.6,1519.0,2239.4,3443.1,3438.2,785.2,962.0,1482.9,1994.5,1847.9,1098.2,3.0,0.0,3.0,10032.0,11538.0,3639.0,4628.0,-7.0,-6.0,7.0,12.0,-4.0,7.0,9676.0,8652.0,7389.0,6735.0,-5.0,-5.0,5.0,1.0
2022-05-03 16:55:50.857802-07:00,2613.4,720.0,1935.1,2048.4,1325.0,1373.9,1728.2,1942.0,3438.2,3445.5,2445.1,1717.7,1472.7,3446.7,1599.3,1999.5,3449.1,3445.5,706.0,1283.7,958.5,599.6,1519.0,2239.4,3458.9,3446.7,786.9,962.0,1482.9,1994.5,1847.9,1098.2,4.0,1.0,8.0,10032.0,11538.0,3639.0,4628.0,6.0,-5.0,7.0,5.0,-3.0,10.0,9676.0,8652.0,7389.0,6735.0,3.0,-1.0,4.0,1.0
2022-05-03 16:55:50.917824-07:00,2613.4,718.4,1924.3,2046.4,1325.0,1373.9,1728.2,1942.0,3450.4,3454.0,2442.0,1715.8,1472.7,3446.7,1599.3,1999.5,3449.1,3445.5,706.0,1283.7,954.3,608.4,1519.0,2242.5,3458.9,3446.7,786.9,962.0,1481.9,1995.5,1849.8,1095.6,-14.0,-1.0,1.0,10030.0,11537.0,3644.0,4633.0,2.0,21.0,-6.0,-9.0,-12.0,9.0,9675.0,8651.0,7391.0,6736.0,-3.0,6.0,0.0,1.0
2022-05-03 16:55:50.977954-07:00,2613.4,718.4,1924.3,2046.4,1316.9,1379.4,1722.4,1950.9,3450.4,3454.0,2442.0,1715.8,1469.0,3449.1,1608.7,1996.5,3444.3,3444.3,706.9,1286.4,954.3,608.4,1519.0,2242.5,3456.4,3451.6,780.3,962.0,1481.9,1995.5,1849.8,1095.6,-7.0,-1.0,0.0,10029.0,11536.0,3645.0,4634.0,-5.0,4.0,4.0,0.0,-6.0,6.0,9674.0,8650.0,7391.0,6737.0,-3.0,-2.0,4.0,1.0
2022-05-03 16:55:51.187857-07:00,2619.9,718.4,1911.5,2044.4,1316.9,1379.4,1722.4,1950.9,3449.1,3449.1,2446.2,1724.4,1469.0,3449.1,1608.7,1996.5,3444.3,3444.3,706.9,1286.4,956.0,597.1,1512.5,2232.2,3456.4,3451.6,780.3,962.0,1480.1,1986.6,1864.5,1099.9,-7.0,-6.0,0.0,10029.0,11537.0,3644.0,4636.0,0.0,-6.0,15.0,0.0,-10.0,8.0,9674.0,8651.0,7391.0,6737.0,-5.0,-2.0,11.0,1.0
2022-05-03 16:55:51.190284-07:00,2619.9,718.4,1911.5,2044.4,1322.3,1373.9,1725.3,1950.9,3449.1,3449.1,2446.2,1724.4,1470.0,3446.7,1594.6,1991.5,3439.5,3438.2,702.8,1284.6,956.0,597.1,1512.5,2232.2,3451.6,3449.1,785.2,956.8,1480.1,1986.6,1864.5,1099.9,-6.0,7.0,0.0,10028.0,11541.0,3631.0,4636.0,0.0,-23.0,22.0,-3.0,0.0,8.0,9672.0,8654.0,7387.0,6740.0,3.0,-15.0,10.0,1.0
2022-05-03 16:55:51.191215-07:00,2624.3,714.2,1927.2,2045.4,1322.3,1373.9,1725.3,1945.0,3447.9,3449.1,2443.0,1713.8,1470.0,3446.7,1594.6,1988.5,3449.1,3438.2,702.8,1284.6,965.4,602.8,1517.1,2237.3,3445.5,3449.1,785.2,956.8,1481.9,1990.5,1844.0,1098.2,0.0,1.0,6.0,10029.0,11547.0,3617.0,4631.0,-1.0,-25.0,13.0,3.0,0.0,10.0,9675.0,8657.0,7382.0,6737.0,7.0,-10.0,4.0,1.0
2022-05-03 16:55:51.192235-07:00,2611.3,714.2,1927.2,2045.4,1314.2,1373.9,1715.8,1945.0,3449.1,3449.1,2443.0,1713.8,1468.1,3444.3,1596.4,1988.5,3449.1,3446.7,705.2,1281.9,965.4,602.8,1517.1,2240.4,3445.5,3450.4,782.7,950.0,1481.9,1990.5,1844.0,1092.9,3.0,0.0,13.0,10029.0,11548.0,3614.0,4629.0,9.0,7.0,0.0,5.0,-8.0,4.0,9676.0,8659.0,7380.0,6735.0,12.0,-4.0,3.0,1.0
2022-05-03 16:55:51.397783-07:00,2611.3,714.2,1925.2,2048.4,1314.2,1373.9,1715.8,1936.1,3449.1,3446.7,2437.7,1714.8,1468.1,3444.3,1596.4,1990.5,3443.1,3446.7,705.2,1281.9,960.2,606.8,1506.9,2240.4,3449.1,3450.4,782.7,950.0,1476.4,1992.5,1846.9,1092.9,-2.0,-6.0,7.0,10026.0,11548.0,3621.0,4633.0,2.0,22.0,-9.0,1.0,-16.0,4.0,9676.0,8659.0,7380.0,6736.0,-11.0,0.0,12.0,1.0
2022-05-03 16:55:51.547775-07:00,2640.6,714.2,1925.2,2048.4,1316.9,1373.0,1712.9,1936.1,3449.1,3446.7,2437.7,1714.8,1463.5,3447.9,1591.7,1990.5,3443.1,3433.4,703.6,1288.2,960.2,606.8,1506.9,2235.3,3449.1,3447.9,785.2,953.4,1476.4,1992.5,1846.9,1101.7,8.0,-6.0,12.0,10015.0,11545.0,3651.0,4640.0,52.0,113.0,-81.0,-5.0,-19.0,0.0,9676.0,8659.0,7372.0,6744.0,-52.0,6.0,35.0,1.0
2022-05-03 16:55:51.728389-07:00,2640.6,748.0,1953.9,2046.4,1316.9,1373.0,1712.9,1959.8,3449.1,3443.1,2446.2,1721.5,1463.5,3447.9,1591.7,2010.4,3443.1,3433.4,703.6,1288.2,960.2,609.2,1511.5,2235.3,3450.4,3447.9,785.2,953.4,1527.3,1999.5,1846.9,1101.7,2.0,10.0,9.0,9996.0,11512.0,3756.0,4678.0,67.0,314.0,-149.0,1.0,-7.0,12.0,9695.0,8639.0,7338.0,6780.0,-181.0,0.0,54.0,1.0
2022-05-03 16:55:51.787829-07:00,2937.1,800.2,1953.9,2046.4,1312.4,1379.4,1720.5,1959.8,3438.2,3441.9,2446.2,1721.5,1458.9,3443.1,1649.2,2010.4,3443.1,3440.7,706.9,1281.0,960.2,609.2,1512.5,2233.2,3450.4,3454.0,779.4,956.0,1527.3,1999.5,1967.7,1095.6,0.0,1.0,-13.0,9930.0,11486.0,3962.0,4711.0,281.0,418.0,-334.0,-3.0,-8.0,16.0,9713.0,8607.0,7316.0,6818.0,-66.0,48.0,-11.0,1.0
2022-05-03 16:55:51.877779-07:00,2937.1,800.2,2198.3,2165.6,1312.4,1379.4,1691.0,1959.8,3438.2,3441.9,2548.7,1730.1,1458.9,3443.1,1878.1,2109.8,3445.5,3441.9,706.9,1281.0,957.7,601.2,1512.5,2233.2,3439.5,3450.4,779.4,956.0,1568.3,2053.4,1967.7,1095.6,-22.0,-40.0,-19.0,9840.0,11488.0,4164.0,4722.0,233.0,282.0,-154.0,-7.0,-11.0,3.0,9725.0,8583.0,7308.0,6840.0,-101.0,-10.0,40.0,1.0
2022-05-03 16:55:51.998203-07:00,3062.8,777.8,2198.3,2165.6,1296.3,1371.2,1691.0,1959.8,3447.9,3438.2,2548.7,1730.1,1454.3,3439.5,1878.1,2109.8,3445.5,3441.9,698.7,1284.6,957.7,601.2,1554.3,2241.4,3439.5,3450.4,769.5,976.5,1568.3,2053.4,2040.4,1098.2,-3.0,36.0,7.0,9762.0,11483.0,4298.0,4776.0,155.0,358.0,-120.0,3.0,0.0,1.0,9740.0,8573.0,7273.0,6868.0,-81.0,-15.0,42.0,1.0
2022-05-03 16:55:51.999257-07:00,3062.8,777.8,2198.3,2165.6,1296.3,1371.2,1691.0,1959.8,3447.9,3438.2,2548.7,1730.1,1454.3,3439.5,1878.1,2109.8,3445.5,3441.9,698.7,1284.6,957.7,601.2,1554.3,2241.4,3439.5,3450.4,769.5,976.5,1568.3,2053.4,2040.4,1098.2,-3.0,36.0,7.0,9762.0,11483.0,4298.0,4776.0,155.0,358.0,-120.0,3.0,0.0,1.0,9740.0,8573.0,7273.0,6868.0,-81.0,-15.0,42.0,1.0
2022-05-03 16:55:52.000203-07:00,2966.6,775.3,2238.4,2133.1,1277.4,1373.0,1670.1,1919.3,3441.9,3451.6,2586.4,1694.8,1447.0,3443.1,1772.3,2062.5,3441.9,3441.9,705.2,1286.4,964.5,604.4,1545.9,2241.4,3450.4,3449.1,773.6,989.3,1529.2,2024.4,1975.6,1091.2,17.0,20.0,-8.0,9491.0,11496.0,4676.0,4932.0,-21.0,-5.0,116.0,-1.0,8.0,-5.0,9727.0,8577.0,7244.0,6913.0,-11.0,-36.0,44.0,1.0
2022-05-03 16:55:52.000897-07:00,2882.9,758.7,2088.6,2078.5,1264.0,1371.2,1660.6,1913.4,3451.6,3446.7,2494.0,1655.8,1430.5,3446.7,1581.4,1993.5,3443.1,3440.7,702.8,1287.3,959.4,597.9,1508.8,2277.6,3450.4,3447.9,765.3,976.5,1531.0,1929.2,1857.6,1092.9,0.0,-24.0,-8.0,9480.0,11497.0,4663.0,4965.0,214.0,45.0,21.0,0.0,-24.0,9.0,9737.0,8573.0,7221.0,6927.0,-18.0,-7.0,17.0,1.0
2022-05-03 16:55:52.028049-07:00,2845.9,756.3,1965.7,2078.5,1254.2,1371.2,1660.6,1913.4,3447.9,3443.1,2416.6,1655.8,1426.8,3446.7,1581.4,1993.5,3443.1,3440.7,702.8,1290.0,959.4,597.1,1502.3,2249.7,3450.4,3447.9,765.3,981.6,1531.0,1887.9,1797.4,1092.1,-6.0,-6.0,0.0,9348.0,11584.0,4721.0,4957.0,421.0,87.0,89.0,2.0,-11.0,15.0,9721.0,8589.0,7230.0,6920.0,111.0,30.0,27.0,1.0
2022-05-03 16:55:52.029247-07:00,2845.9,756.3,1965.7,2040.4,1233.7,1363.0,1652.0,1912.4,3447.9,3443.1,2416.6,1638.8,1419.5,3446.7,1504.1,1963.7,3443.1,3443.1,706.9,1281.0,961.1,597.1,1502.3,2249.7,3450.4,3449.1,772.8,990.2,1522.7,1887.9,1797.4,1092.1,-12.0,8.0,11.0,9217.0,11670.0,4766.0,4959.0,236.0,92.0,35.0,-3.0,-4.0,8.0,9693.0,8614.0,7242.0,6916.0,56.0,4.0,37.0,1.0
2022-05-03 16:55:52.029921-07:00,2845.9,756.3,1965.7,2040.4,1233.7,1363.0,1652.0,1912.4,3447.9,3443.1,2416.6,1638.8,1419.5,3446.7,1504.1,1963.7,3443.1,3443.1,706.9,1281.0,961.1,597.1,1502.3,2249.7,3450.4,3449.1,772.8,990.2,1522.7,1887.9,1797.4,1092.1,-12.0,8.0,11.0,9217.0,11670.0,4766.0,4959.0,236.0,92.0,35.0,-3.0,-4.0,8.0,9693.0,8614.0,7242.0,6916.0,56.0,4.0,37.0,1.0
2022-05-03 16:55:52.030602-07:00,2845.9,756.3,1965.7,2040.4,1233.7,1363.0,1652.0,1912.4,3447.9,3443.1,2416.6,1638.8,1419.5,3446.7,1504.1,1963.7,3443.1,3443.1,706.9,1281.0,961.1,597.1,1502.3,2249.7,3450.4,3449.1,772.8,990.2,1522.7,1887.9,1797.4,1092.1,-12.0,8.0,11.0,9217.0,11670.0,4766.0,4959.0,236.0,92.0,35.0,-3.0,-4.0,8.0,9693.0,8614.0,7242.0,6916.0,56.0,4.0,37.0,1.0
2022-05-03 16:55:52.057838-07:00,2758.0,744.7,1802.3,1978.6,1212.4,1361.2,1647.3,1916.4,3450.4,3441.9,2305.6,1619.9,1408.5,3449.1,1437.8,1931.1,3440.7,3440.7,699.5,1283.7,957.7,600.4,1523.6,2217.8,3446.7,3449.1,765.3,1016.8,1506.0,1840.1,1695.7,1090.3,-15.0,3.0,10.0,9096.0,11714.0,4855.0,4992.0,-129.0,135.0,-119.0,5.0,-7.0,15.0,9658.0,8651.0,7241.0,6919.0,-41.0,15.0,-6.0,1.0
2022-05-03 16:55:52.148524-07:00,2758.0,744.7,1802.3,1978.6,1202.7,1364.8,1638.8,1910.5,3450.4,3441.9,2305.6,1619.9,1401.2,3445.5,1401.2,1919.3,3438.2,3446.7,702.8,1289.1,957.7,600.4,1523.6,2217.8,3443.1,3446.7,752.1,1028.0,1506.0,1840.1,1695.7,1090.3,-13.0,-11.0,5.0,9118.0,11664.0,4903.0,5021.0,-14.0,121.0,-44.0,0.0,-7.0,8.0,9656.0,8647.0,7245.0,6924.0,38.0,22.0,2.0,1.0
2022-05-03 16:55:52.177855-07:00,2689.7,742.2,1764.6,1954.8,1202.7,1364.8,1638.8,1910.5,3441.9,3447.9,2269.3,1606.8,1401.2,3445.5,1401.2,1919.3,3438.2,3446.7,702.8,1289.1,956.0,594.7,1529.2,2202.4,3443.1,3446.7,752.1,1028.0,1491.2,1809.0,1672.9,1093.8,-14.0,-8.0,-24.0,9114.0,11656.0,4916.0,5033.0,38.0,-97.0,68.0,-3.0,-9.0,-6.0,9641.0,8655.0,7259.0,6921.0,62.0,19.0,-5.0,1.0
2022-05-03 16:55:52.297809-07:00,2652.6,742.2,1764.6,1954.8,1201.8,1360.3,1625.6,1893.8,3443.1,3447.9,2269.3,1606.8,1395.7,3445.5,1380.3,1896.7,3444.3,3446.7,705.2,1281.9,956.0,594.7,1529.2,2184.0,3451.6,3454.0,750.5,1017.6,1491.2,1809.0,1672.9,1089.5,-1.0,19.0,-4.0,9105.0,11688.0,4880.0,5011.0,-38.0,-32.0,23.0,-5.0,3.0,-7.0,9629.0,8670.0,7270.0,6906.0,16.0,-31.0,0.0,1.0
2022-05-03 16:55:52.299037-07:00,2652.6,728.2,1737.8,1939.0,1201.8,1360.3,1625.6,1888.9,3443.1,3444.3,2266.2,1591.7,1395.7,3445.5,1380.3,1885.0,3444.3,3446.7,705.2,1281.9,956.8,598.7,1524.5,2184.0,3449.1,3454.0,750.5,1017.6,1498.6,1802.3,1653.9,1089.5,0.0,2.0,18.0,9132.0,11677.0,4859.0,5008.0,-59.0,-69.0,9.0,5.0,-9.0,12.0,9645.0,8663.0,7254.0,6909.0,-19.0,-26.0,-4.0,1.0
2022-05-03 16:55:52.299851-07:00,2619.9,728.2,1737.8,1939.0,1193.8,1356.7,1623.7,1888.9,3441.9,3444.3,2266.2,1591.7,1389.4,3449.1,1369.4,1885.0,3444.3,3449.1,703.6,1283.7,956.8,598.7,1524.5,2180.9,3449.1,3454.0,752.1,1012.5,1498.6,1802.3,1653.9,1083.4,1.0,12.0,15.0,9130.0,11691.0,4854.0,4984.0,60.0,-44.0,-30.0,0.0,0.0,7.0,9641.0,8670.0,7263.0,6896.0,31.0,1.0,-21.0,1.0
2022-05-03 16:55:52.388431-07:00,2619.9,736.5,1726.3,1933.1,1193.8,1356.7,1623.7,1883.0,3441.9,3446.7,2218.8,1587.1,1389.4,3449.1,1369.4,1875.2,3438.2,3449.1,703.6,1283.7,958.5,599.6,1509.7,2180.9,3438.2,3454.0,752.1,1012.5,1486.6,1794.5,1642.6,1083.4,-11.0,-27.0,-1.0,9146.0,11677.0,4862.0,4980.0,-63.0,-3.0,-12.0,3.0,-14.0,13.0,9648.0,8662.0,7261.0,6898.0,-13.0,4.0,-9.0,1.0
2022-05-03 16:55:52.417810-07:00,2623.2,736.5,1726.3,1933.1,1189.4,1349.4,1607.7,1883.0,3450.4,3446.7,2218.8,1587.1,1383.0,3450.4,1361.2,1875.2,3438.2,3444.3,701.9,1280.1,958.5,599.6,1509.7,2179.9,3438.2,3444.3,747.2,1020.2,1486.6,1794.5,1642.6,1092.9,-5.0,7.0,-16.0,9142.0,11690.0,4833.0,4983.0,34.0,-52.0,98.0,-4.0,3.0,-1.0,9640.0,8672.0,7266.0,6893.0,46.0,-1.0,14.0,1.0
2022-05-03 16:55:52.447835-07:00,2623.2,729.9,1711.0,1927.2,1189.4,1349.4,1610.5,1869.3,3450.4,3454.0,2200.4,1583.3,1383.0,3450.4,1356.7,1871.3,3449.1,3445.5,701.9,1280.1,959.4,598.7,1506.9,2179.9,3443.1,3443.1,747.2,1020.2,1470.0,1782.9,1638.8,1092.9,9.0,10.0,0.0,9152.0,11708.0,4775.0,4980.0,-72.0,-149.0,90.0,-2.0,-5.0,-8.0,9643.0,8674.0,7257.0,6896.0,-34.0,-22.0,13.0,1.0
2022-05-03 16:55:52.537777-07:00,2603.7,727.4,1711.0,1927.2,1189.4,1354.0,1610.5,1869.3,3444.3,3441.9,2200.4,1583.3,1386.6,3446.7,1356.7,1871.3,3449.1,3445.5,698.7,1281.0,959.4,598.7,1500.4,2162.6,3443.1,3443.1,746.3,1018.5,1470.0,1782.9,1628.4,1083.4,-5.0,4.0,13.0,9175.0,11709.0,4739.0,4969.0,-41.0,-20.0,-22.0,0.0,-10.0,17.0,9655.0,8671.0,7244.0,6897.0,-31.0,-21.0,-6.0,1.0
2022-05-03 16:55:52.597978-07:00,2603.7,727.4,1705.3,1928.2,1189.4,1354.0,1604.9,1853.7,3444.3,3441.9,2213.7,1579.6,1386.6,3446.7,1348.5,1859.6,3445.5,3443.1,698.7,1281.0,960.2,602.0,1500.4,2162.6,3451.6,3447.9,746.3,1018.5,1482.9,1782.9,1628.4,1083.4,-6.0,2.0,16.0,9182.0,11698.0,4760.0,4961.0,35.0,42.0,-55.0,0.0,-3.0,16.0,9660.0,8669.0,7246.0,6890.0,27.0,2.0,-16.0,1.0
2022-05-03 16:55:52.600162-07:00,2584.2,718.4,1705.3,1928.2,1182.3,1350.3,1604.9,1853.7,3454.0,3450.4,2213.7,1579.6,1380.3,3438.2,1348.5,1859.6,3445.5,3443.1,706.0,1278.3,960.2,602.0,1504.1,2156.5,3451.6,3447.9,746.3,1010.8,1482.9,1782.9,1619.0,1082.5,-3.0,-10.0,3.0,9181.0,11686.0,4785.0,4968.0,-13.0,61.0,-19.0,0.0,-10.0,8.0,9659.0,8665.0,7250.0,6891.0,-2.0,18.0,-4.0,1.0
2022-05-03 16:55:52.657959-07:00,2584.2,718.4,1705.3,1909.5,1182.3,1350.3,1603.0,1851.8,3454.0,3450.4,2188.1,1578.6,1380.3,3438.2,1357.6,1861.5,3433.4,3435.8,706.0,1278.3,958.5,601.2,1504.1,2156.5,3445.5,3449.1,746.3,1010.8,1480.1,1780.1,1619.0,1082.5,-7.0,-4.0,-10.0,9169.0,11681.0,4799.0,4988.0,29.0,53.0,20.0,-3.0,-3.0,0.0,9653.0,8667.0,7256.0,6891.0,22.0,8.0,6.0,1.0
2022-05-03 16:55:52.777759-07:00,2583.1,724.1,1705.3,1909.5,1182.3,1344.0,1603.0,1851.8,3450.4,3454.0,2188.1,1578.6,1378.5,3443.1,1357.6,1861.5,3433.4,3435.8,706.0,1281.0,958.5,601.2,1495.8,2158.5,3445.5,3449.1,748.0,1006.5,1480.1,1780.1,1616.2,1080.8,-7.0,-12.0,-17.0,9159.0,11683.0,4797.0,5005.0,-27.0,12.0,53.0,1.0,-8.0,1.0,9653.0,8669.0,7253.0,6892.0,-14.0,-12.0,16.0,1.0
2022-05-03 16:55:52.780055-07:00,2583.1,724.1,1708.1,1914.4,1182.3,1345.8,1604.9,1866.4,3450.4,3454.0,2173.8,1579.6,1378.5,3449.1,1344.0,1850.8,3437.0,3438.2,698.7,1281.0,958.5,602.0,1495.8,2158.5,3435.8,3438.2,741.4,1006.5,1476.4,1779.1,1616.2,1080.8,0.0,10.0,-5.0,9159.0,11698.0,4761.0,5004.0,5.0,-94.0,68.0,0.0,-1.0,-2.0,9653.0,8674.0,7245.0,6894.0,9.0,-19.0,9.0,1.0
2022-05-03 16:55:52.808081-07:00,2577.7,722.5,1706.2,1914.4,1178.8,1345.8,1604.9,1866.4,3447.9,3440.7,2169.7,1579.6,1370.3,3449.1,1344.0,1850.8,3437.0,3438.2,698.7,1279.2,958.5,602.0,1494.0,2156.5,3435.8,3438.2,741.4,999.6,1476.4,1774.3,1613.4,1088.6,-2.0,8.0,9.0,9170.0,11702.0,4739.0,4996.0,-54.0,-1.0,-16.0,-1.0,-3.0,10.0,9660.0,8674.0,7237.0,6892.0,-38.0,-22.0,-3.0,1.0
2022-05-03 16:55:52.868433-07:00,2577.7,722.5,1706.2,1908.5,1178.8,1344.0,1594.6,1848.9,3447.9,3440.7,2169.7,1577.7,1370.3,3454.0,1333.2,1863.5,3449.1,3438.2,703.6,1279.2,960.2,602.0,1494.0,2156.5,3447.9,3449.1,742.2,999.6,1473.6,1774.3,1613.4,1088.6,-5.0,-8.0,8.0,9183.0,11686.0,4748.0,5001.0,7.0,19.0,-13.0,2.0,-6.0,13.0,9665.0,8669.0,7233.0,6895.0,16.0,2.0,-2.0,1.0
2022-05-03 16:55:52.897910-07:00,2562.6,723.3,1698.6,1908.5,1167.4,1344.0,1594.6,1848.9,3454.0,3446.7,2171.8,1577.7,1382.1,3454.0,1333.2,1863.5,3449.1,3438.2,703.6,1283.7,960.2,604.4,1487.5,2148.3,3447.9,3449.1,742.2,1000.5,1473.6,1775.2,1611.5,1094.7,-4.0,6.0,2.0,9176.0,11686.0,4754.0,5006.0,10.0,18.0,8.0,-1.0,-5.0,6.0,9658.0,8670.0,7240.0,6897.0,14.0,22.0,1.0,1.0
2022-05-03 16:55:52.988288-07:00,2562.6,723.3,1698.6,1900.7,1167.4,1338.6,1588.9,1845.0,3454.0,3446.7,2171.8,1574.9,1382.1,3444.3,1340.4,1858.6,3445.5,3443.1,702.8,1283.7,959.4,604.4,1487.5,2148.3,3454.0,3447.9,744.7,1000.5,1476.4,1775.2,1611.5,1094.7,-9.0,-4.0,-10.0,9173.0,11687.0,4758.0,5005.0,-1.0,2.0,-10.0,-5.0,-4.0,4.0,9656.0,8669.0,7243.0,6898.0,4.0,6.0,-5.0,1.0
2022-05-03 16:55:53.017791-07:00,2566.9,720.8,1685.3,1894.8,1175.3,1338.6,1588.9,1845.0,3449.1,3438.2,2155.5,1570.2,1383.0,3444.3,1340.4,1858.6,3445.5,3443.1,702.8,1280.1,958.5,597.1,1487.5,2150.4,3454.0,3447.9,744.7,1001.3,1468.1,1771.4,1620.9,1091.2,-4.0,-6.0,-9.0,9174.0,11690.0,4751.0,5004.0,-18.0,-18.0,31.0,-5.0,-7.0,1.0,9657.0,8670.0,7241.0,6898.0,-12.0,-20.0,10.0,1.0
2022-05-03 16:55:53.047878-07:00,2566.9,720.8,1685.3,1894.8,1170.9,1343.1,1587.1,1845.0,3449.1,3438.2,2155.5,1570.2,1374.8,3449.1,1339.5,1850.8,3444.3,3444.3,702.8,1281.9,958.5,597.1,1487.5,2150.4,3445.5,3450.4,742.2,997.0,1468.1,1771.4,1620.9,1091.2,-5.0,-2.0,-1.0,9178.0,11697.0,4725.0,5005.0,-13.0,-59.0,54.0,6.0,-5.0,7.0,9663.0,8672.0,7232.0,6896.0,-7.0,-21.0,7.0,1.0
2022-05-03 16:55:53.108883-07:00,2563.7,721.6,1679.5,1895.8,1170.9,1343.1,1587.1,1845.0,3449.1,3449.1,2152.4,1575.8,1374.8,3449.1,1339.5,1850.8,3444.3,3444.3,702.8,1281.9,957.7,596.3,1489.3,2147.3,3445.5,3450.4,742.2,997.0,1470.0,1759.8,1612.4,1091.2,7.0,11.0,5.0,9182.0,11712.0,4692.0,4994.0,3.0,-64.0,33.0,0.0,-5.0,0.0,9666.0,8675.0,7228.0,6893.0,1.0,-14.0,-1.0,1.0
2022-05-03 16:55:53.167831-07:00,2563.7,721.6,1679.5,1895.8,1167.4,1344.0,1587.1,1845.0,3449.1,3449.1,2152.4,1575.8,1377.5,3443.1,1335.9,1851.8,3440.7,3443.1,701.9,1292.7,957.7,596.3,1489.3,2147.3,3456.4,3452.8,743.0,996.2,1470.0,1759.8,1612.4,1091.2,-7.0,4.0,12.0,9188.0,11706.0,4696.0,4993.0,-19.0,22.0,-39.0,1.0,-6.0,21.0,9669.0,8672.0,7225.0,6894.0,-14.0,4.0,-11.0,1.0
2022-05-03 16:55:53.228310-07:00,2558.3,715.1,1688.1,1890.9,1167.4,1344.0,1587.1,1845.0,3445.5,3446.7,2152.4,1565.5,1377.5,3443.1,1335.9,1851.8,3440.7,3443.1,701.9,1292.7,960.2,602.8,1477.3,2143.3,3456.4,3452.8,743.0,996.2,1466.3,1772.3,1601.1,1089.5,-1.0,-8.0,4.0,9190.0,11701.0,4707.0,4992.0,18.0,21.0,-5.0,-1.0,-5.0,2.0,9668.0,8672.0,7229.0,6893.0,25.0,12.0,-5.0,1.0
2022-05-03 16:55:53.257933-07:00,2558.3,715.1,1688.1,1890.9,1166.5,1343.1,1588.0,1843.0,3445.5,3446.7,2152.4,1565.5,1371.2,3450.4,1329.6,1844.0,3439.5,3438.2,705.2,1281.9,960.2,602.8,1477.3,2143.3,3445.5,3447.9,746.3,995.3,1466.3,1772.3,1601.1,1089.5,1.0,6.0,-8.0,9182.0,11700.0,4717.0,4999.0,4.0,27.0,-13.0,-1.0,-1.0,1.0,9664.0,8674.0,7233.0,6891.0,0.0,8.0,-8.0,1.0
2022-05-03 16:55:53.347725-07:00,2555.1,715.1,1682.4,1890.9,1166.5,1343.1,1588.0,1837.2,3449.1,3444.3,2148.3,1567.4,1371.2,3450.4,1329.6,1841.1,3449.1,3438.2,705.2,1281.9,960.2,597.9,1481.9,2131.1,3454.0,3447.9,746.3,995.3,1461.7,1768.5,1611.5,1081.6,-9.0,-10.0,-7.0,9187.0,11693.0,4723.0,4999.0,-18.0,-13.0,-5.0,-3.0,-12.0,4.0,9667.0,8671.0,7231.0,6893.0,-11.0,-2.0,-1.0,1.0
2022-05-03 16:55:53.407953-07:00,2545.4,715.1,1682.4,1890.9,1166.5,1336.8,1591.7,1837.2,3449.1,3444.3,2148.3,1567.4,1369.4,3440.7,1331.4,1841.1,3449.1,3438.2,701.9,1277.4,960.2,597.9,1481.9,2125.0,3454.0,3458.9,741.4,991.9,1461.7,1768.5,1611.5,1079.9,-4.0,3.0,-2.0,9190.0,11698.0,4710.0,4995.0,-1.0,-35.0,27.0,0.0,-3.0,6.0,9668.0,8672.0,7230.0,6892.0,-6.0,-13.0,4.0,1.0
2022-05-03 16:55:53.527738-07:00,2545.4,714.2,1673.8,1887.9,1166.5,1336.8,1591.7,1836.2,3449.1,3449.1,2133.1,1567.4,1369.4,3440.7,1331.4,1848.9,3443.1,3438.2,701.9,1277.4,955.1,600.4,1478.3,2125.0,3445.5,3458.9,741.4,991.9,1464.4,1761.8,1598.3,1079.9,-3.0,0.0,3.0,9197.0,11702.0,4692.0,4991.0,-21.0,-38.0,21.0,2.0,-6.0,6.0,9671.0,8670.0,7227.0,6893.0,-10.0,-5.0,8.0,1.0
2022-05-03 16:55:53.707988-07:00,2545.4,714.2,1673.8,1887.9,1163.0,1335.9,1583.3,1836.2,3449.1,3449.1,2133.1,1567.4,1361.2,3445.5,1331.4,1848.9,3443.1,3443.1,701.1,1281.9,955.1,600.4,1478.3,2132.1,3445.5,3443.1,746.3,994.5,1464.4,1761.8,1598.3,1087.7,0.0,0.0,4.0,9198.0,11708.0,4676.0,4989.0,0.0,-14.0,27.0,-2.0,-5.0,5.0,9671.0,8670.0,7226.0,6893.0,-4.0,-7.0,7.0,1.0
2022-05-03 16:55:53.827825-07:00,2545.4,714.2,1670.1,1885.0,1163.0,1335.9,1583.3,1835.2,3449.1,3445.5,2141.2,1565.5,1361.2,3445.5,1331.4,1836.2,3447.9,3443.1,701.1,1281.9,956.8,597.9,1470.0,2132.1,3454.0,3443.1,746.3,994.5,1464.4,1758.9,1597.4,1087.7,-8.0,1.0,2.0,9199.0,11707.0,4670.0,4995.0,-18.0,3.0,10.0,2.0,-7.0,4.0,9674.0,8667.0,7223.0,6897.0,-11.0,-1.0,3.0,1.0
2022-05-03 16:55:53.828908-07:00,2543.3,711.8,1670.1,1885.0,1163.8,1329.6,1588.0,1835.2,3440.7,3444.3,2141.2,1565.5,1369.4,3446.7,1323.2,1836.2,3447.9,3449.1,697.9,1276.5,956.8,597.9,1473.6,2124.0,3454.0,3450.4,740.6,996.2,1464.4,1758.9,1591.7,1086.0,-8.0,0.0,3.0,9199.0,11707.0,4673.0,4993.0,10.0,10.0,-16.0,0.0,-7.0,9.0,9673.0,8668.0,7224.0,6896.0,11.0,4.0,-2.0,1.0
2022-05-03 16:55:53.947834-07:00,2543.3,711.8,1660.6,1884.0,1163.8,1329.6,1582.4,1831.3,3440.7,3444.3,2135.1,1560.9,1369.4,3446.7,1324.1,1836.2,3446.7,3435.8,697.9,1276.5,960.2,594.7,1473.6,2124.0,3449.1,3449.1,740.6,996.2,1458.0,1763.7,1591.7,1086.0,-10.0,-4.0,1.0,9199.0,11705.0,4676.0,4994.0,-2.0,19.0,-3.0,-2.0,-9.0,9.0,9673.0,8668.0,7224.0,6896.0,2.0,5.0,1.0,1.0
2022-05-03 16:55:53.948955-07:00,2545.4,713.4,1660.6,1884.0,1159.4,1337.7,1582.4,1831.3,3444.3,3443.1,2135.1,1560.9,1369.4,3449.1,1324.1,1836.2,3446.7,3435.8,699.5,1281.9,960.2,594.7,1474.6,2118.9,3449.1,3449.1,743.0,989.3,1458.0,1763.7,1587.1,1093.8,-4.0,0.0,-6.0,9198.0,11706.0,4674.0,4996.0,-1.0,-6.0,11.0,2.0,-1.0,1.0,9671.0,8669.0,7225.0,6895.0,4.0,3.0,3.0,1.0
2022-05-03 16:55:53.950055-07:00,2545.4,713.4,1662.5,1879.1,1159.4,1337.7,1586.1,1839.1,3444.3,3443.1,2136.1,1566.5,1369.4,3449.1,1319.6,1817.8,3434.6,3444.3,699.5,1281.9,961.1,597.1,1474.6,2118.9,3439.5,3449.1,743.0,989.3,1464.4,1759.8,1587.1,1093.8,-2.0,2.0,1.0,9200.0,11705.0,4671.0,4997.0,-2.0,-15.0,-4.0,0.0,-7.0,7.0,9671.0,8669.0,7225.0,6895.0,1.0,0.0,2.0,1.0
2022-05-03 16:55:53.951300-07:00,2532.5,713.4,1662.5,1879.1,1163.0,1330.5,1586.1,1839.1,3441.9,3449.1,2136.1,1566.5,1368.5,3438.2,1319.6,1817.8,3434.6,3444.3,701.9,1281.9,961.1,597.1,1466.3,2118.9,3439.5,3449.1,741.4,994.5,1464.4,1759.8,1588.0,1081.6,-7.0,6.0,-3.0,9200.0,11712.0,4660.0,4992.0,5.0,-11.0,16.0,-2.0,-2.0,7.0,9671.0,8670.0,7225.0,6894.0,11.0,0.0,1.0,1.0
2022-05-03 16:55:53.952930-07:00,2532.5,713.4,1662.5,1879.1,1163.0,1330.5,1586.1,1839.1,3441.9,3449.1,2136.1,1566.5,1368.5,3438.2,1319.6,1817.8,3434.6,3444.3,701.9,1281.9,961.1,597.1,1466.3,2118.9,3439.5,3449.1,741.4,994.5,1464.4,1759.8,1588.0,1081.6,-7.0,6.0,-3.0,9200.0,11712.0,4660.0,4992.0,5.0,-11.0,16.0,-2.0,-2.0,7.0,9671.0,8670.0,7225.0,6894.0,11.0,0.0,1.0,1.0
2022-05-03 16:55:54.008551-07:00,2530.4,712.6,1657.7,1878.1,1155.0,1335.0,1589.9,1821.6,3451.6,3445.5,2132.1,1561.8,1362.1,3449.1,1318.7,1828.4,3438.2,3435.8,699.5,1283.7,957.7,594.7,1467.2,2119.9,3440.7,3451.6,739.7,987.6,1458.0,1756.0,1583.3,1087.7,-4.0,5.0,1.0,9203.0,11710.0,4656.0,4994.0,1.0,3.0,-1.0,2.0,-3.0,7.0,9673.0,8669.0,7224.0,6895.0,7.0,-3.0,-1.0,1.0
2022-05-03 16:55:54.037945-07:00,2527.2,714.2,1657.7,1871.3,1162.1,1331.4,1589.9,1827.5,3450.4,3443.1,2125.0,1557.1,1370.3,3439.5,1317.8,1829.4,3449.1,3439.5,696.2,1280.1,959.4,599.6,1466.3,2123.0,3446.7,3449.1,742.2,988.5,1452.5,1751.2,1585.2,1087.7,-8.0,4.0,8.0,9209.0,11703.0,4661.0,4995.0,-27.0,9.0,-22.0,-2.0,0.0,9.0,9673.0,8669.0,7226.0,6892.0,-3.0,-2.0,-11.0,1.0
2022-05-03 16:55:54.127753-07:00,2527.2,714.2,1665.3,1871.3,1161.2,1331.4,1589.9,1827.5,3439.5,3454.0,2130.1,1557.1,1364.8,3439.5,1317.8,1829.4,3449.1,3439.5,696.2,1276.5,959.4,597.9,1464.4,2117.9,3446.7,3449.1,742.2,990.2,1452.5,1753.1,1592.7,1076.4,-10.0,-5.0,10.0,9223.0,11683.0,4671.0,5006.0,-51.0,64.0,-14.0,2.0,-12.0,12.0,9679.0,8662.0,7223.0,6896.0,-13.0,4.0,-9.0,1.0
2022-05-03 16:55:54.130041-07:00,2527.2,714.2,1665.3,1879.1,1162.1,1340.4,1579.6,1830.4,3439.5,3454.0,2130.1,1561.8,1371.2,3447.9,1387.5,1841.1,3439.5,3449.1,700.3,1276.5,961.1,597.9,1464.4,2117.9,3458.9,3438.2,741.4,1023.7,1458.0,1753.1,1592.7,1076.4,-10.0,1.0,-9.0,9234.0,11669.0,4671.0,5017.0,-60.0,-25.0,-4.0,-3.0,-3.0,-2.0,9679.0,8662.0,7228.0,6891.0,9.0,-1.0,-12.0,1.0
2022-05-03 16:55:54.157958-07:00,2527.2,710.1,1769.5,1893.8,1162.1,1340.4,1579.6,1830.4,3443.1,3449.1,2208.6,1571.1,1371.2,3447.9,1387.5,1841.1,3439.5,3449.1,700.3,1276.5,960.2,596.3,1481.0,2117.9,3458.9,3438.2,741.4,1023.7,1459.8,1787.8,1676.7,1085.1,-3.0,0.0,2.0,9266.0,11656.0,4645.0,5014.0,-109.0,-84.0,37.0,-5.0,-6.0,2.0,9687.0,8658.0,7221.0,6892.0,-32.0,-19.0,-5.0,1.0
2022-05-03 16:55:54.308978-07:00,2527.2,710.1,1769.5,1893.8,1170.0,1335.9,1582.4,1824.6,3443.1,3449.1,2208.6,1571.1,1375.7,3444.3,1506.9,1859.6,3449.1,3441.9,701.9,1281.0,960.2,596.3,1481.0,2117.9,3447.9,3450.4,748.0,1010.8,1459.8,1787.8,1676.7,1085.1,11.0,3.0,3.0,9305.0,11638.0,4605.0,5020.0,-124.0,28.0,3.0,-7.0,-3.0,7.0,9699.0,8652.0,7209.0,6894.0,-59.0,-33.0,-2.0,1.0
2022-05-03 16:55:54.309849-07:00,2560.5,706.9,1814.9,1898.7,1170.0,1335.9,1582.4,1824.6,3446.7,3435.8,2279.6,1576.8,1375.7,3444.3,1506.9,1859.6,3449.1,3441.9,701.9,1281.0,959.4,594.7,1482.9,2110.8,3447.9,3450.4,748.0,1010.8,1447.0,1794.5,1692.9,1083.4,-8.0,-10.0,19.0,9337.0,11603.0,4608.0,5039.0,-77.0,58.0,-34.0,0.0,-8.0,19.0,9717.0,8639.0,7193.0,6903.0,-47.0,-7.0,-9.0,1.0
2022-05-03 16:55:54.398603-07:00,2560.5,706.9,1814.9,1898.7,1171.8,1332.3,1568.3,1805.2,3446.7,3435.8,2279.6,1576.8,1380.3,3438.2,1506.0,1843.0,3440.7,3441.9,697.0,1278.3,959.4,594.7,1482.9,2110.8,3451.6,3447.9,745.5,1003.0,1447.0,1794.5,1692.9,1083.4,-9.0,-2.0,10.0,9348.0,11584.0,4610.0,5060.0,-56.0,11.0,72.0,2.0,-6.0,6.0,9713.0,8637.0,7198.0,6905.0,15.0,27.0,8.0,1.0
2022-05-03 16:55:54.399479-07:00,2579.9,710.1,1904.6,1916.4,1171.8,1332.3,1568.3,1805.2,3445.5,3452.8,2379.7,1605.8,1380.3,3438.2,1506.0,1843.0,3440.7,3441.9,697.0,1278.3,962.0,600.4,1494.9,2114.9,3451.6,3447.9,745.5,1003.0,1447.9,1813.9,1710.0,1083.4,-20.0,11.0,0.0,9365.0,11568.0,4580.0,5094.0,-116.0,-42.0,61.0,-6.0,-5.0,4.0,9705.0,8636.0,7205.0,6911.0,21.0,24.0,-4.0,1.0
2022-05-03 16:55:54.547780-07:00,2598.3,710.1,1904.6,1916.4,1177.9,1339.5,1575.8,1820.7,3437.0,3452.8,2379.7,1605.8,1401.2,3443.1,1614.3,1879.1,3454.0,3443.1,701.1,1281.0,962.0,600.4,1494.9,2136.1,3441.9,3455.2,752.9,1001.3,1447.9,1813.9,1710.0,1087.7,13.0,-12.0,-26.0,9412.0,11561.0,4515.0,5081.0,-171.0,-188.0,47.0,0.0,-2.0,-5.0,9699.0,8634.0,7218.0,6909.0,-13.0,7.0,-11.0,1.0
2022-05-03 16:55:54.577887-07:00,2598.3,706.9,2045.4,1971.7,1177.9,1339.5,1575.8,1819.7,3437.0,3440.7,2452.6,1620.9,1401.2,3443.1,1614.3,1942.0,3435.8,3443.1,701.1,1281.0,956.8,597.9,1494.9,2136.1,3441.9,3455.2,752.9,1001.3,1455.2,1901.6,1812.9,1087.7,-18.0,-11.0,-17.0,9488.0,11540.0,4415.0,5076.0,-238.0,-227.0,131.0,2.0,-17.0,16.0,9709.0,8628.0,7204.0,6916.0,-29.0,-17.0,18.0,1.0
2022-05-03 16:55:54.580308-07:00,2643.9,706.9,2045.4,1971.7,1197.4,1347.6,1570.2,1819.7,3450.4,3440.7,2452.6,1620.9,1397.6,3451.6,1693.8,1942.0,3435.8,3441.9,698.7,1279.2,956.8,597.9,1494.9,2140.2,3441.9,3443.1,749.6,994.5,1455.2,1901.6,1812.9,1084.2,37.0,2.0,-16.0,9548.0,11570.0,4275.0,5013.0,-78.0,-344.0,90.0,-11.0,0.0,-21.0,9713.0,8636.0,7201.0,6903.0,14.0,-57.0,-13.0,1.0
2022-05-03 16:55:54.581151-07:00,2643.9,715.9,2110.8,2007.4,1197.4,1347.6,1570.2,1836.2,3450.4,3446.7,2453.6,1620.9,1397.6,3451.6,1693.8,1945.0,3445.5,3441.9,698.7,1279.2,956.0,602.8,1495.8,2140.2,3443.1,3443.1,749.6,994.5,1440.5,1922.3,1857.6,1084.2,-34.0,-2.0,35.0,9596.0,11565.0,4212.0,4985.0,-132.0,-113.0,32.0,-4.0,-11.0,31.0,9736.0,8635.0,7176.0,6898.0,-68.0,-51.0,1.0,1.0
2022-05-03 16:55:54.607967-07:00,2641.7,715.9,2110.8,2007.4,1211.5,1354.9,1588.9,1836.2,3439.5,3446.7,2453.6,1620.9,1406.7,3450.4,1709.1,1945.0,3445.5,3445.5,702.8,1285.5,956.0,602.8,1495.8,2129.0,3443.1,3451.6,755.4,978.2,1440.5,1922.3,1857.6,1086.8,14.0,-3.0,25.0,9642.0,11571.0,4123.0,4958.0,-108.0,-197.0,96.0,3.0,-3.0,14.0,9743.0,8636.0,7167.0,6895.0,10.0,-14.0,1.0,1.0
2022-05-03 16:55:54.697895-07:00,2641.7,710.1,2136.1,2043.4,1211.5,1354.9,1607.7,1847.9,3439.5,3447.9,2481.3,1636.0,1406.7,3450.4,1741.6,1962.8,3443.1,3443.1,702.8,1285.5,959.4,600.4,1489.3,2129.0,3454.0,3449.1,755.4,978.2,1453.4,1958.8,1893.8,1086.8,-18.0,0.0,7.0,9687.0,11558.0,4050.0,4961.0,-158.0,-110.0,93.0,0.0,-9.0,17.0,9745.0,8633.0,7166.0,6899.0,2.0,14.0,8.0,1.0
2022-05-03 16:55:54.699005-07:00,2691.9,712.6,2136.1,2043.4,1203.5,1360.3,1607.7,1847.9,3428.6,3443.1,2481.3,1636.0,1404.9,3441.9,1741.6,1962.8,3443.1,3443.1,702.8,1286.4,959.4,600.4,1488.4,2143.3,3454.0,3449.1,754.6,974.8,1453.4,1958.8,1929.2,1082.5,3.0,0.0,-12.0,9731.0,11562.0,3949.0,4947.0,-117.0,-192.0,124.0,-9.0,5.0,-14.0,9739.0,8638.0,7172.0,6894.0,36.0,-13.0,-3.0,1.0
2022-05-03 16:55:54.758669-07:00,2691.9,712.6,2150.4,2078.5,1203.5,1360.3,1610.5,1870.3,3428.6,3443.1,2505.8,1653.0,1404.9,3441.9,1733.9,1999.5,3439.5,3445.5,702.8,1286.4,964.5,601.2,1488.4,2143.3,3454.0,3454.0,754.6,974.8,1445.1,2006.4,1929.2,1082.5,-13.0,9.0,2.0,9771.0,11565.0,3855.0,4936.0,-149.0,-179.0,109.0,-3.0,-7.0,10.0,9739.0,8645.0,7171.0,6887.0,-8.0,-19.0,-6.0,1.0
2022-05-03 16:55:54.877998-07:00,2799.0,711.0,2150.4,2078.5,1217.7,1358.5,1610.5,1870.3,3440.7,3449.1,2505.8,1653.0,1414.9,3437.0,1733.9,1999.5,3439.5,3445.5,699.5,1284.6,964.5,601.2,1492.1,2161.6,3454.0,3454.0,751.3,970.5,1445.1,2006.4,1959.8,1085.1,4.0,-6.0,-6.0,9822.0,11572.0,3736.0,4908.0,-100.0,-261.0,128.0,-3.0,-7.0,0.0,9739.0,8650.0,7174.0,6878.0,51.0,-21.0,-13.0,1.0
2022-05-03 16:55:54.880374-07:00,2799.0,711.0,2138.2,2104.8,1217.7,1358.5,1614.3,1865.4,3440.7,3449.1,2518.6,1687.2,1414.9,3437.0,1726.3,2030.4,3441.9,3439.5,699.5,1284.6,961.1,600.4,1492.1,2161.6,3449.1,3454.0,751.3,970.5,1457.1,2051.4,1959.8,1085.1,-15.0,8.0,-2.0,9863.0,11580.0,3631.0,4886.0,-118.0,-196.0,106.0,-1.0,-10.0,13.0,9736.0,8660.0,7176.0,6866.0,49.0,-9.0,-17.0,1.0
2022-05-03 16:55:54.908063-07:00,2853.7,714.2,2138.2,2104.8,1221.3,1362.1,1614.3,1865.4,3440.7,3449.1,2518.6,1687.2,1408.5,3446.7,1726.3,2030.4,3441.9,3439.5,701.9,1287.3,961.1,600.4,1492.1,2192.2,3449.1,3454.0,762.9,959.4,1457.1,2051.4,1962.8,1089.5,17.0,6.0,13.0,9913.0,11592.0,3537.0,4825.0,-120.0,-247.0,7.0,-5.0,2.0,-9.0,9738.0,8661.0,7191.0,6848.0,7.0,-13.0,-48.0,1.0
2022-05-03 16:55:55.087788-07:00,2853.7,714.2,2117.9,2128.0,1221.3,1366.6,1634.1,1894.8,3440.7,3449.1,2527.2,1718.6,1408.5,3449.1,1706.2,2040.4,3443.1,3446.7,706.0,1287.3,958.5,599.6,1492.1,2192.2,3443.1,3451.6,761.2,959.4,1450.6,2083.6,1962.8,1089.5,-17.0,-2.0,9.0,9958.0,11582.0,3477.0,4798.0,-86.0,-104.0,55.0,-1.0,-1.0,8.0,9742.0,8657.0,7196.0,6842.0,18.0,2.0,-8.0,1.0
2022-05-03 16:55:55.118401-07:00,2868.3,718.4,2071.5,2128.0,1252.4,1366.6,1634.1,1894.8,3446.7,3443.1,2521.8,1718.6,1400.3,3449.1,1706.2,2040.4,3443.1,3446.7,706.0,1287.3,958.5,597.9,1488.4,2204.5,3443.1,3451.6,761.2,951.7,1450.6,2073.5,1940.0,1092.9,14.0,7.0,11.0,9977.0,11597.0,3412.0,4772.0,-6.0,-156.0,36.0,1.0,-13.0,2.0,9735.0,8664.0,7208.0,6830.0,72.0,12.0,-42.0,1.0
2022-05-03 16:55:55.178333-07:00,2868.3,718.4,2071.5,2115.9,1252.4,1363.9,1682.4,1917.4,3446.7,3443.1,2521.8,1740.6,1400.3,3447.9,1702.4,2046.4,3444.3,3438.2,702.8,1287.3,957.7,597.9,1488.4,2204.5,3441.9,3440.7,769.5,951.7,1467.2,2073.5,1940.0,1092.9,-3.0,4.0,2.0,9989.0,11602.0,3382.0,4756.0,-22.0,-59.0,15.0,1.0,-4.0,12.0,9728.0,8670.0,7226.0,6813.0,37.0,13.0,-32.0,1.0
2022-05-03 16:55:55.180371-07:00,2871.7,750.5,2039.4,2115.9,1262.2,1363.9,1682.4,1917.4,3447.9,3443.1,2515.4,1740.6,1405.8,3447.9,1702.4,2046.4,3444.3,3438.2,702.8,1289.1,957.7,592.3,1493.0,2235.3,3441.9,3440.7,769.5,953.4,1467.2,2053.4,1922.3,1095.6,0.0,-4.0,7.0,9992.0,11614.0,3365.0,4732.0,36.0,-61.0,-14.0,-6.0,-8.0,-5.0,9722.0,8675.0,7247.0,6793.0,68.0,4.0,-36.0,1.0
2022-05-03 16:55:55.181314-07:00,2871.7,750.5,2039.4,2101.7,1262.2,1369.4,1683.3,1930.2,3447.9,3443.1,2515.4,1761.8,1405.8,3449.1,1670.1,2063.5,3450.4,3441.9,701.1,1289.1,959.4,592.3,1493.0,2235.3,3451.6,3447.9,764.5,953.4,1484.7,2053.4,1922.3,1095.6,-19.0,-14.0,-10.0,9992.0,11618.0,3366.0,4720.0,-1.0,-24.0,-1.0,-4.0,-11.0,15.0,9716.0,8682.0,7261.0,6778.0,35.0,-9.0,-10.0,1.0
2022-05-03 16:55:55.207824-07:00,2812.4,738.9,2016.4,2094.7,1271.2,1369.4,1683.3,1930.2,3446.7,3449.1,2496.2,1760.8,1404.0,3449.1,1670.1,2063.5,3450.4,3441.9,701.1,1286.4,967.1,599.6,1488.4,2250.7,3451.6,3447.9,764.5,945.8,1478.3,2039.4,1901.6,1092.1,0.0,5.0,-10.0,9994.0,11635.0,3339.0,4693.0,12.0,-126.0,20.0,-5.0,0.0,-7.0,9713.0,8693.0,7263.0,6766.0,35.0,-39.0,-13.0,1.0
2022-05-03 16:55:55.267898-07:00,2812.4,738.9,2016.4,2094.7,1284.6,1367.6,1696.7,1927.2,3446.7,3449.1,2496.2,1760.8,1406.7,3441.9,1656.8,2040.4,3444.3,3441.9,704.4,1283.7,967.1,599.6,1488.4,2250.7,3446.7,3449.1,767.8,940.7,1478.3,2039.4,1901.6,1092.1,8.0,7.0,17.0,10010.0,11641.0,3305.0,4669.0,-24.0,-65.0,4.0,-1.0,-1.0,6.0,9718.0,8701.0,7259.0,6752.0,30.0,-20.0,-23.0,1.0
2022-05-03 16:55:55.298181-07:00,2776.8,743.0,1998.5,2080.6,1284.6,1367.6,1696.7,1927.2,3440.7,3444.3,2481.3,1759.8,1406.7,3441.9,1656.8,2040.4,3444.3,3441.9,704.4,1283.7,956.8,602.8,1494.0,2245.6,3446.7,3449.1,767.8,940.7,1472.7,2022.4,1890.9,1083.4,-2.0,-5.0,18.0,10013.0,11648.0,3293.0,4653.0,45.0,-40.0,-11.0,-1.0,-16.0,10.0,9715.0,8708.0,7271.0,6736.0,66.0,4.0,-27.0,1.0
2022-05-03 16:55:55.417817-07:00,2776.8,743.0,1998.5,2080.6,1296.3,1360.3,1692.9,1914.4,3440.7,3444.3,2481.3,1759.8,1404.9,3450.4,1643.5,2028.4,3437.0,3449.1,704.4,1284.6,956.8,602.8,1494.0,2245.6,3445.5,3454.0,762.9,937.3,1472.7,2022.4,1890.9,1083.4,-14.0,-7.0,9.0,10003.0,11654.0,3308.0,4650.0,23.0,30.0,-3.0,-5.0,0.0,17.0,9707.0,8717.0,7283.0,6722.0,9.0,7.0,10.0,1.0
2022-05-03 16:55:55.448565-07:00,2750.2,738.1,1974.6,2073.5,1296.3,1360.3,1692.9,1914.4,3449.1,3444.3,2460.0,1763.7,1404.9,3450.4,1643.5,2028.4,3437.0,3449.1,704.4,1284.6,958.5,596.3,1485.6,2241.4,3445.5,3454.0,762.9,937.3,1461.7,2039.4,1887.9,1094.7,6.0,0.0,9.0,10002.0,11650.0,3316.0,4657.0,4.0,37.0,-13.0,-4.0,-7.0,-1.0,9707.0,8716.0,7282.0,6723.0,10.0,8.0,7.0,1.0
2022-05-03 16:55:55.449712-07:00,2750.2,738.1,1974.6,2073.5,1294.5,1364.8,1684.3,1913.4,3449.1,3444.3,2460.0,1763.7,1409.4,3444.3,1634.1,2020.4,3444.3,3439.5,701.1,1287.3,958.5,596.3,1485.6,2241.4,3446.7,3446.7,762.9,943.2,1461.7,2039.4,1887.9,1094.7,-16.0,4.0,-14.0,9998.0,11644.0,3328.0,4670.0,-5.0,-5.0,31.0,-5.0,4.0,18.0,9706.0,8717.0,7280.0,6726.0,-3.0,-11.0,16.0,1.0
2022-05-03 16:55:55.688748-07:00,2728.2,726.6,1972.7,2066.5,1294.5,1364.8,1684.3,1902.6,3437.0,3449.1,2454.7,1767.5,1409.4,3444.3,1634.1,2014.4,3443.1,3439.5,701.1,1287.3,953.4,597.1,1483.8,2239.4,3450.4,3446.7,762.9,943.2,1457.1,2007.4,1885.0,1088.6,12.0,11.0,15.0,9995.0,11643.0,3338.0,4671.0,20.0,79.0,-60.0,-7.0,-4.0,1.0,9704.0,8720.0,7280.0,6725.0,8.0,6.0,-8.0,1.0
2022-05-03 16:55:55.748423-07:00,2693.0,726.6,1972.7,2066.5,1288.2,1369.4,1677.6,1902.6,3449.1,3449.1,2454.7,1767.5,1406.7,3447.9,1636.9,2014.4,3443.1,3443.1,703.6,1289.1,953.4,597.1,1483.8,2221.9,3450.4,3444.3,766.2,932.2,1457.1,2007.4,1885.0,1092.1,-15.0,-13.0,-5.0,9993.0,11634.0,3369.0,4679.0,6.0,9.0,1.0,2.0,-13.0,13.0,9705.0,8718.0,7281.0,6725.0,14.0,0.0,2.0,1.0
2022-05-03 16:55:55.749495-07:00,2693.0,722.5,1986.6,2071.5,1288.2,1369.4,1677.6,1898.7,3449.1,3454.0,2443.0,1749.3,1406.7,3447.9,1636.9,1996.5,3429.8,3443.1,703.6,1289.1,957.7,597.9,1485.6,2221.9,3449.1,3444.3,766.2,932.2,1447.9,1998.5,1868.4,1092.1,-2.0,7.0,0.0,9988.0,11638.0,3362.0,4682.0,-2.0,11.0,21.0,-3.0,-5.0,-3.0,9702.0,8722.0,7282.0,6724.0,1.0,-1.0,12.0,1.0
2022-05-03 16:55:55.750710-07:00,2684.3,722.5,1986.6,2071.5,1280.1,1366.6,1675.7,1898.7,3449.1,3454.0,2443.0,1749.3,1404.9,3441.9,1626.5,1996.5,3429.8,3444.3,703.6,1283.7,957.7,597.9,1485.6,2218.8,3449.1,3447.9,766.2,941.5,1447.9,1998.5,1868.4,1098.2,-5.0,0.0,-1.0,9987.0,11642.0,3351.0,4683.0,7.0,-27.0,19.0,-6.0,-6.0,7.0,9700.0,8724.0,7281.0,6726.0,11.0,-8.0,4.0,1.0
2022-05-03 16:55:55.751629-07:00,2684.3,718.4,1964.7,2055.4,1280.1,1366.6,1675.7,1895.8,3449.1,3438.2,2431.4,1749.3,1404.9,3441.9,1626.5,2002.5,3443.1,3444.3,703.6,1283.7,952.6,602.0,1480.1,2218.8,3450.4,3447.9,766.2,941.5,1448.8,2007.4,1869.3,1098.2,-5.0,0.0,6.0,9988.0,11646.0,3338.0,4679.0,-11.0,-18.0,16.0,-3.0,-5.0,5.0,9699.0,8724.0,7281.0,6725.0,-9.0,-11.0,11.0,1.0
2022-05-03 16:55:55.837824-07:00,2679.9,714.2,1964.7,2055.4,1289.1,1357.6,1681.4,1895.8,3439.5,3449.1,2431.4,1749.3,1409.4,3440.7,1624.7,2002.5,3443.1,3444.3,704.4,1283.7,952.6,602.0,1473.6,2208.6,3450.4,3450.4,767.0,932.2,1448.8,2007.4,1867.4,1090.3,1.0,4.0,19.0,9993.0,11641.0,3332.0,4686.0,-18.0,19.0,18.0,0.0,-3.0,8.0,9700.0,8726.0,7275.0,6729.0,-7.0,5.0,17.0,1.0
2022-05-03 16:55:55.868533-07:00,2679.9,714.2,1954.8,2053.4,1289.1,1357.6,1669.1,1887.9,3439.5,3449.1,2435.6,1747.3,1409.4,3440.7,1624.7,1996.5,3444.3,3443.1,704.4,1283.7,957.7,597.9,1473.6,2208.6,3443.1,3446.7,767.0,932.2,1441.5,1992.5,1867.4,1090.3,-10.0,-4.0,4.0,9990.0,11635.0,3336.0,4703.0,2.0,41.0,26.0,-1.0,-4.0,13.0,9695.0,8728.0,7273.0,6735.0,18.0,19.0,17.0,1.0
2022-05-03 16:55:55.869663-07:00,2671.1,713.4,1954.8,2053.4,1285.5,1363.9,1669.1,1887.9,3444.3,3449.1,2435.6,1747.3,1409.4,3449.1,1624.7,1996.5,3444.3,3443.1,705.2,1292.7,957.7,597.9,1470.9,2208.6,3443.1,3446.7,767.8,939.0,1441.5,1992.5,1862.5,1091.2,2.0,6.0,-3.0,9982.0,11641.0,3331.0,4710.0,10.0,6.0,16.0,0.0,0.0,0.0,9688.0,8734.0,7275.0,6736.0,12.0,9.0,6.0,1.0
2022-05-03 16:55:55.897964-07:00,2671.1,713.4,1959.8,2057.4,1285.5,1363.9,1671.9,1900.7,3444.3,3449.1,2424.0,1749.3,1409.4,3449.1,1613.4,1994.5,3441.9,3441.9,705.2,1292.7,956.0,594.7,1470.9,2208.6,3447.9,3454.0,767.8,939.0,1432.3,1990.5,1862.5,1091.2,-3.0,1.0,-3.0,9981.0,11641.0,3330.0,4714.0,0.0,9.0,12.0,0.0,0.0,6.0,9687.0,8734.0,7276.0,6736.0,6.0,-6.0,10.0,1.0
2022-05-03 16:55:55.957983-07:00,2648.2,715.9,1959.8,2057.4,1283.7,1363.0,1671.9,1900.7,3438.2,3449.1,2424.0,1749.3,1407.6,3449.1,1613.4,1994.5,3441.9,3441.9,709.3,1286.4,956.0,594.7,1470.9,2205.5,3447.9,3454.0,763.7,925.4,1432.3,1990.5,1857.6,1101.7,-9.0,-1.0,-3.0,9979.0,11644.0,3327.0,4712.0,-1.0,-23.0,16.0,0.0,0.0,8.0,9687.0,8735.0,7275.0,6736.0,6.0,-9.0,11.0,1.0
2022-05-03 16:55:55.988451-07:00,2648.2,715.9,1952.9,2047.4,1283.7,1363.0,1666.3,1883.0,3438.2,3449.1,2448.3,1754.1,1407.6,3449.1,1614.3,1990.5,3445.5,3449.1,709.3,1286.4,956.0,598.7,1470.9,2205.5,3450.4,3445.5,763.7,925.4,1436.0,2007.4,1857.6,1101.7,-4.0,0.0,8.0,9980.0,11647.0,3319.0,4709.0,-3.0,-10.0,10.0,-1.0,-8.0,4.0,9687.0,8737.0,7273.0,6736.0,6.0,-10.0,7.0,1.0
2022-05-03 16:55:56.138996-07:00,2652.6,724.1,1953.9,2047.4,1282.8,1362.1,1666.3,1883.0,3441.9,3449.1,2411.3,1754.1,1404.0,3445.5,1614.3,1990.5,3445.5,3449.1,703.6,1284.6,956.0,598.7,1470.0,2206.5,3450.4,3445.5,767.8,930.5,1436.0,1994.5,1860.6,1091.2,-7.0,-10.0,4.0,9978.0,11646.0,3321.0,4711.0,13.0,16.0,-2.0,0.0,-8.0,12.0,9687.0,8737.0,7273.0,6735.0,10.0,3.0,6.0,1.0
2022-05-03 16:55:56.140757-07:00,2652.6,724.1,1953.9,2047.4,1282.8,1361.2,1661.5,1885.0,3441.9,3449.1,2411.3,1740.6,1404.0,3447.9,1611.5,1990.5,3433.4,3440.7,706.0,1284.6,956.8,598.7,1470.0,2206.5,3446.7,3443.1,765.3,930.5,1438.7,1994.5,1860.6,1091.2,-7.0,2.0,1.0,9976.0,11648.0,3322.0,4713.0,-8.0,0.0,14.0,-4.0,-7.0,5.0,9685.0,8740.0,7273.0,6735.0,-8.0,-5.0,11.0,1.0
2022-05-03 16:55:56.197852-07:00,2661.3,719.2,1947.9,2047.4,1279.2,1361.2,1661.5,1885.0,3443.1,3450.4,2412.4,1740.6,1408.5,3447.9,1611.5,1990.5,3433.4,3440.7,706.0,1281.9,956.8,597.9,1462.6,2198.3,3446.7,3443.1,765.3,928.8,1438.7,1992.5,1854.7,1101.7,-6.0,3.0,-3.0,9973.0,11650.0,3319.0,4715.0,14.0,-13.0,21.0,-1.0,-2.0,10.0,9682.0,8743.0,7272.0,6736.0,16.0,-3.0,8.0,1.0
2022-05-03 16:55:56.228590-07:00,2661.3,719.2,1947.9,2049.4,1279.2,1353.1,1665.3,1879.1,3443.1,3450.4,2412.4,1739.7,1408.5,3441.9,1612.4,1984.6,3437.0,3437.0,701.1,1281.9,962.0,597.9,1462.6,2198.3,3447.9,3447.9,764.5,928.8,1434.1,1992.5,1854.7,1101.7,2.0,3.0,3.0,9970.0,11656.0,3311.0,4713.0,-2.0,9.0,-1.0,-1.0,-3.0,0.0,9681.0,8745.0,7273.0,6734.0,-2.0,-9.0,6.0,1.0
2022-05-03 16:55:56.317662-07:00,2639.5,715.1,1942.0,2049.4,1273.0,1353.1,1665.3,1879.1,3447.9,3439.5,2410.3,1739.7,1404.0,3441.9,1612.4,1984.6,3437.0,3437.0,701.1,1284.6,962.0,599.6,1463.5,2199.3,3447.9,3447.9,764.5,929.6,1434.1,1986.6,1848.9,1094.7,-7.0,0.0,-3.0,9970.0,11655.0,3312.0,4714.0,0.0,-4.0,-4.0,-2.0,-6.0,8.0,9681.0,8745.0,7273.0,6734.0,-3.0,-8.0,3.0,1.0
2022-05-03 16:55:56.438970-07:00,2639.5,715.1,1942.0,2042.4,1277.4,1359.4,1658.7,1874.2,3447.9,3439.5,2410.3,1742.6,1402.1,3443.1,1606.8,1984.6,3441.9,3439.5,704.4,1287.3,956.8,599.6,1463.5,2199.3,3447.9,3441.9,767.0,927.1,1428.6,1986.6,1848.9,1094.7,0.0,-2.0,8.0,9972.0,11654.0,3311.0,4714.0,-11.0,7.0,-1.0,2.0,-13.0,6.0,9682.0,8744.0,7272.0,6735.0,-20.0,-6.0,10.0,1.0
2022-05-03 16:55:56.440140-07:00,2630.8,709.3,1940.0,2035.4,1277.4,1359.4,1658.7,1874.2,3441.9,3447.9,2410.3,1734.9,1402.1,3443.1,1606.8,1984.6,3441.9,3439.5,704.4,1287.3,952.6,602.0,1468.1,2191.2,3447.9,3441.9,767.0,927.1,1425.9,1982.6,1848.9,1091.2,-8.0,4.0,2.0,9972.0,11650.0,3315.0,4720.0,-20.0,23.0,5.0,-2.0,-1.0,15.0,9683.0,8743.0,7269.0,6738.0,-18.0,1.0,11.0,1.0
2022-05-03 16:55:56.527789-07:00,2630.8,709.3,1940.0,2035.4,1274.7,1349.4,1659.6,1881.1,3441.9,3447.9,2410.3,1734.9,1402.1,3449.1,1611.5,1985.6,3441.9,3435.8,699.5,1279.2,952.6,602.0,1468.1,2191.2,3445.5,3446.7,764.5,922.0,1425.9,1982.6,1848.9,1091.2,-5.0,2.0,0.0,9975.0,11643.0,3318.0,4729.0,-8.0,31.0,-9.0,-1.0,0.0,8.0,9686.0,8739.0,7265.0,6742.0,-3.0,9.0,2.0,1.0
2022-05-03 16:55:56.529035-07:00,2635.1,703.6,1929.2,2034.4,1274.7,1349.4,1659.6,1881.1,3451.6,3447.9,2397.6,1736.8,1402.1,3449.1,1611.5,1985.6,3441.9,3435.8,699.5,1279.2,957.7,600.4,1462.6,2183.0,3445.5,3446.7,764.5,922.0,1430.5,1987.5,1848.9,1095.6,-3.0,-3.0,-6.0,9972.0,11641.0,3326.0,4734.0,7.0,2.0,8.0,0.0,-10.0,1.0,9685.0,8739.0,7267.0,6743.0,12.0,4.0,5.0,1.0
2022-05-03 16:55:56.529978-07:00,2635.1,703.6,1929.2,2034.4,1266.7,1359.4,1653.0,1875.2,3451.6,3447.9,2397.6,1736.8,1401.2,3450.4,1604.0,1985.6,3437.0,3439.5,701.1,1277.4,957.7,600.4,1462.6,2183.0,3445.5,3438.2,762.9,922.8,1430.5,1987.5,1848.9,1095.6,-1.0,3.0,-1.0,9972.0,11641.0,3326.0,4734.0,1.0,9.0,-9.0,-2.0,-9.0,1.0,9684.0,8739.0,7267.0,6743.0,1.0,-5.0,-2.0,1.0
2022-05-03 16:55:56.557965-07:00,2618.8,705.2,1935.1,2034.4,1266.7,1359.4,1653.0,1875.2,3440.7,3441.9,2397.6,1741.6,1401.2,3450.4,1604.0,1985.6,3437.0,3439.5,701.1,1277.4,960.2,596.3,1460.8,2188.1,3445.5,3438.2,762.9,922.8,1425.9,1985.6,1845.0,1095.6,-7.0,-2.0,4.0,9973.0,11641.0,3326.0,4734.0,2.0,-12.0,4.0,-3.0,-9.0,10.0,9684.0,8739.0,7267.0,6743.0,-4.0,-12.0,6.0,1.0
2022-05-03 16:55:56.677811-07:00,2617.8,705.2,1935.1,2034.4,1272.1,1353.1,1653.0,1869.3,3449.1,3441.9,2397.6,1741.6,1400.3,3446.7,1600.2,1983.6,3444.3,3443.1,703.6,1281.0,960.2,596.3,1460.8,2189.1,3458.9,3446.7,765.3,926.2,1425.9,1985.6,1845.0,1090.3,0.0,3.0,6.0,9973.0,11641.0,3325.0,4732.0,1.0,-2.0,-8.0,2.0,-7.0,5.0,9685.0,8740.0,7266.0,6742.0,-1.0,-3.0,0.0,1.0
2022-05-03 16:55:56.737769-07:00,2617.8,703.6,1929.2,2038.4,1272.1,1353.1,1653.0,1862.5,3449.1,3437.0,2424.0,1729.1,1400.3,3446.7,1600.2,1974.6,3443.1,3443.1,703.6,1281.0,956.8,597.1,1458.9,2189.1,3451.6,3446.7,765.3,926.2,1421.3,1984.6,1842.0,1090.3,0.0,0.0,4.0,9973.0,11642.0,3325.0,4731.0,-3.0,-13.0,2.0,3.0,-10.0,5.0,9685.0,8740.0,7266.0,6742.0,-4.0,-5.0,5.0,1.0
2022-05-03 16:55:56.768454-07:00,2613.4,703.6,1929.2,2038.4,1270.3,1358.5,1654.9,1862.5,3449.1,3437.0,2424.0,1729.1,1397.6,3446.7,1600.2,1974.6,3443.1,3440.7,700.3,1285.5,956.8,597.1,1458.9,2184.0,3451.6,3449.1,759.6,923.7,1421.3,1984.6,1842.0,1089.5,-4.0,0.0,2.0,9974.0,11642.0,3323.0,4730.0,2.0,-2.0,2.0,0.0,-5.0,8.0,9685.0,8740.0,7266.0,6742.0,5.0,5.0,-2.0,1.0
2022-05-03 16:55:56.769654-07:00,2613.4,705.2,1929.2,2033.4,1270.3,1358.5,1654.9,1866.4,3449.1,3438.2,2391.3,1728.2,1397.6,3446.7,1600.2,1979.6,3444.3,3440.7,700.3,1285.5,958.5,596.3,1458.9,2184.0,3443.1,3449.1,759.6,923.7,1414.9,1984.6,1847.9,1089.5,-4.0,0.0,0.0,9973.0,11643.0,3322.0,4731.0,-4.0,-9.0,10.0,-2.0,-6.0,0.0,9685.0,8740.0,7266.0,6742.0,2.0,-4.0,2.0,1.0
2022-05-03 16:55:56.858027-07:00,2616.7,705.2,1929.2,2033.4,1278.3,1349.4,1650.2,1866.4,3440.7,3438.2,2391.3,1728.2,1400.3,3445.5,1596.4,1979.6,3444.3,3450.4,706.0,1287.3,958.5,596.3,1458.9,2179.9,3443.1,3447.9,761.2,922.8,1414.9,1984.6,1847.9,1086.8,-8.0,4.0,0.0,9974.0,11643.0,3321.0,4730.0,6.0,1.0,-1.0,-4.0,-6.0,6.0,9684.0,8741.0,7267.0,6741.0,3.0,-4.0,-3.0,1.0
2022-05-03 16:55:56.859544-07:00,2616.7,703.6,1918.3,2023.4,1278.3,1349.4,1650.2,1866.4,3440.7,3443.1,2388.1,1729.1,1400.3,3445.5,1596.4,1976.6,3437.0,3450.4,706.0,1287.3,953.4,602.0,1463.5,2179.9,3445.5,3447.9,761.2,922.8,1415.8,1975.6,1849.8,1086.8,-3.0,0.0,-1.0,9974.0,11643.0,3321.0,4730.0,-8.0,2.0,6.0,0.0,-6.0,8.0,9684.0,8741.0,7267.0,6741.0,-2.0,-6.0,4.0,1.0
2022-05-03 16:55:56.918460-07:00,2613.4,701.9,1918.3,2023.4,1266.7,1354.0,1643.5,1866.4,3446.7,3447.9,2388.1,1729.1,1397.6,3438.2,1599.3,1976.6,3437.0,3443.1,703.6,1289.1,953.4,602.0,1455.2,2167.7,3445.5,3449.1,762.0,925.4,1415.8,1975.6,1849.8,1092.9,-1.0,5.0,10.0,9975.0,11643.0,3319.0,4728.0,0.0,-1.0,-2.0,1.0,-6.0,5.0,9685.0,8741.0,7266.0,6740.0,0.0,-10.0,1.0,1.0
2022-05-03 16:55:56.977728-07:00,2613.4,701.9,1925.2,2031.4,1266.7,1354.0,1642.6,1856.7,3446.7,3447.9,2394.5,1728.2,1397.6,3438.2,1592.7,1967.7,3437.0,3447.9,703.6,1289.1,957.7,597.1,1455.2,2167.7,3434.6,3438.2,762.0,925.4,1421.3,1976.6,1849.8,1092.9,-3.0,-2.0,9.0,9975.0,11642.0,3320.0,4730.0,0.0,7.0,-4.0,0.0,-6.0,9.0,9685.0,8741.0,7266.0,6740.0,-2.0,-2.0,1.0,1.0
2022-05-03 16:55:57.009121-07:00,2604.8,702.8,1925.2,2031.4,1264.0,1354.0,1642.6,1856.7,3440.7,3437.0,2394.5,1728.2,1396.7,3443.1,1592.7,1967.7,3437.0,3447.9,706.0,1285.5,957.7,597.1,1460.8,2176.9,3434.6,3438.2,761.2,924.5,1421.3,1976.6,1836.2,1087.7,0.0,0.0,5.0,9973.0,11639.0,3327.0,4736.0,8.0,31.0,-10.0,1.0,-4.0,1.0,9685.0,8741.0,7265.0,6742.0,-13.0,8.0,9.0,1.0
2022-05-03 16:55:57.097906-07:00,2604.8,702.8,1928.2,2021.4,1264.0,1354.0,1642.6,1858.6,3440.7,3437.0,2386.0,1733.9,1396.7,3443.1,1598.3,1966.7,3451.6,3438.2,706.0,1285.5,956.0,603.6,1460.8,2176.9,3449.1,3450.4,761.2,924.5,1424.1,1976.6,1836.2,1087.7,29.0,9.0,13.0,9966.0,11633.0,3356.0,4745.0,68.0,114.0,-79.0,3.0,-12.0,-10.0,9690.0,8734.0,7259.0,6751.0,-51.0,5.0,10.0,1.0
2022-05-03 16:55:57.099164-07:00,2769.0,732.3,1928.2,2021.4,1267.6,1354.9,1642.6,1858.6,3450.4,3438.2,2386.0,1733.9,1401.2,3447.9,1598.3,1966.7,3451.6,3438.2,700.3,1280.1,956.0,603.6,1455.2,2167.7,3449.1,3450.4,767.0,917.7,1424.1,1976.6,1885.0,1093.8,-6.0,33.0,-6.0,9950.0,11578.0,3516.0,4799.0,-13.0,469.0,-264.0,-12.0,1.0,19.0,9727.0,8689.0,7218.0,6799.0,-260.0,22.0,38.0,1.0
2022-05-03 16:55:57.218287-07:00,2769.0,732.3,2057.4,2081.6,1267.6,1354.0,1635.0,1875.2,3450.4,3438.2,2421.9,1725.3,1401.2,3440.7,1752.1,2028.4,3447.9,3447.9,697.0,1280.1,956.8,593.9,1455.2,2167.7,3449.1,3440.7,758.7,917.7,1481.0,2000.5,1885.0,1093.8,-19.0,-33.0,-7.0,9963.0,11473.0,3723.0,4868.0,-59.0,418.0,-290.0,0.0,-23.0,20.0,9787.0,8619.0,7159.0,6863.0,-258.0,3.0,26.0,1.0
2022-05-03 16:55:57.219663-07:00,2950.7,719.2,2237.3,2081.6,1251.5,1354.0,1635.0,1875.2,3446.7,3441.9,2493.0,1725.3,1380.3,3440.7,1752.1,2028.4,3447.9,3447.9,697.0,1277.4,956.8,597.9,1474.6,2173.8,3449.1,3440.7,758.7,933.9,1481.0,2019.4,1972.7,1089.5,-9.0,-8.0,6.0,9923.0,11436.0,3886.0,4907.0,191.0,310.0,-129.0,10.0,-11.0,4.0,9803.0,8600.0,7140.0,6885.0,14.0,18.0,22.0,1.0
2022-05-03 16:55:57.247908-07:00,2950.7,719.2,2237.3,2134.1,1251.5,1357.6,1623.7,1872.3,3446.7,3441.9,2493.0,1725.3,1380.3,3440.7,1792.6,2046.4,3438.2,3440.7,694.6,1277.4,963.7,597.9,1474.6,2173.8,3445.5,3449.1,751.3,933.9,1470.9,2019.4,1972.7,1089.5,22.0,14.0,2.0,9844.0,11457.0,4008.0,4919.0,254.0,182.0,-136.0,2.0,0.0,-2.0,9779.0,8607.0,7167.0,6882.0,76.0,51.0,-26.0,1.0
2022-05-03 16:55:57.337767-07:00,2879.5,711.0,2266.2,2134.1,1242.6,1357.6,1623.7,1872.3,3444.3,3443.1,2528.3,1725.3,1386.6,3440.7,1792.6,2046.4,3438.2,3440.7,694.6,1289.1,963.7,597.1,1484.7,2178.9,3445.5,3449.1,751.3,950.0,1470.9,2016.4,1973.7,1091.2,-30.0,-16.0,-25.0,9767.0,11465.0,4162.0,4928.0,218.0,323.0,-188.0,-8.0,-13.0,19.0,9764.0,8606.0,7189.0,6882.0,10.0,44.0,-5.0,1.0
2022-05-03 16:55:57.457883-07:00,2879.5,711.0,2266.2,2143.3,1242.6,1354.9,1628.4,1876.2,3444.3,3443.1,2528.3,1709.1,1386.6,3450.4,1811.0,2059.4,3438.2,3447.9,703.6,1289.1,967.1,597.1,1484.7,2178.9,3451.6,3452.8,752.1,950.0,1457.1,2016.4,1973.7,1091.2,-16.0,-9.0,-11.0,9688.0,11481.0,4289.0,4937.0,258.0,129.0,-78.0,-4.0,-11.0,-1.0,9751.0,8607.0,7203.0,6885.0,52.0,20.0,9.0,1.0
2022-05-03 16:55:57.548428-07:00,2841.4,708.5,2207.5,2143.3,1239.1,1354.9,1628.4,1876.2,3455.2,3438.2,2497.2,1709.1,1383.0,3450.4,1811.0,2059.4,3438.2,3447.9,703.6,1281.0,967.1,594.7,1471.8,2217.8,3451.6,3452.8,752.1,946.6,1457.1,1980.6,1933.1,1088.6,-1.0,16.0,-10.0,9612.0,11526.0,4351.0,4925.0,215.0,67.0,-16.0,-1.0,-2.0,-4.0,9740.0,8617.0,7206.0,6883.0,13.0,-13.0,16.0,1.0
2022-05-03 16:55:57.637980-07:00,2841.4,708.5,2207.5,2114.9,1223.0,1344.0,1609.6,1879.1,3455.2,3438.2,2497.2,1689.1,1375.7,3454.0,1693.8,2014.4,3441.9,3450.4,700.3,1277.4,959.4,594.7,1471.8,2217.8,3452.8,3451.6,747.2,948.3,1449.7,1980.6,1933.1,1088.6,-9.0,10.0,10.0,9557.0,11559.0,4406.0,4907.0,164.0,44.0,-96.0,2.0,-2.0,8.0,9743.0,8621.0,7204.0,6877.0,4.0,-15.0,-19.0,1.0
2022-05-03 16:55:57.641129-07:00,2816.8,707.7,2107.8,2087.6,1223.0,1344.0,1609.6,1879.1,3446.7,3446.7,2412.4,1671.0,1375.7,3454.0,1693.8,2014.4,3441.9,3450.4,700.3,1277.4,962.8,599.6,1462.6,2201.4,3452.8,3451.6,747.2,948.3,1447.0,1929.2,1869.3,1082.5,2.0,-7.0,18.0,9537.0,11569.0,4449.0,4883.0,52.0,30.0,-50.0,1.0,-8.0,6.0,9746.0,8618.0,7208.0,6872.0,-10.0,-5.0,-4.0,1.0
2022-05-03 16:55:57.642410-07:00,2816.8,707.7,2107.8,2087.6,1216.0,1342.2,1592.7,1864.5,3446.7,3446.7,2412.4,1671.0,1374.8,3441.9,1640.7,1972.7,3449.1,3449.1,699.5,1279.2,962.8,599.6,1462.6,2201.4,3450.4,3449.1,753.8,945.8,1447.0,1929.2,1869.3,1082.5,-9.0,1.0,-4.0,9526.0,11553.0,4494.0,4901.0,-3.0,150.0,-73.0,-1.0,-6.0,21.0,9753.0,8611.0,7201.0,6879.0,-50.0,-2.0,5.0,1.0
2022-05-03 16:55:57.643351-07:00,2762.4,704.4,2070.5,2054.4,1216.0,1342.2,1592.7,1864.5,3445.5,3447.9,2402.9,1653.0,1374.8,3441.9,1640.7,1972.7,3449.1,3449.1,699.5,1279.2,962.8,597.1,1461.7,2189.1,3450.4,3449.1,753.8,945.8,1442.4,1901.6,1827.5,1091.2,8.0,-18.0,-1.0,9501.0,11543.0,4551.0,4920.0,101.0,103.0,-18.0,0.0,-8.0,2.0,9755.0,8606.0,7199.0,6885.0,10.0,15.0,14.0,1.0
2022-05-03 16:55:57.817867-07:00,2762.4,704.4,2070.5,2054.4,1210.6,1351.2,1590.8,1845.0,3445.5,3447.9,2402.9,1653.0,1372.1,3450.4,1586.1,1959.8,3440.7,3444.3,703.6,1282.8,962.8,597.1,1461.7,2189.1,3447.9,3446.7,747.2,950.9,1442.4,1901.6,1827.5,1091.2,-14.0,-25.0,-16.0,9459.0,11547.0,4586.0,4959.0,37.0,106.0,68.0,-6.0,-6.0,9.0,9750.0,8606.0,7195.0,6895.0,-39.0,2.0,33.0,1.0
2022-05-03 16:55:57.848452-07:00,2722.7,695.4,2015.4,2031.4,1210.6,1351.2,1590.8,1844.0,3438.2,3446.7,2371.3,1646.4,1372.1,3450.4,1586.1,1934.1,3443.1,3444.3,703.6,1282.8,956.0,593.9,1465.4,2173.8,3451.6,3446.7,747.2,950.9,1445.1,1875.2,1792.6,1084.2,-7.0,-12.0,-9.0,9421.0,11574.0,4556.0,4995.0,32.0,-22.0,197.0,1.0,-8.0,2.0,9748.0,8611.0,7175.0,6912.0,-7.0,-19.0,65.0,1.0
2022-05-03 16:55:57.849434-07:00,2702.9,695.4,2015.4,2031.4,1201.8,1344.0,1581.4,1844.0,3443.1,3446.7,2371.3,1646.4,1368.5,3449.1,1521.8,1934.1,3443.1,3438.2,703.6,1278.3,956.0,593.9,1465.4,2164.6,3451.6,3449.1,743.9,948.3,1445.1,1875.2,1792.6,1083.4,18.0,20.0,-10.0,9399.0,11613.0,4484.0,5015.0,-4.0,-74.0,141.0,4.0,0.0,-8.0,9747.0,8626.0,7149.0,6922.0,-33.0,-57.0,59.0,1.0
2022-05-03 16:55:57.850592-07:00,2702.9,702.8,1967.7,2025.4,1201.8,1344.0,1581.4,1848.9,3443.1,3447.9,2333.7,1636.0,1368.5,3449.1,1521.8,1911.5,3438.2,3438.2,703.6,1278.3,961.1,593.9,1460.8,2164.6,3449.1,3449.1,743.9,948.3,1442.4,1859.6,1760.8,1083.4,5.0,2.0,13.0,9390.0,11625.0,4466.0,5017.0,67.0,5.0,-1.0,1.0,-13.0,1.0,9751.0,8634.0,7131.0,6926.0,21.0,-12.0,18.0,1.0
2022-05-03 16:55:57.967935-07:00,2679.9,702.8,1967.7,2025.4,1200.0,1344.9,1586.1,1848.9,3439.5,3447.9,2333.7,1636.0,1368.5,3451.6,1470.0,1911.5,3438.2,3444.3,695.4,1275.6,961.1,593.9,1460.8,2156.5,3449.1,3454.0,745.5,963.7,1442.4,1859.6,1760.8,1085.1,-35.0,27.0,32.0,9348.0,11642.0,4532.0,4997.0,159.0,64.0,-120.0,0.0,-4.0,29.0,9740.0,8641.0,7139.0,6924.0,64.0,23.0,2.0,1.0
2022-05-03 16:55:57.969263-07:00,2679.9,684.0,1869.3,1984.6,1200.0,1344.9,1586.1,1859.6,3439.5,3440.7,2304.5,1624.7,1368.5,3451.6,1470.0,1906.6,3443.1,3444.3,695.4,1275.6,962.0,596.3,1455.2,2156.5,3454.0,3454.0,745.5,963.7,1436.9,1846.9,1722.4,1085.1,11.0,5.0,14.0,9330.0,11644.0,4581.0,4981.0,22.0,114.0,-76.0,0.0,-4.0,3.0,9729.0,8644.0,7150.0,6924.0,15.0,20.0,0.0,1.0
2022-05-03 16:55:57.970210-07:00,2621.0,684.0,1869.3,1984.6,1182.3,1342.2,1587.1,1859.6,3441.9,3440.7,2304.5,1624.7,1363.9,3445.5,1444.2,1906.6,3443.1,3454.0,706.0,1281.0,962.0,596.3,1455.2,2145.3,3454.0,3447.9,747.2,985.0,1436.9,1846.9,1722.4,1077.3,-18.0,5.0,0.0,9314.0,11629.0,4635.0,4995.0,58.0,83.0,-56.0,-1.0,-7.0,5.0,9720.0,8643.0,7161.0,6927.0,45.0,30.0,-6.0,1.0
2022-05-03 16:55:58.028589-07:00,2621.0,692.1,1791.6,1965.7,1182.3,1342.2,1578.6,1840.1,3441.9,3438.2,2267.2,1618.1,1363.9,3445.5,1412.2,1886.0,3444.3,3451.6,706.0,1281.0,957.7,602.0,1454.3,2145.3,3446.7,3458.9,747.2,985.0,1425.9,1834.3,1697.6,1077.3,-16.0,-7.0,-11.0,9303.0,11624.0,4672.0,4996.0,15.0,41.0,-38.0,-4.0,-7.0,6.0,9710.0,8646.0,7173.0,6925.0,10.0,10.0,-5.0,1.0
2022-05-03 16:55:58.029626-07:00,2590.7,698.7,1791.6,1965.7,1182.3,1349.4,1578.6,1840.1,3435.8,3439.5,2267.2,1618.1,1363.0,3452.8,1412.2,1886.0,3444.3,3451.6,701.9,1286.4,957.7,602.0,1462.6,2133.1,3446.7,3458.9,743.9,994.5,1425.9,1834.3,1667.2,1086.0,-12.0,-13.0,-14.0,9307.0,11624.0,4663.0,4994.0,-32.0,-59.0,45.0,0.0,-15.0,2.0,9711.0,8647.0,7171.0,6923.0,-6.0,-19.0,1.0,1.0
2022-05-03 16:55:58.088682-07:00,2590.7,698.7,1755.0,1943.0,1182.3,1349.4,1579.6,1828.4,3435.8,3439.5,2222.9,1604.0,1363.0,3452.8,1391.2,1871.3,3439.5,3449.1,701.9,1286.4,960.2,594.7,1462.6,2133.1,3438.2,3449.1,743.9,994.5,1431.4,1808.1,1667.2,1086.0,15.0,23.0,4.0,9310.0,11637.0,4642.0,4979.0,7.0,-8.0,-24.0,0.0,7.0,-3.0,9715.0,8653.0,7168.0,6913.0,6.0,-32.0,-21.0,1.0
2022-05-03 16:55:58.239122-07:00,2565.9,685.6,1755.0,1943.0,1172.6,1346.7,1579.6,1828.4,3441.9,3447.9,2222.9,1604.0,1362.1,3446.7,1391.2,1871.3,3439.5,3449.1,701.9,1279.2,960.2,594.7,1459.8,2124.0,3438.2,3449.1,740.6,990.2,1431.4,1808.1,1654.9,1078.2,-10.0,-9.0,17.0,9330.0,11615.0,4666.0,4970.0,-63.0,17.0,-74.0,0.0,-10.0,22.0,9729.0,8644.0,7164.0,6909.0,-47.0,-5.0,-19.0,1.0
2022-05-03 16:55:58.241098-07:00,2565.9,685.6,1724.4,1929.2,1172.6,1346.7,1560.9,1820.7,3441.9,3447.9,2200.4,1592.7,1362.1,3446.7,1378.5,1860.6,3447.9,3446.7,701.9,1279.2,956.8,594.7,1459.8,2124.0,3452.8,3443.1,740.6,990.2,1422.2,1803.2,1654.9,1078.2,-7.0,-21.0,1.0,9336.0,11607.0,4667.0,4978.0,23.0,16.0,58.0,0.0,-6.0,7.0,9733.0,8638.0,7164.0,6911.0,27.0,16.0,8.0,1.0
2022-05-03 16:55:58.242187-07:00,2556.2,689.7,1717.7,1929.2,1159.4,1343.1,1560.9,1820.7,3445.5,3452.8,2193.2,1592.7,1361.2,3446.7,1378.5,1860.6,3447.9,3446.7,700.3,1279.2,956.8,596.3,1451.6,2129.0,3452.8,3443.1,738.9,991.0,1422.2,1788.7,1645.4,1079.0,-6.0,5.0,-13.0,9326.0,11612.0,4655.0,4995.0,-54.0,-13.0,36.0,-2.0,-5.0,-1.0,9731.0,8639.0,7163.0,6913.0,-27.0,-1.0,7.0,1.0
2022-05-03 16:55:58.297932-07:00,2556.2,689.7,1717.7,1929.2,1159.4,1339.5,1553.4,1811.0,3445.5,3452.8,2193.2,1599.3,1361.2,3447.9,1368.5,1850.8,3444.3,3449.1,700.3,1279.2,956.8,596.3,1451.6,2129.0,3451.6,3443.1,738.9,991.0,1419.5,1788.7,1645.4,1079.0,-12.0,-6.0,-9.0,9336.0,11609.0,4640.0,4999.0,-2.0,-33.0,17.0,-3.0,-9.0,9.0,9737.0,8636.0,7158.0,6915.0,-9.0,-10.0,3.0,1.0
2022-05-03 16:55:58.327755-07:00,2545.4,688.9,1710.0,1929.2,1160.3,1339.5,1553.4,1811.0,3449.1,3443.1,2182.0,1599.3,1353.1,3447.9,1368.5,1850.8,3444.3,3449.1,700.3,1280.1,956.8,598.7,1456.2,2111.8,3451.6,3443.1,738.9,982.5,1419.5,1785.8,1628.4,1079.9,2.0,1.0,-4.0,9337.0,11621.0,4621.0,4985.0,-14.0,-45.0,17.0,-1.0,-2.0,5.0,9741.0,8638.0,7153.0,6911.0,-14.0,-22.0,-1.0,1.0
2022-05-03 16:55:58.388616-07:00,2545.4,688.9,1710.0,1914.4,1160.3,1335.0,1546.9,1802.3,3449.1,3443.1,2182.0,1587.1,1353.1,3449.1,1358.5,1848.9,3449.1,3435.8,706.0,1280.1,956.8,598.7,1456.2,2111.8,3440.7,3439.5,742.2,982.5,1430.5,1785.8,1628.4,1079.9,-3.0,2.0,12.0,9349.0,11616.0,4610.0,4984.0,-14.0,-6.0,3.0,2.0,-4.0,11.0,9750.0,8635.0,7144.0,6911.0,-10.0,-15.0,-2.0,1.0
2022-05-03 16:55:58.447932-07:00,2534.7,688.9,1709.1,1914.4,1158.6,1335.0,1546.9,1802.3,3447.9,3440.7,2171.8,1587.1,1356.7,3449.1,1358.5,1848.9,3449.1,3435.8,706.0,1272.1,956.8,590.7,1458.9,2114.9,3440.7,3439.5,742.2,983.3,1430.5,1779.1,1633.1,1081.6,-3.0,-2.0,7.0,9350.0,11615.0,4611.0,4984.0,3.0,14.0,1.0,1.0,-7.0,9.0,9751.0,8634.0,7144.0,6912.0,2.0,10.0,0.0,1.0
2022-05-03 16:55:58.508131-07:00,2534.7,688.9,1709.1,1912.4,1158.6,1335.9,1551.5,1799.4,3447.9,3440.7,2171.8,1590.8,1356.7,3445.5,1360.3,1846.9,3440.7,3443.1,705.2,1272.1,961.1,590.7,1458.9,2114.9,3450.4,3443.1,740.6,983.3,1420.4,1779.1,1633.1,1081.6,-1.0,-1.0,-4.0,9347.0,11614.0,4613.0,4992.0,-5.0,26.0,11.0,0.0,-1.0,3.0,9749.0,8632.0,7146.0,6915.0,5.0,5.0,2.0,1.0
2022-05-03 16:55:58.567952-07:00,2545.4,685.6,1700.5,1912.4,1158.6,1335.9,1551.5,1799.4,3447.9,3445.5,2164.6,1589.9,1355.8,3445.5,1360.3,1846.9,3440.7,3443.1,705.2,1273.9,956.8,596.3,1448.8,2103.7,3450.4,3443.1,740.6,981.6,1418.6,1776.2,1607.7,1087.7,-9.0,-4.0,-9.0,9345.0,11611.0,4613.0,5000.0,-6.0,-9.0,21.0,-2.0,-7.0,5.0,9750.0,8632.0,7146.0,6915.0,-2.0,-2.0,-1.0,1.0
2022-05-03 16:55:58.597798-07:00,2545.4,685.6,1700.5,1912.4,1155.9,1329.6,1545.9,1800.3,3447.9,3445.5,2164.6,1589.9,1359.4,3439.5,1351.2,1845.9,3441.9,3437.0,701.9,1278.3,956.8,596.3,1448.8,2103.7,3443.1,3449.1,731.5,984.2,1418.6,1776.2,1607.7,1087.7,3.0,2.0,0.0,9343.0,11617.0,4602.0,5001.0,10.0,-7.0,12.0,-4.0,-10.0,-3.0,9749.0,8632.0,7146.0,6915.0,5.0,-3.0,6.0,1.0
2022-05-03 16:55:58.628479-07:00,2531.5,677.4,1698.6,1904.6,1155.9,1329.6,1545.9,1800.3,3454.0,3445.5,2166.7,1582.4,1359.4,3439.5,1351.2,1845.9,3441.9,3437.0,701.9,1278.3,963.7,596.3,1450.6,2105.8,3443.1,3449.1,731.5,984.2,1419.5,1767.5,1616.2,1079.0,-6.0,4.0,4.0,9341.0,11618.0,4608.0,4996.0,1.0,-2.0,-27.0,-1.0,-6.0,9.0,9749.0,8632.0,7145.0,6915.0,9.0,8.0,-2.0,1.0
2022-05-03 16:55:58.688052-07:00,2531.5,677.4,1698.6,1904.6,1151.5,1329.6,1543.1,1794.5,3454.0,3445.5,2166.7,1582.4,1355.8,3449.1,1351.2,1843.0,3444.3,3447.9,698.7,1279.2,963.7,596.3,1450.6,2105.8,3458.9,3447.9,737.3,981.6,1419.5,1767.5,1616.2,1079.0,-7.0,-7.0,1.0,9343.0,11617.0,4610.0,4994.0,3.0,1.0,23.0,-3.0,-9.0,8.0,9750.0,8631.0,7145.0,6915.0,5.0,9.0,7.0,1.0
2022-05-03 16:55:58.747910-07:00,2518.6,679.1,1694.8,1893.8,1151.5,1329.6,1543.1,1794.5,3454.0,3443.1,2142.2,1579.6,1355.8,3449.1,1351.2,1843.0,3444.3,3447.9,698.7,1279.2,963.7,588.3,1442.4,2098.7,3458.9,3447.9,737.3,981.6,1416.7,1768.5,1623.7,1077.3,7.0,9.0,0.0,9340.0,11619.0,4602.0,5001.0,1.0,22.0,4.0,0.0,-2.0,-5.0,9749.0,8633.0,7145.0,6915.0,4.0,-4.0,7.0,1.0
2022-05-03 16:55:58.777873-07:00,2517.5,679.1,1694.8,1893.8,1155.9,1334.1,1543.1,1796.5,3437.0,3443.1,2142.2,1579.6,1354.0,3438.2,1345.8,1834.3,3445.5,3437.0,699.5,1280.1,963.7,588.3,1442.4,2098.7,3449.1,3451.6,743.9,978.2,1416.7,1768.5,1623.7,1092.9,-6.0,-5.0,0.0,9340.0,11613.0,4611.0,5008.0,-26.0,18.0,-11.0,2.0,-4.0,11.0,9751.0,8632.0,7144.0,6916.0,-12.0,-3.0,-7.0,1.0
2022-05-03 16:55:58.867851-07:00,2517.5,680.7,1685.3,1892.8,1155.9,1334.1,1543.1,1796.5,3437.0,3445.5,2146.3,1577.7,1354.0,3438.2,1345.8,1836.2,3441.9,3437.0,699.5,1280.1,962.0,597.9,1442.4,2098.7,3447.9,3451.6,743.9,978.2,1416.7,1765.6,1608.7,1092.9,-8.0,-6.0,-6.0,9345.0,11607.0,4605.0,5017.0,6.0,-9.0,41.0,-3.0,-10.0,6.0,9753.0,8629.0,7141.0,6918.0,7.0,1.0,12.0,1.0
2022-05-03 16:55:58.927809-07:00,2504.7,680.7,1685.3,1892.8,1150.6,1329.6,1546.9,1796.5,3452.8,3445.5,2146.3,1577.7,1348.5,3445.5,1338.6,1836.2,3441.9,3444.3,698.7,1275.6,962.0,597.9,1442.4,2089.6,3447.9,3444.3,735.6,986.7,1416.7,1765.6,1608.7,1082.5,-8.0,14.0,2.0,9338.0,11611.0,4604.0,5023.0,-39.0,37.0,-22.0,1.0,1.0,12.0,9749.0,8633.0,7143.0,6917.0,-9.0,-3.0,2.0,1.0
2022-05-03 16:55:59.078410-07:00,2504.7,679.1,1690.0,1911.5,1150.6,1329.6,1546.9,1789.7,3452.8,3445.5,2152.4,1576.8,1348.5,3445.5,1338.6,1827.5,3445.5,3444.3,698.7,1275.6,965.4,596.3,1447.0,2089.6,3446.7,3444.3,735.6,986.7,1412.2,1770.4,1607.7,1082.5,-6.0,-16.0,0.0,9347.0,11601.0,4609.0,5025.0,0.0,-1.0,-1.0,-4.0,-12.0,3.0,9753.0,8629.0,7140.0,6920.0,7.0,8.0,-3.0,1.0
2022-05-03 16:55:59.107982-07:00,2501.5,679.1,1690.0,1911.5,1146.3,1329.6,1540.3,1789.7,3450.4,3445.5,2152.4,1576.8,1344.9,3438.2,1338.6,1827.5,3445.5,3447.9,699.5,1273.9,965.4,596.3,1447.0,2091.6,3446.7,3454.0,734.8,991.9,1412.2,1770.4,1607.7,1079.0,0.0,12.0,-8.0,9334.0,11612.0,4609.0,5023.0,19.0,-13.0,13.0,0.0,2.0,-1.0,9746.0,8637.0,7145.0,6914.0,13.0,-2.0,2.0,1.0
2022-05-03 16:55:59.110116-07:00,2501.5,677.4,1685.3,1884.0,1146.3,1329.6,1540.3,1777.2,3450.4,3449.1,2143.3,1575.8,1344.9,3438.2,1338.6,1826.5,3441.9,3447.9,699.5,1273.9,960.2,595.5,1445.1,2091.6,3443.1,3454.0,734.8,991.9,1410.3,1762.7,1604.9,1079.0,-6.0,-5.0,-3.0,9339.0,11609.0,4606.0,5023.0,-6.0,-13.0,3.0,0.0,-7.0,5.0,9747.0,8636.0,7144.0,6914.0,1.0,-9.0,-2.0,1.0
2022-05-03 16:55:59.111137-07:00,2499.4,679.9,1685.3,1884.0,1152.4,1329.6,1532.9,1777.2,3439.5,3443.1,2143.3,1575.8,1348.5,3446.7,1330.5,1826.5,3441.9,3447.9,701.1,1277.4,960.2,595.5,1442.4,2085.6,3443.1,3456.4,738.9,991.9,1410.3,1762.7,1602.1,1079.0,-7.0,2.0,0.0,9338.0,11613.0,4600.0,5022.0,-5.0,-13.0,16.0,-1.0,-1.0,7.0,9746.0,8638.0,7145.0,6913.0,3.0,-7.0,0.0,1.0
2022-05-03 16:55:59.197906-07:00,2499.4,679.9,1680.5,1888.9,1152.4,1329.6,1534.8,1781.0,3439.5,3443.1,2134.1,1578.6,1348.5,3446.7,1339.5,1838.2,3438.2,3441.9,701.1,1277.4,959.4,593.1,1442.4,2085.6,3451.6,3455.2,738.9,991.9,1407.6,1757.9,1602.1,1079.0,-4.0,-3.0,4.0,9339.0,11613.0,4599.0,5021.0,3.0,-1.0,-12.0,1.0,-10.0,8.0,9746.0,8638.0,7145.0,6913.0,0.0,4.0,-1.0,1.0
2022-05-03 16:55:59.199705-07:00,2502.6,675.0,1680.5,1888.9,1150.6,1327.8,1534.8,1781.0,3449.1,3454.0,2134.1,1578.6,1344.0,3451.6,1339.5,1838.2,3438.2,3441.9,700.3,1279.2,959.4,593.1,1439.6,2088.6,3451.6,3455.2,734.0,973.1,1407.6,1757.9,1603.0,1076.4,-5.0,-2.0,2.0,9339.0,11611.0,4602.0,5022.0,0.0,23.0,7.0,-4.0,-9.0,3.0,9746.0,8638.0,7145.0,6913.0,-2.0,2.0,3.0,1.0
2022-05-03 16:55:59.227795-07:00,2502.6,675.0,1664.4,1885.0,1150.6,1327.8,1537.6,1779.1,3449.1,3454.0,2125.0,1574.9,1344.0,3451.6,1339.5,1824.6,3435.8,3450.4,700.3,1279.2,956.0,591.5,1439.6,2088.6,3447.9,3450.4,734.0,973.1,1406.7,1752.1,1603.0,1076.4,-4.0,-1.0,-6.0,9337.0,11611.0,4601.0,5027.0,-15.0,-6.0,12.0,0.0,-6.0,6.0,9746.0,8638.0,7145.0,6913.0,-5.0,1.0,-1.0,1.0
2022-05-03 16:55:59.287847-07:00,2494.0,680.7,1664.4,1885.0,1149.8,1328.7,1537.6,1779.1,3446.7,3444.3,2125.0,1574.9,1348.5,3439.5,1339.5,1824.6,3435.8,3450.4,703.6,1281.9,956.0,591.5,1433.2,2078.5,3447.9,3450.4,734.0,976.5,1406.7,1752.1,1593.6,1079.0,-4.0,1.0,-2.0,9340.0,11610.0,4595.0,5031.0,-2.0,-7.0,13.0,-3.0,-7.0,3.0,9746.0,8638.0,7145.0,6913.0,3.0,-4.0,4.0,1.0
2022-05-03 16:55:59.348196-07:00,2494.0,680.7,1678.6,1885.0,1149.8,1330.5,1533.8,1780.1,3446.7,3444.3,2136.1,1568.3,1348.5,3440.7,1332.3,1821.6,3441.9,3443.1,701.1,1281.9,961.1,595.5,1433.2,2078.5,3446.7,3458.9,736.5,976.5,1405.8,1760.8,1593.6,1079.0,-7.0,-1.0,3.0,9339.0,11610.0,4595.0,5031.0,3.0,-6.0,-4.0,-1.0,-7.0,11.0,9746.0,8638.0,7145.0,6913.0,-4.0,-5.0,-3.0,1.0
2022-05-03 16:55:59.377890-07:00,2494.0,673.3,1672.9,1885.0,1147.1,1330.5,1533.8,1780.1,3447.9,3438.2,2125.0,1568.3,1346.7,3440.7,1332.3,1821.6,3441.9,3443.1,701.1,1274.7,961.1,593.9,1436.9,2074.5,3446.7,3458.9,736.5,973.1,1405.8,1755.0,1588.9,1075.6,-7.0,0.0,0.0,9342.0,11607.0,4594.0,5034.0,-9.0,10.0,10.0,-1.0,-6.0,7.0,9746.0,8638.0,7145.0,6913.0,-2.0,4.0,5.0,1.0
2022-05-03 16:55:59.438948-07:00,2494.0,673.3,1672.9,1878.1,1147.1,1325.0,1533.8,1776.2,3447.9,3438.2,2125.0,1566.5,1346.7,3443.1,1328.7,1815.8,3433.4,3446.7,703.6,1274.7,959.4,593.9,1436.9,2074.5,3443.1,3445.5,737.3,973.1,1412.2,1755.0,1588.9,1075.6,-4.0,-1.0,-4.0,9339.0,11610.0,4595.0,5032.0,1.0,-7.0,1.0,0.0,-5.0,9.0,9744.0,8640.0,7146.0,6912.0,3.0,1.0,-1.0,1.0
2022-05-03 16:55:59.497840-07:00,2497.2,683.1,1671.0,1878.1,1139.2,1325.0,1533.8,1776.2,3454.0,3446.7,2122.0,1566.5,1339.5,3443.1,1328.7,1815.8,3433.4,3446.7,703.6,1277.4,959.4,596.3,1441.5,2086.6,3443.1,3445.5,737.3,967.9,1412.2,1750.2,1594.6,1080.8,1.0,5.0,-1.0,9340.0,11611.0,4587.0,5034.0,-4.0,4.0,21.0,0.0,-5.0,0.0,9744.0,8640.0,7146.0,6912.0,1.0,-9.0,8.0,1.0
2022-05-03 16:55:59.557996-07:00,2497.2,683.1,1671.0,1875.2,1139.2,1320.5,1527.3,1780.1,3454.0,3446.7,2122.0,1570.2,1339.5,3447.9,1326.8,1817.8,3446.7,3433.4,694.6,1277.4,956.0,596.3,1441.5,2086.6,3449.1,3435.8,732.3,967.9,1407.6,1750.2,1594.6,1080.8,-2.0,-2.0,0.0,9339.0,11611.0,4587.0,5035.0,-2.0,-8.0,-9.0,0.0,-7.0,9.0,9744.0,8640.0,7146.0,6912.0,-5.0,-8.0,-3.0,1.0
2022-05-03 16:55:59.588991-07:00,2486.6,676.6,1669.1,1875.2,1141.9,1320.5,1527.3,1780.1,3450.4,3441.9,2117.9,1570.2,1343.1,3447.9,1326.8,1817.8,3446.7,3433.4,694.6,1273.9,956.0,590.7,1435.0,2079.5,3449.1,3435.8,732.3,973.9,1407.6,1749.3,1587.1,1077.3,-3.0,-2.0,2.0,9342.0,11609.0,4582.0,5039.0,-4.0,4.0,19.0,-1.0,-6.0,7.0,9746.0,8639.0,7145.0,6912.0,6.0,2.0,7.0,1.0
2022-05-03 16:55:59.647818-07:00,2486.6,676.6,1669.1,1890.9,1137.5,1326.8,1523.6,1775.2,3450.4,3441.9,2117.9,1569.3,1341.3,3449.1,1325.0,1817.8,3450.4,3444.3,698.7,1276.5,961.1,590.7,1435.0,2079.5,3456.4,3443.1,734.0,969.6,1403.0,1749.3,1587.1,1077.3,1.0,0.0,-1.0,9341.0,11611.0,4581.0,5039.0,0.0,6.0,-10.0,0.0,-2.0,3.0,9745.0,8640.0,7146.0,6911.0,-1.0,6.0,-3.0,1.0
2022-05-03 16:55:59.678370-07:00,2485.5,675.8,1661.5,1873.2,1137.5,1326.8,1523.6,1775.2,3449.1,3451.6,2105.8,1569.3,1341.3,3449.1,1325.0,1817.8,3450.4,3444.3,698.7,1276.5,962.0,593.9,1436.9,2077.5,3456.4,3443.1,734.0,969.6,1412.2,1750.2,1583.3,1080.8,-7.0,-6.0,-3.0,9342.0,11607.0,4584.0,5044.0,-1.0,3.0,12.0,0.0,-4.0,11.0,9746.0,8638.0,7144.0,6913.0,6.0,1.0,2.0,1.0
2022-05-03 16:55:59.737980-07:00,2485.5,675.8,1661.5,1873.2,1142.7,1328.7,1525.5,1768.5,3449.1,3451.6,2105.8,1569.3,1344.0,3446.7,1327.8,1816.8,3444.3,3450.4,706.0,1274.7,962.0,593.9,1436.9,2077.5,3447.9,3446.7,734.8,973.9,1412.2,1750.2,1583.3,1080.8,-5.0,4.0,-2.0,9340.0,11609.0,4579.0,5047.0,1.0,-9.0,12.0,0.0,-3.0,5.0,9746.0,8639.0,7145.0,6912.0,-2.0,-6.0,1.0,1.0
2022-05-03 16:55:59.797841-07:00,2478.1,680.7,1660.6,1869.3,1142.7,1328.7,1525.5,1768.5,3447.9,3441.9,2108.8,1566.5,1344.0,3446.7,1327.8,1816.8,3444.3,3450.4,706.0,1274.7,960.2,593.9,1432.3,2073.5,3447.9,3446.7,734.8,973.9,1403.0,1749.3,1585.2,1080.8,-1.0,-7.0,-1.0,9344.0,11608.0,4572.0,5048.0,-13.0,-8.0,14.0,0.0,-10.0,6.0,9747.0,8639.0,7143.0,6912.0,-8.0,-12.0,3.0,1.0
2022-05-03 16:55:59.828412-07:00,2478.1,680.7,1660.6,1869.3,1137.5,1326.8,1531.0,1791.6,3447.9,3441.9,2108.8,1566.5,1343.1,3445.5,1327.8,1810.0,3444.3,3440.7,697.0,1278.3,960.2,593.9,1432.3,2073.5,3443.1,3449.1,729.9,973.1,1403.0,1749.3,1585.2,1080.8,-3.0,3.0,1.0,9347.0,11610.0,4562.0,5047.0,2.0,-21.0,13.0,3.0,-3.0,3.0,9747.0,8640.0,7143.0,6911.0,12.0,-4.0,-5.0,1.0
2022-05-03 16:55:59.948431-07:00,2477.0,673.3,1655.8,1865.4,1137.5,1326.8,1531.0,1769.5,3438.2,3454.0,2112.8,1569.3,1343.1,3445.5,1327.8,1812.9,3443.1,3440.7,697.0,1278.3,958.5,594.7,1441.5,2072.5,3443.1,3449.1,729.9,973.1,1410.3,1735.8,1582.4,1080.8,-6.0,0.0,-1.0,9346.0,11612.0,4560.0,5044.0,-2.0,-5.0,-4.0,2.0,-6.0,9.0,9746.0,8641.0,7143.0,6910.0,-3.0,1.0,0.0,1.0
2022-05-03 16:55:59.949894-07:00,2467.4,673.3,1655.8,1865.4,1137.5,1323.2,1528.3,1769.5,3449.1,3454.0,2112.8,1569.3,1346.7,3451.6,1324.1,1812.9,3443.1,3441.9,697.0,1280.1,958.5,594.7,1441.5,2069.5,3443.1,3445.5,733.2,973.9,1410.3,1735.8,1582.4,1077.3,-3.0,-1.0,1.0,9346.0,11613.0,4560.0,5043.0,15.0,-9.0,4.0,0.0,-8.0,6.0,9744.0,8643.0,7145.0,6909.0,19.0,1.0,-3.0,1.0
2022-05-03 16:56:00.007928-07:00,2467.4,673.3,1654.9,1868.4,1137.5,1323.2,1528.3,1768.5,3449.1,3449.1,2096.7,1565.5,1346.7,3451.6,1324.1,1806.1,3438.2,3441.9,697.0,1280.1,954.3,595.5,1430.5,2069.5,3444.3,3445.5,733.2,973.9,1397.6,1738.7,1583.3,1077.3,-10.0,5.0,7.0,9343.0,11614.0,4562.0,5043.0,-7.0,20.0,-11.0,-3.0,-5.0,11.0,9743.0,8644.0,7146.0,6908.0,-3.0,-5.0,-6.0,1.0
2022-05-03 16:56:00.067849-07:00,2477.0,673.3,1654.9,1868.4,1142.7,1325.0,1528.3,1768.5,3452.8,3449.1,2096.7,1565.5,1340.4,3449.1,1324.1,1806.1,3438.2,3444.3,697.0,1278.3,954.3,595.5,1430.5,2074.5,3444.3,3446.7,735.6,970.5,1397.6,1738.7,1583.3,1080.8,-17.0,36.0,55.0,9343.0,11602.0,4582.0,5056.0,-20.0,143.0,-38.0,6.0,-2.0,8.0,9744.0,8642.0,7147.0,6908.0,-5.0,15.0,-19.0,1.0
2022-05-03 16:56:00.069147-07:00,2477.0,670.1,1746.4,1885.0,1142.7,1325.0,1528.3,1773.3,3452.8,3447.9,2115.9,1568.3,1340.4,3449.1,1324.1,1832.3,3445.5,3444.3,697.0,1278.3,962.0,594.7,1436.9,2074.5,3454.0,3446.7,735.6,970.5,1383.0,1759.8,1615.2,1080.8,-8.0,-31.0,-48.0,9356.0,11590.0,4577.0,5061.0,-40.0,-107.0,28.0,-6.0,-11.0,0.0,9736.0,8641.0,7167.0,6901.0,29.0,4.0,-14.0,1.0
2022-05-03 16:56:00.128618-07:00,2485.5,670.1,1746.4,1885.0,1141.9,1325.0,1526.4,1773.3,3445.5,3447.9,2115.9,1568.3,1340.4,3443.1,1485.6,1832.3,3445.5,3445.5,701.9,1270.3,962.0,594.7,1436.9,2076.5,3454.0,3444.3,744.7,978.2,1383.0,1759.8,1615.2,1079.9,-26.0,13.0,0.0,9391.0,11620.0,4478.0,5019.0,-84.0,-268.0,133.0,-13.0,6.0,0.0,9739.0,8646.0,7164.0,6892.0,-22.0,-64.0,8.0,1.0
2022-05-03 16:56:00.189090-07:00,2485.5,675.0,1901.6,1910.5,1141.9,1325.0,1525.5,1770.4,3445.5,3450.4,2226.0,1586.1,1340.4,3443.1,1613.4,1865.4,3447.9,3438.2,701.9,1270.3,955.1,595.5,1447.0,2076.5,3454.0,3454.0,744.7,978.2,1400.3,1823.6,1730.1,1079.9,40.0,33.0,-7.0,9477.0,11632.0,4331.0,4954.0,-212.0,-425.0,35.0,2.0,12.0,-18.0,9763.0,8644.0,7141.0,6885.0,-62.0,-59.0,-35.0,1.0
2022-05-03 16:56:00.247857-07:00,2536.8,672.5,1901.6,1910.5,1153.3,1325.0,1525.5,1770.4,3449.1,3452.8,2226.0,1586.1,1351.2,3445.5,1613.4,1865.4,3447.9,3438.2,702.8,1270.3,955.1,595.5,1450.6,2093.7,3454.0,3454.0,748.0,977.3,1400.3,1823.6,1776.2,1077.3,-8.0,-36.0,35.0,9581.0,11573.0,4288.0,4932.0,-249.0,15.0,-73.0,-2.0,-18.0,28.0,9804.0,8619.0,7113.0,6887.0,-90.0,-18.0,-12.0,1.0
2022-05-03 16:56:00.307969-07:00,2536.8,672.5,1966.7,1919.3,1153.3,1325.0,1523.6,1769.5,3449.1,3452.8,2343.1,1604.0,1351.2,3445.5,1623.7,1870.3,3447.9,3445.5,702.8,1270.3,959.4,593.9,1450.6,2093.7,3447.9,3449.1,748.0,977.3,1397.6,1862.5,1776.2,1077.3,-9.0,-14.0,32.0,9602.0,11544.0,4291.0,4957.0,10.0,106.0,49.0,-5.0,-6.0,21.0,9807.0,8613.0,7112.0,6890.0,38.0,14.0,13.0,1.0
2022-05-03 16:56:00.457964-07:00,2533.6,673.3,1966.7,1919.3,1154.2,1325.0,1523.6,1769.5,3437.0,3450.4,2343.1,1604.0,1364.8,3450.4,1623.7,1870.3,3447.9,3445.5,698.7,1280.1,959.4,593.9,1453.4,2095.7,3447.9,3449.1,746.3,961.1,1397.6,1862.5,1807.1,1072.9,2.0,9.0,13.0,9587.0,11522.0,4300.0,5029.0,-82.0,186.0,72.0,8.0,-8.0,15.0,9794.0,8617.0,7119.0,6897.0,25.0,52.0,9.0,1.0
2022-05-03 16:56:00.459512-07:00,2533.6,673.3,2014.4,1936.1,1154.2,1325.0,1529.2,1757.0,3437.0,3450.4,2416.6,1619.0,1364.8,3450.4,1688.1,1900.7,3437.0,3437.0,698.7,1280.1,956.0,595.5,1453.4,2095.7,3450.4,3446.7,746.3,961.1,1393.9,1893.8,1807.1,1072.9,-22.0,6.0,-9.0,9586.0,11492.0,4319.0,5082.0,-24.0,79.0,12.0,-6.0,-4.0,3.0,9776.0,8616.0,7143.0,6901.0,72.0,67.0,-23.0,1.0
2022-05-03 16:56:00.460474-07:00,2543.3,673.3,2083.6,1936.1,1162.1,1336.8,1529.2,1757.0,3444.3,3445.5,2450.4,1619.0,1374.8,3443.1,1688.1,1900.7,3437.0,3437.0,701.9,1277.4,956.0,598.7,1457.1,2099.7,3450.4,3446.7,744.7,954.3,1393.9,1963.7,1875.2,1079.9,-22.0,-2.0,-24.0,9595.0,11483.0,4310.0,5093.0,-97.0,-15.0,45.0,-10.0,-3.0,0.0,9753.0,8619.0,7173.0,6897.0,33.0,34.0,-8.0,1.0
2022-05-03 16:56:00.548189-07:00,2543.3,673.3,2083.6,1974.6,1162.1,1346.7,1528.3,1773.3,3444.3,3445.5,2450.4,1636.9,1374.8,3438.2,1745.4,1965.7,3446.7,3443.1,706.0,1277.4,958.5,598.7,1457.1,2099.7,3447.9,3450.4,750.5,954.3,1400.3,1963.7,1875.2,1079.9,-8.0,-7.0,-7.0,9646.0,11470.0,4230.0,5094.0,-187.0,-225.0,145.0,3.0,-10.0,1.0,9746.0,8620.0,7181.0,6898.0,27.0,-3.0,-1.0,1.0
2022-05-03 16:56:00.549486-07:00,2633.0,674.2,2143.3,1974.6,1165.6,1346.7,1528.3,1773.3,3440.7,3438.2,2475.9,1636.9,1383.0,3438.2,1745.4,1965.7,3446.7,3443.1,706.0,1280.1,958.5,597.1,1465.4,2124.0,3447.9,3450.4,750.5,956.8,1400.3,2021.4,1930.2,1078.2,10.0,0.0,14.0,9708.0,11464.0,4111.0,5086.0,-218.0,-152.0,129.0,0.0,-10.0,-4.0,9744.0,8629.0,7181.0,6890.0,-15.0,-31.0,5.0,1.0
2022-05-03 16:56:00.607722-07:00,2633.0,674.2,2143.3,2041.4,1165.6,1352.1,1527.3,1776.2,3440.7,3438.2,2475.9,1662.5,1383.0,3446.7,1744.5,2001.5,3454.0,3432.2,703.6,1280.1,955.1,597.1,1465.4,2124.0,3444.3,3443.1,753.8,956.8,1396.7,2021.4,1930.2,1078.2,-11.0,-8.0,-9.0,9774.0,11453.0,3982.0,5088.0,-196.0,-239.0,172.0,0.0,-10.0,14.0,9753.0,8630.0,7167.0,6888.0,-11.0,-39.0,11.0,1.0
2022-05-03 16:56:00.667580-07:00,2721.6,673.3,2160.5,2041.4,1175.3,1352.1,1527.3,1776.2,3437.0,3450.4,2496.2,1662.5,1380.3,3446.7,1744.5,2001.5,3454.0,3432.2,703.6,1279.2,955.1,599.6,1454.3,2126.0,3444.3,3443.1,753.8,945.8,1396.7,2050.4,1945.9,1077.3,13.0,-9.0,2.0,9814.0,11449.0,3887.0,5094.0,-172.0,-82.0,152.0,-3.0,-5.0,10.0,9761.0,8637.0,7151.0,6888.0,16.0,-27.0,10.0,1.0
2022-05-03 16:56:00.668652-07:00,2721.6,673.3,2160.5,2066.5,1175.3,1355.8,1547.8,1790.7,3437.0,3450.4,2496.2,1690.0,1380.3,3443.1,1723.4,2025.4,3440.7,3454.0,707.7,1279.2,961.1,599.6,1454.3,2126.0,3446.7,3441.9,758.7,945.8,1403.0,2050.4,1945.9,1077.3,-6.0,1.0,-1.0,9847.0,11437.0,3804.0,5118.0,-61.0,-166.0,116.0,2.0,-20.0,21.0,9757.0,8644.0,7150.0,6884.0,73.0,17.0,-20.0,1.0
2022-05-03 16:56:00.758069-07:00,2799.0,674.2,2158.5,2089.6,1188.5,1355.8,1547.8,1790.7,3458.9,3438.2,2500.4,1716.7,1382.1,3443.1,1723.4,2025.4,3440.7,3454.0,707.7,1286.4,957.7,598.7,1459.8,2156.5,3446.7,3441.9,758.7,937.3,1402.1,2065.5,1947.9,1083.4,-14.0,-2.0,-1.0,9859.0,11460.0,3739.0,5093.0,-38.0,-134.0,63.0,-5.0,-1.0,7.0,9744.0,8653.0,7173.0,6868.0,69.0,17.0,-22.0,1.0
2022-05-03 16:56:00.817764-07:00,2799.0,674.2,2158.5,2089.6,1211.5,1359.4,1551.5,1797.4,3458.9,3438.2,2500.4,1716.7,1393.9,3447.9,1709.1,2024.4,3440.7,3439.5,702.8,1282.8,957.7,598.7,1459.8,2156.5,3443.1,3447.9,761.2,928.8,1402.1,2065.5,1947.9,1083.4,-7.0,-6.0,-7.0,9873.0,11481.0,3674.0,5064.0,-7.0,-165.0,85.0,-4.0,0.0,-7.0,9728.0,8669.0,7196.0,6846.0,140.0,-5.0,-28.0,1.0
2022-05-03 16:56:00.818943-07:00,2811.3,701.9,2081.6,2078.5,1211.5,1359.4,1551.5,1797.4,3435.8,3445.5,2488.7,1741.6,1393.9,3447.9,1709.1,2024.4,3440.7,3439.5,702.8,1282.8,956.8,599.6,1451.6,2172.8,3443.1,3447.9,761.2,928.8,1425.0,2058.4,1934.1,1076.4,4.0,21.0,-5.0,9857.0,11532.0,3613.0,5025.0,128.0,-172.0,46.0,-2.0,0.0,5.0,9690.0,8712.0,7242.0,6797.0,182.0,-19.0,-51.0,1.0
2022-05-03 16:56:00.938359-07:00,2811.3,701.9,2081.6,2078.5,1243.5,1356.7,1563.7,1805.2,3435.8,3445.5,2488.7,1741.6,1396.7,3443.1,1690.0,2029.4,3449.1,3443.1,698.7,1281.9,956.8,599.6,1451.6,2172.8,3447.9,3451.6,764.5,934.7,1425.0,2058.4,1934.1,1076.4,-1.0,13.0,3.0,9852.0,11559.0,3588.0,4988.0,-75.0,-33.0,-46.0,-5.0,3.0,13.0,9680.0,8732.0,7264.0,6762.0,-20.0,-27.0,-32.0,1.0
2022-05-03 16:56:00.939797-07:00,2780.1,717.5,2070.5,2094.7,1243.5,1356.7,1563.7,1805.2,3433.4,3446.7,2489.8,1740.6,1396.7,3443.1,1690.0,2029.4,3449.1,3443.1,698.7,1281.9,956.8,597.9,1461.7,2210.6,3447.9,3451.6,764.5,934.7,1442.4,2035.4,1904.6,1079.9,-4.0,-15.0,11.0,9881.0,11545.0,3577.0,4970.0,-1.0,-52.0,-31.0,1.0,-12.0,8.0,9689.0,8731.0,7266.0,6748.0,48.0,-15.0,-23.0,1.0
2022-05-03 16:56:00.997889-07:00,2745.8,717.5,2070.5,2094.7,1264.9,1357.6,1563.7,1804.2,3446.7,3446.7,2489.8,1740.6,1395.7,3443.1,1666.3,2027.4,3440.7,3441.9,700.3,1287.3,956.8,597.9,1461.7,2217.8,3455.2,3445.5,765.3,931.3,1442.4,2035.4,1904.6,1083.4,1.0,2.0,1.0,9889.0,11546.0,3572.0,4958.0,-25.0,-29.0,4.0,4.0,-8.0,11.0,9687.0,8737.0,7271.0,6738.0,22.0,-10.0,-12.0,1.0
2022-05-03 16:56:01.058000-07:00,2745.8,717.5,2050.4,2087.6,1264.9,1357.6,1563.7,1803.2,3446.7,3449.1,2479.1,1748.3,1395.7,3443.1,1666.3,2014.4,3451.6,3441.9,700.3,1287.3,952.6,597.9,1470.9,2217.8,3449.1,3445.5,765.3,931.3,1451.6,2018.4,1897.7,1083.4,4.0,8.0,10.0,9896.0,11544.0,3566.0,4952.0,-18.0,10.0,-37.0,-4.0,-8.0,2.0,9685.0,8740.0,7275.0,6732.0,-10.0,-6.0,-14.0,1.0
2022-05-03 16:56:01.117845-07:00,2701.8,717.5,2050.4,2087.6,1281.9,1357.6,1571.1,1803.2,3451.6,3449.1,2479.1,1748.3,1408.5,3440.7,1653.0,2014.4,3451.6,3447.9,703.6,1278.3,952.6,597.9,1470.9,2216.8,3449.1,3445.5,760.4,923.7,1451.6,2018.4,1897.7,1086.0,-7.0,-4.0,0.0,9907.0,11530.0,3579.0,4954.0,-10.0,5.0,-16.0,-2.0,-14.0,9.0,9690.0,8735.0,7274.0,6732.0,13.0,4.0,-14.0,1.0
2022-05-03 16:56:01.177921-07:00,2701.8,714.2,2022.4,2070.5,1281.9,1357.6,1571.1,1799.4,3451.6,3441.9,2453.6,1737.8,1408.5,3440.7,1653.0,2005.5,3440.7,3447.9,703.6,1278.3,956.8,597.9,1459.8,2216.8,3454.0,3445.5,760.4,923.7,1446.0,2005.5,1882.0,1086.0,-8.0,0.0,-4.0,9909.0,11526.0,3587.0,4953.0,-28.0,21.0,-12.0,-6.0,-8.0,6.0,9689.0,8736.0,7278.0,6727.0,-8.0,-6.0,4.0,1.0
2022-05-03 16:56:01.179143-07:00,2677.7,714.2,2022.4,2070.5,1290.9,1355.8,1574.9,1799.4,3454.0,3441.9,2453.6,1737.8,1400.3,3449.1,1652.0,2005.5,3440.7,3447.9,704.4,1281.0,956.8,597.9,1459.8,2215.7,3454.0,3451.6,762.0,926.2,1446.0,2005.5,1882.0,1085.1,0.0,0.0,-2.0,9920.0,11514.0,3586.0,4959.0,-30.0,1.0,0.0,1.0,-7.0,1.0,9695.0,8732.0,7273.0,6730.0,-17.0,-12.0,5.0,1.0
2022-05-03 16:56:01.238826-07:00,2677.7,705.2,1992.5,2056.4,1290.9,1355.8,1574.9,1798.4,3454.0,3445.5,2435.6,1734.9,1400.3,3449.1,1652.0,2000.5,3446.7,3447.9,704.4,1281.0,956.0,594.7,1455.2,2215.7,3445.5,3451.6,762.0,926.2,1443.3,2004.5,1883.0,1085.1,-5.0,3.0,6.0,9923.0,11511.0,3585.0,4960.0,-16.0,3.0,-13.0,0.0,-6.0,5.0,9700.0,8731.0,7268.0,6729.0,-20.0,-11.0,3.0,1.0
2022-05-03 16:56:01.297909-07:00,2635.1,707.7,1992.5,2056.4,1281.0,1348.5,1566.5,1798.4,3441.9,3446.7,2435.6,1734.9,1396.7,3447.9,1640.7,2000.5,3446.7,3441.9,704.4,1278.3,956.0,594.7,1453.4,2200.4,3445.5,3458.9,761.2,924.5,1443.3,2004.5,1869.3,1085.1,-7.0,2.0,2.0,9933.0,11503.0,3585.0,4961.0,-15.0,5.0,5.0,2.0,-4.0,6.0,9707.0,8725.0,7262.0,6735.0,-9.0,-2.0,8.0,1.0
2022-05-03 16:56:01.477684-07:00,2635.1,707.7,1987.5,2053.4,1281.0,1348.5,1565.5,1811.0,3441.9,3446.7,2427.1,1740.6,1396.7,3447.9,1631.3,1994.5,3440.7,3439.5,704.4,1278.3,953.4,596.3,1453.4,2200.4,3449.1,3451.6,761.2,924.5,1436.9,1999.5,1869.3,1085.1,2.0,0.0,3.0,9933.0,11505.0,3580.0,4958.0,5.0,-15.0,-2.0,2.0,-10.0,1.0,9707.0,8724.0,7262.0,6735.0,8.0,8.0,-5.0,1.0
2022-05-03 16:56:01.538995-07:00,2635.1,700.3,1987.5,2053.4,1280.1,1354.0,1565.5,1811.0,3439.5,3447.9,2427.1,1740.6,1393.0,3447.9,1631.3,1994.5,3440.7,3439.5,703.6,1283.7,953.4,596.3,1454.3,2189.1,3449.1,3451.6,762.9,915.2,1436.9,1999.5,1863.5,1084.2,-3.0,-5.0,4.0,9932.0,11505.0,3584.0,4958.0,3.0,9.0,1.0,2.0,-10.0,10.0,9706.0,8724.0,7263.0,6736.0,4.0,3.0,3.0,1.0
2022-05-03 16:56:01.540994-07:00,2635.1,700.3,1983.6,2046.4,1280.1,1354.0,1562.7,1779.1,3439.5,3447.9,2421.9,1729.1,1393.0,3447.9,1627.5,1981.6,3445.5,3444.3,703.6,1283.7,960.2,596.3,1454.3,2189.1,3449.1,3445.5,762.9,915.2,1426.8,2007.4,1863.5,1084.2,-9.0,8.0,1.0,9927.0,11508.0,3588.0,4959.0,18.0,19.0,-1.0,-2.0,0.0,14.0,9703.0,8724.0,7266.0,6736.0,15.0,16.0,1.0,1.0
2022-05-03 16:56:01.542153-07:00,2630.8,701.9,1983.6,2046.4,1279.2,1345.8,1562.7,1779.1,3443.1,3438.2,2421.9,1729.1,1394.8,3443.1,1627.5,1981.6,3445.5,3444.3,706.0,1285.5,960.2,596.3,1452.5,2187.1,3449.1,3445.5,764.5,919.4,1426.8,2007.4,1870.3,1082.5,-6.0,2.0,-6.0,9923.0,11508.0,3593.0,4962.0,11.0,10.0,-8.0,-5.0,-4.0,-1.0,9699.0,8722.0,7271.0,6739.0,6.0,12.0,-5.0,1.0
2022-05-03 16:56:01.568629-07:00,2630.8,701.9,1974.6,2039.4,1279.2,1345.8,1564.6,1791.6,3443.1,3438.2,2418.7,1721.5,1394.8,3441.9,1619.9,1983.6,3437.0,3447.9,702.8,1285.5,956.0,596.3,1452.5,2187.1,3449.1,3449.1,759.6,919.4,1420.4,1981.6,1870.3,1082.5,-4.0,-6.0,-10.0,9923.0,11505.0,3604.0,4961.0,-4.0,12.0,-18.0,0.0,-4.0,4.0,9699.0,8721.0,7273.0,6738.0,-8.0,5.0,-10.0,1.0
2022-05-03 16:56:01.569623-07:00,2614.5,690.5,1965.7,2039.4,1274.7,1345.8,1564.6,1791.6,3451.6,3441.9,2409.2,1721.5,1395.7,3441.9,1619.9,1983.6,3437.0,3447.9,702.8,1284.6,956.0,597.9,1440.5,2189.1,3449.1,3449.1,759.6,916.9,1420.4,1980.6,1853.7,1088.6,1.0,-5.0,3.0,9923.0,11508.0,3599.0,4957.0,6.0,-34.0,14.0,4.0,-11.0,4.0,9701.0,8722.0,7271.0,6737.0,6.0,-17.0,2.0,1.0
2022-05-03 16:56:01.658545-07:00,2614.5,690.5,1965.7,2035.4,1274.7,1348.5,1554.3,1789.7,3451.6,3441.9,2409.2,1723.4,1395.7,3450.4,1607.7,1979.6,3440.7,3438.2,703.6,1284.6,951.7,597.9,1440.5,2189.1,3440.7,3444.3,762.0,916.9,1422.2,1980.6,1853.7,1088.6,-13.0,13.0,7.0,9924.0,11511.0,3591.0,4956.0,5.0,-5.0,14.0,-8.0,-1.0,15.0,9703.0,8722.0,7269.0,6736.0,3.0,2.0,0.0,1.0
2022-05-03 16:56:01.688043-07:00,2596.1,695.4,1965.7,2035.4,1281.9,1348.5,1554.3,1789.7,3439.5,3444.3,2401.8,1723.4,1396.7,3450.4,1607.7,1979.6,3440.7,3438.2,703.6,1283.7,951.7,602.0,1443.3,2175.8,3440.7,3444.3,762.0,919.4,1422.2,1977.6,1855.7,1091.2,-6.0,0.0,11.0,9926.0,11512.0,3589.0,4951.0,10.0,-19.0,-8.0,-8.0,-11.0,10.0,9706.0,8720.0,7271.0,6733.0,15.0,5.0,-16.0,1.0
2022-05-03 16:56:01.927865-07:00,2596.1,695.4,1965.7,2037.4,1281.9,1345.8,1556.2,1787.8,3439.5,3444.3,2401.8,1723.4,1396.7,3438.2,1609.6,1976.6,3451.6,3441.9,701.9,1283.7,959.4,602.0,1443.3,2175.8,3456.4,3443.1,761.2,919.4,1414.9,1977.6,1855.7,1091.2,4.0,-7.0,5.0,9919.0,11515.0,3595.0,4953.0,20.0,28.0,-4.0,8.0,-7.0,4.0,9700.0,8721.0,7278.0,6732.0,10.0,15.0,5.0,1.0
