Time,P0,P1,P2,P3,P4,P5,P6,P7,P8,P9,P10,P11,P12,P13,P14,P15,P16,P17,P18,P19,P20,P21,P22,P23,P24,P25,P26,P27,P28,P29,P30,P31,ECG,AX0,AY0,AZ0,QW0,QX0,QY0,QZ0,GX0,GY0,GZ0,AX1,AY1,AZ1,QW1,QX1,QY1,QZ1,GX1,GY1,GZ1
2022-05-03 17:08:45.572824-07:00,1189.4,723.3,1043.5,983.3,942.4,857.0,1767.5,1248.8,3479.5,3481.9,1149.8,873.0,1515.3,3474.6,1419.5,1257.8,3483.2,3477.1,867.1,1246.2,1538.5,2268.3,1416.7,3058.1,3480.7,3478.3,693.8,962.8,1748.3,1018.5,933.0,933.0,-1.0,7.0,21.0,7539.0,-7470.0,10389.0,-6918.0,-140.0,242.0,66.0,18.0,-24.0,29.0,8237.0,-13240.0,4492.0,-2263.0,-139.0,-23.0,-2.0,1.0
2022-05-03 17:08:45.660275-07:00,1177.0,714.2,1027.1,983.3,941.5,857.0,1767.5,1248.8,3473.4,3478.3,1156.8,873.0,1514.3,3474.6,1419.5,1257.8,3483.2,3477.1,867.1,1245.3,1538.5,2266.2,1429.5,3077.7,3480.7,3478.3,693.8,935.6,1748.3,1014.2,922.8,920.3,6.0,19.0,1.0,7514.0,-7431.0,10417.0,-6946.0,89.0,122.0,19.0,2.0,-1.0,0.0,8246.0,-13234.0,4490.0,-2266.0,51.0,-2.0,0.0,1.0
2022-05-03 17:08:45.720840-07:00,1177.0,714.2,1027.1,979.0,941.5,855.3,1768.5,1243.5,3473.4,3478.3,1156.8,872.1,1514.3,3474.6,1406.7,1260.4,3480.7,3473.4,870.5,1245.3,1546.9,2266.2,1429.5,3077.7,3477.1,3479.5,686.4,935.6,1744.5,1014.2,922.8,920.3,21.0,0.0,15.0,7498.0,-7409.0,10427.0,-6970.0,48.0,84.0,-1.0,4.0,-5.0,9.0,8245.0,-13234.0,4495.0,-2264.0,1.0,0.0,23.0,1.0
2022-05-03 17:08:45.721873-07:00,1181.5,706.0,1027.1,979.0,932.2,855.3,1768.5,1243.5,3467.4,3472.2,1154.2,872.1,1517.1,3474.6,1406.7,1260.4,3480.7,3473.4,870.5,1245.3,1546.9,2256.9,1436.0,3074.3,3477.1,3479.5,686.4,931.3,1744.5,1018.5,922.0,929.6,15.0,19.0,-11.0,7491.0,-7381.0,10423.0,-7016.0,38.0,48.0,-36.0,6.0,0.0,-2.0,8257.0,-13225.0,4496.0,-2268.0,13.0,5.0,2.0,1.0
2022-05-03 17:08:45.781311-07:00,1181.5,706.0,1027.1,979.9,932.2,855.3,1766.6,1246.2,3467.4,3472.2,1154.2,875.5,1517.1,3474.6,1400.3,1257.8,3478.3,3477.1,865.4,1245.3,1545.0,2256.9,1436.0,3074.3,3485.6,3473.4,685.6,931.3,1743.5,1018.5,922.0,929.6,5.0,8.0,-4.0,7471.0,-7375.0,10439.0,-7018.0,-46.0,44.0,37.0,3.0,-1.0,0.0,8245.0,-13232.0,4498.0,-2264.0,-13.0,-6.0,4.0,1.0
2022-05-03 17:08:45.960674-07:00,1182.3,711.8,1035.7,976.5,939.8,855.3,1766.6,1246.2,3479.5,3481.9,1151.5,876.4,1508.8,3474.6,1400.3,1257.8,3478.3,3477.1,865.4,1246.2,1546.9,2289.0,1426.8,3068.5,3485.6,3473.4,685.6,914.4,1746.4,1014.2,922.8,922.0,0.0,21.0,2.0,7461.0,-7375.0,10457.0,-7001.0,-40.0,-15.0,4.0,6.0,-4.0,0.0,8235.0,-13239.0,4500.0,-2261.0,-26.0,-2.0,-2.0,1.0
2022-05-03 17:08:45.961697-07:00,1182.3,711.8,1035.7,976.5,937.3,851.1,1770.4,1243.5,3479.5,3481.9,1151.5,876.4,1508.8,3485.6,1396.7,1251.5,3484.4,3488.0,862.9,1239.9,1546.9,2289.0,1426.8,3068.5,3489.2,3484.4,688.9,912.7,1746.4,1014.2,922.8,922.0,3.0,-6.0,11.0,7448.0,-7394.0,10464.0,-6984.0,-62.0,17.0,-7.0,5.0,-14.0,9.0,8219.0,-13250.0,4498.0,-2254.0,-66.0,-10.0,-4.0,1.0
2022-05-03 17:08:45.962290-07:00,1188.5,708.5,1030.6,978.2,937.3,851.1,1770.4,1243.5,3483.2,3478.3,1153.3,871.3,1508.8,3485.6,1396.7,1251.5,3484.4,3488.0,862.9,1239.9,1541.3,2262.1,1412.2,3069.7,3489.2,3484.4,688.9,912.7,1745.4,1021.9,918.6,925.4,14.0,11.0,12.0,7452.0,-7397.0,10460.0,-6984.0,21.0,-6.0,-13.0,7.0,-9.0,9.0,8215.0,-13253.0,4499.0,-2253.0,8.0,-5.0,2.0,1.0
2022-05-03 17:08:46.199807-07:00,1188.5,708.5,1030.6,978.2,940.7,838.6,1761.8,1238.2,3483.2,3478.3,1153.3,871.3,1511.5,3473.4,1400.3,1246.2,3488.0,3483.2,862.1,1243.5,1541.3,2262.1,1412.2,3069.7,3478.3,3480.7,682.3,909.3,1745.4,1021.9,918.6,925.4,9.0,12.0,-2.0,7453.0,-7410.0,10447.0,-6989.0,-31.0,-45.0,-43.0,4.0,-1.0,0.0,8212.0,-13255.0,4499.0,-2252.0,-29.0,6.0,0.0,1.0
2022-05-03 17:08:46.200777-07:00,1177.9,710.1,1034.0,975.6,940.7,838.6,1761.8,1238.2,3475.9,3474.6,1155.9,872.1,1511.5,3473.4,1400.3,1246.2,3488.0,3483.2,862.1,1243.5,1545.0,2263.1,1400.3,3072.0,3478.3,3480.7,682.3,909.3,1744.5,1012.5,920.3,933.0,5.0,-19.0,4.0,7444.0,-7437.0,10451.0,-6964.0,-46.0,-37.0,1.0,6.0,-18.0,5.0,8185.0,-13271.0,4505.0,-2242.0,-73.0,-5.0,8.0,1.0
2022-05-03 17:08:46.201963-07:00,1177.9,710.1,1034.0,975.6,948.3,844.4,1763.7,1242.6,3475.9,3474.6,1155.9,872.1,1506.9,3479.5,1404.0,1252.4,3480.7,3480.7,861.2,1245.3,1545.0,2263.1,1400.3,3072.0,3481.9,3480.7,682.3,901.7,1744.5,1012.5,920.3,933.0,2.0,19.0,-9.0,7463.0,-7449.0,10436.0,-6953.0,-29.0,-98.0,-27.0,3.0,0.0,2.0,8187.0,-13270.0,4504.0,-2243.0,-12.0,-4.0,-3.0,1.0
2022-05-03 17:08:46.203626-07:00,1181.5,715.1,1028.8,973.1,948.3,844.4,1763.7,1245.3,3477.1,3478.3,1154.2,873.0,1506.9,3479.5,1404.0,1245.3,3480.7,3480.7,861.2,1245.3,1544.1,2265.2,1393.0,3073.1,3483.2,3480.7,682.3,901.7,1741.6,1015.1,916.9,927.1,18.0,-14.0,19.0,7454.0,-7484.0,10440.0,-6918.0,-83.0,19.0,21.0,10.0,-12.0,1.0,8163.0,-13285.0,4507.0,-2233.0,-76.0,-16.0,-1.0,1.0
2022-05-03 17:08:46.229909-07:00,1176.2,715.1,1028.8,973.1,943.2,844.4,1791.6,1245.3,3474.6,3478.3,1154.2,873.0,1510.6,3488.0,1402.1,1245.3,3480.7,3477.1,864.6,1245.3,1544.1,2265.2,1393.0,3066.2,3483.2,3484.4,700.3,910.1,1741.6,1015.1,916.9,924.5,6.0,23.0,4.0,7459.0,-7475.0,10445.0,-6915.0,17.0,-35.0,-5.0,8.0,-7.0,11.0,8173.0,-13280.0,4503.0,-2237.0,37.0,4.0,3.0,1.0
2022-05-03 17:08:46.261698-07:00,1176.2,707.7,1029.7,981.6,937.3,837.7,1787.8,1252.4,3483.2,3478.3,1148.0,868.8,1511.5,3477.1,1396.7,1252.4,3484.4,3474.6,869.6,1243.5,1540.3,2259.0,1386.6,3069.7,3488.0,3479.5,682.3,901.7,1749.3,1016.8,923.7,927.1,-3.0,12.0,-2.0,7447.0,-7471.0,10444.0,-6933.0,48.0,-5.0,8.0,5.0,-7.0,7.0,8175.0,-13279.0,4503.0,-2238.0,32.0,3.0,10.0,1.0
2022-05-03 17:08:46.350338-07:00,1176.2,710.1,1028.8,976.5,937.3,837.7,1787.8,1243.5,3483.2,3475.9,1147.1,868.8,1511.5,3477.1,1396.7,1245.3,3481.9,3474.6,869.6,1243.5,1539.4,2263.1,1376.6,3069.7,3477.1,3479.5,682.3,901.7,1740.6,1017.6,922.8,927.1,16.0,7.0,2.0,7452.0,-7479.0,10429.0,-6942.0,30.0,-23.0,-46.0,3.0,-4.0,-2.0,8176.0,-13278.0,4502.0,-2239.0,9.0,-8.0,-10.0,1.0
2022-05-03 17:08:46.351382-07:00,1179.7,714.2,1028.8,976.5,939.0,840.3,1780.1,1243.5,3473.4,3483.2,1147.1,868.8,1495.8,3479.5,1393.0,1245.3,3481.9,3475.9,867.9,1240.8,1539.4,2263.1,1381.2,3072.0,3477.1,3472.2,688.0,902.5,1740.6,1017.6,918.6,933.0,2.0,4.0,0.0,7463.0,-7486.0,10410.0,-6952.0,37.0,-51.0,-27.0,10.0,-10.0,2.0,8184.0,-13273.0,4500.0,-2243.0,26.0,-7.0,-5.0,1.0
2022-05-03 17:08:46.440932-07:00,1179.7,714.2,1028.0,979.0,939.0,840.3,1769.5,1243.5,3473.4,3483.2,1145.4,870.5,1495.8,3479.5,1393.9,1248.0,3479.5,3472.2,867.9,1240.8,1535.7,2264.1,1381.2,3072.0,3471.0,3478.3,688.0,902.5,1747.3,1014.2,918.6,933.0,13.0,6.0,2.0,7479.0,-7499.0,10386.0,-6957.0,34.0,-48.0,-37.0,6.0,-4.0,4.0,8191.0,-13269.0,4499.0,-2246.0,18.0,-3.0,-6.0,1.0
2022-05-03 17:08:46.650441-07:00,1180.6,712.6,1028.0,979.0,942.4,837.7,1769.5,1243.5,3472.2,3475.9,1145.4,870.5,1507.8,3473.4,1393.9,1248.0,3479.5,3472.2,853.7,1245.3,1535.7,2264.1,1370.3,3076.6,3471.0,3478.3,687.2,917.7,1747.3,1014.2,919.4,921.1,4.0,2.0,8.0,7487.0,-7510.0,10370.0,-6959.0,1.0,-38.0,-10.0,5.0,-9.0,6.0,8195.0,-13266.0,4497.0,-2248.0,1.0,-2.0,0.0,1.0
2022-05-03 17:08:46.651607-07:00,1180.6,712.6,1032.3,973.9,942.4,837.7,1763.7,1231.0,3472.2,3475.9,1154.2,867.9,1507.8,3473.4,1396.7,1241.7,3471.0,3488.0,853.7,1245.3,1543.1,2263.1,1370.3,3076.6,3478.3,3483.2,687.2,917.7,1745.4,1010.8,919.4,921.1,11.0,11.0,8.0,7496.0,-7517.0,10363.0,-6954.0,-4.0,-25.0,-10.0,5.0,-8.0,4.0,8196.0,-13266.0,4496.0,-2249.0,5.0,2.0,1.0,1.0
2022-05-03 17:08:46.710196-07:00,1175.3,714.2,1032.3,973.9,943.2,838.6,1763.7,1231.0,3483.2,3471.0,1154.2,867.9,1506.0,3486.8,1396.7,1241.7,3471.0,3488.0,867.9,1242.6,1543.1,2263.1,1368.5,3078.9,3478.3,3483.2,686.4,921.1,1745.4,1010.8,922.0,930.5,10.0,5.0,4.0,7497.0,-7525.0,10357.0,-6953.0,-14.0,-14.0,-13.0,5.0,-7.0,3.0,8196.0,-13266.0,4496.0,-2250.0,-15.0,-4.0,4.0,1.0
2022-05-03 17:08:46.711218-07:00,1175.3,714.2,1032.3,972.2,943.2,836.1,1758.9,1235.5,3483.2,3471.0,1149.8,871.3,1506.0,3485.6,1394.8,1244.4,3481.9,3475.9,862.9,1242.6,1536.6,2262.1,1368.5,3078.9,3484.4,3485.6,684.8,921.1,1743.5,1012.5,922.0,930.5,10.0,5.0,8.0,7498.0,-7525.0,10355.0,-6955.0,17.0,8.0,8.0,7.0,-9.0,3.0,8195.0,-13267.0,4495.0,-2250.0,23.0,4.0,5.0,1.0
2022-05-03 17:08:46.890078-07:00,1178.8,714.2,1034.0,972.2,939.0,836.1,1758.9,1235.5,3484.4,3481.9,1145.4,871.3,1505.1,3485.6,1394.8,1244.4,3481.9,3475.9,862.9,1246.2,1536.6,2267.2,1361.2,3077.7,3484.4,3485.6,684.8,922.0,1743.5,1013.3,921.1,924.5,3.0,15.0,0.0,7498.0,-7522.0,10353.0,-6960.0,8.0,-13.0,-13.0,5.0,-5.0,6.0,8201.0,-13263.0,4494.0,-2253.0,11.0,10.0,1.0,1.0
2022-05-03 17:08:46.891141-07:00,1178.8,714.2,1034.0,978.2,939.0,840.3,1752.1,1239.1,3484.4,3481.9,1145.4,872.1,1505.1,3473.4,1389.4,1250.6,3488.0,3478.3,871.3,1246.2,1544.1,2267.2,1361.2,3077.7,3484.4,3467.4,686.4,922.0,1748.3,1013.3,921.1,924.5,11.0,0.0,6.0,7496.0,-7526.0,10352.0,-6961.0,6.0,24.0,4.0,4.0,-10.0,0.0,8199.0,-13264.0,4495.0,-2253.0,7.0,0.0,1.0,1.0
2022-05-03 17:08:46.891985-07:00,1175.3,718.4,1027.1,978.2,940.7,840.3,1752.1,1239.1,3477.1,3469.8,1146.3,872.1,1502.3,3473.4,1389.4,1250.6,3488.0,3478.3,871.3,1250.6,1544.1,2274.5,1349.4,3080.1,3484.4,3467.4,686.4,925.4,1748.3,1015.9,915.2,927.9,8.0,16.0,0.0,7502.0,-7521.0,10347.0,-6965.0,14.0,-21.0,-7.0,3.0,-4.0,5.0,8207.0,-13259.0,4493.0,-2257.0,2.0,-4.0,-2.0,1.0
2022-05-03 17:08:46.949797-07:00,1175.3,718.4,1027.1,980.7,940.7,841.9,1762.7,1239.9,3477.1,3469.8,1146.3,872.1,1502.3,3477.1,1394.8,1243.5,3483.2,3477.1,869.6,1250.6,1545.0,2274.5,1349.4,3080.1,3478.3,3488.0,687.2,925.4,1747.3,1015.9,915.2,927.9,3.0,5.0,5.0,7503.0,-7527.0,10344.0,-6963.0,-9.0,-11.0,-10.0,8.0,-9.0,7.0,8206.0,-13260.0,4492.0,-2256.0,4.0,-3.0,-2.0,1.0
2022-05-03 17:08:46.950922-07:00,1171.8,711.0,1039.2,980.7,939.0,841.9,1762.7,1239.9,3478.3,3474.6,1139.2,872.1,1499.5,3477.1,1394.8,1243.5,3483.2,3477.1,869.6,1249.7,1545.0,2263.1,1350.3,3065.1,3478.3,3488.0,687.2,918.6,1747.3,1018.5,922.8,924.5,10.0,8.0,0.0,7509.0,-7536.0,10339.0,-6955.0,-32.0,-28.0,-7.0,4.0,-6.0,1.0,8205.0,-13261.0,4492.0,-2256.0,-16.0,-3.0,0.0,1.0
2022-05-03 17:08:46.952278-07:00,1171.8,711.0,1039.2,977.3,940.7,836.1,1756.0,1240.8,3478.3,3474.6,1139.2,875.5,1495.8,3467.4,1401.2,1253.3,3477.1,3477.1,867.9,1237.3,1540.3,2263.1,1350.3,3065.1,3479.5,3488.0,684.8,932.2,1741.6,1018.5,922.8,924.5,10.0,4.0,7.0,7510.0,-7543.0,10338.0,-6947.0,3.0,-11.0,3.0,7.0,-11.0,1.0,8203.0,-13262.0,4492.0,-2256.0,16.0,-5.0,1.0,1.0
2022-05-03 17:08:46.954082-07:00,1173.5,714.2,1021.1,973.1,940.7,836.1,1756.0,1240.8,3477.1,3472.2,1140.1,866.3,1495.8,3467.4,1401.2,1253.3,3477.1,3477.1,867.9,1237.3,1546.9,2256.9,1347.6,3095.1,3479.5,3488.0,684.8,932.2,1742.6,1008.2,918.6,928.8,8.0,12.0,3.0,7513.0,-7540.0,10333.0,-6954.0,13.0,1.0,-12.0,5.0,-5.0,1.0,8208.0,-13259.0,4491.0,-2258.0,-3.0,-4.0,1.0,1.0
2022-05-03 17:08:47.070733-07:00,1173.5,714.2,1021.1,973.1,939.0,828.5,1757.0,1235.5,3477.1,3472.2,1140.1,866.3,1501.4,3467.4,1394.8,1243.5,3483.2,3492.9,861.2,1246.2,1546.9,2256.9,1347.6,3095.1,3477.1,3491.7,680.7,933.9,1742.6,1008.2,918.6,928.8,7.0,9.0,2.0,7512.0,-7539.0,10334.0,-6955.0,0.0,0.0,7.0,6.0,-7.0,3.0,8210.0,-13258.0,4490.0,-2259.0,12.0,3.0,3.0,1.0
2022-05-03 17:08:47.100952-07:00,1170.0,713.4,1024.5,972.2,939.0,828.5,1757.0,1235.5,3477.1,3483.2,1143.6,872.1,1501.4,3467.4,1394.8,1243.5,3483.2,3492.9,861.2,1246.2,1545.0,2262.1,1336.8,3093.9,3477.1,3491.7,680.7,933.9,1746.4,1016.8,918.6,927.9,8.0,11.0,-2.0,7513.0,-7541.0,10333.0,-6954.0,-16.0,-10.0,-8.0,4.0,-7.0,2.0,8212.0,-13257.0,4489.0,-2260.0,-9.0,-2.0,-1.0,1.0
2022-05-03 17:08:47.101666-07:00,1170.0,713.4,1024.5,972.2,937.3,838.6,1757.0,1239.9,3477.1,3483.2,1143.6,872.1,1506.0,3468.6,1399.4,1249.7,3478.3,3492.9,864.6,1247.1,1545.0,2262.1,1336.8,3093.9,3484.4,3488.0,686.4,937.3,1746.4,1016.8,918.6,927.9,2.0,11.0,5.0,7515.0,-7545.0,10331.0,-6949.0,-1.0,-21.0,-6.0,3.0,-7.0,11.0,8214.0,-13256.0,4488.0,-2261.0,9.0,-5.0,1.0,1.0
2022-05-03 17:08:47.160328-07:00,1170.9,712.6,1021.9,980.7,937.3,838.6,1757.0,1239.9,3474.6,3480.7,1139.2,867.1,1506.0,3468.6,1399.4,1244.4,3484.4,3492.9,864.6,1247.1,1539.4,2257.9,1337.7,3104.3,3477.1,3488.0,686.4,937.3,1739.7,1014.2,919.4,926.2,11.0,7.0,0.0,7519.0,-7559.0,10326.0,-6939.0,-49.0,-28.0,-15.0,2.0,-7.0,1.0,8210.0,-13258.0,4489.0,-2260.0,-24.0,-3.0,-5.0,1.0
2022-05-03 17:08:47.310886-07:00,1167.4,712.6,1021.9,980.7,943.2,834.4,1747.3,1239.9,3481.9,3480.7,1139.2,867.1,1502.3,3472.2,1398.5,1244.4,3484.4,3491.7,867.1,1246.2,1539.4,2257.9,1337.7,3095.1,3477.1,3484.4,684.0,951.7,1739.7,1014.2,919.4,925.4,4.0,11.0,0.0,7516.0,-7564.0,10328.0,-6934.0,28.0,-7.0,10.0,6.0,-6.0,9.0,8213.0,-13256.0,4488.0,-2261.0,35.0,2.0,2.0,1.0
2022-05-03 17:08:47.312391-07:00,1167.4,711.8,1026.3,975.6,943.2,834.4,1747.3,1227.5,3481.9,3474.6,1140.1,864.6,1502.3,3472.2,1398.5,1250.6,3477.1,3491.7,867.1,1246.2,1539.4,2265.2,1332.3,3095.1,3483.2,3484.4,684.0,951.7,1743.5,1015.9,921.1,925.4,9.0,2.0,6.0,7517.0,-7563.0,10326.0,-6936.0,-21.0,4.0,-14.0,4.0,-7.0,1.0,8211.0,-13257.0,4489.0,-2260.0,-14.0,-3.0,0.0,1.0
2022-05-03 17:08:47.313182-07:00,1170.0,711.8,1026.3,975.6,940.7,831.1,1748.3,1227.5,3479.5,3474.6,1140.1,864.6,1503.2,3481.9,1396.7,1250.6,3477.1,3481.9,862.9,1248.8,1539.4,2265.2,1332.3,3093.9,3483.2,3489.2,684.8,956.8,1743.5,1015.9,921.1,922.8,6.0,6.0,3.0,7516.0,-7561.0,10325.0,-6940.0,33.0,12.0,2.0,6.0,-7.0,2.0,8215.0,-13255.0,4488.0,-2261.0,16.0,2.0,5.0,1.0
2022-05-03 17:08:47.460133-07:00,1170.0,712.6,1026.3,977.3,940.7,831.1,1748.3,1241.7,3479.5,3467.4,1136.6,875.5,1503.2,3481.9,1396.7,1247.1,3485.6,3481.9,862.9,1248.8,1550.6,2263.1,1330.5,3093.9,3485.6,3489.2,684.8,956.8,1749.3,1010.8,917.7,922.8,14.0,5.0,5.0,7518.0,-7558.0,10323.0,-6944.0,9.0,7.0,0.0,3.0,-6.0,1.0,8216.0,-13254.0,4488.0,-2262.0,8.0,-1.0,1.0,1.0
2022-05-03 17:08:47.731142-07:00,1174.4,712.6,1026.3,977.3,946.6,832.7,1748.3,1241.7,3467.4,3467.4,1136.6,875.5,1515.3,3477.1,1395.7,1247.1,3485.6,3484.4,867.1,1247.1,1550.6,2263.1,1330.5,3090.5,3485.6,3483.2,683.1,956.0,1749.3,1010.8,917.7,927.9,11.0,11.0,-2.0,7521.0,-7554.0,10320.0,-6951.0,-8.0,-15.0,-16.0,5.0,-5.0,-1.0,8220.0,-13252.0,4487.0,-2263.0,-9.0,-2.0,-3.0,1.0
2022-05-03 17:08:47.820199-07:00,1174.4,703.6,1025.4,980.7,946.6,832.7,1753.1,1231.9,3467.4,3472.2,1137.5,867.1,1515.3,3477.1,1406.7,1247.1,3488.0,3481.9,867.1,1247.1,1544.1,2268.3,1321.4,3090.5,3485.6,3481.9,683.1,956.0,1742.6,1018.5,922.8,927.9,1.0,2.0,8.0,7517.0,-7558.0,10320.0,-6950.0,21.0,10.0,12.0,4.0,-12.0,10.0,8219.0,-13253.0,4487.0,-2262.0,17.0,-6.0,4.0,1.0
2022-05-03 17:08:47.851067-07:00,1166.5,714.2,1025.4,980.7,940.7,833.6,1753.1,1231.9,3478.3,3488.0,1137.5,867.1,1501.4,3472.2,1406.7,1247.1,3488.0,3481.9,869.6,1248.0,1544.1,2268.3,1329.6,3078.9,3485.6,3481.9,687.2,965.4,1742.6,1018.5,917.7,927.1,12.0,12.0,6.0,7519.0,-7555.0,10319.0,-6952.0,-39.0,28.0,11.0,3.0,-11.0,12.0,8221.0,-13252.0,4486.0,-2263.0,-26.0,-4.0,4.0,1.0
2022-05-03 17:08:47.970882-07:00,1166.5,714.2,1028.0,978.2,940.7,833.6,1756.0,1247.1,3478.3,3488.0,1144.5,863.7,1501.4,3472.2,1409.4,1243.5,3478.3,3486.8,869.6,1248.0,1540.3,2264.1,1329.6,3078.9,3478.3,3475.9,687.2,965.4,1744.5,1014.2,917.7,927.1,26.0,-4.0,10.0,7511.0,-7556.0,10333.0,-6939.0,10.0,56.0,47.0,0.0,-4.0,-6.0,8215.0,-13255.0,4488.0,-2260.0,7.0,-8.0,4.0,1.0
2022-05-03 17:08:47.972604-07:00,1164.7,711.8,1028.0,978.2,936.4,840.3,1756.0,1247.1,3474.6,3481.9,1144.5,863.7,1497.7,3480.7,1409.4,1243.5,3478.3,3486.8,864.6,1240.8,1540.3,2264.1,1311.5,3090.5,3478.3,3475.9,682.3,977.3,1744.5,1014.2,921.1,925.4,-2.0,26.0,-5.0,7505.0,-7512.0,10355.0,-6961.0,-17.0,72.0,59.0,6.0,-3.0,0.0,8229.0,-13246.0,4486.0,-2266.0,19.0,13.0,11.0,1.0
2022-05-03 17:08:47.973174-07:00,1164.7,711.8,1028.0,978.2,936.4,840.3,1756.0,1247.1,3474.6,3481.9,1144.5,863.7,1497.7,3480.7,1409.4,1243.5,3478.3,3486.8,864.6,1240.8,1540.3,2264.1,1311.5,3090.5,3478.3,3475.9,682.3,977.3,1744.5,1014.2,921.1,925.4,-2.0,26.0,-5.0,7505.0,-7512.0,10355.0,-6961.0,-17.0,72.0,59.0,6.0,-3.0,0.0,8229.0,-13246.0,4486.0,-2266.0,19.0,13.0,11.0,1.0
2022-05-03 17:08:47.973660-07:00,1164.7,711.8,1028.0,978.2,936.4,840.3,1756.0,1247.1,3474.6,3481.9,1144.5,863.7,1497.7,3480.7,1409.4,1243.5,3478.3,3486.8,864.6,1240.8,1540.3,2264.1,1311.5,3090.5,3478.3,3475.9,682.3,977.3,1744.5,1014.2,921.1,925.4,-2.0,26.0,-5.0,7505.0,-7512.0,10355.0,-6961.0,-17.0,72.0,59.0,6.0,-3.0,0.0,8229.0,-13246.0,4486.0,-2266.0,19.0,13.0,11.0,1.0
2022-05-03 17:08:47.974308-07:00,1166.5,716.7,1022.8,975.6,940.7,830.2,1739.7,1226.6,3478.3,3461.3,1132.2,868.8,1499.5,3469.8,1398.5,1246.2,3474.6,3479.5,864.6,1251.5,1545.0,2260.0,1301.6,3100.9,3485.6,3473.4,680.7,957.7,1736.8,1021.9,918.6,928.8,11.0,6.0,12.0,7509.0,-7570.0,10324.0,-6939.0,-7.0,26.0,3.0,3.0,-9.0,2.0,8213.0,-13258.0,4482.0,-2260.0,-17.0,7.0,8.0,1.0
2022-05-03 17:08:48.000442-07:00,1169.1,719.2,1025.4,975.6,941.5,830.2,1739.7,1226.6,3473.4,3483.2,1140.1,868.8,1502.3,3469.8,1398.5,1246.2,3474.6,3479.5,864.6,1246.2,1545.0,2257.9,1299.8,3088.1,3485.6,3473.4,680.7,956.0,1736.8,1014.2,913.5,926.2,3.0,10.0,-3.0,7501.0,-7561.0,10329.0,-6950.0,19.0,27.0,7.0,3.0,-7.0,7.0,8212.0,-13259.0,4483.0,-2259.0,0.0,6.0,8.0,1.0
2022-05-03 17:08:48.001598-07:00,1169.1,719.2,1025.4,975.6,942.4,831.9,1746.4,1235.5,3473.4,3483.2,1140.1,867.9,1500.4,3475.9,1394.8,1242.6,3475.9,3480.7,872.1,1241.7,1545.0,2257.9,1299.8,3088.1,3488.0,3480.7,683.1,950.9,1743.5,1014.2,913.5,926.2,6.0,11.0,1.0,7501.0,-7563.0,10326.0,-6953.0,13.0,-21.0,-9.0,7.0,-8.0,5.0,8212.0,-13259.0,4483.0,-2259.0,11.0,1.0,-4.0,1.0
2022-05-03 17:08:48.181393-07:00,1169.1,710.1,1024.5,973.9,939.8,835.2,1748.3,1237.3,3479.5,3474.6,1132.2,868.8,1492.1,3484.4,1400.3,1245.3,3483.2,3479.5,868.8,1250.6,1540.3,2272.4,1293.6,3104.3,3484.4,3490.5,692.9,950.0,1744.5,1015.9,926.2,924.5,13.0,3.0,5.0,7502.0,-7568.0,10322.0,-6953.0,-3.0,-1.0,-4.0,4.0,-6.0,-1.0,8211.0,-13259.0,4483.0,-2259.0,5.0,-7.0,-5.0,1.0
2022-05-03 17:08:48.240815-07:00,1163.0,709.3,1028.8,978.2,939.8,835.2,1748.3,1237.3,3472.2,3478.3,1132.2,867.9,1492.1,3484.4,1400.3,1245.3,3483.2,3479.5,868.8,1250.6,1548.7,2267.2,1288.2,3106.7,3484.4,3490.5,692.9,950.0,1750.2,1012.5,922.8,926.2,7.0,13.0,7.0,7501.0,-7562.0,10326.0,-6954.0,1.0,-3.0,9.0,6.0,-10.0,5.0,8213.0,-13258.0,4483.0,-2259.0,10.0,-2.0,4.0,1.0
2022-05-03 17:08:48.300997-07:00,1163.0,709.3,1028.8,978.2,940.7,828.5,1748.3,1231.0,3472.2,3478.3,1132.2,867.9,1496.7,3474.6,1396.7,1245.3,3474.6,3485.6,871.3,1250.6,1548.7,2267.2,1288.2,3106.7,3486.8,3490.5,679.1,945.8,1750.2,1012.5,922.8,926.2,7.0,14.0,-3.0,7499.0,-7564.0,10326.0,-6955.0,-11.0,-3.0,-17.0,6.0,-8.0,0.0,8213.0,-13258.0,4483.0,-2259.0,-12.0,5.0,-1.0,1.0
2022-05-03 17:08:48.301968-07:00,1163.8,711.0,1033.2,977.3,940.7,828.5,1748.3,1231.0,3475.9,3474.6,1135.7,864.6,1496.7,3474.6,1396.7,1245.3,3474.6,3485.6,871.3,1250.6,1552.5,2260.0,1288.2,3110.1,3486.8,3490.5,679.1,945.8,1736.8,1013.3,922.0,926.2,19.0,3.0,4.0,7498.0,-7570.0,10323.0,-6953.0,-4.0,5.0,-2.0,6.0,-7.0,-2.0,8209.0,-13260.0,4484.0,-2258.0,-2.0,-10.0,-4.0,1.0
2022-05-03 17:08:48.302729-07:00,1158.6,711.0,1033.2,977.3,943.2,827.7,1750.2,1238.2,3483.2,3474.6,1135.7,864.6,1498.6,3479.5,1394.8,1246.2,3488.0,3481.9,867.1,1243.5,1552.5,2260.0,1288.2,3114.8,3479.5,3478.3,683.1,955.1,1736.8,1013.3,922.0,933.9,8.0,9.0,6.0,7498.0,-7573.0,10323.0,-6950.0,-15.0,-10.0,-7.0,6.0,-7.0,3.0,8210.0,-13261.0,4483.0,-2257.0,-17.0,-5.0,-2.0,1.0
2022-05-03 17:08:48.305106-07:00,1158.6,716.7,1024.5,973.1,943.2,827.7,1750.2,1246.2,3483.2,3477.1,1131.4,864.6,1498.6,3479.5,1394.8,1246.2,3484.4,3481.9,867.1,1243.5,1545.0,2260.0,1290.0,3114.8,3480.7,3478.3,683.1,955.1,1740.6,1015.1,923.7,933.9,12.0,8.0,6.0,7498.0,-7576.0,10322.0,-6948.0,-11.0,4.0,-5.0,7.0,-8.0,1.0,8207.0,-13262.0,4484.0,-2256.0,-15.0,3.0,1.0,1.0
2022-05-03 17:08:48.451251-07:00,1161.2,716.7,1024.5,973.1,941.5,832.7,1748.3,1246.2,3484.4,3477.1,1131.4,864.6,1501.4,3477.1,1399.4,1246.2,3484.4,3481.9,864.6,1250.6,1545.0,2260.0,1290.0,3098.6,3480.7,3492.9,679.1,943.2,1740.6,1015.1,923.7,924.5,7.0,9.0,3.0,7495.0,-7575.0,10323.0,-6951.0,6.0,0.0,3.0,5.0,-7.0,5.0,8204.0,-13264.0,4484.0,-2255.0,0.0,0.0,5.0,1.0
2022-05-03 17:08:48.481120-07:00,1161.2,710.1,1028.0,976.5,941.5,832.7,1748.3,1243.5,3484.4,3477.1,1140.1,878.9,1501.4,3477.1,1399.4,1245.3,3483.2,3481.9,864.6,1250.6,1542.2,2263.1,1288.2,3098.6,3479.5,3492.9,679.1,943.2,1740.6,1012.5,921.1,924.5,9.0,10.0,-1.0,7494.0,-7577.0,10321.0,-6952.0,1.0,-10.0,-11.0,3.0,-4.0,0.0,8203.0,-13265.0,4484.0,-2255.0,-3.0,1.0,-1.0,1.0
2022-05-03 17:08:48.482108-07:00,1159.4,710.1,1028.0,976.5,938.1,833.6,1746.4,1243.5,3477.1,3477.1,1140.1,878.9,1496.7,3474.6,1392.1,1245.3,3483.2,3477.1,866.3,1248.8,1542.2,2263.1,1288.2,3109.0,3479.5,3477.1,679.1,950.0,1740.6,1012.5,921.1,923.7,9.0,1.0,7.0,7493.0,-7576.0,10322.0,-6953.0,-3.0,5.0,10.0,8.0,-10.0,3.0,8203.0,-13265.0,4484.0,-2254.0,3.0,-5.0,1.0,1.0
2022-05-03 17:08:48.510221-07:00,1159.4,712.6,1023.7,976.5,938.1,833.6,1746.4,1235.5,3477.1,3478.3,1140.1,866.3,1496.7,3474.6,1389.4,1241.7,3492.9,3484.4,866.3,1248.8,1544.1,2268.3,1285.5,3109.0,3483.2,3477.1,679.1,950.0,1752.1,1013.3,920.3,923.7,-28.0,17.0,7.0,7503.0,-7569.0,10328.0,-6942.0,-32.0,-56.0,52.0,12.0,-35.0,12.0,8214.0,-13259.0,4480.0,-2258.0,80.0,3.0,-7.0,1.0
2022-05-03 17:08:48.600329-07:00,1155.9,710.1,1023.7,976.5,936.4,829.4,1746.4,1235.5,3474.6,3488.0,1140.1,866.3,1490.3,3483.2,1389.4,1241.7,3492.9,3484.4,873.8,1253.3,1544.1,2268.3,1348.5,3111.3,3483.2,3477.1,684.0,1010.8,1752.1,1013.3,918.6,915.2,-12.0,53.0,-47.0,7560.0,-7624.0,10323.0,-6826.0,-234.0,-381.0,120.0,-5.0,-6.0,-28.0,8227.0,-13251.0,4480.0,-2261.0,-11.0,-16.0,-13.0,1.0
2022-05-03 17:08:48.630312-07:00,1155.9,710.1,1023.7,972.2,936.4,829.4,1755.0,1223.9,3474.6,3488.0,1182.3,872.1,1490.3,3483.2,1691.0,1290.9,3480.7,3479.5,873.8,1253.3,1545.0,2257.9,1348.5,3111.3,3481.9,3478.3,684.0,1010.8,1742.6,1015.1,918.6,915.2,50.0,-191.0,144.0,7686.0,-7610.0,10290.0,-6750.0,484.0,-172.0,238.0,-23.0,-6.0,-57.0,8238.0,-13250.0,4475.0,-2235.0,204.0,-119.0,135.0,1.0
2022-05-03 17:08:48.840216-07:00,1161.2,723.3,1023.7,972.2,933.9,886.5,1755.0,1223.9,3469.8,3480.7,1182.3,872.1,1501.4,3474.6,1691.0,1290.9,3480.7,3479.5,873.0,1248.8,1545.0,2257.9,1320.5,3169.5,3481.9,3478.3,685.6,1109.5,1742.6,1015.1,927.1,925.4,203.0,-274.0,1.0,7940.0,-7380.0,10170.0,-6892.0,1094.0,-148.0,331.0,77.0,-109.0,56.0,8428.0,-13130.0,4496.0,-2188.0,1321.0,-181.0,289.0,1.0
2022-05-03 17:08:48.870152-07:00,1161.2,723.3,1029.7,980.7,933.9,886.5,2112.8,1495.8,3469.8,3480.7,1338.6,909.3,1501.4,3474.6,1842.0,1338.6,3475.9,3485.6,873.0,1248.8,1553.4,2280.7,1320.5,3169.5,3478.3,3481.9,685.6,1109.5,1750.2,1026.3,927.1,925.4,32.0,436.0,-209.0,8203.0,-6637.0,10089.0,-7437.0,1598.0,498.0,461.0,-54.0,116.0,-13.0,9040.0,-12721.0,4424.0,-2305.0,1446.0,-23.0,25.0,1.0
2022-05-03 17:08:48.901266-07:00,1182.3,935.6,1021.1,980.7,941.5,933.0,2112.8,1495.8,3467.4,3471.0,1332.3,909.3,1553.4,3478.3,1842.0,1338.6,3475.9,3485.6,883.1,1272.1,1553.4,2271.4,1278.3,3500.2,3478.3,3481.9,783.6,1094.7,1750.2,1019.4,916.9,960.2,-9.0,147.0,-76.0,8132.0,-6521.0,10144.0,-7542.0,-820.0,303.0,-329.0,33.0,-70.0,22.0,9112.0,-12672.0,4410.0,-2319.0,-758.0,-25.0,1.0,1.0
2022-05-03 17:08:48.902117-07:00,1182.3,935.6,1021.1,976.5,941.5,933.0,2106.8,1588.0,3467.4,3471.0,1332.3,899.1,1553.4,3488.0,1781.0,1332.3,3485.6,3477.1,882.3,1272.1,1562.7,2271.4,1278.3,3500.2,3486.8,3483.2,802.7,1094.7,1741.6,1019.4,916.9,960.2,10.0,-34.0,5.0,7934.0,-6716.0,10224.0,-7474.0,-85.0,142.0,-15.0,6.0,6.0,12.0,8986.0,-12768.0,4421.0,-2266.0,-32.0,-11.0,-33.0,1.0
2022-05-03 17:08:48.960341-07:00,1175.3,973.9,1021.1,976.5,944.1,933.0,2106.8,1588.0,3467.4,3473.4,1315.1,899.1,1564.6,3488.0,1781.0,1332.3,3485.6,3477.1,882.3,1277.4,1562.7,2262.1,1248.8,3506.3,3486.8,3483.2,802.7,1077.3,1741.6,1015.1,914.4,956.8,3.0,58.0,-28.0,7911.0,-6721.0,10248.0,-7461.0,-44.0,-115.0,-133.0,6.0,21.0,2.0,8993.0,-12764.0,4411.0,-2276.0,-12.0,-4.0,-32.0,1.0
2022-05-03 17:08:48.990271-07:00,1175.3,973.9,1021.1,973.9,944.1,931.3,2067.5,1534.8,3467.4,3473.4,1315.1,888.2,1564.6,3473.4,1761.8,1325.0,3480.7,3473.4,874.7,1277.4,1558.1,2262.1,1248.8,3506.3,3483.2,3471.0,788.6,1077.3,1740.6,1015.1,914.4,956.8,6.0,-78.0,52.0,7855.0,-6816.0,10259.0,-7419.0,-260.0,94.0,-61.0,23.0,-65.0,36.0,8920.0,-12820.0,4409.0,-2253.0,-235.0,-26.0,-27.0,1.0
2022-05-03 17:08:48.991343-07:00,1170.9,952.6,1019.4,973.9,937.3,931.3,2067.5,1534.8,3478.3,3464.9,1307.0,888.2,1565.5,3473.4,1761.8,1325.0,3480.7,3473.4,874.7,1281.9,1558.1,2255.9,1230.2,3501.4,3483.2,3471.0,788.6,1058.2,1740.6,1010.8,919.4,951.7,44.0,7.0,10.0,7821.0,-6869.0,10276.0,-7381.0,-45.0,-132.0,-69.0,-12.0,15.0,-18.0,8899.0,-12833.0,4413.0,-2250.0,30.0,11.0,3.0,1.0
2022-05-03 17:08:48.992423-07:00,1170.9,952.6,1019.4,974.8,937.3,929.6,2055.4,1515.3,3478.3,3464.9,1307.0,892.4,1565.5,3474.6,1744.5,1323.2,3480.7,3477.1,875.5,1281.9,1562.7,2255.9,1230.2,3501.4,3486.8,3469.8,786.9,1058.2,1744.5,1010.8,919.4,951.7,-2.0,-27.0,4.0,7809.0,-6870.0,10294.0,-7368.0,12.0,106.0,93.0,15.0,-24.0,22.0,8903.0,-12825.0,4423.0,-2263.0,56.0,49.0,19.0,1.0
2022-05-03 17:08:49.081097-07:00,1160.3,950.0,1025.4,975.6,944.1,929.6,2055.4,1515.3,3477.1,3475.9,1304.3,889.8,1560.9,3474.6,1744.5,1323.2,3480.7,3477.1,875.5,1281.0,1567.4,2261.0,1221.3,3506.3,3486.8,3469.8,786.9,1052.2,1747.3,1009.0,912.7,955.1,19.0,81.0,-46.0,7821.0,-6840.0,10301.0,-7373.0,-41.0,9.0,-5.0,-8.0,19.0,-31.0,8926.0,-12804.0,4429.0,-2279.0,8.0,8.0,0.0,1.0
2022-05-03 17:08:49.170199-07:00,1160.3,950.0,1025.4,975.6,944.1,928.8,2101.7,1602.1,3477.1,3475.9,1304.3,889.8,1567.4,3481.9,1743.5,1320.5,3477.1,3478.3,874.7,1284.6,1567.4,2261.0,1221.3,3506.3,3483.2,3488.0,781.1,1043.5,1747.3,1009.0,912.7,955.1,-1.0,-19.0,5.0,7763.0,-6875.0,10331.0,-7360.0,-76.0,23.0,-80.0,17.0,-19.0,48.0,8870.0,-12843.0,4438.0,-2260.0,-153.0,2.0,-10.0,1.0
2022-05-03 17:08:49.201190-07:00,1171.8,962.8,1020.2,979.0,944.1,928.8,2101.7,1602.1,3483.2,3473.4,1298.1,886.5,1567.4,3481.9,1743.5,1320.5,3477.1,3478.3,874.7,1284.6,1571.1,2257.9,1220.4,3499.0,3483.2,3488.0,781.1,1043.5,1745.4,1007.3,919.4,979.0,91.0,4.0,9.0,7791.0,-6901.0,10287.0,-7368.0,123.0,-130.0,-65.0,0.0,25.0,-68.0,8893.0,-12828.0,4427.0,-2282.0,120.0,-1.0,-41.0,1.0
2022-05-03 17:08:49.202339-07:00,1171.8,962.8,1020.2,979.0,941.5,939.0,2086.6,1592.7,3483.2,3473.4,1298.1,886.5,1559.0,3475.9,1744.5,1319.6,3483.2,3490.5,874.7,1288.2,1571.1,2257.9,1220.4,3499.0,3474.6,3492.9,772.0,1038.3,1745.4,1007.3,919.4,979.0,-10.0,0.0,-18.0,7800.0,-6877.0,10274.0,-7398.0,20.0,-55.0,18.0,16.0,-17.0,20.0,8903.0,-12821.0,4421.0,-2292.0,68.0,-4.0,3.0,1.0
2022-05-03 17:08:49.260205-07:00,1167.4,952.6,1021.9,973.1,941.5,939.0,2086.6,1592.7,3483.2,3483.2,1291.8,884.8,1559.0,3475.9,1744.5,1319.6,3483.2,3490.5,874.7,1288.2,1565.5,2262.1,1208.0,3497.8,3474.6,3492.9,772.0,1038.3,1742.6,1020.2,913.5,999.6,-3.0,34.0,-8.0,7828.0,-6869.0,10259.0,-7398.0,48.0,30.0,29.0,4.0,-22.0,28.0,8923.0,-12807.0,4418.0,-2300.0,20.0,18.0,-7.0,1.0
2022-05-03 17:08:49.290228-07:00,1167.4,952.6,1021.9,973.1,949.2,933.9,2066.5,1584.2,3475.9,3483.2,1291.8,884.8,1559.0,3478.3,1733.0,1319.6,3481.9,3489.2,870.5,1284.6,1565.5,2262.1,1208.0,3502.7,3481.9,3483.2,774.5,1035.7,1742.6,1020.2,913.5,1005.6,15.0,17.0,-1.0,7835.0,-6861.0,10251.0,-7408.0,36.0,8.0,-36.0,10.0,-10.0,1.0,8934.0,-12799.0,4410.0,-2310.0,15.0,4.0,-18.0,1.0
2022-05-03 17:08:49.350432-07:00,1167.4,944.9,1018.5,973.9,949.2,933.9,2066.5,1566.5,3475.9,3473.4,1294.5,881.4,1559.0,3478.3,1733.0,1317.8,3490.5,3489.2,870.5,1284.6,1567.4,2261.0,1199.1,3502.7,3489.2,3483.2,774.5,1035.7,1740.6,1008.2,916.9,1005.6,0.0,1.0,-7.0,7841.0,-6863.0,10231.0,-7427.0,86.0,-30.0,-5.0,6.0,-9.0,12.0,8943.0,-12793.0,4407.0,-2320.0,57.0,18.0,-8.0,1.0
2022-05-03 17:08:49.410242-07:00,1170.0,944.9,1018.5,973.9,950.0,932.2,2048.4,1566.5,3480.7,3473.4,1294.5,881.4,1559.9,3469.8,1732.0,1317.8,3490.5,3477.1,871.3,1281.0,1567.4,2261.0,1199.1,3491.7,3489.2,3477.1,777.8,1029.7,1740.6,1008.2,916.9,997.0,44.0,12.0,6.0,7869.0,-6873.0,10194.0,-7439.0,72.0,-75.0,-66.0,0.0,14.0,-16.0,8958.0,-12780.0,4405.0,-2335.0,36.0,11.0,-16.0,1.0
2022-05-03 17:08:49.560271-07:00,1170.0,941.5,1018.5,973.9,950.0,932.2,2048.4,1544.1,3480.7,3472.2,1296.3,887.3,1559.9,3469.8,1732.0,1311.5,3489.2,3477.1,871.3,1281.0,1567.4,2266.2,1196.5,3491.7,3492.9,3477.1,777.8,1029.7,1738.7,1014.2,917.7,997.0,0.0,3.0,-10.0,7885.0,-6874.0,10162.0,-7467.0,69.0,-48.0,-45.0,12.0,-17.0,11.0,8968.0,-12774.0,4395.0,-2346.0,33.0,5.0,-17.0,1.0
2022-05-03 17:08:49.620956-07:00,1163.0,941.5,1018.5,973.9,940.7,931.3,2055.4,1544.1,3472.2,3472.2,1296.3,887.3,1558.1,3478.3,1726.3,1311.5,3489.2,3483.2,867.1,1281.0,1567.4,2266.2,1196.5,3500.2,3492.9,3486.8,774.5,1029.7,1738.7,1014.2,917.7,991.0,20.0,5.0,1.0,7901.0,-6892.0,10128.0,-7478.0,42.0,-59.0,-50.0,3.0,-3.0,3.0,8972.0,-12772.0,4392.0,-2350.0,2.0,6.0,-10.0,1.0
2022-05-03 17:08:49.650453-07:00,1163.0,939.8,1021.1,973.1,940.7,931.3,2055.4,1551.5,3472.2,3475.9,1290.9,880.6,1558.1,3478.3,1726.3,1315.1,3480.7,3483.2,867.1,1281.0,1572.1,2262.1,1190.3,3500.2,3481.9,3486.8,774.5,1029.7,1736.8,1016.8,916.0,991.0,14.0,15.0,-1.0,7918.0,-6899.0,10101.0,-7491.0,26.0,-58.0,-33.0,5.0,-8.0,0.0,8983.0,-12766.0,4384.0,-2358.0,30.0,0.0,-11.0,1.0
2022-05-03 17:08:49.651660-07:00,1170.9,928.8,1021.1,973.1,941.5,929.6,2061.5,1551.5,3466.1,3479.5,1290.9,880.6,1552.5,3473.4,1730.1,1315.1,3480.7,3480.7,867.9,1281.0,1572.1,2262.1,1191.2,3492.9,3481.9,3477.1,775.3,1028.0,1736.8,1016.8,914.4,991.0,18.0,8.0,2.0,7921.0,-6926.0,10081.0,-7490.0,-14.0,-46.0,-53.0,6.0,-5.0,4.0,8975.0,-12772.0,4385.0,-2356.0,-27.0,0.0,-9.0,1.0
2022-05-03 17:08:49.652512-07:00,1170.9,928.8,1021.1,974.8,941.5,929.6,2049.4,1559.9,3466.1,3479.5,1284.6,885.6,1552.5,3473.4,1723.4,1320.5,3481.9,3484.4,867.9,1281.0,1564.6,2264.1,1191.2,3492.9,3479.5,3490.5,775.3,1028.0,1745.4,1013.3,914.4,991.0,5.0,3.0,8.0,7920.0,-6944.0,10064.0,-7497.0,23.0,-1.0,-40.0,8.0,-19.0,9.0,8971.0,-12775.0,4382.0,-2358.0,-10.0,-1.0,-7.0,1.0
2022-05-03 17:08:49.710247-07:00,1168.2,923.7,1021.1,974.8,949.2,923.7,2049.4,1559.9,3477.1,3483.2,1284.6,885.6,1545.9,3477.1,1723.4,1320.5,3481.9,3484.4,872.1,1280.1,1564.6,2264.1,1191.2,3507.5,3479.5,3490.5,770.3,1028.8,1745.4,1013.3,911.0,993.6,15.0,-1.0,8.0,7916.0,-6952.0,10054.0,-7506.0,4.0,15.0,-12.0,2.0,-13.0,4.0,8966.0,-12778.0,4382.0,-2357.0,-33.0,3.0,10.0,1.0
2022-05-03 17:08:49.979937-07:00,1168.2,923.7,1016.8,969.6,949.2,923.7,2046.4,1559.9,3477.1,3483.2,1288.2,878.9,1545.9,3477.1,1720.5,1315.1,3477.1,3486.8,872.1,1280.1,1572.1,2257.9,1191.2,3507.5,3483.2,3483.2,770.3,1028.8,1761.8,1013.3,911.0,993.6,18.0,7.0,-3.0,7913.0,-6943.0,10053.0,-7519.0,25.0,22.0,11.0,8.0,-8.0,2.0,8967.0,-12777.0,4383.0,-2357.0,9.0,4.0,11.0,1.0
2022-05-03 17:08:49.981196-07:00,1163.0,922.8,1016.8,969.6,939.0,922.0,2046.4,1559.9,3477.1,3472.2,1288.2,878.9,1547.8,3472.2,1720.5,1315.1,3477.1,3486.8,871.3,1288.2,1572.1,2257.9,1185.0,3514.9,3483.2,3483.2,767.8,1024.5,1761.8,1013.3,911.0,979.9,6.0,15.0,-18.0,7917.0,-6934.0,10050.0,-7528.0,51.0,-62.0,1.0,8.0,-5.0,8.0,8974.0,-12772.0,4381.0,-2361.0,54.0,4.0,-6.0,1.0
2022-05-03 17:08:49.982296-07:00,1163.0,922.8,1026.3,973.1,939.0,932.2,2037.4,1548.7,3477.1,3472.2,1282.8,883.1,1547.8,3466.1,1718.6,1312.4,3485.6,3483.2,875.5,1288.2,1565.5,2265.2,1185.0,3514.9,3478.3,3478.3,766.2,1024.5,1744.5,1013.3,911.0,979.9,10.0,11.0,-2.0,7932.0,-6938.0,10033.0,-7531.0,15.0,-16.0,2.0,3.0,-6.0,0.0,8984.0,-12765.0,4379.0,-2366.0,6.0,-9.0,-8.0,1.0
2022-05-03 17:08:50.099937-07:00,1171.8,913.5,1017.6,973.1,942.4,932.2,2037.4,1548.7,3479.5,3483.2,1283.7,883.1,1548.7,3466.1,1718.6,1312.4,3485.6,3483.2,875.5,1281.0,1565.5,2251.7,1179.7,3507.5,3478.3,3478.3,766.2,1023.7,1744.5,1009.0,912.7,982.5,11.0,5.0,6.0,7943.0,-6938.0,10023.0,-7533.0,56.0,-45.0,-1.0,4.0,-7.0,4.0,8991.0,-12761.0,4375.0,-2368.0,38.0,-16.0,-12.0,1.0
2022-05-03 17:08:50.100995-07:00,1171.8,913.5,1017.6,973.1,942.4,916.9,2023.4,1549.7,3479.5,3483.2,1283.7,886.5,1548.7,3478.3,1711.9,1306.1,3481.9,3479.5,873.8,1281.0,1563.7,2251.7,1179.7,3507.5,3489.2,3477.1,762.9,1023.7,1743.5,1009.0,912.7,982.5,5.0,11.0,5.0,7956.0,-6937.0,10010.0,-7538.0,-2.0,-12.0,4.0,6.0,-8.0,11.0,9000.0,-12756.0,4370.0,-2371.0,-5.0,2.0,0.0,1.0
2022-05-03 17:08:50.102445-07:00,1161.2,909.3,1018.5,973.1,935.6,916.9,2023.4,1549.7,3478.3,3479.5,1277.4,886.5,1539.4,3478.3,1711.9,1306.1,3481.9,3479.5,873.8,1280.1,1563.7,2261.0,1173.5,3500.2,3489.2,3477.1,762.9,1018.5,1743.5,1009.0,911.0,987.6,0.0,30.0,-6.0,7960.0,-6953.0,10003.0,-7528.0,-67.0,-108.0,-70.0,9.0,-3.0,3.0,8997.0,-12757.0,4371.0,-2376.0,-51.0,26.0,4.0,1.0
2022-05-03 17:08:50.130149-07:00,1161.2,909.3,1018.5,973.9,935.6,923.7,2030.4,1541.3,3478.3,3479.5,1277.4,883.9,1539.4,3472.2,1714.8,1314.2,3485.6,3479.5,873.0,1280.1,1564.6,2261.0,1173.5,3500.2,3488.0,3477.1,763.7,1018.5,1745.4,1009.0,911.0,987.6,30.0,-19.0,4.0,7953.0,-6999.0,9986.0,-7516.0,-9.0,-5.0,-32.0,5.0,-10.0,-13.0,8973.0,-12771.0,4380.0,-2375.0,-34.0,1.0,-5.0,1.0
2022-05-03 17:08:50.131230-07:00,1163.8,915.2,1021.9,977.3,939.8,923.7,2030.4,1541.3,3474.6,3471.0,1282.8,885.6,1548.7,3472.2,1714.8,1314.2,3485.6,3479.5,873.0,1284.6,1563.7,2261.0,1180.6,3501.4,3488.0,3477.1,763.7,1018.5,1740.6,1010.8,889.8,973.9,4.0,23.0,-6.0,7952.0,-6997.0,9984.0,-7520.0,-17.0,-33.0,-10.0,5.0,-3.0,7.0,8971.0,-12773.0,4379.0,-2375.0,3.0,-5.0,2.0,1.0
2022-05-03 17:08:50.190894-07:00,1163.8,915.2,1021.9,977.3,944.1,921.1,2024.4,1532.0,3474.6,3471.0,1282.8,885.6,1545.9,3473.4,1715.8,1310.6,3477.1,3477.1,889.0,1285.5,1563.7,2261.0,1180.6,3501.4,3485.6,3488.0,760.4,1010.8,1740.6,1010.8,889.8,973.9,13.0,0.0,3.0,7951.0,-7006.0,9978.0,-7522.0,23.0,21.0,-13.0,6.0,-12.0,7.0,8966.0,-12776.0,4379.0,-2374.0,-5.0,-2.0,-10.0,1.0
2022-05-03 17:08:50.280750-07:00,1162.1,908.4,1021.9,968.8,944.1,921.1,2024.4,1532.0,3483.2,3479.5,1275.6,882.3,1545.9,3473.4,1715.8,1310.6,3477.1,3477.1,889.0,1285.5,1564.6,2255.9,1175.3,3486.8,3485.6,3488.0,760.4,1010.8,1742.6,1010.8,916.0,973.1,2.0,14.0,0.0,7946.0,-7001.0,9980.0,-7529.0,-4.0,5.0,-5.0,7.0,-7.0,8.0,8966.0,-12776.0,4377.0,-2376.0,-5.0,4.0,6.0,1.0
2022-05-03 17:08:50.431130-07:00,1162.1,908.4,1021.9,968.8,941.5,911.0,2033.4,1537.6,3483.2,3479.5,1275.6,882.3,1538.5,3481.9,1718.6,1311.5,3480.7,3477.1,868.8,1284.6,1564.6,2255.9,1175.3,3486.8,3477.1,3483.2,749.6,1019.4,1742.6,1010.8,916.0,973.1,21.0,4.0,2.0,7945.0,-7004.0,9976.0,-7533.0,31.0,35.0,-4.0,6.0,-8.0,0.0,8965.0,-12777.0,4377.0,-2376.0,7.0,-5.0,-1.0,1.0
2022-05-03 17:08:50.432260-07:00,1160.3,900.8,1021.1,973.1,941.5,911.0,2033.4,1537.6,3479.5,3475.9,1279.2,882.3,1538.5,3481.9,1718.6,1311.5,3480.7,3477.1,868.8,1284.6,1570.2,2260.0,1174.4,3479.5,3477.1,3483.2,749.6,1019.4,1740.6,1011.6,911.8,973.9,-1.0,11.0,-8.0,7943.0,-6996.0,9975.0,-7543.0,10.0,-19.0,3.0,6.0,-7.0,7.0,8967.0,-12776.0,4376.0,-2377.0,12.0,2.0,2.0,1.0
2022-05-03 17:08:50.433328-07:00,1160.3,900.8,1021.1,973.1,939.8,919.4,2027.4,1538.5,3479.5,3475.9,1279.2,882.3,1545.0,3473.4,1733.9,1311.5,3486.8,3485.6,869.6,1284.6,1570.2,2260.0,1174.4,3479.5,3483.2,3490.5,761.2,1016.8,1740.6,1011.6,911.8,973.9,4.0,0.0,-2.0,7945.0,-6994.0,9971.0,-7548.0,25.0,11.0,8.0,8.0,-13.0,5.0,8969.0,-12775.0,4376.0,-2378.0,14.0,-7.0,-3.0,1.0
2022-05-03 17:08:50.460690-07:00,1161.2,891.5,1021.9,970.5,939.8,919.4,2027.4,1532.0,3474.6,3478.3,1273.0,884.8,1545.0,3473.4,1733.9,1311.5,3477.1,3485.6,869.6,1284.6,1559.0,2264.1,1177.0,3485.6,3489.2,3490.5,761.2,1016.8,1748.3,1007.3,910.1,967.1,6.0,9.0,1.0,7949.0,-6985.0,9969.0,-7555.0,21.0,4.0,9.0,9.0,-9.0,10.0,8974.0,-12771.0,4375.0,-2379.0,13.0,-5.0,5.0,1.0
2022-05-03 17:08:50.461855-07:00,1161.2,891.5,1021.9,970.5,936.4,913.5,2018.4,1532.0,3477.1,3478.3,1273.0,884.8,1541.3,3488.0,1711.0,1311.5,3477.1,3484.4,871.3,1281.9,1559.0,2264.1,1177.0,3452.8,3489.2,3486.8,758.7,1011.6,1748.3,1007.3,910.1,959.4,14.0,6.0,0.0,7952.0,-6984.0,9965.0,-7557.0,-2.0,-15.0,-5.0,5.0,-4.0,-1.0,8977.0,-12769.0,4375.0,-2380.0,1.0,5.0,0.0,1.0
2022-05-03 17:08:50.490405-07:00,1161.2,894.1,1015.9,991.9,936.4,913.5,2018.4,1531.0,3477.1,3477.1,1271.2,885.6,1541.3,3488.0,1711.0,1312.4,3475.9,3484.4,871.3,1281.9,1565.5,2261.0,1176.2,3452.8,3486.8,3486.8,758.7,1011.6,1726.3,1015.1,908.4,959.4,8.0,12.0,0.0,7954.0,-6980.0,9965.0,-7559.0,23.0,11.0,5.0,10.0,-8.0,4.0,8981.0,-12766.0,4374.0,-2382.0,23.0,4.0,-4.0,1.0
2022-05-03 17:08:50.670220-07:00,1163.8,894.1,1015.9,991.9,935.6,919.4,2010.4,1531.0,3473.4,3477.1,1271.2,885.6,1532.9,3467.4,1714.8,1312.4,3475.9,3480.7,871.3,1282.8,1565.5,2261.0,1176.2,3462.5,3486.8,3488.0,756.3,1011.6,1726.3,1015.1,908.4,959.4,17.0,6.0,-2.0,7957.0,-6980.0,9962.0,-7560.0,6.0,-24.0,-8.0,0.0,-5.0,-2.0,8982.0,-12766.0,4374.0,-2382.0,6.0,-9.0,-1.0,1.0
2022-05-03 17:08:50.700394-07:00,1163.8,902.5,1023.7,979.0,935.6,919.4,2010.4,1535.7,3473.4,3483.2,1272.1,874.7,1532.9,3467.4,1714.8,1313.3,3480.7,3480.7,871.3,1282.8,1559.0,2261.0,1178.8,3462.5,3481.9,3488.0,756.3,1011.6,1740.6,1012.5,912.7,959.4,4.0,10.0,-3.0,7964.0,-6981.0,9956.0,-7560.0,19.0,0.0,-4.0,5.0,-10.0,6.0,8984.0,-12764.0,4373.0,-2382.0,5.0,0.0,-4.0,1.0
2022-05-03 17:08:50.701603-07:00,1163.8,890.7,1023.7,979.0,942.4,919.4,2023.4,1535.7,3478.3,3480.7,1272.1,874.7,1540.3,3478.3,1706.2,1313.3,3480.7,3488.0,866.3,1283.7,1559.0,2261.0,1174.4,3451.6,3481.9,3485.6,754.6,1007.3,1740.6,1012.5,914.4,964.5,11.0,11.0,0.0,7972.0,-6984.0,9949.0,-7558.0,14.0,-42.0,-6.0,6.0,-7.0,2.0,8985.0,-12764.0,4372.0,-2381.0,8.0,-5.0,-3.0,1.0
2022-05-03 17:08:50.702622-07:00,1163.8,890.7,1015.1,972.2,942.4,919.4,1998.5,1521.8,3478.3,3480.7,1266.7,887.3,1540.3,3478.3,1711.0,1314.2,3483.2,3480.7,866.3,1283.7,1561.8,2256.9,1174.4,3451.6,3490.5,3492.9,754.6,1007.3,1736.8,1011.6,914.4,964.5,11.0,-1.0,4.0,7981.0,-6986.0,9941.0,-7558.0,20.0,18.0,8.0,7.0,-13.0,2.0,8987.0,-12763.0,4371.0,-2381.0,9.0,-2.0,7.0,1.0
2022-05-03 17:08:50.789977-07:00,1168.2,887.3,1015.1,972.2,941.5,915.2,1998.5,1521.8,3478.3,3488.0,1266.7,887.3,1535.7,3479.5,1711.0,1314.2,3483.2,3480.7,867.9,1277.4,1561.8,2256.9,1177.0,3447.9,3490.5,3492.9,756.3,1014.2,1736.8,1011.6,913.5,977.3,43.0,4.0,11.0,7980.0,-6978.0,9945.0,-7560.0,22.0,29.0,17.0,5.0,3.0,-12.0,8990.0,-12760.0,4374.0,-2380.0,24.0,-7.0,9.0,1.0
2022-05-03 17:08:50.791468-07:00,1168.2,887.3,1014.2,978.2,941.5,915.2,2009.4,1509.7,3478.3,3488.0,1274.7,879.7,1535.7,3479.5,1710.0,1307.0,3475.9,3489.2,867.9,1277.4,1570.2,2257.9,1177.0,3447.9,3479.5,3485.6,756.3,1014.2,1738.7,1013.3,913.5,977.3,-14.0,15.0,-8.0,7971.0,-6941.0,9961.0,-7583.0,48.0,61.0,47.0,9.0,-13.0,15.0,8997.0,-12753.0,4380.0,-2381.0,28.0,15.0,20.0,1.0
2022-05-03 17:08:50.910943-07:00,1153.3,885.6,1014.2,978.2,942.4,911.0,2009.4,1509.7,3473.4,3481.9,1274.7,879.7,1534.8,3475.9,1710.0,1307.0,3475.9,3489.2,878.9,1285.5,1570.2,2257.9,1166.5,3444.3,3479.5,3485.6,758.7,1016.8,1738.7,1013.3,904.2,959.4,19.0,19.0,-8.0,7972.0,-6932.0,9963.0,-7587.0,-10.0,-26.0,-43.0,5.0,-2.0,-4.0,8992.0,-12755.0,4384.0,-2381.0,-23.0,2.0,-8.0,1.0
2022-05-03 17:08:51.090322-07:00,1153.3,885.6,1018.5,976.5,942.4,911.0,2015.4,1522.7,3473.4,3481.9,1275.6,882.3,1534.8,3479.5,1710.0,1312.4,3483.2,3484.4,875.5,1285.5,1563.7,2257.9,1166.5,3444.3,3481.9,3484.4,755.4,1016.8,1731.1,1011.6,904.2,959.4,9.0,-2.0,-4.0,7970.0,-6937.0,9957.0,-7594.0,11.0,6.0,27.0,7.0,-9.0,4.0,8993.0,-12754.0,4385.0,-2381.0,14.0,-2.0,10.0,1.0
2022-05-03 17:08:51.091456-07:00,1156.8,885.6,1013.3,976.5,938.1,911.0,2015.4,1522.7,3478.3,3467.4,1274.7,882.3,1535.7,3479.5,1710.0,1312.4,3483.2,3484.4,875.5,1281.0,1563.7,2259.0,1172.6,3435.8,3481.9,3484.4,755.4,1009.9,1731.1,1009.9,916.0,960.2,14.0,19.0,0.0,7977.0,-6937.0,9956.0,-7587.0,-17.0,-30.0,-15.0,2.0,3.0,1.0,8993.0,-12754.0,4386.0,-2378.0,-20.0,-6.0,-3.0,1.0
2022-05-03 17:08:51.092460-07:00,1156.8,885.6,1013.3,973.9,938.1,908.4,2002.5,1522.7,3478.3,3467.4,1274.7,884.8,1535.7,3475.9,1699.5,1310.6,3484.4,3478.3,874.7,1281.0,1564.6,2259.0,1172.6,3435.8,3483.2,3472.2,756.3,1009.9,1748.3,1009.9,916.0,960.2,11.0,0.0,0.0,7978.0,-6941.0,9951.0,-7589.0,23.0,-7.0,5.0,7.0,-14.0,6.0,8996.0,-12753.0,4384.0,-2379.0,27.0,-9.0,-4.0,1.0
2022-05-03 17:08:51.093627-07:00,1158.6,870.5,1015.9,973.9,935.6,908.4,2002.5,1522.7,3468.6,3473.4,1273.0,884.8,1527.3,3475.9,1699.5,1310.6,3484.4,3478.3,874.7,1273.9,1564.6,2253.8,1168.2,3417.7,3483.2,3472.2,756.3,1007.3,1748.3,1009.9,911.8,958.5,26.0,10.0,2.0,7982.0,-6945.0,9946.0,-7586.0,-16.0,-6.0,-5.0,4.0,-1.0,3.0,8994.0,-12755.0,4383.0,-2378.0,-20.0,-11.0,-2.0,1.0
2022-05-03 17:08:51.150789-07:00,1158.6,870.5,1015.9,968.8,935.6,907.6,2006.4,1504.1,3468.6,3473.4,1273.0,878.9,1527.3,3474.6,1709.1,1314.2,3488.0,3484.4,870.5,1273.9,1568.3,2253.8,1168.2,3417.7,3483.2,3483.2,752.9,1007.3,1741.6,1009.9,911.8,958.5,0.0,5.0,-3.0,7972.0,-6941.0,9953.0,-7592.0,10.0,20.0,2.0,8.0,-21.0,18.0,8989.0,-12758.0,4383.0,-2375.0,13.0,3.0,3.0,1.0
2022-05-03 17:08:51.153478-07:00,1161.2,879.7,1018.5,968.8,939.8,907.6,2006.4,1504.1,3478.3,3474.6,1272.1,878.9,1525.5,3474.6,1709.1,1314.2,3488.0,3484.4,870.5,1281.9,1568.3,2260.0,1166.5,3399.6,3483.2,3483.2,752.9,1006.5,1741.6,1014.2,914.4,961.1,23.0,1.0,0.0,7972.0,-6942.0,9952.0,-7592.0,8.0,-18.0,-12.0,5.0,-3.0,-9.0,8988.0,-12758.0,4384.0,-2376.0,5.0,2.0,-1.0,1.0
2022-05-03 17:08:51.210637-07:00,1161.2,879.7,1018.5,976.5,939.0,912.7,2003.5,1518.0,3478.3,3474.6,1272.1,886.5,1531.0,3485.6,1706.2,1316.9,3478.3,3480.7,873.0,1285.5,1566.5,2260.0,1166.5,3399.6,3479.5,3477.1,752.1,1005.6,1741.6,1014.2,914.4,961.1,15.0,9.0,-3.0,7975.0,-6944.0,9947.0,-7595.0,4.0,-29.0,0.0,8.0,-10.0,2.0,8992.0,-12756.0,4384.0,-2378.0,13.0,-5.0,1.0,1.0
2022-05-03 17:08:51.240322-07:00,1157.7,892.4,1015.1,973.9,939.0,912.7,2003.5,1518.0,3474.6,3480.7,1265.8,879.7,1531.0,3485.6,1706.2,1316.9,3478.3,3480.7,873.0,1285.5,1567.4,2251.7,1169.1,3418.9,3479.5,3477.1,752.1,1005.6,1739.7,1009.0,915.2,956.8,5.0,6.0,-1.0,7979.0,-6950.0,9940.0,-7593.0,15.0,-24.0,-16.0,6.0,-6.0,9.0,8994.0,-12755.0,4383.0,-2378.0,8.0,-2.0,-8.0,1.0
2022-05-03 17:08:51.300667-07:00,1157.7,892.4,1015.1,973.9,941.5,909.3,2002.5,1520.8,3474.6,3480.7,1265.8,879.7,1537.6,3474.6,1698.6,1311.5,3479.5,3484.4,873.0,1279.2,1567.4,2251.7,1169.1,3418.9,3483.2,3481.9,743.9,1002.2,1739.7,1009.0,915.2,956.8,7.0,5.0,1.0,7984.0,-6958.0,9931.0,-7594.0,5.0,-4.0,-10.0,5.0,-14.0,9.0,8994.0,-12755.0,4382.0,-2377.0,-3.0,-1.0,0.0,1.0
2022-05-03 17:08:51.420354-07:00,1157.7,883.1,1020.2,970.5,941.5,909.3,2002.5,1520.8,3474.6,3473.4,1266.7,878.0,1537.6,3474.6,1698.6,1311.5,3479.5,3484.4,873.0,1279.2,1566.5,2249.7,1177.0,3424.9,3483.2,3481.9,743.9,1002.2,1738.7,998.7,910.1,952.6,5.0,7.0,-5.0,7983.0,-6959.0,9931.0,-7593.0,-20.0,3.0,10.0,8.0,-11.0,12.0,8992.0,-12756.0,4383.0,-2378.0,-16.0,14.0,3.0,1.0
2022-05-03 17:08:51.422106-07:00,1157.7,883.1,1020.2,970.5,941.5,906.7,1994.5,1515.3,3474.6,3473.4,1266.7,878.0,1521.8,3474.6,1706.2,1309.7,3475.9,3479.5,875.5,1282.8,1566.5,2249.7,1177.0,3424.9,3483.2,3481.9,753.8,1009.0,1738.7,998.7,910.1,952.6,18.0,8.0,-8.0,7983.0,-6966.0,9931.0,-7586.0,33.0,-3.0,-2.0,7.0,-4.0,5.0,8986.0,-12760.0,4385.0,-2377.0,-12.0,12.0,3.0,1.0
2022-05-03 17:08:51.450453-07:00,1157.7,894.1,1015.9,971.3,941.5,906.7,1994.5,1501.4,3481.9,3481.9,1274.7,877.2,1521.8,3474.6,1706.2,1315.1,3480.7,3479.5,875.5,1282.8,1562.7,2265.2,1173.5,3489.2,3486.8,3481.9,753.8,1009.0,1740.6,1032.3,915.2,955.1,-7.0,16.0,-6.0,7991.0,-6955.0,9927.0,-7595.0,77.0,-41.0,53.0,13.0,6.0,31.0,8974.0,-12765.0,4391.0,-2386.0,-65.0,54.0,-22.0,1.0
2022-05-03 17:08:51.510247-07:00,1159.4,894.1,1015.9,971.3,940.7,905.9,1997.5,1501.4,3484.4,3481.9,1274.7,877.2,1551.5,3481.9,1703.3,1315.1,3480.7,3479.5,872.1,1277.4,1562.7,2265.2,1173.5,3499.0,3486.8,3483.2,763.7,1021.9,1740.6,1032.3,915.2,966.2,22.0,54.0,-16.0,8048.0,-6928.0,9893.0,-7602.0,119.0,-133.0,3.0,1.0,10.0,-7.0,8935.0,-12785.0,4399.0,-2407.0,-177.0,58.0,-44.0,1.0
2022-05-03 17:08:51.570832-07:00,1159.4,897.4,1010.8,974.8,940.7,905.9,1997.5,1521.8,3484.4,3486.8,1273.9,873.8,1551.5,3481.9,1703.3,1306.1,3474.6,3479.5,872.1,1277.4,1565.5,2262.1,1216.0,3499.0,3481.9,3483.2,763.7,1021.9,1732.0,1015.1,911.8,966.2,32.0,26.0,-21.0,8063.0,-6973.0,9864.0,-7583.0,-248.0,-56.0,-83.0,10.0,-17.0,-3.0,8805.0,-12877.0,4407.0,-2381.0,-458.0,-1.0,-59.0,1.0
2022-05-03 17:08:51.600562-07:00,1158.6,897.4,1010.8,974.8,943.2,904.2,2017.4,1521.8,3479.5,3486.8,1273.9,873.8,1568.3,3488.0,1710.0,1306.1,3474.6,3490.5,870.5,1275.6,1565.5,2262.1,1216.0,3499.0,3481.9,3485.6,762.0,1024.5,1732.0,1015.1,911.8,977.3,-8.0,63.0,-112.0,7967.0,-7107.0,9923.0,-7481.0,-830.0,-117.0,-163.0,5.0,-14.0,25.0,8688.0,-12961.0,4409.0,-2353.0,-413.0,9.0,-88.0,1.0
2022-05-03 17:08:51.630556-07:00,1158.6,879.7,1015.1,973.9,943.2,904.2,2017.4,1548.7,3479.5,3474.6,1248.0,878.9,1568.3,3488.0,1710.0,1296.3,3483.2,3490.5,870.5,1275.6,1564.6,2254.8,1302.5,3499.0,3480.7,3485.6,762.0,1024.5,1736.8,1007.3,915.2,977.3,25.0,-30.0,0.0,7766.0,-7351.0,10064.0,-7267.0,-776.0,26.0,-195.0,-8.0,-9.0,-31.0,8508.0,-13084.0,4408.0,-2332.0,-605.0,37.0,-124.0,1.0
2022-05-03 17:08:51.781258-07:00,1167.4,879.7,1015.1,973.9,933.9,899.1,2082.6,1548.7,3477.1,3474.6,1248.0,878.9,1570.2,3475.9,1619.0,1296.3,3483.2,3474.6,871.3,1276.5,1564.6,2254.8,1302.5,3500.2,3480.7,3477.1,757.9,1068.6,1736.8,1007.3,915.2,991.0,-18.0,-20.0,20.0,7671.0,-7473.0,10121.0,-7164.0,-245.0,-184.0,52.0,16.0,-27.0,19.0,8330.0,-13202.0,4407.0,-2308.0,-214.0,28.0,-81.0,1.0
2022-05-03 17:08:51.810271-07:00,1167.4,857.0,1018.5,973.9,933.9,899.1,2043.4,1481.0,3477.1,3477.1,1216.8,875.5,1570.2,3475.9,1559.9,1281.9,3485.6,3486.8,871.3,1276.5,1565.5,2260.0,1448.8,3500.2,3488.0,3491.7,757.9,1068.6,1737.8,1009.9,911.0,991.0,-47.0,-34.0,86.0,7612.0,-7482.0,10199.0,-7106.0,-42.0,434.0,140.0,18.0,-67.0,94.0,8226.0,-13269.0,4408.0,-2298.0,-215.0,63.0,-46.0,1.0
2022-05-03 17:08:51.812579-07:00,1190.3,851.1,1018.5,973.9,943.2,888.2,2043.4,1481.0,3475.9,3474.6,1216.8,875.5,1562.7,3488.0,1559.9,1281.9,3485.6,3486.8,873.8,1268.5,1565.5,2260.0,1528.3,3507.5,3488.0,3491.7,753.8,1017.6,1737.8,1009.9,907.6,991.9,18.0,34.0,5.0,7611.0,-7434.0,10237.0,-7103.0,-191.0,-16.0,29.0,1.0,16.0,-24.0,8195.0,-13279.0,4420.0,-2325.0,-201.0,69.0,11.0,1.0
2022-05-03 17:08:51.870815-07:00,1190.3,851.1,1015.9,973.9,943.2,888.2,1992.5,1375.7,3475.9,3474.6,1208.0,876.4,1562.7,3488.0,1519.9,1264.9,3477.1,3490.5,873.8,1268.5,1567.4,2264.1,1528.3,3507.5,3481.9,3477.1,753.8,1017.6,1742.6,1008.2,907.6,991.9,3.0,-2.0,15.0,7559.0,-7470.0,10296.0,-7036.0,-172.0,86.0,34.0,7.0,-5.0,-9.0,8104.0,-13326.0,4450.0,-2317.0,-127.0,39.0,1.0,1.0
2022-05-03 17:08:51.930181-07:00,1192.9,841.1,1015.9,973.9,939.0,878.9,1992.5,1375.7,3478.3,3478.3,1208.0,876.4,1560.9,3475.9,1519.9,1264.9,3477.1,3490.5,874.7,1270.3,1567.4,2264.1,1515.3,3489.2,3481.9,3477.1,738.1,959.4,1742.6,1008.2,919.4,983.3,17.0,27.0,0.0,7519.0,-7485.0,10331.0,-7010.0,-77.0,49.0,-48.0,0.0,6.0,-1.0,8073.0,-13343.0,4459.0,-2314.0,-75.0,-8.0,-4.0,1.0
2022-05-03 17:08:51.931699-07:00,1192.9,841.1,1014.2,973.9,939.0,878.9,1950.9,1326.8,3478.3,3478.3,1196.5,875.5,1560.9,3475.9,1506.0,1264.0,3472.2,3477.1,874.7,1270.3,1572.1,2257.9,1515.3,3489.2,3478.3,3477.1,738.1,959.4,1736.8,1007.3,919.4,983.3,2.0,3.0,12.0,7480.0,-7517.0,10338.0,-7009.0,-60.0,-15.0,-83.0,15.0,-16.0,13.0,8044.0,-13362.0,4460.0,-2301.0,-67.0,-6.0,5.0,1.0
2022-05-03 17:08:52.021091-07:00,1190.3,836.1,1021.9,973.9,937.3,867.9,1950.9,1326.8,3478.3,3472.2,1189.4,875.5,1567.4,3477.1,1506.0,1264.0,3472.2,3477.1,878.9,1259.6,1572.1,2261.0,1481.9,3496.6,3478.3,3477.1,731.5,948.3,1736.8,1010.8,905.0,983.3,13.0,5.0,-3.0,7474.0,-7546.0,10317.0,-7013.0,-6.0,-10.0,-41.0,4.0,0.0,-10.0,8038.0,-13365.0,4460.0,-2301.0,-24.0,-5.0,1.0,1.0
2022-05-03 17:08:52.170321-07:00,1190.3,836.1,1021.9,977.3,937.3,861.2,1921.3,1310.6,3478.3,3472.2,1189.4,870.5,1567.4,3471.0,1492.1,1264.9,3477.1,3477.1,875.5,1259.6,1564.6,2261.0,1481.9,3496.6,3484.4,3479.5,728.2,948.3,1739.7,1010.8,905.0,983.3,8.0,-4.0,9.0,7457.0,-7557.0,10326.0,-7006.0,-44.0,15.0,16.0,8.0,-16.0,10.0,8025.0,-13375.0,4461.0,-2292.0,-45.0,-11.0,10.0,1.0
2022-05-03 17:08:52.171604-07:00,1189.4,839.4,1021.9,977.3,934.7,861.2,1921.3,1310.6,3484.4,3474.6,1177.9,870.5,1553.4,3471.0,1492.1,1264.9,3477.1,3477.1,875.5,1256.9,1564.6,2254.8,1474.6,3500.2,3484.4,3479.5,728.2,950.0,1739.7,1015.1,920.3,973.9,5.0,11.0,3.0,7453.0,-7560.0,10329.0,-7005.0,-4.0,-24.0,-27.0,4.0,-8.0,6.0,8023.0,-13376.0,4462.0,-2290.0,-12.0,1.0,6.0,1.0
2022-05-03 17:08:52.172600-07:00,1189.4,839.4,1021.9,971.3,934.7,858.7,1912.4,1303.4,3484.4,3474.6,1177.9,867.9,1553.4,3492.9,1490.3,1261.3,3481.9,3467.4,885.6,1256.9,1570.2,2254.8,1474.6,3500.2,3488.0,3479.5,727.4,950.0,1736.8,1015.1,920.3,973.9,15.0,0.0,9.0,7448.0,-7582.0,10324.0,-6992.0,-18.0,-28.0,-20.0,6.0,-5.0,1.0,8011.0,-13383.0,4464.0,-2287.0,-30.0,0.0,8.0,1.0
2022-05-03 17:08:52.230744-07:00,1189.4,837.7,1014.2,971.3,933.9,858.7,1912.4,1303.4,3467.4,3485.6,1184.1,867.9,1558.1,3492.9,1490.3,1261.3,3481.9,3467.4,885.6,1256.0,1570.2,2262.1,1464.4,3494.1,3488.0,3479.5,727.4,936.4,1736.8,1007.3,907.6,971.3,12.0,16.0,-4.0,7451.0,-7583.0,10314.0,-7003.0,12.0,-5.0,-21.0,1.0,-1.0,-6.0,8017.0,-13380.0,4462.0,-2289.0,34.0,-2.0,0.0,1.0
2022-05-03 17:08:52.232509-07:00,1189.4,837.7,1014.2,976.5,936.4,854.5,1905.6,1303.4,3467.4,3485.6,1184.1,867.9,1550.6,3475.9,1494.0,1262.2,3485.6,3480.7,867.1,1256.0,1567.4,2262.1,1464.4,3494.1,3480.7,3481.9,727.4,936.4,1738.7,1007.3,907.6,971.3,5.0,-3.0,9.0,7441.0,-7591.0,10316.0,-7001.0,6.0,2.0,-1.0,6.0,-15.0,7.0,8008.0,-13385.0,4464.0,-2287.0,-17.0,-6.0,5.0,1.0
2022-05-03 17:08:52.320918-07:00,1189.4,835.2,1013.3,973.1,936.4,854.5,1905.6,1303.4,3481.9,3478.3,1178.8,871.3,1550.6,3475.9,1494.0,1262.2,3485.6,3480.7,867.1,1256.0,1566.5,2261.0,1455.2,3507.5,3480.7,3481.9,727.4,936.4,1736.8,1009.0,911.8,973.9,10.0,19.0,-6.0,7444.0,-7589.0,10313.0,-7005.0,-1.0,-12.0,3.0,4.0,-1.0,3.0,8014.0,-13381.0,4462.0,-2289.0,-3.0,7.0,3.0,1.0
2022-05-03 17:08:52.530145-07:00,1189.4,835.2,1013.3,973.1,935.6,862.1,1895.8,1315.1,3481.9,3478.3,1178.8,871.3,1553.4,3472.2,1471.8,1256.0,3479.5,3479.5,873.8,1260.4,1566.5,2261.0,1455.2,3507.5,3485.6,3483.2,721.6,939.8,1736.8,1009.0,911.8,973.9,19.0,0.0,8.0,7444.0,-7603.0,10311.0,-6993.0,-17.0,-15.0,-16.0,3.0,-4.0,-3.0,8008.0,-13385.0,4463.0,-2288.0,-3.0,-1.0,-1.0,1.0
2022-05-03 17:08:52.531924-07:00,1189.4,826.9,1021.1,968.8,935.6,862.1,1895.8,1315.1,3480.7,3488.0,1179.7,873.0,1553.4,3472.2,1471.8,1256.0,3479.5,3479.5,873.8,1260.4,1566.5,2259.0,1440.5,3502.7,3485.6,3483.2,721.6,939.8,1741.6,1013.3,907.6,967.1,6.0,17.0,-1.0,7445.0,-7600.0,10306.0,-7003.0,18.0,-6.0,-15.0,5.0,-1.0,2.0,8017.0,-13379.0,4461.0,-2291.0,28.0,-5.0,1.0,1.0
2022-05-03 17:08:52.560151-07:00,1189.4,826.9,1021.1,968.8,937.3,847.8,1887.9,1296.3,3480.7,3488.0,1179.7,873.0,1549.7,3473.4,1481.0,1258.7,3485.6,3488.0,877.2,1259.6,1566.5,2259.0,1440.5,3502.7,3477.1,3480.7,724.9,935.6,1741.6,1013.3,907.6,967.1,8.0,6.0,4.0,7440.0,-7609.0,10302.0,-7005.0,-9.0,-6.0,-24.0,5.0,-9.0,1.0,8015.0,-13381.0,4461.0,-2291.0,-5.0,-4.0,0.0,1.0
2022-05-03 17:08:52.561246-07:00,1182.3,828.5,1019.4,966.2,937.3,847.8,1887.9,1296.3,3472.2,3477.1,1170.9,872.1,1549.7,3473.4,1481.0,1258.7,3485.6,3488.0,877.2,1259.6,1566.5,2278.6,1446.0,3500.2,3477.1,3480.7,724.9,935.6,1734.9,1008.2,909.3,964.5,4.0,3.0,-3.0,7434.0,-7610.0,10302.0,-7010.0,-5.0,6.0,13.0,8.0,-8.0,6.0,8016.0,-13380.0,4461.0,-2291.0,-4.0,2.0,6.0,1.0
2022-05-03 17:08:52.598668-07:00,1183.2,828.5,1019.4,966.2,936.4,844.4,1890.9,1290.0,3472.2,3477.1,1170.9,872.1,1546.9,3480.7,1488.4,1256.9,3486.8,3479.5,875.5,1259.6,1566.5,2278.6,1446.0,3505.1,3488.0,3483.2,726.6,940.7,1734.9,1008.2,909.3,966.2,6.0,16.0,-2.0,7434.0,-7611.0,10305.0,-7003.0,-8.0,-25.0,-5.0,3.0,-4.0,3.0,8014.0,-13381.0,4461.0,-2291.0,-14.0,1.0,4.0,1.0
2022-05-03 17:08:52.650496-07:00,1183.2,822.7,1013.3,968.8,936.4,844.4,1890.9,1305.2,3472.2,3474.6,1174.4,864.6,1546.9,3480.7,1488.4,1256.9,3480.7,3479.5,875.5,1259.6,1564.6,2263.1,1433.2,3505.1,3477.1,3483.2,726.6,940.7,1735.8,1003.9,905.0,966.2,11.0,5.0,1.0,7439.0,-7622.0,10296.0,-7000.0,-1.0,-29.0,-18.0,1.0,-1.0,-1.0,8015.0,-13381.0,4460.0,-2291.0,-3.0,-10.0,-7.0,1.0
2022-05-03 17:08:52.651677-07:00,1184.1,822.7,1013.3,968.8,937.3,854.5,1887.9,1305.2,3472.2,3474.6,1174.4,864.6,1544.1,3478.3,1480.1,1256.9,3480.7,3485.6,873.0,1256.9,1564.6,2263.1,1433.2,3505.1,3477.1,3485.6,718.4,937.3,1735.8,1003.9,905.0,964.5,15.0,13.0,6.0,7446.0,-7629.0,10287.0,-6998.0,17.0,-21.0,-10.0,5.0,0.0,0.0,8019.0,-13379.0,4458.0,-2291.0,29.0,-11.0,-8.0,1.0
2022-05-03 17:08:52.680643-07:00,1184.1,819.4,1015.1,972.2,937.3,854.5,1887.9,1287.3,3472.2,3478.3,1167.4,872.1,1544.1,3478.3,1480.1,1256.9,3488.0,3485.6,873.0,1256.9,1565.5,2257.9,1434.1,3505.1,3485.6,3485.6,718.4,937.3,1734.9,1010.8,909.3,964.5,1.0,-5.0,12.0,7447.0,-7631.0,10278.0,-7007.0,16.0,36.0,2.0,2.0,-8.0,5.0,8023.0,-13378.0,4457.0,-2291.0,-6.0,0.0,-2.0,1.0
2022-05-03 17:08:52.890284-07:00,1179.7,819.4,1015.1,972.2,939.0,852.8,1880.1,1287.3,3480.7,3478.3,1167.4,872.1,1541.3,3478.3,1473.6,1256.9,3488.0,3486.8,878.0,1263.1,1565.5,2257.9,1434.1,3496.6,3485.6,3475.9,721.6,943.2,1734.9,1010.8,909.3,967.9,12.0,19.0,3.0,7446.0,-7623.0,10284.0,-7009.0,-10.0,3.0,12.0,6.0,-1.0,6.0,8025.0,-13375.0,4461.0,-2292.0,-7.0,12.0,17.0,1.0
2022-05-03 17:08:52.892085-07:00,1179.7,823.5,1015.9,973.9,939.0,852.8,1876.2,1281.0,3480.7,3483.2,1182.3,862.9,1541.3,3478.3,1470.0,1258.7,3477.1,3483.2,878.0,1263.1,1567.4,2263.1,1434.1,3496.6,3478.3,3497.8,721.6,943.2,1747.3,1008.2,908.4,967.9,8.0,7.0,-5.0,7441.0,-7626.0,10284.0,-7011.0,1.0,21.0,-18.0,2.0,0.0,-3.0,8021.0,-13377.0,4462.0,-2290.0,-16.0,-2.0,0.0,1.0
2022-05-03 17:08:52.950665-07:00,1184.1,817.7,1015.9,973.9,938.1,844.4,1876.2,1281.0,3478.3,3472.2,1182.3,862.9,1545.0,3475.9,1470.0,1258.7,3477.1,3483.2,880.6,1260.4,1567.4,2263.1,1426.8,3511.2,3478.3,3497.8,721.6,939.8,1747.3,1008.2,907.6,952.6,8.0,11.0,1.0,7439.0,-7629.0,10282.0,-7012.0,0.0,-30.0,-6.0,2.0,-5.0,-3.0,8020.0,-13377.0,4462.0,-2290.0,5.0,-6.0,2.0,1.0
2022-05-03 17:08:52.952446-07:00,1184.1,817.7,1018.5,965.4,938.1,844.4,1875.2,1291.8,3478.3,3472.2,1170.0,869.6,1545.0,3475.9,1475.5,1248.8,3472.2,3472.2,880.6,1260.4,1571.1,2263.1,1426.8,3511.2,3479.5,3480.7,721.6,939.8,1731.1,1009.9,907.6,952.6,10.0,13.0,-2.0,7445.0,-7636.0,10272.0,-7012.0,5.0,-16.0,-18.0,2.0,-5.0,2.0,8023.0,-13376.0,4461.0,-2290.0,9.0,-7.0,-9.0,1.0
2022-05-03 17:08:52.953356-07:00,1181.5,815.2,1018.5,965.4,939.8,852.0,1875.2,1291.8,3475.9,3473.4,1170.0,869.6,1543.1,3479.5,1475.5,1248.8,3472.2,3472.2,883.1,1256.0,1571.1,2263.1,1423.1,3497.8,3479.5,3480.7,715.9,937.3,1731.1,1009.9,906.7,960.2,8.0,1.0,10.0,7445.0,-7641.0,10271.0,-7010.0,-3.0,-12.0,9.0,5.0,-10.0,4.0,8023.0,-13376.0,4461.0,-2291.0,6.0,2.0,5.0,1.0
2022-05-03 17:08:52.979994-07:00,1181.5,815.2,1019.4,966.2,939.8,852.0,1875.2,1290.0,3475.9,3473.4,1175.3,869.6,1543.1,3479.5,1461.7,1248.8,3486.8,3481.9,883.1,1256.0,1565.5,2256.9,1423.1,3497.8,3485.6,3481.9,715.9,937.3,1738.7,1008.2,906.7,960.2,7.0,6.0,1.0,7446.0,-7638.0,10270.0,-7014.0,21.0,24.0,-2.0,6.0,-8.0,2.0,8024.0,-13375.0,4460.0,-2292.0,7.0,6.0,5.0,1.0
2022-05-03 17:08:53.040555-07:00,1185.0,816.0,1015.9,966.2,938.1,847.8,1875.2,1290.0,3472.2,3467.4,1167.4,869.6,1536.6,3467.4,1461.7,1248.8,3486.8,3481.9,876.4,1258.7,1565.5,2254.8,1416.7,3499.0,3485.6,3481.9,717.5,936.4,1738.7,1008.2,908.4,956.0,7.0,6.0,-1.0,7443.0,-7634.0,10272.0,-7018.0,-14.0,2.0,5.0,5.0,-7.0,4.0,8023.0,-13376.0,4461.0,-2291.0,-12.0,2.0,9.0,1.0
2022-05-03 17:08:53.130527-07:00,1185.0,816.0,1015.9,973.9,938.1,846.1,1875.2,1283.7,3472.2,3467.4,1167.4,864.6,1536.6,3480.7,1470.0,1253.3,3488.0,3477.1,876.4,1258.7,1567.4,2254.8,1416.7,3499.0,3490.5,3480.7,715.9,936.4,1741.6,1008.2,908.4,956.0,7.0,10.0,0.0,7442.0,-7635.0,10272.0,-7017.0,24.0,-5.0,-11.0,5.0,-6.0,5.0,8025.0,-13375.0,4461.0,-2292.0,21.0,0.0,-6.0,1.0
2022-05-03 17:08:53.220782-07:00,1178.8,825.2,1017.6,973.9,934.7,846.1,1875.2,1283.7,3475.9,3480.7,1163.8,864.6,1541.3,3480.7,1470.0,1253.3,3488.0,3477.1,876.4,1264.0,1567.4,2267.2,1407.6,3481.9,3490.5,3480.7,715.9,935.6,1741.6,1010.8,900.0,956.0,5.0,6.0,4.0,7445.0,-7637.0,10265.0,-7023.0,-16.0,-12.0,-9.0,6.0,-8.0,3.0,8026.0,-13374.0,4461.0,-2292.0,-18.0,-4.0,-2.0,1.0
2022-05-03 17:08:53.340965-07:00,1178.8,825.2,1017.6,975.6,934.7,852.0,1860.6,1289.1,3475.9,3480.7,1163.8,869.6,1541.3,3469.8,1463.5,1247.1,3480.7,3478.3,874.7,1264.0,1574.9,2267.2,1407.6,3481.9,3478.3,3481.9,717.5,935.6,1738.7,1010.8,900.0,956.0,12.0,5.0,5.0,7443.0,-7642.0,10267.0,-7016.0,1.0,6.0,3.0,4.0,-10.0,3.0,8021.0,-13377.0,4462.0,-2290.0,-1.0,-3.0,5.0,1.0
2022-05-03 17:08:53.341855-07:00,1176.2,814.4,1012.5,975.6,936.4,852.0,1860.6,1289.1,3478.3,3488.0,1172.6,869.6,1543.1,3469.8,1463.5,1247.1,3480.7,3478.3,874.7,1256.0,1574.9,2267.2,1412.2,3473.4,3478.3,3481.9,717.5,935.6,1738.7,1004.8,912.7,957.7,10.0,12.0,-1.0,7441.0,-7639.0,10268.0,-7019.0,-13.0,7.0,4.0,4.0,0.0,3.0,8021.0,-13377.0,4462.0,-2290.0,-10.0,4.0,7.0,1.0
2022-05-03 17:08:53.343183-07:00,1176.2,814.4,1012.5,972.2,936.4,844.4,1867.4,1277.4,3478.3,3488.0,1172.6,863.7,1543.1,3478.3,1466.3,1256.9,3479.5,3478.3,875.5,1256.0,1567.4,2267.2,1412.2,3473.4,3480.7,3483.2,719.2,935.6,1737.8,1004.8,912.7,957.7,7.0,9.0,-2.0,7434.0,-7636.0,10276.0,-7019.0,12.0,15.0,6.0,6.0,-8.0,2.0,8016.0,-13380.0,4463.0,-2288.0,7.0,2.0,7.0,1.0
2022-05-03 17:08:53.345282-07:00,1178.8,818.5,1016.8,973.9,935.6,844.4,1867.4,1277.4,3475.9,3469.8,1172.6,867.1,1541.3,3478.3,1466.3,1256.9,3479.5,3478.3,875.5,1261.3,1573.9,2264.1,1404.0,3485.6,3480.7,3483.2,719.2,938.1,1744.5,1005.6,911.8,961.1,15.0,11.0,-2.0,7435.0,-7634.0,10275.0,-7022.0,4.0,9.0,-5.0,3.0,-3.0,-5.0,8018.0,-13379.0,4463.0,-2289.0,-3.0,-7.0,-1.0,1.0
2022-05-03 17:08:53.400464-07:00,1178.8,818.5,1016.8,973.9,935.6,843.6,1869.3,1282.8,3475.9,3469.8,1172.6,867.1,1535.7,3471.0,1472.7,1259.6,3488.0,3479.5,881.4,1259.6,1573.9,2264.1,1404.0,3485.6,3481.9,3481.9,715.9,936.4,1744.5,1005.6,911.8,961.1,7.0,8.0,5.0,7433.0,-7635.0,10276.0,-7020.0,-1.0,-12.0,3.0,1.0,-10.0,4.0,8018.0,-13379.0,4463.0,-2288.0,6.0,-9.0,-1.0,1.0
2022-05-03 17:08:53.430526-07:00,1177.0,815.2,1008.2,973.9,935.6,843.6,1869.3,1282.8,3478.3,3478.3,1177.0,872.1,1535.7,3471.0,1472.7,1259.6,3488.0,3479.5,881.4,1259.6,1571.1,2257.9,1407.6,3474.6,3481.9,3481.9,715.9,936.4,1738.7,1002.2,912.7,960.2,12.0,13.0,3.0,7436.0,-7639.0,10274.0,-7017.0,-19.0,-4.0,-15.0,3.0,-3.0,0.0,8019.0,-13378.0,4462.0,-2289.0,-19.0,-6.0,-5.0,1.0
2022-05-03 17:08:53.520221-07:00,1177.0,815.2,1008.2,973.9,939.8,852.0,1861.5,1279.2,3478.3,3478.3,1177.0,872.1,1535.7,3469.8,1467.2,1250.6,3483.2,3478.3,877.2,1267.6,1571.1,2257.9,1407.6,3474.6,3477.1,3481.9,706.0,932.2,1738.7,1002.2,912.7,960.2,7.0,3.0,5.0,7432.0,-7644.0,10273.0,-7017.0,2.0,-4.0,-1.0,6.0,-11.0,5.0,8013.0,-13382.0,4463.0,-2287.0,-1.0,0.0,-2.0,1.0
2022-05-03 17:08:53.610162-07:00,1170.9,812.7,1012.5,967.1,939.8,852.0,1861.5,1279.2,3478.3,3477.1,1166.5,867.1,1535.7,3469.8,1467.2,1250.6,3483.2,3478.3,877.2,1267.6,1566.5,2259.0,1408.5,3467.4,3477.1,3481.9,706.0,932.2,1733.0,995.3,919.4,960.2,16.0,9.0,4.0,7432.0,-7643.0,10274.0,-7017.0,2.0,25.0,10.0,3.0,-5.0,-1.0,8013.0,-13382.0,4463.0,-2287.0,5.0,2.0,6.0,1.0
2022-05-03 17:08:53.730432-07:00,1174.4,812.7,1012.5,967.1,937.3,840.3,1854.7,1276.5,3472.2,3477.1,1166.5,867.1,1536.6,3478.3,1479.2,1253.3,3472.2,3484.4,888.2,1257.8,1566.5,2259.0,1408.5,3464.9,3488.0,3484.4,706.9,933.9,1733.0,995.3,919.4,955.1,6.0,12.0,-2.0,7426.0,-7628.0,10282.0,-7027.0,20.0,25.0,8.0,5.0,-7.0,8.0,8014.0,-13381.0,4463.0,-2287.0,15.0,8.0,9.0,1.0
2022-05-03 17:08:53.760037-07:00,1174.4,813.5,1012.5,967.9,937.3,840.3,1854.7,1281.0,3472.2,3479.5,1168.2,867.1,1536.6,3478.3,1479.2,1253.3,3477.1,3484.4,888.2,1257.8,1569.3,2249.7,1402.1,3464.9,3477.1,3484.4,706.9,933.9,1733.0,1009.9,913.5,955.1,6.0,4.0,1.0,7421.0,-7622.0,10285.0,-7035.0,16.0,27.0,2.0,5.0,-7.0,4.0,8016.0,-13380.0,4463.0,-2288.0,-8.0,-5.0,1.0,1.0
2022-05-03 17:08:53.761210-07:00,1172.6,813.5,1012.5,967.9,928.8,841.9,1852.8,1281.0,3478.3,3479.5,1168.2,867.1,1537.6,3477.1,1460.8,1253.3,3477.1,3481.9,874.7,1249.7,1569.3,2249.7,1402.1,3450.4,3477.1,3472.2,712.6,925.4,1733.0,1009.9,913.5,956.0,2.0,11.0,-14.0,7417.0,-7616.0,10289.0,-7040.0,-19.0,2.0,1.0,2.0,-4.0,5.0,8016.0,-13380.0,4463.0,-2288.0,-8.0,-4.0,5.0,1.0
2022-05-03 17:08:53.762392-07:00,1172.6,808.5,1011.6,969.6,928.8,841.9,1852.8,1265.8,3478.3,3478.3,1168.2,867.1,1537.6,3477.1,1460.8,1248.8,3481.9,3481.9,874.7,1249.7,1573.9,2263.1,1393.9,3450.4,3481.9,3472.2,712.6,925.4,1733.9,1007.3,905.0,956.0,14.0,6.0,0.0,7416.0,-7621.0,10286.0,-7038.0,-2.0,1.0,-15.0,0.0,-6.0,-4.0,8013.0,-13382.0,4463.0,-2287.0,-7.0,-2.0,-5.0,1.0
2022-05-03 17:08:53.790327-07:00,1177.9,808.5,1011.6,969.6,932.2,841.1,1857.6,1265.8,3486.8,3478.3,1168.2,867.1,1536.6,3481.9,1463.5,1248.8,3481.9,3483.2,874.7,1254.2,1573.9,2263.1,1393.9,3456.4,3481.9,3477.1,711.0,932.2,1733.9,1007.3,905.0,948.3,8.0,9.0,0.0,7416.0,-7621.0,10285.0,-7041.0,13.0,-9.0,9.0,6.0,-6.0,6.0,8015.0,-13381.0,4463.0,-2287.0,21.0,-7.0,1.0,1.0
2022-05-03 17:08:53.850430-07:00,1177.9,811.9,1010.8,973.9,932.2,841.1,1857.6,1270.3,3486.8,3475.9,1168.2,862.9,1536.6,3481.9,1463.5,1253.3,3481.9,3483.2,874.7,1254.2,1577.7,2257.9,1397.6,3456.4,3494.1,3477.1,711.0,932.2,1741.6,1004.8,908.4,948.3,7.0,9.0,2.0,7417.0,-7622.0,10285.0,-7039.0,-13.0,-2.0,-8.0,4.0,-8.0,5.0,8017.0,-13379.0,4463.0,-2288.0,-18.0,-4.0,1.0,1.0
2022-05-03 17:08:54.060296-07:00,1177.9,811.9,1010.8,973.9,936.4,836.9,1852.8,1270.3,3472.2,3484.4,1168.2,862.9,1534.8,3472.2,1463.5,1253.3,3481.9,3479.5,874.7,1257.8,1577.7,2257.9,1393.9,3457.6,3494.1,3488.0,711.8,930.5,1741.6,1004.8,910.1,957.7,4.0,4.0,1.0,7417.0,-7623.0,10285.0,-7038.0,2.0,-13.0,0.0,5.0,-7.0,5.0,8018.0,-13379.0,4463.0,-2288.0,11.0,-3.0,-1.0,1.0
2022-05-03 17:08:54.062016-07:00,1177.9,811.9,1010.8,967.1,936.4,836.9,1851.8,1259.6,3472.2,3484.4,1159.4,865.4,1534.8,3472.2,1458.0,1253.3,3479.5,3483.2,874.7,1257.8,1566.5,2257.9,1393.9,3457.6,3483.2,3481.9,711.8,930.5,1741.6,1010.8,910.1,957.7,13.0,6.0,11.0,7419.0,-7626.0,10283.0,-7035.0,-29.0,-4.0,-10.0,1.0,-5.0,2.0,8016.0,-13380.0,4463.0,-2288.0,-25.0,-2.0,5.0,1.0
2022-05-03 17:08:54.062983-07:00,1177.0,813.5,1010.8,967.1,936.4,839.4,1851.8,1259.6,3474.6,3477.1,1159.4,865.4,1535.7,3477.1,1458.0,1253.3,3479.5,3483.2,875.5,1259.6,1566.5,2257.9,1388.5,3461.3,3483.2,3481.9,712.6,930.5,1741.6,1010.8,908.4,956.0,13.0,8.0,1.0,7416.0,-7622.0,10285.0,-7040.0,20.0,3.0,12.0,4.0,-4.0,0.0,8015.0,-13381.0,4463.0,-2287.0,23.0,4.0,4.0,1.0
2022-05-03 17:08:54.064108-07:00,1177.0,813.5,1012.5,968.8,936.4,839.4,1845.0,1263.1,3474.6,3477.1,1162.1,866.3,1535.7,3477.1,1453.4,1251.5,3483.2,3481.9,875.5,1259.6,1569.3,2266.2,1388.5,3461.3,3473.4,3478.3,712.6,930.5,1732.0,1015.1,908.4,956.0,9.0,7.0,3.0,7412.0,-7620.0,10290.0,-7040.0,-13.0,19.0,-2.0,6.0,-5.0,5.0,8013.0,-13382.0,4464.0,-2286.0,-19.0,0.0,7.0,1.0
2022-05-03 17:08:54.120244-07:00,1179.7,806.0,1012.5,968.8,936.4,845.3,1845.0,1263.1,3480.7,3474.6,1162.1,866.3,1532.0,3479.5,1453.4,1251.5,3483.2,3481.9,877.2,1260.4,1569.3,2266.2,1390.3,3431.0,3473.4,3478.3,711.8,936.4,1732.0,1015.1,905.0,960.2,13.0,4.0,0.0,7410.0,-7620.0,10290.0,-7041.0,-1.0,6.0,1.0,4.0,-7.0,2.0,8010.0,-13384.0,4465.0,-2286.0,4.0,11.0,6.0,1.0
2022-05-03 17:08:54.122130-07:00,1179.7,806.0,1009.9,970.5,936.4,844.4,1850.8,1271.2,3480.7,3474.6,1169.1,872.1,1532.0,3478.3,1463.5,1249.7,3481.9,3477.1,895.7,1260.4,1562.7,2261.0,1390.3,3431.0,3480.7,3475.9,708.5,936.4,1734.9,1006.5,905.0,960.2,9.0,10.0,4.0,7406.0,-7613.0,10297.0,-7043.0,8.0,19.0,16.0,3.0,-7.0,4.0,8010.0,-13384.0,4465.0,-2286.0,8.0,0.0,6.0,1.0
2022-05-03 17:08:54.420295-07:00,1175.3,806.9,1013.3,970.5,929.6,844.4,1850.8,1271.2,3484.4,3477.1,1159.4,872.1,1534.8,3478.3,1463.5,1249.7,3481.9,3477.1,895.7,1259.6,1562.7,2261.0,1383.9,3457.6,3480.7,3475.9,708.5,935.6,1734.9,1007.3,911.0,951.7,9.0,11.0,-3.0,7405.0,-7608.0,10299.0,-7046.0,-1.0,3.0,-4.0,1.0,-7.0,2.0,8010.0,-13383.0,4465.0,-2286.0,-5.0,1.0,4.0,1.0
2022-05-03 17:08:54.421413-07:00,1175.3,806.9,1013.3,970.5,929.6,840.3,1843.0,1269.4,3484.4,3477.1,1159.4,862.1,1534.8,3474.6,1459.8,1250.6,3478.3,3478.3,871.3,1259.6,1561.8,2261.0,1383.9,3457.6,3478.3,3483.2,707.7,935.6,1733.0,1007.3,911.0,951.7,8.0,10.0,1.0,7402.0,-7607.0,10303.0,-7045.0,-6.0,25.0,17.0,5.0,-12.0,9.0,8008.0,-13384.0,4465.0,-2285.0,5.0,2.0,5.0,1.0
2022-05-03 17:08:54.451076-07:00,1170.9,815.2,1010.8,970.5,930.5,840.3,1843.0,1269.4,3474.6,3488.0,1160.3,862.1,1537.6,3474.6,1459.8,1250.6,3478.3,3478.3,871.3,1267.6,1561.8,2257.9,1383.0,3475.9,3478.3,3483.2,707.7,934.7,1733.0,1007.3,911.0,961.1,12.0,13.0,-5.0,7403.0,-7606.0,10303.0,-7045.0,2.0,-11.0,-14.0,1.0,0.0,-1.0,8009.0,-13384.0,4465.0,-2286.0,-18.0,1.0,-1.0,1.0
2022-05-03 17:08:54.452394-07:00,1170.9,815.2,1010.8,969.6,930.5,838.6,1840.1,1273.0,3474.6,3488.0,1160.3,864.6,1537.6,3474.6,1455.2,1253.3,3478.3,3477.1,874.7,1267.6,1571.1,2257.9,1383.0,3475.9,3477.1,3480.7,710.1,934.7,1736.8,1007.3,911.0,961.1,23.0,-9.0,17.0,7402.0,-7608.0,10303.0,-7044.0,8.0,-6.0,15.0,5.0,-10.0,-8.0,8028.0,-13375.0,4456.0,-2286.0,129.0,-49.0,-21.0,1.0
2022-05-03 17:08:54.453294-07:00,1173.5,802.7,1014.2,967.1,936.4,838.6,1840.1,1273.0,3477.1,3474.6,1160.3,872.1,1536.6,3474.6,1455.2,1253.3,3478.3,3477.1,874.7,1262.2,1570.2,2259.0,1394.8,3445.5,3477.1,3480.7,710.1,947.5,1734.9,1006.5,907.6,945.8,-39.0,-90.0,124.0,7389.0,-7590.0,10361.0,-6991.0,-380.0,16.0,244.0,-4.0,-45.0,15.0,8092.0,-13339.0,4452.0,-2279.0,189.0,-33.0,105.0,1.0
2022-05-03 17:08:54.455384-07:00,1173.5,802.7,1014.2,967.1,936.4,858.7,1915.4,1309.7,3477.1,3474.6,1160.3,872.1,1532.9,3483.2,1527.3,1260.4,3488.0,3484.4,886.5,1259.6,1570.2,2259.0,1394.8,3445.5,3479.5,3484.4,715.1,1095.6,1734.9,1006.5,907.6,945.8,21.0,-123.0,70.0,7471.0,-7435.0,10449.0,-6940.0,530.0,45.0,504.0,4.0,-62.0,-5.0,8270.0,-13219.0,4467.0,-2310.0,750.0,-20.0,127.0,1.0
2022-05-03 17:08:54.540840-07:00,1170.0,811.0,1023.7,969.6,936.4,858.7,1915.4,1309.7,3474.6,3481.9,1256.9,880.6,1532.9,3483.2,1527.3,1260.4,3488.0,3484.4,886.5,1259.6,1572.1,2262.1,1367.6,3432.2,3479.5,3484.4,715.1,1095.6,1737.8,1004.8,910.1,952.6,87.0,169.0,-127.0,7787.0,-7056.0,10289.0,-7222.0,1494.0,5.0,329.0,11.0,70.0,-13.0,8646.0,-12971.0,4430.0,-2409.0,999.0,-16.0,29.0,1.0
2022-05-03 17:08:54.570921-07:00,1170.0,811.0,1023.7,969.6,936.4,878.9,2136.1,1638.8,3474.6,3481.9,1256.9,880.6,1546.9,3467.4,1688.1,1287.3,3484.4,3480.7,871.3,1267.6,1572.1,2262.1,1367.6,3432.2,3483.2,3479.5,748.8,1111.2,1737.8,1004.8,910.1,952.6,93.0,32.0,-63.0,7828.0,-6940.0,10258.0,-7333.0,-256.0,83.0,-181.0,1.0,-13.0,-7.0,8741.0,-12916.0,4407.0,-2408.0,0.0,-141.0,3.0,1.0
2022-05-03 17:08:54.571920-07:00,1173.5,833.6,1021.1,970.5,936.4,878.9,2136.1,1638.8,3475.9,3477.1,1324.1,904.2,1546.9,3467.4,1688.1,1287.3,3484.4,3480.7,871.3,1267.6,1576.8,2255.9,1314.2,3492.9,3483.2,3479.5,748.8,1111.2,1735.8,1009.9,908.4,977.3,-38.0,14.0,-36.0,7720.0,-6962.0,10275.0,-7402.0,254.0,192.0,-93.0,3.0,-35.0,43.0,8840.0,-12869.0,4352.0,-2397.0,409.0,-86.0,-17.0,1.0
2022-05-03 17:08:54.660104-07:00,1173.5,833.6,1021.1,970.5,938.1,911.0,2119.9,1671.9,3475.9,3477.1,1324.1,904.2,1531.0,3475.9,1772.3,1307.9,3481.9,3484.4,878.0,1281.0,1576.8,2255.9,1314.2,3492.9,3483.2,3485.6,779.4,1095.6,1735.8,1009.9,908.4,977.3,105.0,52.0,20.0,7815.0,-6948.0,10179.0,-7449.0,149.0,-299.0,-56.0,-8.0,74.0,-68.0,8961.0,-12794.0,4310.0,-2422.0,97.0,-94.0,-27.0,1.0
2022-05-03 17:08:54.840261-07:00,1191.2,841.1,1023.7,972.2,938.1,911.0,2119.9,1632.2,3479.5,3478.3,1332.3,898.3,1531.0,3475.9,1772.3,1301.6,3481.9,3484.4,878.0,1281.0,1581.4,2260.0,1274.7,3506.3,3481.9,3485.6,779.4,1095.6,1752.1,1008.2,905.0,996.2,-21.0,19.0,-1.0,7830.0,-6945.0,10154.0,-7469.0,73.0,-19.0,-17.0,18.0,-54.0,56.0,8988.0,-12783.0,4284.0,-2427.0,204.0,-17.0,-49.0,1.0
2022-05-03 17:08:54.841545-07:00,1200.0,841.1,1023.7,972.2,937.3,910.1,2072.5,1632.2,3478.3,3478.3,1332.3,898.3,1536.6,3480.7,1765.6,1301.6,3481.9,3477.1,878.0,1307.0,1581.4,2260.0,1274.7,3499.0,3481.9,3485.6,778.6,1074.7,1752.1,1008.2,905.0,1025.4,23.0,-27.0,29.0,7840.0,-7001.0,10103.0,-7477.0,-51.0,-18.0,-152.0,-1.0,-26.0,7.0,8987.0,-12788.0,4270.0,-2428.0,-47.0,-42.0,-33.0,1.0
2022-05-03 17:08:54.842375-07:00,1200.0,838.6,1028.0,979.9,937.3,910.1,2072.5,1627.5,3478.3,3467.4,1336.8,908.4,1536.6,3480.7,1765.6,1290.0,3485.6,3477.1,878.0,1307.0,1589.9,2265.2,1252.4,3499.0,3490.5,3485.6,778.6,1074.7,1739.7,1007.3,905.9,1025.4,13.0,16.0,9.0,7833.0,-7002.0,10089.0,-7500.0,28.0,-37.0,10.0,3.0,-5.0,3.0,9009.0,-12776.0,4256.0,-2436.0,27.0,14.0,13.0,1.0
2022-05-03 17:08:54.843429-07:00,1181.5,838.6,1028.0,979.9,932.2,916.0,2063.5,1627.5,3481.9,3467.4,1336.8,908.4,1531.0,3473.4,1770.4,1290.0,3485.6,3488.0,883.9,1296.3,1589.9,2265.2,1252.4,3507.5,3490.5,3494.1,776.9,1062.5,1739.7,1007.3,905.9,1057.3,1.0,5.0,26.0,7826.0,-7007.0,10094.0,-7497.0,11.0,94.0,8.0,4.0,10.0,-10.0,9008.0,-12776.0,4259.0,-2435.0,-6.0,25.0,-1.0,1.0
2022-05-03 17:08:54.901321-07:00,1181.5,851.1,1036.6,977.3,932.2,916.0,2063.5,1617.1,3481.9,3483.2,1341.3,911.8,1531.0,3473.4,1770.4,1285.5,3484.4,3488.0,883.9,1296.3,1586.1,2259.0,1247.1,3507.5,3481.9,3494.1,776.9,1062.5,1725.3,1005.6,905.9,1057.3,11.0,6.0,-10.0,7816.0,-6979.0,10109.0,-7513.0,-7.0,6.0,31.0,0.0,-1.0,-1.0,9016.0,-12767.0,4263.0,-2446.0,11.0,15.0,8.0,1.0
2022-05-03 17:08:54.930456-07:00,1181.5,836.1,1036.6,977.3,935.6,911.8,2065.5,1617.1,3479.5,3478.3,1341.3,911.8,1532.9,3475.9,1763.7,1285.5,3484.4,3488.0,877.2,1297.2,1586.1,2259.0,1227.5,3500.2,3481.9,3485.6,771.1,1057.3,1725.3,1005.6,905.0,1068.6,-12.0,5.0,-1.0,7821.0,-6958.0,10114.0,-7521.0,105.0,22.0,33.0,2.0,-18.0,17.0,9027.0,-12757.0,4264.0,-2457.0,92.0,24.0,-1.0,1.0
2022-05-03 17:08:55.140915-07:00,1181.5,836.1,1032.3,984.2,935.6,911.8,2042.4,1596.4,3479.5,3478.3,1336.8,917.7,1532.9,3475.9,1754.1,1278.3,3477.1,3477.1,877.2,1297.2,1593.6,2255.9,1227.5,3500.2,3474.6,3477.1,771.1,1057.3,1733.0,1007.3,905.0,1068.6,28.0,43.0,-4.0,7856.0,-6941.0,10084.0,-7540.0,75.0,-83.0,-25.0,0.0,16.0,-17.0,9056.0,-12733.0,4262.0,-2477.0,-30.0,21.0,-9.0,1.0
2022-05-03 17:08:55.142063-07:00,1180.6,831.9,1032.3,984.2,936.4,919.4,2042.4,1596.4,3474.6,3467.4,1336.8,917.7,1529.2,3480.7,1754.1,1278.3,3477.1,3477.1,878.9,1296.3,1593.6,2255.9,1223.9,3485.6,3474.6,3477.1,772.8,1052.2,1733.0,1007.3,904.2,1063.4,7.0,0.0,-2.0,7854.0,-6964.0,10066.0,-7544.0,-13.0,-48.0,-52.0,2.0,-6.0,0.0,9038.0,-12743.0,4266.0,-2482.0,-19.0,20.0,-9.0,1.0
2022-05-03 17:08:55.143139-07:00,1180.6,831.9,1029.7,981.6,936.4,919.4,2028.4,1607.7,3474.6,3467.4,1326.8,917.7,1529.2,3480.7,1748.3,1273.9,3479.5,3477.1,878.9,1296.3,1591.7,2255.9,1223.9,3485.6,3475.9,3478.3,772.8,1052.2,1742.6,1006.5,904.2,1063.4,18.0,4.0,3.0,7849.0,-6997.0,10057.0,-7532.0,-61.0,-57.0,-50.0,3.0,-4.0,-2.0,9023.0,-12753.0,4270.0,-2483.0,-38.0,1.0,-14.0,1.0
2022-05-03 17:08:55.145214-07:00,1177.0,832.7,1029.7,981.6,939.8,914.4,2028.4,1607.7,3477.1,3469.8,1326.8,917.7,1531.0,3475.9,1748.3,1273.9,3479.5,3477.1,881.4,1294.5,1591.7,2255.9,1216.8,3494.1,3475.9,3478.3,764.5,1048.7,1742.6,1006.5,906.7,1053.9,10.0,8.0,1.0,7851.0,-7017.0,10042.0,-7532.0,6.0,-30.0,-37.0,9.0,-9.0,9.0,9018.0,-12757.0,4265.0,-2486.0,-16.0,9.0,-14.0,1.0
2022-05-03 17:08:55.170707-07:00,1177.0,832.7,1034.0,979.0,939.8,915.2,2026.4,1589.9,3477.1,3469.8,1330.5,919.4,1531.0,3472.2,1749.3,1277.4,3480.7,3483.2,878.0,1294.5,1590.8,2260.0,1216.8,3494.1,3483.2,3480.7,762.9,1048.7,1735.8,1008.2,906.7,1053.9,13.0,0.0,16.0,7857.0,-7039.0,10025.0,-7527.0,11.0,-74.0,-29.0,3.0,-9.0,4.0,9013.0,-12761.0,4264.0,-2486.0,11.0,3.0,-5.0,1.0
2022-05-03 17:08:55.260849-07:00,1181.5,829.4,1032.3,979.0,931.3,915.2,2026.4,1589.9,3475.9,3478.3,1322.3,919.4,1520.8,3472.2,1749.3,1277.4,3480.7,3483.2,878.0,1296.3,1590.8,2259.0,1216.0,3502.7,3483.2,3480.7,762.9,1040.9,1735.8,1006.5,913.5,1050.4,1.0,18.0,6.0,7869.0,-7042.0,10012.0,-7529.0,-11.0,-8.0,-5.0,3.0,-10.0,15.0,9015.0,-12759.0,4264.0,-2489.0,-25.0,20.0,2.0,1.0
2022-05-03 17:08:55.290217-07:00,1181.5,829.4,1032.3,982.5,931.3,914.4,2012.4,1589.9,3475.9,3478.3,1322.3,916.0,1520.8,3467.4,1733.0,1273.0,3488.0,3488.0,883.1,1296.3,1588.0,2259.0,1216.0,3502.7,3489.2,3481.9,757.9,1040.9,1741.6,1006.5,913.5,1050.4,15.0,15.0,4.0,7859.0,-7069.0,10010.0,-7517.0,-58.0,-34.0,-52.0,-2.0,0.0,-2.0,8998.0,-12768.0,4271.0,-2492.0,-55.0,22.0,-3.0,1.0
2022-05-03 17:08:55.350542-07:00,1182.3,826.9,1024.5,982.5,934.7,914.4,2012.4,1589.9,3483.2,3478.3,1320.5,916.0,1525.5,3467.4,1733.0,1273.0,3488.0,3488.0,883.1,1292.7,1588.0,2259.0,1210.6,3497.8,3489.2,3481.9,757.9,1038.3,1741.6,1003.9,910.1,1048.7,14.0,0.0,-4.0,7843.0,-7093.0,10007.0,-7514.0,-33.0,-17.0,-39.0,10.0,-14.0,-1.0,8982.0,-12777.0,4277.0,-2493.0,-36.0,12.0,-5.0,1.0
2022-05-03 17:08:55.440217-07:00,1182.3,826.9,1024.5,980.7,934.7,911.0,2001.5,1576.8,3483.2,3478.3,1320.5,915.2,1525.5,3472.2,1726.3,1272.1,3488.0,3475.9,885.6,1292.7,1586.1,2259.0,1210.6,3497.8,3488.0,3481.9,762.9,1038.3,1738.7,1003.9,910.1,1048.7,23.0,0.0,7.0,7846.0,-7111.0,9993.0,-7513.0,6.0,-30.0,-22.0,4.0,-5.0,-7.0,8979.0,-12779.0,4278.0,-2495.0,-9.0,-4.0,-7.0,1.0
2022-05-03 17:08:55.530524-07:00,1182.3,818.5,1028.0,980.7,932.2,911.0,2001.5,1576.8,3474.6,3483.2,1339.5,915.2,1521.8,3472.2,1726.3,1272.1,3488.0,3475.9,885.6,1292.7,1586.1,2253.8,1206.2,3500.2,3488.0,3481.9,762.9,1038.3,1738.7,1010.8,905.0,1042.6,9.0,11.0,5.0,7854.0,-7106.0,9982.0,-7524.0,54.0,-16.0,1.0,4.0,-8.0,11.0,8986.0,-12774.0,4274.0,-2500.0,31.0,4.0,-11.0,1.0
2022-05-03 17:08:55.560316-07:00,1182.3,818.5,1028.0,973.1,936.4,905.0,2006.4,1579.6,3474.6,3483.2,1339.5,911.8,1521.8,3475.9,1733.9,1274.7,3479.5,3477.1,881.4,1296.3,1589.9,2253.8,1206.2,3500.2,3488.0,3485.6,753.8,1034.9,1742.6,1010.8,905.0,1042.6,1.0,5.0,3.0,7867.0,-7102.0,9964.0,-7539.0,45.0,-19.0,-16.0,2.0,-10.0,9.0,8995.0,-12768.0,4269.0,-2505.0,22.0,2.0,-10.0,1.0
2022-05-03 17:08:55.590325-07:00,1179.7,824.4,1032.3,978.2,936.4,905.0,2006.4,1579.6,3474.6,3474.6,1316.9,915.2,1521.8,3475.9,1733.9,1274.7,3479.5,3477.1,881.4,1296.3,1585.2,2259.0,1208.9,3507.5,3488.0,3485.6,753.8,1034.9,1742.6,1009.0,909.3,1042.6,16.0,11.0,6.0,7875.0,-7103.0,9955.0,-7541.0,24.0,-20.0,0.0,5.0,-5.0,6.0,8998.0,-12766.0,4268.0,-2506.0,16.0,6.0,-5.0,1.0
2022-05-03 17:08:55.591578-07:00,1179.7,824.4,1032.3,978.2,935.6,912.7,2007.4,1571.1,3474.6,3474.6,1316.9,915.2,1514.3,3483.2,1726.3,1273.9,3479.5,3472.2,878.0,1292.7,1585.2,2259.0,1208.9,3507.5,3488.0,3483.2,774.5,1029.7,1742.6,1009.0,909.3,1042.6,12.0,7.0,5.0,7882.0,-7097.0,9944.0,-7554.0,48.0,2.0,-9.0,5.0,-9.0,8.0,9008.0,-12759.0,4266.0,-2511.0,31.0,4.0,-8.0,1.0
2022-05-03 17:08:55.620270-07:00,1174.4,820.2,1021.9,976.5,935.6,912.7,2007.4,1571.1,3473.4,3478.3,1316.9,911.0,1514.3,3483.2,1726.3,1273.9,3479.5,3472.2,878.0,1292.7,1587.1,2250.7,1210.6,3502.7,3488.0,3483.2,774.5,1029.7,1733.9,1005.6,909.3,1036.6,14.0,7.0,11.0,7885.0,-7099.0,9938.0,-7557.0,-9.0,-4.0,-14.0,2.0,-4.0,3.0,9006.0,-12759.0,4267.0,-2514.0,-18.0,5.0,1.0,1.0
2022-05-03 17:08:55.740185-07:00,1174.4,820.2,1021.9,976.5,927.1,907.6,2003.5,1571.1,3473.4,3478.3,1316.9,911.0,1514.3,3479.5,1728.2,1266.7,3486.8,3486.8,873.0,1290.9,1587.1,2250.7,1210.6,3502.7,3484.4,3480.7,756.3,1034.0,1733.9,1005.6,909.3,1036.6,10.0,13.0,0.0,7885.0,-7100.0,9936.0,-7558.0,2.0,-23.0,-13.0,2.0,-5.0,9.0,9006.0,-12759.0,4267.0,-2515.0,-7.0,10.0,-3.0,1.0
2022-05-03 17:08:55.741567-07:00,1177.0,817.7,1023.7,979.0,927.1,907.6,2003.5,1569.3,3488.0,3483.2,1316.0,908.4,1514.3,3479.5,1728.2,1280.1,3480.7,3486.8,873.0,1290.9,1588.9,2257.9,1207.1,3512.4,3481.9,3480.7,756.3,1034.0,1729.1,1012.5,907.6,1039.2,1.0,4.0,5.0,7884.0,-7111.0,9926.0,-7563.0,16.0,-3.0,-21.0,5.0,-3.0,4.0,8997.0,-12765.0,4270.0,-2514.0,-20.0,7.0,-5.0,1.0
2022-05-03 17:08:55.980279-07:00,1170.0,817.7,1023.7,979.0,939.8,901.7,1996.5,1569.3,3477.1,3483.2,1316.0,908.4,1512.5,3488.0,1718.6,1280.1,3480.7,3488.0,878.9,1294.5,1588.9,2257.9,1207.1,3505.1,3481.9,3480.7,751.3,1030.6,1729.1,1012.5,907.6,1022.8,13.0,9.0,-5.0,7894.0,-7106.0,9915.0,-7572.0,50.0,-31.0,-2.0,5.0,-5.0,5.0,9002.0,-12761.0,4269.0,-2517.0,33.0,5.0,-6.0,1.0
2022-05-03 17:08:56.009941-07:00,1170.0,812.7,1025.4,978.2,939.8,901.7,1996.5,1559.9,3477.1,3485.6,1314.2,907.6,1512.5,3488.0,1718.6,1273.0,3477.1,3488.0,878.9,1294.5,1589.9,2261.0,1200.0,3505.1,3479.5,3480.7,751.3,1030.6,1733.0,1007.3,912.7,1022.8,15.0,3.0,1.0,7907.0,-7111.0,9894.0,-7580.0,12.0,-31.0,-20.0,9.0,-1.0,-4.0,9009.0,-12757.0,4264.0,-2520.0,-6.0,-12.0,-10.0,1.0
2022-05-03 17:08:56.011241-07:00,1182.3,812.7,1025.4,978.2,934.7,905.9,2000.5,1559.9,3480.7,3485.6,1314.2,907.6,1512.5,3481.9,1719.6,1273.0,3477.1,3478.3,878.0,1290.0,1589.9,2261.0,1200.0,3496.6,3479.5,3474.6,755.4,1026.3,1733.0,1007.3,912.7,1031.4,18.0,16.0,0.0,7913.0,-7119.0,9885.0,-7578.0,3.0,-40.0,-9.0,8.0,-4.0,6.0,9010.0,-12756.0,4263.0,-2521.0,6.0,-3.0,-6.0,1.0
2022-05-03 17:08:56.012595-07:00,1182.3,813.5,1023.7,974.8,934.7,905.9,2000.5,1557.1,3480.7,3472.2,1310.6,912.7,1512.5,3481.9,1719.6,1273.9,3486.8,3478.3,878.0,1290.0,1587.1,2256.9,1199.1,3496.6,3479.5,3474.6,755.4,1026.3,1725.3,1003.0,902.5,1031.4,13.0,0.0,3.0,7915.0,-7132.0,9874.0,-7577.0,-8.0,-24.0,-22.0,7.0,-7.0,1.0,9007.0,-12759.0,4263.0,-2518.0,-15.0,-10.0,-4.0,1.0
2022-05-03 17:08:56.040915-07:00,1177.9,816.0,1023.7,974.8,927.1,896.6,1990.5,1557.1,3475.9,3477.1,1310.6,912.7,1506.9,3475.9,1713.8,1273.9,3486.8,3483.2,881.4,1293.6,1587.1,2256.9,1198.2,3499.0,3479.5,3479.5,752.1,1024.5,1725.3,1003.0,907.6,1032.3,12.0,13.0,3.0,7919.0,-7140.0,9868.0,-7574.0,-12.0,-22.0,-7.0,3.0,-2.0,0.0,9007.0,-12761.0,4261.0,-2515.0,-10.0,-11.0,-4.0,1.0
2022-05-03 17:08:56.041960-07:00,1177.9,816.0,1028.0,974.8,927.1,896.6,1991.5,1551.5,3475.9,3477.1,1310.6,905.9,1506.9,3475.9,1711.9,1268.5,3483.2,3480.7,881.4,1293.6,1586.1,2257.9,1198.2,3499.0,3480.7,3478.3,752.1,1024.5,1734.9,1003.9,907.6,1032.3,12.0,3.0,6.0,7921.0,-7149.0,9865.0,-7568.0,-12.0,-25.0,-7.0,1.0,-8.0,-1.0,9004.0,-12765.0,4258.0,-2509.0,-1.0,-16.0,-4.0,1.0
2022-05-03 17:08:56.070585-07:00,1171.8,818.5,1028.0,974.8,934.7,901.7,1991.5,1551.5,3467.4,3478.3,1310.6,905.9,1509.7,3483.2,1711.9,1268.5,3483.2,3480.7,882.3,1291.8,1586.1,2257.9,1196.5,3499.0,3480.7,3478.3,748.0,1021.1,1734.9,1003.9,905.9,1021.1,7.0,6.0,4.0,7923.0,-7151.0,9863.0,-7567.0,-7.0,-10.0,-2.0,4.0,-7.0,6.0,9005.0,-12767.0,4254.0,-2502.0,-9.0,-14.0,-5.0,1.0
2022-05-03 17:08:56.370966-07:00,1171.8,818.5,1021.1,979.9,934.7,901.7,1985.6,1543.1,3467.4,3478.3,1305.2,901.7,1509.7,3483.2,1714.8,1263.1,3474.6,3488.0,882.3,1291.8,1591.7,2263.1,1196.5,3499.0,3486.8,3484.4,748.0,1021.1,1733.9,1008.2,905.9,1021.1,17.0,7.0,6.0,7923.0,-7152.0,9861.0,-7568.0,-5.0,6.0,-3.0,10.0,-12.0,3.0,9003.0,-12769.0,4253.0,-2500.0,-20.0,-6.0,0.0,1.0
2022-05-03 17:08:56.372678-07:00,1177.9,812.7,1021.1,979.9,933.0,904.2,1985.6,1543.1,3474.6,3489.2,1305.2,901.7,1508.8,3481.9,1714.8,1263.1,3474.6,3488.0,882.3,1298.1,1591.7,2263.1,1192.0,3499.0,3486.8,3484.4,746.3,1019.4,1733.9,1008.2,905.9,1024.5,8.0,12.0,3.0,7918.0,-7152.0,9865.0,-7569.0,-10.0,6.0,0.0,8.0,-6.0,10.0,8995.0,-12774.0,4255.0,-2497.0,-20.0,5.0,8.0,1.0
2022-05-03 17:08:56.373607-07:00,1177.9,812.7,1020.2,974.8,933.0,904.2,1985.6,1543.1,3474.6,3489.2,1304.3,906.7,1508.8,3481.9,1713.8,1273.0,3480.7,3479.5,882.3,1298.1,1591.7,2263.1,1192.0,3499.0,3488.0,3484.4,746.3,1019.4,1735.8,1007.3,905.9,1024.5,13.0,8.0,3.0,7913.0,-7159.0,9864.0,-7568.0,-18.0,6.0,-12.0,11.0,-8.0,2.0,8985.0,-12780.0,4258.0,-2497.0,-32.0,14.0,8.0,1.0
2022-05-03 17:08:56.375766-07:00,1177.9,815.2,1019.4,974.8,931.3,899.1,1985.6,1543.1,3483.2,3468.6,1302.5,906.7,1509.7,3478.3,1713.8,1273.0,3480.7,3479.5,878.9,1294.5,1591.7,2251.7,1188.5,3500.2,3488.0,3484.4,747.2,1021.1,1735.8,1003.9,905.0,1028.8,11.0,8.0,-4.0,7905.0,-7163.0,9870.0,-7565.0,-27.0,11.0,-7.0,7.0,-3.0,2.0,8976.0,-12786.0,4261.0,-2494.0,-22.0,2.0,6.0,1.0
2022-05-03 17:08:56.401113-07:00,1177.9,815.2,1019.4,980.7,931.3,900.8,1973.7,1550.6,3483.2,3468.6,1302.5,905.0,1509.7,3483.2,1711.0,1278.3,3477.1,3474.6,878.0,1294.5,1588.9,2251.7,1188.5,3500.2,3497.8,3488.0,748.8,1021.1,1741.6,1003.9,905.0,1028.8,7.0,8.0,0.0,7898.0,-7167.0,9875.0,-7562.0,-6.0,7.0,3.0,6.0,-7.0,4.0,8972.0,-12789.0,4262.0,-2492.0,-3.0,3.0,4.0,1.0
2022-05-03 17:08:56.460268-07:00,1176.2,807.7,1023.7,976.5,935.6,899.1,1980.6,1549.7,3474.6,3473.4,1303.4,901.7,1510.6,3479.5,1711.0,1277.4,3479.5,3486.8,883.9,1295.4,1593.6,2254.8,1190.3,3505.1,3486.8,3479.5,746.3,1019.4,1737.8,1006.5,897.4,1021.1,6.0,7.0,5.0,7901.0,-7176.0,9873.0,-7553.0,-6.0,-21.0,-6.0,5.0,-12.0,7.0,8967.0,-12792.0,4263.0,-2491.0,3.0,2.0,-4.0,1.0
2022-05-03 17:08:56.461584-07:00,1168.2,825.2,1024.5,976.5,932.2,899.1,1980.6,1549.7,3477.1,3472.2,1305.2,901.7,1508.8,3479.5,1711.0,1277.4,3479.5,3486.8,883.9,1293.6,1593.6,2264.1,1192.9,3499.0,3486.8,3479.5,746.3,1020.2,1737.8,1008.2,905.0,1014.2,18.0,5.0,7.0,7911.0,-7182.0,9860.0,-7552.0,22.0,-32.0,-14.0,5.0,-4.0,-4.0,8971.0,-12790.0,4262.0,-2492.0,7.0,8.0,-3.0,1.0
2022-05-03 17:08:56.640938-07:00,1168.2,825.2,1024.5,979.9,931.3,901.7,1973.7,1554.3,3477.1,3472.2,1305.2,903.4,1509.7,3471.0,1710.0,1274.7,3477.1,3473.4,883.1,1294.5,1589.9,2264.1,1192.9,3499.0,3481.9,3474.6,745.5,1015.1,1733.0,1008.2,905.0,1014.2,14.0,11.0,5.0,7918.0,-7177.0,9851.0,-7562.0,45.0,-3.0,-4.0,10.0,-4.0,2.0,8974.0,-12787.0,4262.0,-2493.0,17.0,3.0,-1.0,1.0
2022-05-03 17:08:56.642611-07:00,1177.0,816.9,1021.1,979.9,931.3,901.7,1973.7,1554.3,3477.1,3477.1,1299.0,901.7,1509.7,3471.0,1710.0,1274.7,3477.1,3473.4,883.1,1294.5,1587.1,2261.0,1188.5,3505.1,3481.9,3474.6,745.5,1015.1,1736.8,1008.2,898.3,1018.5,16.0,2.0,1.0,7922.0,-7172.0,9848.0,-7568.0,7.0,-3.0,4.0,11.0,-9.0,2.0,8975.0,-12786.0,4262.0,-2495.0,0.0,10.0,6.0,1.0
2022-05-03 17:08:56.643458-07:00,1177.0,816.9,1021.1,979.9,929.6,894.9,1980.6,1550.6,3477.1,3477.1,1299.0,901.7,1506.0,3473.4,1705.3,1270.3,3479.5,3485.6,877.2,1293.6,1587.1,2261.0,1188.5,3505.1,3480.7,3489.2,746.3,1013.3,1736.8,1008.2,898.3,1018.5,9.0,8.0,5.0,7924.0,-7166.0,9847.0,-7572.0,18.0,22.0,13.0,7.0,-5.0,1.0,8978.0,-12784.0,4262.0,-2496.0,5.0,-1.0,4.0,1.0
2022-05-03 17:08:56.670270-07:00,1170.9,813.5,1023.7,980.7,929.6,894.9,1980.6,1550.6,3474.6,3486.8,1303.4,905.9,1506.0,3473.4,1705.3,1270.3,3479.5,3485.6,877.2,1293.6,1605.8,2260.0,1192.0,3486.8,3480.7,3489.2,746.3,1013.3,1741.6,1001.3,902.5,1021.1,7.0,14.0,0.0,7921.0,-7163.0,9850.0,-7573.0,6.0,-9.0,3.0,2.0,-7.0,4.0,8978.0,-12784.0,4262.0,-2496.0,2.0,-2.0,2.0,1.0
2022-05-03 17:08:56.730513-07:00,1170.9,813.5,1023.7,980.7,930.5,891.5,1974.6,1546.9,3474.6,3486.8,1303.4,905.9,1506.0,3478.3,1704.3,1274.7,3472.2,3477.1,880.6,1293.6,1605.8,2260.0,1192.0,3486.8,3488.0,3477.1,748.0,1018.5,1741.6,1001.3,902.5,1021.1,5.0,4.0,4.0,7922.0,-7164.0,9849.0,-7573.0,-2.0,5.0,3.0,5.0,-7.0,3.0,8976.0,-12786.0,4262.0,-2495.0,-4.0,-3.0,4.0,1.0
2022-05-03 17:08:56.790224-07:00,1170.9,810.2,1015.1,977.3,930.5,891.5,1974.6,1546.9,3475.9,3471.0,1306.1,898.3,1506.0,3478.3,1704.3,1274.7,3472.2,3477.1,880.6,1293.6,1594.6,2263.1,1188.5,3499.0,3488.0,3477.1,748.0,1018.5,1741.6,1003.9,903.4,1015.1,15.0,12.0,1.0,7927.0,-7166.0,9844.0,-7572.0,19.0,-33.0,-12.0,10.0,-5.0,3.0,8976.0,-12786.0,4262.0,-2495.0,-6.0,-3.0,1.0,1.0
2022-05-03 17:08:56.850437-07:00,1170.0,810.2,1015.1,977.3,938.1,894.9,1969.7,1545.0,3478.3,3471.0,1306.1,898.3,1506.9,3467.4,1700.5,1268.5,3477.1,3478.3,878.9,1299.8,1594.6,2263.1,1188.5,3485.6,3477.1,3488.0,749.6,1009.9,1741.6,1003.9,903.4,1011.6,6.0,6.0,2.0,7937.0,-7160.0,9829.0,-7587.0,64.0,5.0,-2.0,6.0,-11.0,11.0,8978.0,-12784.0,4262.0,-2496.0,16.0,5.0,3.0,1.0
2022-05-03 17:08:56.970173-07:00,1170.0,815.2,1024.5,980.7,938.1,894.9,1969.7,1544.1,3478.3,3479.5,1304.3,905.9,1506.9,3467.4,1700.5,1271.2,3488.0,3478.3,878.9,1299.8,1577.7,2257.9,1199.1,3485.6,3484.4,3488.0,749.6,1009.9,1733.0,1007.3,904.2,1011.6,18.0,10.0,0.0,7943.0,-7152.0,9822.0,-7597.0,13.0,0.0,-9.0,9.0,-2.0,-2.0,8980.0,-12783.0,4262.0,-2497.0,-5.0,8.0,4.0,1.0
2022-05-03 17:08:56.971493-07:00,1175.3,815.2,1024.5,980.7,931.3,897.4,1978.6,1544.1,3475.9,3479.5,1304.3,905.9,1503.2,3473.4,1701.4,1271.2,3488.0,3477.1,881.4,1288.2,1577.7,2257.9,1199.1,3488.0,3484.4,3479.5,744.7,1010.8,1733.0,1007.3,904.2,1015.1,17.0,5.0,0.0,7939.0,-7148.0,9826.0,-7600.0,9.0,23.0,10.0,7.0,-5.0,-6.0,8977.0,-12785.0,4262.0,-2496.0,9.0,-2.0,7.0,1.0
2022-05-03 17:08:57.030455-07:00,1175.3,814.4,1022.8,975.6,931.3,897.4,1978.6,1552.5,3475.9,3478.3,1305.2,900.0,1503.2,3473.4,1701.4,1266.7,3488.0,3477.1,881.4,1288.2,1600.2,2255.9,1189.4,3488.0,3475.9,3479.5,744.7,1010.8,1741.6,1004.8,897.4,1015.1,13.0,13.0,0.0,7940.0,-7144.0,9827.0,-7602.0,7.0,-12.0,-4.0,3.0,-1.0,1.0,8979.0,-12784.0,4262.0,-2496.0,5.0,-1.0,1.0,1.0
2022-05-03 17:08:57.120322-07:00,1168.2,814.4,1022.8,975.6,932.2,898.3,1972.7,1552.5,3480.7,3478.3,1305.2,900.0,1501.4,3474.6,1705.3,1266.7,3488.0,3479.5,883.1,1296.3,1600.2,2255.9,1189.4,3479.5,3475.9,3488.0,743.0,1037.5,1741.6,1004.8,897.4,1021.9,11.0,4.0,1.0,7943.0,-7148.0,9823.0,-7600.0,-1.0,-16.0,-1.0,5.0,-10.0,2.0,8979.0,-12784.0,4262.0,-2496.0,2.0,0.0,-3.0,1.0
2022-05-03 17:08:57.151252-07:00,1168.2,815.2,1017.6,981.6,932.2,898.3,1973.7,1551.5,3480.7,3472.2,1299.0,901.7,1501.4,3474.6,1706.2,1273.0,3480.7,3480.7,883.1,1296.3,1588.9,2275.5,1190.3,3479.5,3472.2,3489.2,743.0,1037.5,1736.8,999.6,904.2,1021.9,12.0,9.0,2.0,7947.0,-7150.0,9820.0,-7597.0,-7.0,-20.0,-5.0,3.0,-5.0,4.0,8979.0,-12784.0,4262.0,-2496.0,1.0,-8.0,0.0,1.0
2022-05-03 17:08:57.152688-07:00,1174.4,808.5,1017.6,981.6,927.1,891.5,1973.7,1551.5,3479.5,3481.9,1299.0,901.7,1499.5,3479.5,1706.2,1273.0,3480.7,3480.7,880.6,1293.6,1588.9,2275.5,1187.6,3464.9,3472.2,3489.2,749.6,1012.5,1736.8,999.6,912.7,1003.9,16.0,4.0,0.0,7950.0,-7153.0,9818.0,-7595.0,-6.0,-15.0,2.0,5.0,-7.0,1.0,8979.0,-12784.0,4262.0,-2496.0,0.0,-1.0,2.0,1.0
2022-05-03 17:08:57.180431-07:00,1174.4,808.5,1022.8,973.1,927.1,891.5,1966.7,1548.7,3479.5,3481.9,1299.8,902.5,1499.5,3479.5,1703.3,1274.7,3473.4,3485.6,880.6,1293.6,1588.9,2264.1,1187.6,3464.9,3483.2,3483.2,749.6,1012.5,1733.0,1000.5,912.7,1003.9,16.0,10.0,3.0,7951.0,-7152.0,9819.0,-7593.0,6.0,-1.0,3.0,4.0,-5.0,-2.0,8979.0,-12784.0,4262.0,-2496.0,2.0,-1.0,4.0,1.0
2022-05-03 17:08:57.511024-07:00,1173.5,808.5,1022.8,973.1,933.0,894.1,1966.7,1548.7,3475.9,3475.9,1299.8,902.5,1498.6,3481.9,1703.3,1274.7,3473.4,3485.6,880.6,1299.0,1588.9,2264.1,1189.4,3471.0,3483.2,3483.2,743.0,1010.8,1733.0,1000.5,902.5,1004.8,9.0,4.0,-3.0,7950.0,-7148.0,9819.0,-7598.0,9.0,7.0,0.0,6.0,-9.0,7.0,8979.0,-12784.0,4262.0,-2496.0,6.0,2.0,-2.0,1.0
2022-05-03 17:08:57.512248-07:00,1173.5,808.5,1024.5,983.3,933.0,894.1,1966.7,1543.1,3475.9,3475.9,1298.1,898.3,1498.6,3481.9,1696.7,1270.3,3473.4,3490.5,880.6,1299.0,1589.9,2254.8,1189.4,3471.0,3472.2,3483.2,743.0,1010.8,1733.0,999.6,902.5,1004.8,12.0,10.0,1.0,7951.0,-7148.0,9819.0,-7598.0,0.0,-7.0,5.0,8.0,-8.0,4.0,8979.0,-12784.0,4262.0,-2496.0,-4.0,-4.0,2.0,1.0
2022-05-03 17:08:57.513880-07:00,1169.1,811.0,1022.8,983.3,928.8,889.8,1966.7,1543.1,3462.5,3488.0,1297.2,898.3,1498.6,3472.2,1696.7,1270.3,3473.4,3490.5,878.9,1291.8,1589.9,2259.0,1185.9,3464.9,3472.2,3483.2,734.8,1011.6,1733.0,1004.8,908.4,1003.9,4.0,0.0,8.0,7954.0,-7146.0,9815.0,-7600.0,28.0,1.0,7.0,7.0,-7.0,4.0,8981.0,-12782.0,4261.0,-2497.0,21.0,-10.0,-1.0,1.0
2022-05-03 17:08:57.515708-07:00,1169.1,811.0,1022.8,976.5,928.8,890.7,1963.7,1536.6,3462.5,3488.0,1297.2,900.8,1498.6,3474.6,1696.7,1266.7,3481.9,3488.0,882.3,1291.8,1592.7,2259.0,1185.9,3464.9,3483.2,3481.9,738.9,1011.6,1737.8,1004.8,908.4,1003.9,9.0,9.0,5.0,7964.0,-7134.0,9805.0,-7614.0,63.0,11.0,-4.0,6.0,-9.0,7.0,8992.0,-12774.0,4260.0,-2502.0,32.0,20.0,2.0,1.0
2022-05-03 17:08:57.570893-07:00,1171.8,817.7,1022.8,976.5,933.0,890.7,1963.7,1536.6,3477.1,3472.2,1294.5,900.8,1503.2,3474.6,1696.7,1266.7,3481.9,3488.0,882.3,1296.3,1592.7,2267.2,1184.1,3469.8,3483.2,3481.9,738.9,1006.5,1737.8,1008.2,910.1,1015.9,16.0,10.0,-3.0,7970.0,-7122.0,9800.0,-7626.0,19.0,22.0,17.0,3.0,0.0,0.0,8998.0,-12766.0,4265.0,-2514.0,4.0,23.0,10.0,1.0
2022-05-03 17:08:57.600458-07:00,1170.0,806.9,1025.4,969.6,930.5,889.8,1980.6,1521.8,3474.6,3467.4,1298.1,902.5,1504.1,3478.3,1704.3,1283.7,3477.1,3479.5,878.0,1293.6,1587.1,2265.2,1207.1,3500.2,3485.6,3481.9,747.2,1008.2,1736.8,1003.9,902.5,1028.8,49.0,155.0,-84.0,8209.0,-6943.0,9753.0,-7597.0,299.0,-511.0,-324.0,-10.0,41.0,-47.0,8909.0,-12813.0,4302.0,-2528.0,-262.0,55.0,-103.0,1.0
2022-05-03 17:08:57.750576-07:00,1169.1,810.2,1013.3,978.2,931.3,889.8,1980.6,1521.8,3483.2,3488.0,1293.6,892.4,1515.3,3478.3,1704.3,1283.7,3477.1,3479.5,878.0,1294.5,1582.4,2266.2,1390.3,3499.0,3485.6,3481.9,747.2,1038.3,1730.1,1006.5,906.7,1043.5,27.0,2.0,-56.0,8056.0,-7309.0,9690.0,-7498.0,-1290.0,-264.0,-691.0,-3.0,8.0,-13.0,8660.0,-12989.0,4307.0,-2481.0,-872.0,-10.0,-143.0,1.0
2022-05-03 17:08:57.752056-07:00,1169.1,810.2,1013.3,978.2,939.0,878.0,2004.5,1540.3,3483.2,3488.0,1293.6,892.4,1533.8,3474.6,1651.1,1271.2,3486.8,3478.3,882.3,1291.8,1582.4,2266.2,1390.3,3499.0,3484.4,3485.6,747.2,1072.1,1730.1,1006.5,906.7,1043.5,-14.0,-113.0,82.0,7866.0,-7604.0,9708.0,-7382.0,-130.0,45.0,-171.0,6.0,-38.0,3.0,8420.0,-13159.0,4304.0,-2422.0,-417.0,-24.0,-96.0,1.0
2022-05-03 17:08:57.753025-07:00,1167.4,797.7,1014.2,973.9,939.0,878.0,2004.5,1540.3,3471.0,3478.3,1260.4,887.3,1533.8,3474.6,1651.1,1271.2,3486.8,3478.3,882.3,1291.8,1589.9,2264.1,1493.0,3501.4,3484.4,3485.6,747.2,1072.1,1734.9,1002.2,905.0,1052.2,10.0,20.0,51.0,7814.0,-7644.0,9774.0,-7307.0,-382.0,-7.0,101.0,5.0,-5.0,8.0,8345.0,-13203.0,4310.0,-2431.0,-239.0,60.0,-6.0,1.0
2022-05-03 17:08:57.780353-07:00,1167.4,797.7,1014.2,973.9,937.3,884.8,1993.5,1474.6,3471.0,3478.3,1260.4,887.3,1529.2,3467.4,1560.9,1260.4,3479.5,3488.0,878.0,1279.2,1589.9,2264.1,1493.0,3501.4,3477.1,3483.2,744.7,1021.9,1734.9,1002.2,905.0,1052.2,-3.0,-51.0,79.0,7667.0,-7679.0,9956.0,-7180.0,-590.0,331.0,154.0,17.0,-34.0,11.0,8182.0,-13293.0,4361.0,-2402.0,-529.0,73.0,44.0,1.0
2022-05-03 17:08:57.810306-07:00,1180.6,801.9,1014.2,968.8,937.3,884.8,1993.5,1474.6,3478.3,3464.9,1236.4,882.3,1529.2,3467.4,1560.9,1260.4,3479.5,3488.0,878.0,1279.2,1580.5,2270.3,1531.0,3502.7,3477.1,3483.2,744.7,1021.9,1729.1,1011.6,904.2,1041.8,24.0,55.0,-26.0,7588.0,-7606.0,10085.0,-7162.0,-87.0,287.0,132.0,3.0,8.0,-18.0,8134.0,-13308.0,4406.0,-2401.0,-5.0,65.0,76.0,1.0
2022-05-03 17:08:58.110831-07:00,1184.1,801.9,1014.2,968.8,936.4,873.0,1956.8,1373.9,3478.3,3464.9,1236.4,882.3,1526.4,3488.0,1529.2,1260.4,3483.2,3479.5,881.4,1281.0,1580.5,2270.3,1531.0,3494.1,3485.6,3481.9,729.0,973.1,1729.1,1011.6,904.2,1034.9,25.0,26.0,-22.0,7495.0,-7571.0,10172.0,-7174.0,-138.0,239.0,-29.0,5.0,0.0,-5.0,8084.0,-13331.0,4439.0,-2382.0,-140.0,15.0,27.0,1.0
2022-05-03 17:08:58.170209-07:00,1184.1,791.0,1015.1,970.5,936.4,873.0,1956.8,1344.0,3478.3,3478.3,1222.2,882.3,1526.4,3488.0,1529.2,1252.4,3475.9,3479.5,881.4,1281.0,1585.2,2266.2,1512.5,3494.1,3483.2,3481.9,729.0,973.1,1733.0,1008.2,905.9,1034.9,-10.0,-14.0,-26.0,7416.0,-7566.0,10223.0,-7190.0,-83.0,145.0,-14.0,5.0,-8.0,6.0,8047.0,-13354.0,4446.0,-2364.0,-84.0,-20.0,13.0,1.0
2022-05-03 17:08:58.171555-07:00,1190.3,791.0,1015.1,970.5,927.9,865.4,1915.4,1344.0,3477.1,3478.3,1222.2,882.3,1520.8,3478.3,1514.3,1252.4,3475.9,3477.1,885.6,1278.3,1585.2,2266.2,1512.5,3502.7,3483.2,3480.7,719.2,962.8,1733.0,1008.2,905.9,1030.6,16.0,22.0,-5.0,7412.0,-7561.0,10233.0,-7184.0,20.0,-28.0,27.0,7.0,1.0,-5.0,8053.0,-13352.0,4445.0,-2358.0,35.0,-24.0,4.0,1.0
2022-05-03 17:08:58.230496-07:00,1190.3,791.0,1014.2,969.6,927.9,865.4,1915.4,1324.1,3477.1,3480.7,1214.2,885.6,1520.8,3478.3,1514.3,1245.3,3477.1,3477.1,885.6,1278.3,1593.6,2262.1,1496.7,3502.7,3480.7,3480.7,719.2,962.8,1733.0,1003.0,904.2,1030.6,1.0,3.0,14.0,7407.0,-7575.0,10235.0,-7173.0,-83.0,-18.0,-28.0,6.0,-18.0,12.0,8051.0,-13356.0,4441.0,-2349.0,-61.0,-18.0,-1.0,1.0
2022-05-03 17:08:58.232113-07:00,1185.9,791.0,1014.2,969.6,933.0,854.5,1896.7,1324.1,3475.9,3480.7,1214.2,885.6,1522.7,3472.2,1503.2,1245.3,3477.1,3481.9,883.1,1273.9,1593.6,2262.1,1496.7,3502.7,3480.7,3485.6,720.0,957.7,1733.0,1003.0,904.2,1028.0,22.0,8.0,6.0,7408.0,-7601.0,10224.0,-7159.0,-11.0,-45.0,-26.0,1.0,0.0,-8.0,8045.0,-13361.0,4439.0,-2343.0,-16.0,-15.0,0.0,1.0
2022-05-03 17:08:58.233270-07:00,1182.3,788.6,1011.6,971.3,934.7,858.7,1895.8,1318.7,3472.2,3478.3,1208.0,878.0,1515.3,3467.4,1502.3,1246.2,3488.0,3488.0,882.3,1266.7,1586.1,2271.4,1468.1,3501.4,3483.2,3484.4,715.9,956.8,1732.0,1015.1,905.0,1019.4,10.0,0.0,11.0,7403.0,-7633.0,10225.0,-7129.0,-49.0,-28.0,-1.0,4.0,-5.0,0.0,8031.0,-13372.0,4438.0,-2333.0,-7.0,-11.0,0.0,1.0
2022-05-03 17:08:58.234321-07:00,1182.3,788.6,1015.9,964.5,934.7,858.7,1888.9,1313.3,3472.2,3478.3,1208.9,880.6,1515.3,3467.4,1495.8,1234.6,3475.9,3485.6,882.3,1266.7,1589.9,2261.0,1468.1,3501.4,3480.7,3485.6,715.9,956.8,1737.8,1011.6,905.0,1019.4,7.0,5.0,3.0,7409.0,-7635.0,10218.0,-7130.0,41.0,-7.0,-9.0,4.0,-8.0,2.0,8039.0,-13368.0,4435.0,-2333.0,23.0,-12.0,-3.0,1.0
2022-05-03 17:08:58.260918-07:00,1174.4,788.6,1015.9,964.5,932.2,851.1,1888.9,1313.3,3474.6,3478.3,1208.9,880.6,1516.2,3472.2,1495.8,1234.6,3475.9,3485.6,883.9,1271.2,1589.9,2261.0,1457.1,3491.7,3480.7,3485.6,719.2,951.7,1737.8,1011.6,905.0,1011.6,12.0,7.0,7.0,7414.0,-7639.0,10214.0,-7127.0,-30.0,-19.0,-8.0,7.0,-8.0,3.0,8038.0,-13368.0,4434.0,-2333.0,-11.0,-2.0,-3.0,1.0
2022-05-03 17:08:58.500092-07:00,1174.4,788.6,1010.8,966.2,932.2,851.1,1879.1,1308.8,3474.6,3478.3,1205.3,882.3,1516.2,3472.2,1500.4,1242.6,3475.9,3478.3,883.9,1271.2,1584.2,2257.9,1457.1,3491.7,3472.2,3480.7,719.2,951.7,1732.0,1004.8,905.0,1011.6,16.0,7.0,5.0,7414.0,-7653.0,10205.0,-7125.0,3.0,-32.0,-37.0,7.0,-4.0,-3.0,8038.0,-13369.0,4433.0,-2331.0,0.0,-10.0,-8.0,1.0
2022-05-03 17:08:58.679841-07:00,1175.3,785.2,1010.8,966.2,931.3,844.4,1879.1,1308.8,3467.4,3475.9,1205.3,882.3,1519.0,3479.5,1500.4,1242.6,3475.9,3478.3,881.4,1292.7,1584.2,2257.9,1445.1,3506.3,3472.2,3480.7,719.2,953.4,1732.0,1004.8,903.4,1006.5,8.0,6.0,5.0,7412.0,-7662.0,10200.0,-7124.0,-2.0,-15.0,6.0,3.0,-8.0,6.0,8037.0,-13370.0,4433.0,-2331.0,10.0,1.0,1.0,1.0
2022-05-03 17:08:58.681809-07:00,1175.3,785.2,1012.5,972.2,931.3,852.0,1868.4,1299.8,3467.4,3475.9,1201.8,883.1,1519.0,3478.3,1490.3,1253.3,3488.0,3479.5,885.6,1292.7,1581.4,2271.4,1445.1,3506.3,3478.3,3475.9,711.0,953.4,1741.6,1006.5,903.4,1006.5,13.0,7.0,9.0,7415.0,-7665.0,10196.0,-7124.0,11.0,2.0,-15.0,2.0,-6.0,4.0,8039.0,-13369.0,4432.0,-2332.0,7.0,5.0,-4.0,1.0
2022-05-03 17:08:58.682782-07:00,1177.9,789.4,1012.5,972.2,933.0,852.0,1868.4,1299.8,3477.1,3475.9,1200.0,883.1,1519.0,3478.3,1490.3,1253.3,3488.0,3479.5,885.6,1274.7,1581.4,2268.3,1449.7,3496.6,3478.3,3475.9,711.0,945.8,1741.6,1006.5,905.9,1015.9,7.0,11.0,-1.0,7418.0,-7663.0,10188.0,-7134.0,31.0,5.0,-9.0,7.0,-7.0,3.0,8046.0,-13364.0,4431.0,-2335.0,17.0,1.0,2.0,1.0
2022-05-03 17:08:58.683681-07:00,1177.9,789.4,1012.5,964.5,933.0,849.5,1877.2,1300.7,3477.1,3475.9,1200.0,877.2,1519.0,3478.3,1493.0,1248.0,3480.7,3478.3,885.6,1274.7,1588.0,2268.3,1449.7,3496.6,3488.0,3472.2,705.2,945.8,1736.8,1006.5,905.9,1015.9,13.0,0.0,1.0,7417.0,-7669.0,10181.0,-7138.0,-10.0,-9.0,-19.0,3.0,-3.0,-5.0,8047.0,-13364.0,4431.0,-2336.0,-6.0,-4.0,-4.0,1.0
2022-05-03 17:08:58.685450-07:00,1171.8,787.7,1010.8,964.5,933.0,849.5,1877.2,1300.7,3474.6,3468.6,1198.2,877.2,1517.1,3478.3,1493.0,1248.0,3480.7,3478.3,885.6,1273.0,1588.0,2266.2,1436.9,3495.3,3488.0,3472.2,705.2,950.0,1736.8,1003.0,900.0,1011.6,12.0,13.0,5.0,7417.0,-7665.0,10182.0,-7140.0,16.0,5.0,20.0,6.0,-3.0,5.0,8052.0,-13361.0,4429.0,-2338.0,26.0,-2.0,5.0,1.0
2022-05-03 17:08:58.890979-07:00,1171.8,787.7,1010.8,963.7,933.0,852.0,1863.5,1307.0,3474.6,3468.6,1198.2,876.4,1517.1,3478.3,1488.4,1239.1,3475.9,3477.1,878.9,1273.0,1582.4,2266.2,1436.9,3495.3,3477.1,3479.5,709.3,950.0,1733.9,1003.0,900.0,1011.6,12.0,5.0,1.0,7416.0,-7667.0,10179.0,-7144.0,-8.0,-9.0,-27.0,3.0,-7.0,-1.0,8051.0,-13362.0,4429.0,-2338.0,-16.0,-3.0,-1.0,1.0
2022-05-03 17:08:58.893020-07:00,1173.5,781.1,1011.6,969.6,927.9,841.9,1856.7,1299.0,3475.9,3478.3,1198.2,877.2,1517.1,3472.2,1482.9,1239.9,3485.6,3484.4,882.3,1270.3,1588.9,2265.2,1435.0,3457.6,3480.7,3481.9,714.2,946.6,1731.1,1003.9,906.7,1003.9,11.0,10.0,1.0,7423.0,-7682.0,10161.0,-7148.0,20.0,-16.0,-2.0,3.0,0.0,-1.0,8058.0,-13357.0,4427.0,-2342.0,17.0,4.0,-3.0,1.0
2022-05-03 17:08:58.893929-07:00,1173.5,781.1,1011.6,969.6,932.2,837.7,1861.5,1305.2,3475.9,3478.3,1198.2,877.2,1514.3,3481.9,1485.6,1246.2,3480.7,3486.8,889.0,1264.0,1588.9,2265.2,1435.0,3457.6,3480.7,3490.5,705.2,948.3,1731.1,1003.9,906.7,1003.9,11.0,8.0,4.0,7421.0,-7684.0,10161.0,-7146.0,-9.0,-1.0,-7.0,4.0,-8.0,0.0,8058.0,-13357.0,4427.0,-2342.0,-2.0,-2.0,-5.0,1.0
2022-05-03 17:08:58.920208-07:00,1175.3,788.6,1020.2,962.8,932.2,837.7,1861.5,1305.2,3483.2,3479.5,1199.1,873.8,1514.3,3481.9,1485.6,1246.2,3480.7,3486.8,889.0,1264.0,1583.3,2273.4,1436.0,3449.1,3480.7,3490.5,705.2,948.3,1728.2,1003.9,912.7,1008.2,9.0,8.0,0.0,7421.0,-7688.0,10152.0,-7155.0,18.0,-9.0,-24.0,6.0,-1.0,-1.0,8061.0,-13355.0,4426.0,-2343.0,6.0,-3.0,-6.0,1.0
2022-05-03 17:08:58.921483-07:00,1175.3,788.6,1020.2,962.8,931.3,837.7,1848.9,1299.8,3483.2,3479.5,1199.1,873.8,1510.6,3473.4,1485.6,1231.0,3486.8,3477.1,885.6,1274.7,1583.3,2273.4,1436.0,3449.1,3489.2,3467.4,706.0,940.7,1728.2,1003.9,912.7,1008.2,12.0,8.0,7.0,7417.0,-7690.0,10149.0,-7162.0,22.0,17.0,-12.0,4.0,-10.0,6.0,8062.0,-13355.0,4426.0,-2342.0,8.0,-6.0,-4.0,1.0
2022-05-03 17:08:58.980422-07:00,1174.4,779.4,1008.2,972.2,931.3,837.7,1848.9,1296.3,3478.3,3478.3,1196.5,878.0,1510.6,3473.4,1485.6,1244.4,3473.4,3477.1,885.6,1274.7,1588.9,2266.2,1429.5,3452.8,3478.3,3467.4,706.0,940.7,1738.7,1000.5,909.3,1006.5,11.0,14.0,1.0,7416.0,-7687.0,10144.0,-7173.0,2.0,5.0,-16.0,3.0,-5.0,0.0,8065.0,-13353.0,4425.0,-2344.0,-9.0,1.0,-1.0,1.0
2022-05-03 17:08:59.190340-07:00,1167.4,779.4,1008.2,972.2,927.1,841.1,1844.0,1296.3,3479.5,3478.3,1196.5,878.0,1510.6,3472.2,1485.6,1244.4,3473.4,3483.2,883.1,1275.6,1588.9,2266.2,1429.5,3471.0,3478.3,3481.9,709.3,939.0,1738.7,1000.5,909.3,1006.5,11.0,5.0,0.0,7413.0,-7694.0,10144.0,-7169.0,-5.0,-15.0,-4.0,4.0,-8.0,0.0,8058.0,-13358.0,4426.0,-2341.0,-2.0,-5.0,1.0,1.0
2022-05-03 17:08:59.191578-07:00,1167.4,779.4,1010.8,977.3,927.1,841.1,1844.0,1289.1,3479.5,3479.5,1195.6,875.5,1510.6,3472.2,1485.6,1239.9,3474.6,3483.2,883.1,1275.6,1584.2,2267.2,1422.2,3471.0,3474.6,3481.9,709.3,939.0,1727.2,1012.5,902.5,1006.5,11.0,6.0,5.0,7416.0,-7689.0,10144.0,-7171.0,6.0,-2.0,14.0,3.0,-6.0,3.0,8063.0,-13355.0,4426.0,-2343.0,10.0,-5.0,1.0,1.0
2022-05-03 17:08:59.192512-07:00,1171.8,779.4,1010.8,977.3,933.9,841.9,1844.0,1289.1,3481.9,3479.5,1195.6,875.5,1507.8,3478.3,1484.7,1239.9,3474.6,3483.2,882.3,1271.2,1584.2,2267.2,1422.2,3450.4,3474.6,3488.0,709.3,938.1,1727.2,1012.5,902.5,994.5,13.0,12.0,3.0,7418.0,-7690.0,10147.0,-7164.0,-10.0,-14.0,0.0,8.0,-7.0,1.0,8058.0,-13358.0,4426.0,-2341.0,-12.0,5.0,4.0,1.0
2022-05-03 17:08:59.281069-07:00,1171.8,778.6,1014.2,973.1,933.9,841.9,1844.0,1284.6,3481.9,3477.1,1192.0,873.8,1507.8,3478.3,1484.7,1245.3,3480.7,3483.2,882.3,1271.2,1584.2,2275.5,1420.4,3450.4,3483.2,3488.0,709.3,938.1,1729.1,1007.3,909.3,994.5,15.0,3.0,-1.0,7419.0,-7693.0,10144.0,-7163.0,-1.0,-8.0,0.0,3.0,-4.0,-2.0,8058.0,-13358.0,4426.0,-2341.0,0.0,-2.0,1.0,1.0
2022-05-03 17:08:59.282384-07:00,1168.2,778.6,1014.2,973.1,939.8,841.9,1845.0,1284.6,3474.6,3472.2,1192.0,873.8,1506.0,3484.4,1473.6,1245.3,3480.7,3477.1,885.6,1273.0,1584.2,2275.5,1415.8,3463.7,3483.2,3484.4,701.1,939.0,1729.1,1007.3,901.7,1006.5,10.0,13.0,0.0,7425.0,-7692.0,10145.0,-7157.0,-12.0,-32.0,1.0,9.0,-2.0,2.0,8058.0,-13358.0,4426.0,-2341.0,-5.0,-8.0,-2.0,1.0
2022-05-03 17:08:59.283771-07:00,1168.2,778.6,1009.0,967.1,939.8,841.9,1845.9,1288.2,3474.6,3472.2,1190.3,876.4,1506.0,3484.4,1475.5,1243.5,3477.1,3488.0,885.6,1273.0,1584.2,2267.2,1415.8,3463.7,3485.6,3486.8,701.1,939.0,1733.9,1003.9,901.7,1006.5,10.0,0.0,1.0,7428.0,-7704.0,10135.0,-7155.0,-5.0,-20.0,-22.0,5.0,-7.0,-1.0,8055.0,-13360.0,4426.0,-2340.0,-5.0,-8.0,-8.0,1.0
2022-05-03 17:08:59.310302-07:00,1179.7,776.9,1009.0,967.1,932.2,840.3,1845.9,1288.2,3468.6,3474.6,1190.3,876.4,1512.5,3483.2,1475.5,1243.5,3477.1,3488.0,878.0,1290.9,1584.2,2267.2,1412.2,3454.0,3485.6,3486.8,703.6,947.5,1733.9,1003.9,901.7,993.6,10.0,2.0,11.0,7429.0,-7704.0,10137.0,-7151.0,7.0,17.0,22.0,5.0,-12.0,10.0,8056.0,-13359.0,4426.0,-2341.0,16.0,-5.0,2.0,1.0
2022-05-03 17:08:59.400322-07:00,1179.7,776.9,1007.3,967.9,932.2,840.3,1840.1,1293.6,3468.6,3474.6,1188.5,878.0,1512.5,3483.2,1475.5,1234.6,3478.3,3480.7,878.0,1290.9,1583.3,2269.3,1412.2,3454.0,3478.3,3485.6,703.6,947.5,1729.1,1004.8,901.7,993.6,13.0,14.0,6.0,7429.0,-7703.0,10135.0,-7155.0,0.0,-4.0,-22.0,4.0,-1.0,1.0,8058.0,-13358.0,4426.0,-2341.0,-22.0,-4.0,-3.0,1.0
2022-05-03 17:08:59.610787-07:00,1169.1,777.8,1007.3,967.9,930.5,840.3,1840.1,1293.6,3469.8,3475.9,1188.5,878.0,1511.5,3472.2,1475.5,1234.6,3478.3,3480.7,885.6,1275.6,1583.3,2269.3,1412.2,3441.9,3478.3,3485.6,706.9,948.3,1729.1,1004.8,904.2,1001.3,7.0,6.0,0.0,7427.0,-7702.0,10137.0,-7155.0,0.0,2.0,15.0,4.0,-7.0,1.0,8054.0,-13360.0,4426.0,-2340.0,7.0,4.0,5.0,1.0
2022-05-03 17:08:59.611901-07:00,1169.1,777.8,1009.9,973.9,930.5,837.7,1849.8,1280.1,3469.8,3475.9,1191.2,871.3,1511.5,3480.7,1464.4,1237.3,3473.4,3478.3,885.6,1275.6,1588.9,2266.2,1412.2,3441.9,3474.6,3479.5,706.0,948.3,1732.0,1003.0,904.2,1001.3,10.0,14.0,-1.0,7424.0,-7707.0,10138.0,-7151.0,-27.0,-21.0,-21.0,5.0,-4.0,7.0,8050.0,-13363.0,4427.0,-2339.0,-30.0,-2.0,-6.0,1.0
2022-05-03 17:08:59.612903-07:00,1171.8,776.9,1009.9,973.9,930.5,837.7,1849.8,1280.1,3477.1,3480.7,1190.3,871.3,1511.5,3480.7,1464.4,1237.3,3473.4,3478.3,885.6,1269.4,1588.9,2267.2,1414.9,3451.6,3474.6,3479.5,706.0,943.2,1732.0,1004.8,907.6,1001.3,11.0,-1.0,1.0,7424.0,-7717.0,10134.0,-7146.0,-1.0,-16.0,-3.0,4.0,-7.0,0.0,8043.0,-13367.0,4428.0,-2336.0,7.0,-12.0,-2.0,1.0
2022-05-03 17:08:59.614505-07:00,1171.8,776.9,1009.9,970.5,930.5,839.4,1843.0,1272.1,3477.1,3480.7,1190.3,875.5,1511.5,3479.5,1478.3,1236.4,3488.0,3468.6,883.1,1269.4,1589.9,2267.2,1414.9,3451.6,3490.5,3480.7,706.0,943.2,1735.8,1004.8,907.6,1001.3,16.0,22.0,-17.0,7427.0,-7725.0,10130.0,-7140.0,-47.0,-31.0,-27.0,6.0,0.0,-1.0,8044.0,-13367.0,4427.0,-2335.0,-36.0,-14.0,-11.0,1.0
2022-05-03 17:08:59.700970-07:00,1171.8,781.1,1009.9,970.5,927.1,839.4,1843.0,1272.1,3473.4,3463.7,1196.5,875.5,1505.1,3479.5,1478.3,1236.4,3488.0,3468.6,883.1,1271.2,1589.9,2257.9,1408.5,3432.2,3490.5,3480.7,706.0,944.1,1735.8,1001.3,907.6,1008.2,11.0,0.0,8.0,7421.0,-7732.0,10130.0,-7139.0,10.0,-2.0,1.0,7.0,-7.0,3.0,8035.0,-13373.0,4427.0,-2331.0,8.0,-1.0,2.0,1.0
2022-05-03 17:08:59.701897-07:00,1171.8,781.1,1009.9,963.7,927.1,841.1,1835.2,1290.9,3473.4,3463.7,1196.5,873.8,1505.1,3479.5,1473.6,1239.9,3483.2,3481.9,884.8,1271.2,1583.3,2257.9,1408.5,3432.2,3481.9,3479.5,704.4,944.1,1734.9,1001.3,907.6,1008.2,12.0,14.0,6.0,7420.0,-7736.0,10130.0,-7136.0,-15.0,-8.0,-12.0,8.0,-3.0,4.0,8034.0,-13374.0,4427.0,-2330.0,-34.0,4.0,5.0,1.0
2022-05-03 17:08:59.703552-07:00,1172.6,768.7,1015.1,963.7,925.4,841.1,1835.2,1290.9,3481.9,3474.6,1188.5,873.8,1506.9,3479.5,1473.6,1239.9,3483.2,3481.9,884.8,1273.9,1583.3,2270.3,1395.7,3444.3,3481.9,3479.5,704.4,939.0,1734.9,1006.5,903.4,1001.3,5.0,-3.0,4.0,7412.0,-7733.0,10138.0,-7136.0,14.0,30.0,19.0,6.0,-10.0,10.0,8026.0,-13379.0,4429.0,-2327.0,19.0,4.0,6.0,1.0
2022-05-03 17:08:59.790111-07:00,1172.6,768.7,1015.1,966.2,931.3,838.6,1826.5,1274.7,3481.9,3474.6,1188.5,875.5,1503.2,3473.4,1471.8,1242.6,3485.6,3492.9,882.3,1274.7,1590.8,2270.3,1395.7,3444.3,3483.2,3488.0,700.3,946.6,1734.9,1006.5,903.4,1001.3,14.0,14.0,0.0,7414.0,-7729.0,10138.0,-7139.0,-5.0,-11.0,-14.0,3.0,-3.0,-2.0,8028.0,-13378.0,4428.0,-2328.0,-18.0,-2.0,-3.0,1.0
2022-05-03 17:09:00.000807-07:00,1170.9,770.3,1009.0,967.1,931.3,838.6,1826.5,1274.7,3479.5,3475.9,1189.4,874.7,1503.2,3473.4,1471.8,1242.6,3485.6,3492.9,882.3,1274.7,1584.2,2264.1,1395.7,3447.9,3483.2,3488.0,700.3,946.6,1733.0,1005.6,904.2,994.5,7.0,-1.0,10.0,7408.0,-7734.0,10141.0,-7135.0,-15.0,12.0,10.0,10.0,-7.0,8.0,8023.0,-13381.0,4429.0,-2326.0,18.0,1.0,5.0,1.0
2022-05-03 17:09:00.120678-07:00,1170.9,770.3,1009.0,967.1,928.8,835.2,1837.2,1281.9,3479.5,3475.9,1189.4,874.7,1508.8,3474.6,1468.1,1238.2,3485.6,3478.3,886.5,1273.9,1584.2,2264.1,1395.7,3447.9,3480.7,3490.5,702.8,939.8,1733.0,1005.6,904.2,994.5,17.0,14.0,0.0,7412.0,-7734.0,10137.0,-7137.0,10.0,-16.0,-26.0,2.0,-2.0,-2.0,8027.0,-13378.0,4428.0,-2328.0,-16.0,-3.0,-5.0,1.0
2022-05-03 17:09:00.122023-07:00,1167.4,774.5,1009.0,967.9,928.8,835.2,1837.2,1281.9,3472.2,3473.4,1189.4,873.0,1508.8,3474.6,1468.1,1238.2,3485.6,3478.3,886.5,1273.9,1590.8,2260.0,1402.1,3458.9,3480.7,3490.5,702.8,939.8,1729.1,1003.0,903.4,1002.2,9.0,-8.0,9.0,7405.0,-7740.0,10136.0,-7140.0,-6.0,18.0,0.0,9.0,-7.0,7.0,8023.0,-13381.0,4429.0,-2326.0,10.0,0.0,3.0,1.0
2022-05-03 17:09:00.122911-07:00,1167.4,774.5,1009.0,967.9,932.2,844.4,1833.3,1290.0,3472.2,3473.4,1189.4,873.0,1515.3,3472.2,1475.5,1240.8,3484.4,3478.3,881.4,1275.6,1590.8,2260.0,1402.1,3458.9,3481.9,3479.5,704.4,950.0,1729.1,1003.0,903.4,1002.2,13.0,11.0,4.0,7405.0,-7740.0,10136.0,-7140.0,-3.0,9.0,4.0,4.0,-6.0,3.0,8024.0,-13380.0,4429.0,-2327.0,-13.0,-1.0,2.0,1.0
2022-05-03 17:09:00.123763-07:00,1167.4,776.1,1006.5,967.9,932.2,844.4,1833.3,1277.4,3474.6,3481.9,1192.0,874.7,1515.3,3472.2,1475.5,1240.8,3486.8,3478.3,881.4,1275.6,1596.4,2268.3,1397.6,3454.0,3491.7,3479.5,704.4,950.0,1735.8,988.5,909.3,993.6,11.0,7.0,0.0,7403.0,-7742.0,10134.0,-7141.0,4.0,-14.0,-16.0,4.0,-6.0,1.0,8021.0,-13382.0,4429.0,-2326.0,-3.0,-6.0,-3.0,1.0
2022-05-03 17:09:00.125382-07:00,1171.8,776.1,1006.5,967.9,932.2,837.7,1826.5,1277.4,3473.4,3481.9,1192.0,874.7,1507.8,3477.1,1466.3,1240.8,3486.8,3486.8,883.9,1276.5,1596.4,2268.3,1397.6,3444.3,3491.7,3483.2,699.5,943.2,1735.8,988.5,909.3,994.5,16.0,2.0,5.0,7404.0,-7745.0,10131.0,-7141.0,3.0,1.0,1.0,8.0,-8.0,4.0,8021.0,-13382.0,4429.0,-2326.0,5.0,-8.0,-4.0,1.0
2022-05-03 17:09:00.180876-07:00,1171.8,776.1,1007.3,963.7,932.2,837.7,1826.5,1272.1,3473.4,3478.3,1188.5,878.9,1507.8,3477.1,1466.3,1239.1,3474.6,3486.8,883.9,1276.5,1588.0,2277.6,1397.6,3444.3,3483.2,3483.2,699.5,943.2,1723.4,1010.8,901.7,994.5,9.0,0.0,8.0,7406.0,-7750.0,10126.0,-7141.0,8.0,-4.0,-8.0,7.0,-4.0,1.0,8024.0,-13380.0,4429.0,-2327.0,4.0,2.0,2.0,1.0
2022-05-03 17:09:00.300593-07:00,1170.0,785.2,1013.3,969.6,937.3,834.4,1848.9,1273.9,3475.9,3472.2,1185.0,864.6,1506.0,3474.6,1473.6,1247.1,3481.9,3488.0,885.6,1276.5,1588.9,2270.3,1396.7,3451.6,3485.6,3481.9,701.1,943.2,1733.9,999.6,906.7,997.9,7.0,3.0,6.0,7405.0,-7746.0,10129.0,-7141.0,-6.0,4.0,15.0,5.0,-5.0,4.0,8024.0,-13380.0,4429.0,-2327.0,3.0,1.0,7.0,1.0
2022-05-03 17:09:00.301897-07:00,1171.8,785.2,1013.3,969.6,932.2,836.9,1834.3,1273.9,3469.8,3472.2,1185.0,864.6,1506.9,3467.4,1468.1,1247.1,3481.9,3477.1,887.3,1273.9,1588.9,2270.3,1396.7,3446.7,3485.6,3484.4,700.3,943.2,1733.9,999.6,906.7,998.7,12.0,11.0,-6.0,7405.0,-7746.0,10129.0,-7142.0,13.0,-2.0,-14.0,5.0,-4.0,2.0,8024.0,-13380.0,4429.0,-2327.0,1.0,-2.0,1.0,1.0
2022-05-03 17:09:00.303096-07:00,1171.8,771.1,1008.2,966.2,932.2,836.9,1825.5,1273.9,3469.8,3477.1,1190.3,872.1,1506.9,3467.4,1473.6,1234.6,3481.9,3483.2,887.3,1273.9,1590.8,2265.2,1389.4,3446.7,3484.4,3473.4,700.3,943.2,1750.2,1004.8,907.6,998.7,22.0,-27.0,17.0,7408.0,-7735.0,10131.0,-7148.0,28.0,72.0,68.0,-14.0,3.0,-26.0,8039.0,-13373.0,4425.0,-2324.0,72.0,-33.0,19.0,1.0
2022-05-03 17:09:00.360301-07:00,1171.8,777.8,1008.2,966.2,929.6,834.4,1825.5,1273.9,3481.9,3480.7,1190.3,872.1,1507.8,3477.1,1473.6,1234.6,3481.9,3483.2,889.0,1273.9,1590.8,2265.2,1416.7,3450.4,3484.4,3473.4,699.5,992.7,1750.2,1004.8,904.2,994.5,-43.0,10.0,59.0,7423.0,-7560.0,10245.0,-7156.0,172.0,364.0,542.0,12.0,-36.0,61.0,8167.0,-13294.0,4423.0,-2330.0,520.0,-9.0,114.0,1.0
2022-05-03 17:09:00.450320-07:00,1171.8,777.8,1007.3,970.5,929.6,834.4,1937.1,1390.3,3481.9,3480.7,1194.7,874.7,1507.8,3477.1,1553.4,1249.7,3474.6,3479.5,889.0,1273.9,1592.7,2275.5,1416.7,3450.4,3486.8,3483.2,699.5,992.7,1732.0,1007.3,904.2,994.5,26.0,44.0,-1.0,7471.0,-7362.0,10324.0,-7200.0,258.0,295.0,229.0,-3.0,1.0,-15.0,8319.0,-13186.0,4446.0,-2368.0,326.0,53.0,101.0,1.0
2022-05-03 17:09:00.451526-07:00,1171.8,778.6,1007.3,970.5,932.2,859.5,1937.1,1390.3,3468.6,3479.5,1194.7,874.7,1513.4,3478.3,1553.4,1249.7,3474.6,3479.5,885.6,1266.7,1592.7,2275.5,1393.0,3444.3,3486.8,3483.2,716.7,1089.5,1732.0,1007.3,911.8,1000.5,29.0,-38.0,-36.0,7526.0,-7205.0,10290.0,-7349.0,681.0,91.0,85.0,5.0,-26.0,-25.0,8449.0,-13095.0,4451.0,-2399.0,492.0,-19.0,43.0,1.0
2022-05-03 17:09:00.510907-07:00,1171.8,778.6,1018.5,973.1,932.2,859.5,2088.6,1637.9,3468.6,3479.5,1303.4,894.1,1513.4,3478.3,1649.2,1264.0,3483.2,3483.2,885.6,1266.7,1585.2,2275.5,1393.0,3444.3,3488.0,3483.2,716.7,1089.5,1731.1,1021.9,911.8,1000.5,25.0,62.0,-33.0,7717.0,-7011.0,10127.0,-7562.0,916.0,-103.0,83.0,5.0,0.0,-5.0,8675.0,-12954.0,4401.0,-2451.0,704.0,-80.0,-11.0,1.0
2022-05-03 17:09:00.720593-07:00,1169.1,798.5,1030.6,973.1,928.8,889.8,2088.6,1637.9,3478.3,3479.5,1369.4,894.1,1512.5,3477.1,1649.2,1264.0,3483.2,3483.2,887.3,1281.9,1585.2,2266.2,1345.8,3478.3,3488.0,3483.2,739.7,1099.0,1731.1,1015.9,919.4,1031.4,60.0,67.0,-1.0,7839.0,-6921.0,10008.0,-7676.0,202.0,-22.0,-43.0,17.0,4.0,4.0,8854.0,-12847.0,4338.0,-2485.0,274.0,-84.0,-23.0,1.0
2022-05-03 17:09:00.721681-07:00,1169.1,798.5,1030.6,973.9,928.8,914.4,2076.5,1665.3,3478.3,3479.5,1369.4,943.2,1512.5,3477.1,1757.0,1273.9,3478.3,3480.7,883.1,1281.9,1588.9,2266.2,1345.8,3478.3,3479.5,3490.5,756.3,1099.0,1731.1,1015.9,919.4,1031.4,47.0,-10.0,20.0,7775.0,-6959.0,10041.0,-7664.0,-280.0,174.0,-26.0,11.0,-23.0,15.0,8849.0,-12861.0,4322.0,-2459.0,-68.0,-62.0,-7.0,1.0
2022-05-03 17:09:00.722615-07:00,1167.4,794.4,1034.9,973.9,929.6,914.4,2076.5,1665.3,3477.1,3469.8,1404.0,943.2,1513.4,3477.1,1757.0,1273.9,3478.3,3480.7,883.1,1290.9,1588.9,2275.5,1307.9,3491.7,3479.5,3490.5,756.3,1090.3,1731.1,1023.7,916.0,1005.6,13.0,-1.0,-6.0,7734.0,-6940.0,10089.0,-7660.0,7.0,45.0,54.0,12.0,-20.0,24.0,8875.0,-12845.0,4318.0,-2458.0,217.0,4.0,22.0,1.0
2022-05-03 17:09:00.723745-07:00,1167.4,794.4,1034.9,982.5,929.6,933.0,2040.4,1619.0,3477.1,3469.8,1404.0,961.1,1513.4,3480.7,1761.8,1284.6,3491.7,3488.0,892.4,1290.9,1589.9,2275.5,1307.9,3491.7,3483.2,3477.1,767.0,1090.3,1730.1,1023.7,916.0,1005.6,43.0,12.0,-12.0,7743.0,-6911.0,10101.0,-7661.0,2.0,74.0,90.0,-3.0,17.0,-18.0,8918.0,-12813.0,4320.0,-2466.0,79.0,-9.0,23.0,1.0
2022-05-03 17:09:00.750509-07:00,1170.0,799.4,1034.9,982.5,933.0,933.0,2040.4,1619.0,3480.7,3471.0,1394.8,961.1,1509.7,3480.7,1761.8,1284.6,3491.7,3488.0,892.4,1289.1,1589.9,2269.3,1287.3,3507.5,3483.2,3477.1,767.0,1077.3,1730.1,1014.2,933.0,1030.6,-4.0,6.0,7.0,7737.0,-6857.0,10143.0,-7660.0,40.0,62.0,92.0,9.0,-22.0,17.0,8941.0,-12798.0,4317.0,-2464.0,80.0,-7.0,11.0,1.0
2022-05-03 17:09:00.810318-07:00,1170.0,799.4,1034.9,982.5,933.0,930.5,2021.4,1604.0,3480.7,3471.0,1394.8,954.3,1509.7,3471.0,1771.4,1279.2,3479.5,3480.7,878.0,1289.1,1594.6,2269.3,1287.3,3507.5,3488.0,3479.5,762.0,1077.3,1728.2,1014.2,933.0,1030.6,22.0,16.0,10.0,7740.0,-6861.0,10139.0,-7658.0,-19.0,-12.0,-31.0,5.0,-5.0,-1.0,8956.0,-12789.0,4311.0,-2468.0,-15.0,0.0,-11.0,1.0
2022-05-03 17:09:00.901065-07:00,1173.5,805.2,1034.9,977.3,928.8,930.5,2021.4,1604.0,3485.6,3488.0,1377.5,944.9,1506.0,3471.0,1771.4,1279.2,3479.5,3480.7,878.0,1282.8,1597.4,2269.3,1273.9,3505.1,3488.0,3479.5,762.0,1066.0,1732.0,1021.9,915.2,1055.6,7.0,-2.0,13.0,7744.0,-6846.0,10133.0,-7676.0,75.0,23.0,21.0,6.0,-15.0,4.0,8973.0,-12781.0,4297.0,-2472.0,74.0,-9.0,-11.0,1.0
2022-05-03 17:09:00.902049-07:00,1173.5,805.2,1034.9,977.3,925.4,927.1,2008.4,1592.7,3485.6,3488.0,1377.5,944.9,1506.0,3474.6,1760.8,1280.1,3485.6,3475.9,883.1,1285.5,1597.4,2269.3,1273.9,3505.1,3483.2,3485.6,758.7,1057.3,1732.0,1021.9,915.2,1055.6,13.0,20.0,14.0,7755.0,-6854.0,10118.0,-7678.0,9.0,-59.0,-37.0,5.0,-1.0,7.0,8984.0,-12772.0,4296.0,-2480.0,11.0,16.0,-5.0,1.0
2022-05-03 17:09:01.141006-07:00,1168.2,797.7,1028.0,973.1,925.4,927.1,2008.4,1592.7,3479.5,3484.4,1378.5,940.7,1506.0,3474.6,1760.8,1280.1,3485.6,3475.9,883.1,1285.5,1593.6,2266.2,1260.4,3507.5,3483.2,3485.6,758.7,1057.3,1727.2,1012.5,913.5,1062.5,7.0,1.0,12.0,7761.0,-6858.0,10094.0,-7699.0,76.0,4.0,-23.0,4.0,-6.0,5.0,8992.0,-12764.0,4294.0,-2492.0,51.0,22.0,-11.0,1.0
2022-05-03 17:09:01.142060-07:00,1168.2,797.7,1028.0,973.1,933.0,925.4,1995.5,1581.4,3479.5,3484.4,1378.5,940.7,1495.8,3478.3,1747.3,1277.4,3478.3,3477.1,887.3,1282.8,1593.6,2266.2,1260.4,3507.5,3481.9,3475.9,764.5,1047.8,1727.2,1012.5,913.5,1062.5,11.0,16.0,1.0,7759.0,-6870.0,10081.0,-7708.0,-13.0,-42.0,-60.0,7.0,-3.0,6.0,8991.0,-12762.0,4297.0,-2499.0,-31.0,20.0,-4.0,1.0
2022-05-03 17:09:01.143103-07:00,1167.4,787.7,1034.0,987.6,933.0,925.4,1995.5,1581.4,3480.7,3488.0,1378.5,939.0,1495.8,3478.3,1747.3,1277.4,3478.3,3477.1,887.3,1282.8,1597.4,2264.1,1260.4,3497.8,3481.9,3475.9,764.5,1047.8,1731.1,1018.5,905.0,1062.5,12.0,7.0,-3.0,7764.0,-6894.0,10053.0,-7718.0,31.0,-69.0,-60.0,5.0,-7.0,3.0,8989.0,-12763.0,4297.0,-2507.0,11.0,15.0,-15.0,1.0
2022-05-03 17:09:01.145472-07:00,1171.8,787.7,1034.0,987.6,927.9,927.1,1987.5,1582.4,3481.9,3488.0,1378.5,939.0,1497.7,3480.7,1743.5,1278.3,3477.1,3481.9,882.3,1288.2,1597.4,2264.1,1260.4,3485.6,3481.9,3479.5,751.3,1047.8,1731.1,1018.5,905.0,1050.4,15.0,-2.0,4.0,7770.0,-6918.0,10030.0,-7720.0,23.0,-55.0,-30.0,5.0,-9.0,5.0,8985.0,-12766.0,4294.0,-2510.0,9.0,-3.0,-12.0,1.0
2022-05-03 17:09:01.170834-07:00,1171.8,790.2,1037.5,983.3,927.9,927.1,1987.5,1574.9,3481.9,3477.1,1375.7,946.6,1497.7,3480.7,1743.5,1280.1,3492.9,3481.9,882.3,1288.2,1597.4,2274.5,1255.1,3485.6,3483.2,3479.5,751.3,1047.8,1733.9,1007.3,905.9,1050.4,3.0,11.0,2.0,7785.0,-6922.0,10007.0,-7733.0,56.0,-51.0,-32.0,9.0,-9.0,16.0,8996.0,-12759.0,4289.0,-2516.0,32.0,-1.0,-9.0,1.0
2022-05-03 17:09:01.201163-07:00,1170.0,790.2,1037.5,983.3,928.8,927.9,1988.5,1574.9,3478.3,3477.1,1375.7,946.6,1492.1,3484.4,1732.0,1280.1,3492.9,3478.3,885.6,1284.6,1597.4,2274.5,1255.1,3463.7,3483.2,3483.2,754.6,1042.6,1733.9,1007.3,905.9,1064.3,14.0,3.0,2.0,7793.0,-6944.0,9982.0,-7736.0,2.0,-47.0,-47.0,5.0,-11.0,0.0,8996.0,-12759.0,4288.0,-2517.0,-29.0,0.0,-8.0,1.0
2022-05-03 17:09:01.290821-07:00,1170.0,793.5,1032.3,991.0,928.8,927.9,1988.5,1574.9,3478.3,3477.1,1375.7,942.4,1492.1,3484.4,1732.0,1281.0,3475.9,3478.3,885.6,1284.6,1597.4,2276.5,1250.6,3463.7,3486.8,3483.2,754.6,1042.6,1729.1,1009.0,906.7,1064.3,10.0,14.0,2.0,7802.0,-6965.0,9960.0,-7735.0,8.0,-70.0,-41.0,6.0,-5.0,4.0,8994.0,-12760.0,4287.0,-2517.0,-3.0,5.0,-6.0,1.0
2022-05-03 17:09:01.291852-07:00,1160.3,793.5,1032.3,991.0,924.5,918.6,1981.6,1574.9,3474.6,3477.1,1375.7,942.4,1491.2,3475.9,1725.3,1281.0,3475.9,3473.4,881.4,1292.7,1597.4,2276.5,1250.6,3438.2,3486.8,3489.2,758.7,1040.1,1729.1,1009.0,906.7,1040.9,12.0,0.0,4.0,7807.0,-6993.0,9936.0,-7737.0,10.0,-48.0,-52.0,8.0,-10.0,0.0,8989.0,-12764.0,4286.0,-2517.0,-17.0,-1.0,-10.0,1.0
2022-05-03 17:09:01.410827-07:00,1160.3,791.9,1028.0,974.8,924.5,918.6,1968.7,1563.7,3474.6,3473.4,1360.3,946.6,1491.2,3475.9,1726.3,1275.6,3488.0,3484.4,881.4,1292.7,1595.5,2266.2,1243.5,3438.2,3483.2,3486.8,758.7,1040.1,1734.9,1010.8,905.9,1040.9,8.0,12.0,0.0,7811.0,-6999.0,9925.0,-7741.0,6.0,-16.0,-4.0,7.0,-6.0,9.0,8987.0,-12765.0,4286.0,-2518.0,-2.0,-2.0,-2.0,1.0
2022-05-03 17:09:01.530249-07:00,1165.6,789.4,1028.0,974.8,925.4,918.6,1968.7,1563.7,3478.3,3474.6,1360.3,946.6,1495.8,3477.1,1726.3,1275.6,3488.0,3484.4,881.4,1290.0,1595.5,2266.2,1244.4,3421.3,3483.2,3486.8,753.8,1035.7,1734.9,1010.8,911.0,1038.3,13.0,4.0,4.0,7814.0,-7012.0,9916.0,-7738.0,6.0,-36.0,-26.0,7.0,-3.0,0.0,8986.0,-12766.0,4285.0,-2519.0,1.0,-5.0,-5.0,1.0
2022-05-03 17:09:01.560791-07:00,1165.6,789.4,1031.4,976.5,925.4,918.6,1953.9,1547.8,3478.3,3474.6,1368.5,937.3,1495.8,3477.1,1715.8,1272.1,3472.2,3483.2,881.4,1290.0,1588.9,2274.5,1244.4,3421.3,3479.5,3485.6,753.8,1035.7,1726.3,1007.3,911.0,1038.3,8.0,-2.0,3.0,7815.0,-7017.0,9911.0,-7739.0,5.0,-5.0,6.0,6.0,-9.0,4.0,8987.0,-12766.0,4285.0,-2519.0,1.0,1.0,3.0,1.0
2022-05-03 17:09:01.590307-07:00,1170.0,793.5,1031.4,976.5,927.9,920.3,1953.9,1547.8,3478.3,3475.9,1368.5,937.3,1494.9,3474.6,1715.8,1272.1,3472.2,3483.2,881.4,1289.1,1588.9,2274.5,1234.6,3404.4,3479.5,3485.6,747.2,1035.7,1726.3,1007.3,907.6,1035.7,18.0,13.0,1.0,7816.0,-7029.0,9906.0,-7734.0,-27.0,-31.0,-26.0,7.0,-3.0,2.0,8985.0,-12767.0,4284.0,-2520.0,-31.0,0.0,-2.0,1.0
2022-05-03 17:09:01.591591-07:00,1170.0,793.5,1030.6,973.1,927.9,920.3,1971.7,1549.7,3478.3,3475.9,1363.9,934.7,1494.9,3474.6,1721.5,1273.9,3483.2,3488.0,881.4,1289.1,1592.7,2272.4,1234.6,3404.4,3486.8,3480.7,747.2,1035.7,1731.1,1008.2,907.6,1035.7,2.0,-1.0,4.0,7813.0,-7032.0,9902.0,-7738.0,16.0,-1.0,-4.0,9.0,-14.0,15.0,8981.0,-12770.0,4284.0,-2519.0,-8.0,7.0,4.0,1.0
2022-05-03 17:09:01.592502-07:00,1175.3,791.0,1030.6,973.1,925.4,921.1,1971.7,1549.7,3471.0,3474.6,1363.9,934.7,1487.5,3479.5,1721.5,1273.9,3483.2,3488.0,876.4,1292.7,1592.7,2272.4,1231.9,3390.0,3486.8,3480.7,744.7,1031.4,1731.1,1008.2,912.7,1035.7,16.0,15.0,1.0,7812.0,-7040.0,9899.0,-7736.0,-21.0,-16.0,-23.0,5.0,-4.0,1.0,8979.0,-12771.0,4284.0,-2519.0,-30.0,-2.0,-1.0,1.0
2022-05-03 17:09:01.800508-07:00,1175.3,791.0,1027.1,977.3,925.4,915.2,1950.9,1550.6,3471.0,3474.6,1358.5,948.3,1487.5,3469.8,1719.6,1278.3,3467.4,3479.5,878.0,1292.7,1590.8,2273.4,1231.9,3390.0,3488.0,3479.5,743.0,1031.4,1725.3,1008.2,912.7,1035.7,11.0,2.0,2.0,7811.0,-7050.0,9893.0,-7736.0,-4.0,-11.0,-5.0,4.0,-7.0,0.0,8976.0,-12774.0,4285.0,-2519.0,-4.0,1.0,-1.0,1.0
2022-05-03 17:09:01.920222-07:00,1165.6,783.6,1024.5,977.3,933.9,915.2,1950.9,1550.6,3477.1,3480.7,1358.5,948.3,1492.1,3469.8,1719.6,1278.3,3467.4,3479.5,878.0,1296.3,1590.8,2270.3,1232.8,3409.3,3488.0,3479.5,743.0,1029.7,1725.3,1000.5,905.9,1028.0,15.0,4.0,6.0,7810.0,-7055.0,9894.0,-7732.0,-6.0,-13.0,-7.0,8.0,-5.0,0.0,8973.0,-12776.0,4285.0,-2518.0,-2.0,-3.0,-3.0,1.0
2022-05-03 17:09:01.950412-07:00,1165.6,783.6,1024.5,973.1,933.9,917.7,1965.7,1547.8,3477.1,3480.7,1358.5,938.1,1492.1,3474.6,1714.8,1273.0,3472.2,3474.6,883.1,1296.3,1597.4,2270.3,1232.8,3409.3,3481.9,3477.1,741.4,1029.7,1733.9,1000.5,905.9,1028.0,15.0,10.0,3.0,7817.0,-7052.0,9885.0,-7739.0,25.0,-15.0,-1.0,8.0,-5.0,4.0,8976.0,-12774.0,4284.0,-2520.0,9.0,1.0,0.0,1.0
2022-05-03 17:09:01.951774-07:00,1165.6,779.4,1030.6,973.1,930.5,917.7,1965.7,1547.8,3481.9,3469.8,1357.6,938.1,1484.7,3474.6,1714.8,1273.0,3472.2,3474.6,883.1,1287.3,1597.4,2271.4,1231.0,3396.0,3481.9,3477.1,741.4,1024.5,1733.9,1007.3,911.0,1023.7,13.0,10.0,2.0,7815.0,-7056.0,9882.0,-7741.0,-8.0,-10.0,-18.0,6.0,-8.0,0.0,8974.0,-12776.0,4283.0,-2520.0,-13.0,-4.0,-1.0,1.0
2022-05-03 17:09:01.952620-07:00,1165.6,779.4,1030.6,972.2,930.5,915.2,1952.9,1546.9,3481.9,3469.8,1357.6,933.9,1484.7,3481.9,1710.0,1276.5,3485.6,3479.5,883.9,1287.3,1590.8,2271.4,1231.0,3396.0,3472.2,3481.9,741.4,1024.5,1728.2,1007.3,911.0,1023.7,11.0,6.0,3.0,7812.0,-7060.0,9879.0,-7743.0,9.0,-8.0,-6.0,4.0,-6.0,-5.0,8970.0,-12778.0,4284.0,-2519.0,-3.0,-5.0,0.0,1.0
2022-05-03 17:09:02.010926-07:00,1165.6,785.2,1027.1,977.3,928.8,915.2,1952.9,1546.9,3467.4,3480.7,1353.1,935.6,1493.0,3481.9,1710.0,1276.5,3485.6,3479.5,883.9,1294.5,1596.4,2275.5,1230.2,3393.6,3472.2,3481.9,741.4,1026.3,1730.1,1003.0,914.4,1034.0,17.0,11.0,2.0,7810.0,-7059.0,9881.0,-7744.0,-7.0,1.0,-7.0,8.0,-2.0,-4.0,8968.0,-12780.0,4285.0,-2518.0,-9.0,4.0,1.0,1.0
2022-05-03 17:09:02.100360-07:00,1165.6,785.2,1027.1,977.3,931.3,913.5,1967.7,1538.5,3467.4,3480.7,1353.1,935.6,1488.4,3478.3,1713.8,1280.1,3488.0,3489.2,874.7,1287.3,1596.4,2275.5,1230.2,3393.6,3488.0,3483.2,739.7,1026.3,1730.1,1003.0,914.4,1034.0,13.0,4.0,2.0,7813.0,-7057.0,9878.0,-7748.0,15.0,5.0,4.0,10.0,-13.0,5.0,8966.0,-12781.0,4285.0,-2517.0,0.0,2.0,2.0,1.0
2022-05-03 17:09:02.251057-07:00,1163.8,779.4,1035.7,979.0,931.3,913.5,1967.7,1538.5,3481.9,3484.4,1354.0,939.8,1488.4,3478.3,1713.8,1280.1,3488.0,3489.2,874.7,1287.3,1599.3,2272.4,1230.2,3391.2,3488.0,3483.2,739.7,1026.3,1729.1,1009.9,905.9,1021.9,10.0,8.0,2.0,7818.0,-7056.0,9873.0,-7749.0,11.0,-19.0,-9.0,6.0,0.0,-4.0,8966.0,-12781.0,4285.0,-2517.0,1.0,3.0,0.0,1.0
2022-05-03 17:09:02.253100-07:00,1163.8,779.4,1035.7,979.0,928.8,912.7,1965.7,1544.1,3481.9,3484.4,1354.0,939.8,1482.9,3473.4,1709.1,1278.3,3489.2,3480.7,882.3,1290.0,1599.3,2272.4,1230.2,3391.2,3489.2,3483.2,731.5,1025.4,1729.1,1009.9,905.9,1021.9,9.0,6.0,-2.0,7819.0,-7056.0,9872.0,-7749.0,-5.0,-17.0,-8.0,5.0,-8.0,0.0,8965.0,-12782.0,4285.0,-2517.0,-13.0,1.0,0.0,1.0
