Time,P0,P1,P2,P3,P4,P5,P6,P7,P8,P9,P10,P11,P12,P13,P14,P15,P16,P17,P18,P19,P20,P21,P22,P23,P24,P25,P26,P27,P28,P29,P30,P31,ECG,AX0,AY0,AZ0,QW0,QX0,QY0,QZ0,GX0,GY0,GZ0,AX1,AY1,AZ1,QW1,QX1,QY1,QZ1,GX1,GY1,GZ1
2022-05-03 17:32:28.720855-07:00,1929.2,550.6,1566.5,1782.9,1280.1,1427.7,1346.7,1615.2,3435.8,3441.9,1835.2,1526.4,1538.5,3444.3,1188.5,1619.9,3449.1,3447.9,754.6,1259.6,922.0,561.0,1658.7,1923.3,3440.7,3445.5,804.4,1086.0,1182.3,1607.7,1426.8,1276.5,7.0,0.0,18.0,5688.0,9698.0,8532.0,8320.0,13.0,-1.0,4.0,4.0,-2.0,8.0,2223.0,1800.0,11538.0,11276.0,5.0,2.0,-1.0,1.0
2022-05-03 17:32:28.723160-07:00,1919.3,552.2,1565.5,1791.6,1280.1,1427.7,1346.7,1619.0,3446.7,3444.3,1835.2,1524.5,1538.5,3444.3,1188.5,1619.9,3435.8,3447.9,754.6,1259.6,925.4,557.8,1657.7,1936.1,3447.9,3445.5,804.4,1086.0,1186.7,1603.0,1414.9,1274.7,8.0,5.0,15.0,5687.0,9699.0,8533.0,8319.0,-3.0,4.0,-8.0,4.0,-2.0,4.0,2223.0,1800.0,11538.0,11276.0,-7.0,-1.0,-2.0,1.0
2022-05-03 17:32:28.723790-07:00,1928.2,552.2,1565.5,1791.6,1281.0,1427.7,1347.6,1619.0,3440.7,3444.3,1835.2,1524.5,1546.9,3439.5,1180.6,1619.9,3435.8,3435.8,764.5,1263.1,925.4,557.8,1657.7,1928.2,3447.9,3441.9,813.5,1084.2,1186.7,1603.0,1414.9,1281.0,8.0,0.0,13.0,5686.0,9699.0,8534.0,8318.0,16.0,-6.0,3.0,5.0,-1.0,5.0,2223.0,1800.0,11538.0,11276.0,6.0,2.0,-4.0,1.0
2022-05-03 17:32:28.724362-07:00,1928.2,553.8,1561.8,1787.8,1281.0,1427.7,1347.6,1620.9,3440.7,3445.5,1838.2,1516.2,1546.9,3439.5,1180.6,1614.3,3441.9,3435.8,764.5,1263.1,922.8,556.2,1653.0,1928.2,3437.0,3441.9,813.5,1084.2,1183.2,1608.7,1426.8,1281.0,13.0,7.0,21.0,5685.0,9701.0,8535.0,8316.0,-7.0,8.0,-6.0,3.0,-5.0,3.0,2222.0,1799.0,11538.0,11276.0,-8.0,4.0,-1.0,1.0
2022-05-03 17:32:28.729418-07:00,1919.3,553.8,1561.8,1787.8,1276.5,1428.6,1354.0,1620.9,3443.1,3445.5,1838.2,1516.2,1532.0,3444.3,1185.0,1614.3,3441.9,3439.5,763.7,1263.1,922.8,556.2,1653.0,1928.2,3437.0,3443.1,815.2,1080.8,1183.2,1608.7,1426.8,1275.6,-6.0,3.0,-14.0,5681.0,9699.0,8538.0,8318.0,18.0,-7.0,-3.0,3.0,-4.0,6.0,2222.0,1799.0,11538.0,11276.0,2.0,2.0,-1.0,1.0
2022-05-03 17:32:28.751720-07:00,1919.3,551.4,1559.0,1780.1,1276.5,1428.6,1354.0,1631.3,3443.1,3441.9,1835.2,1524.5,1532.0,3444.3,1185.0,1614.3,3441.9,3439.5,763.7,1263.1,924.5,561.0,1659.6,1928.2,3441.9,3443.1,815.2,1080.8,1194.7,1607.7,1415.8,1275.6,8.0,1.0,17.0,5680.0,9699.0,8539.0,8318.0,12.0,8.0,3.0,4.0,-3.0,2.0,2222.0,1799.0,11538.0,11276.0,1.0,-1.0,1.0,1.0
2022-05-03 17:32:28.840818-07:00,1929.2,551.4,1559.0,1780.1,1273.9,1422.2,1353.1,1631.3,3441.9,3441.9,1835.2,1524.5,1536.6,3444.3,1185.0,1614.3,3441.9,3441.9,763.7,1263.1,924.5,561.0,1659.6,1928.2,3441.9,3440.7,810.2,1085.1,1194.7,1607.7,1415.8,1277.4,10.0,2.0,13.0,5679.0,9699.0,8538.0,8319.0,13.0,-8.0,-6.0,6.0,0.0,3.0,2222.0,1799.0,11538.0,11276.0,-1.0,3.0,-3.0,1.0
2022-05-03 17:32:28.871305-07:00,1929.2,549.8,1559.0,1784.9,1273.9,1422.2,1350.3,1627.5,3441.9,3438.2,1831.3,1523.6,1536.6,3444.3,1183.2,1631.3,3444.3,3443.1,763.7,1263.1,923.7,561.8,1656.8,1928.2,3447.9,3445.5,810.2,1085.1,1146.3,1613.4,1418.6,1277.4,5.0,3.0,16.0,5677.0,9699.0,8537.0,8321.0,5.0,-3.0,-5.0,3.0,0.0,4.0,2222.0,1799.0,11538.0,11276.0,4.0,4.0,-1.0,1.0
2022-05-03 17:32:28.900844-07:00,1916.4,553.0,1559.0,1784.9,1280.1,1430.5,1350.3,1627.5,3444.3,3444.3,1831.3,1523.6,1545.9,3440.7,1183.2,1631.3,3444.3,3443.1,759.6,1274.7,923.7,561.8,1654.9,1925.2,3447.9,3445.5,809.4,1091.2,1146.3,1613.4,1414.0,1277.4,4.0,4.0,20.0,5676.0,9699.0,8537.0,8322.0,7.0,10.0,-2.0,1.0,3.0,6.0,2222.0,1799.0,11538.0,11276.0,1.0,7.0,-1.0,1.0
2022-05-03 17:32:28.931663-07:00,1916.4,553.0,1567.4,1791.6,1280.1,1430.5,1341.3,1622.8,3444.3,3444.3,1834.3,1527.3,1545.9,3440.7,1183.2,1610.5,3444.3,3441.9,759.6,1274.7,928.8,564.2,1654.9,1925.2,3444.3,3449.1,809.4,1091.2,1182.3,1605.8,1414.0,1277.4,7.0,4.0,14.0,5675.0,9696.0,8537.0,8327.0,10.0,4.0,-3.0,3.0,0.0,4.0,2222.0,1799.0,11538.0,11276.0,-2.0,5.0,-2.0,1.0
2022-05-03 17:32:29.050750-07:00,1928.2,547.4,1567.4,1791.6,1277.4,1434.1,1341.3,1622.8,3443.1,3438.2,1834.3,1527.3,1545.0,3445.5,1183.2,1610.5,3444.3,3441.9,760.4,1260.4,928.8,564.2,1656.8,1925.2,3444.3,3449.1,807.7,1083.4,1182.3,1605.8,1414.0,1276.5,7.0,1.0,11.0,5672.0,9697.0,8538.0,8327.0,10.0,2.0,-3.0,7.0,2.0,2.0,2221.0,1799.0,11538.0,11275.0,-2.0,2.0,-1.0,1.0
2022-05-03 17:32:29.051712-07:00,1928.2,547.4,1559.0,1785.8,1277.4,1434.1,1345.8,1619.0,3443.1,3438.2,1837.2,1523.6,1545.0,3445.5,1174.4,1616.2,3449.1,3441.9,760.4,1260.4,923.7,567.4,1656.8,1925.2,3440.7,3440.7,807.7,1083.4,1187.6,1609.6,1414.0,1276.5,7.0,2.0,13.0,5672.0,9697.0,8537.0,8328.0,2.0,-2.0,3.0,2.0,4.0,1.0,2221.0,1799.0,11538.0,11275.0,-4.0,0.0,-3.0,1.0
2022-05-03 17:32:29.080984-07:00,1928.2,553.8,1559.0,1785.8,1275.6,1429.5,1345.8,1619.0,3435.8,3446.7,1837.2,1523.6,1540.3,3446.7,1174.4,1616.2,3449.1,3441.9,762.0,1259.6,923.7,567.4,1647.3,1930.2,3440.7,3440.7,812.7,1081.6,1187.6,1609.6,1412.2,1279.2,4.0,3.0,13.0,5673.0,9696.0,8535.0,8331.0,1.0,-4.0,-1.0,5.0,-2.0,5.0,2221.0,1799.0,11538.0,11275.0,-4.0,-3.0,-1.0,1.0
2022-05-03 17:32:29.230504-07:00,1928.2,553.8,1557.1,1776.2,1275.6,1421.3,1342.2,1619.9,3435.8,3446.7,1833.3,1514.3,1540.3,3449.1,1183.2,1619.0,3441.9,3444.3,759.6,1259.6,918.6,566.6,1647.3,1930.2,3447.9,3441.9,813.5,1081.6,1174.4,1610.5,1412.2,1279.2,7.0,4.0,17.0,5674.0,9694.0,8533.0,8333.0,11.0,-12.0,0.0,7.0,-1.0,8.0,2222.0,1799.0,11538.0,11275.0,3.0,1.0,-1.0,1.0
2022-05-03 17:32:29.260506-07:00,1925.2,555.4,1558.1,1776.2,1270.3,1421.3,1342.2,1619.9,3439.5,3445.5,1827.5,1514.3,1538.5,3449.1,1183.2,1619.0,3441.9,3444.3,759.6,1256.0,918.6,565.0,1652.0,1927.2,3447.9,3441.9,813.5,1079.9,1174.4,1605.8,1411.3,1280.1,3.0,2.0,16.0,5674.0,9696.0,8532.0,8333.0,2.0,8.0,-4.0,5.0,-1.0,8.0,2222.0,1799.0,11540.0,11274.0,-1.0,4.0,0.0,1.0
2022-05-03 17:32:29.261747-07:00,1925.2,555.4,1558.1,1780.1,1270.3,1422.2,1341.3,1620.9,3439.5,3445.5,1827.5,1522.7,1538.5,3445.5,1177.0,1618.1,3450.4,3449.1,761.2,1256.0,916.9,565.0,1652.0,1927.2,3449.1,3446.7,807.7,1079.9,1183.2,1605.8,1411.3,1280.1,5.0,3.0,11.0,5674.0,9695.0,8531.0,8335.0,12.0,-1.0,2.0,1.0,2.0,3.0,2222.0,1799.0,11540.0,11274.0,5.0,0.0,-2.0,1.0
2022-05-03 17:32:29.290235-07:00,1922.3,544.2,1571.1,1780.1,1274.7,1422.2,1341.3,1620.9,3437.0,3454.0,1831.3,1522.7,1536.6,3445.5,1177.0,1618.1,3450.4,3449.1,761.2,1257.8,916.9,562.6,1653.9,1926.2,3449.1,3446.7,807.7,1080.8,1183.2,1606.8,1409.4,1278.3,2.0,2.0,11.0,5673.0,9695.0,8531.0,8335.0,-2.0,3.0,-4.0,3.0,0.0,5.0,2222.0,1799.0,11540.0,11274.0,-9.0,0.0,0.0,1.0
2022-05-03 17:32:29.350718-07:00,1922.3,544.2,1571.1,1788.7,1274.7,1425.0,1347.6,1615.2,3437.0,3454.0,1831.3,1523.6,1536.6,3439.5,1179.7,1618.1,3444.3,3437.0,759.6,1257.8,919.4,562.6,1653.9,1926.2,3455.2,3451.6,809.4,1080.8,1184.1,1606.8,1409.4,1278.3,4.0,2.0,16.0,5674.0,9694.0,8530.0,8338.0,8.0,4.0,-2.0,5.0,0.0,4.0,2222.0,1799.0,11540.0,11274.0,0.0,2.0,1.0,1.0
2022-05-03 17:32:29.440352-07:00,1920.3,550.6,1555.3,1786.8,1281.0,1425.0,1347.6,1615.2,3441.9,3449.1,1835.2,1523.6,1538.5,3439.5,1179.7,1618.1,3444.3,3437.0,759.6,1267.6,924.5,561.0,1657.7,1928.2,3455.2,3451.6,809.4,1084.2,1183.2,1607.7,1413.1,1276.5,4.0,6.0,14.0,5673.0,9694.0,8529.0,8339.0,2.0,1.0,3.0,2.0,3.0,6.0,2222.0,1799.0,11540.0,11274.0,-1.0,1.0,0.0,1.0
2022-05-03 17:32:29.470216-07:00,1920.3,550.6,1555.3,1786.8,1273.0,1424.1,1338.6,1627.5,3441.9,3449.1,1835.2,1523.6,1535.7,3449.1,1177.9,1620.9,3443.1,3434.6,757.1,1255.1,924.5,561.0,1657.7,1928.2,3446.7,3445.5,807.7,1078.2,1183.2,1607.7,1413.1,1276.5,4.0,0.0,15.0,5673.0,9694.0,8528.0,8339.0,15.0,-11.0,-1.0,5.0,0.0,5.0,2222.0,1799.0,11540.0,11274.0,9.0,2.0,0.0,1.0
2022-05-03 17:32:29.501132-07:00,1921.3,550.6,1562.7,1792.6,1273.0,1424.1,1338.6,1627.5,3446.7,3445.5,1823.6,1519.9,1535.7,3449.1,1177.9,1620.9,3443.1,3434.6,757.1,1255.1,921.1,561.0,1649.2,1924.3,3446.7,3445.5,807.7,1078.2,1183.2,1608.7,1414.9,1275.6,7.0,1.0,16.0,5672.0,9694.0,8529.0,8340.0,-3.0,1.0,-1.0,5.0,0.0,5.0,2222.0,1800.0,11540.0,11273.0,-4.0,-1.0,2.0,1.0
2022-05-03 17:32:29.531512-07:00,1921.3,550.6,1562.7,1792.6,1282.8,1422.2,1343.1,1627.5,3446.7,3445.5,1823.6,1519.9,1542.2,3444.3,1182.3,1615.2,3434.6,3438.2,767.0,1265.8,921.1,561.0,1649.2,1924.3,3444.3,3433.4,809.4,1086.8,1183.2,1608.7,1414.9,1275.6,3.0,3.0,12.0,5672.0,9693.0,8527.0,8342.0,12.0,-4.0,-3.0,4.0,-1.0,7.0,2222.0,1800.0,11540.0,11273.0,6.0,3.0,0.0,1.0
2022-05-03 17:32:29.590263-07:00,1923.3,550.6,1562.7,1787.8,1282.8,1422.2,1343.1,1627.5,3438.2,3440.7,1837.2,1523.6,1542.2,3444.3,1182.3,1615.2,3434.6,3438.2,767.0,1265.8,923.7,563.4,1645.4,1926.2,3444.3,3433.4,809.4,1086.8,1185.0,1598.3,1415.8,1273.9,3.0,4.0,12.0,5671.0,9694.0,8527.0,8343.0,4.0,4.0,-1.0,4.0,0.0,6.0,2222.0,1800.0,11540.0,11273.0,-1.0,3.0,0.0,1.0
2022-05-03 17:32:29.650506-07:00,1923.3,550.6,1562.7,1787.8,1281.9,1419.5,1343.1,1614.3,3438.2,3440.7,1837.2,1523.6,1538.5,3437.0,1184.1,1614.3,3444.3,3440.7,760.4,1264.9,923.7,563.4,1645.4,1926.2,3445.5,3454.0,809.4,1083.4,1185.0,1598.3,1415.8,1273.9,2.0,2.0,13.0,5671.0,9693.0,8527.0,8344.0,13.0,-4.0,-1.0,3.0,0.0,5.0,2222.0,1800.0,11540.0,11273.0,5.0,-1.0,-3.0,1.0
2022-05-03 17:32:29.711107-07:00,1920.3,549.8,1563.7,1780.1,1281.9,1419.5,1343.1,1607.7,3443.1,3449.1,1833.3,1526.4,1538.5,3437.0,1184.1,1611.5,3444.3,3440.7,760.4,1264.9,922.8,561.8,1653.9,1931.1,3438.2,3454.0,809.4,1083.4,1186.7,1609.6,1418.6,1278.3,4.0,2.0,15.0,5669.0,9693.0,8527.0,8344.0,4.0,1.0,-2.0,2.0,4.0,5.0,2222.0,1800.0,11540.0,11273.0,2.0,3.0,1.0,1.0
2022-05-03 17:32:29.740519-07:00,1920.3,549.8,1563.7,1780.1,1269.4,1426.8,1344.0,1607.7,3444.3,3449.1,1833.3,1526.4,1538.5,3444.3,1177.0,1611.5,3444.3,3444.3,762.0,1263.1,922.8,561.8,1653.9,1922.3,3438.2,3454.0,811.0,1074.7,1186.7,1609.6,1418.6,1279.2,1.0,1.0,13.0,5669.0,9693.0,8527.0,8344.0,5.0,-2.0,1.0,1.0,3.0,9.0,2222.0,1800.0,11540.0,11273.0,-2.0,-1.0,-2.0,1.0
2022-05-03 17:32:29.830236-07:00,1920.3,552.2,1559.9,1773.3,1269.4,1426.8,1344.0,1619.9,3444.3,3439.5,1835.2,1522.7,1538.5,3444.3,1177.0,1615.2,3449.1,3444.3,762.0,1263.1,917.7,559.4,1646.4,1922.3,3438.2,3454.0,811.0,1074.7,1181.5,1611.5,1407.6,1279.2,5.0,6.0,14.0,5669.0,9693.0,8527.0,8344.0,7.0,-3.0,-3.0,4.0,0.0,5.0,2222.0,1800.0,11540.0,11273.0,2.0,5.0,0.0,1.0
2022-05-03 17:32:29.832325-07:00,1920.3,552.2,1559.9,1773.3,1289.1,1425.0,1346.7,1619.9,3440.7,3439.5,1835.2,1522.7,1536.6,3441.9,1182.3,1615.2,3449.1,3443.1,762.0,1262.2,917.7,559.4,1646.4,1926.2,3438.2,3444.3,810.2,1082.5,1181.5,1611.5,1407.6,1277.4,1.0,2.0,8.0,5669.0,9694.0,8528.0,8343.0,8.0,4.0,0.0,4.0,0.0,2.0,2222.0,1800.0,11540.0,11273.0,3.0,1.0,-1.0,1.0
2022-05-03 17:32:29.920179-07:00,1920.3,551.4,1561.8,1786.8,1289.1,1425.0,1346.7,1618.1,3440.7,3435.8,1833.3,1516.2,1536.6,3441.9,1182.3,1619.9,3451.6,3443.1,762.0,1262.2,917.7,563.4,1650.2,1926.2,3451.6,3444.3,810.2,1082.5,1177.9,1606.8,1410.3,1277.4,8.0,3.0,12.0,5668.0,9694.0,8528.0,8343.0,10.0,-7.0,-2.0,3.0,0.0,3.0,2222.0,1800.0,11540.0,11273.0,2.0,-3.0,-1.0,1.0
2022-05-03 17:32:29.922130-07:00,1920.3,551.4,1561.8,1786.8,1278.3,1425.0,1346.7,1618.1,3443.1,3435.8,1833.3,1516.2,1541.3,3443.1,1185.9,1619.9,3451.6,3438.2,762.0,1259.6,917.7,563.4,1650.2,1925.2,3451.6,3454.0,809.4,1074.7,1177.9,1606.8,1410.3,1281.9,4.0,1.0,15.0,5668.0,9695.0,8528.0,8342.0,0.0,-3.0,-3.0,5.0,0.0,5.0,2222.0,1800.0,11540.0,11273.0,-3.0,1.0,1.0,1.0
2022-05-03 17:32:29.980625-07:00,1920.3,546.6,1557.1,1785.8,1278.3,1425.0,1337.7,1611.5,3443.1,3447.9,1824.6,1524.5,1541.3,3443.1,1178.8,1619.0,3445.5,3449.1,762.0,1259.6,923.7,561.0,1649.2,1925.2,3447.9,3454.0,809.4,1074.7,1177.0,1604.0,1412.2,1281.9,2.0,5.0,15.0,5668.0,9695.0,8529.0,8341.0,11.0,3.0,0.0,2.0,0.0,6.0,2222.0,1800.0,11540.0,11273.0,8.0,0.0,0.0,1.0
2022-05-03 17:32:30.040873-07:00,1922.3,547.4,1557.1,1785.8,1273.9,1426.8,1337.7,1611.5,3445.5,3447.9,1824.6,1524.5,1537.6,3444.3,1178.8,1619.0,3445.5,3449.1,760.4,1262.2,923.7,561.0,1653.0,1925.2,3447.9,3454.0,806.9,1079.9,1177.0,1604.0,1411.3,1285.5,2.0,3.0,13.0,5667.0,9695.0,8529.0,8341.0,2.0,7.0,-6.0,3.0,0.0,7.0,2222.0,1800.0,11540.0,11273.0,-6.0,2.0,-1.0,1.0
2022-05-03 17:32:30.070400-07:00,1922.3,547.4,1562.7,1789.7,1273.9,1426.8,1338.6,1612.4,3445.5,3447.9,1831.3,1522.7,1537.6,3444.3,1186.7,1611.5,3449.1,3441.9,760.4,1262.2,923.7,561.8,1653.0,1925.2,3444.3,3450.4,806.9,1079.9,1189.4,1605.8,1411.3,1285.5,3.0,0.0,12.0,5666.0,9696.0,8530.0,8340.0,11.0,-4.0,-1.0,2.0,0.0,3.0,2222.0,1800.0,11540.0,11273.0,5.0,3.0,0.0,1.0
2022-05-03 17:32:30.161092-07:00,1911.5,550.6,1562.7,1789.7,1276.5,1424.1,1338.6,1612.4,3441.9,3439.5,1831.3,1522.7,1539.4,3449.1,1186.7,1611.5,3449.1,3441.9,765.3,1263.1,923.7,561.8,1649.2,1924.3,3444.3,3450.4,804.4,1086.8,1189.4,1605.8,1419.5,1273.0,2.0,3.0,13.0,5665.0,9696.0,8531.0,8339.0,4.0,-4.0,-4.0,2.0,1.0,4.0,2222.0,1800.0,11540.0,11273.0,2.0,-1.0,-1.0,1.0
2022-05-03 17:32:30.189882-07:00,1911.5,550.6,1551.5,1782.0,1276.5,1424.1,1343.1,1612.4,3441.9,3439.5,1825.5,1516.2,1539.4,3449.1,1180.6,1616.2,3449.1,3438.2,765.3,1263.1,920.3,565.0,1649.2,1924.3,3449.1,3441.9,804.4,1086.8,1182.3,1595.5,1419.5,1273.0,2.0,3.0,11.0,5665.0,9697.0,8531.0,8339.0,3.0,0.0,5.0,4.0,-3.0,5.0,2222.0,1800.0,11540.0,11273.0,2.0,0.0,1.0,1.0
2022-05-03 17:32:30.250543-07:00,1923.3,550.6,1561.8,1782.0,1279.2,1421.3,1343.1,1612.4,3449.1,3443.1,1838.2,1516.2,1537.6,3447.9,1180.6,1616.2,3449.1,3438.2,760.4,1267.6,920.3,561.8,1654.9,1921.3,3449.1,3441.9,809.4,1079.0,1182.3,1608.7,1414.0,1280.1,6.0,3.0,12.0,5663.0,9698.0,8533.0,8337.0,13.0,-6.0,-4.0,5.0,0.0,3.0,2222.0,1800.0,11540.0,11273.0,1.0,1.0,-3.0,1.0
2022-05-03 17:32:30.280786-07:00,1923.3,550.6,1561.8,1782.0,1279.2,1417.6,1336.8,1613.4,3449.1,3443.1,1838.2,1520.8,1537.6,3450.4,1177.9,1613.4,3446.7,3439.5,762.9,1267.6,920.3,561.8,1654.9,1921.3,3446.7,3443.1,805.2,1079.0,1183.2,1608.7,1414.0,1280.1,4.0,2.0,13.0,5663.0,9698.0,8533.0,8337.0,0.0,0.0,6.0,4.0,1.0,4.0,2222.0,1800.0,11540.0,11273.0,-1.0,-1.0,-1.0,1.0
2022-05-03 17:32:30.400928-07:00,1917.4,552.2,1559.0,1782.0,1279.2,1417.6,1336.8,1613.4,3449.1,3449.1,1829.4,1520.8,1537.6,3450.4,1177.9,1613.4,3446.7,3439.5,762.9,1263.1,920.3,562.6,1648.3,1925.2,3446.7,3443.1,805.2,1084.2,1183.2,1604.9,1412.2,1289.1,3.0,3.0,16.0,5663.0,9698.0,8533.0,8337.0,3.0,0.0,-6.0,3.0,0.0,3.0,2222.0,1800.0,11540.0,11273.0,0.0,2.0,-2.0,1.0
2022-05-03 17:32:30.402142-07:00,1917.4,552.2,1559.0,1776.2,1279.2,1423.1,1336.8,1604.0,3449.1,3449.1,1829.4,1519.0,1537.6,3444.3,1184.1,1616.2,3449.1,3443.1,760.4,1263.1,921.1,562.6,1648.3,1925.2,3439.5,3445.5,804.4,1084.2,1177.9,1604.9,1412.2,1289.1,5.0,1.0,12.0,5662.0,9698.0,8533.0,8337.0,-1.0,5.0,10.0,0.0,2.0,5.0,2222.0,1800.0,11540.0,11273.0,3.0,-2.0,2.0,1.0
2022-05-03 17:32:30.430571-07:00,1920.3,551.4,1552.5,1776.2,1289.1,1423.1,1336.8,1604.0,3446.7,3440.7,1829.4,1519.0,1539.4,3444.3,1184.1,1616.2,3449.1,3443.1,760.4,1276.5,921.1,563.4,1640.7,1925.2,3439.5,3445.5,804.4,1078.2,1177.9,1607.7,1405.8,1275.6,4.0,2.0,11.0,5662.0,9698.0,8533.0,8337.0,-3.0,-5.0,0.0,5.0,0.0,4.0,2222.0,1800.0,11540.0,11273.0,-5.0,-6.0,-3.0,1.0
2022-05-03 17:32:30.580466-07:00,1920.3,551.4,1552.5,1772.3,1289.1,1420.4,1335.9,1609.6,3446.7,3440.7,1829.4,1518.0,1539.4,3449.1,1177.0,1615.2,3449.1,3445.5,761.2,1276.5,922.0,563.4,1640.7,1925.2,3454.0,3447.9,805.2,1078.2,1174.4,1607.7,1405.8,1275.6,5.0,2.0,18.0,5662.0,9698.0,8533.0,8337.0,2.0,-2.0,5.0,5.0,0.0,5.0,2222.0,1800.0,11540.0,11273.0,4.0,-1.0,1.0,1.0
2022-05-03 17:32:30.581711-07:00,1921.3,554.6,1559.9,1782.0,1279.2,1420.4,1335.9,1609.6,3449.1,3449.1,1819.7,1521.8,1542.2,3449.1,1177.0,1615.2,3449.1,3445.5,761.2,1261.3,922.8,561.8,1651.1,1926.2,3454.0,3447.9,805.2,1079.9,1184.1,1602.1,1412.2,1282.8,5.0,7.0,17.0,5662.0,9698.0,8533.0,8337.0,-8.0,-1.0,-5.0,2.0,1.0,7.0,2222.0,1800.0,11540.0,11273.0,-8.0,-1.0,-2.0,1.0
2022-05-03 17:32:30.582468-07:00,1921.3,554.6,1559.9,1782.0,1277.4,1418.6,1345.8,1612.4,3449.1,3449.1,1819.7,1521.8,1539.4,3438.2,1174.4,1615.2,3438.2,3449.1,762.0,1267.6,922.8,561.8,1651.1,1926.2,3451.6,3445.5,808.5,1087.7,1184.1,1602.1,1412.2,1282.8,5.0,2.0,13.0,5662.0,9699.0,8533.0,8337.0,12.0,0.0,5.0,2.0,0.0,6.0,2222.0,1800.0,11540.0,11273.0,8.0,6.0,0.0,1.0
2022-05-03 17:32:30.640326-07:00,1913.4,546.6,1563.7,1783.9,1277.4,1418.6,1345.8,1612.4,3444.3,3450.4,1829.4,1523.6,1539.4,3438.2,1174.4,1615.2,3438.2,3449.1,762.0,1267.6,918.6,561.8,1646.4,1925.2,3451.6,3445.5,808.5,1087.7,1184.1,1620.9,1410.3,1279.2,3.0,1.0,12.0,5662.0,9698.0,8533.0,8337.0,-12.0,7.0,-3.0,5.0,-3.0,6.0,2222.0,1800.0,11540.0,11273.0,-6.0,-5.0,1.0,1.0
2022-05-03 17:32:30.700296-07:00,1913.4,546.6,1563.7,1783.9,1275.6,1422.2,1343.1,1612.4,3444.3,3450.4,1829.4,1523.6,1536.6,3443.1,1170.9,1619.0,3438.2,3445.5,762.0,1257.8,918.6,561.8,1646.4,1925.2,3454.0,3447.9,821.9,1079.9,1184.1,1620.9,1410.3,1279.2,5.0,7.0,15.0,5662.0,9698.0,8533.0,8337.0,2.0,-6.0,0.0,4.0,3.0,4.0,2222.0,1800.0,11540.0,11273.0,-2.0,-2.0,-3.0,1.0
2022-05-03 17:32:30.820393-07:00,1913.4,546.6,1563.7,1780.1,1275.6,1422.2,1343.1,1612.4,3446.7,3443.1,1828.4,1523.6,1536.6,3443.1,1170.9,1619.0,3438.2,3445.5,762.0,1257.8,926.2,561.0,1651.1,1919.3,3454.0,3447.9,821.9,1079.9,1184.1,1611.5,1415.8,1266.7,5.0,1.0,18.0,5663.0,9698.0,8532.0,8338.0,-3.0,-2.0,1.0,2.0,0.0,4.0,2222.0,1800.0,11540.0,11273.0,-1.0,0.0,-1.0,1.0
2022-05-03 17:32:30.821388-07:00,1915.4,546.6,1563.7,1780.1,1276.5,1423.1,1336.8,1612.4,3446.7,3443.1,1828.4,1523.6,1539.4,3438.2,1180.6,1615.2,3447.9,3447.9,762.0,1265.8,926.2,561.0,1651.1,1925.2,3454.0,3449.1,811.0,1079.9,1184.1,1611.5,1415.8,1276.5,4.0,4.0,14.0,5663.0,9698.0,8532.0,8338.0,3.0,5.0,1.0,5.0,0.0,9.0,2222.0,1800.0,11540.0,11273.0,-6.0,2.0,-2.0,1.0
2022-05-03 17:32:30.850902-07:00,1915.4,551.4,1553.4,1781.0,1276.5,1423.1,1336.8,1608.7,3446.7,3438.2,1829.4,1526.4,1539.4,3438.2,1180.6,1611.5,3435.8,3447.9,762.0,1265.8,927.9,563.4,1653.9,1925.2,3443.1,3449.1,811.0,1079.9,1181.5,1608.7,1407.6,1276.5,5.0,2.0,15.0,5663.0,9698.0,8532.0,8338.0,7.0,-4.0,0.0,4.0,0.0,3.0,2222.0,1800.0,11540.0,11273.0,-1.0,-4.0,-1.0,1.0
2022-05-03 17:32:30.970298-07:00,1921.3,551.4,1553.4,1781.0,1275.6,1419.5,1335.0,1608.7,3443.1,3438.2,1829.4,1526.4,1538.5,3450.4,1178.8,1611.5,3435.8,3444.3,757.9,1260.4,927.9,563.4,1653.9,1925.2,3443.1,3446.7,810.2,1079.9,1181.5,1608.7,1407.6,1278.3,4.0,1.0,13.0,5663.0,9698.0,8532.0,8338.0,-4.0,2.0,5.0,4.0,0.0,4.0,2222.0,1800.0,11540.0,11273.0,-6.0,-4.0,3.0,1.0
2022-05-03 17:32:30.971544-07:00,1921.3,547.4,1551.5,1780.1,1275.6,1419.5,1335.0,1606.8,3443.1,3445.5,1826.5,1521.8,1538.5,3450.4,1178.8,1619.0,3445.5,3444.3,757.9,1260.4,926.2,563.4,1647.3,1925.2,3449.1,3446.7,810.2,1079.9,1185.0,1604.0,1407.6,1278.3,5.0,5.0,15.0,5663.0,9698.0,8532.0,8338.0,1.0,0.0,1.0,3.0,0.0,1.0,2222.0,1800.0,11540.0,11273.0,-4.0,-3.0,0.0,1.0
2022-05-03 17:32:30.973193-07:00,1919.3,547.4,1551.5,1780.1,1282.8,1420.4,1339.5,1606.8,3450.4,3445.5,1826.5,1521.8,1543.1,3449.1,1173.5,1619.0,3445.5,3439.5,759.6,1267.6,926.2,563.4,1647.3,1925.2,3449.1,3447.9,806.0,1079.0,1185.0,1604.0,1407.6,1285.5,4.0,2.0,18.0,5663.0,9698.0,8532.0,8338.0,-5.0,1.0,6.0,4.0,1.0,7.0,2222.0,1799.0,11540.0,11274.0,-6.0,-6.0,-1.0,1.0
2022-05-03 17:32:31.030902-07:00,1919.3,546.6,1554.3,1778.1,1282.8,1420.4,1339.5,1589.9,3450.4,3449.1,1825.5,1519.0,1543.1,3449.1,1173.5,1614.3,3435.8,3439.5,759.6,1267.6,916.9,565.0,1650.2,1925.2,3449.1,3447.9,806.0,1079.0,1179.7,1612.4,1402.1,1285.5,5.0,5.0,15.0,5663.0,9698.0,8532.0,8338.0,12.0,-1.0,-5.0,5.0,2.0,7.0,2222.0,1799.0,11540.0,11274.0,1.0,2.0,-3.0,1.0
2022-05-03 17:32:31.090374-07:00,1917.4,549.0,1554.3,1778.1,1275.6,1418.6,1335.0,1589.9,3443.1,3445.5,1825.5,1519.0,1535.7,3451.6,1178.8,1614.3,3435.8,3439.5,757.9,1257.8,916.9,565.0,1650.2,1932.1,3449.1,3447.9,804.4,1080.8,1179.7,1612.4,1415.8,1280.1,3.0,1.0,15.0,5662.0,9698.0,8533.0,8337.0,-4.0,8.0,0.0,4.0,0.0,7.0,2222.0,1799.0,11540.0,11274.0,-6.0,2.0,4.0,1.0
2022-05-03 17:32:31.150154-07:00,1917.4,549.0,1559.0,1773.3,1275.6,1418.6,1336.8,1612.4,3443.1,3445.5,1825.5,1514.3,1535.7,3451.6,1182.3,1616.2,3444.3,3444.3,757.9,1257.8,920.3,562.6,1650.2,1932.1,3441.9,3446.7,804.4,1080.8,1184.1,1607.7,1415.8,1280.1,5.0,4.0,16.0,5660.0,9699.0,8535.0,8336.0,23.0,0.0,-5.0,2.0,3.0,4.0,2221.0,1800.0,11542.0,11271.0,10.0,2.0,-6.0,1.0
2022-05-03 17:32:31.270141-07:00,1914.4,549.0,1559.0,1773.3,1275.6,1425.0,1336.8,1612.4,3438.2,3443.1,1825.5,1514.3,1537.6,3447.9,1182.3,1616.2,3444.3,3444.3,758.7,1262.2,920.3,562.6,1646.4,1932.1,3441.9,3446.7,810.2,1080.8,1184.1,1607.7,1410.3,1277.4,1.0,1.0,15.0,5658.0,9700.0,8536.0,8335.0,-3.0,7.0,-2.0,4.0,-1.0,4.0,2221.0,1800.0,11542.0,11271.0,4.0,6.0,1.0,1.0
2022-05-03 17:32:31.271602-07:00,1914.4,549.0,1555.3,1777.2,1275.6,1425.0,1337.7,1615.2,3438.2,3443.1,1822.6,1521.8,1537.6,3447.9,1176.2,1610.5,3439.5,3435.8,758.7,1262.2,921.1,560.2,1646.4,1932.1,3446.7,3454.0,810.2,1080.8,1180.6,1606.8,1410.3,1277.4,5.0,4.0,17.0,5655.0,9701.0,8538.0,8333.0,1.0,4.0,0.0,4.0,2.0,3.0,2221.0,1800.0,11543.0,11271.0,-4.0,-1.0,1.0,1.0
2022-05-03 17:32:31.300174-07:00,1920.3,550.6,1555.3,1777.2,1272.1,1427.7,1337.7,1615.2,3437.0,3445.5,1822.6,1521.8,1539.4,3443.1,1176.2,1610.5,3439.5,3435.8,762.0,1261.3,921.1,560.2,1644.5,1922.3,3446.7,3454.0,804.4,1079.0,1180.6,1606.8,1404.9,1273.0,6.0,7.0,12.0,5655.0,9701.0,8538.0,8333.0,7.0,-1.0,10.0,-3.0,5.0,11.0,2222.0,1801.0,11542.0,11271.0,7.0,-10.0,-5.0,1.0
2022-05-03 17:32:31.360460-07:00,1920.3,550.6,1549.7,1779.1,1272.1,1427.7,1331.4,1603.0,3437.0,3445.5,1829.4,1527.3,1539.4,3443.1,1172.6,1619.9,3438.2,3454.0,762.0,1261.3,918.6,561.8,1644.5,1922.3,3454.0,3449.1,804.4,1079.0,1185.9,1608.7,1404.9,1273.0,2.0,58.0,1.0,5651.0,9706.0,8529.0,8340.0,-205.0,-26.0,10.0,3.0,23.0,-10.0,2233.0,1801.0,11514.0,11298.0,-206.0,-37.0,-12.0,1.0
2022-05-03 17:32:31.480224-07:00,1927.2,560.2,1549.7,1779.1,1280.1,1423.1,1331.4,1603.0,3443.1,3444.3,1819.7,1527.3,1538.5,3443.1,1172.6,1619.9,3438.2,3454.0,764.5,1261.3,918.6,562.6,1653.0,1920.3,3454.0,3449.1,808.5,1082.5,1185.9,1603.0,1412.2,1273.9,-9.0,72.0,-56.0,5740.0,9643.0,8452.0,8430.0,-949.0,-78.0,-23.0,-17.0,64.0,-34.0,2290.0,1821.0,11339.0,11458.0,-875.0,-205.0,60.0,1.0
2022-05-03 17:32:31.481304-07:00,1927.2,560.2,1549.7,1775.2,1280.1,1434.1,1429.5,1667.2,3443.1,3444.3,1819.7,1519.0,1538.5,3443.1,1171.8,1615.2,3444.3,3438.2,757.1,1261.3,922.8,562.6,1653.0,1920.3,3447.9,3444.3,940.7,1082.5,1178.8,1603.0,1412.2,1273.9,2.0,-29.0,19.0,5955.0,9531.0,8237.0,8619.0,-655.0,153.0,72.0,13.0,-25.0,-1.0,2382.0,1877.0,11049.0,11712.0,-778.0,-226.0,87.0,1.0
2022-05-03 17:32:31.482201-07:00,2043.4,573.8,1555.3,1775.2,1274.7,1434.1,1429.5,1667.2,3439.5,3446.7,1895.8,1519.0,1537.6,3443.1,1171.8,1615.2,3444.3,3438.2,757.1,1281.9,922.8,564.2,1774.3,1922.3,3447.9,3444.3,940.7,1441.5,1178.8,1599.3,1408.5,1280.1,54.0,13.0,23.0,6023.0,9406.0,8167.0,8774.0,-178.0,265.0,-156.0,103.0,32.0,61.0,2460.0,1907.0,10866.0,11860.0,-504.0,-94.0,-22.0,1.0
2022-05-03 17:32:31.600378-07:00,2043.4,573.8,1555.3,1772.3,1274.7,1494.9,1797.4,2300.4,3439.5,3446.7,1895.8,1536.6,1537.6,3445.5,1183.2,1626.5,3443.1,3446.7,762.0,1281.9,954.3,564.2,1774.3,1922.3,3455.2,3447.9,1192.9,1441.5,1180.6,1599.3,1408.5,1280.1,10.0,26.0,40.0,5975.0,9333.0,8302.0,8758.0,545.0,220.0,-256.0,2.0,16.0,14.0,2479.0,1868.0,10829.0,11897.0,22.0,91.0,-100.0,1.0
2022-05-03 17:32:31.602645-07:00,2215.7,589.9,1547.8,1772.3,1281.0,1494.9,1797.4,2300.4,3446.7,3441.9,2101.7,1536.6,1572.1,3445.5,1183.2,1626.5,3443.1,3446.7,762.0,1316.9,954.3,565.8,1852.8,1928.2,3455.2,3447.9,1192.9,1183.2,1180.6,1600.2,1404.0,1283.7,1.0,25.0,38.0,5838.0,9306.0,8527.0,8663.0,392.0,302.0,-177.0,-2.0,14.0,-2.0,2480.0,1807.0,10840.0,11896.0,-90.0,84.0,-77.0,1.0
2022-05-03 17:32:31.690093-07:00,2215.7,589.9,1547.8,1776.2,1277.4,1609.6,1866.4,2361.9,3446.7,3441.9,2101.7,1556.2,1859.6,3443.1,1273.0,1630.3,3438.2,3441.9,764.5,1361.2,969.6,565.8,1852.8,1928.2,3440.7,3445.5,1235.5,1431.4,1177.0,1600.2,1404.0,1283.7,8.0,16.0,-24.0,5778.0,9279.0,8606.0,8653.0,-120.0,-66.0,-6.0,-5.0,-19.0,-23.0,2485.0,1760.0,10808.0,11931.0,-221.0,3.0,-46.0,1.0
2022-05-03 17:32:31.691159-07:00,2238.4,591.5,1552.5,1776.2,1277.4,1609.6,1866.4,2361.9,3445.5,3443.1,2191.2,1574.9,1859.6,3443.1,1273.0,1630.3,3438.2,3441.9,764.5,1361.2,983.3,562.6,1935.1,1929.2,3440.7,3445.5,1235.5,1431.4,1180.6,1628.4,1418.6,1330.5,14.0,10.0,-9.0,5816.0,9281.0,8588.0,8645.0,-83.0,-37.0,-34.0,-12.0,16.0,-36.0,2514.0,1739.0,10760.0,11971.0,-61.0,-47.0,-60.0,1.0
2022-05-03 17:32:31.750560-07:00,2238.4,591.5,1552.5,1776.2,1271.2,1678.6,1830.4,2281.7,3445.5,3443.1,2191.2,1574.9,1966.7,3446.7,1306.1,1636.9,3443.1,3444.3,763.7,1374.8,983.3,562.6,1935.1,1929.2,3444.3,3456.4,1226.6,1477.3,1180.6,1628.4,1418.6,1330.5,5.0,-20.0,25.0,5877.0,9253.0,8549.0,8671.0,-222.0,-56.0,-18.0,10.0,-20.0,6.0,2553.0,1739.0,10710.0,12008.0,-209.0,-73.0,-28.0,1.0
2022-05-03 17:32:31.779994-07:00,2226.0,581.8,1558.1,1784.9,1271.2,1678.6,1830.4,2281.7,3428.6,3440.7,2154.4,1577.7,1966.7,3446.7,1306.1,1636.9,3443.1,3444.3,763.7,1374.8,991.0,562.6,1949.9,1935.1,3444.3,3456.4,1226.6,1477.3,1178.8,1621.8,1432.3,1417.6,-10.0,-37.0,42.0,5932.0,9251.0,8495.0,8689.0,-105.0,-112.0,49.0,3.0,-32.0,7.0,2586.0,1744.0,10666.0,12039.0,-33.0,-55.0,-10.0,1.0
2022-05-03 17:32:31.839689-07:00,2226.0,581.8,1558.1,1784.9,1274.7,1684.3,1811.9,2268.3,3428.6,3440.7,2154.4,1577.7,1975.6,3447.9,1299.0,1638.8,3443.1,3446.7,760.4,1371.2,991.0,562.6,1949.9,1935.1,3440.7,3461.3,1217.7,1461.7,1178.8,1621.8,1432.3,1417.6,3.0,15.0,41.0,5959.0,9264.0,8439.0,8711.0,-109.0,-42.0,76.0,15.0,-17.0,18.0,2596.0,1761.0,10649.0,12049.0,-55.0,-40.0,37.0,1.0
2022-05-03 17:32:31.930746-07:00,2226.0,581.0,1545.9,1782.0,1274.7,1684.3,1811.9,2268.3,3443.1,3441.9,2145.3,1578.6,1975.6,3447.9,1299.0,1638.8,3443.1,3446.7,760.4,1371.2,991.0,564.2,1940.0,1921.3,3440.7,3461.3,1217.7,1461.7,1184.1,1606.8,1421.3,1428.6,19.0,9.0,36.0,5984.0,9266.0,8396.0,8734.0,-105.0,-51.0,34.0,8.0,-13.0,-8.0,2598.0,1771.0,10630.0,12064.0,-24.0,-8.0,1.0,1.0
2022-05-03 17:32:31.933205-07:00,2209.6,581.0,1545.9,1782.0,1270.3,1660.6,1815.8,2300.4,3441.9,3441.9,2145.3,1578.6,1959.8,3441.9,1302.5,1640.7,3449.1,3443.1,755.4,1380.3,991.0,564.2,1940.0,1939.0,3451.6,3446.7,1204.4,1433.2,1184.1,1606.8,1421.3,1410.3,-5.0,-2.0,10.0,6005.0,9236.0,8390.0,8757.0,-85.0,56.0,-42.0,0.0,12.0,19.0,2599.0,1766.0,10628.0,12067.0,-52.0,13.0,0.0,1.0
2022-05-03 17:32:32.019555-07:00,2209.6,580.2,1548.7,1777.2,1270.3,1660.6,1815.8,2266.2,3441.9,3445.5,2157.5,1576.8,1959.8,3441.9,1302.5,1636.0,3449.1,3443.1,755.4,1380.3,985.0,567.4,1912.4,1939.0,3446.7,3446.7,1204.4,1433.2,1184.1,1604.0,1414.9,1410.3,8.0,4.0,10.0,6020.0,9236.0,8365.0,8769.0,-21.0,-53.0,29.0,2.0,-4.0,-11.0,2599.0,1766.0,10618.0,12075.0,16.0,-13.0,1.0,1.0
2022-05-03 17:32:32.021090-07:00,2200.4,580.2,1548.7,1777.2,1277.4,1661.5,1808.1,2266.2,3440.7,3445.5,2157.5,1576.8,1942.0,3445.5,1309.7,1636.0,3449.1,3451.6,761.2,1373.9,985.0,567.4,1912.4,1937.1,3446.7,3446.7,1203.5,1418.6,1184.1,1604.0,1414.9,1405.8,4.0,4.0,18.0,6026.0,9231.0,8359.0,8777.0,-32.0,40.0,-27.0,2.0,-1.0,3.0,2603.0,1771.0,10620.0,12072.0,-23.0,-19.0,7.0,1.0
2022-05-03 17:32:32.079988-07:00,2200.4,579.4,1543.1,1776.2,1277.4,1661.5,1808.1,2241.4,3440.7,3446.7,2143.3,1578.6,1942.0,3445.5,1309.7,1632.2,3439.5,3451.6,761.2,1373.9,984.2,569.8,1893.8,1937.1,3438.2,3446.7,1203.5,1418.6,1180.6,1608.7,1411.3,1405.8,5.0,4.0,21.0,6037.0,9221.0,8349.0,8790.0,-15.0,-20.0,32.0,7.0,-4.0,4.0,2607.0,1776.0,10609.0,12080.0,13.0,-13.0,10.0,1.0
2022-05-03 17:32:32.169666-07:00,2213.7,579.4,1543.1,1776.2,1274.7,1653.9,1797.4,2241.4,3441.9,3446.7,2143.3,1578.6,1916.4,3438.2,1310.6,1632.2,3439.5,3444.3,762.0,1372.1,984.2,569.8,1893.8,1938.0,3438.2,3444.3,1193.8,1412.2,1180.6,1608.7,1411.3,1404.0,6.0,10.0,27.0,6032.0,9218.0,8348.0,8797.0,31.0,64.0,-34.0,4.0,3.0,0.0,2609.0,1783.0,10614.0,12074.0,19.0,-9.0,-3.0,1.0
2022-05-03 17:32:32.171118-07:00,2213.7,585.1,1539.4,1765.6,1274.7,1653.9,1794.5,2232.2,3441.9,3440.7,2142.2,1568.3,1916.4,3438.2,1295.4,1631.3,3434.6,3441.9,762.0,1372.1,980.7,562.6,1887.9,1938.0,3449.1,3451.6,1193.8,1412.2,1174.4,1604.9,1410.3,1404.0,5.0,0.0,28.0,6032.0,9187.0,8364.0,8815.0,11.0,69.0,-53.0,6.0,-3.0,7.0,2610.0,1783.0,10610.0,12078.0,31.0,3.0,-16.0,1.0
2022-05-03 17:32:32.260301-07:00,2208.6,575.4,1539.4,1765.6,1278.3,1638.8,1794.5,2232.2,3440.7,3446.7,2142.2,1568.3,1916.4,3444.3,1295.4,1631.3,3434.6,3441.9,759.6,1375.7,980.7,562.6,1885.0,1937.1,3449.1,3451.6,1179.7,1400.3,1174.4,1604.9,1407.6,1403.0,-4.0,-5.0,13.0,6011.0,9166.0,8404.0,8813.0,102.0,97.0,-55.0,7.0,-7.0,4.0,2611.0,1781.0,10626.0,12064.0,65.0,12.0,-14.0,1.0
2022-05-03 17:32:32.261494-07:00,2208.6,575.4,1535.7,1763.7,1278.3,1638.8,1792.6,2225.0,3440.7,3446.7,2127.0,1578.6,1916.4,3444.3,1289.1,1628.4,3444.3,3450.4,759.6,1375.7,981.6,561.0,1885.0,1937.1,3441.9,3443.1,1179.7,1400.3,1185.9,1596.4,1407.6,1403.0,0.0,-5.0,3.0,5991.0,9165.0,8425.0,8807.0,38.0,-29.0,14.0,8.0,-12.0,3.0,2603.0,1778.0,10644.0,12050.0,37.0,18.0,-2.0,1.0
2022-05-03 17:32:32.380649-07:00,2192.2,577.8,1535.7,1763.7,1275.6,1638.8,1792.6,2225.0,3444.3,3446.7,2127.0,1578.6,1916.4,3438.2,1289.1,1628.4,3444.3,3450.4,761.2,1367.6,981.6,561.0,1866.4,1932.1,3441.9,3443.1,1185.9,1386.6,1185.9,1596.4,1398.5,1404.9,0.0,-1.0,0.0,5993.0,9185.0,8410.0,8800.0,-43.0,-46.0,48.0,0.0,6.0,-9.0,2599.0,1779.0,10657.0,12039.0,-13.0,-17.0,19.0,1.0
2022-05-03 17:32:32.410063-07:00,2192.2,577.8,1531.0,1774.3,1275.6,1638.8,1787.8,2207.5,3444.3,3446.7,2132.1,1584.2,1916.4,3438.2,1284.6,1631.3,3441.9,3438.2,761.2,1367.6,984.2,563.4,1866.4,1932.1,3449.1,3452.8,1185.9,1386.6,1182.3,1601.1,1398.5,1404.9,7.0,9.0,5.0,6014.0,9215.0,8358.0,8803.0,-47.0,-128.0,79.0,6.0,-10.0,-10.0,2600.0,1790.0,10646.0,12047.0,-8.0,-34.0,11.0,1.0
2022-05-03 17:32:32.412026-07:00,2201.4,576.2,1531.0,1774.3,1278.3,1632.2,1787.8,2207.5,3449.1,3449.1,2132.1,1584.2,1898.7,3440.7,1284.6,1631.3,3441.9,3438.2,771.1,1373.0,984.2,563.4,1869.3,1924.3,3449.1,3452.8,1177.9,1377.5,1182.3,1601.1,1402.1,1403.0,2.0,1.0,35.0,6019.0,9232.0,8341.0,8798.0,22.0,5.0,10.0,3.0,6.0,14.0,2605.0,1801.0,10650.0,12041.0,6.0,-8.0,14.0,1.0
2022-05-03 17:32:32.470067-07:00,2201.4,576.2,1529.2,1768.5,1278.3,1622.8,1792.6,2205.5,3449.1,3449.1,2156.5,1577.7,1898.7,3446.7,1291.8,1621.8,3447.9,3445.5,763.7,1373.0,978.2,566.6,1869.3,1924.3,3440.7,3447.9,1172.6,1377.5,1187.6,1600.2,1402.1,1403.0,4.0,11.0,34.0,6024.0,9221.0,8332.0,8815.0,-7.0,24.0,5.0,4.0,0.0,6.0,2601.0,1805.0,10640.0,12050.0,4.0,6.0,11.0,1.0
2022-05-03 17:32:32.589434-07:00,2201.4,573.0,1529.2,1768.5,1266.7,1622.8,1792.6,2205.5,3447.9,3444.3,2124.0,1577.7,1896.7,3446.7,1291.8,1621.8,3447.9,3445.5,763.7,1373.0,978.2,556.2,1852.8,1929.2,3440.7,3447.9,1172.6,1371.2,1187.6,1608.7,1398.5,1392.1,3.0,12.0,14.0,6019.0,9203.0,8333.0,8835.0,-31.0,50.0,-4.0,9.0,-5.0,6.0,2598.0,1806.0,10635.0,12055.0,-18.0,11.0,0.0,1.0
2022-05-03 17:32:32.590672-07:00,2201.4,573.0,1529.2,1769.5,1266.7,1619.9,1775.2,2200.4,3447.9,3444.3,2124.0,1578.6,1896.7,3449.1,1277.4,1630.3,3438.2,3438.2,762.9,1373.0,980.7,556.2,1852.8,1929.2,3456.4,3446.7,1167.4,1371.2,1189.4,1608.7,1398.5,1392.1,-5.0,-2.0,-2.0,6013.0,9193.0,8335.0,8848.0,-30.0,16.0,28.0,4.0,5.0,7.0,2594.0,1803.0,10634.0,12057.0,-21.0,8.0,12.0,1.0
2022-05-03 17:32:32.649781-07:00,2205.5,573.0,1524.5,1769.5,1266.7,1619.9,1775.2,2200.4,3451.6,3441.9,2124.0,1578.6,1905.6,3449.1,1277.4,1630.3,3438.2,3438.2,762.9,1370.3,980.7,566.6,1853.7,1923.3,3456.4,3446.7,1167.4,1363.9,1189.4,1593.6,1393.0,1386.6,9.0,14.0,1.0,6013.0,9205.0,8323.0,8848.0,16.0,-16.0,7.0,0.0,8.0,-10.0,2591.0,1806.0,10635.0,12056.0,17.0,-10.0,-3.0,1.0
2022-05-03 17:32:32.679872-07:00,2205.5,573.0,1524.5,1773.3,1266.7,1622.8,1762.7,2174.8,3451.6,3441.9,2124.0,1569.3,1905.6,3450.4,1279.2,1627.5,3435.8,3439.5,760.4,1370.3,981.6,566.6,1853.7,1923.3,3449.1,3445.5,1167.4,1363.9,1184.1,1593.6,1393.0,1386.6,-3.0,10.0,4.0,6022.0,9202.0,8316.0,8851.0,-54.0,-31.0,11.0,6.0,2.0,11.0,2595.0,1810.0,10633.0,12057.0,-26.0,-16.0,3.0,1.0
2022-05-03 17:32:32.710106-07:00,2194.2,572.2,1521.8,1772.3,1277.4,1622.8,1762.7,2174.8,3446.7,3434.6,2124.0,1574.9,1896.7,3450.4,1279.2,1627.5,3435.8,3439.5,760.4,1379.4,979.9,563.4,1851.8,1924.3,3449.1,3445.5,1167.4,1365.7,1178.8,1593.6,1396.7,1374.8,0.0,-1.0,27.0,6026.0,9202.0,8315.0,8849.0,18.0,21.0,-16.0,0.0,-5.0,5.0,2597.0,1812.0,10635.0,12054.0,6.0,2.0,-2.0,1.0
2022-05-03 17:32:32.800248-07:00,2194.2,572.2,1521.8,1772.3,1273.0,1618.1,1761.8,2159.5,3446.7,3434.6,2124.0,1574.9,1878.1,3449.1,1285.5,1621.8,3446.7,3438.2,756.3,1382.1,979.9,563.4,1851.8,1924.3,3449.1,3445.5,1166.5,1356.7,1178.8,1593.6,1396.7,1374.8,2.0,8.0,21.0,6023.0,9183.0,8325.0,8862.0,-2.0,50.0,-17.0,9.0,7.0,15.0,2595.0,1811.0,10635.0,12055.0,7.0,15.0,7.0,1.0
2022-05-03 17:32:32.829864-07:00,2188.1,576.2,1523.6,1771.4,1273.0,1618.1,1761.8,2159.5,3446.7,3445.5,2110.8,1565.5,1878.1,3449.1,1285.5,1621.8,3446.7,3438.2,756.3,1382.1,979.0,563.4,1851.8,1924.3,3449.1,3445.5,1166.5,1356.7,1178.8,1588.9,1393.0,1375.7,9.0,12.0,2.0,6014.0,9181.0,8331.0,8864.0,8.0,9.0,4.0,2.0,15.0,-1.0,2587.0,1808.0,10644.0,12049.0,25.0,19.0,-2.0,1.0
2022-05-03 17:32:32.860432-07:00,2188.1,576.2,1523.6,1771.4,1280.1,1619.9,1768.5,2156.5,3446.7,3445.5,2110.8,1565.5,1879.1,3452.8,1281.9,1615.2,3438.2,3446.7,757.9,1367.6,979.0,563.4,1851.8,1924.3,3443.1,3446.7,1169.1,1360.3,1178.8,1588.9,1393.0,1375.7,0.0,-7.0,-2.0,6012.0,9176.0,8335.0,8867.0,8.0,14.0,-6.0,0.0,2.0,2.0,2584.0,1805.0,10647.0,12048.0,8.0,4.0,2.0,1.0
2022-05-03 17:32:32.919522-07:00,2198.3,573.0,1520.8,1774.3,1280.1,1619.9,1768.5,2156.5,3446.7,3454.0,2103.7,1573.9,1879.1,3452.8,1281.9,1615.2,3438.2,3446.7,757.9,1367.6,979.0,564.2,1849.8,1922.3,3443.1,3446.7,1169.1,1360.3,1185.0,1595.5,1393.9,1377.5,14.0,4.0,4.0,6019.0,9180.0,8324.0,8868.0,5.0,-39.0,0.0,9.0,0.0,-12.0,2585.0,1805.0,10644.0,12050.0,4.0,-10.0,-10.0,1.0
2022-05-03 17:32:32.979744-07:00,2198.3,573.0,1520.8,1774.3,1272.1,1630.3,1754.1,2163.6,3446.7,3454.0,2103.7,1573.9,1876.2,3449.1,1273.0,1624.7,3445.5,3444.3,758.7,1370.3,979.0,564.2,1849.8,1922.3,3447.9,3456.4,1156.8,1361.2,1185.0,1595.5,1393.9,1377.5,-2.0,-3.0,12.0,6023.0,9181.0,8323.0,8865.0,-10.0,-17.0,3.0,6.0,-12.0,4.0,2587.0,1806.0,10643.0,12050.0,-24.0,-9.0,-1.0,1.0
2022-05-03 17:32:33.010035-07:00,2187.1,571.4,1526.4,1766.6,1272.1,1630.3,1754.1,2148.3,3445.5,3443.1,2105.8,1568.3,1876.2,3449.1,1273.0,1622.8,3443.1,3444.3,758.7,1370.3,979.0,564.2,1842.0,1919.3,3445.5,3456.4,1156.8,1361.2,1176.2,1591.7,1390.3,1375.7,-2.0,-1.0,14.0,6025.0,9186.0,8322.0,8859.0,9.0,-15.0,8.0,4.0,-7.0,5.0,2586.0,1807.0,10646.0,12048.0,7.0,-3.0,3.0,1.0
2022-05-03 17:32:33.069675-07:00,2184.0,571.4,1526.4,1766.6,1272.1,1617.1,1756.0,2148.3,3445.5,3443.1,2105.8,1568.3,1875.2,3450.4,1275.6,1622.8,3443.1,3451.6,764.5,1371.2,979.0,564.2,1842.0,1915.4,3445.5,3446.7,1156.8,1354.9,1176.2,1591.7,1390.3,1370.3,-1.0,0.0,12.0,6025.0,9187.0,8322.0,8859.0,-2.0,7.0,8.0,5.0,6.0,5.0,2586.0,1807.0,10647.0,12047.0,4.0,5.0,6.0,1.0
2022-05-03 17:32:33.160553-07:00,2184.0,577.8,1524.5,1765.6,1272.1,1617.1,1756.0,2148.3,3445.5,3440.7,2113.9,1567.4,1875.2,3450.4,1275.6,1615.2,3449.1,3451.6,764.5,1371.2,980.7,562.6,1842.0,1915.4,3449.1,3446.7,1156.8,1354.9,1175.3,1592.7,1392.1,1370.3,6.0,1.0,11.0,6027.0,9186.0,8319.0,8861.0,1.0,4.0,-11.0,2.0,0.0,-2.0,2586.0,1808.0,10646.0,12047.0,6.0,5.0,-1.0,1.0
2022-05-03 17:32:33.161682-07:00,2185.0,577.8,1524.5,1765.6,1280.1,1609.6,1749.3,2148.3,3446.7,3440.7,2113.9,1567.4,1867.4,3447.9,1268.5,1615.2,3449.1,3435.8,757.9,1368.5,980.7,562.6,1842.0,1921.3,3449.1,3438.2,1155.0,1341.3,1175.3,1592.7,1392.1,1379.4,-2.0,2.0,7.0,6028.0,9183.0,8319.0,8864.0,-3.0,1.0,5.0,3.0,-5.0,0.0,2586.0,1808.0,10646.0,12047.0,1.0,2.0,5.0,1.0
2022-05-03 17:32:33.249631-07:00,2185.0,569.8,1519.9,1767.5,1280.1,1609.6,1749.3,2138.2,3446.7,3439.5,2108.8,1557.1,1867.4,3447.9,1268.5,1621.8,3433.4,3435.8,757.9,1368.5,979.0,565.0,1831.3,1921.3,3454.0,3438.2,1155.0,1341.3,1179.7,1593.6,1390.3,1379.4,1.0,7.0,3.0,6025.0,9185.0,8320.0,8863.0,9.0,-10.0,18.0,6.0,5.0,-1.0,2585.0,1809.0,10649.0,12045.0,12.0,-2.0,5.0,1.0
2022-05-03 17:32:33.279618-07:00,2188.1,569.8,1519.9,1767.5,1281.9,1613.4,1755.0,2138.2,3449.1,3439.5,2108.8,1557.1,1864.5,3449.1,1265.8,1621.8,3433.4,3441.9,759.6,1369.4,979.0,565.0,1831.3,1929.2,3454.0,3441.9,1154.2,1341.3,1179.7,1593.6,1390.3,1392.1,8.0,8.0,16.0,6026.0,9192.0,8314.0,8860.0,22.0,-14.0,-7.0,5.0,1.0,-7.0,2586.0,1808.0,10650.0,12044.0,14.0,-3.0,-14.0,1.0
2022-05-03 17:32:33.311164-07:00,2188.1,570.6,1519.0,1769.5,1281.9,1613.4,1748.3,2136.1,3449.1,3446.7,2100.7,1566.5,1864.5,3449.1,1268.5,1619.0,3443.1,3440.7,759.6,1369.4,974.8,565.0,1834.3,1929.2,3446.7,3454.0,1154.2,1341.3,1183.2,1589.9,1393.0,1392.1,4.0,-13.0,14.0,6026.0,9193.0,8315.0,8859.0,11.0,3.0,7.0,6.0,-9.0,-2.0,2587.0,1807.0,10651.0,12043.0,2.0,-1.0,5.0,1.0
2022-05-03 17:32:33.370087-07:00,2175.8,567.4,1519.0,1769.5,1278.3,1619.0,1748.3,2136.1,3443.1,3444.3,2100.7,1566.5,1872.3,3452.8,1268.5,1619.0,3443.1,3440.7,757.9,1367.6,974.8,565.0,1826.5,1913.4,3446.7,3454.0,1146.3,1344.9,1183.2,1589.9,1389.4,1371.2,0.0,14.0,8.0,6023.0,9190.0,8316.0,8863.0,-6.0,7.0,15.0,3.0,19.0,13.0,2585.0,1809.0,10652.0,12042.0,5.0,3.0,6.0,1.0
2022-05-03 17:32:33.489595-07:00,2175.8,567.4,1522.7,1767.5,1278.3,1619.0,1749.3,2133.1,3443.1,3444.3,2102.7,1567.4,1872.3,3452.8,1270.3,1608.7,3449.1,3441.9,757.9,1367.6,977.3,561.8,1826.5,1913.4,3441.9,3450.4,1146.3,1344.9,1182.3,1585.2,1389.4,1371.2,3.0,-4.0,12.0,6022.0,9192.0,8319.0,8859.0,33.0,11.0,-25.0,1.0,-8.0,-3.0,2585.0,1805.0,10658.0,12038.0,22.0,14.0,-15.0,1.0
2022-05-03 17:32:33.519640-07:00,2179.9,567.4,1522.7,1767.5,1273.0,1631.3,1749.3,2133.1,3438.2,3441.9,2102.7,1567.4,1854.7,3438.2,1270.3,1608.7,3449.1,3441.9,763.7,1368.5,977.3,561.8,1824.6,1910.5,3441.9,3450.4,1135.7,1336.8,1182.3,1585.2,1383.9,1366.6,1.0,6.0,6.0,6018.0,9189.0,8324.0,8860.0,-16.0,1.0,33.0,5.0,18.0,9.0,2583.0,1805.0,10659.0,12037.0,-1.0,6.0,14.0,1.0
2022-05-03 17:32:33.580289-07:00,2179.9,567.4,1519.0,1766.6,1273.0,1631.3,1749.3,2131.1,3438.2,3441.9,2103.7,1566.5,1854.7,3438.2,1265.8,1615.2,3444.3,3445.5,763.7,1368.5,980.7,562.6,1824.6,1910.5,3441.9,3451.6,1135.7,1336.8,1184.1,1583.3,1383.9,1366.6,9.0,3.0,8.0,6017.0,9197.0,8317.0,8859.0,12.0,-2.0,-19.0,6.0,3.0,-10.0,2582.0,1805.0,10660.0,12036.0,16.0,3.0,-14.0,1.0
2022-05-03 17:32:33.581212-07:00,2182.0,569.8,1509.7,1766.6,1274.7,1618.1,1749.3,2131.1,3438.2,3454.0,2095.7,1566.5,1861.5,3454.0,1265.8,1615.2,3444.3,3445.5,764.5,1363.0,980.7,559.4,1817.8,1916.4,3441.9,3451.6,1146.3,1324.1,1184.1,1582.4,1386.6,1373.9,-1.0,-9.0,6.0,6016.0,9193.0,8321.0,8859.0,-5.0,8.0,24.0,2.0,-7.0,1.0,2582.0,1805.0,10660.0,12036.0,2.0,-4.0,17.0,1.0
2022-05-03 17:32:33.699301-07:00,2182.0,569.8,1509.7,1761.8,1274.7,1611.5,1747.3,2136.1,3438.2,3454.0,2095.7,1569.3,1861.5,3443.1,1259.6,1621.8,3441.9,3441.9,754.6,1363.0,973.1,559.4,1817.8,1916.4,3449.1,3438.2,1144.5,1324.1,1184.1,1582.4,1386.6,1373.9,11.0,14.0,11.0,6015.0,9198.0,8313.0,8864.0,-1.0,-11.0,-8.0,8.0,1.0,-3.0,2580.0,1807.0,10661.0,12036.0,-8.0,-6.0,-4.0,1.0
2022-05-03 17:32:33.700889-07:00,2177.9,573.8,1514.3,1761.8,1270.3,1611.5,1747.3,2136.1,3437.0,3441.9,2094.7,1569.3,1852.8,3443.1,1259.6,1621.8,3441.9,3441.9,754.6,1372.1,973.1,561.0,1810.0,1920.3,3449.1,3438.2,1144.5,1342.2,1184.1,1585.2,1380.3,1360.3,-1.0,-16.0,16.0,6017.0,9192.0,8316.0,8864.0,-4.0,14.0,-14.0,8.0,-12.0,2.0,2582.0,1805.0,10659.0,12037.0,-15.0,2.0,-3.0,1.0
2022-05-03 17:32:33.759855-07:00,2177.9,573.8,1514.3,1765.6,1270.3,1613.4,1753.1,2123.0,3437.0,3441.9,2094.7,1564.6,1852.8,3441.9,1260.4,1616.2,3440.7,3435.8,761.2,1372.1,979.9,561.0,1810.0,1920.3,3454.0,3444.3,1133.1,1342.2,1182.3,1585.2,1380.3,1360.3,2.0,0.0,8.0,6014.0,9189.0,8318.0,8868.0,-2.0,9.0,12.0,3.0,-2.0,-3.0,2581.0,1807.0,10661.0,12036.0,5.0,1.0,11.0,1.0
2022-05-03 17:32:33.761013-07:00,2182.0,569.0,1507.8,1765.6,1279.2,1613.4,1753.1,2123.0,3454.0,3441.9,2094.7,1564.6,1855.7,3441.9,1260.4,1616.2,3440.7,3435.8,761.2,1368.5,979.9,565.0,1818.7,1919.3,3454.0,3444.3,1133.1,1334.1,1182.3,1589.9,1385.7,1370.3,-2.0,-3.0,16.0,6008.0,9184.0,8321.0,8875.0,23.0,68.0,-6.0,3.0,8.0,6.0,2574.0,1810.0,10666.0,12032.0,17.0,8.0,18.0,1.0
2022-05-03 17:32:33.820018-07:00,2182.0,569.0,1507.8,1767.5,1279.2,1605.8,1750.2,2113.9,3454.0,3441.9,2094.7,1567.4,1855.7,3440.7,1256.9,1614.3,3440.7,3437.0,762.0,1368.5,973.9,565.0,1818.7,1919.3,3456.4,3450.4,1142.7,1334.1,1183.2,1589.9,1385.7,1370.3,12.0,18.0,0.0,6006.0,9179.0,8313.0,8888.0,-7.0,-29.0,15.0,6.0,17.0,-5.0,2568.0,1811.0,10657.0,12041.0,7.0,10.0,-6.0,1.0
2022-05-03 17:32:33.939793-07:00,2180.9,573.8,1510.6,1764.6,1264.9,1605.8,1750.2,2113.9,3435.8,3438.2,2099.7,1559.0,1856.7,3440.7,1256.9,1614.3,3440.7,3437.0,762.0,1364.8,973.1,565.8,1815.8,1920.3,3456.4,3450.4,1142.7,1336.8,1180.6,1579.6,1376.6,1375.7,0.0,-8.0,3.0,6010.0,9180.0,8312.0,8886.0,-12.0,-2.0,-12.0,2.0,-1.0,-3.0,2570.0,1808.0,10655.0,12043.0,-17.0,0.0,-6.0,1.0
2022-05-03 17:32:34.000848-07:00,2180.9,573.8,1510.6,1764.6,1271.2,1603.0,1753.1,2114.9,3435.8,3438.2,2099.7,1559.0,1858.6,3433.4,1262.2,1616.2,3441.9,3444.3,754.6,1366.6,973.1,565.8,1815.8,1920.3,3440.7,3438.2,1134.0,1335.9,1180.6,1579.6,1376.6,1375.7,-1.0,1.0,6.0,6011.0,9179.0,8311.0,8887.0,-29.0,-10.0,18.0,1.0,-2.0,0.0,2569.0,1809.0,10652.0,12046.0,-24.0,-11.0,11.0,1.0
2022-05-03 17:32:34.029639-07:00,2186.0,568.2,1519.0,1763.7,1271.2,1603.0,1753.1,2114.9,3447.9,3449.1,2081.6,1560.9,1858.6,3433.4,1262.2,1616.2,3441.9,3444.3,754.6,1366.6,973.9,556.2,1818.7,1920.3,3440.7,3438.2,1134.0,1335.9,1183.2,1576.8,1385.7,1371.2,3.0,8.0,11.0,6010.0,9180.0,8307.0,8890.0,15.0,21.0,-8.0,7.0,7.0,1.0,2567.0,1811.0,10654.0,12044.0,15.0,3.0,1.0,1.0
2022-05-03 17:32:34.030827-07:00,2186.0,568.2,1519.0,1763.7,1267.6,1604.0,1744.5,2122.0,3447.9,3449.1,2081.6,1560.9,1857.6,3443.1,1262.2,1611.5,3438.2,3428.6,762.0,1361.2,973.9,556.2,1818.7,1920.3,3447.9,3451.6,1134.9,1332.3,1183.2,1576.8,1385.7,1371.2,0.0,-8.0,18.0,6001.0,9176.0,8317.0,8891.0,40.0,29.0,2.0,0.0,6.0,8.0,2565.0,1811.0,10662.0,12038.0,47.0,15.0,4.0,1.0
2022-05-03 17:32:34.089007-07:00,2175.8,565.0,1516.2,1764.6,1267.6,1604.0,1744.5,2122.0,3439.5,3438.2,2095.7,1562.7,1857.6,3443.1,1262.2,1611.5,3438.2,3428.6,762.0,1361.2,977.3,565.8,1805.2,1917.4,3447.9,3451.6,1134.9,1332.3,1174.4,1591.7,1388.5,1360.3,3.0,6.0,10.0,5992.0,9170.0,8318.0,8902.0,-44.0,18.0,7.0,5.0,1.0,0.0,2561.0,1812.0,10657.0,12043.0,-10.0,8.0,-4.0,1.0
2022-05-03 17:32:34.119578-07:00,2175.8,565.0,1516.2,1764.6,1276.5,1592.7,1749.3,2116.9,3439.5,3438.2,2095.7,1562.7,1867.4,3440.7,1262.2,1610.5,3437.0,3444.3,759.6,1366.6,977.3,565.8,1805.2,1917.4,3445.5,3441.9,1140.1,1326.8,1174.4,1591.7,1388.5,1360.3,-8.0,-19.0,-3.0,5984.0,9171.0,8331.0,8894.0,41.0,6.0,-26.0,6.0,-16.0,-4.0,2559.0,1806.0,10669.0,12033.0,26.0,11.0,-13.0,1.0
2022-05-03 17:32:34.239362-07:00,2163.6,566.6,1514.3,1770.4,1276.5,1592.7,1749.3,2110.8,3443.1,3438.2,2093.7,1565.5,1867.4,3440.7,1262.2,1615.2,3441.9,3444.3,759.6,1366.6,970.5,565.8,1800.3,1917.4,3441.9,3441.9,1140.1,1326.8,1182.3,1586.1,1383.9,1362.1,0.0,-30.0,-9.0,5973.0,9206.0,8355.0,8843.0,204.0,-191.0,-10.0,17.0,-45.0,-10.0,2557.0,1805.0,10709.0,11998.0,139.0,-3.0,-23.0,1.0
2022-05-03 17:32:34.270216-07:00,2169.7,566.6,1514.3,1770.4,1264.0,1595.5,1738.7,2110.8,3449.1,3438.2,2093.7,1565.5,2003.5,3451.6,1260.4,1615.2,3441.9,3439.5,759.6,1351.2,970.5,565.8,1800.3,1917.4,3441.9,3447.9,1153.3,1356.7,1182.3,1586.1,1383.9,1378.5,-1.0,10.0,-18.0,6008.0,9266.0,8387.0,8727.0,-126.0,-270.0,-149.0,9.0,61.0,3.0,2555.0,1797.0,10803.0,11915.0,344.0,17.0,-84.0,1.0
2022-05-03 17:32:34.271049-07:00,2169.7,569.8,1509.7,1759.8,1264.0,1595.5,1738.7,2185.0,3449.1,3440.7,2122.0,1582.4,2003.5,3451.6,1260.4,1612.4,3441.9,3439.5,759.6,1351.2,964.5,565.8,1893.8,1917.4,3444.3,3447.9,1153.3,1356.7,1180.6,1590.8,1381.2,1378.5,-6.0,-54.0,-21.0,6232.0,9266.0,8242.0,8707.0,-404.0,-532.0,-42.0,7.0,-3.0,20.0,2552.0,1793.0,10847.0,11876.0,123.0,49.0,8.0,1.0
2022-05-03 17:32:34.359513-07:00,2160.5,569.8,1509.7,1759.8,1268.5,1559.0,1773.3,2185.0,3454.0,3440.7,2122.0,1582.4,2059.4,3454.0,1240.8,1612.4,3441.9,3438.2,760.4,1344.0,964.5,565.8,1893.8,1916.4,3444.3,3447.9,1167.4,1306.1,1180.6,1590.8,1381.2,1363.9,1.0,-3.0,-28.0,6378.0,9478.0,8082.0,8520.0,317.0,-1053.0,185.0,5.0,14.0,-4.0,2504.0,1789.0,10972.0,11772.0,527.0,121.0,-20.0,1.0
2022-05-03 17:32:34.389268-07:00,2160.5,590.7,1514.3,1769.5,1268.5,1559.0,1773.3,2119.9,3454.0,3440.7,2069.5,1576.8,2059.4,3454.0,1240.8,1611.5,3439.5,3438.2,760.4,1344.0,962.0,565.0,2088.6,1916.4,3456.4,3447.9,1167.4,1306.1,1182.3,1594.6,1389.4,1363.9,25.0,-34.0,46.0,6433.0,9866.0,7962.0,8144.0,700.0,-1039.0,196.0,-13.0,5.0,-47.0,2443.0,1801.0,11191.0,11575.0,761.0,54.0,-8.0,1.0
2022-05-03 17:32:34.419186-07:00,2133.1,627.8,1514.3,1769.5,1272.1,1530.1,1671.0,2119.9,3438.2,3450.4,2069.5,1576.8,2008.4,3454.0,1204.4,1611.5,3439.5,3435.8,762.0,1336.8,962.0,565.0,2045.4,1914.4,3456.4,3444.3,1171.8,1297.2,1182.3,1594.6,1386.6,1355.8,16.0,22.0,60.0,6304.0,10225.0,7960.0,7795.0,1043.0,-680.0,257.0,-2.0,11.0,1.0,2391.0,1851.0,11401.0,11371.0,669.0,18.0,53.0,1.0
2022-05-03 17:32:34.479919-07:00,2133.1,627.8,1532.0,1772.3,1272.1,1530.1,1536.6,1796.5,3438.2,3450.4,2013.4,1562.7,2008.4,3454.0,1193.8,1605.8,3439.5,3445.5,762.0,1336.8,967.1,571.4,2045.4,1914.4,3444.3,3447.9,1171.8,1297.2,1181.5,1588.0,1386.6,1355.8,9.0,67.0,67.0,6077.0,10583.0,8006.0,7444.0,971.0,-617.0,267.0,0.0,24.0,26.0,2333.0,1900.0,11577.0,11196.0,539.0,45.0,45.0,1.0
2022-05-03 17:32:34.599967-07:00,2176.9,667.6,1532.0,1772.3,1269.4,1532.9,1536.6,1796.5,3443.1,3446.7,2013.4,1562.7,1949.9,3443.1,1193.8,1605.8,3439.5,3445.5,767.0,1335.9,967.1,571.4,2012.4,1912.4,3444.3,3447.9,1060.8,1296.3,1181.5,1588.0,1394.8,1352.1,18.0,28.0,53.0,5968.0,10794.0,8011.0,7220.0,418.0,-304.0,65.0,0.0,4.0,-28.0,2289.0,1918.0,11690.0,11084.0,282.0,42.0,8.0,1.0
2022-05-03 17:32:34.602383-07:00,2176.9,667.6,1530.1,1771.4,1269.4,1532.9,1457.1,1717.7,3443.1,3446.7,1972.7,1558.1,1949.9,3443.1,1179.7,1604.9,3434.6,3445.5,767.0,1335.9,963.7,582.6,2012.4,1912.4,3450.4,3444.3,1060.8,1296.3,1178.8,1588.0,1394.8,1352.1,4.0,5.0,54.0,5856.0,10859.0,8097.0,7118.0,474.0,99.0,-45.0,0.0,-5.0,1.0,2268.0,1928.0,11778.0,10993.0,336.0,12.0,-10.0,1.0
2022-05-03 17:32:34.603132-07:00,2168.7,676.6,1530.1,1771.4,1274.7,1517.1,1457.1,1717.7,3443.1,3445.5,1972.7,1558.1,1918.3,3443.1,1179.7,1604.9,3434.6,3445.5,764.5,1334.1,963.7,582.6,1997.5,1911.5,3450.4,3444.3,1016.8,1269.4,1178.8,1588.0,1385.7,1352.1,10.0,10.0,40.0,5689.0,10875.0,8228.0,7078.0,463.0,296.0,-59.0,2.0,8.0,-3.0,2244.0,1941.0,11873.0,10893.0,320.0,24.0,8.0,1.0
2022-05-03 17:32:34.689388-07:00,2168.7,676.6,1506.9,1767.5,1274.7,1517.1,1432.3,1692.9,3443.1,3445.5,1937.1,1557.1,1918.3,3443.1,1175.3,1603.0,3439.5,3434.6,764.5,1334.1,965.4,577.0,1997.5,1911.5,3439.5,3439.5,1016.8,1269.4,1183.2,1581.4,1385.7,1352.1,0.0,9.0,-4.0,5503.0,10853.0,8380.0,7081.0,405.0,354.0,-75.0,13.0,9.0,13.0,2214.0,1947.0,11958.0,10805.0,271.0,59.0,-11.0,1.0
2022-05-03 17:32:34.809564-07:00,2155.5,665.2,1507.8,1767.5,1269.4,1515.3,1432.3,1692.9,3443.1,3449.1,1932.1,1557.1,1900.7,3438.2,1175.3,1603.0,3439.5,3434.6,768.7,1324.1,965.4,579.4,1972.7,1910.5,3439.5,3439.5,993.6,1256.0,1183.2,1587.1,1384.8,1332.3,2.0,7.0,-17.0,5381.0,10849.0,8476.0,7067.0,237.0,91.0,-22.0,-3.0,14.0,-14.0,2184.0,1932.0,12019.0,10746.0,155.0,74.0,-15.0,1.0
2022-05-03 17:32:34.810791-07:00,2155.5,665.2,1507.8,1775.2,1269.4,1492.1,1420.4,1664.4,3443.1,3449.1,1932.1,1563.7,1900.7,3447.9,1165.6,1606.8,3440.7,3433.4,770.3,1324.1,952.6,579.4,1972.7,1910.5,3446.7,3438.2,981.6,1256.0,1184.1,1587.1,1384.8,1332.3,8.0,-9.0,-11.0,5335.0,10835.0,8517.0,7073.0,-6.0,148.0,-52.0,1.0,-3.0,-26.0,2171.0,1923.0,12037.0,10730.0,-14.0,14.0,4.0,1.0
2022-05-03 17:32:34.812183-07:00,2154.4,659.5,1507.8,1775.2,1266.7,1492.1,1420.4,1664.4,3446.7,3438.2,1933.1,1563.7,1876.2,3447.9,1165.6,1606.8,3440.7,3433.4,770.3,1330.5,952.6,579.4,1971.7,1912.4,3446.7,3438.2,981.6,1251.5,1184.1,1588.0,1383.0,1332.3,-2.0,-2.0,0.0,5327.0,10799.0,8544.0,7103.0,-33.0,72.0,-50.0,9.0,0.0,1.0,2172.0,1924.0,12033.0,10734.0,-22.0,-10.0,-5.0,1.0
2022-05-03 17:32:34.899866-07:00,2154.4,659.5,1507.8,1765.6,1266.7,1503.2,1418.6,1660.6,3446.7,3438.2,1933.1,1549.7,1876.2,3438.2,1171.8,1594.6,3441.9,3437.0,770.3,1330.5,955.1,579.4,1971.7,1912.4,3444.3,3439.5,977.3,1251.5,1186.7,1588.0,1383.0,1332.3,1.0,1.0,22.0,5339.0,10790.0,8547.0,7104.0,-19.0,-18.0,-6.0,0.0,3.0,4.0,2173.0,1925.0,12030.0,10737.0,-12.0,-6.0,-3.0,1.0
2022-05-03 17:32:34.929029-07:00,2149.3,657.9,1506.0,1765.6,1269.4,1503.2,1418.6,1660.6,3446.7,3444.3,1916.4,1549.7,1860.6,3438.2,1171.8,1594.6,3441.9,3437.0,770.3,1315.1,955.1,575.4,1953.9,1906.6,3444.3,3439.5,977.3,1239.1,1186.7,1586.1,1377.5,1328.7,4.0,4.0,21.0,5347.0,10787.0,8535.0,7116.0,-32.0,3.0,30.0,4.0,2.0,0.0,2174.0,1924.0,12024.0,10744.0,-20.0,4.0,4.0,1.0
2022-05-03 17:32:34.989004-07:00,2149.3,657.9,1506.0,1766.6,1267.6,1503.2,1413.1,1657.7,3446.7,3444.3,1916.4,1552.5,1856.7,3443.1,1163.8,1604.9,3439.5,3433.4,770.3,1325.9,955.1,575.4,1953.9,1906.6,3441.9,3439.5,961.1,1239.9,1182.3,1586.1,1377.5,1328.7,3.0,11.0,12.0,5349.0,10788.0,8528.0,7122.0,-7.0,-8.0,-3.0,1.0,4.0,-9.0,2172.0,1922.0,12024.0,10745.0,-2.0,10.0,-1.0,1.0
2022-05-03 17:32:35.019289-07:00,2151.4,659.5,1502.3,1760.8,1267.6,1503.2,1413.1,1657.7,3443.1,3446.7,1915.4,1550.6,1856.7,3443.1,1163.8,1604.9,3439.5,3433.4,770.3,1325.9,959.4,576.2,1956.8,1908.5,3441.9,3439.5,961.1,1239.9,1181.5,1584.2,1383.0,1326.8,7.0,-5.0,12.0,5363.0,10775.0,8522.0,7138.0,-71.0,33.0,2.0,7.0,-2.0,-9.0,2173.0,1920.0,12015.0,10755.0,-43.0,-1.0,1.0,1.0
2022-05-03 17:32:35.078852-07:00,2151.4,659.5,1502.3,1760.8,1263.1,1496.7,1397.6,1657.7,3443.1,3446.7,1915.4,1550.6,1848.9,3443.1,1166.5,1591.7,3438.2,3435.8,767.0,1321.4,959.4,576.2,1956.8,1908.5,3443.1,3451.6,966.2,1236.4,1181.5,1584.2,1383.0,1326.8,0.0,2.0,20.0,5364.0,10760.0,8518.0,7164.0,-25.0,42.0,12.0,3.0,2.0,0.0,2174.0,1920.0,12010.0,10760.0,-7.0,-10.0,-3.0,1.0
2022-05-03 17:32:35.109650-07:00,2152.4,658.7,1496.7,1762.7,1263.1,1496.7,1397.6,1657.7,3446.7,3441.9,1916.4,1547.8,1848.9,3443.1,1166.5,1591.7,3438.2,3435.8,767.0,1321.4,954.3,577.8,1943.0,1908.5,3443.1,3451.6,966.2,1236.4,1181.5,1580.5,1383.0,1314.2,0.0,4.0,16.0,5356.0,10751.0,8522.0,7180.0,17.0,18.0,13.0,8.0,-1.0,0.0,2174.0,1920.0,12010.0,10760.0,11.0,10.0,1.0,1.0
2022-05-03 17:32:35.199790-07:00,2152.4,658.7,1496.7,1762.7,1263.1,1490.3,1400.3,1652.0,3446.7,3441.9,1916.4,1547.8,1847.9,3445.5,1161.2,1596.4,3439.5,3446.7,765.3,1321.4,954.3,577.8,1943.0,1908.5,3447.9,3449.1,955.1,1228.4,1181.5,1580.5,1383.0,1314.2,0.0,7.0,8.0,5342.0,10749.0,8531.0,7181.0,27.0,31.0,-5.0,0.0,4.0,-6.0,2170.0,1919.0,12015.0,10755.0,11.0,9.0,-1.0,1.0
2022-05-03 17:32:35.201042-07:00,2134.1,655.4,1494.0,1761.8,1263.1,1490.3,1400.3,1652.0,3451.6,3438.2,1914.4,1545.9,1847.9,3445.5,1161.2,1596.4,3439.5,3446.7,765.3,1321.4,949.2,574.6,1936.1,1904.6,3447.9,3449.1,955.1,1228.4,1180.6,1580.5,1388.5,1317.8,-2.0,-2.0,12.0,5338.0,10744.0,8534.0,7190.0,-11.0,24.0,1.0,4.0,-6.0,-2.0,2170.0,1919.0,12015.0,10756.0,-7.0,-4.0,5.0,1.0
2022-05-03 17:32:35.259435-07:00,2140.2,655.4,1494.0,1761.8,1263.1,1491.2,1398.5,1634.1,3445.5,3438.2,1914.4,1545.9,1842.0,3435.8,1158.6,1597.4,3434.6,3449.1,767.0,1319.6,949.2,574.6,1936.1,1909.5,3443.1,3441.9,959.4,1227.5,1180.6,1580.5,1388.5,1318.7,0.0,10.0,12.0,5332.0,10746.0,8535.0,7189.0,19.0,-1.0,6.0,2.0,4.0,-5.0,2170.0,1920.0,12017.0,10753.0,15.0,-2.0,0.0,1.0
2022-05-03 17:32:35.319257-07:00,2140.2,659.5,1492.1,1756.0,1263.1,1491.2,1398.5,1643.5,3445.5,3435.8,1912.4,1553.4,1842.0,3435.8,1158.6,1596.4,3444.3,3449.1,767.0,1319.6,955.1,575.4,1936.1,1909.5,3451.6,3441.9,959.4,1227.5,1179.7,1581.4,1382.1,1318.7,0.0,-3.0,13.0,5336.0,10745.0,8531.0,7192.0,-23.0,-13.0,10.0,3.0,-1.0,1.0,2170.0,1920.0,12017.0,10754.0,-8.0,2.0,6.0,1.0
2022-05-03 17:32:35.349740-07:00,2132.1,659.5,1492.1,1756.0,1268.5,1491.2,1386.6,1643.5,3440.7,3435.8,1912.4,1553.4,1834.3,3441.9,1161.2,1596.4,3444.3,3438.2,768.7,1317.8,955.1,575.4,1936.1,1910.5,3451.6,3441.9,951.7,1228.4,1179.7,1581.4,1382.1,1320.5,0.0,6.0,11.0,5333.0,10767.0,8521.0,7174.0,83.0,-67.0,31.0,2.0,3.0,-3.0,2166.0,1923.0,12026.0,10743.0,58.0,6.0,6.0,1.0
2022-05-03 17:32:35.439742-07:00,2132.1,659.5,1493.0,1759.8,1268.5,1491.2,1386.6,1616.2,3440.7,3440.7,1909.5,1542.2,1834.3,3441.9,1161.2,1597.4,3437.0,3438.2,768.7,1317.8,950.0,577.8,1929.2,1910.5,3441.9,3441.9,951.7,1228.4,1180.6,1579.6,1367.6,1320.5,10.0,12.0,20.0,5333.0,10783.0,8511.0,7161.0,-48.0,-6.0,16.0,0.0,10.0,-13.0,2166.0,1925.0,12032.0,10737.0,-27.0,-10.0,8.0,1.0
2022-05-03 17:32:35.469059-07:00,2125.0,659.5,1493.0,1759.8,1268.5,1489.3,1380.3,1616.2,3438.2,3440.7,1909.5,1542.2,1828.4,3445.5,1153.3,1597.4,3437.0,3435.8,764.5,1316.9,950.0,577.8,1929.2,1908.5,3441.9,3438.2,956.8,1231.9,1180.6,1579.6,1367.6,1317.8,1.0,-5.0,12.0,5347.0,10768.0,8496.0,7191.0,-57.0,17.0,21.0,5.0,-8.0,0.0,2166.0,1925.0,12020.0,10750.0,-25.0,0.0,10.0,1.0
2022-05-03 17:32:35.499438-07:00,2125.0,653.8,1494.0,1762.7,1268.5,1489.3,1385.7,1626.5,3438.2,3443.1,1920.3,1545.9,1828.4,3445.5,1151.5,1597.4,3437.0,3439.5,764.5,1316.9,948.3,576.2,1931.1,1908.5,3444.3,3438.2,956.8,1231.9,1177.9,1579.6,1374.8,1317.8,0.0,5.0,13.0,5349.0,10768.0,8491.0,7196.0,-7.0,-5.0,9.0,3.0,0.0,-6.0,2166.0,1925.0,12020.0,10750.0,-2.0,3.0,3.0,1.0
2022-05-03 17:32:35.559392-07:00,2140.2,653.8,1494.0,1762.7,1271.2,1489.3,1385.7,1626.5,3440.7,3440.7,1920.3,1545.9,1825.5,3438.2,1151.5,1597.4,3437.0,3439.5,772.0,1311.5,948.3,576.2,1928.2,1903.6,3444.3,3438.2,952.6,1229.3,1177.9,1579.6,1383.9,1312.4,1.0,1.0,16.0,5352.0,10765.0,8488.0,7202.0,4.0,16.0,6.0,7.0,-3.0,-7.0,2165.0,1925.0,12020.0,10750.0,1.0,-4.0,-1.0,1.0
2022-05-03 17:32:35.619143-07:00,2140.2,653.8,1489.3,1760.8,1271.2,1489.3,1383.9,1628.4,3440.7,3440.7,1903.6,1543.1,1825.5,3438.2,1159.4,1590.8,3440.7,3446.7,772.0,1311.5,952.6,576.2,1928.2,1903.6,3446.7,3450.4,952.6,1229.3,1184.1,1582.4,1383.9,1312.4,4.0,3.0,12.0,5347.0,10767.0,8492.0,7198.0,39.0,-8.0,1.0,6.0,4.0,-4.0,2164.0,1927.0,12024.0,10745.0,29.0,2.0,1.0,1.0
2022-05-03 17:32:35.679246-07:00,2152.4,650.5,1489.3,1760.8,1258.7,1483.8,1383.9,1628.4,3446.7,3439.5,1903.6,1543.1,1821.6,3438.2,1159.4,1590.8,3440.7,3446.7,761.2,1316.0,952.6,576.2,1925.2,1910.5,3446.7,3450.4,948.3,1225.7,1184.1,1582.4,1370.3,1316.9,0.0,7.0,14.0,5336.0,10767.0,8498.0,7198.0,-3.0,17.0,6.0,5.0,7.0,0.0,2163.0,1928.0,12031.0,10738.0,5.0,-4.0,0.0,1.0
2022-05-03 17:32:35.738957-07:00,2152.4,650.5,1485.6,1758.9,1258.7,1483.8,1377.5,1620.9,3446.7,3439.5,1902.6,1542.2,1821.6,3438.2,1154.2,1590.8,3434.6,3443.1,761.2,1316.0,948.3,573.8,1925.2,1910.5,3445.5,3449.1,948.3,1225.7,1185.9,1573.9,1370.3,1316.9,-3.0,7.0,8.0,5335.0,10763.0,8499.0,7205.0,7.0,-1.0,0.0,4.0,4.0,1.0,2162.0,1929.0,12031.0,10738.0,9.0,5.0,-3.0,1.0
2022-05-03 17:32:35.769708-07:00,2126.0,648.9,1485.6,1758.9,1265.8,1494.9,1377.5,1620.9,3439.5,3446.7,1902.6,1542.2,1818.7,3435.8,1154.2,1590.8,3434.6,3443.1,766.2,1316.9,948.3,573.8,1917.4,1903.6,3445.5,3449.1,943.2,1223.0,1185.9,1573.9,1378.5,1325.9,2.0,4.0,11.0,5333.0,10761.0,8502.0,7205.0,-18.0,30.0,-17.0,4.0,2.0,-9.0,2162.0,1929.0,12030.0,10739.0,-14.0,3.0,-4.0,1.0
2022-05-03 17:32:35.828840-07:00,2126.0,648.9,1500.4,1754.1,1265.8,1486.6,1377.5,1620.9,3439.5,3446.7,1905.6,1543.1,1818.7,3443.1,1148.9,1590.8,3446.7,3439.5,765.3,1316.9,950.9,577.8,1917.4,1903.6,3445.5,3440.7,942.4,1223.0,1182.3,1583.3,1378.5,1325.9,1.0,-4.0,7.0,5338.0,10754.0,8500.0,7215.0,-11.0,-1.0,18.0,4.0,-1.0,-6.0,2163.0,1928.0,12026.0,10743.0,1.0,-1.0,6.0,1.0
2022-05-03 17:32:35.889236-07:00,2124.0,645.7,1487.5,1754.1,1263.1,1486.6,1377.5,1620.9,3439.5,3433.4,1901.6,1543.1,1811.0,3443.1,1148.9,1590.8,3446.7,3439.5,765.3,1316.0,950.9,577.8,1911.5,1910.5,3445.5,3440.7,942.4,1216.8,1182.3,1573.9,1371.2,1314.2,3.0,5.0,6.0,5337.0,10753.0,8495.0,7222.0,-26.0,16.0,3.0,6.0,1.0,-3.0,2164.0,1928.0,12022.0,10747.0,-24.0,-3.0,6.0,1.0
2022-05-03 17:32:35.919134-07:00,2124.0,645.7,1487.5,1755.0,1263.1,1479.2,1381.2,1613.4,3439.5,3433.4,1901.6,1540.3,1811.0,3449.1,1152.4,1592.7,3441.9,3447.9,764.5,1316.0,949.2,577.8,1911.5,1910.5,3444.3,3445.5,947.5,1216.8,1181.5,1573.9,1371.2,1314.2,-3.0,0.0,10.0,5342.0,10746.0,8491.0,7233.0,2.0,-10.0,0.0,4.0,-3.0,1.0,2165.0,1926.0,12017.0,10753.0,-2.0,-5.0,-3.0,1.0
2022-05-03 17:32:35.949654-07:00,2124.0,646.5,1483.8,1755.0,1264.9,1479.2,1381.2,1613.4,3451.6,3443.1,1896.7,1540.3,1807.1,3449.1,1152.4,1592.7,3441.9,3447.9,764.5,1317.8,949.2,574.6,1905.6,1903.6,3444.3,3445.5,947.5,1217.7,1181.5,1573.9,1374.8,1312.4,5.0,4.0,14.0,5345.0,10748.0,8490.0,7230.0,-17.0,1.0,-5.0,6.0,5.0,0.0,2165.0,1926.0,12016.0,10754.0,-13.0,-5.0,-4.0,1.0
2022-05-03 17:32:36.099138-07:00,2124.0,646.5,1483.8,1756.0,1264.9,1475.5,1381.2,1620.9,3451.6,3443.1,1896.7,1545.9,1807.1,3443.1,1155.0,1600.2,3443.1,3439.5,772.0,1317.8,946.6,574.6,1905.6,1903.6,3451.6,3450.4,940.7,1217.7,1179.7,1573.9,1374.8,1312.4,3.0,4.0,8.0,5348.0,10749.0,8485.0,7231.0,33.0,-24.0,18.0,6.0,0.0,-5.0,2165.0,1926.0,12016.0,10754.0,26.0,4.0,-2.0,1.0
2022-05-03 17:32:36.100303-07:00,2123.0,650.5,1483.8,1756.0,1268.5,1475.5,1381.2,1620.9,3444.3,3444.3,1899.7,1545.9,1813.9,3443.1,1155.0,1600.2,3443.1,3439.5,772.0,1313.3,946.6,576.2,1906.6,1901.6,3451.6,3450.4,940.7,1217.7,1179.7,1577.7,1378.5,1310.6,0.0,9.0,12.0,5343.0,10754.0,8485.0,7228.0,-20.0,12.0,-2.0,3.0,3.0,-5.0,2165.0,1927.0,12018.0,10752.0,-11.0,-6.0,1.0,1.0
2022-05-03 17:32:36.129533-07:00,2123.0,650.5,1483.8,1756.0,1263.1,1479.2,1374.8,1614.3,3444.3,3444.3,1899.7,1537.6,1809.0,3454.0,1150.6,1590.8,3449.1,3434.6,769.5,1317.8,956.0,576.2,1906.6,1901.6,3447.9,3441.9,941.5,1221.3,1184.1,1577.7,1378.5,1310.6,0.0,-3.0,8.0,5347.0,10751.0,8482.0,7233.0,18.0,-8.0,2.0,4.0,-3.0,-2.0,2165.0,1927.0,12017.0,10753.0,11.0,0.0,-7.0,1.0
2022-05-03 17:32:36.159225-07:00,2117.9,643.2,1485.6,1755.0,1263.1,1479.2,1374.8,1614.3,3444.3,3444.3,1905.6,1541.3,1809.0,3454.0,1150.6,1590.8,3449.1,3434.6,769.5,1317.8,946.6,575.4,1905.6,1898.7,3447.9,3441.9,941.5,1221.3,1179.7,1577.7,1375.7,1307.9,6.0,9.0,5.0,5343.0,10753.0,8485.0,7231.0,-19.0,19.0,-11.0,7.0,8.0,-4.0,2165.0,1927.0,12019.0,10751.0,-17.0,0.0,-1.0,1.0
2022-05-03 17:32:36.398957-07:00,2117.9,643.2,1485.6,1755.0,1266.7,1471.8,1374.8,1596.4,3444.3,3444.3,1905.6,1541.3,1800.3,3443.1,1155.0,1589.9,3443.1,3440.7,766.2,1311.5,946.6,575.4,1905.6,1898.7,3445.5,3445.5,936.4,1216.0,1179.7,1577.7,1375.7,1307.9,3.0,0.0,14.0,5340.0,10748.0,8488.0,7235.0,35.0,26.0,5.0,5.0,-2.0,-3.0,2164.0,1928.0,12022.0,10747.0,33.0,1.0,0.0,1.0
2022-05-03 17:32:36.429174-07:00,2115.9,644.0,1482.9,1753.1,1266.7,1471.8,1374.8,1596.4,3441.9,3439.5,1896.7,1537.6,1800.3,3443.1,1155.0,1589.9,3443.1,3440.7,766.2,1311.5,947.5,569.0,1908.5,1905.6,3445.5,3445.5,936.4,1216.0,1179.7,1573.9,1371.2,1308.8,-2.0,6.0,9.0,5329.0,10744.0,8495.0,7242.0,3.0,25.0,2.0,3.0,0.0,2.0,2164.0,1928.0,12025.0,10744.0,4.0,1.0,1.0,1.0
2022-05-03 17:32:36.431689-07:00,2115.9,644.0,1482.9,1753.1,1264.0,1483.8,1376.6,1633.1,3441.9,3439.5,1896.7,1537.6,1796.5,3440.7,1152.4,1585.2,3429.8,3449.1,764.5,1315.1,947.5,569.0,1908.5,1905.6,3445.5,3447.9,939.0,1217.7,1179.7,1573.9,1371.2,1308.8,0.0,9.0,4.0,5321.0,10741.0,8502.0,7244.0,15.0,4.0,-15.0,3.0,5.0,-1.0,2163.0,1928.0,12028.0,10741.0,6.0,5.0,-3.0,1.0
2022-05-03 17:32:36.432448-07:00,2128.0,644.9,1479.2,1753.1,1264.0,1483.8,1376.6,1612.4,3451.6,3454.0,1897.7,1545.9,1796.5,3440.7,1152.4,1591.7,3439.5,3449.1,764.5,1315.1,947.5,573.8,1908.5,1901.6,3449.1,3447.9,939.0,1217.7,1179.7,1551.5,1374.8,1306.1,-4.0,-7.0,4.0,5325.0,10732.0,8506.0,7248.0,-30.0,26.0,-22.0,6.0,-3.0,1.0,2163.0,1927.0,12024.0,10745.0,-14.0,-4.0,-2.0,1.0
2022-05-03 17:32:36.458949-07:00,2114.9,644.9,1479.2,1753.1,1268.5,1475.5,1372.1,1612.4,3446.7,3454.0,1897.7,1545.9,1798.4,3445.5,1150.6,1591.7,3439.5,3438.2,767.0,1314.2,947.5,573.8,1908.5,1895.8,3449.1,3454.0,930.5,1221.3,1179.7,1551.5,1374.8,1306.1,3.0,1.0,6.0,5326.0,10734.0,8506.0,7246.0,16.0,-17.0,12.0,4.0,0.0,-6.0,2163.0,1927.0,12025.0,10744.0,1.0,1.0,2.0,1.0
2022-05-03 17:32:36.460567-07:00,2114.9,648.1,1485.6,1745.4,1268.5,1475.5,1372.1,1605.8,3446.7,3437.0,1890.9,1536.6,1798.4,3445.5,1150.6,1591.7,3447.9,3438.2,767.0,1314.2,949.2,573.0,1898.7,1895.8,3438.2,3454.0,930.5,1221.3,1182.3,1572.1,1375.7,1306.1,-1.0,3.0,6.0,5328.0,10733.0,8504.0,7248.0,-13.0,8.0,-1.0,7.0,-2.0,4.0,2163.0,1927.0,12023.0,10746.0,-1.0,-5.0,-3.0,1.0
2022-05-03 17:32:36.519021-07:00,2112.8,648.1,1485.6,1745.4,1262.2,1473.6,1369.4,1605.8,3445.5,3437.0,1890.9,1536.6,1794.5,3454.0,1151.5,1591.7,3447.9,3447.9,763.7,1316.0,949.2,573.0,1898.7,1895.8,3438.2,3443.1,933.9,1213.3,1182.3,1572.1,1375.7,1298.1,-7.0,10.0,26.0,5321.0,10733.0,8508.0,7247.0,33.0,39.0,3.0,-1.0,1.0,-9.0,2163.0,1928.0,12028.0,10741.0,4.0,3.0,-1.0,1.0
2022-05-03 17:32:36.608989-07:00,2112.8,643.2,1480.1,1754.1,1262.2,1473.6,1369.4,1607.7,3445.5,3440.7,1886.9,1532.9,1794.5,3454.0,1151.5,1587.1,3438.2,3447.9,763.7,1316.0,950.9,572.2,1895.8,1895.8,3438.2,3443.1,933.9,1213.3,1177.9,1573.9,1372.1,1298.1,0.0,5.0,-1.0,5315.0,10729.0,8512.0,7254.0,-3.0,4.0,3.0,6.0,2.0,-6.0,2162.0,1927.0,12028.0,10742.0,1.0,9.0,-3.0,1.0
2022-05-03 17:32:36.610196-07:00,2116.9,643.2,1480.1,1754.1,1265.8,1477.3,1377.5,1607.7,3446.7,3440.7,1886.9,1532.9,1791.6,3438.2,1147.1,1587.1,3438.2,3440.7,767.0,1315.1,950.9,572.2,1895.8,1910.5,3438.2,3437.0,934.7,1209.7,1177.9,1573.9,1372.1,1302.5,4.0,1.0,7.0,5316.0,10727.0,8514.0,7254.0,-7.0,-1.0,-13.0,1.0,2.0,-9.0,2162.0,1927.0,12028.0,10742.0,-17.0,-5.0,0.0,1.0
2022-05-03 17:32:36.669033-07:00,2116.9,644.0,1481.0,1748.3,1265.8,1477.3,1365.7,1611.5,3446.7,3445.5,1891.8,1545.0,1791.6,3438.2,1149.8,1591.7,3444.3,3439.5,767.0,1315.1,945.8,573.8,1896.7,1910.5,3445.5,3444.3,934.7,1209.7,1180.6,1574.9,1372.1,1302.5,0.0,-1.0,10.0,5323.0,10726.0,8510.0,7255.0,-3.0,-30.0,1.0,7.0,-3.0,0.0,2163.0,1927.0,12024.0,10746.0,1.0,-1.0,1.0,1.0
2022-05-03 17:32:36.699331-07:00,2112.8,636.7,1481.0,1748.3,1261.3,1477.3,1365.7,1611.5,3444.3,3443.1,1891.8,1545.0,1783.9,3441.9,1149.8,1591.7,3444.3,3439.5,766.2,1311.5,945.8,573.8,1893.8,1899.7,3445.5,3444.3,935.6,1208.0,1180.6,1574.9,1365.7,1299.8,2.0,3.0,15.0,5329.0,10732.0,8510.0,7241.0,7.0,-17.0,-21.0,7.0,2.0,-1.0,2162.0,1927.0,12025.0,10745.0,-11.0,-4.0,-4.0,1.0
2022-05-03 17:32:36.758762-07:00,2112.8,636.7,1483.8,1754.1,1261.3,1477.3,1362.1,1607.7,3444.3,3443.1,1893.8,1543.1,1783.9,3441.9,1154.2,1591.7,3443.1,3439.5,766.2,1311.5,951.7,576.2,1893.8,1899.7,3444.3,3449.1,935.6,1208.0,1181.5,1576.8,1365.7,1299.8,0.0,0.0,8.0,5333.0,10730.0,8504.0,7249.0,-8.0,3.0,36.0,3.0,-2.0,0.0,2163.0,1926.0,12020.0,10750.0,-5.0,-1.0,5.0,1.0
2022-05-03 17:32:36.819309-07:00,2119.9,641.6,1483.8,1754.1,1267.6,1480.1,1362.1,1607.7,3433.4,3438.2,1893.8,1543.1,1787.8,3446.7,1154.2,1591.7,3443.1,3439.5,766.2,1308.8,951.7,576.2,1894.8,1908.5,3444.3,3449.1,922.8,1217.7,1181.5,1576.8,1375.7,1301.6,-2.0,11.0,3.0,5326.0,10741.0,8491.0,7253.0,1.0,-10.0,31.0,2.0,0.0,-3.0,2163.0,1926.0,12020.0,10750.0,1.0,1.0,1.0,1.0
2022-05-03 17:32:36.908735-07:00,2119.9,641.6,1481.9,1757.0,1267.6,1480.1,1359.4,1599.3,3433.4,3438.2,1889.9,1532.9,1787.8,3446.7,1152.4,1581.4,3437.0,3444.3,766.2,1308.8,946.6,572.2,1894.8,1908.5,3438.2,3449.1,922.8,1217.7,1181.5,1572.1,1375.7,1301.6,2.0,-2.0,10.0,5329.0,10740.0,8488.0,7256.0,-19.0,0.0,-9.0,5.0,0.0,-8.0,2164.0,1926.0,12018.0,10752.0,-4.0,0.0,-4.0,1.0
2022-05-03 17:32:36.909960-07:00,2118.9,650.5,1485.6,1757.0,1265.8,1468.1,1359.4,1599.3,3439.5,3443.1,1887.9,1532.9,1789.7,3440.7,1152.4,1581.4,3437.0,3444.3,767.8,1318.7,946.6,574.6,1887.9,1894.8,3438.2,3449.1,933.0,1213.3,1181.5,1573.9,1374.8,1293.6,0.0,6.0,8.0,5329.0,10737.0,8489.0,7259.0,3.0,-1.0,-4.0,4.0,0.0,-2.0,2164.0,1925.0,12018.0,10753.0,0.0,5.0,-2.0,1.0
2022-05-03 17:32:37.000485-07:00,2118.9,650.5,1485.6,1750.2,1265.8,1473.6,1362.1,1608.7,3439.5,3443.1,1887.9,1543.1,1789.7,3449.1,1148.9,1594.6,3441.9,3440.7,765.3,1318.7,943.2,574.6,1887.9,1894.8,3438.2,3445.5,939.8,1213.3,1183.2,1573.9,1374.8,1293.6,-1.0,4.0,11.0,5334.0,10731.0,8496.0,7256.0,2.0,-4.0,-36.0,3.0,3.0,-3.0,2163.0,1925.0,12018.0,10753.0,2.0,7.0,-6.0,1.0
2022-05-03 17:32:37.001337-07:00,2106.8,649.7,1472.7,1750.2,1264.0,1473.6,1362.1,1608.7,3440.7,3438.2,1889.9,1543.1,1786.8,3449.1,1148.9,1594.6,3441.9,3440.7,765.3,1316.0,943.2,574.6,1894.8,1901.6,3438.2,3445.5,939.8,1213.3,1183.2,1576.8,1373.0,1308.8,0.0,0.0,9.0,5338.0,10728.0,8500.0,7253.0,18.0,-15.0,-1.0,5.0,3.0,-4.0,2163.0,1925.0,12018.0,10753.0,14.0,7.0,0.0,1.0
2022-05-03 17:32:37.088896-07:00,2106.8,649.7,1472.7,1750.2,1264.0,1481.9,1365.7,1604.9,3440.7,3438.2,1889.9,1539.4,1786.8,3439.5,1147.1,1591.7,3440.7,3433.4,765.3,1316.0,945.8,574.6,1894.8,1901.6,3449.1,3451.6,925.4,1213.3,1186.7,1576.8,1373.0,1308.8,3.0,3.0,11.0,5335.0,10737.0,8499.0,7243.0,10.0,-17.0,14.0,6.0,3.0,-10.0,2162.0,1926.0,12022.0,10748.0,-3.0,1.0,-2.0,1.0
2022-05-03 17:32:37.118567-07:00,2112.8,637.6,1481.9,1750.2,1258.7,1481.9,1365.7,1604.9,3450.4,3439.5,1891.8,1539.4,1781.0,3439.5,1147.1,1591.7,3440.7,3433.4,765.3,1309.7,945.8,576.2,1887.9,1901.6,3449.1,3451.6,925.4,1214.2,1186.7,1571.1,1371.2,1296.3,3.0,6.0,10.0,5340.0,10734.0,8494.0,7249.0,-21.0,14.0,6.0,1.0,6.0,0.0,2163.0,1925.0,12018.0,10752.0,-6.0,-4.0,-9.0,1.0
2022-05-03 17:32:37.179018-07:00,2112.8,637.6,1481.9,1748.3,1258.7,1475.5,1362.1,1599.3,3450.4,3439.5,1891.8,1539.4,1781.0,3438.2,1142.7,1586.1,3438.2,3438.2,768.7,1309.7,945.8,576.2,1887.9,1901.6,3445.5,3439.5,922.0,1214.2,1182.3,1571.1,1371.2,1296.3,-16.0,25.0,-11.0,5354.0,10730.0,8476.0,7267.0,-53.0,-44.0,32.0,1.0,24.0,14.0,2168.0,1919.0,12010.0,10761.0,-89.0,3.0,-19.0,1.0
2022-05-03 17:32:37.239461-07:00,2103.7,653.0,1477.3,1746.4,1263.1,1475.5,1362.1,1599.3,3439.5,3443.1,1885.0,1536.6,1782.0,3438.2,1142.7,1586.1,3438.2,3438.2,768.7,1313.3,942.4,573.8,1915.4,1895.8,3445.5,3439.5,922.0,1216.8,1175.3,1572.1,1369.4,1292.7,-16.0,0.0,-23.0,5438.0,10726.0,8428.0,7265.0,-360.0,-195.0,-29.0,1.0,-4.0,-15.0,2181.0,1911.0,11967.0,10808.0,-261.0,-45.0,-2.0,1.0
2022-05-03 17:32:37.269036-07:00,2103.7,653.0,1477.3,1746.4,1264.0,1497.7,1402.1,1603.0,3439.5,3443.1,1885.0,1536.6,1780.1,3444.3,1147.1,1588.9,3441.9,3444.3,764.5,1313.3,942.4,573.8,1915.4,1895.8,3449.1,3438.2,943.2,1287.3,1175.3,1572.1,1369.4,1292.7,80.0,53.0,96.0,5552.0,10724.0,8369.0,7251.0,-196.0,-59.0,-129.0,1.0,69.0,-47.0,2218.0,1918.0,11920.0,10851.0,-331.0,-148.0,-50.0,1.0
2022-05-03 17:32:37.328923-07:00,2118.9,648.1,1478.3,1749.3,1264.0,1497.7,1402.1,1603.0,3439.5,3449.1,1919.3,1550.6,1780.1,3444.3,1147.1,1588.9,3441.9,3444.3,764.5,1313.3,951.7,574.6,1938.0,1895.8,3449.1,3438.2,943.2,1287.3,1182.3,1566.5,1367.6,1293.6,-5.0,-16.0,40.0,5622.0,10585.0,8398.0,7367.0,-213.0,216.0,-199.0,27.0,-59.0,38.0,2297.0,1915.0,11775.0,10993.0,-443.0,-65.0,-58.0,1.0
2022-05-03 17:32:37.359138-07:00,2118.9,648.1,1478.3,1749.3,1267.6,1502.3,1732.0,2007.4,3439.5,3449.1,1919.3,1550.6,1838.2,3443.1,1173.5,1593.6,3444.3,3435.8,767.0,1309.7,951.7,574.6,1938.0,1895.8,3446.7,3445.5,1209.7,1391.2,1182.3,1566.5,1367.6,1293.6,-21.0,-16.0,-7.0,5602.0,10553.0,8440.0,7380.0,154.0,65.0,40.0,0.0,-8.0,33.0,2341.0,1887.0,11689.0,11079.0,-181.0,2.0,-57.0,1.0
2022-05-03 17:32:37.418416-07:00,2143.3,642.4,1481.0,1750.2,1267.6,1502.3,1732.0,2007.4,3441.9,3444.3,2123.0,1581.4,1838.2,3443.1,1173.5,1593.6,3444.3,3435.8,767.0,1309.7,959.4,575.4,1937.1,1903.6,3446.7,3445.5,1209.7,1391.2,1183.2,1578.6,1362.1,1295.4,20.0,-8.0,-5.0,5570.0,10604.0,8427.0,7345.0,-3.0,-68.0,147.0,-8.0,14.0,-36.0,2371.0,1858.0,11649.0,11120.0,-190.0,-46.0,-47.0,1.0
2022-05-03 17:32:37.449457-07:00,2143.3,642.4,1481.0,1750.2,1264.9,1565.5,1881.1,2245.6,3441.9,3444.3,2123.0,1581.4,1937.1,3444.3,1331.4,1622.8,3435.8,3440.7,760.4,1325.0,959.4,575.4,1937.1,1903.6,3443.1,3449.1,1326.8,1482.9,1183.2,1578.6,1362.1,1295.4,-4.0,-30.0,7.0,5528.0,10633.0,8417.0,7347.0,222.0,28.0,47.0,6.0,-31.0,7.0,2403.0,1853.0,11610.0,11155.0,76.0,-17.0,-40.0,1.0
2022-05-03 17:32:37.538375-07:00,2136.1,630.3,1469.0,1748.3,1264.9,1565.5,1881.1,2327.4,3445.5,3444.3,2438.8,1694.8,1937.1,3444.3,1331.4,1675.7,3441.9,3440.7,760.4,1325.0,969.6,569.0,1965.7,1967.7,3446.7,3449.1,1326.8,1482.9,1177.0,1569.3,1359.4,1297.2,19.0,5.0,22.0,5421.0,10689.0,8484.0,7268.0,428.0,-10.0,-22.0,11.0,-15.0,-4.0,2419.0,1847.0,11647.0,11114.0,194.0,0.0,-91.0,1.0
2022-05-03 17:32:37.568849-07:00,2123.0,630.3,1469.0,1748.3,1261.3,1616.2,1943.0,2327.4,3449.1,3444.3,2438.8,1694.8,2016.4,3444.3,1489.3,1675.7,3441.9,3440.7,767.0,1352.1,969.6,569.0,1965.7,2026.4,3446.7,3447.9,1322.3,1485.6,1177.0,1569.3,1359.4,1382.1,2.0,25.0,19.0,5343.0,10715.0,8546.0,7214.0,108.0,-37.0,10.0,12.0,-4.0,17.0,2430.0,1829.0,11701.0,11057.0,33.0,7.0,-65.0,1.0
2022-05-03 17:32:37.599154-07:00,2123.0,629.5,1469.0,1749.3,1261.3,1616.2,1943.0,2254.8,3449.1,3444.3,2468.5,1717.7,2016.4,3444.3,1489.3,1708.1,3446.7,3440.7,767.0,1352.1,973.1,573.0,1953.9,2026.4,3446.7,3447.9,1322.3,1485.6,1174.4,1567.4,1353.1,1382.1,3.0,-1.0,9.0,5337.0,10746.0,8542.0,7177.0,30.0,-59.0,31.0,-3.0,10.0,-19.0,2445.0,1813.0,11714.0,11043.0,-33.0,-6.0,-33.0,1.0
2022-05-03 17:32:37.719565-07:00,2117.9,629.5,1469.0,1749.3,1260.4,1669.1,1892.8,2254.8,3449.1,3444.3,2468.5,1717.7,2050.4,3444.3,1525.5,1708.1,3446.7,3444.3,762.0,1346.7,973.1,573.0,1953.9,2058.4,3446.7,3445.5,1307.0,1475.5,1174.4,1567.4,1353.1,1551.5,-2.0,8.0,13.0,5339.0,10735.0,8553.0,7179.0,6.0,83.0,-86.0,-2.0,12.0,6.0,2458.0,1808.0,11704.0,11052.0,-48.0,-16.0,-20.0,1.0
2022-05-03 17:32:37.720496-07:00,2117.9,627.8,1462.6,1749.3,1260.4,1669.1,1892.8,2165.6,3449.1,3447.9,2426.1,1714.8,2050.4,3444.3,1525.5,1707.2,3439.5,3444.3,762.0,1346.7,970.5,573.8,1925.2,2058.4,3452.8,3445.5,1307.0,1475.5,1176.2,1567.4,1356.7,1551.5,-2.0,3.0,7.0,5336.0,10726.0,8579.0,7164.0,70.0,-43.0,-36.0,5.0,6.0,8.0,2468.0,1802.0,11698.0,11057.0,40.0,-1.0,-37.0,1.0
2022-05-03 17:32:37.752138-07:00,2102.7,613.3,1462.6,1749.3,1267.6,1681.4,1833.3,2165.6,3449.1,3449.1,2426.1,1714.8,2011.4,3445.5,1514.3,1707.2,3439.5,3446.7,761.2,1339.5,970.5,573.8,1892.8,2060.5,3452.8,3439.5,1290.9,1453.4,1176.2,1567.4,1359.4,1570.2,-2.0,-14.0,22.0,5347.0,10730.0,8572.0,7157.0,-16.0,-17.0,-4.0,6.0,-18.0,1.0,2475.0,1799.0,11697.0,11056.0,-6.0,-5.0,-9.0,1.0
2022-05-03 17:32:37.838744-07:00,2102.7,613.3,1470.9,1750.2,1267.6,1681.4,1822.6,2107.8,3449.1,3449.1,2402.9,1701.4,2011.4,3445.5,1510.6,1701.4,3445.5,3443.1,761.2,1339.5,973.9,571.4,1892.8,2060.5,3445.5,3446.7,1290.9,1453.4,1180.6,1569.3,1359.4,1570.2,5.0,-13.0,20.0,5371.0,10735.0,8545.0,7164.0,-71.0,-54.0,35.0,8.0,-23.0,-22.0,2480.0,1802.0,11684.0,11069.0,-43.0,-28.0,2.0,1.0
2022-05-03 17:32:37.898676-07:00,2100.7,610.0,1470.9,1750.2,1263.1,1696.7,1822.6,2107.8,3443.1,3444.3,2402.9,1701.4,1990.5,3440.7,1510.6,1701.4,3445.5,3443.1,767.0,1343.1,973.9,571.4,1870.3,2065.5,3445.5,3446.7,1276.5,1444.2,1180.6,1569.3,1356.7,1592.7,-13.0,16.0,-10.0,5393.0,10729.0,8531.0,7174.0,-113.0,-50.0,16.0,1.0,14.0,24.0,2487.0,1805.0,11673.0,11078.0,-67.0,-21.0,-4.0,1.0
2022-05-03 17:32:37.899909-07:00,2100.7,610.0,1466.3,1749.3,1263.1,1696.7,1826.5,2108.8,3443.1,3444.3,2392.4,1688.1,1990.5,3440.7,1501.4,1701.4,3437.0,3443.1,767.0,1343.1,969.6,569.0,1870.3,2065.5,3450.4,3449.1,1276.5,1444.2,1181.5,1572.1,1356.7,1592.7,8.0,-10.0,10.0,5458.0,10749.0,8470.0,7167.0,-149.0,-165.0,38.0,-2.0,7.0,-19.0,2503.0,1808.0,11659.0,11089.0,-49.0,-43.0,-11.0,1.0
2022-05-03 17:32:37.959357-07:00,2106.8,614.9,1466.3,1749.3,1263.1,1691.0,1826.5,2108.8,3439.5,3449.1,2392.4,1688.1,1965.7,3434.6,1501.4,1701.4,3437.0,3443.1,760.4,1339.5,969.6,569.0,1856.7,2059.4,3450.4,3449.1,1273.0,1432.3,1181.5,1572.1,1349.4,1667.2,4.0,12.0,13.0,5499.0,10754.0,8438.0,7167.0,-73.0,-43.0,10.0,3.0,12.0,15.0,2516.0,1816.0,11649.0,11095.0,-26.0,-30.0,5.0,1.0
2022-05-03 17:32:37.988670-07:00,2106.8,614.9,1470.9,1740.6,1263.1,1691.0,1852.8,2205.5,3439.5,3449.1,2375.5,1687.2,1965.7,3434.6,1493.0,1678.6,3439.5,3443.1,760.4,1339.5,967.1,573.0,1856.7,2059.4,3449.1,3449.1,1273.0,1432.3,1183.2,1564.6,1349.4,1667.2,5.0,10.0,25.0,5524.0,10759.0,8413.0,7169.0,-22.0,-40.0,-15.0,5.0,-13.0,0.0,2526.0,1822.0,11641.0,11100.0,3.0,-23.0,-10.0,1.0
2022-05-03 17:32:38.078775-07:00,2110.8,613.3,1464.4,1740.6,1259.6,1696.7,1852.8,2205.5,3443.1,3438.2,2352.5,1687.2,1955.8,3439.5,1493.0,1678.6,3439.5,3443.1,762.9,1341.3,967.1,562.6,1849.8,2061.5,3449.1,3449.1,1259.6,1424.1,1183.2,1561.8,1356.7,1650.2,0.0,-3.0,22.0,5536.0,10753.0,8414.0,7167.0,-21.0,0.0,-10.0,10.0,-19.0,4.0,2528.0,1822.0,11640.0,11101.0,-31.0,-3.0,6.0,1.0
2022-05-03 17:32:38.108544-07:00,2110.8,613.3,1464.4,1744.5,1259.6,1687.2,1832.3,2176.9,3443.1,3438.2,2352.5,1686.2,1955.8,3441.9,1489.3,1683.3,3439.5,3445.5,767.0,1341.3,970.5,562.6,1849.8,2061.5,3443.1,3449.1,1256.9,1424.1,1182.3,1561.8,1356.7,1650.2,6.0,-7.0,9.0,5545.0,10746.0,8412.0,7174.0,-8.0,24.0,-24.0,4.0,-13.0,-14.0,2528.0,1822.0,11637.0,11104.0,-4.0,6.0,3.0,1.0
2022-05-03 17:32:38.138649-07:00,2094.7,606.8,1464.4,1744.5,1267.6,1687.2,1832.3,2176.9,3446.7,3438.2,2350.4,1686.2,1941.0,3441.9,1489.3,1683.3,3439.5,3445.5,767.0,1338.6,970.5,568.2,1842.0,2055.4,3443.1,3449.1,1256.9,1426.8,1182.3,1558.1,1372.1,1639.8,2.0,-4.0,-1.0,5546.0,10734.0,8417.0,7185.0,-36.0,2.0,-11.0,8.0,-13.0,-11.0,2526.0,1821.0,11635.0,11107.0,-38.0,-2.0,-1.0,1.0
2022-05-03 17:32:38.199198-07:00,2094.7,606.8,1464.4,1741.6,1267.6,1685.3,1832.3,2182.0,3446.7,3438.2,2350.4,1676.7,1941.0,3451.6,1481.0,1688.1,3441.9,3438.2,761.2,1338.6,975.6,568.2,1842.0,2055.4,3444.3,3441.9,1248.0,1426.8,1183.2,1558.1,1372.1,1639.8,5.0,-8.0,14.0,5554.0,10726.0,8416.0,7191.0,-27.0,7.0,-7.0,7.0,-11.0,-9.0,2526.0,1822.0,11634.0,11108.0,-22.0,-7.0,0.0,1.0
2022-05-03 17:32:38.258542-07:00,2095.7,605.2,1465.4,1741.6,1264.9,1685.3,1832.3,2182.0,3444.3,3435.8,2332.6,1676.7,1923.3,3451.6,1481.0,1688.1,3441.9,3438.2,761.2,1335.0,975.6,568.2,1831.3,2055.4,3444.3,3441.9,1248.0,1423.1,1183.2,1560.9,1357.6,1623.7,1.0,8.0,3.0,5557.0,10723.0,8414.0,7194.0,-27.0,-11.0,13.0,1.0,9.0,0.0,2526.0,1821.0,11631.0,11111.0,-29.0,-6.0,4.0,1.0
2022-05-03 17:32:38.289188-07:00,2095.7,605.2,1465.4,1745.4,1260.4,1679.5,1821.6,2172.8,3444.3,3435.8,2332.6,1669.1,1919.3,3446.7,1474.6,1686.2,3449.1,3441.9,766.2,1335.0,970.5,568.2,1831.3,2055.4,3438.2,3445.5,1246.2,1414.9,1179.7,1560.9,1357.6,1623.7,0.0,-3.0,10.0,5563.0,10722.0,8411.0,7197.0,14.0,8.0,-25.0,3.0,-7.0,-1.0,2526.0,1821.0,11629.0,11114.0,7.0,2.0,-6.0,1.0
2022-05-03 17:32:38.349215-07:00,2100.7,608.4,1459.8,1736.8,1260.4,1679.5,1821.6,2172.8,3439.5,3447.9,2329.5,1664.4,1919.3,3446.7,1474.6,1686.2,3449.1,3441.9,766.2,1335.0,973.9,574.6,1817.8,2054.4,3438.2,3445.5,1246.2,1414.9,1177.9,1557.1,1350.3,1607.7,2.0,-6.0,5.0,5570.0,10721.0,8409.0,7195.0,-31.0,-56.0,21.0,7.0,-8.0,-9.0,2527.0,1820.0,11624.0,11119.0,-24.0,-9.0,0.0,1.0
2022-05-03 17:32:38.408470-07:00,2100.7,608.4,1459.8,1736.8,1267.6,1727.2,1826.5,2175.8,3439.5,3447.9,2329.5,1664.4,1920.3,3438.2,1472.7,1684.3,3438.2,3441.9,761.2,1336.8,973.9,574.6,1817.8,2054.4,3446.7,3454.0,1253.3,1412.2,1177.9,1557.1,1350.3,1607.7,0.0,0.0,4.0,5590.0,10723.0,8392.0,7195.0,-35.0,-18.0,15.0,2.0,0.0,-1.0,2528.0,1820.0,11618.0,11124.0,-30.0,-7.0,2.0,1.0
2022-05-03 17:32:38.439141-07:00,2093.7,607.6,1469.0,1740.6,1267.6,1727.2,1826.5,2175.8,3441.9,3445.5,2323.3,1663.4,1920.3,3438.2,1472.7,1684.3,3438.2,3441.9,761.2,1336.8,972.2,571.4,1808.1,2046.4,3446.7,3454.0,1253.3,1412.2,1182.3,1567.4,1345.8,1644.5,-1.0,14.0,5.0,5594.0,10727.0,8387.0,7193.0,-17.0,-19.0,-5.0,4.0,3.0,1.0,2527.0,1821.0,11622.0,11120.0,-4.0,-4.0,-6.0,1.0
2022-05-03 17:32:38.499503-07:00,2093.7,607.6,1469.0,1740.6,1265.8,1751.2,1826.5,2191.2,3441.9,3445.5,2323.3,1663.4,1920.3,3449.1,1480.1,1681.4,3444.3,3433.4,765.3,1335.9,972.2,571.4,1808.1,2046.4,3443.1,3446.7,1242.6,1396.7,1182.3,1567.4,1345.8,1644.5,-5.0,1.0,16.0,5598.0,10725.0,8388.0,7191.0,17.0,32.0,-29.0,1.0,-1.0,11.0,2528.0,1821.0,11624.0,11118.0,24.0,6.0,-5.0,1.0
2022-05-03 17:32:38.559187-07:00,2095.7,608.4,1462.6,1750.2,1265.8,1751.2,1826.5,2191.2,3441.9,3447.9,2323.3,1662.5,1920.3,3449.1,1480.1,1681.4,3444.3,3433.4,765.3,1335.9,963.7,568.2,1806.1,2043.4,3443.1,3446.7,1242.6,1396.7,1174.4,1557.1,1350.3,1599.3,3.0,-3.0,12.0,5594.0,10713.0,8399.0,7200.0,8.0,46.0,-10.0,5.0,0.0,0.0,2526.0,1821.0,11622.0,11121.0,-8.0,4.0,12.0,1.0
2022-05-03 17:32:38.589210-07:00,2088.6,608.4,1462.6,1750.2,1258.7,1736.8,1817.8,2185.0,3445.5,3447.9,2323.3,1662.5,1904.6,3438.2,1472.7,1673.8,3449.1,3439.5,761.2,1335.9,963.7,568.2,1806.1,2046.4,3439.5,3446.7,1247.1,1391.2,1174.4,1557.1,1350.3,1598.3,2.0,12.0,-4.0,5584.0,10705.0,8406.0,7210.0,-15.0,6.0,8.0,3.0,15.0,2.0,2521.0,1817.0,11621.0,11123.0,-21.0,12.0,3.0,1.0
2022-05-03 17:32:38.654878-07:00,2088.6,606.0,1459.8,1750.2,1258.7,1736.8,1817.8,2161.6,3445.5,3449.1,2321.2,1665.3,1904.6,3438.2,1472.7,1678.6,3440.7,3439.5,761.2,1335.9,969.6,576.2,1805.2,2046.4,3447.9,3446.7,1247.1,1391.2,1177.9,1551.5,1347.6,1598.3,-2.0,-9.0,12.0,5587.0,10703.0,8407.0,7211.0,7.0,12.0,-6.0,2.0,-5.0,-6.0,2521.0,1817.0,11620.0,11125.0,6.0,4.0,-3.0,1.0
2022-05-03 17:32:38.708435-07:00,2082.6,606.0,1459.8,1750.2,1258.7,1715.8,1812.9,2161.6,3438.2,3449.1,2321.2,1665.3,1904.6,3445.5,1474.6,1678.6,3440.7,3438.2,762.9,1333.2,969.6,576.2,1805.2,2051.4,3447.9,3445.5,1241.7,1392.1,1177.9,1551.5,1347.6,1590.8,2.0,7.0,7.0,5587.0,10703.0,8404.0,7215.0,-3.0,-5.0,28.0,2.0,15.0,1.0,2521.0,1817.0,11618.0,11126.0,4.0,-4.0,8.0,1.0
2022-05-03 17:32:38.768620-07:00,2082.6,611.7,1455.2,1740.6,1258.7,1715.8,1812.9,2155.5,3438.2,3449.1,2309.7,1653.0,1904.6,3445.5,1474.6,1669.1,3439.5,3438.2,762.9,1333.2,960.2,569.8,1797.4,2051.4,3438.2,3445.5,1241.7,1392.1,1174.4,1556.2,1349.4,1590.8,-1.0,2.0,6.0,5583.0,10706.0,8399.0,7218.0,12.0,4.0,-7.0,1.0,10.0,8.0,2520.0,1818.0,11620.0,11124.0,12.0,9.0,3.0,1.0
2022-05-03 17:32:38.798802-07:00,2078.5,611.7,1455.2,1740.6,1264.9,1708.1,1799.4,2155.5,3454.0,3449.1,2309.7,1653.0,1896.7,3444.3,1462.6,1669.1,3439.5,3437.0,765.3,1338.6,960.2,569.8,1797.4,2049.4,3438.2,3447.9,1234.6,1391.2,1174.4,1556.2,1349.4,1579.6,-1.0,5.0,5.0,5578.0,10709.0,8399.0,7216.0,26.0,-2.0,-3.0,-1.0,5.0,1.0,2519.0,1819.0,11624.0,11121.0,13.0,3.0,1.0,1.0
2022-05-03 17:32:38.858910-07:00,2078.5,606.8,1463.5,1742.6,1264.9,1708.1,1798.4,2133.1,3454.0,3449.1,2307.7,1652.0,1896.7,3444.3,1470.9,1671.9,3441.9,3439.5,765.3,1338.6,965.4,569.0,1791.6,2049.4,3441.9,3444.3,1234.6,1391.2,1180.6,1555.3,1348.5,1579.6,1.0,-8.0,10.0,5581.0,10709.0,8396.0,7220.0,16.0,3.0,10.0,7.0,-2.0,-1.0,2519.0,1818.0,11623.0,11121.0,31.0,0.0,4.0,1.0
2022-05-03 17:32:38.918226-07:00,2078.5,601.2,1463.5,1742.6,1264.0,1712.9,1798.4,2133.1,3438.2,3444.3,2307.7,1652.0,1898.7,3444.3,1470.9,1671.9,3441.9,3439.5,762.0,1331.4,965.4,569.0,1794.5,2036.4,3441.9,3444.3,1232.8,1392.1,1180.6,1555.3,1346.7,1581.4,7.0,0.0,7.0,5578.0,10711.0,8390.0,7225.0,-26.0,-17.0,35.0,6.0,-4.0,-3.0,2515.0,1823.0,11621.0,11124.0,-5.0,-9.0,12.0,1.0
2022-05-03 17:32:38.949163-07:00,2078.5,601.2,1458.9,1741.6,1264.0,1712.9,1793.6,2151.4,3438.2,3444.3,2299.3,1649.2,1898.7,3444.3,1461.7,1674.8,3449.1,3444.3,762.0,1331.4,967.1,570.6,1794.5,2036.4,3449.1,3440.7,1232.8,1392.1,1182.3,1558.1,1346.7,1581.4,0.0,4.0,4.0,5575.0,10722.0,8379.0,7224.0,-1.0,-18.0,29.0,1.0,0.0,-1.0,2514.0,1825.0,11624.0,11121.0,9.0,-4.0,5.0,1.0
2022-05-03 17:32:39.008290-07:00,2082.6,601.2,1458.9,1741.6,1256.0,1699.5,1793.6,2151.4,3445.5,3443.1,2299.3,1649.2,1893.8,3444.3,1461.7,1674.8,3449.1,3444.3,763.7,1332.3,967.1,570.6,1795.5,2045.4,3449.1,3440.7,1229.3,1386.6,1182.3,1558.1,1346.7,1585.2,-1.0,5.0,0.0,5582.0,10725.0,8364.0,7231.0,-47.0,-16.0,26.0,7.0,1.0,-2.0,2517.0,1826.0,11619.0,11125.0,-12.0,-15.0,4.0,1.0
2022-05-03 17:32:39.038910-07:00,2082.6,601.2,1469.0,1742.6,1256.0,1699.5,1798.4,2168.7,3445.5,3443.1,2292.1,1657.7,1893.8,3444.3,1462.6,1674.8,3446.7,3439.5,763.7,1332.3,964.5,565.8,1795.5,2045.4,3441.9,3440.7,1229.3,1386.6,1182.3,1554.3,1346.7,1585.2,-2.0,0.0,14.0,5582.0,10727.0,8359.0,7233.0,16.0,11.0,-5.0,4.0,-3.0,3.0,2519.0,1830.0,11622.0,11121.0,23.0,2.0,0.0,1.0
2022-05-03 17:32:39.098718-07:00,2087.6,597.9,1469.0,1742.6,1264.9,1691.9,1798.4,2168.7,3451.6,3444.3,2292.1,1657.7,1904.6,3438.2,1462.6,1674.8,3446.7,3439.5,757.9,1339.5,964.5,565.8,1790.7,2035.4,3441.9,3440.7,1224.8,1385.7,1182.3,1554.3,1336.8,1573.9,1.0,4.0,7.0,5581.0,10723.0,8362.0,7237.0,-12.0,14.0,4.0,5.0,9.0,1.0,2519.0,1830.0,11622.0,11121.0,7.0,9.0,1.0,1.0
2022-05-03 17:32:39.158742-07:00,2087.6,597.9,1470.9,1760.8,1264.9,1691.0,1799.4,2154.4,3451.6,3444.3,2303.5,1665.3,1904.6,3445.5,1460.8,1668.2,3435.8,3439.5,761.2,1339.5,967.9,564.2,1790.7,2035.4,3444.3,3447.9,1217.7,1385.7,1182.3,1562.7,1336.8,1573.9,5.0,6.0,16.0,5577.0,10718.0,8368.0,7242.0,24.0,30.0,-26.0,2.0,1.0,0.0,2519.0,1830.0,11624.0,11118.0,26.0,6.0,-9.0,1.0
2022-05-03 17:32:39.188532-07:00,2075.5,596.3,1466.3,1760.8,1258.7,1691.0,1799.4,2154.4,3443.1,3449.1,2306.6,1665.3,1895.8,3445.5,1460.8,1668.2,3435.8,3439.5,761.2,1328.7,967.9,574.6,1790.7,2037.4,3444.3,3447.9,1217.7,1386.6,1182.3,1558.1,1346.7,1577.7,-1.0,-12.0,11.0,5572.0,10705.0,8383.0,7246.0,9.0,31.0,-12.0,2.0,-15.0,-1.0,2517.0,1829.0,11626.0,11117.0,18.0,8.0,5.0,1.0
2022-05-03 17:32:39.248950-07:00,2075.5,596.3,1466.3,1746.4,1258.7,1687.2,1793.6,2153.4,3443.1,3449.1,2306.6,1652.0,1895.8,3441.9,1459.8,1678.6,3438.2,3441.9,765.3,1328.7,966.2,574.6,1790.7,2037.4,3454.0,3445.5,1217.7,1386.6,1178.8,1558.1,1346.7,1577.7,0.0,2.0,4.0,5559.0,10699.0,8393.0,7253.0,12.0,36.0,-11.0,1.0,-3.0,0.0,2515.0,1831.0,11629.0,11114.0,11.0,1.0,6.0,1.0
2022-05-03 17:32:39.308218-07:00,2078.5,600.4,1462.6,1746.4,1264.9,1687.2,1793.6,2153.4,3443.1,3444.3,2291.0,1652.0,1886.9,3441.9,1459.8,1678.6,3438.2,3441.9,765.3,1332.3,966.2,569.8,1791.6,2035.4,3454.0,3445.5,1217.7,1385.7,1178.8,1556.2,1352.1,1571.1,3.0,0.0,3.0,5556.0,10696.0,8397.0,7256.0,-13.0,-14.0,21.0,9.0,0.0,-1.0,2515.0,1831.0,11627.0,11116.0,-13.0,-2.0,8.0,1.0
2022-05-03 17:32:39.339040-07:00,2078.5,600.4,1462.6,1741.6,1264.9,1687.2,1798.4,2150.4,3443.1,3444.3,2291.0,1644.5,1886.9,3449.1,1458.0,1664.4,3443.1,3437.0,764.5,1332.3,958.5,569.8,1791.6,2035.4,3445.5,3447.9,1213.3,1385.7,1175.3,1556.2,1352.1,1571.1,4.0,1.0,5.0,5563.0,10708.0,8375.0,7258.0,-36.0,-40.0,46.0,6.0,-3.0,-11.0,2517.0,1833.0,11624.0,11119.0,-17.0,-16.0,7.0,1.0
2022-05-03 17:32:39.399091-07:00,2086.6,605.2,1458.9,1733.0,1260.4,1687.2,1798.4,2150.4,3443.1,3439.5,2300.4,1646.4,1886.9,3449.1,1458.0,1664.4,3443.1,3437.0,764.5,1328.7,968.8,569.8,1789.7,2055.4,3445.5,3447.9,1213.3,1383.9,1176.2,1556.2,1336.8,1573.0,-2.0,10.0,9.0,5566.0,10712.0,8368.0,7259.0,-1.0,0.0,-3.0,4.0,16.0,11.0,2519.0,1834.0,11623.0,11119.0,-5.0,-8.0,1.0,1.0
2022-05-03 17:32:39.458518-07:00,2086.6,605.2,1458.9,1733.0,1267.6,1681.4,1782.9,2135.1,3443.1,3439.5,2300.4,1646.4,1886.0,3443.1,1452.5,1664.4,3445.5,3444.3,771.1,1332.3,968.8,569.8,1789.7,2055.4,3449.1,3441.9,1216.8,1387.5,1176.2,1556.2,1336.8,1573.0,3.0,-7.0,14.0,5572.0,10715.0,8360.0,7259.0,-3.0,-14.0,8.0,5.0,-11.0,-3.0,2520.0,1833.0,11619.0,11123.0,7.0,-4.0,3.0,1.0
2022-05-03 17:32:39.489019-07:00,2077.5,597.1,1464.4,1739.7,1267.6,1681.4,1782.9,2135.1,3438.2,3445.5,2276.5,1645.4,1886.0,3443.1,1452.5,1664.4,3445.5,3444.3,771.1,1332.3,968.8,566.6,1783.9,2035.4,3449.1,3441.9,1216.8,1387.5,1183.2,1548.7,1334.1,1559.0,0.0,13.0,4.0,5568.0,10717.0,8359.0,7259.0,-12.0,2.0,13.0,5.0,-4.0,-2.0,2519.0,1834.0,11618.0,11124.0,-17.0,-3.0,10.0,1.0
2022-05-03 17:32:39.548516-07:00,2077.5,597.1,1464.4,1739.7,1260.4,1683.3,1785.8,2123.0,3438.2,3445.5,2276.5,1645.4,1888.9,3444.3,1449.7,1664.4,3444.3,3446.7,761.2,1327.8,968.8,566.6,1783.9,2035.4,3433.4,3438.2,1214.2,1382.1,1183.2,1548.7,1334.1,1559.0,-5.0,-6.0,9.0,5568.0,10717.0,8362.0,7256.0,5.0,7.0,0.0,5.0,0.0,-2.0,2518.0,1835.0,11620.0,11122.0,-1.0,3.0,6.0,1.0
2022-05-03 17:32:39.608237-07:00,2075.5,593.9,1459.8,1740.6,1260.4,1683.3,1785.8,2123.0,3446.7,3438.2,2289.0,1639.8,1888.9,3444.3,1449.7,1664.4,3444.3,3446.7,761.2,1327.8,962.8,565.8,1779.1,2028.4,3433.4,3438.2,1214.2,1382.1,1184.1,1551.5,1348.5,1554.3,-1.0,2.0,-3.0,5573.0,10717.0,8355.0,7261.0,-11.0,-23.0,18.0,7.0,0.0,-9.0,2519.0,1835.0,11615.0,11127.0,-13.0,-9.0,3.0,1.0
2022-05-03 17:32:39.638870-07:00,2075.5,593.9,1459.8,1740.6,1263.1,1677.6,1777.2,2119.9,3446.7,3438.2,2289.0,1639.8,1872.3,3450.4,1457.1,1669.1,3441.9,3439.5,765.3,1325.9,962.8,565.8,1779.1,2028.4,3441.9,3447.9,1219.5,1382.1,1184.1,1551.5,1348.5,1554.3,3.0,12.0,10.0,5576.0,10722.0,8352.0,7255.0,-15.0,1.0,-1.0,6.0,-5.0,0.0,2521.0,1837.0,11614.0,11127.0,-18.0,-10.0,-1.0,1.0
2022-05-03 17:32:39.698388-07:00,2086.6,595.5,1458.9,1741.6,1263.1,1677.6,1777.2,2118.9,3446.7,3438.2,2287.9,1646.4,1872.3,3450.4,1457.1,1672.9,3437.0,3439.5,765.3,1325.9,967.1,569.0,1782.0,2033.4,3444.3,3447.9,1219.5,1382.1,1178.8,1551.5,1342.2,1549.7,2.0,3.0,12.0,5584.0,10719.0,8347.0,7259.0,-17.0,-11.0,5.0,11.0,0.0,-2.0,2524.0,1838.0,11607.0,11134.0,-15.0,-7.0,0.0,1.0
2022-05-03 17:32:39.758469-07:00,2082.6,595.5,1458.9,1741.6,1258.7,1676.7,1775.2,2118.9,3438.2,3438.2,2287.9,1646.4,1897.7,3449.1,1455.2,1672.9,3437.0,3450.4,757.1,1313.3,967.1,569.0,1782.0,2027.4,3444.3,3450.4,1208.9,1388.5,1178.8,1551.5,1342.2,1542.2,-1.0,5.0,19.0,5581.0,10706.0,8358.0,7267.0,4.0,55.0,-37.0,8.0,1.0,4.0,2523.0,1837.0,11606.0,11135.0,5.0,11.0,0.0,1.0
2022-05-03 17:32:39.788890-07:00,2082.6,594.7,1458.0,1741.6,1258.7,1676.7,1775.2,2108.8,3438.2,3443.1,2281.7,1650.2,1897.7,3449.1,1455.2,1664.4,3447.9,3450.4,757.1,1313.3,962.8,569.8,1776.2,2027.4,3451.6,3450.4,1208.9,1388.5,1184.1,1551.5,1335.9,1542.2,-4.0,3.0,11.0,5576.0,10686.0,8374.0,7282.0,6.0,61.0,-25.0,2.0,-4.0,2.0,2519.0,1834.0,11601.0,11142.0,-17.0,10.0,10.0,1.0
2022-05-03 17:32:39.848371-07:00,2070.5,594.7,1458.0,1741.6,1260.4,1692.9,1771.4,2108.8,3452.8,3443.1,2281.7,1650.2,1867.4,3445.5,1456.2,1664.4,3447.9,3439.5,757.1,1327.8,962.8,569.8,1776.2,2035.4,3451.6,3446.7,1200.0,1394.8,1184.1,1551.5,1335.9,1534.8,7.0,12.0,-10.0,5573.0,10687.0,8373.0,7284.0,-8.0,-27.0,15.0,6.0,11.0,-16.0,2517.0,1831.0,11601.0,11143.0,3.0,1.0,-3.0,1.0
2022-05-03 17:32:39.909003-07:00,2070.5,591.5,1468.1,1752.1,1260.4,1692.9,1771.4,2099.7,3452.8,3446.7,2285.9,1637.9,1867.4,3445.5,1456.2,1660.6,3449.1,3439.5,757.1,1327.8,964.5,562.6,1774.3,2035.4,3444.3,3446.7,1200.0,1394.8,1196.5,1562.7,1336.8,1534.8,-2.0,-24.0,8.0,5585.0,10692.0,8364.0,7277.0,-2.0,-22.0,-5.0,6.0,-13.0,-8.0,2522.0,1827.0,11599.0,11144.0,-1.0,-10.0,-12.0,1.0
2022-05-03 17:32:39.938386-07:00,2068.5,591.5,1468.1,1752.1,1262.2,1677.6,1777.2,2099.7,3444.3,3446.7,2285.9,1637.9,1871.3,3451.6,1439.6,1660.6,3449.1,3432.2,761.2,1322.3,964.5,562.6,1774.3,2029.4,3444.3,3443.1,1212.4,1389.4,1196.5,1562.7,1336.8,1532.9,-1.0,8.0,3.0,5594.0,10699.0,8347.0,7280.0,-35.0,-29.0,41.0,0.0,7.0,6.0,2526.0,1831.0,11593.0,11149.0,-18.0,-16.0,6.0,1.0
2022-05-03 17:32:40.058469-07:00,2068.5,591.5,1458.9,1741.6,1262.2,1677.6,1764.6,2087.6,3444.3,3433.4,2284.8,1637.9,1871.3,3451.6,1448.8,1664.4,3449.1,3446.7,761.2,1322.3,966.2,568.2,1773.3,2029.4,3445.5,3443.1,1212.4,1389.4,1182.3,1549.7,1328.7,1532.9,0.0,2.0,25.0,5601.0,10698.0,8338.0,7286.0,-14.0,24.0,-10.0,9.0,-5.0,-3.0,2532.0,1835.0,11588.0,11152.0,-11.0,-13.0,3.0,1.0
2022-05-03 17:32:40.059862-07:00,2075.5,591.5,1458.9,1741.6,1260.4,1685.3,1764.6,2087.6,3445.5,3446.7,2284.8,1637.9,1873.2,3441.9,1448.8,1664.4,3449.1,3446.7,762.0,1324.1,966.2,568.2,1778.1,2031.4,3445.5,3443.1,1197.4,1383.9,1182.3,1549.7,1333.2,1528.3,3.0,15.0,8.0,5596.0,10687.0,8332.0,7313.0,-59.0,54.0,61.0,8.0,33.0,5.0,2530.0,1837.0,11580.0,11161.0,-38.0,-6.0,18.0,1.0
2022-05-03 17:32:40.088326-07:00,2075.5,591.5,1463.5,1743.5,1260.4,1685.3,1765.6,2092.6,3445.5,3446.7,2276.5,1636.0,1873.2,3441.9,1447.0,1664.4,3438.2,3447.9,762.0,1324.1,962.8,569.0,1778.1,2031.4,3444.3,3449.1,1197.4,1383.9,1182.3,1551.5,1333.2,1528.3,6.0,-3.0,24.0,5576.0,10675.0,8326.0,7354.0,-28.0,149.0,26.0,8.0,-5.0,-19.0,2529.0,1844.0,11574.0,11166.0,-7.0,-10.0,16.0,1.0
2022-05-03 17:32:40.148459-07:00,2070.5,591.5,1463.5,1743.5,1257.8,1683.3,1765.6,2092.6,3439.5,3447.9,2276.5,1636.0,1871.3,3435.8,1447.0,1664.4,3438.2,3447.9,757.9,1331.4,962.8,569.0,1772.3,2023.4,3444.3,3449.1,1208.9,1402.1,1182.3,1551.5,1334.1,1542.2,0.0,1.0,17.0,5543.0,10620.0,8342.0,7438.0,-71.0,260.0,-16.0,10.0,-17.0,-2.0,2521.0,1851.0,11548.0,11193.0,-114.0,0.0,54.0,1.0
2022-05-03 17:32:40.208619-07:00,2070.5,591.5,1451.6,1737.8,1257.8,1683.3,1763.7,2089.6,3439.5,3447.9,2281.7,1641.6,1871.3,3435.8,1446.0,1661.5,3435.8,3449.1,757.9,1331.4,966.2,571.4,1772.3,2023.4,3447.9,3440.7,1208.9,1402.1,1182.3,1547.8,1334.1,1542.2,-4.0,14.0,-11.0,5530.0,10525.0,8428.0,7486.0,-37.0,254.0,-309.0,12.0,-43.0,-3.0,2499.0,1852.0,11524.0,11223.0,-6.0,48.0,41.0,1.0
2022-05-03 17:32:40.268182-07:00,2065.5,608.4,1456.2,1737.8,1258.7,1684.3,1763.7,2089.6,3437.0,3435.8,2311.8,1641.6,1955.8,3444.3,1446.0,1661.5,3435.8,3449.1,760.4,1327.8,966.2,566.6,1832.3,2014.4,3447.9,3440.7,1223.0,1465.4,1182.3,1552.5,1335.0,2007.4,7.0,12.0,-16.0,5751.0,10320.0,8411.0,7622.0,-1040.0,51.0,-333.0,16.0,20.0,11.0,2485.0,1845.0,11458.0,11295.0,-386.0,16.0,59.0,1.0
2022-05-03 17:32:40.328350-07:00,2065.5,608.4,1456.2,1739.7,1258.7,1693.8,1773.3,2144.3,3437.0,3435.8,2311.8,1706.2,1955.8,3438.2,1429.5,1653.0,3438.2,3438.2,765.3,1327.8,967.1,566.6,1832.3,2014.4,3445.5,3443.1,1349.4,1465.4,1179.7,1552.5,1335.0,2007.4,-9.0,-45.0,-10.0,6078.0,10119.0,8269.0,7792.0,-803.0,-168.0,-150.0,22.0,-11.0,22.0,2463.0,1832.0,11391.0,11370.0,-63.0,92.0,53.0,1.0
2022-05-03 17:32:40.329574-07:00,2074.5,625.4,1457.1,1739.7,1261.3,1693.8,1773.3,2144.3,3449.1,3438.2,2286.9,1706.2,2062.5,3438.2,1429.5,1653.0,3438.2,3438.2,765.3,1315.1,967.1,569.0,2116.9,2029.4,3445.5,3443.1,1349.4,1577.7,1179.7,1556.2,1343.1,1880.1,14.0,4.0,16.0,6225.0,10091.0,8195.0,7792.0,-17.0,-185.0,-131.0,3.0,23.0,-26.0,2413.0,1808.0,11468.0,11306.0,328.0,107.0,-32.0,1.0
2022-05-03 17:32:40.388269-07:00,2074.5,625.4,1457.1,1738.7,1261.3,1633.1,1701.4,2077.5,3449.1,3438.2,2286.9,1697.6,2062.5,3443.1,1356.7,1650.2,3440.7,3438.2,763.7,1315.1,956.8,569.0,2116.9,2029.4,3450.4,3443.1,1303.4,1577.7,1175.3,1556.2,1343.1,1880.1,-14.0,-5.0,-8.0,6261.0,10080.0,8234.0,7735.0,68.0,-43.0,-164.0,-3.0,0.0,10.0,2386.0,1791.0,11548.0,11233.0,189.0,69.0,-25.0,1.0
2022-05-03 17:32:40.448307-07:00,2070.5,629.5,1459.8,1738.7,1266.7,1633.1,1701.4,2077.5,3449.1,3440.7,2230.1,1697.6,2096.7,3443.1,1356.7,1650.2,3440.7,3438.2,763.7,1318.7,956.8,567.4,2117.9,2028.4,3450.4,3443.1,1303.4,1459.8,1175.3,1559.0,1344.0,1823.6,-10.0,-28.0,-4.0,6276.0,10100.0,8265.0,7664.0,181.0,-193.0,-3.0,-1.0,-2.0,-1.0,2365.0,1783.0,11615.0,11170.0,218.0,44.0,1.0,1.0
2022-05-03 17:32:40.537918-07:00,2070.5,629.5,1459.8,1749.3,1266.7,1596.4,1592.7,1888.9,3449.1,3440.7,2230.1,1688.1,2096.7,3449.1,1316.0,1635.0,3445.5,3440.7,773.6,1318.7,955.1,567.4,2117.9,2028.4,3450.4,3440.7,1189.4,1459.8,1189.4,1559.0,1344.0,1823.6,9.0,-8.0,-5.0,6241.0,10169.0,8269.0,7596.0,258.0,-68.0,92.0,8.0,-3.0,-13.0,2344.0,1795.0,11671.0,11113.0,201.0,15.0,23.0,1.0
2022-05-03 17:32:40.540052-07:00,2072.5,646.5,1455.2,1744.5,1264.0,1596.4,1592.7,1888.9,3445.5,3445.5,2180.9,1676.7,2055.4,3449.1,1316.0,1635.0,3445.5,3440.7,773.6,1309.7,960.2,573.8,2099.7,2011.4,3450.4,3440.7,1189.4,1389.4,1177.9,1556.2,1344.0,1788.7,-8.0,18.0,9.0,6163.0,10250.0,8298.0,7520.0,319.0,-140.0,26.0,10.0,2.0,12.0,2325.0,1808.0,11739.0,11043.0,230.0,22.0,6.0,1.0
2022-05-03 17:32:40.598876-07:00,2072.5,646.5,1455.2,1744.5,1261.3,1591.7,1526.4,1783.9,3445.5,3445.5,2180.9,1676.7,2007.4,3432.2,1292.7,1626.5,3441.9,3441.9,761.2,1310.6,960.2,573.8,2099.7,2011.4,3449.1,3454.0,1126.1,1341.3,1177.9,1556.2,1344.0,1788.7,-2.0,2.0,5.0,6112.0,10336.0,8324.0,7412.0,259.0,-136.0,21.0,2.0,0.0,-8.0,2308.0,1813.0,11797.0,10984.0,167.0,15.0,7.0,1.0
2022-05-03 17:32:40.658337-07:00,2081.6,657.0,1452.5,1734.9,1261.3,1591.7,1526.4,1783.9,3438.2,3450.4,2122.0,1655.8,2007.4,3432.2,1292.7,1626.5,3441.9,3441.9,761.2,1310.6,951.7,565.8,2077.5,2001.5,3449.1,3454.0,1126.1,1341.3,1178.8,1553.4,1341.3,1766.6,1.0,5.0,41.0,6047.0,10408.0,8363.0,7322.0,448.0,-5.0,12.0,13.0,-9.0,6.0,2292.0,1821.0,11852.0,10927.0,242.0,20.0,7.0,1.0
2022-05-03 17:32:40.688606-07:00,2081.6,657.0,1452.5,1734.9,1260.4,1571.1,1473.6,1722.4,3438.2,3450.4,2122.0,1655.8,1974.6,3447.9,1266.7,1622.8,3438.2,3441.9,761.2,1315.1,951.7,565.8,2077.5,2001.5,3444.3,3446.7,1085.1,1300.7,1178.8,1553.4,1341.3,1766.6,-3.0,-20.0,0.0,5938.0,10488.0,8437.0,7210.0,614.0,-141.0,28.0,6.0,-5.0,-3.0,2269.0,1826.0,11913.0,10864.0,196.0,36.0,17.0,1.0
2022-05-03 17:32:40.838374-07:00,2091.6,663.6,1438.7,1733.0,1260.4,1571.1,1473.6,1722.4,3446.7,3450.4,2095.7,1656.8,1974.6,3447.9,1266.7,1622.8,3438.2,3441.9,761.2,1315.1,955.1,569.0,2047.4,1998.5,3444.3,3446.7,1085.1,1300.7,1177.9,1552.5,1338.6,1740.6,4.0,2.0,-3.0,5772.0,10634.0,8517.0,7036.0,540.0,-102.0,160.0,9.0,14.0,-12.0,2241.0,1846.0,11995.0,10776.0,306.0,13.0,28.0,1.0
2022-05-03 17:32:40.839807-07:00,2078.5,663.6,1438.7,1733.0,1259.6,1553.4,1438.7,1667.2,3438.2,3450.4,2095.7,1656.8,1958.8,3445.5,1256.9,1616.2,3437.0,3433.4,763.7,1310.6,955.1,569.0,2047.4,1993.5,3444.3,3449.1,1041.8,1281.9,1177.9,1552.5,1338.6,1731.1,3.0,16.0,0.0,5646.0,10742.0,8533.0,6953.0,241.0,-45.0,122.0,9.0,4.0,-5.0,2223.0,1871.0,12048.0,10716.0,133.0,-15.0,36.0,1.0
2022-05-03 17:32:40.868123-07:00,2078.5,662.7,1448.8,1749.3,1259.6,1553.4,1438.7,1638.8,3438.2,3451.6,2062.5,1646.4,1958.8,3445.5,1256.9,1622.8,3445.5,3433.4,763.7,1310.6,950.9,567.4,2016.4,1993.5,3451.6,3449.1,1041.8,1281.9,1182.3,1551.5,1346.7,1731.1,5.0,15.0,28.0,5581.0,10780.0,8556.0,6919.0,217.0,93.0,-30.0,8.0,10.0,0.0,2220.0,1882.0,12078.0,10681.0,126.0,-7.0,-9.0,1.0
2022-05-03 17:32:40.898288-07:00,2074.5,662.7,1448.8,1749.3,1256.0,1538.5,1411.3,1638.8,3438.2,3451.6,2062.5,1646.4,1925.2,3440.7,1246.2,1622.8,3445.5,3441.9,767.8,1307.9,950.9,567.4,2016.4,1974.6,3451.6,3433.4,1029.7,1261.3,1182.3,1551.5,1346.7,1717.7,-6.0,7.0,25.0,5498.0,10780.0,8615.0,6913.0,132.0,157.0,17.0,12.0,3.0,11.0,2212.0,1887.0,12110.0,10646.0,74.0,22.0,8.0,1.0
2022-05-03 17:32:40.928635-07:00,2074.5,651.4,1452.5,1743.5,1256.0,1538.5,1411.3,1623.7,3438.2,3433.4,2058.4,1644.5,1925.2,3440.7,1246.2,1611.5,3450.4,3441.9,767.8,1307.9,948.3,573.0,1996.5,1974.6,3445.5,3433.4,1029.7,1261.3,1178.8,1551.5,1342.2,1717.7,0.0,9.0,-8.0,5435.0,10771.0,8650.0,6932.0,93.0,81.0,-10.0,9.0,-1.0,-4.0,2198.0,1880.0,12129.0,10628.0,72.0,40.0,-6.0,1.0
2022-05-03 17:32:41.017900-07:00,2073.5,651.4,1452.5,1743.5,1251.5,1531.0,1394.8,1623.7,3449.1,3433.4,2058.4,1644.5,1903.6,3437.0,1241.7,1611.5,3450.4,3428.6,762.9,1304.3,948.3,573.0,1996.5,1982.6,3445.5,3444.3,1014.2,1267.6,1178.8,1551.5,1342.2,1708.1,2.0,3.0,0.0,5404.0,10759.0,8683.0,6933.0,29.0,93.0,-53.0,8.0,3.0,-13.0,2191.0,1871.0,12145.0,10613.0,9.0,14.0,-11.0,1.0
2022-05-03 17:32:41.078295-07:00,2073.5,652.2,1452.5,1741.6,1251.5,1531.0,1394.8,1625.6,3449.1,3444.3,2034.4,1631.3,1903.6,3437.0,1241.7,1618.1,3435.8,3428.6,762.9,1304.3,949.2,570.6,1985.6,1982.6,3445.5,3444.3,1014.2,1267.6,1180.6,1549.7,1344.9,1708.1,-1.0,-15.0,-18.0,5406.0,10734.0,8691.0,6962.0,-57.0,29.0,8.0,6.0,-3.0,-1.0,2193.0,1869.0,12136.0,10623.0,-14.0,3.0,6.0,1.0
2022-05-03 17:32:41.079663-07:00,2062.5,646.5,1452.5,1741.6,1258.7,1521.8,1389.4,1625.6,3445.5,3443.1,2034.4,1631.3,1896.7,3440.7,1227.5,1618.1,3435.8,3443.1,760.4,1310.6,949.2,570.6,1976.6,1983.6,3445.5,3444.3,1005.6,1248.8,1180.6,1549.7,1335.9,1705.3,3.0,8.0,10.0,5409.0,10738.0,8682.0,6965.0,-29.0,-20.0,14.0,10.0,9.0,-8.0,2196.0,1872.0,12136.0,10622.0,-13.0,-20.0,-4.0,1.0
2022-05-03 17:32:41.168674-07:00,2062.5,646.5,1447.9,1741.6,1258.7,1521.8,1386.6,1614.3,3445.5,3443.1,2032.4,1638.8,1896.7,3440.7,1223.0,1604.0,3438.2,3444.3,760.4,1310.6,963.7,569.8,1976.6,1983.6,3441.9,3445.5,1005.6,1248.8,1181.5,1554.3,1335.9,1705.3,-2.0,4.0,16.0,5430.0,10725.0,8664.0,6991.0,-76.0,31.0,11.0,9.0,3.0,0.0,2204.0,1875.0,12121.0,10637.0,-44.0,-14.0,2.0,1.0
2022-05-03 17:32:41.198134-07:00,2062.5,643.2,1447.9,1741.6,1256.9,1524.5,1386.6,1614.3,3438.2,3443.1,2032.4,1638.8,1886.0,3440.7,1223.0,1604.0,3438.2,3444.3,764.5,1307.0,963.7,569.8,1967.7,1974.6,3441.9,3445.5,1003.9,1245.3,1181.5,1554.3,1338.6,1676.7,1.0,4.0,14.0,5445.0,10713.0,8655.0,7009.0,-40.0,-6.0,-1.0,9.0,1.0,1.0,2206.0,1874.0,12115.0,10644.0,-8.0,5.0,-8.0,1.0
2022-05-03 17:32:41.288555-07:00,2062.5,643.2,1447.9,1736.8,1256.9,1524.5,1382.1,1612.4,3438.2,3443.1,2027.4,1632.2,1886.0,3440.7,1228.4,1604.0,3434.6,3444.3,764.5,1307.0,945.8,568.2,1967.7,1974.6,3449.1,3445.5,1003.9,1245.3,1177.0,1547.8,1338.6,1676.7,-5.0,-5.0,1.0,5456.0,10704.0,8648.0,7023.0,-58.0,22.0,-7.0,9.0,-1.0,0.0,2207.0,1873.0,12111.0,10648.0,-22.0,7.0,-2.0,1.0
2022-05-03 17:32:41.289877-07:00,2072.5,642.4,1447.9,1736.8,1264.0,1522.7,1382.1,1612.4,3440.7,3443.1,2027.4,1632.2,1878.1,3444.3,1228.4,1604.0,3434.6,3444.3,766.2,1309.7,945.8,568.2,1955.8,1970.7,3449.1,3445.5,997.9,1244.4,1177.0,1547.8,1342.2,1668.2,6.0,3.0,-2.0,5463.0,10704.0,8643.0,7022.0,11.0,-33.0,-9.0,7.0,10.0,-8.0,2207.0,1874.0,12112.0,10647.0,11.0,1.0,-7.0,1.0
2022-05-03 17:32:41.437934-07:00,2072.5,642.4,1447.9,1742.6,1264.0,1517.1,1376.6,1608.7,3440.7,3443.1,2020.4,1629.4,1878.1,3445.5,1230.2,1604.0,3437.0,3439.5,767.8,1309.7,941.5,562.6,1955.8,1970.7,3443.1,3440.7,986.7,1244.4,1184.1,1548.7,1342.2,1668.2,1.0,-6.0,10.0,5468.0,10706.0,8642.0,7017.0,-10.0,2.0,3.0,7.0,-1.0,-1.0,2209.0,1875.0,12110.0,10649.0,-14.0,-11.0,7.0,1.0
2022-05-03 17:32:41.439151-07:00,2065.5,645.7,1445.1,1742.6,1263.1,1517.1,1376.6,1608.7,3440.7,3446.7,2018.4,1629.4,1870.3,3445.5,1230.2,1604.0,3437.0,3439.5,767.8,1302.5,941.5,569.0,1949.9,1970.7,3443.1,3440.7,986.7,1238.2,1184.1,1554.3,1341.3,1677.6,-3.0,0.0,5.0,5448.0,10724.0,8646.0,7000.0,118.0,-40.0,45.0,10.0,0.0,1.0,2207.0,1877.0,12119.0,10638.0,51.0,2.0,1.0,1.0
2022-05-03 17:32:41.441352-07:00,2065.5,645.7,1445.1,1740.6,1263.1,1511.5,1383.0,1610.5,3440.7,3446.7,2018.4,1626.5,1870.3,3445.5,1220.4,1611.5,3444.3,3438.2,762.9,1302.5,950.9,569.0,1949.9,1970.7,3449.1,3454.0,992.7,1238.2,1179.7,1554.3,1341.3,1677.6,5.0,13.0,5.0,5428.0,10746.0,8642.0,6987.0,8.0,-1.0,24.0,6.0,0.0,-5.0,2206.0,1878.0,12125.0,10632.0,-12.0,-2.0,-1.0,1.0
2022-05-03 17:32:41.528151-07:00,2062.5,638.4,1447.0,1740.6,1265.8,1511.5,1383.0,1610.5,3451.6,3449.1,2017.4,1626.5,1860.6,3445.5,1220.4,1611.5,3444.3,3438.2,762.9,1305.2,950.9,571.4,1946.9,1975.6,3449.1,3454.0,992.7,1257.8,1179.7,1550.6,1340.4,1673.8,-1.0,-1.0,8.0,5434.0,10741.0,8644.0,6987.0,-1.0,-9.0,-27.0,12.0,4.0,-4.0,2206.0,1878.0,12126.0,10631.0,12.0,6.0,-7.0,1.0
2022-05-03 17:32:41.529410-07:00,2062.5,638.4,1447.0,1741.6,1265.8,1517.1,1373.0,1601.1,3451.6,3449.1,2017.4,1625.6,1860.6,3441.9,1210.6,1604.9,3444.3,3437.0,767.0,1305.2,944.9,571.4,1946.9,1975.6,3447.9,3443.1,986.7,1257.8,1181.5,1550.6,1340.4,1673.8,1.0,-3.0,0.0,5440.0,10738.0,8641.0,6991.0,-36.0,7.0,17.0,5.0,0.0,-5.0,2206.0,1878.0,12126.0,10630.0,-6.0,0.0,5.0,1.0
2022-05-03 17:32:41.588518-07:00,2061.5,644.0,1453.4,1741.6,1264.0,1517.1,1373.0,1601.1,3452.8,3449.1,2005.5,1625.6,1857.6,3441.9,1210.6,1604.9,3444.3,3437.0,767.0,1297.2,944.9,566.6,1936.1,1967.7,3447.9,3443.1,986.7,1239.9,1181.5,1550.6,1346.7,1668.2,1.0,1.0,8.0,5447.0,10736.0,8635.0,6997.0,-17.0,-12.0,-6.0,9.0,0.0,-3.0,2206.0,1878.0,12126.0,10630.0,-3.0,-7.0,-7.0,1.0
2022-05-03 17:32:41.648610-07:00,2061.5,644.0,1453.4,1749.3,1256.0,1506.9,1374.8,1595.5,3452.8,3449.1,2005.5,1617.1,1847.9,3445.5,1216.0,1606.8,3451.6,3444.3,767.0,1303.4,950.9,566.6,1936.1,1967.7,3446.7,3458.9,982.5,1235.5,1177.0,1550.6,1346.7,1668.2,4.0,-2.0,18.0,5446.0,10734.0,8634.0,7001.0,-7.0,19.0,11.0,9.0,0.0,2.0,2206.0,1878.0,12126.0,10631.0,1.0,-4.0,7.0,1.0
2022-05-03 17:32:41.678125-07:00,2052.4,640.8,1447.9,1738.7,1256.0,1506.9,1374.8,1595.5,3446.7,3445.5,2004.5,1621.8,1847.9,3445.5,1216.0,1606.8,3451.6,3444.3,767.0,1303.4,942.4,565.8,1932.1,1972.7,3446.7,3458.9,982.5,1235.5,1181.5,1553.4,1343.1,1661.5,5.0,-2.0,16.0,5436.0,10737.0,8633.0,7005.0,42.0,-1.0,14.0,11.0,0.0,-3.0,2206.0,1878.0,12126.0,10631.0,13.0,6.0,1.0,1.0
2022-05-03 17:32:41.738739-07:00,2052.4,640.8,1447.9,1738.7,1260.4,1500.4,1363.9,1590.8,3446.7,3445.5,2004.5,1621.8,1849.8,3444.3,1216.8,1602.1,3441.9,3438.2,764.5,1307.0,942.4,565.8,1932.1,1972.7,3440.7,3438.2,979.9,1232.8,1181.5,1553.4,1343.1,1661.5,0.0,-4.0,11.0,5417.0,10748.0,8646.0,6988.0,79.0,-11.0,-1.0,6.0,3.0,-4.0,2203.0,1878.0,12133.0,10623.0,29.0,10.0,-5.0,1.0
2022-05-03 17:32:41.798129-07:00,2074.5,635.9,1448.8,1737.8,1260.4,1500.4,1363.9,1590.8,3441.9,3438.2,1998.5,1620.9,1849.8,3444.3,1216.8,1602.1,3441.9,3438.2,764.5,1307.0,946.6,567.4,1928.2,1970.7,3440.7,3438.2,979.9,1232.8,1182.3,1559.0,1342.2,1653.0,-3.0,-1.0,-1.0,5403.0,10758.0,8652.0,6976.0,25.0,-21.0,19.0,10.0,3.0,-6.0,2201.0,1877.0,12136.0,10620.0,-1.0,0.0,3.0,1.0
2022-05-03 17:32:41.828474-07:00,2074.5,635.9,1448.8,1737.8,1263.1,1506.0,1366.6,1593.6,3441.9,3438.2,1998.5,1620.9,1845.0,3444.3,1212.4,1608.7,3447.9,3449.1,761.2,1307.0,946.6,567.4,1928.2,1970.7,3451.6,3447.9,980.7,1232.8,1182.3,1559.0,1342.2,1653.0,1.0,8.0,3.0,5402.0,10768.0,8647.0,6967.0,1.0,-9.0,7.0,5.0,5.0,-7.0,2201.0,1877.0,12138.0,10618.0,-3.0,-9.0,0.0,1.0
2022-05-03 17:32:41.948704-07:00,2050.4,640.8,1449.7,1733.0,1263.1,1506.0,1366.6,1593.6,3440.7,3445.5,1999.5,1619.9,1845.0,3444.3,1212.4,1608.7,3447.9,3449.1,761.2,1307.0,945.8,567.4,1924.3,1963.7,3451.6,3447.9,980.7,1232.8,1181.5,1563.7,1341.3,1654.9,-1.0,1.0,14.0,5414.0,10760.0,8639.0,6979.0,-41.0,10.0,5.0,10.0,0.0,5.0,2203.0,1877.0,12131.0,10626.0,-23.0,-8.0,4.0,1.0
2022-05-03 17:32:41.978138-07:00,2057.4,640.8,1449.7,1733.0,1253.3,1500.4,1369.4,1589.9,3451.6,3445.5,1999.5,1619.9,1842.0,3447.9,1209.7,1595.5,3437.0,3449.1,769.5,1301.6,945.8,567.4,1924.3,1970.7,3445.5,3455.2,983.3,1234.6,1181.5,1563.7,1341.3,1652.0,0.0,7.0,7.0,5409.0,10762.0,8640.0,6979.0,16.0,15.0,-3.0,8.0,1.0,-3.0,2203.0,1877.0,12131.0,10625.0,11.0,6.0,-2.0,1.0
2022-05-03 17:32:41.979331-07:00,2057.4,636.7,1445.1,1736.8,1253.3,1500.4,1369.4,1588.9,3451.6,3438.2,1999.5,1611.5,1842.0,3447.9,1209.7,1602.1,3439.5,3449.1,769.5,1301.6,942.4,567.4,1917.4,1970.7,3445.5,3455.2,983.3,1234.6,1174.4,1553.4,1335.9,1652.0,-1.0,-4.0,8.0,5406.0,10759.0,8642.0,6983.0,12.0,15.0,5.0,8.0,-1.0,-3.0,2203.0,1877.0,12131.0,10625.0,7.0,7.0,-2.0,1.0
2022-05-03 17:32:42.038704-07:00,2056.4,636.7,1445.1,1736.8,1261.3,1501.4,1367.6,1588.9,3443.1,3438.2,1999.5,1611.5,1836.2,3446.7,1210.6,1602.1,3439.5,3438.2,764.5,1304.3,942.4,567.4,1917.4,1965.7,3445.5,3449.1,978.2,1229.3,1174.4,1553.4,1335.9,1646.4,0.0,8.0,1.0,5398.0,10762.0,8643.0,6983.0,-6.0,10.0,11.0,6.0,5.0,-11.0,2203.0,1878.0,12134.0,10622.0,-2.0,0.0,4.0,1.0
2022-05-03 17:32:42.098474-07:00,2056.4,640.0,1448.8,1733.9,1261.3,1501.4,1367.6,1593.6,3443.1,3446.7,1996.5,1614.3,1836.2,3446.7,1210.6,1601.1,3438.2,3438.2,764.5,1304.3,951.7,569.8,1917.4,1965.7,3446.7,3449.1,978.2,1229.3,1170.9,1549.7,1342.2,1646.4,-2.0,0.0,0.0,5402.0,10757.0,8640.0,6991.0,-19.0,-7.0,-3.0,10.0,-1.0,-4.0,2203.0,1877.0,12131.0,10626.0,-4.0,-8.0,-3.0,1.0
2022-05-03 17:32:42.128177-07:00,2054.4,640.0,1448.8,1733.9,1270.3,1494.9,1360.3,1593.6,3447.9,3446.7,1996.5,1614.3,1830.4,3447.9,1214.2,1601.1,3438.2,3438.2,769.5,1301.6,951.7,569.8,1917.4,1957.8,3446.7,3443.1,979.0,1226.6,1170.9,1549.7,1342.2,1639.8,-1.0,0.0,9.0,5402.0,10759.0,8637.0,6993.0,0.0,-1.0,17.0,9.0,0.0,-1.0,2203.0,1877.0,12131.0,10626.0,1.0,-4.0,5.0,1.0
2022-05-03 17:32:42.188161-07:00,2054.4,638.4,1442.4,1739.7,1270.3,1494.9,1360.3,1586.1,3447.9,3451.6,1992.5,1620.9,1830.4,3447.9,1209.7,1596.4,3437.0,3437.0,769.5,1301.6,949.2,567.4,1912.4,1957.8,3444.3,3444.3,979.0,1226.6,1181.5,1549.7,1340.4,1639.8,-3.0,7.0,5.0,5400.0,10763.0,8633.0,6994.0,1.0,-18.0,11.0,13.0,4.0,-3.0,2203.0,1877.0,12131.0,10625.0,0.0,1.0,0.0,1.0
2022-05-03 17:32:42.308103-07:00,2047.4,635.1,1442.4,1739.7,1256.9,1492.1,1360.3,1586.1,3444.3,3441.9,1992.5,1620.9,1825.5,3441.9,1209.7,1596.4,3437.0,3437.0,765.3,1304.3,949.2,567.4,1910.5,1950.9,3444.3,3444.3,974.8,1223.9,1181.5,1549.7,1337.7,1634.1,5.0,-4.0,7.0,5403.0,10771.0,8625.0,6989.0,-1.0,-18.0,19.0,4.0,0.0,-9.0,2203.0,1878.0,12133.0,10623.0,10.0,-2.0,1.0,1.0
2022-05-03 17:32:42.337381-07:00,2047.4,635.1,1442.4,1733.0,1256.9,1492.1,1363.9,1588.9,3444.3,3441.9,1993.5,1619.9,1825.5,3441.9,1210.6,1599.3,3440.7,3434.6,765.3,1304.3,944.9,568.2,1910.5,1950.9,3449.1,3443.1,974.8,1223.9,1179.7,1554.3,1337.7,1634.1,-3.0,7.0,2.0,5398.0,10772.0,8624.0,6992.0,1.0,9.0,7.0,9.0,3.0,0.0,2203.0,1878.0,12135.0,10621.0,4.0,-2.0,2.0,1.0
2022-05-03 17:32:42.339035-07:00,2054.4,634.3,1442.4,1733.0,1257.8,1506.0,1363.9,1588.9,3438.2,3449.1,1993.5,1619.9,1822.6,3444.3,1210.6,1599.3,3440.7,3434.6,762.9,1299.8,944.9,568.2,1906.6,1959.8,3449.1,3443.1,972.2,1216.8,1179.7,1554.3,1338.6,1631.3,-2.0,1.0,8.0,5398.0,10772.0,8624.0,6992.0,2.0,9.0,2.0,7.0,0.0,0.0,2203.0,1878.0,12135.0,10621.0,5.0,5.0,1.0,1.0
2022-05-03 17:32:42.398108-07:00,2054.4,634.3,1438.7,1733.9,1257.8,1506.0,1360.3,1591.7,3438.2,3449.1,1986.6,1613.4,1822.6,3444.3,1206.2,1596.4,3446.7,3440.7,762.9,1299.8,939.0,570.6,1906.6,1959.8,3438.2,3447.9,972.2,1216.8,1175.3,1546.9,1338.6,1631.3,-3.0,1.0,3.0,5393.0,10770.0,8627.0,6995.0,21.0,5.0,5.0,9.0,1.0,-4.0,2203.0,1878.0,12135.0,10621.0,9.0,7.0,2.0,1.0
2022-05-03 17:32:42.428158-07:00,2058.4,634.3,1438.7,1733.9,1257.8,1504.1,1360.3,1591.7,3441.9,3439.5,1986.6,1613.4,1824.6,3437.0,1206.2,1596.4,3446.7,3440.7,764.5,1301.6,939.0,570.6,1907.5,1957.8,3438.2,3447.9,970.5,1221.3,1175.3,1546.9,1336.8,1633.1,0.0,3.0,7.0,5391.0,10773.0,8629.0,6989.0,10.0,-4.0,6.0,10.0,0.0,-5.0,2203.0,1878.0,12135.0,10620.0,0.0,-2.0,2.0,1.0
2022-05-03 17:32:42.487676-07:00,2058.4,634.3,1441.5,1733.0,1257.8,1489.3,1358.5,1580.5,3441.9,3439.5,1985.6,1609.6,1824.6,3446.7,1207.1,1596.4,3445.5,3440.7,768.7,1301.6,946.6,566.6,1907.5,1957.8,3446.7,3447.9,973.9,1221.3,1177.9,1544.1,1336.8,1633.1,1.0,-1.0,9.0,5387.0,10776.0,8629.0,6988.0,16.0,2.0,6.0,9.0,1.0,-2.0,2203.0,1878.0,12135.0,10620.0,2.0,-3.0,2.0,1.0
2022-05-03 17:32:42.547935-07:00,2053.4,636.7,1436.0,1733.0,1260.4,1489.3,1358.5,1580.5,3445.5,3438.2,1986.6,1609.6,1818.7,3446.7,1207.1,1596.4,3445.5,3440.7,768.7,1294.5,946.6,569.8,1896.7,1951.9,3446.7,3447.9,973.9,1224.8,1177.9,1545.0,1341.3,1619.9,0.0,0.0,12.0,5384.0,10780.0,8632.0,6981.0,16.0,-8.0,2.0,10.0,-2.0,-3.0,2203.0,1878.0,12135.0,10620.0,-11.0,4.0,4.0,1.0
2022-05-03 17:32:42.577798-07:00,2053.4,636.7,1436.0,1741.6,1260.4,1490.3,1353.1,1568.3,3445.5,3438.2,1986.6,1611.5,1818.7,3438.2,1206.2,1595.5,3449.1,3438.2,767.0,1294.5,946.6,569.8,1896.7,1951.9,3449.1,3438.2,969.6,1224.8,1184.1,1545.0,1341.3,1619.9,4.0,8.0,12.0,5369.0,10789.0,8639.0,6969.0,69.0,-10.0,6.0,11.0,5.0,-2.0,2202.0,1879.0,12137.0,10618.0,28.0,9.0,1.0,1.0
2022-05-03 17:32:42.638066-07:00,2046.4,636.7,1448.8,1741.6,1256.9,1490.3,1353.1,1568.3,3449.1,3439.5,1983.6,1611.5,1816.8,3438.2,1206.2,1595.5,3449.1,3438.2,767.0,1301.6,946.6,570.6,1893.8,1958.8,3449.1,3438.2,969.6,1221.3,1184.1,1544.1,1340.4,1619.9,5.0,0.0,12.0,5362.0,10791.0,8644.0,6966.0,-20.0,22.0,0.0,10.0,5.0,-10.0,2202.0,1879.0,12140.0,10615.0,-10.0,0.0,-2.0,1.0
2022-05-03 17:32:42.698158-07:00,2046.4,636.7,1448.8,1735.8,1256.9,1481.0,1357.6,1579.6,3449.1,3439.5,1983.6,1604.0,1816.8,3445.5,1195.6,1595.5,3440.7,3440.7,764.5,1301.6,944.1,570.6,1893.8,1958.8,3447.9,3441.9,969.6,1221.3,1182.3,1544.1,1340.4,1619.9,-3.0,0.0,2.0,5362.0,10785.0,8644.0,6975.0,-6.0,-9.0,8.0,9.0,0.0,-5.0,2202.0,1879.0,12140.0,10615.0,6.0,4.0,-1.0,1.0
2022-05-03 17:32:42.728378-07:00,2047.4,635.1,1442.4,1730.1,1259.6,1481.0,1357.6,1579.6,3443.1,3444.3,1979.6,1610.5,1803.2,3445.5,1195.6,1595.5,3440.7,3440.7,764.5,1291.8,943.2,569.8,1892.8,1951.9,3447.9,3441.9,969.6,1210.6,1185.9,1552.5,1335.9,1620.9,0.0,0.0,3.0,5367.0,10787.0,8635.0,6980.0,-26.0,-1.0,26.0,9.0,0.0,-8.0,2202.0,1879.0,12140.0,10615.0,-14.0,-6.0,5.0,1.0
2022-05-03 17:32:42.788334-07:00,2047.4,635.1,1442.4,1730.1,1252.4,1493.0,1356.7,1573.9,3443.1,3444.3,1979.6,1610.5,1801.3,3444.3,1207.1,1594.6,3439.5,3445.5,761.2,1296.3,943.2,569.8,1892.8,1951.9,3454.0,3438.2,970.5,1217.7,1185.9,1552.5,1335.9,1620.9,1.0,3.0,4.0,5369.0,10792.0,8626.0,6980.0,0.0,-16.0,4.0,8.0,1.0,-6.0,2201.0,1880.0,12139.0,10616.0,-6.0,-5.0,-2.0,1.0
2022-05-03 17:32:42.847892-07:00,2044.4,635.1,1448.8,1733.0,1252.4,1493.0,1356.7,1573.9,3443.1,3440.7,1978.6,1613.4,1801.3,3444.3,1207.1,1594.6,3439.5,3445.5,761.2,1296.3,946.6,569.8,1892.8,1952.9,3454.0,3438.2,970.5,1217.7,1181.5,1559.0,1344.9,1622.8,3.0,-6.0,16.0,5373.0,10792.0,8623.0,6982.0,-10.0,-13.0,18.0,9.0,-4.0,-3.0,2202.0,1879.0,12135.0,10620.0,-5.0,-4.0,4.0,1.0
2022-05-03 17:32:42.878669-07:00,2044.4,635.1,1448.8,1733.0,1254.2,1484.7,1355.8,1567.4,3443.1,3440.7,1978.6,1613.4,1812.9,3449.1,1200.0,1596.4,3439.5,3449.1,759.6,1298.1,946.6,569.8,1892.8,1952.9,3438.2,3452.8,969.6,1214.2,1181.5,1559.0,1344.9,1622.8,4.0,7.0,8.0,5372.0,10796.0,8618.0,6982.0,5.0,2.0,0.0,12.0,4.0,-7.0,2202.0,1879.0,12135.0,10620.0,2.0,-1.0,-2.0,1.0
2022-05-03 17:32:42.938046-07:00,2044.4,627.8,1449.7,1733.0,1254.2,1484.7,1355.8,1567.4,3446.7,3444.3,1981.6,1610.5,1812.9,3449.1,1200.0,1596.4,3439.5,3449.1,759.6,1298.1,946.6,566.6,1880.1,1952.9,3438.2,3452.8,969.6,1214.2,1184.1,1557.1,1336.8,1616.2,0.0,0.0,5.0,5370.0,10792.0,8621.0,6986.0,2.0,26.0,-8.0,12.0,1.0,-4.0,2202.0,1879.0,12135.0,10620.0,0.0,1.0,-2.0,1.0
2022-05-03 17:32:42.998942-07:00,2044.4,627.8,1449.7,1733.0,1256.9,1490.3,1347.6,1575.8,3446.7,3444.3,1981.6,1610.5,1805.2,3446.7,1200.0,1585.2,3438.2,3445.5,760.4,1295.4,946.6,566.6,1880.1,1952.9,3438.2,3449.1,956.8,1210.6,1184.1,1557.1,1336.8,1616.2,2.0,-1.0,4.0,5365.0,10793.0,8623.0,6987.0,21.0,-3.0,18.0,7.0,-1.0,-10.0,2202.0,1879.0,12137.0,10619.0,8.0,-7.0,1.0,1.0
2022-05-03 17:32:43.028295-07:00,2047.4,631.1,1447.9,1726.3,1256.9,1490.3,1347.6,1572.1,3449.1,3449.1,1983.6,1606.8,1805.2,3446.7,1200.0,1601.1,3440.7,3445.5,760.4,1295.4,942.4,569.0,1888.9,1950.9,3444.3,3449.1,956.8,1210.6,1174.4,1552.5,1346.7,1622.8,5.0,9.0,3.0,5360.0,10798.0,8618.0,6989.0,-8.0,-7.0,10.0,12.0,2.0,-6.0,2202.0,1879.0,12137.0,10619.0,-9.0,-5.0,-1.0,1.0
2022-05-03 17:32:43.087998-07:00,2042.4,631.1,1447.9,1726.3,1257.8,1487.5,1354.0,1572.1,3440.7,3449.1,1983.6,1606.8,1806.1,3438.2,1203.5,1601.1,3440.7,3444.3,769.5,1295.4,942.4,569.0,1888.9,1951.9,3444.3,3444.3,967.1,1209.7,1174.4,1552.5,1346.7,1613.4,0.0,-3.0,19.0,5363.0,10795.0,8619.0,6990.0,-23.0,10.0,-6.0,12.0,1.0,-3.0,2202.0,1879.0,12135.0,10620.0,-14.0,-1.0,-2.0,1.0
2022-05-03 17:32:43.177994-07:00,2042.4,628.6,1441.5,1736.8,1257.8,1487.5,1354.0,1573.0,3440.7,3445.5,1975.6,1604.9,1806.1,3438.2,1203.5,1599.3,3447.9,3444.3,769.5,1295.4,943.2,569.8,1888.9,1951.9,3452.8,3444.3,967.1,1209.7,1176.2,1546.9,1337.7,1613.4,-16.0,10.0,-23.0,5362.0,10791.0,8618.0,6998.0,-17.0,12.0,12.0,9.0,10.0,-4.0,2201.0,1878.0,12135.0,10621.0,-3.0,5.0,-17.0,1.0
2022-05-03 17:32:43.268493-07:00,2048.4,628.6,1441.5,1736.8,1256.0,1481.0,1354.9,1573.0,3454.0,3445.5,1975.6,1604.9,1804.2,3438.2,1202.7,1599.3,3447.9,3438.2,764.5,1295.4,943.2,569.8,1888.9,1959.8,3452.8,3441.9,959.4,1210.6,1176.2,1546.9,1337.7,1617.1,-3.0,78.0,21.0,5367.0,10778.0,8616.0,7016.0,-16.0,115.0,-86.0,-3.0,61.0,1.0,2216.0,1869.0,12119.0,10638.0,-131.0,-44.0,-54.0,1.0
2022-05-03 17:32:43.269661-07:00,2048.4,630.3,1439.6,1733.0,1256.0,1481.0,1354.9,1623.7,3454.0,3439.5,1976.6,1608.7,1804.2,3438.2,1202.7,1594.6,3433.4,3438.2,764.5,1295.4,944.9,565.8,1884.0,1959.8,3443.1,3441.9,959.4,1210.6,1174.4,1547.8,1331.4,1617.1,-44.0,40.0,-27.0,5488.0,10628.0,8607.0,7162.0,-1317.0,329.0,-304.0,-4.0,31.0,-18.0,2285.0,1856.0,11992.0,10769.0,-925.0,-200.0,-29.0,1.0
2022-05-03 17:32:43.271603-07:00,2072.5,628.6,1439.6,1733.0,1254.2,1484.7,1456.2,1623.7,3444.3,3439.5,1976.6,1608.7,1807.1,3443.1,1205.3,1594.6,3433.4,3435.8,762.0,1303.4,944.9,565.8,1887.9,1938.0,3443.1,3451.6,1030.6,1208.0,1174.4,1547.8,1335.9,1604.0,24.0,-131.0,50.0,5804.0,10376.0,8478.0,7430.0,-319.0,93.0,-72.0,38.0,-66.0,-12.0,2386.0,1848.0,11738.0,11025.0,-272.0,-67.0,-36.0,1.0
2022-05-03 17:32:43.328330-07:00,2072.5,628.6,1445.1,1737.8,1254.2,1484.7,1779.1,2145.3,3444.3,3439.5,2004.5,1617.1,1807.1,3443.1,1207.1,1590.8,3439.5,3438.2,762.0,1303.4,949.2,569.0,1887.9,1938.0,3443.1,3443.1,1030.6,1208.0,1182.3,1544.1,1335.9,1604.0,18.0,34.0,45.0,5767.0,10349.0,8512.0,7458.0,-21.0,253.0,-70.0,19.0,5.0,14.0,2419.0,1842.0,11697.0,11062.0,-206.0,-37.0,-28.0,1.0
2022-05-03 17:32:43.387559-07:00,2088.6,620.5,1445.1,1737.8,1260.4,1501.4,1779.1,2145.3,3444.3,3446.7,2004.5,1617.1,1800.3,3439.5,1207.1,1590.8,3439.5,3438.2,766.2,1299.0,949.2,569.0,1867.4,1951.9,3443.1,3443.1,1238.2,1249.7,1182.3,1544.1,1328.7,1615.2,-25.0,-26.0,21.0,5756.0,10266.0,8552.0,7536.0,-4.0,131.0,-45.0,19.0,-18.0,27.0,2435.0,1819.0,11625.0,11138.0,-202.0,31.0,-25.0,1.0
2022-05-03 17:32:43.418378-07:00,2088.6,620.5,1442.4,1733.9,1260.4,1501.4,1843.0,2232.2,3444.3,3446.7,2006.4,1619.9,1800.3,3439.5,1203.5,1595.5,3439.5,3433.4,766.2,1299.0,952.6,569.0,1867.4,1951.9,3443.1,3439.5,1238.2,1249.7,1175.3,1545.0,1328.7,1615.2,6.0,16.0,-5.0,5705.0,10261.0,8596.0,7530.0,179.0,109.0,-31.0,3.0,17.0,-23.0,2431.0,1794.0,11606.0,11162.0,-73.0,41.0,-17.0,1.0
2022-05-03 17:32:43.478801-07:00,2116.9,620.5,1442.4,1733.9,1250.6,1528.3,1843.0,2232.2,3449.1,3445.5,2006.4,1619.9,1826.5,3439.5,1203.5,1595.5,3439.5,3433.4,767.0,1306.1,952.6,569.0,1919.3,1946.9,3443.1,3439.5,1256.0,3449.1,1175.3,1545.0,1328.7,1619.9,4.0,0.0,-20.0,5603.0,10266.0,8667.0,7518.0,336.0,131.0,49.0,18.0,-6.0,-10.0,2436.0,1769.0,11577.0,11196.0,-68.0,26.0,-42.0,1.0
2022-05-03 17:32:43.657850-07:00,2116.9,620.5,1440.5,1726.3,1250.6,1528.3,1912.4,2310.8,3449.1,3445.5,2093.7,1635.0,1826.5,3439.5,1278.3,1608.7,3449.1,3428.6,767.0,1306.1,958.5,568.2,1919.3,1946.9,3449.1,3443.1,1256.0,3449.1,1179.7,1547.8,1328.7,1619.9,4.0,14.0,-31.0,5474.0,10320.0,8747.0,7446.0,354.0,62.0,-9.0,1.0,6.0,-33.0,2449.0,1751.0,11588.0,11185.0,-23.0,-11.0,-77.0,1.0
2022-05-03 17:32:43.660706-07:00,2073.5,618.9,1444.2,1726.3,1254.2,1586.1,1912.4,2310.8,3451.6,3446.7,2261.0,1635.0,1935.1,3449.1,1278.3,1608.7,3449.1,3428.6,762.0,1316.9,958.5,565.8,1965.7,1970.7,3449.1,3443.1,1299.8,1518.0,1179.7,1543.1,1324.1,1619.9,-24.0,-5.0,0.0,5421.0,10334.0,8801.0,7403.0,70.0,-84.0,29.0,3.0,-11.0,7.0,2483.0,1737.0,11571.0,11197.0,-80.0,-70.0,-60.0,1.0
2022-05-03 17:32:43.661710-07:00,2073.5,618.9,1444.2,1732.0,1254.2,1606.8,1892.8,2269.3,3451.6,3446.7,2261.0,1650.2,1935.1,3445.5,1374.8,1620.9,3438.2,3439.5,763.7,1316.9,959.4,565.8,1965.7,1970.7,3451.6,3444.3,1299.8,1518.0,1184.1,1543.1,1324.1,1619.9,8.0,-5.0,10.0,5458.0,10402.0,8743.0,7349.0,19.0,-293.0,100.0,4.0,-6.0,-22.0,2525.0,1741.0,11560.0,11198.0,23.0,-86.0,-53.0,1.0
2022-05-03 17:32:43.687457-07:00,2079.5,612.5,1438.7,1732.0,1247.1,1606.8,1892.8,2269.3,3441.9,3441.9,2226.0,1650.2,2032.4,3445.5,1374.8,1620.9,3438.2,3439.5,763.7,1324.1,959.4,562.6,1914.4,1990.5,3451.6,3444.3,1299.8,1514.3,1184.1,1540.3,1329.6,1773.3,-1.0,4.0,20.0,5511.0,10451.0,8687.0,7307.0,-96.0,-196.0,36.0,8.0,-8.0,7.0,2563.0,1755.0,11544.0,11204.0,-63.0,-79.0,-29.0,1.0
2022-05-03 17:32:43.748461-07:00,2079.5,612.5,1438.7,1728.2,1247.1,1611.5,1861.5,2227.0,3441.9,3441.9,2226.0,1624.7,2032.4,3451.6,1393.0,1626.5,3433.4,3435.8,758.7,1324.1,961.1,562.6,1914.4,1990.5,3449.1,3444.3,1273.0,1514.3,1171.8,1540.3,1329.6,1773.3,-6.0,8.0,35.0,5572.0,10480.0,8639.0,7274.0,-22.0,-148.0,2.0,2.0,4.0,8.0,2593.0,1765.0,11536.0,11203.0,1.0,-55.0,-23.0,1.0
2022-05-03 17:32:43.778050-07:00,2079.5,604.4,1437.8,1728.2,1252.4,1611.5,1861.5,2227.0,3441.9,3438.2,2208.6,1624.7,2011.4,3451.6,1393.0,1626.5,3433.4,3435.8,758.7,1325.0,961.1,569.8,1897.7,1993.5,3449.1,3444.3,1273.0,1511.5,1171.8,1544.1,1334.1,1757.0,0.0,1.0,37.0,5608.0,10481.0,8611.0,7280.0,-66.0,-30.0,22.0,13.0,-9.0,12.0,2606.0,1774.0,11521.0,11214.0,-23.0,-18.0,6.0,1.0
2022-05-03 17:32:43.838223-07:00,2079.5,604.4,1437.8,1730.1,1252.4,1604.0,1835.2,2185.0,3441.9,3438.2,2208.6,1615.2,2011.4,3441.9,1383.0,1620.9,3440.7,3437.0,761.2,1325.0,957.7,569.8,1897.7,1993.5,3447.9,3438.2,1254.2,1511.5,1181.5,1544.1,1334.1,1757.0,0.0,-6.0,3.0,5620.0,10477.0,8592.0,7297.0,-57.0,-9.0,42.0,14.0,-5.0,-1.0,2606.0,1775.0,11510.0,11225.0,-39.0,3.0,9.0,1.0
2022-05-03 17:32:43.897829-07:00,2072.5,602.0,1438.7,1733.9,1262.2,1604.0,1835.2,2185.0,3449.1,3445.5,2189.1,1611.5,1972.7,3441.9,1383.0,1620.9,3440.7,3437.0,761.2,1325.9,962.8,569.8,1862.5,1987.5,3447.9,3438.2,1254.2,1483.8,1180.6,1545.9,1320.5,1711.0,0.0,-10.0,-2.0,5640.0,10482.0,8556.0,7317.0,-114.0,-15.0,54.0,5.0,0.0,-15.0,2603.0,1778.0,11500.0,11236.0,-57.0,-10.0,22.0,1.0
2022-05-03 17:32:43.928560-07:00,2072.5,602.0,1438.7,1733.9,1255.1,1597.4,1834.3,2169.7,3449.1,3445.5,2189.1,1611.5,1965.7,3443.1,1383.9,1627.5,3438.2,3444.3,763.7,1321.4,962.8,569.8,1862.5,1987.5,3449.1,3449.1,1242.6,1471.8,1180.6,1545.9,1320.5,1711.0,3.0,15.0,-8.0,5662.0,10485.0,8519.0,7340.0,-92.0,-37.0,35.0,7.0,8.0,-6.0,2604.0,1789.0,11489.0,11245.0,-32.0,-29.0,11.0,1.0
2022-05-03 17:32:43.987509-07:00,2068.5,597.9,1434.1,1732.0,1255.1,1597.4,1834.3,2169.7,3441.9,3449.1,2183.0,1618.1,1965.7,3443.1,1383.9,1627.5,3438.2,3444.3,763.7,1321.4,958.5,565.0,1858.6,1978.6,3449.1,3449.1,1242.6,1471.8,1182.3,1542.2,1325.0,1688.1,2.0,4.0,18.0,5689.0,10489.0,8497.0,7339.0,-13.0,-44.0,-19.0,10.0,2.0,-7.0,2613.0,1794.0,11482.0,11250.0,17.0,-15.0,-18.0,1.0
2022-05-03 17:32:44.018326-07:00,2068.5,597.9,1434.1,1732.0,1253.3,1588.9,1831.3,2172.8,3441.9,3449.1,2183.0,1618.1,1949.9,3449.1,1373.9,1614.3,3441.9,3443.1,757.9,1325.0,958.5,565.0,1858.6,1978.6,3443.1,3444.3,1246.2,1456.2,1182.3,1542.2,1325.0,1688.1,-3.0,-6.0,25.0,5701.0,10480.0,8494.0,7346.0,-29.0,20.0,-4.0,15.0,-5.0,6.0,2614.0,1797.0,11479.0,11252.0,-4.0,3.0,3.0,1.0
2022-05-03 17:32:44.077842-07:00,2072.5,593.1,1433.2,1731.1,1253.3,1588.9,1831.3,2172.8,3444.3,3440.7,2176.9,1606.8,1949.9,3449.1,1373.9,1614.3,3441.9,3443.1,757.9,1325.0,960.2,565.8,1846.9,1981.6,3443.1,3444.3,1246.2,1456.2,1181.5,1540.3,1316.9,1674.8,7.0,7.0,7.0,5702.0,10470.0,8490.0,7364.0,-13.0,24.0,-3.0,12.0,-6.0,-10.0,2610.0,1797.0,11475.0,11257.0,8.0,16.0,-3.0,1.0
2022-05-03 17:32:44.138504-07:00,2070.5,593.1,1433.2,1731.1,1248.0,1591.7,1834.3,2195.2,3438.2,3440.7,2176.9,1606.8,1938.0,3433.4,1374.8,1613.4,3429.8,3445.5,754.6,1323.2,960.2,565.8,1846.9,1984.6,3446.7,3449.1,1232.8,1456.2,1181.5,1540.3,1316.9,1656.8,-5.0,-17.0,-4.0,5700.0,10456.0,8503.0,7370.0,-2.0,28.0,-22.0,7.0,-8.0,-4.0,2602.0,1790.0,11481.0,11254.0,0.0,25.0,1.0,1.0
2022-05-03 17:32:44.168242-07:00,2070.5,598.7,1435.0,1733.9,1248.0,1591.7,1834.3,2186.0,3438.2,3450.4,2184.0,1611.5,1938.0,3433.4,1374.8,1617.1,3437.0,3445.5,754.6,1323.2,963.7,565.8,1835.2,1984.6,3440.7,3449.1,1232.8,1456.2,1183.2,1541.3,1325.0,1656.8,0.0,4.0,-4.0,5694.0,10452.0,8507.0,7376.0,-5.0,27.0,-5.0,8.0,4.0,-5.0,2598.0,1792.0,11485.0,11251.0,3.0,-1.0,12.0,1.0
2022-05-03 17:32:44.227885-07:00,2088.6,598.7,1435.0,1733.9,1256.9,1587.1,1823.6,2186.0,3441.9,3450.4,2184.0,1611.5,1927.2,3441.9,1369.4,1617.1,3437.0,3438.2,762.0,1321.4,963.7,565.8,1835.2,1975.6,3440.7,3449.1,1227.5,1443.3,1183.2,1541.3,1325.0,1640.7,-1.0,9.0,-2.0,5695.0,10450.0,8508.0,7376.0,-5.0,-15.0,-1.0,9.0,3.0,-3.0,2598.0,1793.0,11484.0,11252.0,1.0,-7.0,-3.0,1.0
2022-05-03 17:32:44.317638-07:00,2088.6,596.3,1433.2,1741.6,1256.9,1587.1,1823.6,2179.9,3441.9,3440.7,2171.8,1604.9,1927.2,3441.9,1369.4,1619.0,3444.3,3438.2,762.0,1321.4,958.5,568.2,1836.2,1975.6,3447.9,3449.1,1227.5,1443.3,1172.6,1537.6,1322.3,1640.7,0.0,-8.0,15.0,5700.0,10451.0,8504.0,7376.0,-15.0,5.0,5.0,9.0,-3.0,-7.0,2597.0,1793.0,11481.0,11254.0,-19.0,-8.0,4.0,1.0
2022-05-03 17:32:44.318771-07:00,2070.5,596.3,1433.2,1741.6,1261.3,1591.7,1820.7,2179.9,3437.0,3440.7,2171.8,1604.9,1929.2,3449.1,1366.6,1619.0,3444.3,3443.1,761.2,1315.1,958.5,568.2,1836.2,1977.6,3447.9,3443.1,1225.7,1445.1,1172.6,1537.6,1322.3,1628.4,4.0,1.0,5.0,5703.0,10443.0,8504.0,7385.0,-23.0,19.0,-16.0,12.0,-3.0,-2.0,2597.0,1793.0,11478.0,11257.0,-14.0,1.0,-4.0,1.0
2022-05-03 17:32:44.377832-07:00,2070.5,596.3,1435.0,1736.8,1261.3,1591.7,1820.7,2167.7,3437.0,3438.2,2180.9,1604.0,1929.2,3449.1,1366.6,1612.4,3441.9,3443.1,761.2,1315.1,957.7,569.8,1827.5,1977.6,3439.5,3443.1,1225.7,1445.1,1180.6,1540.3,1322.3,1628.4,4.0,11.0,6.0,5704.0,10435.0,8510.0,7389.0,-13.0,7.0,-11.0,10.0,13.0,1.0,2597.0,1794.0,11478.0,11257.0,-14.0,3.0,-6.0,1.0
