Time,P0,P1,P2,P3,P4,P5,P6,P7,P8,P9,P10,P11,P12,P13,P14,P15,P16,P17,P18,P19,P20,P21,P22,P23,P24,P25,P26,P27,P28,P29,P30,P31,ECG,AX0,AY0,AZ0,QW0,QX0,QY0,QZ0,GX0,GY0,GZ0,AX1,AY1,AZ1,QW1,QX1,QY1,QZ1,GX1,GY1,GZ1
2022-05-03 17:28:31.144567-07:00,1175.3,710.1,1151.5,1050.4,904.2,846.1,1800.3,1267.6,3471.0,3478.3,1152.4,929.6,1680.5,3462.5,1541.3,1409.4,3488.0,3484.4,1189.4,1785.8,2179.9,2906.6,1672.9,3501.4,3477.1,3481.9,685.6,962.8,1766.6,1124.4,1040.9,884.8,-1.0,-1.0,8.0,6599.0,-5748.0,10222.0,-9346.0,-1.0,-29.0,-8.0,2.0,4.0,7.0,9696.0,-13121.0,1223.0,-876.0,1.0,1.0,-6.0,1.0
2022-05-03 17:28:31.174643-07:00,1175.3,710.1,1151.5,1053.0,904.2,849.5,1807.1,1258.7,3471.0,3478.3,1152.4,916.9,1680.5,3475.9,1537.6,1414.9,3477.1,3478.3,1185.9,1785.8,2175.8,2906.6,1672.9,3501.4,3483.2,3478.3,688.9,962.8,1771.4,1124.4,1040.9,884.8,-4.0,-5.0,7.0,6613.0,-5756.0,10210.0,-9345.0,25.0,-52.0,-11.0,0.0,0.0,11.0,9700.0,-13118.0,1223.0,-876.0,22.0,-10.0,-5.0,1.0
2022-05-03 17:28:31.234645-07:00,1175.3,713.4,1142.7,1053.0,905.0,849.5,1807.1,1258.7,3468.6,3472.2,1155.9,916.9,1681.4,3475.9,1537.6,1414.9,3477.1,3478.3,1185.9,1782.0,2175.8,2900.9,1669.1,3489.2,3483.2,3478.3,688.9,957.7,1771.4,1121.7,1038.3,881.4,-4.0,-12.0,17.0,6627.0,-5766.0,10198.0,-9342.0,0.0,-31.0,-1.0,0.0,0.0,7.0,9708.0,-13113.0,1220.0,-875.0,17.0,-12.0,-9.0,1.0
2022-05-03 17:28:31.324591-07:00,1175.3,713.4,1142.7,1053.0,905.0,848.6,1805.2,1247.1,3468.6,3472.2,1155.9,918.6,1681.4,3475.9,1534.8,1414.0,3469.8,3475.9,1191.2,1782.0,2184.0,2900.9,1669.1,3489.2,3477.1,3471.0,690.5,957.7,1764.6,1121.7,1038.3,881.4,-2.0,5.0,15.0,6637.0,-5768.0,10189.0,-9343.0,9.0,-24.0,-2.0,5.0,4.0,14.0,9709.0,-13112.0,1219.0,-875.0,-12.0,14.0,2.0,1.0
2022-05-03 17:28:31.355347-07:00,1178.8,720.8,1152.4,1053.0,900.0,848.6,1805.2,1247.1,3472.2,3475.9,1151.5,918.6,1671.9,3475.9,1534.8,1414.0,3469.8,3475.9,1191.2,1774.3,2184.0,2893.0,1671.0,3496.6,3477.1,3471.0,690.5,956.0,1764.6,1124.4,1047.8,889.8,-7.0,-12.0,13.0,6637.0,-5774.0,10183.0,-9346.0,-8.0,0.0,-16.0,0.0,0.0,11.0,9704.0,-13115.0,1222.0,-879.0,8.0,-4.0,-12.0,1.0
2022-05-03 17:28:31.414577-07:00,1178.8,720.8,1152.4,1054.8,901.7,851.1,1813.9,1251.5,3472.2,3475.9,1151.5,918.6,1679.5,3479.5,1529.2,1411.3,3488.0,3478.3,1189.4,1784.9,2183.0,2893.0,1671.0,3496.6,3473.4,3477.1,692.9,952.6,1767.5,1124.4,1047.8,889.8,-3.0,-3.0,12.0,6637.0,-5774.0,10181.0,-9348.0,3.0,-6.0,4.0,7.0,4.0,9.0,9704.0,-13114.0,1226.0,-885.0,10.0,19.0,-3.0,1.0
2022-05-03 17:28:31.445187-07:00,1175.3,711.0,1155.9,1056.5,901.7,851.1,1813.9,1251.5,3478.3,3477.1,1148.9,922.0,1679.5,3479.5,1529.2,1411.3,3488.0,3478.3,1189.4,1784.9,2175.8,2900.9,1663.4,3497.8,3473.4,3477.1,692.9,952.6,1772.3,1116.5,1039.2,890.7,0.0,-3.0,7.0,6638.0,-5772.0,10181.0,-9349.0,-9.0,12.0,3.0,7.0,4.0,4.0,9703.0,-13114.0,1230.0,-890.0,-14.0,15.0,4.0,1.0
2022-05-03 17:28:31.474608-07:00,1175.3,711.0,1155.9,1056.5,911.0,850.3,1802.3,1259.6,3478.3,3477.1,1148.9,922.0,1681.4,3467.4,1537.6,1412.2,3480.7,3475.9,1184.1,1783.9,2175.8,2900.9,1663.4,3497.8,3488.0,3478.3,692.9,955.1,1772.3,1116.5,1039.2,890.7,-7.0,0.0,3.0,6631.0,-5771.0,10187.0,-9348.0,-17.0,15.0,3.0,1.0,0.0,9.0,9700.0,-13116.0,1231.0,-891.0,4.0,2.0,1.0,1.0
2022-05-03 17:28:31.505295-07:00,1175.3,711.0,1155.9,1051.3,911.0,850.3,1802.3,1259.6,3469.8,3475.9,1144.5,922.0,1681.4,3467.4,1537.6,1412.2,3480.7,3475.9,1184.1,1783.9,2183.0,2906.6,1656.8,3490.5,3488.0,3478.3,692.9,955.1,1759.8,1123.5,1040.1,886.5,0.0,-4.0,11.0,6632.0,-5771.0,10187.0,-9348.0,16.0,-1.0,-8.0,0.0,1.0,4.0,9702.0,-13114.0,1230.0,-892.0,35.0,-6.0,-14.0,1.0
2022-05-03 17:28:31.564866-07:00,1175.3,711.0,1155.9,1051.3,900.8,847.8,1804.2,1260.4,3469.8,3475.9,1144.5,922.0,1671.9,3478.3,1535.7,1412.2,3480.7,3486.8,1192.0,1781.0,2183.0,2906.6,1656.8,3490.5,3477.1,3484.4,686.4,961.1,1759.8,1123.5,1040.1,886.5,-5.0,0.0,7.0,6634.0,-5760.0,10178.0,-9362.0,44.0,5.0,-5.0,0.0,1.0,12.0,9713.0,-13107.0,1226.0,-895.0,8.0,9.0,-8.0,1.0
2022-05-03 17:28:31.624589-07:00,1176.2,711.0,1155.9,1041.8,900.8,847.8,1804.2,1261.3,3481.9,3472.2,1150.6,921.1,1671.9,3478.3,1535.7,1411.3,3477.1,3486.8,1192.0,1781.0,2178.9,2895.3,1665.3,3500.2,3478.3,3484.4,686.4,961.1,1768.5,1124.4,1043.5,887.3,-4.0,-2.0,6.0,6638.0,-5757.0,10173.0,-9368.0,11.0,-8.0,-10.0,0.0,1.0,10.0,9713.0,-13107.0,1224.0,-896.0,6.0,-7.0,-18.0,1.0
2022-05-03 17:28:31.684619-07:00,1167.4,711.0,1155.9,1041.8,908.4,844.4,1818.7,1261.3,3467.4,3472.2,1150.6,921.1,1680.5,3477.1,1532.9,1411.3,3477.1,3471.0,1185.0,1782.9,2178.9,2895.3,1665.3,3496.6,3478.3,3484.4,689.7,945.8,1768.5,1124.4,1043.5,890.7,1.0,-5.0,9.0,6645.0,-5758.0,10163.0,-9372.0,26.0,-22.0,-6.0,2.0,2.0,6.0,9720.0,-13102.0,1216.0,-903.0,34.0,2.0,-22.0,1.0
2022-05-03 17:28:31.714754-07:00,1167.4,711.8,1154.2,1049.6,908.4,844.4,1818.7,1264.0,3467.4,3479.5,1149.8,922.0,1680.5,3477.1,1532.9,1409.4,3488.0,3471.0,1185.0,1782.9,2178.9,2893.0,1653.0,3496.6,3483.2,3484.4,689.7,945.8,1754.1,1118.2,1038.3,890.7,2.0,-4.0,16.0,6648.0,-5754.0,10157.0,-9379.0,18.0,21.0,-4.0,9.0,0.0,15.0,9731.0,-13094.0,1208.0,-910.0,36.0,3.0,-14.0,1.0
2022-05-03 17:28:31.774610-07:00,1178.8,711.8,1154.2,1049.6,913.5,845.3,1802.3,1264.0,3475.9,3479.5,1149.8,922.0,1675.7,3479.5,1532.0,1409.4,3488.0,3480.7,1184.1,1787.8,2178.9,2893.0,1653.0,3497.8,3483.2,3481.9,688.9,956.0,1754.1,1118.2,1038.3,894.1,0.0,0.0,8.0,6647.0,-5743.0,10153.0,-9391.0,14.0,26.0,-2.0,5.0,3.0,9.0,9739.0,-13088.0,1209.0,-915.0,11.0,13.0,0.0,1.0
2022-05-03 17:28:31.834591-07:00,1178.8,712.6,1149.8,1048.7,913.5,845.3,1802.3,1262.2,3475.9,3478.3,1148.9,922.8,1675.7,3479.5,1532.0,1412.2,3480.7,3480.7,1184.1,1787.8,2179.9,2895.3,1661.5,3497.8,3480.7,3481.9,688.9,956.0,1763.7,1120.9,1033.2,894.1,-10.0,-2.0,5.0,6637.0,-5740.0,10158.0,-9394.0,-16.0,34.0,-12.0,0.0,1.0,9.0,9739.0,-13088.0,1210.0,-917.0,-8.0,3.0,-3.0,1.0
2022-05-03 17:28:31.865055-07:00,1170.0,712.6,1149.8,1048.7,911.0,837.7,1796.5,1262.2,3471.0,3478.3,1148.9,922.8,1672.9,3474.6,1532.0,1412.2,3480.7,3485.6,1184.1,1777.2,2179.9,2895.3,1661.5,3501.4,3480.7,3488.0,700.3,956.8,1763.7,1120.9,1033.2,889.8,-3.0,1.0,1.0,6632.0,-5738.0,10163.0,-9394.0,-14.0,5.0,-8.0,1.0,4.0,7.0,9735.0,-13090.0,1211.0,-918.0,-17.0,10.0,-8.0,1.0
2022-05-03 17:28:31.984678-07:00,1170.0,711.8,1170.0,1045.2,911.0,837.7,1789.7,1256.0,3471.0,3473.4,1151.5,924.5,1672.9,3474.6,1531.0,1407.6,3483.2,3483.2,1184.1,1777.2,2179.9,2913.3,1651.1,3501.4,3480.7,3474.6,700.3,956.8,1756.0,1114.7,1039.2,889.8,-3.0,-1.0,9.0,6627.0,-5744.0,10164.0,-9393.0,3.0,7.0,-22.0,2.0,0.0,13.0,9733.0,-13092.0,1205.0,-923.0,7.0,1.0,-25.0,1.0
2022-05-03 17:28:31.985895-07:00,1170.9,709.3,1170.0,1045.2,905.9,846.1,1789.7,1256.0,3478.3,3473.4,1151.5,924.5,1671.9,3474.6,1531.0,1407.6,3483.2,3483.2,1185.0,1782.0,2179.9,2913.3,1645.4,3496.6,3480.7,3474.6,689.7,950.0,1756.0,1114.7,1037.5,888.2,0.0,-6.0,10.0,6622.0,-5750.0,10156.0,-9401.0,8.0,-10.0,-30.0,4.0,3.0,7.0,9733.0,-13093.0,1195.0,-930.0,-4.0,2.0,-28.0,1.0
2022-05-03 17:28:32.044594-07:00,1170.9,709.3,1157.7,1053.0,905.9,846.1,1800.3,1259.6,3478.3,3473.4,1146.3,915.2,1671.9,3474.6,1537.6,1408.5,3478.3,3483.2,1185.0,1782.0,2172.8,2897.5,1645.4,3496.6,3477.1,3488.0,689.7,950.0,1762.7,1116.5,1037.5,888.2,2.0,-6.0,13.0,6618.0,-5757.0,10152.0,-9404.0,6.0,0.0,-16.0,8.0,1.0,5.0,9732.0,-13093.0,1187.0,-935.0,0.0,-5.0,-17.0,1.0
2022-05-03 17:28:32.074566-07:00,1171.8,714.2,1157.7,1053.0,899.1,846.1,1800.3,1259.6,3471.0,3481.9,1146.3,915.2,1675.7,3469.8,1537.6,1408.5,3478.3,3483.2,1183.2,1781.0,2172.8,2897.5,1652.0,3489.2,3477.1,3488.0,685.6,949.2,1762.7,1116.5,1039.2,885.6,0.0,2.0,8.0,6618.0,-5755.0,10148.0,-9409.0,15.0,-1.0,-9.0,6.0,5.0,9.0,9734.0,-13092.0,1185.0,-937.0,-1.0,-5.0,-4.0,1.0
2022-05-03 17:28:32.105141-07:00,1171.8,714.2,1149.8,1042.6,899.1,846.1,1800.3,1271.2,3471.0,3481.9,1148.9,915.2,1675.7,3469.8,1533.8,1414.0,3473.4,3479.5,1183.2,1781.0,2185.0,2887.4,1652.0,3489.2,3481.9,3479.5,685.6,949.2,1763.7,1117.4,1039.2,885.6,-4.0,-10.0,11.0,6614.0,-5761.0,10149.0,-9408.0,-10.0,-8.0,-10.0,3.0,-1.0,5.0,9734.0,-13092.0,1185.0,-936.0,-1.0,-12.0,-8.0,1.0
2022-05-03 17:28:32.164664-07:00,1170.9,707.7,1152.4,1042.6,905.0,847.8,1800.3,1271.2,3467.4,3478.3,1146.3,915.2,1688.1,3478.3,1533.8,1414.0,3473.4,3479.5,1181.5,1776.2,2185.0,2893.0,1650.2,3502.7,3481.9,3479.5,689.7,948.3,1763.7,1121.7,1034.9,884.8,-5.0,0.0,7.0,6617.0,-5760.0,10146.0,-9410.0,22.0,-4.0,1.0,4.0,0.0,9.0,9740.0,-13088.0,1181.0,-936.0,20.0,-4.0,-11.0,1.0
2022-05-03 17:28:32.225205-07:00,1170.9,707.7,1152.4,1048.7,905.0,846.1,1795.5,1252.4,3467.4,3478.3,1146.3,924.5,1688.1,3473.4,1527.3,1412.2,3483.2,3480.7,1185.9,1776.2,2174.8,2893.0,1650.2,3502.7,3485.6,3477.1,682.3,948.3,1759.8,1121.7,1034.9,884.8,-4.0,-6.0,10.0,6619.0,-5764.0,10139.0,-9413.0,-2.0,-12.0,-14.0,2.0,1.0,7.0,9741.0,-13087.0,1177.0,-938.0,-5.0,-4.0,-11.0,1.0
2022-05-03 17:28:32.254699-07:00,1169.1,705.2,1155.9,1048.7,904.2,846.1,1795.5,1252.4,3478.3,3475.9,1146.3,924.5,1673.8,3473.4,1527.3,1412.2,3483.2,3480.7,1185.9,1784.9,2174.8,2902.0,1646.4,3496.6,3485.6,3477.1,682.3,950.9,1759.8,1120.0,1038.3,884.8,-1.0,-1.0,13.0,6621.0,-5765.0,10136.0,-9414.0,20.0,-6.0,-5.0,5.0,0.0,9.0,9742.0,-13087.0,1175.0,-940.0,6.0,-5.0,-12.0,1.0
2022-05-03 17:28:32.314782-07:00,1169.1,705.2,1155.9,1052.2,904.2,844.4,1799.4,1260.4,3478.3,3475.9,1146.3,922.8,1673.8,3467.4,1528.3,1414.0,3483.2,3478.3,1181.5,1784.9,2172.8,2902.0,1646.4,3496.6,3484.4,3477.1,688.9,950.9,1760.8,1120.0,1038.3,884.8,2.0,-4.0,17.0,6621.0,-5765.0,10131.0,-9419.0,5.0,9.0,-11.0,6.0,2.0,7.0,9742.0,-13087.0,1174.0,-941.0,-3.0,0.0,-6.0,1.0
2022-05-03 17:28:32.374710-07:00,1169.1,709.3,1150.6,1052.2,903.4,844.4,1799.4,1260.4,3472.2,3473.4,1146.3,922.8,1676.7,3467.4,1528.3,1414.0,3483.2,3478.3,1181.5,1781.0,2172.8,2891.9,1640.7,3499.0,3484.4,3477.1,688.9,949.2,1760.8,1120.9,1033.2,883.1,8.0,1.0,14.0,6613.0,-5757.0,10136.0,-9424.0,7.0,34.0,-2.0,9.0,0.0,10.0,9742.0,-13087.0,1174.0,-941.0,2.0,-6.0,5.0,1.0
2022-05-03 17:28:32.404797-07:00,1169.1,709.3,1150.6,1049.6,903.4,842.8,1786.8,1267.6,3472.2,3473.4,1146.3,922.0,1676.7,3484.4,1518.0,1418.6,3477.1,3478.3,1185.0,1781.0,2182.0,2891.9,1640.7,3499.0,3488.0,3475.9,684.0,949.2,1758.9,1120.9,1033.2,883.1,-7.0,-3.0,7.0,6601.0,-5745.0,10144.0,-9433.0,11.0,51.0,-3.0,3.0,8.0,15.0,9744.0,-13085.0,1173.0,-940.0,6.0,-2.0,9.0,1.0
2022-05-03 17:28:32.464568-07:00,1173.5,714.2,1166.5,1055.6,900.0,842.8,1786.8,1267.6,3469.8,3478.3,1146.3,921.1,1674.8,3484.4,1518.0,1418.6,3477.1,3478.3,1185.0,1781.0,2173.8,2899.8,1637.9,3500.2,3488.0,3475.9,684.0,950.0,1756.0,1118.2,1039.2,885.6,0.0,-5.0,3.0,6598.0,-5743.0,10146.0,-9433.0,-23.0,-4.0,0.0,2.0,3.0,8.0,9739.0,-13089.0,1178.0,-939.0,-24.0,2.0,9.0,1.0
2022-05-03 17:28:32.524574-07:00,1173.5,714.2,1166.5,1055.6,902.5,847.8,1792.6,1266.7,3469.8,3478.3,1146.3,921.1,1671.0,3479.5,1530.1,1404.9,3481.9,3474.6,1177.9,1776.2,2173.8,2899.8,1637.9,3500.2,3478.3,3483.2,679.1,944.9,1756.0,1118.2,1039.2,885.6,0.0,-5.0,8.0,6597.0,-5743.0,10151.0,-9429.0,9.0,1.0,13.0,3.0,2.0,11.0,9740.0,-13089.0,1175.0,-935.0,17.0,-10.0,0.0,1.0
2022-05-03 17:28:32.554733-07:00,1170.0,705.2,1155.9,1053.9,902.5,847.8,1792.6,1266.7,3467.4,3467.4,1143.6,920.3,1671.0,3479.5,1530.1,1404.9,3481.9,3474.6,1177.9,1776.2,2176.9,2894.1,1639.8,3494.1,3478.3,3483.2,679.1,944.9,1757.9,1118.2,1036.6,884.8,-6.0,0.0,14.0,6599.0,-5741.0,10153.0,-9426.0,-18.0,-3.0,5.0,6.0,0.0,12.0,9743.0,-13086.0,1174.0,-935.0,-10.0,2.0,2.0,1.0
2022-05-03 17:28:32.615087-07:00,1170.0,705.2,1155.9,1053.9,905.0,841.9,1800.3,1250.6,3467.4,3467.4,1143.6,920.3,1682.4,3468.6,1528.3,1396.7,3477.1,3479.5,1178.8,1776.2,2176.9,2894.1,1639.8,3494.1,3475.9,3479.5,687.2,944.1,1757.9,1118.2,1036.6,884.8,0.0,0.0,8.0,6601.0,-5746.0,10153.0,-9422.0,-3.0,-10.0,-9.0,5.0,1.0,9.0,9735.0,-13092.0,1176.0,-935.0,-22.0,9.0,1.0,1.0
2022-05-03 17:28:32.674630-07:00,1168.2,706.9,1155.9,1046.1,905.0,841.9,1800.3,1250.6,3474.6,3471.0,1145.4,916.9,1682.4,3468.6,1528.3,1396.7,3477.1,3479.5,1178.8,1776.2,2176.9,2895.3,1638.8,3501.4,3475.9,3479.5,687.2,944.1,1755.0,1111.2,1040.1,888.2,-1.0,-6.0,11.0,6599.0,-5749.0,10151.0,-9423.0,4.0,3.0,-7.0,5.0,0.0,6.0,9735.0,-13093.0,1176.0,-936.0,11.0,-5.0,1.0,1.0
2022-05-03 17:28:32.734752-07:00,1170.9,706.9,1155.9,1046.1,906.7,846.1,1792.6,1251.5,3478.3,3471.0,1145.4,916.9,1678.6,3468.6,1527.3,1412.2,3481.9,3485.6,1177.0,1781.0,2176.9,2895.3,1638.8,3486.8,3485.6,3479.5,680.7,947.5,1755.0,1111.2,1040.1,881.4,-3.0,0.0,10.0,6599.0,-5749.0,10151.0,-9423.0,-3.0,-7.0,5.0,0.0,2.0,10.0,9736.0,-13091.0,1176.0,-936.0,-8.0,1.0,7.0,1.0
2022-05-03 17:28:32.764751-07:00,1170.9,710.1,1149.8,1047.8,906.7,846.1,1792.6,1258.7,3478.3,3473.4,1146.3,916.9,1678.6,3468.6,1527.3,1414.0,3484.4,3485.6,1177.0,1781.0,2166.7,2900.9,1634.1,3486.8,3481.9,3479.5,680.7,947.5,1758.9,1119.1,1042.6,881.4,-2.0,-8.0,15.0,6598.0,-5747.0,10152.0,-9425.0,11.0,14.0,-5.0,5.0,1.0,10.0,9736.0,-13092.0,1176.0,-936.0,2.0,-1.0,1.0,1.0
2022-05-03 17:28:32.855285-07:00,1173.5,710.1,1149.8,1047.8,904.2,842.8,1789.7,1258.7,3467.4,3473.4,1146.3,916.9,1672.9,3475.9,1522.7,1414.0,3484.4,3480.7,1185.0,1774.3,2166.7,2900.9,1634.1,3502.7,3481.9,3477.1,683.1,948.3,1758.9,1119.1,1042.6,880.6,-3.0,0.0,13.0,6595.0,-5747.0,10154.0,-9424.0,-23.0,6.0,4.0,4.0,2.0,11.0,9732.0,-13095.0,1176.0,-936.0,-23.0,3.0,6.0,1.0
2022-05-03 17:28:32.885137-07:00,1173.5,703.6,1159.4,1053.0,904.2,842.8,1789.7,1264.9,3467.4,3475.9,1149.8,923.7,1672.9,3475.9,1522.7,1409.4,3477.1,3480.7,1185.0,1774.3,2170.7,2891.9,1638.8,3502.7,3483.2,3477.1,683.1,948.3,1757.0,1117.4,1035.7,880.6,2.0,-2.0,8.0,6595.0,-5747.0,10154.0,-9423.0,18.0,-4.0,-3.0,2.0,0.0,7.0,9729.0,-13096.0,1177.0,-936.0,6.0,3.0,1.0,1.0
2022-05-03 17:28:32.914608-07:00,1168.2,703.6,1159.4,1053.0,905.0,841.1,1793.6,1264.9,3478.3,3475.9,1149.8,923.7,1667.2,3477.1,1530.1,1409.4,3477.1,3488.0,1185.9,1771.4,2170.7,2891.9,1638.8,3501.4,3483.2,3477.1,684.8,932.2,1757.0,1117.4,1035.7,880.6,-1.0,-3.0,11.0,6596.0,-5746.0,10154.0,-9424.0,-7.0,-3.0,2.0,6.0,2.0,10.0,9729.0,-13096.0,1177.0,-936.0,-3.0,-4.0,1.0,1.0
2022-05-03 17:28:32.974599-07:00,1168.2,701.9,1155.0,1043.5,905.0,841.1,1793.6,1259.6,3478.3,3469.8,1146.3,916.0,1667.2,3477.1,1530.1,1406.7,3478.3,3488.0,1185.9,1771.4,2180.9,2898.7,1634.1,3501.4,3488.0,3477.1,684.8,932.2,1760.8,1116.5,1029.7,880.6,-2.0,0.0,9.0,6596.0,-5746.0,10154.0,-9424.0,1.0,-7.0,0.0,3.0,4.0,11.0,9729.0,-13096.0,1177.0,-936.0,-1.0,1.0,4.0,1.0
2022-05-03 17:28:33.005130-07:00,1168.2,705.2,1155.0,1043.5,902.5,843.6,1791.6,1259.6,3475.9,3466.1,1146.3,916.0,1672.9,3468.6,1527.3,1406.7,3478.3,3475.9,1182.3,1767.5,2180.9,2898.7,1636.9,3491.7,3488.0,3480.7,679.9,939.8,1760.8,1116.5,1036.6,883.1,-6.0,0.0,11.0,6596.0,-5746.0,10154.0,-9424.0,0.0,-2.0,0.0,3.0,1.0,11.0,9729.0,-13096.0,1177.0,-936.0,-7.0,-2.0,0.0,1.0
2022-05-03 17:28:33.094586-07:00,1168.2,705.2,1158.6,1048.7,902.5,843.6,1787.8,1280.1,3475.9,3466.1,1146.3,920.3,1672.9,3468.6,1521.8,1407.6,3485.6,3483.2,1182.3,1767.5,2178.9,2895.3,1636.9,3491.7,3488.0,3479.5,679.9,939.8,1752.1,1119.1,1036.6,883.1,-4.0,-6.0,11.0,6597.0,-5750.0,10151.0,-9424.0,-3.0,-7.0,-12.0,4.0,0.0,8.0,9728.0,-13097.0,1177.0,-936.0,-9.0,-1.0,-4.0,1.0
2022-05-03 17:28:33.124814-07:00,1170.0,705.2,1158.6,1048.7,901.7,844.4,1787.8,1280.1,3469.8,3472.2,1146.3,920.3,1671.0,3473.4,1521.8,1407.6,3485.6,3483.2,1177.9,1788.7,2178.9,2895.3,1635.0,3495.3,3488.0,3479.5,679.1,946.6,1752.1,1119.1,1037.5,883.1,3.0,0.0,12.0,6600.0,-5752.0,10149.0,-9423.0,1.0,4.0,2.0,4.0,4.0,8.0,9731.0,-13095.0,1177.0,-936.0,8.0,-6.0,-4.0,1.0
2022-05-03 17:28:33.154727-07:00,1170.0,705.2,1154.2,1050.4,901.7,844.4,1786.8,1267.6,3469.8,3472.2,1150.6,927.1,1671.0,3473.4,1520.8,1406.7,3472.2,3485.6,1177.9,1788.7,2174.8,2891.9,1635.0,3495.3,3478.3,3481.9,679.1,946.6,1758.9,1116.5,1037.5,883.1,0.0,-3.0,13.0,6599.0,-5752.0,10150.0,-9422.0,3.0,3.0,-3.0,3.0,0.0,10.0,9731.0,-13095.0,1176.0,-936.0,-10.0,2.0,5.0,1.0
2022-05-03 17:28:33.244687-07:00,1168.2,709.3,1154.2,1050.4,902.5,843.6,1786.8,1267.6,3477.1,3488.0,1150.6,927.1,1677.6,3474.6,1520.8,1406.7,3472.2,3485.6,1185.9,1774.3,2174.8,2891.9,1635.0,3497.8,3478.3,3481.9,682.3,943.2,1758.9,1116.5,1036.6,889.8,-1.0,0.0,5.0,6598.0,-5747.0,10149.0,-9427.0,14.0,9.0,7.0,5.0,0.0,10.0,9730.0,-13096.0,1177.0,-935.0,-1.0,12.0,10.0,1.0
2022-05-03 17:28:33.274605-07:00,1168.2,709.3,1162.1,1043.5,902.5,842.8,1799.4,1249.7,3477.1,3488.0,1147.1,916.9,1677.6,3473.4,1518.0,1401.2,3475.9,3479.5,1185.9,1774.3,2175.8,2890.8,1635.0,3497.8,3483.2,3481.9,686.4,943.2,1762.7,1122.6,1036.6,889.8,-7.0,-2.0,13.0,6593.0,-5740.0,10155.0,-9429.0,-2.0,17.0,10.0,5.0,4.0,11.0,9732.0,-13094.0,1178.0,-935.0,-1.0,3.0,10.0,1.0
2022-05-03 17:28:33.304844-07:00,1169.1,712.6,1161.2,1043.5,901.7,842.8,1799.4,1249.7,3475.9,3469.8,1139.2,916.9,1676.7,3473.4,1518.0,1401.2,3475.9,3479.5,1185.9,1787.8,2175.8,2895.3,1629.4,3497.8,3483.2,3481.9,686.4,939.8,1762.7,1111.2,1033.2,887.3,-4.0,0.0,5.0,6593.0,-5739.0,10157.0,-9427.0,-16.0,4.0,-5.0,2.0,2.0,11.0,9732.0,-13094.0,1181.0,-934.0,-3.0,-7.0,-2.0,1.0
2022-05-03 17:28:33.395318-07:00,1169.1,712.6,1161.2,1047.8,901.7,843.6,1786.8,1260.4,3475.9,3469.8,1139.2,926.2,1676.7,3478.3,1518.0,1408.5,3479.5,3479.5,1179.7,1787.8,2170.7,2895.3,1629.4,3497.8,3481.9,3475.9,679.9,939.8,1760.8,1111.2,1033.2,887.3,-3.0,-2.0,14.0,6593.0,-5738.0,10156.0,-9429.0,28.0,-2.0,7.0,4.0,1.0,8.0,9734.0,-13093.0,1180.0,-933.0,9.0,2.0,0.0,1.0
2022-05-03 17:28:33.425173-07:00,1166.5,705.2,1143.6,1047.8,902.5,843.6,1786.8,1260.4,3468.6,3473.4,1145.4,926.2,1674.8,3478.3,1518.0,1408.5,3479.5,3479.5,1179.7,1775.2,2170.7,2895.3,1627.5,3500.2,3481.9,3475.9,679.9,938.1,1760.8,1116.5,1034.9,890.7,0.0,-4.0,9.0,6596.0,-5742.0,10153.0,-9427.0,-16.0,-18.0,-10.0,3.0,2.0,6.0,9732.0,-13094.0,1180.0,-933.0,-4.0,-4.0,2.0,1.0
2022-05-03 17:28:33.454657-07:00,1166.5,705.2,1143.6,1047.8,902.5,848.6,1781.0,1261.3,3468.6,3473.4,1145.4,919.4,1674.8,3478.3,1514.3,1408.5,3483.2,3478.3,1181.5,1775.2,2167.7,2895.3,1627.5,3500.2,3478.3,3480.7,686.4,938.1,1756.0,1116.5,1034.9,890.7,-3.0,0.0,11.0,6600.0,-5743.0,10150.0,-9428.0,17.0,-5.0,1.0,5.0,1.0,7.0,9733.0,-13094.0,1180.0,-932.0,9.0,-7.0,-1.0,1.0
2022-05-03 17:28:33.544664-07:00,1167.4,708.5,1157.7,1047.8,908.4,848.6,1781.0,1261.3,3478.3,3474.6,1154.2,919.4,1678.6,3478.3,1514.3,1408.5,3483.2,3478.3,1181.5,1777.2,2167.7,2898.7,1621.8,3494.1,3478.3,3480.7,686.4,946.6,1756.0,1120.0,1031.4,882.3,-2.0,-8.0,13.0,6599.0,-5743.0,10150.0,-9427.0,-4.0,-3.0,-5.0,3.0,2.0,6.0,9733.0,-13094.0,1180.0,-932.0,-5.0,4.0,2.0,1.0
2022-05-03 17:28:33.635422-07:00,1167.4,708.5,1157.7,1047.8,900.0,847.0,1785.8,1254.2,3478.3,3474.6,1154.2,918.6,1672.9,3481.9,1519.9,1407.6,3481.9,3486.8,1182.3,1777.2,2176.9,2898.7,1621.8,3494.1,3486.8,3480.7,680.7,944.9,1759.8,1120.0,1031.4,882.3,-3.0,0.0,8.0,6601.0,-5742.0,10148.0,-9429.0,10.0,1.0,-1.0,4.0,1.0,13.0,9733.0,-13094.0,1180.0,-932.0,7.0,3.0,1.0,1.0
2022-05-03 17:28:33.664651-07:00,1165.6,708.5,1150.6,1046.1,900.0,847.0,1785.8,1254.2,3478.3,3478.3,1142.7,922.0,1672.9,3481.9,1519.9,1407.6,3481.9,3486.8,1182.3,1777.2,2169.7,2897.5,1629.4,3501.4,3486.8,3480.7,680.7,944.9,1759.8,1111.2,1029.7,879.7,2.0,-6.0,13.0,6600.0,-5742.0,10148.0,-9430.0,5.0,-2.0,-8.0,1.0,3.0,7.0,9733.0,-13094.0,1180.0,-932.0,-1.0,-5.0,2.0,1.0
2022-05-03 17:28:33.695112-07:00,1165.6,708.5,1150.6,1046.1,896.6,847.0,1784.9,1255.1,3478.3,3478.3,1142.7,922.0,1673.8,3472.2,1525.5,1406.7,3479.5,3479.5,1183.2,1767.5,2169.7,2897.5,1629.4,3501.4,3483.2,3480.7,672.5,939.0,1759.8,1111.2,1029.7,879.7,-9.0,-3.0,10.0,6601.0,-5732.0,10141.0,-9443.0,68.0,25.0,-11.0,1.0,7.0,16.0,9739.0,-13090.0,1178.0,-931.0,24.0,-5.0,6.0,1.0
2022-05-03 17:28:33.696100-07:00,1165.6,705.2,1157.7,1041.8,896.6,847.0,1784.9,1255.1,3478.3,3474.6,1143.6,923.7,1673.8,3472.2,1525.5,1406.7,3479.5,3479.5,1183.2,1767.5,2172.8,2888.5,1632.2,3496.6,3483.2,3480.7,672.5,939.0,1759.8,1118.2,1034.9,881.4,0.0,-8.0,10.0,6600.0,-5729.0,10136.0,-9451.0,-16.0,14.0,-8.0,4.0,2.0,8.0,9738.0,-13090.0,1179.0,-930.0,-12.0,-4.0,10.0,1.0
2022-05-03 17:28:33.755283-07:00,1165.6,705.2,1157.7,1041.8,903.4,845.3,1788.7,1259.6,3478.3,3474.6,1143.6,923.7,1670.1,3478.3,1520.8,1410.3,3475.9,3480.7,1172.6,1778.1,2172.8,2888.5,1632.2,3496.6,3483.2,3486.8,653.8,944.9,1759.8,1118.2,1034.9,881.4,-5.0,-3.0,9.0,6601.0,-5725.0,10137.0,-9452.0,11.0,-1.0,12.0,4.0,0.0,10.0,9738.0,-13090.0,1184.0,-927.0,-6.0,-1.0,16.0,1.0
2022-05-03 17:28:33.845360-07:00,1169.1,711.0,1154.2,1050.4,903.4,845.3,1788.7,1254.2,3483.2,3471.0,1146.3,921.1,1670.1,3478.3,1520.8,1403.0,3480.7,3480.7,1172.6,1778.1,2176.9,2888.5,1628.4,3496.6,3478.3,3486.8,653.8,944.9,1764.6,1116.5,1033.2,883.1,0.0,-4.0,4.0,6608.0,-5731.0,10133.0,-9447.0,-8.0,-32.0,4.0,4.0,4.0,5.0,9738.0,-13090.0,1190.0,-921.0,-12.0,-5.0,18.0,1.0
2022-05-03 17:28:33.846600-07:00,1172.6,711.0,1154.2,1050.4,902.5,841.1,1784.9,1254.2,3477.1,3471.0,1146.3,921.1,1671.0,3479.5,1516.2,1403.0,3480.7,3471.0,1180.6,1771.4,2176.9,2888.5,1628.4,3502.7,3478.3,3467.4,678.2,939.8,1764.6,1116.5,1033.2,881.4,0.0,-5.0,9.0,6618.0,-5738.0,10126.0,-9443.0,16.0,-30.0,9.0,3.0,4.0,6.0,9743.0,-13087.0,1190.0,-915.0,31.0,-16.0,8.0,1.0
2022-05-03 17:28:33.905086-07:00,1172.6,703.6,1149.8,1047.8,902.5,841.1,1784.9,1253.3,3477.1,3477.1,1156.8,917.7,1671.0,3479.5,1516.2,1402.1,3484.4,3471.0,1180.6,1771.4,2170.7,2891.9,1624.7,3502.7,3484.4,3467.4,678.2,939.8,1757.9,1114.7,1034.0,881.4,-30.0,-94.0,32.0,6621.0,-5718.0,10129.0,-9450.0,87.0,59.0,100.0,-2.0,-40.0,17.0,9763.0,-13072.0,1188.0,-907.0,45.0,19.0,36.0,1.0
2022-05-03 17:28:33.994625-07:00,1167.4,703.6,1149.8,1047.8,905.9,846.1,1781.0,1253.3,3472.2,3477.1,1156.8,917.7,1668.2,3485.6,1519.0,1402.1,3484.4,3480.7,1181.5,1771.4,2170.7,2891.9,1624.7,3491.7,3484.4,3481.9,687.2,979.9,1757.9,1114.7,1034.0,880.6,0.0,-84.0,44.0,6789.0,-5465.0,9970.0,-9647.0,1342.0,140.0,352.0,-8.0,-18.0,-18.0,9933.0,-12943.0,1206.0,-902.0,724.0,-47.0,113.0,1.0
2022-05-03 17:28:33.995614-07:00,1167.4,714.2,1149.8,1046.1,905.9,846.1,1781.0,1276.5,3472.2,3478.3,1155.0,918.6,1668.2,3485.6,1519.0,1426.8,3467.4,3480.7,1181.5,1771.4,2166.7,2897.5,1645.4,3491.7,3477.1,3481.9,687.2,979.9,1753.1,1121.7,1033.2,880.6,-16.0,49.0,48.0,6967.0,-5010.0,9713.0,-10023.0,1267.0,492.0,279.0,9.0,26.0,56.0,10223.0,-12717.0,1193.0,-876.0,778.0,-73.0,46.0,1.0
2022-05-03 17:28:34.055291-07:00,1178.8,714.2,1149.8,1046.1,905.9,883.9,1847.9,1276.5,3473.4,3478.3,1155.0,918.6,1669.1,3483.2,1641.6,1426.8,3467.4,3478.3,1174.4,1783.9,2166.7,2897.5,1645.4,3507.5,3477.1,3488.0,720.8,1046.1,1753.1,1121.7,1033.2,890.7,-44.0,43.0,-17.0,7066.0,-4678.0,9617.0,-10204.0,480.0,268.0,408.0,5.0,8.0,14.0,10397.0,-12574.0,1212.0,-879.0,432.0,95.0,100.0,1.0
2022-05-03 17:28:34.114581-07:00,1178.8,738.1,1166.5,1053.9,905.9,883.9,1841.1,1281.0,3473.4,3479.5,1173.5,925.4,1669.1,3483.2,1800.3,1459.8,3489.2,3473.4,1174.4,1783.9,2172.8,2894.1,1640.7,3507.5,3488.0,3488.0,720.8,1046.1,1752.1,1130.5,1065.1,890.7,115.0,36.0,-209.0,7106.0,-4522.0,9639.0,-10226.0,219.0,94.0,17.0,-11.0,39.0,-27.0,10459.0,-12518.0,1255.0,-877.0,-21.0,29.0,95.0,1.0
2022-05-03 17:28:34.145275-07:00,1177.9,748.0,1166.5,1053.9,904.2,909.3,1841.1,1281.0,3471.0,3483.2,1173.5,925.4,1675.7,3480.7,1800.3,1459.8,3489.2,3473.4,1184.1,1792.6,2172.8,2894.1,1637.9,3495.3,3488.0,3488.0,726.6,1049.6,1752.1,1130.5,1061.7,893.2,2.0,37.0,-29.0,7094.0,-4513.0,9542.0,-10330.0,316.0,-82.0,-319.0,0.0,-3.0,2.0,10497.0,-12488.0,1246.0,-863.0,129.0,-70.0,-36.0,1.0
2022-05-03 17:28:34.205468-07:00,1177.9,748.0,1170.9,1052.2,904.2,909.3,1834.3,1269.4,3471.0,3483.2,1204.4,928.8,1675.7,3480.7,1725.3,1427.7,3473.4,3474.6,1184.1,1792.6,2186.0,2897.5,1637.9,3495.3,3477.1,3480.7,726.6,1049.6,1755.0,1129.6,1061.7,893.2,2.0,-16.0,21.0,7056.0,-4581.0,9403.0,-10452.0,207.0,-74.0,-310.0,4.0,9.0,7.0,10546.0,-12453.0,1183.0,-854.0,126.0,-130.0,-103.0,1.0
2022-05-03 17:28:34.355589-07:00,1173.5,749.6,1170.9,1052.2,900.0,912.7,1834.3,1269.4,3480.7,3474.6,1204.4,928.8,1673.8,3473.4,1725.3,1427.7,3473.4,3474.6,1183.2,1802.3,2186.0,2897.5,1631.3,3491.7,3477.1,3480.7,725.8,1047.8,1755.0,1129.6,1049.6,911.0,-36.0,-43.0,38.0,7030.0,-4580.0,9369.0,-10501.0,75.0,33.0,39.0,14.0,-4.0,51.0,10565.0,-12441.0,1150.0,-845.0,26.0,0.0,9.0,1.0
2022-05-03 17:28:34.356553-07:00,1173.5,749.6,1161.2,1051.3,900.0,912.7,1836.2,1267.6,3480.7,3474.6,1202.7,926.2,1673.8,3473.4,1711.0,1429.5,3469.8,3480.7,1183.2,1802.3,2185.0,2904.3,1631.3,3491.7,3479.5,3480.7,725.8,1047.8,1757.0,1117.4,1049.6,911.0,4.0,25.0,-7.0,7030.0,-4575.0,9384.0,-10489.0,-95.0,1.0,-34.0,6.0,9.0,17.0,10543.0,-12458.0,1171.0,-848.0,-100.0,40.0,28.0,1.0
2022-05-03 17:28:34.357578-07:00,1177.0,752.1,1161.2,1051.3,900.0,907.6,1836.2,1267.6,3473.4,3483.2,1205.3,926.2,1667.2,3471.0,1711.0,1429.5,3469.8,3480.7,1183.2,1809.0,2185.0,2894.1,1628.4,3491.7,3479.5,3480.7,717.5,1039.2,1757.0,1112.1,1042.6,905.0,-4.0,-1.0,-3.0,7018.0,-4599.0,9381.0,-10489.0,-20.0,-26.0,-42.0,-2.0,5.0,4.0,10529.0,-12468.0,1178.0,-851.0,-21.0,-2.0,-5.0,1.0
2022-05-03 17:28:34.504717-07:00,1177.0,752.1,1161.2,1056.5,900.0,900.8,1815.8,1271.2,3473.4,3483.2,1205.3,929.6,1667.2,3479.5,1703.3,1426.8,3479.5,3492.9,1177.0,1809.0,2183.0,2894.1,1628.4,3491.7,3480.7,3484.4,715.1,1039.2,1756.0,1112.1,1042.6,905.0,1.0,-11.0,4.0,7017.0,-4604.0,9384.0,-10485.0,18.0,-6.0,24.0,5.0,2.0,7.0,10533.0,-12465.0,1174.0,-847.0,27.0,-17.0,1.0,1.0
2022-05-03 17:28:34.506078-07:00,1173.5,743.9,1155.0,1056.5,908.4,900.8,1815.8,1271.2,3485.6,3474.6,1204.4,929.6,1669.1,3479.5,1703.3,1426.8,3479.5,3492.9,1177.0,1797.4,2183.0,2894.1,1616.2,3502.7,3480.7,3484.4,715.1,1035.7,1756.0,1115.6,1034.0,906.7,-5.0,8.0,1.0,7027.0,-4604.0,9379.0,-10484.0,5.0,-44.0,0.0,2.0,9.0,15.0,10540.0,-12460.0,1172.0,-848.0,-2.0,-6.0,2.0,1.0
2022-05-03 17:28:34.507117-07:00,1173.5,743.9,1155.0,1053.0,908.4,900.0,1822.6,1267.6,3485.6,3474.6,1204.4,926.2,1669.1,3477.1,1681.4,1425.9,3479.5,3472.2,1179.7,1797.4,2201.4,2894.1,1616.2,3502.7,3484.4,3480.7,715.9,1035.7,1750.2,1115.6,1034.0,906.7,-1.0,-3.0,12.0,7036.0,-4616.0,9370.0,-10480.0,-3.0,-30.0,-1.0,7.0,1.0,13.0,10547.0,-12454.0,1168.0,-846.0,21.0,-17.0,-2.0,1.0
2022-05-03 17:28:34.595254-07:00,1170.0,740.6,1156.8,1053.0,898.3,900.0,1822.6,1267.6,3478.3,3462.5,1199.1,926.2,1673.8,3477.1,1681.4,1425.9,3479.5,3472.2,1179.7,1803.2,2201.4,2908.8,1614.3,3507.5,3484.4,3480.7,715.9,1029.7,1750.2,1116.5,1032.3,905.0,-1.0,6.0,11.0,7044.0,-4618.0,9362.0,-10481.0,-5.0,-13.0,7.0,3.0,7.0,15.0,10554.0,-12449.0,1167.0,-847.0,-2.0,-2.0,6.0,1.0
2022-05-03 17:28:34.654778-07:00,1170.0,740.6,1156.8,1053.0,895.7,899.1,1810.0,1256.9,3478.3,3462.5,1199.1,925.4,1668.2,3478.3,1681.4,1420.4,3477.1,3467.4,1187.6,1794.5,2177.9,2908.8,1614.3,3507.5,3477.1,3469.8,717.5,1019.4,1757.0,1116.5,1032.3,905.0,-4.0,-4.0,9.0,7043.0,-4619.0,9364.0,-10479.0,-6.0,6.0,-4.0,3.0,0.0,16.0,10550.0,-12452.0,1168.0,-850.0,-26.0,16.0,9.0,1.0
2022-05-03 17:28:34.656175-07:00,1171.8,747.2,1151.5,1046.1,895.7,899.1,1810.0,1256.9,3483.2,3472.2,1197.4,920.3,1668.2,3478.3,1681.4,1420.4,3477.1,3467.4,1187.6,1794.5,2172.8,2899.8,1612.4,3496.6,3477.1,3469.8,717.5,1019.4,1750.2,1114.7,1038.3,909.3,-1.0,-2.0,3.0,7043.0,-4621.0,9366.0,-10477.0,-17.0,-12.0,-8.0,3.0,1.0,4.0,10544.0,-12456.0,1170.0,-851.0,-24.0,8.0,6.0,1.0
2022-05-03 17:28:34.714600-07:00,1171.8,747.2,1151.5,1046.1,898.3,894.1,1814.9,1265.8,3483.2,3472.2,1197.4,920.3,1675.7,3471.0,1689.1,1419.5,3483.2,3483.2,1171.8,1802.3,2172.8,2899.8,1612.4,3496.6,3483.2,3488.0,715.1,1021.1,1750.2,1114.7,1038.3,909.3,3.0,0.0,0.0,7048.0,-4636.0,9359.0,-10473.0,1.0,-43.0,-18.0,2.0,0.0,5.0,10542.0,-12459.0,1169.0,-851.0,18.0,-10.0,-4.0,1.0
2022-05-03 17:28:34.745187-07:00,1168.2,742.2,1147.1,1051.3,898.3,894.1,1814.9,1265.8,3472.2,3477.1,1192.0,919.4,1675.7,3471.0,1689.1,1419.5,3483.2,3483.2,1171.8,1802.3,2171.8,2887.4,1612.4,3495.3,3483.2,3488.0,715.1,1021.1,1753.1,1114.7,1034.0,905.9,-1.0,-1.0,14.0,7056.0,-4643.0,9349.0,-10473.0,19.0,-25.0,9.0,5.0,3.0,9.0,10552.0,-12451.0,1165.0,-849.0,25.0,-15.0,-3.0,1.0
2022-05-03 17:28:34.894680-07:00,1168.2,742.2,1147.1,1051.3,904.2,896.6,1810.0,1266.7,3472.2,3477.1,1192.0,919.4,1679.5,3478.3,1682.4,1420.4,3480.7,3480.7,1176.2,1802.3,2171.8,2887.4,1612.4,3495.3,3488.0,3488.0,708.5,1018.5,1753.1,1114.7,1034.0,905.9,-5.0,5.0,8.0,7059.0,-4643.0,9346.0,-10474.0,-1.0,-4.0,4.0,2.0,2.0,12.0,10558.0,-12446.0,1163.0,-849.0,4.0,3.0,-1.0,1.0
2022-05-03 17:28:34.895730-07:00,1172.6,738.9,1149.8,1059.9,904.2,896.6,1810.0,1266.7,3472.2,3480.7,1198.2,922.8,1679.5,3478.3,1682.4,1420.4,3480.7,3480.7,1176.2,1802.3,2176.9,2894.1,1608.7,3500.2,3488.0,3488.0,708.5,1018.5,1752.1,1114.7,1037.5,903.4,-3.0,-2.0,6.0,7058.0,-4642.0,9347.0,-10474.0,-14.0,9.0,9.0,5.0,3.0,15.0,10558.0,-12446.0,1164.0,-852.0,-21.0,10.0,4.0,1.0
2022-05-03 17:28:34.925168-07:00,1163.8,738.9,1149.8,1059.9,902.5,903.4,1806.1,1265.8,3479.5,3480.7,1198.2,922.8,1674.8,3472.2,1682.4,1414.0,3485.6,3474.6,1174.4,1802.3,2176.9,2894.1,1608.7,3499.0,3477.1,3484.4,717.5,1015.1,1752.1,1114.7,1037.5,900.0,-2.0,-3.0,8.0,7055.0,-4645.0,9354.0,-10468.0,-19.0,2.0,-5.0,5.0,3.0,11.0,10553.0,-12450.0,1165.0,-853.0,-11.0,9.0,1.0,1.0
2022-05-03 17:28:34.954720-07:00,1163.8,741.4,1148.9,1045.2,902.5,903.4,1806.1,1264.0,3479.5,3475.9,1200.0,926.2,1674.8,3472.2,1682.4,1417.6,3486.8,3474.6,1174.4,1802.3,2182.0,2908.8,1603.0,3499.0,3479.5,3484.4,717.5,1015.1,1750.2,1116.5,1034.0,900.0,0.0,-4.0,2.0,7057.0,-4653.0,9352.0,-10466.0,-17.0,-19.0,-12.0,2.0,2.0,8.0,10553.0,-12450.0,1164.0,-853.0,8.0,-10.0,-3.0,1.0
2022-05-03 17:28:35.014621-07:00,1169.1,741.4,1148.9,1045.2,900.0,889.0,1809.0,1264.0,3481.9,3475.9,1200.0,926.2,1672.9,3479.5,1679.5,1417.6,3486.8,3480.7,1182.3,1798.4,2182.0,2908.8,1603.0,3499.0,3479.5,3484.4,710.1,1010.8,1750.2,1116.5,1034.0,904.2,-2.0,2.0,10.0,7061.0,-4658.0,9348.0,-10464.0,-4.0,-13.0,3.0,4.0,3.0,10.0,10559.0,-12445.0,1163.0,-853.0,11.0,-9.0,-4.0,1.0
2022-05-03 17:28:35.045161-07:00,1169.1,731.5,1148.0,1052.2,900.0,889.0,1809.0,1264.9,3481.9,3478.3,1192.9,924.5,1672.9,3479.5,1679.5,1421.3,3483.2,3480.7,1182.3,1798.4,2172.8,2906.6,1601.1,3499.0,3479.5,3484.4,710.1,1010.8,1754.1,1119.1,1034.0,904.2,-1.0,0.0,10.0,7061.0,-4665.0,9348.0,-10461.0,-5.0,-16.0,-16.0,2.0,3.0,11.0,10561.0,-12443.0,1162.0,-853.0,-7.0,4.0,1.0,1.0
2022-05-03 17:28:35.105485-07:00,1171.8,731.5,1148.0,1052.2,900.0,888.2,1802.3,1264.9,3477.1,3478.3,1192.9,924.5,1668.2,3475.9,1680.5,1421.3,3483.2,3488.0,1178.8,1798.4,2172.8,2906.6,1601.1,3500.2,3479.5,3477.1,714.2,1006.5,1754.1,1119.1,1034.0,907.6,-6.0,-1.0,2.0,7060.0,-4674.0,9346.0,-10460.0,-19.0,-19.0,-10.0,4.0,4.0,11.0,10559.0,-12445.0,1162.0,-854.0,-18.0,2.0,1.0,1.0
2022-05-03 17:28:35.164633-07:00,1171.8,740.6,1146.3,1053.0,900.0,888.2,1800.3,1257.8,3477.1,3477.1,1196.5,916.9,1668.2,3475.9,1664.4,1419.5,3485.6,3478.3,1178.8,1798.4,2167.7,2903.2,1596.4,3500.2,3485.6,3477.1,714.2,1006.5,1751.2,1107.8,1037.5,907.6,0.0,-1.0,1.0,7066.0,-4683.0,9343.0,-10454.0,-3.0,-25.0,-7.0,2.0,5.0,5.0,10556.0,-12447.0,1161.0,-854.0,-2.0,-12.0,-4.0,1.0
2022-05-03 17:28:35.224603-07:00,1167.4,734.8,1146.3,1053.0,907.6,884.8,1800.3,1257.8,3478.3,3480.7,1196.5,916.9,1677.6,3481.9,1664.4,1419.5,3485.6,3478.3,1180.6,1803.2,2167.7,2903.2,1598.3,3497.8,3485.6,3477.1,713.4,1011.6,1751.2,1107.8,1026.3,908.4,0.0,-1.0,11.0,7068.0,-4690.0,9338.0,-10453.0,7.0,-13.0,-12.0,4.0,3.0,12.0,10559.0,-12445.0,1158.0,-852.0,10.0,-5.0,-9.0,1.0
2022-05-03 17:28:35.314610-07:00,1167.4,734.8,1144.5,1045.2,907.6,884.8,1801.3,1272.1,3478.3,3480.7,1191.2,933.0,1677.6,3481.9,1668.2,1419.5,3471.0,3477.1,1180.6,1803.2,2174.8,2889.6,1598.3,3497.8,3480.7,3475.9,713.4,1011.6,1751.2,1112.1,1026.3,908.4,-1.0,0.0,10.0,7065.0,-4693.0,9338.0,-10455.0,-18.0,-5.0,-7.0,4.0,2.0,8.0,10560.0,-12444.0,1157.0,-853.0,-19.0,0.0,3.0,1.0
2022-05-03 17:28:35.316285-07:00,1172.6,731.5,1144.5,1045.2,902.5,886.5,1801.3,1272.1,3477.1,3474.6,1191.2,933.0,1671.9,3469.8,1668.2,1419.5,3471.0,3477.1,1186.7,1800.3,2174.8,2889.6,1594.6,3495.3,3480.7,3475.9,713.4,1003.9,1751.2,1112.1,1033.2,905.9,-8.0,-1.0,9.0,7056.0,-4694.0,9343.0,-10455.0,-11.0,22.0,-7.0,6.0,2.0,15.0,10554.0,-12449.0,1158.0,-854.0,-29.0,13.0,6.0,1.0
2022-05-03 17:28:35.345093-07:00,1172.6,731.5,1155.0,1051.3,902.5,886.5,1811.0,1264.0,3477.1,3474.6,1192.9,920.3,1671.9,3469.8,1674.8,1412.2,3477.1,3485.6,1186.7,1800.3,2166.7,2904.3,1594.6,3495.3,3478.3,3477.1,713.4,1003.9,1749.3,1104.3,1033.2,905.9,-2.0,-3.0,5.0,7050.0,-4696.0,9350.0,-10452.0,-23.0,14.0,-13.0,4.0,3.0,8.0,10544.0,-12457.0,1161.0,-857.0,-22.0,9.0,4.0,1.0
2022-05-03 17:28:35.435543-07:00,1189.4,732.3,1155.0,1051.3,905.9,888.2,1811.0,1264.0,3467.4,3486.8,1192.9,920.3,1675.7,3480.7,1674.8,1412.2,3477.1,3485.6,1174.4,1803.2,2166.7,2904.3,1591.7,3500.2,3478.3,3477.1,710.1,1006.5,1749.3,1104.3,1032.3,899.1,-2.0,-2.0,0.0,7050.0,-4701.0,9351.0,-10450.0,-9.0,-20.0,-6.0,2.0,1.0,7.0,10539.0,-12461.0,1162.0,-857.0,-10.0,3.0,1.0,1.0
2022-05-03 17:28:35.465237-07:00,1189.4,732.3,1141.0,1049.6,905.9,889.0,1805.2,1287.3,3467.4,3486.8,1196.5,926.2,1675.7,3479.5,1669.1,1419.5,3475.9,3480.7,1181.5,1803.2,2174.8,2897.5,1591.7,3500.2,3483.2,3477.1,711.8,1006.5,1746.4,1107.8,1032.3,899.1,0.0,-15.0,6.0,7053.0,-4703.0,9348.0,-10449.0,27.0,-8.0,5.0,5.0,2.0,7.0,10544.0,-12457.0,1160.0,-856.0,36.0,-11.0,-2.0,1.0
2022-05-03 17:28:35.494773-07:00,1168.2,729.0,1146.3,1049.6,900.8,889.0,1805.2,1287.3,3479.5,3467.4,1192.0,926.2,1671.0,3479.5,1669.1,1419.5,3475.9,3480.7,1181.5,1804.2,2174.8,2891.9,1587.1,3502.7,3483.2,3477.1,711.8,1003.9,1746.4,1108.6,1028.8,902.5,0.0,11.0,5.0,7060.0,-4704.0,9344.0,-10448.0,-19.0,-27.0,4.0,7.0,5.0,8.0,10550.0,-12452.0,1159.0,-856.0,2.0,-4.0,5.0,1.0
2022-05-03 17:28:35.614634-07:00,1168.2,729.0,1146.3,1050.4,900.8,881.4,1794.5,1254.2,3479.5,3467.4,1192.0,922.0,1671.0,3474.6,1656.8,1414.9,3486.8,3477.1,1182.3,1804.2,2173.8,2891.9,1587.1,3502.7,3486.8,3473.4,708.5,1003.9,1756.0,1108.6,1028.8,902.5,-8.0,-4.0,11.0,7058.0,-4713.0,9347.0,-10442.0,-14.0,6.0,-11.0,3.0,1.0,15.0,10550.0,-12453.0,1158.0,-854.0,8.0,-4.0,-9.0,1.0
2022-05-03 17:28:35.615715-07:00,1166.5,730.7,1161.2,1050.4,902.5,881.4,1794.5,1254.2,3478.3,3473.4,1195.6,922.0,1671.9,3474.6,1656.8,1414.9,3486.8,3477.1,1182.3,1795.5,2173.8,2902.0,1592.7,3491.7,3486.8,3473.4,708.5,1006.5,1756.0,1112.1,1031.4,904.2,-2.0,0.0,9.0,7054.0,-4720.0,9347.0,-10443.0,-24.0,-6.0,-20.0,4.0,1.0,7.0,10545.0,-12457.0,1159.0,-855.0,-29.0,6.0,-1.0,1.0
2022-05-03 17:28:35.674690-07:00,1166.5,730.7,1161.2,1046.1,902.5,885.6,1799.4,1267.6,3478.3,3473.4,1195.6,919.4,1671.9,3475.9,1667.2,1417.6,3477.1,3477.1,1181.5,1795.5,2175.8,2902.0,1592.7,3491.7,3475.9,3478.3,705.2,1006.5,1740.6,1112.1,1031.4,904.2,-2.0,-5.0,8.0,7051.0,-4720.0,9350.0,-10441.0,8.0,16.0,9.0,4.0,2.0,13.0,10541.0,-12460.0,1160.0,-854.0,8.0,0.0,-2.0,1.0
2022-05-03 17:28:35.704708-07:00,1168.2,732.3,1143.6,1046.1,898.3,885.6,1799.4,1267.6,3480.7,3473.4,1189.4,919.4,1668.2,3475.9,1667.2,1417.6,3477.1,3477.1,1181.5,1799.4,2175.8,2897.5,1585.2,3496.6,3475.9,3478.3,705.2,1001.3,1740.6,1113.0,1035.7,898.3,-1.0,8.0,3.0,7049.0,-4719.0,9347.0,-10446.0,-1.0,-9.0,-26.0,6.0,7.0,12.0,10538.0,-12462.0,1160.0,-855.0,-17.0,8.0,-8.0,1.0
2022-05-03 17:28:35.764631-07:00,1168.2,732.3,1143.6,1041.8,907.6,893.2,1799.4,1264.0,3480.7,3473.4,1189.4,927.9,1670.1,3477.1,1665.3,1414.9,3473.4,3485.6,1176.2,1793.6,2168.7,2897.5,1585.2,3496.6,3488.0,3475.9,705.2,999.6,1747.3,1113.0,1035.7,898.3,4.0,-14.0,9.0,7043.0,-4734.0,9346.0,-10444.0,-9.0,-1.0,-16.0,7.0,0.0,5.0,10532.0,-12468.0,1159.0,-855.0,1.0,-7.0,-12.0,1.0
2022-05-03 17:28:35.794687-07:00,1173.5,732.3,1148.9,1047.8,907.6,893.2,1799.4,1264.0,3475.9,3480.7,1188.5,922.8,1670.1,3477.1,1665.3,1414.9,3473.4,3485.6,1176.2,1793.6,2168.7,2891.9,1588.0,3497.8,3488.0,3475.9,705.2,999.6,1750.2,1111.2,1033.2,897.4,0.0,0.0,9.0,7042.0,-4735.0,9343.0,-10446.0,-2.0,4.0,-12.0,7.0,1.0,10.0,10530.0,-12469.0,1156.0,-859.0,-13.0,2.0,-13.0,1.0
2022-05-03 17:28:35.854949-07:00,1173.5,732.3,1148.9,1047.8,901.7,884.8,1794.5,1269.4,3475.9,3480.7,1188.5,922.8,1675.7,3468.6,1655.8,1414.9,3480.7,3479.5,1178.8,1793.6,2168.7,2891.9,1588.0,3497.8,3484.4,3481.9,701.1,999.6,1750.2,1111.2,1033.2,897.4,-2.0,2.0,4.0,7037.0,-4738.0,9343.0,-10449.0,-6.0,2.0,-17.0,5.0,4.0,10.0,10522.0,-12476.0,1154.0,-865.0,-26.0,12.0,-15.0,1.0
2022-05-03 17:28:35.914638-07:00,1160.3,737.3,1141.9,1046.1,901.7,884.8,1794.5,1269.4,3480.7,3473.4,1185.9,926.2,1675.7,3468.6,1655.8,1414.9,3480.7,3479.5,1178.8,1793.6,2169.7,2891.9,1585.2,3506.3,3484.4,3481.9,701.1,999.6,1753.1,1106.9,1029.7,898.3,-1.0,-1.0,6.0,7028.0,-4747.0,9344.0,-10450.0,-16.0,-3.0,-28.0,4.0,2.0,8.0,10512.0,-12484.0,1151.0,-869.0,-31.0,8.0,-14.0,1.0
2022-05-03 17:28:35.974560-07:00,1160.3,737.3,1141.9,1046.1,903.4,883.9,1794.5,1264.0,3480.7,3473.4,1185.9,926.2,1671.9,3475.9,1663.4,1410.3,3490.5,3477.1,1176.2,1793.6,2169.7,2891.9,1585.2,3506.3,3480.7,3479.5,706.0,1003.0,1753.1,1106.9,1029.7,898.3,-4.0,6.0,4.0,7019.0,-4758.0,9344.0,-10451.0,-17.0,-11.0,-30.0,6.0,7.0,12.0,10502.0,-12492.0,1150.0,-874.0,-32.0,16.0,-11.0,1.0
2022-05-03 17:28:36.004570-07:00,1163.8,731.5,1146.3,1042.6,903.4,883.9,1794.5,1262.2,3475.9,3477.1,1187.6,920.3,1671.9,3475.9,1663.4,1415.8,3484.4,3477.1,1176.2,1793.6,2160.5,2889.6,1581.4,3501.4,3488.0,3479.5,706.0,1003.0,1754.1,1112.1,1026.3,898.3,0.0,1.0,4.0,7011.0,-4777.0,9339.0,-10452.0,-21.0,-22.0,-45.0,5.0,0.0,8.0,10491.0,-12501.0,1150.0,-880.0,-35.0,7.0,-15.0,1.0
2022-05-03 17:28:36.064605-07:00,1168.2,731.5,1146.3,1042.6,898.3,883.1,1808.1,1262.2,3473.4,3477.1,1187.6,920.3,1669.1,3488.0,1665.3,1415.8,3484.4,3479.5,1180.6,1793.6,2160.5,2889.6,1581.4,3495.3,3488.0,3483.2,715.1,992.7,1754.1,1112.1,1026.3,896.6,-1.0,-6.0,9.0,7003.0,-4794.0,9339.0,-10450.0,-27.0,-9.0,-22.0,4.0,4.0,8.0,10484.0,-12508.0,1144.0,-884.0,-13.0,-7.0,-20.0,1.0
2022-05-03 17:28:36.094719-07:00,1168.2,734.8,1136.6,1045.2,898.3,883.1,1808.1,1269.4,3473.4,3467.4,1189.4,925.4,1669.1,3488.0,1665.3,1422.2,3475.9,3479.5,1180.6,1793.6,2160.5,2890.8,1580.5,3495.3,3488.0,3483.2,715.1,992.7,1746.4,1108.6,1028.8,896.6,0.0,1.0,8.0,7001.0,-4797.0,9340.0,-10450.0,-8.0,3.0,-5.0,7.0,1.0,9.0,10479.0,-12512.0,1141.0,-886.0,-13.0,7.0,-10.0,1.0
2022-05-03 17:28:36.154745-07:00,1163.8,734.8,1136.6,1045.2,904.2,887.3,1796.5,1269.4,3471.0,3467.4,1189.4,925.4,1672.9,3472.2,1657.7,1422.2,3475.9,3479.5,1180.6,1811.9,2160.5,2890.8,1580.5,3486.8,3488.0,3477.1,707.7,997.9,1746.4,1108.6,1028.8,899.1,-2.0,-5.0,10.0,6997.0,-4802.0,9346.0,-10444.0,-19.0,0.0,-9.0,7.0,4.0,8.0,10470.0,-12519.0,1142.0,-887.0,-22.0,6.0,-4.0,1.0
2022-05-03 17:28:36.214709-07:00,1163.8,730.7,1138.4,1042.6,904.2,887.3,1796.5,1264.0,3471.0,3484.4,1189.4,929.6,1672.9,3472.2,1657.7,1410.3,3479.5,3479.5,1180.6,1811.9,2169.7,2893.0,1583.3,3486.8,3481.9,3477.1,707.7,997.9,1749.3,1105.1,1023.7,899.1,-6.0,-1.0,4.0,6993.0,-4803.0,9345.0,-10446.0,-9.0,-3.0,-14.0,5.0,4.0,12.0,10467.0,-12521.0,1142.0,-887.0,-16.0,2.0,-8.0,1.0
2022-05-03 17:28:36.274673-07:00,1168.2,730.7,1138.4,1042.6,900.0,880.6,1792.6,1264.0,3479.5,3484.4,1189.4,929.6,1671.9,3467.4,1661.5,1410.3,3479.5,3478.3,1185.0,1789.7,2169.7,2893.0,1583.3,3496.6,3481.9,3478.3,705.2,989.3,1749.3,1105.1,1023.7,895.7,-1.0,-1.0,6.0,6991.0,-4804.0,9346.0,-10446.0,9.0,11.0,-3.0,7.0,0.0,8.0,10465.0,-12523.0,1142.0,-886.0,-2.0,4.0,-7.0,1.0
2022-05-03 17:28:36.304746-07:00,1168.2,726.6,1139.2,1042.6,900.0,880.6,1788.7,1264.9,3479.5,3466.1,1191.2,923.7,1671.9,3467.4,1655.8,1411.3,3483.2,3478.3,1185.0,1789.7,2172.8,2882.9,1578.6,3496.6,3478.3,3485.6,705.2,989.3,1752.1,1109.5,1028.8,895.7,-5.0,2.0,2.0,6990.0,-4807.0,9347.0,-10445.0,-21.0,-17.0,-12.0,7.0,5.0,11.0,10462.0,-12526.0,1142.0,-886.0,-21.0,7.0,-4.0,1.0
2022-05-03 17:28:36.364557-07:00,1164.7,718.4,1139.2,1042.6,903.4,882.3,1788.7,1264.9,3478.3,3479.5,1191.2,923.7,1668.2,3468.6,1655.8,1411.3,3483.2,3478.3,1177.0,1794.5,2172.8,2882.9,1580.5,3500.2,3478.3,3485.6,705.2,997.9,1752.1,1109.5,1024.5,894.9,0.0,-6.0,12.0,6989.0,-4810.0,9347.0,-10444.0,11.0,11.0,-2.0,5.0,1.0,5.0,10459.0,-12528.0,1138.0,-887.0,9.0,-14.0,-15.0,1.0
2022-05-03 17:28:36.394655-07:00,1164.7,718.4,1141.0,1049.6,903.4,882.3,1788.7,1264.0,3478.3,3479.5,1182.3,922.8,1668.2,3468.6,1665.3,1411.3,3488.0,3477.1,1177.0,1794.5,2172.8,2895.3,1580.5,3500.2,3475.9,3478.3,705.2,997.9,1749.3,1106.0,1024.5,894.9,-1.0,0.0,13.0,6986.0,-4805.0,9348.0,-10448.0,-7.0,19.0,-7.0,8.0,3.0,11.0,10461.0,-12527.0,1136.0,-888.0,0.0,0.0,-9.0,1.0
2022-05-03 17:28:36.454711-07:00,1164.7,726.6,1141.0,1049.6,897.4,874.7,1788.7,1264.0,3471.0,3472.2,1182.3,922.8,1672.9,3472.2,1665.3,1411.3,3488.0,3477.1,1171.8,1789.7,2172.8,2895.3,1573.0,3486.8,3475.9,3478.3,706.9,1001.3,1749.3,1106.0,1028.0,878.0,3.0,1.0,7.0,6983.0,-4806.0,9348.0,-10449.0,0.0,13.0,-13.0,9.0,6.0,8.0,10459.0,-12528.0,1138.0,-891.0,-8.0,10.0,-5.0,1.0
2022-05-03 17:28:36.544867-07:00,1164.7,726.6,1136.6,1045.2,897.4,874.7,1793.6,1260.4,3471.0,3472.2,1183.2,918.6,1672.9,3472.2,1656.8,1414.9,3483.2,3480.7,1171.8,1789.7,2163.6,2897.5,1573.0,3486.8,3479.5,3480.7,706.9,1001.3,1752.1,1106.0,1028.0,878.0,0.0,0.0,5.0,6981.0,-4805.0,9349.0,-10450.0,-11.0,8.0,-6.0,5.0,0.0,7.0,10456.0,-12530.0,1140.0,-892.0,-14.0,5.0,1.0,1.0
2022-05-03 17:28:36.575242-07:00,1169.1,724.9,1141.0,1045.2,899.1,878.0,1793.6,1260.4,3479.5,3480.7,1189.4,918.6,1670.1,3480.7,1656.8,1414.9,3483.2,3480.7,1176.2,1797.4,2163.6,2890.8,1581.4,3501.4,3479.5,3480.7,705.2,991.9,1752.1,1110.4,1026.3,883.1,0.0,-7.0,9.0,6980.0,-4806.0,9351.0,-10448.0,14.0,1.0,8.0,5.0,4.0,9.0,10452.0,-12534.0,1141.0,-893.0,7.0,8.0,2.0,1.0
2022-05-03 17:28:36.634610-07:00,1169.1,724.9,1141.0,1041.8,899.1,879.7,1795.5,1273.0,3479.5,3480.7,1189.4,927.9,1670.1,3474.6,1665.3,1412.2,3473.4,3488.0,1185.9,1797.4,2167.7,2890.8,1581.4,3501.4,3478.3,3481.9,701.9,991.9,1752.1,1110.4,1026.3,883.1,-3.0,-6.0,9.0,6982.0,-4803.0,9348.0,-10451.0,16.0,3.0,12.0,8.0,0.0,8.0,10456.0,-12530.0,1141.0,-894.0,15.0,-2.0,4.0,1.0
2022-05-03 17:28:36.636168-07:00,1163.0,721.6,1137.5,1041.8,902.5,879.7,1795.5,1273.0,3478.3,3471.0,1182.3,927.9,1671.0,3474.6,1665.3,1412.2,3473.4,3488.0,1185.9,1799.4,2167.7,2887.4,1578.6,3495.3,3478.3,3481.9,701.9,995.3,1752.1,1109.5,1021.9,891.5,1.0,2.0,9.0,6984.0,-4803.0,9348.0,-10450.0,-21.0,-8.0,-6.0,7.0,3.0,7.0,10459.0,-12527.0,1141.0,-894.0,-7.0,-7.0,2.0,1.0
2022-05-03 17:28:36.724588-07:00,1163.0,721.6,1137.5,1041.8,902.5,874.7,1787.8,1255.1,3478.3,3471.0,1182.3,921.1,1671.0,3473.4,1665.3,1416.7,3480.7,3477.1,1180.6,1799.4,2163.6,2887.4,1578.6,3495.3,3480.7,3478.3,709.3,995.3,1751.2,1109.5,1021.9,891.5,-3.0,-2.0,8.0,6985.0,-4802.0,9347.0,-10451.0,14.0,-6.0,1.0,6.0,4.0,11.0,10461.0,-12526.0,1141.0,-894.0,6.0,3.0,6.0,1.0
2022-05-03 17:28:36.814684-07:00,1158.6,724.9,1132.2,1041.8,900.8,874.7,1787.8,1255.1,3475.9,3467.4,1183.2,921.1,1671.0,3473.4,1665.3,1416.7,3480.7,3477.1,1180.6,1790.7,2163.6,2888.5,1575.8,3502.7,3480.7,3478.3,709.3,986.7,1751.2,1106.9,1024.5,895.7,-3.0,-6.0,6.0,6985.0,-4802.0,9347.0,-10451.0,-7.0,-2.0,6.0,2.0,3.0,12.0,10461.0,-12526.0,1141.0,-894.0,-5.0,-1.0,7.0,1.0
2022-05-03 17:28:36.845268-07:00,1158.6,724.9,1132.2,1045.2,900.8,881.4,1787.8,1265.8,3475.9,3467.4,1183.2,927.1,1671.0,3478.3,1655.8,1422.2,3484.4,3477.1,1175.3,1790.7,2161.6,2888.5,1575.8,3502.7,3481.9,3480.7,702.8,986.7,1753.1,1106.9,1024.5,895.7,-5.0,5.0,6.0,6986.0,-4800.0,9345.0,-10453.0,-5.0,-1.0,1.0,4.0,5.0,10.0,10461.0,-12526.0,1141.0,-894.0,-1.0,0.0,0.0,1.0
2022-05-03 17:28:36.874639-07:00,1168.2,727.4,1140.1,1044.4,901.7,881.4,1787.8,1265.8,3475.9,3480.7,1185.9,931.3,1667.2,3478.3,1655.8,1422.2,3484.4,3477.1,1175.3,1787.8,2161.6,2885.1,1571.1,3491.7,3481.9,3480.7,702.8,995.3,1753.1,1109.5,1023.7,891.5,-1.0,-5.0,9.0,6984.0,-4803.0,9350.0,-10448.0,-22.0,0.0,9.0,3.0,1.0,8.0,10460.0,-12527.0,1141.0,-894.0,-10.0,3.0,0.0,1.0
2022-05-03 17:28:36.904652-07:00,1168.2,727.4,1140.1,1044.4,898.3,885.6,1784.9,1263.1,3475.9,3480.7,1185.9,931.3,1676.7,3478.3,1657.7,1419.5,3477.1,3481.9,1172.6,1793.6,2161.6,2885.1,1571.1,3491.7,3479.5,3484.4,692.9,992.7,1753.1,1109.5,1023.7,891.5,-1.0,7.0,4.0,6986.0,-4804.0,9357.0,-10440.0,-34.0,-6.0,30.0,11.0,13.0,18.0,10459.0,-12528.0,1142.0,-895.0,-12.0,25.0,0.0,1.0
2022-05-03 17:28:36.934780-07:00,1164.7,725.8,1141.0,1046.1,898.3,885.6,1784.9,1263.1,3471.0,3467.4,1179.7,922.0,1676.7,3478.3,1657.7,1419.5,3477.1,3481.9,1172.6,1793.6,2166.7,2878.4,1572.1,3501.4,3479.5,3484.4,692.9,992.7,1746.4,1104.3,1026.3,894.9,0.0,-9.0,-24.0,7008.0,-4804.0,9473.0,-10320.0,-586.0,-3.0,427.0,8.0,12.0,8.0,10452.0,-12531.0,1153.0,-909.0,-84.0,62.0,-20.0,1.0
2022-05-03 17:28:36.994709-07:00,1164.7,725.8,1141.0,1046.1,902.5,878.9,1794.5,1250.6,3471.0,3467.4,1179.7,922.0,1673.8,3474.6,1674.8,1420.4,3480.7,3484.4,1172.6,1793.6,2166.7,2878.4,1572.1,3501.4,3481.9,3488.0,700.3,1002.2,1746.4,1104.3,1026.3,894.9,14.0,64.0,-72.0,7092.0,-4927.0,9644.0,-10043.0,-752.0,-539.0,174.0,0.0,16.0,6.0,10378.0,-12589.0,1181.0,-918.0,-334.0,20.0,29.0,1.0
2022-05-03 17:28:37.054819-07:00,1163.8,724.1,1137.5,1036.6,902.5,878.9,1794.5,1250.6,3475.9,3475.9,1160.3,923.7,1673.8,3474.6,1674.8,1420.4,3480.7,3484.4,1172.6,1793.6,2158.5,2878.4,1612.4,3497.8,3481.9,3488.0,700.3,1002.2,1752.1,1104.3,1021.1,894.1,0.0,36.0,47.0,7083.0,-5277.0,9681.0,-9834.0,-548.0,-477.0,-455.0,-2.0,7.0,14.0,10239.0,-12704.0,1173.0,-919.0,-474.0,-23.0,-116.0,1.0
2022-05-03 17:28:37.084769-07:00,1168.2,724.1,1137.5,1036.6,900.0,882.3,1836.2,1261.3,3477.1,3475.9,1160.3,923.7,1671.0,3479.5,1625.6,1414.0,3477.1,3479.5,1177.0,1785.8,2158.5,2878.4,1612.4,3492.9,3488.0,3478.3,700.3,1001.3,1752.1,1104.3,1021.1,910.1,-24.0,2.0,48.0,6960.0,-5633.0,9711.0,-9693.0,-874.0,-355.0,-480.0,10.0,0.0,26.0,10100.0,-12817.0,1125.0,-943.0,-469.0,9.0,-152.0,1.0
2022-05-03 17:28:37.174625-07:00,1168.2,720.8,1128.7,1034.9,900.0,882.3,1836.2,1264.9,3477.1,3472.2,1154.2,920.3,1671.0,3479.5,1625.6,1405.8,3488.0,3479.5,1177.0,1785.8,2159.5,2894.1,1730.1,3492.9,3485.6,3478.3,700.3,1001.3,1751.2,1106.0,1026.3,910.1,2.0,-102.0,94.0,6803.0,-5960.0,9856.0,-9461.0,-817.0,-165.0,-187.0,15.0,-13.0,5.0,9943.0,-12940.0,1094.0,-965.0,-385.0,10.0,-84.0,1.0
2022-05-03 17:28:37.234498-07:00,1175.3,720.8,1128.7,1034.9,902.5,873.0,1822.6,1264.9,3471.0,3472.2,1154.2,920.3,1667.2,3467.4,1576.8,1405.8,3488.0,3477.1,1180.6,1782.9,2159.5,2894.1,1730.1,3499.0,3485.6,3485.6,698.7,959.4,1751.2,1106.0,1026.3,907.6,-6.0,-13.0,76.0,6730.0,-6068.0,9927.0,-9369.0,-103.0,10.0,-86.0,8.0,0.0,19.0,9884.0,-12983.0,1102.0,-977.0,-68.0,52.0,36.0,1.0
2022-05-03 17:28:37.236122-07:00,1175.3,719.2,1129.6,1040.9,902.5,873.0,1822.6,1241.7,3471.0,3472.2,1154.2,915.2,1667.2,3467.4,1576.8,1401.2,3479.5,3477.1,1180.6,1782.9,2162.6,2887.4,1733.0,3499.0,3485.6,3485.6,698.7,959.4,1745.4,1109.5,1018.5,907.6,-16.0,17.0,13.0,6677.0,-6084.0,9917.0,-9407.0,-44.0,89.0,-167.0,2.0,13.0,13.0,9838.0,-13014.0,1143.0,-990.0,-197.0,76.0,38.0,1.0
2022-05-03 17:28:37.294844-07:00,1168.2,719.2,1129.6,1040.9,897.4,857.0,1817.8,1241.7,3483.2,3472.2,1154.2,915.2,1668.2,3477.1,1545.0,1401.2,3479.5,3488.0,1174.4,1780.1,2162.6,2887.4,1733.0,3494.1,3485.6,3485.6,691.3,953.4,1745.4,1109.5,1018.5,906.7,-9.0,-29.0,0.0,6615.0,-6127.0,9932.0,-9407.0,-77.0,34.0,-100.0,4.0,-1.0,-10.0,9762.0,-13068.0,1168.0,-994.0,-179.0,22.0,17.0,1.0
2022-05-03 17:28:37.354783-07:00,1168.2,719.2,1133.1,1042.6,897.4,857.0,1817.8,1238.2,3483.2,3484.4,1144.5,915.2,1668.2,3477.1,1545.0,1398.5,3474.6,3488.0,1174.4,1780.1,2157.5,2881.8,1717.7,3494.1,3484.4,3485.6,691.3,953.4,1749.3,1105.1,1019.4,906.7,-21.0,-35.0,5.0,6587.0,-6132.0,9951.0,-9403.0,-69.0,71.0,36.0,6.0,-4.0,0.0,9730.0,-13093.0,1169.0,-986.0,-53.0,-25.0,5.0,1.0
2022-05-03 17:28:37.385568-07:00,1168.2,711.0,1133.1,1042.6,895.7,854.5,1818.7,1238.2,3469.8,3478.3,1144.5,915.2,1670.1,3475.9,1540.3,1398.5,3474.6,3481.9,1183.2,1778.1,2157.5,2881.8,1698.6,3490.5,3484.4,3481.9,687.2,945.8,1749.3,1105.1,1022.8,909.3,-2.0,-4.0,15.0,6602.0,-6106.0,9966.0,-9394.0,50.0,30.0,90.0,5.0,1.0,4.0,9731.0,-13093.0,1171.0,-971.0,39.0,-34.0,32.0,1.0
2022-05-03 17:28:37.444731-07:00,1168.2,711.0,1127.9,1032.3,895.7,854.5,1806.1,1239.1,3469.8,3478.3,1143.6,919.4,1670.1,3475.9,1535.7,1403.0,3485.6,3474.6,1183.2,1778.1,2164.6,2885.1,1698.6,3490.5,3483.2,3474.6,687.2,945.8,1750.2,1105.1,1022.8,909.3,-6.0,8.0,11.0,6624.0,-6062.0,9968.0,-9404.0,61.0,23.0,78.0,4.0,9.0,13.0,9759.0,-13074.0,1166.0,-953.0,66.0,-37.0,21.0,1.0
2022-05-03 17:28:37.534806-07:00,1168.2,712.6,1127.9,1032.3,903.4,852.0,1806.1,1239.1,3464.9,3479.5,1143.6,919.4,1679.5,3480.7,1535.7,1403.0,3485.6,3474.6,1172.6,1774.3,2164.6,2885.1,1695.7,3492.9,3483.2,3474.6,688.0,942.4,1750.2,1105.1,1023.7,894.9,-4.0,7.0,19.0,6635.0,-6048.0,9987.0,-9386.0,-62.0,-8.0,51.0,10.0,6.0,10.0,9765.0,-13071.0,1163.0,-940.0,-20.0,-24.0,23.0,1.0
2022-05-03 17:28:37.564584-07:00,1168.2,712.6,1125.2,1033.2,903.4,852.0,1797.4,1239.1,3464.9,3479.5,1141.9,923.7,1679.5,3480.7,1530.1,1390.3,3474.6,3477.1,1172.6,1774.3,2159.5,2887.4,1695.7,3492.9,3488.0,3481.9,688.0,942.4,1756.0,1103.4,1023.7,894.9,-7.0,0.0,13.0,6637.0,-6057.0,9995.0,-9370.0,-18.0,-21.0,-1.0,5.0,0.0,6.0,9760.0,-13075.0,1165.0,-928.0,-6.0,-19.0,21.0,1.0
2022-05-03 17:28:37.594358-07:00,1167.4,708.5,1125.2,1033.2,901.7,845.3,1797.4,1239.1,3480.7,3474.6,1141.9,923.7,1670.1,3477.1,1530.1,1390.3,3474.6,3477.1,1176.2,1777.2,2159.5,2887.4,1682.4,3495.3,3488.0,3481.9,683.1,939.0,1756.0,1103.4,1012.5,904.2,-12.0,-6.0,13.0,6651.0,-6066.0,9984.0,-9366.0,42.0,-69.0,-8.0,4.0,0.0,2.0,9766.0,-13072.0,1165.0,-916.0,30.0,-26.0,14.0,1.0
2022-05-03 17:28:37.654752-07:00,1167.4,708.5,1129.6,1040.9,901.7,847.0,1795.5,1226.6,3480.7,3474.6,1141.9,918.6,1670.1,3483.2,1529.2,1385.7,3478.3,3485.6,1175.3,1777.2,2162.6,2906.6,1682.4,3495.3,3484.4,3486.8,679.1,939.0,1748.3,1104.3,1012.5,904.2,-14.0,6.0,17.0,6680.0,-6071.0,9955.0,-9373.0,53.0,-70.0,-7.0,3.0,6.0,11.0,9789.0,-13056.0,1156.0,-907.0,67.0,-28.0,-6.0,1.0
2022-05-03 17:28:37.684742-07:00,1163.0,710.1,1127.0,1040.9,901.7,847.0,1795.5,1226.6,3472.2,3480.7,1138.4,918.6,1672.9,3483.2,1529.2,1385.7,3478.3,3485.6,1175.3,1770.4,2162.6,2887.4,1682.4,3500.2,3484.4,3486.8,679.1,939.8,1748.3,1105.1,1015.1,900.0,3.0,-3.0,24.0,6704.0,-6088.0,9930.0,-9371.0,22.0,-68.0,-22.0,7.0,2.0,5.0,9799.0,-13049.0,1150.0,-902.0,18.0,-18.0,-1.0,1.0
2022-05-03 17:28:37.744686-07:00,1163.0,710.1,1127.0,1034.9,901.7,843.6,1786.8,1223.9,3472.2,3480.7,1138.4,916.9,1672.9,3478.3,1525.5,1388.5,3479.5,3474.6,1178.8,1770.4,2162.6,2887.4,1682.4,3500.2,3481.9,3484.4,683.1,939.8,1750.2,1105.1,1015.1,900.0,-8.0,1.0,21.0,6717.0,-6078.0,9912.0,-9387.0,10.0,-3.0,6.0,8.0,3.0,14.0,9811.0,-13041.0,1144.0,-898.0,8.0,1.0,5.0,1.0
2022-05-03 17:28:37.834661-07:00,1168.2,704.4,1121.7,1034.9,904.2,843.6,1786.8,1223.9,3483.2,3471.0,1139.2,916.9,1670.1,3478.3,1525.5,1388.5,3479.5,3474.6,1178.8,1776.2,2162.6,2880.6,1673.8,3510.0,3481.9,3484.4,683.1,939.0,1750.2,1101.7,1016.8,895.7,-1.0,-6.0,26.0,6711.0,-6080.0,9921.0,-9381.0,-31.0,27.0,-1.0,9.0,5.0,7.0,9797.0,-13051.0,1149.0,-896.0,-53.0,17.0,22.0,1.0
2022-05-03 17:28:37.865179-07:00,1168.2,704.4,1121.7,1040.9,904.2,842.8,1786.8,1231.9,3483.2,3471.0,1139.2,917.7,1670.1,3479.5,1519.9,1393.9,3480.7,3483.2,1173.5,1776.2,2157.5,2880.6,1673.8,3510.0,3484.4,3481.9,679.9,939.0,1749.3,1101.7,1016.8,895.7,-12.0,-1.0,10.0,6703.0,-6069.0,9926.0,-9388.0,4.0,21.0,0.0,6.0,4.0,6.0,9789.0,-13057.0,1157.0,-893.0,-13.0,4.0,16.0,1.0
2022-05-03 17:28:37.894792-07:00,1168.2,706.9,1131.4,1040.9,898.3,842.8,1786.8,1231.9,3480.7,3469.8,1135.7,917.7,1670.1,3479.5,1519.9,1393.9,3480.7,3483.2,1173.5,1789.7,2157.5,2886.3,1671.0,3496.6,3484.4,3481.9,679.9,938.1,1749.3,1105.1,1018.5,897.4,-7.0,0.0,7.0,6697.0,-6073.0,9936.0,-9380.0,-42.0,-4.0,-5.0,6.0,5.0,8.0,9784.0,-13060.0,1157.0,-893.0,-11.0,-3.0,4.0,1.0
2022-05-03 17:28:37.985748-07:00,1168.2,706.9,1131.4,1039.2,896.6,837.7,1781.0,1220.4,3480.7,3469.8,1135.7,922.0,1671.0,3467.4,1522.7,1398.5,3483.2,3474.6,1181.5,1771.4,2162.6,2886.3,1671.0,3496.6,3477.1,3488.0,678.2,936.4,1749.3,1105.1,1018.5,897.4,-13.0,-11.0,17.0,6696.0,-6068.0,9940.0,-9379.0,11.0,16.0,15.0,6.0,0.0,9.0,9784.0,-13061.0,1156.0,-893.0,5.0,-6.0,-1.0,1.0
2022-05-03 17:28:37.986768-07:00,1163.8,712.6,1127.0,1034.0,896.6,837.7,1781.0,1220.4,3480.7,3475.9,1141.0,919.4,1671.0,3467.4,1522.7,1398.5,3483.2,3474.6,1181.5,1771.4,2160.5,2882.9,1664.4,3495.3,3477.1,3488.0,678.2,936.4,1746.4,1103.4,1014.2,894.1,-5.0,-2.0,16.0,6696.0,-6071.0,9947.0,-9371.0,-43.0,-12.0,7.0,5.0,5.0,6.0,9778.0,-13065.0,1156.0,-893.0,-32.0,4.0,5.0,1.0
2022-05-03 17:28:38.044651-07:00,1163.8,712.6,1127.0,1034.0,897.4,845.3,1794.5,1222.2,3480.7,3475.9,1141.0,919.4,1663.4,3467.4,1519.9,1390.3,3480.7,3481.9,1171.8,1765.6,2160.5,2882.9,1664.4,3495.3,3483.2,3488.0,671.7,935.6,1746.4,1103.4,1014.2,894.1,-3.0,0.0,14.0,6697.0,-6070.0,9946.0,-9371.0,22.0,2.0,-11.0,6.0,1.0,6.0,9774.0,-13068.0,1157.0,-894.0,-7.0,6.0,4.0,1.0
2022-05-03 17:28:38.104781-07:00,1168.2,706.9,1121.7,1042.6,897.4,845.3,1794.5,1222.2,3471.0,3473.4,1133.1,920.3,1663.4,3467.4,1519.9,1390.3,3480.7,3481.9,1171.8,1765.6,2171.8,2879.5,1663.4,3496.6,3483.2,3488.0,671.7,935.6,1747.3,1111.2,1014.2,892.4,-7.0,0.0,16.0,6696.0,-6069.0,9934.0,-9386.0,37.0,-1.0,-36.0,5.0,4.0,7.0,9775.0,-13067.0,1156.0,-894.0,8.0,0.0,0.0,1.0
2022-05-03 17:28:38.134803-07:00,1168.2,706.9,1121.7,1042.6,902.5,842.8,1779.1,1221.3,3471.0,3473.4,1133.1,920.3,1671.9,3472.2,1517.1,1390.3,3483.2,3489.2,1175.3,1766.6,2171.8,2879.5,1663.4,3496.6,3479.5,3488.0,678.2,942.4,1747.3,1111.2,1014.2,892.4,2.0,10.0,18.0,6693.0,-6069.0,9904.0,-9419.0,94.0,19.0,-72.0,6.0,13.0,7.0,9783.0,-13061.0,1155.0,-895.0,50.0,-13.0,-3.0,1.0
2022-05-03 17:28:38.194617-07:00,1160.3,704.4,1123.5,1036.6,902.5,842.8,1779.1,1228.4,3475.9,3477.1,1125.2,916.0,1671.9,3472.2,1517.1,1392.1,3485.6,3489.2,1175.3,1766.6,2161.6,2881.8,1666.3,3497.8,3490.5,3488.0,678.2,942.4,1747.3,1102.5,1011.6,894.9,-5.0,-8.0,10.0,6692.0,-6074.0,9882.0,-9439.0,6.0,-24.0,-25.0,3.0,5.0,4.0,9793.0,-13054.0,1151.0,-894.0,-14.0,1.0,0.0,1.0
2022-05-03 17:28:38.284723-07:00,1161.2,704.4,1123.5,1036.6,905.9,839.4,1782.9,1228.4,3473.4,3477.1,1125.2,916.0,1667.2,3474.6,1517.1,1392.1,3485.6,3474.6,1172.6,1771.4,2161.6,2881.8,1666.3,3494.1,3490.5,3481.9,675.0,940.7,1747.3,1102.5,1011.6,896.6,-3.0,-8.0,18.0,6695.0,-6077.0,9878.0,-9440.0,25.0,-8.0,-5.0,6.0,3.0,7.0,9787.0,-13058.0,1152.0,-893.0,2.0,-3.0,3.0,1.0
2022-05-03 17:28:38.315229-07:00,1161.2,702.8,1120.0,1024.5,905.9,839.4,1782.9,1228.4,3473.4,3474.6,1141.0,916.0,1667.2,3474.6,1517.1,1384.8,3483.2,3474.6,1172.6,1771.4,2159.5,2885.1,1659.6,3494.1,3478.3,3481.9,675.0,940.7,1753.1,1095.6,1015.1,896.6,-3.0,0.0,13.0,6700.0,-6074.0,9873.0,-9444.0,-32.0,3.0,7.0,4.0,4.0,8.0,9792.0,-13055.0,1151.0,-894.0,7.0,-16.0,-8.0,1.0
2022-05-03 17:28:38.344748-07:00,1162.1,702.8,1120.0,1024.5,898.3,837.7,1774.3,1228.4,3479.5,3474.6,1141.0,916.0,1664.4,3481.9,1510.6,1384.8,3483.2,3488.0,1182.3,1763.7,2159.5,2885.1,1659.6,3496.6,3478.3,3478.3,674.2,939.8,1753.1,1095.6,1015.1,890.7,0.0,-1.0,15.0,6699.0,-6075.0,9880.0,-9436.0,-18.0,8.0,8.0,7.0,3.0,4.0,9788.0,-13058.0,1151.0,-892.0,-15.0,2.0,2.0,1.0
2022-05-03 17:28:38.404888-07:00,1162.1,704.4,1124.4,1034.9,898.3,837.7,1774.3,1221.3,3479.5,3471.0,1132.2,919.4,1664.4,3481.9,1510.6,1393.9,3478.3,3488.0,1182.3,1763.7,2157.5,2881.8,1653.9,3496.6,3472.2,3478.3,674.2,939.8,1743.5,1100.8,1009.0,890.7,-7.0,-4.0,11.0,6688.0,-6086.0,9898.0,-9418.0,-95.0,-14.0,9.0,5.0,3.0,5.0,9778.0,-13066.0,1152.0,-891.0,-69.0,9.0,11.0,1.0
2022-05-03 17:28:38.435258-07:00,1169.1,704.4,1124.4,1034.9,908.4,838.6,1779.1,1221.3,3479.5,3471.0,1132.2,919.4,1664.4,3483.2,1509.7,1393.9,3478.3,3474.6,1179.7,1768.5,2157.5,2881.8,1653.9,3490.5,3472.2,3480.7,675.8,932.2,1743.5,1100.8,1009.0,890.7,-6.0,-5.0,2.0,6678.0,-6097.0,9914.0,-9401.0,-41.0,-7.0,6.0,3.0,0.0,5.0,9761.0,-13078.0,1155.0,-889.0,-21.0,-7.0,5.0,1.0
2022-05-03 17:28:38.524590-07:00,1169.1,703.6,1128.7,1045.2,908.4,838.6,1773.3,1233.7,3479.5,3481.9,1130.5,919.4,1664.4,3483.2,1514.3,1385.7,3489.2,3478.3,1179.7,1768.5,2151.4,2873.9,1657.7,3490.5,3486.8,3481.9,675.8,932.2,1749.3,1099.9,1009.9,890.7,-6.0,-4.0,8.0,6680.0,-6106.0,9919.0,-9389.0,-16.0,-31.0,-1.0,5.0,1.0,6.0,9758.0,-13081.0,1153.0,-887.0,3.0,-18.0,-1.0,1.0
2022-05-03 17:28:38.554870-07:00,1162.1,704.4,1128.7,1045.2,900.8,837.7,1773.3,1233.7,3483.2,3490.5,1130.5,919.4,1669.1,3469.8,1514.3,1385.7,3489.2,3478.3,1175.3,1763.7,2151.4,2873.9,1647.3,3491.7,3486.8,3481.9,672.5,930.5,1749.3,1099.9,1012.5,890.7,-1.0,-4.0,14.0,6685.0,-6113.0,9912.0,-9388.0,17.0,-16.0,-15.0,6.0,1.0,7.0,9765.0,-13076.0,1148.0,-881.0,30.0,-17.0,-2.0,1.0
2022-05-03 17:28:38.614555-07:00,1162.1,704.4,1126.1,1042.6,900.8,837.7,1771.4,1221.3,3483.2,3490.5,1134.9,919.4,1669.1,3469.8,1513.4,1386.6,3488.0,3490.5,1175.3,1763.7,2174.8,2884.0,1647.3,3491.7,3483.2,3484.4,672.5,930.5,1746.4,1103.4,1012.5,890.7,-5.0,0.0,13.0,6690.0,-6115.0,9900.0,-9395.0,3.0,-9.0,-9.0,5.0,5.0,6.0,9773.0,-13071.0,1146.0,-880.0,2.0,-4.0,-4.0,1.0
2022-05-03 17:28:38.645269-07:00,1153.3,698.7,1126.1,1042.6,897.4,836.1,1771.4,1221.3,3467.4,3480.7,1134.9,919.4,1668.2,3474.6,1513.4,1386.6,3488.0,3490.5,1182.3,1772.3,2174.8,2884.0,1646.4,3507.5,3483.2,3484.4,674.2,931.3,1746.4,1103.4,1013.3,895.7,-2.0,-10.0,17.0,6690.0,-6116.0,9904.0,-9391.0,-38.0,10.0,20.0,5.0,0.0,3.0,9768.0,-13074.0,1146.0,-879.0,-27.0,-1.0,5.0,1.0
2022-05-03 17:28:38.704443-07:00,1153.3,698.7,1127.0,1036.6,897.4,836.1,1767.5,1213.3,3467.4,3480.7,1135.7,921.1,1668.2,3474.6,1511.5,1393.0,3477.1,3479.5,1182.3,1772.3,2165.6,2890.8,1646.4,3507.5,3478.3,3481.9,674.2,931.3,1745.4,1107.8,1013.3,895.7,-3.0,6.0,7.0,6689.0,-6109.0,9911.0,-9389.0,4.0,6.0,-7.0,4.0,5.0,4.0,9761.0,-13079.0,1151.0,-880.0,-20.0,14.0,9.0,1.0
2022-05-03 17:28:38.735391-07:00,1163.0,699.5,1130.5,1036.6,905.9,837.7,1767.5,1213.3,3473.4,3467.4,1134.9,921.1,1669.1,3474.6,1511.5,1393.0,3477.1,3479.5,1173.5,1765.6,2165.6,2873.9,1641.6,3494.1,3478.3,3481.9,672.5,933.9,1745.4,1097.3,1023.7,886.5,-5.0,-2.0,7.0,6684.0,-6115.0,9914.0,-9385.0,-34.0,-7.0,-14.0,6.0,5.0,6.0,9755.0,-13083.0,1150.0,-879.0,-7.0,-5.0,-4.0,1.0
2022-05-03 17:28:38.794625-07:00,1163.0,699.5,1130.5,1033.2,905.9,840.3,1768.5,1231.0,3473.4,3467.4,1134.9,911.8,1669.1,3479.5,1515.3,1387.5,3479.5,3488.0,1176.2,1765.6,2160.5,2873.9,1641.6,3494.1,3481.9,3479.5,675.0,933.9,1749.3,1097.3,1023.7,886.5,-4.0,-1.0,7.0,6684.0,-6116.0,9912.0,-9386.0,19.0,-16.0,-6.0,5.0,8.0,8.0,9756.0,-13083.0,1151.0,-880.0,3.0,10.0,7.0,1.0
2022-05-03 17:28:38.884616-07:00,1164.7,704.4,1122.6,1033.2,906.7,840.3,1768.5,1231.0,3471.0,3473.4,1132.2,911.8,1664.4,3479.5,1515.3,1387.5,3479.5,3488.0,1176.2,1764.6,2160.5,2885.1,1633.1,3503.9,3481.9,3479.5,675.0,933.0,1749.3,1099.0,1012.5,895.7,-1.0,-8.0,14.0,6688.0,-6123.0,9912.0,-9379.0,-11.0,-4.0,5.0,4.0,4.0,2.0,9753.0,-13085.0,1152.0,-880.0,-3.0,-6.0,-1.0,1.0
2022-05-03 17:28:38.944610-07:00,1164.7,704.4,1122.6,1037.5,906.7,837.7,1758.9,1212.4,3471.0,3473.4,1132.2,920.3,1664.4,3480.7,1504.1,1391.2,3485.6,3488.0,1180.6,1764.6,2159.5,2885.1,1633.1,3503.9,3485.6,3474.6,672.5,933.0,1750.2,1099.0,1012.5,895.7,-8.0,4.0,7.0,6693.0,-6118.0,9905.0,-9386.0,5.0,-7.0,-7.0,3.0,5.0,11.0,9759.0,-13081.0,1152.0,-881.0,2.0,10.0,-4.0,1.0
2022-05-03 17:28:38.945806-07:00,1156.8,704.4,1127.9,1037.5,894.9,837.7,1758.9,1212.4,3474.6,3485.6,1134.9,920.3,1669.1,3480.7,1504.1,1391.2,3485.6,3488.0,1180.6,1774.3,2159.5,2882.9,1638.8,3499.0,3485.6,3474.6,672.5,930.5,1750.2,1102.5,1015.1,893.2,0.0,-8.0,9.0,6694.0,-6125.0,9905.0,-9381.0,-6.0,-1.0,-4.0,4.0,0.0,0.0,9755.0,-13083.0,1152.0,-881.0,-2.0,-7.0,-4.0,1.0
2022-05-03 17:28:39.004725-07:00,1156.8,704.4,1127.9,1034.0,894.9,839.4,1759.8,1217.7,3474.6,3485.6,1134.9,920.3,1669.1,3478.3,1505.1,1391.2,3477.1,3483.2,1179.7,1774.3,2157.5,2882.9,1638.8,3499.0,3479.5,3483.2,678.2,930.5,1746.4,1102.5,1015.1,893.2,-4.0,0.0,14.0,6694.0,-6119.0,9903.0,-9387.0,18.0,10.0,2.0,6.0,4.0,15.0,9764.0,-13077.0,1150.0,-880.0,20.0,-6.0,2.0,1.0
2022-05-03 17:28:39.034780-07:00,1158.6,701.1,1118.2,1035.7,901.7,839.4,1759.8,1217.7,3475.9,3474.6,1130.5,914.4,1664.4,3478.3,1505.1,1391.2,3477.1,3483.2,1179.7,1769.5,2154.4,2878.4,1636.0,3496.6,3479.5,3483.2,678.2,926.2,1740.6,1097.3,1012.5,889.8,-2.0,-1.0,13.0,6694.0,-6118.0,9901.0,-9390.0,-1.0,-1.0,-16.0,4.0,2.0,1.0,9762.0,-13078.0,1150.0,-880.0,-10.0,3.0,1.0,1.0
2022-05-03 17:28:39.094617-07:00,1158.6,701.1,1118.2,1035.7,899.1,832.7,1773.3,1211.5,3475.9,3474.6,1130.5,914.4,1669.1,3468.6,1508.8,1385.7,3479.5,3484.4,1175.3,1758.9,2154.4,2878.4,1636.0,3496.6,3479.5,3485.6,669.3,927.1,1740.6,1097.3,1012.5,889.8,-6.0,-7.0,14.0,6688.0,-6118.0,9898.0,-9396.0,33.0,38.0,-14.0,9.0,2.0,7.0,9765.0,-13076.0,1150.0,-880.0,12.0,-1.0,3.0,1.0
2022-05-03 17:28:39.154845-07:00,1156.8,703.6,1120.0,1034.0,899.1,832.7,1773.3,1211.5,3478.3,3481.9,1133.1,921.1,1669.1,3468.6,1508.8,1385.7,3479.5,3484.4,1175.3,1758.9,2160.5,2871.7,1630.3,3496.6,3479.5,3485.6,669.3,927.1,1753.1,1097.3,1010.8,894.9,-2.0,0.0,8.0,6683.0,-6110.0,9893.0,-9411.0,0.0,5.0,-23.0,5.0,5.0,7.0,9764.0,-13077.0,1151.0,-879.0,-14.0,5.0,4.0,1.0
2022-05-03 17:28:39.184865-07:00,1156.8,703.6,1120.0,1034.0,895.7,841.1,1760.8,1209.7,3478.3,3481.9,1133.1,921.1,1672.9,3467.4,1510.6,1387.5,3483.2,3485.6,1174.4,1768.5,2160.5,2871.7,1630.3,3496.6,3484.4,3484.4,694.6,926.2,1753.1,1097.3,1010.8,894.9,-7.0,-3.0,6.0,6676.0,-6117.0,9888.0,-9417.0,23.0,0.0,-29.0,4.0,2.0,10.0,9764.0,-13077.0,1151.0,-879.0,1.0,0.0,-2.0,1.0
2022-05-03 17:28:39.274601-07:00,1156.8,699.5,1127.9,1034.9,895.7,841.1,1760.8,1209.7,3483.2,3478.3,1123.5,926.2,1672.9,3467.4,1510.6,1387.5,3483.2,3485.6,1174.4,1768.5,2155.5,2872.8,1628.4,3494.1,3484.4,3484.4,694.6,926.2,1746.4,1098.2,1009.9,888.2,0.0,-9.0,10.0,6678.0,-6124.0,9881.0,-9418.0,-26.0,-17.0,2.0,5.0,3.0,3.0,9764.0,-13077.0,1151.0,-879.0,3.0,-9.0,2.0,1.0
2022-05-03 17:28:39.304924-07:00,1156.8,699.5,1127.9,1034.9,898.3,833.6,1760.8,1217.7,3477.1,3478.3,1123.5,926.2,1660.6,3472.2,1513.4,1382.1,3481.9,3477.1,1172.6,1762.7,2155.5,2872.8,1628.4,3502.7,3483.2,3474.6,677.4,928.8,1746.4,1098.2,1009.9,890.7,-2.0,4.0,8.0,6680.0,-6127.0,9880.0,-9415.0,17.0,-18.0,3.0,3.0,6.0,9.0,9770.0,-13073.0,1149.0,-878.0,21.0,-8.0,0.0,1.0
2022-05-03 17:28:39.334789-07:00,1156.8,698.7,1126.1,1033.2,898.3,833.6,1760.8,1206.2,3477.1,3472.2,1126.1,914.4,1660.6,3472.2,1513.4,1386.6,3490.5,3477.1,1172.6,1762.7,2159.5,2878.4,1628.4,3502.7,3477.1,3474.6,677.4,928.8,1758.9,1103.4,1003.9,890.7,-2.0,-8.0,15.0,6681.0,-6133.0,9881.0,-9410.0,-35.0,-15.0,-2.0,7.0,0.0,9.0,9767.0,-13075.0,1149.0,-878.0,-26.0,-2.0,-1.0,1.0
2022-05-03 17:28:39.394633-07:00,1156.8,698.7,1126.1,1033.2,900.0,834.4,1772.3,1206.2,3477.1,3472.2,1126.1,914.4,1670.1,3477.1,1515.3,1386.6,3490.5,3480.7,1175.3,1772.3,2159.5,2878.4,1628.4,3499.0,3477.1,3484.4,670.9,924.5,1758.9,1103.4,1003.9,888.2,-3.0,-1.0,4.0,6682.0,-6136.0,9884.0,-9405.0,-7.0,-5.0,12.0,6.0,3.0,8.0,9760.0,-13080.0,1150.0,-877.0,-17.0,9.0,7.0,1.0
2022-05-03 17:28:39.424654-07:00,1156.8,701.1,1114.7,1028.0,900.0,834.4,1772.3,1214.2,3477.1,3472.2,1132.2,912.7,1670.1,3477.1,1515.3,1390.3,3480.7,3480.7,1175.3,1772.3,2153.4,2884.0,1629.4,3499.0,3480.7,3484.4,670.9,924.5,1740.6,1096.4,1006.5,888.2,-2.0,-10.0,14.0,6682.0,-6138.0,9892.0,-9395.0,-17.0,12.0,21.0,5.0,1.0,6.0,9757.0,-13083.0,1150.0,-876.0,8.0,-6.0,2.0,1.0
2022-05-03 17:28:39.485413-07:00,1161.2,701.1,1114.7,1028.0,905.0,833.6,1760.8,1214.2,3475.9,3472.2,1132.2,912.7,1665.3,3471.0,1502.3,1390.3,3480.7,3480.7,1173.5,1759.8,2153.4,2884.0,1629.4,3496.6,3480.7,3481.9,670.9,924.5,1740.6,1096.4,1006.5,887.3,-2.0,11.0,7.0,6686.0,-6128.0,9893.0,-9397.0,7.0,-1.0,2.0,9.0,6.0,11.0,9758.0,-13081.0,1149.0,-876.0,-11.0,7.0,1.0,1.0
2022-05-03 17:28:39.604733-07:00,1161.2,703.6,1123.5,1034.9,905.0,833.6,1755.0,1211.5,3475.9,3479.5,1128.7,919.4,1665.3,3471.0,1499.5,1382.1,3481.9,3477.1,1173.5,1759.8,2152.4,2879.5,1630.3,3496.6,3485.6,3484.4,670.9,924.5,1745.4,1102.5,1011.6,887.3,1.0,-7.0,12.0,6685.0,-6135.0,9893.0,-9393.0,9.0,-10.0,-10.0,3.0,2.0,1.0,9753.0,-13085.0,1150.0,-877.0,6.0,-1.0,1.0,1.0
2022-05-03 17:28:39.606189-07:00,1162.1,698.7,1123.5,1034.9,902.5,839.4,1755.0,1211.5,3474.6,3484.4,1128.7,919.4,1666.3,3472.2,1499.5,1382.1,3481.9,3477.1,1177.0,1767.5,2152.4,2879.5,1622.8,3494.1,3485.6,3484.4,669.3,926.2,1745.4,1102.5,1007.3,890.7,-7.0,2.0,10.0,6686.0,-6133.0,9886.0,-9401.0,16.0,7.0,-18.0,4.0,1.0,6.0,9757.0,-13082.0,1150.0,-877.0,14.0,-3.0,-9.0,1.0
2022-05-03 17:28:39.635144-07:00,1162.1,698.7,1117.4,1041.8,902.5,839.4,1757.9,1206.2,3474.6,3484.4,1128.7,916.9,1666.3,3472.2,1502.3,1382.1,3488.0,3475.9,1177.0,1767.5,2151.4,2877.3,1622.8,3494.1,3480.7,3489.2,669.3,926.2,1742.6,1109.5,1007.3,890.7,-5.0,-4.0,10.0,6681.0,-6138.0,9881.0,-9407.0,-6.0,-6.0,-22.0,0.0,3.0,7.0,9756.0,-13083.0,1145.0,-881.0,-12.0,5.0,-16.0,1.0
2022-05-03 17:28:39.724581-07:00,1156.8,700.3,1117.4,1041.8,900.8,831.1,1757.9,1206.2,3473.4,3468.6,1128.7,916.9,1660.6,3484.4,1502.3,1382.1,3488.0,3475.9,1178.8,1757.0,2151.4,2877.3,1630.3,3502.7,3480.7,3489.2,675.8,926.2,1742.6,1109.5,1009.9,883.1,-2.0,-12.0,17.0,6674.0,-6143.0,9879.0,-9412.0,16.0,32.0,-15.0,5.0,1.0,5.0,9753.0,-13086.0,1140.0,-885.0,5.0,5.0,-13.0,1.0
2022-05-03 17:28:39.785852-07:00,1156.8,700.3,1120.9,1034.0,900.8,831.1,1756.0,1216.0,3473.4,3468.6,1123.5,910.1,1660.6,3484.4,1499.5,1385.7,3473.4,3472.2,1178.8,1757.0,2152.4,2880.6,1630.3,3502.7,3475.9,3477.1,675.8,926.2,1746.4,1105.1,1009.9,883.1,-24.0,-146.0,96.0,6661.0,-6096.0,9897.0,-9431.0,284.0,370.0,311.0,4.0,-39.0,4.0,9795.0,-13053.0,1155.0,-887.0,292.0,16.0,95.0,1.0
2022-05-03 17:28:39.786828-07:00,1163.8,700.3,1120.9,1034.0,899.1,835.2,1756.0,1216.0,3484.4,3477.1,1123.5,910.1,1669.1,3474.6,1499.5,1385.7,3473.4,3472.2,1177.0,1765.6,2152.4,2880.6,1645.4,3496.6,3475.9,3477.1,674.2,964.5,1746.4,1105.1,1011.6,891.5,22.0,28.0,4.0,6808.0,-5645.0,9833.0,-9671.0,1930.0,668.0,633.0,-1.0,20.0,-3.0,10109.0,-12811.0,1173.0,-867.0,1221.0,-36.0,112.0,1.0
2022-05-03 17:28:39.844653-07:00,1163.8,700.3,1121.7,1035.7,899.1,863.7,1859.6,1348.5,3484.4,3477.1,1130.5,919.4,1669.1,3473.4,1622.8,1404.0,3483.2,3485.6,1175.3,1765.6,2147.3,2879.5,1645.4,3496.6,3480.7,3475.9,712.6,964.5,1745.4,1100.8,1011.6,891.5,-47.0,7.0,26.0,7017.0,-5071.0,9593.0,-10072.0,1215.0,416.0,464.0,5.0,-6.0,32.0,10390.0,-12582.0,1194.0,-872.0,833.0,50.0,85.0,1.0
2022-05-03 17:28:39.874672-07:00,1171.8,731.5,1144.5,1035.7,903.4,863.7,1859.6,1348.5,3472.2,3488.0,1166.5,919.4,1667.2,3473.4,1622.8,1404.0,3483.2,3485.6,1175.3,1785.8,2147.3,2878.4,1646.4,3500.2,3480.7,3475.9,712.6,1019.4,1745.4,1113.9,1033.2,898.3,59.0,125.0,0.0,7147.0,-4668.0,9452.0,-10306.0,638.0,571.0,174.0,20.0,34.0,-17.0,10593.0,-12412.0,1187.0,-875.0,321.0,-57.0,-18.0,1.0
2022-05-03 17:28:39.934798-07:00,1171.8,731.5,1144.5,1043.5,903.4,881.4,1876.2,1360.3,3472.2,3488.0,1166.5,923.7,1667.2,3475.9,1776.2,1431.4,3484.4,3474.6,1175.3,1785.8,2165.6,2878.4,1646.4,3500.2,3490.5,3474.6,722.5,1019.4,1733.0,1113.9,1033.2,898.3,-77.0,42.0,5.0,7036.0,-4494.0,9449.0,-10463.0,86.0,169.0,-393.0,16.0,34.0,47.0,10606.0,-12403.0,1173.0,-868.0,-168.0,19.0,16.0,1.0
2022-05-03 17:28:40.054777-07:00,1165.6,773.6,1167.4,1043.5,896.6,881.4,1876.2,1360.3,3478.3,3469.8,1190.3,923.7,1668.2,3475.9,1776.2,1431.4,3484.4,3474.6,1175.3,1790.7,2165.6,2880.6,1622.8,3507.5,3490.5,3474.6,722.5,1027.1,1733.0,1121.7,1058.2,898.3,15.0,-11.0,-11.0,6912.0,-4570.0,9359.0,-10591.0,297.0,20.0,-586.0,-5.0,-2.0,-24.0,10556.0,-12445.0,1170.0,-865.0,7.0,-83.0,-70.0,1.0
2022-05-03 17:28:40.085865-07:00,1165.6,773.6,1167.4,1052.2,896.6,883.9,1857.6,1350.3,3478.3,3469.8,1190.3,917.7,1668.2,3481.9,1728.2,1411.3,3484.4,3484.4,1177.0,1790.7,2151.4,2880.6,1622.8,3507.5,3486.8,3480.7,715.1,1027.1,1743.5,1121.7,1058.2,898.3,-17.0,-20.0,-2.0,6793.0,-4631.0,9205.0,-10776.0,268.0,6.0,-427.0,7.0,3.0,14.0,10574.0,-12435.0,1116.0,-863.0,40.0,-58.0,-72.0,1.0
2022-05-03 17:28:40.086866-07:00,1167.4,757.9,1157.7,1047.0,897.4,883.9,1857.6,1350.3,3480.7,3479.5,1182.3,920.3,1662.5,3481.9,1728.2,1411.3,3484.4,3484.4,1177.0,1802.3,2162.6,2872.8,1616.2,3496.6,3486.8,3480.7,715.1,1022.8,1734.9,1110.4,1044.4,901.7,-9.0,-26.0,-7.0,6729.0,-4678.0,9114.0,-10872.0,61.0,-46.0,-154.0,7.0,7.0,13.0,10574.0,-12437.0,1093.0,-870.0,-41.0,6.0,-18.0,1.0
2022-05-03 17:28:40.144662-07:00,1167.4,757.9,1157.7,1047.0,900.0,872.1,1860.6,1355.8,3480.7,3479.5,1182.3,920.3,1666.3,3478.3,1699.5,1399.4,3467.4,3472.2,1168.2,1811.9,2162.6,2872.8,1616.2,3496.6,3480.7,3475.9,711.0,1015.9,1734.9,1110.4,1044.4,901.7,-3.0,-10.0,-7.0,6724.0,-4708.0,9092.0,-10881.0,-15.0,-72.0,9.0,2.0,1.0,-1.0,10563.0,-12446.0,1092.0,-871.0,-3.0,-5.0,-7.0,1.0
2022-05-03 17:28:40.174517-07:00,1169.1,749.6,1146.3,1047.8,900.0,872.1,1860.6,1355.8,3478.3,3479.5,1179.7,919.4,1666.3,3478.3,1699.5,1399.4,3467.4,3472.2,1168.2,1811.9,2153.4,2872.8,1608.7,3494.1,3480.7,3475.9,711.0,1015.9,1739.7,1104.3,1028.0,900.8,-9.0,0.0,7.0,6743.0,-4730.0,9089.0,-10862.0,-26.0,-76.0,27.0,6.0,2.0,15.0,10566.0,-12444.0,1088.0,-870.0,12.0,-8.0,-12.0,1.0
2022-05-03 17:28:40.235682-07:00,1169.1,749.6,1146.3,1047.8,903.4,872.1,1852.8,1345.8,3478.3,3479.5,1179.7,919.4,1671.0,3474.6,1686.2,1401.2,3473.4,3477.1,1175.3,1811.9,2153.4,2872.8,1608.7,3494.1,3480.7,3477.1,712.6,1009.0,1739.7,1104.3,1028.0,900.8,2.0,2.0,6.0,6769.0,-4756.0,9082.0,-10840.0,-21.0,-88.0,2.0,2.0,0.0,2.0,10567.0,-12444.0,1084.0,-873.0,16.0,-17.0,-20.0,1.0
2022-05-03 17:28:40.294666-07:00,1171.8,750.5,1149.8,1047.0,903.4,872.1,1852.8,1345.8,3469.8,3480.7,1175.3,916.9,1671.0,3474.6,1686.2,1401.2,3473.4,3477.1,1175.3,1811.9,2168.7,2877.3,1603.0,3496.6,3480.7,3477.1,712.6,1009.0,1743.5,1102.5,1015.9,899.1,-6.0,-5.0,-1.0,6788.0,-4783.0,9067.0,-10829.0,-5.0,-97.0,-17.0,8.0,2.0,6.0,10568.0,-12443.0,1074.0,-877.0,-6.0,2.0,-21.0,1.0
2022-05-03 17:28:40.324677-07:00,1171.8,750.5,1149.8,1047.0,900.0,860.4,1853.7,1354.9,3469.8,3480.7,1175.3,916.9,1672.9,3481.9,1677.6,1401.2,3486.8,3478.3,1183.2,1814.9,2168.7,2877.3,1603.0,3496.6,3479.5,3480.7,709.3,1003.0,1743.5,1102.5,1015.9,899.1,-2.0,-16.0,13.0,6802.0,-4806.0,9062.0,-10815.0,-47.0,-24.0,42.0,6.0,1.0,5.0,10568.0,-12444.0,1067.0,-882.0,-8.0,-4.0,-13.0,1.0
2022-05-03 17:28:40.385602-07:00,1164.7,741.4,1142.7,1042.6,900.0,860.4,1853.7,1352.1,3471.0,3481.9,1176.2,920.3,1672.9,3481.9,1677.6,1404.0,3478.3,3478.3,1183.2,1814.9,2155.5,2880.6,1595.5,3505.1,3488.0,3480.7,709.3,1003.0,1741.6,1095.6,1016.8,895.7,1.0,0.0,11.0,6815.0,-4804.0,9080.0,-10792.0,-27.0,-10.0,50.0,9.0,-1.0,7.0,10567.0,-12444.0,1065.0,-882.0,-3.0,-9.0,5.0,1.0
2022-05-03 17:28:40.444810-07:00,1162.1,741.4,1142.7,1042.6,899.1,862.1,1860.6,1352.1,3474.6,3481.9,1176.2,920.3,1661.5,3479.5,1669.1,1404.0,3478.3,3478.3,1179.7,1799.4,2155.5,2880.6,1595.5,3491.7,3488.0,3481.9,704.4,999.6,1741.6,1095.6,1016.8,891.5,-8.0,1.0,7.0,6818.0,-4801.0,9088.0,-10784.0,-8.0,-9.0,5.0,7.0,6.0,13.0,10570.0,-12443.0,1063.0,-879.0,7.0,-6.0,6.0,1.0
2022-05-03 17:28:40.474612-07:00,1162.1,744.7,1141.0,1048.7,899.1,862.1,1860.6,1353.1,3474.6,3480.7,1172.6,918.6,1661.5,3479.5,1669.1,1397.6,3480.7,3478.3,1179.7,1799.4,2156.5,2873.9,1594.6,3491.7,3483.2,3481.9,704.4,999.6,1739.7,1096.4,1014.2,891.5,-6.0,2.0,0.0,6823.0,-4804.0,9089.0,-10779.0,-22.0,-24.0,14.0,7.0,4.0,10.0,10564.0,-12448.0,1064.0,-878.0,-34.0,8.0,11.0,1.0
2022-05-03 17:28:40.534813-07:00,1156.8,744.7,1141.0,1048.7,898.3,856.2,1851.8,1353.1,3472.2,3480.7,1172.6,918.6,1665.3,3472.2,1665.3,1397.6,3480.7,3479.5,1174.4,1808.1,2156.5,2873.9,1594.6,3490.5,3483.2,3477.1,702.8,992.7,1739.7,1096.4,1014.2,900.0,0.0,5.0,3.0,6830.0,-4814.0,9096.0,-10765.0,-33.0,-35.0,17.0,5.0,6.0,7.0,10553.0,-12456.0,1070.0,-876.0,-25.0,13.0,13.0,1.0
2022-05-03 17:28:40.594650-07:00,1156.8,743.9,1142.7,1056.5,898.3,856.2,1851.8,1354.0,3472.2,3467.4,1173.5,913.5,1665.3,3472.2,1665.3,1409.4,3478.3,3479.5,1174.4,1808.1,2149.3,2869.4,1588.9,3490.5,3480.7,3477.1,702.8,992.7,1740.6,1099.0,1011.6,900.0,-12.0,-4.0,8.0,6838.0,-4826.0,9100.0,-10751.0,-8.0,-33.0,19.0,2.0,3.0,9.0,10554.0,-12455.0,1072.0,-875.0,15.0,-4.0,1.0,1.0
2022-05-03 17:28:40.624829-07:00,1157.7,741.4,1142.7,1056.5,903.4,854.5,1843.0,1354.0,3479.5,3488.0,1173.5,913.5,1665.3,3480.7,1664.4,1409.4,3478.3,3483.2,1178.8,1809.0,2149.3,2869.4,1588.0,3497.8,3480.7,3483.2,703.6,1001.3,1740.6,1099.0,1006.5,894.1,-4.0,5.0,2.0,6849.0,-4829.0,9098.0,-10744.0,-27.0,-35.0,10.0,6.0,6.0,8.0,10555.0,-12454.0,1072.0,-875.0,-15.0,7.0,0.0,1.0
2022-05-03 17:28:40.684623-07:00,1157.7,741.4,1141.9,1049.6,903.4,854.5,1840.1,1345.8,3479.5,3488.0,1175.3,916.9,1665.3,3480.7,1665.3,1401.2,3488.0,3478.3,1178.8,1809.0,2160.5,2879.5,1588.0,3497.8,3488.0,3481.9,703.6,1001.3,1746.4,1095.6,1006.5,894.1,-4.0,-10.0,4.0,6853.0,-4843.0,9102.0,-10732.0,-25.0,-26.0,8.0,7.0,2.0,3.0,10549.0,-12459.0,1073.0,-875.0,-8.0,-3.0,-1.0,1.0
2022-05-03 17:28:40.744827-07:00,1163.0,741.4,1141.9,1049.6,895.7,854.5,1840.1,1345.8,3464.9,3466.1,1175.3,916.9,1665.3,3474.6,1665.3,1401.2,3488.0,3478.3,1171.8,1806.1,2160.5,2879.5,1582.4,3492.9,3488.0,3481.9,698.7,997.9,1746.4,1095.6,1011.6,894.9,-6.0,-2.0,8.0,6859.0,-4851.0,9107.0,-10720.0,-13.0,-19.0,21.0,6.0,2.0,12.0,10550.0,-12459.0,1072.0,-875.0,10.0,-8.0,4.0,1.0
2022-05-03 17:28:40.774608-07:00,1163.0,741.4,1130.5,1040.9,895.7,854.5,1843.0,1336.8,3464.9,3466.1,1178.8,918.6,1665.3,3474.6,1664.4,1398.5,3471.0,3483.2,1171.8,1806.1,2158.5,2873.9,1582.4,3492.9,3479.5,3484.4,698.7,997.9,1740.6,1092.1,1011.6,894.9,-8.0,-2.0,7.0,6867.0,-4849.0,9109.0,-10714.0,-18.0,1.0,23.0,7.0,2.0,12.0,10552.0,-12457.0,1072.0,-875.0,5.0,-9.0,3.0,1.0
2022-05-03 17:28:40.864588-07:00,1157.7,739.7,1130.5,1040.9,895.7,855.3,1843.0,1336.8,3474.6,3477.1,1178.8,918.6,1669.1,3477.1,1664.4,1398.5,3471.0,3483.2,1173.5,1805.2,2158.5,2873.9,1576.8,3486.8,3479.5,3484.4,695.4,986.7,1740.6,1092.1,1005.6,898.3,0.0,0.0,6.0,6870.0,-4848.0,9117.0,-10706.0,-16.0,8.0,13.0,3.0,6.0,10.0,10550.0,-12459.0,1072.0,-875.0,-8.0,4.0,7.0,1.0
2022-05-03 17:28:40.894595-07:00,1157.7,739.7,1141.9,1028.0,895.7,855.3,1829.4,1342.2,3474.6,3477.1,1175.3,918.6,1669.1,3477.1,1655.8,1392.1,3477.1,3479.5,1173.5,1805.2,2160.5,2878.4,1576.8,3486.8,3479.5,3474.6,695.4,986.7,1736.8,1090.3,1005.6,898.3,-2.0,-10.0,13.0,6872.0,-4844.0,9122.0,-10703.0,-8.0,12.0,20.0,5.0,-1.0,11.0,10550.0,-12459.0,1072.0,-875.0,-7.0,-1.0,3.0,1.0
2022-05-03 17:28:40.924715-07:00,1163.8,738.9,1135.7,1028.0,899.1,852.0,1829.4,1342.2,3478.3,3478.3,1170.0,918.6,1668.2,3474.6,1655.8,1392.1,3477.1,3479.5,1171.8,1796.5,2160.5,2872.8,1579.6,3500.2,3479.5,3474.6,700.3,990.2,1736.8,1095.6,1007.3,891.5,-2.0,1.0,4.0,6874.0,-4840.0,9128.0,-10697.0,-24.0,3.0,5.0,1.0,4.0,8.0,10545.0,-12463.0,1073.0,-875.0,-23.0,7.0,6.0,1.0
2022-05-03 17:28:40.984719-07:00,1163.8,738.9,1135.7,1040.9,899.1,857.0,1845.9,1335.0,3478.3,3478.3,1170.0,922.8,1668.2,3467.4,1656.8,1396.7,3479.5,3484.4,1174.4,1796.5,2152.4,2872.8,1579.6,3500.2,3483.2,3490.5,697.0,990.2,1739.7,1095.6,1007.3,891.5,-9.0,-5.0,5.0,6872.0,-4844.0,9134.0,-10692.0,-10.0,6.0,4.0,3.0,4.0,12.0,10542.0,-12465.0,1073.0,-874.0,-10.0,2.0,2.0,1.0
2022-05-03 17:28:41.044776-07:00,1163.0,740.6,1140.1,1040.9,891.5,857.0,1845.9,1335.0,3481.9,3475.9,1173.5,922.8,1666.3,3467.4,1656.8,1396.7,3479.5,3484.4,1174.4,1803.2,2152.4,2878.4,1573.9,3494.1,3483.2,3490.5,697.0,985.9,1739.7,1096.4,1010.8,894.9,2.0,-9.0,6.0,6873.0,-4847.0,9135.0,-10689.0,-22.0,-19.0,-3.0,3.0,3.0,5.0,10538.0,-12468.0,1073.0,-874.0,-2.0,-3.0,2.0,1.0
2022-05-03 17:28:41.104846-07:00,1163.0,740.6,1140.1,1037.5,891.5,847.0,1841.1,1344.9,3481.9,3475.9,1173.5,916.9,1666.3,3478.3,1651.1,1399.4,3480.7,3477.1,1172.6,1803.2,2153.4,2878.4,1573.9,3494.1,3479.5,3484.4,698.7,985.9,1747.3,1096.4,1010.8,894.9,-5.0,9.0,3.0,6874.0,-4851.0,9136.0,-10686.0,-9.0,-13.0,-2.0,4.0,5.0,14.0,10542.0,-12466.0,1072.0,-873.0,-5.0,0.0,7.0,1.0
2022-05-03 17:28:41.134893-07:00,1160.3,742.2,1135.7,1037.5,891.5,847.0,1841.1,1344.9,3472.2,3478.3,1169.1,916.9,1665.3,3478.3,1651.1,1399.4,3480.7,3477.1,1172.6,1807.1,2153.4,2882.9,1573.0,3500.2,3479.5,3484.4,698.7,986.7,1747.3,1092.1,1003.0,891.5,-4.0,-16.0,10.0,6874.0,-4864.0,9134.0,-10681.0,14.0,-24.0,-9.0,3.0,-1.0,8.0,10540.0,-12468.0,1072.0,-873.0,4.0,-4.0,3.0,1.0
2022-05-03 17:28:41.194666-07:00,1160.3,742.2,1135.7,1042.6,900.8,849.5,1842.0,1345.8,3472.2,3478.3,1169.1,915.2,1661.5,3484.4,1649.2,1400.3,3478.3,3490.5,1170.9,1805.2,2154.4,2882.9,1573.0,3500.2,3477.1,3481.9,702.8,985.9,1743.5,1092.1,1003.0,891.5,-5.0,-4.0,4.0,6882.0,-4864.0,9128.0,-10681.0,-7.0,-12.0,18.0,1.0,2.0,13.0,10541.0,-12467.0,1072.0,-873.0,-2.0,-5.0,8.0,1.0
2022-05-03 17:28:41.254781-07:00,1160.3,737.3,1132.2,1044.4,900.8,849.5,1842.0,1345.8,3475.9,3480.7,1177.0,922.8,1661.5,3484.4,1649.2,1400.3,3478.3,3490.5,1170.9,1805.2,2162.6,2876.1,1572.1,3496.6,3477.1,3481.9,702.8,985.9,1748.3,1095.6,1000.5,888.2,-6.0,-2.0,3.0,6887.0,-4865.0,9128.0,-10678.0,-6.0,-9.0,6.0,5.0,5.0,9.0,10541.0,-12466.0,1073.0,-872.0,-9.0,-7.0,5.0,1.0
2022-05-03 17:28:41.284530-07:00,1160.3,737.3,1132.2,1044.4,900.0,854.5,1842.0,1340.4,3475.9,3480.7,1177.0,922.8,1671.9,3479.5,1654.9,1396.7,3488.0,3480.7,1184.1,1809.0,2162.6,2876.1,1572.1,3496.6,3477.1,3483.2,695.4,985.0,1748.3,1095.6,1000.5,888.2,-5.0,-2.0,7.0,6892.0,-4867.0,9127.0,-10675.0,-8.0,-18.0,11.0,2.0,2.0,7.0,10541.0,-12466.0,1073.0,-872.0,-3.0,-6.0,0.0,1.0
2022-05-03 17:28:41.344658-07:00,1157.7,730.7,1143.6,1034.9,900.0,854.5,1842.0,1340.4,3481.9,3477.1,1168.2,921.1,1671.9,3479.5,1654.9,1396.7,3488.0,3480.7,1184.1,1809.0,2156.5,2881.8,1576.8,3495.3,3477.1,3483.2,695.4,985.0,1745.4,1089.5,1003.0,890.7,0.0,5.0,2.0,6895.0,-4866.0,9127.0,-10673.0,3.0,-8.0,3.0,9.0,6.0,16.0,10541.0,-12467.0,1072.0,-871.0,-9.0,3.0,4.0,1.0
2022-05-03 17:28:41.374713-07:00,1157.7,730.7,1143.6,1034.9,900.0,850.3,1838.2,1338.6,3481.9,3477.1,1168.2,921.1,1667.2,3479.5,1657.7,1400.3,3478.3,3477.1,1170.9,1801.3,2156.5,2881.8,1576.8,3495.3,3474.6,3489.2,691.3,984.2,1745.4,1089.5,1003.0,890.7,3.0,-7.0,4.0,6896.0,-4867.0,9126.0,-10673.0,4.0,8.0,6.0,3.0,3.0,4.0,10541.0,-12467.0,1072.0,-871.0,12.0,-2.0,-2.0,1.0
2022-05-03 17:28:41.434785-07:00,1162.1,733.2,1134.9,1042.6,900.0,850.3,1838.2,1338.6,3483.2,3484.4,1165.6,919.4,1667.2,3479.5,1657.7,1400.3,3478.3,3477.1,1170.9,1801.3,2157.5,2872.8,1573.9,3496.6,3474.6,3489.2,691.3,984.2,1740.6,1090.3,1006.5,894.9,-12.0,9.0,6.0,6892.0,-4860.0,9131.0,-10675.0,-9.0,15.0,7.0,3.0,8.0,18.0,10540.0,-12467.0,1072.0,-871.0,-14.0,9.0,5.0,1.0
2022-05-03 17:28:41.525316-07:00,1160.3,733.2,1134.9,1042.6,900.0,847.8,1840.1,1348.5,3472.2,3484.4,1165.6,919.4,1672.9,3480.7,1648.3,1396.7,3484.4,3483.2,1170.9,1802.3,2157.5,2872.8,1573.9,3500.2,3481.9,3483.2,702.8,986.7,1740.6,1090.3,1006.5,897.4,-7.0,-6.0,3.0,6889.0,-4861.0,9135.0,-10672.0,-11.0,0.0,-5.0,4.0,0.0,6.0,10532.0,-12474.0,1073.0,-871.0,-15.0,8.0,4.0,1.0
2022-05-03 17:28:41.526400-07:00,1160.3,738.1,1132.2,1042.6,900.0,847.8,1840.1,1342.2,3472.2,3473.4,1175.3,921.1,1672.9,3480.7,1648.3,1395.7,3473.4,3483.2,1170.9,1802.3,2165.6,2869.4,1569.3,3500.2,3479.5,3483.2,702.8,986.7,1735.8,1092.9,1000.5,897.4,-5.0,-7.0,-1.0,6890.0,-4863.0,9135.0,-10671.0,-2.0,-20.0,-4.0,2.0,1.0,7.0,10530.0,-12475.0,1073.0,-871.0,1.0,-10.0,2.0,1.0
2022-05-03 17:28:41.615411-07:00,1161.2,738.1,1132.2,1042.6,909.3,842.8,1816.8,1342.2,3474.6,3473.4,1175.3,921.1,1663.4,3472.2,1657.7,1395.7,3473.4,3483.2,1175.3,1802.3,2165.6,2869.4,1569.3,3486.8,3479.5,3490.5,696.2,992.7,1735.8,1092.9,1000.5,883.9,1.0,-3.0,10.0,6896.0,-4870.0,9130.0,-10668.0,10.0,-5.0,6.0,3.0,0.0,5.0,10534.0,-12473.0,1071.0,-869.0,29.0,-22.0,-5.0,1.0
2022-05-03 17:28:41.616989-07:00,1161.2,729.9,1126.1,1036.6,909.3,842.8,1816.8,1340.4,3474.6,3472.2,1169.1,917.7,1663.4,3472.2,1657.7,1397.6,3479.5,3483.2,1175.3,1802.3,2154.4,2873.9,1570.2,3486.8,3483.2,3490.5,696.2,992.7,1738.7,1095.6,997.9,883.9,-2.0,1.0,14.0,6896.0,-4869.0,9129.0,-10669.0,-6.0,5.0,-3.0,4.0,3.0,10.0,10540.0,-12468.0,1068.0,-866.0,6.0,-9.0,4.0,1.0
2022-05-03 17:28:41.674615-07:00,1160.3,729.9,1126.1,1036.6,901.7,852.0,1833.3,1340.4,3466.1,3472.2,1169.1,917.7,1667.2,3483.2,1648.3,1397.6,3479.5,3479.5,1174.4,1807.1,2154.4,2873.9,1570.2,3502.7,3483.2,3478.3,692.1,998.7,1738.7,1095.6,997.9,892.4,-7.0,-3.0,6.0,6895.0,-4869.0,9132.0,-10668.0,-18.0,0.0,-1.0,5.0,3.0,9.0,10536.0,-12472.0,1070.0,-866.0,-24.0,12.0,10.0,1.0
2022-05-03 17:28:41.734673-07:00,1160.3,739.7,1130.5,1046.1,901.7,852.0,1834.3,1339.5,3466.1,3475.9,1165.6,911.8,1667.2,3483.2,1649.2,1395.7,3480.7,3477.1,1174.4,1807.1,2160.5,2877.3,1566.5,3502.7,3488.0,3473.4,692.1,998.7,1738.7,1091.2,999.6,892.4,-6.0,-2.0,2.0,6894.0,-4870.0,9133.0,-10667.0,15.0,-9.0,-6.0,1.0,3.0,3.0,10530.0,-12476.0,1073.0,-866.0,7.0,-6.0,2.0,1.0
2022-05-03 17:28:41.764809-07:00,1160.3,734.0,1130.5,1046.1,902.5,847.8,1834.3,1339.5,3489.2,3488.0,1165.6,911.8,1662.5,3481.9,1649.2,1395.7,3480.7,3477.1,1175.3,1799.4,2160.5,2877.3,1563.7,3502.7,3488.0,3473.4,692.1,979.0,1738.7,1091.2,1003.0,891.5,-6.0,-8.0,5.0,6897.0,-4872.0,9129.0,-10668.0,4.0,-16.0,6.0,3.0,1.0,6.0,10532.0,-12475.0,1073.0,-866.0,14.0,-5.0,-1.0,1.0
2022-05-03 17:28:41.825220-07:00,1160.3,734.0,1133.1,1040.9,902.5,847.8,1827.5,1331.4,3489.2,3488.0,1166.5,920.3,1662.5,3481.9,1651.1,1394.8,3479.5,3485.6,1175.3,1799.4,2156.5,2878.4,1563.7,3502.7,3477.1,3477.1,692.1,979.0,1739.7,1092.1,1003.0,891.5,-6.0,1.0,6.0,6900.0,-4871.0,9129.0,-10666.0,-1.0,-13.0,3.0,4.0,0.0,15.0,10536.0,-12471.0,1071.0,-865.0,-5.0,-4.0,3.0,1.0
2022-05-03 17:28:41.885002-07:00,1168.2,735.6,1133.1,1040.9,898.3,846.1,1827.5,1331.4,3469.8,3483.2,1166.5,920.3,1670.1,3474.6,1651.1,1394.8,3479.5,3485.6,1176.2,1798.4,2156.5,2878.4,1570.2,3497.8,3477.1,3477.1,695.4,981.6,1739.7,1092.1,997.9,888.2,0.0,0.0,8.0,6903.0,-4875.0,9127.0,-10664.0,5.0,-1.0,-2.0,3.0,5.0,9.0,10532.0,-12474.0,1071.0,-865.0,-9.0,2.0,4.0,1.0
2022-05-03 17:28:41.914762-07:00,1168.2,735.6,1127.0,1039.2,898.3,846.1,1826.5,1344.0,3469.8,3483.2,1170.9,918.6,1670.1,3474.6,1646.4,1396.7,3488.0,3469.8,1176.2,1798.4,2154.4,2881.8,1570.2,3497.8,3488.0,3477.1,695.4,981.6,1739.7,1090.3,997.9,888.2,-9.0,-3.0,6.0,6903.0,-4875.0,9127.0,-10664.0,10.0,-6.0,-3.0,4.0,0.0,11.0,10532.0,-12474.0,1071.0,-865.0,-5.0,3.0,2.0,1.0
2022-05-03 17:28:42.004804-07:00,1160.3,734.0,1127.0,1039.2,899.1,850.3,1826.5,1344.0,3467.4,3475.9,1170.9,918.6,1663.4,3469.8,1646.4,1396.7,3488.0,3469.8,1174.4,1807.1,2154.4,2881.8,1563.7,3499.0,3488.0,3477.1,697.0,981.6,1739.7,1090.3,999.6,878.0,-4.0,1.0,4.0,6904.0,-4874.0,9125.0,-10666.0,-12.0,-10.0,7.0,2.0,6.0,9.0,10532.0,-12474.0,1071.0,-865.0,-2.0,5.0,3.0,1.0
2022-05-03 17:28:42.035222-07:00,1160.3,734.0,1132.2,1042.6,899.1,846.1,1823.6,1337.7,3467.4,3475.9,1166.5,918.6,1663.4,3473.4,1642.6,1397.6,3474.6,3477.1,1174.4,1807.1,2151.4,2870.5,1563.7,3499.0,3486.8,3477.1,694.6,981.6,1739.7,1092.1,999.6,878.0,-3.0,-2.0,6.0,6903.0,-4876.0,9129.0,-10662.0,18.0,-7.0,8.0,3.0,4.0,9.0,10534.0,-12473.0,1071.0,-865.0,12.0,-4.0,5.0,1.0
2022-05-03 17:28:42.065111-07:00,1156.8,728.2,1126.1,1042.6,895.7,846.1,1823.6,1337.7,3475.9,3466.1,1168.2,918.6,1671.0,3473.4,1642.6,1397.6,3474.6,3477.1,1174.4,1792.6,2151.4,2869.4,1563.7,3497.8,3486.8,3477.1,694.6,978.2,1739.7,1091.2,1005.6,888.2,-6.0,1.0,9.0,6905.0,-4874.0,9125.0,-10664.0,-13.0,2.0,-1.0,3.0,3.0,12.0,10541.0,-12467.0,1071.0,-865.0,11.0,-5.0,-2.0,1.0
2022-05-03 17:28:42.124669-07:00,1156.8,728.2,1126.1,1033.2,895.7,849.5,1829.4,1332.3,3475.9,3466.1,1168.2,917.7,1671.0,3479.5,1642.6,1396.7,3485.6,3479.5,1176.2,1792.6,2148.3,2869.4,1563.7,3497.8,3490.5,3477.1,695.4,978.2,1735.8,1091.2,1005.6,888.2,-5.0,-4.0,8.0,6904.0,-4876.0,9128.0,-10662.0,-3.0,8.0,0.0,1.0,2.0,12.0,10541.0,-12467.0,1071.0,-865.0,-3.0,0.0,-1.0,1.0
2022-05-03 17:28:42.184979-07:00,1158.6,732.3,1130.5,1033.2,896.6,849.5,1829.4,1332.3,3471.0,3475.9,1165.6,917.7,1660.6,3479.5,1642.6,1396.7,3485.6,3479.5,1176.2,1807.1,2148.3,2876.1,1562.7,3499.0,3490.5,3477.1,695.4,980.7,1735.8,1089.5,996.2,891.5,-8.0,0.0,7.0,6905.0,-4875.0,9126.0,-10664.0,-6.0,9.0,-5.0,2.0,0.0,11.0,10540.0,-12468.0,1071.0,-865.0,-4.0,1.0,3.0,1.0
2022-05-03 17:28:42.215180-07:00,1158.6,732.3,1130.5,1038.3,896.6,846.1,1819.7,1334.1,3471.0,3475.9,1165.6,920.3,1660.6,3468.6,1649.2,1401.2,3477.1,3471.0,1171.8,1807.1,2148.3,2876.1,1562.7,3499.0,3473.4,3481.9,696.2,980.7,1741.6,1089.5,996.2,891.5,-5.0,-4.0,4.0,6903.0,-4876.0,9129.0,-10662.0,8.0,7.0,-3.0,6.0,2.0,11.0,10538.0,-12469.0,1071.0,-865.0,-2.0,-1.0,0.0,1.0
2022-05-03 17:28:42.274742-07:00,1158.6,730.7,1134.0,1039.2,898.3,846.1,1819.7,1334.1,3474.6,3475.9,1164.7,915.2,1664.4,3468.6,1649.2,1401.2,3477.1,3471.0,1171.8,1798.4,2151.4,2878.4,1557.1,3503.9,3473.4,3481.9,696.2,979.0,1741.6,1088.6,1009.9,889.8,-7.0,-6.0,4.0,6905.0,-4876.0,9126.0,-10662.0,-16.0,-6.0,-5.0,2.0,2.0,8.0,10538.0,-12470.0,1071.0,-865.0,-6.0,-2.0,0.0,1.0
2022-05-03 17:28:42.364614-07:00,1158.6,730.7,1134.0,1039.2,897.4,845.3,1826.5,1333.2,3474.6,3475.9,1164.7,915.2,1663.4,3474.6,1646.4,1396.7,3474.6,3485.6,1185.0,1803.2,2151.4,2878.4,1557.1,3503.9,3486.8,3483.2,692.9,976.5,1741.6,1088.6,1009.9,889.8,-5.0,3.0,8.0,6906.0,-4876.0,9126.0,-10662.0,2.0,-2.0,7.0,4.0,4.0,9.0,10538.0,-12470.0,1071.0,-865.0,3.0,-4.0,6.0,1.0
2022-05-03 17:28:42.365852-07:00,1156.8,730.7,1136.6,1038.3,897.4,845.3,1826.5,1333.2,3479.5,3479.5,1159.4,920.3,1663.4,3474.6,1646.4,1396.7,3474.6,3485.6,1185.0,1803.2,2151.4,2869.4,1567.4,3486.8,3486.8,3483.2,692.9,976.5,1736.8,1091.2,999.6,885.6,-9.0,0.0,8.0,6906.0,-4875.0,9125.0,-10663.0,11.0,4.0,-6.0,2.0,1.0,16.0,10538.0,-12470.0,1071.0,-865.0,2.0,-2.0,1.0,1.0
2022-05-03 17:28:42.424739-07:00,1156.8,730.7,1136.6,1038.3,896.6,848.6,1818.7,1331.4,3479.5,3479.5,1159.4,920.3,1661.5,3481.9,1649.2,1396.7,3467.4,3483.2,1176.2,1792.6,2151.4,2869.4,1567.4,3486.8,3477.1,3484.4,711.8,973.1,1736.8,1091.2,999.6,885.6,-8.0,-5.0,8.0,6906.0,-4875.0,9125.0,-10663.0,2.0,5.0,1.0,1.0,3.0,8.0,10536.0,-12471.0,1071.0,-865.0,-9.0,1.0,2.0,1.0
2022-05-03 17:28:42.484998-07:00,1155.9,733.2,1127.9,1037.5,896.6,848.6,1818.7,1331.4,3477.1,3462.5,1171.8,918.6,1661.5,3481.9,1649.2,1396.7,3467.4,3483.2,1176.2,1792.6,2150.4,2869.4,1564.6,3492.9,3477.1,3484.4,711.8,973.1,1743.5,1088.6,995.3,891.5,-8.0,-2.0,4.0,6907.0,-4874.0,9124.0,-10664.0,-11.0,4.0,-7.0,3.0,6.0,6.0,10536.0,-12471.0,1071.0,-865.0,1.0,0.0,-1.0,1.0
2022-05-03 17:28:42.544649-07:00,1155.9,733.2,1127.9,1037.5,903.4,841.1,1826.5,1331.4,3477.1,3462.5,1171.8,918.6,1666.3,3474.6,1641.6,1396.7,3481.9,3479.5,1164.7,1802.3,2150.4,2869.4,1564.6,3492.9,3477.1,3481.9,696.2,973.1,1743.5,1088.6,995.3,891.5,-5.0,-2.0,7.0,6908.0,-4876.0,9124.0,-10663.0,-4.0,-4.0,1.0,5.0,0.0,8.0,10536.0,-12471.0,1070.0,-864.0,6.0,-6.0,3.0,1.0
2022-05-03 17:28:42.604795-07:00,1154.2,724.9,1135.7,1036.6,903.4,841.1,1826.5,1334.1,3469.8,3474.6,1170.0,920.3,1666.3,3474.6,1641.6,1392.1,3486.8,3479.5,1164.7,1802.3,2150.4,2869.4,1561.8,3505.1,3483.2,3481.9,696.2,973.1,1733.0,1086.8,998.7,887.3,-6.0,-6.0,9.0,6908.0,-4875.0,9122.0,-10665.0,5.0,-6.0,-10.0,0.0,2.0,9.0,10536.0,-12471.0,1070.0,-864.0,6.0,0.0,2.0,1.0
2022-05-03 17:28:42.664620-07:00,1158.6,724.9,1135.7,1036.6,900.0,847.0,1812.9,1334.1,3483.2,3474.6,1170.0,920.3,1665.3,3478.3,1639.8,1392.1,3486.8,3483.2,1169.1,1792.6,2150.4,2869.4,1561.8,3506.3,3483.2,3483.2,697.0,973.1,1733.0,1086.8,998.7,892.4,-2.0,2.0,12.0,6913.0,-4873.0,9118.0,-10666.0,29.0,-4.0,11.0,3.0,3.0,8.0,10536.0,-12472.0,1070.0,-864.0,3.0,7.0,8.0,1.0
2022-05-03 17:28:42.665858-07:00,1158.6,729.0,1118.2,1040.9,900.0,847.0,1812.9,1317.8,3483.2,3478.3,1168.2,915.2,1665.3,3478.3,1639.8,1394.8,3480.7,3483.2,1169.1,1792.6,2147.3,2878.4,1562.7,3506.3,3480.7,3483.2,697.0,973.1,1736.8,1086.8,998.7,892.4,-11.0,-3.0,5.0,6917.0,-4867.0,9110.0,-10672.0,20.0,-6.0,13.0,0.0,5.0,14.0,10536.0,-12471.0,1070.0,-864.0,8.0,4.0,0.0,1.0
2022-05-03 17:28:42.724699-07:00,1156.8,729.0,1118.2,1040.9,900.0,846.1,1815.8,1317.8,3480.7,3478.3,1168.2,915.2,1656.8,3471.0,1643.5,1394.8,3480.7,3481.9,1177.0,1795.5,2147.3,2878.4,1562.7,3499.0,3480.7,3477.1,693.8,973.9,1736.8,1086.8,998.7,892.4,-4.0,-6.0,5.0,6928.0,-4862.0,9106.0,-10672.0,34.0,-5.0,23.0,2.0,2.0,8.0,10539.0,-12469.0,1070.0,-865.0,22.0,-3.0,0.0,1.0
2022-05-03 17:28:42.784934-07:00,1156.8,724.9,1133.1,1030.6,900.0,846.1,1815.8,1364.8,3480.7,3475.9,1172.6,911.8,1656.8,3471.0,1643.5,1404.9,3481.9,3481.9,1177.0,1795.5,2147.3,2873.9,1564.6,3499.0,3492.9,3477.1,693.8,973.9,1732.0,1090.3,994.5,892.4,-5.0,1.0,11.0,6938.0,-4853.0,9101.0,-10673.0,17.0,5.0,25.0,3.0,3.0,9.0,10544.0,-12464.0,1069.0,-864.0,12.0,-5.0,4.0,1.0
2022-05-03 17:28:42.815193-07:00,1164.7,733.2,1133.1,1030.6,891.5,851.1,1820.7,1364.8,3481.9,3473.4,1172.6,911.8,1662.5,3469.8,1641.6,1404.9,3481.9,3479.5,1170.0,1803.2,2147.3,2873.9,1559.9,3502.7,3492.9,3477.1,697.0,980.7,1732.0,1090.3,997.0,881.4,-5.0,0.0,8.0,6944.0,-4845.0,9106.0,-10669.0,-5.0,16.0,25.0,0.0,5.0,15.0,10544.0,-12464.0,1069.0,-864.0,2.0,6.0,9.0,1.0
2022-05-03 17:28:42.874624-07:00,1164.7,733.2,1131.4,1037.5,891.5,851.1,1813.9,1335.9,3481.9,3473.4,1170.0,916.9,1662.5,3469.8,1636.0,1402.1,3481.9,3481.9,1170.0,1803.2,2152.4,2870.5,1559.9,3502.7,3479.5,3481.9,697.0,980.7,1735.8,1087.7,997.0,881.4,-3.0,6.0,0.0,6937.0,-4840.0,9136.0,-10650.0,-147.0,63.0,53.0,3.0,12.0,10.0,10539.0,-12469.0,1072.0,-867.0,-41.0,14.0,4.0,1.0
2022-05-03 17:28:42.934681-07:00,1156.8,732.3,1131.4,1037.5,893.2,837.7,1813.9,1335.9,3469.8,3477.1,1170.0,916.9,1664.4,3480.7,1636.0,1402.1,3481.9,3481.9,1178.8,1805.2,2152.4,2870.5,1550.6,3494.1,3479.5,3481.9,692.9,985.0,1735.8,1087.7,997.9,887.3,18.0,-37.0,-5.0,6909.0,-4845.0,9275.0,-10545.0,-444.0,105.0,204.0,10.0,16.0,14.0,10495.0,-12505.0,1083.0,-873.0,-245.0,42.0,6.0,1.0
2022-05-03 17:28:42.995357-07:00,1156.8,732.3,1130.5,1034.9,893.2,837.7,1814.9,1330.5,3469.8,3477.1,1161.2,919.4,1664.4,3480.7,1641.6,1401.2,3478.3,3484.4,1178.8,1805.2,2153.4,2878.4,1550.6,3494.1,3485.6,3486.8,692.9,985.0,1733.0,1088.6,997.9,887.3,11.0,77.0,-53.0,6942.0,-4878.0,9458.0,-10344.0,-690.0,-215.0,359.0,-7.0,29.0,11.0,10378.0,-12599.0,1120.0,-870.0,-443.0,52.0,18.0,1.0
2022-05-03 17:28:43.024672-07:00,1149.8,729.9,1130.5,1034.9,897.4,839.4,1814.9,1330.5,3469.8,3474.6,1161.2,919.4,1662.5,3472.2,1641.6,1401.2,3478.3,3484.4,1177.0,1789.7,2153.4,2878.4,1592.7,3500.2,3485.6,3486.8,699.5,982.5,1733.0,1088.6,998.7,883.1,35.0,25.0,17.0,6933.0,-5086.0,9728.0,-9993.0,-1288.0,-229.0,114.0,-4.0,-6.0,-22.0,10164.0,-12771.0,1124.0,-870.0,-728.0,-11.0,-55.0,1.0
2022-05-03 17:28:43.085559-07:00,1149.8,729.9,1127.0,1034.0,897.4,839.4,1840.1,1316.0,3469.8,3474.6,1146.3,916.9,1662.5,3472.2,1584.2,1391.2,3483.2,3478.3,1177.0,1789.7,2141.2,2869.4,1592.7,3500.2,3479.5,3488.0,699.5,982.5,1734.9,1091.2,998.7,883.1,-34.0,-31.0,41.0,6755.0,-5346.0,10033.0,-9673.0,-1169.0,-45.0,-118.0,9.0,7.0,33.0,9909.0,-12968.0,1151.0,-863.0,-706.0,68.0,21.0,1.0
2022-05-03 17:28:43.115370-07:00,1156.8,720.8,1122.6,1034.0,895.7,847.0,1840.1,1316.0,3479.5,3477.1,1140.1,916.9,1664.4,3472.2,1584.2,1391.2,3483.2,3478.3,1173.5,1792.6,2141.2,2875.0,1659.6,3507.5,3479.5,3488.0,696.2,982.5,1734.9,1090.3,994.5,900.0,-4.0,-14.0,46.0,6611.0,-5570.0,10280.0,-9382.0,-1034.0,4.0,-14.0,0.0,3.0,18.0,9733.0,-13098.0,1168.0,-881.0,-468.0,80.0,-45.0,1.0
2022-05-03 17:28:43.204756-07:00,1156.8,720.8,1122.6,1034.9,895.7,844.4,1818.7,1289.1,3479.5,3477.1,1140.1,917.7,1664.4,3479.5,1539.4,1383.9,3481.9,3485.6,1173.5,1792.6,2152.4,2875.0,1659.6,3507.5,3480.7,3485.6,692.1,982.5,1733.9,1090.3,994.5,900.0,-28.0,0.0,32.0,6481.0,-5715.0,10478.0,-9164.0,-659.0,-9.0,-45.0,9.0,5.0,12.0,9629.0,-13173.0,1176.0,-900.0,-445.0,73.0,-3.0,1.0
2022-05-03 17:28:43.264720-07:00,1166.5,725.8,1119.1,1034.9,894.9,844.4,1818.7,1289.1,3478.3,3472.2,1135.7,917.7,1661.5,3479.5,1539.4,1383.9,3481.9,3485.6,1173.5,1796.5,2152.4,2869.4,1671.9,3496.6,3480.7,3485.6,692.1,961.1,1733.9,1090.3,998.7,896.6,-4.0,-30.0,25.0,6406.0,-5846.0,10580.0,-9016.0,-259.0,-59.0,-44.0,-1.0,-4.0,-1.0,9518.0,-13251.0,1201.0,-906.0,-146.0,42.0,12.0,1.0
2022-05-03 17:28:43.265939-07:00,1166.5,725.8,1119.1,1034.0,894.9,835.2,1800.3,1272.1,3478.3,3472.2,1135.7,918.6,1661.5,3474.6,1515.3,1381.2,3483.2,3483.2,1178.8,1796.5,2146.3,2869.4,1671.9,3496.6,3481.9,3481.9,680.7,961.1,1741.6,1090.3,998.7,896.6,-9.0,-1.0,0.0,6402.0,-5861.0,10576.0,-9013.0,-17.0,-20.0,-13.0,2.0,-3.0,-1.0,9487.0,-13271.0,1211.0,-913.0,-55.0,-3.0,-11.0,1.0
2022-05-03 17:28:43.324659-07:00,1163.8,719.2,1116.5,1034.0,895.7,835.2,1800.3,1272.1,3480.7,3469.8,1134.0,918.6,1669.1,3474.6,1515.3,1381.2,3483.2,3483.2,1178.8,1784.9,2146.3,2882.9,1656.8,3492.9,3481.9,3481.9,680.7,945.8,1741.6,1087.7,993.6,889.0,13.0,-20.0,15.0,6410.0,-5895.0,10576.0,-8986.0,-5.0,-85.0,-8.0,2.0,0.0,0.0,9481.0,-13277.0,1207.0,-907.0,59.0,-36.0,-2.0,1.0
2022-05-03 17:28:43.414692-07:00,1163.8,719.2,1116.5,1031.4,897.4,829.4,1794.5,1252.4,3480.7,3469.8,1134.0,919.4,1660.6,3467.4,1514.3,1378.5,3486.8,3483.2,1179.7,1787.8,2156.5,2882.9,1656.8,3492.9,3477.1,3479.5,680.7,950.0,1733.0,1087.7,993.6,889.0,-17.0,-5.0,17.0,6431.0,-5885.0,10565.0,-8990.0,-19.0,-29.0,58.0,5.0,-2.0,18.0,9507.0,-13260.0,1190.0,-897.0,-2.0,-20.0,4.0,1.0
2022-05-03 17:28:43.416641-07:00,1163.0,716.7,1116.5,1031.4,897.4,829.4,1794.5,1252.4,3469.8,3472.2,1130.5,913.5,1660.6,3467.4,1514.3,1378.5,3486.8,3483.2,1179.7,1787.8,2152.4,2881.8,1651.1,3505.1,3477.1,3479.5,680.7,950.0,1731.1,1087.7,993.6,889.8,3.0,8.0,18.0,6446.0,-5891.0,10584.0,-8952.0,-60.0,-33.0,36.0,0.0,2.0,9.0,9496.0,-13268.0,1195.0,-891.0,-67.0,10.0,18.0,1.0
2022-05-03 17:28:43.474477-07:00,1163.0,716.7,1116.5,1031.4,895.7,831.9,1786.8,1246.2,3469.8,3472.2,1130.5,913.5,1663.4,3467.4,1516.2,1382.1,3483.2,3481.9,1173.5,1775.2,2152.4,2881.8,1651.1,3505.1,3477.1,3488.0,675.8,943.2,1731.1,1087.7,993.6,889.8,-9.0,-5.0,9.0,6443.0,-5911.0,10587.0,-8939.0,-88.0,-46.0,-37.0,1.0,3.0,9.0,9475.0,-13283.0,1200.0,-888.0,-69.0,3.0,11.0,1.0
2022-05-03 17:28:43.534626-07:00,1157.7,713.4,1111.2,1024.5,895.7,831.9,1786.8,1246.2,3488.0,3477.1,1127.0,914.4,1663.4,3467.4,1516.2,1382.1,3483.2,3481.9,1173.5,1775.2,2144.3,2866.0,1638.8,3494.1,3477.1,3488.0,675.8,943.2,1734.9,1083.4,997.9,893.2,-8.0,-12.0,20.0,6441.0,-5948.0,10587.0,-8916.0,-46.0,-16.0,-20.0,4.0,1.0,7.0,9465.0,-13291.0,1197.0,-882.0,32.0,-27.0,-5.0,1.0
2022-05-03 17:28:43.565220-07:00,1157.7,713.4,1111.2,1024.5,899.1,828.5,1787.8,1241.7,3488.0,3477.1,1127.0,914.4,1666.3,3478.3,1492.1,1382.1,3486.8,3483.2,1176.2,1782.9,2144.3,2866.0,1638.8,3494.1,3484.4,3491.7,676.6,938.1,1734.9,1083.4,997.9,893.2,-4.0,3.0,16.0,6444.0,-5952.0,10588.0,-8910.0,-22.0,-38.0,0.0,0.0,5.0,9.0,9471.0,-13287.0,1194.0,-878.0,-8.0,0.0,7.0,1.0
2022-05-03 17:28:43.655006-07:00,1158.6,713.4,1114.7,1024.5,899.1,828.5,1787.8,1241.7,3468.6,3480.7,1127.9,908.4,1666.3,3478.3,1492.1,1382.1,3486.8,3483.2,1176.2,1782.9,2147.3,2869.4,1635.0,3494.1,3484.4,3491.7,676.6,938.1,1735.8,1086.8,996.2,890.7,-4.0,-11.0,24.0,6448.0,-5964.0,10584.0,-8903.0,-12.0,-8.0,-21.0,2.0,0.0,5.0,9471.0,-13287.0,1193.0,-877.0,7.0,-10.0,-3.0,1.0
2022-05-03 17:28:43.685091-07:00,1156.8,713.4,1114.7,1024.5,900.0,831.1,1780.1,1239.1,3477.1,3480.7,1127.9,908.4,1663.4,3478.3,1497.7,1381.2,3478.3,3481.9,1174.4,1777.2,2147.3,2869.4,1635.0,3499.0,3479.5,3472.2,674.2,936.4,1735.8,1086.8,996.2,877.2,-9.0,4.0,9.0,6448.0,-5964.0,10577.0,-8911.0,8.0,-3.0,-9.0,0.0,7.0,14.0,9468.0,-13289.0,1196.0,-876.0,-42.0,13.0,14.0,1.0
2022-05-03 17:28:43.715157-07:00,1156.8,708.5,1111.2,1025.4,900.0,831.1,1780.1,1232.8,3477.1,3474.6,1123.5,910.1,1663.4,3478.3,1497.7,1371.2,3477.1,3481.9,1174.4,1777.2,2144.3,2868.3,1637.9,3499.0,3478.3,3472.2,674.2,936.4,1735.8,1088.6,994.5,877.2,-2.0,-8.0,14.0,6452.0,-5974.0,10579.0,-8900.0,-21.0,-3.0,-3.0,2.0,1.0,5.0,9454.0,-13299.0,1199.0,-876.0,-13.0,6.0,1.0,1.0
2022-05-03 17:28:43.774718-07:00,1153.3,708.5,1111.2,1025.4,898.3,828.5,1776.2,1232.8,3472.2,3474.6,1123.5,910.1,1661.5,3472.2,1499.5,1371.2,3477.1,3480.7,1178.8,1773.3,2144.3,2868.3,1637.9,3488.0,3478.3,3483.2,672.5,939.8,1735.8,1088.6,994.5,888.2,2.0,3.0,11.0,6457.0,-5972.0,10573.0,-8905.0,8.0,-12.0,-5.0,-2.0,6.0,8.0,9454.0,-13298.0,1200.0,-877.0,-7.0,10.0,1.0,1.0
2022-05-03 17:28:43.834818-07:00,1153.3,720.8,1112.1,1027.1,898.3,828.5,1776.2,1239.9,3472.2,3472.2,1121.7,913.5,1661.5,3472.2,1499.5,1380.3,3466.1,3480.7,1178.8,1773.3,2143.3,2868.3,1626.5,3488.0,3479.5,3483.2,672.5,939.8,1739.7,1090.3,991.9,888.2,-3.0,-9.0,19.0,6456.0,-5973.0,10573.0,-8905.0,-5.0,16.0,-8.0,5.0,-1.0,6.0,9453.0,-13299.0,1200.0,-877.0,7.0,-7.0,-5.0,1.0
2022-05-03 17:28:43.894670-07:00,1156.8,720.8,1112.1,1027.1,894.1,827.7,1780.1,1239.9,3484.4,3472.2,1121.7,913.5,1661.5,3471.0,1497.7,1380.3,3466.1,3480.7,1173.5,1765.6,2143.3,2868.3,1626.5,3496.6,3479.5,3479.5,670.1,934.7,1739.7,1090.3,991.9,906.7,-2.0,2.0,11.0,6456.0,-5971.0,10564.0,-8917.0,13.0,-8.0,-23.0,0.0,4.0,3.0,9452.0,-13299.0,1201.0,-879.0,-14.0,9.0,6.0,1.0
2022-05-03 17:28:43.955595-07:00,1156.8,715.9,1112.1,1035.7,894.1,827.7,1780.1,1233.7,3484.4,3478.3,1121.7,911.0,1661.5,3471.0,1495.8,1381.2,3481.9,3474.6,1173.5,1765.6,2141.2,2876.1,1639.8,3496.6,3484.4,3485.6,670.1,934.7,1741.6,1090.3,997.9,906.7,-3.0,-9.0,16.0,6454.0,-5973.0,10556.0,-8925.0,45.0,12.0,-13.0,3.0,3.0,7.0,9453.0,-13299.0,1201.0,-879.0,20.0,4.0,-3.0,1.0
2022-05-03 17:28:43.956949-07:00,1159.4,711.0,1112.1,1035.7,896.6,827.7,1780.1,1233.7,3477.1,3477.1,1121.7,911.0,1658.7,3479.5,1495.8,1381.2,3481.9,3474.6,1177.9,1776.2,2141.2,2876.1,1630.3,3495.3,3484.4,3485.6,676.6,926.2,1741.6,1090.3,992.7,882.3,-9.0,-4.0,13.0,6458.0,-5966.0,10543.0,-8943.0,22.0,17.0,-15.0,4.0,2.0,10.0,9461.0,-13293.0,1199.0,-880.0,11.0,1.0,-12.0,1.0
2022-05-03 17:28:44.015243-07:00,1159.4,711.0,1113.9,1024.5,896.6,827.7,1776.2,1237.3,3477.1,3477.1,1121.7,913.5,1658.7,3479.5,1492.1,1367.6,3478.3,3486.8,1177.9,1776.2,2154.4,2869.4,1630.3,3495.3,3474.6,3478.3,676.6,926.2,1736.8,1084.2,992.7,882.3,0.0,-6.0,18.0,6455.0,-5970.0,10537.0,-8950.0,-2.0,-4.0,-22.0,1.0,2.0,6.0,9458.0,-13295.0,1197.0,-884.0,-10.0,6.0,-10.0,1.0
2022-05-03 17:28:44.074686-07:00,1161.2,707.7,1113.9,1024.5,897.4,827.7,1776.2,1237.3,3471.0,3478.3,1121.7,913.5,1665.3,3474.6,1492.1,1367.6,3478.3,3486.8,1172.6,1776.2,2154.4,2869.4,1629.4,3495.3,3474.6,3478.3,670.9,929.6,1736.8,1084.2,993.6,876.4,-4.0,0.0,10.0,6452.0,-5967.0,10530.0,-8962.0,32.0,17.0,-10.0,2.0,5.0,8.0,9459.0,-13295.0,1197.0,-885.0,7.0,12.0,-3.0,1.0
2022-05-03 17:28:44.134927-07:00,1161.2,707.7,1111.2,1021.1,897.4,827.7,1768.5,1231.0,3471.0,3478.3,1122.6,916.0,1665.3,3474.6,1492.1,1367.6,3479.5,3475.9,1172.6,1776.2,2144.3,2878.4,1629.4,3495.3,3490.5,3477.1,670.9,929.6,1742.6,1085.1,993.6,876.4,2.0,-3.0,14.0,6448.0,-5965.0,10533.0,-8963.0,-29.0,4.0,-10.0,4.0,5.0,10.0,9451.0,-13300.0,1199.0,-887.0,-34.0,12.0,-3.0,1.0
2022-05-03 17:28:44.194713-07:00,1159.4,709.3,1111.2,1021.1,897.4,826.0,1768.5,1231.0,3473.4,3473.4,1122.6,916.0,1663.4,3484.4,1492.1,1367.6,3479.5,3475.9,1177.9,1777.2,2144.3,2878.4,1627.5,3486.8,3490.5,3477.1,666.0,932.2,1742.6,1085.1,997.9,886.5,-7.0,-2.0,8.0,6439.0,-5960.0,10529.0,-8977.0,42.0,34.0,-20.0,1.0,1.0,11.0,9448.0,-13302.0,1201.0,-890.0,2.0,10.0,-3.0,1.0
2022-05-03 17:28:44.224611-07:00,1159.4,709.3,1109.5,1029.7,897.4,825.2,1774.3,1239.1,3473.4,3473.4,1123.5,917.7,1663.4,3474.6,1495.8,1367.6,3474.6,3474.6,1175.3,1777.2,2146.3,2864.9,1627.5,3486.8,3474.6,3478.3,671.7,932.2,1737.8,1086.0,997.9,886.5,0.0,-2.0,6.0,6433.0,-5964.0,10522.0,-8987.0,-17.0,-1.0,-38.0,4.0,2.0,4.0,9442.0,-13306.0,1202.0,-891.0,-29.0,9.0,-7.0,1.0
2022-05-03 17:28:44.314677-07:00,1152.4,709.3,1112.1,1029.7,900.8,825.2,1774.3,1239.1,3464.9,3481.9,1124.4,917.7,1662.5,3474.6,1495.8,1367.6,3474.6,3474.6,1175.3,1770.4,2146.3,2876.1,1631.3,3507.5,3474.6,3478.3,671.7,925.4,1737.8,1089.5,994.5,883.9,-11.0,-13.0,10.0,6427.0,-5972.0,10511.0,-8999.0,48.0,2.0,-35.0,1.0,-1.0,4.0,9443.0,-13305.0,1197.0,-895.0,24.0,-8.0,-15.0,1.0
2022-05-03 17:28:44.316001-07:00,1152.4,709.3,1112.1,1035.7,900.8,826.0,1761.8,1228.4,3464.9,3481.9,1124.4,912.7,1662.5,3478.3,1495.8,1384.8,3481.9,3478.3,1177.9,1770.4,2146.3,2876.1,1631.3,3507.5,3484.4,3481.9,671.7,925.4,1738.7,1089.5,994.5,883.9,-5.0,-6.0,13.0,6432.0,-5974.0,10502.0,-9005.0,-22.0,-10.0,-5.0,3.0,0.0,9.0,9448.0,-13303.0,1188.0,-894.0,-1.0,-12.0,-12.0,1.0
2022-05-03 17:28:44.404839-07:00,1152.4,708.5,1107.8,1035.7,895.7,826.0,1761.8,1228.4,3471.0,3468.6,1121.7,912.7,1665.3,3478.3,1495.8,1384.8,3481.9,3478.3,1177.9,1772.3,2146.3,2879.5,1627.5,3501.4,3484.4,3481.9,671.7,932.2,1738.7,1090.3,997.0,884.8,0.0,-1.0,13.0,6431.0,-5973.0,10501.0,-9007.0,15.0,28.0,-3.0,3.0,4.0,6.0,9446.0,-13304.0,1188.0,-894.0,6.0,-4.0,-6.0,1.0
2022-05-03 17:28:44.434869-07:00,1152.4,708.5,1107.8,1034.0,895.7,827.7,1767.5,1233.7,3471.0,3468.6,1121.7,911.8,1665.3,3473.4,1500.4,1376.6,3484.4,3480.7,1175.3,1772.3,2152.4,2879.5,1627.5,3501.4,3488.0,3479.5,666.0,932.2,1742.6,1090.3,997.0,884.8,4.0,-7.0,16.0,6425.0,-5964.0,10504.0,-9014.0,-2.0,38.0,1.0,2.0,2.0,1.0,9446.0,-13304.0,1188.0,-894.0,2.0,1.0,-3.0,1.0
2022-05-03 17:28:44.464750-07:00,1163.8,722.5,1112.1,1027.1,891.5,827.7,1767.5,1233.7,3480.7,3478.3,1113.9,916.9,1662.5,3473.4,1500.4,1376.6,3484.4,3480.7,1175.3,1769.5,2148.3,2863.8,1619.9,3499.0,3488.0,3479.5,666.0,926.2,1741.6,1086.0,991.0,889.0,-8.0,-4.0,14.0,6418.0,-5927.0,10510.0,-9036.0,88.0,89.0,54.0,4.0,1.0,10.0,9455.0,-13298.0,1190.0,-895.0,51.0,16.0,10.0,1.0
2022-05-03 17:28:44.524708-07:00,1163.8,722.5,1112.1,1027.1,899.1,822.7,1770.4,1218.6,3480.7,3478.3,1113.9,916.9,1665.3,3478.3,1493.0,1373.0,3480.7,3481.9,1170.0,1770.4,2148.3,2863.8,1619.9,3499.0,3480.7,3491.7,667.6,927.1,1741.6,1086.0,991.0,889.0,-1.0,8.0,4.0,6412.0,-5898.0,10522.0,-9045.0,-47.0,44.0,11.0,5.0,4.0,8.0,9453.0,-13298.0,1195.0,-899.0,-45.0,13.0,3.0,1.0
2022-05-03 17:28:44.554853-07:00,1152.4,711.0,1110.4,1025.4,899.1,822.7,1770.4,1218.6,3484.4,3471.0,1119.1,911.0,1665.3,3478.3,1493.0,1373.0,3480.7,3481.9,1170.0,1770.4,2143.3,2862.7,1622.8,3494.1,3480.7,3491.7,667.6,927.1,1734.9,1091.2,988.5,897.4,0.0,-1.0,2.0,6401.0,-5901.0,10528.0,-9044.0,18.0,9.0,-24.0,2.0,5.0,-2.0,9443.0,-13305.0,1198.0,-901.0,4.0,7.0,-8.0,1.0
2022-05-03 17:28:44.614598-07:00,1152.4,711.0,1110.4,1025.4,896.6,827.7,1764.6,1223.9,3484.4,3471.0,1119.1,911.0,1659.6,3469.8,1484.7,1375.7,3475.9,3480.7,1177.0,1773.3,2143.3,2862.7,1622.8,3494.1,3478.3,3483.2,672.5,928.8,1734.9,1091.2,988.5,897.4,-3.0,-2.0,11.0,6398.0,-5902.0,10521.0,-9054.0,21.0,-11.0,-21.0,4.0,1.0,12.0,9447.0,-13302.0,1191.0,-905.0,14.0,1.0,-17.0,1.0
2022-05-03 17:28:44.674720-07:00,1154.2,706.0,1119.1,1023.7,896.6,827.7,1764.6,1223.9,3472.2,3484.4,1120.0,913.5,1659.6,3469.8,1484.7,1375.7,3475.9,3480.7,1177.0,1773.3,2145.3,2871.7,1619.0,3496.6,3478.3,3483.2,672.5,928.8,1737.8,1086.0,991.9,883.1,-4.0,-8.0,9.0,6403.0,-5908.0,10503.0,-9067.0,50.0,-15.0,-32.0,4.0,0.0,5.0,9455.0,-13297.0,1184.0,-910.0,26.0,-1.0,-13.0,1.0
2022-05-03 17:28:44.734987-07:00,1154.2,706.0,1119.1,1023.7,895.7,823.5,1758.9,1219.5,3472.2,3484.4,1120.0,913.5,1665.3,3475.9,1491.2,1375.7,3477.1,3474.6,1182.3,1762.7,2145.3,2871.7,1619.0,3496.6,3479.5,3489.2,672.5,925.4,1737.8,1086.0,991.9,883.1,-2.0,-3.0,11.0,6408.0,-5914.0,10487.0,-9078.0,-3.0,-17.0,-20.0,2.0,1.0,6.0,9464.0,-13291.0,1180.0,-912.0,17.0,-10.0,-14.0,1.0
2022-05-03 17:28:44.765051-07:00,1157.7,707.7,1114.7,1022.8,895.7,823.5,1758.9,1222.2,3478.3,3469.8,1117.4,913.5,1665.3,3475.9,1491.2,1373.9,3474.6,3474.6,1182.3,1762.7,2153.4,2870.5,1623.7,3494.1,3484.4,3489.2,672.5,925.4,1737.8,1104.3,993.6,883.1,-12.0,-41.0,36.0,6413.0,-5892.0,10483.0,-9093.0,162.0,61.0,76.0,-8.0,-22.0,18.0,9478.0,-13280.0,1183.0,-915.0,116.0,23.0,37.0,1.0
2022-05-03 17:28:44.824681-07:00,1154.2,707.7,1114.7,1022.8,898.3,826.0,1763.7,1222.2,3479.5,3469.8,1117.4,913.5,1655.8,3479.5,1495.8,1373.9,3474.6,3486.8,1170.9,1763.7,2153.4,2870.5,1623.7,3500.2,3484.4,3483.2,669.3,930.5,1737.8,1104.3,993.6,880.6,6.0,31.0,-16.0,6474.0,-5803.0,10426.0,-9173.0,328.0,36.0,64.0,0.0,8.0,-2.0,9538.0,-13236.0,1193.0,-916.0,216.0,-13.0,15.0,1.0
2022-05-03 17:28:44.854897-07:00,1154.2,706.0,1112.1,1025.4,898.3,826.0,1763.7,1241.7,3479.5,3480.7,1115.6,913.5,1655.8,3479.5,1495.8,1379.4,3485.6,3486.8,1170.9,1763.7,2142.2,2868.3,1615.2,3500.2,3486.8,3483.2,669.3,930.5,1741.6,1079.9,992.7,880.6,-1.0,-4.0,17.0,6478.0,-5786.0,10410.0,-9200.0,-23.0,23.0,-18.0,2.0,5.0,13.0,9575.0,-13210.0,1185.0,-911.0,24.0,-37.0,-16.0,1.0
2022-05-03 17:28:44.974603-07:00,1155.9,706.0,1112.1,1025.4,903.4,826.9,1759.8,1241.7,3478.3,3480.7,1115.6,913.5,1654.9,3478.3,1490.3,1379.4,3485.6,3481.9,1170.9,1759.8,2142.2,2868.3,1615.2,3496.6,3486.8,3475.9,666.0,928.8,1741.6,1079.9,992.7,886.5,-1.0,11.0,17.0,6471.0,-5775.0,10413.0,-9209.0,48.0,57.0,17.0,6.0,2.0,11.0,9584.0,-13206.0,1176.0,-904.0,12.0,-2.0,8.0,1.0
2022-05-03 17:28:45.005847-07:00,1155.9,698.7,1109.5,1032.3,903.4,826.9,1759.8,1239.1,3478.3,3478.3,1119.1,912.7,1654.9,3478.3,1490.3,1373.9,3478.3,3481.9,1170.9,1759.8,2148.3,2870.5,1610.5,3496.6,3488.0,3475.9,666.0,928.8,1733.9,1084.2,994.5,886.5,0.0,-2.0,11.0,6449.0,-5768.0,10427.0,-9211.0,-91.0,43.0,-37.0,2.0,4.0,9.0,9567.0,-13217.0,1183.0,-904.0,-92.0,8.0,10.0,1.0
2022-05-03 17:28:45.064672-07:00,1155.9,704.4,1109.5,1032.3,900.8,826.0,1746.4,1239.1,3479.5,3473.4,1119.1,912.7,1658.7,3478.3,1484.7,1373.9,3478.3,3486.8,1170.9,1770.4,2148.3,2870.5,1610.5,3499.0,3488.0,3488.0,669.3,929.6,1733.9,1084.2,990.2,883.1,-10.0,-18.0,-1.0,6421.0,-5777.0,10438.0,-9213.0,10.0,31.0,-28.0,1.0,-2.0,2.0,9542.0,-13235.0,1190.0,-903.0,-29.0,21.0,13.0,1.0
2022-05-03 17:28:45.066465-07:00,1155.9,704.4,1108.6,1028.8,900.8,826.0,1754.1,1229.3,3479.5,3473.4,1122.6,914.4,1658.7,3478.3,1481.9,1363.9,3481.9,3474.6,1170.9,1770.4,2141.2,2880.6,1610.5,3499.0,3490.5,3478.3,669.3,929.6,1740.6,1086.0,990.2,883.1,1.0,-2.0,2.0,6425.0,-5773.0,10432.0,-9220.0,2.0,-18.0,1.0,2.0,2.0,1.0,9538.0,-13237.0,1196.0,-904.0,29.0,-7.0,-2.0,1.0
2022-05-03 17:28:45.155225-07:00,1151.5,701.9,1108.6,1028.8,895.7,825.2,1754.1,1229.3,3474.6,3477.1,1122.6,914.4,1665.3,3474.6,1481.9,1363.9,3481.9,3474.6,1173.5,1770.4,2141.2,2880.6,1609.6,3492.9,3490.5,3478.3,661.1,927.1,1740.6,1086.0,992.7,874.7,-5.0,2.0,10.0,6438.0,-5770.0,10416.0,-9230.0,75.0,-19.0,0.0,4.0,2.0,13.0,9560.0,-13222.0,1189.0,-900.0,76.0,-23.0,-9.0,1.0
2022-05-03 17:28:45.156540-07:00,1151.5,701.9,1103.4,1019.4,895.7,825.2,1744.5,1226.6,3474.6,3477.1,1118.2,911.8,1665.3,3474.6,1485.6,1387.5,3485.6,3481.9,1173.5,1770.4,2143.3,2868.3,1609.6,3492.9,3481.9,3481.9,661.1,927.1,1733.0,1086.8,992.7,874.7,-4.0,2.0,22.0,6448.0,-5777.0,10402.0,-9235.0,-19.0,-18.0,-27.0,4.0,5.0,13.0,9574.0,-13213.0,1183.0,-894.0,-7.0,-8.0,-6.0,1.0
2022-05-03 17:28:45.244755-07:00,1151.5,706.0,1103.4,1019.4,896.6,822.7,1744.5,1226.6,3478.3,3478.3,1118.2,911.8,1660.6,3472.2,1485.6,1387.5,3485.6,3481.9,1166.5,1763.7,2143.3,2868.3,1605.8,3500.2,3481.9,3481.9,661.9,922.0,1733.0,1086.8,989.3,877.2,-3.0,-6.0,13.0,6440.0,-5784.0,10393.0,-9246.0,31.0,30.0,-33.0,3.0,2.0,11.0,9570.0,-13216.0,1183.0,-894.0,-10.0,2.0,-1.0,1.0
2022-05-03 17:28:45.274698-07:00,1151.5,706.0,1107.8,1028.8,896.6,822.7,1745.4,1226.6,3478.3,3478.3,1119.1,914.4,1660.6,3472.2,1488.4,1375.7,3480.7,3478.3,1166.5,1763.7,2147.3,2864.9,1605.8,3500.2,3479.5,3479.5,661.9,922.0,1736.8,1086.8,989.3,877.2,-6.0,0.0,5.0,6428.0,-5776.0,10396.0,-9257.0,-27.0,39.0,-8.0,8.0,3.0,12.0,9560.0,-13222.0,1187.0,-894.0,-50.0,13.0,13.0,1.0
2022-05-03 17:28:45.304986-07:00,1152.4,698.7,1112.1,1028.8,894.9,821.9,1745.4,1226.6,3472.2,3480.7,1118.2,914.4,1661.5,3471.0,1488.4,1375.7,3480.7,3478.3,1171.8,1775.2,2147.3,2884.0,1601.1,3494.1,3479.5,3479.5,661.9,922.0,1736.8,1086.8,989.3,878.0,-6.0,-14.0,2.0,6418.0,-5778.0,10405.0,-9252.0,-17.0,5.0,-13.0,3.0,0.0,1.0,9542.0,-13235.0,1198.0,-895.0,-35.0,13.0,12.0,1.0
2022-05-03 17:28:45.364973-07:00,1152.4,698.7,1112.1,1028.0,894.9,824.4,1743.5,1228.4,3472.2,3480.7,1118.2,913.5,1661.5,3469.8,1481.9,1367.6,3479.5,3473.4,1174.4,1775.2,2148.3,2884.0,1601.1,3494.1,3480.7,3479.5,662.7,922.0,1737.8,1086.8,989.3,878.0,2.0,9.0,-3.0,6425.0,-5774.0,10394.0,-9261.0,41.0,-35.0,-14.0,3.0,10.0,1.0,9545.0,-13232.0,1199.0,-896.0,29.0,-4.0,2.0,1.0
2022-05-03 17:28:45.484880-07:00,1161.2,702.8,1102.5,1028.0,895.7,824.4,1743.5,1228.4,3472.2,3471.0,1118.2,913.5,1665.3,3469.8,1481.9,1367.6,3479.5,3473.4,1174.4,1766.6,2148.3,2864.9,1596.4,3503.9,3480.7,3479.5,662.7,916.9,1737.8,1086.0,994.5,878.9,0.0,-10.0,17.0,6434.0,-5791.0,10379.0,-9262.0,20.0,-47.0,-29.0,5.0,0.0,7.0,9555.0,-13225.0,1194.0,-891.0,36.0,-27.0,-7.0,1.0
2022-05-03 17:28:45.486289-07:00,1161.2,702.8,1102.5,1026.3,895.7,825.2,1751.2,1229.3,3472.2,3471.0,1118.2,911.0,1665.3,3474.6,1487.5,1372.1,3478.3,3486.8,1169.1,1766.6,2137.2,2864.9,1596.4,3503.9,3488.0,3479.5,665.2,916.9,1729.1,1086.0,994.5,878.9,-3.0,6.0,20.0,6447.0,-5788.0,10359.0,-9277.0,48.0,-3.0,-10.0,6.0,7.0,14.0,9572.0,-13214.0,1188.0,-885.0,36.0,-13.0,-3.0,1.0
2022-05-03 17:28:45.514688-07:00,1157.7,705.2,1104.3,1026.3,894.1,825.2,1751.2,1229.3,3469.8,3472.2,1116.5,911.0,1660.6,3474.6,1487.5,1372.1,3478.3,3486.8,1169.1,1762.7,2137.2,2869.4,1598.3,3502.7,3488.0,3479.5,665.2,923.7,1729.1,1083.4,986.7,873.8,-1.0,-6.0,17.0,6446.0,-5784.0,10355.0,-9285.0,-4.0,28.0,1.0,7.0,-1.0,11.0,9572.0,-13215.0,1188.0,-885.0,-19.0,2.0,8.0,1.0
2022-05-03 17:28:45.575310-07:00,1157.7,705.2,1104.3,1026.3,899.1,819.4,1749.3,1230.2,3469.8,3472.2,1116.5,912.7,1660.6,3478.3,1479.2,1378.5,3480.7,3473.4,1164.7,1761.8,2142.2,2869.4,1598.3,3502.7,3486.8,3475.9,666.8,918.6,1733.9,1083.4,986.7,873.8,1.0,4.0,0.0,6441.0,-5779.0,10357.0,-9289.0,-5.0,8.0,-12.0,3.0,0.0,6.0,9559.0,-13223.0,1197.0,-883.0,-36.0,6.0,19.0,1.0
2022-05-03 17:28:45.605044-07:00,1152.4,702.8,1109.5,1027.1,899.1,819.4,1749.3,1230.2,3474.6,3478.3,1117.4,912.7,1660.6,3478.3,1479.2,1378.5,3480.7,3473.4,1164.7,1761.8,2137.2,2875.0,1604.9,3510.0,3486.8,3475.9,666.8,918.6,1734.9,1087.7,990.2,881.4,0.0,1.0,-8.0,6432.0,-5788.0,10358.0,-9289.0,-22.0,-23.0,-26.0,2.0,3.0,9.0,9556.0,-13225.0,1199.0,-881.0,-2.0,-5.0,-2.0,1.0
2022-05-03 17:28:45.664708-07:00,1152.4,702.8,1109.5,1027.1,895.7,816.9,1749.3,1226.6,3474.6,3478.3,1117.4,912.7,1666.3,3475.9,1477.3,1370.3,3481.9,3478.3,1169.1,1772.3,2137.2,2875.0,1604.9,3510.0,3480.7,3483.2,660.3,920.3,1734.9,1087.7,990.2,881.4,3.0,-9.0,10.0,6427.0,-5809.0,10362.0,-9274.0,-44.0,-44.0,-13.0,5.0,3.0,6.0,9556.0,-13226.0,1194.0,-878.0,-2.0,-13.0,-4.0,1.0
2022-05-03 17:28:45.724730-07:00,1153.3,700.3,1109.5,1019.4,895.7,816.9,1749.3,1226.6,3479.5,3475.9,1113.0,911.8,1666.3,3475.9,1477.3,1370.3,3481.9,3478.3,1169.1,1772.3,2146.3,2870.5,1601.1,3497.8,3480.7,3483.2,660.3,920.3,1735.8,1086.0,986.7,882.3,1.0,-12.0,12.0,6431.0,-5813.0,10359.0,-9272.0,27.0,-12.0,6.0,4.0,-8.0,2.0,9560.0,-13223.0,1192.0,-874.0,20.0,-3.0,10.0,1.0
2022-05-03 17:28:45.814728-07:00,1153.3,700.3,1109.5,1019.4,897.4,823.5,1746.4,1227.5,3479.5,3475.9,1113.0,911.8,1656.8,3474.6,1479.2,1373.0,3477.1,3483.2,1169.1,1763.7,2146.3,2870.5,1601.1,3497.8,3479.5,3484.4,657.9,926.2,1735.8,1086.0,986.7,882.3,-14.0,-56.0,34.0,6448.0,-5750.0,10352.0,-9308.0,295.0,128.0,183.0,13.0,-26.0,23.0,9589.0,-13201.0,1207.0,-872.0,177.0,10.0,51.0,1.0
2022-05-03 17:28:45.817173-07:00,1151.5,703.6,1106.0,1021.9,897.4,823.5,1746.4,1227.5,3479.5,3479.5,1118.2,914.4,1656.8,3474.6,1479.2,1373.0,3477.1,3483.2,1169.1,1763.7,2135.1,2866.0,1604.9,3496.6,3479.5,3484.4,657.9,926.2,1728.2,1099.0,991.0,878.0,-36.0,-54.0,32.0,6564.0,-5564.0,10245.0,-9457.0,649.0,179.0,229.0,0.0,12.0,-2.0,9723.0,-13102.0,1220.0,-863.0,350.0,-7.0,89.0,1.0
2022-05-03 17:28:45.874686-07:00,1155.0,703.6,1106.0,1021.9,891.5,827.7,1785.8,1296.3,3481.9,3479.5,1118.2,914.4,1658.7,3473.4,1502.3,1365.7,3477.1,3481.9,1170.0,1756.0,2135.1,2866.0,1604.9,3492.9,3481.9,3481.9,681.5,955.1,1728.2,1099.0,991.0,886.5,-7.0,-10.0,14.0,6719.0,-5270.0,10123.0,-9646.0,789.0,186.0,358.0,-4.0,18.0,1.0,9910.0,-12962.0,1223.0,-848.0,580.0,-33.0,62.0,1.0
2022-05-03 17:28:45.905146-07:00,1155.0,706.0,1104.3,1028.8,891.5,827.7,1785.8,1409.4,3481.9,3484.4,1120.9,915.2,1658.7,3473.4,1502.3,1395.7,3485.6,3481.9,1170.0,1756.0,2156.5,2870.5,1600.2,3492.9,3477.1,3481.9,681.5,955.1,1737.8,1086.8,995.3,886.5,-3.0,-9.0,21.0,6854.0,-5025.0,10042.0,-9766.0,555.0,118.0,333.0,2.0,-6.0,14.0,10058.0,-12847.0,1232.0,-833.0,414.0,-19.0,80.0,1.0
2022-05-03 17:28:45.994698-07:00,1157.7,706.0,1104.3,1028.8,895.7,853.7,1874.2,1409.4,3480.7,3484.4,1120.9,915.2,1660.6,3472.2,1655.8,1395.7,3485.6,3478.3,1169.1,1768.5,2156.5,2870.5,1600.2,3496.6,3477.1,3481.9,709.3,985.0,1737.8,1086.8,995.3,893.2,34.0,56.0,-25.0,6983.0,-4806.0,9959.0,-9869.0,459.0,102.0,315.0,10.0,16.0,-5.0,10197.0,-12736.0,1247.0,-832.0,414.0,-5.0,43.0,1.0
2022-05-03 17:28:46.024672-07:00,1157.7,724.1,1109.5,1029.7,895.7,853.7,1874.2,1377.5,3480.7,3475.9,1154.2,911.8,1660.6,3472.2,1655.8,1419.5,3483.2,3478.3,1169.1,1768.5,2152.4,2870.5,1600.2,3496.6,3484.4,3481.9,709.3,985.0,1744.5,1083.4,998.7,893.2,-32.0,10.0,36.0,7022.0,-4703.0,9916.0,-9934.0,328.0,-56.0,-15.0,1.0,19.0,36.0,10259.0,-12687.0,1250.0,-822.0,149.0,-19.0,37.0,1.0
2022-05-03 17:28:46.054991-07:00,1156.8,724.1,1109.5,1029.7,904.2,866.3,1856.7,1377.5,3471.0,3475.9,1154.2,911.8,1666.3,3488.0,1728.2,1419.5,3483.2,3492.9,1170.0,1780.1,2152.4,2870.5,1600.2,3489.2,3484.4,3483.2,711.8,985.9,1744.5,1083.4,998.7,888.2,35.0,8.0,-9.0,7069.0,-4756.0,9790.0,-10000.0,205.0,-188.0,-221.0,-15.0,7.0,-34.0,10296.0,-12658.0,1235.0,-821.0,112.0,-89.0,-39.0,1.0
2022-05-03 17:28:46.114639-07:00,1156.8,735.6,1112.1,1026.3,904.2,866.3,1836.2,1349.4,3471.0,3484.4,1156.8,915.2,1666.3,3488.0,1686.2,1393.0,3484.4,3478.3,1170.0,1780.1,2145.3,2868.3,1588.0,3489.2,3484.4,3479.5,711.8,985.9,1711.9,1086.8,990.2,888.2,-22.0,-19.0,28.0,7066.0,-4780.0,9704.0,-10074.0,187.0,-17.0,-99.0,5.0,0.0,32.0,10351.0,-12620.0,1173.0,-808.0,141.0,-94.0,-66.0,1.0
2022-05-03 17:28:46.204776-07:00,1160.3,735.6,1112.1,1026.3,894.1,857.9,1836.2,1349.4,3479.5,3480.7,1156.8,915.2,1664.4,3475.9,1686.2,1393.0,3484.4,3478.3,1173.5,1772.3,2145.3,2868.3,1583.3,3495.3,3484.4,3479.5,717.5,981.6,1711.9,1086.8,997.0,909.3,7.0,1.0,23.0,7092.0,-4771.0,9655.0,-10107.0,107.0,-27.0,-1.0,12.0,4.0,4.0,10383.0,-12596.0,1154.0,-804.0,47.0,-14.0,0.0,1.0
2022-05-03 17:28:46.206295-07:00,1160.3,735.6,1116.5,1024.5,894.1,857.9,1821.6,1346.7,3479.5,3480.7,1153.3,919.4,1664.4,3475.9,1662.5,1394.8,3488.0,3481.9,1173.5,1772.3,2152.4,2868.3,1583.3,3495.3,3481.9,3488.0,717.5,981.6,1730.1,1086.8,997.0,909.3,-6.0,20.0,-1.0,7111.0,-4777.0,9613.0,-10131.0,61.0,-110.0,-57.0,6.0,8.0,22.0,10389.0,-12590.0,1161.0,-813.0,-32.0,49.0,21.0,1.0
2022-05-03 17:28:46.354815-07:00,1161.2,738.9,1116.5,1024.5,895.7,865.4,1821.6,1346.7,3479.5,3475.9,1153.3,919.4,1656.8,3481.9,1662.5,1394.8,3488.0,3481.9,1163.0,1773.3,2152.4,2868.3,1572.1,3499.0,3481.9,3488.0,710.1,969.6,1730.1,1086.8,1009.0,905.9,13.0,-22.0,-1.0,7111.0,-4838.0,9585.0,-10129.0,-21.0,-82.0,-97.0,0.0,-8.0,-8.0,10368.0,-12606.0,1170.0,-815.0,-27.0,-15.0,-8.0,1.0
2022-05-03 17:28:46.356351-07:00,1161.2,738.9,1106.0,1026.3,895.7,865.4,1814.9,1324.1,3479.5,3475.9,1150.6,916.0,1656.8,3481.9,1639.8,1397.6,3477.1,3477.1,1163.0,1773.3,2146.3,2880.6,1572.1,3499.0,3479.5,3481.9,710.1,969.6,1733.9,1100.8,1009.0,905.9,-18.0,-12.0,0.0,7121.0,-4860.0,9562.0,-10133.0,4.0,-74.0,-12.0,4.0,-1.0,11.0,10377.0,-12599.0,1164.0,-814.0,23.0,-5.0,1.0,1.0
2022-05-03 17:28:46.357285-07:00,1155.9,733.2,1106.0,1026.3,894.9,861.2,1814.9,1324.1,3464.9,3467.4,1150.6,916.0,1665.3,3478.3,1639.8,1397.6,3477.1,3477.1,1169.1,1786.8,2146.3,2880.6,1571.1,3490.5,3479.5,3481.9,710.1,966.2,1733.9,1100.8,1003.0,888.2,7.0,-1.0,0.0,7139.0,-4900.0,9551.0,-10111.0,-54.0,-115.0,-27.0,3.0,3.0,-2.0,10377.0,-12599.0,1163.0,-814.0,1.0,-13.0,-5.0,1.0
2022-05-03 17:28:46.444755-07:00,1155.9,733.2,1105.1,1028.8,894.9,857.9,1802.3,1327.8,3464.9,3467.4,1139.2,919.4,1665.3,3481.9,1648.3,1382.1,3483.2,3483.2,1175.3,1786.8,2148.3,2866.0,1571.1,3490.5,3478.3,3484.4,700.3,966.2,1733.0,1095.6,1003.0,888.2,-2.0,-9.0,11.0,7158.0,-4926.0,9529.0,-10106.0,36.0,-82.0,-5.0,8.0,0.0,18.0,10394.0,-12587.0,1148.0,-809.0,59.0,-26.0,-10.0,1.0
2022-05-03 17:28:46.474647-07:00,1149.8,729.0,1106.9,1028.8,898.3,857.9,1802.3,1327.8,3467.4,3478.3,1142.7,919.4,1660.6,3481.9,1648.3,1382.1,3483.2,3483.2,1175.3,1779.1,2148.3,2867.2,1560.9,3502.7,3478.3,3484.4,700.3,956.0,1733.0,1095.6,998.7,898.3,8.0,-1.0,8.0,7178.0,-4955.0,9511.0,-10095.0,-25.0,-93.0,-24.0,8.0,9.0,2.0,10401.0,-12581.0,1145.0,-809.0,-8.0,-17.0,0.0,1.0
2022-05-03 17:28:46.505377-07:00,1149.8,729.0,1106.9,1025.4,898.3,858.7,1808.1,1324.1,3467.4,3478.3,1142.7,912.7,1660.6,3477.1,1635.0,1389.4,3472.2,3484.4,1169.1,1779.1,2148.3,2867.2,1560.9,3502.7,3480.7,3477.1,702.8,956.0,1736.8,1095.6,998.7,898.3,-8.0,-10.0,17.0,7190.0,-4962.0,9503.0,-10090.0,11.0,-12.0,36.0,5.0,1.0,12.0,10408.0,-12576.0,1138.0,-802.0,37.0,-17.0,1.0,1.0
2022-05-03 17:28:46.564671-07:00,1155.0,723.3,1106.0,1025.4,895.7,858.7,1808.1,1324.1,3474.6,3467.4,1144.5,912.7,1658.7,3477.1,1635.0,1389.4,3472.2,3484.4,1169.1,1785.8,2148.3,2866.0,1559.9,3497.8,3480.7,3477.1,702.8,954.3,1736.8,1092.1,996.2,899.1,-11.0,6.0,9.0,7194.0,-4957.0,9513.0,-10080.0,-38.0,-2.0,17.0,10.0,8.0,20.0,10414.0,-12572.0,1137.0,-801.0,-44.0,22.0,14.0,1.0
2022-05-03 17:28:46.624693-07:00,1155.0,723.3,1106.0,1019.4,895.7,857.0,1816.8,1329.6,3474.6,3467.4,1144.5,916.9,1658.7,3473.4,1638.8,1391.2,3480.7,3471.0,1170.9,1785.8,2144.3,2866.0,1559.9,3497.8,3488.0,3477.1,706.0,954.3,1731.1,1092.1,996.2,899.1,1.0,-7.0,-2.0,7191.0,-4971.0,9524.0,-10065.0,-38.0,-17.0,3.0,0.0,3.0,-4.0,10396.0,-12586.0,1147.0,-802.0,-38.0,4.0,3.0,1.0
2022-05-03 17:28:46.684911-07:00,1154.2,723.3,1107.8,1025.4,900.0,857.0,1816.8,1329.6,3475.9,3474.6,1144.5,912.7,1671.0,3473.4,1638.8,1391.2,3480.7,3471.0,1170.9,1786.8,2148.3,2869.4,1551.5,3500.2,3488.0,3477.1,706.0,957.7,1733.0,1094.7,999.6,899.1,0.0,0.0,0.0,7198.0,-4975.0,9525.0,-10057.0,-17.0,-36.0,20.0,4.0,4.0,3.0,10391.0,-12590.0,1147.0,-802.0,-7.0,3.0,3.0,1.0
2022-05-03 17:28:46.744600-07:00,1154.2,723.3,1107.8,1025.4,898.3,855.3,1800.3,1334.1,3475.9,3474.6,1144.5,912.7,1666.3,3478.3,1626.5,1388.5,3488.0,3492.9,1162.1,1779.1,2148.3,2869.4,1551.5,3500.2,3475.9,3485.6,701.1,953.4,1733.0,1094.7,999.6,899.1,0.0,-9.0,3.0,7207.0,-4992.0,9523.0,-10044.0,-9.0,-54.0,8.0,3.0,0.0,2.0,10391.0,-12590.0,1147.0,-802.0,13.0,-7.0,0.0,1.0
2022-05-03 17:28:46.746060-07:00,1149.8,729.0,1099.9,1023.7,898.3,855.3,1800.3,1334.1,3474.6,3478.3,1145.4,916.0,1666.3,3478.3,1626.5,1388.5,3488.0,3492.9,1162.1,1779.1,2137.2,2863.8,1552.5,3497.8,3475.9,3485.6,701.1,953.4,1728.2,1087.7,1000.5,895.7,-7.0,0.0,16.0,7213.0,-4985.0,9518.0,-10048.0,21.0,25.0,14.0,5.0,3.0,20.0,10405.0,-12579.0,1142.0,-800.0,34.0,-11.0,-5.0,1.0
2022-05-03 17:28:46.804953-07:00,1149.8,729.0,1099.9,1023.7,885.6,853.7,1810.0,1324.1,3474.6,3478.3,1145.4,916.0,1663.4,3467.4,1626.5,1387.5,3481.9,3485.6,1166.5,1774.3,2137.2,2863.8,1552.5,3497.8,3480.7,3483.2,696.2,953.4,1728.2,1087.7,1000.5,895.7,1.0,3.0,6.0,7207.0,-4984.0,9524.0,-10047.0,-31.0,19.0,-17.0,4.0,4.0,7.0,10402.0,-12581.0,1143.0,-803.0,-49.0,22.0,7.0,1.0
2022-05-03 17:28:46.865252-07:00,1155.0,725.8,1108.6,1028.8,885.6,853.7,1810.0,1324.1,3477.1,3477.1,1139.2,918.6,1663.4,3467.4,1626.5,1387.5,3481.9,3485.6,1166.5,1774.3,2149.3,2858.2,1548.7,3496.6,3480.7,3483.2,696.2,953.4,1734.9,1091.2,1000.5,895.7,-3.0,-1.0,-4.0,7203.0,-4977.0,9525.0,-10053.0,17.0,23.0,0.0,3.0,7.0,2.0,10393.0,-12587.0,1149.0,-809.0,-2.0,17.0,3.0,1.0
2022-05-03 17:28:46.894804-07:00,1155.0,725.8,1108.6,1028.8,894.1,850.3,1805.2,1327.8,3477.1,3477.1,1139.2,918.6,1662.5,3469.8,1625.6,1388.5,3486.8,3483.2,1169.1,1771.4,2149.3,2858.2,1548.7,3496.6,3478.3,3477.1,698.7,947.5,1734.9,1091.2,1000.5,895.7,-1.0,0.0,2.0,7200.0,-4974.0,9528.0,-10054.0,-10.0,9.0,-5.0,7.0,5.0,9.0,10393.0,-12588.0,1149.0,-810.0,4.0,0.0,-7.0,1.0
2022-05-03 17:28:46.984833-07:00,1148.0,730.7,1102.5,1021.1,894.1,850.3,1805.2,1330.5,3474.6,3471.0,1137.5,914.4,1662.5,3469.8,1625.6,1397.6,3480.7,3483.2,1169.1,1771.4,2143.3,2870.5,1548.7,3491.7,3477.1,3477.1,698.7,947.5,1733.0,1092.9,995.3,893.2,0.0,-2.0,11.0,7199.0,-4975.0,9529.0,-10053.0,1.0,8.0,-2.0,5.0,1.0,7.0,10394.0,-12586.0,1149.0,-811.0,11.0,-2.0,-7.0,1.0
2022-05-03 17:28:47.015045-07:00,1151.5,730.7,1102.5,1021.1,900.0,855.3,1804.2,1330.5,3483.2,3471.0,1137.5,914.4,1660.6,3467.4,1619.0,1397.6,3480.7,3480.7,1167.4,1775.2,2143.3,2870.5,1548.7,3496.6,3477.1,3479.5,696.2,945.8,1733.0,1092.9,995.3,894.9,0.0,2.0,2.0,7197.0,-4977.0,9531.0,-10051.0,-31.0,-7.0,-10.0,5.0,4.0,8.0,10391.0,-12589.0,1150.0,-813.0,-37.0,10.0,6.0,1.0
