Time,P0,P1,P2,P3,P4,P5,P6,P7,P8,P9,P10,P11,P12,P13,P14,P15,P16,P17,P18,P19,P20,P21,P22,P23,P24,P25,P26,P27,P28,P29,P30,P31,ECG,AX0,AY0,AZ0,QW0,QX0,QY0,QZ0,GX0,GY0,GZ0,AX1,AY1,AZ1,QW1,QX1,QY1,QZ1,GX1,GY1,GZ1
2022-05-03 16:49:59.889860-07:00,2104.8,596.3,1492.1,1643.5,1253.3,1317.8,1420.4,1562.7,3440.7,3443.1,1776.2,1434.1,1336.8,3449.1,1200.9,1636.0,3435.8,3437.0,725.8,1330.5,1000.5,597.9,1349.4,1903.6,3451.6,3443.1,773.6,934.7,1293.6,1618.1,1419.5,1195.6,-5.0,13.0,2.0,9469.0,12158.0,4275.0,3559.0,80.0,-23.0,-38.0,-3.0,-2.0,-7.0,10940.0,9727.0,5482.0,4908.0,40.0,14.0,-21.0,1.0
2022-05-03 16:49:59.919348-07:00,2076.5,595.5,1473.6,1642.6,1253.3,1317.8,1420.4,1562.7,3450.4,3454.0,1765.6,1435.0,1336.8,3449.1,1200.9,1636.0,3435.8,3437.0,725.8,1330.5,994.5,595.5,1339.5,1902.6,3451.6,3443.1,773.6,934.7,1292.7,1604.0,1404.9,1192.0,-1.0,-14.0,18.0,9471.0,12158.0,4285.0,3543.0,-31.0,19.0,-18.0,4.0,-6.0,-8.0,10940.0,9726.0,5484.0,4906.0,-3.0,1.0,1.0,1.0
2022-05-03 16:50:00.041047-07:00,2076.5,595.5,1473.6,1642.6,1254.2,1311.5,1420.4,1559.0,3450.4,3454.0,1765.6,1435.0,1336.8,3434.6,1196.5,1630.3,3440.7,3443.1,721.6,1328.7,994.5,595.5,1339.5,1902.6,3443.1,3443.1,767.0,933.0,1292.7,1604.0,1404.9,1192.0,-17.0,-14.0,4.0,9482.0,12142.0,4287.0,3566.0,-72.0,36.0,60.0,2.0,-18.0,5.0,10938.0,9728.0,5482.0,4911.0,9.0,11.0,23.0,1.0
2022-05-03 16:50:00.041757-07:00,2063.5,596.3,1462.6,1633.1,1254.2,1311.5,1420.4,1559.0,3446.7,3443.1,1755.0,1428.6,1336.8,3434.6,1196.5,1630.3,3440.7,3443.1,721.6,1328.7,997.9,593.9,1331.4,1895.8,3443.1,3443.1,767.0,933.0,1291.8,1606.8,1399.4,1194.7,1.0,-2.0,3.0,9484.0,12147.0,4258.0,3579.0,26.0,-84.0,83.0,6.0,-16.0,-11.0,10926.0,9741.0,5484.0,4909.0,43.0,-3.0,12.0,1.0
2022-05-03 16:50:00.099271-07:00,2063.5,596.3,1462.6,1633.1,1250.6,1314.2,1422.2,1571.1,3446.7,3443.1,1755.0,1428.6,1331.4,3444.3,1187.6,1631.3,3449.1,3444.3,724.1,1328.7,997.9,593.9,1331.4,1895.8,3446.7,3445.5,766.2,932.2,1291.8,1606.8,1399.4,1194.7,0.0,11.0,2.0,9479.0,12165.0,4224.0,3573.0,-18.0,-19.0,24.0,1.0,-2.0,-12.0,10918.0,9749.0,5488.0,4905.0,4.0,1.0,9.0,1.0
2022-05-03 16:50:00.129338-07:00,2065.5,596.3,1456.2,1634.1,1250.6,1314.2,1422.2,1578.6,3447.9,3449.1,1754.1,1431.4,1331.4,3444.3,1187.6,1631.3,3433.4,3444.3,724.1,1328.7,996.2,593.1,1327.8,1903.6,3451.6,3445.5,766.2,932.2,1293.6,1605.8,1396.7,1193.8,-13.0,-17.0,5.0,9492.0,12157.0,4216.0,3573.0,-29.0,-34.0,13.0,0.0,-15.0,2.0,10925.0,9743.0,5484.0,4907.0,-24.0,-13.0,-1.0,1.0
2022-05-03 16:50:00.189295-07:00,2060.5,596.3,1456.2,1634.1,1253.3,1302.5,1425.9,1578.6,3446.7,3449.1,1754.1,1431.4,1337.7,3447.9,1177.9,1631.3,3433.4,3446.7,724.1,1334.1,996.2,593.1,1327.8,1895.8,3451.6,3451.6,765.3,936.4,1293.6,1605.8,1396.7,1196.5,-4.0,0.0,13.0,9499.0,12160.0,4194.0,3570.0,-2.0,-44.0,51.0,1.0,-14.0,-1.0,10926.0,9744.0,5480.0,4906.0,6.0,-8.0,14.0,1.0
2022-05-03 16:50:00.219172-07:00,2060.5,595.5,1450.6,1634.1,1253.3,1302.5,1425.9,1570.2,3446.7,3449.1,1751.2,1430.5,1337.7,3447.9,1177.9,1622.8,3444.3,3446.7,724.1,1334.1,993.6,597.1,1330.5,1895.8,3445.5,3451.6,765.3,936.4,1285.5,1603.0,1392.1,1196.5,-2.0,2.0,8.0,9501.0,12164.0,4178.0,3572.0,-14.0,3.0,1.0,3.0,-6.0,0.0,10925.0,9746.0,5481.0,4904.0,7.0,8.0,2.0,1.0
2022-05-03 16:50:00.279417-07:00,2064.5,595.5,1450.6,1634.1,1246.2,1302.5,1423.1,1570.2,3441.9,3449.1,1751.2,1430.5,1339.5,3456.4,1184.1,1622.8,3444.3,3449.1,724.1,1339.5,993.6,597.1,1330.5,1896.7,3445.5,3446.7,767.0,933.0,1285.5,1603.0,1392.1,1191.2,-3.0,-14.0,-1.0,9503.0,12162.0,4178.0,3573.0,-5.0,11.0,10.0,1.0,-11.0,-6.0,10924.0,9747.0,5481.0,4904.0,5.0,2.0,1.0,1.0
2022-05-03 16:50:00.309398-07:00,2064.5,595.5,1443.3,1622.8,1246.2,1302.5,1423.1,1560.9,3441.9,3441.9,1755.0,1425.0,1339.5,3456.4,1184.1,1622.8,3451.6,3449.1,724.1,1339.5,997.0,602.0,1327.8,1896.7,3452.8,3446.7,767.0,933.0,1294.5,1600.2,1393.9,1191.2,-4.0,0.0,2.0,9502.0,12162.0,4175.0,3577.0,-11.0,-2.0,8.0,3.0,-10.0,-7.0,10924.0,9747.0,5481.0,4904.0,1.0,-5.0,4.0,1.0
2022-05-03 16:50:00.369143-07:00,2059.4,595.5,1443.3,1622.8,1246.2,1307.0,1424.1,1560.9,3444.3,3441.9,1755.0,1425.0,1327.8,3444.3,1175.3,1622.8,3451.6,3437.0,726.6,1329.6,997.0,602.0,1327.8,1893.8,3452.8,3454.0,762.9,927.1,1294.5,1600.2,1393.9,1193.8,-5.0,-8.0,8.0,9507.0,12158.0,4174.0,3580.0,-14.0,7.0,0.0,2.0,-14.0,-3.0,10924.0,9747.0,5481.0,4904.0,-6.0,-3.0,2.0,1.0
2022-05-03 16:50:00.428928-07:00,2059.4,591.5,1440.5,1627.5,1246.2,1307.0,1419.5,1570.2,3444.3,3450.4,1748.3,1425.0,1327.8,3444.3,1178.8,1619.9,3443.1,3438.2,726.6,1329.6,1000.5,591.5,1323.2,1893.8,3447.9,3450.4,762.9,927.1,1295.4,1594.6,1390.3,1193.8,-1.0,-5.0,5.0,9507.0,12159.0,4171.0,3580.0,-4.0,-11.0,21.0,3.0,-9.0,-4.0,10923.0,9748.0,5482.0,4904.0,7.0,-3.0,4.0,1.0
2022-05-03 16:50:00.459437-07:00,2054.4,593.9,1440.5,1627.5,1243.5,1310.6,1419.5,1570.2,3439.5,3445.5,1748.3,1425.0,1335.9,3447.9,1178.8,1619.9,3443.1,3438.2,724.1,1330.5,1000.5,591.5,1317.8,1887.9,3447.9,3450.4,757.1,933.0,1295.4,1594.6,1383.0,1192.0,-6.0,2.0,4.0,9510.0,12158.0,4164.0,3585.0,0.0,7.0,7.0,4.0,-7.0,-5.0,10923.0,9748.0,5482.0,4904.0,7.0,7.0,1.0,1.0
2022-05-03 16:50:00.519140-07:00,2054.4,593.9,1435.0,1622.8,1243.5,1310.6,1418.6,1564.6,3439.5,3445.5,1744.5,1425.9,1335.9,3447.9,1162.1,1613.4,3441.9,3443.1,724.1,1330.5,1002.2,591.5,1317.8,1887.9,3449.1,3444.3,757.1,933.0,1294.5,1598.3,1383.0,1192.0,-13.0,-10.0,-1.0,9511.0,12156.0,4166.0,3585.0,-28.0,18.0,-11.0,2.0,-12.0,-1.0,10921.0,9749.0,5483.0,4903.0,-10.0,5.0,-2.0,1.0
2022-05-03 16:50:00.669281-07:00,2056.4,590.7,1435.0,1622.8,1247.1,1302.5,1418.6,1564.6,3441.9,3449.1,1744.5,1425.9,1327.8,3451.6,1162.1,1613.4,3441.9,3443.1,722.5,1331.4,1002.2,591.5,1322.3,1888.9,3449.1,3444.3,764.5,932.2,1294.5,1598.3,1373.9,1188.5,-5.0,-4.0,6.0,9519.0,12147.0,4169.0,3592.0,0.0,8.0,9.0,2.0,-9.0,-4.0,10924.0,9747.0,5482.0,4905.0,4.0,-1.0,2.0,1.0
2022-05-03 16:50:00.670807-07:00,2056.4,590.7,1437.8,1627.5,1247.1,1302.5,1417.6,1560.9,3441.9,3449.1,1746.4,1428.6,1327.8,3451.6,1170.0,1613.4,3449.1,3451.6,722.5,1331.4,994.5,593.9,1322.3,1888.9,3444.3,3450.4,764.5,932.2,1290.0,1590.8,1373.9,1188.5,-5.0,-9.0,5.0,9519.0,12147.0,4169.0,3592.0,-12.0,-1.0,3.0,3.0,-12.0,-5.0,10922.0,9749.0,5483.0,4904.0,1.0,0.0,0.0,1.0
2022-05-03 16:50:00.671458-07:00,2055.4,597.9,1436.0,1627.5,1246.2,1306.1,1417.6,1560.9,3441.9,3451.6,1743.5,1428.6,1335.0,3447.9,1170.0,1613.4,3449.1,3451.6,724.9,1322.3,994.5,594.7,1322.3,1886.9,3444.3,3450.4,766.2,927.1,1290.0,1593.6,1384.8,1191.2,-4.0,-3.0,2.0,9520.0,12147.0,4165.0,3592.0,1.0,-17.0,15.0,0.0,-9.0,-7.0,10922.0,9749.0,5483.0,4904.0,2.0,-5.0,3.0,1.0
2022-05-03 16:50:00.729569-07:00,2055.4,597.9,1436.0,1623.7,1246.2,1299.8,1414.0,1561.8,3441.9,3451.6,1743.5,1425.9,1335.0,3438.2,1173.5,1611.5,3441.9,3449.1,724.9,1322.3,1001.3,594.7,1322.3,1886.9,3458.9,3443.1,762.0,927.1,1292.7,1593.6,1384.8,1191.2,-3.0,-5.0,1.0,9524.0,12147.0,4158.0,3591.0,-18.0,-9.0,2.0,4.0,-7.0,-4.0,10923.0,9748.0,5482.0,4904.0,-12.0,-5.0,-1.0,1.0
2022-05-03 16:50:00.759418-07:00,2054.4,602.0,1434.1,1623.7,1242.6,1299.8,1414.0,1561.8,3439.5,3443.1,1745.4,1425.9,1336.8,3438.2,1173.5,1611.5,3441.9,3449.1,724.9,1320.5,1001.3,595.5,1325.9,1887.9,3458.9,3443.1,762.0,922.0,1292.7,1588.9,1377.5,1190.3,-7.0,-5.0,9.0,9528.0,12143.0,4158.0,3593.0,-8.0,10.0,-7.0,3.0,-10.0,2.0,10924.0,9746.0,5482.0,4905.0,0.0,2.0,-3.0,1.0
2022-05-03 16:50:00.819113-07:00,2054.4,602.0,1434.1,1619.9,1242.6,1300.7,1415.8,1556.2,3439.5,3443.1,1745.4,1426.8,1336.8,3449.1,1169.1,1617.1,3437.0,3433.4,722.5,1320.5,998.7,595.5,1325.9,1887.9,3450.4,3446.7,760.4,922.0,1290.9,1588.9,1377.5,1190.3,-5.0,-6.0,5.0,9529.0,12142.0,4159.0,3593.0,-2.0,12.0,2.0,2.0,-9.0,-2.0,10924.0,9746.0,5482.0,4905.0,5.0,0.0,1.0,1.0
2022-05-03 16:50:00.939429-07:00,2054.4,598.7,1425.9,1619.9,1239.9,1300.7,1415.8,1556.2,3449.1,3444.3,1741.6,1426.8,1337.7,3449.1,1169.1,1617.1,3437.0,3433.4,722.5,1325.0,998.7,602.0,1316.9,1887.9,3450.4,3446.7,760.4,918.6,1290.9,1592.7,1381.2,1194.7,-3.0,-2.0,1.0,9527.0,12141.0,4162.0,3597.0,4.0,10.0,4.0,2.0,-8.0,-5.0,10924.0,9746.0,5482.0,4905.0,4.0,4.0,2.0,1.0
2022-05-03 16:50:00.940541-07:00,2054.4,598.7,1425.9,1620.9,1239.9,1299.0,1408.5,1556.2,3449.1,3444.3,1741.6,1426.8,1337.7,3449.1,1164.7,1612.4,3438.2,3443.1,720.0,1325.0,1001.3,602.0,1316.9,1887.9,3451.6,3446.7,757.9,918.6,1303.4,1592.7,1381.2,1194.7,-6.0,-3.0,1.0,9527.0,12141.0,4162.0,3598.0,-5.0,0.0,11.0,-1.0,-9.0,-4.0,10924.0,9746.0,5482.0,4905.0,1.0,-2.0,3.0,1.0
2022-05-03 16:50:00.999257-07:00,2059.4,594.7,1426.8,1623.7,1241.7,1299.0,1408.5,1556.2,3444.3,3440.7,1747.3,1425.9,1335.0,3449.1,1164.7,1612.4,3438.2,3443.1,720.0,1339.5,999.6,592.3,1322.3,1884.0,3451.6,3446.7,757.9,922.0,1288.2,1593.6,1378.5,1192.0,-1.0,-2.0,6.0,9528.0,12141.0,4158.0,3602.0,-16.0,-4.0,10.0,1.0,-5.0,-4.0,10925.0,9745.0,5481.0,4905.0,-10.0,-8.0,5.0,1.0
2022-05-03 16:50:01.029196-07:00,2059.4,594.7,1426.8,1623.7,1239.1,1298.1,1407.6,1558.1,3444.3,3440.7,1747.3,1425.9,1335.0,3441.9,1162.1,1614.3,3451.6,3446.7,722.5,1336.8,999.6,592.3,1322.3,1884.0,3449.1,3443.1,759.6,922.0,1288.2,1593.6,1378.5,1192.0,0.0,-3.0,10.0,9531.0,12140.0,4152.0,3603.0,2.0,-17.0,12.0,7.0,-12.0,-6.0,10927.0,9744.0,5480.0,4906.0,7.0,-5.0,2.0,1.0
2022-05-03 16:50:01.119930-07:00,2059.4,596.3,1425.9,1616.2,1239.1,1298.1,1407.6,1558.1,3441.9,3449.1,1749.3,1419.5,1335.0,3441.9,1162.1,1614.3,3451.6,3446.7,722.5,1336.8,997.9,597.1,1329.6,1883.0,3449.1,3443.1,759.6,922.0,1286.4,1590.8,1375.7,1195.6,-4.0,-6.0,5.0,9531.0,12141.0,4146.0,3605.0,-11.0,2.0,14.0,3.0,-11.0,-1.0,10927.0,9744.0,5480.0,4906.0,-5.0,0.0,6.0,1.0
2022-05-03 16:50:01.120675-07:00,2059.4,596.3,1425.9,1616.2,1238.2,1298.1,1418.6,1561.8,3441.9,3449.1,1749.3,1419.5,1334.1,3445.5,1167.4,1611.5,3445.5,3441.9,722.5,1330.5,997.9,597.1,1329.6,1883.0,3443.1,3454.0,762.9,924.5,1286.4,1590.8,1375.7,1195.6,-4.0,-3.0,8.0,9531.0,12142.0,4144.0,3606.0,7.0,4.0,-3.0,1.0,-8.0,-2.0,10927.0,9744.0,5480.0,4906.0,4.0,4.0,-2.0,1.0
2022-05-03 16:50:01.178995-07:00,2051.4,591.5,1417.6,1627.5,1238.2,1298.1,1418.6,1561.8,3449.1,3449.1,1745.4,1420.4,1334.1,3445.5,1167.4,1611.5,3445.5,3441.9,722.5,1330.5,996.2,593.1,1332.3,1882.0,3443.1,3454.0,762.9,924.5,1290.0,1591.7,1373.9,1192.0,-2.0,-13.0,0.0,9534.0,12139.0,4143.0,3609.0,-11.0,-1.0,15.0,5.0,-11.0,-5.0,10927.0,9744.0,5480.0,4906.0,-2.0,0.0,6.0,1.0
2022-05-03 16:50:01.239267-07:00,2055.4,591.5,1417.6,1627.5,1251.5,1299.8,1411.3,1554.3,3447.9,3449.1,1745.4,1420.4,1340.4,3445.5,1163.8,1621.8,3449.1,3438.2,724.1,1329.6,996.2,593.1,1332.3,1877.2,3444.3,3447.9,765.3,924.5,1290.0,1591.7,1373.9,1195.6,-4.0,6.0,4.0,9532.0,12141.0,4140.0,3611.0,-3.0,5.0,-5.0,2.0,-7.0,-3.0,10927.0,9744.0,5480.0,4906.0,-6.0,-1.0,0.0,1.0
2022-05-03 16:50:01.269211-07:00,2055.4,596.3,1418.6,1619.0,1251.5,1299.8,1411.3,1557.1,3447.9,3456.4,1736.8,1426.8,1340.4,3445.5,1163.8,1604.0,3438.2,3438.2,724.1,1329.6,995.3,593.9,1328.7,1877.2,3444.3,3447.9,765.3,924.5,1298.1,1588.0,1379.4,1195.6,-5.0,-11.0,3.0,9536.0,12137.0,4141.0,3610.0,-4.0,7.0,4.0,5.0,-9.0,0.0,10929.0,9742.0,5479.0,4907.0,1.0,0.0,1.0,1.0
2022-05-03 16:50:01.299352-07:00,2052.4,596.3,1418.6,1619.0,1231.9,1299.0,1411.3,1557.1,3451.6,3456.4,1736.8,1426.8,1333.2,3439.5,1163.8,1604.0,3438.2,3440.7,720.0,1332.3,995.3,593.9,1328.7,1882.0,3444.3,3447.9,761.2,924.5,1298.1,1588.0,1379.4,1192.9,-6.0,-1.0,2.0,9533.0,12140.0,4137.0,3613.0,-3.0,-7.0,10.0,2.0,-9.0,-5.0,10929.0,9742.0,5479.0,4907.0,-2.0,-6.0,3.0,1.0
2022-05-03 16:50:01.359079-07:00,2052.4,597.1,1418.6,1619.0,1231.9,1299.0,1411.3,1553.4,3451.6,3445.5,1732.0,1422.2,1333.2,3439.5,1163.8,1614.3,3446.7,3440.7,720.0,1332.3,997.0,593.1,1329.6,1882.0,3454.0,3447.9,761.2,924.5,1278.3,1588.9,1373.0,1192.9,-7.0,-4.0,5.0,9537.0,12138.0,4136.0,3614.0,-3.0,-1.0,-1.0,6.0,-5.0,-2.0,10930.0,9741.0,5478.0,4907.0,-1.0,1.0,0.0,1.0
2022-05-03 16:50:01.419963-07:00,2055.4,597.1,1418.6,1619.0,1236.4,1295.4,1411.3,1553.4,3452.8,3445.5,1732.0,1422.2,1330.5,3458.9,1163.8,1614.3,3446.7,3444.3,726.6,1327.8,997.0,593.1,1329.6,1879.1,3454.0,3445.5,767.0,918.6,1278.3,1588.9,1373.0,1188.5,-6.0,-4.0,3.0,9536.0,12138.0,4136.0,3613.0,-1.0,-5.0,6.0,2.0,-7.0,-5.0,10930.0,9741.0,5478.0,4907.0,-8.0,0.0,2.0,1.0
2022-05-03 16:50:01.509356-07:00,2055.4,598.7,1426.8,1619.9,1236.4,1295.4,1411.3,1560.9,3452.8,3449.1,1744.5,1422.2,1330.5,3458.9,1163.8,1605.8,3447.9,3444.3,726.6,1327.8,998.7,591.5,1325.0,1879.1,3458.9,3445.5,767.0,918.6,1285.5,1588.0,1378.5,1188.5,-4.0,0.0,6.0,9536.0,12138.0,4136.0,3613.0,-6.0,4.0,-3.0,3.0,-10.0,-2.0,10930.0,9741.0,5478.0,4907.0,-3.0,0.0,0.0,1.0
2022-05-03 16:50:01.539921-07:00,2051.4,593.9,1426.8,1619.9,1239.9,1292.7,1412.2,1560.9,3446.7,3446.7,1744.5,1422.2,1331.4,3449.1,1164.7,1605.8,3447.9,3451.6,717.5,1332.3,998.7,591.5,1325.9,1889.9,3458.9,3456.4,754.6,927.1,1285.5,1588.0,1367.6,1194.7,-6.0,-4.0,7.0,9536.0,12138.0,4136.0,3613.0,-4.0,7.0,-5.0,3.0,-7.0,-2.0,10930.0,9741.0,5478.0,4907.0,-5.0,1.0,1.0,1.0
2022-05-03 16:50:01.569183-07:00,2051.4,593.9,1419.5,1619.0,1239.9,1292.7,1406.7,1558.1,3446.7,3446.7,1739.7,1432.3,1331.4,3449.1,1162.1,1607.7,3443.1,3438.2,717.5,1332.3,996.2,593.1,1325.9,1889.9,3437.0,3451.6,754.6,927.1,1289.1,1593.6,1367.6,1194.7,-6.0,-1.0,6.0,9536.0,12139.0,4136.0,3613.0,10.0,-3.0,9.0,5.0,-11.0,-5.0,10930.0,9741.0,5478.0,4907.0,10.0,6.0,1.0,1.0
2022-05-03 16:50:01.629137-07:00,2050.4,595.5,1419.5,1619.0,1239.1,1296.3,1406.7,1558.1,3449.1,3440.7,1739.7,1432.3,1335.0,3450.4,1162.1,1607.7,3443.1,3438.2,724.9,1340.4,996.2,593.1,1319.6,1884.0,3437.0,3451.6,760.4,921.1,1289.1,1593.6,1374.8,1196.5,-5.0,-2.0,5.0,9535.0,12139.0,4136.0,3613.0,-14.0,4.0,-5.0,2.0,-7.0,-4.0,10929.0,9742.0,5479.0,4907.0,-7.0,-4.0,0.0,1.0
2022-05-03 16:50:01.689292-07:00,2050.4,595.5,1418.6,1624.7,1239.1,1296.3,1413.1,1550.6,3449.1,3440.7,1738.7,1421.3,1335.0,3450.4,1160.3,1602.1,3446.7,3449.1,724.9,1340.4,1001.3,597.1,1319.6,1884.0,3438.2,3440.7,760.4,921.1,1292.7,1584.2,1374.8,1196.5,-6.0,-7.0,3.0,9537.0,12138.0,4135.0,3614.0,8.0,1.0,10.0,2.0,-7.0,-3.0,10929.0,9742.0,5479.0,4907.0,3.0,-1.0,3.0,1.0
2022-05-03 16:50:01.749871-07:00,2052.4,597.1,1418.6,1624.7,1239.1,1289.1,1413.1,1550.6,3439.5,3428.6,1738.7,1421.3,1336.8,3447.9,1160.3,1602.1,3446.7,3449.1,721.6,1324.1,1001.3,597.1,1321.4,1885.0,3438.2,3440.7,761.2,925.4,1292.7,1584.2,1380.3,1199.1,0.0,0.0,4.0,9535.0,12139.0,4136.0,3613.0,-3.0,-2.0,-2.0,5.0,-7.0,-3.0,10929.0,9742.0,5479.0,4907.0,-6.0,0.0,-1.0,1.0
2022-05-03 16:50:01.779896-07:00,2052.4,597.1,1417.6,1614.3,1239.1,1290.0,1412.2,1558.1,3439.5,3428.6,1740.6,1419.5,1336.8,3449.1,1163.8,1600.2,3440.7,3445.5,724.9,1324.1,998.7,588.3,1321.4,1885.0,3440.7,3450.4,771.1,925.4,1289.1,1588.0,1380.3,1199.1,-7.0,-8.0,5.0,9535.0,12139.0,4136.0,3613.0,3.0,-1.0,-1.0,1.0,-13.0,0.0,10929.0,9742.0,5479.0,4907.0,4.0,9.0,-3.0,1.0
2022-05-03 16:50:01.809587-07:00,2046.4,596.3,1415.8,1614.3,1234.6,1290.0,1412.2,1558.1,3444.3,3447.9,1732.0,1419.5,1337.7,3449.1,1163.8,1600.2,3440.7,3445.5,724.9,1331.4,998.7,591.5,1325.0,1881.1,3440.7,3450.4,771.1,919.4,1289.1,1588.0,1367.6,1193.8,-6.0,-8.0,3.0,9535.0,12139.0,4135.0,3614.0,-5.0,-2.0,10.0,1.0,-10.0,-6.0,10929.0,9742.0,5479.0,4907.0,-1.0,2.0,6.0,1.0
2022-05-03 16:50:01.869154-07:00,2046.4,596.3,1415.8,1616.2,1234.6,1293.6,1409.4,1555.3,3444.3,3447.9,1732.0,1423.1,1337.7,3446.7,1161.2,1605.8,3443.1,3441.9,722.5,1331.4,999.6,591.5,1325.0,1881.1,3438.2,3450.4,763.7,919.4,1286.4,1588.0,1367.6,1193.8,-2.0,1.0,5.0,9534.0,12140.0,4133.0,3615.0,0.0,0.0,-3.0,4.0,-7.0,-2.0,10929.0,9742.0,5479.0,4907.0,3.0,3.0,-3.0,1.0
2022-05-03 16:50:01.989295-07:00,2050.4,599.6,1414.9,1616.2,1238.2,1293.6,1409.4,1555.3,3449.1,3438.2,1737.8,1423.1,1335.9,3446.7,1161.2,1605.8,3443.1,3441.9,722.5,1329.6,999.6,593.1,1313.3,1878.1,3438.2,3450.4,763.7,924.5,1286.4,1581.4,1356.7,1193.8,-5.0,-11.0,6.0,9535.0,12139.0,4134.0,3616.0,-5.0,10.0,7.0,2.0,-14.0,-2.0,10929.0,9742.0,5479.0,4907.0,-4.0,-3.0,4.0,1.0
2022-05-03 16:50:02.019920-07:00,2050.4,599.6,1414.9,1627.5,1238.2,1293.6,1408.5,1556.2,3449.1,3438.2,1737.8,1430.5,1335.9,3447.9,1156.8,1600.2,3443.1,3438.2,722.5,1329.6,1000.5,593.1,1313.3,1878.1,3451.6,3446.7,757.9,924.5,1293.6,1581.4,1356.7,1193.8,-6.0,2.0,-1.0,9533.0,12141.0,4131.0,3618.0,6.0,-5.0,7.0,5.0,-8.0,0.0,10928.0,9742.0,5479.0,4907.0,9.0,2.0,1.0,1.0
2022-05-03 16:50:02.049213-07:00,2050.4,591.5,1419.5,1627.5,1239.9,1293.6,1408.5,1556.2,3451.6,3437.0,1749.3,1430.5,1335.0,3447.9,1156.8,1600.2,3443.1,3438.2,722.5,1324.1,1000.5,590.7,1319.6,1875.2,3451.6,3446.7,757.9,918.6,1293.6,1584.2,1367.6,1189.4,-6.0,-7.0,3.0,9533.0,12141.0,4131.0,3618.0,-5.0,3.0,-4.0,4.0,-14.0,-9.0,10928.0,9742.0,5479.0,4907.0,-3.0,2.0,1.0,1.0
2022-05-03 16:50:02.050266-07:00,2050.4,591.5,1419.5,1617.1,1235.5,1291.8,1412.2,1557.1,3451.6,3437.0,1749.3,1412.2,1339.5,3449.1,1153.3,1603.0,3443.1,3440.7,721.6,1329.6,994.5,590.7,1319.6,1875.2,3446.7,3440.7,757.1,922.8,1291.8,1584.2,1367.6,1189.4,-6.0,-2.0,2.0,9533.0,12141.0,4130.0,3619.0,5.0,-5.0,10.0,5.0,-6.0,-2.0,10928.0,9742.0,5479.0,4907.0,3.0,2.0,2.0,1.0
2022-05-03 16:50:02.109836-07:00,2050.4,596.3,1418.6,1618.1,1235.5,1291.8,1412.2,1557.1,3447.9,3440.7,1737.8,1421.3,1339.5,3449.1,1153.3,1603.0,3443.1,3440.7,721.6,1329.6,993.6,596.3,1324.1,1873.2,3446.7,3440.7,757.1,922.8,1288.2,1585.2,1371.2,1192.0,-2.0,-5.0,3.0,9534.0,12141.0,4129.0,3619.0,-6.0,7.0,0.0,3.0,-8.0,-6.0,10929.0,9742.0,5479.0,4907.0,-10.0,1.0,1.0,1.0
2022-05-03 16:50:02.199197-07:00,2050.4,596.3,1418.6,1618.1,1234.6,1290.0,1411.3,1556.2,3447.9,3440.7,1737.8,1421.3,1336.8,3456.4,1156.8,1604.9,3449.1,3449.1,723.3,1331.4,993.6,596.3,1324.1,1873.2,3454.0,3447.9,761.2,916.9,1288.2,1585.2,1371.2,1192.0,-8.0,-7.0,6.0,9534.0,12141.0,4129.0,3619.0,3.0,-6.0,8.0,3.0,-11.0,-3.0,10929.0,9742.0,5479.0,4907.0,3.0,0.0,1.0,1.0
2022-05-03 16:50:02.200253-07:00,2051.4,596.3,1419.5,1611.5,1234.6,1290.0,1411.3,1556.2,3441.9,3447.9,1733.0,1422.2,1336.8,3456.4,1156.8,1604.9,3449.1,3449.1,723.3,1331.4,997.0,595.5,1319.6,1874.2,3454.0,3447.9,761.2,916.9,1290.9,1582.4,1383.0,1192.9,-8.0,-4.0,7.0,9534.0,12141.0,4129.0,3619.0,-5.0,-2.0,8.0,2.0,-12.0,-5.0,10929.0,9742.0,5479.0,4907.0,2.0,0.0,8.0,1.0
2022-05-03 16:50:02.259595-07:00,2051.4,596.3,1419.5,1611.5,1231.0,1293.6,1412.2,1552.5,3441.9,3447.9,1733.0,1422.2,1335.9,3451.6,1156.8,1600.2,3449.1,3451.6,721.6,1335.0,997.0,595.5,1319.6,1874.2,3450.4,3454.0,760.4,922.0,1290.9,1582.4,1383.0,1192.9,-6.0,-5.0,5.0,9533.0,12140.0,4130.0,3620.0,-4.0,5.0,8.0,3.0,-10.0,-3.0,10929.0,9742.0,5479.0,4907.0,1.0,4.0,6.0,1.0
2022-05-03 16:50:02.319210-07:00,2051.4,590.7,1413.1,1613.4,1231.0,1293.6,1412.2,1554.3,3444.3,3454.0,1736.8,1423.1,1335.9,3451.6,1156.8,1604.0,3445.5,3451.6,721.6,1335.0,997.9,600.4,1322.3,1874.2,3449.1,3454.0,760.4,922.0,1291.8,1589.9,1368.5,1194.7,-5.0,2.0,6.0,9532.0,12142.0,4126.0,3623.0,9.0,0.0,11.0,3.0,-5.0,-4.0,10929.0,9742.0,5479.0,4907.0,6.0,-2.0,6.0,1.0
2022-05-03 16:50:02.349329-07:00,2047.4,590.7,1413.1,1613.4,1239.1,1291.8,1414.0,1554.3,3450.4,3454.0,1736.8,1423.1,1335.9,3446.7,1153.3,1604.0,3445.5,3450.4,721.6,1326.8,997.9,600.4,1322.3,1870.3,3449.1,3445.5,763.7,919.4,1291.8,1589.9,1368.5,1197.4,-5.0,-7.0,4.0,9532.0,12142.0,4126.0,3624.0,-2.0,-2.0,-1.0,4.0,-6.0,-6.0,10929.0,9742.0,5479.0,4907.0,-4.0,-4.0,0.0,1.0
2022-05-03 16:50:02.439337-07:00,2047.4,594.7,1412.2,1615.2,1239.1,1291.8,1414.0,1552.5,3450.4,3446.7,1737.8,1416.7,1335.9,3446.7,1153.3,1604.9,3445.5,3450.4,721.6,1326.8,998.7,590.7,1325.0,1870.3,3443.1,3445.5,763.7,919.4,1288.2,1581.4,1368.5,1197.4,-4.0,-5.0,7.0,9531.0,12143.0,4123.0,3625.0,5.0,-5.0,12.0,4.0,-9.0,0.0,10929.0,9742.0,5479.0,4907.0,6.0,-1.0,6.0,1.0
2022-05-03 16:50:02.469236-07:00,2046.4,594.7,1412.2,1615.2,1231.0,1288.2,1407.6,1552.5,3446.7,3446.7,1737.8,1416.7,1333.2,3438.2,1154.2,1604.9,3445.5,3450.4,722.5,1332.3,998.7,590.7,1325.0,1878.1,3443.1,3454.0,752.9,922.0,1288.2,1581.4,1368.5,1187.6,-3.0,-4.0,5.0,9531.0,12143.0,4122.0,3625.0,5.0,7.0,-5.0,5.0,-9.0,-3.0,10927.0,9743.0,5480.0,4907.0,5.0,9.0,-3.0,1.0
2022-05-03 16:50:02.499246-07:00,2046.4,594.7,1410.3,1611.5,1231.0,1288.2,1407.6,1554.3,3446.7,3449.1,1729.1,1428.6,1333.2,3438.2,1154.2,1608.7,3450.4,3450.4,722.5,1332.3,998.7,596.3,1322.3,1878.1,3445.5,3454.0,752.9,922.0,1290.9,1583.3,1365.7,1187.6,-7.0,-9.0,3.0,9530.0,12143.0,4124.0,3628.0,7.0,7.0,3.0,2.0,-12.0,-3.0,10927.0,9742.0,5481.0,4908.0,6.0,6.0,2.0,1.0
2022-05-03 16:50:02.649245-07:00,2047.4,594.7,1410.3,1611.5,1233.7,1289.1,1410.3,1554.3,3443.1,3449.1,1729.1,1428.6,1333.2,3449.1,1151.5,1608.7,3450.4,3438.2,724.9,1322.3,998.7,596.3,1322.3,1874.2,3445.5,3443.1,757.9,916.0,1290.9,1583.3,1365.7,1192.9,-6.0,-4.0,4.0,9527.0,12145.0,4125.0,3627.0,12.0,6.0,8.0,2.0,-7.0,-6.0,10925.0,9744.0,5482.0,4907.0,11.0,7.0,4.0,1.0
2022-05-03 16:50:02.710124-07:00,2047.4,596.3,1412.2,1619.0,1233.7,1289.1,1412.2,1544.1,3443.1,3450.4,1730.1,1419.5,1333.2,3449.1,1155.9,1604.9,3441.9,3443.1,724.9,1322.3,1000.5,594.7,1315.1,1874.2,3446.7,3445.5,757.9,916.0,1292.7,1584.2,1370.3,1192.9,1.0,0.0,4.0,9527.0,12145.0,4126.0,3628.0,3.0,17.0,-8.0,8.0,-6.0,-9.0,10925.0,9744.0,5482.0,4907.0,-7.0,5.0,5.0,1.0
2022-05-03 16:50:02.739549-07:00,2042.4,593.1,1412.2,1619.0,1231.0,1289.1,1412.2,1544.1,3446.7,3450.4,1730.1,1419.5,1339.5,3446.7,1155.9,1604.9,3441.9,3443.1,725.8,1334.1,1000.5,594.7,1312.4,1873.2,3446.7,3445.5,760.4,921.1,1292.7,1584.2,1363.0,1191.2,164.0,139.0,12.0,9503.0,12130.0,4205.0,3648.0,120.0,668.0,-493.0,-14.0,69.0,-176.0,10927.0,9740.0,5484.0,4910.0,-32.0,1.0,-15.0,1.0
2022-05-03 16:50:02.740633-07:00,2042.4,593.1,1414.0,1619.0,1231.0,1289.1,1412.2,1549.7,3446.7,3450.4,1730.1,1422.2,1339.5,3446.7,1144.5,1593.6,3438.2,3449.1,725.8,1334.1,1001.3,593.9,1312.4,1873.2,3445.5,3450.4,760.4,921.1,1287.3,1580.5,1363.0,1191.2,262.0,222.0,421.0,9425.0,11839.0,4928.0,3896.0,18.0,3615.0,-1826.0,-39.0,62.0,-146.0,10959.0,9737.0,5477.0,4851.0,105.0,-219.0,-159.0,1.0
2022-05-03 16:50:02.859445-07:00,2127.0,601.2,1414.0,1619.0,1230.2,1310.6,1412.2,1549.7,3444.3,3445.5,1730.1,1422.2,1331.4,3441.9,1144.5,1593.6,3438.2,3449.1,724.9,1325.9,1001.3,593.9,1334.1,1871.3,3445.5,3450.4,762.0,942.4,1287.3,1580.5,1366.6,1191.2,-9.0,-273.0,52.0,8795.0,10882.0,6954.0,4929.0,787.0,6852.0,-2614.0,133.0,-179.0,493.0,10834.0,9808.0,5704.0,4725.0,762.0,710.0,-522.0,1.0
2022-05-03 16:50:02.860450-07:00,2127.0,601.2,1414.0,1609.6,1230.2,1310.6,1493.0,1685.3,3444.3,3445.5,1746.4,1425.0,1331.4,3441.9,1144.5,1602.1,3445.5,3440.7,724.9,1325.9,1018.5,597.1,1334.1,1871.3,3444.3,3445.5,762.0,942.4,1290.0,1574.9,1366.6,1191.2,-144.0,-264.0,-207.0,7597.0,9867.0,8957.0,5755.0,315.0,4044.0,-1391.0,72.0,-127.0,174.0,10302.0,10058.0,6367.0,4540.0,1575.0,1023.0,-642.0,1.0
2022-05-03 16:50:03.040191-07:00,2165.6,601.2,1410.3,1609.6,1233.7,1315.1,1493.0,1685.3,3445.5,3438.2,1759.8,1425.0,1336.8,3449.1,1144.5,1602.1,3445.5,3440.7,735.6,1345.8,1018.5,602.8,1328.7,1877.2,3444.3,3445.5,765.3,933.9,1290.0,1585.2,1378.5,1193.8,97.0,-285.0,-208.0,6826.0,9281.0,9753.0,6371.0,543.0,2207.0,728.0,-35.0,-70.0,-103.0,9806.0,10248.0,6886.0,4454.0,1623.0,888.0,-181.0,1.0
2022-05-03 16:50:03.040961-07:00,2165.6,601.2,1410.3,1619.9,1233.7,1316.9,1502.3,1738.7,3445.5,3438.2,1759.8,1437.8,1336.8,3445.5,1154.2,1614.3,3443.1,3434.6,738.9,1345.8,1032.3,602.8,1328.7,1877.2,3457.6,3449.1,784.4,933.9,1292.7,1585.2,1378.5,1193.8,142.0,9.0,-199.0,5984.0,9327.0,9886.0,6921.0,398.0,1735.0,1398.0,-2.0,-11.0,-145.0,9128.0,10651.0,7302.0,4284.0,1942.0,613.0,67.0,1.0
2022-05-03 16:50:03.042000-07:00,2253.8,602.0,1430.5,1619.9,1231.0,1316.9,1502.3,1738.7,3444.3,3451.6,1770.4,1437.8,1334.1,3445.5,1154.2,1614.3,3443.1,3434.6,738.9,1369.4,1032.3,597.1,1327.8,1864.5,3457.6,3449.1,784.4,928.8,1292.7,1591.7,1390.3,1200.9,105.0,159.0,-207.0,5439.0,9419.0,9854.0,7283.0,122.0,697.0,640.0,-23.0,45.0,-154.0,8661.0,10934.0,7523.0,4155.0,856.0,255.0,46.0,1.0
2022-05-03 16:50:03.042945-07:00,2253.8,602.0,1430.5,1618.1,1231.0,1311.5,1478.3,1688.1,3444.3,3451.6,1770.4,1431.4,1334.1,3454.0,1152.4,1611.5,3438.2,3440.7,752.1,1369.4,1037.5,597.1,1327.8,1864.5,3451.6,3443.1,794.4,928.8,1281.0,1591.7,1390.3,1200.9,19.0,7.0,-162.0,5378.0,9363.0,9881.0,7362.0,-127.0,-45.0,-317.0,-10.0,-5.0,-57.0,8610.0,10958.0,7557.0,4138.0,-261.0,-64.0,-32.0,1.0
2022-05-03 16:50:03.099900-07:00,2275.5,601.2,1417.6,1618.1,1245.3,1311.5,1478.3,1688.1,3446.7,3435.8,1755.0,1431.4,1335.9,3454.0,1152.4,1611.5,3438.2,3440.7,752.1,1387.5,1037.5,602.0,1318.7,1876.2,3451.6,3443.1,794.4,921.1,1281.0,1589.9,1383.0,1194.7,-12.0,-109.0,-41.0,5597.0,9297.0,9877.0,7289.0,-230.0,-397.0,-283.0,7.0,-36.0,7.0,8778.0,10872.0,7462.0,4184.0,-452.0,-214.0,47.0,1.0
2022-05-03 16:50:03.129101-07:00,2275.5,601.2,1417.6,1614.3,1245.3,1311.5,1468.1,1667.2,3446.7,3435.8,1755.0,1424.1,1335.9,3445.5,1148.0,1604.0,3449.1,3447.9,737.3,1387.5,1033.2,602.0,1318.7,1876.2,3450.4,3451.6,790.2,921.1,1287.3,1589.9,1383.0,1194.7,-24.0,-53.0,27.0,5725.0,9349.0,9785.0,7246.0,-45.0,-292.0,229.0,25.0,-36.0,41.0,8861.0,10870.0,7367.0,4183.0,12.0,-180.0,109.0,1.0
2022-05-03 16:50:03.159935-07:00,2251.7,599.6,1418.6,1613.4,1230.2,1311.5,1468.1,1667.2,3445.5,3446.7,1753.1,1427.7,1332.3,3445.5,1148.0,1604.0,3449.1,3447.9,737.3,1386.6,1034.9,597.9,1312.4,1869.3,3450.4,3451.6,790.2,922.0,1285.5,1581.4,1399.4,1208.9,-62.0,48.0,0.0,5705.0,9448.0,9703.0,7244.0,42.0,-75.0,212.0,25.0,21.0,55.0,8840.0,10926.0,7329.0,4147.0,119.0,-69.0,49.0,1.0
2022-05-03 16:50:03.369775-07:00,2251.7,599.6,1418.6,1613.4,1234.6,1308.8,1462.6,1660.6,3445.5,3446.7,1753.1,1427.7,1334.1,3449.1,1137.5,1600.2,3444.3,3444.3,734.0,1374.8,1034.9,597.9,1312.4,1869.3,3454.0,3450.4,791.0,919.4,1285.5,1581.4,1399.4,1208.9,-14.0,-2.0,-10.0,5705.0,9465.0,9685.0,7246.0,-29.0,31.0,-36.0,7.0,7.0,14.0,8839.0,10927.0,7328.0,4146.0,-32.0,33.0,-25.0,1.0
2022-05-03 16:50:03.370768-07:00,2259.0,597.9,1409.4,1612.4,1234.6,1308.8,1462.6,1660.6,3440.7,3447.9,1751.2,1426.8,1334.1,3449.1,1137.5,1600.2,3444.3,3444.3,734.0,1374.8,1030.6,603.6,1314.2,1869.3,3454.0,3450.4,791.0,919.4,1303.4,1586.1,1374.8,1197.4,-9.0,-49.0,-42.0,5706.0,9442.0,9695.0,7262.0,-33.0,26.0,7.0,3.0,-16.0,-1.0,8838.0,10914.0,7344.0,4156.0,-8.0,47.0,-16.0,1.0
2022-05-03 16:50:03.372293-07:00,2259.0,597.9,1409.4,1612.4,1239.1,1307.0,1462.6,1641.6,3440.7,3447.9,1751.2,1426.8,1332.3,3438.2,1144.5,1619.9,3454.0,3441.9,734.8,1376.6,1030.6,603.6,1314.2,1869.3,3440.7,3446.7,794.4,915.2,1303.4,1586.1,1374.8,1197.4,-1.0,-24.0,-51.0,5694.0,9460.0,9666.0,7287.0,-33.0,58.0,137.0,5.0,-12.0,-17.0,8816.0,10924.0,7354.0,4160.0,76.0,19.0,33.0,1.0
2022-05-03 16:50:03.373292-07:00,2250.7,599.6,1418.6,1617.1,1239.1,1307.0,1462.6,1641.6,3449.1,3446.7,1759.8,1423.1,1332.3,3438.2,1144.5,1619.9,3454.0,3441.9,734.8,1376.6,1030.6,599.6,1311.5,1870.3,3440.7,3446.7,794.4,915.2,1281.9,1584.2,1373.9,1190.3,20.0,1.0,-28.0,5680.0,9506.0,9615.0,7304.0,-48.0,-88.0,134.0,-2.0,-17.0,-15.0,8790.0,10947.0,7353.0,4154.0,32.0,-15.0,35.0,1.0
2022-05-03 16:50:03.429050-07:00,2250.7,599.6,1418.6,1617.1,1232.8,1309.7,1454.3,1635.0,3449.1,3446.7,1759.8,1423.1,1332.3,3437.0,1143.6,1599.3,3439.5,3444.3,734.8,1383.0,1030.6,599.6,1311.5,1870.3,3446.7,3449.1,788.6,919.4,1281.9,1584.2,1373.9,1190.3,-8.0,-6.0,-25.0,5693.0,9530.0,9575.0,7316.0,-46.0,-72.0,57.0,14.0,-6.0,3.0,8788.0,10957.0,7339.0,4156.0,-19.0,-19.0,23.0,1.0
2022-05-03 16:50:03.489961-07:00,2245.6,597.1,1399.4,1609.6,1232.8,1309.7,1454.3,1638.8,3449.1,3445.5,1747.3,1427.7,1332.3,3437.0,1143.6,1602.1,3444.3,3444.3,734.8,1383.0,1026.3,599.6,1307.0,1866.4,3445.5,3449.1,788.6,919.4,1283.7,1581.4,1383.9,1189.4,2.0,-11.0,-8.0,5705.0,9555.0,9552.0,7305.0,29.0,-48.0,40.0,14.0,-17.0,1.0,8793.0,10962.0,7329.0,4154.0,14.0,-24.0,10.0,1.0
2022-05-03 16:50:03.519793-07:00,2247.6,597.1,1399.4,1609.6,1239.1,1308.8,1458.0,1638.8,3447.9,3445.5,1747.3,1427.7,1329.6,3449.1,1137.5,1602.1,3444.3,3444.3,734.8,1376.6,1026.3,599.6,1307.0,1868.4,3445.5,3445.5,786.9,917.7,1283.7,1581.4,1383.9,1193.8,7.0,-24.0,-9.0,5696.0,9587.0,9541.0,7284.0,12.0,-86.0,81.0,-2.0,-15.0,0.0,8788.0,10968.0,7329.0,4147.0,16.0,1.0,9.0,1.0
2022-05-03 16:50:03.549399-07:00,2247.6,602.0,1406.7,1614.3,1239.1,1308.8,1458.0,1639.8,3447.9,3444.3,1743.5,1420.4,1329.6,3449.1,1137.5,1600.2,3449.1,3444.3,734.8,1376.6,1026.3,601.2,1302.5,1868.4,3445.5,3445.5,786.9,917.7,1290.0,1581.4,1372.1,1193.8,-14.0,-21.0,-24.0,5665.0,9623.0,9511.0,7299.0,40.0,21.0,184.0,11.0,-11.0,4.0,8759.0,10991.0,7334.0,4138.0,130.0,20.0,18.0,1.0
2022-05-03 16:50:03.849007-07:00,2237.3,602.0,1406.7,1614.3,1230.2,1303.4,1456.2,1639.8,3449.1,3444.3,1743.5,1420.4,1330.5,3440.7,1131.4,1600.2,3449.1,3445.5,735.6,1374.8,1026.3,601.2,1302.5,1870.3,3445.5,3450.4,784.4,915.2,1290.0,1581.4,1372.1,1197.4,25.0,-13.0,-3.0,5622.0,9683.0,9464.0,7314.0,14.0,-1.0,208.0,-2.0,-16.0,-10.0,8714.0,11023.0,7347.0,4126.0,127.0,22.0,25.0,1.0
2022-05-03 16:50:03.850190-07:00,2237.3,598.7,1404.0,1611.5,1230.2,1303.4,1456.2,1633.1,3449.1,3449.1,1748.3,1421.3,1330.5,3440.7,1131.4,1598.3,3441.9,3445.5,735.6,1374.8,1024.5,601.2,1301.6,1870.3,3446.7,3450.4,784.4,915.2,1281.0,1578.6,1370.3,1197.4,0.0,3.0,-26.0,5576.0,9728.0,9419.0,7349.0,-32.0,-2.0,182.0,7.0,-6.0,-5.0,8671.0,11054.0,7358.0,4112.0,81.0,10.0,19.0,1.0
2022-05-03 16:50:03.851008-07:00,2234.2,594.7,1404.0,1611.5,1239.1,1302.5,1455.2,1633.1,3446.7,3446.7,1748.3,1421.3,1335.0,3452.8,1134.0,1598.3,3441.9,3440.7,737.3,1373.0,1024.5,601.2,1305.2,1864.5,3446.7,3447.9,786.9,918.6,1281.0,1578.6,1363.9,1197.4,33.0,14.0,-5.0,5570.0,9772.0,9374.0,7352.0,-10.0,-39.0,71.0,2.0,-8.0,-25.0,8654.0,11069.0,7359.0,4108.0,22.0,-7.0,18.0,1.0
2022-05-03 16:50:03.852582-07:00,2234.2,594.7,1402.1,1612.4,1239.1,1302.5,1459.8,1629.4,3446.7,3446.7,1744.5,1426.8,1335.0,3452.8,1140.1,1596.4,3446.7,3447.9,737.3,1373.0,1022.8,601.2,1305.2,1864.5,3454.0,3455.2,786.9,918.6,1289.1,1577.7,1363.9,1197.4,-5.0,-13.0,-23.0,5579.0,9780.0,9366.0,7344.0,-23.0,-87.0,-12.0,3.0,-14.0,1.0,8661.0,11064.0,7355.0,4113.0,-61.0,-9.0,3.0,1.0
2022-05-03 16:50:04.029103-07:00,2234.2,597.9,1402.1,1612.4,1233.7,1301.6,1459.8,1629.4,3451.6,3441.9,1744.5,1426.8,1330.5,3450.4,1140.1,1596.4,3446.7,3447.9,738.9,1370.3,1022.8,601.2,1300.7,1875.2,3454.0,3455.2,780.3,907.6,1289.1,1577.7,1364.8,1192.0,-9.0,-22.0,-17.0,5583.0,9798.0,9356.0,7329.0,20.0,-22.0,47.0,8.0,-16.0,7.0,8664.0,11063.0,7352.0,4115.0,23.0,-3.0,10.0,1.0
2022-05-03 16:50:04.060477-07:00,2234.2,597.9,1401.2,1607.7,1233.7,1301.6,1455.2,1620.9,3451.6,3441.9,1741.6,1430.5,1330.5,3450.4,1134.0,1599.3,3449.1,3446.7,738.9,1370.3,1026.3,594.7,1300.7,1875.2,3443.1,3449.1,780.3,907.6,1286.4,1570.2,1364.8,1192.0,11.0,-3.0,-6.0,5579.0,9834.0,9336.0,7311.0,30.0,-68.0,69.0,4.0,-10.0,-10.0,8655.0,11071.0,7352.0,4113.0,32.0,-1.0,14.0,1.0
2022-05-03 16:50:04.061419-07:00,2240.4,597.9,1401.2,1607.7,1227.5,1292.7,1455.2,1620.9,3449.1,3446.7,1741.6,1430.5,1327.8,3447.9,1134.0,1599.3,3449.1,3446.7,733.2,1373.0,1026.3,594.7,1298.1,1869.3,3443.1,3449.1,784.4,910.1,1286.4,1570.2,1352.1,1198.2,-3.0,5.0,-20.0,5558.0,9866.0,9334.0,7285.0,106.0,-64.0,34.0,5.0,-5.0,1.0,8643.0,11080.0,7355.0,4107.0,27.0,-3.0,1.0,1.0
2022-05-03 16:50:04.062304-07:00,2240.4,597.9,1407.6,1604.0,1227.5,1292.7,1454.3,1618.1,3449.1,3446.7,1733.0,1422.2,1327.8,3447.9,1136.6,1597.4,3446.7,3438.2,733.2,1373.0,1024.5,598.7,1298.1,1869.3,3445.5,3449.1,784.4,910.1,1288.2,1575.8,1352.1,1198.2,-8.0,-13.0,-23.0,5559.0,9890.0,9329.0,7259.0,5.0,-64.0,18.0,7.0,-13.0,4.0,8645.0,11079.0,7354.0,4108.0,-16.0,6.0,1.0,1.0
2022-05-03 16:50:04.063513-07:00,2217.8,594.7,1415.8,1604.0,1235.5,1291.8,1454.3,1618.1,3434.6,3446.7,1742.6,1422.2,1339.5,3449.1,1136.6,1597.4,3446.7,3438.2,735.6,1367.6,1024.5,602.0,1298.1,1863.5,3445.5,3449.1,776.9,909.3,1288.2,1582.4,1356.7,1189.4,-4.0,-4.0,-17.0,5569.0,9899.0,9316.0,7255.0,-31.0,-25.0,11.0,7.0,-8.0,-2.0,8647.0,11077.0,7353.0,4110.0,-13.0,0.0,5.0,1.0
2022-05-03 16:50:04.239606-07:00,2217.8,594.7,1415.8,1603.0,1235.5,1294.5,1454.3,1629.4,3434.6,3446.7,1742.6,1427.7,1339.5,3449.1,1139.2,1593.6,3441.9,3454.0,738.1,1367.6,1021.9,602.0,1298.1,1863.5,3451.6,3455.2,780.3,909.3,1289.1,1582.4,1356.7,1189.4,2.0,-8.0,-10.0,5583.0,9901.0,9307.0,7253.0,-23.0,-17.0,0.0,9.0,-9.0,-4.0,8653.0,11072.0,7350.0,4115.0,-10.0,0.0,6.0,1.0
2022-05-03 16:50:04.241422-07:00,2224.0,593.9,1408.5,1605.8,1231.0,1299.8,1447.9,1630.3,3450.4,3435.8,1734.9,1422.2,1332.3,3444.3,1122.6,1597.4,3450.4,3449.1,731.5,1366.6,1025.4,602.0,1301.6,1866.4,3440.7,3446.7,784.4,908.4,1289.1,1572.1,1361.2,1198.2,9.0,-8.0,-5.0,5580.0,9917.0,9295.0,7249.0,14.0,-21.0,32.0,4.0,-11.0,-6.0,8650.0,11075.0,7351.0,4114.0,26.0,-6.0,4.0,1.0
2022-05-03 16:50:04.509275-07:00,2222.9,594.7,1404.9,1605.8,1233.7,1299.8,1447.9,1630.3,3446.7,3440.7,1746.4,1422.2,1334.1,3444.3,1122.6,1597.4,3450.4,3449.1,731.5,1375.7,1025.4,605.2,1299.8,1874.2,3440.7,3446.7,784.4,907.6,1289.1,1571.1,1362.1,1200.9,-5.0,-8.0,-7.0,5568.0,9938.0,9286.0,7241.0,3.0,-36.0,53.0,1.0,-9.0,0.0,8642.0,11081.0,7354.0,4109.0,14.0,-5.0,8.0,1.0
2022-05-03 16:50:04.510517-07:00,2222.9,594.7,1404.9,1611.5,1239.1,1291.8,1449.7,1622.8,3446.7,3440.7,1746.4,1421.3,1329.6,3447.9,1133.1,1594.6,3438.2,3445.5,738.9,1381.2,1028.8,605.2,1299.8,1874.2,3450.4,3451.6,776.9,911.0,1285.5,1571.1,1362.1,1200.9,5.0,-11.0,-12.0,5562.0,9962.0,9264.0,7241.0,-4.0,-26.0,75.0,3.0,-14.0,-6.0,8631.0,11091.0,7354.0,4105.0,36.0,7.0,16.0,1.0
2022-05-03 16:50:04.511324-07:00,2218.8,594.7,1403.0,1604.0,1239.1,1291.8,1449.7,1622.8,3449.1,3441.9,1757.9,1421.3,1329.6,3447.9,1133.1,1594.6,3438.2,3445.5,738.9,1381.2,1021.1,602.8,1296.3,1878.1,3450.4,3451.6,776.9,911.0,1285.5,1573.9,1353.1,1192.0,-3.0,2.0,-16.0,5557.0,9972.0,9252.0,7246.0,-10.0,-25.0,24.0,6.0,-2.0,0.0,8626.0,11095.0,7354.0,4105.0,0.0,9.0,2.0,1.0
2022-05-03 16:50:04.512737-07:00,2218.8,594.7,1403.0,1604.0,1237.3,1290.9,1447.9,1624.7,3449.1,3441.9,1757.9,1421.3,1327.8,3434.6,1125.2,1593.6,3443.1,3449.1,734.8,1370.3,1021.1,602.8,1296.3,1878.1,3447.9,3451.6,780.3,900.8,1285.5,1573.9,1353.1,1192.0,-4.0,-13.0,-13.0,5561.0,9973.0,9247.0,7248.0,-22.0,0.0,10.0,7.0,-13.0,0.0,8626.0,11094.0,7354.0,4106.0,-4.0,6.0,4.0,1.0
2022-05-03 16:50:04.539311-07:00,2214.7,598.7,1404.9,1606.8,1237.3,1290.9,1447.9,1624.7,3455.2,3438.2,1731.1,1419.5,1327.8,3434.6,1125.2,1593.6,3443.1,3449.1,734.8,1370.3,1023.7,596.3,1296.3,1865.4,3447.9,3451.6,780.3,900.8,1283.7,1573.0,1354.9,1197.4,-8.0,-13.0,-24.0,5559.0,9981.0,9240.0,7247.0,7.0,-5.0,15.0,11.0,-9.0,1.0,8625.0,11095.0,7354.0,4106.0,4.0,-8.0,6.0,1.0
2022-05-03 16:50:04.540413-07:00,2214.7,598.7,1404.9,1606.8,1223.9,1290.9,1450.6,1619.9,3455.2,3438.2,1731.1,1419.5,1338.6,3445.5,1128.7,1593.6,3445.5,3443.1,733.2,1361.2,1023.7,596.3,1296.3,1865.4,3445.5,3455.2,776.9,909.3,1283.7,1573.0,1354.9,1197.4,-9.0,-4.0,-15.0,5561.0,9990.0,9234.0,7242.0,13.0,-30.0,12.0,10.0,-10.0,-4.0,8627.0,11096.0,7352.0,4103.0,-1.0,-10.0,3.0,1.0
2022-05-03 16:50:04.540955-07:00,2214.7,598.7,1404.9,1606.8,1223.9,1290.9,1450.6,1619.9,3455.2,3438.2,1731.1,1419.5,1338.6,3445.5,1128.7,1593.6,3445.5,3443.1,733.2,1361.2,1023.7,596.3,1296.3,1865.4,3445.5,3455.2,776.9,909.3,1283.7,1573.0,1354.9,1197.4,-9.0,-4.0,-15.0,5561.0,9990.0,9234.0,7242.0,13.0,-30.0,12.0,10.0,-10.0,-4.0,8627.0,11096.0,7352.0,4103.0,-1.0,-10.0,3.0,1.0
2022-05-03 16:50:04.689889-07:00,2217.8,599.6,1396.7,1605.8,1225.7,1290.9,1458.0,1622.8,3449.1,3455.2,1739.7,1426.8,1335.9,3447.9,1125.2,1592.7,3438.2,3450.4,733.2,1370.3,1016.8,601.2,1296.3,1859.6,3451.6,3451.6,775.3,905.0,1286.4,1573.0,1349.4,1196.5,2.0,-8.0,-7.0,5567.0,9997.0,9230.0,7232.0,-13.0,3.0,11.0,9.0,-9.0,-3.0,8629.0,11096.0,7350.0,4102.0,4.0,5.0,4.0,1.0
2022-05-03 16:50:04.690848-07:00,2217.8,599.6,1396.7,1605.8,1231.0,1292.7,1456.2,1622.8,3441.9,3455.2,1739.7,1426.8,1331.4,3443.1,1129.6,1592.7,3438.2,3455.2,728.2,1359.4,1016.8,601.2,1296.3,1864.5,3451.6,3447.9,776.9,912.7,1286.4,1573.0,1349.4,1192.0,-3.0,-4.0,-15.0,5564.0,9998.0,9229.0,7234.0,-2.0,-2.0,5.0,8.0,-7.0,-2.0,8629.0,11097.0,7350.0,4102.0,-4.0,-2.0,-1.0,1.0
2022-05-03 16:50:04.929275-07:00,2217.8,599.6,1402.1,1607.7,1231.0,1292.7,1456.2,1618.1,3441.9,3449.1,1733.0,1421.3,1331.4,3443.1,1129.6,1590.8,3441.9,3455.2,728.2,1359.4,1028.8,596.3,1291.8,1864.5,3446.7,3447.9,776.9,912.7,1289.1,1571.1,1351.2,1192.0,4.0,-8.0,-5.0,5567.0,10002.0,9228.0,7229.0,-5.0,-14.0,11.0,11.0,-10.0,-3.0,8629.0,11097.0,7350.0,4102.0,1.0,-4.0,2.0,1.0
2022-05-03 16:50:04.959295-07:00,2210.6,599.6,1402.1,1607.7,1223.9,1294.5,1449.7,1618.1,3450.4,3449.1,1733.0,1421.3,1331.4,3443.1,1130.5,1590.8,3441.9,3449.1,734.0,1363.9,1028.8,596.3,1291.8,1860.6,3446.7,3447.9,775.3,898.3,1289.1,1571.1,1351.2,1196.5,-6.0,-5.0,-10.0,5566.0,10004.0,9227.0,7228.0,-9.0,-20.0,4.0,7.0,-6.0,2.0,8629.0,11097.0,7350.0,4102.0,-8.0,2.0,3.0,1.0
2022-05-03 16:50:04.960494-07:00,2210.6,598.7,1396.7,1605.8,1223.9,1294.5,1447.0,1624.7,3450.4,3438.2,1734.9,1419.5,1331.4,3443.1,1125.2,1595.5,3438.2,3443.1,734.0,1363.9,1019.4,596.3,1299.8,1860.6,3452.8,3450.4,775.3,898.3,1285.5,1576.8,1353.1,1196.5,-5.0,-8.0,-13.0,5569.0,10007.0,9223.0,7227.0,-6.0,-8.0,21.0,3.0,-11.0,1.0,8629.0,11097.0,7350.0,4102.0,4.0,-2.0,6.0,1.0
2022-05-03 16:50:04.961434-07:00,2214.7,598.7,1396.7,1605.8,1223.9,1288.2,1447.0,1624.7,3447.9,3439.5,1734.9,1419.5,1331.4,3450.4,1125.2,1595.5,3438.2,3443.1,730.7,1363.0,1019.4,596.3,1287.3,1871.3,3452.8,3450.4,772.0,903.4,1285.5,1576.8,1355.8,1197.4,-1.0,1.0,-13.0,5568.0,10016.0,9213.0,7227.0,1.0,-10.0,22.0,4.0,-9.0,-1.0,8627.0,11098.0,7351.0,4101.0,11.0,3.0,2.0,1.0
2022-05-03 16:50:04.962497-07:00,2214.7,598.7,1397.6,1612.4,1223.9,1288.2,1448.8,1614.3,3447.9,3439.5,1735.8,1416.7,1331.4,3450.4,1127.0,1586.1,3446.7,3444.3,730.7,1363.0,1015.9,598.7,1287.3,1871.3,3440.7,3449.1,772.0,903.4,1286.4,1572.1,1355.8,1197.4,-1.0,0.0,-6.0,5570.0,10019.0,9211.0,7225.0,-11.0,5.0,-28.0,8.0,-6.0,0.0,8631.0,11095.0,7350.0,4103.0,-21.0,4.0,-3.0,1.0
2022-05-03 16:50:04.964328-07:00,2207.5,593.1,1397.6,1612.4,1231.9,1291.8,1448.8,1614.3,3443.1,3440.7,1735.8,1416.7,1331.4,3444.3,1127.0,1586.1,3446.7,3444.3,734.8,1367.6,1015.9,598.7,1291.8,1857.6,3440.7,3449.1,772.8,905.9,1286.4,1572.1,1353.1,1192.0,0.0,-8.0,-6.0,5574.0,10011.0,9219.0,7222.0,-3.0,17.0,-26.0,5.0,-12.0,-1.0,8633.0,11093.0,7349.0,4105.0,-9.0,3.0,-1.0,1.0
2022-05-03 16:50:05.169777-07:00,2207.5,593.1,1399.4,1604.0,1231.9,1291.8,1446.0,1627.5,3443.1,3440.7,1733.0,1422.2,1331.4,3444.3,1123.5,1584.2,3454.0,3444.3,734.8,1367.6,1018.5,597.9,1291.8,1857.6,3451.6,3447.9,772.8,905.9,1286.4,1579.6,1353.1,1192.0,0.0,-10.0,-5.0,5571.0,10009.0,9226.0,7218.0,16.0,-9.0,9.0,3.0,-12.0,-6.0,8633.0,11093.0,7349.0,4104.0,-3.0,-5.0,5.0,1.0
2022-05-03 16:50:05.379750-07:00,2195.2,593.1,1399.4,1604.0,1240.8,1295.4,1446.0,1627.5,3437.0,3451.6,1733.0,1422.2,1332.3,3438.2,1123.5,1584.2,3454.0,3444.3,732.3,1366.6,1018.5,597.9,1289.1,1860.6,3451.6,3447.9,772.8,905.0,1286.4,1579.6,1344.0,1192.9,9.0,-7.0,0.0,5571.0,10016.0,9221.0,7214.0,7.0,-31.0,30.0,3.0,-16.0,-4.0,8630.0,11095.0,7350.0,4103.0,20.0,1.0,3.0,1.0
2022-05-03 16:50:05.380598-07:00,2195.2,593.1,1395.7,1604.9,1240.8,1294.5,1447.0,1611.5,3437.0,3451.6,1736.8,1421.3,1332.3,3441.9,1125.2,1590.8,3439.5,3445.5,731.5,1366.6,1020.2,599.6,1289.1,1860.6,3441.9,3447.9,772.0,905.0,1292.7,1569.3,1344.0,1192.9,-1.0,4.0,-8.0,5566.0,10019.0,9218.0,7217.0,3.0,-6.0,8.0,4.0,-6.0,-2.0,8628.0,11097.0,7351.0,4101.0,-7.0,-1.0,-2.0,1.0
2022-05-03 16:50:05.381808-07:00,2207.5,594.7,1395.7,1604.9,1224.8,1294.5,1447.0,1611.5,3449.1,3440.7,1732.0,1421.3,1335.0,3441.9,1125.2,1590.8,3439.5,3445.5,731.5,1367.6,1020.2,600.4,1291.8,1860.6,3441.9,3447.9,772.0,905.0,1292.7,1574.9,1350.3,1194.7,3.0,-12.0,1.0,5569.0,10022.0,9217.0,7212.0,-1.0,-21.0,5.0,8.0,-15.0,-1.0,8630.0,11096.0,7350.0,4102.0,5.0,3.0,0.0,1.0
2022-05-03 16:50:05.383085-07:00,2207.5,594.7,1395.7,1607.7,1224.8,1296.3,1448.8,1619.0,3449.1,3440.7,1732.0,1422.2,1335.0,3438.2,1126.1,1590.8,3445.5,3443.1,729.9,1367.6,1018.5,600.4,1291.8,1860.6,3445.5,3439.5,769.5,905.0,1286.4,1574.9,1350.3,1194.7,-8.0,-1.0,-10.0,5562.0,10025.0,9213.0,7219.0,4.0,29.0,19.0,13.0,-1.0,4.0,8626.0,11098.0,7350.0,4101.0,17.0,7.0,4.0,1.0
2022-05-03 16:50:05.619265-07:00,2202.4,593.1,1399.4,1607.7,1222.2,1296.3,1448.8,1619.0,3445.5,3438.2,1732.0,1422.2,1330.5,3438.2,1126.1,1590.8,3445.5,3443.1,729.9,1361.2,1018.5,603.6,1291.8,1860.6,3445.5,3439.5,769.5,902.5,1286.4,1570.2,1353.1,1195.6,-7.0,-6.0,-9.0,5562.0,10024.0,9215.0,7219.0,0.0,21.0,-21.0,8.0,-9.0,0.0,8626.0,11098.0,7350.0,4101.0,-13.0,1.0,-6.0,1.0
2022-05-03 16:50:05.620161-07:00,2202.4,593.1,1399.4,1607.7,1222.2,1296.3,1448.8,1619.0,3445.5,3438.2,1732.0,1422.2,1330.5,3438.2,1126.1,1590.8,3445.5,3443.1,729.9,1361.2,1018.5,603.6,1291.8,1860.6,3445.5,3439.5,769.5,902.5,1286.4,1570.2,1353.1,1195.6,-7.0,-6.0,-9.0,5562.0,10024.0,9215.0,7219.0,0.0,21.0,-21.0,8.0,-9.0,0.0,8626.0,11098.0,7350.0,4101.0,-13.0,1.0,-6.0,1.0
2022-05-03 16:50:05.621312-07:00,2199.3,600.4,1393.0,1607.7,1221.3,1288.2,1463.5,1613.4,3449.1,3446.7,1734.9,1420.4,1330.5,3441.9,1128.7,1590.8,3441.9,3450.4,733.2,1358.5,1018.5,599.6,1296.3,1858.6,3438.2,3449.1,767.8,899.1,1282.8,1570.2,1364.8,1192.0,3.0,-4.0,-4.0,5556.0,10055.0,9189.0,7213.0,6.0,7.0,-14.0,9.0,-11.0,-1.0,8616.0,11109.0,7348.0,4099.0,-5.0,0.0,1.0,1.0
2022-05-03 16:50:05.622775-07:00,2199.3,600.4,1393.0,1607.7,1225.7,1293.6,1447.0,1619.0,3449.1,3446.7,1734.9,1420.4,1335.9,3450.4,1128.7,1580.5,3445.5,3443.1,728.2,1360.3,1018.5,599.6,1296.3,1858.6,3446.7,3443.1,772.0,901.7,1282.8,1570.2,1364.8,1192.0,-6.0,-10.0,-8.0,5555.0,10050.0,9194.0,7215.0,-1.0,-5.0,-3.0,5.0,-15.0,8.0,8616.0,11108.0,7349.0,4100.0,-7.0,8.0,-5.0,1.0
2022-05-03 16:50:05.624851-07:00,2191.2,594.7,1394.8,1602.1,1225.7,1293.6,1447.0,1619.0,3446.7,3445.5,1729.1,1423.1,1335.9,3450.4,1128.7,1580.5,3445.5,3443.1,728.2,1360.3,1021.9,602.0,1290.0,1868.4,3446.7,3443.1,772.0,901.7,1284.6,1562.7,1344.0,1192.0,-1.0,-3.0,-8.0,5552.0,10048.0,9195.0,7218.0,3.0,10.0,11.0,6.0,-11.0,0.0,8615.0,11108.0,7350.0,4101.0,7.0,11.0,4.0,1.0
2022-05-03 16:50:05.649889-07:00,2191.2,594.7,1394.8,1602.1,1227.5,1296.3,1436.0,1611.5,3446.7,3445.5,1729.1,1423.1,1337.7,3440.7,1125.2,1590.8,3449.1,3443.1,729.0,1370.3,1021.9,602.0,1290.0,1868.4,3447.9,3446.7,768.7,906.7,1284.6,1562.7,1344.0,1192.0,-5.0,-19.0,-22.0,5553.0,10055.0,9190.0,7214.0,5.0,-50.0,31.0,7.0,-15.0,-2.0,8614.0,11107.0,7351.0,4103.0,1.0,3.0,2.0,1.0
2022-05-03 16:50:05.650791-07:00,2201.4,595.5,1392.1,1606.8,1227.5,1296.3,1436.0,1613.4,3439.5,3449.1,1737.8,1416.7,1337.7,3440.7,1125.2,1586.1,3443.1,3443.1,729.0,1370.3,1018.5,605.2,1296.3,1861.5,3447.9,3446.7,768.7,906.7,1281.0,1580.5,1349.4,1188.5,-101.0,-87.0,-60.0,5560.0,10116.0,9142.0,7184.0,50.0,-273.0,202.0,29.0,-37.0,60.0,8613.0,11110.0,7349.0,4100.0,-11.0,-28.0,8.0,1.0
2022-05-03 16:50:05.799292-07:00,2192.2,595.5,1392.1,1606.8,1223.9,1292.7,1440.5,1613.4,3454.0,3449.1,1737.8,1416.7,1331.4,3441.9,1121.7,1586.1,3443.1,3437.0,731.5,1360.3,1018.5,605.2,1296.3,1860.6,3447.9,3444.3,781.1,910.1,1281.0,1580.5,1349.4,1196.5,-11.0,-167.0,-187.0,5652.0,10550.0,8835.0,6865.0,602.0,-2211.0,1077.0,-39.0,-86.0,39.0,8625.0,11103.0,7340.0,4111.0,221.0,58.0,45.0,1.0
2022-05-03 16:50:05.800500-07:00,2192.2,597.1,1389.4,1601.1,1223.9,1292.7,1440.5,1627.5,3454.0,3446.7,1731.1,1421.3,1331.4,3441.9,1121.7,1594.6,3443.1,3437.0,731.5,1360.3,1021.1,599.6,1321.4,1860.6,3455.2,3444.3,781.1,910.1,1288.2,1567.4,1359.4,1196.5,63.0,69.0,16.0,5630.0,11251.0,8345.0,6365.0,838.0,-754.0,1079.0,-3.0,7.0,-95.0,8457.0,11235.0,7380.0,4029.0,699.0,-48.0,122.0,1.0
2022-05-03 16:50:05.801537-07:00,2175.8,597.1,1389.4,1601.1,1220.4,1295.4,1447.9,1627.5,3441.9,3446.7,1731.1,1421.3,1332.3,3445.5,1132.2,1594.6,3443.1,3454.0,731.5,1355.8,1021.1,599.6,1321.4,1853.7,3455.2,3438.2,798.5,940.7,1288.2,1567.4,1359.4,1187.6,-82.0,171.0,-96.0,5525.0,11701.0,8048.0,6017.0,387.0,-1483.0,576.0,45.0,57.0,38.0,8312.0,11369.0,7393.0,3930.0,-8.0,-91.0,-7.0,1.0
2022-05-03 16:50:05.859568-07:00,2175.8,595.5,1388.5,1604.9,1220.4,1295.4,1447.9,1624.7,3441.9,3449.1,1726.3,1414.0,1332.3,3445.5,1132.2,1594.6,3447.9,3454.0,731.5,1355.8,1019.4,602.8,1346.7,1853.7,3447.9,3438.2,798.5,940.7,1287.3,1571.1,1341.3,1187.6,-105.0,16.0,-191.0,5967.0,12055.0,7611.0,5439.0,-493.0,-2662.0,286.0,2.0,21.0,86.0,8472.0,11275.0,7334.0,3968.0,-992.0,-152.0,-76.0,1.0
2022-05-03 16:50:05.949316-07:00,2203.4,595.5,1388.5,1604.9,1222.2,1283.7,1438.7,1624.7,3443.1,3449.1,1726.3,1414.0,1332.3,3447.9,1122.6,1594.6,3447.9,3438.2,730.7,1355.8,1019.4,602.8,1346.7,1858.6,3447.9,3444.3,791.9,933.0,1287.3,1571.1,1341.3,1193.8,51.0,-255.0,-220.0,6884.0,12541.0,6599.0,4496.0,-1106.0,-4465.0,1167.0,-43.0,-62.0,-12.0,8870.0,11028.0,7156.0,4115.0,-1258.0,-410.0,50.0,1.0
2022-05-03 16:50:05.979851-07:00,2203.4,594.7,1378.5,1605.8,1222.2,1283.7,1448.8,1637.9,3443.1,3444.3,1719.6,1416.7,1332.3,3447.9,1121.7,1586.1,3435.8,3441.9,730.7,1355.8,1030.6,601.2,1336.8,1858.6,3450.4,3452.8,791.9,933.0,1291.8,1570.2,1346.7,1193.8,472.0,-244.0,70.0,7441.0,13182.0,5174.0,3542.0,230.0,-2974.0,2104.0,-20.0,-26.0,-346.0,9129.0,10987.0,6888.0,4114.0,509.0,-709.0,501.0,1.0
2022-05-03 16:50:06.009377-07:00,2180.9,597.1,1378.5,1605.8,1219.5,1281.9,1448.8,1637.9,3438.2,3454.0,1719.6,1416.7,1335.9,3449.1,1121.7,1586.1,3435.8,3441.9,724.1,1357.6,1030.6,601.2,1386.6,1859.6,3450.4,3452.8,782.7,933.0,1291.8,1570.2,1341.3,1185.0,54.0,363.0,150.0,7493.0,13525.0,4242.0,3370.0,-641.0,-1038.0,1345.0,62.0,135.0,48.0,9136.0,11209.0,6597.0,3975.0,-479.0,-632.0,406.0,1.0
2022-05-03 16:50:06.039472-07:00,2180.9,597.1,1381.2,1600.2,1219.5,1281.9,1434.1,1630.3,3438.2,3454.0,1719.6,1418.6,1335.9,3449.1,1115.6,1587.1,3445.5,3444.3,724.1,1357.6,1026.3,601.2,1386.6,1859.6,3446.7,3439.5,782.7,933.0,1290.9,1568.3,1341.3,1185.0,39.0,119.0,196.0,7932.0,13432.0,3797.0,3271.0,-1196.0,-602.0,36.0,25.0,-28.0,66.0,9444.0,11103.0,6301.0,4032.0,-961.0,-355.0,99.0,1.0
2022-05-03 16:50:06.100180-07:00,2150.4,599.6,1381.2,1600.2,1222.2,1279.2,1434.1,1630.3,3447.9,3449.1,1719.6,1418.6,1334.1,3438.2,1115.6,1587.1,3445.5,3444.3,723.3,1358.5,1026.3,601.2,1395.7,1865.4,3446.7,3439.5,776.9,944.1,1290.9,1568.3,1340.4,1181.5,-29.0,-27.0,164.0,8255.0,13279.0,3679.0,3230.0,-613.0,-200.0,3.0,7.0,-40.0,93.0,9686.0,10958.0,6144.0,4098.0,-499.0,-102.0,71.0,1.0
2022-05-03 16:50:06.159317-07:00,2150.4,599.6,1379.4,1600.2,1222.2,1279.2,1425.9,1585.2,3447.9,3449.1,1713.8,1418.6,1334.1,3438.2,1113.9,1588.9,3434.6,3445.5,723.3,1358.5,1021.1,597.9,1395.7,1865.4,3443.1,3449.1,776.9,944.1,1289.1,1566.5,1340.4,1181.5,50.0,29.0,86.0,8437.0,13177.0,3597.0,3268.0,-441.0,61.0,42.0,22.0,-3.0,-22.0,9826.0,10851.0,6049.0,4190.0,-473.0,32.0,108.0,1.0
2022-05-03 16:50:06.190185-07:00,2143.3,593.9,1368.5,1600.2,1224.8,1277.4,1425.9,1585.2,3443.1,3446.7,1711.9,1418.6,1331.4,3444.3,1113.9,1588.9,3434.6,3445.5,730.7,1351.2,1021.1,598.7,1388.5,1869.3,3443.1,3449.1,773.6,939.8,1289.1,1569.3,1336.8,1196.5,11.0,48.0,23.0,8555.0,13036.0,3707.0,3403.0,-357.0,504.0,-309.0,7.0,-6.0,13.0,9932.0,10738.0,5998.0,4302.0,-324.0,116.0,-9.0,1.0
2022-05-03 16:50:06.249189-07:00,2143.3,593.9,1368.5,1601.1,1224.8,1275.6,1430.5,1601.1,3443.1,3446.7,1711.9,1416.7,1331.4,3440.7,1115.6,1582.4,3438.2,3437.0,727.4,1351.2,1019.4,598.7,1388.5,1869.3,3458.9,3447.9,764.5,939.8,1290.9,1569.3,1336.8,1196.5,1.0,-15.0,14.0,8579.0,12939.0,3909.0,3482.0,-1.0,406.0,-311.0,-2.0,-16.0,4.0,9959.0,10683.0,6024.0,4339.0,32.0,105.0,-73.0,1.0
2022-05-03 16:50:06.309413-07:00,2122.0,596.3,1374.8,1601.1,1222.2,1275.6,1430.5,1601.1,3449.1,3441.9,1712.9,1416.7,1350.3,3440.7,1115.6,1582.4,3438.2,3437.0,727.4,1351.2,1019.4,596.3,1388.5,1865.4,3458.9,3447.9,764.5,944.1,1290.9,1563.7,1339.5,1190.3,-15.0,-74.0,-23.0,8563.0,12910.0,4003.0,3523.0,43.0,67.0,25.0,4.0,-30.0,7.0,9941.0,10673.0,6066.0,4346.0,72.0,59.0,2.0,1.0
2022-05-03 16:50:06.339148-07:00,2122.0,596.3,1374.8,1595.5,1222.2,1277.4,1426.8,1588.9,3449.1,3441.9,1712.9,1413.1,1350.3,3445.5,1112.1,1579.6,3438.2,3449.1,724.9,1351.2,1014.2,596.3,1388.5,1865.4,3447.9,3438.2,768.7,944.1,1281.0,1563.7,1339.5,1190.3,22.0,13.0,-7.0,8517.0,12956.0,3948.0,3530.0,101.0,-45.0,172.0,-6.0,0.0,-34.0,9903.0,10702.0,6080.0,4343.0,92.0,-5.0,39.0,1.0
2022-05-03 16:50:06.398974-07:00,2113.9,593.1,1370.3,1595.5,1229.3,1277.4,1426.8,1588.9,3445.5,3443.1,1717.7,1413.1,1332.3,3445.5,1112.1,1579.6,3438.2,3449.1,724.9,1350.3,1014.2,598.7,1393.9,1861.5,3447.9,3438.2,768.7,935.6,1281.0,1565.5,1341.3,1186.7,-1.0,30.0,0.0,8524.0,12956.0,3920.0,3542.0,-90.0,-32.0,-11.0,-3.0,-1.0,-16.0,9902.0,10710.0,6068.0,4345.0,-83.0,-29.0,4.0,1.0
2022-05-03 16:50:06.489279-07:00,2113.9,593.1,1370.3,1604.9,1229.3,1273.0,1424.1,1587.1,3445.5,3443.1,1717.7,1415.8,1332.3,3446.7,1117.4,1585.2,3443.1,3433.4,724.9,1350.3,1011.6,598.7,1393.9,1861.5,3446.7,3445.5,761.2,935.6,1289.1,1565.5,1341.3,1186.7,0.0,-3.0,21.0,8566.0,12924.0,3930.0,3548.0,-114.0,27.0,-52.0,6.0,-8.0,9.0,9934.0,10686.0,6050.0,4354.0,-119.0,-15.0,-1.0,1.0
2022-05-03 16:50:06.519164-07:00,2107.8,598.7,1364.8,1601.1,1220.4,1273.0,1424.1,1587.1,3440.7,3443.1,1706.2,1414.0,1326.8,3446.7,1117.4,1585.2,3443.1,3433.4,724.9,1344.0,1015.1,596.3,1382.1,1858.6,3446.7,3445.5,761.2,925.4,1287.3,1567.4,1338.6,1191.2,11.0,4.0,28.0,8598.0,12902.0,3928.0,3553.0,-54.0,-21.0,-11.0,19.0,-6.0,6.0,9961.0,10664.0,6037.0,4366.0,-59.0,-6.0,7.0,1.0
2022-05-03 16:50:06.549015-07:00,2107.8,598.7,1364.8,1601.1,1223.0,1269.4,1414.9,1577.7,3440.7,3443.1,1706.2,1414.0,1326.8,3443.1,1109.5,1585.2,3450.4,3441.9,726.6,1344.0,1015.1,596.3,1382.1,1858.6,3452.8,3451.6,762.9,925.4,1287.3,1567.4,1338.6,1191.2,21.0,4.0,29.0,8626.0,12882.0,3918.0,3569.0,-54.0,44.0,-4.0,12.0,-8.0,0.0,9977.0,10648.0,6030.0,4376.0,-34.0,10.0,4.0,1.0
2022-05-03 16:50:06.578860-07:00,2109.8,595.5,1366.6,1596.4,1223.0,1269.4,1414.9,1577.7,3446.7,3449.1,1710.0,1419.5,1326.8,3443.1,1109.5,1585.2,3450.4,3441.9,726.6,1344.0,1009.0,591.5,1384.8,1860.6,3452.8,3451.6,762.9,925.4,1288.2,1564.6,1333.2,1188.5,-1.0,-2.0,9.0,8631.0,12871.0,3927.0,3585.0,-20.0,43.0,-20.0,1.0,-15.0,4.0,9978.0,10643.0,6033.0,4383.0,-12.0,18.0,-7.0,1.0
2022-05-03 16:50:06.639882-07:00,2109.8,595.5,1366.6,1596.4,1216.8,1269.4,1415.8,1583.3,3446.7,3449.1,1710.0,1419.5,1330.5,3438.2,1113.9,1584.2,3446.7,3445.5,731.5,1342.2,1009.0,591.5,1384.8,1860.6,3450.4,3446.7,762.0,927.1,1288.2,1564.6,1333.2,1188.5,9.0,-6.0,9.0,8634.0,12867.0,3930.0,3589.0,-4.0,17.0,28.0,-1.0,-6.0,-16.0,9979.0,10639.0,6035.0,4388.0,-5.0,9.0,14.0,1.0
2022-05-03 16:50:06.699897-07:00,2103.7,596.3,1369.4,1596.4,1216.8,1269.4,1415.8,1583.3,3445.5,3454.0,1708.1,1417.6,1330.5,3438.2,1113.9,1584.2,3446.7,3445.5,731.5,1342.2,1010.8,600.4,1383.0,1857.6,3450.4,3446.7,762.0,927.1,1289.1,1565.5,1336.8,1188.5,-10.0,0.0,6.0,8628.0,12865.0,3930.0,3609.0,22.0,37.0,11.0,2.0,-14.0,8.0,9977.0,10639.0,6034.0,4392.0,20.0,17.0,0.0,1.0
2022-05-03 16:50:06.759330-07:00,2101.7,596.3,1369.4,1596.4,1217.7,1278.3,1414.9,1578.6,3443.1,3454.0,1708.1,1417.6,1332.3,3449.1,1113.9,1581.4,3447.9,3441.9,723.3,1346.7,1010.8,600.4,1383.0,1856.7,3452.8,3452.8,762.9,925.4,1289.1,1565.5,1336.8,1189.4,10.0,-5.0,13.0,8622.0,12870.0,3931.0,3606.0,1.0,-7.0,9.0,4.0,-11.0,-12.0,9969.0,10645.0,6039.0,4390.0,3.0,5.0,10.0,1.0
2022-05-03 16:50:06.819262-07:00,2101.7,594.7,1362.1,1595.5,1217.7,1278.3,1414.9,1584.2,3443.1,3443.1,1715.8,1406.7,1332.3,3449.1,1113.9,1577.7,3444.3,3441.9,723.3,1346.7,1007.3,597.1,1377.5,1856.7,3454.0,3452.8,762.9,925.4,1283.7,1562.7,1333.2,1189.4,2.0,0.0,4.0,8620.0,12868.0,3930.0,3618.0,21.0,-8.0,20.0,10.0,-15.0,5.0,9968.0,10645.0,6037.0,4394.0,24.0,9.0,-1.0,1.0
2022-05-03 16:50:06.849354-07:00,2095.7,594.7,1362.1,1595.5,1223.0,1266.7,1417.6,1584.2,3450.4,3443.1,1715.8,1406.7,1337.7,3449.1,1107.8,1577.7,3444.3,3443.1,724.9,1344.0,1007.3,597.1,1377.5,1858.6,3454.0,3447.9,762.9,926.2,1283.7,1562.7,1333.2,1189.4,9.0,-3.0,11.0,8618.0,12872.0,3923.0,3616.0,-24.0,-18.0,5.0,5.0,-11.0,-11.0,9964.0,10648.0,6039.0,4393.0,-20.0,0.0,2.0,1.0
2022-05-03 16:50:06.879261-07:00,2095.7,598.7,1363.9,1604.9,1223.0,1266.7,1417.6,1577.7,3450.4,3438.2,1706.2,1411.3,1337.7,3449.1,1107.8,1579.6,3447.9,3443.1,724.9,1344.0,1008.2,594.7,1373.9,1858.6,3457.6,3447.9,762.9,926.2,1288.2,1562.7,1339.5,1189.4,-4.0,3.0,9.0,8626.0,12863.0,3924.0,3627.0,-17.0,16.0,-15.0,7.0,-11.0,5.0,9970.0,10642.0,6037.0,4397.0,-20.0,6.0,-5.0,1.0
2022-05-03 16:50:06.939427-07:00,2103.7,598.7,1363.9,1604.9,1221.3,1270.3,1414.9,1577.7,3443.1,3438.2,1706.2,1411.3,1332.3,3444.3,1109.5,1579.6,3447.9,3447.9,724.9,1354.0,1008.2,594.7,1373.9,1869.3,3457.6,3447.9,765.3,938.1,1288.2,1562.7,1339.5,1191.2,-1.0,-12.0,12.0,8634.0,12857.0,3927.0,3628.0,-8.0,0.0,18.0,2.0,-14.0,2.0,9974.0,10638.0,6035.0,4399.0,-9.0,9.0,4.0,1.0
2022-05-03 16:50:07.089631-07:00,2103.7,592.3,1354.9,1597.4,1221.3,1270.3,1414.9,1576.8,3443.1,3438.2,1714.8,1414.9,1332.3,3444.3,1109.5,1573.9,3461.3,3447.9,724.9,1354.0,1015.1,597.1,1374.8,1869.3,3443.1,3447.9,765.3,938.1,1285.5,1557.1,1328.7,1191.2,0.0,7.0,8.0,8635.0,12856.0,3918.0,3638.0,-9.0,14.0,23.0,2.0,-10.0,0.0,9972.0,10639.0,6033.0,4404.0,-5.0,12.0,14.0,1.0
2022-05-03 16:50:07.119107-07:00,2088.6,590.7,1354.9,1597.4,1223.9,1270.3,1419.5,1576.8,3449.1,3447.9,1714.8,1414.9,1338.6,3444.3,1108.6,1573.9,3461.3,3437.0,724.1,1344.9,1015.1,597.1,1373.9,1859.6,3443.1,3450.4,757.9,931.3,1285.5,1557.1,1327.8,1188.5,12.0,-9.0,14.0,8635.0,12856.0,3914.0,3643.0,-5.0,12.0,2.0,7.0,-18.0,-10.0,9971.0,10639.0,6035.0,4405.0,-5.0,0.0,2.0,1.0
2022-05-03 16:50:07.149893-07:00,2088.6,590.7,1361.2,1588.9,1223.9,1270.3,1411.3,1576.8,3449.1,3447.9,1710.0,1411.3,1338.6,3444.3,1110.4,1577.7,3443.1,3439.5,724.1,1344.9,1007.3,602.0,1373.9,1859.6,3452.8,3440.7,757.9,931.3,1286.4,1562.7,1327.8,1188.5,2.0,-5.0,1.0,8640.0,12853.0,3909.0,3648.0,-15.0,-23.0,25.0,4.0,-9.0,-7.0,9972.0,10638.0,6034.0,4406.0,-3.0,0.0,9.0,1.0
2022-05-03 16:50:07.209239-07:00,2116.9,591.5,1361.2,1588.9,1220.4,1271.2,1411.3,1576.8,3454.0,3454.0,1710.0,1411.3,1324.1,3440.7,1110.4,1577.7,3443.1,3439.5,725.8,1346.7,1007.3,602.0,1374.8,1865.4,3452.8,3440.7,757.9,926.2,1286.4,1562.7,1336.8,1180.6,7.0,0.0,12.0,8644.0,12855.0,3895.0,3647.0,7.0,-15.0,15.0,7.0,-10.0,-3.0,9973.0,10638.0,6033.0,4406.0,7.0,-7.0,1.0,1.0
2022-05-03 16:50:07.210400-07:00,2116.9,591.5,1354.9,1593.6,1220.4,1271.2,1413.1,1578.6,3454.0,3454.0,1711.9,1411.3,1324.1,3440.7,1113.0,1586.1,3443.1,3449.1,725.8,1346.7,1013.3,596.3,1374.8,1865.4,3449.1,3447.9,757.9,926.2,1287.3,1563.7,1336.8,1180.6,7.0,5.0,17.0,8644.0,12855.0,3892.0,3648.0,-7.0,21.0,-12.0,2.0,-8.0,-5.0,9972.0,10639.0,6034.0,4406.0,-2.0,-4.0,-1.0,1.0
2022-05-03 16:50:07.269114-07:00,2095.7,593.1,1354.9,1593.6,1215.1,1274.7,1413.1,1578.6,3443.1,3454.0,1711.9,1411.3,1335.0,3452.8,1113.0,1586.1,3443.1,3449.1,723.3,1346.7,1013.3,596.3,1372.1,1852.8,3449.1,3447.9,756.3,927.9,1287.3,1563.7,1332.3,1183.2,-1.0,-8.0,13.0,8647.0,12848.0,3901.0,3657.0,14.0,1.0,1.0,6.0,-16.0,0.0,9971.0,10639.0,6034.0,4406.0,12.0,9.0,-4.0,1.0
2022-05-03 16:50:07.329332-07:00,2095.7,593.1,1361.2,1597.4,1215.1,1274.7,1415.8,1574.9,3443.1,3454.0,1709.1,1414.9,1335.0,3452.8,1107.8,1574.9,3443.1,3443.1,723.3,1346.7,1011.6,597.9,1372.1,1852.8,3451.6,3447.9,756.3,927.9,1281.0,1563.7,1332.3,1183.2,0.0,-1.0,10.0,8648.0,12845.0,3903.0,3663.0,-26.0,31.0,12.0,6.0,-16.0,-2.0,9970.0,10638.0,6035.0,4410.0,-20.0,7.0,12.0,1.0
2022-05-03 16:50:07.330561-07:00,2097.7,595.5,1360.3,1597.4,1217.7,1272.1,1415.8,1574.9,3449.1,3443.1,1714.8,1414.9,1335.9,3441.9,1107.8,1574.9,3443.1,3443.1,725.8,1342.2,1011.6,597.9,1368.5,1858.6,3451.6,3447.9,758.7,922.0,1281.0,1566.5,1332.3,1192.9,6.0,0.0,8.0,8648.0,12840.0,3905.0,3678.0,23.0,37.0,10.0,3.0,-8.0,-5.0,9964.0,10640.0,6041.0,4413.0,40.0,19.0,-6.0,1.0
2022-05-03 16:50:07.389500-07:00,2097.7,595.5,1360.3,1594.6,1217.7,1269.4,1413.1,1573.0,3449.1,3443.1,1714.8,1416.7,1335.9,3445.5,1109.5,1573.9,3446.7,3443.1,724.1,1342.2,1015.1,597.9,1368.5,1858.6,3456.4,3447.9,760.4,922.0,1284.6,1566.5,1332.3,1192.9,8.0,-3.0,20.0,8639.0,12842.0,3908.0,3691.0,-18.0,23.0,14.0,5.0,-14.0,-5.0,9958.0,10642.0,6045.0,4413.0,-11.0,1.0,5.0,1.0
2022-05-03 16:50:07.449957-07:00,2095.7,589.9,1361.2,1594.6,1221.3,1269.4,1413.1,1573.0,3441.9,3445.5,1711.0,1416.7,1328.7,3445.5,1109.5,1573.9,3446.7,3443.1,724.1,1346.7,1015.1,596.3,1360.3,1865.4,3456.4,3447.9,760.4,920.3,1284.6,1555.3,1334.1,1186.7,6.0,2.0,9.0,8637.0,12840.0,3903.0,3706.0,17.0,11.0,33.0,11.0,-6.0,-3.0,9957.0,10643.0,6046.0,4413.0,20.0,3.0,0.0,1.0
2022-05-03 16:50:07.479166-07:00,2095.7,589.9,1361.2,1598.3,1221.3,1272.1,1412.2,1569.3,3441.9,3445.5,1711.0,1411.3,1328.7,3444.3,1108.6,1574.9,3443.1,3440.7,722.5,1346.7,1009.0,596.3,1360.3,1865.4,3444.3,3444.3,755.4,920.3,1280.1,1555.3,1334.1,1186.7,3.0,1.0,8.0,8625.0,12848.0,3896.0,3712.0,33.0,-9.0,25.0,5.0,-11.0,0.0,9948.0,10650.0,6050.0,4409.0,31.0,9.0,-3.0,1.0
2022-05-03 16:50:07.569265-07:00,2096.7,599.6,1356.7,1598.3,1216.0,1272.1,1412.2,1569.3,3451.6,3443.1,1703.3,1411.3,1332.3,3444.3,1108.6,1574.9,3443.1,3440.7,722.5,1338.6,1009.0,598.7,1366.6,1862.5,3444.3,3444.3,755.4,923.7,1280.1,1561.8,1324.1,1192.9,-2.0,3.0,3.0,8620.0,12851.0,3896.0,3717.0,-20.0,16.0,-4.0,3.0,-12.0,5.0,9946.0,10652.0,6051.0,4408.0,-20.0,4.0,1.0,1.0
2022-05-03 16:50:07.599900-07:00,2096.7,599.6,1356.7,1598.3,1219.5,1264.9,1413.1,1571.1,3451.6,3443.1,1703.3,1415.8,1328.7,3449.1,1101.7,1573.9,3441.9,3433.4,727.4,1344.0,1005.6,598.7,1366.6,1862.5,3451.6,3445.5,757.9,915.2,1288.2,1561.8,1324.1,1192.9,2.0,-1.0,19.0,8625.0,12845.0,3897.0,3723.0,5.0,29.0,-6.0,4.0,-10.0,-1.0,9945.0,10652.0,6052.0,4409.0,15.0,13.0,-5.0,1.0
2022-05-03 16:50:07.689432-07:00,2089.6,593.1,1356.7,1600.2,1219.5,1264.9,1413.1,1571.1,3445.5,3444.3,1710.0,1416.7,1328.7,3449.1,1101.7,1573.9,3441.9,3433.4,727.4,1344.0,1005.6,598.7,1363.0,1857.6,3451.6,3445.5,757.9,915.2,1290.9,1561.8,1328.7,1186.7,-3.0,0.0,5.0,8617.0,12842.0,3908.0,3739.0,1.0,41.0,-5.0,5.0,-10.0,4.0,9939.0,10653.0,6058.0,4412.0,5.0,11.0,-3.0,1.0
2022-05-03 16:50:07.690564-07:00,2089.6,593.1,1356.7,1600.2,1223.0,1276.5,1412.2,1565.5,3445.5,3444.3,1710.0,1416.7,1322.3,3441.9,1104.3,1577.7,3437.0,3438.2,726.6,1344.9,1005.6,598.7,1363.0,1857.6,3441.9,3454.0,760.4,922.8,1290.9,1561.8,1328.7,1186.7,4.0,-3.0,0.0,8615.0,12842.0,3911.0,3742.0,12.0,5.0,7.0,2.0,-8.0,-8.0,9935.0,10656.0,6060.0,4411.0,15.0,0.0,2.0,1.0
2022-05-03 16:50:07.778975-07:00,2082.6,593.9,1351.2,1598.3,1223.0,1276.5,1412.2,1565.5,3449.1,3454.0,1703.3,1411.3,1322.3,3441.9,1104.3,1577.7,3437.0,3438.2,726.6,1344.9,1004.8,598.7,1362.1,1854.7,3441.9,3454.0,760.4,922.8,1288.2,1561.8,1327.8,1186.7,-1.0,4.0,6.0,8609.0,12845.0,3912.0,3746.0,11.0,12.0,-1.0,6.0,-10.0,-3.0,9931.0,10660.0,6062.0,4408.0,13.0,-2.0,-3.0,1.0
2022-05-03 16:50:07.840063-07:00,2082.6,593.9,1351.2,1598.3,1217.7,1265.8,1412.2,1574.9,3449.1,3454.0,1703.3,1411.3,1327.8,3454.0,1107.8,1579.6,3438.2,3437.0,721.6,1339.5,1004.8,598.7,1362.1,1854.7,3452.8,3447.9,758.7,920.3,1288.2,1561.8,1327.8,1186.7,0.0,-5.0,7.0,8611.0,12843.0,3915.0,3742.0,-7.0,-8.0,-13.0,5.0,-10.0,-4.0,9930.0,10661.0,6062.0,4407.0,0.0,-8.0,-6.0,1.0
2022-05-03 16:50:07.840940-07:00,2086.6,597.1,1363.9,1587.1,1217.7,1265.8,1412.2,1574.9,3454.0,3447.9,1709.1,1413.1,1327.8,3454.0,1107.8,1579.6,3438.2,3437.0,721.6,1339.5,1006.5,594.7,1363.9,1856.7,3452.8,3447.9,758.7,920.3,1288.2,1559.9,1327.8,1191.2,-1.0,3.0,14.0,8611.0,12843.0,3913.0,3743.0,4.0,8.0,17.0,7.0,-13.0,1.0,9930.0,10661.0,6062.0,4407.0,2.0,-5.0,6.0,1.0
2022-05-03 16:50:07.899369-07:00,2087.6,597.1,1363.9,1587.1,1216.8,1266.7,1405.8,1569.3,3455.2,3447.9,1709.1,1413.1,1330.5,3447.9,1106.0,1576.8,3450.4,3449.1,725.8,1335.0,1006.5,594.7,1363.9,1861.5,3454.0,3445.5,755.4,923.7,1288.2,1559.9,1327.8,1191.2,0.0,6.0,7.0,8607.0,12847.0,3911.0,3741.0,15.0,-13.0,-8.0,3.0,-13.0,-3.0,9928.0,10663.0,6063.0,4406.0,8.0,5.0,-6.0,1.0
2022-05-03 16:50:08.109427-07:00,2087.6,590.7,1354.9,1595.5,1216.8,1266.7,1405.8,1565.5,3455.2,3445.5,1708.1,1412.2,1330.5,3447.9,1106.0,1578.6,3446.7,3449.1,725.8,1335.0,1009.9,595.5,1363.9,1861.5,3447.9,3445.5,755.4,923.7,1287.3,1557.1,1325.0,1191.2,0.0,-5.0,3.0,8612.0,12844.0,3916.0,3738.0,-11.0,10.0,-12.0,2.0,-9.0,-2.0,9929.0,10661.0,6063.0,4408.0,-7.0,4.0,-5.0,1.0
2022-05-03 16:50:08.139432-07:00,2078.5,590.7,1354.9,1595.5,1220.4,1264.0,1407.6,1565.5,3447.9,3445.5,1708.1,1412.2,1325.0,3443.1,1109.5,1578.6,3446.7,3445.5,724.1,1343.1,1009.9,595.5,1363.9,1852.8,3447.9,3450.4,757.9,922.0,1287.3,1557.1,1325.0,1189.4,0.0,0.0,7.0,8611.0,12845.0,3914.0,3737.0,0.0,-16.0,13.0,4.0,-12.0,-11.0,9929.0,10661.0,6063.0,4408.0,0.0,-8.0,3.0,1.0
2022-05-03 16:50:08.289412-07:00,2078.5,595.5,1360.3,1597.4,1220.4,1264.0,1407.6,1563.7,3447.9,3443.1,1711.9,1416.7,1325.0,3443.1,1109.5,1576.8,3439.5,3445.5,724.1,1343.1,1008.2,593.1,1360.3,1852.8,3452.8,3450.4,757.9,922.0,1290.0,1557.1,1332.3,1189.4,0.0,5.0,11.0,8611.0,12845.0,3913.0,3737.0,-3.0,1.0,-8.0,3.0,-12.0,0.0,9930.0,10662.0,6062.0,4406.0,-4.0,0.0,-4.0,1.0
2022-05-03 16:50:08.291285-07:00,2078.5,595.5,1360.3,1597.4,1209.7,1271.2,1407.6,1563.7,3451.6,3443.1,1711.9,1416.7,1332.3,3458.9,1107.8,1576.8,3439.5,3441.9,725.8,1341.3,1008.2,593.1,1360.3,1858.6,3452.8,3454.0,759.6,895.7,1290.0,1557.1,1332.3,1187.6,0.0,-1.0,11.0,8612.0,12845.0,3916.0,3736.0,-5.0,-2.0,-2.0,1.0,-10.0,0.0,9930.0,10662.0,6062.0,4406.0,0.0,1.0,-2.0,1.0
2022-05-03 16:50:08.292634-07:00,2078.5,597.1,1353.1,1588.9,1209.7,1271.2,1414.9,1560.9,3451.6,3444.3,1709.1,1414.0,1332.3,3458.9,1109.5,1582.4,3438.2,3444.3,725.8,1341.3,1007.3,597.1,1360.3,1858.6,3454.0,3446.7,759.6,895.7,1283.7,1563.7,1329.6,1187.6,5.0,0.0,11.0,8612.0,12844.0,3916.0,3736.0,-4.0,11.0,7.0,9.0,-7.0,0.0,9930.0,10662.0,6062.0,4406.0,-3.0,3.0,6.0,1.0
2022-05-03 16:50:08.293441-07:00,2078.5,593.1,1353.1,1588.9,1213.3,1265.8,1414.9,1560.9,3443.1,3443.1,1709.1,1414.0,1333.2,3439.5,1109.5,1582.4,3438.2,3444.3,724.9,1343.1,1007.3,597.1,1362.1,1853.7,3454.0,3446.7,756.3,919.4,1283.7,1563.7,1329.6,1191.2,4.0,0.0,8.0,8610.0,12845.0,3917.0,3737.0,8.0,-6.0,0.0,3.0,-12.0,-7.0,9930.0,10662.0,6062.0,4406.0,8.0,2.0,-3.0,1.0
2022-05-03 16:50:08.295176-07:00,2078.5,593.1,1356.7,1592.7,1213.3,1265.8,1410.3,1570.2,3443.1,3443.1,1711.0,1414.0,1333.2,3439.5,1104.3,1578.6,3439.5,3449.1,724.9,1343.1,1006.5,597.1,1362.1,1853.7,3443.1,3447.9,756.3,919.4,1287.3,1561.8,1329.6,1191.2,-2.0,2.0,7.0,8609.0,12844.0,3919.0,3740.0,-10.0,13.0,-4.0,0.0,-8.0,3.0,9931.0,10661.0,6061.0,4407.0,-10.0,7.0,-2.0,1.0
2022-05-03 16:50:08.319906-07:00,2079.5,593.9,1356.7,1592.7,1216.0,1266.7,1410.3,1570.2,3446.7,3449.1,1711.0,1414.0,1338.6,3444.3,1104.3,1578.6,3439.5,3449.1,724.9,1337.7,1006.5,597.1,1358.5,1857.6,3443.1,3447.9,752.9,918.6,1287.3,1561.8,1328.7,1189.4,0.0,-1.0,6.0,8608.0,12844.0,3922.0,3738.0,14.0,-6.0,-10.0,1.0,-9.0,-3.0,9930.0,10662.0,6062.0,4406.0,11.0,8.0,-8.0,1.0
2022-05-03 16:50:08.410222-07:00,2067.5,596.3,1357.6,1594.6,1217.7,1264.0,1405.8,1553.4,3449.1,3450.4,1711.0,1411.3,1331.4,3443.1,1112.1,1577.7,3433.4,3446.7,722.5,1339.5,1004.8,598.7,1359.4,1848.9,3449.1,3447.9,757.1,916.0,1281.9,1559.0,1329.6,1190.3,0.0,-2.0,8.0,8604.0,12846.0,3925.0,3741.0,11.0,-6.0,10.0,1.0,-7.0,-6.0,9928.0,10664.0,6062.0,4405.0,15.0,1.0,3.0,1.0
2022-05-03 16:50:08.439614-07:00,2067.5,596.3,1354.0,1590.8,1217.7,1265.8,1407.6,1565.5,3449.1,3450.4,1711.0,1413.1,1331.4,3444.3,1101.7,1577.7,3451.6,3441.9,720.0,1339.5,1011.6,597.9,1359.4,1848.9,3445.5,3445.5,757.1,916.0,1282.8,1562.7,1329.6,1190.3,1.0,4.0,12.0,8605.0,12844.0,3922.0,3746.0,-16.0,14.0,6.0,4.0,-16.0,-1.0,9929.0,10663.0,6061.0,4406.0,-12.0,-1.0,9.0,1.0
2022-05-03 16:50:08.499279-07:00,2071.5,593.9,1357.6,1590.8,1217.7,1265.8,1407.6,1565.5,3449.1,3446.7,1708.1,1413.1,1323.2,3444.3,1101.7,1577.7,3451.6,3441.9,720.0,1340.4,1011.6,594.7,1364.8,1857.6,3445.5,3445.5,757.1,918.6,1282.8,1560.9,1331.4,1192.9,3.0,-2.0,9.0,8605.0,12844.0,3922.0,3747.0,4.0,-6.0,-7.0,4.0,-8.0,0.0,9929.0,10663.0,6061.0,4406.0,5.0,1.0,0.0,1.0
2022-05-03 16:50:08.559476-07:00,2071.5,593.9,1357.6,1593.6,1217.7,1270.3,1412.2,1558.1,3449.1,3446.7,1708.1,1408.5,1323.2,3445.5,1106.9,1573.0,3443.1,3449.1,729.0,1340.4,1007.3,594.7,1364.8,1857.6,3446.7,3451.6,757.1,918.6,1288.2,1560.9,1331.4,1192.9,-1.0,-2.0,9.0,8604.0,12845.0,3919.0,3750.0,7.0,2.0,19.0,1.0,-11.0,0.0,9929.0,10663.0,6061.0,4407.0,8.0,0.0,11.0,1.0
2022-05-03 16:50:08.589257-07:00,2076.5,591.5,1354.9,1593.6,1214.2,1270.3,1412.2,1558.1,3445.5,3444.3,1710.0,1408.5,1330.5,3445.5,1106.9,1573.0,3443.1,3449.1,729.0,1339.5,1007.3,598.7,1355.8,1859.6,3446.7,3451.6,757.1,919.4,1288.2,1561.8,1320.5,1185.9,0.0,0.0,7.0,8600.0,12848.0,3917.0,3748.0,4.0,-3.0,-3.0,5.0,-10.0,-4.0,9927.0,10665.0,6061.0,4406.0,6.0,7.0,-1.0,1.0
2022-05-03 16:50:08.619567-07:00,2076.5,591.5,1354.9,1593.6,1214.2,1271.2,1396.7,1553.4,3445.5,3444.3,1710.0,1417.6,1330.5,3452.8,1092.1,1574.9,3441.9,3445.5,725.8,1339.5,1004.8,598.7,1355.8,1859.6,3451.6,3446.7,752.9,919.4,1283.7,1561.8,1320.5,1185.9,6.0,0.0,13.0,8600.0,12847.0,3919.0,3752.0,9.0,35.0,-6.0,6.0,-12.0,-12.0,9927.0,10665.0,6061.0,4406.0,0.0,2.0,3.0,1.0
2022-05-03 16:50:08.679342-07:00,2060.5,590.7,1352.1,1588.9,1215.1,1271.2,1396.7,1553.4,3450.4,3441.9,1706.2,1411.3,1329.6,3452.8,1092.1,1574.9,3441.9,3445.5,725.8,1335.0,1004.8,602.0,1357.6,1858.6,3451.6,3446.7,752.9,918.6,1289.1,1560.9,1328.7,1189.4,126.0,71.0,42.0,8553.0,12828.0,4027.0,3806.0,185.0,592.0,-298.0,-4.0,10.0,-131.0,9923.0,10670.0,6065.0,4397.0,45.0,-37.0,-40.0,1.0
2022-05-03 16:50:08.919420-07:00,2060.5,590.7,1352.1,1588.9,1217.7,1269.4,1404.0,1554.3,3450.4,3441.9,1706.2,1411.3,1329.6,3441.9,1102.5,1574.9,3440.7,3451.6,725.8,1335.0,1004.8,602.0,1357.6,1858.6,3450.4,3450.4,757.1,923.7,1289.1,1560.9,1328.7,1189.4,-38.0,228.0,226.0,8370.0,12625.0,4729.0,4078.0,271.0,2184.0,-1418.0,13.0,40.0,57.0,9930.0,10670.0,6098.0,4337.0,-23.0,-29.0,-210.0,1.0
2022-05-03 16:50:08.949956-07:00,2088.6,595.5,1351.2,1589.9,1217.7,1269.4,1404.0,1554.3,3441.9,3446.7,1706.2,1414.0,1329.6,3441.9,1102.5,1574.9,3440.7,3451.6,725.8,1335.0,1009.9,595.5,1404.0,1855.7,3450.4,3450.4,757.1,923.7,1289.1,1557.1,1327.8,1189.4,17.0,-79.0,112.0,8252.0,12080.0,5807.0,4549.0,-302.0,2675.0,-1636.0,23.0,-27.0,90.0,9991.0,10557.0,6196.0,4333.0,-259.0,262.0,-291.0,1.0
2022-05-03 16:50:08.979213-07:00,2088.6,595.5,1351.2,1589.9,1215.1,1273.0,1423.1,1591.7,3441.9,3446.7,1706.2,1414.0,1326.8,3449.1,1105.1,1573.9,3445.5,3446.7,733.2,1339.5,1009.9,595.5,1404.0,1855.7,3451.6,3445.5,755.4,915.2,1289.1,1557.1,1327.8,1189.4,-8.0,-207.0,-46.0,8113.0,11627.0,6496.0,5023.0,-268.0,2120.0,-496.0,7.0,-82.0,37.0,9975.0,10462.0,6328.0,4409.0,89.0,402.0,-79.0,1.0
2022-05-03 16:50:09.099422-07:00,2080.6,594.7,1352.1,1587.1,1215.1,1273.0,1423.1,1591.7,3449.1,3446.7,1700.5,1413.1,1326.8,3449.1,1105.1,1573.9,3445.5,3446.7,733.2,1339.5,1003.0,591.5,1360.3,1852.8,3451.6,3445.5,755.4,915.2,1287.3,1574.9,1325.0,1186.7,135.0,-45.0,31.0,7793.0,11260.0,6969.0,5688.0,-128.0,2795.0,183.0,-17.0,-23.0,-34.0,9779.0,10549.0,6469.0,4436.0,670.0,352.0,107.0,1.0
2022-05-03 16:50:09.100644-07:00,2080.6,594.7,1352.1,1587.1,1209.7,1266.7,1447.9,1638.8,3449.1,3446.7,1700.5,1413.1,1328.7,3449.1,1107.8,1579.6,3440.7,3449.1,727.4,1338.6,1003.0,591.5,1360.3,1852.8,3449.1,3454.0,757.1,919.4,1287.3,1574.9,1325.0,1186.7,70.0,82.0,-52.0,7154.0,10917.0,7519.0,6444.0,753.0,2529.0,-193.0,-4.0,21.0,-18.0,9408.0,10779.0,6698.0,4346.0,1262.0,374.0,-131.0,1.0
2022-05-03 16:50:09.101446-07:00,2139.2,591.5,1358.5,1598.3,1209.7,1266.7,1447.9,1749.3,3441.9,3446.7,1706.2,1416.7,1328.7,3449.1,1107.8,1583.3,3440.7,3449.1,727.4,1338.6,1015.9,599.6,1340.4,1851.8,3446.7,3454.0,757.1,919.4,1291.8,1559.0,1322.3,1188.5,-66.0,-6.0,-180.0,6652.0,10491.0,8161.0,6894.0,127.0,1468.0,-806.0,19.0,16.0,63.0,9173.0,10875.0,6913.0,4272.0,292.0,317.0,-222.0,1.0
2022-05-03 16:50:09.102406-07:00,2224.0,591.5,1358.5,1598.3,1214.2,1272.1,1527.3,1749.3,3450.4,3446.7,1706.2,1416.7,1331.4,3450.4,1107.8,1583.3,3440.7,3450.4,730.7,1354.0,1015.9,599.6,1340.4,1860.6,3446.7,3449.1,766.2,911.8,1291.8,1559.0,1322.3,1192.0,-59.0,-181.0,-166.0,6533.0,10128.0,8559.0,7067.0,44.0,535.0,-382.0,-8.0,-58.0,-12.0,9138.0,10821.0,7030.0,4291.0,-12.0,200.0,-134.0,1.0
2022-05-03 16:50:09.104488-07:00,2224.0,588.3,1354.0,1589.9,1214.2,1272.1,1527.3,1740.6,3450.4,3451.6,1702.4,1416.7,1331.4,3450.4,1107.8,1573.9,3438.2,3450.4,730.7,1354.0,1013.3,599.6,1330.5,1860.6,3441.9,3449.1,766.2,911.8,1285.5,1563.7,1327.8,1192.0,66.0,-119.0,-48.0,6494.0,10081.0,8602.0,7116.0,-112.0,64.0,405.0,-21.0,-52.0,-70.0,9088.0,10833.0,7072.0,4298.0,224.0,44.0,77.0,1.0
2022-05-03 16:50:09.189188-07:00,2211.6,588.3,1354.0,1589.9,1218.6,1275.6,1532.0,1740.6,3444.3,3451.6,1702.4,1416.7,1332.3,3449.1,1108.6,1573.9,3438.2,3443.1,727.4,1342.2,1013.3,599.6,1330.5,1848.9,3441.9,3447.9,770.3,908.4,1285.5,1563.7,1327.8,1188.5,25.0,61.0,-17.0,6385.0,10197.0,8462.0,7217.0,59.0,52.0,494.0,14.0,8.0,-21.0,8958.0,10952.0,7086.0,4247.0,429.0,-31.0,105.0,1.0
2022-05-03 16:50:09.219913-07:00,2211.6,605.2,1349.4,1593.6,1218.6,1275.6,1532.0,1716.7,3444.3,3447.9,1700.5,1421.3,1332.3,3449.1,1108.6,1576.8,3449.1,3443.1,727.4,1342.2,1016.8,592.3,1319.6,1848.9,3447.9,3447.9,770.3,908.4,1283.7,1557.1,1328.7,1188.5,28.0,101.0,19.0,6347.0,10226.0,8396.0,7286.0,-188.0,166.0,-200.0,11.0,17.0,-10.0,8930.0,10996.0,7066.0,4224.0,-122.0,-62.0,32.0,1.0
2022-05-03 16:50:09.249537-07:00,2228.1,605.2,1349.4,1593.6,1209.7,1274.7,1522.7,1716.7,3438.2,3447.9,1700.5,1421.3,1331.4,3449.1,1100.8,1576.8,3449.1,3438.2,727.4,1353.1,1016.8,592.3,1319.6,1852.8,3447.9,3451.6,764.5,915.2,1283.7,1557.1,1328.7,1189.4,-15.0,-5.0,-15.0,6439.0,10101.0,8475.0,7288.0,-146.0,18.0,-449.0,-7.0,-16.0,10.0,9027.0,10921.0,7035.0,4264.0,-345.0,-12.0,-63.0,1.0
2022-05-03 16:50:09.429128-07:00,2228.1,593.1,1357.6,1595.5,1209.7,1274.7,1504.1,1710.0,3438.2,3443.1,1709.1,1414.0,1331.4,3449.1,1101.7,1568.3,3438.2,3443.1,727.4,1353.1,1006.5,596.3,1306.1,1852.8,3449.1,3449.1,764.5,915.2,1281.0,1556.2,1323.2,1189.4,-39.0,-90.0,-17.0,6500.0,9967.0,8582.0,7293.0,47.0,192.0,-161.0,17.0,-28.0,21.0,9088.0,10862.0,7030.0,4296.0,-74.0,35.0,-37.0,1.0
2022-05-03 16:50:09.489269-07:00,2230.1,593.9,1357.6,1595.5,1209.7,1273.0,1504.1,1710.0,3446.7,3455.2,1709.1,1414.0,1325.9,3449.1,1101.7,1568.3,3438.2,3443.1,729.0,1354.9,1006.5,596.3,1302.5,1851.8,3449.1,3449.1,768.7,904.2,1281.0,1556.2,1329.6,1189.4,14.0,-53.0,-6.0,6465.0,9955.0,8624.0,7291.0,146.0,103.0,66.0,0.0,-37.0,-11.0,9071.0,10864.0,7047.0,4296.0,88.0,34.0,13.0,1.0
2022-05-03 16:50:09.490677-07:00,2230.1,593.9,1353.1,1597.4,1209.7,1273.0,1506.9,1686.2,3446.7,3455.2,1706.2,1421.3,1325.9,3449.1,1105.1,1564.6,3437.0,3450.4,729.0,1354.9,1013.3,593.9,1302.5,1851.8,3443.1,3458.9,768.7,904.2,1292.7,1559.9,1329.6,1189.4,36.0,45.0,-4.0,6372.0,10001.0,8655.0,7274.0,131.0,92.0,42.0,2.0,8.0,-24.0,9020.0,10901.0,7069.0,4275.0,121.0,9.0,4.0,1.0
2022-05-03 16:50:09.491550-07:00,2225.0,593.9,1353.1,1597.4,1211.5,1274.7,1506.9,1686.2,3443.1,3446.7,1706.2,1421.3,1328.7,3450.4,1105.1,1564.6,3437.0,3450.4,726.6,1353.1,1013.3,593.9,1304.3,1851.8,3443.1,3458.9,776.1,903.4,1292.7,1559.9,1328.7,1192.9,9.0,23.0,-16.0,6342.0,9999.0,8689.0,7261.0,21.0,-10.0,-90.0,2.0,6.0,-5.0,9019.0,10901.0,7071.0,4273.0,-66.0,-1.0,-19.0,1.0
2022-05-03 16:50:09.492303-07:00,2225.0,593.9,1348.5,1593.6,1211.5,1274.7,1494.0,1675.7,3443.1,3446.7,1707.2,1418.6,1328.7,3450.4,1105.1,1571.1,3444.3,3449.1,726.6,1353.1,1002.2,595.5,1304.3,1851.8,3443.1,3456.4,776.1,903.4,1285.5,1556.2,1328.7,1192.9,26.0,-33.0,1.0,6378.0,9983.0,8698.0,7240.0,-65.0,-67.0,-47.0,-5.0,-30.0,-13.0,9042.0,10882.0,7067.0,4281.0,-52.0,-14.0,-2.0,1.0
2022-05-03 16:50:09.519240-07:00,2217.8,596.3,1350.3,1593.6,1209.7,1274.7,1494.0,1675.7,3449.1,3451.6,1700.5,1418.6,1332.3,3444.3,1105.1,1571.1,3444.3,3449.1,730.7,1355.8,1002.2,596.3,1296.3,1848.9,3443.1,3456.4,771.1,899.1,1285.5,1556.2,1328.7,1181.5,-4.0,-9.0,-23.0,6387.0,9980.0,8684.0,7255.0,-25.0,-56.0,69.0,7.0,-8.0,11.0,9044.0,10884.0,7062.0,4278.0,10.0,-4.0,8.0,1.0
2022-05-03 16:50:09.579107-07:00,2217.8,596.3,1350.3,1597.4,1209.7,1271.2,1494.0,1683.3,3449.1,3451.6,1700.5,1413.1,1332.3,3452.8,1100.8,1573.9,3438.2,3447.9,727.4,1355.8,1010.8,596.3,1296.3,1848.9,3449.1,3455.2,770.3,899.1,1285.5,1556.2,1328.7,1181.5,2.0,4.0,-10.0,6399.0,9993.0,8652.0,7264.0,-17.0,26.0,38.0,2.0,-2.0,-7.0,9038.0,10890.0,7060.0,4279.0,30.0,0.0,8.0,1.0
2022-05-03 16:50:09.670208-07:00,2217.8,590.7,1346.7,1597.4,1211.5,1271.2,1494.0,1683.3,3444.3,3445.5,1702.4,1413.1,1331.4,3452.8,1100.8,1573.9,3438.2,3447.9,727.4,1356.7,1010.8,594.7,1296.3,1849.8,3449.1,3455.2,770.3,896.6,1285.5,1559.9,1327.8,1191.2,6.0,-29.0,-29.0,6411.0,10015.0,8629.0,7250.0,-24.0,-171.0,44.0,-3.0,-23.0,-5.0,9040.0,10888.0,7060.0,4281.0,-19.0,8.0,3.0,1.0
2022-05-03 16:50:09.671206-07:00,2217.8,590.7,1346.7,1597.4,1211.5,1271.2,1485.6,1666.3,3444.3,3445.5,1702.4,1414.0,1331.4,3449.1,1105.1,1574.9,3449.1,3438.2,725.8,1356.7,1020.2,594.7,1296.3,1849.8,3449.1,3440.7,764.5,896.6,1281.0,1559.9,1327.8,1191.2,-7.0,-1.0,-17.0,6415.0,10043.0,8590.0,7254.0,16.0,-13.0,112.0,7.0,-3.0,2.0,9026.0,10901.0,7060.0,4277.0,68.0,1.0,11.0,1.0
2022-05-03 16:50:09.939950-07:00,2211.6,593.1,1352.1,1597.4,1214.2,1271.2,1485.6,1666.3,3445.5,3438.2,1707.2,1414.0,1329.6,3449.1,1105.1,1574.9,3449.1,3438.2,725.8,1357.6,1020.2,596.3,1303.4,1848.9,3449.1,3440.7,764.5,895.7,1281.0,1559.0,1323.2,1189.4,27.0,-8.0,-6.0,6409.0,10096.0,8553.0,7231.0,30.0,-146.0,88.0,0.0,-17.0,-14.0,9013.0,10912.0,7065.0,4269.0,37.0,1.0,11.0,1.0
2022-05-03 16:50:09.941554-07:00,2211.6,593.1,1352.1,1586.1,1214.2,1272.1,1483.8,1663.4,3445.5,3438.2,1707.2,1413.1,1329.6,3447.9,1099.0,1577.7,3451.6,3439.5,727.4,1357.6,1003.0,596.3,1303.4,1848.9,3451.6,3451.6,770.3,895.7,1284.6,1559.0,1323.2,1189.4,2.0,3.0,-21.0,6408.0,10126.0,8533.0,7213.0,20.0,-60.0,14.0,5.0,0.0,2.0,9003.0,10921.0,7067.0,4264.0,-2.0,-1.0,5.0,1.0
2022-05-03 16:50:09.942563-07:00,2207.5,593.1,1346.7,1595.5,1209.7,1272.1,1483.8,1663.4,3443.1,3454.0,1707.2,1413.1,1325.9,3447.9,1099.0,1577.7,3451.6,3439.5,727.4,1360.3,1004.8,595.5,1299.0,1852.8,3451.6,3451.6,770.3,892.4,1289.1,1561.8,1336.8,1193.8,17.0,-20.0,-8.0,6424.0,10141.0,8517.0,7196.0,-23.0,-69.0,16.0,2.0,-17.0,-7.0,9006.0,10917.0,7065.0,4268.0,-13.0,-6.0,3.0,1.0
2022-05-03 16:50:09.944365-07:00,2207.5,593.1,1346.7,1595.5,1212.4,1271.2,1487.5,1654.9,3443.1,3454.0,1707.2,1413.1,1329.6,3449.1,1105.1,1570.2,3450.4,3447.9,729.0,1345.8,1004.8,595.5,1299.0,1852.8,3441.9,3455.2,762.9,897.4,1289.1,1561.8,1336.8,1193.8,-1.0,-8.0,-23.0,6422.0,10158.0,8499.0,7196.0,17.0,-34.0,53.0,7.0,-14.0,2.0,9004.0,10921.0,7063.0,4267.0,15.0,-5.0,5.0,1.0
2022-05-03 16:50:10.119797-07:00,2205.5,596.3,1346.7,1588.9,1212.4,1271.2,1487.5,1654.9,3445.5,3451.6,1697.6,1414.0,1329.6,3449.1,1105.1,1570.2,3450.4,3447.9,729.0,1345.8,1011.6,594.7,1296.3,1852.8,3441.9,3455.2,762.9,897.4,1281.0,1559.0,1324.1,1190.3,8.0,6.0,-10.0,6422.0,10183.0,8478.0,7184.0,-4.0,-38.0,21.0,6.0,-2.0,-9.0,9001.0,10925.0,7063.0,4264.0,-11.0,-13.0,4.0,1.0
2022-05-03 16:50:10.150185-07:00,2199.3,589.1,1344.9,1588.9,1208.9,1269.4,1485.6,1660.6,3445.5,3450.4,1696.7,1419.5,1332.3,3444.3,1097.3,1573.9,3444.3,3445.5,727.4,1352.1,1011.6,591.5,1298.1,1848.9,3449.1,3445.5,760.4,898.3,1285.5,1581.4,1327.8,1192.0,3.0,-8.0,-6.0,6445.0,10196.0,8474.0,7150.0,-15.0,-44.0,-37.0,1.0,-12.0,3.0,9024.0,10911.0,7057.0,4261.0,-43.0,3.0,-9.0,1.0
2022-05-03 16:50:10.151136-07:00,2198.3,589.1,1344.9,1588.9,1215.1,1272.1,1481.0,1653.9,3454.0,3450.4,1696.7,1419.5,1330.5,3440.7,1099.0,1570.2,3438.2,3441.9,725.8,1357.6,1011.6,591.5,1298.1,1857.6,3449.1,3449.1,765.3,897.4,1285.5,1581.4,1327.8,1185.0,1.0,-11.0,-8.0,6455.0,10198.0,8470.0,7143.0,-9.0,-13.0,14.0,0.0,-14.0,-3.0,9031.0,10905.0,7054.0,4266.0,8.0,2.0,1.0,1.0
2022-05-03 16:50:10.152461-07:00,2198.3,588.3,1345.8,1590.8,1215.1,1272.1,1481.0,1656.8,3454.0,3450.4,1709.1,1412.2,1330.5,3440.7,1099.0,1571.1,3440.7,3441.9,725.8,1357.6,1003.0,588.3,1296.3,1857.6,3457.6,3449.1,765.3,897.4,1290.0,1558.1,1322.3,1185.0,1.0,0.0,-13.0,6449.0,10202.0,8466.0,7148.0,-2.0,9.0,14.0,3.0,-5.0,3.0,9028.0,10907.0,7055.0,4264.0,9.0,7.0,1.0,1.0
2022-05-03 16:50:10.179129-07:00,2179.9,588.3,1345.8,1590.8,1212.4,1276.5,1482.9,1656.8,3443.1,3450.4,1709.1,1412.2,1325.0,3449.1,1101.7,1571.1,3440.7,3444.3,728.2,1342.2,1003.0,588.3,1296.3,1850.8,3457.6,3447.9,759.6,892.4,1290.0,1558.1,1322.3,1188.5,3.0,-5.0,-8.0,6446.0,10202.0,8466.0,7150.0,9.0,7.0,-4.0,8.0,-8.0,-2.0,9024.0,10908.0,7058.0,4266.0,11.0,11.0,-3.0,1.0
2022-05-03 16:50:10.239341-07:00,2179.9,591.5,1354.0,1588.9,1212.4,1276.5,1482.9,1657.7,3443.1,3444.3,1695.7,1411.3,1325.0,3449.1,1101.7,1576.8,3440.7,3444.3,728.2,1342.2,1006.5,593.9,1298.1,1850.8,3451.6,3447.9,759.6,892.4,1285.5,1555.3,1332.3,1188.5,1.0,-11.0,-4.0,6446.0,10200.0,8466.0,7155.0,-19.0,3.0,9.0,8.0,-13.0,2.0,9021.0,10907.0,7061.0,4269.0,4.0,17.0,0.0,1.0
2022-05-03 16:50:10.299132-07:00,2193.2,591.5,1354.0,1588.9,1216.8,1271.2,1476.4,1657.7,3446.7,3444.3,1695.7,1411.3,1325.0,3449.1,1099.9,1576.8,3440.7,3440.7,732.3,1346.7,1006.5,593.9,1298.1,1848.9,3451.6,3457.6,758.7,892.4,1285.5,1555.3,1332.3,1188.5,5.0,1.0,-11.0,6433.0,10203.0,8462.0,7164.0,15.0,42.0,24.0,4.0,-5.0,-2.0,9011.0,10912.0,7067.0,4269.0,22.0,16.0,-2.0,1.0
2022-05-03 16:50:10.689272-07:00,2193.2,586.7,1354.0,1590.8,1216.8,1271.2,1476.4,1653.9,3446.7,3447.9,1700.5,1414.9,1325.0,3449.1,1099.9,1571.1,3449.1,3440.7,732.3,1346.7,1006.5,598.7,1296.3,1848.9,3449.1,3457.6,758.7,892.4,1288.2,1555.3,1324.1,1188.5,0.0,-11.0,-15.0,6437.0,10197.0,8464.0,7168.0,-29.0,-12.0,-19.0,0.0,-18.0,-1.0,9011.0,10908.0,7069.0,4275.0,-19.0,14.0,-7.0,1.0
2022-05-03 16:50:10.779392-07:00,2184.0,589.1,1354.0,1590.8,1216.0,1273.9,1477.3,1653.9,3445.5,3451.6,1700.5,1414.9,1328.7,3444.3,1099.9,1571.1,3449.1,3443.1,725.8,1349.4,1006.5,598.7,1294.5,1847.9,3449.1,3444.3,757.9,895.7,1288.2,1555.3,1320.5,1185.0,13.0,-33.0,-19.0,6434.0,10218.0,8449.0,7159.0,43.0,-75.0,96.0,-2.0,-25.0,-6.0,9004.0,10912.0,7074.0,4273.0,80.0,3.0,6.0,1.0
2022-05-03 16:50:11.379511-07:00,2184.0,589.1,1345.8,1589.9,1216.0,1273.9,1480.1,1650.2,3445.5,3451.6,1694.8,1415.8,1328.7,3444.3,1094.7,1572.1,3438.2,3440.7,725.8,1349.4,1000.5,593.9,1294.5,1847.9,3443.1,3447.9,757.9,895.7,1285.5,1560.9,1320.5,1185.0,-2.0,17.0,-16.0,6412.0,10251.0,8422.0,7162.0,-8.0,4.0,52.0,6.0,-3.0,-2.0,8981.0,10932.0,7078.0,4263.0,8.0,-1.0,10.0,1.0
2022-05-03 16:50:11.381473-07:00,2184.0,589.1,1345.8,1589.9,1210.6,1271.2,1480.1,1650.2,3444.3,3443.1,1694.8,1415.8,1327.8,3449.1,1094.7,1572.1,3438.2,3440.7,729.9,1346.7,1000.5,593.9,1290.0,1849.8,3443.1,3447.9,758.7,890.7,1285.5,1560.9,1328.7,1185.9,26.0,26.0,15.0,6433.0,10220.0,8435.0,7174.0,-100.0,100.0,-155.0,4.0,-4.0,-10.0,8995.0,10920.0,7072.0,4273.0,-100.0,-1.0,-7.0,1.0
2022-05-03 16:50:11.382434-07:00,2184.0,589.1,1345.8,1589.9,1210.6,1271.2,1482.9,1649.2,3444.3,3443.1,1701.4,1411.3,1327.8,3449.1,1097.3,1562.7,3449.1,3437.0,729.9,1346.7,998.7,592.3,1290.0,1849.8,3458.9,3451.6,758.7,890.7,1280.1,1554.3,1328.7,1185.9,-21.0,-40.0,-36.0,6480.0,10155.0,8470.0,7181.0,-81.0,-65.0,-120.0,0.0,-23.0,8.0,9034.0,10885.0,7061.0,4297.0,-150.0,21.0,-16.0,1.0
2022-05-03 16:50:11.383319-07:00,2182.0,593.9,1345.8,1589.9,1209.7,1264.0,1482.9,1649.2,3450.4,3443.1,1701.4,1411.3,1328.7,3438.2,1097.3,1562.7,3449.1,3437.0,729.9,1345.8,998.7,592.3,1299.8,1848.9,3458.9,3451.6,753.8,887.3,1280.1,1554.3,1325.9,1185.9,47.0,-33.0,1.0,6490.0,10174.0,8445.0,7175.0,43.0,-3.0,147.0,2.0,-21.0,-33.0,9048.0,10871.0,7057.0,4310.0,118.0,-13.0,28.0,1.0
2022-05-03 16:50:11.384005-07:00,2182.0,593.9,1345.8,1589.9,1209.7,1264.0,1482.9,1649.2,3450.4,3443.1,1701.4,1411.3,1328.7,3438.2,1097.3,1562.7,3449.1,3437.0,729.9,1345.8,998.7,592.3,1299.8,1848.9,3458.9,3451.6,753.8,887.3,1280.1,1554.3,1325.9,1185.9,47.0,-33.0,1.0,6490.0,10174.0,8445.0,7175.0,43.0,-3.0,147.0,2.0,-21.0,-33.0,9048.0,10871.0,7057.0,4310.0,118.0,-13.0,28.0,1.0
2022-05-03 16:50:11.409363-07:00,2170.7,589.1,1346.7,1589.9,1214.2,1274.7,1472.7,1652.0,3446.7,3445.5,1706.2,1414.9,1326.8,3445.5,1098.2,1568.3,3444.3,3441.9,724.9,1348.5,1003.9,594.7,1285.5,1851.8,3450.4,3454.0,759.6,893.2,1287.3,1559.9,1340.4,1187.6,-4.0,9.0,1.0,6488.0,10222.0,8403.0,7158.0,13.0,-7.0,-11.0,4.0,-5.0,9.0,9044.0,10896.0,7035.0,4292.0,-3.0,-3.0,-9.0,1.0
2022-05-03 16:50:11.410326-07:00,2170.7,589.1,1346.7,1589.9,1214.2,1274.7,1472.7,1652.0,3446.7,3445.5,1706.2,1414.9,1326.8,3445.5,1098.2,1568.3,3444.3,3441.9,724.9,1348.5,1003.9,594.7,1285.5,1851.8,3450.4,3454.0,759.6,893.2,1287.3,1559.9,1340.4,1187.6,-4.0,9.0,1.0,6488.0,10222.0,8403.0,7158.0,13.0,-7.0,-11.0,4.0,-5.0,9.0,9044.0,10896.0,7035.0,4292.0,-3.0,-3.0,-9.0,1.0
2022-05-03 16:50:11.411026-07:00,2170.7,589.1,1346.7,1589.9,1214.2,1274.7,1472.7,1652.0,3446.7,3445.5,1706.2,1414.9,1326.8,3445.5,1098.2,1568.3,3444.3,3441.9,724.9,1348.5,1003.9,594.7,1285.5,1851.8,3450.4,3454.0,759.6,893.2,1287.3,1559.9,1340.4,1187.6,-4.0,9.0,1.0,6488.0,10222.0,8403.0,7158.0,13.0,-7.0,-11.0,4.0,-5.0,9.0,9044.0,10896.0,7035.0,4292.0,-3.0,-3.0,-9.0,1.0
2022-05-03 16:50:11.469444-07:00,2172.8,587.5,1344.9,1585.2,1227.5,1267.6,1472.7,1644.5,3441.9,3447.9,1701.4,1415.8,1326.8,3440.7,1100.8,1572.1,3446.7,3443.1,718.4,1343.1,997.9,597.1,1294.5,1841.1,3451.6,3450.4,754.6,889.8,1287.3,1559.9,1318.7,1189.4,5.0,-19.0,-13.0,6444.0,10273.0,8365.0,7170.0,2.0,-50.0,62.0,1.0,-16.0,-5.0,8999.0,10914.0,7061.0,4300.0,13.0,13.0,2.0,1.0
2022-05-03 16:50:11.799302-07:00,2165.6,590.7,1344.9,1585.2,1202.7,1267.6,1472.7,1644.5,3454.0,3447.9,1701.4,1415.8,1328.7,3458.9,1100.8,1572.1,3446.7,3443.1,726.6,1344.0,997.9,597.1,1289.1,1848.9,3451.6,3450.4,752.9,883.1,1287.3,1559.9,1328.7,1188.5,2.0,19.0,-11.0,6431.0,10290.0,8346.0,7179.0,2.0,30.0,33.0,2.0,0.0,0.0,8982.0,10927.0,7064.0,4294.0,43.0,-2.0,15.0,1.0
2022-05-03 16:50:11.800709-07:00,2165.6,590.7,1345.8,1584.2,1202.7,1267.6,1476.4,1652.0,3454.0,3447.9,1697.6,1407.6,1328.7,3458.9,1095.6,1561.8,3440.7,3444.3,726.6,1344.0,997.9,590.7,1289.1,1848.9,3446.7,3450.4,752.9,883.1,1289.1,1553.4,1328.7,1188.5,-7.0,-18.0,-16.0,6435.0,10282.0,8353.0,7178.0,-26.0,-33.0,-54.0,0.0,-13.0,3.0,8989.0,10922.0,7062.0,4298.0,-59.0,4.0,-9.0,1.0
2022-05-03 16:50:11.801715-07:00,2167.7,590.7,1345.8,1584.2,1210.6,1265.8,1476.4,1652.0,3444.3,3449.1,1697.6,1407.6,1324.1,3444.3,1095.6,1561.8,3440.7,3444.3,720.0,1346.7,997.9,590.7,1290.0,1839.1,3446.7,3450.4,754.6,888.2,1289.1,1553.4,1320.5,1185.0,-11.0,-26.0,-18.0,6442.0,10284.0,8350.0,7174.0,30.0,-36.0,77.0,3.0,-15.0,5.0,8990.0,10921.0,7060.0,4300.0,35.0,2.0,10.0,1.0
2022-05-03 16:50:11.802628-07:00,2167.7,590.7,1343.1,1588.0,1210.6,1265.8,1473.6,1635.0,3444.3,3449.1,1701.4,1411.3,1324.1,3444.3,1099.0,1569.3,3439.5,3446.7,720.0,1346.7,998.7,588.3,1290.0,1839.1,3445.5,3451.6,754.6,888.2,1285.5,1552.5,1320.5,1185.0,-71.0,-43.0,-66.0,6432.0,10339.0,8309.0,7150.0,68.0,-264.0,163.0,13.0,-19.0,32.0,8978.0,10935.0,7060.0,4293.0,27.0,-13.0,10.0,1.0
2022-05-03 16:50:11.859046-07:00,2173.8,589.9,1343.1,1588.0,1215.1,1264.9,1473.6,1635.0,3441.9,3440.7,1701.4,1411.3,1332.3,3440.7,1099.0,1569.3,3439.5,3446.7,726.6,1343.1,998.7,588.3,1300.7,1850.8,3445.5,3451.6,749.6,889.0,1285.5,1552.5,1322.3,1186.7,-179.0,-146.0,-230.0,6468.0,10594.0,8137.0,6939.0,510.0,-1456.0,544.0,-34.0,-54.0,-12.0,8995.0,10919.0,7056.0,4302.0,-20.0,32.0,-11.0,1.0
2022-05-03 16:50:11.889529-07:00,2173.8,589.9,1342.2,1585.2,1215.1,1273.0,1470.0,1636.0,3441.9,3440.7,1702.4,1408.5,1332.3,3451.6,1094.7,1564.6,3449.1,3444.3,727.4,1343.1,1003.0,593.9,1300.7,1850.8,3449.1,3449.1,771.1,889.0,1292.7,1559.9,1322.3,1186.7,325.0,106.0,147.0,6579.0,11244.0,7621.0,6374.0,549.0,-1335.0,825.0,-9.0,23.0,-156.0,8905.0,11021.0,7054.0,4231.0,399.0,-201.0,144.0,1.0
2022-05-03 16:50:11.892724-07:00,2152.4,592.3,1344.9,1589.9,1211.5,1270.3,1470.0,1642.6,3446.7,3444.3,1710.0,1412.2,1327.8,3450.4,1098.2,1573.0,3439.5,3438.2,727.4,1343.1,1000.5,593.9,1356.7,1845.9,3450.4,3449.1,766.2,908.4,1286.4,1555.3,1321.4,1186.7,-97.0,-72.0,-166.0,7009.0,11754.0,7071.0,5582.0,-452.0,-2748.0,-69.0,-43.0,-37.0,31.0,9219.0,10852.0,6881.0,4281.0,-1095.0,-174.0,-90.0,1.0
2022-05-03 16:50:11.979303-07:00,2152.4,590.7,1346.7,1589.9,1208.9,1270.3,1470.0,1642.6,3438.2,3440.7,1698.6,1412.2,1329.6,3450.4,1098.2,1573.0,3439.5,3438.2,727.4,1340.4,1000.5,602.0,1344.9,1852.8,3450.4,3449.1,766.2,915.2,1286.4,1554.3,1319.6,1187.6,222.0,-206.0,-173.0,7757.0,12165.0,6223.0,4640.0,-456.0,-3796.0,551.0,-50.0,-40.0,-157.0,9566.0,10624.0,6701.0,4375.0,-944.0,-389.0,-13.0,1.0
2022-05-03 16:50:12.009449-07:00,2152.4,590.7,1346.7,1586.1,1208.9,1263.1,1465.4,1648.3,3438.2,3440.7,1698.6,1413.1,1329.6,3445.5,1111.2,1574.9,3449.1,3440.7,728.2,1340.4,1009.9,602.0,1344.9,1852.8,3449.1,3447.9,770.3,915.2,1286.4,1554.3,1319.6,1187.6,271.0,16.0,135.0,8264.0,12568.0,5235.0,3843.0,-499.0,-2469.0,984.0,9.0,18.0,-142.0,9829.0,10560.0,6420.0,4370.0,-575.0,-685.0,282.0,1.0
2022-05-03 16:50:12.070011-07:00,2162.6,589.9,1345.8,1583.3,1212.4,1263.1,1465.4,1648.3,3449.1,3449.1,1702.4,1415.8,1322.3,3445.5,1111.2,1574.9,3449.1,3440.7,728.2,1340.4,1009.0,598.7,1344.9,1845.0,3449.1,3447.9,770.3,923.7,1287.3,1557.1,1323.2,1186.7,-25.0,87.0,124.0,8633.0,12622.0,4601.0,3664.0,-1071.0,-859.0,582.0,47.0,-43.0,101.0,10141.0,10446.0,6072.0,4430.0,-1087.0,-535.0,272.0,1.0
2022-05-03 16:50:12.099977-07:00,2162.6,589.9,1345.8,1583.3,1208.9,1265.8,1459.8,1635.0,3449.1,3449.1,1702.4,1415.8,1325.9,3449.1,1111.2,1567.4,3445.5,3447.9,726.6,1341.3,1009.0,598.7,1344.9,1845.0,3443.1,3452.8,782.7,932.2,1287.3,1557.1,1323.2,1186.7,35.0,4.0,130.0,9101.0,12480.0,4158.0,3546.0,-1124.0,-1015.0,153.0,1.0,-46.0,21.0,10478.0,10231.0,5779.0,4535.0,-983.0,-347.0,147.0,1.0
2022-05-03 16:50:12.129259-07:00,2124.0,593.1,1347.6,1590.8,1208.9,1265.8,1459.8,1635.0,3439.5,3445.5,1700.5,1413.1,1325.9,3449.1,1111.2,1567.4,3445.5,3447.9,726.6,1341.3,1009.0,597.9,1350.3,1846.9,3443.1,3452.8,782.7,932.2,1282.8,1554.3,1321.4,1185.0,-18.0,5.0,134.0,9408.0,12340.0,3942.0,3480.0,-618.0,-113.0,19.0,14.0,-25.0,81.0,10684.0,10084.0,5600.0,4610.0,-557.0,-140.0,112.0,1.0
2022-05-03 16:50:12.159339-07:00,2124.0,593.1,1347.6,1590.8,1209.7,1266.7,1458.0,1629.4,3439.5,3445.5,1700.5,1413.1,1332.3,3443.1,1106.9,1566.5,3447.9,3440.7,723.3,1339.5,1009.0,597.9,1350.3,1846.9,3446.7,3454.0,767.0,930.5,1282.8,1554.3,1321.4,1185.0,19.0,-1.0,74.0,9587.0,12197.0,3891.0,3550.0,-504.0,116.0,-17.0,16.0,-21.0,25.0,10801.0,9973.0,5505.0,4689.0,-403.0,-4.0,83.0,1.0
2022-05-03 16:50:12.219315-07:00,2115.9,594.7,1344.9,1591.7,1209.7,1266.7,1458.0,1629.4,3446.7,3454.0,1696.7,1412.2,1332.3,3443.1,1106.9,1566.5,3447.9,3440.7,723.3,1339.5,1002.2,595.5,1349.4,1845.9,3446.7,3454.0,767.0,930.5,1284.6,1543.1,1315.1,1191.2,-3.0,-4.0,-2.0,9676.0,12086.0,3926.0,3648.0,-217.0,233.0,-33.0,-6.0,-12.0,3.0,10851.0,9906.0,5478.0,4749.0,-116.0,62.0,25.0,1.0
2022-05-03 16:50:12.279237-07:00,2115.9,594.7,1344.9,1591.7,1208.9,1259.6,1452.5,1625.6,3446.7,3454.0,1696.7,1412.2,1327.8,3440.7,1113.9,1558.1,3440.7,3445.5,724.1,1341.3,1002.2,595.5,1349.4,1845.9,3447.9,3443.1,772.0,927.1,1284.6,1543.1,1315.1,1191.2,11.0,-10.0,-7.0,9721.0,12021.0,3958.0,3711.0,-214.0,122.0,-22.0,-6.0,-6.0,-18.0,10873.0,9868.0,5468.0,4789.0,-183.0,31.0,45.0,1.0
2022-05-03 16:50:12.309504-07:00,2114.9,595.5,1345.8,1590.8,1208.9,1259.6,1452.5,1621.8,3446.7,3443.1,1697.6,1410.3,1327.8,3440.7,1113.9,1572.1,3449.1,3445.5,724.1,1341.3,1003.9,595.5,1347.6,1859.6,3449.1,3443.1,772.0,927.1,1286.4,1550.6,1319.6,1187.6,14.0,-21.0,0.0,9772.0,11961.0,3962.0,3765.0,-86.0,63.0,39.0,-2.0,-14.0,-9.0,10895.0,9842.0,5448.0,4815.0,33.0,9.0,11.0,1.0
2022-05-03 16:50:12.399273-07:00,2093.7,595.5,1345.8,1590.8,1208.0,1261.3,1440.5,1621.8,3446.7,3443.1,1697.6,1410.3,1329.6,3444.3,1109.5,1572.1,3449.1,3443.1,723.3,1336.8,1003.9,595.5,1347.6,1844.0,3449.1,3447.9,771.1,931.3,1286.4,1550.6,1319.6,1184.1,16.0,18.0,13.0,9746.0,11972.0,3960.0,3802.0,-29.0,108.0,62.0,2.0,-5.0,8.0,10880.0,9858.0,5455.0,4809.0,-43.0,-8.0,22.0,1.0
2022-05-03 16:50:12.429203-07:00,2093.7,593.1,1350.3,1589.9,1208.0,1261.3,1440.5,1619.0,3446.7,3449.1,1702.4,1408.5,1329.6,3444.3,1109.5,1559.0,3454.0,3443.1,723.3,1336.8,1000.5,594.7,1343.1,1844.0,3445.5,3447.9,771.1,931.3,1284.6,1555.3,1315.1,1184.1,0.0,-13.0,10.0,9756.0,11952.0,3962.0,3834.0,60.0,-2.0,13.0,7.0,-18.0,13.0,10880.0,9857.0,5453.0,4813.0,105.0,22.0,-20.0,1.0
2022-05-03 16:50:12.459537-07:00,2096.7,593.1,1350.3,1589.9,1217.7,1264.9,1444.2,1619.0,3449.1,3449.1,1702.4,1408.5,1339.5,3445.5,1111.2,1559.0,3454.0,3433.4,723.3,1325.0,1000.5,594.7,1343.1,1845.9,3445.5,3444.3,776.1,924.5,1284.6,1555.3,1315.1,1191.2,12.0,-10.0,8.0,9712.0,11996.0,3955.0,3816.0,115.0,-38.0,44.0,1.0,-1.0,-11.0,10845.0,9890.0,5480.0,4794.0,84.0,10.0,0.0,1.0
2022-05-03 16:50:12.519402-07:00,2096.7,595.5,1344.0,1588.9,1217.7,1264.9,1444.2,1619.9,3449.1,3458.9,1701.4,1410.3,1339.5,3445.5,1111.2,1568.3,3441.9,3433.4,723.3,1325.0,1006.5,594.7,1341.3,1845.9,3443.1,3444.3,776.1,924.5,1285.5,1551.5,1322.3,1191.2,9.0,3.0,9.0,9693.0,12012.0,3941.0,3830.0,43.0,22.0,47.0,1.0,-8.0,-1.0,10828.0,9904.0,5487.0,4795.0,65.0,25.0,4.0,1.0
2022-05-03 16:50:12.579328-07:00,2090.6,595.5,1344.0,1588.9,1205.3,1258.7,1449.7,1619.9,3443.1,3458.9,1701.4,1410.3,1328.7,3441.9,1113.9,1568.3,3441.9,3445.5,721.6,1332.3,1006.5,594.7,1341.3,1850.8,3443.1,3454.0,773.6,922.8,1285.5,1551.5,1322.3,1192.0,12.0,5.0,11.0,9669.0,12025.0,3954.0,3837.0,39.0,46.0,-23.0,-1.0,-5.0,-6.0,10810.0,9915.0,5505.0,4794.0,11.0,26.0,-5.0,1.0
2022-05-03 16:50:12.639306-07:00,2090.6,592.3,1344.9,1589.9,1205.3,1258.7,1445.1,1623.7,3443.1,3449.1,1695.7,1414.9,1328.7,3441.9,1103.4,1567.4,3444.3,3438.2,721.6,1332.3,1003.0,591.5,1335.9,1850.8,3452.8,3445.5,773.6,922.8,1282.8,1552.5,1319.6,1192.0,11.0,-14.0,-4.0,9668.0,12014.0,3972.0,3854.0,16.0,31.0,8.0,0.0,-4.0,-16.0,10807.0,9912.0,5510.0,4799.0,30.0,20.0,1.0,1.0
2022-05-03 16:50:12.669409-07:00,2088.6,589.1,1344.9,1589.9,1206.2,1262.2,1445.1,1623.7,3446.7,3451.6,1695.7,1414.9,1323.2,3447.9,1103.4,1567.4,3444.3,3438.2,724.1,1336.8,1003.0,591.5,1338.6,1847.9,3452.8,3445.5,770.3,923.7,1282.8,1552.5,1328.7,1189.4,10.0,-1.0,-6.0,9662.0,12014.0,3979.0,3863.0,-10.0,-3.0,-5.0,1.0,-8.0,-6.0,10805.0,9912.0,5513.0,4801.0,-21.0,-5.0,-2.0,1.0
2022-05-03 16:50:12.789306-07:00,2088.6,589.1,1344.9,1584.2,1206.2,1262.2,1440.5,1606.8,3446.7,3451.6,1698.6,1410.3,1323.2,3447.9,1107.8,1562.7,3439.5,3447.9,724.1,1336.8,1003.9,594.7,1338.6,1847.9,3441.9,3447.9,770.3,923.7,1282.8,1559.0,1328.7,1189.4,6.0,0.0,8.0,9664.0,12014.0,3975.0,3862.0,7.0,-4.0,3.0,3.0,-14.0,0.0,10807.0,9910.0,5512.0,4801.0,1.0,-3.0,1.0,1.0
2022-05-03 16:50:12.791029-07:00,2084.6,593.1,1344.9,1584.2,1213.3,1256.0,1440.5,1606.8,3447.9,3447.9,1698.6,1410.3,1326.8,3441.9,1107.8,1562.7,3439.5,3447.9,724.9,1333.2,1003.9,594.7,1335.0,1845.0,3441.9,3447.9,764.5,925.4,1282.8,1559.0,1316.9,1182.3,12.0,-6.0,11.0,9665.0,12015.0,3971.0,3859.0,-7.0,-17.0,4.0,2.0,-13.0,0.0,10807.0,9911.0,5512.0,4801.0,-3.0,-3.0,-2.0,1.0
2022-05-03 16:50:12.819365-07:00,2084.6,593.1,1355.8,1586.1,1213.3,1256.0,1437.8,1615.2,3447.9,3447.9,1700.5,1412.2,1326.8,3441.9,1106.0,1564.6,3443.1,3445.5,724.9,1333.2,999.6,598.7,1335.0,1845.0,3443.1,3449.1,764.5,925.4,1287.3,1558.1,1316.9,1182.3,2.0,-5.0,12.0,9665.0,12014.0,3971.0,3862.0,16.0,4.0,4.0,0.0,-16.0,3.0,10805.0,9911.0,5514.0,4802.0,12.0,15.0,-3.0,1.0
2022-05-03 16:50:12.910048-07:00,2089.6,593.9,1344.9,1586.1,1209.7,1265.8,1437.8,1615.2,3447.9,3451.6,1693.8,1412.2,1325.9,3444.3,1106.0,1564.6,3443.1,3445.5,721.6,1329.6,999.6,593.9,1337.7,1845.0,3443.1,3449.1,767.0,926.2,1287.3,1551.5,1321.4,1189.4,9.0,-4.0,4.0,9657.0,12021.0,3970.0,3863.0,30.0,5.0,19.0,-2.0,-10.0,-11.0,10798.0,9917.0,5518.0,4800.0,24.0,5.0,2.0,1.0
2022-05-03 16:50:12.911262-07:00,2089.6,593.9,1344.9,1593.6,1209.7,1260.4,1436.9,1617.1,3447.9,3451.6,1693.8,1407.6,1325.9,3450.4,1112.1,1571.1,3451.6,3445.5,721.6,1329.6,1000.5,593.9,1337.7,1845.0,3449.1,3449.1,772.0,926.2,1285.5,1551.5,1321.4,1189.4,1.0,-3.0,-4.0,9648.0,12027.0,3973.0,3865.0,16.0,-17.0,-5.0,0.0,-12.0,4.0,10796.0,9919.0,5520.0,4797.0,3.0,-6.0,-11.0,1.0
2022-05-03 16:50:12.969596-07:00,2084.6,589.1,1343.1,1593.6,1205.3,1260.4,1436.9,1617.1,3443.1,3449.1,1695.7,1407.6,1327.8,3450.4,1112.1,1571.1,3451.6,3445.5,721.6,1330.5,1000.5,593.9,1336.8,1843.0,3449.1,3449.1,772.0,922.0,1285.5,1551.5,1327.8,1188.5,5.0,-7.0,8.0,9644.0,12039.0,3956.0,3851.0,23.0,-53.0,34.0,-5.0,-10.0,-5.0,10793.0,9925.0,5520.0,4791.0,26.0,-17.0,-1.0,1.0
2022-05-03 16:50:13.029255-07:00,2084.6,589.1,1343.1,1585.2,1205.3,1256.0,1442.4,1613.4,3443.1,3449.1,1695.7,1406.7,1327.8,3440.7,1109.5,1569.3,3446.7,3439.5,720.0,1330.5,996.2,593.9,1336.8,1843.0,3449.1,3446.7,772.0,922.0,1281.9,1551.5,1327.8,1188.5,-1.0,5.0,16.0,9653.0,12034.0,3947.0,3858.0,-40.0,15.0,-8.0,-1.0,-6.0,8.0,10797.0,9925.0,5514.0,4792.0,-27.0,-9.0,6.0,1.0
2022-05-03 16:50:13.089734-07:00,2071.5,587.5,1344.9,1585.2,1208.9,1256.0,1442.4,1613.4,3443.1,3446.7,1699.5,1406.7,1324.1,3440.7,1109.5,1569.3,3446.7,3439.5,720.0,1332.3,996.2,594.7,1329.6,1843.0,3449.1,3446.7,772.0,922.0,1281.9,1557.1,1324.1,1192.9,13.0,1.0,15.0,9652.0,12031.0,3950.0,3863.0,15.0,45.0,0.0,2.0,-2.0,-1.0,10794.0,9927.0,5516.0,4791.0,25.0,10.0,-2.0,1.0
2022-05-03 16:50:13.179263-07:00,2071.5,587.5,1344.9,1588.0,1208.9,1256.0,1433.2,1611.5,3443.1,3446.7,1699.5,1415.8,1324.1,3443.1,1103.4,1564.6,3438.2,3443.1,716.7,1332.3,1003.0,594.7,1329.6,1843.0,3454.0,3444.3,764.5,922.0,1290.0,1557.1,1324.1,1192.9,9.0,-3.0,9.0,9648.0,12024.0,3962.0,3883.0,-14.0,59.0,-4.0,5.0,-4.0,-2.0,10791.0,9926.0,5520.0,4794.0,-5.0,17.0,3.0,1.0
2022-05-03 16:50:13.180571-07:00,2076.5,595.5,1347.6,1586.1,1199.1,1256.0,1433.2,1611.5,3444.3,3444.3,1703.3,1405.8,1325.9,3443.1,1103.4,1564.6,3438.2,3443.1,716.7,1327.8,996.2,594.7,1335.0,1845.9,3454.0,3444.3,764.5,926.2,1281.0,1549.7,1319.6,1185.0,8.0,-9.0,9.0,9639.0,12024.0,3970.0,3897.0,21.0,30.0,15.0,5.0,-8.0,-2.0,10785.0,9930.0,5525.0,4795.0,26.0,11.0,1.0,1.0
2022-05-03 16:50:13.209421-07:00,2076.5,595.5,1347.6,1586.1,1204.4,1262.2,1438.7,1610.5,3444.3,3444.3,1703.3,1405.8,1327.8,3446.7,1112.1,1562.7,3433.4,3446.7,724.9,1332.3,996.2,594.7,1335.0,1845.9,3445.5,3438.2,766.2,917.7,1281.0,1549.7,1319.6,1185.0,2.0,3.0,8.0,9628.0,12024.0,3982.0,3911.0,28.0,58.0,-6.0,-3.0,-9.0,1.0,10777.0,9935.0,5532.0,4795.0,22.0,12.0,-6.0,1.0
2022-05-03 16:50:13.269917-07:00,2077.5,593.9,1344.0,1590.8,1204.4,1262.2,1438.7,1610.5,3449.1,3458.9,1690.0,1410.3,1327.8,3446.7,1112.1,1562.7,3433.4,3446.7,724.9,1332.3,1002.2,591.5,1333.2,1845.0,3445.5,3438.2,766.2,917.7,1286.4,1548.7,1321.4,1181.5,1.0,-17.0,-2.0,9619.0,12028.0,3993.0,3912.0,32.0,-22.0,5.0,-2.0,-13.0,-3.0,10771.0,9937.0,5541.0,4793.0,18.0,11.0,-10.0,1.0
2022-05-03 16:50:13.359291-07:00,2077.5,593.9,1344.0,1590.8,1202.7,1252.4,1442.4,1616.2,3449.1,3458.9,1690.0,1410.3,1328.7,3435.8,1100.8,1566.5,3449.1,3444.3,724.9,1330.5,1002.2,591.5,1333.2,1845.0,3440.7,3443.1,781.1,922.0,1286.4,1548.7,1321.4,1181.5,5.0,12.0,6.0,9601.0,12045.0,3990.0,3904.0,43.0,0.0,0.0,-2.0,-3.0,-6.0,10760.0,9948.0,5548.0,4787.0,39.0,6.0,-9.0,1.0
2022-05-03 16:50:13.389802-07:00,2072.5,589.1,1348.5,1585.2,1202.7,1252.4,1442.4,1616.2,3443.1,3441.9,1699.5,1411.3,1328.7,3435.8,1100.8,1566.5,3449.1,3444.3,724.9,1330.5,998.7,593.9,1330.5,1847.9,3440.7,3443.1,781.1,922.0,1290.9,1555.3,1316.9,1187.6,0.0,-7.0,10.0,9600.0,12046.0,3996.0,3899.0,-10.0,-12.0,-15.0,3.0,-11.0,8.0,10758.0,9949.0,5550.0,4785.0,-1.0,1.0,-9.0,1.0
2022-05-03 16:50:13.419276-07:00,2079.5,589.1,1348.5,1585.2,1207.1,1258.7,1439.6,1598.3,3438.2,3441.9,1699.5,1411.3,1324.1,3443.1,1104.3,1565.5,3438.2,3439.5,719.2,1330.5,998.7,593.9,1330.5,1847.9,3447.9,3454.0,769.5,918.6,1290.9,1555.3,1316.9,1177.9,10.0,13.0,21.0,9599.0,12047.0,3995.0,3902.0,7.0,64.0,4.0,-2.0,3.0,-7.0,10755.0,9953.0,5552.0,4784.0,24.0,12.0,0.0,1.0
2022-05-03 16:50:13.539496-07:00,2079.5,589.1,1342.2,1584.2,1207.1,1258.7,1439.6,1612.4,3438.2,3450.4,1705.3,1419.5,1324.1,3443.1,1104.3,1565.5,3440.7,3439.5,719.2,1330.5,991.0,595.5,1337.7,1847.9,3451.6,3454.0,769.5,918.6,1281.0,1551.5,1322.3,1177.9,-6.0,-6.0,8.0,9595.0,12034.0,4018.0,3926.0,11.0,59.0,-25.0,0.0,-14.0,9.0,10752.0,9950.0,5559.0,4790.0,8.0,30.0,-5.0,1.0
2022-05-03 16:50:13.540935-07:00,2075.5,589.1,1342.2,1584.2,1210.6,1255.1,1439.6,1612.4,3447.9,3450.4,1705.3,1419.5,1324.1,3449.1,1108.6,1565.5,3440.7,3440.7,718.4,1326.8,991.0,595.5,1337.7,1848.9,3451.6,3443.1,766.2,922.0,1281.0,1551.5,1322.3,1189.4,2.0,-11.0,-9.0,9581.0,12041.0,4028.0,3931.0,54.0,0.0,40.0,-6.0,-11.0,-8.0,10739.0,9957.0,5570.0,4791.0,51.0,18.0,3.0,1.0
2022-05-03 16:50:13.569108-07:00,2075.5,595.5,1344.0,1587.1,1210.6,1255.1,1439.6,1604.0,3447.9,3445.5,1699.5,1412.2,1324.1,3449.1,1108.6,1561.8,3449.1,3440.7,718.4,1326.8,1001.3,593.1,1320.5,1848.9,3449.1,3443.1,766.2,922.0,1289.1,1553.4,1316.9,1189.4,3.0,1.0,-9.0,9562.0,12060.0,4015.0,3931.0,33.0,-52.0,35.0,-2.0,-6.0,-9.0,10726.0,9968.0,5578.0,4787.0,35.0,1.0,1.0,1.0
2022-05-03 16:50:13.629859-07:00,2078.5,595.5,1344.0,1587.1,1207.1,1260.4,1429.5,1604.0,3449.1,3445.5,1699.5,1412.2,1325.9,3446.7,1110.4,1561.8,3449.1,3443.1,718.4,1331.4,1001.3,593.1,1320.5,1846.9,3449.1,3446.7,768.7,922.0,1289.1,1553.4,1316.9,1188.5,3.0,0.0,0.0,9558.0,12073.0,3994.0,3920.0,-11.0,-46.0,12.0,-3.0,-4.0,-7.0,10724.0,9973.0,5577.0,4783.0,-10.0,-15.0,5.0,1.0
2022-05-03 16:50:13.659054-07:00,2078.5,592.3,1340.4,1577.7,1207.1,1260.4,1429.5,1603.0,3449.1,3443.1,1695.7,1405.8,1325.9,3446.7,1110.4,1561.8,3449.1,3443.1,718.4,1331.4,997.9,595.5,1333.2,1846.9,3443.1,3446.7,768.7,922.0,1289.1,1554.3,1317.8,1188.5,3.0,-5.0,14.0,9569.0,12068.0,3988.0,3917.0,-24.0,-2.0,-15.0,0.0,-14.0,8.0,10733.0,9968.0,5569.0,4782.0,-30.0,-14.0,4.0,1.0
2022-05-03 16:50:13.749807-07:00,2080.6,589.9,1340.4,1577.7,1200.0,1256.0,1439.6,1603.0,3446.7,3449.1,1695.7,1405.8,1325.9,3445.5,1100.8,1561.8,3449.1,3438.2,720.8,1333.2,997.9,595.5,1328.7,1863.5,3443.1,3447.9,763.7,919.4,1289.1,1554.3,1322.3,1189.4,9.0,-2.0,24.0,9576.0,12056.0,3992.0,3930.0,-20.0,90.0,1.0,4.0,-10.0,-1.0,10736.0,9964.0,5566.0,4786.0,-16.0,4.0,11.0,1.0
2022-05-03 16:50:13.809989-07:00,2080.6,589.9,1343.1,1583.3,1200.0,1256.0,1433.2,1597.4,3446.7,3449.1,1694.8,1410.3,1325.9,3445.5,1106.9,1562.7,3444.3,3449.1,720.8,1333.2,997.9,594.7,1328.7,1863.5,3447.9,3446.7,763.7,919.4,1290.0,1554.3,1322.3,1189.4,4.0,-7.0,10.0,9568.0,12044.0,4016.0,3965.0,30.0,87.0,-12.0,9.0,-14.0,10.0,10731.0,9963.0,5572.0,4793.0,22.0,36.0,-1.0,1.0
2022-05-03 16:50:13.811428-07:00,2079.5,587.5,1343.1,1583.3,1205.3,1257.8,1433.2,1597.4,3438.2,3445.5,1694.8,1410.3,1328.7,3449.1,1106.9,1562.7,3444.3,3449.1,722.5,1328.7,997.9,594.7,1325.0,1848.9,3447.9,3446.7,772.0,931.3,1290.0,1554.3,1318.7,1201.8,6.0,-11.0,-8.0,9551.0,12049.0,4030.0,3973.0,44.0,5.0,11.0,0.0,-12.0,-15.0,10719.0,9967.0,5584.0,4796.0,37.0,19.0,-3.0,1.0
2022-05-03 16:50:13.869206-07:00,2079.5,587.5,1341.3,1585.2,1205.3,1257.8,1431.4,1611.5,3438.2,3445.5,1699.5,1419.5,1328.7,3449.1,1100.8,1562.7,3439.5,3444.3,722.5,1328.7,997.0,591.5,1325.0,1848.9,3451.6,3445.5,772.0,931.3,1279.2,1547.8,1318.7,1201.8,-1.0,2.0,-14.0,9535.0,12062.0,4030.0,3974.0,15.0,9.0,1.0,-1.0,-7.0,-4.0,10711.0,9974.0,5590.0,4794.0,2.0,6.0,-3.0,1.0
2022-05-03 16:50:13.929367-07:00,2058.4,588.3,1341.3,1585.2,1207.1,1252.4,1431.4,1611.5,3446.7,3444.3,1699.5,1419.5,1326.8,3449.1,1100.8,1562.7,3439.5,3444.3,715.1,1327.8,997.0,591.5,1322.3,1843.0,3451.6,3445.5,764.5,916.0,1279.2,1547.8,1317.8,1189.4,0.0,-11.0,0.0,9538.0,12065.0,4024.0,3962.0,-1.0,-50.0,2.0,-7.0,-11.0,-4.0,10714.0,9973.0,5587.0,4794.0,-3.0,-15.0,-6.0,1.0
2022-05-03 16:50:13.959506-07:00,2058.4,588.3,1344.0,1585.2,1207.1,1252.4,1437.8,1612.4,3446.7,3444.3,1695.7,1406.7,1326.8,3440.7,1097.3,1559.0,3445.5,3435.8,720.0,1327.8,995.3,594.7,1322.3,1843.0,3451.6,3451.6,767.8,916.0,1284.6,1550.6,1317.8,1189.4,-6.0,-1.0,11.0,9542.0,12066.0,4015.0,3959.0,-10.0,7.0,9.0,-1.0,-11.0,10.0,10717.0,9971.0,5584.0,4793.0,-11.0,-4.0,5.0,1.0
2022-05-03 16:50:14.019273-07:00,2071.5,585.9,1344.0,1585.2,1207.1,1252.4,1437.8,1612.4,3449.1,3443.1,1698.6,1406.7,1326.8,3440.7,1097.3,1559.0,3445.5,3435.8,720.0,1331.4,995.3,595.5,1324.1,1845.0,3451.6,3451.6,767.8,919.4,1284.6,1558.1,1315.1,1187.6,3.0,-4.0,14.0,9539.0,12068.0,4016.0,3958.0,18.0,8.0,-2.0,-1.0,-8.0,0.0,10713.0,9974.0,5587.0,4793.0,15.0,12.0,0.0,1.0
2022-05-03 16:50:14.199399-07:00,2071.5,585.9,1344.0,1590.8,1207.1,1255.1,1434.1,1605.8,3449.1,3443.1,1698.6,1409.4,1326.8,3440.7,1108.6,1564.6,3440.7,3441.9,717.5,1331.4,986.7,595.5,1324.1,1845.0,3451.6,3458.9,764.5,919.4,1283.7,1558.1,1315.1,1187.6,5.0,0.0,11.0,9536.0,12065.0,4021.0,3972.0,1.0,44.0,12.0,4.0,-13.0,-3.0,10708.0,9974.0,5590.0,4801.0,13.0,21.0,12.0,1.0
2022-05-03 16:50:14.200848-07:00,2060.5,588.3,1342.2,1590.8,1208.0,1255.1,1434.1,1605.8,3440.7,3444.3,1699.5,1409.4,1332.3,3440.7,1108.6,1564.6,3440.7,3441.9,717.5,1332.3,986.7,591.5,1325.0,1844.0,3451.6,3458.9,764.5,920.3,1283.7,1549.7,1316.9,1185.0,8.0,-7.0,-4.0,9526.0,12067.0,4031.0,3979.0,22.0,11.0,-1.0,0.0,-10.0,-11.0,10699.0,9977.0,5599.0,4804.0,20.0,17.0,-5.0,1.0
2022-05-03 16:50:14.201946-07:00,2060.5,588.3,1342.2,1587.1,1208.0,1254.2,1437.8,1604.0,3440.7,3444.3,1699.5,1405.8,1332.3,3440.7,1097.3,1562.7,3438.2,3445.5,718.4,1332.3,996.2,591.5,1325.0,1844.0,3440.7,3451.6,760.4,920.3,1295.4,1549.7,1316.9,1185.0,-6.0,-2.0,-4.0,9522.0,12070.0,4029.0,3981.0,14.0,0.0,13.0,-8.0,-8.0,-2.0,10697.0,9978.0,5600.0,4804.0,11.0,-1.0,2.0,1.0
2022-05-03 16:50:14.203186-07:00,2071.5,594.7,1342.2,1587.1,1204.4,1254.2,1437.8,1604.0,3449.1,3441.9,1695.7,1405.8,1325.9,3440.7,1097.3,1562.7,3438.2,3445.5,718.4,1325.0,996.2,597.1,1321.4,1846.9,3440.7,3451.6,760.4,911.8,1295.4,1556.2,1323.2,1185.0,1.0,-4.0,5.0,9517.0,12078.0,4022.0,3976.0,13.0,-16.0,14.0,-5.0,-8.0,-5.0,10693.0,9984.0,5602.0,4801.0,10.0,-10.0,5.0,1.0
2022-05-03 16:50:14.259368-07:00,2071.5,594.7,1342.2,1587.1,1206.2,1254.2,1432.3,1622.8,3449.1,3441.9,1695.7,1409.4,1320.5,3446.7,1106.9,1564.6,3438.2,3437.0,716.7,1328.7,1001.3,597.1,1321.4,1846.9,3468.6,3454.0,763.7,909.3,1285.5,1556.2,1323.2,1185.0,-1.0,0.0,4.0,9510.0,12086.0,4014.0,3978.0,35.0,-5.0,26.0,0.0,-9.0,0.0,10687.0,9989.0,5605.0,4797.0,31.0,-1.0,5.0,1.0
2022-05-03 16:50:14.319302-07:00,2064.5,593.9,1346.7,1581.4,1206.2,1254.2,1432.3,1622.8,3449.1,3450.4,1698.6,1407.6,1320.5,3446.7,1106.9,1564.6,3438.2,3437.0,716.7,1328.7,993.6,593.1,1319.6,1863.5,3468.6,3454.0,763.7,909.3,1287.3,1552.5,1316.9,1189.4,2.0,-8.0,1.0,9506.0,12090.0,4006.0,3979.0,-10.0,-12.0,16.0,-2.0,-11.0,-3.0,10686.0,9992.0,5605.0,4796.0,-5.0,-7.0,10.0,1.0
2022-05-03 16:50:14.349241-07:00,2064.5,593.9,1346.7,1581.4,1204.4,1258.7,1426.8,1599.3,3449.1,3450.4,1698.6,1407.6,1318.7,3441.9,1102.5,1557.1,3443.1,3450.4,722.5,1318.7,993.6,593.1,1319.6,1863.5,3443.1,3445.5,768.7,911.0,1287.3,1552.5,1316.9,1189.4,7.0,-1.0,-3.0,9505.0,12093.0,3998.0,3982.0,0.0,-12.0,19.0,3.0,-12.0,-6.0,10685.0,9993.0,5603.0,4798.0,-9.0,-8.0,11.0,1.0
2022-05-03 16:50:14.409423-07:00,2063.5,590.7,1342.2,1587.1,1204.4,1258.7,1426.8,1599.3,3434.6,3440.7,1694.8,1409.4,1318.7,3441.9,1102.5,1557.1,3443.1,3450.4,722.5,1318.7,992.7,582.6,1315.1,1840.1,3443.1,3445.5,768.7,911.0,1280.1,1546.9,1315.1,1181.5,8.0,2.0,6.0,9506.0,12097.0,3988.0,3980.0,3.0,-19.0,12.0,1.0,-6.0,-7.0,10688.0,9990.0,5600.0,4800.0,-9.0,-1.0,0.0,1.0
2022-05-03 16:50:14.499328-07:00,2063.5,590.7,1342.2,1587.1,1202.7,1251.5,1427.7,1603.0,3434.6,3440.7,1694.8,1409.4,1325.0,3449.1,1102.5,1558.1,3439.5,3444.3,720.0,1332.3,992.7,582.6,1315.1,1840.1,3449.1,3445.5,734.8,913.5,1280.1,1546.9,1315.1,1181.5,7.0,-4.0,17.0,9511.0,12095.0,3987.0,3974.0,-12.0,2.0,-22.0,1.0,-8.0,-3.0,10692.0,9986.0,5599.0,4802.0,-24.0,3.0,-4.0,1.0
2022-05-03 16:50:14.529860-07:00,2066.5,589.9,1343.1,1583.3,1202.7,1251.5,1427.7,1601.1,3449.1,3446.7,1699.5,1400.3,1325.0,3449.1,1102.5,1559.0,3447.9,3444.3,720.0,1332.3,997.9,596.3,1324.1,1845.0,3449.1,3445.5,734.8,913.5,1287.3,1549.7,1327.8,1186.7,2.0,-6.0,18.0,9514.0,12088.0,3995.0,3979.0,10.0,27.0,-8.0,-1.0,-13.0,4.0,10695.0,9980.0,5599.0,4806.0,2.0,21.0,1.0,1.0
2022-05-03 16:50:14.559563-07:00,2054.4,589.9,1343.1,1583.3,1201.8,1249.7,1428.6,1601.1,3451.6,3446.7,1699.5,1400.3,1321.4,3441.9,1105.1,1559.0,3447.9,3446.7,723.3,1325.0,997.9,596.3,1324.1,1849.8,3449.1,3446.7,765.3,910.1,1287.3,1549.7,1327.8,1185.0,56.0,18.0,27.0,9504.0,12086.0,4011.0,3994.0,33.0,77.0,-18.0,-6.0,-3.0,-29.0,10691.0,9979.0,5605.0,4811.0,15.0,15.0,5.0,1.0
2022-05-03 16:50:14.619800-07:00,2054.4,586.7,1346.7,1585.2,1201.8,1249.7,1428.6,1598.3,3451.6,3447.9,1692.9,1412.2,1321.4,3441.9,1105.1,1569.3,3439.5,3446.7,723.3,1325.0,998.7,592.3,1322.3,1849.8,3451.6,3446.7,765.3,910.1,1283.7,1550.6,1317.8,1185.0,189.0,37.0,88.0,9414.0,12017.0,4265.0,4149.0,251.0,1347.0,-433.0,-13.0,7.0,-179.0,10677.0,9995.0,5617.0,4795.0,337.0,-41.0,-81.0,1.0
2022-05-03 16:50:14.649587-07:00,2070.5,586.7,1346.7,1585.2,1205.3,1258.7,1434.1,1598.3,3449.1,3447.9,1692.9,1412.2,1325.0,3446.7,1102.5,1569.3,3439.5,3446.7,719.2,1329.6,998.7,592.3,1322.3,1841.1,3451.6,3445.5,759.6,912.7,1283.7,1550.6,1317.8,1185.9,29.0,79.0,224.0,8995.0,11702.0,5275.0,4770.0,440.0,3597.0,-1043.0,28.0,-2.0,176.0,10554.0,10121.0,5716.0,4684.0,458.0,252.0,-134.0,1.0
2022-05-03 16:50:14.799990-07:00,2070.5,589.9,1340.4,1588.0,1205.3,1258.7,1434.1,1594.6,3449.1,3446.7,1699.5,1414.9,1325.0,3446.7,1102.5,1562.7,3444.3,3446.7,719.2,1329.6,997.0,592.3,1365.7,1841.1,3451.6,3445.5,759.6,912.7,1290.9,1554.3,1315.1,1185.9,-165.0,-22.0,-1.0,8503.0,11115.0,6491.0,5521.0,429.0,3444.0,-1174.0,49.0,-26.0,259.0,10380.0,10171.0,5951.0,4671.0,696.0,657.0,-313.0,1.0
2022-05-03 16:50:14.859530-07:00,2079.5,589.9,1340.4,1588.0,1200.0,1272.1,1436.0,1594.6,3445.5,3446.7,1699.5,1414.9,1324.1,3449.1,1097.3,1562.7,3444.3,3449.1,726.6,1329.6,997.0,592.3,1365.7,1849.8,3451.6,3439.5,751.3,910.1,1290.9,1554.3,1315.1,1182.3,-5.0,-111.0,-124.0,8093.0,10682.0,7299.0,5964.0,261.0,1855.0,-594.0,-21.0,-46.0,-85.0,10135.0,10221.0,6285.0,4664.0,536.0,580.0,-191.0,1.0
2022-05-03 16:50:14.862083-07:00,2079.5,589.1,1334.1,1589.9,1200.0,1272.1,1448.8,1623.7,3445.5,3451.6,1704.3,1400.3,1324.1,3449.1,1101.7,1568.3,3446.7,3444.3,726.6,1329.6,995.3,591.5,1343.1,1849.8,3449.1,3449.1,751.3,910.1,1290.9,1546.9,1317.8,1182.3,161.0,-49.0,-82.0,7680.0,10307.0,7885.0,6406.0,331.0,2261.0,-347.0,-28.0,2.0,-125.0,9892.0,10304.0,6535.0,4659.0,889.0,426.0,-113.0,1.0
2022-05-03 16:50:14.863058-07:00,2201.4,591.5,1334.1,1589.9,1203.5,1268.5,1448.8,1623.7,3444.3,3449.1,1704.3,1400.3,1331.4,3449.1,1101.7,1568.3,3446.7,3444.3,722.5,1335.0,995.3,591.5,1330.5,1849.8,3449.1,3449.1,764.5,903.4,1290.9,1546.9,1322.3,1185.9,-94.0,40.0,-170.0,7114.0,9841.0,8609.0,6845.0,533.0,2266.0,-776.0,34.0,52.0,60.0,9623.0,10434.0,6777.0,4588.0,486.0,384.0,-225.0,1.0
2022-05-03 16:50:14.919344-07:00,2201.4,591.5,1344.0,1588.0,1203.5,1268.5,1451.6,1626.5,3444.3,3449.1,1703.3,1414.0,1331.4,3449.1,1112.1,1569.3,3444.3,3441.9,722.5,1335.0,1010.8,593.1,1330.5,1849.8,3452.8,3446.7,764.5,903.4,1283.7,1554.3,1322.3,1185.9,8.0,-81.0,-118.0,6884.0,9445.0,9119.0,6978.0,102.0,1019.0,-812.0,-31.0,-53.0,-30.0,9551.0,10402.0,6930.0,4582.0,-80.0,180.0,-154.0,1.0
2022-05-03 16:50:14.949338-07:00,2267.2,590.7,1344.0,1588.0,1203.5,1274.7,1451.6,1626.5,3447.9,3443.1,1703.3,1414.0,1322.3,3445.5,1112.1,1569.3,3444.3,3441.9,726.6,1363.0,1010.8,593.1,1332.3,1847.9,3452.8,3446.7,800.2,900.0,1283.7,1554.3,1341.3,1185.9,83.0,-118.0,-33.0,6782.0,9302.0,9315.0,7010.0,82.0,325.0,57.0,-17.0,-61.0,-52.0,9524.0,10383.0,6994.0,4582.0,259.0,42.0,29.0,1.0
2022-05-03 16:50:15.009464-07:00,2267.2,590.7,1356.7,1587.1,1203.5,1274.7,1442.4,1614.3,3447.9,3443.1,1708.1,1414.0,1322.3,3445.5,1104.3,1575.8,3449.1,3444.3,726.6,1363.0,1011.6,596.3,1332.3,1847.9,3449.1,3446.7,800.2,900.0,1285.5,1550.6,1341.3,1185.9,33.0,0.0,1.0,6629.0,9381.0,9268.0,7113.0,82.0,140.0,555.0,0.0,-1.0,-5.0,9403.0,10491.0,7028.0,4537.0,448.0,24.0,118.0,1.0
2022-05-03 16:50:15.069923-07:00,2260.0,592.3,1357.6,1587.1,1207.1,1271.2,1442.4,1614.3,3438.2,3450.4,1710.0,1414.0,1333.2,3449.1,1104.3,1575.8,3449.1,3444.3,728.2,1374.8,1011.6,598.7,1322.3,1850.8,3449.1,3446.7,800.2,897.4,1285.5,1563.7,1337.7,1185.0,-30.0,88.0,-2.0,6472.0,9464.0,9222.0,7206.0,137.0,220.0,238.0,12.0,28.0,26.0,9272.0,10601.0,7061.0,4497.0,221.0,76.0,18.0,1.0
2022-05-03 16:50:15.129304-07:00,2260.0,592.3,1357.6,1592.7,1207.1,1271.2,1435.0,1592.7,3438.2,3450.4,1710.0,1414.0,1333.2,3454.0,1106.9,1566.5,3441.9,3449.1,724.1,1374.8,1015.1,598.7,1322.3,1850.8,3455.2,3451.6,800.2,897.4,1288.2,1563.7,1337.7,1185.0,19.0,34.0,-13.0,6435.0,9404.0,9293.0,7228.0,-39.0,155.0,-274.0,4.0,6.0,-10.0,9252.0,10595.0,7089.0,4509.0,-147.0,73.0,-68.0,1.0
2022-05-03 16:50:15.339220-07:00,2255.9,589.9,1357.6,1592.7,1200.9,1271.2,1435.0,1592.7,3444.3,3446.7,1711.9,1414.0,1325.0,3454.0,1106.9,1566.5,3441.9,3449.1,724.1,1371.2,1015.1,598.7,1322.3,1842.0,3455.2,3451.6,800.2,891.5,1288.2,1563.7,1339.5,1186.7,33.0,-56.0,-22.0,6472.0,9311.0,9355.0,7235.0,-50.0,52.0,-135.0,-4.0,-27.0,-26.0,9286.0,10544.0,7104.0,4534.0,-40.0,17.0,-34.0,1.0
2022-05-03 16:50:15.459228-07:00,2255.9,589.9,1357.6,1587.1,1200.9,1267.6,1440.5,1589.9,3444.3,3446.7,1711.9,1411.3,1325.0,3445.5,1105.1,1570.2,3443.1,3443.1,729.0,1371.2,1012.5,598.7,1322.3,1842.0,3451.6,3449.1,798.5,891.5,1281.0,1563.7,1339.5,1186.7,55.0,-54.0,-14.0,6462.0,9327.0,9330.0,7255.0,6.0,45.0,187.0,0.0,-20.0,-27.0,9269.0,10559.0,7115.0,4518.0,183.0,-10.0,34.0,1.0
2022-05-03 16:50:15.461560-07:00,2257.9,596.3,1356.7,1587.1,1197.4,1267.6,1440.5,1589.9,3446.7,3443.1,1711.0,1411.3,1323.2,3445.5,1105.1,1570.2,3443.1,3443.1,729.0,1375.7,1012.5,593.1,1320.5,1842.0,3451.6,3449.1,798.5,889.8,1281.0,1560.9,1330.5,1180.6,25.0,36.0,-19.0,6425.0,9388.0,9284.0,7268.0,7.0,-86.0,97.0,3.0,1.0,-14.0,9228.0,10603.0,7117.0,4494.0,-13.0,-63.0,25.0,1.0
2022-05-03 16:50:15.489195-07:00,2257.9,596.3,1356.7,1589.9,1197.4,1269.4,1435.0,1593.6,3446.7,3443.1,1711.0,1414.0,1323.2,3449.1,1106.9,1569.3,3438.2,3435.8,725.8,1375.7,1017.6,593.1,1320.5,1842.0,3438.2,3449.1,800.2,889.8,1283.7,1560.9,1330.5,1180.6,-4.0,11.0,-15.0,6472.0,9389.0,9280.0,7231.0,-44.0,-159.0,-165.0,-4.0,-25.0,7.0,9269.0,10587.0,7088.0,4493.0,-215.0,-77.0,-19.0,1.0
2022-05-03 16:50:15.490556-07:00,2259.0,590.7,1359.4,1585.2,1201.8,1269.4,1435.0,1593.6,3451.6,3454.0,1715.8,1419.5,1335.0,3449.1,1106.9,1569.3,3438.2,3435.8,725.8,1370.3,1015.9,594.7,1308.8,1845.9,3438.2,3449.1,800.2,893.2,1285.5,1560.9,1331.4,1191.2,-11.0,-41.0,2.0,6543.0,9354.0,9304.0,7182.0,-23.0,-47.0,-148.0,-1.0,-16.0,16.0,9337.0,10542.0,7055.0,4510.0,-99.0,-29.0,-14.0,1.0
2022-05-03 16:50:15.549896-07:00,2259.0,590.7,1359.4,1585.2,1203.5,1263.1,1429.5,1589.9,3451.6,3454.0,1715.8,1419.5,1325.0,3446.7,1097.3,1567.4,3438.2,3438.2,720.8,1370.3,1015.9,594.7,1308.8,1845.9,3449.1,3445.5,799.4,888.2,1285.5,1560.9,1331.4,1191.2,7.0,-39.0,10.0,6561.0,9352.0,9300.0,7172.0,-22.0,-13.0,67.0,6.0,-21.0,7.0,9351.0,10533.0,7048.0,4513.0,68.0,9.0,15.0,1.0
2022-05-03 16:50:15.551429-07:00,2249.7,592.3,1369.4,1591.7,1203.5,1263.1,1429.5,1589.9,3444.3,3451.6,1716.7,1417.6,1325.0,3446.7,1097.3,1567.4,3438.2,3438.2,720.8,1370.3,1018.5,595.5,1309.7,1840.1,3449.1,3445.5,799.4,888.2,1282.8,1551.5,1338.6,1187.6,-6.0,0.0,-28.0,6531.0,9390.0,9262.0,7198.0,-2.0,-44.0,158.0,4.0,-8.0,3.0,9321.0,10557.0,7059.0,4501.0,73.0,10.0,13.0,1.0
2022-05-03 16:50:15.552037-07:00,2249.7,592.3,1369.4,1591.7,1203.5,1263.1,1429.5,1589.9,3444.3,3451.6,1716.7,1417.6,1325.0,3446.7,1097.3,1567.4,3438.2,3438.2,720.8,1370.3,1018.5,595.5,1309.7,1840.1,3449.1,3445.5,799.4,888.2,1282.8,1551.5,1338.6,1187.6,-6.0,0.0,-28.0,6531.0,9390.0,9262.0,7198.0,-2.0,-44.0,158.0,4.0,-8.0,3.0,9321.0,10557.0,7059.0,4501.0,73.0,10.0,13.0,1.0
2022-05-03 16:50:15.699358-07:00,2245.6,588.3,1351.2,1585.2,1202.7,1267.6,1430.5,1581.4,3449.1,3449.1,1710.0,1418.6,1316.9,3443.1,1106.0,1566.5,3438.2,3444.3,724.9,1364.8,1008.2,591.5,1312.4,1845.0,3454.0,3446.7,796.0,894.1,1289.1,1551.5,1330.5,1181.5,4.0,6.0,-18.0,6516.0,9465.0,9192.0,7204.0,-18.0,-49.0,9.0,1.0,-6.0,-4.0,9291.0,10593.0,7064.0,4474.0,-32.0,-27.0,1.0,1.0
2022-05-03 16:50:15.759357-07:00,2250.7,588.3,1351.2,1585.2,1203.5,1263.1,1428.6,1573.9,3450.4,3449.1,1710.0,1418.6,1325.0,3445.5,1105.1,1572.1,3435.8,3438.2,720.8,1363.9,1008.2,591.5,1312.4,1842.0,3451.6,3438.2,810.2,886.5,1289.1,1551.5,1330.5,1190.3,7.0,-7.0,-5.0,6535.0,9473.0,9182.0,7189.0,-14.0,-48.0,-19.0,1.0,-15.0,1.0,9306.0,10587.0,7052.0,4473.0,-34.0,-27.0,-3.0,1.0
2022-05-03 16:50:15.760730-07:00,2250.7,589.1,1354.0,1583.3,1203.5,1263.1,1428.6,1580.5,3450.4,3446.7,1703.3,1412.2,1325.0,3445.5,1105.1,1564.6,3438.2,3438.2,720.8,1363.9,1009.9,596.3,1317.8,1842.0,3454.0,3438.2,810.2,886.5,1285.5,1553.4,1331.4,1190.3,-7.0,-25.0,-14.0,6550.0,9485.0,9173.0,7172.0,3.0,-58.0,27.0,2.0,-19.0,7.0,9317.0,10585.0,7044.0,4470.0,9.0,-19.0,2.0,1.0
2022-05-03 16:50:15.761698-07:00,2246.6,589.1,1354.0,1583.3,1206.2,1268.5,1422.2,1580.5,3447.9,3446.7,1703.3,1412.2,1328.7,3447.9,1104.3,1564.6,3438.2,3439.5,727.4,1363.9,1009.9,596.3,1317.8,1849.8,3454.0,3450.4,795.2,896.6,1285.5,1553.4,1331.4,1185.9,2.0,-4.0,-4.0,6550.0,9509.0,9156.0,7162.0,20.0,-34.0,56.0,2.0,-7.0,0.0,9313.0,10591.0,7043.0,4463.0,33.0,-5.0,2.0,1.0
2022-05-03 16:50:15.789250-07:00,2246.6,593.9,1354.0,1591.7,1206.2,1268.5,1422.2,1575.8,3447.9,3445.5,1710.0,1416.7,1328.7,3447.9,1104.3,1560.9,3435.8,3439.5,727.4,1363.9,1008.2,593.1,1309.7,1849.8,3454.0,3450.4,795.2,896.6,1289.1,1555.3,1329.6,1185.9,6.0,-1.0,-8.0,6541.0,9529.0,9143.0,7158.0,12.0,0.0,20.0,1.0,-10.0,-3.0,9305.0,10599.0,7047.0,4457.0,11.0,3.0,-4.0,1.0
2022-05-03 16:50:15.849430-07:00,2240.4,593.9,1354.0,1591.7,1199.1,1264.9,1425.9,1575.8,3443.1,3445.5,1710.0,1416.7,1320.5,3447.9,1104.3,1560.9,3435.8,3435.8,722.5,1365.7,1008.2,593.1,1309.7,1839.1,3454.0,3454.0,798.5,888.2,1289.1,1555.3,1329.6,1175.3,17.0,-9.0,7.0,6540.0,9535.0,9142.0,7153.0,0.0,-25.0,12.0,-2.0,-8.0,-5.0,9304.0,10599.0,7047.0,4457.0,6.0,9.0,-4.0,1.0
2022-05-03 16:50:15.850677-07:00,2240.4,589.9,1352.1,1579.6,1199.1,1264.9,1425.9,1573.9,3443.1,3449.1,1706.2,1413.1,1320.5,3447.9,1104.3,1566.5,3447.9,3435.8,722.5,1365.7,1009.0,593.1,1314.2,1839.1,3443.1,3454.0,798.5,888.2,1289.1,1559.9,1325.9,1175.3,3.0,-10.0,-4.0,6531.0,9545.0,9137.0,7155.0,23.0,28.0,37.0,-1.0,-11.0,-2.0,9296.0,10604.0,7052.0,4455.0,38.0,9.0,5.0,1.0
2022-05-03 16:50:15.909376-07:00,2236.3,589.1,1352.1,1579.6,1199.1,1264.0,1431.4,1573.9,3444.3,3441.9,1706.2,1413.1,1320.5,3437.0,1103.4,1566.5,3447.9,3439.5,724.1,1369.4,1009.0,593.1,1311.5,1842.0,3443.1,3450.4,788.6,871.3,1289.1,1559.9,1331.4,1196.5,12.0,-18.0,-17.0,6510.0,9565.0,9131.0,7154.0,33.0,-33.0,80.0,-3.0,-15.0,-13.0,9282.0,10613.0,7059.0,4449.0,44.0,12.0,5.0,1.0
2022-05-03 16:50:15.969303-07:00,2236.3,589.1,1347.6,1591.7,1199.1,1264.0,1427.7,1576.8,3444.3,3441.9,1708.1,1414.0,1320.5,3437.0,1099.0,1571.1,3439.5,3438.2,724.1,1369.4,1008.2,591.5,1311.5,1842.0,3443.1,3447.9,788.6,871.3,1279.2,1559.9,1331.4,1196.5,13.0,-6.0,-16.0,6484.0,9601.0,9113.0,7153.0,45.0,-47.0,107.0,0.0,-12.0,-7.0,9260.0,10633.0,7069.0,4434.0,78.0,0.0,5.0,1.0
2022-05-03 16:50:15.999320-07:00,2235.3,589.9,1347.6,1591.7,1196.5,1260.4,1427.7,1576.8,3452.8,3444.3,1708.1,1414.0,1321.4,3447.9,1099.0,1571.1,3439.5,3438.2,727.4,1364.8,1008.2,591.5,1307.9,1840.1,3443.1,3447.9,796.0,884.8,1279.2,1559.9,1325.9,1188.5,-8.0,5.0,-17.0,6459.0,9636.0,9093.0,7154.0,24.0,-11.0,70.0,2.0,-6.0,7.0,9238.0,10654.0,7076.0,4419.0,69.0,-2.0,7.0,1.0
2022-05-03 16:50:16.060225-07:00,2235.3,589.9,1354.0,1586.1,1196.5,1260.4,1425.9,1580.5,3452.8,3444.3,1709.1,1419.5,1321.4,3447.9,1099.0,1565.5,3437.0,3445.5,727.4,1364.8,1006.5,592.3,1307.9,1840.1,3449.1,3451.6,796.0,884.8,1276.5,1561.8,1325.9,1188.5,7.0,-8.0,-6.0,6458.0,9653.0,9081.0,7148.0,-5.0,-41.0,9.0,0.0,-9.0,-6.0,9234.0,10657.0,7078.0,4417.0,-7.0,1.0,1.0,1.0
2022-05-03 16:50:16.149362-07:00,2229.1,589.9,1354.0,1586.1,1199.1,1255.1,1425.9,1580.5,3451.6,3438.2,1709.1,1419.5,1320.5,3444.3,1099.0,1565.5,3437.0,3445.5,725.8,1364.8,1006.5,592.3,1310.6,1845.0,3449.1,3451.6,798.5,882.3,1276.5,1561.8,1329.6,1184.1,2.0,-13.0,-16.0,6460.0,9663.0,9073.0,7142.0,2.0,-25.0,36.0,1.0,-15.0,-1.0,9233.0,10657.0,7078.0,4416.0,3.0,-6.0,5.0,1.0
2022-05-03 16:50:16.209892-07:00,2229.1,589.9,1357.6,1581.4,1199.1,1261.3,1425.9,1573.0,3451.6,3438.2,1710.0,1419.5,1320.5,3438.2,1106.0,1563.7,3438.2,3444.3,724.9,1364.8,1007.3,595.5,1310.6,1845.0,3449.1,3438.2,792.7,882.3,1279.2,1552.5,1329.6,1184.1,3.0,0.0,-17.0,6456.0,9681.0,9060.0,7139.0,15.0,-26.0,44.0,-2.0,-6.0,-5.0,9228.0,10662.0,7080.0,4413.0,25.0,-2.0,8.0,1.0
2022-05-03 16:50:16.239882-07:00,2230.1,589.1,1356.7,1581.4,1195.6,1261.3,1425.9,1573.0,3449.1,3447.9,1708.1,1419.5,1332.3,3438.2,1106.0,1563.7,3438.2,3444.3,724.9,1357.6,1007.3,593.9,1307.0,1839.1,3449.1,3438.2,792.7,884.8,1279.2,1554.3,1333.2,1183.2,1.0,-4.0,-15.0,6452.0,9694.0,9051.0,7135.0,13.0,-27.0,18.0,2.0,-9.0,-2.0,9226.0,10663.0,7081.0,4412.0,-1.0,-4.0,4.0,1.0
2022-05-03 16:50:16.540152-07:00,2230.1,589.1,1356.7,1581.4,1195.6,1269.4,1425.0,1582.4,3449.1,3447.9,1708.1,1414.9,1332.3,3447.9,1101.7,1567.4,3433.4,3438.2,720.8,1357.6,1000.5,593.9,1307.0,1839.1,3444.3,3454.0,791.9,884.8,1281.0,1554.3,1333.2,1183.2,0.0,0.0,-9.0,6453.0,9705.0,9046.0,7125.0,20.0,-12.0,-2.0,2.0,-8.0,0.0,9227.0,10664.0,7080.0,4410.0,-1.0,-12.0,0.0,1.0
2022-05-03 16:50:16.541665-07:00,2239.4,589.1,1358.5,1581.4,1204.4,1269.4,1425.0,1582.4,3454.0,3444.3,1711.0,1414.9,1323.2,3447.9,1101.7,1567.4,3433.4,3438.2,720.8,1361.2,1000.5,595.5,1306.1,1845.9,3444.3,3454.0,791.9,885.6,1281.0,1553.4,1334.1,1187.6,-1.0,-17.0,-10.0,6456.0,9704.0,9053.0,7115.0,0.0,-24.0,-28.0,1.0,-16.0,6.0,9231.0,10661.0,7078.0,4412.0,-28.0,-6.0,0.0,1.0
2022-05-03 16:50:16.599477-07:00,2239.4,589.1,1358.5,1591.7,1204.4,1264.9,1427.7,1580.5,3454.0,3444.3,1711.0,1410.3,1323.2,3449.1,1099.0,1568.3,3437.0,3441.9,721.6,1361.2,1005.6,595.5,1306.1,1845.9,3445.5,3449.1,791.0,885.6,1293.6,1553.4,1334.1,1187.6,-3.0,-9.0,-5.0,6461.0,9712.0,9048.0,7107.0,4.0,-21.0,26.0,2.0,-11.0,2.0,9234.0,10658.0,7076.0,4415.0,8.0,2.0,10.0,1.0
2022-05-03 16:50:16.600847-07:00,2226.0,592.3,1361.2,1591.7,1204.4,1264.9,1427.7,1580.5,3452.8,3449.1,1707.2,1410.3,1331.4,3449.1,1099.0,1568.3,3437.0,3441.9,721.6,1360.3,1005.6,589.9,1302.5,1842.0,3445.5,3449.1,791.0,890.7,1293.6,1553.4,1337.7,1185.0,-4.0,-5.0,-11.0,6451.0,9724.0,9038.0,7111.0,4.0,16.0,39.0,0.0,-9.0,3.0,9226.0,10666.0,7078.0,4412.0,28.0,11.0,4.0,1.0
2022-05-03 16:50:16.601809-07:00,2226.0,592.3,1361.2,1589.9,1203.5,1259.6,1430.5,1573.9,3452.8,3449.1,1707.2,1414.0,1322.3,3446.7,1105.1,1565.5,3439.5,3441.9,718.4,1360.3,1008.2,589.9,1302.5,1842.0,3446.7,3443.1,788.6,885.6,1289.1,1553.4,1337.7,1185.0,0.0,-3.0,-11.0,6447.0,9727.0,9035.0,7114.0,-5.0,13.0,3.0,2.0,-7.0,0.0,9222.0,10666.0,7082.0,4414.0,3.0,14.0,-1.0,1.0
2022-05-03 16:50:16.629304-07:00,2226.0,585.9,1354.0,1588.0,1201.8,1262.2,1432.3,1573.9,3445.5,3441.9,1713.8,1417.6,1328.7,3444.3,1106.9,1566.5,3444.3,3439.5,722.5,1356.7,1004.8,594.7,1299.0,1836.2,3447.9,3450.4,784.4,889.0,1283.7,1550.6,1328.7,1188.5,9.0,-13.0,-5.0,6435.0,9760.0,9010.0,7114.0,1.0,-69.0,73.0,0.0,-12.0,0.0,9209.0,10676.0,7087.0,4407.0,39.0,-18.0,10.0,1.0
2022-05-03 16:50:16.719907-07:00,2226.0,585.9,1354.0,1588.0,1210.6,1252.4,1426.8,1586.1,3445.5,3441.9,1713.8,1417.6,1324.1,3447.9,1108.6,1567.4,3446.7,3450.4,724.9,1357.6,1004.8,594.7,1299.0,1836.2,3449.1,3447.9,791.9,878.9,1283.7,1550.6,1328.7,1188.5,-13.0,5.0,-9.0,6430.0,9788.0,8985.0,7111.0,9.0,-24.0,46.0,6.0,-3.0,8.0,9201.0,10689.0,7084.0,4397.0,16.0,-12.0,9.0,1.0
2022-05-03 16:50:16.900136-07:00,2216.8,588.3,1357.6,1588.9,1210.6,1252.4,1426.8,1586.1,3449.1,3450.4,1709.1,1418.6,1324.1,3447.9,1108.6,1567.4,3446.7,3450.4,724.9,1357.6,1008.2,598.7,1307.9,1841.1,3449.1,3447.9,791.9,878.9,1284.6,1553.4,1332.3,1182.3,-1.0,-8.0,-6.0,6440.0,9797.0,8972.0,7105.0,-12.0,-23.0,-3.0,1.0,-10.0,-1.0,9204.0,10686.0,7082.0,4400.0,-9.0,6.0,6.0,1.0
2022-05-03 16:50:16.901626-07:00,2218.8,588.3,1357.6,1588.9,1207.1,1263.1,1423.1,1578.6,3446.7,3450.4,1709.1,1418.6,1326.8,3447.9,1104.3,1559.0,3449.1,3445.5,725.8,1358.5,1008.2,598.7,1307.9,1842.0,3451.6,3451.6,784.4,880.6,1284.6,1553.4,1332.3,1184.1,-3.0,-9.0,-11.0,6440.0,9798.0,8973.0,7104.0,0.0,-6.0,3.0,0.0,-12.0,-3.0,9204.0,10686.0,7082.0,4400.0,-3.0,3.0,-1.0,1.0
2022-05-03 16:50:16.960021-07:00,2218.8,585.1,1351.2,1590.8,1207.1,1263.1,1423.1,1573.9,3446.7,3441.9,1710.0,1415.8,1326.8,3447.9,1104.3,1568.3,3445.5,3445.5,725.8,1358.5,1003.0,593.1,1310.6,1842.0,3449.1,3451.6,784.4,880.6,1279.2,1557.1,1325.9,1184.1,-9.0,-4.0,-12.0,6439.0,9799.0,8973.0,7103.0,0.0,14.0,4.0,2.0,-7.0,6.0,9204.0,10686.0,7082.0,4400.0,2.0,4.0,2.0,1.0
