Time,P0,P1,P2,P3,P4,P5,P6,P7,P8,P9,P10,P11,P12,P13,P14,P15,P16,P17,P18,P19,P20,P21,P22,P23,P24,P25,P26,P27,P28,P29,P30,P31,ECG,AX0,AY0,AZ0,QW0,QX0,QY0,QZ0,GX0,GY0,GZ0,AX1,AY1,AZ1,QW1,QX1,QY1,QZ1,GX1,GY1,GZ1
2022-05-03 16:58:17.587409-07:00,2239.4,607.6,1416.7,1625.6,1128.7,1317.8,1450.6,1659.6,3441.9,3449.1,1787.8,1422.2,1284.6,3438.2,1191.2,1652.0,3438.2,3444.3,690.5,1313.3,952.6,583.5,1327.8,1948.9,3444.3,3445.5,797.7,939.8,1397.6,1648.3,1443.3,1162.1,0.0,-1.0,9.0,8137.0,12136.0,5098.0,5380.0,-8.0,-1.0,4.0,5.0,-8.0,9.0,9108.0,9463.0,7747.0,5994.0,-4.0,0.0,1.0,1.0
2022-05-03 16:58:17.617833-07:00,2236.3,608.4,1419.5,1625.6,1121.7,1321.4,1450.6,1659.6,3446.7,3451.6,1778.1,1422.2,1279.2,3446.7,1191.2,1652.0,3438.2,3444.3,696.2,1316.0,952.6,580.2,1331.4,1952.9,3444.3,3445.5,802.7,939.0,1397.6,1642.6,1443.3,1172.6,0.0,1.0,4.0,8137.0,12136.0,5098.0,5380.0,5.0,13.0,-7.0,4.0,-8.0,7.0,9108.0,9463.0,7747.0,5994.0,5.0,7.0,0.0,1.0
2022-05-03 16:58:17.647619-07:00,2236.3,608.4,1419.5,1624.7,1121.7,1317.8,1450.6,1650.2,3446.7,3451.6,1778.1,1423.1,1279.2,3449.1,1182.3,1655.8,3450.4,3445.5,697.9,1316.0,955.1,580.2,1331.4,1952.9,3446.7,3455.2,801.9,939.0,1395.7,1642.6,1443.3,1172.6,0.0,-4.0,2.0,8137.0,12136.0,5099.0,5381.0,-4.0,8.0,6.0,5.0,-8.0,3.0,9108.0,9463.0,7747.0,5994.0,-1.0,4.0,1.0,1.0
2022-05-03 16:58:17.707761-07:00,2235.3,609.2,1416.7,1624.7,1126.1,1317.8,1450.6,1650.2,3447.9,3443.1,1783.9,1423.1,1283.7,3449.1,1182.3,1655.8,3450.4,3445.5,697.9,1319.6,955.1,584.3,1325.0,1948.9,3446.7,3455.2,801.9,937.3,1395.7,1647.3,1441.5,1159.4,1.0,0.0,3.0,8136.0,12136.0,5098.0,5382.0,-5.0,-4.0,3.0,6.0,-10.0,7.0,9108.0,9463.0,7747.0,5994.0,-8.0,-7.0,1.0,1.0
2022-05-03 16:58:17.768857-07:00,2235.3,609.2,1416.7,1622.8,1126.1,1317.8,1447.0,1642.6,3447.9,3443.1,1783.9,1425.0,1283.7,3447.9,1179.7,1649.2,3446.7,3441.9,699.5,1319.6,953.4,584.3,1325.0,1948.9,3444.3,3446.7,796.0,937.3,1397.6,1647.3,1441.5,1159.4,0.0,1.0,9.0,8136.0,12136.0,5098.0,5382.0,-5.0,6.0,-4.0,3.0,-8.0,11.0,9108.0,9463.0,7747.0,5994.0,-8.0,1.0,0.0,1.0
2022-05-03 16:58:17.797617-07:00,2229.1,608.4,1424.1,1622.8,1127.0,1317.8,1447.0,1642.6,3447.9,3449.1,1782.0,1425.0,1283.7,3447.9,1179.7,1649.2,3446.7,3441.9,699.5,1319.6,953.4,577.8,1324.1,1950.9,3444.3,3446.7,796.0,939.8,1397.6,1645.4,1442.4,1153.3,0.0,-3.0,7.0,8136.0,12135.0,5099.0,5383.0,5.0,-6.0,7.0,7.0,-8.0,7.0,9108.0,9463.0,7747.0,5994.0,10.0,3.0,0.0,1.0
2022-05-03 16:58:17.858104-07:00,2229.1,608.4,1424.1,1628.4,1118.2,1315.1,1456.2,1644.5,3447.9,3449.1,1782.0,1422.2,1281.9,3449.1,1172.6,1651.1,3441.9,3440.7,692.9,1317.8,950.9,577.8,1324.1,1950.9,3446.7,3447.9,800.2,937.3,1392.1,1645.4,1442.4,1153.3,-1.0,2.0,5.0,8136.0,12135.0,5099.0,5383.0,-1.0,6.0,-5.0,5.0,-7.0,10.0,9107.0,9463.0,7748.0,5993.0,0.0,8.0,3.0,1.0
2022-05-03 16:58:17.977659-07:00,2229.1,606.8,1422.2,1625.6,1118.2,1315.1,1456.2,1644.5,3449.1,3434.6,1784.9,1425.0,1281.9,3449.1,1172.6,1651.1,3441.9,3440.7,692.9,1317.8,954.3,577.0,1328.7,1953.9,3446.7,3447.9,800.2,937.3,1390.3,1646.4,1448.8,1159.4,0.0,-5.0,5.0,8137.0,12134.0,5100.0,5382.0,-2.0,-4.0,-8.0,5.0,-9.0,10.0,9107.0,9463.0,7748.0,5993.0,-4.0,3.0,-2.0,1.0
2022-05-03 16:58:17.979194-07:00,2229.1,606.8,1422.2,1625.6,1124.4,1311.5,1447.0,1641.6,3449.1,3434.6,1784.9,1425.0,1283.7,3440.7,1177.9,1645.4,3438.2,3441.9,690.5,1316.9,954.3,577.0,1328.7,1953.9,3438.2,3438.2,791.0,938.1,1390.3,1646.4,1448.8,1159.4,1.0,0.0,4.0,8137.0,12134.0,5100.0,5382.0,6.0,-2.0,5.0,5.0,-8.0,7.0,9107.0,9464.0,7748.0,5993.0,5.0,4.0,2.0,1.0
2022-05-03 16:58:18.007543-07:00,2234.2,601.2,1411.3,1622.8,1124.4,1311.5,1447.0,1641.6,3438.2,3438.2,1780.1,1425.0,1283.7,3440.7,1177.9,1645.4,3438.2,3441.9,690.5,1316.9,955.1,583.5,1331.4,1951.9,3438.2,3438.2,791.0,938.1,1392.1,1645.4,1442.4,1151.5,-2.0,-3.0,6.0,8137.0,12134.0,5101.0,5383.0,-5.0,4.0,-9.0,6.0,-11.0,11.0,9107.0,9464.0,7748.0,5993.0,-7.0,-3.0,2.0,1.0
2022-05-03 16:58:18.067850-07:00,2234.2,601.2,1411.3,1622.8,1132.2,1324.1,1440.5,1644.5,3438.2,3438.2,1780.1,1425.0,1287.3,3443.1,1176.2,1647.3,3439.5,3447.9,692.9,1312.4,955.1,583.5,1331.4,1951.9,3449.1,3447.9,812.7,939.8,1392.1,1645.4,1442.4,1151.5,0.0,-1.0,9.0,8137.0,12133.0,5101.0,5383.0,6.0,-5.0,3.0,5.0,-7.0,9.0,9107.0,9464.0,7748.0,5993.0,10.0,1.0,-3.0,1.0
2022-05-03 16:58:18.127578-07:00,2225.0,610.0,1416.7,1617.1,1132.2,1324.1,1440.5,1644.5,3445.5,3437.0,1778.1,1427.7,1287.3,3443.1,1176.2,1647.3,3439.5,3447.9,692.9,1312.4,952.6,578.6,1326.8,1950.9,3449.1,3447.9,812.7,939.8,1393.9,1640.7,1441.5,1157.7,-4.0,-11.0,-7.0,8137.0,12133.0,5101.0,5384.0,2.0,16.0,-5.0,7.0,-8.0,4.0,9105.0,9463.0,7749.0,5993.0,-2.0,10.0,-4.0,1.0
2022-05-03 16:58:18.157729-07:00,2230.1,610.0,1416.7,1617.1,1124.4,1321.4,1447.0,1651.1,3439.5,3437.0,1778.1,1427.7,1278.3,3441.9,1181.5,1652.0,3440.7,3440.7,696.2,1319.6,952.6,578.6,1326.8,1957.8,3441.9,3456.4,801.9,939.0,1393.9,1640.7,1441.5,1162.1,-3.0,-5.0,7.0,8138.0,12132.0,5101.0,5386.0,7.0,7.0,4.0,4.0,-5.0,10.0,9105.0,9463.0,7750.0,5994.0,4.0,2.0,1.0,1.0
2022-05-03 16:58:18.217646-07:00,2230.1,605.2,1420.4,1620.9,1124.4,1321.4,1447.0,1639.8,3439.5,3446.7,1783.9,1424.1,1278.3,3441.9,1181.5,1652.0,3444.3,3440.7,696.2,1319.6,952.6,582.6,1326.8,1957.8,3447.9,3456.4,801.9,939.0,1388.5,1650.2,1449.7,1162.1,1.0,0.0,2.0,8135.0,12133.0,5102.0,5386.0,11.0,1.0,5.0,4.0,-9.0,12.0,9105.0,9463.0,7750.0,5994.0,12.0,3.0,1.0,1.0
2022-05-03 16:58:18.247630-07:00,2229.1,605.2,1420.4,1620.9,1134.9,1309.7,1448.8,1639.8,3435.8,3446.7,1783.9,1424.1,1280.1,3451.6,1191.2,1652.0,3444.3,3437.0,697.0,1316.0,952.6,582.6,1326.8,1955.8,3447.9,3446.7,808.5,939.0,1388.5,1650.2,1449.7,1156.8,0.0,0.0,6.0,8134.0,12134.0,5102.0,5386.0,0.0,0.0,-5.0,3.0,-8.0,8.0,9104.0,9464.0,7751.0,5993.0,-11.0,-5.0,0.0,1.0
2022-05-03 16:58:18.308192-07:00,2229.1,601.2,1430.5,1623.7,1134.9,1309.7,1448.8,1656.8,3435.8,3449.1,1781.0,1420.4,1280.1,3451.6,1191.2,1654.9,3440.7,3437.0,697.0,1316.0,958.5,575.4,1324.1,1955.8,3449.1,3446.7,808.5,939.0,1392.1,1641.6,1436.0,1156.8,-2.0,-3.0,6.0,8138.0,12131.0,5101.0,5387.0,-6.0,1.0,5.0,4.0,-10.0,9.0,9105.0,9463.0,7750.0,5994.0,10.0,2.0,1.0,1.0
2022-05-03 16:58:18.367700-07:00,2221.9,601.2,1430.5,1623.7,1135.7,1311.5,1446.0,1656.8,3458.9,3449.1,1781.0,1420.4,1279.2,3443.1,1181.5,1654.9,3440.7,3432.2,696.2,1316.9,958.5,575.4,1324.1,1947.9,3449.1,3435.8,802.7,954.3,1392.1,1641.6,1436.0,1158.6,3.0,0.0,9.0,8137.0,12132.0,5101.0,5387.0,-16.0,5.0,6.0,6.0,-10.0,5.0,9104.0,9464.0,7750.0,5993.0,-13.0,-3.0,3.0,1.0
2022-05-03 16:58:18.397791-07:00,2221.9,606.0,1425.9,1627.5,1135.7,1311.5,1446.0,1646.4,3458.9,3446.7,1778.1,1422.2,1279.2,3443.1,1181.5,1649.2,3445.5,3432.2,696.2,1316.9,952.6,585.1,1324.1,1947.9,3455.2,3435.8,802.7,954.3,1393.9,1645.4,1435.0,1158.6,0.0,0.0,0.0,8136.0,12131.0,5103.0,5389.0,21.0,-4.0,-3.0,6.0,-10.0,13.0,9105.0,9463.0,7750.0,5994.0,18.0,4.0,0.0,1.0
2022-05-03 16:58:18.457498-07:00,2225.0,608.4,1425.9,1627.5,1121.7,1316.9,1436.9,1646.4,3449.1,3438.2,1778.1,1422.2,1277.4,3447.9,1188.5,1649.2,3445.5,3438.2,695.4,1317.8,952.6,585.1,1324.1,1955.8,3455.2,3449.1,802.7,941.5,1393.9,1645.4,1436.0,1162.1,0.0,-4.0,6.0,8135.0,12133.0,5103.0,5387.0,-18.0,0.0,-5.0,3.0,-9.0,10.0,9103.0,9465.0,7751.0,5993.0,-9.0,-2.0,0.0,1.0
2022-05-03 16:58:18.517714-07:00,2225.0,608.4,1422.2,1624.7,1121.7,1316.9,1434.1,1639.8,3449.1,3438.2,1785.8,1420.4,1277.4,3447.9,1183.2,1643.5,3439.5,3437.0,695.4,1317.8,956.8,581.8,1324.1,1955.8,3445.5,3440.7,802.7,941.5,1389.4,1647.3,1436.0,1162.1,3.0,1.0,2.0,8135.0,12132.0,5103.0,5387.0,12.0,-6.0,6.0,5.0,-9.0,8.0,9102.0,9465.0,7751.0,5992.0,9.0,3.0,-1.0,1.0
2022-05-03 16:58:18.547563-07:00,2234.2,606.8,1422.2,1624.7,1124.4,1313.3,1434.1,1639.8,3438.2,3449.1,1785.8,1420.4,1285.5,3443.1,1183.2,1643.5,3439.5,3437.0,692.9,1325.0,956.8,581.8,1333.2,1943.0,3445.5,3440.7,802.7,944.1,1389.4,1647.3,1442.4,1168.2,2.0,-2.0,3.0,8135.0,12132.0,5103.0,5387.0,-1.0,-5.0,-6.0,3.0,-6.0,6.0,9102.0,9465.0,7751.0,5992.0,-5.0,-2.0,-1.0,1.0
2022-05-03 16:58:18.608083-07:00,2234.2,606.8,1425.0,1619.9,1124.4,1313.3,1442.4,1669.1,3438.2,3449.1,1782.0,1421.3,1285.5,3443.1,1185.9,1648.3,3439.5,3440.7,692.9,1325.0,955.1,578.6,1333.2,1943.0,3444.3,3445.5,802.7,944.1,1390.3,1645.4,1442.4,1168.2,1.0,0.0,7.0,8135.0,12132.0,5103.0,5387.0,7.0,2.0,8.0,4.0,-5.0,9.0,9102.0,9466.0,7752.0,5992.0,8.0,3.0,2.0,1.0
2022-05-03 16:58:18.667814-07:00,2235.3,608.4,1425.0,1619.9,1127.0,1316.0,1442.4,1669.1,3438.2,3432.2,1782.0,1421.3,1277.4,3441.9,1185.9,1648.3,3439.5,3440.7,693.8,1317.8,955.1,578.6,1329.6,1951.9,3444.3,3445.5,799.4,936.4,1390.3,1645.4,1442.4,1158.6,-2.0,0.0,5.0,8135.0,12132.0,5103.0,5387.0,1.0,-1.0,-7.0,4.0,-10.0,11.0,9102.0,9466.0,7752.0,5992.0,0.0,4.0,-3.0,1.0
2022-05-03 16:58:18.697603-07:00,2235.3,608.4,1423.1,1626.5,1127.0,1314.2,1449.7,1641.6,3438.2,3432.2,1768.5,1425.9,1277.4,3445.5,1186.7,1648.3,3438.2,3443.1,697.9,1317.8,958.5,589.1,1329.6,1951.9,3443.1,3449.1,806.0,936.4,1393.9,1640.7,1442.4,1158.6,3.0,-3.0,8.0,8134.0,12133.0,5103.0,5387.0,-2.0,3.0,1.0,5.0,-8.0,7.0,9101.0,9466.0,7752.0,5991.0,6.0,3.0,1.0,1.0
2022-05-03 16:58:18.757604-07:00,2228.1,605.2,1418.6,1626.5,1127.0,1314.2,1449.7,1641.6,3443.1,3440.7,1780.1,1425.9,1288.2,3445.5,1186.7,1648.3,3438.2,3443.1,697.9,1312.4,958.5,581.0,1325.9,1953.9,3443.1,3449.1,806.0,935.6,1393.9,1637.9,1433.2,1161.2,-1.0,0.0,2.0,8137.0,12132.0,5102.0,5388.0,5.0,-9.0,6.0,5.0,-6.0,8.0,9101.0,9466.0,7752.0,5991.0,11.0,4.0,2.0,1.0
2022-05-03 16:58:18.818536-07:00,2228.1,605.2,1418.6,1622.8,1127.0,1325.0,1452.5,1650.2,3443.1,3440.7,1780.1,1419.5,1288.2,3438.2,1188.5,1647.3,3440.7,3444.3,700.3,1312.4,955.1,581.0,1325.9,1953.9,3440.7,3449.1,796.0,935.6,1387.5,1637.9,1433.2,1161.2,4.0,-1.0,5.0,8139.0,12131.0,5102.0,5386.0,-13.0,0.0,-10.0,7.0,-8.0,8.0,9100.0,9467.0,7753.0,5990.0,-7.0,-4.0,-1.0,1.0
2022-05-03 16:58:18.847754-07:00,2221.9,602.8,1423.1,1622.8,1126.1,1325.0,1452.5,1650.2,3449.1,3449.1,1779.1,1419.5,1285.5,3438.2,1188.5,1647.3,3440.7,3444.3,700.3,1317.8,955.1,579.4,1325.9,1952.9,3440.7,3449.1,796.0,935.6,1387.5,1641.6,1429.5,1157.7,0.0,-1.0,5.0,8139.0,12131.0,5101.0,5386.0,6.0,-1.0,5.0,3.0,-8.0,8.0,9100.0,9468.0,7753.0,5990.0,4.0,1.0,0.0,1.0
2022-05-03 16:58:18.907521-07:00,2221.9,602.8,1423.1,1622.8,1126.1,1320.5,1446.0,1642.6,3449.1,3449.1,1779.1,1428.6,1285.5,3445.5,1178.8,1643.5,3443.1,3437.0,692.1,1317.8,951.7,579.4,1325.9,1952.9,3458.9,3440.7,798.5,935.6,1393.9,1641.6,1429.5,1157.7,0.0,-1.0,0.0,8139.0,12131.0,5101.0,5386.0,-1.0,-2.0,-1.0,6.0,-10.0,9.0,9100.0,9468.0,7753.0,5990.0,1.0,3.0,-1.0,1.0
2022-05-03 16:58:18.967884-07:00,2232.2,609.2,1427.7,1622.8,1126.1,1320.5,1446.0,1642.6,3451.6,3439.5,1775.2,1428.6,1281.9,3445.5,1178.8,1643.5,3443.1,3437.0,692.1,1313.3,951.7,578.6,1325.9,1947.9,3458.9,3440.7,798.5,934.7,1393.9,1637.9,1436.9,1160.3,1.0,0.0,5.0,8139.0,12131.0,5101.0,5386.0,-3.0,6.0,2.0,6.0,-7.0,9.0,9100.0,9468.0,7753.0,5990.0,1.0,2.0,1.0,1.0
2022-05-03 16:58:18.997581-07:00,2232.2,609.2,1427.7,1622.8,1127.0,1314.2,1445.1,1640.7,3451.6,3439.5,1775.2,1418.6,1274.7,3443.1,1184.1,1653.9,3445.5,3441.9,696.2,1308.8,958.5,578.6,1325.9,1947.9,3446.7,3440.7,798.5,938.1,1392.1,1637.9,1436.9,1160.3,0.0,-3.0,4.0,8139.0,12131.0,5101.0,5386.0,4.0,-6.0,3.0,4.0,-7.0,10.0,9100.0,9468.0,7753.0,5990.0,2.0,-1.0,-4.0,1.0
2022-05-03 16:58:19.057657-07:00,2224.0,607.6,1417.6,1625.6,1127.0,1314.2,1445.1,1640.7,3449.1,3452.8,1777.2,1419.5,1274.7,3443.1,1184.1,1653.9,3445.5,3441.9,696.2,1308.8,955.1,581.0,1326.8,1952.9,3446.7,3440.7,798.5,938.1,1393.0,1638.8,1443.3,1162.1,1.0,-1.0,4.0,8139.0,12131.0,5101.0,5386.0,-1.0,-2.0,3.0,7.0,-9.0,11.0,9100.0,9468.0,7753.0,5990.0,0.0,-2.0,1.0,1.0
2022-05-03 16:58:19.147528-07:00,2224.0,607.6,1417.6,1625.6,1124.4,1313.3,1437.8,1637.9,3449.1,3452.8,1777.2,1419.5,1285.5,3444.3,1184.1,1652.0,3446.7,3449.1,699.5,1318.7,955.1,581.0,1326.8,1952.9,3447.9,3452.8,798.5,938.1,1393.0,1638.8,1443.3,1162.1,2.0,-2.0,4.0,8139.0,12131.0,5101.0,5386.0,-4.0,6.0,1.0,5.0,-7.0,9.0,9100.0,9468.0,7753.0,5990.0,-1.0,-1.0,1.0,1.0
2022-05-03 16:58:19.148954-07:00,2224.0,605.2,1419.5,1620.9,1124.4,1313.3,1437.8,1637.9,3451.6,3435.8,1780.1,1423.1,1285.5,3444.3,1184.1,1652.0,3446.7,3449.1,699.5,1318.7,949.2,579.4,1325.0,1955.8,3447.9,3452.8,798.5,938.1,1393.9,1640.7,1436.9,1152.4,0.0,-4.0,3.0,8140.0,12130.0,5101.0,5386.0,-7.0,-2.0,0.0,5.0,-13.0,12.0,9100.0,9468.0,7753.0,5990.0,-7.0,-4.0,2.0,1.0
2022-05-03 16:58:19.208108-07:00,2224.0,605.2,1419.5,1620.9,1120.9,1310.6,1440.5,1630.3,3451.6,3435.8,1780.1,1423.1,1285.5,3450.4,1180.6,1643.5,3441.9,3441.9,696.2,1316.0,949.2,579.4,1325.0,1955.8,3441.9,3450.4,802.7,939.0,1393.9,1640.7,1436.9,1152.4,1.0,1.0,6.0,8140.0,12130.0,5101.0,5386.0,-1.0,6.0,1.0,2.0,-6.0,10.0,9100.0,9468.0,7753.0,5990.0,3.0,-2.0,-1.0,1.0
2022-05-03 16:58:19.267734-07:00,2225.0,604.4,1416.7,1623.7,1120.9,1310.6,1440.5,1636.9,3444.3,3440.7,1777.2,1426.8,1285.5,3450.4,1180.6,1644.5,3449.1,3441.9,696.2,1316.0,953.4,580.2,1326.8,1951.9,3458.9,3450.4,802.7,939.0,1390.3,1636.0,1440.5,1156.8,1.0,-1.0,6.0,8141.0,12130.0,5101.0,5386.0,5.0,7.0,3.0,5.0,-9.0,7.0,9099.0,9468.0,7753.0,5989.0,10.0,2.0,0.0,1.0
2022-05-03 16:58:19.297927-07:00,2221.9,604.4,1416.7,1623.7,1118.2,1312.4,1441.5,1636.9,3443.1,3440.7,1777.2,1426.8,1282.8,3443.1,1184.1,1644.5,3449.1,3441.9,696.2,1316.0,953.4,580.2,1326.8,1943.0,3458.9,3447.9,797.7,939.8,1390.3,1636.0,1440.5,1154.2,1.0,-2.0,0.0,8140.0,12130.0,5101.0,5386.0,-6.0,-8.0,-1.0,4.0,-9.0,7.0,9099.0,9468.0,7753.0,5989.0,-2.0,2.0,-1.0,1.0
2022-05-03 16:58:19.357594-07:00,2221.9,608.4,1421.3,1619.9,1118.2,1312.4,1441.5,1642.6,3443.1,3440.7,1772.3,1427.7,1282.8,3443.1,1184.1,1648.3,3438.2,3441.9,696.2,1316.0,948.3,581.8,1328.7,1943.0,3444.3,3447.9,797.7,939.8,1392.1,1640.7,1441.5,1154.2,1.0,-1.0,4.0,8141.0,12131.0,5100.0,5384.0,5.0,-10.0,4.0,5.0,-9.0,8.0,9099.0,9468.0,7753.0,5989.0,3.0,-6.0,1.0,1.0
2022-05-03 16:58:19.417773-07:00,2228.1,608.4,1421.3,1619.9,1129.6,1314.2,1448.8,1642.6,3450.4,3440.7,1772.3,1427.7,1279.2,3449.1,1180.6,1648.3,3438.2,3449.1,693.8,1322.3,948.3,581.8,1328.7,1951.9,3444.3,3441.9,798.5,943.2,1392.1,1640.7,1441.5,1156.8,3.0,2.0,8.0,8142.0,12132.0,5098.0,5382.0,-8.0,8.0,-6.0,5.0,-6.0,12.0,9099.0,9468.0,7753.0,5989.0,-1.0,3.0,-3.0,1.0
2022-05-03 16:58:19.447685-07:00,2228.1,605.2,1414.0,1615.2,1129.6,1314.2,1448.8,1639.8,3450.4,3443.1,1777.2,1416.7,1279.2,3449.1,1180.6,1645.4,3443.1,3449.1,693.8,1322.3,950.9,581.0,1332.3,1951.9,3447.9,3441.9,798.5,943.2,1376.6,1645.4,1441.5,1156.8,2.0,-3.0,5.0,8144.0,12131.0,5097.0,5383.0,20.0,4.0,4.0,5.0,-8.0,9.0,9099.0,9469.0,7754.0,5989.0,16.0,9.0,-1.0,1.0
2022-05-03 16:58:19.507565-07:00,2220.9,605.2,1414.0,1615.2,1122.6,1307.9,1445.1,1639.8,3447.9,3443.1,1777.2,1416.7,1285.5,3446.7,1181.5,1645.4,3443.1,3443.1,697.0,1317.8,950.9,581.0,1332.3,1942.0,3447.9,3445.5,800.2,939.0,1376.6,1645.4,1441.5,1157.7,3.0,0.0,3.0,8141.0,12133.0,5099.0,5382.0,-16.0,10.0,-4.0,3.0,-6.0,9.0,9097.0,9470.0,7755.0,5988.0,-6.0,1.0,1.0,1.0
2022-05-03 16:58:19.567709-07:00,2220.9,606.8,1420.4,1618.1,1122.6,1307.9,1433.2,1635.0,3447.9,3439.5,1779.1,1424.1,1285.5,3446.7,1182.3,1650.2,3444.3,3450.4,697.0,1317.8,956.0,581.8,1324.1,1942.0,3438.2,3445.5,800.2,939.0,1392.1,1644.5,1436.9,1157.7,2.0,0.0,4.0,8142.0,12132.0,5099.0,5383.0,7.0,-3.0,-3.0,4.0,-7.0,9.0,9098.0,9470.0,7754.0,5988.0,2.0,1.0,-2.0,1.0
2022-05-03 16:58:19.597712-07:00,2225.0,607.6,1420.4,1618.1,1122.6,1310.6,1433.2,1635.0,3443.1,3456.4,1779.1,1424.1,1281.9,3433.4,1182.3,1650.2,3444.3,3450.4,702.8,1323.2,956.0,581.8,1328.7,1951.9,3438.2,3445.5,801.9,937.3,1392.1,1644.5,1439.6,1151.5,0.0,-1.0,3.0,8142.0,12132.0,5099.0,5383.0,-4.0,0.0,5.0,8.0,-8.0,11.0,9098.0,9470.0,7754.0,5988.0,3.0,-4.0,2.0,1.0
2022-05-03 16:58:19.657600-07:00,2225.0,607.6,1420.4,1625.6,1122.6,1310.6,1438.7,1641.6,3443.1,3456.4,1773.3,1422.2,1281.9,3433.4,1182.3,1649.2,3449.1,3440.7,702.8,1323.2,954.3,578.6,1328.7,1951.9,3446.7,3455.2,801.9,937.3,1391.2,1645.4,1439.6,1151.5,0.0,0.0,5.0,8142.0,12132.0,5099.0,5383.0,-6.0,-1.0,-8.0,4.0,-8.0,11.0,9098.0,9470.0,7754.0,5988.0,5.0,3.0,-2.0,1.0
2022-05-03 16:58:19.747939-07:00,2221.9,607.6,1420.4,1625.6,1116.5,1309.7,1438.7,1641.6,3438.2,3438.2,1773.3,1422.2,1279.2,3440.7,1182.3,1649.2,3449.1,3440.7,692.1,1317.8,954.3,578.6,1327.8,1943.0,3446.7,3455.2,801.9,939.0,1391.2,1645.4,1432.3,1151.5,0.0,-4.0,3.0,8142.0,12132.0,5099.0,5383.0,4.0,-2.0,7.0,5.0,-7.0,10.0,9098.0,9470.0,7754.0,5988.0,0.0,1.0,1.0,1.0
2022-05-03 16:58:19.749423-07:00,2221.9,607.6,1421.3,1616.2,1116.5,1309.7,1438.7,1641.6,3438.2,3438.2,1776.2,1418.6,1279.2,3440.7,1176.2,1644.5,3433.4,3438.2,692.1,1317.8,959.4,580.2,1327.8,1943.0,3446.7,3450.4,801.9,939.0,1382.1,1636.0,1432.3,1151.5,0.0,0.0,4.0,8142.0,12132.0,5099.0,5383.0,-5.0,5.0,-2.0,4.0,-7.0,10.0,9098.0,9470.0,7754.0,5988.0,1.0,-1.0,-2.0,1.0
2022-05-03 16:58:19.808104-07:00,2208.6,609.2,1422.2,1616.2,1127.9,1314.2,1438.7,1641.6,3447.9,3451.6,1764.6,1418.6,1281.0,3443.1,1176.2,1644.5,3433.4,3438.2,696.2,1315.1,959.4,581.8,1325.9,1942.0,3446.7,3450.4,799.4,939.8,1382.1,1642.6,1433.2,1170.9,0.0,-7.0,5.0,8142.0,12131.0,5099.0,5384.0,10.0,-15.0,7.0,8.0,-7.0,7.0,9098.0,9470.0,7754.0,5988.0,5.0,3.0,1.0,1.0
2022-05-03 16:58:19.897633-07:00,2208.6,609.2,1422.2,1620.9,1127.9,1316.0,1443.3,1634.1,3447.9,3451.6,1764.6,1423.1,1281.0,3450.4,1180.6,1642.6,3444.3,3447.9,697.9,1315.1,952.6,581.8,1325.9,1942.0,3438.2,3454.0,800.2,939.8,1391.2,1642.6,1433.2,1170.9,2.0,0.0,6.0,8141.0,12133.0,5099.0,5381.0,-12.0,6.0,-5.0,7.0,-8.0,9.0,9096.0,9472.0,7756.0,5986.0,-1.0,-2.0,0.0,1.0
2022-05-03 16:58:19.927620-07:00,2226.0,614.9,1415.8,1620.9,1125.2,1316.0,1443.3,1634.1,3447.9,3438.2,1776.2,1423.1,1281.0,3450.4,1180.6,1642.6,3444.3,3447.9,697.9,1318.7,952.6,581.0,1333.2,1948.9,3438.2,3454.0,800.2,939.8,1391.2,1640.7,1433.2,1155.0,0.0,-2.0,4.0,8144.0,12131.0,5097.0,5382.0,7.0,-2.0,7.0,6.0,-7.0,14.0,9096.0,9471.0,7755.0,5987.0,6.0,-3.0,0.0,1.0
2022-05-03 16:58:19.957633-07:00,2226.0,614.9,1415.8,1619.0,1125.2,1311.5,1441.5,1642.6,3447.9,3438.2,1776.2,1420.4,1281.0,3443.1,1172.6,1646.4,3444.3,3433.4,695.4,1318.7,954.3,581.0,1333.2,1948.9,3446.7,3445.5,813.5,939.8,1393.9,1640.7,1433.2,1155.0,5.0,0.0,6.0,8141.0,12133.0,5098.0,5381.0,-2.0,6.0,-9.0,3.0,-5.0,8.0,9094.0,9473.0,7757.0,5986.0,3.0,2.0,-3.0,1.0
2022-05-03 16:58:20.017816-07:00,2225.0,604.4,1410.3,1619.0,1120.9,1311.5,1441.5,1642.6,3446.7,3440.7,1776.2,1420.4,1283.7,3443.1,1172.6,1646.4,3444.3,3433.4,695.4,1318.7,954.3,579.4,1315.1,1953.9,3446.7,3445.5,813.5,935.6,1393.9,1638.8,1437.8,1153.3,2.0,-4.0,7.0,8142.0,12131.0,5099.0,5383.0,5.0,3.0,3.0,7.0,-7.0,9.0,9095.0,9472.0,7757.0,5986.0,4.0,-1.0,1.0,1.0
2022-05-03 16:58:20.077901-07:00,2225.0,604.4,1410.3,1623.7,1120.9,1315.1,1445.1,1642.6,3446.7,3440.7,1776.2,1415.8,1283.7,3451.6,1177.9,1642.6,3451.6,3446.7,692.1,1318.7,952.6,579.4,1315.1,1953.9,3456.4,3452.8,798.5,935.6,1391.2,1638.8,1437.8,1153.3,0.0,0.0,1.0,8142.0,12131.0,5100.0,5383.0,-8.0,5.0,-1.0,6.0,-7.0,10.0,9093.0,9473.0,7757.0,5985.0,-1.0,6.0,1.0,1.0
2022-05-03 16:58:20.107527-07:00,2220.9,610.0,1417.6,1627.5,1121.7,1315.1,1445.1,1642.6,3449.1,3447.9,1773.3,1423.1,1279.2,3451.6,1177.9,1642.6,3451.6,3446.7,692.1,1322.3,953.4,578.6,1325.9,1943.0,3456.4,3452.8,798.5,939.0,1389.4,1639.8,1439.6,1155.0,3.0,-1.0,4.0,8142.0,12131.0,5100.0,5383.0,-3.0,5.0,-2.0,3.0,-8.0,11.0,9093.0,9473.0,7757.0,5985.0,4.0,1.0,0.0,1.0
2022-05-03 16:58:20.168202-07:00,2220.9,610.0,1417.6,1627.5,1122.6,1315.1,1442.4,1641.6,3449.1,3447.9,1773.3,1423.1,1281.0,3446.7,1178.8,1639.8,3445.5,3458.9,697.0,1318.7,953.4,578.6,1325.9,1943.0,3443.1,3447.9,798.5,938.1,1389.4,1639.8,1439.6,1155.0,1.0,-3.0,3.0,8142.0,12131.0,5100.0,5383.0,2.0,-5.0,0.0,6.0,-7.0,9.0,9093.0,9473.0,7757.0,5985.0,5.0,2.0,0.0,1.0
2022-05-03 16:58:20.257609-07:00,2214.7,608.4,1425.9,1622.8,1122.6,1315.1,1442.4,1641.6,3454.0,3440.7,1767.5,1421.3,1281.0,3446.7,1178.8,1639.8,3445.5,3458.9,697.0,1318.7,950.9,581.0,1332.3,1945.9,3443.1,3447.9,798.5,938.1,1393.9,1641.6,1438.7,1152.4,2.0,1.0,3.0,8142.0,12132.0,5098.0,5381.0,-2.0,-11.0,1.0,4.0,-5.0,12.0,9093.0,9473.0,7757.0,5985.0,0.0,-5.0,0.0,1.0
2022-05-03 16:58:20.258708-07:00,2214.7,608.4,1425.9,1622.8,1120.9,1309.7,1441.5,1634.1,3454.0,3440.7,1767.5,1421.3,1279.2,3438.2,1182.3,1644.5,3431.0,3444.3,699.5,1316.0,950.9,581.0,1332.3,1945.9,3443.1,3450.4,805.2,937.3,1393.9,1641.6,1438.7,1152.4,0.0,-3.0,12.0,8143.0,12133.0,5097.0,5378.0,4.0,-10.0,-1.0,4.0,-10.0,13.0,9093.0,9473.0,7757.0,5985.0,3.0,1.0,-2.0,1.0
2022-05-03 16:58:20.347731-07:00,2214.7,601.2,1415.8,1619.9,1120.9,1309.7,1441.5,1634.1,3454.0,3441.9,1773.3,1416.7,1279.2,3438.2,1182.3,1644.5,3431.0,3444.3,699.5,1316.0,957.7,581.0,1324.1,1947.9,3443.1,3450.4,805.2,937.3,1392.1,1648.3,1433.2,1157.7,0.0,-1.0,3.0,8141.0,12133.0,5099.0,5380.0,-7.0,16.0,-5.0,5.0,-7.0,14.0,9092.0,9474.0,7758.0,5986.0,-4.0,5.0,1.0,1.0
2022-05-03 16:58:20.349704-07:00,2214.7,601.2,1415.8,1619.9,1118.2,1310.6,1441.5,1634.1,3454.0,3441.9,1773.3,1416.7,1281.0,3443.1,1182.3,1641.6,3441.9,3441.9,694.6,1317.8,957.7,581.0,1324.1,1947.9,3444.3,3450.4,796.0,937.3,1392.1,1648.3,1433.2,1157.7,-6.0,6.0,11.0,8139.0,12132.0,5101.0,5383.0,1.0,12.0,3.0,3.0,-4.0,15.0,9092.0,9473.0,7759.0,5986.0,7.0,1.0,1.0,1.0
2022-05-03 16:58:20.407667-07:00,2220.9,598.7,1418.6,1624.7,1118.2,1310.6,1441.5,1634.1,3441.9,3443.1,1774.3,1417.6,1281.0,3443.1,1182.3,1655.8,3438.2,3441.9,694.6,1317.8,951.7,581.0,1327.8,1951.9,3447.9,3450.4,796.0,937.3,1394.8,1641.6,1428.6,1150.6,-111.0,-1.0,29.0,8164.0,12098.0,5095.0,5427.0,-275.0,177.0,33.0,-2.0,-4.0,-12.0,9104.0,9458.0,7750.0,6003.0,-113.0,48.0,-3.0,1.0
2022-05-03 16:58:20.437626-07:00,2310.8,598.7,1418.6,1624.7,1146.3,1321.4,1443.3,1634.1,3443.1,3443.1,1774.3,1417.6,1289.1,3447.9,1363.0,1655.8,3438.2,3439.5,697.9,1317.8,951.7,581.0,1327.8,1979.6,3447.9,3447.9,821.9,950.0,1394.8,1641.6,1428.6,1153.3,61.0,10.0,-60.0,8284.0,12090.0,4911.0,5433.0,-252.0,-405.0,287.0,1.0,23.0,-26.0,9088.0,9445.0,7767.0,6025.0,64.0,64.0,4.0,1.0
2022-05-03 16:58:20.497800-07:00,2310.8,605.2,2061.5,1900.7,1146.3,1321.4,1443.3,1641.6,3443.1,3449.1,2188.1,1501.4,1289.1,3447.9,1363.0,1860.6,3438.2,3439.5,697.9,1317.8,955.1,585.1,1341.3,1979.6,3445.5,3447.9,821.9,950.0,1390.3,1934.1,1816.8,1153.3,12.0,17.0,-8.0,8442.0,12060.0,4712.0,5435.0,-583.0,-309.0,157.0,-5.0,-14.0,21.0,9124.0,9412.0,7737.0,6061.0,-252.0,-26.0,16.0,1.0
2022-05-03 16:58:20.557631-07:00,2576.6,605.2,2061.5,1900.7,1196.5,1363.9,1446.0,1641.6,3445.5,3449.1,2188.1,1501.4,1333.2,3440.7,1713.8,1860.6,3438.2,3449.1,701.9,1321.4,955.1,585.1,1341.3,2090.6,3445.5,3447.9,843.6,955.1,1390.3,1934.1,1816.8,1152.4,26.0,-2.0,51.0,8595.0,12001.0,4540.0,5471.0,-351.0,-100.0,185.0,13.0,-15.0,-2.0,9174.0,9381.0,7692.0,6092.0,-95.0,-44.0,11.0,1.0
2022-05-03 16:58:20.617674-07:00,2576.6,610.0,2150.4,2104.8,1196.5,1363.9,1446.0,1787.8,3445.5,3441.9,2396.6,1559.0,1333.2,3440.7,1713.8,1943.0,3446.7,3449.1,701.9,1321.4,953.4,580.2,1379.4,2090.6,3450.4,3447.9,843.6,955.1,1405.8,2049.4,1931.1,1152.4,-28.0,47.0,28.0,8657.0,11962.0,4464.0,5520.0,-228.0,-1.0,63.0,0.0,1.0,33.0,9191.0,9368.0,7679.0,6101.0,-55.0,6.0,-21.0,1.0
2022-05-03 16:58:20.647560-07:00,2946.1,619.7,2150.4,2104.8,1240.8,1374.8,1552.5,1787.8,3443.1,3444.3,2396.6,1559.0,1397.6,3450.4,1734.9,1943.0,3446.7,3445.5,697.9,1327.8,953.4,580.2,1425.0,2310.8,3450.4,3449.1,867.9,956.0,1405.8,2049.4,1950.9,1154.2,22.0,-51.0,-31.0,8750.0,11947.0,4346.0,5500.0,-57.0,-322.0,107.0,0.0,-9.0,11.0,9184.0,9356.0,7709.0,6092.0,193.0,50.0,-96.0,1.0
2022-05-03 16:58:20.707644-07:00,2946.1,619.7,2095.7,2152.4,1240.8,1374.8,1832.3,2189.1,3443.1,3444.3,2514.3,1641.6,1397.6,3450.4,1719.6,2033.4,3443.1,3449.1,697.9,1327.8,955.1,584.3,1425.0,2310.8,3449.1,3458.9,867.9,956.0,1469.0,2073.5,1950.9,1154.2,19.0,-9.0,-10.0,8746.0,12008.0,4294.0,5414.0,91.0,-230.0,14.0,4.0,-11.0,2.0,9133.0,9389.0,7790.0,6015.0,254.0,22.0,-117.0,1.0
2022-05-03 16:58:20.767781-07:00,3080.1,792.7,2095.7,2152.4,1393.0,1385.7,1832.3,2189.1,3444.3,3449.1,2514.3,1641.6,1447.9,3445.5,1719.6,2033.4,3443.1,3449.1,702.8,1325.9,955.1,584.3,1470.0,2377.6,3449.1,3458.9,870.5,956.8,1469.0,2073.5,1928.2,1178.8,11.0,10.0,2.0,8737.0,12050.0,4279.0,5346.0,59.0,-122.0,-46.0,1.0,-13.0,-2.0,9103.0,9411.0,7846.0,5952.0,115.0,-11.0,-91.0,1.0
2022-05-03 16:58:20.797986-07:00,3080.1,792.7,2046.4,2127.0,1393.0,1385.7,1888.9,2189.1,3444.3,3449.1,2542.2,1691.0,1447.9,3445.5,1691.0,2044.4,3447.9,3437.0,702.8,1325.9,953.4,583.5,1470.0,2377.6,3444.3,3446.7,870.5,956.8,1636.0,2045.4,1928.2,1178.8,-9.0,-7.0,-7.0,8753.0,12059.0,4283.0,5298.0,15.0,-91.0,-75.0,0.0,-2.0,10.0,9101.0,9417.0,7875.0,5908.0,66.0,-30.0,-79.0,1.0
2022-05-03 16:58:20.857722-07:00,3013.4,805.2,2046.4,2127.0,1494.9,1391.2,1888.9,2189.1,3438.2,3445.5,2542.2,1691.0,1481.9,3447.9,1691.0,2044.4,3447.9,3437.0,706.9,1320.5,953.4,583.5,1491.2,2411.3,3444.3,3446.7,865.4,959.4,1636.0,2045.4,1904.6,1185.9,-16.0,-27.0,6.0,8786.0,12054.0,4279.0,5256.0,-72.0,-79.0,-94.0,1.0,-31.0,16.0,9114.0,9416.0,7883.0,5880.0,-14.0,-41.0,-48.0,1.0
2022-05-03 16:58:20.887542-07:00,3013.4,805.2,2014.4,2110.8,1494.9,1393.0,1874.2,2135.1,3438.2,3445.5,2513.3,1688.1,1481.9,3439.5,1671.0,2023.4,3433.4,3451.6,709.3,1320.5,958.5,585.9,1491.2,2411.3,3445.5,3454.0,865.4,959.4,1653.9,2033.4,1904.6,1185.9,6.0,-17.0,17.0,8823.0,12048.0,4248.0,5234.0,-35.0,-93.0,50.0,8.0,-1.0,12.0,9127.0,9416.0,7873.0,5873.0,20.0,-28.0,16.0,1.0
2022-05-03 16:58:20.947659-07:00,2905.4,795.2,1981.6,2110.8,1527.3,1393.0,1874.2,2135.1,3440.7,3451.6,2481.3,1688.1,1477.3,3439.5,1671.0,2023.4,3433.4,3451.6,709.3,1326.8,958.5,581.8,1486.6,2408.1,3445.5,3454.0,865.4,960.2,1653.9,2008.4,1893.8,1176.2,4.0,16.0,12.0,8833.0,12054.0,4217.0,5226.0,-49.0,-43.0,6.0,11.0,0.0,22.0,9129.0,9420.0,7864.0,5874.0,-25.0,-5.0,0.0,1.0
2022-05-03 16:58:21.007693-07:00,2905.4,795.2,1981.6,2104.8,1527.3,1385.7,1864.5,2131.1,3440.7,3451.6,2481.3,1682.4,1477.3,3449.1,1657.7,2018.4,3444.3,3444.3,709.3,1326.8,952.6,581.8,1486.6,2408.1,3449.1,3449.1,857.0,960.2,1634.1,2008.4,1893.8,1176.2,7.0,-6.0,18.0,8848.0,12054.0,4203.0,5215.0,-5.0,-31.0,7.0,9.0,-10.0,8.0,9131.0,9418.0,7862.0,5878.0,11.0,12.0,-4.0,1.0
2022-05-03 16:58:21.037670-07:00,2845.9,781.1,1977.6,2104.8,1506.9,1385.7,1864.5,2131.1,3445.5,3435.8,2472.7,1682.4,1473.6,3449.1,1657.7,2018.4,3444.3,3444.3,709.3,1322.3,952.6,581.8,1475.5,2397.6,3449.1,3449.1,857.0,955.1,1634.1,2007.4,1876.2,1174.4,5.0,4.0,5.0,8842.0,12063.0,4195.0,5210.0,30.0,-19.0,11.0,1.0,-10.0,3.0,9123.0,9421.0,7868.0,5878.0,29.0,14.0,-7.0,1.0
2022-05-03 16:58:21.098781-07:00,2845.9,781.1,1977.6,2092.6,1506.9,1390.3,1842.0,2124.0,3445.5,3435.8,2472.7,1673.8,1473.6,3450.4,1638.8,2023.4,3449.1,3439.5,709.3,1322.3,960.2,581.8,1475.5,2397.6,3447.9,3446.7,862.9,955.1,1619.9,2007.4,1876.2,1174.4,4.0,2.0,4.0,8837.0,12072.0,4191.0,5202.0,15.0,-16.0,8.0,2.0,-17.0,2.0,9117.0,9425.0,7872.0,5875.0,18.0,-3.0,0.0,1.0
2022-05-03 16:58:21.187618-07:00,2794.6,779.4,1971.7,2092.6,1494.0,1390.3,1842.0,2124.0,3458.9,3454.0,2463.2,1673.8,1478.3,3450.4,1638.8,2023.4,3449.1,3439.5,709.3,1328.7,960.2,581.8,1475.5,2385.0,3447.9,3446.7,862.9,952.6,1619.9,1995.5,1871.3,1175.3,-6.0,7.0,-4.0,8836.0,12072.0,4193.0,5200.0,-5.0,-20.0,6.0,4.0,-6.0,17.0,9115.0,9427.0,7873.0,5873.0,6.0,-3.0,-1.0,1.0
2022-05-03 16:58:21.189389-07:00,2794.6,779.4,1971.7,2084.6,1476.4,1397.6,1838.2,2099.7,3458.9,3454.0,2463.2,1677.6,1470.9,3450.4,1645.4,2000.5,3441.9,3441.9,711.0,1318.7,956.8,581.8,1475.5,2385.0,3447.9,3443.1,862.9,945.8,1606.8,1995.5,1871.3,1175.3,5.0,-7.0,14.0,8839.0,12076.0,4188.0,5190.0,-1.0,-11.0,-10.0,3.0,-11.0,10.0,9117.0,9425.0,7873.0,5873.0,-1.0,7.0,-5.0,1.0
2022-05-03 16:58:21.247941-07:00,2758.0,775.3,1965.7,2071.5,1476.4,1397.6,1838.2,2099.7,3449.1,3443.1,2454.7,1671.9,1470.9,3450.4,1645.4,2000.5,3441.9,3441.9,711.0,1318.7,955.1,585.1,1470.0,2386.0,3447.9,3443.1,862.9,945.8,1597.4,1988.5,1869.3,1175.3,-4.0,-14.0,3.0,8839.0,12078.0,4182.0,5189.0,4.0,-29.0,30.0,4.0,-15.0,10.0,9117.0,9425.0,7872.0,5876.0,8.0,6.0,10.0,1.0
2022-05-03 16:58:21.307647-07:00,2758.0,775.3,1965.7,2071.5,1483.8,1379.4,1840.1,2098.7,3449.1,3443.1,2454.7,1671.9,1468.1,3445.5,1646.4,1997.5,3443.1,3449.1,711.0,1325.0,955.1,585.1,1470.0,2386.0,3450.4,3447.9,865.4,953.4,1597.4,1988.5,1869.3,1175.3,6.0,3.0,2.0,8838.0,12086.0,4165.0,5187.0,0.0,-24.0,25.0,4.0,-5.0,4.0,9115.0,9428.0,7868.0,5879.0,5.0,0.0,10.0,1.0
2022-05-03 16:58:21.367866-07:00,2740.3,768.7,1961.8,2078.5,1483.8,1379.4,1840.1,2098.7,3440.7,3441.9,2444.1,1671.0,1468.1,3445.5,1646.4,1997.5,3443.1,3449.1,711.0,1325.0,954.3,585.9,1470.0,2376.6,3450.4,3447.9,865.4,953.4,1591.7,1976.6,1869.3,1177.0,2.0,-1.0,4.0,8839.0,12091.0,4154.0,5182.0,-7.0,-29.0,11.0,6.0,-11.0,11.0,9116.0,9427.0,7867.0,5880.0,-7.0,-1.0,5.0,1.0
2022-05-03 16:58:21.457587-07:00,2740.3,768.7,1961.8,2078.5,1472.7,1386.6,1828.4,2090.6,3440.7,3441.9,2444.1,1671.0,1464.4,3443.1,1636.9,1999.5,3441.9,3444.3,705.2,1323.2,954.3,585.9,1470.0,2376.6,3449.1,3446.7,859.5,946.6,1591.7,1976.6,1869.3,1177.0,0.0,-1.0,4.0,8840.0,12095.0,4142.0,5182.0,-10.0,-17.0,30.0,5.0,-7.0,12.0,9117.0,9427.0,7863.0,5885.0,-11.0,6.0,14.0,1.0
2022-05-03 16:58:21.487584-07:00,2707.3,768.7,1956.8,2069.5,1472.7,1386.6,1828.4,2076.5,3443.1,3446.7,2433.5,1672.9,1464.4,3443.1,1636.9,1990.5,3445.5,3444.3,705.2,1323.2,954.3,583.5,1478.3,2371.3,3444.3,3446.7,859.5,946.6,1583.3,1980.6,1862.5,1173.5,6.0,2.0,10.0,8839.0,12099.0,4131.0,5183.0,1.0,-1.0,12.0,4.0,-9.0,7.0,9117.0,9427.0,7861.0,5886.0,2.0,5.0,7.0,1.0
2022-05-03 16:58:21.488867-07:00,2688.6,768.7,1956.8,2069.5,1462.6,1383.0,1826.5,2076.5,3450.4,3446.7,2433.5,1672.9,1470.9,3443.1,1628.4,1990.5,3445.5,3439.5,710.1,1322.3,954.3,583.5,1478.3,2360.9,3444.3,3449.1,856.2,944.9,1583.3,1980.6,1862.5,1168.2,5.0,1.0,6.0,8840.0,12100.0,4125.0,5184.0,-5.0,-15.0,8.0,7.0,-7.0,8.0,9117.0,9427.0,7860.0,5888.0,2.0,8.0,0.0,1.0
2022-05-03 16:58:21.547697-07:00,2688.6,760.4,1950.9,2075.5,1462.6,1383.0,1826.5,2073.5,3450.4,3438.2,2452.6,1667.2,1470.9,3443.1,1628.4,1991.5,3445.5,3439.5,710.1,1322.3,954.3,580.2,1470.9,2360.9,3444.3,3449.1,856.2,944.9,1575.8,1969.7,1859.6,1168.2,0.0,-2.0,-1.0,8840.0,12099.0,4125.0,5185.0,-10.0,7.0,9.0,2.0,-7.0,13.0,9117.0,9426.0,7860.0,5889.0,-9.0,-1.0,8.0,1.0
2022-05-03 16:58:21.607633-07:00,2684.3,760.4,1950.9,2075.5,1456.2,1383.9,1822.6,2073.5,3440.7,3438.2,2452.6,1667.2,1453.4,3443.1,1631.3,1991.5,3445.5,3440.7,706.9,1320.5,954.3,580.2,1470.9,2357.7,3444.3,3437.0,856.2,956.8,1575.8,1969.7,1859.6,1171.8,-1.0,-7.0,2.0,8843.0,12101.0,4116.0,5183.0,-4.0,-29.0,23.0,4.0,-4.0,11.0,9118.0,9426.0,7859.0,5889.0,1.0,-1.0,6.0,1.0
2022-05-03 16:58:21.697709-07:00,2684.3,760.4,1950.9,2063.5,1456.2,1383.9,1822.6,2069.5,3440.7,3440.7,2426.1,1656.8,1453.4,3443.1,1631.3,1997.5,3445.5,3440.7,706.9,1320.5,955.1,581.8,1470.0,2357.7,3445.5,3437.0,856.2,956.8,1578.6,1971.7,1861.5,1171.8,-2.0,-3.0,3.0,8845.0,12106.0,4101.0,5179.0,-18.0,-32.0,25.0,5.0,-5.0,12.0,9118.0,9426.0,7857.0,5892.0,-6.0,-8.0,12.0,1.0
2022-05-03 16:58:21.699321-07:00,2678.8,760.4,1950.9,2063.5,1447.9,1377.5,1822.6,2069.5,3455.2,3440.7,2426.1,1656.8,1461.7,3450.4,1628.4,1997.5,3445.5,3443.1,703.6,1318.7,955.1,581.8,1470.0,2354.6,3445.5,3449.1,857.9,941.5,1578.6,1971.7,1861.5,1171.8,7.0,2.0,9.0,8847.0,12112.0,4084.0,5174.0,-8.0,-33.0,22.0,6.0,-10.0,8.0,9118.0,9427.0,7854.0,5894.0,-3.0,-7.0,6.0,1.0
2022-05-03 16:58:21.787222-07:00,2678.8,754.6,1943.0,2058.4,1447.9,1377.5,1807.1,2061.5,3455.2,3438.2,2419.8,1668.2,1461.7,3450.4,1611.5,1979.6,3441.9,3446.7,703.6,1318.7,953.4,583.5,1464.4,2354.6,3445.5,3450.4,857.9,941.5,1569.3,1968.7,1871.3,1171.8,6.0,5.0,12.0,8849.0,12115.0,4076.0,5171.0,-2.0,-11.0,0.0,5.0,-8.0,12.0,9119.0,9427.0,7852.0,5895.0,-5.0,-4.0,-2.0,1.0
2022-05-03 16:58:21.789312-07:00,2672.2,757.9,1943.0,2058.4,1453.4,1383.0,1807.1,2061.5,3439.5,3451.6,2419.8,1668.2,1455.2,3447.9,1611.5,1979.6,3441.9,3446.7,706.9,1320.5,953.4,583.5,1465.4,2347.3,3445.5,3450.4,855.3,943.2,1569.3,1968.7,1844.0,1171.8,-2.0,-5.0,9.0,8849.0,12115.0,4076.0,5171.0,3.0,-9.0,8.0,3.0,-10.0,10.0,9120.0,9426.0,7851.0,5896.0,5.0,5.0,0.0,1.0
2022-05-03 16:58:21.847762-07:00,2672.2,757.9,1938.0,2058.4,1453.4,1383.0,1813.9,2059.4,3439.5,3451.6,2418.7,1664.4,1455.2,3447.9,1616.2,1973.7,3428.6,3438.2,706.9,1320.5,953.4,588.3,1465.4,2347.3,3438.2,3447.9,855.3,943.2,1571.1,1975.6,1844.0,1171.8,3.0,1.0,9.0,8849.0,12115.0,4076.0,5172.0,-8.0,9.0,-4.0,7.0,-9.0,9.0,9121.0,9426.0,7850.0,5897.0,-6.0,5.0,3.0,1.0
2022-05-03 16:58:21.907753-07:00,2663.5,755.4,1938.0,2058.4,1449.7,1381.2,1813.9,2059.4,3446.7,3445.5,2418.7,1664.4,1461.7,3444.3,1616.2,1973.7,3428.6,3438.2,709.3,1320.5,953.4,588.3,1460.8,2338.9,3438.2,3447.9,851.1,944.9,1571.1,1975.6,1844.0,1169.1,0.0,-11.0,1.0,8854.0,12112.0,4070.0,5175.0,-18.0,-18.0,20.0,6.0,-8.0,9.0,9121.0,9426.0,7849.0,5899.0,-6.0,0.0,11.0,1.0
2022-05-03 16:58:21.937704-07:00,2663.5,755.4,1934.1,2053.4,1449.7,1381.2,1814.9,2054.4,3446.7,3445.5,2415.5,1663.4,1461.7,3444.3,1636.0,1967.7,3435.8,3431.0,709.3,1320.5,956.8,581.8,1460.8,2338.9,3445.5,3450.4,851.1,944.9,1564.6,1965.7,1844.0,1169.1,5.0,7.0,3.0,8857.0,12115.0,4054.0,5175.0,-15.0,-34.0,30.0,3.0,-4.0,3.0,9119.0,9428.0,7845.0,5902.0,-4.0,-8.0,10.0,1.0
2022-05-03 16:58:21.997570-07:00,2643.9,752.9,1939.0,2053.4,1445.1,1380.3,1814.9,2054.4,3433.4,3447.9,2410.3,1663.4,1459.8,3443.1,1636.0,1967.7,3435.8,3431.0,705.2,1325.0,956.8,578.6,1460.8,2336.8,3445.5,3450.4,857.0,939.0,1564.6,1965.7,1840.1,1170.0,3.0,2.0,10.0,8859.0,12118.0,4043.0,5173.0,-7.0,-5.0,-6.0,7.0,-3.0,9.0,9121.0,9430.0,7843.0,5901.0,-7.0,-4.0,0.0,1.0
2022-05-03 16:58:22.057631-07:00,2643.9,752.9,1939.0,2053.4,1445.1,1376.6,1809.0,2057.4,3433.4,3447.9,2410.3,1669.1,1459.8,3446.7,1622.8,1978.6,3449.1,3439.5,705.2,1325.0,953.4,578.6,1460.8,2336.8,3454.0,3438.2,853.7,939.0,1560.9,1965.7,1840.1,1170.0,5.0,-2.0,15.0,8860.0,12119.0,4042.0,5171.0,9.0,-16.0,3.0,7.0,-11.0,11.0,9120.0,9431.0,7843.0,5900.0,10.0,0.0,-2.0,1.0
2022-05-03 16:58:22.117545-07:00,2647.1,751.3,1927.2,2053.4,1436.9,1376.6,1809.0,2057.4,3443.1,3443.1,2406.0,1669.1,1461.7,3446.7,1622.8,1978.6,3449.1,3439.5,705.2,1316.0,953.4,584.3,1451.6,2336.8,3454.0,3438.2,853.7,937.3,1560.9,1956.8,1839.1,1160.3,5.0,1.0,9.0,8860.0,12119.0,4040.0,5170.0,0.0,-11.0,4.0,7.0,-7.0,7.0,9120.0,9431.0,7843.0,5900.0,2.0,5.0,-6.0,1.0
2022-05-03 16:58:22.147519-07:00,2647.1,751.3,1927.2,2049.4,1436.9,1376.6,1804.2,2054.4,3443.1,3443.1,2406.0,1668.2,1461.7,3443.1,1612.4,1971.7,3439.5,3439.5,705.2,1316.0,963.7,584.3,1451.6,2336.8,3444.3,3443.1,854.5,937.3,1560.9,1956.8,1839.1,1160.3,4.0,-5.0,11.0,8860.0,12120.0,4040.0,5170.0,-11.0,17.0,-3.0,8.0,-10.0,7.0,9121.0,9430.0,7843.0,5901.0,-11.0,7.0,4.0,1.0
2022-05-03 16:58:22.207937-07:00,2631.9,760.4,1933.1,2049.4,1432.3,1376.6,1804.2,2054.4,3440.7,3441.9,2413.4,1668.2,1456.2,3443.1,1612.4,1971.7,3439.5,3439.5,705.2,1325.0,963.7,584.3,1456.2,2326.4,3444.3,3443.1,854.5,939.8,1560.9,1960.8,1849.8,1165.6,-2.0,3.0,1.0,8860.0,12116.0,4043.0,5175.0,-14.0,7.0,-2.0,2.0,-6.0,10.0,9120.0,9429.0,7843.0,5902.0,-7.0,8.0,-1.0,1.0
2022-05-03 16:58:22.237573-07:00,2631.9,760.4,1933.1,2038.4,1432.3,1374.8,1811.0,2044.4,3440.7,3441.9,2413.4,1663.4,1456.2,3444.3,1606.8,1971.7,3431.0,3440.7,708.5,1325.0,960.2,584.3,1456.2,2326.4,3450.4,3449.1,850.3,939.8,1545.9,1960.8,1849.8,1165.6,3.0,-1.0,5.0,8864.0,12114.0,4040.0,5176.0,5.0,-13.0,11.0,8.0,-10.0,5.0,9122.0,9428.0,7842.0,5903.0,1.0,-4.0,6.0,1.0
2022-05-03 16:58:22.297360-07:00,2626.5,751.3,1935.1,2047.4,1438.7,1374.8,1811.0,2044.4,3438.2,3441.9,2405.0,1660.6,1458.9,3444.3,1606.8,1971.7,3431.0,3440.7,708.5,1318.7,952.6,585.1,1451.6,2324.3,3450.4,3449.1,850.3,931.3,1553.4,1946.9,1837.2,1165.6,-1.0,-3.0,5.0,8865.0,12117.0,4033.0,5173.0,-26.0,-14.0,7.0,6.0,-6.0,12.0,9123.0,9427.0,7841.0,5904.0,-16.0,-5.0,3.0,1.0
2022-05-03 16:58:22.357480-07:00,2626.5,751.3,1935.1,2047.4,1431.4,1375.7,1803.2,2050.4,3438.2,3441.9,2405.0,1660.6,1447.9,3446.7,1613.4,1972.7,3435.8,3451.6,706.9,1322.3,952.6,585.1,1451.6,2324.3,3449.1,3441.9,855.3,938.1,1553.4,1946.9,1837.2,1165.6,4.0,0.0,13.0,8869.0,12117.0,4029.0,5169.0,-5.0,-2.0,6.0,7.0,-4.0,15.0,9123.0,9427.0,7841.0,5903.0,-5.0,-5.0,2.0,1.0
2022-05-03 16:58:22.387900-07:00,2630.8,748.8,1921.3,2044.4,1431.4,1375.7,1803.2,2050.4,3449.1,3445.5,2400.8,1663.4,1447.9,3446.7,1613.4,1972.7,3435.8,3451.6,706.9,1322.3,956.8,582.6,1468.1,2329.5,3449.1,3441.9,855.3,938.1,1555.3,1963.7,1831.3,1170.9,11.0,2.0,11.0,8869.0,12118.0,4026.0,5169.0,5.0,-3.0,2.0,8.0,-3.0,10.0,9123.0,9428.0,7841.0,5903.0,11.0,0.0,-3.0,1.0
2022-05-03 16:58:22.447358-07:00,2630.8,748.8,1921.3,2044.4,1425.9,1378.5,1793.6,2045.4,3449.1,3445.5,2400.8,1663.4,1454.3,3446.7,1606.8,1975.6,3446.7,3449.1,707.7,1324.1,956.8,582.6,1468.1,2329.5,3457.6,3449.1,847.8,938.1,1555.3,1963.7,1831.3,1170.9,-2.0,4.0,3.0,8869.0,12116.0,4029.0,5170.0,-12.0,7.0,1.0,2.0,-8.0,16.0,9122.0,9428.0,7842.0,5903.0,-7.0,9.0,0.0,1.0
2022-05-03 16:58:22.478044-07:00,2627.5,741.4,1934.1,2039.4,1425.9,1378.5,1793.6,2045.4,3445.5,3445.5,2391.3,1666.3,1454.3,3446.7,1606.8,1975.6,3446.7,3449.1,707.7,1324.1,949.2,580.2,1453.4,2332.6,3457.6,3449.1,847.8,938.1,1545.9,1945.0,1835.2,1170.0,0.0,0.0,5.0,8871.0,12115.0,4029.0,5170.0,9.0,3.0,3.0,6.0,-1.0,17.0,9123.0,9427.0,7842.0,5904.0,7.0,3.0,-1.0,1.0
2022-05-03 16:58:22.567571-07:00,2613.4,741.4,1934.1,2039.4,1449.7,1374.8,1794.5,2044.4,3440.7,3445.5,2391.3,1666.3,1447.0,3438.2,1606.8,1972.7,3450.4,3443.1,712.6,1325.9,949.2,580.2,1453.4,2324.3,3454.0,3441.9,846.1,933.0,1545.9,1945.0,1835.2,1163.8,0.0,-6.0,4.0,8871.0,12116.0,4028.0,5169.0,-4.0,-4.0,2.0,7.0,-12.0,5.0,9123.0,9427.0,7842.0,5904.0,2.0,-1.0,-4.0,1.0
2022-05-03 16:58:22.597656-07:00,2613.4,752.1,1923.3,2040.4,1449.7,1374.8,1794.5,2047.4,3440.7,3447.9,2402.9,1666.3,1447.0,3438.2,1606.8,1968.7,3443.1,3443.1,712.6,1325.9,953.4,584.3,1458.0,2324.3,3455.2,3441.9,846.1,933.0,1553.4,1950.9,1836.2,1163.8,-2.0,0.0,7.0,8871.0,12116.0,4028.0,5169.0,1.0,7.0,1.0,7.0,-6.0,16.0,9122.0,9427.0,7842.0,5903.0,8.0,4.0,3.0,1.0
2022-05-03 16:58:22.627627-07:00,2610.2,752.1,1923.3,2040.4,1425.0,1383.0,1803.2,2047.4,3449.1,3447.9,2402.9,1666.3,1443.3,3447.9,1609.6,1968.7,3443.1,3440.7,702.8,1316.9,953.4,584.3,1458.0,2326.4,3455.2,3443.1,851.1,939.8,1553.4,1950.9,1836.2,1165.6,6.0,0.0,12.0,8871.0,12116.0,4027.0,5168.0,-5.0,-3.0,1.0,5.0,-8.0,9.0,9122.0,9427.0,7842.0,5903.0,-2.0,0.0,0.0,1.0
2022-05-03 16:58:22.687906-07:00,2610.2,750.5,1924.3,2040.4,1425.0,1383.0,1803.2,2041.4,3449.1,3444.3,2392.4,1660.6,1443.3,3447.9,1609.6,1963.7,3449.1,3440.7,702.8,1316.9,953.4,578.6,1451.6,2326.4,3438.2,3443.1,851.1,939.8,1540.3,1943.0,1827.5,1165.6,3.0,-1.0,10.0,8871.0,12116.0,4027.0,5168.0,-2.0,14.0,-5.0,7.0,-9.0,14.0,9122.0,9427.0,7842.0,5903.0,3.0,6.0,2.0,1.0
2022-05-03 16:58:22.747498-07:00,2603.7,750.5,1924.3,2040.4,1429.5,1375.7,1792.6,2041.4,3445.5,3444.3,2392.4,1660.6,1447.0,3446.7,1597.4,1963.7,3449.1,3446.7,710.1,1322.3,953.4,578.6,1451.6,2325.4,3438.2,3445.5,848.6,936.4,1540.3,1943.0,1827.5,1164.7,6.0,0.0,4.0,8870.0,12116.0,4026.0,5172.0,15.0,-6.0,9.0,6.0,-3.0,4.0,9122.0,9428.0,7842.0,5903.0,12.0,5.0,-1.0,1.0
2022-05-03 16:58:22.777572-07:00,2603.7,740.6,1923.3,2039.4,1429.5,1375.7,1792.6,2036.4,3445.5,3438.2,2398.7,1662.5,1447.0,3446.7,1597.4,1963.7,3441.9,3446.7,710.1,1322.3,954.3,585.1,1448.8,2325.4,3454.0,3445.5,848.6,936.4,1548.7,1948.9,1819.7,1164.7,1.0,-8.0,4.0,8870.0,12116.0,4026.0,5172.0,-17.0,-4.0,7.0,6.0,-8.0,9.0,9122.0,9428.0,7842.0,5903.0,-12.0,0.0,10.0,1.0
2022-05-03 16:58:22.837696-07:00,2590.7,745.5,1923.3,2039.4,1423.1,1377.5,1800.3,2036.4,3452.8,3443.1,2398.7,1662.5,1454.3,3451.6,1605.8,1963.7,3441.9,3444.3,705.2,1320.5,954.3,585.1,1456.2,2314.9,3454.0,3447.9,852.0,937.3,1548.7,1948.9,1830.4,1162.1,3.0,5.0,8.0,8870.0,12119.0,4016.0,5173.0,11.0,-15.0,10.0,5.0,-4.0,11.0,9120.0,9430.0,7840.0,5905.0,7.0,-1.0,2.0,1.0
2022-05-03 16:58:22.898725-07:00,2590.7,745.5,1921.3,2040.4,1423.1,1377.5,1795.5,2042.4,3452.8,3443.1,2391.3,1658.7,1454.3,3451.6,1606.8,1962.8,3441.9,3443.1,705.2,1320.5,951.7,581.0,1456.2,2314.9,3445.5,3446.7,852.0,937.3,1540.3,1947.9,1830.4,1162.1,4.0,-4.0,8.0,8873.0,12119.0,4013.0,5172.0,-11.0,-12.0,12.0,8.0,-11.0,11.0,9120.0,9430.0,7840.0,5905.0,3.0,0.0,8.0,1.0
2022-05-03 16:58:22.927713-07:00,2588.5,733.2,1921.3,2040.4,1426.8,1370.3,1795.5,2042.4,3443.1,3440.7,2391.3,1658.7,1444.2,3440.7,1606.8,1962.8,3441.9,3443.1,711.0,1315.1,951.7,581.0,1453.4,2311.8,3445.5,3446.7,850.3,928.8,1540.3,1947.9,1817.8,1156.8,-1.0,-3.0,10.0,8872.0,12121.0,4008.0,5171.0,-6.0,12.0,2.0,8.0,-11.0,16.0,9120.0,9430.0,7840.0,5905.0,-3.0,-5.0,9.0,1.0
2022-05-03 16:58:22.987607-07:00,2588.5,733.2,1928.2,2034.4,1426.8,1370.3,1791.6,2038.4,3443.1,3440.7,2383.9,1665.3,1444.2,3440.7,1600.2,1960.8,3443.1,3441.9,711.0,1315.1,956.8,581.0,1453.4,2311.8,3444.3,3447.9,850.3,928.8,1545.0,1942.0,1817.8,1156.8,4.0,1.0,7.0,8871.0,12121.0,4006.0,5174.0,6.0,-9.0,17.0,8.0,-3.0,13.0,9120.0,9430.0,7840.0,5905.0,11.0,3.0,9.0,1.0
2022-05-03 16:58:23.048694-07:00,2586.4,748.8,1928.2,2034.4,1420.4,1373.9,1791.6,2038.4,3449.1,3441.9,2383.9,1665.3,1440.5,3443.1,1600.2,1960.8,3443.1,3441.9,713.4,1325.0,956.8,581.0,1450.6,2314.9,3444.3,3447.9,852.0,938.1,1545.0,1942.0,1828.4,1165.6,4.0,-5.0,6.0,8871.0,12121.0,4005.0,5175.0,-8.0,0.0,-2.0,9.0,-10.0,13.0,9119.0,9431.0,7841.0,5904.0,-1.0,3.0,4.0,1.0
2022-05-03 16:58:23.077538-07:00,2586.4,748.8,1921.3,2033.4,1420.4,1373.0,1789.7,2034.4,3449.1,3441.9,2391.3,1664.4,1440.5,3452.8,1600.2,1958.8,3440.7,3449.1,708.5,1325.0,954.3,585.1,1450.6,2314.9,3438.2,3451.6,847.8,938.1,1545.0,1945.9,1828.4,1165.6,3.0,6.0,12.0,8870.0,12123.0,4001.0,5175.0,7.0,-12.0,12.0,6.0,-7.0,11.0,9118.0,9432.0,7841.0,5903.0,11.0,0.0,5.0,1.0
2022-05-03 16:58:23.138206-07:00,2589.6,744.7,1919.3,2033.4,1418.6,1373.0,1789.7,2034.4,3440.7,3449.1,2386.0,1664.4,1451.6,3452.8,1600.2,1958.8,3440.7,3449.1,708.5,1320.5,954.3,578.6,1447.9,2316.0,3438.2,3451.6,847.8,934.7,1545.0,1947.9,1821.6,1163.0,5.0,2.0,9.0,8869.0,12124.0,3998.0,5176.0,-2.0,-14.0,2.0,8.0,-8.0,14.0,9118.0,9432.0,7842.0,5903.0,-1.0,-5.0,0.0,1.0
2022-05-03 16:58:23.227550-07:00,2589.6,744.7,1919.3,2040.4,1418.6,1371.2,1785.8,2023.4,3440.7,3449.1,2386.0,1667.2,1451.6,3451.6,1590.8,1963.7,3440.7,3439.5,709.3,1320.5,950.9,578.6,1447.9,2316.0,3438.2,3445.5,847.8,934.7,1540.3,1947.9,1821.6,1163.0,-1.0,-9.0,9.0,8869.0,12124.0,3999.0,5177.0,-7.0,12.0,7.0,8.0,-9.0,16.0,9118.0,9432.0,7842.0,5903.0,0.0,5.0,8.0,1.0
2022-05-03 16:58:23.257583-07:00,2578.8,759.6,1913.4,2040.4,1414.0,1371.2,1785.8,2023.4,3443.1,3450.4,2378.7,1667.2,1441.5,3451.6,1590.8,1963.7,3440.7,3439.5,709.3,1317.8,950.9,580.2,1452.5,2309.7,3438.2,3445.5,847.8,931.3,1540.3,1939.0,1821.6,1162.1,4.0,3.0,5.0,8867.0,12125.0,3996.0,5180.0,10.0,-7.0,9.0,8.0,-6.0,9.0,9116.0,9434.0,7840.0,5904.0,9.0,-1.0,4.0,1.0
2022-05-03 16:58:23.317695-07:00,2578.8,759.6,1913.4,2029.4,1414.0,1376.6,1779.1,2039.4,3443.1,3450.4,2378.7,1659.6,1441.5,3445.5,1589.9,1952.9,3438.2,3439.5,711.0,1317.8,952.6,580.2,1452.5,2309.7,3445.5,3445.5,847.8,931.3,1533.8,1939.0,1821.6,1162.1,49.0,0.0,52.0,8864.0,12118.0,4007.0,5191.0,4.0,117.0,-31.0,12.0,-13.0,-10.0,9118.0,9433.0,7839.0,5906.0,-42.0,4.0,14.0,1.0
2022-05-03 16:58:23.347877-07:00,2579.9,758.7,1928.2,2029.4,1414.9,1376.6,1779.1,2039.4,3454.0,3441.9,2381.8,1659.6,1443.3,3445.5,1589.9,1952.9,3438.2,3439.5,711.0,1320.5,952.6,589.1,1449.7,2317.0,3445.5,3445.5,847.8,931.3,1533.8,1940.0,1817.8,1163.0,58.0,22.0,44.0,8844.0,12033.0,4179.0,5289.0,-2.0,677.0,-399.0,7.0,-51.0,4.0,9127.0,9417.0,7826.0,5933.0,-182.0,23.0,38.0,1.0
2022-05-03 16:58:23.377635-07:00,2579.9,758.7,1928.2,2041.4,1422.2,1376.6,1785.8,2055.4,3454.0,3441.9,2381.8,1665.3,1441.5,3454.0,1660.6,1981.6,3438.2,3437.0,703.6,1322.3,951.7,589.1,1449.7,2317.0,3449.1,3454.0,850.3,937.3,1604.9,1940.0,1817.8,1163.0,-28.0,-50.0,-64.0,8849.0,11844.0,4483.0,5455.0,-66.0,693.0,-357.0,11.0,-51.0,50.0,9182.0,9362.0,7771.0,6007.0,-160.0,12.0,34.0,1.0
2022-05-03 16:58:23.437657-07:00,3325.3,867.9,2340.0,2225.0,1422.2,1376.6,1785.8,2055.4,3449.1,3447.9,2542.2,1691.0,1441.5,3454.0,1660.6,1981.6,3438.2,3437.0,703.6,1322.3,955.1,584.3,1458.0,2340.0,3449.1,3454.0,850.3,937.3,1718.6,1994.5,1967.7,1162.1,-12.0,-11.0,-31.0,8758.0,11783.0,4727.0,5527.0,280.0,457.0,-220.0,-4.0,0.0,17.0,9186.0,9359.0,7761.0,6019.0,21.0,-10.0,28.0,1.0
2022-05-03 16:58:23.497579-07:00,3325.3,867.9,2340.0,2225.0,1396.7,1380.3,1774.3,2141.2,3449.1,3447.9,2542.2,1691.0,1429.5,3435.8,1919.3,2100.7,3438.2,3440.7,704.4,1316.9,955.1,584.3,1458.0,2340.0,3449.1,3443.1,840.3,977.3,1718.6,1994.5,1967.7,1162.1,-20.0,-31.0,-23.0,8651.0,11801.0,4851.0,5550.0,274.0,70.0,47.0,12.0,-7.0,0.0,9182.0,9368.0,7746.0,6030.0,39.0,17.0,63.0,1.0
2022-05-03 16:58:23.528373-07:00,3282.5,833.6,2429.3,2230.1,1396.7,1380.3,1774.3,2141.2,3443.1,3438.2,2555.1,1658.7,1429.5,3435.8,1919.3,2100.7,3438.2,3440.7,704.4,1316.9,956.0,586.7,1492.1,2440.9,3449.1,3443.1,840.3,977.3,1680.5,2010.4,2016.4,1160.3,21.0,15.0,-11.0,8495.0,11854.0,4938.0,5601.0,405.0,308.0,62.0,4.0,15.0,0.0,9151.0,9397.0,7744.0,6033.0,66.0,-3.0,47.0,1.0
2022-05-03 16:58:23.588490-07:00,3282.5,833.6,2429.3,2230.1,1384.8,1376.6,1757.0,2133.1,3443.1,3438.2,2555.1,1658.7,1424.1,3445.5,1795.5,2073.5,3446.7,3444.3,703.6,1314.2,956.0,586.7,1492.1,2440.9,3450.4,3443.1,811.0,993.6,1680.5,2010.4,2016.4,1160.3,54.0,43.0,10.0,8306.0,11927.0,5052.0,5627.0,438.0,257.0,-29.0,8.0,9.0,-12.0,9126.0,9426.0,7746.0,6025.0,14.0,-23.0,19.0,1.0
2022-05-03 16:58:23.647629-07:00,3093.9,820.2,2221.9,2151.4,1384.8,1376.6,1757.0,2074.5,3447.9,3447.9,2466.4,1629.4,1424.1,3445.5,1795.5,2019.4,3449.1,3444.3,703.6,1314.2,956.8,589.1,1484.7,2451.5,3447.9,3443.1,811.0,993.6,1653.9,1930.2,1887.9,1158.6,-42.0,-2.0,13.0,8169.0,11961.0,5190.0,5629.0,398.0,69.0,-93.0,14.0,-20.0,19.0,9132.0,9425.0,7734.0,6032.0,23.0,6.0,13.0,1.0
2022-05-03 16:58:23.684046-07:00,2948.4,820.2,2221.9,2151.4,1345.8,1360.3,1703.3,2074.5,3450.4,3447.9,2466.4,1629.4,1416.7,3454.0,1608.7,2019.4,3449.1,3441.9,701.9,1316.9,956.8,589.1,1484.7,2405.0,3447.9,3449.1,831.9,1017.6,1653.9,1930.2,1887.9,1165.6,27.0,9.0,25.0,8045.0,12004.0,5330.0,5586.0,377.0,284.0,-228.0,0.0,-7.0,-2.0,9114.0,9442.0,7745.0,6020.0,51.0,2.0,-2.0,1.0
2022-05-03 16:58:23.737581-07:00,2948.4,806.0,2016.4,2079.5,1345.8,1360.3,1703.3,2005.5,3450.4,3449.1,2350.4,1604.9,1416.7,3454.0,1608.7,1964.7,3444.3,3441.9,701.9,1316.9,953.4,585.9,1474.6,2405.0,3449.1,3449.1,831.9,1017.6,1633.1,1879.1,1793.6,1165.6,-44.0,15.0,45.0,7987.0,11946.0,5513.0,5617.0,62.0,283.0,-248.0,14.0,-23.0,34.0,9116.0,9432.0,7747.0,6029.0,5.0,56.0,-27.0,1.0
2022-05-03 16:58:23.797635-07:00,2842.5,806.0,2016.4,2079.5,1312.4,1363.9,1656.8,2005.5,3450.4,3449.1,2350.4,1604.9,1404.0,3446.7,1497.7,1964.7,3444.3,3449.1,697.9,1314.2,953.4,585.9,1474.6,2365.1,3449.1,3458.9,817.7,1021.9,1633.1,1879.1,1793.6,1151.5,9.0,0.0,13.0,7947.0,11895.0,5654.0,5641.0,91.0,303.0,-208.0,1.0,-5.0,3.0,9098.0,9428.0,7777.0,6024.0,38.0,49.0,-30.0,1.0
2022-05-03 16:58:23.827520-07:00,2842.5,797.7,1898.7,2028.4,1312.4,1363.9,1656.8,1954.8,3450.4,3447.9,2275.5,1587.1,1404.0,3446.7,1497.7,1937.1,3440.7,3449.1,697.9,1314.2,951.7,588.3,1473.6,2365.1,3445.5,3458.9,817.7,1021.9,1619.9,1848.9,1735.8,1151.5,-25.0,-39.0,-6.0,7918.0,11845.0,5763.0,5677.0,80.0,153.0,-92.0,14.0,-22.0,25.0,9086.0,9419.0,7799.0,6028.0,75.0,61.0,-26.0,1.0
2022-05-03 16:58:23.917834-07:00,2800.1,797.7,1898.7,2028.4,1293.6,1359.4,1636.0,1954.8,3447.9,3447.9,2275.5,1587.1,1388.5,3444.3,1453.4,1937.1,3440.7,3451.6,699.5,1325.0,951.7,588.3,1473.6,2352.5,3445.5,3450.4,809.4,1010.8,1619.9,1848.9,1735.8,1154.2,20.0,-6.0,-23.0,7859.0,11893.0,5779.0,5642.0,192.0,-76.0,63.0,0.0,-2.0,-17.0,9047.0,9437.0,7839.0,6007.0,135.0,17.0,-13.0,1.0
2022-05-03 16:58:23.947698-07:00,2800.1,791.0,1845.9,2008.4,1293.6,1359.4,1619.0,1941.0,3447.9,3447.9,2229.1,1574.9,1388.5,3444.3,1443.3,1922.3,3438.2,3449.1,699.5,1325.0,951.7,587.5,1458.9,2352.5,3449.1,3446.7,809.4,1010.8,1604.9,1826.5,1705.3,1154.2,6.0,18.0,-2.0,7841.0,11909.0,5769.0,5643.0,-38.0,-4.0,24.0,6.0,3.0,15.0,9036.0,9449.0,7845.0,5996.0,-46.0,-19.0,7.0,1.0
2022-05-03 16:58:24.037708-07:00,2769.0,789.4,1845.9,2008.4,1280.1,1358.5,1619.0,1941.0,3446.7,3454.0,2229.1,1574.9,1389.4,3441.9,1443.3,1922.3,3438.2,3449.1,697.9,1316.0,951.7,587.5,1451.6,2333.7,3449.1,3446.7,811.0,1008.2,1604.9,1826.5,1679.5,1155.9,12.0,-6.0,16.0,7864.0,11912.0,5747.0,5628.0,-8.0,-74.0,13.0,5.0,-10.0,7.0,9048.0,9442.0,7835.0,6001.0,-14.0,-9.0,0.0,1.0
2022-05-03 16:58:24.039534-07:00,2769.0,789.4,1830.4,1996.5,1280.1,1358.5,1618.1,1958.8,3446.7,3454.0,2206.5,1570.2,1389.4,3441.9,1422.2,1912.4,3439.5,3443.1,697.9,1316.0,956.0,585.1,1451.6,2333.7,3444.3,3447.9,811.0,1008.2,1598.3,1819.7,1679.5,1155.9,-2.0,1.0,12.0,7874.0,11910.0,5727.0,5638.0,-58.0,5.0,37.0,10.0,-8.0,19.0,9054.0,9438.0,7827.0,6010.0,-40.0,-1.0,18.0,1.0
2022-05-03 16:58:24.097543-07:00,2752.5,784.4,1830.4,1996.5,1272.1,1351.2,1618.1,1958.8,3428.6,3443.1,2206.5,1570.2,1382.1,3444.3,1422.2,1912.4,3439.5,3443.1,701.1,1320.5,956.0,585.1,1453.4,2309.7,3444.3,3447.9,804.4,1001.3,1598.3,1819.7,1672.9,1151.5,11.0,5.0,6.0,7883.0,11915.0,5706.0,5637.0,-1.0,-44.0,15.0,6.0,-7.0,3.0,9057.0,9432.0,7823.0,6020.0,-11.0,11.0,0.0,1.0
2022-05-03 16:58:24.127609-07:00,2752.5,784.4,1806.1,1978.6,1272.1,1351.2,1605.8,1917.4,3428.6,3443.1,2193.2,1559.9,1382.1,3444.3,1404.0,1900.7,3438.2,3438.2,701.1,1320.5,958.5,581.8,1453.4,2309.7,3438.2,3444.3,804.4,1001.3,1590.8,1808.1,1672.9,1151.5,15.0,5.0,8.0,7897.0,11908.0,5700.0,5639.0,-72.0,31.0,-33.0,7.0,-1.0,5.0,9069.0,9420.0,7815.0,6031.0,-69.0,0.0,5.0,1.0
2022-05-03 16:58:24.217780-07:00,2728.2,779.4,1811.0,1978.6,1261.3,1354.0,1605.8,1917.4,3437.0,3444.3,2178.9,1559.9,1380.3,3445.5,1404.0,1900.7,3438.2,3438.2,703.6,1325.0,958.5,586.7,1448.8,2300.4,3438.2,3444.3,804.4,1001.3,1590.8,1801.3,1667.2,1144.5,-4.0,-10.0,9.0,7923.0,11877.0,5708.0,5658.0,-51.0,20.0,-26.0,9.0,-10.0,20.0,9088.0,9402.0,7802.0,6047.0,-48.0,2.0,0.0,1.0
2022-05-03 16:58:24.248739-07:00,2728.2,779.4,1811.0,1966.7,1261.3,1347.6,1598.3,1907.5,3437.0,3444.3,2178.9,1557.1,1380.3,3441.9,1397.6,1890.9,3444.3,3445.5,695.4,1325.0,960.2,586.7,1448.8,2300.4,3446.7,3441.9,806.0,1001.3,1584.2,1801.3,1667.2,1144.5,7.0,1.0,10.0,7922.0,11875.0,5709.0,5662.0,42.0,22.0,27.0,5.0,-7.0,7.0,9084.0,9405.0,7804.0,6046.0,49.0,10.0,-2.0,1.0
2022-05-03 16:58:24.307593-07:00,2717.2,786.9,1789.7,1966.7,1252.4,1347.6,1598.3,1907.5,3441.9,3443.1,2167.7,1557.1,1374.8,3441.9,1397.6,1890.9,3444.3,3445.5,695.4,1317.8,960.2,589.1,1447.0,2286.9,3446.7,3441.9,806.0,995.3,1584.2,1795.5,1659.6,1151.5,6.0,0.0,3.0,7911.0,11879.0,5711.0,5668.0,-1.0,-1.0,-1.0,7.0,-5.0,8.0,9077.0,9409.0,7809.0,6045.0,5.0,8.0,-5.0,1.0
2022-05-03 16:58:24.337666-07:00,2717.2,786.9,1789.7,1964.7,1252.4,1344.0,1594.6,1893.8,3441.9,3443.1,2167.7,1553.4,1374.8,3444.3,1389.4,1887.9,3438.2,3443.1,696.2,1317.8,953.4,589.1,1447.0,2286.9,3443.1,3439.5,804.4,995.3,1575.8,1795.5,1659.6,1151.5,3.0,-5.0,7.0,7911.0,11878.0,5711.0,5671.0,4.0,17.0,-3.0,6.0,-7.0,9.0,9076.0,9409.0,7808.0,6046.0,5.0,3.0,-2.0,1.0
2022-05-03 16:58:24.427615-07:00,2711.7,782.7,1782.9,1964.7,1254.2,1344.0,1594.6,1893.8,3438.2,3443.1,2163.6,1553.4,1378.5,3444.3,1389.4,1887.9,3438.2,3443.1,696.2,1315.1,953.4,581.8,1432.3,2294.2,3443.1,3439.5,804.4,997.9,1575.8,1787.8,1654.9,1149.8,1.0,-3.0,6.0,7910.0,11877.0,5712.0,5673.0,-6.0,-9.0,11.0,5.0,-5.0,11.0,9077.0,9408.0,7807.0,6047.0,1.0,-2.0,0.0,1.0
2022-05-03 16:58:24.429172-07:00,2711.7,782.7,1782.9,1952.9,1254.2,1346.7,1589.9,1881.1,3438.2,3443.1,2163.6,1559.9,1378.5,3451.6,1385.7,1881.1,3447.9,3440.7,699.5,1315.1,952.6,581.8,1432.3,2294.2,3450.4,3454.0,805.2,997.9,1574.9,1787.8,1654.9,1149.8,5.0,-2.0,4.0,7908.0,11880.0,5706.0,5676.0,11.0,-3.0,19.0,5.0,-9.0,13.0,9077.0,9409.0,7807.0,6047.0,14.0,3.0,2.0,1.0
2022-05-03 16:58:24.487499-07:00,2696.3,777.8,1774.3,1954.8,1247.1,1346.7,1589.9,1881.1,3443.1,3444.3,2152.4,1552.5,1371.2,3451.6,1385.7,1881.1,3447.9,3440.7,699.5,1319.6,950.9,585.9,1435.0,2274.5,3450.4,3454.0,805.2,991.9,1571.1,1788.7,1636.0,1156.8,4.0,-8.0,3.0,7905.0,11883.0,5699.0,5680.0,6.0,-1.0,19.0,2.0,-9.0,6.0,9076.0,9410.0,7807.0,6047.0,12.0,3.0,4.0,1.0
2022-05-03 16:58:24.547312-07:00,2696.3,777.8,1774.3,1954.8,1244.4,1351.2,1586.1,1875.2,3443.1,3444.3,2152.4,1552.5,1373.0,3446.7,1382.1,1878.1,3441.9,3443.1,702.8,1309.7,950.9,585.9,1435.0,2274.5,3449.1,3451.6,798.5,996.2,1571.1,1788.7,1636.0,1156.8,1.0,1.0,12.0,7905.0,11884.0,5696.0,5682.0,-14.0,-3.0,-1.0,7.0,-6.0,11.0,9076.0,9410.0,7807.0,6047.0,-1.0,2.0,-2.0,1.0
2022-05-03 16:58:24.607654-07:00,2688.6,773.6,1766.6,1938.0,1244.4,1351.2,1586.1,1875.2,3449.1,3446.7,2153.4,1552.5,1373.0,3446.7,1382.1,1878.1,3441.9,3443.1,702.8,1309.7,953.4,585.1,1440.5,2283.8,3449.1,3451.6,798.5,996.2,1567.4,1778.1,1636.9,1149.8,3.0,-8.0,6.0,7907.0,11884.0,5690.0,5683.0,12.0,-17.0,31.0,9.0,-12.0,10.0,9075.0,9411.0,7807.0,6047.0,19.0,1.0,3.0,1.0
2022-05-03 16:58:24.638204-07:00,2688.6,773.6,1766.6,1938.0,1239.9,1340.4,1573.9,1868.4,3449.1,3446.7,2153.4,1552.5,1368.5,3434.6,1384.8,1874.2,3446.7,3454.0,700.3,1317.8,953.4,585.1,1440.5,2283.8,3440.7,3447.9,801.9,988.5,1567.4,1778.1,1636.9,1149.8,9.0,8.0,9.0,7900.0,11895.0,5679.0,5683.0,-8.0,9.0,9.0,8.0,-3.0,9.0,9071.0,9416.0,7808.0,6044.0,-1.0,-6.0,2.0,1.0
2022-05-03 16:58:24.697669-07:00,2685.3,773.6,1764.6,1943.0,1239.9,1340.4,1573.9,1868.4,3447.9,3449.1,2135.1,1547.8,1368.5,3434.6,1384.8,1874.2,3446.7,3454.0,700.3,1317.8,949.2,581.8,1431.4,2277.6,3440.7,3447.9,801.9,988.5,1559.0,1776.2,1637.9,1149.8,3.0,-5.0,11.0,7905.0,11887.0,5680.0,5690.0,-19.0,5.0,-6.0,4.0,-11.0,16.0,9073.0,9412.0,7806.0,6048.0,-8.0,11.0,-3.0,1.0
2022-05-03 16:58:24.727631-07:00,2663.5,773.6,1764.6,1943.0,1239.1,1346.7,1576.8,1865.4,3446.7,3449.1,2135.1,1547.8,1369.4,3447.9,1374.8,1873.2,3440.7,3449.1,697.9,1325.0,949.2,581.8,1431.4,2266.2,3445.5,3450.4,804.4,1000.5,1559.0,1776.2,1637.9,1154.2,5.0,-2.0,1.0,7904.0,11887.0,5678.0,5693.0,17.0,6.0,22.0,4.0,-9.0,7.0,9073.0,9412.0,7806.0,6049.0,19.0,7.0,0.0,1.0
2022-05-03 16:58:24.788187-07:00,2663.5,767.8,1753.1,1942.0,1239.1,1346.7,1576.8,1861.5,3446.7,3449.1,2131.1,1545.0,1369.4,3447.9,1374.8,1864.5,3441.9,3449.1,697.9,1325.0,956.8,584.3,1426.8,2266.2,3443.1,3450.4,804.4,1000.5,1560.9,1768.5,1630.3,1154.2,5.0,0.0,5.0,7901.0,11889.0,5673.0,5698.0,-25.0,5.0,8.0,6.0,-9.0,10.0,9071.0,9414.0,7807.0,6049.0,-4.0,3.0,5.0,1.0
2022-05-03 16:58:24.847708-07:00,2664.6,767.8,1753.1,1942.0,1239.1,1340.4,1577.7,1861.5,3446.7,3449.1,2131.1,1545.0,1368.5,3454.0,1371.2,1864.5,3441.9,3445.5,702.8,1317.8,956.8,584.3,1426.8,2263.1,3443.1,3452.8,804.4,993.6,1560.9,1768.5,1630.3,1149.8,4.0,0.0,7.0,7905.0,11890.0,5666.0,5699.0,6.0,-19.0,16.0,4.0,-7.0,8.0,9072.0,9414.0,7806.0,6050.0,9.0,-1.0,-1.0,1.0
2022-05-03 16:58:24.877778-07:00,2664.6,766.2,1753.1,1934.1,1239.1,1340.4,1577.7,1856.7,3446.7,3441.9,2151.4,1547.8,1368.5,3454.0,1371.2,1866.4,3441.9,3445.5,702.8,1317.8,949.2,582.6,1433.2,2263.1,3449.1,3452.8,804.4,993.6,1557.1,1773.3,1622.8,1149.8,7.0,0.0,13.0,7907.0,11892.0,5659.0,5700.0,-12.0,-2.0,12.0,6.0,-9.0,12.0,9072.0,9413.0,7805.0,6051.0,-1.0,-3.0,2.0,1.0
2022-05-03 16:58:24.937662-07:00,2652.6,766.2,1753.1,1934.1,1229.3,1339.5,1568.3,1856.7,3449.1,3441.9,2151.4,1547.8,1360.3,3440.7,1371.2,1866.4,3441.9,3451.6,702.8,1306.1,949.2,582.6,1433.2,2253.8,3449.1,3456.4,797.7,989.3,1557.1,1773.3,1622.8,1154.2,1.0,-3.0,7.0,7907.0,11890.0,5659.0,5703.0,-8.0,-6.0,1.0,6.0,-12.0,14.0,9073.0,9413.0,7803.0,6052.0,-1.0,5.0,-2.0,1.0
2022-05-03 16:58:25.027631-07:00,2652.6,762.9,1747.3,1930.2,1229.3,1339.5,1568.3,1863.5,3449.1,3445.5,2128.0,1540.3,1360.3,3440.7,1371.2,1858.6,3443.1,3451.6,702.8,1306.1,953.4,585.9,1425.0,2253.8,3454.0,3456.4,797.7,989.3,1558.1,1770.4,1619.9,1154.2,7.0,-2.0,0.0,7905.0,11894.0,5655.0,5701.0,18.0,-18.0,23.0,5.0,-8.0,3.0,9071.0,9414.0,7804.0,6051.0,24.0,6.0,2.0,1.0
2022-05-03 16:58:25.028784-07:00,2658.0,766.2,1747.3,1930.2,1223.9,1344.9,1570.2,1863.5,3454.0,3446.7,2128.0,1540.3,1363.0,3450.4,1369.4,1858.6,3443.1,3445.5,702.8,1309.7,953.4,585.9,1425.0,2249.7,3454.0,3445.5,800.2,983.3,1558.1,1770.4,1619.0,1149.8,0.0,3.0,6.0,7902.0,11898.0,5651.0,5701.0,-21.0,-9.0,-2.0,3.0,-4.0,8.0,9069.0,9416.0,7805.0,6050.0,-9.0,-5.0,0.0,1.0
2022-05-03 16:58:25.087638-07:00,2658.0,766.2,1742.6,1940.0,1223.9,1344.9,1567.4,1854.7,3454.0,3446.7,2116.9,1545.0,1363.0,3450.4,1368.5,1862.5,3438.2,3441.9,702.8,1309.7,950.9,585.1,1425.0,2249.7,3443.1,3445.5,800.2,983.3,1551.5,1765.6,1619.0,1149.8,-1.0,-1.0,13.0,7905.0,11897.0,5648.0,5700.0,-1.0,2.0,4.0,5.0,-9.0,12.0,9071.0,9415.0,7803.0,6052.0,0.0,1.0,-1.0,1.0
2022-05-03 16:58:25.147779-07:00,2638.4,762.9,1742.6,1940.0,1228.4,1336.8,1567.4,1854.7,3451.6,3450.4,2116.9,1545.0,1365.7,3441.9,1368.5,1862.5,3438.2,3441.9,701.1,1309.7,950.9,585.1,1428.6,2253.8,3443.1,3445.5,797.7,995.3,1551.5,1765.6,1617.1,1155.0,3.0,0.0,8.0,7903.0,11898.0,5650.0,5701.0,3.0,11.0,-1.0,7.0,-9.0,13.0,9069.0,9415.0,7805.0,6053.0,9.0,7.0,0.0,1.0
2022-05-03 16:58:25.177724-07:00,2638.4,762.9,1735.8,1923.3,1228.4,1336.8,1571.1,1852.8,3451.6,3450.4,2112.8,1535.7,1365.7,3441.9,1363.0,1861.5,3433.4,3450.4,701.1,1309.7,953.4,589.1,1428.6,2253.8,3455.2,3451.6,797.7,995.3,1547.8,1766.6,1617.1,1155.0,5.0,-4.0,1.0,7902.0,11897.0,5652.0,5703.0,-4.0,6.0,-1.0,4.0,-9.0,7.0,9069.0,9415.0,7804.0,6054.0,3.0,5.0,-2.0,1.0
2022-05-03 16:58:25.237658-07:00,2630.8,758.7,1735.8,1923.3,1226.6,1341.3,1571.1,1852.8,3445.5,3449.1,2112.8,1535.7,1363.0,3447.9,1363.0,1861.5,3433.4,3450.4,699.5,1315.1,953.4,589.1,1429.5,2236.3,3455.2,3451.6,799.4,994.5,1547.8,1766.6,1614.3,1141.9,5.0,-4.0,6.0,7904.0,11899.0,5648.0,5699.0,0.0,-32.0,13.0,8.0,-8.0,4.0,9069.0,9415.0,7804.0,6054.0,5.0,-3.0,2.0,1.0
2022-05-03 16:58:25.297338-07:00,2630.8,758.7,1735.8,1917.4,1226.6,1338.6,1566.5,1849.8,3445.5,3449.1,2112.8,1533.8,1363.0,3446.7,1369.4,1855.7,3444.3,3451.6,698.7,1315.1,954.3,584.3,1429.5,2236.3,3438.2,3452.8,796.9,994.5,1547.8,1763.7,1614.3,1141.9,2.0,3.0,7.0,7903.0,11903.0,5642.0,5697.0,-14.0,3.0,0.0,7.0,-4.0,9.0,9067.0,9417.0,7805.0,6052.0,-8.0,1.0,1.0,1.0
2022-05-03 16:58:25.387624-07:00,2630.8,762.0,1729.1,1917.4,1222.2,1338.6,1566.5,1849.8,3450.4,3440.7,2105.8,1533.8,1363.0,3446.7,1369.4,1855.7,3444.3,3451.6,698.7,1313.3,954.3,585.9,1424.1,2238.4,3438.2,3452.8,796.9,995.3,1547.8,1764.6,1612.4,1149.8,4.0,-7.0,11.0,7909.0,11901.0,5639.0,5697.0,8.0,-15.0,3.0,4.0,-9.0,5.0,9068.0,9416.0,7805.0,6052.0,17.0,4.0,-4.0,1.0
2022-05-03 16:58:25.388813-07:00,2630.8,762.0,1729.1,1921.3,1222.2,1344.0,1558.1,1846.9,3450.4,3440.7,2105.8,1541.3,1363.0,3449.1,1357.6,1854.7,3449.1,3433.4,695.4,1313.3,955.1,585.9,1424.1,2238.4,3447.9,3449.1,801.9,995.3,1545.0,1764.6,1612.4,1149.8,7.0,1.0,4.0,7904.0,11905.0,5638.0,5696.0,-9.0,5.0,9.0,5.0,-4.0,6.0,9066.0,9418.0,7806.0,6051.0,2.0,6.0,-1.0,1.0
2022-05-03 16:58:25.477603-07:00,2628.6,759.6,1727.2,1921.3,1224.8,1344.0,1558.1,1846.9,3440.7,3446.7,2103.7,1541.3,1377.5,3449.1,1357.6,1854.7,3449.1,3433.4,695.4,1310.6,955.1,582.6,1419.5,2238.4,3447.9,3449.1,801.9,991.0,1545.0,1757.0,1604.0,1142.7,0.0,-8.0,6.0,7908.0,11900.0,5638.0,5701.0,-11.0,9.0,-7.0,3.0,-9.0,13.0,9067.0,9416.0,7805.0,6052.0,-10.0,0.0,-2.0,1.0
2022-05-03 16:58:25.478760-07:00,2628.6,759.6,1727.2,1922.3,1224.8,1331.4,1551.5,1838.2,3440.7,3446.7,2103.7,1540.3,1377.5,3443.1,1356.7,1853.7,3438.2,3439.5,702.8,1310.6,961.1,582.6,1419.5,2238.4,3454.0,3441.9,796.0,991.0,1540.3,1757.0,1604.0,1142.7,5.0,0.0,8.0,7908.0,11902.0,5635.0,5701.0,5.0,-10.0,16.0,7.0,-9.0,9.0,9067.0,9416.0,7805.0,6052.0,11.0,2.0,2.0,1.0
2022-05-03 16:58:25.568325-07:00,2615.6,765.3,1722.4,1922.3,1223.9,1331.4,1551.5,1838.2,3451.6,3438.2,2105.8,1540.3,1356.7,3443.1,1356.7,1853.7,3438.2,3439.5,702.8,1316.0,961.1,580.2,1425.0,2234.2,3454.0,3441.9,796.0,987.6,1540.3,1754.1,1608.7,1147.1,6.0,2.0,8.0,7906.0,11903.0,5632.0,5703.0,-1.0,-9.0,-2.0,6.0,-5.0,8.0,9067.0,9416.0,7805.0,6052.0,0.0,0.0,-4.0,1.0
2022-05-03 16:58:25.569336-07:00,2615.6,765.3,1722.4,1915.4,1216.0,1348.5,1555.3,1845.9,3451.6,3438.2,2105.8,1537.6,1363.0,3450.4,1355.8,1849.8,3443.1,3433.4,696.2,1309.7,954.3,580.2,1425.0,2234.2,3449.1,3447.9,793.5,986.7,1538.5,1754.1,1608.7,1147.1,2.0,-10.0,6.0,7913.0,11900.0,5628.0,5704.0,-13.0,-13.0,12.0,4.0,-12.0,9.0,9069.0,9415.0,7804.0,6054.0,-4.0,-1.0,2.0,1.0
2022-05-03 16:58:25.628377-07:00,2624.3,753.8,1722.4,1908.5,1216.0,1348.5,1555.3,1845.9,3449.1,3455.2,2100.7,1535.7,1363.0,3450.4,1355.8,1849.8,3443.1,3433.4,696.2,1309.7,955.1,585.1,1418.6,2225.0,3449.1,3447.9,793.5,986.7,1538.5,1752.1,1607.7,1148.0,10.0,11.0,10.0,7906.0,11906.0,5624.0,5705.0,5.0,18.0,2.0,5.0,0.0,6.0,9066.0,9418.0,7806.0,6051.0,2.0,-1.0,0.0,1.0
2022-05-03 16:58:25.747665-07:00,2624.3,753.8,1722.4,1908.5,1216.0,1340.4,1554.3,1840.1,3449.1,3455.2,2100.7,1535.7,1358.5,3444.3,1353.1,1847.9,3439.5,3454.0,698.7,1317.8,955.1,585.1,1418.6,2225.0,3445.5,3449.1,801.9,985.9,1538.5,1752.1,1607.7,1148.0,2.0,-16.0,7.0,7914.0,11898.0,5627.0,5708.0,-10.0,-8.0,-7.0,6.0,-15.0,13.0,9070.0,9414.0,7804.0,6054.0,-1.0,1.0,0.0,1.0
2022-05-03 16:58:25.808397-07:00,2617.8,748.8,1717.7,1906.6,1216.0,1340.4,1554.3,1840.1,3449.1,3446.7,2082.6,1532.9,1358.5,3444.3,1353.1,1847.9,3439.5,3454.0,698.7,1317.8,954.3,582.6,1420.4,2232.2,3445.5,3449.1,801.9,985.9,1538.5,1750.2,1603.0,1150.6,4.0,8.0,5.0,7907.0,11905.0,5624.0,5707.0,14.0,-15.0,14.0,0.0,-3.0,5.0,9065.0,9419.0,7807.0,6050.0,8.0,-1.0,1.0,1.0
2022-05-03 16:58:25.809239-07:00,2617.8,748.8,1717.7,1906.6,1218.6,1339.5,1549.7,1834.3,3449.1,3446.7,2082.6,1532.9,1356.7,3443.1,1349.4,1842.0,3438.2,3440.7,695.4,1315.1,954.3,582.6,1420.4,2232.2,3451.6,3449.1,793.5,986.7,1538.5,1750.2,1603.0,1150.6,2.0,-9.0,3.0,7911.0,11905.0,5620.0,5704.0,-9.0,-22.0,-2.0,7.0,-7.0,7.0,9066.0,9418.0,7806.0,6051.0,0.0,-3.0,0.0,1.0
2022-05-03 16:58:25.837908-07:00,2617.8,751.3,1718.6,1906.6,1218.6,1339.5,1549.7,1834.3,3449.1,3450.4,2097.7,1530.1,1356.7,3443.1,1349.4,1842.0,3438.2,3440.7,695.4,1315.1,953.4,579.4,1415.8,2228.1,3451.6,3449.1,793.5,986.7,1538.5,1736.8,1595.5,1144.5,6.0,4.0,9.0,7910.0,11910.0,5613.0,5701.0,7.0,-2.0,18.0,6.0,-6.0,9.0,9065.0,9419.0,7807.0,6050.0,6.0,-3.0,4.0,1.0
2022-05-03 16:58:25.897721-07:00,2605.8,751.3,1718.6,1906.6,1216.0,1333.2,1551.5,1835.2,3454.0,3450.4,2097.7,1530.1,1359.4,3444.3,1345.8,1837.2,3445.5,3434.6,704.4,1314.2,953.4,579.4,1415.8,2227.0,3447.9,3451.6,798.5,985.9,1538.5,1736.8,1595.5,1145.4,1.0,-3.0,8.0,7913.0,11909.0,5610.0,5703.0,-16.0,-5.0,3.0,6.0,-11.0,12.0,9066.0,9418.0,7806.0,6051.0,1.0,-1.0,0.0,1.0
2022-05-03 16:58:25.927753-07:00,2605.8,752.1,1717.7,1913.4,1216.0,1333.2,1551.5,1832.3,3454.0,3444.3,2089.6,1530.1,1359.4,3444.3,1345.8,1842.0,3443.1,3434.6,704.4,1314.2,953.4,583.5,1421.3,2227.0,3440.7,3451.6,798.5,985.9,1539.4,1750.2,1604.9,1145.4,6.0,0.0,5.0,7911.0,11911.0,5607.0,5704.0,9.0,-9.0,11.0,6.0,-5.0,4.0,9064.0,9419.0,7807.0,6050.0,7.0,0.0,0.0,1.0
2022-05-03 16:58:25.987659-07:00,2621.0,752.1,1717.7,1913.4,1214.2,1333.2,1554.3,1832.3,3445.5,3444.3,2089.6,1530.1,1353.1,3458.9,1347.6,1842.0,3443.1,3437.0,701.1,1308.8,953.4,583.5,1421.3,2216.8,3440.7,3449.1,798.5,984.2,1539.4,1750.2,1604.9,1145.4,0.0,-5.0,5.0,7912.0,11910.0,5606.0,5705.0,-7.0,-8.0,-1.0,5.0,-9.0,10.0,9065.0,9418.0,7807.0,6050.0,0.0,5.0,1.0,1.0
2022-05-03 16:58:26.017925-07:00,2621.0,752.1,1714.8,1905.6,1214.2,1333.2,1554.3,1834.3,3445.5,3440.7,2085.6,1530.1,1353.1,3458.9,1347.6,1833.3,3444.3,3437.0,701.1,1308.8,955.1,586.7,1417.6,2216.8,3447.9,3449.1,798.5,984.2,1532.0,1748.3,1597.4,1145.4,3.0,0.0,7.0,7912.0,11914.0,5602.0,5703.0,7.0,-9.0,15.0,4.0,-6.0,8.0,9064.0,9420.0,7808.0,6049.0,6.0,3.0,2.0,1.0
2022-05-03 16:58:26.077638-07:00,2604.8,752.1,1714.8,1905.6,1216.0,1329.6,1544.1,1834.3,3446.7,3440.7,2085.6,1530.1,1355.8,3455.2,1348.5,1833.3,3444.3,3440.7,695.4,1312.4,955.1,586.7,1417.6,2219.8,3447.9,3454.0,798.5,979.0,1532.0,1748.3,1597.4,1143.6,7.0,-1.0,6.0,7912.0,11914.0,5602.0,5703.0,-8.0,5.0,8.0,6.0,-8.0,9.0,9064.0,9420.0,7808.0,6049.0,3.0,6.0,3.0,1.0
2022-05-03 16:58:26.137634-07:00,2604.8,748.8,1714.8,1909.5,1216.0,1329.6,1544.1,1822.6,3446.7,3445.5,2079.5,1518.0,1355.8,3455.2,1337.7,1842.0,3450.4,3449.1,695.4,1312.4,945.8,581.0,1419.5,2219.8,3454.0,3458.9,798.5,979.0,1523.6,1751.2,1596.4,1143.6,4.0,-1.0,4.0,7912.0,11914.0,5600.0,5703.0,-3.0,-7.0,8.0,5.0,-5.0,7.0,9064.0,9420.0,7808.0,6049.0,3.0,-1.0,0.0,1.0
2022-05-03 16:58:26.167933-07:00,2598.3,751.3,1714.8,1909.5,1217.7,1337.7,1544.1,1822.6,3440.7,3455.2,2079.5,1518.0,1355.8,3444.3,1337.7,1842.0,3450.4,3449.1,702.8,1307.9,945.8,581.0,1419.5,2213.7,3454.0,3458.9,791.9,979.0,1523.6,1751.2,1595.5,1148.0,2.0,0.0,4.0,7912.0,11914.0,5600.0,5703.0,1.0,-3.0,7.0,8.0,-8.0,11.0,9064.0,9420.0,7808.0,6049.0,4.0,0.0,0.0,1.0
2022-05-03 16:58:26.227717-07:00,2598.3,751.3,1711.0,1901.6,1217.7,1337.7,1537.6,1825.5,3440.7,3455.2,2083.6,1532.0,1355.8,3444.3,1341.3,1838.2,3440.7,3435.8,702.8,1307.9,952.6,584.3,1419.5,2213.7,3446.7,3445.5,791.9,979.0,1530.1,1742.6,1595.5,1148.0,1.0,-6.0,-1.0,7912.0,11915.0,5598.0,5703.0,-2.0,-7.0,7.0,7.0,-8.0,9.0,9064.0,9420.0,7808.0,6049.0,4.0,0.0,3.0,1.0
2022-05-03 16:58:26.287662-07:00,2597.2,752.1,1711.0,1901.6,1208.9,1327.8,1537.6,1825.5,3444.3,3450.4,2083.6,1532.0,1354.9,3447.9,1341.3,1838.2,3440.7,3435.8,697.0,1310.6,952.6,584.3,1421.3,2217.8,3446.7,3445.5,794.4,979.9,1530.1,1742.6,1592.7,1141.0,1.0,0.0,11.0,7912.0,11915.0,5598.0,5703.0,-5.0,8.0,-5.0,6.0,-4.0,8.0,9064.0,9420.0,7808.0,6049.0,-4.0,2.0,-2.0,1.0
2022-05-03 16:58:26.318227-07:00,2597.2,752.1,1710.0,1897.7,1208.9,1327.8,1548.7,1838.2,3444.3,3450.4,2081.6,1531.0,1354.9,3447.9,1346.7,1838.2,3450.4,3440.7,697.0,1310.6,960.2,584.3,1421.3,2217.8,3454.0,3450.4,794.4,979.9,1527.3,1745.4,1592.7,1141.0,4.0,-5.0,6.0,7914.0,11914.0,5596.0,5705.0,7.0,-6.0,10.0,8.0,-9.0,9.0,9062.0,9421.0,7808.0,6048.0,17.0,7.0,0.0,1.0
2022-05-03 16:58:26.377673-07:00,2601.5,748.8,1710.0,1897.7,1211.5,1324.1,1548.7,1838.2,3437.0,3438.2,2081.6,1531.0,1358.5,3446.7,1346.7,1838.2,3450.4,3440.7,706.0,1315.1,960.2,584.3,1416.7,2209.6,3454.0,3450.4,794.4,980.7,1527.3,1745.4,1595.5,1148.9,3.0,0.0,7.0,7911.0,11915.0,5596.0,5706.0,-16.0,13.0,1.0,5.0,-6.0,11.0,9062.0,9421.0,7808.0,6048.0,-19.0,-4.0,1.0,1.0
2022-05-03 16:58:26.498138-07:00,2601.5,748.8,1709.1,1897.7,1211.5,1334.1,1545.9,1822.6,3437.0,3438.2,2074.5,1533.8,1358.5,3451.6,1344.9,1833.3,3444.3,3446.7,701.1,1315.1,948.3,577.8,1416.7,2209.6,3449.1,3468.6,795.2,980.7,1532.0,1744.5,1595.5,1148.9,4.0,-3.0,8.0,7915.0,11915.0,5593.0,5705.0,11.0,-10.0,6.0,6.0,-7.0,8.0,9062.0,9422.0,7809.0,6047.0,13.0,1.0,-2.0,1.0
2022-05-03 16:58:26.499454-07:00,2592.9,743.0,1704.3,1897.7,1206.2,1334.1,1545.9,1822.6,3445.5,3438.2,2077.5,1533.8,1349.4,3451.6,1344.9,1833.3,3444.3,3446.7,701.1,1317.8,948.3,585.9,1409.4,2212.7,3449.1,3468.6,795.2,985.9,1532.0,1735.8,1591.7,1148.0,6.0,-2.0,4.0,7915.0,11915.0,5593.0,5705.0,-9.0,-8.0,3.0,7.0,-9.0,8.0,9061.0,9422.0,7809.0,6047.0,-2.0,4.0,1.0,1.0
2022-05-03 16:58:26.528243-07:00,2592.9,743.0,1704.3,1900.7,1206.2,1331.4,1545.9,1811.9,3445.5,3438.2,2077.5,1521.8,1349.4,3443.1,1336.8,1831.3,3445.5,3446.7,697.9,1317.8,952.6,585.9,1409.4,2212.7,3437.0,3443.1,796.9,985.9,1522.7,1735.8,1591.7,1148.0,5.0,1.0,9.0,7915.0,11915.0,5593.0,5704.0,-4.0,-3.0,1.0,6.0,-8.0,16.0,9061.0,9422.0,7809.0,6047.0,-3.0,-1.0,0.0,1.0
2022-05-03 16:58:26.587651-07:00,2589.6,740.6,1707.2,1900.7,1207.1,1331.4,1545.9,1811.9,3449.1,3441.9,2070.5,1521.8,1351.2,3443.1,1336.8,1831.3,3445.5,3446.7,697.9,1314.2,952.6,583.5,1410.3,2204.5,3437.0,3443.1,796.9,979.0,1522.7,1740.6,1573.9,1140.1,1.0,-4.0,8.0,7918.0,11913.0,5591.0,5706.0,-9.0,-8.0,8.0,4.0,-8.0,13.0,9061.0,9422.0,7809.0,6047.0,4.0,1.0,1.0,1.0
2022-05-03 16:58:26.618160-07:00,2589.6,740.6,1707.2,1894.8,1207.1,1339.5,1547.8,1818.7,3449.1,3441.9,2070.5,1530.1,1351.2,3438.2,1340.4,1835.2,3445.5,3439.5,699.5,1314.2,950.0,583.5,1410.3,2204.5,3445.5,3454.0,794.4,979.0,1522.7,1740.6,1573.9,1140.1,1.0,19.0,26.0,7927.0,11907.0,5580.0,5717.0,-65.0,14.0,23.0,4.0,14.0,29.0,9064.0,9420.0,7807.0,6050.0,-12.0,7.0,-3.0,1.0
2022-05-03 16:58:26.707664-07:00,2592.9,743.0,1786.8,1907.5,1205.3,1339.5,1547.8,1818.7,3438.2,3454.0,2105.8,1527.3,1350.3,3438.2,1340.4,1835.2,3445.5,3439.5,699.5,1313.3,949.2,585.1,1404.0,2198.3,3445.5,3454.0,794.4,981.6,1523.6,1772.3,1642.6,1146.3,-15.0,-21.0,-35.0,7941.0,11873.0,5572.0,5776.0,-87.0,15.0,107.0,5.0,-10.0,14.0,9051.0,9421.0,7822.0,6048.0,74.0,30.0,-17.0,1.0
2022-05-03 16:58:26.737588-07:00,2592.9,743.0,1786.8,1907.5,1221.3,1342.2,1543.1,1817.8,3438.2,3454.0,2105.8,1527.3,1355.8,3445.5,1522.7,1862.5,3444.3,3443.1,699.5,1313.3,949.2,585.1,1404.0,2198.3,3447.9,3447.9,821.9,1019.4,1523.6,1772.3,1642.6,1146.3,-27.0,10.0,6.0,7989.0,11889.0,5478.0,5768.0,-194.0,-199.0,119.0,-6.0,-6.0,4.0,9050.0,9423.0,7822.0,6045.0,-3.0,-20.0,1.0,1.0
2022-05-03 16:58:26.798599-07:00,2598.3,744.7,2059.4,1980.6,1221.3,1342.2,1543.1,1817.8,3451.6,3449.1,2256.9,1552.5,1355.8,3445.5,1522.7,1862.5,3444.3,3443.1,699.5,1313.3,948.3,584.3,1428.6,2206.5,3447.9,3447.9,821.9,1019.4,1524.5,1856.7,1779.1,1140.1,19.0,-2.0,-8.0,8098.0,11907.0,5328.0,5719.0,-252.0,-484.0,124.0,12.0,-14.0,-19.0,9049.0,9426.0,7821.0,6043.0,12.0,-8.0,-7.0,1.0
2022-05-03 16:58:26.827572-07:00,2598.3,744.7,2059.4,1980.6,1235.5,1327.8,1548.7,1816.8,3451.6,3449.1,2256.9,1552.5,1375.7,3444.3,1710.0,1903.6,3438.2,3444.3,701.1,1317.8,948.3,584.3,1428.6,2206.5,3454.0,3449.1,851.1,1008.2,1524.5,1856.7,1779.1,1140.1,-5.0,6.0,25.0,8173.0,11920.0,5226.0,5679.0,-360.0,-185.0,52.0,5.0,-4.0,23.0,9079.0,9412.0,7793.0,6056.0,-167.0,-44.0,18.0,1.0
2022-05-03 16:58:26.887678-07:00,2638.4,741.4,2182.0,2016.4,1235.5,1327.8,1548.7,1816.8,3454.0,3449.1,2425.0,1580.5,1375.7,3444.3,1710.0,1903.6,3438.2,3444.3,701.1,1317.8,956.8,589.9,1430.5,2238.4,3454.0,3449.1,851.1,1008.2,1526.4,1952.9,1880.1,1140.1,17.0,2.0,40.0,8285.0,11891.0,5121.0,5673.0,-180.0,-256.0,75.0,12.0,-4.0,13.0,9099.0,9397.0,7780.0,6068.0,-15.0,10.0,-11.0,1.0
2022-05-03 16:58:26.917993-07:00,2638.4,741.4,2182.0,2016.4,1234.6,1344.9,1541.3,1801.3,3454.0,3449.1,2425.0,1580.5,1397.6,3449.1,1772.3,1955.8,3449.1,3450.4,701.1,1311.5,956.8,589.9,1430.5,2238.4,3454.0,3447.9,864.6,997.0,1526.4,1952.9,1880.1,1140.1,1.0,-2.0,27.0,8343.0,11881.0,5055.0,5667.0,-190.0,50.0,33.0,5.0,-7.0,17.0,9105.0,9384.0,7779.0,6079.0,-37.0,37.0,5.0,1.0
2022-05-03 16:58:26.977627-07:00,2693.0,748.0,2215.7,2064.5,1234.6,1344.9,1541.3,1824.6,3438.2,3440.7,2511.1,1614.3,1397.6,3449.1,1772.3,2011.4,3438.2,3450.4,701.1,1311.5,952.6,584.3,1441.5,2250.7,3449.1,3447.9,864.6,997.0,1520.8,2029.4,1933.1,1146.3,7.0,10.0,0.0,8395.0,11847.0,5010.0,5701.0,-139.0,-74.0,75.0,11.0,-3.0,1.0,9091.0,9377.0,7794.0,6092.0,38.0,67.0,-12.0,1.0
2022-05-03 16:58:27.037729-07:00,2812.4,748.0,2215.7,2064.5,1245.3,1354.9,1555.3,1824.6,3447.9,3440.7,2511.1,1614.3,1398.5,3447.9,1791.6,2011.4,3438.2,3455.2,701.9,1316.0,952.6,584.3,1441.5,2291.0,3449.1,3438.2,876.4,991.0,1520.8,2029.4,1933.1,1141.9,-9.0,-2.0,-6.0,8459.0,11840.0,4925.0,5697.0,-311.0,-287.0,132.0,-1.0,-4.0,11.0,9090.0,9360.0,7805.0,6106.0,-69.0,16.0,-10.0,1.0
2022-05-03 16:58:27.067995-07:00,2812.4,749.6,2248.7,2126.0,1245.3,1354.9,1555.3,1847.9,3447.9,3445.5,2560.5,1657.7,1398.5,3447.9,1791.6,2063.5,3441.9,3455.2,701.9,1316.0,953.4,582.6,1459.8,2291.0,3449.1,3438.2,876.4,991.0,1510.6,2095.7,1983.6,1141.9,22.0,17.0,1.0,8568.0,11844.0,4754.0,5670.0,-228.0,-348.0,202.0,2.0,0.0,1.0,9104.0,9351.0,7799.0,6106.0,-22.0,-22.0,-13.0,1.0
2022-05-03 16:58:27.127562-07:00,3145.0,749.6,2248.7,2126.0,1280.1,1369.4,1572.1,1847.9,3446.7,3445.5,2560.5,1657.7,1413.1,3445.5,1769.5,2063.5,3441.9,3440.7,703.6,1323.2,953.4,582.6,1459.8,2324.3,3449.1,3454.0,883.9,979.0,1510.6,2095.7,1983.6,1143.6,43.0,29.0,9.0,8641.0,11865.0,4623.0,5624.0,-169.0,-89.0,-70.0,19.0,12.0,18.0,9134.0,9333.0,7789.0,6102.0,-88.0,-43.0,-65.0,1.0
2022-05-03 16:58:27.187618-07:00,3145.0,750.5,2188.1,2153.4,1280.1,1369.4,1572.1,2055.4,3446.7,3456.4,2545.4,1709.1,1413.1,3445.5,1769.5,2065.5,3445.5,3440.7,703.6,1323.2,952.6,581.0,1460.8,2324.3,3450.4,3454.0,883.9,979.0,1548.7,2095.7,1968.7,1143.6,46.0,16.0,21.0,8713.0,11820.0,4611.0,5617.0,-11.0,-2.0,-125.0,7.0,-5.0,1.0,9143.0,9328.0,7817.0,6059.0,128.0,-30.0,-132.0,1.0
2022-05-03 16:58:27.218106-07:00,3176.5,840.3,2188.1,2153.4,1342.2,1384.8,1711.0,2055.4,3452.8,3445.5,2545.4,1709.1,1423.1,3445.5,1729.1,2065.5,3445.5,3433.4,706.9,1321.4,952.6,581.0,1460.8,2400.8,3450.4,3446.7,877.2,961.1,1548.7,2095.7,1931.1,1154.2,-24.0,-34.0,-16.0,8732.0,11797.0,4662.0,5593.0,-56.0,22.0,-135.0,5.0,-14.0,25.0,9141.0,9323.0,7859.0,6014.0,42.0,13.0,-100.0,1.0
2022-05-03 16:58:27.277583-07:00,3176.5,840.3,2118.9,2131.1,1342.2,1384.8,1764.6,2094.7,3452.8,3445.5,2545.4,1719.6,1423.1,3445.5,1692.9,2040.4,3445.5,3443.1,706.9,1321.4,952.6,582.6,1460.8,2400.8,3449.1,3454.0,877.2,961.1,1695.7,2058.4,1931.1,1154.2,-2.0,-34.0,-43.0,8770.0,11786.0,4652.0,5567.0,-33.0,-236.0,83.0,-2.0,-24.0,-9.0,9142.0,9320.0,7881.0,5991.0,81.0,-18.0,-35.0,1.0
2022-05-03 16:58:27.337676-07:00,2933.7,814.4,2118.9,2131.1,1374.8,1382.1,1764.6,2094.7,3443.1,3447.9,2545.4,1719.6,1445.1,3450.4,1692.9,2040.4,3445.5,3443.1,707.7,1315.1,952.6,582.6,1465.4,2440.9,3449.1,3454.0,873.8,964.5,1695.7,2058.4,1916.4,1141.0,23.0,26.0,0.0,8800.0,11807.0,4593.0,5521.0,-95.0,-20.0,-92.0,1.0,11.0,-13.0,9146.0,9334.0,7882.0,5961.0,-21.0,-71.0,-35.0,1.0
2022-05-03 16:58:27.367961-07:00,2933.7,814.4,2071.5,2115.9,1374.8,1382.1,1771.4,2082.6,3443.1,3447.9,2516.5,1710.0,1445.1,3450.4,1680.5,2011.4,3449.1,3441.9,707.7,1315.1,959.4,582.6,1465.4,2440.9,3447.9,3450.4,873.8,964.5,1798.4,2043.4,1916.4,1141.0,-3.0,-23.0,16.0,8859.0,11776.0,4589.0,5498.0,-142.0,-150.0,-76.0,9.0,-13.0,22.0,9185.0,9318.0,7864.0,5950.0,-83.0,-63.0,-50.0,1.0
2022-05-03 16:58:27.427638-07:00,2790.1,796.0,2071.5,2115.9,1400.3,1385.7,1771.4,2082.6,3449.1,3446.7,2516.5,1710.0,1441.5,3447.9,1680.5,2011.4,3449.1,3441.9,704.4,1318.7,959.4,582.6,1465.4,2448.3,3447.9,3450.4,864.6,961.1,1798.4,2043.4,1901.6,1154.2,-15.0,-17.0,12.0,8920.0,11754.0,4567.0,5465.0,-93.0,-41.0,-9.0,6.0,-10.0,34.0,9218.0,9305.0,7844.0,5945.0,-51.0,-47.0,-1.0,1.0
2022-05-03 16:58:27.517861-07:00,2790.1,796.0,2040.4,2091.6,1400.3,1385.7,1762.7,2076.5,3449.1,3446.7,2498.3,1700.5,1441.5,3447.9,1662.5,2002.5,3449.1,3435.8,704.4,1318.7,956.0,585.1,1465.4,2448.3,3445.5,3443.1,864.6,961.1,1812.9,2027.4,1901.6,1154.2,24.0,4.0,18.0,8950.0,11756.0,4524.0,5446.0,-31.0,-112.0,5.0,5.0,-13.0,0.0,9232.0,9304.0,7831.0,5943.0,1.0,-27.0,-14.0,1.0
2022-05-03 16:58:27.578253-07:00,2719.4,781.9,2025.4,2091.6,1412.2,1382.1,1762.7,2076.5,3447.9,3450.4,2490.8,1700.5,1436.0,3450.4,1662.5,2002.5,3449.1,3435.8,713.4,1321.4,956.0,584.3,1465.4,2479.1,3445.5,3443.1,867.1,956.0,1812.9,2020.4,1890.9,1154.2,-7.0,-9.0,5.0,8972.0,11754.0,4511.0,5426.0,-52.0,-35.0,-26.0,7.0,-5.0,24.0,9240.0,9302.0,7830.0,5936.0,-29.0,-9.0,-20.0,1.0
2022-05-03 16:58:27.607675-07:00,2719.4,781.9,2025.4,2091.6,1412.2,1390.3,1782.9,2057.4,3447.9,3450.4,2490.8,1701.4,1436.0,3445.5,1656.8,1993.5,3449.1,3449.1,708.5,1321.4,952.6,584.3,1465.4,2479.1,3449.1,3447.9,868.8,956.0,1829.4,2020.4,1890.9,1154.2,7.0,-11.0,15.0,8989.0,11752.0,4496.0,5414.0,-8.0,-17.0,-13.0,2.0,-19.0,2.0,9249.0,9293.0,7828.0,5937.0,2.0,-4.0,-9.0,1.0
2022-05-03 16:58:27.609444-07:00,2664.6,774.5,2004.5,2091.6,1397.6,1390.3,1782.9,2057.4,3444.3,3449.1,2477.0,1701.4,1443.3,3445.5,1656.8,1993.5,3449.1,3449.1,708.5,1314.2,952.6,583.5,1465.4,2489.8,3449.1,3447.9,868.8,959.4,1829.4,2015.4,1874.2,1156.8,5.0,4.0,2.0,8995.0,11749.0,4489.0,5415.0,-12.0,-31.0,11.0,8.0,-3.0,9.0,9251.0,9292.0,7827.0,5938.0,-3.0,-8.0,-2.0,1.0
2022-05-03 16:58:27.668388-07:00,2664.6,774.5,2004.5,2066.5,1397.6,1397.6,1781.0,2048.4,3444.3,3449.1,2477.0,1698.6,1443.3,3446.7,1653.0,1981.6,3444.3,3444.3,710.1,1314.2,954.3,583.5,1465.4,2489.8,3449.1,3438.2,868.8,959.4,1806.1,2015.4,1874.2,1156.8,-1.0,-11.0,14.0,8999.0,11745.0,4490.0,5418.0,-13.0,44.0,-16.0,4.0,-14.0,15.0,9251.0,9291.0,7826.0,5940.0,-10.0,10.0,-1.0,1.0
2022-05-03 16:58:27.757609-07:00,2612.3,758.7,1993.5,2066.5,1393.0,1397.6,1781.0,2048.4,3454.0,3438.2,2461.0,1698.6,1436.9,3446.7,1653.0,1981.6,3444.3,3444.3,710.1,1316.9,954.3,583.5,1466.3,2479.1,3449.1,3438.2,868.8,959.4,1806.1,1994.5,1872.3,1161.2,6.0,1.0,4.0,8996.0,11745.0,4488.0,5425.0,17.0,-3.0,24.0,6.0,-6.0,4.0,9251.0,9290.0,7825.0,5942.0,23.0,8.0,6.0,1.0
2022-05-03 16:58:27.758873-07:00,2612.3,758.7,1993.5,2071.5,1390.3,1386.6,1765.6,2043.4,3454.0,3438.2,2461.0,1699.5,1434.1,3444.3,1634.1,1979.6,3441.9,3443.1,712.6,1324.1,956.0,583.5,1466.3,2479.1,3444.3,3450.4,866.3,956.0,1782.9,1994.5,1872.3,1161.2,0.0,-11.0,0.0,8993.0,11748.0,4484.0,5426.0,-15.0,-2.0,2.0,8.0,-7.0,10.0,9248.0,9292.0,7827.0,5942.0,-13.0,7.0,3.0,1.0
2022-05-03 16:58:27.847745-07:00,2576.6,744.7,1988.5,2064.5,1390.3,1386.6,1765.6,2043.4,3445.5,3447.9,2462.1,1696.7,1434.1,3444.3,1634.1,1979.6,3441.9,3443.1,712.6,1324.1,962.0,589.1,1458.9,2457.9,3444.3,3450.4,866.3,956.0,1776.2,1985.6,1868.4,1161.2,8.0,0.0,10.0,8993.0,11751.0,4474.0,5428.0,0.0,0.0,16.0,4.0,-7.0,6.0,9249.0,9292.0,7825.0,5944.0,-1.0,-2.0,9.0,1.0
2022-05-03 16:58:27.877665-07:00,2576.6,744.7,1988.5,2064.5,1384.8,1386.6,1752.1,2027.4,3445.5,3447.9,2462.1,1696.7,1425.9,3445.5,1637.9,1971.7,3440.7,3435.8,709.3,1316.0,962.0,589.1,1458.9,2457.9,3444.3,3449.1,863.7,950.9,1776.2,1985.6,1868.4,1161.2,9.0,4.0,0.0,8993.0,11752.0,4472.0,5427.0,-5.0,-20.0,5.0,5.0,-4.0,7.0,9249.0,9291.0,7825.0,5944.0,-3.0,3.0,-2.0,1.0
2022-05-03 16:58:27.937600-07:00,2541.1,744.7,1975.6,2060.5,1384.8,1386.6,1752.1,2027.4,3438.2,3449.1,2440.9,1691.0,1425.9,3445.5,1637.9,1971.7,3440.7,3435.8,709.3,1316.0,950.9,581.8,1456.2,2443.0,3444.3,3449.1,863.7,950.9,1760.8,1976.6,1868.4,1153.3,6.0,-7.0,9.0,8995.0,11753.0,4469.0,5424.0,-1.0,0.0,-6.0,7.0,-7.0,11.0,9250.0,9291.0,7824.0,5945.0,-3.0,-1.0,-2.0,1.0
2022-05-03 16:58:27.968008-07:00,2541.1,744.7,1975.6,2060.5,1373.9,1392.1,1760.8,2027.4,3438.2,3449.1,2440.9,1691.0,1426.8,3452.8,1638.8,1967.7,3449.1,3440.7,719.2,1318.7,950.9,581.8,1456.2,2443.0,3445.5,3446.7,863.7,948.3,1760.8,1976.6,1868.4,1153.3,10.0,2.0,2.0,8995.0,11756.0,4462.0,5423.0,9.0,-25.0,17.0,7.0,-10.0,4.0,9250.0,9291.0,7823.0,5946.0,13.0,1.0,3.0,1.0
2022-05-03 16:58:28.028331-07:00,2533.6,747.2,1975.6,2053.4,1373.9,1392.1,1760.8,2027.4,3454.0,3444.3,2429.3,1692.9,1426.8,3452.8,1638.8,1967.7,3449.1,3440.7,719.2,1318.7,953.4,582.6,1454.3,2434.6,3445.5,3446.7,863.7,948.3,1745.4,1985.6,1878.1,1152.4,4.0,-14.0,13.0,8998.0,11756.0,4459.0,5421.0,-15.0,3.0,-13.0,6.0,-15.0,8.0,9249.0,9292.0,7823.0,5946.0,-10.0,-5.0,5.0,1.0
2022-05-03 16:58:28.057551-07:00,2518.6,747.2,1975.6,2053.4,1376.6,1390.3,1757.0,2014.4,3452.8,3444.3,2429.3,1692.9,1430.5,3454.0,1632.2,1968.7,3441.9,3440.7,707.7,1317.8,953.4,582.6,1454.3,2429.3,3451.6,3443.1,866.3,954.3,1745.4,1985.6,1878.1,1170.0,4.0,-7.0,17.0,8996.0,11754.0,4460.0,5429.0,9.0,16.0,18.0,4.0,-15.0,7.0,9249.0,9292.0,7820.0,5949.0,6.0,12.0,20.0,1.0
2022-05-03 16:58:28.118362-07:00,2518.6,737.3,1966.7,2046.4,1376.6,1390.3,1757.0,2012.4,3452.8,3455.2,2443.0,1685.3,1430.5,3454.0,1632.2,1958.8,3443.1,3440.7,707.7,1317.8,951.7,581.0,1457.1,2429.3,3454.0,3443.1,866.3,954.3,1737.8,1981.6,1863.5,1170.0,10.0,7.0,-1.0,8991.0,11756.0,4447.0,5442.0,-6.0,-31.0,59.0,6.0,-8.0,1.0,9243.0,9296.0,7815.0,5960.0,15.0,10.0,30.0,1.0
2022-05-03 16:58:28.177695-07:00,2524.0,737.3,1966.7,2046.4,1369.4,1382.1,1745.4,2012.4,3454.0,3455.2,2443.0,1685.3,1420.4,3446.7,1631.3,1958.8,3443.1,3444.3,706.0,1319.6,951.7,581.0,1457.1,2420.8,3454.0,3449.1,865.4,962.0,1737.8,1981.6,1863.5,1145.4,16.0,16.0,2.0,8988.0,11766.0,4424.0,5443.0,-1.0,-29.0,20.0,8.0,-2.0,0.0,9236.0,9303.0,7812.0,5963.0,5.0,0.0,3.0,1.0
2022-05-03 16:58:28.207735-07:00,2524.0,739.7,1966.7,2038.4,1369.4,1382.1,1745.4,1996.5,3454.0,3441.9,2433.5,1690.0,1420.4,3446.7,1631.3,1955.8,3447.9,3444.3,706.0,1319.6,955.1,582.6,1443.3,2420.8,3447.9,3449.1,865.4,962.0,1729.1,1967.7,1861.5,1145.4,-3.0,-19.0,5.0,8993.0,11763.0,4420.0,5445.0,-17.0,-9.0,9.0,10.0,-15.0,12.0,9238.0,9301.0,7810.0,5966.0,-4.0,-6.0,9.0,1.0
2022-05-03 16:58:28.267964-07:00,2497.2,739.7,1966.7,2038.4,1360.3,1383.9,1749.3,1996.5,3446.7,3441.9,2433.5,1690.0,1427.7,3449.1,1629.4,1955.8,3447.9,3449.1,705.2,1313.3,955.1,582.6,1443.3,2415.5,3447.9,3447.9,861.2,949.2,1729.1,1967.7,1861.5,1155.9,8.0,5.0,9.0,8993.0,11765.0,4412.0,5448.0,0.0,5.0,9.0,6.0,-7.0,8.0,9236.0,9303.0,7806.0,5970.0,0.0,0.0,17.0,1.0
2022-05-03 16:58:28.328237-07:00,2497.2,739.7,1961.8,2042.4,1360.3,1383.9,1735.8,1999.5,3446.7,3440.7,2432.4,1689.1,1427.7,3449.1,1629.4,1957.8,3443.1,3449.1,705.2,1313.3,952.6,581.8,1456.2,2415.5,3458.9,3449.1,861.2,949.2,1714.8,1968.7,1853.7,1155.9,-1.0,-10.0,9.0,8991.0,11760.0,4417.0,5459.0,-2.0,31.0,18.0,4.0,-10.0,16.0,9234.0,9305.0,7802.0,5977.0,3.0,12.0,20.0,1.0
2022-05-03 16:58:28.358210-07:00,2494.0,737.3,1961.8,2042.4,1352.1,1379.4,1735.8,1999.5,3443.1,3446.7,2432.4,1689.1,1420.4,3449.1,1629.4,1957.8,3443.1,3449.1,713.4,1313.3,952.6,581.8,1439.6,2408.1,3458.9,3449.1,862.9,945.8,1714.8,1968.7,1854.7,1153.3,12.0,11.0,9.0,8981.0,11767.0,4407.0,5467.0,13.0,2.0,27.0,7.0,0.0,2.0,9225.0,9312.0,7800.0,5982.0,12.0,15.0,14.0,1.0
2022-05-03 16:58:28.447980-07:00,2494.0,737.3,1960.8,2043.4,1352.1,1379.4,1735.8,1990.5,3443.1,3446.7,2417.6,1679.5,1420.4,3449.1,1626.5,1955.8,3437.0,3437.0,713.4,1313.3,956.8,583.5,1439.6,2408.1,3441.9,3447.9,862.9,945.8,1722.4,1957.8,1854.7,1153.3,-4.0,-1.0,-3.0,8979.0,11765.0,4410.0,5473.0,-2.0,12.0,1.0,6.0,-11.0,12.0,9223.0,9312.0,7800.0,5984.0,5.0,7.0,8.0,1.0
2022-05-03 16:58:28.477658-07:00,2485.5,738.1,1960.8,2043.4,1361.2,1383.0,1735.8,1990.5,3440.7,3439.5,2417.6,1679.5,1418.6,3449.1,1626.5,1955.8,3437.0,3437.0,711.8,1317.8,956.8,583.5,1442.4,2389.2,3441.9,3447.9,854.5,948.3,1722.4,1957.8,1849.8,1155.0,2.0,-3.0,4.0,8978.0,11766.0,4406.0,5476.0,-3.0,-7.0,20.0,4.0,-11.0,6.0,9223.0,9313.0,7799.0,5985.0,2.0,-3.0,10.0,1.0
2022-05-03 16:58:28.507823-07:00,2485.5,738.1,1953.9,2036.4,1361.2,1383.0,1724.4,1982.6,3440.7,3439.5,2418.7,1688.1,1418.6,3449.1,1621.8,1955.8,3438.2,3440.7,711.8,1317.8,952.6,579.4,1442.4,2389.2,3451.6,3443.1,854.5,948.3,1716.7,1967.7,1849.8,1155.0,2.0,0.0,-1.0,8977.0,11768.0,4403.0,5475.0,-7.0,-15.0,2.0,7.0,-7.0,10.0,9221.0,9314.0,7799.0,5986.0,-6.0,-2.0,0.0,1.0
2022-05-03 16:58:28.568003-07:00,2463.2,738.9,1953.9,2036.4,1350.3,1376.6,1724.4,1982.6,3438.2,3447.9,2418.7,1688.1,1419.5,3449.1,1621.8,1955.8,3438.2,3440.7,706.9,1316.0,952.6,579.4,1441.5,2400.8,3451.6,3443.1,856.2,946.6,1716.7,1967.7,1848.9,1149.8,7.0,-4.0,4.0,8979.0,11773.0,4393.0,5469.0,-1.0,-22.0,12.0,8.0,-16.0,0.0,9222.0,9315.0,7798.0,5985.0,3.0,-13.0,4.0,1.0
2022-05-03 16:58:28.627722-07:00,2463.2,738.9,1948.9,2036.4,1350.3,1378.5,1724.4,1987.5,3438.2,3447.9,2417.6,1685.3,1419.5,3451.6,1622.8,1953.9,3444.3,3449.1,713.4,1316.0,957.7,585.9,1441.5,2400.8,3440.7,3445.5,858.7,946.6,1705.3,1958.8,1848.9,1149.8,1.0,0.0,5.0,8981.0,11777.0,4384.0,5464.0,-11.0,-34.0,16.0,6.0,-7.0,6.0,9223.0,9315.0,7797.0,5985.0,-5.0,-9.0,4.0,1.0
2022-05-03 16:58:28.717818-07:00,2465.3,734.8,1943.0,2036.4,1354.9,1378.5,1724.4,1987.5,3443.1,3437.0,2413.4,1685.3,1409.4,3451.6,1622.8,1953.9,3444.3,3449.1,713.4,1314.2,957.7,584.3,1436.9,2392.4,3440.7,3445.5,858.7,939.0,1705.3,1958.8,1844.0,1152.4,2.0,0.0,11.0,8983.0,11777.0,4379.0,5464.0,-4.0,6.0,2.0,6.0,-8.0,16.0,9223.0,9315.0,7797.0,5985.0,0.0,0.0,4.0,1.0
2022-05-03 16:58:28.719064-07:00,2465.3,734.8,1943.0,2035.4,1354.9,1383.0,1733.9,1983.6,3443.1,3437.0,2413.4,1688.1,1409.4,3458.9,1612.4,1948.9,3441.9,3447.9,713.4,1314.2,954.3,584.3,1436.9,2392.4,3445.5,3454.0,858.7,939.0,1703.3,1958.8,1844.0,1152.4,4.0,0.0,4.0,8983.0,11779.0,4376.0,5463.0,-7.0,-14.0,11.0,5.0,-10.0,9.0,9223.0,9315.0,7797.0,5985.0,1.0,-1.0,-1.0,1.0
2022-05-03 16:58:28.778253-07:00,2465.3,729.9,1944.0,2035.4,1355.8,1383.0,1733.9,1983.6,3454.0,3454.0,2408.1,1688.1,1427.7,3458.9,1612.4,1948.9,3441.9,3447.9,713.4,1320.5,954.3,581.8,1436.9,2374.5,3445.5,3454.0,858.7,942.4,1703.3,1953.9,1843.0,1153.3,9.0,0.0,7.0,8984.0,11777.0,4379.0,5463.0,1.0,20.0,-20.0,7.0,-7.0,5.0,9223.0,9315.0,7797.0,5985.0,-2.0,-1.0,-7.0,1.0
2022-05-03 16:58:28.807760-07:00,2465.3,729.9,1944.0,2031.4,1355.8,1376.6,1728.2,1985.6,3454.0,3454.0,2408.1,1681.4,1427.7,3452.8,1616.2,1951.9,3447.9,3435.8,711.8,1320.5,955.1,581.8,1436.9,2374.5,3444.3,3438.2,855.3,942.4,1700.5,1953.9,1843.0,1153.3,9.0,-4.0,2.0,8985.0,11777.0,4376.0,5463.0,-3.0,-19.0,21.0,7.0,-9.0,3.0,9223.0,9315.0,7797.0,5985.0,4.0,-2.0,8.0,1.0
2022-05-03 16:58:28.868607-07:00,2473.8,724.9,1943.0,2030.4,1361.2,1376.6,1728.2,1985.6,3449.1,3449.1,2410.3,1682.4,1414.9,3452.8,1616.2,1951.9,3447.9,3435.8,711.8,1317.8,960.2,589.1,1436.9,2382.9,3444.3,3438.2,855.3,939.8,1693.8,1956.8,1841.1,1143.6,2.0,1.0,5.0,8987.0,11777.0,4373.0,5463.0,-13.0,-4.0,4.0,2.0,-9.0,10.0,9223.0,9314.0,7797.0,5985.0,-10.0,-4.0,4.0,1.0
2022-05-03 16:58:28.927609-07:00,2473.8,724.9,1943.0,2030.4,1344.0,1375.7,1722.4,1976.6,3449.1,3449.1,2410.3,1682.4,1422.2,3449.1,1618.1,1935.1,3440.7,3451.6,703.6,1313.3,960.2,589.1,1436.9,2382.9,3445.5,3449.1,854.5,941.5,1693.8,1956.8,1841.1,1143.6,10.0,-1.0,14.0,8987.0,11781.0,4363.0,5463.0,-8.0,-14.0,25.0,9.0,-15.0,9.0,9224.0,9313.0,7796.0,5986.0,0.0,-3.0,6.0,1.0
2022-05-03 16:58:28.957540-07:00,2450.4,729.9,1944.0,2019.4,1344.0,1375.7,1722.4,1976.6,3439.5,3438.2,2405.0,1679.5,1422.2,3449.1,1618.1,1935.1,3440.7,3451.6,703.6,1313.3,958.5,583.5,1433.2,2373.4,3445.5,3449.1,854.5,941.5,1684.3,1953.9,1843.0,1153.3,8.0,3.0,9.0,8989.0,11779.0,4363.0,5465.0,-13.0,16.0,-14.0,9.0,-8.0,8.0,9225.0,9312.0,7795.0,5987.0,-10.0,5.0,-4.0,1.0
2022-05-03 16:58:29.017915-07:00,2450.4,729.9,1944.0,2019.4,1348.5,1373.0,1721.5,1979.6,3439.5,3438.2,2405.0,1679.5,1418.6,3445.5,1610.5,1944.0,3439.5,3449.1,707.7,1323.2,958.5,583.5,1433.2,2373.4,3458.9,3455.2,855.3,944.1,1684.3,1953.9,1843.0,1153.3,5.0,-2.0,7.0,8988.0,11778.0,4365.0,5466.0,4.0,-3.0,5.0,6.0,-9.0,7.0,9225.0,9312.0,7796.0,5987.0,8.0,5.0,-1.0,1.0
2022-05-03 16:58:29.077549-07:00,2439.8,726.6,1933.1,2024.4,1348.5,1373.0,1721.5,1979.6,3447.9,3446.7,2388.1,1676.7,1418.6,3445.5,1610.5,1944.0,3439.5,3449.1,707.7,1323.2,956.0,580.2,1432.3,2383.9,3458.9,3455.2,855.3,944.1,1684.3,1948.9,1835.2,1148.0,0.0,-3.0,1.0,8989.0,11777.0,4366.0,5464.0,1.0,-4.0,-5.0,5.0,-8.0,12.0,9225.0,9312.0,7796.0,5987.0,2.0,0.0,-3.0,1.0
2022-05-03 16:58:29.137891-07:00,2439.8,726.6,1933.1,2024.4,1346.7,1383.0,1729.1,1982.6,3447.9,3446.7,2388.1,1676.7,1417.6,3450.4,1615.2,1949.9,3444.3,3441.9,711.8,1313.3,956.0,580.2,1432.3,2383.9,3454.0,3445.5,857.0,938.1,1684.3,1948.9,1835.2,1148.0,11.0,-1.0,7.0,8990.0,11779.0,4364.0,5462.0,-6.0,-3.0,7.0,6.0,-10.0,3.0,9225.0,9312.0,7796.0,5987.0,-5.0,3.0,3.0,1.0
2022-05-03 16:58:29.167930-07:00,2445.1,722.5,1939.0,2025.4,1346.7,1383.0,1729.1,1974.6,3449.1,3450.4,2398.7,1679.5,1417.6,3450.4,1615.2,1940.0,3440.7,3441.9,711.8,1313.3,955.1,580.2,1438.7,2372.4,3450.4,3445.5,857.0,938.1,1683.3,1963.7,1836.2,1152.4,2.0,0.0,8.0,8991.0,11777.0,4363.0,5463.0,6.0,-4.0,1.0,7.0,-8.0,10.0,9225.0,9312.0,7796.0,5987.0,5.0,4.0,0.0,1.0
2022-05-03 16:58:29.228286-07:00,2442.0,722.5,1939.0,2025.4,1337.7,1373.9,1718.6,1974.6,3451.6,3450.4,2398.7,1679.5,1414.9,3445.5,1610.5,1940.0,3440.7,3447.9,711.0,1314.2,955.1,580.2,1438.7,2363.0,3450.4,3451.6,857.0,939.0,1683.3,1963.7,1836.2,1151.5,4.0,-3.0,5.0,8992.0,11777.0,4364.0,5462.0,-11.0,9.0,-7.0,6.0,-7.0,10.0,9225.0,9312.0,7796.0,5988.0,-10.0,4.0,-2.0,1.0
2022-05-03 16:58:29.257624-07:00,2442.0,732.3,1933.1,2006.4,1337.7,1373.9,1718.6,1973.7,3451.6,3449.1,2399.7,1675.7,1414.9,3445.5,1610.5,1943.0,3445.5,3447.9,711.0,1314.2,956.8,589.1,1429.5,2363.0,3450.4,3451.6,857.0,939.0,1680.5,1954.8,1833.3,1151.5,6.0,1.0,2.0,8991.0,11778.0,4364.0,5462.0,9.0,-1.0,10.0,11.0,-1.0,2.0,9224.0,9313.0,7796.0,5987.0,12.0,-1.0,1.0,1.0
2022-05-03 16:58:29.377660-07:00,2438.8,732.3,1933.1,2006.4,1341.3,1375.7,1717.7,1973.7,3450.4,3449.1,2399.7,1675.7,1420.4,3440.7,1608.7,1943.0,3445.5,3435.8,710.1,1314.2,956.8,589.1,1429.5,2366.1,3450.4,3447.9,855.3,946.6,1680.5,1954.8,1833.3,1151.5,5.0,-6.0,3.0,8992.0,11777.0,4363.0,5463.0,-6.0,-5.0,-7.0,8.0,-8.0,11.0,9224.0,9313.0,7796.0,5987.0,-4.0,-2.0,-3.0,1.0
2022-05-03 16:58:29.379526-07:00,2438.8,725.8,1923.3,2019.4,1341.3,1375.7,1717.7,1968.7,3450.4,3445.5,2401.8,1679.5,1420.4,3440.7,1608.7,1944.0,3438.2,3435.8,710.1,1314.2,959.4,581.0,1434.1,2366.1,3456.4,3447.9,855.3,946.6,1682.4,1956.8,1842.0,1151.5,3.0,-4.0,9.0,8992.0,11777.0,4363.0,5463.0,1.0,-2.0,5.0,6.0,-8.0,13.0,9224.0,9313.0,7796.0,5987.0,7.0,2.0,3.0,1.0
2022-05-03 16:58:29.407739-07:00,2432.4,727.4,1923.3,2019.4,1341.3,1374.8,1723.4,1968.7,3451.6,3449.1,2401.8,1679.5,1417.6,3454.0,1609.6,1944.0,3438.2,3444.3,707.7,1318.7,959.4,581.0,1431.4,2375.5,3456.4,3461.3,852.8,935.6,1682.4,1956.8,1845.0,1149.8,5.0,-1.0,14.0,8992.0,11776.0,4364.0,5464.0,-8.0,21.0,-6.0,4.0,-9.0,10.0,9223.0,9313.0,7798.0,5987.0,-6.0,11.0,0.0,1.0
2022-05-03 16:58:29.467810-07:00,2432.4,727.4,1930.2,2022.4,1341.3,1374.8,1719.6,1969.7,3451.6,3449.1,2392.4,1686.2,1417.6,3454.0,1607.7,1939.0,3447.9,3438.2,707.7,1318.7,959.4,589.1,1431.4,2375.5,3441.9,3452.8,852.8,935.6,1675.7,1943.0,1845.0,1149.8,2.0,-3.0,5.0,8989.0,11773.0,4370.0,5471.0,1.0,24.0,12.0,5.0,-8.0,10.0,9219.0,9311.0,7800.0,5992.0,1.0,14.0,13.0,1.0
2022-05-03 16:58:29.527663-07:00,2452.6,725.8,1930.2,2022.4,1339.5,1373.0,1719.6,1969.7,3444.3,3443.1,2392.4,1686.2,1418.6,3446.7,1607.7,1939.0,3447.9,3438.2,705.2,1311.5,959.4,589.1,1430.5,2368.2,3441.9,3452.8,849.5,947.5,1675.7,1943.0,1832.3,1140.1,4.0,-5.0,7.0,8984.0,11773.0,4372.0,5478.0,11.0,17.0,3.0,7.0,-15.0,3.0,9217.0,9311.0,7801.0,5995.0,5.0,10.0,9.0,1.0
2022-05-03 16:58:29.557622-07:00,2452.6,725.8,1925.2,2013.4,1339.5,1373.0,1716.7,1967.7,3444.3,3443.1,2394.5,1677.6,1418.6,3446.7,1613.4,1930.2,3438.2,3440.7,705.2,1311.5,960.2,581.0,1430.5,2368.2,3437.0,3446.7,849.5,947.5,1711.0,1945.9,1832.3,1140.1,17.0,-28.0,32.0,8976.0,11770.0,4385.0,5488.0,93.0,114.0,-68.0,9.0,-42.0,1.0,9211.0,9310.0,7801.0,6006.0,-5.0,34.0,23.0,1.0
2022-05-03 16:58:29.618052-07:00,2746.9,834.4,1925.2,2013.4,1336.8,1367.6,1716.7,1967.7,3446.7,3445.5,2394.5,1677.6,1412.2,3439.5,1613.4,1930.2,3438.2,3440.7,708.5,1315.1,960.2,581.0,1437.8,2434.6,3437.0,3446.7,857.0,938.1,1711.0,1945.9,1864.5,1166.5,-17.0,25.0,40.0,8921.0,11747.0,4510.0,5524.0,194.0,420.0,-195.0,-15.0,46.0,48.0,9199.0,9297.0,7798.0,6046.0,-103.0,93.0,68.0,1.0
2022-05-03 16:58:29.677654-07:00,2746.9,834.4,2026.4,2075.5,1336.8,1367.6,1712.9,2021.4,3446.7,3445.5,2418.7,1680.5,1412.2,3439.5,1745.4,1983.6,3428.6,3440.7,708.5,1315.1,953.4,585.1,1437.8,2434.6,3438.2,3443.1,857.0,938.1,2141.2,1957.8,1864.5,1166.5,24.0,3.0,9.0,8842.0,11706.0,4707.0,5575.0,193.0,451.0,-306.0,16.0,-26.0,7.0,9192.0,9263.0,7803.0,6103.0,-78.0,112.0,5.0,1.0
2022-05-03 16:58:29.707720-07:00,3468.6,979.0,2269.3,2075.5,1326.8,1373.9,1712.9,2021.4,3444.3,3451.6,2548.7,1680.5,1410.3,3449.1,1745.4,1983.6,3428.6,3440.7,704.4,1318.7,953.4,582.6,1447.9,2483.4,3438.2,3443.1,851.1,937.3,2141.2,2000.5,1983.6,1154.2,27.0,-23.0,-6.0,8752.0,11636.0,4959.0,5644.0,269.0,628.0,-257.0,9.0,-14.0,-8.0,9176.0,9244.0,7826.0,6127.0,47.0,91.0,9.0,1.0
2022-05-03 16:58:29.767915-07:00,3468.6,979.0,2269.3,2140.2,1326.8,1370.3,1675.7,2013.4,3444.3,3451.6,2548.7,1678.6,1410.3,3449.1,1859.6,2036.4,3443.1,3440.7,704.4,1318.7,955.1,582.6,1447.9,2483.4,3446.7,3443.1,841.1,937.3,2067.5,2000.5,1983.6,1154.2,27.0,6.0,-6.0,8612.0,11583.0,5221.0,5731.0,317.0,616.0,-255.0,7.0,1.0,0.0,9141.0,9249.0,7859.0,6129.0,88.0,68.0,-17.0,1.0
2022-05-03 16:58:29.827640-07:00,3429.8,945.8,2306.6,2140.2,1309.7,1370.3,1675.7,2013.4,3439.5,3443.1,2596.1,1678.6,1405.8,3449.1,1859.6,2036.4,3443.1,3440.7,704.4,1319.6,955.1,581.8,1470.9,2526.1,3446.7,3443.1,841.1,945.8,2067.5,2011.4,1987.5,1144.5,-16.0,-18.0,-32.0,8487.0,11522.0,5464.0,5813.0,251.0,448.0,-216.0,-2.0,-12.0,10.0,9121.0,9251.0,7884.0,6123.0,35.0,37.0,-19.0,1.0
2022-05-03 16:58:29.857648-07:00,3429.8,945.8,2306.6,2157.5,1309.7,1373.0,1670.1,1987.5,3439.5,3443.1,2596.1,1658.7,1405.8,3438.2,1831.3,2031.4,3440.7,3441.9,710.1,1319.6,958.5,581.8,1470.9,2526.1,3449.1,3438.2,837.7,945.8,1998.5,2011.4,1987.5,1144.5,-11.0,-21.0,-27.0,8381.0,11497.0,5642.0,5847.0,229.0,251.0,-113.0,6.0,-19.0,18.0,9108.0,9255.0,7900.0,6117.0,34.0,11.0,-7.0,1.0
2022-05-03 16:58:29.917963-07:00,3312.2,929.6,2234.2,2157.5,1305.2,1373.0,1670.1,1987.5,3450.4,3444.3,2527.2,1658.7,1402.1,3438.2,1831.3,2031.4,3440.7,3441.9,710.1,1313.3,958.5,585.9,1468.1,2562.6,3449.1,3438.2,837.7,956.8,1998.5,1972.7,1943.0,1139.2,11.0,-3.0,-6.0,8289.0,11516.0,5744.0,5841.0,198.0,58.0,-13.0,5.0,-3.0,-8.0,9099.0,9263.0,7907.0,6110.0,20.0,-10.0,9.0,1.0
2022-05-03 16:58:29.977781-07:00,3312.2,929.6,2234.2,2118.9,1295.4,1370.3,1637.9,1974.6,3450.4,3444.3,2527.2,1635.0,1393.9,3451.6,1733.0,1995.5,3444.3,3443.1,703.6,1317.8,956.0,585.9,1468.1,2562.6,3455.2,3445.5,838.6,960.2,1955.8,1972.7,1943.0,1139.2,18.0,-4.0,-10.0,8230.0,11540.0,5782.0,5840.0,135.0,50.0,16.0,7.0,-10.0,6.0,9105.0,9270.0,7893.0,6108.0,-25.0,-39.0,23.0,1.0
2022-05-03 16:58:30.007832-07:00,3201.1,911.8,2153.4,2080.6,1295.4,1370.3,1637.9,1974.6,3444.3,3445.5,2477.0,1620.9,1393.9,3451.6,1733.0,1995.5,3444.3,3443.1,703.6,1317.8,951.7,585.9,1473.6,2547.6,3455.2,3445.5,838.6,960.2,1912.4,1935.1,1878.1,1139.2,-7.0,8.0,23.0,8170.0,11564.0,5823.0,5835.0,184.0,92.0,-28.0,7.0,-9.0,31.0,9116.0,9274.0,7876.0,6106.0,-32.0,-34.0,11.0,1.0
2022-05-03 16:58:30.067742-07:00,3201.1,911.8,2153.4,2080.6,1285.5,1366.6,1624.7,1953.9,3444.3,3445.5,2477.0,1620.9,1395.7,3439.5,1636.0,1968.7,3438.2,3450.4,701.1,1309.7,951.7,585.9,1473.6,2547.6,3447.9,3455.2,836.9,973.9,1912.4,1935.1,1878.1,1139.2,3.0,-4.0,24.0,8121.0,11593.0,5858.0,5812.0,185.0,-72.0,3.0,9.0,-10.0,6.0,9132.0,9270.0,7859.0,6110.0,5.0,-17.0,6.0,1.0
2022-05-03 16:58:30.127676-07:00,3096.2,893.2,2062.5,2067.5,1285.5,1366.6,1624.7,1953.9,3449.1,3452.8,2402.9,1604.0,1395.7,3439.5,1636.0,1968.7,3438.2,3450.4,701.1,1309.7,956.8,581.0,1469.0,2507.9,3447.9,3455.2,836.9,973.9,1889.9,1890.9,1818.7,1132.2,15.0,23.0,11.0,8061.0,11652.0,5875.0,5761.0,228.0,31.0,-6.0,7.0,0.0,10.0,9123.0,9283.0,7865.0,6098.0,47.0,-18.0,8.0,1.0
2022-05-03 16:58:30.158159-07:00,3096.2,893.2,2062.5,2067.5,1273.0,1356.7,1612.4,1935.1,3449.1,3452.8,2402.9,1604.0,1388.5,3439.5,1532.9,1942.0,3445.5,3444.3,706.0,1312.4,956.8,581.0,1469.0,2507.9,3451.6,3445.5,824.4,989.3,1889.9,1890.9,1818.7,1132.2,-10.0,-3.0,21.0,8030.0,11665.0,5912.0,5738.0,58.0,-37.0,-54.0,4.0,-15.0,14.0,9130.0,9281.0,7856.0,6101.0,-29.0,-4.0,1.0,1.0
2022-05-03 16:58:30.247928-07:00,2999.7,881.4,1952.9,2016.4,1273.0,1356.7,1612.4,1935.1,3440.7,3452.8,2321.2,1591.7,1388.5,3439.5,1532.9,1942.0,3445.5,3444.3,706.0,1312.4,954.3,584.3,1466.3,2470.6,3451.6,3445.5,824.4,989.3,1865.4,1845.0,1748.3,1140.1,21.0,2.0,16.0,8012.0,11679.0,5932.0,5715.0,105.0,38.0,-29.0,6.0,-6.0,7.0,9128.0,9283.0,7857.0,6100.0,36.0,4.0,7.0,1.0
2022-05-03 16:58:30.249469-07:00,2917.8,881.4,1952.9,2016.4,1248.0,1359.4,1597.4,1904.6,3451.6,3452.8,2321.2,1591.7,1373.0,3441.9,1462.6,1909.5,3445.5,3446.7,695.4,1318.7,954.3,584.3,1466.3,2437.7,3445.5,3449.1,816.0,994.5,1865.4,1845.0,1748.3,1138.4,-17.0,-8.0,11.0,7986.0,11671.0,5973.0,5723.0,39.0,56.0,-35.0,9.0,-11.0,24.0,9128.0,9282.0,7856.0,6104.0,-6.0,14.0,0.0,1.0
2022-05-03 16:58:30.307793-07:00,2917.8,877.2,1856.7,1979.6,1248.0,1359.4,1597.4,1889.9,3451.6,3443.1,2275.5,1573.0,1373.0,3441.9,1462.6,1886.0,3451.6,3446.7,695.4,1318.7,945.8,582.6,1460.8,2437.7,3441.9,3449.1,816.0,994.5,1833.3,1829.4,1712.9,1138.4,18.0,-6.0,0.0,7973.0,11688.0,5965.0,5715.0,42.0,-51.0,79.0,2.0,-5.0,-6.0,9117.0,9286.0,7864.0,6102.0,55.0,14.0,8.0,1.0
2022-05-03 16:58:30.367620-07:00,2893.0,877.2,1856.7,1979.6,1235.5,1350.3,1579.6,1889.9,3444.3,3443.1,2275.5,1573.0,1367.6,3445.5,1432.3,1886.0,3451.6,3438.2,706.0,1306.1,945.8,582.6,1460.8,2419.8,3441.9,3451.6,816.9,991.0,1833.3,1829.4,1712.9,1134.9,4.0,0.0,1.0,7974.0,11699.0,5929.0,5729.0,-46.0,-43.0,70.0,6.0,-11.0,9.0,9117.0,9292.0,7857.0,6104.0,-11.0,-17.0,15.0,1.0
2022-05-03 16:58:30.398049-07:00,2893.0,864.6,1813.9,1960.8,1235.5,1350.3,1579.6,1874.2,3444.3,3443.1,2241.4,1556.2,1367.6,3445.5,1432.3,1885.0,3443.1,3438.2,706.0,1306.1,955.1,585.9,1458.0,2419.8,3450.4,3451.6,816.9,991.0,1832.3,1814.9,1688.1,1134.9,5.0,-1.0,17.0,7988.0,11707.0,5898.0,5726.0,-31.0,-57.0,33.0,9.0,-11.0,14.0,9120.0,9294.0,7851.0,6102.0,-7.0,-11.0,7.0,1.0
2022-05-03 16:58:30.457653-07:00,2835.8,864.6,1813.9,1960.8,1231.9,1345.8,1573.0,1874.2,3450.4,3443.1,2241.4,1556.2,1368.5,3441.9,1417.6,1885.0,3443.1,3444.3,701.1,1302.5,955.1,585.9,1458.0,2408.1,3450.4,3449.1,812.7,985.0,1832.3,1814.9,1688.1,1143.6,0.0,1.0,16.0,7999.0,11705.0,5877.0,5737.0,-37.0,18.0,32.0,10.0,-6.0,18.0,9122.0,9294.0,7848.0,6103.0,0.0,2.0,7.0,1.0
2022-05-03 16:58:30.517873-07:00,2835.8,867.9,1797.4,1949.9,1231.9,1345.8,1563.7,1861.5,3450.4,3449.1,2219.8,1562.7,1368.5,3441.9,1401.2,1869.3,3441.9,3437.0,701.1,1302.5,955.1,587.5,1452.5,2408.1,3444.3,3445.5,812.7,985.0,1817.8,1804.2,1680.5,1143.6,13.0,-1.0,3.0,7998.0,11705.0,5865.0,5750.0,1.0,10.0,33.0,6.0,-13.0,1.0,9118.0,9294.0,7851.0,6106.0,25.0,18.0,2.0,1.0
2022-05-03 16:58:30.547954-07:00,2815.7,860.4,1797.4,1949.9,1214.2,1344.0,1563.7,1861.5,3454.0,3449.1,2219.8,1562.7,1363.9,3444.3,1401.2,1869.3,3441.9,3437.0,706.0,1313.3,955.1,587.5,1443.3,2395.5,3444.3,3445.5,816.0,979.9,1817.8,1804.2,1658.7,1137.5,0.0,-1.0,-3.0,7995.0,11697.0,5869.0,5767.0,-37.0,38.0,-12.0,4.0,-8.0,11.0,9115.0,9293.0,7853.0,6109.0,-19.0,12.0,3.0,1.0
2022-05-03 16:58:30.607836-07:00,2815.7,860.4,1792.6,1934.1,1214.2,1344.0,1559.0,1853.7,3454.0,3449.1,2198.3,1553.4,1363.9,3444.3,1392.1,1865.4,3443.1,3445.5,706.0,1313.3,953.4,589.1,1443.3,2395.5,3447.9,3446.7,816.0,979.9,1802.3,1791.6,1658.7,1137.5,1.0,-7.0,0.0,8001.0,11689.0,5868.0,5776.0,-17.0,8.0,11.0,6.0,-12.0,12.0,9116.0,9291.0,7852.0,6112.0,-4.0,0.0,2.0,1.0
2022-05-03 16:58:30.667937-07:00,2802.4,858.7,1792.6,1934.1,1211.5,1339.5,1559.0,1853.7,3449.1,3447.9,2198.3,1553.4,1365.7,3447.9,1392.1,1865.4,3443.1,3445.5,701.1,1310.6,953.4,589.1,1444.2,2377.6,3447.9,3446.7,811.0,983.3,1802.3,1791.6,1655.8,1138.4,4.0,-1.0,4.0,8000.0,11694.0,5859.0,5776.0,-1.0,-31.0,25.0,7.0,-8.0,6.0,9116.0,9292.0,7852.0,6112.0,12.0,-3.0,3.0,1.0
2022-05-03 16:58:30.697947-07:00,2802.4,858.7,1765.6,1924.3,1211.5,1339.5,1558.1,1840.1,3449.1,3447.9,2186.0,1548.7,1365.7,3447.9,1392.1,1845.0,3444.3,3449.1,701.1,1310.6,955.1,583.5,1444.2,2377.6,3437.0,3450.4,811.0,983.3,1791.6,1789.7,1655.8,1138.4,1.0,-2.0,8.0,8003.0,11696.0,5847.0,5781.0,-33.0,17.0,18.0,11.0,-11.0,13.0,9118.0,9292.0,7848.0,6112.0,-16.0,-10.0,5.0,1.0
2022-05-03 16:58:30.757671-07:00,2783.5,847.8,1765.6,1924.3,1208.9,1338.6,1558.1,1840.1,3441.9,3447.9,2186.0,1548.7,1363.0,3445.5,1392.1,1845.0,3444.3,3449.1,700.3,1314.2,955.1,583.5,1440.5,2365.1,3437.0,3450.4,811.9,982.5,1791.6,1789.7,1643.5,1133.1,4.0,0.0,7.0,8008.0,11696.0,5839.0,5781.0,9.0,-28.0,5.0,8.0,-5.0,9.0,9119.0,9292.0,7846.0,6114.0,16.0,5.0,-3.0,1.0
2022-05-03 16:58:30.817922-07:00,2783.5,847.8,1748.3,1927.2,1208.9,1339.5,1547.8,1849.8,3441.9,3447.9,2180.9,1551.5,1363.0,3445.5,1384.8,1848.9,3438.2,3443.1,706.0,1314.2,947.5,585.1,1440.5,2365.1,3445.5,3447.9,809.4,982.5,1779.1,1786.8,1643.5,1133.1,4.0,-7.0,7.0,8008.0,11699.0,5834.0,5780.0,-4.0,-7.0,17.0,5.0,-7.0,9.0,9118.0,9292.0,7846.0,6115.0,10.0,6.0,2.0,1.0
2022-05-03 16:58:30.847978-07:00,2774.6,845.3,1747.3,1927.2,1203.5,1339.5,1547.8,1849.8,3449.1,3449.1,2168.7,1551.5,1354.9,3445.5,1384.8,1848.9,3438.2,3443.1,706.0,1314.2,947.5,581.0,1439.6,2363.0,3445.5,3447.9,809.4,979.0,1779.1,1791.6,1641.6,1140.1,5.0,3.0,2.0,8008.0,11703.0,5825.0,5780.0,4.0,-10.0,9.0,8.0,-7.0,11.0,9116.0,9295.0,7846.0,6113.0,3.0,0.0,0.0,1.0
2022-05-03 16:58:30.908221-07:00,2774.6,845.3,1747.3,1915.4,1203.5,1332.3,1541.3,1836.2,3449.1,3449.1,2168.7,1545.9,1354.9,3445.5,1374.8,1841.1,3444.3,3440.7,702.8,1314.2,953.4,581.0,1439.6,2363.0,3447.9,3437.0,807.7,979.0,1776.2,1791.6,1641.6,1140.1,3.0,-5.0,6.0,8010.0,11704.0,5823.0,5777.0,-10.0,-11.0,-1.0,4.0,-8.0,8.0,9117.0,9294.0,7846.0,6114.0,-2.0,-3.0,-2.0,1.0
2022-05-03 16:58:30.997982-07:00,2754.7,846.1,1742.6,1915.4,1195.6,1332.3,1541.3,1836.2,3449.1,3443.1,2163.6,1545.9,1362.1,3445.5,1374.8,1841.1,3444.3,3440.7,702.8,1313.3,953.4,580.2,1435.0,2353.5,3447.9,3437.0,807.7,983.3,1776.2,1773.3,1635.0,1133.1,5.0,-3.0,6.0,8011.0,11706.0,5819.0,5776.0,9.0,-6.0,12.0,10.0,-9.0,11.0,9116.0,9295.0,7846.0,6114.0,12.0,-2.0,2.0,1.0
2022-05-03 16:58:31.028316-07:00,2754.7,846.1,1742.6,1905.6,1195.6,1333.2,1543.1,1828.4,3449.1,3443.1,2163.6,1545.9,1362.1,3450.4,1376.6,1845.9,3444.3,3435.8,700.3,1313.3,950.0,580.2,1435.0,2353.5,3450.4,3447.9,805.2,983.3,1770.4,1773.3,1635.0,1133.1,7.0,3.0,8.0,8005.0,11710.0,5820.0,5775.0,14.0,-3.0,-1.0,8.0,-2.0,7.0,9112.0,9299.0,7847.0,6112.0,12.0,4.0,-3.0,1.0
2022-05-03 16:58:31.057706-07:00,2758.0,847.0,1734.9,1905.6,1200.0,1333.2,1543.1,1828.4,3446.7,3444.3,2147.3,1545.9,1353.1,3450.4,1376.6,1845.9,3444.3,3435.8,700.3,1311.5,950.0,581.8,1441.5,2347.3,3450.4,3447.9,805.2,974.8,1770.4,1763.7,1627.5,1124.4,3.0,1.0,5.0,8005.0,11706.0,5826.0,5777.0,-9.0,12.0,-16.0,5.0,-8.0,6.0,9113.0,9297.0,7845.0,6115.0,-6.0,5.0,-4.0,1.0
2022-05-03 16:58:31.117785-07:00,2758.0,847.0,1734.9,1906.6,1196.5,1332.3,1542.2,1850.8,3446.7,3444.3,2147.3,1538.5,1356.7,3449.1,1371.2,1835.2,3435.8,3444.3,706.0,1308.8,950.9,581.8,1441.5,2347.3,3450.4,3455.2,798.5,979.0,1760.8,1763.7,1627.5,1124.4,3.0,-5.0,3.0,8006.0,11705.0,5829.0,5777.0,4.0,-2.0,-1.0,6.0,-6.0,9.0,9114.0,9297.0,7844.0,6116.0,1.0,1.0,-4.0,1.0
2022-05-03 16:58:31.207703-07:00,2744.7,841.1,1730.1,1896.7,1196.5,1332.3,1542.2,1850.8,3441.9,3449.1,2156.5,1542.2,1356.7,3449.1,1371.2,1835.2,3435.8,3444.3,706.0,1308.8,954.3,584.3,1434.1,2347.3,3450.4,3455.2,798.5,979.0,1755.0,1767.5,1631.3,1137.5,6.0,-6.0,6.0,8007.0,11703.0,5828.0,5778.0,-17.0,1.0,2.0,6.0,-12.0,9.0,9114.0,9297.0,7844.0,6117.0,-6.0,0.0,2.0,1.0
2022-05-03 16:58:31.209043-07:00,2744.7,841.1,1730.1,1896.7,1187.6,1333.2,1539.4,1821.6,3441.9,3449.1,2156.5,1542.2,1354.0,3451.6,1367.6,1837.2,3455.2,3445.5,692.9,1307.9,954.3,584.3,1434.1,2347.3,3450.4,3445.5,806.0,973.9,1755.0,1767.5,1631.3,1137.5,2.0,0.0,7.0,8005.0,11706.0,5828.0,5776.0,21.0,-11.0,-3.0,4.0,-8.0,11.0,9112.0,9299.0,7845.0,6115.0,10.0,7.0,-5.0,1.0
2022-05-03 16:58:31.268725-07:00,2733.7,838.6,1723.4,1900.7,1187.6,1333.2,1539.4,1821.6,3441.9,3450.4,2146.3,1536.6,1354.0,3451.6,1367.6,1837.2,3455.2,3445.5,692.9,1307.9,952.6,581.8,1441.5,2332.6,3450.4,3445.5,806.0,973.9,1752.1,1776.2,1625.6,1138.4,5.0,-9.0,9.0,8005.0,11706.0,5826.0,5776.0,-2.0,10.0,13.0,2.0,-10.0,12.0,9112.0,9299.0,7844.0,6116.0,10.0,1.0,6.0,1.0
2022-05-03 16:58:31.297978-07:00,2733.7,838.6,1723.4,1900.7,1190.3,1340.4,1541.3,1811.9,3441.9,3450.4,2146.3,1536.6,1354.0,3450.4,1363.9,1825.5,3441.9,3447.9,700.3,1312.4,952.6,581.8,1441.5,2332.6,3441.9,3449.1,805.2,974.8,1752.1,1776.2,1625.6,1138.4,0.0,4.0,3.0,8001.0,11706.0,5829.0,5782.0,-2.0,13.0,3.0,3.0,-7.0,12.0,9110.0,9301.0,7845.0,6114.0,6.0,8.0,-1.0,1.0
2022-05-03 16:58:31.357676-07:00,2726.0,828.5,1726.3,1897.7,1190.3,1340.4,1541.3,1814.9,3440.7,3447.9,2138.2,1545.0,1354.0,3450.4,1363.9,1834.3,3449.1,3447.9,700.3,1312.4,954.3,582.6,1434.1,2335.8,3451.6,3449.1,805.2,974.8,1748.3,1783.9,1626.5,1134.0,7.0,-5.0,3.0,8003.0,11705.0,5827.0,5783.0,2.0,0.0,9.0,8.0,-10.0,5.0,9111.0,9301.0,7844.0,6115.0,8.0,5.0,3.0,1.0
2022-05-03 16:58:31.417806-07:00,2724.9,828.5,1726.3,1897.7,1194.7,1331.4,1539.4,1814.9,3443.1,3447.9,2138.2,1545.0,1354.9,3445.5,1356.7,1834.3,3449.1,3449.1,701.9,1313.3,954.3,582.6,1434.1,2332.6,3451.6,3446.7,805.2,969.6,1748.3,1783.9,1626.5,1135.7,11.0,-1.0,3.0,8003.0,11710.0,5818.0,5782.0,1.0,-17.0,11.0,5.0,-8.0,3.0,9110.0,9302.0,7844.0,6116.0,10.0,-2.0,1.0,1.0
2022-05-03 16:58:31.448014-07:00,2724.9,834.4,1719.6,1890.9,1194.7,1331.4,1539.4,1809.0,3443.1,3451.6,2147.3,1532.0,1354.9,3445.5,1356.7,1827.5,3445.5,3449.1,701.9,1313.3,950.0,584.3,1434.1,2332.6,3444.3,3446.7,805.2,969.6,1739.7,1756.0,1631.3,1135.7,-2.0,0.0,4.0,8001.0,11711.0,5819.0,5781.0,3.0,-8.0,-2.0,3.0,-7.0,13.0,9110.0,9301.0,7843.0,6116.0,1.0,2.0,-1.0,1.0
2022-05-03 16:58:31.507778-07:00,2719.4,834.4,1719.6,1890.9,1190.3,1334.1,1537.6,1809.0,3441.9,3451.6,2147.3,1532.0,1355.8,3441.9,1352.1,1827.5,3445.5,3440.7,701.1,1314.2,950.0,584.3,1434.1,2323.3,3444.3,3444.3,803.5,973.9,1739.7,1756.0,1631.3,1136.6,2.0,-3.0,5.0,8004.0,11710.0,5815.0,5782.0,-8.0,4.0,12.0,4.0,-7.0,9.0,9110.0,9301.0,7843.0,6116.0,6.0,3.0,1.0,1.0
2022-05-03 16:58:31.568500-07:00,2719.4,824.4,1719.6,1893.8,1190.3,1334.1,1537.6,1807.1,3441.9,3440.7,2137.2,1532.9,1355.8,3441.9,1352.1,1822.6,3444.3,3440.7,701.1,1314.2,953.4,581.0,1425.9,2323.3,3449.1,3444.3,803.5,973.9,1722.4,1764.6,1606.8,1136.6,6.0,-1.0,3.0,8003.0,11710.0,5814.0,5784.0,-16.0,2.0,-3.0,9.0,-8.0,7.0,9111.0,9300.0,7842.0,6117.0,-10.0,1.0,-2.0,1.0
2022-05-03 16:58:31.598009-07:00,2700.7,824.4,1719.6,1893.8,1183.2,1335.9,1535.7,1807.1,3451.6,3440.7,2137.2,1532.9,1347.6,3454.0,1358.5,1822.6,3444.3,3445.5,703.6,1306.1,953.4,581.0,1425.9,2316.0,3449.1,3449.1,805.2,971.3,1722.4,1764.6,1606.8,1141.0,0.0,-7.0,0.0,8006.0,11709.0,5811.0,5787.0,7.0,-8.0,18.0,2.0,-10.0,11.0,9110.0,9301.0,7843.0,6116.0,12.0,-1.0,2.0,1.0
2022-05-03 16:58:31.657955-07:00,2700.7,828.5,1718.6,1891.8,1183.2,1335.9,1531.0,1807.1,3451.6,3447.9,2133.1,1529.2,1347.6,3454.0,1353.1,1826.5,3449.1,3446.7,703.6,1306.1,952.6,581.0,1435.0,2316.0,3450.4,3449.1,805.2,971.3,1736.8,1757.9,1614.3,1141.0,5.0,0.0,9.0,8003.0,11715.0,5805.0,5783.0,6.0,-20.0,4.0,6.0,-9.0,7.0,9109.0,9303.0,7844.0,6115.0,4.0,2.0,-1.0,1.0
2022-05-03 16:58:31.717844-07:00,2708.4,821.9,1718.6,1891.8,1184.1,1330.5,1531.0,1807.1,3446.7,3445.5,2133.1,1529.2,1353.1,3449.1,1353.1,1826.5,3449.1,3446.7,696.2,1311.5,952.6,581.0,1426.8,2321.2,3450.4,3449.1,799.4,973.9,1736.8,1757.9,1614.3,1136.6,2.0,-2.0,4.0,8003.0,11716.0,5804.0,5781.0,9.0,4.0,0.0,7.0,-10.0,10.0,9109.0,9303.0,7844.0,6115.0,6.0,3.0,-5.0,1.0
2022-05-03 16:58:31.748034-07:00,2708.4,821.9,1711.0,1882.0,1184.1,1330.5,1527.3,1809.0,3446.7,3445.5,2123.0,1529.2,1353.1,3449.1,1357.6,1824.6,3433.4,3445.5,696.2,1311.5,950.0,584.3,1426.8,2321.2,3446.7,3452.8,799.4,973.9,1731.1,1755.0,1614.3,1136.6,10.0,0.0,10.0,8003.0,11716.0,5804.0,5781.0,1.0,21.0,-7.0,5.0,-9.0,2.0,9109.0,9303.0,7844.0,6115.0,-4.0,2.0,-1.0,1.0
2022-05-03 16:58:31.807704-07:00,2708.4,826.0,1711.0,1882.0,1189.4,1330.5,1527.3,1809.0,3440.7,3443.1,2123.0,1529.2,1356.7,3438.2,1357.6,1824.6,3433.4,3445.5,702.8,1317.8,950.0,584.3,1422.2,2307.7,3446.7,3452.8,800.2,969.6,1731.1,1755.0,1605.8,1155.0,1.0,-9.0,3.0,8002.0,11710.0,5810.0,5790.0,-11.0,13.0,-3.0,5.0,-10.0,11.0,9110.0,9301.0,7843.0,6116.0,-2.0,5.0,0.0,1.0
2022-05-03 16:58:31.868119-07:00,2708.4,826.0,1709.1,1882.0,1189.4,1330.5,1533.8,1804.2,3440.7,3443.1,2126.0,1537.6,1356.7,3438.2,1354.9,1822.6,3440.7,3443.1,702.8,1317.8,952.6,578.6,1422.2,2307.7,3444.3,3447.9,800.2,969.6,1732.0,1748.3,1605.8,1155.0,4.0,0.0,1.0,8002.0,11710.0,5809.0,5792.0,-2.0,3.0,12.0,4.0,-6.0,3.0,9110.0,9301.0,7843.0,6116.0,-7.0,-1.0,6.0,1.0
2022-05-03 16:58:31.898000-07:00,2701.8,823.5,1704.3,1882.0,1181.5,1329.6,1533.8,1804.2,3443.1,3445.5,2123.0,1537.6,1354.0,3435.8,1354.9,1822.6,3440.7,3443.1,701.1,1308.8,952.6,580.2,1427.7,2306.6,3444.3,3447.9,801.0,966.2,1732.0,1754.1,1606.8,1134.0,4.0,-3.0,3.0,8005.0,11708.0,5806.0,5794.0,-6.0,-12.0,-7.0,8.0,-6.0,9.0,9113.0,9299.0,7841.0,6119.0,-6.0,-1.0,-2.0,1.0
2022-05-03 16:58:31.957741-07:00,2701.8,823.5,1704.3,1885.0,1181.5,1325.9,1531.0,1800.3,3443.1,3445.5,2123.0,1532.9,1354.0,3447.9,1352.1,1817.8,3445.5,3438.2,701.1,1308.8,955.1,580.2,1427.7,2306.6,3454.0,3454.0,810.2,966.2,1726.3,1754.1,1606.8,1134.0,3.0,-2.0,8.0,8009.0,11707.0,5803.0,5794.0,-18.0,-1.0,12.0,6.0,-9.0,10.0,9115.0,9297.0,7840.0,6120.0,-10.0,-2.0,3.0,1.0
2022-05-03 16:58:32.048061-07:00,2685.3,821.9,1711.0,1885.0,1178.8,1325.9,1531.0,1800.3,3439.5,3443.1,2118.9,1532.9,1348.5,3447.9,1352.1,1817.8,3445.5,3438.2,701.1,1309.7,955.1,584.3,1423.1,2299.3,3454.0,3454.0,810.2,973.9,1726.3,1751.2,1608.7,1134.9,0.0,-3.0,5.0,8010.0,11707.0,5800.0,5795.0,8.0,-15.0,11.0,5.0,-10.0,14.0,9113.0,9298.0,7841.0,6119.0,12.0,1.0,0.0,1.0
2022-05-03 16:58:32.049474-07:00,2685.3,821.9,1711.0,1883.0,1178.8,1324.1,1535.7,1807.1,3439.5,3443.1,2118.9,1535.7,1348.5,3438.2,1352.1,1817.8,3450.4,3439.5,697.9,1309.7,954.3,584.3,1423.1,2299.3,3451.6,3443.1,797.7,973.9,1722.4,1751.2,1608.7,1134.9,8.0,3.0,7.0,8010.0,11708.0,5798.0,5795.0,-2.0,4.0,-3.0,7.0,-4.0,6.0,9112.0,9299.0,7842.0,6118.0,2.0,2.0,0.0,1.0
2022-05-03 16:58:32.198543-07:00,2687.5,823.5,1711.0,1883.0,1179.7,1324.1,1535.7,1807.1,3446.7,3446.7,2113.9,1535.7,1348.5,3438.2,1352.1,1817.8,3450.4,3439.5,697.9,1307.9,954.3,582.6,1421.3,2291.0,3451.6,3443.1,797.7,966.2,1722.4,1749.3,1601.1,1134.9,0.0,-5.0,1.0,8010.0,11708.0,5798.0,5795.0,5.0,-7.0,4.0,8.0,-9.0,6.0,9112.0,9299.0,7842.0,6118.0,3.0,1.0,1.0,1.0
2022-05-03 16:58:32.199767-07:00,2687.5,823.5,1711.0,1881.1,1179.7,1327.8,1529.2,1795.5,3446.7,3446.7,2113.9,1533.8,1348.5,3445.5,1347.6,1820.7,3446.7,3439.5,701.1,1307.9,954.3,582.6,1421.3,2291.0,3440.7,3451.6,800.2,966.2,1724.4,1749.3,1601.1,1134.9,11.0,1.0,7.0,8012.0,11709.0,5796.0,5792.0,-3.0,8.0,-3.0,5.0,-5.0,4.0,9112.0,9299.0,7842.0,6118.0,-2.0,-2.0,0.0,1.0
2022-05-03 16:58:32.200767-07:00,2684.3,821.9,1699.5,1874.2,1184.1,1327.8,1529.2,1795.5,3449.1,3437.0,2111.8,1531.0,1346.7,3445.5,1347.6,1820.7,3446.7,3439.5,701.1,1307.0,960.2,585.9,1423.1,2291.0,3440.7,3451.6,800.2,973.1,1718.6,1745.4,1599.3,1134.9,4.0,-9.0,6.0,8015.0,11707.0,5794.0,5793.0,-7.0,-12.0,4.0,8.0,-9.0,7.0,9113.0,9298.0,7841.0,6119.0,-6.0,1.0,0.0,1.0
2022-05-03 16:58:32.287273-07:00,2684.3,821.9,1699.5,1874.2,1182.3,1333.2,1526.4,1796.5,3449.1,3437.0,2111.8,1531.0,1345.8,3440.7,1347.6,1811.0,3443.1,3445.5,693.8,1307.0,960.2,585.9,1423.1,2291.0,3447.9,3449.1,801.9,967.1,1718.6,1745.4,1599.3,1134.9,5.0,0.0,6.0,8012.0,11713.0,5789.0,5791.0,2.0,-14.0,12.0,5.0,-6.0,8.0,9111.0,9301.0,7843.0,6117.0,18.0,0.0,-1.0,1.0
2022-05-03 16:58:32.317906-07:00,2676.6,817.7,1703.3,1868.4,1182.3,1333.2,1526.4,1796.5,3444.3,3446.7,2129.0,1528.3,1345.8,3440.7,1347.6,1811.0,3443.1,3445.5,693.8,1307.0,957.7,581.0,1426.8,2294.2,3447.9,3449.1,801.9,967.1,1718.6,1749.3,1602.1,1131.4,4.0,-7.0,4.0,8017.0,11711.0,5785.0,5793.0,-9.0,7.0,4.0,3.0,-10.0,10.0,9111.0,9301.0,7843.0,6117.0,-5.0,-2.0,3.0,1.0
2022-05-03 16:58:32.347902-07:00,2676.6,817.7,1703.3,1868.4,1178.8,1331.4,1527.3,1794.5,3444.3,3446.7,2129.0,1528.3,1341.3,3444.3,1356.7,1810.0,3438.2,3452.8,698.7,1305.2,957.7,581.0,1426.8,2294.2,3445.5,3458.9,800.2,987.6,1718.6,1749.3,1602.1,1131.4,9.0,0.0,14.0,8013.0,11708.0,5788.0,5801.0,0.0,39.0,16.0,9.0,-7.0,10.0,9110.0,9301.0,7843.0,6116.0,15.0,9.0,0.0,1.0
2022-05-03 16:58:32.407817-07:00,2665.7,816.0,1751.2,1883.0,1178.8,1331.4,1527.3,1794.5,3444.3,3447.9,2114.9,1530.1,1341.3,3444.3,1356.7,1810.0,3438.2,3452.8,698.7,1305.2,950.9,581.0,1430.5,2292.1,3445.5,3458.9,800.2,987.6,1710.0,1769.5,1621.8,1137.5,0.0,-3.0,-3.0,8003.0,11695.0,5804.0,5825.0,-14.0,73.0,-10.0,9.0,-12.0,12.0,9103.0,9304.0,7849.0,6116.0,16.0,14.0,-9.0,1.0
2022-05-03 16:58:32.467913-07:00,2676.6,816.0,1751.2,1883.0,1177.9,1336.8,1526.4,1790.7,3445.5,3447.9,2114.9,1530.1,1340.4,3443.1,1402.1,1816.8,3440.7,3440.7,701.9,1312.4,950.9,581.0,1430.5,2293.1,3441.9,3449.1,811.0,993.6,1710.0,1769.5,1621.8,1134.0,7.0,-7.0,-2.0,8003.0,11687.0,5810.0,5835.0,-26.0,16.0,8.0,4.0,-8.0,2.0,9097.0,9305.0,7856.0,6114.0,10.0,10.0,-2.0,1.0
2022-05-03 16:58:32.498499-07:00,2676.6,806.9,1797.4,1888.9,1177.9,1336.8,1526.4,1786.8,3445.5,3449.1,2142.2,1529.2,1340.4,3443.1,1402.1,1817.8,3441.9,3440.7,701.9,1312.4,950.0,584.3,1436.9,2293.1,3443.1,3449.1,811.0,993.6,1712.9,1758.9,1626.5,1134.0,6.0,6.0,4.0,8009.0,11682.0,5801.0,5846.0,-20.0,7.0,17.0,4.0,-6.0,2.0,9096.0,9306.0,7857.0,6113.0,16.0,-2.0,-1.0,1.0
2022-05-03 16:58:32.558357-07:00,2672.2,806.9,1797.4,1888.9,1175.3,1337.7,1526.4,1786.8,3447.9,3449.1,2142.2,1529.2,1346.7,3445.5,1425.0,1817.8,3441.9,3443.1,700.3,1314.2,950.0,584.3,1436.9,2291.0,3443.1,3446.7,816.0,999.6,1712.9,1758.9,1626.5,1138.4,-10.0,8.0,16.0,8017.0,11666.0,5808.0,5860.0,-71.0,38.0,-30.0,8.0,-4.0,24.0,9097.0,9305.0,7856.0,6114.0,-20.0,-3.0,-8.0,1.0
2022-05-03 16:58:32.618219-07:00,2672.2,811.9,1805.2,1880.1,1175.3,1337.7,1526.4,1790.7,3447.9,3450.4,2195.2,1534.8,1346.7,3445.5,1425.0,1829.4,3449.1,3443.1,700.3,1314.2,950.0,579.4,1436.0,2291.0,3445.5,3446.7,816.0,999.6,1711.0,1776.2,1648.3,1138.4,0.0,-1.0,1.0,8036.0,11641.0,5815.0,5877.0,-11.0,48.0,-22.0,12.0,-13.0,10.0,9091.0,9304.0,7862.0,6116.0,58.0,30.0,-10.0,1.0
2022-05-03 16:58:32.647945-07:00,2690.8,811.9,1805.2,1880.1,1182.3,1334.1,1526.4,1790.7,3438.2,3450.4,2195.2,1534.8,1351.2,3449.1,1558.1,1829.4,3449.1,3438.2,696.2,1307.0,950.0,579.4,1436.0,2291.0,3445.5,3449.1,822.7,981.6,1711.0,1776.2,1648.3,1125.2,-16.0,-8.0,-12.0,8057.0,11632.0,5802.0,5878.0,-149.0,-105.0,13.0,5.0,0.0,15.0,9084.0,9299.0,7874.0,6119.0,-39.0,35.0,-6.0,1.0
2022-05-03 16:58:32.707802-07:00,2690.8,810.2,1893.8,1897.7,1182.3,1334.1,1526.4,1789.7,3438.2,3437.0,2375.5,1567.4,1351.2,3449.1,1558.1,1875.2,3444.3,3438.2,696.2,1307.0,950.9,581.8,1432.3,2291.0,3446.7,3449.1,822.7,981.6,1702.4,1836.2,1748.3,1125.2,-12.0,12.0,0.0,8128.0,11641.0,5713.0,5850.0,-156.0,-244.0,95.0,-3.0,-4.0,0.0,9082.0,9293.0,7878.0,6127.0,17.0,13.0,-8.0,1.0
2022-05-03 16:58:32.767884-07:00,2763.5,808.5,1893.8,1897.7,1191.2,1327.8,1524.5,1789.7,3446.7,3443.1,2375.5,1567.4,1377.5,3435.8,1701.4,1875.2,3444.3,3441.9,697.0,1305.2,950.9,581.8,1447.0,2328.5,3446.7,3454.0,824.4,980.7,1702.4,1836.2,1866.4,1130.5,43.0,15.0,1.0,8236.0,11655.0,5585.0,5794.0,-231.0,-303.0,32.0,1.0,1.0,1.0,9086.0,9284.0,7881.0,6130.0,-47.0,0.0,-28.0,1.0
2022-05-03 16:58:32.797916-07:00,2763.5,808.5,2120.9,1982.6,1191.2,1327.8,1530.1,1791.6,3446.7,3443.1,2484.4,1599.3,1377.5,3435.8,1780.1,1946.9,3441.9,3441.9,697.0,1305.2,953.4,583.5,1447.0,2328.5,3439.5,3449.1,824.4,980.7,1706.2,1927.2,1866.4,1130.5,-16.0,-21.0,35.0,8340.0,11627.0,5510.0,5773.0,-254.0,-207.0,27.0,4.0,-17.0,33.0,9109.0,9260.0,7874.0,6142.0,-53.0,16.0,-18.0,1.0
2022-05-03 16:58:32.857789-07:00,2868.3,815.2,2120.9,1982.6,1205.3,1337.7,1530.1,1791.6,3445.5,3440.7,2484.4,1599.3,1383.0,3449.1,1780.1,1946.9,3441.9,3441.9,701.1,1309.7,953.4,583.5,1449.7,2329.5,3439.5,3449.1,824.4,963.7,1706.2,1927.2,1935.1,1134.9,-9.0,7.0,28.0,8400.0,11634.0,5428.0,5750.0,-115.0,-94.0,63.0,-2.0,-1.0,9.0,9101.0,9256.0,7891.0,6138.0,44.0,32.0,-27.0,1.0
2022-05-03 16:58:32.887631-07:00,2868.3,815.2,2233.2,2085.6,1205.3,1337.7,1521.8,1782.0,3445.5,3440.7,2530.4,1630.3,1383.0,3449.1,1787.8,2010.4,3439.5,3440.7,701.1,1309.7,956.8,582.6,1449.7,2329.5,3441.9,3449.1,824.4,963.7,1704.3,2010.4,1935.1,1134.9,-5.0,-16.0,-29.0,8462.0,11640.0,5325.0,5742.0,-138.0,-251.0,151.0,10.0,-23.0,17.0,9090.0,9248.0,7909.0,6142.0,44.0,57.0,-27.0,1.0
2022-05-03 16:58:32.977710-07:00,3058.1,818.5,2233.2,2085.6,1239.1,1350.3,1521.8,1782.0,3438.2,3439.5,2530.4,1630.3,1383.0,3450.4,1787.8,2010.4,3439.5,3440.7,706.0,1313.3,956.8,582.6,1440.5,2348.3,3441.9,3449.1,831.9,951.7,1704.3,2010.4,1983.6,1139.2,25.0,-9.0,-14.0,8513.0,11681.0,5194.0,5705.0,-112.0,-214.0,143.0,-4.0,-2.0,-14.0,9073.0,9251.0,7933.0,6132.0,26.0,10.0,-15.0,1.0
2022-05-03 16:58:33.007706-07:00,3058.1,818.5,2204.5,2129.0,1239.1,1363.0,1550.6,1819.7,3438.2,3439.5,2571.3,1672.9,1383.0,3443.1,1760.8,2047.4,3437.0,3445.5,703.6,1313.3,950.0,581.8,1440.5,2348.3,3439.5,3451.6,834.4,951.7,1691.0,2064.5,1983.6,1139.2,-8.0,21.0,2.0,8548.0,11700.0,5115.0,5685.0,-76.0,-191.0,73.0,-6.0,7.0,13.0,9077.0,9249.0,7937.0,6124.0,-22.0,-31.0,-24.0,1.0
2022-05-03 16:58:33.038082-07:00,3244.6,837.7,2133.1,2129.0,1248.8,1363.0,1550.6,1819.7,3454.0,3445.5,2583.1,1672.9,1396.7,3443.1,1760.8,2047.4,3437.0,3445.5,703.6,1313.3,950.0,581.0,1446.0,2437.7,3439.5,3451.6,834.4,939.0,1691.0,2053.4,1960.8,1137.5,4.0,35.0,0.0,8593.0,11705.0,5069.0,5648.0,-69.0,-33.0,-99.0,-3.0,-2.0,6.0,9092.0,9249.0,7941.0,6098.0,13.0,-67.0,-85.0,1.0
2022-05-03 16:58:33.127757-07:00,3244.6,837.7,2133.1,2118.9,1248.8,1361.2,1581.4,1856.7,3454.0,3445.5,2583.1,1708.1,1396.7,3446.7,1702.4,2028.4,3450.4,3441.9,712.6,1313.3,952.6,581.0,1446.0,2437.7,3449.1,3445.5,836.1,939.0,1774.3,2053.4,1960.8,1137.5,10.0,-1.0,0.0,8643.0,11683.0,5095.0,5594.0,-31.0,-106.0,-181.0,11.0,-6.0,4.0,9115.0,9244.0,7953.0,6054.0,27.0,-57.0,-101.0,1.0
2022-05-03 16:58:33.217916-07:00,3111.3,866.3,2078.5,2118.9,1320.5,1361.2,1581.4,1856.7,3449.1,3443.1,2544.4,1708.1,1429.5,3446.7,1702.4,2028.4,3450.4,3441.9,712.6,1315.1,952.6,584.3,1455.2,2535.8,3449.1,3445.5,836.1,939.0,1774.3,2026.4,1938.0,1137.5,-7.0,-36.0,8.0,8679.0,11663.0,5117.0,5559.0,-38.0,-27.0,-62.0,3.0,-20.0,17.0,9134.0,9244.0,7961.0,6015.0,46.0,-58.0,-51.0,1.0
2022-05-03 16:58:33.219313-07:00,3111.3,866.3,2078.5,2093.7,1320.5,1363.9,1584.2,1861.5,3449.1,3443.1,2544.4,1700.5,1429.5,3451.6,1680.5,1996.5,3445.5,3441.9,712.6,1315.1,955.1,584.3,1455.2,2535.8,3449.1,3449.1,837.7,939.0,1849.8,2026.4,1938.0,1137.5,1.0,0.0,1.0,8710.0,11659.0,5097.0,5538.0,-71.0,-108.0,-8.0,0.0,-16.0,10.0,9145.0,9253.0,7960.0,5986.0,10.0,-57.0,-20.0,1.0
2022-05-03 16:58:33.247981-07:00,2911.1,846.1,2063.5,2093.7,1411.3,1363.9,1584.2,1861.5,3441.9,3449.1,2519.7,1700.5,1448.8,3451.6,1680.5,1996.5,3445.5,3441.9,712.6,1317.8,955.1,580.2,1485.6,2541.1,3449.1,3449.1,837.7,944.9,1849.8,1999.5,1897.7,1142.7,-7.0,-1.0,5.0,8752.0,11647.0,5072.0,5519.0,-90.0,-87.0,-26.0,2.0,-10.0,19.0,9163.0,9253.0,7949.0,5973.0,-25.0,-44.0,-14.0,1.0
2022-05-03 16:58:33.308307-07:00,2911.1,846.1,2063.5,2091.6,1528.3,1373.0,1610.5,1880.1,3441.9,3449.1,2519.7,1699.5,1447.9,3435.8,1657.7,1979.6,3445.5,3446.7,708.5,1311.5,956.0,580.2,1485.6,2541.1,3443.1,3449.1,835.2,947.5,1826.5,1999.5,1897.7,1142.7,25.0,-2.0,14.0,8802.0,11636.0,5037.0,5494.0,-81.0,-88.0,-34.0,2.0,-4.0,-7.0,9182.0,9250.0,7936.0,5965.0,-13.0,-47.0,-20.0,1.0
2022-05-03 16:58:33.337645-07:00,2810.1,821.0,2026.4,2075.5,1528.3,1373.0,1610.5,1880.1,3444.3,3433.4,2497.2,1697.6,1447.9,3435.8,1657.7,1979.6,3445.5,3446.7,708.5,1311.5,963.7,584.3,1491.2,2582.0,3443.1,3449.1,835.2,947.5,1811.9,1979.6,1892.8,1136.6,2.0,3.0,7.0,8831.0,11622.0,5034.0,5480.0,-33.0,-46.0,-55.0,5.0,-12.0,10.0,9199.0,9249.0,7927.0,5952.0,-15.0,-42.0,-31.0,1.0
2022-05-03 16:58:33.427716-07:00,2810.1,821.0,2026.4,2075.5,1622.8,1372.1,1613.4,1891.8,3444.3,3433.4,2497.2,1697.6,1454.3,3438.2,1665.3,1965.7,3444.3,3443.1,715.1,1311.5,963.7,584.3,1491.2,2582.0,3443.1,3445.5,835.2,949.2,1811.9,1979.6,1892.8,1136.6,-7.0,-23.0,2.0,8858.0,11607.0,5043.0,5459.0,-20.0,-45.0,-70.0,5.0,-20.0,16.0,9218.0,9244.0,7920.0,5940.0,2.0,-37.0,-27.0,1.0
2022-05-03 16:58:33.487730-07:00,2764.6,800.2,1989.5,2058.4,1622.8,1372.1,1613.4,1891.8,3438.2,3446.7,2494.0,1692.9,1454.3,3438.2,1665.3,1965.7,3444.3,3443.1,715.1,1311.5,962.8,577.8,1503.2,2615.6,3443.1,3445.5,835.2,949.2,1789.7,1967.7,1885.0,1135.7,-17.0,-11.0,-2.0,8871.0,11614.0,5044.0,5425.0,-3.0,-97.0,-16.0,2.0,-15.0,10.0,9227.0,9245.0,7921.0,5924.0,-3.0,-26.0,-13.0,1.0
2022-05-03 16:58:33.489017-07:00,2764.6,800.2,1989.5,2058.4,1642.6,1380.3,1626.5,1924.3,3438.2,3446.7,2494.0,1692.9,1458.0,3438.2,1660.6,1960.8,3440.7,3435.8,711.0,1312.4,962.8,577.8,1503.2,2615.6,3449.1,3449.1,836.9,955.1,1789.7,1967.7,1885.0,1135.7,12.0,-18.0,26.0,8878.0,11620.0,5035.0,5408.0,-4.0,6.0,-6.0,0.0,-10.0,11.0,9231.0,9248.0,7918.0,5916.0,3.0,-12.0,8.0,1.0
2022-05-03 16:58:33.577713-07:00,2722.7,786.9,1989.5,2050.4,1642.6,1380.3,1626.5,1896.7,3444.3,3450.4,2480.2,1688.1,1458.0,3438.2,1660.6,1939.0,3444.3,3435.8,711.0,1312.4,961.1,581.0,1522.7,2627.5,3443.1,3449.1,836.9,955.1,1764.6,1965.7,1875.2,1141.0,7.0,0.0,9.0,8885.0,11618.0,5018.0,5418.0,-23.0,-27.0,46.0,3.0,-2.0,9.0,9230.0,9253.0,7911.0,5921.0,22.0,-8.0,27.0,1.0
2022-05-03 16:58:33.607813-07:00,2665.7,786.9,1989.5,2050.4,1624.7,1378.5,1622.8,1896.7,3443.1,3450.4,2480.2,1688.1,1463.5,3454.0,1650.2,1939.0,3444.3,3449.1,713.4,1314.2,961.1,581.0,1522.7,2593.9,3443.1,3441.9,835.2,952.6,1764.6,1965.7,1875.2,1134.0,6.0,11.0,5.0,8882.0,11614.0,5023.0,5424.0,13.0,23.0,-19.0,10.0,0.0,15.0,9222.0,9260.0,7912.0,5920.0,30.0,12.0,-9.0,1.0
