Time,P0,P1,P2,P3,P4,P5,P6,P7,P8,P9,P10,P11,P12,P13,P14,P15,P16,P17,P18,P19,P20,P21,P22,P23,P24,P25,P26,P27,P28,P29,P30,P31,ECG,AX0,AY0,AZ0,QW0,QX0,QY0,QZ0,GX0,GY0,GZ0,AX1,AY1,AZ1,QW1,QX1,QY1,QZ1,GX1,GY1,GZ1
2022-05-03 17:05:07.715087-07:00,1184.1,710.1,1125.2,1032.3,886.5,805.2,1791.6,1325.0,3473.4,3480.7,1109.5,857.0,1510.6,3481.9,1440.5,1310.6,3485.6,3477.1,930.5,1346.7,1565.5,2104.8,1204.4,3322.9,3480.7,3480.7,686.4,884.8,1682.4,1076.4,988.5,918.6,2.0,-6.0,5.0,10329.0,-12055.0,3786.0,-1449.0,2.0,4.0,5.0,4.0,-10.0,11.0,7726.0,-13896.0,3710.0,-1377.0,-5.0,4.0,5.0,1.0
2022-05-03 17:05:07.775635-07:00,1184.1,710.1,1125.2,1034.9,886.5,799.4,1788.7,1315.1,3473.4,3480.7,1109.5,859.5,1510.6,3483.2,1436.9,1302.5,3486.8,3485.6,938.1,1346.7,1572.1,2104.8,1204.4,3322.9,3484.4,3483.2,684.0,884.8,1680.5,1076.4,988.5,918.6,2.0,-9.0,14.0,10328.0,-12056.0,3785.0,-1447.0,-11.0,-14.0,0.0,1.0,-9.0,11.0,7726.0,-13896.0,3710.0,-1377.0,-4.0,-1.0,2.0,1.0
2022-05-03 17:05:07.776911-07:00,1189.4,708.5,1125.2,1034.9,889.0,799.4,1788.7,1315.1,3477.1,3475.9,1113.9,859.5,1506.0,3483.2,1436.9,1302.5,3486.8,3485.6,938.1,1345.8,1572.1,2101.7,1198.2,3308.6,3484.4,3483.2,684.0,887.3,1680.5,1086.0,978.2,925.4,1.0,-9.0,15.0,10329.0,-12057.0,3783.0,-1444.0,-4.0,2.0,0.0,3.0,-10.0,11.0,7726.0,-13896.0,3710.0,-1377.0,-4.0,2.0,1.0,1.0
2022-05-03 17:05:07.865172-07:00,1189.4,708.5,1125.2,1036.6,889.0,802.7,1795.5,1307.9,3477.1,3475.9,1113.9,865.4,1506.0,3483.2,1433.2,1303.4,3480.7,3469.8,944.9,1345.8,1573.0,2101.7,1198.2,3308.6,3483.2,3479.5,684.0,887.3,1680.5,1086.0,978.2,925.4,0.0,-6.0,12.0,10328.0,-12057.0,3783.0,-1445.0,-3.0,11.0,7.0,3.0,-11.0,14.0,7726.0,-13895.0,3711.0,-1376.0,-4.0,5.0,10.0,1.0
2022-05-03 17:05:07.866086-07:00,1181.5,707.7,1131.4,1036.6,885.6,802.7,1795.5,1307.9,3477.1,3475.9,1111.2,865.4,1507.8,3483.2,1433.2,1303.4,3480.7,3469.8,944.9,1345.8,1573.0,2105.8,1203.5,3301.5,3483.2,3479.5,684.0,883.1,1680.5,1079.0,986.7,926.2,0.0,-9.0,9.0,10328.0,-12057.0,3783.0,-1445.0,-9.0,6.0,-5.0,0.0,-9.0,11.0,7724.0,-13897.0,3711.0,-1376.0,-15.0,5.0,7.0,1.0
2022-05-03 17:05:07.866482-07:00,1181.5,707.7,1131.4,1036.6,885.6,802.7,1795.5,1307.9,3477.1,3475.9,1111.2,865.4,1507.8,3483.2,1433.2,1303.4,3480.7,3469.8,944.9,1345.8,1573.0,2105.8,1203.5,3301.5,3483.2,3479.5,684.0,883.1,1680.5,1079.0,986.7,926.2,0.0,-9.0,9.0,10328.0,-12057.0,3783.0,-1445.0,-9.0,6.0,-5.0,0.0,-9.0,11.0,7724.0,-13897.0,3711.0,-1376.0,-15.0,5.0,7.0,1.0
2022-05-03 17:05:07.867816-07:00,1181.5,707.7,1130.5,1035.7,878.0,809.4,1788.7,1316.0,3480.7,3483.2,1109.5,865.4,1510.6,3479.5,1435.0,1300.7,3479.5,3474.6,930.5,1344.0,1573.0,2101.7,1203.5,3314.6,3481.9,3478.3,681.5,884.8,1686.2,1084.2,985.0,922.0,0.0,-8.0,17.0,10326.0,-12060.0,3782.0,-1441.0,-13.0,-11.0,-6.0,3.0,-8.0,12.0,7721.0,-13898.0,3711.0,-1375.0,-14.0,-1.0,3.0,1.0
2022-05-03 17:05:07.868268-07:00,1181.5,707.7,1130.5,1035.7,878.0,809.4,1788.7,1316.0,3480.7,3483.2,1109.5,865.4,1510.6,3479.5,1435.0,1300.7,3479.5,3474.6,930.5,1344.0,1573.0,2101.7,1203.5,3314.6,3481.9,3478.3,681.5,884.8,1686.2,1084.2,985.0,922.0,0.0,-8.0,17.0,10326.0,-12060.0,3782.0,-1441.0,-13.0,-11.0,-6.0,3.0,-8.0,12.0,7721.0,-13898.0,3711.0,-1375.0,-14.0,-1.0,3.0,1.0
2022-05-03 17:05:07.985687-07:00,1180.6,711.8,1120.9,1032.3,889.8,801.9,1786.8,1311.5,3472.2,3488.0,1106.0,851.1,1508.8,3479.5,1435.0,1299.8,3488.0,3480.7,932.2,1342.2,1573.9,2114.9,1209.7,3309.8,3481.9,3467.4,677.4,879.7,1676.7,1084.2,990.2,920.3,3.0,-6.0,16.0,10324.0,-12061.0,3782.0,-1441.0,-10.0,9.0,8.0,4.0,-10.0,10.0,7719.0,-13899.0,3712.0,-1375.0,-7.0,10.0,8.0,1.0
2022-05-03 17:05:07.986593-07:00,1180.6,710.1,1127.0,1023.7,889.8,801.9,1786.8,1309.7,3472.2,3477.1,1112.1,855.3,1508.8,3479.5,1435.0,1304.3,3484.4,3480.7,932.2,1342.2,1571.1,2118.9,1195.6,3309.8,3492.9,3467.4,677.4,879.7,1662.5,1079.0,991.9,920.3,0.0,-10.0,9.0,10324.0,-12061.0,3784.0,-1443.0,-5.0,2.0,-2.0,3.0,-10.0,9.0,7719.0,-13899.0,3713.0,-1376.0,-3.0,7.0,6.0,1.0
2022-05-03 17:05:08.015187-07:00,1183.2,709.3,1127.0,1023.7,890.7,806.9,1786.8,1309.7,3480.7,3478.3,1112.1,855.3,1499.5,3478.3,1436.9,1304.3,3484.4,3477.1,938.1,1338.6,1571.1,2118.9,1200.9,3297.9,3492.9,3472.2,681.5,883.9,1662.5,1079.0,990.2,924.5,1.0,-6.0,14.0,10324.0,-12061.0,3784.0,-1443.0,0.0,-2.0,4.0,2.0,-10.0,11.0,7719.0,-13899.0,3713.0,-1376.0,4.0,3.0,6.0,1.0
2022-05-03 17:05:08.045088-07:00,1183.2,709.3,1124.4,1032.3,890.7,806.9,1788.7,1303.4,3480.7,3478.3,1105.1,861.2,1499.5,3478.3,1437.8,1300.7,3477.1,3488.0,938.1,1338.6,1576.8,2104.8,1200.9,3297.9,3485.6,3483.2,681.5,883.9,1683.3,1082.5,990.2,924.5,1.0,-10.0,12.0,10324.0,-12061.0,3784.0,-1443.0,-4.0,-6.0,-4.0,1.0,-13.0,9.0,7719.0,-13899.0,3713.0,-1376.0,-3.0,2.0,3.0,1.0
2022-05-03 17:05:08.074973-07:00,1189.4,705.2,1124.4,1032.3,889.0,801.0,1788.7,1303.4,3480.7,3467.4,1105.1,861.2,1504.1,3477.1,1437.8,1300.7,3477.1,3488.0,930.5,1342.2,1576.8,2104.8,1193.8,3295.6,3485.6,3483.2,684.8,887.3,1683.3,1082.5,986.7,921.1,3.0,-9.0,15.0,10324.0,-12061.0,3784.0,-1443.0,6.0,2.0,7.0,4.0,-7.0,11.0,7720.0,-13898.0,3713.0,-1376.0,5.0,-3.0,3.0,1.0
2022-05-03 17:05:08.104869-07:00,1189.4,705.2,1133.1,1029.7,889.0,801.0,1786.8,1304.3,3480.7,3467.4,1108.6,859.5,1504.1,3477.1,1434.1,1300.7,3483.2,3484.4,930.5,1342.2,1570.2,2103.7,1193.8,3295.6,3479.5,3488.0,684.8,887.3,1675.7,1082.5,986.7,921.1,6.0,-7.0,15.0,10324.0,-12061.0,3781.0,-1440.0,3.0,-16.0,0.0,3.0,-8.0,12.0,7722.0,-13897.0,3713.0,-1376.0,4.0,-1.0,1.0,1.0
2022-05-03 17:05:08.165189-07:00,1185.9,708.5,1133.1,1029.7,889.0,804.4,1786.8,1304.3,3473.4,3483.2,1108.6,859.5,1506.0,3467.4,1434.1,1300.7,3483.2,3484.4,933.9,1342.2,1570.2,2103.7,1195.6,3288.4,3479.5,3488.0,678.2,882.3,1675.7,1082.5,987.6,922.8,0.0,-13.0,14.0,10325.0,-12061.0,3781.0,-1439.0,5.0,-6.0,10.0,2.0,-10.0,14.0,7722.0,-13897.0,3713.0,-1376.0,16.0,1.0,6.0,1.0
2022-05-03 17:05:08.225534-07:00,1185.9,708.5,1121.7,1030.6,889.0,804.4,1779.1,1319.6,3473.4,3483.2,1103.4,859.5,1506.0,3467.4,1434.1,1307.9,3480.7,3478.3,933.9,1342.2,1573.0,2105.8,1195.6,3288.4,3472.2,3483.2,678.2,882.3,1680.5,1079.9,987.6,922.8,0.0,-2.0,17.0,10326.0,-12059.0,3783.0,-1437.0,-1.0,-6.0,-3.0,3.0,-10.0,13.0,7725.0,-13895.0,3712.0,-1377.0,-1.0,5.0,4.0,1.0
2022-05-03 17:05:08.285057-07:00,1190.3,709.3,1128.7,1030.6,885.6,801.9,1779.1,1319.6,3467.4,3474.6,1110.4,859.5,1504.1,3477.1,1434.1,1307.9,3480.7,3478.3,936.4,1335.9,1573.0,2108.8,1200.9,3288.4,3472.2,3483.2,683.1,886.5,1680.5,1077.3,986.7,919.4,-1.0,-13.0,10.0,10326.0,-12059.0,3783.0,-1437.0,6.0,-8.0,5.0,0.0,-9.0,11.0,7726.0,-13895.0,3712.0,-1377.0,17.0,8.0,4.0,1.0
2022-05-03 17:05:08.315794-07:00,1190.3,709.3,1128.7,1035.7,885.6,801.9,1785.8,1310.6,3467.4,3474.6,1110.4,862.1,1504.1,3473.4,1443.3,1300.7,3485.6,3483.2,935.6,1335.9,1573.9,2108.8,1200.9,3288.4,3485.6,3488.0,678.2,886.5,1682.4,1077.3,986.7,919.4,3.0,-8.0,15.0,10326.0,-12059.0,3784.0,-1437.0,7.0,1.0,6.0,3.0,-12.0,15.0,7728.0,-13894.0,3712.0,-1378.0,10.0,2.0,6.0,1.0
2022-05-03 17:05:08.345373-07:00,1189.4,706.9,1130.5,1035.7,882.3,801.9,1785.8,1310.6,3483.2,3480.7,1104.3,862.1,1508.8,3473.4,1443.3,1300.7,3485.6,3483.2,935.6,1343.1,1573.9,2108.8,1198.2,3295.6,3485.6,3488.0,678.2,878.0,1682.4,1083.4,997.0,922.8,1.0,-10.0,14.0,10326.0,-12059.0,3784.0,-1437.0,-7.0,-4.0,2.0,1.0,-10.0,11.0,7729.0,-13893.0,3712.0,-1378.0,-4.0,-3.0,0.0,1.0
2022-05-03 17:05:08.435720-07:00,1189.4,706.9,1130.5,1039.2,882.3,801.9,1794.5,1301.6,3483.2,3480.7,1104.3,858.7,1508.8,3474.6,1431.4,1300.7,3488.0,3468.6,929.6,1343.1,1570.2,2108.8,1198.2,3295.6,3484.4,3479.5,681.5,878.0,1678.6,1083.4,997.0,922.8,1.0,-9.0,16.0,10326.0,-12059.0,3784.0,-1437.0,-3.0,-4.0,4.0,3.0,-11.0,16.0,7729.0,-13893.0,3712.0,-1378.0,-2.0,-3.0,3.0,1.0
2022-05-03 17:05:08.495327-07:00,1185.9,703.6,1126.1,1039.2,883.1,801.9,1794.5,1301.6,3473.4,3469.8,1105.1,858.7,1503.2,3474.6,1431.4,1300.7,3488.0,3468.6,929.6,1342.2,1570.2,2095.7,1201.8,3289.6,3484.4,3479.5,681.5,883.9,1678.6,1079.0,987.6,924.5,0.0,-7.0,15.0,10326.0,-12059.0,3784.0,-1437.0,-8.0,-5.0,0.0,1.0,-9.0,12.0,7729.0,-13893.0,3712.0,-1378.0,-9.0,-2.0,2.0,1.0
2022-05-03 17:05:08.645418-07:00,1185.9,703.6,1126.1,1034.9,884.8,803.5,1782.0,1303.4,3473.4,3469.8,1105.1,857.9,1503.2,3467.4,1433.2,1298.1,3475.9,3477.1,927.9,1346.7,1566.5,2095.7,1201.8,3289.6,3479.5,3475.9,680.7,886.5,1680.5,1079.0,987.6,924.5,0.0,-11.0,13.0,10326.0,-12059.0,3784.0,-1437.0,9.0,-8.0,5.0,4.0,-12.0,14.0,7729.0,-13893.0,3712.0,-1378.0,10.0,0.0,4.0,1.0
2022-05-03 17:05:08.946004-07:00,1183.2,708.5,1118.2,1033.2,884.8,803.5,1782.0,1303.4,3473.4,3478.3,1106.0,857.9,1503.2,3467.4,1433.2,1298.1,3475.9,3477.1,927.9,1346.7,1572.1,2105.8,1200.0,3282.5,3479.5,3475.9,680.7,886.5,1677.6,1072.9,990.2,921.1,3.0,-10.0,17.0,10328.0,-12058.0,3783.0,-1435.0,2.0,-4.0,0.0,2.0,-10.0,14.0,7729.0,-13893.0,3712.0,-1378.0,4.0,-5.0,3.0,1.0
2022-05-03 17:05:09.005234-07:00,1183.2,708.5,1118.2,1033.2,886.5,806.9,1774.3,1304.3,3473.4,3478.3,1106.0,857.9,1515.3,3477.1,1432.3,1302.5,3478.3,3477.1,935.6,1344.0,1572.1,2105.8,1200.0,3282.5,3478.3,3483.2,681.5,884.8,1677.6,1072.9,990.2,921.1,1.0,-10.0,17.0,10327.0,-12059.0,3783.0,-1435.0,-10.0,-1.0,2.0,1.0,-12.0,13.0,7729.0,-13893.0,3712.0,-1378.0,-6.0,1.0,4.0,1.0
2022-05-03 17:05:09.008957-07:00,1185.9,710.1,1127.0,1030.6,886.5,806.9,1774.3,1304.3,3480.7,3472.2,1097.3,857.9,1515.3,3477.1,1432.3,1302.5,3478.3,3477.1,935.6,1344.0,1570.2,2111.8,1200.0,3293.2,3478.3,3483.2,681.5,884.8,1678.6,1087.7,994.5,923.7,0.0,-9.0,14.0,10327.0,-12059.0,3783.0,-1435.0,3.0,-5.0,1.0,0.0,-11.0,12.0,7729.0,-13893.0,3712.0,-1378.0,0.0,4.0,4.0,1.0
2022-05-03 17:05:09.009981-07:00,1185.9,710.1,1127.0,1030.6,883.1,800.2,1787.8,1295.4,3480.7,3472.2,1097.3,857.9,1507.8,3475.9,1432.3,1303.4,3484.4,3479.5,936.4,1344.0,1570.2,2111.8,1200.0,3293.2,3481.9,3485.6,687.2,880.6,1678.6,1087.7,994.5,923.7,0.0,-11.0,16.0,10327.0,-12059.0,3782.0,-1434.0,-2.0,0.0,2.0,3.0,-12.0,16.0,7729.0,-13893.0,3712.0,-1378.0,-3.0,2.0,4.0,1.0
2022-05-03 17:05:09.010647-07:00,1183.2,709.3,1130.5,1029.7,883.1,800.2,1787.8,1295.4,3477.1,3478.3,1104.3,858.7,1507.8,3475.9,1432.3,1303.4,3484.4,3479.5,936.4,1344.0,1569.3,2103.7,1201.8,3293.2,3481.9,3485.6,687.2,880.6,1681.4,1071.2,990.2,921.1,2.0,-6.0,17.0,10327.0,-12059.0,3782.0,-1434.0,-4.0,-2.0,-2.0,3.0,-10.0,14.0,7729.0,-13893.0,3712.0,-1378.0,-8.0,3.0,3.0,1.0
2022-05-03 17:05:09.011222-07:00,1181.5,707.7,1118.2,1031.4,888.2,801.0,1787.8,1307.0,3469.8,3478.3,1104.3,857.9,1506.9,3484.4,1432.3,1301.6,3472.2,3483.2,932.2,1344.9,1572.1,2100.7,1200.0,3288.4,3475.9,3488.0,679.9,885.6,1690.0,1077.3,990.2,911.8,2.0,-16.0,19.0,10328.0,-12059.0,3781.0,-1433.0,-4.0,-1.0,-4.0,2.0,-11.0,13.0,7728.0,-13894.0,3712.0,-1378.0,-6.0,6.0,6.0,1.0
2022-05-03 17:05:09.065251-07:00,1181.5,709.3,1126.1,1031.4,888.2,801.0,1784.9,1302.5,3469.8,3475.9,1102.5,857.0,1506.9,3484.4,1426.8,1301.6,3475.9,3481.9,932.2,1344.9,1571.1,2108.8,1203.5,3288.4,3479.5,3488.0,679.9,885.6,1669.1,1092.1,991.0,911.8,2.0,-5.0,17.0,10328.0,-12059.0,3781.0,-1433.0,2.0,-1.0,7.0,2.0,-13.0,16.0,7728.0,-13894.0,3712.0,-1378.0,-1.0,4.0,7.0,1.0
2022-05-03 17:05:09.125375-07:00,1181.5,712.6,1126.1,1031.4,881.4,801.9,1784.9,1302.5,3472.2,3467.4,1102.5,857.0,1499.5,3469.8,1426.8,1301.6,3475.9,3481.9,928.8,1346.7,1571.1,2108.8,1199.1,3296.7,3479.5,3488.0,683.1,885.6,1669.1,1092.1,986.7,923.7,0.0,-10.0,15.0,10328.0,-12059.0,3781.0,-1433.0,-6.0,-2.0,-7.0,0.0,-13.0,12.0,7727.0,-13894.0,3712.0,-1379.0,-7.0,5.0,3.0,1.0
2022-05-03 17:05:09.155282-07:00,1181.5,712.6,1126.1,1029.7,881.4,801.9,1783.9,1305.2,3472.2,3467.4,1106.9,864.6,1499.5,3469.8,1425.9,1303.4,3478.3,3486.8,928.8,1346.7,1569.3,2100.7,1199.1,3296.7,3478.3,3481.9,683.1,885.6,1674.8,1081.6,986.7,923.7,0.0,-15.0,19.0,10326.0,-12060.0,3781.0,-1432.0,5.0,-3.0,2.0,0.0,-14.0,15.0,7727.0,-13894.0,3713.0,-1378.0,6.0,2.0,3.0,1.0
2022-05-03 17:05:09.215162-07:00,1187.6,711.0,1126.1,1029.7,885.6,805.2,1783.9,1305.2,3469.8,3474.6,1106.9,864.6,1505.1,3477.1,1425.9,1303.4,3478.3,3486.8,931.3,1343.1,1569.3,2100.7,1198.2,3270.7,3478.3,3481.9,683.1,878.9,1674.8,1081.6,990.2,922.0,0.0,-10.0,17.0,10326.0,-12060.0,3781.0,-1432.0,-11.0,2.0,-7.0,0.0,-11.0,14.0,7724.0,-13896.0,3713.0,-1378.0,-16.0,4.0,2.0,1.0
2022-05-03 17:05:09.245475-07:00,1187.6,711.0,1126.1,1034.0,885.6,805.2,1776.2,1301.6,3469.8,3474.6,1112.1,860.4,1505.1,3477.1,1433.2,1299.8,3484.4,3488.0,931.3,1343.1,1576.8,2107.8,1198.2,3270.7,3477.1,3481.9,683.1,878.9,1677.6,1081.6,990.2,922.0,2.0,-13.0,16.0,10326.0,-12061.0,3781.0,-1432.0,4.0,7.0,5.0,3.0,-13.0,16.0,7724.0,-13896.0,3713.0,-1378.0,3.0,3.0,6.0,1.0
2022-05-03 17:05:09.305389-07:00,1185.9,712.6,1126.1,1034.0,883.9,799.4,1776.2,1301.6,3474.6,3479.5,1112.1,860.4,1511.5,3478.3,1433.2,1299.8,3484.4,3488.0,933.0,1342.2,1576.8,2107.8,1198.2,3295.6,3477.1,3481.9,682.3,878.9,1677.6,1081.6,985.0,922.8,4.0,-6.0,14.0,10326.0,-12061.0,3781.0,-1433.0,-7.0,-2.0,-10.0,2.0,-9.0,15.0,7724.0,-13896.0,3713.0,-1378.0,-8.0,6.0,2.0,1.0
2022-05-03 17:05:09.395408-07:00,1185.9,712.6,1134.0,1031.4,883.9,803.5,1779.1,1307.0,3474.6,3479.5,1102.5,853.7,1511.5,3485.6,1425.9,1302.5,3486.8,3485.6,937.3,1342.2,1570.2,2108.8,1198.2,3295.6,3490.5,3481.9,675.8,878.9,1680.5,1080.8,985.0,922.8,0.0,-12.0,16.0,10324.0,-12063.0,3781.0,-1432.0,-3.0,-7.0,5.0,0.0,-15.0,16.0,7724.0,-13896.0,3713.0,-1378.0,2.0,-1.0,3.0,1.0
2022-05-03 17:05:09.396524-07:00,1186.7,706.9,1121.7,1031.4,880.6,803.5,1779.1,1307.0,3474.6,3473.4,1107.8,853.7,1504.1,3485.6,1425.9,1302.5,3486.8,3485.6,937.3,1338.6,1570.2,2100.7,1200.9,3288.4,3490.5,3481.9,675.8,879.7,1680.5,1074.7,987.6,918.6,0.0,-8.0,17.0,10324.0,-12063.0,3780.0,-1431.0,-2.0,-5.0,-3.0,2.0,-12.0,16.0,7724.0,-13896.0,3713.0,-1378.0,2.0,-2.0,1.0,1.0
2022-05-03 17:05:09.785778-07:00,1186.7,706.9,1121.7,1028.8,880.6,799.4,1776.2,1299.0,3474.6,3473.4,1107.8,855.3,1504.1,3477.1,1434.1,1299.8,3485.6,3481.9,933.9,1338.6,1576.8,2100.7,1200.9,3288.4,3480.7,3492.9,681.5,879.7,1676.7,1074.7,987.6,918.6,1.0,-13.0,22.0,10324.0,-12063.0,3780.0,-1431.0,-6.0,-6.0,0.0,3.0,-14.0,16.0,7724.0,-13896.0,3713.0,-1378.0,-5.0,2.0,6.0,1.0
2022-05-03 17:05:09.995982-07:00,1181.5,707.7,1124.4,1028.8,883.9,799.4,1776.2,1299.0,3474.6,3478.3,1112.1,855.3,1507.8,3477.1,1434.1,1299.8,3485.6,3481.9,933.9,1346.7,1576.8,2107.8,1197.4,3278.9,3480.7,3492.9,681.5,883.9,1676.7,1080.8,991.9,920.3,0.0,-6.0,20.0,10325.0,-12062.0,3780.0,-1432.0,3.0,0.0,1.0,-1.0,-10.0,18.0,7724.0,-13896.0,3713.0,-1378.0,3.0,1.0,4.0,1.0
2022-05-03 17:05:10.174954-07:00,1181.5,707.7,1124.4,1030.6,883.9,801.9,1779.1,1316.0,3474.6,3478.3,1112.1,857.9,1507.8,3488.0,1428.6,1300.7,3486.8,3475.9,933.0,1346.7,1566.5,2107.8,1197.4,3278.9,3480.7,3489.2,676.6,883.9,1678.6,1080.8,991.9,920.3,0.0,-11.0,15.0,10329.0,-12059.0,3778.0,-1433.0,-4.0,0.0,3.0,1.0,-13.0,16.0,7724.0,-13896.0,3713.0,-1378.0,-7.0,3.0,6.0,1.0
2022-05-03 17:05:10.205522-07:00,1180.6,709.3,1126.1,1028.0,887.3,801.9,1779.1,1316.0,3483.2,3475.9,1104.3,857.0,1507.8,3488.0,1428.6,1300.7,3486.8,3475.9,933.0,1341.3,1575.8,2107.8,1198.2,3269.5,3480.7,3489.2,676.6,878.0,1688.1,1073.8,983.3,924.5,0.0,-7.0,15.0,10332.0,-12057.0,3777.0,-1434.0,-4.0,-2.0,-3.0,2.0,-13.0,18.0,7724.0,-13896.0,3713.0,-1378.0,-3.0,3.0,2.0,1.0
2022-05-03 17:05:10.206575-07:00,1180.6,709.3,1126.1,1028.0,883.9,798.5,1776.2,1300.7,3483.2,3475.9,1104.3,857.0,1505.1,3478.3,1436.0,1305.2,3485.6,3486.8,928.8,1346.7,1575.8,2107.8,1198.2,3269.5,3483.2,3484.4,676.6,879.7,1688.1,1073.8,983.3,924.5,1.0,-10.0,21.0,10338.0,-12052.0,3774.0,-1434.0,12.0,-5.0,-3.0,3.0,-10.0,15.0,7724.0,-13896.0,3713.0,-1378.0,11.0,2.0,2.0,1.0
2022-05-03 17:05:10.207142-07:00,1180.6,709.3,1126.1,1028.0,883.9,798.5,1776.2,1300.7,3483.2,3475.9,1104.3,857.0,1505.1,3478.3,1436.0,1305.2,3485.6,3486.8,928.8,1346.7,1575.8,2107.8,1198.2,3269.5,3483.2,3484.4,676.6,879.7,1688.1,1073.8,983.3,924.5,1.0,-10.0,21.0,10338.0,-12052.0,3774.0,-1434.0,12.0,-5.0,-3.0,3.0,-10.0,15.0,7724.0,-13896.0,3713.0,-1378.0,11.0,2.0,2.0,1.0
2022-05-03 17:05:10.208122-07:00,1189.4,706.0,1140.1,1030.6,879.7,803.5,1782.0,1310.6,3477.1,3474.6,1112.1,858.7,1504.1,3478.3,1432.3,1295.4,3481.9,3478.3,933.9,1344.9,1581.4,2107.8,1197.4,3277.8,3489.2,3475.9,679.9,880.6,1675.7,1072.1,983.3,928.8,1.0,-10.0,14.0,10351.0,-12041.0,3772.0,-1440.0,-5.0,-6.0,-5.0,0.0,-14.0,16.0,7736.0,-13888.0,3713.0,-1383.0,-5.0,-4.0,-1.0,1.0
2022-05-03 17:05:10.209781-07:00,1181.5,707.7,1126.1,1028.8,890.7,799.4,1779.1,1302.5,3488.0,3468.6,1106.9,861.2,1495.8,3478.3,1428.6,1301.6,3481.9,3480.7,933.9,1343.1,1566.5,2102.7,1194.7,3282.5,3474.6,3488.0,682.3,883.9,1671.0,1073.8,990.2,923.7,1.0,-7.0,10.0,10365.0,-12030.0,3767.0,-1444.0,-8.0,3.0,3.0,0.0,-9.0,12.0,7753.0,-13879.0,3711.0,-1389.0,-5.0,-2.0,5.0,1.0
2022-05-03 17:05:10.211014-07:00,1181.5,707.7,1126.1,1028.8,890.7,799.4,1779.1,1302.5,3488.0,3468.6,1106.9,861.2,1495.8,3478.3,1428.6,1301.6,3481.9,3480.7,933.9,1343.1,1566.5,2102.7,1194.7,3282.5,3474.6,3488.0,682.3,883.9,1671.0,1073.8,990.2,923.7,1.0,-7.0,10.0,10365.0,-12030.0,3767.0,-1444.0,-8.0,3.0,3.0,0.0,-9.0,12.0,7753.0,-13879.0,3711.0,-1389.0,-5.0,-2.0,5.0,1.0
2022-05-03 17:05:10.235213-07:00,1181.5,707.7,1126.1,1028.8,890.7,799.4,1779.1,1302.5,3488.0,3468.6,1106.9,861.2,1495.8,3478.3,1428.6,1301.6,3481.9,3480.7,933.9,1343.1,1566.5,2102.7,1194.7,3282.5,3474.6,3488.0,682.3,883.9,1671.0,1073.8,990.2,923.7,1.0,-7.0,10.0,10365.0,-12030.0,3767.0,-1444.0,-8.0,3.0,3.0,0.0,-9.0,12.0,7753.0,-13879.0,3711.0,-1389.0,-5.0,-2.0,5.0,1.0
2022-05-03 17:05:10.265216-07:00,1187.6,709.3,1130.5,1033.2,883.1,798.5,1776.2,1305.2,3480.7,3472.2,1104.3,860.4,1507.8,3473.4,1434.1,1299.8,3477.1,3477.1,925.4,1342.2,1573.9,2100.7,1195.6,3286.1,3478.3,3475.9,685.6,879.7,1672.9,1074.7,985.9,932.2,0.0,-5.0,12.0,10370.0,-12026.0,3766.0,-1445.0,-5.0,9.0,7.0,0.0,-12.0,12.0,7764.0,-13873.0,3708.0,-1392.0,-4.0,5.0,6.0,1.0
2022-05-03 17:05:10.295480-07:00,1187.6,709.3,1123.5,1026.3,883.1,798.5,1780.1,1303.4,3480.7,3472.2,1105.1,858.7,1507.8,3473.4,1427.7,1300.7,3473.4,3480.7,925.4,1342.2,1575.8,2103.7,1195.6,3286.1,3484.4,3479.5,685.6,879.7,1677.6,1073.8,985.9,932.2,-1.0,-11.0,11.0,10372.0,-12024.0,3765.0,-1445.0,-3.0,1.0,3.0,1.0,-12.0,13.0,7767.0,-13872.0,3708.0,-1393.0,-3.0,5.0,6.0,1.0
2022-05-03 17:05:10.385203-07:00,1187.6,706.0,1123.5,1026.3,883.1,801.0,1780.1,1303.4,3473.4,3479.5,1105.1,858.7,1507.8,3479.5,1427.7,1300.7,3473.4,3480.7,930.5,1335.0,1575.8,2103.7,1200.0,3262.4,3484.4,3479.5,679.1,880.6,1677.6,1073.8,989.3,920.3,3.0,-6.0,12.0,10374.0,-12023.0,3764.0,-1446.0,-9.0,1.0,1.0,1.0,-7.0,10.0,7770.0,-13870.0,3707.0,-1394.0,-1.0,4.0,6.0,1.0
2022-05-03 17:05:10.386282-07:00,1187.6,706.0,1120.9,1027.1,883.1,794.4,1779.1,1306.1,3473.4,3479.5,1112.1,859.5,1507.8,3484.4,1429.5,1301.6,3488.0,3477.1,933.0,1335.0,1573.0,2104.8,1200.0,3262.4,3486.8,3485.6,679.1,880.6,1677.6,1079.9,989.3,920.3,1.0,-9.0,14.0,10377.0,-12021.0,3763.0,-1447.0,-1.0,2.0,0.0,-1.0,-8.0,12.0,7773.0,-13868.0,3707.0,-1395.0,0.0,6.0,9.0,1.0
2022-05-03 17:05:10.445840-07:00,1183.2,718.4,1124.4,1027.1,886.5,794.4,1779.1,1306.1,3484.4,3473.4,1107.8,859.5,1506.9,3484.4,1429.5,1301.6,3488.0,3477.1,933.0,1337.7,1573.0,2100.7,1197.4,3286.1,3486.8,3485.6,679.1,880.6,1677.6,1076.4,983.3,915.2,0.0,-7.0,8.0,10378.0,-12020.0,3763.0,-1447.0,-5.0,-6.0,-2.0,0.0,-8.0,9.0,7775.0,-13867.0,3706.0,-1396.0,-2.0,6.0,3.0,1.0
2022-05-03 17:05:10.506222-07:00,1183.2,718.4,1124.4,1031.4,886.5,799.4,1779.1,1302.5,3484.4,3473.4,1107.8,858.7,1506.9,3475.9,1431.4,1299.0,3489.2,3483.2,933.0,1337.7,1566.5,2100.7,1197.4,3286.1,3486.8,3481.9,675.0,880.6,1680.5,1076.4,983.3,915.2,0.0,-10.0,13.0,10380.0,-12019.0,3762.0,-1448.0,-4.0,-2.0,-5.0,0.0,-9.0,10.0,7777.0,-13866.0,3706.0,-1397.0,-6.0,3.0,2.0,1.0
2022-05-03 17:05:10.625334-07:00,1184.1,712.6,1122.6,1031.4,881.4,799.4,1779.1,1302.5,3480.7,3469.8,1104.3,858.7,1506.0,3475.9,1431.4,1299.0,3489.2,3483.2,933.0,1344.9,1566.5,2098.7,1197.4,3274.2,3486.8,3481.9,675.0,883.1,1680.5,1075.6,988.5,922.8,1.0,-8.0,15.0,10380.0,-12019.0,3762.0,-1448.0,-3.0,0.0,-9.0,2.0,-10.0,10.0,7780.0,-13864.0,3705.0,-1397.0,-6.0,6.0,3.0,1.0
2022-05-03 17:05:10.655199-07:00,1184.1,712.6,1122.6,1028.0,881.4,796.0,1777.2,1306.1,3480.7,3469.8,1104.3,857.9,1506.0,3478.3,1433.2,1299.8,3489.2,3478.3,930.5,1344.9,1574.9,2098.7,1197.4,3274.2,3480.7,3481.9,679.9,883.1,1675.7,1075.6,988.5,922.8,1.0,-10.0,12.0,10379.0,-12019.0,3763.0,-1448.0,-2.0,3.0,2.0,0.0,-13.0,12.0,7783.0,-13863.0,3705.0,-1399.0,-3.0,8.0,8.0,1.0
2022-05-03 17:05:10.685320-07:00,1181.5,710.1,1125.2,1028.0,887.3,796.0,1777.2,1306.1,3467.4,3479.5,1106.0,857.9,1506.9,3478.3,1433.2,1299.8,3489.2,3478.3,930.5,1343.1,1574.9,2095.7,1200.0,3269.5,3480.7,3481.9,679.9,876.4,1675.7,1084.2,990.2,920.3,-4.0,-16.0,9.0,10379.0,-12018.0,3765.0,-1449.0,1.0,18.0,19.0,1.0,-15.0,9.0,7782.0,-13862.0,3707.0,-1403.0,-17.0,16.0,8.0,1.0
2022-05-03 17:05:10.715176-07:00,1181.5,710.1,1125.2,1028.0,887.3,797.7,1777.2,1300.7,3467.4,3479.5,1106.0,865.4,1505.1,3474.6,1429.5,1295.4,3489.2,3490.5,939.0,1352.1,1572.1,2095.7,1200.0,3269.5,3488.0,3477.1,683.1,879.7,1673.8,1084.2,990.2,920.3,3.0,0.0,12.0,10379.0,-12016.0,3771.0,-1446.0,-5.0,4.0,2.0,1.0,-7.0,9.0,7782.0,-13861.0,3712.0,-1405.0,-16.0,9.0,8.0,1.0
2022-05-03 17:05:10.745391-07:00,1187.6,706.0,1125.2,1031.4,887.3,797.7,1777.2,1300.7,3480.7,3475.9,1103.4,862.9,1505.1,3474.6,1429.5,1295.4,3489.2,3490.5,939.0,1352.1,1571.1,2102.7,1197.4,3276.6,3488.0,3477.1,683.1,879.7,1676.7,1078.2,987.6,918.6,-1.0,-17.0,12.0,10377.0,-12019.0,3767.0,-1452.0,-13.0,17.0,-11.0,1.0,-10.0,8.0,7777.0,-13864.0,3713.0,-1404.0,-22.0,4.0,0.0,1.0
2022-05-03 17:05:10.805786-07:00,1187.6,706.0,1125.2,1031.4,883.1,801.0,1780.1,1298.1,3480.7,3475.9,1103.4,862.9,1505.1,3472.2,1425.9,1297.2,3474.6,3479.5,925.4,1338.6,1571.1,2102.7,1197.4,3276.6,3475.9,3473.4,678.2,879.7,1676.7,1078.2,987.6,918.6,5.0,-1.0,13.0,10377.0,-12019.0,3767.0,-1453.0,13.0,-1.0,-11.0,4.0,-7.0,9.0,7777.0,-13863.0,3713.0,-1404.0,3.0,5.0,-1.0,1.0
2022-05-03 17:05:10.835276-07:00,1189.4,708.5,1129.6,1028.8,883.1,801.0,1780.1,1298.1,3479.5,3478.3,1103.4,857.9,1505.1,3472.2,1425.9,1297.2,3474.6,3479.5,925.4,1338.6,1575.8,2099.7,1196.5,3258.8,3475.9,3473.4,678.2,879.7,1676.7,1066.0,989.3,922.8,2.0,-11.0,8.0,10376.0,-12021.0,3760.0,-1459.0,-21.0,9.0,-18.0,0.0,-9.0,10.0,7775.0,-13865.0,3713.0,-1404.0,-17.0,4.0,2.0,1.0
2022-05-03 17:05:10.955868-07:00,1189.4,708.5,1129.6,1028.8,885.6,804.4,1783.9,1294.5,3479.5,3478.3,1103.4,857.9,1500.4,3471.0,1431.4,1302.5,3478.3,3484.4,933.0,1344.9,1575.8,2099.7,1196.5,3258.8,3475.9,3484.4,679.1,878.0,1676.7,1066.0,989.3,922.8,-4.0,-9.0,17.0,10375.0,-12019.0,3768.0,-1463.0,34.0,24.0,19.0,3.0,-12.0,18.0,7775.0,-13864.0,3715.0,-1404.0,23.0,11.0,12.0,1.0
2022-05-03 17:05:10.956892-07:00,1187.6,705.2,1126.1,1042.6,885.6,804.4,1783.9,1303.4,3474.6,3478.3,1102.5,857.0,1500.4,3471.0,1431.4,1289.1,3481.9,3484.4,933.0,1344.9,1573.0,2100.7,1194.7,3267.1,3484.4,3484.4,679.1,878.0,1671.0,1074.7,991.0,918.6,-5.0,-19.0,7.0,10375.0,-12017.0,3776.0,-1463.0,-40.0,34.0,30.0,-1.0,-12.0,4.0,7774.0,-13863.0,3721.0,-1409.0,-34.0,11.0,10.0,1.0
2022-05-03 17:05:11.045473-07:00,1182.3,705.2,1126.1,1042.6,883.9,799.4,1773.3,1303.4,3483.2,3478.3,1102.5,857.0,1503.2,3472.2,1432.3,1289.1,3481.9,3488.0,933.0,1347.6,1573.0,2100.7,1194.7,3265.9,3484.4,3481.9,679.1,879.7,1671.0,1074.7,991.0,912.7,8.0,10.0,3.0,10373.0,-12017.0,3782.0,-1456.0,20.0,-19.0,-8.0,8.0,-4.0,11.0,7774.0,-13861.0,3726.0,-1412.0,15.0,17.0,-5.0,1.0
2022-05-03 17:05:11.047016-07:00,1182.3,712.6,1127.9,1023.7,883.9,799.4,1773.3,1299.8,3483.2,3480.7,1106.0,856.2,1503.2,3472.2,1432.3,1300.7,3477.1,3488.0,933.0,1347.6,1566.5,2102.7,1191.2,3265.9,3478.3,3481.9,679.1,879.7,1671.9,1079.0,987.6,912.7,0.0,-2.0,-14.0,10380.0,-12027.0,3744.0,-1428.0,-48.0,-201.0,-33.0,0.0,-4.0,11.0,7769.0,-13862.0,3724.0,-1433.0,11.0,43.0,-17.0,1.0
2022-05-03 17:05:11.105803-07:00,1185.9,712.6,1127.9,1023.7,884.8,799.4,1773.3,1299.8,3471.0,3480.7,1106.0,856.2,1498.6,3473.4,1433.2,1300.7,3477.1,3488.0,931.3,1345.8,1566.5,2102.7,1191.2,3263.6,3478.3,3483.2,678.2,877.2,1671.9,1079.0,987.6,916.0,10.0,-14.0,30.0,10392.0,-12033.0,3702.0,-1390.0,67.0,-83.0,-26.0,0.0,-11.0,9.0,7771.0,-13861.0,3719.0,-1442.0,64.0,-14.0,-29.0,1.0
2022-05-03 17:05:11.135766-07:00,1185.9,706.9,1120.0,1032.3,884.8,799.4,1773.3,1296.3,3471.0,3477.1,1099.0,859.5,1498.6,3473.4,1433.2,1299.8,3478.3,3488.0,931.3,1345.8,1569.3,2104.8,1195.6,3263.6,3471.0,3483.2,678.2,877.2,1676.7,1077.3,991.0,916.0,-10.0,-25.0,27.0,10437.0,-11999.0,3685.0,-1399.0,134.0,18.0,12.0,0.0,-13.0,18.0,7806.0,-13846.0,3702.0,-1451.0,76.0,-6.0,-16.0,1.0
2022-05-03 17:05:11.226161-07:00,1190.3,701.1,1120.0,1032.3,881.4,801.9,1773.3,1296.3,3481.9,3474.6,1099.0,859.5,1501.4,3475.9,1428.6,1299.8,3478.3,3483.2,927.1,1347.6,1569.3,2104.8,1192.9,3286.1,3471.0,3485.6,679.9,877.2,1676.7,1077.3,984.2,922.8,42.0,12.0,-53.0,10450.0,-11992.0,3679.0,-1373.0,-63.0,-155.0,4.0,24.0,-26.0,27.0,7832.0,-13828.0,3700.0,-1477.0,112.0,127.0,-52.0,1.0
2022-05-03 17:05:11.285386-07:00,1190.3,701.1,1120.9,1022.8,881.4,801.9,1785.8,1281.0,3481.9,3474.6,1105.1,856.2,1501.4,3475.9,1422.2,1292.7,3488.0,3474.6,927.1,1347.6,1573.9,2102.7,1192.9,3286.1,3474.6,3477.1,679.9,877.2,1672.9,1078.2,984.2,922.8,50.0,183.0,-193.0,10413.0,-12139.0,3336.0,-1227.0,-643.0,-1266.0,-952.0,-14.0,34.0,48.0,7821.0,-13826.0,3699.0,-1563.0,-427.0,207.0,-120.0,1.0
2022-05-03 17:05:11.315212-07:00,1192.9,736.5,1120.9,1022.8,884.8,836.9,1785.8,1281.0,3473.4,3479.5,1105.1,856.2,1504.1,3475.9,1422.2,1292.7,3488.0,3474.6,936.4,1344.9,1573.9,2102.7,1312.4,3314.6,3474.6,3477.1,683.1,1107.8,1672.9,1078.2,985.9,934.7,-32.0,-96.0,47.0,10325.0,-12417.0,2601.0,-937.0,-289.0,-1218.0,-699.0,-23.0,-4.0,-52.0,7635.0,-13921.0,3709.0,-1610.0,24.0,63.0,-154.0,1.0
2022-05-03 17:05:11.345490-07:00,1192.9,736.5,1119.1,1025.4,884.8,836.9,1845.0,1243.5,3473.4,3479.5,1156.8,866.3,1504.1,3475.9,1413.1,1289.1,3483.2,3483.2,936.4,1344.9,1597.4,2138.2,1312.4,3314.6,3477.1,3489.2,683.1,1107.8,1678.6,1084.2,985.9,934.7,-18.0,-39.0,77.0,10320.0,-12514.0,2188.0,-734.0,-161.0,-740.0,-303.0,10.0,0.0,2.0,7649.0,-13924.0,3654.0,-1644.0,57.0,-67.0,-115.0,1.0
2022-05-03 17:05:11.405200-07:00,1209.7,747.2,1119.1,1025.4,885.6,913.5,1845.0,1243.5,3478.3,3477.1,1156.8,866.3,1506.0,3472.2,1413.1,1289.1,3483.2,3483.2,940.7,1350.3,1597.4,2138.2,1335.0,3361.2,3477.1,3489.2,684.8,1223.9,1678.6,1084.2,982.5,944.1,-6.0,-48.0,135.0,10260.0,-12598.0,2023.0,-609.0,-205.0,-250.0,-33.0,8.0,-30.0,40.0,7642.0,-13941.0,3610.0,-1632.0,-56.0,-55.0,-29.0,1.0
2022-05-03 17:05:11.435260-07:00,1209.7,747.2,1115.6,1026.3,885.6,913.5,1829.4,1221.3,3478.3,3477.1,1198.2,865.4,1506.0,3472.2,1404.0,1291.8,3479.5,3475.9,940.7,1350.3,1611.5,2143.3,1335.0,3361.2,3479.5,3481.9,684.8,1223.9,1669.1,1075.6,982.5,944.1,0.0,-11.0,88.0,10264.0,-12589.0,2048.0,-635.0,134.0,229.0,13.0,5.0,-30.0,61.0,7667.0,-13930.0,3598.0,-1635.0,39.0,43.0,20.0,1.0
2022-05-03 17:05:11.495626-07:00,1227.5,739.7,1113.9,1026.3,882.3,914.4,1829.4,1221.3,3478.3,3472.2,1189.4,865.4,1511.5,3475.9,1404.0,1291.8,3479.5,3475.9,928.8,1348.5,1611.5,2135.1,1332.3,3381.6,3479.5,3481.9,680.7,1200.0,1669.1,1077.3,980.7,939.8,-1.0,-39.0,12.0,10305.0,-12538.0,2131.0,-702.0,141.0,232.0,105.0,-2.0,-1.0,-21.0,7685.0,-13909.0,3628.0,-1660.0,-27.0,87.0,94.0,1.0
2022-05-03 17:05:11.555191-07:00,1227.5,739.7,1113.9,1028.8,882.3,894.9,1802.3,1204.4,3478.3,3472.2,1189.4,865.4,1511.5,3478.3,1402.1,1296.3,3481.9,3481.9,939.0,1348.5,1608.7,2135.1,1332.3,3381.6,3483.2,3488.0,683.1,1200.0,1674.8,1077.3,980.7,939.8,-2.0,25.0,-19.0,10315.0,-12503.0,2254.0,-783.0,55.0,323.0,87.0,-1.0,17.0,0.0,7659.0,-13911.0,3678.0,-1658.0,-76.0,36.0,58.0,1.0
2022-05-03 17:05:11.615854-07:00,1211.5,734.8,1104.3,1028.8,883.1,894.9,1802.3,1204.4,3472.2,3477.1,1184.1,865.4,1522.7,3478.3,1402.1,1296.3,3481.9,3481.9,939.0,1343.1,1608.7,2139.2,1328.7,3386.4,3483.2,3488.0,683.1,1185.9,1674.8,1071.2,979.9,945.8,0.0,-13.0,-26.0,10294.0,-12505.0,2329.0,-821.0,-97.0,131.0,66.0,-6.0,11.0,-34.0,7620.0,-13927.0,3701.0,-1651.0,-121.0,-15.0,10.0,1.0
2022-05-03 17:05:11.735085-07:00,1211.5,734.8,1104.3,1022.8,883.1,892.4,1807.1,1200.0,3472.2,3477.1,1184.1,862.1,1522.7,3475.9,1401.2,1288.2,3477.1,3472.2,931.3,1343.1,1612.4,2139.2,1328.7,3386.4,3480.7,3480.7,677.4,1185.9,1679.5,1071.2,979.9,945.8,-1.0,-4.0,6.0,10278.0,-12508.0,2373.0,-844.0,52.0,33.0,-13.0,13.0,-15.0,18.0,7591.0,-13945.0,3698.0,-1635.0,32.0,-15.0,-18.0,1.0
2022-05-03 17:05:11.975515-07:00,1208.0,737.3,1110.4,1022.8,884.8,892.4,1807.1,1200.0,3480.7,3467.4,1177.9,862.1,1505.1,3475.9,1401.2,1288.2,3477.1,3472.2,931.3,1346.7,1612.4,2136.1,1322.3,3394.8,3480.7,3480.7,677.4,1170.9,1679.5,1073.8,979.0,937.3,-2.0,-25.0,23.0,10299.0,-12493.0,2356.0,-857.0,23.0,-4.0,-35.0,0.0,-14.0,-1.0,7604.0,-13940.0,3687.0,-1641.0,12.0,-7.0,-20.0,1.0
2022-05-03 17:05:12.066058-07:00,1208.0,737.3,1110.4,1026.3,880.6,886.5,1806.1,1197.4,3480.7,3467.4,1177.9,864.6,1506.9,3483.2,1397.6,1288.2,3483.2,3483.2,936.4,1340.4,1600.2,2136.1,1322.3,3394.8,3481.9,3484.4,684.8,1152.4,1674.8,1073.8,979.0,937.3,2.0,-3.0,19.0,10318.0,-12478.0,2353.0,-870.0,42.0,17.0,3.0,4.0,-16.0,11.0,7611.0,-13937.0,3684.0,-1643.0,27.0,-3.0,8.0,1.0
2022-05-03 17:05:12.069226-07:00,1199.1,738.1,1109.5,1028.0,880.6,886.5,1806.1,1197.4,3472.2,3480.7,1168.2,865.4,1506.9,3483.2,1397.6,1288.2,3483.2,3483.2,936.4,1340.4,1604.0,2136.1,1316.9,3400.8,3481.9,3484.4,684.8,1152.4,1674.8,1068.6,976.5,940.7,0.0,-5.0,17.0,10325.0,-12470.0,2358.0,-880.0,13.0,28.0,-10.0,0.0,-3.0,3.0,7615.0,-13933.0,3689.0,-1645.0,-5.0,13.0,21.0,1.0
2022-05-03 17:05:12.069998-07:00,1199.1,738.1,1109.5,1028.0,883.9,887.3,1801.3,1196.5,3472.2,3480.7,1168.2,865.4,1508.8,3477.1,1395.7,1292.7,3477.1,3481.9,932.2,1348.5,1604.0,2136.1,1316.9,3400.8,3483.2,3480.7,683.1,1154.2,1674.8,1068.6,976.5,940.7,-15.0,-16.0,9.0,10326.0,-12464.0,2371.0,-909.0,24.0,61.0,-22.0,3.0,-18.0,11.0,7615.0,-13932.0,3692.0,-1646.0,-8.0,10.0,-3.0,1.0
2022-05-03 17:05:12.275768-07:00,1209.7,739.7,1104.3,1019.4,883.9,887.3,1801.3,1196.5,3483.2,3469.8,1170.9,862.1,1508.8,3477.1,1395.7,1292.7,3477.1,3481.9,932.2,1348.5,1596.4,2127.0,1309.7,3398.4,3483.2,3480.7,683.1,1154.2,1668.2,1071.2,976.5,939.0,7.0,-10.0,2.0,10322.0,-12468.0,2365.0,-915.0,-40.0,0.0,-30.0,1.0,-4.0,1.0,7611.0,-13934.0,3693.0,-1646.0,-41.0,-1.0,-2.0,1.0
2022-05-03 17:05:12.277514-07:00,1202.7,737.3,1102.5,1025.4,878.0,883.1,1784.9,1188.5,3475.9,3474.6,1171.8,865.4,1508.8,3478.3,1395.7,1282.8,3479.5,3475.9,935.6,1352.1,1601.1,2124.0,1316.0,3373.2,3477.1,3474.6,677.4,1139.2,1673.8,1062.5,979.0,932.2,-2.0,-11.0,16.0,10329.0,-12471.0,2319.0,-925.0,23.0,3.0,-20.0,0.0,-8.0,8.0,7610.0,-13935.0,3693.0,-1647.0,-8.0,-1.0,3.0,1.0
2022-05-03 17:05:12.278157-07:00,1202.7,737.3,1102.5,1025.4,878.0,883.1,1784.9,1188.5,3475.9,3474.6,1171.8,865.4,1508.8,3478.3,1395.7,1282.8,3479.5,3475.9,935.6,1352.1,1601.1,2124.0,1316.0,3373.2,3477.1,3474.6,677.4,1139.2,1673.8,1062.5,979.0,932.2,-2.0,-11.0,16.0,10329.0,-12471.0,2319.0,-925.0,23.0,3.0,-20.0,0.0,-8.0,8.0,7610.0,-13935.0,3693.0,-1647.0,-8.0,-1.0,3.0,1.0
2022-05-03 17:05:12.280004-07:00,1205.3,734.8,1101.7,1021.9,881.4,876.4,1790.7,1190.3,3480.7,3469.8,1171.8,861.2,1506.9,3488.0,1393.0,1289.1,3488.0,3490.5,932.2,1345.8,1599.3,2133.1,1314.2,3405.6,3479.5,3484.4,678.2,1132.2,1675.7,1072.1,976.5,939.0,-2.0,-12.0,12.0,10339.0,-12462.0,2317.0,-929.0,37.0,10.0,25.0,4.0,-7.0,9.0,7617.0,-13931.0,3692.0,-1649.0,32.0,1.0,10.0,1.0
2022-05-03 17:05:12.335258-07:00,1205.3,734.0,1099.0,1018.5,881.4,876.4,1790.7,1196.5,3480.7,3477.1,1164.7,863.7,1506.9,3488.0,1393.0,1285.5,3475.9,3490.5,932.2,1345.8,1601.1,2128.0,1315.1,3405.6,3474.6,3484.4,678.2,1132.2,1662.5,1062.5,976.5,939.0,-1.0,-2.0,14.0,10345.0,-12457.0,2318.0,-929.0,-25.0,-7.0,-22.0,0.0,-7.0,8.0,7616.0,-13931.0,3693.0,-1648.0,-37.0,7.0,4.0,1.0
2022-05-03 17:05:12.336454-07:00,1199.1,734.0,1099.0,1018.5,879.7,872.1,1788.7,1196.5,3467.4,3477.1,1164.7,863.7,1519.0,3480.7,1389.4,1285.5,3475.9,3483.2,931.3,1343.1,1601.1,2128.0,1315.1,3369.6,3474.6,3481.9,679.9,1127.0,1662.5,1062.5,976.5,939.8,1.0,-5.0,12.0,10358.0,-12447.0,2311.0,-937.0,19.0,5.0,-4.0,0.0,-6.0,6.0,7620.0,-13929.0,3693.0,-1651.0,4.0,2.0,6.0,1.0
2022-05-03 17:05:12.337492-07:00,1200.9,734.0,1105.1,1018.5,885.6,876.4,1779.1,1193.8,3483.2,3483.2,1161.2,866.3,1508.8,3478.3,1394.8,1285.5,3475.9,3486.8,933.0,1348.5,1600.2,2140.2,1308.8,3368.4,3484.4,3486.8,682.3,1120.9,1676.7,1065.1,969.6,928.8,0.0,-9.0,15.0,10371.0,-12436.0,2309.0,-943.0,49.0,8.0,-15.0,1.0,-10.0,5.0,7624.0,-13925.0,3694.0,-1656.0,34.0,16.0,4.0,1.0
2022-05-03 17:05:12.395714-07:00,1200.9,734.0,1100.8,1021.1,885.6,876.4,1787.8,1188.5,3483.2,3483.2,1169.1,861.2,1508.8,3478.3,1388.5,1288.2,3473.4,3484.4,933.0,1348.5,1604.9,2131.1,1308.8,3368.4,3480.7,3477.1,682.3,1120.9,1673.8,1065.1,969.6,928.8,6.0,-2.0,0.0,10380.0,-12430.0,2296.0,-954.0,-4.0,-8.0,-46.0,-2.0,0.0,1.0,7624.0,-13925.0,3695.0,-1658.0,-27.0,1.0,-4.0,1.0
2022-05-03 17:05:12.455780-07:00,1204.4,735.6,1100.8,1021.1,883.1,873.8,1787.8,1188.5,3477.1,3475.9,1169.1,861.2,1510.6,3466.1,1388.5,1288.2,3473.4,3484.4,936.4,1339.5,1604.9,2131.1,1309.7,3324.1,3480.7,3477.1,680.7,1117.4,1673.8,1065.1,976.5,929.6,-2.0,-20.0,17.0,10375.0,-12434.0,2295.0,-961.0,2.0,26.0,17.0,0.0,-8.0,6.0,7621.0,-13927.0,3695.0,-1657.0,14.0,-4.0,6.0,1.0
2022-05-03 17:05:12.485639-07:00,1204.4,735.6,1096.4,1020.2,883.1,873.8,1779.1,1190.3,3477.1,3475.9,1164.7,865.4,1510.6,3466.1,1388.5,1288.2,3477.1,3488.0,936.4,1339.5,1600.2,2132.1,1309.7,3324.1,3481.9,3483.2,680.7,1117.4,1676.7,1065.1,976.5,929.6,3.0,1.0,11.0,10381.0,-12427.0,2309.0,-964.0,-4.0,25.0,14.0,5.0,-5.0,8.0,7623.0,-13925.0,3697.0,-1656.0,-27.0,7.0,12.0,1.0
2022-05-03 17:05:12.545197-07:00,1197.4,731.5,1102.5,1020.2,885.6,872.1,1779.1,1190.3,3473.4,3472.2,1162.1,865.4,1508.8,3472.2,1388.5,1288.2,3477.1,3488.0,937.3,1349.4,1600.2,2128.0,1307.9,3340.8,3481.9,3483.2,676.6,1118.2,1676.7,1070.3,975.6,933.0,-3.0,-13.0,12.0,10373.0,-12431.0,2318.0,-967.0,-16.0,21.0,15.0,0.0,-8.0,7.0,7616.0,-13928.0,3703.0,-1653.0,-7.0,11.0,14.0,1.0
2022-05-03 17:05:12.605204-07:00,1197.4,731.5,1102.5,1027.1,885.6,863.7,1776.2,1186.7,3473.4,3472.2,1162.1,857.9,1508.8,3479.5,1385.7,1284.6,3490.5,3488.0,933.0,1349.4,1614.3,2128.0,1307.9,3340.8,3485.6,3481.9,676.6,1118.2,1671.0,1070.3,975.6,933.0,0.0,0.0,0.0,10374.0,-12429.0,2323.0,-969.0,-1.0,-3.0,-3.0,2.0,-2.0,3.0,7617.0,-13927.0,3703.0,-1653.0,-8.0,3.0,4.0,1.0
2022-05-03 17:05:12.635743-07:00,1200.0,731.5,1104.3,1027.1,878.9,863.7,1776.2,1186.7,3479.5,3480.7,1163.8,857.9,1504.1,3479.5,1385.7,1284.6,3490.5,3488.0,933.0,1344.0,1614.3,2134.1,1306.1,3351.6,3485.6,3481.9,676.6,1117.4,1671.0,1072.9,973.9,931.3,1.0,-13.0,13.0,10374.0,-12430.0,2322.0,-967.0,10.0,-12.0,-8.0,2.0,-6.0,3.0,7616.0,-13928.0,3703.0,-1653.0,11.0,7.0,1.0,1.0
2022-05-03 17:05:12.695145-07:00,1200.0,731.5,1104.3,1023.7,878.9,861.2,1772.3,1181.5,3479.5,3480.7,1163.8,862.1,1504.1,3481.9,1383.0,1285.5,3479.5,3481.9,932.2,1344.0,1604.0,2134.1,1306.1,3351.6,3478.3,3483.2,676.6,1117.4,1673.8,1072.9,973.9,931.3,-1.0,-16.0,23.0,10383.0,-12421.0,2321.0,-968.0,28.0,4.0,13.0,3.0,-14.0,8.0,7618.0,-13927.0,3703.0,-1653.0,17.0,1.0,9.0,1.0
2022-05-03 17:05:12.785246-07:00,1198.2,728.2,1101.7,1023.7,881.4,861.2,1772.3,1181.5,3474.6,3480.7,1163.8,862.1,1506.0,3481.9,1383.0,1285.5,3479.5,3481.9,932.2,1349.4,1604.0,2134.1,1308.8,3332.5,3478.3,3483.2,676.6,1111.2,1673.8,1064.3,968.8,936.4,2.0,-3.0,12.0,10388.0,-12418.0,2323.0,-968.0,5.0,9.0,-8.0,3.0,-7.0,8.0,7618.0,-13926.0,3704.0,-1654.0,8.0,8.0,4.0,1.0
2022-05-03 17:05:12.787148-07:00,1198.2,728.2,1101.7,1019.4,881.4,864.6,1767.5,1175.3,3474.6,3480.7,1163.8,859.5,1506.0,3477.1,1390.3,1285.5,3484.4,3474.6,929.6,1349.4,1600.2,2134.1,1308.8,3332.5,3490.5,3484.4,671.7,1111.2,1671.9,1064.3,968.8,936.4,-5.0,-14.0,7.0,10395.0,-12410.0,2325.0,-978.0,24.0,18.0,4.0,2.0,-7.0,6.0,7623.0,-13924.0,3704.0,-1656.0,6.0,1.0,7.0,1.0
2022-05-03 17:05:12.875272-07:00,1199.1,729.9,1100.8,1019.4,880.6,864.6,1767.5,1175.3,3479.5,3475.9,1168.2,865.4,1507.8,3477.1,1390.3,1285.5,3484.4,3474.6,929.6,1350.3,1601.1,2129.0,1308.8,3346.8,3490.5,3484.4,671.7,1105.1,1676.7,1061.7,971.3,927.9,-1.0,-4.0,11.0,10390.0,-12414.0,2329.0,-979.0,-23.0,0.0,-2.0,1.0,-6.0,10.0,7619.0,-13926.0,3705.0,-1655.0,-14.0,-5.0,1.0,1.0
2022-05-03 17:05:12.905355-07:00,1199.1,729.9,1100.8,1019.4,874.7,862.9,1772.3,1183.2,3479.5,3475.9,1168.2,865.4,1508.8,3481.9,1390.3,1289.1,3484.4,3490.5,936.4,1364.8,1601.1,2129.0,1308.8,3346.8,3488.0,3474.6,676.6,1104.3,1676.7,1061.7,971.3,927.9,-2.0,-17.0,13.0,10391.0,-12414.0,2327.0,-979.0,-8.0,5.0,2.0,1.0,-12.0,6.0,7617.0,-13927.0,3706.0,-1654.0,-6.0,6.0,4.0,1.0
2022-05-03 17:05:12.965248-07:00,1195.6,735.6,1099.0,1018.5,874.7,862.9,1772.3,1183.2,3480.7,3478.3,1159.4,862.9,1508.8,3481.9,1390.3,1289.1,3484.4,3490.5,936.4,1364.8,1601.1,2127.0,1304.3,3342.0,3488.0,3474.6,676.6,1104.3,1671.0,1064.3,971.3,930.5,0.0,-7.0,15.0,10395.0,-12410.0,2328.0,-979.0,14.0,7.0,2.0,1.0,-8.0,8.0,7619.0,-13926.0,3705.0,-1655.0,11.0,10.0,7.0,1.0
2022-05-03 17:05:12.995460-07:00,1195.6,735.6,1099.0,1018.5,889.0,863.7,1774.3,1180.6,3480.7,3478.3,1159.4,862.9,1507.8,3490.5,1386.6,1280.1,3479.5,3484.4,939.8,1344.9,1601.1,2127.0,1304.3,3342.0,3483.2,3479.5,691.3,1105.1,1671.0,1064.3,971.3,930.5,-3.0,-13.0,10.0,10397.0,-12408.0,2330.0,-981.0,5.0,10.0,3.0,1.0,-10.0,8.0,7619.0,-13925.0,3706.0,-1656.0,-7.0,6.0,9.0,1.0
2022-05-03 17:05:13.055250-07:00,1192.0,729.9,1095.6,1021.9,889.0,863.7,1774.3,1180.6,3473.4,3477.1,1161.2,862.1,1507.8,3490.5,1386.6,1280.1,3479.5,3484.4,939.8,1344.9,1597.4,2132.1,1310.6,3369.6,3483.2,3479.5,691.3,1105.1,1671.9,1066.9,970.5,929.6,-5.0,-4.0,7.0,10405.0,-12400.0,2332.0,-985.0,17.0,6.0,7.0,6.0,-7.0,7.0,7621.0,-13924.0,3705.0,-1656.0,4.0,9.0,5.0,1.0
2022-05-03 17:05:13.205762-07:00,1196.5,729.9,1095.6,1021.9,883.9,863.7,1775.2,1180.6,3483.2,3477.1,1161.2,862.1,1507.8,3479.5,1393.0,1279.2,3478.3,3480.7,941.5,1351.2,1597.4,2132.1,1310.6,3403.2,3480.7,3477.1,675.8,1103.4,1671.9,1066.9,970.5,931.3,-4.0,-5.0,5.0,10403.0,-12402.0,2330.0,-986.0,-26.0,-8.0,-10.0,2.0,-5.0,3.0,7620.0,-13925.0,3706.0,-1656.0,-19.0,3.0,-1.0,1.0
2022-05-03 17:05:13.206648-07:00,1196.5,733.2,1103.4,1019.4,883.9,863.7,1775.2,1188.5,3483.2,3478.3,1164.7,857.9,1507.8,3479.5,1393.0,1286.4,3477.1,3480.7,941.5,1351.2,1599.3,2136.1,1307.9,3403.2,3484.4,3477.1,675.8,1103.4,1672.9,1062.5,964.5,931.3,1.0,-11.0,15.0,10398.0,-12408.0,2323.0,-981.0,-13.0,-17.0,-7.0,1.0,-7.0,4.0,7613.0,-13928.0,3706.0,-1654.0,-8.0,1.0,3.0,1.0
2022-05-03 17:05:13.207636-07:00,1201.8,733.2,1103.4,1019.4,885.6,862.9,1767.5,1188.5,3478.3,3478.3,1164.7,857.9,1497.7,3467.4,1387.5,1286.4,3477.1,3488.0,935.6,1345.8,1599.3,2136.1,1307.9,3376.8,3484.4,3492.9,674.2,1092.9,1672.9,1062.5,964.5,932.2,-4.0,-7.0,3.0,10399.0,-12407.0,2322.0,-980.0,-8.0,-1.0,-9.0,0.0,-8.0,10.0,7612.0,-13929.0,3706.0,-1654.0,-6.0,0.0,5.0,1.0
2022-05-03 17:05:13.295619-07:00,1201.8,734.8,1099.9,1023.7,885.6,862.9,1767.5,1185.9,3478.3,3480.7,1163.0,863.7,1497.7,3467.4,1387.5,1281.0,3486.8,3488.0,935.6,1345.8,1601.1,2136.1,1300.7,3376.8,3477.1,3492.9,674.2,1092.9,1677.6,1066.9,972.2,932.2,-4.0,-15.0,19.0,10401.0,-12405.0,2324.0,-984.0,5.0,32.0,16.0,0.0,-16.0,17.0,7612.0,-13929.0,3706.0,-1654.0,15.0,6.0,9.0,1.0
2022-05-03 17:05:13.296721-07:00,1195.6,734.8,1099.9,1023.7,883.1,862.1,1758.9,1185.9,3478.3,3480.7,1163.0,863.7,1509.7,3471.0,1387.5,1281.0,3486.8,3483.2,931.3,1345.8,1601.1,2136.1,1300.7,3375.6,3477.1,3481.9,671.7,1092.1,1677.6,1066.9,972.2,928.8,6.0,-1.0,9.0,10407.0,-12399.0,2329.0,-988.0,1.0,21.0,-9.0,1.0,-3.0,4.0,7618.0,-13926.0,3708.0,-1654.0,-5.0,6.0,10.0,1.0
2022-05-03 17:05:13.386001-07:00,1195.6,731.5,1098.2,1021.9,883.1,862.1,1769.5,1185.0,3478.3,3475.9,1162.1,858.7,1509.7,3471.0,1392.1,1285.5,3475.9,3483.2,931.3,1345.8,1597.4,2126.0,1307.0,3375.6,3489.2,3474.6,671.7,1092.1,1682.4,1070.3,970.5,928.8,2.0,-10.0,21.0,10404.0,-12396.0,2349.0,-1011.0,-58.0,227.0,69.0,4.0,-2.0,1.0,7619.0,-13925.0,3708.0,-1653.0,8.0,-11.0,-5.0,1.0
2022-05-03 17:05:13.388471-07:00,1196.5,725.8,1098.2,1021.9,883.1,862.9,1769.5,1185.0,3477.1,3467.4,1162.1,858.7,1511.5,3475.9,1392.1,1285.5,3475.9,3483.2,933.9,1346.7,1597.4,2126.0,1313.3,3364.8,3489.2,3474.6,679.9,1104.3,1682.4,1070.3,965.4,930.5,5.0,-30.0,64.0,10367.0,-12395.0,2472.0,-1094.0,-117.0,589.0,141.0,1.0,-5.0,3.0,7630.0,-13920.0,3704.0,-1649.0,90.0,-36.0,10.0,1.0
2022-05-03 17:05:13.505229-07:00,1196.5,725.8,1103.4,1015.1,883.1,862.9,1919.3,1357.6,3477.1,3467.4,1162.1,861.2,1511.5,3475.9,1379.4,1278.3,3477.1,3479.5,933.9,1346.7,1596.4,2132.1,1313.3,3364.8,3483.2,3469.8,679.9,1104.3,1671.9,1066.9,965.4,930.5,-27.0,-23.0,0.0,10305.0,-12374.0,2732.0,-1290.0,18.0,695.0,159.0,9.0,-32.0,46.0,7653.0,-13908.0,3706.0,-1639.0,-28.0,1.0,56.0,1.0
2022-05-03 17:05:13.535145-07:00,1203.5,725.8,1103.4,1015.1,880.6,862.1,1919.3,1357.6,3477.1,3479.5,1162.1,861.2,1505.1,3480.7,1379.4,1278.3,3477.1,3479.5,932.2,1349.4,1596.4,2132.1,1362.1,3373.2,3483.2,3469.8,676.6,1131.4,1671.9,1066.9,970.5,942.4,3.0,-14.0,-34.0,10292.0,-12328.0,2922.0,-1410.0,52.0,268.0,200.0,0.0,5.0,-2.0,7664.0,-13895.0,3737.0,-1630.0,65.0,18.0,91.0,1.0
2022-05-03 17:05:13.565870-07:00,1203.5,725.8,1103.4,1015.9,880.6,862.1,1996.5,1504.1,3477.1,3479.5,1189.4,865.4,1505.1,3480.7,1382.1,1280.1,3478.3,3479.5,932.2,1349.4,1601.1,2118.9,1362.1,3373.2,3481.9,3489.2,676.6,1131.4,1670.1,1067.7,970.5,942.4,12.0,23.0,-21.0,10299.0,-12293.0,3035.0,-1430.0,79.0,117.0,94.0,10.0,-6.0,0.0,7689.0,-13878.0,3758.0,-1616.0,84.0,-35.0,51.0,1.0
2022-05-03 17:05:13.595424-07:00,1195.6,718.4,1103.4,1015.9,883.9,850.3,1996.5,1504.1,3478.3,3474.6,1189.4,865.4,1507.8,3467.4,1382.1,1280.1,3478.3,3479.5,930.5,1354.0,1601.1,2118.9,1357.6,3344.4,3481.9,3489.2,675.0,1069.5,1670.1,1067.7,966.2,940.7,7.0,34.0,-16.0,10330.0,-12263.0,3038.0,-1461.0,81.0,-49.0,-150.0,0.0,-2.0,7.0,7724.0,-13863.0,3746.0,-1602.0,25.0,-71.0,-22.0,1.0
2022-05-03 17:05:13.625839-07:00,1195.6,718.4,1096.4,1021.9,883.9,843.6,1990.5,1516.2,3478.3,3474.6,1177.9,863.7,1507.8,3467.4,1379.4,1277.4,3481.9,3488.0,935.6,1354.0,1601.1,2132.1,1357.6,3344.4,3479.5,3480.7,679.1,1069.5,1672.9,1063.4,966.2,940.7,-1.0,-36.0,6.0,10325.0,-12276.0,2989.0,-1478.0,-23.0,-49.0,-25.0,1.0,-15.0,13.0,7731.0,-13868.0,3722.0,-1585.0,6.0,-56.0,-24.0,1.0
2022-05-03 17:05:13.685625-07:00,1197.4,720.0,1105.1,1021.9,881.4,843.6,1990.5,1516.2,3474.6,3474.6,1179.7,863.7,1509.7,3467.4,1379.4,1277.4,3481.9,3488.0,935.6,1347.6,1601.1,2126.0,1342.2,3336.1,3479.5,3480.7,679.1,1036.6,1672.9,1069.5,967.9,933.9,0.0,7.0,24.0,10335.0,-12273.0,2975.0,-1465.0,28.0,-62.0,-2.0,2.0,0.0,11.0,7762.0,-13855.0,3706.0,-1579.0,61.0,-31.0,-4.0,1.0
2022-05-03 17:05:13.745492-07:00,1197.4,720.0,1105.1,1021.9,881.4,841.9,1966.7,1512.5,3474.6,3474.6,1179.7,865.4,1509.7,3479.5,1382.1,1284.6,3485.6,3480.7,933.0,1347.6,1598.3,2126.0,1342.2,3336.1,3477.1,3481.9,677.4,1036.6,1671.9,1069.5,967.9,933.9,3.0,-16.0,35.0,10344.0,-12270.0,2958.0,-1466.0,67.0,46.0,-39.0,5.0,-20.0,19.0,7767.0,-13854.0,3700.0,-1572.0,-19.0,-27.0,9.0,1.0
2022-05-03 17:05:13.775385-07:00,1193.8,721.6,1097.3,1021.9,883.9,841.9,1966.7,1512.5,3478.3,3474.6,1177.0,865.4,1495.8,3479.5,1382.1,1284.6,3485.6,3480.7,933.0,1353.1,1598.3,2122.0,1341.3,3333.7,3477.1,3481.9,677.4,1028.0,1671.9,1055.6,973.1,947.5,1.0,0.0,-5.0,10377.0,-12240.0,2950.0,-1497.0,50.0,19.0,-31.0,3.0,0.0,4.0,7784.0,-13845.0,3701.0,-1572.0,1.0,-1.0,16.0,1.0
2022-05-03 17:05:13.835888-07:00,1193.8,721.6,1097.3,1021.9,883.9,838.6,1949.9,1512.5,3478.3,3474.6,1177.0,863.7,1495.8,3478.3,1379.4,1285.5,3483.2,3479.5,936.4,1353.1,1598.3,2122.0,1341.3,3333.7,3491.7,3484.4,675.0,1028.0,1675.7,1055.6,973.1,947.5,2.0,-16.0,5.0,10377.0,-12238.0,2952.0,-1507.0,5.0,21.0,-6.0,4.0,-9.0,8.0,7770.0,-13851.0,3709.0,-1564.0,-28.0,-8.0,15.0,1.0
2022-05-03 17:05:13.925396-07:00,1193.8,711.8,1106.9,1018.5,877.2,838.6,1949.9,1512.5,3464.9,3469.8,1175.3,860.4,1498.6,3478.3,1379.4,1285.5,3483.2,3479.5,936.4,1352.1,1599.3,2118.9,1334.1,3333.7,3491.7,3484.4,675.0,1021.9,1671.9,1063.4,966.2,936.4,0.0,-3.0,-3.0,10386.0,-12230.0,2951.0,-1515.0,29.0,-16.0,-23.0,0.0,-5.0,4.0,7777.0,-13847.0,3710.0,-1565.0,13.0,-9.0,0.0,1.0
2022-05-03 17:05:13.927214-07:00,1193.8,711.8,1106.9,1018.5,878.0,838.6,1947.9,1489.3,3464.9,3469.8,1175.3,860.4,1504.1,3477.1,1383.9,1281.9,3478.3,3479.5,929.6,1351.2,1599.3,2118.9,1334.1,3333.7,3488.0,3477.1,675.0,1021.1,1671.9,1063.4,966.2,936.4,-1.0,-6.0,-5.0,10388.0,-12231.0,2937.0,-1512.0,-58.0,-37.0,2.0,2.0,-7.0,10.0,7775.0,-13849.0,3709.0,-1562.0,-21.0,-6.0,-6.0,1.0
2022-05-03 17:05:13.985306-07:00,1192.0,719.2,1090.3,1021.1,878.0,838.6,1947.9,1489.3,3468.6,3472.2,1176.2,861.2,1504.1,3477.1,1383.9,1281.9,3478.3,3479.5,929.6,1351.2,1597.4,2128.0,1324.1,3332.5,3488.0,3477.1,675.0,1021.1,1667.2,1062.5,959.4,924.5,8.0,-8.0,15.0,10377.0,-12244.0,2932.0,-1499.0,-12.0,4.0,27.0,2.0,-2.0,7.0,7771.0,-13852.0,3708.0,-1560.0,4.0,-7.0,-3.0,1.0
2022-05-03 17:05:14.105394-07:00,1192.0,719.2,1090.3,1021.1,875.5,831.1,1934.1,1475.5,3468.6,3472.2,1176.2,861.2,1498.6,3473.4,1388.5,1285.5,3488.0,3483.2,927.9,1347.6,1597.4,2128.0,1324.1,3332.5,3481.9,3488.0,675.0,1007.3,1667.2,1062.5,959.4,924.5,-4.0,-6.0,7.0,10374.0,-12245.0,2944.0,-1491.0,-78.0,-4.0,42.0,-1.0,-3.0,8.0,7771.0,-13851.0,3708.0,-1560.0,-22.0,-1.0,6.0,1.0
2022-05-03 17:05:14.106541-07:00,1196.5,720.8,1092.1,1021.9,875.5,831.1,1934.1,1475.5,3473.4,3479.5,1163.8,861.2,1498.6,3473.4,1388.5,1285.5,3488.0,3483.2,927.9,1347.6,1588.9,2116.9,1324.1,3336.1,3481.9,3488.0,675.0,1007.3,1674.8,1059.9,967.9,925.4,5.0,-14.0,21.0,10353.0,-12259.0,2961.0,-1479.0,-3.0,53.0,37.0,3.0,-12.0,9.0,7760.0,-13857.0,3713.0,-1555.0,-18.0,-1.0,11.0,1.0
2022-05-03 17:05:14.135149-07:00,1189.4,720.8,1092.1,1021.9,885.6,831.1,1945.9,1495.8,3474.6,3479.5,1163.8,861.2,1498.6,3472.2,1379.4,1283.7,3480.7,3483.2,925.4,1353.1,1588.9,2116.9,1324.1,3321.7,3481.9,3488.0,673.3,1004.8,1674.8,1059.9,967.9,928.8,2.0,1.0,7.0,10372.0,-12239.0,2971.0,-1492.0,85.0,6.0,-21.0,2.0,-6.0,8.0,7775.0,-13848.0,3714.0,-1557.0,37.0,4.0,14.0,1.0
2022-05-03 17:05:14.226348-07:00,1189.4,727.4,1093.8,1018.5,885.6,831.1,1945.9,1491.2,3474.6,3473.4,1170.9,864.6,1498.6,3472.2,1379.4,1281.0,3479.5,3483.2,925.4,1353.1,1597.4,2118.9,1315.1,3321.7,3488.0,3488.0,673.3,1004.8,1667.2,1061.7,962.0,928.8,5.0,-12.0,11.0,10400.0,-12217.0,2958.0,-1508.0,90.0,3.0,-28.0,-1.0,-6.0,9.0,7779.0,-13845.0,3719.0,-1556.0,15.0,-6.0,14.0,1.0
2022-05-03 17:05:14.227993-07:00,1192.0,727.4,1093.8,1018.5,883.9,833.6,1927.2,1491.2,3477.1,3473.4,1170.9,864.6,1495.8,3473.4,1383.0,1281.0,3479.5,3483.2,933.0,1355.8,1597.4,2118.9,1315.1,3336.1,3488.0,3480.7,679.9,1009.9,1667.2,1061.7,962.0,920.3,-6.0,-9.0,0.0,10423.0,-12198.0,2948.0,-1522.0,44.0,16.0,-14.0,-3.0,-5.0,7.0,7784.0,-13842.0,3721.0,-1555.0,7.0,-11.0,9.0,1.0
2022-05-03 17:05:14.285354-07:00,1192.0,714.2,1104.3,1020.2,883.9,833.6,1927.2,1478.3,3477.1,3478.3,1165.6,862.9,1495.8,3473.4,1383.0,1277.4,3477.1,3483.2,933.0,1355.8,1591.7,2123.0,1325.0,3336.1,3484.4,3480.7,679.9,1009.9,1665.3,1059.9,964.5,920.3,5.0,-4.0,4.0,10431.0,-12191.0,2946.0,-1525.0,-21.0,2.0,12.0,0.0,-4.0,1.0,7784.0,-13842.0,3721.0,-1555.0,-16.0,1.0,3.0,1.0
2022-05-03 17:05:14.435831-07:00,1192.0,714.2,1104.3,1020.2,883.9,831.9,1923.3,1478.3,3478.3,3478.3,1165.6,862.9,1494.0,3474.6,1381.2,1277.4,3477.1,3481.9,933.9,1367.6,1591.7,2123.0,1325.0,3337.3,3484.4,3479.5,671.7,997.0,1665.3,1059.9,964.5,924.5,-1.0,-9.0,9.0,10421.0,-12198.0,2953.0,-1522.0,-22.0,11.0,11.0,1.0,-10.0,7.0,7782.0,-13843.0,3721.0,-1554.0,5.0,1.0,2.0,1.0
2022-05-03 17:05:14.495496-07:00,1192.0,711.8,1096.4,1018.5,883.9,831.9,1923.3,1475.5,3478.3,3473.4,1163.8,863.7,1494.0,3474.6,1381.2,1281.0,3478.3,3481.9,933.9,1367.6,1597.4,2124.0,1311.5,3337.3,3477.1,3479.5,671.7,997.0,1668.2,1066.9,968.8,924.5,0.0,-10.0,9.0,10421.0,-12198.0,2954.0,-1522.0,8.0,4.0,-4.0,4.0,-9.0,9.0,7784.0,-13842.0,3720.0,-1555.0,-2.0,3.0,3.0,1.0
2022-05-03 17:05:14.496711-07:00,1196.5,719.2,1096.4,1018.5,877.2,831.1,1921.3,1475.5,3471.0,3480.7,1163.8,863.7,1495.8,3469.8,1386.6,1281.0,3478.3,3488.0,933.0,1350.3,1597.4,2124.0,1313.3,3332.5,3477.1,3477.1,679.9,1000.5,1668.2,1066.9,959.4,924.5,0.0,-7.0,6.0,10428.0,-12192.0,2953.0,-1524.0,29.0,-5.0,-3.0,1.0,-10.0,8.0,7789.0,-13838.0,3721.0,-1557.0,10.0,2.0,10.0,1.0
2022-05-03 17:05:14.497485-07:00,1196.5,719.2,1097.3,1020.2,877.2,831.1,1923.3,1472.7,3471.0,3480.7,1160.3,861.2,1495.8,3469.8,1383.0,1286.4,3479.5,3474.6,933.0,1350.3,1593.6,2113.9,1313.3,3332.5,3481.9,3475.9,679.9,1000.5,1666.3,1059.9,959.4,924.5,-1.0,-5.0,3.0,10438.0,-12183.0,2952.0,-1527.0,42.0,10.0,-8.0,0.0,-7.0,9.0,7794.0,-13836.0,3720.0,-1558.0,21.0,1.0,5.0,1.0
2022-05-03 17:05:14.525485-07:00,1196.5,718.4,1097.3,1020.2,879.7,826.9,1923.3,1472.7,3472.2,3478.3,1160.3,861.2,1500.4,3473.4,1383.0,1286.4,3479.5,3474.6,933.0,1344.9,1593.6,2113.9,1310.6,3339.6,3481.9,3475.9,672.5,1002.2,1666.3,1059.9,970.5,918.6,4.0,-11.0,6.0,10446.0,-12177.0,2951.0,-1531.0,7.0,-6.0,-6.0,2.0,-7.0,2.0,7796.0,-13834.0,3720.0,-1559.0,0.0,-3.0,4.0,1.0
2022-05-03 17:05:14.585371-07:00,1196.5,718.4,1098.2,1021.1,879.7,826.9,1914.4,1461.7,3472.2,3478.3,1160.3,862.9,1500.4,3473.4,1383.9,1280.1,3477.1,3477.1,933.0,1344.9,1592.7,2119.9,1310.6,3339.6,3481.9,3479.5,672.5,1002.2,1677.6,1058.2,970.5,918.6,-2.0,1.0,4.0,10453.0,-12170.0,2949.0,-1533.0,21.0,-12.0,-8.0,0.0,-9.0,14.0,7801.0,-13832.0,3719.0,-1560.0,13.0,5.0,6.0,1.0
2022-05-03 17:05:14.645433-07:00,1192.0,719.2,1098.2,1021.1,881.4,832.7,1914.4,1461.7,3474.6,3478.3,1160.3,862.9,1500.4,3480.7,1383.9,1280.1,3477.1,3477.1,936.4,1355.8,1592.7,2119.9,1303.4,3339.6,3481.9,3479.5,684.8,997.9,1677.6,1058.2,967.9,915.2,4.0,-18.0,8.0,10455.0,-12169.0,2944.0,-1536.0,-1.0,5.0,-13.0,1.0,-14.0,4.0,7802.0,-13831.0,3719.0,-1561.0,-1.0,0.0,4.0,1.0
2022-05-03 17:05:14.675953-07:00,1192.0,719.2,1098.2,1015.9,881.4,830.2,1910.5,1455.2,3474.6,3478.3,1166.5,865.4,1500.4,3479.5,1386.6,1281.0,3481.9,3485.6,933.9,1355.8,1580.5,2132.1,1303.4,3339.6,3484.4,3489.2,672.5,997.9,1672.9,1055.6,967.9,915.2,-1.0,-1.0,2.0,10461.0,-12165.0,2943.0,-1538.0,9.0,-5.0,8.0,1.0,-7.0,9.0,7806.0,-13829.0,3718.0,-1562.0,7.0,7.0,6.0,1.0
2022-05-03 17:05:14.735340-07:00,1189.4,716.7,1096.4,1015.9,887.3,830.2,1910.5,1455.2,3477.1,3475.9,1163.0,865.4,1492.1,3479.5,1386.6,1281.0,3481.9,3485.6,933.9,1345.8,1580.5,2120.9,1301.6,3362.4,3484.4,3489.2,672.5,994.5,1672.9,1066.0,968.8,923.7,5.0,-7.0,10.0,10458.0,-12168.0,2940.0,-1536.0,-18.0,2.0,-6.0,2.0,-9.0,5.0,7804.0,-13830.0,3719.0,-1561.0,-18.0,4.0,3.0,1.0
2022-05-03 17:05:14.795514-07:00,1189.4,716.7,1096.4,1019.4,887.3,831.1,1904.6,1458.0,3477.1,3475.9,1163.0,862.1,1492.1,3473.4,1381.2,1280.1,3483.2,3477.1,935.6,1345.8,1592.7,2120.9,1301.6,3362.4,3484.4,3485.6,666.0,994.5,1667.2,1066.0,968.8,923.7,1.0,-6.0,8.0,10462.0,-12165.0,2939.0,-1538.0,25.0,3.0,4.0,3.0,-4.0,11.0,7806.0,-13829.0,3718.0,-1562.0,13.0,4.0,5.0,1.0
2022-05-03 17:05:14.825371-07:00,1184.1,716.7,1094.7,1019.4,876.4,831.1,1904.6,1458.0,3484.4,3475.9,1159.4,862.1,1492.1,3473.4,1381.2,1280.1,3483.2,3477.1,935.6,1348.5,1592.7,2119.9,1304.3,3346.8,3484.4,3485.6,666.0,997.9,1667.2,1062.5,964.5,920.3,0.0,-12.0,11.0,10459.0,-12167.0,2939.0,-1537.0,-23.0,-2.0,1.0,0.0,-8.0,9.0,7802.0,-13831.0,3719.0,-1561.0,-15.0,3.0,4.0,1.0
2022-05-03 17:05:14.885264-07:00,1184.1,716.7,1094.7,1018.5,876.4,831.9,1897.7,1454.3,3484.4,3475.9,1159.4,860.4,1492.1,3480.7,1376.6,1276.5,3481.9,3478.3,927.9,1348.5,1603.0,2119.9,1304.3,3346.8,3479.5,3474.6,673.3,997.9,1674.8,1062.5,964.5,920.3,1.0,-10.0,8.0,10460.0,-12166.0,2939.0,-1537.0,27.0,7.0,2.0,1.0,-10.0,10.0,7804.0,-13830.0,3718.0,-1561.0,7.0,-3.0,4.0,1.0
2022-05-03 17:05:14.945312-07:00,1185.0,725.8,1093.8,1018.5,879.7,831.9,1897.7,1454.3,3478.3,3467.4,1161.2,860.4,1500.4,3480.7,1376.6,1276.5,3481.9,3478.3,927.9,1348.5,1603.0,2127.0,1299.8,3342.0,3479.5,3474.6,673.3,991.0,1674.8,1063.4,964.5,919.4,1.0,-10.0,6.0,10463.0,-12164.0,2939.0,-1538.0,-16.0,-3.0,0.0,0.0,-11.0,7.0,7803.0,-13830.0,3718.0,-1561.0,-12.0,-4.0,4.0,1.0
2022-05-03 17:05:15.095427-07:00,1185.0,725.8,1093.8,1021.9,883.9,830.2,1906.6,1450.6,3478.3,3467.4,1161.2,858.7,1495.8,3480.7,1390.3,1282.8,3485.6,3477.1,929.6,1351.2,1597.4,2127.0,1299.8,3342.0,3480.7,3481.9,675.8,989.3,1676.7,1063.4,964.5,919.4,4.0,-6.0,9.0,10462.0,-12165.0,2938.0,-1536.0,10.0,1.0,-7.0,1.0,-10.0,10.0,7802.0,-13831.0,3719.0,-1561.0,5.0,8.0,4.0,1.0
2022-05-03 17:05:15.215967-07:00,1192.9,722.5,1094.7,1016.8,883.9,830.2,1906.6,1450.6,3488.0,3479.5,1162.1,861.2,1495.8,3480.7,1390.3,1282.8,3485.6,3477.1,929.6,1351.2,1597.4,2122.0,1296.3,3338.4,3480.7,3481.9,675.8,989.3,1671.0,1060.8,967.1,922.8,0.0,-7.0,0.0,10462.0,-12165.0,2938.0,-1536.0,-19.0,-6.0,-3.0,0.0,-4.0,8.0,7802.0,-13831.0,3719.0,-1561.0,-10.0,3.0,3.0,1.0
2022-05-03 17:05:15.217359-07:00,1192.9,722.5,1094.7,1016.8,881.4,828.5,1898.7,1448.8,3488.0,3479.5,1162.1,861.2,1498.6,3473.4,1383.0,1270.3,3478.3,3488.0,933.9,1349.4,1597.4,2122.0,1296.3,3338.4,3480.7,3481.9,678.2,991.0,1671.0,1060.8,967.1,922.8,5.0,-10.0,14.0,10457.0,-12170.0,2938.0,-1534.0,9.0,0.0,0.0,2.0,-11.0,7.0,7797.0,-13834.0,3719.0,-1560.0,3.0,2.0,4.0,1.0
2022-05-03 17:05:15.218325-07:00,1192.9,714.2,1092.1,1016.8,881.4,828.5,1898.7,1448.8,3480.7,3477.1,1153.3,856.2,1498.6,3473.4,1383.0,1270.3,3478.3,3488.0,933.9,1349.4,1593.6,2120.9,1298.1,3332.5,3480.7,3481.9,678.2,991.0,1659.6,1060.8,963.7,923.7,3.0,-7.0,4.0,10459.0,-12168.0,2937.0,-1535.0,-12.0,-1.0,-7.0,1.0,-8.0,11.0,7798.0,-13833.0,3719.0,-1560.0,-4.0,9.0,4.0,1.0
2022-05-03 17:05:15.335341-07:00,1192.9,714.2,1092.1,1016.8,882.3,830.2,1902.6,1448.8,3480.7,3477.1,1153.3,856.2,1505.1,3478.3,1380.3,1279.2,3485.6,3485.6,927.9,1354.9,1593.6,2120.9,1298.1,3332.5,3484.4,3478.3,673.3,990.2,1659.6,1060.8,963.7,923.7,1.0,-9.0,10.0,10456.0,-12171.0,2937.0,-1534.0,9.0,-6.0,2.0,2.0,-9.0,9.0,7795.0,-13835.0,3719.0,-1559.0,4.0,7.0,5.0,1.0
2022-05-03 17:05:15.336460-07:00,1185.9,723.3,1091.2,1021.1,882.3,830.2,1902.6,1441.5,3475.9,3480.7,1164.7,860.4,1505.1,3478.3,1380.3,1286.4,3477.1,3485.6,927.9,1354.9,1587.1,2120.9,1292.7,3339.6,3484.4,3478.3,673.3,990.2,1676.7,1057.3,963.7,916.9,0.0,-8.0,8.0,10458.0,-12169.0,2937.0,-1535.0,0.0,-5.0,-4.0,0.0,-8.0,13.0,7797.0,-13834.0,3719.0,-1560.0,-1.0,4.0,2.0,1.0
2022-05-03 17:05:15.365708-07:00,1186.7,723.3,1091.2,1021.1,879.7,834.4,1887.9,1441.5,3471.0,3480.7,1164.7,860.4,1499.5,3484.4,1385.7,1286.4,3477.1,3475.9,933.9,1354.0,1587.1,2120.9,1292.7,3330.1,3484.4,3477.1,665.2,985.9,1676.7,1057.3,963.7,916.9,1.0,-13.0,17.0,10458.0,-12169.0,2937.0,-1535.0,17.0,1.0,-6.0,1.0,-14.0,9.0,7796.0,-13835.0,3719.0,-1559.0,-7.0,0.0,6.0,1.0
2022-05-03 17:05:15.367147-07:00,1186.7,716.7,1092.1,1020.2,879.7,834.4,1887.9,1436.9,3471.0,3477.1,1157.7,861.2,1499.5,3484.4,1385.7,1278.3,3481.9,3475.9,933.9,1354.0,1584.2,2122.0,1290.0,3330.1,3491.7,3477.1,665.2,985.9,1663.4,1059.1,964.5,916.9,-6.0,4.0,5.0,10464.0,-12163.0,2937.0,-1537.0,14.0,-1.0,2.0,7.0,-14.0,13.0,7799.0,-13832.0,3720.0,-1560.0,11.0,7.0,6.0,1.0
2022-05-03 17:05:15.486027-07:00,1189.4,716.7,1092.1,1020.2,874.7,825.2,1899.7,1436.9,3480.7,3477.1,1157.7,861.2,1494.0,3469.8,1380.3,1278.3,3481.9,3485.6,933.0,1347.6,1584.2,2122.0,1290.0,3331.3,3491.7,3479.5,666.0,979.0,1663.4,1059.1,964.5,916.0,4.0,-10.0,12.0,10456.0,-12170.0,2939.0,-1537.0,-29.0,15.0,1.0,0.0,-9.0,7.0,7792.0,-13836.0,3722.0,-1559.0,-18.0,8.0,2.0,1.0
2022-05-03 17:05:15.515336-07:00,1189.4,712.6,1087.7,1015.9,874.7,825.2,1899.7,1438.7,3480.7,3479.5,1156.8,857.9,1494.0,3469.8,1380.3,1283.7,3475.9,3485.6,933.0,1347.6,1588.9,2118.9,1289.1,3331.3,3484.4,3479.5,666.0,979.0,1684.3,1065.1,961.1,916.0,3.0,-9.0,11.0,10455.0,-12171.0,2940.0,-1537.0,12.0,-6.0,0.0,0.0,-6.0,13.0,7791.0,-13837.0,3722.0,-1559.0,9.0,7.0,4.0,1.0
2022-05-03 17:05:15.516384-07:00,1187.6,711.8,1087.7,1015.9,877.2,821.0,1889.9,1438.7,3480.7,3473.4,1156.8,857.9,1488.4,3474.6,1386.6,1283.7,3475.9,3481.9,929.6,1346.7,1588.9,2118.9,1291.8,3336.1,3484.4,3481.9,670.9,983.3,1684.3,1065.1,965.4,916.9,-2.0,-14.0,13.0,10453.0,-12172.0,2938.0,-1539.0,-12.0,4.0,-5.0,0.0,-12.0,9.0,7787.0,-13839.0,3723.0,-1558.0,-15.0,0.0,2.0,1.0
2022-05-03 17:05:15.545949-07:00,1187.6,711.8,1088.6,1015.1,877.2,821.0,1880.1,1438.7,3480.7,3473.4,1159.4,865.4,1488.4,3474.6,1382.1,1281.0,3477.1,3488.0,929.6,1346.7,1591.7,2123.0,1291.8,3336.1,3484.4,3478.3,670.9,983.3,1668.2,1059.9,965.4,916.9,4.0,-8.0,11.0,10453.0,-12173.0,2938.0,-1539.0,0.0,-4.0,-1.0,1.0,-11.0,9.0,7787.0,-13839.0,3723.0,-1558.0,-1.0,8.0,5.0,1.0
2022-05-03 17:05:15.605846-07:00,1184.1,715.1,1088.6,1015.1,876.4,821.9,1880.1,1438.7,3478.3,3474.6,1159.4,865.4,1496.7,3478.3,1382.1,1281.0,3477.1,3488.0,931.3,1345.8,1591.7,2123.0,1296.3,3332.5,3484.4,3478.3,675.0,979.9,1668.2,1059.9,967.9,919.4,2.0,-5.0,10.0,10453.0,-12173.0,2938.0,-1539.0,0.0,-1.0,-7.0,3.0,-8.0,11.0,7787.0,-13839.0,3723.0,-1558.0,0.0,4.0,2.0,1.0
2022-05-03 17:05:15.665539-07:00,1184.1,715.1,1089.5,1018.5,876.4,821.9,1890.9,1428.6,3478.3,3474.6,1155.9,861.2,1496.7,3478.3,1382.1,1276.5,3478.3,3483.2,931.3,1345.8,1597.4,2116.9,1296.3,3332.5,3484.4,3473.4,675.0,979.9,1674.8,1059.9,967.9,919.4,0.0,-11.0,13.0,10452.0,-12173.0,2936.0,-1541.0,3.0,-3.0,-8.0,0.0,-10.0,10.0,7784.0,-13840.0,3724.0,-1558.0,-9.0,5.0,3.0,1.0
2022-05-03 17:05:15.725425-07:00,1184.1,716.7,1089.5,1018.5,883.1,821.0,1890.9,1428.6,3483.2,3472.2,1155.9,861.2,1495.8,3480.7,1382.1,1276.5,3478.3,3483.2,933.0,1346.7,1597.4,2116.9,1285.5,3326.5,3484.4,3473.4,670.9,983.3,1674.8,1059.9,962.0,913.5,1.0,-8.0,13.0,10452.0,-12174.0,2937.0,-1542.0,-21.0,5.0,1.0,0.0,-7.0,10.0,7784.0,-13840.0,3724.0,-1558.0,-9.0,12.0,2.0,1.0
2022-05-03 17:05:15.755198-07:00,1184.1,716.7,1087.7,1016.8,883.1,821.0,1886.0,1436.9,3483.2,3472.2,1163.0,862.9,1495.8,3480.7,1383.0,1280.1,3480.7,3481.9,933.0,1346.7,1590.8,2124.0,1285.5,3326.5,3480.7,3474.6,670.9,983.3,1671.0,1059.1,962.0,913.5,3.0,-12.0,13.0,10447.0,-12178.0,2938.0,-1541.0,15.0,10.0,-7.0,1.0,-14.0,15.0,7779.0,-13842.0,3726.0,-1559.0,-7.0,6.0,4.0,1.0
2022-05-03 17:05:15.845458-07:00,1184.1,719.2,1086.8,1016.8,883.1,821.0,1886.0,1436.9,3467.4,3473.4,1158.6,862.9,1499.5,3467.4,1383.0,1280.1,3480.7,3481.9,930.5,1348.5,1590.8,2126.0,1293.6,3319.4,3480.7,3474.6,676.6,980.7,1671.0,1055.6,963.7,918.6,5.0,-11.0,9.0,10445.0,-12178.0,2940.0,-1543.0,-30.0,4.0,-2.0,2.0,-9.0,12.0,7775.0,-13843.0,3728.0,-1562.0,-22.0,11.0,4.0,1.0
2022-05-03 17:05:15.846530-07:00,1184.1,719.2,1086.8,1018.5,883.1,821.9,1881.1,1433.2,3467.4,3473.4,1158.6,862.1,1499.5,3481.9,1378.5,1283.7,3477.1,3479.5,933.0,1348.5,1589.9,2126.0,1293.6,3319.4,3481.9,3479.5,675.0,980.7,1668.2,1055.6,963.7,918.6,5.0,-8.0,18.0,10440.0,-12182.0,2941.0,-1542.0,14.0,9.0,-4.0,3.0,-9.0,15.0,7769.0,-13846.0,3731.0,-1565.0,2.0,11.0,5.0,1.0
2022-05-03 17:05:15.906075-07:00,1186.7,711.8,1090.3,1018.5,882.3,821.9,1881.1,1433.2,3475.9,3477.1,1159.4,862.1,1499.5,3481.9,1378.5,1283.7,3477.1,3479.5,933.0,1349.4,1589.9,2126.0,1286.4,3318.2,3481.9,3479.5,675.0,987.6,1668.2,1065.1,972.2,913.5,4.0,-11.0,10.0,10443.0,-12180.0,2941.0,-1543.0,-7.0,3.0,-3.0,1.0,-12.0,9.0,7765.0,-13847.0,3733.0,-1568.0,-23.0,11.0,8.0,1.0
2022-05-03 17:05:15.935175-07:00,1186.7,711.8,1090.3,1014.2,882.3,817.7,1888.9,1443.3,3475.9,3477.1,1159.4,862.9,1499.5,3478.3,1383.0,1281.9,3477.1,3479.5,934.7,1349.4,1588.9,2126.0,1286.4,3318.2,3477.1,3480.7,674.2,987.6,1671.0,1065.1,972.2,913.5,8.0,-9.0,11.0,10443.0,-12180.0,2941.0,-1543.0,8.0,2.0,-8.0,0.0,-6.0,11.0,7762.0,-13848.0,3734.0,-1568.0,7.0,9.0,2.0,1.0
2022-05-03 17:05:15.995918-07:00,1185.0,713.4,1095.6,1014.2,878.0,817.7,1888.9,1443.3,3477.1,3483.2,1156.8,862.9,1496.7,3478.3,1383.0,1281.9,3477.1,3479.5,934.7,1348.5,1588.9,2120.9,1287.3,3318.2,3477.1,3480.7,674.2,978.2,1671.0,1061.7,977.3,913.5,4.0,-11.0,8.0,10442.0,-12180.0,2940.0,-1545.0,-12.0,-2.0,-2.0,0.0,-12.0,11.0,7762.0,-13848.0,3734.0,-1568.0,-9.0,8.0,3.0,1.0
2022-05-03 17:05:16.025599-07:00,1185.0,713.4,1095.6,1016.8,885.6,817.7,1890.9,1429.5,3477.1,3483.2,1156.8,862.1,1496.7,3477.1,1380.3,1279.2,3480.7,3486.8,933.9,1345.8,1586.1,2120.9,1287.3,3318.2,3472.2,3481.9,669.3,979.9,1670.1,1061.7,977.3,913.5,5.0,-12.0,15.0,10439.0,-12183.0,2940.0,-1544.0,-3.0,6.0,-4.0,2.0,-9.0,13.0,7757.0,-13851.0,3735.0,-1568.0,-15.0,4.0,4.0,1.0
2022-05-03 17:05:16.085022-07:00,1196.5,712.6,1089.5,1014.2,885.6,817.7,1890.9,1429.5,3472.2,3479.5,1155.0,861.2,1496.7,3477.1,1380.3,1279.2,3480.7,3486.8,933.9,1345.8,1586.1,2110.8,1289.1,3327.7,3472.2,3481.9,669.3,979.9,1665.3,1062.5,961.1,911.8,1.0,-17.0,19.0,10439.0,-12182.0,2941.0,-1546.0,7.0,4.0,0.0,3.0,-10.0,9.0,7757.0,-13851.0,3735.0,-1568.0,4.0,5.0,1.0,1.0
2022-05-03 17:05:16.115309-07:00,1196.5,712.6,1089.5,1014.2,869.6,814.4,1880.1,1438.7,3472.2,3479.5,1155.0,861.2,1500.4,3472.2,1383.0,1273.9,3474.6,3483.2,933.0,1342.2,1586.1,2110.8,1289.1,3327.7,3488.0,3480.7,667.6,979.9,1665.3,1062.5,961.1,911.8,9.0,-11.0,16.0,10441.0,-12181.0,2941.0,-1546.0,-7.0,10.0,-3.0,0.0,-9.0,14.0,7755.0,-13853.0,3736.0,-1567.0,-13.0,8.0,5.0,1.0
2022-05-03 17:05:16.175945-07:00,1185.0,708.5,1087.7,1010.8,869.6,814.4,1880.1,1438.7,3474.6,3484.4,1155.0,866.3,1500.4,3472.2,1383.0,1273.9,3474.6,3483.2,933.0,1342.2,1589.9,2112.8,1283.7,3331.3,3488.0,3480.7,667.6,979.9,1671.0,1057.3,962.8,915.2,5.0,-8.0,9.0,10441.0,-12180.0,2944.0,-1550.0,-13.0,8.0,-2.0,-1.0,-8.0,13.0,7755.0,-13852.0,3737.0,-1570.0,-7.0,13.0,5.0,1.0
2022-05-03 17:05:16.385229-07:00,1185.0,708.5,1087.7,1010.8,879.7,822.7,1878.1,1430.5,3474.6,3484.4,1155.0,866.3,1494.0,3483.2,1383.9,1273.9,3479.5,3488.0,931.3,1354.0,1589.9,2112.8,1283.7,3331.3,3480.7,3485.6,674.2,980.7,1671.0,1057.3,962.8,915.2,1.0,-7.0,5.0,10434.0,-12186.0,2945.0,-1548.0,-5.0,-14.0,13.0,5.0,2.0,20.0,7745.0,-13857.0,3739.0,-1569.0,-32.0,16.0,4.0,1.0
2022-05-03 17:05:16.715938-07:00,1185.0,713.4,1089.5,1015.1,879.7,822.7,1878.1,1430.5,3475.9,3477.1,1155.0,860.4,1494.0,3483.2,1383.9,1273.9,3479.5,3488.0,931.3,1354.0,1588.9,2114.9,1287.3,3332.5,3480.7,3485.6,674.2,980.7,1669.1,1056.5,965.4,910.1,44.0,-11.0,-115.0,10417.0,-12212.0,2921.0,-1500.0,-126.0,-587.0,-123.0,-28.0,-92.0,24.0,7748.0,-13847.0,3743.0,-1629.0,260.0,184.0,-50.0,1.0
2022-05-03 17:05:16.718091-07:00,1192.0,713.4,1089.5,1015.1,880.6,829.4,1885.0,1424.1,3477.1,3477.1,1155.0,860.4,1495.8,3472.2,1381.2,1273.0,3485.6,3488.0,920.3,1330.5,1588.9,2114.9,1287.3,3293.2,3484.4,3480.7,668.4,1116.5,1669.1,1056.5,965.4,932.2,-26.0,-16.0,12.0,10449.0,-12288.0,2568.0,-1289.0,-271.0,-1196.0,-449.0,-13.0,12.0,9.0,7757.0,-13833.0,3744.0,-1699.0,-94.0,128.0,-115.0,1.0
2022-05-03 17:05:16.718950-07:00,1192.0,735.6,1088.6,1015.9,880.6,829.4,1885.0,1296.3,3477.1,3483.2,1155.9,862.1,1495.8,3472.2,1381.2,1274.7,3475.9,3488.0,920.3,1330.5,1571.1,2105.8,1299.8,3293.2,3477.1,3480.7,668.4,1116.5,1676.7,1062.5,968.8,932.2,-12.0,-42.0,77.0,10478.0,-12366.0,2166.0,-1023.0,130.0,-805.0,-254.0,-2.0,-24.0,-9.0,7788.0,-13816.0,3723.0,-1742.0,309.0,-6.0,-48.0,1.0
2022-05-03 17:05:16.719686-07:00,1210.6,735.6,1088.6,1015.9,881.4,893.2,1838.2,1296.3,3468.6,3483.2,1155.9,862.1,1494.9,3472.2,1377.5,1274.7,3475.9,3480.7,924.5,1327.8,1571.1,2105.8,1299.8,3325.3,3477.1,3483.2,674.2,1202.7,1676.7,1062.5,968.8,958.5,-14.0,57.0,28.0,10549.0,-12365.0,1873.0,-862.0,-77.0,-717.0,-309.0,-1.0,5.0,37.0,7858.0,-13781.0,3694.0,-1770.0,-26.0,-5.0,-49.0,1.0
2022-05-03 17:05:16.775370-07:00,1210.6,737.3,1090.3,1022.8,881.4,893.2,1838.2,1238.2,3468.6,3473.4,1166.5,861.2,1494.9,3472.2,1377.5,1277.4,3480.7,3480.7,924.5,1327.8,1586.1,2119.9,1313.3,3325.3,3479.5,3483.2,674.2,1202.7,1645.4,1059.9,962.8,958.5,16.0,-27.0,72.0,10516.0,-12441.0,1577.0,-771.0,-207.0,-347.0,-424.0,-3.0,1.0,44.0,7814.0,-13811.0,3674.0,-1766.0,-166.0,-7.0,-72.0,1.0
2022-05-03 17:05:16.835899-07:00,1210.6,731.5,1086.8,1016.8,880.6,879.7,1756.0,1207.1,3473.4,3472.2,1156.8,863.7,1498.6,3472.2,1374.8,1275.6,3479.5,3475.9,926.2,1339.5,1588.0,2111.8,1299.0,3322.9,3492.9,3479.5,669.3,1152.4,1671.9,1056.5,961.1,951.7,21.0,11.0,33.0,10598.0,-12354.0,1709.0,-756.0,-52.0,153.0,196.0,7.0,-11.0,31.0,7844.0,-13778.0,3723.0,-1789.0,-37.0,-12.0,27.0,1.0
2022-05-03 17:05:16.866187-07:00,1202.7,729.0,1090.3,1016.8,879.7,872.1,1756.0,1207.1,3473.4,3479.5,1155.9,863.7,1499.5,3477.1,1374.8,1275.6,3479.5,3475.9,915.2,1328.7,1588.0,2108.8,1297.2,3340.8,3492.9,3479.5,666.8,1139.2,1671.9,1058.2,958.5,939.8,14.0,-6.0,26.0,10572.0,-12363.0,1800.0,-766.0,-47.0,168.0,67.0,-1.0,-15.0,11.0,7827.0,-13784.0,3738.0,-1786.0,-86.0,29.0,34.0,1.0
2022-05-03 17:05:16.867256-07:00,1202.7,729.0,1090.3,1021.1,879.7,870.5,1759.8,1199.1,3473.4,3479.5,1155.9,857.9,1499.5,3474.6,1374.8,1279.2,3486.8,3483.2,926.2,1328.7,1587.1,2108.8,1297.2,3340.8,3492.9,3485.6,670.1,1139.2,1670.1,1058.2,958.5,939.8,2.0,-4.0,-4.0,10551.0,-12369.0,1867.0,-804.0,-81.0,161.0,58.0,2.0,-3.0,2.0,7795.0,-13797.0,3760.0,-1779.0,-98.0,18.0,35.0,1.0
2022-05-03 17:05:16.925568-07:00,1203.5,734.0,1088.6,1021.1,876.4,870.5,1759.8,1199.1,3473.4,3467.4,1150.6,857.9,1496.7,3474.6,1374.8,1279.2,3486.8,3483.2,926.2,1332.3,1587.1,2108.8,1301.6,3336.1,3492.9,3485.6,670.1,1125.2,1670.1,1063.4,957.7,933.0,3.0,-10.0,8.0,10526.0,-12378.0,1932.0,-837.0,3.0,147.0,52.0,-2.0,-9.0,11.0,7769.0,-13810.0,3772.0,-1771.0,-44.0,6.0,15.0,1.0
2022-05-03 17:05:16.985273-07:00,1203.5,734.0,1088.6,1018.5,876.4,863.7,1758.9,1201.8,3473.4,3467.4,1150.6,857.9,1496.7,3474.6,1366.6,1273.0,3478.3,3475.9,926.2,1332.3,1581.4,2108.8,1301.6,3336.1,3475.9,3477.1,671.7,1125.2,1672.9,1063.4,957.7,933.0,16.0,1.0,15.0,10522.0,-12373.0,1970.0,-869.0,-27.0,114.0,-29.0,0.0,-10.0,2.0,7766.0,-13811.0,3775.0,-1769.0,-21.0,-4.0,4.0,1.0
2022-05-03 17:05:17.015434-07:00,1200.9,734.0,1091.2,1018.5,879.7,863.7,1758.9,1201.8,3469.8,3467.4,1142.7,857.9,1492.1,3474.6,1366.6,1273.0,3478.3,3475.9,926.2,1327.8,1581.4,2108.8,1295.4,3342.0,3475.9,3477.1,671.7,1126.1,1672.9,1059.1,962.0,927.9,-6.0,-31.0,6.0,10493.0,-12392.0,1981.0,-913.0,-54.0,38.0,-46.0,0.0,-20.0,16.0,7747.0,-13823.0,3773.0,-1766.0,-41.0,6.0,-12.0,1.0
2022-05-03 17:05:17.075744-07:00,1200.9,734.0,1091.2,1021.1,879.7,864.6,1755.0,1203.5,3469.8,3467.4,1142.7,862.9,1492.1,3475.9,1377.5,1272.1,3484.4,3481.9,923.7,1327.8,1578.6,2108.8,1295.4,3342.0,3475.9,3483.2,672.5,1126.1,1671.9,1059.1,962.0,927.9,4.0,-4.0,12.0,10487.0,-12397.0,1980.0,-923.0,-6.0,11.0,5.0,3.0,-7.0,14.0,7749.0,-13822.0,3773.0,-1767.0,-15.0,-3.0,6.0,1.0
2022-05-03 17:05:17.165278-07:00,1207.1,725.8,1086.8,1014.2,879.7,864.6,1755.0,1203.5,3475.9,3479.5,1142.7,865.4,1501.4,3475.9,1377.5,1272.1,3484.4,3481.9,923.7,1335.0,1582.4,2104.8,1288.2,3342.0,3475.9,3483.2,672.5,1122.6,1669.1,1054.8,967.9,927.9,3.0,-7.0,9.0,10491.0,-12395.0,1975.0,-923.0,11.0,-13.0,-10.0,0.0,-8.0,9.0,7750.0,-13821.0,3772.0,-1768.0,-2.0,-1.0,-2.0,1.0
2022-05-03 17:05:17.166435-07:00,1207.1,725.8,1086.8,1014.2,885.6,861.2,1746.4,1200.0,3475.9,3479.5,1142.7,865.4,1497.7,3469.8,1370.3,1278.3,3474.6,3480.7,921.1,1344.9,1582.4,2104.8,1288.2,3342.0,3467.4,3485.6,670.9,1113.9,1669.1,1054.8,967.9,927.9,0.0,-11.0,16.0,10500.0,-12388.0,1971.0,-921.0,22.0,-16.0,18.0,2.0,-14.0,12.0,7755.0,-13818.0,3771.0,-1769.0,11.0,-2.0,4.0,1.0
2022-05-03 17:05:17.225760-07:00,1213.3,724.9,1090.3,1022.8,885.6,861.2,1746.4,1200.0,3488.0,3478.3,1139.2,864.6,1497.7,3469.8,1370.3,1278.3,3474.6,3480.7,921.1,1344.9,1581.4,2108.8,1294.5,3342.0,3467.4,3485.6,670.9,1113.9,1671.9,1049.6,964.5,918.6,2.0,-18.0,21.0,10510.0,-12378.0,1982.0,-915.0,9.0,24.0,50.0,0.0,-12.0,11.0,7758.0,-13816.0,3774.0,-1768.0,6.0,4.0,13.0,1.0
2022-05-03 17:05:17.285372-07:00,1213.3,724.9,1090.3,1022.8,877.2,858.7,1746.4,1192.0,3488.0,3478.3,1139.2,864.6,1503.2,3479.5,1370.3,1266.7,3485.6,3483.2,922.0,1322.3,1581.4,2108.8,1294.5,3342.0,3479.5,3481.9,673.3,1113.0,1671.9,1049.6,964.5,918.6,6.0,4.0,8.0,10524.0,-12362.0,2002.0,-921.0,34.0,33.0,6.0,5.0,-6.0,15.0,7767.0,-13810.0,3778.0,-1768.0,5.0,9.0,11.0,1.0
2022-05-03 17:05:17.315248-07:00,1194.7,721.6,1087.7,1017.6,877.2,858.7,1746.4,1192.0,3479.5,3474.6,1144.5,859.5,1503.2,3479.5,1370.3,1266.7,3485.6,3483.2,922.0,1322.3,1576.8,2106.8,1291.8,3355.2,3479.5,3481.9,673.3,1113.0,1664.4,1058.2,956.0,933.0,6.0,-21.0,10.0,10526.0,-12360.0,2005.0,-925.0,-27.0,9.0,13.0,-1.0,-10.0,4.0,7757.0,-13815.0,3780.0,-1767.0,-38.0,1.0,9.0,1.0
2022-05-03 17:05:17.434793-07:00,1201.8,721.6,1087.7,1017.6,885.6,856.2,1750.2,1192.0,3480.7,3474.6,1144.5,859.5,1497.7,3475.9,1363.9,1274.7,3474.6,3489.2,921.1,1331.4,1576.8,2106.8,1291.8,3334.9,3477.1,3481.9,672.5,1107.8,1664.4,1058.2,956.0,931.3,4.0,3.0,7.0,10526.0,-12359.0,2010.0,-923.0,4.0,-9.0,-19.0,1.0,-12.0,11.0,7758.0,-13815.0,3780.0,-1767.0,-8.0,-3.0,-1.0,1.0
2022-05-03 17:05:17.615272-07:00,1201.8,728.2,1082.5,1015.9,885.6,856.2,1750.2,1209.7,3480.7,3474.6,1144.5,860.4,1497.7,3475.9,1363.9,1272.1,3478.3,3489.2,921.1,1331.4,1583.3,2103.7,1288.2,3334.9,3477.1,3481.9,672.5,1107.8,1676.7,1055.6,964.5,931.3,4.0,-22.0,14.0,10521.0,-12366.0,1992.0,-927.0,7.0,-29.0,-44.0,0.0,-11.0,10.0,7752.0,-13818.0,3780.0,-1766.0,0.0,0.0,-4.0,1.0
2022-05-03 17:05:17.616947-07:00,1193.8,728.2,1082.5,1015.9,882.3,855.3,1750.2,1209.7,3480.7,3474.6,1144.5,860.4,1491.2,3474.6,1370.3,1272.1,3478.3,3475.9,923.7,1327.8,1583.3,2103.7,1288.2,3344.4,3477.1,3489.2,669.3,1105.1,1676.7,1055.6,964.5,926.2,-6.0,-8.0,21.0,10543.0,-12349.0,1981.0,-938.0,97.0,27.0,-8.0,0.0,-9.0,16.0,7773.0,-13807.0,3776.0,-1770.0,62.0,3.0,3.0,1.0
2022-05-03 17:05:17.825469-07:00,1193.8,723.3,1087.7,1017.6,882.3,855.3,1750.2,1195.6,3480.7,3472.2,1131.4,858.7,1491.2,3474.6,1370.3,1270.3,3481.9,3475.9,923.7,1327.8,1575.8,2107.8,1290.0,3344.4,3486.8,3489.2,669.3,1105.1,1671.9,1059.9,960.2,926.2,2.0,-4.0,10.0,10562.0,-12331.0,1983.0,-945.0,26.0,21.0,-1.0,1.0,-8.0,14.0,7785.0,-13800.0,3776.0,-1772.0,0.0,5.0,6.0,1.0
2022-05-03 17:05:17.826668-07:00,1199.1,723.3,1087.7,1017.6,878.0,847.8,1746.4,1195.6,3477.1,3472.2,1131.4,858.7,1494.0,3477.1,1373.0,1270.3,3481.9,3481.9,922.0,1332.3,1575.8,2107.8,1290.0,3333.7,3486.8,3486.8,668.4,1093.8,1671.9,1059.9,960.2,924.5,2.0,-12.0,6.0,10561.0,-12329.0,1997.0,-953.0,-13.0,39.0,25.0,5.0,-9.0,7.0,7780.0,-13801.0,3780.0,-1772.0,-27.0,7.0,10.0,1.0
2022-05-03 17:05:17.827440-07:00,1199.1,727.4,1092.9,1012.5,878.0,847.8,1745.4,1191.2,3477.1,3473.4,1135.7,862.1,1494.0,3477.1,1372.1,1273.9,3481.9,3471.0,922.0,1332.3,1588.0,2107.8,1288.2,3333.7,3484.4,3477.1,668.4,1093.8,1667.2,1053.9,957.7,924.5,8.0,1.0,7.0,10560.0,-12328.0,2007.0,-954.0,-13.0,-1.0,9.0,0.0,-7.0,11.0,7776.0,-13804.0,3781.0,-1770.0,-21.0,6.0,4.0,1.0
2022-05-03 17:05:17.828885-07:00,1196.5,724.9,1092.9,1012.5,882.3,855.3,1745.4,1191.2,3467.4,3479.5,1135.7,862.1,1500.4,3472.2,1372.1,1273.9,3481.9,3471.0,919.4,1335.9,1588.0,2107.8,1288.2,3332.5,3484.4,3477.1,666.0,1096.4,1667.2,1053.9,957.7,922.0,-2.0,-13.0,14.0,10554.0,-12334.0,2003.0,-955.0,5.0,-5.0,-18.0,0.0,-14.0,13.0,7772.0,-13806.0,3781.0,-1769.0,19.0,2.0,-1.0,1.0
2022-05-03 17:05:17.829885-07:00,1196.5,724.9,1084.2,1014.2,882.3,855.3,1745.4,1213.3,3467.4,3479.5,1142.7,861.2,1500.4,3472.2,1373.9,1278.3,3478.3,3469.8,919.4,1335.9,1579.6,2101.7,1288.2,3332.5,3480.7,3486.8,666.0,1096.4,1665.3,1049.6,957.7,922.0,1.0,0.0,13.0,10565.0,-12325.0,1991.0,-966.0,26.0,-8.0,-43.0,0.0,-8.0,11.0,7782.0,-13800.0,3780.0,-1772.0,7.0,7.0,1.0,1.0
2022-05-03 17:05:17.885799-07:00,1200.9,731.5,1084.2,1014.2,880.6,852.0,1745.4,1213.3,3480.7,3477.1,1142.7,861.2,1495.8,3480.7,1373.9,1278.3,3478.3,3469.8,916.0,1324.1,1579.6,2101.7,1290.0,3357.6,3480.7,3486.8,670.1,1096.4,1665.3,1049.6,958.5,911.8,1.0,-12.0,14.0,10569.0,-12320.0,1999.0,-969.0,-35.0,16.0,6.0,1.0,-10.0,9.0,7778.0,-13802.0,3782.0,-1770.0,-40.0,6.0,7.0,1.0
2022-05-03 17:05:17.945240-07:00,1195.6,721.6,1091.2,1019.4,879.7,845.3,1735.8,1187.6,3485.6,3474.6,1139.2,862.1,1494.9,3483.2,1365.7,1278.3,3484.4,3481.9,926.2,1335.0,1579.6,2106.8,1289.1,3332.5,3485.6,3486.8,666.0,1092.9,1664.4,1056.5,963.7,936.4,1.0,-1.0,6.0,10567.0,-12322.0,2001.0,-970.0,-23.0,-9.0,5.0,2.0,-7.0,5.0,7775.0,-13804.0,3784.0,-1769.0,-26.0,7.0,4.0,1.0
2022-05-03 17:05:18.005176-07:00,1195.6,722.5,1086.0,1019.4,883.9,845.3,1735.8,1187.6,3477.1,3477.1,1134.0,862.1,1500.4,3483.2,1365.7,1278.3,3484.4,3481.9,926.2,1335.0,1579.6,2105.8,1291.8,3346.8,3485.6,3486.8,666.0,1093.8,1664.4,1054.8,965.4,923.7,2.0,-12.0,15.0,10559.0,-12330.0,1999.0,-966.0,-19.0,-4.0,4.0,0.0,-9.0,4.0,7764.0,-13810.0,3785.0,-1766.0,-12.0,-7.0,1.0,1.0
2022-05-03 17:05:18.035138-07:00,1195.6,722.5,1086.0,1013.3,883.9,850.3,1741.6,1181.5,3477.1,3477.1,1134.0,859.5,1500.4,3478.3,1376.6,1274.7,3483.2,3483.2,922.0,1335.0,1577.7,2105.8,1291.8,3346.8,3483.2,3469.8,672.5,1093.8,1664.4,1054.8,965.4,923.7,7.0,-8.0,11.0,10561.0,-12328.0,1998.0,-966.0,4.0,-2.0,-4.0,1.0,-3.0,5.0,7765.0,-13809.0,3785.0,-1766.0,-11.0,-12.0,-2.0,1.0
2022-05-03 17:05:18.065274-07:00,1196.5,721.6,1079.9,1013.3,882.3,850.3,1741.6,1181.5,3472.2,3475.9,1136.6,859.5,1501.4,3478.3,1376.6,1274.7,3483.2,3483.2,922.0,1332.3,1577.7,2105.8,1293.6,3357.6,3483.2,3469.8,672.5,1084.2,1664.4,1049.6,957.7,928.8,7.0,-7.0,18.0,10561.0,-12327.0,2003.0,-974.0,-16.0,37.0,11.0,6.0,-10.0,10.0,7758.0,-13813.0,3786.0,-1764.0,-22.0,2.0,9.0,1.0
2022-05-03 17:05:18.125527-07:00,1196.5,721.6,1079.9,1012.5,882.3,847.8,1736.8,1188.5,3472.2,3475.9,1136.6,857.9,1501.4,3475.9,1373.0,1267.6,3480.7,3485.6,922.8,1332.3,1581.4,2105.8,1293.6,3357.6,3475.9,3478.3,661.9,1084.2,1672.9,1049.6,957.7,928.8,-2.0,-7.0,10.0,10560.0,-12325.0,2018.0,-983.0,2.0,27.0,18.0,2.0,-12.0,12.0,7755.0,-13814.0,3789.0,-1761.0,-5.0,7.0,15.0,1.0
2022-05-03 17:05:18.185400-07:00,1200.9,725.8,1085.1,1018.5,884.8,847.8,1736.8,1188.5,3479.5,3477.1,1131.4,857.9,1495.8,3475.9,1373.0,1267.6,3480.7,3485.6,922.8,1337.7,1578.6,2111.8,1290.9,3350.4,3475.9,3478.3,661.9,1082.5,1669.1,1053.0,958.5,921.1,5.0,-13.0,10.0,10560.0,-12323.0,2023.0,-984.0,-12.0,-2.0,3.0,1.0,-5.0,7.0,7753.0,-13815.0,3793.0,-1759.0,-13.0,3.0,7.0,1.0
2022-05-03 17:05:18.215403-07:00,1200.9,725.8,1085.1,1018.5,878.0,837.7,1733.9,1186.7,3479.5,3477.1,1131.4,857.9,1499.5,3467.4,1367.6,1278.3,3478.3,3488.0,921.1,1335.0,1578.6,2111.8,1290.9,3350.4,3484.4,3488.0,666.8,1082.5,1669.1,1053.0,958.5,921.1,2.0,-4.0,5.0,10564.0,-12320.0,2022.0,-985.0,19.0,-11.0,-6.0,1.0,-3.0,6.0,7756.0,-13813.0,3793.0,-1760.0,8.0,0.0,-3.0,1.0
2022-05-03 17:05:18.365288-07:00,1194.7,720.8,1091.2,1016.8,878.0,837.7,1733.9,1186.7,3488.0,3474.6,1134.9,865.4,1499.5,3467.4,1367.6,1278.3,3478.3,3488.0,921.1,1335.0,1578.6,2105.8,1295.4,3348.0,3484.4,3488.0,666.8,1082.5,1664.4,1058.2,963.7,922.0,3.0,-19.0,20.0,10560.0,-12324.0,2017.0,-983.0,-46.0,-12.0,-11.0,2.0,-11.0,12.0,7749.0,-13817.0,3794.0,-1758.0,-22.0,2.0,-3.0,1.0
2022-05-03 17:05:18.367198-07:00,1194.7,720.8,1091.2,1016.8,878.9,837.7,1742.6,1186.7,3488.0,3474.6,1134.9,865.4,1494.0,3478.3,1375.7,1274.7,3483.2,3481.9,918.6,1335.9,1578.6,2105.8,1295.4,3348.0,3474.6,3489.2,668.4,1072.1,1664.4,1058.2,963.7,922.0,4.0,-10.0,14.0,10560.0,-12324.0,2016.0,-984.0,7.0,15.0,7.0,6.0,-9.0,11.0,7746.0,-13819.0,3794.0,-1757.0,-5.0,1.0,5.0,1.0
2022-05-03 17:05:18.455216-07:00,1200.9,724.9,1083.4,1014.2,878.9,837.7,1742.6,1186.7,3478.3,3477.1,1134.9,858.7,1494.0,3478.3,1375.7,1274.7,3483.2,3481.9,918.6,1335.9,1580.5,2105.8,1290.9,3348.0,3474.6,3489.2,668.4,1072.1,1669.1,1058.2,960.2,925.4,0.0,-6.0,10.0,10564.0,-12320.0,2021.0,-992.0,16.0,15.0,3.0,0.0,-9.0,13.0,7748.0,-13817.0,3795.0,-1759.0,19.0,7.0,6.0,1.0
2022-05-03 17:05:18.486051-07:00,1199.1,724.9,1083.4,1014.2,873.0,843.6,1727.2,1185.0,3473.4,3477.1,1134.9,858.7,1494.0,3472.2,1373.0,1281.9,3483.2,3489.2,914.4,1334.1,1580.5,2105.8,1290.9,3337.3,3490.5,3480.7,676.6,1077.3,1669.1,1058.2,960.2,927.1,1.0,-8.0,9.0,10562.0,-12320.0,2022.0,-994.0,-29.0,-5.0,-11.0,5.0,-12.0,15.0,7745.0,-13818.0,3797.0,-1760.0,-26.0,7.0,6.0,1.0
2022-05-03 17:05:18.936030-07:00,1199.1,727.4,1085.1,1018.5,873.0,843.6,1727.2,1186.7,3473.4,3477.1,1126.1,857.0,1494.0,3472.2,1373.0,1274.7,3480.7,3489.2,914.4,1334.1,1584.2,2107.8,1290.0,3337.3,3479.5,3480.7,676.6,1077.3,1670.1,1053.0,958.5,927.1,2.0,-7.0,2.0,10565.0,-12320.0,2011.0,-997.0,20.0,-10.0,-22.0,0.0,-3.0,5.0,7746.0,-13817.0,3796.0,-1760.0,13.0,2.0,-3.0,1.0
2022-05-03 17:05:18.937091-07:00,1195.6,727.4,1085.1,1018.5,881.4,844.4,1715.8,1186.7,3471.0,3477.1,1126.1,857.0,1496.7,3478.3,1372.1,1274.7,3480.7,3488.0,919.4,1339.5,1584.2,2107.8,1290.0,3342.0,3479.5,3477.1,671.7,1066.0,1670.1,1053.0,958.5,924.5,-1.0,-15.0,24.0,10563.0,-12322.0,2013.0,-996.0,-14.0,13.0,23.0,3.0,-14.0,18.0,7743.0,-13819.0,3797.0,-1759.0,-7.0,-2.0,7.0,1.0
2022-05-03 17:05:18.938081-07:00,1195.6,720.0,1079.9,1015.1,881.4,844.4,1715.8,1173.5,3471.0,3474.6,1131.4,861.2,1496.7,3478.3,1372.1,1276.5,3489.2,3488.0,919.4,1339.5,1582.4,2113.9,1292.7,3342.0,3488.0,3477.1,671.7,1066.0,1668.2,1057.3,962.0,924.5,8.0,-10.0,14.0,10571.0,-12313.0,2023.0,-998.0,14.0,24.0,12.0,1.0,-7.0,11.0,7746.0,-13817.0,3799.0,-1759.0,-5.0,6.0,7.0,1.0
2022-05-03 17:05:18.939118-07:00,1193.8,720.0,1079.9,1015.1,879.7,836.1,1732.0,1173.5,3474.6,3474.6,1131.4,861.2,1498.6,3472.2,1373.9,1276.5,3489.2,3478.3,922.8,1335.9,1582.4,2113.9,1292.7,3349.2,3488.0,3484.4,669.3,1067.7,1668.2,1057.3,962.0,925.4,-1.0,-5.0,7.0,10568.0,-12311.0,2047.0,-1007.0,-26.0,54.0,40.0,7.0,-15.0,20.0,7741.0,-13819.0,3804.0,-1755.0,-17.0,7.0,18.0,1.0
2022-05-03 17:05:18.995962-07:00,1193.8,723.3,1082.5,1012.5,879.7,836.1,1732.0,1191.2,3474.6,3488.0,1125.2,861.2,1498.6,3472.2,1373.9,1266.7,3478.3,3478.3,922.8,1335.9,1571.1,2102.7,1290.9,3349.2,3490.5,3484.4,669.3,1067.7,1622.8,1057.3,956.0,925.4,2.0,-3.0,-1.0,10565.0,-12312.0,2048.0,-1007.0,7.0,-14.0,-25.0,2.0,-5.0,1.0,7739.0,-13818.0,3810.0,-1757.0,-2.0,11.0,2.0,1.0
2022-05-03 17:05:18.996706-07:00,1193.8,723.3,1082.5,1012.5,879.7,836.1,1732.0,1191.2,3474.6,3488.0,1125.2,861.2,1498.6,3472.2,1373.9,1266.7,3478.3,3478.3,922.8,1335.9,1571.1,2102.7,1290.9,3349.2,3490.5,3484.4,669.3,1067.7,1622.8,1057.3,956.0,925.4,2.0,-3.0,-1.0,10565.0,-12312.0,2048.0,-1007.0,7.0,-14.0,-25.0,2.0,-5.0,1.0,7739.0,-13818.0,3810.0,-1757.0,-2.0,11.0,2.0,1.0
2022-05-03 17:05:19.085525-07:00,1194.7,721.6,1083.4,1015.9,879.7,841.1,1726.3,1185.0,3467.4,3477.1,1125.2,857.0,1498.6,3472.2,1375.7,1274.7,3479.5,3484.4,920.3,1335.9,1573.9,2097.7,1294.5,3313.4,3480.7,3477.1,666.0,1061.7,1667.2,1051.3,952.6,926.2,7.0,-2.0,13.0,10568.0,-12316.0,2024.0,-984.0,-2.0,-26.0,-8.0,4.0,-14.0,13.0,7722.0,-13827.0,3814.0,-1755.0,12.0,3.0,5.0,1.0
2022-05-03 17:05:19.087388-07:00,1194.7,721.6,1083.4,1014.2,879.7,834.4,1720.5,1178.8,3467.4,3477.1,1125.2,865.4,1498.6,3478.3,1375.7,1276.5,3481.9,3481.9,919.4,1335.9,1578.6,2097.7,1294.5,3313.4,3485.6,3480.7,668.4,1061.7,1670.1,1051.3,952.6,926.2,0.0,-24.0,15.0,10564.0,-12319.0,2021.0,-990.0,-12.0,33.0,-3.0,1.0,-13.0,12.0,7720.0,-13828.0,3814.0,-1754.0,-2.0,-4.0,-3.0,1.0
2022-05-03 17:05:19.115409-07:00,1196.5,721.6,1080.8,1014.2,875.5,834.4,1720.5,1178.8,3475.9,3472.2,1125.2,865.4,1494.9,3478.3,1375.7,1276.5,3481.9,3481.9,919.4,1321.4,1578.6,2109.8,1284.6,3318.2,3485.6,3480.7,668.4,1053.0,1670.1,1055.6,952.6,922.0,17.0,16.0,11.0,10562.0,-12316.0,2048.0,-1005.0,-40.0,121.0,46.0,2.0,-4.0,15.0,7730.0,-13822.0,3812.0,-1757.0,16.0,0.0,5.0,1.0
2022-05-03 17:05:19.175384-07:00,1196.5,721.6,1080.8,1016.8,875.5,832.7,1714.8,1181.5,3475.9,3472.2,1125.2,860.4,1494.9,3473.4,1367.6,1278.3,3484.4,3467.4,920.3,1321.4,1573.0,2109.8,1284.6,3318.2,3480.7,3485.6,669.3,1053.0,1667.2,1055.6,952.6,922.0,-2.0,-50.0,57.0,10497.0,-12346.0,2164.0,-1076.0,-209.0,486.0,133.0,5.0,-21.0,-15.0,7712.0,-13835.0,3805.0,-1749.0,-55.0,-36.0,-16.0,1.0
2022-05-03 17:05:19.205842-07:00,1194.7,723.3,1082.5,1016.8,878.9,832.7,1714.8,1181.5,3478.3,3471.0,1137.5,860.4,1495.8,3473.4,1367.6,1278.3,3484.4,3467.4,920.3,1330.5,1573.0,2102.7,1303.4,3321.7,3480.7,3485.6,669.3,1080.8,1667.2,1055.6,956.8,918.6,2.0,32.0,26.0,10438.0,-12322.0,2434.0,-1315.0,226.0,1004.0,70.0,0.0,-24.0,57.0,7745.0,-13822.0,3793.0,-1735.0,214.0,-44.0,16.0,1.0
2022-05-03 17:05:19.265691-07:00,1194.7,723.3,1082.5,1011.6,878.9,843.6,1822.6,1311.5,3478.3,3471.0,1137.5,858.7,1494.9,3474.6,1372.1,1273.9,3480.7,3478.3,922.0,1335.0,1577.7,2102.7,1303.4,3321.7,3477.1,3483.2,666.8,1073.8,1662.5,1055.6,956.8,918.6,-32.0,-59.0,-8.0,10391.0,-12290.0,2642.0,-1562.0,-258.0,595.0,16.0,9.0,-15.0,30.0,7766.0,-13808.0,3804.0,-1731.0,-109.0,10.0,85.0,1.0
2022-05-03 17:05:19.326233-07:00,1204.4,716.7,1084.2,1012.5,878.9,843.6,1822.6,1311.5,3474.6,3471.0,1147.1,857.9,1494.9,3474.6,1372.1,1273.9,3480.7,3478.3,922.0,1335.0,1570.2,2104.8,1340.4,3314.6,3477.1,3483.2,666.8,1073.8,1662.5,1055.6,961.1,912.7,19.0,-1.0,-10.0,10338.0,-12290.0,2805.0,-1624.0,27.0,287.0,226.0,7.0,4.0,-7.0,7763.0,-13801.0,3847.0,-1708.0,64.0,-19.0,103.0,1.0
2022-05-03 17:05:19.385339-07:00,1204.4,716.7,1084.2,1012.5,878.0,837.7,1903.6,1368.5,3474.6,3471.0,1147.1,857.9,1494.9,3471.0,1370.3,1273.9,3477.1,3479.5,922.8,1335.9,1570.2,2104.8,1340.4,3314.6,3475.9,3481.9,674.2,1030.6,1662.5,1055.6,961.1,912.7,17.0,30.0,-8.0,10357.0,-12244.0,2902.0,-1687.0,98.0,230.0,-16.0,5.0,0.0,1.0,7795.0,-13783.0,3855.0,-1683.0,46.0,-68.0,33.0,1.0
2022-05-03 17:05:19.415926-07:00,1203.5,717.5,1076.4,1011.6,878.0,837.7,1903.6,1368.5,3477.1,3475.9,1140.1,860.4,1494.9,3471.0,1370.3,1273.9,3477.1,3479.5,922.8,1335.9,1573.9,2104.8,1335.9,3324.1,3475.9,3481.9,674.2,1030.6,1673.8,1052.2,957.7,914.4,-10.0,-15.0,-9.0,10364.0,-12222.0,2911.0,-1783.0,71.0,121.0,-129.0,4.0,-21.0,21.0,7812.0,-13780.0,3843.0,-1661.0,16.0,-49.0,-3.0,1.0
2022-05-03 17:05:19.566015-07:00,1203.5,717.5,1076.4,1011.6,882.3,831.1,1894.8,1372.1,3477.1,3475.9,1140.1,860.4,1494.0,3473.4,1368.5,1276.5,3483.2,3481.9,924.5,1335.0,1573.9,2104.8,1335.9,3324.1,3479.5,3477.1,675.8,1012.5,1673.8,1052.2,957.7,914.4,-5.0,-34.0,11.0,10361.0,-12223.0,2906.0,-1801.0,-20.0,-21.0,34.0,9.0,-13.0,14.0,7814.0,-13781.0,3839.0,-1653.0,-23.0,-17.0,15.0,1.0
2022-05-03 17:05:19.625689-07:00,1201.8,717.5,1080.8,1013.3,882.3,831.1,1894.8,1377.5,3485.6,3472.2,1142.7,862.1,1494.0,3473.4,1368.5,1275.6,3474.6,3481.9,924.5,1335.0,1578.6,2111.8,1321.4,3328.9,3483.2,3477.1,675.8,1012.5,1667.2,1064.3,953.4,915.2,11.0,8.0,6.0,10367.0,-12219.0,2918.0,-1774.0,-4.0,-50.0,44.0,7.0,-17.0,19.0,7813.0,-13781.0,3841.0,-1646.0,-35.0,-7.0,16.0,1.0
2022-05-03 17:05:19.626891-07:00,1194.7,717.5,1080.8,1013.3,878.0,827.7,1877.2,1377.5,3477.1,3472.2,1142.7,862.1,1493.0,3467.4,1369.4,1275.6,3474.6,3474.6,921.1,1336.8,1578.6,2111.8,1321.4,3320.5,3483.2,3483.2,670.1,1002.2,1667.2,1064.3,953.4,912.7,-9.0,-23.0,4.0,10365.0,-12226.0,2904.0,-1753.0,-12.0,-63.0,-7.0,-3.0,-21.0,9.0,7802.0,-13788.0,3841.0,-1640.0,-41.0,-3.0,7.0,1.0
2022-05-03 17:05:19.628193-07:00,1194.7,714.2,1085.1,1014.2,878.0,827.7,1877.2,1370.3,3477.1,3475.9,1143.6,863.7,1493.0,3467.4,1369.4,1276.5,3477.1,3474.6,921.1,1336.8,1576.8,2101.7,1319.6,3320.5,3483.2,3483.2,670.1,1002.2,1671.9,1056.5,956.0,912.7,12.0,-10.0,10.0,10385.0,-12219.0,2879.0,-1732.0,70.0,-61.0,-7.0,4.0,-6.0,8.0,7806.0,-13787.0,3841.0,-1639.0,50.0,-8.0,-3.0,1.0
2022-05-03 17:05:19.715347-07:00,1194.7,714.2,1085.1,1014.2,882.3,823.5,1868.4,1370.3,3474.6,3475.9,1143.6,863.7,1494.0,3478.3,1365.7,1276.5,3477.1,3480.7,926.2,1336.8,1576.8,2101.7,1319.6,3334.9,3483.2,3475.9,676.6,993.6,1671.9,1056.5,956.0,912.7,4.0,-5.0,8.0,10412.0,-12204.0,2850.0,-1723.0,11.0,-78.0,-28.0,4.0,-4.0,8.0,7827.0,-13775.0,3836.0,-1647.0,15.0,-1.0,-10.0,1.0
2022-05-03 17:05:19.745327-07:00,1194.7,711.8,1080.8,1016.8,882.3,823.5,1868.4,1365.7,3474.6,3477.1,1135.7,857.9,1494.0,3478.3,1365.7,1273.0,3477.1,3480.7,926.2,1336.8,1575.8,2097.7,1311.5,3334.9,3481.9,3475.9,676.6,993.6,1656.8,1053.9,959.4,912.7,0.0,-15.0,13.0,10412.0,-12213.0,2827.0,-1697.0,-10.0,-89.0,10.0,3.0,-13.0,8.0,7827.0,-13775.0,3834.0,-1648.0,1.0,1.0,-1.0,1.0
2022-05-03 17:05:19.776155-07:00,1193.8,722.5,1080.8,1016.8,885.6,828.5,1869.3,1365.7,3483.2,3473.4,1135.7,857.9,1484.7,3469.8,1366.6,1273.0,3477.1,3483.2,918.6,1325.9,1575.8,2097.7,1307.0,3352.8,3481.9,3485.6,675.0,985.9,1656.8,1053.9,955.1,917.7,3.0,0.0,6.0,10433.0,-12207.0,2792.0,-1669.0,46.0,-113.0,-31.0,4.0,-8.0,17.0,7831.0,-13773.0,3833.0,-1650.0,-3.0,2.0,-2.0,1.0
2022-05-03 17:05:20.045321-07:00,1193.8,722.5,1079.9,1010.8,885.6,828.5,1862.5,1364.8,3483.2,3473.4,1139.2,860.4,1484.7,3469.8,1368.5,1273.9,3483.2,3486.8,918.6,1325.9,1582.4,2103.7,1307.0,3352.8,3488.0,3489.2,675.0,985.9,1669.1,1053.9,955.1,917.7,5.0,-13.0,6.0,10442.0,-12211.0,2750.0,-1650.0,-31.0,-83.0,-30.0,1.0,-5.0,7.0,7832.0,-13773.0,3832.0,-1651.0,-9.0,0.0,-13.0,1.0
2022-05-03 17:05:20.195474-07:00,1190.3,710.1,1079.9,1010.8,875.5,823.5,1862.5,1364.8,3477.1,3488.0,1139.2,860.4,1493.0,3471.0,1368.5,1273.9,3483.2,3486.8,917.7,1336.8,1582.4,2103.7,1305.2,3331.3,3488.0,3489.2,675.0,986.7,1669.1,1053.9,956.0,911.0,4.0,-15.0,25.0,10436.0,-12225.0,2726.0,-1627.0,-42.0,-60.0,10.0,3.0,-11.0,10.0,7828.0,-13775.0,3830.0,-1650.0,-8.0,-9.0,-2.0,1.0
2022-05-03 17:05:20.196803-07:00,1190.3,710.1,1087.7,1013.3,875.5,823.5,1857.6,1366.6,3477.1,3488.0,1140.1,857.9,1493.0,3471.0,1371.2,1269.4,3468.6,3480.7,917.7,1336.8,1575.8,2101.7,1305.2,3331.3,3472.2,3484.4,675.0,986.7,1671.0,1054.8,956.0,911.0,2.0,-2.0,13.0,10441.0,-12223.0,2723.0,-1618.0,-14.0,-9.0,8.0,2.0,-6.0,11.0,7834.0,-13772.0,3829.0,-1652.0,-14.0,6.0,2.0,1.0
2022-05-03 17:05:20.197761-07:00,1189.4,711.8,1087.7,1013.3,875.5,828.5,1857.6,1366.6,3477.1,3475.9,1140.1,857.9,1500.4,3481.9,1371.2,1269.4,3468.6,3480.7,920.3,1335.0,1575.8,2101.7,1303.4,3340.8,3472.2,3484.4,672.5,985.9,1671.0,1054.8,957.7,912.7,5.0,-19.0,21.0,10425.0,-12235.0,2732.0,-1619.0,-60.0,55.0,29.0,4.0,-16.0,9.0,7829.0,-13775.0,3829.0,-1651.0,-1.0,2.0,12.0,1.0
2022-05-03 17:05:20.198703-07:00,1189.4,711.8,1084.2,1015.9,875.5,828.5,1888.9,1396.7,3477.1,3475.9,1140.1,852.8,1500.4,3481.9,1369.4,1273.9,3479.5,3481.9,920.3,1335.0,1573.0,2107.8,1303.4,3340.8,3477.1,3484.4,672.5,985.9,1656.8,1053.9,957.7,912.7,7.0,3.0,14.0,10429.0,-12221.0,2759.0,-1647.0,47.0,106.0,-7.0,4.0,-5.0,13.0,7842.0,-13767.0,3830.0,-1653.0,31.0,4.0,13.0,1.0
2022-05-03 17:05:20.199373-07:00,1189.4,711.8,1084.2,1015.9,875.5,828.5,1888.9,1396.7,3477.1,3475.9,1140.1,852.8,1500.4,3481.9,1369.4,1273.9,3479.5,3481.9,920.3,1335.0,1573.0,2107.8,1303.4,3340.8,3477.1,3484.4,672.5,985.9,1656.8,1053.9,957.7,912.7,7.0,3.0,14.0,10429.0,-12221.0,2759.0,-1647.0,47.0,106.0,-7.0,4.0,-5.0,13.0,7842.0,-13767.0,3830.0,-1653.0,31.0,4.0,13.0,1.0
2022-05-03 17:05:20.225727-07:00,1188.5,712.6,1082.5,1016.8,885.6,821.0,1883.0,1391.2,3481.9,3483.2,1134.0,862.1,1492.1,3480.7,1368.5,1275.6,3494.1,3474.6,920.3,1333.2,1576.8,2103.7,1297.2,3309.8,3489.2,3477.1,670.9,976.5,1668.2,1054.8,955.1,927.9,8.0,2.0,-3.0,10433.0,-12210.0,2769.0,-1686.0,29.0,-18.0,15.0,3.0,-5.0,2.0,7836.0,-13767.0,3844.0,-1650.0,-11.0,-5.0,16.0,1.0
2022-05-03 17:05:20.315211-07:00,1192.0,713.4,1071.2,1016.8,874.7,821.0,1883.0,1391.2,3479.5,3474.6,1139.2,862.1,1500.4,3480.7,1368.5,1275.6,3494.1,3474.6,920.3,1338.6,1576.8,2100.7,1307.0,3332.5,3489.2,3477.1,670.9,979.0,1668.2,1051.3,957.7,907.6,1.0,-9.0,21.0,10443.0,-12206.0,2751.0,-1678.0,0.0,-16.0,-2.0,3.0,-13.0,13.0,7840.0,-13766.0,3842.0,-1648.0,-7.0,-8.0,-1.0,1.0
2022-05-03 17:05:20.316498-07:00,1192.0,714.2,1077.3,1021.9,878.0,821.0,1871.3,1374.8,3473.4,3472.2,1132.2,857.9,1489.3,3478.3,1368.5,1274.7,3477.1,3480.7,919.4,1334.1,1566.5,2104.8,1295.4,3321.7,3478.3,3478.3,672.5,978.2,1671.9,1058.2,959.4,904.2,1.0,-6.0,11.0,10447.0,-12201.0,2753.0,-1684.0,4.0,21.0,-1.0,3.0,-12.0,13.0,7843.0,-13764.0,3841.0,-1650.0,1.0,8.0,9.0,1.0
2022-05-03 17:05:20.317530-07:00,1192.0,714.2,1077.3,1008.2,877.2,817.7,1870.3,1369.4,3473.4,3472.2,1132.2,858.7,1493.0,3477.1,1365.7,1274.7,3474.6,3481.9,920.3,1330.5,1573.9,2104.8,1295.4,3321.7,3483.2,3481.9,669.3,977.3,1672.9,1058.2,959.4,904.2,2.0,-9.0,8.0,10449.0,-12199.0,2754.0,-1689.0,15.0,9.0,-10.0,4.0,-5.0,7.0,7845.0,-13762.0,3844.0,-1651.0,-5.0,16.0,14.0,1.0
2022-05-03 17:05:20.375399-07:00,1186.7,712.6,1079.9,1012.5,877.2,817.7,1870.3,1369.4,3474.6,3474.6,1134.9,854.5,1493.0,3477.1,1365.7,1274.7,3474.6,3481.9,920.3,1330.5,1566.5,2101.7,1293.6,3321.7,3483.2,3481.9,669.3,977.3,1666.3,1051.3,956.0,913.5,5.0,0.0,2.0,10456.0,-12193.0,2753.0,-1691.0,16.0,-3.0,-9.0,1.0,-6.0,4.0,7847.0,-13761.0,3844.0,-1652.0,9.0,1.0,4.0,1.0
2022-05-03 17:05:20.405532-07:00,1186.7,712.6,1079.9,1012.5,872.1,825.2,1864.5,1372.1,3474.6,3474.6,1134.9,854.5,1494.9,3488.0,1367.6,1272.1,3486.8,3480.7,922.8,1335.0,1566.5,2101.7,1293.6,3321.7,3479.5,3483.2,671.7,970.5,1666.3,1051.3,956.0,913.5,1.0,-9.0,5.0,10457.0,-12193.0,2748.0,-1693.0,2.0,-16.0,-11.0,2.0,-7.0,11.0,7848.0,-13760.0,3843.0,-1652.0,-8.0,4.0,1.0,1.0
2022-05-03 17:05:20.615432-07:00,1197.4,708.5,1070.3,1010.8,872.1,825.2,1864.5,1372.1,3478.3,3467.4,1135.7,859.5,1494.9,3488.0,1367.6,1272.1,3486.8,3480.7,922.8,1335.0,1577.7,2100.7,1296.3,3331.3,3479.5,3483.2,671.7,970.5,1660.6,1053.0,956.0,911.8,1.0,-11.0,15.0,10460.0,-12192.0,2742.0,-1688.0,1.0,-13.0,-4.0,5.0,-9.0,13.0,7847.0,-13761.0,3844.0,-1652.0,-3.0,-4.0,0.0,1.0
2022-05-03 17:05:20.616816-07:00,1197.4,708.5,1070.3,1010.8,873.8,821.0,1852.8,1366.6,3478.3,3467.4,1135.7,859.5,1493.0,3477.1,1370.3,1278.3,3477.1,3475.9,928.8,1333.2,1577.7,2100.7,1296.3,3331.3,3486.8,3478.3,665.2,974.8,1660.6,1053.0,956.0,911.8,3.0,-8.0,12.0,10463.0,-12190.0,2739.0,-1687.0,-6.0,-2.0,-6.0,6.0,-12.0,10.0,7845.0,-13762.0,3844.0,-1651.0,-20.0,7.0,5.0,1.0
2022-05-03 17:05:20.617762-07:00,1189.4,711.8,1079.9,1016.8,873.8,821.0,1852.8,1366.6,3474.6,3467.4,1138.4,859.5,1493.0,3477.1,1370.3,1278.3,3477.1,3475.9,928.8,1333.2,1577.7,2101.7,1291.8,3319.4,3486.8,3478.3,665.2,974.8,1669.1,1048.7,950.9,909.3,-1.0,-3.0,10.0,10466.0,-12188.0,2739.0,-1689.0,12.0,11.0,1.0,2.0,-5.0,12.0,7840.0,-13764.0,3845.0,-1651.0,-9.0,12.0,8.0,1.0
2022-05-03 17:05:20.675315-07:00,1188.5,711.8,1079.9,1016.8,878.0,818.5,1844.0,1358.5,3478.3,3467.4,1138.4,859.5,1489.3,3469.8,1372.1,1272.1,3475.9,3483.2,921.1,1334.1,1577.7,2101.7,1291.8,3330.1,3488.0,3485.6,668.4,975.6,1669.1,1048.7,950.9,905.9,0.0,-12.0,8.0,10469.0,-12186.0,2738.0,-1689.0,10.0,-5.0,-4.0,-1.0,-7.0,8.0,7836.0,-13766.0,3847.0,-1651.0,1.0,2.0,4.0,1.0
2022-05-03 17:05:20.676587-07:00,1188.5,710.1,1072.9,1009.0,878.0,818.5,1844.0,1361.2,3478.3,3474.6,1136.6,859.5,1489.3,3469.8,1372.1,1279.2,3489.2,3483.2,921.1,1334.1,1572.1,2098.7,1283.7,3330.1,3488.0,3485.6,668.4,975.6,1665.3,1057.3,954.3,905.9,5.0,-8.0,12.0,10472.0,-12184.0,2733.0,-1691.0,-2.0,-8.0,-12.0,4.0,-6.0,7.0,7834.0,-13767.0,3847.0,-1650.0,-14.0,5.0,-1.0,1.0
2022-05-03 17:05:20.735275-07:00,1194.7,710.1,1072.9,1009.0,878.0,818.5,1858.6,1361.2,3477.1,3474.6,1136.6,859.5,1493.0,3472.2,1367.6,1279.2,3489.2,3477.1,916.9,1334.1,1572.1,2098.7,1283.7,3342.0,3488.0,3480.7,670.1,966.2,1665.3,1057.3,954.3,910.1,0.0,-11.0,13.0,10474.0,-12182.0,2729.0,-1698.0,10.0,15.0,-11.0,3.0,-11.0,10.0,7833.0,-13768.0,3848.0,-1650.0,5.0,10.0,5.0,1.0
2022-05-03 17:05:20.795670-07:00,1194.7,710.1,1077.3,1025.4,878.0,818.5,1858.6,1360.3,3477.1,3475.9,1132.2,857.9,1493.0,3472.2,1367.6,1275.6,3475.9,3477.1,916.9,1334.1,1572.1,2092.6,1289.1,3342.0,3483.2,3480.7,670.1,966.2,1653.9,1051.3,952.6,910.1,9.0,-5.0,9.0,10477.0,-12178.0,2732.0,-1704.0,7.0,20.0,-8.0,3.0,-7.0,12.0,7832.0,-13768.0,3849.0,-1652.0,-5.0,11.0,6.0,1.0
2022-05-03 17:05:20.975533-07:00,1197.4,710.1,1077.3,1025.4,873.0,812.7,1851.8,1360.3,3480.7,3475.9,1132.2,857.9,1490.3,3467.4,1368.5,1275.6,3475.9,3481.9,918.6,1337.7,1572.1,2092.6,1289.1,3325.3,3483.2,3488.0,666.8,970.5,1653.9,1051.3,952.6,913.5,6.0,-6.0,0.0,10481.0,-12173.0,2733.0,-1714.0,26.0,7.0,-13.0,6.0,-14.0,13.0,7832.0,-13767.0,3850.0,-1654.0,10.0,11.0,2.0,1.0
2022-05-03 17:05:21.036056-07:00,1197.4,706.9,1080.8,1011.6,873.0,812.7,1853.7,1354.0,3480.7,3477.1,1131.4,858.7,1490.3,3467.4,1369.4,1259.6,3488.0,3480.7,918.6,1337.7,1572.1,2096.7,1281.0,3325.3,3474.6,3483.2,666.8,970.5,1671.9,1056.5,945.8,913.5,5.0,-14.0,2.0,10481.0,-12173.0,2727.0,-1717.0,-31.0,-8.0,-8.0,3.0,-9.0,4.0,7828.0,-13770.0,3850.0,-1653.0,-26.0,3.0,1.0,1.0
2022-05-03 17:05:21.096067-07:00,1185.0,716.7,1080.8,1011.6,873.8,821.9,1853.7,1354.0,3474.6,3478.3,1131.4,858.7,1493.0,3472.2,1369.4,1259.6,3488.0,3480.7,913.5,1332.3,1572.1,2096.7,1286.4,3309.8,3474.6,3483.2,669.3,969.6,1671.9,1056.5,955.1,901.7,5.0,-3.0,11.0,10477.0,-12177.0,2728.0,-1716.0,5.0,-8.0,4.0,2.0,-13.0,13.0,7824.0,-13772.0,3851.0,-1652.0,3.0,6.0,4.0,1.0
2022-05-03 17:05:21.275599-07:00,1185.0,716.7,1082.5,1009.0,873.8,821.9,1848.9,1349.4,3474.6,3478.3,1129.6,865.4,1493.0,3472.2,1367.6,1266.7,3480.7,3481.9,913.5,1332.3,1574.9,2093.7,1286.4,3309.8,3485.6,3483.2,669.3,969.6,1666.3,1061.7,955.1,901.7,4.0,-14.0,7.0,10475.0,-12179.0,2723.0,-1719.0,-32.0,8.0,-18.0,2.0,-9.0,12.0,7815.0,-13777.0,3852.0,-1649.0,-35.0,2.0,3.0,1.0
2022-05-03 17:05:21.305968-07:00,1189.4,711.8,1082.5,1009.0,882.3,814.4,1848.9,1349.4,3469.8,3477.1,1129.6,865.4,1494.9,3477.1,1367.6,1266.7,3480.7,3481.9,918.6,1339.5,1574.9,2093.7,1281.9,3337.3,3485.6,3483.2,670.1,968.8,1666.3,1061.7,956.8,912.7,0.0,0.0,5.0,10469.0,-12181.0,2735.0,-1725.0,-11.0,32.0,26.0,6.0,-11.0,19.0,7811.0,-13779.0,3853.0,-1650.0,2.0,15.0,4.0,1.0
2022-05-03 17:05:21.307160-07:00,1189.4,711.8,1078.2,1010.8,882.3,814.4,1844.0,1344.0,3469.8,3477.1,1133.1,862.1,1494.9,3477.1,1375.7,1289.1,3479.5,3488.0,918.6,1339.5,1578.6,2097.7,1281.9,3337.3,3478.3,3488.0,670.1,968.8,1671.0,1052.2,956.8,912.7,-1.0,-11.0,5.0,10453.0,-12193.0,2744.0,-1724.0,-57.0,5.0,-4.0,0.0,-11.0,12.0,7797.0,-13786.0,3856.0,-1649.0,-38.0,9.0,1.0,1.0
2022-05-03 17:05:21.309118-07:00,1186.7,712.6,1078.2,1010.8,871.3,816.0,1844.0,1344.0,3473.4,3472.2,1133.1,862.1,1494.9,3480.7,1375.7,1289.1,3479.5,3488.0,919.4,1330.5,1578.6,2097.7,1281.9,3306.3,3478.3,3488.0,672.5,959.4,1671.0,1052.2,960.2,906.7,6.0,-8.0,10.0,10452.0,-12195.0,2739.0,-1724.0,17.0,0.0,-13.0,5.0,-3.0,8.0,7796.0,-13786.0,3857.0,-1650.0,3.0,-1.0,-4.0,1.0
2022-05-03 17:05:21.310462-07:00,1186.7,712.6,1072.9,1021.9,871.3,818.5,1825.5,1346.7,3473.4,3472.2,1130.5,857.9,1494.9,3481.9,1372.1,1275.6,3483.2,3477.1,918.6,1330.5,1578.6,2104.8,1281.9,3306.3,3485.6,3478.3,670.1,959.4,1662.5,1051.3,960.2,906.7,1.0,-13.0,12.0,10464.0,-12186.0,2735.0,-1725.0,30.0,-21.0,-7.0,8.0,-13.0,15.0,7800.0,-13784.0,3857.0,-1652.0,19.0,11.0,2.0,1.0
2022-05-03 17:05:21.335422-07:00,1192.0,710.1,1077.3,1015.1,878.0,813.5,1842.0,1350.3,3469.8,3475.9,1133.1,858.7,1488.4,3475.9,1371.2,1276.5,3478.3,3477.1,923.7,1331.4,1570.2,2102.7,1281.0,3333.7,3485.6,3481.9,668.4,960.2,1665.3,1055.6,950.9,902.5,4.0,-14.0,4.0,10463.0,-12182.0,2749.0,-1734.0,-52.0,57.0,35.0,5.0,-12.0,12.0,7793.0,-13785.0,3864.0,-1654.0,-34.0,16.0,12.0,1.0
2022-05-03 17:05:21.365414-07:00,1192.0,710.1,1077.3,1012.5,878.0,814.4,1835.2,1354.9,3469.8,3475.9,1133.1,860.4,1488.4,3474.6,1372.1,1275.6,3486.8,3488.0,921.1,1331.4,1575.8,2102.7,1281.0,3333.7,3488.0,3488.0,666.0,960.2,1662.5,1055.6,950.9,902.5,6.0,0.0,15.0,10447.0,-12188.0,2777.0,-1738.0,-14.0,56.0,22.0,3.0,-9.0,9.0,7785.0,-13788.0,3872.0,-1652.0,-2.0,5.0,9.0,1.0
2022-05-03 17:05:21.395492-07:00,1192.0,706.9,1077.3,1015.1,884.8,814.4,1835.2,1354.9,3479.5,3475.9,1129.6,857.9,1494.0,3474.6,1372.1,1275.6,3486.8,3488.0,921.1,1331.4,1574.9,2101.7,1284.6,3346.8,3488.0,3488.0,666.0,957.7,1671.9,1055.6,960.2,912.7,2.0,-8.0,6.0,10452.0,-12180.0,2785.0,-1753.0,40.0,16.0,-16.0,2.0,-15.0,15.0,7787.0,-13787.0,3872.0,-1652.0,12.0,6.0,10.0,1.0
2022-05-03 17:05:21.485372-07:00,1192.0,706.9,1077.3,1015.1,880.6,816.9,1838.2,1340.4,3479.5,3475.9,1129.6,857.9,1493.0,3475.9,1369.4,1274.7,3479.5,3492.9,922.8,1333.2,1574.9,2101.7,1284.6,3346.8,3474.6,3475.9,667.6,957.7,1671.9,1055.6,960.2,912.7,6.0,-14.0,11.0,10457.0,-12176.0,2784.0,-1758.0,7.0,19.0,3.0,1.0,-7.0,2.0,7788.0,-13786.0,3874.0,-1651.0,7.0,-8.0,5.0,1.0
2022-05-03 17:05:21.515421-07:00,1186.7,709.3,1069.5,1007.3,880.6,816.9,1838.2,1340.4,3478.3,3483.2,1124.4,862.1,1493.0,3475.9,1369.4,1274.7,3479.5,3492.9,922.8,1333.2,1577.7,2094.7,1280.1,3336.1,3474.6,3475.9,667.6,957.7,1669.1,1059.9,954.3,910.1,-4.0,-5.0,12.0,10460.0,-12168.0,2797.0,-1770.0,1.0,52.0,14.0,9.0,-3.0,17.0,7795.0,-13782.0,3873.0,-1653.0,-31.0,0.0,5.0,1.0
2022-05-03 17:05:21.545464-07:00,1186.7,709.3,1069.5,1007.3,876.4,820.2,1835.2,1331.4,3478.3,3483.2,1124.4,862.1,1494.0,3481.9,1372.1,1275.6,3481.9,3490.5,922.8,1339.5,1577.7,2094.7,1280.1,3336.1,3484.4,3484.4,672.5,953.4,1669.1,1059.9,954.3,910.1,7.0,-4.0,12.0,10451.0,-12176.0,2804.0,-1764.0,-40.0,-17.0,13.0,2.0,-2.0,9.0,7788.0,-13785.0,3875.0,-1651.0,-21.0,4.0,9.0,1.0
2022-05-03 17:05:21.605731-07:00,1183.2,708.5,1072.9,1003.9,876.4,820.2,1835.2,1331.4,3474.6,3471.0,1129.6,858.7,1494.0,3481.9,1372.1,1275.6,3481.9,3490.5,922.8,1339.5,1571.1,2103.7,1282.8,3336.1,3484.4,3484.4,672.5,953.4,1657.7,1055.6,958.5,901.7,3.0,-1.0,5.0,10448.0,-12176.0,2811.0,-1765.0,19.0,1.0,-7.0,6.0,-13.0,15.0,7789.0,-13785.0,3875.0,-1652.0,9.0,3.0,3.0,1.0
2022-05-03 17:05:21.665937-07:00,1186.7,708.5,1072.9,1003.9,877.2,816.9,1842.0,1335.0,3475.9,3471.0,1129.6,858.7,1492.1,3474.6,1362.1,1273.9,3484.4,3479.5,914.4,1335.9,1571.1,2103.7,1282.8,3336.1,3488.0,3488.0,670.1,950.9,1657.7,1055.6,958.5,906.7,12.0,-19.0,12.0,10447.0,-12180.0,2798.0,-1764.0,-31.0,-18.0,-16.0,-2.0,-7.0,3.0,7791.0,-13784.0,3874.0,-1653.0,-16.0,-2.0,-7.0,1.0
2022-05-03 17:05:21.695508-07:00,1186.7,715.1,1084.2,1013.3,877.2,816.9,1842.0,1339.5,3475.9,3474.6,1130.5,853.7,1492.1,3474.6,1362.1,1275.6,3472.2,3479.5,914.4,1335.9,1573.0,2098.7,1280.1,3336.1,3488.0,3488.0,670.1,950.9,1659.6,1050.4,956.8,906.7,7.0,-4.0,15.0,10450.0,-12178.0,2795.0,-1763.0,30.0,-13.0,-3.0,5.0,-7.0,15.0,7797.0,-13781.0,3872.0,-1656.0,24.0,0.0,2.0,1.0
2022-05-03 17:05:21.756086-07:00,1187.6,715.1,1084.2,1013.3,881.4,807.7,1827.5,1339.5,3475.9,3474.6,1130.5,853.7,1488.4,3477.1,1367.6,1275.6,3472.2,3477.1,910.1,1330.5,1573.0,2098.7,1280.1,3330.1,3488.0,3477.1,666.0,952.6,1659.6,1050.4,956.8,908.4,3.0,-17.0,16.0,10452.0,-12176.0,2793.0,-1765.0,-34.0,15.0,-8.0,4.0,-9.0,11.0,7799.0,-13779.0,3872.0,-1658.0,-31.0,11.0,4.0,1.0
2022-05-03 17:05:21.815935-07:00,1187.6,706.9,1080.8,1021.9,881.4,807.7,1827.5,1331.4,3475.9,3475.9,1131.4,862.1,1488.4,3477.1,1367.6,1272.1,3477.1,3477.1,910.1,1330.5,1580.5,2098.7,1278.3,3330.1,3483.2,3477.1,666.0,952.6,1666.3,1055.6,957.7,908.4,5.0,-5.0,8.0,10445.0,-12181.0,2798.0,-1769.0,14.0,16.0,-2.0,5.0,-9.0,13.0,7800.0,-13778.0,3875.0,-1659.0,10.0,10.0,10.0,1.0
2022-05-03 17:05:21.935524-07:00,1181.5,706.9,1080.8,1021.9,881.4,816.0,1813.9,1331.4,3477.1,3475.9,1131.4,862.1,1489.3,3474.6,1377.5,1272.1,3477.1,3489.2,917.7,1331.4,1580.5,2098.7,1278.3,3313.4,3483.2,3488.0,673.3,953.4,1666.3,1055.6,957.7,906.7,8.0,-3.0,3.0,10452.0,-12175.0,2794.0,-1776.0,17.0,1.0,-20.0,4.0,-7.0,7.0,7802.0,-13776.0,3876.0,-1661.0,-16.0,11.0,11.0,1.0
2022-05-03 17:05:21.996289-07:00,1181.5,705.2,1080.8,1009.0,881.4,816.0,1813.9,1325.0,3477.1,3477.1,1130.5,863.7,1489.3,3474.6,1377.5,1270.3,3478.3,3489.2,917.7,1331.4,1573.0,2095.7,1275.6,3313.4,3485.6,3488.0,673.3,953.4,1636.0,1062.5,953.4,906.7,5.0,-9.0,11.0,10452.0,-12175.0,2792.0,-1778.0,11.0,2.0,-2.0,3.0,-9.0,7.0,7798.0,-13778.0,3876.0,-1661.0,7.0,2.0,4.0,1.0
2022-05-03 17:05:21.997264-07:00,1181.5,712.6,1080.8,1009.0,877.2,819.4,1826.5,1325.0,3474.6,3480.7,1130.5,863.7,1498.6,3469.8,1373.9,1270.3,3478.3,3485.6,915.2,1332.3,1573.0,2095.7,1266.7,3296.7,3485.6,3485.6,672.5,949.2,1636.0,1062.5,950.9,904.2,4.0,-11.0,7.0,10456.0,-12172.0,2788.0,-1780.0,-1.0,-15.0,-14.0,2.0,-9.0,10.0,7801.0,-13777.0,3875.0,-1662.0,1.0,-4.0,-5.0,1.0
2022-05-03 17:05:22.145511-07:00,1181.5,712.6,1082.5,1009.9,877.2,819.4,1808.1,1317.8,3474.6,3480.7,1125.2,857.9,1498.6,3469.8,1368.5,1266.7,3479.5,3475.9,915.2,1332.3,1570.2,2090.6,1266.7,3296.7,3477.1,3479.5,672.5,949.2,1672.9,1058.2,950.9,904.2,8.0,-10.0,20.0,10453.0,-12176.0,2785.0,-1778.0,6.0,6.0,-3.0,5.0,-12.0,15.0,7802.0,-13777.0,3874.0,-1663.0,-6.0,-3.0,8.0,1.0
2022-05-03 17:05:22.147351-07:00,1185.0,708.5,1082.5,1009.9,877.2,821.9,1808.1,1317.8,3475.9,3473.4,1125.2,857.9,1488.4,3472.2,1368.5,1266.7,3479.5,3475.9,916.0,1332.3,1570.2,2090.6,1273.0,3312.2,3477.1,3479.5,675.0,945.8,1672.9,1058.2,956.8,900.8,0.0,-9.0,9.0,10461.0,-12168.0,2783.0,-1787.0,15.0,19.0,-20.0,2.0,-9.0,10.0,7809.0,-13772.0,3874.0,-1665.0,-13.0,8.0,13.0,1.0
2022-05-03 17:05:22.148314-07:00,1185.0,708.5,1081.6,1009.0,877.2,821.9,1801.3,1312.4,3475.9,3473.4,1126.1,857.0,1488.4,3472.2,1371.2,1271.2,3479.5,3492.9,916.0,1332.3,1569.3,2091.6,1273.0,3312.2,3483.2,3483.2,675.0,945.8,1672.9,1058.2,956.8,900.8,7.0,-13.0,12.0,10455.0,-12171.0,2786.0,-1794.0,-3.0,14.0,-2.0,3.0,-12.0,12.0,7805.0,-13773.0,3880.0,-1663.0,3.0,5.0,14.0,1.0
2022-05-03 17:05:22.150202-07:00,1186.7,708.5,1081.6,1009.0,880.6,816.0,1801.3,1312.4,3477.1,3481.9,1126.1,857.0,1492.1,3483.2,1371.2,1271.2,3479.5,3492.9,919.4,1335.0,1569.3,2091.6,1276.5,3299.1,3483.2,3483.2,681.5,954.3,1672.9,1058.2,953.4,901.7,-2.0,-5.0,0.0,10465.0,-12162.0,2788.0,-1802.0,29.0,10.0,-9.0,5.0,-12.0,14.0,7812.0,-13769.0,3880.0,-1665.0,-3.0,-2.0,6.0,1.0
2022-05-03 17:05:22.265911-07:00,1186.7,708.5,1079.9,1018.5,880.6,821.9,1794.5,1313.3,3477.1,3481.9,1131.4,858.7,1492.1,3488.0,1375.7,1273.9,3481.9,3488.0,916.9,1335.0,1568.3,2097.7,1276.5,3299.1,3485.6,3478.3,679.9,954.3,1668.2,1062.5,953.4,901.7,5.0,-11.0,10.0,10468.0,-12162.0,2777.0,-1798.0,-3.0,-37.0,-17.0,2.0,-6.0,9.0,7813.0,-13769.0,3879.0,-1666.0,-14.0,-6.0,-6.0,1.0
2022-05-03 17:05:22.295496-07:00,1182.3,710.1,1078.2,1018.5,882.3,821.9,1794.5,1313.3,3467.4,3474.6,1128.7,858.7,1491.2,3488.0,1375.7,1273.9,3481.9,3488.0,916.9,1328.7,1568.3,2095.7,1276.5,3293.2,3485.6,3478.3,679.9,945.8,1668.2,1061.7,957.7,902.5,-2.0,0.0,4.0,10474.0,-12162.0,2760.0,-1787.0,13.0,-57.0,0.0,4.0,-1.0,20.0,7814.0,-13768.0,3878.0,-1667.0,-30.0,9.0,-5.0,1.0
2022-05-03 17:05:22.415433-07:00,1182.3,710.1,1078.2,1009.0,882.3,817.7,1797.4,1314.2,3467.4,3474.6,1128.7,858.7,1491.2,3472.2,1373.9,1273.9,3481.9,3478.3,911.8,1328.7,1569.3,2095.7,1276.5,3293.2,3488.0,3467.4,679.1,945.8,1666.3,1061.7,957.7,902.5,2.0,0.0,-75.0,10465.0,-12188.0,2739.0,-1696.0,-176.0,-311.0,170.0,12.0,-2.0,20.0,7770.0,-13789.0,3886.0,-1680.0,-196.0,98.0,-37.0,1.0
2022-05-03 17:05:22.416768-07:00,1185.0,712.6,1086.8,1009.0,883.9,817.7,1797.4,1314.2,3481.9,3473.4,1140.1,858.7,1488.4,3472.2,1373.9,1273.9,3481.9,3478.3,911.8,1316.9,1569.3,2073.5,1268.5,3286.1,3488.0,3467.4,679.1,955.1,1666.3,1057.3,961.1,901.7,65.0,60.0,-85.0,10446.0,-12272.0,2606.0,-1382.0,-172.0,-1169.0,91.0,2.0,-12.0,-30.0,7741.0,-13789.0,3906.0,-1763.0,51.0,169.0,-23.0,1.0
2022-05-03 17:05:22.417728-07:00,1185.0,712.6,1086.8,1016.8,883.9,850.3,1791.6,1285.5,3481.9,3473.4,1140.1,864.6,1488.4,3472.2,1364.8,1282.8,3485.6,3486.8,911.8,1316.9,1562.7,2073.5,1268.5,3286.1,3492.9,3489.2,669.3,955.1,1666.3,1057.3,961.1,901.7,-4.0,-60.0,93.0,10418.0,-12410.0,2210.0,-1007.0,-273.0,-1076.0,-262.0,-5.0,-20.0,-2.0,7680.0,-13825.0,3890.0,-1785.0,-81.0,17.0,-118.0,1.0
2022-05-03 17:05:22.535382-07:00,1189.4,725.8,1092.9,1016.8,874.7,850.3,1791.6,1285.5,3472.2,3480.7,1132.2,864.6,1491.2,3472.2,1364.8,1282.8,3485.6,3486.8,911.8,1318.7,1562.7,2087.6,1290.0,3314.6,3492.9,3489.2,669.3,1157.7,1666.3,1059.1,959.4,917.7,8.0,-12.0,66.0,10512.0,-12409.0,1820.0,-795.0,242.0,-832.0,-355.0,-4.0,-13.0,-13.0,7766.0,-13784.0,3843.0,-1830.0,279.0,-12.0,-83.0,1.0
2022-05-03 17:05:22.536643-07:00,1189.4,725.8,1092.9,1016.8,878.9,873.0,1771.4,1235.5,3472.2,3480.7,1132.2,860.4,1493.0,3475.9,1364.8,1268.5,3474.6,3481.9,910.1,1325.9,1567.4,2087.6,1290.0,3314.6,3480.7,3485.6,667.6,1170.9,1674.8,1059.1,959.4,917.7,6.0,-64.0,100.0,10572.0,-12396.0,1589.0,-700.0,14.0,-301.0,-114.0,-1.0,-17.0,13.0,7802.0,-13774.0,3805.0,-1838.0,26.0,-45.0,-46.0,1.0
2022-05-03 17:05:22.596156-07:00,1190.3,726.6,1094.7,1017.6,878.9,873.0,1771.4,1235.5,3488.0,3488.0,1148.9,860.4,1493.0,3475.9,1364.8,1268.5,3474.6,3481.9,910.1,1325.9,1565.5,2072.5,1281.0,3286.1,3480.7,3485.6,667.6,1170.9,1659.6,1055.6,956.8,916.9,2.0,-2.0,67.0,10598.0,-12372.0,1604.0,-699.0,34.0,196.0,90.0,9.0,-14.0,58.0,7802.0,-13776.0,3802.0,-1828.0,-32.0,5.0,29.0,1.0
2022-05-03 17:05:22.597577-07:00,1190.3,726.6,1094.7,1017.6,879.7,864.6,1747.3,1203.5,3488.0,3488.0,1148.9,860.4,1497.7,3472.2,1370.3,1273.0,3477.1,3486.8,903.4,1306.1,1565.5,2072.5,1281.0,3286.1,3485.6,3489.2,662.7,1145.4,1659.6,1055.6,956.8,916.9,-9.0,-50.0,5.0,10597.0,-12361.0,1681.0,-731.0,-66.0,118.0,98.0,-2.0,-19.0,11.0,7773.0,-13781.0,3839.0,-1833.0,-135.0,89.0,74.0,1.0
2022-05-03 17:05:22.655465-07:00,1177.9,729.9,1091.2,1013.3,879.7,864.6,1747.3,1203.5,3483.2,3478.3,1129.6,857.0,1497.7,3472.2,1370.3,1273.0,3477.1,3486.8,903.4,1306.1,1563.7,2078.5,1274.7,3286.1,3485.6,3489.2,662.7,1145.4,1656.8,1058.2,956.0,922.8,-2.0,12.0,-28.0,10596.0,-12351.0,1754.0,-728.0,68.0,93.0,154.0,0.0,11.0,0.0,7760.0,-13776.0,3883.0,-1835.0,8.0,41.0,61.0,1.0
2022-05-03 17:05:22.715417-07:00,1177.9,729.9,1091.2,1013.3,879.7,860.4,1731.1,1186.7,3483.2,3478.3,1129.6,857.0,1490.3,3490.5,1364.8,1272.1,3483.2,3479.5,901.7,1316.0,1563.7,2078.5,1274.7,3286.1,3483.2,3479.5,667.6,1133.1,1656.8,1058.2,956.0,922.8,8.0,-5.0,23.0,10600.0,-12343.0,1800.0,-695.0,-45.0,2.0,95.0,2.0,-4.0,-23.0,7754.0,-13774.0,3903.0,-1830.0,-15.0,-16.0,36.0,1.0
2022-05-03 17:05:22.745622-07:00,1182.3,732.3,1086.8,1012.5,879.7,860.4,1731.1,1182.3,3480.7,3480.7,1129.6,862.9,1490.3,3490.5,1364.8,1268.5,3480.7,3479.5,901.7,1316.0,1561.8,2067.5,1259.6,3268.3,3474.6,3479.5,667.6,1133.1,1665.3,1069.5,956.8,920.3,0.0,1.0,17.0,10620.0,-12322.0,1825.0,-697.0,118.0,42.0,10.0,1.0,-10.0,21.0,7788.0,-13757.0,3894.0,-1833.0,123.0,-10.0,-21.0,1.0
2022-05-03 17:05:22.986008-07:00,1177.9,732.3,1086.8,1012.5,878.0,858.7,1716.7,1182.3,3479.5,3480.7,1129.6,862.9,1496.7,3478.3,1363.0,1268.5,3480.7,3472.2,902.5,1314.2,1561.8,2067.5,1259.6,3260.0,3474.6,3479.5,666.8,1125.2,1665.3,1069.5,956.8,920.3,11.0,-16.0,10.0,10637.0,-12309.0,1814.0,-702.0,-30.0,-30.0,-15.0,6.0,-10.0,11.0,7803.0,-13749.0,3888.0,-1840.0,-36.0,-4.0,-2.0,1.0
2022-05-03 17:05:23.165974-07:00,1177.9,729.9,1090.3,1009.9,878.0,858.7,1716.7,1179.7,3479.5,3472.2,1126.1,857.0,1496.7,3478.3,1363.0,1271.2,3481.9,3472.2,902.5,1314.2,1563.7,2066.5,1258.7,3260.0,3479.5,3479.5,666.8,1125.2,1665.3,1053.0,955.1,920.3,10.0,-9.0,13.0,10643.0,-12303.0,1816.0,-705.0,43.0,33.0,17.0,8.0,-14.0,20.0,7799.0,-13752.0,3889.0,-1839.0,26.0,3.0,11.0,1.0
2022-05-03 17:05:23.167048-07:00,1183.2,729.9,1090.3,1009.9,879.7,860.4,1715.8,1179.7,3471.0,3472.2,1126.1,857.0,1490.3,3471.0,1362.1,1271.2,3481.9,3486.8,900.0,1310.6,1563.7,2066.5,1258.7,3264.7,3479.5,3478.3,670.1,1113.0,1665.3,1053.0,955.1,915.2,1.0,-13.0,15.0,10649.0,-12295.0,1830.0,-722.0,-15.0,44.0,1.0,2.0,-10.0,7.0,7807.0,-13746.0,3894.0,-1841.0,-16.0,15.0,11.0,1.0
2022-05-03 17:05:23.195708-07:00,1183.2,729.9,1090.3,1015.1,879.7,860.4,1715.8,1167.4,3471.0,3477.1,1126.1,848.6,1490.3,3471.0,1362.1,1266.7,3479.5,3486.8,900.0,1310.6,1556.2,2070.5,1252.4,3264.7,3473.4,3478.3,670.1,1113.0,1664.4,1055.6,957.7,915.2,2.0,-15.0,2.0,10646.0,-12295.0,1841.0,-734.0,3.0,18.0,13.0,0.0,-9.0,2.0,7806.0,-13744.0,3900.0,-1843.0,8.0,8.0,13.0,1.0
2022-05-03 17:05:23.197472-07:00,1174.4,729.9,1090.3,1015.1,874.7,855.3,1703.3,1167.4,3474.6,3477.1,1126.1,848.6,1493.0,3474.6,1364.8,1266.7,3479.5,3481.9,904.2,1308.8,1556.2,2070.5,1252.4,3255.3,3473.4,3481.9,670.1,1111.2,1664.4,1055.6,957.7,932.2,5.0,2.0,7.0,10651.0,-12289.0,1851.0,-744.0,11.0,36.0,-11.0,1.0,-3.0,5.0,7814.0,-13739.0,3902.0,-1844.0,7.0,2.0,3.0,1.0
2022-05-03 17:05:23.345406-07:00,1174.4,730.7,1088.6,1015.1,874.7,855.3,1710.0,1164.7,3474.6,3472.2,1126.1,854.5,1493.0,3474.6,1363.9,1266.7,3485.6,3481.9,904.2,1308.8,1553.4,2066.5,1254.2,3255.3,3484.4,3492.9,670.1,1111.2,1667.2,1052.2,956.8,932.2,4.0,-7.0,2.0,10649.0,-12290.0,1846.0,-769.0,-6.0,27.0,-58.0,3.0,-8.0,8.0,7815.0,-13738.0,3901.0,-1845.0,-10.0,-3.0,-4.0,1.0
2022-05-03 17:05:23.375391-07:00,1174.4,730.7,1088.6,1015.1,874.7,855.3,1710.0,1164.7,3474.6,3472.2,1126.1,854.5,1493.0,3474.6,1363.9,1266.7,3485.6,3481.9,904.2,1308.8,1553.4,2066.5,1254.2,3255.3,3484.4,3492.9,670.1,1111.2,1667.2,1052.2,956.8,932.2,4.0,-7.0,2.0,10649.0,-12290.0,1846.0,-769.0,-6.0,27.0,-58.0,3.0,-8.0,8.0,7815.0,-13738.0,3901.0,-1845.0,-10.0,-3.0,-4.0,1.0
2022-05-03 17:05:23.526144-07:00,1181.5,724.1,1086.8,1009.0,877.2,852.8,1715.8,1171.8,3457.6,3479.5,1121.7,852.8,1492.1,3467.4,1362.1,1268.5,3474.6,3483.2,904.2,1310.6,1556.2,2071.5,1248.8,3252.9,3488.0,3477.1,664.4,1103.4,1655.8,1051.3,956.8,912.7,3.0,9.0,2.0,10618.0,-12313.0,1848.0,-808.0,-26.0,-25.0,-18.0,7.0,-5.0,10.0,7782.0,-13756.0,3905.0,-1840.0,-43.0,9.0,-1.0,1.0
2022-05-03 17:05:23.527125-07:00,1181.5,729.0,1084.2,1009.0,880.6,848.6,1715.8,1171.8,3472.2,3472.2,1123.5,852.8,1485.6,3475.9,1362.1,1268.5,3474.6,3483.2,898.3,1307.0,1556.2,2069.5,1254.2,3269.5,3488.0,3477.1,665.2,1096.4,1655.8,1048.7,960.2,920.3,3.0,-21.0,22.0,10618.0,-12314.0,1843.0,-812.0,28.0,26.0,3.0,3.0,-15.0,8.0,7777.0,-13760.0,3905.0,-1839.0,35.0,0.0,6.0,1.0
2022-05-03 17:05:23.528369-07:00,1181.5,729.0,1084.2,1008.2,880.6,844.4,1707.2,1162.1,3472.2,3472.2,1123.5,857.9,1485.6,3469.8,1363.9,1282.8,3480.7,3478.3,899.1,1307.0,1552.5,2069.5,1254.2,3269.5,3485.6,3474.6,659.5,1096.4,1672.9,1048.7,960.2,920.3,6.0,-6.0,16.0,10620.0,-12312.0,1844.0,-827.0,-33.0,21.0,-30.0,7.0,-12.0,8.0,7783.0,-13756.0,3904.0,-1843.0,-36.0,14.0,8.0,1.0
2022-05-03 17:05:23.529580-07:00,1181.5,724.1,1081.6,1008.2,876.4,844.4,1707.2,1162.1,3474.6,3472.2,1119.1,857.9,1494.9,3469.8,1363.9,1282.8,3480.7,3478.3,899.1,1307.9,1552.5,2063.5,1242.6,3238.7,3485.6,3474.6,659.5,1087.7,1672.9,1050.4,955.1,911.8,0.0,-20.0,11.0,10611.0,-12317.0,1853.0,-837.0,-11.0,36.0,19.0,1.0,-17.0,9.0,7771.0,-13762.0,3906.0,-1842.0,-30.0,7.0,7.0,1.0
2022-05-03 17:05:23.615097-07:00,1181.5,724.1,1081.6,1015.1,876.4,844.4,1705.3,1159.4,3474.6,3472.2,1119.1,857.9,1494.9,3475.9,1360.3,1270.3,3483.2,3483.2,896.6,1307.9,1558.1,2063.5,1242.6,3238.7,3483.2,3485.6,664.4,1087.7,1665.3,1050.4,955.1,911.8,5.0,4.0,1.0,10610.0,-12316.0,1860.0,-842.0,-10.0,11.0,-12.0,2.0,0.0,5.0,7768.0,-13763.0,3911.0,-1839.0,-20.0,0.0,7.0,1.0
2022-05-03 17:05:23.646283-07:00,1177.9,722.5,1086.0,1006.5,873.0,845.3,1708.1,1153.3,3477.1,3479.5,1118.2,859.5,1489.3,3484.4,1360.3,1266.7,3479.5,3483.2,910.1,1292.7,1532.0,2033.4,1223.9,3196.4,3480.7,3467.4,662.7,1091.2,1665.3,1053.0,945.8,912.7,-3.0,5.0,-3.0,10625.0,-12287.0,1965.0,-832.0,73.0,116.0,138.0,0.0,-13.0,22.0,7769.0,-13762.0,3914.0,-1838.0,37.0,10.0,21.0,1.0
2022-05-03 17:05:23.705326-07:00,1177.9,722.5,1086.0,1006.5,878.9,841.1,1708.1,1161.2,3477.1,3479.5,1118.2,859.5,1492.1,3480.7,1361.2,1266.7,3478.3,3485.6,880.6,1288.2,1532.0,2033.4,1223.9,3196.4,3475.9,3488.0,664.4,1087.7,1665.3,1053.0,945.8,912.7,9.0,14.0,-1.0,10622.0,-12289.0,1975.0,-829.0,-95.0,-4.0,-49.0,-2.0,-8.0,5.0,7758.0,-13766.0,3922.0,-1834.0,-108.0,4.0,-1.0,1.0
2022-05-03 17:05:23.706446-07:00,1179.7,720.8,1081.6,1010.8,878.9,841.1,1708.1,1161.2,3474.6,3474.6,1107.8,857.9,1492.1,3480.7,1361.2,1266.7,3478.3,3485.6,880.6,1288.2,1531.0,2041.4,1223.9,3184.7,3475.9,3488.0,664.4,1087.7,1656.8,1044.4,950.0,906.7,0.0,-14.0,-4.0,10600.0,-12312.0,1944.0,-835.0,-47.0,-44.0,-64.0,2.0,-4.0,2.0,7738.0,-13778.0,3921.0,-1830.0,-12.0,-4.0,-14.0,1.0
2022-05-03 17:05:23.735358-07:00,1179.7,720.8,1081.6,1010.8,878.0,839.4,1703.3,1157.7,3474.6,3474.6,1107.8,857.9,1492.1,3480.7,1373.9,1271.2,3475.9,3488.0,880.6,1289.1,1531.0,2041.4,1223.9,3184.7,3485.6,3484.4,659.5,1066.9,1656.8,1044.4,950.0,906.7,4.0,-12.0,18.0,10583.0,-12332.0,1908.0,-835.0,-75.0,-39.0,-73.0,6.0,-15.0,11.0,7727.0,-13786.0,3916.0,-1828.0,-55.0,-7.0,-16.0,1.0
2022-05-03 17:05:23.795385-07:00,1179.7,721.6,1077.3,1008.2,878.0,839.4,1703.3,1157.7,3490.5,3478.3,1111.2,856.2,1492.1,3480.7,1373.9,1271.2,3475.9,3488.0,880.6,1289.1,1531.0,2045.4,1222.2,3195.2,3485.6,3484.4,659.5,1066.9,1669.1,1052.2,955.1,911.0,2.0,-20.0,20.0,10589.0,-12331.0,1885.0,-846.0,53.0,-7.0,-38.0,3.0,-7.0,8.0,7728.0,-13787.0,3912.0,-1829.0,35.0,0.0,-4.0,1.0
2022-05-03 17:05:23.915380-07:00,1182.3,721.6,1077.3,1008.2,878.0,833.6,1696.7,1153.3,3473.4,3478.3,1111.2,856.2,1495.8,3478.3,1360.3,1269.4,3477.1,3479.5,888.2,1289.1,1531.0,2045.4,1222.2,3197.6,3489.2,3477.1,659.5,1060.8,1669.1,1052.2,955.1,911.8,3.0,-9.0,6.0,10603.0,-12317.0,1895.0,-855.0,22.0,37.0,36.0,1.0,-15.0,15.0,7731.0,-13783.0,3915.0,-1831.0,12.0,16.0,21.0,1.0
2022-05-03 17:05:23.917231-07:00,1182.3,722.5,1086.0,1011.6,878.0,833.6,1696.7,1156.8,3473.4,3485.6,1115.6,863.7,1495.8,3478.3,1360.3,1271.2,3472.2,3479.5,888.2,1289.1,1532.0,2047.4,1218.6,3197.6,3481.9,3477.1,659.5,1060.8,1668.2,1051.3,954.3,911.8,3.0,0.0,2.0,10598.0,-12319.0,1902.0,-863.0,-30.0,28.0,-26.0,4.0,-6.0,1.0,7726.0,-13784.0,3925.0,-1832.0,-36.0,18.0,8.0,1.0
2022-05-03 17:05:23.945822-07:00,1177.0,722.5,1086.0,1011.6,878.0,838.6,1691.0,1156.8,3488.0,3485.6,1115.6,863.7,1493.0,3475.9,1364.8,1271.2,3472.2,3480.7,888.2,1290.0,1532.0,2047.4,1218.6,3183.5,3481.9,3478.3,661.9,1058.2,1668.2,1051.3,954.3,906.7,1.0,-15.0,0.0,10588.0,-12328.0,1900.0,-871.0,-39.0,1.0,-4.0,2.0,-10.0,3.0,7710.0,-13792.0,3929.0,-1832.0,-35.0,2.0,6.0,1.0
2022-05-03 17:05:24.006054-07:00,1177.0,724.9,1086.0,1008.2,878.0,838.6,1691.0,1156.8,3488.0,3472.2,1113.0,854.5,1493.0,3475.9,1364.8,1275.6,3477.1,3480.7,888.2,1290.0,1532.0,2040.4,1217.7,3183.5,3490.5,3478.3,661.9,1058.2,1649.2,1049.6,945.8,906.7,4.0,-12.0,10.0,10581.0,-12333.0,1903.0,-868.0,-23.0,-1.0,16.0,3.0,-15.0,9.0,7702.0,-13796.0,3930.0,-1829.0,-27.0,-2.0,1.0,1.0
2022-05-03 17:05:24.035287-07:00,1172.6,724.9,1086.0,1008.2,882.3,836.1,1695.7,1156.8,3477.1,3472.2,1113.0,854.5,1493.0,3467.4,1368.5,1275.6,3477.1,3475.9,885.6,1288.2,1532.0,2040.4,1217.7,3191.7,3490.5,3477.1,661.9,1068.6,1649.2,1049.6,945.8,903.4,8.0,-9.0,14.0,10587.0,-12327.0,1908.0,-866.0,30.0,15.0,17.0,5.0,-11.0,10.0,7701.0,-13796.0,3930.0,-1829.0,16.0,5.0,8.0,1.0
2022-05-03 17:05:24.125509-07:00,1172.6,725.8,1081.6,1015.1,882.3,836.1,1689.1,1155.9,3477.1,3475.9,1113.0,858.7,1493.0,3467.4,1359.4,1264.9,3480.7,3488.0,885.6,1288.2,1530.1,2032.4,1213.3,3191.7,3477.1,3485.6,661.9,1068.6,1669.1,1053.9,955.1,903.4,4.0,-8.0,4.0,10590.0,-12324.0,1911.0,-865.0,-13.0,2.0,7.0,1.0,-5.0,5.0,7699.0,-13797.0,3933.0,-1828.0,-21.0,5.0,10.0,1.0
2022-05-03 17:05:24.365377-07:00,1174.4,721.6,1081.6,1015.1,878.9,842.8,1689.1,1155.9,3483.2,3474.6,1113.0,858.7,1494.9,3479.5,1359.4,1264.9,3480.7,3488.0,887.3,1288.2,1530.1,2032.4,1216.0,3180.0,3477.1,3485.6,664.4,1052.2,1669.1,1053.9,953.4,914.4,4.0,-13.0,10.0,10598.0,-12317.0,1915.0,-868.0,44.0,20.0,13.0,3.0,-9.0,5.0,7703.0,-13794.0,3933.0,-1829.0,28.0,5.0,9.0,1.0
2022-05-03 17:05:24.366722-07:00,1174.4,721.6,1089.5,1007.3,878.9,842.8,1691.0,1145.4,3483.2,3474.6,1108.6,857.0,1494.9,3479.5,1370.3,1271.2,3488.0,3490.5,887.3,1288.2,1529.2,2039.4,1216.0,3180.0,3483.2,3488.0,664.4,1052.2,1660.6,1056.5,953.4,914.4,4.0,-4.0,8.0,10603.0,-12311.0,1924.0,-870.0,-5.0,11.0,14.0,7.0,-13.0,14.0,7706.0,-13793.0,3933.0,-1830.0,-9.0,2.0,7.0,1.0
2022-05-03 17:05:24.367627-07:00,1179.7,725.8,1089.5,1007.3,870.5,845.3,1691.0,1145.4,3485.6,3478.3,1108.6,857.0,1493.0,3481.9,1370.3,1271.2,3488.0,3490.5,879.7,1285.5,1529.2,2039.4,1206.2,3191.7,3483.2,3488.0,661.1,1053.9,1660.6,1056.5,953.4,909.3,3.0,-11.0,11.0,10605.0,-12309.0,1925.0,-870.0,10.0,8.0,1.0,3.0,-11.0,7.0,7706.0,-13793.0,3933.0,-1830.0,1.0,6.0,9.0,1.0
2022-05-03 17:05:24.426365-07:00,1179.7,725.8,1082.5,1008.2,870.5,845.3,1680.5,1149.8,3485.6,3478.3,1113.9,857.9,1493.0,3481.9,1361.2,1273.0,3485.6,3479.5,879.7,1285.5,1525.5,2029.4,1206.2,3191.7,3492.9,3480.7,661.1,1053.9,1661.5,1051.3,953.4,909.3,5.0,-3.0,0.0,10610.0,-12305.0,1923.0,-873.0,0.0,-4.0,-16.0,3.0,-6.0,7.0,7710.0,-13791.0,3932.0,-1831.0,0.0,6.0,1.0,1.0
2022-05-03 17:05:24.636024-07:00,1177.9,722.5,1082.5,1008.2,871.3,835.2,1680.5,1149.8,3480.7,3478.3,1113.9,857.9,1490.3,3478.3,1361.2,1273.0,3485.6,3479.5,885.6,1281.0,1525.5,2029.4,1212.4,3189.4,3492.9,3480.7,659.5,1049.6,1661.5,1051.3,952.6,909.3,3.0,-14.0,7.0,10595.0,-12318.0,1920.0,-873.0,-52.0,-4.0,-6.0,3.0,-13.0,11.0,7697.0,-13798.0,3934.0,-1827.0,-34.0,3.0,-3.0,1.0
2022-05-03 17:05:24.637113-07:00,1177.9,722.5,1077.3,1008.2,871.3,831.1,1693.8,1148.9,3480.7,3478.3,1112.1,855.3,1490.3,3483.2,1356.7,1263.1,3484.4,3483.2,881.4,1281.0,1528.3,2034.4,1212.4,3189.4,3488.0,3489.2,659.5,1049.6,1668.2,1053.9,952.6,909.3,3.0,-12.0,15.0,10586.0,-12326.0,1918.0,-873.0,-16.0,6.0,-9.0,4.0,-9.0,11.0,7689.0,-13802.0,3935.0,-1824.0,-11.0,5.0,5.0,1.0
2022-05-03 17:05:24.638056-07:00,1180.6,715.9,1079.0,1008.2,876.4,831.1,1693.8,1148.9,3472.2,3474.6,1112.1,855.3,1485.6,3483.2,1356.7,1263.1,3484.4,3483.2,881.4,1278.3,1528.3,2038.4,1213.3,3181.2,3488.0,3489.2,659.5,1049.6,1668.2,1048.7,953.4,911.8,0.0,-11.0,8.0,10586.0,-12326.0,1921.0,-875.0,-16.0,8.0,10.0,2.0,-11.0,13.0,7686.0,-13804.0,3937.0,-1823.0,-21.0,6.0,11.0,1.0
2022-05-03 17:05:24.639209-07:00,1180.6,715.9,1079.0,1004.8,876.4,836.9,1684.3,1146.3,3472.2,3474.6,1112.1,853.7,1485.6,3474.6,1359.4,1265.8,3479.5,3483.2,885.6,1278.3,1530.1,2038.4,1213.3,3181.2,3484.4,3479.5,660.3,1049.6,1665.3,1048.7,953.4,911.8,0.0,-14.0,11.0,10587.0,-12324.0,1929.0,-877.0,24.0,27.0,10.0,1.0,-14.0,12.0,7683.0,-13805.0,3940.0,-1820.0,11.0,7.0,12.0,1.0
2022-05-03 17:05:24.695794-07:00,1174.4,717.5,1078.2,1004.8,882.3,836.9,1684.3,1146.3,3477.1,3463.7,1112.1,853.7,1494.0,3474.6,1359.4,1265.8,3479.5,3483.2,885.6,1284.6,1530.1,2041.4,1205.3,3203.5,3484.4,3479.5,660.3,1048.7,1665.3,1053.9,946.6,906.7,5.0,-6.0,0.0,10598.0,-12314.0,1930.0,-882.0,17.0,8.0,-1.0,0.0,-5.0,10.0,7688.0,-13801.0,3940.0,-1822.0,5.0,8.0,2.0,1.0
2022-05-03 17:05:24.697458-07:00,1185.0,728.2,1079.0,1005.6,878.0,833.6,1694.8,1153.3,3480.7,3480.7,1111.2,865.4,1493.0,3467.4,1361.2,1271.2,3478.3,3478.3,883.1,1289.1,1534.8,2038.4,1200.9,3197.6,3484.4,3480.7,658.7,1045.2,1662.5,1056.5,954.3,908.4,3.0,-9.0,11.0,10595.0,-12317.0,1918.0,-893.0,25.0,-2.0,0.0,5.0,-11.0,12.0,7685.0,-13803.0,3942.0,-1822.0,31.0,5.0,7.0,1.0
2022-05-03 17:05:24.755434-07:00,1180.6,717.5,1075.6,1006.5,878.0,833.6,1694.8,1153.3,3488.0,3477.1,1110.4,865.4,1493.0,3467.4,1361.2,1271.2,3478.3,3478.3,883.1,1289.1,1522.7,2030.4,1208.9,3187.0,3484.4,3480.7,658.7,1045.2,1664.4,1049.6,952.6,908.4,6.0,-12.0,7.0,10600.0,-12314.0,1911.0,-893.0,-10.0,-16.0,-14.0,4.0,-11.0,8.0,7690.0,-13800.0,3941.0,-1824.0,-8.0,2.0,7.0,1.0
2022-05-03 17:05:24.785567-07:00,1180.6,717.5,1075.6,1006.5,874.7,835.2,1682.4,1146.3,3488.0,3477.1,1110.4,865.4,1489.3,3473.4,1362.1,1265.8,3485.6,3475.9,876.4,1288.2,1522.7,2030.4,1208.9,3187.0,3478.3,3480.7,659.5,1049.6,1664.4,1049.6,952.6,908.4,3.0,-13.0,7.0,10601.0,-12312.0,1914.0,-893.0,9.0,14.0,17.0,6.0,-13.0,11.0,7691.0,-13800.0,3941.0,-1824.0,15.0,7.0,7.0,1.0
2022-05-03 17:05:24.845545-07:00,1175.3,722.5,1081.6,1003.0,874.7,835.2,1682.4,1146.3,3473.4,3473.4,1113.9,854.5,1489.3,3473.4,1362.1,1265.8,3485.6,3475.9,876.4,1288.2,1524.5,2030.4,1204.4,3183.5,3478.3,3480.7,659.5,1049.6,1664.4,1051.3,960.2,908.4,5.0,-5.0,7.0,10598.0,-12315.0,1915.0,-892.0,-19.0,-3.0,-12.0,5.0,-11.0,13.0,7691.0,-13800.0,3941.0,-1824.0,-14.0,0.0,5.0,1.0
2022-05-03 17:05:24.935392-07:00,1178.8,722.5,1081.6,1003.0,871.3,834.4,1692.9,1146.3,3471.0,3473.4,1113.9,854.5,1489.3,3474.6,1368.5,1266.7,3480.7,3480.7,883.1,1289.1,1524.5,2030.4,1204.4,3183.5,3475.9,3475.9,660.3,1044.4,1664.4,1051.3,960.2,912.7,-3.0,-13.0,12.0,10603.0,-12309.0,1921.0,-901.0,45.0,25.0,11.0,2.0,-13.0,16.0,7692.0,-13799.0,3941.0,-1824.0,38.0,7.0,6.0,1.0
2022-05-03 17:05:24.937220-07:00,1178.8,735.6,1078.2,1009.0,871.3,834.4,1692.9,1147.1,3471.0,3467.4,1106.0,854.5,1489.3,3474.6,1368.5,1270.3,3478.3,3480.7,883.1,1289.1,1527.3,2033.4,1214.2,3183.5,3480.7,3475.9,660.3,1044.4,1665.3,1050.4,949.2,912.7,1.0,-5.0,6.0,10603.0,-12308.0,1925.0,-906.0,-24.0,15.0,2.0,2.0,-11.0,9.0,7696.0,-13796.0,3943.0,-1824.0,-24.0,3.0,12.0,1.0
2022-05-03 17:05:25.026265-07:00,1184.1,735.6,1078.2,1009.0,877.2,836.9,1693.8,1147.1,3474.6,3467.4,1106.0,854.5,1489.3,3474.6,1368.5,1270.3,3478.3,3485.6,883.9,1289.1,1527.3,2033.4,1214.2,3187.0,3480.7,3475.9,658.7,1047.0,1665.3,1050.4,949.2,903.4,4.0,-16.0,8.0,10596.0,-12312.0,1936.0,-908.0,-3.0,22.0,23.0,5.0,-17.0,10.0,7690.0,-13799.0,3947.0,-1820.0,3.0,3.0,11.0,1.0
