Time,P0,P1,P2,P3,P4,P5,P6,P7,P8,P9,P10,P11,P12,P13,P14,P15,P16,P17,P18,P19,P20,P21,P22,P23,P24,P25,P26,P27,P28,P29,P30,P31,ECG,AX0,AY0,AZ0,QW0,QX0,QY0,QZ0,GX0,GY0,GZ0,AX1,AY1,AZ1,QW1,QX1,QY1,QZ1,GX1,GY1,GZ1
2022-05-03 17:18:06.585443-07:00,1887.9,588.3,1652.0,1704.3,1324.1,1316.0,1466.3,1771.4,3446.7,3445.5,1947.9,1451.6,1325.9,3447.9,1274.7,1609.6,3437.0,3443.1,830.2,1299.0,919.4,566.6,1464.4,1904.6,3446.7,3443.1,781.1,998.7,1259.6,1563.7,1398.5,1201.8,-3.0,-6.0,8.0,8969.0,11637.0,5234.0,5017.0,82.0,-25.0,41.0,3.0,-7.0,11.0,8218.0,6676.0,8736.0,8944.0,57.0,-1.0,-7.0,1.0
2022-05-03 17:18:06.915140-07:00,1887.9,588.3,1652.0,1705.3,1324.1,1308.8,1481.0,1765.6,3446.7,3445.5,1947.9,1454.3,1325.9,3437.0,1273.0,1604.0,3433.4,3439.5,829.4,1299.0,911.8,566.6,1464.4,1904.6,3441.9,3450.4,785.2,998.7,1264.0,1563.7,1398.5,1201.8,-4.0,8.0,16.0,8930.0,11677.0,5228.0,5002.0,133.0,-19.0,49.0,0.0,0.0,11.0,8203.0,6696.0,8764.0,8916.0,123.0,0.0,-14.0,1.0
2022-05-03 17:18:07.065233-07:00,1889.9,593.1,1654.9,1705.3,1324.1,1308.8,1481.0,1765.6,3451.6,3440.7,1952.9,1454.3,1328.7,3437.0,1273.0,1604.0,3433.4,3439.5,829.4,1303.4,911.8,569.0,1462.6,1905.6,3441.9,3450.4,785.2,1004.8,1264.0,1564.6,1381.2,1198.2,-6.0,0.0,11.0,8876.0,11724.0,5226.0,4990.0,219.0,-16.0,79.0,1.0,-2.0,13.0,8180.0,6725.0,8802.0,8878.0,188.0,4.0,-16.0,1.0
2022-05-03 17:18:07.066550-07:00,1889.9,593.1,1654.9,1699.5,1322.3,1310.6,1470.9,1763.7,3451.6,3440.7,1952.9,1455.2,1324.1,3454.0,1261.3,1604.9,3438.2,3441.9,828.5,1300.7,917.7,569.0,1462.6,1905.6,3446.7,3447.9,781.9,1003.0,1265.8,1564.6,1381.2,1198.2,0.0,23.0,8.0,8815.0,11774.0,5229.0,4976.0,77.0,13.0,18.0,0.0,5.0,2.0,8151.0,6754.0,8844.0,8841.0,110.0,24.0,-9.0,1.0
2022-05-03 17:18:07.067888-07:00,1887.9,585.1,1653.0,1709.1,1322.3,1310.6,1470.9,1763.7,3454.0,3446.7,1942.0,1452.5,1324.1,3454.0,1261.3,1604.9,3438.2,3441.9,828.5,1300.7,915.2,570.6,1467.2,1912.4,3446.7,3447.9,781.9,1003.0,1263.1,1555.3,1381.2,1197.4,-7.0,0.0,-7.0,8812.0,11770.0,5235.0,4984.0,-37.0,7.0,-9.0,-1.0,0.0,5.0,8142.0,6751.0,8853.0,8842.0,-26.0,11.0,4.0,1.0
2022-05-03 17:18:07.069443-07:00,1887.9,585.1,1653.0,1709.1,1333.2,1307.0,1464.4,1760.8,3454.0,3446.7,1942.0,1452.5,1324.1,3433.4,1273.9,1605.8,3441.9,3431.0,824.4,1310.6,915.2,570.6,1467.2,1912.4,3452.8,3438.2,779.4,999.6,1263.1,1555.3,1381.2,1197.4,0.0,7.0,5.0,8831.0,11758.0,5230.0,4985.0,-86.0,-10.0,-24.0,2.0,1.0,8.0,8153.0,6740.0,8839.0,8855.0,-79.0,-11.0,7.0,1.0
2022-05-03 17:18:07.095221-07:00,1886.9,589.9,1642.6,1704.3,1333.2,1307.0,1464.4,1760.8,3443.1,3446.7,1943.0,1450.6,1324.1,3433.4,1273.9,1605.8,3441.9,3431.0,824.4,1310.6,914.4,568.2,1462.6,1905.6,3452.8,3438.2,779.4,999.6,1261.3,1575.8,1380.3,1195.6,-7.0,1.0,16.0,8866.0,11731.0,5226.0,4991.0,-89.0,-10.0,-35.0,5.0,-7.0,16.0,8171.0,6721.0,8816.0,8876.0,-78.0,3.0,3.0,1.0
2022-05-03 17:18:07.095654-07:00,1886.9,589.9,1642.6,1704.3,1333.2,1307.0,1464.4,1760.8,3443.1,3446.7,1943.0,1450.6,1324.1,3433.4,1273.9,1605.8,3441.9,3431.0,824.4,1310.6,914.4,568.2,1462.6,1905.6,3452.8,3438.2,779.4,999.6,1261.3,1575.8,1380.3,1195.6,-7.0,1.0,16.0,8866.0,11731.0,5226.0,4991.0,-89.0,-10.0,-35.0,5.0,-7.0,16.0,8171.0,6721.0,8816.0,8876.0,-78.0,3.0,3.0,1.0
2022-05-03 17:18:07.096989-07:00,1886.9,589.9,1642.6,1704.3,1333.2,1307.0,1464.4,1760.8,3443.1,3446.7,1943.0,1450.6,1324.1,3433.4,1273.9,1605.8,3441.9,3431.0,824.4,1310.6,914.4,568.2,1462.6,1905.6,3452.8,3438.2,779.4,999.6,1261.3,1575.8,1380.3,1195.6,-7.0,1.0,16.0,8866.0,11731.0,5226.0,4991.0,-89.0,-10.0,-35.0,5.0,-7.0,16.0,8171.0,6721.0,8816.0,8876.0,-78.0,3.0,3.0,1.0
2022-05-03 17:18:07.245552-07:00,1888.9,580.2,1646.4,1702.4,1332.3,1311.5,1470.9,1758.9,3446.7,3445.5,1943.0,1447.9,1330.5,3444.3,1266.7,1603.0,3447.9,3444.3,825.2,1299.0,922.8,569.0,1457.1,1905.6,3451.6,3445.5,780.3,1003.0,1260.4,1560.9,1374.8,1198.2,-7.0,9.0,4.0,8889.0,11709.0,5226.0,5001.0,12.0,2.0,7.0,0.0,2.0,11.0,8178.0,6696.0,8800.0,8903.0,2.0,1.0,0.0,1.0
2022-05-03 17:18:07.247262-07:00,1875.2,580.2,1646.4,1702.4,1324.1,1301.6,1463.5,1758.9,3449.1,3445.5,1943.0,1447.9,1328.7,3440.7,1267.6,1603.0,3447.9,3443.1,828.5,1297.2,922.8,569.0,1457.1,1902.6,3451.6,3450.4,781.9,997.0,1260.4,1560.9,1374.8,1203.5,-6.0,0.0,12.0,8891.0,11708.0,5225.0,5002.0,-8.0,1.0,5.0,2.0,-4.0,13.0,8180.0,6695.0,8798.0,8905.0,-10.0,1.0,-2.0,1.0
2022-05-03 17:18:07.395162-07:00,1875.2,582.6,1641.6,1703.3,1324.1,1301.6,1464.4,1748.3,3449.1,3446.7,1944.0,1450.6,1328.7,3440.7,1269.4,1612.4,3449.1,3427.4,828.5,1297.2,914.4,565.8,1460.8,1902.6,3449.1,3449.1,781.9,997.0,1268.5,1557.1,1374.8,1203.5,-4.0,3.0,9.0,8890.0,11708.0,5224.0,5003.0,-3.0,0.0,9.0,2.0,-1.0,12.0,8180.0,6695.0,8797.0,8906.0,0.0,3.0,-2.0,1.0
2022-05-03 17:18:07.545089-07:00,1883.0,583.5,1641.6,1703.3,1326.8,1312.4,1464.4,1748.3,3446.7,3441.9,1944.0,1450.6,1332.3,3438.2,1269.4,1612.4,3449.1,3427.4,826.0,1301.6,914.4,565.8,1457.1,1902.6,3449.1,3449.1,776.9,997.9,1268.5,1557.1,1383.0,1196.5,-6.0,0.0,18.0,8883.0,11711.0,5228.0,5006.0,17.0,24.0,4.0,1.0,0.0,10.0,8179.0,6694.0,8798.0,8907.0,13.0,13.0,-2.0,1.0
2022-05-03 17:18:07.546280-07:00,1883.0,583.5,1642.6,1703.3,1326.8,1312.4,1464.4,1762.7,3446.7,3441.9,1946.9,1456.2,1332.3,3438.2,1268.5,1601.1,3433.4,3444.3,826.0,1301.6,916.0,568.2,1457.1,1902.6,3437.0,3450.4,776.9,997.9,1260.4,1559.0,1383.0,1196.5,-9.0,0.0,3.0,8877.0,11710.0,5231.0,5013.0,18.0,8.0,10.0,-1.0,-2.0,8.0,8174.0,6692.0,8803.0,8907.0,22.0,9.0,-2.0,1.0
2022-05-03 17:18:07.547544-07:00,1880.1,585.1,1642.6,1703.3,1319.6,1298.1,1464.4,1762.7,3444.3,3443.1,1946.9,1456.2,1329.6,3444.3,1268.5,1601.1,3433.4,3444.3,826.9,1304.3,916.0,568.2,1455.2,1904.6,3437.0,3450.4,781.1,997.0,1260.4,1559.0,1374.8,1193.8,-5.0,2.0,7.0,8874.0,11713.0,5232.0,5012.0,-13.0,-6.0,-1.0,1.0,0.0,7.0,8170.0,6695.0,8807.0,8905.0,2.0,9.0,1.0,1.0
2022-05-03 17:18:07.548746-07:00,1880.1,585.1,1643.5,1711.0,1319.6,1298.1,1459.8,1755.0,3444.3,3443.1,1934.1,1447.9,1329.6,3444.3,1264.9,1607.7,3433.4,3445.5,826.9,1304.3,916.0,564.2,1455.2,1904.6,3435.8,3449.1,781.1,997.0,1256.0,1562.7,1374.8,1193.8,-7.0,5.0,7.0,8875.0,11713.0,5231.0,5011.0,-6.0,-11.0,4.0,2.0,-1.0,12.0,8171.0,6694.0,8807.0,8905.0,-16.0,-7.0,-1.0,1.0
2022-05-03 17:18:07.695821-07:00,1872.3,585.1,1643.5,1711.0,1317.8,1302.5,1459.8,1755.0,3440.7,3439.5,1934.1,1447.9,1329.6,3444.3,1264.9,1607.7,3433.4,3445.5,824.4,1303.4,916.0,564.2,1460.8,1902.6,3435.8,3449.1,782.7,997.9,1256.0,1562.7,1375.7,1185.0,-4.0,-2.0,11.0,8880.0,11712.0,5227.0,5010.0,-7.0,-17.0,-1.0,2.0,-4.0,10.0,8174.0,6691.0,8803.0,8909.0,-8.0,-5.0,0.0,1.0
2022-05-03 17:18:07.696580-07:00,1872.3,585.1,1628.4,1694.8,1317.8,1302.5,1461.7,1741.6,3440.7,3439.5,1938.0,1449.7,1329.6,3440.7,1269.4,1598.3,3437.0,3449.1,831.9,1303.4,915.2,573.0,1460.8,1902.6,3443.1,3445.5,781.9,997.9,1256.0,1560.9,1375.7,1185.0,-4.0,2.0,17.0,8880.0,11712.0,5226.0,5009.0,-6.0,-3.0,-2.0,4.0,-5.0,15.0,8174.0,6690.0,8801.0,8910.0,-3.0,5.0,-2.0,1.0
2022-05-03 17:18:07.725070-07:00,1876.2,582.6,1636.0,1694.8,1318.7,1302.5,1461.7,1741.6,3438.2,3435.8,1937.1,1449.7,1328.7,3440.7,1269.4,1598.3,3437.0,3449.1,831.9,1303.4,915.2,572.2,1459.8,1900.7,3443.1,3445.5,781.9,994.5,1256.0,1557.1,1389.4,1196.5,-6.0,4.0,8.0,8879.0,11713.0,5227.0,5009.0,10.0,10.0,1.0,1.0,0.0,8.0,8173.0,6689.0,8802.0,8911.0,11.0,9.0,-2.0,1.0
2022-05-03 17:18:08.174705-07:00,1876.2,582.6,1636.0,1701.4,1318.7,1300.7,1462.6,1745.4,3438.2,3435.8,1937.1,1453.4,1328.7,3437.0,1266.7,1603.0,3445.5,3444.3,827.7,1303.4,916.0,572.2,1459.8,1900.7,3454.0,3434.6,781.1,994.5,1267.6,1557.1,1389.4,1196.5,-5.0,0.0,7.0,8877.0,11713.0,5229.0,5010.0,7.0,-3.0,-3.0,2.0,0.0,10.0,8171.0,6688.0,8804.0,8912.0,6.0,6.0,-4.0,1.0
2022-05-03 17:18:08.175894-07:00,1877.2,588.3,1635.0,1701.4,1317.8,1300.7,1462.6,1745.4,3443.1,3441.9,1938.0,1453.4,1325.9,3437.0,1266.7,1603.0,3445.5,3444.3,827.7,1303.4,916.0,570.6,1457.1,1894.8,3454.0,3434.6,781.1,997.0,1267.6,1559.0,1375.7,1192.0,-6.0,0.0,9.0,8879.0,11712.0,5228.0,5011.0,-15.0,1.0,3.0,1.0,-2.0,12.0,8172.0,6687.0,8803.0,8913.0,-8.0,-1.0,0.0,1.0
2022-05-03 17:18:08.177232-07:00,1877.2,588.3,1635.0,1694.8,1317.8,1299.0,1455.2,1752.1,3443.1,3441.9,1938.0,1454.3,1325.9,3440.7,1263.1,1604.9,3443.1,3443.1,826.0,1303.4,919.4,570.6,1457.1,1894.8,3444.3,3440.7,781.1,997.0,1259.6,1559.0,1375.7,1192.0,-5.0,5.0,12.0,8880.0,11712.0,5226.0,5009.0,9.0,-18.0,-2.0,3.0,-1.0,9.0,8172.0,6687.0,8803.0,8913.0,3.0,-1.0,-2.0,1.0
2022-05-03 17:18:08.178437-07:00,1882.0,579.4,1638.8,1703.3,1314.2,1299.0,1455.2,1752.1,3447.9,3438.2,1941.0,1447.9,1324.1,3440.7,1263.1,1604.9,3443.1,3443.1,826.0,1298.1,916.0,570.6,1456.2,1899.7,3444.3,3440.7,781.1,995.3,1262.2,1559.9,1380.3,1191.2,-6.0,0.0,14.0,8881.0,11712.0,5225.0,5009.0,-9.0,5.0,11.0,2.0,-2.0,13.0,8172.0,6687.0,8803.0,8913.0,-1.0,4.0,1.0,1.0
2022-05-03 17:18:08.180018-07:00,1882.0,579.4,1638.8,1703.3,1313.3,1317.8,1458.0,1753.1,3447.9,3438.2,1941.0,1447.9,1330.5,3443.1,1264.0,1605.8,3454.0,3444.3,832.7,1299.0,916.0,570.6,1456.2,1899.7,3445.5,3438.2,772.0,995.3,1262.2,1559.9,1380.3,1191.2,-5.0,4.0,12.0,8879.0,11714.0,5226.0,5007.0,14.0,-3.0,-5.0,1.0,-1.0,11.0,8172.0,6688.0,8803.0,8913.0,4.0,7.0,-3.0,1.0
2022-05-03 17:18:08.744755-07:00,1878.1,584.3,1636.0,1692.9,1311.5,1299.0,1458.0,1750.2,3445.5,3447.9,1932.1,1447.0,1328.7,3446.7,1267.6,1606.8,3444.3,3438.2,827.7,1300.7,918.6,566.6,1459.8,1904.6,3440.7,3445.5,778.6,995.3,1257.8,1559.9,1373.0,1189.4,-5.0,2.0,10.0,8877.0,11716.0,5226.0,5007.0,13.0,0.0,3.0,2.0,0.0,12.0,8169.0,6689.0,8806.0,8911.0,11.0,5.0,1.0,1.0
2022-05-03 17:18:08.805346-07:00,1873.2,579.4,1635.0,1699.5,1320.5,1298.1,1462.6,1753.1,3438.2,3444.3,1934.1,1446.0,1325.9,3446.7,1264.9,1602.1,3441.9,3449.1,826.0,1298.1,913.5,571.4,1455.2,1900.7,3445.5,3458.9,781.9,996.2,1256.9,1553.4,1374.8,1194.7,-4.0,2.0,10.0,8877.0,11716.0,5226.0,5007.0,-7.0,2.0,4.0,3.0,-3.0,12.0,8169.0,6689.0,8807.0,8911.0,-1.0,1.0,-1.0,1.0
2022-05-03 17:18:08.806427-07:00,1873.2,583.5,1638.8,1692.9,1320.5,1298.1,1462.6,1750.2,3438.2,3449.1,1935.1,1447.9,1325.9,3446.7,1264.9,1606.8,3443.1,3449.1,826.0,1298.1,919.4,572.2,1459.8,1900.7,3445.5,3458.9,781.9,996.2,1258.7,1559.0,1378.5,1194.7,-5.0,4.0,10.0,8877.0,11716.0,5226.0,5007.0,5.0,-1.0,-1.0,1.0,0.0,12.0,8169.0,6689.0,8807.0,8911.0,-2.0,4.0,-4.0,1.0
2022-05-03 17:18:08.807068-07:00,1877.2,585.9,1638.8,1692.9,1306.1,1296.3,1457.1,1750.2,3454.0,3449.1,1935.1,1447.9,1328.7,3447.9,1271.2,1606.8,3443.1,3449.1,826.9,1298.1,919.4,572.2,1457.1,1892.8,3445.5,3444.3,771.1,991.9,1258.7,1559.0,1374.8,1196.5,-9.0,2.0,13.0,8877.0,11715.0,5227.0,5007.0,-7.0,8.0,4.0,2.0,-4.0,17.0,8169.0,6689.0,8807.0,8911.0,1.0,7.0,1.0,1.0
2022-05-03 17:18:08.808228-07:00,1877.2,585.9,1634.1,1692.9,1306.1,1296.3,1458.9,1740.6,3454.0,3449.1,1940.0,1448.8,1328.7,3447.9,1267.6,1609.6,3449.1,3440.7,826.9,1298.1,911.0,570.6,1457.1,1892.8,3449.1,3449.1,771.1,991.9,1259.6,1563.7,1374.8,1196.5,-7.0,3.0,13.0,8871.0,11720.0,5227.0,5004.0,-4.0,0.0,6.0,1.0,-4.0,16.0,8163.0,6693.0,8813.0,8906.0,-3.0,0.0,1.0,1.0
2022-05-03 17:18:08.835239-07:00,1878.1,586.7,1625.6,1691.0,1313.3,1299.8,1459.8,1745.4,3440.7,3440.7,1924.3,1447.9,1322.3,3444.3,1260.4,1602.1,3441.9,3433.4,825.2,1299.0,917.7,571.4,1454.3,1888.9,3450.4,3443.1,777.8,993.6,1266.7,1549.7,1375.7,1194.7,-7.0,2.0,15.0,8871.0,11720.0,5227.0,5004.0,5.0,-1.0,3.0,2.0,-4.0,15.0,8163.0,6694.0,8814.0,8906.0,7.0,7.0,1.0,1.0
2022-05-03 17:18:08.836037-07:00,1878.1,586.7,1625.6,1691.0,1313.3,1299.8,1459.8,1745.4,3440.7,3440.7,1924.3,1447.9,1322.3,3444.3,1260.4,1602.1,3441.9,3433.4,825.2,1299.0,917.7,571.4,1454.3,1888.9,3450.4,3443.1,777.8,993.6,1266.7,1549.7,1375.7,1194.7,-7.0,2.0,15.0,8871.0,11720.0,5227.0,5004.0,5.0,-1.0,3.0,2.0,-4.0,15.0,8163.0,6694.0,8814.0,8906.0,7.0,7.0,1.0,1.0
2022-05-03 17:18:08.986217-07:00,1880.1,582.6,1623.7,1694.8,1314.2,1301.6,1458.9,1742.6,3441.9,3435.8,1932.1,1447.9,1326.8,3446.7,1264.0,1605.8,3444.3,3439.5,824.4,1303.4,911.0,569.0,1456.2,1901.6,3444.3,3445.5,779.4,993.6,1258.7,1559.9,1370.3,1194.7,-6.0,2.0,13.0,8871.0,11720.0,5227.0,5004.0,6.0,-7.0,2.0,0.0,-2.0,13.0,8161.0,6694.0,8816.0,8905.0,6.0,4.0,0.0,1.0
2022-05-03 17:18:08.987040-07:00,1876.2,586.7,1633.1,1691.0,1314.2,1301.6,1458.9,1742.6,3440.7,3438.2,1930.2,1444.2,1326.8,3446.7,1264.0,1605.8,3444.3,3439.5,824.4,1303.4,910.1,569.8,1454.3,1896.7,3444.3,3445.5,779.4,993.6,1263.1,1551.5,1375.7,1196.5,-6.0,1.0,14.0,8872.0,11721.0,5227.0,5003.0,-6.0,-5.0,6.0,2.0,-2.0,16.0,8161.0,6694.0,8816.0,8905.0,-7.0,-3.0,-1.0,1.0
2022-05-03 17:18:09.135539-07:00,1876.2,586.7,1633.1,1691.0,1309.7,1295.4,1452.5,1741.6,3440.7,3438.2,1930.2,1444.2,1324.1,3439.5,1264.0,1598.3,3441.9,3440.7,825.2,1297.2,910.1,569.8,1454.3,1896.7,3444.3,3438.2,792.7,991.9,1263.1,1551.5,1375.7,1196.5,-9.0,6.0,14.0,8872.0,11721.0,5227.0,5003.0,4.0,2.0,-1.0,1.0,-4.0,17.0,8161.0,6694.0,8816.0,8905.0,-7.0,1.0,-1.0,1.0
2022-05-03 17:18:09.286004-07:00,1880.1,583.5,1631.3,1691.0,1309.7,1295.4,1452.5,1741.6,3441.9,3441.9,1936.1,1447.0,1324.1,3439.5,1264.0,1598.3,3441.9,3440.7,825.2,1297.2,913.5,562.6,1454.3,1888.9,3444.3,3438.2,792.7,991.9,1260.4,1553.4,1374.8,1190.3,-7.0,4.0,16.0,8870.0,11722.0,5228.0,5002.0,8.0,10.0,4.0,0.0,-2.0,14.0,8159.0,6695.0,8819.0,8904.0,11.0,6.0,-4.0,1.0
2022-05-03 17:18:09.286839-07:00,1880.1,583.5,1631.3,1691.0,1317.8,1303.4,1454.3,1749.3,3441.9,3441.9,1936.1,1447.0,1332.3,3446.7,1267.6,1601.1,3445.5,3437.0,821.9,1296.3,913.5,562.6,1454.3,1888.9,3446.7,3438.2,773.6,992.7,1260.4,1553.4,1374.8,1190.3,-9.0,6.0,8.0,8869.0,11721.0,5229.0,5005.0,3.0,5.0,3.0,1.0,-2.0,13.0,8156.0,6694.0,8822.0,8904.0,6.0,6.0,-1.0,1.0
2022-05-03 17:18:09.314780-07:00,1871.3,581.8,1626.5,1696.7,1317.8,1303.4,1454.3,1749.3,3449.1,3443.1,1932.1,1455.2,1332.3,3446.7,1267.6,1601.1,3445.5,3437.0,821.9,1296.3,912.7,573.0,1452.5,1894.8,3446.7,3438.2,773.6,992.7,1259.6,1553.4,1377.5,1195.6,-5.0,0.0,13.0,8869.0,11721.0,5229.0,5005.0,-8.0,-2.0,0.0,0.0,-4.0,12.0,8156.0,6694.0,8822.0,8904.0,-5.0,0.0,0.0,1.0
2022-05-03 17:18:09.495013-07:00,1870.3,581.8,1626.5,1696.7,1312.4,1299.0,1455.2,1743.5,3446.7,3443.1,1932.1,1455.2,1327.8,3449.1,1260.4,1605.8,3441.9,3445.5,831.9,1293.6,912.7,573.0,1452.5,1900.7,3447.9,3440.7,780.3,993.6,1259.6,1553.4,1377.5,1198.2,-7.0,5.0,16.0,8869.0,11721.0,5229.0,5005.0,2.0,-7.0,2.0,3.0,-2.0,18.0,8157.0,6693.0,8821.0,8905.0,1.0,3.0,5.0,1.0
2022-05-03 17:18:09.496037-07:00,1870.3,585.9,1624.7,1690.0,1312.4,1299.0,1455.2,1734.9,3446.7,3443.1,1937.1,1446.0,1327.8,3449.1,1260.4,1592.7,3439.5,3445.5,831.9,1293.6,912.7,568.2,1455.2,1900.7,3450.4,3440.7,780.3,993.6,1256.0,1552.5,1373.9,1198.2,-7.0,5.0,14.0,8869.0,11721.0,5229.0,5005.0,-3.0,9.0,0.0,2.0,2.0,17.0,8157.0,6693.0,8821.0,8905.0,4.0,6.0,0.0,1.0
2022-05-03 17:18:09.615252-07:00,1877.2,585.1,1627.5,1695.7,1311.5,1299.8,1454.3,1741.6,3437.0,3449.1,1936.1,1447.9,1328.7,3438.2,1259.6,1609.6,3437.0,3440.7,827.7,1294.5,914.4,568.2,1463.5,1896.7,3443.1,3447.9,776.9,991.0,1255.1,1553.4,1371.2,1190.3,2.0,69.0,-22.0,8971.0,11612.0,5240.0,5066.0,-835.0,103.0,-231.0,4.0,14.0,-22.0,8166.0,6644.0,8823.0,8930.0,-271.0,21.0,-49.0,1.0
2022-05-03 17:18:09.618376-07:00,1892.8,585.1,1627.5,1695.7,1319.6,1317.8,1451.6,1741.6,3440.7,3449.1,1936.1,1447.9,1323.2,3438.2,1259.6,1609.6,3437.0,3443.1,826.0,1306.1,914.4,568.2,1463.5,1895.8,3443.1,3435.8,799.4,1000.5,1255.1,1553.4,1371.2,1195.6,-1.0,-66.0,-58.0,9258.0,11337.0,5225.0,5185.0,-924.0,123.0,-128.0,15.0,-32.0,15.0,8266.0,6546.0,8724.0,9009.0,-453.0,-71.0,-49.0,1.0
2022-05-03 17:18:09.619438-07:00,1892.8,594.7,1796.5,1713.8,1319.6,1317.8,1503.2,1795.5,3440.7,3447.9,1951.9,1449.7,1323.2,3438.2,1259.6,1602.1,3443.1,3439.5,826.0,1306.1,922.8,576.2,1460.8,1895.8,3449.1,3444.3,799.4,1000.5,1280.1,1556.2,1374.8,1195.6,-11.0,26.0,21.0,9413.0,11197.0,5154.0,5282.0,-309.0,-40.0,122.0,2.0,-4.0,29.0,8326.0,6507.0,8666.0,9037.0,-58.0,-38.0,-30.0,1.0
2022-05-03 17:18:09.620167-07:00,1907.5,588.3,1796.5,1713.8,1485.6,1350.3,1503.2,1795.5,3449.1,3443.1,1951.9,1449.7,1330.5,3441.9,1259.6,1602.1,3443.1,3439.5,831.9,1313.3,922.8,576.2,1470.0,1900.7,3449.1,3444.3,817.7,1003.9,1280.1,1556.2,1371.2,1303.4,-5.0,-24.0,0.0,9504.0,11148.0,5077.0,5298.0,-276.0,-125.0,-16.0,3.0,-16.0,0.0,8360.0,6492.0,8648.0,9034.0,-68.0,-44.0,-49.0,1.0
2022-05-03 17:18:09.620592-07:00,1907.5,588.3,1796.5,1713.8,1485.6,1350.3,1503.2,1795.5,3449.1,3443.1,1951.9,1449.7,1330.5,3441.9,1259.6,1602.1,3443.1,3439.5,831.9,1313.3,922.8,576.2,1470.0,1900.7,3449.1,3444.3,817.7,1003.9,1280.1,1556.2,1371.2,1303.4,-5.0,-24.0,0.0,9504.0,11148.0,5077.0,5298.0,-276.0,-125.0,-16.0,3.0,-16.0,0.0,8360.0,6492.0,8648.0,9034.0,-68.0,-44.0,-49.0,1.0
2022-05-03 17:18:09.765542-07:00,1923.3,593.9,1736.8,1698.6,1483.8,1373.9,1585.2,1710.0,3444.3,3437.0,1943.0,1455.2,1324.1,3437.0,1264.0,1607.7,3440.7,3433.4,833.6,1316.9,933.0,565.8,1467.2,1902.6,3446.7,3449.1,823.5,1007.3,1252.4,1550.6,1383.0,1335.0,-5.0,4.0,19.0,9667.0,11100.0,4917.0,5252.0,-176.0,-231.0,18.0,0.0,-1.0,13.0,8428.0,6496.0,8618.0,8997.0,-47.0,-66.0,-21.0,1.0
2022-05-03 17:18:09.766626-07:00,1923.3,593.9,1718.6,1693.8,1483.8,1373.9,1604.0,1647.3,3444.3,3437.0,1935.1,1448.8,1324.1,3437.0,1256.9,1604.9,3437.0,3440.7,833.6,1316.9,933.9,571.4,1467.2,1902.6,3445.5,3443.1,823.5,1007.3,1258.7,1554.3,1383.0,1335.0,-4.0,10.0,38.0,9731.0,11090.0,4867.0,5202.0,-56.0,-140.0,-97.0,7.0,-8.0,21.0,8458.0,6497.0,8595.0,8989.0,-14.0,-63.0,-43.0,1.0
2022-05-03 17:18:09.768089-07:00,1931.1,597.1,1718.6,1693.8,1475.5,1377.5,1604.0,1647.3,3440.7,3447.9,1935.1,1448.8,1324.1,3443.1,1256.9,1604.9,3437.0,3440.7,830.2,1322.3,933.9,571.4,1466.3,1899.7,3445.5,3443.1,814.4,1002.2,1258.7,1554.3,1372.1,1338.6,-10.0,-23.0,24.0,9762.0,11086.0,4870.0,5149.0,3.0,-77.0,-69.0,3.0,-9.0,23.0,8474.0,6498.0,8595.0,8973.0,18.0,-18.0,-31.0,1.0
2022-05-03 17:18:09.769413-07:00,1931.1,597.1,1709.1,1689.1,1475.5,1365.7,1611.5,1601.1,3440.7,3447.9,1929.2,1453.4,1324.1,3450.4,1250.6,1623.7,3449.1,3451.6,832.7,1322.3,930.5,571.4,1466.3,1899.7,3449.1,3446.7,817.7,1002.2,1260.4,1550.6,1372.1,1338.6,-11.0,2.0,20.0,9780.0,11086.0,4844.0,5141.0,-39.0,-51.0,64.0,0.0,-5.0,13.0,8476.0,6499.0,8594.0,8973.0,1.0,-5.0,11.0,1.0
2022-05-03 17:18:09.795217-07:00,1927.2,598.7,1691.0,1689.1,1462.6,1365.7,1611.5,1601.1,3447.9,3440.7,1930.2,1453.4,1329.6,3450.4,1250.6,1623.7,3449.1,3451.6,832.7,1318.7,930.5,570.6,1462.6,1904.6,3449.1,3446.7,817.7,1000.5,1260.4,1556.2,1363.9,1340.4,1.0,17.0,18.0,9786.0,11093.0,4810.0,5146.0,23.0,-51.0,47.0,-3.0,0.0,9.0,8473.0,6504.0,8594.0,8972.0,33.0,-3.0,3.0,1.0
2022-05-03 17:18:09.914669-07:00,1927.2,598.7,1691.0,1691.9,1462.6,1364.8,1597.4,1576.8,3447.9,3440.7,1930.2,1454.3,1329.6,3439.5,1240.8,1604.9,3443.1,3446.7,827.7,1318.7,933.9,570.6,1462.6,1904.6,3450.4,3441.9,814.4,1000.5,1265.8,1556.2,1363.9,1340.4,-10.0,-5.0,16.0,9779.0,11099.0,4813.0,5144.0,34.0,31.0,-9.0,5.0,-13.0,26.0,8469.0,6509.0,8598.0,8968.0,37.0,10.0,-5.0,1.0
2022-05-03 17:18:09.945639-07:00,1923.3,593.9,1686.2,1691.9,1453.4,1364.8,1597.4,1576.8,3433.4,3445.5,1924.3,1454.3,1322.3,3439.5,1240.8,1604.9,3443.1,3446.7,827.7,1316.0,933.9,569.8,1455.2,1901.6,3450.4,3441.9,814.4,999.6,1265.8,1552.5,1370.3,1322.3,-5.0,-7.0,11.0,9761.0,11112.0,4820.0,5142.0,88.0,-8.0,33.0,0.0,-8.0,16.0,8454.0,6518.0,8616.0,8958.0,107.0,14.0,-7.0,1.0
2022-05-03 17:18:09.946608-07:00,1923.3,593.9,1686.2,1686.2,1453.4,1360.3,1588.9,1573.9,3433.4,3445.5,1924.3,1451.6,1322.3,3449.1,1229.3,1596.4,3444.3,3434.6,824.4,1316.0,937.3,569.8,1455.2,1901.6,3443.1,3444.3,815.2,999.6,1264.0,1552.5,1370.3,1322.3,-1.0,9.0,5.0,9728.0,11140.0,4825.0,5140.0,46.0,14.0,11.0,2.0,3.0,8.0,8438.0,6533.0,8639.0,8940.0,47.0,10.0,5.0,1.0
2022-05-03 17:18:10.095211-07:00,1923.3,589.1,1672.9,1679.5,1447.0,1360.3,1588.9,1573.9,3452.8,3449.1,1931.1,1447.9,1330.5,3449.1,1229.3,1596.4,3444.3,3434.6,824.4,1316.9,928.8,571.4,1465.4,1897.7,3443.1,3444.3,815.2,993.6,1260.4,1552.5,1363.9,1333.2,-4.0,0.0,7.0,9731.0,11137.0,4825.0,5141.0,-27.0,-16.0,1.0,0.0,-1.0,11.0,8437.0,6532.0,8639.0,8941.0,-16.0,-7.0,2.0,1.0
2022-05-03 17:18:10.096283-07:00,1923.3,589.1,1672.9,1679.5,1447.9,1357.6,1588.0,1569.3,3452.8,3449.1,1931.1,1447.9,1326.8,3440.7,1235.5,1600.2,3438.2,3437.0,828.5,1316.9,928.8,571.4,1465.4,1897.7,3458.9,3454.0,811.0,998.7,1260.4,1552.5,1363.9,1333.2,-4.0,7.0,5.0,9741.0,11131.0,4818.0,5141.0,-33.0,-12.0,3.0,4.0,-5.0,15.0,8444.0,6528.0,8631.0,8946.0,-28.0,-12.0,2.0,1.0
2022-05-03 17:18:10.097196-07:00,1915.4,594.7,1660.6,1684.3,1447.9,1357.6,1588.0,1569.3,3445.5,3446.7,1920.3,1452.5,1326.8,3440.7,1235.5,1600.2,3438.2,3437.0,828.5,1316.9,940.7,569.8,1465.4,1895.8,3458.9,3454.0,811.0,998.7,1264.9,1547.8,1361.2,1329.6,-6.0,0.0,16.0,9753.0,11128.0,4810.0,5134.0,-3.0,-32.0,-4.0,0.0,-7.0,18.0,8452.0,6525.0,8621.0,8951.0,-11.0,-10.0,-2.0,1.0
2022-05-03 17:18:10.185463-07:00,1915.4,594.7,1660.6,1684.3,1444.2,1356.7,1575.8,1567.4,3445.5,3446.7,1920.3,1452.5,1328.7,3443.1,1230.2,1602.1,3443.1,3438.2,827.7,1322.3,940.7,569.8,1465.4,1895.8,3441.9,3450.4,810.2,999.6,1264.9,1547.8,1361.2,1329.6,-12.0,6.0,11.0,9753.0,11130.0,4811.0,5128.0,25.0,-8.0,-15.0,6.0,-6.0,21.0,8456.0,6523.0,8617.0,8951.0,14.0,3.0,-10.0,1.0
2022-05-03 17:18:10.245397-07:00,1913.4,593.9,1672.9,1683.3,1444.2,1356.7,1575.8,1567.4,3441.9,3443.1,1930.2,1458.0,1328.7,3443.1,1230.2,1602.1,3443.1,3438.2,827.7,1322.3,930.5,565.8,1462.6,1901.6,3441.9,3450.4,810.2,999.6,1260.4,1552.5,1354.9,1323.2,-7.0,-6.0,4.0,9749.0,11141.0,4811.0,5111.0,33.0,-54.0,-2.0,2.0,-3.0,12.0,8453.0,6527.0,8624.0,8944.0,37.0,7.0,-3.0,1.0
2022-05-03 17:18:10.246594-07:00,1913.4,593.9,1672.9,1683.3,1438.7,1356.7,1579.6,1559.9,3441.9,3443.1,1930.2,1458.0,1324.1,3445.5,1227.5,1599.3,3443.1,3434.6,829.4,1318.7,930.5,565.8,1462.6,1901.6,3451.6,3443.1,811.0,996.2,1260.4,1552.5,1354.9,1323.2,-8.0,12.0,13.0,9747.0,11149.0,4802.0,5106.0,-17.0,3.0,10.0,5.0,-2.0,18.0,8456.0,6527.0,8620.0,8945.0,-14.0,-6.0,5.0,1.0
2022-05-03 17:18:10.394953-07:00,1906.6,587.5,1667.2,1678.6,1438.7,1356.7,1579.6,1560.9,3441.9,3439.5,1927.2,1456.2,1324.1,3445.5,1227.5,1601.1,3441.9,3434.6,829.4,1318.7,932.2,566.6,1458.9,1899.7,3449.1,3443.1,811.0,996.2,1264.0,1547.8,1356.7,1320.5,-8.0,-1.0,12.0,9757.0,11142.0,4798.0,5106.0,5.0,-11.0,9.0,3.0,-4.0,14.0,8458.0,6525.0,8617.0,8948.0,-2.0,-5.0,5.0,1.0
2022-05-03 17:18:10.396494-07:00,1906.6,587.5,1667.2,1678.6,1436.9,1354.9,1570.2,1560.9,3440.7,3439.5,1927.2,1456.2,1326.8,3441.9,1229.3,1601.1,3441.9,3438.2,828.5,1316.9,932.2,566.6,1458.9,1898.7,3449.1,3446.7,811.0,999.6,1264.0,1547.8,1356.7,1316.9,-8.0,4.0,15.0,9757.0,11140.0,4794.0,5115.0,-3.0,26.0,17.0,6.0,-5.0,17.0,8457.0,6525.0,8614.0,8952.0,3.0,13.0,8.0,1.0
2022-05-03 17:18:10.398257-07:00,1906.6,589.1,1680.5,1671.0,1436.9,1354.9,1570.2,1553.4,3440.7,3447.9,1924.3,1456.2,1326.8,3441.9,1229.3,1590.8,3438.2,3438.2,828.5,1316.9,925.4,572.2,1458.9,1898.7,3446.7,3446.7,811.0,999.6,1258.7,1540.3,1359.4,1316.9,-9.0,6.0,8.0,9751.0,11142.0,4797.0,5119.0,28.0,7.0,10.0,1.0,-4.0,17.0,8450.0,6525.0,8621.0,8952.0,35.0,20.0,1.0,1.0
2022-05-03 17:18:10.485588-07:00,1916.4,589.1,1680.5,1671.0,1433.2,1353.1,1571.1,1553.4,3445.5,3447.9,1924.3,1456.2,1322.3,3441.9,1223.0,1590.8,3438.2,3445.5,821.0,1310.6,925.4,572.2,1458.9,1897.7,3446.7,3446.7,801.9,997.0,1258.7,1540.3,1359.4,1316.9,-5.0,8.0,1.0,9750.0,11143.0,4798.0,5118.0,1.0,1.0,3.0,1.0,0.0,6.0,8447.0,6527.0,8625.0,8950.0,-3.0,0.0,-2.0,1.0
2022-05-03 17:18:10.575649-07:00,1916.4,588.3,1653.0,1682.4,1433.2,1353.1,1571.1,1551.5,3445.5,3447.9,1927.2,1449.7,1322.3,3441.9,1223.0,1596.4,3441.9,3445.5,821.0,1310.6,929.6,565.8,1459.8,1897.7,3444.3,3446.7,801.9,997.0,1258.7,1542.2,1359.4,1316.9,-7.0,-5.0,11.0,9751.0,11145.0,4797.0,5113.0,19.0,-24.0,-2.0,5.0,-5.0,13.0,8450.0,6524.0,8620.0,8953.0,-5.0,-8.0,-8.0,1.0
2022-05-03 17:18:10.576972-07:00,1910.5,589.9,1653.0,1682.4,1436.0,1350.3,1564.6,1551.5,3449.1,3438.2,1927.2,1449.7,1325.0,3435.8,1219.5,1596.4,3441.9,3437.0,826.9,1326.8,929.6,565.8,1457.1,1892.8,3444.3,3446.7,806.0,996.2,1258.7,1542.2,1355.8,1309.7,-6.0,0.0,17.0,9754.0,11144.0,4792.0,5113.0,2.0,9.0,13.0,7.0,-7.0,15.0,8452.0,6522.0,8617.0,8956.0,-1.0,8.0,3.0,1.0
2022-05-03 17:18:10.578670-07:00,1910.5,589.9,1660.6,1680.5,1436.0,1350.3,1569.3,1540.3,3449.1,3438.2,1921.3,1454.3,1325.0,3435.8,1221.3,1594.6,3444.3,3435.8,826.9,1326.8,933.9,569.0,1457.1,1892.8,3451.6,3447.9,806.0,996.2,1260.4,1552.5,1355.8,1309.7,-6.0,6.0,12.0,9747.0,11143.0,4802.0,5120.0,16.0,36.0,-7.0,4.0,-5.0,13.0,8446.0,6520.0,8623.0,8957.0,24.0,29.0,0.0,1.0
2022-05-03 17:18:10.725227-07:00,1907.5,589.1,1660.6,1680.5,1432.3,1345.8,1569.3,1540.3,3441.9,3450.4,1921.3,1454.3,1324.1,3444.3,1221.3,1594.6,3444.3,3435.8,827.7,1322.3,933.9,569.0,1465.4,1895.8,3451.6,3447.9,811.0,1000.5,1260.4,1552.5,1354.9,1299.0,-9.0,0.0,6.0,9736.0,11140.0,4820.0,5132.0,29.0,52.0,8.0,0.0,-4.0,9.0,8438.0,6519.0,8631.0,8957.0,19.0,16.0,3.0,1.0
2022-05-03 17:18:10.726470-07:00,1907.5,589.1,1653.9,1668.2,1432.3,1345.8,1562.7,1558.1,3441.9,3450.4,1922.3,1448.8,1324.1,3444.3,1221.3,1594.6,3431.0,3444.3,827.7,1322.3,931.3,570.6,1465.4,1895.8,3443.1,3458.9,811.0,1000.5,1257.8,1547.8,1354.9,1299.0,-6.0,-5.0,9.0,9713.0,11143.0,4832.0,5155.0,53.0,68.0,48.0,0.0,-3.0,12.0,8436.0,6521.0,8633.0,8956.0,11.0,7.0,11.0,1.0
2022-05-03 17:18:10.728256-07:00,1909.5,586.7,1653.9,1668.2,1426.8,1338.6,1562.7,1558.1,3441.9,3446.7,1922.3,1448.8,1325.9,3444.3,1221.3,1594.6,3431.0,3444.3,828.5,1316.0,931.3,570.6,1455.2,1900.7,3443.1,3458.9,802.7,992.7,1257.8,1547.8,1356.7,1298.1,-7.0,4.0,2.0,9693.0,11148.0,4834.0,5179.0,7.0,30.0,48.0,1.0,-3.0,19.0,8431.0,6522.0,8634.0,8959.0,18.0,12.0,7.0,1.0
2022-05-03 17:18:10.875739-07:00,1909.5,586.7,1644.5,1671.9,1426.8,1338.6,1563.7,1565.5,3441.9,3446.7,1928.2,1457.1,1325.9,3444.3,1227.5,1588.9,3440.7,3440.7,828.5,1316.0,932.2,568.2,1455.2,1900.7,3445.5,3450.4,802.7,992.7,1258.7,1549.7,1356.7,1298.1,-6.0,10.0,5.0,9682.0,11154.0,4827.0,5196.0,8.0,19.0,40.0,5.0,-4.0,12.0,8428.0,6524.0,8635.0,8960.0,-1.0,-1.0,5.0,1.0
2022-05-03 17:18:10.877201-07:00,1909.5,589.9,1649.2,1671.9,1419.5,1346.7,1563.7,1565.5,3454.0,3449.1,1922.3,1457.1,1320.5,3443.1,1227.5,1588.9,3440.7,3440.7,829.4,1321.4,932.2,569.0,1451.6,1896.7,3445.5,3450.4,808.5,996.2,1258.7,1546.9,1355.8,1299.0,0.0,11.0,8.0,9681.0,11155.0,4827.0,5196.0,13.0,9.0,-20.0,1.0,-3.0,7.0,8429.0,6523.0,8634.0,8961.0,-5.0,7.0,-10.0,1.0
2022-05-03 17:18:10.878968-07:00,1909.5,589.9,1649.2,1671.9,1419.5,1344.9,1555.3,1559.0,3454.0,3449.1,1922.3,1457.1,1320.5,3451.6,1216.8,1596.4,3438.2,3439.5,826.0,1321.4,933.0,569.0,1451.6,1896.7,3449.1,3452.8,808.5,996.2,1260.4,1546.9,1355.8,1299.0,-10.0,-7.0,9.0,9681.0,11153.0,4833.0,5194.0,13.0,7.0,4.0,-1.0,-6.0,16.0,8431.0,6521.0,8632.0,8963.0,-2.0,6.0,-3.0,1.0
2022-05-03 17:18:11.025293-07:00,1900.7,591.5,1651.1,1671.9,1419.5,1344.9,1555.3,1559.0,3446.7,3449.1,1953.9,1457.1,1325.9,3451.6,1216.8,1596.4,3438.2,3439.5,826.0,1316.9,933.0,571.4,1455.2,1892.8,3449.1,3452.8,808.5,993.6,1260.4,1545.9,1360.3,1299.8,-8.0,1.0,5.0,9681.0,11154.0,4832.0,5192.0,3.0,-17.0,4.0,0.0,-5.0,11.0,8432.0,6519.0,8630.0,8964.0,-1.0,3.0,-5.0,1.0
2022-05-03 17:18:11.026429-07:00,1900.7,591.5,1651.1,1679.5,1419.5,1343.1,1559.0,1551.5,3446.7,3449.1,1953.9,1457.1,1325.9,3440.7,1215.1,1588.9,3438.2,3440.7,831.1,1316.9,932.2,571.4,1455.2,1892.8,3443.1,3438.2,811.0,993.6,1251.5,1545.9,1360.3,1299.8,-9.0,-8.0,13.0,9686.0,11153.0,4826.0,5190.0,-20.0,-8.0,14.0,1.0,-7.0,13.0,8434.0,6517.0,8628.0,8967.0,-19.0,0.0,5.0,1.0
2022-05-03 17:18:11.236453-07:00,1901.6,585.9,1640.7,1679.5,1414.9,1343.1,1559.0,1551.5,3435.8,3443.1,1909.5,1457.1,1317.8,3440.7,1215.1,1588.9,3438.2,3440.7,831.1,1312.4,932.2,567.4,1453.4,1895.8,3443.1,3438.2,811.0,992.7,1251.5,1543.1,1359.4,1298.1,-6.0,7.0,10.0,9683.0,11156.0,4820.0,5196.0,4.0,-3.0,12.0,4.0,-1.0,16.0,8436.0,6514.0,8624.0,8970.0,5.0,3.0,1.0,1.0
2022-05-03 17:18:11.237680-07:00,1901.6,585.9,1640.7,1670.1,1416.7,1345.8,1548.7,1556.2,3435.8,3443.1,1909.5,1453.4,1323.2,3446.7,1212.4,1598.3,3449.1,3449.1,826.9,1319.6,933.0,567.4,1453.4,1895.8,3440.7,3449.1,791.0,997.0,1259.6,1543.1,1359.4,1298.1,-6.0,2.0,9.0,9679.0,11158.0,4825.0,5194.0,11.0,23.0,-17.0,1.0,-5.0,12.0,8435.0,6515.0,8626.0,8969.0,12.0,5.0,-4.0,1.0
2022-05-03 17:18:11.238777-07:00,1904.6,587.5,1643.5,1671.0,1416.7,1345.8,1548.7,1556.2,3444.3,3443.1,1922.3,1459.8,1323.2,3446.7,1212.4,1598.3,3449.1,3449.1,826.9,1319.6,930.5,568.2,1457.1,1895.8,3440.7,3449.1,791.0,997.0,1267.6,1548.7,1359.4,1299.8,-7.0,4.0,3.0,9677.0,11155.0,4832.0,5198.0,-2.0,7.0,-5.0,0.0,1.0,11.0,8431.0,6516.0,8630.0,8968.0,16.0,11.0,0.0,1.0
2022-05-03 17:18:11.354805-07:00,1904.6,587.5,1643.5,1671.0,1410.3,1336.8,1550.6,1549.7,3444.3,3443.1,1922.3,1459.8,1327.8,3441.9,1213.3,1596.4,3449.1,3440.7,822.7,1321.4,930.5,568.2,1457.1,1895.8,3446.7,3439.5,801.0,1000.5,1267.6,1548.7,1359.4,1299.8,-7.0,0.0,7.0,9677.0,11155.0,4832.0,5198.0,2.0,-8.0,-2.0,2.0,-4.0,13.0,8431.0,6516.0,8630.0,8968.0,-13.0,-2.0,-5.0,1.0
2022-05-03 17:18:11.355985-07:00,1900.7,589.1,1642.6,1668.2,1410.3,1336.8,1550.6,1549.7,3449.1,3438.2,1918.3,1454.3,1327.8,3441.9,1213.3,1596.4,3449.1,3440.7,822.7,1321.4,928.8,569.8,1451.6,1900.7,3446.7,3439.5,801.0,1000.5,1260.4,1538.5,1360.3,1307.0,-4.0,2.0,14.0,9678.0,11156.0,4830.0,5195.0,9.0,-7.0,7.0,1.0,-2.0,13.0,8431.0,6516.0,8630.0,8968.0,5.0,8.0,3.0,1.0
2022-05-03 17:18:11.357028-07:00,1900.7,589.1,1642.6,1668.2,1411.3,1344.9,1553.4,1546.9,3449.1,3438.2,1918.3,1454.3,1316.9,3447.9,1218.6,1596.4,3444.3,3438.2,828.5,1318.7,928.8,569.8,1451.6,1900.7,3443.1,3447.9,806.9,997.0,1260.4,1538.5,1360.3,1307.0,-6.0,5.0,10.0,9678.0,11156.0,4830.0,5195.0,10.0,11.0,1.0,0.0,-1.0,13.0,8429.0,6517.0,8633.0,8967.0,16.0,13.0,-2.0,1.0
2022-05-03 17:18:11.358437-07:00,1903.6,583.5,1635.0,1669.1,1411.3,1344.9,1553.4,1546.9,3446.7,3440.7,1913.4,1451.6,1316.9,3447.9,1218.6,1596.4,3444.3,3438.2,828.5,1318.7,925.4,567.4,1456.2,1895.8,3443.1,3447.9,806.9,997.0,1262.2,1541.3,1362.1,1294.5,-11.0,-2.0,4.0,9677.0,11156.0,4831.0,5197.0,-3.0,-9.0,5.0,-1.0,-7.0,12.0,8423.0,6517.0,8639.0,8966.0,12.0,11.0,-1.0,1.0
2022-05-03 17:18:11.385253-07:00,1905.6,583.5,1635.0,1669.1,1411.3,1340.4,1550.6,1549.7,3449.1,3440.7,1913.4,1451.6,1320.5,3438.2,1216.0,1592.7,3435.8,3443.1,824.4,1320.5,925.4,567.4,1456.2,1894.8,3445.5,3444.3,799.4,991.0,1262.2,1541.3,1362.1,1285.5,-9.0,3.0,9.0,9679.0,11154.0,4828.0,5199.0,-19.0,-3.0,6.0,0.0,-4.0,17.0,8425.0,6515.0,8637.0,8967.0,-12.0,-2.0,2.0,1.0
2022-05-03 17:18:11.685037-07:00,1905.6,588.3,1638.8,1665.3,1411.3,1340.4,1550.6,1541.3,3449.1,3438.2,1921.3,1449.7,1320.5,3438.2,1216.0,1589.9,3433.4,3443.1,824.4,1320.5,929.6,568.2,1454.3,1894.8,3440.7,3444.3,799.4,991.0,1260.4,1543.1,1354.9,1285.5,-7.0,0.0,9.0,9682.0,11152.0,4825.0,5201.0,6.0,-15.0,16.0,0.0,-4.0,14.0,8425.0,6515.0,8637.0,8967.0,-3.0,-1.0,-1.0,1.0
2022-05-03 17:18:11.686588-07:00,1903.6,588.3,1638.8,1665.3,1412.2,1341.3,1548.7,1541.3,3447.9,3438.2,1921.3,1449.7,1326.8,3449.1,1217.7,1589.9,3433.4,3444.3,826.9,1317.8,929.6,568.2,1454.3,1896.7,3440.7,3446.7,801.9,1024.5,1260.4,1543.1,1354.9,1285.5,-8.0,5.0,15.0,9679.0,11155.0,4821.0,5202.0,2.0,17.0,5.0,2.0,-1.0,15.0,8425.0,6515.0,8636.0,8968.0,-5.0,-3.0,3.0,1.0
2022-05-03 17:18:11.835452-07:00,1903.6,589.1,1632.2,1664.4,1412.2,1341.3,1548.7,1547.8,3447.9,3439.5,1925.2,1455.2,1326.8,3449.1,1217.7,1587.1,3433.4,3444.3,826.9,1317.8,929.6,576.2,1453.4,1896.7,3444.3,3446.7,801.9,1024.5,1259.6,1543.1,1353.1,1285.5,-9.0,2.0,6.0,9677.0,11155.0,4821.0,5206.0,9.0,9.0,8.0,3.0,-3.0,15.0,8422.0,6514.0,8639.0,8968.0,8.0,16.0,0.0,1.0
2022-05-03 17:18:11.865257-07:00,1898.7,589.1,1632.2,1664.4,1409.4,1338.6,1544.1,1547.8,3435.8,3439.5,1925.2,1455.2,1320.5,3447.9,1217.7,1587.1,3433.4,3449.1,828.5,1312.4,929.6,576.2,1453.4,1895.8,3444.3,3458.9,802.7,995.3,1259.6,1543.1,1353.1,1281.0,-9.0,-2.0,8.0,9676.0,11156.0,4822.0,5205.0,6.0,-1.0,3.0,2.0,-3.0,11.0,8420.0,6512.0,8642.0,8970.0,-3.0,6.0,-4.0,1.0
2022-05-03 17:18:11.866448-07:00,1898.7,590.7,1644.5,1667.2,1409.4,1338.6,1548.7,1540.3,3435.8,3451.6,1926.2,1454.3,1320.5,3447.9,1216.8,1581.4,3441.9,3446.7,828.5,1312.4,933.0,566.6,1454.3,1895.8,3447.9,3443.1,802.7,995.3,1261.3,1552.5,1351.2,1281.0,-8.0,2.0,11.0,9671.0,11163.0,4816.0,5206.0,19.0,-19.0,31.0,0.0,-5.0,12.0,8420.0,6512.0,8642.0,8970.0,-4.0,1.0,6.0,1.0
2022-05-03 17:18:11.867249-07:00,1901.6,585.1,1644.5,1667.2,1411.3,1336.8,1548.7,1540.3,3441.9,3440.7,1926.2,1454.3,1323.2,3449.1,1216.8,1581.4,3441.9,3446.7,823.5,1317.8,933.0,566.6,1458.9,1887.9,3447.9,3443.1,803.5,988.5,1261.3,1552.5,1354.9,1286.4,-4.0,8.0,14.0,9665.0,11170.0,4807.0,5210.0,22.0,-3.0,27.0,1.0,-2.0,15.0,8420.0,6512.0,8642.0,8970.0,7.0,-2.0,5.0,1.0
2022-05-03 17:18:11.869050-07:00,1901.6,585.1,1631.3,1672.9,1411.3,1336.8,1541.3,1550.6,3441.9,3440.7,1917.4,1451.6,1323.2,3449.1,1215.1,1581.4,3444.3,3434.6,823.5,1317.8,932.2,574.6,1458.9,1887.9,3447.9,3447.9,803.5,988.5,1256.0,1543.1,1354.9,1286.4,-10.0,2.0,11.0,9656.0,11176.0,4807.0,5214.0,16.0,17.0,11.0,1.0,-4.0,19.0,8417.0,6511.0,8644.0,8971.0,9.0,13.0,1.0,1.0
2022-05-03 17:18:11.985967-07:00,1900.7,596.3,1631.3,1672.9,1407.6,1336.8,1541.3,1550.6,3444.3,3449.1,1917.4,1451.6,1330.5,3447.9,1215.1,1581.4,3444.3,3434.6,829.4,1316.0,932.2,574.6,1451.6,1898.7,3447.9,3447.9,805.2,994.5,1256.0,1543.1,1351.2,1290.0,-12.0,6.0,10.0,9648.0,11178.0,4812.0,5220.0,15.0,26.0,9.0,2.0,-2.0,16.0,8413.0,6511.0,8650.0,8969.0,7.0,9.0,3.0,1.0
2022-05-03 17:18:11.986968-07:00,1897.7,586.7,1634.1,1675.7,1404.0,1340.4,1544.1,1554.3,3440.7,3444.3,1924.3,1456.2,1313.3,3444.3,1217.7,1590.8,3449.1,3438.2,828.5,1320.5,935.6,569.8,1452.5,1895.8,3445.5,3454.0,799.4,995.3,1260.4,1552.5,1349.4,1280.1,-4.0,6.0,11.0,9646.0,11183.0,4806.0,5219.0,-9.0,-14.0,10.0,3.0,-1.0,12.0,8413.0,6511.0,8649.0,8970.0,-16.0,-9.0,-4.0,1.0
2022-05-03 17:18:11.988126-07:00,1897.7,586.7,1636.9,1669.1,1404.0,1341.3,1545.0,1554.3,3440.7,3444.3,1920.3,1444.2,1313.3,3444.3,1216.8,1586.1,3444.3,3438.2,827.7,1320.5,931.3,568.2,1452.5,1895.8,3449.1,3443.1,802.7,995.3,1263.1,1542.2,1349.4,1280.1,-9.0,2.0,19.0,9647.0,11183.0,4804.0,5219.0,2.0,8.0,-2.0,3.0,-6.0,21.0,8415.0,6509.0,8647.0,8972.0,2.0,6.0,-4.0,1.0
2022-05-03 17:18:11.989307-07:00,1898.7,588.3,1632.2,1669.1,1403.0,1341.3,1545.0,1554.3,3443.1,3449.1,1923.3,1444.2,1323.2,3444.3,1216.8,1586.1,3444.3,3438.2,827.7,1309.7,931.3,568.2,1446.0,1896.7,3449.1,3443.1,802.7,996.2,1263.1,1545.9,1357.6,1279.2,-7.0,1.0,11.0,9645.0,11182.0,4808.0,5219.0,20.0,11.0,1.0,-1.0,-2.0,16.0,8412.0,6506.0,8649.0,8974.0,20.0,20.0,0.0,1.0
2022-05-03 17:18:12.135144-07:00,1898.7,588.3,1632.2,1659.6,1403.0,1337.7,1552.5,1561.8,3443.1,3449.1,1923.3,1454.3,1323.2,3444.3,1213.3,1587.1,3441.9,3438.2,825.2,1309.7,934.7,568.2,1446.0,1896.7,3458.9,3445.5,801.0,996.2,1263.1,1545.9,1357.6,1279.2,-5.0,4.0,0.0,9642.0,11181.0,4811.0,5224.0,-10.0,3.0,5.0,0.0,-8.0,11.0,8405.0,6505.0,8657.0,8974.0,16.0,20.0,5.0,1.0
2022-05-03 17:18:12.137325-07:00,1899.7,595.5,1630.3,1659.6,1408.5,1337.7,1552.5,1561.8,3449.1,3438.2,1924.3,1454.3,1319.6,3444.3,1213.3,1587.1,3441.9,3438.2,825.2,1314.2,934.7,569.8,1448.8,1891.8,3458.9,3445.5,801.0,990.2,1263.1,1544.1,1354.0,1278.3,-6.0,7.0,7.0,9642.0,11182.0,4812.0,5223.0,3.0,-5.0,-12.0,0.0,-2.0,13.0,8404.0,6504.0,8657.0,8975.0,-15.0,-3.0,-2.0,1.0
2022-05-03 17:18:12.138708-07:00,1899.7,595.5,1630.3,1660.6,1408.5,1334.1,1542.2,1547.8,3449.1,3438.2,1924.3,1456.2,1319.6,3446.7,1213.3,1589.9,3440.7,3445.5,827.7,1314.2,932.2,569.8,1448.8,1891.8,3445.5,3447.9,800.2,990.2,1259.6,1544.1,1354.0,1278.3,-2.0,0.0,13.0,9652.0,11175.0,4807.0,5222.0,-34.0,-19.0,3.0,3.0,-3.0,13.0,8408.0,6499.0,8651.0,8981.0,-14.0,-4.0,-1.0,1.0
2022-05-03 17:18:12.194795-07:00,1898.7,588.3,1631.3,1660.6,1401.2,1334.1,1542.2,1547.8,3445.5,3440.7,1924.3,1456.2,1324.1,3446.7,1213.3,1589.9,3440.7,3445.5,827.7,1316.9,932.2,569.8,1449.7,1896.7,3445.5,3447.9,800.2,994.5,1259.6,1545.9,1349.4,1273.9,-9.0,-1.0,11.0,9657.0,11172.0,4806.0,5221.0,6.0,-9.0,-10.0,3.0,-7.0,17.0,8411.0,6496.0,8646.0,8985.0,-14.0,7.0,-9.0,1.0
2022-05-03 17:18:12.465795-07:00,1898.7,588.3,1631.3,1672.9,1403.0,1338.6,1537.6,1552.5,3445.5,3440.7,1924.3,1459.8,1324.1,3450.4,1214.2,1585.2,3444.3,3444.3,829.4,1316.9,928.8,569.8,1449.7,1896.7,3440.7,3440.7,801.0,991.9,1264.0,1545.9,1349.4,1273.9,0.0,-2.0,11.0,9654.0,11179.0,4806.0,5212.0,16.0,-23.0,-10.0,0.0,-1.0,4.0,8411.0,6491.0,8649.0,8986.0,14.0,18.0,-6.0,1.0
2022-05-03 17:18:12.466959-07:00,1887.9,583.5,1628.4,1660.6,1403.0,1338.6,1537.6,1552.5,3451.6,3447.9,1912.4,1451.6,1324.1,3450.4,1214.2,1585.2,3444.3,3444.3,829.4,1316.9,930.5,567.4,1448.8,1890.9,3440.7,3440.7,801.0,991.9,1263.1,1548.7,1345.8,1273.9,-10.0,3.0,14.0,9653.0,11181.0,4806.0,5210.0,28.0,6.0,12.0,2.0,-7.0,19.0,8410.0,6489.0,8650.0,8988.0,7.0,13.0,-2.0,1.0
2022-05-03 17:18:12.468440-07:00,1887.9,583.5,1628.4,1660.6,1395.7,1336.8,1541.3,1546.9,3451.6,3447.9,1912.4,1451.6,1328.7,3443.1,1210.6,1588.9,3445.5,3438.2,829.4,1312.4,930.5,567.4,1448.8,1890.9,3446.7,3449.1,799.4,992.7,1263.1,1548.7,1345.8,1273.9,36.0,-10.0,36.0,9627.0,11198.0,4822.0,5206.0,188.0,66.0,-28.0,12.0,-3.0,-14.0,8402.0,6489.0,8656.0,8990.0,79.0,53.0,37.0,1.0
2022-05-03 17:18:12.469619-07:00,1904.6,585.1,1636.0,1664.4,1395.7,1336.8,1541.3,1546.9,3450.4,3446.7,1917.4,1450.6,1328.7,3443.1,1210.6,1588.9,3445.5,3438.2,829.4,1312.4,929.6,562.6,1454.3,1893.8,3446.7,3449.1,799.4,992.7,1262.2,1539.4,1349.4,1279.2,-29.0,45.0,64.0,9434.0,11287.0,5054.0,5147.0,820.0,341.0,-407.0,7.0,-40.0,73.0,8344.0,6509.0,8715.0,8971.0,428.0,218.0,-23.0,1.0
2022-05-03 17:18:12.644799-07:00,1904.6,585.1,1636.0,1664.4,1409.4,1362.1,1575.8,1660.6,3450.4,3446.7,1917.4,1450.6,1324.1,3435.8,1206.2,1597.4,3449.1,3446.7,820.2,1309.7,929.6,562.6,1454.3,1893.8,3449.1,3449.1,801.9,991.0,1262.2,1539.4,1349.4,1279.2,-7.0,-76.0,-9.0,9247.0,11395.0,5265.0,5036.0,606.0,73.0,-83.0,-1.0,-20.0,20.0,8230.0,6553.0,8842.0,8921.0,382.0,155.0,69.0,1.0
2022-05-03 17:18:12.645545-07:00,1904.6,585.1,1636.0,1664.4,1409.4,1362.1,1575.8,1660.6,3450.4,3446.7,1917.4,1450.6,1324.1,3435.8,1206.2,1597.4,3449.1,3446.7,820.2,1309.7,929.6,562.6,1454.3,1893.8,3449.1,3449.1,801.9,991.0,1262.2,1539.4,1349.4,1279.2,-7.0,-76.0,-9.0,9247.0,11395.0,5265.0,5036.0,606.0,73.0,-83.0,-1.0,-20.0,20.0,8230.0,6553.0,8842.0,8921.0,382.0,155.0,69.0,1.0
2022-05-03 17:18:12.646872-07:00,1941.0,592.3,1680.5,1670.1,1406.7,1420.4,1582.4,1807.1,3449.1,3441.9,1935.1,1464.4,1316.9,3449.1,1212.4,1598.3,3447.9,3435.8,829.4,1313.3,927.1,565.8,1447.9,1889.9,3450.4,3447.9,805.2,986.7,1262.2,1536.6,1357.6,1309.7,-14.0,-21.0,-67.0,8909.0,11688.0,5363.0,4867.0,531.0,-310.0,74.0,-11.0,1.0,19.0,8044.0,6643.0,8982.0,8884.0,111.0,37.0,109.0,1.0
2022-05-03 17:18:12.647983-07:00,1941.0,602.8,1693.8,1678.6,1406.7,1420.4,1582.4,1677.6,3449.1,3445.5,1963.7,1453.4,1316.9,3449.1,1212.4,1607.7,3449.1,3435.8,829.4,1313.3,921.1,570.6,1459.8,1889.9,3447.9,3447.9,805.2,986.7,1264.0,1548.7,1359.4,1309.7,-13.0,49.0,31.0,8761.0,11913.0,5261.0,4698.0,510.0,-381.0,304.0,-7.0,31.0,0.0,7989.0,6709.0,9001.0,8864.0,68.0,-69.0,137.0,1.0
2022-05-03 17:18:12.795381-07:00,2044.4,602.8,1693.8,1678.6,1372.1,1426.8,1558.1,1677.6,3443.1,3445.5,1963.7,1453.4,1325.9,3449.1,1209.7,1607.7,3449.1,3444.3,831.1,1316.9,921.1,570.6,1459.8,1886.0,3447.9,3454.0,818.5,1021.9,1264.0,1548.7,1359.4,1298.1,-20.0,63.0,55.0,8686.0,12038.0,5163.0,4629.0,192.0,-169.0,130.0,0.0,7.0,20.0,7976.0,6751.0,8972.0,8874.0,2.0,-39.0,66.0,1.0
2022-05-03 17:18:12.944794-07:00,2044.4,622.2,1619.9,1688.1,1372.1,1426.8,1558.1,1597.4,3443.1,3449.1,1943.0,1447.0,1325.9,3449.1,1209.7,1604.9,3440.7,3444.3,831.1,1316.9,925.4,573.8,1490.3,1886.0,3446.7,3454.0,818.5,1021.9,1265.8,1546.9,1368.5,1298.1,-23.0,11.0,46.0,8704.0,12045.0,5126.0,4617.0,-97.0,-25.0,50.0,-1.0,-11.0,20.0,7975.0,6761.0,8952.0,8887.0,-36.0,8.0,29.0,1.0
2022-05-03 17:18:13.125748-07:00,2038.4,622.2,1619.9,1688.1,1353.1,1400.3,1528.3,1597.4,3440.7,3449.1,1943.0,1447.0,1327.8,3441.9,1191.2,1604.9,3440.7,3440.7,826.0,1318.7,925.4,573.8,1490.3,1900.7,3446.7,3445.5,801.0,1021.9,1265.8,1546.9,1368.5,1297.2,-4.0,3.0,29.0,8681.0,12064.0,5098.0,4642.0,129.0,52.0,123.0,4.0,-8.0,16.0,7968.0,6768.0,8945.0,8895.0,61.0,6.0,25.0,1.0
2022-05-03 17:18:13.425780-07:00,2038.4,618.1,1581.4,1680.5,1353.1,1400.3,1511.5,1576.8,3440.7,3437.0,1923.3,1456.2,1327.8,3441.9,1181.5,1605.8,3440.7,3433.4,826.0,1318.7,924.5,569.0,1481.9,1900.7,3447.9,3445.5,801.0,1021.9,1261.3,1549.7,1354.9,1297.2,-3.0,23.0,13.0,8607.0,12097.0,5124.0,4665.0,166.0,124.0,11.0,4.0,0.0,16.0,7945.0,6783.0,8963.0,8886.0,76.0,47.0,5.0,1.0
2022-05-03 17:18:13.455189-07:00,2037.4,617.3,1581.4,1680.5,1357.6,1393.9,1511.5,1576.8,3450.4,3449.1,1923.3,1456.2,1316.9,3446.7,1181.5,1605.8,3440.7,3433.4,823.5,1323.2,924.5,569.0,1473.6,1889.9,3447.9,3445.5,798.5,1023.7,1261.3,1549.7,1354.0,1289.1,-7.0,-12.0,-4.0,8576.0,12092.0,5165.0,4689.0,20.0,116.0,-33.0,-2.0,-3.0,7.0,7924.0,6785.0,8986.0,8880.0,33.0,24.0,3.0,1.0
2022-05-03 17:18:13.605359-07:00,2037.4,617.3,1564.6,1676.7,1357.6,1393.9,1502.3,1568.3,3450.4,3449.1,1908.5,1449.7,1316.9,3446.7,1175.3,1597.4,3438.2,3440.7,823.5,1323.2,923.7,573.0,1473.6,1889.9,3444.3,3447.9,798.5,1023.7,1260.4,1542.2,1354.0,1289.1,-10.0,6.0,-3.0,8550.0,12088.0,5203.0,4706.0,71.0,76.0,-32.0,3.0,2.0,12.0,7917.0,6785.0,8994.0,8879.0,23.0,10.0,3.0,1.0
2022-05-03 17:18:13.725119-07:00,2032.4,614.9,1564.6,1676.7,1345.8,1385.7,1502.3,1568.3,3437.0,3449.1,1908.5,1449.7,1327.8,3446.7,1175.3,1597.4,3438.2,3440.7,829.4,1328.7,923.7,573.0,1475.5,1890.9,3444.3,3447.9,798.5,1011.6,1260.4,1542.2,1350.3,1282.8,-14.0,-8.0,6.0,8536.0,12086.0,5227.0,4710.0,5.0,28.0,-6.0,-2.0,-7.0,15.0,7912.0,6786.0,8999.0,8877.0,21.0,10.0,2.0,1.0
2022-05-03 17:18:13.727782-07:00,2024.4,612.5,1545.0,1660.6,1325.9,1383.0,1481.0,1559.9,3445.5,3443.1,1885.0,1440.5,1330.5,3449.1,1160.3,1598.3,3446.7,3443.1,831.1,1325.0,920.3,569.8,1474.6,1892.8,3449.1,3446.7,784.4,1007.3,1262.2,1545.0,1354.0,1273.9,-6.0,-10.0,4.0,8503.0,12107.0,5238.0,4702.0,-9.0,18.0,47.0,0.0,-6.0,10.0,7894.0,6791.0,9018.0,8869.0,19.0,3.0,15.0,1.0
2022-05-03 17:18:14.055145-07:00,2013.4,616.5,1521.8,1657.7,1318.7,1369.4,1470.9,1545.0,3447.9,3449.1,1885.0,1445.1,1324.1,3443.1,1167.4,1595.5,3443.1,3449.1,823.5,1327.8,923.7,566.6,1464.4,1904.6,3446.7,3438.2,788.6,1004.8,1259.6,1526.4,1348.5,1283.7,-6.0,0.0,11.0,8480.0,12142.0,5185.0,4713.0,20.0,9.0,30.0,3.0,-6.0,11.0,7888.0,6799.0,9019.0,8868.0,15.0,-5.0,3.0,1.0
2022-05-03 17:18:14.205445-07:00,2015.4,614.9,1530.1,1651.1,1318.7,1369.4,1470.9,1545.0,3445.5,3441.9,1884.0,1441.5,1324.1,3443.1,1167.4,1595.5,3443.1,3449.1,823.5,1327.8,923.7,567.4,1466.3,1894.8,3446.7,3438.2,788.6,1004.8,1262.2,1534.8,1340.4,1269.4,-3.0,2.0,13.0,8474.0,12147.0,5178.0,4718.0,13.0,10.0,23.0,0.0,-2.0,11.0,7886.0,6801.0,9021.0,8867.0,13.0,6.0,4.0,1.0
2022-05-03 17:18:14.206736-07:00,2010.4,607.6,1528.3,1649.2,1317.8,1371.2,1453.4,1534.8,3450.4,3435.8,1877.2,1440.5,1322.3,3445.5,1163.0,1585.2,3443.1,3440.7,831.9,1317.8,919.4,573.0,1466.3,1894.8,3450.4,3450.4,801.0,1005.6,1259.6,1536.6,1336.8,1267.6,-6.0,1.0,7.0,8451.0,12151.0,5192.0,4733.0,14.0,11.0,11.0,2.0,1.0,7.0,7877.0,6807.0,9030.0,8861.0,21.0,7.0,0.0,1.0
2022-05-03 17:18:14.355093-07:00,2006.4,610.0,1523.6,1650.2,1312.4,1371.2,1464.4,1540.3,3446.7,3451.6,1874.2,1441.5,1320.5,3445.5,1158.6,1593.6,3443.1,3438.2,822.7,1324.1,923.7,569.0,1469.0,1893.8,3451.6,3445.5,782.7,1003.0,1257.8,1539.4,1346.7,1268.5,-7.0,1.0,12.0,8446.0,12154.0,5178.0,4749.0,-22.0,57.0,5.0,5.0,-8.0,19.0,7879.0,6806.0,9028.0,8862.0,-18.0,-5.0,2.0,1.0
2022-05-03 17:18:14.356240-07:00,2006.4,610.0,1526.4,1645.4,1312.4,1371.2,1464.4,1541.3,3446.7,3449.1,1869.3,1448.8,1320.5,3445.5,1158.6,1593.6,3438.2,3438.2,822.7,1324.1,919.4,566.6,1464.4,1893.8,3445.5,3445.5,782.7,1003.0,1263.1,1532.9,1338.6,1268.5,-8.0,7.0,5.0,8437.0,12154.0,5185.0,4760.0,47.0,-2.0,15.0,2.0,-1.0,12.0,7876.0,6809.0,9031.0,8859.0,30.0,11.0,-3.0,1.0
2022-05-03 17:18:14.356820-07:00,2006.4,610.0,1526.4,1645.4,1312.4,1371.2,1464.4,1541.3,3446.7,3449.1,1869.3,1448.8,1320.5,3445.5,1158.6,1593.6,3438.2,3438.2,822.7,1324.1,919.4,566.6,1464.4,1893.8,3445.5,3445.5,782.7,1003.0,1263.1,1532.9,1338.6,1268.5,-8.0,7.0,5.0,8437.0,12154.0,5185.0,4760.0,47.0,-2.0,15.0,2.0,-1.0,12.0,7876.0,6809.0,9031.0,8859.0,30.0,11.0,-3.0,1.0
2022-05-03 17:18:14.357810-07:00,1997.5,608.4,1512.5,1644.5,1304.3,1368.5,1454.3,1533.8,3443.1,3444.3,1870.3,1444.2,1326.8,3446.7,1159.4,1582.4,3439.5,3449.1,831.9,1308.8,918.6,568.2,1457.1,1889.9,3435.8,3449.1,783.6,1002.2,1258.7,1535.7,1345.8,1272.1,-7.0,11.0,8.0,8417.0,12170.0,5174.0,4766.0,34.0,-1.0,3.0,4.0,0.0,8.0,7865.0,6812.0,9044.0,8853.0,19.0,11.0,-6.0,1.0
2022-05-03 17:18:14.358756-07:00,1997.5,608.4,1512.5,1644.5,1304.3,1368.5,1454.3,1533.8,3443.1,3444.3,1870.3,1444.2,1326.8,3446.7,1159.4,1582.4,3439.5,3449.1,831.9,1308.8,918.6,568.2,1457.1,1889.9,3435.8,3449.1,783.6,1002.2,1258.7,1535.7,1345.8,1272.1,-7.0,11.0,8.0,8417.0,12170.0,5174.0,4766.0,34.0,-1.0,3.0,4.0,0.0,8.0,7865.0,6812.0,9044.0,8853.0,19.0,11.0,-6.0,1.0
2022-05-03 17:18:14.535243-07:00,1995.5,602.0,1510.6,1651.1,1302.5,1363.9,1456.2,1532.0,3443.1,3449.1,1871.3,1443.3,1325.0,3445.5,1156.8,1587.1,3444.3,3440.7,831.1,1316.9,922.0,570.6,1463.5,1887.9,3445.5,3449.1,781.1,1001.3,1264.9,1536.6,1334.1,1251.5,-5.0,-2.0,7.0,8415.0,12174.0,5165.0,4768.0,-31.0,-2.0,-1.0,8.0,-4.0,14.0,7861.0,6812.0,9048.0,8853.0,-8.0,4.0,1.0,1.0
2022-05-03 17:18:14.836029-07:00,1995.5,602.0,1510.6,1641.6,1302.5,1363.9,1449.7,1530.1,3443.1,3449.1,1871.3,1440.5,1325.0,3443.1,1159.4,1583.3,3440.7,3438.2,831.1,1316.9,923.7,570.6,1463.5,1887.9,3445.5,3449.1,780.3,1001.3,1258.7,1536.6,1334.1,1251.5,-8.0,5.0,11.0,8419.0,12171.0,5163.0,4770.0,6.0,-1.0,0.0,1.0,-4.0,14.0,7861.0,6812.0,9048.0,8853.0,-2.0,0.0,-2.0,1.0
2022-05-03 17:18:14.838912-07:00,2005.5,607.6,1510.6,1643.5,1299.8,1365.7,1452.5,1528.3,3443.1,3438.2,1873.2,1443.3,1320.5,3441.9,1161.2,1583.3,3440.7,3435.8,830.2,1320.5,918.6,570.6,1461.7,1892.8,3447.9,3443.1,778.6,998.7,1260.4,1532.9,1345.8,1250.6,-7.0,7.0,9.0,8416.0,12174.0,5163.0,4768.0,14.0,1.0,14.0,6.0,-2.0,16.0,7860.0,6813.0,9049.0,8851.0,10.0,8.0,-4.0,1.0
2022-05-03 17:18:14.839766-07:00,1998.5,609.2,1511.5,1640.7,1299.8,1365.7,1452.5,1528.3,3444.3,3438.2,1858.6,1437.8,1320.5,3441.9,1161.2,1583.3,3440.7,3435.8,830.2,1320.5,918.6,569.0,1458.9,1886.9,3447.9,3443.1,778.6,998.7,1257.8,1535.7,1338.6,1252.4,-10.0,1.0,8.0,8415.0,12175.0,5161.0,4770.0,-10.0,2.0,11.0,0.0,-2.0,12.0,7857.0,6813.0,9053.0,8851.0,3.0,12.0,-3.0,1.0
2022-05-03 17:18:14.840461-07:00,1998.5,609.2,1511.5,1640.7,1300.7,1363.0,1446.0,1534.8,3444.3,3438.2,1858.6,1437.8,1332.3,3441.9,1151.5,1583.3,3441.9,3435.8,828.5,1317.8,918.6,569.0,1458.9,1886.9,3444.3,3449.1,772.0,997.9,1257.8,1535.7,1338.6,1252.4,-6.0,0.0,5.0,8416.0,12177.0,5158.0,4768.0,-2.0,-18.0,11.0,2.0,-1.0,12.0,7856.0,6814.0,9054.0,8850.0,5.0,0.0,-2.0,1.0
2022-05-03 17:18:15.165711-07:00,1990.5,614.1,1506.0,1646.4,1300.7,1363.0,1446.0,1534.8,3449.1,3443.1,1861.5,1443.3,1332.3,3441.9,1151.5,1583.3,3441.9,3435.8,828.5,1317.8,918.6,569.8,1463.5,1890.9,3444.3,3449.1,772.0,997.9,1259.6,1537.6,1327.8,1248.8,-8.0,-1.0,15.0,8420.0,12178.0,5149.0,4768.0,-11.0,-10.0,11.0,2.0,-3.0,15.0,7856.0,6814.0,9054.0,8850.0,-2.0,-1.0,3.0,1.0
2022-05-03 17:18:15.315724-07:00,1990.5,605.2,1507.8,1640.7,1290.0,1371.2,1444.2,1519.0,3449.1,3443.1,1860.6,1435.0,1325.0,3441.9,1158.6,1580.5,3444.3,3444.3,822.7,1324.1,914.4,568.2,1463.5,1887.9,3447.9,3444.3,777.8,1003.0,1259.6,1534.8,1332.3,1248.0,-6.0,-3.0,9.0,8418.0,12190.0,5120.0,4771.0,3.0,-9.0,6.0,3.0,-3.0,16.0,7847.0,6817.0,9064.0,8845.0,-7.0,-4.0,1.0,1.0
2022-05-03 17:18:15.317958-07:00,1990.5,606.0,1503.2,1639.8,1290.0,1371.2,1447.9,1514.3,3449.1,3446.7,1856.7,1448.8,1325.0,3441.9,1152.4,1579.6,3446.7,3444.3,822.7,1324.1,919.4,574.6,1459.8,1887.9,3458.9,3451.6,777.8,1003.0,1260.4,1533.8,1334.1,1248.0,-7.0,6.0,12.0,8417.0,12191.0,5120.0,4770.0,-2.0,-3.0,2.0,3.0,1.0,16.0,7847.0,6817.0,9064.0,8845.0,5.0,9.0,-3.0,1.0
2022-05-03 17:18:15.319236-07:00,1994.5,601.2,1503.2,1639.8,1292.7,1364.8,1447.9,1514.3,3443.1,3443.1,1856.7,1448.8,1325.0,3441.9,1152.4,1579.6,3446.7,3444.3,838.6,1317.8,919.4,574.6,1455.2,1896.7,3458.9,3451.6,778.6,1008.2,1260.4,1533.8,1330.5,1248.0,-10.0,5.0,10.0,8415.0,12192.0,5121.0,4770.0,0.0,-3.0,5.0,1.0,0.0,15.0,7844.0,6818.0,9067.0,8844.0,12.0,9.0,1.0,1.0
2022-05-03 17:18:15.320044-07:00,1994.5,601.2,1501.4,1634.1,1292.7,1364.8,1441.5,1519.9,3443.1,3443.1,1854.7,1434.1,1325.0,3441.9,1153.3,1580.5,3438.2,3447.9,838.6,1317.8,922.0,573.0,1455.2,1896.7,3447.9,3458.9,778.6,1008.2,1258.7,1532.0,1330.5,1248.0,-7.0,5.0,12.0,8413.0,12193.0,5122.0,4769.0,-1.0,-7.0,5.0,6.0,-3.0,13.0,7842.0,6818.0,9069.0,8843.0,3.0,9.0,-5.0,1.0
2022-05-03 17:18:15.645195-07:00,1995.5,606.8,1498.6,1636.9,1290.0,1362.1,1438.7,1525.5,3440.7,3450.4,1857.6,1439.6,1318.7,3449.1,1152.4,1581.4,3438.2,3440.7,828.5,1332.3,926.2,570.6,1453.4,1889.9,3441.9,3452.8,772.8,1000.5,1261.3,1532.9,1330.5,1241.7,-11.0,5.0,16.0,8420.0,12196.0,5109.0,4765.0,20.0,-10.0,5.0,2.0,-3.0,16.0,7843.0,6817.0,9068.0,8845.0,25.0,10.0,-4.0,1.0
2022-05-03 17:18:15.647804-07:00,1987.5,600.4,1494.9,1631.3,1290.9,1383.9,1448.8,1517.1,3445.5,3440.7,1863.5,1438.7,1319.6,3445.5,1149.8,1577.7,3437.0,3440.7,828.5,1319.6,922.0,569.8,1456.2,1892.8,3445.5,3444.3,774.5,997.0,1264.0,1536.6,1329.6,1249.7,-17.0,29.0,2.0,8491.0,12141.0,5073.0,4817.0,-308.0,31.0,39.0,0.0,1.0,16.0,7851.0,6798.0,9082.0,8837.0,6.0,1.0,-67.0,1.0
2022-05-03 17:18:15.648797-07:00,2004.5,604.4,1717.7,1631.3,1293.6,1383.9,1448.8,1517.1,3445.5,3449.1,1843.0,1438.7,1319.6,3445.5,1149.8,1577.7,3437.0,3440.7,828.5,1320.5,922.0,568.2,1463.5,1887.9,3445.5,3444.3,774.5,997.0,1264.0,1529.2,1335.0,1240.8,-11.0,-27.0,29.0,8615.0,12054.0,5000.0,4890.0,-358.0,26.0,109.0,-2.0,-1.0,-3.0,7876.0,6777.0,9072.0,8842.0,-88.0,-46.0,-45.0,1.0
2022-05-03 17:18:15.649641-07:00,2004.5,604.4,1717.7,1676.7,1293.6,1392.1,1540.3,1640.7,3445.5,3449.1,1843.0,1438.7,1319.6,3441.9,1151.5,1582.4,3445.5,3441.9,828.5,1320.5,917.7,568.2,1463.5,1887.9,3454.0,3450.4,801.9,997.0,1265.8,1529.2,1335.0,1240.8,-22.0,18.0,44.0,8625.0,12048.0,4932.0,4956.0,-16.0,30.0,226.0,7.0,-3.0,18.0,7904.0,6780.0,9076.0,8809.0,101.0,-41.0,-85.0,1.0
2022-05-03 17:18:15.650421-07:00,2043.4,601.2,1961.8,1735.8,1320.5,1392.1,1540.3,1640.7,3438.2,3444.3,1862.5,1444.2,1321.4,3441.9,1151.5,1582.4,3445.5,3441.9,828.5,1316.0,926.2,572.2,1465.4,1890.9,3454.0,3450.4,801.9,1007.3,1267.6,1536.6,1335.0,1246.2,-4.0,11.0,18.0,8590.0,12064.0,4907.0,5004.0,12.0,87.0,134.0,9.0,-5.0,38.0,7901.0,6781.0,9111.0,8775.0,176.0,64.0,-73.0,1.0
2022-05-03 17:18:15.795593-07:00,2043.4,601.2,1961.8,1735.8,1323.2,1371.2,1712.9,1973.7,3438.2,3444.3,1862.5,1444.2,1325.0,3438.2,1164.7,1581.4,3446.7,3437.0,825.2,1325.0,926.2,572.2,1465.4,1890.9,3445.5,3452.8,835.2,1015.1,1267.6,1536.6,1335.0,1246.2,4.0,-13.0,-32.0,8589.0,12060.0,4873.0,5046.0,-213.0,-45.0,56.0,2.0,1.0,-5.0,7882.0,6766.0,9165.0,8749.0,32.0,70.0,-56.0,1.0
2022-05-03 17:18:15.796256-07:00,2043.4,601.2,1961.8,1735.8,1323.2,1371.2,1712.9,1973.7,3438.2,3444.3,1862.5,1444.2,1325.0,3438.2,1164.7,1581.4,3446.7,3437.0,825.2,1325.0,926.2,572.2,1465.4,1890.9,3445.5,3452.8,835.2,1015.1,1267.6,1536.6,1335.0,1246.2,4.0,-13.0,-32.0,8589.0,12060.0,4873.0,5046.0,-213.0,-45.0,56.0,2.0,1.0,-5.0,7882.0,6766.0,9165.0,8749.0,32.0,70.0,-56.0,1.0
2022-05-03 17:18:16.004991-07:00,1990.5,606.8,1880.1,1680.5,1343.1,1359.4,1709.1,1910.5,3440.7,3449.1,1861.5,1441.5,1322.3,3451.6,1167.4,1580.5,3449.1,3439.5,831.9,1316.9,926.2,573.8,1449.7,1887.9,3445.5,3438.2,831.1,998.7,1261.3,1533.8,1341.3,1276.5,-9.0,-14.0,32.0,8944.0,11905.0,4606.0,5049.0,-254.0,-205.0,45.0,5.0,-10.0,19.0,8018.0,6690.0,9055.0,8797.0,-150.0,-84.0,-9.0,1.0
2022-05-03 17:18:16.008383-07:00,1990.5,606.8,1880.1,1680.5,1330.5,1357.6,1710.0,1761.8,3440.7,3449.1,1861.5,1441.5,1320.5,3437.0,1174.4,1585.2,3447.9,3449.1,826.9,1319.6,926.2,573.8,1449.7,1887.9,3451.6,3449.1,840.3,996.2,1261.3,1533.8,1341.3,1276.5,4.0,10.0,38.0,9028.0,11885.0,4518.0,5025.0,-162.0,-158.0,4.0,14.0,-9.0,23.0,8051.0,6679.0,9021.0,8811.0,-59.0,-27.0,-17.0,1.0
2022-05-03 17:18:16.009273-07:00,1991.5,606.8,1836.2,1673.8,1330.5,1357.6,1710.0,1674.8,3445.5,3449.1,1854.7,1444.2,1320.5,3437.0,1174.4,1581.4,3449.1,3449.1,826.9,1319.6,923.7,568.2,1449.7,1896.7,3455.2,3449.1,840.3,996.2,1264.0,1529.2,1332.3,1293.6,-7.0,-1.0,33.0,9092.0,11855.0,4491.0,5006.0,-43.0,-8.0,-84.0,4.0,-10.0,26.0,8067.0,6669.0,9012.0,8813.0,-15.0,1.0,-23.0,1.0
2022-05-03 17:18:16.125169-07:00,1987.5,606.8,1836.2,1673.8,1330.5,1344.0,1692.9,1674.8,3443.1,3449.1,1854.7,1444.2,1318.7,3449.1,1166.5,1581.4,3449.1,3445.5,823.5,1318.7,923.7,568.2,1449.7,1894.8,3455.2,3455.2,831.9,988.5,1264.0,1529.2,1332.3,1281.0,-13.0,6.0,6.0,9118.0,11835.0,4500.0,4996.0,-59.0,-19.0,-6.0,0.0,0.0,15.0,8065.0,6661.0,9018.0,8815.0,-7.0,18.0,-8.0,1.0
2022-05-03 17:18:16.126299-07:00,1987.5,598.7,1815.8,1660.6,1330.5,1344.0,1692.9,1653.0,3443.1,3449.1,1855.7,1445.1,1318.7,3449.1,1166.5,1574.9,3446.7,3445.5,823.5,1318.7,928.8,571.4,1445.1,1894.8,3444.3,3455.2,831.9,988.5,1256.9,1531.0,1330.5,1281.0,-4.0,-5.0,1.0,9139.0,11824.0,4485.0,4999.0,-7.0,-18.0,24.0,0.0,-5.0,4.0,8064.0,6659.0,9018.0,8817.0,15.0,3.0,-4.0,1.0
2022-05-03 17:18:16.126916-07:00,1987.5,598.7,1815.8,1660.6,1330.5,1344.0,1692.9,1653.0,3443.1,3449.1,1855.7,1445.1,1318.7,3449.1,1166.5,1574.9,3446.7,3445.5,823.5,1318.7,928.8,571.4,1445.1,1894.8,3444.3,3455.2,831.9,988.5,1256.9,1531.0,1330.5,1281.0,-4.0,-5.0,1.0,9139.0,11824.0,4485.0,4999.0,-7.0,-18.0,24.0,0.0,-5.0,4.0,8064.0,6659.0,9018.0,8817.0,15.0,3.0,-4.0,1.0
2022-05-03 17:18:16.128665-07:00,1978.6,597.9,1799.4,1673.8,1324.1,1344.0,1673.8,1635.0,3438.2,3441.9,1852.8,1442.4,1321.4,3450.4,1160.3,1579.6,3447.9,3449.1,824.4,1321.4,934.7,571.4,1442.4,1888.9,3452.8,3450.4,831.9,983.3,1256.9,1537.6,1332.3,1270.3,1.0,10.0,10.0,9158.0,11838.0,4447.0,4963.0,7.0,-26.0,0.0,3.0,0.0,4.0,8065.0,6663.0,9021.0,8810.0,25.0,11.0,-4.0,1.0
2022-05-03 17:18:16.425457-07:00,1978.6,597.9,1795.5,1642.6,1324.1,1344.0,1661.5,1658.7,3438.2,3441.9,1856.7,1439.6,1321.4,3450.4,1159.4,1582.4,3435.8,3428.6,824.4,1321.4,921.1,574.6,1442.4,1888.9,3447.9,3451.6,831.9,983.3,1262.2,1525.5,1332.3,1270.3,-12.0,4.0,7.0,9159.0,11834.0,4458.0,4962.0,8.0,34.0,-24.0,4.0,-3.0,21.0,8059.0,6665.0,9028.0,8808.0,28.0,23.0,-6.0,1.0
2022-05-03 17:18:16.426887-07:00,1987.5,589.9,1795.5,1642.6,1318.7,1337.7,1661.5,1658.7,3446.7,3438.2,1856.7,1439.6,1320.5,3451.6,1159.4,1582.4,3435.8,3428.6,831.9,1321.4,921.1,574.6,1441.5,1888.9,3447.9,3451.6,821.9,983.3,1262.2,1525.5,1325.0,1285.5,-8.0,-2.0,4.0,9161.0,11832.0,4459.0,4964.0,12.0,2.0,27.0,0.0,0.0,8.0,8052.0,6666.0,9035.0,8806.0,26.0,7.0,1.0,1.0
2022-05-03 17:18:16.427730-07:00,1987.5,589.9,1780.1,1641.6,1318.7,1337.7,1653.0,1620.9,3446.7,3438.2,1850.8,1442.4,1320.5,3451.6,1161.2,1578.6,3434.6,3441.9,831.9,1321.4,925.4,571.4,1441.5,1888.9,3451.6,3452.8,821.9,983.3,1259.6,1528.3,1325.0,1285.5,-6.0,4.0,0.0,9162.0,11834.0,4451.0,4965.0,-20.0,-14.0,3.0,0.0,-5.0,11.0,8052.0,6666.0,9036.0,8804.0,0.0,0.0,-10.0,1.0
2022-05-03 17:18:16.575613-07:00,1970.7,593.9,1780.1,1641.6,1312.4,1336.8,1653.0,1620.9,3450.4,3449.1,1850.8,1442.4,1319.6,3435.8,1161.2,1578.6,3434.6,3441.9,828.5,1321.4,925.4,571.4,1436.0,1888.9,3451.6,3452.8,828.5,983.3,1259.6,1528.3,1325.9,1277.4,-1.0,0.0,15.0,9174.0,11832.0,4440.0,4956.0,-20.0,-44.0,5.0,-2.0,-1.0,5.0,8052.0,6666.0,9035.0,8805.0,-10.0,-15.0,-3.0,1.0
2022-05-03 17:18:16.576744-07:00,1970.7,593.9,1778.1,1641.6,1312.4,1336.8,1655.8,1614.3,3450.4,3449.1,1849.8,1438.7,1319.6,3435.8,1161.2,1577.7,3441.9,3440.7,828.5,1321.4,927.9,572.2,1436.0,1888.9,3449.1,3443.1,828.5,983.3,1260.4,1532.0,1325.9,1277.4,-6.0,2.0,11.0,9181.0,11828.0,4435.0,4956.0,-28.0,-8.0,-1.0,4.0,-6.0,18.0,8057.0,6665.0,9030.0,8807.0,7.0,6.0,-1.0,1.0
2022-05-03 17:18:16.577361-07:00,1970.7,593.9,1778.1,1641.6,1312.4,1336.8,1655.8,1614.3,3450.4,3449.1,1849.8,1438.7,1319.6,3435.8,1161.2,1577.7,3441.9,3440.7,828.5,1321.4,927.9,572.2,1436.0,1888.9,3449.1,3443.1,828.5,983.3,1260.4,1532.0,1325.9,1277.4,-6.0,2.0,11.0,9181.0,11828.0,4435.0,4956.0,-28.0,-8.0,-1.0,4.0,-6.0,18.0,8057.0,6665.0,9030.0,8807.0,7.0,6.0,-1.0,1.0
2022-05-03 17:18:16.578268-07:00,1971.7,597.1,1762.7,1646.4,1317.8,1331.4,1654.9,1608.7,3444.3,3439.5,1845.9,1443.3,1316.9,3449.1,1155.0,1578.6,3449.1,3439.5,823.5,1316.9,924.5,570.6,1433.2,1887.9,3441.9,3438.2,821.0,982.5,1263.1,1528.3,1329.6,1273.0,-4.0,9.0,3.0,9164.0,11833.0,4447.0,4964.0,-11.0,-7.0,-2.0,2.0,2.0,10.0,8039.0,6666.0,9049.0,8803.0,-18.0,-1.0,-8.0,1.0
2022-05-03 17:18:16.606070-07:00,1963.7,587.5,1762.7,1646.4,1316.0,1331.4,1654.9,1608.7,3449.1,3450.4,1846.9,1443.3,1316.9,3449.1,1155.0,1578.6,3449.1,3439.5,823.5,1318.7,924.5,568.2,1425.9,1889.9,3441.9,3438.2,821.0,982.5,1263.1,1528.3,1325.0,1255.1,-8.0,0.0,12.0,9169.0,11831.0,4445.0,4964.0,-5.0,-7.0,5.0,1.0,-3.0,14.0,8042.0,6663.0,9044.0,8807.0,-7.0,-5.0,-3.0,1.0
2022-05-03 17:18:16.606994-07:00,1963.7,587.5,1762.7,1650.2,1311.5,1335.0,1633.1,1607.7,3449.1,3450.4,1846.9,1441.5,1319.6,3449.1,1156.8,1576.8,3441.9,3440.7,828.5,1325.0,923.7,568.2,1425.9,1889.9,3441.9,3451.6,824.4,980.7,1261.3,1528.3,1325.0,1255.1,-7.0,5.0,10.0,9168.0,11831.0,4446.0,4963.0,21.0,-7.0,1.0,-1.0,-5.0,17.0,8043.0,6663.0,9044.0,8808.0,24.0,9.0,0.0,1.0
2022-05-03 17:18:16.785652-07:00,1967.7,588.3,1759.8,1637.9,1311.5,1335.0,1633.1,1607.7,3445.5,3440.7,1846.9,1441.5,1319.6,3449.1,1156.8,1576.8,3441.9,3440.7,828.5,1325.0,927.1,571.4,1427.7,1889.9,3441.9,3451.6,824.4,980.7,1261.3,1530.1,1328.7,1255.1,-2.0,-2.0,7.0,9163.0,11836.0,4446.0,4962.0,28.0,-11.0,23.0,0.0,-4.0,7.0,8038.0,6665.0,9049.0,8804.0,15.0,3.0,6.0,1.0
2022-05-03 17:18:16.787025-07:00,1967.7,588.3,1759.8,1637.9,1300.7,1331.4,1647.3,1621.8,3445.5,3440.7,1846.9,1441.5,1318.7,3439.5,1148.0,1573.9,3444.3,3439.5,828.5,1317.8,927.1,571.4,1427.7,1889.9,3449.1,3447.9,825.2,979.9,1261.3,1530.1,1328.7,1255.1,-1.0,19.0,6.0,9146.0,11849.0,4446.0,4961.0,26.0,4.0,8.0,0.0,9.0,10.0,8035.0,6669.0,9053.0,8800.0,19.0,14.0,2.0,1.0
2022-05-03 17:18:16.788383-07:00,1967.7,595.5,1744.5,1642.6,1300.7,1331.4,1647.3,1621.8,3449.1,3449.1,1839.1,1445.1,1318.7,3439.5,1148.0,1573.9,3444.3,3439.5,828.5,1317.8,923.7,571.4,1437.8,1888.9,3449.1,3447.9,825.2,979.9,1258.7,1528.3,1333.2,1268.5,-7.0,-4.0,1.0,9153.0,11843.0,4446.0,4963.0,-11.0,-10.0,6.0,-1.0,-4.0,9.0,8031.0,6668.0,9057.0,8800.0,14.0,0.0,3.0,1.0
2022-05-03 17:18:16.905426-07:00,1967.7,595.5,1744.5,1642.6,1311.5,1327.8,1640.7,1619.9,3449.1,3449.1,1839.1,1445.1,1319.6,3438.2,1155.0,1578.6,3435.8,3445.5,825.2,1318.7,923.7,571.4,1437.8,1888.9,3441.9,3440.7,810.2,979.9,1258.7,1528.3,1333.2,1268.5,-4.0,7.0,8.0,9154.0,11846.0,4437.0,4962.0,-16.0,-12.0,10.0,2.0,-2.0,12.0,8032.0,6667.0,9057.0,8801.0,-12.0,-6.0,5.0,1.0
2022-05-03 17:18:16.907310-07:00,1956.8,598.7,1746.4,1641.6,1311.5,1327.8,1640.7,1619.9,3449.1,3451.6,1844.0,1437.8,1319.6,3438.2,1155.0,1578.6,3435.8,3445.5,825.2,1318.7,923.7,571.4,1436.9,1885.0,3441.9,3440.7,810.2,979.9,1264.9,1530.1,1318.7,1259.6,-7.0,0.0,18.0,9159.0,11843.0,4436.0,4962.0,-10.0,-4.0,9.0,3.0,-8.0,14.0,8033.0,6665.0,9054.0,8804.0,5.0,11.0,4.0,1.0
2022-05-03 17:18:16.908099-07:00,1959.8,598.7,1746.4,1641.6,1310.6,1332.3,1635.0,1614.3,3445.5,3451.6,1844.0,1437.8,1325.0,3440.7,1149.8,1574.9,3433.4,3449.1,824.4,1323.2,923.7,571.4,1436.9,1890.9,3446.7,3446.7,815.2,973.1,1264.9,1530.1,1318.7,1253.3,-5.0,8.0,10.0,9151.0,11848.0,4433.0,4966.0,30.0,8.0,17.0,0.0,-2.0,16.0,8032.0,6665.0,9055.0,8803.0,31.0,15.0,6.0,1.0
2022-05-03 17:18:17.055238-07:00,1959.8,596.3,1755.0,1636.9,1310.6,1332.3,1635.0,1609.6,3445.5,3446.7,1841.1,1435.0,1325.0,3440.7,1149.8,1574.9,3441.9,3449.1,824.4,1323.2,929.6,567.4,1435.0,1890.9,3449.1,3446.7,815.2,973.1,1260.4,1536.6,1325.9,1253.3,-2.0,5.0,2.0,9144.0,11854.0,4431.0,4966.0,27.0,-10.0,20.0,0.0,2.0,2.0,8025.0,6669.0,9063.0,8799.0,14.0,2.0,4.0,1.0
2022-05-03 17:18:17.084707-07:00,1956.8,596.3,1755.0,1636.9,1306.1,1334.1,1637.9,1609.6,3447.9,3446.7,1841.1,1435.0,1320.5,3449.1,1146.3,1574.9,3441.9,3438.2,825.2,1316.9,929.6,567.4,1435.0,1892.8,3449.1,3446.7,820.2,974.8,1260.4,1536.6,1325.9,1253.3,-5.0,10.0,2.0,9145.0,11853.0,4428.0,4968.0,-31.0,-4.0,5.0,0.0,2.0,10.0,8026.0,6670.0,9062.0,8799.0,-8.0,-5.0,1.0,1.0
2022-05-03 17:18:17.086030-07:00,1956.8,593.1,1745.4,1636.0,1306.1,1334.1,1637.9,1595.5,3447.9,3440.7,1845.0,1438.7,1320.5,3449.1,1146.3,1570.2,3443.1,3438.2,825.2,1316.9,922.8,569.0,1431.4,1892.8,3447.9,3446.7,820.2,974.8,1263.1,1527.3,1325.0,1253.3,-3.0,3.0,10.0,9163.0,11841.0,4420.0,4971.0,-40.0,-17.0,6.0,5.0,-4.0,14.0,8030.0,6667.0,9057.0,8802.0,-11.0,-3.0,0.0,1.0
2022-05-03 17:18:17.175911-07:00,1959.8,593.1,1745.4,1636.0,1298.1,1328.7,1631.3,1595.5,3445.5,3440.7,1845.0,1438.7,1316.9,3441.9,1155.0,1570.2,3443.1,3449.1,825.2,1314.2,922.8,569.0,1431.4,1881.1,3447.9,3460.1,821.9,973.1,1263.1,1527.3,1325.0,1259.6,-2.0,4.0,8.0,9182.0,11831.0,4408.0,4972.0,-67.0,-16.0,-7.0,0.0,-4.0,12.0,8033.0,6662.0,9053.0,8807.0,-29.0,-5.0,-4.0,1.0
2022-05-03 17:18:17.235157-07:00,1959.8,593.9,1736.8,1637.9,1298.1,1328.7,1631.3,1583.3,3445.5,3449.1,1844.0,1433.2,1316.9,3441.9,1155.0,1574.9,3440.7,3449.1,825.2,1314.2,925.4,568.2,1430.5,1881.1,3450.4,3460.1,821.9,973.1,1260.4,1521.8,1325.0,1259.6,-2.0,3.0,14.0,9195.0,11822.0,4403.0,4974.0,-34.0,-2.0,-5.0,4.0,-1.0,8.0,8039.0,6658.0,9046.0,8812.0,-25.0,-13.0,2.0,1.0
2022-05-03 17:18:17.236373-07:00,1958.8,593.1,1736.8,1637.9,1306.1,1325.0,1635.0,1583.3,3449.1,3447.9,1844.0,1433.2,1316.0,3446.7,1149.8,1574.9,3440.7,3443.1,826.0,1327.8,925.4,568.2,1428.6,1888.9,3450.4,3443.1,816.0,980.7,1260.4,1521.8,1325.0,1260.4,-5.0,5.0,5.0,9203.0,11811.0,4405.0,4985.0,-34.0,29.0,-13.0,2.0,-3.0,18.0,8048.0,6654.0,9035.0,8818.0,-30.0,-11.0,-4.0,1.0
2022-05-03 17:18:17.475109-07:00,1958.8,593.1,1742.6,1638.8,1306.1,1325.0,1633.1,1579.6,3449.1,3447.9,1843.0,1446.0,1316.0,3446.7,1147.1,1572.1,3438.2,3433.4,826.0,1327.8,926.2,565.8,1428.6,1888.9,3441.9,3454.0,816.0,980.7,1276.5,1521.8,1325.0,1260.4,-2.0,7.0,11.0,9213.0,11801.0,4409.0,4986.0,-16.0,4.0,-25.0,2.0,-2.0,11.0,8052.0,6651.0,9031.0,8820.0,-6.0,-5.0,-15.0,1.0
2022-05-03 17:18:17.535455-07:00,1956.8,596.3,1742.6,1638.8,1307.0,1320.5,1633.1,1579.6,3444.3,3449.1,1843.0,1446.0,1319.6,3446.7,1147.1,1572.1,3438.2,3433.4,830.2,1326.8,926.2,565.8,1431.4,1886.0,3441.9,3454.0,813.5,975.6,1276.5,1521.8,1325.0,1263.1,-7.0,1.0,14.0,9226.0,11790.0,4413.0,4984.0,-49.0,12.0,-21.0,3.0,-4.0,11.0,8056.0,6648.0,9033.0,8818.0,-17.0,-10.0,-9.0,1.0
2022-05-03 17:18:17.536964-07:00,1956.8,596.3,1740.6,1636.9,1307.0,1320.5,1634.1,1575.8,3444.3,3449.1,1844.0,1437.8,1319.6,3446.7,1142.7,1570.2,3435.8,3438.2,830.2,1326.8,927.1,567.4,1431.4,1886.0,3437.0,3454.0,813.5,975.6,1259.6,1530.1,1325.0,1263.1,-5.0,-6.0,10.0,9243.0,11776.0,4408.0,4989.0,-32.0,-4.0,7.0,4.0,-7.0,15.0,8058.0,6645.0,9029.0,8821.0,0.0,-1.0,2.0,1.0
2022-05-03 17:18:17.537972-07:00,1967.7,588.3,1740.6,1636.9,1300.7,1332.3,1634.1,1575.8,3449.1,3454.0,1844.0,1437.8,1318.7,3438.2,1142.7,1570.2,3435.8,3438.2,826.0,1323.2,927.1,567.4,1429.5,1887.9,3437.0,3454.0,817.7,977.3,1259.6,1530.1,1325.9,1257.8,-8.0,1.0,5.0,9237.0,11781.0,4402.0,4993.0,25.0,-2.0,25.0,4.0,-2.0,12.0,8056.0,6649.0,9033.0,8817.0,30.0,8.0,9.0,1.0
2022-05-03 17:18:17.565510-07:00,1967.7,588.3,1741.6,1626.5,1300.7,1323.2,1632.2,1572.1,3449.1,3454.0,1841.1,1435.0,1318.7,3438.2,1148.9,1571.1,3441.9,3438.2,822.7,1323.2,930.5,569.0,1429.5,1887.9,3443.1,3449.1,816.0,977.3,1258.7,1525.5,1325.9,1257.8,-6.0,6.0,9.0,9223.0,11791.0,4402.0,4996.0,34.0,15.0,15.0,3.0,-6.0,16.0,8051.0,6654.0,9039.0,8811.0,12.0,2.0,8.0,1.0
2022-05-03 17:18:17.685413-07:00,1954.8,595.5,1738.7,1626.5,1307.0,1323.2,1632.2,1572.1,3444.3,3443.1,1835.2,1435.0,1320.5,3438.2,1148.9,1571.1,3441.9,3438.2,822.7,1328.7,930.5,572.2,1428.6,1886.9,3443.1,3449.1,816.0,979.0,1258.7,1519.0,1319.6,1276.5,0.0,5.0,9.0,9206.0,11802.0,4404.0,5001.0,35.0,15.0,24.0,5.0,2.0,9.0,8049.0,6657.0,9042.0,8808.0,3.0,4.0,9.0,1.0
2022-05-03 17:18:17.715106-07:00,1956.8,586.7,1737.8,1634.1,1295.4,1324.1,1627.5,1565.5,3449.1,3449.1,1829.4,1425.9,1316.0,3447.9,1147.1,1574.9,3438.2,3441.9,828.5,1325.0,927.9,577.0,1433.2,1886.9,3447.9,3439.5,820.2,979.0,1260.4,1527.3,1319.6,1256.0,-9.0,4.0,4.0,9178.0,11803.0,4422.0,5032.0,35.0,16.0,7.0,5.0,-4.0,13.0,8045.0,6653.0,9040.0,8816.0,30.0,26.0,0.0,1.0
2022-05-03 17:18:17.716238-07:00,1956.8,586.7,1737.8,1634.1,1295.4,1319.6,1619.9,1549.7,3449.1,3449.1,1829.4,1436.9,1316.0,3447.9,1155.0,1578.6,3445.5,3449.1,828.5,1325.0,933.0,577.0,1433.2,1886.9,3445.5,3434.6,816.9,979.0,1262.2,1527.3,1319.6,1256.0,-7.0,3.0,4.0,9163.0,11814.0,4429.0,5029.0,31.0,18.0,16.0,0.0,-1.0,10.0,8038.0,6653.0,9047.0,8815.0,9.0,7.0,1.0,1.0
2022-05-03 17:18:17.717013-07:00,1953.9,590.7,1734.9,1634.1,1296.3,1319.6,1619.9,1549.7,3438.2,3446.7,1841.1,1436.9,1318.7,3447.9,1155.0,1578.6,3445.5,3449.1,828.5,1324.1,933.0,573.0,1420.4,1883.0,3445.5,3434.6,816.9,976.5,1262.2,1526.4,1316.9,1254.2,-8.0,-1.0,9.0,9156.0,11816.0,4426.0,5038.0,24.0,1.0,36.0,4.0,-5.0,17.0,8040.0,6652.0,9044.0,8818.0,-1.0,-1.0,8.0,1.0
2022-05-03 17:18:17.865333-07:00,1953.9,590.7,1734.9,1635.0,1291.8,1322.3,1623.7,1563.7,3438.2,3446.7,1841.1,1438.7,1316.9,3438.2,1154.2,1574.9,3437.0,3446.7,828.5,1324.1,928.8,573.0,1420.4,1883.0,3443.1,3445.5,817.7,979.9,1267.6,1526.4,1316.9,1254.2,0.0,13.0,9.0,9141.0,11829.0,4419.0,5041.0,15.0,-7.0,23.0,5.0,0.0,7.0,8040.0,6652.0,9043.0,8819.0,2.0,3.0,8.0,1.0
2022-05-03 17:18:18.015141-07:00,1960.8,585.1,1736.8,1631.3,1291.8,1322.3,1623.7,1563.7,3452.8,3440.7,1838.2,1435.0,1316.9,3438.2,1154.2,1574.9,3437.0,3446.7,828.5,1324.1,923.7,573.8,1425.0,1874.2,3443.1,3445.5,817.7,979.9,1256.9,1524.5,1319.6,1253.3,-8.0,0.0,11.0,9134.0,11831.0,4422.0,5049.0,33.0,33.0,15.0,2.0,-5.0,18.0,8042.0,6650.0,9039.0,8822.0,2.0,5.0,4.0,1.0
2022-05-03 17:18:18.016927-07:00,1960.8,585.1,1736.8,1631.3,1289.1,1321.4,1615.2,1562.7,3452.8,3440.7,1838.2,1435.0,1317.8,3440.7,1147.1,1575.8,3431.0,3439.5,827.7,1313.3,923.7,573.8,1425.0,1874.2,3438.2,3440.7,818.5,979.9,1256.9,1524.5,1319.6,1253.3,-2.0,13.0,2.0,9117.0,11838.0,4427.0,5057.0,13.0,23.0,9.0,4.0,4.0,5.0,8037.0,6651.0,9044.0,8821.0,26.0,16.0,0.0,1.0
2022-05-03 17:18:18.165251-07:00,1948.9,600.4,1736.8,1629.4,1289.1,1321.4,1615.2,1562.7,3447.9,3443.1,1839.1,1435.0,1317.8,3440.7,1147.1,1575.8,3431.0,3439.5,827.7,1313.3,926.2,573.0,1434.1,1881.1,3438.2,3440.7,818.5,979.9,1263.1,1520.8,1324.1,1245.3,-10.0,5.0,3.0,9114.0,11837.0,4431.0,5062.0,1.0,-6.0,-1.0,2.0,-3.0,12.0,8034.0,6649.0,9045.0,8824.0,-4.0,3.0,-6.0,1.0
2022-05-03 17:18:18.345836-07:00,1948.9,600.4,1736.8,1629.4,1289.1,1325.0,1610.5,1559.0,3447.9,3443.1,1839.1,1435.0,1316.0,3445.5,1158.6,1573.9,3449.1,3439.5,825.2,1334.1,926.2,573.0,1434.1,1881.1,3451.6,3438.2,814.4,976.5,1263.1,1520.8,1324.1,1245.3,-6.0,6.0,12.0,9119.0,11837.0,4425.0,5057.0,-7.0,-22.0,2.0,1.0,-2.0,8.0,8036.0,6648.0,9042.0,8826.0,-15.0,-10.0,-5.0,1.0
2022-05-03 17:18:18.645364-07:00,1959.8,588.3,1728.2,1626.5,1289.1,1325.0,1610.5,1549.7,3444.3,3440.7,1840.1,1441.5,1316.0,3445.5,1158.6,1574.9,3450.4,3439.5,825.2,1334.1,926.2,574.6,1423.1,1885.0,3451.6,3438.2,814.4,976.5,1262.2,1529.2,1315.1,1241.7,-9.0,0.0,17.0,9125.0,11835.0,4421.0,5056.0,-7.0,-1.0,-4.0,6.0,-8.0,20.0,8041.0,6645.0,9036.0,8830.0,-2.0,-1.0,-2.0,1.0
2022-05-03 17:18:18.647444-07:00,1959.8,588.3,1728.2,1626.5,1288.2,1322.3,1611.5,1549.7,3439.5,3440.7,1840.1,1441.5,1318.7,3446.7,1158.6,1574.9,3450.4,3441.9,823.5,1324.1,926.2,574.6,1423.1,1885.0,3451.6,3447.9,813.5,979.9,1262.2,1529.2,1315.1,1246.2,-11.0,-3.0,13.0,9123.0,11836.0,4422.0,5055.0,27.0,-3.0,6.0,1.0,-8.0,15.0,8042.0,6645.0,9034.0,8832.0,10.0,5.0,-2.0,1.0
2022-05-03 17:18:18.648315-07:00,1959.8,585.1,1724.4,1630.3,1288.2,1322.3,1611.5,1562.7,3439.5,3444.3,1837.2,1441.5,1318.7,3446.7,1158.6,1574.9,3435.8,3441.9,823.5,1324.1,921.1,570.6,1425.9,1885.0,3447.9,3447.9,813.5,979.9,1262.2,1525.5,1325.0,1246.2,-8.0,-3.0,15.0,9105.0,11852.0,4424.0,5048.0,85.0,-13.0,19.0,6.0,-8.0,13.0,8039.0,6649.0,9037.0,8828.0,23.0,-2.0,9.0,1.0
2022-05-03 17:18:18.649036-07:00,1954.8,585.1,1724.4,1630.3,1292.7,1326.8,1612.4,1562.7,3454.0,3444.3,1837.2,1441.5,1320.5,3443.1,1153.3,1574.9,3435.8,3441.9,825.2,1325.9,921.1,570.6,1425.9,1879.1,3447.9,3445.5,809.4,975.6,1262.2,1525.5,1325.0,1246.2,-7.0,2.0,22.0,9065.0,11887.0,4433.0,5030.0,215.0,-40.0,1.0,5.0,-7.0,7.0,8027.0,6662.0,9043.0,8823.0,79.0,2.0,18.0,1.0
2022-05-03 17:18:18.675794-07:00,1942.0,592.3,1799.4,1628.4,1285.5,1334.1,1590.8,1678.6,3440.7,3443.1,1830.4,1433.2,1320.5,3444.3,1134.0,1573.0,3440.7,3439.5,829.4,1317.8,922.8,571.4,1436.0,1880.1,3444.3,3449.1,800.2,978.2,1266.7,1524.5,1323.2,1257.8,0.0,20.0,37.0,8570.0,12276.0,4764.0,4648.0,417.0,-60.0,-102.0,0.0,4.0,20.0,7820.0,6794.0,9198.0,8748.0,157.0,29.0,52.0,1.0
2022-05-03 17:18:18.795022-07:00,2015.4,601.2,1585.2,1632.2,1259.6,1366.6,1489.3,1526.4,3441.9,3441.9,1820.7,1436.9,1319.6,3443.1,1126.1,1563.7,3440.7,3441.9,826.0,1325.0,922.8,571.4,1458.9,1885.0,3454.0,3444.3,776.1,978.2,1259.6,1528.3,1317.8,1236.4,-8.0,15.0,7.0,8390.0,12324.0,5096.0,4494.0,139.0,49.0,43.0,1.0,-5.0,6.0,7704.0,6847.0,9308.0,8693.0,72.0,12.0,6.0,1.0
2022-05-03 17:18:18.797386-07:00,1996.5,605.2,1564.6,1632.2,1258.7,1366.6,1489.3,1526.4,3437.0,3444.3,1815.8,1436.9,1319.6,3443.1,1126.1,1563.7,3440.7,3441.9,826.0,1322.3,922.8,572.2,1455.2,1886.0,3454.0,3444.3,776.1,980.7,1259.6,1522.7,1316.9,1241.7,-14.0,-5.0,1.0,8362.0,12327.0,5115.0,4516.0,12.0,70.0,20.0,4.0,0.0,16.0,7693.0,6849.0,9318.0,8690.0,20.0,23.0,4.0,1.0
2022-05-03 17:18:18.798182-07:00,1996.5,605.2,1564.6,1622.8,1258.7,1355.8,1477.3,1519.0,3437.0,3444.3,1815.8,1431.4,1319.6,3444.3,1122.6,1568.3,3439.5,3444.3,824.4,1322.3,921.1,572.2,1455.2,1886.0,3438.2,3438.2,776.1,980.7,1252.4,1522.7,1316.9,1241.7,-6.0,3.0,-2.0,8341.0,12340.0,5113.0,4523.0,53.0,-6.0,44.0,0.0,4.0,6.0,7684.0,6851.0,9328.0,8686.0,28.0,9.0,2.0,1.0
2022-05-03 17:18:18.975116-07:00,1994.5,605.2,1551.5,1627.5,1256.9,1355.8,1477.3,1519.0,3446.7,3440.7,1819.7,1435.0,1309.7,3444.3,1122.6,1568.3,3439.5,3444.3,824.4,1321.4,919.4,565.8,1457.1,1879.1,3438.2,3438.2,776.1,976.5,1260.4,1520.8,1309.7,1237.3,-8.0,0.0,2.0,8333.0,12349.0,5100.0,4527.0,-10.0,-14.0,39.0,2.0,3.0,10.0,7686.0,6850.0,9326.0,8687.0,-21.0,-6.0,4.0,1.0
2022-05-03 17:18:18.976485-07:00,1994.5,605.2,1551.5,1627.5,1263.1,1353.1,1466.3,1513.4,3446.7,3440.7,1819.7,1435.0,1319.6,3437.0,1123.5,1577.7,3440.7,3446.7,828.5,1328.7,919.4,565.8,1457.1,1879.1,3444.3,3447.9,775.3,972.2,1260.4,1520.8,1309.7,1237.3,-2.0,0.0,10.0,8333.0,12355.0,5083.0,4530.0,8.0,-24.0,39.0,7.0,3.0,9.0,7688.0,6848.0,9322.0,8692.0,2.0,-6.0,3.0,1.0
2022-05-03 17:18:18.977704-07:00,1992.5,606.0,1546.9,1616.2,1263.1,1353.1,1466.3,1513.4,3438.2,3439.5,1819.7,1435.0,1319.6,3437.0,1123.5,1577.7,3440.7,3446.7,828.5,1328.7,920.3,569.0,1448.8,1884.0,3444.3,3447.9,775.3,972.2,1263.1,1518.0,1314.2,1236.4,-13.0,4.0,10.0,8327.0,12362.0,5075.0,4531.0,3.0,-6.0,18.0,5.0,-3.0,16.0,7688.0,6846.0,9320.0,8694.0,1.0,10.0,-1.0,1.0
2022-05-03 17:18:19.124998-07:00,1992.5,606.0,1546.9,1616.2,1253.3,1346.7,1475.5,1511.5,3438.2,3439.5,1819.7,1435.0,1317.8,3441.9,1120.0,1566.5,3437.0,3449.1,828.5,1325.0,920.3,569.0,1448.8,1884.0,3438.2,3449.1,783.6,973.1,1263.1,1518.0,1314.2,1236.4,-9.0,0.0,13.0,8326.0,12364.0,5067.0,4536.0,8.0,13.0,33.0,4.0,1.0,7.0,7684.0,6846.0,9323.0,8695.0,13.0,12.0,2.0,1.0
2022-05-03 17:18:19.275195-07:00,1981.6,606.8,1543.1,1615.2,1253.3,1346.7,1475.5,1511.5,3443.1,3440.7,1815.8,1432.3,1317.8,3441.9,1120.0,1566.5,3437.0,3449.1,828.5,1325.0,921.1,569.8,1446.0,1885.0,3438.2,3449.1,783.6,973.1,1252.4,1573.0,1317.8,1233.7,-13.0,8.0,2.0,8310.0,12369.0,5072.0,4548.0,45.0,31.0,7.0,3.0,-1.0,16.0,7681.0,6845.0,9326.0,8696.0,17.0,15.0,0.0,1.0
2022-05-03 17:18:19.276908-07:00,1981.6,606.8,1543.1,1615.2,1253.3,1346.7,1458.9,1506.9,3443.1,3440.7,1815.8,1432.3,1311.5,3439.5,1123.5,1567.4,3433.4,3452.8,825.2,1321.4,921.1,569.8,1446.0,1885.0,3446.7,3449.1,761.2,973.1,1252.4,1573.0,1317.8,1233.7,-8.0,-3.0,3.0,8306.0,12370.0,5076.0,4545.0,10.0,-2.0,-5.0,-1.0,0.0,7.0,7672.0,6845.0,9335.0,8694.0,17.0,13.0,-4.0,1.0
2022-05-03 17:18:19.277809-07:00,1995.5,600.4,1532.9,1612.4,1253.3,1346.7,1458.9,1505.1,3447.9,3439.5,1817.8,1436.0,1311.5,3439.5,1123.5,1574.9,3435.8,3452.8,825.2,1321.4,916.0,569.0,1449.7,1888.9,3444.3,3449.1,761.2,973.1,1260.4,1525.5,1312.4,1231.9,-7.0,5.0,5.0,8302.0,12375.0,5072.0,4546.0,3.0,3.0,25.0,2.0,4.0,9.0,7671.0,6844.0,9336.0,8695.0,-8.0,-2.0,5.0,1.0
2022-05-03 17:18:19.278759-07:00,1984.6,600.4,1532.9,1612.4,1253.3,1345.8,1462.6,1505.1,3441.9,3439.5,1817.8,1436.0,1320.5,3443.1,1111.2,1574.9,3435.8,3443.1,829.4,1320.5,916.0,569.0,1449.7,1881.1,3444.3,3447.9,772.8,973.9,1260.4,1525.5,1312.4,1234.6,-7.0,0.0,10.0,8308.0,12374.0,5059.0,4549.0,-11.0,-17.0,25.0,4.0,-4.0,8.0,7673.0,6842.0,9332.0,8698.0,-7.0,1.0,-1.0,1.0
2022-05-03 17:18:19.280627-07:00,1984.6,594.7,1530.1,1616.2,1253.3,1345.8,1462.6,1500.4,3441.9,3449.1,1812.9,1430.5,1320.5,3443.1,1111.2,1568.3,3445.5,3443.1,829.4,1320.5,920.3,565.8,1443.3,1881.1,3446.7,3447.9,772.8,973.9,1256.0,1519.9,1314.2,1234.6,-7.0,2.0,9.0,8309.0,12380.0,5045.0,4548.0,-4.0,-20.0,29.0,0.0,3.0,10.0,7674.0,6841.0,9331.0,8699.0,2.0,4.0,1.0,1.0
2022-05-03 17:18:19.305888-07:00,1988.5,594.7,1530.1,1616.2,1251.5,1346.7,1461.7,1500.4,3443.1,3449.1,1812.9,1430.5,1321.4,3437.0,1115.6,1568.3,3445.5,3443.1,824.4,1326.8,920.3,565.8,1443.3,1883.0,3446.7,3454.0,773.6,971.3,1256.0,1519.9,1314.2,1216.8,-4.0,-4.0,11.0,8314.0,12382.0,5025.0,4554.0,-21.0,-13.0,53.0,6.0,-4.0,6.0,7675.0,6840.0,9330.0,8701.0,-10.0,4.0,9.0,1.0
2022-05-03 17:18:19.905562-07:00,1988.5,599.6,1521.8,1619.9,1251.5,1346.7,1461.7,1492.1,3443.1,3438.2,1817.8,1437.8,1321.4,3437.0,1115.6,1564.6,3428.6,3443.1,824.4,1326.8,914.4,573.0,1448.8,1883.0,3435.8,3454.0,773.6,971.3,1255.1,1520.8,1316.0,1216.8,-5.0,15.0,9.0,8308.0,12387.0,5013.0,4566.0,20.0,25.0,21.0,4.0,1.0,16.0,7677.0,6840.0,9326.0,8702.0,-2.0,-4.0,2.0,1.0
2022-05-03 17:18:19.906663-07:00,1976.6,601.2,1521.8,1619.9,1253.3,1345.8,1457.1,1492.1,3449.1,3440.7,1817.8,1437.8,1330.5,3446.7,1117.4,1564.6,3428.6,3440.7,821.9,1310.6,914.4,573.0,1439.6,1884.0,3435.8,3449.1,769.5,977.3,1255.1,1520.8,1317.8,1222.2,-10.0,4.0,12.0,8309.0,12382.0,5023.0,4567.0,4.0,13.0,-26.0,2.0,-4.0,15.0,7671.0,6839.0,9331.0,8703.0,33.0,20.0,-4.0,1.0
2022-05-03 17:18:19.907852-07:00,1976.6,601.2,1524.5,1614.3,1253.3,1345.8,1458.0,1500.4,3449.1,3440.7,1810.0,1432.3,1330.5,3446.7,1124.4,1573.0,3437.0,3438.2,821.9,1310.6,918.6,569.8,1439.6,1884.0,3447.9,3433.4,769.5,977.3,1260.4,1522.7,1317.8,1222.2,-7.0,-3.0,7.0,8297.0,12383.0,5037.0,4569.0,43.0,22.0,-1.0,4.0,-2.0,13.0,7661.0,6841.0,9342.0,8699.0,37.0,21.0,-2.0,1.0
2022-05-03 17:18:19.935364-07:00,1959.8,602.8,1524.5,1614.3,1248.0,1354.0,1458.0,1500.4,3449.1,3445.5,1810.0,1432.3,1316.0,3440.7,1124.4,1573.0,3437.0,3438.2,826.9,1320.5,918.6,569.8,1442.4,1887.9,3447.9,3433.4,768.7,973.1,1260.4,1522.7,1306.1,1226.6,-7.0,-2.0,-4.0,8289.0,12388.0,5041.0,4566.0,17.0,1.0,4.0,0.0,-1.0,6.0,7653.0,6843.0,9350.0,8697.0,14.0,4.0,1.0,1.0
2022-05-03 17:18:19.937615-07:00,1959.8,602.8,1512.5,1607.7,1248.0,1354.0,1454.3,1499.5,3449.1,3445.5,1811.9,1430.5,1316.0,3440.7,1114.7,1573.0,3433.4,3437.0,826.9,1320.5,916.9,567.4,1442.4,1887.9,3433.4,3444.3,768.7,973.1,1256.0,1516.2,1306.1,1226.6,-3.0,8.0,8.0,8283.0,12393.0,5042.0,4562.0,11.0,-1.0,3.0,2.0,4.0,6.0,7654.0,6843.0,9348.0,8696.0,-16.0,-12.0,6.0,1.0
2022-05-03 17:18:20.294760-07:00,1967.7,598.7,1520.8,1604.0,1242.6,1339.5,1443.3,1494.0,3449.1,3446.7,1811.9,1435.0,1321.4,3449.1,1114.7,1567.4,3441.9,3444.3,829.4,1323.2,915.2,568.2,1436.0,1876.2,3444.3,3451.6,762.0,976.5,1264.0,1520.8,1315.1,1216.8,-12.0,0.0,-13.0,8233.0,12389.0,5080.0,4621.0,-1.0,-20.0,11.0,3.0,2.0,13.0,7628.0,6842.0,9374.0,8693.0,3.0,6.0,-3.0,1.0
2022-05-03 17:18:21.045117-07:00,1967.7,598.7,1520.8,1604.0,1233.7,1349.4,1453.4,1493.0,3449.1,3446.7,1811.9,1435.0,1325.0,3437.0,1114.7,1568.3,3438.2,3439.5,823.5,1316.9,915.2,568.2,1436.0,1876.2,3446.7,3441.9,757.1,967.9,1264.0,1520.8,1315.1,1216.8,-11.0,10.0,1.0,8236.0,12394.0,5069.0,4615.0,-1.0,-46.0,14.0,2.0,4.0,7.0,7630.0,6842.0,9372.0,8694.0,-6.0,-10.0,-2.0,1.0
2022-05-03 17:18:21.046880-07:00,1964.7,594.7,1506.0,1604.0,1233.7,1349.4,1453.4,1493.0,3440.7,3444.3,1808.1,1430.5,1325.0,3437.0,1114.7,1568.3,3438.2,3439.5,823.5,1316.9,917.7,564.2,1432.3,1882.0,3446.7,3441.9,757.1,967.9,1257.8,1509.7,1315.1,1216.0,-8.0,-2.0,10.0,8245.0,12397.0,5056.0,4603.0,-15.0,-34.0,17.0,3.0,-1.0,14.0,7632.0,6841.0,9370.0,8694.0,-4.0,-1.0,-2.0,1.0
2022-05-03 17:18:21.047942-07:00,1964.7,594.7,1506.0,1604.0,1239.1,1331.4,1460.8,1492.1,3440.7,3444.3,1808.1,1430.5,1314.2,3443.1,1120.9,1570.2,3440.7,3423.7,822.7,1325.0,917.7,564.2,1432.3,1882.0,3444.3,3444.3,763.7,973.9,1257.8,1509.7,1315.1,1216.0,-9.0,8.0,4.0,8246.0,12404.0,5040.0,4602.0,-5.0,-31.0,36.0,2.0,2.0,14.0,7631.0,6842.0,9371.0,8694.0,13.0,1.0,-2.0,1.0
2022-05-03 17:18:21.051569-07:00,1960.8,602.0,1509.7,1602.1,1239.1,1331.4,1460.8,1492.1,3447.9,3449.1,1810.0,1436.0,1314.2,3443.1,1120.9,1570.2,3440.7,3423.7,822.7,1325.0,919.4,565.0,1432.3,1883.0,3444.3,3444.3,763.7,973.9,1259.6,1519.0,1311.5,1217.7,-5.0,7.0,15.0,8251.0,12407.0,5026.0,4599.0,-5.0,0.0,-1.0,1.0,-2.0,12.0,7631.0,6842.0,9371.0,8693.0,-7.0,-1.0,-2.0,1.0
2022-05-03 17:18:21.105278-07:00,1946.9,594.7,1502.3,1594.6,1228.4,1327.8,1434.1,1481.0,3445.5,3438.2,1802.3,1430.5,1319.6,3435.8,1102.5,1569.3,3439.5,3444.3,830.2,1316.0,917.7,574.6,1437.8,1882.0,3446.7,3438.2,762.0,964.5,1263.1,1514.3,1311.5,1209.7,-11.0,6.0,6.0,8205.0,12438.0,5018.0,4609.0,33.0,2.0,18.0,1.0,-1.0,15.0,7599.0,6855.0,9394.0,8686.0,26.0,6.0,2.0,1.0
2022-05-03 17:18:21.405197-07:00,1950.9,596.3,1501.4,1592.7,1228.4,1327.8,1434.1,1481.0,3438.2,3438.2,1807.1,1429.5,1319.6,3435.8,1102.5,1569.3,3439.5,3444.3,830.2,1316.0,919.4,569.0,1435.0,1876.2,3446.7,3438.2,762.0,964.5,1256.9,1519.9,1312.4,1209.7,-10.0,-5.0,10.0,8200.0,12441.0,5018.0,4608.0,-23.0,3.0,-6.0,3.0,-3.0,16.0,7598.0,6857.0,9396.0,8684.0,-10.0,1.0,3.0,1.0
2022-05-03 17:18:21.406494-07:00,1950.9,596.3,1501.4,1592.7,1235.5,1316.9,1435.0,1471.8,3438.2,3438.2,1807.1,1429.5,1320.5,3443.1,1110.4,1563.7,3441.9,3443.1,829.4,1316.0,919.4,569.0,1435.0,1876.2,3445.5,3450.4,759.6,967.1,1256.9,1519.9,1312.4,1209.7,-4.0,17.0,9.0,8201.0,12441.0,5010.0,4614.0,0.0,-6.0,42.0,4.0,5.0,11.0,7600.0,6857.0,9393.0,8686.0,11.0,-5.0,0.0,1.0
2022-05-03 17:18:21.434973-07:00,1956.8,597.9,1492.1,1604.9,1235.5,1316.9,1435.0,1471.8,3449.1,3449.1,1794.5,1426.8,1320.5,3443.1,1110.4,1563.7,3441.9,3443.1,829.4,1316.0,922.0,569.8,1441.5,1888.9,3445.5,3450.4,759.6,967.1,1257.8,1521.8,1307.9,1209.7,-15.0,85.0,22.0,8212.0,12430.0,4995.0,4641.0,-137.0,77.0,52.0,2.0,21.0,27.0,7603.0,6851.0,9397.0,8683.0,24.0,39.0,-78.0,1.0
2022-05-03 17:18:21.945014-07:00,1956.8,597.9,1492.1,1604.9,1238.2,1333.2,1458.0,1481.0,3449.1,3449.1,1794.5,1426.8,1319.6,3447.9,1113.9,1572.1,3441.9,3432.2,826.9,1316.9,922.0,569.8,1441.5,1888.9,3450.4,3446.7,774.5,979.0,1257.8,1521.8,1307.9,1209.7,-28.0,17.0,-28.0,8355.0,12300.0,4963.0,4765.0,-771.0,146.0,-10.0,1.0,0.0,-3.0,7627.0,6807.0,9410.0,8683.0,-207.0,29.0,-84.0,1.0
2022-05-03 17:18:22.005429-07:00,1995.5,594.7,1721.5,1642.6,1238.2,1333.2,1458.0,1626.5,3449.1,3441.9,1817.8,1436.9,1319.6,3447.9,1113.9,1568.3,3439.5,3432.2,826.9,1316.9,918.6,570.6,1431.4,1878.1,3450.4,3446.7,774.5,979.0,1259.6,1519.0,1307.9,1214.2,-14.0,-47.0,7.0,8516.0,12188.0,4890.0,4843.0,-142.0,-30.0,74.0,4.0,-20.0,20.0,7676.0,6762.0,9376.0,8711.0,-92.0,-77.0,-27.0,1.0
2022-05-03 17:18:22.007894-07:00,2008.4,594.7,1721.5,1642.6,1247.1,1338.6,1522.7,1626.5,3451.6,3441.9,1817.8,1436.9,1316.9,3439.5,1119.1,1568.3,3439.5,3438.2,826.0,1317.8,918.6,570.6,1431.4,1879.1,3450.4,3449.1,801.0,979.0,1259.6,1519.0,1307.9,1209.7,-7.0,12.0,32.0,8529.0,12206.0,4836.0,4831.0,-77.0,-119.0,74.0,3.0,-8.0,19.0,7705.0,6757.0,9358.0,8709.0,-18.0,-12.0,-18.0,1.0
2022-05-03 17:18:22.008528-07:00,2008.4,594.7,1721.5,1642.6,1247.1,1338.6,1522.7,1626.5,3451.6,3441.9,1817.8,1436.9,1316.9,3439.5,1119.1,1568.3,3439.5,3438.2,826.0,1317.8,918.6,570.6,1431.4,1879.1,3450.4,3449.1,801.0,979.0,1259.6,1519.0,1307.9,1209.7,-7.0,12.0,32.0,8529.0,12206.0,4836.0,4831.0,-77.0,-119.0,74.0,3.0,-8.0,19.0,7705.0,6757.0,9358.0,8709.0,-18.0,-12.0,-18.0,1.0
2022-05-03 17:18:22.125885-07:00,2031.4,595.5,1832.3,1636.0,1244.4,1332.3,1608.7,1767.5,3443.1,3438.2,1814.9,1432.3,1308.8,3458.9,1115.6,1559.0,3438.2,3437.0,826.9,1307.9,916.0,567.4,1435.0,1890.9,3441.9,3433.4,825.2,973.9,1246.2,1520.8,1308.8,1206.2,-3.0,18.0,12.0,8614.0,12166.0,4694.0,4918.0,-258.0,43.0,125.0,-1.0,12.0,13.0,7713.0,6739.0,9360.0,8713.0,-44.0,-15.0,-38.0,1.0
2022-05-03 17:18:22.126899-07:00,2031.4,597.1,1927.2,1657.7,1244.4,1332.3,1608.7,1923.3,3443.1,3438.2,1817.8,1433.2,1308.8,3458.9,1115.6,1570.2,3439.5,3437.0,826.9,1307.9,922.8,562.6,1434.1,1890.9,3444.3,3433.4,825.2,973.9,1260.4,1523.6,1309.7,1206.2,-9.0,7.0,7.0,8655.0,12141.0,4654.0,4946.0,-84.0,-75.0,26.0,20.0,-4.0,44.0,7730.0,6724.0,9354.0,8716.0,44.0,28.0,-57.0,1.0
2022-05-03 17:18:22.155117-07:00,2031.4,597.1,1927.2,1657.7,1244.4,1332.3,1608.7,1923.3,3443.1,3438.2,1817.8,1433.2,1308.8,3458.9,1115.6,1570.2,3439.5,3437.0,826.9,1307.9,922.8,562.6,1434.1,1890.9,3444.3,3433.4,825.2,973.9,1260.4,1523.6,1309.7,1206.2,-9.0,7.0,7.0,8655.0,12141.0,4654.0,4946.0,-84.0,-75.0,26.0,20.0,-4.0,44.0,7730.0,6724.0,9354.0,8716.0,44.0,28.0,-57.0,1.0
2022-05-03 17:18:22.156371-07:00,1999.5,594.7,1798.4,1615.2,1316.9,1307.9,1650.2,1710.0,3443.1,3449.1,1811.0,1434.1,1318.7,3444.3,1116.5,1559.9,3449.1,3440.7,823.5,1319.6,924.5,565.8,1407.6,1878.1,3449.1,3445.5,826.9,965.4,1256.9,1526.4,1319.6,1264.0,-9.0,2.0,14.0,9133.0,11969.0,4358.0,4773.0,-39.0,-4.0,-4.0,7.0,-2.0,15.0,7876.0,6630.0,9254.0,8765.0,-12.0,16.0,2.0,1.0
2022-05-03 17:18:22.156963-07:00,1999.5,594.7,1798.4,1615.2,1316.9,1307.9,1650.2,1710.0,3443.1,3449.1,1811.0,1434.1,1318.7,3444.3,1116.5,1559.9,3449.1,3440.7,823.5,1319.6,924.5,565.8,1407.6,1878.1,3449.1,3445.5,826.9,965.4,1256.9,1526.4,1319.6,1264.0,-9.0,2.0,14.0,9133.0,11969.0,4358.0,4773.0,-39.0,-4.0,-4.0,7.0,-2.0,15.0,7876.0,6630.0,9254.0,8765.0,-12.0,16.0,2.0,1.0
2022-05-03 17:18:22.158061-07:00,1981.6,584.3,1790.7,1619.0,1325.9,1321.4,1633.1,1699.5,3441.9,3443.1,1829.4,1437.8,1317.8,3443.1,1119.1,1559.0,3449.1,3435.8,826.0,1316.9,925.4,565.0,1421.3,1873.2,3447.9,3438.2,820.2,967.1,1252.4,1522.7,1315.1,1247.1,-6.0,3.0,7.0,9116.0,11985.0,4365.0,4759.0,-1.0,30.0,-11.0,6.0,-2.0,10.0,7859.0,6626.0,9274.0,8761.0,32.0,34.0,0.0,1.0
2022-05-03 17:18:22.185718-07:00,1981.6,584.3,1790.7,1616.2,1325.9,1314.2,1621.8,1679.5,3441.9,3443.1,1829.4,1430.5,1317.8,3443.1,1120.0,1562.7,3439.5,3438.2,821.0,1316.9,922.0,565.0,1421.3,1873.2,3446.7,3449.1,822.7,967.1,1255.1,1522.7,1315.1,1247.1,-11.0,7.0,8.0,9110.0,11982.0,4377.0,4767.0,27.0,41.0,-7.0,0.0,-4.0,9.0,7844.0,6626.0,9289.0,8758.0,37.0,27.0,-2.0,1.0
2022-05-03 17:18:22.186842-07:00,1982.6,595.5,1789.7,1615.2,1306.1,1314.2,1621.8,1679.5,3455.2,3446.7,1811.9,1437.8,1311.5,3443.1,1120.0,1562.7,3439.5,3438.2,821.0,1319.6,923.7,565.8,1419.5,1886.9,3446.7,3449.1,822.7,964.5,1258.7,1523.6,1322.3,1244.4,-11.0,4.0,-3.0,9098.0,11982.0,4391.0,4776.0,1.0,26.0,2.0,1.0,0.0,10.0,7837.0,6626.0,9297.0,8757.0,7.0,9.0,2.0,1.0
2022-05-03 17:18:22.484905-07:00,1982.6,595.5,1789.7,1615.2,1307.9,1310.6,1619.9,1672.9,3455.2,3446.7,1811.9,1437.8,1317.8,3438.2,1119.1,1562.7,3433.4,3438.2,821.9,1317.8,923.7,565.8,1419.5,1886.9,3441.9,3449.1,819.4,959.4,1258.7,1523.6,1322.3,1244.4,-5.0,3.0,3.0,9099.0,11980.0,4391.0,4778.0,-8.0,-21.0,11.0,2.0,-1.0,6.0,7839.0,6625.0,9294.0,8758.0,-20.0,-15.0,-2.0,1.0
2022-05-03 17:18:22.486569-07:00,1983.6,592.3,1782.0,1614.3,1307.9,1310.6,1619.9,1672.9,3445.5,3440.7,1814.9,1429.5,1317.8,3438.2,1119.1,1562.7,3433.4,3438.2,821.9,1317.8,927.9,569.0,1415.8,1880.1,3441.9,3449.1,819.4,959.4,1255.1,1522.7,1309.7,1244.4,-11.0,2.0,13.0,9103.0,11981.0,4381.0,4778.0,-4.0,-15.0,34.0,4.0,-4.0,14.0,7847.0,6621.0,9284.0,8764.0,-18.0,-7.0,3.0,1.0
2022-05-03 17:18:22.515822-07:00,1983.6,592.3,1782.0,1614.3,1302.5,1310.6,1613.4,1668.2,3445.5,3440.7,1814.9,1429.5,1316.0,3446.7,1114.7,1562.7,3438.2,3439.5,826.9,1312.4,927.9,569.0,1415.8,1880.1,3454.0,3444.3,820.2,967.1,1255.1,1522.7,1309.7,1244.4,-4.0,8.0,12.0,9104.0,11982.0,4372.0,4781.0,10.0,8.0,-1.0,8.0,-4.0,13.0,7848.0,6621.0,9283.0,8766.0,-2.0,9.0,-1.0,1.0
2022-05-03 17:18:22.516922-07:00,1971.7,588.3,1779.1,1614.3,1302.5,1310.6,1613.4,1668.2,3446.7,3447.9,1814.9,1434.1,1316.0,3446.7,1114.7,1562.7,3438.2,3439.5,826.9,1312.4,923.7,571.4,1417.6,1878.1,3454.0,3444.3,820.2,967.1,1252.4,1520.8,1325.0,1235.5,-8.0,3.0,8.0,9099.0,11986.0,4377.0,4778.0,24.0,3.0,-12.0,0.0,-2.0,8.0,7842.0,6619.0,9287.0,8768.0,21.0,20.0,-5.0,1.0
2022-05-03 17:18:22.518800-07:00,1976.6,588.3,1779.1,1614.3,1296.3,1308.8,1611.5,1663.4,3449.1,3447.9,1814.9,1434.1,1311.5,3439.5,1114.7,1564.6,3440.7,3445.5,826.0,1324.1,923.7,571.4,1417.6,1881.1,3443.1,3449.1,814.4,962.8,1252.4,1520.8,1325.0,1239.9,-6.0,7.0,1.0,9095.0,11988.0,4382.0,4776.0,18.0,-11.0,10.0,0.0,-5.0,10.0,7835.0,6617.0,9294.0,8768.0,20.0,22.0,-2.0,1.0
2022-05-03 17:18:22.519811-07:00,1976.6,582.6,1780.1,1607.7,1296.3,1308.8,1611.5,1665.3,3449.1,3451.6,1811.9,1434.1,1311.5,3439.5,1114.7,1566.5,3437.0,3445.5,826.0,1324.1,922.0,568.2,1407.6,1881.1,3443.1,3449.1,814.4,962.8,1256.0,1519.9,1321.4,1239.9,-9.0,6.0,5.0,9092.0,11993.0,4381.0,4770.0,-7.0,-12.0,2.0,-2.0,0.0,3.0,7834.0,6617.0,9295.0,8768.0,0.0,-1.0,-5.0,1.0
2022-05-03 17:18:22.725289-07:00,1971.7,582.6,1780.1,1607.7,1295.4,1310.6,1609.6,1665.3,3451.6,3451.6,1811.9,1434.1,1313.3,3440.7,1121.7,1566.5,3437.0,3440.7,825.2,1316.0,922.0,568.2,1407.6,1885.0,3443.1,3445.5,821.0,964.5,1256.0,1519.9,1321.4,1236.4,-5.0,-4.0,13.0,9104.0,11984.0,4376.0,4773.0,-21.0,-9.0,12.0,4.0,-6.0,14.0,7839.0,6612.0,9288.0,8774.0,-17.0,-7.0,4.0,1.0
2022-05-03 17:18:22.727740-07:00,1971.7,579.4,1767.5,1621.8,1295.4,1310.6,1609.6,1650.2,3451.6,3450.4,1807.1,1425.9,1313.3,3440.7,1121.7,1563.7,3444.3,3440.7,825.2,1316.0,923.7,569.0,1419.5,1885.0,3438.2,3445.5,821.0,964.5,1257.8,1520.8,1312.4,1236.4,-9.0,2.0,13.0,9109.0,11980.0,4373.0,4777.0,-37.0,24.0,14.0,2.0,1.0,13.0,7841.0,6611.0,9286.0,8777.0,2.0,6.0,2.0,1.0
2022-05-03 17:18:22.755188-07:00,1969.7,579.4,1767.5,1621.8,1299.8,1300.7,1606.8,1650.2,3446.7,3450.4,1807.1,1425.9,1309.7,3449.1,1111.2,1563.7,3444.3,3440.7,824.4,1316.9,923.7,569.0,1419.5,1882.0,3438.2,3450.4,818.5,970.5,1257.8,1520.8,1312.4,1236.4,-7.0,10.0,5.0,9113.0,11974.0,4369.0,4788.0,23.0,0.0,4.0,2.0,-4.0,13.0,7841.0,6610.0,9284.0,8780.0,-2.0,3.0,7.0,1.0
2022-05-03 17:18:22.815414-07:00,1969.7,578.6,1764.6,1607.7,1299.8,1300.7,1606.8,1661.5,3446.7,3446.7,1811.0,1437.8,1309.7,3449.1,1111.2,1562.7,3446.7,3440.7,824.4,1316.9,926.2,567.4,1419.5,1882.0,3438.2,3450.4,818.5,970.5,1243.5,1520.8,1314.2,1236.4,-4.0,3.0,12.0,9109.0,11978.0,4373.0,4780.0,18.0,-6.0,-18.0,2.0,3.0,11.0,7837.0,6610.0,9287.0,8780.0,10.0,14.0,-6.0,1.0
2022-05-03 17:18:22.816673-07:00,1965.7,589.1,1764.6,1607.7,1293.6,1304.3,1602.1,1661.5,3443.1,3447.9,1811.0,1437.8,1312.4,3444.3,1114.7,1562.7,3446.7,3444.3,822.7,1316.9,926.2,567.4,1405.8,1879.1,3438.2,3449.1,825.2,962.8,1243.5,1520.8,1321.4,1223.9,-8.0,8.0,6.0,9111.0,11977.0,4371.0,4783.0,-10.0,-9.0,22.0,0.0,2.0,10.0,7834.0,6605.0,9289.0,8783.0,-5.0,15.0,4.0,1.0
2022-05-03 17:18:22.818366-07:00,1965.7,589.1,1772.3,1609.6,1293.6,1304.3,1604.0,1647.3,3443.1,3447.9,1804.2,1431.4,1312.4,3444.3,1115.6,1567.4,3444.3,3446.7,822.7,1316.9,922.8,567.4,1405.8,1879.1,3440.7,3441.9,825.2,962.8,1260.4,1514.3,1321.4,1223.9,-7.0,2.0,6.0,9116.0,11973.0,4368.0,4786.0,-37.0,-2.0,-10.0,2.0,0.0,10.0,7833.0,6604.0,9290.0,8785.0,-1.0,9.0,-6.0,1.0
2022-05-03 17:18:23.114902-07:00,1969.7,582.6,1772.3,1609.6,1296.3,1303.4,1604.0,1647.3,3451.6,3435.8,1804.2,1431.4,1317.8,3447.9,1115.6,1567.4,3444.3,3446.7,831.9,1320.5,922.8,567.4,1418.6,1882.0,3440.7,3441.9,819.4,957.7,1260.4,1514.3,1317.8,1223.9,-8.0,12.0,5.0,9125.0,11966.0,4364.0,4789.0,-20.0,-7.0,-1.0,5.0,1.0,11.0,7835.0,6601.0,9286.0,8788.0,-13.0,-1.0,-4.0,1.0
2022-05-03 17:18:23.295338-07:00,1969.7,582.6,1774.3,1611.5,1296.3,1303.4,1604.9,1655.8,3451.6,3435.8,1814.9,1434.1,1317.8,3447.9,1114.7,1559.0,3444.3,3435.8,831.9,1320.5,923.7,565.0,1418.6,1882.0,3443.1,3458.9,819.4,957.7,1261.3,1523.6,1317.8,1223.9,-8.0,-6.0,14.0,9130.0,11962.0,4364.0,4790.0,7.0,0.0,0.0,-1.0,-5.0,12.0,7836.0,6601.0,9285.0,8789.0,3.0,0.0,-5.0,1.0
2022-05-03 17:18:23.324941-07:00,1959.8,583.5,1774.3,1611.5,1288.2,1297.2,1604.9,1655.8,3434.6,3438.2,1814.9,1434.1,1312.4,3449.1,1114.7,1559.0,3444.3,3435.8,824.4,1318.7,923.7,565.0,1412.2,1883.0,3443.1,3458.9,814.4,962.8,1261.3,1523.6,1321.4,1240.8,-7.0,11.0,0.0,9126.0,11964.0,4366.0,4790.0,6.0,14.0,1.0,3.0,-3.0,11.0,7836.0,6601.0,9285.0,8789.0,1.0,1.0,3.0,1.0
2022-05-03 17:18:23.565311-07:00,1959.8,583.5,1757.9,1612.4,1288.2,1297.2,1599.3,1651.1,3434.6,3438.2,1812.9,1435.0,1312.4,3449.1,1111.2,1567.4,3441.9,3438.2,824.4,1318.7,919.4,573.0,1412.2,1883.0,3445.5,3454.0,814.4,962.8,1259.6,1519.9,1321.4,1240.8,-12.0,-2.0,7.0,9128.0,11963.0,4368.0,4790.0,-17.0,7.0,-6.0,0.0,0.0,10.0,7836.0,6601.0,9286.0,8789.0,-3.0,4.0,-6.0,1.0
2022-05-03 17:18:23.595567-07:00,1958.8,581.8,1762.7,1612.4,1287.3,1300.7,1599.3,1651.1,3444.3,3443.1,1804.2,1435.0,1321.4,3446.7,1111.2,1567.4,3441.9,3438.2,823.5,1316.9,919.4,562.6,1414.0,1880.1,3445.5,3454.0,820.2,962.0,1259.6,1519.9,1313.3,1232.8,-2.0,6.0,4.0,9134.0,11963.0,4357.0,4785.0,-22.0,-42.0,12.0,1.0,4.0,2.0,7837.0,6601.0,9285.0,8789.0,-11.0,-15.0,-4.0,1.0
2022-05-03 17:18:23.596579-07:00,1958.8,581.8,1762.7,1608.7,1287.3,1297.2,1599.3,1644.5,3444.3,3443.1,1804.2,1433.2,1321.4,3454.0,1120.0,1569.3,3438.2,3438.2,826.9,1316.9,922.0,562.6,1414.0,1880.1,3447.9,3445.5,825.2,962.0,1257.8,1519.9,1313.3,1232.8,-9.0,6.0,7.0,9151.0,11958.0,4344.0,4779.0,-46.0,-36.0,5.0,5.0,-3.0,16.0,7846.0,6599.0,9274.0,8793.0,-28.0,-13.0,-4.0,1.0
2022-05-03 17:18:23.597306-07:00,1958.8,581.8,1762.7,1608.7,1287.3,1297.2,1599.3,1644.5,3444.3,3443.1,1804.2,1433.2,1321.4,3454.0,1120.0,1569.3,3438.2,3438.2,826.9,1316.9,922.0,562.6,1414.0,1880.1,3447.9,3445.5,825.2,962.0,1257.8,1519.9,1313.3,1232.8,-9.0,6.0,7.0,9151.0,11958.0,4344.0,4779.0,-46.0,-36.0,5.0,5.0,-3.0,16.0,7846.0,6599.0,9274.0,8793.0,-28.0,-13.0,-4.0,1.0
2022-05-03 17:18:23.597980-07:00,1958.8,581.8,1762.7,1608.7,1287.3,1297.2,1599.3,1644.5,3444.3,3443.1,1804.2,1433.2,1321.4,3454.0,1120.0,1569.3,3438.2,3438.2,826.9,1316.9,922.0,562.6,1414.0,1880.1,3447.9,3445.5,825.2,962.0,1257.8,1519.9,1313.3,1232.8,-9.0,6.0,7.0,9151.0,11958.0,4344.0,4779.0,-46.0,-36.0,5.0,5.0,-3.0,16.0,7846.0,6599.0,9274.0,8793.0,-28.0,-13.0,-4.0,1.0
2022-05-03 17:18:23.598605-07:00,1958.8,581.8,1762.7,1608.7,1287.3,1297.2,1599.3,1644.5,3444.3,3443.1,1804.2,1433.2,1321.4,3454.0,1120.0,1569.3,3438.2,3438.2,826.9,1316.9,922.0,562.6,1414.0,1880.1,3447.9,3445.5,825.2,962.0,1257.8,1519.9,1313.3,1232.8,-9.0,6.0,7.0,9151.0,11958.0,4344.0,4779.0,-46.0,-36.0,5.0,5.0,-3.0,16.0,7846.0,6599.0,9274.0,8793.0,-28.0,-13.0,-4.0,1.0
2022-05-03 17:18:23.600096-07:00,1956.8,582.6,1753.1,1616.2,1283.7,1308.8,1596.4,1664.4,3449.1,3450.4,1805.2,1429.5,1316.9,3443.1,1124.4,1567.4,3449.1,3438.2,822.7,1314.2,921.1,570.6,1407.6,1878.1,3447.9,3454.0,802.7,956.0,1252.4,1518.0,1316.0,1228.4,-10.0,4.0,6.0,9177.0,11973.0,4299.0,4730.0,-30.0,-37.0,-4.0,3.0,-4.0,13.0,7847.0,6596.0,9273.0,8795.0,-13.0,-6.0,-1.0,1.0
2022-05-03 17:18:23.626373-07:00,1954.8,580.2,1745.4,1608.7,1299.0,1356.7,1610.5,1757.0,3449.1,3440.7,1811.0,1433.2,1317.8,3450.4,1133.1,1567.4,3434.6,3437.0,819.4,1315.1,917.7,569.0,1410.3,1879.1,3452.8,3441.9,800.2,965.4,1256.9,1519.0,1317.8,1308.8,-2.0,-5.0,33.0,9364.0,11902.0,4175.0,4654.0,35.0,31.0,10.0,5.0,-9.0,32.0,7876.0,6567.0,9232.0,8835.0,73.0,12.0,-10.0,1.0
2022-05-03 17:18:23.955194-07:00,1951.9,580.2,1745.4,1608.7,1318.7,1349.4,1607.7,1757.0,3444.3,3440.7,1811.0,1433.2,1305.2,3439.5,1126.1,1567.4,3434.6,3435.8,826.0,1311.5,917.7,569.0,1410.3,1881.1,3452.8,3447.9,805.2,963.7,1256.9,1519.0,1317.8,1294.5,0.0,-24.0,29.0,9346.0,11893.0,4200.0,4691.0,50.0,167.0,49.0,1.0,-14.0,19.0,7861.0,6576.0,9249.0,8824.0,69.0,29.0,12.0,1.0
2022-05-03 17:18:24.135166-07:00,1951.9,584.3,1727.2,1605.8,1318.7,1349.4,1607.7,1753.1,3444.3,3447.9,1793.6,1426.8,1305.2,3439.5,1126.1,1569.3,3446.7,3435.8,826.0,1311.5,922.0,569.8,1406.7,1881.1,3446.7,3447.9,805.2,963.7,1252.4,1521.8,1325.0,1294.5,-8.0,25.0,-13.0,9310.0,11899.0,4219.0,4731.0,58.0,57.0,18.0,-4.0,4.0,5.0,7834.0,6585.0,9275.0,8813.0,89.0,41.0,-3.0,1.0
2022-05-03 17:18:24.136671-07:00,1933.1,584.3,1727.2,1605.8,1334.1,1318.7,1616.2,1753.1,3452.8,3447.9,1793.6,1426.8,1313.3,3441.9,1127.0,1569.3,3446.7,3444.3,823.5,1308.8,922.0,569.8,1406.7,1872.3,3446.7,3449.1,801.9,965.4,1252.4,1521.8,1325.0,1289.1,-8.0,0.0,-12.0,9295.0,11907.0,4229.0,4731.0,15.0,-10.0,4.0,-3.0,-1.0,7.0,7826.0,6587.0,9284.0,8809.0,-13.0,2.0,2.0,1.0
2022-05-03 17:18:24.165008-07:00,1933.1,582.6,1714.8,1610.5,1334.1,1318.7,1598.3,1731.1,3452.8,3449.1,1807.1,1437.8,1313.3,3441.9,1133.1,1562.7,3445.5,3447.9,823.5,1308.8,919.4,567.4,1411.3,1872.3,3440.7,3440.7,801.9,965.4,1256.9,1524.5,1322.3,1289.1,-6.0,7.0,2.0,9301.0,11918.0,4208.0,4710.0,-1.0,-91.0,11.0,0.0,0.0,8.0,7836.0,6583.0,9273.0,8815.0,-27.0,-21.0,-4.0,1.0
2022-05-03 17:18:24.167579-07:00,1947.9,575.4,1714.8,1610.5,1336.8,1316.9,1598.3,1731.1,3445.5,3446.7,1807.1,1437.8,1316.9,3449.1,1133.1,1562.7,3445.5,3447.9,820.2,1306.1,919.4,567.4,1408.5,1881.1,3440.7,3440.7,801.0,958.5,1256.9,1524.5,1325.0,1286.4,-3.0,5.0,30.0,9317.0,11913.0,4199.0,4699.0,-19.0,7.0,-20.0,5.0,-5.0,24.0,7850.0,6580.0,9257.0,8822.0,-37.0,-17.0,3.0,1.0
2022-05-03 17:18:24.345365-07:00,1947.9,575.4,1715.8,1614.3,1336.8,1316.9,1589.9,1735.8,3445.5,3446.7,1801.3,1433.2,1316.9,3449.1,1132.2,1571.1,3444.3,3434.6,820.2,1306.1,922.0,570.6,1408.5,1881.1,3438.2,3438.2,801.0,958.5,1256.0,1521.8,1325.0,1286.4,0.0,-13.0,47.0,9314.0,11901.0,4219.0,4718.0,101.0,123.0,6.0,3.0,-9.0,16.0,7844.0,6580.0,9259.0,8826.0,39.0,27.0,21.0,1.0
2022-05-03 17:18:24.346210-07:00,1947.9,575.4,1715.8,1614.3,1336.8,1316.9,1589.9,1735.8,3445.5,3446.7,1801.3,1433.2,1316.9,3449.1,1132.2,1571.1,3444.3,3434.6,820.2,1306.1,922.0,570.6,1408.5,1881.1,3438.2,3438.2,801.0,958.5,1256.0,1521.8,1325.0,1286.4,0.0,-13.0,47.0,9314.0,11901.0,4219.0,4718.0,101.0,123.0,6.0,3.0,-9.0,16.0,7844.0,6580.0,9259.0,8826.0,39.0,27.0,21.0,1.0
2022-05-03 17:18:24.347936-07:00,1940.0,583.5,1859.6,1711.0,1767.5,1368.5,1568.3,1699.5,3440.7,3445.5,1807.1,1432.3,1316.9,3446.7,1131.4,1559.0,3446.7,3428.6,824.4,1313.3,916.9,568.2,1414.9,1881.1,3441.9,3443.1,797.7,980.7,1264.0,1529.2,1363.9,1515.3,-18.0,13.0,3.0,9217.0,11894.0,4399.0,4762.0,-11.0,1.0,-25.0,5.0,-6.0,32.0,7718.0,6616.0,9360.0,8802.0,78.0,43.0,3.0,1.0
2022-05-03 17:18:24.375133-07:00,1940.0,583.5,1859.6,1787.8,1767.5,1383.9,1562.7,1687.2,3440.7,3445.5,1807.1,1429.5,1316.9,3450.4,1122.6,1567.4,3445.5,3446.7,828.5,1313.3,918.6,568.2,1414.9,1881.1,3443.1,3443.1,798.5,980.7,1258.7,1529.2,1363.9,1515.3,-2.0,-1.0,2.0,9216.0,11893.0,4412.0,4753.0,33.0,35.0,-30.0,0.0,0.0,0.0,7701.0,6624.0,9380.0,8790.0,40.0,13.0,-2.0,1.0
2022-05-03 17:18:24.765233-07:00,1935.1,589.1,1838.2,1787.8,1727.2,1383.9,1562.7,1687.2,3445.5,3440.7,1803.2,1429.5,1317.8,3450.4,1122.6,1567.4,3445.5,3446.7,828.5,1311.5,918.6,565.0,1412.2,1877.2,3443.1,3443.1,798.5,985.9,1258.7,1529.2,1352.1,1519.9,-4.0,-7.0,8.0,9201.0,11892.0,4430.0,4769.0,20.0,63.0,16.0,0.0,-3.0,6.0,7699.0,6626.0,9381.0,8789.0,-2.0,3.0,10.0,1.0
2022-05-03 17:18:24.766307-07:00,1935.1,589.1,1838.2,1787.8,1727.2,1383.9,1562.7,1687.2,3445.5,3440.7,1803.2,1429.5,1317.8,3450.4,1122.6,1567.4,3445.5,3446.7,828.5,1311.5,918.6,565.0,1412.2,1877.2,3443.1,3443.1,798.5,985.9,1258.7,1529.2,1352.1,1519.9,-4.0,-7.0,8.0,9201.0,11892.0,4430.0,4769.0,20.0,63.0,16.0,0.0,-3.0,6.0,7699.0,6626.0,9381.0,8789.0,-2.0,3.0,10.0,1.0
2022-05-03 17:18:24.768208-07:00,1931.1,580.2,1816.8,1770.4,1752.1,1402.1,1551.5,1671.9,3440.7,3449.1,1817.8,1431.4,1317.8,3438.2,1120.0,1562.7,3437.0,3439.5,833.6,1315.1,918.6,562.6,1407.6,1881.1,3449.1,3441.9,793.5,997.9,1253.3,1530.1,1348.5,1507.8,-10.0,-15.0,-29.0,8947.0,11900.0,4743.0,4929.0,27.0,432.0,69.0,0.0,0.0,10.0,7664.0,6626.0,9359.0,8844.0,-126.0,53.0,85.0,1.0
2022-05-03 17:18:24.769462-07:00,1925.2,579.4,1818.7,1739.7,1752.1,1402.1,1551.5,1671.9,3444.3,3446.7,1805.2,1431.4,1317.8,3438.2,1120.0,1562.7,3437.0,3439.5,833.6,1315.1,921.1,568.2,1412.2,1881.1,3449.1,3441.9,793.5,997.9,1262.2,1529.2,1327.8,1609.6,-12.0,-36.0,-60.0,8923.0,11834.0,4781.0,5091.0,-66.0,328.0,176.0,-3.0,0.0,0.0,7686.0,6603.0,9279.0,8926.0,-256.0,-62.0,104.0,1.0
2022-05-03 17:18:24.770437-07:00,1925.2,579.4,1818.7,1739.7,1660.6,1375.7,1564.6,1680.5,3444.3,3446.7,1805.2,1431.4,1309.7,3433.4,1120.9,1560.9,3440.7,3446.7,827.7,1308.8,921.1,568.2,1412.2,1881.1,3443.1,3444.3,795.2,995.3,1262.2,1529.2,1327.8,1609.6,-26.0,-16.0,-27.0,8836.0,11878.0,4781.0,5139.0,386.0,-168.0,142.0,4.0,-23.0,25.0,7685.0,6636.0,9247.0,8935.0,124.0,-59.0,70.0,1.0
2022-05-03 17:18:25.455192-07:00,1957.8,585.1,1778.1,1710.0,1660.6,1375.7,1564.6,1680.5,3446.7,3444.3,1799.4,1426.8,1309.7,3433.4,1120.9,1560.9,3440.7,3446.7,827.7,1308.8,917.7,569.0,1411.3,1883.0,3443.1,3444.3,795.2,995.3,1257.8,1522.7,1324.1,1551.5,-3.0,-13.0,-12.0,8689.0,12051.0,4726.0,5037.0,550.0,-357.0,278.0,-1.0,-10.0,8.0,7647.0,6706.0,9256.0,8905.0,197.0,-48.0,115.0,1.0
2022-05-03 17:18:25.457864-07:00,1957.8,585.1,1778.1,1710.0,1574.9,1372.1,1530.1,1627.5,3446.7,3444.3,1799.4,1426.8,1318.7,3449.1,1113.9,1563.7,3449.1,3435.8,825.2,1311.5,917.7,569.0,1411.3,1883.0,3444.3,3449.1,791.9,983.3,1257.8,1522.7,1324.1,1551.5,-8.0,-15.0,28.0,8602.0,12278.0,4571.0,4775.0,94.0,51.0,-93.0,7.0,-20.0,32.0,7577.0,6786.0,9271.0,8888.0,87.0,26.0,-5.0,1.0
2022-05-03 17:18:25.485996-07:00,1988.5,601.2,1604.0,1665.3,1492.1,1370.3,1470.9,1524.5,3444.3,3445.5,1793.6,1429.5,1309.7,3446.7,1101.7,1559.9,3438.2,3438.2,822.7,1316.9,920.3,565.8,1429.5,1881.1,3440.7,3443.1,777.8,980.7,1267.6,1513.4,1316.9,1494.9,-2.0,13.0,16.0,8564.0,12281.0,4642.0,4765.0,124.0,167.0,-137.0,0.0,5.0,6.0,7552.0,6796.0,9303.0,8869.0,88.0,40.0,-15.0,1.0
2022-05-03 17:18:25.517500-07:00,1988.5,605.2,1576.8,1655.8,1492.1,1370.3,1470.9,1517.1,3444.3,3445.5,1792.6,1427.7,1309.7,3446.7,1101.7,1555.3,3435.8,3438.2,822.7,1316.9,921.1,569.0,1437.8,1881.1,3439.5,3443.1,777.8,980.7,1257.8,1510.6,1331.4,1494.9,-12.0,-6.0,0.0,8523.0,12263.0,4746.0,4785.0,58.0,222.0,-113.0,-3.0,1.0,12.0,7537.0,6797.0,9327.0,8856.0,49.0,43.0,-14.0,1.0
2022-05-03 17:18:25.518758-07:00,1986.6,602.0,1576.8,1655.8,1473.6,1365.7,1456.2,1517.1,3446.7,3449.1,1792.6,1427.7,1308.8,3449.1,1103.4,1555.3,3435.8,3440.7,826.9,1314.2,921.1,569.0,1425.9,1875.2,3439.5,3449.1,775.3,978.2,1257.8,1510.6,1315.1,1485.6,-21.0,-9.0,-25.0,8493.0,12245.0,4812.0,4817.0,81.0,40.0,17.0,-2.0,-1.0,12.0,7520.0,6794.0,9346.0,8854.0,66.0,33.0,-13.0,1.0
2022-05-03 17:18:25.519885-07:00,1986.6,602.0,1559.0,1656.8,1473.6,1365.7,1448.8,1505.1,3446.7,3449.1,1791.6,1426.8,1308.8,3449.1,1106.0,1559.9,3449.1,3449.1,826.9,1314.2,922.8,569.0,1425.9,1875.2,3438.2,3455.2,775.3,978.2,1261.3,1519.0,1315.1,1485.6,0.0,3.0,-12.0,8465.0,12270.0,4810.0,4804.0,11.0,-52.0,41.0,-2.0,6.0,-6.0,7508.0,6798.0,9365.0,8840.0,-7.0,-18.0,-4.0,1.0
2022-05-03 17:18:25.520420-07:00,1986.6,602.0,1559.0,1656.8,1473.6,1365.7,1448.8,1505.1,3446.7,3449.1,1791.6,1426.8,1308.8,3449.1,1106.0,1559.9,3449.1,3449.1,826.9,1314.2,922.8,569.0,1425.9,1875.2,3438.2,3455.2,775.3,978.2,1261.3,1519.0,1315.1,1485.6,0.0,3.0,-12.0,8465.0,12270.0,4810.0,4804.0,11.0,-52.0,41.0,-2.0,6.0,-6.0,7508.0,6798.0,9365.0,8840.0,-7.0,-18.0,-4.0,1.0
2022-05-03 17:18:25.521040-07:00,1967.7,598.7,1519.9,1638.8,1423.1,1354.0,1435.0,1496.7,3454.0,3444.3,1791.6,1430.5,1311.5,3439.5,1104.3,1559.9,3444.3,3444.3,823.5,1312.4,916.0,566.6,1424.1,1881.1,3447.9,3441.9,769.5,980.7,1250.6,1515.3,1311.5,1454.3,-5.0,0.0,4.0,8450.0,12298.0,4752.0,4817.0,6.0,-14.0,6.0,0.0,0.0,9.0,7510.0,6793.0,9363.0,8845.0,16.0,7.0,-2.0,1.0
2022-05-03 17:18:25.845175-07:00,1967.7,598.7,1519.9,1638.8,1420.4,1350.3,1426.8,1493.0,3454.0,3444.3,1791.6,1430.5,1311.5,3444.3,1096.4,1557.1,3444.3,3439.5,820.2,1316.0,916.0,566.6,1424.1,1881.1,3452.8,3444.3,762.0,973.1,1250.6,1515.3,1311.5,1454.3,-6.0,2.0,3.0,8450.0,12300.0,4748.0,4816.0,-2.0,-11.0,10.0,-2.0,-2.0,10.0,7510.0,6793.0,9363.0,8844.0,-9.0,4.0,-3.0,1.0
2022-05-03 17:18:25.846868-07:00,1967.7,598.7,1513.4,1630.3,1420.4,1350.3,1426.8,1493.0,3438.2,3446.7,1781.0,1427.7,1311.5,3444.3,1096.4,1557.1,3444.3,3439.5,820.2,1316.0,920.3,568.2,1425.9,1878.1,3452.8,3444.3,762.0,973.1,1256.9,1512.5,1307.0,1449.7,-4.0,0.0,7.0,8451.0,12302.0,4745.0,4811.0,11.0,-25.0,-2.0,0.0,-2.0,8.0,7511.0,6793.0,9363.0,8844.0,3.0,6.0,-12.0,1.0
2022-05-03 17:18:26.595319-07:00,1967.7,598.7,1513.4,1630.3,1418.6,1354.9,1434.1,1493.0,3438.2,3446.7,1781.0,1427.7,1328.7,3447.9,1094.7,1559.9,3444.3,3435.8,823.5,1309.7,920.3,568.2,1425.9,1878.1,3449.1,3449.1,764.5,973.1,1256.9,1512.5,1307.0,1449.7,-12.0,7.0,10.0,8452.0,12303.0,4745.0,4808.0,15.0,3.0,-1.0,-2.0,-2.0,16.0,7511.0,6792.0,9363.0,8844.0,14.0,3.0,-4.0,1.0
2022-05-03 17:18:26.625536-07:00,1957.8,605.2,1520.8,1625.6,1418.6,1354.9,1434.1,1493.0,3454.0,3437.0,1787.8,1431.4,1328.7,3447.9,1094.7,1559.9,3444.3,3435.8,823.5,1309.7,916.9,571.4,1425.0,1870.3,3449.1,3449.1,764.5,973.1,1258.7,1506.0,1304.3,1444.2,-9.0,3.0,5.0,8447.0,12305.0,4749.0,4808.0,13.0,18.0,-1.0,-1.0,-2.0,11.0,7508.0,6794.0,9368.0,8841.0,17.0,13.0,2.0,1.0
2022-05-03 17:18:26.626555-07:00,1957.8,605.2,1520.8,1625.6,1413.1,1344.0,1426.8,1489.3,3444.3,3437.0,1787.8,1431.4,1314.2,3444.3,1103.4,1567.4,3435.8,3447.9,830.2,1313.3,916.9,571.4,1425.0,1874.2,3443.1,3449.1,767.8,976.5,1258.7,1506.0,1304.3,1436.9,-6.0,2.0,0.0,8439.0,12308.0,4755.0,4808.0,13.0,4.0,5.0,-4.0,2.0,7.0,7501.0,6795.0,9375.0,8838.0,7.0,11.0,-2.0,1.0
2022-05-03 17:18:26.627884-07:00,1958.8,594.7,1522.7,1627.5,1404.0,1344.9,1418.6,1484.7,3444.3,3441.9,1795.5,1436.0,1310.6,3447.9,1097.3,1560.9,3438.2,3440.7,821.0,1308.8,915.2,569.8,1422.2,1885.0,3446.7,3449.1,762.0,973.9,1260.4,1509.7,1307.0,1437.8,-8.0,-4.0,4.0,8443.0,12307.0,4754.0,4806.0,-11.0,-11.0,2.0,-1.0,-5.0,15.0,7500.0,6793.0,9375.0,8840.0,2.0,4.0,-3.0,1.0
2022-05-03 17:18:26.629379-07:00,1958.8,597.1,1519.9,1639.8,1404.0,1344.9,1418.6,1477.3,3444.3,3445.5,1788.7,1427.7,1310.6,3447.9,1097.3,1558.1,3433.4,3440.7,821.0,1308.8,911.8,570.6,1424.1,1885.0,3454.0,3449.1,762.0,973.9,1256.0,1517.1,1300.7,1437.8,-5.0,11.0,9.0,8438.0,12312.0,4756.0,4800.0,6.0,10.0,-14.0,-1.0,0.0,15.0,7499.0,6795.0,9377.0,8838.0,-9.0,6.0,-2.0,1.0
2022-05-03 17:18:26.655282-07:00,1958.8,597.1,1519.9,1639.8,1404.0,1344.9,1418.6,1477.3,3444.3,3445.5,1788.7,1427.7,1310.6,3447.9,1097.3,1558.1,3433.4,3440.7,821.0,1308.8,911.8,570.6,1424.1,1885.0,3454.0,3449.1,762.0,973.9,1256.0,1517.1,1300.7,1437.8,-5.0,11.0,9.0,8438.0,12312.0,4756.0,4800.0,6.0,10.0,-14.0,-1.0,0.0,15.0,7499.0,6795.0,9377.0,8838.0,-9.0,6.0,-2.0,1.0
2022-05-03 17:18:27.705252-07:00,1945.9,602.8,1498.6,1619.9,1382.1,1343.1,1409.4,1477.3,3451.6,3449.1,1784.9,1434.1,1325.0,3445.5,1099.0,1564.6,3433.4,3444.3,825.2,1313.3,913.5,564.2,1421.3,1880.1,3446.7,3438.2,762.9,975.6,1256.0,1512.5,1299.8,1419.5,-2.0,13.0,11.0,8424.0,12328.0,4734.0,4803.0,-3.0,16.0,3.0,0.0,0.0,11.0,7482.0,6790.0,9393.0,8838.0,9.0,10.0,3.0,1.0
2022-05-03 17:18:27.707694-07:00,1945.9,602.8,1498.6,1619.9,1383.9,1347.6,1415.8,1481.0,3451.6,3449.1,1784.9,1434.1,1314.2,3439.5,1097.3,1555.3,3440.7,3441.9,823.5,1316.9,913.5,564.2,1421.3,1880.1,3447.9,3445.5,757.9,976.5,1256.0,1512.5,1299.8,1419.5,-9.0,0.0,9.0,8424.0,12325.0,4737.0,4809.0,30.0,1.0,1.0,1.0,-4.0,17.0,7479.0,6789.0,9396.0,8838.0,14.0,11.0,0.0,1.0
2022-05-03 17:18:27.735223-07:00,1948.9,595.5,1504.1,1623.7,1383.9,1347.6,1415.8,1481.0,3450.4,3438.2,1782.9,1433.2,1314.2,3439.5,1097.3,1555.3,3440.7,3441.9,823.5,1316.9,919.4,569.8,1420.4,1879.1,3447.9,3445.5,757.9,976.5,1256.9,1515.3,1303.4,1416.7,-1.0,4.0,10.0,8416.0,12331.0,4740.0,4804.0,-28.0,21.0,-2.0,-3.0,0.0,9.0,7473.0,6790.0,9403.0,8836.0,-1.0,10.0,1.0,1.0
2022-05-03 17:18:27.766010-07:00,1948.9,595.5,1504.1,1623.7,1379.4,1341.3,1414.9,1471.8,3450.4,3438.2,1782.9,1433.2,1312.4,3447.9,1098.2,1561.8,3441.9,3438.2,828.5,1318.7,919.4,569.8,1420.4,1879.1,3447.9,3441.9,757.9,975.6,1256.9,1515.3,1303.4,1416.7,-8.0,15.0,7.0,8418.0,12327.0,4739.0,4812.0,15.0,-14.0,6.0,0.0,3.0,13.0,7474.0,6788.0,9401.0,8838.0,-2.0,-7.0,2.0,1.0
2022-05-03 17:18:27.767843-07:00,1951.9,593.9,1508.8,1619.0,1379.4,1341.3,1414.9,1474.6,3446.7,3445.5,1790.7,1422.2,1312.4,3447.9,1098.2,1561.8,3437.0,3438.2,828.5,1318.7,917.7,565.8,1414.0,1879.1,3437.0,3441.9,757.9,975.6,1256.0,1511.5,1301.6,1417.6,-5.0,-2.0,13.0,8420.0,12329.0,4736.0,4807.0,-13.0,5.0,6.0,0.0,0.0,11.0,7475.0,6788.0,9400.0,8839.0,-14.0,-7.0,0.0,1.0
2022-05-03 17:18:27.768630-07:00,1951.9,593.9,1508.8,1619.0,1379.4,1341.3,1414.9,1474.6,3446.7,3445.5,1790.7,1422.2,1312.4,3447.9,1098.2,1561.8,3437.0,3438.2,828.5,1318.7,917.7,565.8,1414.0,1879.1,3437.0,3441.9,757.9,975.6,1256.0,1511.5,1301.6,1417.6,-5.0,-2.0,13.0,8420.0,12329.0,4736.0,4807.0,-13.0,5.0,6.0,0.0,0.0,11.0,7475.0,6788.0,9400.0,8839.0,-14.0,-7.0,0.0,1.0
2022-05-03 17:18:27.769446-07:00,1951.9,593.9,1508.8,1619.0,1379.4,1341.3,1414.9,1474.6,3446.7,3445.5,1790.7,1422.2,1312.4,3447.9,1098.2,1561.8,3437.0,3438.2,828.5,1318.7,917.7,565.8,1414.0,1879.1,3437.0,3441.9,757.9,975.6,1256.0,1511.5,1301.6,1417.6,-5.0,-2.0,13.0,8420.0,12329.0,4736.0,4807.0,-13.0,5.0,6.0,0.0,0.0,11.0,7475.0,6788.0,9400.0,8839.0,-14.0,-7.0,0.0,1.0
2022-05-03 17:18:28.035442-07:00,1967.7,583.5,1821.6,1639.8,1483.8,1339.5,1608.7,1706.2,3445.5,3440.7,1794.5,1431.4,1317.8,3444.3,1106.9,1554.3,3443.1,3440.7,827.7,1318.7,924.5,567.4,1421.3,1877.2,3454.0,3443.1,837.7,977.3,1264.0,1511.5,1310.6,1479.2,-2.0,13.0,18.0,9047.0,11998.0,4111.0,5073.0,-7.0,-36.0,-2.0,-2.0,0.0,9.0,7699.0,6598.0,9307.0,8888.0,2.0,-5.0,-6.0,1.0
2022-05-03 17:18:28.065793-07:00,1955.8,585.1,1826.5,1637.9,1483.8,1339.5,1608.7,1706.2,3450.4,3439.5,1794.5,1427.7,1317.8,3444.3,1106.9,1554.3,3443.1,3440.7,827.7,1318.7,922.8,569.8,1416.7,1878.1,3454.0,3443.1,837.7,977.3,1256.0,1513.4,1302.5,1462.6,-13.0,10.0,13.0,9054.0,11986.0,4127.0,5076.0,11.0,54.0,-39.0,2.0,-6.0,23.0,7700.0,6596.0,9305.0,8891.0,5.0,10.0,4.0,1.0
2022-05-03 17:18:28.067345-07:00,1955.8,585.1,1826.5,1637.9,1470.0,1329.6,1597.4,1695.7,3450.4,3439.5,1794.5,1427.7,1311.5,3437.0,1106.0,1559.0,3449.1,3437.0,825.2,1321.4,922.8,569.8,1416.7,1878.1,3449.1,3446.7,841.1,973.1,1256.0,1513.4,1302.5,1462.6,-7.0,-1.0,3.0,9049.0,11982.0,4150.0,5076.0,38.0,26.0,-20.0,2.0,-2.0,13.0,7690.0,6597.0,9316.0,8888.0,33.0,19.0,-3.0,1.0
2022-05-03 17:18:28.068492-07:00,1955.8,583.5,1803.2,1628.4,1470.0,1329.6,1597.4,1695.7,3435.8,3431.0,1792.6,1431.4,1311.5,3437.0,1106.0,1559.0,3449.1,3437.0,825.2,1321.4,931.3,573.8,1415.8,1874.2,3449.1,3446.7,841.1,973.1,1260.4,1511.5,1304.3,1448.8,-8.0,9.0,-5.0,9038.0,11987.0,4154.0,5078.0,4.0,-6.0,14.0,1.0,2.0,7.0,7683.0,6599.0,9324.0,8884.0,17.0,11.0,4.0,1.0
2022-05-03 17:18:28.069611-07:00,1952.9,583.5,1803.2,1628.4,1464.4,1324.1,1599.3,1689.1,3447.9,3431.0,1792.6,1431.4,1314.2,3444.3,1110.4,1557.1,3438.2,3441.9,826.0,1317.8,931.3,573.8,1415.8,1878.1,3450.4,3451.6,841.1,974.8,1260.4,1511.5,1304.3,1444.2,-3.0,1.0,1.0,9039.0,11992.0,4144.0,5074.0,-9.0,-25.0,14.0,-2.0,0.0,3.0,7683.0,6598.0,9324.0,8884.0,-6.0,-7.0,-2.0,1.0
2022-05-03 17:18:28.395068-07:00,1952.9,579.4,1792.6,1636.9,1464.4,1324.1,1599.3,1683.3,3447.9,3444.3,1794.5,1430.5,1314.2,3444.3,1110.4,1559.0,3443.1,3441.9,826.0,1317.8,924.5,573.0,1411.3,1878.1,3441.9,3451.6,841.1,974.8,1256.9,1514.3,1304.3,1444.2,-6.0,10.0,11.0,9048.0,11985.0,4145.0,5076.0,-14.0,10.0,-9.0,3.0,-3.0,11.0,7689.0,6594.0,9317.0,8890.0,18.0,16.0,5.0,1.0
2022-05-03 17:18:28.396229-07:00,1945.0,581.0,1792.6,1627.5,1469.0,1326.8,1593.6,1671.9,3443.1,3444.3,1791.6,1434.1,1312.4,3446.7,1103.4,1563.7,3440.7,3449.1,825.2,1314.2,927.9,572.2,1414.9,1888.9,3447.9,3451.6,844.4,970.5,1263.1,1508.8,1302.5,1425.9,-5.0,-1.0,3.0,9053.0,11977.0,4150.0,5079.0,-9.0,9.0,-6.0,-1.0,-2.0,7.0,7686.0,6591.0,9320.0,8892.0,5.0,10.0,1.0,1.0
2022-05-03 17:18:28.634925-07:00,1945.0,581.0,1792.6,1627.5,1444.2,1322.3,1588.9,1671.9,3446.7,3444.3,1791.6,1434.1,1314.2,3440.7,1106.0,1563.7,3440.7,3435.8,826.9,1314.2,927.9,572.2,1414.9,1880.1,3447.9,3438.2,846.1,981.6,1263.1,1508.8,1302.5,1437.8,-8.0,8.0,3.0,9057.0,11975.0,4147.0,5078.0,-18.0,-15.0,6.0,-3.0,-2.0,11.0,7687.0,6590.0,9319.0,8893.0,-3.0,-3.0,2.0,1.0
2022-05-03 17:18:28.844845-07:00,1945.0,581.8,1782.0,1619.0,1444.2,1322.3,1588.9,1669.1,3446.7,3445.5,1791.6,1430.5,1314.2,3440.7,1106.0,1555.3,3444.3,3435.8,826.9,1314.2,925.4,568.2,1410.3,1880.1,3449.1,3438.2,846.1,981.6,1273.0,1503.2,1310.6,1437.8,-8.0,10.0,11.0,9059.0,11974.0,4148.0,5078.0,6.0,1.0,-4.0,1.0,-2.0,16.0,7690.0,6588.0,9315.0,8895.0,0.0,-3.0,0.0,1.0
2022-05-03 17:18:28.845964-07:00,1940.0,578.6,1782.0,1619.0,1448.8,1321.4,1591.7,1669.1,3441.9,3438.2,1791.6,1430.5,1315.1,3446.7,1107.8,1555.3,3444.3,3446.7,826.0,1316.9,925.4,568.2,1414.0,1878.1,3449.1,3443.1,833.6,973.9,1273.0,1503.2,1300.7,1428.6,-6.0,9.0,6.0,9061.0,11972.0,4148.0,5078.0,3.0,-4.0,6.0,-3.0,0.0,12.0,7687.0,6587.0,9318.0,8896.0,12.0,14.0,-2.0,1.0
2022-05-03 17:18:28.847372-07:00,1940.0,578.6,1780.1,1626.5,1448.8,1321.4,1587.1,1666.3,3441.9,3438.2,1789.7,1425.9,1315.1,3446.7,1115.6,1549.7,3443.1,3451.6,826.0,1316.9,925.4,567.4,1414.0,1878.1,3449.1,3447.9,833.6,973.9,1260.4,1507.8,1300.7,1428.6,-6.0,0.0,5.0,9063.0,11959.0,4168.0,5091.0,-20.0,8.0,-14.0,0.0,-6.0,8.0,7692.0,6582.0,9313.0,8900.0,-10.0,0.0,-7.0,1.0
2022-05-03 17:18:28.848870-07:00,1938.0,584.3,1773.3,1624.7,1454.3,1318.7,1586.1,1671.9,3441.9,3444.3,1790.7,1433.2,1315.1,3449.1,1107.8,1566.5,3444.3,3439.5,826.9,1324.1,930.5,570.6,1410.3,1869.3,3445.5,3437.0,836.1,972.2,1259.6,1509.7,1293.6,1411.3,-5.0,13.0,5.0,9077.0,11947.0,4165.0,5095.0,-69.0,0.0,-10.0,0.0,1.0,11.0,7697.0,6576.0,9307.0,8907.0,-40.0,-2.0,-8.0,1.0
2022-05-03 17:18:28.851214-07:00,1938.0,584.3,1780.1,1621.8,1454.3,1323.2,1599.3,1677.6,3441.9,3444.3,1806.1,1432.3,1315.1,3440.7,1115.6,1556.2,3445.5,3450.4,826.0,1324.1,930.5,573.0,1410.3,1869.3,3451.6,3449.1,840.3,972.2,1256.0,1512.5,1293.6,1411.3,-11.0,-8.0,-1.0,9183.0,11832.0,4181.0,5160.0,-72.0,44.0,0.0,3.0,-17.0,18.0,7734.0,6555.0,9278.0,8921.0,8.0,1.0,-8.0,1.0
2022-05-03 17:18:28.875892-07:00,1942.0,588.3,1758.9,1609.6,1505.1,1321.4,1583.3,1636.0,3443.1,3454.0,1796.5,1425.9,1314.2,3446.7,1111.2,1556.2,3447.9,3444.3,827.7,1329.6,933.9,570.6,1407.6,1875.2,3458.9,3445.5,845.3,971.3,1252.4,1510.6,1307.0,1454.3,-9.0,-6.0,15.0,9165.0,11871.0,4154.0,5127.0,14.0,15.0,11.0,1.0,-6.0,19.0,7742.0,6557.0,9273.0,8917.0,26.0,25.0,6.0,1.0
2022-05-03 17:18:29.144857-07:00,1942.0,588.3,1758.9,1609.6,1491.2,1325.0,1581.4,1634.1,3443.1,3454.0,1796.5,1425.9,1310.6,3443.1,1112.1,1556.2,3449.1,3437.0,825.2,1321.4,933.9,570.6,1407.6,1875.2,3456.4,3449.1,843.6,964.5,1252.4,1510.6,1307.0,1454.3,-7.0,12.0,0.0,9151.0,11880.0,4152.0,5130.0,20.0,11.0,17.0,0.0,0.0,9.0,7734.0,6557.0,9282.0,8914.0,15.0,10.0,3.0,1.0
2022-05-03 17:18:29.146020-07:00,1931.1,585.1,1757.0,1616.2,1491.2,1325.0,1581.4,1634.1,3444.3,3450.4,1786.8,1430.5,1310.6,3443.1,1112.1,1556.2,3449.1,3437.0,825.2,1321.4,929.6,568.2,1404.0,1874.2,3456.4,3449.1,843.6,964.5,1256.9,1504.1,1300.7,1439.6,-7.0,4.0,3.0,9148.0,11882.0,4151.0,5133.0,-9.0,0.0,6.0,-2.0,-2.0,10.0,7735.0,6556.0,9281.0,8916.0,-11.0,6.0,-2.0,1.0
2022-05-03 17:18:29.175101-07:00,1931.1,585.1,1757.0,1616.2,1493.0,1320.5,1576.8,1631.3,3444.3,3450.4,1786.8,1430.5,1316.0,3445.5,1106.9,1567.4,3446.7,3438.2,821.9,1322.3,929.6,568.2,1404.0,1874.2,3450.4,3449.1,831.9,964.5,1256.9,1504.1,1300.7,1439.6,-4.0,8.0,16.0,9143.0,11886.0,4152.0,5131.0,24.0,10.0,1.0,0.0,0.0,10.0,7736.0,6555.0,9280.0,8917.0,-4.0,0.0,3.0,1.0
2022-05-03 17:18:29.205867-07:00,1944.0,581.0,1747.3,1614.3,1493.0,1320.5,1576.8,1627.5,3458.9,3451.6,1789.7,1429.5,1316.0,3445.5,1106.9,1561.8,3443.1,3438.2,821.9,1322.3,928.8,570.6,1412.2,1874.2,3444.3,3449.1,831.9,964.5,1256.0,1511.5,1303.4,1431.4,-3.0,3.0,19.0,9132.0,11885.0,4164.0,5142.0,37.0,67.0,-8.0,4.0,-1.0,16.0,7734.0,6553.0,9281.0,8919.0,24.0,20.0,5.0,1.0
2022-05-03 17:18:29.206926-07:00,1934.1,581.0,1747.3,1614.3,1470.9,1318.7,1573.9,1627.5,3451.6,3451.6,1789.7,1429.5,1314.2,3449.1,1112.1,1561.8,3443.1,3438.2,831.9,1328.7,928.8,570.6,1412.2,1875.2,3444.3,3447.9,830.2,964.5,1256.0,1511.5,1303.4,1421.3,-2.0,10.0,6.0,9112.0,11885.0,4187.0,5159.0,26.0,77.0,-11.0,1.0,-3.0,13.0,7725.0,6552.0,9291.0,8918.0,26.0,23.0,1.0,1.0
2022-05-03 17:18:29.208087-07:00,1934.1,585.9,1760.8,1610.5,1470.9,1318.7,1573.9,1619.9,3451.6,3441.9,1794.5,1432.3,1314.2,3449.1,1112.1,1554.3,3446.7,3438.2,831.9,1328.7,923.7,574.6,1404.9,1875.2,3441.9,3447.9,830.2,964.5,1254.2,1510.6,1303.4,1421.3,-9.0,0.0,-8.0,9102.0,11881.0,4207.0,5170.0,9.0,12.0,-10.0,-2.0,0.0,4.0,7715.0,6550.0,9300.0,8917.0,15.0,17.0,-7.0,1.0
2022-05-03 17:18:29.209604-07:00,1944.0,585.9,1760.8,1610.5,1471.8,1315.1,1570.2,1619.9,3446.7,3441.9,1794.5,1432.3,1312.4,3440.7,1107.8,1554.3,3446.7,3440.7,824.4,1325.0,923.7,574.6,1404.9,1875.2,3441.9,3447.9,833.6,959.4,1254.2,1510.6,1303.4,1417.6,-6.0,6.0,4.0,9102.0,11882.0,4207.0,5169.0,-6.0,-13.0,11.0,-1.0,1.0,6.0,7718.0,6548.0,9297.0,8919.0,-20.0,-10.0,-2.0,1.0
2022-05-03 17:18:29.955240-07:00,1944.0,584.3,1740.6,1611.5,1471.8,1315.1,1570.2,1629.4,3446.7,3444.3,1789.7,1428.6,1312.4,3440.7,1107.8,1559.0,3449.1,3440.7,824.4,1325.0,925.4,564.2,1406.7,1875.2,3449.1,3447.9,833.6,959.4,1254.2,1507.8,1299.8,1417.6,-8.0,2.0,11.0,9107.0,11881.0,4201.0,5167.0,-10.0,-22.0,2.0,-2.0,-4.0,13.0,7721.0,6545.0,9293.0,8923.0,-3.0,2.0,-2.0,1.0
2022-05-03 17:18:30.255927-07:00,1940.0,584.3,1740.6,1611.5,1458.0,1317.8,1570.2,1629.4,3446.7,3444.3,1789.7,1428.6,1314.2,3440.7,1106.9,1559.0,3449.1,3444.3,826.9,1327.8,925.4,564.2,1406.7,1879.1,3449.1,3446.7,832.7,966.2,1254.2,1507.8,1299.8,1423.1,-6.0,-2.0,12.0,9111.0,11882.0,4195.0,5162.0,4.0,-9.0,10.0,-1.0,-2.0,10.0,7722.0,6544.0,9292.0,8924.0,-1.0,-1.0,-1.0,1.0
2022-05-03 17:18:30.256994-07:00,1940.0,589.1,1733.0,1610.5,1458.0,1317.8,1565.5,1621.8,3446.7,3451.6,1789.7,1437.8,1314.2,3440.7,1111.2,1556.2,3438.2,3443.1,826.9,1327.8,930.5,565.0,1404.9,1879.1,3446.7,3454.0,832.7,966.2,1251.5,1510.6,1299.0,1423.1,-5.0,1.0,11.0,9104.0,11888.0,4194.0,5162.0,21.0,-2.0,7.0,0.0,-5.0,9.0,7723.0,6543.0,9291.0,8925.0,3.0,3.0,-1.0,1.0
2022-05-03 17:18:30.285450-07:00,1936.1,575.4,1733.0,1610.5,1456.2,1310.6,1565.5,1621.8,3443.1,3443.1,1789.7,1437.8,1311.5,3447.9,1111.2,1556.2,3438.2,3443.1,825.2,1325.9,930.5,565.0,1401.2,1867.4,3446.7,3454.0,834.4,967.1,1251.5,1510.6,1299.0,1414.0,-2.0,11.0,17.0,9093.0,11896.0,4200.0,5157.0,66.0,22.0,-21.0,0.0,0.0,7.0,7723.0,6543.0,9290.0,8926.0,7.0,4.0,-4.0,1.0
2022-05-03 17:18:30.286879-07:00,1936.1,575.4,1738.7,1609.6,1456.2,1310.6,1571.1,1637.9,3443.1,3443.1,1782.0,1431.4,1311.5,3447.9,1109.5,1555.3,3444.3,3445.5,825.2,1325.9,925.4,576.2,1401.2,1867.4,3450.4,3445.5,834.4,967.1,1258.7,1503.2,1299.0,1414.0,-7.0,0.0,17.0,9068.0,11907.0,4228.0,5152.0,107.0,59.0,-26.0,1.0,-7.0,20.0,7720.0,6542.0,9294.0,8925.0,29.0,25.0,0.0,1.0
2022-05-03 17:18:30.287732-07:00,1936.1,575.4,1738.7,1609.6,1456.2,1310.6,1571.1,1637.9,3443.1,3443.1,1782.0,1431.4,1311.5,3447.9,1109.5,1555.3,3444.3,3445.5,825.2,1325.9,925.4,576.2,1401.2,1867.4,3450.4,3445.5,834.4,967.1,1258.7,1503.2,1299.0,1414.0,-7.0,0.0,17.0,9068.0,11907.0,4228.0,5152.0,107.0,59.0,-26.0,1.0,-7.0,20.0,7720.0,6542.0,9294.0,8925.0,29.0,25.0,0.0,1.0
2022-05-03 17:18:31.364870-07:00,1926.2,582.6,1740.6,1631.3,1445.1,1317.8,1551.5,1760.8,3449.1,3452.8,1786.8,1429.5,1311.5,3433.4,1110.4,1561.8,3441.9,3441.9,821.9,1315.1,922.8,570.6,1398.5,1873.2,3450.4,3443.1,822.7,957.7,1254.2,1507.8,1295.4,1479.2,7.0,-16.0,0.0,8836.0,12033.0,4503.0,5029.0,486.0,119.0,-235.0,17.0,-18.0,43.0,7607.0,6561.0,9398.0,8899.0,183.0,118.0,6.0,1.0
2022-05-03 17:18:31.365912-07:00,1930.2,582.6,1740.6,1631.3,1432.3,1322.3,1568.3,1760.8,3440.7,3452.8,1786.8,1429.5,1319.6,3433.4,1108.6,1561.8,3441.9,3440.7,816.9,1316.9,922.8,570.6,1398.5,1872.3,3450.4,3438.2,816.0,967.1,1254.2,1507.8,1295.4,1458.9,-26.0,-55.0,-23.0,8749.0,12092.0,4602.0,4948.0,331.0,-84.0,-81.0,-12.0,-3.0,12.0,7545.0,6575.0,9459.0,8877.0,218.0,46.0,71.0,1.0
2022-05-03 17:18:31.367331-07:00,1930.2,588.3,1837.2,1616.2,1432.3,1322.3,1568.3,1680.5,3440.7,3445.5,1779.1,1430.5,1319.6,3433.4,1108.6,1546.9,3438.2,3440.7,816.9,1316.9,913.5,566.6,1409.4,1872.3,3447.9,3438.2,816.0,967.1,1264.0,1502.3,1295.4,1458.9,-9.0,0.0,-51.0,8667.0,12202.0,4576.0,4846.0,250.0,-294.0,92.0,-5.0,10.0,2.0,7490.0,6627.0,9483.0,8859.0,88.0,-8.0,122.0,1.0
2022-05-03 17:18:32.114933-07:00,1971.7,594.7,1837.2,1616.2,1408.5,1352.1,1543.1,1680.5,3435.8,3446.7,1779.1,1430.5,1309.7,3449.1,1106.0,1546.9,3438.2,3437.0,821.9,1316.0,913.5,566.6,1414.9,1875.2,3447.9,3454.0,807.7,965.4,1264.0,1502.3,1288.2,1436.0,4.0,28.0,-4.0,8613.0,12324.0,4481.0,4721.0,242.0,-434.0,126.0,-5.0,7.0,-4.0,7453.0,6674.0,9479.0,8859.0,81.0,-49.0,98.0,1.0
2022-05-03 17:18:32.175808-07:00,1971.7,594.7,1812.9,1615.2,1408.5,1352.1,1501.4,1594.6,3435.8,3446.7,1787.8,1425.0,1309.7,3449.1,1095.6,1559.9,3444.3,3437.0,821.9,1316.0,921.1,571.4,1414.9,1875.2,3446.7,3440.7,807.7,965.4,1255.1,1506.0,1288.2,1436.0,-7.0,1.0,9.0,8536.0,12400.0,4545.0,4600.0,12.0,0.0,7.0,-1.0,-3.0,11.0,7391.0,6725.0,9501.0,8849.0,11.0,2.0,-4.0,1.0
2022-05-03 17:18:32.475006-07:00,1947.9,593.9,1566.5,1588.0,1322.3,1388.5,1424.1,1477.3,3449.1,3441.9,1780.1,1426.8,1315.1,3447.9,1089.5,1556.2,3446.7,3444.3,821.0,1321.4,920.3,567.4,1420.4,1875.2,3451.6,3441.9,771.1,974.8,1260.4,1501.4,1295.4,1379.4,-3.0,-1.0,15.0,8523.0,12405.0,4536.0,4618.0,-13.0,23.0,22.0,0.0,-5.0,17.0,7386.0,6727.0,9509.0,8843.0,-6.0,8.0,2.0,1.0
2022-05-03 17:18:32.536057-07:00,1945.9,595.5,1556.2,1586.1,1324.1,1386.6,1418.6,1473.6,3452.8,3445.5,1777.2,1430.5,1313.3,3444.3,1086.0,1552.5,3435.8,3445.5,817.7,1317.8,915.2,566.6,1418.6,1873.2,3445.5,3443.1,778.6,973.9,1264.0,1507.8,1296.3,1383.0,-7.0,16.0,9.0,8513.0,12408.0,4538.0,4626.0,31.0,10.0,-5.0,1.0,1.0,11.0,7384.0,6729.0,9512.0,8840.0,33.0,15.0,-3.0,1.0
2022-05-03 17:18:32.537561-07:00,1939.0,595.5,1556.2,1586.1,1324.1,1374.8,1416.7,1473.6,3449.1,3445.5,1777.2,1430.5,1312.4,3446.7,1094.7,1552.5,3435.8,3438.2,821.0,1317.8,915.2,566.6,1418.6,1870.3,3445.5,3449.1,772.0,969.6,1264.0,1507.8,1296.3,1370.3,-8.0,-3.0,1.0,8510.0,12407.0,4545.0,4627.0,12.0,12.0,6.0,-2.0,0.0,10.0,7377.0,6729.0,9520.0,8838.0,13.0,6.0,4.0,1.0
2022-05-03 17:18:33.015235-07:00,1939.0,593.1,1549.7,1585.2,1324.1,1374.8,1420.4,1482.9,3449.1,3445.5,1781.0,1425.9,1312.4,3446.7,1097.3,1551.5,3444.3,3443.1,821.0,1317.8,920.3,569.8,1414.0,1870.3,3440.7,3445.5,772.0,969.6,1263.1,1498.6,1296.3,1370.3,-7.0,0.0,9.0,8495.0,12421.0,4530.0,4633.0,-14.0,4.0,21.0,3.0,0.0,16.0,7374.0,6732.0,9524.0,8834.0,-3.0,6.0,5.0,1.0
2022-05-03 17:18:33.585288-07:00,1938.0,593.9,1545.9,1586.1,1301.6,1372.1,1405.8,1474.6,3449.1,3450.4,1772.3,1418.6,1308.8,3446.7,1087.7,1553.4,3441.9,3439.5,825.2,1313.3,915.2,567.4,1418.6,1874.2,3443.1,3445.5,783.6,971.3,1254.2,1504.1,1289.1,1362.1,-7.0,0.0,7.0,8492.0,12427.0,4517.0,4636.0,-6.0,5.0,4.0,0.0,-1.0,13.0,7371.0,6734.0,9527.0,8831.0,9.0,6.0,-1.0,1.0
2022-05-03 17:18:33.614920-07:00,1942.0,601.2,1539.4,1575.8,1301.6,1372.1,1405.8,1474.6,3438.2,3441.9,1778.1,1425.9,1308.8,3446.7,1087.7,1553.4,3441.9,3439.5,825.2,1313.3,915.2,568.2,1413.1,1873.2,3443.1,3445.5,783.6,971.3,1256.9,1506.9,1293.6,1359.4,-8.0,1.0,14.0,8480.0,12437.0,4504.0,4642.0,6.0,-5.0,27.0,3.0,-2.0,17.0,7367.0,6737.0,9532.0,8827.0,11.0,6.0,0.0,1.0
2022-05-03 17:18:33.615871-07:00,1942.0,601.2,1539.4,1575.8,1301.6,1372.1,1405.8,1474.6,3438.2,3441.9,1778.1,1425.9,1308.8,3446.7,1087.7,1553.4,3441.9,3439.5,825.2,1313.3,915.2,568.2,1413.1,1873.2,3443.1,3445.5,783.6,971.3,1256.9,1506.9,1293.6,1359.4,-8.0,1.0,14.0,8480.0,12437.0,4504.0,4642.0,6.0,-5.0,27.0,3.0,-2.0,17.0,7367.0,6737.0,9532.0,8827.0,11.0,6.0,0.0,1.0
