Time,P0,P1,P2,P3,P4,P5,P6,P7,P8,P9,P10,P11,P12,P13,P14,P15,P16,P17,P18,P19,P20,P21,P22,P23,P24,P25,P26,P27,P28,P29,P30,P31,ECG,AX0,AY0,AZ0,QW0,QX0,QY0,QZ0,GX0,GY0,GZ0,AX1,AY1,AZ1,QW1,QX1,QY1,QZ1,GX1,GY1,GZ1
2022-05-13 12:56:53.561267-07:00,2058.4,586.7,1438.7,1579.6,1125.2,1269.4,1240.8,1403.0,3440.7,3440.7,1934.1,1551.5,1531.0,3439.5,1285.5,1809.0,3441.9,3432.2,712.6,1256.0,874.7,567.4,1335.0,1848.9,3451.6,3443.1,771.1,979.0,1383.0,1782.9,1460.8,1119.1,-3.0,-5.0,-5.0,-7223.0,-7211.0,10367.0,7537.0,-14.0,-10.0,3.0,0.0,-1.0,-1.0,-5575.0,-5592.0,9817.0,10474.0,-15.0,-10.0,4.0,1.0
2022-05-13 12:56:53.562772-07:00,2050.4,586.7,1438.7,1579.6,1133.1,1281.9,1242.6,1403.0,3445.5,3440.7,1934.1,1551.5,1530.1,3440.7,1282.8,1809.0,3441.9,3439.5,707.7,1252.4,874.7,567.4,1335.0,1851.8,3451.6,3449.1,773.6,975.6,1383.0,1782.9,1460.8,1118.2,-1.0,4.0,-3.0,-7219.0,-7208.0,10369.0,7540.0,6.0,-17.0,4.0,-2.0,4.0,-2.0,-5575.0,-5592.0,9817.0,10475.0,8.0,-1.0,2.0,1.0
2022-05-13 12:56:53.606068-07:00,2050.4,577.0,1441.5,1571.1,1133.1,1281.9,1239.9,1415.8,3445.5,3440.7,1941.0,1547.8,1530.1,3440.7,1281.0,1811.9,3441.9,3444.3,707.7,1252.4,874.7,569.8,1335.0,1851.8,3450.4,3444.3,773.6,975.6,1382.1,1779.1,1465.4,1118.2,-2.0,-4.0,-1.0,-7219.0,-7207.0,10368.0,7541.0,-1.0,-9.0,-2.0,-1.0,2.0,0.0,-5575.0,-5592.0,9817.0,10475.0,-4.0,-7.0,4.0,1.0
2022-05-13 12:56:53.650882-07:00,2046.4,578.6,1441.5,1571.1,1128.7,1278.3,1239.9,1415.8,3444.3,3444.3,1941.0,1547.8,1538.5,3445.5,1281.0,1811.9,3441.9,3444.3,711.8,1260.4,874.7,569.8,1334.1,1848.9,3450.4,3444.3,775.3,983.3,1382.1,1779.1,1467.2,1120.0,-2.0,-2.0,0.0,-7215.0,-7208.0,10373.0,7538.0,10.0,-13.0,-8.0,3.0,0.0,1.0,-5574.0,-5592.0,9819.0,10473.0,7.0,-1.0,-6.0,1.0
2022-05-13 12:56:53.697479-07:00,2046.4,578.6,1434.1,1570.2,1128.7,1278.3,1250.6,1411.3,3444.3,3444.3,1931.1,1549.7,1538.5,3445.5,1281.9,1815.8,3434.6,3449.1,711.8,1260.4,876.4,573.0,1334.1,1848.9,3441.9,3456.4,775.3,983.3,1380.3,1788.7,1467.2,1120.0,1.0,-5.0,2.0,-7205.0,-7214.0,10373.0,7542.0,7.0,-8.0,-22.0,-1.0,0.0,1.0,-5574.0,-5592.0,9819.0,10473.0,-10.0,5.0,-9.0,1.0
2022-05-13 12:56:53.811537-07:00,2058.4,569.8,1434.1,1570.2,1124.4,1297.2,1250.6,1411.3,3439.5,3440.7,1931.1,1549.7,1531.0,3454.0,1281.9,1815.8,3434.6,3449.1,709.3,1256.0,876.4,573.0,1338.6,1848.9,3441.9,3456.4,758.7,981.6,1380.3,1788.7,1462.6,1105.1,-4.0,1.0,-5.0,-7199.0,-7220.0,10375.0,7539.0,24.0,-13.0,-3.0,-1.0,6.0,1.0,-5573.0,-5593.0,9820.0,10472.0,13.0,0.0,-5.0,1.0
2022-05-13 12:56:53.812805-07:00,2058.4,569.8,1446.0,1569.3,1124.4,1297.2,1245.3,1408.5,3439.5,3440.7,1936.1,1540.3,1531.0,3454.0,1279.2,1805.2,3423.7,3438.2,709.3,1256.0,878.0,568.2,1338.6,1848.9,3445.5,3438.2,758.7,981.6,1383.9,1779.1,1462.6,1105.1,-9.0,-1.0,-4.0,-7197.0,-7219.0,10377.0,7539.0,-9.0,7.0,-5.0,-2.0,0.0,3.0,-5572.0,-5594.0,9821.0,10471.0,1.0,-2.0,-1.0,1.0
2022-05-13 12:56:53.902505-07:00,2060.5,572.2,1439.6,1569.3,1129.6,1280.1,1245.3,1408.5,3437.0,3428.6,1927.2,1540.3,1534.8,3451.6,1279.2,1805.2,3423.7,3438.2,709.3,1252.4,878.0,568.2,1337.7,1852.8,3445.5,3438.2,767.8,979.9,1383.9,1780.1,1461.7,1123.5,2.0,0.0,-3.0,-7193.0,-7219.0,10380.0,7540.0,5.0,-14.0,-2.0,-1.0,5.0,-5.0,-5572.0,-5594.0,9822.0,10470.0,4.0,0.0,-2.0,1.0
2022-05-13 12:56:53.975071-07:00,2060.5,572.2,1439.6,1559.9,1129.6,1281.0,1234.6,1420.4,3437.0,3428.6,1927.2,1547.8,1534.8,3440.7,1277.4,1803.2,3444.3,3438.2,709.3,1252.4,877.2,568.2,1337.7,1852.8,3446.7,3438.2,771.1,979.9,1382.1,1780.1,1461.7,1123.5,-2.0,-2.0,-1.0,-7196.0,-7216.0,10378.0,7543.0,-12.0,-6.0,14.0,-2.0,0.0,3.0,-5572.0,-5594.0,9822.0,10470.0,0.0,-6.0,5.0,1.0
2022-05-13 12:56:54.061563-07:00,2052.4,575.4,1440.5,1559.9,1130.5,1281.0,1234.6,1420.4,3440.7,3445.5,1931.1,1547.8,1532.0,3440.7,1277.4,1803.2,3444.3,3438.2,709.3,1256.9,877.2,566.6,1337.7,1848.9,3446.7,3438.2,771.1,978.2,1382.1,1781.0,1463.5,1126.1,-4.0,3.0,0.0,-7203.0,-7209.0,10377.0,7544.0,-25.0,9.0,17.0,1.0,2.0,3.0,-5570.0,-5592.0,9823.0,10471.0,-3.0,-11.0,7.0,1.0
2022-05-13 12:56:54.062875-07:00,2052.4,575.4,1440.5,1570.2,1130.5,1278.3,1254.2,1403.0,3440.7,3445.5,1931.1,1553.4,1532.0,3446.7,1279.2,1806.1,3439.5,3438.2,717.5,1256.9,876.4,566.6,1337.7,1848.9,3444.3,3443.1,776.1,978.2,1383.9,1781.0,1463.5,1126.1,-2.0,3.0,-4.0,-7207.0,-7204.0,10375.0,7546.0,5.0,-2.0,-1.0,0.0,4.0,2.0,-5570.0,-5592.0,9823.0,10471.0,4.0,2.0,0.0,1.0
2022-05-13 12:56:54.192826-07:00,2051.4,577.0,1433.2,1570.2,1128.7,1278.3,1254.2,1403.0,3444.3,3435.8,1933.1,1553.4,1535.7,3446.7,1279.2,1806.1,3439.5,3438.2,717.5,1259.6,876.4,562.6,1331.4,1846.9,3444.3,3443.1,776.1,981.6,1383.9,1779.1,1463.5,1116.5,-5.0,-4.0,-4.0,-7207.0,-7204.0,10374.0,7548.0,-20.0,3.0,4.0,-2.0,2.0,-1.0,-5570.0,-5592.0,9823.0,10471.0,-9.0,-7.0,1.0,1.0
2022-05-13 12:56:54.193306-07:00,2051.4,577.0,1433.2,1569.3,1133.1,1275.6,1241.7,1404.0,3444.3,3435.8,1933.1,1547.8,1541.3,3434.6,1293.6,1802.3,3440.7,3428.6,707.7,1252.4,878.9,562.6,1331.4,1846.9,3445.5,3440.7,774.5,981.6,1381.2,1779.1,1463.5,1116.5,-3.0,6.0,-4.0,-7209.0,-7200.0,10376.0,7548.0,18.0,-10.0,4.0,-1.0,1.0,2.0,-5571.0,-5591.0,9822.0,10473.0,9.0,-4.0,4.0,1.0
2022-05-13 12:56:54.193837-07:00,2043.4,580.2,1436.0,1561.8,1133.1,1275.6,1241.7,1404.0,3434.6,3438.2,1936.1,1547.8,1541.3,3434.6,1293.6,1802.3,3440.7,3428.6,707.7,1252.4,876.4,567.4,1331.4,1850.8,3445.5,3440.7,774.5,981.6,1378.5,1783.9,1457.1,1115.6,-4.0,-5.0,-3.0,-7206.0,-7203.0,10375.0,7549.0,-15.0,5.0,-21.0,-1.0,1.0,1.0,-5570.0,-5591.0,9822.0,10472.0,-19.0,-1.0,-1.0,1.0
2022-05-13 12:56:54.195060-07:00,2043.4,580.2,1436.0,1561.8,1133.1,1281.9,1242.6,1400.3,3434.6,3438.2,1936.1,1547.8,1535.7,3444.3,1277.4,1797.4,3439.5,3441.9,709.3,1253.3,876.4,567.4,1331.4,1850.8,3446.7,3440.7,764.5,979.0,1378.5,1783.9,1457.1,1115.6,0.0,-1.0,-2.0,-7207.0,-7200.0,10375.0,7550.0,9.0,-12.0,18.0,0.0,1.0,3.0,-5571.0,-5591.0,9821.0,10473.0,13.0,-5.0,3.0,1.0
2022-05-13 12:56:54.280849-07:00,2056.4,574.6,1445.1,1559.0,1133.1,1281.9,1242.6,1400.3,3446.7,3444.3,1932.1,1548.7,1535.7,3444.3,1277.4,1797.4,3439.5,3441.9,709.3,1253.3,878.9,562.6,1334.1,1853.7,3446.7,3440.7,764.5,979.0,1377.5,1784.9,1461.7,1122.6,-5.0,4.0,-5.0,-7210.0,-7196.0,10376.0,7551.0,-20.0,0.0,-1.0,-3.0,8.0,3.0,-5570.0,-5590.0,9822.0,10473.0,-14.0,-9.0,1.0,1.0
2022-05-13 12:56:54.282348-07:00,2056.4,574.6,1445.1,1559.0,1131.4,1277.4,1230.2,1414.0,3446.7,3444.3,1932.1,1548.7,1540.3,3439.5,1273.0,1806.1,3444.3,3444.3,712.6,1258.7,878.9,562.6,1334.1,1853.7,3439.5,3437.0,763.7,984.2,1377.5,1784.9,1461.7,1122.6,-4.0,-4.0,-1.0,-7211.0,-7194.0,10375.0,7552.0,3.0,-2.0,10.0,-2.0,5.0,1.0,-5570.0,-5590.0,9821.0,10474.0,9.0,-4.0,1.0,1.0
2022-05-13 12:56:54.371433-07:00,2049.4,569.0,1445.1,1569.3,1131.4,1277.4,1230.2,1414.0,3446.7,3438.2,1933.1,1547.8,1540.3,3439.5,1273.0,1806.1,3444.3,3444.3,712.6,1258.7,878.9,562.6,1338.6,1851.8,3439.5,3437.0,763.7,984.2,1379.4,1779.1,1465.4,1119.1,-3.0,0.0,-2.0,-7215.0,-7190.0,10375.0,7553.0,-22.0,6.0,9.0,-2.0,2.0,3.0,-5571.0,-5590.0,9820.0,10475.0,-13.0,-4.0,2.0,1.0
2022-05-13 12:56:54.417245-07:00,2054.4,569.0,1445.1,1569.3,1128.7,1275.6,1236.4,1397.6,3458.9,3438.2,1933.1,1547.8,1534.8,3449.1,1271.2,1800.3,3439.5,3439.5,713.4,1257.8,878.9,562.6,1338.6,1849.8,3443.1,3435.8,771.1,984.2,1379.4,1779.1,1465.4,1115.6,-5.0,-2.0,-5.0,-7217.0,-7188.0,10374.0,7554.0,15.0,-6.0,11.0,0.0,-1.0,5.0,-5571.0,-5589.0,9820.0,10475.0,8.0,1.0,1.0,1.0
2022-05-13 12:56:54.461043-07:00,2054.4,576.2,1437.8,1573.0,1128.7,1275.6,1236.4,1405.8,3458.9,3446.7,1936.1,1547.8,1534.8,3449.1,1271.2,1807.1,3441.9,3439.5,713.4,1257.8,878.0,568.2,1334.1,1849.8,3446.7,3435.8,771.1,984.2,1382.1,1782.0,1463.5,1115.6,-3.0,1.0,-7.0,-7217.0,-7188.0,10374.0,7554.0,-16.0,0.0,-5.0,-3.0,9.0,0.0,-5570.0,-5590.0,9821.0,10474.0,-8.0,1.0,-2.0,1.0
2022-05-13 12:56:54.552683-07:00,2046.4,576.2,1437.8,1573.0,1133.1,1270.3,1237.3,1405.8,3447.9,3446.7,1936.1,1547.8,1532.0,3447.9,1273.9,1807.1,3441.9,3438.2,706.9,1255.1,878.0,568.2,1334.1,1857.6,3446.7,3443.1,767.0,979.0,1382.1,1782.0,1463.5,1118.2,-4.0,-1.0,-3.0,-7219.0,-7185.0,10373.0,7556.0,-1.0,1.0,13.0,-1.0,4.0,4.0,-5571.0,-5589.0,9820.0,10475.0,1.0,-7.0,4.0,1.0
2022-05-13 12:56:54.554484-07:00,2046.4,571.4,1435.0,1566.5,1133.1,1270.3,1237.3,1409.4,3447.9,3432.2,1936.1,1546.9,1532.0,3447.9,1273.9,1802.3,3428.6,3438.2,706.9,1255.1,879.7,564.2,1333.2,1857.6,3440.7,3443.1,767.0,979.0,1374.8,1767.5,1463.5,1118.2,-3.0,1.0,-2.0,-7221.0,-7184.0,10373.0,7555.0,-14.0,12.0,-1.0,-1.0,0.0,1.0,-5571.0,-5589.0,9820.0,10475.0,-10.0,0.0,0.0,1.0
2022-05-13 12:56:54.596610-07:00,2050.4,571.4,1435.0,1566.5,1138.4,1276.5,1239.1,1409.4,3438.2,3432.2,1936.1,1546.9,1538.5,3441.9,1277.4,1802.3,3428.6,3437.0,712.6,1256.9,879.7,564.2,1333.2,1848.9,3440.7,3444.3,770.3,981.6,1374.8,1767.5,1463.5,1114.7,-3.0,-5.0,-6.0,-7227.0,-7185.0,10368.0,7556.0,-2.0,17.0,9.0,-3.0,-1.0,3.0,-5572.0,-5589.0,9818.0,10476.0,2.0,4.0,7.0,1.0
2022-05-13 12:56:54.775877-07:00,2050.4,572.2,1433.2,1570.2,1138.4,1276.5,1231.0,1407.6,3438.2,3445.5,1930.2,1547.8,1538.5,3441.9,1280.1,1801.3,3441.9,3441.9,712.6,1256.9,879.7,564.2,1335.0,1848.9,3438.2,3449.1,770.3,981.6,1381.2,1783.9,1457.1,1114.7,1.0,0.0,-5.0,-7228.0,-7186.0,10367.0,7555.0,-4.0,-7.0,2.0,0.0,3.0,-3.0,-5571.0,-5590.0,9821.0,10474.0,1.0,-1.0,-1.0,1.0
2022-05-13 12:56:54.821004-07:00,2051.4,578.6,1433.2,1570.2,1130.5,1283.7,1231.0,1407.6,3449.1,3435.8,1930.2,1547.8,1532.0,3445.5,1280.1,1801.3,3441.9,3441.9,709.3,1255.1,879.7,564.2,1327.8,1849.8,3438.2,3449.1,770.3,979.0,1381.2,1783.9,1461.7,1113.9,-2.0,-2.0,-4.0,-7229.0,-7184.0,10367.0,7556.0,-8.0,1.0,10.0,0.0,3.0,0.0,-5571.0,-5590.0,9821.0,10474.0,-1.0,-7.0,3.0,1.0
2022-05-13 12:56:54.867244-07:00,2051.4,578.6,1436.0,1572.1,1130.5,1283.7,1242.6,1404.9,3449.1,3435.8,1927.2,1544.1,1532.0,3445.5,1275.6,1798.4,3441.9,3450.4,709.3,1255.1,883.1,563.4,1327.8,1849.8,3443.1,3450.4,770.3,979.0,1384.8,1775.2,1461.7,1113.9,-3.0,4.0,-2.0,-7230.0,-7184.0,10367.0,7555.0,0.0,1.0,0.0,-1.0,5.0,3.0,-5571.0,-5590.0,9821.0,10474.0,-2.0,1.0,6.0,1.0
2022-05-13 12:56:54.868568-07:00,2048.4,567.4,1436.0,1572.1,1130.5,1273.9,1242.6,1404.9,3438.2,3449.1,1927.2,1544.1,1532.9,3443.1,1275.6,1798.4,3441.9,3450.4,698.7,1250.6,883.1,563.4,1335.9,1848.9,3443.1,3450.4,764.5,979.9,1384.8,1775.2,1461.7,1115.6,-3.0,-2.0,-1.0,-7231.0,-7182.0,10366.0,7557.0,-7.0,9.0,4.0,0.0,2.0,0.0,-5571.0,-5590.0,9821.0,10474.0,-1.0,1.0,2.0,1.0
2022-05-13 12:56:54.869899-07:00,2048.4,567.4,1433.2,1566.5,1130.5,1273.9,1235.5,1435.0,3438.2,3449.1,1930.2,1548.7,1532.9,3443.1,1265.8,1801.3,3439.5,3437.0,698.7,1250.6,876.4,571.4,1335.9,1848.9,3444.3,3445.5,764.5,979.9,1383.0,1782.0,1461.7,1115.6,-2.0,2.0,-9.0,-7233.0,-7184.0,10364.0,7556.0,-2.0,11.0,0.0,-1.0,6.0,0.0,-5571.0,-5590.0,9821.0,10474.0,-2.0,-3.0,-1.0,1.0
2022-05-13 12:56:54.911231-07:00,2054.4,577.8,1433.2,1566.5,1125.2,1274.7,1235.5,1435.0,3441.9,3441.9,1930.2,1548.7,1537.6,3449.1,1265.8,1801.3,3439.5,3437.0,706.9,1257.8,876.4,571.4,1335.0,1851.8,3444.3,3445.5,772.0,978.2,1383.0,1782.0,1466.3,1113.0,0.0,-4.0,-4.0,-7233.0,-7182.0,10364.0,7558.0,-1.0,-11.0,9.0,2.0,2.0,0.0,-5571.0,-5589.0,9820.0,10475.0,3.0,-2.0,-1.0,1.0
2022-05-13 12:56:54.955981-07:00,2054.4,577.8,1441.5,1573.0,1125.2,1281.0,1236.4,1406.7,3441.9,3441.9,1924.3,1547.8,1537.6,3440.7,1267.6,1809.0,3441.9,3449.1,711.8,1257.8,874.7,566.6,1335.0,1851.8,3446.7,3445.5,764.5,978.2,1393.9,1771.4,1466.3,1113.0,-6.0,-2.0,-4.0,-7234.0,-7182.0,10364.0,7557.0,-7.0,-2.0,1.0,-3.0,3.0,3.0,-5571.0,-5589.0,9820.0,10475.0,-6.0,-6.0,1.0,1.0
2022-05-13 12:56:55.002851-07:00,2052.4,573.0,1436.9,1573.0,1141.0,1281.0,1236.4,1406.7,3449.1,3444.3,1924.3,1547.8,1537.6,3440.7,1267.6,1809.0,3441.9,3449.1,711.8,1258.7,874.7,562.6,1327.8,1848.9,3446.7,3445.5,764.5,973.9,1393.9,1780.1,1464.4,1114.7,-1.0,1.0,-4.0,-7233.0,-7181.0,10365.0,7558.0,2.0,-3.0,3.0,0.0,5.0,-2.0,-5571.0,-5589.0,9820.0,10475.0,4.0,-1.0,1.0,1.0
2022-05-13 12:56:55.136342-07:00,2052.4,573.0,1436.9,1573.0,1141.0,1266.7,1231.9,1412.2,3449.1,3444.3,1924.3,1547.8,1537.6,3438.2,1270.3,1798.4,3439.5,3439.5,714.2,1258.7,882.3,562.6,1327.8,1848.9,3433.4,3433.4,767.8,973.9,1385.7,1780.1,1464.4,1114.7,0.0,-3.0,-2.0,-7234.0,-7180.0,10363.0,7560.0,-22.0,6.0,2.0,1.0,4.0,3.0,-5571.0,-5589.0,9820.0,10475.0,-8.0,-5.0,4.0,1.0
2022-05-13 12:56:55.138252-07:00,2046.4,573.8,1429.5,1573.0,1125.2,1266.7,1231.9,1412.2,3439.5,3434.6,1932.1,1547.8,1535.7,3438.2,1270.3,1798.4,3439.5,3439.5,714.2,1255.1,882.3,567.4,1333.2,1845.0,3433.4,3433.4,767.8,983.3,1385.7,1779.1,1456.2,1112.1,0.0,-1.0,-2.0,-7235.0,-7179.0,10363.0,7560.0,6.0,3.0,5.0,-1.0,2.0,-1.0,-5571.0,-5589.0,9820.0,10475.0,5.0,1.0,0.0,1.0
2022-05-13 12:56:55.226099-07:00,2046.4,573.8,1429.5,1573.0,1125.2,1275.6,1243.5,1400.3,3439.5,3434.6,1932.1,1550.6,1535.7,3444.3,1273.0,1805.2,3439.5,3437.0,706.0,1255.1,871.3,567.4,1333.2,1845.0,3449.1,3439.5,767.8,983.3,1383.0,1779.1,1456.2,1112.1,-5.0,-3.0,-4.0,-7237.0,-7177.0,10362.0,7562.0,-15.0,6.0,1.0,0.0,1.0,1.0,-5571.0,-5589.0,9820.0,10475.0,-9.0,3.0,3.0,1.0
2022-05-13 12:56:55.228080-07:00,2063.5,569.0,1439.6,1570.2,1123.5,1275.6,1243.5,1400.3,3443.1,3443.1,1930.2,1552.5,1533.8,3444.3,1273.0,1805.2,3439.5,3437.0,706.0,1253.3,878.0,565.0,1334.1,1853.7,3449.1,3439.5,767.8,975.6,1378.5,1781.0,1462.6,1120.0,0.0,1.0,-7.0,-7236.0,-7178.0,10362.0,7562.0,11.0,-6.0,0.0,0.0,2.0,1.0,-5570.0,-5590.0,9821.0,10474.0,9.0,-1.0,-4.0,1.0
2022-05-13 12:56:55.229483-07:00,2063.5,569.0,1439.6,1570.2,1122.6,1274.7,1234.6,1400.3,3443.1,3443.1,1930.2,1552.5,1532.0,3444.3,1278.3,1800.3,3435.8,3446.7,709.3,1259.6,878.0,565.0,1334.1,1853.7,3449.1,3447.9,764.5,977.3,1378.5,1781.0,1462.6,1120.0,-3.0,-3.0,-4.0,-7236.0,-7178.0,10362.0,7562.0,-11.0,1.0,1.0,-1.0,0.0,3.0,-5570.0,-5590.0,9821.0,10474.0,-6.0,-5.0,1.0,1.0
2022-05-13 12:56:55.316967-07:00,2042.4,575.4,1436.9,1571.1,1122.6,1274.7,1234.6,1400.3,3437.0,3444.3,1923.3,1542.2,1532.0,3444.3,1278.3,1800.3,3435.8,3446.7,709.3,1259.6,873.8,565.8,1329.6,1841.1,3449.1,3447.9,764.5,977.3,1374.8,1778.1,1454.3,1115.6,-1.0,3.0,-3.0,-7238.0,-7176.0,10362.0,7562.0,6.0,-2.0,8.0,0.0,6.0,0.0,-5570.0,-5590.0,9822.0,10473.0,9.0,-6.0,3.0,1.0
2022-05-13 12:56:55.361935-07:00,2042.4,575.4,1436.9,1571.1,1140.1,1279.2,1234.6,1412.2,3437.0,3444.3,1923.3,1542.2,1538.5,3435.8,1276.5,1798.4,3437.0,3449.1,715.9,1256.9,873.8,565.8,1329.6,1841.1,3443.1,3441.9,764.5,978.2,1374.8,1778.1,1454.3,1115.6,-1.0,-4.0,-3.0,-7237.0,-7177.0,10361.0,7563.0,-10.0,-1.0,-7.0,-1.0,0.0,1.0,-5570.0,-5590.0,9822.0,10473.0,-6.0,-1.0,-2.0,1.0
2022-05-13 12:56:55.407021-07:00,2046.4,572.2,1430.5,1562.7,1140.1,1279.2,1234.6,1412.2,3438.2,3434.6,1932.1,1547.8,1538.5,3435.8,1276.5,1798.4,3437.0,3449.1,715.9,1256.9,878.9,562.6,1335.9,1844.0,3443.1,3441.9,764.5,978.2,1383.0,1785.8,1456.2,1118.2,-6.0,-1.0,-4.0,-7239.0,-7175.0,10360.0,7564.0,4.0,-3.0,15.0,0.0,0.0,5.0,-5570.0,-5591.0,9822.0,10473.0,11.0,0.0,4.0,1.0
2022-05-13 12:56:55.451372-07:00,2046.4,572.2,1430.5,1562.7,1125.2,1274.7,1234.6,1398.5,3438.2,3434.6,1932.1,1547.8,1537.6,3435.8,1277.4,1799.4,3444.3,3433.4,712.6,1256.9,878.9,562.6,1335.9,1844.0,3447.9,3440.7,776.9,980.7,1383.0,1785.8,1456.2,1118.2,-4.0,4.0,-2.0,-7240.0,-7173.0,10361.0,7563.0,-13.0,9.0,-8.0,2.0,5.0,7.0,-5569.0,-5591.0,9824.0,10472.0,-5.0,2.0,-1.0,1.0
2022-05-13 12:56:55.496718-07:00,2051.4,579.4,1433.2,1566.5,1125.2,1274.7,1234.6,1414.0,3451.6,3447.9,1927.2,1545.0,1537.6,3435.8,1277.4,1801.3,3445.5,3433.4,712.6,1256.9,878.9,569.0,1342.2,1853.7,3454.0,3440.7,776.9,980.7,1381.2,1781.0,1457.1,1120.9,-5.0,-3.0,-5.0,-7241.0,-7172.0,10360.0,7565.0,4.0,-2.0,9.0,0.0,1.0,5.0,-5569.0,-5591.0,9824.0,10472.0,6.0,0.0,-1.0,1.0
2022-05-13 12:56:55.724634-07:00,2071.5,579.4,1433.2,1566.5,1129.6,1265.8,1233.7,1414.0,3440.7,3447.9,1927.2,1545.0,1537.6,3441.9,1270.3,1801.3,3445.5,3443.1,712.6,1253.3,878.9,569.0,1342.2,1847.9,3454.0,3443.1,764.5,983.3,1381.2,1781.0,1457.1,1112.1,-1.0,0.0,-7.0,-7241.0,-7172.0,10360.0,7565.0,-5.0,-6.0,-2.0,0.0,5.0,3.0,-5569.0,-5591.0,9824.0,10472.0,-4.0,-9.0,2.0,1.0
2022-05-13 12:56:55.726073-07:00,2071.5,569.8,1442.4,1559.0,1129.6,1265.8,1233.7,1404.9,3440.7,3439.5,1928.2,1544.1,1537.6,3441.9,1270.3,1800.3,3441.9,3443.1,712.6,1253.3,880.6,565.0,1334.1,1847.9,3451.6,3443.1,764.5,983.3,1380.3,1782.0,1459.8,1112.1,-4.0,-1.0,-5.0,-7241.0,-7172.0,10360.0,7565.0,-6.0,-7.0,3.0,0.0,1.0,2.0,-5568.0,-5590.0,9824.0,10472.0,1.0,-6.0,2.0,1.0
2022-05-13 12:56:55.729468-07:00,2049.4,569.8,1442.4,1559.0,1127.9,1277.4,1238.2,1404.9,3435.8,3439.5,1928.2,1544.1,1542.2,3444.3,1266.7,1800.3,3441.9,3454.0,709.3,1260.4,880.6,565.0,1334.1,1840.1,3451.6,3444.3,771.1,985.9,1380.3,1782.0,1459.8,1117.4,-3.0,0.0,0.0,-7242.0,-7171.0,10359.0,7566.0,5.0,-5.0,6.0,0.0,2.0,9.0,-5568.0,-5590.0,9824.0,10472.0,3.0,-4.0,2.0,1.0
2022-05-13 12:56:55.730915-07:00,2049.4,569.0,1438.7,1555.3,1127.9,1277.4,1238.2,1402.1,3435.8,3443.1,1933.1,1544.1,1542.2,3444.3,1266.7,1792.6,3434.6,3454.0,709.3,1260.4,876.4,565.0,1334.1,1840.1,3447.9,3444.3,771.1,985.9,1384.8,1786.8,1459.8,1117.4,1.0,0.0,-3.0,-7244.0,-7171.0,10358.0,7567.0,-8.0,13.0,2.0,3.0,3.0,2.0,-5568.0,-5590.0,9824.0,10472.0,-2.0,-2.0,1.0,1.0
2022-05-13 12:56:55.769745-07:00,2044.4,568.2,1438.7,1555.3,1132.2,1265.8,1250.6,1402.1,3438.2,3439.5,1933.1,1544.1,1533.8,3443.1,1272.1,1792.6,3434.6,3434.6,706.9,1249.7,876.4,565.0,1339.5,1833.3,3447.9,3445.5,757.9,992.7,1384.8,1786.8,1459.8,1112.1,1.0,0.0,-10.0,-7245.0,-7172.0,10357.0,7566.0,-4.0,-4.0,0.0,0.0,5.0,-2.0,-5568.0,-5590.0,9824.0,10472.0,-4.0,-6.0,-4.0,1.0
2022-05-13 12:56:55.812288-07:00,2044.4,568.2,1431.4,1568.3,1132.2,1265.8,1239.1,1408.5,3438.2,3439.5,1932.1,1546.9,1533.8,3443.1,1271.2,1802.3,3441.9,3446.7,706.9,1249.7,877.2,566.6,1339.5,1833.3,3435.8,3454.0,757.9,992.7,1386.6,1784.9,1459.8,1112.1,-4.0,-1.0,-6.0,-7244.0,-7172.0,10357.0,7566.0,-1.0,0.0,4.0,-2.0,1.0,0.0,-5568.0,-5590.0,9824.0,10472.0,2.0,-5.0,5.0,1.0
2022-05-13 12:56:55.855988-07:00,2055.4,569.0,1431.4,1568.3,1125.2,1275.6,1239.1,1408.5,3449.1,3445.5,1932.1,1546.9,1537.6,3443.1,1271.2,1802.3,3441.9,3446.7,708.5,1253.3,877.2,566.6,1333.2,1834.3,3435.8,3454.0,772.8,978.2,1386.6,1784.9,1458.9,1104.3,-2.0,2.0,0.0,-7244.0,-7169.0,10357.0,7569.0,-9.0,-7.0,6.0,2.0,1.0,5.0,-5568.0,-5590.0,9824.0,10472.0,-2.0,-1.0,4.0,1.0
2022-05-13 12:56:55.900997-07:00,2055.4,569.0,1433.2,1572.1,1125.2,1275.6,1240.8,1399.4,3449.1,3445.5,1929.2,1546.9,1537.6,3443.1,1274.7,1789.7,3439.5,3435.8,708.5,1253.3,878.9,564.2,1333.2,1834.3,3434.6,3435.8,772.8,978.2,1382.1,1776.2,1458.9,1104.3,-4.0,-3.0,-5.0,-7246.0,-7170.0,10356.0,7568.0,-2.0,9.0,-1.0,-1.0,4.0,6.0,-5568.0,-5590.0,9824.0,10472.0,-3.0,2.0,-1.0,1.0
2022-05-13 12:56:55.947616-07:00,2059.4,572.2,1433.2,1572.1,1128.7,1267.6,1240.8,1399.4,3439.5,3447.9,1929.2,1546.9,1550.6,3435.8,1274.7,1789.7,3439.5,3435.8,706.0,1248.0,878.9,564.2,1335.9,1850.8,3434.6,3435.8,764.5,987.6,1382.1,1776.2,1458.9,1120.0,0.0,-1.0,-8.0,-7246.0,-7170.0,10356.0,7568.0,4.0,5.0,6.0,-1.0,4.0,1.0,-5568.0,-5590.0,9825.0,10472.0,10.0,5.0,2.0,1.0
2022-05-13 12:56:55.991104-07:00,2059.4,572.2,1424.1,1573.9,1128.7,1273.9,1234.6,1399.4,3439.5,3447.9,1926.2,1547.8,1550.6,3451.6,1278.3,1794.5,3434.6,3449.1,706.9,1248.0,875.5,569.8,1335.9,1850.8,3435.8,3446.7,771.1,987.6,1376.6,1780.1,1458.9,1120.0,-1.0,-2.0,-7.0,-7246.0,-7170.0,10356.0,7568.0,-1.0,-7.0,0.0,-1.0,2.0,-1.0,-5568.0,-5590.0,9825.0,10472.0,6.0,-3.0,-1.0,1.0
2022-05-13 12:56:56.036257-07:00,2050.4,579.4,1439.6,1573.9,1133.1,1273.9,1234.6,1399.4,3444.3,3446.7,1921.3,1547.8,1531.0,3451.6,1278.3,1794.5,3434.6,3449.1,706.9,1252.4,875.5,563.4,1335.9,1843.0,3435.8,3446.7,771.1,979.9,1376.6,1776.2,1458.9,1115.6,-2.0,2.0,-1.0,-7246.0,-7169.0,10357.0,7568.0,-7.0,-12.0,14.0,0.0,4.0,6.0,-5567.0,-5590.0,9825.0,10472.0,-5.0,-15.0,3.0,1.0
2022-05-13 12:56:56.127529-07:00,2050.4,579.4,1439.6,1570.2,1133.1,1278.3,1233.7,1393.0,3444.3,3446.7,1921.3,1548.7,1531.0,3443.1,1270.3,1796.5,3437.0,3432.2,711.8,1252.4,877.2,563.4,1335.9,1843.0,3439.5,3438.2,772.0,979.9,1374.8,1776.2,1458.9,1115.6,-2.0,6.0,-1.0,-7246.0,-7167.0,10358.0,7568.0,14.0,-10.0,-2.0,1.0,7.0,4.0,-5566.0,-5590.0,9827.0,10471.0,12.0,3.0,-3.0,1.0
2022-05-13 12:56:56.128929-07:00,2046.4,573.0,1435.0,1570.2,1125.2,1278.3,1233.7,1393.0,3443.1,3443.1,1932.1,1548.7,1532.9,3443.1,1270.3,1796.5,3437.0,3432.2,711.8,1250.6,877.2,567.4,1325.0,1852.8,3439.5,3438.2,772.0,980.7,1374.8,1780.1,1461.7,1120.0,0.0,-6.0,0.0,-7245.0,-7167.0,10358.0,7569.0,-16.0,9.0,-1.0,0.0,1.0,6.0,-5566.0,-5590.0,9827.0,10471.0,-7.0,-3.0,1.0,1.0
2022-05-13 12:56:56.216171-07:00,2046.4,573.0,1435.0,1563.7,1125.2,1270.3,1236.4,1402.1,3443.1,3443.1,1932.1,1541.3,1532.9,3437.0,1270.3,1794.5,3440.7,3439.5,707.7,1250.6,876.4,567.4,1325.0,1852.8,3440.7,3438.2,775.3,980.7,1378.5,1780.1,1461.7,1120.0,-3.0,3.0,-7.0,-7248.0,-7169.0,10355.0,7568.0,5.0,8.0,0.0,-2.0,6.0,2.0,-5566.0,-5590.0,9827.0,10471.0,9.0,4.0,-6.0,1.0
2022-05-13 12:56:56.261000-07:00,2051.4,578.6,1434.1,1563.7,1126.1,1270.3,1236.4,1402.1,3446.7,3438.2,1933.1,1541.3,1537.6,3437.0,1270.3,1794.5,3440.7,3439.5,707.7,1252.4,876.4,563.4,1332.3,1846.9,3440.7,3438.2,775.3,977.3,1378.5,1776.2,1465.4,1123.5,-1.0,-5.0,-9.0,-7250.0,-7167.0,10354.0,7569.0,-17.0,8.0,2.0,-1.0,4.0,1.0,-5566.0,-5590.0,9826.0,10471.0,-11.0,-7.0,0.0,1.0
2022-05-13 12:56:56.351227-07:00,2051.4,578.6,1434.1,1566.5,1127.0,1278.3,1239.1,1409.4,3446.7,3438.2,1933.1,1546.9,1545.9,3438.2,1273.9,1802.3,3450.4,3438.2,712.6,1253.3,878.9,563.4,1332.3,1846.9,3451.6,3443.1,768.7,979.9,1380.3,1776.2,1465.4,1123.5,0.0,5.0,-6.0,-7249.0,-7167.0,10354.0,7570.0,10.0,-15.0,-3.0,2.0,6.0,3.0,-5566.0,-5590.0,9826.0,10471.0,10.0,-1.0,2.0,1.0
2022-05-13 12:56:56.353216-07:00,2047.4,561.8,1432.3,1573.0,1127.0,1278.3,1239.1,1409.4,3443.1,3434.6,1918.3,1545.9,1545.9,3438.2,1273.9,1802.3,3450.4,3438.2,712.6,1253.3,875.5,567.4,1331.4,1847.9,3451.6,3443.1,768.7,979.9,1380.3,1776.2,1463.5,1117.4,48.0,62.0,71.0,-7251.0,-7163.0,10351.0,7578.0,-99.0,0.0,-7.0,1.0,29.0,-43.0,-5567.0,-5583.0,9826.0,10475.0,-133.0,-66.0,62.0,1.0
2022-05-13 12:56:56.442286-07:00,2047.4,561.8,1432.3,1573.0,1128.7,1280.1,1231.0,1412.2,3443.1,3434.6,1918.3,1545.9,1535.7,3445.5,1272.1,1792.6,3439.5,3440.7,711.0,1255.1,875.5,567.4,1331.4,1847.9,3438.2,3446.7,771.1,988.5,1380.3,1776.2,1463.5,1117.4,34.0,27.0,144.0,-7446.0,-7136.0,10131.0,7708.0,-914.0,641.0,-174.0,11.0,19.0,-1.0,-5622.0,-5514.0,9755.0,10548.0,-603.0,81.0,64.0,1.0
2022-05-13 12:56:56.445479-07:00,2053.4,577.0,1445.1,1570.2,1128.7,1280.1,1231.0,1412.2,3449.1,3445.5,1940.0,1547.8,1535.7,3445.5,1272.1,1792.6,3439.5,3440.7,711.0,1255.1,878.0,569.0,1358.5,1843.0,3438.2,3446.7,771.1,988.5,1386.6,1816.8,1477.3,1110.4,-146.0,183.0,-116.0,-7890.0,-7265.0,9600.0,7825.0,-1465.0,1428.0,-595.0,-45.0,60.0,49.0,-5829.0,-5389.0,9481.0,10748.0,-1532.0,233.0,132.0,1.0
2022-05-13 12:56:56.531371-07:00,2053.4,577.0,1445.1,1570.2,1128.7,1312.4,1248.0,1407.6,3449.1,3445.5,1940.0,1547.8,1536.6,3439.5,1613.4,1886.0,3438.2,3435.8,711.0,1251.5,878.0,569.0,1358.5,1843.0,3447.9,3446.7,828.5,1009.9,1386.6,1816.8,1477.3,1110.4,-54.0,-185.0,-130.0,-8299.0,-7328.0,8856.0,8212.0,-1499.0,928.0,-666.0,-157.0,7.0,-82.0,-6132.0,-5184.0,9021.0,11072.0,-838.0,242.0,72.0,1.0
2022-05-13 12:56:56.533005-07:00,2100.7,578.6,1918.3,1714.8,1128.7,1312.4,1248.0,1411.3,3433.4,3446.7,2337.9,1656.8,1536.6,3439.5,1613.4,2114.9,3438.2,3435.8,711.0,1251.5,879.7,566.6,1412.2,1889.9,3447.9,3446.7,828.5,1009.9,1387.5,2114.9,1850.8,1115.6,41.0,98.0,-153.0,-8610.0,-7389.0,8567.0,8143.0,121.0,647.0,403.0,33.0,140.0,-13.0,-6208.0,-5217.0,8943.0,11077.0,512.0,190.0,-107.0,1.0
2022-05-13 12:56:56.577004-07:00,2122.0,578.6,1918.3,1714.8,1163.8,1355.8,1258.7,1411.3,3428.6,3446.7,2337.9,1656.8,1577.7,3440.7,1794.5,2114.9,3438.2,3440.7,714.2,1252.4,879.7,566.6,1412.2,1924.3,3447.9,3437.0,867.1,1012.5,1387.5,2114.9,1850.8,1112.1,4.0,117.0,37.0,-8727.0,-7375.0,8568.0,8029.0,-275.0,126.0,59.0,15.0,73.0,6.0,-6157.0,-5335.0,8966.0,11031.0,-239.0,97.0,-260.0,1.0
2022-05-13 12:56:56.712558-07:00,2122.0,598.7,2096.7,1817.8,1163.8,1355.8,1258.7,1415.8,3428.6,3444.3,2499.4,1731.1,1577.7,3440.7,1794.5,2183.0,3443.1,3440.7,714.2,1252.4,876.4,570.6,1430.5,1924.3,3447.9,3437.0,867.1,1012.5,1396.7,2218.8,1938.0,1112.1,-103.0,-97.0,14.0,-8826.0,-7319.0,8432.0,8116.0,-502.0,173.0,7.0,-31.0,-98.0,79.0,-6153.0,-5371.0,8816.0,11136.0,-372.0,114.0,-164.0,1.0
2022-05-13 12:56:56.714343-07:00,2114.9,598.7,2096.7,1817.8,1192.9,1339.5,1259.6,1415.8,3443.1,3444.3,2499.4,1731.1,1597.4,3449.1,1811.0,2183.0,3443.1,3445.5,711.0,1259.6,876.4,570.6,1430.5,1950.9,3447.9,3439.5,934.7,1016.8,1396.7,2218.8,1938.0,1113.9,-23.0,-77.0,80.0,-8997.0,-7198.0,8241.0,8231.0,-854.0,247.0,-33.0,14.0,-85.0,18.0,-6235.0,-5334.0,8637.0,11247.0,-679.0,105.0,84.0,1.0
2022-05-13 12:56:56.801246-07:00,2114.9,618.9,2125.0,1872.3,1192.9,1339.5,1259.6,1420.4,3443.1,3438.2,2570.2,1790.7,1597.4,3449.1,1811.0,2228.1,3435.8,3445.5,711.0,1259.6,881.4,565.8,1451.6,1950.9,3443.1,3439.5,934.7,1016.8,1387.5,2264.1,1977.6,1113.9,-27.0,-145.0,16.0,-9200.0,-7085.0,8055.0,8290.0,-349.0,219.0,320.0,32.0,-77.0,25.0,-6358.0,-5264.0,8507.0,11311.0,10.0,105.0,169.0,1.0
2022-05-13 12:56:56.803573-07:00,2103.7,618.9,2125.0,1872.3,1193.8,1344.0,1259.6,1420.4,3433.4,3438.2,2570.2,1790.7,1633.1,3433.4,1802.3,2228.1,3435.8,3444.3,709.3,1260.4,881.4,565.8,1451.6,1991.5,3443.1,3441.9,933.0,1024.5,1387.5,2264.1,1977.6,1122.6,36.0,45.0,-2.0,-9367.0,-6936.0,8051.0,8232.0,-469.0,-15.0,379.0,14.0,15.0,-13.0,-6432.0,-5270.0,8522.0,11254.0,-60.0,148.0,168.0,1.0
2022-05-13 12:56:56.890982-07:00,2103.7,628.6,2137.2,1920.3,1193.8,1344.0,1261.3,1447.0,3433.4,3438.2,2613.4,1852.8,1633.1,3433.4,1783.9,2260.0,3438.2,3438.2,709.3,1260.4,877.2,569.0,1488.4,1991.5,3449.1,3446.7,933.0,1024.5,1401.2,2283.8,1989.5,1122.6,58.0,0.0,-41.0,-9531.0,-6713.0,7982.0,8295.0,-480.0,-32.0,285.0,28.0,11.0,-5.0,-6519.0,-5263.0,8498.0,11226.0,-37.0,109.0,104.0,1.0
2022-05-13 12:56:56.938182-07:00,2099.7,647.3,2137.2,1920.3,1199.1,1387.5,1261.3,1447.0,3441.9,3441.9,2613.4,1852.8,1641.6,3437.0,1783.9,2260.0,3438.2,3438.2,713.4,1263.1,877.2,569.0,1509.7,1975.6,3449.1,3446.7,922.0,1017.6,1401.2,2283.8,1996.5,1111.2,53.0,18.0,-44.0,-9639.0,-6541.0,7941.0,8348.0,-511.0,-141.0,158.0,12.0,22.0,-8.0,-6576.0,-5259.0,8469.0,11217.0,-141.0,55.0,42.0,1.0
2022-05-13 12:56:56.982575-07:00,2099.7,647.3,2135.1,2043.4,1199.1,1387.5,1354.9,1604.0,3441.9,3441.9,2592.9,1853.7,1641.6,3437.0,1757.9,2262.1,3434.6,3441.9,713.4,1263.1,880.6,571.4,1509.7,1975.6,3438.2,3443.1,922.0,1017.6,1405.8,2287.9,1996.5,1111.2,-9.0,13.0,-46.0,-9728.0,-6358.0,7892.0,8432.0,-521.0,-155.0,159.0,5.0,2.0,-2.0,-6603.0,-5235.0,8442.0,11232.0,-118.0,-28.0,33.0,1.0
2022-05-13 12:56:56.984047-07:00,2076.5,650.5,2135.1,2043.4,1257.8,1425.9,1354.9,1604.0,3444.3,3440.7,2592.9,1853.7,1641.6,3439.5,1757.9,2262.1,3434.6,3441.9,719.2,1261.3,880.6,571.4,1506.9,1964.7,3438.2,3443.1,913.5,1010.8,1405.8,2287.9,1978.6,1113.9,26.0,30.0,-1.0,-9776.0,-6178.0,7875.0,8525.0,-309.0,-232.0,35.0,48.0,8.0,-14.0,-6604.0,-5210.0,8434.0,11249.0,-43.0,-56.0,-18.0,1.0
2022-05-13 12:56:57.028167-07:00,2076.5,650.5,2080.6,2034.4,1257.8,1425.9,1524.5,1768.5,3444.3,3440.7,2543.3,1845.0,1641.6,3439.5,1731.1,2243.5,3431.0,3438.2,719.2,1261.3,883.1,565.8,1506.9,1964.7,3435.8,3438.2,913.5,1010.8,1405.8,2262.1,1978.6,1113.9,-6.0,11.0,-22.0,-9754.0,-6136.0,7865.0,8590.0,-2.0,-87.0,-170.0,5.0,-8.0,14.0,-6588.0,-5202.0,8429.0,11266.0,-12.0,-20.0,-83.0,1.0
2022-05-13 12:56:57.073493-07:00,2058.4,647.3,2059.4,2034.4,1273.9,1438.7,1524.5,1768.5,3438.2,3443.1,2535.8,1845.0,1631.3,3441.9,1731.1,2243.5,3431.0,3438.2,721.6,1274.7,883.1,569.0,1493.0,1971.7,3435.8,3438.2,917.7,1015.1,1405.8,2239.4,1961.8,1111.2,8.0,-31.0,-61.0,-9703.0,-6123.0,7858.0,8663.0,-194.0,-161.0,-93.0,5.0,-27.0,-17.0,-6570.0,-5204.0,8406.0,11293.0,-107.0,-42.0,-30.0,1.0
2022-05-13 12:56:57.161605-07:00,2058.4,647.3,2059.4,2028.4,1273.9,1425.9,1643.5,1882.0,3438.2,3443.1,2535.8,1845.0,1631.3,3438.2,1726.3,2252.8,3440.7,3439.5,722.5,1274.7,885.6,569.0,1493.0,1971.7,3441.9,3439.5,905.9,1015.1,1412.2,2239.4,1961.8,1111.2,-1.0,-51.0,-2.0,-9683.0,-6103.0,7828.0,8727.0,-141.0,26.0,-123.0,4.0,-36.0,-16.0,-6558.0,-5180.0,8390.0,11323.0,-98.0,-62.0,13.0,1.0
2022-05-13 12:56:57.206058-07:00,2089.6,650.5,2027.4,2028.4,1337.7,1425.9,1643.5,1882.0,3445.5,3441.9,2528.3,1845.0,1622.8,3438.2,1726.3,2252.8,3440.7,3439.5,722.5,1274.7,885.6,568.2,1481.0,1961.8,3441.9,3439.5,905.9,1008.2,1412.2,2233.2,1941.0,1119.1,-29.0,-63.0,-24.0,-9707.0,-6094.0,7767.0,8760.0,-129.0,66.0,-9.0,14.0,-45.0,-1.0,-6575.0,-5142.0,8379.0,11339.0,-61.0,3.0,108.0,1.0
2022-05-13 12:56:57.252048-07:00,2089.6,650.5,2027.4,2013.4,1337.7,1430.5,1677.6,1935.1,3445.5,3441.9,2528.3,1843.0,1622.8,3440.7,1704.3,2239.4,3432.2,3428.6,724.1,1274.7,881.4,568.2,1481.0,1961.8,3443.1,3441.9,894.1,1008.2,1406.7,2233.2,1941.0,1119.1,20.0,-4.0,-14.0,-9735.0,-6065.0,7758.0,8758.0,-36.0,15.0,83.0,10.0,-7.0,-21.0,-6608.0,-5113.0,8392.0,11322.0,-11.0,-26.0,101.0,1.0
2022-05-13 12:56:57.611999-07:00,2086.6,639.2,2006.4,2013.4,1329.6,1430.5,1677.6,1935.1,3440.7,3438.2,2519.7,1843.0,1625.6,3440.7,1704.3,2239.4,3432.2,3428.6,724.1,1278.3,881.4,574.6,1462.6,1961.8,3443.1,3441.9,894.1,1000.5,1406.7,2221.9,1919.3,1128.7,-5.0,51.0,-49.0,-9768.0,-6043.0,7701.0,8786.0,-275.0,82.0,-84.0,-5.0,25.0,-6.0,-6644.0,-5060.0,8369.0,11343.0,-306.0,-60.0,64.0,1.0
2022-05-13 12:56:57.614410-07:00,2086.6,639.2,2006.4,2011.4,1317.8,1430.5,1648.3,1911.5,3440.7,3438.2,2519.7,1845.9,1627.5,3449.1,1697.6,2229.1,3439.5,3446.7,718.4,1282.8,885.6,574.6,1462.6,1961.8,3440.7,3438.2,892.4,1001.3,1408.5,2221.9,1919.3,1128.7,-34.0,7.0,-40.0,-9798.0,-5970.0,7596.0,8894.0,-365.0,-61.0,-140.0,-28.0,-12.0,12.0,-6687.0,-4965.0,8295.0,11413.0,-221.0,-98.0,54.0,1.0
2022-05-13 12:56:57.615787-07:00,2071.5,631.9,2017.4,2036.4,1317.8,1430.5,1648.3,1911.5,3439.5,3441.9,2516.5,1848.9,1627.5,3449.1,1697.6,2229.1,3439.5,3446.7,718.4,1282.8,882.3,569.0,1470.9,1954.8,3440.7,3438.2,892.4,1001.3,1404.9,2226.0,1935.1,1127.0,-10.0,-7.0,27.0,-9758.0,-5938.0,7599.0,8956.0,179.0,-132.0,-42.0,-12.0,23.0,48.0,-6675.0,-4929.0,8314.0,11422.0,284.0,-57.0,-27.0,1.0
2022-05-13 12:56:57.616896-07:00,2071.5,631.9,2017.4,2036.4,1343.1,1428.6,1665.3,1897.7,3439.5,3441.9,2516.5,1848.9,1622.8,3455.2,1717.7,2256.9,3439.5,3438.2,716.7,1283.7,882.3,569.0,1470.9,1954.8,3440.7,3458.9,897.4,1001.3,1404.9,2226.0,1935.1,1127.0,-18.0,35.0,43.0,-9712.0,-5981.0,7661.0,8924.0,167.0,4.0,-10.0,-28.0,43.0,58.0,-6619.0,-4971.0,8402.0,11372.0,316.0,-16.0,-45.0,1.0
2022-05-13 12:56:57.702848-07:00,2145.3,639.2,2022.4,2141.2,1343.1,1428.6,1665.3,1897.7,3443.1,3439.5,2559.4,1918.3,1622.8,3455.2,1717.7,2256.9,3439.5,3438.2,716.7,1283.7,883.1,570.6,1458.9,1962.8,3440.7,3458.9,897.4,1001.3,1404.0,2270.3,1984.6,1125.2,-10.0,37.0,68.0,-9637.0,-6101.0,7771.0,8828.0,743.0,-9.0,8.0,-4.0,68.0,54.0,-6534.0,-5078.0,8521.0,11284.0,642.0,91.0,-173.0,1.0
2022-05-13 12:56:57.706523-07:00,2227.0,631.1,2008.4,2115.9,1494.9,1393.9,1665.3,1968.7,3441.9,3437.0,2541.1,1914.4,1632.2,3449.1,1682.4,2280.7,3445.5,3440.7,722.5,1295.4,880.6,574.6,1440.5,1958.8,3435.8,3440.7,894.9,1003.9,1404.0,2253.8,1975.6,1228.4,26.0,-13.0,-75.0,-9284.0,-6809.0,7764.0,8696.0,367.0,34.0,-410.0,5.0,-11.0,-15.0,-6199.0,-5778.0,8329.0,11280.0,227.0,252.0,-588.0,1.0
2022-05-13 12:56:57.748687-07:00,2232.2,631.1,2008.4,2115.9,1559.0,1383.0,1649.2,1968.7,3441.9,3437.0,2541.1,1914.4,1628.4,3437.0,1686.2,2280.7,3445.5,3431.0,725.8,1311.5,880.6,574.6,1440.5,1948.9,3435.8,3444.3,889.8,1005.6,1404.0,2253.8,1975.6,1268.5,9.0,-43.0,-95.0,-9113.0,-6982.0,7809.0,8699.0,324.0,-73.0,-254.0,-3.0,-57.0,-42.0,-6031.0,-6004.0,8288.0,11284.0,234.0,92.0,-507.0,1.0
2022-05-13 12:56:57.791686-07:00,2232.2,626.2,2001.5,2115.9,1559.0,1383.0,1649.2,1938.0,3441.9,3433.4,2564.8,1934.1,1628.4,3437.0,1686.2,2292.1,3435.8,3431.0,725.8,1311.5,883.1,573.0,1445.1,1948.9,3437.0,3444.3,889.8,1005.6,1399.4,2260.0,1986.6,1268.5,7.0,-108.0,-90.0,-8954.0,-7066.0,7896.0,8717.0,449.0,-372.0,-149.0,18.0,-98.0,-57.0,-5840.0,-6174.0,8306.0,11279.0,398.0,-57.0,-414.0,1.0
2022-05-13 12:56:57.882302-07:00,2220.9,626.2,2001.5,2115.9,1607.7,1379.4,1630.3,1938.0,3446.7,3433.4,2564.8,1934.1,1637.9,3446.7,1688.1,2292.1,3435.8,3440.7,719.2,1322.3,883.1,573.0,1445.1,1948.9,3437.0,3444.3,888.2,1000.5,1399.4,2260.0,1986.6,1288.2,6.0,-106.0,-19.0,-8776.0,-7098.0,8029.0,8750.0,121.0,-305.0,-170.0,10.0,-90.0,-31.0,-5681.0,-6258.0,8335.0,11293.0,42.0,-113.0,-235.0,1.0
2022-05-13 12:56:57.884260-07:00,2220.9,620.5,1985.6,2116.9,1607.7,1379.4,1609.6,1921.3,3446.7,3437.0,2556.2,1945.0,1637.9,3446.7,1674.8,2295.2,3437.0,3439.5,719.2,1322.3,874.7,570.6,1432.3,1948.9,3443.1,3441.9,888.2,1000.5,1408.5,2252.8,1980.6,1288.2,-22.0,-94.0,9.0,-8669.0,-7102.0,8087.0,8801.0,214.0,-165.0,-91.0,6.0,-71.0,21.0,-5585.0,-6290.0,8344.0,11316.0,169.0,-53.0,-146.0,1.0
2022-05-13 12:56:57.971956-07:00,2220.9,627.8,1985.6,2116.9,1603.0,1363.9,1609.6,1921.3,3434.6,3444.3,2556.2,1945.0,1642.6,3446.7,1674.8,2295.2,3437.0,3439.5,716.7,1335.9,874.7,570.6,1418.6,1949.9,3443.1,3441.9,889.0,1015.1,1408.5,2252.8,1959.8,1290.9,-10.0,-32.0,28.0,-8598.0,-7137.0,8140.0,8793.0,74.0,53.0,-83.0,-5.0,-45.0,16.0,-5514.0,-6330.0,8374.0,11306.0,48.0,4.0,-71.0,1.0
2022-05-13 12:56:58.020881-07:00,2220.9,627.8,1970.7,2104.8,1603.0,1363.9,1597.4,1884.0,3434.6,3444.3,2535.8,1934.1,1642.6,3446.7,1653.0,2281.7,3443.1,3432.2,716.7,1335.9,878.0,575.4,1418.6,1949.9,3435.8,3438.2,889.0,1015.1,1409.4,2241.4,1959.8,1290.9,-27.0,-60.0,-6.0,-8591.0,-7184.0,8121.0,8779.0,99.0,101.0,38.0,-4.0,-43.0,33.0,-5506.0,-6343.0,8359.0,11314.0,25.0,31.0,9.0,1.0
2022-05-13 12:56:58.022098-07:00,2204.5,627.8,1970.7,2104.8,1589.9,1360.3,1597.4,1884.0,3443.1,3439.5,2535.8,1934.1,1637.9,3445.5,1653.0,2281.7,3443.1,3432.2,719.2,1333.2,878.0,575.4,1419.5,1943.0,3435.8,3438.2,882.3,1006.5,1409.4,2241.4,1955.8,1283.7,-3.0,1.0,-25.0,-8604.0,-7200.0,8139.0,8736.0,10.0,33.0,79.0,-3.0,-2.0,0.0,-5516.0,-6352.0,8380.0,11289.0,77.0,29.0,73.0,1.0
2022-05-13 12:56:58.106709-07:00,2204.5,627.8,1958.8,2095.7,1589.9,1360.3,1583.3,1888.9,3443.1,3439.5,2509.0,1933.1,1637.9,3445.5,1657.7,2263.1,3433.4,3443.1,719.2,1333.2,883.1,572.2,1419.5,1943.0,3446.7,3451.6,882.3,1006.5,1403.0,2237.3,1955.8,1283.7,11.0,-2.0,-22.0,-8626.0,-7175.0,8151.0,8725.0,-4.0,-38.0,85.0,2.0,12.0,1.0,-5544.0,-6332.0,8399.0,11273.0,-3.0,-20.0,100.0,1.0
2022-05-13 12:56:58.151785-07:00,2205.5,623.8,1958.8,2095.7,1577.7,1344.0,1583.3,1888.9,3441.9,3440.7,2509.0,1933.1,1638.8,3450.4,1657.7,2263.1,3433.4,3443.1,720.0,1339.5,883.1,572.2,1431.4,1941.0,3446.7,3451.6,877.2,1000.5,1403.0,2237.3,1953.9,1275.6,19.0,28.0,-7.0,-8631.0,-7152.0,8181.0,8710.0,31.0,-18.0,48.0,-3.0,13.0,-4.0,-5557.0,-6313.0,8425.0,11258.0,38.0,-21.0,61.0,1.0
2022-05-13 12:56:58.197290-07:00,2205.5,623.8,1959.8,2090.6,1577.7,1344.0,1582.4,1860.6,3441.9,3440.7,2505.8,1928.2,1638.8,3439.5,1639.8,2262.1,3439.5,3433.4,715.9,1339.5,879.7,570.6,1431.4,1941.0,3438.2,3438.2,875.5,1000.5,1405.8,2228.1,1953.9,1275.6,-6.0,14.0,-11.0,-8634.0,-7148.0,8186.0,8706.0,-17.0,-8.0,-4.0,-6.0,3.0,9.0,-5561.0,-6304.0,8433.0,11254.0,-37.0,-3.0,13.0,1.0
2022-05-13 12:56:58.241015-07:00,2197.3,623.8,1949.9,2090.6,1563.7,1344.0,1582.4,1860.6,3439.5,3433.4,2482.3,1928.2,1633.1,3439.5,1639.8,2262.1,3439.5,3433.4,715.9,1332.3,879.7,571.4,1416.7,1948.9,3438.2,3438.2,875.5,1000.5,1405.8,2220.9,1942.0,1270.3,-8.0,-4.0,-14.0,-8624.0,-7148.0,8197.0,8705.0,59.0,-30.0,0.0,-9.0,-8.0,4.0,-5560.0,-6306.0,8429.0,11257.0,33.0,6.0,-20.0,1.0
2022-05-13 12:56:58.287055-07:00,2197.3,623.8,1949.9,2087.6,1563.7,1343.1,1570.2,1862.5,3439.5,3433.4,2482.3,1934.1,1633.1,3441.9,1640.7,2256.9,3438.2,3440.7,719.2,1332.3,882.3,571.4,1416.7,1948.9,3433.4,3431.0,871.3,1000.5,1401.2,2220.9,1942.0,1270.3,-6.0,-8.0,-18.0,-8608.0,-7155.0,8217.0,8697.0,28.0,-24.0,9.0,-10.0,-11.0,0.0,-5549.0,-6314.0,8437.0,11251.0,19.0,-4.0,-5.0,1.0
2022-05-13 12:56:58.331135-07:00,2180.9,629.5,1933.1,2087.6,1575.8,1343.1,1570.2,1862.5,3435.8,3437.0,2475.9,1934.1,1629.4,3441.9,1640.7,2256.9,3438.2,3440.7,719.2,1329.6,882.3,571.4,1416.7,1947.9,3433.4,3431.0,871.3,997.9,1401.2,2208.6,1932.1,1267.6,-2.0,-7.0,-11.0,-8599.0,-7156.0,8229.0,8692.0,27.0,-21.0,23.0,3.0,-5.0,14.0,-5544.0,-6310.0,8445.0,11250.0,26.0,-19.0,20.0,1.0
2022-05-13 12:56:58.421732-07:00,2180.9,629.5,1933.1,2083.6,1575.8,1338.6,1564.6,1853.7,3435.8,3437.0,2475.9,1923.3,1629.4,3440.7,1628.4,2250.7,3435.8,3431.0,720.8,1329.6,878.9,571.4,1416.7,1947.9,3449.1,3439.5,868.8,997.9,1400.3,2208.6,1932.1,1267.6,13.0,-6.0,8.0,-8599.0,-7137.0,8245.0,8693.0,-10.0,-54.0,43.0,11.0,-5.0,7.0,-5546.0,-6296.0,8457.0,11248.0,7.0,-30.0,38.0,1.0
2022-05-13 12:56:58.559676-07:00,2195.2,610.8,1945.9,2062.5,1541.3,1338.6,1564.6,1853.7,3438.2,3439.5,2475.9,1915.4,1636.0,3440.7,1628.4,2250.7,3435.8,3431.0,720.8,1332.3,883.9,573.0,1415.8,1945.9,3449.1,3439.5,868.8,1008.2,1398.5,2210.6,1935.1,1271.2,2.0,9.0,-2.0,-8606.0,-7126.0,8251.0,8689.0,-25.0,12.0,23.0,4.0,1.0,11.0,-5552.0,-6285.0,8467.0,11243.0,-6.0,-6.0,33.0,1.0
2022-05-13 12:56:58.563884-07:00,2195.2,610.8,1945.9,2062.5,1542.2,1338.6,1564.6,1857.6,3438.2,3439.5,2475.9,1915.4,1626.5,3447.9,1644.5,2254.8,3440.7,3441.9,711.8,1328.7,883.9,573.0,1415.8,1945.9,3440.7,3451.6,872.1,991.9,1398.5,2210.6,1935.1,1271.2,-1.0,3.0,-7.0,-8615.0,-7125.0,8255.0,8678.0,40.0,1.0,41.0,-1.0,3.0,8.0,-5559.0,-6281.0,8474.0,11237.0,40.0,12.0,19.0,1.0
2022-05-13 12:56:58.565577-07:00,2189.1,614.9,1935.1,2079.5,1542.2,1338.6,1564.6,1857.6,3441.9,3446.7,2468.5,1916.4,1626.5,3447.9,1644.5,2254.8,3440.7,3441.9,711.8,1328.7,878.0,562.6,1413.1,1937.1,3440.7,3451.6,872.1,991.9,1393.0,2198.3,1930.2,1267.6,0.0,28.0,-6.0,-8611.0,-7132.0,8272.0,8659.0,23.0,18.0,5.0,-5.0,17.0,11.0,-5556.0,-6289.0,8487.0,11224.0,20.0,11.0,7.0,1.0
2022-05-13 12:56:58.662837-07:00,2189.1,614.9,1935.1,2079.5,1529.2,1327.8,1559.9,1855.7,3441.9,3446.7,2468.5,1916.4,1638.8,3444.3,1633.1,2271.4,3440.7,3435.8,712.6,1329.6,878.0,562.6,1413.1,1937.1,3441.9,3437.0,869.6,997.0,1393.0,2198.3,1930.2,1267.6,-13.0,2.0,-14.0,-8620.0,-7137.0,8257.0,8661.0,-32.0,34.0,-17.0,-5.0,-1.0,15.0,-5564.0,-6288.0,8475.0,11230.0,-47.0,11.0,-1.0,1.0
2022-05-13 12:56:58.664915-07:00,2174.8,621.4,1935.1,2079.5,1529.2,1327.8,1559.9,1855.7,3439.5,3446.7,2461.0,1909.5,1638.8,3444.3,1633.1,2271.4,3440.7,3435.8,712.6,1329.6,885.6,569.0,1415.8,1941.0,3441.9,3437.0,869.6,997.0,1404.9,2199.3,1915.4,1263.1,2.0,-2.0,-10.0,-8617.0,-7141.0,8256.0,8662.0,25.0,-10.0,-1.0,-2.0,3.0,0.0,-5571.0,-6290.0,8465.0,11233.0,6.0,18.0,-7.0,1.0
2022-05-13 12:56:58.693707-07:00,2174.8,621.4,1935.1,2079.5,1529.2,1332.3,1548.7,1845.0,3439.5,3446.7,2461.0,1909.5,1631.3,3437.0,1627.5,2241.4,3438.2,3437.0,708.5,1331.4,885.6,569.0,1415.8,1941.0,3451.6,3444.3,857.0,1003.9,1404.9,2199.3,1915.4,1263.1,-6.0,-23.0,-24.0,-8621.0,-7145.0,8246.0,8665.0,-58.0,22.0,-24.0,-3.0,-17.0,3.0,-5576.0,-6290.0,8455.0,11238.0,-61.0,1.0,1.0,1.0
2022-05-13 12:56:58.736678-07:00,2180.9,615.7,1931.1,2064.5,1529.2,1332.3,1548.7,1843.0,3441.9,3440.7,2485.5,1908.5,1631.3,3437.0,1627.5,2239.4,3433.4,3437.0,708.5,1331.4,882.3,574.6,1406.7,1931.1,3449.1,3444.3,857.0,1003.9,1398.5,2204.5,1922.3,1256.9,0.0,-5.0,-22.0,-8618.0,-7147.0,8253.0,8659.0,41.0,-7.0,21.0,0.0,-2.0,0.0,-5572.0,-6293.0,8459.0,11236.0,43.0,-1.0,-9.0,1.0
2022-05-13 12:56:58.781041-07:00,2177.9,615.7,1931.1,2064.5,1533.8,1336.8,1551.5,1843.0,3445.5,3440.7,2485.5,1908.5,1627.5,3433.4,1624.7,2239.4,3433.4,3449.1,711.8,1330.5,882.3,574.6,1406.7,1933.1,3449.1,3433.4,862.1,996.2,1398.5,2204.5,1922.3,1252.4,-1.0,-8.0,-19.0,-8612.0,-7150.0,8266.0,8651.0,0.0,-2.0,-9.0,-4.0,-10.0,-5.0,-5566.0,-6298.0,8466.0,11230.0,-5.0,-3.0,-7.0,1.0
2022-05-13 12:56:58.871271-07:00,2177.9,603.6,1919.3,2046.4,1533.8,1336.8,1551.5,1835.2,3445.5,3440.7,2453.6,1904.6,1627.5,3433.4,1624.7,2232.2,3439.5,3449.1,711.8,1330.5,872.1,569.0,1404.9,1933.1,3445.5,3433.4,862.1,996.2,1393.0,2184.0,1913.4,1252.4,-6.0,-9.0,-15.0,-8602.0,-7153.0,8273.0,8650.0,38.0,-42.0,4.0,-3.0,-10.0,0.0,-5565.0,-6295.0,8465.0,11233.0,24.0,-15.0,-3.0,1.0
2022-05-13 12:56:58.872726-07:00,2169.7,603.6,1919.3,2046.4,1518.0,1328.7,1565.5,1835.2,3444.3,3440.7,2453.6,1904.6,1634.1,3445.5,1627.5,2232.2,3439.5,3439.5,717.5,1327.8,872.1,569.0,1404.9,1939.0,3445.5,3441.9,865.4,997.9,1393.0,2184.0,1913.4,1256.9,2.0,-8.0,-6.0,-8591.0,-7151.0,8290.0,8646.0,24.0,-10.0,10.0,1.0,-10.0,0.0,-5558.0,-6297.0,8475.0,11228.0,19.0,-7.0,6.0,1.0
2022-05-13 12:56:58.965301-07:00,2169.7,604.4,1921.3,2063.5,1518.0,1328.7,1565.5,1844.0,3444.3,3443.1,2452.6,1896.7,1634.1,3445.5,1627.5,2241.4,3440.7,3439.5,717.5,1327.8,882.3,573.0,1410.3,1939.0,3446.7,3441.9,865.4,997.9,1426.8,2183.0,1915.4,1256.9,-5.0,-11.0,-13.0,-8589.0,-7153.0,8301.0,8637.0,40.0,-14.0,33.0,-1.0,-8.0,6.0,-5555.0,-6298.0,8484.0,11222.0,43.0,-13.0,13.0,1.0
2022-05-13 12:56:58.966529-07:00,2163.6,612.5,1921.3,2063.5,1531.0,1331.4,1550.6,1844.0,3439.5,3443.1,2452.6,1896.7,1635.0,3438.2,1622.8,2241.4,3440.7,3443.1,717.5,1323.2,882.3,573.0,1404.9,1936.1,3446.7,3438.2,862.1,999.6,1426.8,2183.0,1911.5,1264.0,-3.0,10.0,-7.0,-8590.0,-7149.0,8316.0,8625.0,5.0,3.0,26.0,0.0,0.0,9.0,-5553.0,-6295.0,8500.0,11213.0,16.0,-15.0,24.0,1.0
2022-05-13 12:56:59.098629-07:00,2163.6,612.5,1910.5,2054.4,1531.0,1331.4,1548.7,1839.1,3439.5,3443.1,2461.0,1906.6,1635.0,3438.2,1626.5,2240.4,3441.9,3443.1,717.5,1323.2,882.3,577.0,1404.9,1936.1,3438.2,3443.1,862.1,999.6,1401.2,2186.0,1911.5,1264.0,-12.0,-1.0,4.0,-8595.0,-7144.0,8318.0,8622.0,9.0,-1.0,25.0,-2.0,3.0,12.0,-5558.0,-6288.0,8503.0,11212.0,21.0,2.0,21.0,1.0
2022-05-13 12:56:59.100009-07:00,2157.5,598.7,1910.5,2054.4,1520.8,1324.1,1548.7,1839.1,3434.6,3443.1,2461.0,1906.6,1628.4,3441.9,1626.5,2240.4,3441.9,3443.1,716.7,1325.9,882.3,577.0,1402.1,1936.1,3438.2,3443.1,865.4,995.3,1401.2,2186.0,1909.5,1254.2,-5.0,18.0,-7.0,-8601.0,-7148.0,8319.0,8611.0,-6.0,35.0,8.0,-8.0,9.0,13.0,-5561.0,-6286.0,8511.0,11205.0,-4.0,5.0,17.0,1.0
2022-05-13 12:56:59.141005-07:00,2157.5,598.7,1911.5,2056.4,1520.8,1324.1,1544.1,1823.6,3434.6,3443.1,2449.4,1899.7,1628.4,3441.9,1618.1,2235.3,3428.6,3435.8,716.7,1325.9,880.6,569.0,1402.1,1936.1,3444.3,3437.0,865.4,995.3,1389.4,2184.0,1909.5,1254.2,-1.0,9.0,-12.0,-8602.0,-7153.0,8323.0,8603.0,38.0,-5.0,29.0,-4.0,9.0,8.0,-5561.0,-6288.0,8515.0,11201.0,37.0,4.0,3.0,1.0
2022-05-13 12:56:59.276136-07:00,2152.4,607.6,1911.5,2056.4,1517.1,1325.9,1544.1,1823.6,3444.3,3439.5,2449.4,1899.7,1619.0,3441.9,1618.1,2235.3,3428.6,3435.8,722.5,1330.5,880.6,569.0,1406.7,1931.1,3444.3,3437.0,863.7,996.2,1389.4,2184.0,1903.6,1247.1,1.0,26.0,-15.0,-8593.0,-7154.0,8343.0,8592.0,25.0,-30.0,9.0,-7.0,11.0,1.0,-5554.0,-6294.0,8527.0,11192.0,21.0,-5.0,-12.0,1.0
2022-05-13 12:56:59.278413-07:00,2152.4,607.6,1907.5,2054.4,1517.1,1326.8,1546.9,1830.4,3444.3,3439.5,2450.4,1899.7,1619.0,3435.8,1623.7,2221.9,3435.8,3428.6,719.2,1330.5,878.0,567.4,1406.7,1931.1,3443.1,3445.5,860.4,996.2,1395.7,2183.0,1903.6,1247.1,-2.0,2.0,-5.0,-8587.0,-7153.0,8335.0,8605.0,-32.0,-5.0,-39.0,-7.0,-8.0,10.0,-5552.0,-6291.0,8514.0,11204.0,-52.0,-5.0,-21.0,1.0
2022-05-13 12:56:59.323529-07:00,2165.6,605.2,1915.4,2054.4,1514.3,1326.8,1546.9,1830.4,3438.2,3439.5,2447.3,1899.7,1626.5,3435.8,1623.7,2221.9,3435.8,3428.6,719.2,1320.5,878.0,573.0,1405.8,1938.0,3443.1,3445.5,860.4,1001.3,1395.7,2179.9,1904.6,1255.1,-11.0,-28.0,-9.0,-8590.0,-7158.0,8315.0,8619.0,-64.0,34.0,-43.0,5.0,-39.0,0.0,-5560.0,-6284.0,8494.0,11220.0,-100.0,9.0,10.0,1.0
2022-05-13 12:56:59.324815-07:00,2165.6,605.2,1915.4,2060.5,1514.3,1332.3,1549.7,1828.4,3438.2,3439.5,2447.3,1897.7,1626.5,3444.3,1606.8,2226.0,3437.0,3439.5,714.2,1320.5,883.1,573.0,1405.8,1938.0,3444.3,3449.1,863.7,1001.3,1401.2,2179.9,1904.6,1255.1,-15.0,-74.0,0.0,-8632.0,-7144.0,8249.0,8651.0,-287.0,132.0,-37.0,-4.0,-81.0,-13.0,-5621.0,-6242.0,8444.0,11250.0,-305.0,22.0,142.0,1.0
2022-05-13 12:56:59.366922-07:00,2151.4,606.8,1932.1,2060.5,1511.5,1332.3,1549.7,1828.4,3440.7,3440.7,2446.2,1897.7,1627.5,3444.3,1606.8,2226.0,3437.0,3439.5,714.2,1324.1,883.1,569.8,1404.9,1939.0,3444.3,3449.1,863.7,1001.3,1401.2,2191.2,1916.4,1256.0,-50.0,-180.0,28.0,-8782.0,-7096.0,8055.0,8723.0,-687.0,420.0,-39.0,-13.0,-159.0,3.0,-5806.0,-6109.0,8332.0,11313.0,-649.0,57.0,424.0,1.0
2022-05-13 12:56:59.458564-07:00,2151.4,606.8,1932.1,2052.4,1511.5,1331.4,1550.6,1826.5,3440.7,3440.7,2446.2,1902.6,1627.5,3449.1,1618.1,2206.5,3435.8,3439.5,718.4,1324.1,878.9,569.8,1404.9,1939.0,3434.6,3449.1,861.2,1001.3,1396.7,2191.2,1916.4,1256.0,4.0,-185.0,-42.0,-9028.0,-7023.0,7852.0,8715.0,-331.0,342.0,415.0,63.0,-60.0,9.0,-6063.0,-5930.0,8277.0,11314.0,-139.0,44.0,618.0,1.0
2022-05-13 12:56:59.459740-07:00,2158.5,613.3,1924.3,2052.4,1502.3,1331.4,1550.6,1826.5,3437.0,3437.0,2445.1,1902.6,1622.8,3449.1,1618.1,2206.5,3435.8,3439.5,718.4,1326.8,878.9,566.6,1411.3,1934.1,3434.6,3449.1,861.2,1001.3,1396.7,2171.8,1907.5,1253.3,70.0,123.0,-69.0,-9180.0,-6911.0,7922.0,8581.0,-105.0,-37.0,494.0,21.0,97.0,-49.0,-6201.0,-5833.0,8417.0,11185.0,125.0,-57.0,516.0,1.0
2022-05-13 12:56:59.547356-07:00,2158.5,613.3,1924.3,2042.4,1500.4,1343.1,1545.0,1809.0,3437.0,3437.0,2445.1,1900.7,1623.7,3444.3,1619.9,2216.8,3441.9,3440.7,717.5,1322.3,873.8,566.6,1411.3,1934.1,3444.3,3447.9,858.7,997.9,1391.2,2171.8,1907.5,1253.3,26.0,101.0,-61.0,-9280.0,-6745.0,7920.0,8608.0,-415.0,-170.0,165.0,-12.0,71.0,-17.0,-6328.0,-5664.0,8455.0,11172.0,-276.0,-178.0,387.0,1.0
2022-05-13 12:56:59.591493-07:00,2168.7,602.0,1945.9,2046.4,1500.4,1343.1,1545.0,1809.0,3437.0,3451.6,2445.1,1900.7,1623.7,3444.3,1619.9,2216.8,3441.9,3440.7,717.5,1322.3,880.6,569.8,1409.4,1936.1,3444.3,3447.9,858.7,997.9,1389.4,2183.0,1917.4,1256.9,9.0,77.0,2.0,-9315.0,-6580.0,7911.0,8706.0,-302.0,-230.0,66.0,-25.0,67.0,8.0,-6404.0,-5492.0,8463.0,11210.0,-185.0,-221.0,234.0,1.0
2022-05-13 12:56:59.681840-07:00,2168.7,602.0,1945.9,2046.4,1507.8,1340.4,1532.9,1823.6,3437.0,3451.6,2445.1,1900.7,1619.0,3449.1,1618.1,2218.8,3439.5,3440.7,715.1,1324.1,880.6,569.8,1409.4,1936.1,3446.7,3444.3,858.7,996.2,1389.4,2183.0,1917.4,1256.9,-19.0,57.0,18.0,-9316.0,-6495.0,7924.0,8756.0,-71.0,-122.0,46.0,-25.0,50.0,30.0,-6422.0,-5389.0,8486.0,11231.0,-36.0,-140.0,108.0,1.0
2022-05-13 12:56:59.726199-07:00,2159.5,606.0,1966.7,2054.4,1507.8,1340.4,1532.9,1823.6,3437.0,3449.1,2436.7,1890.9,1619.0,3449.1,1618.1,2218.8,3439.5,3440.7,715.1,1324.1,875.5,561.0,1396.7,1934.1,3446.7,3444.3,858.7,996.2,1394.8,2178.9,1917.4,1252.4,-11.0,16.0,17.0,-9316.0,-6464.0,7927.0,8777.0,-72.0,-10.0,5.0,-4.0,11.0,20.0,-6431.0,-5329.0,8492.0,11250.0,-100.0,-85.0,75.0,1.0
2022-05-13 12:56:59.773138-07:00,2159.5,606.0,1966.7,2054.4,1495.8,1361.2,1544.1,1829.4,3437.0,3449.1,2436.7,1890.9,1619.0,3438.2,1620.9,2217.8,3438.2,3438.2,716.7,1309.7,875.5,561.0,1396.7,1934.1,3441.9,3454.0,859.5,993.6,1394.8,2178.9,1917.4,1252.4,0.0,-9.0,-2.0,-9341.0,-6437.0,7891.0,8802.0,-192.0,21.0,7.0,11.0,6.0,12.0,-6465.0,-5258.0,8468.0,11282.0,-212.0,-69.0,109.0,1.0
2022-05-13 12:56:59.774640-07:00,2155.5,611.7,1995.5,2046.4,1495.8,1361.2,1544.1,1825.5,3440.7,3444.3,2444.1,1887.9,1619.0,3438.2,1620.9,2205.5,3439.5,3438.2,716.7,1309.7,881.4,569.8,1407.6,1944.0,3454.0,3454.0,859.5,993.6,1388.5,2188.1,1936.1,1252.4,-1.0,-8.0,-17.0,-9410.0,-6346.0,7826.0,8853.0,-383.0,-21.0,88.0,8.0,-12.0,6.0,-6530.0,-5157.0,8423.0,11325.0,-284.0,-80.0,163.0,1.0
2022-05-13 12:56:59.818501-07:00,2151.4,611.7,1995.5,2046.4,1493.0,1375.7,1536.6,1825.5,3449.1,3444.3,2444.1,1887.9,1619.0,3445.5,1619.9,2205.5,3439.5,3434.6,720.0,1316.0,881.4,569.8,1407.6,1940.0,3454.0,3449.1,857.0,1000.5,1388.5,2188.1,1936.1,1242.6,5.0,-12.0,4.0,-9492.0,-6234.0,7738.0,8922.0,-403.0,41.0,57.0,8.0,3.0,-4.0,-6598.0,-5049.0,8365.0,11377.0,-304.0,-64.0,130.0,1.0
2022-05-13 12:56:59.863542-07:00,2151.4,614.9,1972.7,2053.4,1493.0,1375.7,1536.6,1870.3,3449.1,3439.5,2437.7,1883.0,1619.0,3445.5,1619.9,2203.4,3445.5,3434.6,720.0,1316.0,879.7,572.2,1406.7,1940.0,3443.1,3449.1,857.0,1000.5,1395.7,2177.9,1939.0,1242.6,7.0,22.0,3.0,-9561.0,-6165.0,7681.0,8945.0,-309.0,80.0,132.0,4.0,28.0,10.0,-6653.0,-4980.0,8322.0,11407.0,-200.0,-3.0,85.0,1.0
2022-05-13 12:56:59.952337-07:00,2149.3,614.9,1972.7,2053.4,1471.8,1374.8,1540.3,1870.3,3446.7,3439.5,2437.7,1883.0,1627.5,3440.7,1619.0,2203.4,3445.5,3449.1,719.2,1309.7,879.7,572.2,1406.7,1953.9,3443.1,3450.4,848.6,1000.5,1395.7,2177.9,1939.0,1230.2,3.0,-4.0,13.0,-9669.0,-6072.0,7587.0,8973.0,-512.0,189.0,146.0,-4.0,22.0,5.0,-6730.0,-4913.0,8230.0,11458.0,-410.0,43.0,105.0,1.0
2022-05-13 12:57:00.087784-07:00,2149.3,615.7,1966.7,2047.4,1471.8,1374.8,1540.3,1928.2,3446.7,3445.5,2433.5,1881.1,1627.5,3440.7,1619.0,2201.4,3437.0,3449.1,719.2,1309.7,873.8,573.8,1407.6,1953.9,3438.2,3450.4,848.6,1000.5,1393.9,2171.8,1928.2,1230.2,10.0,-4.0,-3.0,-9814.0,-5959.0,7458.0,9000.0,-470.0,81.0,212.0,11.0,23.0,19.0,-6817.0,-4853.0,8120.0,11510.0,-321.0,63.0,80.0,1.0
2022-05-13 12:57:00.089796-07:00,2142.2,615.7,1966.7,2047.4,1459.8,1367.6,1544.1,1928.2,3443.1,3445.5,2433.5,1881.1,1615.2,3433.4,1615.2,2201.4,3437.0,3443.1,720.0,1312.4,873.8,573.8,1407.6,1965.7,3438.2,3444.3,858.7,1001.3,1393.9,2171.8,1928.2,1226.6,16.0,-45.0,8.0,-9961.0,-5819.0,7389.0,8986.0,-135.0,60.0,355.0,37.0,-20.0,28.0,-6863.0,-4837.0,8083.0,11515.0,71.0,60.0,27.0,1.0
2022-05-13 12:57:00.090563-07:00,2142.2,631.1,2060.5,2091.6,1459.8,1367.6,1540.3,1903.6,3443.1,3443.1,2499.4,1892.8,1615.2,3433.4,1685.3,2221.9,3439.5,3449.1,720.0,1312.4,873.8,567.4,1415.8,1965.7,3454.0,3449.1,858.7,1001.3,1398.5,2185.0,1926.2,1226.6,38.0,9.0,-9.0,-10035.0,-5766.0,7427.0,8906.0,220.0,11.0,87.0,49.0,-18.0,14.0,-6868.0,-4861.0,8126.0,11472.0,236.0,54.0,-34.0,1.0
2022-05-13 12:57:00.131815-07:00,2147.3,620.5,2060.5,2091.6,1440.5,1390.3,1540.3,1903.6,3434.6,3438.2,2499.4,1892.8,1620.9,3435.8,1685.3,2221.9,3439.5,3449.1,717.5,1309.7,873.8,567.4,1451.6,1975.6,3454.0,3449.1,905.9,1016.8,1398.5,2185.0,2022.4,1209.7,39.0,-17.0,-29.0,-9940.0,-5910.0,7555.0,8811.0,899.0,41.0,-65.0,16.0,-5.0,-5.0,-6795.0,-4972.0,8242.0,11385.0,608.0,44.0,-137.0,1.0
2022-05-13 12:57:00.176841-07:00,2147.3,620.5,2240.4,2084.6,1440.5,1390.3,1517.1,1870.3,3434.6,3438.2,2668.9,1919.3,1620.9,3435.8,1884.0,2276.5,3428.6,3438.2,717.5,1309.7,881.4,572.2,1451.6,1975.6,3444.3,3444.3,905.9,1016.8,1383.0,2241.4,2022.4,1209.7,-66.0,-10.0,-208.0,-9688.0,-6202.0,7819.0,8659.0,1657.0,-833.0,-534.0,16.0,-82.0,36.0,-6661.0,-5125.0,8429.0,11259.0,755.0,-58.0,-181.0,1.0
2022-05-13 12:57:00.221493-07:00,2300.4,623.0,2240.4,2084.6,1436.9,1377.5,1517.1,1870.3,3435.8,3440.7,2668.9,1919.3,1615.2,3452.8,1884.0,2276.5,3428.6,3438.2,714.2,1311.5,881.4,572.2,1458.0,1953.9,3444.3,3444.3,933.0,1039.2,1383.0,2241.4,2116.9,1204.4,-34.0,-9.0,-63.0,-9089.0,-6458.0,8352.0,8624.0,1131.0,-1237.0,-399.0,-35.0,22.0,-36.0,-6521.0,-5228.0,8588.0,11173.0,284.0,-106.0,-62.0,1.0
2022-05-13 12:57:00.267132-07:00,2300.4,623.0,2292.1,2070.5,1436.9,1377.5,1494.0,1834.3,3435.8,3440.7,2841.4,1913.4,1615.2,3452.8,1931.1,2242.5,3435.8,3449.1,714.2,1311.5,883.1,573.0,1458.0,1953.9,3447.9,3438.2,933.0,1039.2,1387.5,2333.7,2116.9,1204.4,-22.0,9.0,27.0,-8443.0,-6655.0,8884.0,8598.0,2019.0,-831.0,-772.0,-37.0,-58.0,-48.0,-6427.0,-5297.0,8719.0,11093.0,535.0,-25.0,-53.0,1.0
2022-05-13 12:57:00.312150-07:00,2420.8,610.8,2076.5,2070.5,1437.8,1353.1,1494.0,1834.3,3441.9,3446.7,2633.0,1913.4,1615.2,3444.3,1931.1,2242.5,3435.8,3449.1,711.8,1311.5,883.1,570.6,1428.6,1939.0,3447.9,3438.2,915.2,1044.4,1387.5,2165.6,1916.4,1201.8,-6.0,47.0,60.0,-7771.0,-7109.0,9224.0,8511.0,1065.0,-265.0,-1187.0,-75.0,15.0,-44.0,-6391.0,-5317.0,8788.0,11049.0,-87.0,-87.0,64.0,1.0
2022-05-13 12:57:00.357023-07:00,2420.8,610.8,2076.5,2004.5,1437.8,1333.2,1451.6,1711.0,3441.9,3446.7,2633.0,1821.6,1615.2,3440.7,1675.7,2130.1,3437.0,3433.4,715.1,1311.5,874.7,570.6,1428.6,1939.0,3444.3,3444.3,883.9,1044.4,1391.2,2165.6,1916.4,1201.8,-80.0,-50.0,24.0,-7386.0,-7511.0,9143.0,8595.0,195.0,286.0,-967.0,-66.0,-1.0,31.0,-6455.0,-5241.0,8738.0,11088.0,-274.0,16.0,151.0,1.0
2022-05-13 12:57:00.446800-07:00,2439.8,606.8,1891.8,2004.5,1414.0,1333.2,1451.6,1711.0,3439.5,3441.9,2436.7,1821.6,1604.0,3440.7,1675.7,2130.1,3437.0,3433.4,715.1,1305.2,874.7,569.8,1436.9,1937.1,3444.3,3444.3,883.9,1029.7,1391.2,2068.5,1782.9,1202.7,-64.0,-67.0,-35.0,-7213.0,-7733.0,9047.0,8645.0,250.0,-271.0,-146.0,-37.0,8.0,34.0,-6540.0,-5190.0,8717.0,11079.0,-48.0,56.0,205.0,1.0
2022-05-13 12:57:00.536202-07:00,2439.8,606.8,1891.8,1931.1,1414.0,1325.0,1420.4,1634.1,3439.5,3441.9,2436.7,1763.7,1604.0,3446.7,1544.1,2058.4,3441.9,3433.4,716.7,1305.2,881.4,569.8,1436.9,1937.1,3438.2,3439.5,865.4,1029.7,1387.5,2068.5,1782.9,1202.7,-9.0,-27.0,7.0,-7095.0,-7711.0,9175.0,8629.0,496.0,-330.0,143.0,10.0,-41.0,22.0,-6598.0,-5177.0,8771.0,11008.0,222.0,65.0,214.0,1.0
2022-05-13 12:57:00.539637-07:00,2440.9,619.7,1786.8,1931.1,1368.5,1325.0,1420.4,1634.1,3444.3,3449.1,2337.9,1763.7,1604.9,3446.7,1544.1,2058.4,3441.9,3433.4,716.7,1303.4,881.4,568.2,1470.9,1925.2,3438.2,3439.5,865.4,1029.7,1387.5,2013.4,1714.8,1197.4,49.0,22.0,55.0,-6925.0,-7700.0,9400.0,8534.0,290.0,-264.0,192.0,17.0,42.0,-31.0,-6600.0,-5245.0,8905.0,10866.0,469.0,90.0,107.0,1.0
2022-05-13 12:57:00.581789-07:00,2440.9,619.7,1786.8,1901.6,1354.0,1310.6,1373.9,1597.4,3444.3,3449.1,2337.9,1738.7,1589.9,3439.5,1502.3,2019.4,3433.4,3443.1,712.6,1298.1,878.9,568.2,1470.9,1925.2,3443.1,3451.6,852.0,1026.3,1389.4,2013.4,1714.8,1197.4,-1.0,-12.0,34.0,-6908.0,-7677.0,9500.0,8457.0,255.0,176.0,344.0,0.0,29.0,10.0,-6619.0,-5315.0,8989.0,10750.0,346.0,188.0,96.0,1.0
2022-05-13 12:57:00.626096-07:00,2431.4,614.1,1749.3,1864.5,1354.0,1310.6,1373.9,1597.4,3441.9,3446.7,2293.1,1726.3,1589.9,3439.5,1502.3,2019.4,3433.4,3443.1,712.6,1298.1,876.4,569.8,1469.0,1919.3,3443.1,3451.6,852.0,1026.3,1384.8,1982.6,1687.2,1193.8,-38.0,24.0,-25.0,-7129.0,-7527.0,9612.0,8281.0,-122.0,31.0,1020.0,-3.0,-130.0,37.0,-6647.0,-5337.0,9021.0,10695.0,173.0,34.0,45.0,1.0
2022-05-13 12:57:00.716377-07:00,2431.4,614.1,1749.3,1864.5,1336.8,1315.1,1354.9,1529.2,3441.9,3446.7,2293.1,1726.3,1592.7,3438.2,1471.8,1997.5,3438.2,3444.3,718.4,1300.7,876.4,569.8,1469.0,1919.3,3441.9,3444.3,843.6,1027.1,1384.8,1982.6,1687.2,1193.8,54.0,46.0,24.0,-7068.0,-7485.0,9822.0,8122.0,708.0,0.0,33.0,3.0,75.0,-39.0,-6538.0,-5518.0,9209.0,10508.0,754.0,103.0,-85.0,1.0
2022-05-13 12:57:00.718727-07:00,2427.1,607.6,1732.0,1848.9,1336.8,1315.1,1354.9,1529.2,3446.7,3434.6,2276.5,1712.9,1592.7,3438.2,1471.8,1997.5,3438.2,3444.3,718.4,1300.7,873.8,569.0,1456.2,1906.6,3441.9,3444.3,843.6,1027.1,1383.9,1967.7,1678.6,1195.6,35.0,4.0,-22.0,-7087.0,-7567.0,9831.0,8019.0,-94.0,280.0,-30.0,2.0,3.0,-38.0,-6541.0,-5594.0,9231.0,10447.0,-73.0,155.0,2.0,1.0
2022-05-13 12:57:01.032372-07:00,2427.1,607.6,1732.0,1848.9,1323.2,1296.3,1354.0,1519.9,3446.7,3434.6,2276.5,1712.9,1593.6,3437.0,1470.9,1987.5,3440.7,3440.7,716.7,1299.8,873.8,569.0,1456.2,1906.6,3437.0,3438.2,841.1,1023.7,1383.9,1967.7,1678.6,1195.6,-27.0,-13.0,-73.0,-7162.0,-7625.0,9746.0,8001.0,29.0,212.0,-34.0,-28.0,10.0,-8.0,-6565.0,-5622.0,9203.0,10443.0,95.0,59.0,-46.0,1.0
2022-05-13 12:57:01.034471-07:00,2395.5,607.6,1718.6,1835.2,1323.2,1296.3,1354.0,1519.9,3441.9,3443.1,2253.8,1714.8,1593.6,3437.0,1470.9,1987.5,3440.7,3440.7,716.7,1299.8,882.3,561.8,1447.0,1903.6,3437.0,3438.2,841.1,1023.7,1381.2,1955.8,1673.8,1185.9,-9.0,12.0,-34.0,-7159.0,-7639.0,9773.0,7957.0,37.0,-38.0,74.0,-36.0,17.0,-24.0,-6521.0,-5673.0,9216.0,10430.0,12.0,-15.0,-76.0,1.0
2022-05-13 12:57:01.035603-07:00,2381.8,607.6,1718.6,1835.2,1319.6,1288.2,1354.0,1528.3,3443.1,3443.1,2253.8,1714.8,1597.4,3438.2,1459.8,1974.6,3440.7,3435.8,713.4,1297.2,882.3,561.8,1447.0,1906.6,3446.7,3438.2,841.1,1023.7,1381.2,1955.8,1673.8,1185.0,-4.0,-17.0,-9.0,-7145.0,-7622.0,9757.0,8007.0,-168.0,-116.0,-122.0,-9.0,3.0,3.0,-6509.0,-5658.0,9187.0,10472.0,-149.0,-58.0,-49.0,1.0
2022-05-13 12:57:01.036699-07:00,2381.8,612.5,1711.0,1836.2,1319.6,1288.2,1354.0,1506.9,3443.1,3447.9,2238.4,1705.3,1597.4,3438.2,1459.8,1971.7,3438.2,3435.8,713.4,1297.2,873.0,565.0,1445.1,1906.6,3446.7,3438.2,841.1,1023.7,1382.1,1941.0,1659.6,1185.0,0.0,-29.0,19.0,-7137.0,-7574.0,9739.0,8081.0,-98.0,-104.0,32.0,-7.0,-21.0,4.0,-6514.0,-5626.0,9154.0,10515.0,-98.0,-34.0,6.0,1.0
2022-05-13 12:57:01.125236-07:00,2368.2,612.5,1711.0,1836.2,1318.7,1304.3,1339.5,1506.9,3441.9,3447.9,2238.4,1705.3,1595.5,3441.9,1452.5,1971.7,3438.2,3444.3,711.8,1295.4,873.0,565.0,1445.1,1897.7,3446.7,3435.8,838.6,1020.2,1382.1,1941.0,1659.6,1181.5,6.0,17.0,-4.0,-7185.0,-7487.0,9755.0,8100.0,37.0,13.0,21.0,-5.0,16.0,-3.0,-6532.0,-5592.0,9143.0,10531.0,77.0,25.0,-19.0,1.0
2022-05-13 12:57:01.125699-07:00,2367.2,607.6,1703.3,1825.5,1306.1,1308.8,1328.7,1508.8,3443.1,3438.2,2218.8,1692.9,1593.6,3438.2,1447.0,1956.8,3435.8,3440.7,711.0,1286.4,874.7,566.6,1441.5,1905.6,3438.2,3454.0,838.6,1018.5,1377.5,1918.3,1645.4,1193.8,-4.0,-17.0,-21.0,-7187.0,-7501.0,9758.0,8081.0,64.0,26.0,12.0,-9.0,-2.0,0.0,-6514.0,-5621.0,9159.0,10513.0,126.0,2.0,-51.0,1.0
2022-05-13 12:57:01.211222-07:00,2354.6,610.0,1703.3,1825.5,1298.1,1297.2,1328.7,1508.8,3438.2,3444.3,2218.8,1692.9,1587.1,3439.5,1447.0,1956.8,3435.8,3440.7,709.3,1287.3,874.7,566.6,1434.1,1903.6,3438.2,3454.0,841.9,1019.4,1377.5,1918.3,1643.5,1187.6,-3.0,-15.0,-15.0,-7161.0,-7516.0,9804.0,8034.0,168.0,-34.0,71.0,-12.0,2.0,-5.0,-6475.0,-5659.0,9194.0,10486.0,164.0,-15.0,-39.0,1.0
2022-05-13 12:57:01.213415-07:00,2354.6,610.0,1685.3,1817.8,1298.1,1297.2,1331.4,1528.3,3438.2,3444.3,2214.7,1695.7,1587.1,3439.5,1439.6,1961.8,3437.0,3428.6,709.3,1287.3,882.3,566.6,1434.1,1903.6,3438.2,3447.9,841.9,1019.4,1383.9,1924.3,1643.5,1187.6,-4.0,-7.0,-4.0,-7142.0,-7517.0,9854.0,7989.0,106.0,-25.0,73.0,-14.0,-2.0,0.0,-6441.0,-5685.0,9232.0,10460.0,74.0,-28.0,-1.0,1.0
2022-05-13 12:57:01.257659-07:00,2324.3,602.0,1685.3,1817.8,1298.1,1295.4,1331.4,1528.3,3439.5,3438.2,2214.7,1695.7,1583.3,3438.2,1439.6,1961.8,3437.0,3428.6,709.3,1292.7,882.3,566.6,1425.0,1890.9,3438.2,3447.9,831.1,1018.5,1383.9,1924.3,1637.9,1184.1,-12.0,-6.0,-1.0,-7134.0,-7515.0,9879.0,7967.0,51.0,-20.0,43.0,-13.0,5.0,7.0,-6427.0,-5686.0,9250.0,10451.0,30.0,-16.0,23.0,1.0
2022-05-13 12:57:01.302073-07:00,2324.3,602.0,1687.2,1820.7,1298.1,1295.4,1328.7,1522.7,3439.5,3438.2,2218.8,1687.2,1583.3,3438.2,1432.3,1953.9,3435.8,3431.0,709.3,1292.7,874.7,567.4,1425.0,1890.9,3443.1,3449.1,831.1,1018.5,1387.5,1919.3,1637.9,1184.1,-2.0,1.0,0.0,-7129.0,-7505.0,9907.0,7945.0,33.0,-8.0,63.0,-8.0,1.0,0.0,-6429.0,-5681.0,9258.0,10446.0,-18.0,-14.0,33.0,1.0
2022-05-13 12:57:01.391456-07:00,2331.6,611.7,1687.2,1820.7,1298.1,1291.8,1328.7,1522.7,3431.0,3441.9,2218.8,1687.2,1584.2,3440.7,1432.3,1953.9,3435.8,3431.0,714.2,1290.9,874.7,567.4,1428.6,1893.8,3443.1,3449.1,830.2,1022.8,1387.5,1919.3,1635.0,1177.0,-3.0,7.0,-9.0,-7140.0,-7494.0,9908.0,7944.0,-60.0,1.0,5.0,-9.0,11.0,0.0,-6444.0,-5664.0,9251.0,10452.0,-79.0,-4.0,33.0,1.0
2022-05-13 12:57:01.436161-07:00,2331.6,611.7,1681.4,1811.0,1298.1,1293.6,1321.4,1496.7,3431.0,3441.9,2203.4,1695.7,1584.2,3434.6,1425.9,1943.0,3444.3,3434.6,706.9,1290.9,878.9,577.8,1428.6,1893.8,3446.7,3441.9,826.9,1022.8,1383.9,1917.4,1635.0,1177.0,2.0,0.0,0.0,-7166.0,-7472.0,9882.0,7974.0,-115.0,10.0,12.0,0.0,7.0,1.0,-6465.0,-5641.0,9231.0,10469.0,-46.0,-3.0,15.0,1.0
2022-05-13 12:57:01.526286-07:00,2322.2,606.8,1675.7,1811.0,1277.4,1293.6,1321.4,1496.7,3444.3,3437.0,2199.3,1695.7,1581.4,3434.6,1425.9,1943.0,3444.3,3434.6,706.9,1292.7,878.9,571.4,1419.5,1888.9,3446.7,3441.9,826.9,1021.9,1383.9,1911.5,1631.3,1189.4,0.0,8.0,-5.0,-7176.0,-7462.0,9881.0,7976.0,17.0,3.0,13.0,-4.0,5.0,0.0,-6467.0,-5640.0,9230.0,10469.0,31.0,4.0,-7.0,1.0
2022-05-13 12:57:01.528385-07:00,2322.2,606.8,1675.7,1812.9,1277.4,1291.8,1317.8,1505.1,3444.3,3437.0,2199.3,1689.1,1581.4,3438.2,1426.8,1931.1,3440.7,3438.2,713.4,1292.7,869.6,571.4,1419.5,1888.9,3443.1,3439.5,833.6,1021.9,1380.3,1911.5,1631.3,1189.4,-8.0,0.0,-9.0,-7174.0,-7465.0,9883.0,7974.0,-11.0,-2.0,-8.0,-9.0,7.0,1.0,-6461.0,-5646.0,9232.0,10469.0,-8.0,-3.0,-15.0,1.0
2022-05-13 12:57:01.571094-07:00,2309.7,605.2,1665.3,1812.9,1288.2,1291.8,1317.8,1505.1,3446.7,3435.8,2204.5,1689.1,1577.7,3438.2,1426.8,1931.1,3440.7,3438.2,713.4,1296.3,869.6,571.4,1414.9,1896.7,3443.1,3439.5,833.6,1021.9,1380.3,1907.5,1627.5,1183.2,-7.0,-12.0,-6.0,-7174.0,-7462.0,9880.0,7980.0,2.0,-19.0,2.0,-9.0,6.0,1.0,-6458.0,-5648.0,9226.0,10474.0,10.0,-5.0,-9.0,1.0
2022-05-13 12:57:01.617434-07:00,2309.7,605.2,1665.3,1807.1,1288.2,1293.6,1317.8,1495.8,3446.7,3435.8,2204.5,1686.2,1577.7,3438.2,1422.2,1942.0,3444.3,3431.0,710.1,1296.3,883.1,571.4,1414.9,1896.7,3438.2,3439.5,830.2,1021.9,1383.0,1907.5,1627.5,1183.2,0.0,6.0,4.0,-7172.0,-7458.0,9884.0,7980.0,-13.0,-3.0,4.0,-5.0,5.0,5.0,-6453.0,-5652.0,9227.0,10474.0,0.0,-5.0,-13.0,1.0
2022-05-13 12:57:01.661510-07:00,2313.9,602.0,1667.2,1806.1,1281.0,1293.6,1317.8,1495.8,3444.3,3447.9,2194.2,1682.4,1584.2,3438.2,1422.2,1942.0,3444.3,3431.0,710.1,1302.5,874.7,565.8,1419.5,1889.9,3438.2,3439.5,830.2,1015.1,1383.9,1912.4,1632.2,1178.8,-7.0,-11.0,3.0,-7179.0,-7459.0,9874.0,7985.0,-13.0,26.0,-11.0,-10.0,-3.0,6.0,-6449.0,-5656.0,9224.0,10478.0,7.0,3.0,-16.0,1.0
2022-05-13 12:57:01.932248-07:00,2313.9,602.0,1667.2,1806.1,1291.8,1289.1,1323.2,1492.1,3444.3,3447.9,2194.2,1682.4,1577.7,3444.3,1423.1,1929.2,3437.0,3444.3,717.5,1291.8,874.7,565.8,1419.5,1889.9,3439.5,3444.3,828.5,1023.7,1383.9,1912.4,1632.2,1178.8,-5.0,-2.0,-8.0,-7179.0,-7465.0,9879.0,7974.0,38.0,-2.0,17.0,-7.0,1.0,-2.0,-6444.0,-5662.0,9228.0,10474.0,22.0,6.0,-4.0,1.0
2022-05-13 12:57:02.023661-07:00,2306.6,602.0,1663.4,1796.5,1291.8,1289.1,1323.2,1492.1,3450.4,3438.2,2184.0,1680.5,1577.7,3444.3,1423.1,1929.2,3437.0,3444.3,717.5,1291.8,878.0,566.6,1415.8,1886.0,3439.5,3444.3,828.5,1023.7,1374.8,1916.4,1624.7,1177.0,-3.0,-3.0,-15.0,-7172.0,-7466.0,9887.0,7969.0,23.0,-30.0,7.0,-7.0,3.0,-6.0,-6440.0,-5666.0,9232.0,10470.0,14.0,-8.0,3.0,1.0
2022-05-13 12:57:02.025616-07:00,2306.6,602.0,1663.4,1796.5,1281.0,1290.0,1315.1,1496.7,3450.4,3438.2,2184.0,1680.5,1573.0,3439.5,1436.9,1944.0,3439.5,3445.5,706.0,1283.7,878.0,566.6,1415.8,1886.0,3441.9,3441.9,820.2,1017.6,1374.8,1916.4,1624.7,1177.0,2.0,6.0,2.0,-7162.0,-7462.0,9896.0,7971.0,-4.0,-15.0,1.0,-4.0,5.0,1.0,-6438.0,-5667.0,9234.0,10469.0,-4.0,-8.0,-8.0,1.0
2022-05-13 12:57:02.028228-07:00,2304.5,606.0,1659.6,1803.2,1281.0,1290.0,1315.1,1496.7,3449.1,3438.2,2166.7,1679.5,1573.0,3439.5,1436.9,1944.0,3439.5,3445.5,706.0,1283.7,881.4,561.0,1413.1,1886.9,3441.9,3441.9,820.2,1017.6,1381.2,1899.7,1617.1,1177.0,-4.0,-7.0,0.0,-7162.0,-7462.0,9895.0,7972.0,5.0,1.0,-10.0,-12.0,-8.0,-2.0,-6439.0,-5666.0,9230.0,10472.0,-5.0,1.0,-3.0,1.0
2022-05-13 12:57:02.029397-07:00,2304.5,606.0,1659.6,1803.2,1285.5,1289.1,1309.7,1510.6,3449.1,3438.2,2166.7,1679.5,1577.7,3438.2,1419.5,1932.1,3434.6,3444.3,710.1,1296.3,881.4,561.0,1413.1,1886.9,3444.3,3447.9,827.7,1019.4,1381.2,1899.7,1617.1,1177.0,-2.0,-3.0,-4.0,-7155.0,-7464.0,9902.0,7968.0,14.0,-14.0,15.0,-6.0,2.0,0.0,-6438.0,-5667.0,9232.0,10471.0,8.0,-1.0,1.0,1.0
2022-05-13 12:57:02.030094-07:00,2304.5,606.0,1659.6,1803.2,1285.5,1289.1,1309.7,1510.6,3449.1,3438.2,2166.7,1679.5,1577.7,3438.2,1419.5,1932.1,3434.6,3444.3,710.1,1296.3,881.4,561.0,1413.1,1886.9,3444.3,3447.9,827.7,1019.4,1381.2,1899.7,1617.1,1177.0,-2.0,-3.0,-4.0,-7155.0,-7464.0,9902.0,7968.0,14.0,-14.0,15.0,-6.0,2.0,0.0,-6438.0,-5667.0,9232.0,10471.0,8.0,-1.0,1.0,1.0
2022-05-13 12:57:02.113409-07:00,2296.2,605.2,1653.0,1794.5,1279.2,1287.3,1319.6,1490.3,3440.7,3444.3,2183.0,1682.4,1572.1,3438.2,1419.5,1936.1,3435.8,3438.2,715.9,1286.4,878.9,566.6,1411.3,1887.9,3438.2,3444.3,831.1,1021.9,1377.5,1895.8,1616.2,1182.3,-5.0,-3.0,-5.0,-7172.0,-7443.0,9898.0,7977.0,-45.0,0.0,15.0,-9.0,4.0,4.0,-6437.0,-5662.0,9230.0,10476.0,-16.0,-10.0,-4.0,1.0
2022-05-13 12:57:02.157366-07:00,2291.0,595.5,1656.8,1805.2,1277.4,1287.3,1316.9,1487.5,3438.2,3444.3,2180.9,1680.5,1572.1,3440.7,1417.6,1926.2,3437.0,3434.6,715.9,1284.6,872.1,566.6,1414.0,1881.1,3441.9,3449.1,836.1,1018.5,1375.7,1889.9,1614.3,1172.6,-2.0,1.0,-5.0,-7179.0,-7429.0,9890.0,7993.0,-47.0,-21.0,-8.0,-7.0,3.0,0.0,-6436.0,-5654.0,9228.0,10483.0,-13.0,-20.0,6.0,1.0
2022-05-13 12:57:02.203706-07:00,2291.0,606.0,1647.3,1786.8,1277.4,1287.3,1316.9,1494.0,3438.2,3443.1,2176.9,1665.3,1572.1,3440.7,1417.6,1927.2,3437.0,3434.6,715.9,1284.6,875.5,561.0,1414.9,1881.1,3447.9,3449.1,836.1,1018.5,1376.6,1898.7,1615.2,1172.6,14.0,46.0,26.0,-7184.0,-7424.0,9873.0,8015.0,-154.0,37.0,-47.0,-16.0,33.0,-27.0,-6434.0,-5645.0,9224.0,10492.0,-131.0,-31.0,-10.0,1.0
2022-05-13 12:57:02.205382-07:00,2307.7,599.6,1647.3,1786.8,1276.5,1290.9,1316.0,1494.0,3449.1,3449.1,2176.9,1665.3,1578.6,3444.3,1433.2,1927.2,3437.0,3439.5,712.6,1280.1,875.5,561.0,1423.1,1884.0,3447.9,3447.9,828.5,1034.0,1376.6,1898.7,1649.2,1177.0,14.0,55.0,51.0,-7333.0,-7463.0,9692.0,8065.0,-550.0,712.0,-198.0,-63.0,22.0,-70.0,-6457.0,-5584.0,9146.0,10579.0,-633.0,-82.0,-16.0,1.0
2022-05-13 12:57:02.292479-07:00,2307.7,599.6,1717.7,1811.9,1276.5,1290.9,1308.8,1484.7,3449.1,3449.1,2221.9,1686.2,1578.6,3444.3,1607.7,1967.7,3441.9,3440.7,712.6,1280.1,878.9,570.6,1423.1,1884.0,3439.5,3451.6,828.5,1034.0,1378.5,1934.1,1649.2,1177.0,-102.0,-34.0,-67.0,-7694.0,-7623.0,9244.0,8104.0,-704.0,1078.0,-249.0,-45.0,28.0,70.0,-6535.0,-5445.0,8958.0,10763.0,-631.0,-27.0,-5.0,1.0
2022-05-13 12:57:02.337332-07:00,2298.3,611.7,1717.7,1811.9,1280.1,1335.9,1308.8,1484.7,3446.7,3441.9,2221.9,1686.2,1579.6,3449.1,1607.7,1967.7,3441.9,3440.7,713.4,1292.7,878.9,570.6,1438.7,1886.9,3439.5,3451.6,855.3,1048.7,1378.5,1934.1,1786.8,1173.5,-14.0,73.0,-105.0,-7965.0,-7578.0,8961.0,8201.0,-1221.0,117.0,56.0,11.0,58.0,-1.0,-6650.0,-5323.0,8744.0,10929.0,-831.0,60.0,-51.0,1.0
2022-05-13 12:57:02.517984-07:00,2298.3,611.7,2094.7,1885.0,1280.1,1335.9,1308.8,1472.7,3446.7,3441.9,2375.5,1706.2,1579.6,3449.1,1718.6,2013.4,3439.5,3435.8,713.4,1292.7,875.5,565.8,1438.7,1886.9,3444.3,3446.7,855.3,1048.7,1386.6,2041.4,1786.8,1173.5,67.0,-18.0,12.0,-8227.0,-7342.0,8739.0,8395.0,-812.0,207.0,322.0,37.0,30.0,-27.0,-6704.0,-5255.0,8549.0,11081.0,-242.0,2.0,-201.0,1.0
2022-05-13 12:57:02.521215-07:00,2279.6,619.7,2094.7,1885.0,1298.1,1358.5,1308.8,1472.7,3449.1,3449.1,2375.5,1706.2,1578.6,3446.7,1718.6,2013.4,3439.5,3435.8,716.7,1290.0,875.5,565.8,1460.8,1898.7,3444.3,3446.7,895.7,1055.6,1386.6,2041.4,1926.2,1177.9,-34.0,-27.0,27.0,-8526.0,-7114.0,8595.0,8441.0,-802.0,260.0,507.0,-62.0,-36.0,0.0,-6675.0,-5257.0,8473.0,11156.0,-97.0,-55.0,-153.0,1.0
2022-05-13 12:57:02.522377-07:00,2279.6,619.7,2209.6,1950.9,1298.1,1358.5,1319.6,1486.6,3449.1,3449.1,2558.3,1719.6,1578.6,3446.7,1845.0,2099.7,3437.0,3443.1,716.7,1290.0,878.9,565.0,1460.8,1898.7,3440.7,3449.1,895.7,1055.6,1380.3,2165.6,1926.2,1177.9,-76.0,6.0,35.0,-8835.0,-6925.0,8402.0,8475.0,-876.0,450.0,127.0,-74.0,-32.0,12.0,-6677.0,-5224.0,8402.0,11224.0,-474.0,-16.0,21.0,1.0
2022-05-13 12:57:02.523543-07:00,2239.4,631.9,2192.2,1950.9,1291.8,1338.6,1319.6,1486.6,3439.5,3450.4,2790.1,1719.6,1596.4,3449.1,1845.0,2099.7,3437.0,3443.1,713.4,1290.0,878.9,572.2,1458.9,1940.0,3440.7,3449.1,927.9,1059.9,1380.3,2275.5,2015.4,1172.6,-9.0,-55.0,-54.0,-9117.0,-6752.0,8147.0,8565.0,-733.0,189.0,208.0,-18.0,-42.0,-12.0,-6754.0,-5118.0,8280.0,11316.0,-278.0,-64.0,102.0,1.0
2022-05-13 12:57:02.560889-07:00,2239.4,631.9,2192.2,1975.6,1291.8,1379.4,1408.5,1684.3,3439.5,3450.4,2790.1,1839.1,1596.4,3443.1,1867.4,2224.0,3435.8,3435.8,712.6,1290.0,878.0,572.2,1458.9,1940.0,3445.5,3446.7,919.4,1059.9,1375.7,2275.5,2015.4,1172.6,15.0,6.0,-7.0,-9303.0,-6605.0,8023.0,8596.0,-489.0,129.0,260.0,8.0,-2.0,8.0,-6790.0,-5062.0,8262.0,11334.0,-50.0,-28.0,82.0,1.0
2022-05-13 12:57:02.607743-07:00,2204.5,627.8,2194.2,1975.6,1288.2,1379.4,1408.5,1684.3,3447.9,3435.8,2780.1,1839.1,1609.6,3443.1,1867.4,2224.0,3435.8,3435.8,712.6,1298.1,878.0,571.4,1469.0,1959.8,3445.5,3446.7,919.4,1052.2,1375.7,2268.3,2006.4,1171.8,-31.0,12.0,30.0,-9485.0,-6465.0,7888.0,8629.0,-521.0,125.0,182.0,13.0,-13.0,5.0,-6827.0,-5030.0,8245.0,11338.0,-60.0,52.0,61.0,1.0
2022-05-13 12:57:02.697643-07:00,2204.5,627.8,2194.2,2036.4,1288.2,1400.3,1517.1,1829.4,3447.9,3435.8,2780.1,1930.2,1609.6,3454.0,1845.9,2263.1,3438.2,3443.1,715.9,1298.1,880.6,571.4,1469.0,1959.8,3447.9,3449.1,915.2,1052.2,1400.3,2268.3,2006.4,1171.8,40.0,40.0,-54.0,-9612.0,-6329.0,7780.0,8687.0,-509.0,-8.0,16.0,14.0,22.0,-34.0,-6854.0,-5029.0,8225.0,11336.0,-89.0,21.0,-17.0,1.0
2022-05-13 12:57:02.698965-07:00,2189.1,636.7,2160.5,2036.4,1296.3,1400.3,1517.1,1829.4,3443.1,3449.1,2729.3,1930.2,1616.2,3454.0,1845.9,2263.1,3438.2,3443.1,715.9,1296.3,880.6,569.8,1489.3,1952.9,3447.9,3449.1,915.2,1049.6,1400.3,2270.3,2023.4,1173.5,-6.0,-2.0,-67.0,-9666.0,-6201.0,7673.0,8813.0,-440.0,-226.0,-146.0,-2.0,-7.0,-12.0,-6864.0,-5003.0,8183.0,11373.0,-189.0,-74.0,-24.0,1.0
2022-05-13 12:57:02.786767-07:00,2189.1,636.7,2160.5,2045.4,1311.5,1409.4,1612.4,1938.0,3443.1,3449.1,2729.3,1927.2,1610.5,3441.9,1809.0,2269.3,3435.8,3433.4,715.1,1298.1,879.7,569.8,1489.3,1952.9,3443.1,3449.1,900.8,1042.6,1406.7,2270.3,2023.4,1173.5,27.0,-27.0,-39.0,-9643.0,-6082.0,7632.0,8956.0,-96.0,-170.0,-129.0,-3.0,-10.0,-34.0,-6843.0,-4963.0,8165.0,11416.0,5.0,-115.0,-66.0,1.0
2022-05-13 12:57:02.876286-07:00,2164.6,624.6,2111.8,2059.4,1311.5,1409.4,1612.4,1938.0,3438.2,3438.2,2695.2,1936.1,1610.5,3441.9,1809.0,2269.3,3435.8,3433.4,715.1,1298.1,878.9,570.6,1490.3,1955.8,3443.1,3449.1,900.8,1042.6,1396.7,2277.6,2030.4,1172.6,-6.0,-3.0,26.0,-9615.0,-6069.0,7592.0,9028.0,-215.0,37.0,-186.0,16.0,-22.0,30.0,-6809.0,-4936.0,8165.0,11448.0,-125.0,-93.0,-44.0,1.0
2022-05-13 12:57:02.878674-07:00,2164.6,624.6,2111.8,2059.4,1323.2,1402.1,1711.0,1982.6,3438.2,3438.2,2695.2,1936.1,1605.8,3438.2,1782.9,2271.4,3449.1,3438.2,715.9,1305.2,878.9,570.6,1490.3,1955.8,3440.7,3446.7,892.4,1034.0,1396.7,2277.6,2030.4,1172.6,-11.0,-11.0,43.0,-9591.0,-6094.0,7542.0,9080.0,120.0,2.0,-116.0,14.0,5.0,45.0,-6780.0,-4928.0,8163.0,11470.0,110.0,-22.0,-75.0,1.0
2022-05-13 12:57:02.967287-07:00,2155.5,615.7,2091.6,2078.5,1323.2,1402.1,1711.0,1982.6,3439.5,3438.2,2684.3,1959.8,1605.8,3438.2,1782.9,2271.4,3449.1,3438.2,715.9,1305.2,882.3,572.2,1482.9,1959.8,3440.7,3446.7,892.4,1034.0,1398.5,2287.9,2027.4,1170.0,-19.0,-22.0,-4.0,-9541.0,-6155.0,7546.0,9087.0,109.0,-27.0,-117.0,0.0,-3.0,36.0,-6743.0,-4960.0,8189.0,11459.0,91.0,-6.0,-68.0,1.0
2022-05-13 12:57:03.013664-07:00,2155.5,615.7,2091.6,2078.5,1330.5,1393.0,1744.5,2071.5,3439.5,3438.2,2684.3,1959.8,1614.3,3440.7,1758.9,2254.8,3445.5,3439.5,714.2,1302.5,882.3,572.2,1482.9,1959.8,3445.5,3446.7,876.4,1028.0,1398.5,2287.9,2027.4,1170.0,-5.0,2.0,-1.0,-9482.0,-6197.0,7573.0,9098.0,185.0,-48.0,-127.0,-1.0,-4.0,21.0,-6711.0,-4982.0,8206.0,11456.0,120.0,-27.0,-71.0,1.0
2022-05-13 12:57:03.014841-07:00,2157.5,614.9,2062.5,2100.7,1330.5,1393.0,1744.5,2018.4,3434.6,3438.2,2655.8,1962.8,1614.3,3440.7,1758.9,2272.4,3441.9,3439.5,714.2,1302.5,877.2,567.4,1471.8,1958.8,3438.2,3446.7,876.4,1028.0,1396.7,2290.0,2019.4,1184.1,1.0,50.0,13.0,-9370.0,-6286.0,7662.0,9079.0,403.0,-126.0,-106.0,6.0,48.0,13.0,-6652.0,-5033.0,8257.0,11431.0,275.0,-10.0,-118.0,1.0
2022-05-13 12:57:03.101611-07:00,2158.5,614.9,2062.5,2100.7,1345.8,1374.8,1711.0,2018.4,3438.2,3438.2,2655.8,1962.8,1607.7,3446.7,1733.0,2272.4,3441.9,3444.3,715.1,1307.0,877.2,567.4,1471.8,1960.8,3438.2,3437.0,882.3,1024.5,1396.7,2290.0,2019.4,1199.1,29.0,70.0,50.0,-9288.0,-6329.0,7764.0,9047.0,310.0,-109.0,-15.0,12.0,45.0,18.0,-6580.0,-5105.0,8315.0,11399.0,274.0,7.0,-160.0,1.0
2022-05-13 12:57:03.103145-07:00,2158.5,618.1,2029.4,2087.6,1345.8,1374.8,1711.0,1993.5,3438.2,3440.7,2624.3,1935.1,1607.7,3446.7,1733.0,2252.8,3439.5,3444.3,715.1,1307.0,879.7,569.0,1464.4,1960.8,3443.1,3437.0,882.3,1024.5,1397.6,2269.3,1996.5,1199.1,-21.0,45.0,26.0,-9238.0,-6429.0,7758.0,9033.0,68.0,199.0,-270.0,-17.0,33.0,37.0,-6518.0,-5193.0,8303.0,11404.0,-45.0,125.0,-250.0,1.0
2022-05-13 12:57:03.148531-07:00,2164.6,618.1,2029.4,2087.6,1346.7,1351.2,1688.1,1993.5,3438.2,3440.7,2624.3,1935.1,1612.4,3433.4,1733.9,2252.8,3439.5,3439.5,719.2,1301.6,879.7,569.0,1464.4,1960.8,3443.1,3438.2,871.3,1024.5,1397.6,2269.3,1996.5,1211.5,-27.0,36.0,-7.0,-9202.0,-6555.0,7699.0,9028.0,193.0,188.0,-158.0,-12.0,34.0,53.0,-6475.0,-5297.0,8222.0,11440.0,47.0,181.0,-311.0,1.0
2022-05-13 12:57:03.236073-07:00,2164.6,604.4,2014.4,2071.5,1346.7,1351.2,1688.1,1973.7,3438.2,3437.0,2605.8,1932.1,1612.4,3433.4,1733.9,2244.5,3426.2,3439.5,719.2,1301.6,877.2,570.6,1460.8,1960.8,3439.5,3438.2,871.3,1024.5,1397.6,2244.5,1985.6,1211.5,24.0,89.0,35.0,-9144.0,-6679.0,7705.0,8992.0,344.0,161.0,-189.0,-3.0,60.0,27.0,-6385.0,-5459.0,8171.0,11450.0,200.0,209.0,-448.0,1.0
2022-05-13 12:57:03.281079-07:00,2174.8,604.4,2014.4,2071.5,1368.5,1345.8,1663.4,1973.7,3444.3,3437.0,2605.8,1932.1,1601.1,3438.2,1710.0,2244.5,3426.2,3440.7,706.9,1316.0,877.2,570.6,1460.8,1967.7,3439.5,3443.1,870.5,1029.7,1397.6,2244.5,1985.6,1232.8,2.0,51.0,-11.0,-9028.0,-6888.0,7754.0,8908.0,611.0,118.0,-161.0,-7.0,51.0,12.0,-6219.0,-5719.0,8150.0,11429.0,453.0,301.0,-628.0,1.0
2022-05-13 12:57:03.325916-07:00,2174.8,614.9,2004.5,2074.5,1368.5,1345.8,1655.8,1955.8,3444.3,3441.9,2621.0,1928.2,1601.1,3438.2,1711.9,2246.6,3439.5,3431.0,706.9,1316.0,874.7,573.8,1457.1,1967.7,3444.3,3441.9,870.5,1029.7,1402.1,2259.0,1992.5,1232.8,7.0,15.0,-40.0,-8870.0,-7113.0,7846.0,8809.0,649.0,100.0,-284.0,-16.0,5.0,-14.0,-6003.0,-6024.0,8147.0,11390.0,482.0,245.0,-699.0,1.0
2022-05-13 12:57:03.417763-07:00,2176.9,611.7,2004.5,2074.5,1377.5,1335.9,1655.8,1955.8,3435.8,3438.2,2621.0,1928.2,1607.7,3444.3,1711.9,2246.6,3439.5,3431.0,713.4,1325.0,874.7,573.8,1453.4,1943.0,3444.3,3441.9,860.4,1018.5,1402.1,2259.0,1981.6,1256.0,4.0,-67.0,-57.0,-8704.0,-7302.0,7895.0,8777.0,424.0,-56.0,-298.0,-11.0,-40.0,-31.0,-5790.0,-6267.0,8114.0,11393.0,266.0,117.0,-622.0,1.0
2022-05-13 12:57:03.420951-07:00,2176.9,611.7,2019.4,2067.5,1377.5,1335.9,1634.1,1939.0,3435.8,3438.2,2609.1,1945.0,1607.7,3444.3,1709.1,2249.7,3439.5,3443.1,713.4,1325.0,880.6,565.8,1453.4,1943.0,3444.3,3440.7,860.4,1018.5,1409.4,2259.0,1981.6,1256.0,-7.0,-84.0,-42.0,-8556.0,-7413.0,7944.0,8784.0,284.0,-115.0,-249.0,0.0,-66.0,-25.0,-5592.0,-6430.0,8091.0,11417.0,210.0,-14.0,-487.0,1.0
2022-05-13 12:57:03.461782-07:00,2167.7,603.6,2019.4,2067.5,1383.0,1323.2,1634.1,1939.0,3438.2,3443.1,2609.1,1945.0,1609.6,3441.9,1709.1,2249.7,3439.5,3443.1,717.5,1333.2,880.6,565.8,1452.5,1968.7,3444.3,3440.7,864.6,1019.4,1409.4,2259.0,1983.6,1274.7,6.0,-82.0,-4.0,-8439.0,-7461.0,7977.0,8827.0,75.0,-158.0,-207.0,4.0,-77.0,-21.0,-5444.0,-6514.0,8066.0,11459.0,45.0,-71.0,-324.0,1.0
2022-05-13 12:57:03.551298-07:00,2167.7,603.6,1987.5,2050.4,1383.0,1323.2,1619.9,1923.3,3438.2,3443.1,2597.2,1929.2,1609.6,3441.9,1696.7,2242.5,3439.5,3440.7,717.5,1333.2,882.3,569.0,1452.5,1968.7,3443.1,3446.7,864.6,1019.4,1405.8,2251.7,1983.6,1274.7,-31.0,-93.0,23.0,-8369.0,-7488.0,7957.0,8889.0,-27.0,-73.0,-177.0,5.0,-70.0,26.0,-5362.0,-6534.0,8024.0,11515.0,-77.0,-65.0,-176.0,1.0
2022-05-13 12:57:03.552853-07:00,2188.1,600.4,1974.6,2050.4,1374.8,1313.3,1619.9,1923.3,3440.7,3438.2,2562.6,1929.2,1612.4,3440.7,1696.7,2242.5,3439.5,3440.7,715.9,1335.0,882.3,576.2,1441.5,1964.7,3443.1,3446.7,857.0,1014.2,1405.8,2241.4,1957.8,1259.6,-20.0,-55.0,10.0,-8343.0,-7499.0,7943.0,8916.0,17.0,9.0,-55.0,5.0,-47.0,24.0,-5338.0,-6543.0,7992.0,11544.0,-11.0,9.0,-55.0,1.0
2022-05-13 12:57:03.642516-07:00,2188.1,600.4,1974.6,2051.4,1374.8,1316.9,1598.3,1900.7,3440.7,3438.2,2562.6,1926.2,1612.4,3446.7,1695.7,2239.4,3445.5,3443.1,720.0,1335.0,882.3,576.2,1441.5,1964.7,3443.1,3445.5,859.5,1014.2,1414.9,2241.4,1957.8,1259.6,3.0,-17.0,-8.0,-8341.0,-7509.0,7938.0,8915.0,-8.0,24.0,-1.0,1.0,-16.0,4.0,-5336.0,-6548.0,7986.0,11546.0,6.0,-1.0,5.0,1.0
2022-05-13 12:57:03.644646-07:00,2168.7,599.6,1966.7,2051.4,1365.7,1316.9,1598.3,1900.7,3449.1,3433.4,2561.6,1926.2,1623.7,3446.7,1695.7,2239.4,3445.5,3443.1,720.0,1338.6,882.3,570.6,1442.4,1963.7,3443.1,3445.5,859.5,1017.6,1414.9,2229.1,1950.9,1264.0,-3.0,2.0,-6.0,-8349.0,-7505.0,7936.0,8912.0,-15.0,-4.0,23.0,-3.0,-4.0,6.0,-5338.0,-6541.0,7990.0,11546.0,4.0,-18.0,26.0,1.0
2022-05-13 12:57:03.850772-07:00,2168.7,599.6,1966.7,2039.4,1365.7,1307.9,1581.4,1893.8,3449.1,3433.4,2561.6,1930.2,1623.7,3444.3,1674.8,2222.9,3438.2,3439.5,715.1,1338.6,877.2,570.6,1442.4,1963.7,3438.2,3443.1,867.1,1017.6,1413.1,2229.1,1950.9,1264.0,-14.0,3.0,-5.0,-8364.0,-7501.0,7922.0,8913.0,-69.0,32.0,1.0,-4.0,-13.0,16.0,-5345.0,-6529.0,7989.0,11551.0,-42.0,-11.0,22.0,1.0
2022-05-13 12:57:03.852250-07:00,2156.5,593.1,1945.9,2039.4,1356.7,1307.9,1581.4,1893.8,3439.5,3449.1,2546.5,1930.2,1609.6,3444.3,1674.8,2222.9,3438.2,3439.5,715.1,1339.5,877.2,570.6,1436.9,1954.8,3438.2,3443.1,867.1,1014.2,1413.1,2217.8,1940.0,1263.1,-7.0,0.0,-4.0,-8366.0,-7498.0,7927.0,8911.0,27.0,-28.0,36.0,-4.0,-7.0,5.0,-5349.0,-6525.0,7987.0,11553.0,31.0,4.0,10.0,1.0
2022-05-13 12:57:03.868993-07:00,2156.5,593.1,1945.9,2037.4,1356.7,1301.6,1580.5,1872.3,3439.5,3449.1,2546.5,1922.3,1609.6,3435.8,1678.6,2227.0,3441.9,3440.7,716.7,1339.5,878.0,570.6,1436.9,1954.8,3445.5,3446.7,856.2,1014.2,1421.3,2217.8,1940.0,1263.1,-9.0,-6.0,-16.0,-8366.0,-7493.0,7929.0,8913.0,-30.0,-21.0,-1.0,2.0,-19.0,8.0,-5351.0,-6524.0,7984.0,11554.0,-32.0,3.0,13.0,1.0
2022-05-13 12:57:03.870929-07:00,2152.4,603.6,1943.0,2035.4,1363.9,1301.6,1580.5,1872.3,3440.7,3450.4,2530.4,1921.3,1602.1,3435.8,1678.6,2227.0,3441.9,3440.7,716.7,1336.8,880.6,563.4,1441.5,1962.8,3445.5,3446.7,856.2,1011.6,1404.0,2217.8,1940.0,1262.2,3.0,-15.0,-16.0,-8359.0,-7482.0,7937.0,8921.0,8.0,-43.0,9.0,6.0,-12.0,-2.0,-5355.0,-6520.0,7986.0,11553.0,19.0,-12.0,14.0,1.0
2022-05-13 12:57:03.956017-07:00,2152.4,603.6,1943.0,2035.4,1351.2,1298.1,1573.9,1868.4,3440.7,3450.4,2530.4,1921.3,1603.0,3437.0,1671.0,2226.0,3443.1,3431.0,713.4,1335.9,880.6,563.4,1441.5,1962.8,3447.9,3440.7,857.0,1016.8,1404.0,2217.8,1940.0,1262.2,2.0,-15.0,-9.0,-8359.0,-7466.0,7945.0,8928.0,-31.0,-27.0,21.0,5.0,-13.0,0.0,-5358.0,-6507.0,7995.0,11553.0,-6.0,-33.0,36.0,1.0
2022-05-13 12:57:04.048738-07:00,2146.3,593.9,1947.9,2031.4,1351.2,1298.1,1573.9,1868.4,3438.2,3441.9,2522.9,1917.4,1603.0,3437.0,1671.0,2226.0,3443.1,3431.0,713.4,1335.9,878.9,567.4,1435.0,1963.7,3447.9,3440.7,857.0,1016.8,1407.6,2217.8,1930.2,1256.0,-12.0,-11.0,4.0,-8368.0,-7440.0,7956.0,8932.0,-14.0,-59.0,61.0,2.0,-8.0,20.0,-5363.0,-6486.0,8008.0,11553.0,24.0,-40.0,40.0,1.0
2022-05-13 12:57:04.271192-07:00,2146.3,593.9,1947.9,2031.4,1353.1,1308.8,1558.1,1861.5,3438.2,3441.9,2522.9,1917.4,1609.6,3438.2,1653.9,2208.6,3437.0,3439.5,720.8,1336.8,878.9,567.4,1435.0,1963.7,3449.1,3439.5,852.8,1015.1,1407.6,2217.8,1930.2,1256.0,-1.0,9.0,18.0,-8376.0,-7419.0,7967.0,8931.0,7.0,7.0,32.0,1.0,-3.0,25.0,-5366.0,-6471.0,8024.0,11549.0,26.0,-13.0,33.0,1.0
2022-05-13 12:57:04.273981-07:00,2145.3,602.8,1945.0,2028.4,1353.1,1308.8,1558.1,1861.5,3443.1,3438.2,2526.1,1920.3,1609.6,3438.2,1653.9,2208.6,3437.0,3439.5,720.8,1336.8,877.2,567.4,1441.5,1956.8,3449.1,3439.5,852.8,1015.1,1414.0,2171.8,1926.2,1257.8,-6.0,13.0,5.0,-8383.0,-7415.0,7970.0,8925.0,3.0,-8.0,27.0,-1.0,10.0,23.0,-5372.0,-6464.0,8029.0,11547.0,17.0,-2.0,18.0,1.0
2022-05-13 12:57:04.362512-07:00,2143.3,602.8,1945.0,2028.4,1347.6,1295.4,1557.1,1851.8,3445.5,3438.2,2526.1,1920.3,1599.3,3441.9,1669.1,2207.5,3439.5,3439.5,711.0,1334.1,877.2,567.4,1441.5,1957.8,3446.7,3445.5,847.8,1002.2,1414.0,2171.8,1926.2,1256.0,-6.0,7.0,10.0,-8387.0,-7415.0,7969.0,8922.0,-2.0,22.0,2.0,-1.0,4.0,18.0,-5375.0,-6461.0,8028.0,11548.0,-3.0,0.0,8.0,1.0
2022-05-13 12:57:04.364248-07:00,2143.3,581.8,1935.1,2017.4,1347.6,1295.4,1557.1,1848.9,3445.5,3444.3,2505.8,1907.5,1599.3,3441.9,1669.1,2205.5,3438.2,3439.5,711.0,1334.1,879.7,576.2,1437.8,1957.8,3449.1,3445.5,847.8,1002.2,1410.3,2202.4,1928.2,1256.0,-6.0,0.0,-5.0,-8387.0,-7412.0,7968.0,8926.0,4.0,-23.0,3.0,-3.0,-4.0,2.0,-5377.0,-6458.0,8024.0,11551.0,1.0,3.0,0.0,1.0
2022-05-13 12:57:04.365571-07:00,2138.2,581.8,1935.1,2017.4,1344.9,1297.2,1557.1,1848.9,3438.2,3444.3,2505.8,1907.5,1601.1,3441.9,1660.6,2205.5,3438.2,3441.9,711.8,1335.9,879.7,576.2,1437.8,1979.6,3449.1,3444.3,860.4,1005.6,1410.3,2202.4,1928.2,1249.7,-11.0,3.0,-7.0,-8385.0,-7416.0,7969.0,8923.0,9.0,7.0,-9.0,-1.0,-6.0,11.0,-5377.0,-6458.0,8023.0,11552.0,0.0,9.0,-7.0,1.0
2022-05-13 12:57:04.366834-07:00,2138.2,594.7,1919.3,2013.4,1344.9,1297.2,1557.1,1848.9,3438.2,3441.9,2506.9,1908.5,1601.1,3441.9,1660.6,2204.5,3443.1,3441.9,711.8,1335.9,880.6,569.0,1430.5,1979.6,3449.1,3444.3,860.4,1005.6,1404.9,2200.4,1921.3,1249.7,-4.0,-9.0,-8.0,-8382.0,-7411.0,7977.0,8923.0,2.0,3.0,5.0,2.0,-13.0,7.0,-5378.0,-6460.0,8022.0,11551.0,0.0,-8.0,3.0,1.0
2022-05-13 12:57:04.452872-07:00,2135.1,594.7,1935.1,2027.4,1342.2,1292.7,1560.9,1851.8,3438.2,3449.1,2501.5,1904.6,1597.4,3444.3,1653.9,2192.2,3441.9,3435.8,715.1,1334.1,876.4,569.8,1431.4,1954.8,3447.9,3449.1,854.5,1003.9,1396.7,2200.4,1913.4,1248.0,-5.0,-7.0,-7.0,-8378.0,-7406.0,7988.0,8921.0,15.0,-35.0,20.0,0.0,-8.0,2.0,-5373.0,-6459.0,8028.0,11549.0,27.0,-12.0,9.0,1.0
2022-05-13 12:57:04.453752-07:00,2135.1,594.7,1935.1,2027.4,1342.2,1292.7,1560.9,1851.8,3438.2,3449.1,2501.5,1904.6,1597.4,3444.3,1653.9,2192.2,3441.9,3435.8,715.1,1334.1,876.4,569.8,1431.4,1954.8,3447.9,3449.1,854.5,1003.9,1396.7,2200.4,1913.4,1248.0,-5.0,-7.0,-7.0,-8378.0,-7406.0,7988.0,8921.0,15.0,-35.0,20.0,0.0,-8.0,2.0,-5373.0,-6459.0,8028.0,11549.0,27.0,-12.0,9.0,1.0
2022-05-13 12:57:04.454904-07:00,2134.1,589.1,1913.4,2012.4,1341.3,1290.0,1552.5,1844.0,3434.6,3440.7,2490.8,1920.3,1600.2,3443.1,1653.0,2198.3,3444.3,3438.2,715.1,1331.4,875.5,574.6,1429.5,1955.8,3451.6,3446.7,855.3,1007.3,1413.1,2197.3,1907.5,1243.5,-4.0,3.0,6.0,-8376.0,-7388.0,8005.0,8923.0,12.0,-21.0,30.0,0.0,6.0,10.0,-5372.0,-6447.0,8044.0,11546.0,24.0,0.0,11.0,1.0
2022-05-13 12:57:04.586258-07:00,2131.1,589.9,1913.4,2012.4,1335.9,1291.8,1552.5,1844.0,3443.1,3441.9,2490.8,1920.3,1597.4,3445.5,1653.0,2198.3,3444.3,3438.2,714.2,1329.6,875.5,574.6,1439.6,1954.8,3451.6,3446.7,852.0,1000.5,1413.1,2197.3,1913.4,1227.5,-7.0,17.0,6.0,-8377.0,-7384.0,8013.0,8917.0,-5.0,3.0,4.0,-3.0,5.0,13.0,-5371.0,-6447.0,8047.0,11544.0,-8.0,10.0,-1.0,1.0
2022-05-13 12:57:04.676211-07:00,2131.1,589.9,1936.1,2008.4,1335.9,1291.8,1554.3,1851.8,3443.1,3441.9,2495.1,1901.6,1597.4,3445.5,1649.2,2199.3,3432.2,3444.3,714.2,1329.6,873.8,570.6,1439.6,1954.8,3440.7,3447.9,852.0,1000.5,1411.3,2190.1,1913.4,1227.5,-14.0,4.0,-10.0,-8379.0,-7388.0,8010.0,8916.0,15.0,8.0,-1.0,-9.0,-2.0,14.0,-5376.0,-6451.0,8040.0,11545.0,3.0,18.0,-8.0,1.0
2022-05-13 12:57:04.679923-07:00,2127.0,598.7,1936.1,2008.4,1332.3,1285.5,1554.3,1851.8,3443.1,3438.2,2495.1,1901.6,1601.1,3444.3,1649.2,2199.3,3432.2,3444.3,719.2,1335.0,873.8,570.6,1429.5,1959.8,3440.7,3447.9,847.0,1003.9,1411.3,2190.1,1913.4,1229.3,-9.0,7.0,-15.0,-8374.0,-7391.0,8012.0,8915.0,-30.0,-17.0,-18.0,-10.0,-2.0,4.0,-5376.0,-6452.0,8034.0,11548.0,-33.0,-8.0,-8.0,1.0
2022-05-13 12:57:04.770547-07:00,2127.0,598.7,1922.3,2015.4,1332.3,1290.0,1547.8,1841.1,3443.1,3438.2,2490.8,1901.6,1601.1,3444.3,1640.7,2192.2,3440.7,3433.4,715.9,1335.0,876.4,573.0,1429.5,1959.8,3441.9,3454.0,845.3,1003.9,1412.2,2179.9,1913.4,1229.3,-4.0,-7.0,-3.0,-8370.0,-7388.0,8008.0,8927.0,1.0,-17.0,-20.0,2.0,-11.0,5.0,-5373.0,-6447.0,8027.0,11557.0,-8.0,-11.0,-14.0,1.0
2022-05-13 12:57:04.771867-07:00,2125.0,590.7,1918.3,2015.4,1335.0,1290.0,1547.8,1841.1,3445.5,3445.5,2490.8,1901.6,1602.1,3444.3,1640.7,2192.2,3440.7,3433.4,715.9,1334.1,876.4,569.8,1429.5,1958.8,3441.9,3454.0,845.3,1006.5,1412.2,2189.1,1899.7,1240.8,-4.0,0.0,-15.0,-8363.0,-7388.0,8009.0,8931.0,-22.0,-15.0,-12.0,0.0,-11.0,4.0,-5370.0,-6442.0,8028.0,11561.0,-15.0,-23.0,1.0,1.0
2022-05-13 12:57:04.947406-07:00,2125.0,590.7,1918.3,2010.4,1335.0,1290.0,1538.5,1826.5,3445.5,3445.5,2490.8,1909.5,1602.1,3444.3,1642.6,2192.2,3429.8,3440.7,714.2,1334.1,875.5,569.8,1429.5,1958.8,3449.1,3444.3,848.6,1006.5,1415.8,2189.1,1899.7,1240.8,0.0,-23.0,1.0,-8359.0,-7380.0,8009.0,8942.0,35.0,-33.0,9.0,4.0,-15.0,8.0,-5365.0,-6433.0,8030.0,11566.0,35.0,-27.0,6.0,1.0
2022-05-13 12:57:04.948707-07:00,2127.0,594.7,1923.3,2010.4,1335.9,1290.0,1538.5,1826.5,3444.3,3437.0,2487.6,1909.5,1597.4,3444.3,1642.6,2192.2,3429.8,3440.7,714.2,1334.1,875.5,564.2,1431.4,1964.7,3449.1,3444.3,848.6,1006.5,1415.8,2178.9,1906.6,1227.5,-3.0,-4.0,-2.0,-8341.0,-7380.0,8030.0,8939.0,52.0,-46.0,13.0,3.0,-2.0,10.0,-5354.0,-6431.0,8048.0,11560.0,49.0,-16.0,11.0,1.0
2022-05-13 12:57:05.128117-07:00,2127.0,594.7,1923.3,2002.5,1335.9,1291.8,1552.5,1836.2,3444.3,3437.0,2487.6,1905.6,1597.4,3445.5,1638.8,2192.2,3431.0,3433.4,714.2,1334.1,880.6,564.2,1431.4,1964.7,3433.4,3440.7,846.1,1006.5,1407.6,2178.9,1906.6,1227.5,9.0,8.0,19.0,-8329.0,-7373.0,8053.0,8935.0,-3.0,7.0,9.0,3.0,4.0,1.0,-5350.0,-6433.0,8060.0,11553.0,12.0,-13.0,9.0,1.0
2022-05-13 12:57:05.261397-07:00,2130.1,589.9,1920.3,2000.5,1333.2,1291.8,1552.5,1836.2,3438.2,3440.7,2483.4,1893.8,1599.3,3445.5,1638.8,2192.2,3431.0,3433.4,714.2,1329.6,875.5,569.8,1437.8,1963.7,3433.4,3440.7,846.1,1007.3,1406.7,2178.9,1912.4,1232.8,-12.0,-14.0,-1.0,-8334.0,-7371.0,8044.0,8941.0,-44.0,-19.0,-4.0,1.0,-11.0,15.0,-5359.0,-6423.0,8053.0,11559.0,-28.0,-10.0,19.0,1.0
2022-05-13 12:57:05.264610-07:00,2130.1,589.9,1920.3,2000.5,1333.2,1284.6,1535.7,1836.2,3438.2,3440.7,2483.4,1893.8,1599.3,3441.9,1637.9,2189.1,3441.9,3439.5,712.6,1335.9,875.5,569.8,1437.8,1963.7,3449.1,3444.3,847.0,1004.8,1406.7,2178.9,1912.4,1232.8,-8.0,-9.0,1.0,-8340.0,-7359.0,8043.0,8946.0,-44.0,-23.0,22.0,1.0,-11.0,12.0,-5363.0,-6409.0,8056.0,11563.0,-21.0,-30.0,33.0,1.0
2022-05-13 12:57:05.265902-07:00,2128.0,585.1,1919.3,2001.5,1333.2,1284.6,1535.7,1836.2,3443.1,3438.2,2468.5,1896.7,1599.3,3441.9,1637.9,2189.1,3441.9,3439.5,712.6,1335.9,876.4,576.2,1435.0,1967.7,3449.1,3444.3,847.0,1004.8,1407.6,2177.9,1900.7,1236.4,-16.0,-46.0,16.0,-8355.0,-7336.0,8037.0,8956.0,-77.0,-2.0,45.0,4.0,-34.0,21.0,-5386.0,-6384.0,8051.0,11570.0,-46.0,-1.0,78.0,1.0
2022-05-13 12:57:05.351252-07:00,2128.0,585.1,1919.3,2001.5,1326.8,1273.9,1546.9,1826.5,3443.1,3438.2,2468.5,1896.7,1596.4,3444.3,1637.9,2188.1,3450.4,3446.7,713.4,1332.3,876.4,576.2,1435.0,1967.7,3449.1,3450.4,842.8,1002.2,1407.6,2177.9,1900.7,1236.4,-24.0,-84.0,11.0,-8391.0,-7308.0,8030.0,8952.0,-70.0,62.0,130.0,0.0,-70.0,8.0,-5439.0,-6358.0,8059.0,11554.0,-24.0,41.0,183.0,1.0
2022-05-13 12:57:05.353752-07:00,2118.9,586.7,1916.4,2001.5,1325.9,1290.9,1536.6,1827.5,3440.7,3444.3,2482.3,1887.9,1595.5,3437.0,1643.5,2185.0,3438.2,3428.6,713.4,1333.2,878.9,571.4,1430.5,1952.9,3443.1,3438.2,834.4,1001.3,1403.0,2179.9,1900.7,1225.7,41.0,80.0,-67.0,-8801.0,-7105.0,7994.0,8752.0,-736.0,49.0,285.0,22.0,59.0,-29.0,-5952.0,-6051.0,8175.0,11383.0,-544.0,-57.0,566.0,1.0
2022-05-13 12:57:05.399014-07:00,2108.8,585.1,1924.3,1990.5,1310.6,1294.5,1532.0,1828.4,3444.3,3444.3,2477.0,1896.7,1593.6,3444.3,1641.6,2179.9,3452.8,3439.5,715.1,1331.4,879.7,569.0,1433.2,1955.8,3452.8,3454.0,840.3,1003.0,1406.7,2173.8,1897.7,1242.6,-11.0,29.0,-6.0,-9239.0,-6563.0,7815.0,8884.0,-426.0,87.0,185.0,-13.0,26.0,9.0,-6416.0,-5523.0,8186.0,11391.0,-299.0,-78.0,403.0,1.0
2022-05-13 12:57:05.400721-07:00,2108.8,581.8,1929.2,2002.5,1310.6,1294.5,1532.0,1818.7,3444.3,3441.9,2465.3,1884.0,1593.6,3444.3,1641.6,2164.6,3441.9,3439.5,715.1,1331.4,873.0,567.4,1430.5,1955.8,3445.5,3454.0,840.3,1003.0,1395.7,2169.7,1884.0,1242.6,0.0,40.0,-34.0,-9333.0,-6446.0,7786.0,8897.0,-173.0,-115.0,270.0,-9.0,38.0,3.0,-6527.0,-5397.0,8197.0,11381.0,-22.0,-85.0,286.0,1.0
2022-05-13 12:57:05.489052-07:00,2110.8,585.9,1929.2,2002.5,1299.8,1311.5,1530.1,1818.7,3438.2,3435.8,2465.3,1884.0,1588.9,3445.5,1618.1,2164.6,3441.9,3440.7,715.1,1318.7,873.0,567.4,1430.5,1963.7,3445.5,3445.5,837.7,1003.9,1395.7,2169.7,1891.8,1242.6,26.0,132.0,-7.0,-9351.0,-6352.0,7881.0,8862.0,7.0,-155.0,192.0,-25.0,83.0,-22.0,-6544.0,-5342.0,8277.0,11338.0,58.0,-126.0,151.0,1.0
2022-05-13 12:57:05.627647-07:00,2110.8,585.9,1945.0,1987.5,1299.8,1311.5,1532.0,1819.7,3438.2,3435.8,2464.2,1881.1,1588.9,3445.5,1624.7,2159.5,3437.0,3446.7,715.1,1318.7,878.9,570.6,1430.5,1963.7,3431.0,3447.9,837.7,1003.9,1403.0,2168.7,1891.8,1242.6,-9.0,48.0,7.0,-9388.0,-6291.0,7842.0,8901.0,-278.0,65.0,-41.0,-19.0,32.0,7.0,-6577.0,-5249.0,8261.0,11375.0,-278.0,-115.0,98.0,1.0
2022-05-13 12:57:05.629529-07:00,2102.7,586.7,1945.0,1987.5,1290.9,1325.9,1532.0,1819.7,3440.7,3437.0,2464.2,1881.1,1593.6,3445.5,1624.7,2159.5,3437.0,3446.7,714.2,1324.1,878.9,570.6,1431.4,1966.7,3431.0,3447.9,837.7,1000.5,1403.0,2168.7,1890.9,1235.5,-9.0,27.0,21.0,-9456.0,-6238.0,7719.0,8973.0,-465.0,147.0,-42.0,0.0,27.0,21.0,-6635.0,-5138.0,8178.0,11451.0,-446.0,-71.0,97.0,1.0
2022-05-13 12:57:05.630696-07:00,2102.7,586.7,1943.0,1997.5,1290.9,1325.9,1529.2,1805.2,3440.7,3437.0,2451.5,1882.0,1593.6,3445.5,1623.7,2157.5,3439.5,3444.3,714.2,1324.1,873.8,569.8,1431.4,1966.7,3435.8,3438.2,837.7,1000.5,1404.0,2159.5,1890.9,1235.5,7.0,-7.0,2.0,-9573.0,-6123.0,7539.0,9081.0,-667.0,71.0,-28.0,15.0,-2.0,14.0,-6735.0,-5001.0,8033.0,11556.0,-600.0,-39.0,118.0,1.0
2022-05-13 12:57:05.736122-07:00,2092.6,588.3,1943.0,1997.5,1285.5,1335.0,1529.2,1805.2,3443.1,3449.1,2451.5,1882.0,1610.5,3440.7,1623.7,2157.5,3439.5,3444.3,713.4,1318.7,873.8,569.8,1422.2,1981.6,3435.8,3438.2,838.6,999.6,1404.0,2159.5,1893.8,1252.4,-4.0,30.0,8.0,-9673.0,-6060.0,7385.0,9143.0,-357.0,248.0,10.0,11.0,-22.0,15.0,-6806.0,-4924.0,7922.0,11624.0,-343.0,20.0,67.0,1.0
2022-05-13 12:57:05.737884-07:00,2092.6,588.3,1940.0,1979.6,1285.5,1347.6,1526.4,1818.7,3443.1,3449.1,2444.1,1878.1,1610.5,3433.4,1616.2,2160.5,3433.4,3443.1,715.1,1318.7,876.4,565.8,1422.2,1981.6,3447.9,3441.9,834.4,999.6,1401.2,2154.4,1893.8,1252.4,-3.0,-31.0,-13.0,-9768.0,-6031.0,7218.0,9195.0,-388.0,239.0,-59.0,-1.0,4.0,-1.0,-6875.0,-4860.0,7806.0,11689.0,-343.0,36.0,37.0,1.0
2022-05-13 12:57:05.758692-07:00,2082.6,593.9,1937.1,1979.6,1279.2,1347.6,1526.4,1818.7,3446.7,3443.1,2454.7,1878.1,1589.9,3433.4,1616.2,2160.5,3433.4,3443.1,715.1,1318.7,876.4,569.0,1436.9,1985.6,3447.9,3441.9,834.4,1000.5,1401.2,2166.7,1871.3,1229.3,-8.0,-62.0,-25.0,-9834.0,-6014.0,7125.0,9208.0,-70.0,110.0,54.0,1.0,-26.0,-6.0,-6916.0,-4832.0,7755.0,11710.0,-26.0,35.0,43.0,1.0
2022-05-13 12:57:05.891243-07:00,2082.6,593.9,1937.1,1992.5,1279.2,1338.6,1524.5,1864.5,3446.7,3443.1,2454.7,1879.1,1589.9,3449.1,1628.4,2168.7,3433.4,3433.4,715.9,1318.7,877.2,569.0,1436.9,1985.6,3438.2,3441.9,843.6,1000.5,1397.6,2166.7,1871.3,1229.3,3.0,-20.0,-29.0,-9852.0,-6051.0,7159.0,9138.0,213.0,65.0,119.0,2.0,-2.0,-16.0,-6919.0,-4853.0,7797.0,11671.0,174.0,7.0,54.0,1.0
2022-05-13 12:57:05.893291-07:00,2083.6,600.4,2092.6,1992.5,1266.7,1338.6,1524.5,1864.5,3441.9,3437.0,2461.0,1879.1,1586.1,3449.1,1628.4,2168.7,3433.4,3433.4,715.9,1316.0,877.2,565.8,1429.5,2002.5,3438.2,3441.9,843.6,997.9,1397.6,2184.0,1909.5,1216.8,19.0,-39.0,-23.0,-9825.0,-6101.0,7260.0,9054.0,424.0,-132.0,131.0,14.0,-24.0,-8.0,-6914.0,-4875.0,7874.0,11613.0,319.0,-12.0,62.0,1.0
2022-05-13 12:57:05.894671-07:00,2083.6,600.4,2092.6,2035.4,1266.7,1349.4,1538.5,1895.8,3441.9,3437.0,2461.0,1871.3,1586.1,3434.6,1636.0,2156.5,3439.5,3434.6,706.9,1316.0,878.9,565.8,1429.5,2002.5,3434.6,3449.1,869.6,997.9,1393.0,2184.0,1909.5,1216.8,46.0,13.0,-13.0,-9747.0,-6157.0,7463.0,8934.0,552.0,-166.0,178.0,6.0,13.0,-34.0,-6862.0,-4937.0,8022.0,11516.0,454.0,-59.0,29.0,1.0
2022-05-13 12:57:05.937080-07:00,2085.6,605.2,2171.8,2035.4,1271.2,1349.4,1538.5,1895.8,3445.5,3437.0,2501.5,1871.3,1597.4,3434.6,1636.0,2156.5,3439.5,3434.6,706.9,1318.7,878.9,570.6,1434.1,2017.4,3434.6,3449.1,869.6,1000.5,1393.0,2190.1,1917.4,1208.9,59.0,16.0,-6.0,-9661.0,-6253.0,7615.0,8833.0,491.0,-80.0,-33.0,5.0,12.0,-12.0,-6805.0,-4971.0,8140.0,11452.0,296.0,-103.0,-13.0,1.0
2022-05-13 12:57:06.027539-07:00,2085.6,605.2,2171.8,2010.4,1264.9,1354.0,1497.7,1833.3,3445.5,3437.0,2501.5,1876.2,1597.4,3444.3,1736.8,2176.9,3431.0,3438.2,709.3,1309.7,877.2,570.6,1434.1,2017.4,3444.3,3441.9,878.9,1019.4,1397.6,2190.1,1917.4,1208.9,-38.0,4.0,-27.0,-9561.0,-6404.0,7726.0,8736.0,621.0,25.0,-74.0,-21.0,-10.0,27.0,-6721.0,-5006.0,8264.0,11398.0,420.0,-127.0,-50.0,1.0
2022-05-13 12:57:06.072713-07:00,2140.2,594.7,2143.3,1991.5,1264.9,1354.0,1497.7,1833.3,3437.0,3446.7,2658.0,1895.8,1597.4,3444.3,1736.8,2176.9,3431.0,3438.2,709.3,1309.7,876.4,567.4,1437.8,2009.4,3444.3,3441.9,878.9,1019.4,1387.5,2246.6,1984.6,1210.6,15.0,17.0,5.0,-9325.0,-6601.0,7978.0,8618.0,1043.0,-545.0,-122.0,-30.0,7.0,-14.0,-6589.0,-5091.0,8447.0,11303.0,667.0,-135.0,-120.0,1.0
2022-05-13 12:57:06.115977-07:00,2140.2,594.7,2143.3,1991.5,1256.9,1354.0,1467.2,1756.0,3437.0,3446.7,2658.0,1895.8,1589.9,3444.3,1841.1,2193.2,3437.0,3439.5,713.4,1304.3,876.4,567.4,1437.8,2009.4,3449.1,3438.2,873.8,1032.3,1387.5,2246.6,1984.6,1210.6,-41.0,24.0,-23.0,-9042.0,-6768.0,8300.0,8484.0,1031.0,-319.0,-64.0,-32.0,-11.0,2.0,-6437.0,-5179.0,8645.0,11200.0,605.0,-155.0,-95.0,1.0
2022-05-13 12:57:06.161746-07:00,2199.3,600.4,2128.0,1976.6,1256.9,1354.0,1467.2,1756.0,3440.7,3439.5,2700.7,1882.0,1589.9,3444.3,1841.1,2193.2,3437.0,3439.5,713.4,1304.3,874.7,569.0,1441.5,1991.5,3449.1,3438.2,873.8,1032.3,1391.2,2265.2,2007.4,1202.7,-20.0,56.0,24.0,-8709.0,-6966.0,8620.0,8352.0,975.0,-468.0,-147.0,-28.0,77.0,0.0,-6293.0,-5258.0,8815.0,11113.0,438.0,-139.0,-114.0,1.0
2022-05-13 12:57:06.251176-07:00,2199.3,600.4,2128.0,1976.6,1255.1,1336.8,1439.6,1721.5,3440.7,3439.5,2700.7,1882.0,1579.6,3433.4,1857.6,2162.6,3433.4,3433.4,715.1,1300.7,874.7,569.0,1441.5,1991.5,3450.4,3432.2,859.5,1021.1,1391.2,2265.2,2007.4,1202.7,-53.0,-29.0,15.0,-8554.0,-7028.0,8818.0,8253.0,541.0,-194.0,122.0,-33.0,-55.0,17.0,-6195.0,-5312.0,8929.0,11051.0,413.0,-54.0,-73.0,1.0
2022-05-13 12:57:06.255496-07:00,2206.5,592.3,2100.7,1947.9,1255.1,1336.8,1439.6,1708.1,3440.7,3447.9,2591.8,1824.6,1579.6,3433.4,1857.6,2099.7,3440.7,3433.4,715.1,1300.7,879.7,568.2,1425.9,1971.7,3444.3,3432.2,859.5,1021.1,1393.0,2186.0,1906.6,1195.6,-18.0,17.0,0.0,-8388.0,-7121.0,9007.0,8139.0,654.0,-225.0,-69.0,-34.0,1.0,-25.0,-6113.0,-5385.0,9032.0,10977.0,301.0,-19.0,-69.0,1.0
2022-05-13 12:57:06.295886-07:00,2214.7,592.3,2100.7,1947.9,1248.0,1325.0,1419.5,1708.1,3449.1,3447.9,2591.8,1824.6,1580.5,3446.7,1756.0,2099.7,3440.7,3432.2,714.2,1302.5,879.7,568.2,1425.9,1950.9,3444.3,3439.5,859.5,1021.9,1393.0,2186.0,1906.6,1192.9,5.0,-10.0,9.0,-8288.0,-7201.0,9067.0,8104.0,135.0,24.0,-115.0,-13.0,-2.0,-6.0,-6087.0,-5409.0,9055.0,10961.0,25.0,-21.0,-19.0,1.0
2022-05-13 12:57:06.341974-07:00,2214.7,589.9,2072.5,1939.0,1248.0,1325.0,1419.5,1691.9,3449.1,3443.1,2535.8,1798.4,1580.5,3446.7,1756.0,2058.4,3444.3,3432.2,714.2,1302.5,873.0,566.6,1422.2,1950.9,3445.5,3439.5,859.5,1021.9,1383.0,2134.1,1843.0,1192.9,-33.0,6.0,-5.0,-8275.0,-7211.0,9064.0,8112.0,-77.0,-149.0,53.0,24.0,7.0,58.0,-6077.0,-5368.0,9076.0,10969.0,12.0,-116.0,71.0,1.0
2022-05-13 12:57:06.387307-07:00,2207.5,589.9,2072.5,1939.0,1247.1,1316.9,1424.1,1691.9,3440.7,3443.1,2535.8,1798.4,1570.2,3441.9,1711.0,2058.4,3444.3,3435.8,712.6,1296.3,873.0,566.6,1422.2,1946.9,3445.5,3445.5,857.0,1014.2,1383.0,2134.1,1843.0,1190.3,8.0,-43.0,76.0,-8270.0,-7113.0,9139.0,8119.0,106.0,-77.0,235.0,10.0,-45.0,13.0,-6064.0,-5372.0,9145.0,10917.0,293.0,54.0,74.0,1.0
2022-05-13 12:57:06.478340-07:00,2207.5,585.9,2078.5,1939.0,1247.1,1316.9,1424.1,1683.3,3440.7,3438.2,2496.2,1771.4,1570.2,3441.9,1711.0,2041.4,3437.0,3435.8,712.6,1296.3,875.5,566.6,1421.3,1946.9,3449.1,3445.5,857.0,1014.2,1391.2,2095.7,1806.1,1190.3,-5.0,115.0,-46.0,-8252.0,-7178.0,9233.0,7973.0,398.0,211.0,72.0,-58.0,66.0,-22.0,-6049.0,-5452.0,9228.0,10815.0,194.0,104.0,6.0,1.0
2022-05-13 12:57:06.566364-07:00,2278.6,593.9,2078.5,1939.0,1240.8,1315.1,1423.1,1683.3,3449.1,3437.0,2496.2,1771.4,1573.9,3439.5,1642.6,2041.4,3437.0,3445.5,711.8,1297.2,875.5,566.6,1416.7,1935.1,3449.1,3444.3,854.5,1011.6,1391.2,2095.7,1739.7,1187.6,-55.0,62.0,-86.0,-8166.0,-7323.0,9256.0,7902.0,506.0,-62.0,-339.0,-69.0,30.0,-15.0,-6035.0,-5491.0,9234.0,10799.0,82.0,10.0,-101.0,1.0
2022-05-13 12:57:06.567862-07:00,2278.6,593.9,1958.8,1902.6,1240.8,1315.1,1408.5,1643.5,3449.1,3437.0,2396.6,1744.5,1573.9,3439.5,1559.9,1995.5,3440.7,3435.8,711.8,1297.2,877.2,573.8,1416.7,1935.1,3451.6,3440.7,854.5,1011.6,1387.5,2040.4,1739.7,1187.6,-6.0,-24.0,34.0,-7949.0,-7493.0,9293.0,7922.0,344.0,-157.0,-478.0,-10.0,-8.0,-8.0,-6002.0,-5506.0,9220.0,10820.0,-108.0,-66.0,-42.0,1.0
2022-05-13 12:57:06.612601-07:00,2291.0,581.8,1958.8,1902.6,1241.7,1310.6,1408.5,1643.5,3441.9,3449.1,2396.6,1744.5,1577.7,3443.1,1559.9,1995.5,3440.7,3435.8,713.4,1293.6,877.2,573.8,1414.0,1945.0,3451.6,3440.7,841.9,1015.1,1387.5,2040.4,1688.1,1186.7,-23.0,-55.0,26.0,-7840.0,-7602.0,9263.0,7961.0,48.0,9.0,-189.0,9.0,-8.0,31.0,-6019.0,-5483.0,9189.0,10850.0,-55.0,18.0,29.0,1.0
2022-05-13 12:57:06.656561-07:00,2291.0,581.8,1852.8,1869.3,1241.7,1310.6,1390.3,1640.7,3441.9,3449.1,2305.6,1721.5,1577.7,3443.1,1511.5,1969.7,3438.2,3444.3,713.4,1293.6,880.6,569.8,1414.0,1945.0,3441.9,3454.0,841.9,1015.1,1386.6,1993.5,1688.1,1186.7,26.0,10.0,11.0,-7804.0,-7592.0,9320.0,7939.0,189.0,-82.0,169.0,-1.0,17.0,-21.0,-6021.0,-5501.0,9211.0,10820.0,209.0,42.0,18.0,1.0
2022-05-13 12:57:06.747403-07:00,2289.0,591.5,1852.8,1869.3,1230.2,1300.7,1390.3,1640.7,3437.0,3449.1,2305.6,1721.5,1572.1,3447.9,1511.5,1969.7,3438.2,3444.3,719.2,1298.1,880.6,569.8,1404.9,1932.1,3441.9,3454.0,834.4,1003.0,1386.6,1993.5,1660.6,1196.5,0.0,29.0,-20.0,-7813.0,-7587.0,9369.0,7878.0,52.0,21.0,72.0,-24.0,11.0,-16.0,-6007.0,-5535.0,9251.0,10776.0,60.0,17.0,0.0,1.0
2022-05-13 12:57:06.748754-07:00,2289.0,591.5,1811.0,1844.0,1230.2,1300.7,1367.6,1615.2,3437.0,3449.1,2280.7,1714.8,1572.1,3447.9,1490.3,1947.9,3446.7,3435.8,719.2,1298.1,879.7,569.8,1404.9,1932.1,3440.7,3441.9,834.4,1003.0,1378.5,1972.7,1660.6,1196.5,-8.0,-1.0,-28.0,-7825.0,-7601.0,9338.0,7890.0,-97.0,53.0,-98.0,-16.0,-7.0,0.0,-5999.0,-5542.0,9253.0,10776.0,-83.0,-28.0,13.0,1.0
2022-05-13 12:57:06.793319-07:00,2291.0,586.7,1777.2,1844.0,1228.4,1302.5,1367.6,1615.2,3450.4,3440.7,2255.9,1714.8,1566.5,3443.1,1490.3,1947.9,3446.7,3435.8,715.9,1293.6,879.7,566.6,1412.2,1928.2,3440.7,3441.9,838.6,991.9,1378.5,1956.8,1655.8,1196.5,-8.0,-30.0,-22.0,-7792.0,-7573.0,9342.0,7944.0,-4.0,-203.0,-22.0,-23.0,-2.0,-10.0,-6010.0,-5513.0,9235.0,10800.0,-44.0,-44.0,32.0,1.0
2022-05-13 12:57:06.882344-07:00,2291.0,586.7,1777.2,1842.0,1228.4,1292.7,1374.8,1618.1,3450.4,3440.7,2255.9,1700.5,1566.5,3438.2,1475.5,1937.1,3434.6,3438.2,710.1,1293.6,878.0,566.6,1412.2,1928.2,3441.9,3444.3,825.2,991.9,1383.9,1956.8,1655.8,1196.5,-51.0,-1.0,-34.0,-7722.0,-7528.0,9375.0,8014.0,-72.0,-380.0,-58.0,-9.0,-3.0,32.0,-6021.0,-5477.0,9222.0,10823.0,-171.0,-47.0,61.0,1.0
2022-05-13 12:57:06.883867-07:00,2326.4,595.5,1725.3,1842.0,1229.3,1292.7,1374.8,1618.1,3444.3,3443.1,2241.4,1700.5,1562.7,3438.2,1475.5,1937.1,3434.6,3438.2,710.1,1291.8,878.0,569.8,1422.2,1932.1,3441.9,3444.3,825.2,1002.2,1383.9,1930.2,1632.2,1181.5,-1.0,-13.0,2.0,-7569.0,-7419.0,9501.0,8114.0,101.0,-595.0,43.0,-19.0,2.0,-18.0,-6046.0,-5430.0,9200.0,10852.0,-52.0,-51.0,53.0,1.0
2022-05-13 12:57:06.972790-07:00,2326.4,595.5,1725.3,1826.5,1229.3,1282.8,1364.8,1588.0,3444.3,3443.1,2241.4,1697.6,1562.7,3428.6,1431.4,1934.1,3449.1,3439.5,712.6,1291.8,884.8,569.8,1422.2,1932.1,3454.0,3443.1,831.1,1002.2,1387.5,1930.2,1632.2,1181.5,20.0,-16.0,49.0,-7467.0,-7329.0,9638.0,8129.0,158.0,-257.0,176.0,1.0,-1.0,-4.0,-6040.0,-5402.0,9223.0,10849.0,103.0,-80.0,40.0,1.0
2022-05-13 12:57:07.016669-07:00,2341.0,586.7,1676.7,1826.5,1226.6,1282.8,1364.8,1588.0,3439.5,3444.3,2166.7,1697.6,1573.9,3428.6,1431.4,1934.1,3449.1,3439.5,712.6,1292.7,884.8,565.8,1444.2,1919.3,3454.0,3443.1,831.1,1005.6,1387.5,1918.3,1609.6,1185.9,-2.0,15.0,47.0,-7441.0,-7284.0,9729.0,8085.0,213.0,-70.0,168.0,-4.0,6.0,21.0,-6016.0,-5398.0,9275.0,10820.0,220.0,-20.0,6.0,1.0
2022-05-13 12:57:07.060800-07:00,2341.0,586.7,1676.7,1806.1,1221.3,1281.9,1338.6,1545.9,3439.5,3444.3,2166.7,1684.3,1574.9,3438.2,1403.0,1907.5,3438.2,3437.0,711.8,1289.1,876.4,565.8,1444.2,1919.3,3447.9,3439.5,818.5,1008.2,1383.0,1918.3,1609.6,1185.9,-9.0,8.0,45.0,-7440.0,-7306.0,9791.0,7990.0,375.0,111.0,130.0,-1.0,4.0,37.0,-5976.0,-5449.0,9349.0,10753.0,381.0,54.0,-27.0,1.0
2022-05-13 12:57:07.109375-07:00,2337.9,589.1,1644.5,1781.0,1221.3,1281.9,1338.6,1545.9,3444.3,3443.1,2156.5,1668.2,1574.9,3438.2,1403.0,1907.5,3438.2,3437.0,711.8,1289.1,875.5,567.4,1438.7,1916.4,3447.9,3439.5,818.5,1008.2,1380.3,1896.7,1602.1,1182.3,-3.0,22.0,13.0,-7437.0,-7363.0,9838.0,7882.0,236.0,177.0,88.0,-1.0,20.0,6.0,-5936.0,-5533.0,9431.0,10660.0,261.0,101.0,-18.0,1.0
2022-05-13 12:57:07.196289-07:00,2337.9,589.1,1644.5,1781.0,1200.0,1276.5,1335.9,1532.9,3444.3,3443.1,2156.5,1668.2,1573.9,3444.3,1393.0,1904.6,3435.8,3431.0,712.6,1286.4,875.5,567.4,1438.7,1916.4,3438.2,3444.3,818.5,996.2,1380.3,1896.7,1602.1,1182.3,0.0,9.0,-33.0,-7482.0,-7399.0,9831.0,7815.0,-102.0,170.0,16.0,-18.0,9.0,-21.0,-5939.0,-5579.0,9452.0,10616.0,-19.0,64.0,8.0,1.0
2022-05-13 12:57:07.198117-07:00,2329.5,585.9,1646.4,1778.1,1200.0,1276.5,1335.9,1532.9,3444.3,3441.9,2133.1,1666.3,1573.9,3444.3,1393.0,1904.6,3435.8,3431.0,712.6,1286.4,885.6,565.0,1433.2,1920.3,3438.2,3444.3,818.5,996.2,1386.6,1883.0,1581.4,1177.0,-1.0,-14.0,-42.0,-7532.0,-7406.0,9790.0,7810.0,-28.0,38.0,35.0,-17.0,4.0,-20.0,-5949.0,-5590.0,9443.0,10613.0,14.0,1.0,4.0,1.0
2022-05-13 12:57:07.378291-07:00,2329.5,585.9,1646.4,1778.1,1207.1,1273.0,1325.9,1517.1,3444.3,3441.9,2133.1,1666.3,1565.5,3449.1,1383.9,1896.7,3438.2,3439.5,710.1,1281.9,885.6,565.0,1433.2,1920.3,3437.0,3438.2,812.7,1004.8,1386.6,1883.0,1581.4,1177.0,-3.0,-2.0,-25.0,-7529.0,-7396.0,9814.0,7793.0,-35.0,-77.0,68.0,-9.0,5.0,-8.0,-5937.0,-5592.0,9453.0,10610.0,-5.0,-56.0,12.0,1.0
2022-05-13 12:57:07.380497-07:00,2318.1,589.1,1628.4,1774.3,1207.1,1273.0,1325.9,1517.1,3441.9,3443.1,2129.0,1665.3,1565.5,3449.1,1383.9,1896.7,3438.2,3439.5,710.1,1281.9,879.7,563.4,1425.9,1909.5,3437.0,3438.2,812.7,1004.8,1384.8,1877.2,1589.9,1184.1,-6.0,5.0,0.0,-7522.0,-7349.0,9840.0,7812.0,-34.0,-120.0,50.0,-5.0,5.0,2.0,-5928.0,-5570.0,9460.0,10620.0,-18.0,-55.0,6.0,1.0
2022-05-13 12:57:07.381681-07:00,2305.6,589.1,1628.4,1774.3,1199.1,1277.4,1327.8,1520.8,3445.5,3443.1,2129.0,1665.3,1574.9,3441.9,1371.2,1887.9,3439.5,3438.2,713.4,1285.5,879.7,563.4,1425.9,1907.5,3440.7,3447.9,808.5,998.7,1384.8,1877.2,1589.9,1178.8,-6.0,13.0,26.0,-7502.0,-7323.0,9868.0,7820.0,46.0,-43.0,9.0,-1.0,7.0,15.0,-5917.0,-5557.0,9466.0,10627.0,0.0,-15.0,-2.0,1.0
2022-05-13 12:57:07.382941-07:00,2305.6,590.7,1627.5,1766.6,1199.1,1277.4,1327.8,1511.5,3445.5,3443.1,2122.0,1658.7,1574.9,3441.9,1371.2,1872.3,3439.5,3438.2,713.4,1285.5,878.9,573.0,1425.9,1907.5,3450.4,3447.9,808.5,998.7,1380.3,1873.2,1573.0,1178.8,3.0,20.0,18.0,-7482.0,-7327.0,9879.0,7823.0,7.0,5.0,-29.0,-5.0,23.0,7.0,-5916.0,-5558.0,9463.0,10630.0,-27.0,11.0,-11.0,1.0
2022-05-13 12:57:07.466820-07:00,2299.3,590.7,1627.5,1766.6,1192.0,1272.1,1316.9,1511.5,3444.3,3443.1,2122.0,1658.7,1557.1,3446.7,1366.6,1872.3,3439.5,3443.1,711.0,1280.1,878.9,573.0,1425.9,1907.5,3450.4,3450.4,806.0,992.7,1380.3,1873.2,1573.0,1172.6,-5.0,-6.0,10.0,-7494.0,-7344.0,9854.0,7825.0,-14.0,97.0,-27.0,-5.0,0.0,13.0,-5925.0,-5559.0,9450.0,10636.0,-24.0,25.0,-7.0,1.0
2022-05-13 12:57:07.528431-07:00,2299.3,593.9,1629.4,1756.0,1192.0,1272.1,1316.9,1519.9,3444.3,3435.8,2110.8,1650.2,1557.1,3446.7,1366.6,1880.1,3439.5,3443.1,711.0,1280.1,878.9,571.4,1420.4,1907.5,3443.1,3450.4,806.0,992.7,1375.7,1875.2,1574.9,1172.6,-2.0,-6.0,-15.0,-7512.0,-7362.0,9840.0,7810.0,13.0,41.0,28.0,-8.0,0.0,-2.0,-5931.0,-5566.0,9444.0,10633.0,33.0,20.0,-3.0,1.0
2022-05-13 12:57:07.614740-07:00,2295.2,593.9,1629.4,1756.0,1186.7,1267.6,1309.7,1519.9,3439.5,3435.8,2110.8,1650.2,1563.7,3437.0,1368.5,1880.1,3439.5,3435.8,708.5,1278.3,878.9,571.4,1420.4,1902.6,3443.1,3440.7,807.7,991.9,1375.7,1875.2,1574.9,1181.5,-1.0,4.0,-15.0,-7522.0,-7364.0,9840.0,7798.0,-8.0,22.0,6.0,-9.0,4.0,-6.0,-5930.0,-5576.0,9450.0,10624.0,17.0,2.0,-3.0,1.0
2022-05-13 12:57:07.616816-07:00,2295.2,585.1,1615.2,1757.0,1186.7,1267.6,1311.5,1511.5,3439.5,3444.3,2105.8,1647.3,1563.7,3437.0,1367.6,1881.1,3441.9,3439.5,708.5,1278.3,864.6,562.6,1413.1,1902.6,3440.7,3447.9,807.7,991.9,1373.0,1848.9,1564.6,1181.5,-4.0,-8.0,-11.0,-7533.0,-7363.0,9830.0,7801.0,-55.0,17.0,5.0,-10.0,-1.0,-4.0,-5927.0,-5575.0,9451.0,10626.0,-16.0,-18.0,-1.0,1.0
2022-05-13 12:57:07.726127-07:00,2292.1,581.8,1615.2,1757.0,1204.4,1264.0,1311.5,1511.5,3445.5,3438.2,2105.8,1647.3,1566.5,3440.7,1367.6,1881.1,3441.9,3439.5,712.6,1290.0,864.6,562.6,1414.0,1899.7,3440.7,3447.9,806.9,989.3,1373.0,1848.9,1562.7,1173.5,-4.0,5.0,0.0,-7543.0,-7350.0,9828.0,7805.0,-11.0,-17.0,44.0,-6.0,9.0,2.0,-5921.0,-5570.0,9454.0,10629.0,8.0,-17.0,0.0,1.0
2022-05-13 12:57:07.728530-07:00,2292.1,581.8,1619.0,1755.0,1204.4,1264.0,1313.3,1505.1,3445.5,3438.2,2108.8,1650.2,1566.5,3440.7,1356.7,1864.5,3433.4,3438.2,712.6,1290.0,876.4,561.8,1414.0,1899.7,3456.4,3439.5,806.9,989.3,1378.5,1857.6,1562.7,1173.5,-6.0,5.0,1.0,-7555.0,-7335.0,9828.0,7808.0,-48.0,13.0,12.0,-7.0,4.0,3.0,-5919.0,-5562.0,9452.0,10636.0,-37.0,-12.0,11.0,1.0
2022-05-13 12:57:07.738264-07:00,2276.5,578.6,1619.0,1755.0,1188.5,1270.3,1313.3,1505.1,3439.5,3449.1,2108.8,1650.2,1566.5,3433.4,1356.7,1864.5,3433.4,3438.2,711.8,1289.1,876.4,561.8,1406.7,1895.8,3456.4,3439.5,809.4,996.2,1378.5,1857.6,1551.5,1170.0,-9.0,5.0,-5.0,-7564.0,-7335.0,9820.0,7809.0,1.0,7.0,3.0,-8.0,3.0,11.0,-5921.0,-5559.0,9448.0,10641.0,4.0,-2.0,-6.0,1.0
2022-05-13 12:57:07.784430-07:00,2276.5,578.6,1619.9,1744.5,1188.5,1270.3,1307.0,1507.8,3439.5,3449.1,2093.7,1641.6,1566.5,3433.4,1356.7,1867.4,3440.7,3438.2,711.8,1289.1,878.9,562.6,1406.7,1895.8,3440.7,3434.6,809.4,996.2,1373.9,1859.6,1551.5,1170.0,-2.0,-6.0,-3.0,-7567.0,-7328.0,9820.0,7813.0,-34.0,-13.0,20.0,-7.0,1.0,-1.0,-5921.0,-5559.0,9446.0,10642.0,-5.0,2.0,3.0,1.0
2022-05-13 12:57:07.872760-07:00,2267.2,584.3,1621.8,1744.5,1189.4,1264.0,1307.0,1507.8,3431.0,3450.4,2101.7,1641.6,1557.1,3439.5,1356.7,1867.4,3440.7,3438.2,712.6,1285.5,878.9,562.6,1407.6,1893.8,3440.7,3434.6,808.5,995.3,1373.9,1850.8,1563.7,1168.2,-4.0,-1.0,-3.0,-7576.0,-7313.0,9822.0,7816.0,-26.0,-17.0,38.0,-8.0,0.0,4.0,-5920.0,-5560.0,9447.0,10641.0,16.0,-9.0,4.0,1.0
2022-05-13 12:57:07.916110-07:00,2267.2,584.3,1621.8,1751.2,1189.4,1267.6,1317.8,1500.4,3431.0,3450.4,2101.7,1643.5,1557.1,3443.1,1362.1,1865.4,3434.6,3438.2,711.0,1285.5,875.5,562.6,1407.6,1893.8,3439.5,3438.2,812.7,995.3,1383.0,1850.8,1563.7,1168.2,-1.0,5.0,0.0,-7579.0,-7305.0,9826.0,7815.0,-6.0,17.0,1.0,-8.0,4.0,0.0,-5916.0,-5561.0,9451.0,10639.0,1.0,-17.0,-5.0,1.0
2022-05-13 12:57:08.007494-07:00,2272.4,586.7,1612.4,1751.2,1179.7,1267.6,1317.8,1500.4,3447.9,3439.5,2087.6,1643.5,1566.5,3443.1,1362.1,1865.4,3434.6,3438.2,711.0,1284.6,875.5,568.2,1406.7,1897.7,3439.5,3438.2,812.7,994.5,1383.0,1851.8,1549.7,1175.3,0.0,-1.0,-2.0,-7583.0,-7312.0,9816.0,7818.0,-8.0,10.0,-18.0,-7.0,3.0,2.0,-5915.0,-5556.0,9449.0,10644.0,-5.0,-7.0,-7.0,1.0
2022-05-13 12:57:08.009694-07:00,2272.4,586.7,1612.4,1745.4,1179.7,1268.5,1311.5,1497.7,3447.9,3439.5,2087.6,1651.1,1566.5,3440.7,1347.6,1859.6,3433.4,3434.6,710.1,1284.6,875.5,568.2,1406.7,1897.7,3441.9,3440.7,810.2,994.5,1373.9,1851.8,1549.7,1175.3,-11.0,-4.0,0.0,-7586.0,-7321.0,9808.0,7816.0,1.0,21.0,-11.0,-3.0,-3.0,9.0,-5913.0,-5555.0,9449.0,10646.0,-5.0,2.0,-2.0,1.0
2022-05-13 12:57:08.141330-07:00,2274.5,589.9,1609.6,1745.4,1181.5,1268.5,1311.5,1497.7,3443.1,3440.7,2088.6,1651.1,1559.0,3440.7,1347.6,1859.6,3433.4,3434.6,710.1,1280.1,875.5,573.0,1400.3,1898.7,3441.9,3440.7,810.2,985.9,1373.9,1847.9,1559.9,1170.0,0.0,2.0,-3.0,-7581.0,-7322.0,9812.0,7815.0,26.0,-11.0,1.0,-8.0,3.0,0.0,-5911.0,-5556.0,9450.0,10645.0,17.0,7.0,-3.0,1.0
2022-05-13 12:57:08.186326-07:00,2274.5,589.9,1609.6,1740.6,1181.5,1266.7,1311.5,1489.3,3443.1,3440.7,2088.6,1644.5,1559.0,3443.1,1354.9,1856.7,3438.2,3439.5,712.6,1280.1,876.4,573.0,1400.3,1898.7,3438.2,3445.5,811.9,985.9,1377.5,1847.9,1559.9,1170.0,-2.0,-7.0,2.0,-7582.0,-7321.0,9811.0,7817.0,-17.0,5.0,6.0,-9.0,-6.0,1.0,-5910.0,-5558.0,9452.0,10644.0,-9.0,-7.0,-1.0,1.0
2022-05-13 12:57:08.368013-07:00,2260.0,575.4,1606.8,1733.9,1176.2,1266.7,1311.5,1489.3,3437.0,3440.7,2090.6,1645.4,1560.9,3443.1,1354.9,1856.7,3438.2,3439.5,712.6,1282.8,870.5,566.6,1400.3,1890.9,3438.2,3445.5,811.9,992.7,1376.6,1841.1,1555.3,1167.4,53.0,50.0,78.0,-7590.0,-7329.0,9801.0,7814.0,-16.0,105.0,-49.0,-10.0,-1.0,-45.0,-5906.0,-5557.0,9454.0,10644.0,19.0,-35.0,-15.0,1.0
2022-05-13 12:57:08.370213-07:00,2260.0,575.4,1606.8,1733.9,1185.9,1262.2,1303.4,1499.5,3437.0,3440.7,2090.6,1645.4,1559.0,3437.0,1375.7,1865.4,3441.9,3449.1,711.0,1277.4,870.5,566.6,1400.3,1890.9,3438.2,3447.9,821.0,1004.8,1376.6,1841.1,1555.3,1167.4,1.0,49.0,110.0,-7703.0,-7500.0,9611.0,7777.0,-240.0,901.0,-396.0,-7.0,15.0,30.0,-5902.0,-5559.0,9437.0,10661.0,-151.0,38.0,-46.0,1.0
2022-05-13 12:57:08.415831-07:00,2270.3,584.3,1742.6,1767.5,1185.9,1262.2,1303.4,1499.5,3433.4,3450.4,2155.5,1651.1,1559.0,3437.0,1375.7,1865.4,3441.9,3449.1,711.0,1277.4,871.3,569.0,1419.5,1894.8,3438.2,3447.9,821.0,1004.8,1378.5,1878.1,1590.8,1169.1,-18.0,29.0,16.0,-8069.0,-7728.0,9092.0,7806.0,-1045.0,1513.0,-532.0,-16.0,-5.0,61.0,-5996.0,-5530.0,9281.0,10760.0,-704.0,202.0,16.0,1.0
2022-05-13 12:57:08.417098-07:00,2270.3,584.3,1742.6,1767.5,1191.2,1316.0,1306.1,1500.4,3433.4,3450.4,2155.5,1651.1,1560.9,3439.5,1494.0,1890.9,3433.4,3438.2,707.7,1279.2,871.3,569.0,1419.5,1894.8,3447.9,3437.0,842.8,1033.2,1378.5,1878.1,1590.8,1169.1,-86.0,53.0,-90.0,-8510.0,-7875.0,8407.0,7958.0,-1496.0,1133.0,-709.0,-69.0,47.0,43.0,-6203.0,-5425.0,8973.0,10955.0,-1143.0,208.0,51.0,1.0
2022-05-13 12:57:08.418261-07:00,2252.8,579.4,1989.5,1810.0,1191.2,1316.0,1306.1,1500.4,3447.9,3449.1,2245.6,1672.9,1560.9,3439.5,1494.0,1890.9,3433.4,3438.2,707.7,1279.2,876.4,567.4,1428.6,1894.8,3447.9,3437.0,842.8,1033.2,1380.3,1932.1,1622.8,1170.9,-52.0,-23.0,-165.0,-8885.0,-7825.0,7749.0,8259.0,-1453.0,561.0,-446.0,-66.0,20.0,3.0,-6451.0,-5251.0,8576.0,11212.0,-1215.0,190.0,68.0,1.0
2022-05-13 12:57:08.419036-07:00,2252.8,579.4,1989.5,1810.0,1191.2,1316.0,1306.1,1500.4,3447.9,3449.1,2245.6,1672.9,1560.9,3439.5,1494.0,1890.9,3433.4,3438.2,707.7,1279.2,876.4,567.4,1428.6,1894.8,3447.9,3437.0,842.8,1033.2,1380.3,1932.1,1622.8,1170.9,-52.0,-23.0,-165.0,-8885.0,-7825.0,7749.0,8259.0,-1453.0,561.0,-446.0,-66.0,20.0,3.0,-6451.0,-5251.0,8576.0,11212.0,-1215.0,190.0,68.0,1.0
2022-05-13 12:57:08.546247-07:00,2235.3,593.1,2161.6,1884.0,1200.0,1336.8,1308.8,1517.1,3437.0,3438.2,2493.0,1747.3,1559.9,3439.5,1693.8,2116.9,3434.6,3440.7,705.2,1285.5,878.0,564.2,1458.9,1914.4,3451.6,3440.7,847.8,1041.8,1368.5,2128.0,1879.1,1176.2,73.0,-42.0,-26.0,-9331.0,-7314.0,7381.0,8567.0,-507.0,-250.0,466.0,12.0,-26.0,-57.0,-6643.0,-5160.0,8201.0,11420.0,-26.0,70.0,-47.0,1.0
2022-05-13 12:57:08.548409-07:00,2206.5,593.1,2161.6,1884.0,1203.5,1373.0,1307.0,1517.1,3449.1,3438.2,2493.0,1747.3,1567.4,3439.5,1873.2,2116.9,3434.6,3438.2,708.5,1281.0,878.0,564.2,1458.9,1963.7,3451.6,3449.1,879.7,1043.5,1368.5,2128.0,1879.1,1169.1,59.0,-7.0,-1.0,-9464.0,-7115.0,7335.0,8628.0,-600.0,26.0,77.0,2.0,-16.0,-30.0,-6662.0,-5146.0,8151.0,11451.0,-307.0,-21.0,3.0,1.0
2022-05-13 12:57:08.591230-07:00,2206.5,606.8,2220.9,2003.5,1203.5,1373.0,1307.0,1596.4,3449.1,3444.3,2675.5,1842.0,1567.4,3439.5,1873.2,2209.6,3433.4,3438.2,708.5,1281.0,876.4,566.6,1474.6,1963.7,3446.7,3449.1,879.7,1043.5,1401.2,2260.0,2011.4,1169.1,-35.0,-25.0,-19.0,-9592.0,-6970.0,7166.0,8746.0,-561.0,24.0,-51.0,-20.0,-13.0,17.0,-6727.0,-5036.0,8034.0,11544.0,-419.0,-65.0,78.0,1.0
2022-05-13 12:57:08.638430-07:00,2174.8,606.8,2220.9,2003.5,1208.0,1420.4,1353.1,1596.4,3438.2,3444.3,2675.5,1842.0,1573.9,3439.5,1855.7,2209.6,3433.4,3435.8,708.5,1279.2,876.4,566.6,1474.6,1964.7,3446.7,3441.9,884.8,1042.6,1401.2,2260.0,2011.4,1166.5,-9.0,-6.0,-8.0,-9644.0,-6884.0,7113.0,8800.0,-14.0,-96.0,30.0,5.0,-11.0,27.0,-6758.0,-4961.0,7999.0,11583.0,14.0,-83.0,50.0,1.0
2022-05-13 12:57:08.681823-07:00,2174.8,609.2,2168.7,2030.4,1208.0,1420.4,1414.9,1710.0,3438.2,3438.2,2675.5,1865.4,1573.9,3439.5,1807.1,2193.2,3444.3,3445.5,708.5,1279.2,878.9,572.2,1469.0,1964.7,3446.7,3454.0,884.8,1042.6,1398.5,2263.1,2004.5,1166.5,-1.0,32.0,-22.0,-9632.0,-6838.0,7133.0,8833.0,-174.0,-156.0,-11.0,10.0,7.0,17.0,-6742.0,-4938.0,8024.0,11585.0,-54.0,-77.0,17.0,1.0
2022-05-13 12:57:08.817442-07:00,2157.5,610.8,2168.7,2030.4,1223.0,1459.8,1414.9,1710.0,3444.3,3449.1,2675.5,1865.4,1567.4,3438.2,1807.1,2193.2,3444.3,3445.5,714.2,1281.0,878.9,572.2,1485.6,1945.9,3446.7,3454.0,875.5,1037.5,1398.5,2263.1,2007.4,1167.4,12.0,-8.0,-2.0,-9631.0,-6748.0,7155.0,8885.0,-96.0,-155.0,59.0,-1.0,-3.0,1.0,-6728.0,-4911.0,8035.0,11598.0,45.0,-81.0,0.0,1.0
2022-05-13 12:57:09.176313-07:00,2157.5,610.8,2113.9,2075.5,1223.0,1459.8,1494.9,1785.8,3444.3,3449.1,2658.0,1858.6,1567.4,3438.2,1786.8,2196.3,3435.8,3437.0,714.2,1281.0,879.7,572.2,1485.6,1945.9,3444.3,3446.7,875.5,1037.5,1385.7,2249.7,2007.4,1167.4,21.0,9.0,9.0,-9648.0,-6663.0,7169.0,8920.0,-178.0,-143.0,63.0,16.0,0.0,1.0,-6709.0,-4899.0,8058.0,11597.0,16.0,-41.0,8.0,1.0
2022-05-13 12:57:09.178354-07:00,2170.7,610.0,2113.9,2075.5,1223.0,1469.0,1494.9,1785.8,3444.3,3438.2,2658.0,1858.6,1560.9,3440.7,1786.8,2196.3,3435.8,3437.0,711.8,1278.3,879.7,572.2,1493.0,1944.0,3444.3,3446.7,864.6,1028.8,1385.7,2249.7,1985.6,1171.8,1.0,30.0,18.0,-9661.0,-6594.0,7161.0,8964.0,-154.0,-81.0,-6.0,-1.0,14.0,0.0,-6697.0,-4891.0,8067.0,11601.0,20.0,-37.0,-24.0,1.0
2022-05-13 12:57:09.180255-07:00,2170.7,610.0,2090.6,2073.5,1223.0,1469.0,1575.8,1859.6,3444.3,3438.2,2621.0,1852.8,1560.9,3440.7,1767.5,2180.9,3438.2,3439.5,711.8,1278.3,878.0,565.8,1493.0,1944.0,3438.2,3446.7,864.6,1028.8,1393.0,2238.4,1985.6,1171.8,-5.0,-37.0,-26.0,-9655.0,-6557.0,7146.0,9009.0,-20.0,-95.0,-55.0,8.0,3.0,9.0,-6685.0,-4892.0,8061.0,11612.0,9.0,-10.0,-50.0,1.0
2022-05-13 12:57:09.181963-07:00,2140.2,605.2,2090.6,2073.5,1236.4,1458.9,1575.8,1859.6,3441.9,3435.8,2621.0,1852.8,1563.7,3439.5,1767.5,2180.9,3438.2,3439.5,715.1,1289.1,878.0,565.8,1490.3,1947.9,3438.2,3446.7,861.2,1028.8,1393.0,2238.4,1968.7,1176.2,-5.0,8.0,-13.0,-9637.0,-6530.0,7167.0,9031.0,-72.0,-115.0,-20.0,2.0,-6.0,4.0,-6656.0,-4907.0,8080.0,11609.0,38.0,-32.0,-32.0,1.0
2022-05-13 12:57:09.222844-07:00,2140.2,605.2,2039.4,2052.4,1236.4,1458.0,1677.6,1956.8,3441.9,3435.8,2605.8,1849.8,1563.7,3440.7,1750.2,2174.8,3438.2,3441.9,715.9,1289.1,878.9,568.2,1490.3,1947.9,3450.4,3445.5,864.6,1028.8,1393.0,2227.0,1968.7,1176.2,-16.0,-44.0,0.0,-9628.0,-6498.0,7196.0,9041.0,95.0,-108.0,102.0,1.0,-22.0,23.0,-6640.0,-4911.0,8095.0,11606.0,158.0,-7.0,-17.0,1.0
2022-05-13 12:57:09.224148-07:00,2148.3,606.8,2006.4,2018.4,1313.3,1406.7,1638.8,1948.9,3435.8,3437.0,2564.8,1845.9,1559.9,3446.7,1734.9,2155.5,3440.7,3438.2,713.4,1310.6,874.7,567.4,1474.6,1939.0,3441.9,3449.1,836.1,1015.9,1386.6,2186.0,1933.1,1196.5,6.0,85.0,-7.0,-9352.0,-7114.0,7101.0,8941.0,284.0,390.0,-556.0,-40.0,46.0,5.0,-6307.0,-5447.0,7931.0,11665.0,-29.0,266.0,-670.0,1.0
2022-05-13 12:57:09.357864-07:00,2173.8,602.0,2011.4,2035.4,1313.3,1406.7,1638.8,1948.9,3444.3,3443.1,2618.8,1879.1,1559.9,3446.7,1734.9,2155.5,3440.7,3438.2,713.4,1310.6,877.2,565.0,1458.9,1940.0,3441.9,3449.1,836.1,1015.9,1386.6,2195.2,1945.0,1224.8,-21.0,6.0,-69.0,-9227.0,-7391.0,6989.0,8934.0,342.0,237.0,-487.0,-36.0,18.0,3.0,-6120.0,-5689.0,7805.0,11735.0,85.0,225.0,-750.0,1.0
2022-05-13 12:57:09.359215-07:00,2173.8,602.0,2011.4,2035.4,1359.4,1373.9,1611.5,1920.3,3444.3,3443.1,2618.8,1879.1,1565.5,3440.7,1727.2,2169.7,3438.2,3438.2,714.2,1322.3,877.2,565.0,1458.9,1940.0,3443.1,3438.2,836.1,1007.3,1386.6,2195.2,1945.0,1224.8,-16.0,-87.0,-63.0,-9060.0,-7602.0,6976.0,8938.0,615.0,-48.0,-283.0,-29.0,-57.0,-13.0,-5894.0,-5929.0,7726.0,11784.0,355.0,142.0,-732.0,1.0
2022-05-13 12:57:09.447922-07:00,2158.5,593.1,2010.4,2036.4,1359.4,1373.9,1611.5,1920.3,3433.4,3444.3,2618.8,1881.1,1565.5,3440.7,1727.2,2169.7,3438.2,3438.2,714.2,1322.3,878.0,565.0,1455.2,1955.8,3443.1,3438.2,836.1,1007.3,1389.4,2199.3,1962.8,1246.2,12.0,-73.0,-43.0,-8847.0,-7769.0,7117.0,8898.0,589.0,-185.0,-198.0,-6.0,-70.0,-42.0,-5634.0,-6160.0,7739.0,11783.0,396.0,49.0,-614.0,1.0
2022-05-13 12:57:09.450171-07:00,2164.6,593.1,2010.4,2036.4,1359.4,1365.7,1586.1,1890.9,3441.9,3444.3,2618.8,1881.1,1559.0,3441.9,1721.5,2159.5,3433.4,3439.5,715.9,1335.0,878.0,565.0,1455.2,1958.8,3439.5,3441.9,846.1,1007.3,1389.4,2199.3,1962.8,1248.0,-8.0,-125.0,-37.0,-8671.0,-7882.0,7219.0,8889.0,266.0,-166.0,-206.0,15.0,-113.0,-16.0,-5443.0,-6296.0,7731.0,11807.0,135.0,-22.0,-408.0,1.0
2022-05-13 12:57:09.491830-07:00,2164.6,600.4,1998.5,2027.4,1359.4,1365.7,1586.1,1872.3,3441.9,3439.5,2579.9,1871.3,1559.0,3441.9,1721.5,2152.4,3439.5,3439.5,715.9,1335.0,882.3,576.2,1454.3,1958.8,3443.1,3441.9,846.1,1007.3,1385.7,2188.1,1948.9,1248.0,-7.0,-136.0,-7.0,-8553.0,-7926.0,7269.0,8924.0,127.0,-113.0,-121.0,20.0,-114.0,-8.0,-5329.0,-6350.0,7718.0,11838.0,66.0,-59.0,-199.0,1.0
2022-05-13 12:57:09.536170-07:00,2159.5,600.4,1998.5,2027.4,1368.5,1344.0,1573.0,1872.3,3438.2,3439.5,2579.9,1871.3,1554.3,3432.2,1716.7,2152.4,3439.5,3439.5,711.8,1335.9,882.3,576.2,1454.3,1964.7,3443.1,3438.2,839.4,1003.0,1385.7,2188.1,1948.9,1243.5,-19.0,-121.0,2.0,-8499.0,-7937.0,7286.0,8950.0,59.0,-69.0,39.0,18.0,-80.0,1.0,-5281.0,-6355.0,7724.0,11853.0,92.0,-46.0,-15.0,1.0
2022-05-13 12:57:09.580935-07:00,2159.5,597.9,1974.6,2009.4,1368.5,1344.0,1573.0,1855.7,3438.2,3445.5,2570.2,1860.6,1554.3,3432.2,1716.7,2143.3,3441.9,3439.5,711.8,1335.9,877.2,570.6,1447.9,1964.7,3441.9,3438.2,839.4,1003.0,1393.9,2174.8,1940.0,1243.5,22.0,11.0,11.0,-8496.0,-7920.0,7329.0,8933.0,13.0,3.0,73.0,15.0,1.0,1.0,-5271.0,-6354.0,7764.0,11832.0,48.0,-4.0,55.0,1.0
2022-05-13 12:57:09.627136-07:00,2141.2,597.9,1974.6,2009.4,1352.1,1355.8,1557.1,1855.7,3440.7,3445.5,2570.2,1860.6,1559.9,3435.8,1692.9,2143.3,3441.9,3437.0,715.9,1352.1,877.2,570.6,1447.9,1958.8,3441.9,3445.5,836.9,1000.5,1393.9,2174.8,1940.0,1234.6,12.0,-23.0,-9.0,-8520.0,-7900.0,7321.0,8935.0,-37.0,-15.0,48.0,5.0,-12.0,0.0,-5296.0,-6337.0,7764.0,11830.0,3.0,-7.0,54.0,1.0
2022-05-13 12:57:09.720851-07:00,2141.2,591.5,1980.6,2008.4,1352.1,1355.8,1557.1,1849.8,3440.7,3444.3,2581.0,1861.5,1559.9,3435.8,1692.9,2143.3,3428.6,3437.0,715.9,1352.1,870.5,573.0,1456.2,1958.8,3444.3,3445.5,836.9,1000.5,1367.6,2172.8,1936.1,1234.6,-4.0,24.0,-19.0,-8530.0,-7881.0,7327.0,8938.0,-135.0,-23.0,-33.0,-6.0,0.0,0.0,-5307.0,-6316.0,7770.0,11833.0,-112.0,-44.0,45.0,1.0
2022-05-13 12:57:09.761845-07:00,2149.3,592.3,1980.6,2008.4,1350.3,1336.8,1552.5,1849.8,3439.5,3435.8,2581.0,1861.5,1563.7,3440.7,1696.7,2143.3,3428.6,3440.7,712.6,1344.0,870.5,573.0,1445.1,1962.8,3444.3,3450.4,832.7,1000.5,1367.6,2172.8,1921.3,1231.0,-16.0,-18.0,-5.0,-8540.0,-7852.0,7292.0,8982.0,-75.0,-33.0,-9.0,-18.0,-8.0,3.0,-5328.0,-6280.0,7746.0,11858.0,-55.0,-34.0,39.0,1.0
2022-05-13 12:57:09.806769-07:00,2149.3,592.3,1974.6,2003.5,1350.3,1336.8,1550.6,1828.4,3439.5,3435.8,2533.6,1861.5,1563.7,3440.7,1679.5,2134.1,3433.4,3449.1,712.6,1344.0,879.7,569.8,1445.1,1962.8,3438.2,3449.1,832.7,1000.5,1386.6,2173.8,1921.3,1231.0,-11.0,13.0,-4.0,-8547.0,-7841.0,7292.0,8985.0,13.0,12.0,20.0,-17.0,3.0,3.0,-5330.0,-6273.0,7755.0,11855.0,29.0,-5.0,18.0,1.0
2022-05-13 12:57:09.854109-07:00,2136.1,585.1,1974.6,2003.5,1342.2,1344.0,1550.6,1828.4,3437.0,3444.3,2533.6,1861.5,1557.1,3433.4,1679.5,2134.1,3433.4,3449.1,715.9,1338.6,879.7,569.8,1449.7,1950.9,3438.2,3449.1,834.4,1004.8,1386.6,2173.8,1909.5,1222.2,-3.0,7.0,-7.0,-8551.0,-7843.0,7297.0,8976.0,32.0,1.0,28.0,-3.0,-2.0,0.0,-5328.0,-6276.0,7764.0,11848.0,44.0,8.0,3.0,1.0
2022-05-13 12:57:09.897478-07:00,2136.1,585.1,1961.8,2007.4,1342.2,1344.0,1541.3,1829.4,3437.0,3444.3,2515.4,1853.7,1557.1,3433.4,1688.1,2136.1,3431.0,3439.5,715.9,1338.6,874.7,565.8,1449.7,1950.9,3439.5,3434.6,834.4,1004.8,1384.8,2158.5,1909.5,1222.2,4.0,-9.0,-19.0,-8547.0,-7847.0,7310.0,8965.0,37.0,-21.0,27.0,-5.0,-9.0,-3.0,-5320.0,-6283.0,7778.0,11839.0,54.0,2.0,-5.0,1.0
