Time,P0,P1,P2,P3,P4,P5,P6,P7,P8,P9,P10,P11,P12,P13,P14,P15,P16,P17,P18,P19,P20,P21,P22,P23,P24,P25,P26,P27,P28,P29,P30,P31,ECG,AX0,AY0,AZ0,QW0,QX0,QY0,QZ0,GX0,GY0,GZ0,AX1,AY1,AZ1,QW1,QX1,QY1,QZ1,GX1,GY1,GZ1
2022-05-13 11:58:27.068403-07:00,2208.6,640.8,1416.7,1639.8,1156.8,1290.9,1332.3,1514.3,3435.8,3434.6,1902.6,1611.5,1707.2,3438.2,1204.4,1740.6,3440.7,3435.8,727.4,1367.6,938.1,611.7,1588.9,2105.8,3445.5,3444.3,791.0,1047.0,1489.3,1829.4,1458.0,1177.9,-5.0,7.0,-5.0,-331.0,-307.0,13856.0,8732.0,15.0,10.0,8.0,3.0,6.0,0.0,-327.0,-1948.0,12151.0,10812.0,16.0,6.0,1.0,1.0
2022-05-13 11:58:27.113139-07:00,2208.6,640.8,1416.7,1639.8,1156.8,1301.6,1320.5,1516.2,3435.8,3434.6,1902.6,1617.1,1707.2,3433.4,1206.2,1743.5,3439.5,3427.4,725.8,1367.6,939.8,611.7,1588.9,2105.8,3443.1,3449.1,786.9,1047.0,1489.3,1829.4,1458.0,1177.9,-2.0,6.0,-1.0,-331.0,-307.0,13857.0,8730.0,-16.0,-3.0,-3.0,5.0,5.0,4.0,-327.0,-1948.0,12151.0,10812.0,-14.0,-1.0,0.0,1.0
2022-05-13 11:58:27.157752-07:00,2207.5,634.3,1422.2,1637.9,1149.8,1301.6,1320.5,1516.2,3435.8,3439.5,1909.5,1620.9,1704.3,3433.4,1206.2,1743.5,3439.5,3427.4,725.8,1365.7,944.1,610.8,1588.0,2113.9,3443.1,3449.1,786.9,1041.8,1486.6,1833.3,1462.6,1182.3,-5.0,7.0,5.0,-331.0,-307.0,13856.0,8732.0,8.0,-4.0,6.0,4.0,3.0,7.0,-327.0,-1948.0,12151.0,10812.0,4.0,-5.0,-1.0,1.0
2022-05-13 11:58:27.203215-07:00,2207.5,634.3,1422.2,1637.9,1158.6,1291.8,1328.7,1519.0,3435.8,3439.5,1909.5,1620.9,1703.3,3444.3,1217.7,1741.6,3440.7,3434.6,721.6,1366.6,944.1,610.8,1588.0,2113.9,3444.3,3446.7,786.9,1044.4,1486.6,1833.3,1462.6,1182.3,-6.0,13.0,3.0,-333.0,-304.0,13856.0,8732.0,-5.0,3.0,7.0,4.0,5.0,5.0,-327.0,-1948.0,12151.0,10812.0,-3.0,-2.0,-2.0,1.0
2022-05-13 11:58:27.247920-07:00,2213.7,640.8,1411.3,1632.2,1158.6,1291.8,1328.7,1519.0,3449.1,3439.5,1907.5,1618.1,1703.3,3444.3,1217.7,1741.6,3440.7,3434.6,721.6,1366.6,939.0,607.6,1588.9,2106.8,3444.3,3446.7,786.9,1044.4,1481.0,1838.2,1467.2,1180.6,-3.0,8.0,0.0,-333.0,-304.0,13856.0,8732.0,0.0,-5.0,-2.0,5.0,5.0,2.0,-327.0,-1948.0,12151.0,10812.0,3.0,-2.0,-5.0,1.0
2022-05-13 11:58:27.291627-07:00,2213.7,640.8,1411.3,1632.2,1145.4,1299.8,1329.6,1518.0,3449.1,3439.5,1907.5,1618.1,1703.3,3440.7,1209.7,1742.6,3435.8,3449.1,727.4,1364.8,939.0,607.6,1588.9,2106.8,3439.5,3443.1,779.4,1044.4,1481.0,1838.2,1467.2,1180.6,-8.0,8.0,0.0,-333.0,-303.0,13856.0,8732.0,7.0,-11.0,7.0,0.0,4.0,7.0,-327.0,-1948.0,12151.0,10812.0,4.0,-7.0,1.0,1.0
2022-05-13 11:58:27.338294-07:00,2207.5,633.5,1419.5,1636.9,1145.4,1299.8,1329.6,1518.0,3435.8,3452.8,1906.6,1614.3,1703.3,3440.7,1209.7,1742.6,3435.8,3449.1,727.4,1364.8,939.8,612.5,1600.2,2114.9,3439.5,3443.1,779.4,1044.4,1493.0,1826.5,1464.4,1177.0,-5.0,8.0,1.0,-331.0,-302.0,13856.0,8732.0,-6.0,-2.0,5.0,4.0,6.0,7.0,-327.0,-1948.0,12151.0,10812.0,-2.0,-8.0,0.0,1.0
2022-05-13 11:58:27.383725-07:00,2222.9,633.5,1419.5,1636.9,1163.0,1295.4,1316.9,1513.4,3438.2,3452.8,1906.6,1614.3,1691.9,3444.3,1209.7,1746.4,3435.8,3434.6,725.8,1369.4,939.8,612.5,1600.2,2111.8,3435.8,3449.1,788.6,1043.5,1493.0,1826.5,1464.4,1173.5,-4.0,12.0,4.0,-327.0,-300.0,13856.0,8732.0,5.0,-11.0,-1.0,5.0,7.0,5.0,-327.0,-1948.0,12151.0,10812.0,-4.0,-7.0,-2.0,1.0
2022-05-13 11:58:27.518228-07:00,2222.9,631.1,1412.2,1632.2,1163.0,1295.4,1316.9,1512.5,3438.2,3446.7,1899.7,1615.2,1691.9,3444.3,1209.7,1737.8,3439.5,3434.6,725.8,1369.4,941.5,608.4,1590.8,2111.8,3437.0,3449.1,788.6,1043.5,1494.0,1834.3,1470.0,1173.5,-3.0,9.0,6.0,-326.0,-299.0,13856.0,8732.0,-2.0,0.0,-1.0,7.0,6.0,9.0,-327.0,-1948.0,12151.0,10812.0,2.0,-2.0,-4.0,1.0
2022-05-13 11:58:27.654304-07:00,2211.6,631.1,1412.2,1632.2,1157.7,1290.0,1322.3,1512.5,3435.8,3446.7,1899.7,1615.2,1703.3,3434.6,1208.9,1737.8,3439.5,3437.0,722.5,1371.2,941.5,608.4,1590.8,2108.8,3437.0,3428.6,785.2,1039.2,1494.0,1834.3,1470.0,1178.8,-5.0,8.0,1.0,-325.0,-299.0,13858.0,8729.0,11.0,3.0,3.0,2.0,6.0,5.0,-327.0,-1948.0,12151.0,10812.0,4.0,2.0,-5.0,1.0
2022-05-13 11:58:27.699449-07:00,2211.6,627.0,1414.9,1632.2,1157.7,1290.0,1322.3,1518.0,3435.8,3441.9,1899.7,1617.1,1703.3,3434.6,1208.9,1739.7,3433.4,3437.0,722.5,1371.2,942.4,613.3,1589.9,2108.8,3440.7,3428.6,785.2,1039.2,1462.6,1849.8,1470.9,1178.8,-4.0,10.0,0.0,-325.0,-299.0,13858.0,8729.0,6.0,-7.0,-1.0,4.0,6.0,4.0,-327.0,-1948.0,12151.0,10812.0,1.0,0.0,-5.0,1.0
2022-05-13 11:58:27.744490-07:00,2219.8,627.0,1414.9,1632.2,1155.0,1289.1,1317.8,1518.0,3445.5,3441.9,1899.7,1617.1,1708.1,3444.3,1210.6,1739.7,3433.4,3441.9,724.9,1361.2,942.4,613.3,1589.9,2106.8,3440.7,3450.4,788.6,1054.8,1462.6,1849.8,1470.9,1173.5,-6.0,7.0,8.0,-325.0,-299.0,13858.0,8729.0,-1.0,4.0,0.0,3.0,4.0,7.0,-327.0,-1948.0,12151.0,10812.0,1.0,4.0,-5.0,1.0
2022-05-13 11:58:27.789705-07:00,2219.8,630.3,1413.1,1643.5,1155.0,1289.1,1317.8,1508.8,3445.5,3434.6,1901.6,1607.7,1708.1,3444.3,1210.6,1739.7,3435.8,3441.9,724.9,1361.2,937.3,612.5,1590.8,2106.8,3438.2,3450.4,788.6,1054.8,1491.2,1837.2,1471.8,1173.5,-7.0,9.0,2.0,-331.0,-302.0,13861.0,8724.0,19.0,12.0,8.0,4.0,5.0,5.0,-327.0,-1949.0,12153.0,10809.0,18.0,9.0,3.0,1.0
2022-05-13 11:58:27.879004-07:00,2208.6,627.0,1413.1,1643.5,1161.2,1290.9,1326.8,1508.8,3440.7,3444.3,1901.6,1607.7,1704.3,3443.1,1211.5,1739.7,3435.8,3439.5,718.4,1364.8,937.3,612.5,1586.1,2110.8,3438.2,3444.3,791.9,1041.8,1491.2,1837.2,1459.8,1177.9,-4.0,6.0,-2.0,-331.0,-302.0,13861.0,8724.0,-11.0,-5.0,-1.0,4.0,5.0,1.0,-328.0,-1949.0,12154.0,10808.0,-6.0,-1.0,-1.0,1.0
2022-05-13 11:58:27.880296-07:00,2208.6,627.0,1418.6,1638.8,1161.2,1290.9,1316.0,1509.7,3440.7,3444.3,1903.6,1619.0,1704.3,3443.1,1206.2,1736.8,3439.5,3438.2,718.4,1364.8,939.8,609.2,1586.1,2110.8,3438.2,3449.1,791.9,1041.8,1486.6,1827.5,1459.8,1177.9,-3.0,7.0,1.0,-326.0,-298.0,13859.0,8727.0,-11.0,-18.0,10.0,9.0,3.0,2.0,-328.0,-1949.0,12152.0,10810.0,-6.0,-9.0,-1.0,1.0
2022-05-13 11:58:27.881688-07:00,2218.8,640.0,1418.6,1638.8,1148.0,1297.2,1316.0,1509.7,3423.7,3437.0,1903.6,1619.0,1708.1,3428.6,1206.2,1736.8,3439.5,3438.2,724.9,1373.9,939.8,609.2,1585.2,2104.8,3438.2,3449.1,790.2,1046.1,1486.6,1827.5,1460.8,1180.6,-3.0,9.0,6.0,-325.0,-295.0,13858.0,8729.0,-2.0,-4.0,2.0,6.0,3.0,8.0,-327.0,-1948.0,12152.0,10811.0,-6.0,-4.0,-1.0,1.0
2022-05-13 11:58:27.882706-07:00,2218.8,640.0,1415.8,1635.0,1148.0,1297.2,1325.0,1508.8,3423.7,3437.0,1899.7,1607.7,1708.1,3428.6,1208.0,1739.7,3435.8,3439.5,724.9,1373.9,939.0,610.8,1585.2,2104.8,3441.9,3446.7,790.2,1046.1,1488.4,1835.2,1460.8,1180.6,-7.0,12.0,5.0,-325.0,-295.0,13858.0,8729.0,-3.0,-8.0,-3.0,4.0,4.0,9.0,-327.0,-1948.0,12152.0,10811.0,2.0,3.0,-5.0,1.0
2022-05-13 11:58:27.923963-07:00,2208.6,631.9,1415.8,1635.0,1153.3,1284.6,1325.0,1508.8,3433.4,3441.9,1899.7,1607.7,1704.3,3441.9,1208.0,1739.7,3435.8,3439.5,722.5,1370.3,939.0,610.8,1604.9,2100.7,3441.9,3446.7,784.4,1043.5,1488.4,1835.2,1458.9,1166.5,-8.0,10.0,5.0,-327.0,-296.0,13858.0,8729.0,4.0,12.0,-7.0,0.0,2.0,9.0,-327.0,-1948.0,12152.0,10811.0,1.0,8.0,-8.0,1.0
2022-05-13 11:58:27.969163-07:00,2208.6,631.9,1426.8,1633.1,1153.3,1282.8,1315.1,1503.2,3433.4,3441.9,1899.7,1618.1,1704.3,3435.8,1209.7,1738.7,3429.8,3438.2,718.4,1370.3,937.3,606.0,1604.9,2100.7,3443.1,3445.5,785.2,1043.5,1489.3,1826.5,1458.9,1166.5,-6.0,7.0,1.0,-327.0,-297.0,13859.0,8728.0,8.0,6.0,-10.0,2.0,4.0,1.0,-327.0,-1948.0,12152.0,10811.0,5.0,7.0,-9.0,1.0
2022-05-13 11:58:28.058457-07:00,2215.7,630.3,1415.8,1633.1,1148.9,1282.8,1315.1,1503.2,3451.6,3431.0,1899.7,1618.1,1694.8,3435.8,1209.7,1738.7,3429.8,3438.2,718.4,1364.8,937.3,610.8,1583.3,2115.9,3443.1,3445.5,785.2,1041.8,1489.3,1826.5,1462.6,1182.3,-5.0,6.0,3.0,-327.0,-299.0,13859.0,8728.0,1.0,4.0,3.0,1.0,4.0,3.0,-328.0,-1949.0,12152.0,10811.0,5.0,8.0,-2.0,1.0
2022-05-13 11:58:28.059612-07:00,2215.7,630.3,1415.8,1636.9,1148.9,1286.4,1321.4,1507.8,3451.6,3431.0,1899.7,1612.4,1694.8,3438.2,1202.7,1738.7,3431.0,3434.6,721.6,1364.8,932.2,610.8,1583.3,2115.9,3441.9,3439.5,786.9,1041.8,1484.7,1826.5,1462.6,1182.3,-3.0,8.0,5.0,-327.0,-299.0,13859.0,8728.0,-4.0,-5.0,5.0,4.0,1.0,1.0,-328.0,-1949.0,12152.0,10811.0,-4.0,-5.0,1.0,1.0
2022-05-13 11:58:28.148514-07:00,2203.4,640.8,1409.4,1636.9,1151.5,1286.4,1321.4,1507.8,3438.2,3435.8,1893.8,1612.4,1704.3,3438.2,1202.7,1738.7,3431.0,3434.6,721.6,1360.3,932.2,609.2,1581.4,2104.8,3441.9,3439.5,786.9,1041.8,1484.7,1828.4,1467.2,1179.7,-5.0,9.0,3.0,-326.0,-298.0,13859.0,8728.0,-9.0,-15.0,2.0,1.0,6.0,4.0,-328.0,-1949.0,12152.0,10811.0,-7.0,-9.0,0.0,1.0
2022-05-13 11:58:28.149839-07:00,2203.4,640.8,1409.4,1635.0,1151.5,1283.7,1326.8,1506.9,3438.2,3435.8,1893.8,1611.5,1704.3,3437.0,1208.0,1736.8,3441.9,3434.6,720.8,1360.3,941.5,609.2,1581.4,2104.8,3443.1,3439.5,787.7,1041.8,1484.7,1828.4,1467.2,1179.7,-4.0,6.0,9.0,-321.0,-295.0,13859.0,8728.0,-8.0,-9.0,0.0,4.0,1.0,7.0,-326.0,-1947.0,12152.0,10811.0,-7.0,-6.0,-3.0,1.0
2022-05-13 11:58:28.194195-07:00,2200.4,637.6,1407.6,1635.0,1150.6,1283.7,1326.8,1506.9,3449.1,3428.6,1895.8,1611.5,1705.3,3437.0,1208.0,1736.8,3441.9,3434.6,720.8,1363.9,941.5,614.1,1588.9,2100.7,3443.1,3439.5,787.7,1034.9,1484.7,1834.3,1462.6,1177.9,-7.0,7.0,9.0,-322.0,-295.0,13857.0,8730.0,4.0,11.0,-1.0,3.0,1.0,10.0,-327.0,-1947.0,12149.0,10814.0,-1.0,6.0,-5.0,1.0
2022-05-13 11:58:28.239223-07:00,2200.4,637.6,1407.6,1639.8,1155.0,1293.6,1316.9,1506.9,3449.1,3428.6,1895.8,1614.3,1699.5,3451.6,1200.9,1735.8,3435.8,3440.7,727.4,1360.3,934.7,614.1,1588.9,2100.7,3428.6,3435.8,785.2,1038.3,1493.0,1834.3,1462.6,1177.9,-4.0,9.0,7.0,-322.0,-296.0,13859.0,8728.0,1.0,1.0,-5.0,1.0,1.0,9.0,-327.0,-1947.0,12149.0,10814.0,-2.0,4.0,-5.0,1.0
2022-05-13 11:58:28.329279-07:00,2200.4,633.5,1409.4,1640.7,1155.0,1293.6,1316.9,1506.9,3443.1,3443.1,1897.7,1610.5,1699.5,3451.6,1200.9,1735.8,3435.8,3440.7,727.4,1360.3,939.8,607.6,1579.6,2109.8,3428.6,3435.8,785.2,1038.3,1487.5,1821.6,1465.4,1173.5,-5.0,5.0,5.0,-323.0,-296.0,13858.0,8728.0,1.0,16.0,-2.0,4.0,6.0,5.0,-327.0,-1948.0,12149.0,10814.0,3.0,3.0,-5.0,1.0
2022-05-13 11:58:28.332211-07:00,2200.4,633.5,1409.4,1640.7,1158.6,1293.6,1319.6,1512.5,3443.1,3443.1,1897.7,1610.5,1699.5,3445.5,1202.7,1732.0,3441.9,3434.6,719.2,1360.3,939.8,607.6,1579.6,2109.8,3443.1,3451.6,791.9,1034.9,1487.5,1821.6,1465.4,1173.5,-5.0,10.0,0.0,-325.0,-298.0,13858.0,8728.0,1.0,-16.0,5.0,2.0,5.0,5.0,-327.0,-1948.0,12149.0,10814.0,0.0,-3.0,-2.0,1.0
2022-05-13 11:58:28.420034-07:00,2208.6,635.1,1407.6,1624.7,1158.6,1293.6,1319.6,1512.5,3444.3,3435.8,1900.7,1606.8,1699.5,3445.5,1202.7,1732.0,3441.9,3434.6,719.2,1360.3,935.6,613.3,1586.1,2127.0,3443.1,3451.6,791.9,1034.9,1479.2,1823.6,1466.3,1184.1,-7.0,9.0,5.0,-321.0,-295.0,13857.0,8731.0,-15.0,-6.0,2.0,3.0,5.0,9.0,-326.0,-1946.0,12146.0,10817.0,-11.0,-9.0,-1.0,1.0
2022-05-13 11:58:28.463533-07:00,2208.6,635.1,1407.6,1624.7,1154.2,1290.0,1316.9,1510.6,3444.3,3435.8,1900.7,1606.8,1691.0,3441.9,1209.7,1738.7,3433.4,3438.2,722.5,1368.5,935.6,613.3,1586.1,2127.0,3433.4,3445.5,789.4,1040.9,1479.2,1823.6,1466.3,1184.1,-6.0,15.0,7.0,-318.0,-293.0,13856.0,8733.0,4.0,-17.0,7.0,3.0,5.0,11.0,-326.0,-1946.0,12146.0,10817.0,5.0,-9.0,0.0,1.0
2022-05-13 11:58:28.507780-07:00,2211.6,630.3,1413.1,1637.9,1154.2,1290.0,1316.9,1499.5,3446.7,3445.5,1895.8,1612.4,1691.0,3441.9,1209.7,1731.1,3435.8,3438.2,722.5,1368.5,939.8,610.8,1583.3,2108.8,3439.5,3445.5,789.4,1040.9,1488.4,1834.3,1466.3,1171.8,-6.0,6.0,9.0,-317.0,-292.0,13855.0,8735.0,-12.0,-1.0,1.0,3.0,4.0,11.0,-326.0,-1946.0,12145.0,10818.0,-9.0,-2.0,-3.0,1.0
2022-05-13 11:58:28.644300-07:00,2206.5,630.3,1413.1,1637.9,1148.9,1299.8,1325.0,1499.5,3435.8,3445.5,1895.8,1612.4,1702.4,3444.3,1207.1,1731.1,3435.8,3440.7,718.4,1368.5,939.8,610.8,1583.3,2104.8,3439.5,3446.7,790.2,1040.9,1488.4,1834.3,1466.3,1173.5,-10.0,8.0,6.0,-317.0,-292.0,13855.0,8734.0,11.0,1.0,5.0,1.0,3.0,12.0,-326.0,-1946.0,12145.0,10819.0,9.0,6.0,-3.0,1.0
2022-05-13 11:58:28.689913-07:00,2206.5,627.0,1421.3,1638.8,1148.9,1299.8,1325.0,1515.3,3435.8,3441.9,1896.7,1607.7,1702.4,3444.3,1207.1,1733.9,3434.6,3440.7,718.4,1368.5,938.1,611.7,1582.4,2104.8,3435.8,3446.7,790.2,1040.9,1485.6,1823.6,1474.6,1173.5,-11.0,9.0,3.0,-317.0,-292.0,13856.0,8733.0,2.0,4.0,-8.0,1.0,2.0,9.0,-326.0,-1946.0,12145.0,10819.0,4.0,7.0,-6.0,1.0
2022-05-13 11:58:28.691784-07:00,2208.6,627.0,1421.3,1638.8,1153.3,1290.0,1322.3,1515.3,3435.8,3441.9,1896.7,1607.7,1691.9,3444.3,1212.4,1733.9,3434.6,3446.7,725.8,1360.3,938.1,611.7,1582.4,2097.7,3435.8,3449.1,788.6,1042.6,1485.6,1823.6,1474.6,1174.4,-5.0,5.0,4.0,-317.0,-292.0,13856.0,8733.0,-3.0,3.0,0.0,2.0,2.0,6.0,-326.0,-1946.0,12145.0,10819.0,-4.0,1.0,-2.0,1.0
2022-05-13 11:58:28.692867-07:00,2208.6,640.8,1406.7,1629.4,1153.3,1290.0,1322.3,1513.4,3435.8,3449.1,1890.9,1610.5,1691.9,3444.3,1212.4,1733.9,3433.4,3446.7,725.8,1360.3,939.0,601.2,1586.1,2097.7,3440.7,3449.1,788.6,1042.6,1489.3,1828.4,1460.8,1174.4,-7.0,11.0,6.0,-316.0,-292.0,13856.0,8733.0,-1.0,-7.0,3.0,0.0,3.0,9.0,-326.0,-1946.0,12145.0,10819.0,0.0,-3.0,-1.0,1.0
2022-05-13 11:58:28.780114-07:00,2201.4,637.6,1406.7,1629.4,1146.3,1292.7,1318.7,1513.4,3443.1,3450.4,1890.9,1610.5,1693.8,3445.5,1205.3,1733.9,3433.4,3439.5,722.5,1375.7,939.0,601.2,1577.7,2102.7,3440.7,3441.9,790.2,1037.5,1489.3,1828.4,1460.8,1175.3,-7.0,8.0,7.0,-316.0,-292.0,13856.0,8733.0,1.0,2.0,0.0,0.0,5.0,10.0,-326.0,-1946.0,12145.0,10819.0,0.0,-3.0,-1.0,1.0
2022-05-13 11:58:28.782078-07:00,2201.4,637.6,1405.8,1644.5,1146.3,1292.7,1309.7,1510.6,3443.1,3450.4,1897.7,1613.4,1693.8,3445.5,1202.7,1737.8,3432.2,3443.1,722.5,1375.7,938.1,614.9,1577.7,2102.7,3445.5,3443.1,790.2,1037.5,1496.7,1825.5,1460.8,1175.3,-5.0,9.0,6.0,-316.0,-292.0,13857.0,8732.0,6.0,-3.0,9.0,4.0,3.0,8.0,-326.0,-1946.0,12145.0,10819.0,4.0,-5.0,1.0,1.0
2022-05-13 11:58:28.824769-07:00,2201.4,635.1,1405.8,1644.5,1148.0,1281.0,1309.7,1510.6,3440.7,3445.5,1897.7,1613.4,1699.5,3443.1,1202.7,1737.8,3432.2,3443.1,718.4,1363.0,938.1,614.9,1582.4,2099.7,3445.5,3443.1,791.0,1042.6,1496.7,1825.5,1462.6,1168.2,-6.0,11.0,5.0,-317.0,-291.0,13856.0,8732.0,-8.0,6.0,2.0,3.0,5.0,10.0,-327.0,-1946.0,12144.0,10820.0,-5.0,-1.0,-1.0,1.0
2022-05-13 11:58:28.913394-07:00,2201.4,635.1,1405.8,1637.9,1148.0,1281.0,1323.2,1494.0,3440.7,3445.5,1901.6,1610.5,1699.5,3443.1,1206.2,1729.1,3433.4,3433.4,718.4,1363.0,943.2,616.5,1582.4,2099.7,3449.1,3434.6,791.0,1042.6,1484.7,1821.6,1462.6,1168.2,-8.0,12.0,12.0,-315.0,-290.0,13859.0,8729.0,14.0,-4.0,-6.0,2.0,4.0,8.0,-326.0,-1946.0,12145.0,10818.0,11.0,3.0,-6.0,1.0
2022-05-13 11:58:28.959128-07:00,2202.4,630.3,1405.8,1637.9,1147.1,1290.9,1323.2,1494.0,3435.8,3438.2,1901.6,1610.5,1696.7,3444.3,1206.2,1729.1,3433.4,3433.4,724.9,1363.9,943.2,616.5,1577.7,2098.7,3449.1,3434.6,785.2,1039.2,1484.7,1821.6,1470.9,1172.6,-7.0,4.0,1.0,-318.0,-292.0,13859.0,8729.0,2.0,8.0,7.0,1.0,2.0,5.0,-326.0,-1946.0,12146.0,10817.0,5.0,3.0,0.0,1.0
2022-05-13 11:58:29.004104-07:00,2202.4,630.3,1414.9,1636.9,1147.1,1290.9,1316.9,1506.0,3435.8,3438.2,1896.7,1610.5,1696.7,3444.3,1202.7,1750.2,3445.5,3446.7,724.9,1363.9,936.4,610.0,1577.7,2098.7,3439.5,3450.4,785.2,1039.2,1491.2,1829.4,1470.9,1172.6,-8.0,15.0,5.0,-319.0,-290.0,13859.0,8728.0,1.0,-3.0,-2.0,0.0,4.0,7.0,-326.0,-1946.0,12146.0,10817.0,-4.0,-1.0,-5.0,1.0
2022-05-13 11:58:29.048420-07:00,2200.4,625.4,1406.7,1636.9,1151.5,1289.1,1316.9,1506.0,3443.1,3451.6,1897.7,1610.5,1699.5,3437.0,1202.7,1750.2,3445.5,3446.7,724.1,1362.1,936.4,611.7,1575.8,2096.7,3439.5,3450.4,780.3,1042.6,1491.2,1826.5,1462.6,1177.9,-5.0,4.0,6.0,-319.0,-290.0,13858.0,8729.0,-4.0,0.0,3.0,1.0,2.0,6.0,-326.0,-1946.0,12146.0,10817.0,-2.0,-1.0,-3.0,1.0
2022-05-13 11:58:29.139601-07:00,2200.4,625.4,1406.7,1651.1,1151.5,1279.2,1316.9,1504.1,3443.1,3451.6,1897.7,1610.5,1699.5,3440.7,1203.5,1735.8,3439.5,3439.5,721.6,1362.1,935.6,611.7,1575.8,2096.7,3437.0,3449.1,784.4,1042.6,1485.6,1826.5,1462.6,1177.9,-6.0,15.0,6.0,-320.0,-288.0,13858.0,8729.0,3.0,5.0,9.0,3.0,6.0,10.0,-326.0,-1946.0,12146.0,10817.0,3.0,-1.0,3.0,1.0
2022-05-13 11:58:29.228785-07:00,2205.5,637.6,1410.3,1651.1,1147.1,1279.2,1316.9,1504.1,3441.9,3441.9,1888.9,1610.5,1698.6,3440.7,1203.5,1735.8,3439.5,3439.5,721.6,1365.7,935.6,606.8,1581.4,2105.8,3437.0,3449.1,784.4,1042.6,1485.6,1826.5,1460.8,1169.1,-6.0,8.0,6.0,-320.0,-288.0,13858.0,8729.0,5.0,-4.0,-1.0,4.0,4.0,5.0,-326.0,-1946.0,12146.0,10817.0,8.0,6.0,-4.0,1.0
2022-05-13 11:58:29.230613-07:00,2205.5,637.6,1410.3,1638.8,1147.1,1287.3,1316.0,1500.4,3441.9,3441.9,1888.9,1608.7,1698.6,3439.5,1197.4,1730.1,3438.2,3429.8,720.0,1365.7,933.9,606.8,1581.4,2105.8,3449.1,3444.3,786.9,1042.6,1488.4,1826.5,1460.8,1169.1,-6.0,9.0,4.0,-320.0,-288.0,13858.0,8729.0,0.0,0.0,4.0,1.0,3.0,6.0,-326.0,-1946.0,12146.0,10817.0,-3.0,-5.0,-4.0,1.0
2022-05-13 11:58:29.231659-07:00,2195.2,641.6,1410.3,1638.8,1142.7,1287.3,1316.0,1500.4,3446.7,3441.9,1893.8,1608.7,1695.7,3439.5,1197.4,1730.1,3438.2,3429.8,720.0,1360.3,933.9,613.3,1576.8,2104.8,3449.1,3444.3,786.9,1042.6,1488.4,1826.5,1463.5,1171.8,-9.0,7.0,5.0,-320.0,-288.0,13858.0,8729.0,-3.0,-5.0,-1.0,0.0,2.0,9.0,-326.0,-1946.0,12146.0,10817.0,-1.0,-4.0,-2.0,1.0
2022-05-13 11:58:29.274962-07:00,2195.2,641.6,1410.3,1629.4,1150.6,1289.1,1312.4,1500.4,3446.7,3441.9,1893.8,1612.4,1698.6,3435.8,1200.0,1735.8,3434.6,3429.8,720.8,1366.6,936.4,613.3,1576.8,2104.8,3439.5,3437.0,786.9,1037.5,1489.3,1826.5,1463.5,1171.8,-6.0,14.0,12.0,-320.0,-288.0,13858.0,8729.0,-3.0,6.0,7.0,3.0,5.0,9.0,-326.0,-1946.0,12146.0,10817.0,-3.0,1.0,-1.0,1.0
2022-05-13 11:58:29.363232-07:00,2217.8,634.3,1403.0,1626.5,1150.6,1289.1,1312.4,1500.4,3450.4,3431.0,1892.8,1614.3,1698.6,3435.8,1200.0,1735.8,3434.6,3429.8,720.8,1366.6,941.5,615.7,1582.4,2101.7,3439.5,3437.0,786.9,1037.5,1485.6,1819.7,1458.0,1174.4,-5.0,10.0,8.0,-321.0,-289.0,13858.0,8729.0,6.0,7.0,-3.0,2.0,5.0,7.0,-326.0,-1946.0,12146.0,10817.0,1.0,4.0,-4.0,1.0
2022-05-13 11:58:29.409422-07:00,2217.8,634.3,1403.0,1626.5,1153.3,1293.6,1313.3,1497.7,3450.4,3431.0,1892.8,1614.3,1693.8,3438.2,1202.7,1733.9,3439.5,3441.9,719.2,1368.5,941.5,615.7,1582.4,2101.7,3443.1,3449.1,784.4,1042.6,1485.6,1819.7,1458.0,1174.4,-8.0,8.0,4.0,-326.0,-292.0,13859.0,8728.0,4.0,11.0,2.0,0.0,8.0,6.0,-328.0,-1948.0,12146.0,10817.0,3.0,4.0,-2.0,1.0
2022-05-13 11:58:29.454063-07:00,2208.6,625.4,1414.0,1634.1,1153.3,1293.6,1313.3,1497.7,3444.3,3443.1,1886.9,1620.9,1693.8,3438.2,1202.7,1733.9,3439.5,3441.9,719.2,1368.5,938.1,609.2,1582.4,2103.7,3443.1,3449.1,784.4,1042.6,1484.7,1824.6,1459.8,1167.4,-5.0,10.0,-1.0,-326.0,-292.0,13859.0,8728.0,4.0,-9.0,1.0,1.0,6.0,2.0,-328.0,-1948.0,12147.0,10816.0,4.0,-2.0,1.0,1.0
2022-05-13 11:58:29.589938-07:00,2208.6,625.4,1414.0,1634.1,1144.5,1278.3,1325.0,1499.5,3444.3,3443.1,1886.9,1620.9,1694.8,3435.8,1204.4,1733.9,3443.1,3441.9,722.5,1364.8,938.1,609.2,1582.4,2103.7,3443.1,3449.1,778.6,1041.8,1484.7,1824.6,1459.8,1167.4,-8.0,7.0,8.0,-323.0,-290.0,13857.0,8730.0,-11.0,-13.0,6.0,1.0,4.0,13.0,-327.0,-1947.0,12146.0,10817.0,-9.0,-13.0,0.0,1.0
2022-05-13 11:58:29.592224-07:00,2201.4,627.0,1408.5,1633.1,1144.5,1278.3,1325.0,1499.5,3449.1,3438.2,1901.6,1614.3,1694.8,3435.8,1204.4,1733.9,3443.1,3441.9,722.5,1364.8,940.7,614.9,1572.1,2105.8,3443.1,3449.1,778.6,1041.8,1489.3,1826.5,1461.7,1172.6,-8.0,13.0,9.0,-327.0,-285.0,13858.0,8729.0,17.0,0.0,12.0,1.0,7.0,7.0,-325.0,-1946.0,12146.0,10817.0,7.0,-1.0,3.0,1.0
2022-05-13 11:58:29.593301-07:00,2192.2,627.0,1408.5,1633.1,1152.4,1285.5,1313.3,1503.2,3439.5,3438.2,1901.6,1614.3,1696.7,3438.2,1201.8,1724.4,3441.9,3451.6,722.5,1366.6,940.7,614.9,1572.1,2099.7,3445.5,3455.2,791.9,1040.9,1489.3,1826.5,1461.7,1173.5,-5.0,13.0,7.0,-327.0,-285.0,13859.0,8729.0,-11.0,-8.0,-6.0,2.0,2.0,8.0,-325.0,-1946.0,12148.0,10816.0,-4.0,2.0,-3.0,1.0
2022-05-13 11:58:29.769271-07:00,2192.2,625.4,1405.8,1642.6,1152.4,1285.5,1313.3,1506.0,3439.5,3441.9,1887.9,1608.7,1696.7,3438.2,1201.8,1726.3,3426.2,3451.6,722.5,1366.6,938.1,611.7,1578.6,2099.7,3438.2,3455.2,791.9,1040.9,1491.2,1823.6,1455.2,1173.5,-6.0,9.0,8.0,-327.0,-285.0,13858.0,8729.0,9.0,9.0,10.0,0.0,5.0,3.0,-325.0,-1946.0,12148.0,10816.0,6.0,-1.0,-1.0,1.0
2022-05-13 11:58:29.812893-07:00,2200.4,625.4,1405.8,1642.6,1152.4,1278.3,1317.8,1506.0,3449.1,3441.9,1887.9,1608.7,1693.8,3445.5,1200.9,1726.3,3426.2,3439.5,721.6,1360.3,938.1,611.7,1578.6,2101.7,3438.2,3440.7,781.9,1033.2,1491.2,1823.6,1455.2,1174.4,-5.0,-6.0,-32.0,-333.0,-286.0,13854.0,8736.0,-17.0,2.0,17.0,-6.0,4.0,-3.0,-325.0,-1946.0,12147.0,10816.0,-7.0,-7.0,4.0,1.0
2022-05-13 11:58:29.904244-07:00,2200.4,634.3,1409.4,1642.6,1152.4,1278.3,1317.8,1496.7,3449.1,3443.1,1892.8,1604.0,1693.8,3445.5,1200.9,1741.6,3433.4,3439.5,721.6,1360.3,939.8,613.3,1580.5,2101.7,3440.7,3440.7,781.9,1033.2,1487.5,1823.6,1458.9,1174.4,-12.0,33.0,14.0,-344.0,-282.0,13833.0,8768.0,-180.0,20.0,24.0,-5.0,29.0,-27.0,-325.0,-1940.0,12139.0,10826.0,-48.0,-10.0,21.0,1.0
2022-05-13 11:58:29.905511-07:00,2205.5,634.3,1409.4,1642.6,1150.6,1325.0,1318.7,1496.7,3440.7,3443.1,1892.8,1604.0,1697.6,3446.7,1246.2,1741.6,3433.4,3435.8,725.8,1366.6,939.8,613.3,1580.5,2098.7,3440.7,3435.8,786.9,1060.8,1487.5,1823.6,1458.9,1172.6,-57.0,48.0,-34.0,-404.0,-346.0,13692.0,8983.0,-878.0,297.0,-189.0,-102.0,29.0,-51.0,-326.0,-1939.0,12112.0,10857.0,-170.0,-21.0,0.0,1.0
2022-05-13 11:58:29.906780-07:00,2205.5,623.0,1410.3,1634.1,1150.6,1325.0,1418.6,1660.6,3440.7,3445.5,2296.2,1730.1,1697.6,3446.7,1604.9,1859.6,3427.4,3444.3,725.8,1366.6,934.7,610.8,1623.7,2098.7,3426.2,3443.1,786.9,1060.8,1486.6,1852.8,1486.6,1172.6,-51.0,27.0,-158.0,-517.0,-525.0,13432.0,9352.0,-654.0,597.0,-121.0,-133.0,142.0,-155.0,-287.0,-1910.0,12059.0,10922.0,217.0,-274.0,-234.0,1.0
2022-05-13 11:58:29.907814-07:00,2233.2,647.3,1410.3,1634.1,1152.4,1417.6,1418.6,1660.6,3439.5,3440.7,2296.2,1730.1,1736.8,3443.1,1604.9,1859.6,3427.4,3444.3,728.2,1372.1,934.7,610.8,1729.1,2161.6,3426.2,3443.1,847.8,1155.9,1486.6,1852.8,1493.0,1176.2,-9.0,51.0,-283.0,-768.0,-600.0,13560.0,9143.0,1070.0,337.0,371.0,16.0,64.0,-26.0,-37.0,-1950.0,12238.0,10718.0,1059.0,-364.0,-527.0,1.0
2022-05-13 11:58:29.993654-07:00,2233.2,647.3,1412.2,1630.3,1152.4,1417.6,1545.9,1940.0,3439.5,3440.7,2690.8,1901.6,1736.8,3443.1,1680.5,1958.8,3438.2,3441.9,728.2,1372.1,941.5,609.2,1729.1,2161.6,3451.6,3444.3,847.8,1155.9,1490.3,1840.1,1493.0,1176.2,-135.0,-62.0,-168.0,-630.0,-332.0,13790.0,8818.0,776.0,-1008.0,502.0,-154.0,-46.0,-52.0,344.0,-1983.0,12484.0,10419.0,938.0,-609.0,-583.0,1.0
2022-05-13 11:58:29.994827-07:00,2247.6,640.0,1412.2,1630.3,1148.9,1425.9,1545.9,1940.0,3434.6,3440.7,2690.8,1901.6,1763.7,3439.5,1680.5,1958.8,3438.2,3441.9,721.6,1358.5,941.5,609.2,1740.6,2164.6,3451.6,3444.3,854.5,1187.6,1490.3,1840.1,1481.9,1172.6,-144.0,-300.0,-35.0,-468.0,230.0,14124.0,8287.0,2122.0,-894.0,1348.0,-143.0,-153.0,42.0,717.0,-1934.0,12855.0,9946.0,2107.0,-544.0,-308.0,1.0
2022-05-13 11:58:30.082880-07:00,2247.6,640.0,1406.7,1636.0,1148.9,1425.9,1492.1,1853.7,3434.6,3440.7,2679.9,1909.5,1763.7,3439.5,1624.7,1926.2,3432.2,3439.5,721.6,1358.5,937.3,612.5,1740.6,2164.6,3444.3,3450.4,854.5,1187.6,1490.3,1836.2,1481.9,1172.6,-14.0,-70.0,12.0,-524.0,1078.0,14652.0,7233.0,2831.0,-893.0,1969.0,-47.0,-73.0,14.0,1046.0,-1796.0,13512.0,9030.0,2879.0,-422.0,-15.0,1.0
2022-05-13 11:58:30.084248-07:00,2231.1,633.5,1406.7,1636.0,1146.3,1451.6,1492.1,1853.7,3428.6,3439.5,2679.9,1909.5,1764.6,3449.1,1624.7,1926.2,3432.2,3439.5,728.2,1378.5,937.3,612.5,1725.3,2143.3,3444.3,3450.4,831.1,1214.2,1490.3,1836.2,1459.8,1165.6,-15.0,125.0,86.0,-665.0,1736.0,15000.0,6324.0,2295.0,-628.0,1705.0,29.0,18.0,95.0,1259.0,-1588.0,14119.0,8060.0,2309.0,-235.0,232.0,1.0
2022-05-13 11:58:30.129084-07:00,2231.1,633.5,1399.4,1635.0,1146.3,1503.2,1434.1,1758.9,3428.6,3439.5,2590.7,1865.4,1764.6,3443.1,1552.5,1875.2,3443.1,3437.0,730.7,1378.5,942.4,613.3,1725.3,2143.3,3449.1,3446.7,820.2,1214.2,1491.2,1821.6,1459.8,1165.6,103.0,185.0,148.0,-735.0,2275.0,15205.0,5614.0,879.0,-215.0,436.0,90.0,32.0,25.0,1289.0,-1416.0,14413.0,7552.0,944.0,-23.0,277.0,1.0
2022-05-13 11:58:30.219158-07:00,2209.6,632.7,1407.6,1635.0,1144.5,1503.2,1434.1,1758.9,3450.4,3433.4,2566.9,1865.4,1745.4,3443.1,1552.5,1875.2,3443.1,3437.0,730.7,1371.2,942.4,613.3,1746.4,2135.1,3449.1,3446.7,820.2,1257.8,1491.2,1811.0,1453.4,1171.8,87.0,29.0,62.0,-847.0,2350.0,15282.0,5354.0,520.0,362.0,288.0,122.0,49.0,45.0,1250.0,-1306.0,14554.0,7304.0,604.0,74.0,218.0,1.0
2022-05-13 11:58:30.264024-07:00,2209.6,632.7,1407.6,1629.4,1144.5,1526.4,1413.1,1706.2,3450.4,3433.4,2566.9,1852.8,1745.4,3440.7,1534.8,1852.8,3433.4,3433.4,726.6,1371.2,942.4,613.3,1746.4,2135.1,3438.2,3434.6,815.2,1257.8,1491.2,1811.0,1453.4,1171.8,84.0,99.0,16.0,-1002.0,2491.0,15326.0,5132.0,380.0,-57.0,512.0,100.0,50.0,23.0,1215.0,-1223.0,14674.0,7080.0,509.0,13.0,176.0,1.0
2022-05-13 11:58:30.353321-07:00,2211.6,631.1,1405.8,1629.4,1148.0,1526.4,1413.1,1706.2,3441.9,3440.7,2540.1,1852.8,1747.3,3440.7,1534.8,1852.8,3433.4,3433.4,726.6,1375.7,942.4,615.7,1765.6,2131.1,3438.2,3434.6,815.2,1276.5,1491.2,1810.0,1446.0,1166.5,50.0,75.0,97.0,-1075.0,2662.0,15337.0,4998.0,345.0,50.0,261.0,67.0,21.0,26.0,1201.0,-1168.0,14766.0,6900.0,424.0,55.0,78.0,1.0
2022-05-13 11:58:30.444041-07:00,2211.6,631.1,1405.8,1628.4,1148.0,1533.8,1397.6,1697.6,3441.9,3440.7,2540.1,1831.3,1747.3,3428.6,1494.9,1834.3,3438.2,3428.6,724.1,1375.7,940.7,615.7,1765.6,2131.1,3443.1,3441.9,808.5,1276.5,1483.8,1810.0,1446.0,1166.5,19.0,24.0,64.0,-1217.0,2708.0,15355.0,4883.0,347.0,404.0,153.0,53.0,-26.0,49.0,1147.0,-1153.0,14835.0,6760.0,395.0,142.0,32.0,1.0
2022-05-13 11:58:30.446401-07:00,2202.4,631.1,1406.7,1635.0,1143.6,1533.8,1397.6,1697.6,3435.8,3433.4,2514.3,1818.7,1737.8,3428.6,1494.9,1834.3,3438.2,3428.6,724.1,1371.2,943.2,615.7,1761.8,2133.1,3443.1,3441.9,808.5,1277.4,1484.7,1812.9,1445.1,1177.0,11.0,32.0,-10.0,-1413.0,2715.0,15393.0,4702.0,685.0,180.0,203.0,48.0,11.0,22.0,1096.0,-1165.0,14949.0,6512.0,711.0,179.0,-22.0,1.0
2022-05-13 11:58:30.447575-07:00,2202.4,631.1,1406.7,1635.0,1148.9,1540.3,1388.5,1690.0,3435.8,3433.4,2514.3,1818.7,1741.6,3439.5,1481.0,1819.7,3438.2,3431.0,724.9,1387.5,943.2,615.7,1761.8,2133.1,3438.2,3444.3,801.0,1275.6,1484.7,1812.9,1445.1,1177.0,21.0,12.0,-28.0,-1537.0,2755.0,15455.0,4431.0,649.0,100.0,194.0,26.0,1.0,-18.0,1065.0,-1186.0,15058.0,6256.0,608.0,121.0,-47.0,1.0
2022-05-13 11:58:30.489014-07:00,2207.5,620.5,1415.8,1619.0,1148.9,1540.3,1388.5,1690.0,3446.7,3434.6,2506.9,1812.9,1741.6,3439.5,1481.0,1819.7,3438.2,3431.0,724.9,1387.5,937.3,614.1,1744.5,2116.9,3438.2,3444.3,801.0,1275.6,1479.2,1816.8,1444.2,1172.6,12.0,69.0,-38.0,-1630.0,2811.0,15514.0,4148.0,581.0,-36.0,204.0,18.0,31.0,-18.0,1069.0,-1202.0,15159.0,6006.0,562.0,23.0,-58.0,1.0
2022-05-13 11:58:30.533723-07:00,2207.5,620.5,1415.8,1619.0,1146.3,1528.3,1393.0,1681.4,3446.7,3434.6,2506.9,1812.9,1739.7,3433.4,1470.0,1806.1,3438.2,3438.2,729.9,1390.3,937.3,614.1,1744.5,2116.9,3454.0,3433.4,813.5,1269.4,1479.2,1816.8,1444.2,1172.6,4.0,79.0,9.0,-1670.0,2840.0,15551.0,3967.0,230.0,101.0,24.0,11.0,21.0,7.0,1090.0,-1211.0,15224.0,5833.0,347.0,-26.0,-70.0,1.0
2022-05-13 11:58:30.623486-07:00,2191.2,631.9,1433.2,1633.1,1146.3,1528.3,1393.0,1681.4,3440.7,3437.0,2485.5,1811.0,1739.7,3433.4,1470.0,1806.1,3438.2,3438.2,729.9,1390.3,941.5,610.0,1731.1,2124.0,3454.0,3433.4,813.5,1269.4,1483.8,1802.3,1447.9,1174.4,19.0,21.0,27.0,-1737.0,2822.0,15561.0,3914.0,117.0,272.0,2.0,20.0,-12.0,-6.0,1109.0,-1222.0,15250.0,5758.0,128.0,-13.0,-39.0,1.0
2022-05-13 11:58:30.625516-07:00,2178.9,631.9,1433.2,1633.1,1148.0,1526.4,1404.9,1700.5,3443.1,3437.0,2485.5,1811.0,1741.6,3439.5,1461.7,1808.1,3433.4,3440.7,728.2,1370.3,941.5,610.0,1731.1,2138.2,3439.5,3438.2,813.5,1265.8,1483.8,1802.3,1447.9,1178.8,-1.0,52.0,3.0,-1858.0,2787.0,15557.0,3897.0,7.0,231.0,-76.0,22.0,5.0,4.0,1127.0,-1218.0,15262.0,5723.0,30.0,-51.0,-9.0,1.0
2022-05-13 11:58:30.668596-07:00,2178.9,627.8,1455.2,1636.9,1148.0,1526.4,1404.9,1779.1,3443.1,3437.0,2460.0,1809.0,1741.6,3439.5,1461.7,1807.1,3440.7,3440.7,728.2,1370.3,942.4,613.3,1725.3,2138.2,3439.5,3438.2,813.5,1265.8,1486.6,1847.9,1477.3,1178.8,0.0,13.0,32.0,-1917.0,2711.0,15537.0,4001.0,-413.0,183.0,-201.0,17.0,-17.0,24.0,1135.0,-1216.0,15234.0,5797.0,-261.0,-42.0,0.0,1.0
2022-05-13 11:58:30.803488-07:00,2177.9,627.8,1455.2,1636.9,1146.3,1545.9,1446.0,1779.1,3440.7,3437.0,2460.0,1809.0,1744.5,3437.0,1474.6,1807.1,3440.7,3432.2,724.1,1367.6,942.4,613.3,1725.3,2168.7,3439.5,3435.8,830.2,1252.4,1486.6,1847.9,1477.3,1196.5,24.0,46.0,-2.0,-1978.0,2653.0,15514.0,4100.0,-45.0,148.0,16.0,18.0,17.0,-5.0,1140.0,-1223.0,15228.0,5810.0,23.0,0.0,-28.0,1.0
2022-05-13 11:58:30.804901-07:00,2177.9,621.4,1498.6,1650.2,1146.3,1545.9,1446.0,1840.1,3440.7,3446.7,2479.1,1816.8,1744.5,3437.0,1474.6,1801.3,3435.8,3432.2,724.1,1367.6,935.6,618.1,1701.4,2168.7,3438.2,3435.8,830.2,1252.4,1489.3,1904.6,1552.5,1196.5,15.0,30.0,-6.0,-2026.0,2642.0,15497.0,4146.0,-114.0,67.0,-33.0,18.0,7.0,-19.0,1144.0,-1232.0,15223.0,5820.0,-40.0,-20.0,-17.0,1.0
2022-05-13 11:58:30.848918-07:00,2187.1,621.4,1498.6,1650.2,1157.7,1569.3,1438.7,1840.1,3438.2,3446.7,2479.1,1816.8,1744.5,3428.6,1467.2,1801.3,3435.8,3440.7,725.8,1369.4,935.6,618.1,1701.4,2172.8,3438.2,3450.4,841.9,1261.3,1489.3,1904.6,1552.5,1205.3,-18.0,58.0,-24.0,-2039.0,2622.0,15488.0,4185.0,-22.0,4.0,-52.0,1.0,22.0,12.0,1162.0,-1238.0,15220.0,5824.0,25.0,-50.0,-49.0,1.0
2022-05-13 11:58:30.984066-07:00,2187.1,624.6,1484.7,1644.5,1157.7,1569.3,1438.7,1821.6,3438.2,3447.9,2481.3,1813.9,1744.5,3428.6,1467.2,1799.4,3437.0,3440.7,725.8,1369.4,939.8,614.9,1692.9,2172.8,3444.3,3450.4,841.9,1261.3,1484.7,1929.2,1575.8,1205.3,-3.0,76.0,-45.0,-2016.0,2593.0,15498.0,4177.0,142.0,-33.0,-86.0,-17.0,41.0,-24.0,1200.0,-1255.0,15229.0,5788.0,122.0,-76.0,-91.0,1.0
2022-05-13 11:58:31.074331-07:00,2183.0,632.7,1484.7,1644.5,1152.4,1572.1,1454.3,1821.6,3443.1,3447.9,2481.3,1813.9,1742.6,3443.1,1455.2,1799.4,3437.0,3434.6,725.8,1370.3,939.8,614.9,1695.7,2178.9,3444.3,3443.1,841.9,1253.3,1484.7,1929.2,1572.1,1204.4,-11.0,65.0,-62.0,-1979.0,2555.0,15521.0,4134.0,110.0,-94.0,-71.0,-24.0,49.0,-15.0,1264.0,-1286.0,15234.0,5755.0,106.0,-120.0,-137.0,1.0
2022-05-13 11:58:31.120810-07:00,2183.0,632.7,1491.2,1638.8,1152.4,1572.1,1445.1,1823.6,3443.1,3447.9,2467.4,1811.9,1742.6,3443.1,1456.2,1801.3,3432.2,3440.7,725.8,1370.3,941.5,608.4,1695.7,2178.9,3441.9,3443.1,841.9,1253.3,1484.7,1917.4,1572.1,1204.4,-10.0,75.0,-63.0,-1886.0,2549.0,15540.0,4110.0,37.0,-227.0,-16.0,-29.0,42.0,-32.0,1353.0,-1320.0,15230.0,5736.0,26.0,-169.0,-154.0,1.0
2022-05-13 11:58:31.122746-07:00,2188.1,620.5,1491.2,1638.8,1152.4,1571.1,1445.1,1823.6,3444.3,3433.4,2467.4,1811.9,1749.3,3439.5,1456.2,1801.3,3432.2,3440.7,720.8,1370.3,941.5,608.4,1683.3,2160.5,3441.9,3443.1,829.4,1251.5,1484.7,1917.4,1554.3,1220.4,0.0,40.0,-63.0,-1772.0,2542.0,15546.0,4143.0,-117.0,-179.0,-105.0,-22.0,26.0,-39.0,1464.0,-1359.0,15208.0,5758.0,-72.0,-242.0,-187.0,1.0
2022-05-13 11:58:31.123841-07:00,2188.1,620.5,1490.3,1647.3,1152.4,1571.1,1441.5,1799.4,3444.3,3433.4,2469.5,1811.0,1749.3,3439.5,1449.7,1796.5,3439.5,3439.5,720.8,1370.3,944.9,612.5,1683.3,2160.5,3437.0,3441.9,829.4,1251.5,1488.4,1908.5,1554.3,1220.4,-15.0,12.0,-31.0,-1665.0,2510.0,15554.0,4175.0,-113.0,-192.0,-156.0,-10.0,4.0,-12.0,1610.0,-1398.0,15183.0,5777.0,-25.0,-309.0,-205.0,1.0
2022-05-13 11:58:31.163326-07:00,2174.8,623.8,1490.3,1647.3,1148.0,1559.0,1441.5,1799.4,3438.2,3441.9,2469.5,1811.0,1751.2,3440.7,1449.7,1796.5,3439.5,3439.5,726.6,1377.5,944.9,612.5,1675.7,2149.3,3437.0,3441.9,834.4,1243.5,1488.4,1908.5,1561.8,1201.8,-11.0,-4.0,4.0,-1550.0,2501.0,15570.0,4166.0,46.0,-259.0,-46.0,0.0,-14.0,-2.0,1772.0,-1433.0,15169.0,5758.0,84.0,-321.0,-218.0,1.0
2022-05-13 11:58:31.164577-07:00,2174.8,623.8,1485.6,1634.1,1148.0,1563.7,1461.7,1811.0,3438.2,3441.9,2451.5,1802.3,1751.2,3439.5,1452.5,1797.4,3438.2,3433.4,730.7,1377.5,939.8,613.3,1675.7,2149.3,3449.1,3441.9,837.7,1243.5,1486.6,1904.6,1561.8,1201.8,5.0,13.0,24.0,-1458.0,2509.0,15588.0,4126.0,89.0,-209.0,-25.0,13.0,-7.0,8.0,1933.0,-1462.0,15160.0,5721.0,84.0,-320.0,-192.0,1.0
2022-05-13 11:58:31.254405-07:00,2179.9,626.2,1480.1,1634.1,1145.4,1563.7,1461.7,1811.0,3449.1,3446.7,2443.0,1802.3,1741.6,3439.5,1452.5,1797.4,3438.2,3433.4,730.7,1373.9,939.8,607.6,1671.9,2159.5,3449.1,3441.9,837.7,1244.4,1486.6,1886.0,1548.7,1215.1,-13.0,-3.0,27.0,-1397.0,2516.0,15593.0,4126.0,-79.0,-93.0,-23.0,21.0,-26.0,23.0,2083.0,-1489.0,15143.0,5707.0,12.0,-293.0,-184.0,1.0
2022-05-13 11:58:31.299952-07:00,2179.9,626.2,1480.1,1638.8,1145.4,1543.1,1468.1,1811.0,3449.1,3446.7,2443.0,1807.1,1741.6,3438.2,1441.5,1796.5,3434.6,3432.2,727.4,1373.9,940.7,607.6,1671.9,2159.5,3443.1,3435.8,827.7,1244.4,1477.3,1886.0,1548.7,1215.1,-33.0,-2.0,51.0,-1330.0,2504.0,15592.0,4159.0,-116.0,-181.0,-115.0,14.0,-28.0,44.0,2217.0,-1515.0,15117.0,5719.0,-70.0,-252.0,-155.0,1.0
2022-05-13 11:58:31.344150-07:00,2173.8,626.2,1470.0,1638.8,1146.3,1543.1,1468.1,1811.0,3447.9,3441.9,2432.4,1807.1,1737.8,3438.2,1441.5,1796.5,3434.6,3432.2,727.4,1382.1,940.7,612.5,1672.9,2154.4,3443.1,3435.8,827.7,1243.5,1477.3,1879.1,1551.5,1205.3,-32.0,-35.0,49.0,-1236.0,2478.0,15592.0,4203.0,-94.0,-164.0,-96.0,26.0,-53.0,49.0,2315.0,-1536.0,15092.0,5741.0,-16.0,-184.0,-92.0,1.0
2022-05-13 11:58:31.389075-07:00,2173.8,626.2,1470.0,1640.7,1146.3,1545.0,1465.4,1827.5,3447.9,3441.9,2432.4,1801.3,1737.8,3443.1,1442.4,1806.1,3439.5,3433.4,726.6,1382.1,938.1,612.5,1672.9,2154.4,3441.9,3443.1,835.2,1243.5,1484.7,1879.1,1551.5,1205.3,-20.0,-27.0,40.0,-1179.0,2466.0,15597.0,4205.0,21.0,-47.0,-37.0,12.0,-43.0,27.0,2379.0,-1538.0,15084.0,5734.0,54.0,-107.0,-33.0,1.0
2022-05-13 11:58:31.434178-07:00,2178.9,630.3,1481.9,1640.7,1146.3,1545.0,1465.4,1827.5,3440.7,3437.0,2420.8,1801.3,1731.1,3443.1,1442.4,1806.1,3439.5,3433.4,726.6,1384.8,938.1,611.7,1656.8,2154.4,3441.9,3443.1,835.2,1239.9,1484.7,1883.0,1538.5,1212.4,-10.0,-11.0,25.0,-1175.0,2482.0,15607.0,4162.0,157.0,-52.0,109.0,26.0,-32.0,30.0,2416.0,-1523.0,15098.0,5686.0,179.0,-59.0,-8.0,1.0
2022-05-13 11:58:31.478132-07:00,2178.9,630.3,1481.9,1651.1,1148.0,1558.1,1479.2,1811.0,3440.7,3437.0,2420.8,1799.4,1725.3,3439.5,1438.7,1782.9,3437.0,3438.2,728.2,1380.3,938.1,611.7,1656.8,2154.4,3437.0,3449.1,826.9,1225.7,1482.9,1883.0,1538.5,1212.4,8.0,19.0,14.0,-1161.0,2532.0,15620.0,4086.0,148.0,-121.0,86.0,28.0,-6.0,15.0,2441.0,-1503.0,15120.0,5622.0,121.0,-62.0,3.0,1.0
2022-05-13 11:58:31.523784-07:00,2158.5,614.1,1481.9,1636.9,1148.0,1558.1,1479.2,1811.0,3441.9,3443.1,2426.1,1798.4,1725.3,3439.5,1438.7,1782.9,3437.0,3438.2,728.2,1380.3,942.4,612.5,1665.3,2142.2,3437.0,3449.1,826.9,1225.7,1485.6,1882.0,1541.3,1205.3,-12.0,31.0,15.0,-1129.0,2561.0,15627.0,4050.0,48.0,-95.0,26.0,10.0,0.0,16.0,2469.0,-1487.0,15131.0,5584.0,72.0,-64.0,-16.0,1.0
2022-05-13 11:58:31.568338-07:00,2158.5,614.1,1481.9,1636.9,1152.4,1545.0,1465.4,1802.3,3441.9,3443.1,2426.1,1798.4,1734.9,3449.1,1441.5,1786.8,3434.6,3435.8,715.9,1383.0,942.4,612.5,1665.3,2142.2,3449.1,3438.2,826.0,1240.8,1485.6,1882.0,1541.3,1205.3,-10.0,33.0,18.0,-1084.0,2566.0,15625.0,4066.0,-20.0,-57.0,-11.0,0.0,6.0,18.0,2490.0,-1483.0,15130.0,5579.0,7.0,-30.0,-11.0,1.0
2022-05-13 11:58:31.658653-07:00,2172.8,632.7,1473.6,1641.6,1152.4,1545.0,1465.4,1802.3,3437.0,3449.1,2418.7,1806.1,1734.9,3449.1,1441.5,1786.8,3434.6,3435.8,715.9,1383.0,937.3,609.2,1659.6,2142.2,3449.1,3438.2,826.0,1240.8,1488.4,1891.8,1533.8,1200.0,-16.0,24.0,-1.0,-1081.0,2554.0,15622.0,4085.0,28.0,37.0,-10.0,-2.0,11.0,8.0,2500.0,-1478.0,15131.0,5573.0,50.0,-10.0,-6.0,1.0
2022-05-13 11:58:31.748692-07:00,2172.8,632.7,1473.6,1641.6,1147.1,1529.2,1455.2,1799.4,3437.0,3449.1,2418.7,1806.1,1729.1,3433.4,1432.3,1788.7,3449.1,3439.5,720.8,1378.5,937.3,609.2,1659.6,2142.2,3450.4,3439.5,821.9,1234.6,1488.4,1891.8,1533.8,1200.0,-26.0,36.0,-7.0,-1087.0,2550.0,15624.0,4080.0,35.0,11.0,20.0,0.0,13.0,21.0,2502.0,-1475.0,15134.0,5565.0,6.0,2.0,3.0,1.0
2022-05-13 11:58:31.750011-07:00,2170.7,618.9,1473.6,1642.6,1147.1,1529.2,1455.2,1792.6,3428.6,3441.9,2408.1,1799.4,1729.1,3433.4,1432.3,1783.9,3432.2,3439.5,720.8,1378.5,938.1,611.7,1658.7,2142.2,3441.9,3439.5,821.9,1234.6,1478.3,1893.8,1545.0,1209.7,-1.0,20.0,-14.0,-1079.0,2556.0,15623.0,4084.0,-2.0,6.0,8.0,0.0,6.0,-3.0,2501.0,-1476.0,15133.0,5568.0,-1.0,-1.0,0.0,1.0
2022-05-13 11:58:31.794584-07:00,2159.5,618.9,1473.6,1642.6,1147.1,1535.7,1460.8,1792.6,3444.3,3441.9,2408.1,1799.4,1731.1,3449.1,1425.9,1783.9,3432.2,3441.9,726.6,1383.0,938.1,611.7,1658.7,2142.2,3441.9,3446.7,826.9,1235.5,1478.3,1893.8,1545.0,1206.2,-11.0,19.0,-1.0,-1071.0,2554.0,15621.0,4092.0,-25.0,-12.0,-11.0,0.0,-6.0,3.0,2501.0,-1478.0,15129.0,5577.0,-25.0,-1.0,-11.0,1.0
2022-05-13 11:58:31.839287-07:00,2159.5,627.8,1479.2,1629.4,1147.1,1535.7,1460.8,1780.1,3444.3,3443.1,2407.1,1791.6,1731.1,3449.1,1425.9,1786.8,3433.4,3441.9,726.6,1383.0,939.0,614.1,1649.2,2142.2,3445.5,3446.7,826.9,1235.5,1482.9,1874.2,1532.0,1206.2,-21.0,7.0,0.0,-1062.0,2544.0,15619.0,4108.0,-41.0,-19.0,-20.0,0.0,-10.0,18.0,2503.0,-1481.0,15124.0,5590.0,-46.0,-4.0,5.0,1.0
2022-05-13 11:58:31.883527-07:00,2161.6,627.8,1479.2,1629.4,1154.2,1531.0,1465.4,1780.1,3433.4,3443.1,2407.1,1791.6,1723.4,3450.4,1436.0,1786.8,3433.4,3440.7,729.0,1373.9,939.0,614.1,1649.2,2142.2,3445.5,3444.3,820.2,1208.0,1482.9,1874.2,1532.0,1208.0,-6.0,3.0,7.0,-1056.0,2537.0,15615.0,4129.0,-40.0,37.0,-21.0,6.0,-14.0,13.0,2500.0,-1477.0,15122.0,5598.0,4.0,7.0,16.0,1.0
2022-05-13 11:58:31.929312-07:00,2161.6,619.7,1472.7,1632.2,1154.2,1531.0,1465.4,1786.8,3433.4,3449.1,2406.0,1799.4,1723.4,3450.4,1436.0,1787.8,3440.7,3440.7,729.0,1373.9,933.0,610.0,1655.8,2142.2,3450.4,3444.3,820.2,1208.0,1481.0,1879.1,1538.5,1208.0,-3.0,4.0,6.0,-1072.0,2524.0,15612.0,4145.0,-21.0,65.0,-20.0,7.0,-7.0,4.0,2492.0,-1468.0,15124.0,5598.0,3.0,19.0,35.0,1.0
2022-05-13 11:58:32.023082-07:00,2164.6,627.0,1472.7,1632.2,1150.6,1527.3,1459.8,1786.8,3439.5,3440.7,2406.0,1799.4,1730.1,3440.7,1425.9,1787.8,3440.7,3428.6,724.9,1374.8,933.0,610.0,1648.3,2139.2,3450.4,3435.8,826.0,1246.2,1481.0,1879.1,1538.5,1202.7,-8.0,7.0,-1.0,-1084.0,2539.0,15608.0,4148.0,-6.0,-11.0,80.0,4.0,-2.0,9.0,2479.0,-1457.0,15126.0,5600.0,7.0,22.0,32.0,1.0
2022-05-13 11:58:32.024914-07:00,2164.6,627.0,1467.2,1642.6,1150.6,1527.3,1455.2,1774.3,3439.5,3440.7,2413.4,1793.6,1730.1,3440.7,1427.7,1788.7,3438.2,3441.9,724.9,1374.8,938.1,610.0,1648.3,2139.2,3450.4,3432.2,826.0,1246.2,1482.9,1877.2,1538.5,1202.7,-3.0,12.0,-2.0,-1089.0,2560.0,15605.0,4145.0,16.0,7.0,37.0,8.0,-3.0,6.0,2469.0,-1444.0,15131.0,5595.0,17.0,10.0,34.0,1.0
2022-05-13 11:58:32.108494-07:00,2166.7,623.8,1467.2,1642.6,1157.7,1525.5,1455.2,1774.3,3435.8,3437.0,2413.4,1793.6,1732.0,3441.9,1427.7,1788.7,3438.2,3441.9,723.3,1387.5,938.1,610.0,1639.8,2132.1,3450.4,3432.2,820.2,1224.8,1482.9,1877.2,1527.3,1196.5,-2.0,16.0,-2.0,-1097.0,2563.0,15603.0,4150.0,9.0,18.0,3.0,6.0,1.0,10.0,2460.0,-1434.0,15136.0,5589.0,30.0,20.0,21.0,1.0
2022-05-13 11:58:32.109672-07:00,2166.7,623.8,1466.3,1631.3,1157.7,1525.5,1459.8,1764.6,3435.8,3437.0,2407.1,1791.6,1732.0,3441.9,1425.9,1787.8,3432.2,3441.9,723.3,1387.5,937.3,609.2,1639.8,2132.1,3443.1,3432.2,820.2,1224.8,1483.8,1874.2,1527.3,1196.5,0.0,22.0,-1.0,-1093.0,2563.0,15603.0,4151.0,12.0,-7.0,-1.0,3.0,-1.0,4.0,2448.0,-1430.0,15141.0,5582.0,31.0,26.0,11.0,1.0
2022-05-13 11:58:32.242320-07:00,2163.6,616.5,1466.3,1631.3,1155.0,1532.0,1459.8,1764.6,3449.1,3449.1,2407.1,1791.6,1730.1,3452.8,1425.9,1787.8,3432.2,3441.9,724.1,1374.8,937.3,609.2,1642.6,2131.1,3443.1,3432.2,825.2,1224.8,1483.8,1874.2,1537.6,1196.5,-8.0,20.0,-9.0,-1100.0,2568.0,15607.0,4129.0,91.0,8.0,50.0,-6.0,15.0,2.0,2439.0,-1427.0,15150.0,5560.0,70.0,23.0,-7.0,1.0
2022-05-13 11:58:32.244025-07:00,2163.6,616.5,1466.3,1635.0,1155.0,1532.0,1455.2,1774.3,3449.1,3449.1,2403.9,1795.5,1730.1,3452.8,1427.7,1783.9,3441.9,3434.6,724.1,1374.8,939.0,614.9,1642.6,2131.1,3440.7,3438.2,825.2,1224.8,1485.6,1875.2,1537.6,1196.5,2.0,34.0,-21.0,-1105.0,2574.0,15615.0,4095.0,68.0,1.0,-9.0,-6.0,13.0,-10.0,2436.0,-1432.0,15161.0,5532.0,47.0,17.0,-18.0,1.0
2022-05-13 11:58:32.289218-07:00,2168.7,624.6,1458.0,1635.0,1151.5,1520.8,1455.2,1774.3,3449.1,3445.5,2387.1,1795.5,1726.3,3437.0,1427.7,1783.9,3441.9,3434.6,724.1,1377.5,939.0,609.2,1637.9,2110.8,3440.7,3438.2,817.7,1223.0,1485.6,1872.3,1528.3,1222.2,-10.0,11.0,-14.0,-1104.0,2560.0,15615.0,4101.0,-28.0,18.0,-39.0,-7.0,-5.0,-3.0,2434.0,-1442.0,15161.0,5530.0,-13.0,12.0,-14.0,1.0
2022-05-13 11:58:32.333892-07:00,2168.7,624.6,1458.0,1640.7,1151.5,1517.1,1447.0,1771.4,3449.1,3445.5,2387.1,1782.9,1726.3,3439.5,1425.9,1782.9,3434.6,3433.4,725.8,1377.5,939.0,609.2,1637.9,2110.8,3445.5,3444.3,811.0,1223.0,1482.9,1872.3,1528.3,1222.2,-7.0,-1.0,-7.0,-1100.0,2555.0,15615.0,4107.0,-6.0,2.0,12.0,-7.0,-9.0,-5.0,2434.0,-1444.0,15159.0,5535.0,6.0,5.0,8.0,1.0
2022-05-13 11:58:32.379626-07:00,2161.6,622.2,1459.8,1640.7,1143.6,1517.1,1447.0,1771.4,3433.4,3439.5,2395.5,1782.9,1727.2,3439.5,1425.9,1782.9,3434.6,3433.4,725.8,1381.2,939.0,604.4,1633.1,2129.0,3445.5,3444.3,811.0,1222.2,1482.9,1873.2,1521.8,1198.2,-17.0,7.0,1.0,-1100.0,2563.0,15614.0,4106.0,0.0,-13.0,18.0,0.0,-5.0,14.0,2433.0,-1438.0,15162.0,5527.0,10.0,4.0,24.0,1.0
2022-05-13 11:58:32.424343-07:00,2161.6,622.2,1459.8,1635.0,1143.6,1516.2,1443.3,1763.7,3433.4,3439.5,2395.5,1791.6,1727.2,3451.6,1420.4,1780.1,3443.1,3437.0,723.3,1381.2,939.0,604.4,1633.1,2129.0,3449.1,3435.8,821.0,1222.2,1485.6,1873.2,1521.8,1198.2,-1.0,12.0,-1.0,-1101.0,2576.0,15612.0,4106.0,-6.0,1.0,51.0,4.0,6.0,8.0,2429.0,-1426.0,15164.0,5528.0,10.0,1.0,27.0,1.0
2022-05-13 11:58:32.468966-07:00,2156.5,621.4,1470.9,1635.0,1146.3,1516.2,1443.3,1763.7,3447.9,3444.3,2388.1,1791.6,1723.4,3451.6,1420.4,1780.1,3443.1,3437.0,723.3,1374.8,939.0,610.8,1631.3,2133.1,3449.1,3435.8,821.0,1216.8,1485.6,1869.3,1529.2,1192.9,-1.0,21.0,1.0,-1105.0,2592.0,15609.0,4105.0,21.0,13.0,16.0,-1.0,3.0,2.0,2427.0,-1417.0,15167.0,5522.0,23.0,3.0,10.0,1.0
2022-05-13 11:58:32.559775-07:00,2156.5,621.4,1470.9,1648.3,1154.2,1516.2,1453.4,1760.8,3447.9,3444.3,2388.1,1785.8,1723.4,3435.8,1433.2,1777.2,3443.1,3432.2,725.8,1374.8,943.2,610.8,1631.3,2133.1,3450.4,3446.7,821.9,1216.8,1481.0,1869.3,1529.2,1192.9,-9.0,24.0,-9.0,-1117.0,2591.0,15611.0,4097.0,34.0,21.0,10.0,-7.0,12.0,3.0,2429.0,-1415.0,15172.0,5508.0,38.0,5.0,-6.0,1.0
2022-05-13 11:58:32.560946-07:00,2164.6,621.4,1458.9,1637.9,1154.2,1516.2,1453.4,1760.8,3439.5,3435.8,2391.3,1781.0,1723.4,3435.8,1433.2,1777.2,3443.1,3432.2,725.8,1374.8,935.6,610.0,1631.3,2131.1,3450.4,3446.7,821.9,1216.8,1485.6,1872.3,1527.3,1193.8,0.0,21.0,-25.0,-1125.0,2591.0,15613.0,4087.0,25.0,3.0,20.0,-1.0,15.0,-6.0,2432.0,-1411.0,15177.0,5494.0,30.0,-19.0,1.0,1.0
2022-05-13 11:58:32.649189-07:00,2164.6,621.4,1458.9,1637.9,1146.3,1520.8,1451.6,1769.5,3439.5,3435.8,2391.3,1781.0,1721.5,3437.0,1423.1,1781.0,3438.2,3431.0,717.5,1377.5,935.6,610.0,1631.3,2131.1,3435.8,3432.2,809.4,1221.3,1485.6,1872.3,1527.3,1193.8,-8.0,29.0,-14.0,-1110.0,2597.0,15611.0,4093.0,-32.0,-30.0,-8.0,-14.0,11.0,-4.0,2442.0,-1408.0,15176.0,5494.0,-16.0,-23.0,2.0,1.0
2022-05-13 11:58:32.693933-07:00,2147.3,614.1,1458.0,1624.7,1146.3,1520.8,1451.6,1769.5,3447.9,3444.3,2392.4,1779.1,1721.5,3437.0,1423.1,1781.0,3438.2,3431.0,717.5,1377.5,933.0,608.4,1634.1,2133.1,3435.8,3432.2,809.4,1221.3,1476.4,1864.5,1532.0,1201.8,-18.0,8.0,12.0,-1093.0,2599.0,15611.0,4098.0,0.0,-30.0,-10.0,-2.0,-10.0,12.0,2449.0,-1407.0,15172.0,5501.0,-12.0,-6.0,-5.0,1.0
2022-05-13 11:58:32.738852-07:00,2147.3,614.1,1458.0,1624.7,1137.5,1511.5,1440.5,1757.0,3447.9,3444.3,2392.4,1779.1,1717.7,3434.6,1423.1,1783.9,3440.7,3437.0,729.0,1377.5,933.0,608.4,1634.1,2133.1,3443.1,3440.7,821.9,1212.4,1476.4,1864.5,1532.0,1201.8,-40.0,-19.0,47.0,-1088.0,2586.0,15612.0,4101.0,-38.0,-7.0,-63.0,4.0,-48.0,49.0,2434.0,-1407.0,15171.0,5512.0,-62.0,62.0,39.0,1.0
2022-05-13 11:58:32.784294-07:00,2162.6,614.9,1456.2,1626.5,1137.5,1511.5,1440.5,1757.0,3435.8,3445.5,2402.9,1786.8,1717.7,3434.6,1423.1,1783.9,3440.7,3437.0,729.0,1377.5,941.5,606.0,1619.0,2122.0,3443.1,3440.7,821.9,1212.4,1485.6,1871.3,1526.4,1197.4,-31.0,-70.0,97.0,-1088.0,2551.0,15608.0,4139.0,-141.0,159.0,-54.0,21.0,-76.0,63.0,2360.0,-1390.0,15168.0,5555.0,-124.0,176.0,155.0,1.0
2022-05-13 11:58:32.829196-07:00,2157.5,614.9,1456.2,1626.5,1142.7,1521.8,1447.9,1757.9,3449.1,3445.5,2402.9,1786.8,1725.3,3446.7,1420.4,1782.0,3439.5,3441.9,726.6,1373.0,941.5,606.0,1619.0,2125.0,3433.4,3445.5,820.2,1217.7,1485.6,1871.3,1526.4,1193.8,-62.0,-84.0,111.0,-1179.0,2538.0,15588.0,4199.0,-34.0,308.0,116.0,11.0,-92.0,88.0,2211.0,-1342.0,15182.0,5590.0,-31.0,361.0,293.0,1.0
2022-05-13 11:58:32.874130-07:00,2157.5,618.1,1471.8,1627.5,1142.7,1521.8,1447.9,1746.4,3449.1,3441.9,2375.5,1781.0,1725.3,3446.7,1420.4,1781.0,3439.5,3441.9,726.6,1373.0,936.4,607.6,1619.9,2125.0,3446.7,3445.5,820.2,1217.7,1481.9,1868.4,1530.1,1193.8,5.0,-16.0,39.0,-1340.0,2562.0,15566.0,4217.0,45.0,429.0,190.0,20.0,-32.0,39.0,1989.0,-1273.0,15220.0,5587.0,45.0,465.0,341.0,1.0
2022-05-13 11:58:33.008737-07:00,2149.3,618.1,1471.8,1627.5,1154.2,1514.3,1440.5,1746.4,3438.2,3441.9,2375.5,1781.0,1711.0,3441.9,1421.3,1781.0,3439.5,3440.7,724.1,1369.4,936.4,607.6,1619.9,2113.9,3446.7,3440.7,819.4,1198.2,1481.9,1868.4,1530.1,1188.5,49.0,45.0,-45.0,-1502.0,2587.0,15542.0,4234.0,8.0,261.0,132.0,23.0,28.0,-17.0,1762.0,-1214.0,15253.0,5585.0,18.0,419.0,278.0,1.0
2022-05-13 11:58:33.010023-07:00,2149.3,614.1,1465.4,1636.0,1154.2,1514.3,1440.5,1735.8,3438.2,3447.9,2436.7,1782.9,1711.0,3441.9,1421.3,1782.9,3439.5,3440.7,724.1,1369.4,933.9,614.9,1628.4,2113.9,3439.5,3440.7,819.4,1198.2,1489.3,1886.9,1544.1,1188.5,37.0,93.0,-76.0,-1603.0,2621.0,15527.0,4231.0,51.0,114.0,109.0,7.0,69.0,-43.0,1592.0,-1185.0,15284.0,5558.0,57.0,313.0,144.0,1.0
2022-05-13 11:58:33.143306-07:00,2147.3,614.1,1465.4,1636.0,1146.3,1510.6,1415.8,1735.8,3440.7,3447.9,2436.7,1782.9,1723.4,3444.3,1446.0,1782.9,3439.5,3444.3,719.2,1375.7,933.9,614.9,1628.4,2137.2,3439.5,3433.4,815.2,1208.9,1489.3,1886.9,1544.1,1185.9,18.0,90.0,-65.0,-1659.0,2621.0,15517.0,4246.0,-102.0,162.0,-51.0,-21.0,66.0,-42.0,1478.0,-1182.0,15296.0,5558.0,-35.0,216.0,65.0,1.0
2022-05-13 11:58:33.234122-07:00,2147.3,622.2,1474.6,1633.1,1146.3,1510.6,1400.3,1722.4,3440.7,3440.7,2429.3,1779.1,1723.4,3444.3,1432.3,1787.8,3444.3,3449.1,719.2,1375.7,935.6,613.3,1627.5,2137.2,3449.1,3450.4,815.2,1208.9,1485.6,1890.9,1552.5,1185.9,11.0,13.0,-48.0,-1709.0,2579.0,15507.0,4289.0,22.0,155.0,-35.0,-24.0,24.0,-29.0,1396.0,-1189.0,15299.0,5568.0,9.0,168.0,47.0,1.0
2022-05-13 11:58:33.278445-07:00,2152.4,622.2,1474.6,1633.1,1140.1,1511.5,1400.3,1722.4,3443.1,3437.0,2429.3,1779.1,1711.9,3428.6,1432.3,1787.8,3444.3,3449.1,720.8,1368.5,935.6,613.3,1620.9,2124.0,3449.1,3450.4,825.2,1212.4,1485.6,1890.9,1552.5,1181.5,-10.0,5.0,-60.0,-1779.0,2556.0,15506.0,4278.0,42.0,94.0,4.0,-8.0,1.0,-18.0,1348.0,-1189.0,15309.0,5553.0,12.0,102.0,65.0,1.0
2022-05-13 11:58:33.279610-07:00,2152.4,622.2,1480.1,1625.6,1140.1,1511.5,1400.3,1712.9,3443.1,3437.0,2430.3,1787.8,1711.9,3428.6,1435.0,1784.9,3439.5,3441.9,720.8,1368.5,933.9,610.0,1620.9,2124.0,3444.3,3444.3,825.2,1212.4,1485.6,1896.7,1552.5,1181.5,28.0,10.0,-34.0,-1798.0,2560.0,15502.0,4281.0,-45.0,67.0,62.0,3.0,12.0,-43.0,1300.0,-1177.0,15314.0,5553.0,4.0,47.0,36.0,1.0
2022-05-13 11:58:33.280694-07:00,2151.4,623.0,1480.1,1625.6,1141.0,1514.3,1400.3,1712.9,3444.3,3444.3,2430.3,1787.8,1726.3,3450.4,1435.0,1784.9,3439.5,3441.9,724.9,1366.6,933.9,610.0,1627.5,2124.0,3444.3,3444.3,820.2,1202.7,1485.6,1896.7,1538.5,1177.9,-2.0,15.0,-16.0,-1810.0,2580.0,15493.0,4300.0,-63.0,-48.0,40.0,-1.0,5.0,-6.0,1288.0,-1166.0,15313.0,5562.0,-38.0,0.0,32.0,1.0
2022-05-13 11:58:33.369789-07:00,2151.4,623.0,1464.4,1624.7,1141.0,1514.3,1404.0,1711.0,3444.3,3444.3,2418.7,1775.2,1726.3,3450.4,1434.1,1787.8,3439.5,3438.2,724.9,1366.6,939.8,614.9,1627.5,2124.0,3441.9,3449.1,820.2,1202.7,1477.3,1884.0,1538.5,1177.9,-13.0,6.0,-13.0,-1803.0,2602.0,15485.0,4315.0,-15.0,-3.0,34.0,-8.0,-7.0,6.0,1285.0,-1157.0,15313.0,5565.0,7.0,-5.0,31.0,1.0
2022-05-13 11:58:33.371646-07:00,2152.4,618.1,1464.4,1624.7,1146.3,1506.9,1404.0,1711.0,3439.5,3444.3,2408.1,1775.2,1713.8,3449.1,1434.1,1787.8,3439.5,3438.2,718.4,1362.1,939.8,610.0,1622.8,2128.0,3441.9,3449.1,816.0,1195.6,1477.3,1877.2,1544.1,1183.2,-13.0,15.0,-1.0,-1806.0,2620.0,15482.0,4316.0,27.0,33.0,62.0,-9.0,0.0,2.0,1279.0,-1146.0,15316.0,5560.0,44.0,23.0,27.0,1.0
2022-05-13 11:58:33.372736-07:00,2152.4,618.1,1464.4,1627.5,1146.3,1507.8,1399.4,1710.0,3439.5,3444.3,2408.1,1768.5,1713.8,3438.2,1424.1,1782.0,3438.2,3429.8,721.6,1362.1,935.6,610.0,1622.8,2128.0,3437.0,3440.7,811.0,1195.6,1485.6,1877.2,1544.1,1183.2,-3.0,27.0,-9.0,-1825.0,2631.0,15483.0,4297.0,33.0,25.0,28.0,0.0,13.0,2.0,1271.0,-1137.0,15324.0,5540.0,34.0,14.0,21.0,1.0
2022-05-13 11:58:33.413487-07:00,2154.4,614.1,1463.5,1627.5,1140.1,1507.8,1399.4,1710.0,3444.3,3428.6,2403.9,1768.5,1723.4,3438.2,1424.1,1782.0,3438.2,3429.8,721.6,1367.6,935.6,612.5,1617.1,2126.0,3437.0,3440.7,811.0,1207.1,1485.6,1876.2,1537.6,1174.4,-8.0,14.0,-10.0,-1831.0,2638.0,15482.0,4294.0,-6.0,4.0,23.0,-4.0,3.0,-3.0,1262.0,-1129.0,15328.0,5534.0,-1.0,14.0,23.0,1.0
2022-05-13 11:58:33.502485-07:00,2154.4,614.1,1463.5,1627.5,1140.1,1507.8,1406.7,1702.4,3444.3,3428.6,2403.9,1780.1,1723.4,3437.0,1428.6,1780.1,3440.7,3439.5,727.4,1367.6,938.1,612.5,1617.1,2126.0,3444.3,3435.8,818.5,1207.1,1473.6,1876.2,1537.6,1174.4,-5.0,9.0,2.0,-1837.0,2650.0,15477.0,4302.0,-23.0,31.0,32.0,-1.0,-3.0,7.0,1255.0,-1122.0,15329.0,5535.0,4.0,24.0,17.0,1.0
2022-05-13 11:58:33.684955-07:00,2148.3,620.5,1461.7,1627.5,1141.9,1507.8,1406.7,1702.4,3438.2,3449.1,2411.3,1780.1,1722.4,3437.0,1428.6,1780.1,3440.7,3439.5,727.4,1367.6,938.1,614.9,1619.0,2122.0,3444.3,3435.8,818.5,1200.9,1473.6,1880.1,1534.8,1175.3,-10.0,12.0,-2.0,-1856.0,2654.0,15472.0,4309.0,-7.0,50.0,25.0,-3.0,6.0,9.0,1239.0,-1118.0,15330.0,5536.0,-15.0,45.0,33.0,1.0
2022-05-13 11:58:33.686120-07:00,2148.3,620.5,1461.7,1632.2,1141.9,1507.8,1397.6,1703.3,3438.2,3449.1,2411.3,1782.9,1722.4,3441.9,1425.9,1777.2,3440.7,3438.2,725.8,1367.6,935.6,614.9,1619.0,2122.0,3437.0,3439.5,815.2,1200.9,1483.8,1880.1,1534.8,1175.3,-10.0,6.0,5.0,-1881.0,2658.0,15464.0,4323.0,-46.0,69.0,16.0,-2.0,0.0,5.0,1211.0,-1110.0,15329.0,5546.0,-39.0,61.0,58.0,1.0
2022-05-13 11:58:33.688517-07:00,2141.2,616.5,1465.4,1631.3,1141.0,1507.8,1397.6,1703.3,3439.5,3445.5,2401.8,1783.9,1724.4,3441.9,1425.9,1777.2,3440.7,3438.2,725.8,1365.7,936.4,611.7,1615.2,2131.1,3437.0,3439.5,815.2,1207.1,1483.8,1877.2,1532.0,1176.2,-3.0,15.0,-12.0,-1927.0,2663.0,15450.0,4350.0,-34.0,138.0,57.0,9.0,-2.0,3.0,1174.0,-1093.0,15328.0,5560.0,-3.0,64.0,65.0,1.0
2022-05-13 11:58:33.689702-07:00,2141.2,616.5,1465.4,1631.3,1138.4,1515.3,1398.5,1697.6,3439.5,3445.5,2401.8,1783.9,1714.8,3438.2,1424.1,1787.8,3438.2,3439.5,717.5,1369.4,936.4,611.7,1615.2,2131.1,3444.3,3451.6,805.2,1209.7,1483.8,1877.2,1532.0,1176.2,-40.0,6.0,-37.0,-1922.0,2672.0,15450.0,4347.0,-41.0,48.0,49.0,6.0,-67.0,14.0,1146.0,-1086.0,15330.0,5562.0,-13.0,27.0,9.0,1.0
2022-05-13 11:58:33.729130-07:00,2146.3,614.9,1473.6,1619.0,1138.4,1515.3,1398.5,1697.6,3440.7,3438.2,2393.4,1784.9,1714.8,3438.2,1424.1,1787.8,3438.2,3439.5,717.5,1369.4,935.6,611.7,1623.7,2126.0,3444.3,3451.6,805.2,1209.7,1481.0,1880.1,1535.7,1174.4,-12.0,17.0,8.0,-1914.0,2672.0,15452.0,4345.0,18.0,-17.0,10.0,1.0,-1.0,17.0,1142.0,-1090.0,15328.0,5568.0,4.0,7.0,2.0,1.0
2022-05-13 11:58:33.775019-07:00,2146.3,614.9,1473.6,1619.0,1143.6,1501.4,1404.9,1694.8,3440.7,3438.2,2393.4,1784.9,1713.8,3439.5,1418.6,1780.1,3438.2,3423.7,722.5,1362.1,935.6,611.7,1623.7,2126.0,3454.0,3443.1,820.2,1203.5,1481.0,1880.1,1535.7,1174.4,12.0,-2.0,11.0,-1892.0,2679.0,15450.0,4357.0,-58.0,-54.0,-1.0,17.0,-7.0,0.0,1131.0,-1090.0,15323.0,5583.0,-79.0,19.0,29.0,1.0
2022-05-13 11:58:33.832761-07:00,2143.3,622.2,1461.7,1635.0,1143.6,1501.4,1404.9,1694.8,3441.9,3447.9,2387.1,1771.4,1713.8,3439.5,1418.6,1780.1,3438.2,3423.7,722.5,1362.1,937.3,610.0,1617.1,2106.8,3454.0,3443.1,820.2,1203.5,1481.9,1869.3,1529.2,1174.4,5.0,-6.0,-8.0,-1871.0,2699.0,15439.0,4391.0,-108.0,-62.0,49.0,12.0,-11.0,2.0,1114.0,-1075.0,15311.0,5622.0,-92.0,2.0,60.0,1.0
2022-05-13 11:58:33.872242-07:00,2149.3,622.2,1461.7,1635.0,1144.5,1500.4,1383.0,1695.7,3449.1,3447.9,2387.1,1771.4,1716.7,3438.2,1411.3,1774.3,3428.6,3443.1,725.8,1369.4,937.3,610.0,1617.1,2131.1,3438.2,3452.8,807.7,1206.2,1481.9,1869.3,1529.2,1181.5,-8.0,38.0,-13.0,-1828.0,2737.0,15433.0,4409.0,-37.0,-146.0,56.0,7.0,21.0,13.0,1105.0,-1053.0,15303.0,5651.0,-40.0,-15.0,40.0,1.0
2022-05-13 11:58:33.936045-07:00,2149.3,614.9,1458.9,1622.8,1144.5,1500.4,1383.0,1691.9,3449.1,3438.2,2447.3,1770.4,1716.7,3438.2,1411.3,1777.2,3433.4,3443.1,725.8,1369.4,933.0,614.9,1637.9,2131.1,3446.7,3452.8,807.7,1206.2,1473.6,1846.9,1508.8,1181.5,27.0,73.0,28.0,-1770.0,2785.0,15442.0,4369.0,33.0,-186.0,58.0,21.0,33.0,12.0,1102.0,-1043.0,15304.0,5651.0,-22.0,9.0,-18.0,1.0
2022-05-13 11:58:33.999929-07:00,2147.3,614.9,1458.9,1622.8,1143.6,1490.3,1403.0,1691.9,3451.6,3438.2,2447.3,1770.4,1706.2,3441.9,1437.8,1777.2,3433.4,3441.9,721.6,1364.8,933.0,614.9,1637.9,2132.1,3446.7,3449.1,810.2,1211.5,1473.6,1846.9,1508.8,1174.4,12.0,34.0,40.0,-1725.0,2802.0,15423.0,4444.0,-215.0,-32.0,-4.0,43.0,24.0,50.0,1084.0,-1043.0,15278.0,5723.0,-180.0,19.0,-10.0,1.0
2022-05-13 11:58:34.042090-07:00,2147.3,615.7,1456.2,1632.2,1143.6,1490.3,1403.0,1692.9,3451.6,3443.1,2451.5,1754.1,1706.2,3441.9,1437.8,1765.6,3439.5,3441.9,721.6,1364.8,937.3,610.8,1644.5,2132.1,3449.1,3449.1,810.2,1211.5,1483.8,1826.5,1481.0,1174.4,90.0,29.0,43.0,-1696.0,2832.0,15393.0,4537.0,-275.0,-24.0,53.0,81.0,36.0,14.0,1058.0,-1055.0,15253.0,5792.0,-165.0,43.0,-21.0,1.0
2022-05-13 11:58:34.087311-07:00,2151.4,615.7,1456.2,1632.2,1147.1,1480.1,1425.0,1692.9,3439.5,3443.1,2451.5,1754.1,1703.3,3438.2,1408.5,1765.6,3439.5,3433.4,723.3,1372.1,937.3,610.8,1644.5,2111.8,3449.1,3440.7,807.7,1192.0,1483.8,1826.5,1481.0,1183.2,39.0,13.0,47.0,-1678.0,2874.0,15352.0,4655.0,-326.0,-31.0,43.0,81.0,-16.0,44.0,1045.0,-1077.0,15223.0,5869.0,-224.0,20.0,-29.0,1.0
2022-05-13 11:58:34.177523-07:00,2151.4,619.7,1441.5,1628.4,1147.1,1480.1,1425.0,1696.7,3439.5,3434.6,2391.3,1732.0,1703.3,3438.2,1408.5,1763.7,3441.9,3433.4,723.3,1372.1,934.7,610.0,1635.0,2111.8,3446.7,3440.7,807.7,1192.0,1476.4,1807.1,1460.8,1183.2,58.0,37.0,66.0,-1640.0,2884.0,15324.0,4755.0,-279.0,26.0,-38.0,62.0,20.0,33.0,1023.0,-1093.0,15188.0,5960.0,-251.0,10.0,-41.0,1.0
2022-05-13 11:58:34.223729-07:00,2149.3,615.7,1441.5,1628.4,1133.1,1470.0,1435.0,1696.7,3433.4,3433.4,2391.3,1732.0,1693.8,3449.1,1391.2,1763.7,3441.9,3439.5,724.9,1371.2,934.7,610.0,1631.3,2103.7,3446.7,3446.7,807.7,1200.0,1476.4,1807.1,1456.2,1178.8,39.0,49.0,33.0,-1602.0,2867.0,15279.0,4919.0,-475.0,28.0,-104.0,32.0,33.0,1.0,1010.0,-1121.0,15130.0,6104.0,-506.0,30.0,-47.0,1.0
2022-05-13 11:58:34.225036-07:00,2149.3,615.7,1442.4,1621.8,1133.1,1470.0,1447.0,1705.3,3433.4,3433.4,2359.8,1726.3,1693.8,3449.1,1393.9,1754.1,3431.0,3437.0,724.9,1371.2,933.9,607.6,1631.3,2103.7,3439.5,3441.9,807.7,1200.0,1480.1,1811.0,1456.2,1178.8,27.0,41.0,-28.0,-1571.0,2824.0,15206.0,5173.0,-644.0,46.0,-188.0,26.0,22.0,-7.0,986.0,-1160.0,15036.0,6327.0,-627.0,-7.0,-95.0,1.0
2022-05-13 11:58:34.313431-07:00,2170.7,612.5,1442.4,1621.8,1138.4,1456.2,1447.0,1705.3,3435.8,3441.9,2359.8,1726.3,1699.5,3444.3,1393.9,1754.1,3431.0,3437.0,723.3,1372.1,933.9,607.6,1619.0,2095.7,3439.5,3441.9,799.4,1189.4,1480.1,1811.0,1449.7,1175.3,17.0,47.0,-17.0,-1481.0,2762.0,15131.0,5447.0,-670.0,-23.0,-256.0,1.0,6.0,-6.0,983.0,-1219.0,14922.0,6582.0,-656.0,-5.0,-152.0,1.0
2022-05-13 11:58:34.315595-07:00,2170.7,612.5,1448.8,1617.1,1138.4,1456.2,1461.7,1707.2,3435.8,3441.9,2334.7,1711.9,1699.5,3444.3,1376.6,1750.2,3428.6,3437.0,723.3,1372.1,934.7,610.8,1619.0,2095.7,3423.7,3440.7,799.4,1189.4,1476.4,1807.1,1449.7,1175.3,-5.0,16.0,-26.0,-1377.0,2659.0,15070.0,5688.0,-486.0,-52.0,-378.0,-20.0,-1.0,-5.0,988.0,-1305.0,14806.0,6821.0,-549.0,29.0,-199.0,1.0
2022-05-13 11:58:34.447939-07:00,2150.4,614.1,1448.8,1617.1,1137.5,1455.2,1461.7,1707.2,3440.7,3444.3,2334.7,1711.9,1705.3,3445.5,1376.6,1750.2,3428.6,3437.0,726.6,1383.9,934.7,610.8,1607.7,2089.6,3423.7,3440.7,799.4,1187.6,1476.4,1807.1,1445.1,1167.4,-29.0,22.0,-23.0,-1250.0,2533.0,15029.0,5882.0,-529.0,-104.0,-388.0,-31.0,11.0,-9.0,989.0,-1401.0,14693.0,7043.0,-710.0,42.0,-157.0,1.0
2022-05-13 11:58:34.449290-07:00,2150.4,614.1,1474.6,1625.6,1137.5,1439.6,1469.0,1702.4,3440.7,3444.3,2313.9,1705.3,1705.3,3444.3,1364.8,1755.0,3432.2,3439.5,727.4,1383.9,940.7,616.5,1607.7,2089.6,3440.7,3428.6,801.0,1187.6,1474.6,1797.4,1445.1,1167.4,46.0,64.0,7.0,-1112.0,2362.0,14943.0,6191.0,-948.0,46.0,-645.0,36.0,12.0,-3.0,968.0,-1484.0,14514.0,7391.0,-1362.0,10.0,-107.0,1.0
2022-05-13 11:58:34.450875-07:00,2139.2,617.3,1464.4,1625.6,1135.7,1439.6,1469.0,1702.4,3439.5,3432.2,2300.4,1705.3,1691.0,3444.3,1364.8,1755.0,3432.2,3439.5,727.4,1377.5,940.7,606.0,1609.6,2092.6,3440.7,3428.6,801.0,1184.1,1474.6,1803.2,1440.5,1174.4,67.0,148.0,80.0,-927.0,1957.0,14767.0,6759.0,-1651.0,370.0,-1391.0,21.0,0.0,-14.0,909.0,-1576.0,14148.0,8060.0,-2460.0,89.0,-137.0,1.0
2022-05-13 11:58:34.630524-07:00,2139.2,617.3,1464.4,1628.4,1135.7,1434.1,1451.6,1697.6,3439.5,3432.2,2300.4,1706.2,1691.0,3438.2,1369.4,1752.1,3439.5,3432.2,722.5,1377.5,939.8,606.0,1609.6,2092.6,3443.1,3432.2,801.0,1184.1,1485.6,1803.2,1440.5,1174.4,-13.0,38.0,65.0,-766.0,1109.0,14426.0,7649.0,-2302.0,926.0,-2145.0,-60.0,0.0,56.0,769.0,-1731.0,13535.0,9036.0,-2972.0,310.0,-154.0,1.0
2022-05-13 11:58:34.674926-07:00,2146.3,627.8,1469.0,1628.4,1144.5,1434.1,1451.6,1697.6,3443.1,3443.1,2287.9,1706.2,1688.1,3438.2,1369.4,1752.1,3439.5,3432.2,722.5,1366.6,939.8,613.3,1598.3,2085.6,3443.1,3432.2,801.0,1192.0,1485.6,1789.7,1440.5,1173.5,-84.0,-10.0,-4.0,-705.0,133.0,13833.0,8750.0,-3209.0,1262.0,-2038.0,-83.0,-77.0,64.0,483.0,-1920.0,12708.0,10150.0,-3537.0,537.0,108.0,1.0
2022-05-13 11:58:34.676113-07:00,2146.3,627.8,1469.0,1630.3,1144.5,1439.6,1450.6,1687.2,3443.1,3443.1,2287.9,1696.7,1688.1,3441.9,1378.5,1753.1,3443.1,3440.7,730.7,1366.6,934.7,613.3,1598.3,2085.6,3450.4,3449.1,797.7,1192.0,1475.5,1789.7,1440.5,1173.5,-148.0,-263.0,-87.0,-721.0,-693.0,13195.0,9660.0,-1468.0,945.0,-1223.0,-147.0,-33.0,32.0,83.0,-2070.0,11937.0,11030.0,-1895.0,731.0,185.0,1.0
2022-05-13 11:58:34.677356-07:00,2179.9,619.7,1462.6,1630.3,1136.6,1439.6,1450.6,1687.2,3441.9,3444.3,2300.4,1696.7,1688.1,3441.9,1378.5,1753.1,3443.1,3440.7,730.7,1366.6,934.7,615.7,1610.5,2097.7,3450.4,3449.1,797.7,1193.8,1475.5,1784.9,1427.7,1174.4,-100.0,-20.0,-265.0,-886.0,-1007.0,12962.0,9931.0,-567.0,593.0,5.0,-170.0,69.0,-87.0,-274.0,-2207.0,11623.0,11332.0,-831.0,649.0,304.0,1.0
2022-05-13 11:58:34.762585-07:00,2179.9,619.7,1462.6,1620.9,1144.5,1419.5,1424.1,1680.5,3441.9,3444.3,2300.4,1706.2,1696.7,3441.9,1371.2,1760.8,3444.3,3445.5,727.4,1352.1,937.3,615.7,1610.5,2097.7,3451.6,3449.1,798.5,1179.7,1470.0,1784.9,1427.7,1174.4,-10.0,-16.0,-199.0,-1012.0,-1038.0,12866.0,10040.0,-422.0,229.0,26.0,-85.0,0.0,-135.0,-520.0,-2259.0,11460.0,11477.0,-469.0,276.0,281.0,1.0
2022-05-13 11:58:34.764811-07:00,2209.6,618.1,1455.2,1624.7,1144.5,1419.5,1424.1,1680.5,3443.1,3451.6,2279.6,1695.7,1696.7,3441.9,1371.2,1760.8,3444.3,3445.5,727.4,1352.1,934.7,608.4,1613.4,2103.7,3451.6,3449.1,798.5,1179.7,1487.5,1784.9,1435.0,1166.5,27.0,-265.0,-54.0,-1128.0,-1064.0,12824.0,10079.0,557.0,278.0,488.0,-7.0,-110.0,-48.0,-627.0,-2207.0,11519.0,11423.0,695.0,13.0,302.0,1.0
2022-05-13 11:58:34.809355-07:00,2209.6,618.1,1455.2,1624.7,1132.2,1416.7,1414.9,1667.2,3443.1,3451.6,2279.6,1695.7,1688.1,3440.7,1338.6,1744.5,3441.9,3441.9,724.9,1355.8,934.7,608.4,1613.4,2103.7,3438.2,3444.3,782.7,1163.8,1487.5,1784.9,1435.0,1166.5,39.0,-110.0,24.0,-1430.0,-917.0,13093.0,9701.0,1311.0,466.0,1092.0,8.0,-30.0,-30.0,-707.0,-2104.0,11912.0,11028.0,1365.0,114.0,563.0,1.0
2022-05-13 11:58:34.900329-07:00,2184.0,615.7,1460.8,1629.4,1132.2,1416.7,1414.9,1667.2,3446.7,3446.7,2212.7,1671.0,1688.1,3440.7,1338.6,1744.5,3441.9,3441.9,724.9,1355.8,933.9,610.8,1591.7,2087.6,3438.2,3444.3,782.7,1163.8,1480.1,1784.9,1430.5,1163.8,56.0,500.0,-219.0,-1916.0,-711.0,13296.0,9354.0,-148.0,637.0,993.0,23.0,49.0,12.0,-891.0,-1978.0,12087.0,10846.0,-42.0,158.0,459.0,1.0
2022-05-13 11:58:34.901551-07:00,2184.0,615.7,1460.8,1629.4,1135.7,1411.3,1405.8,1665.3,3446.7,3446.7,2212.7,1671.0,1685.3,3437.0,1330.5,1739.7,3434.6,3435.8,720.0,1358.5,933.9,610.8,1591.7,2087.6,3439.5,3445.5,787.7,1161.2,1480.1,1784.9,1430.5,1163.8,78.0,214.0,-67.0,-2005.0,-719.0,13261.0,9383.0,-432.0,-253.0,-980.0,54.0,114.0,-35.0,-937.0,-1968.0,12012.0,10927.0,-576.0,1.0,-155.0,1.0
2022-05-13 11:58:34.987323-07:00,2211.6,608.4,1444.2,1621.8,1135.7,1411.3,1405.8,1697.6,3437.0,3439.5,2185.0,1671.9,1685.3,3437.0,1330.5,1729.1,3428.6,3435.8,720.0,1358.5,931.3,607.6,1584.2,2073.5,3444.3,3445.5,787.7,1161.2,1476.4,1770.4,1428.6,1168.2,38.0,-173.0,-32.0,-1682.0,-1008.0,13064.0,9692.0,-749.0,-149.0,-838.0,23.0,-41.0,14.0,-893.0,-1985.0,11767.0,11191.0,-754.0,-140.0,-194.0,1.0
2022-05-13 11:58:35.078541-07:00,2178.9,608.4,1444.2,1621.8,1140.1,1399.4,1415.8,1697.6,3435.8,3439.5,2185.0,1671.9,1676.7,3435.8,1319.6,1729.1,3428.6,3433.4,722.5,1354.9,931.3,607.6,1584.2,2074.5,3444.3,3437.0,791.0,1146.3,1476.4,1770.4,1428.6,1159.4,-17.0,-188.0,-17.0,-1506.0,-1057.0,12962.0,9851.0,228.0,-376.0,256.0,-27.0,-44.0,14.0,-824.0,-1958.0,11692.0,11279.0,171.0,-188.0,-38.0,1.0
2022-05-13 11:58:35.079557-07:00,2178.9,621.4,1444.2,1628.4,1140.1,1399.4,1415.8,1663.4,3435.8,3438.2,2180.9,1666.3,1676.7,3435.8,1319.6,1726.3,3437.0,3433.4,722.5,1354.9,938.1,606.0,1573.9,2074.5,3438.2,3437.0,791.0,1146.3,1479.2,1776.2,1426.8,1159.4,-27.0,45.0,14.0,-1497.0,-824.0,13098.0,9693.0,546.0,-250.0,553.0,-42.0,9.0,19.0,-751.0,-1923.0,11839.0,11136.0,540.0,-129.0,7.0,1.0
2022-05-13 11:58:35.124243-07:00,2178.9,621.4,1444.2,1628.4,1142.7,1401.2,1407.6,1663.4,3435.8,3438.2,2180.9,1666.3,1668.2,3431.0,1313.3,1726.3,3437.0,3441.9,724.9,1353.1,938.1,606.0,1573.9,2070.5,3438.2,3438.2,799.4,1144.5,1479.2,1776.2,1426.8,1169.1,-28.0,76.0,12.0,-1530.0,-665.0,13227.0,9524.0,257.0,-81.0,124.0,-27.0,18.0,15.0,-704.0,-1908.0,11949.0,11024.0,241.0,-46.0,-4.0,1.0
2022-05-13 11:58:35.212790-07:00,2178.9,610.8,1447.0,1619.0,1142.7,1401.2,1407.6,1639.8,3435.8,3441.9,2163.6,1659.6,1668.2,3431.0,1313.3,1729.1,3441.9,3441.9,724.9,1353.1,933.0,614.9,1573.0,2070.5,3440.7,3438.2,799.4,1144.5,1483.8,1770.4,1422.2,1169.1,11.0,1.0,16.0,-1518.0,-645.0,13258.0,9484.0,-62.0,17.0,-28.0,4.0,7.0,4.0,-696.0,-1912.0,11968.0,11003.0,-21.0,15.0,8.0,1.0
2022-05-13 11:58:35.214311-07:00,2175.8,610.8,1447.0,1619.0,1141.0,1390.3,1403.0,1639.8,3438.2,3441.9,2163.6,1659.6,1676.7,3443.1,1309.7,1729.1,3441.9,3434.6,723.3,1348.5,933.0,614.9,1573.0,2070.5,3440.7,3451.6,792.7,1137.5,1483.8,1770.4,1422.2,1167.4,19.0,-15.0,-11.0,-1535.0,-658.0,13239.0,9506.0,29.0,57.0,34.0,13.0,1.0,0.0,-711.0,-1918.0,11962.0,11008.0,44.0,38.0,4.0,1.0
2022-05-13 11:58:35.259499-07:00,2175.8,616.5,1447.9,1613.4,1141.0,1390.3,1401.2,1659.6,3438.2,3439.5,2161.6,1658.7,1676.7,3443.1,1302.5,1730.1,3440.7,3437.0,723.3,1348.5,935.6,610.8,1571.1,2070.5,3450.4,3449.1,792.7,1137.5,1476.4,1781.0,1425.0,1167.4,12.0,12.0,-17.0,-1566.0,-656.0,13265.0,9466.0,126.0,39.0,52.0,1.0,10.0,0.0,-713.0,-1931.0,11993.0,10971.0,136.0,30.0,-17.0,1.0
2022-05-13 11:58:35.347913-07:00,2180.9,617.3,1447.9,1613.4,1138.4,1383.9,1401.2,1659.6,3432.2,3437.0,2161.6,1658.7,1671.9,3432.2,1302.5,1730.1,3440.7,3437.0,726.6,1354.9,935.6,610.8,1565.5,2071.5,3450.4,3449.1,788.6,1142.7,1476.4,1781.0,1419.5,1158.6,-3.0,10.0,-8.0,-1582.0,-650.0,13289.0,9430.0,37.0,6.0,12.0,-11.0,5.0,-2.0,-708.0,-1945.0,12014.0,10946.0,37.0,18.0,-25.0,1.0
2022-05-13 11:58:35.438390-07:00,2180.9,617.3,1446.0,1617.1,1138.4,1383.9,1388.5,1655.8,3432.2,3437.0,2151.4,1654.9,1671.9,3432.2,1304.3,1727.2,3439.5,3431.0,726.6,1354.9,937.3,611.7,1565.5,2071.5,3447.9,3445.5,788.6,1142.7,1482.9,1772.3,1419.5,1158.6,-10.0,-4.0,-14.0,-1587.0,-657.0,13290.0,9427.0,-17.0,48.0,-10.0,-18.0,0.0,1.0,-708.0,-1961.0,12013.0,10944.0,-1.0,29.0,-15.0,1.0
2022-05-13 11:58:35.439682-07:00,2167.7,610.8,1446.0,1617.1,1138.4,1380.3,1388.5,1655.8,3432.2,3449.1,2151.4,1654.9,1675.7,3441.9,1304.3,1727.2,3439.5,3431.0,721.6,1360.3,937.3,611.7,1561.8,2062.5,3447.9,3445.5,792.7,1135.7,1482.9,1772.3,1423.1,1157.7,-6.0,-15.0,-27.0,-1592.0,-664.0,13293.0,9421.0,7.0,-12.0,48.0,-15.0,-1.0,-12.0,-711.0,-1972.0,12014.0,10941.0,18.0,12.0,9.0,1.0
2022-05-13 11:58:35.482013-07:00,2167.7,610.8,1446.0,1629.4,1138.4,1380.3,1400.3,1647.3,3432.2,3449.1,2155.5,1651.1,1675.7,3441.9,1306.1,1717.7,3431.0,3432.2,721.6,1360.3,928.8,613.3,1561.8,2062.5,3441.9,3443.1,792.7,1135.7,1475.5,1776.2,1423.1,1157.7,1.0,13.0,-21.0,-1601.0,-648.0,13302.0,9408.0,10.0,-13.0,40.0,-4.0,11.0,-3.0,-712.0,-1968.0,12019.0,10936.0,-14.0,-10.0,16.0,1.0
2022-05-13 11:58:35.573041-07:00,2177.9,614.9,1438.7,1629.4,1141.9,1393.9,1400.3,1647.3,3438.2,3449.1,2152.4,1651.1,1671.0,3438.2,1306.1,1717.7,3431.0,3432.2,721.6,1358.5,928.8,609.2,1557.1,2060.5,3441.9,3443.1,808.5,1133.1,1475.5,1770.4,1418.6,1177.0,3.0,2.0,-3.0,-1591.0,-628.0,13294.0,9422.0,-56.0,-50.0,12.0,-3.0,4.0,1.0,-713.0,-1957.0,12008.0,10950.0,-29.0,-15.0,10.0,1.0
2022-05-13 11:58:35.575184-07:00,2177.9,614.9,1438.7,1619.9,1141.9,1383.0,1401.2,1647.3,3438.2,3449.1,2152.4,1650.2,1671.0,3435.8,1297.2,1722.4,3435.8,3433.4,714.2,1358.5,933.0,609.2,1557.1,2060.5,3438.2,3441.9,788.6,1133.1,1485.6,1770.4,1418.6,1177.0,-4.0,9.0,4.0,-1579.0,-614.0,13297.0,9421.0,38.0,-31.0,18.0,-5.0,10.0,13.0,-708.0,-1954.0,12011.0,10947.0,15.0,-9.0,-5.0,1.0
2022-05-13 11:58:35.663856-07:00,2175.8,609.2,1441.5,1619.9,1134.0,1383.0,1401.2,1647.3,3443.1,3435.8,2134.1,1650.2,1670.1,3435.8,1297.2,1722.4,3435.8,3433.4,714.2,1354.0,933.0,611.7,1558.1,2063.5,3438.2,3441.9,788.6,1133.1,1485.6,1774.3,1414.9,1163.0,3.0,4.0,5.0,-1578.0,-603.0,13299.0,9419.0,4.0,-4.0,19.0,-8.0,8.0,3.0,-708.0,-1955.0,12010.0,10948.0,6.0,11.0,-1.0,1.0
2022-05-13 11:58:35.666784-07:00,2175.8,609.2,1441.5,1621.8,1134.0,1377.5,1412.2,1649.2,3443.1,3435.8,2134.1,1654.9,1670.1,3437.0,1298.1,1724.4,3443.1,3428.6,723.3,1354.0,932.2,611.7,1558.1,2063.5,3449.1,3435.8,789.4,1133.1,1493.0,1774.3,1414.9,1163.0,0.0,4.0,-14.0,-1588.0,-604.0,13301.0,9414.0,7.0,16.0,10.0,-3.0,8.0,2.0,-713.0,-1960.0,12010.0,10947.0,3.0,18.0,-1.0,1.0
2022-05-13 11:58:35.709205-07:00,2171.8,614.9,1433.2,1621.8,1143.6,1377.5,1412.2,1649.2,3441.9,3446.7,2134.1,1654.9,1672.9,3437.0,1298.1,1724.4,3443.1,3428.6,723.3,1353.1,932.2,611.7,1559.0,2055.4,3449.1,3435.8,789.4,1121.7,1493.0,1772.3,1412.2,1163.0,0.0,1.0,-23.0,-1588.0,-605.0,13307.0,9406.0,28.0,11.0,6.0,-3.0,5.0,-3.0,-714.0,-1962.0,12014.0,10942.0,22.0,1.0,-2.0,1.0
2022-05-13 11:58:35.754806-07:00,2171.8,614.9,1433.2,1624.7,1138.4,1380.3,1393.0,1656.8,3441.9,3446.7,2134.1,1650.2,1672.9,3440.7,1290.0,1720.5,3440.7,3439.5,721.6,1353.1,927.9,611.7,1559.0,2055.4,3438.2,3443.1,786.1,1134.9,1481.0,1772.3,1412.2,1163.0,0.0,6.0,-7.0,-1587.0,-602.0,13308.0,9404.0,-26.0,-19.0,-2.0,-4.0,6.0,2.0,-711.0,-1960.0,12011.0,10946.0,-34.0,-18.0,1.0,1.0
2022-05-13 11:58:35.799777-07:00,2160.5,610.0,1443.3,1628.4,1138.4,1380.3,1393.0,1656.8,3435.8,3438.2,2130.1,1652.0,1672.9,3440.7,1290.0,1720.5,3440.7,3439.5,721.6,1353.1,934.7,611.7,1558.1,2054.4,3438.2,3443.1,786.1,1134.9,1481.9,1778.1,1421.3,1157.7,-5.0,-4.0,-8.0,-1581.0,-596.0,13300.0,9417.0,-23.0,-10.0,9.0,-4.0,0.0,6.0,-710.0,-1957.0,12006.0,10953.0,9.0,-8.0,3.0,1.0
2022-05-13 11:58:35.890448-07:00,2160.5,610.0,1443.3,1628.4,1130.5,1381.2,1396.7,1639.8,3435.8,3438.2,2130.1,1652.0,1669.1,3444.3,1290.9,1720.5,3444.3,3437.0,721.6,1354.9,934.7,611.7,1558.1,2054.4,3441.9,3438.2,781.1,1125.2,1481.9,1778.1,1421.3,1157.7,-1.0,6.0,-13.0,-1579.0,-584.0,13305.0,9412.0,9.0,-30.0,24.0,-6.0,5.0,-4.0,-708.0,-1957.0,12008.0,10951.0,-8.0,-9.0,4.0,1.0
2022-05-13 11:58:36.023768-07:00,2166.7,611.7,1445.1,1616.2,1130.5,1381.2,1396.7,1639.8,3438.2,3445.5,2132.1,1638.8,1669.1,3444.3,1290.9,1720.5,3444.3,3437.0,721.6,1354.9,927.1,606.8,1563.7,2058.4,3441.9,3438.2,781.1,1125.2,1476.4,1762.7,1419.5,1163.0,0.0,7.0,-9.0,-1578.0,-571.0,13303.0,9415.0,-18.0,-5.0,15.0,-4.0,0.0,-1.0,-706.0,-1955.0,12008.0,10951.0,-3.0,-8.0,2.0,1.0
2022-05-13 11:58:36.026821-07:00,2166.7,611.7,1445.1,1616.2,1137.5,1381.2,1401.2,1641.6,3438.2,3445.5,2132.1,1638.8,1663.4,3437.0,1290.0,1722.4,3439.5,3441.9,719.2,1355.8,927.1,606.8,1563.7,2058.4,3449.1,3438.2,790.2,1118.2,1476.4,1762.7,1419.5,1163.0,2.0,7.0,-2.0,-1570.0,-566.0,13303.0,9417.0,3.0,-37.0,8.0,-1.0,6.0,6.0,-705.0,-1955.0,12008.0,10951.0,11.0,-5.0,-3.0,1.0
2022-05-13 11:58:36.027284-07:00,2167.7,615.7,1437.8,1622.8,1137.5,1381.2,1401.2,1641.6,3443.1,3438.2,2117.9,1641.6,1663.4,3437.0,1290.0,1722.4,3439.5,3441.9,719.2,1355.8,925.4,606.0,1556.2,2061.5,3449.1,3438.2,790.2,1118.2,1479.2,1770.4,1409.4,1163.0,8.0,26.0,-3.0,-1562.0,-562.0,13306.0,9415.0,8.0,4.0,-19.0,-3.0,9.0,-2.0,-702.0,-1957.0,12013.0,10946.0,14.0,4.0,-15.0,1.0
2022-05-13 11:58:36.068680-07:00,2170.7,615.7,1437.8,1622.8,1141.0,1369.4,1393.9,1643.5,3441.9,3438.2,2117.9,1641.6,1671.0,3440.7,1291.8,1713.8,3434.6,3431.0,720.0,1349.4,925.4,606.0,1556.2,2050.4,3440.7,3440.7,790.2,1121.7,1479.2,1770.4,1409.4,1159.4,-58.0,40.0,-94.0,-1570.0,-643.0,13310.0,9403.0,132.0,276.0,-297.0,-110.0,-27.0,-63.0,-669.0,-1982.0,12053.0,10899.0,383.0,-56.0,-121.0,1.0
2022-05-13 11:58:36.113960-07:00,2170.7,610.0,1435.0,1618.1,1141.0,1369.4,1393.9,1640.7,3441.9,3440.7,2127.0,1643.5,1671.0,3440.7,1291.8,1723.4,3432.2,3431.0,720.0,1349.4,933.0,609.2,1554.3,2050.4,3438.2,3440.7,790.2,1121.7,1485.6,1766.6,1412.2,1159.4,-141.0,-63.0,-172.0,-1634.0,-976.0,13395.0,9241.0,861.0,788.0,-417.0,-226.0,84.0,-68.0,-517.0,-2034.0,12365.0,10542.0,1490.0,-115.0,-264.0,1.0
2022-05-13 11:58:36.158900-07:00,2163.6,610.0,1435.0,1618.1,1138.4,1375.7,1405.8,1640.7,3434.6,3440.7,2127.0,1643.5,1663.4,3435.8,1335.9,1723.4,3432.2,3437.0,720.8,1355.8,933.0,609.2,1554.3,2055.4,3438.2,3441.9,797.7,1153.3,1485.6,1766.6,1412.2,1163.0,78.0,175.0,-279.0,-1860.0,-1137.0,13646.0,8801.0,988.0,346.0,267.0,34.0,119.0,-152.0,-313.0,-2119.0,12681.0,10151.0,954.0,-233.0,-373.0,1.0
2022-05-13 11:58:36.247332-07:00,2163.6,618.9,1452.5,1627.5,1138.4,1375.7,1405.8,1675.7,3434.6,3449.1,2162.6,1653.9,1663.4,3435.8,1335.9,1732.0,3440.7,3437.0,720.8,1355.8,927.1,615.7,1556.2,2055.4,3437.0,3441.9,797.7,1153.3,1473.6,1766.6,1413.1,1163.0,-86.0,-113.0,-234.0,-1778.0,-1123.0,13774.0,8620.0,318.0,-364.0,11.0,-63.0,39.0,-98.0,8.0,-2189.0,12800.0,9991.0,561.0,-501.0,-715.0,1.0
2022-05-13 11:58:36.293140-07:00,2178.9,618.9,1452.5,1627.5,1141.0,1372.1,1438.7,1675.7,3449.1,3449.1,2162.6,1653.9,1670.1,3438.2,1378.5,1732.0,3440.7,3440.7,725.8,1350.3,927.1,615.7,1556.2,2062.5,3437.0,3449.1,806.9,1143.6,1473.6,1766.6,1413.1,1157.7,-67.0,-201.0,-70.0,-1597.0,-819.0,14002.0,8316.0,1270.0,-882.0,810.0,-80.0,-75.0,-44.0,408.0,-2213.0,13039.0,9663.0,1508.0,-617.0,-500.0,1.0
2022-05-13 11:58:36.339118-07:00,2178.9,610.8,1442.4,1623.7,1141.0,1372.1,1426.8,1687.2,3449.1,3428.6,2414.5,1768.5,1670.1,3438.2,1495.8,1802.3,3444.3,3434.6,725.8,1350.3,934.7,611.7,1563.7,2062.5,3444.3,3437.0,806.9,1143.6,1479.2,1761.8,1415.8,1157.7,-46.0,-159.0,-26.0,-1508.0,-240.0,14445.0,7578.0,2176.0,-949.0,1566.0,-26.0,-72.0,42.0,815.0,-2157.0,13526.0,8953.0,2394.0,-530.0,-227.0,1.0
2022-05-13 11:58:36.383418-07:00,2176.9,614.1,1442.4,1623.7,1129.6,1381.2,1426.8,1687.2,3443.1,3441.9,2414.5,1768.5,1702.4,3441.9,1495.8,1802.3,3444.3,3434.6,720.8,1358.5,934.7,611.7,1571.1,2079.5,3444.3,3437.0,798.5,1167.4,1479.2,1761.8,1417.6,1156.8,68.0,-94.0,46.0,-1492.0,614.0,14902.0,6614.0,2263.0,-891.0,2158.0,8.0,-66.0,25.0,1123.0,-1991.0,14081.0,8058.0,2586.0,-421.0,121.0,1.0
2022-05-13 11:58:36.474091-07:00,2176.9,614.1,1433.2,1615.2,1129.6,1381.2,1400.3,1668.2,3443.1,3441.9,2514.3,1842.0,1702.4,3441.9,1485.6,1808.1,3439.5,3441.9,720.8,1358.5,935.6,610.8,1571.1,2079.5,3439.5,3438.2,798.5,1167.4,1472.7,1759.8,1417.6,1156.8,-17.0,45.0,154.0,-1566.0,1497.0,15155.0,5838.0,1200.0,-700.0,1880.0,18.0,-43.0,103.0,1299.0,-1731.0,14542.0,7230.0,1931.0,-241.0,434.0,1.0
2022-05-13 11:58:36.475438-07:00,2158.5,615.7,1433.2,1615.2,1134.9,1418.6,1400.3,1668.2,3437.0,3440.7,2514.3,1842.0,1711.9,3443.1,1485.6,1808.1,3439.5,3441.9,720.0,1356.7,935.6,610.8,1566.5,2065.5,3439.5,3438.2,793.5,1185.0,1472.7,1759.8,1412.2,1160.3,65.0,91.0,156.0,-1724.0,2068.0,15229.0,5409.0,750.0,66.0,1025.0,101.0,-30.0,58.0,1279.0,-1463.0,14815.0,6720.0,1080.0,36.0,581.0,1.0
2022-05-13 11:58:36.518560-07:00,2158.5,615.7,1419.5,1622.8,1134.9,1418.6,1398.5,1652.0,3437.0,3440.7,2452.6,1794.5,1711.9,3443.1,1438.7,1777.2,3439.5,3433.4,720.0,1356.7,932.2,613.3,1566.5,2065.5,3443.1,3447.9,793.5,1185.0,1480.1,1771.4,1412.2,1160.3,83.0,60.0,56.0,-1867.0,2317.0,15245.0,5212.0,361.0,-5.0,584.0,116.0,56.0,48.0,1168.0,-1240.0,14937.0,6513.0,390.0,109.0,510.0,1.0
2022-05-13 11:58:36.653934-07:00,2152.4,618.9,1419.5,1622.8,1128.7,1448.8,1398.5,1652.0,3439.5,3449.1,2452.6,1794.5,1694.8,3438.2,1438.7,1777.2,3439.5,3433.4,724.1,1353.1,932.2,613.3,1590.8,2056.4,3443.1,3447.9,795.2,1216.0,1480.1,1771.4,1413.1,1154.2,80.0,108.0,-19.0,-1983.0,2508.0,15294.0,4931.0,811.0,-85.0,456.0,102.0,66.0,-1.0,1082.0,-1109.0,15063.0,6257.0,770.0,124.0,212.0,1.0
2022-05-13 11:58:36.656088-07:00,2152.4,618.9,1409.4,1611.5,1128.7,1450.6,1383.0,1649.2,3439.5,3449.1,2399.7,1751.2,1694.8,3445.5,1393.9,1755.0,3439.5,3428.6,720.0,1353.1,932.2,607.6,1590.8,2056.4,3451.6,3440.7,777.8,1216.0,1483.8,1772.3,1413.1,1154.2,91.0,153.0,-4.0,-1992.0,2531.0,15379.0,4643.0,548.0,-168.0,-78.0,74.0,108.0,1.0,1069.0,-1086.0,15163.0,6016.0,404.0,25.0,-53.0,1.0
2022-05-13 11:58:36.657269-07:00,2137.2,614.9,1404.9,1611.5,1135.7,1450.6,1383.0,1649.2,3441.9,3445.5,2345.2,1751.2,1691.9,3445.5,1393.9,1755.0,3439.5,3428.6,720.0,1356.7,932.2,606.0,1610.5,2048.4,3451.6,3440.7,777.8,1203.5,1483.8,1764.6,1408.5,1162.1,35.0,24.0,1.0,-1956.0,2464.0,15450.0,4455.0,443.0,-170.0,-128.0,59.0,43.0,30.0,1077.0,-1115.0,15207.0,5897.0,323.0,-19.0,-134.0,1.0
2022-05-13 11:58:36.745018-07:00,2137.2,614.9,1404.9,1609.6,1135.7,1448.8,1360.3,1633.1,3441.9,3445.5,2345.2,1730.1,1691.9,3449.1,1372.1,1737.8,3440.7,3432.2,718.4,1356.7,940.7,606.0,1610.5,2048.4,3439.5,3437.0,781.1,1203.5,1477.3,1764.6,1408.5,1162.1,29.0,10.0,27.0,-1891.0,2447.0,15511.0,4274.0,395.0,-183.0,-9.0,33.0,25.0,22.0,1112.0,-1146.0,15254.0,5763.0,330.0,-21.0,-91.0,1.0
2022-05-13 11:58:36.746763-07:00,2120.9,618.1,1400.3,1609.6,1133.1,1448.8,1360.3,1633.1,3438.2,3440.7,2327.4,1730.1,1687.2,3449.1,1372.1,1737.8,3440.7,3432.2,718.4,1359.4,940.7,607.6,1596.4,2046.4,3439.5,3437.0,781.1,1208.0,1477.3,1754.1,1406.7,1149.8,24.0,14.0,18.0,-1847.0,2463.0,15559.0,4108.0,279.0,-219.0,79.0,26.0,44.0,31.0,1123.0,-1159.0,15293.0,5653.0,267.0,-11.0,-61.0,1.0
2022-05-13 11:58:36.834156-07:00,2120.9,618.1,1400.3,1614.3,1133.1,1467.2,1369.4,1622.8,3438.2,3440.7,2327.4,1718.6,1687.2,3438.2,1361.2,1734.9,3443.1,3437.0,720.8,1359.4,936.4,607.6,1596.4,2046.4,3438.2,3428.6,782.7,1208.0,1484.7,1754.1,1406.7,1149.8,21.0,-15.0,25.0,-1804.0,2522.0,15572.0,4042.0,100.0,-86.0,141.0,16.0,-11.0,10.0,1126.0,-1156.0,15311.0,5603.0,127.0,-12.0,13.0,1.0
2022-05-13 11:58:36.878411-07:00,2132.1,614.9,1406.7,1607.7,1132.2,1467.2,1369.4,1622.8,3441.9,3446.7,2318.1,1711.0,1678.6,3438.2,1361.2,1734.9,3443.1,3437.0,720.8,1354.0,936.4,608.4,1584.2,2040.4,3438.2,3428.6,782.7,1200.0,1479.2,1757.0,1407.6,1160.3,10.0,33.0,-17.0,-1790.0,2574.0,15568.0,4029.0,-140.0,-24.0,32.0,-6.0,12.0,-16.0,1126.0,-1144.0,15324.0,5571.0,-20.0,-12.0,27.0,1.0
2022-05-13 11:58:36.924155-07:00,2132.1,614.9,1406.7,1607.7,1137.5,1443.3,1387.5,1638.8,3441.9,3446.7,2318.1,1711.0,1676.7,3438.2,1353.1,1726.3,3437.0,3435.8,719.2,1354.9,936.4,608.4,1584.2,2040.4,3443.1,3443.1,784.4,1191.2,1479.2,1757.0,1407.6,1160.3,-17.0,-52.0,-14.0,-1807.0,2551.0,15539.0,4147.0,-249.0,52.0,-19.0,8.0,-23.0,29.0,1130.0,-1138.0,15307.0,5619.0,-104.0,-19.0,14.0,1.0
2022-05-13 11:58:37.013828-07:00,2129.0,611.7,1402.1,1619.9,1137.5,1443.3,1387.5,1638.8,3438.2,3449.1,2277.6,1711.9,1676.7,3438.2,1353.1,1726.3,3437.0,3435.8,719.2,1354.9,932.2,610.8,1559.0,2046.4,3443.1,3443.1,784.4,1191.2,1473.6,1772.3,1426.8,1159.4,-13.0,-1.0,-15.0,-1841.0,2544.0,15526.0,4185.0,12.0,94.0,0.0,-2.0,-2.0,4.0,1127.0,-1126.0,15301.0,5637.0,-48.0,-9.0,34.0,1.0
2022-05-13 11:58:37.015356-07:00,2129.0,611.7,1402.1,1619.9,1137.5,1442.4,1409.4,1675.7,3438.2,3449.1,2277.6,1711.9,1683.3,3440.7,1342.2,1736.8,3439.5,3439.5,717.5,1354.0,932.2,610.8,1559.0,2046.4,3449.1,3450.4,786.9,1187.6,1473.6,1772.3,1426.8,1159.4,4.0,-5.0,-28.0,-1871.0,2559.0,15540.0,4111.0,196.0,-19.0,91.0,3.0,17.0,-9.0,1128.0,-1118.0,15314.0,5603.0,124.0,-15.0,9.0,1.0
2022-05-13 11:58:37.057626-07:00,2136.1,606.8,1401.2,1619.9,1137.5,1442.4,1409.4,1675.7,3446.7,3443.1,2273.4,1708.1,1683.3,3440.7,1342.2,1736.8,3439.5,3439.5,717.5,1354.0,934.7,608.4,1558.1,2061.5,3449.1,3450.4,786.9,1187.6,1489.3,1778.1,1440.5,1171.8,6.0,31.0,-18.0,-1885.0,2574.0,15543.0,4084.0,-9.0,46.0,17.0,-5.0,28.0,-2.0,1148.0,-1110.0,15319.0,5587.0,7.0,-67.0,-14.0,1.0
2022-05-13 11:58:37.104269-07:00,2123.0,606.8,1401.2,1619.9,1134.0,1450.6,1395.7,1679.5,3440.7,3443.1,2273.4,1708.1,1691.0,3440.7,1344.0,1713.8,3434.6,3445.5,721.6,1357.6,934.7,608.4,1558.1,2083.6,3441.9,3446.7,798.5,1181.5,1489.3,1778.1,1440.5,1161.2,11.0,31.0,-45.0,-1873.0,2568.0,15545.0,4083.0,73.0,-58.0,-12.0,5.0,31.0,5.0,1186.0,-1110.0,15314.0,5591.0,79.0,-92.0,-70.0,1.0
2022-05-13 11:58:37.238762-07:00,2123.0,614.1,1399.4,1609.6,1134.0,1450.6,1395.7,1688.1,3440.7,3438.2,2269.3,1711.0,1691.0,3440.7,1344.0,1718.6,3438.2,3445.5,721.6,1357.6,932.2,605.2,1554.3,2083.6,3439.5,3446.7,798.5,1181.5,1480.1,1799.4,1452.5,1161.2,18.0,58.0,-58.0,-1812.0,2560.0,15562.0,4053.0,31.0,-151.0,-62.0,-16.0,58.0,-29.0,1250.0,-1136.0,15319.0,5558.0,76.0,-126.0,-140.0,1.0
2022-05-13 11:58:37.374238-07:00,2126.0,614.1,1399.4,1609.6,1131.4,1463.5,1391.2,1688.1,3438.2,3438.2,2269.3,1711.0,1678.6,3447.9,1344.0,1718.6,3438.2,3433.4,717.5,1351.2,932.2,605.2,1554.3,2095.7,3439.5,3449.1,796.0,1174.4,1480.1,1799.4,1452.5,1173.5,18.0,56.0,-63.0,-1748.0,2551.0,15576.0,4031.0,0.0,-159.0,-61.0,-18.0,58.0,-35.0,1346.0,-1172.0,15321.0,5524.0,66.0,-202.0,-165.0,1.0
2022-05-13 11:58:37.376049-07:00,2126.0,614.9,1401.2,1613.4,1131.4,1463.5,1391.2,1675.7,3438.2,3443.1,2259.0,1702.4,1678.6,3447.9,1344.0,1727.2,3439.5,3433.4,717.5,1351.2,933.9,607.6,1552.5,2095.7,3440.7,3449.1,796.0,1174.4,1475.5,1799.4,1460.8,1173.5,16.0,32.0,-78.0,-1706.0,2545.0,15581.0,4035.0,16.0,-76.0,-30.0,-14.0,38.0,-38.0,1482.0,-1208.0,15312.0,5506.0,74.0,-311.0,-216.0,1.0
2022-05-13 11:58:37.377177-07:00,2143.3,614.9,1401.2,1613.4,1135.7,1447.9,1392.1,1675.7,3445.5,3443.1,2259.0,1702.4,1689.1,3441.9,1346.7,1727.2,3439.5,3441.9,723.3,1354.9,933.9,607.6,1552.5,2087.6,3440.7,3447.9,800.2,1175.3,1475.5,1799.4,1460.8,1163.0,32.0,33.0,-58.0,-1658.0,2523.0,15593.0,4022.0,73.0,-116.0,-138.0,-17.0,36.0,-38.0,1668.0,-1257.0,15300.0,5476.0,96.0,-390.0,-289.0,1.0
2022-05-13 11:58:37.378278-07:00,2143.3,614.9,1397.6,1611.5,1135.7,1447.9,1392.1,1685.3,3445.5,3440.7,2263.1,1699.5,1689.1,3441.9,1346.7,1716.7,3428.6,3441.9,723.3,1354.9,932.2,610.0,1533.8,2087.6,3438.2,3447.9,800.2,1175.3,1475.5,1793.6,1453.4,1163.0,0.0,24.0,-59.0,-1608.0,2471.0,15618.0,3978.0,113.0,-151.0,-162.0,-10.0,26.0,-23.0,1900.0,-1325.0,15287.0,5419.0,153.0,-467.0,-369.0,1.0
2022-05-13 11:58:37.464195-07:00,2138.2,612.5,1397.6,1611.5,1140.1,1451.6,1388.5,1685.3,3438.2,3440.7,2263.1,1699.5,1682.4,3441.9,1335.0,1716.7,3428.6,3434.6,719.2,1364.8,932.2,610.0,1532.0,2079.5,3438.2,3432.2,798.5,1172.6,1475.5,1793.6,1448.8,1160.3,17.0,14.0,-13.0,-1532.0,2407.0,15645.0,3941.0,1.0,-114.0,-193.0,2.0,17.0,-9.0,2161.0,-1405.0,15260.0,5379.0,46.0,-521.0,-401.0,1.0
2022-05-13 11:58:37.466271-07:00,2138.2,612.5,1393.9,1610.5,1140.1,1451.6,1408.5,1688.1,3438.2,3440.7,2245.6,1704.3,1682.4,3441.9,1335.0,1711.0,3429.8,3440.7,719.2,1364.8,931.3,604.4,1532.0,2079.5,3444.3,3449.1,798.5,1172.6,1470.9,1779.1,1448.8,1160.3,-12.0,-18.0,39.0,-1476.0,2342.0,15650.0,3980.0,-246.0,-62.0,-150.0,39.0,-19.0,30.0,2422.0,-1494.0,15209.0,5388.0,-75.0,-487.0,-384.0,1.0
2022-05-13 11:58:37.554049-07:00,2130.1,617.3,1393.9,1610.5,1135.7,1451.6,1408.5,1688.1,3441.9,3447.9,2245.6,1704.3,1679.5,3440.7,1335.0,1711.0,3429.8,3440.7,725.8,1382.1,931.3,604.4,1524.5,2072.5,3444.3,3449.1,802.7,1173.5,1470.9,1779.1,1448.8,1143.6,-37.0,-82.0,24.0,-1411.0,2295.0,15634.0,4093.0,-197.0,-208.0,-196.0,22.0,-75.0,49.0,2647.0,-1566.0,15146.0,5439.0,-163.0,-434.0,-272.0,1.0
2022-05-13 11:58:37.556209-07:00,2130.1,617.3,1400.3,1611.5,1135.7,1451.6,1408.5,1694.8,3441.9,3447.9,2262.1,1699.5,1679.5,3440.7,1333.2,1716.7,3438.2,3440.7,725.8,1382.1,937.3,612.5,1524.5,2072.5,3451.6,3434.6,802.7,1173.5,1475.5,1786.8,1448.8,1143.6,-33.0,-63.0,54.0,-1285.0,2254.0,15644.0,4118.0,5.0,-227.0,-105.0,21.0,-58.0,55.0,2826.0,-1601.0,15099.0,5467.0,-8.0,-341.0,-186.0,1.0
2022-05-13 11:58:37.644716-07:00,2135.1,607.6,1400.3,1611.5,1136.6,1460.8,1408.5,1694.8,3449.1,3451.6,2262.1,1699.5,1681.4,3438.2,1333.2,1716.7,3438.2,3440.7,722.5,1386.6,937.3,612.5,1527.3,2080.6,3451.6,3434.6,799.4,1193.8,1475.5,1786.8,1443.3,1157.7,-35.0,-50.0,51.0,-1191.0,2258.0,15651.0,4119.0,-110.0,-191.0,21.0,6.0,-50.0,53.0,2964.0,-1616.0,15073.0,5461.0,13.0,-241.0,-106.0,1.0
2022-05-13 11:58:37.687889-07:00,2135.1,607.6,1412.2,1612.4,1136.6,1455.2,1408.5,1713.8,3449.1,3451.6,2241.4,1692.9,1681.4,3435.8,1331.4,1716.7,3435.8,3446.7,725.8,1386.6,931.3,606.8,1527.3,2080.6,3446.7,3438.2,800.2,1193.8,1479.2,1779.1,1443.3,1157.7,-50.0,-37.0,38.0,-1110.0,2302.0,15648.0,4129.0,-66.0,-178.0,108.0,2.0,-41.0,61.0,3048.0,-1610.0,15059.0,5456.0,23.0,-130.0,-15.0,1.0
2022-05-13 11:58:37.689962-07:00,2144.3,615.7,1399.4,1612.4,1130.5,1455.2,1408.5,1713.8,3445.5,3446.7,2229.1,1692.9,1679.5,3435.8,1331.4,1716.7,3435.8,3446.7,725.8,1393.9,931.3,609.2,1521.8,2077.5,3446.7,3438.2,800.2,1188.5,1479.2,1776.2,1441.5,1151.5,-14.0,-27.0,41.0,-1043.0,2371.0,15642.0,4130.0,1.0,-134.0,116.0,9.0,-32.0,38.0,3083.0,-1594.0,15057.0,5446.0,48.0,-45.0,23.0,1.0
2022-05-13 11:58:37.779262-07:00,2144.3,615.7,1399.4,1604.0,1130.5,1461.7,1409.4,1723.4,3445.5,3446.7,2229.1,1694.8,1679.5,3441.9,1314.2,1715.8,3449.1,3444.3,724.9,1393.9,939.0,609.2,1521.8,2077.5,3446.7,3445.5,801.9,1188.5,1474.6,1776.2,1441.5,1151.5,-3.0,3.0,27.0,-1018.0,2413.0,15642.0,4111.0,37.0,-16.0,45.0,13.0,0.0,27.0,3092.0,-1571.0,15064.0,5431.0,45.0,-17.0,38.0,1.0
2022-05-13 11:58:37.823029-07:00,2127.0,614.9,1391.2,1604.0,1134.0,1461.7,1409.4,1723.4,3450.4,3444.3,2229.1,1694.8,1684.3,3441.9,1314.2,1715.8,3449.1,3444.3,724.9,1395.7,939.0,613.3,1516.2,2074.5,3446.7,3445.5,801.9,1191.2,1474.6,1770.4,1437.8,1146.3,-2.0,4.0,5.0,-1031.0,2428.0,15641.0,4102.0,-6.0,26.0,31.0,5.0,1.0,19.0,3091.0,-1557.0,15070.0,5418.0,28.0,0.0,35.0,1.0
2022-05-13 11:58:37.867598-07:00,2127.0,614.9,1391.2,1607.7,1134.0,1453.4,1420.4,1711.9,3450.4,3444.3,2229.1,1694.8,1684.3,3444.3,1313.3,1717.7,3449.1,3437.0,723.3,1395.7,931.3,613.3,1516.2,2074.5,3452.8,3440.7,805.2,1191.2,1472.7,1770.4,1437.8,1146.3,-1.0,4.0,8.0,-1046.0,2436.0,15640.0,4100.0,7.0,73.0,16.0,0.0,2.0,11.0,3085.0,-1543.0,15076.0,5410.0,28.0,24.0,21.0,1.0
2022-05-13 11:58:38.004879-07:00,2138.2,608.4,1395.7,1604.0,1139.2,1453.4,1420.4,1711.9,3444.3,3440.7,2224.0,1695.7,1669.1,3444.3,1313.3,1717.7,3449.1,3437.0,723.3,1380.3,933.9,607.6,1519.0,2068.5,3452.8,3440.7,805.2,1184.1,1475.5,1779.1,1436.0,1145.4,-6.0,2.0,-13.0,-1084.0,2435.0,15639.0,4093.0,59.0,59.0,55.0,2.0,16.0,14.0,3072.0,-1534.0,15084.0,5398.0,49.0,33.0,30.0,1.0
2022-05-13 11:58:38.006350-07:00,2138.2,608.4,1395.7,1604.0,1140.1,1463.5,1405.8,1711.0,3444.3,3440.7,2224.0,1695.7,1688.1,3438.2,1321.4,1716.7,3438.2,3434.6,722.5,1385.7,933.9,607.6,1519.0,2068.5,3438.2,3445.5,801.0,1185.0,1475.5,1779.1,1436.0,1145.4,1.0,19.0,-22.0,-1107.0,2459.0,15640.0,4067.0,49.0,5.0,65.0,-9.0,12.0,-4.0,3057.0,-1522.0,15095.0,5378.0,47.0,18.0,30.0,1.0
2022-05-13 11:58:38.007503-07:00,2130.1,614.9,1397.6,1614.3,1140.1,1463.5,1405.8,1711.0,3444.3,3449.1,2224.0,1698.6,1688.1,3438.2,1321.4,1716.7,3438.2,3434.6,722.5,1385.7,934.7,606.8,1518.0,2083.6,3438.2,3445.5,801.0,1185.0,1489.3,1761.8,1435.0,1151.5,-1.0,21.0,-17.0,-1115.0,2477.0,15640.0,4054.0,21.0,21.0,2.0,-11.0,7.0,-3.0,3053.0,-1512.0,15101.0,5366.0,30.0,5.0,2.0,1.0
2022-05-13 11:58:38.047894-07:00,2130.1,614.9,1397.6,1614.3,1133.1,1453.4,1407.6,1711.0,3444.3,3449.1,2224.0,1698.6,1687.2,3437.0,1325.0,1716.7,3440.7,3444.3,717.5,1386.6,934.7,606.8,1518.0,2083.6,3446.7,3438.2,801.9,1185.0,1489.3,1761.8,1435.0,1151.5,-10.0,4.0,-14.0,-1119.0,2465.0,15644.0,4048.0,18.0,2.0,-24.0,-8.0,9.0,14.0,3055.0,-1511.0,15101.0,5364.0,12.0,-2.0,-7.0,1.0
2022-05-13 11:58:38.094874-07:00,2129.0,607.6,1395.7,1606.8,1133.1,1453.4,1407.6,1711.0,3437.0,3449.1,2225.0,1694.8,1687.2,3437.0,1325.0,1716.7,3440.7,3444.3,717.5,1386.6,934.7,607.6,1517.1,2072.5,3446.7,3438.2,801.9,1185.0,1473.6,1764.6,1431.4,1148.0,-4.0,4.0,-12.0,-1121.0,2468.0,15650.0,4020.0,78.0,-21.0,10.0,-2.0,2.0,5.0,3058.0,-1510.0,15106.0,5349.0,28.0,-4.0,0.0,1.0
2022-05-13 11:58:38.139930-07:00,2129.0,607.6,1395.7,1606.8,1131.4,1457.1,1409.4,1697.6,3437.0,3449.1,2225.0,1694.8,1681.4,3435.8,1318.7,1708.1,3449.1,3434.6,715.1,1387.5,934.7,607.6,1517.1,2072.5,3433.4,3449.1,806.0,1183.2,1473.6,1764.6,1431.4,1148.0,-3.0,-5.0,-10.0,-1119.0,2467.0,15656.0,4000.0,37.0,9.0,-1.0,-3.0,-3.0,9.0,3059.0,-1508.0,15109.0,5339.0,32.0,7.0,5.0,1.0
2022-05-13 11:58:38.230162-07:00,2126.0,619.7,1401.2,1611.5,1131.4,1457.1,1409.4,1707.2,3440.7,3441.9,2205.5,1694.8,1681.4,3435.8,1318.7,1712.9,3437.0,3434.6,715.1,1387.5,930.5,611.7,1518.0,2074.5,3444.3,3449.1,806.0,1183.2,1473.6,1783.9,1432.3,1142.7,2.0,10.0,-5.0,-1118.0,2474.0,15657.0,3990.0,0.0,-18.0,29.0,2.0,4.0,11.0,3058.0,-1502.0,15112.0,5334.0,2.0,-4.0,20.0,1.0
2022-05-13 11:58:38.318691-07:00,2139.2,619.7,1401.2,1611.5,1121.7,1456.2,1407.6,1707.2,3444.3,3441.9,2205.5,1694.8,1677.6,3440.7,1316.9,1712.9,3437.0,3438.2,725.8,1383.9,930.5,611.7,1518.0,2080.6,3444.3,3441.9,798.5,1177.0,1473.6,1783.9,1432.3,1155.9,1.0,4.0,7.0,-1116.0,2476.0,15653.0,4005.0,-45.0,4.0,-8.0,7.0,5.0,15.0,3055.0,-1494.0,15111.0,5341.0,-16.0,10.0,19.0,1.0
2022-05-13 11:58:38.320158-07:00,2139.2,608.4,1389.4,1603.0,1121.7,1456.2,1407.6,1698.6,3444.3,3454.0,2202.4,1695.7,1677.6,3440.7,1316.9,1712.9,3439.5,3438.2,725.8,1383.9,925.4,611.7,1506.9,2080.6,3444.3,3441.9,798.5,1177.0,1463.5,1765.6,1429.5,1155.9,-1.0,6.0,1.0,-1118.0,2476.0,15650.0,4018.0,-23.0,19.0,5.0,9.0,-2.0,9.0,3046.0,-1487.0,15113.0,5344.0,3.0,17.0,21.0,1.0
2022-05-13 11:58:38.364166-07:00,2127.0,608.4,1389.4,1603.0,1139.2,1448.8,1409.4,1698.6,3449.1,3454.0,2202.4,1695.7,1681.4,3445.5,1325.0,1712.9,3439.5,3449.1,720.8,1384.8,925.4,611.7,1506.9,2073.5,3444.3,3449.1,796.0,1182.3,1463.5,1765.6,1429.5,1151.5,1.0,-8.0,1.0,-1125.0,2473.0,15646.0,4033.0,-20.0,29.0,-8.0,4.0,-1.0,8.0,3033.0,-1480.0,15114.0,5350.0,-11.0,26.0,37.0,1.0
2022-05-13 11:58:38.408413-07:00,2127.0,612.5,1383.0,1613.4,1139.2,1448.8,1409.4,1696.7,3449.1,3441.9,2198.3,1703.3,1681.4,3445.5,1325.0,1711.9,3435.8,3449.1,720.8,1384.8,933.9,611.7,1503.2,2073.5,3445.5,3449.1,796.0,1182.3,1503.2,1760.8,1425.0,1151.5,-3.0,-2.0,0.0,-1140.0,2481.0,15643.0,4034.0,6.0,31.0,44.0,3.0,-4.0,7.0,3015.0,-1470.0,15118.0,5350.0,18.0,40.0,33.0,1.0
2022-05-13 11:58:38.498753-07:00,2119.9,610.8,1383.0,1613.4,1128.7,1467.2,1406.7,1696.7,3440.7,3438.2,2198.3,1703.3,1679.5,3439.5,1316.0,1711.9,3435.8,3438.2,724.1,1380.3,933.9,611.7,1500.4,2059.4,3445.5,3435.8,791.0,1167.4,1503.2,1760.8,1433.2,1145.4,0.0,7.0,-8.0,-1156.0,2488.0,15643.0,4024.0,35.0,31.0,11.0,7.0,7.0,5.0,2993.0,-1459.0,15125.0,5345.0,20.0,47.0,38.0,1.0
2022-05-13 11:58:38.500265-07:00,2119.9,610.8,1393.0,1612.4,1128.7,1467.2,1410.3,1695.7,3440.7,3438.2,2208.6,1701.4,1679.5,3439.5,1315.1,1710.0,3435.8,3439.5,724.1,1380.3,931.3,611.7,1500.4,2059.4,3449.1,3449.1,791.0,1167.4,1477.3,1772.3,1433.2,1145.4,5.0,14.0,-20.0,-1171.0,2494.0,15644.0,4016.0,2.0,32.0,40.0,-6.0,20.0,-4.0,2973.0,-1448.0,15133.0,5339.0,18.0,32.0,27.0,1.0
2022-05-13 11:58:38.542654-07:00,2118.9,617.3,1393.0,1612.4,1130.5,1452.5,1410.3,1695.7,3433.4,3437.0,2208.6,1701.4,1682.4,3450.4,1315.1,1710.0,3435.8,3439.5,725.8,1385.7,931.3,611.7,1497.7,2063.5,3449.1,3449.1,801.9,1170.9,1477.3,1772.3,1427.7,1134.0,-3.0,16.0,-23.0,-1188.0,2502.0,15638.0,4027.0,-33.0,31.0,5.0,-8.0,11.0,0.0,2958.0,-1441.0,15137.0,5338.0,-23.0,16.0,27.0,1.0
2022-05-13 11:58:38.589890-07:00,2118.9,617.3,1387.5,1609.6,1130.5,1452.5,1404.0,1691.0,3433.4,3437.0,2206.5,1694.8,1682.4,3450.4,1308.8,1706.2,3440.7,3441.9,725.8,1385.7,935.6,610.0,1497.7,2063.5,3449.1,3444.3,801.9,1170.9,1474.6,1773.3,1427.7,1134.0,0.0,8.0,-20.0,-1198.0,2506.0,15635.0,4035.0,13.0,30.0,30.0,-1.0,4.0,-3.0,2950.0,-1435.0,15138.0,5339.0,34.0,15.0,12.0,1.0
2022-05-13 11:58:38.679290-07:00,2119.9,613.3,1387.5,1609.6,1130.5,1447.9,1404.0,1691.0,3433.4,3449.1,2206.5,1694.8,1685.3,3435.8,1308.8,1706.2,3440.7,3441.9,715.9,1385.7,935.6,610.0,1494.9,2064.5,3449.1,3444.3,794.4,1175.3,1474.6,1773.3,1426.8,1143.6,-1.0,13.0,-10.0,-1200.0,2508.0,15635.0,4031.0,0.0,-13.0,2.0,-4.0,12.0,9.0,2946.0,-1430.0,15139.0,5339.0,-18.0,13.0,10.0,1.0
2022-05-13 11:58:38.724164-07:00,2119.9,613.3,1391.2,1608.7,1130.5,1447.9,1406.7,1687.2,3433.4,3449.1,2202.4,1697.6,1685.3,3435.8,1310.6,1706.2,3439.5,3444.3,715.9,1385.7,939.8,607.6,1494.9,2064.5,3439.5,3435.8,794.4,1175.3,1471.8,1771.4,1426.8,1143.6,-7.0,-8.0,3.0,-1198.0,2509.0,15634.0,4036.0,-15.0,-1.0,-5.0,0.0,-5.0,11.0,2942.0,-1429.0,15138.0,5346.0,-18.0,5.0,14.0,1.0
2022-05-13 11:58:38.769189-07:00,2126.0,610.8,1397.6,1608.7,1135.7,1457.1,1406.7,1687.2,3438.2,3446.7,2206.5,1697.6,1689.1,3447.9,1310.6,1706.2,3439.5,3444.3,718.4,1383.9,939.8,606.8,1496.7,2066.5,3439.5,3435.8,797.7,1172.6,1471.8,1772.3,1432.3,1145.4,-4.0,1.0,-1.0,-1212.0,2505.0,15631.0,4044.0,-30.0,71.0,-5.0,-1.0,-4.0,11.0,2934.0,-1425.0,15138.0,5353.0,-22.0,22.0,28.0,1.0
2022-05-13 11:58:38.812298-07:00,2126.0,610.8,1397.6,1610.5,1135.7,1450.6,1393.0,1686.2,3438.2,3446.7,2206.5,1694.8,1689.1,3451.6,1327.8,1718.6,3444.3,3434.6,720.0,1383.9,933.0,606.8,1496.7,2066.5,3449.1,3439.5,801.9,1172.6,1475.5,1772.3,1432.3,1145.4,-16.0,0.0,11.0,-1236.0,2496.0,15626.0,4062.0,-45.0,63.0,-14.0,1.0,-18.0,27.0,2913.0,-1421.0,15138.0,5365.0,-55.0,64.0,42.0,1.0
2022-05-13 11:58:38.859184-07:00,2120.9,611.7,1401.2,1610.5,1129.6,1450.6,1393.0,1686.2,3433.4,3439.5,2198.3,1694.8,1679.5,3451.6,1327.8,1718.6,3444.3,3434.6,720.0,1374.8,933.0,610.0,1494.0,2062.5,3449.1,3439.5,801.9,1168.2,1475.5,1780.1,1427.7,1140.1,-31.0,-31.0,42.0,-1257.0,2489.0,15621.0,4081.0,-26.0,62.0,3.0,7.0,-40.0,43.0,2868.0,-1413.0,15139.0,5388.0,-48.0,127.0,86.0,1.0
2022-05-13 11:58:38.904121-07:00,2120.9,611.7,1401.2,1607.7,1129.6,1448.8,1390.3,1691.9,3433.4,3439.5,2198.3,1699.5,1679.5,3439.5,1307.0,1702.4,3438.2,3431.0,724.1,1374.8,937.3,610.0,1494.0,2062.5,3433.4,3445.5,796.0,1168.2,1468.1,1780.1,1427.7,1140.1,-45.0,-79.0,76.0,-1306.0,2468.0,15611.0,4114.0,-75.0,198.0,-25.0,7.0,-73.0,56.0,2783.0,-1390.0,15146.0,5420.0,-104.0,220.0,225.0,1.0
2022-05-13 11:58:38.993496-07:00,2127.0,618.1,1387.5,1607.7,1131.4,1448.8,1390.3,1691.9,3437.0,3438.2,2200.4,1699.5,1675.7,3439.5,1307.0,1702.4,3438.2,3431.0,724.1,1379.4,937.3,610.0,1493.0,2064.5,3433.4,3445.5,796.0,1169.1,1468.1,1772.3,1429.5,1148.9,-45.0,-76.0,77.0,-1424.0,2465.0,15591.0,4154.0,-68.0,346.0,132.0,23.0,-61.0,67.0,2634.0,-1319.0,15163.0,5464.0,-41.0,337.0,385.0,1.0
2022-05-13 11:58:38.995609-07:00,2127.0,618.1,1387.5,1607.7,1140.1,1436.9,1402.1,1684.3,3437.0,3438.2,2200.4,1688.1,1677.6,3445.5,1307.0,1700.5,3444.3,3432.2,718.4,1375.7,935.6,610.0,1493.0,2064.5,3439.5,3439.5,798.5,1167.4,1476.4,1772.3,1429.5,1148.9,-24.0,-30.0,33.0,-1577.0,2513.0,15572.0,4139.0,124.0,280.0,250.0,34.0,-15.0,57.0,2416.0,-1203.0,15205.0,5473.0,115.0,444.0,455.0,1.0
2022-05-13 11:58:39.039891-07:00,2116.9,614.9,1383.0,1604.9,1140.1,1436.9,1402.1,1684.3,3439.5,3444.3,2212.7,1691.0,1677.6,3445.5,1307.0,1700.5,3444.3,3432.2,718.4,1375.7,933.0,610.0,1494.9,2067.5,3439.5,3439.5,798.5,1167.4,1476.4,1765.6,1425.9,1146.3,18.0,23.0,-26.0,-1685.0,2613.0,15569.0,4047.0,294.0,44.0,329.0,16.0,39.0,-47.0,2178.0,-1090.0,15270.0,5415.0,235.0,465.0,342.0,1.0
2022-05-13 11:58:39.084796-07:00,2116.9,614.9,1383.0,1604.9,1134.9,1433.2,1385.7,1678.6,3439.5,3444.3,2212.7,1691.0,1681.4,3439.5,1309.7,1711.0,3434.6,3437.0,721.6,1364.8,933.0,610.0,1494.9,2067.5,3441.9,3438.2,801.0,1163.0,1476.4,1765.6,1425.9,1146.3,52.0,99.0,-83.0,-1779.0,2689.0,15575.0,3932.0,196.0,203.0,149.0,-9.0,73.0,-66.0,1973.0,-1028.0,15330.0,5337.0,138.0,340.0,185.0,1.0
2022-05-13 11:58:39.174377-07:00,2110.8,606.8,1386.6,1608.7,1134.9,1433.2,1385.7,1678.6,3444.3,3443.1,2225.0,1701.4,1681.4,3439.5,1309.7,1711.0,3434.6,3437.0,721.6,1364.8,929.6,608.4,1501.4,2054.4,3441.9,3438.2,801.0,1163.0,1476.4,1769.5,1428.6,1141.0,31.0,95.0,-75.0,-1864.0,2673.0,15569.0,3925.0,-34.0,185.0,-51.0,-24.0,78.0,-47.0,1837.0,-1007.0,15356.0,5314.0,-34.0,226.0,79.0,1.0
2022-05-13 11:58:39.219176-07:00,2110.8,606.8,1386.6,1608.7,1124.4,1435.0,1383.0,1678.6,3444.3,3443.1,2225.0,1701.4,1679.5,3445.5,1310.6,1711.0,3437.0,3449.1,722.5,1371.2,929.6,608.4,1501.4,2054.4,3444.3,3439.5,799.4,1161.2,1476.4,1769.5,1428.6,1141.0,-1.0,55.0,-62.0,-1925.0,2627.0,15551.0,3999.0,-129.0,179.0,-65.0,-18.0,52.0,-29.0,1750.0,-1017.0,15352.0,5352.0,-106.0,169.0,29.0,1.0
2022-05-13 11:58:39.263472-07:00,2119.9,607.6,1381.2,1609.6,1124.4,1435.0,1383.0,1663.4,3446.7,3431.0,2222.9,1703.3,1679.5,3445.5,1310.6,1706.2,3434.6,3449.1,722.5,1371.2,928.8,601.2,1497.7,2056.4,3445.5,3439.5,799.4,1161.2,1472.7,1773.3,1430.5,1161.2,8.0,9.0,-37.0,-1990.0,2598.0,15535.0,4048.0,6.0,184.0,-14.0,-13.0,10.0,-8.0,1683.0,-1031.0,15346.0,5390.0,-14.0,139.0,35.0,1.0
2022-05-13 11:58:39.309143-07:00,2126.0,607.6,1381.2,1609.6,1133.1,1441.5,1386.6,1663.4,3441.9,3431.0,2222.9,1703.3,1693.8,3437.0,1318.7,1706.2,3434.6,3439.5,711.8,1365.7,928.8,601.2,1497.7,2059.4,3445.5,3444.3,784.4,1163.8,1472.7,1773.3,1430.5,1144.5,1.0,31.0,-36.0,-2042.0,2581.0,15537.0,4026.0,75.0,77.0,5.0,-6.0,22.0,-17.0,1628.0,-1037.0,15352.0,5387.0,4.0,109.0,21.0,1.0
2022-05-13 11:58:39.353713-07:00,2126.0,604.4,1390.3,1608.7,1133.1,1441.5,1386.6,1671.9,3441.9,3438.2,2231.1,1701.4,1693.8,3437.0,1318.7,1706.2,3441.9,3439.5,711.8,1365.7,930.5,607.6,1496.7,2059.4,3443.1,3444.3,784.4,1163.8,1485.6,1774.3,1427.7,1144.5,4.0,6.0,-33.0,-2065.0,2573.0,15536.0,4022.0,-8.0,34.0,-10.0,3.0,-2.0,-11.0,1594.0,-1044.0,15354.0,5391.0,-18.0,53.0,9.0,1.0
2022-05-13 11:58:39.397603-07:00,2116.9,604.4,1390.3,1608.7,1133.1,1437.8,1383.0,1671.9,3441.9,3438.2,2231.1,1701.4,1679.5,3444.3,1315.1,1706.2,3441.9,3440.7,721.6,1362.1,930.5,607.6,1496.7,2060.5,3443.1,3445.5,798.5,1155.9,1485.6,1774.3,1427.7,1138.4,0.0,-18.0,-14.0,-2059.0,2572.0,15536.0,4028.0,-15.0,0.0,7.0,1.0,-16.0,0.0,1576.0,-1044.0,15351.0,5403.0,-30.0,32.0,26.0,1.0
2022-05-13 11:58:39.443923-07:00,2116.9,608.4,1390.3,1612.4,1133.1,1437.8,1383.0,1656.8,3441.9,3439.5,2234.2,1710.0,1679.5,3444.3,1315.1,1711.0,3444.3,3440.7,721.6,1362.1,928.8,611.7,1502.3,2060.5,3449.1,3445.5,798.5,1155.9,1476.4,1768.5,1430.5,1138.4,-15.0,-12.0,6.0,-2060.0,2584.0,15535.0,4024.0,19.0,10.0,62.0,-5.0,-12.0,11.0,1557.0,-1032.0,15354.0,5404.0,11.0,42.0,51.0,1.0
2022-05-13 11:58:39.578923-07:00,2116.9,608.4,1390.3,1612.4,1127.0,1426.8,1383.0,1656.8,3449.1,3439.5,2234.2,1710.0,1675.7,3443.1,1303.4,1711.0,3444.3,3445.5,720.8,1355.8,928.8,611.7,1502.3,2058.4,3449.1,3438.2,796.0,1159.4,1476.4,1768.5,1430.5,1137.5,-3.0,16.0,1.0,-2079.0,2607.0,15532.0,4008.0,17.0,38.0,47.0,4.0,0.0,3.0,1528.0,-1018.0,15361.0,5393.0,18.0,58.0,48.0,1.0
2022-05-13 11:58:39.580337-07:00,2116.9,605.2,1386.6,1611.5,1127.0,1426.8,1377.5,1667.2,3449.1,3435.8,2239.4,1709.1,1675.7,3443.1,1310.6,1720.5,3433.4,3433.4,720.8,1355.8,927.9,607.6,1494.9,2058.4,3446.7,3431.0,796.0,1159.4,1473.6,1771.4,1432.3,1137.5,6.0,3.0,-10.0,-2105.0,2614.0,15526.0,4015.0,-34.0,84.0,34.0,3.0,1.0,1.0,1500.0,-1010.0,15364.0,5395.0,1.0,50.0,36.0,1.0
2022-05-13 11:58:39.581496-07:00,2123.0,606.8,1386.6,1611.5,1128.7,1428.6,1377.5,1667.2,3441.9,3439.5,2239.4,1709.1,1684.3,3437.0,1310.6,1720.5,3433.4,3433.4,718.4,1359.4,927.9,607.6,1491.2,2065.5,3446.7,3431.0,794.4,1156.8,1473.6,1771.4,1428.6,1139.2,4.0,6.0,-4.0,-2134.0,2624.0,15515.0,4035.0,-31.0,51.0,23.0,5.0,0.0,-1.0,1477.0,-1001.0,15366.0,5399.0,-16.0,40.0,35.0,1.0
2022-05-13 11:58:39.668827-07:00,2123.0,606.8,1387.5,1612.4,1128.7,1428.6,1367.6,1653.0,3441.9,3439.5,2233.2,1718.6,1684.3,3437.0,1300.7,1707.2,3446.7,3443.1,718.4,1359.4,933.0,609.2,1491.2,2065.5,3445.5,3443.1,794.4,1156.8,1472.7,1762.7,1428.6,1139.2,-10.0,7.0,-9.0,-2155.0,2629.0,15509.0,4044.0,9.0,30.0,37.0,-3.0,0.0,2.0,1454.0,-993.0,15369.0,5398.0,11.0,47.0,38.0,1.0
2022-05-13 11:58:39.758754-07:00,2122.0,599.6,1387.5,1612.4,1125.2,1430.5,1367.6,1653.0,3438.2,3451.6,2233.2,1718.6,1688.1,3443.1,1300.7,1707.2,3446.7,3443.1,721.6,1365.7,933.0,609.2,1491.2,2059.4,3445.5,3443.1,792.7,1153.3,1472.7,1762.7,1430.5,1109.5,-10.0,16.0,-18.0,-2180.0,2636.0,15507.0,4034.0,38.0,70.0,12.0,-2.0,3.0,2.0,1428.0,-987.0,15376.0,5386.0,33.0,54.0,31.0,1.0
2022-05-13 11:58:39.760113-07:00,2122.0,599.6,1387.5,1609.6,1125.2,1430.5,1377.5,1661.5,3438.2,3451.6,2248.7,1712.9,1688.1,3443.1,1307.9,1704.3,3433.4,3441.9,721.6,1365.7,928.8,609.2,1491.2,2059.4,3443.1,3444.3,792.7,1153.3,1471.8,1775.2,1430.5,1109.5,72.0,24.0,-45.0,-2187.0,2635.0,15509.0,4021.0,74.0,-142.0,-33.0,-3.0,43.0,-69.0,1400.0,-981.0,15381.0,5380.0,18.0,47.0,26.0,1.0
2022-05-13 11:58:39.804157-07:00,2114.9,609.2,1389.4,1609.6,1127.9,1440.5,1377.5,1661.5,3439.5,3440.7,2229.1,1712.9,1679.5,3444.3,1307.9,1704.3,3433.4,3441.9,721.6,1359.4,928.8,607.6,1506.0,2051.4,3443.1,3444.3,792.7,1158.6,1471.8,1767.5,1426.8,1127.0,-13.0,0.0,-32.0,-2178.0,2631.0,15516.0,4003.0,7.0,16.0,-5.0,-26.0,-8.0,-14.0,1399.0,-978.0,15383.0,5374.0,-2.0,-27.0,-6.0,1.0
2022-05-13 11:58:39.849268-07:00,2114.9,609.2,1389.4,1604.9,1127.9,1431.4,1388.5,1665.3,3439.5,3440.7,2229.1,1714.8,1679.5,3444.3,1302.5,1705.3,3428.6,3434.6,722.5,1359.4,931.3,607.6,1506.0,2051.4,3449.1,3449.1,792.7,1158.6,1468.1,1767.5,1426.8,1127.0,-9.0,-2.0,-7.0,-2197.0,2626.0,15514.0,4005.0,-21.0,42.0,8.0,5.0,1.0,14.0,1412.0,-973.0,15382.0,5374.0,-8.0,-24.0,16.0,1.0
2022-05-13 11:58:39.894846-07:00,2118.9,609.2,1393.0,1604.9,1125.2,1431.4,1388.5,1665.3,3439.5,3434.6,2230.1,1714.8,1689.1,3444.3,1302.5,1705.3,3428.6,3434.6,722.5,1360.3,931.3,601.2,1503.2,2061.5,3449.1,3449.1,792.7,1154.2,1468.1,1763.7,1425.9,1135.7,-3.0,-21.0,-4.0,-2198.0,2629.0,15506.0,4034.0,-75.0,-12.0,26.0,10.0,-8.0,9.0,1406.0,-955.0,15373.0,5405.0,-64.0,-3.0,68.0,1.0
2022-05-13 11:58:39.983786-07:00,2118.9,609.2,1393.0,1608.7,1125.2,1426.8,1374.8,1651.1,3439.5,3434.6,2230.1,1698.6,1689.1,3439.5,1308.8,1714.8,3441.9,3428.6,711.8,1360.3,929.6,601.2,1503.2,2061.5,3451.6,3438.2,788.6,1154.2,1474.6,1763.7,1425.9,1135.7,6.0,6.0,6.0,-2185.0,2658.0,15498.0,4051.0,-75.0,-96.0,81.0,13.0,4.0,10.0,1392.0,-921.0,15369.0,5426.0,-39.0,-12.0,84.0,1.0
2022-05-13 11:58:39.985908-07:00,2107.8,604.4,1393.0,1608.7,1127.9,1426.8,1374.8,1651.1,3441.9,3441.9,2211.6,1698.6,1681.4,3439.5,1308.8,1714.8,3441.9,3428.6,711.8,1360.3,929.6,608.4,1507.8,2056.4,3451.6,3438.2,788.6,1157.7,1474.6,1755.0,1430.5,1135.7,20.0,78.0,-5.0,-2146.0,2706.0,15492.0,4064.0,-9.0,-81.0,34.0,23.0,54.0,-5.0,1382.0,-891.0,15367.0,5438.0,9.0,5.0,46.0,1.0
2022-05-13 11:58:40.029526-07:00,2107.8,604.4,1393.0,1613.4,1124.4,1422.2,1372.1,1651.1,3441.9,3441.9,2211.6,1689.1,1672.9,3441.9,1310.6,1706.2,3440.7,3437.0,720.0,1357.6,932.2,608.4,1507.8,2056.4,3440.7,3438.2,791.9,1153.3,1477.3,1755.0,1430.5,1135.7,60.0,59.0,21.0,-2116.0,2718.0,15488.0,4085.0,-101.0,-46.0,-33.0,70.0,43.0,9.0,1381.0,-893.0,15360.0,5460.0,-68.0,-11.0,-31.0,1.0
2022-05-13 11:58:40.118288-07:00,2106.8,606.8,1397.6,1612.4,1124.4,1422.2,1372.1,1651.1,3443.1,3437.0,2234.2,1683.3,1672.9,3441.9,1310.6,1706.2,3440.7,3437.0,720.0,1357.6,934.7,606.8,1526.4,2052.4,3440.7,3438.2,791.9,1153.3,1470.0,1749.3,1409.4,1138.4,87.0,54.0,43.0,-2087.0,2709.0,15465.0,4191.0,-442.0,-104.0,-168.0,98.0,32.0,13.0,1383.0,-906.0,15324.0,5558.0,-381.0,-93.0,-46.0,1.0
2022-05-13 11:58:40.164294-07:00,2106.8,606.8,1397.6,1612.4,1133.1,1416.7,1375.7,1650.2,3443.1,3437.0,2234.2,1683.3,1667.2,3438.2,1301.6,1707.2,3441.9,3443.1,721.6,1360.3,934.7,606.8,1526.4,2052.4,3447.9,3439.5,786.1,1156.8,1470.0,1749.3,1409.4,1138.4,85.0,58.0,63.0,-1975.0,2657.0,15421.0,4436.0,-835.0,-135.0,-323.0,124.0,53.0,52.0,1431.0,-922.0,15224.0,5812.0,-798.0,-171.0,-11.0,1.0
2022-05-13 11:58:40.209497-07:00,2119.9,603.6,1385.7,1605.8,1133.1,1416.7,1375.7,1650.2,3433.4,3450.4,2230.1,1677.6,1667.2,3438.2,1301.6,1707.2,3441.9,3443.1,721.6,1360.3,927.1,605.2,1543.1,2046.4,3447.9,3439.5,786.1,1156.8,1468.1,1746.4,1400.3,1154.2,83.0,53.0,92.0,-1803.0,2595.0,15332.0,4837.0,-1124.0,-131.0,-280.0,114.0,46.0,49.0,1478.0,-923.0,15060.0,6212.0,-1060.0,-172.0,20.0,1.0
2022-05-13 11:58:40.387634-07:00,2119.9,603.6,1385.7,1605.8,1129.6,1419.5,1383.0,1648.3,3433.4,3450.4,2230.1,1677.6,1666.3,3428.6,1296.3,1704.3,3446.7,3441.9,719.2,1359.4,927.1,605.2,1543.1,2046.4,3443.1,3440.7,786.9,1149.8,1468.1,1746.4,1400.3,1154.2,62.0,94.0,72.0,-1668.0,2539.0,15220.0,5251.0,-751.0,-157.0,-385.0,91.0,77.0,58.0,1512.0,-942.0,14893.0,6593.0,-896.0,-114.0,-38.0,1.0
2022-05-13 11:58:40.433968-07:00,2133.1,606.0,1397.6,1603.0,1129.6,1419.5,1383.0,1648.3,3444.3,3441.9,2197.3,1667.2,1666.3,3428.6,1296.3,1704.3,3446.7,3441.9,719.2,1359.4,932.2,607.6,1544.1,2048.4,3443.1,3440.7,786.9,1149.8,1473.6,1737.8,1395.7,1163.0,11.0,101.0,44.0,-1474.0,2416.0,15126.0,5624.0,-1017.0,-127.0,-642.0,16.0,28.0,27.0,1513.0,-1013.0,14686.0,7032.0,-1251.0,19.0,-120.0,1.0
2022-05-13 11:58:40.435535-07:00,2128.0,606.0,1397.6,1603.0,1132.2,1398.5,1371.2,1649.2,3440.7,3441.9,2197.3,1667.2,1660.6,3449.1,1291.8,1696.7,3433.4,3444.3,711.8,1359.4,932.2,607.6,1544.1,2038.4,3449.1,3438.2,791.0,1148.0,1473.6,1737.8,1395.7,1148.0,-50.0,33.0,30.0,-1268.0,2166.0,15026.0,6028.0,-934.0,-71.0,-809.0,-36.0,20.0,54.0,1467.0,-1155.0,14458.0,7478.0,-1156.0,201.0,-208.0,1.0
2022-05-13 11:58:40.438927-07:00,2128.0,607.6,1409.4,1612.4,1132.2,1398.5,1371.2,1648.3,3440.7,3443.1,2182.0,1664.4,1660.6,3449.1,1291.8,1699.5,3439.5,3444.3,711.8,1359.4,926.2,606.8,1548.7,2038.4,3438.2,3438.2,791.0,1148.0,1470.9,1742.6,1395.7,1148.0,-8.0,28.0,47.0,-1066.0,1893.0,14916.0,6420.0,-958.0,-52.0,-789.0,-6.0,-32.0,17.0,1345.0,-1350.0,14204.0,7940.0,-1358.0,404.0,-215.0,1.0
2022-05-13 11:58:40.478031-07:00,2110.8,607.6,1409.4,1612.4,1134.0,1393.0,1380.3,1648.3,3434.6,3443.1,2182.0,1664.4,1663.4,3446.7,1291.8,1699.5,3439.5,3441.9,721.6,1358.5,926.2,606.8,1548.7,2033.4,3438.2,3444.3,782.7,1140.1,1470.9,1742.6,1395.7,1154.2,2.0,73.0,39.0,-920.0,1455.0,14783.0,6850.0,-1079.0,498.0,-1362.0,-55.0,-14.0,-13.0,1159.0,-1590.0,13875.0,8489.0,-1751.0,520.0,-238.0,1.0
2022-05-13 11:58:40.657989-07:00,2110.8,605.2,1416.7,1607.7,1134.0,1393.0,1380.3,1651.1,3434.6,3438.2,2180.9,1661.5,1663.4,3446.7,1291.8,1701.4,3432.2,3441.9,721.6,1358.5,928.8,608.4,1540.3,2033.4,3435.8,3444.3,782.7,1140.1,1481.9,1738.7,1389.4,1154.2,-52.0,53.0,-3.0,-889.0,684.0,14510.0,7525.0,-2016.0,1001.0,-1856.0,-69.0,-22.0,0.0,879.0,-1865.0,13323.0,9310.0,-2844.0,665.0,-132.0,1.0
2022-05-13 11:58:40.659394-07:00,2127.0,605.2,1416.7,1607.7,1132.2,1404.0,1374.8,1651.1,3445.5,3438.2,2180.9,1661.5,1661.5,3438.2,1297.2,1701.4,3432.2,3432.2,720.0,1361.2,928.8,608.4,1540.3,2036.4,3435.8,3434.6,782.7,1138.4,1481.9,1738.7,1389.4,1148.9,-49.0,-174.0,-99.0,-890.0,-305.0,13946.0,8547.0,-2744.0,1348.0,-2154.0,-137.0,-127.0,-39.0,462.0,-2101.0,12558.0,10301.0,-2890.0,811.0,139.0,1.0
2022-05-13 11:58:40.661893-07:00,2127.0,611.7,1429.5,1613.4,1132.2,1404.0,1375.7,1651.1,3445.5,3441.9,2159.5,1654.9,1661.5,3438.2,1276.5,1695.7,3439.5,3437.0,720.0,1361.2,931.3,605.2,1541.3,2036.4,3449.1,3441.9,782.7,1138.4,1478.3,1733.0,1391.2,1148.9,-2.0,-208.0,-231.0,-1019.0,-1170.0,13312.0,9424.0,-2018.0,1199.0,-1227.0,-151.0,-21.0,-97.0,8.0,-2265.0,11944.0,10984.0,-1733.0,754.0,283.0,1.0
2022-05-13 11:58:40.663074-07:00,2123.0,605.2,1429.5,1613.4,1141.0,1402.1,1375.7,1651.1,3441.9,3443.1,2159.5,1654.9,1653.0,3437.0,1276.5,1695.7,3439.5,3437.0,721.6,1356.7,931.3,605.2,1578.6,2039.4,3449.1,3441.9,784.4,1156.8,1478.3,1733.0,1381.2,1147.1,-29.0,95.0,-404.0,-1341.0,-1484.0,12994.0,9778.0,-444.0,661.0,389.0,-132.0,184.0,-132.0,-265.0,-2303.0,11763.0,11167.0,-203.0,243.0,224.0,1.0
2022-05-13 11:58:40.703994-07:00,2123.0,605.2,1415.8,1622.8,1141.0,1402.1,1372.1,1644.5,3441.9,3443.1,2232.2,1681.4,1653.0,3437.0,1325.9,1716.7,3439.5,3439.5,721.6,1356.7,930.5,609.2,1578.6,2039.4,3447.9,3444.3,784.4,1156.8,1472.7,1739.7,1381.2,1147.1,-49.0,17.0,-222.0,-1482.0,-1316.0,12958.0,9829.0,-207.0,-375.0,290.0,-84.0,-11.0,-84.0,-310.0,-2198.0,11713.0,11239.0,-177.0,-325.0,225.0,1.0
2022-05-13 11:58:40.748329-07:00,2236.3,614.1,1415.8,1622.8,1141.9,1400.3,1372.1,1644.5,3435.8,3438.2,2232.2,1681.4,1667.2,3443.1,1325.9,1716.7,3439.5,3439.5,720.8,1352.1,930.5,609.2,1606.8,2045.4,3447.9,3444.3,775.3,1155.0,1472.7,1739.7,1390.3,1150.6,47.0,-203.0,43.0,-1268.0,-1090.0,12984.0,9852.0,292.0,-724.0,209.0,1.0,-91.0,-38.0,-241.0,-2043.0,11816.0,11162.0,616.0,-296.0,177.0,1.0
2022-05-13 11:58:40.838155-07:00,2236.3,614.1,1411.3,1609.6,1141.9,1400.3,1368.5,1642.6,3435.8,3438.2,2192.2,1661.5,1667.2,3443.1,1288.2,1709.1,3432.2,3437.0,720.8,1352.1,925.4,613.3,1606.8,2045.4,3444.3,3449.1,775.3,1155.0,1473.6,1741.6,1390.3,1150.6,55.0,-9.0,101.0,-1260.0,-792.0,13209.0,9579.0,1003.0,-172.0,782.0,20.0,-37.0,-11.0,-195.0,-1918.0,12112.0,10864.0,1128.0,-136.0,255.0,1.0
2022-05-13 11:58:40.884708-07:00,2224.0,617.3,1411.3,1609.6,1130.5,1383.0,1368.5,1642.6,3440.7,3439.5,2192.2,1661.5,1658.7,3441.9,1288.2,1709.1,3432.2,3437.0,722.5,1344.9,925.4,613.3,1577.7,2046.4,3444.3,3449.1,776.1,1132.2,1473.6,1741.6,1382.1,1150.6,0.0,172.0,-20.0,-1488.0,-621.0,13468.0,9190.0,880.0,285.0,689.0,7.0,124.0,62.0,-210.0,-1825.0,12397.0,10553.0,733.0,-1.0,249.0,1.0
2022-05-13 11:58:40.886718-07:00,2224.0,617.3,1390.3,1608.7,1130.5,1372.1,1368.5,1628.4,3440.7,3439.5,2150.4,1649.2,1658.7,3441.9,1276.5,1700.5,3434.6,3437.0,716.7,1344.9,933.9,614.9,1577.7,2046.4,3441.9,3443.1,781.9,1132.2,1470.0,1725.3,1382.1,1150.6,-4.0,179.0,-97.0,-1690.0,-528.0,13585.0,8986.0,278.0,195.0,260.0,-29.0,76.0,-4.0,-235.0,-1787.0,12517.0,10417.0,171.0,5.0,67.0,1.0
2022-05-13 11:58:40.929896-07:00,2191.2,618.1,1389.4,1608.7,1134.0,1372.1,1368.5,1628.4,3438.2,3441.9,2136.1,1649.2,1662.5,3441.9,1276.5,1700.5,3434.6,3437.0,716.7,1345.8,933.9,611.7,1549.7,2046.4,3441.9,3443.1,781.9,1135.7,1470.0,1732.0,1381.2,1146.3,13.0,57.0,-24.0,-1628.0,-597.0,13511.0,9105.0,-734.0,-192.0,-472.0,14.0,59.0,25.0,-249.0,-1766.0,12394.0,10567.0,-862.0,-70.0,23.0,1.0
2022-05-13 11:58:40.974741-07:00,2191.2,618.1,1389.4,1610.5,1134.0,1364.8,1360.3,1618.1,3438.2,3441.9,2136.1,1648.3,1662.5,3450.4,1265.8,1696.7,3439.5,3437.0,719.2,1345.8,922.0,611.7,1549.7,2046.4,3443.1,3445.5,773.6,1135.7,1478.3,1732.0,1381.2,1146.3,14.0,-138.0,4.0,-1484.0,-660.0,13314.0,9410.0,-553.0,-125.0,-208.0,7.0,-46.0,10.0,-272.0,-1730.0,12175.0,10823.0,-429.0,-42.0,26.0,1.0
2022-05-13 11:58:41.062909-07:00,2196.3,601.2,1397.6,1610.5,1134.9,1364.8,1360.3,1618.1,3438.2,3439.5,2128.0,1648.3,1657.7,3450.4,1265.8,1696.7,3439.5,3437.0,719.2,1353.1,922.0,607.6,1547.8,2047.4,3443.1,3445.5,773.6,1127.9,1478.3,1732.0,1382.1,1137.5,1.0,-32.0,3.0,-1508.0,-585.0,13366.0,9336.0,531.0,-34.0,384.0,10.0,-20.0,22.0,-268.0,-1736.0,12250.0,10737.0,571.0,53.0,7.0,1.0
2022-05-13 11:58:41.107774-07:00,2196.3,601.2,1397.6,1612.4,1134.9,1369.4,1366.6,1615.2,3438.2,3439.5,2128.0,1642.6,1657.7,3446.7,1263.1,1696.7,3434.6,3438.2,729.0,1353.1,927.9,607.6,1547.8,2047.4,3441.9,3440.7,769.5,1127.9,1477.3,1732.0,1382.1,1137.5,7.0,54.0,-18.0,-1595.0,-483.0,13497.0,9136.0,403.0,66.0,269.0,-11.0,24.0,-11.0,-264.0,-1748.0,12390.0,10574.0,348.0,38.0,19.0,1.0
2022-05-13 11:58:41.153095-07:00,2189.1,606.8,1389.4,1602.1,1129.6,1369.4,1366.6,1615.2,3447.9,3439.5,2111.8,1636.9,1642.6,3446.7,1263.1,1696.7,3434.6,3438.2,729.0,1348.5,923.7,606.0,1545.0,2040.4,3441.9,3440.7,769.5,1127.9,1466.3,1721.5,1377.5,1147.1,1.0,53.0,-55.0,-1630.0,-471.0,13518.0,9101.0,-117.0,-5.0,-28.0,-4.0,28.0,-4.0,-261.0,-1742.0,12404.0,10558.0,-114.0,-42.0,3.0,1.0
2022-05-13 11:58:41.199283-07:00,2189.1,606.8,1389.4,1602.1,1132.2,1360.3,1367.6,1618.1,3447.9,3439.5,2111.8,1636.9,1653.9,3443.1,1262.2,1697.6,3440.7,3443.1,722.5,1357.6,923.7,606.0,1545.0,2040.4,3440.7,3454.0,774.5,1118.2,1466.3,1721.5,1377.5,1147.1,1.0,-18.0,-19.0,-1592.0,-484.0,13471.0,9176.0,-162.0,-68.0,-96.0,-2.0,-3.0,0.0,-247.0,-1727.0,12360.0,10612.0,-116.0,-55.0,-18.0,1.0
2022-05-13 11:58:41.333963-07:00,2209.6,607.6,1389.4,1610.5,1132.2,1360.3,1367.6,1618.1,3446.7,3443.1,2111.8,1635.0,1653.9,3443.1,1262.2,1697.6,3440.7,3443.1,722.5,1357.6,925.4,608.4,1545.0,2038.4,3440.7,3454.0,774.5,1118.2,1476.4,1725.3,1378.5,1141.9,8.0,-37.0,-7.0,-1572.0,-464.0,13474.0,9177.0,105.0,-42.0,83.0,1.0,-14.0,0.0,-230.0,-1720.0,12361.0,10613.0,87.0,-32.0,-4.0,1.0
2022-05-13 11:58:41.335407-07:00,2209.6,607.6,1389.4,1610.5,1128.7,1364.8,1363.0,1608.7,3446.7,3443.1,2111.8,1635.0,1664.4,3437.0,1256.9,1694.8,3445.5,3435.8,718.4,1347.6,925.4,608.4,1545.0,2038.4,3446.7,3439.5,764.5,1117.4,1476.4,1725.3,1378.5,1141.9,-6.0,17.0,-11.0,-1593.0,-428.0,13519.0,9107.0,176.0,-26.0,109.0,0.0,10.0,17.0,-218.0,-1717.0,12408.0,10558.0,181.0,4.0,-1.0,1.0
2022-05-13 11:58:41.336574-07:00,2185.0,610.0,1393.9,1616.2,1128.7,1364.8,1363.0,1608.7,3444.3,3444.3,2084.6,1637.9,1664.4,3437.0,1256.9,1694.8,3445.5,3435.8,718.4,1347.6,927.9,601.2,1539.4,2031.4,3446.7,3439.5,764.5,1117.4,1474.6,1729.1,1373.0,1143.6,0.0,17.0,-8.0,-1596.0,-415.0,13533.0,9087.0,-26.0,3.0,-1.0,-7.0,13.0,6.0,-217.0,-1719.0,12428.0,10535.0,-5.0,14.0,-7.0,1.0
2022-05-13 11:58:41.469938-07:00,2177.9,610.0,1393.9,1616.2,1129.6,1360.3,1368.5,1623.7,3440.7,3444.3,2084.6,1637.9,1659.6,3441.9,1262.2,1695.7,3435.8,3440.7,718.4,1348.5,927.9,601.2,1539.4,2023.4,3449.1,3440.7,772.8,1122.6,1474.6,1729.1,1373.0,1144.5,-9.0,-5.0,-19.0,-1601.0,-420.0,13532.0,9088.0,-3.0,8.0,10.0,-8.0,6.0,6.0,-220.0,-1727.0,12426.0,10536.0,17.0,21.0,-10.0,1.0
2022-05-13 11:58:41.471197-07:00,2177.9,606.0,1388.5,1604.9,1129.6,1360.3,1368.5,1607.7,3440.7,3443.1,2101.7,1631.3,1659.6,3441.9,1262.2,1691.0,3438.2,3440.7,718.4,1348.5,920.3,612.5,1534.8,2023.4,3449.1,3440.7,772.8,1122.6,1477.3,1726.3,1371.2,1144.5,1.0,-5.0,-20.0,-1607.0,-414.0,13538.0,9077.0,22.0,10.0,24.0,-6.0,0.0,0.0,-224.0,-1732.0,12433.0,10527.0,31.0,15.0,5.0,1.0
2022-05-13 11:58:41.558630-07:00,2177.9,606.0,1388.5,1604.9,1127.9,1357.6,1366.6,1607.7,3449.1,3443.1,2101.7,1631.3,1646.4,3449.1,1252.4,1691.0,3438.2,3438.2,720.8,1345.8,920.3,612.5,1534.8,2026.4,3449.1,3440.7,773.6,1118.2,1477.3,1726.3,1371.2,1148.0,3.0,3.0,-23.0,-1596.0,-396.0,13545.0,9070.0,-18.0,-65.0,21.0,-3.0,7.0,1.0,-223.0,-1733.0,12438.0,10521.0,-2.0,-9.0,7.0,1.0
2022-05-13 11:58:41.560001-07:00,2177.9,613.3,1387.5,1603.0,1127.9,1357.6,1366.6,1611.5,3449.1,3447.9,2113.9,1619.9,1646.4,3449.1,1252.4,1688.1,3439.5,3438.2,720.8,1345.8,934.7,606.8,1536.6,2026.4,3437.0,3440.7,773.6,1118.2,1467.2,1727.2,1373.9,1148.0,-1.0,-8.0,-9.0,-1589.0,-375.0,13546.0,9071.0,13.0,-19.0,36.0,-1.0,-2.0,1.0,-218.0,-1729.0,12436.0,10523.0,13.0,-14.0,8.0,1.0
2022-05-13 11:58:41.603346-07:00,2190.1,613.3,1387.5,1603.0,1127.9,1351.2,1364.8,1611.5,3441.9,3447.9,2113.9,1619.9,1650.2,3437.0,1256.0,1688.1,3439.5,3443.1,722.5,1344.0,934.7,606.8,1536.6,2022.4,3437.0,3443.1,770.3,1107.8,1467.2,1727.2,1373.9,1138.4,-2.0,10.0,-12.0,-1585.0,-354.0,13555.0,9058.0,21.0,-35.0,32.0,-8.0,8.0,4.0,-213.0,-1722.0,12444.0,10515.0,29.0,-16.0,8.0,1.0
2022-05-13 11:58:41.649290-07:00,2190.1,606.0,1388.5,1600.2,1127.9,1351.2,1364.8,1607.7,3441.9,3444.3,2094.7,1619.0,1650.2,3437.0,1256.0,1686.2,3439.5,3443.1,722.5,1344.0,925.4,611.7,1529.2,2022.4,3439.5,3443.1,770.3,1107.8,1466.3,1722.4,1375.7,1138.4,-2.0,4.0,-6.0,-1585.0,-348.0,13554.0,9061.0,-19.0,-4.0,13.0,-1.0,4.0,12.0,-210.0,-1720.0,12444.0,10515.0,-9.0,-10.0,5.0,1.0
2022-05-13 11:58:41.783060-07:00,2177.9,608.4,1388.5,1600.2,1134.9,1349.4,1370.3,1607.7,3437.0,3437.0,2094.7,1619.0,1651.1,3444.3,1250.6,1686.2,3439.5,3437.0,720.0,1347.6,925.4,611.7,1527.3,2024.4,3439.5,3438.2,772.0,1113.0,1466.3,1722.4,1368.5,1140.1,-8.0,5.0,-17.0,-1586.0,-342.0,13556.0,9057.0,19.0,-18.0,19.0,-4.0,12.0,7.0,-209.0,-1721.0,12447.0,10512.0,28.0,2.0,2.0,1.0
2022-05-13 11:58:41.786550-07:00,2177.9,608.4,1383.9,1604.9,1134.9,1349.4,1359.4,1603.0,3437.0,3437.0,2085.6,1625.6,1651.1,3444.3,1248.8,1688.1,3438.2,3431.0,720.0,1347.6,923.7,606.0,1527.3,2024.4,3449.1,3441.9,772.0,1113.0,1470.9,1724.4,1368.5,1140.1,13.0,0.0,-10.0,-1582.0,-329.0,13558.0,9055.0,-10.0,-15.0,18.0,2.0,5.0,-1.0,-209.0,-1720.0,12449.0,10510.0,-1.0,-1.0,10.0,1.0
2022-05-13 11:58:41.787731-07:00,2173.8,611.7,1383.9,1604.9,1125.2,1354.0,1359.4,1603.0,3438.2,3446.7,2085.6,1625.6,1649.2,3438.2,1248.8,1688.1,3438.2,3431.0,715.9,1350.3,923.7,606.0,1530.1,2020.4,3449.1,3441.9,765.3,1113.0,1470.9,1724.4,1377.5,1143.6,-1.0,8.0,-7.0,-1584.0,-329.0,13559.0,9054.0,5.0,-2.0,1.0,3.0,7.0,12.0,-209.0,-1720.0,12449.0,10510.0,2.0,-6.0,-4.0,1.0
2022-05-13 11:58:41.829460-07:00,2173.8,611.7,1386.6,1605.8,1125.2,1354.0,1366.6,1605.8,3438.2,3446.7,2087.6,1629.4,1649.2,3438.2,1253.3,1686.2,3435.8,3428.6,715.9,1350.3,923.7,610.8,1530.1,2020.4,3440.7,3441.9,765.3,1113.0,1479.2,1727.2,1377.5,1143.6,1.0,0.0,-2.0,-1582.0,-328.0,13560.0,9053.0,14.0,17.0,-8.0,-4.0,2.0,0.0,-209.0,-1720.0,12449.0,10510.0,2.0,5.0,-9.0,1.0
2022-05-13 11:58:41.874795-07:00,2167.7,603.6,1386.6,1605.8,1127.0,1357.6,1366.6,1605.8,3440.7,3437.0,2087.6,1629.4,1649.2,3450.4,1253.3,1686.2,3435.8,3428.6,716.7,1352.1,923.7,610.8,1524.5,2026.4,3440.7,3441.9,769.5,1110.4,1479.2,1727.2,1368.5,1147.1,-12.0,-6.0,-14.0,-1592.0,-341.0,13562.0,9047.0,16.0,13.0,8.0,-4.0,2.0,15.0,-213.0,-1725.0,12448.0,10510.0,13.0,16.0,-6.0,1.0
2022-05-13 11:58:42.099382-07:00,2167.7,603.6,1383.9,1598.3,1127.0,1354.0,1354.9,1612.4,3440.7,3437.0,2074.5,1627.5,1649.2,3438.2,1245.3,1679.5,3444.3,3435.8,718.4,1352.1,929.6,606.8,1524.5,2026.4,3441.9,3441.9,772.0,1110.4,1472.7,1726.3,1368.5,1147.1,4.0,13.0,-17.0,-1592.0,-342.0,13571.0,9034.0,26.0,-2.0,-15.0,-3.0,9.0,-6.0,-216.0,-1731.0,12458.0,10497.0,42.0,15.0,-10.0,1.0
2022-05-13 11:58:42.102921-07:00,2168.7,602.8,1388.5,1598.3,1118.2,1354.0,1354.9,1612.4,3440.7,3445.5,2075.5,1627.5,1651.1,3438.2,1245.3,1679.5,3444.3,3435.8,718.4,1354.0,929.6,612.5,1530.1,2027.4,3441.9,3441.9,772.0,1104.3,1472.7,1718.6,1371.2,1143.6,39.0,39.0,-23.0,-1583.0,-398.0,13567.0,9039.0,40.0,120.0,-239.0,5.0,1.0,-36.0,-213.0,-1745.0,12460.0,10493.0,9.0,19.0,-63.0,1.0
2022-05-13 11:58:42.104123-07:00,2168.7,602.8,1388.5,1604.9,1118.2,1361.2,1371.2,1612.4,3440.7,3445.5,2075.5,1636.9,1651.1,3441.9,1258.7,1688.1,3433.4,3428.6,719.2,1354.0,924.5,612.5,1530.1,2027.4,3438.2,3438.2,776.1,1104.3,1478.3,1718.6,1371.2,1143.6,-88.0,93.0,-67.0,-1554.0,-693.0,13581.0,9005.0,195.0,453.0,-788.0,-147.0,62.0,-14.0,-172.0,-1790.0,12491.0,10449.0,231.0,-40.0,-168.0,1.0
2022-05-13 11:58:42.144217-07:00,2171.8,608.4,1385.7,1604.9,1125.2,1361.2,1371.2,1612.4,3441.9,3439.5,2140.2,1636.9,1651.1,3441.9,1258.7,1688.1,3433.4,3428.6,719.2,1346.7,924.5,606.0,1535.7,2025.4,3438.2,3438.2,776.1,1119.1,1478.3,1724.4,1365.7,1131.4,3.0,185.0,-253.0,-1571.0,-1033.0,13617.0,8916.0,628.0,501.0,-620.0,-84.0,221.0,-114.0,-45.0,-1901.0,12561.0,10346.0,458.0,-17.0,-541.0,1.0
2022-05-13 11:58:42.234921-07:00,2171.8,608.4,1385.7,1602.1,1125.2,1356.7,1375.7,1624.7,3441.9,3439.5,2140.2,1629.4,1651.1,3433.4,1324.1,1711.0,3437.0,3440.7,717.5,1346.7,929.6,606.0,1535.7,2025.4,3440.7,3444.3,793.5,1119.1,1472.7,1724.4,1365.7,1131.4,5.0,99.0,-239.0,-1490.0,-1337.0,13770.0,8650.0,793.0,-323.0,-586.0,-14.0,116.0,-93.0,237.0,-2110.0,12673.0,10164.0,519.0,-279.0,-826.0,1.0
2022-05-13 11:58:42.237229-07:00,2159.5,616.5,1384.8,1590.8,1130.5,1356.7,1375.7,1624.7,3437.0,3438.2,2196.3,1645.4,1637.9,3433.4,1324.1,1711.0,3437.0,3440.7,717.5,1350.3,927.9,607.6,1532.0,2008.4,3440.7,3444.3,793.5,1117.4,1476.4,1725.3,1378.5,1140.1,-75.0,-211.0,-164.0,-1161.0,-1401.0,13911.0,8462.0,710.0,-737.0,-99.0,-119.0,-73.0,-77.0,632.0,-2277.0,12735.0,10034.0,591.0,-476.0,-815.0,1.0
2022-05-13 11:58:42.238464-07:00,2159.5,616.5,1384.8,1590.8,1131.4,1354.9,1394.8,1642.6,3437.0,3438.2,2196.3,1645.4,1645.4,3446.7,1335.0,1703.3,3434.6,3434.6,720.0,1348.5,927.9,607.6,1532.0,2008.4,3438.2,3443.1,781.1,1138.4,1476.4,1725.3,1378.5,1140.1,-78.0,-299.0,-90.0,-912.0,-1141.0,14179.0,8079.0,1597.0,-841.0,1018.0,-100.0,-134.0,-30.0,1049.0,-2335.0,12976.0,9669.0,1565.0,-544.0,-526.0,1.0
2022-05-13 11:58:42.324050-07:00,2166.7,613.3,1384.8,1601.1,1131.4,1354.9,1394.8,1642.6,3444.3,3440.7,2279.6,1671.9,1645.4,3446.7,1335.0,1703.3,3434.6,3434.6,720.0,1348.5,931.3,608.4,1565.5,2011.4,3438.2,3443.1,781.1,1138.4,1472.7,1720.5,1367.6,1140.1,-47.0,-294.0,6.0,-888.0,-441.0,14574.0,7419.0,1788.0,-753.0,2276.0,-31.0,-158.0,64.0,1420.0,-2196.0,13443.0,8993.0,2263.0,-543.0,20.0,1.0
2022-05-13 11:58:42.325499-07:00,2166.7,613.3,1384.8,1601.1,1127.9,1404.9,1384.8,1634.1,3444.3,3440.7,2279.6,1671.9,1652.0,3438.2,1320.5,1705.3,3433.4,3449.1,717.5,1350.3,931.3,608.4,1565.5,2011.4,3441.9,3450.4,785.2,1186.7,1472.7,1720.5,1367.6,1140.1,12.0,-131.0,123.0,-1033.0,672.0,14978.0,6524.0,2625.0,-825.0,2858.0,31.0,-148.0,82.0,1657.0,-1899.0,14074.0,8000.0,3186.0,-264.0,370.0,1.0
2022-05-13 11:58:42.413733-07:00,2161.6,605.2,1402.1,1608.7,1127.9,1404.9,1384.8,1634.1,3437.0,3445.5,2300.4,1677.6,1652.0,3438.2,1320.5,1705.3,3433.4,3449.1,717.5,1350.3,930.5,607.6,1578.6,2007.4,3441.9,3450.4,785.2,1186.7,1473.6,1717.7,1368.5,1135.7,37.0,108.0,158.0,-1262.0,1803.0,15298.0,5437.0,2000.0,-490.0,2263.0,51.0,-50.0,49.0,1713.0,-1567.0,14663.0,6932.0,2459.0,69.0,578.0,1.0
2022-05-13 11:58:42.504134-07:00,2161.6,605.2,1402.1,1608.7,1127.0,1448.8,1374.8,1616.2,3437.0,3445.5,2300.4,1677.6,1656.8,3444.3,1310.6,1695.7,3439.5,3438.2,720.8,1354.0,930.5,607.6,1578.6,2007.4,3432.2,3435.8,774.5,1225.7,1473.6,1717.7,1368.5,1135.7,121.0,230.0,98.0,-1509.0,2466.0,15403.0,4777.0,680.0,292.0,891.0,109.0,76.0,-2.0,1606.0,-1285.0,14964.0,6348.0,943.0,177.0,598.0,1.0
2022-05-13 11:58:42.506362-07:00,2148.3,619.7,1374.8,1598.3,1127.0,1448.8,1374.8,1604.0,3431.0,3435.8,2266.2,1668.2,1656.8,3444.3,1310.6,1689.1,3438.2,3438.2,720.8,1354.0,926.2,607.6,1619.9,2006.4,3438.2,3435.8,774.5,1225.7,1470.0,1716.7,1369.4,1139.2,101.0,113.0,-23.0,-1742.0,2649.0,15398.0,4612.0,252.0,234.0,314.0,114.0,64.0,1.0,1481.0,-1111.0,15062.0,6177.0,373.0,126.0,343.0,1.0
2022-05-13 11:58:42.549283-07:00,2146.3,619.7,1374.8,1598.3,1133.1,1445.1,1364.8,1604.0,3439.5,3435.8,2266.2,1668.2,1654.9,3437.0,1299.8,1689.1,3438.2,3446.7,721.6,1343.1,926.2,607.6,1619.9,1998.5,3438.2,3446.7,764.5,1208.0,1470.0,1716.7,1369.4,1134.9,76.0,86.0,9.0,-1824.0,2741.0,15420.0,4451.0,566.0,-164.0,269.0,76.0,69.0,-8.0,1389.0,-1015.0,15145.0,6008.0,572.0,83.0,82.0,1.0
2022-05-13 11:58:42.593423-07:00,2146.3,606.0,1370.3,1604.9,1133.1,1445.1,1364.8,1599.3,3439.5,3438.2,2239.4,1653.9,1654.9,3437.0,1299.8,1691.9,3437.0,3446.7,721.6,1343.1,932.2,608.4,1641.6,1998.5,3439.5,3446.7,764.5,1208.0,1473.6,1719.6,1368.5,1134.9,41.0,92.0,39.0,-1847.0,2795.0,15465.0,4250.0,332.0,53.0,-34.0,38.0,35.0,8.0,1367.0,-999.0,15218.0,5830.0,305.0,62.0,20.0,1.0
2022-05-13 11:58:42.638104-07:00,2144.3,606.0,1370.3,1604.9,1129.6,1431.4,1352.1,1599.3,3443.1,3438.2,2239.4,1653.9,1653.0,3441.9,1289.1,1691.9,3437.0,3444.3,716.7,1352.1,932.2,608.4,1641.6,2006.4,3439.5,3446.7,778.6,1210.6,1473.6,1719.6,1368.5,1137.5,8.0,54.0,16.0,-1900.0,2727.0,15488.0,4185.0,59.0,211.0,-155.0,32.0,29.0,26.0,1337.0,-995.0,15236.0,5790.0,70.0,61.0,8.0,1.0
2022-05-13 11:58:42.683200-07:00,2144.3,613.3,1383.0,1595.5,1129.6,1431.4,1352.1,1598.3,3443.1,3441.9,2221.9,1638.8,1653.0,3441.9,1289.1,1687.2,3440.7,3444.3,716.7,1352.1,926.2,608.4,1604.9,2006.4,3441.9,3446.7,778.6,1210.6,1467.2,1713.8,1368.5,1137.5,13.0,-16.0,-23.0,-1934.0,2672.0,15523.0,4074.0,605.0,-128.0,74.0,18.0,11.0,21.0,1311.0,-998.0,15278.0,5684.0,426.0,92.0,-18.0,1.0
