Time,P0,P1,P2,P3,P4,P5,P6,P7,P8,P9,P10,P11,P12,P13,P14,P15,P16,P17,P18,P19,P20,P21,P22,P23,P24,P25,P26,P27,P28,P29,P30,P31,ECG,AX0,AY0,AZ0,QW0,QX0,QY0,QZ0,GX0,GY0,GZ0,AX1,AY1,AZ1,QW1,QX1,QY1,QZ1,GX1,GY1,GZ1
2022-05-13 12:36:48.421910-07:00,1185.0,785.2,1252.4,1122.6,1072.9,812.7,1827.5,1538.5,3478.3,3478.3,1113.9,919.4,1618.1,3468.6,1530.1,1493.0,3477.1,3474.6,411.4,627.0,922.8,1124.4,623.0,2504.7,3474.6,3473.4,644.0,853.7,2045.4,1239.1,1131.4,939.8,-9.0,9.0,1.0,10232.0,-8767.0,7701.0,-5252.0,34.0,-7.0,4.0,-1.0,-3.0,13.0,8750.0,-12424.0,5082.0,-3421.0,18.0,-15.0,7.0,1.0
2022-05-13 12:36:48.423467-07:00,1189.4,785.2,1252.4,1122.6,1071.2,818.5,1825.5,1538.5,3471.0,3478.3,1113.9,919.4,1621.8,3462.5,1525.5,1493.0,3477.1,3472.2,417.6,629.5,922.8,1124.4,623.0,2503.6,3474.6,3485.6,640.0,850.3,2045.4,1239.1,1131.4,943.2,-3.0,9.0,-5.0,10229.0,-8770.0,7703.0,-5248.0,-38.0,6.0,-7.0,-1.0,-3.0,9.0,8747.0,-12428.0,5081.0,-3414.0,-42.0,-9.0,7.0,1.0
2022-05-13 12:36:48.423764-07:00,1189.4,785.2,1240.8,1112.1,1071.2,818.5,1825.5,1536.6,3471.0,3478.3,1117.4,914.4,1621.8,3462.5,1525.5,1496.7,3481.9,3472.2,417.6,629.5,915.2,1121.7,623.0,2503.6,3475.9,3485.6,640.0,850.3,2028.4,1229.3,1140.1,943.2,0.0,6.0,-10.0,10228.0,-8771.0,7704.0,-5248.0,17.0,4.0,3.0,0.0,1.0,4.0,8743.0,-12431.0,5082.0,-3412.0,0.0,-5.0,8.0,1.0
2022-05-13 12:36:48.464941-07:00,1182.3,785.2,1240.8,1112.1,1070.3,819.4,1837.2,1536.6,3468.6,3478.3,1117.4,914.4,1618.1,3463.7,1533.8,1496.7,3481.9,3480.7,410.6,627.8,915.2,1121.7,623.0,2503.6,3475.9,3480.7,636.7,858.7,2028.4,1229.3,1140.1,944.1,4.0,3.0,-15.0,10223.0,-8776.0,7707.0,-5244.0,-25.0,-3.0,-2.0,-1.0,-2.0,-1.0,8738.0,-12435.0,5083.0,-3409.0,-28.0,-13.0,1.0,1.0
2022-05-13 12:36:48.600676-07:00,1182.3,781.9,1236.4,1112.1,1070.3,819.4,1820.7,1541.3,3468.6,3475.9,1119.1,913.5,1618.1,3463.7,1529.2,1493.0,3469.8,3467.4,410.6,627.8,919.4,1127.0,622.2,2503.6,3469.8,3466.1,636.7,858.7,2022.4,1227.5,1131.4,944.1,0.0,7.0,-13.0,10227.0,-8779.0,7702.0,-5239.0,21.0,-32.0,2.0,0.0,0.0,2.0,8740.0,-12436.0,5080.0,-3404.0,23.0,-19.0,-8.0,1.0
2022-05-13 12:36:48.601773-07:00,1182.3,781.9,1236.4,1112.1,1070.3,819.4,1820.7,1541.3,3468.6,3475.9,1119.1,913.5,1618.1,3463.7,1529.2,1493.0,3469.8,3467.4,410.6,627.8,919.4,1127.0,622.2,2503.6,3469.8,3466.1,636.7,858.7,2022.4,1227.5,1131.4,944.1,0.0,7.0,-13.0,10227.0,-8779.0,7702.0,-5239.0,21.0,-32.0,2.0,0.0,0.0,2.0,8740.0,-12436.0,5080.0,-3404.0,23.0,-19.0,-8.0,1.0
2022-05-13 12:36:48.647155-07:00,1183.2,779.4,1238.2,1119.1,1065.1,818.5,1836.2,1532.9,3467.4,3467.4,1114.7,919.4,1620.9,3478.3,1521.8,1488.4,3467.4,3473.4,416.8,631.9,922.8,1123.5,620.5,2500.4,3479.5,3469.8,643.2,852.8,2043.4,1231.0,1125.2,937.3,-1.0,6.0,-2.0,10254.0,-8772.0,7678.0,-5234.0,34.0,-18.0,11.0,-1.0,-3.0,8.0,8763.0,-12429.0,5058.0,-3404.0,29.0,-22.0,-8.0,1.0
2022-05-13 12:36:48.648854-07:00,1176.2,774.5,1238.2,1119.1,1066.0,821.9,1836.2,1532.9,3463.7,3469.8,1114.7,919.4,1618.1,3469.8,1521.8,1488.4,3467.4,3473.4,415.3,627.0,922.8,1123.5,621.4,2488.7,3479.5,3469.8,641.6,853.7,2043.4,1231.0,1120.9,934.7,-1.0,9.0,0.0,10260.0,-8769.0,7676.0,-5230.0,-2.0,-6.0,5.0,0.0,-2.0,10.0,8771.0,-12426.0,5054.0,-3401.0,8.0,-9.0,0.0,1.0
2022-05-13 12:36:48.649612-07:00,1176.2,774.5,1232.8,1116.5,1066.0,821.9,1829.4,1525.5,3463.7,3469.8,1120.9,915.2,1618.1,3469.8,1518.0,1488.4,3483.2,3475.9,415.3,627.0,921.1,1123.5,621.4,2488.7,3477.1,3477.1,641.6,853.7,2040.4,1231.9,1120.9,934.7,-7.0,-1.0,-2.0,10263.0,-8765.0,7674.0,-5233.0,30.0,3.0,-2.0,-4.0,-8.0,8.0,8774.0,-12424.0,5053.0,-3402.0,10.0,-3.0,-4.0,1.0
2022-05-13 12:36:48.650414-07:00,1185.0,775.3,1232.8,1116.5,1072.1,820.2,1829.4,1525.5,3472.2,3471.0,1120.9,915.2,1615.2,3472.2,1518.0,1488.4,3483.2,3475.9,412.1,626.2,921.1,1123.5,615.7,2490.8,3477.1,3477.1,644.9,850.3,2040.4,1231.9,1131.4,932.2,4.0,7.0,-9.0,10266.0,-8762.0,7673.0,-5235.0,-8.0,5.0,10.0,0.0,0.0,0.0,8779.0,-12420.0,5052.0,-3404.0,-3.0,-7.0,4.0,1.0
2022-05-13 12:36:48.690624-07:00,1185.0,775.3,1223.9,1116.5,1072.1,818.5,1822.6,1541.3,3472.2,3471.0,1116.5,917.7,1615.2,3471.0,1532.0,1492.1,3475.9,3467.4,411.4,626.2,920.3,1124.4,615.7,2490.8,3478.3,3474.6,644.9,850.3,2044.4,1219.5,1131.4,932.2,-2.0,5.0,-7.0,10266.0,-8761.0,7673.0,-5234.0,12.0,-10.0,10.0,3.0,-1.0,6.0,8777.0,-12421.0,5052.0,-3404.0,10.0,-2.0,-1.0,1.0
2022-05-13 12:36:48.824551-07:00,1183.2,778.6,1245.3,1116.5,1062.5,818.5,1822.6,1541.3,3469.8,3467.4,1108.6,917.7,1616.2,3471.0,1532.0,1492.1,3475.9,3467.4,411.4,634.3,920.3,1123.5,614.1,2493.0,3478.3,3474.6,644.9,846.1,2044.4,1225.7,1127.0,946.6,0.0,3.0,-4.0,10268.0,-8763.0,7671.0,-5232.0,-2.0,2.0,-1.0,0.0,-3.0,3.0,8777.0,-12421.0,5052.0,-3404.0,-11.0,-7.0,-2.0,1.0
2022-05-13 12:36:48.914692-07:00,1183.2,778.6,1245.3,1118.2,1062.5,822.7,1819.7,1539.4,3469.8,3467.4,1108.6,915.2,1616.2,3471.0,1525.5,1492.1,3467.4,3472.2,410.6,634.3,916.9,1123.5,614.1,2493.0,3478.3,3475.9,640.0,846.1,2055.4,1225.7,1127.0,946.6,-7.0,5.0,-6.0,10269.0,-8763.0,7670.0,-5230.0,-3.0,-13.0,4.0,-3.0,-6.0,7.0,8777.0,-12422.0,5052.0,-3404.0,-4.0,-5.0,1.0,1.0
2022-05-13 12:36:48.960942-07:00,1181.5,780.3,1241.7,1118.2,1066.9,822.7,1819.7,1539.4,3464.9,3457.6,1114.7,915.2,1615.2,3471.0,1525.5,1492.1,3467.4,3472.2,410.6,631.1,916.9,1123.5,613.3,2489.8,3478.3,3475.9,640.0,852.0,2055.4,1234.6,1128.7,941.5,-4.0,3.0,-7.0,10270.0,-8764.0,7669.0,-5228.0,8.0,0.0,-2.0,0.0,-7.0,6.0,8777.0,-12422.0,5052.0,-3404.0,-4.0,-7.0,0.0,1.0
2022-05-13 12:36:48.962249-07:00,1181.5,780.3,1241.7,1111.2,1066.9,820.2,1837.2,1540.3,3464.9,3457.6,1114.7,916.0,1615.2,3471.0,1526.4,1487.5,3467.4,3473.4,410.6,631.1,921.1,1123.5,613.3,2489.8,3475.9,3466.1,644.9,852.0,2042.4,1234.6,1128.7,941.5,-10.0,2.0,-6.0,10270.0,-8764.0,7669.0,-5229.0,3.0,0.0,1.0,0.0,-5.0,6.0,8777.0,-12422.0,5052.0,-3403.0,-2.0,-10.0,1.0,1.0
2022-05-13 12:36:48.963775-07:00,1178.8,788.6,1239.9,1110.4,1063.4,820.2,1837.2,1540.3,3467.4,3475.9,1115.6,915.2,1616.2,3471.0,1526.4,1487.5,3467.4,3473.4,410.6,627.0,919.4,1124.4,619.7,2489.8,3475.9,3466.1,644.9,853.7,2043.4,1223.0,1133.1,943.2,-7.0,3.0,-4.0,10272.0,-8761.0,7668.0,-5231.0,21.0,8.0,4.0,0.0,-2.0,12.0,8779.0,-12421.0,5050.0,-3402.0,11.0,-6.0,1.0,1.0
2022-05-13 12:36:49.004731-07:00,1178.8,788.6,1239.9,1110.4,1069.5,816.0,1822.6,1541.3,3467.4,3475.9,1115.6,915.2,1619.0,3475.9,1533.8,1492.1,3471.0,3480.7,416.1,629.5,919.4,1124.4,619.7,2489.8,3480.7,3478.3,641.6,852.0,2043.4,1223.0,1133.1,943.2,0.0,10.0,-7.0,10276.0,-8756.0,7666.0,-5234.0,8.0,-7.0,-3.0,0.0,0.0,4.0,8782.0,-12419.0,5050.0,-3404.0,-5.0,0.0,1.0,1.0
2022-05-13 12:36:49.096168-07:00,1174.4,781.1,1233.7,1116.5,1069.5,816.0,1822.6,1541.3,3466.1,3471.0,1112.1,914.4,1619.0,3475.9,1533.8,1492.1,3471.0,3480.7,416.1,629.5,911.8,1126.1,615.7,2472.7,3480.7,3478.3,641.6,852.0,2033.4,1223.9,1120.9,933.0,-1.0,5.0,-7.0,10276.0,-8756.0,7666.0,-5234.0,8.0,0.0,0.0,0.0,-1.0,7.0,8782.0,-12419.0,5050.0,-3404.0,6.0,1.0,1.0,1.0
2022-05-13 12:36:49.097851-07:00,1174.4,781.1,1233.7,1116.5,1066.9,821.0,1825.5,1526.4,3466.1,3471.0,1112.1,914.4,1623.7,3464.9,1527.3,1493.0,3477.1,3474.6,413.7,629.5,911.8,1126.1,615.7,2472.7,3474.6,3480.7,628.6,844.4,2033.4,1223.9,1120.9,933.0,-6.0,1.0,-10.0,10277.0,-8756.0,7665.0,-5234.0,5.0,-13.0,-5.0,-3.0,-4.0,5.0,8782.0,-12419.0,5049.0,-3403.0,3.0,-7.0,0.0,1.0
2022-05-13 12:36:49.277328-07:00,1189.4,776.1,1226.6,1107.8,1066.9,821.0,1825.5,1526.4,3474.6,3474.6,1121.7,915.2,1623.7,3464.9,1527.3,1493.0,3477.1,3474.6,413.7,629.5,916.9,1118.2,622.2,2474.9,3474.6,3480.7,628.6,844.4,2042.4,1218.6,1124.4,943.2,0.0,8.0,-5.0,10280.0,-8756.0,7664.0,-5229.0,7.0,-6.0,10.0,-1.0,-1.0,5.0,8785.0,-12417.0,5048.0,-3403.0,-2.0,-15.0,3.0,1.0
2022-05-13 12:36:49.321913-07:00,1182.3,776.1,1226.6,1107.8,1062.5,814.4,1825.5,1530.1,3469.8,3474.6,1121.7,915.2,1619.0,3457.6,1530.1,1488.4,3478.3,3478.3,412.9,627.0,916.9,1118.2,622.2,2471.7,3474.6,3475.9,647.3,852.0,2042.4,1218.6,1124.4,938.1,-4.0,0.0,-6.0,10282.0,-8755.0,7662.0,-5230.0,20.0,-13.0,3.0,0.0,-7.0,10.0,8789.0,-12417.0,5044.0,-3399.0,18.0,-13.0,1.0,1.0
2022-05-13 12:36:49.322958-07:00,1182.3,773.6,1234.6,1110.4,1062.5,814.4,1825.5,1519.9,3469.8,3467.4,1120.0,911.8,1619.0,3457.6,1530.1,1490.3,3469.8,3478.3,412.9,627.0,917.7,1130.5,619.7,2471.7,3471.0,3475.9,647.3,852.0,2030.4,1223.9,1126.1,938.1,1.0,8.0,-7.0,10287.0,-8752.0,7658.0,-5230.0,8.0,-12.0,3.0,3.0,0.0,5.0,8793.0,-12417.0,5041.0,-3396.0,3.0,-11.0,3.0,1.0
2022-05-13 12:36:49.323875-07:00,1193.8,773.6,1234.6,1110.4,1051.3,816.9,1822.6,1519.9,3474.6,3467.4,1120.0,911.8,1618.1,3464.9,1535.7,1490.3,3469.8,3473.4,417.6,627.0,917.7,1130.5,619.7,2477.0,3471.0,3480.7,637.6,847.0,2030.4,1223.9,1126.1,940.7,-4.0,2.0,-9.0,10292.0,-8752.0,7654.0,-5228.0,9.0,-17.0,2.0,-3.0,-1.0,5.0,8797.0,-12417.0,5036.0,-3391.0,9.0,-19.0,-2.0,1.0
2022-05-13 12:36:49.366663-07:00,1193.8,776.1,1231.0,1111.2,1051.3,816.9,1822.6,1537.6,3474.6,3471.0,1111.2,911.8,1618.1,3464.9,1535.7,1481.0,3471.0,3473.4,417.6,627.0,914.4,1118.2,616.5,2477.0,3474.6,3480.7,637.6,847.0,2037.4,1231.9,1118.2,940.7,-5.0,6.0,-10.0,10299.0,-8752.0,7646.0,-5226.0,14.0,-25.0,7.0,-2.0,-6.0,9.0,8803.0,-12416.0,5031.0,-3387.0,17.0,-21.0,-4.0,1.0
2022-05-13 12:36:49.410518-07:00,1178.8,776.1,1231.0,1111.2,1059.1,815.2,1813.9,1537.6,3467.4,3471.0,1111.2,911.8,1622.8,3464.9,1526.4,1481.0,3471.0,3478.3,413.7,625.4,914.4,1118.2,616.5,2473.8,3474.6,3480.7,640.0,847.8,2037.4,1231.9,1118.2,940.7,2.0,7.0,-5.0,10310.0,-8752.0,7635.0,-5221.0,15.0,-35.0,2.0,0.0,0.0,6.0,8812.0,-12414.0,5024.0,-3382.0,16.0,-19.0,-6.0,1.0
2022-05-13 12:36:49.455137-07:00,1178.8,776.9,1239.1,1133.1,1059.1,815.2,1813.9,1532.0,3467.4,3471.0,1117.4,917.7,1622.8,3464.9,1526.4,1502.3,3468.6,3478.3,413.7,625.4,916.0,1123.5,621.4,2473.8,3474.6,3480.7,640.0,847.8,2028.4,1227.5,1119.1,940.7,-2.0,5.0,-2.0,10316.0,-8752.0,7627.0,-5218.0,10.0,-20.0,2.0,2.0,-4.0,9.0,8819.0,-12412.0,5019.0,-3379.0,16.0,-13.0,-3.0,1.0
2022-05-13 12:36:49.634962-07:00,1180.6,781.9,1239.1,1133.1,1057.3,814.4,1813.9,1532.0,3464.9,3469.8,1117.4,917.7,1622.8,3467.4,1530.1,1502.3,3468.6,3477.1,414.5,631.9,916.0,1123.5,616.5,2475.9,3474.6,3483.2,646.5,848.6,2028.4,1227.5,1121.7,938.1,-3.0,8.0,-9.0,10322.0,-8751.0,7622.0,-5217.0,8.0,-13.0,3.0,-1.0,0.0,9.0,8822.0,-12412.0,5016.0,-3375.0,-2.0,-11.0,2.0,1.0
2022-05-13 12:36:49.725762-07:00,1180.6,781.9,1231.0,1108.6,1057.3,814.4,1821.6,1520.8,3464.9,3469.8,1116.5,919.4,1622.8,3467.4,1527.3,1489.3,3462.5,3474.6,414.5,631.9,921.1,1133.1,616.5,2475.9,3471.0,3473.4,646.5,848.6,2038.4,1222.2,1121.7,938.1,-4.0,6.0,-10.0,10325.0,-8751.0,7619.0,-5216.0,15.0,-10.0,2.0,-1.0,-1.0,7.0,8824.0,-12413.0,5013.0,-3372.0,11.0,-14.0,-1.0,1.0
2022-05-13 12:36:49.726946-07:00,1183.2,781.9,1231.0,1108.6,1055.6,814.4,1821.6,1520.8,3472.2,3462.5,1116.5,919.4,1619.9,3466.1,1527.3,1489.3,3462.5,3474.6,409.0,626.2,921.1,1133.1,621.4,2478.1,3471.0,3473.4,641.6,844.4,2038.4,1222.2,1119.1,931.3,-6.0,5.0,-11.0,10333.0,-8747.0,7611.0,-5217.0,21.0,-22.0,0.0,0.0,-5.0,6.0,8831.0,-12410.0,5009.0,-3370.0,18.0,-8.0,-2.0,1.0
2022-05-13 12:36:49.728492-07:00,1183.2,781.9,1229.3,1110.4,1055.6,814.4,1817.8,1518.0,3472.2,3462.5,1113.0,914.4,1619.9,3466.1,1523.6,1494.9,3467.4,3473.4,409.0,626.2,920.3,1118.2,621.4,2478.1,3478.3,3474.6,641.6,844.4,2028.4,1234.6,1119.1,931.3,0.0,6.0,-8.0,10342.0,-8745.0,7603.0,-5216.0,25.0,-20.0,-1.0,0.0,-5.0,6.0,8837.0,-12408.0,5005.0,-3369.0,21.0,-10.0,-7.0,1.0
2022-05-13 12:36:49.771358-07:00,1181.5,777.8,1229.3,1110.4,1062.5,819.4,1817.8,1518.0,3466.1,3475.9,1113.0,914.4,1616.2,3478.3,1523.6,1494.9,3467.4,3473.4,412.9,632.7,920.3,1118.2,618.9,2477.0,3478.3,3474.6,640.8,847.8,2028.4,1234.6,1126.1,944.9,-3.0,2.0,-8.0,10356.0,-8736.0,7593.0,-5219.0,45.0,-20.0,14.0,1.0,-4.0,9.0,8848.0,-12401.0,5001.0,-3371.0,41.0,-6.0,-3.0,1.0
2022-05-13 12:36:49.772989-07:00,1181.5,777.8,1232.8,1113.0,1062.5,816.0,1804.2,1529.2,3466.1,3475.9,1111.2,916.0,1616.2,3467.4,1519.9,1493.0,3473.4,3466.1,415.3,632.7,919.4,1122.6,618.9,2477.0,3478.3,3480.7,640.0,847.8,2043.4,1213.3,1126.1,944.9,-3.0,3.0,-5.0,10368.0,-8726.0,7588.0,-5218.0,34.0,-6.0,16.0,-1.0,-4.0,6.0,8858.0,-12393.0,4998.0,-3375.0,28.0,-8.0,-1.0,1.0
2022-05-13 12:36:49.815342-07:00,1177.9,780.3,1233.7,1113.0,1053.9,816.0,1804.2,1529.2,3464.9,3467.4,1116.5,916.0,1619.9,3467.4,1519.9,1493.0,3473.4,3466.1,415.3,625.4,919.4,1123.5,621.4,2473.8,3478.3,3480.7,640.0,847.0,2043.4,1215.1,1122.6,939.8,-3.0,9.0,-4.0,10379.0,-8714.0,7583.0,-5223.0,22.0,-1.0,5.0,1.0,-1.0,3.0,8870.0,-12385.0,4995.0,-3380.0,11.0,-2.0,-4.0,1.0
2022-05-13 12:36:49.905328-07:00,1177.9,780.3,1233.7,1103.4,1053.9,831.9,1823.6,1522.7,3464.9,3467.4,1116.5,920.3,1619.9,3462.5,1526.4,1490.3,3472.2,3485.6,412.9,625.4,920.3,1123.5,621.4,2473.8,3472.2,3471.0,639.2,847.0,2030.4,1215.1,1122.6,939.8,-4.0,9.0,-5.0,10379.0,-8714.0,7582.0,-5224.0,5.0,4.0,5.0,0.0,-6.0,9.0,8871.0,-12384.0,4995.0,-3380.0,-1.0,-4.0,3.0,1.0
2022-05-13 12:36:49.954478-07:00,1179.7,781.1,1239.1,1103.4,1058.2,831.9,1823.6,1522.7,3475.9,3468.6,1113.9,920.3,1619.0,3462.5,1526.4,1490.3,3472.2,3485.6,412.9,629.5,920.3,1119.1,618.9,2479.1,3472.2,3471.0,639.2,844.4,2030.4,1218.6,1127.9,936.4,-4.0,5.0,-7.0,10381.0,-8711.0,7581.0,-5226.0,11.0,-5.0,-7.0,0.0,-2.0,4.0,8871.0,-12384.0,4995.0,-3380.0,1.0,-6.0,-2.0,1.0
2022-05-13 12:36:49.995352-07:00,1179.7,781.1,1239.1,1107.8,1058.2,816.9,1811.0,1525.5,3475.9,3468.6,1113.9,912.7,1619.0,3462.5,1526.4,1489.3,3475.9,3477.1,416.1,629.5,921.1,1119.1,618.9,2479.1,3475.9,3478.3,638.4,844.4,2033.4,1218.6,1127.9,936.4,-4.0,6.0,-9.0,10383.0,-8710.0,7580.0,-5226.0,-3.0,-7.0,1.0,1.0,-5.0,7.0,8871.0,-12385.0,4994.0,-3379.0,-7.0,-7.0,3.0,1.0
2022-05-13 12:36:50.041932-07:00,1179.7,776.1,1228.4,1115.6,1063.4,816.9,1811.0,1525.5,3463.7,3457.6,1113.9,913.5,1618.1,3462.5,1526.4,1489.3,3475.9,3477.1,416.1,630.3,919.4,1119.1,618.9,2477.0,3475.9,3478.3,638.4,848.6,2033.4,1221.3,1127.0,943.2,-4.0,8.0,-7.0,10384.0,-8711.0,7578.0,-5224.0,-3.0,-12.0,-9.0,1.0,-1.0,9.0,8871.0,-12385.0,4994.0,-3378.0,-5.0,-3.0,-1.0,1.0
2022-05-13 12:36:50.043045-07:00,1179.7,776.1,1228.4,1115.6,1063.4,817.7,1813.9,1524.5,3463.7,3457.6,1113.9,913.5,1616.2,3472.2,1531.0,1484.7,3483.2,3460.1,412.1,634.3,919.4,1119.1,618.9,2477.0,3485.6,3475.9,640.8,848.6,2033.4,1221.3,1127.0,943.2,-4.0,2.0,-7.0,10383.0,-8715.0,7577.0,-5222.0,-10.0,-1.0,-6.0,0.0,-5.0,6.0,8867.0,-12388.0,4995.0,-3377.0,-16.0,-3.0,2.0,1.0
2022-05-13 12:36:50.087195-07:00,1186.7,777.8,1241.7,1116.5,1063.4,817.7,1813.9,1524.5,3473.4,3468.6,1111.2,916.0,1616.2,3472.2,1531.0,1484.7,3483.2,3460.1,412.1,634.3,917.7,1118.2,620.5,2464.2,3485.6,3475.9,640.8,848.6,2031.4,1213.3,1118.2,938.1,-2.0,5.0,-16.0,10386.0,-8713.0,7575.0,-5223.0,18.0,-14.0,-2.0,0.0,-1.0,5.0,8867.0,-12387.0,4995.0,-3377.0,18.0,-4.0,-2.0,1.0
2022-05-13 12:36:50.175261-07:00,1186.7,777.8,1241.7,1116.5,1062.5,815.2,1810.0,1513.4,3473.4,3468.6,1111.2,916.0,1623.7,3468.6,1521.8,1484.7,3479.5,3479.5,409.0,623.8,917.7,1118.2,620.5,2464.2,3471.0,3477.1,636.7,851.1,2031.4,1213.3,1118.2,938.1,-2.0,3.0,-9.0,10389.0,-8714.0,7571.0,-5220.0,-3.0,-11.0,-6.0,1.0,-1.0,4.0,8869.0,-12387.0,4995.0,-3378.0,-9.0,-4.0,-3.0,1.0
2022-05-13 12:36:50.220613-07:00,1174.4,774.5,1233.7,1093.8,1062.5,815.2,1810.0,1513.4,3469.8,3474.6,1113.0,916.0,1623.7,3468.6,1521.8,1484.7,3479.5,3479.5,409.0,623.8,916.0,1124.4,618.9,2450.4,3471.0,3477.1,636.7,851.1,2034.4,1239.9,1121.7,937.3,-4.0,10.0,-10.0,10393.0,-8712.0,7568.0,-5221.0,3.0,-10.0,-3.0,-1.0,0.0,7.0,8872.0,-12384.0,4994.0,-3379.0,16.0,-3.0,-3.0,1.0
2022-05-13 12:36:50.360108-07:00,1174.4,774.5,1233.7,1093.8,1061.7,806.0,1826.5,1524.5,3469.8,3474.6,1113.0,916.0,1617.1,3466.1,1526.4,1484.7,3478.3,3472.2,408.2,628.6,916.0,1124.4,618.9,2450.4,3480.7,3480.7,640.0,847.8,2034.4,1239.9,1121.7,937.3,-6.0,0.0,-7.0,10392.0,-8713.0,7568.0,-5220.0,11.0,-6.0,0.0,0.0,-5.0,11.0,8868.0,-12387.0,4995.0,-3378.0,-6.0,-1.0,0.0,1.0
2022-05-13 12:36:50.361649-07:00,1177.0,778.6,1228.4,1104.3,1061.7,806.0,1826.5,1511.5,3478.3,3471.0,1116.5,916.9,1617.1,3466.1,1526.4,1493.0,3477.1,3472.2,408.2,628.6,919.4,1123.5,620.5,2461.0,3468.6,3480.7,640.0,847.8,2033.4,1223.0,1121.7,943.2,-4.0,8.0,-14.0,10398.0,-8709.0,7564.0,-5222.0,4.0,-15.0,-6.0,0.0,-1.0,5.0,8871.0,-12385.0,4994.0,-3379.0,8.0,-4.0,-4.0,1.0
2022-05-13 12:36:50.362746-07:00,1189.4,778.6,1228.4,1104.3,1054.8,812.7,1814.9,1511.5,3471.0,3471.0,1116.5,916.9,1620.9,3471.0,1526.4,1493.0,3477.1,3467.4,409.8,623.8,919.4,1123.5,620.5,2472.7,3468.6,3478.3,636.7,846.1,2033.4,1223.0,1121.7,935.6,-5.0,5.0,-14.0,10402.0,-8712.0,7557.0,-5218.0,16.0,-26.0,-6.0,0.0,-2.0,6.0,8870.0,-12386.0,4994.0,-3378.0,7.0,-7.0,-3.0,1.0
2022-05-13 12:36:50.483728-07:00,1189.4,776.9,1235.5,1105.1,1054.8,812.7,1814.9,1524.5,3471.0,3479.5,1117.4,919.4,1620.9,3471.0,1526.4,1485.6,3478.3,3467.4,409.8,623.8,912.7,1126.1,616.5,2472.7,3468.6,3478.3,636.7,846.1,2034.4,1221.3,1118.2,935.6,-5.0,5.0,-8.0,10412.0,-8710.0,7547.0,-5217.0,18.0,-23.0,-2.0,0.0,-1.0,8.0,8877.0,-12382.0,4991.0,-3378.0,18.0,-13.0,-7.0,1.0
2022-05-13 12:36:50.485640-07:00,1180.6,776.9,1235.5,1105.1,1058.2,814.4,1806.1,1524.5,3468.6,3479.5,1117.4,919.4,1611.5,3471.0,1524.5,1485.6,3478.3,3478.3,413.7,626.2,912.7,1126.1,616.5,2449.4,3468.6,3477.1,642.4,837.7,2034.4,1221.3,1118.2,933.9,-2.0,6.0,-7.0,10417.0,-8710.0,7542.0,-5215.0,13.0,-13.0,-8.0,2.0,-5.0,12.0,8880.0,-12381.0,4989.0,-3378.0,6.0,-2.0,-5.0,1.0
2022-05-13 12:36:50.492202-07:00,1180.6,777.8,1229.3,1102.5,1058.2,814.4,1806.1,1514.3,3468.6,3473.4,1118.2,916.0,1611.5,3471.0,1524.5,1477.3,3472.2,3478.3,413.7,626.2,916.0,1126.1,615.7,2449.4,3474.6,3477.1,642.4,837.7,2033.4,1225.7,1118.2,933.9,-5.0,6.0,-8.0,10419.0,-8707.0,7540.0,-5217.0,-4.0,0.0,-2.0,0.0,-4.0,11.0,8881.0,-12380.0,4989.0,-3378.0,-6.0,1.0,3.0,1.0
2022-05-13 12:36:50.536474-07:00,1180.6,778.6,1229.3,1102.5,1052.2,810.2,1811.0,1514.3,3472.2,3472.2,1118.2,916.0,1611.5,3463.7,1521.8,1477.3,3472.2,3474.6,412.9,627.0,916.0,1126.1,614.9,2454.7,3474.6,3479.5,640.0,848.6,2033.4,1225.7,1113.9,937.3,-2.0,4.0,-11.0,10417.0,-8705.0,7543.0,-5219.0,4.0,10.0,-2.0,0.0,-4.0,11.0,8877.0,-12383.0,4990.0,-3377.0,-10.0,0.0,4.0,1.0
2022-05-13 12:36:50.669957-07:00,1180.6,778.6,1223.0,1102.5,1052.2,810.2,1807.1,1516.2,3472.2,3472.2,1111.2,905.0,1611.5,3463.7,1522.7,1497.7,3475.9,3473.4,412.9,627.0,914.4,1120.9,614.9,2454.7,3475.9,3473.4,640.0,848.6,2022.4,1216.0,1113.9,937.3,0.0,6.0,-17.0,10418.0,-8705.0,7543.0,-5219.0,4.0,1.0,-5.0,0.0,-3.0,6.0,8877.0,-12383.0,4990.0,-3377.0,1.0,1.0,-1.0,1.0
2022-05-13 12:36:50.672904-07:00,1178.8,777.8,1223.0,1102.5,1055.6,814.4,1807.1,1516.2,3478.3,3471.0,1111.2,905.0,1615.2,3472.2,1522.7,1497.7,3475.9,3473.4,413.7,627.0,914.4,1120.9,614.1,2465.3,3475.9,3473.4,641.6,842.8,2022.4,1216.0,1116.5,950.0,0.0,2.0,-15.0,10420.0,-8706.0,7540.0,-5217.0,-5.0,-14.0,0.0,0.0,-6.0,5.0,8877.0,-12383.0,4990.0,-3377.0,-5.0,-4.0,0.0,1.0
2022-05-13 12:36:50.714715-07:00,1178.8,777.8,1227.5,1107.8,1055.6,814.4,1808.1,1515.3,3478.3,3471.0,1115.6,913.5,1615.2,3472.2,1527.3,1481.0,3477.1,3474.6,413.7,627.0,905.0,1122.6,614.1,2465.3,3474.6,3472.2,641.6,842.8,2035.4,1219.5,1116.5,950.0,0.0,9.0,-13.0,10423.0,-8707.0,7536.0,-5215.0,7.0,-18.0,-6.0,0.0,-1.0,6.0,8877.0,-12383.0,4990.0,-3377.0,5.0,-2.0,-5.0,1.0
2022-05-13 12:36:50.807201-07:00,1185.9,778.6,1227.5,1107.8,1059.1,818.5,1808.1,1515.3,3467.4,3468.6,1115.6,913.5,1619.0,3479.5,1527.3,1481.0,3477.1,3474.6,410.6,628.6,905.0,1122.6,619.7,2468.5,3474.6,3472.2,644.0,844.4,2035.4,1219.5,1118.2,939.0,1.0,4.0,-9.0,10427.0,-8709.0,7530.0,-5213.0,11.0,-12.0,0.0,0.0,-1.0,4.0,8878.0,-12382.0,4990.0,-3377.0,9.0,-9.0,-1.0,1.0
2022-05-13 12:36:50.809103-07:00,1185.9,778.6,1243.5,1104.3,1059.1,815.2,1814.9,1506.0,3467.4,3468.6,1116.5,911.8,1619.0,3473.4,1523.6,1479.2,3478.3,3472.2,411.4,628.6,914.4,1122.6,619.7,2468.5,3467.4,3474.6,640.8,844.4,2028.4,1220.4,1118.2,939.0,-2.0,2.0,-12.0,10427.0,-8708.0,7529.0,-5214.0,3.0,-8.0,6.0,1.0,-6.0,13.0,8878.0,-12382.0,4990.0,-3377.0,-2.0,-4.0,0.0,1.0
2022-05-13 12:36:50.942404-07:00,1177.9,769.5,1231.0,1104.3,1051.3,815.2,1814.9,1506.0,3477.1,3472.2,1119.1,911.8,1614.3,3473.4,1523.6,1479.2,3478.3,3472.2,411.4,628.6,914.4,1122.6,612.5,2467.4,3467.4,3474.6,640.8,843.6,2028.4,1215.1,1121.7,932.2,-1.0,7.0,-6.0,10428.0,-8709.0,7528.0,-5213.0,8.0,-2.0,0.0,-1.0,-3.0,10.0,8878.0,-12382.0,4990.0,-3377.0,0.0,-5.0,-2.0,1.0
2022-05-13 12:36:50.943518-07:00,1177.9,769.5,1231.0,1106.0,1051.3,815.2,1793.6,1512.5,3477.1,3472.2,1119.1,914.4,1614.3,3462.5,1530.1,1489.3,3474.6,3483.2,412.9,628.6,916.0,1122.6,612.5,2467.4,3475.9,3478.3,644.0,843.6,2023.4,1215.1,1121.7,932.2,-2.0,3.0,-12.0,10428.0,-8709.0,7528.0,-5213.0,9.0,-6.0,-1.0,2.0,-1.0,9.0,8878.0,-12382.0,4990.0,-3377.0,-2.0,-6.0,1.0,1.0
2022-05-13 12:36:50.945036-07:00,1167.4,778.6,1226.6,1106.0,1053.9,815.2,1793.6,1512.5,3471.0,3468.6,1114.7,914.4,1614.3,3462.5,1530.1,1489.3,3474.6,3483.2,412.9,624.6,916.0,1120.0,618.9,2450.4,3475.9,3478.3,644.0,849.5,2023.4,1217.7,1111.2,934.7,-2.0,7.0,-15.0,10428.0,-8709.0,7528.0,-5213.0,-1.0,0.0,-2.0,1.0,-2.0,8.0,8877.0,-12383.0,4990.0,-3377.0,-10.0,-1.0,2.0,1.0
2022-05-13 12:36:50.987306-07:00,1167.4,778.6,1226.6,1101.7,1053.9,807.7,1800.3,1516.2,3471.0,3468.6,1114.7,921.1,1614.3,3467.4,1522.7,1486.6,3480.7,3478.3,412.1,624.6,920.3,1120.0,618.9,2450.4,3479.5,3475.9,638.4,849.5,2029.4,1217.7,1111.2,934.7,-2.0,6.0,-12.0,10430.0,-8708.0,7527.0,-5213.0,15.0,-11.0,-4.0,0.0,-3.0,11.0,8875.0,-12384.0,4991.0,-3376.0,9.0,-6.0,-2.0,1.0
2022-05-13 12:36:51.032168-07:00,1178.8,771.1,1226.6,1101.7,1058.2,807.7,1800.3,1516.2,3480.7,3469.8,1117.4,921.1,1618.1,3467.4,1522.7,1486.6,3480.7,3478.3,412.1,625.4,920.3,1126.1,618.1,2469.5,3479.5,3475.9,638.4,848.6,2029.4,1218.6,1112.1,937.3,0.0,1.0,-13.0,10433.0,-8708.0,7524.0,-5212.0,6.0,-7.0,-2.0,1.0,-4.0,11.0,8877.0,-12383.0,4990.0,-3376.0,0.0,-11.0,-2.0,1.0
2022-05-13 12:36:51.211766-07:00,1178.8,771.1,1226.6,1113.0,1058.2,812.7,1802.3,1524.5,3480.7,3469.8,1117.4,922.8,1616.2,3464.9,1525.5,1481.0,3467.4,3467.4,414.5,627.0,919.4,1126.1,618.1,2469.5,3479.5,3469.8,647.3,845.3,2028.4,1218.6,1112.1,937.3,-2.0,5.0,-9.0,10438.0,-8707.0,7519.0,-5211.0,16.0,-14.0,0.0,1.0,-8.0,7.0,8881.0,-12381.0,4988.0,-3377.0,12.0,-3.0,-4.0,1.0
2022-05-13 12:36:51.213793-07:00,1180.6,773.6,1232.8,1104.3,1058.2,812.7,1802.3,1524.5,3472.2,3468.6,1116.5,911.0,1616.2,3464.9,1525.5,1481.0,3467.4,3467.4,414.5,627.0,914.4,1121.7,621.4,2468.5,3479.5,3469.8,647.3,845.3,2030.4,1219.5,1116.5,938.1,-1.0,-6.0,-3.0,10449.0,-8694.0,7516.0,-5215.0,62.0,6.0,28.0,4.0,-11.0,17.0,8893.0,-12372.0,4985.0,-3381.0,60.0,-2.0,0.0,1.0
2022-05-13 12:36:51.215867-07:00,1180.6,773.6,1232.8,1104.3,1051.3,814.4,1807.1,1517.1,3472.2,3468.6,1116.5,911.0,1610.5,3461.3,1526.4,1482.9,3464.9,3475.9,413.7,627.0,914.4,1121.7,621.4,2468.5,3477.1,3479.5,635.9,845.3,2030.4,1219.5,1116.5,938.1,24.0,-115.0,8.0,10508.0,-8605.0,7512.0,-5248.0,486.0,109.0,146.0,13.0,-31.0,-22.0,8960.0,-12316.0,4976.0,-3423.0,437.0,79.0,-1.0,1.0
2022-05-13 12:36:51.255375-07:00,1180.6,777.8,1236.4,1090.3,1051.3,814.4,1807.1,1517.1,3472.2,3467.4,1106.9,914.4,1610.5,3461.3,1526.4,1482.9,3464.9,3475.9,413.7,627.0,919.4,1123.5,614.1,2450.4,3477.1,3479.5,635.9,845.3,2023.4,1225.7,1120.0,939.8,-120.0,-239.0,-36.0,10858.0,-7999.0,7472.0,-5542.0,2661.0,521.0,614.0,-154.0,-164.0,-75.0,9276.0,-12072.0,4882.0,-3580.0,2345.0,13.0,-112.0,1.0
2022-05-13 12:36:51.301831-07:00,1180.6,777.8,1236.4,1090.3,1054.8,813.5,1820.7,1526.4,3472.2,3467.4,1106.9,914.4,1619.9,3473.4,1522.7,1485.6,3479.5,3488.0,412.1,627.0,919.4,1123.5,614.1,2450.4,3475.9,3479.5,650.5,853.7,2023.4,1225.7,1120.0,939.8,-186.0,-123.0,-195.0,11521.0,-6886.0,7114.0,-6138.0,3085.0,42.0,234.0,-142.0,-101.0,-115.0,10066.0,-11450.0,4575.0,-3882.0,2168.0,-332.0,163.0,1.0
2022-05-13 12:36:51.345268-07:00,1179.7,774.5,1273.0,1117.4,1054.8,813.5,1820.7,1524.5,3466.1,3467.4,1115.6,916.0,1619.9,3473.4,1522.7,1475.5,3468.6,3488.0,412.1,627.0,922.0,1120.9,618.1,2449.4,3471.0,3479.5,650.5,853.7,2027.4,1215.1,1121.7,935.6,-53.0,-36.0,-178.0,12065.0,-6048.0,6760.0,-6372.0,2129.0,-453.0,816.0,-403.0,-164.0,15.0,10740.0,-10949.0,4328.0,-3805.0,999.0,-272.0,217.0,1.0
2022-05-13 12:36:51.436800-07:00,1187.6,774.5,1273.0,1117.4,1064.3,822.7,1825.5,1524.5,3473.4,3467.4,1115.6,916.0,1611.5,3478.3,1525.5,1475.5,3468.6,3466.1,405.9,634.3,922.0,1120.9,618.1,2455.7,3471.0,3478.3,664.4,861.2,2027.4,1215.1,1121.7,946.6,-77.0,40.0,-88.0,12624.0,-5443.0,6332.0,-6272.0,1736.0,-1014.0,940.0,-76.0,-1.0,31.0,11316.0,-10419.0,4182.0,-3788.0,1886.0,-419.0,384.0,1.0
2022-05-13 12:36:51.569818-07:00,1187.6,779.4,1313.3,1140.1,1064.3,822.7,1825.5,1510.6,3473.4,3473.4,1119.1,914.4,1611.5,3478.3,1525.5,1477.3,3471.0,3466.1,405.9,634.3,915.2,1120.0,620.5,2455.7,3468.6,3478.3,664.4,861.2,2030.4,1223.0,1124.4,946.6,44.0,208.0,-88.0,13119.0,-4898.0,5802.0,-6219.0,1630.0,-873.0,300.0,24.0,157.0,16.0,11851.0,-9908.0,3963.0,-3756.0,932.0,-367.0,238.0,1.0
2022-05-13 12:36:51.614804-07:00,1185.9,779.4,1313.3,1140.1,1059.1,832.7,1817.8,1510.6,3464.9,3473.4,1119.1,914.4,1609.6,3472.2,1521.8,1477.3,3471.0,3466.1,410.6,634.3,915.2,1120.0,620.5,2448.3,3468.6,3477.1,670.1,865.4,2030.4,1223.0,1124.4,930.5,89.0,167.0,-54.0,13358.0,-4732.0,5373.0,-6224.0,405.0,-782.0,-116.0,65.0,131.0,0.0,12038.0,-9752.0,3855.0,-3684.0,84.0,-230.0,36.0,1.0
2022-05-13 12:36:51.617040-07:00,1185.9,790.2,1316.9,1120.9,1059.1,832.7,1817.8,1511.5,3464.9,3467.4,1115.6,911.8,1609.6,3472.2,1521.8,1485.6,3469.8,3466.1,410.6,634.3,911.8,1116.5,631.1,2448.3,3477.1,3477.1,670.1,865.4,2023.4,1216.8,1121.7,930.5,93.0,54.0,-32.0,13458.0,-4762.0,5039.0,-6265.0,338.0,-638.0,-218.0,86.0,118.0,1.0,12086.0,-9739.0,3767.0,-3650.0,160.0,-190.0,-109.0,1.0
2022-05-13 12:36:51.618443-07:00,1182.3,776.9,1316.9,1120.9,1045.2,835.2,1824.6,1511.5,3468.6,3466.1,1115.6,911.8,1604.0,3473.4,1510.6,1485.6,3469.8,3467.4,407.5,640.0,911.8,1116.5,629.5,2502.6,3477.1,3468.6,666.0,878.0,2023.4,1216.8,1117.4,939.8,94.0,12.0,-11.0,13548.0,-4765.0,4777.0,-6274.0,335.0,-571.0,-108.0,104.0,45.0,2.0,12138.0,-9711.0,3643.0,-3679.0,237.0,-157.0,-130.0,1.0
2022-05-13 12:36:51.704800-07:00,1182.3,776.9,1295.4,1130.5,1045.2,835.2,1824.6,1501.4,3468.6,3466.1,1106.9,916.0,1604.0,3473.4,1514.3,1481.9,3478.3,3472.2,407.5,640.0,914.4,1114.7,629.5,2502.6,3474.6,3474.6,666.0,878.0,2037.4,1217.7,1117.4,939.8,84.0,-2.0,27.0,13625.0,-4747.0,4525.0,-6309.0,313.0,-426.0,-132.0,99.0,60.0,19.0,12191.0,-9675.0,3546.0,-3695.0,131.0,-154.0,-95.0,1.0
2022-05-13 12:36:51.707148-07:00,1192.9,781.1,1295.4,1130.5,1060.8,832.7,1824.6,1501.4,3468.6,3473.4,1106.9,916.0,1611.5,3468.6,1514.3,1481.9,3478.3,3472.2,404.3,646.5,914.4,1114.7,631.1,2495.1,3474.6,3474.6,666.8,899.1,2037.4,1217.7,1114.7,939.0,48.0,-3.0,19.0,13661.0,-4739.0,4403.0,-6321.0,134.0,-90.0,2.0,45.0,2.0,27.0,12211.0,-9677.0,3428.0,-3734.0,49.0,-94.0,-61.0,1.0
2022-05-13 12:36:51.795815-07:00,1192.9,781.1,1298.1,1134.0,1060.8,832.7,1810.0,1508.8,3468.6,3473.4,1104.3,911.0,1611.5,3468.6,1515.3,1479.2,3475.9,3472.2,404.3,646.5,911.0,1118.2,631.1,2495.1,3479.5,3480.7,666.8,899.1,2028.4,1212.4,1114.7,939.0,6.0,-20.0,-8.0,13683.0,-4711.0,4345.0,-6336.0,168.0,-76.0,-62.0,7.0,-9.0,10.0,12225.0,-9673.0,3383.0,-3740.0,78.0,-58.0,-78.0,1.0
2022-05-13 12:36:51.798161-07:00,1183.2,775.3,1298.1,1134.0,1048.7,831.9,1810.0,1508.8,3469.8,3475.9,1104.3,911.0,1619.9,3471.0,1515.3,1479.2,3475.9,3472.2,413.7,647.3,911.0,1118.2,631.1,2495.1,3479.5,3480.7,671.7,901.7,2028.4,1212.4,1113.0,944.9,-14.0,-22.0,-8.0,13693.0,-4676.0,4301.0,-6369.0,85.0,-48.0,-45.0,-7.0,-6.0,14.0,12240.0,-9664.0,3337.0,-3755.0,36.0,-64.0,-72.0,1.0
2022-05-13 12:36:51.840291-07:00,1183.2,775.3,1305.2,1128.7,1048.7,831.9,1811.0,1484.7,3469.8,3475.9,1107.8,911.8,1619.9,3471.0,1510.6,1482.9,3469.8,3483.2,413.7,647.3,915.2,1120.9,631.1,2495.1,3472.2,3472.2,671.7,901.7,2022.4,1211.5,1113.0,944.9,-11.0,-44.0,6.0,13699.0,-4675.0,4275.0,-6375.0,126.0,-52.0,18.0,-11.0,-6.0,23.0,12253.0,-9664.0,3289.0,-3755.0,106.0,-110.0,-59.0,1.0
2022-05-13 12:36:51.887159-07:00,1183.2,778.6,1316.0,1128.7,1051.3,841.9,1811.0,1484.7,3471.0,3469.8,1110.4,911.8,1612.4,3466.1,1510.6,1482.9,3469.8,3483.2,405.1,644.0,915.2,1117.4,627.0,2495.1,3472.2,3472.2,665.2,898.3,2022.4,1214.2,1107.8,939.0,-1.0,0.0,26.0,13716.0,-4627.0,4278.0,-6371.0,76.0,133.0,48.0,-1.0,-18.0,26.0,12279.0,-9649.0,3238.0,-3753.0,48.0,-72.0,-43.0,1.0
2022-05-13 12:36:51.932137-07:00,1183.2,778.6,1316.0,1120.9,1051.3,836.9,1814.9,1494.9,3471.0,3469.8,1110.4,911.8,1612.4,3466.1,1507.8,1491.2,3474.6,3475.9,410.6,644.0,911.0,1117.4,627.0,2495.1,3462.5,3478.3,666.0,898.3,2035.4,1214.2,1107.8,939.0,-8.0,-34.0,11.0,13705.0,-4586.0,4334.0,-6387.0,2.0,187.0,19.0,-1.0,-15.0,19.0,12283.0,-9647.0,3217.0,-3760.0,-1.0,-12.0,-27.0,1.0
2022-05-13 12:36:52.111134-07:00,1184.1,781.1,1325.0,1120.9,1051.3,836.9,1814.9,1494.9,3468.6,3467.4,1107.8,911.8,1614.3,3466.1,1507.8,1491.2,3474.6,3475.9,410.6,646.5,911.0,1120.0,622.2,2480.2,3462.5,3478.3,666.0,898.3,2035.4,1213.3,1106.9,944.1,-7.0,-36.0,-11.0,13686.0,-4533.0,4429.0,-6399.0,15.0,288.0,66.0,-1.0,-30.0,15.0,12287.0,-9644.0,3209.0,-3763.0,10.0,1.0,6.0,1.0
2022-05-13 12:36:52.112524-07:00,1184.1,781.1,1325.0,1121.7,1051.3,831.1,1793.6,1500.4,3468.6,3467.4,1107.8,911.8,1614.3,3463.7,1507.8,1479.2,3469.8,3483.2,407.5,646.5,914.4,1120.0,622.2,2480.2,3471.0,3467.4,671.7,898.3,2027.4,1213.3,1106.9,944.1,-12.0,-28.0,-9.0,13669.0,-4495.0,4506.0,-6410.0,13.0,103.0,41.0,3.0,-8.0,22.0,12290.0,-9642.0,3214.0,-3754.0,24.0,-9.0,38.0,1.0
2022-05-13 12:36:52.113639-07:00,1181.5,778.6,1316.9,1121.7,1063.4,831.1,1793.6,1500.4,3473.4,3466.1,1116.5,911.8,1612.4,3463.7,1507.8,1479.2,3469.8,3483.2,407.5,645.7,914.4,1116.5,626.2,2466.4,3471.0,3467.4,671.7,896.6,2027.4,1209.7,1112.1,939.8,5.0,-21.0,-13.0,13664.0,-4466.0,4553.0,-6408.0,164.0,115.0,23.0,12.0,-5.0,25.0,12311.0,-9619.0,3214.0,-3744.0,85.0,-11.0,35.0,1.0
2022-05-13 12:36:52.155339-07:00,1181.5,778.6,1316.9,1133.1,1069.5,831.9,1812.9,1492.1,3473.4,3466.1,1116.5,913.5,1609.6,3469.8,1508.8,1479.2,3467.4,3472.2,414.5,644.0,906.7,1116.5,626.2,2466.4,3472.2,3473.4,670.1,889.8,2019.4,1209.7,1112.1,939.8,-11.0,17.0,-42.0,13676.0,-4385.0,4553.0,-6438.0,51.0,59.0,0.0,-7.0,18.0,9.0,12349.0,-9570.0,3202.0,-3755.0,63.0,19.0,-8.0,1.0
2022-05-13 12:36:52.199795-07:00,1184.1,778.6,1319.6,1116.5,1069.5,831.9,1812.9,1492.1,3466.1,3474.6,1117.4,913.5,1609.6,3469.8,1508.8,1479.2,3467.4,3472.2,414.5,644.0,913.5,1118.2,623.0,2477.0,3472.2,3473.4,670.1,889.8,2030.4,1213.3,1113.9,939.0,-7.0,-42.0,-33.0,13663.0,-4404.0,4594.0,-6424.0,-166.0,80.0,76.0,-7.0,-16.0,-7.0,12330.0,-9593.0,3209.0,-3753.0,-122.0,10.0,-9.0,1.0
2022-05-13 12:36:52.246279-07:00,1184.1,778.6,1319.6,1116.5,1134.0,831.1,1811.9,1505.1,3466.1,3474.6,1117.4,913.5,1613.4,3471.0,1516.2,1485.6,3467.4,3472.2,412.1,645.7,913.5,1118.2,623.0,2477.0,3477.1,3475.9,669.3,891.5,2030.4,1213.3,1113.9,939.0,-8.0,-29.0,-41.0,13659.0,-4399.0,4645.0,-6398.0,3.0,76.0,90.0,-18.0,8.0,-22.0,12333.0,-9591.0,3199.0,-3754.0,53.0,-34.0,-15.0,1.0
2022-05-13 12:36:52.290375-07:00,1188.5,778.6,1320.5,1127.0,1134.0,831.1,1811.9,1505.1,3478.3,3472.2,1113.9,914.4,1613.4,3471.0,1516.2,1485.6,3467.4,3472.2,412.1,645.7,908.4,1111.2,623.0,2481.3,3477.1,3475.9,669.3,891.5,2031.4,1216.8,1113.9,948.3,-7.0,-34.0,-9.0,13648.0,-4399.0,4713.0,-6371.0,-3.0,164.0,122.0,-7.0,0.0,6.0,12332.0,-9602.0,3189.0,-3741.0,-32.0,-48.0,-10.0,1.0
2022-05-13 12:36:52.381996-07:00,1188.5,778.6,1320.5,1127.0,1217.7,832.7,1811.0,1518.0,3478.3,3472.2,1113.9,914.4,1620.9,3467.4,1508.8,1479.2,3462.5,3472.2,405.9,645.7,908.4,1111.2,623.0,2481.3,3477.1,3467.4,651.4,890.7,2031.4,1216.8,1113.9,948.3,-20.0,3.0,-19.0,13648.0,-4352.0,4789.0,-6348.0,-40.0,124.0,93.0,-6.0,5.0,16.0,12340.0,-9597.0,3178.0,-3737.0,22.0,-8.0,2.0,1.0
2022-05-13 12:36:52.383227-07:00,1187.6,778.6,1379.4,1127.9,1217.7,832.7,1811.0,1515.3,3475.9,3478.3,1126.1,916.9,1620.9,3467.4,1508.8,1479.2,3477.1,3472.2,405.9,645.7,913.5,1118.2,619.7,2471.7,3464.9,3467.4,651.4,890.7,2034.4,1239.1,1148.0,947.5,-2.0,-6.0,7.0,13636.0,-4351.0,4859.0,-6322.0,-138.0,183.0,112.0,-4.0,28.0,17.0,12336.0,-9604.0,3173.0,-3735.0,-50.0,-20.0,-29.0,1.0
2022-05-13 12:36:52.427342-07:00,1179.7,778.6,1379.4,1127.9,1285.5,834.4,1806.1,1515.3,3469.8,3478.3,1126.1,916.9,1613.4,3472.2,1509.7,1479.2,3477.1,3483.2,409.0,647.3,913.5,1118.2,619.7,2472.7,3464.9,3480.7,661.1,896.6,2034.4,1239.1,1148.0,949.2,-28.0,-10.0,-21.0,13619.0,-4342.0,4962.0,-6282.0,-98.0,132.0,92.0,-11.0,-34.0,17.0,12323.0,-9621.0,3171.0,-3738.0,4.0,9.0,-27.0,1.0
2022-05-13 12:36:52.516772-07:00,1179.7,786.1,1373.9,1124.4,1285.5,834.4,1806.1,1498.6,3469.8,3471.0,1133.1,911.8,1613.4,3472.2,1509.7,1483.8,3468.6,3483.2,409.0,647.3,919.4,1113.9,627.8,2472.7,3469.8,3480.7,661.1,896.6,2028.4,1265.8,1177.0,949.2,-12.0,-30.0,-19.0,13600.0,-4361.0,5036.0,-6253.0,-71.0,80.0,20.0,-10.0,-12.0,4.0,12314.0,-9630.0,3170.0,-3744.0,-37.0,-1.0,-19.0,1.0
2022-05-13 12:36:52.559754-07:00,1188.5,786.1,1373.9,1124.4,1258.7,831.1,1802.3,1498.6,3461.3,3471.0,1133.1,911.8,1604.0,3473.4,1506.9,1483.8,3468.6,3472.2,406.7,651.4,919.4,1113.9,627.8,2468.5,3469.8,3475.9,668.4,889.8,2028.4,1265.8,1177.0,945.8,0.0,-26.0,-18.0,13576.0,-4407.0,5087.0,-6231.0,-236.0,51.0,17.0,-8.0,-4.0,-9.0,12290.0,-9663.0,3170.0,-3737.0,-163.0,-32.0,-13.0,1.0
2022-05-13 12:36:52.605084-07:00,1188.5,796.9,1363.0,1132.2,1258.7,831.1,1802.3,1499.5,3461.3,3467.4,1141.9,920.3,1604.0,3473.4,1506.9,1475.5,3475.9,3472.2,406.7,651.4,913.5,1117.4,621.4,2468.5,3478.3,3475.9,668.4,889.8,2014.4,1287.3,1207.1,945.8,-26.0,-29.0,6.0,13568.0,-4421.0,5136.0,-6200.0,-14.0,79.0,112.0,-12.0,-28.0,9.0,12286.0,-9676.0,3155.0,-3730.0,56.0,-42.0,-12.0,1.0
2022-05-13 12:36:52.649766-07:00,1189.4,796.9,1363.0,1132.2,1231.9,832.7,1803.2,1499.5,3474.6,3467.4,1141.9,920.3,1604.0,3478.3,1505.1,1475.5,3475.9,3478.3,410.6,648.1,913.5,1117.4,621.4,2485.5,3478.3,3477.1,672.5,910.1,2014.4,1287.3,1207.1,977.3,-2.0,-14.0,-5.0,13565.0,-4424.0,5174.0,-6171.0,-118.0,44.0,28.0,-8.0,0.0,-2.0,12292.0,-9670.0,3151.0,-3729.0,-44.0,-10.0,8.0,1.0
2022-05-13 12:36:52.694725-07:00,1189.4,794.4,1345.8,1135.7,1231.9,832.7,1790.7,1496.7,3474.6,3469.8,1143.6,919.4,1604.0,3478.3,1501.4,1479.2,3475.9,3468.6,410.6,648.1,910.1,1117.4,621.4,2485.5,3477.1,3478.3,672.5,910.1,2028.4,1295.4,1223.0,977.3,-3.0,-13.0,21.0,13562.0,-4404.0,5207.0,-6164.0,56.0,84.0,73.0,13.0,0.0,20.0,12301.0,-9657.0,3152.0,-3733.0,62.0,29.0,31.0,1.0
2022-05-13 12:36:52.740350-07:00,1189.4,800.2,1345.8,1135.7,1213.3,831.1,1790.7,1496.7,3474.6,3469.8,1143.6,919.4,1602.1,3471.0,1501.4,1479.2,3475.9,3468.6,407.5,661.1,910.1,1117.4,620.5,2498.3,3477.1,3478.3,671.7,919.4,2028.4,1295.4,1209.7,952.6,-38.0,-82.0,83.0,13527.0,-4409.0,5337.0,-6126.0,-306.0,327.0,134.0,15.0,-99.0,48.0,12274.0,-9685.0,3207.0,-3702.0,-215.0,75.0,174.0,1.0
2022-05-13 12:36:52.785295-07:00,1189.4,800.2,1342.2,1127.9,1213.3,831.1,1803.2,1477.3,3474.6,3469.8,1148.0,922.8,1602.1,3471.0,1506.9,1480.1,3468.6,3471.0,407.5,661.1,912.7,1120.9,620.5,2498.3,3479.5,3469.8,671.7,919.4,2018.4,1290.9,1209.7,952.6,-48.0,-116.0,97.0,13467.0,-4432.0,5534.0,-6066.0,-220.0,434.0,240.0,-9.0,-101.0,47.0,12253.0,-9702.0,3337.0,-3612.0,-98.0,120.0,397.0,1.0
2022-05-13 12:36:52.832261-07:00,1185.0,798.5,1342.2,1127.9,1192.0,839.4,1803.2,1477.3,3458.9,3467.4,1148.0,922.8,1615.2,3471.0,1506.9,1480.1,3468.6,3471.0,416.1,645.7,912.7,1120.9,614.1,2494.0,3479.5,3469.8,679.9,914.4,2018.4,1290.9,1216.8,970.5,-47.0,-19.0,20.0,13424.0,-4368.0,5764.0,-5995.0,-156.0,468.0,272.0,-26.0,-38.0,30.0,12274.0,-9656.0,3513.0,-3494.0,-35.0,177.0,505.0,1.0
2022-05-13 12:36:52.876454-07:00,1185.0,798.5,1338.6,1119.1,1192.0,839.4,1791.6,1480.1,3458.9,3467.4,1148.9,920.3,1615.2,3471.0,1507.8,1478.3,3483.2,3478.3,416.1,645.7,908.4,1120.0,614.1,2494.0,3472.2,3473.4,679.9,914.4,2019.4,1290.0,1216.8,970.5,4.0,19.0,-67.0,13388.0,-4340.0,5910.0,-5953.0,-136.0,284.0,137.0,-11.0,28.0,-4.0,12288.0,-9611.0,3699.0,-3376.0,-50.0,160.0,456.0,1.0
2022-05-13 12:36:52.966995-07:00,1186.7,788.6,1319.6,1119.1,1199.1,831.1,1791.6,1480.1,3472.2,3472.2,1144.5,920.3,1617.1,3472.2,1507.8,1478.3,3483.2,3478.3,403.5,648.9,908.4,1122.6,615.7,2484.4,3472.2,3473.4,686.4,910.1,2019.4,1289.1,1209.7,954.3,38.0,41.0,-108.0,13362.0,-4312.0,6019.0,-5923.0,7.0,149.0,121.0,10.0,81.0,-29.0,12304.0,-9574.0,3809.0,-3301.0,62.0,82.0,295.0,1.0
2022-05-13 12:36:53.010406-07:00,1186.7,788.6,1319.6,1110.4,1199.1,833.6,1783.9,1493.0,3472.2,3472.2,1144.5,920.3,1617.1,3471.0,1510.6,1486.6,3481.9,3479.5,406.7,648.9,905.0,1122.6,615.7,2484.4,3481.9,3488.0,686.4,910.1,2027.4,1289.1,1209.7,954.3,37.0,45.0,-112.0,13362.0,-4277.0,6067.0,-5898.0,-33.0,35.0,86.0,8.0,85.0,-29.0,12330.0,-9534.0,3872.0,-3244.0,3.0,-19.0,121.0,1.0
2022-05-13 12:36:53.055361-07:00,1185.9,786.1,1332.3,1110.4,1214.2,833.6,1783.9,1493.0,3478.3,3463.7,1136.6,920.3,1611.5,3471.0,1510.6,1486.6,3481.9,3479.5,406.7,651.4,905.0,1116.5,614.9,2487.6,3481.9,3488.0,686.4,905.9,2027.4,1281.9,1207.1,959.4,31.0,51.0,-79.0,13363.0,-4290.0,6085.0,-5867.0,42.0,-93.0,35.0,5.0,67.0,-21.0,12347.0,-9522.0,3872.0,-3216.0,45.0,-66.0,-18.0,1.0
2022-05-13 12:36:53.100352-07:00,1185.9,786.1,1332.3,1129.6,1214.2,829.4,1772.3,1485.6,3478.3,3463.7,1136.6,920.3,1611.5,3466.1,1506.9,1484.7,3475.9,3479.5,406.7,651.4,907.6,1116.5,614.9,2487.6,3475.9,3469.8,679.9,905.9,2022.4,1281.9,1207.1,959.4,-2.0,8.0,-34.0,13378.0,-4306.0,6052.0,-5855.0,-11.0,-119.0,-34.0,-7.0,7.0,11.0,12345.0,-9537.0,3842.0,-3211.0,-23.0,-51.0,-64.0,1.0
2022-05-13 12:36:53.145954-07:00,1182.3,800.2,1330.5,1129.6,1189.4,829.4,1772.3,1485.6,3463.7,3471.0,1152.4,920.3,1610.5,3466.1,1506.9,1484.7,3475.9,3479.5,406.7,645.7,907.6,1120.9,623.0,2479.1,3475.9,3469.8,679.9,898.3,2022.4,1279.2,1205.3,953.4,-10.0,-8.0,6.0,13391.0,-4328.0,6006.0,-5857.0,-2.0,-64.0,-39.0,-13.0,-4.0,16.0,12340.0,-9552.0,3812.0,-3221.0,-20.0,-21.0,-61.0,1.0
2022-05-13 12:36:53.190318-07:00,1182.3,800.2,1330.5,1118.2,1186.7,835.2,1786.8,1477.3,3463.7,3471.0,1152.4,919.4,1612.4,3464.9,1509.7,1482.9,3474.6,3473.4,405.9,647.3,911.8,1120.9,623.0,2479.1,3472.2,3477.1,675.8,898.3,2029.4,1279.2,1205.3,953.4,-25.0,-24.0,3.0,13382.0,-4347.0,6003.0,-5867.0,-65.0,30.0,-41.0,-9.0,-28.0,23.0,12326.0,-9573.0,3803.0,-3226.0,-83.0,-6.0,-16.0,1.0
2022-05-13 12:36:53.324978-07:00,1183.2,793.5,1325.9,1116.5,1186.7,835.2,1786.8,1477.3,3474.6,3472.2,1141.0,922.8,1612.4,3464.9,1509.7,1482.9,3474.6,3473.4,405.9,647.3,906.7,1111.2,619.7,2481.3,3472.2,3477.1,675.8,898.3,2027.4,1281.9,1208.0,952.6,-19.0,-37.0,-3.0,13369.0,-4370.0,6017.0,-5866.0,4.0,8.0,21.0,-14.0,-25.0,21.0,12315.0,-9589.0,3804.0,-3218.0,14.0,-18.0,10.0,1.0
2022-05-13 12:36:53.326908-07:00,1183.2,793.5,1325.9,1116.5,1177.9,832.7,1783.9,1478.3,3474.6,3472.2,1141.0,922.8,1607.7,3458.9,1517.1,1478.3,3474.6,3481.9,406.7,643.2,906.7,1111.2,619.7,2481.3,3477.1,3479.5,666.0,897.4,2027.4,1281.9,1208.0,952.6,-19.0,12.0,-13.0,13380.0,-4353.0,6015.0,-5856.0,26.0,-20.0,32.0,-18.0,-3.0,15.0,12335.0,-9568.0,3794.0,-3216.0,39.0,-13.0,-4.0,1.0
2022-05-13 12:36:53.371894-07:00,1177.0,789.4,1323.2,1125.2,1177.9,832.7,1783.9,1478.3,3462.5,3467.4,1146.3,922.0,1607.7,3458.9,1517.1,1478.3,3474.6,3481.9,406.7,643.2,911.8,1117.4,618.9,2488.7,3477.1,3479.5,666.0,897.4,2020.4,1280.1,1212.4,966.2,-10.0,-3.0,-4.0,13388.0,-4350.0,6000.0,-5853.0,14.0,-40.0,-15.0,-10.0,-1.0,12.0,12343.0,-9559.0,3790.0,-3218.0,16.0,4.0,-16.0,1.0
2022-05-13 12:36:53.415400-07:00,1177.0,789.4,1323.2,1125.2,1177.9,832.7,1762.7,1481.0,3462.5,3467.4,1146.3,922.0,1614.3,3468.6,1512.5,1480.1,3477.1,3477.1,404.3,653.8,911.8,1117.4,618.9,2488.7,3467.4,3467.4,666.0,897.4,2020.4,1280.1,1212.4,966.2,-7.0,0.0,-13.0,13393.0,-4344.0,5988.0,-5861.0,61.0,-16.0,-13.0,-6.0,6.0,10.0,12350.0,-9547.0,3787.0,-3231.0,49.0,18.0,-28.0,1.0
2022-05-13 12:36:53.460397-07:00,1180.6,784.4,1327.8,1127.0,1177.9,832.7,1762.7,1481.0,3467.4,3473.4,1142.7,926.2,1614.3,3468.6,1512.5,1480.1,3477.1,3477.1,404.3,653.8,905.0,1117.4,614.1,2483.4,3467.4,3467.4,666.0,897.4,2022.4,1274.7,1199.1,949.2,4.0,-13.0,-16.0,13397.0,-4336.0,5976.0,-5869.0,24.0,-24.0,-17.0,4.0,-2.0,6.0,12354.0,-9537.0,3783.0,-3246.0,13.0,9.0,-25.0,1.0
2022-05-13 12:36:53.505556-07:00,1182.3,784.4,1327.8,1127.0,1177.9,824.4,1773.3,1470.9,3468.6,3473.4,1142.7,926.2,1605.8,3472.2,1508.8,1464.4,3478.3,3477.1,411.4,643.2,905.0,1117.4,614.1,2474.9,3477.1,3473.4,677.4,896.6,2022.4,1274.7,1199.1,956.8,7.0,-7.0,-11.0,13406.0,-4328.0,5954.0,-5876.0,82.0,-58.0,8.0,10.0,0.0,6.0,12364.0,-9526.0,3769.0,-3260.0,72.0,-12.0,-30.0,1.0
2022-05-13 12:36:53.549754-07:00,1182.3,784.4,1319.6,1120.0,1177.9,824.4,1773.3,1481.0,3468.6,3471.0,1142.7,922.8,1605.8,3472.2,1508.8,1476.4,3477.1,3477.1,411.4,643.2,908.4,1113.9,614.1,2474.9,3474.6,3473.4,677.4,896.6,2018.4,1272.1,1191.2,956.8,-9.0,0.0,-7.0,13420.0,-4307.0,5933.0,-5881.0,67.0,5.0,8.0,-5.0,-4.0,14.0,12378.0,-9508.0,3755.0,-3274.0,49.0,-9.0,-27.0,1.0
2022-05-13 12:36:53.836237-07:00,1187.6,784.4,1319.6,1120.0,1179.7,831.9,1767.5,1481.0,3469.8,3471.0,1142.7,922.8,1611.5,3464.9,1510.6,1476.4,3477.1,3474.6,417.6,647.3,908.4,1113.9,614.1,2467.4,3474.6,3467.4,670.9,891.5,2018.4,1272.1,1191.2,955.1,-8.0,-13.0,-19.0,13425.0,-4293.0,5924.0,-5889.0,17.0,-18.0,-26.0,-11.0,-5.0,0.0,12385.0,-9497.0,3748.0,-3287.0,14.0,15.0,-22.0,1.0
2022-05-13 12:36:53.845684-07:00,1187.6,790.2,1306.1,1120.0,1179.7,831.9,1767.5,1481.0,3469.8,3480.7,1138.4,920.3,1611.5,3464.9,1510.6,1478.3,3473.4,3474.6,417.6,647.3,909.3,1115.6,607.6,2467.4,3478.3,3467.4,670.9,891.5,2027.4,1265.8,1196.5,955.1,-12.0,-32.0,-19.0,13420.0,-4301.0,5925.0,-5894.0,1.0,-4.0,-9.0,-9.0,-20.0,-6.0,12382.0,-9499.0,3749.0,-3291.0,-12.0,10.0,-4.0,1.0
2022-05-13 12:36:53.846863-07:00,1180.6,790.2,1306.1,1120.0,1168.2,831.1,1772.3,1481.0,3473.4,3480.7,1138.4,920.3,1606.8,3468.6,1503.2,1478.3,3473.4,3484.4,404.3,648.9,909.3,1115.6,607.6,2471.7,3478.3,3477.1,669.3,894.9,2027.4,1265.8,1196.5,960.2,-11.0,-28.0,-26.0,13412.0,-4313.0,5936.0,-5891.0,5.0,-24.0,12.0,-14.0,-11.0,-5.0,12381.0,-9501.0,3753.0,-3287.0,-4.0,-14.0,13.0,1.0
2022-05-13 12:36:53.847942-07:00,1180.6,786.9,1319.6,1116.5,1168.2,831.1,1778.1,1470.9,3473.4,3464.9,1146.3,918.6,1606.8,3468.6,1504.1,1475.5,3477.1,3474.6,404.3,648.9,910.1,1119.1,618.9,2471.7,3474.6,3462.5,669.3,894.9,2030.4,1269.4,1196.5,960.2,-11.0,-11.0,-17.0,13416.0,-4321.0,5936.0,-5877.0,2.0,-33.0,41.0,-12.0,-1.0,0.0,12389.0,-9497.0,3748.0,-3273.0,20.0,-41.0,21.0,1.0
2022-05-13 12:36:53.849166-07:00,1175.3,798.5,1319.6,1116.5,1166.5,835.2,1778.1,1470.9,3457.6,3471.0,1146.3,918.6,1608.7,3478.3,1504.1,1475.5,3477.1,3474.6,409.0,646.5,910.1,1119.1,616.5,2467.4,3474.6,3462.5,665.2,894.1,2030.4,1269.4,1194.7,944.1,-2.0,-6.0,-10.0,13428.0,-4320.0,5929.0,-5858.0,24.0,-43.0,52.0,-2.0,1.0,11.0,12399.0,-9493.0,3739.0,-3257.0,24.0,-41.0,17.0,1.0
2022-05-13 12:36:53.868762-07:00,1175.3,798.5,1318.7,1117.4,1166.5,835.2,1780.1,1461.7,3457.6,3471.0,1140.1,916.9,1608.7,3478.3,1507.8,1483.8,3478.3,3478.3,409.0,646.5,908.4,1119.1,616.5,2467.4,3472.2,3480.7,665.2,894.1,2025.4,1271.2,1194.7,944.1,0.0,3.0,-2.0,13446.0,-4310.0,5915.0,-5839.0,37.0,-55.0,37.0,5.0,-1.0,13.0,12414.0,-9481.0,3726.0,-3248.0,35.0,-34.0,7.0,1.0
2022-05-13 12:36:53.973247-07:00,1178.8,798.5,1318.7,1117.4,1155.0,826.9,1780.1,1461.7,3468.6,3473.4,1140.1,916.9,1610.5,3468.6,1507.8,1483.8,3478.3,3478.3,406.7,647.3,908.4,1119.1,610.8,2449.4,3472.2,3480.7,669.3,889.8,2025.4,1271.2,1196.5,951.7,-8.0,0.0,-4.0,13460.0,-4299.0,5898.0,-5830.0,35.0,-35.0,12.0,-1.0,-3.0,12.0,12427.0,-9470.0,3715.0,-3246.0,24.0,-16.0,4.0,1.0
2022-05-13 12:36:54.045508-07:00,1178.8,798.5,1317.8,1119.1,1155.0,826.9,1776.2,1460.8,3468.6,3473.4,1138.4,922.8,1610.5,3468.6,1505.1,1478.3,3473.4,3481.9,406.7,647.3,906.7,1113.9,610.8,2449.4,3478.3,3479.5,669.3,889.8,2027.4,1267.6,1196.5,951.7,0.0,0.0,-4.0,13470.0,-4293.0,5880.0,-5829.0,-7.0,-34.0,-7.0,0.0,-7.0,10.0,12436.0,-9461.0,3707.0,-3245.0,11.0,-11.0,-5.0,1.0
2022-05-13 12:36:54.050125-07:00,1183.2,787.7,1318.7,1119.1,1161.2,829.4,1776.2,1460.8,3468.6,3471.0,1139.2,922.8,1608.7,3471.0,1505.1,1478.3,3473.4,3481.9,405.1,641.6,906.7,1116.5,614.9,2464.2,3478.3,3479.5,670.9,894.9,2027.4,1273.9,1185.0,950.0,-6.0,-10.0,-1.0,13475.0,-4304.0,5867.0,-5823.0,20.0,-46.0,3.0,-7.0,-6.0,13.0,12437.0,-9461.0,3705.0,-3243.0,12.0,-11.0,-1.0,1.0
2022-05-13 12:36:54.051293-07:00,1183.2,787.7,1318.7,1111.2,1161.2,828.5,1780.1,1470.9,3468.6,3471.0,1139.2,921.1,1608.7,3473.4,1502.3,1475.5,3477.1,3479.5,408.2,641.6,906.7,1116.5,614.9,2464.2,3483.2,3477.1,673.3,894.9,2025.4,1273.9,1185.0,950.0,-5.0,21.0,-26.0,13487.0,-4293.0,5847.0,-5824.0,54.0,-50.0,-12.0,-17.0,13.0,6.0,12453.0,-9443.0,3695.0,-3247.0,66.0,-9.0,-27.0,1.0
2022-05-13 12:36:54.090375-07:00,1174.4,794.4,1346.7,1111.2,1165.6,828.5,1780.1,1470.9,3479.5,3462.5,1141.0,921.1,1603.0,3473.4,1502.3,1475.5,3477.1,3479.5,408.2,646.5,906.7,1113.0,611.7,2465.3,3483.2,3477.1,673.3,892.4,2025.4,1259.6,1184.1,950.9,1.0,25.0,-40.0,13494.0,-4290.0,5821.0,-5837.0,75.0,-57.0,-72.0,-12.0,30.0,-3.0,12457.0,-9436.0,3682.0,-3265.0,37.0,3.0,-74.0,1.0
2022-05-13 12:36:54.135362-07:00,1174.4,794.4,1346.7,1111.2,1165.6,830.2,1773.3,1457.1,3479.5,3462.5,1141.0,919.4,1603.0,3462.5,1502.3,1471.8,3478.3,3467.4,404.3,646.5,903.4,1113.0,611.7,2465.3,3468.6,3475.9,673.3,892.4,2023.4,1259.6,1184.1,950.9,20.0,59.0,-68.0,13499.0,-4287.0,5767.0,-5880.0,111.0,-113.0,-172.0,0.0,65.0,-11.0,12454.0,-9438.0,3647.0,-3310.0,18.0,7.0,-175.0,1.0
2022-05-13 12:36:54.180241-07:00,1176.2,791.0,1309.7,1111.2,1153.3,830.2,1773.3,1457.1,3478.3,3466.1,1143.6,919.4,1607.7,3462.5,1502.3,1471.8,3478.3,3467.4,404.3,648.9,903.4,1111.2,614.9,2474.9,3468.6,3475.9,673.3,891.5,2023.4,1261.3,1193.8,950.0,30.0,55.0,-60.0,13501.0,-4299.0,5679.0,-5952.0,90.0,-181.0,-253.0,11.0,57.0,-14.0,12432.0,-9462.0,3583.0,-3395.0,1.0,0.0,-309.0,1.0
2022-05-13 12:36:54.270555-07:00,1176.2,791.0,1309.7,1119.1,1153.3,833.6,1759.8,1467.2,3478.3,3466.1,1143.6,918.6,1607.7,3471.0,1506.9,1469.0,3471.0,3467.4,411.4,648.9,910.1,1111.2,614.9,2474.9,3472.2,3474.6,666.0,891.5,2015.4,1261.3,1193.8,950.0,10.0,-21.0,-6.0,13494.0,-4341.0,5570.0,-6039.0,74.0,-202.0,-268.0,18.0,-5.0,2.0,12388.0,-9511.0,3500.0,-3501.0,-52.0,-14.0,-349.0,1.0
2022-05-13 12:36:54.315444-07:00,1179.7,790.2,1314.2,1112.1,1149.8,833.6,1759.8,1467.2,3474.6,3464.9,1140.1,915.2,1608.7,3471.0,1506.9,1469.0,3471.0,3467.4,411.4,646.5,900.0,1118.2,621.4,2470.6,3472.2,3474.6,666.0,878.0,2022.4,1265.8,1185.9,956.8,-6.0,-51.0,22.0,13492.0,-4381.0,5463.0,-6114.0,70.0,-141.0,-189.0,2.0,-33.0,7.0,12353.0,-9553.0,3415.0,-3594.0,-31.0,-32.0,-287.0,1.0
2022-05-13 12:36:54.406563-07:00,1179.7,790.2,1314.2,1112.1,1155.9,827.7,1770.4,1468.1,3474.6,3464.9,1140.1,915.2,1610.5,3478.3,1505.1,1475.5,3475.9,3469.8,411.4,647.3,900.0,1118.2,621.4,2470.6,3474.6,3467.4,668.4,887.3,2022.4,1265.8,1185.9,956.8,-27.0,-64.0,30.0,13490.0,-4408.0,5386.0,-6167.0,40.0,-140.0,-130.0,-8.0,-52.0,20.0,12329.0,-9586.0,3343.0,-3656.0,-18.0,-54.0,-192.0,1.0
2022-05-13 12:36:54.407749-07:00,1181.5,789.4,1310.6,1111.2,1155.9,827.7,1770.4,1468.1,3472.2,3473.4,1137.5,919.4,1610.5,3478.3,1505.1,1475.5,3475.9,3469.8,411.4,647.3,911.0,1117.4,618.1,2467.4,3474.6,3467.4,668.4,887.3,2016.4,1271.2,1185.0,950.0,-33.0,-46.0,32.0,13502.0,-4416.0,5324.0,-6187.0,161.0,-105.0,7.0,-19.0,-40.0,21.0,12339.0,-9581.0,3281.0,-3693.0,146.0,-63.0,-125.0,1.0
2022-05-13 12:36:54.450435-07:00,1181.5,789.4,1310.6,1111.2,1151.5,833.6,1770.4,1465.4,3472.2,3473.4,1137.5,919.4,1607.7,3463.7,1507.8,1482.9,3477.1,3477.1,404.3,640.0,911.0,1117.4,618.1,2467.4,3480.7,3479.5,664.4,878.0,2016.4,1271.2,1185.0,950.0,-22.0,-5.0,9.0,13541.0,-4352.0,5268.0,-6197.0,174.0,-40.0,33.0,-11.0,-16.0,17.0,12378.0,-9537.0,3224.0,-3725.0,142.0,-42.0,-82.0,1.0
2022-05-13 12:36:54.495342-07:00,1175.3,789.4,1306.1,1120.9,1151.5,833.6,1770.4,1465.4,3478.3,3475.9,1141.0,922.8,1607.7,3463.7,1507.8,1482.9,3477.1,3477.1,404.3,640.0,907.6,1117.4,615.7,2460.0,3480.7,3479.5,664.4,878.0,2023.4,1265.8,1183.2,947.5,-11.0,-19.0,11.0,13559.0,-4317.0,5240.0,-6204.0,19.0,-8.0,-16.0,-4.0,-18.0,4.0,12386.0,-9530.0,3197.0,-3739.0,-10.0,-23.0,-41.0,1.0
2022-05-13 12:36:54.539723-07:00,1183.2,789.4,1306.1,1120.9,1155.0,832.7,1759.8,1458.9,3466.1,3475.9,1141.0,922.8,1606.8,3472.2,1509.7,1480.1,3471.0,3467.4,408.2,640.8,907.6,1117.4,615.7,2456.8,3484.4,3478.3,667.6,888.2,2023.4,1265.8,1183.2,951.7,-6.0,-27.0,-2.0,13557.0,-4311.0,5244.0,-6209.0,62.0,20.0,20.0,3.0,-16.0,8.0,12385.0,-9532.0,3189.0,-3745.0,37.0,-6.0,-16.0,1.0
2022-05-13 12:36:54.584810-07:00,1183.2,788.6,1309.7,1109.5,1155.0,832.7,1759.8,1461.7,3466.1,3468.6,1135.7,921.1,1606.8,3472.2,1509.7,1476.4,3479.5,3467.4,408.2,640.8,909.3,1108.6,616.5,2456.8,3477.1,3478.3,667.6,888.2,2019.4,1253.3,1185.9,951.7,1.0,6.0,-14.0,13567.0,-4270.0,5245.0,-6214.0,76.0,79.0,34.0,-6.0,18.0,-4.0,12398.0,-9516.0,3176.0,-3754.0,29.0,-5.0,-22.0,1.0
2022-05-13 12:36:54.676114-07:00,1181.5,788.6,1309.7,1109.5,1181.5,820.2,1773.3,1461.7,3468.6,3468.6,1135.7,921.1,1610.5,3466.1,1499.5,1476.4,3479.5,3473.4,405.1,658.7,909.3,1108.6,616.5,2470.6,3477.1,3473.4,666.8,874.7,2019.4,1253.3,1185.9,942.4,-10.0,-12.0,-33.0,13561.0,-4238.0,5273.0,-6226.0,44.0,39.0,-25.0,-5.0,0.0,-3.0,12389.0,-9527.0,3172.0,-3759.0,-37.0,-11.0,-31.0,1.0
2022-05-13 12:36:54.678052-07:00,1181.5,784.4,1304.3,1120.9,1181.5,820.2,1773.3,1458.9,3468.6,3472.2,1138.4,912.7,1610.5,3466.1,1499.5,1478.3,3477.1,3473.4,405.1,658.7,904.2,1115.6,611.7,2470.6,3474.6,3473.4,666.8,874.7,2022.4,1255.1,1173.5,942.4,-2.0,-12.0,-8.0,13553.0,-4238.0,5272.0,-6243.0,-55.0,-5.0,-87.0,1.0,-11.0,0.0,12380.0,-9541.0,3159.0,-3761.0,-130.0,-36.0,-36.0,1.0
2022-05-13 12:36:54.767022-07:00,1181.5,784.4,1304.3,1120.9,1231.9,825.2,1759.8,1458.9,3468.6,3472.2,1138.4,912.7,1610.5,3473.4,1500.4,1478.3,3477.1,3473.4,408.2,644.9,904.2,1115.6,611.7,2460.0,3474.6,3483.2,670.9,878.0,2022.4,1255.1,1173.5,976.5,-19.0,-39.0,26.0,13527.0,-4279.0,5281.0,-6265.0,-35.0,40.0,-57.0,1.0,-27.0,29.0,12341.0,-9597.0,3159.0,-3748.0,-89.0,-10.0,1.0,1.0
2022-05-13 12:36:54.768183-07:00,1181.5,781.1,1288.2,1105.1,1231.9,825.2,1768.5,1470.0,3468.6,3467.4,1141.0,915.2,1610.5,3473.4,1503.2,1473.6,3480.7,3472.2,408.2,644.9,905.9,1111.2,618.1,2460.0,3473.4,3479.5,670.9,878.0,2019.4,1238.2,1176.2,976.5,-7.0,0.0,-12.0,13524.0,-4274.0,5276.0,-6279.0,53.0,-51.0,-10.0,-7.0,-4.0,3.0,12333.0,-9609.0,3162.0,-3742.0,18.0,-12.0,8.0,1.0
2022-05-13 12:36:54.857122-07:00,1180.6,782.7,1288.2,1105.1,1264.9,831.9,1768.5,1470.0,3467.4,3466.1,1141.0,915.2,1604.9,3473.4,1503.2,1473.6,3480.7,3472.2,405.9,644.9,905.9,1111.2,619.7,2463.2,3473.4,3479.5,670.1,882.3,2019.4,1238.2,1175.3,964.5,-11.0,-6.0,-13.0,13533.0,-4277.0,5242.0,-6287.0,23.0,-100.0,-35.0,-3.0,-2.0,16.0,12331.0,-9616.0,3157.0,-3736.0,-16.0,-18.0,-11.0,1.0
2022-05-13 12:36:54.946498-07:00,1180.6,782.7,1297.2,1093.8,1264.9,831.9,1765.6,1462.6,3467.4,3466.1,1136.6,914.4,1604.9,3473.4,1502.3,1475.5,3475.9,3472.2,405.9,644.9,908.4,1114.7,619.7,2463.2,3475.9,3471.0,670.1,882.3,2019.4,1245.3,1175.3,964.5,3.0,-13.0,-5.0,13543.0,-4296.0,5199.0,-6288.0,-42.0,-91.0,-31.0,-1.0,5.0,-3.0,12329.0,-9622.0,3147.0,-3735.0,-50.0,-23.0,-13.0,1.0
2022-05-13 12:36:54.947756-07:00,1189.4,783.6,1297.2,1093.8,1308.8,826.9,1765.6,1462.6,3472.2,3472.2,1136.6,914.4,1607.7,3463.7,1502.3,1475.5,3475.9,3472.2,400.4,640.0,908.4,1114.7,617.3,2464.2,3475.9,3471.0,675.0,885.6,2019.4,1245.3,1160.3,964.5,-13.0,-18.0,-3.0,13547.0,-4316.0,5178.0,-6283.0,50.0,-30.0,0.0,-4.0,-9.0,2.0,12321.0,-9639.0,3142.0,-3721.0,-1.0,-38.0,24.0,1.0
2022-05-13 12:36:55.034873-07:00,1189.4,783.6,1318.7,1116.5,1308.8,826.9,1766.6,1457.1,3472.2,3472.2,1137.5,918.6,1607.7,3463.7,1504.1,1476.4,3472.2,3466.1,400.4,640.0,908.4,1109.5,617.3,2464.2,3468.6,3469.8,675.0,885.6,2020.4,1236.4,1160.3,964.5,-13.0,-8.0,-15.0,13553.0,-4314.0,5164.0,-6282.0,10.0,-58.0,-18.0,-14.0,-7.0,-3.0,12326.0,-9641.0,3141.0,-3702.0,-4.0,-25.0,40.0,1.0
2022-05-13 12:36:55.126042-07:00,1173.5,776.1,1318.7,1116.5,1308.8,828.5,1766.6,1457.1,3464.9,3478.3,1137.5,918.6,1606.8,3472.2,1504.1,1476.4,3472.2,3466.1,399.6,640.8,908.4,1109.5,615.7,2454.7,3468.6,3469.8,685.6,876.4,2020.4,1236.4,1156.8,958.5,-7.0,-11.0,-10.0,13556.0,-4323.0,5144.0,-6287.0,52.0,-33.0,-55.0,-15.0,-6.0,0.0,12330.0,-9643.0,3141.0,-3682.0,19.0,-39.0,26.0,1.0
2022-05-13 12:36:55.127938-07:00,1173.5,776.1,1313.3,1114.7,1308.8,821.0,1775.2,1451.6,3464.9,3478.3,1125.2,911.8,1606.8,3469.8,1506.0,1470.9,3467.4,3472.2,401.2,640.8,906.7,1114.7,615.7,2454.7,3468.6,3472.2,689.7,876.4,2023.4,1239.9,1156.8,958.5,-18.0,-2.0,-12.0,13555.0,-4318.0,5124.0,-6308.0,38.0,-68.0,-50.0,-12.0,1.0,16.0,12337.0,-9640.0,3137.0,-3668.0,-6.0,-16.0,14.0,1.0
2022-05-13 12:36:55.129014-07:00,1177.9,782.7,1298.1,1114.7,1294.5,821.0,1775.2,1451.6,3474.6,3467.4,1131.4,911.8,1607.7,3469.8,1506.0,1470.9,3467.4,3472.2,401.2,642.4,906.7,1117.4,610.8,2454.7,3468.6,3472.2,689.7,884.8,2023.4,1225.7,1155.0,956.0,-8.0,-3.0,-11.0,13560.0,-4324.0,5095.0,-6317.0,14.0,-71.0,-26.0,-5.0,2.0,7.0,12343.0,-9637.0,3131.0,-3662.0,-14.0,-25.0,-9.0,1.0
2022-05-13 12:36:55.171592-07:00,1177.9,782.7,1298.1,1104.3,1294.5,825.2,1777.2,1470.9,3474.6,3467.4,1131.4,917.7,1607.7,3467.4,1506.0,1470.0,3478.3,3474.6,402.8,642.4,907.6,1117.4,610.8,2454.7,3479.5,3475.9,685.6,884.8,2024.4,1225.7,1155.0,956.0,-8.0,-13.0,1.0,13566.0,-4332.0,5070.0,-6320.0,25.0,-41.0,-20.0,0.0,-3.0,14.0,12342.0,-9643.0,3123.0,-3655.0,-20.0,-26.0,-5.0,1.0
2022-05-13 12:36:55.217159-07:00,1173.5,785.2,1288.2,1104.3,1287.3,825.2,1777.2,1470.9,3478.3,3464.9,1134.9,917.7,1604.0,3467.4,1506.0,1470.0,3478.3,3474.6,402.8,639.2,907.6,1107.8,613.3,2448.3,3479.5,3475.9,685.6,885.6,2024.4,1220.4,1138.4,956.8,0.0,-1.0,-9.0,13569.0,-4339.0,5050.0,-6323.0,-40.0,-26.0,-17.0,2.0,7.0,4.0,12341.0,-9648.0,3119.0,-3650.0,-35.0,-12.0,-3.0,1.0
2022-05-13 12:36:55.397286-07:00,1173.5,785.2,1288.2,1097.3,1287.3,825.2,1760.8,1474.6,3478.3,3464.9,1134.9,916.9,1604.0,3467.4,1503.2,1479.2,3477.1,3478.3,401.2,639.2,909.3,1107.8,613.3,2448.3,3473.4,3478.3,684.0,885.6,2009.4,1220.4,1138.4,956.8,-6.0,-7.0,-2.0,13564.0,-4350.0,5048.0,-6328.0,20.0,15.0,-40.0,0.0,-6.0,4.0,12337.0,-9655.0,3116.0,-3646.0,-6.0,-12.0,-9.0,1.0
2022-05-13 12:36:55.442442-07:00,1184.1,764.5,1283.7,1093.8,1271.2,825.2,1760.8,1474.6,3471.0,3467.4,1130.5,914.4,1608.7,3467.4,1503.2,1479.2,3477.1,3478.3,401.2,635.9,905.0,1115.6,614.1,2455.7,3473.4,3478.3,684.0,883.1,2015.4,1218.6,1129.6,951.7,0.0,-20.0,9.0,13556.0,-4359.0,5047.0,-6340.0,-20.0,-3.0,-5.0,8.0,-16.0,11.0,12327.0,-9668.0,3120.0,-3644.0,-11.0,16.0,-7.0,1.0
2022-05-13 12:36:55.443596-07:00,1184.1,764.5,1283.7,1093.8,1264.0,826.0,1764.6,1460.8,3471.0,3467.4,1130.5,914.4,1604.0,3469.8,1499.5,1470.0,3483.2,3473.4,398.9,638.4,905.0,1115.6,614.1,2455.7,3472.2,3478.3,681.5,874.7,2015.4,1218.6,1129.6,951.7,27.0,27.0,43.0,13558.0,-4359.0,5049.0,-6335.0,-141.0,13.0,22.0,40.0,2.0,22.0,12319.0,-9668.0,3140.0,-3652.0,-93.0,84.0,38.0,1.0
2022-05-13 12:36:55.444699-07:00,1183.2,777.8,1263.1,1095.6,1264.0,826.0,1764.6,1460.8,3457.6,3466.1,1131.4,915.2,1604.0,3469.8,1499.5,1470.0,3483.2,3473.4,398.9,638.4,902.5,1113.9,610.0,2444.1,3472.2,3478.3,681.5,874.7,2016.4,1218.6,1134.0,949.2,79.0,48.0,85.0,13502.0,-4482.0,5135.0,-6300.0,-707.0,185.0,-66.0,100.0,27.0,47.0,12214.0,-9779.0,3255.0,-3612.0,-594.0,173.0,167.0,1.0
2022-05-13 12:36:55.486373-07:00,1183.2,777.8,1263.1,1095.6,1280.1,832.7,1772.3,1457.1,3457.6,3466.1,1131.4,915.2,1608.7,3467.4,1502.3,1478.3,3466.1,3477.1,401.2,636.7,902.5,1113.9,610.0,2444.1,3472.2,3472.2,682.3,879.7,2016.4,1218.6,1134.0,949.2,55.0,144.0,28.0,13312.0,-4831.0,5412.0,-6212.0,-1740.0,462.0,-140.0,66.0,67.0,42.0,11956.0,-10052.0,3473.0,-3521.0,-1232.0,275.0,211.0,1.0
2022-05-13 12:36:55.529795-07:00,1177.9,772.8,1246.2,1086.8,1280.1,832.7,1772.3,1457.1,3474.6,3464.9,1115.6,914.4,1608.7,3467.4,1502.3,1478.3,3466.1,3477.1,401.2,636.7,908.4,1113.0,612.5,2447.3,3472.2,3472.2,682.3,879.7,2014.4,1245.3,1137.5,950.9,57.0,103.0,-22.0,12914.0,-5469.0,5920.0,-6057.0,-2434.0,853.0,-174.0,6.0,71.0,-9.0,11530.0,-10475.0,3761.0,-3409.0,-1625.0,351.0,134.0,1.0
2022-05-13 12:36:55.574475-07:00,1182.3,772.8,1246.2,1086.8,1270.3,826.0,1782.9,1469.0,3471.0,3464.9,1115.6,914.4,1605.8,3462.5,1510.6,1473.6,3478.3,3473.4,401.2,644.0,908.4,1113.0,612.5,2472.7,3469.8,3468.6,672.5,873.0,2014.4,1245.3,1137.5,951.7,-26.0,41.0,-60.0,12317.0,-6218.0,6613.0,-5861.0,-2576.0,918.0,-409.0,-21.0,13.0,1.0,10991.0,-10966.0,4062.0,-3301.0,-1870.0,376.0,94.0,1.0
2022-05-13 12:36:55.620769-07:00,1182.3,774.5,1223.9,1088.6,1270.3,826.0,1782.9,1462.6,3471.0,3464.9,1120.9,912.7,1605.8,3462.5,1510.6,1474.6,3477.1,3473.4,401.2,644.0,904.2,1120.9,614.9,2472.7,3473.4,3468.6,672.5,873.0,2015.4,1209.7,1126.1,951.7,14.0,-2.0,-72.0,11690.0,-6937.0,7147.0,-5707.0,-2137.0,689.0,-467.0,-24.0,29.0,-26.0,10460.0,-11401.0,4334.0,-3202.0,-1573.0,368.0,72.0,1.0
2022-05-13 12:36:55.665771-07:00,1186.7,774.5,1223.9,1088.6,1256.0,811.9,1786.8,1462.6,3468.6,3464.9,1120.9,912.7,1606.8,3467.4,1512.5,1474.6,3477.1,3467.4,405.9,635.1,904.2,1120.9,614.9,2475.9,3473.4,3471.0,670.1,867.1,2015.4,1209.7,1126.1,939.0,-1.0,32.0,-54.0,11132.0,-7482.0,7561.0,-5600.0,-1639.0,729.0,-344.0,-42.0,40.0,-23.0,9983.0,-11756.0,4554.0,-3136.0,-1365.0,351.0,2.0,1.0
2022-05-13 12:36:55.755447-07:00,1186.7,776.9,1208.0,1092.9,1256.0,811.9,1786.8,1440.5,3468.6,3478.3,1111.2,912.7,1606.8,3467.4,1512.5,1470.9,3469.8,3467.4,405.9,635.1,909.3,1116.5,615.7,2475.9,3467.4,3471.0,670.1,867.1,2015.4,1200.9,1114.7,939.0,-5.0,56.0,-15.0,10609.0,-7888.0,7955.0,-5512.0,-1554.0,804.0,-253.0,-112.0,-8.0,-85.0,9540.0,-12038.0,4767.0,-3130.0,-1270.0,404.0,27.0,1.0
2022-05-13 12:36:55.801620-07:00,1182.3,776.9,1208.0,1092.9,1254.2,815.2,1787.8,1440.5,3471.0,3478.3,1111.2,912.7,1608.7,3480.7,1506.0,1470.9,3469.8,3478.3,409.0,633.5,909.3,1116.5,615.7,2479.1,3467.4,3480.7,670.1,859.5,2015.4,1200.9,1114.7,945.8,-29.0,56.0,-5.0,10074.0,-8256.0,8304.0,-5462.0,-1315.0,828.0,-595.0,-12.0,-11.0,4.0,9043.0,-12352.0,4951.0,-3096.0,-1372.0,365.0,-208.0,1.0
2022-05-13 12:36:55.845419-07:00,1182.3,771.1,1202.7,1073.8,1254.2,815.2,1782.9,1436.9,3471.0,3455.2,1115.6,910.1,1608.7,3480.7,1506.0,1471.8,3475.9,3478.3,409.0,633.5,911.0,1126.1,610.8,2479.1,3473.4,3480.7,670.1,859.5,2019.4,1194.7,1107.8,945.8,-135.0,63.0,-48.0,9551.0,-8575.0,8504.0,-5601.0,-823.0,618.0,-880.0,-110.0,1.0,63.0,8584.0,-12639.0,5014.0,-3139.0,-1045.0,404.0,-331.0,1.0
2022-05-13 12:36:55.890532-07:00,1174.4,774.5,1202.7,1073.8,1226.6,811.0,1782.9,1436.9,3471.0,3469.8,1115.6,910.1,1603.0,3471.0,1499.5,1471.8,3475.9,3468.6,417.6,634.3,911.0,1126.1,611.7,2466.4,3473.4,3474.6,666.8,862.1,2019.4,1194.7,1097.3,950.0,30.0,-35.0,2.0,9139.0,-8834.0,8559.0,-5799.0,-201.0,729.0,-860.0,-23.0,-69.0,-31.0,8168.0,-12846.0,5096.0,-3275.0,-611.0,564.0,-376.0,1.0
2022-05-13 12:36:56.026851-07:00,1174.4,774.5,1203.5,1074.7,1226.6,811.0,1775.2,1432.3,3471.0,3469.8,1111.2,907.6,1603.0,3471.0,1500.4,1472.7,3464.9,3480.7,417.6,634.3,912.7,1114.7,611.7,2466.4,3462.5,3464.9,666.8,862.1,2016.4,1197.4,1097.3,950.0,-24.0,-172.0,-200.0,8850.0,-8892.0,8509.0,-6215.0,40.0,607.0,-718.0,-7.0,-12.0,-125.0,8023.0,-12897.0,5093.0,-3436.0,-313.0,217.0,-187.0,1.0
2022-05-13 12:36:56.028964-07:00,1170.9,775.3,1203.5,1074.7,1223.9,816.9,1775.2,1432.3,3469.8,3471.0,1111.2,907.6,1607.7,3471.0,1500.4,1472.7,3464.9,3480.7,415.3,634.3,912.7,1114.7,610.0,2466.4,3462.5,3464.9,661.1,859.5,2016.4,1197.4,1090.3,950.0,34.0,-180.0,-120.0,8631.0,-9006.0,8550.0,-6303.0,-354.0,-74.0,-5.0,51.0,-71.0,-76.0,7838.0,-12997.0,5145.0,-3405.0,-240.0,-17.0,25.0,1.0
2022-05-13 12:36:56.030088-07:00,1170.9,775.3,1192.0,1077.3,1223.9,816.9,1763.7,1435.0,3469.8,3471.0,1113.0,905.9,1607.7,3471.0,1500.4,1471.8,3463.7,3471.0,415.3,634.3,923.7,1116.5,610.0,2466.4,3478.3,3478.3,661.1,859.5,2016.4,1185.0,1090.3,950.0,25.0,-6.0,-93.0,8722.0,-8999.0,8520.0,-6227.0,436.0,-406.0,293.0,11.0,11.0,-50.0,7956.0,-12945.0,5098.0,-3401.0,527.0,-171.0,-7.0,1.0
2022-05-13 12:36:56.119233-07:00,1177.9,771.1,1192.0,1077.3,1216.8,813.5,1763.7,1435.0,3468.6,3467.4,1113.0,905.9,1608.7,3473.4,1500.4,1471.8,3463.7,3471.0,413.7,631.9,923.7,1116.5,608.4,2455.7,3478.3,3478.3,656.2,854.5,2016.4,1185.0,1095.6,947.5,-21.0,44.0,-24.0,8965.0,-8918.0,8417.0,-6138.0,364.0,-535.0,242.0,-22.0,9.0,11.0,8144.0,-12868.0,4995.0,-3402.0,455.0,-215.0,-64.0,1.0
2022-05-13 12:36:56.161262-07:00,1177.9,771.1,1194.7,1077.3,1216.8,817.7,1765.6,1435.0,3468.6,3467.4,1108.6,906.7,1608.7,3467.4,1500.4,1470.0,3474.6,3480.7,409.8,631.9,911.0,1118.2,608.4,2455.7,3474.6,3477.1,659.5,854.5,2017.4,1191.2,1095.6,947.5,-17.0,42.0,31.0,9212.0,-8864.0,8272.0,-6046.0,463.0,-532.0,145.0,-22.0,2.0,31.0,8326.0,-12787.0,4882.0,-3432.0,525.0,-131.0,-108.0,1.0
2022-05-13 12:36:56.162472-07:00,1170.9,779.4,1188.5,1077.3,1208.0,817.7,1765.6,1435.0,3466.1,3468.6,1110.4,906.7,1603.0,3467.4,1500.4,1470.0,3474.6,3480.7,409.8,625.4,911.0,1116.5,612.5,2453.6,3474.6,3477.1,659.5,856.2,2017.4,1186.7,1093.8,939.8,-13.0,41.0,41.0,9420.0,-8807.0,8122.0,-6014.0,273.0,-286.0,12.0,-10.0,0.0,20.0,8453.0,-12724.0,4797.0,-3472.0,234.0,-57.0,-89.0,1.0
2022-05-13 12:36:56.295158-07:00,1170.9,779.4,1188.5,1066.0,1208.0,821.0,1771.4,1433.2,3466.1,3468.6,1110.4,909.3,1603.0,3466.1,1494.0,1471.8,3472.2,3461.3,409.8,625.4,911.0,1116.5,612.5,2453.6,3477.1,3466.1,654.6,856.2,2012.4,1186.7,1093.8,939.8,0.0,7.0,22.0,9494.0,-8810.0,8038.0,-6008.0,-9.0,-87.0,-107.0,0.0,-7.0,17.0,8467.0,-12725.0,4763.0,-3482.0,-29.0,-18.0,-58.0,1.0
2022-05-13 12:36:56.296771-07:00,1173.5,763.7,1181.5,1066.0,1217.7,821.0,1771.4,1433.2,3457.6,3467.4,1106.0,909.3,1613.4,3466.1,1494.0,1471.8,3472.2,3461.3,409.8,635.1,911.0,1118.2,607.6,2463.2,3477.1,3466.1,654.6,853.7,2012.4,1186.7,1099.9,947.5,0.0,-18.0,-4.0,9500.0,-8832.0,7995.0,-6021.0,113.0,-68.0,-52.0,10.0,-9.0,0.0,8477.0,-12721.0,4744.0,-3500.0,103.0,12.0,-34.0,1.0
2022-05-13 12:36:56.341353-07:00,1173.5,763.7,1181.5,1066.9,1217.7,811.0,1756.0,1428.6,3457.6,3467.4,1106.0,903.4,1613.4,3466.1,1497.7,1467.2,3474.6,3468.6,412.1,635.1,907.6,1118.2,607.6,2463.2,3466.1,3472.2,660.3,853.7,2014.4,1186.7,1099.9,947.5,2.0,-10.0,-27.0,9540.0,-8817.0,7950.0,-6041.0,117.0,-59.0,3.0,4.0,-3.0,-17.0,8505.0,-12703.0,4727.0,-3519.0,71.0,-1.0,-16.0,1.0
2022-05-13 12:36:56.385541-07:00,1178.8,765.3,1185.9,1072.9,1212.4,811.0,1756.0,1428.6,3469.8,3471.0,1106.9,909.3,1604.0,3466.1,1497.7,1467.2,3474.6,3468.6,412.1,626.2,906.7,1120.0,606.0,2452.6,3466.1,3472.2,660.3,859.5,2012.4,1186.7,1089.5,946.6,-8.0,-22.0,-12.0,9564.0,-8809.0,7934.0,-6035.0,33.0,-37.0,72.0,-1.0,-10.0,-4.0,8523.0,-12692.0,4721.0,-3522.0,68.0,-16.0,21.0,1.0
2022-05-13 12:36:56.430469-07:00,1178.8,765.3,1185.9,1072.9,1210.6,819.4,1757.0,1420.4,3469.8,3471.0,1106.9,909.3,1606.8,3466.1,1492.1,1463.5,3481.9,3468.6,406.7,631.1,906.7,1120.0,606.0,2452.6,3478.3,3467.4,654.6,847.8,2012.4,1186.7,1089.5,946.6,-8.0,23.0,-4.0,9597.0,-8781.0,7937.0,-6020.0,63.0,-20.0,65.0,-7.0,6.0,4.0,8556.0,-12670.0,4720.0,-3525.0,68.0,1.0,18.0,1.0
2022-05-13 12:36:56.475999-07:00,1173.5,776.9,1189.4,1069.5,1210.6,819.4,1757.0,1420.4,3473.4,3469.8,1097.3,911.0,1606.8,3466.1,1492.1,1463.5,3481.9,3468.6,406.7,631.1,908.4,1116.5,614.1,2456.8,3478.3,3467.4,654.6,847.8,2011.4,1185.0,1091.2,944.9,-6.0,14.0,-17.0,9613.0,-8764.0,7940.0,-6015.0,14.0,9.0,-3.0,-6.0,-1.0,-3.0,8568.0,-12661.0,4719.0,-3528.0,4.0,7.0,-3.0,1.0
2022-05-13 12:36:56.520361-07:00,1173.5,776.9,1189.4,1069.5,1200.9,809.4,1754.1,1426.8,3473.4,3469.8,1097.3,911.0,1603.0,3462.5,1492.1,1466.3,3485.6,3467.4,404.3,631.1,908.4,1116.5,614.1,2456.8,3477.1,3478.3,658.7,853.7,2011.4,1185.0,1091.2,944.9,-11.0,5.0,-28.0,9612.0,-8760.0,7939.0,-6023.0,41.0,-15.0,-19.0,-3.0,0.0,0.0,8569.0,-12661.0,4718.0,-3528.0,33.0,6.0,-11.0,1.0
2022-05-13 12:36:56.565773-07:00,1161.2,770.3,1185.9,1066.0,1200.9,809.4,1754.1,1426.8,3468.6,3467.4,1104.3,906.7,1603.0,3462.5,1492.1,1466.3,3485.6,3467.4,404.3,631.1,912.7,1117.4,610.0,2460.0,3477.1,3478.3,658.7,853.7,2010.4,1191.2,1091.2,949.2,0.0,4.0,-24.0,9618.0,-8769.0,7925.0,-6019.0,2.0,-50.0,-28.0,-3.0,1.0,-9.0,8576.0,-12658.0,4711.0,-3532.0,-2.0,-11.0,-14.0,1.0
2022-05-13 12:36:56.610713-07:00,1161.2,770.3,1185.9,1066.0,1198.2,807.7,1750.2,1431.4,3468.6,3467.4,1104.3,906.7,1604.9,3467.4,1490.3,1464.4,3471.0,3466.1,411.4,627.0,912.7,1117.4,610.0,2460.0,3473.4,3467.4,656.2,853.7,2010.4,1191.2,1091.2,949.2,-4.0,-5.0,-18.0,9623.0,-8782.0,7909.0,-6013.0,34.0,-64.0,-8.0,-2.0,-3.0,0.0,8580.0,-12661.0,4698.0,-3528.0,35.0,-25.0,-19.0,1.0
2022-05-13 12:36:56.701857-07:00,1179.7,774.5,1192.9,1059.1,1198.2,807.7,1750.2,1428.6,3469.8,3467.4,1107.8,906.7,1604.9,3467.4,1490.3,1468.1,3466.1,3466.1,411.4,627.0,905.0,1113.0,611.7,2454.7,3473.4,3467.4,656.2,853.7,2013.4,1178.8,1083.4,939.8,-4.0,7.0,-8.0,9645.0,-8784.0,7888.0,-6003.0,23.0,-55.0,10.0,-1.0,1.0,-2.0,8597.0,-12656.0,4683.0,-3526.0,42.0,-29.0,-11.0,1.0
2022-05-13 12:36:56.746930-07:00,1166.5,774.5,1192.9,1059.1,1195.6,812.7,1751.2,1428.6,3461.3,3467.4,1107.8,906.7,1604.0,3469.8,1496.7,1468.1,3466.1,3472.2,411.4,629.5,905.0,1113.0,611.7,2465.3,3473.4,3478.3,655.4,847.8,2013.4,1178.8,1083.4,944.1,-7.0,-4.0,2.0,9650.0,-8793.0,7881.0,-5991.0,-27.0,-9.0,5.0,-1.0,-7.0,7.0,8597.0,-12661.0,4677.0,-3515.0,-28.0,-24.0,1.0,1.0
2022-05-13 12:36:56.790415-07:00,1166.5,769.5,1179.7,1055.6,1195.6,812.7,1751.2,1418.6,3461.3,3468.6,1101.7,905.0,1604.0,3469.8,1496.7,1466.3,3473.4,3472.2,411.4,629.5,908.4,1116.5,608.4,2465.3,3466.1,3478.3,655.4,847.8,1998.5,1177.9,1089.5,944.1,-12.0,3.0,-3.0,9657.0,-8788.0,7881.0,-5987.0,37.0,-16.0,18.0,-1.0,-2.0,7.0,8605.0,-12657.0,4673.0,-3513.0,39.0,-4.0,11.0,1.0
2022-05-13 12:36:56.835400-07:00,1171.8,769.5,1179.7,1055.6,1194.7,811.9,1767.5,1418.6,3462.5,3468.6,1101.7,905.0,1595.5,3473.4,1491.2,1466.3,3473.4,3471.0,403.5,619.7,908.4,1116.5,608.4,2456.8,3466.1,3473.4,657.0,849.5,1998.5,1177.9,1089.5,940.7,-5.0,7.0,-3.0,9665.0,-8780.0,7881.0,-5986.0,6.0,21.0,6.0,-4.0,-1.0,0.0,8612.0,-12652.0,4676.0,-3511.0,-10.0,7.0,14.0,1.0
2022-05-13 12:36:57.061894-07:00,1171.8,772.0,1184.1,1064.3,1194.7,811.9,1767.5,1427.7,3462.5,3468.6,1108.6,912.7,1595.5,3473.4,1491.2,1457.1,3473.4,3471.0,403.5,619.7,909.3,1120.0,606.0,2456.8,3471.0,3473.4,657.0,849.5,2002.5,1189.4,1086.0,940.7,0.0,10.0,-15.0,9665.0,-8775.0,7883.0,-5991.0,21.0,7.0,-1.0,-4.0,7.0,-3.0,8614.0,-12648.0,4682.0,-3512.0,17.0,13.0,9.0,1.0
2022-05-13 12:36:57.063620-07:00,1171.8,776.1,1184.1,1064.3,1186.7,805.2,1740.6,1427.7,3462.5,3471.0,1108.6,912.7,1597.4,3471.0,1490.3,1457.1,3473.4,3473.4,404.3,620.5,909.3,1120.0,604.4,2449.4,3471.0,3466.1,649.7,867.1,2002.5,1189.4,1082.5,943.2,-14.0,0.0,-15.0,9669.0,-8766.0,7883.0,-5997.0,37.0,-9.0,6.0,-2.0,-1.0,1.0,8617.0,-12644.0,4684.0,-3517.0,26.0,4.0,0.0,1.0
2022-05-13 12:36:57.064722-07:00,1171.8,776.1,1174.4,1064.3,1186.7,805.2,1743.5,1403.0,3462.5,3471.0,1106.9,908.4,1597.4,3471.0,1485.6,1458.9,3472.2,3473.4,404.3,620.5,913.5,1119.1,604.4,2449.4,3471.0,3468.6,649.7,867.1,2008.4,1180.6,1082.5,943.2,1.0,5.0,-22.0,9678.0,-8760.0,7881.0,-5994.0,31.0,-18.0,23.0,-4.0,4.0,-9.0,8624.0,-12640.0,4682.0,-3519.0,25.0,-6.0,5.0,1.0
2022-05-13 12:36:57.065819-07:00,1169.1,775.3,1174.4,1064.3,1192.9,806.9,1743.5,1403.0,3469.8,3472.2,1106.9,908.4,1604.9,3468.6,1485.6,1458.9,3472.2,3473.4,407.5,629.5,913.5,1119.1,607.6,2455.7,3471.0,3468.6,652.2,847.0,2008.4,1180.6,1082.5,940.7,-5.0,9.0,-13.0,9687.0,-8754.0,7878.0,-5992.0,24.0,-25.0,0.0,-6.0,3.0,-6.0,8633.0,-12634.0,4678.0,-3521.0,25.0,-15.0,-2.0,1.0
2022-05-13 12:36:57.108624-07:00,1169.1,775.3,1175.3,1066.9,1192.9,806.9,1744.5,1415.8,3469.8,3472.2,1110.4,909.3,1604.9,3468.6,1488.4,1467.2,3472.2,3475.9,407.5,629.5,911.0,1115.6,607.6,2455.7,3472.2,3480.7,652.2,847.0,2014.4,1170.9,1082.5,940.7,-10.0,0.0,-13.0,9691.0,-8756.0,7874.0,-5987.0,3.0,-18.0,-5.0,-1.0,-6.0,2.0,8636.0,-12635.0,4675.0,-3516.0,-3.0,-18.0,-4.0,1.0
2022-05-13 12:36:57.150404-07:00,1167.4,780.3,1175.3,1066.9,1186.7,806.9,1744.5,1415.8,3479.5,3468.6,1110.4,909.3,1604.9,3475.9,1488.4,1467.2,3472.2,3475.9,407.5,623.8,911.0,1115.6,608.4,2445.1,3472.2,3480.7,658.7,848.6,2014.4,1170.9,1079.9,948.3,0.0,0.0,-6.0,9701.0,-8755.0,7868.0,-5982.0,37.0,-22.0,19.0,-3.0,-2.0,0.0,8644.0,-12631.0,4671.0,-3515.0,41.0,-10.0,-3.0,1.0
2022-05-13 12:36:57.241780-07:00,1167.4,780.3,1176.2,1061.7,1186.7,815.2,1745.4,1420.4,3479.5,3468.6,1108.6,905.9,1604.9,3468.6,1492.1,1458.9,3472.2,3474.6,398.1,623.8,906.7,1116.5,608.4,2445.1,3474.6,3478.3,653.0,848.6,2007.4,1180.6,1079.9,948.3,0.0,-96.0,-4.0,9738.0,-8715.0,7864.0,-5984.0,346.0,-39.0,202.0,4.0,-34.0,0.0,8677.0,-12608.0,4663.0,-3527.0,218.0,16.0,14.0,1.0
2022-05-13 12:36:57.243672-07:00,1168.2,764.5,1181.5,1061.7,1184.1,815.2,1745.4,1420.4,3466.1,3466.1,1108.6,905.9,1596.4,3468.6,1492.1,1458.9,3472.2,3474.6,398.1,626.2,906.7,1117.4,600.4,2451.5,3474.6,3478.3,653.0,852.0,2007.4,1176.2,1078.2,944.1,-7.0,-190.0,-59.0,9997.0,-8428.0,7835.0,-6007.0,1517.0,-159.0,971.0,12.0,-56.0,-17.0,8926.0,-12427.0,4618.0,-3606.0,1198.0,27.0,95.0,1.0
2022-05-13 12:36:57.376762-07:00,1168.2,764.5,1181.5,1057.3,1184.1,813.5,1742.6,1413.1,3466.1,3466.1,1108.6,911.8,1596.4,3466.1,1495.8,1461.7,3473.4,3472.2,408.2,626.2,905.0,1117.4,600.4,2451.5,3471.0,3488.0,651.4,852.0,2006.4,1176.2,1078.2,944.1,-136.0,-171.0,-178.0,10670.0,-7688.0,7699.0,-6018.0,2400.0,-565.0,1331.0,-115.0,-165.0,-67.0,9535.0,-11956.0,4485.0,-3801.0,2299.0,-7.0,193.0,1.0
2022-05-13 12:36:57.380401-07:00,1172.6,764.5,1265.8,1057.3,1185.0,813.5,1742.6,1413.1,3467.4,3478.3,1108.6,911.8,1612.4,3466.1,1495.8,1461.7,3473.4,3472.2,408.2,628.6,905.0,1116.5,607.6,2442.0,3471.0,3488.0,651.4,851.1,2006.4,1180.6,1087.7,949.2,-105.0,-140.0,-179.0,11454.0,-6876.0,7353.0,-5992.0,2171.0,-936.0,1096.0,-118.0,-163.0,-93.0,10283.0,-11330.0,4340.0,-3934.0,2132.0,-204.0,473.0,1.0
2022-05-13 12:36:57.381571-07:00,1172.6,764.5,1265.8,1101.7,1185.0,819.4,1743.5,1418.6,3467.4,3478.3,1108.6,910.1,1612.4,3469.8,1486.6,1466.3,3479.5,3467.4,422.3,628.6,908.4,1116.5,607.6,2442.0,3477.1,3472.2,670.1,851.1,2015.4,1180.6,1087.7,949.2,-17.0,51.0,-111.0,12181.0,-6168.0,6862.0,-5910.0,2196.0,-1187.0,789.0,-71.0,-98.0,-14.0,10984.0,-10738.0,4141.0,-3918.0,1837.0,-520.0,467.0,1.0
2022-05-13 12:36:57.420339-07:00,1163.8,773.6,1299.8,1107.8,1186.7,819.4,1743.5,1418.6,3473.4,3468.6,1113.0,904.2,1596.4,3469.8,1486.6,1466.3,3479.5,3467.4,422.3,628.6,905.0,1117.4,613.3,2440.9,3477.1,3472.2,670.1,852.8,2005.5,1179.7,1084.2,944.9,6.0,238.0,-74.0,12825.0,-5582.0,6154.0,-5910.0,2035.0,-1518.0,210.0,-85.0,80.0,38.0,11509.0,-10289.0,3963.0,-3797.0,1340.0,-446.0,406.0,1.0
2022-05-13 12:36:57.554862-07:00,1163.8,773.6,1299.8,1107.8,1170.9,820.2,1745.4,1419.5,3473.4,3468.6,1113.0,904.2,1603.0,3478.3,1501.4,1464.4,3467.4,3477.1,416.1,634.3,905.0,1117.4,613.3,2440.9,3492.9,3471.0,658.7,852.0,2005.5,1179.7,1084.2,944.9,103.0,187.0,-26.0,13248.0,-5237.0,5465.0,-5970.0,1408.0,-999.0,-84.0,41.0,151.0,4.0,11852.0,-9969.0,3831.0,-3730.0,913.0,-311.0,130.0,1.0
2022-05-13 12:36:57.556939-07:00,1167.4,776.1,1246.2,1091.2,1170.9,820.2,1745.4,1419.5,3464.9,3469.8,1105.1,897.4,1603.0,3478.3,1501.4,1464.4,3467.4,3477.1,416.1,634.3,907.6,1110.4,611.7,2451.5,3492.9,3471.0,658.7,852.0,2004.5,1178.8,1079.0,944.1,64.0,119.0,-67.0,13483.0,-4994.0,4966.0,-6087.0,959.0,-866.0,-271.0,82.0,101.0,12.0,12047.0,-9792.0,3681.0,-3724.0,538.0,-245.0,-65.0,1.0
2022-05-13 12:36:57.558054-07:00,1167.4,776.1,1246.2,1091.2,1182.3,811.9,1747.3,1416.7,3464.9,3469.8,1105.1,897.4,1601.1,3469.8,1489.3,1462.6,3475.9,3484.4,404.3,635.9,907.6,1110.4,611.7,2451.5,3481.9,3481.9,679.9,851.1,2004.5,1178.8,1079.0,944.1,86.0,28.0,-15.0,13634.0,-4876.0,4535.0,-6180.0,769.0,-627.0,-248.0,65.0,78.0,-14.0,12184.0,-9669.0,3512.0,-3764.0,506.0,-237.0,-134.0,1.0
2022-05-13 12:36:57.646184-07:00,1170.0,770.3,1241.7,1094.7,1182.3,811.9,1747.3,1416.7,3474.6,3478.3,1107.8,904.2,1601.1,3469.8,1489.3,1462.6,3475.9,3484.4,404.3,635.9,905.0,1113.9,607.6,2435.6,3481.9,3481.9,679.9,851.1,2005.5,1177.0,1076.4,942.4,91.0,51.0,33.0,13728.0,-4735.0,4269.0,-6272.0,365.0,-163.0,-89.0,67.0,110.0,-9.0,12282.0,-9587.0,3360.0,-3795.0,194.0,-193.0,-124.0,1.0
2022-05-13 12:36:57.734820-07:00,1170.0,770.3,1241.7,1094.7,1178.8,815.2,1759.8,1414.9,3474.6,3478.3,1107.8,904.2,1600.2,3468.6,1485.6,1467.2,3480.7,3479.5,399.6,637.6,905.0,1113.9,607.6,2435.6,3480.7,3467.4,694.6,845.3,2005.5,1177.0,1076.4,942.4,32.0,-5.0,20.0,13725.0,-4664.0,4327.0,-6293.0,106.0,320.0,91.0,59.0,12.0,34.0,12286.0,-9606.0,3299.0,-3788.0,52.0,-94.0,-69.0,1.0
2022-05-13 12:36:57.781934-07:00,1171.8,776.9,1259.6,1101.7,1178.8,815.2,1759.8,1418.6,3467.4,3464.9,1103.4,897.4,1600.2,3468.6,1485.6,1464.4,3467.4,3479.5,399.6,637.6,910.1,1113.9,611.7,2438.8,3478.3,3467.4,694.6,845.3,2011.4,1173.5,1077.3,939.8,-3.0,25.0,2.0,13706.0,-4579.0,4489.0,-6282.0,-121.0,459.0,184.0,-1.0,12.0,17.0,12289.0,-9614.0,3267.0,-3783.0,-112.0,-51.0,-27.0,1.0
2022-05-13 12:36:57.783334-07:00,1169.1,776.9,1259.6,1101.7,1162.1,808.5,1764.6,1418.6,3469.8,3464.9,1103.4,897.4,1596.4,3463.7,1493.0,1464.4,3467.4,3483.2,403.5,638.4,910.1,1113.9,611.7,2436.7,3478.3,3483.2,687.2,852.0,2011.4,1173.5,1077.3,939.8,-35.0,-5.0,-17.0,13646.0,-4579.0,4660.0,-6288.0,-191.0,247.0,-61.0,-24.0,-28.0,29.0,12251.0,-9662.0,3270.0,-3781.0,-166.0,13.0,-55.0,1.0
2022-05-13 12:36:57.825346-07:00,1169.1,768.7,1281.9,1108.6,1162.1,808.5,1764.6,1431.4,3469.8,3480.7,1111.2,910.1,1596.4,3463.7,1493.0,1462.6,3472.2,3483.2,403.5,638.4,905.0,1121.7,613.3,2436.7,3478.3,3483.2,687.2,852.0,2012.4,1173.5,1086.8,939.8,-2.0,-63.0,7.0,13590.0,-4617.0,4752.0,-6313.0,-187.0,201.0,-8.0,-11.0,-46.0,6.0,12199.0,-9723.0,3282.0,-3783.0,-222.0,12.0,-13.0,1.0
2022-05-13 12:36:57.870322-07:00,1173.5,768.7,1281.9,1108.6,1196.5,814.4,1757.9,1431.4,3477.1,3480.7,1111.2,910.1,1604.0,3466.1,1490.3,1462.6,3472.2,3475.9,408.2,640.0,905.0,1121.7,613.3,2433.5,3478.3,3478.3,692.9,821.0,2012.4,1173.5,1086.8,944.9,-19.0,-48.0,-9.0,13562.0,-4609.0,4858.0,-6297.0,-34.0,194.0,135.0,-12.0,-27.0,14.0,12169.0,-9762.0,3293.0,-3770.0,19.0,-32.0,14.0,1.0
2022-05-13 12:36:57.917569-07:00,1173.5,775.3,1272.1,1093.8,1196.5,814.4,1757.9,1416.7,3477.1,3466.1,1117.4,910.1,1604.0,3466.1,1490.3,1467.2,3481.9,3475.9,408.2,640.0,906.7,1115.6,610.8,2433.5,3480.7,3478.3,692.9,821.0,2005.5,1167.4,1084.2,944.9,-16.0,1.0,-28.0,13544.0,-4584.0,4975.0,-6263.0,-148.0,264.0,108.0,-20.0,1.0,0.0,12174.0,-9766.0,3289.0,-3748.0,-125.0,-62.0,34.0,1.0
2022-05-13 12:36:58.100270-07:00,1167.4,772.8,1272.1,1093.8,1177.9,813.5,1744.5,1416.7,3469.8,3473.4,1117.4,910.1,1600.2,3462.5,1488.4,1467.2,3481.9,3467.4,401.2,635.1,906.7,1115.6,611.7,2436.7,3480.7,3467.4,681.5,862.9,2005.5,1167.4,1074.7,938.1,-24.0,-29.0,-13.0,13508.0,-4577.0,5105.0,-6242.0,-8.0,240.0,75.0,-13.0,-26.0,16.0,12155.0,-9804.0,3290.0,-3710.0,1.0,-60.0,27.0,1.0
2022-05-13 12:36:58.102736-07:00,1167.4,772.8,1290.0,1105.1,1177.9,813.5,1749.3,1418.6,3469.8,3473.4,1119.1,909.3,1600.2,3462.5,1486.6,1460.8,3474.6,3469.8,401.2,635.1,909.3,1117.4,611.7,2436.7,3478.3,3478.3,681.5,862.9,2014.4,1182.3,1074.7,938.1,-7.0,12.0,-2.0,13503.0,-4506.0,5168.0,-6252.0,151.0,128.0,49.0,3.0,4.0,22.0,12183.0,-9781.0,3270.0,-3695.0,95.0,-30.0,21.0,1.0
2022-05-13 12:36:58.103962-07:00,1178.8,772.8,1290.0,1105.1,1176.2,803.5,1749.3,1418.6,3466.1,3478.3,1119.1,909.3,1604.0,3462.5,1486.6,1460.8,3474.6,3469.8,411.4,627.8,909.3,1117.4,601.2,2432.4,3478.3,3478.3,674.2,842.8,2014.4,1182.3,1087.7,942.4,10.0,-24.0,-13.0,13491.0,-4467.0,5209.0,-6273.0,-8.0,179.0,-17.0,6.0,-5.0,3.0,12195.0,-9772.0,3264.0,-3684.0,-48.0,-21.0,27.0,1.0
2022-05-13 12:36:58.187237-07:00,1178.8,772.8,1290.0,1097.3,1176.2,803.5,1748.3,1434.1,3466.1,3478.3,1118.2,909.3,1604.0,3462.5,1492.1,1462.6,3478.3,3479.5,411.4,627.8,911.0,1117.4,601.2,2432.4,3472.2,3480.7,674.2,842.8,2010.4,1182.3,1087.7,942.4,-1.0,-12.0,-11.0,13473.0,-4425.0,5254.0,-6303.0,19.0,115.0,18.0,-8.0,4.0,1.0,12195.0,-9777.0,3261.0,-3674.0,-4.0,-16.0,5.0,1.0
2022-05-13 12:36:58.234225-07:00,1169.1,776.1,1290.0,1097.3,1205.3,812.7,1748.3,1434.1,3466.1,3466.1,1118.2,909.3,1602.1,3466.1,1492.1,1462.6,3478.3,3479.5,404.3,634.3,911.0,1117.4,610.8,2434.6,3472.2,3480.7,676.6,841.1,2010.4,1182.3,1092.1,1031.4,-5.0,-21.0,-6.0,13456.0,-4418.0,5311.0,-6297.0,-36.0,132.0,56.0,-15.0,6.0,2.0,12193.0,-9783.0,3257.0,-3668.0,-10.0,-25.0,-19.0,1.0
2022-05-13 12:36:58.235416-07:00,1169.1,776.1,1303.4,1103.4,1205.3,812.7,1743.5,1428.6,3466.1,3466.1,1122.6,912.7,1602.1,3468.6,1490.3,1460.8,3464.9,3478.3,405.1,634.3,903.4,1113.0,610.8,2434.6,3462.5,3475.9,672.5,841.1,2008.4,1184.1,1092.1,1031.4,-41.0,-34.0,-7.0,13446.0,-4391.0,5395.0,-6264.0,-31.0,144.0,168.0,-20.0,-64.0,25.0,12201.0,-9775.0,3250.0,-3668.0,171.0,10.0,6.0,1.0
2022-05-13 12:36:58.277379-07:00,1167.4,781.1,1289.1,1103.4,1268.5,812.7,1743.5,1428.6,3467.4,3466.1,1143.6,912.7,1600.2,3468.6,1490.3,1460.8,3464.9,3478.3,405.1,632.7,903.4,1111.2,605.2,2447.3,3462.5,3475.9,672.5,845.3,2008.4,1198.2,1106.9,1221.3,-19.0,-38.0,-1.0,13449.0,-4382.0,5419.0,-6244.0,-58.0,-31.0,-21.0,-19.0,-53.0,8.0,12237.0,-9729.0,3246.0,-3674.0,55.0,11.0,36.0,1.0
2022-05-13 12:36:58.322454-07:00,1167.4,781.1,1289.1,1109.5,1268.5,830.2,1741.6,1418.6,3467.4,3466.1,1143.6,922.8,1600.2,3469.8,1484.7,1465.4,3488.0,3469.8,402.0,632.7,911.8,1111.2,605.2,2447.3,3477.1,3468.6,681.5,845.3,2014.4,1198.2,1106.9,1221.3,-17.0,-75.0,31.0,13436.0,-4444.0,5405.0,-6242.0,-104.0,-148.0,-81.0,-13.0,-38.0,25.0,12239.0,-9732.0,3265.0,-3643.0,-68.0,-28.0,89.0,1.0
2022-05-13 12:36:58.365427-07:00,1172.6,784.4,1280.1,1109.5,1286.4,830.2,1741.6,1418.6,3467.4,3467.4,1155.9,922.8,1602.1,3469.8,1484.7,1465.4,3488.0,3469.8,402.0,637.6,911.8,1114.7,610.8,2440.9,3477.1,3468.6,681.5,869.6,2014.4,1188.5,1103.4,1374.8,3.0,-56.0,43.0,13455.0,-4428.0,5400.0,-6214.0,22.0,89.0,190.0,24.0,-61.0,11.0,12271.0,-9700.0,3279.0,-3608.0,96.0,-7.0,143.0,1.0
2022-05-13 12:36:58.412801-07:00,1172.6,784.4,1280.1,1119.1,1286.4,825.2,1738.7,1415.8,3467.4,3467.4,1155.9,917.7,1602.1,3467.4,1488.4,1455.2,3472.2,3477.1,404.3,637.6,903.4,1114.7,610.8,2440.9,3475.9,3469.8,692.9,869.6,2004.5,1188.5,1103.4,1374.8,2.0,-83.0,61.0,13450.0,-4408.0,5517.0,-6137.0,-193.0,275.0,261.0,10.0,-55.0,12.0,12292.0,-9676.0,3349.0,-3533.0,-53.0,33.0,322.0,1.0
2022-05-13 12:36:58.457262-07:00,1173.5,789.4,1280.1,1119.1,1247.1,825.2,1738.7,1415.8,3469.8,3461.3,1159.4,917.7,1606.8,3467.4,1488.4,1455.2,3472.2,3477.1,404.3,640.8,903.4,1114.7,610.0,2442.0,3475.9,3469.8,692.9,873.0,2004.5,1206.2,1146.3,1310.6,-11.0,-43.0,16.0,13417.0,-4388.0,5735.0,-6024.0,-271.0,431.0,379.0,0.0,-38.0,13.0,12308.0,-9658.0,3477.0,-3404.0,-66.0,53.0,469.0,1.0
2022-05-13 12:36:58.544744-07:00,1173.5,789.4,1280.1,1120.0,1234.6,823.5,1731.1,1404.9,3469.8,3461.3,1159.4,918.6,1604.0,3468.6,1490.3,1463.5,3468.6,3479.5,400.4,635.9,903.4,1114.7,610.0,2442.0,3483.2,3474.6,685.6,868.8,2009.4,1206.2,1146.3,1310.6,6.0,8.0,-58.0,13399.0,-4323.0,5945.0,-5906.0,-56.0,374.0,403.0,-12.0,28.0,-9.0,12351.0,-9601.0,3616.0,-3262.0,113.0,42.0,468.0,1.0
2022-05-13 12:36:58.590072-07:00,1171.8,783.6,1282.8,1125.2,1234.6,823.5,1731.1,1404.9,3467.4,3473.4,1151.5,922.8,1604.0,3468.6,1490.3,1463.5,3468.6,3479.5,400.4,635.9,905.9,1108.6,613.3,2449.4,3483.2,3474.6,685.6,868.8,2014.4,1207.1,1138.4,1287.3,20.0,49.0,-88.0,13406.0,-4214.0,6100.0,-5809.0,17.0,275.0,341.0,-5.0,59.0,-15.0,12411.0,-9522.0,3720.0,-3146.0,99.0,21.0,365.0,1.0
2022-05-13 12:36:58.636209-07:00,1171.8,783.6,1282.8,1125.2,1227.5,816.9,1719.6,1406.7,3467.4,3473.4,1151.5,922.8,1594.6,3478.3,1487.5,1470.0,3485.6,3472.2,403.5,636.7,905.9,1108.6,613.3,2449.4,3462.5,3475.9,688.9,869.6,2014.4,1207.1,1138.4,1287.3,29.0,55.0,-95.0,13421.0,-4141.0,6184.0,-5738.0,6.0,87.0,190.0,1.0,67.0,-17.0,12456.0,-9464.0,3784.0,-3066.0,74.0,-7.0,214.0,1.0
2022-05-13 12:36:58.724697-07:00,1176.2,777.8,1264.9,1116.5,1227.5,816.9,1719.6,1406.7,3468.6,3473.4,1144.5,917.7,1594.6,3478.3,1487.5,1470.0,3485.6,3472.2,403.5,636.7,907.6,1113.9,606.8,2425.0,3462.5,3475.9,688.9,869.6,2006.4,1204.4,1136.6,1273.0,21.0,31.0,-34.0,13429.0,-4136.0,6215.0,-5689.0,-71.0,16.0,90.0,2.0,44.0,3.0,12472.0,-9449.0,3809.0,-3016.0,-21.0,-30.0,91.0,1.0
2022-05-13 12:36:58.771060-07:00,1176.2,777.8,1264.9,1116.5,1221.3,820.2,1720.5,1390.3,3468.6,3473.4,1144.5,917.7,1601.1,3463.7,1488.4,1459.8,3478.3,3474.6,395.0,635.9,907.6,1113.9,606.8,2425.0,3474.6,3473.4,691.3,867.1,2006.4,1204.4,1136.6,1273.0,13.0,23.0,-19.0,13430.0,-4139.0,6237.0,-5659.0,-42.0,18.0,34.0,1.0,24.0,11.0,12474.0,-9448.0,3821.0,-2994.0,-20.0,3.0,40.0,1.0
2022-05-13 12:36:58.772274-07:00,1175.3,781.1,1264.9,1110.4,1221.3,820.2,1720.5,1425.0,3468.6,3467.4,1153.3,920.3,1601.1,3463.7,1488.4,1468.1,3474.6,3474.6,395.0,635.9,901.7,1113.0,609.2,2428.2,3479.5,3473.4,691.3,867.1,2011.4,1216.0,1120.0,1264.0,0.0,2.0,-18.0,13420.0,-4154.0,6252.0,-5658.0,-63.0,20.0,-28.0,-3.0,3.0,13.0,12463.0,-9462.0,3831.0,-2986.0,-79.0,15.0,7.0,1.0
2022-05-13 12:36:58.814952-07:00,1189.4,781.1,1264.9,1110.4,1207.1,806.0,1709.1,1425.0,3471.0,3467.4,1153.3,920.3,1600.2,3473.4,1488.4,1468.1,3474.6,3466.1,405.9,638.4,901.7,1113.0,609.2,2435.6,3479.5,3477.1,684.0,865.4,2011.4,1216.0,1120.0,1234.6,-5.0,-11.0,-16.0,13405.0,-4178.0,6261.0,-5663.0,-53.0,20.0,-38.0,-2.0,0.0,10.0,12446.0,-9479.0,3842.0,-2985.0,-58.0,19.0,-2.0,1.0
2022-05-13 12:36:58.907153-07:00,1189.4,779.4,1271.2,1112.1,1207.1,806.0,1709.1,1389.4,3471.0,3473.4,1154.2,916.0,1600.2,3473.4,1488.4,1461.7,3477.1,3466.1,405.9,638.4,907.6,1112.1,604.4,2435.6,3472.2,3477.1,684.0,865.4,2008.4,1206.2,1125.2,1234.6,2.0,-6.0,-15.0,13401.0,-4195.0,6259.0,-5664.0,-2.0,-52.0,-18.0,0.0,-4.0,6.0,12439.0,-9487.0,3845.0,-2986.0,-10.0,3.0,-16.0,1.0
2022-05-13 12:36:58.908373-07:00,1169.1,779.4,1271.2,1112.1,1206.2,815.2,1718.6,1389.4,3472.2,3473.4,1154.2,916.0,1603.0,3475.9,1483.8,1461.7,3477.1,3478.3,399.6,633.5,907.6,1112.1,604.4,2435.6,3472.2,3473.4,682.3,865.4,2008.4,1206.2,1125.2,1243.5,0.0,-12.0,-14.0,13403.0,-4214.0,6243.0,-5663.0,-14.0,-38.0,-20.0,-5.0,-3.0,0.0,12434.0,-9494.0,3841.0,-2991.0,-13.0,-6.0,-22.0,1.0
2022-05-13 12:36:58.998889-07:00,1169.1,777.8,1265.8,1115.6,1206.2,815.2,1718.6,1393.9,3472.2,3471.0,1147.1,922.0,1603.0,3475.9,1483.8,1459.8,3478.3,3478.3,399.6,633.5,905.0,1107.8,606.0,2435.6,3473.4,3473.4,682.3,865.4,2007.4,1208.9,1113.9,1243.5,3.0,-1.0,-31.0,13407.0,-4216.0,6221.0,-5675.0,63.0,-52.0,-31.0,-4.0,11.0,-1.0,12437.0,-9490.0,3831.0,-3004.0,44.0,-5.0,-36.0,1.0
2022-05-13 12:36:59.040454-07:00,1168.2,776.1,1265.8,1115.6,1200.9,807.7,1710.0,1393.9,3474.6,3463.7,1147.1,922.0,1606.8,3478.3,1488.4,1459.8,3478.3,3473.4,402.8,630.3,905.0,1107.8,602.8,2435.6,3473.4,3468.6,683.1,857.0,2007.4,1208.9,1134.0,1233.7,-7.0,-14.0,-15.0,13409.0,-4226.0,6203.0,-5682.0,-5.0,-45.0,-29.0,-6.0,-4.0,1.0,12435.0,-9493.0,3820.0,-3015.0,-17.0,-12.0,-37.0,1.0
2022-05-13 12:36:59.085630-07:00,1168.2,776.1,1269.4,1100.8,1200.9,807.7,1706.2,1397.6,3474.6,3463.7,1148.0,918.6,1606.8,3478.3,1490.3,1464.4,3474.6,3471.0,402.8,630.3,904.2,1111.2,602.8,2435.6,3479.5,3474.6,683.1,857.0,2008.4,1206.2,1134.0,1233.7,-6.0,-17.0,-13.0,13409.0,-4235.0,6193.0,-5688.0,9.0,-3.0,-20.0,-9.0,-8.0,1.0,12432.0,-9498.0,3813.0,-3024.0,-17.0,2.0,-29.0,1.0
2022-05-13 12:36:59.130999-07:00,1181.5,780.3,1269.4,1100.8,1188.5,811.9,1706.2,1397.6,3466.1,3471.0,1148.0,918.6,1605.8,3468.6,1490.3,1464.4,3474.6,3471.0,395.7,640.8,904.2,1111.2,614.9,2424.0,3479.5,3474.6,679.1,849.5,2008.4,1206.2,1120.0,1264.9,-6.0,-18.0,-8.0,13404.0,-4250.0,6195.0,-5686.0,-22.0,-23.0,-3.0,-10.0,-14.0,12.0,12424.0,-9508.0,3811.0,-3025.0,-24.0,-8.0,-10.0,1.0
2022-05-13 12:36:59.175433-07:00,1181.5,780.3,1256.0,1107.8,1188.5,811.9,1719.6,1390.3,3466.1,3471.0,1146.3,915.2,1605.8,3468.6,1485.6,1458.9,3474.6,3467.4,395.7,640.8,898.3,1115.6,614.9,2424.0,3473.4,3472.2,679.1,849.5,2017.4,1208.9,1120.0,1264.9,-5.0,-16.0,-2.0,13406.0,-4253.0,6194.0,-5681.0,17.0,-4.0,17.0,-5.0,-7.0,4.0,12424.0,-9508.0,3812.0,-3025.0,10.0,4.0,2.0,1.0
2022-05-13 12:36:59.220327-07:00,1168.2,777.8,1256.0,1107.8,1181.5,810.2,1719.6,1390.3,3474.6,3473.4,1146.3,915.2,1601.1,3468.6,1485.6,1458.9,3474.6,3467.4,395.0,631.9,898.3,1115.6,603.6,2430.3,3473.4,3472.2,680.7,857.0,2017.4,1208.9,1120.9,1252.4,4.0,-5.0,-19.0,13409.0,-4249.0,6200.0,-5670.0,0.0,13.0,32.0,-3.0,-3.0,2.0,12424.0,-9507.0,3812.0,-3025.0,-3.0,1.0,8.0,1.0
2022-05-13 12:36:59.264920-07:00,1168.2,777.8,1266.7,1102.5,1181.5,810.2,1712.9,1389.4,3474.6,3473.4,1145.4,920.3,1601.1,3468.6,1486.6,1454.3,3471.0,3483.2,395.0,631.9,905.9,1112.1,603.6,2430.3,3468.6,3485.6,680.7,857.0,2005.5,1199.1,1120.9,1252.4,-1.0,-10.0,-31.0,13407.0,-4256.0,6212.0,-5655.0,-39.0,-14.0,29.0,-2.0,-3.0,0.0,12422.0,-9512.0,3811.0,-3022.0,-29.0,-21.0,-7.0,1.0
2022-05-13 12:36:59.310297-07:00,1171.8,777.8,1263.1,1102.5,1185.0,819.4,1712.9,1389.4,3473.4,3483.2,1157.7,920.3,1606.8,3472.2,1486.6,1454.3,3471.0,3483.2,402.0,640.8,905.9,1115.6,604.4,2427.1,3468.6,3485.6,669.3,851.1,2005.5,1203.5,1118.2,1231.9,7.0,1.0,-14.0,13419.0,-4266.0,6194.0,-5638.0,31.0,-70.0,31.0,0.0,7.0,1.0,12428.0,-9512.0,3794.0,-3019.0,24.0,-41.0,-26.0,1.0
2022-05-13 12:36:59.357269-07:00,1171.8,777.8,1263.1,1107.8,1185.0,806.0,1703.3,1385.7,3473.4,3483.2,1157.7,919.4,1606.8,3469.8,1487.5,1458.9,3474.6,3467.4,402.8,640.8,900.0,1115.6,604.4,2427.1,3474.6,3462.5,681.5,851.1,2006.4,1203.5,1118.2,1231.9,-5.0,-6.0,0.0,13432.0,-4270.0,6172.0,-5629.0,-7.0,-65.0,-5.0,-2.0,-4.0,10.0,12432.0,-9514.0,3775.0,-3021.0,-5.0,-33.0,-30.0,1.0
2022-05-13 12:36:59.401897-07:00,1177.0,779.4,1267.6,1107.8,1193.8,806.0,1703.3,1385.7,3467.4,3462.5,1144.5,919.4,1604.9,3469.8,1487.5,1458.9,3474.6,3467.4,402.8,636.7,900.0,1113.0,606.0,2434.6,3474.6,3462.5,681.5,844.4,2006.4,1200.0,1120.0,1224.8,-3.0,-1.0,2.0,13439.0,-4276.0,6153.0,-5629.0,11.0,-28.0,-12.0,-9.0,-6.0,10.0,12434.0,-9515.0,3764.0,-3025.0,4.0,-4.0,-26.0,1.0
2022-05-13 12:36:59.489801-07:00,1177.0,779.4,1267.6,1108.6,1193.8,810.2,1698.6,1388.5,3467.4,3462.5,1144.5,914.4,1604.9,3466.1,1485.6,1464.4,3474.6,3472.2,405.9,636.7,907.6,1113.0,606.0,2434.6,3489.2,3468.6,673.3,844.4,2006.4,1200.0,1120.0,1224.8,-3.0,-14.0,0.0,13437.0,-4279.0,6149.0,-5634.0,3.0,-5.0,-11.0,-5.0,-8.0,12.0,12431.0,-9518.0,3759.0,-3031.0,11.0,11.0,-20.0,1.0
2022-05-13 12:36:59.534995-07:00,1173.5,786.1,1268.5,1108.6,1185.0,810.2,1698.6,1388.5,3475.9,3464.9,1146.3,914.4,1604.9,3466.1,1485.6,1464.4,3474.6,3472.2,405.9,637.6,907.6,1110.4,601.2,2435.6,3489.2,3468.6,673.3,851.1,2006.4,1205.3,1113.9,1226.6,-9.0,-6.0,-13.0,13439.0,-4268.0,6148.0,-5640.0,33.0,11.0,-5.0,-6.0,-3.0,6.0,12434.0,-9512.0,3756.0,-3043.0,5.0,13.0,-22.0,1.0
2022-05-13 12:36:59.579808-07:00,1173.5,786.1,1268.5,1106.9,1188.5,806.9,1711.0,1388.5,3475.9,3464.9,1146.3,918.6,1620.9,3478.3,1482.9,1461.7,3472.2,3474.6,401.2,631.1,891.5,1110.4,601.2,2435.6,3473.4,3474.6,675.0,847.0,2013.4,1205.3,1113.9,1226.6,-1.0,-19.0,-8.0,13437.0,-4269.0,6148.0,-5644.0,9.0,-2.0,-10.0,1.0,-9.0,6.0,12431.0,-9513.0,3753.0,-3051.0,9.0,5.0,-16.0,1.0
2022-05-13 12:36:59.669907-07:00,1176.2,775.3,1266.7,1106.9,1188.5,806.9,1711.0,1388.5,3473.4,3473.4,1144.5,916.9,1620.9,3478.3,1482.9,1461.7,3472.2,3474.6,401.2,631.1,904.2,1119.1,605.2,2432.4,3473.4,3474.6,675.0,847.0,2006.4,1194.7,1115.6,1219.5,2.0,-11.0,-10.0,13439.0,-4266.0,6141.0,-5649.0,24.0,-32.0,-15.0,-2.0,0.0,3.0,12435.0,-9509.0,3747.0,-3058.0,17.0,-4.0,-18.0,1.0
2022-05-13 12:36:59.672019-07:00,1176.2,775.3,1266.7,1106.9,1183.2,809.4,1711.0,1372.1,3473.4,3473.4,1144.5,916.9,1600.2,3467.4,1487.5,1461.7,3467.4,3472.2,396.5,635.1,904.2,1119.1,605.2,2432.4,3484.4,3474.6,673.3,843.6,2006.4,1194.7,1115.6,1219.5,-3.0,-4.0,-10.0,13443.0,-4268.0,6130.0,-5649.0,12.0,-18.0,-1.0,-9.0,-6.0,5.0,12436.0,-9507.0,3742.0,-3064.0,8.0,-5.0,-13.0,1.0
2022-05-13 12:36:59.715185-07:00,1170.9,777.8,1264.0,1104.3,1183.2,809.4,1711.0,1372.1,3473.4,3472.2,1144.5,915.2,1600.2,3467.4,1487.5,1461.7,3467.4,3472.2,396.5,635.1,900.0,1111.2,610.0,2422.9,3484.4,3474.6,673.3,843.6,2006.4,1192.0,1117.4,1219.5,1.0,-11.0,-8.0,13444.0,-4273.0,6123.0,-5652.0,0.0,-8.0,-5.0,-2.0,0.0,3.0,12436.0,-9508.0,3740.0,-3067.0,-1.0,0.0,-7.0,1.0
2022-05-13 12:36:59.759601-07:00,1170.9,777.8,1264.0,1104.3,1185.0,797.7,1699.5,1387.5,3473.4,3472.2,1144.5,915.2,1599.3,3466.1,1483.8,1451.6,3478.3,3473.4,400.4,633.5,900.0,1111.2,610.0,2422.9,3475.9,3478.3,689.7,847.8,2006.4,1192.0,1117.4,1219.5,0.0,-13.0,-9.0,13443.0,-4273.0,6123.0,-5653.0,5.0,-10.0,-12.0,0.0,-4.0,0.0,12436.0,-9508.0,3738.0,-3068.0,1.0,3.0,-6.0,1.0
2022-05-13 12:36:59.807333-07:00,1182.3,781.9,1256.9,1106.0,1185.0,797.7,1699.5,1380.3,3468.6,3468.6,1143.6,917.7,1599.3,3466.1,1483.8,1455.2,3481.9,3473.4,400.4,633.5,905.9,1115.6,604.4,2422.9,3469.8,3478.3,689.7,847.8,2007.4,1206.2,1110.4,1208.9,-9.0,-6.0,-17.0,13441.0,-4274.0,6123.0,-5657.0,16.0,12.0,-1.0,-12.0,-1.0,1.0,12436.0,-9508.0,3738.0,-3068.0,8.0,-4.0,-6.0,1.0
2022-05-13 12:36:59.851722-07:00,1167.4,781.9,1256.9,1106.0,1185.0,806.9,1712.9,1380.3,3462.5,3468.6,1143.6,917.7,1601.1,3471.0,1488.4,1455.2,3481.9,3477.1,404.3,632.7,905.9,1115.6,604.4,2425.0,3469.8,3474.6,670.9,841.1,2007.4,1206.2,1110.4,1212.4,2.0,-7.0,-17.0,13442.0,-4274.0,6121.0,-5657.0,33.0,-31.0,4.0,-9.0,4.0,-4.0,12439.0,-9503.0,3735.0,-3071.0,39.0,-10.0,-12.0,1.0
2022-05-13 12:36:59.897315-07:00,1167.4,777.8,1260.4,1103.4,1185.0,806.9,1712.9,1375.7,3462.5,3473.4,1144.5,915.2,1601.1,3471.0,1488.4,1472.7,3467.4,3477.1,404.3,632.7,900.0,1112.1,604.4,2425.0,3478.3,3474.6,670.9,841.1,2012.4,1199.1,1112.1,1212.4,8.0,6.0,-20.0,13450.0,-4266.0,6108.0,-5660.0,31.0,-35.0,-13.0,0.0,8.0,0.0,12444.0,-9499.0,3726.0,-3078.0,-3.0,-14.0,-29.0,1.0
2022-05-13 12:37:00.030457-07:00,1169.1,777.8,1260.4,1103.4,1192.9,799.4,1708.1,1375.7,3469.8,3473.4,1144.5,915.2,1596.4,3481.9,1484.7,1472.7,3467.4,3474.6,400.4,635.1,900.0,1112.1,604.4,2413.4,3478.3,3478.3,676.6,850.3,2012.4,1199.1,1112.1,1216.0,6.0,0.0,-8.0,13449.0,-4285.0,6093.0,-5664.0,-27.0,-41.0,-43.0,3.0,7.0,6.0,12434.0,-9514.0,3716.0,-3084.0,-25.0,-15.0,-41.0,1.0
2022-05-13 12:37:00.077906-07:00,1169.1,777.8,1251.5,1109.5,1192.9,799.4,1708.1,1383.9,3469.8,3474.6,1147.1,911.0,1596.4,3481.9,1484.7,1460.8,3472.2,3474.6,400.4,635.1,900.0,1117.4,610.0,2413.4,3479.5,3478.3,676.6,850.3,2007.4,1197.4,1111.2,1216.0,9.0,43.0,-38.0,13451.0,-4295.0,6069.0,-5678.0,34.0,-56.0,-66.0,-5.0,36.0,0.0,12428.0,-9521.0,3699.0,-3104.0,-1.0,2.0,-85.0,1.0
2022-05-13 12:37:00.122791-07:00,1163.8,777.8,1251.5,1109.5,1181.5,812.7,1703.3,1383.9,3478.3,3474.6,1147.1,911.0,1594.6,3463.7,1507.8,1460.8,3472.2,3479.5,399.6,632.7,900.0,1117.4,610.0,2428.2,3479.5,3475.9,670.1,855.3,2007.4,1197.4,1111.2,1207.1,15.0,63.0,-72.0,13448.0,-4314.0,6021.0,-5722.0,46.0,-110.0,-195.0,-8.0,50.0,-11.0,12408.0,-9544.0,3669.0,-3151.0,-43.0,20.0,-189.0,1.0
2022-05-13 12:37:00.124017-07:00,1163.8,773.6,1270.3,1098.2,1181.5,812.7,1702.4,1388.5,3478.3,3468.6,1141.9,918.6,1594.6,3463.7,1485.6,1455.2,3472.2,3477.1,399.6,632.7,904.2,1107.8,608.4,2428.2,3474.6,3477.1,670.1,855.3,2007.4,1200.9,1108.6,1207.1,22.0,18.0,-47.0,13437.0,-4379.0,5907.0,-5814.0,69.0,-319.0,-403.0,2.0,37.0,-8.0,12362.0,-9599.0,3611.0,-3231.0,-88.0,-3.0,-315.0,1.0
2022-05-13 12:37:00.165426-07:00,1171.8,785.2,1270.3,1098.2,1179.7,801.9,1702.4,1388.5,3467.4,3466.1,1141.9,918.6,1599.3,3477.1,1485.6,1455.2,3472.2,3477.1,398.9,631.1,904.2,1107.8,601.2,2426.1,3474.6,3477.1,670.9,844.4,2007.4,1200.9,1107.8,1224.8,8.0,-46.0,9.0,13436.0,-4458.0,5748.0,-5915.0,57.0,-268.0,-290.0,5.0,-25.0,4.0,12315.0,-9659.0,3526.0,-3321.0,-52.0,-40.0,-312.0,1.0
2022-05-13 12:37:00.210443-07:00,1171.8,785.2,1258.7,1105.1,1179.7,801.9,1711.0,1386.6,3467.4,3466.1,1147.1,920.3,1599.3,3477.1,1489.3,1458.9,3473.4,3480.7,398.9,631.1,897.4,1106.9,601.2,2426.1,3473.4,3474.6,670.9,844.4,2006.4,1200.9,1107.8,1224.8,-8.0,-45.0,22.0,13443.0,-4504.0,5636.0,-5972.0,63.0,-169.0,-159.0,-7.0,-34.0,7.0,12293.0,-9693.0,3441.0,-3395.0,13.0,-57.0,-238.0,1.0
2022-05-13 12:37:00.476645-07:00,1167.4,771.1,1258.7,1105.1,1185.0,800.2,1711.0,1386.6,3463.7,3467.4,1147.1,920.3,1604.0,3471.0,1489.3,1458.9,3473.4,3480.7,400.4,640.8,897.4,1106.9,607.6,2413.4,3473.4,3474.6,670.1,847.8,2006.4,1200.9,1111.2,1206.2,-23.0,-28.0,19.0,13453.0,-4517.0,5561.0,-6010.0,57.0,-135.0,-98.0,-11.0,-29.0,24.0,12284.0,-9712.0,3371.0,-3444.0,6.0,-59.0,-169.0,1.0
2022-05-13 12:37:00.479721-07:00,1167.4,771.1,1252.4,1105.1,1185.0,800.2,1707.2,1369.4,3463.7,3467.4,1141.9,919.4,1604.0,3471.0,1485.6,1452.5,3471.0,3480.7,400.4,640.8,903.4,1116.5,607.6,2413.4,3473.4,3472.2,670.1,847.8,2007.4,1198.2,1111.2,1206.2,-23.0,-16.0,11.0,13464.0,-4529.0,5499.0,-6034.0,72.0,-106.0,-86.0,-18.0,-20.0,19.0,12280.0,-9722.0,3319.0,-3480.0,29.0,-31.0,-137.0,1.0
2022-05-13 12:37:00.481184-07:00,1168.2,777.8,1249.7,1105.1,1170.0,811.0,1707.2,1369.4,3463.7,3461.3,1140.1,919.4,1596.4,3468.6,1485.6,1452.5,3471.0,3480.7,402.0,631.1,903.4,1115.6,605.2,2414.5,3473.4,3472.2,679.9,844.4,2007.4,1186.7,1106.9,1196.5,-9.0,-22.0,8.0,13470.0,-4533.0,5447.0,-6063.0,48.0,-83.0,-96.0,-9.0,-16.0,6.0,12276.0,-9728.0,3282.0,-3513.0,-9.0,-16.0,-105.0,1.0
2022-05-13 12:37:00.482455-07:00,1168.2,777.8,1249.7,1096.4,1170.0,796.0,1714.8,1374.8,3463.7,3461.3,1140.1,916.0,1596.4,3469.8,1487.5,1456.2,3478.3,3473.4,398.1,631.1,901.7,1115.6,605.2,2414.5,3472.2,3480.7,666.8,844.4,2001.5,1186.7,1106.9,1196.5,-8.0,-28.0,0.0,13469.0,-4541.0,5412.0,-6093.0,47.0,-48.0,-73.0,-9.0,-14.0,3.0,12268.0,-9736.0,3259.0,-3539.0,4.0,-9.0,-77.0,1.0
2022-05-13 12:37:00.483824-07:00,1168.2,769.5,1261.3,1096.4,1178.8,796.0,1714.8,1374.8,3472.2,3463.7,1136.6,916.0,1604.9,3469.8,1487.5,1456.2,3478.3,3473.4,398.1,636.7,901.7,1112.1,607.6,2426.1,3472.2,3480.7,666.8,852.0,2001.5,1187.6,1106.9,1223.0,1.0,-13.0,-4.0,13471.0,-4544.0,5385.0,-6110.0,40.0,-52.0,-38.0,-3.0,-2.0,0.0,12265.0,-9740.0,3239.0,-3556.0,15.0,-11.0,-55.0,1.0
2022-05-13 12:37:00.525587-07:00,1168.2,769.5,1261.3,1099.9,1178.8,804.4,1702.4,1383.9,3472.2,3463.7,1136.6,919.4,1604.9,3467.4,1477.3,1462.6,3475.9,3474.6,403.5,636.7,905.0,1112.1,607.6,2426.1,3471.0,3474.6,666.0,852.0,2003.5,1187.6,1106.9,1223.0,4.0,-20.0,-5.0,13469.0,-4539.0,5369.0,-6131.0,59.0,18.0,-51.0,-2.0,0.0,-7.0,12258.0,-9748.0,3223.0,-3570.0,-15.0,-14.0,-57.0,1.0
2022-05-13 12:37:00.570665-07:00,1174.4,778.6,1248.8,1099.9,1181.5,804.4,1702.4,1383.9,3475.9,3467.4,1134.9,919.4,1601.1,3467.4,1477.3,1462.6,3475.9,3474.6,403.5,643.2,905.0,1113.9,606.8,2414.5,3471.0,3474.6,666.0,849.5,2003.5,1201.8,1119.1,1202.7,5.0,-1.0,4.0,13470.0,-4517.0,5355.0,-6158.0,39.0,0.0,-21.0,2.0,7.0,-3.0,12254.0,-9755.0,3203.0,-3584.0,-19.0,-19.0,-50.0,1.0
2022-05-13 12:37:00.704960-07:00,1174.4,778.6,1248.8,1106.9,1184.1,808.5,1705.3,1385.7,3475.9,3467.4,1134.9,914.4,1604.9,3464.9,1481.0,1456.2,3485.6,3474.6,398.1,637.6,898.3,1113.9,606.8,2414.5,3475.9,3479.5,670.9,837.7,2001.5,1201.8,1119.1,1202.7,-4.0,-22.0,8.0,13460.0,-4516.0,5368.0,-6170.0,26.0,38.0,-20.0,-6.0,-18.0,12.0,12238.0,-9776.0,3201.0,-3586.0,-29.0,-9.0,-16.0,1.0
2022-05-13 12:37:00.706815-07:00,1162.1,781.9,1256.0,1098.2,1184.1,808.5,1705.3,1385.7,3477.1,3473.4,1134.0,915.2,1604.9,3464.9,1481.0,1456.2,3485.6,3474.6,398.1,637.6,900.0,1117.4,609.2,2426.1,3475.9,3479.5,670.9,837.7,2000.5,1193.8,1107.8,1208.0,0.0,-5.0,-4.0,13454.0,-4499.0,5376.0,-6188.0,38.0,46.0,-34.0,3.0,-11.0,8.0,12228.0,-9788.0,3203.0,-3584.0,-48.0,-1.0,-6.0,1.0
2022-05-13 12:37:00.753968-07:00,1162.1,781.9,1256.0,1098.2,1177.9,805.2,1713.8,1393.0,3477.1,3473.4,1134.0,915.2,1598.3,3468.6,1487.5,1457.1,3474.6,3474.6,404.3,632.7,900.0,1117.4,609.2,2426.1,3485.6,3474.6,666.8,840.3,2000.5,1193.8,1107.8,1208.0,3.0,-5.0,-12.0,13444.0,-4491.0,5376.0,-6216.0,43.0,13.0,-59.0,6.0,-6.0,7.0,12211.0,-9810.0,3202.0,-3582.0,-56.0,-17.0,-21.0,1.0
2022-05-13 12:37:00.755607-07:00,1173.5,779.4,1256.9,1094.7,1177.9,805.2,1713.8,1393.0,3467.4,3473.4,1134.0,917.7,1598.3,3468.6,1487.5,1457.1,3474.6,3474.6,404.3,632.7,902.5,1113.9,601.2,2407.1,3485.6,3474.6,666.8,840.3,2003.5,1178.8,1113.0,1257.8,-8.0,-28.0,-10.0,13426.0,-4509.0,5372.0,-6243.0,-44.0,6.0,-90.0,1.0,-17.0,12.0,12179.0,-9853.0,3202.0,-3574.0,-147.0,-25.0,-21.0,1.0
2022-05-13 12:37:00.887374-07:00,1173.5,779.4,1256.9,1094.7,1222.2,818.5,1716.7,1423.1,3467.4,3473.4,1134.0,917.7,1600.2,3462.5,1481.0,1463.5,3479.5,3488.0,398.9,633.5,902.5,1113.9,601.2,2407.1,3481.9,3488.0,671.7,841.9,2003.5,1178.8,1113.0,1257.8,-14.0,-1.0,0.0,13422.0,-4519.0,5348.0,-6265.0,11.0,-57.0,-55.0,-2.0,-2.0,17.0,12164.0,-9874.0,3199.0,-3571.0,-65.0,-7.0,-17.0,1.0
2022-05-13 12:37:00.888635-07:00,1166.5,773.6,1254.2,1088.6,1222.2,818.5,1716.7,1423.1,3466.1,3469.8,1132.2,914.4,1600.2,3462.5,1481.0,1463.5,3479.5,3488.0,398.9,633.5,899.1,1108.6,607.6,2413.4,3481.9,3488.0,671.7,841.9,2004.5,1189.4,1106.9,1228.4,-3.0,-3.0,-15.0,13421.0,-4542.0,5315.0,-6279.0,-7.0,-68.0,-75.0,-12.0,9.0,-2.0,12148.0,-9892.0,3198.0,-3574.0,-46.0,1.0,-35.0,1.0
2022-05-13 12:37:01.112928-07:00,1167.4,773.6,1254.2,1088.6,1224.8,804.4,1729.1,1430.5,3471.0,3469.8,1132.2,914.4,1603.0,3464.9,1478.3,1453.4,3474.6,3466.1,402.0,633.5,899.1,1108.6,607.6,2408.1,3475.9,3471.0,675.8,843.6,2004.5,1189.4,1106.9,1214.2,-7.0,-27.0,-28.0,13412.0,-4587.0,5290.0,-6287.0,-79.0,-88.0,-59.0,-7.0,-11.0,-10.0,12125.0,-9921.0,3192.0,-3578.0,-76.0,-23.0,-34.0,1.0
2022-05-13 12:37:01.116312-07:00,1167.4,771.1,1258.7,1082.5,1224.8,804.4,1729.1,1438.7,3471.0,3469.8,1123.5,906.7,1603.0,3464.9,1478.3,1457.1,3474.6,3466.1,402.0,633.5,900.8,1111.2,607.6,2408.1,3479.5,3471.0,675.8,843.6,1992.5,1185.9,1100.8,1214.2,-3.0,-42.0,6.0,13409.0,-4624.0,5277.0,-6277.0,-13.0,-30.0,10.0,-5.0,-20.0,-3.0,12116.0,-9937.0,3181.0,-3574.0,20.0,-40.0,-11.0,1.0
2022-05-13 12:37:01.157629-07:00,1168.2,771.1,1258.7,1082.5,1211.5,804.4,1718.6,1438.7,3467.4,3469.8,1123.5,906.7,1597.4,3473.4,1475.5,1457.1,3474.6,3477.1,399.6,629.5,900.8,1111.2,607.6,2410.3,3479.5,3471.0,675.8,845.3,1992.5,1185.9,1100.8,1188.5,-3.0,-6.0,-1.0,13419.0,-4611.0,5271.0,-6269.0,17.0,-14.0,31.0,-3.0,1.0,10.0,12130.0,-9928.0,3164.0,-3568.0,39.0,-33.0,10.0,1.0
2022-05-13 12:37:01.158925-07:00,1168.2,774.5,1231.0,1085.1,1211.5,804.4,1718.6,1457.1,3467.4,3462.5,1124.4,919.4,1597.4,3473.4,1475.5,1457.1,3475.9,3477.1,399.6,629.5,902.5,1112.1,608.4,2410.3,3477.1,3471.0,675.8,845.3,2001.5,1187.6,1102.5,1188.5,0.0,11.0,-1.0,13428.0,-4602.0,5265.0,-6264.0,28.0,-7.0,0.0,-2.0,10.0,9.0,12144.0,-9916.0,3153.0,-3560.0,17.0,-25.0,6.0,1.0
2022-05-13 12:37:01.160158-07:00,1167.4,774.5,1231.0,1085.1,1196.5,808.5,1722.4,1457.1,3468.6,3462.5,1124.4,919.4,1597.4,3468.6,1478.3,1457.1,3475.9,3471.0,397.3,627.0,902.5,1112.1,608.4,2411.3,3477.1,3477.1,670.9,843.6,2001.5,1187.6,1102.5,1177.0,0.0,3.0,1.0,13427.0,-4603.0,5262.0,-6266.0,-17.0,-12.0,-15.0,0.0,9.0,12.0,12148.0,-9915.0,3148.0,-3557.0,-22.0,-2.0,-9.0,1.0
2022-05-13 12:37:01.160902-07:00,1167.4,774.5,1231.0,1085.1,1196.5,808.5,1722.4,1457.1,3468.6,3462.5,1124.4,919.4,1597.4,3468.6,1478.3,1457.1,3475.9,3471.0,397.3,627.0,902.5,1112.1,608.4,2411.3,3477.1,3477.1,670.9,843.6,2001.5,1187.6,1102.5,1177.0,0.0,3.0,1.0,13427.0,-4603.0,5262.0,-6266.0,-17.0,-12.0,-15.0,0.0,9.0,12.0,12148.0,-9915.0,3148.0,-3557.0,-22.0,-2.0,-9.0,1.0
2022-05-13 12:37:01.200447-07:00,1174.4,771.1,1228.4,1074.7,1185.9,812.7,1733.9,1420.4,3462.5,3467.4,1128.7,913.5,1605.8,3468.6,1470.0,1457.1,3472.2,3471.0,398.1,634.3,911.8,1108.6,605.2,2406.0,3474.6,3467.4,666.0,842.8,1991.5,1182.3,1091.2,1154.2,0.0,-12.0,1.0,13425.0,-4614.0,5246.0,-6277.0,-32.0,-28.0,-25.0,4.0,-11.0,9.0,12137.0,-9923.0,3143.0,-3575.0,-48.0,16.0,-18.0,1.0
2022-05-13 12:37:01.247301-07:00,1174.4,771.1,1206.2,1066.9,1185.9,812.7,1711.9,1419.5,3462.5,3467.4,1133.1,916.0,1605.8,3468.6,1476.4,1456.2,3473.4,3480.7,398.1,634.3,904.2,1110.4,605.2,2406.0,3471.0,3475.9,666.0,842.8,2002.5,1185.9,1091.2,1154.2,4.0,-8.0,7.0,13418.0,-4650.0,5236.0,-6274.0,-99.0,-54.0,-40.0,4.0,-4.0,4.0,12118.0,-9943.0,3151.0,-3578.0,-93.0,11.0,10.0,1.0
2022-05-13 12:37:01.292292-07:00,1163.0,766.2,1206.2,1066.9,1187.6,811.9,1711.9,1419.5,3458.9,3471.0,1133.1,916.0,1598.3,3467.4,1476.4,1456.2,3473.4,3480.7,400.4,627.0,904.2,1110.4,602.8,2399.7,3471.0,3475.9,662.7,840.3,2002.5,1185.9,1072.1,1148.9,4.0,-15.0,19.0,13386.0,-4739.0,5261.0,-6255.0,-311.0,-14.0,-29.0,21.0,-13.0,21.0,12074.0,-9994.0,3181.0,-3559.0,-255.0,41.0,48.0,1.0
2022-05-13 12:37:01.380434-07:00,1163.0,766.2,1195.6,1065.1,1187.6,811.9,1712.9,1395.7,3458.9,3471.0,1133.1,915.2,1598.3,3467.4,1478.3,1452.5,3471.0,3464.9,400.4,627.0,900.0,1115.6,602.8,2399.7,3466.1,3477.1,662.7,840.3,1996.5,1167.4,1072.1,1148.9,60.0,-10.0,76.0,13314.0,-4929.0,5360.0,-6177.0,-734.0,94.0,16.0,63.0,-12.0,-1.0,11979.0,-10094.0,3265.0,-3520.0,-462.0,105.0,158.0,1.0
2022-05-13 12:37:01.559929-07:00,1172.6,777.8,1173.5,1065.1,1181.5,811.0,1712.9,1395.7,3467.4,3469.8,1127.9,915.2,1595.5,3468.6,1478.3,1452.5,3471.0,3464.9,399.6,634.3,900.0,1107.8,606.0,2409.2,3466.1,3477.1,674.2,840.3,1996.5,1167.4,1079.9,1153.3,87.0,64.0,79.0,13130.0,-5235.0,5626.0,-6081.0,-1206.0,484.0,-46.0,73.0,32.0,10.0,11809.0,-10271.0,3432.0,-3423.0,-819.0,151.0,277.0,1.0
2022-05-13 12:37:01.562142-07:00,1172.6,777.8,1173.5,1056.5,1181.5,812.7,1711.0,1380.3,3467.4,3469.8,1127.9,911.0,1595.5,3466.1,1477.3,1459.8,3478.3,3474.6,402.0,634.3,905.0,1107.8,606.0,2409.2,3474.6,3474.6,672.5,840.3,2007.4,1167.4,1079.9,1153.3,29.0,69.0,17.0,12792.0,-5639.0,6077.0,-6005.0,-1548.0,773.0,-188.0,34.0,31.0,46.0,11525.0,-10547.0,3679.0,-3291.0,-1169.0,269.0,319.0,1.0
2022-05-13 12:37:01.563414-07:00,1167.4,778.6,1182.3,1056.5,1174.4,812.7,1711.0,1380.3,3466.1,3462.5,1120.9,911.0,1598.3,3466.1,1477.3,1459.8,3478.3,3474.6,402.0,631.1,905.0,1113.0,599.6,2415.5,3474.6,3474.6,672.5,843.6,2007.4,1168.2,1072.1,1135.7,35.0,93.0,-12.0,12398.0,-6049.0,6556.0,-5928.0,-1485.0,824.0,-159.0,1.0,78.0,8.0,11200.0,-10830.0,3948.0,-3181.0,-1046.0,326.0,246.0,1.0
2022-05-13 12:37:01.564643-07:00,1167.4,778.6,1182.3,1064.3,1174.4,811.9,1708.1,1392.1,3466.1,3462.5,1120.9,912.7,1598.3,3471.0,1472.7,1450.6,3478.3,3468.6,405.9,631.1,903.4,1113.0,599.6,2415.5,3467.4,3471.0,663.6,843.6,2005.5,1168.2,1072.1,1135.7,-22.0,122.0,-71.0,11950.0,-6456.0,7043.0,-5862.0,-1592.0,868.0,-259.0,-47.0,75.0,12.0,10859.0,-11103.0,4186.0,-3117.0,-1160.0,369.0,113.0,1.0
2022-05-13 12:37:01.605522-07:00,1165.6,767.8,1159.4,1064.3,1174.4,811.9,1708.1,1392.1,3478.3,3467.4,1114.7,912.7,1599.3,3471.0,1472.7,1450.6,3478.3,3468.6,405.9,631.9,903.4,1113.9,602.8,2415.5,3467.4,3471.0,663.6,837.7,2005.5,1162.1,1066.0,1138.4,-3.0,119.0,-82.0,11449.0,-6902.0,7509.0,-5774.0,-1693.0,842.0,-244.0,-54.0,110.0,1.0,10452.0,-11409.0,4412.0,-3092.0,-1215.0,442.0,-15.0,1.0
2022-05-13 12:37:01.739993-07:00,1165.6,767.8,1159.4,1056.5,1168.2,809.4,1709.1,1387.5,3478.3,3467.4,1114.7,909.3,1597.4,3472.2,1461.7,1456.2,3467.4,3462.5,398.1,620.5,910.1,1113.9,602.8,2415.5,3475.9,3474.6,670.1,834.4,2000.5,1162.1,1066.0,1138.4,-19.0,42.0,-38.0,10950.0,-7273.0,7985.0,-5645.0,-1458.0,840.0,-47.0,-56.0,53.0,-2.0,10026.0,-11692.0,4617.0,-3144.0,-1025.0,571.0,-159.0,1.0
2022-05-13 12:37:01.742332-07:00,1168.2,765.3,1155.9,1054.8,1168.2,809.4,1709.1,1387.5,3472.2,3473.4,1113.9,905.0,1597.4,3472.2,1461.7,1456.2,3467.4,3462.5,398.1,620.5,905.9,1112.1,608.4,2403.9,3475.9,3474.6,670.1,834.4,1990.5,1160.3,1062.5,1134.0,-31.0,31.0,-83.0,10530.0,-7484.0,8410.0,-5552.0,-1123.0,933.0,7.0,-103.0,-114.0,-60.0,9682.0,-11880.0,4776.0,-3281.0,-978.0,462.0,-260.0,1.0
2022-05-13 12:37:01.743556-07:00,1168.2,765.3,1155.9,1054.8,1163.8,815.2,1712.9,1386.6,3472.2,3473.4,1113.9,905.0,1596.4,3473.4,1480.1,1451.6,3477.1,3472.2,404.3,627.0,905.9,1112.1,608.4,2403.9,3477.1,3478.3,662.7,831.1,1990.5,1160.3,1062.5,1134.0,-81.0,32.0,-19.0,10149.0,-7681.0,8658.0,-5611.0,-687.0,313.0,-752.0,4.0,0.0,7.0,9348.0,-12118.0,4767.0,-3388.0,-639.0,217.0,-500.0,1.0
2022-05-13 12:37:01.876533-07:00,1168.2,767.0,1157.7,1059.1,1163.8,815.2,1712.9,1386.6,3467.4,3477.1,1111.2,908.4,1596.4,3473.4,1480.1,1451.6,3477.1,3472.2,404.3,627.0,915.2,1113.9,603.6,2431.4,3477.1,3478.3,662.7,831.1,2007.4,1159.4,1063.4,1121.7,105.0,-128.0,44.0,9783.0,-8095.0,8646.0,-5695.0,-888.0,381.0,-998.0,22.0,-83.0,-105.0,8905.0,-12415.0,4807.0,-3448.0,-1187.0,309.0,-405.0,1.0
2022-05-13 12:37:01.878593-07:00,1168.2,767.0,1157.7,1059.1,1156.8,820.2,1710.0,1383.0,3467.4,3477.1,1111.2,908.4,1611.5,3464.9,1471.8,1461.7,3471.0,3477.1,404.3,624.6,915.2,1113.9,603.6,2431.4,3480.7,3472.2,659.5,834.4,2007.4,1159.4,1063.4,1121.7,-61.0,-201.0,-128.0,9423.0,-8313.0,8657.0,-5965.0,-102.0,535.0,-767.0,-38.0,-131.0,-82.0,8639.0,-12580.0,4822.0,-3504.0,-262.0,124.0,-163.0,1.0
2022-05-13 12:37:02.013242-07:00,1167.4,769.5,1166.5,1047.8,1156.8,820.2,1710.0,1383.0,3469.8,3464.9,1111.2,910.1,1611.5,3464.9,1471.8,1461.7,3471.0,3477.1,404.3,624.6,904.2,1117.4,605.2,2420.8,3480.7,3472.2,659.5,834.4,2001.5,1143.6,1057.3,1128.7,10.0,-106.0,-48.0,9269.0,-8414.0,8680.0,-6032.0,-305.0,54.0,-53.0,12.0,-42.0,-55.0,8513.0,-12652.0,4878.0,-3481.0,-240.0,15.0,98.0,1.0
2022-05-13 12:37:02.056907-07:00,1173.5,769.5,1166.5,1047.8,1161.2,804.4,1707.2,1377.5,3466.1,3464.9,1111.2,910.1,1598.3,3471.0,1474.6,1455.2,3471.0,3474.6,416.8,636.7,904.2,1117.4,605.2,2416.6,3477.1,3473.4,663.6,838.6,2001.5,1143.6,1057.3,1123.5,19.0,57.0,-10.0,9303.0,-8404.0,8687.0,-5982.0,203.0,-161.0,169.0,10.0,28.0,-5.0,8560.0,-12623.0,4885.0,-3459.0,287.0,-66.0,49.0,1.0
2022-05-13 12:37:02.058236-07:00,1173.5,772.8,1160.3,1049.6,1161.2,804.4,1707.2,1378.5,3466.1,3466.1,1112.1,909.3,1598.3,3471.0,1474.6,1457.1,3467.4,3474.6,416.8,636.7,902.5,1115.6,604.4,2416.6,3477.1,3473.4,663.6,838.6,1998.5,1154.2,1055.6,1123.5,17.0,45.0,-6.0,9424.0,-8365.0,8605.0,-5968.0,213.0,-297.0,-46.0,2.0,18.0,-10.0,8650.0,-12576.0,4837.0,-3471.0,181.0,-84.0,-65.0,1.0
2022-05-13 12:37:02.100698-07:00,1165.6,772.8,1160.3,1049.6,1141.9,817.7,1693.8,1378.5,3461.3,3466.1,1112.1,909.3,1596.4,3478.3,1480.1,1457.1,3467.4,3475.9,405.9,624.6,902.5,1115.6,604.4,2412.4,3477.1,3483.2,657.9,836.9,1998.5,1154.2,1055.6,1115.6,-15.0,-33.0,3.0,9505.0,-8394.0,8479.0,-5978.0,156.0,-253.0,-114.0,-16.0,-5.0,-4.0,8699.0,-12564.0,4777.0,-3478.0,149.0,-87.0,-87.0,1.0
2022-05-13 12:37:02.146334-07:00,1165.6,770.3,1148.9,1047.0,1141.9,817.7,1693.8,1373.9,3461.3,3472.2,1104.3,905.9,1596.4,3478.3,1480.1,1469.0,3472.2,3475.9,405.9,624.6,905.9,1110.4,603.6,2412.4,3468.6,3483.2,657.9,836.9,1993.5,1153.3,1053.9,1115.6,-11.0,-3.0,25.0,9602.0,-8379.0,8398.0,-5958.0,209.0,-250.0,115.0,-7.0,-15.0,17.0,8778.0,-12527.0,4722.0,-3487.0,282.0,-77.0,-28.0,1.0
2022-05-13 12:37:02.147680-07:00,1167.4,770.3,1148.9,1047.0,1148.9,813.5,1684.3,1373.9,3469.8,3472.2,1104.3,905.9,1600.2,3467.4,1473.6,1469.0,3472.2,3473.4,407.5,622.2,905.9,1110.4,603.6,2425.0,3468.6,3463.7,662.7,831.1,1993.5,1153.3,1053.9,1120.0,4.0,50.0,23.0,9729.0,-8325.0,8326.0,-5929.0,231.0,-210.0,96.0,-7.0,17.0,3.0,8883.0,-12467.0,4668.0,-3508.0,267.0,-64.0,-39.0,1.0
2022-05-13 12:37:02.191749-07:00,1167.4,759.6,1155.9,1046.1,1148.9,813.5,1700.5,1371.2,3469.8,3468.6,1108.6,913.5,1600.2,3467.4,1476.4,1453.4,3466.1,3477.1,407.5,622.2,911.0,1112.1,601.2,2425.0,3480.7,3473.4,662.7,831.1,2016.4,1152.4,1054.8,1120.0,-3.0,18.0,27.0,9782.0,-8326.0,8268.0,-5922.0,10.0,-115.0,-81.0,-5.0,3.0,8.0,8917.0,-12455.0,4633.0,-3512.0,-8.0,-46.0,-40.0,1.0
2022-05-13 12:37:02.281440-07:00,1156.8,761.2,1155.9,1046.1,1144.5,811.9,1700.5,1371.2,3462.5,3467.4,1108.6,913.5,1600.2,3471.0,1476.4,1453.4,3466.1,3477.1,407.5,624.6,911.0,1112.1,603.6,2411.3,3480.7,3473.4,654.6,833.6,2016.4,1152.4,1054.8,1111.2,-10.0,-9.0,18.0,9790.0,-8356.0,8226.0,-5925.0,42.0,-87.0,-57.0,-6.0,-6.0,11.0,8915.0,-12463.0,4617.0,-3508.0,35.0,-18.0,-27.0,1.0
2022-05-13 12:37:02.370718-07:00,1156.8,761.2,1149.8,1047.0,1144.5,811.9,1702.4,1384.8,3462.5,3467.4,1104.3,905.0,1600.2,3471.0,1474.6,1447.9,3474.6,3478.3,407.5,624.6,903.4,1118.2,603.6,2411.3,3464.9,3473.4,654.6,833.6,2005.5,1141.0,1054.8,1111.2,-8.0,2.0,10.0,9822.0,-8347.0,8194.0,-5929.0,80.0,-52.0,2.0,-7.0,-3.0,-2.0,8937.0,-12449.0,4605.0,-3519.0,66.0,-8.0,-12.0,1.0
2022-05-13 12:37:02.374235-07:00,1178.8,764.5,1149.8,1047.0,1133.1,811.9,1702.4,1384.8,3478.3,3473.4,1104.3,905.0,1592.7,3466.1,1474.6,1447.9,3474.6,3478.3,406.7,620.5,903.4,1118.2,602.0,2425.0,3464.9,3473.4,657.0,832.7,2005.5,1141.0,1058.2,1119.1,3.0,8.0,9.0,9847.0,-8339.0,8168.0,-5935.0,48.0,-52.0,-19.0,0.0,0.0,0.0,8954.0,-12437.0,4597.0,-3528.0,44.0,-2.0,-8.0,1.0
2022-05-13 12:37:02.415503-07:00,1178.8,764.5,1154.2,1050.4,1133.1,811.9,1696.7,1367.6,3478.3,3473.4,1102.5,907.6,1592.7,3466.1,1477.3,1447.0,3467.4,3474.6,406.7,620.5,901.7,1109.5,602.0,2425.0,3473.4,3477.1,657.0,832.7,2004.5,1149.8,1058.2,1119.1,3.0,0.0,7.0,9862.0,-8342.0,8142.0,-5943.0,59.0,-34.0,-30.0,1.0,0.0,-3.0,8962.0,-12433.0,4590.0,-3532.0,42.0,-14.0,-16.0,1.0
2022-05-13 12:37:02.506896-07:00,1174.4,761.2,1150.6,1050.4,1128.7,798.5,1696.7,1367.6,3463.7,3464.9,1106.9,907.6,1597.4,3467.4,1477.3,1447.0,3467.4,3474.6,405.9,624.6,901.7,1119.1,608.4,2416.6,3473.4,3477.1,660.3,832.7,2004.5,1152.4,1058.2,1117.4,-5.0,-2.0,5.0,9883.0,-8334.0,8119.0,-5949.0,35.0,-51.0,-2.0,-3.0,-4.0,-1.0,8976.0,-12426.0,4578.0,-3536.0,33.0,-11.0,-13.0,1.0
2022-05-13 12:37:02.508687-07:00,1174.4,761.2,1150.6,1052.2,1128.7,807.7,1685.3,1374.8,3463.7,3464.9,1106.9,906.7,1597.4,3475.9,1478.3,1453.4,3478.3,3473.4,406.7,624.6,905.0,1119.1,608.4,2416.6,3478.3,3473.4,657.0,832.7,2007.4,1152.4,1058.2,1117.4,0.0,8.0,4.0,9906.0,-8326.0,8104.0,-5942.0,67.0,-38.0,36.0,-6.0,-3.0,2.0,8990.0,-12418.0,4570.0,-3539.0,66.0,-7.0,-6.0,1.0
2022-05-13 12:37:02.549626-07:00,1163.8,767.0,1153.3,1052.2,1140.1,807.7,1685.3,1374.8,3474.6,3474.6,1104.3,906.7,1599.3,3475.9,1478.3,1453.4,3478.3,3473.4,406.7,620.5,905.0,1112.1,603.6,2415.5,3478.3,3473.4,657.0,829.4,2007.4,1160.3,1053.9,1113.9,6.0,7.0,5.0,9938.0,-8305.0,8087.0,-5940.0,77.0,-52.0,20.0,-5.0,1.0,-2.0,9017.0,-12399.0,4559.0,-3550.0,86.0,-12.0,-12.0,1.0
2022-05-13 12:37:02.596189-07:00,1163.8,767.0,1153.3,1043.5,1140.1,801.9,1700.5,1370.3,3474.6,3474.6,1104.3,907.6,1599.3,3468.6,1470.9,1453.4,3478.3,3467.4,409.0,620.5,905.9,1112.1,603.6,2415.5,3484.4,3469.8,657.0,829.4,1997.5,1160.3,1053.9,1113.9,-6.0,7.0,6.0,9961.0,-8286.0,8073.0,-5948.0,73.0,-11.0,7.0,0.0,-3.0,4.0,9041.0,-12386.0,4544.0,-3555.0,44.0,-14.0,-10.0,1.0
2022-05-13 12:37:02.730998-07:00,1168.2,758.7,1148.0,1043.5,1144.5,801.9,1700.5,1370.3,3467.4,3468.6,1112.1,907.6,1591.7,3468.6,1470.9,1453.4,3478.3,3467.4,409.0,624.6,905.9,1115.6,603.6,2420.8,3484.4,3469.8,657.0,831.9,1997.5,1142.7,1056.5,1112.1,8.0,8.0,5.0,9982.0,-8280.0,8054.0,-5949.0,39.0,-44.0,2.0,-2.0,5.0,-8.0,9056.0,-12376.0,4535.0,-3563.0,43.0,-10.0,-10.0,1.0
2022-05-13 12:37:02.733309-07:00,1168.2,758.7,1148.0,1034.0,1144.5,806.9,1680.5,1371.2,3467.4,3468.6,1112.1,901.7,1591.7,3473.4,1466.3,1452.5,3467.4,3480.7,412.9,624.6,901.7,1115.6,603.6,2420.8,3472.2,3472.2,651.4,831.9,1998.5,1142.7,1056.5,1112.1,-5.0,0.0,10.0,9987.0,-8280.0,8048.0,-5948.0,4.0,-9.0,-4.0,-5.0,-6.0,0.0,9062.0,-12374.0,4531.0,-3561.0,-5.0,-12.0,-1.0,1.0
2022-05-13 12:37:02.776217-07:00,1168.2,763.7,1153.3,1050.4,1133.1,806.9,1680.5,1371.2,3472.2,3471.0,1108.6,905.9,1598.3,3473.4,1466.3,1452.5,3467.4,3480.7,412.9,617.3,903.4,1113.0,605.2,2436.7,3472.2,3472.2,651.4,826.9,1998.5,1149.8,1048.7,1106.9,-5.0,11.0,5.0,9998.0,-8276.0,8037.0,-5948.0,30.0,-45.0,0.0,-2.0,0.0,4.0,9068.0,-12371.0,4526.0,-3558.0,27.0,-9.0,-3.0,1.0
2022-05-13 12:37:02.820503-07:00,1168.2,763.7,1153.3,1050.4,1124.4,806.0,1691.9,1377.5,3472.2,3471.0,1108.6,905.9,1589.9,3472.2,1469.0,1454.3,3477.1,3478.3,405.9,619.7,903.4,1113.0,605.2,2436.7,3472.2,3481.9,653.0,832.7,1998.5,1149.8,1048.7,1106.9,0.0,0.0,11.0,10014.0,-8271.0,8022.0,-5948.0,35.0,-17.0,2.0,-4.0,0.0,-2.0,9078.0,-12365.0,4523.0,-3561.0,20.0,-3.0,-5.0,1.0
2022-05-13 12:37:02.865409-07:00,1167.4,759.6,1146.3,1039.2,1124.4,806.0,1691.9,1377.5,3475.9,3478.3,1099.9,903.4,1589.9,3472.2,1469.0,1454.3,3477.1,3478.3,405.9,619.7,902.5,1110.4,602.8,2414.5,3472.2,3481.9,653.0,832.7,1993.5,1148.9,1048.7,1110.4,2.0,2.0,8.0,10020.0,-8266.0,8023.0,-5945.0,1.0,-10.0,17.0,0.0,-1.0,0.0,9080.0,-12363.0,4523.0,-3562.0,14.0,-2.0,4.0,1.0
2022-05-13 12:37:02.912539-07:00,1167.4,759.6,1146.3,1039.2,1130.5,806.0,1686.2,1363.0,3475.9,3478.3,1099.9,903.4,1600.2,3471.0,1471.8,1451.6,3473.4,3467.4,405.9,619.7,902.5,1110.4,602.8,2414.5,3477.1,3472.2,660.3,829.4,1993.5,1148.9,1048.7,1110.4,-1.0,11.0,2.0,10027.0,-8257.0,8019.0,-5950.0,35.0,-8.0,-11.0,-3.0,-1.0,-2.0,9086.0,-12359.0,4521.0,-3564.0,22.0,5.0,0.0,1.0
2022-05-13 12:37:03.000444-07:00,1164.7,762.9,1141.9,1045.2,1130.5,806.0,1686.2,1363.0,3468.6,3467.4,1101.7,904.2,1600.2,3471.0,1471.8,1451.6,3473.4,3467.4,405.9,619.7,905.0,1113.9,603.6,2420.8,3477.1,3472.2,660.3,829.4,1996.5,1141.9,1051.3,1112.1,-1.0,6.0,0.0,10033.0,-8251.0,8009.0,-5961.0,29.0,-15.0,-16.0,-2.0,0.0,-1.0,9092.0,-12354.0,4520.0,-3566.0,10.0,1.0,-4.0,1.0
2022-05-13 12:37:03.091853-07:00,1167.4,762.9,1141.9,1045.2,1129.6,801.0,1693.8,1364.8,3466.1,3467.4,1101.7,904.2,1596.4,3468.6,1465.4,1455.2,3474.6,3474.6,403.5,621.4,905.0,1113.9,603.6,2414.5,3478.3,3474.6,653.8,831.1,1996.5,1141.9,1051.3,1108.6,-6.0,0.0,0.0,10037.0,-8256.0,8004.0,-5956.0,-22.0,-30.0,12.0,-1.0,-5.0,0.0,9093.0,-12354.0,4519.0,-3566.0,-9.0,4.0,-6.0,1.0
2022-05-13 12:37:03.093625-07:00,1167.4,765.3,1149.8,1042.6,1129.6,801.0,1693.8,1367.6,3466.1,3467.4,1106.9,909.3,1596.4,3468.6,1465.4,1450.6,3473.4,3474.6,403.5,621.4,904.2,1113.9,602.0,2414.5,3475.9,3474.6,653.8,831.1,2007.4,1148.9,1050.4,1108.6,2.0,0.0,4.0,10044.0,-8251.0,8006.0,-5947.0,15.0,1.0,29.0,-1.0,-1.0,2.0,9094.0,-12353.0,4519.0,-3566.0,7.0,-4.0,5.0,1.0
2022-05-13 12:37:03.094789-07:00,1171.8,765.3,1149.8,1042.6,1127.9,805.2,1682.4,1367.6,3477.1,3467.4,1106.9,909.3,1593.6,3473.4,1470.0,1450.6,3473.4,3471.0,409.8,624.6,904.2,1113.9,602.0,2426.1,3475.9,3473.4,651.4,832.7,2007.4,1148.9,1050.4,1103.4,0.0,12.0,6.0,10051.0,-8246.0,8002.0,-5949.0,22.0,-20.0,-16.0,-1.0,3.0,0.0,9100.0,-12349.0,4516.0,-3567.0,22.0,-4.0,-2.0,1.0
2022-05-13 12:37:03.181884-07:00,1171.8,767.0,1152.4,1041.8,1127.9,805.2,1682.4,1361.2,3477.1,3473.4,1104.3,907.6,1593.6,3473.4,1470.0,1451.6,3471.0,3471.0,409.8,624.6,900.8,1114.7,601.2,2426.1,3479.5,3473.4,651.4,832.7,1985.6,1144.5,1047.0,1103.4,-7.0,-14.0,0.0,10060.0,-8236.0,7995.0,-5958.0,60.0,-6.0,34.0,-3.0,-12.0,0.0,9105.0,-12347.0,4514.0,-3566.0,17.0,-12.0,-7.0,1.0
2022-05-13 12:37:03.271326-07:00,1163.8,767.0,1152.4,1041.8,1133.1,801.9,1691.9,1361.2,3467.4,3473.4,1104.3,907.6,1601.1,3472.2,1476.4,1451.6,3471.0,3479.5,408.2,620.5,900.8,1114.7,601.2,2400.8,3479.5,3479.5,654.6,835.2,1985.6,1144.5,1047.0,1108.6,12.0,-141.0,-14.0,10199.0,-8080.0,7976.0,-5960.0,754.0,-83.0,515.0,0.0,-80.0,-20.0,9204.0,-12273.0,4491.0,-3596.0,596.0,8.0,51.0,1.0
2022-05-13 12:37:03.274310-07:00,1163.8,762.9,1155.0,1034.9,1133.1,801.9,1691.9,1363.0,3467.4,3472.2,1113.0,911.8,1601.1,3472.2,1476.4,1447.9,3472.2,3479.5,408.2,620.5,912.7,1116.5,597.9,2400.8,3480.7,3479.5,654.6,835.2,2000.5,1146.3,1051.3,1108.6,-146.0,-286.0,-112.0,10852.0,-7333.0,7834.0,-5961.0,2725.0,-542.0,1634.0,-102.0,-222.0,-60.0,9756.0,-11825.0,4370.0,-3786.0,2636.0,68.0,179.0,1.0
2022-05-13 12:37:03.406818-07:00,1167.4,767.0,1155.0,1034.9,1129.6,801.9,1683.3,1363.0,3464.9,3480.7,1113.0,911.8,1597.4,3478.3,1470.0,1447.9,3472.2,3477.1,402.8,617.3,912.7,1116.5,606.0,2417.6,3480.7,3471.0,655.4,831.9,2000.5,1146.3,1059.1,1103.4,-57.0,-78.0,-190.0,11760.0,-6325.0,7399.0,-5949.0,2543.0,-992.0,1182.0,-51.0,-149.0,-171.0,10654.0,-11030.0,4172.0,-3982.0,2605.0,-212.0,466.0,1.0
2022-05-13 12:37:03.408270-07:00,1167.4,767.0,1223.9,1077.3,1129.6,801.9,1687.2,1368.5,3464.9,3480.7,1106.0,909.3,1597.4,3478.3,1480.1,1452.5,3473.4,3478.3,402.8,617.3,900.0,1116.5,606.0,2417.6,3471.0,3469.8,655.4,831.9,1994.5,1146.3,1059.1,1103.4,6.0,36.0,-119.0,12397.0,-5686.0,6897.0,-5904.0,1820.0,-1031.0,650.0,-39.0,-28.0,-49.0,11226.0,-10540.0,4013.0,-3902.0,1255.0,-501.0,562.0,1.0
2022-05-13 12:37:03.410882-07:00,1167.4,765.3,1223.9,1077.3,1120.0,811.0,1687.2,1368.5,3468.6,3472.2,1106.0,909.3,1598.3,3467.4,1480.1,1452.5,3473.4,3478.3,405.1,624.6,900.0,1116.5,602.8,2412.4,3471.0,3469.8,667.6,832.7,1994.5,1146.3,1047.8,1103.4,10.0,247.0,-100.0,12889.0,-5197.0,6232.0,-6040.0,1926.0,-1170.0,-206.0,-114.0,158.0,25.0,11632.0,-10207.0,3886.0,-3720.0,1010.0,-449.0,380.0,1.0
2022-05-13 12:37:03.450757-07:00,1167.4,765.3,1233.7,1077.3,1120.0,811.0,1680.5,1363.9,3468.6,3472.2,1104.3,903.4,1598.3,3467.4,1478.3,1453.4,3467.4,3484.4,405.1,624.6,905.9,1114.7,602.8,2412.4,3467.4,3477.1,667.6,832.7,2004.5,1154.2,1047.8,1103.4,21.0,204.0,-77.0,13200.0,-4891.0,5593.0,-6244.0,1240.0,-875.0,-281.0,-6.0,167.0,37.0,11883.0,-9994.0,3756.0,-3639.0,594.0,-315.0,40.0,1.0
2022-05-13 12:37:03.495923-07:00,1172.6,767.8,1233.7,1077.3,1118.2,803.5,1680.5,1363.9,3467.4,3463.7,1104.3,903.4,1604.9,3484.4,1478.3,1453.4,3467.4,3484.4,405.1,630.3,905.9,1114.7,606.8,2418.7,3467.4,3477.1,667.6,838.6,2004.5,1154.2,1049.6,1106.9,53.0,75.0,-46.0,13380.0,-4735.0,5151.0,-6360.0,818.0,-738.0,-298.0,60.0,40.0,17.0,12018.0,-9882.0,3616.0,-3643.0,433.0,-220.0,-124.0,1.0
2022-05-13 12:37:03.752701-07:00,1172.6,767.8,1217.7,1067.7,1118.2,808.5,1690.0,1355.8,3467.4,3463.7,1105.1,910.1,1604.9,3467.4,1470.9,1458.0,3478.3,3474.6,405.1,630.3,904.2,1112.1,606.8,2418.7,3477.1,3478.3,677.4,838.6,1998.5,1144.5,1049.6,1106.9,100.0,-53.0,68.0,13496.0,-4691.0,4789.0,-6432.0,312.0,-498.0,-90.0,72.0,42.0,-17.0,12107.0,-9811.0,3498.0,-3655.0,228.0,-180.0,-56.0,1.0
2022-05-13 12:37:03.753985-07:00,1163.8,778.6,1215.1,1067.7,1115.6,808.5,1690.0,1355.8,3480.7,3478.3,1106.9,910.1,1598.3,3467.4,1470.9,1458.0,3478.3,3474.6,405.1,626.2,904.2,1117.4,605.2,2403.9,3477.1,3478.3,677.4,831.1,1998.5,1147.1,1047.0,1106.9,42.0,-23.0,22.0,13547.0,-4592.0,4716.0,-6449.0,343.0,113.0,48.0,57.0,-2.0,31.0,12175.0,-9760.0,3425.0,-3637.0,243.0,-137.0,9.0,1.0
2022-05-13 12:37:03.755130-07:00,1163.8,778.6,1215.1,1059.1,1115.6,808.5,1693.8,1354.0,3480.7,3478.3,1106.9,907.6,1598.3,3478.3,1465.4,1452.5,3469.8,3472.2,400.4,626.2,896.6,1117.4,605.2,2403.9,3478.3,3469.8,688.9,831.1,1992.5,1147.1,1047.0,1106.9,42.0,50.0,-33.0,13595.0,-4420.0,4666.0,-6504.0,452.0,32.0,3.0,48.0,52.0,22.0,12270.0,-9665.0,3361.0,-3630.0,297.0,-100.0,5.0,1.0
2022-05-13 12:37:03.756239-07:00,1166.5,760.4,1276.5,1059.1,1119.1,808.5,1693.8,1354.0,3477.1,3474.6,1110.4,907.6,1599.3,3478.3,1465.4,1452.5,3469.8,3472.2,400.4,630.3,896.6,1111.2,604.4,2420.8,3478.3,3469.8,688.9,836.1,1992.5,1147.1,1059.9,1101.7,28.0,57.0,-19.0,13631.0,-4293.0,4604.0,-6558.0,283.0,28.0,-51.0,31.0,63.0,20.0,12322.0,-9616.0,3298.0,-3640.0,102.0,-77.0,-75.0,1.0
2022-05-13 12:37:03.772056-07:00,1166.5,760.4,1276.5,1101.7,1119.1,797.7,1722.4,1368.5,3477.1,3474.6,1110.4,905.9,1599.3,3461.3,1474.6,1458.0,3473.4,3468.6,396.5,630.3,901.7,1111.2,604.4,2420.8,3477.1,3474.6,677.4,836.1,1993.5,1147.1,1059.9,1101.7,0.0,12.0,-27.0,13627.0,-4222.0,4590.0,-6620.0,86.0,66.0,-80.0,17.0,9.0,28.0,12317.0,-9623.0,3253.0,-3678.0,-85.0,3.0,-129.0,1.0
2022-05-13 12:37:03.879118-07:00,1165.6,766.2,1301.6,1114.7,1113.9,797.7,1722.4,1368.5,3474.6,3469.8,1104.3,905.0,1595.5,3461.3,1474.6,1458.0,3473.4,3468.6,396.5,627.0,900.8,1106.9,606.8,2418.7,3477.1,3474.6,677.4,828.5,1994.5,1141.0,1049.6,1107.8,10.0,-85.0,-9.0,13561.0,-4315.0,4679.0,-6635.0,-368.0,166.0,-87.0,5.0,-44.0,4.0,12224.0,-9735.0,3268.0,-3683.0,-285.0,2.0,-73.0,1.0
2022-05-13 12:37:03.884922-07:00,1165.6,766.2,1301.6,1114.7,1168.2,801.0,1710.0,1380.3,3474.6,3469.8,1104.3,905.0,1595.5,3468.6,1470.9,1453.4,3471.0,3471.0,405.1,620.5,900.8,1106.9,606.8,2418.7,3478.3,3478.3,677.4,827.7,1994.5,1141.0,1049.6,1107.8,-27.0,-83.0,-13.0,13520.0,-4348.0,4781.0,-6624.0,-88.0,192.0,112.0,-21.0,-40.0,6.0,12193.0,-9772.0,3267.0,-3687.0,6.0,-6.0,-22.0,1.0
2022-05-13 12:37:03.902979-07:00,1164.7,765.3,1291.8,1107.8,1168.2,801.0,1710.0,1380.3,3471.0,3472.2,1108.6,902.5,1595.5,3468.6,1470.9,1453.4,3471.0,3471.0,405.1,620.5,903.4,1111.2,603.6,2422.9,3478.3,3478.3,677.4,827.7,2002.5,1148.9,1041.8,1124.4,-31.0,-31.0,-27.0,13517.0,-4324.0,4852.0,-6595.0,9.0,73.0,70.0,-10.0,-31.0,15.0,12207.0,-9760.0,3255.0,-3684.0,50.0,-31.0,3.0,1.0
2022-05-13 12:37:04.036875-07:00,1164.7,765.3,1291.8,1107.8,1251.5,796.9,1706.2,1390.3,3471.0,3472.2,1108.6,902.5,1593.6,3466.1,1478.3,1442.4,3475.9,3472.2,401.2,626.2,903.4,1111.2,603.6,2422.9,3480.7,3483.2,676.6,828.5,2002.5,1148.9,1041.8,1124.4,-9.0,-44.0,11.0,13512.0,-4303.0,4887.0,-6593.0,38.0,176.0,67.0,-8.0,0.0,10.0,12214.0,-9758.0,3245.0,-3673.0,13.0,-32.0,22.0,1.0
