Time,P0,P1,P2,P3,P4,P5,P6,P7,P8,P9,P10,P11,P12,P13,P14,P15,P16,P17,P18,P19,P20,P21,P22,P23,P24,P25,P26,P27,P28,P29,P30,P31,ECG,AX0,AY0,AZ0,QW0,QX0,QY0,QZ0,GX0,GY0,GZ0,AX1,AY1,AZ1,QW1,QX1,QY1,QZ1,GX1,GY1,GZ1
2022-05-13 12:14:29.564012-07:00,1249.7,760.4,1217.7,1021.9,925.4,825.2,1655.8,1277.4,3475.9,3474.6,1077.3,866.3,1750.2,3475.9,1318.7,1250.6,3471.0,3478.3,391.8,629.5,937.3,1151.5,561.8,2416.6,3479.5,3488.0,645.7,871.3,1956.8,1018.5,987.6,973.1,12.0,0.0,0.0,10125.0,-9158.0,7897.0,-4437.0,-24.0,-17.0,15.0,-7.0,6.0,1.0,8489.0,-13684.0,-2426.0,1795.0,-10.0,-2.0,-1.0,1.0
2022-05-13 12:14:29.566342-07:00,1246.2,760.4,1217.7,1021.9,929.6,818.5,1652.0,1301.6,3471.0,3474.6,1077.3,866.3,1755.0,3471.0,1321.4,1256.9,3475.9,3477.1,395.0,635.9,937.3,1151.5,561.8,2418.7,3477.1,3480.7,640.8,872.1,1956.8,1018.5,987.6,978.2,14.0,-2.0,0.0,10120.0,-9164.0,7907.0,-4419.0,-53.0,-6.0,37.0,-6.0,-1.0,-1.0,8481.0,-13689.0,-2427.0,1794.0,-30.0,-4.0,2.0,1.0
2022-05-13 12:14:29.743736-07:00,1246.2,762.0,1200.9,1012.5,929.6,818.5,1652.0,1294.5,3471.0,3467.4,1076.4,866.3,1755.0,3471.0,1321.4,1254.2,3477.1,3477.1,395.0,635.9,939.0,1152.4,564.2,2418.7,3477.1,3480.7,640.8,872.1,1971.7,1021.1,982.5,978.2,14.0,0.0,2.0,10112.0,-9170.0,7922.0,-4397.0,-54.0,-6.0,36.0,-4.0,5.0,-1.0,8469.0,-13697.0,-2429.0,1791.0,-36.0,2.0,4.0,1.0
2022-05-13 12:14:29.745678-07:00,1247.1,762.0,1200.9,1012.5,927.9,825.2,1641.6,1294.5,3473.4,3467.4,1076.4,866.3,1753.1,3467.4,1320.5,1254.2,3477.1,3475.9,389.5,628.6,939.0,1152.4,564.2,2424.0,3477.1,3488.0,639.2,873.0,1971.7,1021.1,982.5,966.2,14.0,-5.0,1.0,10101.0,-9179.0,7940.0,-4369.0,-73.0,-3.0,63.0,-9.0,1.0,-2.0,8454.0,-13706.0,-2431.0,1789.0,-45.0,-6.0,6.0,1.0
2022-05-13 12:14:29.746824-07:00,1247.1,757.1,1210.6,1028.0,927.9,825.2,1641.6,1290.0,3473.4,3473.4,1078.2,862.9,1753.1,3467.4,1320.5,1256.9,3475.9,3475.9,389.5,628.6,932.2,1149.8,566.6,2424.0,3468.6,3488.0,639.2,873.0,1968.7,1019.4,984.2,966.2,11.0,-2.0,6.0,10095.0,-9186.0,7961.0,-4330.0,-59.0,-34.0,65.0,-10.0,0.0,1.0,8440.0,-13715.0,-2430.0,1788.0,-28.0,-6.0,11.0,1.0
2022-05-13 12:14:29.747805-07:00,1253.3,757.1,1210.6,1028.0,924.5,818.5,1653.9,1290.0,3461.3,3473.4,1078.2,862.9,1750.2,3472.2,1311.5,1256.9,3475.9,3478.3,391.1,627.0,932.2,1149.8,566.6,2426.1,3468.6,3477.1,640.0,868.8,1968.7,1019.4,984.2,973.1,15.0,7.0,6.0,10101.0,-9188.0,7963.0,-4313.0,9.0,-15.0,1.0,-11.0,3.0,0.0,8441.0,-13714.0,-2430.0,1789.0,12.0,-7.0,-7.0,1.0
2022-05-13 12:14:29.787283-07:00,1253.3,756.3,1210.6,1024.5,924.5,818.5,1646.4,1294.5,3461.3,3472.2,1076.4,873.0,1750.2,3472.2,1325.0,1249.7,3479.5,3478.3,391.1,627.0,934.7,1154.2,566.6,2426.1,3474.6,3480.7,640.0,868.8,1967.7,1018.5,978.2,973.1,11.0,-6.0,5.0,10103.0,-9189.0,7955.0,-4317.0,13.0,-15.0,-14.0,-10.0,0.0,2.0,8444.0,-13712.0,-2434.0,1789.0,23.0,-6.0,-11.0,1.0
2022-05-13 12:14:29.832569-07:00,1244.4,762.0,1210.6,1024.5,920.3,826.9,1646.4,1294.5,3457.6,3469.8,1076.4,873.0,1760.8,3462.5,1325.0,1249.7,3479.5,3478.3,391.8,634.3,934.7,1154.2,563.4,2414.5,3474.6,3480.7,639.2,872.1,1967.7,1018.5,980.7,968.8,10.0,1.0,3.0,10106.0,-9187.0,7954.0,-4318.0,-7.0,-17.0,0.0,-8.0,2.0,0.0,8446.0,-13710.0,-2434.0,1790.0,-2.0,-11.0,-1.0,1.0
2022-05-13 12:14:29.879373-07:00,1244.4,762.0,1210.6,1019.4,920.3,826.9,1648.3,1294.5,3457.6,3469.8,1072.9,867.1,1760.8,3462.5,1316.0,1258.7,3472.2,3479.5,391.8,634.3,941.5,1152.4,563.4,2414.5,3478.3,3467.4,639.2,872.1,1962.8,1026.3,980.7,968.8,10.0,-3.0,3.0,10111.0,-9189.0,7946.0,-4317.0,19.0,-17.0,-9.0,-10.0,1.0,0.0,8450.0,-13708.0,-2436.0,1789.0,16.0,-3.0,-12.0,1.0
2022-05-13 12:14:29.969664-07:00,1244.4,753.8,1210.6,1019.4,925.4,821.0,1648.3,1294.5,3471.0,3466.1,1072.9,867.1,1757.0,3462.5,1316.0,1258.7,3472.2,3479.5,394.2,632.7,941.5,1152.4,564.2,2419.8,3478.3,3467.4,643.2,877.2,1962.8,1026.3,980.7,971.3,17.0,-3.0,8.0,10113.0,-9190.0,7943.0,-4315.0,1.0,-14.0,-4.0,-9.0,1.0,4.0,8451.0,-13707.0,-2437.0,1790.0,3.0,-12.0,-5.0,1.0
2022-05-13 12:14:30.057502-07:00,1244.4,753.8,1205.3,1020.2,925.4,821.0,1644.5,1277.4,3471.0,3466.1,1067.7,871.3,1757.0,3462.5,1313.3,1256.9,3471.0,3471.0,394.2,632.7,940.7,1154.2,564.2,2419.8,3478.3,3472.2,643.2,877.2,1967.7,1015.9,980.7,971.3,14.0,1.0,8.0,10119.0,-9189.0,7936.0,-4318.0,12.0,-6.0,-19.0,-10.0,4.0,-1.0,8455.0,-13704.0,-2437.0,1791.0,14.0,-6.0,-7.0,1.0
2022-05-13 12:14:30.237576-07:00,1250.6,765.3,1205.3,1020.2,931.3,820.2,1644.5,1277.4,3467.4,3468.6,1067.7,871.3,1751.2,3478.3,1313.3,1256.9,3471.0,3471.0,393.4,637.6,940.7,1154.2,562.6,2414.5,3478.3,3472.2,642.4,879.7,1967.7,1015.9,979.9,975.6,17.0,-3.0,8.0,10120.0,-9188.0,7929.0,-4329.0,39.0,12.0,-23.0,-8.0,6.0,0.0,8457.0,-13702.0,-2437.0,1792.0,18.0,-6.0,-8.0,1.0
2022-05-13 12:14:30.239727-07:00,1250.6,765.3,1196.5,1022.8,931.3,822.7,1644.5,1286.4,3467.4,3468.6,1071.2,871.3,1751.2,3468.6,1313.3,1258.7,3474.6,3471.0,394.2,637.6,940.7,1149.8,562.6,2414.5,3480.7,3477.1,643.2,879.7,1967.7,1037.5,979.9,975.6,11.0,-5.0,3.0,10123.0,-9186.0,7921.0,-4340.0,10.0,6.0,-16.0,-8.0,2.0,1.0,8461.0,-13700.0,-2437.0,1793.0,4.0,-6.0,-4.0,1.0
2022-05-13 12:14:30.241544-07:00,1244.4,754.6,1202.7,1022.8,913.5,822.7,1644.5,1286.4,3471.0,3477.1,1071.2,871.3,1749.3,3468.6,1313.3,1258.7,3474.6,3471.0,394.2,631.9,940.7,1151.5,559.4,2408.1,3480.7,3477.1,643.2,877.2,1967.7,1020.2,995.3,979.0,14.0,-2.0,3.0,10123.0,-9185.0,7922.0,-4341.0,3.0,-3.0,-3.0,-7.0,2.0,-3.0,8461.0,-13700.0,-2437.0,1793.0,8.0,-2.0,-1.0,1.0
2022-05-13 12:14:30.242645-07:00,1244.4,754.6,1202.7,1025.4,913.5,821.9,1660.6,1287.3,3471.0,3477.1,1071.2,867.9,1749.3,3471.0,1316.9,1256.0,3474.6,3472.2,395.0,631.9,942.4,1151.5,559.4,2408.1,3479.5,3480.7,648.1,877.2,1965.7,1020.2,995.3,979.0,16.0,0.0,4.0,10124.0,-9182.0,7921.0,-4344.0,16.0,2.0,-3.0,-7.0,3.0,2.0,8463.0,-13699.0,-2437.0,1793.0,14.0,-1.0,-6.0,1.0
2022-05-13 12:14:30.283668-07:00,1248.0,752.1,1200.0,1025.4,922.8,821.9,1660.6,1287.3,3474.6,3464.9,1072.1,867.9,1753.1,3471.0,1316.9,1256.0,3474.6,3472.2,395.0,627.0,942.4,1148.9,563.4,2413.4,3479.5,3480.7,648.1,875.5,1965.7,1011.6,983.3,962.8,15.0,0.0,3.0,10126.0,-9181.0,7921.0,-4345.0,-6.0,-4.0,-5.0,-9.0,2.0,0.0,8463.0,-13699.0,-2437.0,1793.0,-3.0,-9.0,-4.0,1.0
2022-05-13 12:14:30.284730-07:00,1248.0,752.1,1200.0,1021.9,922.8,829.4,1644.5,1285.5,3474.6,3464.9,1072.1,873.8,1753.1,3469.8,1317.8,1260.4,3467.4,3478.3,392.6,627.0,944.1,1148.9,563.4,2413.4,3485.6,3472.2,640.8,875.5,1962.8,1011.6,983.3,962.8,11.0,0.0,3.0,10128.0,-9179.0,7919.0,-4346.0,14.0,-15.0,-5.0,-10.0,0.0,2.0,8467.0,-13696.0,-2437.0,1794.0,20.0,-3.0,-7.0,1.0
2022-05-13 12:14:30.419281-07:00,1247.1,765.3,1207.1,1018.5,922.0,829.4,1644.5,1285.5,3473.4,3466.1,1069.5,873.0,1754.1,3469.8,1317.8,1260.4,3467.4,3478.3,392.6,633.5,930.5,1152.4,563.4,2411.3,3485.6,3472.2,640.8,871.3,1958.8,1022.8,964.5,973.1,16.0,-7.0,7.0,10129.0,-9180.0,7917.0,-4345.0,4.0,1.0,-3.0,-11.0,1.0,0.0,8469.0,-13695.0,-2437.0,1794.0,6.0,-7.0,-6.0,1.0
2022-05-13 12:14:30.420372-07:00,1247.1,765.3,1207.1,1018.5,929.6,817.7,1650.2,1289.1,3473.4,3466.1,1069.5,873.0,1743.5,3462.5,1316.0,1254.2,3466.1,3488.0,393.4,636.7,930.5,1152.4,563.4,2411.3,3472.2,3472.2,644.0,873.0,1958.8,1022.8,964.5,973.1,12.0,1.0,3.0,10132.0,-9177.0,7916.0,-4348.0,0.0,-8.0,-2.0,-9.0,2.0,4.0,8471.0,-13694.0,-2436.0,1794.0,-3.0,-3.0,-5.0,1.0
2022-05-13 12:14:30.421710-07:00,1238.2,758.7,1202.7,1016.8,929.6,817.7,1650.2,1289.1,3467.4,3473.4,1069.5,872.1,1743.5,3462.5,1316.0,1254.2,3466.1,3488.0,393.4,636.7,938.1,1152.4,558.6,2408.1,3472.2,3472.2,644.0,873.0,1967.7,1035.7,979.9,965.4,13.0,-2.0,5.0,10131.0,-9178.0,7916.0,-4347.0,8.0,-9.0,-5.0,-8.0,0.0,5.0,8470.0,-13695.0,-2436.0,1794.0,6.0,-3.0,-3.0,1.0
2022-05-13 12:14:30.510006-07:00,1238.2,758.7,1202.7,1016.8,930.5,823.5,1657.7,1287.3,3467.4,3473.4,1069.5,872.1,1745.4,3469.8,1321.4,1255.1,3474.6,3478.3,393.4,627.8,938.1,1152.4,558.6,2408.1,3478.3,3472.2,642.4,870.5,1967.7,1035.7,979.9,965.4,15.0,-6.0,3.0,10132.0,-9177.0,7916.0,-4348.0,-7.0,3.0,-2.0,-9.0,0.0,-4.0,8471.0,-13694.0,-2436.0,1794.0,-19.0,-3.0,-2.0,1.0
2022-05-13 12:14:30.554054-07:00,1247.1,748.0,1205.3,1023.7,930.5,823.5,1657.7,1287.3,3466.1,3467.4,1075.6,870.5,1745.4,3469.8,1321.4,1255.1,3474.6,3478.3,393.4,627.8,940.7,1156.8,566.6,2408.1,3478.3,3472.2,642.4,870.5,1968.7,1016.8,984.2,975.6,17.0,-3.0,5.0,10131.0,-9178.0,7916.0,-4347.0,11.0,-2.0,-4.0,-8.0,1.0,0.0,8470.0,-13694.0,-2436.0,1794.0,15.0,-3.0,-4.0,1.0
2022-05-13 12:14:30.642652-07:00,1245.3,748.0,1205.3,1023.7,924.5,821.0,1649.2,1283.7,3466.1,3467.4,1075.6,870.5,1748.3,3467.4,1316.9,1251.5,3477.1,3467.4,395.7,627.0,940.7,1156.8,566.6,2408.1,3462.5,3479.5,640.0,874.7,1968.7,1016.8,984.2,976.5,13.0,-5.0,0.0,10134.0,-9176.0,7912.0,-4353.0,13.0,-3.0,-11.0,-9.0,0.0,1.0,8473.0,-13693.0,-2437.0,1794.0,8.0,-2.0,-8.0,1.0
2022-05-13 12:14:30.644442-07:00,1245.3,762.0,1190.3,1027.1,924.5,821.0,1649.2,1289.1,3466.1,3472.2,1070.3,869.6,1748.3,3467.4,1316.9,1257.8,3474.6,3467.4,395.7,627.0,937.3,1155.0,557.8,2408.1,3475.9,3479.5,640.0,874.7,1971.7,1017.6,977.3,976.5,16.0,-4.0,1.0,10134.0,-9177.0,7911.0,-4353.0,-7.0,-4.0,7.0,-10.0,1.0,-2.0,8473.0,-13692.0,-2437.0,1795.0,-6.0,-5.0,-3.0,1.0
2022-05-13 12:14:30.778623-07:00,1250.6,762.0,1190.3,1027.1,922.0,826.9,1641.6,1289.1,3471.0,3472.2,1070.3,869.6,1745.4,3463.7,1313.3,1257.8,3474.6,3467.4,395.0,627.0,937.3,1155.0,557.8,2398.7,3475.9,3463.7,641.6,876.4,1971.7,1017.6,977.3,967.9,16.0,0.0,5.0,10134.0,-9177.0,7911.0,-4353.0,3.0,2.0,-1.0,-9.0,1.0,4.0,8473.0,-13692.0,-2437.0,1795.0,7.0,-2.0,-5.0,1.0
2022-05-13 12:14:30.779790-07:00,1250.6,756.3,1202.7,1018.5,922.0,826.9,1641.6,1288.2,3471.0,3472.2,1072.1,867.9,1745.4,3463.7,1313.3,1256.9,3473.4,3467.4,395.0,627.0,934.7,1155.0,562.6,2398.7,3477.1,3463.7,641.6,876.4,1961.8,1014.2,978.2,967.9,15.0,-6.0,2.0,10134.0,-9177.0,7909.0,-4354.0,-5.0,-5.0,-9.0,-9.0,0.0,-1.0,8474.0,-13692.0,-2437.0,1795.0,-12.0,-3.0,-4.0,1.0
2022-05-13 12:14:30.825476-07:00,1244.4,756.3,1202.7,1018.5,934.7,821.9,1648.3,1288.2,3479.5,3472.2,1072.1,867.9,1743.5,3478.3,1318.7,1256.9,3473.4,3478.3,395.0,623.8,934.7,1155.0,562.6,2400.8,3477.1,3474.6,645.7,891.5,1961.8,1014.2,978.2,969.6,16.0,2.0,4.0,10134.0,-9176.0,7909.0,-4355.0,11.0,8.0,3.0,-8.0,1.0,2.0,8473.0,-13692.0,-2437.0,1795.0,4.0,-1.0,-3.0,1.0
2022-05-13 12:14:30.869025-07:00,1244.4,757.9,1200.0,1023.7,934.7,821.9,1648.3,1291.8,3479.5,3468.6,1070.3,867.1,1743.5,3478.3,1318.7,1254.2,3480.7,3478.3,395.0,623.8,938.1,1155.0,561.8,2400.8,3473.4,3474.6,645.7,891.5,1969.7,1015.1,973.9,969.6,13.0,-7.0,-1.0,10133.0,-9179.0,7906.0,-4360.0,-3.0,-1.0,-19.0,-12.0,1.0,-1.0,8472.0,-13693.0,-2437.0,1795.0,-4.0,-3.0,-10.0,1.0
2022-05-13 12:14:30.914998-07:00,1239.1,758.7,1200.0,1023.7,918.6,822.7,1641.6,1291.8,3467.4,3467.4,1070.3,867.1,1749.3,3468.6,1311.5,1254.2,3480.7,3471.0,391.8,632.7,938.1,1155.0,564.2,2410.3,3473.4,3473.4,644.9,871.3,1969.7,1015.1,976.5,968.8,14.0,4.0,4.0,10135.0,-9177.0,7905.0,-4361.0,16.0,-4.0,0.0,-8.0,0.0,3.0,8476.0,-13691.0,-2438.0,1795.0,9.0,0.0,-6.0,1.0
2022-05-13 12:14:31.004948-07:00,1239.1,758.7,1200.9,1021.1,918.6,822.7,1648.3,1283.7,3467.4,3467.4,1071.2,867.1,1749.3,3468.6,1322.3,1262.2,3468.6,3474.6,391.8,632.7,936.4,1150.6,564.2,2410.3,3478.3,3473.4,644.9,871.3,1963.7,1021.9,976.5,968.8,19.0,-5.0,2.0,10135.0,-9179.0,7901.0,-4365.0,-2.0,-12.0,-19.0,-5.0,0.0,4.0,8475.0,-13691.0,-2438.0,1795.0,9.0,-2.0,-8.0,1.0
2022-05-13 12:14:31.095119-07:00,1251.5,765.3,1200.9,1021.1,923.7,817.7,1648.3,1283.7,3464.9,3473.4,1071.2,867.1,1748.3,3464.9,1322.3,1262.2,3468.6,3474.6,395.0,629.5,936.4,1150.6,558.6,2400.8,3478.3,3473.4,639.2,867.1,1963.7,1021.9,975.6,968.8,16.0,-2.0,3.0,10132.0,-9181.0,7899.0,-4369.0,9.0,11.0,-9.0,-9.0,-1.0,3.0,8475.0,-13691.0,-2438.0,1795.0,2.0,-3.0,-7.0,1.0
2022-05-13 12:14:31.096229-07:00,1251.5,765.3,1200.9,1019.4,923.7,817.7,1634.1,1286.4,3464.9,3473.4,1077.3,867.9,1748.3,3464.9,1313.3,1255.1,3474.6,3473.4,395.0,629.5,942.4,1153.3,558.6,2400.8,3467.4,3467.4,639.2,867.1,1968.7,1018.5,975.6,968.8,18.0,-1.0,2.0,10131.0,-9181.0,7900.0,-4369.0,-12.0,-9.0,-5.0,-5.0,0.0,-3.0,8475.0,-13691.0,-2438.0,1795.0,-7.0,-4.0,-4.0,1.0
2022-05-13 12:14:31.097238-07:00,1240.8,757.1,1200.9,1019.4,921.1,818.5,1634.1,1286.4,3463.7,3462.5,1077.3,867.9,1748.3,3466.1,1313.3,1255.1,3474.6,3473.4,394.2,631.9,942.4,1153.3,563.4,2402.9,3467.4,3467.4,639.2,872.1,1968.7,1018.5,974.8,974.8,14.0,-6.0,1.0,10132.0,-9181.0,7899.0,-4369.0,10.0,2.0,-4.0,-7.0,-1.0,-2.0,8475.0,-13691.0,-2438.0,1795.0,13.0,0.0,-6.0,1.0
2022-05-13 12:14:31.140012-07:00,1240.8,757.1,1200.0,1011.6,921.1,816.0,1651.1,1280.1,3463.7,3462.5,1062.5,869.6,1748.3,3472.2,1314.2,1254.2,3463.7,3475.9,388.7,631.9,939.8,1155.0,563.4,2402.9,3473.4,3480.7,641.6,872.1,1956.8,1020.2,974.8,974.8,19.0,-5.0,3.0,10133.0,-9182.0,7896.0,-4370.0,4.0,-11.0,-12.0,-6.0,4.0,-2.0,8476.0,-13691.0,-2438.0,1795.0,6.0,-3.0,-7.0,1.0
2022-05-13 12:14:31.228616-07:00,1248.0,757.9,1202.7,1011.6,927.1,816.0,1651.1,1280.1,3467.4,3462.5,1075.6,869.6,1745.4,3472.2,1314.2,1254.2,3463.7,3475.9,388.7,625.4,939.8,1154.2,558.6,2407.1,3473.4,3480.7,641.6,867.9,1956.8,1018.5,967.9,973.9,17.0,-4.0,3.0,10134.0,-9182.0,7894.0,-4373.0,4.0,2.0,-1.0,-7.0,0.0,1.0,8477.0,-13690.0,-2437.0,1795.0,-3.0,0.0,-5.0,1.0
2022-05-13 12:14:31.231142-07:00,1248.0,757.9,1202.7,1023.7,927.1,821.0,1639.8,1281.0,3467.4,3462.5,1075.6,870.5,1745.4,3468.6,1313.3,1253.3,3477.1,3471.0,391.8,625.4,937.3,1154.2,558.6,2407.1,3472.2,3467.4,645.7,867.9,1965.7,1018.5,967.9,973.9,17.0,-1.0,2.0,10135.0,-9181.0,7893.0,-4374.0,12.0,0.0,-5.0,-7.0,0.0,1.0,8478.0,-13689.0,-2437.0,1796.0,11.0,-2.0,-6.0,1.0
2022-05-13 12:14:31.317507-07:00,1254.2,758.7,1195.6,1023.7,923.7,821.0,1639.8,1281.0,3473.4,3468.6,1072.9,870.5,1744.5,3468.6,1313.3,1253.3,3477.1,3471.0,391.8,631.9,937.3,1149.8,560.2,2397.6,3472.2,3467.4,645.7,868.8,1965.7,1015.1,973.9,973.1,17.0,-5.0,2.0,10136.0,-9180.0,7892.0,-4376.0,8.0,7.0,-11.0,-7.0,0.0,2.0,8479.0,-13688.0,-2437.0,1796.0,7.0,-2.0,-7.0,1.0
2022-05-13 12:14:31.319622-07:00,1254.2,758.7,1195.6,1023.7,923.7,825.2,1642.6,1286.4,3473.4,3468.6,1072.9,869.6,1744.5,3467.4,1312.4,1255.1,3473.4,3474.6,391.8,631.9,939.0,1149.8,560.2,2397.6,3477.1,3478.3,640.8,868.8,1968.7,1015.1,973.9,973.1,19.0,-1.0,1.0,10138.0,-9177.0,7889.0,-4381.0,5.0,6.0,-12.0,-7.0,2.0,1.0,8482.0,-13687.0,-2437.0,1796.0,-1.0,0.0,-5.0,1.0
2022-05-13 12:14:31.409312-07:00,1245.3,762.0,1199.1,1019.4,926.2,825.2,1642.6,1286.4,3471.0,3474.6,1078.2,870.5,1747.3,3467.4,1312.4,1255.1,3473.4,3474.6,391.8,628.6,936.4,1146.3,559.4,2399.7,3477.1,3478.3,640.8,867.9,1959.8,1021.9,973.1,977.3,12.0,-12.0,-2.0,10132.0,-9182.0,7888.0,-4387.0,-20.0,6.0,-2.0,-10.0,-4.0,3.0,8476.0,-13691.0,-2438.0,1795.0,-26.0,-5.0,-6.0,1.0
2022-05-13 12:14:31.454012-07:00,1245.3,762.0,1199.1,1019.4,918.6,826.9,1652.0,1274.7,3471.0,3474.6,1078.2,870.5,1747.3,3474.6,1309.7,1247.1,3478.3,3480.7,397.3,626.2,936.4,1146.3,559.4,2399.7,3481.9,3471.0,640.0,868.8,1959.8,1021.9,973.1,977.3,18.0,1.0,2.0,10133.0,-9185.0,7883.0,-4388.0,8.0,-9.0,-3.0,-7.0,3.0,-1.0,8479.0,-13688.0,-2438.0,1797.0,9.0,-11.0,-8.0,1.0
2022-05-13 12:14:31.544749-07:00,1245.3,764.5,1201.8,1013.3,918.6,826.9,1652.0,1274.7,3478.3,3467.4,1072.1,867.9,1747.3,3474.6,1309.7,1247.1,3478.3,3480.7,397.3,626.2,936.4,1153.3,563.4,2405.0,3481.9,3471.0,640.0,868.8,1959.8,1015.9,977.3,973.1,18.0,-5.0,2.0,10132.0,-9187.0,7880.0,-4391.0,-4.0,4.0,1.0,-6.0,1.0,1.0,8478.0,-13689.0,-2439.0,1798.0,-6.0,-9.0,-6.0,1.0
2022-05-13 12:14:31.546005-07:00,1245.3,764.5,1201.8,1013.3,928.8,827.7,1649.2,1282.8,3478.3,3467.4,1072.1,867.9,1745.4,3467.4,1316.0,1255.1,3483.2,3478.3,395.0,627.0,936.4,1153.3,563.4,2405.0,3478.3,3478.3,646.5,870.5,1959.8,1015.9,977.3,973.1,19.0,-1.0,3.0,10132.0,-9189.0,7877.0,-4393.0,2.0,-8.0,-2.0,-11.0,4.0,-2.0,8478.0,-13689.0,-2439.0,1798.0,5.0,-5.0,-3.0,1.0
2022-05-13 12:14:31.589212-07:00,1240.8,760.4,1200.0,1015.9,928.8,827.7,1649.2,1282.8,3473.4,3471.0,1066.0,873.8,1745.4,3467.4,1316.0,1255.1,3483.2,3478.3,395.0,627.0,943.2,1149.8,563.4,2402.9,3478.3,3478.3,646.5,870.5,1958.8,1021.9,974.8,973.1,15.0,-2.0,3.0,10130.0,-9190.0,7875.0,-4397.0,2.0,4.0,2.0,-3.0,-1.0,3.0,8477.0,-13689.0,-2439.0,1798.0,3.0,-2.0,-1.0,1.0
2022-05-13 12:14:31.858903-07:00,1251.5,760.4,1200.0,1015.9,923.7,820.2,1646.4,1296.3,3468.6,3471.0,1066.0,873.8,1751.2,3478.3,1317.8,1253.3,3488.0,3471.0,391.1,628.6,943.2,1149.8,563.4,2402.9,3478.3,3472.2,653.8,869.6,1958.8,1021.9,974.8,970.5,18.0,3.0,0.0,10130.0,-9191.0,7872.0,-4401.0,-7.0,2.0,-5.0,-5.0,6.0,-2.0,8480.0,-13687.0,-2438.0,1798.0,-8.0,1.0,0.0,1.0
2022-05-13 12:14:31.860646-07:00,1251.5,754.6,1201.8,1015.1,923.7,820.2,1646.4,1288.2,3468.6,3461.3,1067.7,866.3,1751.2,3478.3,1317.8,1248.8,3479.5,3471.0,391.1,628.6,941.5,1152.4,559.4,2393.4,3478.3,3472.2,653.8,869.6,1961.8,1018.5,976.5,970.5,11.0,-5.0,2.0,10129.0,-9193.0,7870.0,-4404.0,11.0,-1.0,0.0,-6.0,2.0,0.0,8479.0,-13688.0,-2439.0,1798.0,8.0,-2.0,-7.0,1.0
2022-05-13 12:14:31.862319-07:00,1242.6,754.6,1201.8,1015.1,915.2,819.4,1653.9,1288.2,3472.2,3461.3,1067.7,866.3,1744.5,3471.0,1316.9,1248.8,3479.5,3477.1,390.3,631.9,941.5,1152.4,559.4,2401.8,3478.3,3483.2,648.9,867.9,1961.8,1018.5,976.5,970.5,13.0,0.0,0.0,10130.0,-9193.0,7867.0,-4406.0,-1.0,-13.0,-2.0,-7.0,4.0,2.0,8479.0,-13688.0,-2440.0,1800.0,3.0,-10.0,-7.0,1.0
2022-05-13 12:14:31.863412-07:00,1242.6,756.3,1196.5,1010.8,915.2,819.4,1653.9,1281.0,3472.2,3478.3,1068.6,871.3,1744.5,3471.0,1316.9,1257.8,3480.7,3477.1,390.3,631.9,935.6,1161.2,561.8,2401.8,3483.2,3483.2,648.9,867.9,1959.8,1018.5,979.9,970.5,10.0,-7.0,5.0,10131.0,-9195.0,7864.0,-4407.0,6.0,-4.0,1.0,-8.0,-2.0,4.0,8478.0,-13688.0,-2441.0,1802.0,5.0,-8.0,-8.0,1.0
2022-05-13 12:14:31.904264-07:00,1243.5,756.3,1196.5,1010.8,924.5,821.9,1648.3,1281.0,3473.4,3478.3,1068.6,871.3,1744.5,3477.1,1309.7,1257.8,3480.7,3485.6,393.4,631.9,935.6,1161.2,561.8,2385.0,3483.2,3472.2,643.2,880.6,1959.8,1018.5,979.9,965.4,14.0,3.0,4.0,10130.0,-9196.0,7862.0,-4409.0,-6.0,0.0,-1.0,-6.0,1.0,3.0,8479.0,-13687.0,-2441.0,1803.0,-4.0,-5.0,-1.0,1.0
2022-05-13 12:14:31.905467-07:00,1243.5,764.5,1196.5,1016.8,924.5,821.9,1648.3,1281.0,3473.4,3471.0,1073.8,863.7,1744.5,3477.1,1309.7,1253.3,3468.6,3485.6,393.4,631.9,940.7,1155.9,561.8,2385.0,3467.4,3472.2,643.2,880.6,1958.8,1015.1,973.1,965.4,10.0,-5.0,3.0,10129.0,-9197.0,7861.0,-4412.0,12.0,14.0,5.0,-3.0,2.0,0.0,8478.0,-13688.0,-2441.0,1802.0,2.0,7.0,2.0,1.0
2022-05-13 12:14:31.948070-07:00,1246.2,757.9,1196.5,1016.8,916.0,816.9,1644.5,1281.0,3478.3,3478.3,1073.8,863.7,1740.6,3472.2,1319.6,1253.3,3468.6,3475.9,389.5,632.7,940.7,1155.9,561.0,2398.7,3467.4,3477.1,640.0,867.1,1958.8,1015.1,976.5,966.2,15.0,2.0,-4.0,10125.0,-9193.0,7866.0,-4421.0,-2.0,13.0,-5.0,-5.0,0.0,1.0,8477.0,-13688.0,-2441.0,1801.0,-12.0,5.0,-1.0,1.0
2022-05-13 12:14:32.085886-07:00,1246.2,757.9,1196.5,1017.6,916.0,816.9,1652.0,1279.2,3478.3,3478.3,1070.3,876.4,1740.6,3472.2,1308.8,1250.6,3472.2,3488.0,389.5,632.7,934.7,1149.8,561.0,2398.7,3479.5,3484.4,640.0,867.1,1965.7,1016.8,976.5,966.2,13.0,-2.0,1.0,10124.0,-9193.0,7865.0,-4423.0,18.0,3.0,3.0,-8.0,-1.0,-1.0,8478.0,-13688.0,-2441.0,1802.0,16.0,-5.0,-3.0,1.0
2022-05-13 12:14:32.087188-07:00,1237.3,763.7,1196.5,1017.6,918.6,818.5,1652.0,1279.2,3467.4,3471.0,1070.3,876.4,1747.3,3468.6,1308.8,1250.6,3472.2,3488.0,386.4,630.3,934.7,1149.8,563.4,2390.3,3479.5,3484.4,642.4,864.6,1965.7,1016.8,982.5,967.1,11.0,0.0,1.0,10126.0,-9192.0,7863.0,-4427.0,-3.0,-4.0,-1.0,-6.0,0.0,4.0,8481.0,-13686.0,-2440.0,1802.0,-4.0,-7.0,-5.0,1.0
2022-05-13 12:14:32.219923-07:00,1237.3,763.7,1199.1,1021.9,918.6,818.5,1647.3,1290.0,3467.4,3471.0,1079.0,879.7,1747.3,3468.6,1310.6,1249.7,3478.3,3475.9,386.4,630.3,935.6,1142.7,563.4,2390.3,3471.0,3478.3,642.4,864.6,1961.8,1015.9,982.5,967.1,12.0,0.0,0.0,10126.0,-9193.0,7859.0,-4427.0,0.0,-6.0,0.0,-8.0,1.0,0.0,8480.0,-13686.0,-2442.0,1804.0,6.0,-14.0,-6.0,1.0
2022-05-13 12:14:32.221071-07:00,1246.2,772.0,1199.1,1021.9,921.1,819.4,1647.3,1290.0,3474.6,3471.0,1079.0,879.7,1748.3,3472.2,1310.6,1249.7,3478.3,3475.9,395.0,631.1,935.6,1142.7,559.4,2400.8,3471.0,3478.3,641.6,873.0,1961.8,1015.9,973.1,971.3,11.0,-6.0,1.0,10126.0,-9194.0,7858.0,-4429.0,6.0,4.0,0.0,-8.0,0.0,2.0,8481.0,-13685.0,-2441.0,1804.0,11.0,-6.0,-7.0,1.0
2022-05-13 12:14:32.222126-07:00,1246.2,772.0,1197.4,1010.8,921.1,821.0,1646.4,1286.4,3474.6,3471.0,1072.1,862.9,1748.3,3468.6,1314.2,1250.6,3467.4,3473.4,391.8,631.1,938.1,1153.3,559.4,2400.8,3473.4,3475.9,647.3,873.0,1961.8,1007.3,973.1,971.3,13.0,0.0,0.0,10126.0,-9195.0,7856.0,-4431.0,-9.0,2.0,2.0,-4.0,1.0,0.0,8482.0,-13685.0,-2441.0,1804.0,-8.0,-1.0,-3.0,1.0
2022-05-13 12:14:32.265485-07:00,1249.7,764.5,1193.8,1010.8,923.7,821.0,1646.4,1286.4,3468.6,3474.6,1071.2,862.9,1742.6,3468.6,1314.2,1250.6,3467.4,3473.4,391.8,630.3,938.1,1151.5,559.4,2411.3,3473.4,3475.9,647.3,868.8,1961.8,1021.9,973.1,974.8,12.0,-4.0,2.0,10124.0,-9197.0,7856.0,-4432.0,6.0,0.0,1.0,-7.0,-1.0,5.0,8478.0,-13687.0,-2442.0,1804.0,2.0,-1.0,-4.0,1.0
2022-05-13 12:14:32.266535-07:00,1249.7,764.5,1193.8,1017.6,923.7,825.2,1626.5,1288.2,3468.6,3474.6,1071.2,873.0,1742.6,3462.5,1317.8,1251.5,3483.2,3480.7,392.6,630.3,938.1,1151.5,559.4,2411.3,3485.6,3473.4,644.9,868.8,1964.7,1021.9,973.1,974.8,14.0,0.0,0.0,10125.0,-9196.0,7853.0,-4435.0,5.0,7.0,-5.0,-6.0,2.0,-2.0,8480.0,-13686.0,-2442.0,1804.0,1.0,-7.0,-7.0,1.0
2022-05-13 12:14:32.310695-07:00,1240.8,756.3,1198.2,1017.6,918.6,825.2,1626.5,1288.2,3478.3,3463.7,1066.0,873.0,1753.1,3462.5,1317.8,1251.5,3483.2,3480.7,392.6,634.3,938.1,1149.8,562.6,2409.2,3485.6,3473.4,644.9,874.7,1964.7,1012.5,969.6,968.8,12.0,0.0,0.0,10126.0,-9194.0,7852.0,-4440.0,5.0,-1.0,4.0,-3.0,0.0,1.0,8483.0,-13684.0,-2441.0,1804.0,14.0,-1.0,-4.0,1.0
2022-05-13 12:14:32.399271-07:00,1240.8,756.3,1198.2,1022.8,918.6,831.1,1655.8,1285.5,3478.3,3463.7,1066.0,868.8,1753.1,3464.9,1313.3,1257.8,3478.3,3467.4,395.0,634.3,938.1,1149.8,562.6,2409.2,3473.4,3481.9,628.6,874.7,1954.8,1012.5,969.6,968.8,11.0,1.0,1.0,10126.0,-9195.0,7851.0,-4440.0,-3.0,3.0,-5.0,-9.0,0.0,5.0,8482.0,-13685.0,-2441.0,1804.0,-7.0,-8.0,-6.0,1.0
2022-05-13 12:14:32.759019-07:00,1237.3,751.3,1203.5,1015.1,911.8,831.1,1655.8,1285.5,3471.0,3471.0,1072.9,871.3,1747.3,3464.9,1313.3,1257.8,3478.3,3467.4,395.0,630.3,941.5,1151.5,558.6,2392.4,3473.4,3481.9,628.6,870.5,1967.7,1011.6,977.3,977.3,11.0,-4.0,0.0,10126.0,-9195.0,7851.0,-4440.0,6.0,0.0,2.0,-5.0,0.0,3.0,8482.0,-13685.0,-2441.0,1804.0,5.0,-3.0,-2.0,1.0
2022-05-13 12:14:32.847558-07:00,1237.3,751.3,1203.5,1015.1,918.6,818.5,1640.7,1287.3,3471.0,3471.0,1072.9,871.3,1748.3,3474.6,1312.4,1256.0,3468.6,3472.2,392.6,629.5,941.5,1151.5,558.6,2392.4,3483.2,3477.1,630.3,871.3,1967.7,1011.6,977.3,977.3,10.0,-1.0,-3.0,10126.0,-9195.0,7851.0,-4440.0,-6.0,-8.0,-1.0,-8.0,1.0,1.0,8482.0,-13685.0,-2441.0,1804.0,-5.0,-5.0,-4.0,1.0
2022-05-13 12:14:32.983991-07:00,1244.4,768.7,1203.5,1022.8,918.6,818.5,1640.7,1287.3,3479.5,3468.6,1071.2,868.8,1748.3,3474.6,1312.4,1256.0,3468.6,3472.2,392.6,629.5,931.3,1149.8,558.6,2399.7,3483.2,3477.1,630.3,871.3,1960.8,1013.3,977.3,980.7,15.0,-6.0,-2.0,10131.0,-9192.0,7849.0,-4439.0,39.0,-9.0,15.0,-5.0,-2.0,3.0,8483.0,-13684.0,-2442.0,1805.0,26.0,-4.0,-2.0,1.0
2022-05-13 12:14:32.985249-07:00,1244.4,768.7,1203.5,1022.8,911.0,828.5,1639.8,1284.6,3479.5,3468.6,1071.2,868.8,1742.6,3474.6,1310.6,1254.2,3478.3,3474.6,393.4,632.7,931.3,1149.8,558.6,2399.7,3478.3,3477.1,633.5,872.1,1960.8,1013.3,977.3,980.7,18.0,8.0,-2.0,10141.0,-9180.0,7847.0,-4443.0,34.0,-7.0,-13.0,4.0,16.0,-7.0,8499.0,-13674.0,-2440.0,1809.0,13.0,-1.0,-8.0,1.0
2022-05-13 12:14:33.074219-07:00,1248.8,757.1,1196.5,1017.6,911.0,828.5,1639.8,1284.6,3468.6,3474.6,1074.7,871.3,1742.6,3474.6,1310.6,1254.2,3478.3,3474.6,393.4,632.7,938.1,1153.3,562.6,2391.3,3478.3,3477.1,633.5,872.1,1962.8,1015.1,977.3,976.5,11.0,-13.0,5.0,10139.0,-9181.0,7845.0,-4450.0,-2.0,18.0,5.0,-5.0,-5.0,6.0,8496.0,-13676.0,-2442.0,1807.0,7.0,10.0,5.0,1.0
2022-05-13 12:14:33.075634-07:00,1237.3,752.9,1193.8,1027.1,926.2,815.2,1641.6,1289.1,3469.8,3473.4,1072.9,870.5,1743.5,3473.4,1312.4,1252.4,3468.6,3485.6,402.0,627.8,932.2,1155.9,561.8,2392.4,3475.9,3480.7,645.7,869.6,1962.8,1025.4,968.8,973.1,-135.0,-300.0,-214.0,12239.0,-6922.0,7131.0,-4457.0,3819.0,-1811.0,1882.0,-66.0,-146.0,-283.0,10545.0,-12184.0,-1928.0,2252.0,3366.0,-425.0,1200.0,1.0
2022-05-13 12:14:33.076311-07:00,1237.3,752.9,1193.8,1027.1,926.2,815.2,1641.6,1289.1,3469.8,3473.4,1072.9,870.5,1743.5,3473.4,1312.4,1252.4,3468.6,3485.6,402.0,627.8,932.2,1155.9,561.8,2392.4,3475.9,3480.7,645.7,869.6,1962.8,1025.4,968.8,973.1,-135.0,-300.0,-214.0,12239.0,-6922.0,7131.0,-4457.0,3819.0,-1811.0,1882.0,-66.0,-146.0,-283.0,10545.0,-12184.0,-1928.0,2252.0,3366.0,-425.0,1200.0,1.0
2022-05-13 12:14:33.081503-07:00,1237.3,752.9,1193.8,1027.1,926.2,815.2,1641.6,1289.1,3469.8,3473.4,1072.9,870.5,1743.5,3473.4,1312.4,1252.4,3468.6,3485.6,402.0,627.8,932.2,1155.9,561.8,2392.4,3475.9,3480.7,645.7,869.6,1962.8,1025.4,968.8,973.1,-135.0,-300.0,-214.0,12239.0,-6922.0,7131.0,-4457.0,3819.0,-1811.0,1882.0,-66.0,-146.0,-283.0,10545.0,-12184.0,-1928.0,2252.0,3366.0,-425.0,1200.0,1.0
2022-05-13 12:14:33.118566-07:00,1237.3,752.9,1193.8,1027.1,926.2,815.2,1641.6,1289.1,3469.8,3473.4,1072.9,870.5,1743.5,3473.4,1312.4,1252.4,3468.6,3485.6,402.0,627.8,932.2,1155.9,561.8,2392.4,3475.9,3480.7,645.7,869.6,1962.8,1025.4,968.8,973.1,-135.0,-300.0,-214.0,12239.0,-6922.0,7131.0,-4457.0,3819.0,-1811.0,1882.0,-66.0,-146.0,-283.0,10545.0,-12184.0,-1928.0,2252.0,3366.0,-425.0,1200.0,1.0
2022-05-13 12:14:33.120087-07:00,1265.8,781.9,1275.6,1059.1,916.9,837.7,1677.6,1310.6,3473.4,3462.5,1077.3,871.3,1747.3,3474.6,1316.0,1251.5,3466.1,3477.1,401.2,661.9,939.8,1155.9,609.2,2434.6,3467.4,3478.3,651.4,994.5,1956.8,1016.8,981.6,979.0,166.0,237.0,-233.0,15808.0,-2153.0,2063.0,-3107.0,1398.0,-1360.0,-76.0,143.0,193.0,-27.0,13075.0,-8452.0,-588.0,5068.0,897.0,-499.0,372.0,1.0
2022-05-13 12:14:33.120877-07:00,1265.8,781.9,1275.6,1059.1,916.9,837.7,1677.6,1310.6,3473.4,3462.5,1077.3,871.3,1747.3,3474.6,1316.0,1251.5,3466.1,3477.1,401.2,661.9,939.8,1155.9,609.2,2434.6,3467.4,3478.3,651.4,994.5,1956.8,1016.8,981.6,979.0,166.0,237.0,-233.0,15808.0,-2153.0,2063.0,-3107.0,1398.0,-1360.0,-76.0,143.0,193.0,-27.0,13075.0,-8452.0,-588.0,5068.0,897.0,-499.0,372.0,1.0
2022-05-13 12:14:33.207602-07:00,1263.1,775.3,1293.6,1066.9,923.7,865.4,1699.5,1306.1,3469.8,3473.4,1086.0,867.9,1744.5,3461.3,1313.3,1260.4,3472.2,3467.4,395.0,661.1,940.7,1167.4,612.5,2432.4,3483.2,3471.0,657.0,1032.3,1953.9,1017.6,979.9,985.9,102.0,109.0,-101.0,15928.0,-1806.0,733.0,-3306.0,357.0,-977.0,-326.0,101.0,231.0,-28.0,13239.0,-8010.0,-644.0,5348.0,350.0,-282.0,-113.0,1.0
2022-05-13 12:14:33.209138-07:00,1263.1,775.3,1279.2,1055.6,923.7,888.2,1691.9,1310.6,3469.8,3473.4,1089.5,867.9,1744.5,3471.0,1311.5,1253.3,3480.7,3478.3,400.4,661.1,944.1,1181.5,612.5,2432.4,3474.6,3475.9,660.3,1032.3,1965.7,1015.1,979.9,985.9,97.0,39.0,-44.0,15917.0,-1855.0,454.0,-3381.0,-182.0,-321.0,-261.0,98.0,29.0,23.0,13260.0,-7997.0,-782.0,5295.0,-242.0,-124.0,-354.0,1.0
2022-05-13 12:14:33.299249-07:00,1259.6,776.9,1261.3,1055.6,927.9,888.2,1691.9,1310.6,3483.2,3473.4,1104.3,867.9,1748.3,3471.0,1311.5,1253.3,3480.7,3478.3,400.4,662.7,944.1,1181.5,609.2,2458.9,3474.6,3475.9,660.3,1057.3,1965.7,1017.6,985.9,985.9,50.0,-26.0,33.0,15892.0,-1906.0,370.0,-3481.0,-209.0,174.0,-155.0,29.0,9.0,-1.0,13292.0,-8013.0,-891.0,5173.0,-79.0,-25.0,-369.0,1.0
2022-05-13 12:14:33.342566-07:00,1259.6,776.9,1261.3,1064.3,927.9,911.0,1699.5,1297.2,3483.2,3473.4,1104.3,873.0,1748.3,3473.4,1302.5,1252.4,3480.7,3478.3,405.1,662.7,946.6,1181.5,609.2,2458.9,3472.2,3468.6,675.8,1057.3,1970.7,1017.6,985.9,985.9,10.0,-186.0,128.0,15869.0,-2010.0,542.0,-3502.0,-77.0,569.0,133.0,-14.0,-103.0,29.0,13279.0,-8091.0,-995.0,5066.0,-211.0,-24.0,-246.0,1.0
2022-05-13 12:14:33.432641-07:00,1264.9,783.6,1337.7,1064.3,991.9,911.0,1699.5,1297.2,3467.4,3467.4,1119.1,873.0,1749.3,3473.4,1302.5,1252.4,3480.7,3478.3,405.1,659.5,946.6,1185.0,606.0,2450.4,3472.2,3468.6,675.8,1112.1,1970.7,1064.3,1033.2,979.0,-32.0,-14.0,-134.0,15878.0,-1878.0,786.0,-3490.0,5.0,486.0,-65.0,-45.0,-7.0,-33.0,13320.0,-8036.0,-1050.0,5033.0,130.0,-184.0,-172.0,1.0
2022-05-13 12:14:33.434791-07:00,1264.9,783.6,1337.7,1098.2,991.9,946.6,1711.0,1316.0,3467.4,3467.4,1119.1,875.5,1749.3,3472.2,1307.9,1247.1,3474.6,3473.4,399.6,659.5,950.0,1185.0,606.0,2450.4,3478.3,3477.1,687.2,1112.1,1999.5,1064.3,1033.2,979.0,-24.0,-10.0,2.0,15865.0,-1810.0,889.0,-3559.0,298.0,155.0,-90.0,-19.0,2.0,62.0,13341.0,-7989.0,-1189.0,5022.0,71.0,-300.0,-214.0,1.0
2022-05-13 12:14:33.489058-07:00,1296.3,778.6,1439.6,1180.6,1052.2,946.6,1711.0,1316.0,3469.8,3469.8,1133.1,872.1,1753.1,3472.2,1307.9,1247.1,3474.6,3473.4,399.6,657.0,947.5,1180.6,601.2,2592.9,3478.3,3477.1,687.2,1156.8,2202.4,1195.6,1178.8,989.3,5.0,-15.0,104.0,15867.0,-1695.0,969.0,-3585.0,116.0,356.0,69.0,10.0,-32.0,74.0,13382.0,-7921.0,-1303.0,4991.0,73.0,-151.0,-205.0,1.0
2022-05-13 12:14:33.568868-07:00,1296.3,778.6,1439.6,1180.6,1107.8,956.8,1707.2,1354.0,3469.8,3469.8,1133.1,872.1,1796.5,3462.5,1325.0,1264.0,3467.4,3483.2,398.9,661.9,947.5,1180.6,601.2,2592.9,3478.3,3477.1,685.6,1153.3,2202.4,1195.6,1178.8,989.3,8.0,-94.0,56.0,15870.0,-1645.0,1134.0,-3547.0,129.0,315.0,169.0,11.0,-58.0,45.0,13384.0,-7927.0,-1355.0,4963.0,-56.0,-34.0,-33.0,1.0
2022-05-13 12:14:33.669517-07:00,1289.1,782.7,1470.0,1210.6,1107.8,956.8,1707.2,1354.0,3471.0,3472.2,1140.1,874.7,1796.5,3462.5,1325.0,1264.0,3467.4,3483.2,398.9,661.9,945.8,1176.2,595.5,3069.7,3478.3,3477.1,685.6,1153.3,2449.4,1267.6,1239.1,1056.5,26.0,-34.0,-40.0,15893.0,-1489.0,1291.0,-3458.0,459.0,649.0,391.0,-7.0,56.0,-26.0,13411.0,-7875.0,-1350.0,4974.0,180.0,-51.0,-5.0,1.0
2022-05-13 12:14:33.670760-07:00,1289.1,782.7,1470.0,1210.6,1161.2,948.3,1706.2,1395.7,3471.0,3472.2,1140.1,874.7,1923.3,3466.1,1462.6,1280.1,3480.7,3478.3,402.0,655.4,945.8,1176.2,595.5,3069.7,3477.1,3475.9,713.4,1152.4,2449.4,1267.6,1239.1,1056.5,43.0,23.0,-29.0,15900.0,-1267.0,1617.0,-3376.0,29.0,1048.0,131.0,15.0,51.0,-17.0,13448.0,-7813.0,-1404.0,4958.0,-68.0,-137.0,-210.0,1.0
2022-05-13 12:14:33.773020-07:00,1290.9,787.7,1518.0,1252.4,1161.2,948.3,1706.2,1395.7,3472.2,3474.6,1196.5,874.7,1923.3,3466.1,1462.6,1280.1,3480.7,3478.3,402.0,655.4,939.8,1185.9,591.5,3399.6,3477.1,3475.9,713.4,1152.4,2631.9,1306.1,1260.4,1108.6,-6.0,-10.0,-9.0,15860.0,-1164.0,2062.0,-3361.0,-27.0,917.0,48.0,0.0,-44.0,38.0,13436.0,-7855.0,-1507.0,4893.0,-146.0,-78.0,-218.0,1.0
2022-05-13 12:14:33.774098-07:00,1290.9,787.7,1518.0,1252.4,1202.7,981.6,1713.8,1443.3,3472.2,3474.6,1196.5,874.7,2137.2,3473.4,1613.4,1370.3,3469.8,3475.9,402.0,648.1,939.8,1185.9,591.5,3399.6,3477.1,3488.0,757.9,1154.2,2631.9,1306.1,1260.4,1108.6,-28.0,-41.0,35.0,15815.0,-1109.0,2412.0,-3356.0,-87.0,677.0,128.0,-5.0,-64.0,77.0,13435.0,-7882.0,-1568.0,4833.0,-90.0,3.0,-124.0,1.0
2022-05-13 12:14:33.838654-07:00,1290.0,793.5,1522.7,1248.8,1202.7,981.6,1713.8,1462.6,3467.4,3466.1,1247.1,888.2,2137.2,3473.4,1613.4,1386.6,3472.2,3475.9,402.0,648.1,941.5,1184.1,586.7,3174.2,3478.3,3488.0,757.9,1154.2,2631.9,1298.1,1258.7,1127.9,-1.0,-29.0,56.0,15788.0,-1066.0,2680.0,-3295.0,-58.0,540.0,217.0,-4.0,-40.0,54.0,13432.0,-7907.0,-1590.0,4793.0,-56.0,23.0,-94.0,1.0
2022-05-13 12:14:33.840306-07:00,1292.7,793.5,1522.7,1248.8,1222.2,970.5,1704.3,1462.6,3460.1,3466.1,1247.1,888.2,2155.5,3468.6,1643.5,1386.6,3472.2,3473.4,395.0,650.5,941.5,1184.1,586.7,2890.8,3478.3,3479.5,784.4,1146.3,2631.9,1298.1,1258.7,1121.7,28.0,-47.0,136.0,15768.0,-1077.0,2877.0,-3218.0,-319.0,377.0,121.0,19.0,-91.0,51.0,13414.0,-7955.0,-1587.0,4764.0,-190.0,105.0,45.0,1.0
2022-05-13 12:14:33.973423-07:00,1292.7,786.9,1507.8,1233.7,1222.2,970.5,1704.3,1466.3,3460.1,3477.1,1249.7,901.7,2155.5,3468.6,1643.5,1384.8,3474.6,3473.4,395.0,650.5,936.4,1185.9,590.7,2890.8,3478.3,3479.5,784.4,1146.3,2551.9,1282.8,1253.3,1121.7,7.0,-89.0,220.0,15735.0,-1138.0,3077.0,-3175.0,-130.0,520.0,26.0,17.0,-146.0,76.0,13348.0,-8057.0,-1478.0,4813.0,-93.0,279.0,459.0,1.0
2022-05-13 12:14:34.063361-07:00,1292.7,786.9,1507.8,1233.7,1202.7,971.3,1700.5,1466.3,3469.8,3477.1,1249.7,901.7,2127.0,3478.3,1629.4,1384.8,3474.6,3483.2,400.4,646.5,936.4,1185.9,590.7,2777.9,3478.3,3483.2,773.6,1148.0,2551.9,1282.8,1253.3,1106.9,-4.0,-47.0,101.0,15672.0,-1169.0,3363.0,-3186.0,-266.0,849.0,-6.0,-40.0,-50.0,50.0,13235.0,-8203.0,-1244.0,4942.0,-306.0,420.0,685.0,1.0
2022-05-13 12:14:34.558913-07:00,1292.7,786.9,1500.4,1246.2,1202.7,971.3,1700.5,1454.3,3469.8,3471.0,1245.3,885.6,2127.0,3478.3,1629.4,1375.7,3472.2,3483.2,400.4,646.5,940.7,1185.0,589.1,2777.9,3467.4,3483.2,773.6,1148.0,2494.0,1281.0,1250.6,1106.9,-33.0,-20.0,-35.0,15591.0,-1151.0,3723.0,-3191.0,-41.0,694.0,43.0,-47.0,-22.0,40.0,13106.0,-8355.0,-961.0,5092.0,-85.0,436.0,723.0,1.0
2022-05-13 12:14:34.815649-07:00,1285.5,784.4,1500.4,1246.2,1185.9,968.8,1687.2,1454.3,3469.8,3474.6,1245.3,885.6,2115.9,3475.9,1619.9,1375.7,3472.2,3474.6,402.0,645.7,940.7,1185.0,586.7,2730.4,3467.4,3474.6,773.6,1141.9,2494.0,1281.0,1239.9,1108.6,18.0,-31.0,-120.0,15538.0,-1114.0,3943.0,-3199.0,99.0,325.0,3.0,-23.0,54.0,-30.0,13017.0,-8435.0,-685.0,5232.0,-5.0,343.0,605.0,1.0
2022-05-13 12:14:34.817155-07:00,1285.5,784.4,1490.3,1229.3,1185.9,968.8,1693.8,1447.9,3469.8,3474.6,1234.6,889.0,2115.9,3475.9,1604.9,1372.1,3467.4,3474.6,402.0,645.7,935.6,1181.5,586.7,2730.4,3480.7,3473.4,773.6,1141.9,2487.6,1273.0,1239.9,1108.6,44.0,-14.0,-161.0,15517.0,-1028.0,4030.0,-3220.0,68.0,178.0,4.0,4.0,88.0,-64.0,12972.0,-8445.0,-476.0,5350.0,164.0,183.0,415.0,1.0
2022-05-13 12:14:34.818231-07:00,1288.2,784.4,1490.3,1229.3,1170.9,960.2,1693.8,1447.9,3467.4,3468.6,1234.6,889.0,2096.7,3468.6,1604.9,1372.1,3467.4,3474.6,400.4,635.1,935.6,1181.5,581.8,2674.4,3480.7,3473.4,761.2,1134.9,2487.6,1273.0,1239.1,1084.2,18.0,-33.0,-146.0,15497.0,-1026.0,4114.0,-3208.0,-74.0,111.0,43.0,0.0,59.0,-59.0,12931.0,-8465.0,-382.0,5423.0,-114.0,45.0,206.0,1.0
2022-05-13 12:14:34.830647-07:00,1288.2,784.4,1485.6,1221.3,1170.9,960.2,1694.8,1441.5,3467.4,3468.6,1228.4,887.3,2096.7,3468.6,1604.0,1365.7,3480.7,3469.8,400.4,635.1,936.4,1184.1,581.8,2674.4,3477.1,3472.2,761.2,1134.9,2464.2,1281.9,1239.1,1084.2,51.0,-17.0,-80.0,15499.0,-1026.0,4127.0,-3183.0,41.0,64.0,84.0,1.0,79.0,-53.0,12914.0,-8475.0,-364.0,5452.0,-36.0,-11.0,22.0,1.0
2022-05-13 12:14:34.831465-07:00,1288.2,784.4,1485.6,1221.3,1170.9,960.2,1694.8,1441.5,3467.4,3468.6,1228.4,887.3,2096.7,3468.6,1604.0,1365.7,3480.7,3469.8,400.4,635.1,936.4,1184.1,581.8,2674.4,3477.1,3472.2,761.2,1134.9,2464.2,1281.9,1239.1,1084.2,51.0,-17.0,-80.0,15499.0,-1026.0,4127.0,-3183.0,41.0,64.0,84.0,1.0,79.0,-53.0,12914.0,-8475.0,-364.0,5452.0,-36.0,-11.0,22.0,1.0
2022-05-13 12:14:34.918972-07:00,1282.8,778.6,1479.2,1215.1,1137.5,953.4,1686.2,1434.1,3467.4,3474.6,1209.7,889.8,2052.4,3473.4,1596.4,1359.4,3477.1,3478.3,398.1,631.1,939.8,1180.6,581.0,2559.4,3473.4,3481.9,751.3,1111.2,2391.3,1258.7,1226.6,1084.2,0.0,-30.0,5.0,15488.0,-1197.0,4083.0,-3234.0,-54.0,-9.0,-6.0,-18.0,-13.0,9.0,12858.0,-8550.0,-361.0,5465.0,-46.0,13.0,-2.0,1.0
2022-05-13 12:14:34.962379-07:00,1285.5,778.6,1460.8,1208.0,1136.6,946.6,1680.5,1443.3,3472.2,3469.8,1208.0,887.3,2047.4,3464.9,1577.7,1363.9,3478.3,3481.9,395.0,640.8,925.4,1180.6,581.8,2532.5,3467.4,3481.9,752.1,1118.2,2375.5,1256.9,1220.4,1081.6,-10.0,-33.0,2.0,15484.0,-1207.0,4098.0,-3228.0,31.0,46.0,25.0,-18.0,-24.0,13.0,12854.0,-8557.0,-360.0,5465.0,31.0,7.0,7.0,1.0
2022-05-13 12:14:34.966257-07:00,1285.5,786.9,1458.0,1208.9,1136.6,946.6,1680.5,1427.7,3472.2,3472.2,1213.3,890.7,2047.4,3464.9,1577.7,1359.4,3473.4,3481.9,395.0,640.8,933.9,1177.9,582.6,2532.5,3477.1,3481.9,752.1,1118.2,2371.3,1264.0,1216.0,1081.6,8.0,-21.0,-17.0,15482.0,-1212.0,4106.0,-3226.0,-57.0,5.0,5.0,-14.0,2.0,0.0,12855.0,-8553.0,-355.0,5468.0,-39.0,-8.0,1.0,1.0
2022-05-13 12:14:34.966881-07:00,1289.1,786.9,1458.0,1208.9,1133.1,951.7,1686.2,1427.7,3473.4,3472.2,1213.3,890.7,2039.4,3468.6,1585.2,1359.4,3473.4,3472.2,405.9,630.3,933.9,1177.9,582.6,2525.0,3477.1,3480.7,747.2,1114.7,2371.3,1264.0,1216.0,1076.4,10.0,-16.0,-3.0,15481.0,-1234.0,4108.0,-3219.0,20.0,-31.0,2.0,-4.0,-2.0,12.0,12851.0,-8557.0,-362.0,5472.0,25.0,-15.0,-7.0,1.0
2022-05-13 12:14:35.007615-07:00,1289.1,777.8,1457.1,1205.3,1133.1,951.7,1686.2,1436.0,3473.4,3474.6,1212.4,886.5,2039.4,3468.6,1585.2,1357.6,3474.6,3472.2,405.9,630.3,927.1,1182.3,582.6,2525.0,3472.2,3480.7,747.2,1114.7,2359.8,1255.1,1223.0,1076.4,13.0,-18.0,2.0,15483.0,-1237.0,4098.0,-3221.0,-15.0,36.0,7.0,-7.0,-9.0,10.0,12853.0,-8556.0,-367.0,5468.0,-37.0,-2.0,-20.0,1.0
2022-05-13 12:14:35.056067-07:00,1280.1,784.4,1457.1,1205.3,1134.9,939.0,1695.7,1436.0,3467.4,3473.4,1212.4,886.5,2046.4,3469.8,1578.6,1357.6,3474.6,3468.6,388.7,633.5,927.1,1182.3,576.2,2510.1,3472.2,3468.6,741.4,1115.6,2359.8,1255.1,1223.0,1072.9,19.0,-31.0,8.0,15481.0,-1248.0,4103.0,-3222.0,31.0,4.0,13.0,0.0,-11.0,4.0,12855.0,-8556.0,-372.0,5462.0,32.0,-10.0,-15.0,1.0
2022-05-13 12:14:35.100080-07:00,1280.1,784.4,1459.8,1206.2,1134.9,939.0,1691.9,1440.5,3467.4,3473.4,1205.3,893.2,2046.4,3469.8,1590.8,1363.9,3460.1,3469.8,388.7,633.5,933.9,1177.0,576.2,2510.1,3473.4,3473.4,741.4,1115.6,2357.7,1253.3,1223.0,1072.9,7.0,-19.0,-16.0,15483.0,-1245.0,4093.0,-3224.0,1.0,-54.0,-8.0,-10.0,0.0,2.0,12861.0,-8548.0,-376.0,5461.0,1.0,-15.0,-13.0,1.0
2022-05-13 12:14:35.235343-07:00,1286.4,788.6,1459.8,1206.2,1118.2,944.9,1691.9,1440.5,3466.1,3461.3,1205.3,893.2,2044.4,3473.4,1590.8,1363.9,3460.1,3469.8,395.7,640.8,933.9,1177.0,580.2,2513.3,3473.4,3473.4,748.8,1115.6,2357.7,1253.3,1213.3,1073.8,8.0,-16.0,-28.0,15489.0,-1254.0,4069.0,-3225.0,26.0,-74.0,-12.0,-6.0,12.0,-11.0,12866.0,-8543.0,-384.0,5457.0,19.0,-18.0,-32.0,1.0
2022-05-13 12:14:35.325086-07:00,1286.4,788.6,1453.4,1215.1,1118.2,944.9,1680.5,1429.5,3466.1,3461.3,1203.5,888.2,2044.4,3473.4,1576.8,1363.0,3478.3,3471.0,395.7,640.8,933.9,1183.2,580.2,2513.3,3478.3,3472.2,748.8,1115.6,2357.7,1255.1,1213.3,1073.8,4.0,-3.0,-49.0,15498.0,-1257.0,4026.0,-3234.0,36.0,-154.0,-30.0,-2.0,38.0,-13.0,12879.0,-8531.0,-402.0,5443.0,19.0,-35.0,-95.0,1.0
2022-05-13 12:14:35.503891-07:00,1281.9,779.4,1453.4,1215.1,1120.9,941.5,1680.5,1429.5,3469.8,3474.6,1203.5,888.2,2041.4,3483.2,1576.8,1363.0,3478.3,3471.0,397.3,638.4,933.9,1183.2,577.0,2524.0,3478.3,3472.2,746.3,1114.7,2357.7,1255.1,1218.6,1079.0,10.0,24.0,-61.0,15511.0,-1260.0,3958.0,-3254.0,21.0,-203.0,-95.0,0.0,44.0,-4.0,12901.0,-8521.0,-444.0,5404.0,-3.0,-42.0,-178.0,1.0
2022-05-13 12:14:35.505206-07:00,1281.9,779.4,1467.2,1205.3,1120.9,956.8,1689.1,1435.0,3469.8,3474.6,1205.3,884.8,2041.4,3467.4,1573.9,1361.2,3478.3,3469.8,398.9,638.4,934.7,1185.0,577.0,2524.0,3477.1,3473.4,742.2,1114.7,2364.0,1253.3,1218.6,1079.0,8.0,12.0,-98.0,15530.0,-1295.0,3837.0,-3294.0,5.0,-406.0,-146.0,-11.0,65.0,-25.0,12932.0,-8510.0,-508.0,5340.0,0.0,-77.0,-296.0,1.0
2022-05-13 12:14:35.507248-07:00,1279.2,778.6,1447.9,1205.3,1119.1,956.8,1689.1,1435.0,3471.0,3464.9,1204.4,884.8,2032.4,3467.4,1573.9,1361.2,3478.3,3469.8,398.9,632.7,934.7,1178.8,589.1,2553.0,3477.1,3473.4,742.2,1106.0,2364.0,1249.7,1209.7,1076.4,-9.0,3.0,-128.0,15556.0,-1357.0,3682.0,-3325.0,-63.0,-536.0,-119.0,-19.0,48.0,-38.0,12977.0,-8499.0,-639.0,5235.0,-41.0,-164.0,-463.0,1.0
2022-05-13 12:14:35.548804-07:00,1279.2,778.6,1447.9,1206.2,1119.1,949.2,1697.6,1430.5,3471.0,3464.9,1204.4,884.8,2032.4,3462.5,1573.9,1356.7,3478.3,3467.4,396.5,632.7,932.2,1178.8,589.1,2553.0,3479.5,3478.3,737.3,1106.0,2370.3,1249.7,1209.7,1076.4,28.0,-39.0,-59.0,15595.0,-1458.0,3453.0,-3343.0,-40.0,-667.0,-72.0,-4.0,32.0,-37.0,13047.0,-8460.0,-841.0,5093.0,11.0,-265.0,-607.0,1.0
2022-05-13 12:14:35.551509-07:00,1284.6,780.3,1448.8,1210.6,1134.9,944.1,1686.2,1430.5,3467.4,3467.4,1200.9,891.5,2043.4,3468.6,1567.4,1363.0,3472.2,3473.4,393.4,640.0,936.4,1177.0,574.6,2551.9,3477.1,3472.2,747.2,1106.0,2381.8,1252.4,1216.8,1074.7,12.0,-9.0,103.0,15706.0,-1676.0,2871.0,-3270.0,-48.0,-220.0,-104.0,7.0,-56.0,51.0,13203.0,-8336.0,-1433.0,4750.0,-47.0,-117.0,-283.0,1.0
2022-05-13 12:14:35.639421-07:00,1284.6,780.3,1448.8,1207.1,1127.9,942.4,1686.2,1418.6,3467.4,3467.4,1200.9,889.8,2029.4,3468.6,1573.9,1356.7,3475.9,3478.3,392.6,632.7,933.9,1177.0,574.6,2551.9,3488.0,3474.6,739.7,1099.9,2373.4,1252.4,1216.8,1074.7,-10.0,-5.0,36.0,15710.0,-1707.0,2775.0,-3318.0,22.0,-250.0,-154.0,-19.0,-28.0,32.0,13227.0,-8321.0,-1508.0,4687.0,16.0,-54.0,-207.0,1.0
2022-05-13 12:14:35.685022-07:00,1277.4,779.4,1441.5,1196.5,1127.9,942.4,1686.2,1418.6,3469.8,3475.9,1194.7,889.0,2029.4,3468.6,1573.9,1356.7,3475.9,3478.3,392.6,632.7,928.8,1174.4,574.6,2551.9,3488.0,3474.6,739.7,1099.9,2365.1,1245.3,1216.8,1068.6,35.0,-6.0,37.0,15714.0,-1739.0,2678.0,-3363.0,-86.0,-105.0,-106.0,-10.0,-6.0,2.0,13246.0,-8313.0,-1570.0,4627.0,-49.0,-38.0,-202.0,1.0
2022-05-13 12:14:35.730732-07:00,1277.4,779.4,1441.5,1196.5,1114.7,932.2,1680.5,1428.6,3469.8,3475.9,1194.7,889.0,2026.4,3457.6,1573.9,1359.4,3478.3,3479.5,391.1,629.5,928.8,1174.4,574.6,2551.9,3477.1,3475.9,732.3,1104.3,2365.1,1245.3,1216.8,1068.6,-64.0,-59.0,27.0,15686.0,-1801.0,2761.0,-3395.0,-53.0,-13.0,-67.0,-21.0,-75.0,51.0,13214.0,-8386.0,-1593.0,4581.0,12.0,75.0,0.0,1.0
2022-05-13 12:14:35.773213-07:00,1287.3,787.7,1433.2,1200.9,1114.7,932.2,1680.5,1428.6,3464.9,3474.6,1194.7,886.5,2026.4,3457.6,1573.9,1359.4,3478.3,3479.5,391.1,629.5,933.0,1171.8,569.0,2590.7,3477.1,3475.9,732.3,1104.3,2392.4,1248.0,1206.2,1075.6,9.0,-31.0,-44.0,15685.0,-1824.0,2734.0,-3410.0,3.0,-239.0,-75.0,9.0,-24.0,-5.0,13205.0,-8400.0,-1591.0,4580.0,-15.0,-36.0,2.0,1.0
2022-05-13 12:14:35.865267-07:00,1287.3,787.7,1433.2,1200.9,1127.0,940.7,1684.3,1428.6,3464.9,3474.6,1194.7,886.5,2026.4,3462.5,1574.9,1361.2,3477.1,3475.9,396.5,639.2,933.0,1171.8,569.0,2590.7,3485.6,3475.9,740.6,1097.3,2392.4,1248.0,1206.2,1075.6,43.0,-25.0,45.0,15700.0,-1858.0,2565.0,-3453.0,31.0,-506.0,-258.0,31.0,-49.0,7.0,13209.0,-8382.0,-1604.0,4596.0,85.0,-43.0,39.0,1.0
2022-05-13 12:14:35.867463-07:00,1284.6,779.4,1440.5,1197.4,1127.0,940.7,1684.3,1425.0,3467.4,3466.1,1190.3,889.0,2026.4,3462.5,1574.9,1352.1,3478.3,3475.9,396.5,639.2,936.4,1178.8,573.8,2750.2,3488.0,3475.9,740.6,1097.3,2514.3,1248.8,1204.4,1071.2,10.0,-52.0,-25.0,15709.0,-1892.0,2377.0,-3527.0,126.0,-347.0,-107.0,-2.0,20.0,-13.0,13211.0,-8363.0,-1586.0,4631.0,87.0,-21.0,97.0,1.0
2022-05-13 12:14:35.908556-07:00,1286.4,779.4,1440.5,1197.4,1133.1,939.8,1678.6,1425.0,3471.0,3466.1,1190.3,889.0,2054.4,3473.4,1562.7,1352.1,3478.3,3466.1,398.9,633.5,936.4,1178.8,573.8,3100.9,3488.0,3464.9,737.3,1100.8,2514.3,1248.8,1204.4,1073.8,33.0,-16.0,17.0,15729.0,-1862.0,2239.0,-3544.0,187.0,-241.0,-33.0,17.0,6.0,-7.0,13233.0,-8310.0,-1580.0,4667.0,157.0,-62.0,38.0,1.0
2022-05-13 12:14:35.998919-07:00,1286.4,774.5,1458.0,1196.5,1133.1,939.8,1678.6,1418.6,3471.0,3472.2,1187.6,883.1,2054.4,3473.4,1562.7,1344.9,3469.8,3466.1,398.9,633.5,928.8,1177.0,579.4,3100.9,3477.1,3464.9,737.3,1100.8,2656.9,1248.8,1200.9,1073.8,12.0,6.0,29.0,15739.0,-1838.0,2135.0,-3575.0,48.0,-249.0,-173.0,2.0,-23.0,23.0,13244.0,-8283.0,-1562.0,4689.0,18.0,33.0,61.0,1.0
2022-05-13 12:14:36.000574-07:00,1289.1,774.5,1458.0,1196.5,1117.4,939.0,1684.3,1418.6,3467.4,3472.2,1187.6,883.1,2051.4,3474.6,1551.5,1344.9,3469.8,3480.7,396.5,634.3,928.8,1177.0,579.4,3501.4,3477.1,3472.2,729.0,1096.4,2656.9,1248.8,1200.9,1073.8,25.0,-48.0,48.0,15738.0,-1875.0,2003.0,-3635.0,20.0,-262.0,-115.0,3.0,-27.0,18.0,13247.0,-8278.0,-1525.0,4700.0,67.0,84.0,100.0,1.0
2022-05-13 12:14:36.088721-07:00,1289.1,783.6,1451.6,1177.9,1117.4,939.0,1684.3,1423.1,3467.4,3471.0,1179.7,893.2,2051.4,3474.6,1551.5,1332.3,3474.6,3480.7,396.5,634.3,933.0,1171.8,578.6,3501.4,3477.1,3472.2,729.0,1096.4,2709.5,1245.3,1214.2,1073.8,35.0,-23.0,25.0,15752.0,-1894.0,1860.0,-3641.0,34.0,-433.0,27.0,19.0,-19.0,36.0,13263.0,-8251.0,-1459.0,4726.0,154.0,104.0,149.0,1.0
2022-05-13 12:14:36.180408-07:00,1281.0,785.2,1451.6,1177.9,1140.1,939.8,1693.8,1423.1,3478.3,3477.1,1179.7,893.2,2028.4,3457.6,1507.8,1332.3,3474.6,3478.3,393.4,633.5,933.0,1171.8,597.9,3503.9,3477.1,3486.8,726.6,1094.7,2709.5,1245.3,1245.3,1086.8,76.0,35.0,83.0,15773.0,-1918.0,1707.0,-3613.0,-84.0,-231.0,0.0,45.0,-6.0,57.0,13284.0,-8215.0,-1376.0,4755.0,-29.0,184.0,213.0,1.0
2022-05-13 12:14:36.182372-07:00,1281.0,785.2,1450.6,1163.8,1140.1,939.8,1697.6,1418.6,3478.3,3477.1,1174.4,887.3,2028.4,3457.6,1468.1,1312.4,3480.7,3488.0,393.4,633.5,934.7,1170.9,597.9,3503.9,3480.7,3471.0,726.6,1094.7,2618.8,1225.7,1245.3,1086.8,159.0,56.0,114.0,15762.0,-2028.0,1700.0,-3603.0,-460.0,167.0,-46.0,122.0,2.0,89.0,13224.0,-8313.0,-1259.0,4783.0,-368.0,339.0,304.0,1.0
2022-05-13 12:14:36.314244-07:00,1279.2,777.8,1450.6,1163.8,1111.2,937.3,1697.6,1418.6,3460.1,3468.6,1174.4,887.3,1992.5,3468.6,1468.1,1312.4,3480.7,3488.0,389.5,637.6,934.7,1170.9,607.6,3486.8,3480.7,3471.0,723.3,1106.9,2618.8,1225.7,1207.1,1072.1,134.0,150.0,2.0,15703.0,-2284.0,1915.0,-3603.0,-1047.0,673.0,16.0,103.0,123.0,71.0,13074.0,-8566.0,-1112.0,4783.0,-865.0,556.0,280.0,1.0
2022-05-13 12:14:36.316327-07:00,1279.2,777.8,1410.3,1127.0,1111.2,937.3,1729.1,1438.7,3460.1,3468.6,1170.0,888.2,1992.5,3468.6,1447.9,1304.3,3467.4,3472.2,389.5,637.6,927.9,1176.2,607.6,3486.8,3483.2,3478.3,723.3,1106.9,2547.6,1201.8,1207.1,1072.1,59.0,156.0,-82.0,15556.0,-2803.0,2430.0,-3562.0,-2273.0,1290.0,87.0,27.0,165.0,8.0,12788.0,-9061.0,-1002.0,4667.0,-1736.0,730.0,39.0,1.0
2022-05-13 12:14:36.404721-07:00,1290.9,771.1,1410.3,1127.0,1090.3,927.1,1729.1,1438.7,3461.3,3473.4,1170.0,888.2,1964.7,3475.9,1447.9,1304.3,3467.4,3472.2,393.4,638.4,927.9,1176.2,595.5,3489.2,3483.2,3478.3,727.4,1105.1,2547.6,1201.8,1177.9,1072.9,52.0,54.0,-70.0,15227.0,-3718.0,3292.0,-3450.0,-2779.0,1806.0,66.0,16.0,133.0,-76.0,12333.0,-9791.0,-993.0,4415.0,-2116.0,775.0,-151.0,1.0
2022-05-13 12:14:36.449862-07:00,1290.9,771.1,1368.5,1109.5,1090.3,916.9,1749.3,1442.4,3461.3,3473.4,1161.2,883.1,1964.7,3467.4,1440.5,1310.6,3474.6,3468.6,392.6,638.4,927.9,1175.3,595.5,3489.2,3469.8,3483.2,717.5,1105.1,2510.1,1172.6,1177.9,1072.9,31.0,94.0,-185.0,14699.0,-4653.0,4377.0,-3402.0,-2970.0,2357.0,-246.0,-30.0,93.0,-121.0,11803.0,-10559.0,-1049.0,4067.0,-2313.0,798.0,-373.0,1.0
2022-05-13 12:14:36.451054-07:00,1296.3,781.9,1349.4,1109.5,1072.9,916.9,1749.3,1442.4,3467.4,3473.4,1148.0,883.1,1947.9,3467.4,1440.5,1310.6,3474.6,3468.6,392.6,641.6,927.9,1163.8,602.0,3499.0,3469.8,3483.2,717.5,1092.1,2510.1,1163.8,1170.9,1053.9,28.0,109.0,-233.0,13950.0,-5674.0,5432.0,-3486.0,-3329.0,2006.0,-792.0,-38.0,101.0,-127.0,11159.0,-11373.0,-1182.0,3629.0,-2699.0,806.0,-480.0,1.0
2022-05-13 12:14:36.452115-07:00,1296.3,781.9,1349.4,1105.1,1072.9,906.7,1744.5,1416.7,3467.4,3473.4,1148.0,882.3,1947.9,3472.2,1430.5,1299.8,3467.4,3468.6,395.0,641.6,930.5,1163.8,602.0,3499.0,3467.4,3467.4,709.3,1092.1,2487.6,1163.8,1170.9,1053.9,4.0,-104.0,-205.0,13000.0,-6856.0,6295.0,-3577.0,-3361.0,1905.0,-870.0,-49.0,-35.0,-147.0,10345.0,-12226.0,-1390.0,3163.0,-2904.0,650.0,-497.0,1.0
2022-05-13 12:14:36.495061-07:00,1273.9,769.5,1341.3,1105.1,1079.0,906.7,1744.5,1416.7,3475.9,3471.0,1142.7,882.3,1931.1,3472.2,1430.5,1299.8,3467.4,3468.6,395.0,641.6,930.5,1168.2,591.5,3416.5,3467.4,3467.4,709.3,1066.0,2487.6,1161.2,1156.8,1052.2,-65.0,-125.0,-136.0,12088.0,-7755.0,6966.0,-3695.0,-1717.0,1239.0,-701.0,-88.0,-67.0,-59.0,9712.0,-12809.0,-1549.0,2766.0,-1621.0,516.0,-437.0,1.0
2022-05-13 12:14:36.628653-07:00,1273.9,769.5,1341.3,1097.3,1079.0,898.3,1745.4,1422.2,3475.9,3471.0,1142.7,878.9,1931.1,3472.2,1434.1,1303.4,3481.9,3473.4,391.8,641.6,930.5,1168.2,591.5,3416.5,3478.3,3474.6,713.4,1066.0,2445.1,1161.2,1156.8,1052.2,-60.0,-44.0,-85.0,11620.0,-8112.0,7245.0,-3891.0,-250.0,544.0,-563.0,-71.0,-31.0,-19.0,9452.0,-13051.0,-1611.0,2486.0,-444.0,427.0,-365.0,1.0
2022-05-13 12:14:36.672682-07:00,1275.6,764.5,1335.0,1097.3,1070.3,898.3,1745.4,1422.2,3468.6,3468.6,1140.1,878.9,1922.3,3472.2,1434.1,1303.4,3481.9,3473.4,391.8,635.9,930.5,1169.1,588.3,3447.9,3478.3,3474.6,713.4,1045.2,2445.1,1155.0,1142.7,1046.1,6.0,29.0,-61.0,11492.0,-8209.0,7213.0,-4117.0,-14.0,7.0,-554.0,-46.0,60.0,-18.0,9457.0,-13082.0,-1665.0,2256.0,-4.0,309.0,-433.0,1.0
2022-05-13 12:14:36.675601-07:00,1275.6,764.5,1335.0,1089.5,1055.6,896.6,1750.2,1419.5,3468.6,3468.6,1140.1,877.2,1912.4,3466.1,1424.1,1298.1,3479.5,3474.6,393.4,640.8,923.7,1169.1,588.3,3447.9,3474.6,3478.3,707.7,1034.0,2421.9,1155.0,1142.7,1046.1,5.0,-4.0,4.0,11402.0,-8343.0,7127.0,-4246.0,-366.0,78.0,-488.0,-20.0,-15.0,-24.0,9439.0,-13114.0,-1792.0,2037.0,-347.0,201.0,-567.0,1.0
2022-05-13 12:14:36.718143-07:00,1272.1,767.0,1334.1,1090.3,1055.6,896.6,1750.2,1419.5,3475.9,3478.3,1133.1,882.3,1912.4,3466.1,1424.1,1298.1,3479.5,3474.6,393.4,640.8,933.0,1166.5,589.1,3360.0,3474.6,3478.3,707.7,1034.0,2402.9,1139.2,1133.1,1044.4,-50.0,-68.0,56.0,11214.0,-8602.0,7079.0,-4310.0,-408.0,-220.0,-645.0,-34.0,-112.0,-23.0,9305.0,-13215.0,-1982.0,1812.0,-524.0,136.0,-581.0,1.0
2022-05-13 12:14:36.854937-07:00,1272.1,767.0,1334.1,1090.3,1063.4,876.4,1733.9,1416.7,3475.9,3478.3,1133.1,882.3,1908.5,3471.0,1422.2,1296.3,3477.1,3472.2,393.4,640.0,933.0,1166.5,589.1,3360.0,3478.3,3472.2,704.4,1032.3,2402.9,1139.2,1133.1,1044.4,-109.0,-253.0,-14.0,11126.0,-8857.0,6848.0,-4394.0,-84.0,-520.0,-759.0,-74.0,-200.0,-45.0,9199.0,-13283.0,-2156.0,1652.0,-130.0,-30.0,-408.0,1.0
2022-05-13 12:14:36.945525-07:00,1270.3,764.5,1332.3,1098.2,1063.4,876.4,1733.9,1416.7,3478.3,3471.0,1128.7,875.5,1908.5,3471.0,1422.2,1296.3,3477.1,3472.2,393.4,640.0,927.1,1169.1,589.1,3313.4,3478.3,3472.2,704.4,1032.3,2390.3,1136.6,1130.5,1040.9,24.0,-89.0,48.0,11215.0,-8957.0,6552.0,-4416.0,73.0,-369.0,93.0,4.0,-17.0,-48.0,9220.0,-13257.0,-2238.0,1629.0,22.0,-64.0,-82.0,1.0
2022-05-13 12:14:37.213610-07:00,1270.3,764.5,1332.3,1098.2,1055.6,893.2,1733.0,1409.4,3478.3,3471.0,1128.7,875.5,1890.9,3473.4,1420.4,1293.6,3474.6,3488.0,395.0,643.2,927.1,1169.1,589.1,3313.4,3484.4,3479.5,694.6,1021.9,2390.3,1136.6,1130.5,1040.9,35.0,-3.0,31.0,11296.0,-8931.0,6492.0,-4352.0,87.0,-74.0,24.0,11.0,21.0,-40.0,9251.0,-13232.0,-2248.0,1648.0,129.0,-15.0,22.0,1.0
2022-05-13 12:14:37.260374-07:00,1269.4,769.5,1320.5,1087.7,1055.6,893.2,1733.0,1406.7,3468.6,3477.1,1132.2,873.8,1890.9,3473.4,1420.4,1290.9,3472.2,3488.0,395.0,643.2,922.0,1159.4,589.9,3287.2,3479.5,3479.5,694.6,1021.9,2375.5,1141.9,1127.9,1036.6,33.0,-15.0,7.0,11311.0,-8903.0,6504.0,-4353.0,-15.0,98.0,129.0,14.0,3.0,-21.0,9256.0,-13230.0,-2232.0,1659.0,-27.0,0.0,52.0,1.0
2022-05-13 12:14:37.305553-07:00,1266.7,769.5,1320.5,1087.7,1046.1,890.7,1721.5,1406.7,3462.5,3477.1,1132.2,873.8,1888.9,3471.0,1411.3,1290.9,3472.2,3467.4,391.8,637.6,922.0,1159.4,589.9,3258.8,3479.5,3480.7,696.2,1016.8,2375.5,1141.9,1127.9,1031.4,39.0,40.0,10.0,11285.0,-8894.0,6573.0,-4333.0,-90.0,137.0,61.0,17.0,14.0,-7.0,9225.0,-13254.0,-2219.0,1653.0,-104.0,35.0,38.0,1.0
2022-05-13 12:14:37.306660-07:00,1266.7,768.7,1313.3,1085.1,1046.1,890.7,1721.5,1396.7,3462.5,3478.3,1125.2,871.3,1888.9,3471.0,1411.3,1287.3,3475.9,3467.4,391.8,637.6,930.5,1170.9,585.1,3258.8,3473.4,3480.7,696.2,1016.8,2358.8,1136.6,1129.6,1031.4,-2.0,-16.0,10.0,11253.0,-8909.0,6593.0,-4355.0,34.0,20.0,-60.0,-19.0,1.0,-3.0,9207.0,-13270.0,-2210.0,1637.0,24.0,40.0,1.0,1.0
2022-05-13 12:14:37.307724-07:00,1277.4,768.7,1313.3,1085.1,1043.5,878.0,1726.3,1396.7,3478.3,3478.3,1125.2,871.3,1884.0,3474.6,1416.7,1287.3,3475.9,3469.8,385.6,640.0,930.5,1170.9,585.1,3212.9,3473.4,3475.9,697.0,1018.5,2358.8,1136.6,1129.6,1025.4,11.0,-3.0,9.0,11256.0,-8901.0,6588.0,-4374.0,18.0,33.0,3.0,-16.0,12.0,-24.0,9218.0,-13265.0,-2197.0,1632.0,4.0,25.0,15.0,1.0
2022-05-13 12:14:37.308403-07:00,1277.4,768.7,1313.3,1085.1,1043.5,878.0,1726.3,1396.7,3478.3,3478.3,1125.2,871.3,1884.0,3474.6,1416.7,1287.3,3475.9,3469.8,385.6,640.0,930.5,1170.9,585.1,3212.9,3473.4,3475.9,697.0,1018.5,2358.8,1136.6,1129.6,1025.4,11.0,-3.0,9.0,11256.0,-8901.0,6588.0,-4374.0,18.0,33.0,3.0,-16.0,12.0,-24.0,9218.0,-13265.0,-2197.0,1632.0,4.0,25.0,15.0,1.0
2022-05-13 12:14:37.309087-07:00,1277.4,768.7,1313.3,1085.1,1043.5,878.0,1726.3,1396.7,3478.3,3478.3,1125.2,871.3,1884.0,3474.6,1416.7,1287.3,3475.9,3469.8,385.6,640.0,930.5,1170.9,585.1,3212.9,3473.4,3475.9,697.0,1018.5,2358.8,1136.6,1129.6,1025.4,11.0,-3.0,9.0,11256.0,-8901.0,6588.0,-4374.0,18.0,33.0,3.0,-16.0,12.0,-24.0,9218.0,-13265.0,-2197.0,1632.0,4.0,25.0,15.0,1.0
2022-05-13 12:14:37.350605-07:00,1277.4,768.7,1313.3,1085.1,1043.5,878.0,1726.3,1396.7,3478.3,3478.3,1125.2,871.3,1884.0,3474.6,1416.7,1287.3,3475.9,3469.8,385.6,640.0,930.5,1170.9,585.1,3212.9,3473.4,3475.9,697.0,1018.5,2358.8,1136.6,1129.6,1025.4,11.0,-3.0,9.0,11256.0,-8901.0,6588.0,-4374.0,18.0,33.0,3.0,-16.0,12.0,-24.0,9218.0,-13265.0,-2197.0,1632.0,4.0,25.0,15.0,1.0
2022-05-13 12:14:37.351802-07:00,1274.7,775.3,1303.4,1071.2,1034.0,883.1,1724.4,1383.9,3473.4,3468.6,1120.0,877.2,1875.2,3473.4,1409.4,1285.5,3473.4,3472.2,389.5,639.2,928.8,1164.7,581.0,3154.3,3469.8,3480.7,694.6,1009.9,2329.5,1130.5,1113.0,1019.4,6.0,-8.0,12.0,11223.0,-8912.0,6625.0,-4377.0,1.0,-33.0,4.0,-9.0,4.0,-9.0,9155.0,-13311.0,-2183.0,1638.0,8.0,-15.0,-3.0,1.0
2022-05-13 12:14:37.485401-07:00,1274.7,775.3,1303.4,1080.8,1034.0,881.4,1723.4,1391.2,3473.4,3468.6,1124.4,867.9,1875.2,3478.3,1408.5,1282.8,3464.9,3472.2,396.5,639.2,935.6,1158.6,581.0,3154.3,3471.0,3477.1,697.9,1009.9,2329.5,1120.9,1113.0,1019.4,1.0,-4.0,15.0,11233.0,-8908.0,6619.0,-4370.0,21.0,-11.0,28.0,-13.0,3.0,-7.0,9158.0,-13306.0,-2186.0,1650.0,22.0,-31.0,-3.0,1.0
2022-05-13 12:14:37.486634-07:00,1273.0,767.8,1302.5,1080.8,1038.3,881.4,1723.4,1391.2,3467.4,3466.1,1123.5,867.9,1873.2,3478.3,1408.5,1282.8,3464.9,3472.2,396.5,637.6,935.6,1163.0,577.0,3142.7,3471.0,3477.1,697.9,1007.3,2329.5,1120.9,1111.2,1021.1,9.0,-5.0,19.0,11243.0,-8899.0,6619.0,-4363.0,7.0,3.0,31.0,-7.0,3.0,-8.0,9163.0,-13301.0,-2190.0,1661.0,9.0,-23.0,-6.0,1.0
2022-05-13 12:14:37.528420-07:00,1273.0,767.8,1302.5,1072.9,1038.3,869.6,1711.0,1373.9,3467.4,3466.1,1123.5,872.1,1873.2,3463.7,1404.0,1289.1,3480.7,3475.9,392.6,637.6,929.6,1163.0,577.0,3142.7,3478.3,3467.4,698.7,1007.3,2313.9,1120.9,1111.2,1021.1,11.0,1.0,17.0,11254.0,-8877.0,6632.0,-4358.0,36.0,21.0,70.0,-3.0,6.0,-4.0,9171.0,-13294.0,-2192.0,1669.0,54.0,-11.0,4.0,1.0
2022-05-13 12:14:37.618729-07:00,1265.8,765.3,1292.7,1072.9,1039.2,869.6,1711.0,1373.9,3477.1,3463.7,1127.9,872.1,1864.5,3463.7,1404.0,1289.1,3480.7,3475.9,392.6,637.6,929.6,1159.4,570.6,3127.5,3478.3,3467.4,698.7,1007.3,2313.9,1121.7,1112.1,1024.5,17.0,-1.0,12.0,11257.0,-8870.0,6649.0,-4339.0,-58.0,-1.0,54.0,-4.0,0.0,-14.0,9173.0,-13293.0,-2193.0,1672.0,-41.0,-8.0,11.0,1.0
2022-05-13 12:14:37.620430-07:00,1265.8,765.3,1292.7,1072.1,1039.2,878.9,1715.8,1386.6,3477.1,3463.7,1127.9,868.8,1864.5,3468.6,1403.0,1288.2,3483.2,3478.3,384.0,637.6,926.2,1159.4,570.6,3127.5,3483.2,3467.4,685.6,1007.3,2313.9,1121.7,1112.1,1024.5,9.0,13.0,9.0,11252.0,-8875.0,6655.0,-4332.0,-5.0,-32.0,-29.0,-5.0,10.0,-1.0,9159.0,-13301.0,-2195.0,1674.0,-5.0,-12.0,-10.0,1.0
2022-05-13 12:14:37.800087-07:00,1260.4,762.9,1295.4,1072.1,1028.0,878.9,1715.8,1386.6,3471.0,3464.9,1126.1,868.8,1856.7,3468.6,1403.0,1288.2,3483.2,3478.3,384.0,630.3,926.2,1156.8,580.2,3154.3,3483.2,3467.4,685.6,1003.9,2313.9,1123.5,1111.2,1021.9,4.0,-8.0,16.0,11259.0,-8885.0,6627.0,-4337.0,13.0,-53.0,-41.0,-7.0,14.0,-10.0,9162.0,-13298.0,-2201.0,1674.0,21.0,-14.0,-21.0,1.0
2022-05-13 12:14:37.890107-07:00,1260.4,762.9,1295.4,1067.7,1021.1,878.9,1709.1,1388.5,3471.0,3464.9,1126.1,871.3,1862.5,3478.3,1405.8,1289.1,3474.6,3488.0,387.9,632.7,924.5,1156.8,580.2,3154.3,3471.0,3477.1,694.6,1003.0,2308.7,1123.5,1111.2,1021.9,11.0,-5.0,18.0,11269.0,-8886.0,6608.0,-4339.0,17.0,-8.0,9.0,-4.0,8.0,-8.0,9164.0,-13296.0,-2206.0,1676.0,15.0,-11.0,-5.0,1.0
2022-05-13 12:14:37.979559-07:00,1267.6,772.0,1295.4,1075.6,1021.1,878.9,1709.1,1388.5,3467.4,3479.5,1120.9,873.8,1862.5,3478.3,1405.8,1289.1,3474.6,3488.0,387.9,632.7,925.4,1160.3,575.4,3143.8,3471.0,3477.1,694.6,1003.0,2310.8,1127.0,1105.1,1021.9,11.0,6.0,13.0,11269.0,-8887.0,6605.0,-4341.0,-25.0,4.0,-21.0,-3.0,8.0,-7.0,9164.0,-13296.0,-2206.0,1677.0,-21.0,-1.0,-2.0,1.0
2022-05-13 12:14:37.982700-07:00,1267.6,772.0,1295.4,1075.6,1034.0,868.8,1711.9,1382.1,3467.4,3479.5,1120.9,873.8,1854.7,3464.9,1407.6,1281.0,3481.9,3478.3,396.5,636.7,925.4,1160.3,575.4,3143.8,3488.0,3477.1,691.3,1004.8,2310.8,1127.0,1105.1,1021.9,6.0,-10.0,11.0,11267.0,-8891.0,6597.0,-4350.0,19.0,-9.0,-21.0,-7.0,3.0,-9.0,9160.0,-13299.0,-2208.0,1675.0,15.0,4.0,-8.0,1.0
2022-05-13 12:14:37.983820-07:00,1255.1,767.0,1290.0,1069.5,1034.0,868.8,1711.9,1382.1,3478.3,3475.9,1127.0,871.3,1854.7,3464.9,1407.6,1281.0,3481.9,3478.3,396.5,636.7,932.2,1161.2,577.8,3129.9,3488.0,3477.1,691.3,1004.8,2300.4,1121.7,1104.3,1020.2,7.0,-9.0,7.0,11273.0,-8883.0,6594.0,-4355.0,12.0,18.0,22.0,-8.0,10.0,-11.0,9163.0,-13296.0,-2207.0,1678.0,1.0,-8.0,-2.0,1.0
2022-05-13 12:14:38.070588-07:00,1255.1,767.0,1290.0,1069.5,1034.0,875.5,1715.8,1381.2,3478.3,3475.9,1127.0,871.3,1852.8,3467.4,1404.0,1284.6,3467.4,3477.1,393.4,638.4,932.2,1161.2,577.8,3129.9,3473.4,3477.1,689.7,999.6,2300.4,1121.7,1104.3,1020.2,5.0,10.0,9.0,11272.0,-8873.0,6611.0,-4352.0,-11.0,26.0,40.0,-9.0,8.0,-3.0,9156.0,-13301.0,-2209.0,1680.0,-45.0,-10.0,3.0,1.0
2022-05-13 12:14:38.072196-07:00,1264.9,772.8,1283.7,1066.9,1034.0,875.5,1715.8,1378.5,3467.4,3471.0,1117.4,864.6,1852.8,3467.4,1404.0,1285.5,3467.4,3477.1,393.4,638.4,933.0,1158.6,574.6,3131.0,3479.5,3477.1,689.7,999.6,2277.6,1106.0,1101.7,1016.8,2.0,1.0,11.0,11266.0,-8879.0,6616.0,-4348.0,-22.0,-7.0,-19.0,-10.0,6.0,-1.0,9138.0,-13313.0,-2211.0,1679.0,-17.0,1.0,-13.0,1.0
2022-05-13 12:14:38.072897-07:00,1264.9,772.8,1283.7,1066.9,1034.0,875.5,1715.8,1378.5,3467.4,3471.0,1117.4,864.6,1852.8,3467.4,1404.0,1285.5,3467.4,3477.1,393.4,638.4,933.0,1158.6,574.6,3131.0,3479.5,3477.1,689.7,999.6,2277.6,1106.0,1101.7,1016.8,2.0,1.0,11.0,11266.0,-8879.0,6616.0,-4348.0,-22.0,-7.0,-19.0,-10.0,6.0,-1.0,9138.0,-13313.0,-2211.0,1679.0,-17.0,1.0,-13.0,1.0
2022-05-13 12:14:38.074197-07:00,1265.8,759.6,1289.1,1069.5,1031.4,873.0,1715.8,1376.6,3473.4,3475.9,1121.7,864.6,1852.8,3480.7,1404.0,1281.0,3475.9,3472.2,389.5,640.8,929.6,1164.7,575.4,3105.5,3480.7,3480.7,688.9,999.6,2281.7,1120.9,1103.4,1028.8,10.0,0.0,10.0,11268.0,-8878.0,6611.0,-4354.0,-28.0,20.0,10.0,0.0,3.0,-3.0,9137.0,-13313.0,-2213.0,1679.0,-25.0,-2.0,3.0,1.0
2022-05-13 12:14:38.203326-07:00,1265.8,759.6,1289.1,1069.5,1021.9,878.9,1705.3,1376.6,3467.4,3475.9,1121.7,864.6,1852.8,3469.8,1400.3,1281.0,3475.9,3467.4,391.8,635.9,929.6,1164.7,575.4,3063.9,3480.7,3472.2,684.0,996.2,2281.7,1120.9,1103.4,1019.4,7.0,3.0,2.0,11266.0,-8879.0,6611.0,-4355.0,9.0,-8.0,-9.0,-9.0,4.0,-8.0,9136.0,-13313.0,-2212.0,1679.0,10.0,4.0,-5.0,1.0
2022-05-13 12:14:38.250262-07:00,1265.8,764.5,1276.5,1067.7,1021.9,878.9,1705.3,1367.6,3467.4,3478.3,1119.1,872.1,1852.8,3469.8,1400.3,1281.9,3475.9,3467.4,391.8,635.9,928.8,1156.8,575.4,3063.9,3473.4,3472.2,684.0,996.2,2284.8,1120.9,1097.3,1019.4,7.0,-3.0,11.0,11268.0,-8882.0,6602.0,-4358.0,9.0,-7.0,-11.0,-5.0,0.0,-8.0,9138.0,-13312.0,-2211.0,1680.0,13.0,-7.0,-4.0,1.0
2022-05-13 12:14:38.251423-07:00,1269.4,772.0,1276.5,1067.7,1005.6,868.8,1709.1,1367.6,3464.9,3471.0,1119.1,872.1,1846.9,3472.2,1406.7,1281.9,3475.9,3474.6,396.5,633.5,928.8,1156.8,575.4,3063.9,3473.4,3481.9,690.5,997.0,2284.8,1120.9,1101.7,1007.3,17.0,-27.0,19.0,11274.0,-8877.0,6596.0,-4362.0,16.0,1.0,26.0,0.0,-1.0,-20.0,9140.0,-13311.0,-2210.0,1681.0,-3.0,9.0,3.0,1.0
2022-05-13 12:14:38.339950-07:00,1269.4,772.0,1282.8,1062.5,1005.6,868.8,1711.0,1373.9,3464.9,3471.0,1120.0,865.4,1846.9,3472.2,1402.1,1282.8,3467.4,3469.8,396.5,633.5,930.5,1164.7,575.4,3063.9,3464.9,3469.8,690.5,997.0,2266.2,1114.7,1101.7,1007.3,-60.0,-241.0,45.0,11340.0,-8767.0,6629.0,-4364.0,644.0,96.0,418.0,-33.0,-77.0,-13.0,9195.0,-13276.0,-2187.0,1688.0,489.0,34.0,45.0,1.0
2022-05-13 12:14:38.341168-07:00,1259.6,773.6,1282.8,1062.5,1019.4,872.1,1711.0,1373.9,3466.1,3467.4,1120.0,865.4,1851.8,3467.4,1402.1,1282.8,3467.4,3469.8,394.2,640.8,930.5,1164.7,574.6,3035.2,3464.9,3469.8,690.5,995.3,2266.2,1114.7,1096.4,1018.5,-184.0,-345.0,-50.0,11842.0,-8014.0,6663.0,-4424.0,2562.0,107.0,1189.0,-120.0,-288.0,-165.0,9730.0,-12898.0,-2052.0,1790.0,2263.0,8.0,249.0,1.0
2022-05-13 12:14:38.342225-07:00,1259.6,773.6,1282.8,1072.1,1019.4,872.1,1702.4,1374.8,3466.1,3467.4,1114.7,871.3,1851.8,3467.4,1401.2,1280.1,3472.2,3472.2,394.2,640.8,924.5,1163.0,574.6,3035.2,3472.2,3466.1,690.5,995.3,2263.1,1120.0,1096.4,1018.5,-226.0,-273.0,-124.0,12488.0,-6992.0,6611.0,-4461.0,2156.0,-148.0,1354.0,-134.0,-238.0,-97.0,10498.0,-12270.0,-1787.0,2117.0,2261.0,-326.0,774.0,1.0
2022-05-13 12:14:38.430817-07:00,1258.7,767.0,1282.8,1072.1,1022.8,871.3,1702.4,1374.8,3471.0,3468.6,1114.7,871.3,1851.8,3471.0,1401.2,1280.1,3472.2,3472.2,390.3,637.6,924.5,1163.0,580.2,3018.0,3472.2,3466.1,699.5,996.2,2263.1,1120.0,1096.4,1013.3,-95.0,-57.0,-123.0,13153.0,-6095.0,6364.0,-4218.0,2490.0,-1227.0,1442.0,-560.0,-263.0,-28.0,11138.0,-11622.0,-1472.0,2671.0,2502.0,-654.0,1084.0,1.0
2022-05-13 12:14:38.562727-07:00,1258.7,767.0,1281.9,1069.5,1022.8,871.3,1686.2,1356.7,3471.0,3468.6,1118.2,872.1,1851.8,3471.0,1395.7,1274.7,3478.3,3475.9,390.3,637.6,927.1,1165.6,580.2,3018.0,3480.7,3480.7,699.5,996.2,2262.1,1119.1,1096.4,1013.3,16.0,39.0,-210.0,14036.0,-4984.0,5562.0,-3956.0,3287.0,-2256.0,1285.0,-61.0,28.0,-127.0,11899.0,-10729.0,-1133.0,3236.0,3159.0,-705.0,904.0,1.0
2022-05-13 12:14:38.654272-07:00,1257.8,764.5,1289.1,1069.5,1025.4,873.0,1686.2,1356.7,3475.9,3473.4,1119.1,872.1,1851.8,3475.9,1395.7,1274.7,3478.3,3475.9,392.6,638.4,927.1,1155.9,584.3,3055.8,3480.7,3480.7,692.1,993.6,2262.1,1116.5,1099.0,1015.1,101.0,136.0,-156.0,14824.0,-3859.0,4450.0,-3743.0,2994.0,-2409.0,768.0,55.0,119.0,-60.0,12465.0,-9880.0,-915.0,3824.0,2012.0,-836.0,916.0,1.0
2022-05-13 12:14:38.656281-07:00,1257.8,764.5,1289.1,1069.5,1025.4,872.1,1683.3,1369.4,3475.9,3473.4,1119.1,872.1,1851.8,3469.8,1403.0,1288.2,3478.3,3473.4,391.1,638.4,923.7,1155.9,584.3,3055.8,3481.9,3471.0,683.1,993.6,2256.9,1116.5,1099.0,1015.1,187.0,148.0,-79.0,15314.0,-3112.0,3432.0,-3529.0,1886.0,-1838.0,511.0,106.0,179.0,-89.0,12785.0,-9257.0,-804.0,4317.0,1439.0,-732.0,676.0,1.0
2022-05-13 12:14:38.833961-07:00,1266.7,774.5,1273.9,1069.5,1025.4,872.1,1683.3,1369.4,3469.8,3467.4,1118.2,872.1,1847.9,3469.8,1403.0,1288.2,3478.3,3473.4,391.1,635.1,923.7,1158.6,591.5,3074.3,3481.9,3471.0,683.1,1004.8,2256.9,1126.1,1097.3,1010.8,132.0,147.0,-170.0,15538.0,-2736.0,2843.0,-3382.0,594.0,-1018.0,214.0,106.0,144.0,-34.0,12862.0,-8997.0,-808.0,4626.0,254.0,-490.0,398.0,1.0
2022-05-13 12:14:38.836185-07:00,1266.7,774.5,1273.9,1067.7,1025.4,883.1,1695.7,1354.9,3469.8,3467.4,1118.2,871.3,1847.9,3478.3,1401.2,1288.2,3474.6,3477.1,391.1,635.1,927.9,1158.6,591.5,3074.3,3480.7,3478.3,691.3,1004.8,2255.9,1126.1,1097.3,1010.8,152.0,39.0,-92.0,15652.0,-2634.0,2318.0,-3336.0,833.0,-1225.0,-19.0,145.0,134.0,-10.0,12907.0,-8808.0,-850.0,4852.0,683.0,-479.0,253.0,1.0
2022-05-13 12:14:38.839648-07:00,1271.2,770.3,1269.4,1067.7,1014.2,883.1,1695.7,1354.9,3467.4,3473.4,1114.7,871.3,1847.9,3478.3,1401.2,1288.2,3474.6,3477.1,391.1,640.0,927.9,1153.3,589.1,3114.8,3480.7,3478.3,691.3,1028.0,2255.9,1109.5,1094.7,1015.9,119.0,136.0,-109.0,15762.0,-2377.0,1797.0,-3337.0,615.0,-1047.0,-188.0,111.0,125.0,23.0,13000.0,-8577.0,-915.0,5005.0,327.0,-425.0,12.0,1.0
2022-05-13 12:14:38.840766-07:00,1271.2,770.3,1269.4,1066.9,1016.8,889.0,1675.7,1353.1,3467.4,3473.4,1114.7,867.9,1838.2,3466.1,1385.7,1281.0,3480.7,3479.5,390.3,655.4,929.6,1153.3,589.1,3114.8,3477.1,3472.2,696.2,1047.8,2246.6,1109.5,1094.7,1015.9,117.0,82.0,-30.0,15809.0,-2274.0,1342.0,-3399.0,391.0,-753.0,-227.0,87.0,138.0,11.0,13069.0,-8429.0,-1007.0,5059.0,178.0,-273.0,-138.0,1.0
2022-05-13 12:14:39.015644-07:00,1267.6,767.8,1270.3,1066.9,1016.8,889.0,1675.7,1353.1,3461.3,3478.3,1122.6,873.0,1838.2,3466.1,1385.7,1281.0,3480.7,3479.5,390.3,655.4,929.6,1167.4,592.3,3037.4,3477.1,3472.2,696.2,1047.8,2250.7,1109.5,1088.6,1015.1,160.0,18.0,120.0,15821.0,-2187.0,1109.0,-3480.0,446.0,-314.0,-214.0,52.0,38.0,36.0,13128.0,-8327.0,-1114.0,5050.0,255.0,-233.0,-232.0,1.0
2022-05-13 12:14:39.017838-07:00,1273.9,781.9,1291.8,1072.9,1034.0,902.5,1690.0,1344.0,3466.1,3475.9,1136.6,873.8,1841.1,3468.6,1377.5,1283.7,3478.3,3467.4,390.3,656.2,924.5,1163.0,588.3,3001.9,3471.0,3472.2,706.9,1072.1,2244.5,1115.6,1084.2,1003.9,-45.0,-37.0,-55.0,15809.0,-1935.0,1329.0,-3605.0,261.0,217.0,-122.0,-49.0,3.0,13.0,13171.0,-8265.0,-1207.0,5019.0,63.0,-99.0,-58.0,1.0
2022-05-13 12:14:39.018917-07:00,1273.9,781.9,1291.8,1072.9,1051.3,911.8,1684.3,1361.2,3466.1,3475.9,1136.6,873.8,1837.2,3474.6,1373.9,1276.5,3480.7,3477.1,396.5,648.9,924.5,1163.0,588.3,3001.9,3480.7,3483.2,719.2,1099.9,2244.5,1115.6,1084.2,1003.9,25.0,-55.0,143.0,15821.0,-1854.0,1321.0,-3596.0,217.0,-36.0,175.0,-17.0,19.0,43.0,13205.0,-8203.0,-1246.0,5023.0,187.0,-103.0,-90.0,1.0
2022-05-13 12:14:39.019959-07:00,1278.3,795.2,1361.2,1109.5,1051.3,911.8,1684.3,1409.4,3467.4,3475.9,1144.5,873.0,1837.2,3474.6,1373.9,1284.6,3478.3,3477.1,396.5,648.9,926.2,1153.3,583.5,3117.1,3472.2,3483.2,719.2,1099.9,2328.5,1178.8,1171.8,1031.4,-13.0,5.0,0.0,15849.0,-1707.0,1447.0,-3498.0,295.0,355.0,242.0,-29.0,-43.0,44.0,13223.0,-8170.0,-1253.0,5028.0,168.0,-28.0,-13.0,1.0
2022-05-13 12:14:39.285663-07:00,1285.5,795.2,1361.2,1109.5,1105.1,922.8,1692.9,1409.4,3473.4,3475.9,1144.5,873.0,1905.6,3475.9,1441.5,1284.6,3478.3,3480.7,395.7,651.4,926.2,1153.3,583.5,3451.6,3472.2,3474.6,714.2,1112.1,2328.5,1178.8,1171.8,1068.6,7.0,-25.0,-36.0,15861.0,-1526.0,1644.0,-3441.0,480.0,729.0,299.0,-13.0,47.0,9.0,13241.0,-8138.0,-1271.0,5027.0,99.0,-79.0,-64.0,1.0
2022-05-13 12:14:39.288046-07:00,1285.5,798.5,1454.3,1182.3,1105.1,922.8,1692.9,1420.4,3473.4,3469.8,1178.8,873.8,1905.6,3475.9,1441.5,1313.3,3467.4,3480.7,395.7,651.4,938.1,1168.2,580.2,3451.6,3475.9,3474.6,714.2,1112.1,2562.6,1246.2,1232.8,1068.6,44.0,-19.0,42.0,15860.0,-1344.0,1929.0,-3371.0,45.0,723.0,177.0,9.0,38.0,2.0,13273.0,-8098.0,-1326.0,4994.0,-6.0,-68.0,-187.0,1.0
2022-05-13 12:14:39.289113-07:00,1285.5,798.5,1454.3,1182.3,1168.2,924.5,1685.3,1420.4,3467.4,3469.8,1178.8,873.8,2020.4,3474.6,1551.5,1313.3,3467.4,3475.9,391.8,643.2,938.1,1168.2,580.2,2955.2,3475.9,3472.2,746.3,1115.6,2562.6,1246.2,1232.8,1069.5,19.0,-36.0,41.0,15834.0,-1253.0,2248.0,-3330.0,21.0,651.0,117.0,8.0,-17.0,30.0,13270.0,-8120.0,-1382.0,4950.0,-27.0,-34.0,-145.0,1.0
2022-05-13 12:14:39.290150-07:00,1285.5,791.0,1478.3,1191.2,1168.2,924.5,1685.3,1447.9,3467.4,3473.4,1211.5,874.7,2020.4,3474.6,1551.5,1358.5,3471.0,3475.9,391.8,643.2,931.3,1177.9,581.8,2955.2,3480.7,3472.2,746.3,1115.6,2624.3,1263.1,1246.2,1069.5,3.0,-12.0,-4.0,15800.0,-1177.0,2557.0,-3298.0,37.0,673.0,77.0,-13.0,-3.0,34.0,13271.0,-8132.0,-1416.0,4918.0,-12.0,-53.0,-147.0,1.0
2022-05-13 12:14:39.464493-07:00,1282.8,791.0,1478.3,1191.2,1163.8,930.5,1681.4,1447.9,3475.9,3473.4,1211.5,874.7,2095.7,3467.4,1610.5,1358.5,3471.0,3477.1,395.0,635.1,931.3,1177.9,581.8,2759.1,3480.7,3473.4,771.1,1113.0,2624.3,1263.1,1246.2,1080.8,-9.0,-56.0,128.0,15772.0,-1167.0,2728.0,-3296.0,-153.0,107.0,-29.0,9.0,-116.0,107.0,13268.0,-8154.0,-1447.0,4879.0,-112.0,95.0,34.0,1.0
2022-05-13 12:14:39.644222-07:00,1281.0,789.4,1462.6,1177.9,1141.9,933.0,1673.8,1443.3,3469.8,3479.5,1216.8,878.9,2060.5,3466.1,1588.9,1342.2,3472.2,3486.8,387.2,640.8,929.6,1176.2,567.4,2636.2,3481.9,3477.1,762.9,1103.4,2519.7,1244.4,1219.5,1064.3,-21.0,-65.0,156.0,15747.0,-1234.0,2890.0,-3255.0,-20.0,435.0,130.0,-43.0,-87.0,67.0,13156.0,-8281.0,-1186.0,5037.0,-12.0,269.0,661.0,1.0
2022-05-13 12:14:39.647018-07:00,1281.0,789.4,1450.6,1177.9,1141.9,933.0,1662.5,1439.6,3469.8,3479.5,1211.5,882.3,2060.5,3466.1,1586.1,1346.7,3475.9,3480.7,387.2,640.8,932.2,1167.4,567.4,2636.2,3469.8,3478.3,762.9,1103.4,2481.3,1241.7,1219.5,1064.3,-22.0,-17.0,64.0,15716.0,-1146.0,3103.0,-3239.0,187.0,531.0,54.0,-31.0,-68.0,59.0,13072.0,-8337.0,-922.0,5217.0,93.0,365.0,764.0,1.0
2022-05-13 12:14:39.779357-07:00,1273.9,793.5,1450.6,1177.9,1125.2,922.8,1662.5,1439.6,3460.1,3471.0,1211.5,882.3,2047.4,3466.1,1586.1,1346.7,3475.9,3480.7,391.8,640.0,932.2,1167.4,580.2,2605.8,3469.8,3478.3,759.6,1095.6,2481.3,1241.7,1216.0,1068.6,22.0,-6.0,-44.0,15682.0,-1051.0,3265.0,-3277.0,79.0,374.0,-40.0,-10.0,62.0,4.0,12998.0,-8367.0,-608.0,5397.0,81.0,371.0,720.0,1.0
2022-05-13 12:14:39.780511-07:00,1273.9,793.5,1448.8,1170.0,1125.2,922.8,1671.0,1426.8,3460.1,3471.0,1214.2,882.3,2047.4,3466.1,1583.3,1339.5,3472.2,3488.0,391.8,640.0,929.6,1174.4,580.2,2605.8,3473.4,3472.2,759.6,1095.6,2464.2,1233.7,1216.0,1068.6,28.0,-35.0,-138.0,15646.0,-1012.0,3445.0,-3279.0,-2.0,443.0,56.0,4.0,77.0,-41.0,12912.0,-8416.0,-350.0,5546.0,9.0,248.0,541.0,1.0
2022-05-13 12:14:39.782060-07:00,1276.5,791.0,1432.3,1170.0,1113.0,922.8,1671.0,1426.8,3472.2,3469.8,1207.1,882.3,2027.4,3472.2,1583.3,1339.5,3472.2,3488.0,392.6,633.5,929.6,1178.8,569.8,2572.3,3473.4,3472.2,763.7,1089.5,2464.2,1231.0,1211.5,1062.5,40.0,10.0,-166.0,15629.0,-900.0,3555.0,-3274.0,286.0,201.0,75.0,27.0,102.0,-49.0,12866.0,-8412.0,-171.0,5666.0,151.0,84.0,352.0,1.0
2022-05-13 12:14:39.869179-07:00,1276.5,783.6,1424.1,1161.2,1110.4,914.4,1669.1,1429.5,3469.8,3457.6,1197.4,870.5,2022.4,3467.4,1563.7,1342.2,3472.2,3469.8,396.5,639.2,927.9,1175.3,571.4,2561.6,3479.5,3483.2,752.9,1089.5,2426.1,1221.3,1203.5,1055.6,28.0,-68.0,31.0,15625.0,-907.0,3610.0,-3230.0,-26.0,21.0,13.0,7.0,3.0,17.0,12808.0,-8435.0,-91.0,5765.0,10.0,8.0,9.0,1.0
2022-05-13 12:14:39.871196-07:00,1272.1,784.4,1411.3,1161.2,1114.7,914.4,1669.1,1429.5,3469.8,3457.6,1202.7,870.5,2029.4,3467.4,1563.7,1342.2,3472.2,3469.8,396.5,640.8,927.9,1177.9,570.6,2518.6,3479.5,3483.2,752.9,1086.8,2426.1,1219.5,1195.6,1054.8,0.0,-48.0,-8.0,15625.0,-876.0,3655.0,-3188.0,-12.0,-73.0,34.0,-28.0,22.0,0.0,12791.0,-8430.0,-49.0,5810.0,27.0,-11.0,115.0,1.0
2022-05-13 12:14:39.872282-07:00,1273.0,792.7,1417.6,1155.0,1099.0,912.7,1675.7,1424.1,3478.3,3469.8,1200.0,879.7,2005.5,3471.0,1560.9,1339.5,3477.1,3480.7,395.7,644.0,923.7,1174.4,573.8,2497.2,3485.6,3478.3,749.6,1088.6,2400.8,1213.3,1195.6,1051.3,0.0,-10.0,-11.0,15633.0,-855.0,3647.0,-3163.0,23.0,62.0,78.0,-16.0,21.0,11.0,12790.0,-8409.0,-35.0,5844.0,-4.0,-36.0,57.0,1.0
2022-05-13 12:14:39.960015-07:00,1273.0,792.7,1417.6,1155.0,1099.9,922.8,1671.9,1426.8,3478.3,3469.8,1200.0,879.7,1992.5,3471.0,1563.7,1338.6,3478.3,3467.4,393.4,637.6,923.7,1174.4,573.8,2497.2,3478.3,3479.5,752.9,1079.9,2400.8,1213.3,1195.6,1051.3,21.0,-30.0,2.0,15635.0,-847.0,3661.0,-3139.0,36.0,-20.0,60.0,-3.0,11.0,14.0,12780.0,-8407.0,-28.0,5867.0,10.0,-16.0,43.0,1.0
2022-05-13 12:14:40.003985-07:00,1274.7,785.2,1424.1,1151.5,1099.9,922.8,1671.9,1426.8,3471.0,3473.4,1204.4,873.0,1992.5,3471.0,1563.7,1338.6,3478.3,3467.4,393.4,637.6,925.4,1174.4,573.0,2479.1,3478.3,3479.5,752.9,1079.9,2395.5,1223.0,1197.4,1059.9,18.0,-12.0,-6.0,15637.0,-842.0,3671.0,-3121.0,18.0,69.0,42.0,2.0,4.0,20.0,12778.0,-8400.0,-18.0,5883.0,-9.0,-3.0,29.0,1.0
2022-05-13 12:14:40.005841-07:00,1274.7,785.2,1424.1,1151.5,1091.2,910.1,1669.1,1423.1,3471.0,3473.4,1204.4,873.0,1995.5,3462.5,1555.3,1335.0,3473.4,3467.4,391.1,638.4,925.4,1174.4,573.0,2479.1,3477.1,3473.4,749.6,1083.4,2395.5,1223.0,1197.4,1059.9,33.0,-18.0,-6.0,15635.0,-852.0,3676.0,-3122.0,-42.0,14.0,-11.0,1.0,22.0,6.0,12771.0,-8405.0,-17.0,5890.0,-63.0,7.0,6.0,1.0
2022-05-13 12:14:40.140105-07:00,1274.7,791.9,1421.3,1152.4,1091.2,910.1,1669.1,1423.1,3475.9,3467.4,1200.9,882.3,1995.5,3462.5,1555.3,1335.0,3473.4,3467.4,391.1,638.4,924.5,1177.9,569.8,2469.5,3477.1,3473.4,749.6,1083.4,2393.4,1216.8,1196.5,1052.2,16.0,-29.0,0.0,15630.0,-877.0,3694.0,-3118.0,-27.0,39.0,18.0,-2.0,0.0,16.0,12763.0,-8418.0,-25.0,5890.0,-38.0,-6.0,-11.0,1.0
2022-05-13 12:14:40.275117-07:00,1273.0,791.9,1421.3,1152.4,1086.8,908.4,1662.5,1421.3,3471.0,3467.4,1200.9,882.3,1982.6,3471.0,1553.4,1337.7,3469.8,3464.9,393.4,636.7,924.5,1177.9,569.8,2449.4,3484.4,3468.6,739.7,1078.2,2393.4,1216.8,1196.5,1050.4,11.0,-23.0,6.0,15630.0,-883.0,3696.0,-3115.0,32.0,11.0,18.0,-9.0,2.0,15.0,12764.0,-8414.0,-31.0,5892.0,18.0,-16.0,-12.0,1.0
2022-05-13 12:14:40.275851-07:00,1273.0,784.4,1411.3,1152.4,1086.8,908.4,1662.5,1419.5,3471.0,3478.3,1194.7,877.2,1982.6,3471.0,1553.4,1335.0,3485.6,3464.9,393.4,636.7,925.4,1178.8,571.4,2449.4,3472.2,3468.6,739.7,1078.2,2394.5,1223.0,1200.9,1050.4,2.0,-4.0,2.0,15632.0,-880.0,3689.0,-3114.0,-7.0,-46.0,-15.0,-12.0,-5.0,27.0,12769.0,-8406.0,-33.0,5892.0,5.0,-2.0,-10.0,1.0
2022-05-13 12:14:40.276532-07:00,1274.7,784.4,1411.3,1152.4,1087.7,912.7,1661.5,1419.5,3472.2,3478.3,1194.7,877.2,1988.5,3481.9,1554.3,1335.0,3485.6,3474.6,388.7,632.7,925.4,1178.8,571.4,2445.1,3472.2,3472.2,746.3,1077.3,2394.5,1223.0,1200.9,1040.9,11.0,-21.0,10.0,15636.0,-895.0,3657.0,-3128.0,-11.0,-43.0,-34.0,-8.0,12.0,16.0,12774.0,-8402.0,-31.0,5888.0,-7.0,11.0,-25.0,1.0
2022-05-13 12:14:40.277829-07:00,1274.7,781.1,1414.0,1145.4,1087.7,912.7,1661.5,1424.1,3472.2,3469.8,1192.9,872.1,1988.5,3481.9,1554.3,1326.8,3472.2,3474.6,388.7,632.7,927.9,1175.3,567.4,2445.1,3478.3,3472.2,746.3,1077.3,2386.0,1214.2,1208.9,1040.9,22.0,-39.0,7.0,15636.0,-910.0,3641.0,-3139.0,-7.0,-17.0,-20.0,-1.0,14.0,6.0,12781.0,-8399.0,-28.0,5876.0,7.0,20.0,-29.0,1.0
2022-05-13 12:14:40.363534-07:00,1273.9,781.1,1414.0,1145.4,1092.1,911.8,1668.2,1424.1,3478.3,3469.8,1192.9,872.1,1983.6,3478.3,1558.1,1326.8,3472.2,3477.1,390.3,640.8,927.9,1175.3,567.4,2433.5,3478.3,3478.3,743.9,1072.1,2386.0,1214.2,1208.9,1045.2,-2.0,-14.0,-16.0,15634.0,-915.0,3648.0,-3141.0,7.0,28.0,5.0,-9.0,-4.0,6.0,12788.0,-8396.0,-28.0,5866.0,4.0,3.0,-27.0,1.0
2022-05-13 12:14:40.409064-07:00,1273.9,786.9,1409.4,1135.7,1092.1,911.8,1674.8,1413.1,3478.3,3480.7,1188.5,878.9,1983.6,3478.3,1554.3,1335.9,3474.6,3477.1,390.3,640.8,923.7,1172.6,573.0,2433.5,3480.7,3469.8,743.9,1072.1,2368.2,1207.1,1196.5,1045.2,10.0,-19.0,-10.0,15635.0,-940.0,3635.0,-3142.0,-20.0,-56.0,4.0,-9.0,19.0,0.0,12789.0,-8401.0,-37.0,5857.0,-20.0,-13.0,-34.0,1.0
2022-05-13 12:14:40.454083-07:00,1268.5,777.8,1409.4,1135.7,1087.7,913.5,1674.8,1413.1,3479.5,3467.4,1188.5,878.9,1977.6,3469.8,1554.3,1335.9,3474.6,3477.1,390.3,636.7,923.7,1172.6,568.2,2428.2,3480.7,3469.8,748.8,1069.5,2368.2,1207.1,1197.4,1052.2,3.0,-27.0,10.0,15637.0,-963.0,3627.0,-3135.0,-23.0,-27.0,1.0,-7.0,-5.0,14.0,12789.0,-8408.0,-53.0,5847.0,-9.0,-14.0,-39.0,1.0
2022-05-13 12:14:40.455332-07:00,1268.5,777.8,1410.3,1141.9,1087.7,913.5,1665.3,1412.2,3479.5,3467.4,1196.5,875.5,1977.6,3469.8,1552.5,1324.1,3467.4,3479.5,390.3,636.7,927.9,1173.5,568.2,2428.2,3469.8,3474.6,748.8,1069.5,2369.3,1210.6,1197.4,1052.2,18.0,-12.0,12.0,15642.0,-966.0,3603.0,-3140.0,7.0,-24.0,-8.0,-6.0,10.0,13.0,12797.0,-8402.0,-58.0,5837.0,-11.0,-1.0,-42.0,1.0
2022-05-13 12:14:40.544119-07:00,1264.9,788.6,1410.3,1141.9,1084.2,909.3,1665.3,1412.2,3466.1,3460.1,1196.5,875.5,1973.7,3474.6,1552.5,1324.1,3467.4,3479.5,405.1,641.6,927.9,1173.5,568.2,2412.4,3469.8,3474.6,745.5,1077.3,2369.3,1210.6,1190.3,1045.2,4.0,-17.0,6.0,15640.0,-978.0,3606.0,-3141.0,-5.0,-18.0,-12.0,-14.0,-18.0,18.0,12797.0,-8409.0,-68.0,5827.0,2.0,1.0,-24.0,1.0
2022-05-13 12:14:40.588560-07:00,1264.9,788.6,1416.7,1145.4,1084.2,909.3,1661.5,1411.3,3466.1,3460.1,1188.5,878.9,1973.7,3474.6,1551.5,1327.8,3478.3,3472.2,405.1,641.6,922.0,1173.5,568.2,2412.4,3473.4,3479.5,745.5,1077.3,2360.9,1212.4,1190.3,1045.2,15.0,-25.0,14.0,15642.0,-990.0,3586.0,-3150.0,-27.0,-20.0,-6.0,-6.0,7.0,3.0,12800.0,-8408.0,-72.0,5821.0,-25.0,2.0,-21.0,1.0
2022-05-13 12:14:40.635279-07:00,1275.6,791.0,1416.7,1145.4,1087.7,911.0,1661.5,1411.3,3468.6,3468.6,1188.5,878.9,1977.6,3478.3,1551.5,1327.8,3478.3,3472.2,394.2,638.4,922.0,1173.5,568.2,2424.0,3473.4,3479.5,744.7,1069.5,2360.9,1212.4,1186.7,1041.8,-3.0,-17.0,3.0,15640.0,-999.0,3593.0,-3152.0,25.0,13.0,-4.0,-14.0,-18.0,17.0,12801.0,-8409.0,-73.0,5818.0,33.0,0.0,-6.0,1.0
2022-05-13 12:14:40.637072-07:00,1275.6,791.0,1406.7,1145.4,1087.7,905.9,1665.3,1416.7,3468.6,3468.6,1192.0,878.9,1977.6,3462.5,1550.6,1329.6,3469.8,3473.4,386.4,638.4,927.1,1178.8,568.2,2424.0,3481.9,3474.6,737.3,1069.5,2361.9,1209.7,1186.7,1041.8,-2.0,-7.0,-3.0,15640.0,-995.0,3588.0,-3155.0,-25.0,13.0,-3.0,-17.0,10.0,7.0,12803.0,-8406.0,-70.0,5818.0,-47.0,9.0,-11.0,1.0
2022-05-13 12:14:40.723792-07:00,1270.3,779.4,1408.5,1145.4,1078.2,905.9,1665.3,1416.7,3478.3,3472.2,1187.6,878.9,1969.7,3462.5,1550.6,1329.6,3469.8,3473.4,386.4,641.6,927.1,1173.5,564.2,2416.6,3481.9,3474.6,737.3,1072.9,2361.9,1213.3,1187.6,1043.5,10.0,-30.0,2.0,15639.0,-1018.0,3584.0,-3158.0,13.0,-34.0,-10.0,-15.0,2.0,4.0,12801.0,-8413.0,-75.0,5814.0,26.0,-6.0,-16.0,1.0
2022-05-13 12:14:40.725421-07:00,1270.3,779.4,1408.5,1143.6,1078.2,919.4,1659.6,1411.3,3478.3,3472.2,1187.6,877.2,1969.7,3467.4,1545.9,1332.3,3478.3,3477.1,391.8,641.6,937.3,1173.5,564.2,2416.6,3480.7,3469.8,741.4,1072.9,2354.6,1213.3,1187.6,1043.5,3.0,-25.0,5.0,15640.0,-1013.0,3582.0,-3159.0,20.0,21.0,18.0,-9.0,-8.0,9.0,12805.0,-8407.0,-78.0,5813.0,8.0,-8.0,-6.0,1.0
2022-05-13 12:14:40.813747-07:00,1276.5,781.9,1415.8,1143.6,1087.7,919.4,1659.6,1411.3,3469.8,3472.2,1195.6,877.2,1972.7,3467.4,1545.9,1332.3,3478.3,3477.1,391.8,635.1,937.3,1176.2,569.0,2409.2,3480.7,3469.8,741.4,1077.3,2354.6,1215.1,1186.7,1044.4,13.0,-14.0,-7.0,15641.0,-1014.0,3580.0,-3156.0,-4.0,-14.0,9.0,-7.0,5.0,3.0,12806.0,-8402.0,-81.0,5817.0,-10.0,-14.0,-5.0,1.0
2022-05-13 12:14:40.858996-07:00,1276.5,781.9,1415.8,1139.2,1087.7,909.3,1651.1,1413.1,3469.8,3472.2,1195.6,883.1,1972.7,3475.9,1550.6,1327.8,3478.3,3475.9,388.7,635.1,927.1,1176.2,569.0,2409.2,3474.6,3472.2,737.3,1077.3,2341.0,1215.1,1186.7,1044.4,13.0,-5.0,-12.0,15643.0,-1013.0,3566.0,-3158.0,35.0,-51.0,-8.0,-3.0,11.0,12.0,12808.0,-8397.0,-82.0,5819.0,31.0,-17.0,-9.0,1.0
2022-05-13 12:14:40.903761-07:00,1266.7,791.9,1411.3,1143.6,1086.8,909.3,1651.1,1413.1,3474.6,3468.6,1194.7,878.9,1975.6,3475.9,1550.6,1327.8,3478.3,3475.9,388.7,640.8,924.5,1175.3,568.2,2418.7,3474.6,3472.2,737.3,1062.5,2342.0,1208.9,1191.2,1042.6,18.0,-12.0,-3.0,15647.0,-1023.0,3546.0,-3160.0,-21.0,-29.0,-7.0,-4.0,13.0,6.0,12812.0,-8391.0,-84.0,5821.0,-10.0,-5.0,-29.0,1.0
2022-05-13 12:14:41.082795-07:00,1266.7,791.9,1411.3,1143.6,1079.0,914.4,1666.3,1417.6,3474.6,3468.6,1194.7,878.9,1968.7,3467.4,1541.3,1329.6,3473.4,3478.3,389.5,635.9,924.5,1175.3,568.2,2418.7,3475.9,3467.4,741.4,1071.2,2342.0,1208.9,1191.2,1042.6,7.0,-13.0,-13.0,15646.0,-1030.0,3545.0,-3166.0,-12.0,-10.0,-15.0,-8.0,0.0,8.0,12814.0,-8395.0,-93.0,5810.0,-16.0,-6.0,-33.0,1.0
2022-05-13 12:14:41.085005-07:00,1278.3,781.1,1410.3,1144.5,1079.0,914.4,1666.3,1417.6,3480.7,3473.4,1192.0,882.3,1968.7,3467.4,1541.3,1329.6,3473.4,3478.3,389.5,635.9,930.5,1173.5,561.8,2417.6,3475.9,3467.4,741.4,1071.2,2344.1,1195.6,1187.6,1038.3,10.0,-18.0,-24.0,15646.0,-1050.0,3531.0,-3172.0,-11.0,-46.0,-19.0,-7.0,10.0,-1.0,12816.0,-8398.0,-107.0,5800.0,-10.0,-27.0,-46.0,1.0
2022-05-13 12:14:41.086168-07:00,1278.3,781.1,1410.3,1144.5,1076.4,919.4,1653.9,1416.7,3480.7,3473.4,1192.0,882.3,1982.6,3468.6,1545.9,1332.3,3472.2,3472.2,390.3,631.9,930.5,1173.5,561.8,2417.6,3490.5,3479.5,734.0,1071.2,2344.1,1195.6,1187.6,1038.3,20.0,-8.0,-50.0,15650.0,-1066.0,3505.0,-3174.0,-18.0,-69.0,0.0,2.0,34.0,-19.0,12824.0,-8393.0,-131.0,5790.0,-20.0,-51.0,-82.0,1.0
2022-05-13 12:14:41.175693-07:00,1271.2,777.8,1378.5,1141.0,1076.4,919.4,1653.9,1416.7,3472.2,3469.8,1190.3,878.0,1982.6,3468.6,1545.9,1332.3,3472.2,3472.2,390.3,631.9,922.0,1177.0,564.2,2410.3,3490.5,3479.5,734.0,1071.2,2338.9,1206.2,1181.5,1041.8,26.0,11.0,-49.0,15658.0,-1086.0,3464.0,-3175.0,-5.0,-136.0,-9.0,1.0,44.0,-9.0,12835.0,-8388.0,-177.0,5771.0,-16.0,-81.0,-150.0,1.0
2022-05-13 12:14:41.177590-07:00,1271.2,777.8,1378.5,1141.0,1073.8,901.7,1663.4,1413.1,3472.2,3469.8,1190.3,878.0,1963.7,3462.5,1545.9,1326.8,3475.9,3477.1,390.3,637.6,922.0,1177.0,564.2,2410.3,3475.9,3478.3,760.4,1062.5,2338.9,1206.2,1181.5,1041.8,23.0,25.0,13.0,15666.0,-1120.0,3415.0,-3177.0,-82.0,-157.0,-63.0,6.0,-7.0,40.0,12850.0,-8391.0,-244.0,5731.0,-82.0,-40.0,-165.0,1.0
2022-05-13 12:14:41.178846-07:00,1272.1,784.4,1404.0,1143.6,1073.8,901.7,1663.4,1412.2,3469.8,3471.0,1184.1,873.0,1963.7,3462.5,1545.9,1324.1,3477.1,3477.1,390.3,637.6,926.2,1176.2,573.8,2410.3,3480.7,3478.3,760.4,1062.5,2316.0,1207.1,1181.5,1037.5,12.0,-4.0,55.0,15670.0,-1168.0,3358.0,-3200.0,-41.0,-93.0,-74.0,-13.0,-25.0,43.0,12859.0,-8407.0,-293.0,5684.0,-39.0,4.0,-124.0,1.0
2022-05-13 12:14:41.263733-07:00,1266.7,784.4,1404.0,1143.6,1080.8,903.4,1665.3,1412.2,3475.9,3471.0,1184.1,873.0,1965.7,3468.6,1538.5,1324.1,3477.1,3472.2,395.0,639.2,926.2,1176.2,573.8,2413.4,3480.7,3475.9,740.6,1064.3,2316.0,1207.1,1181.5,1046.1,-18.0,-21.0,12.0,15667.0,-1194.0,3332.0,-3232.0,-17.0,-68.0,-101.0,-38.0,-17.0,19.0,12872.0,-8413.0,-312.0,5646.0,-12.0,26.0,-97.0,1.0
2022-05-13 12:14:41.310652-07:00,1266.7,777.8,1402.1,1134.0,1080.8,903.4,1665.3,1409.4,3475.9,3472.2,1181.5,877.2,1965.7,3468.6,1538.5,1320.5,3479.5,3472.2,395.0,639.2,927.9,1177.0,567.4,2413.4,3469.8,3475.9,740.6,1064.3,2344.1,1208.9,1186.7,1046.1,5.0,-23.0,-2.0,15667.0,-1194.0,3302.0,-3262.0,38.0,-32.0,-30.0,-18.0,7.0,-6.0,12891.0,-8406.0,-324.0,5611.0,24.0,7.0,-103.0,1.0
2022-05-13 12:14:41.534561-07:00,1275.6,777.8,1402.1,1134.0,1079.0,907.6,1660.6,1409.4,3467.4,3472.2,1181.5,877.2,1963.7,3478.3,1548.7,1320.5,3479.5,3484.4,388.7,632.7,927.9,1177.0,567.4,2393.4,3469.8,3479.5,738.9,1068.6,2344.1,1208.9,1186.7,1034.9,10.0,-37.0,11.0,15665.0,-1205.0,3301.0,-3271.0,-42.0,-18.0,-34.0,-2.0,-25.0,6.0,12902.0,-8410.0,-347.0,5578.0,-43.0,8.0,-90.0,1.0
2022-05-13 12:14:41.536613-07:00,1275.6,784.4,1396.7,1140.1,1079.0,907.6,1660.6,1404.0,3467.4,3467.4,1185.9,885.6,1963.7,3478.3,1548.7,1325.0,3467.4,3484.4,388.7,632.7,925.4,1175.3,569.8,2393.4,3475.9,3479.5,738.9,1068.6,2317.0,1210.6,1178.8,1034.9,5.0,-22.0,10.0,15664.0,-1229.0,3290.0,-3279.0,-2.0,-7.0,11.0,-21.0,-11.0,8.0,12906.0,-8418.0,-366.0,5558.0,-2.0,-16.0,-54.0,1.0
2022-05-13 12:14:41.625417-07:00,1273.9,781.9,1396.7,1140.1,1072.1,905.0,1657.7,1404.0,3478.3,3483.2,1185.9,885.6,1962.8,3469.8,1536.6,1325.0,3467.4,3480.7,393.4,640.8,925.4,1175.3,565.8,2394.5,3475.9,3475.9,735.6,1066.9,2317.0,1210.6,1180.6,1035.7,1.0,-23.0,18.0,15666.0,-1239.0,3277.0,-3275.0,29.0,-69.0,16.0,-24.0,-21.0,16.0,12909.0,-8414.0,-381.0,5556.0,22.0,-36.0,-9.0,1.0
2022-05-13 12:14:41.626660-07:00,1273.9,781.9,1408.5,1138.4,1072.1,905.0,1658.7,1404.9,3478.3,3483.2,1176.2,877.2,1962.8,3469.8,1539.4,1316.9,3477.1,3483.2,393.4,640.8,927.1,1174.4,565.8,2394.5,3478.3,3474.6,735.6,1066.9,2323.3,1205.3,1180.6,1035.7,17.0,-10.0,30.0,15671.0,-1232.0,3260.0,-3272.0,-10.0,25.0,15.0,-6.0,0.0,10.0,12916.0,-8399.0,-382.0,5561.0,11.0,-8.0,-8.0,1.0
2022-05-13 12:14:41.628783-07:00,1275.6,786.1,1408.5,1138.4,1074.7,905.9,1658.7,1404.9,3478.3,3471.0,1176.2,877.2,1956.8,3473.4,1539.4,1316.9,3477.1,3483.2,388.7,631.1,927.1,1174.4,569.8,2385.0,3478.3,3474.6,739.7,1068.6,2323.3,1205.3,1185.9,1043.5,8.0,-22.0,10.0,15668.0,-1231.0,3280.0,-3266.0,15.0,44.0,27.0,-6.0,-11.0,11.0,12911.0,-8404.0,-379.0,5566.0,25.0,6.0,24.0,1.0
2022-05-13 12:14:41.629941-07:00,1275.6,786.1,1400.3,1142.7,1074.7,905.9,1647.3,1395.7,3478.3,3471.0,1185.0,873.0,1956.8,3473.4,1545.0,1325.9,3469.8,3479.5,388.7,631.1,925.4,1170.9,569.8,2385.0,3471.0,3483.2,739.7,1068.6,2311.8,1209.7,1185.9,1043.5,-2.0,-5.0,-9.0,15667.0,-1212.0,3300.0,-3259.0,17.0,90.0,23.0,-19.0,-3.0,10.0,12913.0,-8396.0,-365.0,5573.0,-6.0,18.0,27.0,1.0
2022-05-13 12:14:41.668260-07:00,1267.6,783.6,1400.3,1142.7,1069.5,900.8,1647.3,1395.7,3461.3,3471.0,1185.0,873.0,1960.8,3478.3,1545.0,1325.9,3469.8,3479.5,390.3,631.9,925.4,1170.9,564.2,2381.8,3471.0,3483.2,733.2,1062.5,2311.8,1209.7,1177.0,1034.9,9.0,-13.0,-14.0,15664.0,-1207.0,3315.0,-3262.0,34.0,-12.0,-11.0,-9.0,16.0,3.0,12913.0,-8393.0,-351.0,5578.0,38.0,9.0,22.0,1.0
2022-05-13 12:14:41.713283-07:00,1267.6,783.6,1405.8,1139.2,1069.5,905.0,1651.1,1393.9,3461.3,3471.0,1180.6,875.5,1960.8,3481.9,1541.3,1325.0,3468.6,3478.3,391.1,631.9,929.6,1176.2,564.2,2381.8,3477.1,3466.1,737.3,1062.5,2307.7,1207.1,1177.0,1034.9,7.0,-18.0,-7.0,15664.0,-1201.0,3316.0,-3261.0,-9.0,30.0,12.0,-6.0,-9.0,8.0,12914.0,-8389.0,-346.0,5582.0,-14.0,-4.0,8.0,1.0
2022-05-13 12:14:41.893617-07:00,1266.7,776.9,1402.1,1139.2,1076.4,905.0,1651.1,1393.9,3468.6,3472.2,1185.9,875.5,1960.8,3481.9,1541.3,1325.0,3468.6,3478.3,391.1,637.6,929.6,1182.3,565.8,2383.9,3477.1,3466.1,737.3,1066.0,2307.7,1207.1,1178.8,1034.9,20.0,-6.0,-8.0,15668.0,-1200.0,3305.0,-3255.0,25.0,-19.0,18.0,-6.0,12.0,-3.0,12915.0,-8383.0,-344.0,5590.0,13.0,-17.0,8.0,1.0
2022-05-13 12:14:41.939622-07:00,1266.7,776.9,1402.1,1138.4,1076.4,904.2,1647.3,1408.5,3468.6,3472.2,1185.9,873.8,1960.8,3471.0,1541.3,1323.2,3479.5,3478.3,395.0,637.6,929.6,1182.3,565.8,2383.9,3483.2,3477.1,735.6,1066.0,2317.0,1207.1,1178.8,1034.9,6.0,-11.0,-6.0,15668.0,-1199.0,3310.0,-3248.0,-17.0,16.0,13.0,-9.0,-5.0,11.0,12914.0,-8383.0,-345.0,5591.0,-20.0,-4.0,5.0,1.0
2022-05-13 12:14:41.941233-07:00,1272.1,776.1,1402.1,1138.4,1062.5,904.2,1647.3,1408.5,3471.0,3464.9,1182.3,873.8,1959.8,3471.0,1541.3,1323.2,3479.5,3478.3,395.0,633.5,929.6,1173.5,569.0,2388.1,3483.2,3477.1,735.6,1065.1,2317.0,1201.8,1181.5,1038.3,10.0,-5.0,-3.0,15669.0,-1197.0,3310.0,-3247.0,28.0,15.0,17.0,-9.0,1.0,6.0,12915.0,-8381.0,-344.0,5592.0,18.0,-6.0,1.0,1.0
2022-05-13 12:14:41.942737-07:00,1272.1,776.1,1402.1,1130.5,1062.5,903.4,1640.7,1399.4,3471.0,3464.9,1182.3,873.0,1959.8,3467.4,1545.0,1325.0,3472.2,3478.3,386.4,633.5,926.2,1173.5,569.0,2388.1,3477.1,3471.0,754.6,1065.1,2313.9,1201.8,1181.5,1038.3,8.0,-11.0,7.0,15669.0,-1194.0,3311.0,-3245.0,8.0,-12.0,3.0,-15.0,-3.0,11.0,12916.0,-8379.0,-342.0,5594.0,9.0,-7.0,5.0,1.0
2022-05-13 12:14:41.943855-07:00,1271.2,782.7,1393.0,1130.5,1075.6,903.4,1640.7,1399.4,3472.2,3457.6,1185.9,873.0,1950.9,3467.4,1545.0,1325.0,3472.2,3478.3,386.4,631.9,926.2,1170.9,573.0,2381.8,3477.1,3471.0,754.6,1064.3,2313.9,1207.1,1171.8,1034.9,3.0,-4.0,1.0,15671.0,-1185.0,3305.0,-3247.0,7.0,1.0,-1.0,-18.0,3.0,9.0,12921.0,-8371.0,-336.0,5595.0,1.0,-5.0,3.0,1.0
2022-05-13 12:14:42.209465-07:00,1271.2,782.7,1393.0,1141.9,1078.2,902.5,1670.1,1411.3,3472.2,3457.6,1185.9,872.1,1953.9,3474.6,1535.7,1328.7,3488.0,3480.7,392.6,638.4,926.2,1170.9,573.0,2381.8,3483.2,3475.9,736.5,1064.3,2301.4,1207.1,1171.8,1034.9,4.0,-9.0,0.0,15671.0,-1185.0,3305.0,-3246.0,21.0,17.0,7.0,-7.0,-9.0,13.0,12921.0,-8369.0,-334.0,5597.0,19.0,3.0,13.0,1.0
2022-05-13 12:14:42.210709-07:00,1275.6,779.4,1401.2,1135.7,1078.2,902.5,1670.1,1411.3,3478.3,3478.3,1177.0,878.9,1953.9,3474.6,1535.7,1328.7,3488.0,3480.7,392.6,638.4,927.9,1170.0,562.6,2378.7,3483.2,3475.9,736.5,1064.3,2305.6,1202.7,1182.3,1043.5,6.0,-14.0,-6.0,15671.0,-1181.0,3304.0,-3247.0,8.0,-8.0,6.0,-11.0,2.0,5.0,12922.0,-8363.0,-327.0,5603.0,10.0,5.0,12.0,1.0
2022-05-13 12:14:42.211832-07:00,1275.6,779.4,1401.2,1135.7,1070.3,902.5,1661.5,1404.9,3478.3,3478.3,1177.0,878.9,1951.9,3467.4,1543.1,1320.5,3483.2,3474.6,393.4,639.2,927.9,1170.0,562.6,2378.7,3464.9,3475.9,738.9,1062.5,2305.6,1202.7,1182.3,1043.5,16.0,-8.0,-1.0,15674.0,-1177.0,3295.0,-3244.0,36.0,-6.0,24.0,-6.0,5.0,3.0,12924.0,-8357.0,-321.0,5609.0,29.0,-8.0,13.0,1.0
2022-05-13 12:14:42.212932-07:00,1267.6,786.9,1399.4,1134.9,1070.3,902.5,1661.5,1404.9,3474.6,3474.6,1191.2,864.6,1951.9,3467.4,1543.1,1320.5,3483.2,3474.6,393.4,639.2,922.0,1165.6,564.2,2371.3,3464.9,3475.9,738.9,1062.5,2307.7,1209.7,1175.3,1038.3,14.0,-10.0,-4.0,15676.0,-1168.0,3290.0,-3241.0,23.0,-16.0,11.0,-10.0,13.0,0.0,12929.0,-8348.0,-317.0,5611.0,33.0,-8.0,4.0,1.0
2022-05-13 12:14:42.298884-07:00,1267.6,786.9,1399.4,1134.9,1073.8,903.4,1652.0,1406.7,3474.6,3474.6,1191.2,864.6,1955.8,3462.5,1537.6,1321.4,3479.5,3468.6,388.7,627.0,922.0,1165.6,564.2,2371.3,3483.2,3479.5,736.5,1059.9,2307.7,1209.7,1175.3,1038.3,3.0,-12.0,-6.0,15677.0,-1169.0,3290.0,-3238.0,-6.0,8.0,-3.0,-12.0,-9.0,5.0,12927.0,-8351.0,-317.0,5611.0,-13.0,-6.0,-4.0,1.0
2022-05-13 12:14:42.301895-07:00,1270.3,781.1,1394.8,1133.1,1073.8,898.3,1655.8,1406.7,3468.6,3473.4,1173.5,879.7,1947.9,3467.4,1541.3,1333.2,3479.5,3477.1,388.7,635.9,923.7,1172.6,565.8,2381.8,3478.3,3481.9,729.9,1060.8,2300.4,1197.4,1177.0,1036.6,16.0,-23.0,0.0,15678.0,-1174.0,3273.0,-3247.0,4.0,2.0,-11.0,-4.0,-7.0,0.0,12930.0,-8346.0,-312.0,5612.0,-4.0,8.0,-1.0,1.0
2022-05-13 12:14:42.344835-07:00,1270.3,779.4,1405.8,1139.2,1073.8,898.3,1655.8,1407.6,3468.6,3472.2,1182.3,873.0,1947.9,3467.4,1541.3,1325.0,3478.3,3477.1,388.7,635.9,924.5,1175.3,564.2,2381.8,3471.0,3481.9,729.9,1060.8,2302.5,1204.4,1181.5,1036.6,10.0,-12.0,-10.0,15677.0,-1173.0,3274.0,-3249.0,3.0,8.0,-1.0,-7.0,0.0,1.0,12930.0,-8345.0,-311.0,5613.0,6.0,-3.0,5.0,1.0
2022-05-13 12:14:42.388226-07:00,1275.6,779.4,1405.8,1139.2,1065.1,898.3,1661.5,1407.6,3469.8,3472.2,1182.3,873.0,1952.9,3475.9,1542.2,1325.0,3478.3,3478.3,390.3,644.9,924.5,1175.3,564.2,2371.3,3471.0,3483.2,737.3,1059.1,2302.5,1204.4,1181.5,1030.6,9.0,-6.0,-4.0,15678.0,-1178.0,3275.0,-3243.0,-14.0,2.0,23.0,-12.0,2.0,3.0,12928.0,-8348.0,-312.0,5614.0,-17.0,-15.0,2.0,1.0
2022-05-13 12:14:42.433189-07:00,1275.6,781.9,1398.5,1134.0,1065.1,898.3,1661.5,1406.7,3469.8,3472.2,1177.0,873.8,1952.9,3475.9,1542.2,1320.5,3467.4,3478.3,390.3,644.9,923.7,1178.8,562.6,2371.3,3483.2,3483.2,737.3,1059.1,2304.5,1205.3,1182.3,1030.6,6.0,3.0,-29.0,15680.0,-1172.0,3268.0,-3242.0,26.0,-36.0,-12.0,-16.0,10.0,0.0,12928.0,-8346.0,-315.0,5616.0,12.0,-17.0,-9.0,1.0
2022-05-13 12:14:42.525663-07:00,1264.0,784.4,1398.5,1134.0,1069.5,896.6,1651.1,1406.7,3473.4,3479.5,1177.0,873.8,1945.9,3469.8,1542.2,1320.5,3467.4,3477.1,398.9,633.5,923.7,1178.8,568.2,2366.1,3483.2,3483.2,745.5,1058.2,2304.5,1205.3,1174.4,1028.8,1.0,4.0,-46.0,15685.0,-1172.0,3234.0,-3253.0,46.0,-114.0,-32.0,-13.0,19.0,-10.0,12932.0,-8341.0,-322.0,5615.0,31.0,-36.0,-44.0,1.0
2022-05-13 12:14:42.526859-07:00,1264.0,784.4,1402.1,1132.2,1069.5,896.6,1649.2,1406.7,3473.4,3479.5,1182.3,871.3,1945.9,3469.8,1542.2,1325.0,3488.0,3483.2,398.9,633.5,922.0,1177.9,568.2,2366.1,3475.9,3479.5,745.5,1058.2,2294.2,1202.7,1174.4,1028.8,-1.0,29.0,-114.0,15698.0,-1171.0,3138.0,-3286.0,79.0,-305.0,-127.0,-20.0,50.0,-32.0,12945.0,-8326.0,-339.0,5607.0,45.0,-66.0,-125.0,1.0
2022-05-13 12:14:42.569561-07:00,1278.3,785.2,1402.1,1132.2,1072.1,902.5,1649.2,1406.7,3472.2,3468.6,1182.3,871.3,1950.9,3467.4,1542.2,1325.0,3488.0,3483.2,396.5,632.7,922.0,1177.9,565.0,2419.8,3475.9,3479.5,734.0,1056.5,2294.2,1202.7,1177.0,1040.9,10.0,106.0,-169.0,15718.0,-1183.0,2972.0,-3340.0,41.0,-349.0,-118.0,-28.0,160.0,-47.0,12986.0,-8291.0,-405.0,5559.0,31.0,-124.0,-359.0,1.0
2022-05-13 12:14:42.659311-07:00,1278.3,785.2,1388.5,1141.9,1072.1,902.5,1670.1,1392.1,3472.2,3468.6,1180.6,878.9,1950.9,3467.4,1533.8,1324.1,3472.2,3469.8,396.5,632.7,931.3,1172.6,565.0,2419.8,3480.7,3467.4,734.0,1056.5,2316.0,1199.1,1177.0,1040.9,66.0,38.0,-102.0,15727.0,-1268.0,2822.0,-3397.0,-127.0,-450.0,-248.0,40.0,76.0,-21.0,13042.0,-8288.0,-563.0,5415.0,-114.0,-109.0,-659.0,1.0
2022-05-13 12:14:42.749171-07:00,1267.6,783.6,1388.5,1141.9,1072.9,901.7,1670.1,1392.1,3478.3,3473.4,1180.6,878.9,1961.8,3466.1,1533.8,1324.1,3472.2,3469.8,394.2,637.6,931.3,1172.6,565.8,2420.8,3480.7,3467.4,736.5,1066.0,2316.0,1199.1,1174.4,1030.6,92.0,-50.0,48.0,15738.0,-1374.0,2638.0,-3451.0,-150.0,-367.0,-128.0,63.0,-19.0,-20.0,13112.0,-8299.0,-762.0,5200.0,-125.0,-94.0,-662.0,1.0
2022-05-13 12:14:42.751266-07:00,1267.6,783.6,1397.6,1139.2,1072.9,901.7,1658.7,1413.1,3478.3,3473.4,1176.2,878.0,1961.8,3466.1,1539.4,1318.7,3478.3,3472.2,394.2,637.6,922.0,1172.6,565.8,2420.8,3475.9,3478.3,736.5,1066.0,2319.1,1201.8,1174.4,1030.6,25.0,-51.0,62.0,15735.0,-1472.0,2562.0,-3481.0,-147.0,-161.0,-92.0,8.0,-51.0,19.0,13159.0,-8326.0,-954.0,5005.0,-145.0,-100.0,-517.0,1.0
2022-05-13 12:14:42.793331-07:00,1274.7,788.6,1400.3,1139.2,1070.3,897.4,1658.7,1413.1,3468.6,3462.5,1177.0,878.0,1950.9,3474.6,1539.4,1318.7,3478.3,3472.2,391.1,632.7,922.0,1168.2,566.6,2413.4,3475.9,3478.3,731.5,1059.9,2319.1,1199.1,1173.5,1028.8,-22.0,-35.0,49.0,15730.0,-1545.0,2531.0,-3493.0,-126.0,-59.0,-47.0,-37.0,-72.0,34.0,13187.0,-8348.0,-1111.0,4861.0,-135.0,-119.0,-411.0,1.0
2022-05-13 12:14:42.927765-07:00,1274.7,788.6,1400.3,1137.5,1070.3,905.9,1659.6,1401.2,3468.6,3462.5,1177.0,873.8,1950.9,3468.6,1535.7,1325.0,3478.3,3467.4,387.2,632.7,925.4,1168.2,566.6,2413.4,3478.3,3472.2,729.9,1059.9,2318.1,1199.1,1173.5,1028.8,-27.0,-20.0,59.0,15732.0,-1590.0,2453.0,-3520.0,-36.0,-296.0,-131.0,-36.0,-58.0,37.0,13217.0,-8342.0,-1242.0,4755.0,-1.0,-106.0,-310.0,1.0
2022-05-13 12:14:42.930211-07:00,1284.6,777.8,1388.5,1137.5,1068.6,905.9,1659.6,1401.2,3475.9,3467.4,1173.5,873.8,1958.8,3468.6,1535.7,1325.0,3478.3,3467.4,387.2,632.7,925.4,1167.4,563.4,2433.5,3478.3,3472.2,729.9,1053.9,2318.1,1190.3,1177.0,1023.7,-80.0,-129.0,232.0,15724.0,-1677.0,2449.0,-3521.0,-417.0,409.0,78.0,-56.0,-178.0,-8.0,13234.0,-8344.0,-1342.0,4676.0,-406.0,-41.0,-157.0,1.0
2022-05-13 12:14:42.974346-07:00,1284.6,777.8,1388.5,1135.7,1068.6,905.0,1656.8,1393.0,3475.9,3467.4,1173.5,874.7,1958.8,3473.4,1532.9,1320.5,3467.4,3463.7,392.6,632.7,923.7,1167.4,563.4,2433.5,3473.4,3464.9,729.0,1053.9,2316.0,1190.3,1177.0,1023.7,-16.0,-38.0,-8.0,15716.0,-1721.0,2475.0,-3516.0,29.0,-125.0,56.0,-41.0,-24.0,-22.0,13196.0,-8404.0,-1374.0,4667.0,28.0,-26.0,73.0,1.0
2022-05-13 12:14:43.110095-07:00,1267.6,785.2,1396.7,1135.7,1070.3,905.0,1656.8,1393.0,3467.4,3475.9,1173.5,874.7,1962.8,3473.4,1532.9,1320.5,3467.4,3463.7,392.6,635.9,923.7,1166.5,565.0,2545.4,3473.4,3464.9,729.0,1053.0,2316.0,1192.9,1177.0,1030.6,39.0,-31.0,2.0,15735.0,-1757.0,2372.0,-3481.0,-15.0,-410.0,23.0,19.0,-36.0,-7.0,13185.0,-8396.0,-1394.0,4707.0,51.0,-125.0,49.0,1.0
2022-05-13 12:14:43.111805-07:00,1267.6,785.2,1396.7,1140.1,1069.5,889.8,1649.2,1397.6,3467.4,3475.9,1173.5,871.3,1976.6,3472.2,1526.4,1316.9,3485.6,3475.9,387.2,632.7,926.2,1166.5,565.0,2545.4,3477.1,3473.4,729.9,1052.2,2422.9,1192.9,1177.0,1030.6,56.0,12.0,32.0,15760.0,-1740.0,2188.0,-3501.0,139.0,-260.0,-64.0,23.0,26.0,28.0,13203.0,-8335.0,-1391.0,4766.0,83.0,-53.0,107.0,1.0
2022-05-13 12:14:43.113003-07:00,1274.7,776.9,1390.3,1139.2,1069.5,889.8,1649.2,1397.6,3472.2,3475.9,1170.0,874.7,1976.6,3472.2,1526.4,1316.9,3485.6,3475.9,387.2,632.7,921.1,1170.9,565.8,2727.1,3477.1,3473.4,729.9,1052.2,2446.2,1196.5,1166.5,1038.3,27.0,24.0,-43.0,15773.0,-1716.0,2063.0,-3530.0,78.0,-291.0,-119.0,0.0,31.0,0.0,13207.0,-8307.0,-1378.0,4808.0,31.0,-60.0,44.0,1.0
2022-05-13 12:14:43.152747-07:00,1274.7,776.9,1390.3,1139.2,1071.2,896.6,1653.0,1396.7,3472.2,3475.9,1170.0,874.7,1978.6,3457.6,1522.7,1316.0,3477.1,3474.6,391.1,630.3,921.1,1170.9,565.8,2727.1,3480.7,3494.1,727.4,1049.6,2446.2,1196.5,1166.5,1038.3,21.0,9.0,34.0,15777.0,-1727.0,1909.0,-3592.0,44.0,-358.0,-234.0,1.0,-39.0,32.0,13214.0,-8281.0,-1382.0,4831.0,58.0,-22.0,32.0,1.0
2022-05-13 12:14:43.198423-07:00,1272.1,785.2,1390.3,1136.6,1071.2,896.6,1653.0,1396.7,3475.9,3477.1,1162.1,869.6,1978.6,3457.6,1522.7,1316.0,3477.1,3474.6,391.1,630.3,931.3,1162.1,569.8,2954.1,3480.7,3494.1,727.4,1049.6,2561.6,1188.5,1170.0,1035.7,9.0,-16.0,11.0,15766.0,-1792.0,1744.0,-3688.0,-23.0,-363.0,-272.0,-14.0,-9.0,13.0,13214.0,-8274.0,-1352.0,4850.0,37.0,51.0,87.0,1.0
2022-05-13 12:14:43.289574-07:00,1272.1,785.2,1390.3,1136.6,1084.2,893.2,1650.2,1403.0,3475.9,3477.1,1162.1,869.6,1980.6,3472.2,1503.2,1314.2,3481.9,3477.1,392.6,631.9,931.3,1162.1,569.8,2954.1,3478.3,3480.7,712.6,1058.2,2561.6,1188.5,1170.0,1035.7,32.0,-20.0,2.0,15757.0,-1863.0,1576.0,-3767.0,-89.0,-428.0,-198.0,14.0,-15.0,21.0,13216.0,-8268.0,-1313.0,4866.0,30.0,54.0,70.0,1.0
2022-05-13 12:14:43.292127-07:00,1273.9,781.1,1382.1,1119.1,1084.2,893.2,1650.2,1402.1,3474.6,3478.3,1151.5,874.7,1980.6,3472.2,1503.2,1298.1,3478.3,3477.1,392.6,631.9,922.0,1163.8,571.4,3496.6,3479.5,3480.7,712.6,1058.2,2576.6,1206.2,1179.7,1046.1,62.0,-5.0,55.0,15751.0,-1955.0,1359.0,-3830.0,-100.0,-561.0,-250.0,42.0,-4.0,57.0,13214.0,-8265.0,-1255.0,4893.0,62.0,100.0,153.0,1.0
2022-05-13 12:14:43.333884-07:00,1270.3,781.1,1382.1,1119.1,1077.3,901.7,1663.4,1402.1,3466.1,3478.3,1151.5,874.7,1959.8,3468.6,1465.4,1298.1,3478.3,3488.0,391.1,637.6,922.0,1163.8,571.4,3507.5,3479.5,3477.1,718.4,1053.9,2576.6,1206.2,1179.7,1050.4,105.0,30.0,92.0,15738.0,-2093.0,1231.0,-3854.0,-332.0,-164.0,-21.0,62.0,40.0,45.0,13164.0,-8341.0,-1164.0,4921.0,-248.0,232.0,221.0,1.0
2022-05-13 12:14:43.377403-07:00,1270.3,784.4,1392.1,1110.4,1077.3,901.7,1663.4,1418.6,3466.1,3471.0,1151.5,871.3,1959.8,3468.6,1465.4,1288.2,3467.4,3488.0,391.1,637.6,923.7,1171.8,574.6,3507.5,3473.4,3477.1,718.4,1053.9,2515.4,1174.4,1176.2,1050.4,144.0,112.0,59.0,15694.0,-2324.0,1468.0,-3816.0,-953.0,766.0,154.0,87.0,69.0,64.0,13023.0,-8584.0,-1069.0,4901.0,-787.0,436.0,207.0,1.0
2022-05-13 12:14:43.425118-07:00,1261.3,784.4,1392.1,1110.4,1066.0,902.5,1678.6,1418.6,3468.6,3471.0,1151.5,871.3,1927.2,3478.3,1422.2,1288.2,3467.4,3477.1,390.3,639.2,923.7,1171.8,574.6,3492.9,3473.4,3483.2,720.8,1054.8,2515.4,1174.4,1176.2,1039.2,93.0,115.0,-53.0,15559.0,-2847.0,2047.0,-3750.0,-1883.0,1083.0,90.0,67.0,108.0,-1.0,12768.0,-9023.0,-987.0,4799.0,-1286.0,587.0,100.0,1.0
2022-05-13 12:14:43.661911-07:00,1261.3,774.5,1352.1,1082.5,1066.0,902.5,1678.6,1429.5,3468.6,3467.4,1145.4,864.6,1927.2,3478.3,1422.2,1280.1,3477.1,3477.1,390.3,639.2,924.5,1174.4,578.6,3492.9,3475.9,3483.2,720.8,1054.8,2450.4,1152.4,1157.7,1039.2,56.0,124.0,-76.0,15290.0,-3594.0,2785.0,-3738.0,-2291.0,1485.0,-92.0,22.0,136.0,-28.0,12404.0,-9612.0,-973.0,4609.0,-1726.0,632.0,-63.0,1.0
2022-05-13 12:14:43.663991-07:00,1274.7,774.5,1352.1,1082.5,1050.4,893.2,1711.0,1429.5,3473.4,3467.4,1145.4,864.6,1907.5,3474.6,1414.0,1280.1,3477.1,3481.9,395.0,638.4,924.5,1174.4,578.6,3481.9,3475.9,3483.2,715.9,1052.2,2450.4,1152.4,1157.7,1033.2,59.0,117.0,-112.0,14861.0,-4428.0,3676.0,-3802.0,-2570.0,1788.0,-366.0,15.0,83.0,-49.0,11951.0,-10290.0,-1035.0,4321.0,-1984.0,683.0,-282.0,1.0
2022-05-13 12:14:43.772675-07:00,1274.7,780.3,1317.8,1078.2,1050.4,893.2,1726.3,1425.0,3473.4,3467.4,1135.7,871.3,1907.5,3474.6,1408.5,1281.0,3473.4,3474.6,395.0,638.4,923.7,1171.8,580.2,3481.9,3474.6,3475.9,715.9,1052.2,2424.0,1134.9,1136.6,1033.2,45.0,109.0,-156.0,14291.0,-5302.0,4556.0,-3916.0,-2680.0,1780.0,-429.0,9.0,159.0,-63.0,11435.0,-10989.0,-1144.0,3952.0,-2180.0,725.0,-423.0,1.0
2022-05-13 12:14:43.773850-07:00,1271.2,781.1,1317.8,1078.2,1046.1,884.8,1726.3,1425.0,3467.4,3478.3,1135.7,871.3,1896.7,3473.4,1408.5,1281.0,3473.4,3474.6,391.8,645.7,923.7,1171.8,579.4,3420.1,3474.6,3475.9,714.2,1039.2,2424.0,1134.9,1124.4,1023.7,68.0,156.0,-247.0,13501.0,-6334.0,5496.0,-3979.0,-3576.0,1883.0,-706.0,-17.0,121.0,-115.0,10730.0,-11801.0,-1357.0,3493.0,-2927.0,655.0,-589.0,1.0
2022-05-13 12:14:43.774981-07:00,1271.2,781.1,1310.6,1077.3,1046.1,884.8,1712.9,1407.6,3467.4,3478.3,1133.1,868.8,1896.7,3473.4,1397.6,1276.5,3468.6,3475.9,391.8,645.7,922.8,1163.0,579.4,3420.1,3478.3,3485.6,714.2,1039.2,2410.3,1125.2,1124.4,1023.7,-42.0,-27.0,-233.0,12481.0,-7572.0,6266.0,-4008.0,-3646.0,1331.0,-952.0,-80.0,22.0,-82.0,9922.0,-12582.0,-1626.0,3005.0,-2563.0,656.0,-619.0,1.0
2022-05-13 12:14:43.829378-07:00,1261.3,779.4,1310.6,1077.3,1031.4,880.6,1712.9,1407.6,3468.6,3471.0,1133.1,868.8,1872.3,3464.9,1397.6,1276.5,3468.6,3475.9,389.5,642.4,922.8,1163.0,573.8,3317.0,3478.3,3485.6,700.3,1029.7,2410.3,1125.2,1112.1,1024.5,-52.0,-138.0,-92.0,11539.0,-8652.0,6711.0,-3922.0,-2808.0,712.0,-804.0,-78.0,-61.0,-69.0,9183.0,-13194.0,-1845.0,2572.0,-2054.0,519.0,-497.0,1.0
2022-05-13 12:14:43.831583-07:00,1261.3,779.4,1303.4,1065.1,1031.4,880.6,1710.0,1408.5,3468.6,3471.0,1133.1,872.1,1872.3,3464.9,1397.6,1279.2,3475.9,3478.3,389.5,642.4,926.2,1167.4,573.8,3317.0,3478.3,3475.9,700.3,1029.7,2383.9,1127.9,1112.1,1024.5,-44.0,-146.0,6.0,10930.0,-9231.0,6952.0,-3930.0,-1145.0,649.0,-462.0,-91.0,-91.0,-5.0,8794.0,-13501.0,-1975.0,2222.0,-728.0,484.0,-442.0,1.0
2022-05-13 12:14:43.832808-07:00,1263.1,780.3,1281.9,1065.1,1035.7,876.4,1710.0,1408.5,3474.6,3473.4,1123.5,872.1,1869.3,3473.4,1397.6,1279.2,3475.9,3478.3,387.9,643.2,926.2,1160.3,576.2,3312.2,3478.3,3475.9,700.3,1012.5,2383.9,1110.4,1106.9,1016.8,-56.0,-89.0,-21.0,10710.0,-9386.0,6998.0,-4084.0,57.0,199.0,-539.0,-68.0,-82.0,-55.0,8740.0,-13568.0,-2040.0,1950.0,-142.0,410.0,-459.0,1.0
2022-05-13 12:14:43.872466-07:00,1263.1,780.3,1281.9,1059.1,1035.7,869.6,1718.6,1395.7,3474.6,3473.4,1123.5,862.9,1869.3,3462.5,1390.3,1275.6,3479.5,3473.4,390.3,643.2,924.5,1160.3,576.2,3312.2,3483.2,3474.6,695.4,1012.5,2359.8,1110.4,1106.9,1016.8,-39.0,-46.0,-24.0,10699.0,-9405.0,6826.0,-4349.0,445.0,43.0,-704.0,-66.0,-39.0,-42.0,8755.0,-13573.0,-2131.0,1733.0,-84.0,250.0,-446.0,1.0
2022-05-13 12:14:43.963953-07:00,1259.6,762.9,1290.9,1059.1,1026.3,869.6,1718.6,1395.7,3467.4,3471.0,1114.7,862.9,1863.5,3462.5,1390.3,1275.6,3479.5,3473.4,390.3,639.2,924.5,1168.2,577.0,3305.1,3483.2,3474.6,695.4,1004.8,2359.8,1107.8,1111.2,1021.1,-117.0,-170.0,-63.0,10666.0,-9516.0,6592.0,-4547.0,-47.0,-318.0,-790.0,-92.0,-211.0,-86.0,8713.0,-13601.0,-2240.0,1582.0,-98.0,79.0,-291.0,1.0
2022-05-13 12:14:44.054050-07:00,1259.6,762.9,1290.9,1063.4,1026.3,880.6,1714.8,1402.1,3467.4,3471.0,1114.7,868.8,1863.5,3467.4,1393.0,1276.5,3478.3,3471.0,394.2,639.2,927.1,1168.2,577.0,3305.1,3474.6,3473.4,699.5,1004.8,2345.2,1107.8,1111.2,1021.1,-5.0,-113.0,34.0,10756.0,-9601.0,6274.0,-4605.0,262.0,-451.0,-130.0,-31.0,47.0,-74.0,8762.0,-13567.0,-2273.0,1563.0,37.0,9.0,-2.0,1.0
2022-05-13 12:14:44.055397-07:00,1250.6,774.5,1284.6,1063.4,1025.4,880.6,1714.8,1402.1,3469.8,3469.8,1119.1,868.8,1857.6,3467.4,1393.0,1276.5,3478.3,3471.0,394.2,645.7,927.1,1163.0,571.4,3265.9,3474.6,3473.4,699.5,1004.8,2345.2,1113.0,1097.3,1008.2,44.0,16.0,65.0,10756.0,-9610.0,6298.0,-4553.0,-257.0,140.0,95.0,19.0,25.0,0.0,8713.0,-13599.0,-2266.0,1569.0,-274.0,9.0,56.0,1.0
2022-05-13 12:14:44.280019-07:00,1250.6,774.5,1284.6,1060.8,1021.9,871.3,1711.9,1389.4,3469.8,3469.8,1119.1,867.9,1857.6,3467.4,1392.1,1274.7,3479.5,3478.3,390.3,641.6,927.1,1163.0,571.4,3265.9,3474.6,3473.4,693.8,1001.3,2334.7,1113.0,1097.3,1008.2,30.0,15.0,31.0,10637.0,-9675.0,6416.0,-4529.0,-377.0,199.0,33.0,16.0,0.0,10.0,8599.0,-13676.0,-2248.0,1550.0,-306.0,41.0,46.0,1.0
2022-05-13 12:14:44.281209-07:00,1256.0,767.8,1279.2,1054.8,1021.9,871.3,1711.9,1389.4,3469.8,3467.4,1116.5,867.1,1857.6,3467.4,1392.1,1274.7,3479.5,3478.3,390.3,641.6,916.9,1157.7,570.6,3177.7,3474.6,3473.4,693.8,1001.3,2321.2,1113.9,1099.0,1008.2,16.0,15.0,-41.0,10517.0,-9754.0,6493.0,-4530.0,-353.0,153.0,-102.0,-4.0,18.0,-37.0,8513.0,-13732.0,-2244.0,1537.0,-343.0,-11.0,19.0,1.0
2022-05-13 12:14:44.457833-07:00,1256.0,767.8,1279.2,1054.8,1021.1,867.9,1714.8,1386.6,3469.8,3467.4,1116.5,867.1,1845.0,3473.4,1392.1,1273.0,3475.9,3473.4,394.2,639.2,916.9,1157.7,570.6,3177.7,3477.1,3478.3,696.2,992.7,2321.2,1113.9,1099.0,1008.2,-28.0,-24.0,-43.0,10390.0,-9870.0,6536.0,-4510.0,-317.0,1.0,-75.0,-40.0,-2.0,-23.0,8384.0,-13808.0,-2270.0,1532.0,-190.0,-82.0,-29.0,1.0
2022-05-13 12:14:44.460078-07:00,1262.2,764.5,1274.7,1055.6,1021.1,867.9,1714.8,1386.6,3467.4,3469.8,1112.1,865.4,1845.0,3473.4,1392.1,1273.0,3475.9,3473.4,394.2,639.2,924.5,1161.2,576.2,3201.1,3477.1,3478.3,696.2,992.7,2308.7,1100.8,1098.2,1006.5,-6.0,-10.0,0.0,10405.0,-9900.0,6488.0,-4480.0,145.0,-194.0,-31.0,-20.0,2.0,-14.0,8373.0,-13805.0,-2305.0,1562.0,206.0,-101.0,-63.0,1.0
2022-05-13 12:14:44.507583-07:00,1262.2,764.5,1274.7,1055.6,1015.1,858.7,1713.8,1395.7,3467.4,3469.8,1112.1,865.4,1855.7,3464.9,1383.9,1278.3,3466.1,3473.4,391.8,637.6,924.5,1161.2,576.2,3201.1,3464.9,3473.4,684.8,989.3,2308.7,1100.8,1098.2,1006.5,0.0,2.0,21.0,10489.0,-9871.0,6405.0,-4467.0,192.0,-170.0,-2.0,-22.0,9.0,-8.0,8443.0,-13752.0,-2339.0,1603.0,193.0,-91.0,-68.0,1.0
2022-05-13 12:14:44.508821-07:00,1265.8,771.1,1281.0,1059.1,1015.1,858.7,1713.8,1387.5,3473.4,3467.4,1119.1,869.6,1855.7,3464.9,1383.9,1279.2,3467.4,3473.4,391.8,637.6,927.9,1155.9,571.4,3201.1,3480.7,3473.4,684.8,989.3,2299.3,1106.0,1099.9,1013.3,1.0,17.0,41.0,10552.0,-9844.0,6350.0,-4457.0,117.0,-118.0,-4.0,-9.0,4.0,9.0,8495.0,-13712.0,-2367.0,1629.0,132.0,-39.0,-52.0,1.0
2022-05-13 12:14:44.509963-07:00,1260.4,771.1,1281.0,1059.1,1021.9,861.2,1709.1,1387.5,3472.2,3467.4,1119.1,869.6,1840.1,3462.5,1385.7,1279.2,3467.4,3475.9,393.4,635.9,927.9,1155.9,571.4,3145.0,3480.7,3488.0,687.2,986.7,2299.3,1106.0,1099.9,1001.3,2.0,-2.0,43.0,10603.0,-9809.0,6312.0,-4467.0,82.0,-24.0,5.0,-7.0,-1.0,3.0,8535.0,-13684.0,-2378.0,1635.0,82.0,6.0,-14.0,1.0
2022-05-13 12:14:44.511056-07:00,1260.4,764.5,1278.3,1055.6,1021.9,861.2,1709.1,1383.0,3472.2,3468.6,1120.9,861.2,1840.1,3462.5,1385.7,1273.0,3477.1,3475.9,393.4,635.9,923.7,1163.0,569.0,3145.0,3480.7,3488.0,687.2,986.7,2287.9,1115.6,1093.8,1001.3,-6.0,-4.0,6.0,10607.0,-9785.0,6319.0,-4500.0,0.0,35.0,1.0,-18.0,1.0,-2.0,8551.0,-13679.0,-2360.0,1622.0,9.0,38.0,18.0,1.0
2022-05-13 12:14:44.593291-07:00,1257.8,766.2,1270.3,1051.3,1009.9,857.9,1710.0,1372.1,3468.6,3473.4,1119.1,864.6,1838.2,3478.3,1383.0,1273.0,3475.9,3474.6,391.8,634.3,924.5,1155.9,573.8,3135.7,3474.6,3466.1,691.3,984.2,2289.0,1110.4,1083.4,1003.0,-2.0,2.0,-5.0,10601.0,-9783.0,6328.0,-4506.0,-11.0,26.0,-1.0,-16.0,4.0,-11.0,8546.0,-13685.0,-2347.0,1621.0,-10.0,9.0,3.0,1.0
2022-05-13 12:14:44.640285-07:00,1271.2,766.2,1270.3,1051.3,1014.2,858.7,1711.9,1372.1,3466.1,3473.4,1119.1,864.6,1834.3,3472.2,1388.5,1273.0,3475.9,3471.0,392.6,639.2,924.5,1155.9,573.8,3113.6,3474.6,3478.3,687.2,981.6,2289.0,1110.4,1083.4,1000.5,-1.0,0.0,-1.0,10605.0,-9780.0,6325.0,-4508.0,26.0,-21.0,2.0,-11.0,8.0,-9.0,8545.0,-13685.0,-2345.0,1625.0,24.0,-13.0,-13.0,1.0
2022-05-13 12:14:44.641489-07:00,1271.2,770.3,1271.2,1061.7,1014.2,858.7,1705.3,1374.8,3466.1,3480.7,1113.0,866.3,1834.3,3472.2,1384.8,1263.1,3467.4,3475.9,392.6,639.2,933.0,1158.6,567.4,3113.6,3466.1,3477.1,687.2,981.6,2272.4,1100.8,1092.1,1000.5,0.0,1.0,3.0,10616.0,-9778.0,6311.0,-4506.0,27.0,-47.0,-16.0,-16.0,8.0,-4.0,8552.0,-13679.0,-2353.0,1632.0,36.0,-26.0,-21.0,1.0
2022-05-13 12:14:44.729630-07:00,1254.2,772.8,1271.2,1061.7,1009.9,860.4,1705.3,1374.8,3480.7,3469.8,1113.0,866.3,1830.4,3468.6,1384.8,1263.1,3467.4,3475.9,390.3,641.6,933.0,1158.6,565.8,3128.7,3466.1,3477.1,688.9,983.3,2272.4,1100.8,1083.4,1001.3,-1.0,-4.0,17.0,10626.0,-9784.0,6292.0,-4497.0,8.0,-43.0,-6.0,-13.0,-1.0,-4.0,8553.0,-13675.0,-2363.0,1639.0,1.0,-22.0,-19.0,1.0
2022-05-13 12:14:44.732610-07:00,1254.2,772.8,1271.2,1055.6,1009.9,860.4,1708.1,1358.5,3480.7,3469.8,1112.1,864.6,1830.4,3468.6,1376.6,1267.6,3480.7,3466.1,390.3,641.6,926.2,1165.6,565.8,3128.7,3481.9,3469.8,688.9,983.3,2271.4,1106.9,1083.4,1001.3,2.0,13.0,2.0,10642.0,-9777.0,6276.0,-4496.0,11.0,-35.0,-12.0,-13.0,4.0,-2.0,8564.0,-13667.0,-2368.0,1645.0,38.0,-12.0,-10.0,1.0
2022-05-13 12:14:44.817857-07:00,1256.9,770.3,1271.2,1055.6,1010.8,857.9,1708.1,1358.5,3473.4,3467.4,1112.1,864.6,1825.5,3478.3,1376.6,1267.6,3480.7,3466.1,391.8,640.0,926.2,1165.6,566.6,3119.4,3481.9,3469.8,684.8,976.5,2271.4,1106.9,1081.6,1001.3,-5.0,0.0,7.0,10645.0,-9785.0,6261.0,-4493.0,-22.0,-40.0,-26.0,-10.0,1.0,-3.0,8560.0,-13669.0,-2368.0,1648.0,-31.0,-2.0,-6.0,1.0
2022-05-13 12:14:45.225196-07:00,1256.9,770.3,1271.2,1047.8,1010.8,857.9,1702.4,1368.5,3473.4,3467.4,1106.0,863.7,1825.5,3478.3,1378.5,1274.7,3478.3,3484.4,391.8,640.0,926.2,1160.3,566.6,3119.4,3472.2,3472.2,684.8,976.5,2249.7,1102.5,1081.6,1001.3,4.0,5.0,6.0,10651.0,-9789.0,6245.0,-4491.0,17.0,-38.0,-21.0,-8.0,8.0,-6.0,8557.0,-13671.0,-2368.0,1648.0,11.0,7.0,-3.0,1.0
2022-05-13 12:14:45.227009-07:00,1248.0,772.8,1274.7,1047.8,1005.6,860.4,1702.4,1368.5,3469.8,3473.4,1112.1,863.7,1822.6,3480.7,1378.5,1274.7,3478.3,3484.4,392.6,641.6,926.2,1155.0,565.0,3122.9,3472.2,3472.2,685.6,979.9,2249.7,1097.3,1082.5,1003.9,2.0,-3.0,8.0,10654.0,-9803.0,6222.0,-4485.0,-18.0,-67.0,-37.0,-6.0,8.0,-6.0,8553.0,-13673.0,-2368.0,1649.0,-13.0,2.0,-5.0,1.0
2022-05-13 12:14:45.228168-07:00,1248.0,772.8,1274.7,1047.0,1005.6,853.7,1704.3,1374.8,3469.8,3473.4,1112.1,873.0,1822.6,3471.0,1383.0,1272.1,3481.9,3488.0,394.2,641.6,922.8,1155.0,565.0,3122.9,3474.6,3473.4,688.9,979.9,2259.0,1097.3,1082.5,1003.9,-2.0,-14.0,15.0,10657.0,-9808.0,6211.0,-4483.0,26.0,21.0,17.0,-16.0,0.0,-9.0,8547.0,-13676.0,-2369.0,1653.0,-2.0,-15.0,-6.0,1.0
2022-05-13 12:14:45.229835-07:00,1255.1,757.9,1272.1,1047.0,1003.0,853.7,1704.3,1374.8,3472.2,3466.1,1110.4,873.0,1817.8,3471.0,1383.0,1272.1,3481.9,3488.0,394.2,642.4,922.8,1163.0,564.2,3090.5,3474.6,3473.4,688.9,980.7,2259.0,1103.4,1086.0,996.2,-1.0,9.0,11.0,10663.0,-9796.0,6218.0,-4485.0,-6.0,0.0,7.0,-7.0,4.0,-1.0,8549.0,-13675.0,-2368.0,1656.0,9.0,-1.0,3.0,1.0
2022-05-13 12:14:45.269176-07:00,1255.1,757.9,1272.1,1055.6,1003.0,865.4,1689.1,1361.2,3472.2,3466.1,1110.4,869.6,1817.8,3469.8,1371.2,1266.7,3473.4,3478.3,391.1,642.4,925.4,1163.0,564.2,3090.5,3480.7,3469.8,684.0,980.7,2252.8,1103.4,1086.0,996.2,3.0,-11.0,15.0,10660.0,-9794.0,6221.0,-4491.0,32.0,34.0,6.0,-9.0,-3.0,-4.0,8543.0,-13678.0,-2368.0,1656.0,5.0,1.0,-4.0,1.0
2022-05-13 12:14:45.270125-07:00,1255.1,757.9,1272.1,1055.6,1003.0,865.4,1689.1,1361.2,3472.2,3466.1,1110.4,869.6,1817.8,3469.8,1371.2,1266.7,3473.4,3478.3,391.1,642.4,925.4,1163.0,564.2,3090.5,3480.7,3469.8,684.0,980.7,2252.8,1103.4,1086.0,996.2,3.0,-11.0,15.0,10660.0,-9794.0,6221.0,-4491.0,32.0,34.0,6.0,-9.0,-3.0,-4.0,8543.0,-13678.0,-2368.0,1656.0,5.0,1.0,-4.0,1.0
2022-05-13 12:14:45.271093-07:00,1255.1,757.9,1272.1,1055.6,1003.0,865.4,1689.1,1361.2,3472.2,3466.1,1110.4,869.6,1817.8,3469.8,1371.2,1266.7,3473.4,3478.3,391.1,642.4,925.4,1163.0,564.2,3090.5,3480.7,3469.8,684.0,980.7,2252.8,1103.4,1086.0,996.2,3.0,-11.0,15.0,10660.0,-9794.0,6221.0,-4491.0,32.0,34.0,6.0,-9.0,-3.0,-4.0,8543.0,-13678.0,-2368.0,1656.0,5.0,1.0,-4.0,1.0
2022-05-13 12:14:45.493952-07:00,1251.5,772.0,1259.6,1048.7,1003.9,852.0,1701.4,1369.4,3475.9,3478.3,1108.6,864.6,1815.8,3467.4,1371.2,1265.8,3479.5,3480.7,401.2,634.3,927.9,1155.0,565.0,2996.2,3473.4,3475.9,687.2,974.8,2229.1,1099.9,1075.6,997.9,1.0,1.0,5.0,10689.0,-9771.0,6204.0,-4496.0,-33.0,6.0,-2.0,-10.0,5.0,-2.0,8549.0,-13674.0,-2364.0,1668.0,-31.0,-2.0,-2.0,1.0
2022-05-13 12:14:45.495309-07:00,1252.4,768.7,1254.2,1047.0,1003.9,852.0,1701.4,1368.5,3475.9,3475.9,1110.4,867.1,1815.8,3467.4,1371.2,1263.1,3478.3,3480.7,401.2,634.3,922.0,1161.2,559.4,3038.6,3477.1,3475.9,687.2,974.8,2225.0,1120.9,1074.7,995.3,1.0,1.0,13.0,10685.0,-9770.0,6210.0,-4498.0,19.0,21.0,12.0,-7.0,-5.0,0.0,8544.0,-13677.0,-2365.0,1668.0,21.0,1.0,3.0,1.0
2022-05-13 12:14:45.675076-07:00,1253.3,768.7,1254.2,1047.0,990.2,853.7,1700.5,1368.5,3472.2,3475.9,1110.4,867.1,1805.2,3472.2,1372.1,1263.1,3478.3,3481.9,391.1,632.7,922.0,1161.2,559.4,3006.5,3477.1,3475.9,684.8,968.8,2225.0,1120.9,1074.7,993.6,0.0,-6.0,4.0,10686.0,-9763.0,6216.0,-4505.0,0.0,28.0,13.0,-6.0,2.0,-6.0,8544.0,-13677.0,-2364.0,1669.0,-17.0,-1.0,0.0,1.0
2022-05-13 12:14:45.676211-07:00,1253.3,762.9,1251.5,1041.8,990.2,853.7,1700.5,1363.0,3472.2,3475.9,1104.3,862.1,1805.2,3472.2,1372.1,1269.4,3475.9,3481.9,391.1,632.7,920.3,1161.2,565.8,3006.5,3478.3,3475.9,684.8,968.8,2228.1,1090.3,1076.4,993.6,4.0,7.0,0.0,10685.0,-9758.0,6224.0,-4506.0,12.0,3.0,5.0,-7.0,3.0,-3.0,8542.0,-13678.0,-2364.0,1669.0,11.0,3.0,1.0,1.0
2022-05-13 12:14:45.899941-07:00,1255.1,762.9,1251.5,1041.8,996.2,852.8,1697.6,1363.0,3468.6,3475.9,1104.3,862.1,1809.0,3472.2,1373.9,1269.4,3475.9,3473.4,388.7,637.6,920.3,1161.2,565.8,3015.7,3478.3,3477.1,675.0,970.5,2228.1,1090.3,1076.4,992.7,-3.0,0.0,-1.0,10686.0,-9757.0,6221.0,-4508.0,-8.0,-10.0,-11.0,-11.0,6.0,-6.0,8541.0,-13679.0,-2363.0,1671.0,-12.0,-7.0,-9.0,1.0
2022-05-13 12:14:45.901712-07:00,1255.1,759.6,1256.0,1047.0,996.2,852.8,1697.6,1375.7,3468.6,3472.2,1110.4,861.2,1809.0,3472.2,1373.9,1267.6,3467.4,3473.4,388.7,637.6,929.6,1159.4,563.4,3015.7,3479.5,3477.1,675.0,970.5,2210.6,1093.8,1074.7,992.7,3.0,-4.0,9.0,10686.0,-9763.0,6217.0,-4502.0,3.0,-20.0,-12.0,-8.0,0.0,-5.0,8537.0,-13681.0,-2365.0,1672.0,16.0,-12.0,-7.0,1.0
2022-05-13 12:14:45.944559-07:00,1260.4,759.6,1256.0,1047.0,1003.9,858.7,1703.3,1375.7,3468.6,3472.2,1110.4,861.2,1811.0,3475.9,1375.7,1267.6,3467.4,3474.6,391.8,641.6,929.6,1159.4,563.4,2997.4,3479.5,3479.5,682.3,979.0,2210.6,1093.8,1074.7,985.9,3.0,0.0,4.0,10697.0,-9755.0,6210.0,-4505.0,30.0,-4.0,1.0,-5.0,1.0,-2.0,8549.0,-13672.0,-2368.0,1674.0,21.0,-2.0,-10.0,1.0
2022-05-13 12:14:46.033955-07:00,7.0,0.0,14.0,10697.0,-9754.0,6213.0,-4502.0,-1.0,0.0,15.0,-5.0,4.0,0.0,8547.0,-13673.0,-2369.0,1676.0,-1.0,-7.0,-1.0,1.0,-2.0,0.0,7.0,10698.0,-9749.0,6215.0,-4505.0,9.0,6.0,0.0,-9.0,1.0,0.0,8547.0,-13673.0,-2369.0,1676.0,-1.0,4.0,2.0,1.0,-7.0,2.0,-3.0,8538.0,-13679.0,-2370.0,1674.0,-24.0,5.0,0.0,1.0
2022-05-13 12:14:46.035174-07:00,1241.7,765.3,1257.8,1043.5,1000.5,851.1,1701.4,1360.3,3469.8,3471.0,1103.4,868.8,1803.2,3464.9,1384.8,1270.3,3478.3,3467.4,384.0,640.8,919.4,1155.0,562.6,2973.4,3473.4,3481.9,684.0,967.9,2221.9,1092.1,1077.3,997.0,3.0,-3.0,6.0,10693.0,-9754.0,6219.0,-4503.0,-21.0,13.0,3.0,-7.0,2.0,-3.0,8538.0,-13679.0,-2370.0,1674.0,-24.0,5.0,0.0,1.0
2022-05-13 12:14:46.035715-07:00,1241.7,765.3,1257.8,1043.5,1000.5,851.1,1701.4,1360.3,3469.8,3471.0,1103.4,868.8,1803.2,3464.9,1384.8,1270.3,3478.3,3467.4,384.0,640.8,919.4,1155.0,562.6,2973.4,3473.4,3481.9,684.0,967.9,2221.9,1092.1,1077.3,997.0,3.0,-3.0,6.0,10693.0,-9754.0,6219.0,-4503.0,-21.0,13.0,3.0,-7.0,2.0,-3.0,8538.0,-13679.0,-2370.0,1674.0,-24.0,5.0,0.0,1.0
2022-05-13 12:14:46.169803-07:00,1241.7,765.3,1257.8,1043.5,1000.5,851.1,1701.4,1360.3,3469.8,3471.0,1103.4,868.8,1803.2,3464.9,1384.8,1270.3,3478.3,3467.4,384.0,640.8,919.4,1155.0,562.6,2973.4,3473.4,3481.9,684.0,967.9,2221.9,1092.1,1077.3,997.0,3.0,-3.0,6.0,10693.0,-9754.0,6219.0,-4503.0,-21.0,13.0,3.0,-8.0,0.0,-8.0,8546.0,-13674.0,-2370.0,1678.0,-17.0,-8.0,-6.0,1.0
2022-05-13 12:14:46.171125-07:00,1260.4,772.0,1252.4,1042.6,998.7,853.7,1689.1,1368.5,3467.4,3471.0,1105.1,863.7,1805.2,3479.5,1375.7,1268.5,3473.4,3474.6,390.3,637.6,925.4,1161.2,564.2,3023.7,3473.4,3484.4,681.5,969.6,2207.5,1089.5,1069.5,986.7,4.0,-4.0,3.0,10702.0,-9749.0,6213.0,-4502.0,-8.0,-6.0,-7.0,-6.0,0.0,-3.0,8545.0,-13675.0,-2371.0,1677.0,1.0,-2.0,-2.0,1.0
2022-05-13 12:14:46.172398-07:00,1248.0,770.3,1256.0,1042.6,991.9,853.7,1689.1,1368.5,3468.6,3474.6,1100.8,863.7,1808.1,3479.5,1375.7,1268.5,3473.4,3474.6,390.3,638.4,925.4,1154.2,560.2,2982.5,3473.4,3484.4,681.5,972.2,2207.5,1091.2,1070.3,988.5,2.0,-1.0,8.0,10701.0,-9749.0,6213.0,-4502.0,8.0,5.0,3.0,-6.0,0.0,-3.0,8545.0,-13675.0,-2371.0,1677.0,1.0,-2.0,-2.0,1.0
2022-05-13 12:14:46.173243-07:00,1248.0,770.3,1256.0,1042.6,991.9,853.7,1689.1,1368.5,3468.6,3474.6,1100.8,863.7,1808.1,3479.5,1375.7,1268.5,3473.4,3474.6,390.3,638.4,925.4,1154.2,560.2,2982.5,3473.4,3484.4,681.5,972.2,2207.5,1091.2,1070.3,988.5,2.0,-1.0,8.0,10701.0,-9749.0,6213.0,-4502.0,8.0,5.0,3.0,-7.0,4.0,-5.0,8546.0,-13674.0,-2370.0,1678.0,-7.0,-2.0,1.0,1.0
2022-05-13 12:14:46.174517-07:00,1248.8,778.6,1260.4,1040.9,998.7,850.3,1687.2,1361.2,3475.9,3467.4,1100.8,867.1,1798.4,3473.4,1371.2,1268.5,3477.1,3472.2,391.8,633.5,929.6,1157.7,561.0,2957.5,3481.9,3478.3,680.7,973.9,2203.4,1096.4,1074.7,988.5,1.0,-6.0,5.0,10703.0,-9749.0,6211.0,-4499.0,-8.0,9.0,13.0,-6.0,3.0,-4.0,8543.0,-13676.0,-2371.0,1677.0,2.0,-3.0,-5.0,1.0
2022-05-13 12:14:46.304192-07:00,1248.8,778.6,1260.4,1048.7,1007.3,855.3,1698.6,1364.8,3475.9,3467.4,1100.8,867.1,1796.5,3478.3,1366.6,1269.4,3472.2,3474.6,394.2,640.8,922.0,1157.7,561.0,2957.5,3478.3,3478.3,685.6,961.1,2192.2,1096.4,1074.7,988.5,4.0,-2.0,3.0,10702.0,-9752.0,6212.0,-4498.0,3.0,-10.0,-10.0,-12.0,5.0,-7.0,8545.0,-13674.0,-2370.0,1678.0,-4.0,-7.0,-1.0,1.0
2022-05-13 12:14:46.305989-07:00,1247.1,766.2,1256.0,1046.1,1007.3,855.3,1698.6,1364.8,3467.4,3463.7,1107.8,867.9,1796.5,3478.3,1366.6,1269.4,3472.2,3474.6,394.2,640.8,926.2,1155.9,566.6,2943.9,3478.3,3478.3,685.6,961.1,2201.4,1092.9,1067.7,988.5,5.0,-3.0,8.0,10704.0,-9749.0,6211.0,-4499.0,-6.0,-3.0,0.0,-10.0,1.0,-1.0,8543.0,-13675.0,-2371.0,1678.0,-3.0,-9.0,-3.0,1.0
2022-05-13 12:14:46.394471-07:00,1247.1,766.2,1256.0,1046.1,997.9,848.6,1690.0,1361.2,3467.4,3463.7,1107.8,867.9,1794.5,3462.5,1362.1,1266.7,3480.7,3478.3,382.5,637.6,926.2,1155.9,566.6,2943.9,3488.0,3467.4,679.1,959.4,2201.4,1092.9,1067.7,988.5,2.0,-1.0,6.0,10703.0,-9750.0,6211.0,-4498.0,-1.0,-7.0,4.0,-10.0,3.0,-1.0,8544.0,-13675.0,-2372.0,1679.0,10.0,-8.0,-8.0,1.0
2022-05-13 12:14:46.396737-07:00,1248.0,765.3,1248.0,1044.4,997.9,848.6,1690.0,1361.2,3477.1,3469.8,1107.8,872.1,1794.5,3462.5,1362.1,1266.7,3480.7,3478.3,382.5,637.6,921.1,1157.7,562.6,2982.5,3488.0,3467.4,679.1,959.4,2188.1,1094.7,1070.3,991.0,0.0,-4.0,3.0,10707.0,-9751.0,6204.0,-4497.0,12.0,-17.0,-11.0,-7.0,0.0,0.0,8545.0,-13674.0,-2371.0,1679.0,-3.0,-2.0,-1.0,1.0
2022-05-13 12:14:46.397865-07:00,1248.0,765.3,1248.0,1044.4,993.6,845.3,1691.9,1359.4,3477.1,3469.8,1107.8,872.1,1791.6,3468.6,1371.2,1267.6,3474.6,3485.6,393.4,640.8,921.1,1157.7,562.6,2982.5,3473.4,3488.0,690.5,967.1,2188.1,1094.7,1070.3,991.0,4.0,-6.0,6.0,10710.0,-9755.0,6196.0,-4493.0,-8.0,-28.0,-6.0,-9.0,0.0,-4.0,8547.0,-13673.0,-2371.0,1679.0,-6.0,-5.0,-1.0,1.0
2022-05-13 12:14:46.482772-07:00,1248.0,764.5,1248.8,1049.6,993.6,845.3,1691.9,1359.4,3473.4,3472.2,1096.4,862.1,1791.6,3468.6,1371.2,1267.6,3474.6,3485.6,393.4,640.8,923.7,1153.3,561.0,2967.7,3473.4,3488.0,690.5,967.1,2183.0,1098.2,1068.6,994.5,4.0,-4.0,9.0,10713.0,-9761.0,6187.0,-4485.0,-12.0,-36.0,-10.0,-5.0,0.0,-5.0,8545.0,-13674.0,-2372.0,1679.0,0.0,-3.0,-4.0,1.0
2022-05-13 12:14:46.484866-07:00,1250.6,764.5,1248.8,1049.6,1001.3,849.5,1691.9,1346.7,3478.3,3472.2,1096.4,862.1,1796.5,3473.4,1367.6,1263.1,3475.9,3478.3,390.3,640.8,923.7,1153.3,561.0,2981.4,3484.4,3481.9,686.4,965.4,2183.0,1098.2,1068.6,1001.3,3.0,-10.0,6.0,10714.0,-9764.0,6183.0,-4481.0,16.0,-1.0,4.0,-7.0,5.0,-2.0,8550.0,-13670.0,-2371.0,1680.0,-1.0,-3.0,1.0,1.0
2022-05-13 12:14:46.575220-07:00,1250.6,762.0,1241.7,1048.7,1001.3,849.5,1691.9,1357.6,3478.3,3473.4,1102.5,870.5,1796.5,3473.4,1367.6,1267.6,3481.9,3478.3,390.3,640.8,923.7,1161.2,565.8,2981.4,3475.9,3481.9,686.4,965.4,2182.0,1081.6,1068.6,1001.3,6.0,2.0,6.0,10718.0,-9758.0,6186.0,-4481.0,-13.0,10.0,10.0,-9.0,1.0,-5.0,8545.0,-13674.0,-2372.0,1679.0,12.0,-3.0,-1.0,1.0
2022-05-13 12:14:46.708692-07:00,1260.4,762.0,1241.7,1048.7,991.9,851.1,1688.1,1357.6,3473.4,3473.4,1102.5,870.5,1794.5,3472.2,1369.4,1267.6,3481.9,3478.3,394.2,641.6,923.7,1161.2,565.8,2958.6,3475.9,3480.7,683.1,966.2,2182.0,1081.6,1068.6,985.9,3.0,-4.0,7.0,10716.0,-9758.0,6190.0,-4481.0,19.0,8.0,6.0,-7.0,3.0,-6.0,8548.0,-13672.0,-2372.0,1680.0,1.0,-7.0,-6.0,1.0
2022-05-13 12:14:46.889502-07:00,1260.4,773.6,1271.2,1034.9,991.9,851.1,1688.1,1353.1,3473.4,3479.5,1104.3,867.1,1794.5,3472.2,1369.4,1257.8,3473.4,3478.3,394.2,641.6,926.2,1155.9,567.4,2958.6,3475.9,3480.7,683.1,966.2,2182.0,1085.1,1066.9,985.9,3.0,-2.0,0.0,10719.0,-9754.0,6188.0,-4483.0,-1.0,-4.0,-2.0,-8.0,0.0,-6.0,8547.0,-13673.0,-2372.0,1680.0,-8.0,-8.0,-2.0,1.0
2022-05-13 12:14:46.892262-07:00,1257.8,773.6,1271.2,1034.9,989.3,858.7,1691.9,1353.1,3471.0,3479.5,1104.3,867.1,1796.5,3475.9,1372.1,1257.8,3473.4,3473.4,392.6,641.6,926.2,1155.9,567.4,2942.7,3475.9,3478.3,685.6,967.1,2182.0,1085.1,1066.9,985.0,1.0,-4.0,7.0,10719.0,-9755.0,6188.0,-4482.0,6.0,-2.0,1.0,-8.0,7.0,-5.0,8550.0,-13671.0,-2371.0,1681.0,6.0,-3.0,-3.0,1.0
2022-05-13 12:14:46.933328-07:00,1257.8,766.2,1238.2,1047.8,989.3,858.7,1691.0,1359.4,3471.0,3475.9,1096.4,861.2,1796.5,3475.9,1371.2,1264.9,3474.6,3473.4,392.6,641.6,924.5,1163.8,558.6,2942.7,3479.5,3467.4,685.6,967.1,2195.2,1091.2,1066.9,985.0,4.0,-4.0,4.0,10721.0,-9752.0,6188.0,-4483.0,-2.0,0.0,5.0,-9.0,0.0,-7.0,8549.0,-13671.0,-2371.0,1681.0,2.0,-7.0,-5.0,1.0
2022-05-13 12:14:47.113852-07:00,1259.6,764.5,1238.2,1047.8,991.0,853.7,1691.0,1359.4,3478.3,3467.4,1096.4,861.2,1795.5,3473.4,1371.2,1264.9,3474.6,3473.4,393.4,635.1,924.5,1163.8,560.2,2948.4,3479.5,3467.4,680.7,966.2,2195.2,1091.2,1061.7,991.0,5.0,-4.0,8.0,10721.0,-9752.0,6188.0,-4483.0,3.0,-8.0,0.0,-7.0,3.0,-3.0,8551.0,-13670.0,-2371.0,1681.0,10.0,-4.0,-1.0,1.0
