Time,P0,P1,P2,P3,P4,P5,P6,P7,P8,P9,P10,P11,P12,P13,P14,P15,P16,P17,P18,P19,P20,P21,P22,P23,P24,P25,P26,P27,P28,P29,P30,P31,ECG,AX0,AY0,AZ0,QW0,QX0,QY0,QZ0,GX0,GY0,GZ0,AX1,AY1,AZ1,QW1,QX1,QY1,QZ1,GX1,GY1,GZ1
2022-05-13 13:09:36.052917-07:00,1188.5,707.7,1106.9,1010.8,1087.7,811.9,1715.8,1328.7,3477.1,3471.0,1115.6,888.2,1503.2,3477.1,1401.2,1336.8,3489.2,3488.0,606.8,804.4,1127.9,1462.6,786.9,2475.9,3485.6,3481.9,648.9,881.4,1770.4,1128.7,1051.3,904.2,6.0,-6.0,10.0,11597.0,-11391.0,1623.0,1249.0,0.0,-4.0,-9.0,0.0,-1.0,5.0,9178.0,-13289.0,2690.0,-617.0,-3.0,-3.0,-5.0,1.0
2022-05-13 13:09:36.054605-07:00,1196.5,715.1,1106.9,1010.8,1092.1,808.5,1715.8,1328.7,3466.1,3472.2,1115.6,888.2,1504.1,3469.8,1401.2,1336.8,3489.2,3488.0,601.2,798.5,1127.9,1462.6,781.1,2467.4,3485.6,3481.9,650.5,883.1,1770.4,1128.7,1056.5,905.9,5.0,-4.0,8.0,11596.0,-11391.0,1626.0,1247.0,-5.0,7.0,13.0,0.0,0.0,12.0,9178.0,-13289.0,2690.0,-617.0,-1.0,6.0,6.0,1.0
2022-05-13 13:09:36.097712-07:00,1196.5,715.1,1098.2,1016.8,1092.1,808.5,1721.5,1308.8,3466.1,3472.2,1112.1,887.3,1504.1,3469.8,1396.7,1339.5,3480.7,3475.9,601.2,798.5,1125.2,1466.3,781.1,2467.4,3483.2,3478.3,650.5,883.1,1753.1,1127.9,1056.5,905.9,4.0,-2.0,4.0,11596.0,-11391.0,1625.0,1246.0,1.0,-6.0,-20.0,1.0,0.0,10.0,9178.0,-13289.0,2690.0,-617.0,-8.0,3.0,-4.0,1.0
2022-05-13 13:09:36.187734-07:00,1192.0,712.6,1098.2,1016.8,1092.1,809.4,1721.5,1308.8,3467.4,3467.4,1112.1,887.3,1514.3,3479.5,1396.7,1339.5,3480.7,3475.9,608.4,806.0,1125.2,1466.3,783.6,2461.0,3483.2,3478.3,652.2,878.0,1753.1,1127.9,1045.2,898.3,4.0,-13.0,8.0,11597.0,-11392.0,1621.0,1242.0,-6.0,-3.0,1.0,-1.0,-3.0,6.0,9177.0,-13289.0,2690.0,-617.0,-11.0,3.0,2.0,1.0
2022-05-13 13:09:36.276770-07:00,1192.0,712.6,1102.5,1008.2,1092.1,809.4,1713.8,1302.5,3467.4,3467.4,1111.2,887.3,1514.3,3479.5,1393.9,1333.2,3480.7,3475.9,608.4,806.0,1126.1,1470.0,783.6,2461.0,3479.5,3483.2,652.2,878.0,1764.6,1120.9,1045.2,898.3,9.0,-4.0,9.0,11597.0,-11392.0,1622.0,1241.0,2.0,11.0,-3.0,0.0,0.0,8.0,9176.0,-13290.0,2690.0,-616.0,-1.0,2.0,-1.0,1.0
2022-05-13 13:09:36.279618-07:00,1184.1,715.9,1105.1,1008.2,1093.8,811.9,1713.8,1302.5,3479.5,3473.4,1112.1,887.3,1512.5,3467.4,1393.9,1333.2,3480.7,3475.9,606.0,801.0,1126.1,1462.6,778.6,2477.0,3479.5,3483.2,647.3,879.7,1764.6,1127.9,1053.0,894.1,3.0,-8.0,8.0,11596.0,-11393.0,1626.0,1237.0,2.0,10.0,2.0,0.0,0.0,9.0,9176.0,-13290.0,2690.0,-616.0,-9.0,3.0,2.0,1.0
2022-05-13 13:09:36.456667-07:00,1184.1,715.9,1105.1,1011.6,1093.8,806.9,1726.3,1309.7,3479.5,3473.4,1112.1,885.6,1512.5,3479.5,1391.2,1329.6,3472.2,3471.0,608.4,801.0,1124.4,1462.6,778.6,2477.0,3467.4,3473.4,649.7,879.7,1776.2,1127.9,1053.0,894.1,8.0,-2.0,6.0,11596.0,-11393.0,1627.0,1236.0,-2.0,1.0,-10.0,-2.0,0.0,6.0,9175.0,-13290.0,2690.0,-616.0,-1.0,1.0,-2.0,1.0
2022-05-13 13:09:36.459455-07:00,1188.5,716.7,1097.3,1011.6,1098.2,806.9,1726.3,1309.7,3474.6,3480.7,1110.4,885.6,1514.3,3479.5,1391.2,1329.6,3472.2,3471.0,608.4,802.7,1124.4,1467.2,781.9,2472.7,3467.4,3473.4,649.7,878.0,1776.2,1130.5,1048.7,907.6,6.0,-9.0,9.0,11599.0,-11391.0,1623.0,1232.0,6.0,-8.0,-12.0,0.0,-1.0,8.0,9178.0,-13288.0,2690.0,-617.0,7.0,-7.0,-3.0,1.0
2022-05-13 13:09:36.462133-07:00,1188.5,716.7,1097.3,1006.5,1098.2,801.0,1713.8,1302.5,3474.6,3480.7,1110.4,888.2,1514.3,3467.4,1396.7,1330.5,3475.9,3483.2,624.6,802.7,1124.4,1467.2,781.9,2472.7,3492.9,3471.0,646.5,878.0,1760.8,1130.5,1048.7,907.6,6.0,-8.0,11.0,11599.0,-11391.0,1622.0,1231.0,0.0,1.0,7.0,-1.0,-1.0,12.0,9183.0,-13285.0,2688.0,-614.0,16.0,-9.0,-2.0,1.0
2022-05-13 13:09:36.463163-07:00,1187.6,712.6,1097.3,1006.5,1083.4,801.0,1713.8,1302.5,3474.6,3474.6,1112.1,888.2,1510.6,3467.4,1396.7,1330.5,3475.9,3483.2,624.6,802.7,1124.4,1470.9,776.9,2474.9,3492.9,3471.0,646.5,882.3,1760.8,1127.0,1042.6,903.4,7.0,-2.0,6.0,11599.0,-11391.0,1625.0,1229.0,-7.0,6.0,0.0,1.0,-1.0,12.0,9182.0,-13286.0,2688.0,-615.0,-20.0,13.0,4.0,1.0
2022-05-13 13:09:36.501518-07:00,1187.6,712.6,1097.3,1003.0,1090.3,811.0,1721.5,1299.0,3474.6,3474.6,1112.1,882.3,1509.7,3475.9,1397.6,1335.0,3483.2,3474.6,603.6,806.0,1120.0,1470.9,776.9,2474.9,3480.7,3471.0,648.1,880.6,1753.1,1127.0,1042.6,903.4,5.0,-12.0,6.0,11598.0,-11392.0,1625.0,1229.0,-10.0,0.0,-2.0,-1.0,-1.0,6.0,9175.0,-13291.0,2689.0,-614.0,-13.0,8.0,2.0,1.0
2022-05-13 13:09:36.548074-07:00,1190.3,714.2,1099.0,1008.2,1090.3,811.0,1721.5,1299.0,3472.2,3471.0,1108.6,883.9,1509.7,3475.9,1397.6,1335.0,3483.2,3474.6,603.6,806.0,1121.7,1461.7,774.5,2467.4,3480.7,3471.0,648.1,880.6,1759.8,1126.1,1048.7,916.9,5.0,-6.0,5.0,11597.0,-11393.0,1625.0,1229.0,5.0,0.0,3.0,0.0,-1.0,10.0,9175.0,-13291.0,2689.0,-614.0,12.0,-4.0,-1.0,1.0
2022-05-13 13:09:36.592381-07:00,1190.3,714.2,1099.0,1008.2,1098.2,811.0,1714.8,1304.3,3472.2,3471.0,1108.6,883.9,1506.9,3463.7,1399.4,1335.9,3480.7,3478.3,603.6,811.0,1121.7,1461.7,774.5,2467.4,3479.5,3478.3,650.5,876.4,1759.8,1126.1,1048.7,916.9,4.0,-12.0,13.0,11597.0,-11393.0,1625.0,1229.0,-3.0,-8.0,0.0,1.0,-2.0,10.0,9176.0,-13290.0,2689.0,-615.0,-7.0,1.0,2.0,1.0
2022-05-13 13:09:36.773931-07:00,1182.3,712.6,1101.7,1007.3,1098.2,811.0,1714.8,1304.3,3477.1,3472.2,1106.9,889.0,1506.9,3463.7,1399.4,1335.9,3480.7,3478.3,603.6,811.0,1128.7,1458.9,771.1,2467.4,3479.5,3478.3,650.5,876.4,1756.0,1119.1,1047.8,909.3,8.0,-3.0,9.0,11597.0,-11393.0,1626.0,1228.0,5.0,8.0,14.0,1.0,0.0,11.0,9176.0,-13290.0,2689.0,-615.0,-14.0,2.0,10.0,1.0
2022-05-13 13:09:36.775125-07:00,1182.3,712.6,1101.7,1007.3,1098.2,815.2,1715.8,1306.1,3477.1,3472.2,1106.9,889.0,1514.3,3466.1,1399.4,1336.8,3478.3,3477.1,603.6,800.2,1128.7,1458.9,771.1,2467.4,3481.9,3480.7,653.8,881.4,1756.0,1119.1,1047.8,909.3,4.0,-9.0,6.0,11594.0,-11395.0,1627.0,1230.0,-9.0,0.0,6.0,-1.0,-2.0,7.0,9169.0,-13294.0,2693.0,-611.0,-17.0,2.0,7.0,1.0
2022-05-13 13:09:36.778617-07:00,1192.0,705.2,1092.9,1003.9,1098.2,815.2,1715.8,1301.6,3475.9,3468.6,1108.6,883.1,1514.3,3466.1,1399.4,1336.8,3488.0,3477.1,603.6,800.2,1120.0,1467.2,771.1,2451.5,3479.5,3480.7,653.8,881.4,1760.8,1131.4,1047.8,907.6,5.0,-8.0,6.0,11594.0,-11395.0,1627.0,1231.0,-10.0,-9.0,-2.0,-3.0,0.0,9.0,9167.0,-13296.0,2692.0,-610.0,4.0,-17.0,-2.0,1.0
2022-05-13 13:09:36.779685-07:00,1184.1,705.2,1092.9,1003.9,1091.2,815.2,1710.0,1301.6,3466.1,3468.6,1108.6,883.1,1506.9,3468.6,1393.0,1336.8,3488.0,3475.9,610.0,805.2,1120.0,1467.2,771.1,2460.0,3479.5,3475.9,650.5,876.4,1760.8,1131.4,1047.8,906.7,5.0,-9.0,11.0,11596.0,-11394.0,1627.0,1230.0,27.0,7.0,13.0,0.0,-2.0,11.0,9176.0,-13291.0,2688.0,-606.0,37.0,-14.0,1.0,1.0
2022-05-13 13:09:36.862351-07:00,1184.1,712.6,1095.6,1000.5,1091.2,815.2,1710.0,1310.6,3466.1,3472.2,1112.1,885.6,1506.9,3468.6,1393.0,1335.9,3474.6,3475.9,610.0,805.2,1121.7,1460.8,772.8,2460.0,3464.9,3475.9,650.5,876.4,1762.7,1120.9,1047.8,906.7,4.0,-3.0,11.0,11599.0,-11389.0,1629.0,1231.0,-5.0,-4.0,0.0,0.0,-2.0,11.0,9185.0,-13286.0,2685.0,-604.0,3.0,-11.0,-3.0,1.0
2022-05-13 13:09:37.043745-07:00,1188.5,712.6,1095.6,1000.5,1090.3,803.5,1710.0,1310.6,3471.0,3472.2,1112.1,885.6,1508.8,3473.4,1398.5,1335.9,3474.6,3478.3,601.2,799.4,1121.7,1460.8,772.8,2464.2,3464.9,3479.5,645.7,871.3,1762.7,1120.9,1047.8,900.8,3.0,-9.0,13.0,11599.0,-11389.0,1630.0,1231.0,5.0,5.0,5.0,0.0,-3.0,12.0,9185.0,-13286.0,2684.0,-603.0,-2.0,5.0,6.0,1.0
2022-05-13 13:09:37.045120-07:00,1188.5,706.9,1102.5,1007.3,1090.3,803.5,1710.0,1305.2,3471.0,3478.3,1116.5,884.8,1508.8,3473.4,1398.5,1329.6,3472.2,3478.3,601.2,799.4,1133.1,1470.9,774.5,2464.2,3474.6,3479.5,645.7,871.3,1756.0,1123.5,1047.0,900.8,4.0,-6.0,6.0,11597.0,-11391.0,1630.0,1230.0,-17.0,6.0,3.0,-3.0,-2.0,7.0,9182.0,-13288.0,2684.0,-602.0,-18.0,2.0,5.0,1.0
2022-05-13 13:09:37.047865-07:00,1182.3,706.9,1102.5,1007.3,1090.3,808.5,1711.9,1305.2,3479.5,3478.3,1116.5,884.8,1509.7,3478.3,1392.1,1329.6,3472.2,3473.4,604.4,801.0,1133.1,1470.9,774.5,2453.6,3474.6,3474.6,644.0,877.2,1756.0,1123.5,1047.0,900.0,5.0,-6.0,5.0,11596.0,-11393.0,1630.0,1231.0,1.0,-3.0,-1.0,-1.0,-3.0,8.0,9180.0,-13289.0,2684.0,-602.0,-3.0,-8.0,-2.0,1.0
2022-05-13 13:09:37.048971-07:00,1182.3,714.2,1093.8,1005.6,1090.3,808.5,1714.8,1296.3,3479.5,3473.4,1111.2,880.6,1509.7,3478.3,1394.8,1335.0,3483.2,3483.2,604.4,801.0,1123.5,1464.4,776.9,2453.6,3475.9,3481.9,644.0,877.2,1755.0,1128.7,1050.4,900.0,6.0,-9.0,9.0,11596.0,-11393.0,1630.0,1231.0,14.0,-1.0,4.0,1.0,-3.0,9.0,9181.0,-13288.0,2684.0,-601.0,12.0,-10.0,-1.0,1.0
2022-05-13 13:09:37.087170-07:00,1192.9,711.0,1093.8,1005.6,1099.9,806.0,1714.8,1296.3,3460.1,3471.0,1111.2,880.6,1511.5,3474.6,1394.8,1335.0,3483.2,3483.2,607.6,801.0,1123.5,1464.4,787.7,2458.9,3475.9,3481.9,648.9,878.9,1755.0,1128.7,1047.0,891.5,6.0,-5.0,10.0,11598.0,-11391.0,1630.0,1230.0,-9.0,-10.0,1.0,-1.0,-1.0,11.0,9189.0,-13283.0,2682.0,-600.0,15.0,-4.0,-1.0,1.0
2022-05-13 13:09:37.224243-07:00,1192.9,711.0,1093.8,1008.2,1099.9,806.0,1713.8,1296.3,3460.1,3471.0,1110.4,883.1,1511.5,3474.6,1394.8,1334.1,3471.0,3474.6,607.6,801.0,1125.2,1466.3,787.7,2458.9,3475.9,3478.3,648.9,878.9,1750.2,1121.7,1047.0,891.5,6.0,-4.0,10.0,11598.0,-11391.0,1629.0,1231.0,5.0,-4.0,-5.0,0.0,-3.0,8.0,9189.0,-13283.0,2682.0,-600.0,-3.0,4.0,2.0,1.0
2022-05-13 13:09:37.225461-07:00,1177.9,720.0,1093.8,1008.2,1092.1,800.2,1713.8,1296.3,3467.4,3479.5,1110.4,883.1,1509.7,3467.4,1394.8,1334.1,3471.0,3474.6,601.2,802.7,1125.2,1466.3,776.1,2461.0,3475.9,3478.3,642.4,876.4,1750.2,1121.7,1045.2,905.9,8.0,-8.0,10.0,11598.0,-11391.0,1629.0,1231.0,1.0,3.0,1.0,-1.0,-1.0,7.0,9189.0,-13283.0,2682.0,-600.0,-9.0,-3.0,0.0,1.0
2022-05-13 13:09:37.226989-07:00,1177.9,720.0,1094.7,1003.0,1092.1,800.2,1713.8,1299.8,3467.4,3479.5,1113.0,883.1,1509.7,3467.4,1391.2,1335.0,3483.2,3481.9,601.2,802.7,1122.6,1463.5,776.1,2461.0,3480.7,3481.9,642.4,876.4,1756.0,1122.6,1045.2,905.9,3.0,-6.0,10.0,11599.0,-11389.0,1630.0,1230.0,1.0,-2.0,-4.0,-2.0,0.0,10.0,9191.0,-13282.0,2681.0,-600.0,2.0,-3.0,0.0,1.0
2022-05-13 13:09:37.269047-07:00,1196.5,705.2,1093.8,1003.0,1091.2,806.0,1713.8,1299.8,3478.3,3467.4,1115.6,883.1,1519.9,3474.6,1391.2,1335.0,3483.2,3481.9,609.2,804.4,1122.6,1466.3,776.9,2460.0,3480.7,3481.9,647.3,883.9,1756.0,1123.5,1047.0,899.1,3.0,-11.0,14.0,11598.0,-11391.0,1630.0,1230.0,3.0,-4.0,-5.0,0.0,-1.0,9.0,9190.0,-13283.0,2682.0,-600.0,-6.0,0.0,-4.0,1.0
2022-05-13 13:09:37.359681-07:00,1196.5,705.2,1093.8,1006.5,1091.2,801.9,1705.3,1300.7,3478.3,3467.4,1115.6,884.8,1519.9,3472.2,1392.1,1330.5,3469.8,3475.9,602.8,804.4,1122.6,1466.3,776.9,2460.0,3474.6,3488.0,644.9,883.9,1757.9,1123.5,1047.0,899.1,3.0,-2.0,10.0,11600.0,-11389.0,1630.0,1230.0,-16.0,-3.0,-2.0,3.0,0.0,10.0,9190.0,-13283.0,2682.0,-600.0,-4.0,1.0,0.0,1.0
2022-05-13 13:09:37.360829-07:00,1187.6,719.2,1100.8,1006.5,1088.6,801.9,1705.3,1300.7,3475.9,3467.4,1110.4,884.8,1508.8,3472.2,1392.1,1330.5,3469.8,3475.9,602.8,802.7,1122.6,1467.2,772.8,2457.9,3474.6,3488.0,644.9,871.3,1757.9,1131.4,1038.3,907.6,7.0,-6.0,10.0,11597.0,-11392.0,1628.0,1229.0,6.0,2.0,-8.0,-1.0,-2.0,10.0,9186.0,-13285.0,2682.0,-599.0,-5.0,1.0,-5.0,1.0
2022-05-13 13:09:37.447300-07:00,1187.6,719.2,1100.8,1004.8,1088.6,804.4,1720.5,1299.0,3475.9,3467.4,1110.4,882.3,1508.8,3475.9,1395.7,1337.7,3477.1,3468.6,607.6,802.7,1121.7,1467.2,772.8,2457.9,3478.3,3474.6,650.5,871.3,1749.3,1131.4,1038.3,907.6,5.0,-10.0,15.0,11598.0,-11391.0,1629.0,1228.0,5.0,16.0,2.0,0.0,-3.0,12.0,9186.0,-13285.0,2682.0,-599.0,4.0,-2.0,-1.0,1.0
2022-05-13 13:09:37.539546-07:00,1181.5,711.8,1097.3,1004.8,1090.3,804.4,1720.5,1299.0,3469.8,3469.8,1106.9,882.3,1504.1,3475.9,1395.7,1337.7,3477.1,3468.6,607.6,801.9,1121.7,1461.7,772.8,2464.2,3478.3,3474.6,650.5,879.7,1749.3,1127.9,1053.0,912.7,4.0,-4.0,13.0,11598.0,-11391.0,1632.0,1224.0,-4.0,8.0,-13.0,0.0,-2.0,9.0,9184.0,-13287.0,2682.0,-600.0,-19.0,12.0,-2.0,1.0
2022-05-13 13:09:37.542732-07:00,1181.5,711.8,1097.3,1008.2,1090.3,809.4,1711.9,1301.6,3469.8,3469.8,1106.9,882.3,1504.1,3468.6,1386.6,1339.5,3475.9,3473.4,606.0,801.9,1120.0,1461.7,772.8,2464.2,3480.7,3472.2,643.2,879.7,1753.1,1127.9,1053.0,912.7,3.0,-11.0,13.0,11598.0,-11392.0,1628.0,1219.0,-5.0,3.0,-9.0,-1.0,-3.0,10.0,9177.0,-13291.0,2684.0,-601.0,-13.0,8.0,-4.0,1.0
2022-05-13 13:09:37.583861-07:00,1186.7,712.6,1094.7,999.6,1083.4,809.4,1711.9,1301.6,3479.5,3467.4,1114.7,886.5,1506.9,3468.6,1386.6,1339.5,3475.9,3473.4,606.0,801.9,1126.1,1470.9,772.0,2461.0,3480.7,3472.2,643.2,871.3,1758.9,1120.0,1050.4,906.7,6.0,-6.0,11.0,11598.0,-11392.0,1629.0,1215.0,3.0,9.0,-12.0,1.0,-3.0,10.0,9174.0,-13293.0,2685.0,-602.0,-6.0,6.0,-4.0,1.0
2022-05-13 13:09:37.627223-07:00,1186.7,712.6,1094.7,999.6,1090.3,811.0,1711.0,1299.0,3479.5,3467.4,1114.7,886.5,1510.6,3471.0,1393.9,1335.0,3478.3,3478.3,609.2,802.7,1126.1,1470.9,772.0,2461.0,3474.6,3474.6,655.4,882.3,1758.9,1120.0,1050.4,906.7,7.0,-5.0,10.0,11598.0,-11394.0,1626.0,1212.0,-13.0,6.0,-10.0,0.0,-1.0,9.0,9170.0,-13295.0,2686.0,-601.0,-14.0,0.0,-8.0,1.0
2022-05-13 13:09:37.672219-07:00,1181.5,719.2,1104.3,995.3,1090.3,811.0,1711.0,1299.0,3477.1,3464.9,1106.9,883.9,1510.6,3471.0,1393.9,1335.0,3478.3,3478.3,609.2,802.7,1124.4,1460.8,772.8,2460.0,3474.6,3474.6,655.4,882.3,1756.0,1125.2,1046.1,900.0,8.0,-5.0,14.0,11597.0,-11395.0,1625.0,1211.0,-14.0,6.0,-5.0,1.0,-3.0,9.0,9166.0,-13298.0,2687.0,-601.0,-12.0,6.0,-3.0,1.0
2022-05-13 13:09:37.717283-07:00,1181.5,719.2,1104.3,995.3,1095.6,806.9,1710.0,1303.4,3477.1,3464.9,1106.9,883.9,1516.2,3472.2,1399.4,1334.1,3472.2,3479.5,607.6,801.9,1124.4,1460.8,772.8,2460.0,3472.2,3481.9,648.1,873.0,1756.0,1125.2,1046.1,900.0,6.0,-8.0,11.0,11592.0,-11400.0,1626.0,1211.0,-12.0,9.0,-5.0,0.0,-2.0,10.0,9159.0,-13303.0,2688.0,-602.0,-21.0,12.0,1.0,1.0
2022-05-13 13:09:37.809064-07:00,1185.0,711.0,1090.3,1006.5,1095.6,806.9,1710.0,1303.4,3478.3,3478.3,1109.5,881.4,1516.2,3472.2,1399.4,1334.1,3472.2,3479.5,607.6,801.9,1122.6,1455.2,778.6,2450.4,3472.2,3481.9,648.1,873.0,1760.8,1121.7,1049.6,900.8,7.0,-9.0,11.0,11589.0,-11402.0,1629.0,1207.0,-7.0,17.0,0.0,0.0,1.0,7.0,9151.0,-13308.0,2689.0,-601.0,-22.0,12.0,2.0,1.0
2022-05-13 13:09:37.810430-07:00,1189.4,711.0,1090.3,1006.5,1094.7,809.4,1710.0,1308.8,3474.6,3478.3,1109.5,881.4,1506.0,3477.1,1399.4,1335.9,3473.4,3483.2,600.4,806.0,1122.6,1455.2,778.6,2456.8,3478.3,3478.3,655.4,874.7,1760.8,1121.7,1049.6,905.0,7.0,-8.0,11.0,11587.0,-11405.0,1632.0,1205.0,-14.0,12.0,-6.0,0.0,-3.0,9.0,9143.0,-13313.0,2691.0,-602.0,-19.0,7.0,-1.0,1.0
2022-05-13 13:09:37.854762-07:00,1189.4,717.5,1098.2,1004.8,1094.7,809.4,1710.0,1296.3,3474.6,3474.6,1108.6,884.8,1506.0,3477.1,1399.4,1338.6,3485.6,3483.2,600.4,806.0,1120.0,1459.8,776.1,2456.8,3477.1,3478.3,655.4,874.7,1755.0,1118.2,1045.2,905.0,6.0,-4.0,9.0,11586.0,-11406.0,1634.0,1203.0,-9.0,5.0,-7.0,1.0,-4.0,10.0,9141.0,-13314.0,2693.0,-604.0,-9.0,10.0,-5.0,1.0
2022-05-13 13:09:37.988080-07:00,1189.4,717.5,1098.2,1004.8,1092.9,797.7,1718.6,1296.3,3469.8,3474.6,1108.6,884.8,1515.3,3474.6,1395.7,1338.6,3485.6,3478.3,608.4,810.2,1120.0,1459.8,776.1,2462.1,3477.1,3484.4,650.5,879.7,1755.0,1118.2,1045.2,906.7,8.0,-14.0,12.0,11585.0,-11406.0,1634.0,1202.0,4.0,14.0,-4.0,1.0,-4.0,7.0,9140.0,-13315.0,2693.0,-603.0,-1.0,2.0,-2.0,1.0
2022-05-13 13:09:37.991044-07:00,1189.4,709.3,1098.2,1004.8,1092.9,797.7,1718.6,1295.4,3469.8,3472.2,1110.4,876.4,1515.3,3474.6,1395.7,1330.5,3477.1,3478.3,608.4,810.2,1125.2,1469.0,775.3,2462.1,3467.4,3484.4,650.5,879.7,1751.2,1121.7,1049.6,906.7,9.0,-3.0,12.0,11584.0,-11407.0,1638.0,1199.0,-8.0,16.0,-3.0,2.0,-1.0,9.0,9140.0,-13315.0,2693.0,-603.0,-8.0,-1.0,0.0,1.0
2022-05-13 13:09:38.032410-07:00,1182.3,709.3,1098.2,1004.8,1099.9,806.9,1714.8,1295.4,3467.4,3472.2,1110.4,876.4,1506.0,3483.2,1393.0,1330.5,3477.1,3478.3,601.2,797.7,1125.2,1469.0,775.3,2461.0,3467.4,3488.0,645.7,878.0,1751.2,1121.7,1049.6,905.0,7.0,-9.0,11.0,11583.0,-11408.0,1643.0,1194.0,9.0,11.0,-3.0,1.0,-5.0,8.0,9140.0,-13315.0,2693.0,-604.0,4.0,6.0,0.0,1.0
2022-05-13 13:09:38.076925-07:00,1182.3,720.8,1105.1,1013.3,1099.9,806.9,1710.0,1295.4,3467.4,3471.0,1112.1,878.0,1506.0,3483.2,1391.2,1335.9,3481.9,3475.9,601.2,797.7,1118.2,1466.3,775.3,2461.0,3480.7,3488.0,645.7,878.0,1753.1,1121.7,1053.0,905.0,8.0,-9.0,12.0,11586.0,-11405.0,1649.0,1188.0,28.0,20.0,-5.0,1.0,2.0,13.0,9146.0,-13311.0,2693.0,-605.0,19.0,-1.0,-2.0,1.0
2022-05-13 13:09:38.122205-07:00,1184.1,708.5,1105.1,1013.3,1086.0,813.5,1710.0,1295.4,3475.9,3467.4,1112.1,878.0,1507.8,3468.6,1391.2,1335.9,3481.9,3475.9,606.0,797.7,1118.2,1466.3,774.5,2458.9,3480.7,3488.0,644.0,874.7,1753.1,1121.7,1048.7,905.0,7.0,-9.0,8.0,11589.0,-11401.0,1655.0,1182.0,-13.0,2.0,-1.0,1.0,-1.0,10.0,9143.0,-13313.0,2693.0,-605.0,-19.0,8.0,1.0,1.0
2022-05-13 13:09:38.169353-07:00,1184.1,708.5,1094.7,1002.2,1086.0,813.5,1711.0,1300.7,3475.9,3467.4,1107.8,878.0,1507.8,3468.6,1399.4,1343.1,3474.6,3477.1,606.0,797.7,1118.2,1469.0,774.5,2458.9,3479.5,3478.3,644.0,874.7,1753.1,1122.6,1048.7,905.0,5.0,-12.0,13.0,11587.0,-11403.0,1654.0,1183.0,5.0,10.0,-10.0,2.0,-3.0,11.0,9141.0,-13314.0,2693.0,-604.0,2.0,-3.0,-1.0,1.0
2022-05-13 13:09:38.212241-07:00,1183.2,710.1,1094.7,1002.2,1090.3,802.7,1711.0,1300.7,3468.6,3468.6,1107.8,878.0,1510.6,3473.4,1399.4,1343.1,3474.6,3477.1,606.0,800.2,1118.2,1469.0,770.3,2455.7,3479.5,3478.3,653.8,875.5,1753.1,1122.6,1047.0,905.9,9.0,-6.0,9.0,11587.0,-11404.0,1654.0,1181.0,-13.0,-12.0,1.0,2.0,-2.0,4.0,9141.0,-13314.0,2693.0,-604.0,-9.0,-8.0,1.0,1.0
2022-05-13 13:09:38.259042-07:00,1183.2,710.1,1092.1,1001.3,1090.3,802.7,1707.2,1299.0,3468.6,3468.6,1106.0,884.8,1510.6,3473.4,1397.6,1329.6,3472.2,3477.1,606.0,800.2,1125.2,1463.5,770.3,2455.7,3467.4,3477.1,653.8,875.5,1761.8,1123.5,1047.0,905.9,7.0,-6.0,14.0,11587.0,-11404.0,1653.0,1183.0,17.0,6.0,5.0,1.0,-1.0,9.0,9143.0,-13313.0,2693.0,-605.0,13.0,-2.0,1.0,1.0
2022-05-13 13:09:38.304050-07:00,1192.9,712.6,1092.1,1001.3,1092.9,808.5,1707.2,1299.0,3469.8,3475.9,1106.0,884.8,1511.5,3472.2,1397.6,1329.6,3472.2,3477.1,601.2,796.9,1125.2,1463.5,776.9,2452.6,3467.4,3477.1,647.3,871.3,1761.8,1123.5,1045.2,897.4,7.0,-8.0,12.0,11586.0,-11405.0,1653.0,1184.0,-14.0,-4.0,3.0,1.0,-3.0,12.0,9144.0,-13312.0,2692.0,-604.0,-8.0,0.0,4.0,1.0
2022-05-13 13:09:38.440709-07:00,1192.9,712.6,1101.7,1006.5,1092.9,806.0,1709.1,1290.0,3469.8,3475.9,1102.5,878.0,1511.5,3478.3,1377.5,1335.0,3472.2,3485.6,609.2,796.9,1123.5,1470.9,776.9,2452.6,3472.2,3477.1,648.1,871.3,1759.8,1123.5,1045.2,897.4,6.0,-10.0,13.0,11585.0,-11406.0,1653.0,1184.0,-2.0,-6.0,-2.0,0.0,-2.0,9.0,9144.0,-13312.0,2692.0,-604.0,-1.0,-2.0,-3.0,1.0
2022-05-13 13:09:38.441875-07:00,1182.3,715.1,1095.6,1006.5,1085.1,806.0,1709.1,1290.0,3473.4,3455.2,1113.9,878.0,1508.8,3478.3,1377.5,1335.0,3472.2,3485.6,609.2,806.9,1123.5,1455.2,778.6,2455.7,3472.2,3477.1,648.1,876.4,1759.8,1122.6,1049.6,905.9,9.0,-10.0,10.0,11585.0,-11405.0,1652.0,1185.0,-3.0,-12.0,1.0,2.0,-3.0,8.0,9144.0,-13312.0,2692.0,-604.0,10.0,-15.0,-1.0,1.0
2022-05-13 13:09:38.564309-07:00,1182.3,715.1,1095.6,999.6,1085.1,801.9,1702.4,1297.2,3473.4,3455.2,1113.9,889.0,1508.8,3472.2,1391.2,1331.4,3478.3,3471.0,606.0,806.9,1121.7,1455.2,778.6,2455.7,3477.1,3471.0,644.9,876.4,1754.1,1122.6,1049.6,905.9,9.0,-5.0,9.0,11585.0,-11405.0,1651.0,1186.0,-8.0,-8.0,5.0,0.0,0.0,9.0,9148.0,-13310.0,2690.0,-601.0,1.0,-12.0,0.0,1.0
2022-05-13 13:09:38.565788-07:00,1181.5,712.6,1099.9,999.6,1091.2,801.9,1702.4,1297.2,3469.8,3475.9,1112.1,889.0,1507.8,3472.2,1391.2,1331.4,3478.3,3471.0,606.0,803.5,1121.7,1456.2,772.0,2460.0,3477.1,3471.0,644.9,874.7,1754.1,1119.1,1043.5,896.6,9.0,-9.0,13.0,11585.0,-11405.0,1651.0,1186.0,8.0,0.0,2.0,1.0,-2.0,9.0,9149.0,-13310.0,2689.0,-601.0,2.0,-4.0,1.0,1.0
2022-05-13 13:09:38.583943-07:00,1181.5,712.6,1099.9,998.7,1091.2,805.2,1703.3,1296.3,3469.8,3475.9,1112.1,883.9,1507.8,3477.1,1390.3,1335.0,3480.7,3462.5,611.7,803.5,1118.2,1456.2,772.0,2460.0,3475.9,3469.8,643.2,874.7,1758.9,1119.1,1043.5,896.6,7.0,-8.0,13.0,11585.0,-11405.0,1651.0,1186.0,-2.0,-3.0,7.0,0.0,-2.0,10.0,9149.0,-13310.0,2689.0,-601.0,-3.0,-1.0,4.0,1.0
2022-05-13 13:09:38.686410-07:00,1182.3,706.0,1093.8,1006.5,1090.3,805.2,1703.3,1296.3,3473.4,3471.0,1104.3,881.4,1507.8,3477.1,1390.3,1335.0,3480.7,3462.5,611.7,797.7,1124.4,1475.5,773.6,2450.4,3475.9,3469.8,643.2,878.9,1759.8,1124.4,1045.2,900.8,6.0,-7.0,13.0,11585.0,-11405.0,1651.0,1186.0,-4.0,-7.0,2.0,2.0,-4.0,11.0,9149.0,-13310.0,2689.0,-601.0,-6.0,1.0,0.0,1.0
2022-05-13 13:09:38.841683-07:00,1182.3,706.0,1093.8,1006.5,1091.2,801.0,1714.8,1289.1,3473.4,3471.0,1104.3,881.4,1508.8,3469.8,1389.4,1331.4,3481.9,3474.6,614.9,806.0,1124.4,1475.5,773.6,2450.4,3474.6,3485.6,644.9,870.5,1759.8,1124.4,1045.2,900.8,6.0,-12.0,14.0,11585.0,-11405.0,1651.0,1186.0,6.0,4.0,5.0,0.0,-4.0,8.0,9150.0,-13309.0,2689.0,-600.0,12.0,-10.0,-1.0,1.0
2022-05-13 13:09:38.843476-07:00,1184.1,705.2,1097.3,1000.5,1091.2,801.0,1714.8,1289.1,3467.4,3467.4,1104.3,875.5,1508.8,3469.8,1389.4,1331.4,3481.9,3474.6,614.9,806.0,1121.7,1458.0,778.6,2462.1,3474.6,3485.6,644.9,870.5,1755.0,1123.5,1053.9,902.5,6.0,-8.0,14.0,11587.0,-11404.0,1652.0,1187.0,6.0,5.0,11.0,1.0,-2.0,13.0,9156.0,-13305.0,2688.0,-601.0,13.0,-9.0,5.0,1.0
2022-05-13 13:09:38.889276-07:00,1184.1,705.2,1097.3,1000.5,1087.7,806.0,1711.0,1303.4,3467.4,3467.4,1104.3,875.5,1511.5,3474.6,1393.0,1337.7,3468.6,3479.5,606.0,803.5,1121.7,1458.0,778.6,2462.1,3479.5,3488.0,646.5,863.7,1755.0,1123.5,1053.9,902.5,10.0,-14.0,15.0,11590.0,-11400.0,1657.0,1188.0,25.0,19.0,13.0,0.0,-3.0,9.0,9164.0,-13300.0,2687.0,-601.0,30.0,-5.0,5.0,1.0
2022-05-13 13:09:38.890627-07:00,1186.7,711.8,1096.4,1001.3,1087.7,806.0,1711.0,1303.4,3478.3,3480.7,1113.0,880.6,1511.5,3474.6,1393.0,1337.7,3468.6,3479.5,606.0,803.5,1118.2,1467.2,774.5,2468.5,3479.5,3488.0,646.5,863.7,1748.3,1119.1,1053.0,897.4,8.0,-3.0,18.0,11609.0,-11379.0,1678.0,1170.0,77.0,101.0,24.0,-1.0,-4.0,10.0,9191.0,-13282.0,2683.0,-599.0,90.0,-11.0,17.0,1.0
2022-05-13 13:09:38.892184-07:00,1186.7,711.8,1096.4,1001.3,1087.7,818.5,1714.8,1303.4,3478.3,3480.7,1113.0,880.6,1507.8,3475.9,1393.0,1336.8,3478.3,3472.2,602.8,801.0,1118.2,1467.2,774.5,2468.5,3477.1,3478.3,647.3,869.6,1748.3,1119.1,1053.0,897.4,6.0,14.0,18.0,11620.0,-11369.0,1703.0,1119.0,-83.0,194.0,-117.0,1.0,0.0,21.0,9226.0,-13260.0,2670.0,-591.0,71.0,-73.0,-20.0,1.0
2022-05-13 13:09:38.932191-07:00,1185.9,707.7,1095.6,1001.3,1087.7,818.5,1714.8,1294.5,3483.2,3472.2,1111.2,888.2,1507.8,3475.9,1393.0,1334.1,3469.8,3472.2,602.8,801.0,1120.0,1464.4,792.7,2466.4,3478.3,3478.3,647.3,869.6,1752.1,1120.9,1043.5,905.0,-2.0,-94.0,39.0,11591.0,-11400.0,1732.0,1057.0,-3.0,63.0,59.0,0.0,-15.0,0.0,9222.0,-13259.0,2689.0,-596.0,-19.0,118.0,91.0,1.0
2022-05-13 13:09:39.024352-07:00,1181.5,707.7,1095.6,1001.3,1096.4,831.9,1712.9,1294.5,3473.4,3472.2,1111.2,888.2,1507.8,3473.4,1407.6,1334.1,3469.8,3467.4,607.6,800.2,1120.0,1464.4,792.7,2480.2,3478.3,3488.0,653.8,886.5,1752.1,1120.9,1043.5,902.5,-45.0,-26.0,44.0,11525.0,-11448.0,1866.0,1037.0,-371.0,493.0,357.0,-5.0,7.0,12.0,9227.0,-13246.0,2738.0,-581.0,1.0,44.0,133.0,1.0
2022-05-13 13:09:39.025763-07:00,1181.5,710.1,1093.8,993.6,1096.4,831.9,1712.9,1321.4,3473.4,3469.8,1127.9,881.4,1507.8,3473.4,1407.6,1399.4,3481.9,3467.4,607.6,800.2,1122.6,1468.1,944.1,2480.2,3472.2,3488.0,653.8,886.5,1758.9,1197.4,1163.8,902.5,34.0,15.0,4.0,11351.0,-11577.0,2118.0,1030.0,-479.0,587.0,390.0,-4.0,-8.0,-9.0,9255.0,-13220.0,2779.0,-547.0,140.0,-49.0,118.0,1.0
2022-05-13 13:09:39.069391-07:00,1185.0,710.1,1093.8,993.6,1099.9,861.2,1712.9,1321.4,3472.2,3469.8,1127.9,881.4,1505.1,3478.3,1736.8,1399.4,3481.9,3484.4,607.6,798.5,1122.6,1468.1,944.1,2586.4,3472.2,3464.9,666.8,900.0,1758.9,1197.4,1163.8,900.8,15.0,31.0,78.0,11206.0,-11670.0,2392.0,980.0,-523.0,528.0,251.0,5.0,-1.0,-4.0,9354.0,-13149.0,2791.0,-505.0,235.0,-120.0,105.0,1.0
2022-05-13 13:09:39.112262-07:00,1185.0,706.9,1104.3,1003.0,1099.9,861.2,1712.9,1319.6,3472.2,3464.9,1187.6,869.6,1505.1,3478.3,1736.8,1624.7,3479.5,3484.4,607.6,798.5,1122.6,1461.7,1052.2,2586.4,3483.2,3464.9,666.8,900.0,1784.9,1550.6,1590.8,900.8,-13.0,91.0,-153.0,10960.0,-11869.0,2558.0,947.0,-1017.0,22.0,-56.0,21.0,-71.0,80.0,9354.0,-13143.0,2834.0,-435.0,-283.0,97.0,248.0,1.0
2022-05-13 13:09:39.157161-07:00,1203.5,831.9,1104.3,1003.0,1095.6,902.5,1756.0,1319.6,3474.6,3478.3,1187.6,869.6,1516.2,3469.8,2103.7,1624.7,3479.5,3483.2,621.4,805.2,1122.6,1461.7,1040.1,2750.2,3483.2,3490.5,786.9,1034.9,1784.9,1550.6,1491.2,909.3,23.0,123.0,-54.0,10726.0,-12101.0,2445.0,984.0,-567.0,-200.0,-305.0,-24.0,82.0,57.0,9179.0,-13240.0,2954.0,-414.0,-365.0,166.0,109.0,1.0
2022-05-13 13:09:39.202676-07:00,1203.5,831.9,1115.6,1008.2,1095.6,902.5,1810.0,1303.4,3474.6,3478.3,1196.5,894.9,1516.2,3469.8,2030.4,1633.1,3467.4,3478.3,621.4,805.2,1122.6,1460.8,1040.1,2750.2,3467.4,3481.9,786.9,1034.9,1954.8,1545.0,1491.2,909.3,-29.0,-33.0,-58.0,10601.0,-12243.0,2299.0,936.0,-254.0,-219.0,-463.0,-9.0,-60.0,39.0,9116.0,-13295.0,2899.0,-391.0,-151.0,-66.0,-139.0,1.0
2022-05-13 13:09:39.249109-07:00,1216.8,828.5,1115.6,1008.2,1094.7,899.1,1810.0,1303.4,3472.2,3472.2,1196.5,894.9,1517.1,3472.2,2030.4,1633.1,3467.4,3478.3,618.9,800.2,1122.6,1460.8,1028.0,2767.9,3467.4,3481.9,818.5,1026.3,1954.8,1545.0,1465.4,913.5,57.0,-98.0,76.0,10536.0,-12328.0,2146.0,917.0,-174.0,131.0,-2.0,-4.0,14.0,-21.0,9117.0,-13310.0,2834.0,-371.0,107.0,-180.0,-79.0,1.0
2022-05-13 13:09:39.337955-07:00,1216.8,828.5,1091.2,999.6,1094.7,899.1,1801.3,1297.2,3472.2,3472.2,1196.5,897.4,1517.1,3472.2,2009.4,1627.5,3478.3,3488.0,618.9,800.2,1121.7,1467.2,1028.0,2767.9,3462.5,3477.1,818.5,1026.3,1938.0,1532.0,1465.4,913.5,8.0,69.0,11.0,10496.0,-12361.0,2164.0,892.0,-176.0,-107.0,-193.0,14.0,-15.0,27.0,9149.0,-13294.0,2804.0,-367.0,-50.0,21.0,-13.0,1.0
2022-05-13 13:09:39.382722-07:00,1208.9,832.7,1091.2,999.6,1088.6,913.5,1801.3,1297.2,3471.0,3472.2,1196.5,897.4,1526.4,3477.1,2009.4,1627.5,3478.3,3488.0,614.9,804.4,1121.7,1467.2,1012.5,2767.9,3462.5,3477.1,814.4,1021.9,1938.0,1532.0,1459.8,905.0,-6.0,-50.0,49.0,10453.0,-12412.0,2084.0,870.0,-10.0,68.0,-12.0,-5.0,9.0,36.0,9103.0,-13329.0,2789.0,-366.0,-86.0,16.0,-56.0,1.0
2022-05-13 13:09:39.427259-07:00,1208.9,832.7,1098.2,998.7,1088.6,916.9,1805.2,1302.5,3471.0,3472.2,1198.2,884.8,1526.4,3467.4,2007.4,1607.7,3479.5,3477.1,620.5,804.4,1117.4,1460.8,1012.5,2767.9,3474.6,3488.0,816.0,1021.9,1916.4,1526.4,1459.8,905.0,2.0,-16.0,5.0,10451.0,-12414.0,2090.0,851.0,-117.0,-7.0,-36.0,4.0,-12.0,6.0,9052.0,-13355.0,2825.0,-393.0,-172.0,142.0,65.0,1.0
2022-05-13 13:09:39.472316-07:00,1199.1,816.0,1083.4,998.7,1095.6,916.9,1805.2,1302.5,3471.0,3463.7,1193.8,884.8,1530.1,3467.4,2007.4,1607.7,3479.5,3477.1,620.5,808.5,1117.4,1468.1,1007.3,2751.3,3474.6,3488.0,816.0,1026.3,1916.4,1517.1,1447.0,902.5,0.0,-30.0,5.0,10432.0,-12430.0,2092.0,848.0,41.0,25.0,50.0,-4.0,-6.0,18.0,9014.0,-13373.0,2861.0,-406.0,-10.0,62.0,18.0,1.0
2022-05-13 13:09:39.516618-07:00,1199.1,816.0,1083.4,1004.8,1095.6,905.0,1799.4,1284.6,3471.0,3463.7,1193.8,891.5,1530.1,3477.1,1987.5,1614.3,3474.6,3475.9,616.5,808.5,1118.2,1468.1,1007.3,2751.3,3474.6,3474.6,813.5,1026.3,1895.8,1517.1,1447.0,902.5,12.0,-18.0,-8.0,10510.0,-12364.0,2081.0,874.0,269.0,-148.0,41.0,-10.0,11.0,-17.0,9046.0,-13344.0,2892.0,-437.0,172.0,22.0,18.0,1.0
2022-05-13 13:09:39.608240-07:00,1199.1,816.0,1084.2,1004.8,1083.4,905.0,1799.4,1284.6,3478.3,3477.1,1193.8,891.5,1528.3,3477.1,1987.5,1614.3,3474.6,3475.9,616.5,805.2,1118.2,1462.6,1007.3,2744.7,3474.6,3474.6,813.5,1021.9,1895.8,1507.8,1433.2,911.0,3.0,-11.0,17.0,10579.0,-12302.0,2083.0,917.0,161.0,-63.0,86.0,-3.0,4.0,16.0,9142.0,-13286.0,2857.0,-431.0,288.0,-138.0,-42.0,1.0
2022-05-13 13:09:39.611461-07:00,1199.1,816.0,1084.2,999.6,1083.4,916.0,1764.6,1279.2,3478.3,3477.1,1193.8,895.7,1528.3,3469.8,1972.7,1598.3,3473.4,3478.3,614.9,805.2,1122.6,1462.6,1007.3,2744.7,3483.2,3469.8,805.2,1021.9,1900.7,1507.8,1433.2,911.0,1.0,6.0,42.0,10626.0,-12256.0,2105.0,946.0,94.0,-10.0,87.0,4.0,3.0,33.0,9231.0,-13234.0,2812.0,-411.0,172.0,-97.0,-24.0,1.0
2022-05-13 13:09:39.655058-07:00,1191.2,818.5,1085.1,999.6,1083.4,916.0,1764.6,1279.2,3467.4,3464.9,1192.9,895.7,1521.8,3469.8,1972.7,1598.3,3473.4,3478.3,614.9,799.4,1122.6,1459.8,998.7,2718.3,3483.2,3469.8,805.2,1003.9,1900.7,1498.6,1430.5,904.2,11.0,-4.0,45.0,10666.0,-12216.0,2127.0,952.0,37.0,60.0,56.0,0.0,1.0,20.0,9264.0,-13214.0,2798.0,-405.0,10.0,-2.0,1.0,1.0
2022-05-13 13:09:39.699121-07:00,1191.2,818.5,1085.1,1000.5,1099.0,905.0,1783.9,1273.9,3467.4,3464.9,1192.9,892.4,1520.8,3473.4,1962.8,1595.5,3478.3,3478.3,614.1,805.2,1126.1,1459.8,998.7,2718.3,3488.0,3484.4,803.5,1004.8,1890.9,1498.6,1430.5,904.2,5.0,-4.0,23.0,10678.0,-12202.0,2150.0,944.0,-1.0,32.0,13.0,2.0,-4.0,20.0,9244.0,-13225.0,2813.0,-414.0,-140.0,86.0,35.0,1.0
2022-05-13 13:09:39.744081-07:00,1199.1,806.9,1084.2,1009.9,1099.0,905.0,1783.9,1273.9,3478.3,3479.5,1196.5,895.7,1520.8,3473.4,1962.8,1595.5,3478.3,3478.3,614.1,805.2,1117.4,1461.7,989.3,2701.8,3488.0,3484.4,803.5,1004.8,1880.1,1484.7,1436.9,906.7,6.0,-12.0,-1.0,10680.0,-12200.0,2156.0,935.0,2.0,24.0,7.0,-3.0,-6.0,5.0,9192.0,-13254.0,2845.0,-425.0,-98.0,59.0,16.0,1.0
2022-05-13 13:09:39.832192-07:00,1199.1,806.9,1084.2,1009.9,1087.7,910.1,1764.6,1281.0,3478.3,3479.5,1196.5,895.7,1526.4,3467.4,1957.8,1604.0,3475.9,3477.1,615.7,800.2,1117.4,1461.7,989.3,2701.8,3489.2,3472.2,781.9,1003.0,1880.1,1484.7,1436.9,906.7,0.0,-17.0,2.0,10685.0,-12194.0,2172.0,926.0,46.0,22.0,48.0,-3.0,-2.0,15.0,9177.0,-13263.0,2851.0,-427.0,20.0,1.0,6.0,1.0
2022-05-13 13:09:39.880793-07:00,1186.7,816.0,1071.2,997.9,1087.7,910.1,1764.6,1281.0,3468.6,3466.1,1192.9,897.4,1526.4,3467.4,1957.8,1604.0,3475.9,3477.1,615.7,800.2,1133.1,1459.8,993.6,2687.5,3489.2,3472.2,781.9,1003.0,1886.0,1472.7,1429.5,902.5,19.0,-2.0,14.0,10701.0,-12178.0,2178.0,935.0,64.0,-31.0,-13.0,-2.0,3.0,8.0,9189.0,-13255.0,2850.0,-429.0,52.0,-22.0,-7.0,1.0
2022-05-13 13:09:39.922103-07:00,1186.7,816.0,1071.2,997.9,1090.3,905.0,1748.3,1273.9,3468.6,3466.1,1192.9,897.4,1524.5,3467.4,1954.8,1588.9,3483.2,3483.2,610.0,812.7,1133.1,1459.8,993.6,2687.5,3474.6,3479.5,800.2,1002.2,1886.0,1472.7,1429.5,902.5,-3.0,-9.0,12.0,10735.0,-12150.0,2167.0,932.0,123.0,-12.0,-11.0,-1.0,-2.0,18.0,9220.0,-13237.0,2835.0,-425.0,74.0,-29.0,-23.0,1.0
2022-05-13 13:09:39.967894-07:00,1192.9,803.5,1071.2,997.0,1090.3,905.0,1748.3,1281.0,3474.6,3478.3,1208.9,900.8,1524.5,3467.4,1954.8,1590.8,3479.5,3483.2,610.0,812.7,1121.7,1458.0,985.0,2689.7,3484.4,3479.5,800.2,1002.2,1874.2,1492.1,1413.1,912.7,14.0,-12.0,25.0,10759.0,-12130.0,2160.0,935.0,3.0,-27.0,1.0,4.0,-4.0,13.0,9235.0,-13229.0,2824.0,-422.0,5.0,-30.0,-6.0,1.0
2022-05-13 13:09:40.012235-07:00,1198.2,803.5,1071.2,997.0,1084.2,910.1,1763.7,1281.0,3480.7,3478.3,1208.9,900.8,1530.1,3478.3,1950.9,1590.8,3479.5,3488.0,612.5,804.4,1121.7,1458.0,985.0,2665.7,3484.4,3477.1,796.9,991.9,1874.2,1492.1,1413.1,907.6,10.0,7.0,15.0,10780.0,-12112.0,2164.0,926.0,65.0,28.0,15.0,-1.0,0.0,13.0,9240.0,-13225.0,2824.0,-422.0,-53.0,35.0,12.0,1.0
2022-05-13 13:09:40.101552-07:00,1198.2,816.0,1069.5,991.9,1084.2,910.1,1763.7,1276.5,3480.7,3479.5,1206.2,899.1,1530.1,3478.3,1950.9,1590.8,3474.6,3488.0,612.5,804.4,1120.9,1462.6,981.6,2665.7,3473.4,3477.1,796.9,991.9,1868.4,1477.3,1414.9,907.6,2.0,-19.0,15.0,10778.0,-12114.0,2166.0,914.0,-26.0,27.0,-19.0,-1.0,-5.0,10.0,9215.0,-13241.0,2831.0,-424.0,-63.0,21.0,4.0,1.0
2022-05-13 13:09:40.102993-07:00,1180.6,816.0,1069.5,991.9,1091.2,909.3,1757.0,1276.5,3469.8,3479.5,1206.2,899.1,1532.0,3474.6,1947.9,1590.8,3474.6,3485.6,621.4,801.0,1120.9,1462.6,981.6,2690.8,3473.4,3479.5,798.5,994.5,1868.4,1477.3,1414.9,900.8,-2.0,-6.0,2.0,10789.0,-12105.0,2168.0,901.0,44.0,26.0,-6.0,0.0,-1.0,12.0,9203.0,-13248.0,2835.0,-427.0,-13.0,10.0,-2.0,1.0
2022-05-13 13:09:40.194211-07:00,1180.6,816.0,1083.4,996.2,1091.2,909.3,1757.0,1276.5,3469.8,3469.8,1204.4,894.1,1532.0,3474.6,1947.9,1587.1,3474.6,3485.6,621.4,801.0,1123.5,1459.8,979.9,2690.8,3485.6,3479.5,798.5,994.5,1856.7,1479.2,1414.9,900.8,4.0,-10.0,12.0,10788.0,-12105.0,2168.0,900.0,-14.0,-7.0,5.0,-1.0,-4.0,8.0,9200.0,-13250.0,2835.0,-426.0,-5.0,-7.0,-5.0,1.0
2022-05-13 13:09:40.195375-07:00,1196.5,816.0,1083.4,996.2,1086.8,899.1,1760.8,1276.5,3472.2,3469.8,1204.4,894.1,1529.2,3464.9,1943.0,1587.1,3474.6,3488.0,612.5,799.4,1123.5,1459.8,979.9,2678.8,3485.6,3486.8,801.9,994.5,1856.7,1479.2,1414.9,905.9,0.0,-2.0,11.0,10796.0,-12099.0,2162.0,901.0,30.0,-9.0,-13.0,0.0,0.0,13.0,9207.0,-13247.0,2832.0,-427.0,17.0,-14.0,-12.0,1.0
2022-05-13 13:09:40.282220-07:00,1196.5,818.5,1076.4,992.7,1086.8,899.1,1742.6,1269.4,3472.2,3474.6,1204.4,890.7,1529.2,3464.9,1935.1,1584.2,3472.2,3475.9,612.5,799.4,1122.6,1465.4,979.0,2678.8,3488.0,3480.7,801.9,994.5,1879.1,1476.4,1416.7,905.9,9.0,-11.0,21.0,10804.0,-12094.0,2157.0,899.0,7.0,-11.0,-2.0,1.0,-3.0,13.0,9211.0,-13245.0,2826.0,-425.0,0.0,-8.0,-4.0,1.0
2022-05-13 13:09:40.326714-07:00,1196.5,812.7,1076.4,992.7,1086.8,915.2,1742.6,1269.4,3475.9,3467.4,1204.4,890.7,1521.8,3478.3,1935.1,1584.2,3472.2,3475.9,614.1,799.4,1122.6,1465.4,976.5,2661.3,3488.0,3480.7,796.0,983.3,1879.1,1476.4,1417.6,905.9,2.0,-1.0,15.0,10811.0,-12088.0,2153.0,895.0,12.0,-9.0,-24.0,-1.0,0.0,13.0,9207.0,-13247.0,2829.0,-428.0,-41.0,23.0,9.0,1.0
2022-05-13 13:09:40.372250-07:00,1196.5,812.7,1077.3,995.3,1086.8,915.2,1748.3,1278.3,3475.9,3467.4,1195.6,891.5,1521.8,3478.3,1936.1,1584.2,3469.8,3479.5,614.1,799.4,1123.5,1459.8,976.5,2661.3,3471.0,3483.2,796.0,983.3,1856.7,1474.6,1417.6,905.9,0.0,-8.0,9.0,10820.0,-12085.0,2131.0,887.0,11.0,-22.0,-55.0,0.0,-2.0,8.0,9191.0,-13257.0,2833.0,-432.0,-39.0,2.0,-16.0,1.0
2022-05-13 13:09:40.598536-07:00,1198.2,809.4,1077.3,995.3,1089.5,907.6,1748.3,1278.3,3472.2,3474.6,1195.6,891.5,1519.9,3478.3,1936.1,1584.2,3469.8,3479.5,615.7,801.0,1123.5,1459.8,979.0,2659.1,3471.0,3483.2,798.5,986.7,1856.7,1474.6,1415.8,900.8,7.0,-12.0,13.0,10824.0,-12084.0,2111.0,885.0,7.0,-25.0,-12.0,-1.0,-4.0,8.0,9187.0,-13261.0,2829.0,-433.0,5.0,-2.0,-1.0,1.0
2022-05-13 13:09:40.600039-07:00,1198.2,809.4,1073.8,997.9,1089.5,907.6,1749.3,1264.0,3472.2,3474.6,1199.1,897.4,1519.9,3478.3,1931.1,1577.7,3488.0,3479.5,615.7,801.0,1122.6,1465.4,979.0,2659.1,3479.5,3480.7,798.5,986.7,1865.4,1473.6,1415.8,900.8,11.0,-10.0,17.0,10828.0,-12082.0,2103.0,889.0,1.0,-19.0,-11.0,0.0,-4.0,8.0,9193.0,-13257.0,2826.0,-431.0,17.0,-19.0,-10.0,1.0
2022-05-13 13:09:40.601133-07:00,1192.9,811.9,1072.1,997.9,1088.6,902.5,1749.3,1264.0,3477.1,3477.1,1199.1,897.4,1523.6,3471.0,1931.1,1577.7,3488.0,3479.5,610.8,800.2,1122.6,1462.6,973.9,2650.4,3479.5,3480.7,791.0,986.7,1865.4,1472.7,1406.7,912.7,2.0,-1.0,13.0,10835.0,-12077.0,2097.0,889.0,-3.0,-12.0,0.0,-1.0,1.0,14.0,9200.0,-13253.0,2822.0,-431.0,-9.0,-1.0,-4.0,1.0
2022-05-13 13:09:40.602199-07:00,1192.9,811.9,1072.1,990.2,1088.6,905.9,1731.1,1281.9,3477.1,3477.1,1199.1,891.5,1523.6,3473.4,1925.2,1574.9,3483.2,3479.5,614.1,800.2,1123.5,1462.6,973.9,2650.4,3480.7,3480.7,793.5,986.7,1857.6,1472.7,1406.7,912.7,8.0,-16.0,14.0,10837.0,-12076.0,2091.0,890.0,8.0,-2.0,-4.0,1.0,0.0,12.0,9197.0,-13256.0,2822.0,-430.0,-13.0,9.0,-2.0,1.0
2022-05-13 13:09:40.642235-07:00,1180.6,811.9,1077.3,990.2,1090.3,905.9,1731.1,1281.9,3471.0,3464.9,1190.3,891.5,1519.9,3473.4,1925.2,1574.9,3483.2,3479.5,614.1,795.2,1123.5,1458.0,975.6,2643.9,3480.7,3480.7,793.5,983.3,1857.6,1475.5,1411.3,902.5,6.0,-6.0,14.0,10836.0,-12077.0,2091.0,891.0,-35.0,-1.0,11.0,0.0,-3.0,11.0,9196.0,-13256.0,2822.0,-429.0,-15.0,-1.0,4.0,1.0
2022-05-13 13:09:40.779396-07:00,1180.6,811.9,1077.3,1001.3,1090.3,900.8,1726.3,1266.7,3471.0,3464.9,1190.3,894.9,1519.9,3472.2,1932.1,1573.9,3475.9,3488.0,621.4,795.2,1120.0,1458.0,975.6,2643.9,3477.1,3478.3,798.5,983.3,1857.6,1475.5,1411.3,902.5,5.0,-10.0,13.0,10831.0,-12082.0,2085.0,893.0,-18.0,-10.0,-19.0,-1.0,-4.0,4.0,9188.0,-13262.0,2822.0,-429.0,-24.0,-11.0,-10.0,1.0
2022-05-13 13:09:40.782260-07:00,1180.6,808.5,1074.7,1001.3,1083.4,900.8,1726.3,1266.7,3477.1,3467.4,1198.2,894.9,1523.6,3472.2,1932.1,1573.9,3475.9,3488.0,621.4,801.0,1120.0,1456.2,970.5,2639.5,3477.1,3478.3,798.5,986.7,1857.6,1463.5,1397.6,906.7,1.0,-15.0,11.0,10834.0,-12081.0,2078.0,892.0,4.0,9.0,7.0,-2.0,-4.0,12.0,9188.0,-13262.0,2818.0,-430.0,23.0,-7.0,-9.0,1.0
2022-05-13 13:09:40.783354-07:00,1180.6,808.5,1074.7,996.2,1086.8,900.0,1733.0,1268.5,3477.1,3467.4,1198.2,891.5,1530.1,3473.4,1921.3,1578.6,3492.9,3478.3,614.9,791.0,1120.0,1456.2,970.5,2639.5,3478.3,3475.9,795.2,979.9,1860.6,1463.5,1397.6,906.7,6.0,4.0,11.0,10832.0,-12082.0,2080.0,896.0,-28.0,-11.0,-1.0,0.0,1.0,14.0,9189.0,-13261.0,2818.0,-430.0,-16.0,-3.0,-3.0,1.0
2022-05-13 13:09:40.823152-07:00,1179.7,806.0,1072.9,996.2,1086.8,900.0,1733.0,1268.5,3474.6,3471.0,1196.5,890.7,1530.1,3473.4,1921.3,1578.6,3492.9,3478.3,614.9,791.0,1118.2,1462.6,970.5,2643.9,3478.3,3475.9,795.2,979.9,1854.7,1470.0,1404.9,905.0,1.0,-17.0,13.0,10836.0,-12080.0,2070.0,892.0,36.0,7.0,-6.0,0.0,-5.0,11.0,9188.0,-13263.0,2814.0,-433.0,16.0,3.0,-12.0,1.0
2022-05-13 13:09:40.867411-07:00,1179.7,806.0,1072.9,996.2,1077.3,898.3,1742.6,1272.1,3474.6,3471.0,1196.5,890.7,1530.1,3477.1,1914.4,1569.3,3480.7,3479.5,613.3,801.9,1118.2,1462.6,970.5,2643.9,3477.1,3479.5,791.9,979.9,1854.7,1470.0,1404.9,905.0,6.0,-4.0,11.0,10841.0,-12076.0,2069.0,890.0,-11.0,5.0,-9.0,0.0,0.0,12.0,9181.0,-13268.0,2816.0,-433.0,-30.0,8.0,0.0,1.0
2022-05-13 13:09:40.912258-07:00,1186.7,814.4,1077.3,987.6,1077.3,898.3,1742.6,1272.1,3478.3,3474.6,1200.0,893.2,1530.1,3477.1,1914.4,1569.3,3480.7,3479.5,613.3,801.9,1121.7,1462.6,967.1,2648.2,3477.1,3479.5,791.9,979.9,1871.3,1459.8,1412.2,906.7,4.0,-4.0,8.0,10843.0,-12075.0,2067.0,885.0,9.0,9.0,-11.0,0.0,-1.0,14.0,9173.0,-13273.0,2817.0,-434.0,-17.0,16.0,-9.0,1.0
2022-05-13 13:09:40.957304-07:00,1186.7,814.4,1077.3,987.6,1091.2,905.9,1733.0,1266.7,3478.3,3474.6,1200.0,893.2,1529.2,3473.4,1922.3,1576.8,3486.8,3484.4,613.3,796.0,1121.7,1462.6,967.1,2648.2,3491.7,3478.3,796.0,977.3,1871.3,1459.8,1412.2,906.7,4.0,-6.0,10.0,10844.0,-12074.0,2068.0,881.0,-8.0,-1.0,-8.0,0.0,-1.0,7.0,9166.0,-13278.0,2818.0,-435.0,-21.0,11.0,-8.0,1.0
2022-05-13 13:09:41.002161-07:00,1182.3,806.9,1070.3,995.3,1091.2,905.9,1733.0,1266.7,3473.4,3469.8,1197.4,895.7,1529.2,3473.4,1922.3,1576.8,3486.8,3484.4,613.3,796.0,1121.7,1457.1,967.9,2638.4,3491.7,3478.3,796.0,977.3,1850.8,1458.9,1396.7,905.0,1.0,-5.0,8.0,10844.0,-12075.0,2064.0,878.0,0.0,6.0,-15.0,2.0,-5.0,10.0,9160.0,-13282.0,2814.0,-436.0,-14.0,8.0,-11.0,1.0
2022-05-13 13:09:41.049124-07:00,1183.2,806.9,1070.3,995.3,1085.1,905.9,1735.8,1271.2,3469.8,3469.8,1197.4,895.7,1530.1,3478.3,1902.6,1570.2,3478.3,3475.9,621.4,801.0,1121.7,1457.1,967.9,2648.2,3471.0,3477.1,798.5,985.9,1850.8,1458.9,1396.7,905.9,1.0,-8.0,9.0,10844.0,-12076.0,2058.0,874.0,-3.0,-5.0,-16.0,0.0,-5.0,12.0,9152.0,-13288.0,2811.0,-438.0,-18.0,4.0,-10.0,1.0
2022-05-13 13:09:41.139477-07:00,1183.2,807.7,1074.7,992.7,1085.1,905.9,1735.8,1263.1,3469.8,3469.8,1203.5,892.4,1530.1,3478.3,1902.6,1570.2,3479.5,3475.9,621.4,801.0,1119.1,1457.1,968.8,2648.2,3483.2,3477.1,798.5,985.9,1851.8,1457.1,1400.3,905.9,7.0,-13.0,15.0,10841.0,-12081.0,2051.0,871.0,-15.0,-11.0,-21.0,0.0,-2.0,8.0,9146.0,-13293.0,2807.0,-440.0,-16.0,0.0,-14.0,1.0
2022-05-13 13:09:41.182293-07:00,1189.4,807.7,1074.7,992.7,1083.4,897.4,1736.8,1263.1,3480.7,3469.8,1203.5,892.4,1527.3,3478.3,1916.4,1570.2,3479.5,3479.5,610.8,800.2,1119.1,1457.1,968.8,2640.6,3483.2,3474.6,791.0,970.5,1851.8,1457.1,1400.3,907.6,6.0,1.0,9.0,10842.0,-12081.0,2045.0,867.0,-4.0,-12.0,-18.0,0.0,1.0,11.0,9143.0,-13296.0,2802.0,-443.0,-20.0,6.0,-12.0,1.0
2022-05-13 13:09:41.227336-07:00,1189.4,805.2,1071.2,999.6,1083.4,897.4,1736.8,1275.6,3480.7,3475.9,1207.1,887.3,1527.3,3478.3,1916.4,1570.2,3479.5,3479.5,610.8,800.2,1117.4,1462.6,967.1,2640.6,3475.9,3474.6,791.0,970.5,1848.9,1458.0,1403.0,907.6,4.0,-7.0,11.0,10840.0,-12083.0,2041.0,864.0,3.0,-3.0,-10.0,0.0,-5.0,6.0,9137.0,-13302.0,2796.0,-443.0,-14.0,-2.0,-12.0,1.0
2022-05-13 13:09:41.318706-07:00,1176.2,805.2,1071.2,999.6,1086.0,898.3,1728.2,1275.6,3474.6,3475.9,1207.1,887.3,1522.7,3472.2,1918.3,1570.2,3479.5,3479.5,615.7,798.5,1117.4,1462.6,967.1,2630.8,3475.9,3480.7,791.0,979.0,1848.9,1458.0,1403.0,905.9,3.0,-5.0,11.0,10841.0,-12084.0,2037.0,860.0,4.0,-1.0,-16.0,3.0,-1.0,11.0,9135.0,-13304.0,2793.0,-445.0,-1.0,3.0,-11.0,1.0
2022-05-13 13:09:41.320447-07:00,1176.2,805.2,1074.7,1001.3,1086.0,898.3,1733.9,1263.1,3474.6,3466.1,1207.1,902.5,1522.7,3472.2,1907.5,1566.5,3479.5,3480.7,615.7,798.5,1119.1,1464.4,959.4,2630.8,3486.8,3483.2,791.0,979.0,1841.1,1463.5,1393.0,905.9,0.0,-8.0,9.0,10841.0,-12085.0,2031.0,856.0,-2.0,-6.0,-15.0,-2.0,-2.0,14.0,9132.0,-13307.0,2790.0,-446.0,-22.0,2.0,-10.0,1.0
2022-05-13 13:09:41.362224-07:00,1179.7,805.2,1074.7,1001.3,1089.5,899.1,1733.9,1263.1,3472.2,3475.9,1207.1,902.5,1527.3,3477.1,1907.5,1566.5,3479.5,3480.7,615.7,801.9,1119.1,1464.4,959.4,2622.1,3486.8,3483.2,793.5,973.1,1841.1,1463.5,1397.6,900.0,6.0,-14.0,15.0,10841.0,-12086.0,2024.0,854.0,7.0,3.0,-16.0,0.0,-4.0,8.0,9123.0,-13313.0,2788.0,-447.0,-6.0,3.0,-12.0,1.0
2022-05-13 13:09:41.409293-07:00,1179.7,805.2,1067.7,1003.0,1089.5,899.1,1728.2,1271.2,3472.2,3475.9,1211.5,894.1,1527.3,3477.1,1908.5,1562.7,3467.4,3484.4,615.7,801.9,1113.0,1460.8,959.4,2622.1,3481.9,3483.2,793.5,973.1,1850.8,1457.1,1397.6,900.0,5.0,12.0,4.0,10853.0,-12076.0,2025.0,851.0,54.0,-9.0,7.0,0.0,1.0,8.0,9124.0,-13312.0,2789.0,-453.0,19.0,20.0,0.0,1.0
2022-05-13 13:09:41.451689-07:00,1192.9,797.7,1067.7,1003.0,1076.4,894.9,1728.2,1271.2,3467.4,3474.6,1211.5,894.1,1530.1,3475.9,1908.5,1562.7,3467.4,3484.4,614.9,801.0,1113.0,1460.8,961.1,2649.3,3481.9,3483.2,787.7,981.6,1850.8,1457.1,1400.3,905.0,4.0,-5.0,11.0,10857.0,-12073.0,2021.0,851.0,17.0,-12.0,-12.0,0.0,-3.0,9.0,9129.0,-13309.0,2786.0,-457.0,16.0,-8.0,-14.0,1.0
2022-05-13 13:09:41.499045-07:00,1192.9,797.7,1073.8,994.5,1076.4,894.9,1730.1,1276.5,3467.4,3474.6,1214.2,894.1,1530.1,3475.9,1905.6,1569.3,3477.1,3484.4,614.9,801.0,1123.5,1455.2,961.1,2649.3,3492.9,3481.9,787.7,981.6,1846.9,1454.3,1400.3,905.0,3.0,-20.0,17.0,10864.0,-12067.0,2018.0,851.0,32.0,-2.0,-5.0,3.0,-9.0,7.0,9136.0,-13306.0,2779.0,-460.0,29.0,-7.0,-8.0,1.0
2022-05-13 13:09:41.543603-07:00,1190.3,801.0,1073.8,994.5,1091.2,906.7,1730.1,1276.5,3471.0,3478.3,1214.2,894.1,1530.1,3462.5,1905.6,1569.3,3477.1,3484.4,614.9,791.0,1123.5,1455.2,958.5,2628.6,3492.9,3481.9,785.2,979.0,1846.9,1454.3,1399.4,900.0,2.0,-7.0,11.0,10873.0,-12059.0,2018.0,849.0,23.0,4.0,1.0,1.0,0.0,14.0,9143.0,-13301.0,2779.0,-462.0,2.0,-1.0,-6.0,1.0
2022-05-13 13:09:41.588361-07:00,1190.3,801.0,1065.1,992.7,1091.2,894.9,1728.2,1269.4,3471.0,3478.3,1209.7,893.2,1530.1,3474.6,1904.6,1565.5,3475.9,3481.9,621.4,791.0,1120.9,1464.4,958.5,2628.6,3472.2,3480.7,786.9,979.0,1848.9,1459.8,1399.4,900.0,-2.0,-1.0,10.0,10875.0,-12056.0,2021.0,847.0,-1.0,5.0,8.0,1.0,-3.0,16.0,9141.0,-13302.0,2780.0,-463.0,-34.0,17.0,5.0,1.0
2022-05-13 13:09:41.769267-07:00,1188.5,806.0,1061.7,992.7,1085.1,894.9,1728.2,1269.4,3479.5,3472.2,1207.1,893.2,1533.8,3474.6,1904.6,1565.5,3475.9,3481.9,621.4,800.2,1120.9,1463.5,954.3,2635.1,3472.2,3480.7,786.9,977.3,1848.9,1454.3,1391.2,899.1,4.0,-12.0,12.0,10870.0,-12062.0,2021.0,848.0,-23.0,4.0,3.0,0.0,-4.0,12.0,9129.0,-13309.0,2782.0,-463.0,-32.0,8.0,3.0,1.0
2022-05-13 13:09:41.770997-07:00,1188.5,806.0,1061.7,997.9,1085.1,889.8,1729.1,1260.4,3479.5,3472.2,1207.1,895.7,1533.8,3477.1,1898.7,1566.5,3474.6,3475.9,614.1,800.2,1127.0,1463.5,954.3,2635.1,3474.6,3486.8,781.1,977.3,1841.1,1454.3,1391.2,899.1,10.0,-21.0,20.0,10865.0,-12065.0,2023.0,851.0,-28.0,8.0,27.0,2.0,-1.0,4.0,9119.0,-13316.0,2782.0,-461.0,-4.0,-24.0,-4.0,1.0
2022-05-13 13:09:41.813364-07:00,1184.1,811.9,1066.9,997.9,1081.6,889.8,1729.1,1260.4,3474.6,3474.6,1209.7,895.7,1528.3,3477.1,1898.7,1566.5,3474.6,3475.9,614.1,804.4,1127.0,1461.7,962.8,2624.3,3474.6,3486.8,781.1,987.6,1841.1,1455.2,1398.5,905.0,25.0,-36.0,30.0,10866.0,-12056.0,2075.0,839.0,34.0,164.0,161.0,2.0,0.0,9.0,9120.0,-13315.0,2784.0,-456.0,15.0,-18.0,30.0,1.0
2022-05-13 13:09:41.814642-07:00,1184.1,811.9,1066.9,998.7,1081.6,903.4,1726.3,1259.6,3474.6,3474.6,1209.7,895.7,1528.3,3477.1,1924.3,1558.1,3479.5,3474.6,618.1,804.4,1119.1,1461.7,962.8,2624.3,3480.7,3477.1,791.0,987.6,1920.3,1455.2,1398.5,905.0,20.0,-9.0,20.0,10905.0,-11991.0,2252.0,803.0,263.0,381.0,332.0,-4.0,6.0,9.0,9114.0,-13314.0,2811.0,-447.0,-46.0,49.0,76.0,1.0
2022-05-13 13:09:41.857287-07:00,1192.9,796.0,1065.1,991.9,1084.2,903.4,1726.3,1259.6,3478.3,3467.4,1200.9,894.1,1525.5,3477.1,1924.3,1558.1,3479.5,3474.6,618.1,801.0,1126.1,1466.3,964.5,2600.4,3480.7,3477.1,791.0,978.2,1940.0,1458.9,1462.6,899.1,-8.0,17.0,-20.0,10980.0,-11874.0,2515.0,752.0,358.0,497.0,419.0,5.0,-7.0,20.0,9080.0,-13330.0,2846.0,-438.0,-167.0,100.0,92.0,1.0
2022-05-13 13:09:41.946820-07:00,1192.9,796.0,1065.1,991.9,1082.5,914.4,1768.5,1285.5,3478.3,3467.4,1200.9,894.1,1528.3,3478.3,2015.4,1544.1,3472.2,3477.1,618.1,797.7,1126.1,1466.3,964.5,2600.4,3474.6,3478.3,791.9,987.6,1940.0,1458.9,1462.6,899.1,0.0,75.0,-132.0,10944.0,-11864.0,2711.0,747.0,-289.0,129.0,244.0,-11.0,18.0,-6.0,9007.0,-13371.0,2888.0,-437.0,-224.0,19.0,23.0,1.0
2022-05-13 13:09:42.218976-07:00,1197.4,784.4,1070.3,993.6,1082.5,914.4,1768.5,1285.5,3475.9,3475.9,1188.5,892.4,1528.3,3478.3,2015.4,1544.1,3472.2,3477.1,618.1,797.7,1121.7,1467.2,950.0,2630.8,3474.6,3478.3,791.9,987.6,1926.2,1503.2,1734.9,901.7,86.0,42.0,-58.0,10857.0,-11954.0,2646.0,804.0,115.0,-323.0,-261.0,3.0,4.0,26.0,8964.0,-13413.0,2832.0,-404.0,-101.0,-201.0,-176.0,1.0
2022-05-13 13:09:42.220182-07:00,1197.4,784.4,1070.3,993.6,1081.6,916.0,1857.6,1301.6,3475.9,3475.9,1188.5,892.4,1520.8,3464.9,1810.0,1500.4,3477.1,3481.9,605.2,800.2,1121.7,1467.2,950.0,2630.8,3478.3,3467.4,770.3,1015.1,1926.2,1503.2,1734.9,901.7,-33.0,-96.0,142.0,10956.0,-11916.0,2411.0,763.0,-191.0,-295.0,-505.0,16.0,-41.0,-12.0,8893.0,-13479.0,2739.0,-423.0,-283.0,-51.0,-207.0,1.0
2022-05-13 13:09:42.308087-07:00,1239.9,784.4,1069.5,995.3,1081.6,916.0,1857.6,1301.6,3473.4,3475.9,1176.2,888.2,1520.8,3464.9,1810.0,1500.4,3477.1,3481.9,605.2,800.2,1120.0,1467.2,948.3,2623.2,3478.3,3467.4,770.3,1015.1,1909.5,1337.7,1436.9,904.2,7.0,-57.0,20.0,10945.0,-11975.0,2187.0,685.0,47.0,-201.0,-446.0,0.0,-6.0,12.0,8865.0,-13506.0,2695.0,-423.0,36.0,-81.0,-83.0,1.0
2022-05-13 13:09:42.353039-07:00,1239.9,784.4,1069.5,995.3,1080.8,904.2,1892.8,1297.2,3473.4,3475.9,1176.2,888.2,1510.6,3468.6,1684.3,1447.0,3480.7,3483.2,607.6,796.9,1120.0,1467.2,948.3,2623.2,3480.7,3480.7,748.0,995.3,1909.5,1337.7,1436.9,904.2,-47.0,53.0,-4.0,11015.0,-11939.0,2043.0,635.0,173.0,-253.0,-290.0,-2.0,11.0,28.0,8872.0,-13503.0,2685.0,-439.0,-76.0,70.0,-15.0,1.0
2022-05-13 13:09:42.396728-07:00,1252.4,776.1,1073.8,1003.0,1080.8,904.2,1892.8,1289.1,3478.3,3464.9,1165.6,890.7,1510.6,3468.6,1684.3,1423.1,3473.4,3483.2,607.6,796.9,1123.5,1461.7,944.1,2629.7,3481.9,3480.7,748.0,995.3,1898.7,1298.1,1345.8,904.2,10.0,-77.0,35.0,11007.0,-11982.0,1816.0,649.0,-141.0,-300.0,-380.0,-1.0,-27.0,3.0,8828.0,-13538.0,2652.0,-436.0,-16.0,-131.0,-130.0,1.0
2022-05-13 13:09:42.397863-07:00,1252.4,776.1,1073.8,1003.0,1080.8,904.2,1892.8,1289.1,3478.3,3464.9,1165.6,890.7,1510.6,3468.6,1684.3,1423.1,3473.4,3483.2,607.6,796.9,1123.5,1461.7,944.1,2629.7,3481.9,3480.7,748.0,995.3,1898.7,1298.1,1345.8,904.2,10.0,-77.0,35.0,11007.0,-11982.0,1816.0,649.0,-141.0,-300.0,-380.0,-1.0,-27.0,3.0,8828.0,-13538.0,2652.0,-436.0,-16.0,-131.0,-130.0,1.0
2022-05-13 13:09:42.399621-07:00,1238.2,775.3,1087.7,1003.0,1086.8,878.9,1877.2,1285.5,3475.9,3473.4,1163.0,888.2,1507.8,3475.9,1612.4,1409.4,3473.4,3478.3,606.8,796.9,1121.7,1464.4,934.7,2604.8,3469.8,3479.5,734.0,973.9,1890.9,1281.9,1323.2,906.7,5.0,0.0,-2.0,11051.0,-11943.0,1801.0,663.0,11.0,44.0,16.0,0.0,0.0,13.0,8818.0,-13542.0,2661.0,-450.0,-140.0,77.0,28.0,1.0
2022-05-13 13:09:42.401431-07:00,1238.2,775.3,1087.7,1003.0,1086.8,878.9,1877.2,1285.5,3475.9,3473.4,1163.0,888.2,1507.8,3475.9,1612.4,1409.4,3473.4,3478.3,606.8,796.9,1121.7,1464.4,934.7,2604.8,3469.8,3479.5,734.0,973.9,1890.9,1281.9,1323.2,906.7,5.0,0.0,-2.0,11051.0,-11943.0,1801.0,663.0,11.0,44.0,16.0,0.0,0.0,13.0,8818.0,-13542.0,2661.0,-450.0,-140.0,77.0,28.0,1.0
2022-05-13 13:09:42.402574-07:00,1237.3,766.2,1079.9,1003.9,1087.7,866.3,1856.7,1286.4,3471.0,3467.4,1159.4,883.1,1522.7,3478.3,1601.1,1401.2,3477.1,3464.9,609.2,802.7,1126.1,1465.4,927.9,2596.1,3469.8,3474.6,737.3,979.9,1880.1,1281.9,1296.3,902.5,0.0,0.0,-5.0,11031.0,-11953.0,1865.0,635.0,-15.0,65.0,68.0,0.0,0.0,4.0,8742.0,-13583.0,2703.0,-459.0,-60.0,15.0,18.0,1.0
2022-05-13 13:09:42.442204-07:00,1237.3,766.2,1075.6,998.7,1087.7,866.3,1857.6,1281.0,3471.0,3467.4,1157.7,891.5,1522.7,3478.3,1592.7,1401.2,3467.4,3488.0,609.2,802.7,1120.0,1463.5,927.9,2596.1,3463.7,3474.6,737.3,979.9,1860.6,1266.7,1296.3,902.5,-6.0,-8.0,0.0,11016.0,-11962.0,1890.0,640.0,-29.0,9.0,32.0,0.0,-6.0,8.0,8730.0,-13591.0,2704.0,-456.0,-18.0,-1.0,5.0,1.0
2022-05-13 13:09:42.489125-07:00,1242.6,767.8,1075.6,998.7,1086.0,869.6,1857.6,1281.0,3469.8,3475.9,1157.7,891.5,1509.7,3473.4,1592.7,1401.2,3467.4,3488.0,602.8,800.2,1120.0,1463.5,929.6,2596.1,3463.7,3474.6,724.9,970.5,1860.6,1266.7,1289.1,900.8,-9.0,-7.0,0.0,11023.0,-11955.0,1897.0,643.0,19.0,21.0,17.0,1.0,-1.0,11.0,8734.0,-13588.0,2701.0,-454.0,9.0,-14.0,-9.0,1.0
2022-05-13 13:09:42.578737-07:00,1242.6,767.8,1091.2,996.2,1086.0,869.6,1845.0,1298.1,3469.8,3475.9,1142.7,887.3,1509.7,3473.4,1589.9,1394.8,3464.9,3478.3,602.8,800.2,1124.4,1456.2,929.6,2596.1,3469.8,3475.9,724.9,970.5,1877.2,1272.1,1289.1,900.8,-1.0,-4.0,8.0,11011.0,-11965.0,1903.0,652.0,-40.0,-9.0,18.0,0.0,0.0,8.0,8727.0,-13593.0,2704.0,-450.0,-38.0,11.0,13.0,1.0
2022-05-13 13:09:42.622393-07:00,1238.2,767.8,1091.2,996.2,1091.2,860.4,1845.0,1298.1,3475.9,3468.6,1142.7,887.3,1515.3,3477.1,1589.9,1394.8,3464.9,3478.3,615.7,802.7,1124.4,1456.2,929.6,2588.5,3469.8,3475.9,728.2,972.2,1877.2,1272.1,1279.2,901.7,-5.0,-1.0,-1.0,11010.0,-11966.0,1901.0,654.0,-2.0,-21.0,-17.0,0.0,-1.0,7.0,8711.0,-13601.0,2710.0,-454.0,-46.0,15.0,1.0,1.0
2022-05-13 13:09:42.667313-07:00,1238.2,767.8,1083.4,998.7,1091.2,856.2,1843.0,1279.2,3475.9,3468.6,1157.7,885.6,1515.3,3467.4,1580.5,1394.8,3474.6,3467.4,606.8,802.7,1122.6,1467.2,929.6,2588.5,3475.9,3488.0,724.9,972.2,1864.5,1265.8,1279.2,901.7,-7.0,-11.0,4.0,11003.0,-11973.0,1893.0,659.0,-21.0,-10.0,9.0,0.0,-6.0,7.0,8704.0,-13606.0,2710.0,-452.0,-2.0,-3.0,1.0,1.0
2022-05-13 13:09:42.712218-07:00,1231.0,764.5,1082.5,998.7,1087.7,856.2,1843.0,1279.2,3478.3,3478.3,1155.0,885.6,1510.6,3467.4,1580.5,1394.8,3474.6,3467.4,606.8,800.2,1122.6,1457.1,927.9,2576.6,3475.9,3488.0,724.9,967.1,1864.5,1260.4,1268.5,897.4,-3.0,2.0,0.0,11004.0,-11972.0,1893.0,666.0,-7.0,-14.0,2.0,0.0,1.0,11.0,8705.0,-13606.0,2710.0,-452.0,-4.0,-3.0,-7.0,1.0
2022-05-13 13:09:42.847526-07:00,1231.0,764.5,1082.5,996.2,1087.7,857.9,1827.5,1289.1,3478.3,3478.3,1155.0,888.2,1510.6,3474.6,1574.9,1393.0,3478.3,3468.6,607.6,800.2,1127.9,1457.1,927.9,2576.6,3483.2,3481.9,728.2,967.1,1854.7,1260.4,1268.5,897.4,-5.0,-13.0,5.0,11002.0,-11974.0,1886.0,673.0,-8.0,-28.0,-6.0,2.0,-5.0,6.0,8704.0,-13606.0,2710.0,-452.0,1.0,-1.0,0.0,1.0
2022-05-13 13:09:42.938503-07:00,1231.9,777.8,1083.4,996.2,1078.2,857.9,1827.5,1289.1,3480.7,3471.0,1155.0,888.2,1510.6,3474.6,1574.9,1393.0,3478.3,3468.6,607.6,800.2,1127.9,1464.4,923.7,2578.8,3483.2,3481.9,728.2,959.4,1854.7,1253.3,1261.3,900.8,-9.0,-8.0,9.0,11003.0,-11974.0,1883.0,676.0,4.0,9.0,9.0,1.0,-4.0,9.0,8710.0,-13603.0,2709.0,-452.0,13.0,-6.0,3.0,1.0
2022-05-13 13:09:42.941195-07:00,1231.9,777.8,1083.4,990.2,1078.2,851.1,1833.3,1305.2,3480.7,3471.0,1155.0,888.2,1510.6,3472.2,1571.1,1395.7,3479.5,3472.2,607.6,800.2,1121.7,1464.4,923.7,2578.8,3478.3,3477.1,715.1,959.4,1867.4,1253.3,1261.3,900.8,-6.0,0.0,5.0,11005.0,-11972.0,1883.0,677.0,16.0,-3.0,-1.0,-1.0,0.0,10.0,8711.0,-13602.0,2709.0,-453.0,-5.0,19.0,4.0,1.0
2022-05-13 13:09:42.942293-07:00,1234.6,766.2,1075.6,990.2,1074.7,851.1,1833.3,1305.2,3472.2,3468.6,1155.0,888.2,1506.9,3472.2,1571.1,1395.7,3479.5,3472.2,607.6,794.4,1121.7,1462.6,917.7,2574.5,3478.3,3477.1,715.1,962.8,1867.4,1252.4,1260.4,899.1,-4.0,-9.0,5.0,11006.0,-11971.0,1884.0,677.0,-4.0,-1.0,3.0,2.0,-3.0,6.0,8707.0,-13604.0,2710.0,-454.0,-9.0,6.0,-2.0,1.0
2022-05-13 13:09:42.943374-07:00,1234.6,766.2,1075.6,1006.5,1080.8,853.7,1834.3,1289.1,3472.2,3468.6,1155.0,887.3,1507.8,3473.4,1571.1,1389.4,3475.9,3474.6,607.6,799.4,1122.6,1462.6,917.7,2574.5,3483.2,3472.2,717.5,959.4,1862.5,1252.4,1260.4,899.1,-2.0,-6.0,4.0,11006.0,-11971.0,1886.0,679.0,-5.0,-1.0,13.0,0.0,-2.0,6.0,8708.0,-13604.0,2710.0,-454.0,6.0,-2.0,1.0,1.0
2022-05-13 13:09:42.984174-07:00,1229.3,766.2,1080.8,998.7,1080.8,853.7,1834.3,1289.1,3478.3,3463.7,1144.5,889.0,1507.8,3473.4,1571.1,1389.4,3475.9,3474.6,607.6,799.4,1123.5,1461.7,921.1,2570.2,3483.2,3472.2,717.5,959.4,1853.7,1244.4,1257.8,901.7,1.0,-2.0,2.0,11010.0,-11967.0,1886.0,678.0,14.0,-8.0,-10.0,1.0,-4.0,4.0,8709.0,-13603.0,2710.0,-454.0,4.0,-7.0,-10.0,1.0
2022-05-13 13:09:43.072286-07:00,1229.3,766.2,1080.8,998.7,1085.1,853.7,1845.0,1282.8,3478.3,3463.7,1144.5,889.0,1509.7,3464.9,1567.4,1385.7,3477.1,3478.3,605.2,799.4,1123.5,1461.7,921.1,2570.2,3479.5,3471.0,724.1,962.8,1853.7,1244.4,1257.8,901.7,-6.0,-9.0,4.0,11011.0,-11966.0,1885.0,677.0,10.0,7.0,11.0,0.0,-4.0,9.0,8710.0,-13602.0,2709.0,-455.0,-8.0,12.0,10.0,1.0
2022-05-13 13:09:43.117488-07:00,1231.9,766.2,1084.2,997.9,1085.1,853.7,1845.0,1282.8,3469.8,3478.3,1147.1,884.8,1509.7,3464.9,1567.4,1385.7,3477.1,3478.3,605.2,799.4,1121.7,1464.4,925.4,2572.3,3479.5,3471.0,724.1,962.8,1841.1,1249.7,1255.1,907.6,-7.0,-7.0,4.0,11012.0,-11964.0,1888.0,677.0,-5.0,9.0,1.0,1.0,-3.0,6.0,8709.0,-13602.0,2713.0,-456.0,-16.0,5.0,3.0,1.0
2022-05-13 13:09:43.162293-07:00,1231.9,766.2,1084.2,997.9,1085.1,856.2,1833.3,1279.2,3469.8,3478.3,1147.1,884.8,1511.5,3469.8,1559.0,1390.3,3478.3,3475.9,606.0,797.7,1121.7,1464.4,925.4,2572.3,3473.4,3483.2,701.1,958.5,1841.1,1249.7,1255.1,907.6,-5.0,0.0,-2.0,11014.0,-11963.0,1884.0,679.0,4.0,-25.0,-12.0,0.0,0.0,7.0,8703.0,-13606.0,2713.0,-456.0,-12.0,-1.0,-9.0,1.0
2022-05-13 13:09:43.253198-07:00,1224.8,767.0,1081.6,994.5,1085.1,856.2,1833.3,1281.0,3477.1,3473.4,1147.1,884.8,1511.5,3469.8,1559.0,1386.6,3467.4,3475.9,606.0,797.7,1123.5,1461.7,916.9,2579.9,3478.3,3483.2,701.1,958.5,1857.6,1243.5,1255.1,896.6,-2.0,-6.0,3.0,11013.0,-11964.0,1877.0,686.0,4.0,-22.0,2.0,0.0,-3.0,8.0,8703.0,-13606.0,2713.0,-455.0,19.0,-3.0,-1.0,1.0
2022-05-13 13:09:43.257156-07:00,1230.2,767.0,1081.6,994.5,1084.2,844.4,1824.6,1281.0,3467.4,3473.4,1147.1,884.8,1501.4,3473.4,1559.9,1386.6,3467.4,3472.2,606.0,794.4,1123.5,1461.7,916.9,2571.3,3478.3,3489.2,719.2,954.3,1857.6,1243.5,1255.1,900.8,-6.0,-7.0,4.0,11016.0,-11963.0,1874.0,689.0,-4.0,1.0,-6.0,1.0,-3.0,6.0,8710.0,-13602.0,2711.0,-455.0,18.0,-10.0,-7.0,1.0
2022-05-13 13:09:43.298780-07:00,1230.2,760.4,1071.2,997.0,1084.2,844.4,1824.6,1283.7,3467.4,3477.1,1149.8,887.3,1501.4,3473.4,1559.9,1387.5,3467.4,3472.2,606.0,794.4,1120.0,1461.7,913.5,2571.3,3484.4,3489.2,719.2,954.3,1848.9,1251.5,1246.2,900.8,-2.0,-7.0,8.0,11018.0,-11961.0,1876.0,686.0,22.0,14.0,-5.0,2.0,-1.0,12.0,8714.0,-13600.0,2711.0,-455.0,4.0,7.0,3.0,1.0
2022-05-13 13:09:43.342216-07:00,1221.3,760.4,1071.2,997.0,1075.6,847.8,1829.4,1283.7,3469.8,3477.1,1149.8,887.3,1503.2,3479.5,1555.3,1387.5,3467.4,3477.1,605.2,798.5,1120.0,1461.7,913.5,2564.8,3484.4,3477.1,719.2,954.3,1848.9,1251.5,1246.2,903.4,-8.0,-7.0,4.0,11018.0,-11960.0,1882.0,680.0,5.0,19.0,0.0,2.0,-2.0,11.0,8713.0,-13600.0,2711.0,-456.0,-15.0,9.0,7.0,1.0
2022-05-13 13:09:43.433984-07:00,1221.3,772.0,1072.9,997.9,1075.6,847.8,1829.4,1279.2,3469.8,3468.6,1146.3,883.1,1503.2,3479.5,1555.3,1388.5,3477.1,3477.1,605.2,798.5,1119.1,1465.4,912.7,2564.8,3481.9,3477.1,719.2,954.3,1842.0,1239.9,1236.4,903.4,-1.0,-7.0,0.0,11017.0,-11961.0,1881.0,681.0,-19.0,-11.0,-7.0,1.0,-1.0,5.0,8703.0,-13605.0,2714.0,-459.0,-22.0,-4.0,-3.0,1.0
2022-05-13 13:09:43.435210-07:00,1216.8,772.0,1072.9,997.9,1078.2,852.0,1830.4,1279.2,3466.1,3468.6,1146.3,883.1,1506.9,3483.2,1552.5,1388.5,3477.1,3479.5,610.0,792.7,1119.1,1465.4,912.7,2557.3,3481.9,3474.6,715.1,956.8,1842.0,1239.9,1236.4,905.9,-1.0,-17.0,6.0,11015.0,-11962.0,1881.0,681.0,7.0,-4.0,2.0,1.0,-5.0,4.0,8704.0,-13605.0,2714.0,-458.0,26.0,-14.0,-7.0,1.0
2022-05-13 13:09:43.745658-07:00,1216.8,765.3,1069.5,997.0,1078.2,852.0,1824.6,1285.5,3466.1,3472.2,1148.9,883.9,1506.9,3483.2,1544.1,1382.1,3477.1,3483.2,610.0,792.7,1123.5,1467.2,919.4,2557.3,3477.1,3481.9,715.1,956.8,1839.1,1239.9,1244.4,905.9,0.0,-1.0,4.0,11019.0,-11958.0,1884.0,682.0,1.0,-6.0,4.0,0.0,-2.0,10.0,8714.0,-13599.0,2711.0,-457.0,17.0,-5.0,-4.0,1.0
2022-05-13 13:09:43.746770-07:00,1223.9,760.4,1069.5,997.0,1083.4,848.6,1824.6,1285.5,3467.4,3479.5,1148.9,883.9,1505.1,3473.4,1544.1,1382.1,3477.1,3483.2,602.8,792.7,1123.5,1467.2,921.1,2564.8,3477.1,3481.9,713.4,969.6,1839.1,1239.9,1242.6,898.3,-1.0,-11.0,7.0,11019.0,-11959.0,1880.0,680.0,4.0,-9.0,-18.0,2.0,-5.0,6.0,8713.0,-13600.0,2711.0,-456.0,-12.0,7.0,-5.0,1.0
2022-05-13 13:09:43.747836-07:00,1223.9,760.4,1077.3,991.0,1083.4,848.6,1805.2,1282.8,3467.4,3479.5,1148.9,889.0,1505.1,3473.4,1543.1,1381.2,3475.9,3480.7,602.8,792.7,1125.2,1463.5,921.1,2564.8,3469.8,3477.1,713.4,969.6,1845.0,1233.7,1242.6,898.3,-2.0,-9.0,3.0,11020.0,-11959.0,1878.0,679.0,8.0,2.0,5.0,0.0,-5.0,7.0,8716.0,-13598.0,2711.0,-457.0,21.0,-2.0,3.0,1.0
2022-05-13 13:09:43.765862-07:00,1225.7,765.3,1077.3,991.0,1088.6,842.8,1805.2,1282.8,3473.4,3477.1,1148.9,889.0,1506.9,3478.3,1543.1,1381.2,3475.9,3480.7,604.4,796.9,1125.2,1463.5,914.4,2546.5,3469.8,3477.1,716.7,953.4,1845.0,1233.7,1238.2,899.1,-3.0,0.0,6.0,11019.0,-11959.0,1882.0,679.0,0.0,3.0,2.0,0.0,0.0,11.0,8724.0,-13593.0,2710.0,-458.0,2.0,-1.0,0.0,1.0
2022-05-13 13:09:43.766968-07:00,1225.7,765.3,1071.2,990.2,1088.6,842.8,1823.6,1279.2,3473.4,3477.1,1154.2,884.8,1506.9,3478.3,1541.3,1383.0,3472.2,3477.1,604.4,796.9,1121.7,1465.4,914.4,2546.5,3483.2,3477.1,716.7,953.4,1849.8,1246.2,1238.2,899.1,-1.0,-12.0,6.0,11019.0,-11959.0,1880.0,677.0,-8.0,-6.0,-13.0,1.0,-5.0,8.0,8720.0,-13595.0,2711.0,-457.0,-20.0,6.0,-3.0,1.0
2022-05-13 13:09:43.767650-07:00,1225.7,765.3,1071.2,990.2,1088.6,842.8,1823.6,1279.2,3473.4,3477.1,1154.2,884.8,1506.9,3478.3,1541.3,1383.0,3472.2,3477.1,604.4,796.9,1121.7,1465.4,914.4,2546.5,3483.2,3477.1,716.7,953.4,1849.8,1246.2,1238.2,899.1,-1.0,-12.0,6.0,11019.0,-11959.0,1880.0,677.0,-8.0,-6.0,-13.0,1.0,-5.0,8.0,8720.0,-13595.0,2711.0,-457.0,-20.0,6.0,-3.0,1.0
2022-05-13 13:09:43.945454-07:00,1223.9,763.7,1069.5,989.3,1083.4,843.6,1823.6,1290.9,3468.6,3480.7,1148.0,885.6,1507.8,3477.1,1545.9,1380.3,3483.2,3483.2,608.4,794.4,1116.5,1458.9,913.5,2545.4,3479.5,3483.2,708.5,944.1,1835.2,1235.5,1239.1,887.3,-4.0,-11.0,6.0,11018.0,-11960.0,1880.0,679.0,-14.0,-5.0,-6.0,2.0,-4.0,10.0,8716.0,-13598.0,2710.0,-455.0,-8.0,-10.0,-8.0,1.0
2022-05-13 13:09:43.946557-07:00,1222.2,765.3,1064.3,989.3,1082.5,843.6,1823.6,1290.9,3473.4,3469.8,1146.3,885.6,1499.5,3477.1,1545.9,1380.3,3483.2,3483.2,608.4,794.4,1116.5,1457.1,911.8,2544.4,3479.5,3483.2,708.5,952.6,1835.2,1230.2,1239.1,903.4,0.0,-10.0,10.0,11019.0,-11959.0,1880.0,679.0,23.0,7.0,4.0,4.0,-3.0,10.0,8719.0,-13597.0,2710.0,-455.0,20.0,-5.0,-1.0,1.0
2022-05-13 13:09:43.947667-07:00,1222.2,765.3,1064.3,979.9,1082.5,841.9,1814.9,1276.5,3473.4,3469.8,1146.3,881.4,1499.5,3477.1,1540.3,1381.2,3485.6,3475.9,607.6,794.4,1120.0,1457.1,911.8,2544.4,3481.9,3477.1,711.8,952.6,1839.1,1230.2,1239.1,903.4,-4.0,-9.0,8.0,11020.0,-11958.0,1883.0,675.0,-16.0,7.0,-4.0,-1.0,4.0,11.0,8717.0,-13598.0,2710.0,-455.0,-24.0,2.0,1.0,1.0
2022-05-13 13:09:44.047881-07:00,1216.8,756.3,1069.5,979.9,1084.2,841.9,1814.9,1276.5,3475.9,3469.8,1142.7,881.4,1508.8,3477.1,1540.3,1381.2,3485.6,3475.9,607.6,800.2,1120.0,1463.5,906.7,2545.4,3481.9,3477.1,711.8,949.2,1839.1,1235.5,1225.7,899.1,-1.0,-7.0,2.0,11023.0,-11956.0,1880.0,670.0,23.0,0.0,-20.0,0.0,-2.0,8.0,8714.0,-13599.0,2711.0,-457.0,-1.0,1.0,-3.0,1.0
2022-05-13 13:09:44.049685-07:00,1216.8,756.3,1069.5,988.5,1084.2,842.8,1802.3,1273.0,3475.9,3469.8,1142.7,889.8,1507.8,3472.2,1537.6,1383.0,3474.6,3475.9,612.5,792.7,1124.4,1463.5,906.7,2545.4,3484.4,3467.4,710.1,950.9,1841.1,1235.5,1225.7,899.1,-7.0,-12.0,4.0,11025.0,-11955.0,1877.0,666.0,-7.0,-3.0,0.0,2.0,-4.0,10.0,8717.0,-13598.0,2710.0,-455.0,9.0,-11.0,-2.0,1.0
2022-05-13 13:09:44.064402-07:00,1218.6,756.3,1069.5,991.0,1084.2,842.8,1802.3,1273.0,3478.3,3478.3,1147.1,885.6,1507.8,3472.2,1537.6,1383.0,3474.6,3475.9,612.5,792.7,1126.1,1467.2,912.7,2549.7,3484.4,3467.4,710.1,950.9,1842.0,1227.5,1231.0,905.9,-2.0,-2.0,10.0,11026.0,-11954.0,1878.0,666.0,17.0,5.0,3.0,1.0,-2.0,12.0,8722.0,-13595.0,2710.0,-456.0,8.0,-4.0,1.0,1.0
2022-05-13 13:09:44.108083-07:00,1218.6,756.3,1069.5,991.0,1082.5,851.1,1814.9,1271.2,3478.3,3478.3,1147.1,885.6,1507.8,3475.9,1539.4,1376.6,3477.1,3467.4,606.0,795.2,1126.1,1467.2,912.7,2549.7,3479.5,3467.4,708.5,948.3,1842.0,1227.5,1231.0,905.9,-4.0,-1.0,6.0,11026.0,-11954.0,1879.0,664.0,-11.0,-4.0,1.0,3.0,-3.0,12.0,8718.0,-13597.0,2711.0,-457.0,-28.0,21.0,9.0,1.0
2022-05-13 13:09:44.152515-07:00,1231.9,757.9,1074.7,986.7,1082.5,851.1,1814.9,1271.2,3478.3,3471.0,1141.9,885.6,1507.8,3475.9,1539.4,1376.6,3477.1,3467.4,606.0,795.2,1127.0,1464.4,914.4,2550.8,3479.5,3467.4,708.5,948.3,1849.8,1225.7,1223.9,906.7,4.0,-15.0,2.0,11022.0,-11958.0,1878.0,664.0,7.0,-2.0,-10.0,1.0,-4.0,9.0,8710.0,-13602.0,2714.0,-457.0,-3.0,3.0,-4.0,1.0
2022-05-13 13:09:44.242300-07:00,1231.9,757.9,1074.7,986.7,1079.0,841.1,1820.7,1294.5,3478.3,3471.0,1141.9,885.6,1507.8,3479.5,1538.5,1378.5,3479.5,3477.1,606.8,794.4,1127.0,1464.4,914.4,2550.8,3481.9,3478.3,699.5,947.5,1849.8,1225.7,1223.9,906.7,0.0,-1.0,8.0,11026.0,-11953.0,1881.0,662.0,0.0,-8.0,11.0,1.0,0.0,8.0,8714.0,-13599.0,2712.0,-456.0,6.0,-3.0,3.0,1.0
2022-05-13 13:09:44.289389-07:00,1225.7,765.3,1065.1,989.3,1079.0,841.1,1820.7,1294.5,3483.2,3473.4,1139.2,885.6,1507.8,3479.5,1538.5,1378.5,3479.5,3477.1,606.8,794.4,1124.4,1458.0,911.0,2543.3,3481.9,3478.3,699.5,947.5,1855.7,1237.3,1216.0,898.3,-3.0,-12.0,12.0,11023.0,-11956.0,1881.0,664.0,3.0,3.0,-6.0,1.0,-3.0,8.0,8715.0,-13599.0,2710.0,-453.0,5.0,-9.0,-2.0,1.0
2022-05-13 13:09:44.334011-07:00,1222.2,765.3,1065.1,989.3,1086.8,843.6,1811.0,1274.7,3467.4,3473.4,1139.2,885.6,1503.2,3467.4,1536.6,1379.4,3474.6,3480.7,604.4,799.4,1124.4,1458.0,911.0,2525.0,3479.5,3477.1,715.9,947.5,1855.7,1237.3,1216.0,901.7,-3.0,-4.0,2.0,11027.0,-11952.0,1882.0,663.0,-5.0,-2.0,1.0,1.0,-2.0,10.0,8715.0,-13599.0,2710.0,-453.0,-9.0,2.0,2.0,1.0
2022-05-13 13:09:44.335167-07:00,1222.2,762.0,1077.3,983.3,1086.8,843.6,1811.0,1281.9,3467.4,3478.3,1140.1,884.8,1503.2,3467.4,1536.6,1377.5,3483.2,3480.7,604.4,799.4,1121.7,1455.2,905.0,2525.0,3480.7,3477.1,715.9,947.5,1827.5,1234.6,1217.7,901.7,2.0,-7.0,4.0,11025.0,-11954.0,1882.0,663.0,7.0,-7.0,-9.0,0.0,-2.0,7.0,8715.0,-13599.0,2710.0,-453.0,7.0,-4.0,-4.0,1.0
2022-05-13 13:09:44.379246-07:00,1226.6,762.0,1077.3,983.3,1086.0,845.3,1814.9,1281.9,3467.4,3478.3,1140.1,884.8,1504.1,3474.6,1539.4,1377.5,3483.2,3467.4,608.4,794.4,1121.7,1455.2,905.0,2529.3,3480.7,3478.3,711.0,944.9,1827.5,1234.6,1217.7,896.6,-3.0,-3.0,9.0,11029.0,-11950.0,1885.0,663.0,11.0,5.0,12.0,1.0,0.0,12.0,8723.0,-13595.0,2707.0,-451.0,14.0,-8.0,3.0,1.0
2022-05-13 13:09:44.467316-07:00,1226.6,765.3,1072.9,991.0,1086.0,845.3,1814.9,1272.1,3467.4,3473.4,1144.5,890.7,1504.1,3474.6,1539.4,1376.6,3474.6,3467.4,608.4,794.4,1120.9,1463.5,905.0,2529.3,3469.8,3478.3,711.0,944.9,1833.3,1231.9,1216.8,896.6,-6.0,-12.0,8.0,11029.0,-11950.0,1887.0,663.0,-6.0,2.0,-6.0,0.0,-2.0,13.0,8721.0,-13596.0,2707.0,-449.0,-23.0,7.0,0.0,1.0
2022-05-13 13:09:44.512350-07:00,1214.2,765.3,1072.9,991.0,1077.3,836.1,1808.1,1272.1,3478.3,3473.4,1144.5,890.7,1507.8,3478.3,1538.5,1376.6,3474.6,3485.6,603.6,794.4,1120.9,1463.5,905.0,2542.2,3469.8,3478.3,712.6,944.9,1833.3,1231.9,1216.8,904.2,0.0,-8.0,1.0,11029.0,-11950.0,1886.0,662.0,3.0,-6.0,1.0,2.0,-3.0,7.0,8714.0,-13600.0,2708.0,-450.0,-13.0,10.0,2.0,1.0
2022-05-13 13:09:44.557283-07:00,1214.2,760.4,1072.9,985.0,1077.3,836.1,1802.3,1280.1,3478.3,3483.2,1142.7,887.3,1507.8,3478.3,1534.8,1373.0,3473.4,3477.1,603.6,794.4,1126.1,1464.4,906.7,2542.2,3479.5,3478.3,712.6,944.9,1841.1,1229.3,1216.8,904.2,-27.0,-171.0,124.0,11026.0,-11951.0,1901.0,664.0,27.0,77.0,96.0,-12.0,-5.0,-17.0,8727.0,-13592.0,2707.0,-445.0,122.0,-28.0,34.0,1.0
2022-05-13 13:09:44.603735-07:00,1217.7,765.3,1072.9,985.0,1082.5,858.7,1802.3,1280.1,3472.2,3469.8,1142.7,887.3,1506.0,3474.6,1534.8,1373.0,3473.4,3477.1,606.0,794.4,1126.1,1464.4,918.6,2542.2,3479.5,3478.3,713.4,958.5,1841.1,1229.3,1609.6,900.8,-30.0,332.0,-187.0,11029.0,-11905.0,2137.0,700.0,-82.0,-246.0,587.0,-23.0,110.0,53.0,8789.0,-13538.0,2779.0,-441.0,84.0,115.0,202.0,1.0
2022-05-13 13:09:44.737388-07:00,1217.7,765.3,1076.4,997.9,1082.5,858.7,1804.2,1264.0,3472.2,3469.8,1142.7,879.7,1506.0,3474.6,2155.5,1507.8,3479.5,3472.2,606.0,794.4,1125.2,1463.5,918.6,2542.2,3473.4,3481.9,713.4,958.5,1856.7,1503.2,1609.6,900.8,-95.0,-236.0,224.0,10724.0,-12168.0,2185.0,772.0,-461.0,774.0,-54.0,24.0,-97.0,73.0,8882.0,-13484.0,2757.0,-374.0,423.0,-527.0,-4.0,1.0
2022-05-13 13:09:44.784291-07:00,1215.1,761.2,1076.4,997.9,1079.9,909.3,1804.2,1264.0,3464.9,3467.4,1142.7,879.7,1509.7,3469.8,2155.5,1507.8,3479.5,3472.2,603.6,796.9,1125.2,1463.5,933.9,2618.8,3473.4,3481.9,769.5,1003.0,1856.7,1503.2,1526.4,905.9,-3.0,70.0,-102.0,10787.0,-12101.0,2263.0,729.0,165.0,-123.0,18.0,10.0,-52.0,35.0,9067.0,-13362.0,2748.0,-347.0,55.0,234.0,195.0,1.0
2022-05-13 13:09:44.785421-07:00,1215.1,761.2,1068.6,994.5,1079.9,909.3,1782.9,1259.6,3464.9,3467.4,1214.2,889.8,1509.7,3469.8,2038.4,1603.0,3472.2,3480.7,603.6,796.9,1118.2,1463.5,933.9,2618.8,3474.6,3484.4,769.5,1003.0,2082.6,1559.0,1526.4,905.9,55.0,2.0,36.0,10744.0,-12162.0,2125.0,754.0,-264.0,35.0,-240.0,-25.0,69.0,-9.0,9058.0,-13347.0,2849.0,-373.0,207.0,-173.0,-23.0,1.0
2022-05-13 13:09:44.829053-07:00,1201.8,899.1,1053.9,994.5,1076.4,945.8,1782.9,1259.6,3472.2,3469.8,1218.6,889.8,1531.0,3467.4,2038.4,1603.0,3472.2,3480.7,610.8,794.4,1118.2,1459.8,921.1,2823.5,3474.6,3484.4,828.5,1004.8,2082.6,1516.2,1470.0,897.4,9.0,-18.0,-16.0,10699.0,-12192.0,2192.0,725.0,-90.0,-20.0,35.0,-11.0,-23.0,-24.0,9172.0,-13285.0,2773.0,-349.0,283.0,-69.0,-47.0,1.0
2022-05-13 13:09:44.830229-07:00,1201.8,899.1,1053.9,985.9,1076.4,964.5,1761.8,1264.9,3472.2,3469.8,1218.6,894.1,1531.0,3462.5,2001.5,1597.4,3474.6,3473.4,621.4,794.4,1126.1,1459.8,921.1,2823.5,3480.7,3479.5,828.5,1004.8,2047.4,1516.2,1470.0,897.4,-28.0,0.0,52.0,10626.0,-12246.0,2246.0,715.0,-171.0,248.0,180.0,5.0,-20.0,74.0,9235.0,-13247.0,2747.0,-334.0,145.0,-90.0,-12.0,1.0
2022-05-13 13:09:44.918758-07:00,1207.1,889.0,1048.7,985.9,1070.3,964.5,1761.8,1264.9,3473.4,3472.2,1194.7,894.1,1543.1,3462.5,2001.5,1597.4,3474.6,3473.4,621.4,799.4,1126.1,1462.6,911.8,2767.9,3480.7,3479.5,828.5,995.3,2047.4,1509.7,1444.2,905.0,21.0,-6.0,45.0,10560.0,-12287.0,2331.0,717.0,-249.0,102.0,51.0,3.0,-12.0,3.0,9264.0,-13228.0,2743.0,-338.0,-81.0,37.0,-2.0,1.0
2022-05-13 13:09:44.962400-07:00,1207.1,889.0,1048.7,994.5,1070.3,951.7,1733.9,1258.7,3473.4,3472.2,1194.7,899.1,1543.1,3468.6,1994.5,1582.4,3479.5,3477.1,614.1,799.4,1122.6,1462.6,911.8,2767.9,3475.9,3475.9,819.4,995.3,2010.4,1509.7,1444.2,905.0,4.0,-11.0,18.0,10491.0,-12340.0,2364.0,710.0,-180.0,57.0,44.0,2.0,-15.0,11.0,9210.0,-13261.0,2764.0,-357.0,-209.0,118.0,8.0,1.0
2022-05-13 13:09:45.009275-07:00,1199.1,863.7,1055.6,994.5,1073.8,951.7,1733.9,1258.7,3467.4,3469.8,1177.9,899.1,1532.0,3468.6,1994.5,1582.4,3479.5,3477.1,614.1,796.9,1122.6,1471.8,915.2,2728.2,3475.9,3475.9,819.4,991.0,2010.4,1515.3,1452.5,903.4,16.0,-29.0,4.0,10445.0,-12380.0,2358.0,724.0,-116.0,-60.0,-20.0,-2.0,-4.0,-2.0,9118.0,-13314.0,2807.0,-385.0,-198.0,105.0,22.0,1.0
2022-05-13 13:09:45.054469-07:00,1199.1,863.7,1055.6,985.0,1073.8,938.1,1741.6,1254.2,3467.4,3469.8,1177.9,887.3,1532.0,3464.9,1976.6,1579.6,3480.7,3467.4,613.3,796.9,1126.1,1471.8,915.2,2728.2,3484.4,3472.2,816.0,991.0,1997.5,1515.3,1452.5,903.4,-10.0,3.0,-9.0,10447.0,-12378.0,2356.0,730.0,23.0,-16.0,20.0,0.0,-5.0,10.0,9088.0,-13332.0,2818.0,-397.0,21.0,2.0,-25.0,1.0
2022-05-13 13:09:45.097260-07:00,1197.4,863.7,1053.0,978.2,1066.9,938.1,1741.6,1254.2,3483.2,3472.2,1174.4,878.9,1527.3,3464.9,1976.6,1579.6,3480.7,3467.4,613.3,794.4,1126.1,1470.0,911.8,2704.0,3484.4,3472.2,816.0,984.2,1986.6,1502.3,1450.6,905.0,10.0,-24.0,24.0,10461.0,-12371.0,2324.0,747.0,86.0,-77.0,-47.0,0.0,-3.0,8.0,9103.0,-13326.0,2796.0,-395.0,62.0,-67.0,-43.0,1.0
2022-05-13 13:09:45.141961-07:00,1197.4,863.7,1053.0,978.2,1072.9,937.3,1727.2,1253.3,3483.2,3472.2,1174.4,878.9,1529.2,3467.4,1971.7,1566.5,3477.1,3464.9,610.0,799.4,1126.1,1470.0,911.8,2704.0,3472.2,3485.6,811.9,981.6,1986.6,1502.3,1450.6,905.0,9.0,5.0,13.0,10524.0,-12323.0,2297.0,752.0,158.0,-90.0,-38.0,0.0,2.0,11.0,9152.0,-13298.0,2772.0,-403.0,132.0,3.0,-26.0,1.0
2022-05-13 13:09:45.186685-07:00,1216.8,850.3,1046.1,987.6,1072.9,937.3,1727.2,1253.3,3469.8,3473.4,1174.4,881.4,1529.2,3467.4,1971.7,1566.5,3477.1,3464.9,610.0,799.4,1137.5,1466.3,910.1,2689.7,3472.2,3485.6,811.9,981.6,1982.6,1493.0,1427.7,897.4,2.0,-11.0,22.0,10547.0,-12310.0,2254.0,757.0,11.0,-68.0,-69.0,3.0,-6.0,19.0,9178.0,-13283.0,2755.0,-407.0,32.0,-45.0,-39.0,1.0
2022-05-13 13:09:45.232252-07:00,1216.8,850.3,1046.1,987.6,1090.3,934.7,1727.2,1238.2,3469.8,3473.4,1174.4,881.4,1532.9,3472.2,1961.8,1564.6,3477.1,3481.9,614.1,798.5,1137.5,1466.3,910.1,2689.7,3478.3,3480.7,806.0,975.6,1982.6,1493.0,1427.7,897.4,4.0,-1.0,11.0,10577.0,-12293.0,2207.0,759.0,64.0,-105.0,-66.0,-2.0,0.0,6.0,9179.0,-13284.0,2749.0,-415.0,-31.0,51.0,-1.0,1.0
2022-05-13 13:09:45.369361-07:00,1183.2,857.0,1055.6,983.3,1090.3,934.7,1727.2,1238.2,3472.2,3477.1,1163.8,881.4,1532.9,3472.2,1961.8,1564.6,3477.1,3481.9,614.1,798.5,1120.9,1455.2,907.6,2662.4,3478.3,3480.7,806.0,975.6,1971.7,1494.0,1430.5,914.4,-1.0,-24.0,8.0,10598.0,-12282.0,2164.0,764.0,31.0,-57.0,-63.0,0.0,-7.0,9.0,9167.0,-13292.0,2748.0,-421.0,-20.0,5.0,-24.0,1.0
2022-05-13 13:09:45.371423-07:00,1192.9,857.0,1055.6,983.3,1079.9,939.8,1717.7,1240.8,3478.3,3477.1,1163.8,881.4,1532.0,3474.6,1954.8,1565.5,3478.3,3479.5,615.7,798.5,1120.9,1455.2,907.6,2660.2,3467.4,3469.8,805.2,980.7,1971.7,1494.0,1430.5,900.8,6.0,-9.0,17.0,10608.0,-12281.0,2121.0,776.0,-24.0,-95.0,-45.0,1.0,-3.0,8.0,9160.0,-13296.0,2748.0,-425.0,-20.0,-1.0,-14.0,1.0
2022-05-13 13:09:45.460621-07:00,1192.9,851.1,1053.0,982.5,1079.9,939.8,1717.7,1250.6,3478.3,3477.1,1162.1,879.7,1532.0,3474.6,1954.8,1564.6,3488.0,3479.5,615.7,798.5,1125.2,1461.7,903.4,2660.2,3479.5,3469.8,805.2,980.7,1972.7,1475.5,1434.1,900.8,4.0,-15.0,19.0,10618.0,-12277.0,2090.0,783.0,32.0,-39.0,-37.0,1.0,-3.0,10.0,9168.0,-13294.0,2735.0,-427.0,34.0,-11.0,-26.0,1.0
2022-05-13 13:09:45.503741-07:00,1191.2,851.1,1053.0,982.5,1084.2,930.5,1724.4,1250.6,3471.0,3477.1,1162.1,879.7,1529.2,3472.2,1959.8,1564.6,3488.0,3477.1,621.4,791.0,1125.2,1461.7,903.4,2653.7,3479.5,3479.5,805.2,962.8,1972.7,1475.5,1434.1,901.7,3.0,-10.0,19.0,10633.0,-12266.0,2075.0,781.0,10.0,-11.0,-6.0,4.0,-1.0,14.0,9176.0,-13290.0,2727.0,-430.0,3.0,-1.0,-12.0,1.0
2022-05-13 13:09:45.505620-07:00,1191.2,854.5,1048.7,991.0,1084.2,930.5,1724.4,1250.6,3471.0,3474.6,1153.3,878.0,1529.2,3472.2,1959.8,1563.7,3481.9,3477.1,621.4,791.0,1119.1,1455.2,906.7,2653.7,3477.1,3479.5,805.2,962.8,1967.7,1473.6,1420.4,901.7,3.0,-12.0,7.0,10630.0,-12270.0,2070.0,786.0,-40.0,-23.0,-5.0,1.0,-1.0,10.0,9164.0,-13297.0,2731.0,-435.0,-53.0,23.0,8.0,1.0
2022-05-13 13:09:45.547431-07:00,1195.6,854.5,1048.7,991.0,1080.8,924.5,1715.8,1250.6,3471.0,3474.6,1153.3,878.0,1530.1,3471.0,1949.9,1563.7,3481.9,3483.2,612.5,804.4,1119.1,1455.2,906.7,2643.9,3477.1,3478.3,799.4,966.2,1967.7,1473.6,1420.4,901.7,-1.0,-10.0,2.0,10628.0,-12272.0,2061.0,791.0,16.0,6.0,1.0,2.0,-9.0,10.0,9156.0,-13302.0,2734.0,-434.0,16.0,-15.0,-2.0,1.0
2022-05-13 13:09:45.637392-07:00,1195.6,852.0,1045.2,978.2,1080.8,924.5,1710.0,1238.2,3471.0,3471.0,1155.0,871.3,1530.1,3471.0,1946.9,1559.9,3475.9,3474.6,612.5,804.4,1121.7,1460.8,910.1,2643.9,3483.2,3475.9,799.4,966.2,1966.7,1470.9,1418.6,901.7,0.0,-5.0,13.0,10627.0,-12273.0,2058.0,795.0,-24.0,-18.0,-2.0,-1.0,0.0,13.0,9162.0,-13299.0,2730.0,-430.0,7.0,-21.0,0.0,1.0
2022-05-13 13:09:45.683177-07:00,1183.2,851.1,1045.2,978.2,1076.4,927.9,1710.0,1238.2,3471.0,3471.0,1155.0,871.3,1525.5,3475.9,1946.9,1559.9,3475.9,3474.6,621.4,800.2,1121.7,1460.8,909.3,2631.9,3483.2,3475.9,804.4,967.9,1966.7,1470.9,1412.2,896.6,-2.0,-7.0,11.0,10630.0,-12271.0,2053.0,801.0,1.0,-18.0,3.0,1.0,-2.0,9.0,9169.0,-13295.0,2725.0,-425.0,-3.0,-11.0,-3.0,1.0
2022-05-13 13:09:45.684980-07:00,1183.2,851.1,1050.4,1004.8,1076.4,927.9,1710.0,1239.9,3471.0,3471.0,1152.4,880.6,1525.5,3475.9,1946.9,1548.7,3481.9,3486.8,621.4,800.2,1115.6,1463.5,909.3,2631.9,3474.6,3483.2,804.4,967.9,1938.0,1462.6,1412.2,896.6,8.0,-21.0,18.0,10625.0,-12276.0,2045.0,810.0,-23.0,-27.0,-4.0,1.0,-5.0,4.0,9166.0,-13297.0,2725.0,-425.0,-3.0,-5.0,4.0,1.0
2022-05-13 13:09:45.729325-07:00,1184.1,851.1,1050.4,1004.8,1074.7,925.4,1710.0,1239.9,3469.8,3472.2,1152.4,880.6,1522.7,3478.3,1946.9,1548.7,3481.9,3486.8,609.2,796.9,1115.6,1463.5,901.7,2626.5,3474.6,3483.2,801.0,966.2,1938.0,1462.6,1420.4,904.2,1.0,-3.0,11.0,10625.0,-12276.0,2043.0,817.0,-32.0,-13.0,9.0,0.0,-1.0,7.0,9165.0,-13298.0,2727.0,-424.0,-17.0,-8.0,7.0,1.0
2022-05-13 13:09:45.774280-07:00,1184.1,851.1,1053.9,979.9,1074.7,925.4,1711.0,1253.3,3469.8,3472.2,1147.1,871.3,1522.7,3478.3,1937.1,1551.5,3471.0,3474.6,609.2,796.9,1116.5,1462.6,901.7,2626.5,3483.2,3478.3,801.0,966.2,1947.9,1470.9,1420.4,904.2,0.0,-5.0,4.0,10621.0,-12280.0,2036.0,824.0,-7.0,-32.0,-4.0,0.0,-4.0,9.0,9158.0,-13302.0,2727.0,-423.0,-28.0,9.0,8.0,1.0
2022-05-13 13:09:45.864028-07:00,1197.4,846.1,1053.9,979.9,1077.3,926.2,1711.0,1253.3,3478.3,3469.8,1147.1,871.3,1530.1,3474.6,1937.1,1551.5,3471.0,3474.6,618.1,798.5,1116.5,1462.6,899.1,2623.2,3483.2,3478.3,801.9,964.5,1947.9,1470.9,1416.7,905.9,3.0,-13.0,11.0,10627.0,-12277.0,2021.0,834.0,31.0,-37.0,-2.0,0.0,0.0,6.0,9155.0,-13304.0,2730.0,-420.0,5.0,-9.0,11.0,1.0
2022-05-13 13:09:45.909571-07:00,1197.4,846.1,1044.4,978.2,1077.3,919.4,1709.1,1244.4,3478.3,3469.8,1148.9,879.7,1530.1,3480.7,1932.1,1547.8,3473.4,3477.1,614.9,798.5,1120.9,1466.3,899.1,2623.2,3483.2,3479.5,800.2,964.5,1949.9,1465.4,1416.7,905.9,1.0,-7.0,15.0,10636.0,-12269.0,2015.0,846.0,1.0,-37.0,7.0,1.0,-1.0,12.0,9158.0,-13302.0,2731.0,-412.0,-6.0,-10.0,12.0,1.0
2022-05-13 13:09:45.952310-07:00,1182.3,847.0,1052.2,978.2,1081.6,919.4,1709.1,1244.4,3467.4,3471.0,1151.5,879.7,1528.3,3480.7,1932.1,1547.8,3473.4,3477.1,614.9,798.5,1120.9,1459.8,905.0,2618.8,3483.2,3479.5,800.2,962.8,1949.9,1470.9,1414.9,900.8,1.0,-8.0,10.0,10645.0,-12262.0,2004.0,856.0,14.0,-29.0,0.0,3.0,-3.0,11.0,9157.0,-13303.0,2730.0,-411.0,-21.0,-12.0,-4.0,1.0
2022-05-13 13:09:45.997345-07:00,1182.3,847.0,1052.2,989.3,1081.6,922.8,1712.9,1248.8,3467.4,3471.0,1151.5,882.3,1528.3,3475.9,1926.2,1542.2,3478.3,3478.3,607.6,798.5,1121.7,1459.8,905.0,2618.8,3477.1,3469.8,801.9,962.8,1948.9,1470.9,1414.9,900.8,2.0,-20.0,19.0,10648.0,-12260.0,1996.0,864.0,-7.0,-20.0,1.0,-1.0,-2.0,7.0,9152.0,-13306.0,2730.0,-409.0,-10.0,0.0,8.0,1.0
2022-05-13 13:09:46.042327-07:00,1178.8,851.1,1049.6,989.3,1074.7,922.8,1712.9,1248.8,3473.4,3467.4,1150.6,882.3,1524.5,3475.9,1926.2,1542.2,3478.3,3478.3,607.6,798.5,1121.7,1461.7,907.6,2621.0,3477.1,3469.8,801.9,967.1,1948.9,1456.2,1405.8,897.4,-5.0,-34.0,12.0,10658.0,-12252.0,1996.0,863.0,20.0,-5.0,5.0,1.0,-6.0,14.0,9149.0,-13307.0,2735.0,-412.0,-13.0,31.0,11.0,1.0
2022-05-13 13:09:46.087321-07:00,1178.8,851.1,1049.6,979.0,1074.7,911.8,1700.5,1239.9,3473.4,3467.4,1150.6,873.0,1524.5,3469.8,1919.3,1544.1,3478.3,3472.2,618.1,798.5,1114.7,1461.7,907.6,2621.0,3480.7,3474.6,794.4,967.1,1931.1,1456.2,1405.8,897.4,-2.0,-13.0,8.0,10682.0,-12231.0,1998.0,862.0,22.0,8.0,-1.0,-1.0,0.0,11.0,9152.0,-13304.0,2741.0,-417.0,6.0,-14.0,-6.0,1.0
2022-05-13 13:09:46.132271-07:00,1189.4,847.8,1044.4,979.9,1073.8,911.8,1700.5,1239.9,3471.0,3471.0,1151.5,871.3,1521.8,3469.8,1919.3,1544.1,3478.3,3472.2,618.1,805.2,1122.6,1458.9,899.1,2623.2,3480.7,3474.6,794.4,964.5,1944.0,1452.5,1417.6,898.3,2.0,-4.0,14.0,10687.0,-12226.0,1998.0,862.0,21.0,9.0,9.0,4.0,-3.0,11.0,9154.0,-13302.0,2741.0,-417.0,4.0,2.0,3.0,1.0
2022-05-13 13:09:46.179339-07:00,1189.4,847.8,1044.4,979.9,1075.6,923.7,1701.4,1236.4,3471.0,3471.0,1151.5,871.3,1522.7,3467.4,1931.1,1552.5,3488.0,3474.6,607.6,811.9,1122.6,1458.9,899.1,2623.2,3475.9,3477.1,797.7,959.4,1944.0,1452.5,1417.6,898.3,0.0,-3.0,11.0,10693.0,-12221.0,2001.0,858.0,14.0,7.0,2.0,0.0,0.0,16.0,9153.0,-13303.0,2741.0,-418.0,-23.0,19.0,9.0,1.0
2022-05-13 13:09:46.267966-07:00,1178.8,848.6,1044.4,994.5,1075.6,923.7,1701.4,1236.4,3467.4,3478.3,1143.6,878.9,1522.7,3467.4,1931.1,1552.5,3488.0,3474.6,607.6,811.9,1114.7,1460.8,896.6,2604.8,3475.9,3477.1,797.7,959.4,1944.0,1450.6,1405.8,898.3,3.0,-9.0,13.0,10693.0,-12221.0,2000.0,859.0,-6.0,-3.0,1.0,-1.0,-4.0,11.0,9143.0,-13309.0,2745.0,-420.0,-29.0,13.0,7.0,1.0
2022-05-13 13:09:46.270183-07:00,1178.8,848.6,1044.4,994.5,1077.3,908.4,1703.3,1237.3,3467.4,3478.3,1143.6,878.9,1526.4,3471.0,1911.5,1538.5,3483.2,3466.1,615.7,799.4,1114.7,1460.8,896.6,2604.8,3475.9,3475.9,793.5,962.0,1944.0,1450.6,1405.8,898.3,0.0,-9.0,9.0,10694.0,-12220.0,2000.0,858.0,-7.0,-7.0,1.0,-2.0,-7.0,11.0,9132.0,-13317.0,2747.0,-420.0,-25.0,3.0,2.0,1.0
2022-05-13 13:09:46.357305-07:00,1179.7,841.9,1052.2,985.9,1077.3,908.4,1703.3,1237.3,3472.2,3477.1,1155.9,881.4,1526.4,3471.0,1911.5,1538.5,3483.2,3466.1,615.7,799.4,1119.1,1460.8,898.3,2605.8,3475.9,3475.9,793.5,962.0,1946.9,1462.6,1405.8,898.3,2.0,-4.0,7.0,10695.0,-12220.0,1996.0,863.0,-13.0,-19.0,4.0,2.0,0.0,7.0,9124.0,-13322.0,2747.0,-419.0,-20.0,-3.0,0.0,1.0
2022-05-13 13:09:46.448169-07:00,1179.7,841.9,1052.2,985.9,1077.3,922.8,1702.4,1238.2,3472.2,3477.1,1155.9,881.4,1525.5,3473.4,1922.3,1542.2,3477.1,3477.1,613.3,793.5,1119.1,1460.8,898.3,2605.8,3478.3,3472.2,798.5,960.2,1946.9,1462.6,1405.8,898.3,0.0,-4.0,10.0,10695.0,-12221.0,1989.0,869.0,21.0,-13.0,2.0,2.0,-1.0,13.0,9120.0,-13324.0,2747.0,-418.0,7.0,-4.0,3.0,1.0
2022-05-13 13:09:46.493399-07:00,1185.9,839.4,1049.6,979.0,1077.3,922.8,1702.4,1240.8,3469.8,3478.3,1142.7,873.0,1525.5,3473.4,1922.3,1545.0,3474.6,3477.1,613.3,793.5,1116.5,1457.1,895.7,2598.3,3473.4,3472.2,798.5,960.2,1942.0,1453.4,1404.9,902.5,1.0,-10.0,13.0,10700.0,-12217.0,1982.0,871.0,-2.0,-16.0,-14.0,-2.0,-3.0,10.0,9118.0,-13326.0,2747.0,-418.0,-17.0,4.0,-1.0,1.0
2022-05-13 13:09:46.495460-07:00,1177.9,839.4,1049.6,979.0,1073.8,921.1,1701.4,1240.8,3469.8,3478.3,1142.7,873.0,1523.6,3466.1,1918.3,1545.0,3474.6,3488.0,619.7,798.5,1116.5,1457.1,895.7,2600.4,3473.4,3481.9,792.7,953.4,1942.0,1453.4,1404.9,914.4,2.0,-11.0,16.0,10701.0,-12216.0,1979.0,871.0,12.0,3.0,1.0,-1.0,-6.0,11.0,9110.0,-13331.0,2748.0,-417.0,-27.0,7.0,5.0,1.0
2022-05-13 13:09:46.586217-07:00,1177.9,837.7,1047.0,979.9,1073.8,921.1,1701.4,1238.2,3469.8,3471.0,1150.6,874.7,1523.6,3466.1,1918.3,1548.7,3485.6,3488.0,619.7,798.5,1120.9,1460.8,900.0,2600.4,3480.7,3481.9,792.7,953.4,1935.1,1449.7,1410.3,914.4,0.0,-3.0,8.0,10702.0,-12216.0,1978.0,871.0,1.0,2.0,-11.0,1.0,0.0,13.0,9099.0,-13338.0,2750.0,-417.0,-37.0,19.0,6.0,1.0
2022-05-13 13:09:46.587466-07:00,1170.9,837.7,1047.0,979.9,1081.6,911.8,1702.4,1238.2,3473.4,3471.0,1150.6,874.7,1516.2,3489.2,1907.5,1548.7,3485.6,3467.4,613.3,794.4,1120.9,1460.8,900.0,2596.1,3480.7,3484.4,794.4,950.9,1935.1,1449.7,1410.3,894.1,-2.0,-12.0,3.0,10702.0,-12216.0,1978.0,867.0,3.0,11.0,4.0,-1.0,0.0,12.0,9089.0,-13344.0,2752.0,-417.0,-22.0,8.0,1.0,1.0
2022-05-13 13:09:46.626541-07:00,1170.9,841.1,1045.2,986.7,1081.6,911.8,1702.4,1230.2,3473.4,3473.4,1143.6,867.9,1516.2,3489.2,1907.5,1543.1,3490.5,3467.4,613.3,794.4,1120.0,1458.0,902.5,2596.1,3474.6,3484.4,794.4,950.9,1944.0,1449.7,1400.3,894.1,2.0,-3.0,16.0,10697.0,-12220.0,1981.0,865.0,-13.0,15.0,5.0,0.0,-1.0,11.0,9083.0,-13349.0,2752.0,-416.0,-10.0,-1.0,-5.0,1.0
2022-05-13 13:09:46.672699-07:00,1185.9,836.1,1045.2,986.7,1080.8,921.1,1694.8,1230.2,3472.2,3475.9,1143.6,867.9,1522.7,3466.1,1907.5,1543.1,3490.5,3475.9,616.5,796.9,1120.0,1458.0,895.7,2591.8,3474.6,3473.4,800.2,954.3,1944.0,1449.7,1403.0,898.3,-1.0,-10.0,12.0,10697.0,-12220.0,1981.0,861.0,3.0,-5.0,-13.0,0.0,-4.0,8.0,9077.0,-13352.0,2754.0,-417.0,-23.0,10.0,2.0,1.0
2022-05-13 13:09:46.718628-07:00,1185.9,836.1,1041.8,981.6,1080.8,921.1,1699.5,1239.1,3472.2,3475.9,1144.5,874.7,1522.7,3466.1,1912.4,1545.0,3488.0,3467.4,616.5,796.9,1119.1,1463.5,895.7,2591.8,3474.6,3481.9,800.2,954.3,1943.0,1449.7,1403.0,898.3,2.0,-4.0,9.0,10697.0,-12220.0,1981.0,861.0,-1.0,-5.0,-4.0,-2.0,0.0,11.0,9071.0,-13356.0,2755.0,-417.0,-10.0,1.0,1.0,1.0
2022-05-13 13:09:46.807378-07:00,1182.3,837.7,1041.8,981.6,1079.9,910.1,1699.5,1239.1,3469.8,3472.2,1144.5,874.7,1523.6,3474.6,1912.4,1545.0,3488.0,3467.4,614.1,789.4,1119.1,1463.5,891.5,2591.8,3474.6,3481.9,795.2,956.8,1943.0,1449.7,1396.7,905.9,1.0,-6.0,8.0,10698.0,-12221.0,1974.0,862.0,1.0,-14.0,-13.0,-3.0,-2.0,9.0,9071.0,-13356.0,2755.0,-417.0,-5.0,-9.0,-4.0,1.0
2022-05-13 13:09:46.851742-07:00,1182.3,837.7,1047.8,988.5,1079.9,910.1,1698.6,1242.6,3469.8,3472.2,1141.0,873.0,1523.6,3474.6,1900.7,1534.8,3483.2,3477.1,614.1,789.4,1120.9,1461.7,891.5,2591.8,3481.9,3481.9,795.2,956.8,1934.1,1444.2,1396.7,905.9,4.0,-6.0,12.0,10699.0,-12220.0,1966.0,868.0,-2.0,-22.0,-2.0,-2.0,-2.0,8.0,9071.0,-13356.0,2754.0,-416.0,4.0,-8.0,0.0,1.0
2022-05-13 13:09:46.896721-07:00,1181.5,836.9,1047.8,988.5,1070.3,915.2,1698.6,1242.6,3471.0,3471.0,1141.0,873.0,1523.6,3472.2,1900.7,1534.8,3483.2,3477.1,618.9,793.5,1120.9,1461.7,896.6,2577.7,3481.9,3481.9,797.7,950.9,1934.1,1444.2,1398.5,894.9,0.0,-2.0,16.0,10702.0,-12218.0,1966.0,869.0,12.0,-6.0,4.0,0.0,-1.0,15.0,9078.0,-13352.0,2751.0,-414.0,9.0,-3.0,2.0,1.0
2022-05-13 13:09:46.942345-07:00,1181.5,836.9,1041.8,982.5,1070.3,911.0,1698.6,1220.4,3471.0,3471.0,1145.4,871.3,1523.6,3472.2,1912.4,1531.0,3473.4,3483.2,610.8,793.5,1116.5,1459.8,896.6,2577.7,3479.5,3484.4,790.2,950.9,1936.1,1442.4,1398.5,894.9,0.0,-9.0,19.0,10702.0,-12218.0,1965.0,868.0,3.0,5.0,-7.0,-2.0,-3.0,13.0,9070.0,-13358.0,2753.0,-414.0,-32.0,15.0,4.0,1.0
2022-05-13 13:09:47.033274-07:00,1185.9,841.1,1052.2,982.5,1072.1,911.0,1698.6,1220.4,3472.2,3472.2,1146.3,871.3,1526.4,3472.2,1912.4,1531.0,3473.4,3483.2,610.8,796.0,1116.5,1459.8,889.8,2588.5,3479.5,3484.4,790.2,951.7,1936.1,1447.9,1400.3,898.3,2.0,-12.0,12.0,10701.0,-12218.0,1970.0,863.0,6.0,21.0,-1.0,-2.0,-1.0,11.0,9057.0,-13365.0,2758.0,-418.0,-25.0,22.0,8.0,1.0
2022-05-13 13:09:47.256919-07:00,1185.9,841.1,1052.2,979.0,1072.1,909.3,1694.8,1243.5,3472.2,3472.2,1146.3,874.7,1526.4,3478.3,1898.7,1531.0,3477.1,3469.8,611.7,796.0,1123.5,1459.8,889.8,2588.5,3480.7,3479.5,794.4,951.7,1925.2,1447.9,1400.3,898.3,-1.0,-5.0,12.0,10701.0,-12219.0,1975.0,857.0,4.0,15.0,3.0,-3.0,-2.0,8.0,9048.0,-13370.0,2761.0,-421.0,-24.0,11.0,0.0,1.0
2022-05-13 13:09:47.258959-07:00,1182.3,841.1,1052.2,979.0,1069.5,909.3,1694.8,1243.5,3477.1,3471.0,1146.3,874.7,1516.2,3478.3,1898.7,1531.0,3477.1,3469.8,611.7,794.4,1123.5,1460.8,894.9,2588.5,3480.7,3479.5,794.4,951.7,1925.2,1442.4,1399.4,899.1,0.0,-7.0,15.0,10699.0,-12219.0,1987.0,851.0,0.0,35.0,25.0,0.0,0.0,11.0,9044.0,-13373.0,2761.0,-421.0,-12.0,13.0,1.0,1.0
2022-05-13 13:09:47.261692-07:00,1182.3,841.1,1052.2,985.9,1069.5,914.4,1695.7,1240.8,3477.1,3471.0,1146.3,880.6,1516.2,3474.6,1897.7,1546.9,3477.1,3469.8,604.4,794.4,1118.2,1460.8,894.9,2588.5,3483.2,3472.2,791.9,951.7,1931.1,1442.4,1399.4,899.1,3.0,0.0,10.0,10699.0,-12216.0,2001.0,846.0,25.0,10.0,3.0,-4.0,4.0,12.0,9037.0,-13377.0,2766.0,-422.0,-18.0,16.0,10.0,1.0
2022-05-13 13:09:47.262989-07:00,1184.1,821.0,1053.0,985.9,1075.6,914.4,1695.7,1240.8,3480.7,3477.1,1147.1,880.6,1529.2,3474.6,1897.7,1546.9,3477.1,3469.8,604.4,795.2,1118.2,1458.0,892.4,2585.3,3483.2,3472.2,791.9,956.8,1931.1,1447.9,1395.7,906.7,-4.0,-13.0,3.0,10706.0,-12210.0,2003.0,839.0,33.0,-8.0,-16.0,-4.0,-3.0,12.0,9030.0,-13381.0,2767.0,-422.0,-16.0,16.0,5.0,1.0
2022-05-13 13:09:47.302578-07:00,1184.1,821.0,1053.0,991.0,1061.7,912.7,1690.0,1238.2,3480.7,3477.1,1147.1,867.9,1523.6,3473.4,1893.8,1543.1,3478.3,3473.4,610.0,796.9,1128.7,1458.0,892.4,2585.3,3474.6,3478.3,786.9,954.3,1935.1,1447.9,1395.7,906.7,0.0,-10.0,7.0,10709.0,-12210.0,1988.0,844.0,-15.0,-46.0,-17.0,0.0,-1.0,11.0,9028.0,-13383.0,2767.0,-421.0,0.0,-15.0,-4.0,1.0
2022-05-13 13:09:47.439712-07:00,1176.2,828.5,1047.8,985.0,1061.7,912.7,1690.0,1238.2,3474.6,3478.3,1143.6,875.5,1523.6,3473.4,1893.8,1543.1,3478.3,3473.4,610.0,796.9,1123.5,1455.2,891.5,2576.6,3474.6,3478.3,786.9,954.3,1921.3,1440.5,1396.7,895.7,-4.0,-2.0,10.0,10716.0,-12205.0,1979.0,853.0,24.0,-32.0,3.0,0.0,-2.0,13.0,9041.0,-13375.0,2763.0,-418.0,28.0,-9.0,2.0,1.0
2022-05-13 13:09:47.442400-07:00,1176.2,828.5,1047.8,985.0,1074.7,914.4,1703.3,1246.2,3474.6,3478.3,1143.6,875.5,1522.7,3466.1,1894.8,1535.7,3483.2,3474.6,606.0,796.0,1123.5,1455.2,891.5,2576.6,3474.6,3483.2,786.9,949.2,1921.3,1440.5,1396.7,895.7,2.0,-8.0,21.0,10721.0,-12201.0,1971.0,860.0,8.0,-17.0,-8.0,0.0,-4.0,15.0,9045.0,-13373.0,2760.0,-415.0,3.0,-3.0,-1.0,1.0
2022-05-13 13:09:47.443601-07:00,1181.5,831.1,1041.8,982.5,1074.7,914.4,1703.3,1246.2,3475.9,3477.1,1153.3,873.8,1522.7,3466.1,1894.8,1535.7,3483.2,3474.6,606.0,796.0,1118.2,1458.0,891.5,2576.6,3474.6,3483.2,786.9,949.2,1932.1,1435.0,1404.0,902.5,0.0,-3.0,13.0,10727.0,-12196.0,1970.0,861.0,-3.0,-5.0,-6.0,0.0,-2.0,10.0,9040.0,-13376.0,2762.0,-417.0,-30.0,14.0,7.0,1.0
2022-05-13 13:09:47.573649-07:00,1181.5,831.1,1041.8,982.5,1073.8,917.7,1691.9,1239.1,3475.9,3477.1,1153.3,873.8,1514.3,3467.4,1904.6,1537.6,3475.9,3479.5,604.4,795.2,1118.2,1458.0,891.5,2576.6,3471.0,3483.2,797.7,951.7,1932.1,1435.0,1404.0,902.5,14.0,-19.0,34.0,10732.0,-12192.0,1971.0,855.0,27.0,45.0,22.0,-1.0,1.0,8.0,9038.0,-13377.0,2760.0,-415.0,35.0,-27.0,-14.0,1.0
2022-05-13 13:09:47.576462-07:00,1172.6,830.2,1045.2,987.6,1073.8,917.7,1691.9,1234.6,3473.4,3475.9,1140.1,877.2,1514.3,3467.4,1904.6,1533.8,3472.2,3479.5,604.4,795.2,1120.0,1463.5,888.2,2568.0,3479.5,3483.2,797.7,951.7,1937.1,1447.0,1391.2,905.9,17.0,-79.0,45.0,10753.0,-12155.0,2107.0,787.0,242.0,515.0,187.0,15.0,-46.0,-28.0,9119.0,-13331.0,2725.0,-395.0,305.0,-124.0,12.0,1.0
2022-05-13 13:09:47.577682-07:00,1201.8,830.2,1045.2,987.6,1073.8,911.8,1703.3,1234.6,3478.3,3475.9,1140.1,877.2,1526.4,3475.9,1907.5,1533.8,3472.2,3478.3,614.1,793.5,1120.0,1463.5,888.2,2568.0,3479.5,3473.4,786.1,956.8,1937.1,1447.0,1391.2,898.3,2.0,62.0,21.0,10790.0,-12093.0,2296.0,700.0,210.0,339.0,132.0,-7.0,18.0,36.0,9134.0,-13316.0,2744.0,-395.0,-140.0,54.0,32.0,1.0
2022-05-13 13:09:47.578933-07:00,1201.8,836.9,1044.4,984.2,1073.8,911.8,1703.3,1254.2,3478.3,3467.4,1144.5,873.0,1526.4,3475.9,1907.5,1539.4,3479.5,3478.3,614.1,793.5,1130.5,1456.2,899.1,2568.0,3478.3,3473.4,786.1,956.8,2119.9,1448.8,1416.7,898.3,-15.0,3.0,-4.0,10863.0,-12017.0,2378.0,606.0,190.0,168.0,-25.0,-6.0,-6.0,13.0,9033.0,-13378.0,2776.0,-414.0,-334.0,126.0,-4.0,1.0
2022-05-13 13:09:47.619261-07:00,1186.7,836.9,1044.4,984.2,1087.7,918.6,1710.0,1254.2,3466.1,3467.4,1144.5,873.0,1517.1,3475.9,1957.8,1539.4,3479.5,3488.0,609.2,794.4,1130.5,1456.2,899.1,2582.0,3478.3,3479.5,783.6,949.2,2119.9,1448.8,1416.7,902.5,27.0,-99.0,20.0,10883.0,-11984.0,2468.0,554.0,182.0,371.0,241.0,0.0,-24.0,-8.0,8949.0,-13430.0,2796.0,-416.0,-75.0,4.0,29.0,1.0
2022-05-13 13:09:47.664407-07:00,1186.7,825.2,1050.4,976.5,1087.7,918.6,1710.0,1261.3,3466.1,3469.8,1145.4,880.6,1517.1,3475.9,1957.8,1506.0,3478.3,3488.0,609.2,794.4,1130.5,1468.1,891.5,2582.0,3478.3,3479.5,783.6,949.2,2090.6,1455.2,1522.7,902.5,-23.0,35.0,-46.0,10916.0,-11899.0,2723.0,518.0,167.0,377.0,418.0,-5.0,5.0,25.0,8958.0,-13417.0,2826.0,-414.0,7.0,44.0,64.0,1.0
2022-05-13 13:09:47.754577-07:00,1197.4,825.2,1050.4,976.5,1079.9,915.2,1744.5,1261.3,3471.0,3469.8,1145.4,880.6,1518.0,3477.1,1983.6,1506.0,3478.3,3478.3,610.8,796.0,1130.5,1468.1,891.5,2630.8,3478.3,3481.9,786.9,967.9,2090.6,1455.2,1522.7,900.0,1.0,34.0,-14.0,10858.0,-11923.0,2843.0,553.0,-281.0,79.0,147.0,-9.0,0.0,7.0,8942.0,-13430.0,2820.0,-400.0,-66.0,-82.0,-47.0,1.0
2022-05-13 13:09:47.797466-07:00,1197.4,821.9,1057.3,985.0,1079.9,915.2,1792.6,1304.3,3471.0,3475.9,1145.4,870.5,1518.0,3477.1,1816.8,1472.7,3483.2,3478.3,610.8,796.0,1120.0,1458.9,891.5,2630.8,3474.6,3472.2,786.9,967.9,2067.5,1503.2,1729.1,900.0,-27.0,-5.0,5.0,10841.0,-11935.0,2844.0,603.0,122.0,-239.0,55.0,5.0,0.0,29.0,8916.0,-13453.0,2793.0,-385.0,-127.0,16.0,-40.0,1.0
2022-05-13 13:09:47.844359-07:00,1215.1,811.9,1057.3,985.0,1086.8,921.1,1792.6,1304.3,3473.4,3473.4,1145.4,870.5,1511.5,3460.1,1816.8,1472.7,3483.2,3478.3,606.8,798.5,1120.0,1458.9,897.4,2683.2,3474.6,3472.2,766.2,974.8,2067.5,1503.2,1481.0,911.0,32.0,1.0,31.0,10828.0,-11975.0,2705.0,689.0,-423.0,-248.0,-248.0,0.0,-2.0,-10.0,8865.0,-13491.0,2774.0,-392.0,-167.0,-85.0,-119.0,1.0
2022-05-13 13:09:47.887390-07:00,1215.1,811.9,1049.6,987.6,1086.8,921.1,1824.6,1300.7,3473.4,3473.4,1139.2,870.5,1511.5,3460.1,1691.9,1432.3,3474.6,3471.0,606.8,798.5,1111.2,1460.8,897.4,2683.2,3479.5,3479.5,766.2,974.8,2041.4,1357.6,1481.0,911.0,-3.0,11.0,4.0,10801.0,-12039.0,2528.0,677.0,45.0,-313.0,-412.0,0.0,-2.0,18.0,8838.0,-13519.0,2722.0,-389.0,-69.0,8.0,-83.0,1.0
2022-05-13 13:09:47.932365-07:00,1224.8,805.2,1049.6,987.6,1077.3,915.2,1824.6,1300.7,3477.1,3473.4,1139.2,870.5,1512.5,3467.4,1691.9,1432.3,3474.6,3471.0,610.8,793.5,1111.2,1460.8,896.6,2702.9,3479.5,3479.5,748.8,1008.2,2041.4,1357.6,1379.4,894.9,15.0,-12.0,25.0,10850.0,-12049.0,2260.0,646.0,77.0,-307.0,-548.0,-4.0,-1.0,1.0,8827.0,-13535.0,2677.0,-400.0,61.0,-89.0,-138.0,1.0
2022-05-13 13:09:47.978117-07:00,1224.8,805.2,1056.5,984.2,1077.3,915.2,1836.2,1296.3,3477.1,3473.4,1133.1,877.2,1512.5,3467.4,1616.2,1404.9,3466.1,3478.3,610.8,793.5,1129.6,1460.8,896.6,2702.9,3473.4,3473.4,748.8,1008.2,2026.4,1304.3,1379.4,894.9,-38.0,-6.0,16.0,10911.0,-12036.0,2045.0,582.0,67.0,-311.0,-412.0,3.0,-1.0,31.0,8839.0,-13536.0,2629.0,-410.0,-117.0,67.0,-39.0,1.0
2022-05-13 13:09:48.022305-07:00,1231.9,805.2,1041.8,984.2,1080.8,897.4,1836.2,1296.3,3474.6,3479.5,1133.1,877.2,1513.4,3478.3,1616.2,1404.9,3466.1,3478.3,606.0,797.7,1129.6,1460.8,891.5,2653.7,3473.4,3473.4,738.1,997.9,2026.4,1277.4,1334.1,894.9,19.0,-86.0,28.0,10921.0,-12053.0,1882.0,592.0,-18.0,-97.0,-120.0,-2.0,-30.0,-7.0,8803.0,-13563.0,2611.0,-418.0,51.0,-104.0,-67.0,1.0
2022-05-13 13:09:48.069313-07:00,1231.9,805.2,1041.8,985.9,1080.8,878.0,1812.9,1281.0,3474.6,3479.5,1133.1,870.5,1513.4,3479.5,1592.7,1395.7,3468.6,3484.4,610.0,797.7,1119.1,1460.8,891.5,2653.7,3478.3,3477.1,734.8,997.9,2007.4,1277.4,1334.1,894.9,-9.0,1.0,23.0,10954.0,-12018.0,1912.0,602.0,107.0,47.0,149.0,3.0,-2.0,20.0,8833.0,-13545.0,2604.0,-415.0,-5.0,54.0,58.0,1.0
2022-05-13 13:09:48.114220-07:00,1225.7,798.5,1056.5,985.9,1078.2,878.0,1812.9,1281.0,3469.8,3468.6,1130.5,870.5,1519.0,3479.5,1592.7,1395.7,3468.6,3484.4,610.0,796.9,1119.1,1458.0,886.5,2666.8,3478.3,3477.1,734.8,989.3,2007.4,1268.5,1307.9,899.1,-4.0,20.0,5.0,10950.0,-12014.0,1956.0,612.0,-41.0,47.0,41.0,-3.0,0.0,12.0,8800.0,-13558.0,2643.0,-423.0,-163.0,91.0,38.0,1.0
2022-05-13 13:09:48.202474-07:00,1225.7,798.5,1056.5,979.9,1078.2,881.4,1811.9,1281.0,3469.8,3468.6,1130.5,874.7,1519.0,3483.2,1573.9,1393.9,3474.6,3478.3,608.4,796.9,1120.0,1458.0,886.5,2666.8,3486.8,3475.9,725.8,989.3,1991.5,1268.5,1307.9,899.1,-6.0,-23.0,8.0,10942.0,-12019.0,1975.0,596.0,-5.0,59.0,20.0,-3.0,-9.0,2.0,8742.0,-13590.0,2673.0,-433.0,-112.0,55.0,22.0,1.0
2022-05-13 13:09:48.247376-07:00,1221.3,802.7,1056.5,979.9,1077.3,881.4,1811.9,1281.0,3478.3,3477.1,1131.4,874.7,1513.4,3483.2,1573.9,1393.9,3474.6,3478.3,608.4,796.9,1120.0,1460.8,883.9,2671.1,3486.8,3475.9,725.8,979.0,1991.5,1265.8,1306.1,901.7,-3.0,-28.0,7.0,10937.0,-12015.0,2024.0,599.0,2.0,96.0,137.0,-2.0,-8.0,4.0,8717.0,-13603.0,2688.0,-435.0,4.0,-6.0,15.0,1.0
2022-05-13 13:09:48.292567-07:00,1221.3,802.7,1056.5,979.9,1077.3,869.6,1791.6,1267.6,3478.3,3477.1,1131.4,878.0,1513.4,3478.3,1564.6,1382.1,3475.9,3473.4,604.4,796.9,1127.9,1460.8,883.9,2671.1,3480.7,3466.1,726.6,979.0,1978.6,1265.8,1306.1,901.7,-5.0,9.0,4.0,10940.0,-12000.0,2093.0,611.0,22.0,61.0,113.0,0.0,0.0,17.0,8731.0,-13593.0,2692.0,-432.0,49.0,-10.0,6.0,1.0
2022-05-13 13:09:48.383256-07:00,1224.8,793.5,1063.4,987.6,1067.7,869.6,1791.6,1267.6,3489.2,3475.9,1118.2,878.0,1509.7,3478.3,1564.6,1382.1,3475.9,3473.4,604.4,798.5,1121.7,1457.1,883.9,2648.2,3480.7,3466.1,726.6,976.5,1977.6,1250.6,1286.4,891.5,4.0,8.0,8.0,10932.0,-12006.0,2099.0,613.0,-37.0,-18.0,-46.0,-2.0,0.0,12.0,8736.0,-13590.0,2689.0,-431.0,-32.0,6.0,-13.0,1.0
2022-05-13 13:09:48.386358-07:00,1224.8,793.5,1063.4,987.6,1073.8,871.3,1793.6,1273.9,3489.2,3475.9,1118.2,878.0,1504.1,3469.8,1559.9,1378.5,3479.5,3472.2,606.0,791.9,1121.7,1457.1,883.9,2648.2,3484.4,3473.4,723.3,967.9,1977.6,1250.6,1286.4,891.5,-2.0,-18.0,9.0,10934.0,-12007.0,2083.0,601.0,3.0,3.0,-15.0,-2.0,-6.0,5.0,8728.0,-13597.0,2682.0,-434.0,-14.0,10.0,-13.0,1.0
2022-05-13 13:09:48.426820-07:00,1218.6,790.2,1064.3,985.9,1073.8,871.3,1793.6,1273.9,3471.0,3471.0,1131.4,870.5,1504.1,3469.8,1559.9,1378.5,3479.5,3472.2,606.0,791.9,1117.4,1455.2,883.9,2638.4,3484.4,3473.4,723.3,967.9,1974.6,1245.3,1277.4,896.6,0.0,-7.0,14.0,10932.0,-12009.0,2086.0,601.0,4.0,23.0,7.0,-2.0,-4.0,11.0,8726.0,-13598.0,2683.0,-435.0,-9.0,10.0,7.0,1.0
2022-05-13 13:09:48.574309-07:00,1218.6,790.2,1064.3,985.9,1069.5,867.1,1787.8,1290.9,3471.0,3471.0,1131.4,870.5,1503.2,3467.4,1561.8,1379.4,3471.0,3479.5,609.2,791.0,1117.4,1455.2,883.9,2638.4,3483.2,3478.3,716.7,973.1,1974.6,1245.3,1277.4,896.6,-1.0,1.0,4.0,10938.0,-12006.0,2076.0,594.0,-23.0,-24.0,-45.0,-3.0,-1.0,3.0,8716.0,-13603.0,2689.0,-443.0,-48.0,23.0,-12.0,1.0
2022-05-13 13:09:48.575472-07:00,1221.3,784.4,1052.2,983.3,1069.5,867.1,1787.8,1290.9,3471.0,3475.9,1132.2,870.5,1503.2,3467.4,1561.8,1379.4,3471.0,3479.5,609.2,791.0,1120.0,1460.8,883.9,2643.9,3483.2,3478.3,716.7,973.1,1967.7,1249.7,1272.1,900.0,-2.0,-24.0,11.0,10933.0,-12011.0,2071.0,592.0,2.0,6.0,19.0,0.0,-7.0,4.0,8706.0,-13610.0,2686.0,-444.0,-11.0,9.0,1.0,1.0
2022-05-13 13:09:48.699506-07:00,1221.3,784.4,1052.2,983.3,1079.0,857.9,1788.7,1274.7,3467.4,3475.9,1132.2,870.5,1509.7,3473.4,1547.8,1378.5,3483.2,3475.9,605.2,791.9,1120.0,1460.8,883.9,2635.1,3478.3,3475.9,716.7,968.8,1967.7,1249.7,1272.1,895.7,0.0,6.0,10.0,10933.0,-12011.0,2073.0,594.0,-11.0,-14.0,-12.0,-3.0,1.0,10.0,8705.0,-13610.0,2687.0,-445.0,-17.0,14.0,-2.0,1.0
2022-05-13 13:09:48.700746-07:00,1221.3,787.7,1055.6,987.6,1079.0,857.9,1788.7,1266.7,3467.4,3475.9,1128.7,872.1,1509.7,3473.4,1547.8,1367.6,3477.1,3475.9,605.2,791.9,1121.7,1463.5,878.0,2635.1,3472.2,3475.9,716.7,968.8,1959.8,1244.4,1264.0,895.7,-6.0,-22.0,12.0,10931.0,-12014.0,2064.0,595.0,-11.0,-14.0,-2.0,0.0,-4.0,8.0,8698.0,-13615.0,2685.0,-446.0,-12.0,-1.0,-6.0,1.0
2022-05-13 13:09:48.703047-07:00,1221.3,787.7,1055.6,987.6,1075.6,869.6,1784.9,1266.7,3473.4,3475.9,1128.7,872.1,1506.0,3472.2,1548.7,1367.6,3477.1,3483.2,605.2,798.5,1121.7,1463.5,878.0,2617.8,3472.2,3478.3,718.4,967.9,1959.8,1244.4,1264.0,900.8,-2.0,1.0,11.0,10932.0,-12013.0,2062.0,595.0,3.0,0.0,-16.0,-1.0,0.0,7.0,8697.0,-13616.0,2684.0,-445.0,-10.0,7.0,-3.0,1.0
2022-05-13 13:09:48.742237-07:00,1221.3,789.4,1054.8,993.6,1075.6,869.6,1784.9,1275.6,3473.4,3473.4,1121.7,876.4,1506.0,3472.2,1548.7,1371.2,3475.9,3483.2,605.2,798.5,1118.2,1455.2,881.4,2617.8,3472.2,3478.3,718.4,967.9,1956.8,1241.7,1258.7,900.8,-7.0,-10.0,11.0,10931.0,-12015.0,2056.0,591.0,-24.0,-4.0,-10.0,-1.0,-4.0,8.0,8693.0,-13619.0,2685.0,-444.0,-26.0,5.0,-4.0,1.0
2022-05-13 13:09:48.924261-07:00,1209.7,789.4,1054.8,993.6,1082.5,866.3,1786.8,1275.6,3483.2,3473.4,1121.7,876.4,1506.9,3478.3,1548.7,1371.2,3475.9,3478.3,604.4,794.4,1118.2,1455.2,881.4,2630.8,3472.2,3484.4,722.5,975.6,1956.8,1241.7,1258.7,901.7,-6.0,-10.0,13.0,10928.0,-12017.0,2058.0,592.0,-1.0,7.0,9.0,0.0,-3.0,11.0,8686.0,-13623.0,2685.0,-444.0,-15.0,13.0,5.0,1.0
2022-05-13 13:09:48.925892-07:00,1209.7,796.0,1053.9,978.2,1082.5,866.3,1786.8,1269.4,3483.2,3475.9,1129.6,869.6,1506.9,3478.3,1548.7,1371.2,3477.1,3478.3,604.4,794.4,1121.7,1463.5,878.0,2630.8,3477.1,3484.4,722.5,975.6,1947.9,1236.4,1258.7,901.7,-1.0,-5.0,9.0,10926.0,-12020.0,2056.0,591.0,-10.0,4.0,-11.0,0.0,-1.0,11.0,8678.0,-13627.0,2687.0,-445.0,-28.0,5.0,-3.0,1.0
2022-05-13 13:09:48.927054-07:00,1209.7,791.9,1053.9,978.2,1077.3,865.4,1773.3,1269.4,3472.2,3477.1,1129.6,869.6,1505.1,3471.0,1536.6,1371.2,3477.1,3484.4,605.2,792.7,1121.7,1463.5,876.4,2598.3,3477.1,3477.1,719.2,970.5,1947.9,1236.4,1250.6,900.0,-7.0,-10.0,10.0,10926.0,-12021.0,2052.0,589.0,-1.0,4.0,-11.0,0.0,-2.0,10.0,8675.0,-13629.0,2688.0,-445.0,-6.0,2.0,-6.0,1.0
2022-05-13 13:09:48.928172-07:00,1209.7,791.9,1058.2,991.0,1077.3,865.4,1771.4,1273.0,3472.2,3477.1,1125.2,871.3,1505.1,3471.0,1532.9,1368.5,3471.0,3479.5,605.2,792.7,1127.0,1461.7,876.4,2598.3,3479.5,3479.5,719.2,970.5,1952.9,1237.3,1250.6,900.0,-2.0,-7.0,11.0,10927.0,-12020.0,2050.0,589.0,6.0,3.0,-10.0,1.0,-2.0,7.0,8676.0,-13629.0,2688.0,-446.0,9.0,-8.0,-9.0,1.0
2022-05-13 13:09:49.013265-07:00,1211.5,787.7,1058.2,991.0,1072.9,861.2,1771.4,1273.0,3469.8,3478.3,1125.2,871.3,1504.1,3468.6,1532.9,1368.5,3471.0,3479.5,610.0,794.4,1127.0,1461.7,874.7,2603.7,3479.5,3479.5,715.1,963.7,1952.9,1237.3,1248.0,897.4,-3.0,-8.0,12.0,10928.0,-12019.0,2048.0,588.0,-7.0,-9.0,-11.0,0.0,0.0,8.0,8675.0,-13629.0,2688.0,-446.0,-13.0,4.0,-2.0,1.0
2022-05-13 13:09:49.056911-07:00,1211.5,787.7,1050.4,985.0,1072.9,861.2,1771.4,1269.4,3469.8,3478.3,1127.0,872.1,1504.1,3468.6,1549.7,1373.0,3469.8,3474.6,610.0,794.4,1120.9,1455.2,874.7,2603.7,3479.5,3481.9,715.1,963.7,1947.9,1235.5,1248.0,897.4,-1.0,-6.0,7.0,10929.0,-12019.0,2047.0,588.0,-1.0,-6.0,-6.0,0.0,-3.0,8.0,8675.0,-13629.0,2688.0,-446.0,0.0,2.0,0.0,1.0
2022-05-13 13:09:49.058251-07:00,1211.5,786.9,1050.4,985.0,1066.0,857.0,1771.4,1269.4,3463.7,3467.4,1127.0,872.1,1502.3,3467.4,1549.7,1373.0,3469.8,3474.6,611.7,793.5,1120.9,1455.2,874.7,2588.5,3479.5,3481.9,719.2,973.9,1947.9,1235.5,1245.3,902.5,-2.0,-9.0,13.0,10930.0,-12018.0,2047.0,588.0,7.0,0.0,-9.0,0.0,-4.0,7.0,8677.0,-13628.0,2687.0,-445.0,13.0,-1.0,-5.0,1.0
2022-05-13 13:09:49.193519-07:00,1211.5,786.9,1053.0,979.9,1066.0,858.7,1756.0,1273.9,3463.7,3467.4,1117.4,873.0,1502.3,3479.5,1532.0,1362.1,3467.4,3468.6,611.7,793.5,1124.4,1463.5,874.7,2588.5,3481.9,3472.2,714.2,973.9,1944.0,1239.1,1245.3,902.5,0.0,-3.0,9.0,10932.0,-12017.0,2047.0,588.0,-3.0,-1.0,-6.0,1.0,0.0,10.0,8675.0,-13629.0,2688.0,-446.0,-23.0,5.0,2.0,1.0
2022-05-13 13:09:49.195402-07:00,1213.3,791.0,1054.8,979.9,1077.3,858.7,1756.0,1273.9,3475.9,3469.8,1123.5,873.0,1511.5,3479.5,1532.0,1362.1,3467.4,3468.6,611.7,797.7,1124.4,1460.8,868.8,2603.7,3481.9,3472.2,714.2,967.9,1944.0,1228.4,1240.8,903.4,-2.0,-11.0,9.0,10931.0,-12019.0,2040.0,590.0,-11.0,-17.0,-17.0,0.0,-3.0,5.0,8665.0,-13636.0,2689.0,-445.0,-17.0,2.0,-4.0,1.0
2022-05-13 13:09:49.236974-07:00,1213.3,791.0,1054.8,984.2,1077.3,859.5,1776.2,1271.2,3475.9,3469.8,1123.5,867.9,1511.5,3472.2,1529.2,1360.3,3477.1,3468.6,610.8,797.7,1118.2,1460.8,868.8,2603.7,3480.7,3469.8,719.2,967.9,1940.0,1228.4,1240.8,903.4,1.0,-10.0,10.0,10933.0,-12018.0,2034.0,594.0,2.0,-7.0,-2.0,0.0,-2.0,7.0,8668.0,-13634.0,2687.0,-443.0,18.0,-18.0,-6.0,1.0
2022-05-13 13:09:49.328449-07:00,1208.0,785.2,1054.8,984.2,1076.4,859.5,1776.2,1271.2,3469.8,3471.0,1126.1,867.9,1507.8,3472.2,1529.2,1360.3,3477.1,3468.6,610.8,794.4,1118.2,1471.8,873.8,2605.8,3480.7,3469.8,719.2,962.0,1940.0,1229.3,1239.1,895.7,-5.0,-10.0,14.0,10935.0,-12015.0,2033.0,595.0,8.0,-1.0,6.0,2.0,0.0,12.0,8676.0,-13629.0,2685.0,-441.0,16.0,-7.0,-1.0,1.0
2022-05-13 13:09:49.373873-07:00,1208.0,785.2,1054.8,987.6,1076.4,857.9,1772.3,1274.7,3469.8,3471.0,1126.1,874.7,1507.8,3471.0,1520.8,1361.2,3477.1,3479.5,612.5,794.4,1120.9,1471.8,873.8,2605.8,3473.4,3478.3,711.8,962.0,1941.0,1229.3,1239.1,895.7,-2.0,1.0,11.0,10935.0,-12015.0,2033.0,594.0,9.0,6.0,0.0,1.0,0.0,10.0,8677.0,-13629.0,2685.0,-441.0,-4.0,6.0,1.0,1.0
2022-05-13 13:09:49.375248-07:00,1212.4,786.9,1052.2,983.3,1074.7,857.9,1772.3,1274.7,3479.5,3467.4,1125.2,871.3,1505.1,3471.0,1520.8,1361.2,3477.1,3479.5,612.5,798.5,1122.6,1458.9,872.1,2592.9,3473.4,3478.3,711.8,967.9,1932.1,1223.9,1241.7,902.5,-3.0,-12.0,8.0,10933.0,-12017.0,2034.0,594.0,-18.0,4.0,-2.0,0.0,-4.0,8.0,8672.0,-13632.0,2685.0,-440.0,-12.0,2.0,1.0,1.0
2022-05-13 13:09:49.417279-07:00,1212.4,786.9,1052.2,983.3,1079.0,856.2,1771.4,1262.2,3479.5,3467.4,1125.2,871.3,1499.5,3467.4,1528.3,1366.6,3479.5,3478.3,608.4,790.2,1122.6,1458.9,872.1,2592.9,3477.1,3478.3,719.2,956.0,1932.1,1223.9,1241.7,902.5,-3.0,-8.0,10.0,10932.0,-12018.0,2033.0,595.0,3.0,-10.0,-1.0,1.0,-4.0,9.0,8671.0,-13632.0,2685.0,-440.0,8.0,-8.0,0.0,1.0
2022-05-13 13:09:49.509075-07:00,1215.1,783.6,1049.6,975.6,1079.0,856.2,1771.4,1262.2,3466.1,3478.3,1120.9,877.2,1499.5,3467.4,1528.3,1366.6,3479.5,3478.3,608.4,790.2,1123.5,1461.7,870.5,2592.9,3477.1,3478.3,719.2,956.0,1927.2,1218.6,1235.5,912.7,-8.0,-16.0,11.0,10935.0,-12016.0,2031.0,596.0,23.0,-9.0,3.0,0.0,-3.0,10.0,8676.0,-13630.0,2681.0,-435.0,28.0,-13.0,-4.0,1.0
2022-05-13 13:09:49.510291-07:00,1215.1,783.6,1049.6,975.6,1069.5,852.8,1760.8,1264.0,3466.1,3478.3,1120.9,877.2,1506.0,3466.1,1521.8,1363.0,3480.7,3477.1,601.2,800.2,1123.5,1461.7,870.5,2592.9,3478.3,3478.3,711.0,968.8,1927.2,1218.6,1235.5,912.7,-4.0,-4.0,9.0,10938.0,-12013.0,2029.0,598.0,-1.0,-13.0,-7.0,3.0,-3.0,13.0,8683.0,-13627.0,2679.0,-433.0,-1.0,-7.0,-1.0,1.0
2022-05-13 13:09:49.596760-07:00,1208.0,783.6,1051.3,987.6,1069.5,852.8,1760.8,1264.0,3467.4,3472.2,1120.0,874.7,1506.0,3466.1,1521.8,1363.0,3480.7,3477.1,601.2,800.2,1141.0,1458.9,872.1,2578.8,3478.3,3478.3,711.0,968.8,1931.1,1229.3,1231.9,898.3,-7.0,-4.0,7.0,10944.0,-12007.0,2031.0,596.0,23.0,4.0,9.0,3.0,-2.0,13.0,8687.0,-13624.0,2678.0,-433.0,8.0,6.0,6.0,1.0
2022-05-13 13:09:49.642984-07:00,1208.0,783.6,1051.3,987.6,1075.6,851.1,1767.5,1265.8,3467.4,3472.2,1120.0,874.7,1503.2,3477.1,1524.5,1368.5,3477.1,3488.0,603.6,791.9,1141.0,1458.9,872.1,2578.8,3479.5,3485.6,712.6,962.8,1931.1,1229.3,1231.9,898.3,-2.0,-8.0,9.0,10942.0,-12010.0,2027.0,598.0,-4.0,-17.0,-13.0,1.0,-3.0,7.0,8682.0,-13627.0,2680.0,-432.0,-15.0,0.0,0.0,1.0
2022-05-13 13:09:49.687700-07:00,1203.5,781.1,1059.1,985.0,1075.6,851.1,1767.5,1266.7,3474.6,3473.4,1120.9,874.7,1503.2,3477.1,1524.5,1360.3,3481.9,3488.0,603.6,791.9,1120.9,1461.7,875.5,2591.8,3480.7,3485.6,712.6,962.8,1932.1,1210.6,1225.7,900.8,-2.0,-17.0,12.0,10948.0,-12005.0,2026.0,601.0,20.0,4.0,14.0,2.0,-5.0,9.0,8684.0,-13626.0,2679.0,-431.0,31.0,-18.0,0.0,1.0
2022-05-13 13:09:49.733777-07:00,1212.4,781.1,1059.1,985.0,1071.2,854.5,1766.6,1266.7,3472.2,3473.4,1120.9,874.7,1498.6,3477.1,1521.8,1360.3,3481.9,3472.2,605.2,791.0,1120.9,1461.7,875.5,2586.4,3480.7,3479.5,711.0,962.0,1932.1,1210.6,1225.7,896.6,-7.0,5.0,5.0,10948.0,-12004.0,2029.0,606.0,1.0,-14.0,3.0,0.0,0.0,14.0,8691.0,-13622.0,2675.0,-427.0,-2.0,-8.0,3.0,1.0
2022-05-13 13:09:49.822026-07:00,1212.4,777.8,1056.5,984.2,1071.2,854.5,1766.6,1267.6,3472.2,3466.1,1122.6,872.1,1498.6,3477.1,1521.8,1364.8,3477.1,3472.2,605.2,791.0,1119.1,1461.7,867.9,2586.4,3477.1,3479.5,711.0,962.0,1948.9,1225.7,1239.1,896.6,0.0,-3.0,11.0,10953.0,-11999.0,2027.0,605.0,26.0,2.0,-4.0,0.0,-3.0,11.0,8694.0,-13620.0,2675.0,-428.0,6.0,1.0,1.0,1.0
2022-05-13 13:09:49.823638-07:00,1204.4,777.8,1056.5,984.2,1069.5,854.5,1760.8,1267.6,3469.8,3466.1,1122.6,872.1,1497.7,3478.3,1520.8,1364.8,3477.1,3477.1,601.2,794.4,1119.1,1461.7,867.9,2585.3,3477.1,3478.3,706.9,962.0,1948.9,1225.7,1239.1,898.3,-1.0,-15.0,13.0,10953.0,-11999.0,2032.0,605.0,8.0,7.0,14.0,1.0,-3.0,12.0,8696.0,-13619.0,2675.0,-427.0,11.0,3.0,10.0,1.0
2022-05-13 13:09:49.867227-07:00,1204.4,781.1,1054.8,983.3,1069.5,854.5,1760.8,1274.7,3469.8,3474.6,1117.4,875.5,1497.7,3478.3,1520.8,1362.1,3473.4,3477.1,601.2,794.4,1110.4,1458.0,873.0,2585.3,3488.0,3478.3,706.9,962.0,1922.3,1209.7,1226.6,898.3,0.0,-10.0,9.0,10963.0,-11989.0,2034.0,603.0,27.0,11.0,-9.0,0.0,-7.0,7.0,8702.0,-13615.0,2676.0,-428.0,29.0,-10.0,0.0,1.0
2022-05-13 13:09:49.914082-07:00,1207.1,780.3,1054.8,983.3,1081.6,851.1,1757.0,1274.7,3464.9,3477.1,1117.4,875.5,1495.8,3471.0,1521.8,1362.1,3473.4,3477.1,605.2,792.7,1110.4,1458.0,871.3,2566.9,3488.0,3480.7,705.2,966.2,1922.3,1209.7,1224.8,898.3,2.0,-7.0,14.0,10976.0,-11977.0,2044.0,594.0,55.0,27.0,13.0,0.0,-2.0,11.0,8713.0,-13608.0,2675.0,-427.0,15.0,5.0,6.0,1.0
2022-05-13 13:09:49.959246-07:00,1207.1,780.3,1052.2,978.2,1081.6,851.1,1762.7,1265.8,3464.9,3477.1,1124.4,873.8,1495.8,3471.0,1518.0,1364.8,3467.4,3474.6,605.2,792.7,1122.6,1466.3,871.3,2566.9,3471.0,3480.7,705.2,966.2,1918.3,1223.0,1224.8,898.3,-2.0,-5.0,7.0,10979.0,-11975.0,2042.0,583.0,21.0,-7.0,-43.0,-5.0,0.0,10.0,8711.0,-13609.0,2676.0,-429.0,-24.0,4.0,-10.0,1.0
2022-05-13 13:09:50.050472-07:00,1200.9,783.6,1052.2,978.2,1072.9,857.9,1762.7,1265.8,3466.1,3472.2,1124.4,873.8,1502.3,3474.6,1518.0,1364.8,3467.4,3474.6,606.0,793.5,1122.6,1466.3,878.9,2565.9,3471.0,3480.7,704.4,956.8,1918.3,1223.0,1219.5,897.4,-6.0,-26.0,12.0,10985.0,-11970.0,2039.0,573.0,12.0,32.0,14.0,-1.0,-7.0,9.0,8711.0,-13610.0,2674.0,-429.0,11.0,-1.0,8.0,1.0
2022-05-13 13:09:50.092433-07:00,1200.9,783.6,1047.0,978.2,1072.9,857.9,1765.6,1274.7,3466.1,3472.2,1116.5,873.0,1502.3,3474.6,1520.8,1360.3,3477.1,3478.3,606.0,793.5,1118.2,1467.2,878.9,2565.9,3471.0,3488.0,704.4,956.8,1913.4,1224.8,1219.5,897.4,0.0,8.0,6.0,10983.0,-11970.0,2049.0,578.0,-11.0,2.0,5.0,0.0,0.0,14.0,8709.0,-13610.0,2679.0,-428.0,-23.0,11.0,8.0,1.0
2022-05-13 13:09:50.183868-07:00,1212.4,781.9,1047.0,978.2,1072.9,841.1,1765.6,1274.7,3473.4,3474.6,1116.5,873.0,1498.6,3473.4,1520.8,1360.3,3477.1,3478.3,609.2,792.7,1118.2,1467.2,873.8,2565.9,3471.0,3488.0,708.5,957.7,1913.4,1224.8,1221.3,893.2,-4.0,-22.0,11.0,10981.0,-11974.0,2041.0,574.0,1.0,6.0,-16.0,0.0,-8.0,10.0,8697.0,-13617.0,2679.0,-428.0,-15.0,2.0,-9.0,1.0
2022-05-13 13:09:50.185233-07:00,1212.4,781.9,1053.0,987.6,1072.9,841.1,1751.2,1269.4,3473.4,3474.6,1118.2,873.0,1498.6,3473.4,1517.1,1361.2,3481.9,3481.9,609.2,792.7,1120.0,1466.3,873.8,2565.9,3475.9,3484.4,708.5,957.7,1919.3,1213.3,1221.3,893.2,2.0,1.0,5.0,10979.0,-11974.0,2042.0,576.0,-15.0,-5.0,4.0,1.0,0.0,11.0,8696.0,-13618.0,2682.0,-429.0,-7.0,6.0,6.0,1.0
2022-05-13 13:09:50.228615-07:00,1206.2,786.9,1058.2,987.6,1070.3,847.8,1751.2,1269.4,3462.5,3477.1,1116.5,873.0,1501.4,3472.2,1517.1,1361.2,3481.9,3481.9,606.0,793.5,1120.0,1461.7,871.3,2579.9,3475.9,3484.4,705.2,957.7,1919.3,1220.4,1213.3,907.6,1.0,-6.0,6.0,10982.0,-11973.0,2034.0,574.0,13.0,-13.0,-18.0,0.0,-4.0,9.0,8696.0,-13618.0,2680.0,-429.0,1.0,-12.0,-13.0,1.0
2022-05-13 13:09:50.274584-07:00,1206.2,786.9,1058.2,990.2,1070.3,848.6,1753.1,1267.6,3462.5,3477.1,1116.5,879.7,1501.4,3467.4,1516.2,1359.4,3472.2,3468.6,606.8,793.5,1125.2,1461.7,871.3,2579.9,3467.4,3480.7,712.6,957.7,1905.6,1220.4,1213.3,907.6,-1.0,-11.0,17.0,10979.0,-11976.0,2035.0,577.0,-6.0,13.0,20.0,1.0,-5.0,15.0,8700.0,-13616.0,2675.0,-427.0,21.0,-16.0,2.0,1.0
2022-05-13 13:09:50.361958-07:00,1200.0,782.7,1053.0,990.2,1076.4,848.6,1753.1,1267.6,3467.4,3478.3,1121.7,879.7,1502.3,3467.4,1516.2,1359.4,3472.2,3468.6,606.8,793.5,1125.2,1457.1,869.6,2565.9,3467.4,3480.7,712.6,954.3,1905.6,1215.1,1211.5,894.9,-1.0,6.0,8.0,10981.0,-11974.0,2035.0,575.0,-5.0,-4.0,-20.0,1.0,0.0,12.0,8697.0,-13618.0,2677.0,-429.0,-31.0,20.0,0.0,1.0
2022-05-13 13:09:50.363790-07:00,1200.0,782.7,1053.0,991.9,1076.4,848.6,1761.8,1269.4,3467.4,3478.3,1121.7,878.9,1502.3,3478.3,1511.5,1361.2,3478.3,3478.3,602.8,793.5,1126.1,1457.1,869.6,2565.9,3480.7,3480.7,706.9,954.3,1911.5,1215.1,1211.5,894.9,-7.0,-27.0,13.0,10979.0,-11976.0,2037.0,569.0,23.0,18.0,23.0,2.0,-5.0,12.0,8690.0,-13622.0,2679.0,-428.0,8.0,14.0,10.0,1.0
2022-05-13 13:09:50.408835-07:00,1202.7,779.4,1049.6,991.9,1070.3,848.6,1761.8,1269.4,3472.2,3471.0,1132.2,878.9,1501.4,3478.3,1511.5,1361.2,3478.3,3478.3,602.8,791.0,1126.1,1455.2,873.8,2570.2,3480.7,3480.7,706.9,958.5,1911.5,1224.8,1216.0,898.3,-1.0,6.0,6.0,10976.0,-11977.0,2043.0,572.0,-20.0,-3.0,-11.0,-2.0,0.0,9.0,8688.0,-13623.0,2683.0,-427.0,-15.0,4.0,-1.0,1.0
2022-05-13 13:09:50.677438-07:00,1202.7,779.4,1049.6,987.6,1079.0,843.6,1750.2,1264.9,3472.2,3471.0,1132.2,871.3,1504.1,3469.8,1514.3,1359.4,3489.2,3479.5,606.0,791.0,1122.6,1455.2,873.8,2570.2,3481.9,3488.0,699.5,963.7,1917.4,1224.8,1216.0,898.3,-30.0,-103.0,59.0,10975.0,-11975.0,2064.0,572.0,-10.0,91.0,143.0,-14.0,-38.0,-15.0,8698.0,-13617.0,2680.0,-422.0,74.0,-29.0,32.0,1.0
2022-05-13 13:09:50.724504-07:00,1206.2,784.4,1052.2,979.9,1079.0,843.6,1750.2,1264.9,3473.4,3474.6,1124.4,868.8,1504.1,3469.8,1514.3,1359.4,3489.2,3479.5,606.0,791.0,1122.6,1464.4,867.1,2566.9,3481.9,3488.0,699.5,963.7,1931.1,1307.0,1303.4,917.7,-210.0,79.0,51.0,10931.0,-11953.0,2392.0,601.0,-440.0,-249.0,776.0,-18.0,126.0,25.0,8771.0,-13550.0,2777.0,-423.0,267.0,117.0,208.0,1.0
2022-05-13 13:09:50.725719-07:00,1206.2,784.4,1052.2,979.9,1071.2,899.1,1756.0,1271.2,3473.4,3474.6,1124.4,868.8,1506.9,3462.5,1861.5,1395.7,3483.2,3477.1,609.2,798.5,1122.6,1464.4,867.1,2566.9,3488.0,3484.4,737.3,970.5,1931.1,1307.0,1303.4,917.7,-100.0,-36.0,14.0,10692.0,-12133.0,2555.0,615.0,-162.0,224.0,-25.0,18.0,-27.0,117.0,8921.0,-13458.0,2761.0,-331.0,379.0,-283.0,89.0,1.0
2022-05-13 13:09:50.726997-07:00,1205.3,779.4,1052.2,979.0,1071.2,899.1,1756.0,1271.2,3477.1,3473.4,1127.0,878.9,1506.9,3462.5,1861.5,1395.7,3483.2,3477.1,609.2,798.5,1120.9,1458.0,902.5,2562.6,3488.0,3484.4,737.3,970.5,1941.0,1548.7,1566.5,901.7,44.0,131.0,-109.0,10717.0,-12118.0,2514.0,640.0,61.0,-245.0,-235.0,-13.0,40.0,4.0,8986.0,-13402.0,2818.0,-372.0,27.0,137.0,40.0,1.0
2022-05-13 13:09:50.728196-07:00,1205.3,779.4,1052.2,979.0,1072.9,910.1,1738.7,1257.8,3477.1,3473.4,1127.0,878.9,1500.4,3467.4,2078.5,1554.3,3472.2,3484.4,609.2,791.0,1120.9,1458.0,902.5,2562.6,3484.4,3479.5,810.2,976.5,1941.0,1548.7,1566.5,901.7,52.0,-82.0,30.0,10702.0,-12178.0,2273.0,656.0,-237.0,-286.0,-394.0,-15.0,22.0,-14.0,8987.0,-13403.0,2811.0,-373.0,94.0,-188.0,-62.0,1.0
2022-05-13 13:09:50.770573-07:00,1193.8,847.8,1040.1,977.3,1067.7,905.0,1712.9,1247.1,3464.9,3478.3,1145.4,872.1,1512.5,3469.8,2009.4,1563.7,3475.9,3475.9,611.7,796.9,1116.5,1460.8,905.9,2732.6,3484.4,3472.2,839.4,971.3,1983.6,1508.8,1481.9,897.4,46.0,-6.0,73.0,10754.0,-12130.0,2300.0,604.0,-16.0,356.0,202.0,-15.0,68.0,16.0,9276.0,-13221.0,2741.0,-319.0,344.0,-234.0,9.0,1.0
2022-05-13 13:09:50.903764-07:00,1193.8,861.2,1034.9,989.3,1067.7,905.0,1712.9,1255.1,3464.9,3472.2,1148.9,873.0,1512.5,3469.8,2009.4,1557.1,3479.5,3475.9,611.7,796.9,1116.5,1454.3,895.7,2732.6,3484.4,3472.2,839.4,971.3,1972.7,1486.6,1462.6,897.4,16.0,67.0,-4.0,10739.0,-12110.0,2476.0,568.0,-94.0,24.0,124.0,-5.0,36.0,11.0,9322.0,-13180.0,2777.0,-329.0,-75.0,179.0,129.0,1.0
2022-05-13 13:09:50.905866-07:00,1192.9,861.2,1034.9,989.3,1076.4,898.3,1703.3,1255.1,3478.3,3472.2,1148.9,873.0,1517.1,3477.1,1990.5,1557.1,3479.5,3474.6,611.7,791.0,1116.5,1454.3,895.7,2693.0,3484.4,3479.5,826.0,963.7,1972.7,1486.6,1462.6,896.6,7.0,29.0,25.0,10645.0,-12177.0,2553.0,576.0,-266.0,188.0,177.0,2.0,17.0,33.0,9279.0,-13204.0,2805.0,-334.0,-140.0,53.0,-13.0,1.0
2022-05-13 13:09:50.907170-07:00,1192.9,851.1,1040.1,977.3,1076.4,898.3,1703.3,1236.4,3478.3,3477.1,1147.1,870.5,1517.1,3477.1,1990.5,1540.3,3472.2,3474.6,611.7,791.0,1122.6,1466.3,891.5,2693.0,3478.3,3479.5,826.0,963.7,1982.6,1474.6,1447.0,896.6,-10.0,-29.0,-18.0,10544.0,-12254.0,2593.0,610.0,-347.0,-22.0,79.0,-7.0,-2.0,7.0,9197.0,-13258.0,2824.0,-343.0,-240.0,47.0,6.0,1.0
2022-05-13 13:09:50.992490-07:00,1181.5,851.1,1040.1,977.3,1075.6,894.9,1703.3,1236.4,3478.3,3477.1,1147.1,870.5,1512.5,3483.2,1969.7,1540.3,3472.2,3475.9,617.3,791.9,1122.6,1466.3,891.5,2647.1,3478.3,3477.1,815.2,959.4,1982.6,1474.6,1447.0,893.2,-8.0,-19.0,14.0,10475.0,-12298.0,2649.0,673.0,-26.0,66.0,249.0,-7.0,6.0,16.0,9182.0,-13264.0,2842.0,-339.0,61.0,27.0,43.0,1.0
2022-05-13 13:09:51.037359-07:00,1181.5,845.3,1040.9,975.6,1075.6,894.9,1691.9,1242.6,3478.3,3475.9,1136.6,867.9,1512.5,3483.2,1954.8,1545.9,3478.3,3480.7,617.3,791.9,1119.1,1470.9,885.6,2647.1,3480.7,3475.9,815.2,959.4,1950.9,1470.0,1440.5,893.2,6.0,30.0,6.0,10441.0,-12312.0,2705.0,728.0,-135.0,-56.0,56.0,0.0,8.0,16.0,9189.0,-13259.0,2843.0,-331.0,4.0,-50.0,-9.0,1.0
2022-05-13 13:09:51.127493-07:00,1193.8,836.9,1040.9,975.6,1068.6,899.1,1691.9,1242.6,3462.5,3468.6,1136.6,867.9,1506.0,3472.2,1954.8,1545.9,3478.3,3480.7,610.0,789.4,1119.1,1470.9,888.2,2656.9,3480.7,3475.9,818.5,953.4,1950.9,1470.0,1445.1,900.8,-1.0,-5.0,25.0,10452.0,-12303.0,2700.0,730.0,114.0,25.0,-14.0,0.0,-2.0,20.0,9222.0,-13243.0,2812.0,-326.0,81.0,-48.0,-49.0,1.0
2022-05-13 13:09:51.174811-07:00,1193.8,836.9,1040.1,977.3,1068.6,899.1,1704.3,1252.4,3462.5,3468.6,1127.0,869.6,1506.0,3472.2,1952.9,1533.8,3469.8,3480.7,610.0,789.4,1116.5,1462.6,888.2,2656.9,3472.2,3481.9,818.5,953.4,1944.0,1461.7,1445.1,900.8,8.0,-30.0,40.0,10469.0,-12292.0,2689.0,721.0,44.0,8.0,-23.0,5.0,-9.0,19.0,9224.0,-13243.0,2805.0,-325.0,-8.0,20.0,12.0,1.0
2022-05-13 13:09:51.177741-07:00,1182.3,833.6,1040.1,977.3,1069.5,886.5,1704.3,1252.4,3466.1,3474.6,1127.0,869.6,1514.3,3467.4,1952.9,1533.8,3469.8,3480.7,614.1,792.7,1116.5,1462.6,880.6,2636.2,3472.2,3481.9,808.5,940.7,1944.0,1461.7,1428.6,896.6,-3.0,10.0,15.0,10481.0,-12282.0,2688.0,708.0,-24.0,17.0,-46.0,0.0,0.0,19.0,9203.0,-13255.0,2818.0,-332.0,-115.0,37.0,-3.0,1.0
2022-05-13 13:09:51.217401-07:00,1182.3,833.6,1036.6,984.2,1069.5,886.5,1685.3,1245.3,3466.1,3474.6,1124.4,873.8,1514.3,3467.4,1934.1,1534.8,3473.4,3478.3,614.1,792.7,1121.7,1460.8,880.6,2636.2,3474.6,3473.4,808.5,940.7,1930.2,1455.2,1428.6,896.6,6.0,-23.0,19.0,10483.0,-12286.0,2666.0,690.0,55.0,19.0,-58.0,1.0,0.0,7.0,9164.0,-13279.0,2829.0,-339.0,-27.0,21.0,-3.0,1.0
2022-05-13 13:09:51.262439-07:00,1191.2,834.4,1041.8,984.2,1068.6,884.8,1685.3,1245.3,3473.4,3475.9,1120.9,873.8,1510.6,3475.9,1934.1,1534.8,3473.4,3478.3,610.8,790.2,1121.7,1465.4,885.6,2627.5,3474.6,3473.4,806.0,953.4,1930.2,1449.7,1418.6,907.6,-10.0,3.0,0.0,10504.0,-12270.0,2667.0,664.0,10.0,12.0,-14.0,1.0,0.0,17.0,9160.0,-13281.0,2832.0,-343.0,-53.0,17.0,1.0,1.0
2022-05-13 13:09:51.309437-07:00,1191.2,834.4,1041.8,977.3,1068.6,886.5,1681.4,1236.4,3473.4,3475.9,1120.9,866.3,1510.6,3475.9,1935.1,1529.2,3474.6,3469.8,618.1,790.2,1120.9,1465.4,885.6,2627.5,3477.1,3475.9,807.7,953.4,1924.3,1449.7,1418.6,907.6,-6.0,-21.0,18.0,10504.0,-12272.0,2659.0,659.0,45.0,4.0,-17.0,-2.0,-1.0,16.0,9146.0,-13290.0,2834.0,-342.0,8.0,14.0,-3.0,1.0
2022-05-13 13:09:51.354233-07:00,1172.6,835.2,1029.7,977.3,1080.8,886.5,1681.4,1236.4,3462.5,3468.6,1118.2,866.3,1504.1,3475.9,1935.1,1529.2,3474.6,3469.8,618.1,788.6,1120.9,1463.5,880.6,2606.9,3477.1,3475.9,807.7,942.4,1924.3,1447.9,1421.3,902.5,0.0,3.0,11.0,10508.0,-12272.0,2642.0,661.0,-48.0,-43.0,-32.0,0.0,0.0,16.0,9141.0,-13294.0,2834.0,-343.0,-27.0,-26.0,-24.0,1.0
2022-05-13 13:09:51.488816-07:00,1172.6,835.2,1029.7,976.5,1080.8,888.2,1673.8,1234.6,3462.5,3468.6,1118.2,868.8,1504.1,3468.6,1926.2,1529.2,3478.3,3484.4,612.5,788.6,1120.0,1463.5,880.6,2606.9,3473.4,3477.1,798.5,942.4,1914.4,1447.9,1421.3,902.5,6.0,-20.0,18.0,10499.0,-12285.0,2612.0,674.0,-34.0,-47.0,-35.0,0.0,-4.0,9.0,9131.0,-13304.0,2820.0,-340.0,3.0,-31.0,-24.0,1.0
2022-05-13 13:09:51.491893-07:00,1179.7,830.2,1037.5,976.5,1072.1,888.2,1673.8,1234.6,3467.4,3468.6,1113.0,868.8,1513.4,3468.6,1926.2,1529.2,3478.3,3484.4,612.5,793.5,1120.0,1463.5,874.7,2596.1,3473.4,3477.1,798.5,942.4,1914.4,1434.1,1415.8,893.2,-1.0,-4.0,13.0,10496.0,-12288.0,2611.0,683.0,-26.0,-23.0,18.0,2.0,0.0,19.0,9137.0,-13302.0,2811.0,-336.0,-20.0,-2.0,7.0,1.0
2022-05-13 13:09:51.532454-07:00,1179.7,830.2,1037.5,981.6,1077.3,885.6,1679.5,1252.4,3467.4,3468.6,1113.0,867.9,1516.2,3473.4,1915.4,1537.6,3474.6,3468.6,611.7,791.0,1120.9,1463.5,874.7,2596.1,3483.2,3474.6,797.7,941.5,1914.4,1434.1,1415.8,893.2,3.0,-21.0,23.0,10490.0,-12295.0,2598.0,689.0,11.0,-7.0,-27.0,0.0,-7.0,11.0,9128.0,-13308.0,2809.0,-332.0,10.0,-15.0,-15.0,1.0
2022-05-13 13:09:51.577465-07:00,1178.8,831.1,1033.2,1000.5,1077.3,885.6,1679.5,1252.4,3478.3,3466.1,1118.2,867.9,1516.2,3473.4,1915.4,1537.6,3474.6,3468.6,611.7,791.0,1120.9,1461.7,878.0,2589.6,3483.2,3474.6,797.7,941.5,1905.6,1443.3,1406.7,898.3,1.0,-8.0,14.0,10498.0,-12289.0,2593.0,688.0,0.0,-7.0,-4.0,0.0,-1.0,18.0,9132.0,-13307.0,2805.0,-331.0,0.0,-13.0,-2.0,1.0
2022-05-13 13:09:51.622416-07:00,1178.8,831.1,1033.2,1000.5,1073.8,878.0,1683.3,1227.5,3478.3,3466.1,1118.2,867.9,1514.3,3478.3,1922.3,1520.8,3474.6,3471.0,609.2,792.7,1120.9,1461.7,878.0,2589.6,3488.0,3474.6,802.7,939.8,1905.6,1443.3,1406.7,898.3,2.0,-6.0,15.0,10501.0,-12289.0,2584.0,690.0,1.0,-10.0,-14.0,0.0,-10.0,5.0,9133.0,-13307.0,2802.0,-329.0,1.0,-17.0,-10.0,1.0
2022-05-13 13:09:51.667381-07:00,1166.5,829.4,1038.3,978.2,1073.8,878.0,1683.3,1227.5,3466.1,3478.3,1116.5,873.8,1514.3,3478.3,1922.3,1520.8,3474.6,3471.0,609.2,792.7,1112.1,1461.7,880.6,2571.3,3488.0,3474.6,802.7,939.8,1905.6,1444.2,1408.5,894.1,7.0,6.0,11.0,10511.0,-12279.0,2590.0,686.0,1.0,14.0,0.0,3.0,-4.0,17.0,9140.0,-13302.0,2802.0,-330.0,-7.0,2.0,-1.0,1.0
2022-05-13 13:09:51.712719-07:00,1166.5,829.4,1038.3,978.2,1064.3,878.0,1680.5,1236.4,3466.1,3478.3,1116.5,873.8,1504.1,3467.4,1923.3,1525.5,3484.4,3467.4,610.8,794.4,1112.1,1461.7,880.6,2571.3,3488.0,3483.2,800.2,939.0,1905.6,1444.2,1408.5,894.1,2.0,-6.0,10.0,10504.0,-12288.0,2574.0,688.0,-38.0,-37.0,-30.0,1.0,-7.0,8.0,9121.0,-13314.0,2805.0,-331.0,-62.0,17.0,-10.0,1.0
2022-05-13 13:09:51.759089-07:00,1176.2,826.0,1040.9,975.6,1064.3,878.0,1680.5,1236.4,3466.1,3468.6,1117.4,872.1,1504.1,3467.4,1923.3,1525.5,3484.4,3467.4,610.8,794.4,1115.6,1455.2,874.7,2588.5,3488.0,3483.2,800.2,939.0,1905.6,1426.8,1415.8,898.3,-5.0,-15.0,12.0,10511.0,-12283.0,2571.0,685.0,28.0,8.0,13.0,0.0,-3.0,16.0,9118.0,-13317.0,2802.0,-335.0,20.0,14.0,-4.0,1.0
2022-05-13 13:09:51.849079-07:00,1177.9,826.0,1040.9,975.6,1069.5,883.9,1679.5,1242.6,3461.3,3468.6,1117.4,872.1,1507.8,3464.9,1921.3,1532.0,3477.1,3477.1,613.3,794.4,1115.6,1455.2,874.7,2581.0,3479.5,3477.1,794.4,935.6,1905.6,1426.8,1415.8,900.0,-8.0,-6.0,17.0,10508.0,-12286.0,2572.0,684.0,-21.0,6.0,-8.0,2.0,-7.0,21.0,9114.0,-13320.0,2800.0,-336.0,-22.0,-7.0,-14.0,1.0
2022-05-13 13:09:51.850299-07:00,1177.9,828.5,1039.2,972.2,1069.5,883.9,1679.5,1244.4,3461.3,3481.9,1113.9,873.0,1507.8,3464.9,1921.3,1526.4,3478.3,3477.1,613.3,794.4,1117.4,1460.8,873.0,2581.0,3469.8,3477.1,794.4,935.6,1909.5,1439.6,1409.4,900.0,0.0,-14.0,15.0,10505.0,-12290.0,2565.0,681.0,6.0,1.0,-14.0,1.0,-6.0,18.0,9100.0,-13330.0,2800.0,-337.0,-24.0,15.0,-9.0,1.0
2022-05-13 13:09:52.028722-07:00,1177.0,828.5,1039.2,972.2,1067.7,880.6,1676.7,1244.4,3479.5,3481.9,1113.9,873.0,1514.3,3467.4,1916.4,1526.4,3478.3,3472.2,618.1,791.0,1117.4,1460.8,873.0,2578.8,3469.8,3483.2,796.0,936.4,1909.5,1439.6,1409.4,899.1,1.0,-12.0,11.0,10500.0,-12297.0,2548.0,683.0,-31.0,-35.0,-32.0,5.0,-9.0,15.0,9082.0,-13341.0,2804.0,-340.0,-52.0,5.0,-8.0,1.0
2022-05-13 13:09:52.074069-07:00,1177.0,822.7,1036.6,985.0,1067.7,880.6,1676.7,1234.6,3479.5,3473.4,1119.1,867.9,1514.3,3467.4,1916.4,1526.4,3488.0,3472.2,618.1,791.0,1123.5,1461.7,878.9,2578.8,3478.3,3483.2,796.0,936.4,1905.6,1434.1,1411.3,899.1,1.0,-11.0,11.0,10501.0,-12301.0,2525.0,689.0,9.0,-32.0,-28.0,-1.0,-4.0,17.0,9069.0,-13350.0,2803.0,-339.0,-12.0,-6.0,-14.0,1.0
2022-05-13 13:09:52.075531-07:00,1179.7,822.7,1036.6,985.0,1062.5,878.9,1674.8,1234.6,3469.8,3473.4,1119.1,867.9,1503.2,3474.6,1914.4,1526.4,3488.0,3489.2,612.5,795.2,1123.5,1461.7,878.9,2569.1,3478.3,3477.1,792.7,960.2,1905.6,1434.1,1411.3,894.9,2.0,-19.0,14.0,10512.0,-12295.0,2505.0,694.0,41.0,-41.0,-19.0,2.0,-1.0,14.0,9067.0,-13351.0,2801.0,-342.0,3.0,17.0,-3.0,1.0
2022-05-13 13:09:52.163748-07:00,1179.7,825.2,1034.9,973.9,1062.5,878.9,1673.8,1247.1,3469.8,3472.2,1118.2,865.4,1503.2,3474.6,1912.4,1530.1,3469.8,3478.3,612.5,795.2,1115.6,1466.3,875.5,2569.1,3484.4,3479.5,792.7,960.2,1888.9,1436.9,1406.7,894.9,6.0,-15.0,22.0,10519.0,-12293.0,2485.0,698.0,7.0,-30.0,-27.0,0.0,-6.0,13.0,9064.0,-13354.0,2800.0,-342.0,-15.0,-5.0,-12.0,1.0
