Time,P0,P1,P2,P3,P4,P5,P6,P7,P8,P9,P10,P11,P12,P13,P14,P15,P16,P17,P18,P19,P20,P21,P22,P23,P24,P25,P26,P27,P28,P29,P30,P31,ECG,AX0,AY0,AZ0,QW0,QX0,QY0,QZ0,GX0,GY0,GZ0,AX1,AY1,AZ1,QW1,QX1,QY1,QZ1,GX1,GY1,GZ1
2022-05-13 13:04:50.599692-07:00,2416.6,699.5,1534.8,1671.0,1198.2,1302.5,1518.0,1781.0,3431.0,3440.7,1931.1,1581.4,1643.5,3440.7,1387.5,1826.5,3438.2,3444.3,714.2,1281.0,912.7,565.0,1622.8,2078.5,3438.2,3446.7,809.4,1081.6,1604.9,1724.4,1414.0,1139.2,0.0,-1.0,8.0,-5312.0,-9289.0,9937.0,7428.0,7.0,1.0,2.0,3.0,-3.0,7.0,-4073.0,-5214.0,10398.0,10795.0,1.0,-3.0,-4.0,1.0
2022-05-13 13:04:50.643368-07:00,2414.5,698.7,1524.5,1671.0,1198.2,1302.5,1518.0,1781.0,3444.3,3444.3,1938.0,1577.7,1643.5,3440.7,1387.5,1826.5,3438.2,3444.3,714.2,1281.0,900.8,564.2,1615.2,2084.6,3438.2,3446.7,809.4,1081.6,1613.4,1724.4,1406.7,1134.9,-3.0,-4.0,13.0,-5312.0,-9289.0,9937.0,7428.0,-4.0,-3.0,6.0,1.0,-3.0,12.0,-4073.0,-5214.0,10398.0,10795.0,5.0,-1.0,2.0,1.0
2022-05-13 13:04:50.734325-07:00,2419.8,698.7,1524.5,1671.0,1202.7,1306.1,1524.5,1771.4,3446.7,3444.3,1938.0,1577.7,1635.0,3445.5,1385.7,1817.8,3438.2,3435.8,713.4,1289.1,900.8,564.2,1615.2,2082.6,3443.1,3439.5,811.0,1081.6,1613.4,1724.4,1406.7,1133.1,-2.0,2.0,12.0,-5311.0,-9289.0,9939.0,7427.0,11.0,-1.0,1.0,2.0,2.0,11.0,-4072.0,-5214.0,10399.0,10795.0,2.0,0.0,-2.0,1.0
2022-05-13 13:04:50.735492-07:00,2419.8,699.5,1531.0,1664.4,1202.7,1306.1,1524.5,1776.2,3446.7,3450.4,1938.0,1586.1,1635.0,3445.5,1385.7,1823.6,3443.1,3435.8,713.4,1289.1,899.1,572.2,1619.9,2082.6,3441.9,3439.5,811.0,1081.6,1596.4,1722.4,1419.5,1133.1,-1.0,0.0,13.0,-5311.0,-9290.0,9938.0,7427.0,4.0,-1.0,-10.0,3.0,-3.0,5.0,-4072.0,-5214.0,10399.0,10795.0,5.0,3.0,-1.0,1.0
2022-05-13 13:04:50.868469-07:00,2416.6,699.5,1531.0,1664.4,1203.5,1314.2,1537.6,1776.2,3439.5,3450.4,1938.0,1586.1,1633.1,3443.1,1384.8,1823.6,3443.1,3440.7,714.2,1282.8,899.1,572.2,1619.9,2082.6,3441.9,3443.1,810.2,1087.7,1596.4,1722.4,1419.5,1140.1,-4.0,-7.0,7.0,-5313.0,-9292.0,9937.0,7425.0,4.0,10.0,5.0,1.0,-5.0,9.0,-4072.0,-5214.0,10399.0,10795.0,9.0,3.0,3.0,1.0
2022-05-13 13:04:50.871273-07:00,2416.6,701.9,1532.0,1671.9,1203.5,1314.2,1537.6,1780.1,3439.5,3439.5,1934.1,1573.9,1633.1,3443.1,1384.8,1813.9,3438.2,3440.7,714.2,1282.8,897.4,569.8,1619.9,2082.6,3433.4,3443.1,810.2,1087.7,1604.0,1719.6,1411.3,1140.1,-1.0,2.0,13.0,-5311.0,-9292.0,9939.0,7423.0,0.0,-8.0,3.0,4.0,0.0,6.0,-4072.0,-5214.0,10399.0,10795.0,-10.0,-5.0,-1.0,1.0
2022-05-13 13:04:50.872416-07:00,2408.1,701.9,1532.0,1671.9,1197.4,1303.4,1515.3,1780.1,3446.7,3439.5,1934.1,1573.9,1626.5,3444.3,1389.4,1813.9,3438.2,3440.7,717.5,1289.1,897.4,569.8,1619.9,2081.6,3433.4,3440.7,811.0,1085.1,1604.0,1719.6,1411.3,1133.1,-5.0,-2.0,10.0,-5314.0,-9291.0,9937.0,7425.0,9.0,-6.0,3.0,0.0,-5.0,12.0,-4073.0,-5214.0,10398.0,10796.0,14.0,-2.0,0.0,1.0
2022-05-13 13:04:50.913117-07:00,2408.1,702.8,1523.6,1672.9,1197.4,1303.4,1503.2,1778.1,3446.7,3435.8,1923.3,1573.9,1626.5,3444.3,1391.2,1825.5,3440.7,3438.2,717.5,1289.1,902.5,563.4,1616.2,2081.6,3454.0,3440.7,811.0,1085.1,1607.7,1724.4,1410.3,1133.1,-3.0,-1.0,15.0,-5308.0,-9292.0,9941.0,7422.0,1.0,5.0,-2.0,3.0,0.0,10.0,-4072.0,-5215.0,10400.0,10794.0,-8.0,0.0,0.0,1.0
2022-05-13 13:04:51.187776-07:00,2412.4,698.7,1523.6,1672.9,1194.7,1301.6,1503.2,1778.1,3449.1,3441.9,1923.3,1573.9,1642.6,3441.9,1391.2,1825.5,3440.7,3438.2,715.1,1287.3,902.5,563.4,1612.4,2081.6,3454.0,3440.7,808.5,1079.9,1607.7,1724.4,1411.3,1135.7,-3.0,-2.0,11.0,-5308.0,-9292.0,9942.0,7421.0,16.0,3.0,3.0,0.0,-4.0,8.0,-4071.0,-5215.0,10401.0,10792.0,16.0,0.0,-2.0,1.0
2022-05-13 13:04:51.189345-07:00,2412.4,698.7,1525.5,1668.2,1194.7,1301.6,1515.3,1774.3,3449.1,3441.9,1931.1,1579.6,1642.6,3441.9,1385.7,1819.7,3437.0,3443.1,715.1,1287.3,898.3,576.2,1612.4,2081.6,3440.7,3445.5,808.5,1079.9,1596.4,1721.5,1411.3,1135.7,-2.0,-2.0,11.0,-5305.0,-9294.0,9944.0,7418.0,-7.0,-6.0,-3.0,0.0,-2.0,6.0,-4070.0,-5216.0,10403.0,10791.0,-7.0,-2.0,4.0,1.0
2022-05-13 13:04:51.190472-07:00,2410.3,697.9,1525.5,1668.2,1190.3,1306.1,1515.3,1774.3,3440.7,3440.7,1931.1,1579.6,1632.2,3437.0,1385.7,1819.7,3437.0,3443.1,722.5,1277.4,898.3,576.2,1617.1,2075.5,3440.7,3445.5,806.9,1081.6,1596.4,1721.5,1413.1,1136.6,0.0,-1.0,16.0,-5305.0,-9294.0,9944.0,7419.0,1.0,2.0,2.0,2.0,-5.0,9.0,-4070.0,-5216.0,10403.0,10791.0,-4.0,-4.0,1.0,1.0
2022-05-13 13:04:51.191481-07:00,2410.3,697.9,1528.3,1662.5,1190.3,1306.1,1515.3,1778.1,3440.7,3440.7,1938.0,1579.6,1632.2,3437.0,1388.5,1820.7,3438.2,3435.8,722.5,1277.4,901.7,568.2,1617.1,2075.5,3439.5,3435.8,806.9,1081.6,1600.2,1722.4,1413.1,1136.6,0.0,-2.0,15.0,-5305.0,-9294.0,9944.0,7419.0,-1.0,-1.0,5.0,2.0,-6.0,7.0,-4070.0,-5216.0,10403.0,10791.0,5.0,-2.0,0.0,1.0
2022-05-13 13:04:51.275974-07:00,2410.3,692.9,1530.1,1662.5,1193.8,1308.8,1515.3,1778.1,3437.0,3439.5,1936.1,1579.6,1630.3,3433.4,1388.5,1820.7,3438.2,3435.8,719.2,1283.7,901.7,569.0,1622.8,2081.6,3439.5,3435.8,816.0,1076.4,1600.2,1714.8,1413.1,1136.6,-1.0,-1.0,9.0,-5305.0,-9294.0,9944.0,7419.0,4.0,-7.0,0.0,4.0,-6.0,9.0,-4070.0,-5216.0,10403.0,10791.0,1.0,2.0,0.0,1.0
2022-05-13 13:04:51.277740-07:00,2417.6,693.8,1530.1,1663.4,1185.9,1305.2,1514.3,1779.1,3440.7,3444.3,1930.2,1572.1,1653.9,3449.1,1387.5,1824.6,3437.0,3446.7,719.2,1274.7,904.2,568.2,1618.1,2079.5,3445.5,3445.5,811.9,1075.6,1595.5,1717.7,1410.3,1133.1,-3.0,4.0,9.0,-5303.0,-9295.0,9945.0,7417.0,22.0,3.0,7.0,1.0,-7.0,9.0,-4071.0,-5216.0,10402.0,10791.0,12.0,-7.0,0.0,1.0
2022-05-13 13:04:51.321614-07:00,2417.6,693.8,1530.1,1661.5,1185.9,1302.5,1513.4,1772.3,3440.7,3444.3,1930.2,1582.4,1653.9,3447.9,1382.1,1813.9,3440.7,3432.2,714.2,1274.7,900.8,568.2,1618.1,2079.5,3441.9,3444.3,808.5,1075.6,1598.3,1717.7,1410.3,1133.1,-3.0,-2.0,18.0,-5297.0,-9293.0,9949.0,7418.0,-5.0,-16.0,-2.0,3.0,-5.0,9.0,-4069.0,-5215.0,10403.0,10791.0,-14.0,-12.0,1.0,1.0
2022-05-13 13:04:51.409892-07:00,2408.1,696.2,1530.1,1661.5,1198.2,1302.5,1513.4,1772.3,3443.1,3435.8,1930.2,1582.4,1635.0,3447.9,1382.1,1813.9,3440.7,3432.2,714.2,1279.2,900.8,565.8,1618.1,2085.6,3441.9,3444.3,808.5,1081.6,1598.3,1721.5,1410.3,1141.9,-5.0,-3.0,16.0,-5296.0,-9292.0,9949.0,7420.0,9.0,-2.0,1.0,0.0,-4.0,15.0,-4068.0,-5213.0,10404.0,10792.0,12.0,-7.0,7.0,1.0
2022-05-13 13:04:51.411102-07:00,2408.1,696.2,1530.1,1674.8,1198.2,1303.4,1519.0,1763.7,3443.1,3435.8,1930.2,1577.7,1635.0,3438.2,1378.5,1818.7,3443.1,3437.0,713.4,1279.2,903.4,565.8,1618.1,2085.6,3444.3,3449.1,809.4,1081.6,1594.6,1721.5,1410.3,1141.9,-2.0,0.0,16.0,-5294.0,-9290.0,9950.0,7422.0,0.0,-12.0,4.0,4.0,-1.0,11.0,-4067.0,-5213.0,10404.0,10792.0,-7.0,-7.0,-1.0,1.0
2022-05-13 13:04:51.455031-07:00,2399.7,695.4,1519.9,1664.4,1193.8,1303.4,1519.0,1763.7,3444.3,3435.8,1931.1,1580.5,1633.1,3438.2,1378.5,1818.7,3443.1,3437.0,713.4,1281.0,896.6,566.6,1634.1,2070.5,3444.3,3449.1,809.4,1079.0,1600.2,1720.5,1413.1,1133.1,-2.0,3.0,17.0,-5293.0,-9291.0,9952.0,7421.0,11.0,-2.0,-5.0,6.0,-1.0,13.0,-4067.0,-5213.0,10404.0,10792.0,-1.0,5.0,-5.0,1.0
2022-05-13 13:04:51.544064-07:00,2399.7,695.4,1519.9,1664.4,1191.2,1301.6,1514.3,1780.1,3444.3,3435.8,1931.1,1580.5,1627.5,3446.7,1390.3,1818.7,3435.8,3437.0,719.2,1289.1,896.6,566.6,1634.1,2070.5,3446.7,3446.7,807.7,1076.4,1600.2,1720.5,1413.1,1133.1,-3.0,-1.0,15.0,-5296.0,-9294.0,9948.0,7420.0,-2.0,20.0,-8.0,4.0,-1.0,10.0,-4068.0,-5213.0,10404.0,10792.0,8.0,11.0,1.0,1.0
2022-05-13 13:04:51.588886-07:00,2409.2,697.0,1531.0,1667.2,1191.2,1301.6,1514.3,1780.1,3439.5,3441.9,1917.4,1573.9,1627.5,3446.7,1390.3,1818.7,3435.8,3437.0,719.2,1289.1,897.4,562.6,1618.1,2070.5,3446.7,3446.7,807.7,1076.4,1601.1,1716.7,1414.9,1139.2,0.0,2.0,11.0,-5296.0,-9297.0,9949.0,7414.0,6.0,10.0,-3.0,2.0,-3.0,10.0,-4069.0,-5215.0,10404.0,10791.0,-11.0,0.0,-5.0,1.0
2022-05-13 13:04:51.636003-07:00,2409.2,697.0,1531.0,1667.2,1198.2,1300.7,1506.9,1773.3,3439.5,3441.9,1917.4,1573.9,1642.6,3450.4,1376.6,1813.9,3433.4,3435.8,715.1,1281.0,897.4,562.6,1618.1,2070.5,3439.5,3444.3,813.5,1075.6,1601.1,1716.7,1414.9,1139.2,0.0,-2.0,10.0,-5297.0,-9297.0,9948.0,7415.0,0.0,-3.0,6.0,1.0,-1.0,5.0,-4069.0,-5215.0,10404.0,10790.0,13.0,-2.0,5.0,1.0
2022-05-13 13:04:51.725090-07:00,2399.7,696.2,1539.4,1665.3,1198.2,1300.7,1506.9,1773.3,3438.2,3440.7,1927.2,1579.6,1642.6,3450.4,1376.6,1813.9,3433.4,3435.8,715.1,1281.0,898.3,568.2,1612.4,2082.6,3439.5,3444.3,813.5,1075.6,1604.9,1706.2,1398.5,1133.1,-5.0,1.0,17.0,-5294.0,-9297.0,9950.0,7414.0,-2.0,-13.0,-3.0,1.0,-2.0,15.0,-4070.0,-5215.0,10403.0,10792.0,-15.0,-5.0,-2.0,1.0
2022-05-13 13:04:51.728330-07:00,2396.6,696.2,1539.4,1665.3,1196.5,1298.1,1515.3,1776.2,3449.1,3440.7,1927.2,1579.6,1636.9,3444.3,1385.7,1816.8,3433.4,3439.5,711.8,1281.0,898.3,568.2,1612.4,2068.5,3437.0,3438.2,811.0,1081.6,1604.9,1706.2,1398.5,1123.5,-4.0,-6.0,22.0,-5296.0,-9294.0,9948.0,7419.0,3.0,10.0,2.0,1.0,-8.0,11.0,-4070.0,-5214.0,10402.0,10792.0,16.0,2.0,1.0,1.0
2022-05-13 13:04:51.815016-07:00,2396.6,688.9,1528.3,1661.5,1196.5,1298.1,1515.3,1769.5,3449.1,3438.2,1927.2,1582.4,1636.9,3444.3,1385.7,1818.7,3428.6,3439.5,711.8,1281.0,898.3,569.8,1614.3,2068.5,3449.1,3438.2,811.0,1081.6,1604.9,1719.6,1412.2,1123.5,-2.0,4.0,17.0,-5292.0,-9297.0,9952.0,7413.0,12.0,-4.0,6.0,3.0,-4.0,10.0,-4068.0,-5216.0,10405.0,10789.0,0.0,5.0,1.0,1.0
2022-05-13 13:04:51.816668-07:00,2400.8,688.9,1528.3,1661.5,1190.3,1295.4,1506.9,1769.5,3443.1,3438.2,1927.2,1582.4,1630.3,3443.1,1383.9,1818.7,3428.6,3437.0,719.2,1282.8,898.3,569.8,1614.3,2077.5,3449.1,3438.2,809.4,1074.7,1604.9,1719.6,1412.2,1131.4,-4.0,-5.0,16.0,-5294.0,-9298.0,9951.0,7411.0,5.0,11.0,-6.0,1.0,-6.0,7.0,-4068.0,-5216.0,10406.0,10789.0,10.0,1.0,-5.0,1.0
2022-05-13 13:04:51.860980-07:00,2400.8,696.2,1519.9,1671.0,1190.3,1295.4,1506.9,1776.2,3443.1,3433.4,1930.2,1573.0,1630.3,3443.1,1383.9,1818.7,3440.7,3437.0,719.2,1282.8,902.5,564.2,1617.1,2077.5,3443.1,3438.2,809.4,1074.7,1601.1,1723.4,1409.4,1131.4,-3.0,0.0,16.0,-5292.0,-9299.0,9953.0,7409.0,-2.0,-5.0,8.0,0.0,-1.0,10.0,-4068.0,-5216.0,10407.0,10788.0,-1.0,-3.0,3.0,1.0
2022-05-13 13:04:51.950669-07:00,2410.3,696.2,1519.9,1671.0,1207.1,1305.2,1506.9,1776.2,3440.7,3433.4,1930.2,1573.0,1634.1,3439.5,1383.0,1818.7,3440.7,3439.5,714.2,1277.4,902.5,564.2,1617.1,2073.5,3443.1,3446.7,807.7,1070.3,1601.1,1723.4,1409.4,1133.1,0.0,-1.0,13.0,-5292.0,-9299.0,9952.0,7410.0,9.0,2.0,2.0,5.0,-3.0,10.0,-4068.0,-5216.0,10407.0,10788.0,7.0,1.0,0.0,1.0
2022-05-13 13:04:51.951802-07:00,2410.3,706.0,1526.4,1670.1,1207.1,1305.2,1506.9,1772.3,3440.7,3437.0,1924.3,1584.2,1634.1,3439.5,1383.0,1821.6,3435.8,3439.5,714.2,1277.4,902.5,565.0,1613.4,2073.5,3446.7,3446.7,807.7,1070.3,1601.1,1717.7,1407.6,1133.1,-3.0,2.0,19.0,-5290.0,-9300.0,9955.0,7407.0,-6.0,-6.0,-8.0,1.0,-3.0,10.0,-4067.0,-5217.0,10408.0,10787.0,-15.0,-4.0,-2.0,1.0
2022-05-13 13:04:52.174649-07:00,2398.7,694.6,1526.4,1670.1,1194.7,1295.4,1506.9,1772.3,3437.0,3441.9,1924.3,1584.2,1635.0,3438.2,1376.6,1821.6,3435.8,3428.6,713.4,1284.6,902.5,565.0,1612.4,2076.5,3446.7,3449.1,809.4,1077.3,1601.1,1717.7,1415.8,1134.9,0.0,-3.0,22.0,-5291.0,-9300.0,9954.0,7408.0,6.0,5.0,11.0,0.0,-3.0,7.0,-4068.0,-5216.0,10406.0,10789.0,11.0,3.0,3.0,1.0
2022-05-13 13:04:52.178114-07:00,2398.7,694.6,1525.5,1659.6,1194.7,1295.4,1511.5,1769.5,3437.0,3441.9,1928.2,1574.9,1635.0,3438.2,1383.9,1811.9,3439.5,3441.9,713.4,1284.6,897.4,565.0,1612.4,2076.5,3445.5,3449.1,809.4,1077.3,1597.4,1727.2,1415.8,1134.9,-6.0,2.0,16.0,-5295.0,-9302.0,9954.0,7402.0,-7.0,14.0,4.0,3.0,-5.0,15.0,-4067.0,-5216.0,10407.0,10788.0,-7.0,7.0,1.0,1.0
2022-05-13 13:04:52.179263-07:00,2395.5,695.4,1525.5,1659.6,1187.6,1307.0,1511.5,1769.5,3438.2,3443.1,1928.2,1574.9,1626.5,3441.9,1383.9,1811.9,3439.5,3441.9,715.1,1280.1,897.4,565.0,1611.5,2066.5,3445.5,3449.1,811.9,1082.5,1597.4,1727.2,1415.8,1128.7,0.0,-3.0,14.0,-5295.0,-9303.0,9955.0,7400.0,8.0,-4.0,-1.0,1.0,-7.0,6.0,-4067.0,-5216.0,10407.0,10788.0,4.0,4.0,-1.0,1.0
2022-05-13 13:04:52.180355-07:00,2395.5,695.4,1524.5,1665.3,1187.6,1307.0,1508.8,1772.3,3438.2,3443.1,1932.1,1582.4,1626.5,3441.9,1380.3,1819.7,3434.6,3437.0,715.1,1280.1,899.1,566.6,1611.5,2066.5,3449.1,3444.3,811.9,1082.5,1600.2,1727.2,1415.8,1128.7,-4.0,-3.0,16.0,-5296.0,-9302.0,9956.0,7399.0,8.0,6.0,12.0,1.0,-7.0,10.0,-4067.0,-5216.0,10407.0,10788.0,15.0,-1.0,6.0,1.0
2022-05-13 13:04:52.222632-07:00,2399.7,700.3,1524.5,1665.3,1205.3,1301.6,1508.8,1772.3,3435.8,3439.5,1932.1,1582.4,1633.1,3449.1,1380.3,1819.7,3434.6,3437.0,711.8,1285.5,899.1,566.6,1618.1,2079.5,3449.1,3444.3,811.9,1079.9,1600.2,1727.2,1404.0,1132.2,-4.0,-3.0,16.0,-5293.0,-9301.0,9958.0,7399.0,18.0,-12.0,7.0,2.0,-7.0,10.0,-4066.0,-5218.0,10411.0,10784.0,1.0,-7.0,0.0,1.0
2022-05-13 13:04:52.265792-07:00,2399.7,700.3,1530.1,1661.5,1205.3,1304.3,1506.0,1773.3,3435.8,3439.5,1919.3,1578.6,1633.1,3447.9,1383.9,1817.8,3438.2,3443.1,717.5,1285.5,902.5,563.4,1618.1,2079.5,3443.1,3450.4,807.7,1079.9,1595.5,1723.4,1404.0,1132.2,-1.0,0.0,19.0,-5290.0,-9302.0,9960.0,7396.0,-4.0,3.0,4.0,5.0,-2.0,13.0,-4065.0,-5218.0,10412.0,10783.0,-3.0,-7.0,-1.0,1.0
2022-05-13 13:04:52.310902-07:00,2402.9,693.8,1522.7,1661.5,1190.3,1304.3,1506.0,1773.3,3435.8,3449.1,1926.2,1578.6,1646.4,3447.9,1383.9,1817.8,3438.2,3443.1,717.5,1275.6,902.5,566.6,1611.5,2070.5,3443.1,3450.4,807.7,1071.2,1595.5,1716.7,1415.8,1132.2,0.0,6.0,20.0,-5286.0,-9302.0,9966.0,7393.0,32.0,-9.0,9.0,5.0,1.0,10.0,-4064.0,-5219.0,10414.0,10781.0,28.0,4.0,1.0,1.0
2022-05-13 13:04:52.536159-07:00,2402.9,693.8,1522.7,1666.3,1190.3,1302.5,1506.9,1765.6,3435.8,3449.1,1926.2,1576.8,1646.4,3451.6,1372.1,1810.0,3439.5,3435.8,719.2,1275.6,898.3,566.6,1611.5,2070.5,3445.5,3444.3,815.2,1071.2,1596.4,1716.7,1415.8,1132.2,-3.0,-3.0,23.0,-5290.0,-9302.0,9962.0,7394.0,-6.0,14.0,-3.0,2.0,-8.0,12.0,-4062.0,-5220.0,10418.0,10777.0,-6.0,6.0,-3.0,1.0
2022-05-13 13:04:52.537320-07:00,2405.0,692.9,1530.1,1666.3,1192.0,1302.5,1506.9,1765.6,3446.7,3438.2,1927.2,1576.8,1629.4,3451.6,1372.1,1810.0,3439.5,3435.8,719.2,1282.8,898.3,569.0,1613.4,2072.5,3445.5,3444.3,815.2,1076.4,1596.4,1716.7,1420.4,1132.2,-1.0,-5.0,14.0,-5292.0,-9303.0,9966.0,7386.0,52.0,12.0,34.0,2.0,-8.0,12.0,-4060.0,-5222.0,10423.0,10773.0,42.0,5.0,2.0,1.0
2022-05-13 13:04:52.538373-07:00,2405.0,692.9,1530.1,1665.3,1192.0,1303.4,1519.0,1764.6,3446.7,3438.2,1927.2,1575.8,1629.4,3445.5,1383.0,1817.8,3437.0,3438.2,716.7,1282.8,899.1,569.0,1613.4,2072.5,3449.1,3443.1,812.7,1076.4,1601.1,1716.7,1420.4,1132.2,1.0,14.0,17.0,-5290.0,-9302.0,9978.0,7373.0,6.0,28.0,-15.0,3.0,-1.0,6.0,-4055.0,-5226.0,10433.0,10763.0,7.0,-2.0,-5.0,1.0
2022-05-13 13:04:52.539391-07:00,2393.4,690.5,1519.9,1665.3,1198.2,1303.4,1519.0,1764.6,3440.7,3449.1,1921.3,1576.8,1635.0,3445.5,1383.0,1817.8,3437.0,3438.2,716.7,1279.2,896.6,570.6,1610.5,2072.5,3449.1,3443.1,812.7,1081.6,1597.4,1715.8,1413.1,1132.2,0.0,-8.0,23.0,-5290.0,-9306.0,9973.0,7376.0,-3.0,-7.0,0.0,4.0,-11.0,11.0,-4055.0,-5226.0,10433.0,10763.0,-1.0,1.0,-4.0,1.0
2022-05-13 13:04:52.625655-07:00,2393.4,690.5,1519.9,1665.3,1188.5,1303.4,1499.5,1772.3,3440.7,3449.1,1921.3,1576.8,1627.5,3443.1,1385.7,1822.6,3445.5,3433.4,711.8,1279.2,896.6,570.6,1610.5,2072.5,3438.2,3438.2,809.4,1077.3,1597.4,1715.8,1413.1,1132.2,-9.0,4.0,16.0,-5293.0,-9304.0,9974.0,7374.0,12.0,3.0,18.0,0.0,-2.0,13.0,-4054.0,-5226.0,10434.0,10761.0,12.0,-8.0,3.0,1.0
2022-05-13 13:04:52.669002-07:00,2396.6,691.3,1517.1,1663.4,1188.5,1303.4,1499.5,1772.3,3433.4,3445.5,1933.1,1581.4,1627.5,3443.1,1385.7,1822.6,3445.5,3433.4,711.8,1279.2,901.7,567.4,1605.8,2074.5,3438.2,3438.2,809.4,1077.3,1596.4,1718.6,1405.8,1131.4,-1.0,-5.0,18.0,-5294.0,-9301.0,9974.0,7376.0,10.0,-15.0,0.0,1.0,-8.0,11.0,-4054.0,-5227.0,10436.0,10760.0,6.0,-2.0,6.0,1.0
2022-05-13 13:04:53.030204-07:00,2396.6,691.3,1517.1,1663.4,1191.2,1311.5,1503.2,1768.5,3433.4,3445.5,1933.1,1581.4,1631.3,3439.5,1380.3,1823.6,3445.5,3437.0,715.9,1281.9,901.7,567.4,1605.8,2074.5,3454.0,3438.2,808.5,1075.6,1596.4,1718.6,1405.8,1131.4,-1.0,-2.0,17.0,-5293.0,-9299.0,9977.0,7377.0,0.0,5.0,17.0,3.0,-3.0,9.0,-4052.0,-5228.0,10439.0,10757.0,10.0,2.0,3.0,1.0
2022-05-13 13:04:53.033246-07:00,2398.7,692.9,1532.0,1666.3,1191.2,1311.5,1503.2,1768.5,3449.1,3446.7,1936.1,1577.7,1631.3,3439.5,1380.3,1823.6,3445.5,3437.0,715.9,1281.9,901.7,561.0,1609.6,2078.5,3454.0,3438.2,808.5,1075.6,1599.3,1713.8,1414.9,1134.0,-2.0,-2.0,16.0,-5297.0,-9293.0,9981.0,7375.0,24.0,-4.0,23.0,7.0,-4.0,10.0,-4051.0,-5228.0,10440.0,10756.0,16.0,-5.0,-2.0,1.0
2022-05-13 13:04:53.034317-07:00,2398.7,692.9,1532.0,1666.3,1190.3,1301.6,1503.2,1770.4,3449.1,3446.7,1936.1,1577.7,1631.3,3454.0,1380.3,1813.9,3431.0,3441.9,711.8,1281.9,901.7,561.0,1609.6,2078.5,3443.1,3435.8,806.9,1078.2,1599.3,1713.8,1414.9,1134.0,5.0,4.0,16.0,-5296.0,-9291.0,9986.0,7371.0,0.0,6.0,-3.0,2.0,0.0,4.0,-4049.0,-5230.0,10444.0,10752.0,2.0,-7.0,2.0,1.0
2022-05-13 13:04:53.121466-07:00,2406.0,685.6,1522.7,1654.9,1190.3,1301.6,1503.2,1766.6,3439.5,3437.0,1924.3,1573.9,1631.3,3454.0,1380.3,1817.8,3447.9,3441.9,711.8,1281.9,902.5,567.4,1622.8,2079.5,3444.3,3435.8,806.9,1078.2,1597.4,1717.7,1407.6,1133.1,-1.0,-1.0,17.0,-5296.0,-9291.0,9987.0,7370.0,7.0,-5.0,5.0,2.0,-7.0,8.0,-4048.0,-5229.0,10445.0,10752.0,11.0,-2.0,-1.0,1.0
2022-05-13 13:04:53.165423-07:00,2387.1,685.6,1522.7,1654.9,1188.5,1307.0,1500.4,1766.6,3444.3,3437.0,1924.3,1573.9,1638.8,3439.5,1385.7,1817.8,3447.9,3438.2,713.4,1277.4,902.5,567.4,1622.8,2076.5,3444.3,3454.0,803.5,1072.9,1597.4,1717.7,1407.6,1140.1,-4.0,0.0,19.0,-5297.0,-9290.0,9985.0,7373.0,12.0,-3.0,1.0,4.0,-5.0,13.0,-4048.0,-5229.0,10445.0,10752.0,5.0,-3.0,-1.0,1.0
2022-05-13 13:04:53.166213-07:00,2387.1,685.6,1522.7,1654.9,1188.5,1307.0,1500.4,1766.6,3444.3,3437.0,1924.3,1573.9,1638.8,3439.5,1385.7,1817.8,3447.9,3438.2,713.4,1277.4,902.5,567.4,1622.8,2076.5,3444.3,3454.0,803.5,1072.9,1597.4,1717.7,1407.6,1140.1,-4.0,0.0,19.0,-5297.0,-9290.0,9985.0,7373.0,12.0,-3.0,1.0,4.0,-5.0,13.0,-4048.0,-5229.0,10445.0,10752.0,5.0,-3.0,-1.0,1.0
2022-05-13 13:04:53.167294-07:00,2400.8,692.1,1515.3,1669.1,1197.4,1311.5,1508.8,1761.8,3439.5,3446.7,1923.3,1568.3,1626.5,3449.1,1379.4,1814.9,3435.8,3438.2,719.2,1274.7,899.1,568.2,1614.3,2074.5,3454.0,3449.1,803.5,1082.5,1597.4,1717.7,1413.1,1135.7,-1.0,7.0,12.0,-5295.0,-9291.0,9985.0,7374.0,-20.0,-15.0,1.0,0.0,1.0,10.0,-4046.0,-5229.0,10448.0,10750.0,2.0,-1.0,2.0,1.0
2022-05-13 13:04:53.168315-07:00,2398.7,697.9,1515.3,1669.1,1200.0,1301.6,1508.8,1761.8,3440.7,3441.9,1923.3,1568.3,1626.5,3443.1,1379.4,1814.9,3435.8,3438.2,719.2,1280.1,899.1,568.2,1614.3,2073.5,3454.0,3449.1,811.0,1078.2,1597.4,1717.7,1409.4,1128.7,-1.0,96.0,36.0,-5347.0,-9237.0,9935.0,7472.0,-1123.0,-108.0,-63.0,22.0,36.0,-20.0,-4068.0,-5210.0,10427.0,10772.0,-346.0,3.0,75.0,1.0
2022-05-13 13:04:53.478549-07:00,2398.7,697.9,1517.1,1663.4,1200.0,1301.6,1494.0,1772.3,3440.7,3441.9,1928.2,1583.3,1626.5,3443.1,1571.1,1842.0,3449.1,3444.3,719.2,1280.1,899.1,562.6,1614.3,2073.5,3438.2,3449.1,811.0,1078.2,1595.5,1716.7,1409.4,1128.7,48.0,70.0,85.0,-5780.0,-9098.0,9507.0,7867.0,-2058.0,592.0,-288.0,47.0,63.0,12.0,-4205.0,-5099.0,10224.0,10965.0,-1774.0,-29.0,239.0,1.0
2022-05-13 13:04:53.480854-07:00,2483.4,704.4,1517.1,1663.4,1192.0,1309.7,1494.0,1772.3,3435.8,3438.2,1928.2,1583.3,1652.0,3441.9,1571.1,1842.0,3449.1,3444.3,714.2,1280.1,899.1,562.6,1710.0,2128.0,3438.2,3449.1,841.1,1132.2,1595.5,1716.7,1806.1,1129.6,-131.0,13.0,-171.0,-6547.0,-8846.0,8644.0,8521.0,-3360.0,622.0,-539.0,-77.0,23.0,4.0,-4597.0,-4739.0,9558.0,11554.0,-2698.0,-29.0,287.0,1.0
2022-05-13 13:04:53.482008-07:00,2483.4,704.4,1645.4,1691.9,1192.0,1309.7,1550.6,1822.6,3435.8,3438.2,2700.7,1911.5,1652.0,3441.9,1964.7,2359.8,3435.8,3438.2,714.2,1280.1,905.9,562.6,1710.0,2128.0,3437.0,3454.0,841.1,1132.2,1648.3,2141.2,1806.1,1129.6,-24.0,42.0,-228.0,-7171.0,-8390.0,7855.0,9215.0,-2524.0,-353.0,-51.0,-61.0,155.0,-72.0,-4949.0,-4387.0,8835.0,12110.0,-1526.0,-26.0,-59.0,1.0
2022-05-13 13:04:53.483090-07:00,2462.1,705.2,1639.8,1691.9,1198.2,1369.4,1550.6,1822.6,3444.3,3449.1,2945.0,1911.5,1807.1,3446.7,1964.7,2359.8,3435.8,3438.2,715.9,1277.4,905.9,573.0,1786.8,2327.4,3437.0,3454.0,1193.8,1181.5,1648.3,2471.7,2156.5,1131.4,-7.0,39.0,-172.0,-7600.0,-7883.0,7661.0,9479.0,-886.0,-371.0,891.0,-49.0,8.0,-91.0,-4944.0,-4343.0,8555.0,12326.0,4.0,23.0,-490.0,1.0
2022-05-13 13:04:53.525443-07:00,2462.1,705.2,1639.8,1695.7,1198.2,1418.6,1525.5,1800.3,3444.3,3449.1,2945.0,2143.3,1807.1,3449.1,1823.6,2556.2,3439.5,3439.5,715.1,1277.4,906.7,573.0,1786.8,2327.4,3450.4,3444.3,1283.7,1181.5,1694.8,2471.7,2156.5,1131.4,-20.0,-17.0,-33.0,-7883.0,-7323.0,7585.0,9754.0,-1839.0,-663.0,407.0,-50.0,-22.0,-49.0,-4797.0,-4415.0,8405.0,12462.0,-788.0,-119.0,-487.0,1.0
2022-05-13 13:04:53.526630-07:00,2405.0,711.8,1636.0,1695.7,1191.2,1418.6,1525.5,1800.3,3438.2,3437.0,2816.8,2143.3,1847.9,3449.1,1823.6,2556.2,3439.5,3439.5,715.1,1292.7,906.7,577.0,1782.0,2365.1,3450.4,3444.3,1283.7,1185.0,1694.8,2475.9,2132.1,1141.9,30.0,-45.0,75.0,-8505.0,-6121.0,7422.0,10176.0,-707.0,-519.0,1001.0,15.0,-89.0,47.0,-4648.0,-4424.0,8193.0,12654.0,161.0,-24.0,-2.0,1.0
2022-05-13 13:04:53.569010-07:00,2409.2,704.4,1655.8,1702.4,1191.2,1457.1,1548.7,1851.8,3439.5,3428.6,2753.6,2097.7,1832.3,3440.7,1773.3,2510.1,3443.1,3428.6,720.0,1320.5,912.7,581.0,1755.0,2373.4,3441.9,3437.0,1309.7,1171.8,1704.3,2466.4,2118.9,1144.5,13.0,10.0,55.0,-8748.0,-5840.0,7371.0,10173.0,-519.0,88.0,401.0,40.0,-2.0,52.0,-4713.0,-4397.0,8156.0,12663.0,-241.0,37.0,72.0,1.0
2022-05-13 13:04:53.759503-07:00,2409.2,704.4,1655.8,1712.9,1196.5,1479.2,1593.6,1895.8,3439.5,3428.6,2753.6,2073.5,1823.6,3438.2,1737.8,2498.3,3439.5,3449.1,720.0,1344.0,929.6,581.0,1755.0,2373.4,3439.5,3449.1,1294.5,1157.7,1713.8,2466.4,2118.9,1144.5,21.0,85.0,14.0,-8875.0,-5706.0,7372.0,10137.0,-91.0,-149.0,342.0,22.0,41.0,35.0,-4725.0,-4388.0,8149.0,12667.0,124.0,-26.0,-33.0,1.0
2022-05-13 13:04:53.760810-07:00,2440.9,701.1,1872.3,1803.2,1196.5,1479.2,1593.6,1895.8,3439.5,3449.1,2730.4,2073.5,1823.6,3438.2,1737.8,2498.3,3439.5,3449.1,720.0,1344.0,931.3,587.5,1735.8,2386.0,3439.5,3449.1,1294.5,1157.7,1702.4,2433.5,2091.6,1136.6,-54.0,-9.0,0.0,-8945.0,-5609.0,7362.0,10137.0,-185.0,103.0,153.0,-12.0,-80.0,112.0,-4687.0,-4373.0,8138.0,12693.0,-106.0,-50.0,-99.0,1.0
2022-05-13 13:04:53.763851-07:00,2440.9,701.1,1872.3,1803.2,1200.0,1494.0,1707.2,2001.5,3439.5,3449.1,2730.4,2073.5,1813.9,3444.3,1722.4,2481.3,3441.9,3439.5,718.4,1346.7,931.3,587.5,1735.8,2386.0,3449.1,3438.2,1272.1,1145.4,1702.4,2433.5,2091.6,1136.6,-7.0,-87.0,28.0,-8976.0,-5570.0,7337.0,10149.0,-158.0,35.0,61.0,48.0,-58.0,29.0,-4643.0,-4348.0,8116.0,12732.0,-66.0,-118.0,-65.0,1.0
2022-05-13 13:04:53.890887-07:00,2448.3,701.9,2037.4,1896.7,1200.0,1494.0,1707.2,2001.5,3446.7,3441.9,2697.4,2066.5,1813.9,3444.3,1722.4,2481.3,3441.9,3439.5,718.4,1346.7,929.6,588.3,1717.7,2375.5,3449.1,3438.2,1272.1,1145.4,1707.2,2407.1,2071.5,1142.7,-15.0,-90.0,15.0,-9027.0,-5537.0,7331.0,10126.0,-43.0,18.0,238.0,32.0,-74.0,3.0,-4625.0,-4308.0,8138.0,12738.0,73.0,-90.0,80.0,1.0
2022-05-13 13:04:53.891942-07:00,2448.3,701.9,2037.4,1896.7,1213.3,1499.5,1797.4,2129.0,3446.7,3441.9,2697.4,2066.5,1818.7,3439.5,1705.3,2466.4,3433.4,3438.2,724.9,1363.0,929.6,588.3,1717.7,2375.5,3451.6,3440.7,1269.4,1132.2,1707.2,2407.1,2071.5,1142.7,17.0,-59.0,23.0,-9124.0,-5478.0,7269.0,10116.0,-305.0,184.0,74.0,68.0,-61.0,8.0,-4667.0,-4224.0,8125.0,12760.0,-210.0,-142.0,158.0,1.0
2022-05-13 13:04:53.892991-07:00,2481.3,715.1,2077.5,1954.8,1213.3,1499.5,1797.4,2132.1,3439.5,3438.2,2654.7,2068.5,1818.7,3439.5,1705.3,2466.4,3443.1,3438.2,724.9,1363.0,934.7,592.3,1711.0,2382.9,3443.1,3440.7,1269.4,1132.2,1704.3,2392.4,2049.4,1142.7,20.0,-13.0,16.0,-9138.0,-5525.0,7248.0,10094.0,244.0,48.0,-62.0,48.0,0.0,14.0,-4678.0,-4174.0,8149.0,12756.0,134.0,-68.0,47.0,1.0
2022-05-13 13:04:53.930954-07:00,2522.9,715.1,2077.5,1954.8,1207.1,1543.1,1841.1,2132.1,3438.2,3438.2,2654.7,2068.5,1798.4,3443.1,1688.1,2466.4,3443.1,3435.8,724.9,1381.2,934.7,592.3,1711.0,2385.0,3443.1,3449.1,1266.7,1126.1,1704.3,2392.4,2049.4,1138.4,28.0,11.0,8.0,-9122.0,-5598.0,7274.0,10049.0,90.0,121.0,-27.0,25.0,-27.0,6.0,-4658.0,-4166.0,8202.0,12732.0,47.0,-74.0,41.0,1.0
2022-05-13 13:04:53.974148-07:00,2522.9,719.2,2073.5,1981.6,1207.1,1543.1,1841.1,2135.1,3438.2,3444.3,2646.0,2066.5,1798.4,3443.1,1688.1,2438.8,3439.5,3435.8,724.9,1381.2,924.5,593.1,1691.0,2385.0,3446.7,3449.1,1266.7,1126.1,1693.8,2366.1,2032.4,1138.4,-42.0,-28.0,23.0,-9124.0,-5695.0,7243.0,10015.0,131.0,209.0,-95.0,29.0,-44.0,59.0,-4653.0,-4135.0,8216.0,12735.0,-27.0,-58.0,46.0,1.0
2022-05-13 13:04:54.065236-07:00,2527.2,719.2,2073.5,1981.6,1409.4,1565.5,1909.5,2135.1,3435.8,3444.3,2646.0,2066.5,1790.7,3444.3,1673.8,2438.8,3439.5,3437.0,728.2,1394.8,924.5,593.1,1691.0,2379.7,3446.7,3445.5,1275.6,1127.0,1693.8,2366.1,2032.4,1156.8,-23.0,-6.0,9.0,-9099.0,-5784.0,7263.0,9971.0,248.0,107.0,5.0,8.0,0.0,38.0,-4629.0,-4134.0,8271.0,12708.0,212.0,-37.0,8.0,1.0
2022-05-13 13:04:54.067000-07:00,2527.2,718.4,2068.5,1945.0,1409.4,1565.5,1909.5,2146.3,3435.8,3440.7,2635.1,2059.4,1790.7,3444.3,1673.8,2444.1,3437.0,3437.0,728.2,1394.8,927.1,586.7,1687.2,2379.7,3446.7,3445.5,1275.6,1127.0,1688.1,2334.7,2012.4,1156.8,-2.0,41.0,0.0,-9069.0,-5857.0,7296.0,9933.0,159.0,67.0,-68.0,16.0,15.0,26.0,-4609.0,-4136.0,8323.0,12681.0,95.0,-29.0,0.0,1.0
2022-05-13 13:04:54.109002-07:00,2518.6,718.4,2068.5,1945.0,1601.1,1532.0,1904.6,2146.3,3445.5,3440.7,2635.1,2059.4,1796.5,3443.1,1685.3,2444.1,3437.0,3435.8,729.0,1400.3,927.1,586.7,1687.2,2392.4,3446.7,3444.3,1243.5,1116.5,1688.1,2334.7,2012.4,1182.3,27.0,46.0,36.0,-9041.0,-5939.0,7311.0,9898.0,229.0,178.0,-119.0,11.0,15.0,23.0,-4577.0,-4146.0,8369.0,12659.0,157.0,-39.0,-55.0,1.0
2022-05-13 13:04:54.153967-07:00,2518.6,719.2,2038.4,1907.5,1601.1,1532.0,1870.3,2130.1,3445.5,3441.9,2621.0,2071.5,1796.5,3443.1,1659.6,2468.5,3433.4,3439.5,729.0,1400.3,918.6,585.1,1664.4,2392.4,3445.5,3449.1,1243.5,1116.5,1709.1,2382.9,2019.4,1182.3,-3.0,23.0,64.0,-8994.0,-6076.0,7304.0,9863.0,260.0,144.0,-119.0,4.0,13.0,46.0,-4536.0,-4193.0,8395.0,12641.0,141.0,88.0,-124.0,1.0
2022-05-13 13:04:54.200201-07:00,2504.7,721.6,2038.4,1907.5,1710.0,1514.3,1870.3,2130.1,3443.1,3446.7,2621.0,2071.5,1795.5,3441.9,1659.6,2468.5,3433.4,3439.5,729.0,1414.9,918.6,585.1,1663.4,2399.7,3445.5,3449.1,1217.7,1120.0,1709.1,2382.9,2048.4,1252.4,-16.0,73.0,67.0,-8920.0,-6287.0,7311.0,9792.0,524.0,344.0,-324.0,13.0,48.0,97.0,-4477.0,-4297.0,8426.0,12607.0,223.0,161.0,-246.0,1.0
2022-05-13 13:04:54.246038-07:00,2504.7,721.6,2029.4,1899.7,1710.0,1514.3,1842.0,2097.7,3443.1,3446.7,2618.8,2079.5,1795.5,3441.9,1660.6,2434.6,3441.9,3439.5,729.0,1414.9,922.0,590.7,1663.4,2399.7,3433.4,3439.5,1217.7,1120.0,1739.7,2386.0,2048.4,1252.4,15.0,11.0,30.0,-8757.0,-6578.0,7368.0,9705.0,933.0,219.0,-390.0,4.0,0.0,30.0,-4389.0,-4472.0,8459.0,12555.0,431.0,221.0,-366.0,1.0
2022-05-13 13:04:54.334645-07:00,2551.9,740.6,2029.4,1899.7,1785.8,1504.1,1842.0,2097.7,3449.1,3443.1,2618.8,2079.5,1787.8,3450.4,1660.6,2434.6,3441.9,3439.5,726.6,1437.8,922.0,590.7,1652.0,2470.6,3433.4,3439.5,1209.7,1118.2,1739.7,2386.0,2055.4,1363.9,-37.0,75.0,-27.0,-8524.0,-6957.0,7497.0,9548.0,876.0,204.0,-355.0,-2.0,33.0,39.0,-4235.0,-4707.0,8545.0,12463.0,437.0,237.0,-464.0,1.0
2022-05-13 13:04:54.424218-07:00,2551.9,740.6,2019.4,1878.1,1785.8,1504.1,1810.0,2072.5,3449.1,3443.1,2626.5,2093.7,1787.8,3450.4,1649.2,2425.0,3437.0,3444.3,726.6,1437.8,923.7,587.5,1652.0,2470.6,3443.1,3450.4,1209.7,1118.2,1927.2,2389.2,2055.4,1363.9,45.0,-24.0,-13.0,-8294.0,-7219.0,7642.0,9441.0,867.0,58.0,-257.0,-12.0,-3.0,-29.0,-4062.0,-4931.0,8620.0,12383.0,547.0,160.0,-490.0,1.0
2022-05-13 13:04:54.470315-07:00,2522.9,765.3,2006.4,1878.1,1743.5,1536.6,1810.0,2072.5,3435.8,3437.0,2615.6,2093.7,1794.5,3438.2,1649.2,2425.0,3437.0,3444.3,724.9,1457.1,923.7,587.5,1642.6,2609.1,3443.1,3450.4,1192.9,1118.2,1927.2,2361.9,2020.4,1523.6,11.0,-41.0,-6.0,-8109.0,-7449.0,7741.0,9342.0,634.0,55.0,-295.0,7.0,-38.0,-10.0,-3878.0,-5128.0,8691.0,12311.0,363.0,120.0,-453.0,1.0
2022-05-13 13:04:54.472651-07:00,2522.9,765.3,2006.4,1854.7,1743.5,1592.7,1761.8,2028.4,3435.8,3437.0,2615.6,2076.5,1794.5,3441.9,1634.1,2417.6,3439.5,3435.8,724.1,1457.1,921.1,587.5,1642.6,2609.1,3440.7,3443.1,1182.3,1118.2,2219.8,2361.9,2020.4,1523.6,-50.0,-73.0,5.0,-7935.0,-7663.0,7821.0,9251.0,602.0,21.0,-241.0,18.0,-77.0,27.0,-3726.0,-5303.0,8730.0,12257.0,334.0,166.0,-390.0,1.0
2022-05-13 13:04:54.514083-07:00,2507.9,785.2,1985.6,1854.7,1610.5,1592.7,1761.8,2028.4,3444.3,3449.1,2557.3,2076.5,1810.0,3441.9,1634.1,2417.6,3439.5,3435.8,724.1,1477.3,921.1,587.5,1620.9,2698.5,3440.7,3443.1,1182.3,1116.5,2219.8,2342.0,2018.4,1536.6,-32.0,-61.0,9.0,-7796.0,-7832.0,7927.0,9137.0,526.0,100.0,-62.0,28.0,-62.0,31.0,-3607.0,-5477.0,8792.0,12170.0,382.0,199.0,-271.0,1.0
2022-05-13 13:04:54.562190-07:00,2507.9,785.2,1985.6,1847.9,1610.5,1590.8,1730.1,2015.4,3444.3,3449.1,2557.3,2078.5,1810.0,3439.5,1608.7,2409.2,3438.2,3435.8,725.8,1477.3,925.4,587.5,1620.9,2698.5,3438.2,3439.5,1175.3,1116.5,2226.0,2342.0,2018.4,1536.6,42.0,-39.0,0.0,-7715.0,-7943.0,8025.0,9024.0,449.0,102.0,45.0,25.0,-18.0,-22.0,-3545.0,-5614.0,8845.0,12088.0,352.0,193.0,-166.0,1.0
2022-05-13 13:04:54.604022-07:00,2482.3,786.1,1975.6,1847.9,1515.3,1590.8,1730.1,2015.4,3434.6,3440.7,2525.0,2078.5,1806.1,3439.5,1608.7,2409.2,3438.2,3435.8,725.8,1477.3,925.4,583.5,1613.4,2687.5,3438.2,3439.5,1175.3,1112.1,2226.0,2333.7,2011.4,1500.4,19.0,3.0,-43.0,-7694.0,-7996.0,8052.0,8971.0,37.0,10.0,-72.0,26.0,-14.0,-19.0,-3517.0,-5703.0,8864.0,12040.0,-6.0,110.0,-87.0,1.0
2022-05-13 13:04:54.695848-07:00,2482.3,786.1,1975.6,1843.0,1515.3,1586.1,1717.7,1993.5,3434.6,3440.7,2525.0,2066.5,1806.1,3440.7,1614.3,2382.9,3439.5,3441.9,718.4,1477.3,920.3,583.5,1613.4,2687.5,3443.1,3444.3,1165.6,1112.1,2208.6,2333.7,2011.4,1500.4,3.0,4.0,-25.0,-7674.0,-8023.0,8036.0,8978.0,-76.0,35.0,-91.0,5.0,-5.0,3.0,-3510.0,-5733.0,8838.0,12047.0,-81.0,14.0,-66.0,1.0
2022-05-13 13:04:54.697013-07:00,2473.8,786.9,1967.7,1828.4,1469.0,1586.1,1717.7,1993.5,3435.8,3435.8,2500.4,2056.4,1808.1,3440.7,1614.3,2382.9,3439.5,3441.9,718.4,1479.2,913.5,583.5,1604.0,2706.2,3443.1,3444.3,1165.6,1112.1,2176.9,2323.3,1985.6,1470.9,-7.0,-11.0,3.0,-7673.0,-8021.0,7989.0,9022.0,-106.0,-17.0,-112.0,8.0,-14.0,21.0,-3516.0,-5727.0,8786.0,12086.0,-140.0,-19.0,-40.0,1.0
2022-05-13 13:04:54.785240-07:00,2473.8,786.9,1967.7,1828.4,1429.5,1582.4,1710.0,1984.6,3435.8,3435.8,2500.4,2056.4,1807.1,3438.2,1610.5,2376.6,3428.6,3439.5,721.6,1472.7,913.5,583.5,1604.0,2706.2,3435.8,3438.2,1156.8,1106.0,2176.9,2323.3,1985.6,1470.9,-11.0,-33.0,4.0,-7660.0,-8022.0,7962.0,9057.0,61.0,-50.0,-23.0,11.0,-18.0,14.0,-3514.0,-5718.0,8755.0,12114.0,22.0,-21.0,-30.0,1.0
2022-05-13 13:04:54.829742-07:00,2472.7,781.9,1960.8,1825.5,1429.5,1582.4,1710.0,1984.6,3437.0,3443.1,2467.4,2052.4,1807.1,3438.2,1610.5,2376.6,3428.6,3439.5,721.6,1472.7,916.0,586.7,1607.7,2678.8,3435.8,3438.2,1156.8,1106.0,2155.5,2306.6,1975.6,1456.2,-16.0,-10.0,5.0,-7643.0,-8024.0,7975.0,9057.0,-10.0,18.0,-6.0,12.0,-7.0,28.0,-3505.0,-5720.0,8757.0,12114.0,1.0,-6.0,-18.0,1.0
2022-05-13 13:04:54.919643-07:00,2472.7,781.9,1960.8,1825.5,1397.6,1583.3,1702.4,1971.7,3437.0,3443.1,2467.4,2052.4,1805.2,3439.5,1605.8,2377.6,3438.2,3444.3,721.6,1470.9,916.0,586.7,1607.7,2678.8,3443.1,3439.5,1150.6,1102.5,2155.5,2306.6,1975.6,1456.2,6.0,-22.0,5.0,-7640.0,-8015.0,7982.0,9061.0,70.0,-60.0,36.0,8.0,-30.0,6.0,-3505.0,-5718.0,8755.0,12117.0,43.0,-4.0,0.0,1.0
2022-05-13 13:04:54.921948-07:00,2460.0,779.4,1942.0,1835.2,1397.6,1583.3,1702.4,1971.7,3447.9,3444.3,2478.1,2050.4,1805.2,3439.5,1605.8,2377.6,3438.2,3444.3,721.6,1470.9,918.6,584.3,1592.7,2686.4,3443.1,3439.5,1150.6,1102.5,2156.5,2291.0,1976.6,1433.2,6.0,0.0,4.0,-7621.0,-8010.0,8022.0,9047.0,41.0,-42.0,25.0,7.0,-2.0,10.0,-3492.0,-5722.0,8777.0,12102.0,41.0,-15.0,-2.0,1.0
2022-05-13 13:04:55.010136-07:00,2450.4,779.4,1942.0,1835.2,1383.0,1582.4,1696.7,1967.7,3446.7,3444.3,2478.1,2050.4,1800.3,3440.7,1593.6,2366.1,3428.6,3441.9,719.2,1471.8,918.6,584.3,1592.7,2661.3,3446.7,3446.7,1148.0,1099.9,2156.5,2291.0,1976.6,1419.5,4.0,8.0,11.0,-7616.0,-7996.0,8041.0,9047.0,22.0,-32.0,23.0,13.0,-5.0,8.0,-3486.0,-5714.0,8785.0,12101.0,27.0,-27.0,0.0,1.0
2022-05-13 13:04:55.011422-07:00,2450.4,776.9,1935.1,1813.9,1383.0,1582.4,1696.7,1966.7,3446.7,3441.9,2463.2,2043.4,1800.3,3440.7,1593.6,2361.9,3441.9,3441.9,719.2,1471.8,916.9,584.3,1594.6,2661.3,3450.4,3446.7,1148.0,1099.9,2114.9,2298.3,1966.7,1419.5,-11.0,8.0,18.0,-7615.0,-7992.0,8050.0,9043.0,6.0,-12.0,13.0,7.0,-14.0,14.0,-3483.0,-5704.0,8787.0,12106.0,5.0,-18.0,-8.0,1.0
2022-05-13 13:04:55.099616-07:00,2438.8,776.9,1935.1,1813.9,1372.1,1577.7,1693.8,1966.7,3438.2,3441.9,2463.2,2043.4,1794.5,3441.9,1591.7,2361.9,3441.9,3440.7,725.8,1463.5,916.9,584.3,1594.6,2643.9,3450.4,3449.1,1142.7,1092.1,2114.9,2298.3,1966.7,1404.9,-19.0,8.0,6.0,-7611.0,-7995.0,8049.0,9044.0,-16.0,-14.0,-12.0,1.0,-3.0,29.0,-3481.0,-5702.0,8780.0,12113.0,-21.0,-9.0,-15.0,1.0
2022-05-13 13:04:55.100863-07:00,2438.8,768.7,1937.1,1820.7,1372.1,1577.7,1693.8,1948.9,3438.2,3441.9,2464.2,2037.4,1794.5,3441.9,1591.7,2363.0,3439.5,3440.7,725.8,1463.5,916.0,584.3,1586.1,2643.9,3438.2,3449.1,1142.7,1092.1,2091.6,2289.0,1965.7,1404.9,-1.0,-1.0,12.0,-7611.0,-7987.0,8046.0,9054.0,-33.0,-16.0,-7.0,14.0,-13.0,9.0,-3479.0,-5701.0,8768.0,12122.0,-16.0,-9.0,-22.0,1.0
2022-05-13 13:04:55.145183-07:00,2462.1,768.7,1937.1,1820.7,1354.0,1562.7,1688.1,1948.9,3427.4,3441.9,2464.2,2037.4,1794.5,3437.0,1588.0,2363.0,3439.5,3437.0,723.3,1462.6,916.0,584.3,1586.1,2638.4,3438.2,3439.5,1135.7,1093.8,2091.6,2289.0,1965.7,1388.5,1.0,-4.0,10.0,-7611.0,-7984.0,8039.0,9063.0,-25.0,-6.0,-29.0,10.0,-8.0,13.0,-3475.0,-5702.0,8759.0,12129.0,-29.0,-5.0,-22.0,1.0
2022-05-13 13:04:55.190225-07:00,2462.1,766.2,1939.0,1815.8,1354.0,1562.7,1680.5,1950.9,3427.4,3439.5,2454.7,2025.4,1794.5,3437.0,1589.9,2353.5,3439.5,3443.1,723.3,1462.6,916.9,585.9,1584.2,2638.4,3439.5,3441.9,1135.7,1093.8,2091.6,2282.8,1965.7,1388.5,2.0,-16.0,16.0,-7609.0,-7981.0,8027.0,9078.0,-22.0,-4.0,-32.0,16.0,-23.0,5.0,-3477.0,-5699.0,8747.0,12139.0,-26.0,-9.0,-9.0,1.0
2022-05-13 13:04:55.280459-07:00,2421.9,769.5,1939.0,1815.8,1351.2,1560.9,1680.5,1950.9,3440.7,3428.6,2454.7,2025.4,1797.4,3443.1,1589.9,2353.5,3439.5,3443.1,723.3,1466.3,916.9,585.9,1577.7,2635.1,3439.5,3441.9,1136.6,1097.3,2091.6,2282.8,1951.9,1390.3,6.0,-17.0,21.0,-7611.0,-7978.0,8018.0,9087.0,-21.0,7.0,9.0,17.0,-19.0,10.0,-3482.0,-5694.0,8740.0,12145.0,-17.0,3.0,10.0,1.0
2022-05-13 13:04:55.323937-07:00,2421.9,769.5,1919.3,1818.7,1351.2,1560.9,1677.6,1929.2,3440.7,3428.6,2461.0,2039.4,1797.4,3443.1,1583.3,2341.0,3439.5,3428.6,723.3,1466.3,916.0,589.1,1577.7,2635.1,3439.5,3454.0,1136.6,1097.3,2069.5,2283.8,1951.9,1390.3,-20.0,-7.0,0.0,-7620.0,-7974.0,8014.0,9087.0,-21.0,-15.0,44.0,13.0,-14.0,16.0,-3493.0,-5686.0,8737.0,12148.0,6.0,9.0,25.0,1.0
2022-05-13 13:04:55.369031-07:00,2426.1,761.2,1919.3,1818.7,1345.8,1555.3,1677.6,1929.2,3435.8,3435.8,2461.0,2039.4,1786.8,3444.3,1583.3,2341.0,3439.5,3428.6,716.7,1463.5,916.0,589.1,1578.6,2612.3,3439.5,3454.0,1127.0,1091.2,2069.5,2283.8,1953.9,1373.0,-2.0,4.0,9.0,-7628.0,-7964.0,8024.0,9080.0,17.0,14.0,29.0,6.0,1.0,16.0,-3500.0,-5679.0,8745.0,12143.0,24.0,3.0,22.0,1.0
2022-05-13 13:04:55.504353-07:00,2426.1,761.2,1927.2,1804.2,1345.8,1555.3,1674.8,1929.2,3435.8,3435.8,2449.4,2026.4,1786.8,3444.3,1590.8,2341.0,3439.5,3439.5,716.7,1463.5,914.4,586.7,1578.6,2612.3,3443.1,3444.3,1127.0,1091.2,2061.5,2279.6,1953.9,1373.0,2.0,-12.0,8.0,-7639.0,-7958.0,8026.0,9074.0,21.0,14.0,45.0,4.0,-14.0,2.0,-3508.0,-5673.0,8750.0,12140.0,30.0,9.0,21.0,1.0
2022-05-13 13:04:55.550333-07:00,2417.6,755.4,1927.2,1804.2,1342.2,1550.6,1674.8,1929.2,3439.5,3441.9,2449.4,2026.4,1779.1,3444.3,1590.8,2341.0,3439.5,3439.5,723.3,1457.1,914.4,586.7,1573.9,2614.5,3443.1,3444.3,1116.5,1083.4,2061.5,2279.6,1953.9,1381.2,-6.0,11.0,8.0,-7647.0,-7957.0,8038.0,9057.0,12.0,31.0,34.0,2.0,-10.0,12.0,-3509.0,-5674.0,8767.0,12127.0,27.0,11.0,19.0,1.0
2022-05-13 13:04:55.551759-07:00,2417.6,755.4,1918.3,1814.9,1342.2,1555.3,1670.1,1923.3,3439.5,3441.9,2444.1,2029.4,1779.1,3434.6,1577.7,2344.1,3434.6,3432.2,722.5,1457.1,911.0,585.1,1573.9,2614.5,3444.3,3445.5,1126.1,1083.4,2057.4,2274.5,1953.9,1381.2,0.0,0.0,8.0,-7658.0,-7958.0,8035.0,9050.0,-28.0,14.0,12.0,10.0,1.0,16.0,-3516.0,-5668.0,8770.0,12126.0,-22.0,-1.0,21.0,1.0
2022-05-13 13:04:55.552870-07:00,2410.3,757.9,1922.3,1814.9,1331.4,1555.3,1670.1,1923.3,3437.0,3428.6,2446.2,2029.4,1791.6,3434.6,1577.7,2344.1,3434.6,3432.2,722.5,1455.2,911.0,585.9,1574.9,2616.7,3444.3,3445.5,1126.1,1086.8,2057.4,2272.4,1944.0,1383.0,-7.0,-1.0,11.0,-7660.0,-7956.0,8031.0,9053.0,15.0,-3.0,3.0,1.0,-5.0,25.0,-3520.0,-5665.0,8765.0,12130.0,5.0,11.0,3.0,1.0
2022-05-13 13:04:55.594508-07:00,2410.3,757.9,1922.3,1818.7,1331.4,1550.6,1672.9,1927.2,3437.0,3428.6,2446.2,2020.4,1791.6,3441.9,1576.8,2347.3,3435.8,3443.1,720.0,1455.2,916.0,585.9,1574.9,2616.7,3437.0,3439.5,1115.6,1086.8,2054.4,2272.4,1944.0,1383.0,-6.0,-5.0,4.0,-7656.0,-7960.0,8036.0,9050.0,12.0,-12.0,9.0,-2.0,-4.0,9.0,-3522.0,-5669.0,8764.0,12128.0,0.0,12.0,-1.0,1.0
2022-05-13 13:04:55.641058-07:00,2401.8,757.9,1927.2,1818.7,1335.9,1550.6,1672.9,1927.2,3433.4,3433.4,2443.0,2020.4,1784.9,3441.9,1576.8,2347.3,3435.8,3443.1,720.0,1462.6,916.0,585.9,1573.9,2598.3,3437.0,3439.5,1115.6,1083.4,2054.4,2262.1,1941.0,1367.6,-1.0,-4.0,0.0,-7651.0,-7964.0,8044.0,9042.0,27.0,-5.0,20.0,4.0,-8.0,9.0,-3520.0,-5671.0,8768.0,12125.0,24.0,-3.0,-3.0,1.0
2022-05-13 13:04:55.731001-07:00,2401.8,757.9,1927.2,1803.2,1335.9,1545.0,1680.5,1932.1,3433.4,3433.4,2443.0,2018.4,1784.9,3449.1,1583.3,2338.9,3433.4,3439.5,719.2,1462.6,912.7,585.9,1573.9,2598.3,3447.9,3441.9,1115.6,1083.4,2049.4,2262.1,1941.0,1367.6,2.0,5.0,18.0,-7645.0,-7961.0,8057.0,9038.0,23.0,-9.0,-8.0,0.0,0.0,4.0,-3513.0,-5673.0,8771.0,12123.0,-1.0,-10.0,-17.0,1.0
2022-05-13 13:04:55.773520-07:00,2407.1,751.3,1917.4,1805.2,1339.5,1545.0,1680.5,1932.1,3440.7,3441.9,2445.1,2017.4,1778.1,3449.1,1583.3,2338.9,3433.4,3439.5,719.2,1459.8,908.4,585.9,1568.3,2597.2,3447.9,3441.9,1115.6,1083.4,2047.4,2265.2,1927.2,1369.4,-4.0,-8.0,9.0,-7644.0,-7963.0,8054.0,9041.0,2.0,-19.0,2.0,6.0,-10.0,14.0,-3512.0,-5670.0,8766.0,12129.0,3.0,-12.0,-6.0,1.0
2022-05-13 13:04:55.818407-07:00,2407.1,751.3,1917.4,1805.2,1339.5,1546.9,1671.0,1926.2,3440.7,3441.9,2445.1,2017.4,1781.0,3444.3,1573.9,2332.6,3443.1,3440.7,725.8,1459.8,908.4,585.9,1568.3,2597.2,3444.3,3444.3,1119.1,1076.4,2047.4,2265.2,1927.2,1369.4,10.0,1.0,18.0,-7641.0,-7953.0,8061.0,9045.0,14.0,-27.0,17.0,4.0,-11.0,9.0,-3510.0,-5667.0,8768.0,12130.0,26.0,-7.0,-3.0,1.0
2022-05-13 13:04:55.863404-07:00,2420.8,749.6,1909.5,1798.4,1339.5,1546.9,1671.0,1926.2,3438.2,3452.8,2425.0,2023.4,1781.0,3444.3,1573.9,2332.6,3443.1,3440.7,725.8,1459.8,909.3,582.6,1572.1,2598.3,3444.3,3444.3,1119.1,1076.4,2060.5,2252.8,1946.9,1367.6,-6.0,4.0,16.0,-7640.0,-7953.0,8065.0,9043.0,26.0,7.0,-6.0,6.0,-2.0,25.0,-3509.0,-5666.0,8768.0,12130.0,17.0,7.0,-12.0,1.0
2022-05-13 13:04:56.000998-07:00,2420.8,749.6,1909.5,1798.4,1342.2,1544.1,1660.6,1919.3,3438.2,3452.8,2425.0,2023.4,1776.2,3440.7,1575.8,2336.8,3439.5,3434.6,720.8,1467.2,909.3,582.6,1572.1,2598.3,3445.5,3440.7,1109.5,1082.5,2060.5,2252.8,1946.9,1367.6,-4.0,-1.0,6.0,-7636.0,-7959.0,8069.0,9038.0,33.0,-3.0,14.0,4.0,0.0,24.0,-3508.0,-5671.0,8768.0,12128.0,21.0,16.0,-6.0,1.0
2022-05-13 13:04:56.449235-07:00,2395.5,754.6,1915.4,1802.3,1342.2,1544.1,1660.6,1919.3,3449.1,3437.0,2442.0,2016.4,1776.2,3440.7,1575.8,2336.8,3439.5,3434.6,720.8,1467.2,919.4,581.8,1565.5,2592.9,3445.5,3440.7,1109.5,1082.5,2043.4,2273.4,1943.0,1360.3,-3.0,-3.0,15.0,-7631.0,-7958.0,8078.0,9034.0,15.0,4.0,-1.0,2.0,0.0,7.0,-3510.0,-5673.0,8768.0,12127.0,1.0,16.0,-5.0,1.0
2022-05-13 13:04:56.496093-07:00,2395.5,754.6,1915.4,1802.3,1340.4,1553.4,1666.3,1909.5,3449.1,3437.0,2442.0,2016.4,1776.2,3444.3,1579.6,2333.7,3437.0,3440.7,715.9,1455.2,919.4,581.8,1565.5,2592.9,3443.1,3439.5,1109.5,1081.6,2043.4,2273.4,1943.0,1360.3,-6.0,-7.0,10.0,-7628.0,-7962.0,8080.0,9031.0,21.0,7.0,2.0,-1.0,-13.0,8.0,-3513.0,-5678.0,8764.0,12126.0,-3.0,19.0,-4.0,1.0
2022-05-13 13:04:56.497432-07:00,2394.5,753.8,1903.6,1794.5,1340.4,1553.4,1666.3,1913.4,3441.9,3446.7,2432.4,2006.4,1776.2,3444.3,1579.6,2335.8,3446.7,3440.7,715.9,1455.2,915.2,589.1,1559.0,2583.1,3449.1,3439.5,1109.5,1081.6,2048.4,2262.1,1955.8,1358.5,1.0,-17.0,9.0,-7630.0,-7963.0,8081.0,9028.0,-6.0,-6.0,28.0,0.0,-14.0,2.0,-3519.0,-5682.0,8761.0,12125.0,3.0,18.0,16.0,1.0
2022-05-13 13:04:56.500422-07:00,2416.6,753.8,1903.6,1794.5,1349.4,1556.2,1672.9,1913.4,3441.9,3446.7,2432.4,2006.4,1774.3,3438.2,1568.3,2335.8,3446.7,3433.4,722.5,1455.2,915.2,589.1,1559.0,2596.1,3449.1,3439.5,1111.2,1076.4,2048.4,2262.1,1955.8,1372.1,-13.0,-42.0,-6.0,-7644.0,-7959.0,8077.0,9024.0,-52.0,27.0,25.0,-3.0,-35.0,3.0,-3538.0,-5678.0,8756.0,12125.0,-52.0,19.0,58.0,1.0
2022-05-13 13:04:56.501532-07:00,2416.6,748.8,1906.6,1811.0,1349.4,1556.2,1672.9,1909.5,3441.9,3452.8,2436.7,2006.4,1774.3,3438.2,1568.3,2336.8,3439.5,3433.4,722.5,1455.2,911.8,581.8,1565.5,2596.1,3437.0,3439.5,1111.2,1076.4,2074.5,2257.9,1936.1,1372.1,-19.0,-59.0,-16.0,-7679.0,-7927.0,8061.0,9036.0,-160.0,5.0,59.0,-7.0,-66.0,-12.0,-3591.0,-5644.0,8741.0,12135.0,-163.0,-2.0,177.0,1.0
2022-05-13 13:04:56.585821-07:00,43.0,151.0,60.0,-8481.0,-7032.0,7698.0,9370.0,-440.0,-112.0,197.0,8.0,94.0,8.0,-4522.0,-4641.0,8636.0,12323.0,-281.0,-168.0,349.0,1.0,-27.0,73.0,9.0,-8595.0,-6826.0,7590.0,9506.0,-306.0,-143.0,29.0,-26.0,47.0,40.0,-4652.0,-4440.0,8535.0,12419.0,-313.0,-81.0,102.0,1.0,5.0,2.0,13.0,-4715.0,-4337.0,8430.0,12503.0,-388.0,-97.0,112.0,1.0
2022-05-13 13:04:56.586920-07:00,2375.5,752.1,1904.6,1798.4,1631.3,1589.9,1650.2,1898.7,3435.8,3445.5,2475.9,2012.4,1772.3,3441.9,1576.8,2322.2,3440.7,3435.8,718.4,1446.0,914.4,581.0,1564.6,2572.3,3444.3,3446.7,1098.2,1086.0,2109.8,2249.7,1935.1,1530.1,-4.0,-1.0,15.0,-8635.0,-6687.0,7524.0,9620.0,-435.0,-176.0,0.0,14.0,-37.0,4.0,-4763.0,-4244.0,8358.0,12565.0,-152.0,-96.0,88.0,1.0
2022-05-13 13:04:56.588029-07:00,2361.9,758.7,1911.5,1798.4,1722.4,1589.9,1650.2,1898.7,3434.6,3440.7,2506.9,2012.4,1785.8,3441.9,1576.8,2322.2,3440.7,3435.8,718.4,1447.0,914.4,580.2,1566.5,2564.8,3444.3,3446.7,1098.2,1077.3,2109.8,2260.0,1941.0,1573.9,6.0,-53.0,28.0,-8676.0,-6540.0,7469.0,9726.0,-314.0,-176.0,29.0,15.0,-19.0,6.0,-4786.0,-4191.0,8362.0,12571.0,-32.0,-55.0,98.0,1.0
2022-05-13 13:04:56.687824-07:00,2361.9,758.7,1911.5,1799.4,1722.4,1563.7,1657.7,1880.1,3434.6,3440.7,2506.9,2016.4,1785.8,3440.7,1568.3,2322.2,3441.9,3437.0,722.5,1447.0,911.0,580.2,1566.5,2564.8,3447.9,3444.3,1090.3,1077.3,2111.8,2260.0,1941.0,1573.9,6.0,-11.0,24.0,-8711.0,-6453.0,7469.0,9753.0,-101.0,-64.0,137.0,18.0,-5.0,-11.0,-4814.0,-4159.0,8368.0,12567.0,-71.0,-7.0,92.0,1.0
2022-05-13 13:04:56.774230-07:00,2360.9,747.2,1914.4,1799.4,1764.6,1563.7,1657.7,1880.1,3447.9,3443.1,2502.6,2016.4,1768.5,3440.7,1568.3,2322.2,3441.9,3437.0,722.5,1446.0,911.0,577.0,1567.4,2551.9,3447.9,3444.3,1090.3,1078.2,2111.8,2256.9,1951.9,1588.9,14.0,17.0,24.0,-8739.0,-6402.0,7488.0,9747.0,-33.0,-46.0,105.0,27.0,-19.0,12.0,-4860.0,-4123.0,8338.0,12581.0,-147.0,16.0,94.0,1.0
2022-05-13 13:04:56.778125-07:00,2360.9,747.2,1914.4,1791.6,1764.6,1559.9,1657.7,1900.7,3447.9,3443.1,2502.6,2014.4,1768.5,3443.1,1598.3,2333.7,3437.0,3440.7,722.5,1446.0,910.1,577.0,1567.4,2551.9,3443.1,3440.7,1087.7,1078.2,2107.8,2256.9,1951.9,1588.9,0.0,0.0,-8.0,-8756.0,-6362.0,7481.0,9764.0,-124.0,-73.0,16.0,23.0,-42.0,-23.0,-4919.0,-4076.0,8291.0,12605.0,-183.0,12.0,115.0,1.0
2022-05-13 13:04:56.897481-07:00,2393.4,741.4,1927.2,1791.6,2038.4,1559.9,1657.7,1900.7,3438.2,3437.0,2535.8,2014.4,1771.4,3443.1,1598.3,2333.7,3437.0,3440.7,722.5,1446.0,910.1,581.0,1562.7,2553.0,3443.1,3440.7,1087.7,1080.8,2107.8,2286.9,2004.5,1675.7,76.0,17.0,117.0,-8749.0,-6273.0,7484.0,9825.0,-108.0,-140.0,-16.0,-9.0,-10.0,26.0,-4979.0,-4064.0,8202.0,12644.0,-449.0,96.0,55.0,1.0
2022-05-13 13:04:56.899417-07:00,2393.4,741.4,1927.2,1811.0,2034.4,1557.1,1648.3,1910.5,3438.2,3437.0,2535.8,2019.4,1765.6,3439.5,1585.2,2342.0,3434.6,3443.1,724.1,1436.9,911.0,581.0,1562.7,2553.0,3443.1,3447.9,1087.7,1082.5,2143.3,2286.9,2004.5,1675.7,-24.0,14.0,26.0,-8805.0,-6261.0,7399.0,9847.0,-432.0,144.0,-39.0,0.0,-37.0,5.0,-5073.0,-4013.0,8045.0,12723.0,-411.0,54.0,101.0,1.0
2022-05-13 13:04:56.900531-07:00,2411.3,741.4,2000.5,1811.0,2034.4,1557.1,1648.3,1910.5,3450.4,3446.7,2542.2,2018.4,1765.6,3439.5,1585.2,2342.0,3434.6,3443.1,724.1,1436.9,911.8,583.5,1583.3,2532.5,3443.1,3447.9,1087.7,1082.5,2103.7,2314.9,2049.4,1614.3,-9.0,-52.0,-14.0,-8912.0,-6176.0,7232.0,9928.0,-510.0,80.0,31.0,32.0,-16.0,14.0,-5123.0,-3985.0,7989.0,12747.0,-68.0,30.0,52.0,1.0
2022-05-13 13:04:56.946387-07:00,2411.3,741.4,2000.5,1811.0,1880.1,1542.2,1646.4,1931.1,3450.4,3446.7,2542.2,2018.4,1761.8,3440.7,1608.7,2357.7,3439.5,3439.5,723.3,1438.7,911.8,583.5,1583.3,2532.5,3438.2,3435.8,1097.3,1079.0,2103.7,2314.9,2049.4,1614.3,11.0,7.0,16.0,-8982.0,-6098.0,7173.0,9956.0,-136.0,1.0,122.0,28.0,11.0,14.0,-5164.0,-3968.0,7926.0,12775.0,-262.0,73.0,18.0,1.0
2022-05-13 13:04:56.991497-07:00,2364.0,752.1,2050.4,1798.4,1880.1,1542.2,1646.4,1931.1,3444.3,3441.9,2557.3,2016.4,1761.8,3440.7,1608.7,2357.7,3439.5,3439.5,723.3,1438.7,911.8,581.0,1590.8,2507.9,3438.2,3435.8,1097.3,1079.0,2055.4,2307.7,2034.4,1561.8,25.0,34.0,48.0,-9028.0,-6058.0,7126.0,9972.0,-225.0,94.0,-29.0,13.0,-22.0,41.0,-5217.0,-3951.0,7809.0,12831.0,-320.0,97.0,0.0,1.0
2022-05-13 13:04:57.035928-07:00,2364.0,752.1,2050.4,1798.4,1811.0,1523.6,1647.3,1934.1,3444.3,3441.9,2557.3,2016.4,1752.1,3439.5,1634.1,2338.9,3433.4,3437.0,725.8,1430.5,911.8,581.0,1590.8,2507.9,3454.0,3440.7,1090.3,1083.4,2055.4,2307.7,2034.4,1561.8,-14.0,-21.0,24.0,-9065.0,-6061.0,7022.0,10011.0,-194.0,153.0,-79.0,23.0,-28.0,39.0,-5262.0,-3957.0,7725.0,12861.0,-106.0,114.0,9.0,1.0
2022-05-13 13:04:57.124086-07:00,2361.9,758.7,2055.4,1796.5,1811.0,1523.6,1647.3,1977.6,3435.8,3441.9,2556.2,2025.4,1752.1,3439.5,1634.1,2344.1,3428.6,3437.0,725.8,1430.5,910.1,577.0,1604.0,2502.6,3443.1,3440.7,1090.3,1083.4,2047.4,2343.1,2044.4,1541.3,-1.0,-41.0,61.0,-9083.0,-6081.0,6985.0,10008.0,74.0,107.0,17.0,37.0,-12.0,40.0,-5304.0,-3987.0,7686.0,12858.0,41.0,181.0,-35.0,1.0
2022-05-13 13:04:57.169074-07:00,2364.0,758.7,2055.4,1796.5,1768.5,1521.8,1659.6,1977.6,3438.2,3441.9,2556.2,2025.4,1751.2,3438.2,1673.8,2344.1,3428.6,3438.2,723.3,1425.9,910.1,577.0,1604.0,2509.0,3443.1,3449.1,1099.0,1088.6,2047.4,2343.1,2044.4,1514.3,32.0,0.0,102.0,-9058.0,-6256.0,6979.0,9927.0,476.0,458.0,-216.0,-17.0,-10.0,16.0,-5328.0,-4086.0,7675.0,12823.0,151.0,239.0,-56.0,1.0
2022-05-13 13:04:57.214212-07:00,2364.0,762.0,2017.4,1782.9,1768.5,1521.8,1659.6,1969.7,3438.2,3441.9,2642.8,2055.4,1751.2,3438.2,1673.8,2439.8,3440.7,3438.2,723.3,1425.9,916.0,584.3,1639.8,2509.0,3438.2,3449.1,1099.0,1088.6,2023.4,2386.0,2105.8,1514.3,11.0,-4.0,40.0,-8970.0,-6647.0,6945.0,9775.0,789.0,768.0,-397.0,-47.0,-61.0,21.0,-5322.0,-4200.0,7736.0,12753.0,399.0,177.0,-70.0,1.0
2022-05-13 13:04:57.259098-07:00,2331.6,762.0,2017.4,1782.9,1733.0,1519.0,1656.8,1969.7,3444.3,3441.9,2642.8,2055.4,1750.2,3446.7,1864.5,2439.8,3440.7,3445.5,721.6,1415.8,916.0,584.3,1639.8,2535.8,3438.2,3443.1,1109.5,1122.6,2023.4,2386.0,2105.8,1507.8,-39.0,-38.0,-46.0,-8749.0,-7253.0,6909.0,9569.0,1397.0,779.0,-826.0,-54.0,17.0,-9.0,-5278.0,-4321.0,7874.0,12645.0,475.0,81.0,-53.0,1.0
2022-05-13 13:04:57.350970-07:00,2331.6,762.0,1979.6,1789.7,1733.0,1519.0,1656.8,1920.3,3444.3,3443.1,2974.6,2122.0,1750.2,3446.7,1864.5,2564.8,3432.2,3445.5,721.6,1415.8,908.4,584.3,1712.9,2535.8,3446.7,3443.1,1109.5,1122.6,2015.4,2480.2,2159.5,1507.8,-21.0,6.0,-30.0,-8243.0,-7878.0,7050.0,9419.0,1592.0,106.0,-937.0,-48.0,-73.0,-32.0,-5251.0,-4366.0,8013.0,12554.0,548.0,-46.0,90.0,1.0
2022-05-13 13:04:57.352216-07:00,2529.3,746.3,1979.6,1789.7,1711.0,1556.2,1614.3,1920.3,3439.5,3445.5,2974.6,2122.0,1746.4,3445.5,2099.7,2564.8,3432.2,3438.2,715.1,1409.4,908.4,584.3,1711.9,2597.2,3446.7,3435.8,1127.9,1161.2,2015.4,2480.2,2150.4,1486.6,-45.0,-122.0,-79.0,-7457.0,-8440.0,7411.0,9310.0,2512.0,-583.0,-1167.0,-18.0,7.0,-46.0,-5179.0,-4401.0,8265.0,12407.0,727.0,-195.0,158.0,1.0
2022-05-13 13:04:57.484866-07:00,2529.3,746.3,2044.4,1790.7,1711.0,1556.2,1593.6,1896.7,3439.5,3445.5,3238.7,2134.1,1746.4,3445.5,2037.4,2469.5,3435.8,3434.6,715.1,1409.4,908.4,579.4,1711.9,2597.2,3445.5,3447.9,1127.9,1161.2,1998.5,2485.5,2150.4,1486.6,43.0,-74.0,-117.0,-6772.0,-8835.0,7782.0,9164.0,2013.0,-638.0,-517.0,-146.0,53.0,-127.0,-5076.0,-4313.0,8534.0,12298.0,484.0,-685.0,184.0,1.0
2022-05-13 13:04:57.486860-07:00,2666.8,741.4,2044.4,1790.7,1704.3,1547.8,1593.6,1896.7,3438.2,3437.0,3238.7,2134.1,1772.3,3443.1,2037.4,2469.5,3435.8,3434.6,720.8,1393.9,908.4,579.4,1741.6,2618.8,3445.5,3447.9,1085.1,1147.1,1998.5,2485.5,1951.9,1471.8,11.0,-3.0,26.0,-6138.0,-9014.0,8267.0,9010.0,1394.0,-711.0,112.0,-2.0,36.0,-32.0,-4994.0,-4243.0,8799.0,12169.0,578.0,-283.0,183.0,1.0
2022-05-13 13:04:57.530949-07:00,2666.8,741.4,1928.2,1780.1,1704.3,1547.8,1582.4,1880.1,3438.2,3437.0,2852.6,1974.6,1772.3,3443.1,1732.0,2279.6,3435.8,3433.4,720.8,1393.9,902.5,582.6,1741.6,2618.8,3449.1,3440.7,1085.1,1147.1,1933.1,2301.4,1951.9,1471.8,14.0,43.0,34.0,-5794.0,-8967.0,8718.0,8858.0,818.0,-543.0,481.0,5.0,9.0,8.0,-4933.0,-4202.0,9027.0,12040.0,565.0,-189.0,147.0,1.0
2022-05-13 13:04:57.574076-07:00,2694.1,748.0,1928.2,1780.1,1660.6,1496.7,1582.4,1880.1,3439.5,3438.2,2852.6,1974.6,1769.5,3445.5,1732.0,2279.6,3435.8,3433.4,715.9,1386.6,902.5,582.6,1802.3,2518.6,3449.1,3440.7,1028.0,1119.1,1933.1,2301.4,1826.5,1470.9,0.0,35.0,65.0,-5633.0,-8846.0,9060.0,8739.0,521.0,-337.0,501.0,1.0,19.0,-27.0,-4884.0,-4197.0,9221.0,11914.0,539.0,-90.0,93.0,1.0
2022-05-13 13:04:57.619047-07:00,2694.1,748.0,1789.7,1759.8,1660.6,1496.7,1539.4,1812.9,3439.5,3438.2,2612.3,1901.6,1769.5,3445.5,1648.3,2204.5,3441.9,3439.5,715.9,1386.6,910.1,577.8,1802.3,2518.6,3439.5,3440.7,1028.0,1119.1,1881.1,2173.8,1826.5,1470.9,32.0,94.0,67.0,-5555.0,-8719.0,9327.0,8635.0,473.0,-225.0,366.0,-16.0,4.0,1.0,-4848.0,-4216.0,9350.0,11821.0,346.0,-11.0,38.0,1.0
2022-05-13 13:04:57.710165-07:00,2664.6,733.2,1724.4,1759.8,1600.2,1471.8,1539.4,1812.9,3439.5,3451.6,2532.5,1901.6,1747.3,3440.7,1648.3,2204.5,3441.9,3439.5,721.6,1388.5,910.1,576.2,1785.8,2485.5,3439.5,3440.7,1004.8,1104.3,1881.1,2136.1,1770.4,1454.3,-9.0,27.0,45.0,-5537.0,-8694.0,9463.0,8522.0,290.0,106.0,123.0,-28.0,46.0,5.0,-4818.0,-4251.0,9441.0,11748.0,218.0,-6.0,6.0,1.0
2022-05-13 13:04:57.712253-07:00,2664.6,733.2,1724.4,1738.7,1600.2,1458.9,1516.2,1779.1,3439.5,3451.6,2532.5,1872.3,1747.3,3449.1,1615.2,2179.9,3437.0,3441.9,716.7,1388.5,912.7,576.2,1785.8,2485.5,3444.3,3443.1,989.3,1104.3,1851.8,2136.1,1770.4,1454.3,-20.0,31.0,0.0,-5545.0,-8745.0,9513.0,8410.0,163.0,225.0,93.0,7.0,112.0,66.0,-4767.0,-4238.0,9500.0,11726.0,148.0,-169.0,-61.0,1.0
2022-05-13 13:04:57.800219-07:00,2629.7,736.5,1711.0,1738.7,1575.8,1458.9,1516.2,1779.1,3451.6,3435.8,2505.8,1872.3,1735.8,3449.1,1615.2,2179.9,3437.0,3441.9,716.7,1380.3,912.7,578.6,1761.8,2447.3,3444.3,3443.1,989.3,1097.3,1851.8,2102.7,1749.3,1456.2,-62.0,125.0,-68.0,-5621.0,-8770.0,9528.0,8315.0,23.0,-66.0,222.0,16.0,-19.0,3.0,-4655.0,-4297.0,9580.0,11684.0,325.0,-30.0,-211.0,1.0
2022-05-13 13:04:57.802329-07:00,2629.7,736.5,1711.0,1724.4,1575.8,1455.2,1505.1,1757.9,3451.6,3435.8,2505.8,1866.4,1735.8,3434.6,1593.6,2153.4,3437.0,3439.5,719.2,1380.3,911.8,578.6,1761.8,2447.3,3435.8,3440.7,978.2,1097.3,1835.2,2102.7,1749.3,1456.2,50.0,-6.0,127.0,-5571.0,-8702.0,9627.0,8307.0,190.0,-31.0,92.0,21.0,-57.0,19.0,-4595.0,-4376.0,9657.0,11615.0,281.0,70.0,-58.0,1.0
2022-05-13 13:04:58.027864-07:00,2622.1,729.0,1692.9,1724.4,1550.6,1455.2,1505.1,1757.9,3437.0,3443.1,2481.3,1866.4,1733.9,3434.6,1593.6,2153.4,3437.0,3439.5,719.2,1383.9,911.8,572.2,1734.9,2428.2,3435.8,3440.7,978.2,1101.7,1835.2,2096.7,1733.9,1448.8,3.0,-41.0,85.0,-5543.0,-8740.0,9692.0,8209.0,245.0,109.0,59.0,-24.0,14.0,-30.0,-4610.0,-4393.0,9676.0,11587.0,-26.0,40.0,64.0,1.0
2022-05-13 13:04:58.029386-07:00,2622.1,729.0,1692.9,1725.3,1537.6,1440.5,1504.1,1752.1,3437.0,3443.1,2481.3,1857.6,1719.6,3441.9,1579.6,2148.3,3433.4,3440.7,717.5,1371.2,910.1,572.2,1734.9,2428.2,3439.5,3440.7,973.1,1097.3,1825.5,2096.7,1733.9,1448.8,8.0,-6.0,-10.0,-5557.0,-8756.0,9712.0,8159.0,-63.0,99.0,72.0,-18.0,41.0,-18.0,-4622.0,-4402.0,9681.0,11574.0,67.0,71.0,-30.0,1.0
2022-05-13 13:04:58.070518-07:00,2602.6,722.5,1688.1,1723.4,1537.6,1440.5,1504.1,1752.1,3440.7,3440.7,2472.7,1845.0,1719.6,3441.9,1579.6,2148.3,3433.4,3440.7,717.5,1371.2,909.3,576.2,1730.1,2395.5,3439.5,3440.7,973.1,1097.3,1813.9,2078.5,1730.1,1431.4,-7.0,50.0,-23.0,-5587.0,-8770.0,9710.0,8125.0,86.0,34.0,-26.0,-10.0,-26.0,-27.0,-4624.0,-4441.0,9675.0,11564.0,-72.0,67.0,-27.0,1.0
2022-05-13 13:04:58.071815-07:00,2602.6,722.5,1688.1,1723.4,1522.7,1437.8,1491.2,1737.8,3440.7,3440.7,2472.7,1845.0,1712.9,3440.7,1576.8,2133.1,3447.9,3449.1,712.6,1370.3,909.3,576.2,1730.1,2395.5,3449.1,3447.9,973.9,1096.4,1813.9,2078.5,1730.1,1431.4,15.0,-22.0,17.0,-5569.0,-8799.0,9688.0,8133.0,-124.0,54.0,-138.0,-2.0,5.0,2.0,-4644.0,-4448.0,9653.0,11572.0,37.0,24.0,39.0,1.0
2022-05-13 13:04:58.072904-07:00,2591.8,721.6,1682.4,1714.8,1522.7,1437.8,1491.2,1737.8,3449.1,3449.1,2453.6,1817.8,1712.9,3440.7,1576.8,2133.1,3447.9,3449.1,712.6,1370.3,900.8,575.4,1712.9,2400.8,3449.1,3447.9,973.9,1096.4,1807.1,2075.5,1718.6,1436.0,-10.0,-35.0,4.0,-5591.0,-8812.0,9650.0,8148.0,13.0,-5.0,129.0,-19.0,1.0,-16.0,-4656.0,-4443.0,9669.0,11556.0,-20.0,-11.0,25.0,1.0
2022-05-13 13:04:58.113837-07:00,2591.8,721.6,1682.4,1714.8,1515.3,1436.0,1493.0,1730.1,3449.1,3449.1,2453.6,1817.8,1718.6,3440.7,1567.4,2115.9,3431.0,3435.8,710.1,1363.9,900.8,575.4,1712.9,2400.8,3433.4,3439.5,969.6,1089.5,1807.1,2075.5,1718.6,1436.0,4.0,53.0,17.0,-5624.0,-8765.0,9693.0,8125.0,-52.0,4.0,72.0,-10.0,10.0,22.0,-4663.0,-4434.0,9649.0,11573.0,-81.0,6.0,-14.0,1.0
2022-05-13 13:04:58.159080-07:00,2593.9,723.3,1665.3,1711.0,1515.3,1436.0,1493.0,1728.2,3449.1,3444.3,2429.3,1835.2,1718.6,3440.7,1567.4,2119.9,3439.5,3435.8,710.1,1363.9,908.4,577.8,1705.3,2388.1,3440.7,3439.5,969.6,1089.5,1795.5,2054.4,1704.3,1434.1,-17.0,16.0,26.0,-5629.0,-8762.0,9669.0,8154.0,-87.0,-51.0,-77.0,-9.0,-15.0,6.0,-4669.0,-4430.0,9629.0,11589.0,4.0,14.0,13.0,1.0
2022-05-13 13:04:58.204193-07:00,2577.7,723.3,1665.3,1711.0,1505.1,1439.6,1496.7,1728.2,3438.2,3444.3,2429.3,1835.2,1711.9,3441.9,1554.3,2119.9,3439.5,3426.2,717.5,1360.3,908.4,577.8,1705.3,2376.6,3440.7,3444.3,970.5,1090.3,1795.5,2054.4,1704.3,1426.8,-5.0,-25.0,31.0,-5630.0,-8755.0,9652.0,8181.0,-12.0,19.0,30.0,2.0,7.0,4.0,-4675.0,-4434.0,9631.0,11583.0,-13.0,26.0,5.0,1.0
2022-05-13 13:04:58.340463-07:00,2577.7,717.5,1653.9,1711.0,1505.1,1439.6,1496.7,1723.4,3438.2,3440.7,2431.4,1826.5,1711.9,3441.9,1554.3,2107.8,3439.5,3426.2,717.5,1360.3,902.5,574.6,1698.6,2376.6,3437.0,3444.3,970.5,1090.3,1790.7,2059.4,1700.5,1426.8,0.0,25.0,31.0,-5646.0,-8751.0,9653.0,8174.0,-12.0,26.0,15.0,-5.0,-4.0,-5.0,-4685.0,-4437.0,9618.0,11588.0,-21.0,17.0,-2.0,1.0
2022-05-13 13:04:58.341758-07:00,2571.3,717.5,1653.9,1711.0,1491.2,1431.4,1485.6,1723.4,3444.3,3440.7,2431.4,1826.5,1702.4,3433.4,1553.4,2107.8,3439.5,3437.0,714.2,1360.3,902.5,574.6,1698.6,2359.8,3437.0,3437.0,968.8,1085.1,1790.7,2059.4,1700.5,1422.2,0.0,-5.0,14.0,-5660.0,-8750.0,9637.0,8183.0,-39.0,13.0,-10.0,-11.0,-5.0,8.0,-4690.0,-4437.0,9611.0,11593.0,-27.0,6.0,19.0,1.0
2022-05-13 13:04:58.342823-07:00,2571.3,727.4,1645.4,1708.1,1491.2,1431.4,1485.6,1722.4,3444.3,3449.1,2412.4,1817.8,1702.4,3433.4,1553.4,2101.7,3441.9,3437.0,714.2,1360.3,903.4,573.0,1695.7,2359.8,3443.1,3437.0,968.8,1085.1,1783.9,2041.4,1696.7,1422.2,-13.0,-9.0,19.0,-5681.0,-8741.0,9625.0,8192.0,-63.0,17.0,44.0,-4.0,2.0,1.0,-4696.0,-4432.0,9609.0,11593.0,9.0,17.0,16.0,1.0
2022-05-13 13:04:58.384096-07:00,2574.5,727.4,1645.4,1708.1,1494.0,1431.4,1477.3,1722.4,3439.5,3449.1,2412.4,1817.8,1704.3,3433.4,1547.8,2101.7,3441.9,3441.9,711.0,1358.5,903.4,573.0,1695.7,2355.6,3443.1,3438.2,959.4,1079.0,1783.9,2041.4,1696.7,1413.1,2.0,11.0,36.0,-5697.0,-8718.0,9627.0,8204.0,-14.0,-22.0,42.0,0.0,2.0,8.0,-4701.0,-4439.0,9612.0,11586.0,29.0,29.0,-1.0,1.0
2022-05-13 13:04:58.581983-07:00,2574.5,720.8,1649.2,1711.0,1494.0,1431.4,1477.3,1718.6,3439.5,3440.7,2410.3,1812.9,1704.3,3433.4,1542.2,2115.9,3441.9,3440.7,711.0,1358.5,905.9,575.4,1691.0,2355.6,3449.1,3449.1,959.4,1079.0,1779.1,2037.4,1695.7,1413.1,-6.0,-1.0,24.0,-5715.0,-8716.0,9617.0,8205.0,-11.0,65.0,-4.0,-2.0,0.0,0.0,-4704.0,-4452.0,9618.0,11575.0,36.0,28.0,1.0,1.0
2022-05-13 13:04:58.583204-07:00,2548.7,719.2,1649.2,1711.0,1504.1,1430.5,1477.3,1718.6,3441.9,3437.0,2410.3,1812.9,1711.0,3439.5,1542.2,2115.9,3441.9,3440.7,714.2,1364.8,905.9,575.4,1686.2,2348.3,3449.1,3449.1,958.5,1082.5,1779.1,2037.4,1685.3,1414.0,0.0,2.0,18.0,-5730.0,-8720.0,9610.0,8199.0,21.0,23.0,19.0,-3.0,-6.0,3.0,-4707.0,-4462.0,9623.0,11566.0,10.0,17.0,1.0,1.0
2022-05-13 13:04:58.712149-07:00,2548.7,719.2,1653.9,1706.2,1504.1,1430.5,1481.0,1721.5,3441.9,3437.0,2400.8,1814.9,1711.0,3439.5,1536.6,2087.6,3433.4,3437.0,714.2,1364.8,909.3,573.0,1686.2,2348.3,3447.9,3440.7,958.5,1082.5,1779.1,2040.4,1685.3,1414.0,-3.0,-4.0,16.0,-5736.0,-8727.0,9610.0,8188.0,6.0,40.0,2.0,-7.0,-2.0,0.0,-4707.0,-4466.0,9625.0,11562.0,5.0,1.0,3.0,1.0
2022-05-13 13:04:58.713234-07:00,2546.5,715.1,1653.9,1706.2,1486.6,1434.1,1481.0,1721.5,3441.9,3447.9,2400.8,1814.9,1706.2,3439.5,1536.6,2087.6,3433.4,3437.0,708.5,1356.7,909.3,573.0,1684.3,2328.5,3447.9,3440.7,952.6,1082.5,1779.1,2040.4,1687.2,1411.3,0.0,0.0,23.0,-5743.0,-8723.0,9610.0,8186.0,-1.0,0.0,30.0,-3.0,0.0,4.0,-4708.0,-4469.0,9626.0,11560.0,9.0,13.0,-1.0,1.0
2022-05-13 13:04:58.714324-07:00,2546.5,715.1,1647.3,1707.2,1486.6,1434.1,1486.6,1718.6,3441.9,3447.9,2409.2,1811.9,1706.2,3439.5,1541.3,2085.6,3428.6,3443.1,708.5,1356.7,903.4,576.2,1684.3,2328.5,3433.4,3444.3,952.6,1082.5,1762.7,2031.4,1687.2,1411.3,-2.0,2.0,23.0,-5749.0,-8717.0,9610.0,8188.0,2.0,2.0,11.0,-3.0,-4.0,-1.0,-4712.0,-4473.0,9623.0,11559.0,8.0,14.0,2.0,1.0
2022-05-13 13:04:58.718173-07:00,2546.5,719.2,1636.0,1707.2,1477.3,1423.1,1486.6,1718.6,3438.2,3438.2,2386.0,1811.9,1697.6,3439.5,1541.3,2085.6,3428.6,3443.1,717.5,1358.5,903.4,574.6,1684.3,2332.6,3433.4,3444.3,959.4,1076.4,1762.7,2021.4,1690.0,1404.9,4.0,-6.0,23.0,-5754.0,-8713.0,9607.0,8193.0,-9.0,6.0,13.0,-2.0,2.0,-8.0,-4709.0,-4477.0,9631.0,11553.0,32.0,0.0,-2.0,1.0
2022-05-13 13:04:58.790689-07:00,2546.5,719.2,1636.0,1707.2,1477.3,1419.5,1471.8,1710.0,3438.2,3438.2,2386.0,1811.0,1697.6,3438.2,1527.3,2087.6,3444.3,3440.7,705.2,1358.5,905.0,574.6,1684.3,2332.6,3435.8,3441.9,953.4,1076.4,1776.2,2021.4,1690.0,1404.9,0.0,5.0,16.0,-5759.0,-8711.0,9612.0,8185.0,28.0,4.0,22.0,-4.0,-2.0,6.0,-4708.0,-4476.0,9631.0,11553.0,-25.0,-8.0,2.0,1.0
2022-05-13 13:04:58.792040-07:00,2549.7,717.5,1644.5,1707.2,1468.1,1419.5,1471.8,1710.0,3449.1,3435.8,2383.9,1811.0,1697.6,3438.2,1527.3,2087.6,3444.3,3440.7,705.2,1363.9,905.0,576.2,1691.9,2333.7,3435.8,3441.9,953.4,1076.4,1776.2,2023.4,1677.6,1405.8,-4.0,-3.0,23.0,-5767.0,-8705.0,9607.0,8192.0,-46.0,-2.0,6.0,-1.0,-7.0,2.0,-4705.0,-4472.0,9632.0,11555.0,17.0,-13.0,9.0,1.0
2022-05-13 13:04:58.834002-07:00,2549.7,717.5,1644.5,1701.4,1468.1,1422.2,1471.8,1711.0,3449.1,3435.8,2383.9,1810.0,1697.6,3444.3,1514.3,2082.6,3438.2,3449.1,714.2,1363.9,905.9,576.2,1691.9,2333.7,3440.7,3446.7,956.8,1076.4,1771.4,2023.4,1677.6,1405.8,-8.0,-9.0,21.0,-5787.0,-8694.0,9601.0,8197.0,-21.0,26.0,40.0,-1.0,-3.0,4.0,-4702.0,-4475.0,9643.0,11546.0,30.0,-6.0,11.0,1.0
2022-05-13 13:04:58.879374-07:00,2528.3,716.7,1636.0,1701.4,1489.3,1422.2,1471.8,1711.0,3438.2,3444.3,2376.6,1810.0,1699.5,3444.3,1514.3,2082.6,3438.2,3449.1,714.2,1368.5,905.9,575.4,1685.3,2316.0,3440.7,3446.7,956.8,1075.6,1771.4,2019.4,1674.8,1406.7,-2.0,3.0,25.0,-5809.0,-8684.0,9607.0,8185.0,-8.0,38.0,54.0,-2.0,0.0,0.0,-4699.0,-4479.0,9654.0,11537.0,34.0,4.0,-4.0,1.0
2022-05-13 13:04:58.924568-07:00,2528.3,716.7,1636.0,1701.4,1468.1,1426.8,1462.6,1719.6,3438.2,3444.3,2376.6,1811.0,1691.9,3444.3,1513.4,2078.5,3444.3,3445.5,716.7,1361.2,909.3,575.4,1685.3,2316.0,3447.9,3440.7,951.7,1077.3,1759.8,2019.4,1674.8,1406.7,4.0,9.0,13.0,-5819.0,-8683.0,9614.0,8170.0,41.0,16.0,21.0,-2.0,2.0,3.0,-4697.0,-4480.0,9658.0,11534.0,-4.0,-10.0,-6.0,1.0
2022-05-13 13:04:59.194980-07:00,2535.8,708.5,1642.6,1689.1,1468.1,1426.8,1462.6,1719.6,3440.7,3445.5,2374.5,1797.4,1691.9,3444.3,1513.4,2078.5,3444.3,3445.5,716.7,1361.2,905.9,577.0,1674.8,2317.0,3447.9,3440.7,951.7,1077.3,1755.0,2014.4,1681.4,1402.1,-2.0,0.0,11.0,-5820.0,-8688.0,9613.0,8166.0,-10.0,0.0,-4.0,-3.0,2.0,4.0,-4696.0,-4476.0,9655.0,11538.0,-4.0,-1.0,1.0,1.0
2022-05-13 13:04:59.197046-07:00,2535.8,708.5,1642.6,1689.1,1463.5,1423.1,1464.4,1701.4,3440.7,3445.5,2374.5,1797.4,1691.9,3450.4,1514.3,2073.5,3437.0,3437.0,715.1,1360.3,905.9,577.0,1674.8,2317.0,3428.6,3452.8,955.1,1080.8,1755.0,2014.4,1681.4,1402.1,0.0,3.0,25.0,-5819.0,-8681.0,9610.0,8177.0,0.0,-20.0,4.0,-2.0,18.0,0.0,-4697.0,-4475.0,9651.0,11541.0,-45.0,-4.0,4.0,1.0
2022-05-13 13:04:59.198640-07:00,2526.1,712.6,1634.1,1691.9,1463.5,1423.1,1464.4,1701.4,3438.2,3439.5,2359.8,1803.2,1691.9,3450.4,1514.3,2073.5,3437.0,3437.0,715.1,1360.3,906.7,573.0,1675.7,2319.1,3428.6,3452.8,955.1,1080.8,1749.3,2011.4,1668.2,1397.6,-4.0,13.0,16.0,-5823.0,-8672.0,9604.0,8191.0,-55.0,-29.0,5.0,-38.0,36.0,-108.0,-4699.0,-4450.0,9621.0,11575.0,-257.0,-130.0,-27.0,1.0
2022-05-13 13:04:59.285492-07:00,2526.1,712.6,1634.1,1691.9,1463.5,1419.5,1468.1,1710.0,3438.2,3439.5,2359.8,1803.2,1697.6,3435.8,1512.5,2076.5,3437.0,3431.0,711.8,1352.1,906.7,573.0,1675.7,2319.1,3439.5,3441.9,953.4,1075.6,1749.3,2011.4,1668.2,1397.6,45.0,53.0,38.0,-5907.0,-8622.0,9520.0,8281.0,-686.0,129.0,-28.0,-23.0,113.0,67.0,-4714.0,-4321.0,9432.0,11772.0,-1351.0,-151.0,-66.0,1.0
2022-05-13 13:04:59.286715-07:00,2526.1,713.4,1652.0,1708.1,1463.5,1419.5,1468.1,1710.0,3445.5,3449.1,2357.7,1800.3,1697.6,3435.8,1512.5,2076.5,3437.0,3431.0,711.8,1352.1,902.5,574.6,1669.1,2312.9,3439.5,3441.9,953.4,1075.6,1757.0,2009.4,1664.4,1394.8,-2.0,246.0,-43.0,-6387.0,-8708.0,9031.0,8382.0,-1740.0,1651.0,-405.0,-23.0,113.0,67.0,-4714.0,-4321.0,9432.0,11772.0,-1351.0,-151.0,-66.0,1.0
2022-05-13 13:04:59.287413-07:00,2526.1,713.4,1652.0,1708.1,1463.5,1419.5,1468.1,1710.0,3445.5,3449.1,2357.7,1800.3,1697.6,3435.8,1512.5,2076.5,3437.0,3431.0,711.8,1352.1,902.5,574.6,1669.1,2312.9,3439.5,3441.9,953.4,1075.6,1757.0,2009.4,1664.4,1394.8,-2.0,246.0,-43.0,-6387.0,-8708.0,9031.0,8382.0,-1740.0,1651.0,-405.0,-1.0,16.0,-41.0,-4895.0,-4031.0,8501.0,12488.0,-834.0,81.0,-375.0,1.0
2022-05-13 13:04:59.288475-07:00,2495.1,713.4,1825.5,1721.5,1460.8,1433.2,1476.4,1842.0,3437.0,3443.1,2635.1,1855.7,1693.8,3444.3,1566.5,2218.8,3439.5,3438.2,708.5,1353.1,905.9,576.2,1700.5,2313.9,3438.2,3440.7,1015.1,1132.2,1748.3,2106.8,1772.3,1392.1,-24.0,-15.0,-138.0,-7644.0,-8483.0,7458.0,9078.0,-1703.0,242.0,-181.0,-92.0,24.0,43.0,-4866.0,-4048.0,8171.0,12712.0,-923.0,148.0,-414.0,1.0
2022-05-13 13:04:59.374920-07:00,2453.6,713.4,1825.5,1721.5,1460.8,1460.8,1515.3,1842.0,3447.9,3443.1,2635.1,1855.7,1707.2,3438.2,1949.9,2218.8,3439.5,3441.9,711.8,1357.6,905.9,576.2,1700.5,2386.0,3438.2,3444.3,1092.1,1144.5,1748.3,2106.8,1772.3,1399.4,-146.0,-7.0,-86.0,-8053.0,-8160.0,6969.0,9404.0,-1976.0,-87.0,58.0,-118.0,-173.0,-70.0,-4894.0,-4042.0,7801.0,12934.0,-473.0,107.0,-192.0,1.0
2022-05-13 13:04:59.376132-07:00,2453.6,727.4,1767.5,1702.4,1460.8,1460.8,1515.3,1844.0,3447.9,3437.0,2997.4,2081.6,1707.2,3438.2,1949.9,2503.6,3433.4,3441.9,711.8,1357.6,902.5,575.4,1733.9,2386.0,3443.1,3444.3,1092.1,1144.5,1773.3,2434.6,2139.2,1399.4,-85.0,-247.0,-45.0,-8462.0,-7506.0,6693.0,9782.0,-1502.0,-939.0,651.0,9.0,4.0,-34.0,-4837.0,-4120.0,7806.0,12928.0,479.0,57.0,-161.0,1.0
2022-05-13 13:04:59.465500-07:00,2396.6,727.4,1767.5,1702.4,1447.9,1496.7,1510.6,1844.0,3438.2,3437.0,2997.4,2081.6,1718.6,3444.3,1987.5,2503.6,3433.4,3440.7,711.0,1363.0,902.5,575.4,1733.9,2438.8,3443.1,3446.7,1093.8,1142.7,1773.3,2434.6,2139.2,1390.3,18.0,-28.0,-21.0,-8711.0,-7165.0,6746.0,9783.0,-206.0,-23.0,568.0,71.0,4.0,-36.0,-4783.0,-4185.0,7870.0,12888.0,108.0,29.0,-78.0,1.0
2022-05-13 13:04:59.509199-07:00,2396.6,720.0,1680.5,1699.5,1447.9,1496.7,1605.8,1944.0,3438.2,3441.9,3003.1,2132.1,1718.6,3444.3,1883.0,2543.3,3435.8,3439.5,711.0,1363.0,907.6,578.6,1777.2,2438.8,3438.2,3444.3,1093.8,1142.7,1791.6,2520.8,2200.4,1390.3,79.0,-23.0,-2.0,-8859.0,-6996.0,6764.0,9760.0,-304.0,-201.0,369.0,37.0,1.0,-27.0,-4716.0,-4220.0,7933.0,12863.0,117.0,-104.0,-96.0,1.0
2022-05-13 13:04:59.556066-07:00,2343.1,724.9,1680.5,1699.5,1456.2,1493.0,1605.8,1944.0,3441.9,3445.5,3003.1,2132.1,1715.8,3435.8,1883.0,2543.3,3435.8,3439.5,714.2,1372.1,907.6,578.6,1784.9,2421.9,3438.2,3444.3,1192.9,1140.1,1791.6,2520.8,2156.5,1392.1,-5.0,17.0,0.0,-8923.0,-6836.0,6842.0,9760.0,-323.0,-322.0,291.0,36.0,-78.0,-8.0,-4670.0,-4175.0,7972.0,12871.0,132.0,-209.0,-22.0,1.0
2022-05-13 13:04:59.601073-07:00,2343.1,724.9,1971.7,1766.6,1456.2,1493.0,1704.3,2020.4,3441.9,3445.5,2959.8,2148.3,1715.8,3435.8,1818.7,2536.8,3433.4,3438.2,714.2,1372.1,905.0,579.4,1784.9,2421.9,3438.2,3449.1,1192.9,1140.1,1794.5,2505.8,2156.5,1392.1,9.0,-86.0,23.0,-8980.0,-6593.0,6914.0,9825.0,-206.0,-426.0,295.0,45.0,32.0,32.0,-4595.0,-4121.0,8078.0,12848.0,342.0,-222.0,-21.0,1.0
2022-05-13 13:04:59.647706-07:00,2328.5,716.7,1971.7,1766.6,1452.5,1480.1,1704.3,2020.4,3437.0,3438.2,2959.8,2148.3,1711.9,3437.0,1818.7,2536.8,3433.4,3438.2,719.2,1376.6,905.0,579.4,1765.6,2432.4,3438.2,3449.1,1223.9,1123.5,1794.5,2505.8,2111.8,1379.4,44.0,-21.0,124.0,-8947.0,-6499.0,7020.0,9842.0,269.0,-241.0,145.0,22.0,14.0,9.0,-4529.0,-4100.0,8200.0,12802.0,313.0,-137.0,-9.0,1.0
2022-05-13 13:04:59.690608-07:00,2328.5,716.7,1933.1,1759.8,1452.5,1480.1,1773.3,2097.7,3437.0,3438.2,2888.5,2142.2,1711.9,3437.0,1759.8,2524.0,3437.0,3435.8,719.2,1376.6,906.7,575.4,1765.6,2432.4,3431.0,3443.1,1223.9,1123.5,1770.4,2452.6,2111.8,1379.4,3.0,-18.0,82.0,-8912.0,-6450.0,7159.0,9806.0,258.0,-171.0,197.0,13.0,0.0,-4.0,-4479.0,-4091.0,8302.0,12756.0,218.0,-98.0,5.0,1.0
2022-05-13 13:04:59.825517-07:00,2382.9,716.7,1933.1,1759.8,1445.1,1493.0,1773.3,2097.7,3438.2,3441.9,2888.5,2142.2,1711.0,3449.1,1759.8,2524.0,3437.0,3435.8,722.5,1393.9,906.7,575.4,1733.9,2464.2,3431.0,3443.1,1199.1,1119.1,1770.4,2452.6,2070.5,1380.3,21.0,-16.0,65.0,-8906.0,-6431.0,7268.0,9744.0,121.0,-1.0,166.0,17.0,-21.0,-8.0,-4464.0,-4062.0,8353.0,12737.0,50.0,-83.0,48.0,1.0
2022-05-13 13:04:59.827693-07:00,2382.9,716.7,2049.4,1794.5,1445.1,1518.0,1850.8,2132.1,3438.2,3441.9,2839.2,2134.1,1711.0,3433.4,1733.9,2500.4,3445.5,3439.5,717.5,1393.9,906.7,581.0,1733.9,2464.2,3443.1,3443.1,1175.3,1119.1,1779.1,2395.5,2070.5,1380.3,12.0,-55.0,43.0,-8961.0,-6401.0,7279.0,9704.0,7.0,-27.0,97.0,-2.0,-2.0,-6.0,-4434.0,-4048.0,8406.0,12717.0,24.0,-99.0,17.0,1.0
2022-05-13 13:04:59.828774-07:00,2452.6,724.1,2074.5,1794.5,1448.8,1518.0,1850.8,2132.1,3443.1,3439.5,2783.5,2134.1,1726.3,3433.4,1733.9,2500.4,3445.5,3439.5,717.5,1405.8,906.7,583.5,1707.2,2442.0,3443.1,3443.1,1175.3,1113.9,1779.1,2406.0,2078.5,1396.7,4.0,9.0,35.0,-8970.0,-6415.0,7293.0,9677.0,-16.0,131.0,-75.0,-3.0,36.0,10.0,-4410.0,-4037.0,8431.0,12712.0,60.0,-47.0,-32.0,1.0
2022-05-13 13:05:00.052903-07:00,2452.6,724.1,2074.5,1787.8,1448.8,1500.4,1842.0,2119.9,3443.1,3439.5,2783.5,2133.1,1726.3,3435.8,1698.6,2490.8,3440.7,3433.4,725.8,1405.8,908.4,583.5,1707.2,2442.0,3440.7,3438.2,1137.5,1113.9,1779.1,2406.0,2078.5,1396.7,-8.0,57.0,51.0,-8969.0,-6478.0,7267.0,9656.0,77.0,151.0,-78.0,3.0,59.0,48.0,-4391.0,-4053.0,8419.0,12722.0,-22.0,37.0,-112.0,1.0
2022-05-13 13:05:00.054136-07:00,2416.6,724.1,2024.4,1787.8,1667.2,1500.4,1842.0,2119.9,3437.0,3441.9,2732.6,2133.1,1702.4,3435.8,1698.6,2490.8,3440.7,3433.4,725.8,1415.8,908.4,581.0,1690.0,2425.0,3440.7,3438.2,1137.5,1105.1,1779.1,2382.9,2066.5,1406.7,-20.0,83.0,63.0,-8962.0,-6573.0,7215.0,9636.0,107.0,270.0,-198.0,1.0,72.0,50.0,-4348.0,-4124.0,8376.0,12743.0,-46.0,129.0,-250.0,1.0
2022-05-13 13:05:00.095342-07:00,2416.6,724.1,2024.4,1769.5,1667.2,1481.0,1794.5,2067.5,3437.0,3441.9,2732.6,2111.8,1702.4,3445.5,1691.9,2462.1,3440.7,3435.8,721.6,1415.8,905.9,581.0,1690.0,2425.0,3443.1,3435.8,1121.7,1105.1,1794.5,2382.9,2066.5,1406.7,-21.0,113.0,78.0,-8921.0,-6718.0,7151.0,9621.0,128.0,269.0,-309.0,5.0,72.0,45.0,-4294.0,-4249.0,8278.0,12784.0,-93.0,261.0,-397.0,1.0
2022-05-13 13:05:00.185405-07:00,2424.0,720.8,2004.5,1760.8,1708.1,1481.0,1794.5,2067.5,3441.9,3440.7,2709.5,2113.9,1709.1,3445.5,1691.9,2462.1,3440.7,3435.8,721.6,1415.8,908.4,587.5,1673.8,2432.4,3443.1,3435.8,1121.7,1099.9,1860.6,2361.9,2034.4,1466.3,-3.0,67.0,89.0,-8852.0,-6918.0,7042.0,9624.0,247.0,434.0,-472.0,20.0,34.0,15.0,-4205.0,-4458.0,8190.0,12799.0,145.0,344.0,-534.0,1.0
2022-05-13 13:05:00.186926-07:00,2424.0,720.8,2004.5,1760.8,1809.0,1473.6,1774.3,2070.5,3441.9,3440.7,2709.5,2113.9,1699.5,3441.9,1676.7,2450.4,3437.0,3445.5,720.8,1431.4,908.4,587.5,1673.8,2432.4,3438.2,3445.5,1108.6,1088.6,1860.6,2361.9,2034.4,1466.3,-12.0,21.0,35.0,-8749.0,-7205.0,6938.0,9584.0,615.0,379.0,-482.0,19.0,-17.0,-13.0,-4042.0,-4744.0,8181.0,12754.0,382.0,372.0,-620.0,1.0
2022-05-13 13:05:00.188107-07:00,2405.0,748.8,1984.6,1764.6,1809.0,1473.6,1774.3,2070.5,3438.2,3435.8,2715.0,2124.0,1699.5,3441.9,1676.7,2450.4,3437.0,3445.5,720.8,1431.4,910.1,581.8,1672.9,2450.4,3438.2,3445.5,1108.6,1088.6,1938.0,2357.7,2026.4,1556.2,-10.0,-50.0,-13.0,-8559.0,-7534.0,6963.0,9483.0,836.0,273.0,-311.0,8.0,-54.0,-70.0,-3851.0,-5047.0,8230.0,12665.0,532.0,326.0,-584.0,1.0
2022-05-13 13:05:00.229051-07:00,2405.0,748.8,1984.6,1764.6,1875.2,1466.3,1745.4,2024.4,3438.2,3435.8,2715.0,2124.0,1714.8,3441.9,1665.3,2443.0,3439.5,3434.6,720.8,1446.0,910.1,581.8,1672.9,2450.4,3449.1,3445.5,1100.8,1098.2,1938.0,2357.7,2026.4,1556.2,37.0,-73.0,-37.0,-8353.0,-7821.0,7097.0,9333.0,882.0,154.0,-167.0,1.0,-91.0,-67.0,-3702.0,-5264.0,8259.0,12602.0,203.0,180.0,-372.0,1.0
2022-05-13 13:05:00.545477-07:00,2397.6,766.2,1980.6,1757.9,1875.2,1466.3,1745.4,2024.4,3438.2,3439.5,2667.8,2118.9,1714.8,3441.9,1665.3,2443.0,3439.5,3434.6,720.8,1446.0,909.3,584.3,1656.8,2480.2,3449.1,3445.5,1100.8,1098.2,1920.3,2331.6,2005.5,1619.0,8.0,-109.0,-81.0,-8199.0,-8032.0,7199.0,9213.0,367.0,58.0,-154.0,1.0,-85.0,-35.0,-3632.0,-5345.0,8246.0,12597.0,23.0,24.0,-134.0,1.0
2022-05-13 13:05:00.546947-07:00,2383.9,766.2,1980.6,1757.9,1822.6,1456.2,1713.8,1983.6,3438.2,3439.5,2667.8,2118.9,1717.7,3439.5,1655.8,2438.8,3439.5,3437.0,719.2,1447.0,909.3,584.3,1656.8,2498.3,3443.1,3441.9,1089.5,1098.2,1920.3,2331.6,2005.5,1600.2,3.0,-101.0,-25.0,-8124.0,-8109.0,7221.0,9194.0,117.0,20.0,-114.0,-4.0,-39.0,-3.0,-3620.0,-5362.0,8237.0,12599.0,48.0,31.0,-13.0,1.0
2022-05-13 13:05:00.637910-07:00,2383.9,762.9,1955.8,1756.0,1822.6,1456.2,1713.8,1977.6,3438.2,3439.5,2608.0,2104.8,1717.7,3439.5,1655.8,2419.8,3438.2,3437.0,719.2,1447.0,910.1,583.5,1649.2,2498.3,3445.5,3441.9,1089.5,1098.2,1886.0,2316.0,1996.5,1600.2,-27.0,-83.0,12.0,-8096.0,-8148.0,7211.0,9193.0,110.0,32.0,24.0,-9.0,32.0,-12.0,-3605.0,-5402.0,8284.0,12555.0,111.0,93.0,-24.0,1.0
2022-05-13 13:05:00.639109-07:00,2378.7,762.9,1955.8,1756.0,1786.8,1453.4,1701.4,1977.6,3437.0,3439.5,2608.0,2104.8,1718.6,3446.7,1647.3,2419.8,3438.2,3439.5,721.6,1456.2,910.1,583.5,1649.2,2488.7,3445.5,3445.5,1089.5,1098.2,1886.0,2316.0,1996.5,1566.5,-2.0,70.0,36.0,-8080.0,-8184.0,7263.0,9134.0,164.0,115.0,-3.0,-3.0,-11.0,-10.0,-3624.0,-5437.0,8251.0,12556.0,-71.0,106.0,-33.0,1.0
2022-05-13 13:05:00.640274-07:00,2378.7,746.3,1946.9,1756.0,1786.8,1453.4,1701.4,1965.7,3437.0,3435.8,2570.2,2094.7,1718.6,3446.7,1647.3,2411.3,3451.6,3439.5,721.6,1456.2,916.0,578.6,1639.8,2488.7,3438.2,3445.5,1089.5,1098.2,1871.3,2317.0,1988.5,1566.5,-15.0,-21.0,-20.0,-8074.0,-8242.0,7242.0,9104.0,38.0,73.0,-49.0,-9.0,-16.0,-13.0,-3623.0,-5430.0,8251.0,12560.0,30.0,-60.0,34.0,1.0
2022-05-13 13:05:00.641383-07:00,2368.2,746.3,1946.9,1756.0,1736.8,1443.3,1681.4,1965.7,3441.9,3435.8,2570.2,2094.7,1714.8,3438.2,1634.1,2411.3,3451.6,3438.2,715.1,1440.5,916.0,578.6,1639.8,2475.9,3438.2,3440.7,1084.2,1079.9,1871.3,2317.0,1988.5,1540.3,-6.0,-18.0,16.0,-8055.0,-8218.0,7256.0,9130.0,-28.0,-106.0,40.0,2.0,0.0,-9.0,-3618.0,-5413.0,8272.0,12555.0,15.0,-29.0,26.0,1.0
2022-05-13 13:05:00.725965-07:00,2357.7,735.6,1939.0,1752.1,1726.3,1445.1,1660.6,1944.0,3439.5,3435.8,2539.0,2078.5,1711.0,3438.2,1624.7,2396.6,3433.4,3437.0,714.2,1436.9,905.0,582.6,1623.7,2468.5,3443.1,3444.3,1075.6,1086.8,1810.0,2299.3,1995.5,1527.3,-8.0,7.0,30.0,-8054.0,-8190.0,7280.0,9137.0,-6.0,-22.0,30.0,2.0,0.0,-9.0,-3618.0,-5413.0,8272.0,12555.0,15.0,-29.0,26.0,1.0
2022-05-13 13:05:00.726835-07:00,2357.7,735.6,1939.0,1752.1,1726.3,1445.1,1660.6,1944.0,3439.5,3435.8,2539.0,2078.5,1711.0,3438.2,1624.7,2396.6,3433.4,3437.0,714.2,1436.9,905.0,582.6,1623.7,2468.5,3443.1,3444.3,1075.6,1086.8,1810.0,2299.3,1995.5,1527.3,-8.0,7.0,30.0,-8054.0,-8190.0,7280.0,9137.0,-6.0,-22.0,30.0,-8.0,2.0,-6.0,-3621.0,-5414.0,8301.0,12534.0,23.0,27.0,16.0,1.0
2022-05-13 13:05:00.727952-07:00,2357.7,738.9,1918.3,1741.6,1698.6,1449.7,1658.7,1942.0,3441.9,3443.1,2510.1,2077.5,1704.3,3443.1,1624.7,2389.2,3435.8,3446.7,716.7,1438.7,905.0,582.6,1616.2,2451.5,3446.7,3440.7,1075.6,1085.1,1811.9,2273.4,1958.8,1510.6,-10.0,36.0,26.0,-8053.0,-8167.0,7320.0,9127.0,57.0,2.0,54.0,-2.0,12.0,-12.0,-3628.0,-5416.0,8295.0,12536.0,0.0,-3.0,-1.0,1.0
2022-05-13 13:05:00.815508-07:00,2351.4,728.2,1918.3,1741.6,1683.3,1443.3,1658.7,1942.0,3438.2,3446.7,2510.1,2077.5,1707.2,3440.7,1624.7,2389.2,3435.8,3446.7,719.2,1450.6,905.0,582.6,1613.4,2457.9,3446.7,3440.7,1069.5,1090.3,1811.9,2273.4,1956.8,1486.6,5.0,5.0,5.0,-8050.0,-8163.0,7323.0,9131.0,9.0,-62.0,-6.0,5.0,-3.0,-15.0,-3627.0,-5410.0,8293.0,12539.0,-35.0,-15.0,-8.0,1.0
2022-05-13 13:05:00.905508-07:00,2351.4,728.2,1925.2,1747.3,1683.3,1444.2,1650.2,1936.1,3438.2,3446.7,2518.6,2071.5,1707.2,3438.2,1611.5,2385.0,3440.7,3440.7,718.4,1450.6,913.5,579.4,1613.4,2457.9,3441.9,3444.3,1068.6,1090.3,1794.5,2285.9,1956.8,1486.6,14.0,-3.0,31.0,-8045.0,-8148.0,7329.0,9144.0,-35.0,-39.0,-17.0,5.0,-21.0,-9.0,-3631.0,-5408.0,8284.0,12545.0,3.0,9.0,-7.0,1.0
2022-05-13 13:05:00.906803-07:00,2343.1,729.9,1911.5,1747.3,1670.1,1444.2,1650.2,1936.1,3444.3,3444.3,2506.9,2071.5,1710.0,3438.2,1611.5,2385.0,3440.7,3440.7,718.4,1438.7,913.5,585.9,1612.4,2460.0,3441.9,3444.3,1068.6,1083.4,1794.5,2292.1,1963.7,1481.9,-10.0,-24.0,10.0,-8043.0,-8148.0,7314.0,9157.0,-5.0,13.0,-19.0,2.0,-6.0,-12.0,-3632.0,-5410.0,8290.0,12540.0,3.0,1.0,20.0,1.0
2022-05-13 13:05:01.175148-07:00,2343.1,729.9,1911.5,1748.3,1670.1,1438.7,1645.4,1920.3,3444.3,3444.3,2506.9,2063.5,1710.0,3439.5,1602.1,2383.9,3434.6,3433.4,718.4,1438.7,910.1,585.9,1612.4,2460.0,3452.8,3449.1,1062.5,1083.4,1778.1,2292.1,1963.7,1481.9,-2.0,-5.0,0.0,-8047.0,-8145.0,7318.0,9154.0,4.0,-10.0,28.0,7.0,-16.0,-13.0,-3638.0,-5403.0,8296.0,12538.0,14.0,3.0,27.0,1.0
2022-05-13 13:05:01.176779-07:00,2347.3,734.8,1911.5,1748.3,1664.4,1438.7,1645.4,1920.3,3439.5,3438.2,2500.4,2063.5,1700.5,3439.5,1602.1,2383.9,3434.6,3433.4,718.4,1443.3,910.1,583.5,1610.5,2460.0,3452.8,3449.1,1062.5,1075.6,1778.1,2276.5,1960.8,1474.6,-11.0,-19.0,12.0,-8054.0,-8135.0,7318.0,9157.0,8.0,15.0,10.0,-2.0,-19.0,-5.0,-3653.0,-5399.0,8305.0,12529.0,20.0,18.0,54.0,1.0
2022-05-13 13:05:01.311156-07:00,2347.3,734.8,1911.5,1748.3,1664.4,1441.5,1649.2,1919.3,3439.5,3438.2,2500.4,2055.4,1700.5,3438.2,1613.4,2367.2,3439.5,3443.1,717.5,1443.3,907.6,583.5,1610.5,2460.0,3447.9,3439.5,1070.3,1075.6,1769.5,2276.5,1960.8,1474.6,-4.0,-9.0,20.0,-8054.0,-8134.0,7324.0,9152.0,6.0,-31.0,54.0,5.0,4.0,-3.0,-3671.0,-5394.0,8315.0,12519.0,19.0,12.0,45.0,1.0
2022-05-13 13:05:01.312416-07:00,2338.9,731.5,1906.6,1748.3,1657.7,1441.5,1649.2,1919.3,3440.7,3438.2,2484.4,2055.4,1711.0,3438.2,1613.4,2367.2,3439.5,3443.1,717.5,1439.6,907.6,577.0,1605.8,2448.3,3447.9,3439.5,1070.3,1077.3,1769.5,2264.1,1943.0,1466.3,-9.0,4.0,7.0,-8069.0,-8119.0,7330.0,9148.0,-24.0,8.0,45.0,0.0,17.0,-13.0,-3676.0,-5392.0,8328.0,12510.0,25.0,3.0,8.0,1.0
2022-05-13 13:05:01.354133-07:00,2338.9,731.5,1906.6,1742.6,1660.6,1429.5,1650.2,1919.3,3440.7,3438.2,2484.4,2061.5,1707.2,3444.3,1614.3,2370.3,3438.2,3435.8,716.7,1435.0,905.9,577.0,1605.8,2448.3,3445.5,3440.7,1064.3,1081.6,1774.3,2264.1,1943.0,1466.3,11.0,22.0,12.0,-8083.0,-8101.0,7339.0,9144.0,-3.0,-16.0,31.0,-6.0,-1.0,-5.0,-3668.0,-5402.0,8327.0,12508.0,3.0,7.0,-22.0,1.0
2022-05-13 13:05:01.445912-07:00,2329.5,721.6,1897.7,1747.3,1643.5,1442.4,1644.5,1910.5,3443.1,3437.0,2485.5,2056.4,1709.1,3445.5,1601.1,2370.3,3432.2,3435.8,720.0,1441.5,909.3,580.2,1601.1,2438.8,3438.2,3434.6,1053.9,1072.9,1768.5,2273.4,1943.0,1457.1,-13.0,-2.0,8.0,-8081.0,-8104.0,7339.0,9143.0,27.0,7.0,-21.0,1.0,4.0,-7.0,-3652.0,-5425.0,8316.0,12510.0,-8.0,6.0,-26.0,1.0
2022-05-13 13:05:01.490833-07:00,2332.6,718.4,1886.9,1733.0,1636.9,1436.9,1644.5,1920.3,3441.9,3439.5,2468.5,2045.4,1699.5,3447.9,1616.2,2374.5,3449.1,3439.5,719.2,1438.7,905.0,579.4,1599.3,2432.4,3444.3,3435.8,1051.3,1075.6,1759.8,2222.9,1942.0,1453.4,0.0,7.0,9.0,-8054.0,-8133.0,7345.0,9136.0,27.0,-18.0,-13.0,6.0,-9.0,-8.0,-3645.0,-5430.0,8308.0,12516.0,-18.0,-1.0,-25.0,1.0
2022-05-13 13:05:01.713625-07:00,2329.5,718.4,1886.9,1733.0,1641.6,1430.5,1637.9,1920.3,3440.7,3439.5,2468.5,2045.4,1702.4,3444.3,1602.1,2374.5,3449.1,3433.4,718.4,1442.4,905.0,579.4,1599.3,2428.2,3444.3,3439.5,1048.7,1071.2,1759.8,2222.9,1942.0,1447.0,0.0,-7.0,8.0,-8049.0,-8140.0,7340.0,9139.0,-5.0,17.0,-30.0,0.0,-8.0,-8.0,-3637.0,-5435.0,8305.0,12518.0,6.0,-7.0,-23.0,1.0
2022-05-13 13:05:01.715783-07:00,2329.5,720.0,1896.7,1750.2,1641.6,1430.5,1637.9,1911.5,3440.7,3428.6,2474.9,2043.4,1702.4,3444.3,1602.1,2361.9,3443.1,3433.4,718.4,1442.4,905.9,582.6,1595.5,2428.2,3435.8,3439.5,1048.7,1071.2,1752.1,2259.0,1932.1,1447.0,0.0,-6.0,4.0,-8037.0,-8144.0,7346.0,9141.0,34.0,-36.0,-6.0,1.0,-12.0,-6.0,-3631.0,-5435.0,8305.0,12520.0,-9.0,-12.0,-8.0,1.0
2022-05-13 13:05:01.717272-07:00,2325.4,720.0,1896.7,1750.2,1632.2,1427.7,1637.9,1911.5,3441.9,3428.6,2474.9,2043.4,1703.3,3437.0,1604.9,2361.9,3443.1,3440.7,715.1,1439.6,905.9,582.6,1595.5,2427.1,3435.8,3450.4,1041.8,1074.7,1752.1,2259.0,1932.1,1442.4,-3.0,-15.0,12.0,-8028.0,-8141.0,7351.0,9147.0,10.0,-8.0,-15.0,5.0,-18.0,-4.0,-3629.0,-5437.0,8310.0,12516.0,30.0,3.0,6.0,1.0
2022-05-13 13:05:01.806243-07:00,2325.4,718.4,1896.7,1741.6,1632.2,1427.7,1637.9,1899.7,3441.9,3446.7,2464.2,2030.4,1703.3,3437.0,1604.9,2360.9,3437.0,3440.7,715.1,1439.6,909.3,581.0,1604.9,2427.1,3449.1,3450.4,1041.8,1074.7,1755.0,2250.7,1940.0,1442.4,-3.0,-20.0,11.0,-8028.0,-8135.0,7353.0,9151.0,10.0,-28.0,26.0,0.0,-6.0,-5.0,-3629.0,-5436.0,8318.0,12511.0,7.0,-3.0,17.0,1.0
2022-05-13 13:05:01.807533-07:00,2337.9,719.2,1896.7,1741.6,1630.3,1435.0,1639.8,1899.7,3444.3,3445.5,2464.2,2030.4,1711.0,3443.1,1598.3,2360.9,3437.0,3443.1,719.2,1431.4,909.3,581.0,1604.9,2418.7,3449.1,3456.4,1045.2,1071.2,1755.0,2250.7,1938.0,1442.4,-8.0,-3.0,-1.0,-8032.0,-8130.0,7361.0,9145.0,-19.0,-5.0,25.0,-3.0,4.0,-6.0,-3643.0,-5406.0,8348.0,12500.0,9.0,-16.0,26.0,1.0
2022-05-13 13:05:01.984261-07:00,2326.4,715.9,1894.8,1736.8,1630.3,1427.7,1632.2,1897.7,3441.9,3445.5,2461.0,2034.4,1700.5,3440.7,1598.3,2360.9,3433.4,3434.6,720.8,1432.3,900.8,581.0,1591.7,2417.6,3440.7,3449.1,1040.9,1071.2,1745.4,2252.8,1929.2,1436.9,-4.0,11.0,20.0,-8055.0,-8099.0,7372.0,9144.0,8.0,2.0,17.0,1.0,4.0,0.0,-3647.0,-5402.0,8350.0,12499.0,8.0,1.0,8.0,1.0
2022-05-13 13:05:02.031643-07:00,2323.3,718.4,1894.8,1736.8,1623.7,1423.1,1632.2,1897.7,3444.3,3441.9,2461.0,2034.4,1702.4,3428.6,1598.3,2360.9,3433.4,3434.6,719.2,1441.5,900.8,581.0,1592.7,2415.5,3440.7,3449.1,1040.9,1062.5,1745.4,2252.8,1932.1,1426.8,-12.0,10.0,13.0,-8060.0,-8096.0,7370.0,9144.0,-1.0,3.0,9.0,-6.0,2.0,-3.0,-3647.0,-5402.0,8351.0,12499.0,2.0,6.0,-5.0,1.0
2022-05-13 13:05:02.033110-07:00,2323.3,718.4,1883.0,1743.5,1623.7,1423.1,1634.1,1886.9,3444.3,3441.9,2454.7,2041.4,1702.4,3428.6,1595.5,2348.3,3428.6,3431.0,719.2,1441.5,905.9,584.3,1592.7,2415.5,3435.8,3440.7,1040.9,1062.5,1739.7,2250.7,1932.1,1426.8,-4.0,3.0,16.0,-8059.0,-8096.0,7369.0,9145.0,15.0,8.0,1.0,0.0,6.0,-1.0,-3645.0,-5405.0,8351.0,12498.0,-12.0,5.0,-9.0,1.0
2022-05-13 13:05:02.208585-07:00,2324.3,715.1,1886.9,1743.5,1611.5,1425.0,1634.1,1886.9,3445.5,3447.9,2450.4,2041.4,1698.6,3440.7,1595.5,2348.3,3428.6,3431.0,716.7,1434.1,905.9,579.4,1590.8,2406.0,3435.8,3440.7,1040.9,1060.8,1739.7,2250.7,1928.2,1427.7,-12.0,10.0,-4.0,-8056.0,-8101.0,7369.0,9144.0,-9.0,-19.0,-14.0,2.0,-4.0,-7.0,-3642.0,-5407.0,8346.0,12501.0,-11.0,-3.0,-14.0,1.0
2022-05-13 13:05:02.256718-07:00,2324.3,715.1,1886.9,1743.5,1611.5,1425.0,1627.5,1892.8,3445.5,3447.9,2450.4,2041.4,1698.6,3439.5,1603.0,2353.5,3440.7,3438.2,725.8,1434.1,900.0,579.4,1590.8,2406.0,3449.1,3441.9,1034.9,1060.8,1733.0,2250.7,1928.2,1427.7,3.0,-3.0,9.0,-8055.0,-8098.0,7368.0,9148.0,-10.0,2.0,-18.0,1.0,-22.0,-7.0,-3644.0,-5406.0,8338.0,12507.0,-16.0,-1.0,7.0,1.0
2022-05-13 13:05:02.257937-07:00,2326.4,717.5,1886.0,1743.5,1607.7,1425.0,1627.5,1892.8,3439.5,3437.0,2447.3,2041.4,1694.8,3439.5,1603.0,2353.5,3440.7,3438.2,725.8,1425.9,900.0,579.4,1587.1,2408.1,3449.1,3441.9,1034.9,1066.0,1733.0,2250.7,1928.2,1421.3,-3.0,-29.0,10.0,-8054.0,-8093.0,7365.0,9156.0,-14.0,-13.0,1.0,2.0,-26.0,-8.0,-3655.0,-5398.0,8338.0,12507.0,-35.0,-5.0,50.0,1.0
2022-05-13 13:05:02.300163-07:00,2326.4,717.5,1886.0,1743.5,1607.7,1422.2,1611.5,1874.2,3439.5,3437.0,2447.3,2040.4,1694.8,3440.7,1598.3,2351.4,3441.9,3437.0,714.2,1425.9,902.5,579.4,1587.1,2408.1,3449.1,3449.1,1034.9,1066.0,1741.6,2250.7,1928.2,1421.3,-3.0,-28.0,0.0,-8062.0,-8083.0,7362.0,9160.0,-62.0,-13.0,19.0,-4.0,-55.0,-24.0,-3696.0,-5362.0,8327.0,12517.0,-141.0,-27.0,152.0,1.0
2022-05-13 13:05:02.301618-07:00,2319.1,711.8,1872.3,1743.5,1616.2,1422.2,1611.5,1874.2,3446.7,3433.4,2447.3,2040.4,1691.9,3440.7,1598.3,2351.4,3441.9,3437.0,714.2,1435.0,902.5,583.5,1586.1,2405.0,3449.1,3449.1,1034.9,1066.9,1741.6,2246.6,1919.3,1421.3,-2.0,-43.0,0.0,-8099.0,-8050.0,7330.0,9182.0,-227.0,43.0,4.0,0.0,-9.0,-14.0,-4235.0,-4830.0,7901.0,12836.0,-321.0,-146.0,413.0,1.0
2022-05-13 13:05:02.346421-07:00,2311.8,724.1,1887.9,1740.6,1711.9,1424.1,1629.4,1916.4,3439.5,3438.2,2452.6,2025.4,1695.7,3440.7,1596.4,2349.4,3431.0,3435.8,719.2,1436.0,901.7,581.0,1592.7,2396.6,3443.1,3444.3,1032.3,1067.7,1735.8,2236.3,1927.2,1450.6,-1.0,-41.0,-21.0,-8483.0,-7751.0,6690.0,9572.0,-407.0,-101.0,109.0,6.0,42.0,-14.0,-4341.0,-4693.0,7925.0,12836.0,-66.0,-148.0,336.0,1.0
2022-05-13 13:05:02.435574-07:00,2321.2,727.4,1873.2,1733.0,1711.9,1424.1,1629.4,1916.4,3445.5,3435.8,2451.5,2029.4,1695.7,3440.7,1596.4,2349.4,3431.0,3435.8,719.2,1436.0,900.0,577.8,1597.4,2396.6,3443.1,3444.3,1032.3,1067.7,1738.7,2242.5,1932.1,1481.9,14.0,38.0,-8.0,-8548.0,-7636.0,6699.0,9602.0,-275.0,-246.0,249.0,12.0,34.0,-4.0,-4431.0,-4544.0,7924.0,12860.0,-310.0,-210.0,298.0,1.0
2022-05-13 13:05:02.437649-07:00,2321.2,727.4,1873.2,1733.0,1693.8,1430.5,1632.2,1895.8,3445.5,3435.8,2451.5,2029.4,1691.0,3440.7,1594.6,2345.2,3438.2,3438.2,713.4,1430.5,900.0,577.8,1597.4,2396.6,3444.3,3439.5,1027.1,1062.5,1738.7,2242.5,1932.1,1481.9,16.0,47.0,7.0,-8623.0,-7448.0,6706.0,9677.0,-516.0,-306.0,98.0,7.0,24.0,13.0,-4519.0,-4358.0,7854.0,12936.0,-443.0,-245.0,271.0,1.0
2022-05-13 13:05:02.438791-07:00,2317.0,721.6,1876.2,1728.2,1693.8,1430.5,1632.2,1895.8,3438.2,3433.4,2449.4,2030.4,1691.0,3440.7,1594.6,2345.2,3438.2,3438.2,713.4,1430.5,901.7,575.4,1590.8,2400.8,3444.3,3439.5,1027.1,1062.5,1736.8,2240.4,1912.4,1508.8,-9.0,16.0,27.0,-8692.0,-7250.0,6633.0,9815.0,-614.0,-222.0,-18.0,14.0,-21.0,35.0,-4635.0,-4160.0,7738.0,13030.0,-512.0,-198.0,309.0,1.0
2022-05-13 13:05:02.479094-07:00,2305.6,721.6,1876.2,1728.2,1718.6,1436.9,1616.2,1884.0,3437.0,3433.4,2449.4,2030.4,1696.7,3449.1,1589.9,2350.4,3433.4,3438.2,718.4,1433.2,901.7,575.4,1590.8,2401.8,3438.2,3438.2,1029.7,1062.5,1736.8,2240.4,1912.4,1537.6,-29.0,-25.0,26.0,-8762.0,-7055.0,6511.0,9975.0,-594.0,-252.0,-49.0,18.0,-4.0,23.0,-4720.0,-4015.0,7693.0,13071.0,-44.0,-138.0,210.0,1.0
2022-05-13 13:05:02.527349-07:00,2305.6,729.0,1878.1,1733.0,1718.6,1436.9,1616.2,1897.7,3437.0,3437.0,2466.4,2027.4,1696.7,3449.1,1589.9,2341.0,3440.7,3438.2,718.4,1433.2,902.5,577.0,1587.1,2401.8,3445.5,3438.2,1029.7,1062.5,1745.4,2241.4,1920.3,1537.6,-10.0,-29.0,45.0,-8805.0,-6868.0,6464.0,10097.0,-167.0,-316.0,184.0,1.0,18.0,13.0,-4745.0,-3957.0,7750.0,13046.0,125.0,-65.0,106.0,1.0
2022-05-13 13:05:02.660388-07:00,2307.7,729.0,1878.1,1733.0,1776.2,1453.4,1607.7,1897.7,3446.7,3437.0,2466.4,2027.4,1696.7,3445.5,1599.3,2341.0,3440.7,3435.8,715.1,1425.9,902.5,577.0,1587.1,2382.9,3445.5,3444.3,1035.7,1070.3,1745.4,2241.4,1920.3,1612.4,16.0,7.0,78.0,-8817.0,-6736.0,6559.0,10115.0,132.0,-265.0,193.0,0.0,23.0,9.0,-4771.0,-3920.0,7757.0,13044.0,-114.0,-27.0,84.0,1.0
2022-05-13 13:05:02.662691-07:00,2307.7,726.6,1868.4,1725.3,1776.2,1453.4,1607.7,1872.3,3446.7,3440.7,2475.9,2027.4,1696.7,3445.5,1599.3,2351.4,3440.7,3435.8,715.1,1425.9,894.9,581.0,1588.0,2382.9,3449.1,3444.3,1035.7,1070.3,1712.9,2247.6,1940.0,1612.4,-3.0,23.0,39.0,-8814.0,-6650.0,6625.0,10130.0,-141.0,-156.0,60.0,3.0,2.0,7.0,-4811.0,-3886.0,7729.0,13056.0,-101.0,-1.0,87.0,1.0
2022-05-13 13:05:02.663991-07:00,2308.7,726.6,1868.4,1725.3,1799.4,1458.9,1614.3,1872.3,3445.5,3440.7,2475.9,2027.4,1686.2,3440.7,1598.3,2351.4,3440.7,3434.6,719.2,1426.8,894.9,581.0,1588.0,2387.1,3449.1,3445.5,1027.1,1066.0,1712.9,2247.6,1940.0,1650.2,-9.0,3.0,13.0,-8834.0,-6563.0,6641.0,10160.0,-145.0,-175.0,114.0,28.0,0.0,-32.0,-4876.0,-3829.0,7662.0,13088.0,-389.0,-9.0,130.0,1.0
2022-05-13 13:05:02.794307-07:00,2308.7,740.6,1884.0,1724.4,1799.4,1458.9,1608.7,1884.0,3445.5,3435.8,2519.7,2036.4,1686.2,3440.7,1624.7,2368.2,3439.5,3444.3,719.2,1426.8,900.8,581.8,1595.5,2387.1,3446.7,3449.1,1027.1,1066.0,1798.4,2254.8,1944.0,1650.2,43.0,32.0,26.0,-8865.0,-6449.0,6633.0,10210.0,-370.0,-77.0,-51.0,37.0,-28.0,18.0,-4966.0,-3766.0,7524.0,13152.0,-396.0,86.0,58.0,1.0
2022-05-13 13:05:02.840389-07:00,2323.3,736.5,1884.0,1724.4,1792.6,1500.4,1608.7,1884.0,3438.2,3440.7,2519.7,2036.4,1676.7,3441.9,1624.7,2368.2,3439.5,3444.3,722.5,1426.8,900.8,581.8,1593.6,2374.5,3446.7,3449.1,1033.2,1066.9,1798.4,2254.8,2049.4,1641.6,15.0,46.0,80.0,-8899.0,-6412.0,6526.0,10273.0,-229.0,183.0,-173.0,-1.0,-1.0,6.0,-5058.0,-3715.0,7326.0,13243.0,-603.0,88.0,51.0,1.0
2022-05-13 13:05:02.841776-07:00,2323.3,736.5,1889.9,1728.2,1792.6,1500.4,1601.1,1871.3,3438.2,3440.7,2622.1,2073.5,1676.7,3441.9,1691.9,2403.9,3439.5,3434.6,722.5,1426.8,899.1,581.8,1593.6,2374.5,3441.9,3446.7,1033.2,1066.9,1864.5,2365.1,2049.4,1641.6,-3.0,-2.0,5.0,-8941.0,-6381.0,6356.0,10362.0,-522.0,85.0,-180.0,14.0,-22.0,9.0,-5139.0,-3656.0,7135.0,13332.0,-480.0,40.0,50.0,1.0
2022-05-13 13:05:02.884212-07:00,2323.3,748.8,1889.9,1728.2,1694.8,1510.6,1601.1,1871.3,3437.0,3443.1,2622.1,2073.5,1679.5,3444.3,1691.9,2403.9,3439.5,3434.6,721.6,1418.6,899.1,581.8,1587.1,2349.4,3441.9,3446.7,1029.7,1066.0,1864.5,2365.1,2077.5,1604.9,-7.0,-45.0,2.0,-8994.0,-6292.0,6187.0,10473.0,-467.0,-57.0,-66.0,26.0,-56.0,8.0,-5205.0,-3617.0,7012.0,13383.0,-252.0,73.0,75.0,1.0
2022-05-13 13:05:02.975049-07:00,2323.3,748.8,1945.9,1735.8,1694.8,1510.6,1611.5,1914.4,3437.0,3443.1,2635.1,2071.5,1679.5,3444.3,1694.8,2397.6,3433.4,3439.5,721.6,1418.6,907.6,578.6,1587.1,2349.4,3438.2,3444.3,1029.7,1066.0,1829.4,2359.8,2077.5,1604.9,9.0,-61.0,54.0,-9043.0,-6191.0,6095.0,10545.0,-159.0,-1.0,3.0,7.0,-4.0,34.0,-5248.0,-3638.0,6984.0,13375.0,64.0,135.0,51.0,1.0
2022-05-13 13:05:02.978052-07:00,2320.1,743.9,1945.9,1735.8,1644.5,1490.3,1611.5,1914.4,3434.6,3454.0,2635.1,2071.5,1674.8,3433.4,1694.8,2397.6,3433.4,3439.5,714.2,1413.1,907.6,578.6,1593.6,2355.6,3438.2,3444.3,1028.8,1065.1,1829.4,2359.8,2086.6,1548.7,-18.0,-19.0,34.0,-9056.0,-6226.0,6078.0,10522.0,219.0,194.0,13.0,7.0,4.0,-11.0,-5264.0,-3694.0,7020.0,13334.0,188.0,90.0,4.0,1.0
2022-05-13 13:05:03.019055-07:00,2320.1,743.9,1910.5,1722.4,1644.5,1455.2,1616.2,1936.1,3434.6,3454.0,2671.1,2073.5,1674.8,3441.9,1746.4,2408.1,3428.6,3446.7,718.4,1413.1,898.3,582.6,1593.6,2355.6,3446.7,3443.1,1042.6,1065.1,1817.8,2392.4,2086.6,1548.7,39.0,-13.0,47.0,-9022.0,-6356.0,6132.0,10442.0,385.0,167.0,-60.0,2.0,-16.0,32.0,-5250.0,-3751.0,7092.0,13285.0,439.0,74.0,-27.0,1.0
2022-05-13 13:05:03.110989-07:00,2319.1,731.5,1878.1,1722.4,1612.4,1455.2,1616.2,1936.1,3438.2,3435.8,2750.2,2073.5,1674.8,3441.9,1746.4,2408.1,3428.6,3446.7,718.4,1412.2,898.3,582.6,1593.6,2352.5,3446.7,3443.1,1042.6,1073.8,1817.8,2421.9,2098.7,1529.2,-41.0,-20.0,-48.0,-8952.0,-6580.0,6199.0,10323.0,681.0,253.0,-94.0,0.0,-70.0,-46.0,-5168.0,-3865.0,7316.0,13163.0,1188.0,-93.0,-165.0,1.0
2022-05-13 13:05:03.112185-07:00,2319.1,731.5,1878.1,1712.9,1612.4,1447.0,1605.8,1904.6,3438.2,3435.8,2750.2,2133.1,1674.8,3449.1,1889.9,2504.7,3439.5,3438.2,719.2,1412.2,900.0,582.6,1593.6,2352.5,3447.9,3439.5,1033.2,1073.8,1811.9,2421.9,2098.7,1529.2,61.0,-44.0,-85.0,-8595.0,-6894.0,6544.0,10208.0,1992.0,-514.0,-521.0,-19.0,72.0,-61.0,-4965.0,-4012.0,7714.0,12968.0,893.0,-130.0,-108.0,1.0
2022-05-13 13:05:03.513636-07:00,2298.3,725.8,1859.6,1712.9,1592.7,1447.0,1605.8,1904.6,3433.4,3443.1,2963.2,2133.1,1671.9,3449.1,1889.9,2504.7,3439.5,3438.2,719.2,1412.2,900.0,578.6,1610.5,2336.8,3447.9,3439.5,1033.2,1098.2,1811.9,2436.7,2127.0,1506.0,15.0,46.0,35.0,-7981.0,-7398.0,7133.0,9957.0,2083.0,-56.0,-402.0,-28.0,10.0,-35.0,-4843.0,-4071.0,7976.0,12837.0,545.0,-149.0,1.0,1.0
2022-05-13 13:05:03.516941-07:00,2298.3,725.8,1859.6,1717.7,1592.7,1448.8,1581.4,1867.4,3433.4,3443.1,2963.2,2150.4,1671.9,3441.9,2024.4,2520.8,3433.4,3441.9,715.1,1412.2,896.6,578.6,1610.5,2336.8,3445.5,3433.4,1039.2,1098.2,1803.2,2436.7,2127.0,1506.0,-14.0,-25.0,-25.0,-7638.0,-7707.0,7477.0,9736.0,1018.0,-145.0,-11.0,-47.0,-23.0,-18.0,-4773.0,-4072.0,8146.0,12756.0,265.0,-179.0,113.0,1.0
2022-05-13 13:05:03.606433-07:00,2309.7,712.6,1849.8,1704.3,1565.5,1448.8,1581.4,1867.4,3438.2,3441.9,2972.3,2119.9,1671.9,3441.9,2024.4,2520.8,3433.4,3441.9,715.1,1399.4,902.5,577.8,1604.0,2347.3,3445.5,3433.4,1039.2,1106.0,1777.2,2394.5,2072.5,1496.7,-49.0,-30.0,-11.0,-7528.0,-7750.0,7688.0,9623.0,342.0,-150.0,212.0,-6.0,-28.0,-11.0,-4746.0,-4014.0,8273.0,12703.0,317.0,-199.0,106.0,1.0
2022-05-13 13:05:03.607709-07:00,2309.7,712.6,1849.8,1704.3,1554.3,1448.8,1573.0,1865.4,3438.2,3441.9,2972.3,2119.9,1667.2,3438.2,1993.5,2462.1,3439.5,3434.6,714.2,1393.9,902.5,577.8,1604.0,2347.3,3439.5,3438.2,1023.7,1107.8,1777.2,2394.5,2072.5,1496.7,-3.0,-17.0,3.0,-7462.0,-7697.0,7866.0,9572.0,457.0,-370.0,190.0,11.0,5.0,18.0,-4715.0,-3952.0,8387.0,12659.0,106.0,-184.0,104.0,1.0
2022-05-13 13:05:03.608852-07:00,2319.1,718.4,1842.0,1718.6,1554.3,1448.8,1573.0,1865.4,3439.5,3440.7,2915.6,2069.5,1667.2,3438.2,1993.5,2462.1,3439.5,3434.6,714.2,1393.9,898.3,572.2,1599.3,2356.7,3439.5,3438.2,1023.7,1107.8,1766.6,2328.5,2002.5,1491.2,6.0,24.0,46.0,-7308.0,-7706.0,8060.0,9522.0,431.0,-260.0,-39.0,-88.0,203.0,-88.0,-4524.0,-3960.0,8991.0,12306.0,-24.0,-492.0,66.0,1.0
2022-05-13 13:05:03.649971-07:00,2403.9,710.1,1855.7,1712.9,1528.3,1434.1,1566.5,1856.7,3441.9,3445.5,2858.2,2016.4,1663.4,3441.9,1880.1,2266.2,3434.6,3439.5,715.9,1388.5,912.7,574.6,1573.9,2337.9,3444.3,3440.7,1027.1,1097.3,1748.3,2234.2,1899.7,1470.9,40.0,71.0,-1.0,-5723.0,-9036.0,8646.0,8904.0,1222.0,121.0,-1000.0,36.0,16.0,10.0,-4362.0,-3978.0,9423.0,12033.0,888.0,-42.0,166.0,1.0
2022-05-13 13:05:03.708837-07:00,2475.9,728.2,1723.4,1694.8,1525.5,1442.4,1556.2,1805.2,3444.3,3443.1,2706.2,1949.9,1665.3,3445.5,1746.4,2193.2,3439.5,3441.9,715.9,1381.2,901.7,577.0,1619.0,2333.7,3438.2,3450.4,1040.1,1092.1,1745.4,2138.2,1791.6,1470.9,-5.0,1.0,68.0,-5454.0,-9494.0,8930.0,8295.0,760.0,432.0,675.0,25.0,-18.0,27.0,-4350.0,-3991.0,9673.0,11833.0,677.0,10.0,231.0,1.0
2022-05-13 13:05:03.812078-07:00,2539.0,728.2,1723.4,1694.8,1500.4,1404.0,1545.0,1805.2,3441.9,3443.1,2706.2,1949.9,1669.1,3438.2,1627.5,2193.2,3439.5,3429.8,716.7,1371.2,901.7,577.0,1619.0,2306.6,3438.2,3438.2,988.5,1084.2,1745.4,2138.2,1791.6,1470.9,-30.0,9.0,26.0,-5679.0,-9389.0,9168.0,7999.0,202.0,194.0,1025.0,-9.0,198.0,0.0,-4345.0,-4031.0,9874.0,11654.0,120.0,82.0,12.0,1.0
2022-05-13 13:05:03.813397-07:00,2539.0,728.2,1650.2,1691.9,1500.4,1404.0,1545.0,1750.2,3441.9,3443.1,2562.6,1900.7,1669.1,3438.2,1627.5,2143.3,3449.1,3429.8,716.7,1371.2,901.7,571.4,1626.5,2306.6,3444.3,3438.2,988.5,1084.2,1728.2,2083.6,1734.9,1470.9,17.0,340.0,-53.0,-5755.0,-9297.0,9401.0,7778.0,174.0,107.0,315.0,2.0,-49.0,-4.0,-4350.0,-4075.0,9851.0,11656.0,45.0,103.0,-117.0,1.0
2022-05-13 13:05:03.843353-07:00,2509.0,716.7,1650.2,1691.9,1478.3,1387.5,1508.8,1750.2,3438.2,3445.5,2562.6,1900.7,1670.1,3443.1,1557.1,2143.3,3449.1,3441.9,715.1,1372.1,901.7,571.4,1640.7,2277.6,3444.3,3439.5,967.1,1066.0,1728.2,2083.6,1701.4,1455.2,-9.0,-37.0,38.0,-5789.0,-9238.0,9408.0,7816.0,-170.0,-107.0,66.0,-18.0,-49.0,-22.0,-4353.0,-4122.0,9861.0,11630.0,45.0,67.0,72.0,1.0
2022-05-13 13:05:03.947592-07:00,2509.0,716.7,1620.9,1673.8,1478.3,1387.5,1496.7,1711.9,3438.2,3445.5,2500.4,1877.2,1670.1,3443.1,1545.9,2128.0,3435.8,3440.7,715.1,1372.1,905.9,569.0,1640.7,2277.6,3455.2,3440.7,967.1,1066.0,1718.6,2045.4,1701.4,1455.2,9.0,-83.0,62.0,-5832.0,-9195.0,9425.0,7813.0,-21.0,95.0,153.0,-12.0,11.0,-25.0,-4405.0,-4104.0,9847.0,11629.0,-161.0,32.0,96.0,1.0
2022-05-13 13:05:03.966329-07:00,2486.6,705.2,1620.9,1673.8,1457.1,1378.5,1496.7,1711.9,3440.7,3443.1,2500.4,1877.2,1670.1,3439.5,1545.9,2128.0,3435.8,3440.7,715.1,1368.5,905.9,569.0,1619.9,2257.9,3455.2,3440.7,952.6,1064.3,1718.6,2045.4,1688.1,1448.8,-1.0,9.0,-24.0,-5936.0,-9166.0,9393.0,7807.0,-256.0,114.0,62.0,4.0,31.0,-2.0,-4439.0,-4076.0,9804.0,11662.0,-140.0,-16.0,-10.0,1.0
2022-05-13 13:05:04.010769-07:00,2486.6,705.2,1603.0,1671.0,1457.1,1378.5,1486.6,1718.6,3440.7,3443.1,2473.8,1864.5,1670.1,3439.5,1529.2,2107.8,3446.7,3435.8,715.1,1368.5,897.4,569.0,1619.9,2257.9,3445.5,3439.5,952.6,1064.3,1708.1,2027.4,1688.1,1448.8,0.0,56.0,-1.0,-5969.0,-9145.0,9354.0,7854.0,-106.0,-92.0,-76.0,-7.0,-23.0,4.0,-4442.0,-4057.0,9765.0,11700.0,-63.0,-30.0,-6.0,1.0
2022-05-13 13:05:04.012003-07:00,2490.8,711.0,1603.0,1671.0,1446.0,1381.2,1486.6,1718.6,3445.5,3441.9,2473.8,1864.5,1655.8,3444.3,1529.2,2107.8,3446.7,3435.8,719.2,1361.2,897.4,569.0,1606.8,2252.8,3445.5,3439.5,950.0,1060.8,1708.1,2027.4,1675.7,1441.5,-3.0,-29.0,49.0,-5960.0,-9119.0,9326.0,7924.0,-137.0,-63.0,-40.0,-3.0,15.0,2.0,-4439.0,-4046.0,9760.0,11709.0,27.0,-8.0,-10.0,1.0
2022-05-13 13:05:04.054515-07:00,2490.8,711.0,1592.7,1654.9,1446.0,1374.8,1487.5,1713.8,3445.5,3441.9,2446.2,1848.9,1655.8,3449.1,1518.0,2101.7,3437.0,3441.9,716.7,1361.2,898.3,568.2,1606.8,2252.8,3440.7,3449.1,943.2,1060.8,1710.0,2012.4,1675.7,1441.5,-8.0,19.0,37.0,-5967.0,-9117.0,9316.0,7933.0,26.0,28.0,-20.0,1.0,10.0,-4.0,-4432.0,-4052.0,9766.0,11704.0,35.0,2.0,-15.0,1.0
2022-05-13 13:05:04.190471-07:00,2474.9,706.9,1587.1,1654.9,1446.0,1374.8,1487.5,1713.8,3444.3,3445.5,2427.1,1848.9,1657.7,3449.1,1518.0,2101.7,3437.0,3441.9,716.7,1361.2,898.3,572.2,1600.2,2240.4,3440.7,3449.1,943.2,1057.3,1710.0,2012.4,1656.8,1446.0,-6.0,1.0,23.0,-5973.0,-9119.0,9311.0,7931.0,9.0,-12.0,24.0,0.0,-1.0,0.0,-4429.0,-4055.0,9770.0,11702.0,15.0,7.0,-4.0,1.0
2022-05-13 13:05:04.280788-07:00,2474.9,706.9,1587.1,1661.5,1446.0,1373.9,1466.3,1703.3,3444.3,3445.5,2427.1,1852.8,1657.7,3438.2,1516.2,2091.6,3439.5,3437.0,719.2,1361.2,902.5,572.2,1600.2,2240.4,3447.9,3440.7,938.1,1057.3,1700.5,2012.4,1656.8,1446.0,-6.0,0.0,33.0,-5989.0,-9113.0,9302.0,7938.0,-7.0,26.0,0.0,0.0,5.0,-10.0,-4428.0,-4059.0,9776.0,11695.0,13.0,6.0,-1.0,1.0
2022-05-13 13:05:04.282624-07:00,2454.7,709.3,1582.4,1661.5,1432.3,1373.9,1466.3,1703.3,3431.0,3445.5,2421.9,1852.8,1652.0,3438.2,1516.2,2091.6,3439.5,3437.0,719.2,1356.7,902.5,569.8,1596.4,2230.1,3447.9,3440.7,938.1,1053.0,1700.5,2001.5,1656.8,1433.2,2.0,2.0,25.0,-5995.0,-9107.0,9302.0,7938.0,-3.0,-3.0,19.0,-6.0,2.0,-4.0,-4428.0,-4059.0,9776.0,11695.0,-32.0,-6.0,5.0,1.0
2022-05-13 13:05:04.326128-07:00,2454.7,709.3,1582.4,1659.6,1432.3,1371.2,1455.2,1701.4,3431.0,3445.5,2421.9,1839.1,1652.0,3444.3,1513.4,2082.6,3439.5,3428.6,709.3,1356.7,904.2,569.8,1596.4,2230.1,3449.1,3443.1,936.4,1053.0,1694.8,2001.5,1656.8,1433.2,-2.0,0.0,13.0,-6004.0,-9101.0,9297.0,7946.0,-54.0,-12.0,-2.0,0.0,1.0,-1.0,-4432.0,-4054.0,9762.0,11707.0,-29.0,-1.0,-1.0,1.0
2022-05-13 13:05:04.327340-07:00,2461.0,695.4,1576.8,1659.6,1419.5,1371.2,1455.2,1701.4,3438.2,3428.6,2399.7,1839.1,1639.8,3444.3,1513.4,2082.6,3439.5,3428.6,709.3,1353.1,904.2,573.0,1589.9,2218.8,3449.1,3443.1,936.4,1051.3,1694.8,1993.5,1649.2,1432.3,1.0,0.0,37.0,-6018.0,-9083.0,9282.0,7973.0,-36.0,-8.0,-8.0,-1.0,3.0,2.0,-4433.0,-4054.0,9762.0,11708.0,16.0,11.0,-4.0,1.0
2022-05-13 13:05:04.460579-07:00,2461.0,695.4,1576.8,1655.8,1415.8,1371.2,1470.9,1703.3,3438.2,3428.6,2399.7,1836.2,1641.6,3443.1,1507.8,2068.5,3428.6,3446.7,714.2,1360.3,901.7,573.0,1589.9,2218.8,3439.5,3444.3,928.8,1053.0,1679.5,1993.5,1649.2,1432.3,0.0,7.0,31.0,-6025.0,-9080.0,9275.0,7979.0,16.0,23.0,-7.0,-2.0,-3.0,-8.0,-4434.0,-4057.0,9763.0,11705.0,8.0,8.0,1.0,1.0
2022-05-13 13:05:04.461946-07:00,2458.9,703.6,1570.2,1654.9,1415.8,1371.2,1470.9,1703.3,3439.5,3450.4,2398.7,1829.4,1641.6,3443.1,1507.8,2068.5,3428.6,3446.7,714.2,1360.3,902.5,572.2,1591.7,2218.8,3439.5,3444.3,928.8,1053.0,1684.3,1992.5,1647.3,1427.7,2.0,-6.0,18.0,-6029.0,-9079.0,9270.0,7982.0,-7.0,7.0,6.0,-2.0,10.0,-5.0,-4433.0,-4057.0,9763.0,11705.0,-8.0,-2.0,-5.0,1.0
2022-05-13 13:05:04.463131-07:00,2458.9,703.6,1570.2,1654.9,1413.1,1373.9,1469.0,1695.7,3439.5,3450.4,2398.7,1829.4,1643.5,3439.5,1500.4,2071.5,3438.2,3449.1,712.6,1353.1,902.5,572.2,1591.7,2218.8,3449.1,3440.7,929.6,1050.4,1684.3,1992.5,1647.3,1427.7,0.0,11.0,18.0,-6032.0,-9077.0,9268.0,7986.0,-20.0,-3.0,1.0,4.0,0.0,7.0,-4434.0,-4055.0,9759.0,11708.0,-7.0,-3.0,1.0,1.0
2022-05-13 13:05:04.641304-07:00,2451.5,711.0,1559.9,1647.3,1413.1,1373.9,1469.0,1695.7,3445.5,3443.1,2393.4,1817.8,1643.5,3439.5,1500.4,2071.5,3438.2,3449.1,712.6,1353.1,900.8,572.2,1590.8,2206.5,3449.1,3440.7,929.6,1050.4,1683.3,1991.5,1647.3,1418.6,-8.0,-2.0,31.0,-6041.0,-9070.0,9259.0,7996.0,-14.0,-5.0,6.0,0.0,9.0,0.0,-4435.0,-4057.0,9761.0,11706.0,21.0,10.0,-3.0,1.0
2022-05-13 13:05:04.642863-07:00,2451.5,711.0,1559.9,1647.3,1400.3,1371.2,1455.2,1683.3,3445.5,3443.1,2393.4,1817.8,1644.5,3433.4,1496.7,2067.5,3439.5,3437.0,711.8,1349.4,900.8,572.2,1590.8,2206.5,3438.2,3444.3,936.4,1049.6,1683.3,1991.5,1647.3,1418.6,-3.0,7.0,27.0,-6045.0,-9065.0,9259.0,7999.0,12.0,4.0,14.0,-2.0,-8.0,-4.0,-4435.0,-4059.0,9763.0,11704.0,4.0,5.0,8.0,1.0
2022-05-13 13:05:04.686162-07:00,2444.1,703.6,1556.2,1648.3,1400.3,1371.2,1455.2,1684.3,3446.7,3433.4,2390.3,1821.6,1644.5,3433.4,1496.7,2061.5,3441.9,3437.0,711.8,1349.4,896.6,568.2,1588.9,2208.6,3440.7,3444.3,936.4,1049.6,1680.5,1980.6,1641.6,1425.0,-3.0,-1.0,15.0,-6055.0,-9059.0,9258.0,8000.0,-18.0,8.0,13.0,0.0,2.0,-4.0,-4434.0,-4059.0,9763.0,11704.0,-12.0,-6.0,-3.0,1.0
2022-05-13 13:05:04.687494-07:00,2440.9,703.6,1556.2,1648.3,1397.6,1373.9,1451.6,1684.3,3443.1,3433.4,2390.3,1821.6,1638.8,3439.5,1491.2,2061.5,3441.9,3437.0,710.1,1354.9,896.6,568.2,1588.9,2210.6,3440.7,3438.2,925.4,1049.6,1680.5,1980.6,1641.6,1422.2,-2.0,4.0,12.0,-6057.0,-9057.0,9256.0,8003.0,-22.0,-5.0,-7.0,-1.0,5.0,3.0,-4435.0,-4058.0,9760.0,11706.0,-3.0,2.0,7.0,1.0
2022-05-13 13:05:04.729274-07:00,2440.9,700.3,1554.3,1640.7,1397.6,1373.9,1451.6,1680.5,3443.1,3435.8,2379.7,1823.6,1638.8,3439.5,1491.2,2063.5,3439.5,3437.0,710.1,1354.9,900.8,568.2,1583.3,2210.6,3449.1,3438.2,925.4,1049.6,1671.9,1972.7,1639.8,1422.2,-6.0,1.0,24.0,-6065.0,-9052.0,9246.0,8014.0,-9.0,8.0,-8.0,2.0,0.0,0.0,-4436.0,-4058.0,9759.0,11707.0,2.0,6.0,3.0,1.0
2022-05-13 13:05:04.774176-07:00,2443.0,700.3,1554.3,1640.7,1399.4,1379.4,1458.0,1680.5,3441.9,3435.8,2379.7,1823.6,1636.0,3432.2,1497.7,2063.5,3439.5,3451.6,710.1,1353.1,900.8,568.2,1583.3,2201.4,3449.1,3456.4,922.0,1049.6,1671.9,1972.7,1639.8,1414.0,-2.0,-8.0,19.0,-6073.0,-9049.0,9237.0,8022.0,-17.0,-12.0,12.0,-4.0,-6.0,-7.0,-4436.0,-4058.0,9759.0,11707.0,-16.0,0.0,0.0,1.0
2022-05-13 13:05:04.819164-07:00,2443.0,696.2,1557.1,1651.1,1399.4,1379.4,1458.0,1671.0,3441.9,3444.3,2369.3,1814.9,1636.0,3432.2,1497.7,2052.4,3441.9,3451.6,710.1,1353.1,899.1,575.4,1585.2,2201.4,3443.1,3456.4,922.0,1049.6,1668.2,1972.7,1630.3,1414.0,-2.0,-2.0,18.0,-6078.0,-9039.0,9236.0,8030.0,-29.0,-11.0,7.0,0.0,-6.0,2.0,-4437.0,-4058.0,9757.0,11709.0,-8.0,-2.0,-1.0,1.0
2022-05-13 13:05:04.864711-07:00,2425.0,696.2,1557.1,1651.1,1388.5,1363.0,1450.6,1671.0,3435.8,3444.3,2369.3,1814.9,1643.5,3441.9,1491.2,2052.4,3441.9,3443.1,719.2,1346.7,899.1,575.4,1585.2,2186.0,3443.1,3449.1,927.1,1043.5,1668.2,1972.7,1630.3,1410.3,-7.0,-3.0,19.0,-6087.0,-9032.0,9227.0,8042.0,-28.0,3.0,5.0,-1.0,0.0,0.0,-4437.0,-4058.0,9757.0,11709.0,1.0,3.0,-5.0,1.0
2022-05-13 13:05:04.911171-07:00,2425.0,686.4,1561.8,1647.3,1388.5,1363.0,1441.5,1671.0,3435.8,3428.6,2357.7,1813.9,1643.5,3441.9,1483.8,2052.4,3437.0,3440.7,719.2,1346.7,898.3,569.8,1582.4,2186.0,3438.2,3444.3,927.1,1043.5,1664.4,1970.7,1635.0,1410.3,-3.0,-2.0,15.0,-6090.0,-9027.0,9223.0,8049.0,-15.0,-17.0,10.0,1.0,-5.0,9.0,-4436.0,-4058.0,9758.0,11708.0,12.0,3.0,-2.0,1.0
2022-05-13 13:05:05.270628-07:00,2437.7,698.7,1561.8,1647.3,1383.9,1368.5,1441.5,1671.0,3447.9,3449.1,2357.7,1813.9,1634.1,3445.5,1483.8,2052.4,3437.0,3440.7,712.6,1353.1,898.3,569.8,1580.5,2177.9,3438.2,3444.3,923.7,1044.4,1664.4,1970.7,1631.3,1407.6,-7.0,-6.0,18.0,-6096.0,-9024.0,9221.0,8051.0,11.0,35.0,0.0,-2.0,8.0,-6.0,-4435.0,-4061.0,9763.0,11703.0,8.0,6.0,-5.0,1.0
2022-05-13 13:05:05.272008-07:00,2437.7,698.7,1551.5,1648.3,1383.9,1368.5,1451.6,1673.8,3447.9,3449.1,2360.9,1818.7,1634.1,3445.5,1477.3,2051.4,3428.6,3435.8,712.6,1353.1,900.0,572.2,1580.5,2177.9,3438.2,3447.9,923.7,1044.4,1666.3,1965.7,1631.3,1407.6,-3.0,2.0,18.0,-6094.0,-9027.0,9221.0,8049.0,3.0,-20.0,6.0,3.0,8.0,-6.0,-4435.0,-4062.0,9764.0,11702.0,22.0,10.0,3.0,1.0
2022-05-13 13:05:05.273287-07:00,2436.7,699.5,1551.5,1648.3,1387.5,1354.9,1451.6,1673.8,3443.1,3438.2,2360.9,1818.7,1642.6,3439.5,1477.3,2051.4,3428.6,3435.8,711.8,1349.4,900.0,572.2,1582.4,2185.0,3438.2,3447.9,925.4,1049.6,1666.3,1965.7,1628.4,1407.6,1.0,8.0,15.0,-6097.0,-9022.0,9220.0,8053.0,23.0,0.0,5.0,-1.0,-1.0,-8.0,-4436.0,-4061.0,9762.0,11704.0,0.0,1.0,-2.0,1.0
2022-05-13 13:05:05.274458-07:00,2436.7,699.5,1558.1,1650.2,1387.5,1354.9,1445.1,1668.2,3443.1,3438.2,2355.6,1816.8,1642.6,3439.5,1481.9,2042.4,3439.5,3441.9,711.8,1349.4,905.9,569.8,1582.4,2185.0,3439.5,3451.6,925.4,1049.6,1669.1,1962.8,1628.4,1407.6,3.0,-2.0,17.0,-6098.0,-9019.0,9219.0,8057.0,-16.0,-8.0,-2.0,-2.0,0.0,7.0,-4436.0,-4061.0,9762.0,11704.0,-5.0,-2.0,3.0,1.0
2022-05-13 13:05:05.360648-07:00,2416.6,700.3,1548.7,1650.2,1373.9,1367.6,1445.1,1668.2,3440.7,3441.9,2351.4,1816.8,1639.8,3449.1,1481.9,2042.4,3439.5,3441.9,713.4,1345.8,905.9,569.0,1577.7,2185.0,3439.5,3451.6,910.1,1041.8,1669.1,1961.8,1621.8,1412.2,-9.0,-1.0,15.0,-6103.0,-9020.0,9215.0,8058.0,-12.0,11.0,-1.0,-3.0,5.0,-1.0,-4435.0,-4061.0,9763.0,11703.0,8.0,3.0,-4.0,1.0
2022-05-13 13:05:05.362123-07:00,2416.6,700.3,1548.7,1646.4,1373.9,1354.0,1435.0,1672.9,3440.7,3441.9,2351.4,1810.0,1639.8,3438.2,1481.9,2038.4,3440.7,3433.4,714.2,1345.8,898.3,569.0,1577.7,2185.0,3438.2,3444.3,917.7,1041.8,1664.4,1961.8,1621.8,1412.2,-2.0,1.0,14.0,-6110.0,-9016.0,9208.0,8065.0,9.0,-14.0,3.0,-1.0,7.0,-5.0,-4435.0,-4061.0,9763.0,11703.0,-8.0,-5.0,1.0,1.0
2022-05-13 13:05:05.363346-07:00,2440.9,692.1,1541.3,1646.4,1375.7,1358.5,1438.7,1674.8,3440.7,3437.0,2338.9,1800.3,1636.9,3449.1,1472.7,2044.4,3440.7,3439.5,719.2,1345.8,895.7,569.0,1579.6,2185.0,3446.7,3445.5,921.1,1043.5,1655.8,1954.8,1620.9,1399.4,0.0,5.0,15.0,-6109.0,-9012.0,9208.0,8070.0,-19.0,-16.0,-4.0,1.0,30.0,-24.0,-4435.0,-4057.0,9751.0,11714.0,-63.0,-24.0,-24.0,1.0
2022-05-13 13:05:05.450747-07:00,2440.9,692.1,1541.3,1644.5,1380.3,1363.0,1435.0,1665.3,3440.7,3437.0,2338.9,1804.2,1642.6,3439.5,1465.4,2039.4,3431.0,3437.0,711.8,1350.3,901.7,569.0,1579.6,2185.0,3440.7,3439.5,917.7,1041.8,1665.3,1954.8,1620.9,1399.4,15.0,32.0,-9.0,-6113.0,-9001.0,9203.0,8084.0,-87.0,-40.0,5.0,-42.0,92.0,-43.0,-4455.0,-3981.0,9612.0,11847.0,-917.0,-133.0,-18.0,1.0
2022-05-13 13:05:05.452427-07:00,2430.3,682.3,1546.9,1642.6,1380.3,1363.0,1435.0,1665.3,3438.2,3445.5,2341.0,1804.2,1642.6,3439.5,1465.4,2039.4,3431.0,3437.0,711.8,1350.3,895.7,568.2,1579.6,2179.9,3440.7,3439.5,917.7,1041.8,1661.5,1947.9,1612.4,1405.8,-42.0,131.0,-80.0,-6163.0,-8933.0,9125.0,8210.0,-791.0,-170.0,-174.0,-86.0,85.0,34.0,-4584.0,-3726.0,9108.0,12271.0,-2007.0,-149.0,15.0,1.0
2022-05-13 13:05:05.541201-07:00,2430.3,682.3,1546.9,1642.6,1378.5,1402.1,1436.0,1663.4,3438.2,3445.5,2341.0,1804.2,1637.9,3439.5,1513.4,2039.4,3439.5,3445.5,720.8,1345.8,895.7,568.2,1579.6,2179.9,3449.1,3444.3,933.9,1059.9,1661.5,1947.9,1612.4,1405.8,-136.0,104.0,-116.0,-6445.0,-8640.0,8639.0,8811.0,-2668.0,-198.0,-597.0,-64.0,38.0,8.0,-4712.0,-3530.0,8491.0,12715.0,-1654.0,78.0,-224.0,1.0
2022-05-13 13:05:05.584171-07:00,2421.9,703.6,1713.8,1668.2,1378.5,1402.1,1436.0,1663.4,3440.7,3437.0,2367.2,1798.4,1637.9,3439.5,1513.4,2039.4,3439.5,3445.5,720.8,1345.8,894.9,569.0,1627.5,2174.8,3449.1,3444.3,933.9,1059.9,1654.9,2031.4,1698.6,1405.8,-22.0,26.0,-14.0,-6814.0,-8231.0,7942.0,9550.0,-2546.0,-279.0,-482.0,-46.0,-9.0,6.0,-4753.0,-3470.0,7991.0,13036.0,-1206.0,144.0,-372.0,1.0
2022-05-13 13:05:05.629284-07:00,2421.9,703.6,1713.8,1668.2,1372.1,1426.8,1436.9,1677.6,3440.7,3437.0,2367.2,1798.4,1634.1,3441.9,1738.7,2091.6,3441.9,3438.2,714.2,1349.4,894.9,569.0,1627.5,2174.8,3449.1,3438.2,988.5,1082.5,1654.9,2031.4,1698.6,1405.8,-40.0,-41.0,-31.0,-7166.0,-7924.0,7325.0,10032.0,-1994.0,152.0,-264.0,-32.0,-118.0,-36.0,-4783.0,-3459.0,7573.0,13276.0,-992.0,194.0,-199.0,1.0
2022-05-13 13:05:05.720360-07:00,2414.5,707.7,1755.0,1673.8,1372.1,1426.8,1436.9,1677.6,3444.3,3444.3,2624.3,1895.8,1634.1,3441.9,1738.7,2091.6,3441.9,3438.2,714.2,1349.4,900.8,569.0,1684.3,2198.3,3449.1,3438.2,988.5,1082.5,1673.8,2270.3,2011.4,1397.6,16.0,-186.0,-3.0,-7567.0,-7583.0,6784.0,10375.0,-1832.0,35.0,95.0,17.0,-130.0,-37.0,-4829.0,-3416.0,7301.0,13422.0,-491.0,18.0,-20.0,1.0
2022-05-13 13:05:05.722399-07:00,2361.9,707.7,1755.0,1673.8,1372.1,1457.1,1485.6,1749.3,3440.7,3444.3,2624.3,1895.8,1633.1,3438.2,1974.6,2336.8,3439.5,3435.8,716.7,1361.2,900.8,569.0,1684.3,2255.9,3438.2,3444.3,1020.2,1112.1,1673.8,2270.3,2011.4,1403.0,-29.0,-157.0,-44.0,-7954.0,-7226.0,6419.0,10571.0,-1366.0,-52.0,435.0,64.0,-60.0,-16.0,-4804.0,-3428.0,7345.0,13403.0,458.0,-46.0,-11.0,1.0
2022-05-13 13:05:05.810228-07:00,2361.9,709.3,1750.2,1691.9,1372.1,1457.1,1485.6,1770.4,3440.7,3435.8,2814.6,2007.4,1633.1,3438.2,1974.6,2422.9,3444.3,3435.8,716.7,1361.2,894.9,575.4,1713.8,2255.9,3440.7,3444.3,1020.2,1112.1,1689.1,2429.3,2132.1,1403.0,79.0,-78.0,32.0,-8248.0,-6887.0,6370.0,10602.0,-292.0,-164.0,791.0,49.0,14.0,11.0,-4765.0,-3450.0,7480.0,13337.0,91.0,-40.0,51.0,1.0
2022-05-13 13:05:05.811894-07:00,2346.2,709.3,1750.2,1691.9,1363.0,1471.8,1521.8,1770.4,3443.1,3435.8,2814.6,2007.4,1634.1,3441.9,1920.3,2422.9,3444.3,3440.7,716.7,1373.9,894.9,575.4,1713.8,2259.0,3440.7,3432.2,1054.8,1100.8,1689.1,2429.3,2132.1,1396.7,25.0,77.0,65.0,-8433.0,-6746.0,6454.0,10496.0,-170.0,95.0,369.0,38.0,11.0,-7.0,-4773.0,-3418.0,7465.0,13351.0,44.0,-59.0,-16.0,1.0
2022-05-13 13:05:05.855993-07:00,2346.2,701.1,1909.5,1718.6,1363.0,1471.8,1521.8,1926.2,3443.1,3441.9,2855.9,2101.7,1634.1,3441.9,1920.3,2479.1,3440.7,3440.7,716.7,1373.9,901.7,574.6,1733.0,2259.0,3441.9,3432.2,1054.8,1100.8,1702.4,2474.9,2150.4,1396.7,58.0,-18.0,58.0,-8529.0,-6675.0,6367.0,10517.0,-230.0,9.0,48.0,30.0,-37.0,24.0,-4764.0,-3398.0,7503.0,13338.0,106.0,-50.0,31.0,1.0
2022-05-13 13:05:05.991132-07:00,2345.2,701.1,1909.5,1718.6,1366.6,1475.5,1634.1,1926.2,3439.5,3441.9,2855.9,2101.7,1629.4,3444.3,1892.8,2479.1,3440.7,3435.8,715.9,1387.5,901.7,574.6,1733.0,2274.5,3441.9,3438.2,1048.7,1101.7,1702.4,2474.9,2150.4,1402.1,-49.0,-5.0,57.0,-8613.0,-6664.0,6296.0,10498.0,-94.0,200.0,74.0,13.0,73.0,22.0,-4746.0,-3406.0,7576.0,13301.0,314.0,18.0,-52.0,1.0
2022-05-13 13:05:05.992377-07:00,2345.2,697.9,1991.5,1749.3,1366.6,1475.5,1706.2,2027.4,3439.5,3443.1,2859.3,2115.9,1629.4,3444.3,1841.1,2518.6,3435.8,3427.4,715.9,1387.5,905.9,573.8,1748.3,2274.5,3449.1,3444.3,1048.7,1101.7,1694.8,2443.0,2119.9,1402.1,19.0,86.0,-26.0,-8643.0,-6724.0,6274.0,10448.0,284.0,230.0,64.0,-4.0,-8.0,4.0,-4733.0,-3419.0,7607.0,13285.0,94.0,-15.0,-30.0,1.0
2022-05-13 13:05:06.350553-07:00,2340.0,698.7,1991.5,1749.3,1379.4,1474.6,1706.2,2027.4,3445.5,3432.2,2859.3,2115.9,1635.0,3444.3,1841.1,2518.6,3435.8,3427.4,715.1,1389.4,905.9,573.8,1771.4,2317.0,3449.1,3444.3,1040.9,1106.9,1694.8,2443.0,2122.0,1402.1,-20.0,-33.0,-13.0,-8685.0,-6754.0,6224.0,10424.0,-78.0,119.0,-32.0,0.0,-34.0,20.0,-4692.0,-3444.0,7692.0,13244.0,330.0,-50.0,-36.0,1.0
2022-05-13 13:05:06.352212-07:00,2340.0,698.7,2024.4,1751.2,1379.4,1474.6,1709.1,2022.4,3445.5,3432.2,2855.9,2131.1,1635.0,3444.3,1783.9,2510.1,3432.2,3444.3,715.1,1389.4,904.2,573.8,1771.4,2317.0,3443.1,3447.9,1040.9,1106.9,1712.9,2438.8,2122.0,1402.1,-24.0,-23.0,10.0,-8700.0,-6772.0,6253.0,10382.0,186.0,-5.0,148.0,3.0,-8.0,8.0,-4630.0,-3490.0,7830.0,13172.0,458.0,-16.0,-53.0,1.0
2022-05-13 13:05:06.353417-07:00,2343.1,692.9,2024.4,1751.2,1537.6,1446.0,1709.1,2022.4,3441.9,3449.1,2855.9,2131.1,1638.8,3449.1,1783.9,2510.1,3432.2,3444.3,720.0,1386.6,904.2,573.8,1767.5,2365.1,3443.1,3447.9,1033.2,1102.5,1712.9,2438.8,2074.5,1396.7,0.0,-16.0,52.0,-8685.0,-6827.0,6360.0,10293.0,362.0,48.0,163.0,0.0,27.0,9.0,-4569.0,-3577.0,7988.0,13075.0,496.0,64.0,-88.0,1.0
2022-05-13 13:05:06.354531-07:00,2343.1,692.9,1977.6,1733.0,1537.6,1446.0,1718.6,2017.4,3441.9,3449.1,2831.3,2125.0,1638.8,3449.1,1749.3,2475.9,3438.2,3429.8,720.0,1386.6,900.0,577.0,1767.5,2365.1,3437.0,3438.2,1033.2,1102.5,1710.0,2391.3,2074.5,1396.7,4.0,47.0,6.0,-8665.0,-6941.0,6493.0,10150.0,550.0,85.0,188.0,8.0,4.0,18.0,-4516.0,-3665.0,8090.0,13006.0,220.0,89.0,-102.0,1.0
2022-05-13 13:05:06.485579-07:00,2337.9,687.2,1977.6,1733.0,1744.5,1438.7,1718.6,2017.4,3433.4,3440.7,2831.3,2125.0,1638.8,3438.2,1749.3,2475.9,3438.2,3429.8,719.2,1384.8,900.0,577.0,1741.6,2385.0,3437.0,3438.2,1028.0,1095.6,1710.0,2391.3,2045.4,1393.0,-14.0,24.0,32.0,-8621.0,-7070.0,6612.0,10021.0,416.0,255.0,2.0,-22.0,92.0,-19.0,-4172.0,-4444.0,8351.0,12710.0,170.0,329.0,-538.0,1.0
2022-05-13 13:05:06.486819-07:00,2310.8,722.5,1951.9,1717.7,1778.1,1451.6,1673.8,1994.5,3445.5,3446.7,2739.2,2091.6,1646.4,3440.7,1697.6,2438.8,3444.3,3431.0,718.4,1396.7,898.3,569.0,1695.7,2375.5,3454.0,3447.9,1015.1,1113.0,1715.8,2350.4,2014.4,1528.3,11.0,110.0,12.0,-8165.0,-8027.0,6941.0,9443.0,704.0,205.0,-400.0,-4.0,10.0,0.0,-4047.0,-4673.0,8273.0,12719.0,63.0,282.0,-567.0,1.0
2022-05-13 13:05:06.487956-07:00,2310.8,722.5,1951.9,1703.3,1778.1,1462.6,1638.8,1966.7,3445.5,3446.7,2739.2,2098.7,1646.4,3443.1,1693.8,2454.7,3440.7,3437.0,716.7,1396.7,911.8,569.0,1695.7,2375.5,3441.9,3440.7,1011.6,1113.0,1811.0,2350.4,2014.4,1528.3,-17.0,12.0,-40.0,-7993.0,-8265.0,6929.0,9392.0,501.0,167.0,-440.0,4.0,-41.0,-47.0,-3904.0,-4884.0,8194.0,12735.0,45.0,230.0,-552.0,1.0
2022-05-13 13:05:06.529919-07:00,2307.7,720.8,1925.2,1699.5,1802.3,1462.6,1638.8,1966.7,3443.1,3439.5,2701.8,2088.6,1640.7,3443.1,1693.8,2454.7,3440.7,3437.0,716.7,1401.2,900.8,572.2,1688.1,2389.2,3441.9,3440.7,1011.6,1109.5,1850.8,2332.6,2021.4,1554.3,27.0,-36.0,0.0,-7802.0,-8450.0,6939.0,9381.0,384.0,90.0,-388.0,22.0,-90.0,-48.0,-3783.0,-5061.0,8111.0,12756.0,9.0,188.0,-437.0,1.0
2022-05-13 13:05:06.618646-07:00,2307.7,720.8,1925.2,1699.5,1803.2,1470.9,1624.7,1946.9,3443.1,3439.5,2701.8,2088.6,1637.9,3445.5,1687.2,2432.4,3443.1,3449.1,716.7,1399.4,900.8,572.2,1688.1,2389.2,3441.9,3449.1,1004.8,1103.4,1850.8,2332.6,2021.4,1554.3,3.0,-107.0,-26.0,-7659.0,-8589.0,6933.0,9378.0,260.0,-9.0,-264.0,32.0,-110.0,-43.0,-3699.0,-5183.0,8071.0,12758.0,100.0,123.0,-238.0,1.0
2022-05-13 13:05:06.621976-07:00,2295.2,728.2,1912.4,1697.6,1803.2,1470.9,1624.7,1946.9,3433.4,3439.5,2663.5,2103.7,1637.9,3445.5,1687.2,2432.4,3443.1,3449.1,716.7,1399.4,899.1,568.2,1680.5,2399.7,3441.9,3449.1,1004.8,1103.4,1907.5,2316.0,2007.4,1533.8,16.0,-146.0,-10.0,-7580.0,-8665.0,6949.0,9360.0,185.0,58.0,-69.0,30.0,-71.0,-42.0,-3670.0,-5248.0,8077.0,12735.0,95.0,73.0,-35.0,1.0
2022-05-13 13:05:06.664180-07:00,2295.2,728.2,1912.4,1697.6,1772.3,1463.5,1621.8,1936.1,3433.4,3439.5,2663.5,2103.7,1641.6,3433.4,1677.6,2416.6,3438.2,3444.3,711.8,1404.9,899.1,568.2,1680.5,2399.7,3445.5,3439.5,992.7,1097.3,1907.5,2316.0,2007.4,1533.8,18.0,-120.0,-5.0,-7562.0,-8700.0,6971.0,9325.0,103.0,54.0,72.0,29.0,-22.0,-23.0,-3668.0,-5275.0,8123.0,12695.0,163.0,36.0,42.0,1.0
2022-05-13 13:05:06.711187-07:00,2295.2,724.9,1890.9,1701.4,1772.3,1463.5,1621.8,1936.1,3444.3,3443.1,2615.6,2084.6,1641.6,3433.4,1677.6,2416.6,3438.2,3444.3,711.8,1404.9,896.6,573.8,1672.9,2399.7,3445.5,3439.5,992.7,1097.3,1898.7,2311.8,1983.6,1528.3,16.0,-48.0,-3.0,-7577.0,-8711.0,7017.0,9269.0,140.0,32.0,140.0,-2.0,20.0,-19.0,-3658.0,-5295.0,8195.0,12643.0,198.0,15.0,33.0,1.0
2022-05-13 13:05:06.754112-07:00,2283.8,724.9,1890.9,1701.4,1728.2,1461.7,1604.0,1928.2,3439.5,3443.1,2615.6,2084.6,1647.3,3444.3,1657.7,2413.4,3440.7,3438.2,711.8,1409.4,896.6,573.8,1672.9,2395.5,3446.7,3446.7,985.0,1097.3,1898.7,2311.8,1983.6,1488.4,1.0,42.0,0.0,-7584.0,-8698.0,7094.0,9216.0,77.0,-41.0,152.0,-11.0,-2.0,-4.0,-3661.0,-5295.0,8216.0,12629.0,-28.0,3.0,25.0,1.0
2022-05-13 13:05:06.801195-07:00,2283.8,714.2,1889.9,1693.8,1728.2,1461.7,1604.0,1907.5,3439.5,3446.7,2586.4,2071.5,1647.3,3444.3,1657.7,2389.2,3437.0,3438.2,711.8,1409.4,898.3,567.4,1665.3,2395.5,3439.5,3446.7,985.0,1097.3,1878.1,2299.3,1980.6,1488.4,-11.0,6.0,2.0,-7594.0,-8683.0,7104.0,9215.0,-24.0,-9.0,3.0,-3.0,-1.0,-8.0,-3663.0,-5294.0,8223.0,12624.0,26.0,-12.0,14.0,1.0
2022-05-13 13:05:06.846132-07:00,2274.5,714.2,1889.9,1693.8,1695.7,1456.2,1596.4,1907.5,3445.5,3446.7,2586.4,2071.5,1632.2,3445.5,1655.8,2389.2,3437.0,3429.8,716.7,1399.4,898.3,567.4,1665.3,2381.8,3439.5,3439.5,986.7,1089.5,1878.1,2299.3,1980.6,1480.1,-8.0,2.0,1.0,-7591.0,-8671.0,7118.0,9217.0,7.0,-37.0,16.0,4.0,2.0,0.0,-3669.0,-5278.0,8221.0,12631.0,-39.0,-33.0,26.0,1.0
2022-05-13 13:05:06.934131-07:00,2274.5,712.6,1891.8,1688.1,1695.7,1456.2,1596.4,1908.5,3445.5,3444.3,2563.7,2051.4,1632.2,3445.5,1655.8,2393.4,3444.3,3429.8,716.7,1399.4,890.7,573.0,1653.0,2381.8,3444.3,3439.5,986.7,1089.5,1854.7,2292.1,1974.6,1480.1,-10.0,-5.0,2.0,-7594.0,-8658.0,7109.0,9234.0,-70.0,-24.0,-12.0,10.0,5.0,3.0,-3676.0,-5258.0,8223.0,12636.0,17.0,-25.0,30.0,1.0
2022-05-13 13:05:06.981166-07:00,2264.1,712.6,1891.8,1688.1,1685.3,1451.6,1595.5,1908.5,3444.3,3444.3,2563.7,2051.4,1637.9,3439.5,1671.9,2393.4,3444.3,3444.3,720.8,1399.4,890.7,573.0,1653.0,2383.9,3444.3,3447.9,991.0,1093.8,1854.7,2292.1,1974.6,1463.5,-13.0,-1.0,13.0,-7609.0,-8640.0,7103.0,9243.0,-44.0,1.0,44.0,8.0,-3.0,-2.0,-3681.0,-5251.0,8234.0,12630.0,40.0,4.0,22.0,1.0
2022-05-13 13:05:07.267007-07:00,2264.1,706.0,1868.4,1695.7,1685.3,1451.6,1595.5,1903.6,3444.3,3449.1,2555.1,2052.4,1637.9,3439.5,1671.9,2380.8,3432.2,3444.3,720.8,1399.4,895.7,569.0,1648.3,2383.9,3449.1,3447.9,991.0,1093.8,1849.8,2282.8,1965.7,1463.5,-9.0,-4.0,18.0,-7622.0,-8629.0,7106.0,9241.0,3.0,6.0,46.0,7.0,0.0,-2.0,-3688.0,-5247.0,8241.0,12625.0,7.0,6.0,19.0,1.0
2022-05-13 13:05:07.268815-07:00,2268.3,701.9,1868.4,1695.7,1666.3,1448.8,1580.5,1903.6,3444.3,3440.7,2555.1,2052.4,1637.9,3444.3,1643.5,2380.8,3432.2,3440.7,715.1,1406.7,895.7,569.0,1638.8,2375.5,3449.1,3443.1,987.6,1086.8,1849.8,2282.8,1955.8,1449.7,-6.0,0.0,7.0,-7631.0,-8618.0,7111.0,9239.0,-12.0,-19.0,31.0,12.0,-1.0,-6.0,-3695.0,-5240.0,8245.0,12623.0,-1.0,-11.0,18.0,1.0
2022-05-13 13:05:07.269963-07:00,2268.3,701.9,1870.3,1686.2,1666.3,1448.8,1584.2,1889.9,3444.3,3440.7,2545.4,2045.4,1637.9,3444.3,1644.5,2381.8,3443.1,3443.1,715.1,1406.7,899.1,573.8,1638.8,2375.5,3449.1,3454.0,987.6,1086.8,1850.8,2275.5,1955.8,1449.7,-1.0,-1.0,11.0,-7638.0,-8604.0,7113.0,9245.0,-26.0,-10.0,16.0,7.0,2.0,-4.0,-3701.0,-5235.0,8248.0,12622.0,6.0,-8.0,12.0,1.0
2022-05-13 13:05:07.271078-07:00,2264.1,697.9,1870.3,1686.2,1659.6,1448.8,1584.2,1889.9,3444.3,3449.1,2545.4,2045.4,1640.7,3445.5,1644.5,2381.8,3443.1,3443.1,715.9,1401.2,899.1,573.8,1637.9,2355.6,3449.1,3454.0,991.0,1086.0,1850.8,2275.5,1954.8,1436.9,0.0,4.0,13.0,-7648.0,-8593.0,7110.0,9249.0,-10.0,-1.0,21.0,2.0,5.0,-2.0,-3701.0,-5234.0,8250.0,12621.0,-9.0,2.0,0.0,1.0
2022-05-13 13:05:07.273885-07:00,2264.1,697.9,1870.3,1682.4,1659.6,1448.8,1593.6,1900.7,3444.3,3449.1,2554.0,2044.4,1640.7,3445.5,1645.4,2357.7,3438.2,3439.5,715.9,1401.2,899.1,573.0,1637.9,2355.6,3438.2,3449.1,991.0,1086.0,1842.0,2273.4,1954.8,1436.9,-7.0,0.0,5.0,-7654.0,-8587.0,7108.0,9252.0,-22.0,-15.0,12.0,16.0,-1.0,-11.0,-3700.0,-5235.0,8252.0,12619.0,17.0,4.0,-21.0,1.0
2022-05-13 13:05:07.274647-07:00,2266.2,699.5,1870.3,1682.4,1642.6,1438.7,1593.6,1900.7,3438.2,3446.7,2554.0,2044.4,1635.0,3446.7,1645.4,2357.7,3438.2,3439.5,718.4,1397.6,899.1,573.0,1633.1,2349.4,3438.2,3449.1,976.5,1082.5,1842.0,2273.4,1942.0,1424.1,8.0,1.0,17.0,-7654.0,-8579.0,7112.0,9256.0,19.0,21.0,-14.0,9.0,-11.0,1.0,-3699.0,-5241.0,8247.0,12621.0,4.0,19.0,-12.0,1.0
2022-05-13 13:05:07.396326-07:00,2266.2,699.5,1881.1,1685.3,1642.6,1445.1,1577.7,1889.9,3438.2,3446.7,2536.8,2038.4,1635.0,3443.1,1634.1,2373.4,3433.4,3443.1,720.0,1397.6,897.4,571.4,1633.1,2349.4,3446.7,3443.1,973.1,1082.5,1833.3,2257.9,1942.0,1424.1,-2.0,-27.0,7.0,-7652.0,-8588.0,7103.0,9256.0,17.0,-17.0,4.0,14.0,-3.0,-4.0,-3698.0,-5242.0,8253.0,12616.0,2.0,9.0,12.0,1.0
2022-05-13 13:05:07.519741-07:00,2263.1,700.3,1870.3,1685.3,1648.3,1445.1,1577.7,1889.9,3449.1,3441.9,2521.8,2038.4,1634.1,3443.1,1634.1,2373.4,3433.4,3443.1,720.0,1392.1,897.4,571.4,1639.8,2357.7,3446.7,3443.1,973.1,1087.7,1833.3,2269.3,1949.9,1430.5,-5.0,-7.0,4.0,-7652.0,-8591.0,7107.0,9250.0,-10.0,22.0,3.0,12.0,-11.0,-3.0,-3705.0,-5236.0,8255.0,12615.0,-14.0,-10.0,22.0,1.0
2022-05-13 13:05:07.746001-07:00,2263.1,700.3,1870.3,1690.0,1648.3,1435.0,1584.2,1884.0,3449.1,3441.9,2521.8,2030.4,1634.1,3449.1,1624.7,2356.7,3435.8,3439.5,715.9,1392.1,897.4,571.4,1639.8,2357.7,3449.1,3440.7,968.8,1087.7,1830.4,2269.3,1949.9,1430.5,0.0,-7.0,6.0,-7657.0,-8586.0,7104.0,9253.0,-25.0,-25.0,7.0,7.0,-7.0,1.0,-3712.0,-5225.0,8256.0,12617.0,4.0,-6.0,26.0,1.0
2022-05-13 13:05:08.016875-07:00,2257.9,701.1,1859.6,1690.0,1635.0,1435.0,1584.2,1884.0,3449.1,3441.9,2510.1,2030.4,1645.4,3449.1,1624.7,2356.7,3435.8,3439.5,715.9,1391.2,897.4,569.0,1629.4,2358.8,3449.1,3440.7,968.8,1083.4,1830.4,2268.3,1943.0,1421.3,1.0,-7.0,20.0,-7662.0,-8571.0,7104.0,9263.0,-10.0,-9.0,28.0,3.0,-2.0,2.0,-3720.0,-5221.0,8259.0,12614.0,2.0,12.0,14.0,1.0
2022-05-13 13:05:08.058884-07:00,2257.9,701.1,1859.6,1686.2,1635.0,1433.2,1576.8,1880.1,3449.1,3441.9,2510.1,2035.4,1645.4,3444.3,1629.4,2352.5,3437.0,3440.7,719.2,1391.2,897.4,569.0,1629.4,2358.8,3449.1,3446.7,975.6,1083.4,1822.6,2268.3,1943.0,1421.3,-9.0,-6.0,5.0,-7671.0,-8566.0,7103.0,9261.0,3.0,-9.0,25.0,6.0,-6.0,-4.0,-3721.0,-5222.0,8268.0,12608.0,30.0,4.0,11.0,1.0
2022-05-13 13:05:08.060904-07:00,2259.0,697.9,1861.5,1686.2,1623.7,1433.2,1576.8,1880.1,3438.2,3440.7,2512.2,2035.4,1635.0,3444.3,1629.4,2352.5,3437.0,3440.7,719.2,1393.9,897.4,570.6,1634.1,2356.7,3449.1,3446.7,975.6,1081.6,1822.6,2260.0,1948.9,1418.6,-5.0,-4.0,0.0,-7678.0,-8560.0,7110.0,9256.0,14.0,-7.0,42.0,8.0,-2.0,-8.0,-3717.0,-5224.0,8278.0,12601.0,13.0,4.0,9.0,1.0
2022-05-13 13:05:08.063673-07:00,2259.0,697.9,1861.5,1679.5,1615.2,1436.0,1578.6,1888.9,3438.2,3440.7,2512.2,2026.4,1635.0,3437.0,1639.8,2354.6,3443.1,3437.0,722.5,1397.6,891.5,570.6,1634.1,2356.7,3439.5,3449.1,978.2,1081.6,1811.0,2260.0,1948.9,1418.6,-3.0,-1.0,0.0,-7686.0,-8555.0,7118.0,9247.0,-2.0,3.0,20.0,-43.0,-106.0,-9.0,-3958.0,-5047.0,8167.0,12673.0,-661.0,-38.0,502.0,1.0
