Time,P0,P1,P2,P3,P4,P5,P6,P7,P8,P9,P10,P11,P12,P13,P14,P15,P16,P17,P18,P19,P20,P21,P22,P23,P24,P25,P26,P27,P28,P29,P30,P31,ECG,AX0,AY0,AZ0,QW0,QX0,QY0,QZ0,GX0,GY0,GZ0,AX1,AY1,AZ1,QW1,QX1,QY1,QZ1,GX1,GY1,GZ1
2022-05-13 12:59:25.657371-07:00,1538.5,860.4,1257.8,1113.9,1156.8,966.2,1874.2,1458.9,3473.4,3477.1,1174.4,919.4,1991.5,3462.5,1586.1,1478.3,3480.7,3474.6,497.2,734.0,1063.4,1449.7,833.6,3497.8,3477.1,3467.4,733.2,1081.6,2257.9,1241.7,1173.5,1018.5,5.0,-10.0,-4.0,10775.0,-12066.0,2597.0,-56.0,6.0,-9.0,-9.0,4.0,-1.0,-10.0,8946.0,-13690.0,979.0,162.0,14.0,0.0,-5.0,1.0
2022-05-13 12:59:25.659526-07:00,1540.3,872.1,1262.2,1119.1,1156.8,966.2,1874.2,1458.9,3474.6,3478.3,1181.5,915.2,1991.5,3462.5,1586.1,1478.3,3480.7,3474.6,497.2,734.0,1066.9,1451.6,830.2,3494.1,3477.1,3467.4,733.2,1081.6,2264.1,1241.7,1170.0,1026.3,11.0,0.0,-7.0,10780.0,-12062.0,2594.0,-55.0,-2.0,1.0,-1.0,5.0,3.0,-4.0,8954.0,-13685.0,979.0,161.0,-3.0,-5.0,-1.0,1.0
2022-05-13 12:59:25.660691-07:00,1540.3,872.1,1262.2,1119.1,1162.1,981.6,1865.4,1481.9,3474.6,3478.3,1181.5,915.2,1980.6,3468.6,1588.0,1481.9,3478.3,3483.2,490.9,735.6,1066.9,1451.6,830.2,3494.1,3480.7,3475.9,726.6,1082.5,2264.1,1241.7,1170.0,1026.3,5.0,-4.0,-2.0,10778.0,-12064.0,2594.0,-55.0,9.0,-7.0,7.0,1.0,0.0,-4.0,8953.0,-13686.0,979.0,162.0,16.0,-6.0,-1.0,1.0
2022-05-13 12:59:25.748350-07:00,1544.1,863.7,1256.9,1107.8,1162.1,981.6,1865.4,1459.8,3471.0,3478.3,1183.2,919.4,1980.6,3468.6,1588.0,1473.6,3474.6,3483.2,490.9,735.6,1066.9,1449.7,831.1,3496.6,3480.7,3475.9,726.6,1082.5,2260.0,1235.5,1176.2,1023.7,1.0,-1.0,-6.0,10788.0,-12055.0,2594.0,-57.0,21.0,-1.0,-8.0,4.0,0.0,-3.0,8961.0,-13680.0,979.0,161.0,17.0,7.0,-2.0,1.0
2022-05-13 12:59:25.793347-07:00,1549.7,863.7,1256.9,1107.8,1152.4,973.1,1875.2,1459.8,3471.0,3478.3,1183.2,919.4,1983.6,3473.4,1588.0,1473.6,3474.6,3471.0,498.0,738.1,1066.9,1449.7,831.1,3489.2,3480.7,3475.9,736.5,1080.8,2260.0,1235.5,1176.2,1021.1,2.0,-7.0,-10.0,10786.0,-12057.0,2597.0,-56.0,-14.0,14.0,21.0,3.0,0.0,-8.0,8963.0,-13679.0,979.0,161.0,-4.0,1.0,5.0,1.0
2022-05-13 12:59:25.883324-07:00,1549.7,861.2,1254.2,1116.5,1152.4,973.1,1875.2,1451.6,3471.0,3478.3,1181.5,912.7,1983.6,3473.4,1588.0,1475.5,3480.7,3471.0,498.0,738.1,1060.8,1445.1,829.4,3489.2,3474.6,3475.9,736.5,1080.8,2234.2,1229.3,1167.4,1021.1,2.0,0.0,-4.0,10787.0,-12054.0,2602.0,-54.0,19.0,1.0,6.0,5.0,3.0,-7.0,8967.0,-13676.0,979.0,161.0,27.0,4.0,4.0,1.0
2022-05-13 12:59:25.884928-07:00,1539.4,861.2,1254.2,1116.5,1153.3,976.5,1867.4,1451.6,3469.8,3478.3,1181.5,912.7,1974.6,3464.9,1584.2,1475.5,3480.7,3474.6,501.2,743.0,1060.8,1445.1,829.4,3494.1,3474.6,3474.6,727.4,1076.4,2234.2,1229.3,1167.4,1022.8,0.0,-2.0,-3.0,10789.0,-12053.0,2601.0,-56.0,-8.0,-2.0,-7.0,3.0,-2.0,-3.0,8969.0,-13675.0,979.0,160.0,-7.0,1.0,-1.0,1.0
2022-05-13 12:59:25.927170-07:00,1539.4,857.0,1249.7,1119.1,1153.3,976.5,1867.4,1465.4,3469.8,3472.2,1181.5,910.1,1974.6,3464.9,1584.2,1473.6,3468.6,3474.6,501.2,743.0,1063.4,1444.2,836.9,3494.1,3479.5,3474.6,727.4,1076.4,2242.5,1242.6,1172.6,1022.8,5.0,-2.0,-6.0,10787.0,-12054.0,2601.0,-55.0,4.0,5.0,6.0,7.0,1.0,-8.0,8969.0,-13675.0,979.0,160.0,7.0,-1.0,5.0,1.0
2022-05-13 12:59:26.063220-07:00,1542.2,858.7,1249.7,1119.1,1163.0,966.2,1868.4,1465.4,3463.7,3466.1,1181.5,910.1,1971.7,3475.9,1584.2,1473.6,3468.6,3467.4,498.8,738.9,1063.4,1444.2,827.7,3485.6,3479.5,3483.2,727.4,1074.7,2242.5,1242.6,1167.4,1013.3,6.0,-4.0,-8.0,10787.0,-12055.0,2601.0,-55.0,-1.0,5.0,0.0,3.0,4.0,-10.0,8971.0,-13674.0,979.0,160.0,3.0,-1.0,-1.0,1.0
2022-05-13 12:59:26.155683-07:00,1542.2,858.7,1254.2,1111.2,1163.0,966.2,1855.7,1461.7,3463.7,3466.1,1181.5,914.4,1971.7,3475.9,1583.3,1477.3,3474.6,3472.2,498.8,738.9,1063.4,1452.5,827.7,3485.6,3479.5,3479.5,727.4,1074.7,2259.0,1238.2,1167.4,1013.3,0.0,-1.0,-8.0,10787.0,-12055.0,2602.0,-56.0,3.0,-13.0,5.0,4.0,0.0,-6.0,8971.0,-13674.0,979.0,160.0,9.0,0.0,2.0,1.0
2022-05-13 12:59:26.157307-07:00,1541.3,858.7,1254.2,1111.2,1156.8,972.2,1855.7,1461.7,3467.4,3473.4,1181.5,914.4,1983.6,3473.4,1583.3,1477.3,3474.6,3472.2,499.6,738.1,1063.4,1452.5,829.4,3496.6,3479.5,3479.5,730.7,1074.7,2259.0,1238.2,1168.2,1015.1,4.0,-3.0,-7.0,10784.0,-12057.0,2602.0,-56.0,-21.0,15.0,3.0,4.0,0.0,-5.0,8972.0,-13673.0,979.0,160.0,-14.0,-1.0,1.0,1.0
2022-05-13 12:59:26.158311-07:00,1541.3,858.7,1244.4,1119.1,1156.8,972.2,1854.7,1447.0,3467.4,3473.4,1180.6,914.4,1983.6,3473.4,1582.4,1471.8,3467.4,3480.7,499.6,738.1,1070.3,1446.0,829.4,3496.6,3467.4,3481.9,730.7,1074.7,2253.8,1240.8,1168.2,1015.1,6.0,-2.0,-1.0,10783.0,-12057.0,2605.0,-55.0,16.0,2.0,5.0,4.0,3.0,-3.0,8970.0,-13674.0,979.0,160.0,14.0,-1.0,4.0,1.0
2022-05-13 12:59:26.159288-07:00,1535.7,857.0,1244.4,1119.1,1159.4,969.6,1854.7,1447.0,3469.8,3474.6,1180.6,914.4,1973.7,3478.3,1582.4,1471.8,3467.4,3480.7,494.0,732.3,1070.3,1446.0,823.5,3494.1,3467.4,3481.9,734.0,1077.3,2253.8,1240.8,1170.9,1010.8,4.0,-4.0,-9.0,10785.0,-12056.0,2605.0,-55.0,-14.0,-3.0,0.0,1.0,-1.0,-7.0,8971.0,-13674.0,979.0,160.0,-10.0,2.0,-1.0,1.0
2022-05-13 12:59:26.243221-07:00,1535.7,857.0,1253.3,1105.1,1159.4,978.2,1857.6,1447.9,3469.8,3474.6,1188.5,914.4,1973.7,3473.4,1575.8,1470.0,3467.4,3468.6,492.5,732.3,1059.9,1443.3,823.5,3494.1,3467.4,3472.2,723.3,1077.3,2250.7,1235.5,1170.9,1010.8,7.0,1.0,1.0,10781.0,-12058.0,2612.0,-52.0,10.0,21.0,23.0,3.0,-2.0,-5.0,8971.0,-13673.0,979.0,160.0,15.0,-3.0,7.0,1.0
2022-05-13 12:59:26.288581-07:00,1531.0,857.0,1259.6,1105.1,1149.8,978.2,1857.6,1447.9,3475.9,3471.0,1180.6,914.4,1980.6,3473.4,1575.8,1470.0,3467.4,3468.6,492.5,728.2,1059.9,1443.3,826.9,3495.3,3467.4,3472.2,723.3,1072.9,2250.7,1231.0,1170.9,1018.5,4.0,0.0,-8.0,10789.0,-12050.0,2614.0,-56.0,14.0,-5.0,-13.0,4.0,2.0,-8.0,8978.0,-13669.0,979.0,160.0,7.0,7.0,0.0,1.0
2022-05-13 12:59:26.422078-07:00,1531.0,857.0,1259.6,1104.3,1149.8,969.6,1846.9,1444.2,3475.9,3471.0,1180.6,915.2,1980.6,3469.8,1576.8,1472.7,3467.4,3466.1,498.0,728.2,1055.6,1443.3,826.9,3495.3,3472.2,3474.6,724.1,1072.9,2241.4,1231.0,1170.9,1018.5,2.0,-7.0,-4.0,10790.0,-12049.0,2613.0,-57.0,10.0,-2.0,3.0,6.0,3.0,-3.0,8978.0,-13669.0,979.0,160.0,9.0,5.0,3.0,1.0
2022-05-13 12:59:26.513474-07:00,1539.4,860.4,1253.3,1104.3,1141.9,969.6,1846.9,1444.2,3462.5,3471.0,1182.3,915.2,1978.6,3469.8,1576.8,1472.7,3467.4,3466.1,498.0,733.2,1055.6,1445.1,819.4,3486.8,3472.2,3474.6,724.1,1074.7,2241.4,1232.8,1162.1,1012.5,3.0,6.0,-12.0,10793.0,-12046.0,2613.0,-58.0,6.0,-2.0,-8.0,1.0,5.0,-11.0,8981.0,-13667.0,979.0,160.0,3.0,0.0,-1.0,1.0
2022-05-13 12:59:26.514545-07:00,1539.4,860.4,1253.3,1115.6,1141.9,969.6,1845.9,1447.0,3462.5,3471.0,1182.3,914.4,1978.6,3473.4,1582.4,1474.6,3478.3,3473.4,494.8,733.2,1065.1,1445.1,819.4,3486.8,3475.9,3467.4,731.5,1074.7,2250.7,1232.8,1162.1,1012.5,3.0,-10.0,-4.0,10792.0,-12047.0,2613.0,-58.0,2.0,-1.0,2.0,3.0,0.0,-7.0,8980.0,-13668.0,979.0,160.0,12.0,-4.0,-2.0,1.0
2022-05-13 12:59:26.515712-07:00,1537.6,863.7,1267.6,1115.6,1154.2,969.6,1845.9,1447.0,3467.4,3474.6,1185.9,914.4,1974.6,3473.4,1582.4,1474.6,3478.3,3473.4,494.8,723.3,1065.1,1442.4,826.0,3497.8,3475.9,3467.4,731.5,1073.8,2250.7,1231.9,1167.4,1018.5,1.0,2.0,-3.0,10795.0,-12045.0,2613.0,-58.0,-2.0,5.0,4.0,2.0,3.0,-2.0,8984.0,-13665.0,979.0,159.0,3.0,-3.0,1.0,1.0
2022-05-13 12:59:26.558268-07:00,1537.6,863.7,1267.6,1101.7,1144.5,971.3,1856.7,1450.6,3467.4,3474.6,1185.9,913.5,1984.6,3469.8,1575.8,1472.7,3474.6,3466.1,493.2,723.3,1066.9,1442.4,826.0,3497.8,3467.4,3477.1,728.2,1071.2,2237.3,1231.9,1167.4,1018.5,5.0,-4.0,-5.0,10792.0,-12047.0,2613.0,-58.0,0.0,-3.0,2.0,5.0,0.0,-10.0,8983.0,-13666.0,979.0,159.0,4.0,1.0,2.0,1.0
2022-05-13 12:59:26.559380-07:00,1530.1,856.2,1253.3,1106.9,1144.5,971.3,1856.7,1450.6,3475.9,3472.2,1176.2,910.1,1984.6,3469.8,1575.8,1472.7,3474.6,3466.1,493.2,723.3,1060.8,1439.6,825.2,3491.7,3467.4,3477.1,728.2,1071.2,2233.2,1236.4,1167.4,1015.9,1.0,0.0,-7.0,10796.0,-12044.0,2613.0,-58.0,11.0,-10.0,-5.0,4.0,0.0,-5.0,8986.0,-13664.0,979.0,159.0,16.0,2.0,-3.0,1.0
2022-05-13 12:59:26.782181-07:00,1530.1,856.2,1253.3,1106.9,1148.9,959.4,1880.1,1453.4,3475.9,3472.2,1176.2,910.1,1974.6,3467.4,1574.9,1466.3,3474.6,3474.6,494.8,734.0,1060.8,1439.6,825.2,3491.7,3472.2,3477.1,734.8,1072.1,2233.2,1236.4,1167.4,1015.9,4.0,-3.0,-4.0,10796.0,-12044.0,2613.0,-57.0,-3.0,12.0,10.0,3.0,0.0,-5.0,8989.0,-13662.0,979.0,159.0,1.0,1.0,3.0,1.0
2022-05-13 12:59:26.784001-07:00,1519.9,858.7,1251.5,1117.4,1148.9,959.4,1880.1,1453.4,3472.2,3478.3,1170.9,911.0,1974.6,3467.4,1574.9,1466.3,3474.6,3474.6,494.8,734.0,1062.5,1436.0,821.0,3500.2,3472.2,3477.1,734.8,1072.1,2248.7,1227.5,1160.3,1018.5,3.0,0.0,-5.0,10796.0,-12043.0,2617.0,-57.0,8.0,3.0,4.0,6.0,0.0,-8.0,8991.0,-13661.0,979.0,159.0,11.0,5.0,2.0,1.0
2022-05-13 12:59:26.785949-07:00,1519.9,858.7,1251.5,1117.4,1147.1,976.5,1855.7,1446.0,3472.2,3478.3,1170.9,911.0,1976.6,3462.5,1582.4,1471.8,3474.6,3474.6,498.0,733.2,1062.5,1436.0,821.0,3500.2,3471.0,3481.9,734.0,1073.8,2248.7,1227.5,1160.3,1018.5,1.0,-3.0,-9.0,10799.0,-12041.0,2617.0,-59.0,2.0,5.0,-8.0,4.0,0.0,-10.0,8992.0,-13660.0,979.0,159.0,-5.0,4.0,2.0,1.0
2022-05-13 12:59:26.787328-07:00,1525.5,852.0,1248.8,1111.2,1147.1,976.5,1855.7,1450.6,3472.2,3472.2,1167.4,910.1,1976.6,3462.5,1582.4,1468.1,3473.4,3474.6,498.0,733.2,1068.6,1438.7,821.9,3500.2,3472.2,3481.9,734.0,1073.8,2242.5,1218.6,1166.5,1021.9,4.0,0.0,-6.0,10799.0,-12041.0,2617.0,-59.0,8.0,-4.0,5.0,3.0,4.0,-6.0,8994.0,-13659.0,979.0,159.0,13.0,0.0,0.0,1.0
2022-05-13 12:59:26.873430-07:00,1525.5,852.0,1248.8,1111.2,1155.9,971.3,1856.7,1450.6,3475.9,3472.2,1167.4,910.1,1969.7,3472.2,1570.2,1468.1,3473.4,3474.6,495.6,731.5,1068.6,1438.7,821.9,3502.7,3472.2,3475.9,729.0,1071.2,2242.5,1218.6,1166.5,1020.2,2.0,-2.0,-10.0,10801.0,-12039.0,2613.0,-60.0,6.0,-18.0,-15.0,4.0,1.0,-7.0,8995.0,-13658.0,979.0,159.0,3.0,-3.0,-2.0,1.0
2022-05-13 12:59:26.874619-07:00,1525.5,861.2,1253.3,1113.0,1155.9,971.3,1856.7,1451.6,3475.9,3471.0,1171.8,903.4,1969.7,3472.2,1570.2,1473.6,3475.9,3474.6,495.6,731.5,1050.4,1446.0,811.0,3502.7,3477.1,3475.9,729.0,1071.2,2231.1,1230.2,1163.0,1020.2,6.0,-6.0,-2.0,10802.0,-12039.0,2611.0,-57.0,3.0,12.0,13.0,5.0,-1.0,-6.0,8997.0,-13656.0,979.0,159.0,3.0,-5.0,2.0,1.0
2022-05-13 12:59:27.008810-07:00,1525.5,861.2,1253.3,1113.0,1142.7,966.2,1856.7,1451.6,3472.2,3471.0,1171.8,903.4,1965.7,3473.4,1573.0,1473.6,3475.9,3478.3,498.0,735.6,1050.4,1446.0,811.0,3491.7,3477.1,3481.9,724.1,1066.0,2231.1,1230.2,1163.0,1006.5,7.0,-1.0,-3.0,10804.0,-12037.0,2611.0,-56.0,10.0,-11.0,-6.0,4.0,4.0,-9.0,9001.0,-13654.0,979.0,159.0,1.0,1.0,0.0,1.0
2022-05-13 12:59:27.010668-07:00,1525.5,858.7,1255.1,1118.2,1142.7,966.2,1856.7,1450.6,3472.2,3458.9,1174.4,908.4,1965.7,3473.4,1573.0,1474.6,3467.4,3478.3,498.0,735.6,1059.1,1448.8,822.7,3491.7,3467.4,3481.9,724.1,1066.0,2252.8,1234.6,1163.8,1006.5,6.0,-8.0,-6.0,10805.0,-12036.0,2610.0,-57.0,0.0,1.0,3.0,3.0,-1.0,-12.0,9001.0,-13654.0,979.0,159.0,4.0,-1.0,3.0,1.0
2022-05-13 12:59:27.143396-07:00,1523.6,858.7,1255.1,1118.2,1148.0,970.5,1857.6,1450.6,3468.6,3458.9,1174.4,908.4,1975.6,3477.1,1570.2,1474.6,3467.4,3471.0,491.7,730.7,1059.1,1448.8,822.7,3497.8,3467.4,3471.0,723.3,1071.2,2252.8,1234.6,1163.8,1011.6,0.0,2.0,-8.0,10805.0,-12034.0,2618.0,-58.0,9.0,15.0,13.0,1.0,0.0,-8.0,9004.0,-13652.0,979.0,159.0,11.0,11.0,3.0,1.0
2022-05-13 12:59:27.144613-07:00,1523.6,857.9,1241.7,1126.1,1148.0,970.5,1845.9,1444.2,3468.6,3462.5,1172.6,905.0,1975.6,3477.1,1567.4,1472.7,3474.6,3478.3,491.7,730.7,1060.8,1436.9,814.4,3497.8,3479.5,3477.1,723.3,1071.2,2232.2,1228.4,1166.5,1011.6,5.0,-2.0,-7.0,10806.0,-12034.0,2615.0,-58.0,6.0,-14.0,-11.0,4.0,3.0,-9.0,9005.0,-13651.0,979.0,158.0,1.0,-7.0,-3.0,1.0
2022-05-13 12:59:27.234236-07:00,1526.4,857.9,1241.7,1126.1,1148.9,967.1,1845.9,1444.2,3468.6,3468.6,1172.6,905.0,1970.7,3467.4,1567.4,1472.7,3474.6,3478.3,494.8,733.2,1060.8,1436.9,814.4,3497.8,3479.5,3477.1,724.9,1067.7,2232.2,1228.4,1163.0,1015.1,2.0,-4.0,-4.0,10807.0,-12034.0,2613.0,-55.0,1.0,-9.0,6.0,7.0,-1.0,-6.0,9005.0,-13651.0,979.0,158.0,9.0,-7.0,-4.0,1.0
2022-05-13 12:59:27.235528-07:00,1526.4,857.9,1254.2,1112.1,1148.9,967.1,1841.1,1426.8,3468.6,3468.6,1177.9,911.0,1970.7,3467.4,1574.9,1468.1,3466.1,3467.4,494.8,733.2,1062.5,1445.1,814.4,3497.8,3471.0,3471.0,724.9,1067.7,2234.2,1223.9,1163.0,1015.1,3.0,-1.0,0.0,10810.0,-12032.0,2607.0,-50.0,8.0,-16.0,-6.0,3.0,1.0,-5.0,9009.0,-13649.0,980.0,157.0,7.0,-3.0,-4.0,1.0
2022-05-13 12:59:27.236599-07:00,1525.5,855.3,1254.2,1112.1,1147.1,965.4,1841.1,1426.8,3467.4,3471.0,1177.9,911.0,1965.7,3474.6,1574.9,1468.1,3466.1,3467.4,499.6,732.3,1062.5,1445.1,815.2,3492.9,3471.0,3471.0,727.4,1079.0,2234.2,1223.9,1163.8,1013.3,3.0,0.0,-3.0,10810.0,-12032.0,2607.0,-49.0,3.0,4.0,3.0,5.0,0.0,-5.0,9010.0,-13648.0,980.0,157.0,8.0,2.0,2.0,1.0
2022-05-13 12:59:27.278225-07:00,1525.5,855.3,1250.6,1103.4,1147.1,965.4,1837.2,1433.2,3467.4,3471.0,1174.4,906.7,1965.7,3474.6,1566.5,1470.9,3469.8,3485.6,499.6,732.3,1063.4,1436.0,815.2,3492.9,3474.6,3479.5,727.4,1079.0,2235.3,1230.2,1163.8,1013.3,4.0,-2.0,-3.0,10814.0,-12029.0,2607.0,-50.0,13.0,3.0,-5.0,4.0,3.0,-7.0,9011.0,-13648.0,980.0,157.0,12.0,2.0,0.0,1.0
2022-05-13 12:59:27.322121-07:00,1519.0,858.7,1244.4,1103.4,1142.7,971.3,1837.2,1433.2,3469.8,3468.6,1178.8,906.7,1961.8,3478.3,1566.5,1470.9,3469.8,3485.6,505.9,734.0,1063.4,1435.0,825.2,3496.6,3474.6,3479.5,724.1,1068.6,2235.3,1226.6,1164.7,1018.5,4.0,-4.0,-2.0,10814.0,-12028.0,2607.0,-49.0,5.0,9.0,10.0,5.0,0.0,-10.0,9011.0,-13647.0,980.0,157.0,8.0,4.0,3.0,1.0
2022-05-13 12:59:27.368306-07:00,1519.0,858.7,1244.4,1106.0,1142.7,965.4,1842.0,1472.7,3469.8,3468.6,1178.8,907.6,1961.8,3466.1,1569.3,1471.8,3467.4,3483.2,498.0,734.0,1061.7,1435.0,825.2,3496.6,3478.3,3474.6,724.9,1068.6,2235.3,1226.6,1164.7,1018.5,3.0,0.0,-4.0,10816.0,-12027.0,2609.0,-48.0,16.0,2.0,-6.0,3.0,3.0,-6.0,9015.0,-13645.0,980.0,157.0,9.0,5.0,-3.0,1.0
2022-05-13 12:59:27.411921-07:00,1529.2,857.9,1244.4,1106.0,1148.0,965.4,1842.0,1472.7,3473.4,3473.4,1179.7,907.6,1967.7,3466.1,1569.3,1471.8,3467.4,3483.2,498.0,738.1,1061.7,1444.2,816.9,3497.8,3478.3,3474.6,724.9,1069.5,2235.3,1236.4,1161.2,1018.5,4.0,-2.0,-10.0,10815.0,-12028.0,2609.0,-48.0,-21.0,-3.0,-1.0,5.0,0.0,-10.0,9014.0,-13645.0,980.0,157.0,-8.0,1.0,2.0,1.0
2022-05-13 12:59:27.504091-07:00,1529.2,857.9,1244.4,1113.0,1148.0,966.2,1833.3,1445.1,3473.4,3473.4,1179.7,919.4,1967.7,3462.5,1564.6,1466.3,3479.5,3479.5,502.8,738.1,1072.1,1444.2,816.9,3497.8,3474.6,3472.2,718.4,1069.5,2233.2,1236.4,1161.2,1018.5,2.0,-2.0,-3.0,10813.0,-12029.0,2610.0,-48.0,13.0,8.0,6.0,4.0,1.0,-6.0,9015.0,-13645.0,980.0,157.0,21.0,7.0,1.0,1.0
2022-05-13 12:59:27.548395-07:00,1523.6,862.9,1263.1,1113.0,1151.5,966.2,1833.3,1445.1,3473.4,3469.8,1183.2,919.4,1965.7,3462.5,1564.6,1466.3,3479.5,3479.5,502.8,734.0,1072.1,1448.8,813.5,3494.1,3474.6,3472.2,718.4,1071.2,2233.2,1228.4,1154.2,1018.5,6.0,0.0,-6.0,10817.0,-12025.0,2610.0,-49.0,7.0,-4.0,-4.0,5.0,2.0,-9.0,9018.0,-13643.0,980.0,157.0,7.0,3.0,-2.0,1.0
2022-05-13 12:59:27.593230-07:00,1523.6,862.9,1263.1,1122.6,1151.5,967.9,1844.0,1436.9,3473.4,3469.8,1183.2,906.7,1965.7,3472.2,1568.3,1470.9,3479.5,3483.2,494.0,734.0,1059.1,1448.8,813.5,3494.1,3473.4,3472.2,720.8,1071.2,2234.2,1228.4,1154.2,1018.5,7.0,-4.0,-3.0,10817.0,-12025.0,2610.0,-49.0,1.0,-5.0,3.0,5.0,1.0,-7.0,9018.0,-13643.0,980.0,157.0,2.0,-6.0,2.0,1.0
2022-05-13 12:59:27.683495-07:00,1521.8,853.7,1239.9,1112.1,1147.1,967.9,1844.0,1436.9,3471.0,3468.6,1174.4,906.7,1961.8,3472.2,1568.3,1470.9,3479.5,3483.2,494.0,733.2,1063.4,1440.5,818.5,3497.8,3473.4,3472.2,720.8,1070.3,2231.1,1225.7,1160.3,1014.2,4.0,-1.0,-6.0,10819.0,-12024.0,2610.0,-49.0,3.0,-1.0,-7.0,2.0,4.0,-9.0,9021.0,-13641.0,980.0,157.0,10.0,0.0,-4.0,1.0
2022-05-13 12:59:27.684626-07:00,1521.8,853.7,1239.9,1112.1,1138.4,967.9,1849.8,1443.3,3471.0,3468.6,1174.4,906.7,1959.8,3468.6,1569.3,1471.8,3481.9,3483.2,498.0,735.6,1063.4,1440.5,818.5,3497.8,3483.2,3479.5,723.3,1067.7,2231.1,1225.7,1160.3,1014.2,2.0,-1.0,-3.0,10819.0,-12024.0,2610.0,-49.0,9.0,-3.0,6.0,3.0,1.0,-7.0,9022.0,-13640.0,980.0,157.0,12.0,-4.0,1.0,1.0
2022-05-13 12:59:27.819722-07:00,1520.8,854.5,1242.6,1112.1,1138.4,967.9,1849.8,1443.3,3473.4,3475.9,1172.6,916.0,1959.8,3468.6,1569.3,1471.8,3481.9,3483.2,498.0,735.6,1063.4,1434.1,826.0,3499.0,3483.2,3479.5,723.3,1067.7,2236.3,1225.7,1156.8,1016.8,4.0,-2.0,-1.0,10823.0,-12020.0,2609.0,-51.0,10.0,-8.0,-11.0,6.0,3.0,-8.0,9025.0,-13638.0,980.0,156.0,7.0,-2.0,-5.0,1.0
2022-05-13 12:59:27.954447-07:00,1520.8,854.5,1242.6,1112.1,1149.8,961.1,1834.3,1441.5,3473.4,3475.9,1172.6,916.0,1965.7,3462.5,1554.3,1466.3,3483.2,3467.4,492.5,735.6,1063.4,1434.1,826.0,3499.0,3472.2,3467.4,726.6,1070.3,2236.3,1225.7,1156.8,1016.8,8.0,-4.0,-2.0,10823.0,-12020.0,2609.0,-51.0,5.0,3.0,5.0,7.0,2.0,-8.0,9025.0,-13638.0,980.0,156.0,6.0,-3.0,-1.0,1.0
2022-05-13 12:59:27.955559-07:00,1514.3,857.9,1252.4,1105.1,1149.8,961.1,1834.3,1441.5,3466.1,3471.0,1172.6,910.1,1965.7,3462.5,1554.3,1466.3,3483.2,3467.4,492.5,735.6,1065.1,1447.0,815.2,3491.7,3472.2,3467.4,726.6,1070.3,2225.0,1226.6,1164.7,1010.8,8.0,-2.0,-3.0,10825.0,-12019.0,2609.0,-52.0,6.0,1.0,2.0,7.0,5.0,-8.0,9026.0,-13637.0,980.0,156.0,5.0,1.0,0.0,1.0
2022-05-13 12:59:27.956341-07:00,1516.2,857.9,1252.4,1105.1,1140.1,968.8,1845.9,1444.2,3478.3,3471.0,1172.6,910.1,1976.6,3474.6,1562.7,1466.3,3472.2,3473.4,493.2,721.6,1065.1,1447.0,815.2,3491.7,3477.1,3467.4,723.3,1062.5,2225.0,1226.6,1164.7,1015.1,1.0,0.0,-8.0,10824.0,-12019.0,2610.0,-53.0,6.0,2.0,3.0,6.0,4.0,-7.0,9026.0,-13637.0,980.0,156.0,7.0,-2.0,2.0,1.0
2022-05-13 12:59:27.999902-07:00,1516.2,855.3,1249.7,1108.6,1140.1,968.8,1845.9,1436.9,3478.3,3478.3,1178.8,912.7,1976.6,3474.6,1562.7,1465.4,3477.1,3473.4,493.2,721.6,1055.6,1441.5,816.0,3491.7,3475.9,3467.4,723.3,1062.5,2216.8,1228.4,1160.3,1015.1,2.0,-1.0,-9.0,10825.0,-12019.0,2608.0,-52.0,-7.0,-15.0,-8.0,5.0,2.0,-12.0,9026.0,-13637.0,980.0,156.0,-1.0,1.0,-2.0,1.0
2022-05-13 12:59:28.001178-07:00,1524.5,855.3,1249.7,1108.6,1144.5,967.9,1838.2,1436.9,3484.4,3478.3,1178.8,912.7,1964.7,3479.5,1573.0,1465.4,3477.1,3481.9,507.5,732.3,1055.6,1441.5,816.0,3494.1,3475.9,3472.2,724.9,1064.3,2216.8,1228.4,1160.3,1017.6,3.0,-7.0,-1.0,10825.0,-12019.0,2610.0,-51.0,9.0,12.0,13.0,6.0,0.0,-3.0,9026.0,-13637.0,980.0,156.0,6.0,-5.0,1.0,1.0
2022-05-13 12:59:28.045459-07:00,1524.5,855.3,1249.7,1106.0,1144.5,967.9,1838.2,1442.4,3484.4,3467.4,1171.8,910.1,1964.7,3479.5,1573.0,1466.3,3472.2,3481.9,507.5,732.3,1059.9,1436.9,816.0,3494.1,3478.3,3472.2,724.9,1064.3,2219.8,1225.7,1153.3,1017.6,5.0,1.0,-4.0,10827.0,-12016.0,2613.0,-51.0,5.0,-6.0,-5.0,4.0,4.0,-12.0,9030.0,-13635.0,980.0,156.0,-1.0,3.0,-1.0,1.0
2022-05-13 12:59:28.089269-07:00,1518.0,855.3,1249.7,1106.0,1141.9,967.1,1838.2,1442.4,3471.0,3467.4,1171.8,910.1,1954.8,3471.0,1569.3,1466.3,3472.2,3473.4,499.6,726.6,1059.9,1436.9,816.0,3502.7,3478.3,3479.5,725.8,1077.3,2219.8,1225.7,1153.3,1009.9,0.0,-8.0,-4.0,10827.0,-12016.0,2612.0,-53.0,0.0,4.0,2.0,6.0,-2.0,-8.0,9030.0,-13635.0,980.0,156.0,8.0,4.0,2.0,1.0
2022-05-13 12:59:28.134828-07:00,1518.0,857.9,1244.4,1109.5,1141.9,967.1,1839.1,1441.5,3471.0,3469.8,1175.3,909.3,1954.8,3471.0,1563.7,1457.1,3467.4,3472.2,499.6,726.6,1061.7,1440.5,818.5,3502.7,3478.3,3469.8,725.8,1077.3,2228.1,1228.4,1153.3,1009.9,8.0,0.0,-5.0,10827.0,-12016.0,2610.0,-52.0,0.0,-7.0,-5.0,4.0,4.0,-9.0,9030.0,-13635.0,980.0,156.0,1.0,0.0,-2.0,1.0
2022-05-13 12:59:28.177683-07:00,1514.3,862.1,1244.4,1109.5,1142.7,970.5,1839.1,1441.5,3472.2,3468.6,1175.3,909.3,1957.8,3474.6,1563.7,1457.1,3467.4,3472.2,502.8,733.2,1061.7,1440.5,816.9,3491.7,3478.3,3469.8,723.3,1066.9,2228.1,1228.4,1161.2,1015.1,11.0,4.0,-2.0,10826.0,-12018.0,2608.0,-54.0,-23.0,0.0,-17.0,7.0,8.0,-11.0,9027.0,-13637.0,980.0,156.0,-37.0,4.0,2.0,1.0
2022-05-13 12:59:28.222773-07:00,1514.3,862.1,1246.2,1099.0,1142.7,970.5,1847.9,1435.0,3472.2,3468.6,1171.8,911.0,1957.8,3474.6,1566.5,1460.8,3467.4,3478.3,502.8,733.2,1073.8,1456.2,816.9,3491.7,3468.6,3483.2,723.3,1066.9,2219.8,1225.7,1161.2,1015.1,11.0,12.0,14.0,10782.0,-12059.0,2602.0,-71.0,-229.0,74.0,-80.0,9.0,6.0,-4.0,8973.0,-13672.0,987.0,154.0,-230.0,40.0,20.0,1.0
2022-05-13 12:59:28.269214-07:00,1522.7,853.7,1246.2,1099.0,1135.7,959.4,1847.9,1435.0,3457.6,3475.9,1171.8,911.0,1955.8,3468.6,1566.5,1460.8,3467.4,3478.3,496.4,724.9,1073.8,1456.2,816.0,3496.6,3468.6,3483.2,718.4,1059.9,2219.8,1225.7,1153.3,1007.3,49.0,-7.0,118.0,10647.0,-12176.0,2605.0,-144.0,-543.0,296.0,-193.0,4.0,30.0,-1.0,8845.0,-13753.0,1017.0,142.0,-456.0,141.0,62.0,1.0
2022-05-13 12:59:28.314502-07:00,1522.7,853.7,1249.7,1108.6,1135.7,959.4,1854.7,1471.8,3457.6,3475.9,1170.0,907.6,1955.8,3468.6,1838.2,1522.7,3473.4,3479.5,496.4,724.9,1065.1,1447.0,816.0,3496.6,3474.6,3477.1,718.4,1059.9,2226.0,1226.6,1153.3,1007.3,70.0,31.0,128.0,10399.0,-12351.0,2754.0,-390.0,-667.0,1061.0,-207.0,39.0,25.0,0.0,8632.0,-13881.0,1110.0,117.0,-680.0,258.0,166.0,1.0
2022-05-13 12:59:28.359195-07:00,1517.1,861.2,1249.7,1108.6,1142.7,977.3,1854.7,1471.8,3466.1,3462.5,1170.0,907.6,1970.7,3479.5,1838.2,1522.7,3473.4,3479.5,498.0,724.9,1065.1,1447.0,846.1,3489.2,3474.6,3477.1,721.6,1112.1,2226.0,1226.6,1433.2,1015.9,-91.0,-100.0,-49.0,10072.0,-12540.0,3036.0,-726.0,-875.0,862.0,124.0,16.0,-75.0,57.0,8325.0,-14056.0,1249.0,47.0,-720.0,384.0,209.0,1.0
2022-05-13 12:59:28.494772-07:00,1517.1,861.2,1266.7,1120.9,1142.7,1057.3,1857.6,1469.0,3466.1,3462.5,1319.6,945.8,1970.7,3475.9,2213.7,1856.7,3477.1,3474.6,499.6,724.9,1066.0,1441.5,846.1,3489.2,3479.5,3478.3,746.3,1112.1,2255.9,1553.4,1433.2,1015.9,-19.0,15.0,-134.0,9823.0,-12693.0,3231.0,-633.0,-452.0,-207.0,358.0,20.0,-17.0,-46.0,8153.0,-14139.0,1432.0,22.0,-351.0,235.0,326.0,1.0
2022-05-13 12:59:28.496731-07:00,1513.4,854.5,1260.4,1120.9,1147.1,1057.3,1857.6,1469.0,3468.6,3473.4,1437.8,945.8,2037.4,3475.9,2213.7,1856.7,3477.1,3474.6,499.6,738.1,1066.0,1440.5,857.9,3491.7,3479.5,3478.3,746.3,1206.2,2255.9,1662.5,1584.2,1014.2,53.0,46.0,-143.0,9710.0,-12837.0,3046.0,-304.0,-535.0,-1008.0,-90.0,-15.0,93.0,-110.0,7931.0,-14252.0,1553.0,83.0,-738.0,-38.0,230.0,1.0
2022-05-13 12:59:28.537109-07:00,1513.4,854.5,1260.4,1119.1,1147.1,1063.4,1894.8,1465.4,3468.6,3473.4,1437.8,969.6,2037.4,3467.4,2148.3,1860.6,3478.3,3471.0,501.2,738.1,1052.2,1440.5,857.9,3491.7,3483.2,3477.1,779.4,1206.2,2311.8,1662.5,1584.2,1014.2,4.0,-49.0,-166.0,9623.0,-12967.0,2774.0,-6.0,-341.0,-790.0,-222.0,-26.0,-25.0,-85.0,7761.0,-14343.0,1564.0,190.0,-146.0,-259.0,57.0,1.0
2022-05-13 12:59:28.628652-07:00,1524.5,872.1,1257.8,1119.1,1155.9,1063.4,1894.8,1465.4,3477.1,3467.4,1439.6,969.6,2035.4,3467.4,2148.3,1860.6,3478.3,3471.0,501.2,732.3,1052.2,1446.0,846.1,3491.7,3483.2,3477.1,779.4,1202.7,2311.8,1625.6,1518.0,1016.8,-37.0,48.0,-137.0,9673.0,-12991.0,2462.0,215.0,38.0,-944.0,-337.0,-58.0,25.0,-52.0,7821.0,-14316.0,1491.0,298.0,176.0,-373.0,-81.0,1.0
2022-05-13 12:59:28.631881-07:00,1524.5,872.1,1257.8,1110.4,1155.9,1066.0,1885.0,1451.6,3477.1,3467.4,1439.6,966.2,2035.4,3478.3,2100.7,1842.0,3485.6,3478.3,495.6,732.3,1059.9,1446.0,846.1,3491.7,3473.4,3472.2,780.3,1202.7,2317.0,1625.6,1518.0,1016.8,-65.0,-12.0,-48.0,9756.0,-12991.0,2075.0,438.0,232.0,-981.0,-445.0,-55.0,6.0,19.0,7884.0,-14290.0,1384.0,407.0,266.0,-490.0,-165.0,1.0
2022-05-13 12:59:28.672878-07:00,1514.3,864.6,1252.4,1108.6,1140.1,1066.0,1885.0,1451.6,3471.0,3462.5,1421.3,965.4,2021.4,3478.3,2100.7,1842.0,3485.6,3478.3,495.6,740.6,1065.1,1441.5,836.9,3499.0,3473.4,3472.2,780.3,1190.3,2308.7,1594.6,1488.4,1017.6,32.0,7.0,52.0,9911.0,-12916.0,1714.0,670.0,326.0,-835.0,-282.0,-7.0,25.0,-10.0,8032.0,-14218.0,1216.0,547.0,342.0,-492.0,-183.0,1.0
2022-05-13 12:59:28.720029-07:00,1514.3,864.6,1252.4,1108.6,1145.4,1077.3,1913.4,1434.1,3471.0,3462.5,1421.3,965.4,2016.4,3467.4,2098.7,1818.7,3483.2,3475.9,498.8,742.2,1065.1,1441.5,836.9,3499.0,3478.3,3477.1,808.5,1178.8,2308.7,1594.6,1488.4,1017.6,28.0,66.0,41.0,10103.0,-12791.0,1475.0,773.0,456.0,-440.0,-255.0,13.0,50.0,7.0,8192.0,-14134.0,1046.0,677.0,325.0,-442.0,-205.0,1.0
2022-05-13 12:59:28.854632-07:00,1512.5,864.6,1256.0,1111.2,1145.4,1077.3,1913.4,1434.1,3466.1,3477.1,1413.1,972.2,2016.4,3467.4,2098.7,1818.7,3483.2,3475.9,498.8,742.2,1068.6,1441.5,829.4,3491.7,3478.3,3477.1,808.5,1178.8,2309.7,1578.6,1485.6,1010.8,18.0,47.0,7.0,10267.0,-12678.0,1296.0,781.0,402.0,-240.0,-283.0,15.0,69.0,15.0,8323.0,-14063.0,881.0,773.0,305.0,-380.0,-274.0,1.0
2022-05-13 12:59:28.901411-07:00,1512.5,864.6,1256.0,1111.2,1141.0,1068.6,1982.6,1578.6,3466.1,3477.1,1413.1,972.2,2013.4,3462.5,2075.5,1792.6,3480.7,3469.8,492.5,744.7,1068.6,1441.5,829.4,3491.7,3478.3,3471.0,832.7,1172.6,2309.7,1578.6,1485.6,1010.8,30.0,-17.0,19.0,10402.0,-12579.0,1187.0,781.0,393.0,-166.0,-157.0,38.0,5.0,-5.0,8444.0,-13997.0,716.0,837.0,317.0,-323.0,-211.0,1.0
2022-05-13 12:59:28.902544-07:00,1516.2,862.1,1265.8,1123.5,1141.0,1068.6,1982.6,1578.6,3469.8,3477.1,1405.8,971.3,2013.4,3462.5,2075.5,1792.6,3480.7,3469.8,492.5,744.7,1059.1,1445.1,828.5,3494.1,3478.3,3471.0,832.7,1172.6,2308.7,1590.8,1473.6,1003.9,43.0,-13.0,37.0,10512.0,-12494.0,1126.0,761.0,195.0,49.0,-64.0,25.0,26.0,4.0,8548.0,-13935.0,585.0,908.0,118.0,-291.0,-143.0,1.0
2022-05-13 12:59:28.903609-07:00,1516.2,862.1,1265.8,1123.5,1135.7,1060.8,2027.4,1635.0,3469.8,3477.1,1405.8,971.3,2005.5,3462.5,2071.5,1806.1,3481.9,3467.4,494.0,736.5,1059.1,1445.1,828.5,3494.1,3475.9,3475.9,820.2,1158.6,2308.7,1590.8,1473.6,1003.9,-6.0,-35.0,38.0,10516.0,-12484.0,1200.0,746.0,-51.0,112.0,165.0,24.0,-24.0,25.0,8579.0,-13916.0,494.0,973.0,64.0,-194.0,-35.0,1.0
2022-05-13 12:59:28.989002-07:00,1517.1,873.8,1281.0,1129.6,1135.7,1060.8,2027.4,1644.5,3466.1,3475.9,1405.8,968.8,2005.5,3462.5,2071.5,1796.5,3474.6,3467.4,494.0,736.5,1062.5,1440.5,831.1,3491.7,3477.1,3475.9,820.2,1158.6,2296.2,1551.5,1459.8,1017.6,2.0,-34.0,31.0,10523.0,-12471.0,1273.0,743.0,133.0,124.0,115.0,8.0,-31.0,18.0,8616.0,-13890.0,448.0,1030.0,189.0,-172.0,10.0,1.0
2022-05-13 12:59:29.034788-07:00,1535.7,873.8,1281.0,1129.6,1142.7,1044.4,2029.4,1644.5,3474.6,3475.9,1405.8,968.8,2003.5,3475.9,2065.5,1796.5,3474.6,3469.8,494.0,739.7,1062.5,1440.5,831.1,3503.9,3477.1,3475.9,807.7,1155.0,2296.2,1551.5,1459.8,1009.9,7.0,-5.0,8.0,10589.0,-12407.0,1354.0,734.0,203.0,106.0,156.0,18.0,-10.0,13.0,8707.0,-13830.0,425.0,1083.0,223.0,-122.0,31.0,1.0
2022-05-13 12:59:29.124137-07:00,1535.7,852.0,1418.6,1181.5,1142.7,1044.4,2029.4,1642.6,3474.6,3474.6,1402.1,981.6,2003.5,3475.9,2065.5,1799.4,3469.8,3469.8,494.0,739.7,1063.4,1444.2,820.2,3503.9,3488.0,3475.9,807.7,1155.0,2292.1,1555.3,1459.8,1009.9,18.0,-23.0,4.0,10652.0,-12342.0,1435.0,759.0,239.0,47.0,221.0,26.0,-2.0,-8.0,8794.0,-13772.0,419.0,1124.0,230.0,-96.0,48.0,1.0
2022-05-13 12:59:29.125351-07:00,1510.6,852.0,1418.6,1181.5,1168.2,1034.9,2012.4,1642.6,3478.3,3474.6,1402.1,981.6,2009.4,3464.9,2051.4,1799.4,3469.8,3472.2,499.6,739.7,1063.4,1444.2,820.2,3497.8,3488.0,3478.3,798.5,1149.8,2292.1,1555.3,1459.8,1011.6,6.0,26.0,-16.0,10708.0,-12281.0,1528.0,793.0,114.0,85.0,211.0,13.0,22.0,-7.0,8862.0,-13725.0,416.0,1164.0,45.0,-97.0,35.0,1.0
2022-05-13 12:59:29.167851-07:00,1510.6,857.0,1501.4,1260.4,1168.2,1034.9,2012.4,1639.8,3478.3,3464.9,1391.2,958.5,2009.4,3464.9,2051.4,1783.9,3472.2,3472.2,499.6,739.7,1059.9,1438.7,820.2,3497.8,3478.3,3478.3,798.5,1149.8,2276.5,1545.9,1448.8,1011.6,6.0,25.0,-12.0,10712.0,-12268.0,1582.0,825.0,-59.0,5.0,114.0,5.0,10.0,2.0,8864.0,-13722.0,408.0,1193.0,-28.0,-55.0,16.0,1.0
2022-05-13 12:59:29.259263-07:00,1516.2,859.5,1501.4,1260.4,1192.9,1033.2,2000.5,1639.8,3478.3,3469.8,1391.2,958.5,1986.6,3463.7,2043.4,1783.9,3472.2,3478.3,497.2,743.9,1059.9,1438.7,811.9,3496.6,3478.3,3471.0,794.4,1146.3,2276.5,1545.9,1440.5,1014.2,38.0,-88.0,46.0,10670.0,-12292.0,1668.0,842.0,-14.0,228.0,248.0,11.0,-36.0,-12.0,8845.0,-13732.0,407.0,1211.0,64.0,-31.0,43.0,1.0
2022-05-13 12:59:29.260463-07:00,1516.2,859.5,1552.5,1295.4,1192.9,1033.2,1993.5,1651.1,3478.3,3469.8,1386.6,961.1,1986.6,3463.7,2028.4,1771.4,3478.3,3475.9,497.2,743.9,1063.4,1443.3,811.9,3496.6,3457.6,3471.0,794.4,1146.3,2289.0,1540.3,1440.5,1014.2,6.0,-62.0,9.0,10639.0,-12296.0,1826.0,846.0,-133.0,253.0,303.0,7.0,-47.0,-18.0,8884.0,-13704.0,441.0,1238.0,38.0,-25.0,137.0,1.0
2022-05-13 12:59:29.394451-07:00,1512.5,857.9,1552.5,1295.4,1247.1,1028.0,1993.5,1651.1,3462.5,3473.4,1386.6,961.1,1994.5,3474.6,2028.4,1771.4,3478.3,3475.9,502.0,738.9,1063.4,1443.3,811.9,3488.0,3457.6,3471.0,789.4,1155.9,2289.0,1540.3,1442.4,1007.3,-4.0,-99.0,21.0,10576.0,-12317.0,2038.0,846.0,-84.0,398.0,426.0,-16.0,-45.0,-14.0,8897.0,-13688.0,515.0,1291.0,120.0,-2.0,264.0,1.0
2022-05-13 12:59:29.395739-07:00,1512.5,857.9,1572.1,1332.3,1247.1,1028.0,1989.5,1647.3,3462.5,3473.4,1367.6,963.7,1994.5,3474.6,2002.5,1774.3,3478.3,3474.6,502.0,738.9,1063.4,1436.0,811.9,3488.0,3467.4,3473.4,789.4,1155.9,2275.5,1538.5,1442.4,1007.3,-4.0,-1.0,-17.0,10467.0,-12349.0,2380.0,845.0,-295.0,547.0,601.0,-9.0,-44.0,-8.0,8940.0,-13646.0,629.0,1371.0,48.0,-17.0,362.0,1.0
2022-05-13 12:59:29.396816-07:00,1508.8,854.5,1572.1,1332.3,1275.6,1041.8,1989.5,1647.3,3474.6,3468.6,1367.6,963.7,2009.4,3466.1,2002.5,1774.3,3478.3,3474.6,499.6,733.2,1063.4,1436.0,818.5,3500.2,3467.4,3473.4,792.7,1191.2,2275.5,1538.5,1438.7,1028.8,16.0,12.0,-22.0,10298.0,-12433.0,2670.0,828.0,-360.0,502.0,400.0,0.0,0.0,-27.0,8909.0,-13650.0,766.0,1463.0,-67.0,5.0,396.0,1.0
2022-05-13 12:59:29.485409-07:00,1508.8,854.5,1624.7,1358.5,1275.6,1041.8,1976.6,1638.8,3474.6,3468.6,1373.0,962.0,2009.4,3466.1,2005.5,1763.7,3473.4,3463.7,499.6,733.2,1064.3,1437.8,818.5,3500.2,3471.0,3475.9,792.7,1191.2,2281.7,1532.0,1438.7,1028.8,22.0,97.0,-32.0,10125.0,-12527.0,2886.0,806.0,-504.0,348.0,244.0,11.0,52.0,-14.0,8843.0,-13676.0,891.0,1554.0,-201.0,-10.0,336.0,1.0
2022-05-13 12:59:29.527165-07:00,1502.3,851.1,1612.4,1358.5,1272.1,1105.1,1976.6,1638.8,3469.8,3462.5,1379.4,962.0,2000.5,3471.0,2005.5,1763.7,3473.4,3463.7,506.7,738.9,1064.3,1435.0,815.2,3499.0,3471.0,3475.9,791.0,1200.9,2281.7,1521.8,1431.4,1044.4,41.0,78.0,-11.0,9912.0,-12682.0,2957.0,776.0,-548.0,206.0,-87.0,31.0,51.0,-4.0,8694.0,-13757.0,969.0,1628.0,-436.0,-6.0,216.0,1.0
2022-05-13 12:59:29.619011-07:00,1502.3,851.1,1612.4,1351.2,1272.1,1113.9,1965.7,1631.3,3469.8,3462.5,1379.4,962.0,2000.5,3472.2,1999.5,1756.0,3479.5,3479.5,503.6,738.9,1055.6,1435.0,815.2,3499.0,3489.2,3472.2,789.4,1200.9,2274.5,1521.8,1431.4,1044.4,63.0,57.0,-14.0,9705.0,-12853.0,2924.0,717.0,-608.0,145.0,-190.0,43.0,55.0,-19.0,8513.0,-13863.0,997.0,1670.0,-539.0,4.0,97.0,1.0
2022-05-13 12:59:29.621284-07:00,1506.9,860.4,1588.9,1351.2,1260.4,1113.9,1965.7,1631.3,3469.8,3462.5,1377.5,962.0,1997.5,3472.2,1999.5,1756.0,3479.5,3479.5,503.6,726.6,1055.6,1438.7,806.9,3499.0,3489.2,3472.2,789.4,1186.7,2274.5,1524.5,1430.5,1034.9,40.0,-37.0,-6.0,9532.0,-12992.0,2888.0,671.0,-375.0,93.0,-130.0,36.0,-4.0,-21.0,8318.0,-13977.0,996.0,1703.0,-440.0,-31.0,52.0,1.0
2022-05-13 12:59:29.664654-07:00,1506.9,860.4,1588.9,1344.0,1260.4,1098.2,1953.9,1637.9,3469.8,3462.5,1377.5,958.5,1997.5,3472.2,1998.5,1757.9,3469.8,3457.6,500.4,726.6,1063.4,1438.7,806.9,3499.0,3466.1,3475.9,787.7,1186.7,2277.6,1524.5,1430.5,1034.9,-6.0,-54.0,1.0,9462.0,-13046.0,2875.0,666.0,-72.0,-27.0,10.0,1.0,-30.0,3.0,8203.0,-14040.0,1000.0,1736.0,-186.0,-31.0,86.0,1.0
2022-05-13 12:59:29.754972-07:00,1507.8,844.4,1581.4,1344.0,1244.4,1098.2,1953.9,1637.9,3475.9,3468.6,1363.9,958.5,2003.5,3472.2,1998.5,1757.9,3469.8,3457.6,500.4,731.5,1063.4,1425.9,801.9,3496.6,3466.1,3475.9,787.7,1182.3,2277.6,1519.9,1417.6,1042.6,-23.0,-8.0,5.0,9472.0,-13036.0,2879.0,699.0,26.0,-65.0,72.0,-26.0,-1.0,8.0,8190.0,-14041.0,1030.0,1773.0,13.0,-34.0,119.0,1.0
2022-05-13 12:59:29.757136-07:00,1507.8,844.4,1581.4,1348.5,1238.2,1099.9,1945.9,1616.2,3475.9,3468.6,1363.9,963.7,1991.5,3477.1,1989.5,1762.7,3477.1,3468.6,504.4,732.3,1062.5,1425.9,801.9,3496.6,3473.4,3475.9,791.0,1168.2,2267.2,1519.9,1417.6,1042.6,-25.0,17.0,3.0,9480.0,-13026.0,2891.0,728.0,32.0,-34.0,52.0,-28.0,11.0,14.0,8183.0,-14036.0,1076.0,1820.0,-9.0,-25.0,134.0,1.0
2022-05-13 12:59:29.800048-07:00,1491.2,852.0,1572.1,1333.2,1238.2,1099.9,1945.9,1616.2,3460.1,3481.9,1363.9,956.8,1991.5,3477.1,1989.5,1762.7,3477.1,3468.6,504.4,732.3,1060.8,1446.0,798.5,3489.2,3473.4,3475.9,791.0,1168.2,2251.7,1511.5,1416.7,1034.9,-1.0,49.0,-4.0,9498.0,-13014.0,2885.0,743.0,45.0,-48.0,-20.0,-13.0,33.0,9.0,8177.0,-14032.0,1118.0,1852.0,-9.0,-3.0,80.0,1.0
2022-05-13 12:59:29.845198-07:00,1491.2,852.0,1572.1,1333.2,1223.0,1081.6,1945.0,1602.1,3460.1,3481.9,1363.9,956.8,1990.5,3468.6,1990.5,1755.0,3479.5,3471.0,499.6,729.0,1060.8,1446.0,798.5,3489.2,3481.9,3474.6,774.5,1158.6,2251.7,1511.5,1416.7,1034.9,19.0,49.0,-3.0,9496.0,-13021.0,2858.0,739.0,-18.0,-25.0,-89.0,6.0,35.0,0.0,8161.0,-14039.0,1130.0,1858.0,-57.0,21.0,-10.0,1.0
2022-05-13 12:59:29.934709-07:00,1497.7,847.0,1569.3,1325.0,1223.0,1081.6,1945.0,1602.1,3473.4,3473.4,1357.6,960.2,1990.5,3468.6,1990.5,1755.0,3479.5,3471.0,499.6,729.0,1058.2,1430.5,792.7,3494.1,3481.9,3474.6,774.5,1158.6,2250.7,1510.6,1415.8,1021.1,27.0,5.0,-2.0,9484.0,-13041.0,2813.0,714.0,-36.0,-1.0,-122.0,14.0,5.0,-14.0,8128.0,-14062.0,1110.0,1842.0,-100.0,9.0,-70.0,1.0
2022-05-13 12:59:29.977885-07:00,1497.7,847.0,1569.3,1325.0,1217.7,1082.5,1940.0,1606.8,3473.4,3473.4,1357.6,960.2,1991.5,3467.4,1990.5,1750.2,3467.4,3478.3,504.4,734.8,1058.2,1430.5,792.7,3494.1,3467.4,3478.3,783.6,1155.0,2250.7,1510.6,1415.8,1021.1,2.0,-25.0,-6.0,9476.0,-13057.0,2770.0,692.0,-28.0,-32.0,-110.0,4.0,-20.0,-6.0,8097.0,-14085.0,1075.0,1826.0,-72.0,-10.0,-79.0,1.0
2022-05-13 12:59:30.023334-07:00,1490.3,847.8,1548.7,1320.5,1217.7,1082.5,1940.0,1598.3,3473.4,3462.5,1354.9,957.7,1991.5,3467.4,1990.5,1748.3,3468.6,3478.3,504.4,734.8,1059.9,1422.2,790.2,3495.3,3479.5,3478.3,783.6,1155.0,2260.0,1519.0,1404.0,1032.3,-4.0,-29.0,4.0,9475.0,-13067.0,2728.0,688.0,-9.0,-51.0,-67.0,-7.0,-18.0,-6.0,8088.0,-14094.0,1045.0,1817.0,-16.0,-9.0,-59.0,1.0
2022-05-13 12:59:30.069679-07:00,1500.4,847.8,1548.7,1320.5,1212.4,1073.8,1937.1,1598.3,3473.4,3462.5,1354.9,957.7,1981.6,3483.2,1980.6,1748.3,3468.6,3468.6,505.1,734.8,1059.9,1422.2,790.2,3491.7,3479.5,3483.2,781.1,1150.6,2260.0,1519.0,1404.0,1015.1,-1.0,-22.0,7.0,9478.0,-13071.0,2700.0,688.0,-22.0,-21.0,-37.0,-2.0,-14.0,-1.0,8088.0,-14096.0,1029.0,1810.0,-22.0,-3.0,-22.0,1.0
2022-05-13 12:59:30.112720-07:00,1500.4,857.0,1552.5,1318.7,1212.4,1073.8,1937.1,1592.7,3473.4,3467.4,1363.0,957.7,1981.6,3483.2,1980.6,1740.6,3457.6,3468.6,505.1,734.8,1054.8,1429.5,786.1,3491.7,3467.4,3483.2,781.1,1150.6,2244.5,1495.8,1397.6,1015.1,9.0,-29.0,10.0,9473.0,-13077.0,2684.0,683.0,-25.0,4.0,-17.0,4.0,-19.0,-8.0,8079.0,-14101.0,1028.0,1810.0,-19.0,10.0,16.0,1.0
2022-05-13 12:59:30.159682-07:00,1493.0,857.0,1552.5,1318.7,1200.9,1070.3,1936.1,1592.7,3475.9,3467.4,1363.0,957.7,1980.6,3469.8,1974.6,1740.6,3457.6,3483.2,507.5,730.7,1054.8,1429.5,786.1,3494.1,3467.4,3471.0,772.8,1141.0,2244.5,1495.8,1397.6,1012.5,7.0,-14.0,4.0,9473.0,-13076.0,2692.0,676.0,2.0,29.0,33.0,6.0,-6.0,0.0,8076.0,-14101.0,1046.0,1812.0,-3.0,19.0,55.0,1.0
2022-05-13 12:59:30.248332-07:00,1493.0,851.1,1550.6,1300.7,1200.9,1070.3,1936.1,1589.9,3475.9,3475.9,1358.5,952.6,1980.6,3469.8,1974.6,1742.6,3473.4,3483.2,507.5,730.7,1056.5,1427.7,784.4,3494.1,3479.5,3471.0,772.8,1141.0,2249.7,1499.5,1400.3,1012.5,9.0,4.0,8.0,9474.0,-13071.0,2715.0,673.0,23.0,41.0,45.0,3.0,9.0,-3.0,8077.0,-14098.0,1074.0,1815.0,24.0,24.0,57.0,1.0
2022-05-13 12:59:30.251183-07:00,1494.0,851.1,1550.6,1300.7,1199.1,1060.8,1925.2,1589.9,3462.5,3475.9,1358.5,952.6,1966.7,3467.4,1975.6,1742.6,3473.4,3468.6,500.4,727.4,1056.5,1427.7,784.4,3497.8,3479.5,3480.7,785.2,1141.0,2249.7,1499.5,1400.3,1008.2,13.0,17.0,-3.0,9483.0,-13060.0,2738.0,669.0,40.0,24.0,30.0,6.0,11.0,-2.0,8082.0,-14093.0,1094.0,1814.0,32.0,31.0,30.0,1.0
2022-05-13 12:59:30.295013-07:00,1494.0,847.8,1537.6,1313.3,1199.1,1060.8,1910.5,1599.3,3462.5,3466.1,1356.7,956.8,1966.7,3467.4,1965.7,1749.3,3477.1,3478.3,500.4,727.4,1057.3,1428.6,783.6,3497.8,3474.6,3479.5,785.2,1141.0,2252.8,1498.6,1393.9,1008.2,20.0,12.0,-5.0,9491.0,-13053.0,2747.0,654.0,47.0,36.0,-10.0,12.0,12.0,-10.0,8091.0,-14089.0,1108.0,1801.0,22.0,35.0,-6.0,1.0
2022-05-13 12:59:30.384592-07:00,1488.4,842.8,1537.6,1313.3,1195.6,1054.8,1910.5,1599.3,3467.4,3462.5,1356.7,956.8,1978.6,3467.4,1965.7,1749.3,3477.1,3478.3,501.2,730.7,1057.3,1428.6,778.6,3490.5,3474.6,3479.5,771.1,1141.0,2252.8,1498.6,1394.8,1011.6,16.0,5.0,-15.0,9506.0,-13043.0,2749.0,630.0,65.0,29.0,-28.0,7.0,3.0,-15.0,8097.0,-14087.0,1111.0,1783.0,35.0,28.0,-27.0,1.0
2022-05-13 12:59:30.428070-07:00,1488.4,842.8,1538.5,1311.5,1195.6,1054.8,1916.4,1590.8,3467.4,3462.5,1354.0,956.8,1978.6,3467.4,1966.7,1740.6,3464.9,3472.2,501.2,730.7,1056.5,1426.8,778.6,3490.5,3468.6,3480.7,771.1,1141.0,2252.8,1494.9,1394.8,1011.6,6.0,-12.0,-10.0,9516.0,-13039.0,2737.0,613.0,22.0,-4.0,-37.0,-1.0,-3.0,-20.0,8100.0,-14088.0,1106.0,1766.0,12.0,21.0,-23.0,1.0
2022-05-13 12:59:30.474117-07:00,1492.1,852.0,1538.5,1311.5,1196.5,1057.3,1916.4,1590.8,3471.0,3466.1,1354.0,956.8,1971.7,3463.7,1966.7,1740.6,3464.9,3472.2,504.4,732.3,1056.5,1426.8,781.9,3486.8,3468.6,3480.7,777.8,1140.1,2252.8,1494.9,1392.1,1012.5,0.0,-10.0,-8.0,9519.0,-13038.0,2732.0,608.0,-2.0,8.0,1.0,-7.0,-4.0,-17.0,8101.0,-14089.0,1104.0,1758.0,-4.0,2.0,-1.0,1.0
2022-05-13 12:59:30.517102-07:00,1492.1,852.0,1527.3,1314.2,1196.5,1057.3,1908.5,1568.3,3471.0,3466.1,1353.1,952.6,1971.7,3463.7,1964.7,1733.9,3473.4,3474.6,504.4,732.3,1055.6,1429.5,781.9,3486.8,3478.3,3478.3,777.8,1140.1,2243.5,1490.3,1392.1,1012.5,0.0,-3.0,-10.0,9525.0,-13033.0,2737.0,609.0,28.0,-3.0,18.0,-2.0,0.0,-10.0,8102.0,-14088.0,1106.0,1759.0,25.0,1.0,13.0,1.0
2022-05-13 12:59:30.562129-07:00,1492.1,855.3,1529.2,1314.2,1196.5,1057.3,1908.5,1568.3,3472.2,3473.4,1354.0,952.6,1974.6,3473.4,1964.7,1733.9,3473.4,3474.6,503.6,728.2,1055.6,1426.8,779.4,3486.8,3478.3,3478.3,776.1,1133.1,2243.5,1493.0,1393.9,1006.5,5.0,0.0,-7.0,9526.0,-13031.0,2742.0,612.0,-12.0,-6.0,15.0,-1.0,7.0,-9.0,8104.0,-14086.0,1112.0,1762.0,0.0,5.0,16.0,1.0
2022-05-13 12:59:30.609272-07:00,1492.1,855.3,1529.2,1298.1,1196.5,1057.3,1925.2,1570.2,3472.2,3473.4,1354.0,955.1,1974.6,3478.3,1965.7,1732.0,3478.3,3467.4,505.1,728.2,1060.8,1426.8,779.4,3486.8,3466.1,3475.9,768.7,1133.1,2241.4,1493.0,1393.9,1006.5,12.0,0.0,-9.0,9524.0,-13031.0,2746.0,614.0,11.0,-7.0,21.0,3.0,0.0,-13.0,8101.0,-14087.0,1119.0,1766.0,20.0,-8.0,20.0,1.0
2022-05-13 12:59:30.655058-07:00,1488.4,844.4,1525.5,1298.1,1186.7,1057.3,1925.2,1570.2,3469.8,3462.5,1345.8,955.1,1979.6,3478.3,1965.7,1732.0,3478.3,3467.4,505.1,724.9,1060.8,1425.9,781.9,3501.4,3466.1,3475.9,768.7,1128.7,2241.4,1485.6,1380.3,1006.5,10.0,12.0,-8.0,9525.0,-13029.0,2751.0,615.0,-3.0,-5.0,4.0,3.0,6.0,-6.0,8103.0,-14085.0,1126.0,1769.0,-10.0,-2.0,9.0,1.0
2022-05-13 12:59:30.700172-07:00,1488.4,844.4,1525.5,1308.8,1186.7,1053.9,1905.6,1593.6,3469.8,3462.5,1345.8,957.7,1979.6,3474.6,1959.8,1741.6,3477.1,3475.9,505.9,724.9,1057.3,1425.9,781.9,3501.4,3474.6,3475.9,772.0,1128.7,2241.4,1485.6,1380.3,1006.5,11.0,0.0,-4.0,9525.0,-13029.0,2750.0,614.0,6.0,-1.0,-3.0,3.0,2.0,-8.0,8101.0,-14086.0,1126.0,1768.0,-1.0,2.0,-4.0,1.0
2022-05-13 12:59:30.789018-07:00,1494.0,836.9,1523.6,1308.8,1192.0,1053.9,1905.6,1593.6,3471.0,3464.9,1353.1,957.7,1976.6,3474.6,1959.8,1741.6,3477.1,3475.9,505.9,731.5,1057.3,1425.9,775.3,3494.1,3474.6,3475.9,772.0,1132.2,2241.4,1491.2,1408.5,1006.5,8.0,0.0,-4.0,9524.0,-13030.0,2750.0,613.0,1.0,-8.0,-8.0,-2.0,0.0,-5.0,8099.0,-14087.0,1126.0,1768.0,-6.0,-1.0,-9.0,1.0
2022-05-13 12:59:30.790659-07:00,1494.0,836.9,1523.6,1302.5,1196.5,1056.5,1915.4,1577.7,3471.0,3464.9,1353.1,951.7,1978.6,3466.1,1951.9,1738.7,3478.3,3472.2,506.7,730.7,1063.4,1425.9,775.3,3494.1,3479.5,3469.8,769.5,1135.7,2242.5,1491.2,1408.5,1006.5,0.0,-5.0,-2.0,9528.0,-13028.0,2747.0,614.0,16.0,-26.0,-6.0,-2.0,-2.0,-4.0,8100.0,-14087.0,1121.0,1766.0,7.0,-9.0,-12.0,1.0
2022-05-13 12:59:30.877158-07:00,1496.7,838.6,1521.8,1305.2,1196.5,1056.5,1915.4,1577.7,3478.3,3473.4,1355.8,950.9,1978.6,3466.1,1951.9,1738.7,3478.3,3472.2,506.7,730.7,1052.2,1421.3,778.6,3497.8,3479.5,3469.8,769.5,1135.7,2235.3,1477.3,1394.8,1009.0,10.0,-4.0,2.0,9532.0,-13026.0,2741.0,620.0,0.0,-12.0,-3.0,1.0,1.0,-5.0,8103.0,-14086.0,1120.0,1766.0,1.0,-5.0,-2.0,1.0
2022-05-13 12:59:30.922871-07:00,1496.7,838.6,1521.8,1305.2,1189.4,1054.8,1919.3,1589.9,3478.3,3473.4,1355.8,950.9,1972.7,3467.4,1962.8,1737.8,3474.6,3478.3,497.2,729.9,1052.2,1421.3,778.6,3497.8,3473.4,3478.3,768.7,1133.1,2235.3,1477.3,1394.8,1009.0,8.0,0.0,5.0,9533.0,-13026.0,2740.0,621.0,20.0,-3.0,-6.0,0.0,-4.0,-1.0,8101.0,-14087.0,1120.0,1766.0,0.0,-1.0,5.0,1.0
2022-05-13 12:59:30.969683-07:00,1500.4,844.4,1526.4,1296.3,1189.4,1054.8,1919.3,1589.9,3475.9,3473.4,1350.3,953.4,1972.7,3467.4,1962.8,1737.8,3474.6,3478.3,497.2,729.9,1062.5,1422.2,781.9,3491.7,3473.4,3478.3,768.7,1133.1,2239.4,1477.3,1387.5,1002.2,13.0,-3.0,3.0,9537.0,-13022.0,2739.0,619.0,-4.0,12.0,-5.0,6.0,-1.0,-4.0,8099.0,-14088.0,1120.0,1766.0,-14.0,8.0,3.0,1.0
2022-05-13 12:59:31.014658-07:00,1500.4,844.4,1526.4,1296.3,1186.7,1042.6,1917.4,1583.3,3475.9,3473.4,1350.3,953.4,1968.7,3468.6,1960.8,1739.7,3475.9,3477.1,504.4,734.8,1062.5,1422.2,781.9,3491.7,3479.5,3479.5,764.5,1122.6,2239.4,1477.3,1387.5,1002.2,8.0,-2.0,-1.0,9541.0,-13020.0,2741.0,615.0,23.0,6.0,-12.0,9.0,-2.0,-3.0,8100.0,-14088.0,1121.0,1762.0,4.0,10.0,-11.0,1.0
2022-05-13 12:59:31.057805-07:00,1493.0,844.4,1519.9,1295.4,1186.7,1042.6,1917.4,1583.3,3468.6,3463.7,1346.7,955.1,1968.7,3468.6,1960.8,1739.7,3475.9,3477.1,504.4,734.8,1059.9,1426.8,774.5,3502.7,3479.5,3479.5,764.5,1122.6,2238.4,1483.8,1377.5,1005.6,9.0,-11.0,-2.0,9549.0,-13016.0,2734.0,608.0,26.0,-1.0,-16.0,1.0,-3.0,-11.0,8101.0,-14088.0,1121.0,1760.0,11.0,11.0,-8.0,1.0
2022-05-13 12:59:31.239336-07:00,1477.3,844.4,1519.9,1295.4,1185.0,1048.7,1912.4,1589.9,3462.5,3463.7,1346.7,955.1,1967.7,3466.1,1958.8,1734.9,3480.7,3474.6,492.5,731.5,1059.9,1426.8,774.5,3486.8,3473.4,3477.1,775.3,1124.4,2238.4,1483.8,1377.5,1005.6,4.0,-9.0,-1.0,9552.0,-13013.0,2737.0,603.0,5.0,16.0,17.0,0.0,-2.0,-12.0,8103.0,-14086.0,1123.0,1759.0,7.0,10.0,11.0,1.0
2022-05-13 12:59:31.241078-07:00,1477.3,847.0,1525.5,1305.2,1185.0,1048.7,1912.4,1579.6,3462.5,3466.1,1349.4,950.9,1967.7,3466.1,1958.8,1722.4,3479.5,3474.6,492.5,731.5,1057.3,1426.8,773.6,3486.8,3477.1,3477.1,775.3,1124.4,2239.4,1483.8,1383.9,1005.6,9.0,0.0,-5.0,9551.0,-13013.0,2744.0,600.0,-6.0,13.0,4.0,3.0,6.0,-9.0,8102.0,-14086.0,1130.0,1759.0,-5.0,9.0,13.0,1.0
2022-05-13 12:59:31.242207-07:00,1485.6,847.0,1525.5,1305.2,1191.2,1047.0,1894.8,1579.6,3467.4,3466.1,1349.4,950.9,1964.7,3469.8,1958.8,1722.4,3479.5,3474.6,502.8,731.5,1057.3,1426.8,773.6,3491.7,3477.1,3477.1,772.0,1126.1,2239.4,1483.8,1383.9,1004.8,8.0,6.0,-7.0,9548.0,-13013.0,2751.0,595.0,4.0,12.0,2.0,7.0,3.0,-6.0,8103.0,-14085.0,1133.0,1760.0,-2.0,4.0,2.0,1.0
2022-05-13 12:59:31.285012-07:00,1485.6,844.4,1513.4,1305.2,1191.2,1047.0,1894.8,1575.8,3467.4,3473.4,1346.7,953.4,1964.7,3469.8,1958.8,1725.3,3473.4,3474.6,502.8,731.5,1058.2,1424.1,775.3,3491.7,3475.9,3477.1,772.0,1126.1,2228.1,1477.3,1384.8,1004.8,9.0,0.0,-5.0,9547.0,-13015.0,2749.0,592.0,9.0,-5.0,-7.0,6.0,8.0,-8.0,8102.0,-14086.0,1133.0,1760.0,2.0,-1.0,-9.0,1.0
2022-05-13 12:59:31.329790-07:00,1486.6,844.4,1513.4,1305.2,1183.2,1040.9,1904.6,1575.8,3467.4,3473.4,1346.7,953.4,1963.7,3467.4,1956.8,1725.3,3473.4,3468.6,497.2,727.4,1058.2,1424.1,775.3,3490.5,3475.9,3475.9,772.8,1120.9,2228.1,1477.3,1384.8,1008.2,11.0,1.0,1.0,9549.0,-13014.0,2743.0,590.0,22.0,-7.0,-27.0,2.0,5.0,-7.0,8103.0,-14086.0,1127.0,1757.0,2.0,4.0,-18.0,1.0
2022-05-13 12:59:31.374670-07:00,1486.6,844.4,1522.7,1306.1,1183.2,1040.9,1896.7,1573.0,3467.4,3467.4,1350.3,942.4,1963.7,3467.4,1948.9,1727.2,3474.6,3473.4,497.2,727.4,1055.6,1426.8,771.1,3490.5,3488.0,3467.4,772.8,1120.9,2232.2,1481.9,1382.1,1008.2,8.0,-3.0,-4.0,9553.0,-13014.0,2734.0,584.0,-6.0,-10.0,-21.0,4.0,-2.0,-9.0,8101.0,-14088.0,1121.0,1754.0,-15.0,3.0,-14.0,1.0
2022-05-13 12:59:31.421063-07:00,1487.5,844.4,1522.7,1306.1,1188.5,1051.3,1896.7,1573.0,3473.4,3472.2,1350.3,942.4,1963.7,3469.8,1948.9,1727.2,3474.6,3473.4,503.6,730.7,1055.6,1426.8,771.1,3497.8,3488.0,3467.4,772.8,1118.2,2232.2,1481.9,1382.1,1005.6,3.0,4.0,4.0,9556.0,-13013.0,2727.0,579.0,36.0,-13.0,-19.0,1.0,3.0,0.0,8104.0,-14087.0,1115.0,1750.0,21.0,5.0,-20.0,1.0
2022-05-13 12:59:31.462792-07:00,1487.5,844.4,1520.8,1301.6,1188.5,1051.3,1909.5,1567.4,3473.4,3472.2,1345.8,949.2,1963.7,3469.8,1951.9,1721.5,3475.9,3479.5,503.6,730.7,1059.1,1420.4,771.1,3497.8,3488.0,3480.7,772.8,1118.2,2229.1,1478.3,1382.1,1005.6,15.0,19.0,29.0,9577.0,-13000.0,2718.0,564.0,159.0,45.0,-65.0,9.0,20.0,17.0,8132.0,-14075.0,1110.0,1725.0,144.0,66.0,-66.0,1.0
2022-05-13 12:59:31.507171-07:00,1492.1,841.1,1520.8,1301.6,1185.9,1041.8,1909.5,1567.4,3468.6,3471.0,1345.8,949.2,1958.8,3464.9,1951.9,1721.5,3475.9,3479.5,497.2,729.0,1059.1,1420.4,781.9,3491.7,3488.0,3480.7,775.3,1118.2,2229.1,1478.3,1383.0,995.3,13.0,53.0,47.0,9702.0,-12915.0,2698.0,470.0,676.0,169.0,-276.0,8.0,17.0,23.0,8255.0,-14012.0,1103.0,1652.0,419.0,115.0,-159.0,1.0
2022-05-13 12:59:31.553128-07:00,1492.1,841.1,1530.1,1298.1,1185.9,1041.8,1889.9,1557.1,3468.6,3471.0,1344.9,956.8,1958.8,3464.9,1943.0,1726.3,3477.1,3474.6,497.2,729.0,1055.6,1427.7,781.9,3491.7,3467.4,3478.3,775.3,1118.2,2229.1,1475.5,1383.0,995.3,7.0,98.0,-17.0,9960.0,-12743.0,2602.0,252.0,778.0,76.0,-697.0,9.0,15.0,3.0,8426.0,-13926.0,1076.0,1537.0,409.0,157.0,-246.0,1.0
2022-05-13 12:59:31.597701-07:00,1494.9,843.6,1530.1,1298.1,1182.3,1040.9,1889.9,1557.1,3461.3,3472.2,1344.9,956.8,1959.8,3467.4,1943.0,1726.3,3477.1,3474.6,503.6,730.7,1055.6,1427.7,776.9,3480.7,3467.4,3478.3,764.5,1120.9,2229.1,1475.5,1374.8,1005.6,2.0,-84.0,-78.0,10240.0,-12579.0,2315.0,-35.0,718.0,-91.0,-644.0,9.0,-9.0,-51.0,8524.0,-13882.0,1014.0,1432.0,269.0,74.0,-258.0,1.0
2022-05-13 12:59:31.644587-07:00,1494.9,843.6,1519.9,1295.4,1182.3,1041.8,1917.4,1604.0,3461.3,3472.2,1345.8,952.6,1959.8,3471.0,1956.8,1725.3,3478.3,3473.4,505.9,730.7,1055.6,1422.2,776.9,3480.7,3483.2,3472.2,769.5,1120.9,2236.3,1474.6,1374.8,1005.6,3.0,-51.0,-80.0,10511.0,-12385.0,2136.0,-118.0,753.0,-233.0,-205.0,-5.0,5.0,-68.0,8699.0,-13785.0,942.0,1363.0,527.0,-38.0,-232.0,1.0
2022-05-13 12:59:31.689437-07:00,1481.9,845.3,1522.7,1295.4,1177.9,1041.8,1917.4,1604.0,3472.2,3471.0,1345.8,952.6,1958.8,3471.0,1956.8,1725.3,3478.3,3473.4,505.9,737.3,1055.6,1434.1,778.6,3491.7,3483.2,3472.2,769.5,1118.2,2236.3,1479.2,1382.1,1009.0,-6.0,-3.0,-47.0,10704.0,-12235.0,2041.0,-113.0,687.0,-273.0,-137.0,-14.0,5.0,-20.0,8886.0,-13674.0,863.0,1326.0,478.0,-87.0,-220.0,1.0
2022-05-13 12:59:31.824171-07:00,1481.9,845.3,1522.7,1301.6,1177.9,1038.3,1905.6,1567.4,3472.2,3471.0,1345.8,956.8,1958.8,3457.6,1949.9,1721.5,3479.5,3478.3,502.8,737.3,1063.4,1434.1,778.6,3491.7,3475.9,3462.5,772.0,1118.2,2237.3,1479.2,1382.1,1009.0,6.0,34.0,2.0,10915.0,-12068.0,1911.0,-110.0,448.0,-179.0,-207.0,-8.0,19.0,-8.0,9014.0,-13597.0,781.0,1300.0,187.0,-78.0,-195.0,1.0
2022-05-13 12:59:31.826857-07:00,1487.5,842.8,1519.9,1301.6,1187.6,1038.3,1905.6,1567.4,3474.6,3469.8,1344.9,956.8,1959.8,3457.6,1949.9,1721.5,3479.5,3478.3,502.8,729.9,1063.4,1434.1,771.1,3496.6,3475.9,3462.5,772.0,1126.1,2237.3,1479.2,1366.6,1011.6,-12.0,-2.0,3.0,11003.0,-12004.0,1805.0,-140.0,58.0,-145.0,-247.0,8.0,-23.0,16.0,9020.0,-13599.0,702.0,1281.0,-67.0,-49.0,-164.0,1.0
2022-05-13 12:59:31.867192-07:00,1487.5,842.8,1519.9,1281.0,1187.6,1042.6,1900.7,1558.1,3474.6,3469.8,1344.9,954.3,1959.8,3469.8,1943.0,1721.5,3479.5,3483.2,499.6,729.9,1059.9,1434.1,771.1,3496.6,3481.9,3478.3,767.8,1126.1,2232.2,1479.2,1366.6,1011.6,2.0,-18.0,10.0,11041.0,-11988.0,1667.0,-174.0,122.0,-116.0,-182.0,16.0,-11.0,9.0,9022.0,-13603.0,631.0,1259.0,18.0,-42.0,-154.0,1.0
2022-05-13 12:59:31.959352-07:00,1485.6,844.4,1506.9,1275.6,1183.2,1042.6,1900.7,1558.1,3479.5,3466.1,1344.9,949.2,1955.8,3469.8,1943.0,1721.5,3479.5,3483.2,499.6,734.0,1052.2,1429.5,770.3,3495.3,3481.9,3478.3,767.8,1118.2,2232.2,1471.8,1376.6,1000.5,10.0,-31.0,13.0,11055.0,-11982.0,1621.0,-189.0,75.0,-79.0,-160.0,5.0,0.0,-1.0,9030.0,-13602.0,586.0,1237.0,59.0,-6.0,-102.0,1.0
2022-05-13 12:59:31.960677-07:00,1485.6,844.4,1506.9,1275.6,1172.6,1032.3,1899.7,1565.5,3479.5,3466.1,1344.9,949.2,1959.8,3471.0,1946.9,1738.7,3472.2,3479.5,495.6,730.7,1052.2,1429.5,770.3,3495.3,3483.2,3479.5,770.3,1118.2,2232.2,1471.8,1376.6,1000.5,-9.0,-49.0,-9.0,11078.0,-11965.0,1585.0,-213.0,97.0,43.0,-15.0,9.0,-36.0,6.0,9041.0,-13597.0,565.0,1226.0,72.0,-19.0,-46.0,1.0
2022-05-13 12:59:32.004884-07:00,1479.2,836.1,1502.3,1272.1,1172.6,1032.3,1899.7,1565.5,3475.9,3478.3,1339.5,950.0,1959.8,3471.0,1946.9,1738.7,3472.2,3479.5,495.6,730.7,1061.7,1429.5,772.8,3494.1,3483.2,3479.5,770.3,1118.2,2232.2,1477.3,1375.7,995.3,-5.0,0.0,-13.0,11118.0,-11927.0,1594.0,-211.0,175.0,-46.0,46.0,5.0,-8.0,-3.0,9085.0,-13568.0,550.0,1225.0,161.0,-14.0,-31.0,1.0
2022-05-13 12:59:32.049539-07:00,1479.2,836.1,1502.3,1272.1,1175.3,1040.9,1898.7,1567.4,3475.9,3478.3,1339.5,950.0,1954.8,3467.4,1937.1,1724.4,3473.4,3479.5,499.6,735.6,1061.7,1429.5,772.8,3494.1,3477.1,3477.1,763.7,1119.1,2232.2,1477.3,1375.7,995.3,16.0,17.0,5.0,11190.0,-11861.0,1582.0,-202.0,281.0,-14.0,-42.0,18.0,15.0,0.0,9150.0,-13525.0,543.0,1214.0,173.0,19.0,-32.0,1.0
2022-05-13 12:59:32.094176-07:00,1490.3,837.7,1522.7,1251.5,1175.3,1040.9,1898.7,1567.4,3475.9,3478.3,1354.0,948.3,1954.8,3467.4,1937.1,1724.4,3473.4,3479.5,499.6,735.6,1065.1,1434.1,775.3,3501.4,3477.1,3477.1,763.7,1119.1,2233.2,1470.0,1373.0,1002.2,1.0,26.0,4.0,11265.0,-11790.0,1569.0,-235.0,169.0,36.0,-68.0,32.0,25.0,20.0,9197.0,-13497.0,548.0,1180.0,45.0,99.0,-18.0,1.0
2022-05-13 12:59:32.230019-07:00,1490.3,837.7,1522.7,1251.5,1169.1,1040.1,1895.8,1558.1,3475.9,3478.3,1354.0,948.3,1955.8,3471.0,1947.9,1726.3,3479.5,3483.2,501.2,736.5,1065.1,1434.1,775.3,3501.4,3485.6,3469.8,767.0,1116.5,2233.2,1470.0,1373.0,1002.2,40.0,-29.0,36.0,11307.0,-11749.0,1573.0,-276.0,262.0,197.0,-59.0,29.0,-27.0,-19.0,9215.0,-13487.0,569.0,1138.0,144.0,94.0,-2.0,1.0
2022-05-13 12:59:32.231138-07:00,1485.6,847.0,1489.3,1224.8,1169.1,1040.1,1895.8,1565.5,3473.4,3473.4,1346.7,945.8,1955.8,3471.0,1947.9,1721.5,3483.2,3483.2,501.2,736.5,1055.6,1425.9,777.8,3497.8,3472.2,3469.8,767.0,1116.5,2225.0,1475.5,1383.0,997.9,-11.0,0.0,1.0,11400.0,-11650.0,1618.0,-368.0,254.0,136.0,45.0,16.0,11.0,9.0,9271.0,-13451.0,602.0,1097.0,104.0,129.0,27.0,1.0
2022-05-13 12:59:32.319290-07:00,1481.9,847.0,1489.3,1224.8,1164.7,1030.6,1895.8,1565.5,3474.6,3473.4,1346.7,945.8,1944.0,3472.2,1941.0,1721.5,3483.2,3475.9,501.2,729.9,1055.6,1425.9,777.8,3497.8,3472.2,3478.3,769.5,1108.6,2225.0,1475.5,1383.0,1011.6,20.0,-29.0,0.0,11454.0,-11585.0,1697.0,-390.0,118.0,241.0,220.0,5.0,-19.0,-18.0,9304.0,-13429.0,646.0,1047.0,94.0,136.0,46.0,1.0
2022-05-13 12:59:32.320413-07:00,1481.9,846.1,1451.6,1207.1,1164.7,1030.6,1895.8,1563.7,3474.6,3480.7,1338.6,945.8,1944.0,3472.2,1941.0,1722.4,3471.0,3475.9,501.2,729.9,1057.3,1428.6,781.1,3497.8,3484.4,3478.3,769.5,1108.6,2217.8,1478.3,1379.4,1011.6,22.0,-72.0,16.0,11488.0,-11524.0,1863.0,-412.0,192.0,401.0,363.0,-1.0,-22.0,-35.0,9351.0,-13397.0,707.0,1007.0,205.0,136.0,118.0,1.0
2022-05-13 12:59:32.364763-07:00,1493.0,846.1,1451.6,1207.1,1149.8,1032.3,1887.9,1563.7,3475.9,3480.7,1338.6,945.8,1938.0,3478.3,1945.0,1722.4,3471.0,3473.4,497.2,728.2,1057.3,1428.6,781.1,3490.5,3484.4,3472.2,773.6,1119.1,2217.8,1478.3,1379.4,988.5,25.0,-76.0,38.0,11543.0,-11407.0,2206.0,-441.0,394.0,876.0,842.0,-5.0,-12.0,-24.0,9444.0,-13327.0,809.0,989.0,430.0,193.0,220.0,1.0
2022-05-13 12:59:32.408894-07:00,1493.0,856.2,1437.8,1187.6,1149.8,1032.3,1887.9,1543.1,3475.9,3473.4,1348.5,950.0,1938.0,3478.3,1945.0,1724.4,3467.4,3473.4,497.2,728.2,1051.3,1430.5,790.2,3490.5,3480.7,3472.2,773.6,1119.1,2217.8,1478.3,1375.7,988.5,-19.0,59.0,-106.0,11619.0,-11182.0,2855.0,-503.0,263.0,1476.0,1262.0,-14.0,10.0,-6.0,9572.0,-13227.0,954.0,975.0,295.0,242.0,267.0,1.0
2022-05-13 12:59:32.453305-07:00,1476.4,853.7,1437.8,1187.6,1148.0,1028.0,1873.2,1543.1,3468.6,3472.2,1348.5,950.0,1945.9,3473.4,2022.4,1724.4,3467.4,3477.1,497.2,728.2,1051.3,1430.5,799.4,3495.3,3480.7,3473.4,767.0,1133.1,2217.8,1478.3,1485.6,994.5,-24.0,66.0,-139.0,11520.0,-11059.0,3625.0,-546.0,-189.0,1076.0,933.0,-17.0,19.0,-3.0,9614.0,-13185.0,1116.0,950.0,4.0,247.0,204.0,1.0
2022-05-13 12:59:32.543357-07:00,1476.4,853.7,1433.2,1192.9,1148.0,1028.0,1853.7,1492.1,3468.6,3472.2,1316.9,940.7,1945.9,3473.4,1999.5,1695.7,3478.3,3468.6,497.2,728.2,1066.9,1431.4,799.4,3495.3,3477.1,3473.4,767.0,1133.1,2202.4,1545.0,1485.6,994.5,-26.0,106.0,-80.0,11436.0,-10976.0,4109.0,-539.0,-279.0,544.0,641.0,-28.0,55.0,-26.0,9557.0,-13220.0,1215.0,916.0,-326.0,181.0,59.0,1.0
2022-05-13 12:59:32.545326-07:00,1489.3,837.7,1433.2,1192.9,1155.0,1036.6,1853.7,1492.1,3471.0,3467.4,1316.9,940.7,1942.0,3474.6,1999.5,1695.7,3478.3,3468.6,502.0,728.2,1066.9,1431.4,835.2,3490.5,3477.1,3473.4,764.5,1175.3,2202.4,1545.0,1514.3,996.2,53.0,76.0,-106.0,11185.0,-11150.0,4339.0,-398.0,-1257.0,107.0,156.0,-22.0,53.0,-55.0,9365.0,-13359.0,1230.0,875.0,-796.0,95.0,-102.0,1.0
2022-05-13 12:59:32.589638-07:00,1489.3,837.7,1428.6,1182.3,1155.0,1036.6,1853.7,1457.1,3471.0,3467.4,1249.7,927.9,1942.0,3474.6,1805.2,1613.4,3478.3,3484.4,502.0,728.2,1056.5,1431.4,835.2,3490.5,3483.2,3480.7,764.5,1175.3,2196.3,1520.8,1514.3,996.2,9.0,47.0,-104.0,10857.0,-11480.0,4324.0,-259.0,-1076.0,-456.0,-291.0,-6.0,-3.0,-25.0,9076.0,-13566.0,1155.0,831.0,-714.0,65.0,-254.0,1.0
2022-05-13 12:59:32.634907-07:00,1488.4,840.3,1428.6,1182.3,1161.2,1035.7,1853.7,1457.1,3473.4,3472.2,1249.7,927.9,1935.1,3467.4,1805.2,1613.4,3478.3,3484.4,497.2,722.5,1056.5,1431.4,878.0,3494.1,3483.2,3480.7,754.6,1152.4,2196.3,1520.8,1362.1,988.5,72.0,-4.0,20.0,10641.0,-11786.0,4033.0,-146.0,-462.0,-398.0,-759.0,-3.0,8.0,-53.0,8861.0,-13719.0,1049.0,782.0,-576.0,-26.0,-262.0,1.0
2022-05-13 12:59:32.724714-07:00,1488.4,840.3,1337.7,1151.5,1161.2,1035.7,1849.8,1443.3,3473.4,3472.2,1228.4,913.5,1935.1,3467.4,1684.3,1559.0,3472.2,3475.9,497.2,722.5,1053.9,1426.8,878.0,3494.1,3471.0,3474.6,754.6,1152.4,2170.7,1385.7,1362.1,988.5,-7.0,-35.0,0.0,10557.0,-11979.0,3666.0,-200.0,-491.0,-546.0,-763.0,17.0,3.0,-8.0,8659.0,-13856.0,947.0,742.0,-574.0,8.0,-203.0,1.0
2022-05-13 12:59:32.814361-07:00,1499.5,838.6,1291.8,1151.5,1148.0,1004.8,1849.8,1443.3,3478.3,3474.6,1215.1,913.5,1928.2,3462.5,1684.3,1559.0,3472.2,3475.9,498.0,732.3,1053.9,1423.1,880.6,3502.7,3471.0,3474.6,748.0,1105.1,2170.7,1345.8,1302.5,991.0,23.0,-90.0,63.0,10472.0,-12149.0,3336.0,-197.0,-187.0,-157.0,-404.0,3.0,0.0,-20.0,8503.0,-13959.0,874.0,719.0,-328.0,-31.0,-165.0,1.0
2022-05-13 12:59:32.815649-07:00,1499.5,838.6,1291.8,1126.1,1148.0,997.9,1840.1,1422.2,3478.3,3474.6,1215.1,916.0,1928.2,3471.0,1653.9,1532.9,3478.3,3466.1,495.6,732.3,1059.9,1423.1,880.6,3502.7,3467.4,3475.9,740.6,1105.1,2159.5,1345.8,1302.5,991.0,-60.0,-35.0,11.0,10428.0,-12214.0,3234.0,-218.0,-192.0,-178.0,-105.0,1.0,-56.0,20.0,8422.0,-14011.0,834.0,703.0,-179.0,29.0,-48.0,1.0
2022-05-13 12:59:32.859766-07:00,1500.4,844.4,1279.2,1126.1,1138.4,997.9,1840.1,1422.2,3478.3,3468.6,1205.3,916.0,1913.4,3471.0,1653.9,1532.9,3478.3,3466.1,495.6,723.3,1059.9,1430.5,862.1,3496.6,3467.4,3475.9,740.6,1092.1,2159.5,1333.2,1297.2,985.0,4.0,-39.0,6.0,10390.0,-12274.0,3130.0,-167.0,-57.0,-86.0,-115.0,-14.0,-14.0,-8.0,8377.0,-14039.0,829.0,688.0,-119.0,23.0,-26.0,1.0
2022-05-13 12:59:32.904844-07:00,1500.4,844.4,1279.2,1121.7,1138.4,990.2,1835.2,1414.9,3478.3,3468.6,1205.3,909.3,1913.4,3478.3,1639.8,1519.0,3466.1,3472.2,498.0,723.3,1063.4,1430.5,862.1,3496.6,3471.0,3472.2,735.6,1092.1,2151.4,1333.2,1297.2,985.0,-23.0,-47.0,-4.0,10390.0,-12280.0,3110.0,-165.0,66.0,-31.0,47.0,-10.0,-44.0,-4.0,8359.0,-14050.0,833.0,679.0,31.0,27.0,12.0,1.0
2022-05-13 12:59:32.949888-07:00,1493.0,837.7,1272.1,1121.7,1141.0,990.2,1835.2,1414.9,3474.6,3466.1,1204.4,909.3,1908.5,3478.3,1639.8,1519.0,3466.1,3472.2,498.0,729.9,1063.4,1422.2,846.1,3495.3,3471.0,3472.2,735.6,1084.2,2151.4,1323.2,1278.3,987.6,-15.0,0.0,-20.0,10421.0,-12253.0,3111.0,-144.0,71.0,-81.0,18.0,-14.0,-16.0,-6.0,8397.0,-14027.0,842.0,672.0,111.0,12.0,11.0,1.0
2022-05-13 12:59:32.992866-07:00,1493.0,837.7,1272.1,1110.4,1132.2,977.3,1834.3,1452.5,3474.6,3466.1,1204.4,912.7,1912.4,3469.8,1628.4,1511.5,3472.2,3478.3,496.4,730.7,1058.2,1422.2,846.1,3495.3,3478.3,3479.5,738.1,1069.5,2152.4,1323.2,1278.3,987.6,-11.0,-5.0,-16.0,10436.0,-12244.0,3097.0,-125.0,38.0,-48.0,-5.0,-16.0,-4.0,-7.0,8417.0,-14015.0,848.0,675.0,37.0,-1.0,17.0,1.0
2022-05-13 12:59:33.040253-07:00,1484.7,831.1,1270.3,1113.0,1132.2,977.3,1834.3,1452.5,3468.6,3466.1,1195.6,910.1,1912.4,3469.8,1628.4,1511.5,3472.2,3478.3,496.4,730.7,1058.2,1423.1,836.9,3500.2,3478.3,3479.5,738.1,1069.5,2139.2,1320.5,1269.4,983.3,3.0,6.0,-23.0,10456.0,-12231.0,3083.0,-103.0,47.0,-46.0,48.0,-8.0,17.0,-12.0,8440.0,-14001.0,856.0,678.0,78.0,4.0,12.0,1.0
2022-05-13 12:59:33.085277-07:00,1484.7,831.1,1270.3,1113.0,1127.9,973.9,1817.8,1416.7,3468.6,3466.1,1195.6,910.1,1897.7,3462.5,1615.2,1515.3,3481.9,3480.7,492.5,724.1,1058.2,1423.1,836.9,3500.2,3478.3,3472.2,732.3,1066.9,2139.2,1320.5,1269.4,983.3,16.0,3.0,-19.0,10479.0,-12210.0,3087.0,-88.0,123.0,-22.0,20.0,11.0,12.0,-24.0,8471.0,-13982.0,862.0,677.0,119.0,-8.0,12.0,1.0
2022-05-13 12:59:33.263324-07:00,1489.3,836.1,1265.8,1113.9,1127.9,973.9,1817.8,1416.7,3467.4,3467.4,1193.8,907.6,1897.7,3462.5,1615.2,1515.3,3481.9,3480.7,492.5,724.1,1057.3,1411.3,832.7,3497.8,3478.3,3472.2,732.3,1066.9,2146.3,1309.7,1264.9,986.7,22.0,4.0,-22.0,10493.0,-12199.0,3084.0,-93.0,-38.0,-2.0,20.0,19.0,23.0,-23.0,8476.0,-13978.0,862.0,678.0,-12.0,-11.0,14.0,1.0
2022-05-13 12:59:33.266291-07:00,1489.3,836.1,1265.8,1113.9,1133.1,971.3,1806.1,1403.0,3467.4,3467.4,1193.8,907.6,1894.8,3461.3,1619.9,1500.4,3474.6,3469.8,495.6,724.1,1057.3,1411.3,832.7,3497.8,3477.1,3474.6,733.2,1059.1,2146.3,1309.7,1264.9,986.7,12.0,-6.0,-6.0,10481.0,-12209.0,3086.0,-88.0,32.0,-23.0,23.0,19.0,4.0,-6.0,8468.0,-13983.0,858.0,680.0,29.0,-22.0,8.0,1.0
2022-05-13 12:59:33.267429-07:00,1483.8,836.9,1264.0,1107.8,1133.1,971.3,1806.1,1416.7,3469.8,3471.0,1192.9,901.7,1894.8,3461.3,1619.9,1508.8,3468.6,3469.8,495.6,724.1,1061.7,1426.8,831.1,3502.7,3474.6,3474.6,733.2,1059.1,2133.1,1312.4,1259.6,978.2,11.0,10.0,6.0,10492.0,-12202.0,3073.0,-75.0,-3.0,-59.0,-24.0,12.0,12.0,-3.0,8476.0,-13979.0,852.0,679.0,-3.0,-8.0,-15.0,1.0
2022-05-13 12:59:33.308744-07:00,1484.7,836.9,1264.0,1107.8,1121.7,959.4,1810.0,1416.7,3474.6,3471.0,1192.9,901.7,1897.7,3468.6,1611.5,1508.8,3468.6,3479.5,499.6,728.2,1061.7,1426.8,831.1,3510.0,3474.6,3483.2,727.4,1057.3,2133.1,1312.4,1259.6,979.9,-1.0,0.0,-1.0,10499.0,-12201.0,3057.0,-73.0,53.0,-4.0,-31.0,0.0,-3.0,0.0,8475.0,-13980.0,846.0,675.0,19.0,7.0,-18.0,1.0
2022-05-13 12:59:33.353428-07:00,1484.7,829.4,1263.1,1113.0,1121.7,959.4,1810.0,1404.0,3474.6,3472.2,1192.0,910.1,1897.7,3468.6,1611.5,1497.7,3471.0,3479.5,499.6,728.2,1048.7,1421.3,827.7,3510.0,3488.0,3483.2,727.4,1057.3,2124.0,1295.4,1249.7,979.9,-5.0,-6.0,-10.0,10503.0,-12200.0,3045.0,-83.0,-23.0,-4.0,-32.0,-1.0,-4.0,-4.0,8473.0,-13981.0,846.0,666.0,-29.0,18.0,-5.0,1.0
2022-05-13 12:59:33.443423-07:00,1480.1,829.4,1263.1,1113.0,1127.0,967.1,1792.6,1404.0,3468.6,3472.2,1192.0,910.1,1887.9,3458.9,1608.7,1497.7,3471.0,3473.4,496.4,725.8,1048.7,1421.3,827.7,3491.7,3488.0,3472.2,726.6,1059.9,2124.0,1295.4,1249.7,983.3,-9.0,-3.0,-15.0,10500.0,-12205.0,3036.0,-90.0,-5.0,5.0,-31.0,-9.0,-2.0,-17.0,8466.0,-13986.0,850.0,664.0,-17.0,9.0,12.0,1.0
2022-05-13 12:59:33.487576-07:00,1480.1,831.9,1255.1,1105.1,1127.0,967.1,1792.6,1399.4,3468.6,3472.2,1188.5,905.0,1887.9,3458.9,1608.7,1500.4,3464.9,3473.4,496.4,725.8,1054.8,1421.3,829.4,3491.7,3477.1,3472.2,726.6,1059.9,2136.1,1303.4,1256.9,983.3,-4.0,-11.0,-19.0,10487.0,-12219.0,3025.0,-93.0,-44.0,-12.0,-23.0,-11.0,3.0,-18.0,8453.0,-13993.0,856.0,670.0,-25.0,-1.0,14.0,1.0
2022-05-13 12:59:33.578503-07:00,1479.2,831.9,1255.1,1105.1,1117.4,967.1,1814.9,1399.4,3467.4,3472.2,1188.5,905.0,1887.9,3473.4,1608.7,1500.4,3464.9,3477.1,502.8,721.6,1054.8,1421.3,829.4,3496.6,3477.1,3475.9,729.9,1066.9,2136.1,1303.4,1256.9,984.2,-1.0,0.0,-14.0,10484.0,-12223.0,3022.0,-91.0,25.0,-29.0,-1.0,-2.0,6.0,-9.0,8457.0,-13990.0,856.0,677.0,41.0,-16.0,7.0,1.0
2022-05-13 12:59:33.579679-07:00,1479.2,835.2,1254.2,1108.6,1117.4,967.1,1812.9,1405.8,3467.4,3463.7,1184.1,906.7,1887.9,3473.4,1606.8,1497.7,3480.7,3478.3,502.8,721.6,1055.6,1419.5,826.9,3496.6,3477.1,3474.6,729.9,1066.9,2129.0,1299.0,1237.3,984.2,3.0,0.0,-12.0,10486.0,-12223.0,3013.0,-80.0,-9.0,-37.0,-6.0,2.0,0.0,-12.0,8458.0,-13990.0,851.0,684.0,2.0,-23.0,-2.0,1.0
2022-05-13 12:59:33.580770-07:00,1473.6,831.1,1254.2,1108.6,1120.0,967.1,1812.9,1405.8,3471.0,3475.9,1184.1,906.7,1889.9,3467.4,1606.8,1497.7,3480.7,3478.3,492.5,723.3,1055.6,1419.5,823.5,3495.3,3477.1,3474.6,729.9,1059.1,2129.0,1299.0,1243.5,985.0,0.0,0.0,0.0,10493.0,-12219.0,3002.0,-73.0,46.0,-13.0,2.0,2.0,5.0,-6.0,8468.0,-13984.0,845.0,688.0,49.0,-14.0,-14.0,1.0
2022-05-13 12:59:33.730774-07:00,1473.6,831.1,1253.3,1104.3,1120.0,967.1,1801.3,1384.8,3471.0,3475.9,1192.0,907.6,1889.9,3467.4,1612.4,1496.7,3478.3,3472.2,492.5,723.3,1058.2,1426.8,823.5,3495.3,3474.6,3477.1,729.9,1059.1,2125.0,1299.8,1243.5,985.0,1.0,5.0,-4.0,10508.0,-12208.0,2994.0,-72.0,12.0,-34.0,-27.0,4.0,0.0,-4.0,8475.0,-13980.0,837.0,688.0,-6.0,-13.0,-16.0,1.0
2022-05-13 12:59:33.733083-07:00,1481.0,836.1,1253.3,1104.3,1111.2,956.8,1801.3,1384.8,3463.7,3474.6,1192.0,907.6,1879.1,3472.2,1612.4,1496.7,3478.3,3472.2,492.5,722.5,1058.2,1426.8,825.2,3491.7,3474.6,3477.1,729.0,1061.7,2125.0,1299.8,1243.5,977.3,-5.0,-7.0,-8.0,10512.0,-12210.0,2975.0,-73.0,17.0,-28.0,-40.0,0.0,-5.0,-4.0,8473.0,-13981.0,831.0,687.0,-6.0,-5.0,-10.0,1.0
2022-05-13 12:59:33.851502-07:00,1481.0,836.1,1253.3,1101.7,1111.2,956.8,1805.2,1405.8,3463.7,3474.6,1189.4,910.1,1879.1,3472.2,1612.4,1497.7,3478.3,3477.1,492.5,722.5,1059.1,1419.5,825.2,3491.7,3475.9,3474.6,729.0,1061.7,2125.0,1298.1,1243.5,977.3,7.0,-1.0,-9.0,10515.0,-12214.0,2946.0,-67.0,-41.0,-39.0,-31.0,2.0,5.0,-14.0,8473.0,-13982.0,830.0,686.0,-19.0,-5.0,-4.0,1.0
2022-05-13 12:59:33.852889-07:00,1482.9,827.7,1248.0,1101.7,1117.4,953.4,1805.2,1405.8,3467.4,3475.9,1191.2,910.1,1883.0,3478.3,1612.4,1497.7,3478.3,3477.1,512.3,726.6,1059.1,1421.3,819.4,3489.2,3475.9,3474.6,732.3,1063.4,2125.0,1295.4,1234.6,992.7,-5.0,1.0,-11.0,10503.0,-12225.0,2943.0,-69.0,-16.0,4.0,-4.0,3.0,-3.0,-3.0,8465.0,-13986.0,830.0,686.0,-16.0,-1.0,-3.0,1.0
2022-05-13 12:59:33.854150-07:00,1482.9,827.7,1248.0,1101.7,1117.4,959.4,1806.1,1389.4,3467.4,3475.9,1191.2,904.2,1883.0,3468.6,1611.5,1496.7,3475.9,3475.9,497.2,726.6,1060.8,1421.3,819.4,3489.2,3477.1,3472.2,726.6,1063.4,2119.9,1295.4,1234.6,992.7,5.0,-4.0,-6.0,10495.0,-12234.0,2937.0,-69.0,-19.0,-15.0,-27.0,2.0,4.0,-13.0,8462.0,-13989.0,829.0,686.0,-7.0,4.0,-6.0,1.0
2022-05-13 12:59:33.939249-07:00,1470.9,839.4,1254.2,1101.7,1112.1,959.4,1806.1,1389.4,3469.8,3466.1,1186.7,904.2,1883.0,3468.6,1611.5,1496.7,3475.9,3475.9,497.2,727.4,1060.8,1420.4,816.0,3494.1,3477.1,3472.2,726.6,1056.5,2119.9,1291.8,1253.3,977.3,-2.0,-4.0,-5.0,10493.0,-12237.0,2929.0,-72.0,23.0,-9.0,-9.0,1.0,0.0,-6.0,8460.0,-13990.0,829.0,686.0,18.0,1.0,2.0,1.0
2022-05-13 12:59:33.940937-07:00,1470.9,839.4,1254.2,1095.6,1112.1,952.6,1805.2,1399.4,3469.8,3466.1,1186.7,902.5,1883.0,3469.8,1603.0,1492.1,3479.5,3473.4,494.8,727.4,1059.1,1420.4,816.0,3494.1,3477.1,3472.2,720.0,1056.5,2108.8,1291.8,1253.3,977.3,12.0,-1.0,-10.0,10498.0,-12233.0,2928.0,-71.0,-13.0,3.0,-6.0,3.0,7.0,-15.0,8465.0,-13987.0,830.0,684.0,14.0,7.0,7.0,1.0
2022-05-13 12:59:34.030678-07:00,1479.2,829.4,1244.4,1095.6,1113.9,952.6,1805.2,1399.4,3472.2,3473.4,1185.0,902.5,1884.0,3469.8,1603.0,1492.1,3479.5,3473.4,494.8,729.0,1059.1,1411.3,813.5,3491.7,3477.1,3472.2,720.0,1056.5,2108.8,1290.9,1228.4,973.9,0.0,1.0,-10.0,10496.0,-12232.0,2941.0,-81.0,20.0,24.0,9.0,1.0,2.0,-8.0,8465.0,-13986.0,833.0,682.0,15.0,16.0,11.0,1.0
2022-05-13 12:59:34.031929-07:00,1479.2,829.4,1244.4,1099.0,1113.9,956.8,1810.0,1390.3,3472.2,3473.4,1185.0,905.9,1884.0,3467.4,1601.1,1491.2,3469.8,3471.0,494.8,729.0,1059.1,1411.3,813.5,3491.7,3474.6,3484.4,724.9,1056.5,2114.9,1290.9,1228.4,973.9,-3.0,9.0,-17.0,10500.0,-12227.0,2944.0,-93.0,41.0,14.0,-32.0,0.0,11.0,-7.0,8467.0,-13985.0,838.0,678.0,16.0,9.0,-1.0,1.0
2022-05-13 12:59:34.119845-07:00,1474.6,830.2,1247.1,1103.4,1108.6,956.8,1810.0,1390.3,3472.2,3472.2,1192.0,906.7,1877.2,3467.4,1601.1,1491.2,3469.8,3471.0,494.8,724.1,1060.8,1423.1,812.7,3492.9,3474.6,3484.4,724.9,1053.0,2113.9,1289.1,1242.6,975.6,0.0,5.0,-13.0,10511.0,-12220.0,2936.0,-102.0,0.0,-4.0,-18.0,1.0,6.0,-9.0,8472.0,-13982.0,835.0,676.0,4.0,6.0,-18.0,1.0
2022-05-13 12:59:34.162966-07:00,1474.6,830.2,1247.1,1103.4,1108.6,952.6,1797.4,1399.4,3472.2,3472.2,1192.0,906.7,1885.0,3468.6,1604.9,1487.5,3478.3,3479.5,495.6,725.8,1060.8,1423.1,812.7,3492.9,3480.7,3478.3,725.8,1056.5,2113.9,1289.1,1242.6,975.6,-4.0,-8.0,-3.0,10506.0,-12227.0,2925.0,-107.0,-2.0,-13.0,-27.0,0.0,1.0,-6.0,8467.0,-13986.0,830.0,673.0,-12.0,2.0,-9.0,1.0
2022-05-13 12:59:34.254861-07:00,1466.3,835.2,1248.8,1101.7,1108.6,952.6,1797.4,1399.4,3467.4,3462.5,1188.5,902.5,1885.0,3468.6,1604.9,1487.5,3478.3,3479.5,495.6,725.8,1057.3,1419.5,811.9,3497.8,3480.7,3478.3,725.8,1056.5,2119.9,1288.2,1230.2,972.2,0.0,-6.0,-3.0,10502.0,-12231.0,2920.0,-109.0,-35.0,41.0,7.0,0.0,0.0,-12.0,8465.0,-13987.0,830.0,673.0,-10.0,9.0,3.0,1.0
2022-05-13 12:59:34.256070-07:00,1466.3,835.2,1248.8,1101.7,1098.2,962.8,1793.6,1391.2,3467.4,3462.5,1188.5,902.5,1870.3,3464.9,1604.9,1483.8,3467.4,3477.1,492.5,725.8,1057.3,1419.5,811.9,3497.8,3473.4,3484.4,722.5,1050.4,2119.9,1288.2,1230.2,972.2,0.0,0.0,-15.0,10497.0,-12234.0,2926.0,-115.0,-10.0,-15.0,-13.0,0.0,3.0,-11.0,8461.0,-13989.0,831.0,673.0,2.0,5.0,2.0,1.0
2022-05-13 12:59:34.297820-07:00,1469.0,832.7,1247.1,1101.7,1098.2,962.8,1793.6,1391.2,3467.4,3469.8,1185.0,903.4,1870.3,3464.9,1604.9,1483.8,3467.4,3477.1,492.5,725.8,1058.2,1418.6,809.4,3496.6,3473.4,3484.4,722.5,1050.4,2107.8,1281.0,1226.6,971.3,0.0,-1.0,-8.0,10498.0,-12237.0,2914.0,-113.0,-13.0,-29.0,-14.0,1.0,4.0,-10.0,8461.0,-13989.0,831.0,673.0,-7.0,-5.0,-6.0,1.0
2022-05-13 12:59:34.344548-07:00,1468.1,832.7,1247.1,1101.7,1102.5,945.8,1785.8,1384.8,3472.2,3469.8,1185.0,903.4,1872.3,3471.0,1598.3,1489.3,3473.4,3480.7,494.8,728.2,1058.2,1418.6,809.4,3497.8,3478.3,3473.4,701.9,1040.9,2107.8,1281.0,1226.6,977.3,-1.0,0.0,-10.0,10496.0,-12239.0,2908.0,-109.0,-3.0,-1.0,-11.0,-1.0,3.0,-11.0,8461.0,-13989.0,831.0,673.0,2.0,-3.0,3.0,1.0
2022-05-13 12:59:34.390280-07:00,1468.1,836.9,1245.3,1096.4,1102.5,945.8,1785.8,1398.5,3472.2,3467.4,1187.6,907.6,1872.3,3471.0,1598.3,1481.0,3473.4,3480.7,494.8,728.2,1061.7,1421.3,806.9,3497.8,3477.1,3473.4,701.9,1040.9,2108.8,1281.0,1228.4,977.3,-4.0,0.0,-9.0,10497.0,-12239.0,2906.0,-115.0,12.0,-2.0,-7.0,0.0,6.0,-8.0,8460.0,-13990.0,830.0,674.0,-3.0,2.0,7.0,1.0
2022-05-13 12:59:34.434497-07:00,1466.3,836.9,1245.3,1096.4,1110.4,955.1,1792.6,1398.5,3471.0,3467.4,1187.6,907.6,1876.2,3468.6,1599.3,1481.0,3473.4,3479.5,487.7,721.6,1061.7,1421.3,806.9,3500.2,3477.1,3477.1,724.1,1049.6,2108.8,1281.0,1228.4,976.5,-2.0,1.0,-12.0,10498.0,-12238.0,2906.0,-115.0,-19.0,1.0,-1.0,3.0,4.0,-9.0,8460.0,-13990.0,830.0,674.0,4.0,-3.0,4.0,1.0
2022-05-13 12:59:34.480152-07:00,1466.3,831.9,1242.6,1097.3,1110.4,955.1,1792.6,1383.0,3471.0,3471.0,1186.7,912.7,1876.2,3468.6,1599.3,1479.2,3481.9,3479.5,487.7,721.6,1058.2,1414.9,808.5,3500.2,3480.7,3477.1,724.1,1049.6,2115.9,1283.7,1231.9,976.5,5.0,1.0,0.0,10490.0,-12247.0,2900.0,-112.0,-66.0,-5.0,-7.0,4.0,12.0,-7.0,8456.0,-13993.0,831.0,674.0,-16.0,-5.0,4.0,1.0
2022-05-13 12:59:34.568378-07:00,1469.0,831.9,1242.6,1097.3,1104.3,948.3,1794.5,1383.0,3475.9,3471.0,1186.7,912.7,1862.5,3480.7,1600.2,1479.2,3481.9,3478.3,494.0,723.3,1058.2,1414.9,808.5,3467.4,3480.7,3478.3,721.6,1053.9,2115.9,1283.7,1231.9,973.1,-6.0,-11.0,2.0,10473.0,-12260.0,2905.0,-112.0,24.0,43.0,23.0,-1.0,-3.0,-9.0,8444.0,-14000.0,830.0,675.0,-9.0,-3.0,7.0,1.0
2022-05-13 12:59:34.612770-07:00,1469.0,823.5,1248.0,1098.2,1104.3,948.3,1794.5,1398.5,3475.9,3472.2,1185.9,900.0,1862.5,3480.7,1600.2,1490.3,3478.3,3478.3,494.0,723.3,1050.4,1418.6,804.4,3467.4,3478.3,3478.3,721.6,1053.9,2105.8,1284.6,1223.9,973.1,-30.0,-20.0,25.0,10495.0,-12229.0,2952.0,-130.0,172.0,185.0,145.0,-33.0,7.0,-16.0,8467.0,-13985.0,834.0,680.0,139.0,-13.0,12.0,1.0
2022-05-13 12:59:34.659864-07:00,1465.4,825.2,1248.0,1098.2,1107.8,949.2,1792.6,1398.5,3467.4,3472.2,1185.9,900.0,1881.1,3478.3,1682.4,1490.3,3478.3,3479.5,492.5,724.9,1050.4,1418.6,814.4,3497.8,3478.3,3480.7,725.8,1087.7,2105.8,1284.6,1368.5,967.1,-20.0,-50.0,-3.0,10499.0,-12195.0,3076.0,-189.0,266.0,498.0,102.0,-52.0,-44.0,-15.0,8507.0,-13959.0,851.0,696.0,58.0,-54.0,63.0,1.0
2022-05-13 12:59:34.748989-07:00,1465.4,825.2,1282.8,1123.5,1107.8,949.2,1798.4,1412.2,3467.4,3472.2,1223.9,909.3,1881.1,3478.3,2059.4,1626.5,3467.4,3479.5,492.5,724.9,1052.2,1421.3,814.4,3497.8,3468.6,3474.6,725.8,1087.7,2111.8,1407.6,1368.5,967.1,-70.0,3.0,-69.0,10642.0,-12029.0,3220.0,-361.0,683.0,193.0,12.0,-62.0,-15.0,1.0,8629.0,-13883.0,856.0,721.0,513.0,-43.0,25.0,1.0
2022-05-13 12:59:34.750200-07:00,1462.6,833.6,1282.8,1123.5,1102.5,990.2,1798.4,1412.2,3467.4,3464.9,1223.9,909.3,1901.6,3467.4,2059.4,1626.5,3467.4,3479.5,497.2,732.3,1052.2,1421.3,806.0,3507.5,3468.6,3474.6,724.1,1112.1,2111.8,1407.6,1548.7,974.8,-63.0,-37.0,-38.0,10805.0,-11872.0,3249.0,-430.0,392.0,-53.0,41.0,-44.0,-34.0,-10.0,8785.0,-13784.0,862.0,729.0,459.0,-58.0,15.0,1.0
2022-05-13 12:59:34.838591-07:00,1462.6,833.6,1325.0,1121.7,1102.5,990.2,1803.2,1414.0,3467.4,3464.9,1275.6,943.2,1901.6,3467.4,2127.0,1822.6,3477.1,3483.2,497.2,732.3,1054.8,1420.4,806.0,3507.5,3468.6,3473.4,724.1,1112.1,2128.0,1608.7,1548.7,974.8,-43.0,11.0,-50.0,10957.0,-11737.0,3225.0,-452.0,528.0,-148.0,-47.0,-6.0,-5.0,14.0,8966.0,-13664.0,870.0,762.0,528.0,-110.0,63.0,1.0
2022-05-13 12:59:34.840674-07:00,1457.1,821.9,1325.0,1121.7,1108.6,1007.3,1803.2,1414.0,3467.4,3469.8,1275.6,943.2,1917.4,3469.8,2127.0,1822.6,3477.1,3483.2,498.8,725.8,1054.8,1420.4,796.9,3490.5,3468.6,3473.4,736.5,1120.0,2128.0,1608.7,1524.5,967.1,50.0,-34.0,3.0,11094.0,-11632.0,3143.0,-419.0,605.0,-185.0,-3.0,-1.0,-1.0,-38.0,9138.0,-13546.0,881.0,803.0,458.0,-125.0,74.0,1.0
2022-05-13 12:59:34.974863-07:00,1457.1,821.9,1346.7,1134.9,1108.6,1013.3,1815.8,1460.8,3467.4,3469.8,1308.8,966.2,1917.4,3478.3,2135.1,1879.1,3475.9,3478.3,500.4,725.8,1056.5,1414.9,796.9,3490.5,3477.1,3484.4,757.9,1120.0,2163.6,1619.0,1524.5,967.1,17.0,64.0,-50.0,11297.0,-11451.0,3086.0,-415.0,436.0,-180.0,41.0,11.0,63.0,-3.0,9319.0,-13420.0,869.0,859.0,446.0,-153.0,31.0,1.0
2022-05-13 12:59:34.976025-07:00,1467.2,836.1,1349.4,1134.9,1093.8,1013.3,1815.8,1460.8,3473.4,3466.1,1362.1,966.2,1924.3,3478.3,2135.1,1879.1,3475.9,3478.3,500.4,729.0,1056.5,1415.8,792.7,3494.1,3477.1,3484.4,757.9,1147.1,2163.6,1588.9,1481.0,978.2,37.0,24.0,-51.0,11382.0,-11387.0,3015.0,-366.0,42.0,-308.0,-112.0,25.0,18.0,-23.0,9375.0,-13378.0,858.0,915.0,-20.0,-128.0,60.0,1.0
2022-05-13 12:59:34.977143-07:00,1467.2,836.1,1349.4,1127.9,1093.8,997.9,1857.6,1553.4,3473.4,3466.1,1362.1,979.0,1924.3,3468.6,2081.6,1880.1,3478.3,3467.4,490.1,729.0,1053.9,1415.8,792.7,3494.1,3477.1,3472.2,776.1,1147.1,2211.6,1588.9,1481.0,978.2,29.0,45.0,-44.0,11423.0,-11385.0,2870.0,-303.0,-26.0,-419.0,-143.0,26.0,31.0,-1.0,9359.0,-13387.0,829.0,966.0,-24.0,-132.0,-3.0,1.0
2022-05-13 12:59:35.064836-07:00,1481.0,821.9,1343.1,1127.9,1092.9,997.9,1857.6,1553.4,3471.0,3473.4,1367.6,979.0,1914.4,3468.6,2081.6,1880.1,3478.3,3467.4,490.1,723.3,1053.9,1418.6,788.6,3495.3,3477.1,3472.2,776.1,1140.1,2211.6,1569.3,1449.7,974.8,79.0,21.0,-7.0,11384.0,-11465.0,2712.0,-221.0,-305.0,-269.0,-49.0,52.0,17.0,-11.0,9309.0,-13424.0,770.0,986.0,-181.0,-124.0,-47.0,1.0
2022-05-13 12:59:35.154615-07:00,1481.0,821.9,1343.1,1129.6,1092.9,985.9,1893.8,1584.2,3471.0,3473.4,1367.6,977.3,1914.4,3473.4,2051.4,1838.2,3475.9,3472.2,506.7,723.3,1056.5,1418.6,788.6,3495.3,3474.6,3474.6,780.3,1140.1,2206.5,1569.3,1449.7,974.8,21.0,10.0,56.0,11279.0,-11578.0,2673.0,-141.0,-462.0,-61.0,48.0,26.0,-2.0,2.0,9221.0,-13487.0,714.0,1003.0,-331.0,-80.0,-27.0,1.0
2022-05-13 12:59:35.155882-07:00,1475.5,838.6,1439.6,1129.6,1099.0,985.9,1893.8,1584.2,3474.6,3472.2,1355.8,977.3,1904.6,3473.4,2051.4,1838.2,3475.9,3472.2,506.7,729.0,1056.5,1422.2,778.6,3497.8,3474.6,3474.6,780.3,1127.0,2206.5,1551.5,1440.5,976.5,15.0,-22.0,35.0,11167.0,-11689.0,2665.0,-109.0,-232.0,61.0,-17.0,18.0,-17.0,17.0,9142.0,-13540.0,689.0,1017.0,-118.0,-28.0,-20.0,1.0
2022-05-13 12:59:35.242841-07:00,1475.5,838.6,1439.6,1171.8,1100.8,987.6,1880.1,1585.2,3474.6,3472.2,1355.8,965.4,1895.8,3472.2,2024.4,1811.0,3480.7,3475.9,501.2,724.9,1057.3,1422.2,778.6,3497.8,3469.8,3472.2,772.8,1122.6,2187.1,1551.5,1440.5,976.5,-18.0,-40.0,25.0,11120.0,-11727.0,2688.0,-135.0,-24.0,95.0,14.0,6.0,-25.0,22.0,9123.0,-13554.0,683.0,1013.0,-22.0,11.0,13.0,1.0
2022-05-13 12:59:35.290173-07:00,1466.3,835.2,1528.3,1257.8,1100.8,987.6,1880.1,1585.2,3473.4,3467.4,1343.1,958.5,1895.8,3472.2,2024.4,1811.0,3480.7,3475.9,501.2,724.9,1053.0,1419.5,777.8,3495.3,3469.8,3472.2,772.8,1122.6,2184.0,1539.4,1434.1,985.0,15.0,-17.0,-23.0,11104.0,-11731.0,2740.0,-143.0,-146.0,133.0,121.0,2.0,-16.0,-19.0,9153.0,-13534.0,683.0,1015.0,100.0,-23.0,1.0,1.0
2022-05-13 12:59:35.292260-07:00,1466.3,835.2,1528.3,1257.8,1119.1,984.2,1872.3,1576.8,3473.4,3467.4,1343.1,958.5,1898.7,3464.9,2010.4,1814.9,3468.6,3478.3,501.2,723.3,1053.0,1419.5,777.8,3495.3,3480.7,3473.4,775.3,1141.9,2184.0,1539.4,1434.1,985.0,2.0,-89.0,2.0,11019.0,-11784.0,2853.0,-130.0,-158.0,282.0,293.0,-14.0,-63.0,-19.0,9158.0,-13528.0,686.0,1045.0,125.0,-68.0,75.0,1.0
2022-05-13 12:59:35.332581-07:00,1471.8,832.7,1557.1,1320.5,1119.1,984.2,1872.3,1576.8,3472.2,3467.4,1336.8,959.4,1898.7,3464.9,2010.4,1814.9,3468.6,3478.3,501.2,723.3,1059.1,1417.6,771.1,3496.6,3480.7,3473.4,775.3,1141.9,2178.9,1538.5,1428.6,993.6,-10.0,-37.0,-35.0,11002.0,-11763.0,3003.0,-89.0,-33.0,98.0,391.0,-29.0,-32.0,1.0,9223.0,-13479.0,724.0,1082.0,332.0,-61.0,174.0,1.0
2022-05-13 12:59:35.379458-07:00,1471.8,832.7,1557.1,1320.5,1148.9,984.2,1869.3,1552.5,3472.2,3467.4,1336.8,959.4,1912.4,3472.2,2000.5,1808.1,3475.9,3483.2,498.0,724.9,1059.1,1417.6,771.1,3496.6,3477.1,3480.7,780.3,1147.1,2178.9,1538.5,1428.6,993.6,-1.0,-72.0,0.0,10941.0,-11772.0,3186.0,0.0,-157.0,282.0,475.0,-20.0,-55.0,-18.0,9312.0,-13408.0,793.0,1156.0,252.0,-95.0,270.0,1.0
2022-05-13 12:59:35.558455-07:00,1472.7,836.9,1613.4,1408.5,1148.9,984.2,1869.3,1552.5,3463.7,3466.1,1342.2,962.8,1912.4,3472.2,2000.5,1803.2,3484.4,3483.2,498.0,724.9,1059.1,1413.1,770.3,3497.8,3480.7,3480.7,780.3,1147.1,2183.0,1519.9,1414.9,1018.5,0.0,-4.0,-9.0,10886.0,-11759.0,3414.0,67.0,-101.0,178.0,485.0,-12.0,-26.0,-26.0,9409.0,-13324.0,890.0,1259.0,286.0,-98.0,369.0,1.0
2022-05-13 12:59:35.559897-07:00,1462.6,836.9,1613.4,1408.5,1225.7,1032.3,1896.7,1552.5,3479.5,3466.1,1342.2,962.8,1913.4,3473.4,2001.5,1803.2,3484.4,3484.4,503.6,729.0,1059.1,1413.1,770.3,3497.8,3480.7,3483.2,780.3,1153.3,2183.0,1519.9,1414.9,1031.4,3.0,26.0,-17.0,10807.0,-11770.0,3616.0,147.0,-264.0,206.0,356.0,-3.0,-2.0,6.0,9458.0,-13269.0,1004.0,1383.0,51.0,-90.0,359.0,1.0
2022-05-13 12:59:35.603891-07:00,1462.6,828.5,1615.2,1414.0,1225.7,1032.3,1896.7,1545.0,3479.5,3467.4,1353.1,951.7,1913.4,3473.4,2001.5,1800.3,3481.9,3484.4,503.6,729.0,1059.9,1418.6,774.5,3497.8,3467.4,3483.2,780.3,1153.3,2182.0,1510.6,1425.9,1031.4,26.0,77.0,-30.0,10716.0,-11816.0,3735.0,200.0,-264.0,41.0,114.0,6.0,51.0,0.0,9452.0,-13253.0,1100.0,1495.0,-59.0,-76.0,283.0,1.0
2022-05-13 12:59:35.649322-07:00,1460.8,828.5,1615.2,1414.0,1244.4,1065.1,1903.6,1545.0,3472.2,3467.4,1353.1,951.7,1911.5,3469.8,1981.6,1800.3,3481.9,3477.1,509.1,715.9,1059.9,1418.6,774.5,3494.1,3467.4,3478.3,782.7,1149.8,2182.0,1510.6,1425.9,1035.7,46.0,59.0,-7.0,10611.0,-11899.0,3769.0,230.0,-314.0,62.0,-37.0,23.0,42.0,-2.0,9401.0,-13273.0,1167.0,1587.0,-158.0,-56.0,198.0,1.0
2022-05-13 12:59:35.651808-07:00,1460.8,824.4,1616.2,1425.9,1244.4,1065.1,1903.6,1553.4,3472.2,3469.8,1354.9,955.1,1911.5,3469.8,1981.6,1793.6,3478.3,3477.1,509.1,715.9,1057.3,1421.3,764.5,3494.1,3472.2,3478.3,782.7,1149.8,2171.8,1502.3,1405.8,1035.7,28.0,42.0,-3.0,10531.0,-11972.0,3761.0,217.0,-89.0,16.0,-18.0,21.0,56.0,9.0,9352.0,-13298.0,1201.0,1643.0,-63.0,-39.0,110.0,1.0
2022-05-13 12:59:35.694036-07:00,1465.4,836.9,1616.2,1425.9,1256.0,1074.7,1894.8,1553.4,3477.1,3473.4,1354.9,955.1,1909.5,3478.3,1989.5,1793.6,3478.3,3488.0,502.0,726.6,1057.3,1421.3,762.9,3489.2,3472.2,3484.4,774.5,1147.1,2171.8,1502.3,1402.1,1041.8,29.0,53.0,2.0,10515.0,-11985.0,3767.0,223.0,23.0,-13.0,45.0,8.0,41.0,-2.0,9348.0,-13297.0,1215.0,1664.0,24.0,-6.0,16.0,1.0
2022-05-13 12:59:35.739687-07:00,1465.4,836.9,1599.3,1414.9,1256.0,1074.7,1889.9,1536.6,3477.1,3473.4,1351.2,960.2,1909.5,3478.3,1982.6,1783.9,3477.1,3473.4,502.0,726.6,1058.2,1418.6,762.9,3489.2,3478.3,3480.7,774.5,1147.1,2194.2,1504.1,1402.1,1041.8,19.0,24.0,-7.0,10517.0,-11986.0,3758.0,224.0,-47.0,-34.0,-101.0,-4.0,24.0,-9.0,9327.0,-13313.0,1203.0,1657.0,-126.0,10.0,-52.0,1.0
2022-05-13 12:59:35.921679-07:00,1460.8,829.4,1599.3,1414.9,1241.7,1062.5,1889.9,1536.6,3467.4,3475.9,1351.2,960.2,1922.3,3472.2,1982.6,1783.9,3477.1,3473.4,507.5,725.8,1058.2,1418.6,759.6,3490.5,3478.3,3480.7,777.8,1138.4,2194.2,1504.1,1404.9,1031.4,1.0,-21.0,-10.0,10495.0,-12018.0,3715.0,201.0,-71.0,9.0,-132.0,-13.0,-12.0,-7.0,9277.0,-13352.0,1182.0,1641.0,-131.0,20.0,-52.0,1.0
2022-05-13 12:59:35.923036-07:00,1460.8,829.4,1588.9,1416.7,1241.7,1062.5,1886.9,1530.1,3467.4,3475.9,1340.4,954.3,1922.3,3472.2,1974.6,1783.9,3473.4,3480.7,507.5,725.8,1055.6,1426.8,759.6,3490.5,3472.2,3486.8,777.8,1138.4,2168.7,1501.4,1404.9,1031.4,-10.0,-37.0,7.0,10478.0,-12045.0,3677.0,174.0,11.0,-7.0,-94.0,-14.0,-19.0,-1.0,9246.0,-13376.0,1166.0,1633.0,-57.0,6.0,-29.0,1.0
2022-05-13 12:59:35.924381-07:00,1458.0,831.9,1588.9,1416.7,1220.4,1056.5,1886.9,1530.1,3473.4,3467.4,1340.4,954.3,1913.4,3472.2,1974.6,1783.9,3473.4,3480.7,502.0,724.1,1055.6,1426.8,752.1,3494.1,3472.2,3486.8,776.9,1136.6,2168.7,1501.4,1381.2,1016.8,-10.0,-15.0,-2.0,10491.0,-12040.0,3660.0,155.0,69.0,3.0,-17.0,-14.0,-9.0,2.0,9241.0,-13380.0,1163.0,1633.0,-5.0,5.0,1.0,1.0
2022-05-13 12:59:35.925762-07:00,1458.0,831.9,1576.8,1393.9,1220.4,1056.5,1881.1,1512.5,3473.4,3467.4,1346.7,945.8,1913.4,3472.2,1982.6,1772.3,3467.4,3480.7,502.0,724.1,1052.2,1415.8,752.1,3494.1,3466.1,3474.6,776.9,1136.6,2162.6,1502.3,1381.2,1016.8,3.0,-3.0,-15.0,10510.0,-12026.0,3650.0,151.0,28.0,-47.0,-17.0,-4.0,-5.0,-4.0,9240.0,-13380.0,1164.0,1634.0,-8.0,2.0,1.0,1.0
2022-05-13 12:59:36.009087-07:00,1458.9,829.4,1569.3,1393.9,1212.4,1056.5,1881.1,1512.5,3483.2,3463.7,1341.3,945.8,1910.5,3471.0,1982.6,1772.3,3467.4,3480.7,500.4,724.1,1052.2,1415.8,755.4,3496.6,3466.1,3474.6,772.0,1130.5,2162.6,1493.0,1401.2,1015.9,9.0,-7.0,-1.0,10514.0,-12027.0,3633.0,159.0,6.0,-10.0,3.0,0.0,2.0,-10.0,9242.0,-13379.0,1164.0,1634.0,21.0,-2.0,1.0,1.0
2022-05-13 12:59:36.054748-07:00,1458.9,829.4,1569.3,1389.4,1212.4,1038.3,1866.4,1523.6,3483.2,3463.7,1341.3,945.8,1910.5,3479.5,1971.7,1767.5,3467.4,3475.9,506.7,724.1,1056.5,1415.8,755.4,3496.6,3481.9,3473.4,776.1,1130.5,2169.7,1493.0,1401.2,1015.9,14.0,4.0,-5.0,10515.0,-12028.0,3629.0,161.0,4.0,-17.0,-6.0,0.0,7.0,-11.0,9246.0,-13376.0,1164.0,1636.0,-2.0,-7.0,8.0,1.0
2022-05-13 12:59:36.099835-07:00,1460.8,825.2,1544.1,1389.4,1203.5,1038.3,1866.4,1523.6,3474.6,3468.6,1340.4,945.8,1912.4,3479.5,1971.7,1767.5,3467.4,3475.9,506.7,727.4,1056.5,1418.6,748.0,3501.4,3481.9,3473.4,776.1,1121.7,2169.7,1479.2,1383.0,1018.5,8.0,4.0,-7.0,10520.0,-12027.0,3618.0,157.0,29.0,-20.0,-26.0,-5.0,7.0,-5.0,9243.0,-13378.0,1165.0,1636.0,-6.0,-3.0,-1.0,1.0
2022-05-13 12:59:36.188027-07:00,1460.8,825.2,1544.1,1393.0,1203.5,1050.4,1849.8,1517.1,3474.6,3468.6,1340.4,955.1,1912.4,3471.0,1962.8,1763.7,3477.1,3475.9,513.1,727.4,1057.3,1418.6,748.0,3501.4,3478.3,3477.1,767.8,1121.7,2164.6,1479.2,1383.0,1018.5,10.0,-2.0,-5.0,10525.0,-12029.0,3599.0,153.0,-4.0,-34.0,-44.0,-3.0,6.0,-9.0,9236.0,-13382.0,1164.0,1637.0,-19.0,6.0,-8.0,1.0
2022-05-13 12:59:36.279134-07:00,1457.1,828.5,1565.5,1393.0,1209.7,1050.4,1849.8,1517.1,3468.6,3478.3,1335.0,955.1,1906.6,3471.0,1962.8,1763.7,3477.1,3475.9,513.1,718.4,1057.3,1419.5,746.3,3494.1,3478.3,3477.1,767.8,1122.6,2164.6,1487.5,1383.0,1012.5,15.0,-11.0,3.0,10528.0,-12031.0,3579.0,148.0,21.0,-4.0,-17.0,-6.0,1.0,-18.0,9231.0,-13386.0,1164.0,1637.0,5.0,-6.0,-6.0,1.0
2022-05-13 12:59:36.323961-07:00,1457.1,828.5,1565.5,1386.6,1200.9,1042.6,1865.4,1514.3,3468.6,3478.3,1335.0,948.3,1902.6,3472.2,1957.8,1757.0,3473.4,3475.9,509.1,715.9,1052.2,1419.5,746.3,3494.1,3483.2,3462.5,772.8,1113.9,2160.5,1487.5,1383.0,1012.5,7.0,2.0,-8.0,10540.0,-12020.0,3581.0,140.0,25.0,-1.0,-4.0,-1.0,0.0,-8.0,9233.0,-13385.0,1164.0,1637.0,-9.0,-7.0,-5.0,1.0
2022-05-13 12:59:36.327290-07:00,1442.4,821.9,1559.0,1386.6,1200.9,1042.6,1865.4,1514.3,3474.6,3468.6,1335.9,951.7,1902.6,3472.2,1957.8,1757.0,3473.4,3475.9,509.1,715.9,1058.2,1415.8,750.5,3496.6,3483.2,3462.5,772.8,1113.9,2161.6,1484.7,1384.8,1014.2,-5.0,-7.0,0.0,10539.0,-12022.0,3579.0,143.0,9.0,-16.0,-5.0,-6.0,-8.0,-1.0,9230.0,-13387.0,1160.0,1638.0,12.0,-13.0,-14.0,1.0
2022-05-13 12:59:36.328426-07:00,1442.4,821.9,1559.0,1386.6,1191.2,1046.1,1871.3,1522.7,3474.6,3468.6,1335.9,951.7,1899.7,3471.0,1956.8,1768.5,3480.7,3483.2,506.7,724.1,1058.2,1415.8,750.5,3496.6,3471.0,3478.3,767.8,1110.4,2161.6,1484.7,1384.8,1014.2,2.0,-7.0,7.0,10546.0,-12018.0,3572.0,149.0,12.0,-15.0,-6.0,-2.0,-3.0,-1.0,9234.0,-13385.0,1156.0,1639.0,9.0,-7.0,-3.0,1.0
2022-05-13 12:59:36.414925-07:00,1457.1,824.4,1544.1,1380.3,1191.2,1046.1,1871.3,1522.7,3467.4,3464.9,1327.8,953.4,1899.7,3471.0,1956.8,1768.5,3480.7,3483.2,506.7,724.1,1054.8,1412.2,745.5,3495.3,3471.0,3478.3,767.8,1110.4,2160.5,1480.1,1386.6,1021.9,9.0,-1.0,2.0,10553.0,-12012.0,3572.0,147.0,26.0,4.0,-8.0,-8.0,-6.0,-8.0,9238.0,-13382.0,1157.0,1639.0,14.0,4.0,9.0,1.0
2022-05-13 12:59:36.458387-07:00,1457.1,824.4,1544.1,1380.3,1203.5,1028.0,1857.6,1519.0,3467.4,3464.9,1327.8,953.4,1893.8,3461.3,1959.8,1752.1,3478.3,3484.4,505.9,722.5,1054.8,1412.2,745.5,3495.3,3485.6,3485.6,763.7,1116.5,2160.5,1480.1,1386.6,1021.9,9.0,5.0,-5.0,10560.0,-12004.0,3576.0,138.0,43.0,17.0,11.0,0.0,2.0,-8.0,9242.0,-13378.0,1162.0,1641.0,27.0,9.0,13.0,1.0
2022-05-13 12:59:36.504518-07:00,1455.2,821.0,1550.6,1383.0,1203.5,1028.0,1857.6,1519.0,3463.7,3471.0,1330.5,954.3,1893.8,3461.3,1959.8,1752.1,3478.3,3484.4,505.9,722.5,1063.4,1409.4,745.5,3495.3,3485.6,3485.6,763.7,1116.5,2170.7,1480.1,1381.2,1011.6,12.0,15.0,-13.0,10560.0,-12005.0,3574.0,128.0,-23.0,2.0,-36.0,-5.0,11.0,-16.0,9231.0,-13386.0,1165.0,1643.0,-63.0,12.0,6.0,1.0
2022-05-13 12:59:36.548316-07:00,1461.7,821.0,1550.6,1383.0,1200.0,1027.1,1858.6,1506.0,3478.3,3471.0,1330.5,954.3,1900.7,3467.4,1957.8,1751.2,3478.3,3478.3,505.1,721.6,1063.4,1409.4,745.5,3500.2,3477.1,3473.4,775.3,1118.2,2170.7,1480.1,1381.2,1024.5,6.0,-3.0,-4.0,10548.0,-12018.0,3565.0,118.0,-17.0,24.0,-14.0,-2.0,4.0,-7.0,9211.0,-13399.0,1163.0,1645.0,-27.0,0.0,-8.0,1.0
2022-05-13 12:59:36.683490-07:00,1461.7,825.2,1556.2,1371.2,1200.0,1027.1,1858.6,1509.7,3478.3,3468.6,1328.7,950.0,1900.7,3467.4,1957.8,1752.1,3486.8,3478.3,505.1,721.6,1053.0,1414.9,745.5,3500.2,3484.4,3473.4,775.3,1118.2,2147.3,1480.1,1373.9,1024.5,4.0,-2.0,-4.0,10542.0,-12023.0,3566.0,117.0,-20.0,-5.0,-4.0,-2.0,2.0,-9.0,9202.0,-13405.0,1163.0,1646.0,-26.0,-8.0,-9.0,1.0
2022-05-13 12:59:36.684767-07:00,1454.3,825.2,1556.2,1371.2,1200.0,1035.7,1857.6,1509.7,3466.1,3468.6,1328.7,950.0,1903.6,3467.4,1963.7,1752.1,3486.8,3477.1,512.3,720.0,1053.0,1414.9,745.5,3491.7,3484.4,3474.6,768.7,1110.4,2147.3,1480.1,1373.9,1013.3,2.0,-8.0,-2.0,10535.0,-12031.0,3564.0,118.0,-19.0,-7.0,-4.0,-3.0,-8.0,-1.0,9194.0,-13411.0,1161.0,1648.0,-12.0,-6.0,-4.0,1.0
2022-05-13 12:59:36.685907-07:00,1454.3,821.9,1548.7,1385.7,1200.0,1035.7,1857.6,1503.2,3466.1,3469.8,1333.2,952.6,1903.6,3467.4,1963.7,1743.5,3469.8,3477.1,512.3,720.0,1056.5,1419.5,741.4,3491.7,3478.3,3474.6,768.7,1110.4,2147.3,1476.4,1376.6,1013.3,6.0,-6.0,1.0,10536.0,-12030.0,3562.0,119.0,8.0,3.0,-6.0,-2.0,-3.0,-4.0,9194.0,-13411.0,1161.0,1648.0,-1.0,0.0,3.0,1.0
2022-05-13 12:59:36.730021-07:00,1451.6,821.9,1548.7,1385.7,1203.5,1028.8,1860.6,1503.2,3469.8,3469.8,1333.2,952.6,1895.8,3473.4,1954.8,1743.5,3469.8,3490.5,502.0,721.6,1056.5,1419.5,741.4,3491.7,3478.3,3477.1,771.1,1104.3,2147.3,1476.4,1376.6,1009.0,3.0,-15.0,0.0,10533.0,-12033.0,3559.0,118.0,-2.0,-11.0,-9.0,-2.0,-9.0,-2.0,9192.0,-13412.0,1161.0,1648.0,9.0,3.0,6.0,1.0
2022-05-13 12:59:36.774736-07:00,1451.6,827.7,1546.9,1379.4,1203.5,1028.8,1849.8,1512.5,3469.8,3475.9,1321.4,945.8,1895.8,3473.4,1947.9,1749.3,3479.5,3474.6,502.0,721.6,1058.2,1414.9,743.0,3491.7,3481.9,3478.3,771.1,1104.3,2166.7,1477.3,1383.0,1009.0,9.0,-6.0,6.0,10543.0,-12026.0,3557.0,119.0,21.0,5.0,14.0,0.0,-1.0,-7.0,9199.0,-13407.0,1162.0,1647.0,19.0,4.0,7.0,1.0
2022-05-13 12:59:36.956951-07:00,1443.3,828.5,1546.9,1379.4,1196.5,1031.4,1849.8,1512.5,3475.9,3468.6,1321.4,945.8,1887.9,3471.0,1947.9,1749.3,3479.5,3474.6,503.6,720.8,1058.2,1414.9,742.2,3496.6,3481.9,3478.3,772.8,1112.1,2166.7,1477.3,1383.0,1020.2,5.0,0.0,-2.0,10549.0,-12018.0,3564.0,114.0,14.0,1.0,-2.0,0.0,0.0,-4.0,9203.0,-13405.0,1164.0,1644.0,8.0,11.0,7.0,1.0
2022-05-13 12:59:36.958194-07:00,1443.3,828.5,1546.9,1374.8,1196.5,1031.4,1848.9,1494.0,3475.9,3468.6,1331.4,949.2,1887.9,3471.0,1934.1,1739.7,3467.4,3479.5,503.6,720.8,1055.6,1419.5,742.2,3496.6,3478.3,3469.8,772.8,1112.1,2150.4,1478.3,1383.0,1020.2,10.0,0.0,-1.0,10553.0,-12015.0,3563.0,113.0,23.0,9.0,10.0,-2.0,3.0,-9.0,9204.0,-13404.0,1165.0,1643.0,18.0,5.0,3.0,1.0
2022-05-13 12:59:36.999984-07:00,1441.5,821.0,1546.9,1374.8,1185.9,1027.1,1848.9,1494.0,3463.7,3478.3,1331.4,949.2,1893.8,3471.0,1934.1,1739.7,3467.4,3479.5,503.6,720.8,1055.6,1419.5,735.6,3496.6,3478.3,3469.8,768.7,1105.1,2150.4,1478.3,1375.7,1019.4,5.0,0.0,-10.0,10556.0,-12013.0,3564.0,108.0,-9.0,-6.0,-21.0,-2.0,-1.0,-9.0,9207.0,-13402.0,1165.0,1642.0,-6.0,7.0,-1.0,1.0
2022-05-13 12:59:37.044337-07:00,1441.5,821.0,1541.3,1375.7,1185.9,1027.1,1845.9,1506.0,3463.7,3478.3,1323.2,948.3,1893.8,3471.0,1948.9,1753.1,3466.1,3477.1,503.6,720.8,1053.9,1411.3,735.6,3496.6,3471.0,3474.6,768.7,1105.1,2151.4,1470.0,1375.7,1019.4,3.0,1.0,-9.0,10556.0,-12013.0,3562.0,106.0,-8.0,-8.0,-7.0,-3.0,4.0,-9.0,9207.0,-13402.0,1165.0,1642.0,-1.0,4.0,3.0,1.0
2022-05-13 12:59:37.046001-07:00,1458.0,821.9,1542.2,1375.7,1195.6,1035.7,1845.9,1506.0,3464.9,3471.0,1329.6,948.3,1888.9,3460.1,1948.9,1753.1,3466.1,3477.1,505.9,714.2,1053.9,1420.4,733.2,3507.5,3471.0,3474.6,768.7,1099.9,2151.4,1470.9,1377.5,1009.0,5.0,-2.0,-8.0,10556.0,-12015.0,3556.0,107.0,8.0,-11.0,-12.0,-7.0,1.0,-11.0,9204.0,-13404.0,1165.0,1643.0,-9.0,-2.0,-3.0,1.0
2022-05-13 12:59:37.224431-07:00,1458.0,821.9,1542.2,1372.1,1195.6,1026.3,1844.0,1506.9,3464.9,3471.0,1329.6,947.5,1888.9,3480.7,1940.0,1739.7,3468.6,3477.1,502.0,714.2,1049.6,1420.4,733.2,3507.5,3469.8,3471.0,770.3,1099.9,2160.5,1470.9,1377.5,1009.0,7.0,-8.0,-2.0,10558.0,-12014.0,3552.0,104.0,0.0,-6.0,-5.0,-5.0,-2.0,-9.0,9204.0,-13404.0,1165.0,1643.0,-8.0,-3.0,-5.0,1.0
2022-05-13 12:59:37.225980-07:00,1442.4,819.4,1537.6,1372.1,1182.3,1026.3,1844.0,1506.9,3473.4,3462.5,1321.4,947.5,1892.8,3480.7,1940.0,1739.7,3468.6,3477.1,502.0,721.6,1049.6,1411.3,743.9,3492.9,3469.8,3471.0,770.3,1106.9,2160.5,1470.9,1372.1,1021.9,5.0,-2.0,-2.0,10557.0,-12015.0,3552.0,104.0,-20.0,12.0,-1.0,-6.0,-2.0,-10.0,9204.0,-13404.0,1165.0,1643.0,-18.0,-3.0,2.0,1.0
2022-05-13 12:59:37.227137-07:00,1442.4,819.4,1537.6,1375.7,1182.3,1018.5,1854.7,1502.3,3473.4,3462.5,1321.4,951.7,1892.8,3473.4,1942.0,1740.6,3478.3,3483.2,505.1,721.6,1059.9,1411.3,743.9,3492.9,3480.7,3467.4,772.8,1106.9,2158.5,1470.9,1372.1,1021.9,3.0,-4.0,-1.0,10554.0,-12016.0,3556.0,105.0,6.0,-4.0,15.0,-5.0,-1.0,-6.0,9201.0,-13406.0,1164.0,1644.0,15.0,-9.0,8.0,1.0
2022-05-13 12:59:37.228235-07:00,1454.3,821.0,1534.8,1375.7,1184.1,1018.5,1854.7,1502.3,3468.6,3456.4,1320.5,951.7,1888.9,3473.4,1942.0,1740.6,3478.3,3483.2,505.1,725.8,1059.9,1415.8,735.6,3495.3,3480.7,3467.4,772.8,1105.1,2158.5,1466.3,1374.8,1014.2,1.0,-9.0,-1.0,10553.0,-12014.0,3566.0,108.0,-6.0,22.0,23.0,-10.0,-2.0,-6.0,9201.0,-13405.0,1165.0,1645.0,0.0,1.0,13.0,1.0
2022-05-13 12:59:37.268939-07:00,1454.3,821.0,1534.8,1376.6,1184.1,1021.1,1846.9,1495.8,3468.6,3456.4,1320.5,948.3,1888.9,3472.2,1940.0,1743.5,3472.2,3468.6,505.1,725.8,1050.4,1415.8,735.6,3495.3,3477.1,3473.4,760.4,1105.1,2154.4,1466.3,1374.8,1014.2,2.0,17.0,-3.0,10558.0,-12006.0,3581.0,106.0,51.0,23.0,27.0,-7.0,11.0,-6.0,9210.0,-13399.0,1170.0,1647.0,54.0,8.0,2.0,1.0
2022-05-13 12:59:37.359179-07:00,1443.3,831.9,1537.6,1369.4,1189.4,1021.1,1846.9,1495.8,3469.8,3463.7,1323.2,954.3,1887.9,3472.2,1940.0,1743.5,3472.2,3468.6,505.1,724.1,1054.8,1412.2,731.5,3494.1,3477.1,3473.4,760.4,1105.1,2153.4,1467.2,1364.8,1008.2,8.0,25.0,-10.0,10577.0,-11987.0,3587.0,91.0,100.0,20.0,-22.0,2.0,20.0,-5.0,9230.0,-13386.0,1168.0,1640.0,73.0,9.0,-35.0,1.0
2022-05-13 12:59:37.402863-07:00,1443.3,831.9,1537.6,1369.4,1192.0,1031.4,1842.0,1501.4,3469.8,3463.7,1323.2,954.3,1887.9,3472.2,1937.1,1741.6,3477.1,3478.3,503.6,716.7,1054.8,1412.2,731.5,3494.1,3481.9,3483.2,766.2,1105.1,2153.4,1467.2,1364.8,1008.2,20.0,60.0,-20.0,10661.0,-11928.0,3535.0,61.0,399.0,-172.0,-205.0,5.0,46.0,-7.0,9303.0,-13342.0,1142.0,1603.0,269.0,19.0,-156.0,1.0
2022-05-13 12:59:37.449774-07:00,1447.0,820.2,1540.3,1364.8,1192.0,1031.4,1842.0,1501.4,3478.3,3478.3,1324.1,950.0,1887.9,3472.2,1937.1,1741.6,3477.1,3478.3,503.6,716.7,1056.5,1409.4,742.2,3499.0,3481.9,3483.2,766.2,1105.1,2154.4,1475.5,1369.4,1012.5,38.0,51.0,-17.0,10830.0,-11824.0,3366.0,11.0,492.0,-267.0,-367.0,13.0,46.0,-20.0,9394.0,-13291.0,1083.0,1536.0,234.0,9.0,-252.0,1.0
2022-05-13 12:59:37.537228-07:00,1447.0,820.2,1540.3,1364.8,1187.6,1020.2,1844.0,1493.0,3478.3,3478.3,1324.1,950.0,1886.0,3466.1,1946.9,1737.8,3473.4,3473.4,502.0,720.0,1056.5,1409.4,742.2,3499.0,3472.2,3478.3,762.0,1105.1,2154.4,1475.5,1369.4,1012.5,44.0,-9.0,9.0,10957.0,-11758.0,3182.0,-60.0,214.0,-140.0,-343.0,8.0,15.0,-20.0,9428.0,-13282.0,992.0,1463.0,10.0,-4.0,-269.0,1.0
2022-05-13 12:59:37.584148-07:00,1447.9,822.7,1536.6,1350.3,1187.6,1020.2,1844.0,1493.0,3462.5,3469.8,1316.9,942.4,1886.0,3466.1,1946.9,1737.8,3473.4,3473.4,502.0,720.0,1048.7,1412.2,741.4,3494.1,3472.2,3478.3,762.0,1105.1,2142.2,1485.6,1367.6,1006.5,-3.0,-16.0,-1.0,11007.0,-11732.0,3104.0,-133.0,168.0,-10.0,-204.0,7.0,-17.0,1.0,9424.0,-13298.0,914.0,1402.0,-20.0,27.0,-208.0,1.0
2022-05-13 12:59:37.627296-07:00,1447.9,822.7,1536.6,1350.3,1178.8,1019.4,1834.3,1493.0,3472.2,3469.8,1316.9,942.4,1896.7,3473.4,1954.8,1739.7,3479.5,3483.2,499.6,720.8,1048.7,1412.2,741.4,3492.9,3472.2,3478.3,761.2,1101.7,2142.2,1485.6,1367.6,1001.3,7.0,-12.0,-6.0,11046.0,-11715.0,3022.0,-186.0,76.0,-60.0,-221.0,-9.0,-12.0,-9.0,9418.0,-13312.0,855.0,1344.0,-51.0,28.0,-179.0,1.0
2022-05-13 12:59:37.629760-07:00,1447.9,827.7,1528.3,1330.5,1178.8,1019.4,1834.3,1511.5,3472.2,3469.8,1316.0,947.5,1896.7,3473.4,1954.8,1737.8,3471.0,3483.2,499.6,720.8,1051.3,1414.0,738.9,3492.9,3469.8,3478.3,761.2,1101.7,2142.2,1482.9,1380.3,1001.3,-9.0,-19.0,-7.0,11082.0,-11704.0,2929.0,-240.0,121.0,-91.0,-213.0,-2.0,-16.0,-3.0,9412.0,-13325.0,787.0,1299.0,-26.0,-13.0,-184.0,1.0
2022-05-13 12:59:37.674460-07:00,1452.5,827.7,1528.3,1330.5,1152.4,1011.6,1838.2,1511.5,3464.9,3469.8,1316.0,947.5,1887.9,3475.9,1960.8,1737.8,3471.0,3467.4,503.6,724.1,1051.3,1414.0,738.9,3471.0,3469.8,3477.1,763.7,1099.9,2142.2,1482.9,1380.3,990.2,6.0,-33.0,8.0,11118.0,-11693.0,2835.0,-276.0,75.0,-103.0,-199.0,-8.0,-15.0,-7.0,9405.0,-13337.0,722.0,1263.0,-51.0,-16.0,-162.0,1.0
2022-05-13 12:59:37.720458-07:00,1452.5,814.4,1518.0,1309.7,1152.4,1011.6,1838.2,1464.4,3464.9,3474.6,1317.8,946.6,1887.9,3475.9,1960.8,1745.4,3472.2,3467.4,503.6,724.1,1041.8,1414.0,738.1,3471.0,3477.1,3477.1,763.7,1099.9,2140.2,1483.8,1367.6,990.2,-8.0,-25.0,5.0,11150.0,-11675.0,2780.0,-305.0,127.0,-25.0,-84.0,-1.0,-18.0,-3.0,9402.0,-13344.0,668.0,1237.0,8.0,-11.0,-120.0,1.0
2022-05-13 12:59:37.765438-07:00,1445.1,814.4,1518.0,1309.7,1158.6,1007.3,1828.4,1464.4,3471.0,3474.6,1317.8,946.6,1883.0,3463.7,1949.9,1745.4,3472.2,3472.2,506.7,719.2,1041.8,1414.0,738.1,3477.1,3477.1,3479.5,762.9,1091.2,2140.2,1483.8,1367.6,992.7,3.0,-5.0,-6.0,11202.0,-11636.0,2732.0,-329.0,175.0,-75.0,-123.0,-4.0,-2.0,-8.0,9412.0,-13341.0,632.0,1213.0,12.0,-8.0,-91.0,1.0
2022-05-13 12:59:37.944291-07:00,1445.1,826.0,1536.6,1273.9,1158.6,1007.3,1845.9,1480.1,3471.0,3478.3,1309.7,943.2,1883.0,3463.7,1938.0,1733.0,3478.3,3473.4,506.7,719.2,1056.5,1412.2,740.6,3477.1,3477.1,3469.8,762.9,1091.2,2119.9,1472.7,1370.3,992.7,-16.0,-27.0,30.0,11247.0,-11604.0,2674.0,-367.0,111.0,-30.0,-160.0,5.0,-31.0,4.0,9401.0,-13352.0,605.0,1191.0,-65.0,27.0,-61.0,1.0
2022-05-13 12:59:37.945564-07:00,1444.2,826.9,1536.6,1273.9,1159.4,1003.0,1845.9,1480.1,3457.6,3469.8,1309.7,943.2,1875.2,3473.4,1938.0,1733.0,3478.3,3473.4,502.0,720.0,1056.5,1412.2,743.9,3447.9,3477.1,3469.8,755.4,1085.1,2119.9,1472.7,1366.6,985.9,-10.0,-19.0,12.0,11292.0,-11573.0,2609.0,-420.0,144.0,-28.0,-163.0,4.0,-10.0,3.0,9395.0,-13359.0,599.0,1163.0,-4.0,54.0,-36.0,1.0
2022-05-13 12:59:37.990446-07:00,1444.2,826.9,1511.5,1290.9,1159.4,1003.0,1824.6,1468.1,3457.6,3469.8,1324.1,940.7,1875.2,3473.4,1924.3,1727.2,3478.3,3471.0,502.0,720.0,1053.9,1404.0,743.9,3447.9,3474.6,3473.4,755.4,1085.1,2132.1,1478.3,1366.6,985.9,-11.0,7.0,-26.0,11346.0,-11532.0,2549.0,-458.0,184.0,-33.0,-125.0,-4.0,-7.0,-1.0,9409.0,-13351.0,603.0,1135.0,60.0,58.0,-34.0,1.0
2022-05-13 12:59:38.081063-07:00,1445.1,834.4,1511.5,1290.9,1152.4,997.0,1824.6,1468.1,3468.6,3467.4,1324.1,940.7,1873.2,3471.0,1924.3,1727.2,3478.3,3471.0,505.9,724.9,1053.9,1404.0,743.9,3446.7,3474.6,3473.4,756.3,1085.1,2132.1,1478.3,1361.2,979.9,0.0,-12.0,0.0,11417.0,-11481.0,2453.0,-496.0,242.0,-131.0,-225.0,-1.0,-8.0,-11.0,9442.0,-13331.0,604.0,1097.0,90.0,74.0,-61.0,1.0
2022-05-13 12:59:38.124741-07:00,1445.1,834.4,1504.1,1259.6,1152.4,997.0,1817.8,1481.0,3468.6,3467.4,1307.0,939.8,1873.2,3471.0,1908.5,1721.5,3473.4,3480.7,505.9,724.9,1051.3,1417.6,743.9,3446.7,3473.4,3471.0,756.3,1085.1,2132.1,1457.1,1361.2,979.9,14.0,-6.0,-7.0,11530.0,-11389.0,2340.0,-554.0,402.0,-129.0,-209.0,11.0,21.0,2.0,9493.0,-13299.0,608.0,1047.0,145.0,104.0,-75.0,1.0
2022-05-13 12:59:38.126466-07:00,1449.7,826.9,1504.1,1259.6,1150.6,991.0,1817.8,1481.0,3463.7,3467.4,1307.0,939.8,1877.2,3478.3,1908.5,1721.5,3473.4,3480.7,500.4,725.8,1051.3,1417.6,744.7,3440.7,3473.4,3471.0,758.7,1086.8,2132.1,1457.1,1353.1,975.6,54.0,0.0,27.0,11672.0,-11249.0,2301.0,-597.0,546.0,85.0,-9.0,39.0,12.0,-14.0,9584.0,-13237.0,614.0,993.0,308.0,88.0,-63.0,1.0
2022-05-13 12:59:38.127593-07:00,1449.7,826.9,1495.8,1259.6,1150.6,1001.3,1826.5,1481.9,3463.7,3467.4,1307.9,944.1,1877.2,3471.0,1911.5,1715.8,3474.6,3479.5,502.0,725.8,1055.6,1415.8,744.7,3440.7,3483.2,3475.9,757.1,1086.8,2123.0,1460.8,1353.1,975.6,62.0,2.0,33.0,11783.0,-11114.0,2376.0,-658.0,261.0,217.0,103.0,41.0,0.0,-13.0,9660.0,-13184.0,636.0,947.0,155.0,131.0,-3.0,1.0
2022-05-13 12:59:38.213912-07:00,1450.6,826.0,1474.6,1259.6,1147.1,1001.3,1826.5,1481.9,3475.9,3467.4,1302.5,944.1,1870.3,3471.0,1911.5,1715.8,3474.6,3479.5,502.0,721.6,1055.6,1413.1,753.8,3411.7,3483.2,3475.9,757.1,1089.5,2123.0,1447.9,1354.9,978.2,23.0,-31.0,14.0,11812.0,-11043.0,2536.0,-725.0,9.0,478.0,370.0,17.0,-7.0,-5.0,9674.0,-13176.0,677.0,883.0,-11.0,184.0,53.0,1.0
2022-05-13 12:59:38.216089-07:00,1450.6,826.0,1474.6,1244.4,1147.1,991.0,1810.0,1487.5,3475.9,3467.4,1302.5,940.7,1870.3,3473.4,1976.6,1721.5,3479.5,3467.4,495.6,721.6,1057.3,1413.1,753.8,3411.7,3474.6,3477.1,763.7,1089.5,2127.0,1447.9,1354.9,978.2,-1.0,-15.0,-18.0,11750.0,-11032.0,2847.0,-748.0,-190.0,643.0,481.0,-22.0,-3.0,-19.0,9659.0,-13185.0,762.0,836.0,-51.0,203.0,109.0,1.0
2022-05-13 12:59:38.304778-07:00,1447.0,836.1,1463.5,1244.4,1133.1,991.0,1810.0,1487.5,3467.4,3478.3,1290.0,940.7,1876.2,3473.4,1976.6,1721.5,3479.5,3467.4,495.6,720.8,1057.3,1412.2,764.5,3472.2,3474.6,3477.1,763.7,1089.5,2127.0,1507.8,1395.7,974.8,-17.0,-39.0,-53.0,11618.0,-11048.0,3283.0,-777.0,-253.0,986.0,687.0,-37.0,-25.0,-17.0,9620.0,-13211.0,854.0,796.0,-143.0,196.0,142.0,1.0
2022-05-13 12:59:38.349781-07:00,1447.0,836.1,1463.5,1228.4,1133.1,988.5,1800.3,1455.2,3467.4,3478.3,1290.0,937.3,1876.2,3477.1,2038.4,1763.7,3471.0,3478.3,502.8,720.8,1053.9,1412.2,764.5,3472.2,3477.1,3475.9,762.0,1089.5,2129.0,1507.8,1395.7,974.8,-46.0,6.0,-33.0,11520.0,-11006.0,3732.0,-814.0,-40.0,628.0,579.0,-28.0,-20.0,2.0,9585.0,-13232.0,945.0,768.0,-26.0,164.0,132.0,1.0
2022-05-13 12:59:38.483137-07:00,1440.5,814.4,1447.9,1230.2,1134.9,988.5,1800.3,1455.2,3472.2,3462.5,1260.4,932.2,1872.3,3477.1,2038.4,1763.7,3471.0,3478.3,502.8,720.8,1053.9,1415.8,782.7,3452.8,3477.1,3475.9,762.0,1119.1,2120.9,1587.1,1512.5,980.7,-15.0,4.0,-39.0,11391.0,-11023.0,4076.0,-748.0,-702.0,522.0,674.0,-36.0,7.0,-40.0,9480.0,-13304.0,1012.0,745.0,-476.0,154.0,75.0,1.0
2022-05-13 12:59:38.528504-07:00,1440.5,814.4,1447.9,1230.2,1143.6,1003.0,1796.5,1430.5,3472.2,3462.5,1260.4,932.2,1861.5,3475.9,1962.8,1718.6,3480.7,3472.2,502.8,715.1,1053.9,1415.8,782.7,3452.8,3477.1,3480.7,749.6,1144.5,2120.9,1587.1,1512.5,980.7,21.0,59.0,-91.0,11116.0,-11206.0,4352.0,-595.0,-900.0,30.0,440.0,-4.0,9.0,-9.0,9318.0,-13417.0,1049.0,709.0,-407.0,157.0,-24.0,1.0
2022-05-13 12:59:38.530169-07:00,1440.5,824.4,1444.2,1203.5,1143.6,1003.0,1796.5,1430.5,3469.8,3469.8,1208.9,919.4,1861.5,3475.9,1962.8,1718.6,3480.7,3472.2,502.8,715.1,1052.2,1410.3,847.8,3497.8,3477.1,3480.7,749.6,1144.5,2102.7,1472.7,1471.8,977.3,-7.0,63.0,-36.0,10910.0,-11394.0,4404.0,-441.0,-448.0,-70.0,0.0,-2.0,13.0,-6.0,9157.0,-13529.0,1056.0,653.0,-413.0,140.0,-76.0,1.0
2022-05-13 12:59:38.531345-07:00,1440.5,824.4,1444.2,1203.5,1135.7,999.6,1800.3,1419.5,3469.8,3469.8,1208.9,919.4,1861.5,3467.4,1753.1,1622.8,3477.1,3480.7,498.8,725.8,1052.2,1410.3,847.8,3497.8,3488.0,3483.2,747.2,1092.1,2102.7,1472.7,1471.8,977.3,64.0,33.0,23.0,10801.0,-11565.0,4231.0,-344.0,-601.0,-411.0,-353.0,10.0,59.0,-36.0,9008.0,-13632.0,1052.0,586.0,-449.0,165.0,-112.0,1.0
2022-05-13 12:59:38.573988-07:00,1492.1,828.5,1347.6,1159.4,1135.7,999.6,1800.3,1419.5,3478.3,3474.6,1192.9,912.7,1861.5,3467.4,1753.1,1622.8,3477.1,3480.7,498.8,725.8,1049.6,1410.3,913.5,3486.8,3488.0,3483.2,747.2,1092.1,2098.7,1360.3,1327.8,980.7,53.0,-1.0,3.0,10661.0,-11767.0,4029.0,-280.0,-556.0,-312.0,-377.0,16.0,35.0,-44.0,8876.0,-13722.0,1038.0,521.0,-468.0,142.0,-142.0,1.0
2022-05-13 12:59:38.618134-07:00,1492.1,828.5,1347.6,1159.4,1128.7,991.9,1814.9,1399.4,3478.3,3474.6,1192.9,912.7,1857.6,3469.8,1668.2,1574.9,3478.3,3468.6,498.0,721.6,1049.6,1410.3,913.5,3486.8,3480.7,3477.1,734.0,1042.6,2098.7,1360.3,1327.8,980.7,30.0,-32.0,9.0,10568.0,-11910.0,3850.0,-276.0,-205.0,-164.0,-365.0,-11.0,15.0,-50.0,8723.0,-13824.0,1015.0,458.0,-261.0,78.0,-134.0,1.0
2022-05-13 12:59:38.665657-07:00,1512.5,826.9,1284.6,1136.6,1128.7,991.9,1814.9,1376.6,3473.4,3473.4,1188.5,906.7,1857.6,3469.8,1668.2,1544.1,3477.1,3468.6,498.0,721.6,1052.2,1414.0,905.9,3484.4,3483.2,3477.1,734.0,1042.6,2086.6,1334.1,1277.4,980.7,-21.0,-4.0,-19.0,10551.0,-11954.0,3757.0,-334.0,-45.0,8.0,-222.0,-25.0,-21.0,-13.0,8630.0,-13886.0,985.0,419.0,-183.0,42.0,-110.0,1.0
2022-05-13 12:59:38.845175-07:00,1504.1,826.9,1284.6,1136.6,1118.2,969.6,1807.1,1376.6,3471.0,3473.4,1188.5,906.7,1850.8,3471.0,1632.2,1544.1,3477.1,3488.0,494.8,738.9,1052.2,1414.0,905.9,3495.3,3483.2,3484.4,718.4,1025.4,2086.6,1334.1,1277.4,973.1,-33.0,-17.0,-30.0,10530.0,-11999.0,3664.0,-378.0,-66.0,-122.0,-261.0,-40.0,-22.0,-4.0,8566.0,-13928.0,957.0,388.0,-148.0,52.0,-100.0,1.0
2022-05-13 12:59:38.846392-07:00,1504.1,825.2,1278.3,1128.7,1118.2,969.6,1807.1,1365.7,3471.0,3467.4,1189.4,908.4,1850.8,3471.0,1632.2,1527.3,3469.8,3488.0,494.8,738.9,1049.6,1414.9,889.8,3495.3,3474.6,3484.4,718.4,1025.4,2075.5,1320.5,1264.9,973.1,-33.0,-74.0,-4.0,10498.0,-12054.0,3577.0,-366.0,-104.0,-116.0,-103.0,-33.0,-47.0,-21.0,8512.0,-13963.0,938.0,369.0,-85.0,4.0,-56.0,1.0
2022-05-13 12:59:38.847542-07:00,1494.9,825.2,1278.3,1128.7,1113.0,956.0,1790.7,1365.7,3473.4,3467.4,1189.4,908.4,1838.2,3475.9,1622.8,1527.3,3469.8,3467.4,491.7,738.9,1049.6,1414.9,889.8,3499.0,3474.6,3474.6,721.6,1024.5,2075.5,1320.5,1264.9,975.6,-21.0,-29.0,-11.0,10515.0,-12052.0,3536.0,-352.0,88.0,-86.0,-15.0,-21.0,-36.0,-9.0,8507.0,-13967.0,926.0,377.0,70.0,-41.0,-2.0,1.0
2022-05-13 12:59:38.889891-07:00,1494.9,826.9,1271.2,1122.6,1113.0,956.0,1790.7,1361.2,3473.4,3457.6,1177.9,901.7,1838.2,3475.9,1622.8,1522.7,3478.3,3467.4,491.7,738.9,1059.1,1408.5,874.7,3499.0,3475.9,3474.6,721.6,1024.5,2069.5,1308.8,1263.1,975.6,-2.0,-24.0,10.0,10532.0,-12043.0,3519.0,-324.0,8.0,-61.0,39.0,-9.0,-18.0,-7.0,8527.0,-13954.0,924.0,395.0,21.0,-41.0,38.0,1.0
2022-05-13 12:59:38.933421-07:00,1491.2,819.4,1271.2,1122.6,1104.3,960.2,1796.5,1361.2,3468.6,3464.9,1177.9,901.7,1835.2,3467.4,1620.9,1522.7,3478.3,3475.9,491.7,715.9,1059.1,1408.5,864.6,3491.7,3475.9,3477.1,724.9,1041.8,2069.5,1308.8,1253.3,968.8,0.0,-3.0,9.0,10552.0,-12019.0,3542.0,-301.0,73.0,-10.0,103.0,-2.0,-9.0,5.0,8551.0,-13938.0,931.0,417.0,100.0,-29.0,36.0,1.0
2022-05-13 12:59:38.979747-07:00,1491.2,819.4,1256.0,1113.0,1104.3,960.2,1782.9,1365.7,3468.6,3464.9,1177.0,904.2,1835.2,3467.4,1606.8,1521.8,3475.9,3483.2,491.7,715.9,1063.4,1411.3,864.6,3491.7,3457.6,3468.6,724.9,1041.8,2077.5,1306.1,1253.3,968.8,19.0,24.0,-6.0,10574.0,-11999.0,3547.0,-283.0,5.0,-43.0,8.0,3.0,16.0,-13.0,8588.0,-13915.0,941.0,430.0,36.0,-11.0,25.0,1.0
2022-05-13 12:59:39.024175-07:00,1479.2,831.9,1256.0,1113.0,1112.1,950.9,1782.9,1365.7,3464.9,3471.0,1177.0,904.2,1833.3,3478.3,1606.8,1521.8,3475.9,3483.2,498.0,716.7,1063.4,1411.3,857.0,3495.3,3457.6,3468.6,721.6,1027.1,2077.5,1306.1,1237.3,963.7,18.0,2.0,0.0,10580.0,-11997.0,3535.0,-277.0,37.0,-23.0,-10.0,9.0,12.0,-11.0,8593.0,-13911.0,947.0,436.0,41.0,-6.0,19.0,1.0
2022-05-13 12:59:39.067877-07:00,1479.2,831.9,1259.6,1120.0,1112.1,950.9,1782.0,1354.9,3464.9,3471.0,1175.3,912.7,1833.3,3478.3,1608.7,1514.3,3469.8,3480.7,498.0,716.7,1065.1,1409.4,857.0,3495.3,3474.6,3483.2,721.6,1027.1,2076.5,1302.5,1237.3,963.7,19.0,17.0,-15.0,10597.0,-11984.0,3527.0,-280.0,43.0,-26.0,-7.0,10.0,17.0,-10.0,8608.0,-13901.0,950.0,435.0,46.0,9.0,-3.0,1.0
2022-05-13 12:59:39.115201-07:00,1489.3,821.9,1259.6,1120.0,1110.4,950.0,1782.0,1354.9,3460.1,3467.4,1175.3,912.7,1829.4,3462.5,1608.7,1514.3,3469.8,3480.7,499.6,720.8,1065.1,1409.4,853.7,3492.9,3474.6,3483.2,716.7,1031.4,2076.5,1302.5,1236.4,961.1,14.0,-1.0,-2.0,10601.0,-11989.0,3499.0,-272.0,5.0,-66.0,-39.0,-3.0,6.0,-19.0,8608.0,-13902.0,946.0,431.0,0.0,2.0,-16.0,1.0
2022-05-13 12:59:39.205523-07:00,1489.3,821.9,1260.4,1121.7,1110.4,946.6,1783.9,1349.4,3460.1,3467.4,1182.3,907.6,1829.4,3467.4,1598.3,1503.2,3473.4,3466.1,497.2,720.8,1053.0,1407.6,853.7,3492.9,3478.3,3478.3,715.1,1031.4,2065.5,1297.2,1236.4,961.1,6.0,3.0,-8.0,10610.0,-11990.0,3468.0,-272.0,14.0,-42.0,-51.0,-4.0,4.0,-7.0,8607.0,-13903.0,939.0,427.0,0.0,-2.0,-24.0,1.0
2022-05-13 12:59:39.206781-07:00,1465.4,818.5,1247.1,1121.7,1103.4,946.6,1783.9,1349.4,3466.1,3467.4,1170.9,907.6,1826.5,3467.4,1598.3,1503.2,3473.4,3466.1,497.2,720.0,1053.0,1415.8,841.1,3500.2,3478.3,3478.3,715.1,1036.6,2065.5,1299.8,1227.5,962.8,-6.0,0.0,-3.0,10620.0,-11988.0,3444.0,-276.0,33.0,-13.0,-33.0,-4.0,-10.0,-1.0,8609.0,-13902.0,928.0,423.0,15.0,-6.0,-26.0,1.0
2022-05-13 12:59:39.339756-07:00,1465.4,818.5,1247.1,1117.4,1103.4,941.5,1773.3,1349.4,3466.1,3467.4,1170.9,905.9,1826.5,3471.0,1587.1,1506.9,3474.6,3471.0,489.3,720.0,1056.5,1415.8,841.1,3500.2,3488.0,3474.6,713.4,1036.6,2060.5,1299.8,1227.5,962.8,7.0,-7.0,-2.0,10624.0,-11993.0,3417.0,-275.0,-40.0,-61.0,-58.0,-4.0,-8.0,-12.0,8607.0,-13905.0,921.0,419.0,-40.0,-1.0,-12.0,1.0
2022-05-13 12:59:39.341027-07:00,1470.9,827.7,1254.2,1117.4,1106.9,941.5,1773.3,1349.4,3471.0,3471.0,1175.3,905.9,1825.5,3471.0,1587.1,1506.9,3474.6,3471.0,489.3,720.0,1056.5,1405.8,837.7,3495.3,3488.0,3474.6,713.4,1043.5,2060.5,1288.2,1228.4,968.8,2.0,-1.0,-4.0,10618.0,-12005.0,3391.0,-277.0,-8.0,-30.0,-38.0,-3.0,-5.0,-4.0,8598.0,-13910.0,919.0,418.0,0.0,-1.0,-9.0,1.0
2022-05-13 12:59:39.384816-07:00,1470.9,827.7,1254.2,1119.1,1106.9,943.2,1776.2,1347.6,3471.0,3471.0,1175.3,907.6,1825.5,3467.4,1591.7,1507.8,3474.6,3467.4,498.0,720.0,1058.2,1405.8,837.7,3495.3,3477.1,3464.9,716.7,1043.5,2081.6,1288.2,1228.4,968.8,9.0,-14.0,-2.0,10622.0,-12009.0,3365.0,-272.0,-6.0,-52.0,-38.0,0.0,-5.0,-18.0,8603.0,-13907.0,919.0,418.0,16.0,6.0,-3.0,1.0
2022-05-13 12:59:39.429716-07:00,1469.0,821.9,1247.1,1119.1,1100.8,943.2,1776.2,1347.6,3469.8,3467.4,1168.2,907.6,1822.6,3467.4,1591.7,1507.8,3474.6,3467.4,498.0,729.9,1058.2,1414.0,843.6,3492.9,3477.1,3464.9,716.7,1045.2,2081.6,1292.7,1239.1,972.2,5.0,3.0,-13.0,10630.0,-12005.0,3352.0,-276.0,36.0,-9.0,-11.0,1.0,1.0,-6.0,8611.0,-13902.0,919.0,417.0,19.0,-2.0,-1.0,1.0
2022-05-13 12:59:39.518779-07:00,1469.0,821.9,1247.1,1107.8,1096.4,933.0,1756.0,1337.7,3469.8,3467.4,1168.2,905.0,1818.7,3467.4,1591.7,1500.4,3472.2,3477.1,491.7,724.9,1054.8,1414.0,843.6,3492.9,3469.8,3473.4,712.6,1047.0,2059.4,1292.7,1239.1,972.2,8.0,-21.0,13.0,10632.0,-12008.0,3337.0,-270.0,-5.0,-46.0,-19.0,0.0,-7.0,-5.0,8611.0,-13902.0,919.0,417.0,28.0,-5.0,-2.0,1.0
2022-05-13 12:59:39.520127-07:00,1465.4,831.9,1241.7,1104.3,1096.4,933.0,1756.0,1337.7,3471.0,3471.0,1163.8,901.7,1818.7,3467.4,1591.7,1500.4,3472.2,3477.1,491.7,724.9,1047.8,1409.4,840.3,3507.5,3469.8,3473.4,712.6,1047.0,2036.4,1281.0,1218.6,967.9,5.0,7.0,-4.0,10651.0,-11991.0,3338.0,-275.0,63.0,11.0,14.0,5.0,0.0,-8.0,8629.0,-13891.0,919.0,416.0,36.0,2.0,7.0,1.0
2022-05-13 12:59:39.563592-07:00,1465.4,831.9,1241.7,1104.3,1098.2,936.4,1769.5,1345.8,3471.0,3471.0,1163.8,901.7,1818.7,3467.4,1597.4,1498.6,3478.3,3466.1,491.7,715.1,1047.8,1409.4,840.3,3507.5,3475.9,3483.2,706.9,1037.5,2036.4,1281.0,1218.6,967.9,7.0,-1.0,-3.0,10651.0,-11991.0,3337.0,-276.0,-27.0,-4.0,-12.0,3.0,-1.0,-5.0,8624.0,-13894.0,920.0,417.0,-11.0,2.0,4.0,1.0
2022-05-13 12:59:39.654120-07:00,1465.4,816.0,1247.1,1106.9,1098.2,936.4,1769.5,1345.8,3469.8,3478.3,1173.5,899.1,1818.7,3467.4,1597.4,1498.6,3478.3,3466.1,491.7,715.1,1052.2,1407.6,835.2,3496.6,3475.9,3483.2,706.9,1037.5,2055.4,1261.3,1224.8,961.1,6.0,9.0,-7.0,10654.0,-11989.0,3332.0,-284.0,37.0,11.0,-23.0,4.0,6.0,-12.0,8625.0,-13893.0,920.0,416.0,3.0,9.0,3.0,1.0
2022-05-13 12:59:39.655345-07:00,1465.4,816.0,1247.1,1106.9,1105.1,932.2,1765.6,1344.0,3469.8,3478.3,1173.5,899.1,1816.8,3467.4,1573.0,1497.7,3471.0,3467.4,490.9,725.8,1052.2,1407.6,835.2,3496.6,3483.2,3467.4,718.4,1037.5,2055.4,1261.3,1224.8,961.1,9.0,7.0,-9.0,10638.0,-12007.0,3319.0,-292.0,-127.0,4.0,-53.0,5.0,8.0,-20.0,8608.0,-13904.0,917.0,411.0,-81.0,10.0,-17.0,1.0
2022-05-13 12:59:39.745548-07:00,1459.8,816.9,1247.1,1099.0,1105.1,932.2,1765.6,1323.2,3469.8,3473.4,1173.5,899.1,1816.8,3467.4,1573.0,1500.4,3483.2,3467.4,490.9,725.8,1053.9,1403.0,827.7,3502.7,3477.1,3467.4,718.4,1037.5,2048.4,1289.1,1215.1,970.5,-6.0,-7.0,0.0,10613.0,-12030.0,3314.0,-303.0,12.0,41.0,-3.0,-3.0,-9.0,-8.0,8597.0,-13912.0,909.0,405.0,31.0,10.0,-20.0,1.0
2022-05-13 12:59:39.880330-07:00,1458.0,816.9,1247.1,1099.0,1095.6,927.9,1761.8,1323.2,3467.4,3473.4,1173.5,899.1,1814.9,3479.5,1589.9,1500.4,3483.2,3467.4,496.4,719.2,1053.9,1403.0,827.7,3473.4,3477.1,3480.7,714.2,1033.2,2048.4,1289.1,1215.1,961.1,-6.0,-7.0,-8.0,10630.0,-12016.0,3311.0,-314.0,58.0,0.0,-35.0,-8.0,-7.0,-10.0,8604.0,-13908.0,909.0,404.0,-3.0,3.0,4.0,1.0
2022-05-13 12:59:39.881629-07:00,1458.0,820.2,1244.4,1109.5,1095.6,927.9,1761.8,1342.2,3467.4,3464.9,1172.6,893.2,1814.9,3479.5,1589.9,1495.8,3478.3,3467.4,496.4,719.2,1046.1,1409.4,828.5,3473.4,3472.2,3480.7,714.2,1033.2,2042.4,1280.1,1216.8,961.1,2.0,-9.0,-1.0,10642.0,-12006.0,3309.0,-323.0,32.0,31.0,17.0,-5.0,-5.0,-11.0,8607.0,-13905.0,909.0,404.0,19.0,-1.0,9.0,1.0
2022-05-13 12:59:39.924958-07:00,1459.8,820.2,1244.4,1109.5,1090.3,932.2,1763.7,1342.2,3472.2,3464.9,1172.6,893.2,1811.9,3466.1,1578.6,1495.8,3478.3,3480.7,495.6,720.8,1046.1,1409.4,828.5,3473.4,3472.2,3488.0,712.6,1037.5,2042.4,1280.1,1216.8,961.1,1.0,4.0,-10.0,10646.0,-11999.0,3319.0,-329.0,10.0,5.0,-3.0,-1.0,0.0,-9.0,8612.0,-13902.0,915.0,407.0,2.0,2.0,10.0,1.0
2022-05-13 12:59:39.926384-07:00,1459.8,809.4,1240.8,1105.1,1090.3,932.2,1763.7,1343.1,3472.2,3473.4,1163.8,899.1,1811.9,3466.1,1578.6,1500.4,3479.5,3480.7,495.6,720.8,1053.0,1404.0,826.0,3473.4,3479.5,3488.0,712.6,1037.5,2046.4,1278.3,1216.8,961.1,6.0,-5.0,-2.0,10644.0,-12002.0,3314.0,-322.0,-15.0,-15.0,4.0,-1.0,4.0,-18.0,8611.0,-13903.0,915.0,407.0,6.0,-1.0,0.0,1.0
2022-05-13 12:59:39.971561-07:00,1451.6,809.4,1240.8,1105.1,1096.4,932.2,1756.0,1343.1,3468.6,3473.4,1163.8,899.1,1815.8,3474.6,1580.5,1500.4,3479.5,3469.8,495.6,720.8,1053.0,1404.0,826.0,3462.5,3479.5,3472.2,709.3,1040.9,2046.4,1278.3,1216.8,987.6,7.0,2.0,-3.0,10649.0,-11999.0,3311.0,-325.0,27.0,-8.0,-19.0,2.0,7.0,-12.0,8616.0,-13900.0,915.0,406.0,18.0,3.0,0.0,1.0
2022-05-13 12:59:40.014567-07:00,1451.6,806.9,1227.5,1099.9,1096.4,932.2,1756.0,1334.1,3468.6,3469.8,1167.4,904.2,1815.8,3474.6,1574.9,1493.0,3473.4,3478.3,495.6,720.8,1051.3,1407.6,827.7,3462.5,3474.6,3480.7,709.3,1040.9,2057.4,1276.5,1212.4,987.6,1.0,1.0,-4.0,10665.0,-11984.0,3314.0,-339.0,85.0,22.0,-6.0,0.0,0.0,-9.0,8624.0,-13894.0,917.0,403.0,49.0,15.0,4.0,1.0
2022-05-13 12:59:40.149807-07:00,1448.8,816.0,1227.5,1099.9,1086.0,927.1,1756.0,1334.1,3474.6,3474.6,1167.4,904.2,1813.9,3467.4,1574.9,1493.0,3473.4,3478.3,497.2,716.7,1051.3,1407.6,819.4,3452.8,3474.6,3480.7,705.2,1034.0,2057.4,1276.5,1208.9,960.2,3.0,7.0,-7.0,10675.0,-11974.0,3315.0,-358.0,-4.0,42.0,-23.0,0.0,4.0,-9.0,8629.0,-13892.0,922.0,396.0,-25.0,18.0,-5.0,1.0
2022-05-13 12:59:40.195775-07:00,1448.8,816.0,1229.3,1097.3,1086.0,927.1,1753.1,1328.7,3474.6,3474.6,1167.4,904.2,1813.9,3467.4,1577.7,1491.2,3475.9,3471.0,497.2,716.7,1055.6,1404.0,819.4,3452.8,3468.6,3480.7,705.2,1034.0,2050.4,1271.2,1208.9,960.2,-2.0,-10.0,-10.0,10662.0,-11983.0,3321.0,-371.0,-8.0,4.0,-18.0,0.0,-12.0,-9.0,8618.0,-13898.0,924.0,392.0,-2.0,8.0,-2.0,1.0
2022-05-13 12:59:40.238666-07:00,1445.1,818.5,1229.3,1097.3,1090.3,927.1,1753.1,1328.7,3466.1,3475.9,1167.4,904.2,1810.0,3467.4,1577.7,1491.2,3475.9,3471.0,493.2,716.7,1055.6,1404.0,826.0,3451.6,3468.6,3480.7,709.3,1039.2,2050.4,1271.2,1209.7,967.1,-2.0,-6.0,-8.0,10669.0,-11980.0,3309.0,-371.0,18.0,-19.0,-11.0,-2.0,-3.0,-9.0,8618.0,-13898.0,925.0,392.0,6.0,-3.0,0.0,1.0
2022-05-13 12:59:40.241392-07:00,1445.1,818.5,1231.9,1099.9,1090.3,927.1,1762.7,1328.7,3466.1,3475.9,1169.1,898.3,1810.0,3467.4,1581.4,1482.9,3471.0,3479.5,493.2,716.7,1048.7,1412.2,826.0,3451.6,3467.4,3474.6,709.3,1039.2,2031.4,1272.1,1209.7,967.1,0.0,-2.0,-7.0,10672.0,-11979.0,3304.0,-365.0,2.0,-17.0,1.0,-3.0,0.0,-9.0,8618.0,-13898.0,926.0,393.0,-3.0,0.0,13.0,1.0
2022-05-13 12:59:40.282858-07:00,1448.8,821.0,1231.9,1099.9,1080.8,930.5,1762.7,1328.7,3471.0,3471.0,1167.4,898.3,1802.3,3468.6,1581.4,1482.9,3471.0,3479.5,494.0,724.1,1048.7,1406.7,820.2,3403.2,3467.4,3474.6,709.3,1030.6,2031.4,1269.4,1206.2,956.8,-2.0,-22.0,-4.0,10680.0,-11972.0,3304.0,-365.0,63.0,4.0,21.0,-13.0,1.0,-18.0,8621.0,-13896.0,932.0,397.0,50.0,-13.0,21.0,1.0
2022-05-13 12:59:40.329649-07:00,1448.8,821.0,1231.9,1095.6,1080.8,925.4,1739.7,1335.9,3471.0,3471.0,1167.4,901.7,1802.3,3478.3,1589.9,1490.3,3475.9,3462.5,495.6,724.1,1054.8,1406.7,820.2,3403.2,3471.0,3467.4,714.2,1030.6,2044.4,1269.4,1206.2,956.8,-17.0,-53.0,18.0,10731.0,-11908.0,3367.0,-378.0,299.0,175.0,194.0,-39.0,-30.0,-22.0,8663.0,-13869.0,942.0,412.0,256.0,-32.0,66.0,1.0
2022-05-13 12:59:40.375017-07:00,1450.6,811.0,1272.1,1095.6,1086.8,925.4,1739.7,1335.9,3478.3,3469.8,1161.2,901.7,1812.9,3478.3,1589.9,1490.3,3475.9,3462.5,495.6,719.2,1054.8,1414.9,825.2,3426.2,3471.0,3467.4,714.2,1047.8,2044.4,1361.2,1282.8,963.7,-81.0,-94.0,-28.0,10856.0,-11745.0,3530.0,-441.0,617.0,346.0,328.0,-62.0,-73.0,-5.0,8782.0,-13790.0,968.0,453.0,570.0,-94.0,100.0,1.0
2022-05-13 12:59:40.419587-07:00,1450.6,811.0,1272.1,1120.9,1086.8,970.5,1748.3,1344.9,3478.3,3469.8,1161.2,902.5,1812.9,3471.0,1897.7,1569.3,3475.9,3474.6,501.2,719.2,1070.3,1414.9,825.2,3426.2,3467.4,3479.5,711.0,1047.8,2042.4,1361.2,1282.8,963.7,-106.0,-17.0,-58.0,11062.0,-11513.0,3649.0,-450.0,589.0,-10.0,209.0,-55.0,-53.0,-13.0,9014.0,-13636.0,991.0,504.0,659.0,-169.0,107.0,1.0
2022-05-13 12:59:40.465443-07:00,1452.5,821.0,1296.3,1120.9,1085.1,970.5,1748.3,1344.9,3475.9,3468.6,1218.6,902.5,1817.8,3471.0,1897.7,1569.3,3475.9,3474.6,501.2,716.7,1070.3,1411.3,831.9,3418.9,3467.4,3479.5,711.0,1114.7,2042.4,1630.3,1577.7,957.7,-68.0,39.0,-124.0,11322.0,-11333.0,3418.0,-353.0,624.0,-1160.0,-312.0,-24.0,-17.0,-10.0,9244.0,-13478.0,1005.0,569.0,584.0,-168.0,96.0,1.0
2022-05-13 12:59:40.509228-07:00,1452.5,821.0,1296.3,1131.4,1085.1,1010.8,1754.1,1342.2,3475.9,3468.6,1218.6,915.2,1817.8,3466.1,2156.5,1810.0,3483.2,3469.8,498.8,716.7,1054.8,1411.3,831.9,3418.9,3477.1,3472.2,747.2,1114.7,2069.5,1630.3,1577.7,957.7,177.0,-17.0,-29.0,11490.0,-11296.0,2963.0,-154.0,141.0,-660.0,-342.0,1.0,75.0,-120.0,9424.0,-13350.0,993.0,658.0,333.0,-342.0,45.0,1.0
2022-05-13 12:59:40.644392-07:00,1449.7,820.2,1290.9,1114.7,1082.5,1010.8,1754.1,1342.2,3467.4,3457.6,1263.1,946.6,1829.4,3466.1,2156.5,1810.0,3483.2,3469.8,498.8,718.4,1053.9,1414.0,818.5,3496.6,3477.1,3472.2,747.2,1126.1,2108.8,1620.9,1532.0,959.4,-3.0,46.0,16.0,11628.0,-11179.0,2869.0,-187.0,382.0,-75.0,-44.0,18.0,55.0,10.0,9544.0,-13262.0,916.0,783.0,291.0,-305.0,48.0,1.0
2022-05-13 12:59:40.645728-07:00,1449.7,820.2,1290.9,1114.7,1088.6,1009.9,1780.1,1434.1,3467.4,3457.6,1263.1,946.6,1845.9,3473.4,2138.2,1863.5,3478.3,3481.9,500.4,721.6,1053.9,1414.0,818.5,3496.6,3483.2,3479.5,746.3,1132.2,2108.8,1620.9,1532.0,959.4,72.0,48.0,18.0,11648.0,-11178.0,2793.0,-163.0,-147.0,-240.0,-173.0,36.0,21.0,-21.0,9606.0,-13214.0,879.0,880.0,68.0,-202.0,64.0,1.0
2022-05-13 12:59:40.689880-07:00,1451.6,816.0,1330.5,1127.9,1088.6,1009.9,1780.1,1434.1,3473.4,3474.6,1300.7,947.5,1845.9,3473.4,2138.2,1863.5,3478.3,3481.9,500.4,721.6,1047.0,1408.5,802.7,3491.7,3483.2,3479.5,746.3,1132.2,2125.0,1581.4,1475.5,962.8,5.0,14.0,43.0,11628.0,-11210.0,2741.0,-222.0,81.0,136.0,-160.0,37.0,14.0,21.0,9582.0,-13229.0,839.0,957.0,-125.0,-172.0,36.0,1.0
2022-05-13 12:59:40.734766-07:00,1451.6,816.0,1330.5,1127.9,1076.4,1003.0,1803.2,1522.7,3473.4,3474.6,1300.7,947.5,1838.2,3469.8,2082.6,1838.2,3466.1,3472.2,496.4,722.5,1047.0,1408.5,802.7,3491.7,3475.9,3480.7,738.1,1134.0,2125.0,1581.4,1475.5,962.8,13.0,11.0,-7.0,11656.0,-11196.0,2677.0,-259.0,10.0,-176.0,-150.0,50.0,11.0,11.0,9567.0,-13238.0,823.0,1003.0,8.0,-81.0,23.0,1.0
2022-05-13 12:59:40.779971-07:00,1445.1,804.4,1361.2,1139.2,1076.4,1003.0,1803.2,1522.7,3472.2,3467.4,1339.5,949.2,1838.2,3469.8,2082.6,1838.2,3466.1,3472.2,496.4,722.5,1053.9,1407.6,796.9,3508.8,3475.9,3480.7,738.1,1134.0,2129.0,1559.9,1459.8,959.4,58.0,36.0,-8.0,11644.0,-11232.0,2582.0,-195.0,-196.0,-226.0,-14.0,39.0,13.0,-7.0,9565.0,-13240.0,790.0,1008.0,-50.0,-66.0,-22.0,1.0
2022-05-13 12:59:40.824925-07:00,1449.7,804.4,1361.2,1139.2,1078.2,977.3,1849.8,1576.8,3472.2,3467.4,1339.5,949.2,1838.2,3478.3,2047.4,1826.5,3480.7,3483.2,496.4,727.4,1053.9,1407.6,796.9,3497.8,3479.5,3478.3,755.4,1126.1,2129.0,1559.9,1459.8,966.2,35.0,5.0,12.0,11582.0,-11316.0,2497.0,-138.0,-330.0,-190.0,-92.0,21.0,10.0,1.0,9498.0,-13291.0,741.0,1014.0,-257.0,-77.0,-49.0,1.0
2022-05-13 12:59:40.914819-07:00,1449.7,814.4,1389.4,1142.7,1078.2,977.3,1849.8,1559.9,3472.2,3469.8,1313.3,944.9,1838.2,3478.3,2047.4,1799.4,3475.9,3483.2,496.4,727.4,1047.0,1411.3,784.4,3497.8,3471.0,3478.3,755.4,1126.1,2104.8,1544.1,1438.7,966.2,-14.0,-9.0,23.0,11457.0,-11445.0,2487.0,-103.0,-464.0,73.0,58.0,4.0,-15.0,5.0,9395.0,-13365.0,703.0,1029.0,-330.0,-44.0,-25.0,1.0
2022-05-13 12:59:40.960469-07:00,1440.5,814.4,1389.4,1142.7,1087.7,975.6,1837.2,1559.9,3467.4,3469.8,1313.3,944.9,1834.3,3475.9,2033.4,1799.4,3475.9,3462.5,497.2,723.3,1047.0,1411.3,784.4,3486.8,3471.0,3473.4,751.3,1114.7,2104.8,1544.1,1438.7,963.7,4.0,-9.0,-20.0,11332.0,-11562.0,2517.0,-90.0,-422.0,56.0,15.0,1.0,1.0,-15.0,9292.0,-13437.0,687.0,1039.0,-339.0,-15.0,-2.0,1.0
2022-05-13 12:59:40.963641-07:00,1440.5,817.7,1513.4,1239.9,1087.7,975.6,1837.2,1573.0,3467.4,3478.3,1302.5,942.4,1834.3,3475.9,2033.4,1782.9,3475.9,3462.5,497.2,723.3,1048.7,1407.6,784.4,3486.8,3475.9,3473.4,751.3,1114.7,2100.7,1530.1,1435.0,963.7,-10.0,-43.0,-14.0,11174.0,-11705.0,2560.0,-61.0,-555.0,112.0,86.0,-2.0,-33.0,-15.0,9151.0,-13533.0,669.0,1057.0,-402.0,-27.0,7.0,1.0
2022-05-13 12:59:41.005373-07:00,1434.1,817.7,1513.4,1239.9,1095.6,979.0,1841.1,1573.0,3468.6,3478.3,1302.5,942.4,1827.5,3473.4,1998.5,1782.9,3475.9,3479.5,498.8,721.6,1048.7,1407.6,784.4,3489.2,3475.9,3481.9,752.1,1113.0,2100.7,1530.1,1435.0,964.5,3.0,-54.0,26.0,11005.0,-11848.0,2636.0,-30.0,-586.0,233.0,210.0,-22.0,-16.0,-32.0,9057.0,-13594.0,658.0,1081.0,-172.0,-48.0,30.0,1.0
2022-05-13 12:59:41.050487-07:00,1434.1,815.2,1605.8,1345.8,1095.6,979.0,1841.1,1574.9,3468.6,3477.1,1301.6,939.0,1827.5,3473.4,1998.5,1796.5,3473.4,3479.5,498.8,721.6,1053.9,1410.3,781.1,3489.2,3471.0,3481.9,752.1,1113.0,2096.7,1530.1,1424.1,964.5,-32.0,-88.0,21.0,10842.0,-11956.0,2817.0,-29.0,-272.0,404.0,302.0,-19.0,-53.0,8.0,9003.0,-13625.0,677.0,1127.0,-14.0,-54.0,137.0,1.0
2022-05-13 12:59:41.184278-07:00,1443.3,819.4,1605.8,1345.8,1106.9,984.2,1850.8,1574.9,3477.1,3468.6,1301.6,939.0,1829.4,3473.4,1997.5,1796.5,3473.4,3474.6,502.8,719.2,1053.9,1410.3,779.4,3480.7,3471.0,3483.2,758.7,1139.2,2096.7,1530.1,1434.1,977.3,-12.0,-38.0,0.0,10737.0,-11988.0,3072.0,-32.0,-228.0,430.0,437.0,-16.0,-54.0,-4.0,9032.0,-13597.0,752.0,1191.0,82.0,-29.0,277.0,1.0
2022-05-13 12:59:41.186501-07:00,1443.3,819.4,1607.7,1382.1,1106.9,984.2,1863.5,1573.9,3477.1,3468.6,1299.8,950.0,1829.4,3473.4,1994.5,1773.3,3474.6,3477.1,502.8,719.2,1045.2,1413.1,779.4,3480.7,3474.6,3472.2,758.7,1139.2,2103.7,1553.4,1434.1,977.3,-26.0,-24.0,-40.0,10554.0,-12072.0,3365.0,-4.0,-568.0,534.0,529.0,0.0,-75.0,-8.0,9035.0,-13580.0,869.0,1284.0,29.0,-25.0,388.0,1.0
2022-05-13 12:59:41.227934-07:00,1436.0,811.0,1607.7,1382.1,1177.9,1035.7,1863.5,1573.9,3467.4,3472.2,1299.8,950.0,1833.3,3467.4,1994.5,1773.3,3474.6,3477.1,503.6,715.9,1045.2,1413.1,786.9,3455.2,3474.6,3472.2,768.7,1159.4,2103.7,1553.4,1436.9,1032.3,3.0,-11.0,-18.0,10304.0,-12206.0,3645.0,56.0,-610.0,352.0,481.0,-15.0,-33.0,-32.0,9038.0,-13557.0,998.0,1404.0,45.0,-79.0,409.0,1.0
2022-05-13 12:59:41.274852-07:00,1436.0,811.0,1622.8,1450.6,1177.9,1035.7,1860.6,1573.9,3467.4,3472.2,1337.7,942.4,1833.3,3467.4,1972.7,1763.7,3469.8,3472.2,503.6,715.9,1052.2,1411.3,786.9,3455.2,3467.4,3472.2,768.7,1159.4,2099.7,1520.8,1436.9,1032.3,24.0,60.0,-25.0,10107.0,-12301.0,3867.0,89.0,-525.0,377.0,299.0,0.0,29.0,-11.0,9042.0,-13531.0,1112.0,1534.0,-60.0,-118.0,363.0,1.0
2022-05-13 12:59:41.319892-07:00,1439.6,818.5,1622.8,1450.6,1233.7,1134.0,1860.6,1573.9,3472.2,3467.4,1337.7,942.4,1865.4,3467.4,1972.7,1763.7,3469.8,3472.2,509.1,720.0,1052.2,1411.3,785.2,3404.4,3467.4,3472.2,776.9,1157.7,2099.7,1520.8,1427.7,1051.3,-2.0,-18.0,-8.0,9841.0,-12466.0,4023.0,99.0,-635.0,300.0,163.0,15.0,-6.0,0.0,8928.0,-13583.0,1207.0,1670.0,-267.0,-104.0,365.0,1.0
2022-05-13 12:59:41.365027-07:00,1439.6,818.5,1622.8,1467.2,1233.7,1168.2,1859.6,1539.4,3472.2,3467.4,1363.9,942.4,1865.4,3473.4,1966.7,1749.3,3474.6,3477.1,509.1,720.0,1061.7,1408.5,785.2,3404.4,3472.2,3481.9,783.6,1157.7,2098.7,1505.1,1427.7,1051.3,19.0,60.0,-3.0,9651.0,-12576.0,4137.0,134.0,-477.0,169.0,152.0,21.0,30.0,-2.0,8864.0,-13601.0,1297.0,1791.0,-166.0,-101.0,325.0,1.0
