Time,P0,P1,P2,P3,P4,P5,P6,P7,P8,P9,P10,P11,P12,P13,P14,P15,P16,P17,P18,P19,P20,P21,P22,P23,P24,P25,P26,P27,P28,P29,P30,P31,ECG,AX0,AY0,AZ0,QW0,QX0,QY0,QZ0,GX0,GY0,GZ0,AX1,AY1,AZ1,QW1,QX1,QY1,QZ1,GX1,GY1,GZ1
2022-05-13 12:23:58.573518-07:00,2197.3,644.0,1433.2,1541.3,1250.6,1453.4,1423.1,1642.6,3450.4,3441.9,1901.6,1576.8,1823.6,3440.7,1188.5,1637.9,3449.1,3440.7,798.5,1301.6,981.6,582.6,1708.1,2194.2,3444.3,3438.2,916.0,1163.0,1434.1,1649.2,1335.0,1291.8,0.0,1.0,5.0,-4747.0,-5415.0,10796.0,10002.0,-81.0,63.0,-42.0,-7.0,0.0,-4.0,-5206.0,-4187.0,9092.0,11880.0,-87.0,-28.0,-16.0,1.0
2022-05-13 12:23:58.618538-07:00,2197.3,644.0,1433.2,1544.1,1250.6,1442.4,1437.8,1668.2,3450.4,3441.9,1901.6,1584.2,1823.6,3438.2,1200.0,1642.6,3440.7,3435.8,802.7,1301.6,983.3,582.6,1708.1,2194.2,3445.5,3439.5,911.0,1163.0,1429.5,1649.2,1335.0,1291.8,1.0,-1.0,28.0,-4752.0,-5433.0,10782.0,10005.0,35.0,40.0,-17.0,0.0,6.0,-2.0,-5199.0,-4181.0,9086.0,11890.0,25.0,-13.0,-15.0,1.0
2022-05-13 12:23:58.663493-07:00,2193.2,644.0,1463.5,1544.1,1249.7,1442.4,1437.8,1668.2,3441.9,3439.5,1919.3,1584.2,1823.6,3438.2,1200.0,1642.6,3440.7,3435.8,802.7,1303.4,983.3,589.9,1704.3,2190.1,3445.5,3439.5,911.0,1163.0,1429.5,1657.7,1336.8,1288.2,0.0,12.0,25.0,-4750.0,-5435.0,10783.0,10002.0,21.0,-17.0,-11.0,-5.0,5.0,-2.0,-5199.0,-4185.0,9089.0,11886.0,11.0,12.0,2.0,1.0
2022-05-13 12:23:58.708466-07:00,2193.2,644.0,1463.5,1549.7,1251.5,1456.2,1430.5,1664.4,3441.9,3439.5,1919.3,1585.2,1828.4,3441.9,1198.2,1640.7,3433.4,3432.2,805.2,1309.7,985.9,589.9,1704.3,2190.1,3437.0,3445.5,919.4,1161.2,1434.1,1657.7,1336.8,1288.2,-5.0,-8.0,14.0,-4744.0,-5446.0,10774.0,10010.0,4.0,16.0,-38.0,-10.0,3.0,-3.0,-5204.0,-4196.0,9090.0,11880.0,26.0,34.0,-9.0,1.0
2022-05-13 12:23:58.753319-07:00,2176.9,637.6,1454.3,1538.5,1251.5,1456.2,1430.5,1664.4,3443.1,3444.3,1910.5,1574.9,1828.4,3441.9,1198.2,1640.7,3433.4,3432.2,805.2,1309.7,983.3,582.6,1699.5,2185.0,3437.0,3445.5,919.4,1161.2,1434.1,1657.7,1339.5,1281.0,-2.0,-9.0,3.0,-4751.0,-5444.0,10774.0,10008.0,4.0,4.0,51.0,-6.0,4.0,-18.0,-5206.0,-4204.0,9094.0,11873.0,7.0,3.0,15.0,1.0
2022-05-13 12:23:58.799782-07:00,2176.9,637.6,1454.3,1538.5,1252.4,1444.2,1425.0,1653.0,3443.1,3444.3,1910.5,1574.9,1823.6,3449.1,1196.5,1640.7,3435.8,3441.9,798.5,1304.3,983.3,582.6,1699.5,2185.0,3435.8,3451.6,916.0,1162.1,1434.1,1657.7,1339.5,1281.0,10.0,12.0,2.0,-4757.0,-5426.0,10779.0,10009.0,-22.0,-32.0,18.0,-1.0,11.0,-18.0,-5207.0,-4200.0,9093.0,11874.0,-26.0,-17.0,4.0,1.0
2022-05-13 12:23:58.888506-07:00,2182.0,640.0,1435.0,1552.5,1252.4,1444.2,1425.0,1653.0,3441.9,3435.8,1916.4,1574.9,1823.6,3449.1,1196.5,1640.7,3435.8,3441.9,798.5,1304.3,978.2,585.1,1694.8,2184.0,3435.8,3451.6,916.0,1162.1,1429.5,1657.7,1335.9,1296.3,7.0,-2.0,16.0,-4752.0,-5416.0,10780.0,10016.0,6.0,-37.0,-4.0,3.0,0.0,-5.0,-5202.0,-4193.0,9096.0,11877.0,-2.0,-25.0,-4.0,1.0
2022-05-13 12:23:58.934581-07:00,2182.0,640.0,1435.0,1552.5,1248.0,1444.2,1419.5,1649.2,3441.9,3435.8,1916.4,1574.9,1825.5,3446.7,1192.9,1650.2,3439.5,3437.0,800.2,1307.0,978.2,585.1,1694.8,2184.0,3440.7,3438.2,914.4,1161.2,1429.5,1657.7,1335.9,1296.3,0.0,8.0,23.0,-4742.0,-5407.0,10781.0,10024.0,-1.0,-24.0,-20.0,-4.0,10.0,-6.0,-5197.0,-4189.0,9098.0,11879.0,-7.0,-13.0,-11.0,1.0
2022-05-13 12:23:59.024566-07:00,2173.8,637.6,1452.5,1545.9,1248.0,1444.2,1419.5,1641.6,3438.2,3440.7,1911.5,1570.2,1825.5,3446.7,1192.9,1641.6,3431.0,3437.0,800.2,1307.0,980.7,585.1,1682.4,2183.0,3449.1,3438.2,914.4,1161.2,1422.2,1646.4,1336.8,1286.4,-2.0,-4.0,25.0,-4742.0,-5406.0,10778.0,10028.0,33.0,-6.0,11.0,-4.0,-1.0,2.0,-5195.0,-4189.0,9100.0,11878.0,22.0,-4.0,1.0,1.0
2022-05-13 12:23:59.026898-07:00,2179.9,637.6,1452.5,1545.9,1248.8,1444.2,1409.4,1641.6,3441.9,3440.7,1911.5,1570.2,1826.5,3446.7,1185.0,1641.6,3431.0,3439.5,801.9,1304.3,980.7,585.1,1682.4,2178.9,3449.1,3449.1,913.5,1151.5,1422.2,1646.4,1336.8,1282.8,-1.0,-1.0,14.0,-4742.0,-5402.0,10785.0,10022.0,22.0,-13.0,16.0,-7.0,1.0,-6.0,-5193.0,-4193.0,9107.0,11873.0,12.0,10.0,5.0,1.0
2022-05-13 12:23:59.204292-07:00,2179.9,644.0,1443.3,1545.0,1248.8,1444.2,1409.4,1642.6,3441.9,3439.5,1920.3,1592.7,1826.5,3446.7,1185.0,1637.9,3435.8,3439.5,801.9,1304.3,973.9,584.3,1685.3,2178.9,3440.7,3449.1,913.5,1151.5,1427.7,1661.5,1331.4,1282.8,1.0,-2.0,7.0,-4733.0,-5406.0,10799.0,10010.0,71.0,-4.0,5.0,-3.0,1.0,-11.0,-5190.0,-4199.0,9118.0,11863.0,54.0,9.0,0.0,1.0
2022-05-13 12:23:59.249122-07:00,2175.8,644.0,1443.3,1545.0,1246.2,1442.4,1418.6,1642.6,3433.4,3439.5,1920.3,1592.7,1810.0,3440.7,1186.7,1637.9,3435.8,3439.5,798.5,1305.2,973.9,584.3,1685.3,2185.0,3440.7,3437.0,912.7,1161.2,1427.7,1661.5,1331.4,1282.8,0.0,-1.0,5.0,-4731.0,-5406.0,10810.0,9999.0,-4.0,1.0,18.0,-5.0,-4.0,-11.0,-5186.0,-4204.0,9128.0,11855.0,-4.0,-2.0,8.0,1.0
2022-05-13 12:23:59.295630-07:00,2175.8,636.7,1448.8,1539.4,1246.2,1442.4,1418.6,1644.5,3433.4,3443.1,1905.6,1579.6,1810.0,3440.7,1186.7,1637.9,3435.8,3439.5,798.5,1305.2,979.9,589.1,1683.3,2185.0,3449.1,3437.0,912.7,1161.2,1421.3,1653.0,1329.6,1282.8,3.0,3.0,11.0,-4719.0,-5398.0,10817.0,10001.0,36.0,-57.0,-14.0,-3.0,6.0,-11.0,-5187.0,-4203.0,9128.0,11856.0,19.0,-11.0,-2.0,1.0
2022-05-13 12:23:59.297029-07:00,2176.9,627.0,1448.8,1539.4,1247.1,1442.4,1404.0,1644.5,3438.2,3441.9,1905.6,1579.6,1814.9,3449.1,1182.3,1637.9,3435.8,3439.5,795.2,1304.3,979.9,589.1,1683.3,2183.0,3449.1,3438.2,913.5,1164.7,1421.3,1653.0,1332.3,1281.0,-3.0,-5.0,15.0,-4706.0,-5394.0,10823.0,10003.0,5.0,-10.0,-8.0,-6.0,2.0,-5.0,-5182.0,-4201.0,9133.0,11854.0,-5.0,-15.0,-7.0,1.0
2022-05-13 12:23:59.298550-07:00,2176.9,627.0,1436.9,1545.0,1247.1,1442.4,1405.8,1634.1,3438.2,3441.9,1908.5,1584.2,1814.9,3449.1,1181.5,1639.8,3438.2,3445.5,795.2,1304.3,981.6,587.5,1683.3,2183.0,3447.9,3446.7,913.5,1164.7,1429.5,1659.6,1332.3,1281.0,0.0,-2.0,17.0,-4702.0,-5389.0,10823.0,10008.0,7.0,-12.0,-6.0,-7.0,4.0,-5.0,-5182.0,-4201.0,9132.0,11855.0,-3.0,-9.0,-3.0,1.0
2022-05-13 12:23:59.299583-07:00,2158.5,638.4,1436.9,1545.0,1252.4,1441.5,1405.8,1634.1,3449.1,3439.5,1908.5,1584.2,1817.8,3445.5,1181.5,1639.8,3438.2,3445.5,797.7,1303.4,981.6,587.5,1683.3,2176.9,3447.9,3446.7,914.4,1148.0,1429.5,1659.6,1335.0,1284.6,-3.0,-5.0,17.0,-4708.0,-5384.0,10820.0,10010.0,-13.0,12.0,26.0,-5.0,-1.0,-1.0,-5182.0,-4200.0,9131.0,11856.0,-14.0,-3.0,7.0,1.0
2022-05-13 12:23:59.519135-07:00,2158.5,638.4,1431.4,1537.6,1252.4,1441.5,1404.9,1623.7,3449.1,3439.5,1906.6,1573.9,1817.8,3445.5,1176.2,1635.0,3434.6,3433.4,797.7,1303.4,975.6,584.3,1683.3,2176.9,3444.3,3435.8,914.4,1148.0,1425.9,1653.0,1335.0,1284.6,-1.0,6.0,14.0,-4715.0,-5377.0,10818.0,10013.0,20.0,3.0,1.0,-5.0,5.0,-3.0,-5184.0,-4198.0,9129.0,11857.0,17.0,2.0,-1.0,1.0
2022-05-13 12:23:59.567449-07:00,2161.6,648.1,1431.4,1537.6,1234.6,1448.8,1404.9,1623.7,3439.5,3447.9,1906.6,1573.9,1826.5,3438.2,1176.2,1635.0,3434.6,3433.4,797.7,1302.5,975.6,584.3,1686.2,2190.1,3444.3,3435.8,922.8,1153.3,1425.9,1653.0,1327.8,1274.7,0.0,-2.0,14.0,-4710.0,-5385.0,10822.0,10007.0,18.0,16.0,-15.0,-7.0,3.0,-4.0,-5181.0,-4203.0,9138.0,11850.0,20.0,9.0,-3.0,1.0
2022-05-13 12:23:59.568571-07:00,2161.6,648.1,1432.3,1538.5,1234.6,1448.8,1411.3,1630.3,3439.5,3447.9,1903.6,1576.8,1826.5,3438.2,1178.8,1635.0,3438.2,3435.8,797.7,1302.5,977.3,585.1,1686.2,2190.1,3438.2,3441.9,922.8,1153.3,1427.7,1653.0,1327.8,1274.7,0.0,-9.0,3.0,-4711.0,-5381.0,10825.0,10006.0,19.0,-11.0,21.0,-8.0,9.0,-14.0,-5183.0,-4203.0,9140.0,11848.0,12.0,-2.0,14.0,1.0
2022-05-13 12:23:59.569587-07:00,2171.8,641.6,1431.4,1538.5,1239.1,1441.5,1411.3,1630.3,3446.7,3440.7,1903.6,1576.8,1822.6,3444.3,1178.8,1635.0,3438.2,3435.8,798.5,1297.2,977.3,584.3,1684.3,2189.1,3438.2,3441.9,911.0,1152.4,1427.7,1648.3,1335.0,1279.2,1.0,-1.0,8.0,-4709.0,-5374.0,10830.0,10004.0,-6.0,-24.0,4.0,-4.0,0.0,-5.0,-5181.0,-4201.0,9141.0,11848.0,-12.0,-13.0,0.0,1.0
2022-05-13 12:23:59.656147-07:00,2171.8,641.6,1431.4,1534.8,1239.1,1436.9,1404.9,1642.6,3446.7,3440.7,1903.6,1584.2,1822.6,3443.1,1182.3,1637.9,3438.2,3440.7,801.9,1297.2,976.5,584.3,1684.3,2189.1,3444.3,3449.1,913.5,1152.4,1428.6,1648.3,1335.0,1279.2,0.0,-2.0,9.0,-4700.0,-5366.0,10835.0,10008.0,17.0,-34.0,9.0,-5.0,1.0,-6.0,-5179.0,-4197.0,9141.0,11851.0,5.0,-15.0,3.0,1.0
2022-05-13 12:23:59.657665-07:00,2168.7,635.1,1432.3,1534.8,1239.9,1436.9,1404.9,1642.6,3446.7,3445.5,1905.6,1584.2,1815.8,3443.1,1182.3,1637.9,3438.2,3440.7,801.9,1304.3,976.5,585.9,1673.8,2180.9,3444.3,3449.1,913.5,1153.3,1428.6,1657.7,1333.2,1285.5,0.0,0.0,15.0,-4687.0,-5356.0,10841.0,10012.0,1.0,-32.0,4.0,-4.0,6.0,-7.0,-5178.0,-4196.0,9141.0,11851.0,-9.0,-10.0,0.0,1.0
2022-05-13 12:23:59.658739-07:00,2168.7,635.1,1432.3,1559.9,1239.9,1433.2,1400.3,1633.1,3446.7,3445.5,1905.6,1581.4,1815.8,3444.3,1178.8,1639.8,3441.9,3435.8,798.5,1304.3,979.0,585.9,1673.8,2180.9,3439.5,3444.3,909.3,1153.3,1427.7,1657.7,1333.2,1285.5,-1.0,-4.0,15.0,-4692.0,-5347.0,10835.0,10021.0,-34.0,0.0,14.0,-7.0,0.0,-5.0,-5178.0,-4192.0,9138.0,11856.0,-19.0,-8.0,4.0,1.0
2022-05-13 12:23:59.744100-07:00,2158.5,631.1,1451.6,1559.9,1246.2,1433.2,1400.3,1633.1,3445.5,3440.7,1902.6,1581.4,1818.7,3444.3,1178.8,1639.8,3441.9,3435.8,798.5,1298.1,979.0,585.1,1679.5,2182.0,3439.5,3444.3,909.3,1154.2,1427.7,1645.4,1334.1,1280.1,0.0,0.0,13.0,-4699.0,-5341.0,10834.0,10023.0,7.0,1.0,13.0,-2.0,7.0,-6.0,-5179.0,-4190.0,9134.0,11858.0,-1.0,-2.0,7.0,1.0
2022-05-13 12:23:59.792714-07:00,2158.5,631.1,1451.6,1544.1,1227.5,1447.0,1397.6,1627.5,3445.5,3440.7,1902.6,1571.1,1812.9,3438.2,1182.3,1643.5,3440.7,3440.7,791.0,1295.4,973.1,585.1,1679.5,2182.0,3441.9,3451.6,905.0,1153.3,1423.1,1645.4,1334.1,1280.1,-2.0,-3.0,11.0,-4698.0,-5341.0,10835.0,10022.0,3.0,2.0,-2.0,-6.0,2.0,-9.0,-5179.0,-4190.0,9134.0,11858.0,7.0,3.0,2.0,1.0
2022-05-13 12:23:59.794448-07:00,2158.5,634.3,1436.0,1537.6,1227.5,1447.0,1397.6,1627.5,3437.0,3440.7,1904.6,1578.6,1812.9,3438.2,1182.3,1643.5,3440.7,3440.7,791.0,1295.4,977.3,585.1,1682.4,2176.9,3441.9,3451.6,905.0,1153.3,1418.6,1645.4,1328.7,1281.9,-2.0,0.0,9.0,-4698.0,-5341.0,10837.0,10019.0,12.0,-9.0,9.0,-6.0,9.0,-10.0,-5179.0,-4190.0,9134.0,11858.0,3.0,-2.0,0.0,1.0
2022-05-13 12:24:00.059316-07:00,2158.5,634.3,1436.0,1537.6,1233.7,1440.5,1394.8,1619.0,3437.0,3440.7,1904.6,1578.6,1817.8,3443.1,1174.4,1637.9,3433.4,3435.8,799.4,1299.8,977.3,585.1,1682.4,2176.9,3438.2,3443.1,917.7,1151.5,1418.6,1645.4,1328.7,1281.9,0.0,4.0,7.0,-4693.0,-5339.0,10839.0,10021.0,12.0,-12.0,-10.0,-5.0,10.0,-9.0,-5179.0,-4190.0,9134.0,11858.0,4.0,-6.0,-4.0,1.0
2022-05-13 12:24:00.105344-07:00,2151.4,627.0,1424.1,1535.7,1233.7,1440.5,1394.8,1619.0,3444.3,3446.7,1898.7,1575.8,1817.8,3443.1,1174.4,1637.9,3433.4,3435.8,799.4,1299.8,978.2,583.5,1673.8,2193.2,3438.2,3443.1,917.7,1151.5,1428.6,1645.4,1331.4,1281.9,2.0,-6.0,13.0,-4688.0,-5340.0,10840.0,10023.0,-1.0,-5.0,-1.0,-4.0,-1.0,-7.0,-5179.0,-4190.0,9134.0,11858.0,-6.0,-5.0,1.0,1.0
2022-05-13 12:24:00.108322-07:00,2151.4,627.0,1424.1,1535.7,1241.7,1444.2,1398.5,1622.8,3444.3,3446.7,1898.7,1575.8,1811.9,3438.2,1179.7,1642.6,3435.8,3444.3,796.9,1295.4,978.2,583.5,1673.8,2193.2,3445.5,3445.5,909.3,1151.5,1428.6,1645.4,1331.4,1281.9,-3.0,0.0,6.0,-4691.0,-5334.0,10842.0,10021.0,-1.0,-13.0,21.0,-9.0,0.0,-6.0,-5180.0,-4189.0,9131.0,11861.0,-7.0,-8.0,8.0,1.0
2022-05-13 12:24:00.109419-07:00,2160.5,627.0,1427.7,1545.0,1241.7,1444.2,1398.5,1622.8,3438.2,3437.0,1901.6,1573.0,1811.9,3438.2,1179.7,1642.6,3435.8,3444.3,796.9,1295.4,980.7,582.6,1672.9,2185.0,3445.5,3445.5,909.3,1151.5,1424.1,1648.3,1333.2,1279.2,2.0,2.0,10.0,-4689.0,-5332.0,10843.0,10022.0,2.0,-6.0,-13.0,-4.0,3.0,-12.0,-5180.0,-4189.0,9131.0,11861.0,1.0,-3.0,-4.0,1.0
2022-05-13 12:24:00.110466-07:00,2160.5,627.0,1427.7,1545.0,1232.8,1446.0,1398.5,1620.9,3438.2,3437.0,1901.6,1573.0,1812.9,3440.7,1177.9,1638.8,3449.1,3438.2,797.7,1304.3,980.7,582.6,1672.9,2171.8,3447.9,3450.4,915.2,1149.8,1424.1,1648.3,1333.2,1281.9,-2.0,-8.0,13.0,-4688.0,-5333.0,10843.0,10023.0,8.0,0.0,9.0,-7.0,0.0,-6.0,-5180.0,-4188.0,9131.0,11861.0,-2.0,-5.0,-3.0,1.0
2022-05-13 12:24:00.331355-07:00,2160.5,631.9,1424.1,1534.8,1232.8,1446.0,1398.5,1622.8,3438.2,3438.2,1898.7,1570.2,1812.9,3440.7,1177.9,1636.9,3440.7,3438.2,797.7,1304.3,971.3,582.6,1681.4,2171.8,3444.3,3450.4,915.2,1149.8,1425.9,1648.3,1334.1,1281.9,3.0,4.0,11.0,-4685.0,-5329.0,10847.0,10021.0,2.0,-11.0,5.0,-4.0,5.0,-17.0,-5180.0,-4188.0,9131.0,11861.0,-4.0,-5.0,5.0,1.0
2022-05-13 12:24:00.451925-07:00,2156.5,631.9,1424.1,1534.8,1231.9,1442.4,1392.1,1622.8,3441.9,3438.2,1898.7,1570.2,1811.0,3439.5,1171.8,1636.9,3440.7,3439.5,794.4,1299.8,971.3,582.6,1681.4,2174.8,3444.3,3438.2,909.3,1157.7,1425.9,1648.3,1334.1,1273.0,0.0,-3.0,8.0,-4682.0,-5328.0,10850.0,10020.0,10.0,-20.0,3.0,-2.0,3.0,-11.0,-5180.0,-4188.0,9131.0,11861.0,8.0,-2.0,-2.0,1.0
2022-05-13 12:24:00.453511-07:00,2156.5,633.5,1425.0,1535.7,1231.9,1442.4,1392.1,1619.0,3441.9,3433.4,1892.8,1573.0,1811.0,3439.5,1171.8,1636.9,3439.5,3439.5,794.4,1299.8,972.2,585.9,1671.9,2174.8,3439.5,3438.2,909.3,1157.7,1428.6,1641.6,1323.2,1273.0,-2.0,1.0,10.0,-4683.0,-5322.0,10850.0,10023.0,-11.0,-2.0,7.0,-7.0,-2.0,-9.0,-5181.0,-4186.0,9128.0,11864.0,-16.0,-7.0,6.0,1.0
2022-05-13 12:24:00.454555-07:00,2159.5,633.5,1425.0,1535.7,1238.2,1436.0,1393.9,1619.0,3447.9,3433.4,1892.8,1573.0,1818.7,3437.0,1177.0,1636.9,3439.5,3441.9,799.4,1301.6,972.2,585.9,1671.9,2175.8,3439.5,3444.3,905.9,1152.4,1428.6,1641.6,1323.2,1282.8,1.0,-2.0,12.0,-4671.0,-5324.0,10855.0,10022.0,22.0,-17.0,-26.0,-2.0,2.0,-13.0,-5179.0,-4189.0,9130.0,11862.0,12.0,2.0,-11.0,1.0
2022-05-13 12:24:00.455569-07:00,2159.5,627.8,1420.4,1542.2,1238.2,1436.0,1393.9,1609.6,3447.9,3445.5,1900.7,1573.9,1818.7,3437.0,1175.3,1635.0,3432.2,3433.4,799.4,1301.6,974.8,589.9,1671.9,2175.8,3438.2,3449.1,905.9,1152.4,1426.8,1650.2,1322.3,1282.8,0.0,-10.0,17.0,-4671.0,-5324.0,10853.0,10024.0,-26.0,13.0,23.0,-11.0,3.0,-9.0,-5181.0,-4187.0,9127.0,11864.0,-11.0,-4.0,12.0,1.0
2022-05-13 12:24:00.456212-07:00,2159.5,627.8,1420.4,1542.2,1238.2,1436.0,1393.9,1609.6,3447.9,3445.5,1900.7,1573.9,1818.7,3437.0,1175.3,1635.0,3432.2,3433.4,799.4,1301.6,974.8,589.9,1671.9,2175.8,3438.2,3449.1,905.9,1152.4,1426.8,1650.2,1322.3,1282.8,0.0,-10.0,17.0,-4671.0,-5324.0,10853.0,10024.0,-26.0,13.0,23.0,-11.0,3.0,-9.0,-5181.0,-4187.0,9127.0,11864.0,-11.0,-4.0,12.0,1.0
2022-05-13 12:24:00.459378-07:00,2159.5,627.8,1420.4,1542.2,1238.2,1436.0,1393.9,1609.6,3447.9,3445.5,1900.7,1573.9,1818.7,3437.0,1175.3,1635.0,3432.2,3433.4,799.4,1301.6,974.8,589.9,1671.9,2175.8,3438.2,3449.1,905.9,1152.4,1426.8,1650.2,1322.3,1282.8,0.0,-10.0,17.0,-4671.0,-5324.0,10853.0,10024.0,-26.0,13.0,23.0,-11.0,3.0,-9.0,-5181.0,-4187.0,9127.0,11864.0,-11.0,-4.0,12.0,1.0
2022-05-13 12:24:00.474473-07:00,2160.5,630.3,1429.5,1530.1,1234.6,1436.9,1401.2,1618.1,3439.5,3449.1,1907.5,1566.5,1802.3,3438.2,1176.2,1632.2,3433.4,3441.9,796.9,1301.6,971.3,585.9,1675.7,2170.7,3440.7,3451.6,905.0,1151.5,1419.5,1648.3,1335.9,1274.7,0.0,6.0,9.0,-4683.0,-5317.0,10856.0,10019.0,5.0,-5.0,18.0,-6.0,12.0,-15.0,-5182.0,-4184.0,9127.0,11865.0,3.0,-9.0,5.0,1.0
2022-05-13 12:24:00.577732-07:00,2160.5,630.3,1421.3,1536.6,1234.6,1436.9,1402.1,1616.2,3439.5,3449.1,1898.7,1582.4,1802.3,3438.2,1172.6,1626.5,3439.5,3441.9,796.9,1301.6,980.7,583.5,1675.7,2170.7,3443.1,3428.6,905.0,1151.5,1426.8,1645.4,1335.9,1274.7,0.0,-4.0,8.0,-4681.0,-5313.0,10856.0,10022.0,2.0,-19.0,-8.0,-2.0,11.0,-12.0,-5182.0,-4184.0,9126.0,11865.0,1.0,-3.0,-5.0,1.0
2022-05-13 12:24:00.646131-07:00,2157.5,632.7,1420.4,1536.6,1234.6,1436.9,1402.1,1616.2,3440.7,3435.8,1892.8,1582.4,1811.9,3445.5,1172.6,1626.5,3439.5,3441.9,791.9,1298.1,980.7,585.9,1667.2,2169.7,3443.1,3428.6,908.4,1153.3,1426.8,1650.2,1325.9,1288.2,-2.0,-4.0,10.0,-4678.0,-5310.0,10858.0,10023.0,-16.0,-10.0,17.0,-9.0,4.0,-12.0,-5183.0,-4183.0,9125.0,11866.0,-15.0,-7.0,2.0,1.0
2022-05-13 12:24:00.691052-07:00,2157.5,632.7,1420.4,1534.8,1234.6,1436.0,1387.5,1614.3,3440.7,3435.8,1892.8,1570.2,1811.9,3433.4,1174.4,1635.0,3445.5,3443.1,797.7,1298.1,970.5,585.9,1667.2,2169.7,3454.0,3438.2,901.7,1153.3,1425.0,1650.2,1325.9,1288.2,0.0,-3.0,9.0,-4683.0,-5299.0,10859.0,10026.0,4.0,-6.0,22.0,-8.0,-1.0,-9.0,-5184.0,-4181.0,9121.0,11870.0,-7.0,-9.0,4.0,1.0
2022-05-13 12:24:00.692746-07:00,2160.5,631.1,1424.1,1534.8,1248.0,1436.0,1387.5,1614.3,3444.3,3449.1,1901.6,1570.2,1817.8,3433.4,1174.4,1635.0,3445.5,3443.1,797.7,1303.4,970.5,580.2,1664.4,2169.7,3454.0,3438.2,901.7,1150.6,1425.0,1641.6,1322.3,1270.3,3.0,3.0,10.0,-4680.0,-5291.0,10864.0,10025.0,3.0,-20.0,-1.0,-4.0,5.0,-11.0,-5184.0,-4181.0,9121.0,11870.0,3.0,-6.0,0.0,1.0
2022-05-13 12:24:00.826925-07:00,2160.5,631.1,1424.1,1535.7,1248.0,1436.0,1383.0,1619.9,3444.3,3449.1,1901.6,1575.8,1817.8,3446.7,1177.0,1636.9,3444.3,3438.2,792.7,1303.4,973.1,580.2,1664.4,2169.7,3438.2,3447.9,907.6,1150.6,1428.6,1641.6,1322.3,1270.3,-1.0,-3.0,15.0,-4676.0,-5292.0,10865.0,10026.0,18.0,-7.0,-3.0,-7.0,1.0,-10.0,-5184.0,-4181.0,9121.0,11870.0,5.0,-1.0,-5.0,1.0
2022-05-13 12:24:00.828013-07:00,2146.3,633.5,1418.6,1535.7,1231.9,1436.0,1383.0,1619.9,3447.9,3446.7,1884.0,1575.8,1810.0,3446.7,1177.0,1636.9,3444.3,3438.2,792.7,1303.4,973.1,589.1,1667.2,2176.9,3438.2,3447.9,907.6,1148.9,1428.6,1649.2,1322.3,1273.9,-3.0,3.0,14.0,-4674.0,-5295.0,10870.0,10020.0,16.0,6.0,1.0,-5.0,8.0,-9.0,-5182.0,-4183.0,9126.0,11866.0,16.0,0.0,-4.0,1.0
2022-05-13 12:24:00.829036-07:00,2146.3,633.5,1418.6,1525.5,1231.9,1436.9,1389.4,1610.5,3447.9,3446.7,1884.0,1574.9,1810.0,3444.3,1173.5,1635.0,3452.8,3428.6,796.0,1303.4,965.4,589.1,1667.2,2176.9,3438.2,3432.2,900.0,1148.9,1434.1,1649.2,1322.3,1273.9,-2.0,1.0,9.0,-4672.0,-5296.0,10872.0,10018.0,21.0,2.0,-11.0,-3.0,6.0,-8.0,-5182.0,-4183.0,9127.0,11865.0,13.0,5.0,-2.0,1.0
2022-05-13 12:24:00.869854-07:00,2151.4,627.0,1414.9,1526.4,1231.9,1436.9,1389.4,1610.5,3443.1,3441.9,1890.9,1572.1,1810.0,3444.3,1173.5,1635.0,3452.8,3428.6,796.0,1293.6,966.2,585.1,1664.4,2167.7,3438.2,3432.2,900.0,1142.7,1418.6,1650.2,1319.6,1287.3,-4.0,-10.0,8.0,-4670.0,-5300.0,10877.0,10012.0,9.0,10.0,1.0,-5.0,2.0,-15.0,-5180.0,-4186.0,9132.0,11861.0,8.0,3.0,-1.0,1.0
2022-05-13 12:24:00.915307-07:00,2151.4,627.0,1414.9,1526.4,1242.6,1435.0,1387.5,1619.9,3443.1,3441.9,1890.9,1572.1,1811.0,3445.5,1174.4,1633.1,3439.5,3431.0,800.2,1309.7,966.2,585.1,1664.4,2167.7,3446.7,3445.5,907.6,1152.4,1418.6,1650.2,1319.6,1287.3,-3.0,-1.0,8.0,-4668.0,-5298.0,10881.0,10009.0,12.0,-12.0,12.0,-8.0,11.0,-17.0,-5180.0,-4186.0,9133.0,11861.0,12.0,-2.0,6.0,1.0
2022-05-13 12:24:00.958583-07:00,2156.5,635.9,1427.7,1539.4,1242.6,1435.0,1387.5,1619.9,3449.1,3446.7,1889.9,1574.9,1811.0,3445.5,1174.4,1633.1,3439.5,3431.0,800.2,1309.7,970.5,581.0,1666.3,2172.8,3446.7,3445.5,907.6,1152.4,1422.2,1652.0,1323.2,1274.7,-1.0,-5.0,14.0,-4666.0,-5296.0,10884.0,10009.0,-2.0,-3.0,10.0,-5.0,2.0,-12.0,-5180.0,-4186.0,9133.0,11861.0,-6.0,-4.0,5.0,1.0
2022-05-13 12:24:01.049142-07:00,2156.5,635.9,1427.7,1539.4,1245.3,1436.9,1392.1,1607.7,3449.1,3446.7,1889.9,1574.9,1818.7,3437.0,1177.0,1639.8,3446.7,3443.1,797.7,1301.6,970.5,581.0,1666.3,2172.8,3450.4,3454.0,919.4,1145.4,1422.2,1652.0,1323.2,1274.7,-3.0,0.0,11.0,-4671.0,-5290.0,10888.0,10004.0,9.0,-13.0,27.0,-9.0,5.0,-9.0,-5180.0,-4186.0,9133.0,11861.0,5.0,-1.0,8.0,1.0
2022-05-13 12:24:01.231265-07:00,2147.3,627.0,1415.8,1527.3,1245.3,1436.9,1392.1,1607.7,3441.9,3438.2,1890.9,1571.1,1818.7,3437.0,1177.0,1639.8,3446.7,3443.1,797.7,1301.6,973.1,587.5,1664.4,2164.6,3450.4,3454.0,919.4,1145.4,1425.0,1639.8,1326.8,1276.5,-1.0,4.0,10.0,-4673.0,-5282.0,10892.0,10003.0,2.0,0.0,5.0,-5.0,6.0,-14.0,-5181.0,-4185.0,9133.0,11860.0,-2.0,-3.0,7.0,1.0
2022-05-13 12:24:01.232933-07:00,2149.3,627.0,1415.8,1527.3,1234.6,1430.5,1382.1,1612.4,3440.7,3438.2,1890.9,1571.1,1807.1,3435.8,1176.2,1635.0,3435.8,3437.0,797.7,1298.1,973.1,587.5,1664.4,2169.7,3440.7,3443.1,903.4,1146.3,1425.0,1639.8,1326.8,1277.4,-3.0,-5.0,6.0,-4673.0,-5282.0,10893.0,10002.0,13.0,-8.0,1.0,-7.0,3.0,-13.0,-5181.0,-4184.0,9134.0,11860.0,8.0,-10.0,5.0,1.0
2022-05-13 12:24:01.233983-07:00,2149.3,634.3,1424.1,1520.8,1234.6,1430.5,1382.1,1600.2,3440.7,3439.5,1888.9,1573.0,1807.1,3435.8,1176.2,1634.1,3435.8,3437.0,797.7,1298.1,973.9,585.1,1666.3,2169.7,3455.2,3443.1,903.4,1146.3,1422.2,1652.0,1332.3,1277.4,1.0,-1.0,9.0,-4666.0,-5280.0,10903.0,9996.0,30.0,-23.0,9.0,-3.0,7.0,-15.0,-5177.0,-4185.0,9141.0,11856.0,20.0,-10.0,7.0,1.0
2022-05-13 12:24:01.235022-07:00,2146.3,634.3,1424.1,1520.8,1239.9,1434.1,1392.1,1600.2,3446.7,3439.5,1888.9,1573.0,1809.0,3439.5,1177.0,1634.1,3435.8,3449.1,799.4,1297.2,973.9,585.1,1666.3,2168.7,3455.2,3449.1,904.2,1141.0,1422.2,1652.0,1332.3,1277.4,0.0,-5.0,10.0,-4663.0,-5280.0,10906.0,9994.0,4.0,-13.0,9.0,-4.0,3.0,-13.0,-5176.0,-4184.0,9142.0,11856.0,2.0,-1.0,5.0,1.0
2022-05-13 12:24:01.322972-07:00,2146.3,625.4,1419.5,1532.0,1239.9,1434.1,1392.1,1611.5,3446.7,3444.3,1889.9,1571.1,1809.0,3439.5,1177.0,1630.3,3431.0,3449.1,799.4,1297.2,962.8,585.1,1666.3,2168.7,3449.1,3449.1,904.2,1141.0,1427.7,1648.3,1326.8,1277.4,-1.0,0.0,14.0,-4663.0,-5272.0,10910.0,9994.0,5.0,-10.0,13.0,-3.0,8.0,-10.0,-5175.0,-4184.0,9142.0,11856.0,1.0,-6.0,4.0,1.0
2022-05-13 12:24:01.324105-07:00,2146.3,625.4,1419.5,1532.0,1236.4,1433.2,1393.0,1611.5,3438.2,3444.3,1889.9,1571.1,1811.0,3449.1,1172.6,1630.3,3431.0,3445.5,799.4,1293.6,962.8,585.1,1666.3,2174.8,3449.1,3445.5,905.0,1146.3,1427.7,1648.3,1326.8,1277.4,-2.0,-2.0,11.0,-4664.0,-5270.0,10911.0,9994.0,-2.0,8.0,10.0,-3.0,2.0,-8.0,-5175.0,-4184.0,9142.0,11856.0,-2.0,-4.0,4.0,1.0
2022-05-13 12:24:01.364127-07:00,2146.3,623.8,1415.8,1528.3,1236.4,1433.2,1393.0,1595.5,3438.2,3449.1,1884.0,1569.3,1811.0,3449.1,1172.6,1629.4,3433.4,3445.5,799.4,1293.6,962.0,582.6,1667.2,2174.8,3439.5,3445.5,905.0,1146.3,1417.6,1647.3,1327.8,1277.4,-1.0,-4.0,8.0,-4663.0,-5271.0,10913.0,9991.0,16.0,-1.0,-5.0,-4.0,3.0,-16.0,-5175.0,-4184.0,9142.0,11856.0,3.0,-2.0,1.0,1.0
2022-05-13 12:24:01.409160-07:00,2148.3,627.0,1415.8,1528.3,1230.2,1431.4,1394.8,1595.5,3443.1,3445.5,1884.0,1569.3,1802.3,3441.9,1173.5,1629.4,3433.4,3441.9,795.2,1297.2,962.0,582.6,1656.8,2167.7,3439.5,3437.0,898.3,1147.1,1417.6,1647.3,1329.6,1268.5,-3.0,-3.0,4.0,-4660.0,-5273.0,10918.0,9986.0,13.0,1.0,3.0,-4.0,6.0,-14.0,-5175.0,-4184.0,9144.0,11855.0,4.0,-6.0,6.0,1.0
2022-05-13 12:24:01.454095-07:00,2148.3,627.0,1421.3,1534.8,1230.2,1431.4,1389.4,1612.4,3443.1,3445.5,1888.9,1573.0,1802.3,3441.9,1178.8,1630.3,3435.8,3428.6,795.2,1297.2,964.5,590.7,1656.8,2167.7,3438.2,3437.0,898.3,1147.1,1428.6,1643.5,1329.6,1268.5,3.0,2.0,10.0,-4658.0,-5269.0,10920.0,9987.0,-4.0,-25.0,9.0,-2.0,7.0,-17.0,-5173.0,-4181.0,9144.0,11857.0,-7.0,-14.0,3.0,1.0
2022-05-13 12:24:01.501554-07:00,2147.3,631.9,1421.3,1534.8,1239.1,1425.9,1389.4,1612.4,3440.7,3446.7,1888.9,1573.0,1812.9,3441.9,1178.8,1630.3,3435.8,3428.6,798.5,1299.0,964.5,590.7,1662.5,2168.7,3438.2,3437.0,897.4,1148.9,1428.6,1643.5,1319.6,1268.5,-1.0,-3.0,13.0,-4655.0,-5268.0,10921.0,9987.0,15.0,-8.0,2.0,0.0,4.0,-10.0,-5170.0,-4179.0,9146.0,11857.0,15.0,-9.0,0.0,1.0
2022-05-13 12:24:01.590777-07:00,2147.3,631.9,1417.6,1527.3,1239.1,1425.9,1378.5,1605.8,3440.7,3446.7,1886.0,1575.8,1812.9,3441.9,1175.3,1629.4,3449.1,3441.9,798.5,1299.0,969.6,581.8,1662.5,2168.7,3446.7,3445.5,897.4,1148.9,1425.0,1645.4,1319.6,1268.5,-2.0,-1.0,12.0,-4653.0,-5263.0,10926.0,9985.0,5.0,-9.0,19.0,-2.0,3.0,-9.0,-5170.0,-4179.0,9147.0,11856.0,4.0,-3.0,9.0,1.0
2022-05-13 12:24:01.592388-07:00,2134.1,623.8,1417.6,1527.3,1231.0,1432.3,1378.5,1605.8,3438.2,3437.0,1886.0,1575.8,1814.9,3444.3,1175.3,1629.4,3449.1,3441.9,796.9,1312.4,969.6,581.8,1665.3,2163.6,3446.7,3445.5,899.1,1148.0,1425.0,1645.4,1321.4,1266.7,-3.0,0.0,10.0,-4655.0,-5258.0,10930.0,9982.0,13.0,5.0,12.0,-3.0,7.0,-10.0,-5170.0,-4179.0,9147.0,11856.0,6.0,5.0,4.0,1.0
2022-05-13 12:24:01.679840-07:00,2134.1,623.8,1417.6,1523.6,1231.0,1425.9,1393.0,1607.7,3438.2,3437.0,1878.1,1574.9,1814.9,3449.1,1178.8,1625.6,3435.8,3443.1,797.7,1312.4,973.1,585.1,1665.3,2163.6,3438.2,3443.1,905.9,1148.0,1425.0,1645.4,1321.4,1266.7,-3.0,0.0,5.0,-4659.0,-5252.0,10935.0,9978.0,7.0,-12.0,28.0,-4.0,4.0,-16.0,-5171.0,-4178.0,9148.0,11856.0,3.0,2.0,12.0,1.0
2022-05-13 12:24:01.769348-07:00,2141.2,640.8,1413.1,1523.6,1230.2,1425.9,1393.0,1607.7,3437.0,3439.5,1885.0,1574.9,1812.9,3449.1,1178.8,1625.6,3435.8,3443.1,797.7,1299.8,973.1,588.3,1656.8,2163.6,3438.2,3443.1,905.9,1149.8,1425.0,1646.4,1322.3,1266.7,-3.0,7.0,4.0,-4660.0,-5248.0,10938.0,9976.0,3.0,1.0,-11.0,-1.0,8.0,-15.0,-5169.0,-4180.0,9151.0,11853.0,1.0,0.0,-3.0,1.0
2022-05-13 12:24:01.994381-07:00,2141.2,640.8,1413.1,1528.3,1230.2,1430.5,1391.2,1605.8,3437.0,3439.5,1885.0,1573.9,1812.9,3441.9,1182.3,1630.3,3439.5,3438.2,798.5,1299.8,972.2,588.3,1656.8,2163.6,3443.1,3438.2,899.1,1149.8,1427.7,1646.4,1322.3,1266.7,-5.0,-10.0,10.0,-4656.0,-5253.0,10936.0,9978.0,-1.0,1.0,-9.0,-2.0,1.0,-10.0,-5169.0,-4182.0,9153.0,11852.0,-11.0,3.0,2.0,1.0
2022-05-13 12:24:02.221139-07:00,2139.2,628.6,1412.2,1528.3,1236.4,1430.5,1391.2,1605.8,3438.2,3437.0,1890.9,1573.9,1804.2,3441.9,1182.3,1630.3,3439.5,3438.2,798.5,1291.8,972.2,582.6,1663.4,2167.7,3443.1,3438.2,899.1,1145.4,1427.7,1645.4,1317.8,1268.5,-2.0,2.0,6.0,-4656.0,-5250.0,10937.0,9979.0,-14.0,-8.0,9.0,-5.0,9.0,-20.0,-5168.0,-4182.0,9153.0,11852.0,-21.0,-12.0,3.0,1.0
2022-05-13 12:24:02.264868-07:00,2139.2,628.6,1412.2,1532.0,1236.4,1425.9,1377.5,1606.8,3438.2,3437.0,1890.9,1565.5,1804.2,3437.0,1178.8,1633.1,3437.0,3439.5,798.5,1291.8,973.9,582.6,1663.4,2167.7,3445.5,3446.7,900.8,1145.4,1425.0,1645.4,1317.8,1268.5,1.0,-10.0,4.0,-4658.0,-5244.0,10931.0,9987.0,-14.0,-14.0,12.0,-1.0,-1.0,-16.0,-5168.0,-4180.0,9149.0,11855.0,-13.0,-16.0,6.0,1.0
2022-05-13 12:24:02.266324-07:00,2146.3,629.5,1410.3,1525.5,1232.8,1425.9,1377.5,1606.8,3438.2,3439.5,1886.9,1580.5,1811.0,3437.0,1178.8,1633.1,3437.0,3439.5,798.5,1299.8,971.3,587.5,1659.6,2167.7,3445.5,3446.7,900.8,1144.5,1427.7,1650.2,1327.8,1271.2,3.0,4.0,12.0,-4657.0,-5231.0,10937.0,9989.0,-18.0,-30.0,20.0,1.0,5.0,-18.0,-5165.0,-4174.0,9150.0,11858.0,-32.0,-13.0,1.0,1.0
2022-05-13 12:24:02.267492-07:00,2146.3,629.5,1410.3,1525.5,1235.5,1431.4,1390.3,1607.7,3438.2,3439.5,1886.9,1580.5,1810.0,3441.9,1168.2,1636.0,3440.7,3445.5,804.4,1295.4,971.3,587.5,1659.6,2167.7,3447.9,3441.9,898.3,1153.3,1427.7,1650.2,1327.8,1271.2,-2.0,2.0,29.0,-4649.0,-5225.0,10938.0,9994.0,23.0,-29.0,-18.0,-4.0,3.0,-7.0,-5165.0,-4170.0,9146.0,11862.0,14.0,-3.0,-15.0,1.0
2022-05-13 12:24:02.270000-07:00,2133.1,628.6,1410.3,1533.8,1239.1,1431.4,1382.1,1604.0,3447.9,3449.1,1894.8,1572.1,1804.2,3428.6,1173.5,1635.0,3438.2,3446.7,796.0,1300.7,969.6,589.1,1663.4,2167.7,3438.2,3441.9,897.4,1151.5,1423.1,1644.5,1331.4,1265.8,-2.0,-2.0,6.0,-4648.0,-5234.0,10934.0,9994.0,4.0,11.0,5.0,-1.0,2.0,-15.0,-5161.0,-4177.0,9147.0,11861.0,15.0,11.0,0.0,1.0
2022-05-13 12:24:02.355423-07:00,2141.2,631.1,1414.0,1529.2,1239.1,1431.4,1382.1,1604.0,3444.3,3435.8,1884.0,1566.5,1804.2,3428.6,1173.5,1635.0,3438.2,3446.7,796.0,1300.7,963.7,579.4,1661.5,2167.7,3438.2,3441.9,897.4,1151.5,1421.3,1653.9,1319.6,1265.8,-59.0,348.0,-232.0,-4904.0,-4902.0,9881.0,11078.0,-2365.0,-553.0,-502.0,25.0,248.0,-23.0,-5444.0,-3789.0,8114.0,12594.0,-1795.0,-48.0,-456.0,1.0
2022-05-13 12:24:02.356287-07:00,2141.2,631.1,1414.0,1529.2,1239.1,1431.4,1382.1,1604.0,3444.3,3435.8,1884.0,1566.5,1804.2,3428.6,1173.5,1635.0,3438.2,3446.7,796.0,1300.7,963.7,579.4,1661.5,2167.7,3438.2,3441.9,897.4,1151.5,1421.3,1653.9,1319.6,1265.8,-59.0,348.0,-232.0,-4904.0,-4902.0,9881.0,11078.0,-2365.0,-553.0,-502.0,25.0,248.0,-23.0,-5444.0,-3789.0,8114.0,12594.0,-1795.0,-48.0,-456.0,1.0
2022-05-13 12:24:02.357390-07:00,2171.8,633.5,1563.7,1566.5,1239.9,1500.4,1593.6,2002.5,3443.1,3444.3,1890.9,1569.3,1806.1,3444.3,1186.7,1634.1,3438.2,3444.3,797.7,1299.0,973.1,589.1,1691.9,2164.6,3445.5,3456.4,1325.0,1216.8,1428.6,1653.9,1326.8,1265.8,-91.0,82.0,-96.0,-4632.0,-3834.0,8548.0,12618.0,-3001.0,-1190.0,-316.0,-131.0,104.0,-157.0,-5221.0,-3626.0,6530.0,13616.0,-2479.0,50.0,-1034.0,1.0
2022-05-13 12:24:02.398833-07:00,2171.8,642.4,1654.9,1581.4,1239.9,1500.4,1593.6,2059.4,3443.1,3444.3,1889.9,1572.1,1806.1,3444.3,1186.7,1636.9,3446.7,3444.3,797.7,1299.0,987.6,587.5,1748.3,2164.6,3440.7,3456.4,1325.0,1216.8,1426.8,1656.8,1329.6,1265.8,-92.0,-87.0,-211.0,-4636.0,-3159.0,7481.0,13454.0,-3677.0,-1078.0,-179.0,-72.0,83.0,-118.0,-5083.0,-3415.0,5434.0,14192.0,-3256.0,-148.0,-988.0,1.0
2022-05-13 12:24:02.488630-07:00,2259.0,636.7,1654.9,1581.4,1234.6,1584.2,1650.2,2059.4,3437.0,3438.2,1889.9,1572.1,1803.2,3447.9,1178.8,1636.9,3446.7,3439.5,799.4,1300.7,987.6,587.5,1870.3,2160.5,3440.7,3447.9,1374.8,1277.4,1426.8,1656.8,1334.1,1276.5,0.0,-225.0,-186.0,-4737.0,-2069.0,6288.0,14219.0,-3635.0,-1714.0,513.0,3.0,-149.0,-259.0,-4991.0,-3010.0,4183.0,14730.0,-2703.0,-440.0,-683.0,1.0
2022-05-13 12:24:02.490902-07:00,2259.0,636.7,1619.0,1566.5,1234.6,1584.2,1710.0,2091.6,3437.0,3438.2,1864.5,1564.6,1803.2,3447.9,1164.7,1635.0,3426.2,3444.3,799.4,1300.7,1029.7,589.9,1870.3,2160.5,3438.2,3447.9,1374.8,1277.4,1426.8,1653.9,1334.1,1276.5,42.0,-259.0,-138.0,-4756.0,-1258.0,5489.0,14633.0,-1808.0,-999.0,158.0,111.0,-109.0,-79.0,-4862.0,-2621.0,3421.0,15041.0,-1149.0,-490.0,-467.0,1.0
2022-05-13 12:24:02.534538-07:00,2295.2,634.3,1619.0,1566.5,1246.2,1929.2,1710.0,2091.6,3434.6,3445.5,1864.5,1564.6,1810.0,3444.3,1164.7,1635.0,3426.2,3444.3,800.2,1301.6,1029.7,589.9,2074.5,2160.5,3438.2,3447.9,1420.4,1426.8,1426.8,1653.9,1332.3,1288.2,164.0,-148.0,-14.0,-4779.0,-536.0,5134.0,14797.0,-1102.0,-1129.0,435.0,205.0,-184.0,-159.0,-4766.0,-2315.0,3028.0,15205.0,-855.0,-461.0,-199.0,1.0
2022-05-13 12:24:02.580874-07:00,2295.2,634.3,1597.4,1561.8,1246.2,1929.2,1732.0,2098.7,3434.6,3445.5,1876.2,1556.2,1810.0,3444.3,1157.7,1622.8,3435.8,3428.6,800.2,1301.6,1056.5,593.9,2074.5,2160.5,3435.8,3454.0,1420.4,1426.8,1429.5,1649.2,1332.3,1288.2,69.0,-223.0,-90.0,-4775.0,-152.0,4847.0,14904.0,-955.0,-492.0,229.0,116.0,-92.0,-94.0,-4713.0,-2044.0,2758.0,15311.0,-880.0,-519.0,-8.0,1.0
2022-05-13 12:24:02.668545-07:00,2293.1,627.0,1597.4,1561.8,1234.6,2104.8,1732.0,2098.7,3440.7,3435.8,1876.2,1556.2,1802.3,3444.3,1157.7,1622.8,3435.8,3428.6,804.4,1306.1,1056.5,593.9,2156.5,2162.6,3435.8,3454.0,1392.1,1515.3,1429.5,1649.2,1337.7,1314.2,79.0,-210.0,-28.0,-4914.0,230.0,4541.0,14954.0,-779.0,-498.0,646.0,129.0,-137.0,-103.0,-4753.0,-1716.0,2500.0,15383.0,-670.0,-554.0,202.0,1.0
2022-05-13 12:24:02.715115-07:00,2293.1,627.0,1564.6,1546.9,1234.6,2072.5,1687.2,2019.4,3440.7,3435.8,1861.5,1560.9,1802.3,3449.1,1163.8,1630.3,3444.3,3439.5,804.4,1306.1,1056.5,593.9,2156.5,2162.6,3443.1,3437.0,1359.4,1515.3,1426.8,1656.8,1337.7,1314.2,109.0,-144.0,-11.0,-5131.0,458.0,4310.0,14944.0,-494.0,28.0,538.0,183.0,-102.0,-61.0,-4858.0,-1426.0,2343.0,15405.0,-350.0,-360.0,327.0,1.0
2022-05-13 12:24:02.760322-07:00,2275.5,630.3,1730.1,1546.9,1248.0,2072.5,1687.2,2019.4,3443.1,3438.2,1856.7,1560.9,1811.0,3449.1,1163.8,1630.3,3444.3,3439.5,804.4,1300.7,1056.5,592.3,2146.3,2161.6,3443.1,3437.0,1359.4,1500.4,1426.8,1667.2,1349.4,1302.5,79.0,57.0,-32.0,-5287.0,356.0,4297.0,14896.0,340.0,469.0,132.0,105.0,30.0,8.0,-4966.0,-1298.0,2369.0,15378.0,245.0,-164.0,228.0,1.0
2022-05-13 12:24:02.804357-07:00,2275.5,630.3,1730.1,1627.5,1248.0,2043.4,1772.3,2147.3,3443.1,3438.2,1856.7,1559.9,1811.0,3445.5,1163.0,1630.3,3439.5,3433.4,806.9,1300.7,1050.4,592.3,2146.3,2161.6,3440.7,3437.0,1362.1,1500.4,1426.8,1667.2,1349.4,1302.5,37.0,120.0,-52.0,-5308.0,76.0,4462.0,14844.0,788.0,537.0,-200.0,31.0,108.0,19.0,-4989.0,-1288.0,2555.0,15341.0,518.0,-125.0,-58.0,1.0
2022-05-13 12:24:02.848526-07:00,2245.6,635.1,1929.2,1627.5,1369.4,2043.4,1772.3,2147.3,3446.7,3439.5,1907.5,1559.9,1822.6,3445.5,1163.0,1630.3,3439.5,3433.4,806.9,1307.9,1050.4,591.5,2205.5,2160.5,3440.7,3437.0,1362.1,1544.1,1426.8,1854.7,1558.1,1345.8,19.0,0.0,112.0,-5293.0,-167.0,4448.0,14853.0,-316.0,621.0,-280.0,-22.0,-28.0,137.0,-4938.0,-1257.0,2613.0,15351.0,25.0,-92.0,-122.0,1.0
2022-05-13 12:24:02.984804-07:00,2245.6,635.1,1929.2,1687.2,1369.4,2046.4,1969.7,2509.0,3446.7,3439.5,1907.5,1571.1,1822.6,3435.8,1429.5,1733.0,3444.3,3433.4,804.4,1307.9,1037.5,591.5,2205.5,2160.5,3443.1,3441.9,1325.0,1544.1,1434.1,1854.7,1558.1,1345.8,-53.0,-38.0,18.0,-5299.0,-340.0,4314.0,14887.0,-109.0,406.0,-44.0,-35.0,-61.0,56.0,-4899.0,-1220.0,2660.0,15358.0,266.0,-166.0,-1.0,1.0
2022-05-13 12:24:02.986979-07:00,2220.9,629.5,1911.5,1687.2,1435.0,2046.4,1969.7,2509.0,3444.3,3444.3,2119.9,1571.1,2041.4,3435.8,1429.5,1733.0,3444.3,3433.4,804.4,1310.6,1037.5,593.1,2179.9,2307.7,3443.1,3441.9,1325.0,1562.7,1434.1,1913.4,1643.5,1430.5,-16.0,0.0,64.0,-5325.0,-498.0,4254.0,14891.0,29.0,418.0,-38.0,9.0,-25.0,46.0,-4887.0,-1177.0,2790.0,15342.0,255.0,-173.0,44.0,1.0
2022-05-13 12:24:02.988080-07:00,2220.9,629.5,1911.5,1703.3,1430.5,2067.5,1974.6,2340.0,3444.3,3444.3,2119.9,1625.6,2089.6,3438.2,1532.0,1815.8,3446.7,3433.4,804.4,1309.7,1033.2,593.1,2179.9,2307.7,3445.5,3441.9,1318.7,1554.3,1471.8,1913.4,1643.5,1430.5,6.0,28.0,47.0,-5325.0,-664.0,4253.0,14885.0,102.0,311.0,-138.0,29.0,6.0,54.0,-4882.0,-1154.0,2908.0,15324.0,151.0,-54.0,14.0,1.0
2022-05-13 12:24:03.121178-07:00,2209.6,622.2,1891.8,1684.3,1430.5,2067.5,1974.6,2340.0,3440.7,3443.1,2242.5,1637.9,2089.6,3438.2,1532.0,1815.8,3446.7,3433.4,804.4,1309.7,1020.2,591.5,2165.6,2502.6,3445.5,3441.9,1318.7,1554.3,1494.0,1922.3,1665.3,1447.0,23.0,34.0,84.0,-5291.0,-741.0,4268.0,14889.0,251.0,108.0,-174.0,54.0,16.0,50.0,-4882.0,-1157.0,2939.0,15318.0,127.0,112.0,-34.0,1.0
2022-05-13 12:24:03.166041-07:00,2209.6,622.2,1891.8,1684.3,1409.4,2092.6,1950.9,2267.2,3440.7,3443.1,2242.5,1637.9,2041.4,3439.5,1543.1,1839.1,3438.2,3445.5,801.9,1299.0,1020.2,591.5,2165.6,2502.6,3449.1,3450.4,1306.1,1546.9,1494.0,1922.3,1665.3,1447.0,23.0,138.0,192.0,-5229.0,-880.0,4338.0,14883.0,63.0,468.0,-222.0,7.0,101.0,119.0,-4858.0,-1258.0,2968.0,15311.0,-12.0,349.0,-156.0,1.0
2022-05-13 12:24:03.210140-07:00,2206.5,624.6,1846.9,1672.9,1409.4,2092.6,1950.9,2267.2,3449.1,3446.7,2325.4,1647.3,2041.4,3439.5,1543.1,1839.1,3438.2,3445.5,801.9,1299.0,1017.6,592.3,2127.0,2649.3,3449.1,3450.4,1306.1,1546.9,1497.7,1906.6,1655.8,1460.8,-40.0,59.0,82.0,-5216.0,-1029.0,4331.0,14880.0,102.0,132.0,2.0,-36.0,37.0,71.0,-4823.0,-1449.0,2912.0,15316.0,38.0,515.0,-159.0,1.0
2022-05-13 12:24:03.255278-07:00,2206.5,624.6,1846.9,1672.9,1393.0,2067.5,1940.0,2236.3,3449.1,3446.7,2325.4,1647.3,2041.4,3438.2,1534.8,1824.6,3437.0,3444.3,799.4,1295.4,1017.6,592.3,2127.0,2649.3,3446.7,3449.1,1296.3,1535.7,1497.7,1906.6,1655.8,1460.8,-42.0,72.0,-32.0,-5202.0,-1105.0,4334.0,14878.0,-78.0,128.0,-254.0,-48.0,31.0,-22.0,-4795.0,-1678.0,2850.0,15313.0,-91.0,502.0,-173.0,1.0
2022-05-13 12:24:03.256518-07:00,2199.3,620.5,1852.8,1698.6,1393.0,2067.5,1940.0,2268.3,3446.7,3445.5,2335.8,1649.2,2041.4,3438.2,1534.8,1823.6,3443.1,3444.3,799.4,1295.4,1015.9,595.5,2100.7,2623.2,3447.9,3449.1,1296.3,1535.7,1514.3,1906.6,1670.1,1463.5,-53.0,1.0,-50.0,-5130.0,-1163.0,4210.0,14935.0,-338.0,116.0,-166.0,-31.0,9.0,-28.0,-4771.0,-1835.0,2683.0,15333.0,-384.0,357.0,-140.0,1.0
2022-05-13 12:24:03.300237-07:00,2195.2,620.5,1852.8,1698.6,1415.8,2053.4,1954.8,2268.3,3439.5,3445.5,2335.8,1649.2,2033.4,3440.7,1573.9,1823.6,3443.1,3441.9,798.5,1296.3,1015.9,595.5,2100.7,2907.7,3447.9,3437.0,1295.4,1531.0,1514.3,1906.6,1670.1,1500.4,1.0,31.0,-60.0,-5095.0,-1110.0,4155.0,14966.0,-138.0,-222.0,-12.0,-9.0,24.0,-109.0,-4759.0,-1948.0,2534.0,15348.0,-92.0,276.0,-98.0,1.0
2022-05-13 12:24:03.390005-07:00,2195.2,628.6,1878.1,1716.7,1415.8,2053.4,1954.8,2210.6,3439.5,3447.9,2413.4,1658.7,2033.4,3440.7,1573.9,1829.4,3444.3,3441.9,798.5,1296.3,1014.2,588.3,2084.6,2907.7,3443.1,3437.0,1295.4,1531.0,1559.9,1980.6,1734.9,1500.4,-2.0,-35.0,-80.0,-5074.0,-1070.0,4031.0,15010.0,-406.0,167.0,-109.0,16.0,-17.0,-84.0,-4749.0,-2016.0,2393.0,15365.0,-444.0,188.0,-69.0,1.0
2022-05-13 12:24:03.391326-07:00,2190.1,628.6,1878.1,1716.7,1404.9,2072.5,1970.7,2210.6,3440.7,3447.9,2413.4,1658.7,2020.4,3439.5,1607.7,1829.4,3444.3,3433.4,804.4,1287.3,1014.2,588.3,2084.6,2898.7,3443.1,3449.1,1277.4,1527.3,1559.9,1980.6,1734.9,1495.8,-24.0,-63.0,-101.0,-5071.0,-1056.0,3938.0,15037.0,35.0,-83.0,87.0,18.0,-17.0,-104.0,-4747.0,-2051.0,2259.0,15382.0,14.0,114.0,-52.0,1.0
2022-05-13 12:24:03.436150-07:00,2190.1,633.5,1900.7,1735.8,1404.9,2072.5,1970.7,2153.4,3440.7,3449.1,2426.1,1664.4,2020.4,3439.5,1607.7,1861.5,3432.2,3433.4,804.4,1287.3,1010.8,592.3,2078.5,2898.7,3440.7,3449.1,1277.4,1527.3,1581.4,1960.8,1721.5,1495.8,-12.0,-26.0,-83.0,-5071.0,-1060.0,3944.0,15035.0,-58.0,64.0,-23.0,8.0,13.0,-78.0,-4734.0,-2092.0,2256.0,15381.0,-49.0,29.0,-33.0,1.0
2022-05-13 12:24:03.480465-07:00,2180.9,624.6,1900.7,1735.8,1383.0,2069.5,1942.0,2153.4,3449.1,3440.7,2426.1,1664.4,2004.5,3438.2,1592.7,1861.5,3432.2,3435.8,805.2,1294.5,1010.8,592.3,2071.5,2799.0,3440.7,3451.6,1255.1,1522.7,1581.4,1960.8,1724.4,1479.2,3.0,-3.0,-32.0,-5084.0,-1033.0,3923.0,15038.0,27.0,-51.0,-16.0,18.0,-29.0,-58.0,-4734.0,-2085.0,2223.0,15386.0,-10.0,-8.0,2.0,1.0
2022-05-13 12:24:03.569247-07:00,2180.9,624.6,1856.7,1713.8,1383.0,2069.5,1921.3,2124.0,3449.1,3440.7,2395.5,1662.5,2004.5,3438.2,1579.6,1842.0,3433.4,3433.4,805.2,1294.5,1009.0,590.7,2071.5,2799.0,3440.7,3443.1,1255.1,1522.7,1574.9,1950.9,1724.4,1479.2,-18.0,23.0,5.0,-5066.0,-1051.0,3945.0,15037.0,22.0,55.0,-23.0,-14.0,27.0,4.0,-4728.0,-2091.0,2241.0,15385.0,18.0,7.0,-5.0,1.0
2022-05-13 12:24:03.725460-07:00,2176.9,620.5,1856.7,1713.8,1383.0,2070.5,1921.3,2124.0,3446.7,3441.9,2395.5,1662.5,1992.5,3438.2,1579.6,1842.0,3433.4,3433.4,807.7,1303.4,1009.0,590.7,2065.5,2762.4,3440.7,3443.1,1258.7,1512.5,1574.9,1950.9,1704.3,1451.6,-28.0,38.0,25.0,-5066.0,-1062.0,3955.0,15033.0,-21.0,-44.0,7.0,-20.0,9.0,-2.0,-4723.0,-2094.0,2249.0,15384.0,-25.0,0.0,-4.0,1.0
2022-05-13 12:24:03.728053-07:00,2176.9,620.5,1842.0,1710.0,1383.0,2070.5,1911.5,2118.9,3446.7,3441.9,2378.7,1653.9,1992.5,3438.2,1566.5,1835.2,3438.2,3432.2,807.7,1303.4,1010.8,589.9,2065.5,2762.4,3449.1,3439.5,1258.7,1512.5,1564.6,1940.0,1704.3,1451.6,-46.0,24.0,5.0,-5047.0,-1098.0,3956.0,15037.0,43.0,35.0,-37.0,-30.0,43.0,38.0,-4718.0,-2107.0,2251.0,15384.0,57.0,42.0,-25.0,1.0
2022-05-13 12:24:03.730206-07:00,2172.8,627.8,1842.0,1710.0,1360.3,2063.5,1911.5,2118.9,3444.3,3440.7,2378.7,1653.9,1966.7,3439.5,1566.5,1835.2,3438.2,3432.2,811.9,1294.5,1010.8,589.9,2074.5,2733.7,3449.1,3439.5,1254.2,1499.5,1564.6,1940.0,1703.3,1455.2,-25.0,28.0,3.0,-5051.0,-1081.0,3952.0,15038.0,-44.0,-21.0,-9.0,-16.0,2.0,-20.0,-4710.0,-2114.0,2244.0,15387.0,-62.0,5.0,-19.0,1.0
2022-05-13 12:24:03.770521-07:00,2172.8,627.8,1827.5,1711.0,1360.3,2063.5,1906.6,2098.7,3444.3,3440.7,2358.8,1648.3,1966.7,3439.5,1564.6,1825.5,3439.5,3438.2,811.9,1294.5,1011.6,588.3,2074.5,2733.7,3449.1,3446.7,1254.2,1499.5,1559.9,1939.0,1703.3,1455.2,-16.0,35.0,-5.0,-5047.0,-1098.0,3950.0,15038.0,-22.0,33.0,-9.0,-8.0,35.0,0.0,-4701.0,-2124.0,2237.0,15389.0,-16.0,23.0,-24.0,1.0
2022-05-13 12:24:03.830782-07:00,2179.9,634.3,1817.8,1711.0,1360.3,2045.4,1906.6,2098.7,3445.5,3443.1,2349.4,1648.3,1973.7,3443.1,1564.6,1825.5,3439.5,3438.2,804.4,1288.2,1011.6,591.5,2056.4,2726.0,3449.1,3446.7,1253.3,1496.7,1559.9,1937.1,1692.9,1440.5,-14.0,2.0,-18.0,-5042.0,-1107.0,3916.0,15048.0,-95.0,36.0,-37.0,-3.0,8.0,-19.0,-4695.0,-2126.0,2207.0,15395.0,-89.0,12.0,-41.0,1.0
2022-05-13 12:24:03.946110-07:00,2179.9,634.3,1817.8,1703.3,1360.3,2036.4,1903.6,2115.9,3445.5,3443.1,2349.4,1644.5,1973.7,3449.1,1547.8,1835.2,3446.7,3444.3,799.4,1288.2,1009.9,591.5,2056.4,2726.0,3455.2,3439.5,1239.1,1496.7,1559.9,1937.1,1692.9,1440.5,-16.0,15.0,-13.0,-5033.0,-1100.0,3901.0,15056.0,-54.0,-32.0,-16.0,0.0,8.0,-27.0,-4678.0,-2128.0,2196.0,15401.0,-25.0,-6.0,-45.0,1.0
2022-05-13 12:24:03.948247-07:00,2168.7,628.6,1809.0,1703.3,1352.1,2036.4,1903.6,2115.9,3449.1,3438.2,2332.6,1644.5,1961.8,3449.1,1547.8,1835.2,3446.7,3444.3,799.4,1290.9,1009.9,592.3,2050.4,2715.0,3455.2,3439.5,1239.1,1493.0,1559.9,1928.2,1688.1,1436.9,-12.0,-9.0,3.0,-5010.0,-1109.0,3890.0,15066.0,29.0,30.0,-56.0,-5.0,-11.0,-19.0,-4661.0,-2125.0,2190.0,15408.0,21.0,-23.0,-30.0,1.0
2022-05-13 12:24:04.078064-07:00,2168.7,628.6,1809.0,1709.1,1352.1,2026.4,1898.7,2109.8,3449.1,3438.2,2332.6,1641.6,1961.8,3438.2,1555.3,1828.4,3439.5,3441.9,801.0,1290.9,1015.9,592.3,2050.4,2715.0,3440.7,3443.1,1246.2,1493.0,1563.7,1928.2,1688.1,1436.9,-33.0,-7.0,-11.0,-5007.0,-1128.0,3879.0,15068.0,-67.0,-48.0,61.0,-11.0,10.0,-2.0,-4652.0,-2120.0,2195.0,15411.0,-49.0,-28.0,-2.0,1.0
2022-05-13 12:24:04.081294-07:00,2165.6,635.1,1821.6,1709.1,1356.7,2026.4,1898.7,2109.8,3439.5,3440.7,2325.4,1641.6,1959.8,3438.2,1555.3,1828.4,3439.5,3441.9,801.0,1297.2,1015.9,585.1,2051.4,2707.3,3440.7,3443.1,1246.2,1493.0,1563.7,1930.2,1684.3,1435.0,-11.0,-6.0,16.0,-5029.0,-1087.0,3859.0,15069.0,16.0,-43.0,49.0,1.0,-15.0,-21.0,-4664.0,-2094.0,2168.0,15414.0,-17.0,-26.0,26.0,1.0
2022-05-13 12:24:04.082813-07:00,2165.6,635.1,1821.6,1694.8,1357.6,2025.4,1880.1,2097.7,3439.5,3440.7,2325.4,1639.8,1944.0,3438.2,1551.5,1817.8,3445.5,3440.7,801.9,1296.3,1009.0,585.1,2051.4,2707.3,3458.9,3440.7,1239.9,1482.9,1558.1,1930.2,1684.3,1435.0,-22.0,24.0,-8.0,-5038.0,-1105.0,3869.0,15062.0,-10.0,25.0,43.0,-11.0,29.0,2.0,-4678.0,-2092.0,2174.0,15409.0,-18.0,5.0,41.0,1.0
2022-05-13 12:24:04.201209-07:00,2162.6,621.4,1811.9,1692.9,1357.6,2025.4,1880.1,2097.7,3438.2,3449.1,2317.0,1631.3,1944.0,3438.2,1551.5,1817.8,3445.5,3440.7,801.9,1296.3,1007.3,588.3,2034.4,2688.6,3458.9,3440.7,1239.9,1482.9,1557.1,1913.4,1689.1,1427.7,-15.0,27.0,-8.0,-5052.0,-1094.0,3869.0,15058.0,23.0,-25.0,28.0,-8.0,14.0,-22.0,-4693.0,-2084.0,2165.0,15407.0,0.0,-15.0,21.0,1.0
2022-05-13 12:24:04.203661-07:00,2162.6,621.4,1811.9,1692.9,1353.1,2022.4,1884.0,2101.7,3438.2,3449.1,2317.0,1631.3,1941.0,3443.1,1545.0,1824.6,3439.5,3433.4,801.0,1290.9,1007.3,588.3,2034.4,2688.6,3432.2,3449.1,1239.1,1480.1,1557.1,1913.4,1689.1,1427.7,-26.0,28.0,-18.0,-5045.0,-1104.0,3900.0,15052.0,-9.0,-46.0,-5.0,-15.0,36.0,-3.0,-4691.0,-2096.0,2193.0,15402.0,27.0,-4.0,-11.0,1.0
2022-05-13 12:24:04.204900-07:00,2160.5,627.8,1811.0,1692.9,1353.1,2022.4,1884.0,2101.7,3434.6,3444.3,2307.7,1639.8,1941.0,3443.1,1545.0,1824.6,3439.5,3433.4,801.0,1290.9,1010.8,592.3,2038.4,2687.5,3432.2,3449.1,1239.1,1480.1,1552.5,1908.5,1675.7,1421.3,-8.0,29.0,7.0,-5028.0,-1073.0,3921.0,15054.0,65.0,-91.0,-41.0,-4.0,7.0,-18.0,-4683.0,-2095.0,2199.0,15404.0,56.0,-25.0,-34.0,1.0
2022-05-13 12:24:04.244194-07:00,2160.5,627.8,1811.0,1692.9,1339.5,2021.4,1885.0,2078.5,3434.6,3444.3,2307.7,1639.8,1943.0,3438.2,1541.3,1818.7,3441.9,3435.8,808.5,1290.9,1010.8,592.3,2038.4,2687.5,3456.4,3440.7,1233.7,1485.6,1552.5,1908.5,1675.7,1421.3,-14.0,5.0,16.0,-5012.0,-1065.0,3920.0,15060.0,-69.0,-10.0,-6.0,-6.0,9.0,-1.0,-4667.0,-2087.0,2203.0,15409.0,-56.0,-22.0,-21.0,1.0
2022-05-13 12:24:04.335545-07:00,2168.7,632.7,1807.1,1691.9,1339.5,2021.4,1885.0,2070.5,3441.9,3439.5,2317.0,1638.8,1943.0,3438.2,1541.3,1814.9,3435.8,3435.8,808.5,1290.9,1007.3,581.8,2035.4,2672.2,3451.6,3440.7,1233.7,1485.6,1550.6,1908.5,1672.9,1423.1,-7.0,16.0,8.0,-5015.0,-1052.0,3900.0,15065.0,-31.0,-46.0,29.0,-10.0,4.0,-9.0,-4662.0,-2077.0,2184.0,15415.0,-33.0,-18.0,-10.0,1.0
2022-05-13 12:24:04.337324-07:00,2150.4,632.7,1807.1,1691.9,1354.0,2013.4,1881.1,2070.5,3444.3,3439.5,2317.0,1638.8,1920.3,3447.9,1534.8,1814.9,3435.8,3439.5,803.5,1289.1,1007.3,581.8,2035.4,2673.3,3451.6,3449.1,1235.5,1470.0,1550.6,1908.5,1672.9,1411.3,-14.0,2.0,-4.0,-5012.0,-1069.0,3890.0,15068.0,-6.0,75.0,-30.0,-3.0,19.0,12.0,-4656.0,-2074.0,2179.0,15418.0,-8.0,0.0,-21.0,1.0
2022-05-13 12:24:04.651376-07:00,2150.4,626.2,1802.3,1693.8,1354.0,2013.4,1881.1,2087.6,3444.3,3444.3,2307.7,1626.5,1920.3,3447.9,1534.8,1810.0,3435.8,3439.5,803.5,1289.1,1009.9,588.3,2037.4,2673.3,3438.2,3449.1,1235.5,1470.0,1556.2,1917.4,1683.3,1411.3,-10.0,13.0,-8.0,-5011.0,-1063.0,3887.0,15069.0,5.0,-40.0,-1.0,-11.0,1.0,-15.0,-4652.0,-2072.0,2178.0,15419.0,21.0,-16.0,-19.0,1.0
2022-05-13 12:24:04.652844-07:00,2152.4,626.2,1802.3,1693.8,1345.8,1996.5,1879.1,2087.6,3437.0,3444.3,2307.7,1626.5,1931.1,3449.1,1527.3,1810.0,3435.8,3437.0,801.9,1293.6,1009.9,588.3,2037.4,2672.2,3438.2,3441.9,1226.6,1475.5,1556.2,1917.4,1683.3,1412.2,-9.0,-5.0,26.0,-5000.0,-1058.0,3887.0,15074.0,-22.0,-61.0,6.0,-5.0,-4.0,16.0,-4645.0,-2065.0,2173.0,15423.0,-37.0,-9.0,-8.0,1.0
2022-05-13 12:24:04.653985-07:00,2152.4,627.8,1803.2,1695.7,1345.8,1996.5,1879.1,2095.7,3437.0,3440.7,2300.4,1626.5,1931.1,3449.1,1527.3,1817.8,3441.9,3437.0,801.9,1293.6,998.7,587.5,2033.4,2672.2,3441.9,3441.9,1226.6,1475.5,1545.9,1909.5,1664.4,1412.2,-15.0,10.0,14.0,-5001.0,-1047.0,3890.0,15073.0,-1.0,27.0,8.0,-19.0,12.0,-7.0,-4644.0,-2074.0,2177.0,15421.0,15.0,21.0,6.0,1.0
2022-05-13 12:24:04.656646-07:00,2160.5,627.8,1803.2,1695.7,1360.3,2006.4,1862.5,2095.7,3443.1,3440.7,2300.4,1626.5,1937.1,3441.9,1532.0,1817.8,3441.9,3444.3,802.7,1296.3,998.7,587.5,2033.4,2662.4,3441.9,3449.1,1224.8,1470.9,1545.9,1909.5,1664.4,1404.0,-50.0,-9.0,-65.0,-5020.0,-1044.0,3857.0,15075.0,-122.0,-10.0,64.0,-40.0,1.0,-66.0,-4658.0,-2070.0,2148.0,15422.0,-121.0,-30.0,44.0,1.0
2022-05-13 12:24:04.695597-07:00,2160.5,622.2,1797.4,1687.2,1360.3,2006.4,1873.2,2093.7,3443.1,3446.7,2302.5,1631.3,1937.1,3441.9,1528.3,1809.0,3435.8,3441.9,802.7,1296.3,1011.6,589.9,2027.4,2662.4,3449.1,3446.7,1224.8,1470.9,1555.3,1911.5,1671.9,1404.0,-72.0,-16.0,-133.0,-5059.0,-1006.0,3796.0,15080.0,-197.0,-55.0,100.0,-56.0,-18.0,-130.0,-4691.0,-2003.0,2099.0,15428.0,-189.0,-164.0,93.0,1.0
2022-05-13 12:24:04.697590-07:00,2142.2,621.4,1797.4,1687.2,1346.7,2000.5,1873.2,2093.7,3445.5,3446.7,2302.5,1631.3,1944.0,3438.2,1528.3,1809.0,3435.8,3441.9,806.0,1294.5,1011.6,589.9,2031.4,2677.7,3449.1,3446.7,1232.8,1475.5,1555.3,1911.5,1662.5,1407.6,-14.0,-36.0,-97.0,-5122.0,-801.0,3765.0,15079.0,-114.0,-256.0,192.0,13.0,-1.0,-72.0,-4818.0,-1646.0,2107.0,15430.0,-134.0,-515.0,274.0,1.0
2022-05-13 12:24:04.739296-07:00,2145.3,615.7,1792.6,1684.3,1345.8,1995.5,1864.5,2088.6,3437.0,3443.1,2295.2,1634.1,1941.0,3435.8,1526.4,1811.9,3438.2,3444.3,805.2,1289.1,1008.2,590.7,2031.4,2675.5,3438.2,3441.9,1223.9,1467.2,1545.9,1903.6,1672.9,1404.9,83.0,-1.0,34.0,-5178.0,-636.0,3783.0,15063.0,74.0,-376.0,225.0,98.0,-8.0,59.0,-4904.0,-1420.0,2157.0,15418.0,126.0,-443.0,235.0,1.0
2022-05-13 12:24:04.832346-07:00,2145.3,615.7,1797.4,1686.2,1345.8,1995.5,1857.6,2105.8,3437.0,3443.1,2290.0,1624.7,1941.0,3435.8,1518.0,1802.3,3438.2,3438.2,805.2,1289.1,1003.0,589.9,2031.4,2675.5,3428.6,3438.2,1223.9,1467.2,1548.7,1909.5,1672.9,1404.9,81.0,107.0,133.0,-5191.0,-520.0,3900.0,15034.0,102.0,-182.0,48.0,35.0,69.0,81.0,-4924.0,-1312.0,2293.0,15402.0,148.0,-247.0,44.0,1.0
2022-05-13 12:24:04.875468-07:00,2156.5,618.9,1771.4,1686.2,1331.4,2006.4,1857.6,2105.8,3433.4,3444.3,2277.6,1624.7,1932.1,3440.7,1518.0,1802.3,3438.2,3438.2,799.4,1294.5,1003.0,588.3,2019.4,2650.4,3428.6,3438.2,1216.8,1470.9,1548.7,1902.6,1687.2,1396.7,-24.0,25.0,128.0,-5188.0,-508.0,3869.0,15043.0,-87.0,5.0,4.0,-29.0,16.0,124.0,-4916.0,-1243.0,2303.0,15408.0,-67.0,-105.0,2.0,1.0
2022-05-13 12:24:04.876762-07:00,2156.5,618.9,1771.4,1674.8,1331.4,2007.4,1848.9,2080.6,3433.4,3444.3,2277.6,1622.8,1932.1,3439.5,1517.1,1813.9,3454.0,3428.6,801.0,1294.5,1000.5,588.3,2019.4,2650.4,3446.7,3439.5,1216.8,1470.9,1562.7,1902.6,1687.2,1396.7,-23.0,46.0,59.0,-5187.0,-463.0,3853.0,15049.0,-98.0,-92.0,9.0,-31.0,47.0,56.0,-4911.0,-1207.0,2291.0,15415.0,-78.0,-69.0,-13.0,1.0
2022-05-13 12:24:04.920253-07:00,2145.3,625.4,1781.0,1674.8,1335.0,2007.4,1848.9,2080.6,3441.9,3439.5,2270.3,1622.8,1923.3,3439.5,1517.1,1813.9,3454.0,3428.6,801.0,1293.6,1000.5,589.1,2022.4,2685.3,3446.7,3439.5,1216.8,1470.9,1562.7,1897.7,1666.3,1401.2,-31.0,37.0,-49.0,-5212.0,-338.0,3789.0,15060.0,-323.0,-372.0,189.0,-16.0,31.0,3.0,-4906.0,-1138.0,2213.0,15433.0,-331.0,-134.0,-18.0,1.0
2022-05-13 12:24:05.011250-07:00,2145.3,625.4,1781.0,1686.2,1335.0,1996.5,1857.6,2097.7,3441.9,3439.5,2270.3,1619.9,1923.3,3449.1,1518.0,1807.1,3440.7,3446.7,804.4,1293.6,1003.0,589.1,2022.4,2685.3,3451.6,3438.2,1229.3,1470.9,1551.5,1897.7,1666.3,1401.2,14.0,40.0,87.0,-5184.0,-234.0,3767.0,15077.0,-89.0,-33.0,-158.0,13.0,23.0,74.0,-4877.0,-1091.0,2164.0,15452.0,-95.0,13.0,-104.0,1.0
2022-05-13 12:24:05.055492-07:00,2149.3,615.7,1766.6,1686.2,1349.4,1996.5,1857.6,2097.7,3449.1,3438.2,2275.5,1619.9,1936.1,3449.1,1518.0,1807.1,3440.7,3446.7,804.4,1286.4,1003.0,589.9,2017.4,2794.6,3451.6,3438.2,1229.3,1474.6,1551.5,1898.7,1688.1,1429.5,-27.0,-8.0,-14.0,-5143.0,-169.0,3771.0,15091.0,-72.0,-286.0,55.0,-16.0,31.0,-7.0,-4847.0,-1109.0,2110.0,15468.0,-144.0,71.0,-85.0,1.0
2022-05-13 12:24:05.099482-07:00,2149.3,615.7,1766.6,1670.1,1385.7,1978.6,1858.6,2153.4,3449.1,3438.2,2275.5,1622.8,1947.9,3444.3,1513.4,1808.1,3443.1,3433.4,808.5,1292.7,1003.0,589.9,2017.4,2794.6,3451.6,3439.5,1236.4,1474.6,1552.5,1898.7,1688.1,1429.5,-3.0,9.0,43.0,-5193.0,-12.0,3798.0,15068.0,-29.0,-309.0,221.0,5.0,-3.0,25.0,-4843.0,-1122.0,2040.0,15478.0,-141.0,81.0,3.0,1.0
2022-05-13 12:24:05.144395-07:00,2156.5,624.6,1818.7,1669.1,1385.7,1978.6,1858.6,2153.4,3445.5,3449.1,2279.6,1619.0,1947.9,3444.3,1513.4,1808.1,3443.1,3433.4,808.5,1292.7,1007.3,584.3,2003.5,3031.7,3451.6,3439.5,1236.4,1474.6,1549.7,1893.8,1669.1,1482.9,-3.0,14.0,17.0,-5235.0,166.0,3890.0,15029.0,176.0,-490.0,210.0,-11.0,12.0,24.0,-4847.0,-1160.0,2016.0,15477.0,52.0,97.0,-6.0,1.0
2022-05-13 12:24:05.324342-07:00,2156.5,624.6,1818.7,1669.1,1412.2,1996.5,1874.2,2446.2,3445.5,3449.1,2279.6,1619.0,2026.4,3447.9,1531.0,1786.8,3440.7,3439.5,805.2,1310.6,1007.3,584.3,2003.5,3031.7,3446.7,3446.7,1268.5,1511.5,1549.7,1893.8,1669.1,1482.9,18.0,21.0,53.0,-5252.0,323.0,4016.0,14987.0,136.0,-325.0,73.0,27.0,-1.0,27.0,-4842.0,-1205.0,2034.0,15472.0,59.0,93.0,-29.0,1.0
2022-05-13 12:24:05.370412-07:00,2140.2,618.1,1851.8,1655.8,1412.2,1996.5,1874.2,2446.2,3437.0,3445.5,2247.6,1606.8,2026.4,3447.9,1531.0,1786.8,3440.7,3439.5,805.2,1310.6,1014.2,589.1,1998.5,3299.1,3446.7,3446.7,1268.5,1511.5,1550.6,1881.1,1666.3,1498.6,26.0,-33.0,29.0,-5255.0,387.0,4101.0,14962.0,142.0,-106.0,72.0,41.0,-22.0,13.0,-4845.0,-1249.0,2039.0,15468.0,34.0,134.0,17.0,1.0
2022-05-13 12:24:05.372493-07:00,2140.2,618.1,1851.8,1655.8,1393.0,2097.7,1934.1,2765.7,3437.0,3445.5,2247.6,1606.8,2047.4,3444.3,1532.9,1768.5,3437.0,3445.5,797.7,1292.7,1014.2,589.1,1998.5,3299.1,3439.5,3440.7,1259.6,1596.4,1550.6,1881.1,1666.3,1498.6,85.0,-82.0,102.0,-5275.0,407.0,4179.0,14932.0,240.0,0.0,5.0,97.0,-93.0,31.0,-4873.0,-1324.0,2053.0,15451.0,228.0,271.0,66.0,1.0
2022-05-13 12:24:05.373580-07:00,2142.2,618.9,1816.8,1634.1,1393.0,2097.7,1934.1,2765.7,3440.7,3444.3,2218.8,1601.1,2047.4,3444.3,1532.9,1768.5,3437.0,3445.5,797.7,1292.7,1015.1,588.3,2031.4,3215.2,3439.5,3440.7,1259.6,1596.4,1539.4,1836.2,1588.9,1477.3,109.0,-126.0,94.0,-5232.0,183.0,4454.0,14873.0,1163.0,354.0,-347.0,142.0,-140.0,41.0,-4906.0,-1599.0,2303.0,15379.0,1100.0,579.0,96.0,1.0
2022-05-13 12:24:05.374655-07:00,2139.2,618.9,1816.8,1634.1,1363.0,2101.7,1911.5,2625.4,3439.5,3444.3,2218.8,1601.1,2030.4,3449.1,1478.3,1740.6,3438.2,3446.7,797.7,1283.7,1015.1,588.3,2031.4,3109.0,3444.3,3449.1,1418.6,1594.6,1539.4,1836.2,1588.9,1455.2,77.0,-251.0,-4.0,-5072.0,-241.0,4992.0,14756.0,1670.0,377.0,-575.0,124.0,-176.0,-49.0,-4964.0,-2065.0,2784.0,15224.0,1587.0,826.0,287.0,1.0
2022-05-13 12:24:05.460427-07:00,2139.2,618.9,1727.2,1624.7,1363.0,2101.7,1911.5,2341.0,3439.5,3443.1,2168.7,1587.1,2030.4,3449.1,1478.3,1730.1,3435.8,3446.7,797.7,1283.7,1013.3,589.1,2130.1,3109.0,3449.1,3449.1,1418.6,1594.6,1532.0,1811.0,1541.3,1455.2,27.0,-281.0,-59.0,-4973.0,-668.0,5577.0,14565.0,2609.0,760.0,-350.0,82.0,-189.0,-124.0,-5116.0,-2646.0,3499.0,14934.0,2263.0,913.0,652.0,1.0
2022-05-13 12:24:05.504199-07:00,2142.2,618.9,1727.2,1624.7,1335.9,2031.4,1806.1,2341.0,3441.9,3443.1,2168.7,1587.1,2015.4,3444.3,1418.6,1730.1,3435.8,3432.2,797.7,1296.3,1013.3,589.1,2130.1,3034.0,3449.1,3444.3,1497.7,1537.6,1532.0,1811.0,1541.3,1441.5,-38.0,-132.0,-181.0,-4869.0,-1447.0,6566.0,14125.0,3142.0,851.0,-610.0,12.0,-143.0,-164.0,-5316.0,-3220.0,4367.0,14517.0,2413.0,778.0,816.0,1.0
2022-05-13 12:24:05.594825-07:00,2142.2,644.0,1700.5,1607.7,1335.9,2031.4,1806.1,2129.0,3441.9,3435.8,2098.7,1578.6,2015.4,3444.3,1418.6,1713.8,3437.0,3432.2,797.7,1296.3,1007.3,589.1,2170.7,3034.0,3440.7,3444.3,1497.7,1537.6,1527.3,1787.8,1515.3,1441.5,-14.0,-144.0,-153.0,-4683.0,-2290.0,7561.0,13568.0,3076.0,1134.0,-444.0,-3.0,0.0,-201.0,-5501.0,-3719.0,5313.0,14004.0,2476.0,580.0,958.0,1.0
2022-05-13 12:24:05.641036-07:00,2152.4,644.0,1700.5,1607.7,1332.3,1943.0,1678.6,2129.0,3441.9,3435.8,2098.7,1578.6,1989.5,3443.1,1391.2,1713.8,3437.0,3439.5,810.2,1297.2,1007.3,589.1,2170.7,2979.1,3440.7,3445.5,1322.3,1484.7,1527.3,1787.8,1515.3,1421.3,-58.0,23.0,-178.0,-4635.0,-3102.0,8410.0,12907.0,2448.0,1062.0,2.0,-45.0,81.0,-141.0,-5697.0,-4066.0,6145.0,13479.0,1928.0,401.0,980.0,1.0
2022-05-13 12:24:05.642220-07:00,2152.4,660.3,1676.7,1601.1,1332.3,1943.0,1619.9,2020.4,3441.9,3444.3,2070.5,1573.9,1989.5,3443.1,1373.9,1708.1,3437.0,3440.7,810.2,1297.2,1004.8,588.3,2160.5,2979.1,3443.1,3437.0,1322.3,1484.7,1514.3,1772.3,1491.2,1421.3,-51.0,38.0,-145.0,-4693.0,-3683.0,9001.0,12322.0,1923.0,933.0,72.0,-59.0,57.0,-99.0,-5909.0,-4265.0,6757.0,13026.0,1476.0,274.0,894.0,1.0
2022-05-13 12:24:05.684207-07:00,2129.0,648.1,1676.7,1601.1,1316.9,1902.6,1619.9,2020.4,3433.4,3443.1,2070.5,1573.9,1982.6,3449.1,1373.9,1708.1,3437.0,3440.7,800.2,1299.0,1004.8,588.3,2137.2,2942.7,3443.1,3437.0,1250.6,1456.2,1514.3,1772.3,1492.1,1403.0,-62.0,81.0,-89.0,-4700.0,-4177.0,9573.0,11715.0,2070.0,663.0,125.0,-48.0,60.0,-55.0,-6040.0,-4440.0,7361.0,12572.0,1648.0,190.0,748.0,1.0
2022-05-13 12:24:05.729528-07:00,2129.0,648.1,1670.1,1594.6,1316.9,1902.6,1597.4,1979.6,3433.4,3443.1,2055.4,1569.3,1982.6,3449.1,1365.7,1707.2,3432.2,3434.6,800.2,1299.0,999.6,582.6,2137.2,2942.7,3444.3,3446.7,1250.6,1456.2,1515.3,1759.8,1492.1,1403.0,-63.0,77.0,-53.0,-4734.0,-4568.0,10016.0,11173.0,1277.0,815.0,139.0,-83.0,92.0,-51.0,-6147.0,-4579.0,7854.0,12165.0,1110.0,191.0,679.0,1.0
2022-05-13 12:24:05.821266-07:00,2133.1,648.9,1670.1,1594.6,1316.0,1866.4,1597.4,1979.6,3438.2,3441.9,2055.4,1569.3,1966.7,3449.1,1365.7,1707.2,3432.2,3434.6,800.2,1299.8,999.6,582.6,2106.8,2917.8,3444.3,3446.7,1217.7,1441.5,1515.3,1759.8,1480.1,1400.3,-62.0,44.0,-58.0,-4831.0,-4929.0,10280.0,10729.0,1115.0,812.0,67.0,-74.0,55.0,-51.0,-6252.0,-4669.0,8226.0,11827.0,949.0,141.0,569.0,1.0
2022-05-13 12:24:05.823062-07:00,2133.1,648.9,1657.7,1588.9,1316.0,1866.4,1583.3,1959.8,3438.2,3441.9,2038.4,1574.9,1966.7,3449.1,1347.6,1702.4,3439.5,3437.0,800.2,1299.8,997.9,590.7,2106.8,2917.8,3446.7,3445.5,1217.7,1441.5,1513.4,1752.1,1480.1,1400.3,-27.0,7.0,1.0,-4925.0,-5232.0,10463.0,10361.0,730.0,572.0,173.0,-36.0,31.0,25.0,-6347.0,-4708.0,8505.0,11561.0,605.0,110.0,509.0,1.0
2022-05-13 12:24:05.909392-07:00,2115.9,644.9,1653.0,1588.9,1312.4,1832.3,1583.3,1959.8,3440.7,3444.3,2042.4,1574.9,1960.8,3441.9,1347.6,1702.4,3439.5,3437.0,796.0,1299.0,997.9,587.5,2095.7,2895.3,3446.7,3445.5,1200.0,1430.5,1513.4,1757.0,1476.4,1386.6,-61.0,96.0,-28.0,-5049.0,-5390.0,10608.0,10068.0,723.0,461.0,397.0,-31.0,98.0,45.0,-6487.0,-4713.0,8694.0,11338.0,498.0,187.0,529.0,1.0
2022-05-13 12:24:05.954295-07:00,2115.9,644.9,1653.0,1589.9,1312.4,1813.9,1567.4,1938.0,3440.7,3444.3,2042.4,1559.9,1960.8,3443.1,1341.3,1697.6,3440.7,3439.5,800.2,1299.0,1001.3,587.5,2095.7,2895.3,3451.6,3439.5,1192.0,1430.5,1511.5,1757.0,1476.4,1386.6,-157.0,466.0,-212.0,-5280.0,-5283.0,10730.0,9875.0,-850.0,-383.0,522.0,-132.0,-160.0,-60.0,-6633.0,-4612.0,8660.0,11321.0,-728.0,-110.0,161.0,1.0
2022-05-13 12:24:06.090620-07:00,2118.9,642.4,1645.4,1589.9,1315.1,1813.9,1567.4,1938.0,3431.0,3440.7,2032.4,1559.9,1955.8,3443.1,1341.3,1697.6,3440.7,3439.5,800.2,1301.6,1001.3,584.3,2127.0,2857.1,3451.6,3439.5,1192.0,1429.5,1511.5,1747.3,1480.1,1375.7,25.0,-108.0,-14.0,-5171.0,-5243.0,10690.0,9996.0,628.0,-8.0,-392.0,0.0,82.0,-39.0,-6526.0,-4701.0,8736.0,11289.0,738.0,-84.0,-265.0,1.0
2022-05-13 12:24:06.092514-07:00,2118.9,642.4,1645.4,1587.1,1315.1,1786.8,1556.2,1923.3,3431.0,3440.7,2032.4,1567.4,1955.8,3443.1,1337.7,1691.0,3434.6,3439.5,797.7,1301.6,997.9,584.3,2127.0,2857.1,3446.7,3439.5,1169.1,1429.5,1504.1,1747.3,1480.1,1375.7,-8.0,0.0,-2.0,-5074.0,-5332.0,10813.0,9866.0,2.0,-26.0,46.0,-12.0,-2.0,-24.0,-6456.0,-4766.0,8831.0,11228.0,29.0,-19.0,-46.0,1.0
2022-05-13 12:24:06.093327-07:00,2114.9,642.4,1634.1,1587.1,1314.2,1786.8,1556.2,1923.3,3445.5,3454.0,2027.4,1567.4,1942.0,3443.1,1337.7,1691.0,3434.6,3439.5,797.7,1302.5,997.9,585.1,2079.5,2833.6,3446.7,3439.5,1169.1,1401.2,1504.1,1747.3,1465.4,1383.0,-11.0,-70.0,20.0,-5091.0,-5265.0,10775.0,9934.0,-277.0,-130.0,135.0,-15.0,-34.0,3.0,-6468.0,-4705.0,8773.0,11291.0,-274.0,-94.0,34.0,1.0
2022-05-13 12:24:06.134365-07:00,2114.9,642.4,1634.1,1579.6,1314.2,1758.9,1556.2,1911.5,3445.5,3454.0,2027.4,1560.9,1942.0,3446.7,1329.6,1691.0,3434.6,3433.4,793.5,1302.5,986.7,585.1,2079.5,2833.6,3443.1,3435.8,1162.1,1401.2,1506.9,1747.3,1465.4,1383.0,-6.0,55.0,23.0,-5123.0,-5159.0,10781.0,9967.0,-59.0,-80.0,151.0,-26.0,16.0,-1.0,-6489.0,-4643.0,8749.0,11324.0,-89.0,-52.0,56.0,1.0
2022-05-13 12:24:06.315722-07:00,2118.9,636.7,1638.8,1582.4,1299.0,1758.9,1556.2,1911.5,3449.1,3438.2,2015.4,1564.6,1938.0,3446.7,1329.6,1691.0,3434.6,3433.4,793.5,1295.4,991.0,582.6,2071.5,2831.3,3443.1,3435.8,1162.1,1385.7,1507.8,1741.6,1459.8,1370.3,10.0,34.0,20.0,-5138.0,-5141.0,10763.0,9988.0,-79.0,67.0,-122.0,0.0,18.0,13.0,-6491.0,-4615.0,8730.0,11348.0,-71.0,-24.0,-34.0,1.0
2022-05-13 12:24:06.318989-07:00,2118.9,636.7,1638.8,1582.4,1299.8,1750.2,1547.8,1906.6,3449.1,3438.2,2015.4,1564.6,1938.0,3439.5,1331.4,1688.1,3437.0,3446.7,796.0,1301.6,991.0,582.6,2071.5,2831.3,3445.5,3454.0,1141.9,1385.7,1507.8,1741.6,1459.8,1370.3,-10.0,4.0,3.0,-5124.0,-5178.0,10742.0,9999.0,43.0,9.0,-60.0,-8.0,0.0,0.0,-6474.0,-4620.0,8723.0,11362.0,24.0,-18.0,-51.0,1.0
2022-05-13 12:24:06.360584-07:00,2110.8,632.7,1657.7,1582.4,1299.8,1750.2,1547.8,1906.6,3440.7,3445.5,2006.4,1559.0,1938.0,3439.5,1331.4,1688.1,3437.0,3446.7,796.0,1301.6,985.0,586.7,2054.4,2815.7,3445.5,3454.0,1141.9,1385.7,1497.7,1741.6,1451.6,1363.0,-24.0,-28.0,16.0,-5107.0,-5183.0,10732.0,10016.0,-94.0,-39.0,-46.0,-33.0,-1.0,-9.0,-6461.0,-4620.0,8705.0,11382.0,-75.0,-9.0,-42.0,1.0
2022-05-13 12:24:06.361895-07:00,2110.8,632.7,1657.7,1582.4,1301.6,1743.5,1539.4,1886.0,3440.7,3445.5,2006.4,1559.0,1920.3,3439.5,1324.1,1690.0,3433.4,3445.5,798.5,1297.2,985.0,586.7,2054.4,2815.7,3446.7,3438.2,1146.3,1373.0,1497.7,1741.6,1451.6,1363.0,-30.0,-29.0,19.0,-5107.0,-5173.0,10726.0,10027.0,25.0,-21.0,54.0,-32.0,-4.0,7.0,-6452.0,-4628.0,8690.0,11396.0,7.0,-4.0,21.0,1.0
2022-05-13 12:24:06.406316-07:00,2108.8,630.3,1628.4,1580.5,1301.6,1743.5,1539.4,1886.0,3439.5,3444.3,2008.4,1557.1,1920.3,3439.5,1324.1,1690.0,3433.4,3445.5,798.5,1297.2,986.7,587.5,2065.5,2796.8,3446.7,3438.2,1146.3,1373.0,1499.5,1733.0,1449.7,1363.9,-12.0,4.0,16.0,-5127.0,-5122.0,10738.0,10030.0,-74.0,-63.0,146.0,-17.0,0.0,0.0,-6468.0,-4612.0,8678.0,11402.0,-84.0,-12.0,56.0,1.0
2022-05-13 12:24:06.449350-07:00,2103.7,630.3,1628.4,1580.5,1295.4,1734.9,1540.3,1888.9,3434.6,3444.3,2008.4,1557.1,1925.2,3443.1,1331.4,1692.9,3439.5,3435.8,798.5,1303.4,986.7,587.5,2065.5,2796.8,3443.1,3433.4,1141.9,1364.8,1499.5,1733.0,1449.7,1360.3,-6.0,24.0,21.0,-5147.0,-5067.0,10744.0,10042.0,-45.0,-32.0,72.0,-15.0,7.0,-6.0,-6482.0,-4592.0,8666.0,11412.0,-43.0,-13.0,24.0,1.0
2022-05-13 12:24:06.494312-07:00,2103.7,633.5,1620.9,1583.3,1295.4,1734.9,1540.3,1876.2,3434.6,3449.1,2002.5,1556.2,1925.2,3443.1,1331.4,1684.3,3432.2,3435.8,798.5,1303.4,979.9,585.9,2040.4,2796.8,3439.5,3433.4,1141.9,1364.8,1498.6,1732.0,1450.6,1360.3,-3.0,0.0,19.0,-5149.0,-5065.0,10743.0,10042.0,47.0,7.0,-10.0,-14.0,4.0,-2.0,-6477.0,-4597.0,8666.0,11412.0,25.0,-3.0,-19.0,1.0
2022-05-13 12:24:06.539749-07:00,2105.8,633.5,1620.9,1583.3,1298.1,1728.2,1540.3,1876.2,3439.5,3449.1,2002.5,1556.2,1920.3,3444.3,1326.8,1684.3,3432.2,3440.7,792.7,1294.5,979.9,585.9,2040.4,2792.3,3439.5,3440.7,1132.2,1352.1,1498.6,1732.0,1450.6,1358.5,-21.0,0.0,1.0,-5146.0,-5082.0,10755.0,10022.0,69.0,4.0,-2.0,-19.0,-7.0,2.0,-6469.0,-4607.0,8675.0,11406.0,30.0,4.0,2.0,1.0
2022-05-13 12:24:06.630548-07:00,2105.8,635.1,1636.9,1582.4,1298.1,1728.2,1540.3,1876.2,3439.5,3438.2,2006.4,1551.5,1920.3,3444.3,1326.8,1685.3,3438.2,3440.7,792.7,1294.5,981.6,585.9,2036.4,2792.3,3449.1,3440.7,1132.2,1352.1,1494.0,1727.2,1448.8,1358.5,-9.0,10.0,2.0,-5122.0,-5084.0,10777.0,10011.0,46.0,-17.0,-17.0,-21.0,13.0,-4.0,-6458.0,-4620.0,8683.0,11401.0,21.0,-1.0,-17.0,1.0
2022-05-13 12:24:06.633694-07:00,2104.8,635.1,1636.9,1582.4,1286.4,1722.4,1542.2,1876.2,3444.3,3438.2,2006.4,1551.5,1915.4,3440.7,1325.9,1685.3,3438.2,3433.4,795.2,1295.4,981.6,585.9,2036.4,2779.0,3449.1,3441.9,1123.5,1362.1,1494.0,1727.2,1448.8,1356.7,-13.0,-5.0,13.0,-5113.0,-5093.0,10773.0,10015.0,2.0,-8.0,-28.0,-18.0,5.0,-3.0,-6451.0,-4628.0,8681.0,11404.0,-6.0,0.0,-5.0,1.0
2022-05-13 12:24:06.809812-07:00,2104.8,623.8,1615.2,1583.3,1286.4,1722.4,1536.6,1862.5,3444.3,3439.5,2000.5,1549.7,1915.4,3440.7,1323.2,1685.3,3433.4,3438.2,795.2,1295.4,984.2,581.8,2030.4,2779.0,3447.9,3449.1,1123.5,1362.1,1494.0,1731.1,1441.5,1356.7,-9.0,-4.0,15.0,-5105.0,-5092.0,10776.0,10017.0,42.0,-27.0,25.0,-14.0,0.0,0.0,-6448.0,-4632.0,8683.0,11402.0,25.0,3.0,12.0,1.0
2022-05-13 12:24:07.034542-07:00,2103.7,637.6,1615.2,1583.3,1293.6,1719.6,1536.6,1862.5,3440.7,3445.5,2000.5,1549.7,1915.4,3445.5,1323.2,1685.3,3433.4,3438.2,798.5,1299.8,984.2,581.8,2029.4,2761.3,3447.9,3449.1,1126.1,1364.8,1494.0,1731.1,1445.1,1354.0,-11.0,14.0,12.0,-5105.0,-5081.0,10784.0,10013.0,-19.0,-8.0,11.0,-14.0,5.0,-4.0,-6449.0,-4632.0,8682.0,11402.0,-20.0,1.0,-3.0,1.0
2022-05-13 12:24:07.304759-07:00,2103.7,637.6,1618.1,1574.9,1293.6,1719.6,1537.6,1872.3,3440.7,3445.5,1999.5,1564.6,1915.4,3445.5,1320.5,1679.5,3438.2,3437.0,798.5,1299.8,980.7,585.9,2029.4,2761.3,3433.4,3444.3,1126.1,1364.8,1493.0,1724.4,1445.1,1354.0,-10.0,0.0,8.0,-5103.0,-5083.0,10784.0,10014.0,37.0,-11.0,-9.0,-15.0,4.0,-3.0,-6445.0,-4636.0,8681.0,11404.0,14.0,-8.0,-11.0,1.0
2022-05-13 12:24:07.483834-07:00,2103.7,627.0,1618.1,1574.9,1297.2,1713.8,1537.6,1872.3,3439.5,3439.5,1999.5,1564.6,1912.4,3432.2,1320.5,1679.5,3438.2,3437.0,795.2,1297.2,980.7,585.9,2022.4,2765.7,3433.4,3444.3,1120.9,1352.1,1493.0,1724.4,1435.0,1354.0,-14.0,-6.0,0.0,-5102.0,-5082.0,10787.0,10011.0,-30.0,10.0,16.0,-12.0,0.0,-11.0,-6436.0,-4636.0,8679.0,11410.0,-40.0,-25.0,-9.0,1.0
2022-05-13 12:24:07.485985-07:00,2103.7,627.0,1614.3,1573.9,1297.2,1713.8,1532.9,1870.3,3439.5,3439.5,1992.5,1563.7,1912.4,3432.2,1315.1,1677.6,3428.6,3438.2,795.2,1297.2,985.0,583.5,2022.4,2765.7,3437.0,3441.9,1120.9,1352.1,1492.1,1730.1,1435.0,1354.0,-8.0,6.0,7.0,-5096.0,-5071.0,10794.0,10013.0,50.0,-55.0,23.0,-12.0,6.0,-7.0,-6431.0,-4631.0,8679.0,11415.0,0.0,-28.0,-6.0,1.0
2022-05-13 12:24:07.487122-07:00,2098.7,633.5,1614.3,1573.9,1288.2,1711.0,1532.9,1870.3,3444.3,3446.7,1992.5,1563.7,1909.5,3441.9,1315.1,1677.6,3428.6,3438.2,795.2,1293.6,985.0,583.5,2023.4,2739.2,3437.0,3441.9,1113.0,1361.2,1492.1,1730.1,1436.0,1349.4,-12.0,3.0,22.0,-5086.0,-5058.0,10804.0,10013.0,-17.0,-28.0,-4.0,-15.0,0.0,0.0,-6425.0,-4626.0,8681.0,11419.0,-27.0,-12.0,-7.0,1.0
2022-05-13 12:24:07.491096-07:00,2098.7,633.5,1609.6,1574.9,1288.2,1702.4,1520.8,1880.1,3444.3,3446.7,2003.5,1559.0,1909.5,3441.9,1314.2,1677.6,3435.8,3428.6,798.5,1293.6,984.2,581.8,2023.4,2739.2,3451.6,3454.0,1112.1,1361.2,1492.1,1722.4,1436.0,1349.4,-8.0,1.0,6.0,-5082.0,-5051.0,10796.0,10027.0,-16.0,7.0,17.0,-11.0,0.0,-1.0,-6424.0,-4631.0,8672.0,11424.0,1.0,10.0,5.0,1.0
2022-05-13 12:24:07.530972-07:00,2094.7,635.9,1606.8,1570.2,1292.7,1702.4,1514.3,1844.0,3443.1,3446.7,1982.6,1551.5,1911.5,3450.4,1313.3,1680.5,3438.2,3441.9,796.9,1294.5,983.3,589.9,2014.4,2748.0,3443.1,3445.5,1104.3,1348.5,1492.1,1718.6,1434.1,1340.4,-10.0,8.0,5.0,-5063.0,-5070.0,10807.0,10016.0,47.0,3.0,-40.0,-15.0,5.0,-2.0,-6412.0,-4648.0,8682.0,11417.0,27.0,7.0,-10.0,1.0
2022-05-13 12:24:07.532155-07:00,2097.7,624.6,1612.4,1570.2,1279.2,1693.8,1510.6,1836.2,3446.7,3444.3,1980.6,1554.3,1900.7,3439.5,1305.2,1676.7,3444.3,3444.3,789.4,1289.1,981.6,581.8,2007.4,2726.0,3444.3,3443.1,1103.4,1354.0,1488.4,1714.8,1431.4,1336.8,-99.0,385.0,-220.0,-4840.0,-5505.0,10495.0,10225.0,-619.0,-75.0,-653.0,-146.0,401.0,-42.0,-6007.0,-4625.0,8418.0,11837.0,-746.0,-460.0,-1042.0,1.0
2022-05-13 12:24:07.574517-07:00,2110.8,624.6,1610.5,1572.1,1273.9,1699.5,1567.4,1894.8,3451.6,3443.1,1990.5,1556.2,1896.7,3444.3,1307.0,1680.5,3444.3,3438.2,790.2,1295.4,983.3,589.9,2018.4,2702.9,3446.7,3449.1,1147.1,1350.3,1500.4,1711.0,1428.6,1332.3,-160.0,183.0,-213.0,-4823.0,-5425.0,10059.0,10703.0,-1899.0,-573.0,-545.0,-108.0,203.0,13.0,-5688.0,-4557.0,7984.0,12312.0,-1799.0,-391.0,-1135.0,1.0
2022-05-13 12:24:07.620357-07:00,2110.8,633.5,1600.2,1574.9,1273.9,1699.5,1567.4,1945.0,3451.6,3444.3,1986.6,1547.8,1896.7,3444.3,1307.0,1669.1,3449.1,3438.2,790.2,1295.4,982.5,589.1,2025.4,2702.9,3438.2,3449.1,1147.1,1350.3,1491.2,1714.8,1434.1,1332.3,-22.0,65.0,-302.0,-4726.0,-4841.0,9404.0,11586.0,-3161.0,-1625.0,-241.0,-26.0,153.0,-83.0,-5481.0,-4346.0,7195.0,12952.0,-2690.0,-407.0,-1194.0,1.0
2022-05-13 12:24:07.712534-07:00,2111.8,633.5,1600.2,1574.9,1282.8,1742.6,1604.9,1945.0,3446.7,3444.3,1986.6,1547.8,1883.0,3444.3,1310.6,1669.1,3449.1,3437.0,794.4,1296.3,982.5,589.1,2025.4,2713.9,3438.2,3449.1,1144.5,1363.9,1491.2,1714.8,1434.1,1327.8,128.0,-233.0,-278.0,-4645.0,-3513.0,8415.0,12795.0,-4683.0,-2861.0,381.0,42.0,61.0,-253.0,-5295.0,-3958.0,6082.0,13702.0,-3542.0,-654.0,-1192.0,1.0
2022-05-13 12:24:07.754523-07:00,2111.8,635.9,1595.5,1570.2,1282.8,1742.6,1604.9,1983.6,3446.7,3449.1,1985.6,1551.5,1883.0,3444.3,1310.6,1675.7,3439.5,3437.0,794.4,1296.3,994.5,585.9,1989.5,2713.9,3438.2,3449.1,1144.5,1363.9,1487.5,1711.0,1425.0,1327.8,134.0,-427.0,-133.0,-4753.0,-1723.0,7104.0,13871.0,-4678.0,-2572.0,1210.0,122.0,-254.0,-339.0,-5098.0,-3366.0,4770.0,14435.0,-3309.0,-885.0,-913.0,1.0
2022-05-13 12:24:07.844396-07:00,2177.9,626.2,1595.5,1570.2,1280.1,1917.4,1598.3,1983.6,3437.0,3447.9,1985.6,1551.5,1899.7,3437.0,1318.7,1675.7,3439.5,3437.0,790.2,1296.3,994.5,585.9,2019.4,2738.1,3438.2,3449.1,1229.3,1367.6,1487.5,1711.0,1414.9,1339.5,92.0,-386.0,-51.0,-4936.0,-430.0,5976.0,14428.0,-3054.0,-1241.0,875.0,160.0,-277.0,-188.0,-4928.0,-2766.0,3724.0,14921.0,-2113.0,-717.0,-554.0,1.0
2022-05-13 12:24:07.891144-07:00,2177.9,626.2,1595.5,1573.9,1280.1,1917.4,1644.5,1974.6,3437.0,3447.9,1972.7,1551.5,1899.7,3437.0,1302.5,1679.5,3438.2,3446.7,790.2,1296.3,1056.5,595.5,2019.4,2738.1,3441.9,3454.0,1229.3,1367.6,1491.2,1711.0,1414.9,1339.5,73.0,-287.0,-44.0,-5143.0,383.0,5312.0,14616.0,-1492.0,-886.0,948.0,164.0,-289.0,-165.0,-4836.0,-2309.0,3099.0,15169.0,-1193.0,-648.0,-148.0,1.0
2022-05-13 12:24:07.892321-07:00,2208.6,626.2,1595.5,1573.9,1265.8,2053.4,1644.5,1974.6,3441.9,3443.1,1972.7,1551.5,1895.8,3443.1,1302.5,1679.5,3438.2,3446.7,800.2,1294.5,1056.5,595.5,2002.5,2724.9,3441.9,3454.0,1457.1,1478.3,1491.2,1711.0,1422.2,1350.3,56.0,-204.0,-33.0,-5307.0,779.0,4938.0,14672.0,-824.0,-169.0,505.0,117.0,-107.0,-54.0,-4803.0,-1950.0,2814.0,15286.0,-724.0,-598.0,-24.0,1.0
2022-05-13 12:24:07.934029-07:00,2208.6,626.2,1583.3,1574.9,1265.8,2053.4,1659.6,1967.7,3441.9,3443.1,1949.9,1550.6,1895.8,3443.1,1264.9,1688.1,3449.1,3433.4,800.2,1294.5,1086.8,605.2,2002.5,2724.9,3441.9,3447.9,1457.1,1478.3,1491.2,1714.8,1422.2,1350.3,64.0,-110.0,11.0,-5473.0,1018.0,4681.0,14681.0,-662.0,-178.0,461.0,123.0,-124.0,-17.0,-4821.0,-1621.0,2594.0,15357.0,-660.0,-510.0,121.0,1.0
2022-05-13 12:24:07.979003-07:00,2183.0,627.0,1583.3,1574.9,1273.9,2013.4,1659.6,1967.7,3446.7,3439.5,1949.9,1550.6,1888.9,3449.1,1264.9,1688.1,3449.1,3433.4,794.4,1296.3,1086.8,605.2,1974.6,2710.6,3441.9,3447.9,1445.1,1494.0,1491.2,1714.8,1416.7,1354.9,180.0,140.0,249.0,-5518.0,941.0,4696.0,14664.0,547.0,716.0,-390.0,105.0,22.0,188.0,-4852.0,-1416.0,2536.0,15377.0,346.0,-60.0,22.0,1.0
2022-05-13 12:24:08.025735-07:00,2183.0,627.0,1671.9,1575.8,1273.9,1989.5,1790.7,2250.7,3446.7,3439.5,1929.2,1547.8,1888.9,3444.3,1276.5,1675.7,3435.8,3438.2,800.2,1296.3,1085.1,603.6,1974.6,2710.6,3443.1,3445.5,1389.4,1494.0,1485.6,1704.3,1416.7,1354.9,6.0,-11.0,42.0,-5488.0,775.0,4603.0,14715.0,-177.0,234.0,-51.0,-9.0,-35.0,49.0,-4836.0,-1457.0,2593.0,15369.0,-100.0,21.0,14.0,1.0
2022-05-13 12:24:08.068418-07:00,2188.1,633.5,1927.2,1575.8,1282.8,1989.5,1790.7,2250.7,3435.8,3443.1,1952.9,1547.8,1899.7,3444.3,1276.5,1675.7,3435.8,3438.2,800.2,1290.9,1085.1,599.6,2091.6,2684.3,3443.1,3445.5,1389.4,1522.7,1485.6,1842.0,1568.3,1393.9,-56.0,-35.0,-68.0,-5486.0,623.0,4404.0,14784.0,-405.0,518.0,-176.0,-33.0,-27.0,-39.0,-4815.0,-1430.0,2556.0,15384.0,-188.0,-178.0,-80.0,1.0
2022-05-13 12:24:08.161394-07:00,2188.1,633.5,1927.2,1669.1,1282.8,2037.4,1982.6,2665.7,3435.8,3443.1,1952.9,1552.5,1899.7,3447.9,1509.7,1769.5,3438.2,3433.4,798.5,1290.9,1079.0,599.6,2091.6,2684.3,3454.0,3433.4,1331.4,1522.7,1485.6,1842.0,1568.3,1393.9,-19.0,30.0,29.0,-5513.0,415.0,4230.0,14832.0,-117.0,553.0,-22.0,-19.0,18.0,60.0,-4787.0,-1328.0,2544.0,15404.0,78.0,-243.0,14.0,1.0
2022-05-13 12:24:08.163545-07:00,2160.5,630.3,1927.2,1669.1,1404.9,2037.4,1982.6,2665.7,3451.6,3441.9,2172.8,1552.5,2043.4,3447.9,1509.7,1769.5,3438.2,3433.4,798.5,1297.2,1079.0,598.7,2110.8,2820.2,3454.0,3433.4,1331.4,1543.1,1485.6,1914.4,1674.8,1539.4,-28.0,45.0,-31.0,-5500.0,237.0,4135.0,14867.0,-160.0,488.0,-225.0,-26.0,58.0,0.0,-4771.0,-1267.0,2622.0,15401.0,39.0,-155.0,-13.0,1.0
2022-05-13 12:24:08.252202-07:00,2160.5,630.3,1927.2,1726.3,1404.9,2099.7,1987.5,2382.9,3451.6,3441.9,2172.8,1637.9,2043.4,3439.5,1601.1,1860.6,3449.1,3431.0,798.5,1297.2,1070.3,598.7,2110.8,2820.2,3447.9,3450.4,1319.6,1543.1,1518.0,1914.4,1674.8,1539.4,-28.0,-60.0,22.0,-5444.0,39.0,4004.0,14925.0,-86.0,437.0,-256.0,-7.0,-31.0,21.0,-4768.0,-1207.0,2624.0,15407.0,-73.0,-91.0,54.0,1.0
2022-05-13 12:24:08.340776-07:00,2144.3,625.4,1911.5,1726.3,1447.9,2099.7,1987.5,2382.9,3444.3,3440.7,2537.9,1637.9,2205.5,3439.5,1601.1,1860.6,3449.1,3431.0,798.5,1299.8,1070.3,596.3,2144.3,3007.7,3447.9,3450.4,1319.6,1537.6,1518.0,1942.0,1683.3,1564.6,-43.0,-42.0,35.0,-5392.0,-139.0,3959.0,14956.0,222.0,293.0,-262.0,-21.0,-69.0,19.0,-4804.0,-1175.0,2624.0,15398.0,124.0,-3.0,148.0,1.0
2022-05-13 12:24:08.342046-07:00,2144.3,625.4,1911.5,1729.1,1505.1,2107.8,1989.5,2243.5,3444.3,3440.7,2537.9,1783.9,2213.7,3449.1,1644.5,1931.1,3444.3,3443.1,796.0,1296.3,1052.2,596.3,2144.3,3007.7,3449.1,3454.0,1297.2,1521.8,1544.1,1942.0,1683.3,1564.6,-12.0,-14.0,35.0,-5314.0,-304.0,4031.0,14962.0,388.0,255.0,-310.0,6.0,-40.0,16.0,-4868.0,-1185.0,2700.0,15364.0,237.0,-8.0,202.0,1.0
2022-05-13 12:24:08.488234-07:00,2143.3,632.7,1891.8,1725.3,1505.1,2107.8,1989.5,2243.5,3443.1,3444.3,2699.6,1845.9,2213.7,3449.1,1644.5,1931.1,3444.3,3443.1,796.0,1296.3,1049.6,594.7,2141.2,3070.8,3449.1,3454.0,1297.2,1521.8,1540.3,1938.0,1705.3,1609.6,9.0,14.0,64.0,-5215.0,-479.0,4146.0,14961.0,446.0,81.0,-198.0,36.0,9.0,69.0,-4929.0,-1198.0,2811.0,15323.0,233.0,11.0,116.0,1.0
2022-05-13 12:24:08.489818-07:00,2143.3,632.7,1891.8,1725.3,1491.2,2064.5,1979.6,2177.9,3443.1,3444.3,2699.6,1845.9,2162.6,3449.1,1646.4,1962.8,3441.9,3438.2,794.4,1296.3,1049.6,594.7,2141.2,3070.8,3449.1,3438.2,1287.3,1503.2,1540.3,1938.0,1705.3,1609.6,38.0,161.0,84.0,-5160.0,-566.0,4329.0,14925.0,215.0,-59.0,-29.0,25.0,128.0,90.0,-4946.0,-1257.0,2932.0,15290.0,242.0,121.0,-48.0,1.0
2022-05-13 12:24:08.494250-07:00,2141.2,627.8,1860.6,1710.0,1491.2,2064.5,1979.6,2177.9,3438.2,3446.7,2635.1,1821.6,2162.6,3449.1,1646.4,1962.8,3441.9,3438.2,794.4,1296.3,1042.6,595.5,2100.7,2941.6,3449.1,3438.2,1287.3,1503.2,1538.5,1924.3,1679.5,1582.4,17.0,94.0,193.0,-5127.0,-596.0,4317.0,14939.0,-24.0,287.0,-165.0,-14.0,51.0,133.0,-4928.0,-1347.0,2893.0,15296.0,-114.0,384.0,-148.0,1.0
2022-05-13 12:24:08.656232-07:00,2141.2,627.8,1860.6,1710.0,1467.2,2051.4,1950.9,2116.9,3438.2,3446.7,2635.1,1821.6,2109.8,3441.9,1612.4,1934.1,3444.3,3443.1,791.0,1290.0,1042.6,595.5,2100.7,2941.6,3443.1,3443.1,1273.9,1496.7,1538.5,1924.3,1679.5,1582.4,-46.0,131.0,78.0,-5110.0,-731.0,4291.0,14946.0,-33.0,198.0,-75.0,-56.0,82.0,110.0,-4890.0,-1548.0,2815.0,15304.0,-25.0,543.0,-228.0,1.0
2022-05-13 12:24:08.746501-07:00,2135.1,634.3,1845.0,1704.3,1467.2,2051.4,1950.9,2104.8,3449.1,3440.7,2589.6,1816.8,2109.8,3441.9,1612.4,1936.1,3437.0,3443.1,791.0,1290.0,1033.2,588.3,2083.6,2867.2,3447.9,3443.1,1273.9,1496.7,1533.8,1904.6,1660.6,1551.5,-4.0,79.0,52.0,-5075.0,-862.0,4211.0,14973.0,-71.0,543.0,-344.0,-34.0,24.0,0.0,-4825.0,-1777.0,2696.0,15321.0,-114.0,543.0,-324.0,1.0
2022-05-13 12:24:08.747726-07:00,2131.1,634.3,1845.0,1704.3,1457.1,2035.4,1936.1,2104.8,3449.1,3440.7,2589.6,1816.8,2095.7,3434.6,1604.9,1936.1,3437.0,3446.7,794.4,1284.6,1033.2,588.3,2083.6,2836.9,3447.9,3441.9,1267.6,1482.9,1533.8,1904.6,1660.6,1533.8,-19.0,12.0,-38.0,-4999.0,-1078.0,4118.0,15011.0,-108.0,344.0,-282.0,-15.0,7.0,-26.0,-4737.0,-2007.0,2564.0,15342.0,-147.0,523.0,-299.0,1.0
2022-05-13 12:24:08.748862-07:00,2131.1,623.8,1827.5,1686.2,1457.1,2035.4,1936.1,2107.8,3449.1,3447.9,2571.3,1796.5,2095.7,3434.6,1604.9,1911.5,3440.7,3446.7,794.4,1284.6,1026.3,591.5,2075.5,2836.9,3445.5,3441.9,1267.6,1482.9,1528.3,1886.0,1653.0,1533.8,-40.0,-47.0,-123.0,-4923.0,-1257.0,4016.0,15050.0,-119.0,394.0,-257.0,-26.0,-11.0,-88.0,-4661.0,-2210.0,2429.0,15360.0,-160.0,411.0,-252.0,1.0
2022-05-13 12:24:08.750009-07:00,2118.9,623.8,1827.5,1686.2,1439.6,2029.4,1918.3,2107.8,3435.8,3447.9,2571.3,1796.5,2092.6,3439.5,1585.2,1911.5,3440.7,3435.8,798.5,1289.1,1026.3,591.5,2075.5,2812.4,3445.5,3440.7,1265.8,1481.0,1528.3,1886.0,1653.0,1524.5,-43.0,-67.0,-175.0,-4894.0,-1331.0,3907.0,15081.0,-253.0,31.0,-72.0,-11.0,-58.0,-151.0,-4607.0,-2322.0,2295.0,15380.0,-231.0,150.0,-151.0,1.0
2022-05-13 12:24:08.790821-07:00,2118.9,627.0,1829.4,1688.1,1439.6,2029.4,1918.3,2110.8,3435.8,3438.2,2545.4,1782.0,2092.6,3439.5,1585.2,1900.7,3451.6,3435.8,798.5,1289.1,1034.0,590.7,2071.5,2812.4,3446.7,3440.7,1265.8,1481.0,1521.8,1881.1,1650.2,1524.5,-16.0,-67.0,-110.0,-4865.0,-1351.0,3828.0,15109.0,-29.0,61.0,-68.0,24.0,-50.0,-94.0,-4576.0,-2345.0,2204.0,15399.0,-64.0,45.0,-65.0,1.0
2022-05-13 12:24:08.836169-07:00,2122.0,619.7,1829.4,1688.1,1433.2,2012.4,1911.5,2110.8,3443.1,3443.1,2545.4,1782.0,2089.6,3441.9,1577.7,1900.7,3451.6,3439.5,797.7,1281.0,1034.0,590.7,2054.4,2803.5,3446.7,3452.8,1266.7,1463.5,1521.8,1881.1,1636.9,1510.6,23.0,5.0,-64.0,-4853.0,-1335.0,3822.0,15116.0,-24.0,4.0,-65.0,30.0,-18.0,-93.0,-4563.0,-2352.0,2179.0,15406.0,-33.0,2.0,-38.0,1.0
2022-05-13 12:24:08.925714-07:00,2122.0,619.7,1822.6,1680.5,1433.2,2012.4,1903.6,2111.8,3443.1,3443.1,2531.5,1784.9,2089.6,3441.9,1585.2,1899.7,3440.7,3444.3,797.7,1281.0,1028.0,593.9,2054.4,2803.5,3432.2,3444.3,1266.7,1463.5,1536.6,1865.4,1636.9,1510.6,-25.0,-13.0,-42.0,-4821.0,-1346.0,3821.0,15125.0,61.0,-124.0,-5.0,-6.0,4.0,-1.0,-4541.0,-2355.0,2175.0,15412.0,59.0,3.0,-54.0,1.0
2022-05-13 12:24:08.927629-07:00,2116.9,632.7,1822.6,1680.5,1418.6,2011.4,1903.6,2111.8,3441.9,3435.8,2531.5,1784.9,2087.6,3435.8,1585.2,1899.7,3440.7,3444.3,795.2,1290.0,1028.0,593.9,2048.4,2777.9,3432.2,3444.3,1256.0,1466.3,1536.6,1865.4,1636.9,1506.9,-21.0,25.0,14.0,-4810.0,-1310.0,3834.0,15129.0,-79.0,-17.0,-58.0,-21.0,4.0,-14.0,-4516.0,-2364.0,2184.0,15417.0,-66.0,-2.0,-76.0,1.0
2022-05-13 12:24:08.970785-07:00,2116.9,632.7,1799.4,1664.4,1418.6,2011.4,1898.7,2094.7,3441.9,3435.8,2513.3,1777.2,2087.6,3435.8,1573.9,1892.8,3435.8,3435.8,795.2,1290.0,1030.6,589.9,2048.4,2777.9,3440.7,3431.0,1256.0,1466.3,1519.9,1865.4,1636.9,1506.9,-36.0,23.0,2.0,-4790.0,-1310.0,3814.0,15140.0,-11.0,-52.0,-27.0,-28.0,5.0,12.0,-4492.0,-2364.0,2162.0,15427.0,6.0,9.0,-63.0,1.0
2022-05-13 12:24:09.014698-07:00,2126.0,622.2,1799.4,1664.4,1412.2,1998.5,1898.7,2094.7,3446.7,3441.9,2513.3,1777.2,2068.5,3437.0,1573.9,1892.8,3435.8,3435.8,794.4,1289.1,1030.6,589.9,2046.4,2767.9,3440.7,3431.0,1246.2,1465.4,1519.9,1865.4,1627.5,1503.2,-40.0,13.0,15.0,-4767.0,-1307.0,3795.0,15153.0,-75.0,4.0,-54.0,-30.0,-4.0,6.0,-4464.0,-2373.0,2145.0,15436.0,-74.0,-4.0,-64.0,1.0
2022-05-13 12:24:09.060288-07:00,2126.0,622.2,1798.4,1671.9,1412.2,1998.5,1893.8,2097.7,3446.7,3441.9,2510.1,1777.2,2068.5,3437.0,1571.1,1885.0,3439.5,3441.9,794.4,1289.1,1028.8,594.7,2046.4,2767.9,3444.3,3443.1,1246.2,1465.4,1522.7,1848.9,1627.5,1503.2,-26.0,-9.0,9.0,-4752.0,-1298.0,3765.0,15166.0,-58.0,-118.0,32.0,-18.0,-22.0,-2.0,-4445.0,-2373.0,2108.0,15447.0,-16.0,-9.0,-39.0,1.0
2022-05-13 12:24:09.107152-07:00,2129.0,626.2,1802.3,1671.9,1414.9,1999.5,1893.8,2097.7,3440.7,3439.5,2519.7,1777.2,2088.6,3438.2,1571.1,1885.0,3439.5,3441.9,792.7,1286.4,1028.8,595.5,2052.4,2789.0,3444.3,3443.1,1248.0,1463.5,1522.7,1850.8,1624.7,1492.1,-8.0,13.0,4.0,-4735.0,-1306.0,3774.0,15168.0,71.0,108.0,-104.0,-4.0,0.0,-10.0,-4428.0,-2381.0,2119.0,15449.0,65.0,24.0,-44.0,1.0
2022-05-13 12:24:09.195266-07:00,2129.0,626.2,1802.3,1667.2,1414.9,1989.5,1884.0,2086.6,3440.7,3439.5,2519.7,1773.3,2088.6,3449.1,1566.5,1882.0,3450.4,3443.1,798.5,1286.4,1029.7,595.5,2052.4,2789.0,3441.9,3433.4,1250.6,1463.5,1517.1,1850.8,1624.7,1492.1,-17.0,3.0,-35.0,-4729.0,-1322.0,3774.0,15169.0,-27.0,-91.0,40.0,1.0,-18.0,-42.0,-4417.0,-2390.0,2121.0,15450.0,-17.0,-9.0,-13.0,1.0
2022-05-13 12:24:09.240391-07:00,2115.9,629.5,1797.4,1667.2,1411.3,1989.5,1884.0,2086.6,3439.5,3449.1,2497.2,1773.3,2087.6,3449.1,1566.5,1882.0,3450.4,3443.1,798.5,1283.7,1029.7,588.3,2042.4,2769.0,3441.9,3433.4,1250.6,1462.6,1517.1,1854.7,1627.5,1496.7,-16.0,-6.0,-21.0,-4717.0,-1316.0,3786.0,15170.0,65.0,12.0,-28.0,-2.0,1.0,-9.0,-4411.0,-2390.0,2127.0,15451.0,42.0,-12.0,-5.0,1.0
2022-05-13 12:24:09.285392-07:00,2115.9,629.5,1797.4,1665.3,1411.3,1989.5,1874.2,2075.5,3439.5,3449.1,2497.2,1757.9,2087.6,3441.9,1561.8,1885.0,3441.9,3441.9,798.5,1283.7,1025.4,588.3,2042.4,2769.0,3449.1,3450.4,1248.8,1462.6,1519.0,1854.7,1627.5,1496.7,-18.0,-11.0,-16.0,-4723.0,-1289.0,3785.0,15170.0,-73.0,-77.0,31.0,-11.0,-31.0,-36.0,-4412.0,-2374.0,2120.0,15454.0,-61.0,-63.0,12.0,1.0
2022-05-13 12:24:09.463837-07:00,2105.8,625.4,1783.9,1665.3,1397.6,1989.5,1874.2,2075.5,3440.7,3443.1,2481.3,1757.9,2077.5,3441.9,1561.8,1885.0,3441.9,3441.9,798.5,1290.0,1025.4,589.9,2031.4,2761.3,3449.1,3450.4,1248.8,1458.0,1519.0,1842.0,1601.1,1479.2,-22.0,0.0,5.0,-4716.0,-1278.0,3782.0,15174.0,7.0,-85.0,25.0,-8.0,-7.0,28.0,-4417.0,-2344.0,2124.0,15457.0,-16.0,-71.0,28.0,1.0
2022-05-13 12:24:09.466132-07:00,2105.8,625.4,1783.9,1653.0,1395.7,1996.5,1888.9,2073.5,3440.7,3443.1,2481.3,1760.8,2075.5,3440.7,1560.9,1880.1,3443.1,3434.6,792.7,1285.5,1022.8,589.9,2031.4,2761.3,3449.1,3444.3,1235.5,1454.3,1506.0,1842.0,1601.1,1479.2,-9.0,20.0,23.0,-4715.0,-1234.0,3806.0,15172.0,73.0,-68.0,4.0,-11.0,-4.0,18.0,-4431.0,-2322.0,2135.0,15455.0,41.0,-27.0,42.0,1.0
2022-05-13 12:24:09.599364-07:00,2119.9,621.4,1783.9,1665.3,1395.7,1996.5,1888.9,2073.5,3441.9,3444.3,2452.6,1755.0,2075.5,3440.7,1560.9,1880.1,3443.1,3434.6,792.7,1285.5,1026.3,590.7,2022.4,2735.9,3449.1,3444.3,1235.5,1454.3,1515.3,1837.2,1613.4,1487.5,-10.0,35.0,17.0,-4707.0,-1219.0,3850.0,15165.0,69.0,-69.0,25.0,-12.0,28.0,8.0,-4438.0,-2328.0,2162.0,15448.0,55.0,15.0,18.0,1.0
2022-05-13 12:24:09.646334-07:00,2119.9,621.4,1783.9,1665.3,1389.4,1987.5,1860.6,2079.5,3441.9,3444.3,2452.6,1755.0,2075.5,3449.1,1548.7,1877.2,3444.3,3433.4,796.0,1282.8,1026.3,590.7,2022.4,2735.9,3445.5,3441.9,1228.4,1449.7,1515.3,1837.2,1613.4,1487.5,-21.0,8.0,11.0,-4702.0,-1228.0,3858.0,15164.0,-28.0,53.0,-42.0,-19.0,6.0,8.0,-4435.0,-2333.0,2166.0,15448.0,-16.0,-1.0,-23.0,1.0
2022-05-13 12:24:09.647663-07:00,2122.0,621.4,1767.5,1661.5,1389.4,1987.5,1860.6,2079.5,3449.1,3449.1,2446.2,1750.2,2075.5,3449.1,1548.7,1877.2,3444.3,3433.4,796.0,1282.8,1028.8,595.5,2017.4,2723.8,3445.5,3441.9,1228.4,1449.7,1516.2,1835.2,1611.5,1481.9,-28.0,15.0,0.0,-4704.0,-1220.0,3854.0,15164.0,-35.0,-64.0,62.0,-26.0,0.0,-12.0,-4431.0,-2336.0,2154.0,15450.0,-38.0,-10.0,2.0,1.0
2022-05-13 12:24:09.649070-07:00,2122.0,621.4,1767.5,1661.5,1390.3,1982.6,1864.5,2075.5,3449.1,3449.1,2446.2,1750.2,2063.5,3431.0,1563.7,1881.1,3439.5,3439.5,797.7,1285.5,1028.8,595.5,2017.4,2723.8,3449.1,3449.1,1231.9,1453.4,1516.2,1835.2,1611.5,1481.9,-30.0,-18.0,6.0,-4705.0,-1227.0,3830.0,15170.0,3.0,71.0,-26.0,-20.0,-12.0,26.0,-4432.0,-2325.0,2135.0,15454.0,-13.0,-1.0,4.0,1.0
2022-05-13 12:24:09.650195-07:00,2115.9,626.2,1789.7,1654.9,1390.3,1982.6,1864.5,2069.5,3447.9,3449.1,2433.5,1743.5,2063.5,3431.0,1563.7,1881.1,3438.2,3439.5,797.7,1285.5,1023.7,592.3,2014.4,2702.9,3449.1,3449.1,1231.9,1453.4,1516.2,1825.5,1615.2,1481.0,0.0,39.0,1.0,-4715.0,-1214.0,3848.0,15163.0,-5.0,-40.0,40.0,-5.0,12.0,-23.0,-4439.0,-2325.0,2143.0,15451.0,2.0,-12.0,15.0,1.0
2022-05-13 12:24:09.692960-07:00,2107.8,626.2,1789.7,1654.9,1385.7,1974.6,1879.1,2069.5,3454.0,3449.1,2433.5,1743.5,2067.5,3450.4,1559.0,1881.1,3438.2,3445.5,798.5,1281.9,1023.7,592.3,2014.4,2701.8,3449.1,3452.8,1237.3,1442.4,1516.2,1825.5,1615.2,1474.6,-37.0,4.0,-37.0,-4711.0,-1227.0,3829.0,15168.0,7.0,-13.0,12.0,-19.0,0.0,7.0,-4442.0,-2322.0,2127.0,15453.0,-21.0,-5.0,3.0,1.0
2022-05-13 12:24:09.734017-07:00,2107.8,619.7,1777.2,1660.6,1385.7,1974.6,1879.1,2075.5,3454.0,3439.5,2447.3,1740.6,2067.5,3450.4,1559.0,1876.2,3434.6,3445.5,798.5,1281.9,1023.7,591.5,2014.4,2701.8,3449.1,3452.8,1237.3,1442.4,1510.6,1839.1,1619.9,1474.6,-6.0,42.0,-15.0,-4706.0,-1202.0,3851.0,15166.0,15.0,-9.0,-54.0,-12.0,5.0,-48.0,-4433.0,-2315.0,2145.0,15454.0,20.0,-45.0,-27.0,1.0
2022-05-13 12:24:09.826235-07:00,2106.8,619.7,1777.2,1660.6,1379.4,1974.6,1869.3,2075.5,3444.3,3439.5,2447.3,1740.6,2071.5,3447.9,1555.3,1876.2,3434.6,3443.1,798.5,1281.9,1023.7,591.5,2014.4,2708.4,3449.1,3443.1,1231.9,1451.6,1510.6,1839.1,1619.9,1486.6,-30.0,-12.0,-8.0,-4681.0,-1225.0,3834.0,15176.0,-54.0,-31.0,-11.0,-11.0,5.0,24.0,-4419.0,-2292.0,2135.0,15463.0,-45.0,-47.0,-21.0,1.0
2022-05-13 12:24:10.050786-07:00,2106.8,618.9,1779.1,1662.5,1379.4,1974.6,1869.3,2075.5,3444.3,3438.2,2429.3,1735.8,2071.5,3447.9,1555.3,1868.4,3431.0,3443.1,798.5,1281.9,1025.4,589.9,2010.4,2708.4,3438.2,3443.1,1231.9,1451.6,1510.6,1831.3,1614.3,1486.6,-9.0,10.0,24.0,-4688.0,-1182.0,3837.0,15177.0,-6.0,-42.0,-8.0,-10.0,-5.0,-4.0,-4416.0,-2271.0,2137.0,15466.0,4.0,-40.0,-11.0,1.0
2022-05-13 12:24:10.052700-07:00,2111.8,618.9,1779.1,1662.5,1394.8,1971.7,1863.5,2075.5,3439.5,3438.2,2429.3,1735.8,2062.5,3437.0,1549.7,1868.4,3431.0,3440.7,798.5,1274.7,1025.4,589.9,2010.4,2679.9,3438.2,3450.4,1231.9,1453.4,1510.6,1831.3,1614.3,1467.2,-21.0,-8.0,15.0,-4688.0,-1195.0,3822.0,15180.0,-35.0,-7.0,55.0,-8.0,-8.0,22.0,-4418.0,-2263.0,2130.0,15468.0,-35.0,-4.0,19.0,1.0
2022-05-13 12:24:10.140573-07:00,2111.8,610.8,1775.2,1657.7,1394.8,1971.7,1865.4,2075.5,3439.5,3445.5,2435.6,1739.7,2062.5,3437.0,1550.6,1860.6,3441.9,3449.1,798.5,1274.7,1021.1,593.1,2012.4,2679.9,3445.5,3446.7,1231.9,1453.4,1507.8,1835.2,1604.0,1467.2,-10.0,18.0,10.0,-4695.0,-1182.0,3833.0,15176.0,38.0,22.0,-26.0,-11.0,14.0,3.0,-4421.0,-2263.0,2138.0,15466.0,29.0,-8.0,2.0,1.0
2022-05-13 12:24:10.141906-07:00,2114.9,614.9,1775.2,1657.7,1376.6,1976.6,1865.4,2075.5,3441.9,3438.2,2435.6,1739.7,2067.5,3444.3,1550.6,1860.6,3441.9,3449.1,791.0,1276.5,1021.1,593.1,2006.4,2684.3,3445.5,3446.7,1234.6,1445.1,1507.8,1835.2,1608.7,1469.0,-11.0,15.0,-3.0,-4688.0,-1153.0,3852.0,15175.0,14.0,-153.0,29.0,-3.0,-2.0,-18.0,-4419.0,-2257.0,2143.0,15467.0,22.0,-37.0,-7.0,1.0
2022-05-13 12:24:10.143046-07:00,2114.9,614.9,1767.5,1647.3,1376.6,1976.6,1872.3,2054.4,3441.9,3438.2,2434.6,1733.0,2067.5,3444.3,1548.7,1866.4,3443.1,3440.7,791.0,1276.5,1020.2,588.3,2006.4,2684.3,3441.9,3443.1,1234.6,1445.1,1512.5,1834.3,1608.7,1469.0,-13.0,16.0,19.0,-4678.0,-1146.0,3848.0,15180.0,-55.0,37.0,-26.0,-2.0,9.0,9.0,-4414.0,-2242.0,2139.0,15471.0,-66.0,-23.0,-8.0,1.0
2022-05-13 12:24:10.144978-07:00,2104.8,612.5,1767.5,1647.3,1374.8,1964.7,1872.3,2054.4,3438.2,3449.1,2434.6,1733.0,2055.4,3445.5,1548.7,1866.4,3443.1,3440.7,798.5,1281.9,1020.2,588.3,2006.4,2675.5,3441.9,3443.1,1234.6,1437.8,1512.5,1834.3,1605.8,1457.1,-9.0,7.0,6.0,-4676.0,-1144.0,3841.0,15183.0,6.0,-9.0,8.0,-6.0,8.0,-13.0,-4410.0,-2238.0,2134.0,15473.0,12.0,-1.0,-6.0,1.0
2022-05-13 12:24:10.321062-07:00,2104.8,612.5,1772.3,1649.2,1374.8,1964.7,1853.7,2066.5,3438.2,3449.1,2431.4,1734.9,2055.4,3445.5,1539.4,1851.8,3432.2,3440.7,798.5,1281.9,1025.4,593.9,2006.4,2675.5,3441.9,3449.1,1234.6,1437.8,1510.6,1824.6,1605.8,1457.1,-26.0,1.0,-2.0,-4679.0,-1153.0,3835.0,15182.0,-18.0,-8.0,19.0,-15.0,-5.0,-15.0,-4411.0,-2241.0,2131.0,15473.0,-19.0,5.0,2.0,1.0
2022-05-13 12:24:10.323724-07:00,2118.9,619.7,1765.6,1650.2,1375.7,1968.7,1848.9,2066.5,3447.9,3438.2,2419.8,1737.8,2060.5,3437.0,1533.8,1857.6,3444.3,3435.8,800.2,1285.5,1020.2,592.3,1998.5,2670.0,3444.3,3438.2,1231.9,1442.4,1512.5,1836.2,1604.0,1476.4,-19.0,6.0,-26.0,-4680.0,-1160.0,3852.0,15177.0,36.0,-39.0,11.0,-6.0,-4.0,-40.0,-4408.0,-2248.0,2146.0,15471.0,37.0,-18.0,3.0,1.0
2022-05-13 12:24:10.324956-07:00,2098.7,621.4,1778.1,1650.2,1377.5,1968.7,1848.9,2066.5,3443.1,3434.6,2432.4,1737.8,2046.4,3437.0,1533.8,1857.6,3444.3,3435.8,800.2,1277.4,1020.2,594.7,1993.5,2660.2,3444.3,3438.2,1231.9,1442.4,1512.5,1834.3,1596.4,1470.9,-26.0,-5.0,-24.0,-4674.0,-1146.0,3855.0,15179.0,-30.0,-78.0,17.0,-8.0,-5.0,-22.0,-4405.0,-2234.0,2152.0,15473.0,-19.0,-56.0,1.0,1.0
2022-05-13 12:24:10.326147-07:00,2098.7,621.4,1778.1,1649.2,1377.5,1974.6,1848.9,2062.5,3443.1,3434.6,2432.4,1729.1,2046.4,3447.9,1548.7,1865.4,3438.2,3433.4,798.5,1277.4,1019.4,594.7,1993.5,2660.2,3444.3,3443.1,1222.2,1442.4,1509.7,1834.3,1596.4,1470.9,-24.0,-2.0,-22.0,-4679.0,-1109.0,3847.0,15183.0,-75.0,-37.0,14.0,-13.0,-18.0,-64.0,-4411.0,-2197.0,2150.0,15477.0,-49.0,-102.0,34.0,1.0
2022-05-13 12:24:10.450690-07:00,2108.8,617.3,1772.3,1649.2,1366.6,1974.6,1848.9,2062.5,3441.9,3435.8,2410.3,1729.1,2059.4,3447.9,1548.7,1865.4,3438.2,3433.4,798.5,1270.3,1019.4,597.1,2015.4,2664.6,3444.3,3443.1,1222.2,1440.5,1509.7,1829.4,1617.1,1470.9,-30.0,-25.0,-52.0,-4692.0,-1091.0,3839.0,15182.0,-8.0,-91.0,79.0,-9.0,-6.0,-64.0,-4432.0,-2148.0,2159.0,15476.0,4.0,-137.0,93.0,1.0
2022-05-13 12:24:10.469706-07:00,2108.8,617.3,1772.3,1641.6,1369.4,1967.7,1845.9,2070.5,3441.9,3435.8,2410.3,1733.9,2068.5,3438.2,1542.2,1860.6,3438.2,3438.2,798.5,1281.9,1017.6,597.1,2015.4,2664.6,3437.0,3445.5,1208.9,1438.7,1515.3,1829.4,1617.1,1470.9,-39.0,-53.0,-53.0,-4728.0,-1057.0,3818.0,15178.0,-82.0,-57.0,136.0,-19.0,-41.0,-73.0,-4471.0,-2076.0,2168.0,15474.0,-63.0,-203.0,147.0,1.0
2022-05-13 12:24:10.572739-07:00,2105.8,617.3,1759.8,1657.7,1369.4,1967.7,1845.9,2070.5,3438.2,3440.7,2425.0,1724.4,2068.5,3438.2,1542.2,1860.6,3438.2,3438.2,798.5,1281.9,1025.4,588.3,2013.4,2689.7,3437.0,3445.5,1208.9,1438.7,1517.1,1834.3,1601.1,1462.6,-18.0,-81.0,-82.0,-4773.0,-1012.0,3816.0,15168.0,51.0,-122.0,189.0,16.0,-52.0,-90.0,-4549.0,-1954.0,2191.0,15464.0,2.0,-293.0,264.0,1.0
2022-05-13 12:24:10.574823-07:00,2105.8,617.3,1759.8,1657.7,1369.4,1963.7,1850.8,2061.5,3438.2,3440.7,2425.0,1724.4,2141.2,3433.4,1536.6,1854.7,3440.7,3446.7,793.5,1273.9,1025.4,588.3,2013.4,2689.7,3449.1,3446.7,1227.5,1446.0,1517.1,1834.3,1601.1,1462.6,17.0,-40.0,-69.0,-4838.0,-941.0,3887.0,15134.0,171.0,-130.0,154.0,23.0,-57.0,-76.0,-4657.0,-1793.0,2263.0,15441.0,-23.0,-409.0,363.0,1.0
2022-05-13 12:24:10.683166-07:00,2099.7,614.1,1795.5,1649.2,1369.4,1963.7,1850.8,2061.5,3439.5,3444.3,2484.4,1733.9,2141.2,3433.4,1536.6,1854.7,3440.7,3446.7,793.5,1273.9,1027.1,585.1,2049.4,2754.7,3449.1,3446.7,1227.5,1446.0,1505.1,1834.3,1600.2,1492.1,-8.0,32.0,-35.0,-4870.0,-839.0,4036.0,15091.0,288.0,-578.0,224.0,12.0,17.0,-16.0,-4775.0,-1602.0,2355.0,15412.0,104.0,-455.0,351.0,1.0
2022-05-13 12:24:10.684471-07:00,2099.7,614.1,1795.5,1649.2,1394.8,1950.9,1864.5,2193.2,3439.5,3444.3,2484.4,1733.9,2125.0,3441.9,1531.0,1847.9,3446.7,3439.5,786.1,1278.3,1027.1,585.1,2049.4,2754.7,3455.2,3443.1,1256.9,1438.7,1505.1,1834.3,1600.2,1492.1,34.0,111.0,114.0,-4891.0,-669.0,4182.0,15053.0,70.0,-145.0,97.0,17.0,82.0,76.0,-4861.0,-1405.0,2460.0,15388.0,40.0,-445.0,251.0,1.0
2022-05-13 12:24:10.685619-07:00,2099.7,615.7,1781.0,1646.4,1394.8,1950.9,1864.5,2193.2,3447.9,3433.4,2474.9,1714.8,2125.0,3441.9,1531.0,1847.9,3446.7,3439.5,786.1,1278.3,1016.8,594.7,2071.5,2796.8,3455.2,3443.1,1256.9,1438.7,1503.2,1821.6,1597.4,1494.9,-2.0,87.0,118.0,-4923.0,-617.0,4170.0,15047.0,-153.0,-73.0,129.0,-2.0,46.0,102.0,-4923.0,-1245.0,2472.0,15380.0,-128.0,-254.0,163.0,1.0
2022-05-13 12:24:10.724372-07:00,2112.8,615.7,1781.0,1646.4,1376.6,1960.8,1862.5,2217.8,3441.9,3433.4,2474.9,1714.8,2144.3,3444.3,1521.8,1841.1,3443.1,3438.2,794.4,1279.2,1016.8,594.7,2071.5,2812.4,3440.7,3446.7,1236.4,1440.5,1503.2,1821.6,1597.4,1477.3,-14.0,76.0,53.0,-4959.0,-574.0,4149.0,15043.0,-73.0,-45.0,81.0,-20.0,62.0,48.0,-4950.0,-1159.0,2485.0,15376.0,-24.0,-163.0,49.0,1.0
2022-05-13 12:24:10.815401-07:00,2112.8,610.8,1774.3,1635.0,1376.6,1960.8,1862.5,2240.4,3441.9,3449.1,2467.4,1718.6,2144.3,3444.3,1521.8,1832.3,3439.5,3438.2,794.4,1279.2,1014.2,590.7,2097.7,2812.4,3444.3,3446.7,1236.4,1440.5,1497.7,1815.8,1587.1,1477.3,-32.0,4.0,-10.0,-4990.0,-492.0,4078.0,15055.0,-409.0,-176.0,102.0,-20.0,-4.0,-15.0,-4955.0,-1049.0,2419.0,15392.0,-364.0,-222.0,21.0,1.0
2022-05-13 12:24:10.817631-07:00,2090.6,610.8,1774.3,1635.0,1369.4,1950.9,1848.9,2240.4,3444.3,3449.1,2467.4,1718.6,2167.7,3440.7,1521.8,1832.3,3439.5,3433.4,790.2,1281.0,1014.2,590.7,2097.7,2871.7,3444.3,3441.9,1239.9,1447.0,1497.7,1815.8,1587.1,1528.3,90.0,17.0,297.0,-5008.0,-362.0,3980.0,15079.0,130.0,59.0,5.0,74.0,50.0,241.0,-4964.0,-921.0,2330.0,15412.0,-114.0,-159.0,51.0,1.0
2022-05-13 12:24:10.905260-07:00,2090.6,615.7,1767.5,1640.7,1369.4,1950.9,1848.9,2253.8,3444.3,3451.6,2461.0,1714.8,2167.7,3440.7,1521.8,1821.6,3433.4,3433.4,790.2,1281.0,1011.6,593.1,2103.7,2871.7,3439.5,3441.9,1239.9,1447.0,1490.3,1810.0,1581.4,1528.3,-45.0,21.0,-36.0,-5020.0,-384.0,4026.0,15062.0,63.0,-251.0,96.0,-22.0,22.0,-6.0,-4963.0,-953.0,2332.0,15410.0,-36.0,103.0,-21.0,1.0
2022-05-13 12:24:10.907323-07:00,2103.7,615.7,1767.5,1640.7,1372.1,1941.0,1860.6,2253.8,3449.1,3451.6,2461.0,1714.8,2170.7,3437.0,1517.1,1821.6,3433.4,3437.0,796.0,1281.9,1011.6,593.1,2103.7,2951.8,3439.5,3438.2,1249.7,1444.2,1490.3,1810.0,1581.4,1539.4,-9.0,-3.0,38.0,-5052.0,-214.0,4093.0,15037.0,9.0,-437.0,292.0,-2.0,15.0,11.0,-4944.0,-958.0,2271.0,15424.0,-193.0,27.0,-46.0,1.0
2022-05-13 12:24:11.040860-07:00,2103.7,613.3,1772.3,1644.5,1372.1,1941.0,1885.0,2490.8,3449.1,3444.3,2540.1,1698.6,2170.7,3437.0,1559.0,1834.3,3441.9,3433.4,796.0,1281.9,1017.6,593.1,2079.5,2951.8,3454.0,3443.1,1249.7,1444.2,1505.1,1817.8,1574.9,1539.4,-4.0,41.0,0.0,-5123.0,-2.0,4167.0,14994.0,47.0,-499.0,272.0,-7.0,14.0,-17.0,-4945.0,-967.0,2211.0,15433.0,-81.0,76.0,-21.0,1.0
2022-05-13 12:24:11.042265-07:00,2107.8,617.3,1772.3,1644.5,1375.7,1955.8,1885.0,2490.8,3443.1,3439.5,2540.1,1698.6,2275.5,3428.6,1559.0,1834.3,3441.9,3433.4,792.7,1282.8,1017.6,593.1,2104.8,3156.7,3454.0,3443.1,1283.7,1479.2,1505.1,1817.8,1585.2,1597.4,-17.0,-25.0,18.0,-5165.0,195.0,4259.0,14953.0,175.0,-345.0,205.0,-21.0,-20.0,-33.0,-4937.0,-984.0,2209.0,15434.0,80.0,-1.0,-2.0,1.0
2022-05-13 12:24:11.130565-07:00,2107.8,617.3,1811.9,1635.0,1375.7,1955.8,1900.7,2742.5,3443.1,3439.5,2540.1,1688.1,2275.5,3428.6,1526.4,1833.3,3439.5,3445.5,792.7,1282.8,1020.2,593.9,2104.8,3156.7,3437.0,3447.9,1283.7,1479.2,1507.8,1817.8,1585.2,1597.4,4.0,-29.0,49.0,-5222.0,294.0,4365.0,14901.0,218.0,-164.0,206.0,14.0,-39.0,11.0,-4959.0,-993.0,2243.0,15421.0,90.0,22.0,103.0,1.0
2022-05-13 12:24:11.133126-07:00,2111.8,614.1,1811.9,1635.0,1394.8,1958.8,1900.7,2742.5,3440.7,3435.8,2540.1,1688.1,2305.6,3443.1,1526.4,1833.3,3439.5,3445.5,792.7,1281.9,1020.2,593.9,2090.6,3089.3,3437.0,3447.9,1310.6,1511.5,1507.8,1817.8,1536.6,1620.9,46.0,-37.0,33.0,-5252.0,316.0,4460.0,14862.0,235.0,-82.0,-28.0,63.0,-41.0,21.0,-5012.0,-1042.0,2305.0,15392.0,215.0,133.0,126.0,1.0
2022-05-13 12:24:11.174448-07:00,2111.8,614.1,1852.8,1645.4,1394.8,1958.8,1918.3,2765.7,3440.7,3435.8,2443.0,1671.9,2305.6,3443.1,1447.9,1777.2,3432.2,3435.8,792.7,1281.9,1026.3,588.3,2090.6,3089.3,3439.5,3450.4,1310.6,1511.5,1497.7,1793.6,1536.6,1620.9,89.0,-73.0,100.0,-5226.0,329.0,4593.0,14830.0,546.0,-195.0,-27.0,119.0,-48.0,60.0,-5064.0,-1168.0,2403.0,15351.0,411.0,314.0,114.0,1.0
2022-05-13 12:24:11.220017-07:00,2107.8,607.6,1852.8,1645.4,1374.8,1994.5,1918.3,2765.7,3440.7,3450.4,2443.0,1671.9,2322.2,3438.2,1447.9,1777.2,3432.2,3435.8,784.4,1286.4,1026.3,588.3,2151.4,3009.9,3439.5,3450.4,1348.5,1522.7,1497.7,1793.6,1503.2,1579.6,108.0,-49.0,84.0,-5173.0,245.0,4995.0,14720.0,1424.0,-61.0,-282.0,114.0,-89.0,23.0,-5091.0,-1484.0,2734.0,15259.0,1293.0,594.0,36.0,1.0
2022-05-13 12:24:11.356019-07:00,2107.8,607.6,1787.8,1625.6,1374.8,1975.6,1868.4,2565.9,3440.7,3450.4,2387.1,1651.1,2322.2,3444.3,1400.3,1756.0,3440.7,3438.2,804.4,1286.4,1021.9,591.5,2151.4,3009.9,3450.4,3444.3,1498.6,1522.7,1497.7,1774.3,1503.2,1579.6,126.0,-144.0,48.0,-5024.0,-61.0,5561.0,14569.0,1644.0,469.0,-727.0,159.0,-143.0,-64.0,-5101.0,-1976.0,3209.0,15107.0,1472.0,848.0,58.0,1.0
2022-05-13 12:24:11.358233-07:00,2090.6,623.0,1724.4,1625.6,1353.1,1975.6,1868.4,2565.9,3449.1,3434.6,2334.7,1651.1,2294.2,3444.3,1400.3,1756.0,3440.7,3438.2,804.4,1281.0,1021.9,595.5,2255.9,2941.6,3450.4,3444.3,1498.6,1485.6,1497.7,1745.4,1470.9,1552.5,22.0,-226.0,-95.0,-4765.0,-729.0,6163.0,14395.0,2150.0,1024.0,-1084.0,69.0,-153.0,-152.0,-5125.0,-2542.0,3763.0,14885.0,1829.0,847.0,173.0,1.0
2022-05-13 12:24:11.359400-07:00,2090.6,623.0,1724.4,1603.0,1353.1,1911.5,1772.3,2364.0,3449.1,3434.6,2334.7,1644.5,2294.2,3438.2,1376.6,1745.4,3435.8,3444.3,796.9,1281.0,1015.9,595.5,2255.9,2941.6,3454.0,3440.7,1374.8,1485.6,1500.4,1745.4,1470.9,1552.5,-12.0,-250.0,-138.0,-4519.0,-1607.0,6870.0,14079.0,2590.0,1273.0,-815.0,42.0,-136.0,-176.0,-5184.0,-3073.0,4454.0,14570.0,2064.0,687.0,443.0,1.0
2022-05-13 12:24:11.401144-07:00,2110.8,620.5,1691.0,1603.0,1339.5,1911.5,1772.3,2364.0,3438.2,3441.9,2276.5,1644.5,2253.8,3438.2,1376.6,1745.4,3435.8,3444.3,796.9,1289.1,1015.9,589.9,2197.3,2895.3,3454.0,3440.7,1374.8,1430.5,1500.4,1725.3,1456.2,1525.5,8.0,-193.0,-90.0,-4353.0,-2516.0,7673.0,13575.0,2820.0,1259.0,-526.0,28.0,-77.0,-161.0,-5294.0,-3517.0,5265.0,14153.0,2281.0,539.0,694.0,1.0
2022-05-13 12:24:11.535959-07:00,2110.8,620.5,1691.0,1584.2,1339.5,1844.0,1714.8,2245.6,3438.2,3441.9,2276.5,1631.3,2253.8,3428.6,1350.3,1735.8,3439.5,3439.5,791.9,1289.1,1020.2,589.9,2197.3,2895.3,3444.3,3445.5,1264.9,1430.5,1493.0,1725.3,1456.2,1525.5,-55.0,-90.0,-123.0,-4280.0,-3374.0,8474.0,12920.0,2764.0,1335.0,-259.0,-44.0,-15.0,-170.0,-5456.0,-3889.0,6086.0,13657.0,2089.0,481.0,912.0,1.0
2022-05-13 12:24:11.578690-07:00,2090.6,607.6,1688.1,1614.3,1330.5,1844.0,1714.8,2245.6,3449.1,3435.8,2257.9,1629.4,2224.0,3428.6,1350.3,1735.8,3439.5,3439.5,791.9,1286.4,1021.1,589.1,2162.6,2855.9,3444.3,3445.5,1264.9,1396.7,1482.9,1724.4,1433.2,1510.6,-69.0,-22.0,-161.0,-4302.0,-4184.0,9199.0,12158.0,2633.0,1446.0,21.0,-88.0,89.0,-125.0,-5651.0,-4180.0,6856.0,13116.0,2046.0,405.0,976.0,1.0
2022-05-13 12:24:11.581532-07:00,2090.6,607.6,1688.1,1614.3,1322.3,1806.1,1671.9,2195.2,3449.1,3435.8,2257.9,1629.4,2205.5,3440.7,1349.4,1733.9,3439.5,3439.5,787.7,1287.3,1021.1,589.1,2162.6,2855.9,3438.2,3439.5,1233.7,1376.6,1482.9,1724.4,1433.2,1510.6,-82.0,99.0,-186.0,-4434.0,-4804.0,9814.0,11374.0,2221.0,1250.0,336.0,-101.0,148.0,-139.0,-5816.0,-4406.0,7555.0,12575.0,1868.0,285.0,844.0,1.0
2022-05-13 12:24:11.670713-07:00,2085.6,607.6,1681.4,1581.4,1322.3,1806.1,1671.9,2195.2,3444.3,3437.0,2267.2,1622.8,2205.5,3440.7,1349.4,1733.9,3439.5,3439.5,787.7,1287.3,1014.2,589.1,2124.0,2814.6,3438.2,3439.5,1233.7,1376.6,1482.9,1726.3,1436.9,1496.7,-111.0,191.0,-173.0,-4539.0,-5274.0,10302.0,10672.0,1664.0,880.0,247.0,-89.0,196.0,-59.0,-5878.0,-4578.0,8139.0,12111.0,1338.0,137.0,552.0,1.0
2022-05-13 12:24:11.671959-07:00,2085.6,607.6,1681.4,1581.4,1313.3,1774.3,1660.6,2135.1,3444.3,3437.0,2267.2,1622.8,2187.1,3449.1,1351.2,1721.5,3443.1,3438.2,789.4,1287.3,1014.2,589.1,2124.0,2814.6,3438.2,3438.2,1208.0,1370.3,1482.9,1726.3,1436.9,1496.7,-48.0,15.0,-40.0,-4612.0,-5474.0,10526.0,10316.0,548.0,376.0,144.0,-67.0,37.0,-63.0,-5942.0,-4652.0,8414.0,11862.0,529.0,126.0,336.0,1.0
2022-05-13 12:24:11.849323-07:00,2084.6,611.7,1656.8,1589.9,1313.3,1774.3,1660.6,2135.1,3443.1,3449.1,2255.9,1618.1,2187.1,3449.1,1351.2,1721.5,3443.1,3438.2,789.4,1287.3,1010.8,585.9,2103.7,2814.6,3438.2,3438.2,1208.0,1370.3,1479.2,1722.4,1436.9,1486.6,-77.0,39.0,35.0,-4670.0,-5567.0,10647.0,10114.0,471.0,233.0,325.0,-27.0,86.0,46.0,-6042.0,-4672.0,8561.0,11697.0,235.0,171.0,462.0,1.0
2022-05-13 12:24:12.031041-07:00,2092.6,611.7,1656.8,1589.9,1317.8,1749.3,1642.6,2115.9,3444.3,3449.1,2255.9,1618.1,2179.9,3438.2,1344.0,1719.6,3438.2,3441.9,787.7,1287.3,1010.8,585.9,2103.7,2800.1,3447.9,3447.9,1189.4,1354.9,1479.2,1722.4,1436.9,1473.6,-180.0,482.0,-104.0,-4975.0,-5297.0,10689.0,10069.0,-1446.0,-162.0,1379.0,-313.0,557.0,196.0,-6286.0,-4411.0,8344.0,11826.0,-1739.0,-287.0,369.0,1.0
2022-05-13 12:24:12.032558-07:00,2092.6,614.9,1659.6,1583.3,1317.8,1749.3,1642.6,2081.6,3444.3,3439.5,2229.1,1617.1,2179.9,3438.2,1344.0,1715.8,3439.5,3441.9,787.7,1287.3,1009.0,591.5,2107.8,2800.1,3447.9,3447.9,1189.4,1354.9,1489.3,1714.8,1432.3,1473.6,78.0,-164.0,127.0,-5159.0,-4756.0,10342.0,10595.0,-1332.0,-409.0,-357.0,-2.0,-41.0,-83.0,-6389.0,-4215.0,8065.0,12033.0,-140.0,-51.0,-108.0,1.0
2022-05-13 12:24:12.034304-07:00,2082.6,614.9,1659.6,1583.3,1312.4,1736.8,1627.5,2081.6,3437.0,3439.5,2229.1,1617.1,2168.7,3444.3,1326.8,1715.8,3439.5,3439.5,790.2,1287.3,1009.0,591.5,2107.8,2787.9,3447.9,3447.9,1178.8,1335.9,1489.3,1714.8,1432.3,1478.3,23.0,-33.0,-98.0,-5176.0,-4847.0,10269.0,10616.0,393.0,409.0,79.0,29.0,-32.0,-97.0,-6426.0,-4210.0,8089.0,11999.0,251.0,46.0,187.0,1.0
2022-05-13 12:24:12.035483-07:00,2082.6,614.1,1653.0,1581.4,1312.4,1736.8,1627.5,2065.5,3437.0,3444.3,2216.8,1618.1,2168.7,3444.3,1326.8,1720.5,3444.3,3439.5,790.2,1287.3,997.9,588.3,2061.5,2787.9,3433.4,3447.9,1178.8,1335.9,1475.5,1711.0,1425.9,1478.3,1.0,96.0,-90.0,-5225.0,-4930.0,10316.0,10507.0,34.0,5.0,25.0,-7.0,110.0,-51.0,-6450.0,-4175.0,8141.0,11963.0,-114.0,-136.0,94.0,1.0
2022-05-13 12:24:12.120864-07:00,2079.5,614.1,1653.0,1581.4,1311.5,1704.3,1616.2,2065.5,3433.4,3444.3,2216.8,1618.1,2160.5,3446.7,1327.8,1720.5,3444.3,3439.5,791.0,1278.3,997.9,588.3,2061.5,2766.8,3433.4,3443.1,1167.4,1331.4,1475.5,1711.0,1425.9,1465.4,-21.0,25.0,-40.0,-5221.0,-4871.0,10294.0,10559.0,-84.0,-171.0,11.0,-12.0,25.0,-53.0,-6437.0,-4089.0,8118.0,12016.0,-73.0,-187.0,-39.0,1.0
2022-05-13 12:24:12.122900-07:00,13.0,-3.0,39.0,-5139.0,-4806.0,10333.0,10590.0,24.0,-320.0,-43.0,4.0,14.0,-10.0,-6373.0,-4039.0,8136.0,12054.0,-41.0,-202.0,-82.0,1.0,-4.0,2.0,75.0,-5063.0,-4737.0,10361.0,10630.0,-28.0,-217.0,1.0,10.0,-9.0,22.0,-6329.0,-3988.0,8135.0,12096.0,-79.0,-114.0,-37.0,1.0,-16.0,-3.0,0.0,-6314.0,-3970.0,8125.0,12116.0,-40.0,1.0,-33.0,1.0
2022-05-13 12:24:12.123962-07:00,2072.5,608.4,1639.8,1584.2,1300.7,1695.7,1591.7,2050.4,3444.3,3435.8,2205.5,1610.5,2154.4,3438.2,1328.7,1710.0,3435.8,3435.8,784.4,1280.1,995.3,588.3,2022.4,2756.9,3450.4,3440.7,1153.3,1321.4,1481.9,1709.1,1425.9,1458.9,-16.0,16.0,74.0,-5034.0,-4685.0,10345.0,10683.0,-50.0,-52.0,-32.0,-14.0,-24.0,-3.0,-6304.0,-4010.0,8139.0,12099.0,236.0,67.0,-10.0,1.0
2022-05-13 12:24:12.165209-07:00,2080.6,602.0,1639.8,1584.2,1302.5,1685.3,1591.7,2050.4,3449.1,3438.2,2205.5,1610.5,2143.3,3438.2,1328.7,1710.0,3435.8,3435.8,788.6,1281.9,995.3,588.3,2013.4,2749.1,3450.4,3440.7,1142.7,1307.9,1481.9,1709.1,1424.1,1466.3,-23.0,-37.0,24.0,-5021.0,-4729.0,10328.0,10687.0,215.0,85.0,-76.0,-2.0,16.0,-20.0,-6296.0,-4068.0,8204.0,12039.0,152.0,65.0,24.0,1.0
2022-05-13 12:24:12.209007-07:00,2080.6,602.0,1636.9,1576.8,1302.5,1685.3,1585.2,2026.4,3449.1,3438.2,2200.4,1613.4,2143.3,3438.2,1328.7,1704.3,3437.0,3432.2,788.6,1281.9,1000.5,585.9,2013.4,2749.1,3435.8,3451.6,1142.7,1307.9,1477.3,1697.6,1424.1,1466.3,-4.0,15.0,11.0,-5004.0,-4792.0,10397.0,10598.0,234.0,96.0,15.0,-2.0,13.0,-30.0,-6311.0,-4088.0,8208.0,12021.0,-15.0,70.0,21.0,1.0
2022-05-13 12:24:12.299078-07:00,2071.5,610.8,1636.9,1576.8,1294.5,1680.5,1585.2,2026.4,3438.2,3443.1,2200.4,1613.4,2131.1,3445.5,1328.7,1704.3,3437.0,3432.2,791.9,1281.0,1000.5,585.9,2007.4,2739.2,3435.8,3451.6,1148.0,1310.6,1477.3,1697.6,1426.8,1447.9,0.0,7.0,2.0,-5013.0,-4816.0,10407.0,10573.0,-19.0,55.0,-1.0,-21.0,5.0,-35.0,-6320.0,-4115.0,8211.0,12006.0,48.0,36.0,8.0,1.0
2022-05-13 12:24:12.346074-07:00,2071.5,610.8,1636.9,1566.5,1294.5,1664.4,1591.7,2015.4,3438.2,3443.1,2201.4,1613.4,2131.1,3438.2,1324.1,1706.2,3438.2,3441.9,788.6,1281.0,1003.9,592.3,2007.4,2739.2,3438.2,3438.2,1137.5,1310.6,1481.9,1708.1,1426.8,1447.9,-19.0,-5.0,-13.0,-5027.0,-4834.0,10402.0,10564.0,47.0,46.0,14.0,-19.0,21.0,-40.0,-6309.0,-4142.0,8232.0,11988.0,42.0,-2.0,0.0,1.0
2022-05-13 12:24:12.347993-07:00,2072.5,601.2,1637.9,1566.5,1299.8,1664.4,1591.7,2015.4,3447.9,3441.9,2193.2,1613.4,2137.2,3438.2,1324.1,1706.2,3438.2,3441.9,788.6,1281.9,1003.9,584.3,2000.5,2737.0,3438.2,3438.2,1137.5,1307.9,1481.9,1691.9,1413.1,1446.0,-25.0,-3.0,-14.0,-5013.0,-4849.0,10420.0,10546.0,44.0,-39.0,25.0,-17.0,9.0,-21.0,-6300.0,-4144.0,8239.0,11987.0,-55.0,-34.0,7.0,1.0
2022-05-13 12:24:12.481070-07:00,2072.5,601.2,1637.9,1575.8,1299.8,1664.4,1581.4,2005.5,3447.9,3441.9,2193.2,1608.7,2137.2,3428.6,1321.4,1702.4,3431.0,3428.6,783.6,1281.9,997.0,584.3,2000.5,2737.0,3441.9,3443.1,1130.5,1307.9,1475.5,1691.9,1413.1,1446.0,-12.0,3.0,4.0,-5005.0,-4813.0,10430.0,10556.0,-49.0,-97.0,47.0,-2.0,6.0,-17.0,-6296.0,-4125.0,8226.0,12004.0,-59.0,-30.0,-13.0,1.0
2022-05-13 12:24:12.482460-07:00,2081.6,607.6,1616.2,1575.8,1303.4,1664.4,1581.4,2005.5,3449.1,3434.6,2179.9,1608.7,2122.0,3428.6,1321.4,1702.4,3431.0,3428.6,783.6,1281.0,997.0,588.3,1992.5,2729.3,3441.9,3443.1,1130.5,1303.4,1475.5,1692.9,1423.1,1441.5,-4.0,15.0,17.0,-4996.0,-4775.0,10421.0,10587.0,-88.0,-61.0,-7.0,0.0,0.0,-12.0,-6287.0,-4122.0,8229.0,12009.0,32.0,-14.0,-9.0,1.0
2022-05-13 12:24:12.526306-07:00,2081.6,607.6,1616.2,1582.4,1303.4,1666.3,1581.4,2005.5,3449.1,3434.6,2179.9,1605.8,2122.0,3428.6,1315.1,1705.3,3440.7,3440.7,791.9,1281.0,991.9,588.3,1992.5,2729.3,3451.6,3444.3,1127.0,1303.4,1478.3,1692.9,1423.1,1441.5,-3.0,-9.0,23.0,-4980.0,-4770.0,10412.0,10605.0,38.0,-25.0,-28.0,-1.0,1.0,-12.0,-6284.0,-4125.0,8236.0,12004.0,2.0,1.0,2.0,1.0
2022-05-13 12:24:12.613800-07:00,2069.5,608.4,1620.9,1582.4,1294.5,1666.3,1581.4,2005.5,3450.4,3447.9,2171.8,1605.8,2125.0,3428.6,1315.1,1705.3,3440.7,3440.7,791.9,1278.3,991.9,592.3,1982.6,2720.5,3451.6,3444.3,1127.0,1302.5,1478.3,1695.7,1428.6,1443.3,-1.0,0.0,22.0,-4968.0,-4770.0,10421.0,10602.0,23.0,-10.0,3.0,-8.0,6.0,-20.0,-6282.0,-4127.0,8238.0,12003.0,26.0,11.0,-7.0,1.0
2022-05-13 12:24:12.616086-07:00,2069.5,608.4,1620.9,1582.4,1289.1,1646.4,1573.9,1980.6,3450.4,3447.9,2171.8,1600.2,2117.9,3438.2,1320.5,1700.5,3439.5,3435.8,786.9,1280.1,993.6,592.3,1982.6,2720.5,3439.5,3449.1,1132.2,1295.4,1476.4,1695.7,1428.6,1443.3,-8.0,5.0,30.0,-4969.0,-4775.0,10414.0,10606.0,7.0,26.0,-21.0,-6.0,-1.0,-19.0,-6275.0,-4145.0,8259.0,11986.0,117.0,16.0,-2.0,1.0
2022-05-13 12:24:12.795707-07:00,2072.5,610.0,1621.8,1566.5,1289.1,1646.4,1573.9,1980.6,3454.0,3433.4,2177.9,1606.8,2117.9,3438.2,1320.5,1700.5,3439.5,3435.8,786.9,1280.1,991.0,586.7,1977.6,2710.6,3439.5,3449.1,1132.2,1295.4,1478.3,1704.3,1414.9,1436.0,-5.0,-13.0,10.0,-4972.0,-4805.0,10417.0,10588.0,100.0,76.0,-14.0,-6.0,8.0,-23.0,-6262.0,-4169.0,8295.0,11959.0,37.0,1.0,6.0,1.0
2022-05-13 12:24:12.797626-07:00,2072.5,610.0,1621.8,1566.5,1283.7,1654.9,1589.9,1995.5,3454.0,3433.4,2177.9,1606.8,2109.8,3439.5,1316.0,1711.0,3433.4,3435.8,786.1,1277.4,991.0,586.7,1977.6,2710.6,3443.1,3441.9,1115.6,1301.6,1478.3,1704.3,1414.9,1436.0,-11.0,0.0,-5.0,-4969.0,-4833.0,10448.0,10546.0,112.0,10.0,23.0,-9.0,4.0,-19.0,-6266.0,-4166.0,8295.0,11959.0,-55.0,-13.0,21.0,1.0
2022-05-13 12:24:12.798899-07:00,2062.5,606.0,1613.4,1576.8,1283.7,1654.9,1589.9,1995.5,3445.5,3444.3,2168.7,1602.1,2109.8,3439.5,1316.0,1711.0,3433.4,3435.8,786.1,1277.4,988.5,586.7,1971.7,2710.6,3443.1,3441.9,1115.6,1301.6,1474.6,1693.8,1411.3,1429.5,-14.0,-6.0,-3.0,-4973.0,-4819.0,10453.0,10545.0,-58.0,-44.0,44.0,-3.0,8.0,-21.0,-6272.0,-4150.0,8288.0,11966.0,-56.0,-28.0,20.0,1.0
2022-05-13 12:24:12.974292-07:00,2062.5,606.0,1613.4,1576.8,1295.4,1656.8,1569.3,1975.6,3445.5,3444.3,2168.7,1602.1,2106.8,3434.6,1316.9,1705.3,3433.4,3435.8,788.6,1279.2,988.5,586.7,1971.7,2710.6,3438.2,3449.1,1115.6,1298.1,1474.6,1693.8,1411.3,1429.5,-4.0,0.0,1.0,-4980.0,-4774.0,10456.0,10560.0,-63.0,-77.0,76.0,0.0,13.0,-14.0,-6270.0,-4134.0,8285.0,11975.0,-37.0,-28.0,-3.0,1.0
2022-05-13 12:24:13.019819-07:00,2070.5,597.1,1614.3,1571.1,1295.4,1656.8,1569.3,1977.6,3435.8,3441.9,2168.7,1595.5,2106.8,3434.6,1316.9,1704.3,3434.6,3435.8,788.6,1279.2,991.0,590.7,1958.8,2691.9,3449.1,3449.1,1115.6,1298.1,1474.6,1695.7,1404.0,1425.0,0.0,16.0,7.0,-4981.0,-4732.0,10459.0,10575.0,-28.0,-71.0,34.0,-4.0,-3.0,-5.0,-6265.0,-4125.0,8280.0,11984.0,-6.0,-7.0,-10.0,1.0
2022-05-13 12:24:13.022256-07:00,2058.4,597.1,1614.3,1571.1,1281.9,1648.3,1558.1,1977.6,3440.7,3441.9,2168.7,1595.5,2101.7,3449.1,1316.0,1704.3,3434.6,3433.4,791.0,1273.9,991.0,590.7,1958.8,2693.0,3449.1,3438.2,1111.2,1282.8,1474.6,1695.7,1404.0,1426.8,-9.0,-2.0,21.0,-4975.0,-4716.0,10455.0,10589.0,-14.0,-21.0,-10.0,-9.0,3.0,-7.0,-6263.0,-4127.0,8281.0,11983.0,12.0,8.0,-4.0,1.0
2022-05-13 12:24:13.023432-07:00,2058.4,602.8,1619.0,1571.1,1281.9,1648.3,1558.1,1967.7,3440.7,3441.9,2170.7,1597.4,2101.7,3449.1,1316.0,1705.3,3428.6,3433.4,791.0,1273.9,987.6,585.1,1964.7,2693.0,3443.1,3438.2,1111.2,1282.8,1472.7,1698.6,1409.4,1426.8,-8.0,0.0,21.0,-4973.0,-4721.0,10448.0,10595.0,12.0,22.0,-11.0,-7.0,1.0,-15.0,-6263.0,-4135.0,8285.0,11978.0,35.0,21.0,-2.0,1.0
2022-05-13 12:24:13.024572-07:00,2060.5,602.8,1619.0,1571.1,1288.2,1643.5,1568.3,1967.7,3435.8,3441.9,2170.7,1597.4,2090.6,3441.9,1307.0,1705.3,3428.6,3439.5,787.7,1281.9,987.6,585.1,1964.7,2684.3,3443.1,3447.9,1112.1,1281.0,1472.7,1698.6,1409.4,1426.8,-9.0,-5.0,5.0,-4973.0,-4732.0,10451.0,10587.0,42.0,14.0,-9.0,-6.0,6.0,-19.0,-6259.0,-4150.0,8299.0,11965.0,45.0,7.0,0.0,1.0
2022-05-13 12:24:13.065855-07:00,2060.5,602.0,1617.1,1573.9,1288.2,1643.5,1568.3,1971.7,3435.8,3439.5,2163.6,1594.6,2090.6,3441.9,1307.0,1704.3,3437.0,3439.5,787.7,1281.9,991.9,590.7,1964.7,2684.3,3438.2,3447.9,1112.1,1281.0,1467.2,1700.5,1407.6,1426.8,-8.0,1.0,0.0,-4971.0,-4748.0,10463.0,10569.0,42.0,23.0,-13.0,-10.0,8.0,-21.0,-6254.0,-4159.0,8310.0,11957.0,-4.0,-1.0,-12.0,1.0
2022-05-13 12:24:13.289847-07:00,2053.4,600.4,1617.1,1573.9,1289.1,1636.9,1566.5,1971.7,3445.5,3443.1,2163.6,1594.6,2101.7,3438.2,1311.5,1704.3,3437.0,3428.6,783.6,1278.3,991.9,590.7,1950.9,2693.0,3438.2,3439.5,1104.3,1291.8,1467.2,1700.5,1414.0,1427.7,-15.0,3.0,-11.0,-4965.0,-4764.0,10462.0,10566.0,-1.0,-4.0,-27.0,-4.0,6.0,-14.0,-6248.0,-4160.0,8313.0,11958.0,-13.0,-21.0,-3.0,1.0
2022-05-13 12:24:13.468847-07:00,2053.4,600.4,1614.3,1566.5,1289.1,1636.9,1558.1,1965.7,3445.5,3443.1,2159.5,1604.9,2101.7,3438.2,1309.7,1698.6,3435.8,3444.3,783.6,1278.3,990.2,581.8,1950.9,2693.0,3450.4,3456.4,1104.3,1291.8,1462.6,1689.1,1414.0,1427.7,-7.0,-5.0,4.0,-4952.0,-4753.0,10467.0,10572.0,-3.0,-54.0,16.0,-8.0,8.0,-14.0,-6244.0,-4151.0,8311.0,11964.0,-18.0,-22.0,3.0,1.0
2022-05-13 12:24:13.472939-07:00,2078.5,608.4,1614.3,1566.5,1281.0,1640.7,1558.1,1965.7,3431.0,3439.5,2159.5,1604.9,2098.7,3441.9,1309.7,1698.6,3435.8,3444.3,788.6,1279.2,990.2,581.8,1956.8,2681.0,3450.4,3456.4,1114.7,1290.0,1462.6,1689.1,1407.6,1407.6,-9.0,1.0,13.0,-4948.0,-4733.0,10471.0,10578.0,-18.0,-26.0,29.0,-7.0,-3.0,-6.0,-6244.0,-4145.0,8307.0,11969.0,-17.0,-2.0,5.0,1.0
2022-05-13 12:24:13.474225-07:00,2078.5,608.4,1611.5,1565.5,1281.0,1640.7,1552.5,1959.8,3431.0,3439.5,2162.6,1604.0,2098.7,3441.9,1309.7,1691.9,3428.6,3439.5,788.6,1279.2,991.9,593.9,1956.8,2681.0,3449.1,3440.7,1114.7,1290.0,1467.2,1687.2,1407.6,1407.6,-6.0,1.0,15.0,-4951.0,-4720.0,10468.0,10587.0,-12.0,-13.0,14.0,-1.0,-11.0,-12.0,-6242.0,-4148.0,8312.0,11966.0,41.0,9.0,11.0,1.0
2022-05-13 12:24:13.475390-07:00,2066.5,602.0,1611.5,1565.5,1270.3,1632.2,1552.5,1959.8,3445.5,3449.1,2162.6,1604.0,2094.7,3437.0,1309.7,1691.9,3428.6,3439.5,790.2,1278.3,991.9,593.9,1943.0,2670.0,3449.1,3440.7,1113.0,1296.3,1467.2,1687.2,1406.7,1419.5,-7.0,-13.0,15.0,-4958.0,-4711.0,10475.0,10581.0,57.0,-14.0,65.0,-27.0,12.0,7.0,-6244.0,-4158.0,8321.0,11955.0,15.0,31.0,-15.0,1.0
2022-05-13 12:24:13.515501-07:00,2066.5,602.0,1614.3,1572.1,1270.3,1632.2,1558.1,1952.9,3445.5,3449.1,2158.5,1596.4,2094.7,3437.0,1311.5,1700.5,3439.5,3439.5,790.2,1278.3,987.6,581.8,1943.0,2670.0,3433.4,3455.2,1113.0,1296.3,1470.0,1691.9,1406.7,1419.5,-22.0,38.0,3.0,-4957.0,-4714.0,10494.0,10560.0,81.0,10.0,-61.0,-27.0,12.0,7.0,-6244.0,-4158.0,8321.0,11955.0,15.0,31.0,-15.0,1.0
2022-05-13 12:24:13.516428-07:00,2066.5,602.0,1614.3,1572.1,1270.3,1632.2,1558.1,1952.9,3445.5,3449.1,2158.5,1596.4,2094.7,3437.0,1311.5,1700.5,3439.5,3439.5,790.2,1278.3,987.6,581.8,1943.0,2670.0,3433.4,3455.2,1113.0,1296.3,1470.0,1691.9,1406.7,1419.5,-22.0,38.0,3.0,-4957.0,-4714.0,10494.0,10560.0,81.0,10.0,-61.0,-211.0,149.0,-175.0,-5936.0,-4341.0,6951.0,12886.0,-2281.0,-25.0,-1221.0,1.0
2022-05-13 12:24:13.604524-07:00,2063.5,610.8,1604.0,1561.8,1274.7,1687.2,1583.3,1967.7,3433.4,3433.4,2143.3,1618.1,2092.6,3446.7,1306.1,1691.0,3438.2,3440.7,793.5,1277.4,985.0,588.3,1943.0,2660.2,3439.5,3449.1,1447.0,1317.8,1474.6,1687.2,1400.3,1414.9,-145.0,21.0,-190.0,-4616.0,-4629.0,9031.0,12006.0,-2956.0,-1382.0,-654.0,-107.0,35.0,-167.0,-5748.0,-4115.0,6021.0,13498.0,-2569.0,-419.0,-1189.0,1.0
2022-05-13 12:24:13.651460-07:00,2063.5,610.8,1603.0,1561.8,1273.9,1687.2,1583.3,1967.7,3441.9,3437.0,2148.3,1618.1,2087.6,3446.7,1306.1,1691.0,3438.2,3440.7,793.5,1281.9,985.0,585.1,1951.9,2662.4,3439.5,3449.1,1447.0,1297.2,1474.6,1689.1,1406.7,1421.3,-100.0,-47.0,-312.0,-4504.0,-3957.0,8115.0,12909.0,-3456.0,-1440.0,-350.0,59.0,-14.0,-224.0,-5519.0,-3708.0,5054.0,14096.0,-2473.0,-635.0,-1042.0,1.0
2022-05-13 12:24:13.653647-07:00,2063.5,610.8,1603.0,1563.7,1272.1,1793.6,1608.7,1964.7,3441.9,3437.0,2148.3,1600.2,2086.6,3440.7,1305.2,1694.8,3437.0,3433.4,786.9,1278.3,993.6,585.1,1951.9,2662.4,3443.1,3440.7,1408.5,1306.1,1478.3,1689.1,1406.7,1421.3,43.0,-173.0,-213.0,-4434.0,-2992.0,7126.0,13749.0,-3047.0,-1743.0,206.0,180.0,-124.0,-186.0,-5287.0,-3228.0,4139.0,14592.0,-2286.0,-666.0,-918.0,1.0
2022-05-13 12:24:13.696791-07:00,2094.7,610.0,1631.3,1564.6,1272.1,1793.6,1608.7,1964.7,3439.5,3449.1,2152.4,1605.8,2086.6,3440.7,1305.2,1694.8,3437.0,3433.4,786.9,1278.3,1007.3,587.5,1980.6,2659.1,3443.1,3440.7,1408.5,1306.1,1466.3,1693.8,1413.1,1417.6,142.0,-220.0,-178.0,-4436.0,-2014.0,6249.0,14341.0,-2871.0,-1518.0,293.0,153.0,-189.0,-201.0,-5062.0,-2780.0,3378.0,14956.0,-1590.0,-694.0,-622.0,1.0
2022-05-13 12:24:13.830006-07:00,2094.7,610.0,1631.3,1564.6,1271.2,1857.6,1642.6,2036.4,3439.5,3449.1,2152.4,1605.8,2082.6,3451.6,1303.4,1703.3,3444.3,3441.9,791.9,1282.8,1007.3,587.5,1980.6,2659.1,3444.3,3441.9,1397.6,1374.8,1466.3,1693.8,1413.1,1417.6,89.0,-297.0,-196.0,-4479.0,-1038.0,5506.0,14730.0,-1913.0,-1631.0,674.0,174.0,-248.0,-149.0,-4900.0,-2345.0,2859.0,15191.0,-1130.0,-731.0,-339.0,1.0
2022-05-13 12:24:14.010384-07:00,2133.1,614.1,1610.5,1563.7,1271.2,1857.6,1642.6,2036.4,3449.1,3444.3,2124.0,1614.3,2082.6,3451.6,1303.4,1703.3,3444.3,3441.9,791.9,1282.8,1045.2,590.7,2018.4,2661.3,3444.3,3441.9,1397.6,1374.8,1465.4,1703.3,1414.9,1421.3,90.0,-309.0,-96.0,-4541.0,-179.0,5022.0,14918.0,-1250.0,-1206.0,535.0,168.0,-91.0,-85.0,-4817.0,-1954.0,2528.0,15330.0,-1162.0,-613.0,-62.0,1.0
2022-05-13 12:24:14.011743-07:00,2133.1,614.1,1610.5,1563.7,1273.9,1991.5,1643.5,2031.4,3449.1,3444.3,2124.0,1614.3,2097.7,3438.2,1295.4,1699.5,3437.0,3445.5,788.6,1287.3,1045.2,590.7,2018.4,2661.3,3450.4,3438.2,1373.0,1411.3,1465.4,1703.3,1414.9,1421.3,110.0,-170.0,-14.0,-4637.0,432.0,4729.0,14979.0,-1189.0,-700.0,709.0,136.0,-155.0,-69.0,-4835.0,-1583.0,2145.0,15426.0,-737.0,-478.0,42.0,1.0
2022-05-13 12:24:14.056911-07:00,2131.1,608.4,1594.6,1559.9,1273.9,1991.5,1643.5,1987.5,3443.1,3443.1,2084.6,1588.9,2097.7,3438.2,1295.4,1699.5,3437.0,3445.5,788.6,1287.3,1072.9,592.3,1994.5,2659.1,3450.4,3438.2,1373.0,1411.3,1467.2,1689.1,1403.0,1426.8,87.0,-132.0,13.0,-4794.0,841.0,4342.0,15030.0,-601.0,-155.0,294.0,51.0,89.0,100.0,-4834.0,-1406.0,2041.0,15457.0,-116.0,-127.0,-27.0,1.0
2022-05-13 12:24:14.058166-07:00,2104.8,608.4,1594.6,1559.9,1281.0,2007.4,1636.0,1987.5,3440.7,3443.1,2084.6,1588.9,2078.5,3433.4,1284.6,1690.0,3443.1,3451.6,800.2,1280.1,1072.9,592.3,1994.5,2643.9,3438.2,3454.0,1340.4,1445.1,1467.2,1689.1,1403.0,1441.5,85.0,36.0,70.0,-4825.0,720.0,4244.0,15054.0,-172.0,670.0,-138.0,-16.0,-102.0,-35.0,-4861.0,-1280.0,1846.0,15484.0,-599.0,-158.0,103.0,1.0
2022-05-13 12:24:14.059454-07:00,2104.8,614.1,1711.0,1583.3,1281.0,2007.4,1636.0,2194.2,3440.7,3438.2,2062.5,1582.4,2078.5,3433.4,1284.6,1706.2,3451.6,3451.6,800.2,1280.1,1071.2,589.9,2037.4,2643.9,3449.1,3454.0,1340.4,1445.1,1460.8,1732.0,1448.8,1441.5,-48.0,-57.0,-8.0,-4880.0,495.0,3967.0,15121.0,-361.0,849.0,-75.0,12.0,-21.0,75.0,-4900.0,-1165.0,1782.0,15488.0,-109.0,-243.0,105.0,1.0
2022-05-13 12:24:14.100285-07:00,2093.7,614.1,1711.0,1583.3,1340.4,2034.4,1760.8,2194.2,3432.2,3438.2,2062.5,1582.4,2081.6,3446.7,1345.8,1706.2,3451.6,3439.5,786.9,1288.2,1071.2,589.9,2037.4,2660.2,3449.1,3445.5,1323.2,1535.7,1460.8,1732.0,1448.8,1480.1,2.0,3.0,96.0,-4889.0,197.0,3813.0,15164.0,-148.0,774.0,-209.0,4.0,49.0,91.0,-4949.0,-1093.0,1813.0,15475.0,260.0,-132.0,105.0,1.0
2022-05-13 12:24:14.101522-07:00,2093.7,614.9,1868.4,1627.5,1340.4,2034.4,1760.8,2631.9,3432.2,3437.0,2087.6,1593.6,2081.6,3446.7,1345.8,1787.8,3441.9,3439.5,786.9,1288.2,1059.1,591.5,2166.7,2660.2,3440.7,3445.5,1323.2,1535.7,1478.3,1868.4,1622.8,1480.1,-7.0,109.0,76.0,-4883.0,-73.0,3728.0,15188.0,68.0,498.0,-169.0,-4.0,33.0,-9.0,-4941.0,-1054.0,1926.0,15466.0,260.0,-220.0,-27.0,1.0
2022-05-13 12:24:14.144523-07:00,2078.5,614.9,1868.4,1627.5,1389.4,2082.6,1886.0,2631.9,3441.9,3437.0,2087.6,1593.6,2207.5,3455.2,1504.1,1787.8,3441.9,3439.5,789.4,1295.4,1059.1,591.5,2166.7,2807.9,3440.7,3446.7,1288.2,1546.9,1478.3,1868.4,1622.8,1545.9,-17.0,37.0,-26.0,-4853.0,-267.0,3618.0,15223.0,-96.0,425.0,-148.0,2.0,22.0,-2.0,-4919.0,-990.0,2026.0,15465.0,132.0,-189.0,-4.0,1.0
2022-05-13 12:24:14.191984-07:00,2078.5,614.1,1887.9,1671.0,1389.4,2082.6,1916.4,2494.0,3441.9,3443.1,2189.1,1622.8,2207.5,3455.2,1577.7,1842.0,3437.0,3438.2,789.4,1295.4,1047.8,591.5,2160.5,2807.9,3439.5,3443.1,1288.2,1546.9,1532.0,1917.4,1676.7,1545.9,-23.0,30.0,11.0,-4841.0,-431.0,3500.0,15250.0,-114.0,467.0,-147.0,-17.0,-8.0,3.0,-4911.0,-957.0,2092.0,15460.0,115.0,-75.0,20.0,1.0
2022-05-13 12:24:14.236665-07:00,2079.5,615.7,1887.9,1671.0,1429.5,2059.4,1916.4,2494.0,3440.7,3454.0,2189.1,1622.8,2275.5,3451.6,1577.7,1842.0,3437.0,3438.2,788.6,1299.8,1047.8,591.5,2179.9,2986.0,3439.5,3443.1,1276.5,1533.8,1532.0,1917.4,1711.9,1558.1,-46.0,29.0,26.0,-4834.0,-594.0,3426.0,15264.0,-15.0,331.0,-87.0,2.0,-1.0,13.0,-4924.0,-953.0,2139.0,15450.0,96.0,-35.0,72.0,1.0
2022-05-13 12:24:14.324617-07:00,2079.5,615.7,1892.8,1699.5,1429.5,2059.4,1922.3,2342.0,3440.7,3454.0,2448.3,1688.1,2275.5,3451.6,1620.9,1887.9,3439.5,3443.1,788.6,1299.8,1034.9,595.5,2179.9,2986.0,3439.5,3435.8,1276.5,1533.8,1554.3,1933.1,1711.9,1558.1,-28.0,-20.0,3.0,-4799.0,-778.0,3366.0,15280.0,50.0,403.0,-180.0,-1.0,-17.0,41.0,-4960.0,-942.0,2176.0,15434.0,105.0,-19.0,97.0,1.0
2022-05-13 12:24:14.369481-07:00,2083.6,618.9,1892.8,1699.5,1455.2,2070.5,1922.3,2342.0,3440.7,3444.3,2448.3,1688.1,2259.0,3444.3,1620.9,1887.9,3439.5,3443.1,791.0,1294.5,1034.9,595.5,2163.6,3030.6,3439.5,3435.8,1264.0,1528.3,1554.3,1933.1,1727.2,1574.9,-27.0,11.0,34.0,-4769.0,-921.0,3356.0,15283.0,106.0,179.0,-139.0,0.0,23.0,36.0,-4986.0,-946.0,2232.0,15418.0,152.0,-15.0,50.0,1.0
2022-05-13 12:24:14.415400-07:00,2083.6,618.9,1885.0,1721.5,1455.2,2070.5,1911.5,2246.6,3440.7,3444.3,2600.4,1733.0,2259.0,3444.3,1633.1,1947.9,3444.3,3435.8,791.0,1294.5,1033.2,593.1,2163.6,3030.6,3444.3,3437.0,1264.0,1528.3,1638.8,1942.0,1727.2,1574.9,-14.0,18.0,65.0,-4711.0,-988.0,3402.0,15287.0,174.0,22.0,-109.0,51.0,34.0,27.0,-5008.0,-961.0,2288.0,15401.0,117.0,8.0,50.0,1.0
2022-05-13 12:24:14.459577-07:00,2085.6,623.0,1847.9,1721.5,1453.4,2051.4,1911.5,2246.6,3439.5,3443.1,2558.3,1733.0,2159.5,3451.6,1633.1,1947.9,3444.3,3435.8,787.7,1294.5,1033.2,595.5,2123.0,2830.2,3444.3,3437.0,1256.0,1508.8,1638.8,1928.2,1713.8,1573.0,21.0,21.0,-3.0,-4644.0,-1065.0,3469.0,15287.0,235.0,95.0,-152.0,27.0,73.0,60.0,-4994.0,-976.0,2280.0,15406.0,-158.0,63.0,-90.0,1.0
2022-05-13 12:24:14.504755-07:00,2085.6,623.0,1847.9,1710.0,1453.4,2034.4,1902.6,2196.3,3439.5,3443.1,2558.3,1714.8,2159.5,3444.3,1612.4,1912.4,3435.8,3431.0,791.0,1294.5,1032.3,595.5,2123.0,2830.2,3445.5,3447.9,1256.9,1508.8,1622.8,1928.2,1713.8,1573.0,29.0,129.0,127.0,-4635.0,-1037.0,3515.0,15281.0,-98.0,-170.0,63.0,21.0,74.0,162.0,-4957.0,-1088.0,2204.0,15421.0,51.0,449.0,-174.0,1.0
2022-05-13 12:24:14.594887-07:00,2068.5,625.4,1819.7,1710.0,1425.9,2034.4,1902.6,2196.3,3447.9,3433.4,2504.7,1714.8,2186.0,3444.3,1612.4,1912.4,3435.8,3431.0,791.0,1293.6,1032.3,593.9,2082.6,2758.0,3445.5,3447.9,1256.9,1497.7,1622.8,1911.5,1687.2,1546.9,-3.0,103.0,173.0,-4613.0,-1104.0,3482.0,15291.0,116.0,314.0,-116.0,-29.0,15.0,40.0,-4895.0,-1343.0,2129.0,15432.0,-20.0,628.0,-253.0,1.0
2022-05-13 12:24:14.640674-07:00,2068.5,625.4,1819.7,1702.4,1425.9,2035.4,1890.9,2163.6,3447.9,3433.4,2504.7,1696.7,2186.0,3449.1,1586.1,1904.6,3440.7,3449.1,788.6,1293.6,1027.1,593.9,2082.6,2758.0,3447.9,3447.9,1239.1,1497.7,1622.8,1911.5,1687.2,1546.9,-14.0,69.0,77.0,-4607.0,-1225.0,3455.0,15290.0,-10.0,277.0,-113.0,-19.0,48.0,0.0,-4816.0,-1625.0,2047.0,15440.0,3.0,639.0,-292.0,1.0
2022-05-13 12:24:14.643062-07:00,2070.5,627.8,1811.0,1702.4,1417.6,2035.4,1890.9,2163.6,3449.1,3444.3,2481.3,1696.7,2164.6,3449.1,1586.1,1904.6,3440.7,3449.1,788.6,1282.8,1027.1,593.1,2067.5,2770.2,3447.9,3447.9,1239.1,1481.9,1622.8,1894.8,1687.2,1521.8,-29.0,48.0,-6.0,-4548.0,-1424.0,3422.0,15297.0,39.0,469.0,-281.0,-12.0,-35.0,-67.0,-4738.0,-1866.0,1911.0,15455.0,-136.0,544.0,-270.0,1.0
2022-05-13 12:24:14.686197-07:00,2070.5,627.8,1811.0,1683.3,1417.6,2007.4,1885.0,2151.4,3449.1,3444.3,2481.3,1698.6,2164.6,3434.6,1596.4,1888.9,3434.6,3433.4,784.4,1282.8,1025.4,593.1,2067.5,2770.2,3440.7,3432.2,1236.4,1481.9,1608.7,1894.8,1687.2,1521.8,-35.0,-42.0,-85.0,-4486.0,-1611.0,3320.0,15320.0,-126.0,355.0,-236.0,2.0,-28.0,-112.0,-4670.0,-2050.0,1811.0,15464.0,-79.0,372.0,-203.0,1.0
2022-05-13 12:24:14.820770-07:00,2071.5,627.8,1807.1,1680.5,1402.1,2007.4,1885.0,2151.4,3444.3,3443.1,2447.3,1687.2,2172.8,3434.6,1596.4,1888.9,3434.6,3433.4,784.4,1292.7,1024.5,587.5,2065.5,2799.0,3440.7,3432.2,1236.4,1475.5,1602.1,1886.9,1675.7,1506.9,-34.0,-65.0,-151.0,-4436.0,-1743.0,3245.0,15336.0,-89.0,272.0,-150.0,11.0,-76.0,-168.0,-4634.0,-2145.0,1733.0,15471.0,-57.0,161.0,-74.0,1.0
2022-05-13 12:24:14.822113-07:00,2071.5,627.8,1807.1,1680.5,1404.9,2002.5,1867.4,2160.5,3444.3,3443.1,2447.3,1687.2,2151.4,3444.3,1573.9,1881.1,3438.2,3450.4,787.7,1286.4,1024.5,587.5,2065.5,2799.0,3441.9,3445.5,1229.3,1470.9,1602.1,1886.9,1675.7,1506.9,-16.0,-83.0,-155.0,-4418.0,-1784.0,3191.0,15348.0,-36.0,73.0,-46.0,14.0,-29.0,-107.0,-4638.0,-2172.0,1709.0,15469.0,-25.0,26.0,34.0,1.0
2022-05-13 12:24:14.867351-07:00,2066.5,618.1,1800.3,1668.2,1404.9,2002.5,1867.4,2160.5,3441.9,3447.9,2436.7,1684.3,2151.4,3444.3,1573.9,1881.1,3438.2,3450.4,787.7,1286.4,1025.4,589.9,2048.4,2800.1,3441.9,3445.5,1229.3,1470.9,1605.8,1896.7,1673.8,1501.4,-13.0,-57.0,-133.0,-4415.0,-1810.0,3174.0,15349.0,1.0,-7.0,55.0,18.0,9.0,-62.0,-4656.0,-2160.0,1727.0,15463.0,87.0,-59.0,41.0,1.0
