Time,P0,P1,P2,P3,P4,P5,P6,P7,P8,P9,P10,P11,P12,P13,P14,P15,P16,P17,P18,P19,P20,P21,P22,P23,P24,P25,P26,P27,P28,P29,P30,P31,ECG,AX0,AY0,AZ0,QW0,QX0,QY0,QZ0,GX0,GY0,GZ0,AX1,AY1,AZ1,QW1,QX1,QY1,QZ1,GX1,GY1,GZ1
2022-05-13 12:34:22.571064-07:00,1280.1,898.3,1183.2,1030.6,984.2,780.3,1791.6,1396.7,3473.4,3464.9,1134.9,918.6,1728.2,3466.1,1447.9,1387.5,3480.7,3471.0,409.8,637.6,934.7,1167.4,583.5,2524.0,3483.2,3473.4,658.7,862.9,2238.4,1137.5,1073.8,922.0,0.0,8.0,93.0,9739.0,-9332.0,7772.0,-5109.0,169.0,-154.0,107.0,3.0,-10.0,29.0,8557.0,-12434.0,5487.0,-3239.0,242.0,-80.0,-24.0,1.0
2022-05-13 12:34:22.661301-07:00,1289.1,898.3,1183.2,1030.6,986.7,780.3,1791.6,1396.7,3473.4,3473.4,1134.0,918.6,1730.1,3466.1,1447.9,1387.5,3480.7,3471.0,409.8,640.0,934.7,1167.4,587.5,2535.8,3483.2,3473.4,658.7,868.8,2238.4,1132.2,1070.3,926.2,-5.0,19.0,81.0,9783.0,-9288.0,7769.0,-5108.0,67.0,62.0,47.0,-4.0,-4.0,26.0,8606.0,-12406.0,5467.0,-3251.0,51.0,6.0,8.0,1.0
2022-05-13 12:34:22.707210-07:00,1289.1,898.3,1183.2,1032.3,986.7,781.1,1803.2,1414.0,3473.4,3473.4,1134.0,927.9,1730.1,3472.2,1463.5,1393.9,3477.1,3466.1,407.5,640.0,938.1,1167.4,587.5,2535.8,3484.4,3478.3,652.2,868.8,2244.5,1132.2,1070.3,926.2,-3.0,-3.0,32.0,9786.0,-9228.0,7808.0,-5152.0,-2.0,226.0,68.0,0.0,-8.0,7.0,8603.0,-12402.0,5480.0,-3254.0,-67.0,64.0,36.0,1.0
2022-05-13 12:34:22.709439-07:00,1282.8,890.7,1182.3,1021.9,983.3,781.1,1803.2,1414.0,3474.6,3467.4,1135.7,923.7,1730.1,3472.2,1463.5,1393.9,3477.1,3466.1,407.5,636.7,939.8,1173.5,583.5,2534.7,3484.4,3478.3,652.2,867.1,2237.3,1141.9,1087.7,922.8,4.0,10.0,-1.0,9748.0,-9182.0,7889.0,-5184.0,-15.0,216.0,86.0,8.0,-1.0,-8.0,8574.0,-12404.0,5518.0,-3257.0,-64.0,55.0,38.0,1.0
2022-05-13 12:34:22.797266-07:00,1282.8,890.7,1182.3,1021.9,986.7,783.6,1803.2,1404.9,3474.6,3467.4,1135.7,923.7,1726.3,3475.9,1474.6,1394.8,3481.9,3477.1,412.1,637.6,939.8,1173.5,583.5,2534.7,3483.2,3478.3,654.6,869.6,2237.3,1141.9,1087.7,922.8,4.0,19.0,-18.0,9718.0,-9157.0,7946.0,-5198.0,-28.0,85.0,32.0,5.0,1.0,-11.0,8557.0,-12408.0,5536.0,-3256.0,-39.0,17.0,15.0,1.0
2022-05-13 12:34:22.886423-07:00,1281.9,899.1,1189.4,1033.2,986.7,783.6,1803.2,1404.9,3462.5,3475.9,1130.5,926.2,1726.3,3475.9,1474.6,1394.8,3481.9,3477.1,412.1,637.6,939.8,1173.5,595.5,2526.1,3483.2,3478.3,654.6,869.6,2243.5,1140.1,1082.5,915.2,-5.0,1.0,-4.0,9715.0,-9159.0,7945.0,-5200.0,32.0,-44.0,-17.0,-1.0,-4.0,-4.0,8551.0,-12411.0,5539.0,-3255.0,32.0,-13.0,-14.0,1.0
2022-05-13 12:34:22.888254-07:00,1281.9,899.1,1189.4,1033.2,984.2,773.6,1804.2,1404.9,3462.5,3475.9,1130.5,926.2,1731.1,3462.5,1474.6,1397.6,3474.6,3472.2,405.9,636.7,939.8,1173.5,595.5,2526.1,3475.9,3477.1,658.7,868.8,2243.5,1140.1,1082.5,915.2,-2.0,11.0,9.0,9744.0,-9162.0,7914.0,-5187.0,19.0,-106.0,-6.0,-3.0,-1.0,0.0,8572.0,-12403.0,5522.0,-3259.0,44.0,-34.0,-22.0,1.0
2022-05-13 12:34:22.931262-07:00,1289.1,896.6,1186.7,1032.3,984.2,773.6,1804.2,1404.9,3464.9,3464.9,1132.2,927.9,1731.1,3462.5,1474.6,1397.6,3474.6,3472.2,405.9,636.7,939.8,1167.4,585.9,2506.9,3475.9,3477.1,658.7,868.8,2242.5,1139.2,1088.6,925.4,4.0,4.0,22.0,9775.0,-9176.0,7873.0,-5168.0,51.0,-130.0,-29.0,2.0,-3.0,5.0,8591.0,-12399.0,5502.0,-3261.0,77.0,-31.0,-31.0,1.0
2022-05-13 12:34:22.976182-07:00,1277.4,896.6,1186.7,1032.3,985.0,780.3,1797.4,1417.6,3471.0,3464.9,1132.2,927.9,1717.7,3469.8,1470.9,1393.9,3467.4,3477.1,402.8,633.5,939.8,1167.4,585.9,2519.7,3477.1,3478.3,663.6,861.2,2242.5,1139.2,1088.6,918.6,1.0,2.0,25.0,9810.0,-9177.0,7827.0,-5170.0,45.0,-77.0,-32.0,3.0,-2.0,5.0,8618.0,-12387.0,5479.0,-3270.0,54.0,-26.0,-23.0,1.0
2022-05-13 12:34:23.021736-07:00,1277.4,894.9,1193.8,1028.8,985.0,780.3,1797.4,1397.6,3471.0,3477.1,1141.0,922.8,1717.7,3469.8,1470.9,1389.4,3469.8,3477.1,402.8,633.5,943.2,1175.3,592.3,2519.7,3472.2,3478.3,663.6,861.2,2255.9,1145.4,1081.6,918.6,2.0,1.0,24.0,9826.0,-9183.0,7803.0,-5164.0,-9.0,-47.0,-10.0,2.0,-5.0,7.0,8629.0,-12385.0,5466.0,-3271.0,6.0,-9.0,-10.0,1.0
2022-05-13 12:34:23.065950-07:00,1281.9,894.9,1193.8,1028.8,986.7,781.9,1799.4,1397.6,3471.0,3477.1,1141.0,922.8,1727.2,3481.9,1466.3,1389.4,3469.8,3471.0,409.0,637.6,943.2,1175.3,592.3,2506.9,3472.2,3471.0,658.7,873.0,2255.9,1145.4,1081.6,922.0,-1.0,3.0,19.0,9840.0,-9178.0,7791.0,-5165.0,36.0,-5.0,6.0,-1.0,-6.0,6.0,8634.0,-12382.0,5464.0,-3274.0,27.0,-5.0,-2.0,1.0
2022-05-13 12:34:23.114461-07:00,1281.9,888.2,1192.9,1026.3,986.7,781.9,1799.4,1401.2,3471.0,3466.1,1140.1,929.6,1727.2,3481.9,1466.3,1395.7,3481.9,3471.0,409.0,637.6,943.2,1172.6,584.3,2506.9,3483.2,3471.0,658.7,873.0,2238.4,1138.4,1082.5,922.0,0.0,8.0,11.0,9841.0,-9178.0,7790.0,-5165.0,-37.0,-3.0,-13.0,3.0,0.0,3.0,8637.0,-12380.0,5463.0,-3275.0,-28.0,-1.0,2.0,1.0
2022-05-13 12:34:23.158666-07:00,1271.2,888.2,1192.9,1026.3,979.9,778.6,1799.4,1401.2,3467.4,3466.1,1140.1,929.6,1723.4,3471.0,1463.5,1395.7,3481.9,3478.3,406.7,640.8,943.2,1172.6,584.3,2507.9,3483.2,3472.2,657.9,865.4,2238.4,1138.4,1082.5,922.0,0.0,5.0,8.0,9841.0,-9179.0,7787.0,-5166.0,17.0,-10.0,0.0,0.0,-3.0,1.0,8632.0,-12384.0,5465.0,-3273.0,11.0,5.0,-1.0,1.0
2022-05-13 12:34:23.247387-07:00,1271.2,892.4,1193.8,1026.3,979.9,778.6,1800.3,1401.2,3467.4,3478.3,1134.0,925.4,1723.4,3471.0,1470.9,1382.1,3480.7,3479.5,406.7,640.8,934.7,1172.6,583.5,2507.9,3473.4,3478.3,657.9,865.4,2244.5,1140.1,1079.9,922.0,0.0,2.0,9.0,9843.0,-9179.0,7785.0,-5166.0,-7.0,10.0,3.0,0.0,-3.0,0.0,8633.0,-12383.0,5464.0,-3274.0,-11.0,-2.0,-2.0,1.0
2022-05-13 12:34:23.291367-07:00,1277.4,888.2,1193.8,1026.3,990.2,779.4,1800.3,1401.2,3471.0,3472.2,1134.0,925.4,1725.3,3468.6,1470.9,1382.1,3480.7,3479.5,409.8,633.5,934.7,1172.6,586.7,2497.2,3473.4,3478.3,657.0,863.7,2244.5,1140.1,1077.3,915.2,1.0,7.0,13.0,9842.0,-9178.0,7790.0,-5164.0,0.0,-2.0,12.0,0.0,-3.0,6.0,8631.0,-12384.0,5465.0,-3273.0,9.0,-5.0,-1.0,1.0
2022-05-13 12:34:23.382999-07:00,1277.4,888.2,1194.7,1026.3,990.2,779.4,1798.4,1403.0,3471.0,3472.2,1136.6,925.4,1725.3,3468.6,1458.0,1393.0,3467.4,3475.9,409.8,633.5,937.3,1170.9,586.7,2497.2,3480.7,3475.9,657.0,863.7,2250.7,1134.0,1077.3,915.2,2.0,5.0,15.0,9842.0,-9178.0,7789.0,-5164.0,-16.0,-6.0,-11.0,3.0,-3.0,3.0,8631.0,-12384.0,5465.0,-3273.0,-14.0,6.0,2.0,1.0
2022-05-13 12:34:23.384691-07:00,1281.9,884.8,1194.7,1026.3,997.0,779.4,1798.4,1403.0,3467.4,3473.4,1136.6,925.4,1728.2,3468.6,1458.0,1393.0,3467.4,3475.9,405.9,635.1,937.3,1170.9,581.8,2499.4,3480.7,3475.9,653.8,862.9,2250.7,1134.0,1080.8,932.2,0.0,6.0,11.0,9841.0,-9180.0,7789.0,-5163.0,7.0,4.0,-7.0,2.0,-2.0,5.0,8629.0,-12386.0,5465.0,-3272.0,1.0,3.0,-2.0,1.0
2022-05-13 12:34:23.472941-07:00,1281.9,884.8,1190.3,1022.8,997.0,779.4,1795.5,1389.4,3467.4,3473.4,1129.6,926.2,1728.2,3468.6,1467.2,1385.7,3478.3,3488.0,405.9,635.1,940.7,1174.4,581.8,2499.4,3483.2,3483.2,653.8,862.9,2239.4,1130.5,1080.8,932.2,1.0,8.0,7.0,9844.0,-9177.0,7787.0,-5165.0,5.0,3.0,2.0,0.0,0.0,4.0,8629.0,-12386.0,5465.0,-3272.0,-1.0,-1.0,1.0,1.0
2022-05-13 12:34:23.474153-07:00,1281.9,892.4,1190.3,1022.8,987.6,780.3,1795.5,1389.4,3466.1,3468.6,1129.6,926.2,1718.6,3475.9,1467.2,1385.7,3478.3,3488.0,410.6,633.5,940.7,1174.4,585.1,2495.1,3483.2,3483.2,661.1,857.9,2239.4,1130.5,1084.2,912.7,2.0,2.0,9.0,9844.0,-9177.0,7787.0,-5166.0,9.0,4.0,-1.0,0.0,-4.0,1.0,8629.0,-12386.0,5465.0,-3272.0,3.0,0.0,-6.0,1.0
2022-05-13 12:34:23.516083-07:00,1281.9,892.4,1187.6,1026.3,987.6,772.0,1805.2,1394.8,3466.1,3468.6,1132.2,924.5,1718.6,3472.2,1451.6,1395.7,3479.5,3478.3,408.2,633.5,939.8,1169.1,585.1,2495.1,3479.5,3471.0,653.0,857.9,2238.4,1128.7,1084.2,912.7,0.0,6.0,7.0,9851.0,-9169.0,7783.0,-5171.0,21.0,1.0,7.0,1.0,-3.0,5.0,8636.0,-12381.0,5463.0,-3275.0,22.0,1.0,-2.0,1.0
2022-05-13 12:34:23.562171-07:00,1275.6,887.3,1179.7,1026.3,988.5,772.0,1805.2,1394.8,3474.6,3477.1,1134.9,924.5,1726.3,3472.2,1451.6,1395.7,3479.5,3478.3,408.2,635.9,939.8,1177.0,589.1,2493.0,3479.5,3471.0,653.0,864.6,2238.4,1134.9,1078.2,918.6,0.0,2.0,14.0,9854.0,-9166.0,7784.0,-5170.0,-1.0,-1.0,11.0,1.0,-8.0,7.0,8637.0,-12380.0,5463.0,-3276.0,-2.0,-8.0,-3.0,1.0
2022-05-13 12:34:23.607204-07:00,1275.6,887.3,1179.7,1031.4,988.5,776.9,1800.3,1401.2,3474.6,3477.1,1134.9,924.5,1726.3,3475.9,1462.6,1392.1,3478.3,3479.5,414.5,635.9,934.7,1177.0,589.1,2493.0,3483.2,3474.6,660.3,864.6,2237.3,1134.9,1078.2,918.6,2.0,9.0,10.0,9863.0,-9161.0,7777.0,-5172.0,28.0,-16.0,0.0,1.0,-1.0,1.0,8645.0,-12374.0,5461.0,-3279.0,26.0,-4.0,-6.0,1.0
2022-05-13 12:34:23.782535-07:00,1266.7,887.3,1192.9,1031.4,985.0,776.9,1800.3,1401.2,3466.1,3473.4,1136.6,924.5,1720.5,3475.9,1462.6,1392.1,3478.3,3479.5,414.5,631.1,934.7,1170.0,580.2,2488.7,3483.2,3474.6,660.3,857.9,2237.3,1140.1,1099.9,921.1,-4.0,-3.0,14.0,9866.0,-9158.0,7775.0,-5174.0,2.0,-5.0,3.0,2.0,-9.0,8.0,8647.0,-12373.0,5460.0,-3280.0,3.0,-6.0,-4.0,1.0
2022-05-13 12:34:23.790753-07:00,1266.7,887.3,1192.9,1030.6,985.0,772.0,1797.4,1393.0,3466.1,3473.4,1136.6,926.2,1720.5,3468.6,1458.0,1406.7,3479.5,3466.1,403.5,631.1,939.0,1170.0,580.2,2488.7,3484.4,3474.6,654.6,857.9,2244.5,1140.1,1099.9,921.1,0.0,8.0,8.0,9871.0,-9151.0,7775.0,-5176.0,18.0,11.0,9.0,2.0,-1.0,7.0,8653.0,-12369.0,5459.0,-3283.0,11.0,1.0,2.0,1.0
2022-05-13 12:34:23.791687-07:00,1270.3,873.0,1188.5,1024.5,985.9,772.0,1797.4,1393.0,3472.2,3477.1,1136.6,916.0,1726.3,3468.6,1458.0,1406.7,3479.5,3466.1,403.5,635.1,930.5,1172.6,585.9,2497.2,3484.4,3474.6,654.6,865.4,2241.4,1136.6,1062.5,922.0,0.0,-1.0,7.0,9872.0,-9150.0,7775.0,-5177.0,-10.0,8.0,2.0,2.0,0.0,1.0,8651.0,-12370.0,5459.0,-3282.0,-12.0,-1.0,0.0,1.0
2022-05-13 12:34:23.891210-07:00,1270.3,873.0,1188.5,1024.5,981.6,774.5,1786.8,1390.3,3472.2,3477.1,1136.6,916.0,1718.6,3477.1,1462.6,1393.0,3478.3,3479.5,409.8,631.1,930.5,1172.6,585.9,2497.2,3477.1,3480.7,656.2,859.5,2241.4,1136.6,1062.5,922.0,2.0,5.0,9.0,9868.0,-9155.0,7778.0,-5173.0,-13.0,-6.0,5.0,5.0,-2.0,4.0,8647.0,-12373.0,5460.0,-3280.0,3.0,-3.0,1.0,1.0
2022-05-13 12:34:23.966308-07:00,1278.3,885.6,1196.5,1026.3,981.6,774.5,1786.8,1390.3,3466.1,3467.4,1131.4,927.9,1718.6,3477.1,1462.6,1393.0,3478.3,3479.5,409.8,631.1,938.1,1167.4,590.7,2496.2,3477.1,3480.7,656.2,859.5,2235.3,1136.6,1074.7,922.8,0.0,3.0,9.0,9869.0,-9154.0,7778.0,-5173.0,3.0,1.0,-9.0,1.0,-1.0,1.0,8647.0,-12373.0,5460.0,-3280.0,-1.0,0.0,-3.0,1.0
2022-05-13 12:34:23.968913-07:00,1278.3,885.6,1196.5,1026.3,985.9,770.3,1784.9,1392.1,3466.1,3467.4,1131.4,927.9,1723.4,3474.6,1461.7,1393.0,3467.4,3464.9,402.8,640.8,938.1,1167.4,590.7,2496.2,3475.9,3479.5,651.4,861.2,2235.3,1136.6,1074.7,922.8,-3.0,0.0,10.0,9870.0,-9153.0,7777.0,-5173.0,9.0,-2.0,3.0,-1.0,-4.0,6.0,8649.0,-12372.0,5460.0,-3281.0,20.0,-3.0,-1.0,1.0
2022-05-13 12:34:23.970633-07:00,1268.5,885.6,1187.6,1032.3,985.9,770.3,1784.9,1392.1,3462.5,3474.6,1133.1,933.9,1723.4,3474.6,1461.7,1393.0,3467.4,3464.9,402.8,640.8,936.4,1174.4,585.1,2498.3,3475.9,3479.5,651.4,861.2,2228.1,1119.1,1076.4,925.4,-1.0,8.0,7.0,9873.0,-9150.0,7776.0,-5175.0,3.0,0.0,-4.0,3.0,-1.0,6.0,8651.0,-12371.0,5459.0,-3282.0,-14.0,-4.0,-4.0,1.0
2022-05-13 12:34:24.056390-07:00,1271.2,885.6,1187.6,1032.3,985.0,777.8,1785.8,1390.3,3467.4,3474.6,1133.1,933.9,1731.1,3461.3,1451.6,1387.5,3478.3,3477.1,405.1,642.4,936.4,1174.4,585.1,2494.0,3467.4,3477.1,656.2,867.9,2228.1,1119.1,1076.4,919.4,3.0,-1.0,10.0,9872.0,-9151.0,7775.0,-5175.0,5.0,-6.0,-3.0,0.0,0.0,2.0,8651.0,-12370.0,5459.0,-3282.0,16.0,-5.0,-4.0,1.0
2022-05-13 12:34:24.057667-07:00,1271.2,881.4,1264.9,1061.7,985.0,777.8,1785.8,1385.7,3467.4,3475.9,1133.1,932.2,1731.1,3461.3,1451.6,1390.3,3469.8,3477.1,405.1,642.4,935.6,1171.8,582.6,2494.0,3473.4,3477.1,656.2,867.9,2234.2,1140.1,1076.4,919.4,2.0,5.0,4.0,9876.0,-9146.0,7775.0,-5177.0,14.0,5.0,12.0,3.0,-4.0,4.0,8658.0,-12365.0,5457.0,-3285.0,29.0,-4.0,1.0,1.0
2022-05-13 12:34:24.236304-07:00,1269.4,881.4,1264.9,1061.7,984.2,780.3,1784.9,1385.7,3467.4,3475.9,1133.1,932.2,1719.6,3467.4,1457.1,1390.3,3469.8,3474.6,402.8,628.6,935.6,1171.8,582.6,2496.2,3473.4,3474.6,658.7,856.2,2234.2,1140.1,1076.4,927.9,0.0,2.0,12.0,9873.0,-9140.0,7786.0,-5177.0,-18.0,32.0,17.0,1.0,-7.0,8.0,8659.0,-12365.0,5457.0,-3285.0,-7.0,5.0,2.0,1.0
2022-05-13 12:34:24.238527-07:00,1269.4,892.4,1338.6,1089.5,984.2,780.3,1784.9,1389.4,3467.4,3471.0,1128.7,927.9,1719.6,3467.4,1457.1,1390.3,3475.9,3474.6,402.8,628.6,932.2,1170.0,584.3,2496.2,3479.5,3474.6,658.7,856.2,2227.0,1137.5,1070.3,927.9,0.0,8.0,9.0,9874.0,-9135.0,7790.0,-5179.0,20.0,5.0,-1.0,0.0,-1.0,7.0,8661.0,-12363.0,5456.0,-3286.0,5.0,8.0,-2.0,1.0
2022-05-13 12:34:24.239878-07:00,1270.3,892.4,1338.6,1089.5,991.0,776.1,1785.8,1389.4,3471.0,3471.0,1128.7,927.9,1716.7,3480.7,1455.2,1390.3,3475.9,3469.8,409.0,631.9,932.2,1170.0,584.3,2496.2,3479.5,3477.1,659.5,862.1,2227.0,1137.5,1070.3,923.7,4.0,-2.0,11.0,9874.0,-9135.0,7790.0,-5179.0,-9.0,5.0,-5.0,1.0,-1.0,0.0,8660.0,-12364.0,5457.0,-3286.0,-6.0,1.0,0.0,1.0
2022-05-13 12:34:24.281097-07:00,1270.3,881.4,1318.7,1083.4,991.0,776.1,1785.8,1404.0,3471.0,3468.6,1134.9,916.9,1716.7,3480.7,1455.2,1389.4,3471.0,3469.8,409.0,631.9,936.4,1168.2,585.9,2496.2,3467.4,3477.1,659.5,862.1,2243.5,1136.6,1066.0,923.7,2.0,6.0,2.0,9873.0,-9133.0,7791.0,-5181.0,14.0,-3.0,2.0,0.0,-1.0,4.0,8661.0,-12363.0,5456.0,-3286.0,14.0,4.0,1.0,1.0
2022-05-13 12:34:24.326256-07:00,1268.5,871.3,1318.7,1083.4,991.0,769.5,1777.2,1404.0,3481.9,3466.1,1134.9,916.9,1725.3,3473.4,1448.8,1389.4,3471.0,3478.3,406.7,640.8,936.4,1168.2,581.8,2498.3,3467.4,3474.6,657.9,861.2,2243.5,1136.6,1072.9,929.6,1.0,1.0,8.0,9879.0,-9129.0,7787.0,-5183.0,17.0,-14.0,-4.0,2.0,-2.0,3.0,8665.0,-12361.0,5455.0,-3288.0,10.0,-5.0,-4.0,1.0
2022-05-13 12:34:24.371119-07:00,1268.5,871.3,1312.4,1069.5,991.0,769.5,1788.7,1390.3,3481.9,3466.1,1129.6,933.0,1725.3,3473.4,1463.5,1393.0,3474.6,3469.8,406.7,640.8,935.6,1170.0,581.8,2498.3,3472.2,3471.0,657.9,861.2,2226.0,1134.9,1072.9,929.6,0.0,0.0,12.0,9881.0,-9129.0,7785.0,-5182.0,-4.0,-3.0,4.0,0.0,-3.0,5.0,8666.0,-12361.0,5455.0,-3288.0,-1.0,-8.0,-1.0,1.0
2022-05-13 12:34:24.417937-07:00,1257.8,879.7,1312.4,1069.5,982.5,772.8,1788.7,1390.3,3466.1,3475.9,1129.6,933.0,1717.7,3477.1,1463.5,1393.0,3474.6,3469.8,419.2,633.5,935.6,1170.0,584.3,2494.0,3472.2,3471.0,657.0,862.9,2226.0,1134.9,1075.6,921.1,1.0,8.0,11.0,9882.0,-9130.0,7784.0,-5181.0,4.0,-8.0,-4.0,0.0,-1.0,8.0,8666.0,-12360.0,5454.0,-3288.0,-2.0,1.0,-2.0,1.0
2022-05-13 12:34:24.460978-07:00,1257.8,879.7,1320.5,1076.4,982.5,772.8,1791.6,1383.9,3466.1,3475.9,1137.5,930.5,1717.7,3477.1,1460.8,1392.1,3480.7,3478.3,419.2,633.5,934.7,1164.7,584.3,2494.0,3474.6,3483.2,657.0,862.9,2231.1,1135.7,1075.6,921.1,1.0,-1.0,13.0,9882.0,-9130.0,7783.0,-5182.0,0.0,-2.0,-2.0,0.0,-3.0,5.0,8666.0,-12361.0,5455.0,-3288.0,0.0,1.0,1.0,1.0
2022-05-13 12:34:24.510257-07:00,1265.8,878.0,1320.5,1076.4,982.5,774.5,1791.6,1383.9,3468.6,3472.2,1137.5,930.5,1726.3,3474.6,1460.8,1392.1,3480.7,3478.3,406.7,630.3,934.7,1164.7,580.2,2500.4,3474.6,3483.2,657.9,856.2,2231.1,1135.7,1075.6,914.4,1.0,3.0,8.0,9881.0,-9130.0,7784.0,-5183.0,8.0,8.0,0.0,1.0,-5.0,5.0,8666.0,-12361.0,5455.0,-3288.0,12.0,3.0,-2.0,1.0
2022-05-13 12:34:24.554102-07:00,1265.8,878.0,1306.1,1082.5,982.5,767.8,1788.7,1382.1,3468.6,3472.2,1138.4,923.7,1726.3,3477.1,1458.9,1398.5,3469.8,3485.6,410.6,630.3,941.5,1163.0,580.2,2500.4,3469.8,3488.0,658.7,856.2,2238.4,1132.2,1075.6,914.4,0.0,2.0,8.0,9885.0,-9126.0,7782.0,-5186.0,17.0,-7.0,-1.0,0.0,0.0,4.0,8671.0,-12357.0,5453.0,-3290.0,9.0,-5.0,-4.0,1.0
2022-05-13 12:34:24.642457-07:00,1266.7,882.3,1307.0,1082.5,987.6,767.8,1788.7,1382.1,3467.4,3467.4,1133.1,923.7,1721.5,3477.1,1458.9,1398.5,3469.8,3485.6,410.6,637.6,941.5,1168.2,584.3,2498.3,3469.8,3488.0,658.7,862.1,2238.4,1128.7,1069.5,923.7,2.0,8.0,5.0,9890.0,-9121.0,7779.0,-5190.0,17.0,-8.0,-1.0,0.0,-1.0,1.0,8677.0,-12353.0,5452.0,-3292.0,4.0,-9.0,-3.0,1.0
2022-05-13 12:34:24.686259-07:00,1266.7,882.3,1307.0,1079.0,987.6,771.1,1774.3,1393.9,3467.4,3467.4,1133.1,925.4,1721.5,3474.6,1459.8,1390.3,3474.6,3474.6,407.5,637.6,937.3,1168.2,584.3,2498.3,3484.4,3467.4,652.2,862.1,2247.6,1128.7,1069.5,923.7,-1.0,-1.0,13.0,9893.0,-9121.0,7776.0,-5188.0,15.0,-14.0,-5.0,0.0,-5.0,8.0,8677.0,-12352.0,5452.0,-3293.0,18.0,-3.0,-4.0,1.0
2022-05-13 12:34:24.731147-07:00,1269.4,878.0,1307.9,1079.0,986.7,771.1,1774.3,1393.9,3475.9,3468.6,1135.7,925.4,1721.5,3474.6,1459.8,1390.3,3474.6,3474.6,407.5,632.7,937.3,1163.0,581.0,2493.0,3484.4,3467.4,652.2,851.1,2247.6,1128.7,1071.2,918.6,1.0,5.0,11.0,9899.0,-9118.0,7771.0,-5189.0,11.0,-3.0,8.0,1.0,0.0,4.0,8684.0,-12348.0,5450.0,-3296.0,7.0,-3.0,-3.0,1.0
2022-05-13 12:34:24.776259-07:00,1269.4,878.0,1307.9,1083.4,986.7,777.8,1782.9,1386.6,3475.9,3468.6,1135.7,933.9,1721.5,3474.6,1458.0,1392.1,3468.6,3478.3,406.7,632.7,933.9,1163.0,581.0,2493.0,3471.0,3478.3,654.6,851.1,2233.2,1128.7,1071.2,918.6,1.0,4.0,10.0,9902.0,-9117.0,7768.0,-5189.0,20.0,-13.0,-7.0,0.0,-2.0,4.0,8688.0,-12345.0,5449.0,-3297.0,19.0,4.0,-3.0,1.0
2022-05-13 12:34:24.821604-07:00,1260.4,877.2,1306.1,1076.4,985.9,777.8,1782.9,1386.6,3467.4,3457.6,1131.4,922.8,1726.3,3474.6,1458.0,1392.1,3468.6,3478.3,406.7,635.9,928.8,1173.5,581.0,2494.0,3471.0,3478.3,654.6,860.4,2230.1,1134.9,1062.5,914.4,1.0,-2.0,12.0,9904.0,-9118.0,7765.0,-5188.0,-15.0,-4.0,-2.0,1.0,-3.0,3.0,8690.0,-12344.0,5448.0,-3298.0,-10.0,4.0,-1.0,1.0
2022-05-13 12:34:24.869568-07:00,1260.4,877.2,1306.1,1076.4,986.7,771.1,1785.8,1391.2,3467.4,3457.6,1131.4,922.8,1722.4,3471.0,1460.8,1391.2,3475.9,3478.3,405.9,636.7,928.8,1173.5,581.0,2494.0,3475.9,3474.6,655.4,863.7,2230.1,1134.9,1062.5,914.4,1.0,7.0,8.0,9905.0,-9117.0,7765.0,-5189.0,14.0,-7.0,-1.0,0.0,0.0,3.0,8691.0,-12343.0,5448.0,-3299.0,14.0,-6.0,-4.0,1.0
2022-05-13 12:34:24.911051-07:00,1276.5,876.4,1307.0,1073.8,986.7,771.1,1785.8,1391.2,3462.5,3467.4,1134.9,920.3,1722.4,3471.0,1460.8,1391.2,3475.9,3478.3,405.9,636.7,939.8,1167.4,581.8,2491.9,3475.9,3474.6,655.4,863.7,2228.1,1134.0,1070.3,921.1,2.0,0.0,12.0,9908.0,-9118.0,7761.0,-5186.0,8.0,-11.0,-2.0,0.0,-2.0,2.0,8692.0,-12342.0,5448.0,-3299.0,9.0,-3.0,-3.0,1.0
2022-05-13 12:34:25.047320-07:00,1276.5,876.4,1307.0,1073.8,992.7,770.3,1787.8,1383.9,3462.5,3467.4,1134.9,920.3,1719.6,3473.4,1458.9,1389.4,3479.5,3477.1,406.7,630.3,939.8,1167.4,581.8,2491.9,3488.0,3477.1,648.9,857.9,2228.1,1134.0,1070.3,921.1,3.0,5.0,15.0,9913.0,-9114.0,7758.0,-5188.0,16.0,-11.0,1.0,2.0,-1.0,6.0,8698.0,-12338.0,5446.0,-3301.0,18.0,-3.0,-3.0,1.0
2022-05-13 12:34:25.049634-07:00,1273.0,878.0,1294.5,1073.8,992.7,770.3,1787.8,1383.9,3462.5,3474.6,1136.6,925.4,1719.6,3473.4,1458.9,1389.4,3479.5,3477.1,406.7,630.3,940.7,1164.7,580.2,2498.3,3488.0,3477.1,648.9,857.9,2234.2,1141.9,1073.8,920.3,0.0,2.0,13.0,9915.0,-9113.0,7756.0,-5189.0,-1.0,8.0,-2.0,0.0,-4.0,8.0,8699.0,-12337.0,5445.0,-3302.0,-8.0,1.0,0.0,1.0
2022-05-13 12:34:25.091164-07:00,1273.0,878.0,1294.5,1073.8,989.3,775.3,1782.0,1391.2,3462.5,3474.6,1136.6,925.4,1726.3,3464.9,1458.0,1392.1,3478.3,3479.5,406.7,632.7,940.7,1164.7,580.2,2498.3,3475.9,3480.7,652.2,862.1,2234.2,1141.9,1073.8,920.3,0.0,2.0,12.0,9915.0,-9113.0,7756.0,-5189.0,14.0,-8.0,-1.0,2.0,-2.0,4.0,8701.0,-12336.0,5445.0,-3302.0,13.0,-2.0,-4.0,1.0
2022-05-13 12:34:25.136625-07:00,1262.2,874.7,1294.5,1065.1,989.3,775.3,1782.0,1389.4,3467.4,3469.8,1133.1,925.4,1726.3,3464.9,1458.0,1390.3,3471.0,3479.5,406.7,632.7,936.4,1164.7,578.6,2485.5,3467.4,3480.7,652.2,862.1,2236.3,1139.2,1078.2,922.8,3.0,3.0,11.0,9916.0,-9112.0,7755.0,-5190.0,0.0,-6.0,4.0,4.0,-3.0,6.0,8701.0,-12336.0,5445.0,-3302.0,-6.0,-6.0,-3.0,1.0
2022-05-13 12:34:25.181028-07:00,1274.7,874.7,1294.5,1065.1,979.9,774.5,1779.1,1389.4,3472.2,3469.8,1133.1,925.4,1718.6,3464.9,1465.4,1390.3,3471.0,3478.3,404.3,627.8,936.4,1164.7,578.6,2495.1,3467.4,3484.4,651.4,862.1,2236.3,1139.2,1078.2,923.7,0.0,0.0,16.0,9919.0,-9111.0,7753.0,-5189.0,16.0,-10.0,1.0,2.0,-6.0,7.0,8704.0,-12334.0,5444.0,-3304.0,20.0,1.0,-1.0,1.0
2022-05-13 12:34:25.317073-07:00,1274.7,873.0,1299.0,1079.9,979.9,774.5,1779.1,1387.5,3472.2,3468.6,1132.2,922.0,1718.6,3464.9,1465.4,1391.2,3475.9,3478.3,404.3,627.8,930.5,1165.6,578.6,2495.1,3475.9,3484.4,651.4,862.1,2234.2,1132.2,1072.9,923.7,-6.0,-11.0,15.0,9934.0,-9097.0,7747.0,-5195.0,78.0,-9.0,28.0,1.0,-14.0,11.0,8719.0,-12324.0,5440.0,-3310.0,63.0,5.0,-3.0,1.0
2022-05-13 12:34:25.361443-07:00,1263.1,873.0,1299.0,1079.9,987.6,764.5,1791.6,1387.5,3474.6,3468.6,1132.2,922.0,1711.0,3466.1,1454.3,1391.2,3475.9,3478.3,405.1,631.1,930.5,1165.6,578.6,2494.0,3475.9,3477.1,648.9,852.0,2234.2,1132.2,1072.9,920.3,29.0,-83.0,30.0,10008.0,-9021.0,7726.0,-5216.0,368.0,-33.0,141.0,23.0,-24.0,-17.0,8782.0,-12276.0,5424.0,-3343.0,309.0,21.0,5.0,1.0
2022-05-13 12:34:25.363630-07:00,1263.1,875.5,1294.5,1072.1,987.6,764.5,1791.6,1390.3,3474.6,3473.4,1132.2,922.0,1711.0,3466.1,1454.3,1389.4,3480.7,3478.3,405.1,631.1,937.3,1165.6,580.2,2494.0,3489.2,3477.1,648.9,852.0,2241.4,1129.6,1071.2,920.3,-142.0,-222.0,-50.0,10283.0,-8673.0,7694.0,-5316.0,1545.0,-1.0,707.0,-105.0,-100.0,46.0,9038.0,-12102.0,5338.0,-3436.0,1284.0,-97.0,-12.0,1.0
2022-05-13 12:34:25.366268-07:00,1262.2,883.9,1294.5,1072.1,996.2,771.1,1776.2,1390.3,3468.6,3467.4,1132.2,922.0,1726.3,3469.8,1453.4,1389.4,3480.7,3475.9,412.1,634.3,937.3,1165.6,585.9,2499.4,3489.2,3478.3,661.1,873.0,2241.4,1129.6,1074.7,919.4,-185.0,-255.0,-124.0,11179.0,-7635.0,7448.0,-5449.0,3751.0,-672.0,1525.0,-136.0,-237.0,-65.0,9873.0,-11444.0,5098.0,-3742.0,3344.0,-139.0,231.0,1.0
2022-05-13 12:34:25.452535-07:00,1262.2,883.9,1298.1,1072.9,996.2,771.1,1782.0,1386.6,3468.6,3467.4,1130.5,927.1,1726.3,3469.8,1454.3,1386.6,3477.1,3472.2,412.1,634.3,933.9,1175.3,585.9,2499.4,3478.3,3473.4,661.1,873.0,2231.1,1139.2,1074.7,919.4,-88.0,23.0,-166.0,12133.0,-6440.0,7020.0,-5521.0,2823.0,-690.0,1261.0,-26.0,4.0,-109.0,10839.0,-10611.0,4807.0,-3905.0,2421.0,-646.0,593.0,1.0
2022-05-13 12:34:25.454534-07:00,1278.3,886.5,1298.1,1072.9,983.3,794.4,1782.0,1386.6,3466.1,3488.0,1130.5,927.1,1719.6,3464.9,1454.3,1386.6,3477.1,3472.2,402.8,636.7,933.9,1175.3,586.7,2498.3,3478.3,3473.4,673.3,874.7,2231.1,1139.2,1098.2,917.7,-188.0,25.0,-100.0,12754.0,-5700.0,6619.0,-5429.0,1680.0,-849.0,878.0,17.0,-39.0,1.0,11401.0,-10145.0,4594.0,-3796.0,2129.0,-519.0,401.0,1.0
2022-05-13 12:34:25.542695-07:00,1278.3,886.5,1302.5,1064.3,983.3,794.4,1783.9,1380.3,3466.1,3488.0,1129.6,924.5,1719.6,3464.9,1450.6,1384.8,3483.2,3469.8,402.8,636.7,937.3,1163.8,586.7,2498.3,3478.3,3466.1,673.3,874.7,2233.2,1148.0,1098.2,917.7,-10.0,114.0,-133.0,13351.0,-5056.0,6057.0,-5286.0,1999.0,-1421.0,817.0,-33.0,57.0,-20.0,12038.0,-9548.0,4252.0,-3780.0,2064.0,-722.0,176.0,1.0
2022-05-13 12:34:25.631361-07:00,1266.7,885.6,1302.5,1064.3,985.9,816.9,1783.9,1380.3,3478.3,3469.8,1129.6,924.5,1715.8,3475.9,1450.6,1384.8,3483.2,3469.8,405.9,635.9,937.3,1163.8,603.6,2506.9,3478.3,3466.1,666.8,878.0,2233.2,1148.0,1080.8,931.3,111.0,205.0,-15.0,13901.0,-4471.0,5279.0,-5228.0,1904.0,-1538.0,243.0,42.0,145.0,-19.0,12527.0,-9068.0,3891.0,-3761.0,1323.0,-623.0,29.0,1.0
2022-05-13 12:34:25.724825-07:00,1266.7,885.6,1302.5,1076.4,985.9,816.9,1780.1,1383.0,3478.3,3469.8,1118.2,933.0,1715.8,3475.9,1438.7,1383.0,3473.4,3472.2,405.9,635.9,939.8,1160.3,603.6,2506.9,3468.6,3488.0,666.8,878.0,2224.0,1134.0,1080.8,931.3,107.0,167.0,49.0,14228.0,-4073.0,4676.0,-5248.0,1233.0,-807.0,71.0,77.0,104.0,36.0,12787.0,-8816.0,3615.0,-3761.0,812.0,-398.0,-151.0,1.0
2022-05-13 12:34:25.856151-07:00,1283.7,886.5,1281.9,1076.4,983.3,820.2,1780.1,1383.0,3477.1,3467.4,1119.1,933.0,1718.6,3474.6,1438.7,1383.0,3473.4,3472.2,405.1,644.0,939.8,1168.2,627.8,2515.4,3468.6,3488.0,654.6,898.3,2224.0,1136.6,1069.5,924.5,105.0,151.0,45.0,14396.0,-3712.0,4353.0,-5336.0,1059.0,-211.0,-122.0,64.0,87.0,16.0,12974.0,-8580.0,3402.0,-3863.0,693.0,-139.0,-273.0,1.0
2022-05-13 12:34:25.861104-07:00,1283.7,886.5,1281.9,1069.5,983.3,813.5,1781.0,1374.8,3477.1,3467.4,1119.1,924.5,1718.6,3463.7,1442.4,1385.7,3473.4,3473.4,403.5,644.0,937.3,1168.2,627.8,2515.4,3478.3,3469.8,656.2,898.3,2227.0,1136.6,1069.5,924.5,67.0,76.0,-66.0,14425.0,-3553.0,4151.0,-5524.0,249.0,-295.0,-462.0,75.0,40.0,0.0,13011.0,-8524.0,3259.0,-3983.0,-32.0,-37.0,-255.0,1.0
2022-05-13 12:34:25.862173-07:00,1272.1,894.9,1270.3,1069.5,983.3,813.5,1781.0,1374.8,3472.2,3468.6,1122.6,924.5,1712.9,3463.7,1442.4,1385.7,3473.4,3473.4,403.5,638.4,937.3,1165.6,635.1,2513.3,3478.3,3469.8,656.2,933.0,2227.0,1132.2,1075.6,912.7,78.0,-99.0,7.0,14404.0,-3662.0,3952.0,-5651.0,81.0,-475.0,-407.0,73.0,-36.0,-28.0,12977.0,-8573.0,3202.0,-4037.0,17.0,-77.0,-175.0,1.0
2022-05-13 12:34:25.863276-07:00,1272.1,894.9,1270.3,1061.7,983.3,802.7,1762.7,1379.4,3472.2,3468.6,1122.6,918.6,1712.9,3471.0,1428.6,1383.9,3478.3,3472.2,407.5,638.4,934.7,1165.6,635.1,2513.3,3472.2,3474.6,661.1,933.0,2230.1,1132.2,1075.6,912.7,56.0,-27.0,10.0,14429.0,-3658.0,3746.0,-5729.0,137.0,-319.0,-122.0,46.0,2.0,-28.0,12992.0,-8565.0,3123.0,-4067.0,55.0,-101.0,-77.0,1.0
2022-05-13 12:34:25.901119-07:00,1272.1,885.6,1257.8,1061.7,979.0,802.7,1762.7,1379.4,3469.8,3463.7,1119.1,918.6,1717.7,3471.0,1428.6,1383.9,3478.3,3472.2,407.5,638.4,934.7,1161.2,641.6,2529.3,3472.2,3474.6,661.1,936.4,2230.1,1127.0,1069.5,920.3,56.0,-1.0,27.0,14425.0,-3732.0,3679.0,-5735.0,-281.0,-34.0,-51.0,30.0,23.0,-20.0,12970.0,-8613.0,3089.0,-4060.0,-290.0,-87.0,-20.0,1.0
2022-05-13 12:34:26.129096-07:00,1272.1,885.6,1257.8,1066.0,983.3,802.7,1766.6,1384.8,3469.8,3463.7,1119.1,915.2,1716.7,3469.8,1425.9,1393.9,3481.9,3472.2,404.3,633.5,933.9,1161.2,641.6,2529.3,3477.1,3486.8,660.3,931.3,2221.9,1127.0,1069.5,920.3,22.0,-43.0,36.0,14387.0,-3827.0,3748.0,-5723.0,-159.0,75.0,-3.0,34.0,-27.0,22.0,12912.0,-8715.0,3094.0,-4024.0,-107.0,-55.0,18.0,1.0
2022-05-13 12:34:26.130291-07:00,1269.4,890.7,1267.6,1056.5,983.3,802.7,1766.6,1384.8,3474.6,3467.4,1113.9,916.0,1716.7,3469.8,1425.9,1393.9,3481.9,3472.2,404.3,633.5,932.2,1162.1,632.7,2531.5,3477.1,3486.8,660.3,931.3,2242.5,1123.5,1067.7,920.3,24.0,4.0,-21.0,14389.0,-3829.0,3750.0,-5717.0,72.0,-61.0,14.0,20.0,-5.0,8.0,12915.0,-8728.0,3076.0,-3999.0,72.0,-93.0,20.0,1.0
2022-05-13 12:34:26.133502-07:00,1269.4,890.7,1267.6,1056.5,987.6,801.9,1763.7,1379.4,3474.6,3467.4,1113.9,916.0,1720.5,3466.1,1426.8,1383.0,3473.4,3483.2,401.2,640.8,932.2,1162.1,632.7,2531.5,3473.4,3472.2,657.0,936.4,2242.5,1123.5,1067.7,920.3,18.0,23.0,0.0,14406.0,-3823.0,3698.0,-5710.0,33.0,-106.0,-12.0,1.0,12.0,7.0,12938.0,-8719.0,3031.0,-3980.0,25.0,-118.0,-24.0,1.0
2022-05-13 12:34:26.134569-07:00,1269.4,885.6,1259.6,1050.4,987.6,801.9,1763.7,1379.4,3464.9,3478.3,1111.2,921.1,1720.5,3466.1,1426.8,1383.0,3473.4,3483.2,401.2,640.8,928.8,1166.5,637.6,2521.8,3473.4,3472.2,657.0,936.4,2227.0,1129.6,1066.9,930.5,24.0,0.0,62.0,14407.0,-3801.0,3714.0,-5714.0,48.0,205.0,46.0,6.0,3.0,19.0,12945.0,-8730.0,2985.0,-3966.0,-12.0,-79.0,-22.0,1.0
2022-05-13 12:34:26.173284-07:00,1269.4,885.6,1259.6,1050.4,994.5,807.7,1771.4,1368.5,3464.9,3478.3,1111.2,921.1,1719.6,3462.5,1415.8,1373.9,3467.4,3472.2,398.1,630.3,928.8,1166.5,637.6,2521.8,3478.3,3473.4,660.3,933.0,2227.0,1129.6,1066.9,930.5,-2.0,0.0,7.0,14392.0,-3750.0,3819.0,-5716.0,-30.0,250.0,56.0,-3.0,-9.0,19.0,12948.0,-8737.0,2964.0,-3958.0,-21.0,-27.0,2.0,1.0
2022-05-13 12:34:26.174067-07:00,1269.4,885.6,1259.6,1050.4,994.5,807.7,1771.4,1368.5,3464.9,3478.3,1111.2,921.1,1719.6,3462.5,1415.8,1373.9,3467.4,3472.2,398.1,630.3,928.8,1166.5,637.6,2521.8,3478.3,3473.4,660.3,933.0,2227.0,1129.6,1066.9,930.5,-2.0,0.0,7.0,14392.0,-3750.0,3819.0,-5716.0,-30.0,250.0,56.0,-3.0,-9.0,19.0,12948.0,-8737.0,2964.0,-3958.0,-21.0,-27.0,2.0,1.0
2022-05-13 12:34:26.306332-07:00,1266.7,884.8,1274.7,1055.6,987.6,800.2,1771.4,1375.7,3474.6,3471.0,1109.5,918.6,1722.4,3464.9,1419.5,1382.1,3472.2,3478.3,405.1,634.3,932.2,1158.6,632.7,2528.3,3475.9,3477.1,660.3,926.2,2210.6,1139.2,1074.7,922.0,18.0,29.0,10.0,14402.0,-3674.0,3892.0,-5689.0,104.0,-4.0,22.0,7.0,18.0,11.0,12985.0,-8711.0,2905.0,-3937.0,103.0,-62.0,-20.0,1.0
2022-05-13 12:34:26.308392-07:00,1266.7,873.0,1290.9,1061.7,987.6,800.2,1771.4,1371.2,3474.6,3478.3,1112.1,921.1,1722.4,3464.9,1419.5,1378.5,3469.8,3478.3,405.1,634.3,927.9,1164.7,630.3,2528.3,3472.2,3477.1,660.3,926.2,2235.3,1124.4,1066.0,922.0,10.0,34.0,35.0,14400.0,-3651.0,3932.0,-5682.0,-202.0,168.0,56.0,18.0,-28.0,36.0,12999.0,-8699.0,2873.0,-3942.0,-220.0,-1.0,2.0,1.0
2022-05-13 12:34:26.398736-07:00,1267.6,873.0,1290.9,1061.7,1008.2,805.2,1763.7,1371.2,3473.4,3478.3,1112.1,921.1,1718.6,3473.4,1420.4,1378.5,3469.8,3464.9,403.5,632.7,927.9,1164.7,630.3,2518.6,3472.2,3477.1,658.7,923.7,2235.3,1124.4,1066.0,975.6,6.0,-6.0,9.0,14396.0,-3639.0,4005.0,-5648.0,58.0,114.0,134.0,0.0,-17.0,24.0,12984.0,-8723.0,2881.0,-3931.0,62.0,-11.0,22.0,1.0
2022-05-13 12:34:26.443141-07:00,1267.6,871.3,1285.5,1067.7,1008.2,805.2,1763.7,1377.5,3473.4,3469.8,1113.0,917.7,1718.6,3473.4,1420.4,1374.8,3475.9,3464.9,403.5,632.7,925.4,1163.0,624.6,2518.6,3474.6,3477.1,658.7,923.7,2219.8,1133.1,1070.3,975.6,8.0,55.0,-13.0,14400.0,-3631.0,4028.0,-5628.0,-101.0,24.0,5.0,-1.0,12.0,9.0,13003.0,-8699.0,2873.0,-3927.0,-52.0,-18.0,2.0,1.0
2022-05-13 12:34:26.445199-07:00,1267.6,871.3,1285.5,1067.7,1016.8,804.4,1770.4,1377.5,3478.3,3469.8,1113.0,917.7,1717.7,3463.7,1416.7,1374.8,3475.9,3475.9,402.0,632.7,925.4,1163.0,624.6,2534.7,3474.6,3471.0,663.6,924.5,2219.8,1133.1,1070.3,986.7,11.0,20.0,1.0,14381.0,-3672.0,4049.0,-5635.0,-116.0,34.0,-89.0,7.0,-2.0,7.0,12991.0,-8715.0,2873.0,-3932.0,-70.0,22.0,-26.0,1.0
2022-05-13 12:34:26.446343-07:00,1267.6,870.5,1281.0,1053.0,1016.8,804.4,1771.4,1369.4,3478.3,3464.9,1111.2,916.0,1717.7,3463.7,1421.3,1383.9,3483.2,3478.3,402.0,632.7,929.6,1163.8,627.0,2534.7,3483.2,3473.4,663.6,924.5,2218.8,1137.5,1083.4,986.7,1.0,-18.0,-1.0,14359.0,-3721.0,4066.0,-5646.0,-140.0,25.0,5.0,3.0,-2.0,1.0,12967.0,-8743.0,2882.0,-3942.0,-76.0,15.0,-35.0,1.0
2022-05-13 12:34:26.531188-07:00,1262.2,881.4,1281.0,1053.0,1041.8,803.5,1771.4,1369.4,3472.2,3469.8,1111.2,916.0,1717.7,3478.3,1421.3,1383.9,3483.2,3478.3,406.7,638.4,929.6,1163.8,627.8,2526.1,3483.2,3473.4,656.2,919.4,2218.8,1137.5,1086.0,1144.5,0.0,-4.0,2.0,14360.0,-3755.0,4103.0,-5593.0,-147.0,19.0,145.0,-8.0,-8.0,-1.0,12957.0,-8756.0,2883.0,-3948.0,-12.0,3.0,-3.0,1.0
2022-05-13 12:34:26.576229-07:00,1262.2,881.4,1277.4,1053.0,1041.8,803.5,1779.1,1393.0,3472.2,3469.8,1122.6,922.0,1717.7,3478.3,1423.1,1379.4,3474.6,3478.3,406.7,638.4,929.6,1155.9,627.8,2526.1,3472.2,3481.9,656.2,919.4,2227.0,1137.5,1086.0,1144.5,-15.0,4.0,0.0,14364.0,-3787.0,4145.0,-5530.0,-89.0,6.0,115.0,-22.0,-12.0,3.0,12954.0,-8760.0,2887.0,-3944.0,48.0,-6.0,7.0,1.0
2022-05-13 12:34:26.666821-07:00,1261.3,887.3,1277.4,1053.0,1112.1,805.2,1779.1,1393.0,3464.9,3478.3,1122.6,922.0,1721.5,3469.8,1423.1,1379.4,3474.6,3478.3,405.9,639.2,929.6,1155.9,621.4,2514.3,3472.2,3481.9,661.9,923.7,2227.0,1137.5,1134.9,1174.4,8.0,-5.0,-10.0,14368.0,-3792.0,4185.0,-5487.0,-59.0,87.0,142.0,-14.0,3.0,-2.0,12964.0,-8747.0,2886.0,-3942.0,31.0,-18.0,-9.0,1.0
2022-05-13 12:34:26.668998-07:00,1261.3,887.3,1256.0,1056.5,1112.1,805.2,1778.1,1400.3,3464.9,3478.3,1127.0,924.5,1721.5,3469.8,1419.5,1386.6,3478.3,3478.3,405.9,639.2,932.2,1163.0,621.4,2514.3,3479.5,3480.7,661.9,923.7,2231.1,1184.1,1134.9,1174.4,-1.0,0.0,0.0,14373.0,-3788.0,4231.0,-5440.0,-108.0,66.0,114.0,-8.0,-6.0,3.0,12971.0,-8742.0,2867.0,-3943.0,-19.0,-36.0,-31.0,1.0
2022-05-13 12:34:26.711297-07:00,1266.7,894.9,1252.4,1056.5,1161.2,796.9,1778.1,1400.3,3458.9,3473.4,1135.7,924.5,1715.8,3473.4,1419.5,1386.6,3478.3,3478.3,402.0,644.0,932.2,1163.0,618.1,2536.8,3479.5,3480.7,666.0,917.7,2231.1,1245.3,1184.1,1214.2,9.0,-34.0,24.0,14379.0,-3802.0,4296.0,-5362.0,-31.0,121.0,196.0,-19.0,-29.0,-16.0,12968.0,-8752.0,2856.0,-3939.0,46.0,-40.0,0.0,1.0
2022-05-13 12:34:26.848164-07:00,1266.7,894.9,1252.4,1059.9,1161.2,807.7,1787.8,1401.2,3458.9,3473.4,1135.7,927.9,1715.8,3467.4,1424.1,1381.2,3477.1,3472.2,404.3,644.0,928.8,1163.0,618.1,2536.8,3483.2,3488.0,662.7,917.7,2231.1,1245.3,1184.1,1214.2,-17.0,-11.0,-7.0,14382.0,-3730.0,4388.0,-5331.0,85.0,257.0,172.0,-5.0,-17.0,30.0,12988.0,-8729.0,2837.0,-3936.0,60.0,-33.0,3.0,1.0
2022-05-13 12:34:26.849465-07:00,1261.3,906.7,1254.2,1059.9,1175.3,807.7,1787.8,1401.2,3471.0,3462.5,1140.1,927.9,1711.9,3467.4,1424.1,1381.2,3477.1,3472.2,404.3,640.0,928.8,1164.7,614.1,2513.3,3483.2,3488.0,662.7,919.4,2231.1,1296.3,1231.0,1504.1,-1.0,-9.0,18.0,14406.0,-3644.0,4451.0,-5274.0,83.0,84.0,218.0,1.0,-32.0,17.0,13024.0,-8686.0,2813.0,-3931.0,128.0,-43.0,15.0,1.0
2022-05-13 12:34:26.850574-07:00,1261.3,906.7,1254.2,1070.3,1175.3,809.4,1776.2,1385.7,3471.0,3462.5,1140.1,927.1,1711.9,3464.9,1420.4,1381.2,3475.9,3475.9,406.7,640.0,927.9,1164.7,614.1,2513.3,3484.4,3469.8,670.1,919.4,2232.2,1296.3,1231.0,1504.1,-15.0,-18.0,91.0,14434.0,-3550.0,4504.0,-5215.0,207.0,155.0,247.0,12.0,-82.0,50.0,13066.0,-8630.0,2802.0,-3922.0,188.0,17.0,87.0,1.0
2022-05-13 12:34:26.938497-07:00,1271.2,902.5,1252.4,1070.3,1152.4,809.4,1776.2,1385.7,3475.9,3468.6,1138.4,927.1,1718.6,3464.9,1420.4,1381.2,3475.9,3475.9,406.7,635.9,927.9,1162.1,616.5,2531.5,3484.4,3469.8,670.1,917.7,2232.2,1304.3,1248.0,1458.9,-12.0,-39.0,134.0,14436.0,-3475.0,4581.0,-5194.0,-26.0,279.0,59.0,7.0,-91.0,53.0,13096.0,-8582.0,2864.0,-3883.0,-54.0,126.0,265.0,1.0
2022-05-13 12:34:27.027522-07:00,1271.2,902.5,1252.4,1084.2,1152.4,802.7,1779.1,1389.4,3475.9,3468.6,1138.4,928.8,1718.6,3471.0,1413.1,1378.5,3488.0,3475.9,404.3,635.9,941.5,1162.1,616.5,2531.5,3481.9,3469.8,676.6,917.7,2232.2,1304.3,1248.0,1458.9,-24.0,-62.0,85.0,14385.0,-3480.0,4753.0,-5178.0,-238.0,438.0,117.0,-11.0,-78.0,39.0,13086.0,-8591.0,3028.0,-3773.0,-183.0,181.0,461.0,1.0
2022-05-13 12:34:27.117563-07:00,1268.5,889.8,1261.3,1079.0,1140.1,802.7,1779.1,1389.4,3474.6,3469.8,1141.9,931.3,1718.6,3471.0,1413.1,1378.5,3488.0,3475.9,404.3,639.2,930.5,1164.7,608.4,2520.8,3481.9,3469.8,676.6,919.4,2230.1,1299.8,1229.3,1419.5,-13.0,-29.0,35.0,14338.0,-3445.0,4959.0,-5139.0,-8.0,432.0,210.0,-8.0,-27.0,26.0,13104.0,-8558.0,3216.0,-3626.0,50.0,174.0,551.0,1.0
2022-05-13 12:34:27.119848-07:00,1268.5,889.8,1261.3,1079.0,1127.0,816.0,1775.2,1367.6,3474.6,3469.8,1141.9,931.3,1728.2,3462.5,1418.6,1382.1,3477.1,3477.1,408.2,632.7,930.5,1164.7,608.4,2520.8,3483.2,3477.1,679.1,915.2,2230.1,1299.8,1229.3,1419.5,23.0,56.0,-49.0,14303.0,-3366.0,5149.0,-5099.0,-105.0,451.0,168.0,-8.0,38.0,-12.0,13142.0,-8487.0,3398.0,-3484.0,-71.0,183.0,506.0,1.0
2022-05-13 12:34:27.164101-07:00,1268.5,888.2,1251.5,1076.4,1127.0,816.0,1775.2,1367.6,3473.4,3467.4,1132.2,936.4,1728.2,3462.5,1418.6,1382.1,3477.1,3477.1,408.2,632.7,934.7,1153.3,606.0,2512.2,3483.2,3477.1,679.1,915.2,2232.2,1285.5,1231.9,1383.9,41.0,50.0,-104.0,14244.0,-3370.0,5334.0,-5073.0,-190.0,344.0,44.0,1.0,65.0,-41.0,13139.0,-8476.0,3560.0,-3361.0,-140.0,136.0,368.0,1.0
2022-05-13 12:34:27.165261-07:00,1268.5,888.2,1251.5,1076.4,1114.7,810.2,1777.2,1369.4,3473.4,3467.4,1132.2,936.4,1711.0,3463.7,1425.9,1382.1,3469.8,3481.9,406.7,641.6,934.7,1153.3,606.0,2512.2,3477.1,3472.2,670.9,909.3,2232.2,1285.5,1231.9,1383.9,39.0,40.0,-120.0,14209.0,-3374.0,5420.0,-5077.0,2.0,97.0,22.0,-3.0,94.0,-39.0,13141.0,-8465.0,3656.0,-3275.0,18.0,32.0,210.0,1.0
2022-05-13 12:34:27.206979-07:00,1259.6,889.0,1263.1,1083.4,1114.7,810.2,1777.2,1369.4,3471.0,3474.6,1132.2,925.4,1711.0,3463.7,1425.9,1382.1,3469.8,3481.9,406.7,641.6,933.0,1161.2,602.8,2515.4,3477.1,3472.2,670.9,909.3,2225.0,1273.9,1221.3,1374.8,40.0,68.0,-76.0,14219.0,-3355.0,5437.0,-5042.0,41.0,-25.0,107.0,0.0,73.0,-28.0,13166.0,-8431.0,3674.0,-3241.0,99.0,-19.0,42.0,1.0
2022-05-13 12:34:27.250957-07:00,1264.0,889.0,1263.1,1083.4,1114.7,804.4,1759.8,1375.7,3469.8,3474.6,1132.2,925.4,1711.0,3468.6,1438.7,1387.5,3464.9,3471.0,408.2,640.8,933.0,1161.2,602.8,2517.5,3473.4,3488.0,682.3,908.4,2225.0,1273.9,1221.3,1360.3,23.0,56.0,-29.0,14242.0,-3344.0,5402.0,-5025.0,46.0,-145.0,-9.0,3.0,45.0,2.0,13178.0,-8418.0,3652.0,-3251.0,37.0,-32.0,-75.0,1.0
2022-05-13 12:34:27.297137-07:00,1264.0,883.1,1253.3,1086.8,1114.7,804.4,1759.8,1365.7,3469.8,3477.1,1135.7,931.3,1711.0,3468.6,1438.7,1382.1,3475.9,3471.0,408.2,640.8,939.0,1152.4,603.6,2517.5,3475.9,3488.0,682.3,908.4,2238.4,1273.0,1217.7,1360.3,13.0,34.0,9.0,14250.0,-3357.0,5367.0,-5029.0,-12.0,-26.0,-41.0,-3.0,4.0,7.0,13170.0,-8430.0,3627.0,-3281.0,-44.0,9.0,-105.0,1.0
2022-05-13 12:34:27.342163-07:00,1267.6,883.1,1253.3,1086.8,1118.2,807.7,1759.8,1365.7,3475.9,3477.1,1135.7,931.3,1712.9,3475.9,1419.5,1382.1,3475.9,3488.0,407.5,638.4,939.0,1152.4,603.6,2511.1,3475.9,3475.9,678.2,904.2,2238.4,1273.0,1217.7,1341.3,7.0,-6.0,17.0,14244.0,-3371.0,5346.0,-5060.0,19.0,-20.0,-89.0,-6.0,-6.0,4.0,13155.0,-8444.0,3614.0,-3319.0,-27.0,23.0,-93.0,1.0
2022-05-13 12:34:27.387235-07:00,1267.6,883.9,1256.9,1087.7,1118.2,807.7,1759.8,1360.3,3475.9,3468.6,1139.2,916.9,1712.9,3475.9,1419.5,1390.3,3471.0,3488.0,407.5,638.4,924.5,1158.6,605.2,2511.1,3484.4,3475.9,678.2,904.2,2224.0,1265.8,1211.5,1341.3,-7.0,-20.0,5.0,14233.0,-3391.0,5343.0,-5081.0,-32.0,-21.0,-56.0,-9.0,-26.0,5.0,13139.0,-8463.0,3609.0,-3339.0,-38.0,8.0,-61.0,1.0
2022-05-13 12:34:27.611330-07:00,1264.0,883.9,1256.9,1087.7,1104.3,806.0,1761.8,1360.3,3469.8,3468.6,1139.2,916.9,1713.8,3471.0,1420.4,1390.3,3471.0,3469.8,400.4,635.9,924.5,1158.6,605.2,2509.0,3484.4,3478.3,673.3,905.9,2224.0,1265.8,1211.5,1339.5,0.0,-19.0,13.0,14237.0,-3395.0,5318.0,-5093.0,55.0,-59.0,-20.0,-8.0,-18.0,8.0,13140.0,-8461.0,3595.0,-3356.0,44.0,-16.0,-33.0,1.0
2022-05-13 12:34:27.700994-07:00,1264.0,905.9,1257.8,1072.1,1104.3,806.0,1755.0,1353.1,3469.8,3463.7,1140.1,923.7,1713.8,3471.0,1425.0,1384.8,3483.2,3467.4,400.4,635.9,928.8,1157.7,608.4,2509.0,3472.2,3468.6,673.3,905.9,2221.9,1269.4,1199.1,1339.5,7.0,-11.0,18.0,14250.0,-3398.0,5289.0,-5085.0,-31.0,-76.0,24.0,0.0,-20.0,6.0,13147.0,-8453.0,3583.0,-3360.0,-2.0,-24.0,2.0,1.0
2022-05-13 12:34:27.702749-07:00,1274.7,879.7,1257.8,1072.1,1113.0,801.9,1755.0,1353.1,3475.9,3478.3,1140.1,923.7,1712.9,3474.6,1425.0,1384.8,3483.2,3467.4,407.5,635.1,928.8,1157.7,606.8,2513.3,3472.2,3468.6,670.1,900.8,2221.9,1269.4,1208.9,1336.8,-4.0,-17.0,15.0,14255.0,-3413.0,5286.0,-5065.0,-19.0,-12.0,46.0,-8.0,-19.0,9.0,13151.0,-8453.0,3579.0,-3351.0,27.0,-18.0,29.0,1.0
2022-05-13 12:34:27.792481-07:00,1274.7,879.7,1247.1,1076.4,1113.0,801.9,1749.3,1351.2,3475.9,3478.3,1138.4,925.4,1712.9,3474.6,1411.3,1390.3,3472.2,3478.3,407.5,635.1,928.8,1155.9,606.8,2513.3,3467.4,3467.4,670.1,900.8,2232.2,1266.7,1208.9,1336.8,1.0,9.0,0.0,14260.0,-3413.0,5289.0,-5046.0,-33.0,-14.0,29.0,-11.0,-4.0,3.0,13159.0,-8446.0,3579.0,-3337.0,-13.0,-21.0,34.0,1.0
2022-05-13 12:34:27.793740-07:00,1259.6,876.4,1247.1,1076.4,1110.4,805.2,1749.3,1351.2,3462.5,3469.8,1138.4,925.4,1710.0,3473.4,1411.3,1390.3,3472.2,3478.3,402.8,640.0,928.8,1155.9,604.4,2509.0,3467.4,3467.4,670.1,905.9,2232.2,1266.7,1200.9,1325.0,0.0,3.0,4.0,14263.0,-3425.0,5290.0,-5030.0,-15.0,-24.0,27.0,-8.0,-8.0,6.0,13163.0,-8447.0,3580.0,-3319.0,23.0,-19.0,33.0,1.0
2022-05-13 12:34:27.794958-07:00,1259.6,876.4,1253.3,1084.2,1110.4,805.2,1753.1,1357.6,3462.5,3469.8,1133.1,926.2,1710.0,3473.4,1427.7,1388.5,3473.4,3475.9,402.8,640.0,929.6,1157.7,604.4,2509.0,3479.5,3483.2,670.1,905.9,2226.0,1260.4,1200.9,1325.0,6.0,-3.0,11.0,14266.0,-3426.0,5292.0,-5017.0,-13.0,24.0,43.0,-6.0,-4.0,3.0,13170.0,-8441.0,3581.0,-3304.0,7.0,-14.0,38.0,1.0
2022-05-13 12:34:27.973559-07:00,1260.4,882.3,1253.3,1084.2,1103.4,804.4,1753.1,1357.6,3468.6,3475.9,1133.1,926.2,1710.0,3462.5,1427.7,1388.5,3473.4,3475.9,402.8,640.8,929.6,1157.7,602.8,2503.6,3479.5,3483.2,662.7,900.0,2226.0,1260.4,1205.3,1321.4,4.0,5.0,-2.0,14268.0,-3423.0,5305.0,-5001.0,-29.0,8.0,30.0,-1.0,-4.0,6.0,13174.0,-8439.0,3587.0,-3288.0,-9.0,-14.0,41.0,1.0
2022-05-13 12:34:27.974786-07:00,1260.4,882.3,1248.8,1070.3,1103.4,794.4,1759.8,1354.9,3468.6,3475.9,1136.6,922.0,1710.0,3471.0,1425.0,1383.0,3480.7,3479.5,402.8,640.8,927.9,1153.3,602.8,2503.6,3471.0,3474.6,666.8,900.0,2210.6,1256.0,1205.3,1321.4,8.0,12.0,7.0,14271.0,-3425.0,5309.0,-4986.0,-10.0,3.0,30.0,-2.0,2.0,7.0,13179.0,-8434.0,3592.0,-3273.0,4.0,-10.0,29.0,1.0
2022-05-13 12:34:27.975872-07:00,1264.9,874.7,1253.3,1070.3,1104.3,794.4,1759.8,1354.9,3478.3,3467.4,1134.9,922.0,1712.9,3471.0,1425.0,1383.0,3480.7,3479.5,402.8,640.8,927.9,1155.9,602.8,2513.3,3471.0,3474.6,666.8,899.1,2210.6,1265.8,1200.0,1325.0,4.0,4.0,7.0,14274.0,-3424.0,5314.0,-4974.0,-5.0,4.0,33.0,-1.0,-5.0,12.0,13184.0,-8429.0,3595.0,-3262.0,33.0,-11.0,24.0,1.0
2022-05-13 12:34:27.976943-07:00,1264.9,874.7,1253.3,1084.2,1104.3,801.0,1753.1,1357.6,3478.3,3467.4,1134.9,928.8,1712.9,3474.6,1425.0,1384.8,3471.0,3478.3,409.0,640.8,930.5,1155.9,602.8,2513.3,3480.7,3474.6,670.9,899.1,2220.9,1265.8,1200.0,1325.0,8.0,4.0,5.0,14280.0,-3392.0,5328.0,-4962.0,85.0,60.0,82.0,0.0,-3.0,14.0,13203.0,-8403.0,3592.0,-3259.0,125.0,5.0,18.0,1.0
2022-05-13 12:34:28.107514-07:00,1255.1,869.6,1243.5,1084.2,1119.1,801.0,1753.1,1357.6,3469.8,3475.9,1138.4,928.8,1713.8,3474.6,1425.0,1384.8,3471.0,3478.3,409.0,635.9,930.5,1155.9,599.6,2506.9,3480.7,3474.6,670.9,898.3,2220.9,1265.8,1198.2,1316.9,9.0,24.0,3.0,14288.0,-3335.0,5345.0,-4961.0,68.0,75.0,33.0,-1.0,4.0,16.0,13226.0,-8364.0,3585.0,-3269.0,67.0,15.0,2.0,1.0
2022-05-13 12:34:28.108618-07:00,1255.1,869.6,1243.5,1084.2,1119.1,801.0,1753.1,1357.6,3469.8,3475.9,1138.4,928.8,1713.8,3474.6,1425.0,1384.8,3471.0,3478.3,409.0,635.9,930.5,1155.9,599.6,2506.9,3480.7,3474.6,670.9,898.3,2220.9,1265.8,1198.2,1316.9,9.0,24.0,3.0,14288.0,-3335.0,5345.0,-4961.0,68.0,75.0,33.0,-1.0,4.0,16.0,13226.0,-8364.0,3585.0,-3269.0,67.0,15.0,2.0,1.0
2022-05-13 12:34:28.153182-07:00,1252.4,888.2,1260.4,1093.8,1108.6,806.9,1738.7,1354.0,3464.9,3467.4,1141.0,927.9,1709.1,3466.1,1422.2,1385.7,3477.1,3474.6,402.8,637.6,923.7,1162.1,603.6,2511.1,3475.9,3472.2,675.0,899.1,2215.7,1283.7,1219.5,1322.3,13.0,-2.0,4.0,14295.0,-3280.0,5360.0,-4960.0,43.0,28.0,49.0,3.0,-14.0,3.0,13248.0,-8322.0,3586.0,-3286.0,52.0,11.0,8.0,1.0
2022-05-13 12:34:28.155228-07:00,1252.4,888.2,1260.4,1093.8,1120.9,806.0,1744.5,1354.9,3464.9,3467.4,1141.0,927.9,1711.0,3479.5,1423.1,1378.5,3480.7,3484.4,403.5,640.0,923.7,1162.1,603.6,2511.1,3479.5,3485.6,666.0,891.5,2215.7,1283.7,1219.5,1322.3,4.0,9.0,-17.0,14299.0,-3265.0,5372.0,-4946.0,-21.0,17.0,44.0,-5.0,2.0,0.0,13255.0,-8311.0,3585.0,-3287.0,8.0,8.0,9.0,1.0
2022-05-13 12:34:28.158288-07:00,1264.9,878.0,1253.3,1091.2,1120.9,806.0,1744.5,1354.9,3467.4,3475.9,1142.7,929.6,1711.0,3479.5,1423.1,1378.5,3480.7,3484.4,403.5,640.0,928.8,1159.4,601.2,2502.6,3479.5,3485.6,666.0,891.5,2229.1,1290.9,1231.0,1324.1,-8.0,7.0,-8.0,14299.0,-3280.0,5378.0,-4929.0,-43.0,-40.0,2.0,-9.0,-12.0,5.0,13253.0,-8315.0,3586.0,-3285.0,-5.0,-7.0,-3.0,1.0
2022-05-13 12:34:28.241281-07:00,1264.9,878.0,1253.3,1091.2,1116.5,800.2,1745.4,1355.8,3467.4,3475.9,1142.7,929.6,1714.8,3471.0,1415.8,1377.5,3475.9,3474.6,400.4,638.4,928.8,1159.4,601.2,2502.6,3475.9,3479.5,666.0,895.7,2229.1,1290.9,1231.0,1324.1,8.0,25.0,-8.0,14296.0,-3311.0,5368.0,-4927.0,-105.0,-18.0,-46.0,-8.0,9.0,-3.0,13244.0,-8332.0,3583.0,-3283.0,-99.0,-20.0,-23.0,1.0
2022-05-13 12:34:28.243862-07:00,1264.0,883.9,1251.5,1087.7,1116.5,800.2,1745.4,1355.8,3478.3,3480.7,1136.6,926.2,1714.8,3471.0,1415.8,1377.5,3475.9,3474.6,400.4,638.4,922.0,1163.0,603.6,2499.4,3475.9,3479.5,666.0,895.7,2216.8,1287.3,1224.8,1304.3,11.0,27.0,-21.0,14277.0,-3369.0,5370.0,-4942.0,-98.0,-29.0,-126.0,0.0,16.0,-5.0,13210.0,-8388.0,3581.0,-3278.0,-142.0,-20.0,-54.0,1.0
2022-05-13 12:34:28.332404-07:00,1269.4,883.9,1251.5,1087.7,1114.7,804.4,1742.6,1345.8,3466.1,3480.7,1136.6,926.2,1710.0,3468.6,1423.1,1385.7,3474.6,3477.1,405.1,631.9,922.0,1163.0,603.6,2496.2,3468.6,3475.9,663.6,891.5,2216.8,1287.3,1224.8,1298.1,12.0,64.0,-65.0,14257.0,-3435.0,5315.0,-5012.0,-45.0,-197.0,-321.0,-3.0,43.0,-14.0,13173.0,-8449.0,3559.0,-3295.0,-144.0,-40.0,-151.0,1.0
2022-05-13 12:34:28.333659-07:00,1269.4,878.9,1247.1,1086.8,1114.7,804.4,1742.6,1343.1,3466.1,3490.5,1148.9,924.5,1710.0,3468.6,1423.1,1373.0,3471.0,3477.1,405.1,631.9,932.2,1155.0,601.2,2496.2,3467.4,3475.9,663.6,891.5,2228.1,1273.9,1218.6,1298.1,36.0,67.0,-74.0,14229.0,-3577.0,5178.0,-5134.0,-157.0,-334.0,-471.0,9.0,67.0,-16.0,13106.0,-8551.0,3512.0,-3350.0,-280.0,-31.0,-303.0,1.0
2022-05-13 12:34:28.421735-07:00,1259.6,878.9,1247.1,1086.8,1100.8,802.7,1749.3,1343.1,3477.1,3490.5,1148.9,924.5,1711.0,3475.9,1420.4,1373.0,3471.0,3474.6,406.7,633.5,932.2,1155.0,601.2,2491.9,3467.4,3474.6,667.6,890.7,2228.1,1273.9,1218.6,1290.0,38.0,-11.0,-25.0,14204.0,-3728.0,5035.0,-5237.0,-81.0,-295.0,-342.0,12.0,10.0,-20.0,13027.0,-8667.0,3431.0,-3438.0,-180.0,-77.0,-373.0,1.0
2022-05-13 12:34:28.567242-07:00,1259.6,880.6,1232.8,1074.7,1100.8,802.7,1749.3,1340.4,3477.1,3471.0,1136.6,922.0,1711.0,3475.9,1420.4,1382.1,3474.6,3474.6,406.7,633.5,923.7,1156.8,600.4,2491.9,3480.7,3474.6,667.6,890.7,2227.0,1263.1,1208.9,1290.0,2.0,-34.0,26.0,14210.0,-3784.0,4903.0,-5307.0,74.0,-256.0,-172.0,-6.0,-28.0,5.0,12992.0,-8723.0,3321.0,-3538.0,33.0,-105.0,-348.0,1.0
2022-05-13 12:34:28.691975-07:00,1257.8,880.6,1232.8,1074.7,1102.5,806.0,1737.8,1340.4,3467.4,3471.0,1136.6,922.0,1710.0,3474.6,1419.5,1382.1,3474.6,3466.1,403.5,638.4,923.7,1156.8,600.4,2490.8,3480.7,3475.9,668.4,895.7,2227.0,1263.1,1208.9,1280.1,-27.0,-32.0,54.0,14217.0,-3816.0,4810.0,-5349.0,-5.0,-166.0,-163.0,-19.0,-70.0,33.0,12971.0,-8764.0,3217.0,-3612.0,-61.0,-104.0,-255.0,1.0
2022-05-13 12:34:28.693399-07:00,1257.8,880.6,1241.7,1082.5,1102.5,806.0,1737.8,1332.3,3467.4,3457.6,1145.4,936.4,1710.0,3474.6,1419.5,1378.5,3480.7,3466.1,403.5,638.4,933.9,1156.8,596.3,2490.8,3477.1,3475.9,668.4,895.7,2216.8,1256.9,1198.2,1280.1,-28.0,-37.0,76.0,14212.0,-3857.0,4740.0,-5395.0,18.0,-112.0,-152.0,-13.0,-63.0,40.0,12948.0,-8805.0,3151.0,-3651.0,-45.0,-59.0,-139.0,1.0
2022-05-13 12:34:28.695732-07:00,1256.0,871.3,1241.7,1082.5,1098.2,802.7,1741.6,1332.3,3478.3,3475.9,1145.4,936.4,1709.1,3467.4,1419.5,1378.5,3480.7,3471.0,411.4,640.8,933.9,1156.8,591.5,2484.4,3477.1,3488.0,668.4,896.6,2216.8,1256.9,1194.7,1273.9,-6.0,11.0,44.0,14210.0,-3860.0,4677.0,-5454.0,101.0,-77.0,-171.0,0.0,-24.0,32.0,12942.0,-8816.0,3114.0,-3677.0,13.0,-21.0,-90.0,1.0
2022-05-13 12:34:28.696861-07:00,1256.0,871.3,1234.6,1073.8,1098.2,802.7,1743.5,1327.8,3478.3,3475.9,1134.9,925.4,1709.1,3467.4,1419.5,1383.9,3461.3,3479.5,411.4,640.8,933.0,1161.2,591.5,2484.4,3469.8,3483.2,668.4,896.6,2214.7,1243.5,1194.7,1273.9,11.0,27.0,12.0,14207.0,-3842.0,4601.0,-5539.0,169.0,-83.0,-194.0,2.0,20.0,19.0,12936.0,-8820.0,3089.0,-3712.0,30.0,5.0,-110.0,1.0
2022-05-13 12:34:28.736319-07:00,1263.1,872.1,1234.6,1073.8,1095.6,811.0,1743.5,1327.8,3472.2,3463.7,1134.9,925.4,1717.7,3468.6,1419.5,1383.9,3461.3,3479.5,406.7,639.2,933.0,1161.2,594.7,2494.0,3469.8,3483.2,662.7,895.7,2214.7,1243.5,1190.3,1272.1,7.0,16.0,-9.0,14201.0,-3809.0,4545.0,-5620.0,113.0,-33.0,-176.0,7.0,4.0,10.0,12920.0,-8830.0,3067.0,-3758.0,-33.0,18.0,-131.0,1.0
2022-05-13 12:34:28.781232-07:00,1263.1,872.1,1248.0,1067.7,1095.6,811.0,1764.6,1359.4,3472.2,3463.7,1137.5,931.3,1717.7,3468.6,1424.1,1379.4,3471.0,3471.0,406.7,639.2,925.4,1155.0,594.7,2494.0,3477.1,3472.2,662.7,895.7,2209.6,1244.4,1190.3,1272.1,-1.0,-9.0,-18.0,14193.0,-3815.0,4509.0,-5667.0,0.0,-49.0,-79.0,0.0,-10.0,-3.0,12894.0,-8861.0,3043.0,-3798.0,-88.0,7.0,-115.0,1.0
2022-05-13 12:34:28.828469-07:00,1272.1,873.0,1248.0,1067.7,1084.2,809.4,1764.6,1359.4,3472.2,3474.6,1137.5,931.3,1711.0,3473.4,1424.1,1379.4,3471.0,3471.0,401.2,640.8,925.4,1155.0,596.3,2494.0,3477.1,3472.2,663.6,894.9,2209.6,1244.4,1177.0,1252.4,-13.0,-24.0,-13.0,14184.0,-3881.0,4483.0,-5664.0,-114.0,-155.0,-62.0,-9.0,-31.0,-10.0,12862.0,-8902.0,3023.0,-3822.0,-70.0,-29.0,-98.0,1.0
2022-05-13 12:34:28.918020-07:00,1272.1,873.0,1235.5,1067.7,1084.2,805.2,1749.3,1352.1,3472.2,3474.6,1134.0,927.1,1711.0,3466.1,1423.1,1384.8,3473.4,3480.7,399.6,640.8,931.3,1149.8,596.3,2494.0,3467.4,3483.2,670.1,894.9,2215.7,1241.7,1177.0,1252.4,1.0,-23.0,19.0,14191.0,-3922.0,4419.0,-5669.0,48.0,-116.0,-40.0,-8.0,-17.0,2.0,12853.0,-8918.0,2988.0,-3842.0,23.0,-41.0,-89.0,1.0
2022-05-13 12:34:28.919378-07:00,1262.2,871.3,1239.1,1067.7,1092.1,805.2,1749.3,1352.1,3468.6,3478.3,1134.0,927.1,1710.0,3466.1,1423.1,1384.8,3473.4,3480.7,399.6,640.8,931.3,1161.2,597.9,2494.0,3467.4,3483.2,670.1,891.5,2215.7,1240.8,1177.0,1273.0,2.0,34.0,18.0,14201.0,-3913.0,4373.0,-5685.0,31.0,-84.0,-67.0,4.0,-5.0,9.0,12852.0,-8918.0,2962.0,-3867.0,-22.0,-4.0,-73.0,1.0
2022-05-13 12:34:29.007573-07:00,1262.2,871.3,1239.1,1068.6,1092.1,811.9,1747.3,1356.7,3468.6,3478.3,1134.0,922.8,1710.0,3472.2,1415.8,1386.6,3483.2,3474.6,408.2,640.8,928.8,1161.2,597.9,2494.0,3479.5,3474.6,670.1,891.5,2218.8,1240.8,1177.0,1273.0,-3.0,-27.0,29.0,14168.0,-3986.0,4372.0,-5719.0,-143.0,-23.0,-155.0,5.0,-20.0,18.0,12801.0,-8983.0,2979.0,-3873.0,-156.0,22.0,-28.0,1.0
2022-05-13 12:34:29.052558-07:00,1254.2,872.1,1235.5,1068.6,1101.7,811.9,1747.3,1356.7,3473.4,3472.2,1137.5,922.8,1711.0,3472.2,1415.8,1386.6,3483.2,3474.6,408.2,638.4,928.8,1155.9,597.9,2486.6,3479.5,3474.6,670.1,891.5,2218.8,1231.9,1173.5,1265.8,-4.0,3.0,-4.0,14157.0,-4029.0,4358.0,-5726.0,-79.0,-84.0,12.0,2.0,-7.0,18.0,12782.0,-9005.0,2986.0,-3880.0,-25.0,29.0,-14.0,1.0
2022-05-13 12:34:29.053790-07:00,1254.2,872.1,1235.5,1055.6,1101.7,806.0,1761.8,1367.6,3473.4,3472.2,1137.5,927.9,1711.0,3478.3,1415.8,1383.0,3473.4,3475.9,402.8,638.4,928.8,1155.9,597.9,2486.6,3472.2,3475.9,666.8,891.5,2217.8,1231.9,1173.5,1265.8,-9.0,44.0,-9.0,14164.0,-4081.0,4312.0,-5705.0,-152.0,-141.0,-60.0,7.0,9.0,-11.0,12769.0,-9017.0,2991.0,-3890.0,-180.0,19.0,-31.0,1.0
2022-05-13 12:34:29.096164-07:00,1256.0,870.5,1231.9,1048.7,1087.7,806.0,1761.8,1367.6,3477.1,3468.6,1130.5,911.8,1714.8,3478.3,1415.8,1383.0,3473.4,3475.9,402.8,635.9,922.0,1156.8,596.3,2488.7,3472.2,3475.9,666.8,892.4,2211.6,1220.4,1163.8,1273.0,5.0,-22.0,9.0,14146.0,-4194.0,4266.0,-5705.0,-162.0,-161.0,-123.0,-12.0,-5.0,-14.0,12724.0,-9077.0,3007.0,-3885.0,-134.0,-16.0,-11.0,1.0
2022-05-13 12:34:29.232756-07:00,1256.0,870.5,1231.9,1048.7,1096.4,802.7,1756.0,1386.6,3477.1,3468.6,1130.5,911.8,1711.0,3475.9,1416.7,1374.8,3488.0,3484.4,402.8,637.6,922.0,1156.8,596.3,2488.7,3472.2,3472.2,661.9,896.6,2211.6,1220.4,1163.8,1273.0,0.0,-19.0,7.0,14140.0,-4241.0,4235.0,-5707.0,-20.0,-68.0,-4.0,-3.0,-5.0,0.0,12704.0,-9110.0,3009.0,-3874.0,-10.0,-34.0,-4.0,1.0
2022-05-13 12:34:29.234849-07:00,1253.3,870.5,1235.5,1053.0,1096.4,802.7,1756.0,1386.6,3469.8,3475.9,1134.9,928.8,1711.0,3475.9,1416.7,1374.8,3488.0,3484.4,402.8,637.6,932.2,1158.6,596.3,2484.4,3472.2,3472.2,661.9,896.6,2216.8,1206.2,1156.8,1258.7,10.0,-9.0,23.0,14150.0,-4246.0,4227.0,-5684.0,-21.0,-3.0,72.0,-1.0,6.0,-1.0,12710.0,-9108.0,2999.0,-3865.0,26.0,-35.0,22.0,1.0
2022-05-13 12:34:29.323173-07:00,1253.3,870.5,1235.5,1053.0,1088.6,801.0,1744.5,1392.1,3469.8,3475.9,1134.9,928.8,1706.2,3474.6,1414.9,1374.8,3473.4,3481.9,402.0,635.9,932.2,1158.6,596.3,2484.4,3468.6,3477.1,665.2,895.7,2216.8,1206.2,1156.8,1258.7,-3.0,-8.0,4.0,14169.0,-4209.0,4259.0,-5642.0,96.0,60.0,161.0,-5.0,-15.0,-1.0,12733.0,-9088.0,2990.0,-3845.0,147.0,-43.0,58.0,1.0
2022-05-13 12:34:29.324513-07:00,1252.4,865.4,1232.8,1046.1,1088.6,801.0,1744.5,1392.1,3473.4,3480.7,1133.1,925.4,1706.2,3474.6,1414.9,1374.8,3473.4,3481.9,402.0,635.9,930.5,1154.2,596.3,2482.3,3468.6,3477.1,665.2,895.7,2211.6,1200.9,1145.4,1245.3,-1.0,13.0,-5.0,14195.0,-4152.0,4279.0,-5603.0,101.0,28.0,132.0,-7.0,-10.0,0.0,12775.0,-9042.0,2977.0,-3823.0,134.0,-48.0,59.0,1.0
2022-05-13 12:34:29.368328-07:00,1252.4,865.4,1232.8,1046.1,1072.9,804.4,1756.0,1398.5,3473.4,3480.7,1133.1,925.4,1706.2,3462.5,1417.6,1372.1,3468.6,3479.5,402.0,636.7,930.5,1154.2,596.3,2482.3,3477.1,3478.3,666.0,888.2,2211.6,1200.9,1145.4,1245.3,1.0,19.0,-6.0,14222.0,-4104.0,4280.0,-5569.0,44.0,-13.0,123.0,-8.0,9.0,-5.0,12809.0,-9003.0,2966.0,-3808.0,88.0,-36.0,34.0,1.0
2022-05-13 12:34:29.456372-07:00,1256.9,867.1,1239.1,1052.2,1072.9,804.4,1756.0,1383.9,3468.6,3483.2,1134.9,923.7,1706.2,3462.5,1417.6,1377.5,3475.9,3479.5,402.0,636.7,927.1,1157.7,593.9,2478.1,3477.1,3478.3,666.0,888.2,2200.4,1206.2,1140.1,1256.9,-10.0,45.0,4.0,14239.0,-4065.0,4285.0,-5549.0,85.0,28.0,28.0,-15.0,16.0,16.0,12836.0,-8975.0,2950.0,-3798.0,35.0,-17.0,-3.0,1.0
2022-05-13 12:34:29.457993-07:00,1253.3,867.1,1239.1,1052.2,1069.5,794.4,1750.2,1383.9,3471.0,3483.2,1134.9,923.7,1710.0,3462.5,1413.1,1377.5,3475.9,3466.1,402.0,634.3,927.1,1157.7,593.9,2479.1,3477.1,3472.2,655.4,883.9,2200.4,1206.2,1140.1,1256.9,-5.0,32.0,2.0,14232.0,-4082.0,4272.0,-5566.0,-65.0,-60.0,-115.0,-10.0,0.0,19.0,12829.0,-8984.0,2954.0,-3797.0,-96.0,17.0,-21.0,1.0
2022-05-13 12:34:29.592007-07:00,1253.3,862.9,1225.7,1043.5,1069.5,794.4,1750.2,1376.6,3471.0,3473.4,1127.9,928.8,1710.0,3462.5,1413.1,1379.4,3478.3,3466.1,402.0,634.3,925.4,1158.6,596.3,2479.1,3478.3,3472.2,655.4,883.9,2208.6,1197.4,1141.0,1256.9,4.0,-3.0,19.0,14215.0,-4131.0,4245.0,-5594.0,-70.0,-40.0,-79.0,0.0,0.0,9.0,12800.0,-9018.0,2968.0,-3802.0,-94.0,27.0,-25.0,1.0
2022-05-13 12:34:29.639079-07:00,1253.3,862.9,1225.7,1043.5,1080.8,803.5,1745.4,1376.6,3478.3,3473.4,1127.9,928.8,1709.1,3473.4,1420.4,1379.4,3478.3,3475.9,401.2,633.5,925.4,1158.6,596.3,2472.7,3478.3,3483.2,661.1,889.0,2208.6,1197.4,1141.0,1227.5,-3.0,-8.0,11.0,14209.0,-4153.0,4237.0,-5598.0,-25.0,-48.0,-25.0,3.0,-18.0,9.0,12782.0,-9037.0,2979.0,-3809.0,-30.0,21.0,-3.0,1.0
2022-05-13 12:34:29.640249-07:00,1253.3,854.5,1230.2,1033.2,1080.8,803.5,1745.4,1371.2,3478.3,3471.0,1127.0,923.7,1709.1,3473.4,1420.4,1381.2,3468.6,3475.9,401.2,633.5,927.9,1154.2,596.3,2472.7,3475.9,3483.2,661.1,889.0,2227.0,1200.0,1138.4,1227.5,12.0,-9.0,10.0,14209.0,-4177.0,4215.0,-5598.0,-16.0,-50.0,-16.0,5.0,-9.0,-1.0,12776.0,-9043.0,2988.0,-3809.0,-14.0,5.0,19.0,1.0
2022-05-13 12:34:29.641329-07:00,1250.6,872.1,1230.2,1033.2,1085.1,805.2,1739.7,1371.2,3471.0,3466.1,1127.0,923.7,1711.0,3480.7,1415.8,1381.2,3468.6,3469.8,398.9,630.3,927.9,1154.2,593.9,2464.2,3475.9,3469.8,668.4,888.2,2227.0,1200.0,1133.1,1221.3,15.0,1.0,18.0,14209.0,-4188.0,4212.0,-5590.0,-71.0,27.0,27.0,6.0,-7.0,0.0,12774.0,-9047.0,2996.0,-3798.0,-27.0,6.0,42.0,1.0
2022-05-13 12:34:29.728638-07:00,1250.6,872.1,1228.4,1041.8,1085.1,805.2,1733.0,1368.5,3471.0,3466.1,1132.2,924.5,1711.0,3480.7,1419.5,1374.8,3483.2,3469.8,398.9,630.3,927.1,1155.0,593.9,2464.2,3474.6,3472.2,668.4,888.2,2210.6,1195.6,1133.1,1221.3,6.0,6.0,32.0,14199.0,-4219.0,4242.0,-5571.0,-149.0,13.0,54.0,28.0,-17.0,35.0,12758.0,-9067.0,3023.0,-3786.0,-133.0,66.0,48.0,1.0
2022-05-13 12:34:29.729826-07:00,1248.0,867.9,1228.4,1041.8,1078.2,806.9,1733.0,1368.5,3462.5,3469.8,1132.2,924.5,1711.0,3475.9,1419.5,1374.8,3483.2,3469.8,398.9,631.1,927.1,1155.0,593.1,2466.4,3474.6,3472.2,667.6,889.0,2210.6,1195.6,1125.2,1204.4,44.0,-10.0,46.0,14185.0,-4309.0,4277.0,-5510.0,-317.0,3.0,81.0,46.0,-16.0,23.0,12722.0,-9104.0,3084.0,-3768.0,-201.0,96.0,147.0,1.0
2022-05-13 12:34:29.816195-07:00,1248.0,867.9,1234.6,1039.2,1078.2,806.9,1733.0,1364.8,3462.5,3469.8,1128.7,922.0,1711.0,3475.9,1413.1,1382.1,3486.8,3480.7,398.9,631.1,927.1,1155.9,593.1,2466.4,3478.3,3472.2,667.6,889.0,2208.6,1191.2,1125.2,1204.4,111.0,40.0,111.0,14141.0,-4437.0,4401.0,-5422.0,-546.0,298.0,189.0,90.0,31.0,33.0,12665.0,-9167.0,3186.0,-3719.0,-360.0,138.0,245.0,1.0
2022-05-13 12:34:29.861485-07:00,1240.8,858.7,1234.6,1039.2,1076.4,815.2,1733.0,1364.8,3468.6,3473.4,1128.7,922.0,1710.0,3473.4,1413.1,1382.1,3486.8,3480.7,396.5,631.9,927.1,1155.9,598.7,2465.3,3478.3,3472.2,664.4,883.9,2208.6,1191.2,1135.7,1216.0,99.0,138.0,52.0,14011.0,-4643.0,4702.0,-5335.0,-961.0,515.0,50.0,94.0,78.0,27.0,12550.0,-9297.0,3327.0,-3663.0,-636.0,236.0,252.0,1.0
2022-05-13 12:34:29.998316-07:00,1240.8,858.7,1224.8,1047.8,1076.4,815.2,1733.0,1351.2,3468.6,3473.4,1121.7,927.9,1710.0,3473.4,1414.9,1383.9,3480.7,3479.5,396.5,631.9,927.9,1158.6,598.7,2465.3,3474.6,3484.4,664.4,883.9,2214.7,1192.0,1135.7,1216.0,100.0,139.0,1.0,13729.0,-5089.0,5122.0,-5275.0,-1679.0,740.0,-242.0,52.0,79.0,-25.0,12289.0,-9586.0,3570.0,-3574.0,-1313.0,320.0,172.0,1.0
2022-05-13 12:34:30.000556-07:00,1251.5,856.2,1214.2,1047.8,1080.8,813.5,1733.0,1351.2,3474.6,3471.0,1118.2,927.9,1708.1,3475.9,1414.9,1383.9,3480.7,3479.5,395.0,635.9,927.9,1149.8,593.1,2472.7,3474.6,3484.4,667.6,883.1,2214.7,1196.5,1136.6,1183.2,60.0,80.0,-72.0,13294.0,-5675.0,5640.0,-5263.0,-1905.0,924.0,-376.0,-8.0,59.0,-67.0,11877.0,-10023.0,3848.0,-3479.0,-1529.0,325.0,62.0,1.0
2022-05-13 12:34:30.001707-07:00,1251.5,856.2,1214.2,1040.1,1080.8,804.4,1741.6,1362.1,3474.6,3471.0,1118.2,922.0,1708.1,3469.8,1414.0,1379.4,3480.7,3473.4,398.1,635.9,929.6,1149.8,593.1,2472.7,3480.7,3474.6,666.8,883.1,2210.6,1196.5,1136.6,1183.2,9.0,20.0,-127.0,12801.0,-6289.0,6129.0,-5239.0,-1895.0,778.0,-397.0,-49.0,60.0,-81.0,11434.0,-10462.0,4086.0,-3397.0,-1477.0,290.0,-19.0,1.0
2022-05-13 12:34:30.041885-07:00,1247.1,855.3,1190.3,1040.1,1078.2,804.4,1741.6,1362.1,3473.4,3478.3,1107.8,922.0,1712.9,3469.8,1414.0,1379.4,3480.7,3473.4,398.1,632.7,929.6,1155.0,593.9,2470.6,3480.7,3474.6,666.8,881.4,2210.6,1181.5,1120.9,1185.0,-34.0,-3.0,-87.0,12317.0,-6825.0,6551.0,-5219.0,-1488.0,734.0,-478.0,-87.0,3.0,-68.0,11010.0,-10854.0,4272.0,-3340.0,-1288.0,253.0,-82.0,1.0
2022-05-13 12:34:30.088629-07:00,1247.1,855.3,1190.3,1034.9,1078.2,799.4,1740.6,1369.4,3473.4,3478.3,1107.8,914.4,1712.9,3478.3,1415.8,1375.7,3471.0,3473.4,405.1,632.7,926.2,1155.0,593.9,2470.6,3468.6,3474.6,666.8,881.4,2199.3,1181.5,1120.9,1185.0,-66.0,42.0,-66.0,11860.0,-7289.0,6860.0,-5253.0,-1544.0,614.0,-473.0,-85.0,58.0,-35.0,10615.0,-11201.0,4415.0,-3290.0,-1293.0,216.0,-105.0,1.0
2022-05-13 12:34:30.177351-07:00,1249.7,856.2,1183.2,1034.9,1078.2,799.4,1740.6,1369.4,3467.4,3460.1,1106.9,914.4,1706.2,3478.3,1415.8,1375.7,3471.0,3473.4,405.1,626.2,926.2,1153.3,594.7,2467.4,3468.6,3474.6,666.8,876.4,2199.3,1176.2,1108.6,1179.7,-57.0,47.0,-14.0,11344.0,-7775.0,7225.0,-5204.0,-1639.0,688.0,-430.0,-84.0,7.0,1.0,10165.0,-11573.0,4555.0,-3227.0,-1427.0,216.0,-141.0,1.0
2022-05-13 12:34:30.179582-07:00,1249.7,856.2,1183.2,1032.3,1070.3,798.5,1762.7,1362.1,3467.4,3460.1,1106.9,916.9,1710.0,3467.4,1412.2,1385.7,3485.6,3481.9,402.0,633.5,924.5,1153.3,594.7,2467.4,3474.6,3472.2,657.9,871.3,2213.7,1176.2,1108.6,1179.7,-66.0,23.0,50.0,10836.0,-8220.0,7532.0,-5169.0,-1431.0,648.0,-388.0,-71.0,3.0,36.0,9709.0,-11927.0,4681.0,-3165.0,-1318.0,230.0,-193.0,1.0
2022-05-13 12:34:30.266257-07:00,1248.0,850.3,1182.3,1030.6,1070.3,798.5,1762.7,1362.1,3469.8,3471.0,1108.6,917.7,1710.0,3467.4,1412.2,1385.7,3485.6,3481.9,402.0,633.5,927.9,1158.6,597.9,2462.1,3474.6,3472.2,657.9,871.3,2196.3,1175.3,1112.1,1174.4,-73.0,50.0,47.0,10380.0,-8563.0,7786.0,-5170.0,-1110.0,583.0,-480.0,-44.0,-39.0,55.0,9274.0,-12235.0,4765.0,-3167.0,-1153.0,305.0,-315.0,1.0
2022-05-13 12:34:30.356902-07:00,1248.0,850.3,1182.3,1030.6,1058.2,797.7,1768.5,1367.6,3469.8,3471.0,1108.6,917.7,1711.0,3471.0,1415.8,1374.8,3473.4,3473.4,406.7,631.1,927.9,1158.6,597.9,2462.1,3473.4,3472.2,657.9,869.6,2196.3,1175.3,1112.1,1174.4,-128.0,-56.0,22.0,9980.0,-8896.0,7885.0,-5246.0,-850.0,357.0,-722.0,-68.0,-126.0,44.0,8842.0,-12517.0,4805.0,-3239.0,-975.0,365.0,-432.0,1.0
2022-05-13 12:34:30.506314-07:00,1246.2,846.1,1191.2,1013.3,1058.2,797.7,1768.5,1367.6,3478.3,3471.0,1106.0,926.2,1711.0,3471.0,1415.8,1374.8,3473.4,3473.4,406.7,631.1,927.9,1154.2,593.9,2450.4,3473.4,3472.2,657.9,869.6,2194.2,1186.7,1104.3,1171.8,-37.0,-162.0,22.0,9725.0,-9165.0,7812.0,-5369.0,-282.0,109.0,-714.0,-42.0,-86.0,-85.0,8539.0,-12676.0,4852.0,-3362.0,-481.0,421.0,-221.0,1.0
2022-05-13 12:34:30.508559-07:00,1246.2,846.1,1191.2,1013.3,1057.3,790.2,1749.3,1374.8,3478.3,3471.0,1106.0,926.2,1710.0,3472.2,1414.9,1375.7,3472.2,3484.4,400.4,629.5,927.9,1154.2,593.9,2450.4,3478.3,3484.4,661.1,867.1,2194.2,1186.7,1104.3,1171.8,40.0,-91.0,-95.0,9533.0,-9288.0,7786.0,-5539.0,-263.0,373.0,-443.0,12.0,-3.0,-130.0,8339.0,-12752.0,4936.0,-3451.0,-448.0,301.0,-29.0,1.0
2022-05-13 12:34:30.671514-07:00,1248.0,867.1,1182.3,1021.1,1057.3,790.2,1749.3,1374.8,3477.1,3478.3,1106.0,916.0,1710.0,3472.2,1414.9,1375.7,3480.7,3484.4,400.4,629.5,931.3,1156.8,597.1,2452.6,3480.7,3484.4,661.1,867.1,2205.5,1185.9,1092.9,1170.0,43.0,-106.0,-117.0,9363.0,-9397.0,7817.0,-5600.0,-273.0,68.0,-195.0,35.0,-10.0,-102.0,8195.0,-12816.0,5012.0,-3450.0,-261.0,49.0,43.0,1.0
2022-05-13 12:34:30.716480-07:00,1253.3,867.1,1182.3,1021.1,1048.7,801.0,1750.2,1374.8,3473.4,3478.3,1106.0,916.0,1711.0,3468.6,1406.7,1375.7,3480.7,3478.3,400.4,623.8,931.3,1156.8,597.1,2477.0,3480.7,3469.8,662.7,864.6,2205.5,1185.9,1092.9,1171.8,44.0,-57.0,-46.0,9381.0,-9441.0,7771.0,-5560.0,66.0,-281.0,56.0,15.0,22.0,-78.0,8197.0,-12828.0,5001.0,-3418.0,199.0,-162.0,28.0,1.0
2022-05-13 12:34:30.718524-07:00,1253.3,851.1,1172.6,1028.0,1048.7,801.0,1750.2,1379.4,3473.4,3469.8,1108.6,918.6,1711.0,3468.6,1406.7,1376.6,3474.6,3478.3,400.4,623.8,933.9,1157.7,597.1,2477.0,3478.3,3469.8,662.7,864.6,2208.6,1161.2,1090.3,1171.8,-3.0,16.0,29.0,9478.0,-9414.0,7738.0,-5487.0,132.0,-212.0,217.0,0.0,11.0,3.0,8300.0,-12798.0,4940.0,-3369.0,250.0,-221.0,6.0,1.0
2022-05-13 12:34:30.719663-07:00,1243.5,851.1,1172.6,1028.0,1062.5,796.0,1752.1,1379.4,3472.2,3469.8,1108.6,918.6,1702.4,3478.3,1400.3,1376.6,3474.6,3474.6,401.2,623.0,933.9,1157.7,597.1,2439.8,3478.3,3475.9,658.7,864.6,2208.6,1161.2,1090.3,1172.6,-40.0,51.0,72.0,9574.0,-9378.0,7720.0,-5406.0,104.0,-209.0,127.0,-25.0,1.0,40.0,8378.0,-12774.0,4891.0,-3339.0,186.0,-152.0,-11.0,1.0
2022-05-13 12:34:30.721369-07:00,1243.5,850.3,1181.5,1025.4,1062.5,796.0,1752.1,1372.1,3472.2,3467.4,1114.7,916.9,1702.4,3478.3,1400.3,1383.0,3471.0,3474.6,401.2,623.0,930.5,1160.3,594.7,2439.8,3477.1,3475.9,658.7,864.6,2201.4,1167.4,1090.3,1172.6,-50.0,38.0,70.0,9655.0,-9336.0,7681.0,-5389.0,154.0,-45.0,17.0,-49.0,4.0,32.0,8445.0,-12750.0,4844.0,-3331.0,135.0,-26.0,-43.0,1.0
2022-05-13 12:34:30.806275-07:00,1234.6,850.3,1181.5,1025.4,1047.0,793.5,1748.3,1372.1,3475.9,3467.4,1114.7,916.9,1706.2,3471.0,1411.3,1383.0,3471.0,3478.3,403.5,628.6,930.5,1160.3,594.7,2455.7,3477.1,3483.2,655.4,884.8,2201.4,1167.4,1090.3,1164.7,-29.0,7.0,45.0,9722.0,-9264.0,7672.0,-5409.0,73.0,44.0,-27.0,-24.0,-4.0,9.0,8487.0,-12721.0,4834.0,-3347.0,59.0,65.0,-28.0,1.0
2022-05-13 12:34:30.807306-07:00,1234.6,850.3,1181.5,1025.4,1047.0,793.5,1748.3,1372.1,3475.9,3467.4,1114.7,916.9,1706.2,3471.0,1411.3,1383.0,3471.0,3478.3,403.5,628.6,930.5,1160.3,594.7,2455.7,3477.1,3483.2,655.4,884.8,2201.4,1167.4,1090.3,1164.7,-29.0,7.0,45.0,9722.0,-9264.0,7672.0,-5409.0,73.0,44.0,-27.0,-24.0,-4.0,9.0,8487.0,-12721.0,4834.0,-3347.0,59.0,65.0,-28.0,1.0
2022-05-13 12:34:30.852566-07:00,1251.5,841.1,1171.8,1024.5,1044.4,798.5,1745.4,1372.1,3466.1,3471.0,1109.5,919.4,1711.0,3464.9,1407.6,1379.4,3478.3,3472.2,405.9,624.6,929.6,1154.2,598.7,2458.9,3483.2,3472.2,653.0,864.6,2188.1,1162.1,1091.2,1171.8,11.0,-8.0,-13.0,9767.0,-9184.0,7635.0,-5515.0,162.0,-14.0,-61.0,5.0,10.0,-34.0,8528.0,-12674.0,4831.0,-3426.0,123.0,41.0,-43.0,1.0
2022-05-13 12:34:30.853971-07:00,1251.5,841.1,1180.6,1025.4,1044.4,798.5,1749.3,1360.3,3466.1,3471.0,1110.4,919.4,1711.0,3464.9,1411.3,1382.1,3472.2,3474.6,405.9,624.6,932.2,1155.0,598.7,2458.9,3479.5,3479.5,653.0,864.6,2205.5,1159.4,1091.2,1171.8,0.0,-28.0,-2.0,9779.0,-9174.0,7614.0,-5539.0,6.0,-11.0,-16.0,9.0,-11.0,-16.0,8531.0,-12672.0,4818.0,-3443.0,-7.0,-25.0,-15.0,1.0
2022-05-13 12:34:30.896203-07:00,1239.1,843.6,1180.6,1025.4,1051.3,794.4,1749.3,1360.3,3464.9,3474.6,1110.4,919.4,1711.0,3466.1,1411.3,1382.1,3472.2,3474.6,399.6,623.8,932.2,1155.0,595.5,2460.0,3479.5,3479.5,653.0,862.1,2205.5,1159.4,1081.6,1158.6,-1.0,-5.0,18.0,9799.0,-9175.0,7602.0,-5518.0,26.0,-85.0,49.0,-1.0,0.0,-7.0,8541.0,-12673.0,4806.0,-3434.0,60.0,-41.0,9.0,1.0
2022-05-13 12:34:31.077224-07:00,1239.1,843.6,1176.2,1024.5,1051.3,794.4,1743.5,1374.8,3464.9,3474.6,1103.4,913.5,1711.0,3466.1,1404.0,1375.7,3480.7,3475.9,399.6,623.8,928.8,1157.7,595.5,2460.0,3467.4,3472.2,653.0,862.1,2200.4,1161.2,1081.6,1158.6,-16.0,13.0,31.0,9838.0,-9153.0,7590.0,-5502.0,45.0,-33.0,36.0,-19.0,2.0,5.0,8568.0,-12662.0,4792.0,-3426.0,55.0,-33.0,1.0,1.0
2022-05-13 12:34:31.166553-07:00,1237.3,848.6,1182.3,1024.5,1046.1,798.5,1743.5,1374.8,3471.0,3474.6,1107.8,913.5,1707.2,3469.8,1404.0,1375.7,3480.7,3475.9,399.6,623.8,928.8,1152.4,595.5,2456.8,3467.4,3472.2,653.8,867.9,2200.4,1163.0,1098.2,1161.2,-24.0,11.0,31.0,9873.0,-9122.0,7585.0,-5498.0,55.0,-17.0,18.0,-13.0,0.0,9.0,8587.0,-12651.0,4786.0,-3425.0,49.0,6.0,7.0,1.0
2022-05-13 12:34:31.211452-07:00,1237.3,848.6,1182.3,1030.6,1046.1,798.5,1753.1,1368.5,3471.0,3474.6,1107.8,915.2,1707.2,3472.2,1413.1,1375.7,3478.3,3478.3,405.9,623.8,930.5,1152.4,595.5,2456.8,3472.2,3480.7,656.2,867.9,2207.5,1163.0,1098.2,1161.2,-9.0,9.0,18.0,9885.0,-9110.0,7580.0,-5503.0,-8.0,13.0,-27.0,-8.0,-1.0,-1.0,8594.0,-12644.0,4790.0,-3432.0,-27.0,20.0,5.0,1.0
2022-05-13 12:34:31.214456-07:00,1239.1,838.6,1175.3,1030.6,1056.5,798.5,1753.1,1368.5,3473.4,3457.6,1110.4,915.2,1706.2,3472.2,1413.1,1375.7,3478.3,3478.3,405.9,625.4,930.5,1154.2,591.5,2461.0,3472.2,3480.7,656.2,859.5,2207.5,1159.4,1079.9,1155.9,-6.0,-1.0,8.0,9884.0,-9105.0,7577.0,-5515.0,24.0,23.0,-5.0,-8.0,4.0,-9.0,8588.0,-12643.0,4798.0,-3437.0,4.0,25.0,11.0,1.0
2022-05-13 12:34:31.302668-07:00,1239.1,838.6,1175.3,1015.1,1056.5,794.4,1748.3,1372.1,3473.4,3457.6,1110.4,913.5,1706.2,3475.9,1412.2,1382.1,3474.6,3479.5,400.4,625.4,930.5,1154.2,591.5,2461.0,3467.4,3475.9,653.8,859.5,2199.3,1159.4,1079.9,1155.9,-3.0,-1.0,-2.0,9892.0,-9096.0,7574.0,-5519.0,40.0,-22.0,19.0,-9.0,6.0,-9.0,8589.0,-12639.0,4804.0,-3442.0,24.0,11.0,8.0,1.0
2022-05-13 12:34:31.303940-07:00,1236.4,852.0,1172.6,1015.1,1047.0,794.4,1748.3,1372.1,3475.9,3474.6,1106.0,913.5,1707.2,3475.9,1412.2,1382.1,3474.6,3479.5,400.4,622.2,930.5,1158.6,589.9,2455.7,3467.4,3475.9,653.8,851.1,2199.3,1161.2,1072.9,1155.9,-10.0,-64.0,5.0,9941.0,-9058.0,7559.0,-5515.0,253.0,-81.0,120.0,6.0,-33.0,-1.0,8605.0,-12627.0,4800.0,-3448.0,92.0,15.0,7.0,1.0
2022-05-13 12:34:31.305699-07:00,1236.4,852.0,1172.6,1026.3,1047.8,796.0,1749.3,1368.5,3475.9,3474.6,1106.0,916.9,1711.0,3473.4,1404.9,1380.3,3472.2,3471.0,399.6,622.2,925.4,1158.6,589.9,2455.7,3474.6,3467.4,659.5,865.4,2207.5,1161.2,1072.9,1155.9,-66.0,-219.0,15.0,10252.0,-8752.0,7503.0,-5518.0,1585.0,-216.0,857.0,-53.0,-77.0,1.0,8830.0,-12452.0,4768.0,-3560.0,1366.0,177.0,46.0,1.0
2022-05-13 12:34:31.347589-07:00,1239.1,847.0,1297.2,1086.8,1047.8,796.0,1749.3,1368.5,3472.2,3468.6,1112.1,918.6,1711.0,3473.4,1404.9,1380.3,3472.2,3471.0,399.6,622.2,928.8,1154.2,590.7,2445.1,3474.6,3467.4,659.5,865.4,2205.5,1155.0,1086.0,1154.2,-169.0,-197.0,-91.0,11077.0,-7850.0,7256.0,-5609.0,3034.0,-637.0,1103.0,-123.0,-271.0,-164.0,9526.0,-11881.0,4632.0,-3883.0,2920.0,208.0,233.0,1.0
2022-05-13 12:34:31.349189-07:00,1239.1,847.0,1297.2,1086.8,1049.6,799.4,1795.5,1436.0,3472.2,3468.6,1112.1,918.6,1704.3,3455.2,1426.8,1375.7,3466.1,3477.1,402.8,623.8,928.8,1154.2,590.7,2445.1,3483.2,3489.2,671.7,869.6,2205.5,1155.0,1086.0,1154.2,-156.0,-77.0,-142.0,11822.0,-7066.0,6825.0,-5672.0,1807.0,-807.0,809.0,-105.0,-105.0,-56.0,10282.0,-11235.0,4488.0,-4043.0,1812.0,-194.0,484.0,1.0
2022-05-13 12:34:31.393250-07:00,1248.0,852.0,1425.9,1143.6,1049.6,799.4,1795.5,1436.0,3468.6,3466.1,1105.1,922.0,1704.3,3455.2,1426.8,1375.7,3466.1,3477.1,402.8,623.8,926.2,1150.6,589.9,2442.0,3483.2,3489.2,671.7,869.6,2200.4,1170.9,1109.5,1153.3,-61.0,-7.0,-67.0,12398.0,-6582.0,6416.0,-5498.0,1643.0,-1112.0,721.0,-132.0,-127.0,-34.0,10827.0,-10774.0,4390.0,-3982.0,1487.0,-373.0,512.0,1.0
2022-05-13 12:34:31.437054-07:00,1248.0,852.0,1425.9,1143.6,1047.0,803.5,1799.4,1470.0,3468.6,3466.1,1105.1,922.0,1711.0,3468.6,1414.9,1393.0,3473.4,3480.7,396.5,627.8,926.2,1150.6,589.9,2442.0,3469.8,3480.7,684.8,872.1,2200.4,1170.9,1109.5,1153.3,32.0,79.0,-86.0,13056.0,-6002.0,5719.0,-5408.0,2300.0,-1535.0,540.0,-24.0,146.0,-78.0,11484.0,-10166.0,4169.0,-3979.0,2191.0,-468.0,304.0,1.0
2022-05-13 12:34:31.481799-07:00,1241.7,837.7,1375.7,1137.5,1047.0,803.5,1799.4,1470.0,3469.8,3472.2,1098.2,917.7,1711.0,3468.6,1414.9,1393.0,3473.4,3480.7,396.5,627.8,926.2,1148.0,597.1,2445.1,3469.8,3480.7,684.8,872.1,2206.5,1163.8,1111.2,1157.7,143.0,245.0,-82.0,13587.0,-5414.0,5079.0,-5359.0,1500.0,-1046.0,273.0,94.0,160.0,-34.0,11976.0,-9696.0,3909.0,-3966.0,1037.0,-435.0,135.0,1.0
2022-05-13 12:34:31.572615-07:00,1241.7,837.7,1375.7,1137.5,1046.1,811.0,1787.8,1446.0,3473.4,3472.2,1098.2,917.7,1710.0,3469.8,1404.0,1379.4,3464.9,3478.3,402.8,629.5,926.2,1148.0,597.1,2455.7,3473.4,3479.5,670.9,879.7,2206.5,1163.8,1111.2,1135.7,151.0,117.0,-14.0,13858.0,-5177.0,4599.0,-5332.0,868.0,-819.0,-22.0,93.0,169.0,-36.0,12223.0,-9466.0,3716.0,-3951.0,778.0,-306.0,-37.0,1.0
2022-05-13 12:34:31.616312-07:00,1241.7,841.1,1359.4,1104.3,1046.1,811.0,1787.8,1439.6,3473.4,3477.1,1106.9,911.8,1710.0,3469.8,1404.0,1374.8,3478.3,3478.3,402.8,629.5,927.9,1148.9,601.2,2455.7,3478.3,3479.5,670.9,879.7,2202.4,1164.7,1089.5,1135.7,97.0,82.0,-71.0,14021.0,-5016.0,4282.0,-5325.0,520.0,-554.0,-18.0,67.0,71.0,-37.0,12385.0,-9314.0,3546.0,-3963.0,441.0,-267.0,-92.0,1.0
2022-05-13 12:34:31.665135-07:00,1232.8,841.1,1359.4,1104.3,1035.7,807.7,1774.3,1439.6,3469.8,3477.1,1106.9,911.8,1702.4,3478.3,1411.3,1374.8,3478.3,3468.6,395.0,624.6,927.9,1148.9,601.2,2445.1,3478.3,3477.1,680.7,871.3,2202.4,1164.7,1089.5,1145.4,84.0,15.0,6.0,14109.0,-4977.0,3998.0,-5350.0,238.0,-463.0,-210.0,44.0,29.0,-31.0,12457.0,-9273.0,3415.0,-3951.0,72.0,-246.0,-84.0,1.0
2022-05-13 12:34:31.706273-07:00,1232.8,833.6,1339.5,1106.9,1035.7,807.7,1774.3,1432.3,3469.8,3464.9,1099.0,913.5,1702.4,3478.3,1411.3,1381.2,3483.2,3468.6,395.0,624.6,923.7,1154.2,602.8,2445.1,3474.6,3477.1,680.7,871.3,2192.2,1157.7,1082.5,1145.4,44.0,-1.0,62.0,14146.0,-4924.0,3869.0,-5396.0,290.0,-72.0,-35.0,39.0,0.0,21.0,12491.0,-9269.0,3322.0,-3931.0,172.0,-155.0,-40.0,1.0
2022-05-13 12:34:31.751339-07:00,1233.7,833.6,1339.5,1106.9,1028.0,801.0,1767.5,1432.3,3475.9,3464.9,1099.0,913.5,1703.3,3479.5,1410.3,1381.2,3483.2,3475.9,405.1,631.1,923.7,1154.2,602.8,2433.5,3474.6,3472.2,684.8,868.8,2192.2,1157.7,1082.5,1139.2,36.0,43.0,54.0,14177.0,-4781.0,3846.0,-5458.0,356.0,179.0,-44.0,26.0,23.0,46.0,12555.0,-9208.0,3252.0,-3931.0,232.0,-103.0,-35.0,1.0
2022-05-13 12:34:31.796818-07:00,1233.7,852.8,1325.9,1110.4,1028.0,801.0,1767.5,1429.5,3475.9,3464.9,1099.9,916.0,1703.3,3479.5,1405.8,1374.8,3473.4,3480.7,405.1,631.1,920.3,1147.1,599.6,2433.5,3483.2,3469.8,684.8,868.8,2198.3,1151.5,1090.3,1139.2,14.0,68.0,16.0,14174.0,-4664.0,3920.0,-5515.0,63.0,270.0,-19.0,19.0,27.0,51.0,12583.0,-9181.0,3207.0,-3940.0,11.0,-52.0,-52.0,1.0
2022-05-13 12:34:31.842407-07:00,1237.3,842.8,1325.9,1110.4,1034.9,803.5,1767.5,1429.5,3472.2,3469.8,1099.9,916.0,1701.4,3472.2,1405.8,1374.8,3473.4,3480.7,402.0,629.5,920.3,1147.1,605.2,2447.3,3483.2,3469.8,684.8,866.3,2198.3,1151.5,1086.0,1139.2,-2.0,15.0,22.0,14120.0,-4711.0,4016.0,-5544.0,-294.0,174.0,-45.0,1.0,-10.0,49.0,12542.0,-9244.0,3191.0,-3936.0,-260.0,-32.0,-48.0,1.0
2022-05-13 12:34:31.931399-07:00,1237.3,842.8,1326.8,1084.2,1034.9,803.5,1763.7,1428.6,3472.2,3469.8,1100.8,921.1,1701.4,3472.2,1401.2,1367.6,3466.1,3478.3,402.0,629.5,922.0,1151.5,605.2,2447.3,3475.9,3469.8,684.8,866.3,2205.5,1155.9,1086.0,1139.2,3.0,-39.0,29.0,14080.0,-4779.0,4094.0,-5531.0,-123.0,102.0,15.0,-8.0,-35.0,5.0,12503.0,-9299.0,3189.0,-3932.0,-62.0,-31.0,-34.0,1.0
2022-05-13 12:34:31.932857-07:00,1233.7,839.4,1326.8,1084.2,1040.9,800.2,1763.7,1428.6,3472.2,3475.9,1100.8,921.1,1706.2,3464.9,1401.2,1367.6,3466.1,3478.3,399.6,626.2,922.0,1151.5,597.1,2444.1,3475.9,3469.8,686.4,867.1,2205.5,1155.9,1083.4,1140.1,-23.0,-5.0,12.0,14063.0,-4763.0,4158.0,-5541.0,14.0,152.0,18.0,-19.0,-27.0,31.0,12497.0,-9316.0,3168.0,-3928.0,-17.0,-44.0,-27.0,1.0
2022-05-13 12:34:32.023669-07:00,1233.7,839.4,1318.7,1091.2,1040.9,800.2,1772.3,1425.0,3472.2,3475.9,1102.5,920.3,1706.2,3464.9,1414.0,1377.5,3462.5,3467.4,399.6,626.2,927.9,1149.8,597.1,2444.1,3467.4,3478.3,686.4,867.1,2202.4,1155.0,1083.4,1140.1,-4.0,4.0,1.0,14050.0,-4750.0,4195.0,-5557.0,-27.0,96.0,-33.0,-17.0,-7.0,6.0,12500.0,-9318.0,3158.0,-3922.0,-69.0,-22.0,4.0,1.0
2022-05-13 12:34:32.024669-07:00,1234.6,834.4,1328.7,1091.2,1051.3,801.0,1772.3,1425.0,3466.1,3471.0,1106.0,920.3,1705.3,3472.2,1414.0,1377.5,3462.5,3467.4,398.1,623.8,927.9,1146.3,596.3,2448.3,3467.4,3478.3,675.0,861.2,2202.4,1142.7,1087.7,1129.6,0.0,-9.0,8.0,14040.0,-4758.0,4228.0,-5551.0,-31.0,32.0,54.0,-6.0,-10.0,16.0,12493.0,-9331.0,3158.0,-3914.0,18.0,-19.0,6.0,1.0
2022-05-13 12:34:32.383677-07:00,1234.6,834.4,1328.7,1095.6,1051.3,796.9,1764.6,1459.8,3466.1,3471.0,1106.0,916.0,1705.3,3478.3,1411.3,1379.4,3474.6,3483.2,399.6,623.8,923.7,1146.3,596.3,2448.3,3472.2,3478.3,669.3,861.2,2196.3,1142.7,1087.7,1129.6,10.0,26.0,15.0,14042.0,-4742.0,4246.0,-5543.0,6.0,54.0,20.0,-3.0,1.0,16.0,12509.0,-9310.0,3154.0,-3916.0,42.0,14.0,14.0,1.0
2022-05-13 12:34:32.385159-07:00,1235.5,845.3,1316.9,1095.6,1055.6,796.9,1764.6,1459.8,3467.4,3467.4,1103.4,916.0,1710.0,3478.3,1411.3,1379.4,3474.6,3483.2,399.6,624.6,923.7,1155.0,593.1,2450.4,3472.2,3478.3,669.3,862.1,2196.3,1153.3,1079.9,1144.5,1.0,14.0,-7.0,14030.0,-4749.0,4268.0,-5551.0,-82.0,27.0,-32.0,-10.0,0.0,0.0,12510.0,-9305.0,3162.0,-3919.0,-30.0,29.0,14.0,1.0
2022-05-13 12:34:32.386350-07:00,1235.5,845.3,1316.9,1090.3,1055.6,799.4,1753.1,1428.6,3467.4,3467.4,1103.4,917.7,1710.0,3469.8,1404.9,1381.2,3480.7,3466.1,399.6,624.6,923.7,1155.0,593.1,2450.4,3469.8,3467.4,660.3,862.1,2207.5,1153.3,1079.9,1144.5,6.0,-31.0,0.0,14003.0,-4800.0,4318.0,-5538.0,-140.0,122.0,80.0,-6.0,-12.0,-6.0,12493.0,-9326.0,3173.0,-3913.0,12.0,4.0,-7.0,1.0
2022-05-13 12:34:32.387457-07:00,1233.7,831.9,1307.0,1090.3,1101.7,799.4,1753.1,1428.6,3483.2,3460.1,1111.2,917.7,1711.0,3469.8,1404.9,1381.2,3480.7,3466.1,399.6,633.5,923.7,1154.2,595.5,2448.3,3469.8,3467.4,660.3,867.9,2207.5,1155.0,1061.7,1145.4,-4.0,-17.0,-23.0,13990.0,-4799.0,4395.0,-5511.0,-122.0,147.0,102.0,-18.0,-9.0,-17.0,12498.0,-9321.0,3174.0,-3912.0,-64.0,-11.0,14.0,1.0
2022-05-13 12:34:32.427502-07:00,1233.7,831.9,1307.0,1083.4,1101.7,791.9,1755.0,1413.1,3483.2,3460.1,1111.2,917.7,1711.0,3479.5,1409.4,1376.6,3474.6,3467.4,398.1,633.5,926.2,1154.2,595.5,2448.3,3479.5,3473.4,671.7,867.9,2194.2,1155.0,1061.7,1145.4,9.0,-5.0,4.0,13985.0,-4794.0,4463.0,-5473.0,-11.0,128.0,133.0,-12.0,-15.0,2.0,12495.0,-9331.0,3169.0,-3899.0,-16.0,-35.0,21.0,1.0
2022-05-13 12:34:32.429216-07:00,1233.7,831.9,1307.0,1083.4,1101.7,791.9,1755.0,1413.1,3483.2,3460.1,1111.2,917.7,1711.0,3479.5,1409.4,1376.6,3474.6,3467.4,398.1,633.5,926.2,1154.2,595.5,2448.3,3479.5,3473.4,671.7,867.9,2194.2,1155.0,1061.7,1145.4,9.0,-5.0,4.0,13985.0,-4794.0,4463.0,-5473.0,-11.0,128.0,133.0,-12.0,-15.0,2.0,12495.0,-9331.0,3169.0,-3899.0,-16.0,-35.0,21.0,1.0
2022-05-13 12:34:32.472445-07:00,1234.6,847.8,1272.1,1067.7,1248.8,791.0,1753.1,1417.6,3466.1,3468.6,1127.9,919.4,1700.5,3468.6,1411.3,1374.8,3478.3,3472.2,395.7,640.8,929.6,1148.0,595.5,2458.9,3474.6,3483.2,664.4,863.7,2201.4,1202.7,1150.6,1155.9,14.0,2.0,12.0,13993.0,-4745.0,4612.0,-5371.0,-44.0,207.0,138.0,-4.0,6.0,-15.0,12520.0,-9313.0,3156.0,-3872.0,-23.0,-19.0,7.0,1.0
2022-05-13 12:34:32.473984-07:00,1234.6,847.8,1272.1,1067.7,1232.8,792.7,1744.5,1404.9,3466.1,3468.6,1127.9,919.4,1702.4,3471.0,1416.7,1371.2,3473.4,3475.9,398.9,640.8,929.6,1148.0,595.5,2458.9,3471.0,3477.1,681.5,867.1,2201.4,1202.7,1150.6,1155.9,-24.0,-15.0,52.0,13949.0,-4753.0,4758.0,-5352.0,-303.0,304.0,30.0,-4.0,-63.0,23.0,12487.0,-9358.0,3172.0,-3855.0,-274.0,33.0,68.0,1.0
2022-05-13 12:34:32.563063-07:00,1238.2,852.0,1277.4,1072.9,1232.8,792.7,1744.5,1404.9,3466.1,3462.5,1121.7,923.7,1702.4,3471.0,1416.7,1371.2,3473.4,3475.9,398.9,640.8,934.7,1147.1,593.1,2442.0,3471.0,3477.1,681.5,867.1,2205.5,1224.8,1158.6,1153.3,-33.0,-128.0,95.0,13855.0,-4850.0,4949.0,-5334.0,-389.0,414.0,85.0,-8.0,-124.0,44.0,12414.0,-9452.0,3254.0,-3794.0,-287.0,55.0,252.0,1.0
2022-05-13 12:34:32.606752-07:00,1231.9,852.0,1277.4,1072.9,1208.9,791.9,1743.5,1387.5,3473.4,3462.5,1121.7,923.7,1702.4,3463.7,1411.3,1370.3,3467.4,3478.3,402.0,639.2,934.7,1147.1,593.1,2439.8,3478.3,3477.1,669.3,869.6,2205.5,1224.8,1158.6,1149.8,-32.0,-86.0,70.0,13819.0,-4810.0,5144.0,-5278.0,-32.0,382.0,326.0,-14.0,-82.0,32.0,12421.0,-9443.0,3369.0,-3692.0,77.0,73.0,449.0,1.0
2022-05-13 12:34:32.653317-07:00,1231.9,844.4,1281.9,1066.0,1208.9,791.9,1743.5,1397.6,3473.4,3478.3,1127.0,927.1,1702.4,3463.7,1411.3,1378.5,3472.2,3478.3,402.0,639.2,922.8,1157.7,594.7,2439.8,3472.2,3477.1,669.3,869.6,2214.7,1228.4,1156.8,1149.8,-8.0,-10.0,33.0,13805.0,-4723.0,5350.0,-5190.0,-87.0,449.0,380.0,-6.0,-29.0,23.0,12475.0,-9375.0,3508.0,-3552.0,-24.0,68.0,536.0,1.0
2022-05-13 12:34:32.786323-07:00,1231.9,844.4,1281.9,1066.0,1228.4,790.2,1723.4,1397.6,3463.7,3478.3,1127.0,927.1,1700.5,3478.3,1412.2,1378.5,3472.2,3471.0,398.9,640.8,922.8,1157.7,594.7,2443.0,3472.2,3479.5,678.2,867.1,2214.7,1228.4,1156.8,1152.4,2.0,2.0,8.0,13783.0,-4656.0,5558.0,-5089.0,-108.0,380.0,362.0,-6.0,4.0,2.0,12513.0,-9322.0,3670.0,-3389.0,3.0,80.0,542.0,1.0
2022-05-13 12:34:32.789856-07:00,1231.9,844.4,1259.6,1067.7,1228.4,790.2,1723.4,1378.5,3463.7,3473.4,1140.1,926.2,1700.5,3478.3,1412.2,1377.5,3478.3,3471.0,398.9,640.8,922.0,1137.5,590.7,2443.0,3469.8,3479.5,678.2,867.1,2238.4,1212.4,1161.2,1152.4,26.0,53.0,-35.0,13766.0,-4569.0,5746.0,-5005.0,9.0,377.0,324.0,6.0,31.0,-3.0,12562.0,-9250.0,3816.0,-3242.0,85.0,65.0,463.0,1.0
2022-05-13 12:34:32.791074-07:00,1236.4,844.4,1259.6,1067.7,1213.3,791.9,1716.7,1378.5,3473.4,3473.4,1140.1,926.2,1700.5,3474.6,1405.8,1377.5,3478.3,3473.4,398.9,635.9,922.0,1137.5,590.7,2449.4,3469.8,3477.1,680.7,863.7,2238.4,1212.4,1161.2,1146.3,35.0,76.0,-62.0,13756.0,-4489.0,5878.0,-4950.0,-15.0,218.0,185.0,6.0,63.0,-15.0,12608.0,-9177.0,3932.0,-3127.0,1.0,61.0,334.0,1.0
2022-05-13 12:34:32.831274-07:00,1236.4,846.1,1267.6,1067.7,1213.3,791.9,1723.4,1379.4,3473.4,3468.6,1134.0,919.4,1700.5,3474.6,1410.3,1383.9,3474.6,3474.6,398.9,635.9,926.2,1157.7,592.3,2449.4,3483.2,3473.4,680.7,863.7,2239.4,1211.5,1149.8,1146.3,36.0,65.0,-76.0,13741.0,-4478.0,5949.0,-4916.0,-132.0,143.0,114.0,0.0,61.0,-25.0,12617.0,-9157.0,4017.0,-3042.0,-73.0,27.0,218.0,1.0
2022-05-13 12:34:32.876106-07:00,1238.2,841.1,1267.6,1067.7,1208.9,789.4,1723.4,1379.4,3478.3,3467.4,1134.0,919.4,1705.3,3471.0,1410.3,1383.9,3474.6,3474.6,397.3,641.6,926.2,1157.7,587.5,2443.0,3483.2,3473.4,681.5,863.7,2239.4,1211.5,1149.8,1145.4,32.0,45.0,-45.0,13722.0,-4497.0,6008.0,-4881.0,-64.0,37.0,23.0,0.0,42.0,-12.0,12613.0,-9166.0,4054.0,-2986.0,-38.0,-31.0,86.0,1.0
2022-05-13 12:34:32.922235-07:00,1238.2,841.1,1264.9,1071.2,1208.9,789.4,1721.5,1365.7,3478.3,3467.4,1135.7,925.4,1705.3,3471.0,1406.7,1383.0,3464.9,3477.1,397.3,641.6,922.8,1155.0,587.5,2443.0,3467.4,3471.0,681.5,863.7,2241.4,1206.2,1149.8,1145.4,12.0,45.0,-23.0,13716.0,-4509.0,6020.0,-4874.0,-56.0,-48.0,-31.0,1.0,19.0,2.0,12611.0,-9175.0,4054.0,-2963.0,-57.0,-34.0,8.0,1.0
2022-05-13 12:34:33.147390-07:00,1226.6,851.1,1264.9,1071.2,1181.5,796.0,1721.5,1365.7,3456.4,3475.9,1135.7,925.4,1709.1,3469.8,1406.7,1383.0,3464.9,3477.1,398.1,637.6,922.8,1155.0,587.5,2443.0,3467.4,3471.0,684.0,860.4,2241.4,1206.2,1150.6,1142.7,17.0,10.0,9.0,13706.0,-4560.0,6004.0,-4873.0,-120.0,-34.0,-68.0,1.0,3.0,13.0,12583.0,-9216.0,4057.0,-2949.0,-151.0,-1.0,-16.0,1.0
2022-05-13 12:34:33.236400-07:00,1226.6,851.1,1263.1,1073.8,1181.5,796.0,1728.2,1371.2,3456.4,3475.9,1126.1,922.0,1709.1,3469.8,1410.3,1379.4,3474.6,3475.9,398.1,637.6,921.1,1152.4,587.5,2443.0,3473.4,3475.9,684.0,860.4,2234.2,1202.7,1150.6,1142.7,2.0,9.0,13.0,13698.0,-4580.0,6003.0,-4877.0,59.0,8.0,0.0,-10.0,-5.0,14.0,12574.0,-9227.0,4060.0,-2949.0,45.0,15.0,-7.0,1.0
2022-05-13 12:34:33.463757-07:00,1236.4,852.0,1263.1,1073.8,1184.1,787.7,1728.2,1371.2,3471.0,3471.0,1126.1,922.0,1708.1,3469.8,1410.3,1379.4,3474.6,3475.9,395.0,641.6,921.1,1152.4,585.1,2431.4,3473.4,3475.9,678.2,857.9,2234.2,1202.7,1146.3,1138.4,1.0,12.0,5.0,13703.0,-4562.0,5997.0,-4888.0,29.0,13.0,-19.0,-11.0,-4.0,7.0,12581.0,-9213.0,4061.0,-2963.0,18.0,22.0,-20.0,1.0
2022-05-13 12:34:33.730748-07:00,1236.4,852.0,1254.2,1067.7,1184.1,782.7,1729.1,1379.4,3471.0,3471.0,1129.6,927.9,1708.1,3471.0,1412.2,1383.0,3483.2,3473.4,397.3,641.6,927.1,1145.4,585.1,2431.4,3474.6,3477.1,687.2,857.9,2233.2,1203.5,1146.3,1138.4,8.0,14.0,-1.0,13700.0,-4560.0,5988.0,-4907.0,-35.0,-11.0,-76.0,-11.0,-2.0,-10.0,12578.0,-9214.0,4061.0,-2974.0,-34.0,5.0,-20.0,1.0
2022-05-13 12:34:33.733562-07:00,1231.0,844.4,1260.4,1067.7,1176.2,782.7,1729.1,1379.4,3473.4,3477.1,1126.1,927.9,1698.6,3471.0,1412.2,1383.0,3483.2,3473.4,397.3,636.7,927.1,1148.9,589.1,2440.9,3474.6,3477.1,687.2,860.4,2233.2,1206.2,1152.4,1134.9,-1.0,-18.0,5.0,13679.0,-4609.0,5987.0,-4924.0,-108.0,14.0,-84.0,-13.0,-15.0,3.0,12547.0,-9258.0,4070.0,-2959.0,-149.0,-15.0,2.0,1.0
2022-05-13 12:34:33.853914-07:00,1231.0,844.4,1260.4,1075.6,1176.2,788.6,1722.4,1375.7,3473.4,3477.1,1126.1,929.6,1698.6,3468.6,1404.9,1386.6,3466.1,3472.2,397.3,636.7,924.5,1148.9,589.1,2440.9,3481.9,3480.7,682.3,860.4,2242.5,1206.2,1152.4,1134.9,-8.0,0.0,5.0,13667.0,-4619.0,5994.0,-4939.0,93.0,28.0,19.0,-16.0,-2.0,16.0,12544.0,-9266.0,4066.0,-2948.0,67.0,-17.0,7.0,1.0
2022-05-13 12:34:34.048369-07:00,1235.5,849.5,1263.1,1075.6,1176.2,788.6,1722.4,1375.7,3471.0,3478.3,1126.1,929.6,1702.4,3468.6,1404.9,1386.6,3466.1,3472.2,397.3,633.5,924.5,1154.2,585.9,2430.3,3481.9,3480.7,682.3,853.7,2242.5,1207.1,1147.1,1139.2,0.0,21.0,1.0,13675.0,-4593.0,5990.0,-4944.0,-12.0,-17.0,3.0,-9.0,7.0,5.0,12558.0,-9248.0,4062.0,-2951.0,9.0,3.0,-1.0,1.0
2022-05-13 12:34:34.050333-07:00,1234.6,837.7,1259.6,1072.9,1165.6,793.5,1713.8,1365.7,3478.3,3467.4,1128.7,917.7,1706.2,3461.3,1404.9,1374.8,3472.2,3483.2,398.9,632.7,923.7,1145.4,581.8,2438.8,3472.2,3471.0,685.6,853.7,2224.0,1207.1,1144.5,1130.5,2.0,-3.0,4.0,13675.0,-4598.0,5976.0,-4957.0,16.0,-6.0,-4.0,-9.0,-4.0,2.0,12551.0,-9255.0,4049.0,-2975.0,-8.0,-7.0,-19.0,1.0
2022-05-13 12:34:34.051120-07:00,1234.6,837.7,1259.6,1072.9,1165.6,793.5,1713.8,1365.7,3478.3,3467.4,1128.7,917.7,1706.2,3461.3,1404.9,1374.8,3472.2,3483.2,398.9,632.7,923.7,1145.4,581.8,2438.8,3472.2,3471.0,685.6,853.7,2224.0,1207.1,1144.5,1130.5,2.0,-3.0,4.0,13675.0,-4598.0,5976.0,-4957.0,16.0,-6.0,-4.0,-9.0,-4.0,2.0,12551.0,-9255.0,4049.0,-2975.0,-8.0,-7.0,-19.0,1.0
2022-05-13 12:34:34.051847-07:00,1234.6,837.7,1259.6,1072.9,1165.6,793.5,1713.8,1365.7,3478.3,3467.4,1128.7,917.7,1706.2,3461.3,1404.9,1374.8,3472.2,3483.2,398.9,632.7,923.7,1145.4,581.8,2438.8,3472.2,3471.0,685.6,853.7,2224.0,1207.1,1144.5,1130.5,2.0,-3.0,4.0,13675.0,-4598.0,5976.0,-4957.0,16.0,-6.0,-4.0,-9.0,-4.0,2.0,12551.0,-9255.0,4049.0,-2975.0,-8.0,-7.0,-19.0,1.0
2022-05-13 12:34:34.092680-07:00,1234.6,837.7,1259.6,1072.9,1165.6,793.5,1713.8,1365.7,3478.3,3467.4,1128.7,917.7,1706.2,3461.3,1404.9,1374.8,3472.2,3483.2,398.9,632.7,923.7,1145.4,581.8,2438.8,3472.2,3471.0,685.6,853.7,2224.0,1207.1,1144.5,1130.5,2.0,-3.0,4.0,13675.0,-4598.0,5976.0,-4957.0,16.0,-6.0,-4.0,-9.0,-4.0,2.0,12551.0,-9255.0,4049.0,-2975.0,-8.0,-7.0,-19.0,1.0
2022-05-13 12:34:34.093493-07:00,1236.4,842.8,1250.6,1062.5,1158.6,789.4,1715.8,1367.6,3472.2,3467.4,1121.7,916.9,1704.3,3467.4,1412.2,1380.3,3471.0,3462.5,398.1,635.1,922.8,1149.8,584.3,2461.0,3481.9,3480.7,672.5,852.0,2209.6,1194.7,1134.0,1132.2,12.0,8.0,8.0,13710.0,-4551.0,5907.0,-4987.0,26.0,1.0,18.0,0.0,1.0,2.0,12572.0,-9235.0,3993.0,-3025.0,29.0,-8.0,-6.0,1.0
2022-05-13 12:34:34.272551-07:00,1238.2,836.1,1259.6,1065.1,1157.7,785.2,1714.8,1366.6,3474.6,3462.5,1128.7,920.3,1703.3,3469.8,1420.4,1376.6,3477.1,3483.2,399.6,627.8,920.3,1142.7,583.5,2431.4,3478.3,3464.9,679.9,845.3,2217.8,1197.4,1135.7,1128.7,-1.0,6.0,5.0,13714.0,-4551.0,5899.0,-4985.0,-4.0,-45.0,0.0,-8.0,-9.0,12.0,12575.0,-9231.0,3992.0,-3026.0,14.0,-11.0,-9.0,1.0
2022-05-13 12:34:34.273765-07:00,1238.2,836.1,1259.6,1065.1,1157.7,785.2,1714.8,1366.6,3474.6,3462.5,1128.7,920.3,1703.3,3469.8,1420.4,1376.6,3477.1,3483.2,399.6,627.8,920.3,1142.7,583.5,2431.4,3478.3,3464.9,679.9,845.3,2217.8,1197.4,1135.7,1128.7,-1.0,6.0,5.0,13714.0,-4551.0,5899.0,-4985.0,-4.0,-45.0,0.0,-8.0,-9.0,12.0,12575.0,-9231.0,3992.0,-3026.0,14.0,-11.0,-9.0,1.0
2022-05-13 12:34:34.275038-07:00,1232.8,843.6,1256.9,1066.0,1149.8,784.4,1714.8,1359.4,3469.8,3471.0,1127.9,922.0,1706.2,3462.5,1412.2,1366.6,3480.7,3475.9,394.2,635.9,923.7,1152.4,589.1,2421.9,3481.9,3488.0,672.5,847.8,2206.5,1192.0,1131.4,1120.0,20.0,28.0,-34.0,13749.0,-4501.0,5820.0,-5026.0,50.0,-26.0,-56.0,0.0,32.0,-13.0,12608.0,-9189.0,3950.0,-3071.0,19.0,-13.0,-67.0,1.0
2022-05-13 12:34:34.276249-07:00,1232.8,843.6,1250.6,1069.5,1149.8,785.2,1721.5,1364.8,3469.8,3471.0,1127.9,925.4,1706.2,3478.3,1409.4,1378.5,3472.2,3474.6,394.2,635.9,924.5,1146.3,589.1,2421.9,3478.3,3477.1,675.0,847.8,2203.4,1193.8,1131.4,1120.0,25.0,84.0,-74.0,13762.0,-4497.0,5756.0,-5068.0,140.0,-174.0,-160.0,-3.0,77.0,-13.0,12609.0,-9192.0,3916.0,-3103.0,72.0,-32.0,-178.0,1.0
2022-05-13 12:34:34.361942-07:00,1228.4,844.4,1248.8,1069.5,1151.5,785.2,1721.5,1364.8,3471.0,3481.9,1130.5,925.4,1707.2,3478.3,1409.4,1378.5,3472.2,3474.6,394.2,631.9,924.5,1148.0,584.3,2438.8,3478.3,3477.1,675.0,843.6,2203.4,1195.6,1138.4,1123.5,35.0,141.0,-104.0,13777.0,-4521.0,5616.0,-5162.0,115.0,-270.0,-354.0,-17.0,128.0,-20.0,12599.0,-9209.0,3835.0,-3191.0,-31.0,-31.0,-438.0,1.0
2022-05-13 12:34:34.408615-07:00,1228.4,847.8,1247.1,1057.3,1147.1,784.4,1711.0,1353.1,3471.0,3463.7,1124.4,922.0,1701.4,3469.8,1405.8,1373.9,3473.4,3474.6,391.8,635.1,921.1,1148.0,580.2,2427.1,3464.9,3475.9,678.2,847.8,2195.2,1189.4,1130.5,1118.2,29.0,-41.0,54.0,13774.0,-4655.0,5283.0,-5398.0,34.0,-322.0,-414.0,22.0,-43.0,0.0,12483.0,-9357.0,3554.0,-3524.0,-102.0,-52.0,-494.0,1.0
2022-05-13 12:34:34.543326-07:00,1228.4,847.8,1247.1,1059.1,1147.1,779.4,1712.9,1360.3,3471.0,3463.7,1124.4,924.5,1701.4,3464.9,1405.8,1370.3,3478.3,3472.2,391.8,635.1,919.4,1148.0,580.2,2427.1,3477.1,3483.2,673.3,847.8,2198.3,1189.4,1130.5,1118.2,-20.0,-95.0,89.0,13735.0,-4797.0,5160.0,-5491.0,-246.0,-187.0,-348.0,-7.0,-96.0,20.0,12388.0,-9479.0,3460.0,-3626.0,-291.0,-36.0,-295.0,1.0
2022-05-13 12:34:34.544612-07:00,1232.8,842.8,1254.2,1059.1,1145.4,779.4,1712.9,1360.3,3473.4,3475.9,1133.1,924.5,1705.3,3464.9,1405.8,1370.3,3478.3,3472.2,391.8,634.3,919.4,1155.0,581.0,2431.4,3477.1,3483.2,673.3,847.0,2198.3,1194.7,1128.7,1127.0,-38.0,-56.0,51.0,13696.0,-4912.0,5091.0,-5550.0,-24.0,-131.0,-162.0,-16.0,-61.0,30.0,12320.0,-9567.0,3407.0,-3677.0,-95.0,-41.0,-190.0,1.0
2022-05-13 12:34:34.631423-07:00,1232.8,842.8,1254.2,1064.3,1156.8,783.6,1711.0,1365.7,3473.4,3475.9,1133.1,921.1,1698.6,3473.4,1404.0,1374.8,3478.3,3473.4,398.1,635.9,918.6,1155.0,581.0,2431.4,3471.0,3473.4,671.7,852.0,2198.3,1194.7,1128.7,1127.0,-24.0,-13.0,32.0,13698.0,-4934.0,5026.0,-5585.0,118.0,-94.0,-98.0,-25.0,-29.0,16.0,12310.0,-9584.0,3356.0,-3714.0,49.0,-40.0,-135.0,1.0
2022-05-13 12:34:34.634983-07:00,1228.4,843.6,1246.2,1062.5,1156.8,783.6,1711.0,1365.7,3471.0,3473.4,1113.0,926.2,1698.6,3473.4,1404.0,1374.8,3478.3,3473.4,398.1,635.9,917.7,1148.9,581.8,2431.4,3471.0,3473.4,671.7,852.0,2205.5,1192.0,1141.0,1120.9,-10.0,-16.0,20.0,13706.0,-4920.0,4970.0,-5627.0,68.0,-30.0,-99.0,-12.0,-13.0,3.0,12306.0,-9589.0,3315.0,-3750.0,-8.0,-24.0,-117.0,1.0
2022-05-13 12:34:34.636132-07:00,1228.4,843.6,1246.2,1062.5,1177.9,784.4,1712.9,1368.5,3471.0,3473.4,1113.0,926.2,1707.2,3467.4,1411.3,1373.0,3472.2,3475.9,395.0,633.5,917.7,1148.9,581.8,2431.4,3478.3,3484.4,681.5,847.0,2205.5,1192.0,1141.0,1120.9,-5.0,-14.0,28.0,13706.0,-4908.0,4954.0,-5653.0,-15.0,56.0,9.0,-9.0,-16.0,-8.0,12299.0,-9598.0,3288.0,-3774.0,24.0,-16.0,-75.0,1.0
2022-05-13 12:34:34.637236-07:00,1223.0,836.1,1247.1,1061.7,1177.9,784.4,1712.9,1368.5,3473.4,3467.4,1123.5,916.9,1707.2,3467.4,1411.3,1373.0,3472.2,3475.9,395.0,633.5,918.6,1147.1,579.4,2426.1,3478.3,3484.4,681.5,847.0,2198.3,1188.5,1121.7,1112.1,-1.0,-4.0,2.0,13696.0,-4904.0,4975.0,-5662.0,17.0,33.0,-22.0,-5.0,-3.0,-6.0,12290.0,-9609.0,3278.0,-3784.0,0.0,-13.0,-36.0,1.0
2022-05-13 12:34:34.676526-07:00,1223.0,836.1,1247.1,1061.7,1183.2,786.1,1740.6,1361.2,3473.4,3467.4,1123.5,916.9,1694.8,3457.6,1409.4,1383.0,3462.5,3480.7,395.7,628.6,918.6,1147.1,579.4,2426.1,3472.2,3477.1,670.9,849.5,2198.3,1188.5,1121.7,1112.1,4.0,3.0,0.0,13688.0,-4901.0,4979.0,-5680.0,21.0,9.0,-57.0,-2.0,-2.0,1.0,12279.0,-9623.0,3271.0,-3791.0,-29.0,-10.0,-37.0,1.0
2022-05-13 12:34:34.766344-07:00,1233.7,843.6,1243.5,1063.4,1183.2,786.1,1740.6,1358.5,3471.0,3478.3,1125.2,919.4,1694.8,3457.6,1409.4,1373.9,3473.4,3480.7,395.7,628.6,918.6,1150.6,581.8,2412.4,3478.3,3477.1,670.9,849.5,2202.4,1189.4,1129.6,1113.9,11.0,-17.0,36.0,13679.0,-4904.0,4975.0,-5701.0,-5.0,65.0,-34.0,4.0,-12.0,6.0,12266.0,-9641.0,3260.0,-3796.0,-66.0,-22.0,-32.0,1.0
2022-05-13 12:34:34.768669-07:00,1235.5,843.6,1243.5,1063.4,1189.4,788.6,1720.5,1358.5,3471.0,3478.3,1125.2,919.4,1703.3,3472.2,1411.3,1373.9,3473.4,3467.4,395.7,635.1,918.6,1150.6,581.8,2425.0,3478.3,3478.3,675.8,845.3,2202.4,1189.4,1129.6,1119.1,-1.0,-15.0,7.0,13669.0,-4883.0,5001.0,-5721.0,107.0,51.0,21.0,3.0,-3.0,19.0,12259.0,-9651.0,3257.0,-3795.0,37.0,-8.0,-3.0,1.0
2022-05-13 12:34:34.903208-07:00,1235.5,836.9,1249.7,1057.3,1189.4,788.6,1720.5,1370.3,3471.0,3462.5,1122.6,917.7,1703.3,3472.2,1411.3,1381.2,3478.3,3467.4,395.7,635.1,916.9,1146.3,582.6,2425.0,3474.6,3478.3,675.8,845.3,2205.5,1189.4,1125.2,1119.1,6.0,8.0,-16.0,13694.0,-4831.0,4999.0,-5709.0,129.0,-47.0,106.0,3.0,-10.0,-1.0,12283.0,-9621.0,3248.0,-3803.0,132.0,-8.0,5.0,1.0
2022-05-13 12:34:34.905467-07:00,1236.4,836.9,1249.7,1057.3,1285.5,791.9,1712.9,1370.3,3467.4,3462.5,1122.6,917.7,1701.4,3473.4,1408.5,1381.2,3478.3,3474.6,408.2,630.3,916.9,1146.3,582.6,2425.0,3474.6,3479.5,670.1,831.9,2205.5,1189.4,1125.2,1103.4,11.0,22.0,0.0,13724.0,-4788.0,4973.0,-5694.0,47.0,-51.0,-14.0,4.0,-3.0,-4.0,12309.0,-9590.0,3232.0,-3809.0,45.0,-12.0,-12.0,1.0
2022-05-13 12:34:34.991375-07:00,1236.4,827.7,1254.2,1059.9,1285.5,791.9,1712.9,1363.9,3467.4,3475.9,1124.4,918.6,1701.4,3473.4,1408.5,1377.5,3477.1,3474.6,408.2,630.3,923.7,1154.2,582.6,2425.0,3477.1,3479.5,670.1,831.9,2179.9,1184.1,1129.6,1103.4,0.0,-5.0,0.0,13728.0,-4800.0,4946.0,-5700.0,-6.0,-80.0,-25.0,-7.0,-8.0,0.0,12299.0,-9604.0,3232.0,-3807.0,-38.0,-7.0,-11.0,1.0
2022-05-13 12:34:35.037966-07:00,1230.2,827.7,1254.2,1059.9,1273.9,784.4,1723.4,1363.9,3467.4,3475.9,1124.4,918.6,1700.5,3469.8,1403.0,1377.5,3477.1,3474.6,395.7,627.8,923.7,1154.2,582.6,2430.3,3477.1,3467.4,680.7,845.3,2179.9,1184.1,1129.6,1106.9,-4.0,5.0,-3.0,13732.0,-4817.0,4917.0,-5698.0,-47.0,-80.0,-28.0,-8.0,-6.0,4.0,12295.0,-9612.0,3231.0,-3801.0,-43.0,-16.0,-2.0,1.0
2022-05-13 12:34:35.039268-07:00,1230.2,839.4,1249.7,1060.8,1273.9,784.4,1715.8,1360.3,3467.4,3469.8,1123.5,921.1,1700.5,3469.8,1407.6,1369.4,3480.7,3480.7,395.7,627.8,922.0,1154.2,582.6,2430.3,3477.1,3483.2,680.7,845.3,2175.8,1181.5,1122.6,1106.9,-9.0,0.0,7.0,13730.0,-4858.0,4890.0,-5693.0,-59.0,-66.0,-52.0,-11.0,-7.0,1.0,12283.0,-9632.0,3230.0,-3790.0,-52.0,-23.0,-3.0,1.0
2022-05-13 12:34:35.081892-07:00,1230.2,836.1,1249.7,1060.8,1259.6,790.2,1715.8,1360.3,3475.9,3474.6,1123.5,921.1,1701.4,3471.0,1407.6,1369.4,3480.7,3480.7,398.1,627.0,922.0,1154.2,583.5,2418.7,3477.1,3483.2,681.5,848.6,2175.8,1181.5,1113.0,1099.9,-5.0,-1.0,4.0,13721.0,-4894.0,4875.0,-5696.0,-39.0,-39.0,-47.0,-10.0,-10.0,0.0,12269.0,-9651.0,3234.0,-3781.0,-39.0,-4.0,-2.0,1.0
2022-05-13 12:34:35.171410-07:00,1230.2,836.1,1255.1,1055.6,1259.6,790.2,1711.9,1349.4,3475.9,3474.6,1115.6,923.7,1701.4,3471.0,1411.3,1374.8,3466.1,3488.0,398.1,627.0,916.9,1141.0,583.5,2418.7,3464.9,3480.7,681.5,848.6,2185.0,1168.2,1113.0,1099.9,-13.0,6.0,10.0,13714.0,-4917.0,4859.0,-5707.0,-69.0,-57.0,-59.0,-7.0,-5.0,13.0,12256.0,-9668.0,3240.0,-3777.0,-81.0,9.0,-5.0,1.0
2022-05-13 12:34:35.173794-07:00,1236.4,830.2,1255.1,1055.6,1237.3,788.6,1711.9,1349.4,3471.0,3474.6,1115.6,923.7,1702.4,3464.9,1411.3,1374.8,3466.1,3488.0,393.4,631.1,916.9,1141.0,585.1,2426.1,3464.9,3480.7,681.5,852.0,2185.0,1168.2,1107.8,1111.2,-7.0,-5.0,1.0,13709.0,-4956.0,4835.0,-5706.0,-21.0,-131.0,-51.0,-3.0,-19.0,9.0,12244.0,-9683.0,3246.0,-3773.0,-25.0,5.0,4.0,1.0
2022-05-13 12:34:35.216038-07:00,1236.4,830.2,1236.4,1048.7,1237.3,788.6,1711.9,1348.5,3471.0,3474.6,1107.8,921.1,1702.4,3464.9,1405.8,1372.1,3474.6,3467.4,393.4,631.1,926.2,1155.0,585.1,2426.1,3479.5,3474.6,681.5,852.0,2175.8,1169.1,1107.8,1111.2,7.0,3.0,13.0,13711.0,-4992.0,4787.0,-5710.0,-10.0,-86.0,-59.0,1.0,-4.0,5.0,12236.0,-9692.0,3250.0,-3769.0,-30.0,1.0,10.0,1.0
2022-05-13 12:34:35.352436-07:00,1231.0,831.9,1242.6,1048.7,1227.5,787.7,1711.9,1348.5,3464.9,3472.2,1115.6,921.1,1699.5,3466.1,1405.8,1372.1,3474.6,3467.4,398.9,631.1,926.2,1147.1,581.8,2428.2,3479.5,3474.6,679.1,841.1,2175.8,1165.6,1108.6,1092.9,11.0,7.0,20.0,13716.0,-5010.0,4750.0,-5714.0,2.0,-44.0,-9.0,7.0,10.0,-1.0,12234.0,-9695.0,3253.0,-3765.0,0.0,1.0,11.0,1.0
2022-05-13 12:34:35.443842-07:00,1231.0,831.9,1242.6,1051.3,1227.5,786.9,1706.2,1356.7,3464.9,3472.2,1115.6,911.8,1699.5,3488.0,1415.8,1377.5,3474.6,3481.9,399.6,631.1,918.6,1147.1,581.8,2428.2,3473.4,3480.7,675.0,841.1,2171.8,1165.6,1108.6,1092.9,3.0,15.0,0.0,13718.0,-5020.0,4737.0,-5711.0,-34.0,-67.0,-24.0,6.0,-4.0,11.0,12225.0,-9706.0,3257.0,-3764.0,-40.0,17.0,-7.0,1.0
2022-05-13 12:34:35.445132-07:00,1235.5,832.7,1241.7,1051.3,1223.0,786.9,1706.2,1356.7,3468.6,3471.0,1114.7,911.8,1700.5,3488.0,1415.8,1377.5,3474.6,3481.9,399.6,629.5,918.6,1147.1,581.0,2429.3,3473.4,3480.7,675.0,842.8,2171.8,1168.2,1110.4,1088.6,6.0,14.0,9.0,13715.0,-5052.0,4715.0,-5708.0,-106.0,-26.0,-52.0,0.0,-3.0,6.0,12203.0,-9728.0,3273.0,-3765.0,-127.0,44.0,-5.0,1.0
2022-05-13 12:34:35.446299-07:00,1235.5,832.7,1241.7,1056.5,1223.0,788.6,1713.8,1358.5,3468.6,3471.0,1114.7,917.7,1700.5,3479.5,1404.9,1376.6,3480.7,3473.4,391.8,629.5,920.3,1147.1,581.0,2429.3,3479.5,3469.8,678.2,842.8,2175.8,1168.2,1110.4,1088.6,19.0,12.0,34.0,13695.0,-5128.0,4712.0,-5692.0,-355.0,-81.0,-50.0,24.0,-12.0,8.0,12143.0,-9787.0,3319.0,-3767.0,-324.0,97.0,39.0,1.0
2022-05-13 12:34:35.487022-07:00,1227.5,834.4,1255.1,1056.5,1212.4,788.6,1713.8,1358.5,3475.9,3460.1,1109.5,917.7,1694.8,3479.5,1404.9,1376.6,3480.7,3473.4,391.8,627.8,920.3,1152.4,585.1,2432.4,3479.5,3469.8,678.2,841.9,2175.8,1163.8,1101.7,1092.9,33.0,23.0,69.0,13645.0,-5308.0,4716.0,-5641.0,-713.0,-145.0,-9.0,51.0,-15.0,52.0,12020.0,-9905.0,3423.0,-3757.0,-561.0,221.0,122.0,1.0
2022-05-13 12:34:35.576658-07:00,1227.5,834.4,1255.1,1054.8,1218.6,791.0,1707.2,1360.3,3475.9,3460.1,1109.5,916.9,1699.5,3477.1,1404.9,1375.7,3473.4,3477.1,394.2,627.0,923.7,1152.4,585.1,2432.4,3477.1,3478.3,675.8,853.7,2172.8,1163.8,1101.7,1092.9,90.0,66.0,110.0,13515.0,-5648.0,4843.0,-5517.0,-1267.0,271.0,-22.0,81.0,29.0,16.0,11860.0,-10055.0,3592.0,-3713.0,-999.0,336.0,239.0,1.0
2022-05-13 12:34:35.621395-07:00,1227.5,832.7,1223.9,1038.3,1218.6,791.0,1707.2,1360.3,3472.2,3473.4,1106.9,918.6,1699.5,3477.1,1404.9,1375.7,3473.4,3477.1,394.2,627.0,922.0,1153.3,590.7,2445.1,3477.1,3478.3,675.8,853.7,2176.9,1170.9,1112.1,1087.7,98.0,99.0,70.0,13182.0,-6167.0,5243.0,-5397.0,-2138.0,892.0,-91.0,66.0,69.0,-2.0,11495.0,-10398.0,3900.0,-3602.0,-1648.0,396.0,271.0,1.0
2022-05-13 12:34:35.712754-07:00,1227.5,832.7,1223.9,1038.3,1196.5,786.9,1712.9,1358.5,3472.2,3473.4,1106.9,918.6,1703.3,3477.1,1421.3,1382.1,3477.1,3472.2,394.2,627.0,922.0,1153.3,590.7,2445.1,3483.2,3477.1,669.3,855.3,2176.9,1170.9,1112.1,1087.7,39.0,81.0,-15.0,12628.0,-6789.0,5900.0,-5298.0,-2199.0,1162.0,-170.0,11.0,55.0,-14.0,11001.0,-10837.0,4245.0,-3457.0,-1707.0,399.0,212.0,1.0
2022-05-13 12:34:35.715085-07:00,1230.2,831.1,1207.1,1034.0,1196.5,786.9,1712.9,1358.5,3478.3,3457.6,1104.3,916.9,1703.3,3477.1,1421.3,1382.1,3477.1,3472.2,394.2,627.0,923.7,1146.3,588.3,2485.5,3483.2,3477.1,669.3,855.3,2157.5,1155.9,1092.9,1086.8,6.0,67.0,-64.0,12016.0,-7352.0,6537.0,-5221.0,-2002.0,1082.0,-196.0,-25.0,68.0,-15.0,10507.0,-11234.0,4547.0,-3342.0,-1467.0,377.0,83.0,1.0
2022-05-13 12:34:35.716292-07:00,1230.2,831.1,1207.1,1034.0,1185.9,786.1,1721.5,1351.2,3478.3,3457.6,1104.3,916.9,1705.3,3462.5,1409.4,1381.2,3473.4,3474.6,396.5,629.5,923.7,1146.3,588.3,2485.5,3466.1,3478.3,675.0,847.8,2157.5,1155.9,1092.9,1086.8,-18.0,47.0,-47.0,11424.0,-7831.0,7080.0,-5145.0,-1671.0,957.0,-195.0,-57.0,39.0,-22.0,10048.0,-11573.0,4783.0,-3266.0,-1235.0,347.0,-2.0,1.0
2022-05-13 12:34:35.803269-07:00,1239.1,832.7,1180.6,1032.3,1185.9,786.1,1721.5,1351.2,3466.1,3464.9,1102.5,922.0,1705.3,3462.5,1409.4,1381.2,3473.4,3474.6,396.5,629.5,918.6,1147.1,585.1,2498.3,3466.1,3478.3,675.0,847.8,2158.5,1149.8,1079.9,1089.5,-46.0,29.0,-47.0,10898.0,-8193.0,7524.0,-5094.0,-1398.0,879.0,-74.0,-68.0,23.0,-13.0,9640.0,-11848.0,4959.0,-3247.0,-997.0,416.0,-114.0,1.0
2022-05-13 12:34:35.848320-07:00,1231.0,832.7,1180.6,1032.3,1177.0,791.9,1714.8,1342.2,3475.9,3464.9,1102.5,922.0,1707.2,3467.4,1417.6,1373.9,3471.0,3468.6,395.0,627.8,918.6,1147.1,585.1,2484.4,3478.3,3479.5,667.6,849.5,2158.5,1149.8,1079.9,1088.6,-29.0,37.0,-28.0,10488.0,-8420.0,7870.0,-5060.0,-677.0,544.0,-167.0,-41.0,0.0,5.0,9324.0,-12024.0,5093.0,-3314.0,-551.0,450.0,-159.0,1.0
2022-05-13 12:34:35.891854-07:00,1231.0,823.5,1178.8,1027.1,1177.0,791.9,1714.8,1349.4,3475.9,3473.4,1099.9,913.5,1707.2,3467.4,1417.6,1383.0,3475.9,3468.6,395.0,627.8,918.6,1146.3,584.3,2484.4,3477.1,3479.5,667.6,849.5,2164.6,1156.8,1079.0,1088.6,-4.0,1.0,-7.0,10234.0,-8567.0,8018.0,-5101.0,-497.0,369.0,-256.0,-25.0,17.0,-27.0,9076.0,-12145.0,5183.0,-3419.0,-561.0,354.0,-236.0,1.0
2022-05-13 12:34:36.026417-07:00,1222.2,823.5,1178.8,1027.1,1177.9,794.4,1721.5,1349.4,3471.0,3473.4,1099.9,913.5,1704.3,3473.4,1405.8,1383.0,3475.9,3471.0,401.2,631.1,918.6,1146.3,584.3,2473.8,3477.1,3478.3,670.1,847.0,2164.6,1156.8,1079.0,1079.0,-12.0,24.0,-4.0,10012.0,-8693.0,8136.0,-5143.0,-499.0,428.0,-249.0,24.0,-26.0,15.0,8833.0,-12277.0,5225.0,-3522.0,-410.0,373.0,-346.0,1.0
2022-05-13 12:34:36.118152-07:00,1222.2,829.4,1183.2,1019.4,1177.9,794.4,1721.5,1344.9,3471.0,3469.8,1105.1,922.8,1704.3,3473.4,1405.8,1380.3,3472.2,3471.0,401.2,631.1,918.6,1154.2,583.5,2473.8,3472.2,3478.3,670.1,847.0,2143.3,1147.1,1073.8,1079.0,-94.0,-75.0,-60.0,9755.0,-8841.0,8215.0,-5256.0,-274.0,382.0,-702.0,-92.0,-148.0,-60.0,8587.0,-12430.0,5208.0,-3614.0,-441.0,129.0,-442.0,1.0
2022-05-13 12:34:36.120356-07:00,1225.7,829.4,1183.2,1019.4,1162.1,791.9,1720.5,1344.9,3471.0,3469.8,1105.1,922.8,1695.7,3467.4,1421.3,1380.3,3472.2,3477.1,397.3,622.2,918.6,1154.2,583.5,2470.6,3472.2,3474.6,664.4,844.4,2143.3,1147.1,1073.8,1080.8,-63.0,-155.0,-18.0,9567.0,-9027.0,8110.0,-5445.0,-158.0,-68.0,-508.0,-18.0,-35.0,-43.0,8427.0,-12547.0,5147.0,-3673.0,-320.0,48.0,-240.0,1.0
2022-05-13 12:34:36.121548-07:00,1225.7,831.9,1174.4,1020.2,1162.1,791.9,1714.8,1353.1,3471.0,3478.3,1106.9,914.4,1695.7,3467.4,1419.5,1381.2,3464.9,3483.2,397.3,622.2,923.7,1150.6,582.6,2470.6,3483.2,3477.1,664.4,844.4,2154.4,1138.4,1075.6,1080.8,-2.0,-155.0,33.0,9532.0,-9107.0,8044.0,-5471.0,216.0,-90.0,28.0,24.0,-76.0,-49.0,8407.0,-12559.0,5132.0,-3699.0,255.0,21.0,22.0,1.0
2022-05-13 12:34:36.122673-07:00,1220.4,826.0,1174.4,1020.2,1157.7,794.4,1714.8,1353.1,3473.4,3464.9,1106.9,914.4,1703.3,3468.6,1419.5,1381.2,3464.9,3483.2,397.3,624.6,923.7,1150.6,588.3,2477.0,3483.2,3477.1,666.0,842.8,2154.4,1138.4,1070.3,1087.7,16.0,21.0,-20.0,9654.0,-9013.0,7998.0,-5480.0,268.0,-196.0,207.0,13.0,35.0,-28.0,8548.0,-12466.0,5116.0,-3713.0,308.0,-97.0,116.0,1.0
2022-05-13 12:34:36.206478-07:00,1220.4,826.0,1181.5,1030.6,1157.7,794.4,1707.2,1341.3,3473.4,3464.9,1108.6,916.0,1703.3,3468.6,1413.1,1371.2,3473.4,3471.0,397.3,624.6,922.8,1149.8,588.3,2477.0,3472.2,3484.4,666.0,842.8,2160.5,1130.5,1070.3,1087.7,27.0,59.0,19.0,9748.0,-8992.0,7966.0,-5395.0,-26.0,-263.0,103.0,5.0,37.0,-6.0,8608.0,-12448.0,5096.0,-3665.0,46.0,-144.0,15.0,1.0
2022-05-13 12:34:36.207827-07:00,1216.0,831.9,1181.5,1030.6,1155.9,795.2,1707.2,1341.3,3464.9,3479.5,1108.6,916.0,1694.8,3469.8,1413.1,1371.2,3473.4,3471.0,395.0,624.6,922.8,1149.8,575.4,2461.0,3472.2,3484.4,664.4,844.4,2160.5,1130.5,1068.6,1085.1,-25.0,21.0,38.0,9829.0,-8997.0,7895.0,-5342.0,245.0,-289.0,-51.0,-18.0,0.0,9.0,8673.0,-12426.0,5040.0,-3661.0,238.0,-80.0,-66.0,1.0
2022-05-13 12:34:36.297580-07:00,1216.0,831.9,1196.5,1021.9,1155.9,795.2,1724.4,1346.7,3464.9,3479.5,1101.7,917.7,1694.8,3469.8,1420.4,1373.9,3467.4,3474.6,395.0,624.6,926.2,1151.5,575.4,2461.0,3473.4,3471.0,664.4,844.4,2153.4,1132.2,1068.6,1085.1,0.0,-11.0,63.0,9934.0,-8992.0,7774.0,-5333.0,114.0,-207.0,-18.0,-13.0,4.0,-21.0,8749.0,-12388.0,4986.0,-3683.0,164.0,-56.0,-45.0,1.0
2022-05-13 12:34:36.341235-07:00,1220.4,838.6,1196.5,1021.9,1151.5,793.5,1724.4,1346.7,3468.6,3479.5,1101.7,917.7,1706.2,3474.6,1420.4,1373.9,3467.4,3474.6,400.4,615.7,926.2,1151.5,583.5,2446.2,3473.4,3471.0,665.2,839.4,2153.4,1132.2,1064.3,1081.6,-14.0,0.0,67.0,9984.0,-8977.0,7734.0,-5325.0,42.0,-16.0,34.0,0.0,-10.0,20.0,8775.0,-12383.0,4958.0,-3676.0,38.0,-42.0,-11.0,1.0
2022-05-13 12:34:36.432955-07:00,1220.4,838.6,1181.5,1017.6,1151.5,789.4,1712.9,1342.2,3468.6,3479.5,1096.4,912.7,1706.2,3474.6,1413.1,1379.4,3475.9,3474.6,397.3,615.7,920.3,1149.8,583.5,2446.2,3478.3,3477.1,657.9,839.4,2146.3,1134.9,1064.3,1081.6,-1.0,14.0,50.0,10039.0,-8936.0,7709.0,-5329.0,52.0,-31.0,2.0,-8.0,3.0,2.0,8799.0,-12369.0,4949.0,-3680.0,63.0,4.0,-2.0,1.0
2022-05-13 12:34:36.436167-07:00,1231.9,822.7,1182.3,1017.6,1146.3,789.4,1712.9,1342.2,3472.2,3471.0,1105.1,912.7,1698.6,3474.6,1413.1,1379.4,3475.9,3474.6,397.3,623.0,920.3,1146.3,581.8,2458.9,3478.3,3477.1,657.9,841.1,2146.3,1126.1,1062.5,1086.8,-3.0,0.0,29.0,10072.0,-8901.0,7689.0,-5352.0,84.0,48.0,-11.0,-3.0,-3.0,-4.0,8816.0,-12353.0,4946.0,-3694.0,61.0,30.0,-7.0,1.0
2022-05-13 12:34:36.476922-07:00,1231.9,822.7,1182.3,1022.8,1146.3,791.0,1716.7,1347.6,3472.2,3471.0,1105.1,910.1,1698.6,3471.0,1411.3,1369.4,3469.8,3478.3,397.3,623.0,928.8,1146.3,581.8,2458.9,3471.0,3469.8,661.9,841.1,2150.4,1126.1,1062.5,1086.8,2.0,-1.0,7.0,10075.0,-8885.0,7684.0,-5378.0,-23.0,14.0,-36.0,-5.0,7.0,-20.0,8816.0,-12348.0,4952.0,-3705.0,-21.0,19.0,3.0,1.0
2022-05-13 12:34:36.568300-07:00,1219.5,826.9,1178.8,1022.8,1150.6,791.0,1716.7,1347.6,3467.4,3471.0,1105.1,910.1,1699.5,3471.0,1411.3,1369.4,3469.8,3478.3,397.3,622.2,928.8,1143.6,581.8,2450.4,3471.0,3469.8,661.9,839.4,2150.4,1132.2,1065.1,1086.8,-4.0,0.0,7.0,10062.0,-8891.0,7690.0,-5384.0,-7.0,23.0,5.0,-9.0,-2.0,-12.0,8804.0,-12356.0,4957.0,-3699.0,-18.0,-6.0,0.0,1.0
2022-05-13 12:34:36.570544-07:00,1219.5,826.9,1178.8,1020.2,1150.6,791.0,1711.0,1329.6,3467.4,3471.0,1105.1,911.8,1699.5,3466.1,1413.1,1375.7,3474.6,3467.4,400.4,622.2,927.9,1143.6,581.8,2450.4,3488.0,3467.4,655.4,839.4,2141.2,1132.2,1065.1,1086.8,0.0,6.0,13.0,10071.0,-8888.0,7683.0,-5383.0,43.0,-67.0,-5.0,-3.0,2.0,-8.0,8814.0,-12351.0,4948.0,-3702.0,59.0,-21.0,-22.0,1.0
2022-05-13 12:34:36.658190-07:00,1235.5,826.9,1177.0,1023.7,1157.7,791.0,1711.0,1329.6,3467.4,3464.9,1102.5,911.0,1696.7,3466.1,1413.1,1375.7,3474.6,3467.4,400.4,617.3,927.1,1152.4,579.4,2451.5,3488.0,3467.4,655.4,841.1,2139.2,1128.7,1070.3,1076.4,-12.0,-4.0,26.0,10093.0,-8886.0,7661.0,-5377.0,6.0,-45.0,7.0,-5.0,-8.0,-3.0,8824.0,-12351.0,4933.0,-3700.0,10.0,-31.0,-16.0,1.0
2022-05-13 12:34:36.702496-07:00,1235.5,826.9,1177.0,1023.7,1141.9,792.7,1711.9,1352.1,3467.4,3464.9,1102.5,911.0,1700.5,3467.4,1408.5,1374.8,3474.6,3479.5,398.1,621.4,927.1,1152.4,579.4,2451.5,3472.2,3474.6,659.5,831.1,2139.2,1128.7,1070.3,1076.4,0.0,4.0,34.0,10120.0,-8877.0,7642.0,-5369.0,76.0,-59.0,16.0,-1.0,-1.0,4.0,8842.0,-12342.0,4922.0,-3703.0,80.0,-9.0,-13.0,1.0
2022-05-13 12:34:36.703750-07:00,1228.4,833.6,1187.6,1022.8,1141.9,792.7,1711.9,1352.1,3469.8,3471.0,1099.9,913.5,1700.5,3467.4,1408.5,1374.8,3474.6,3479.5,398.1,621.4,926.2,1145.4,582.6,2444.1,3472.2,3474.6,659.5,831.1,2138.2,1131.4,1064.3,1076.4,4.0,10.0,30.0,10159.0,-8849.0,7611.0,-5384.0,95.0,-5.0,-40.0,-3.0,0.0,-9.0,8870.0,-12323.0,4909.0,-3717.0,71.0,-6.0,-10.0,1.0
2022-05-13 12:34:36.791316-07:00,1228.4,833.6,1187.6,1022.8,1138.4,788.6,1712.9,1349.4,3469.8,3471.0,1099.9,913.5,1693.8,3471.0,1407.6,1375.7,3466.1,3479.5,395.7,614.9,926.2,1145.4,582.6,2444.1,3474.6,3478.3,656.2,841.1,2138.2,1131.4,1064.3,1076.4,-1.0,-1.0,23.0,10167.0,-8838.0,7593.0,-5415.0,-6.0,22.0,-48.0,3.0,-3.0,4.0,8871.0,-12321.0,4908.0,-3719.0,-15.0,11.0,2.0,1.0
2022-05-13 12:34:36.836359-07:00,1224.8,821.0,1170.9,1017.6,1138.4,788.6,1712.9,1349.4,3457.6,3478.3,1100.8,911.8,1693.8,3471.0,1407.6,1375.7,3466.1,3479.5,395.7,614.9,919.4,1149.8,581.0,2445.1,3474.6,3478.3,656.2,841.1,2139.2,1123.5,1059.9,1079.9,0.0,-9.0,17.0,10165.0,-8839.0,7587.0,-5424.0,0.0,32.0,18.0,-8.0,-1.0,-13.0,8867.0,-12321.0,4914.0,-3722.0,5.0,17.0,13.0,1.0
2022-05-13 12:34:36.881829-07:00,1224.8,821.0,1170.9,1017.6,1139.2,785.2,1706.2,1333.2,3457.6,3478.3,1100.8,911.8,1702.4,3472.2,1403.0,1373.0,3475.9,3472.2,398.9,622.2,919.4,1149.8,581.0,2445.1,3467.4,3472.2,661.1,842.8,2139.2,1123.5,1059.9,1079.9,-1.0,11.0,5.0,10163.0,-8829.0,7598.0,-5428.0,0.0,14.0,-1.0,-2.0,3.0,-5.0,8866.0,-12318.0,4922.0,-3724.0,0.0,14.0,9.0,1.0
2022-05-13 12:34:36.926926-07:00,1220.4,822.7,1174.4,1018.5,1139.2,785.2,1706.2,1338.6,3463.7,3474.6,1113.0,911.8,1702.4,3472.2,1403.0,1373.9,3475.9,3472.2,398.9,622.2,924.5,1148.0,582.6,2433.5,3479.5,3472.2,661.1,842.8,2140.2,1140.1,1054.8,1087.7,-3.0,0.0,6.0,10166.0,-8826.0,7595.0,-5433.0,42.0,-20.0,-13.0,-8.0,1.0,-5.0,8871.0,-12315.0,4921.0,-3725.0,34.0,5.0,-4.0,1.0
2022-05-13 12:34:36.971375-07:00,1225.7,822.7,1174.4,1018.5,1140.1,789.4,1716.7,1338.6,3471.0,3474.6,1113.0,911.8,1698.6,3468.6,1404.0,1373.9,3475.9,3473.4,394.2,618.9,924.5,1148.0,582.6,2437.7,3479.5,3480.7,657.9,836.9,2140.2,1140.1,1054.8,1081.6,-2.0,-2.0,13.0,10181.0,-8817.0,7583.0,-5435.0,31.0,-28.0,28.0,-5.0,1.0,-7.0,8882.0,-12307.0,4916.0,-3731.0,43.0,-7.0,-2.0,1.0
2022-05-13 12:34:37.016377-07:00,1225.7,819.4,1177.0,1019.4,1140.1,789.4,1716.7,1335.9,3471.0,3479.5,1103.4,908.4,1698.6,3468.6,1404.0,1369.4,3462.5,3473.4,394.2,618.9,922.8,1142.7,581.8,2437.7,3469.8,3480.7,657.9,836.9,2140.2,1129.6,1059.1,1081.6,0.0,8.0,15.0,10203.0,-8803.0,7574.0,-5431.0,60.0,-33.0,20.0,-4.0,6.0,-5.0,8900.0,-12294.0,4911.0,-3737.0,67.0,-11.0,-8.0,1.0
2022-05-13 12:34:37.061039-07:00,1226.6,819.4,1177.0,1019.4,1127.9,782.7,1711.0,1335.9,3468.6,3479.5,1103.4,908.4,1703.3,3480.7,1410.3,1369.4,3462.5,3478.3,398.1,622.2,922.8,1142.7,581.8,2440.9,3469.8,3479.5,660.3,838.6,2140.2,1129.6,1059.1,1073.8,0.0,8.0,16.0,10231.0,-8786.0,7551.0,-5435.0,47.0,-38.0,-17.0,-3.0,7.0,-6.0,8923.0,-12278.0,4901.0,-3748.0,52.0,-4.0,-12.0,1.0
2022-05-13 12:34:37.152688-07:00,1226.6,824.4,1178.8,1011.6,1127.9,782.7,1711.0,1335.0,3468.6,3473.4,1106.9,916.9,1703.3,3480.7,1410.3,1374.8,3480.7,3478.3,398.1,622.2,918.6,1146.3,578.6,2440.9,3483.2,3479.5,660.3,838.6,2141.2,1131.4,1058.2,1073.8,0.0,-3.0,21.0,10241.0,-8782.0,7538.0,-5442.0,7.0,14.0,0.0,-3.0,1.0,-4.0,8927.0,-12276.0,4898.0,-3748.0,3.0,-9.0,-6.0,1.0
2022-05-13 12:34:37.154809-07:00,1223.9,821.0,1178.8,1011.6,1138.4,787.7,1711.0,1335.0,3472.2,3478.3,1106.9,916.9,1706.2,3471.0,1405.8,1374.8,3480.7,3474.6,396.5,620.5,918.6,1146.3,581.8,2448.3,3483.2,3472.2,662.7,837.7,2141.2,1131.4,1063.4,1090.3,7.0,2.0,5.0,10240.0,-8783.0,7539.0,-5441.0,-68.0,13.0,-13.0,0.0,6.0,-19.0,8925.0,-12278.0,4898.0,-3747.0,-31.0,-11.0,6.0,1.0
2022-05-13 12:34:37.243277-07:00,1223.9,821.0,1177.0,1022.8,1138.4,787.7,1711.0,1325.9,3472.2,3478.3,1097.3,911.8,1706.2,3471.0,1405.8,1365.7,3477.1,3467.4,396.5,620.5,922.0,1146.3,581.8,2448.3,3477.1,3472.2,662.7,837.7,2137.2,1128.7,1063.4,1090.3,8.0,-212.0,-15.0,10246.0,-8758.0,7558.0,-5442.0,606.0,52.0,385.0,-3.0,-53.0,-50.0,8919.0,-12290.0,4897.0,-3723.0,392.0,-124.0,27.0,1.0
2022-05-13 12:34:37.376480-07:00,1223.9,828.5,1177.0,1022.8,1134.0,786.1,1711.0,1325.9,3466.1,3468.6,1097.3,911.8,1694.8,3469.8,1405.8,1365.7,3477.1,3467.4,399.6,621.4,922.0,1146.3,580.2,2436.7,3477.1,3472.2,660.3,842.8,2137.2,1128.7,1060.8,1073.8,-151.0,-237.0,-66.0,10622.0,-8341.0,7511.0,-5442.0,1858.0,-531.0,900.0,-81.0,-221.0,-46.0,9211.0,-12092.0,4813.0,-3771.0,1667.0,-34.0,227.0,1.0
2022-05-13 12:34:37.378692-07:00,1223.9,828.5,1170.9,1017.6,1134.0,786.1,1706.2,1322.3,3466.1,3468.6,1100.8,913.5,1694.8,3469.8,1408.5,1369.4,3468.6,3468.6,399.6,621.4,922.0,1148.0,580.2,2436.7,3474.6,3474.6,660.3,842.8,2140.2,1131.4,1060.8,1073.8,-108.0,-122.0,-116.0,11338.0,-7595.0,7190.0,-5524.0,2491.0,-652.0,802.0,-99.0,-131.0,-107.0,9916.0,-11528.0,4682.0,-3910.0,2304.0,-246.0,519.0,1.0
2022-05-13 12:34:37.379924-07:00,1221.3,821.0,1170.9,1017.6,1134.0,791.0,1706.2,1322.3,3467.4,3475.9,1100.8,913.5,1698.6,3467.4,1408.5,1369.4,3468.6,3468.6,395.0,618.1,922.0,1148.0,582.6,2438.8,3474.6,3474.6,670.1,847.0,2140.2,1131.4,1064.3,1089.5,-55.0,77.0,-118.0,12038.0,-6918.0,6708.0,-5537.0,2031.0,-1436.0,270.0,-99.0,-89.0,-41.0,10603.0,-10951.0,4563.0,-3909.0,1434.0,-512.0,661.0,1.0
2022-05-13 12:34:37.602010-07:00,1221.3,821.0,1300.7,1068.6,1134.0,792.7,1709.1,1339.5,3467.4,3475.9,1098.2,919.4,1698.6,3480.7,1407.6,1373.9,3472.2,3475.9,395.7,618.1,922.8,1149.8,582.6,2438.8,3478.3,3477.1,661.9,847.0,2143.3,1124.4,1064.3,1089.5,-30.0,148.0,-68.0,12643.0,-6481.0,5887.0,-5649.0,2055.0,-1422.0,-331.0,-81.0,137.0,-5.0,11128.0,-10524.0,4425.0,-3776.0,1145.0,-496.0,388.0,1.0
2022-05-13 12:34:37.691258-07:00,1218.6,825.2,1281.0,1068.6,1141.0,792.7,1709.1,1339.5,3467.4,3461.3,1097.3,919.4,1698.6,3480.7,1407.6,1373.9,3472.2,3475.9,395.7,626.2,922.8,1152.4,580.2,2438.8,3478.3,3477.1,661.9,845.3,2143.3,1130.5,1063.4,1066.9,25.0,103.0,-13.0,13127.0,-6056.0,5113.0,-5770.0,1652.0,-1075.0,91.0,-11.0,117.0,-12.0,11544.0,-10173.0,4219.0,-3725.0,1380.0,-449.0,51.0,1.0
2022-05-13 12:34:37.737635-07:00,1218.6,825.2,1281.0,1062.5,1141.0,789.4,1711.0,1335.9,3467.4,3461.3,1097.3,917.7,1698.6,3473.4,1403.0,1370.3,3475.9,3475.9,398.9,626.2,921.1,1152.4,580.2,2438.8,3486.8,3477.1,670.9,845.3,2141.2,1130.5,1063.4,1066.9,66.0,116.0,-24.0,13493.0,-5639.0,4570.0,-5805.0,1159.0,-732.0,8.0,80.0,99.0,9.0,11905.0,-9845.0,3976.0,-3740.0,846.0,-369.0,-53.0,1.0
2022-05-13 12:34:37.739683-07:00,1222.2,821.0,1241.7,1062.5,1134.0,789.4,1711.0,1335.9,3472.2,3479.5,1101.7,917.7,1704.3,3473.4,1403.0,1370.3,3475.9,3475.9,398.9,624.6,921.1,1144.5,581.8,2430.3,3486.8,3477.1,670.9,847.8,2141.2,1129.6,1057.3,1076.4,47.0,44.0,7.0,13697.0,-5443.0,4189.0,-5801.0,582.0,-674.0,-87.0,48.0,44.0,-3.0,12105.0,-9672.0,3793.0,-3736.0,452.0,-274.0,-23.0,1.0
2022-05-13 12:34:37.740829-07:00,1222.2,821.0,1241.7,1045.2,1134.0,783.6,1706.2,1334.1,3472.2,3479.5,1101.7,915.2,1704.3,3474.6,1401.2,1369.4,3475.9,3475.9,396.5,624.6,918.6,1144.5,581.8,2430.3,3485.6,3479.5,670.9,847.8,2134.1,1129.6,1057.3,1076.4,76.0,57.0,27.0,13821.0,-5346.0,3871.0,-5817.0,460.0,-364.0,-115.0,67.0,64.0,-5.0,12230.0,-9566.0,3674.0,-3723.0,372.0,-186.0,-18.0,1.0
2022-05-13 12:34:37.783216-07:00,1229.3,831.9,1254.2,1045.2,1125.2,783.6,1706.2,1334.1,3473.4,3471.0,1097.3,915.2,1695.7,3474.6,1401.2,1369.4,3475.9,3475.9,396.5,627.8,918.6,1150.6,580.2,2427.1,3485.6,3479.5,670.9,855.3,2134.1,1122.6,1063.4,1066.9,55.0,60.0,-21.0,13891.0,-5221.0,3698.0,-5876.0,370.0,-34.0,-73.0,40.0,74.0,-7.0,12310.0,-9493.0,3552.0,-3764.0,258.0,-101.0,-61.0,1.0
2022-05-13 12:34:37.784662-07:00,1229.3,831.9,1254.2,1046.1,1126.1,786.9,1714.8,1338.6,3473.4,3471.0,1097.3,911.8,1698.6,3479.5,1396.7,1373.0,3483.2,3471.0,388.7,627.8,919.4,1150.6,580.2,2427.1,3480.7,3483.2,680.7,849.5,2131.1,1122.6,1063.4,1066.9,-4.0,27.0,-35.0,13916.0,-5118.0,3635.0,-5947.0,240.0,12.0,-165.0,6.0,26.0,0.0,12339.0,-9467.0,3493.0,-3788.0,90.0,-52.0,-99.0,1.0
2022-05-13 12:34:37.828088-07:00,1229.3,831.9,1254.2,1046.1,1126.1,786.9,1714.8,1338.6,3473.4,3471.0,1097.3,911.8,1698.6,3479.5,1396.7,1373.0,3483.2,3471.0,388.7,627.8,919.4,1150.6,580.2,2427.1,3480.7,3483.2,680.7,849.5,2131.1,1122.6,1063.4,1066.9,-4.0,27.0,-35.0,13916.0,-5118.0,3635.0,-5947.0,240.0,12.0,-165.0,6.0,26.0,0.0,12339.0,-9467.0,3493.0,-3788.0,90.0,-52.0,-99.0,1.0
2022-05-13 12:34:37.829535-07:00,1224.8,820.2,1237.3,1046.1,1125.2,791.9,1708.1,1347.6,3475.9,3467.4,1098.2,914.4,1705.3,3469.8,1402.1,1367.6,3478.3,3485.6,391.8,628.6,930.5,1148.9,581.0,2424.0,3472.2,3477.1,675.8,851.1,2135.1,1125.2,1066.0,1075.6,-16.0,-57.0,29.0,13851.0,-5162.0,3692.0,-6024.0,-145.0,202.0,7.0,3.0,-29.0,22.0,12258.0,-9583.0,3447.0,-3804.0,-159.0,-56.0,-63.0,1.0
2022-05-13 12:34:37.871282-07:00,1223.9,820.2,1241.7,1047.0,1125.2,791.9,1708.1,1347.6,3464.9,3471.0,1099.9,913.5,1705.3,3469.8,1402.1,1367.6,3478.3,3485.6,391.8,628.6,922.0,1152.4,586.7,2437.7,3472.2,3477.1,675.8,851.1,2140.2,1120.0,1058.2,1073.8,-25.0,21.0,14.0,13842.0,-5098.0,3805.0,-6029.0,42.0,382.0,179.0,-5.0,-7.0,28.0,12273.0,-9571.0,3417.0,-3812.0,87.0,-26.0,-36.0,1.0
2022-05-13 12:34:37.916265-07:00,1223.9,820.2,1241.7,1047.0,1210.6,786.1,1711.9,1334.1,3464.9,3471.0,1099.9,913.5,1694.8,3469.8,1401.2,1374.8,3475.9,3469.8,397.3,626.2,922.0,1152.4,586.7,2437.7,3474.6,3467.4,679.1,844.4,2140.2,1120.0,1058.2,1073.8,-29.0,-11.0,-4.0,13819.0,-5060.0,3942.0,-6027.0,-91.0,216.0,31.0,-3.0,-18.0,29.0,12260.0,-9588.0,3415.0,-3813.0,-84.0,-10.0,-24.0,1.0
2022-05-13 12:34:37.961259-07:00,1224.8,821.9,1227.5,1042.6,1210.6,786.1,1711.9,1375.7,3468.6,3471.0,1095.6,906.7,1694.8,3469.8,1401.2,1365.7,3471.0,3469.8,397.3,626.2,918.6,1146.3,581.8,2429.3,3478.3,3467.4,679.1,844.4,2117.9,1121.7,1053.0,1076.4,-26.0,-33.0,-24.0,13798.0,-5055.0,4030.0,-6020.0,-69.0,115.0,106.0,-8.0,-24.0,13.0,12247.0,-9607.0,3411.0,-3809.0,-48.0,-19.0,-10.0,1.0
2022-05-13 12:34:38.006150-07:00,1223.0,821.9,1227.5,1042.6,1292.7,788.6,1717.7,1375.7,3478.3,3471.0,1095.6,906.7,1703.3,3474.6,1407.6,1365.7,3471.0,3472.2,397.3,625.4,918.6,1146.3,581.8,2428.2,3478.3,3477.1,667.6,845.3,2117.9,1121.7,1053.0,1078.2,-15.0,-26.0,6.0,13797.0,-5043.0,4094.0,-5991.0,-50.0,156.0,126.0,-11.0,-11.0,-4.0,12258.0,-9596.0,3403.0,-3809.0,33.0,-3.0,-7.0,1.0
2022-05-13 12:34:38.053169-07:00,1223.0,816.0,1223.9,1030.6,1292.7,788.6,1717.7,1388.5,3478.3,3469.8,1097.3,906.7,1703.3,3474.6,1407.6,1373.0,3474.6,3472.2,397.3,625.4,921.1,1147.1,579.4,2428.2,3475.9,3477.1,667.6,845.3,2130.1,1122.6,1055.6,1078.2,-12.0,-23.0,-17.0,13789.0,-5006.0,4216.0,-5955.0,44.0,282.0,213.0,-1.0,-12.0,-6.0,12267.0,-9587.0,3404.0,-3803.0,39.0,4.0,39.0,1.0
2022-05-13 12:34:38.276504-07:00,1221.3,816.0,1223.9,1030.6,1279.2,781.9,1711.0,1388.5,3469.8,3469.8,1097.3,906.7,1697.6,3471.0,1398.5,1373.0,3474.6,3471.0,393.4,618.1,921.1,1147.1,579.4,2430.3,3475.9,3475.9,658.7,852.0,2130.1,1122.6,1055.6,1069.5,-17.0,8.0,-58.0,13797.0,-4938.0,4310.0,-5927.0,74.0,54.0,90.0,-8.0,-17.0,0.0,12288.0,-9562.0,3404.0,-3797.0,74.0,-14.0,27.0,1.0
2022-05-13 12:34:38.278729-07:00,1221.3,818.5,1230.2,1045.2,1279.2,781.9,1711.0,1383.9,3469.8,3471.0,1099.9,916.0,1697.6,3471.0,1398.5,1371.2,3475.9,3471.0,393.4,618.1,918.6,1148.0,584.3,2430.3,3473.4,3475.9,658.7,852.0,2141.2,1127.0,1041.8,1069.5,-3.0,-12.0,-37.0,13802.0,-4931.0,4318.0,-5915.0,-98.0,31.0,4.0,-18.0,20.0,-19.0,12304.0,-9549.0,3391.0,-3788.0,-32.0,-42.0,1.0,1.0
2022-05-13 12:34:38.279937-07:00,1223.9,818.5,1230.2,1045.2,1281.9,789.4,1722.4,1383.9,3472.2,3471.0,1099.9,916.0,1694.8,3467.4,1402.1,1371.2,3475.9,3483.2,396.5,630.3,918.6,1148.0,584.3,2427.1,3473.4,3467.4,659.5,847.0,2141.2,1127.0,1041.8,1076.4,-24.0,-28.0,-26.0,13785.0,-4945.0,4365.0,-5909.0,2.0,99.0,63.0,-16.0,-8.0,-4.0,12305.0,-9561.0,3378.0,-3769.0,30.0,-53.0,2.0,1.0
2022-05-13 12:34:38.322446-07:00,1223.9,828.5,1229.3,1032.3,1281.9,789.4,1709.1,1364.8,3472.2,3468.6,1104.3,914.4,1694.8,3467.4,1396.7,1369.4,3480.7,3479.5,396.5,630.3,918.6,1145.4,578.6,2427.1,3478.3,3479.5,659.5,847.0,2137.2,1130.5,1057.3,1076.4,-22.0,-15.0,-9.0,13783.0,-4925.0,4426.0,-5885.0,-27.0,149.0,137.0,-14.0,-2.0,-3.0,12315.0,-9558.0,3364.0,-3756.0,-1.0,-45.0,-6.0,1.0
2022-05-13 12:34:38.367478-07:00,1226.6,826.9,1229.3,1032.3,1281.0,787.7,1709.1,1364.8,3467.4,3471.0,1104.3,914.4,1694.8,3467.4,1396.7,1369.4,3480.7,3479.5,391.1,624.6,918.6,1145.4,578.6,2426.1,3478.3,3479.5,658.7,841.1,2137.2,1130.5,1089.5,1252.4,-19.0,11.0,0.0,13787.0,-4887.0,4501.0,-5850.0,-41.0,105.0,128.0,-3.0,-4.0,17.0,12325.0,-9551.0,3351.0,-3752.0,24.0,-16.0,-7.0,1.0
2022-05-13 12:34:38.412089-07:00,1226.6,826.9,1239.1,1053.0,1281.0,787.7,1706.2,1355.8,3467.4,3471.0,1111.2,911.8,1694.8,3467.4,1403.0,1381.2,3481.9,3480.7,391.1,624.6,915.2,1142.7,578.6,2426.1,3472.2,3474.6,658.7,841.1,2118.9,1146.3,1089.5,1252.4,3.0,0.0,-6.0,13784.0,-4883.0,4545.0,-5826.0,27.0,86.0,-2.0,-8.0,0.0,-7.0,12330.0,-9547.0,3347.0,-3752.0,37.0,-24.0,-17.0,1.0
2022-05-13 12:34:38.566350-07:00,1238.2,841.9,1239.1,1053.0,1307.0,782.7,1706.2,1355.8,3475.9,3466.1,1111.2,911.8,1697.6,3471.0,1403.0,1381.2,3481.9,3480.7,391.1,634.3,915.2,1142.7,580.2,2433.5,3472.2,3474.6,658.7,847.8,2118.9,1146.3,1134.0,1322.3,-34.0,-17.0,-11.0,13771.0,-4863.0,4579.0,-5846.0,-14.0,27.0,-14.0,-3.0,-23.0,17.0,12329.0,-9550.0,3336.0,-3754.0,-6.0,-6.0,-12.0,1.0
2022-05-13 12:34:38.567252-07:00,1238.2,841.9,1242.6,1065.1,1307.0,782.7,1705.3,1344.0,3475.9,3466.1,1114.7,917.7,1697.6,3471.0,1401.2,1366.6,3478.3,3467.4,391.1,634.3,917.7,1143.6,580.2,2433.5,3471.0,3467.4,658.7,847.8,2131.1,1190.3,1134.0,1322.3,-8.0,-51.0,17.0,13767.0,-4866.0,4593.0,-5843.0,60.0,123.0,78.0,-12.0,-14.0,-2.0,12335.0,-9544.0,3334.0,-3754.0,43.0,-14.0,11.0,1.0
2022-05-13 12:34:38.567877-07:00,1234.6,840.3,1254.2,1065.1,1309.7,784.4,1705.3,1344.0,3467.4,3467.4,1113.9,917.7,1703.3,3468.6,1401.2,1366.6,3478.3,3467.4,396.5,633.5,917.7,1150.6,578.6,2452.6,3471.0,3467.4,657.9,844.4,2131.1,1216.8,1160.3,1405.8,-29.0,-23.0,-7.0,13784.0,-4774.0,4656.0,-5826.0,190.0,129.0,195.0,-3.0,-36.0,19.0,12373.0,-9496.0,3328.0,-3753.0,216.0,5.0,51.0,1.0
2022-05-13 12:34:38.682418-07:00,1234.6,840.3,1254.2,1086.0,1309.7,787.7,1699.5,1330.5,3467.4,3467.4,1113.9,919.4,1703.3,3478.3,1400.3,1365.7,3466.1,3473.4,396.5,633.5,918.6,1150.6,578.6,2452.6,3477.1,3474.6,673.3,844.4,2127.0,1216.8,1160.3,1405.8,3.0,-32.0,36.0,13819.0,-4672.0,4697.0,-5795.0,118.0,248.0,201.0,-19.0,-2.0,-4.0,12440.0,-9414.0,3314.0,-3754.0,204.0,-25.0,58.0,1.0
2022-05-13 12:34:38.727448-07:00,1229.3,845.3,1248.8,1086.0,1345.8,787.7,1699.5,1330.5,3468.6,3492.9,1123.5,919.4,1702.4,3478.3,1400.3,1365.7,3466.1,3473.4,396.5,630.3,918.6,1144.5,581.0,2443.0,3477.1,3474.6,673.3,852.8,2127.0,1231.0,1167.4,1461.7,-34.0,-68.0,89.0,13810.0,-4566.0,4880.0,-5749.0,-51.0,572.0,295.0,-2.0,-108.0,32.0,12470.0,-9379.0,3332.0,-3726.0,26.0,39.0,166.0,1.0
2022-05-13 12:34:38.773468-07:00,1229.3,845.3,1248.8,1076.4,1345.8,792.7,1690.0,1330.5,3468.6,3492.9,1123.5,919.4,1702.4,3475.9,1398.5,1369.4,3474.6,3471.0,395.0,630.3,929.6,1144.5,581.0,2443.0,3477.1,3469.8,701.9,852.8,2124.0,1231.0,1167.4,1461.7,-61.0,-88.0,73.0,13760.0,-4501.0,5134.0,-5699.0,-270.0,535.0,308.0,-20.0,-96.0,47.0,12479.0,-9364.0,3430.0,-3643.0,-127.0,83.0,387.0,1.0
2022-05-13 12:34:39.041305-07:00,1229.3,838.6,1234.6,1076.4,1298.1,792.7,1690.0,1330.5,3472.2,3472.2,1127.9,919.4,1703.3,3475.9,1398.5,1369.4,3474.6,3471.0,395.0,634.3,929.6,1148.9,579.4,2444.1,3477.1,3469.8,701.9,879.7,2124.0,1209.7,1155.0,1409.4,-40.0,-54.0,7.0,13701.0,-4498.0,5402.0,-5595.0,-313.0,414.0,317.0,-27.0,-67.0,13.0,12473.0,-9365.0,3604.0,-3488.0,-171.0,102.0,541.0,1.0
2022-05-13 12:34:39.131917-07:00,1229.3,838.6,1234.6,1080.8,1298.1,786.1,1685.3,1323.2,3472.2,3472.2,1127.9,916.0,1703.3,3474.6,1404.9,1375.7,3483.2,3468.6,395.7,634.3,918.6,1148.9,579.4,2444.1,3478.3,3467.4,695.4,879.7,2132.1,1209.7,1155.0,1409.4,6.0,-14.0,-36.0,13670.0,-4478.0,5606.0,-5485.0,-91.0,277.0,373.0,3.0,8.0,-4.0,12505.0,-9316.0,3771.0,-3322.0,46.0,62.0,548.0,1.0
2022-05-13 12:34:39.403411-07:00,1231.9,837.7,1226.6,1074.7,1283.7,786.1,1685.3,1323.2,3467.4,3471.0,1137.5,921.1,1701.4,3474.6,1404.9,1375.7,3483.2,3468.6,395.7,628.6,927.9,1146.3,578.6,2434.6,3478.3,3467.4,695.4,871.3,2137.2,1221.3,1163.0,1393.9,42.0,64.0,-102.0,13682.0,-4411.0,5735.0,-5376.0,-20.0,148.0,270.0,19.0,69.0,-38.0,12577.0,-9218.0,3894.0,-3182.0,130.0,24.0,440.0,1.0
