Time,P0,P1,P2,P3,P4,P5,P6,P7,P8,P9,P10,P11,P12,P13,P14,P15,P16,P17,P18,P19,P20,P21,P22,P23,P24,P25,P26,P27,P28,P29,P30,P31,ECG,AX0,AY0,AZ0,QW0,QX0,QY0,QZ0,GX0,GY0,GZ0,AX1,AY1,AZ1,QW1,QX1,QY1,QZ1,GX1,GY1,GZ1
2022-05-08 18:26:46.647029-07:00,810.2,890.7,1395.7,943.2,742.2,478.2,1426.8,857.9,3462.5,3473.4,688.0,887.3,407.5,3494.1,759.6,735.6,3479.5,3475.9,389.5,543.4,392.6,486.9,264.5,268.3,3472.2,3475.9,559.4,468.7,724.9,973.1,1232.8,480.6,-1.0,1.0,-1.0,10051.0,11116.0,5743.0,3297.0,-2.0,-20.0,-3.0,-1.0,1.0,0.0,11637.0,11439.0,1366.0,-556.0,-4.0,-15.0,-1.0,1.0
2022-05-08 18:26:46.649184-07:00,810.2,890.7,1395.7,939.0,742.2,479.0,1420.4,849.5,3462.5,3473.4,688.0,888.2,407.5,3506.3,754.6,737.3,3469.8,3483.2,391.1,543.4,394.2,486.9,264.5,268.3,3478.3,3473.4,565.0,468.7,726.6,973.1,1232.8,480.6,-6.0,0.0,5.0,10052.0,11117.0,5741.0,3294.0,-5.0,-8.0,4.0,-3.0,4.0,5.0,11637.0,11439.0,1365.0,-557.0,-3.0,-2.0,0.0,1.0
2022-05-08 18:26:46.767094-07:00,811.0,893.2,1394.8,939.0,735.6,479.0,1420.4,849.5,3471.0,3466.1,691.3,888.2,411.4,3506.3,754.6,737.3,3469.8,3483.2,391.1,543.4,394.2,486.1,259.2,264.5,3478.3,3473.4,565.0,473.5,726.6,975.6,1231.9,479.8,-1.0,5.0,0.0,10052.0,11116.0,5742.0,3295.0,1.0,16.0,-4.0,-2.0,1.0,0.0,11637.0,11439.0,1365.0,-557.0,4.0,9.0,-1.0,1.0
2022-05-08 18:26:46.768635-07:00,811.0,893.2,1394.8,946.6,735.6,478.2,1421.3,858.7,3471.0,3466.1,691.3,892.4,409.0,3495.3,757.9,738.9,3473.4,3474.6,388.7,545.0,396.5,486.1,259.2,264.5,3477.1,3472.2,571.4,472.7,731.5,975.6,1231.9,479.8,-5.0,0.0,-6.0,10051.0,11116.0,5744.0,3297.0,2.0,6.0,-2.0,-5.0,1.0,-6.0,11637.0,11439.0,1369.0,-554.0,4.0,12.0,-5.0,1.0
2022-05-08 18:26:46.797018-07:00,802.7,893.2,1390.3,945.8,735.6,478.2,1421.3,858.7,3475.9,3478.3,692.9,889.0,409.0,3495.3,757.9,738.9,3473.4,3474.6,388.7,545.0,395.0,484.5,261.4,259.2,3477.1,3472.2,571.4,472.7,731.5,973.9,1230.2,479.8,-4.0,0.0,-15.0,10050.0,11115.0,5745.0,3298.0,-6.0,-6.0,5.0,-2.0,0.0,-6.0,11637.0,11439.0,1369.0,-554.0,0.0,2.0,1.0,1.0
2022-05-08 18:26:46.886733-07:00,802.7,893.2,1390.3,945.8,734.0,473.5,1426.8,865.4,3475.9,3478.3,692.9,889.0,405.9,3499.0,760.4,735.6,3474.6,3477.1,385.6,544.2,395.0,484.5,261.4,259.2,3478.3,3479.5,565.0,471.1,731.5,973.9,1230.2,479.8,-3.0,3.0,-5.0,10050.0,11116.0,5744.0,3297.0,-9.0,-16.0,-3.0,-5.0,0.0,0.0,11637.0,11439.0,1369.0,-554.0,-5.0,-5.0,0.0,1.0
2022-05-08 18:26:46.917513-07:00,808.5,890.7,1397.6,942.4,734.0,473.5,1426.8,865.4,3464.9,3472.2,691.3,884.8,405.9,3499.0,760.4,735.6,3474.6,3477.1,385.6,544.2,394.2,483.0,259.2,263.7,3478.3,3479.5,565.0,471.1,732.3,977.3,1241.7,479.8,-7.0,6.0,4.0,10053.0,11116.0,5740.0,3294.0,-5.0,-3.0,1.0,-5.0,0.0,2.0,11637.0,11439.0,1369.0,-554.0,-1.0,-2.0,0.0,1.0
2022-05-08 18:26:46.977131-07:00,808.5,890.7,1397.6,942.4,733.2,475.8,1429.5,871.3,3464.9,3472.2,691.3,884.8,411.4,3497.8,756.3,738.9,3479.5,3474.6,389.5,549.0,394.2,483.0,259.2,263.7,3478.3,3474.6,557.8,471.9,732.3,977.3,1241.7,479.8,-1.0,5.0,0.0,10053.0,11116.0,5740.0,3294.0,6.0,8.0,-5.0,-2.0,5.0,0.0,11636.0,11439.0,1369.0,-554.0,3.0,3.0,-4.0,1.0
2022-05-08 18:26:47.036699-07:00,805.2,891.5,1393.0,943.2,733.2,475.8,1429.5,871.3,3473.4,3480.7,686.4,898.3,411.4,3497.8,756.3,738.9,3479.5,3474.6,389.5,549.0,391.8,486.9,266.0,267.6,3478.3,3474.6,557.8,471.9,731.5,966.2,1232.8,479.8,-7.0,3.0,-9.0,10053.0,11116.0,5741.0,3294.0,-1.0,0.0,4.0,-7.0,2.0,1.0,11636.0,11439.0,1369.0,-554.0,3.0,0.0,2.0,1.0
2022-05-08 18:26:47.037989-07:00,802.7,891.5,1393.0,943.2,738.9,482.2,1420.4,854.5,3467.4,3480.7,686.4,898.3,409.0,3497.8,752.1,731.5,3483.2,3474.6,391.8,549.0,391.8,486.9,266.0,263.0,3483.2,3478.3,565.8,471.9,731.5,966.2,1232.8,479.8,-2.0,4.0,-9.0,10053.0,11116.0,5741.0,3294.0,1.0,-3.0,2.0,-3.0,1.0,-1.0,11636.0,11439.0,1369.0,-554.0,1.0,-6.0,1.0,1.0
2022-05-08 18:26:47.156630-07:00,802.7,900.0,1401.2,939.0,738.9,482.2,1420.4,857.9,3467.4,3472.2,689.7,890.7,409.0,3497.8,752.1,738.9,3480.7,3474.6,391.8,549.0,398.9,488.5,266.0,263.0,3481.9,3478.3,565.8,471.9,726.6,969.6,1230.2,479.8,0.0,0.0,-5.0,10054.0,11116.0,5739.0,3292.0,-5.0,-11.0,0.0,-1.0,-1.0,-5.0,11636.0,11439.0,1369.0,-554.0,-2.0,-7.0,1.0,1.0
2022-05-08 18:26:47.157599-07:00,804.4,900.0,1401.2,939.0,729.9,476.6,1422.2,857.9,3477.1,3472.2,689.7,890.7,408.2,3496.6,761.2,738.9,3480.7,3475.9,389.5,541.8,398.9,488.5,266.0,259.9,3481.9,3478.3,565.0,467.9,726.6,969.6,1230.2,476.6,-3.0,2.0,0.0,10055.0,11116.0,5738.0,3292.0,-5.0,-3.0,1.0,-2.0,0.0,1.0,11636.0,11439.0,1369.0,-554.0,-4.0,0.0,3.0,1.0
2022-05-08 18:26:47.187078-07:00,804.4,899.1,1397.6,955.1,729.9,476.6,1422.2,854.5,3477.1,3480.7,694.6,889.0,408.2,3496.6,761.2,736.5,3479.5,3475.9,389.5,541.8,392.6,488.5,265.3,259.9,3472.2,3478.3,565.0,467.9,734.8,975.6,1230.2,476.6,-6.0,3.0,-3.0,10055.0,11116.0,5738.0,3292.0,-2.0,5.0,-3.0,-3.0,3.0,-1.0,11636.0,11439.0,1369.0,-554.0,-1.0,1.0,-1.0,1.0
2022-05-08 18:26:47.276769-07:00,803.5,899.1,1397.6,955.1,734.8,478.2,1426.8,854.5,3478.3,3480.7,694.6,889.0,410.6,3495.3,760.4,736.5,3479.5,3475.9,386.4,545.8,392.6,488.5,265.3,259.9,3472.2,3485.6,563.4,472.7,734.8,975.6,1230.2,479.0,-3.0,1.0,-2.0,10055.0,11116.0,5738.0,3292.0,-13.0,-4.0,-4.0,-5.0,-3.0,0.0,11636.0,11439.0,1369.0,-554.0,-4.0,-2.0,-1.0,1.0
2022-05-08 18:26:47.336684-07:00,803.5,899.1,1393.0,941.5,734.8,478.2,1426.8,855.3,3478.3,3469.8,692.9,878.0,410.6,3495.3,760.4,738.1,3473.4,3475.9,386.4,545.8,392.6,483.7,267.6,259.9,3483.2,3485.6,563.4,472.7,730.7,975.6,1235.5,479.0,-4.0,1.0,-1.0,10056.0,11116.0,5738.0,3292.0,-2.0,-1.0,-1.0,-4.0,0.0,-2.0,11636.0,11439.0,1369.0,-554.0,1.0,4.0,1.0,1.0
2022-05-08 18:26:47.338832-07:00,804.4,891.5,1393.0,941.5,733.2,480.6,1426.8,855.3,3471.0,3467.4,692.9,878.0,409.0,3494.1,762.0,738.1,3473.4,3488.0,390.3,545.0,392.6,483.7,264.5,264.5,3483.2,3486.8,565.8,471.1,730.7,975.6,1228.4,479.0,-3.0,3.0,-7.0,10056.0,11116.0,5738.0,3292.0,3.0,2.0,0.0,-3.0,2.0,-3.0,11636.0,11439.0,1369.0,-554.0,4.0,-5.0,-2.0,1.0
2022-05-08 18:26:47.427374-07:00,804.4,891.5,1395.7,948.3,733.2,480.6,1420.4,857.0,3471.0,3467.4,688.9,884.8,409.0,3494.1,753.8,734.8,3473.4,3478.3,390.3,545.0,391.8,486.9,264.5,264.5,3478.3,3480.7,565.8,471.1,733.2,973.9,1228.4,479.0,-2.0,1.0,-5.0,10056.0,11116.0,5737.0,3292.0,-1.0,-6.0,0.0,-3.0,0.0,1.0,11636.0,11439.0,1369.0,-554.0,7.0,-5.0,-3.0,1.0
2022-05-08 18:26:47.456773-07:00,820.2,894.1,1395.7,948.3,729.9,478.2,1420.4,857.0,3474.6,3468.6,688.9,884.8,411.4,3495.3,753.8,734.8,3473.4,3478.3,392.6,542.6,391.8,486.9,256.9,263.7,3478.3,3480.7,563.4,466.4,733.2,973.9,1228.4,480.6,-2.0,1.0,0.0,10057.0,11117.0,5735.0,3289.0,-2.0,-7.0,-7.0,-4.0,0.0,-2.0,11636.0,11439.0,1369.0,-554.0,3.0,3.0,-4.0,1.0
2022-05-08 18:26:47.516983-07:00,820.2,894.1,1395.7,943.2,729.9,478.2,1429.5,859.5,3474.6,3468.6,701.9,889.8,411.4,3495.3,760.4,738.9,3472.2,3478.3,392.6,542.6,393.4,488.5,256.9,263.7,3480.7,3472.2,563.4,466.4,732.3,981.6,1228.4,480.6,-5.0,3.0,3.0,10057.0,11117.0,5735.0,3289.0,-9.0,-4.0,-3.0,-3.0,0.0,-2.0,11636.0,11439.0,1369.0,-554.0,-7.0,7.0,0.0,1.0
2022-05-08 18:26:47.546270-07:00,811.9,896.6,1395.7,943.2,731.5,480.6,1429.5,859.5,3473.4,3472.2,701.9,889.8,408.2,3497.8,760.4,738.9,3472.2,3478.3,389.5,547.4,393.4,488.5,263.7,259.9,3480.7,3472.2,562.6,476.6,732.3,981.6,1232.8,466.4,-5.0,6.0,-4.0,10057.0,11116.0,5736.0,3290.0,3.0,4.0,0.0,-7.0,2.0,-2.0,11636.0,11439.0,1370.0,-552.0,-1.0,14.0,0.0,1.0
2022-05-08 18:26:47.637051-07:00,811.9,896.6,1398.5,944.1,731.5,480.6,1427.7,860.4,3473.4,3472.2,688.9,884.8,408.2,3497.8,759.6,738.1,3480.7,3481.9,389.5,547.4,394.2,484.5,263.7,259.9,3488.0,3477.1,562.6,476.6,734.0,973.1,1232.8,466.4,-1.0,-4.0,-9.0,10057.0,11116.0,5736.0,3290.0,-10.0,1.0,4.0,-4.0,0.0,-7.0,11636.0,11440.0,1372.0,-551.0,-4.0,1.0,2.0,1.0
2022-05-08 18:26:47.638514-07:00,808.5,890.7,1391.2,944.1,728.2,476.6,1427.7,860.4,3474.6,3471.0,690.5,884.8,411.4,3497.8,759.6,738.1,3480.7,3481.9,386.4,545.8,394.2,490.1,260.7,263.7,3488.0,3477.1,566.6,464.8,734.0,973.9,1231.9,479.0,-3.0,4.0,-12.0,10058.0,11116.0,5734.0,3289.0,-8.0,-23.0,-2.0,-6.0,3.0,-3.0,11636.0,11440.0,1372.0,-551.0,-4.0,0.0,1.0,1.0
2022-05-08 18:26:47.696455-07:00,808.5,890.7,1391.2,942.4,728.2,483.7,1418.6,862.1,3474.6,3471.0,690.5,886.5,411.4,3495.3,755.4,738.9,3478.3,3469.8,391.1,545.8,393.4,490.1,260.7,263.7,3479.5,3471.0,561.0,464.8,734.0,973.9,1231.9,479.0,-7.0,2.0,-3.0,10061.0,11117.0,5731.0,3286.0,-4.0,-10.0,6.0,-6.0,1.0,3.0,11638.0,11438.0,1370.0,-552.0,-6.0,-11.0,7.0,1.0
2022-05-08 18:26:47.786705-07:00,806.9,896.6,1396.7,942.4,733.2,483.7,1418.6,862.1,3467.4,3469.8,692.1,886.5,408.2,3495.3,755.4,738.9,3478.3,3469.8,391.1,545.8,393.4,480.6,258.4,260.7,3479.5,3471.0,561.0,467.1,734.0,971.3,1249.7,477.4,-1.0,0.0,0.0,10064.0,11116.0,5727.0,3283.0,-8.0,-10.0,0.0,0.0,0.0,2.0,11639.0,11437.0,1368.0,-554.0,-7.0,-3.0,1.0,1.0
2022-05-08 18:26:47.907397-07:00,806.9,896.6,1396.7,950.9,733.2,476.6,1426.8,863.7,3467.4,3469.8,692.1,892.4,408.2,3502.7,757.1,741.4,3478.3,3469.8,390.3,545.8,396.5,480.6,258.4,260.7,3488.0,3483.2,569.8,467.1,726.6,971.3,1249.7,477.4,-8.0,2.0,0.0,10064.0,11117.0,5727.0,3282.0,1.0,4.0,3.0,-4.0,-2.0,0.0,11639.0,11437.0,1368.0,-554.0,-1.0,1.0,3.0,1.0
2022-05-08 18:26:48.026839-07:00,808.5,895.7,1414.0,950.9,738.9,476.6,1426.8,863.7,3478.3,3477.1,688.0,892.4,408.2,3502.7,757.1,741.4,3478.3,3469.8,390.3,547.4,396.5,484.5,263.0,263.0,3488.0,3483.2,569.8,467.1,726.6,973.1,1231.0,480.6,-2.0,0.0,-1.0,10064.0,11117.0,5727.0,3282.0,1.0,7.0,-5.0,-1.0,1.0,-3.0,11639.0,11437.0,1368.0,-554.0,-1.0,5.0,-3.0,1.0
2022-05-08 18:26:48.028437-07:00,808.5,895.7,1414.0,942.4,738.9,480.6,1428.6,855.3,3478.3,3477.1,688.0,884.8,408.2,3490.5,754.6,737.3,3477.1,3473.4,387.9,547.4,392.6,484.5,263.0,263.0,3475.9,3478.3,563.4,467.1,732.3,973.1,1231.0,480.6,-1.0,3.0,-9.0,10064.0,11117.0,5727.0,3282.0,-2.0,-6.0,2.0,-5.0,2.0,-3.0,11639.0,11437.0,1368.0,-554.0,1.0,5.0,1.0,1.0
2022-05-08 18:26:48.029355-07:00,810.2,899.1,1391.2,940.7,732.3,480.6,1428.6,855.3,3464.9,3478.3,690.5,888.2,409.8,3490.5,754.6,737.3,3477.1,3473.4,387.9,545.0,393.4,482.2,261.4,261.4,3475.9,3478.3,563.4,471.1,729.0,974.8,1243.5,479.8,-5.0,0.0,-4.0,10064.0,11117.0,5727.0,3282.0,-2.0,0.0,-7.0,-3.0,0.0,0.0,11639.0,11437.0,1368.0,-554.0,-3.0,-1.0,-1.0,1.0
2022-05-08 18:26:48.031463-07:00,810.2,899.1,1391.2,940.7,736.5,479.8,1425.0,860.4,3464.9,3478.3,690.5,888.2,411.4,3502.7,756.3,740.6,3480.7,3483.2,387.9,541.8,393.4,482.2,261.4,261.4,3481.9,3479.5,563.4,470.3,729.0,974.8,1243.5,479.8,-5.0,8.0,-1.0,10065.0,11117.0,5726.0,3281.0,-4.0,-2.0,-1.0,-5.0,4.0,-5.0,11639.0,11437.0,1368.0,-554.0,-6.0,4.0,0.0,1.0
2022-05-08 18:26:48.032716-07:00,808.5,896.6,1397.6,943.2,736.5,479.8,1425.0,860.4,3472.2,3480.7,691.3,884.8,411.4,3502.7,756.3,740.6,3480.7,3483.2,387.9,541.8,394.2,487.7,259.2,263.7,3481.9,3479.5,563.4,470.3,732.3,977.3,1233.7,473.5,-2.0,2.0,-7.0,10065.0,11117.0,5726.0,3281.0,-1.0,-5.0,-3.0,-3.0,-1.0,-3.0,11639.0,11437.0,1368.0,-554.0,-3.0,7.0,1.0,1.0
2022-05-08 18:26:48.116980-07:00,808.5,896.6,1397.6,943.2,734.0,484.5,1427.7,855.3,3472.2,3480.7,691.3,884.8,411.4,3497.8,757.9,736.5,3478.3,3473.4,391.8,548.2,394.2,487.7,259.2,263.7,3479.5,3478.3,560.2,470.3,732.3,977.3,1233.7,473.5,-7.0,2.0,-1.0,10065.0,11117.0,5726.0,3281.0,-6.0,2.0,0.0,-3.0,0.0,0.0,11639.0,11437.0,1368.0,-554.0,-3.0,2.0,1.0,1.0
2022-05-08 18:26:48.147077-07:00,804.4,897.4,1396.7,946.6,734.0,484.5,1427.7,855.3,3478.3,3473.4,691.3,894.1,411.4,3497.8,757.9,736.5,3478.3,3473.4,391.8,548.2,395.7,488.5,263.7,259.2,3479.5,3478.3,560.2,470.3,730.7,973.1,1226.6,479.0,-4.0,1.0,-2.0,10065.0,11117.0,5726.0,3281.0,-7.0,2.0,-2.0,-4.0,0.0,-1.0,11638.0,11437.0,1369.0,-553.0,-3.0,7.0,0.0,1.0
2022-05-08 18:26:48.236791-07:00,804.4,897.4,1396.7,946.6,730.7,473.5,1421.3,856.2,3478.3,3473.4,691.3,894.1,409.0,3490.5,757.9,741.4,3479.5,3478.3,384.0,547.4,395.7,488.5,263.7,259.2,3483.2,3483.2,562.6,471.1,730.7,973.1,1226.6,479.0,-3.0,8.0,-5.0,10065.0,11117.0,5726.0,3281.0,2.0,-1.0,1.0,-3.0,5.0,-2.0,11638.0,11437.0,1369.0,-553.0,-3.0,6.0,3.0,1.0
2022-05-08 18:26:48.238548-07:00,807.7,905.9,1390.3,939.0,730.7,473.5,1421.3,860.4,3472.2,3473.4,687.2,905.9,409.0,3490.5,757.9,739.7,3477.1,3478.3,384.0,547.4,387.9,483.7,259.9,262.2,3481.9,3483.2,562.6,471.1,732.3,973.1,1234.6,476.6,-4.0,1.0,-4.0,10065.0,11116.0,5725.0,3281.0,1.0,-1.0,2.0,-4.0,1.0,0.0,11638.0,11437.0,1369.0,-553.0,0.0,1.0,3.0,1.0
2022-05-08 18:26:48.356871-07:00,804.4,905.9,1390.3,939.0,732.3,479.8,1425.9,860.4,3471.0,3473.4,687.2,905.9,406.7,3496.6,756.3,739.7,3477.1,3472.2,388.7,541.8,387.9,483.7,259.9,264.5,3481.9,3472.2,562.6,470.3,732.3,973.1,1234.6,479.8,-4.0,1.0,0.0,10069.0,11115.0,5723.0,3281.0,-13.0,-3.0,0.0,-1.0,0.0,2.0,11641.0,11434.0,1369.0,-553.0,-10.0,1.0,0.0,1.0
2022-05-08 18:26:48.358258-07:00,804.4,899.1,1389.4,946.6,732.3,479.8,1425.9,862.9,3471.0,3480.7,690.5,890.7,406.7,3496.6,756.3,733.2,3479.5,3472.2,388.7,541.8,394.2,486.9,266.0,264.5,3472.2,3472.2,562.6,470.3,727.4,973.1,1231.0,479.8,-7.0,-2.0,1.0,10069.0,11115.0,5723.0,3281.0,-8.0,7.0,-3.0,-1.0,0.0,0.0,11641.0,11434.0,1369.0,-553.0,-10.0,6.0,3.0,1.0
2022-05-08 18:26:48.387058-07:00,811.0,899.1,1389.4,946.6,724.9,480.6,1422.2,862.9,3474.6,3480.7,690.5,890.7,408.2,3494.1,755.4,733.2,3479.5,3475.9,387.9,545.0,394.2,486.9,266.0,260.7,3472.2,3483.2,561.0,471.1,727.4,973.1,1231.0,479.0,-3.0,4.0,-9.0,10067.0,11114.0,5727.0,3285.0,0.0,9.0,2.0,-2.0,-3.0,-3.0,11641.0,11434.0,1371.0,-551.0,-2.0,10.0,-1.0,1.0
2022-05-08 18:26:48.447605-07:00,811.0,893.2,1393.9,944.9,724.9,480.6,1422.2,862.1,3474.6,3475.9,692.1,893.2,408.2,3494.1,755.4,736.5,3480.7,3475.9,387.9,545.0,391.8,489.3,263.0,260.7,3472.2,3483.2,561.0,471.1,748.8,971.3,1235.5,479.0,-7.0,4.0,-7.0,10068.0,11113.0,5726.0,3285.0,-4.0,-3.0,3.0,-2.0,0.0,-3.0,11642.0,11433.0,1372.0,-550.0,-2.0,4.0,4.0,1.0
2022-05-08 18:26:48.506363-07:00,807.7,887.3,1393.9,944.9,734.8,480.6,1419.5,862.1,3475.9,3473.4,692.1,893.2,403.5,3494.1,758.7,736.5,3480.7,3479.5,390.3,547.4,391.8,489.3,262.2,259.9,3472.2,3481.9,562.6,467.9,748.8,971.3,1229.3,479.8,-4.0,0.0,-2.0,10070.0,11112.0,5725.0,3285.0,-10.0,1.0,-8.0,-5.0,0.0,1.0,11643.0,11432.0,1372.0,-550.0,-4.0,-6.0,-4.0,1.0
2022-05-08 18:26:48.536757-07:00,807.7,887.3,1393.0,946.6,734.8,480.6,1423.1,857.9,3475.9,3473.4,698.7,890.7,403.5,3494.1,756.3,734.8,3474.6,3467.4,390.3,547.4,395.0,484.5,262.2,259.9,3481.9,3479.5,562.6,467.9,732.3,975.6,1229.3,479.8,-1.0,1.0,-3.0,10070.0,11112.0,5725.0,3285.0,-4.0,-1.0,3.0,-4.0,2.0,0.0,11643.0,11432.0,1372.0,-550.0,-5.0,0.0,2.0,1.0
2022-05-08 18:26:48.626983-07:00,808.5,900.8,1393.0,946.6,735.6,481.4,1423.1,857.9,3469.8,3477.1,698.7,890.7,411.4,3501.4,756.3,734.8,3474.6,3467.4,388.7,548.2,395.0,484.5,259.9,258.4,3481.9,3479.5,569.0,467.1,732.3,975.6,1231.9,477.4,-11.0,0.0,0.0,10071.0,11110.0,5724.0,3286.0,6.0,-3.0,-3.0,-8.0,3.0,1.0,11643.0,11432.0,1372.0,-550.0,6.0,-1.0,-2.0,1.0
2022-05-08 18:26:48.628078-07:00,808.5,900.8,1389.4,939.0,735.6,481.4,1428.6,865.4,3469.8,3477.1,689.7,889.0,411.4,3501.4,762.0,737.3,3483.2,3478.3,388.7,548.2,387.9,482.2,259.9,258.4,3478.3,3480.7,569.0,467.1,724.9,970.5,1231.9,477.4,-4.0,8.0,-7.0,10070.0,11110.0,5726.0,3287.0,2.0,10.0,4.0,-1.0,3.0,-1.0,11643.0,11432.0,1372.0,-550.0,9.0,5.0,0.0,1.0
2022-05-08 18:26:48.687334-07:00,811.9,891.5,1389.4,939.0,732.3,480.6,1428.6,865.4,3473.4,3479.5,689.7,889.0,409.0,3499.0,762.0,737.3,3483.2,3478.3,387.2,550.6,387.9,482.2,262.2,267.6,3478.3,3480.7,561.0,465.6,724.9,970.5,1232.8,481.4,-1.0,-1.0,-7.0,10070.0,11110.0,5726.0,3287.0,-5.0,2.0,-6.0,-2.0,0.0,-5.0,11643.0,11432.0,1372.0,-550.0,-2.0,-4.0,-2.0,1.0
2022-05-08 18:26:48.746495-07:00,811.9,891.5,1397.6,944.1,732.3,480.6,1426.8,853.7,3473.4,3479.5,688.9,885.6,409.0,3499.0,755.4,742.2,3488.0,3490.5,387.2,550.6,395.7,487.7,262.2,267.6,3480.7,3478.3,561.0,465.6,729.0,972.2,1232.8,481.4,-3.0,3.0,-4.0,10071.0,11110.0,5725.0,3287.0,-4.0,-11.0,2.0,-2.0,1.0,-2.0,11643.0,11432.0,1372.0,-550.0,-4.0,-5.0,-3.0,1.0
2022-05-08 18:26:48.807190-07:00,806.0,894.1,1397.6,944.1,733.2,485.3,1426.8,853.7,3472.2,3481.9,685.6,885.6,406.7,3496.6,755.4,742.2,3488.0,3490.5,389.5,545.0,395.7,486.1,259.9,261.4,3480.7,3478.3,564.2,471.9,729.0,978.2,1230.2,494.0,-5.0,2.0,-2.0,10071.0,11110.0,5725.0,3287.0,-5.0,1.0,2.0,-6.0,0.0,0.0,11643.0,11432.0,1372.0,-550.0,0.0,-1.0,2.0,1.0
2022-05-08 18:26:48.837057-07:00,806.0,894.1,1397.6,939.8,733.2,479.0,1417.6,863.7,3472.2,3481.9,685.6,894.1,406.7,3501.4,756.3,738.9,3481.9,3486.8,388.7,545.0,395.7,486.1,259.9,261.4,3477.1,3479.5,562.6,471.9,729.9,978.2,1230.2,494.0,-1.0,3.0,-7.0,10071.0,11110.0,5725.0,3287.0,-1.0,1.0,-2.0,-5.0,1.0,0.0,11643.0,11432.0,1372.0,-550.0,1.0,-4.0,-2.0,1.0
2022-05-08 18:26:48.927462-07:00,808.5,895.7,1394.8,939.8,731.5,479.0,1417.6,863.7,3479.5,3488.0,692.1,894.1,407.5,3501.4,756.3,738.9,3481.9,3486.8,388.7,547.4,395.7,488.5,264.5,263.0,3477.1,3479.5,562.6,471.9,729.9,975.6,1245.3,479.8,-5.0,1.0,-5.0,10072.0,11110.0,5725.0,3286.0,0.0,-9.0,5.0,-6.0,4.0,0.0,11643.0,11432.0,1372.0,-550.0,4.0,-5.0,3.0,1.0
2022-05-08 18:26:48.928618-07:00,808.5,895.7,1394.8,943.2,731.5,480.6,1426.8,857.9,3479.5,3488.0,692.1,889.0,407.5,3496.6,757.9,740.6,3483.2,3474.6,384.8,547.4,402.0,488.5,264.5,263.0,3479.5,3485.6,571.4,471.9,728.2,975.6,1245.3,479.8,-4.0,-2.0,-1.0,10072.0,11110.0,5725.0,3286.0,3.0,4.0,3.0,-2.0,-2.0,0.0,11643.0,11432.0,1372.0,-550.0,1.0,0.0,-3.0,1.0
2022-05-08 18:26:49.017506-07:00,807.7,889.0,1393.9,943.2,734.8,480.6,1426.8,857.9,3466.1,3480.7,691.3,889.0,412.9,3496.6,757.9,740.6,3483.2,3474.6,384.8,550.6,402.0,485.3,266.0,264.5,3479.5,3485.6,571.4,471.9,728.2,973.9,1231.0,479.8,-1.0,2.0,-8.0,10072.0,11110.0,5725.0,3286.0,-4.0,-5.0,0.0,-4.0,-1.0,-4.0,11643.0,11432.0,1372.0,-550.0,-2.0,-2.0,-1.0,1.0
2022-05-08 18:26:49.046452-07:00,807.7,889.0,1393.9,943.2,734.8,481.4,1428.6,860.4,3466.1,3480.7,691.3,892.4,412.9,3507.5,763.7,732.3,3479.5,3484.4,385.6,550.6,398.9,485.3,266.0,264.5,3485.6,3479.5,561.8,471.9,725.8,973.9,1231.0,479.8,-3.0,2.0,-4.0,10072.0,11110.0,5725.0,3286.0,-5.0,-5.0,-2.0,-2.0,-2.0,1.0,11643.0,11432.0,1372.0,-550.0,-1.0,-5.0,-3.0,1.0
2022-05-08 18:26:49.136897-07:00,804.4,897.4,1389.4,941.5,731.5,481.4,1428.6,860.4,3472.2,3478.3,689.7,887.3,405.9,3507.5,763.7,732.3,3479.5,3484.4,385.6,547.4,394.2,484.5,263.0,261.4,3485.6,3479.5,561.8,470.3,730.7,974.8,1235.5,479.8,-4.0,0.0,-1.0,10072.0,11110.0,5725.0,3286.0,0.0,4.0,0.0,-5.0,0.0,-3.0,11643.0,11432.0,1372.0,-550.0,3.0,-1.0,-2.0,1.0
2022-05-08 18:26:49.138386-07:00,804.4,897.4,1389.4,941.5,732.3,473.5,1425.9,857.0,3472.2,3478.3,689.7,887.3,412.9,3502.7,759.6,734.8,3475.9,3485.6,386.4,546.6,394.2,484.5,263.0,261.4,3472.2,3483.2,564.2,474.3,730.7,974.8,1235.5,479.8,-4.0,6.0,-3.0,10072.0,11110.0,5725.0,3286.0,4.0,-8.0,0.0,-5.0,6.0,0.0,11643.0,11432.0,1372.0,-550.0,2.0,1.0,-2.0,1.0
2022-05-08 18:26:49.197345-07:00,806.0,889.0,1393.0,945.8,732.3,473.5,1425.9,857.0,3467.4,3467.4,689.7,886.5,412.9,3502.7,759.6,734.8,3475.9,3485.6,386.4,546.6,396.5,487.7,256.1,260.7,3472.2,3483.2,564.2,474.3,743.0,972.2,1226.6,480.6,-4.0,-1.0,-6.0,10071.0,11109.0,5725.0,3287.0,-8.0,8.0,5.0,-4.0,1.0,-1.0,11643.0,11432.0,1372.0,-550.0,-1.0,-8.0,0.0,1.0
2022-05-08 18:26:49.227243-07:00,806.0,889.0,1393.0,945.8,733.2,483.0,1418.6,853.7,3467.4,3467.4,689.7,886.5,411.4,3494.1,760.4,738.1,3480.7,3478.3,383.3,547.4,396.5,487.7,256.1,260.7,3469.8,3481.9,556.2,467.1,743.0,972.2,1226.6,480.6,0.0,8.0,-4.0,10072.0,11110.0,5724.0,3285.0,-6.0,-11.0,-9.0,-3.0,0.0,-5.0,11643.0,11432.0,1372.0,-550.0,-2.0,0.0,-2.0,1.0
2022-05-08 18:26:49.287140-07:00,804.4,893.2,1411.3,943.2,733.2,483.0,1418.6,853.7,3480.7,3472.2,689.7,888.2,411.4,3494.1,760.4,738.1,3480.7,3478.3,383.3,547.4,395.0,486.9,260.7,263.0,3469.8,3481.9,556.2,467.1,730.7,967.9,1231.9,483.0,-6.0,2.0,-5.0,10073.0,11110.0,5723.0,3285.0,-5.0,-5.0,6.0,-4.0,2.0,0.0,11643.0,11432.0,1372.0,-550.0,-5.0,-3.0,3.0,1.0
2022-05-08 18:26:49.347594-07:00,804.4,893.2,1411.3,943.2,726.6,482.2,1432.3,857.9,3480.7,3472.2,689.7,888.2,412.9,3497.8,762.0,739.7,3489.2,3488.0,385.6,546.6,395.0,486.9,260.7,263.0,3486.8,3477.1,562.6,472.7,730.7,967.9,1231.9,483.0,-4.0,5.0,-3.0,10073.0,11110.0,5723.0,3284.0,-2.0,-9.0,-5.0,-4.0,3.0,1.0,11643.0,11432.0,1372.0,-550.0,0.0,-5.0,-4.0,1.0
2022-05-08 18:26:49.406888-07:00,808.5,896.6,1394.8,943.2,726.6,482.2,1432.3,859.5,3473.4,3474.6,686.4,885.6,412.9,3497.8,762.0,740.6,3483.2,3488.0,385.6,546.6,391.8,479.8,263.0,263.0,3488.0,3477.1,562.6,472.7,731.5,976.5,1234.6,483.0,-10.0,-1.0,-4.0,10073.0,11110.0,5723.0,3284.0,5.0,4.0,1.0,-5.0,0.0,-8.0,11643.0,11432.0,1372.0,-550.0,7.0,3.0,-2.0,1.0
2022-05-08 18:26:49.466910-07:00,808.5,896.6,1394.8,943.2,732.3,479.8,1419.5,859.5,3477.1,3474.6,686.4,885.6,407.5,3507.5,757.1,740.6,3483.2,3478.3,391.1,544.2,391.8,479.8,263.0,260.7,3488.0,3467.4,561.8,468.7,731.5,976.5,1234.6,480.6,0.0,3.0,-2.0,10073.0,11111.0,5722.0,3283.0,-8.0,-11.0,-1.0,0.0,2.0,0.0,11643.0,11432.0,1372.0,-550.0,-4.0,2.0,-4.0,1.0
2022-05-08 18:26:49.616950-07:00,808.5,896.6,1389.4,947.5,732.3,479.8,1419.5,859.5,3477.1,3471.0,684.0,889.0,407.5,3507.5,757.1,738.9,3488.0,3478.3,391.1,544.2,397.3,486.1,263.0,260.7,3478.3,3467.4,561.8,468.7,727.4,973.9,1231.0,480.6,-8.0,2.0,-3.0,10074.0,11111.0,5721.0,3283.0,3.0,1.0,-1.0,-8.0,0.0,2.0,11643.0,11432.0,1372.0,-550.0,5.0,-1.0,0.0,1.0
2022-05-08 18:26:49.618211-07:00,810.2,896.6,1389.4,947.5,742.2,479.0,1443.3,859.5,3472.2,3471.0,684.0,889.0,409.0,3502.7,757.9,738.9,3488.0,3479.5,389.5,548.2,397.3,486.1,263.0,260.7,3478.3,3471.0,564.2,467.9,727.4,973.9,1231.0,481.4,-3.0,4.0,0.0,10074.0,11111.0,5721.0,3283.0,7.0,4.0,-3.0,-5.0,0.0,-1.0,11643.0,11432.0,1372.0,-550.0,7.0,1.0,-4.0,1.0
2022-05-08 18:26:49.618906-07:00,810.2,896.6,1396.7,955.1,742.2,479.0,1443.3,853.7,3472.2,3475.9,690.5,888.2,409.0,3502.7,757.9,735.6,3480.7,3479.5,389.5,548.2,394.2,486.9,256.1,260.7,3479.5,3471.0,564.2,467.9,739.7,973.9,1231.0,481.4,-3.0,-1.0,-6.0,10074.0,11111.0,5721.0,3283.0,3.0,-1.0,5.0,-2.0,-1.0,0.0,11643.0,11432.0,1372.0,-550.0,6.0,-3.0,0.0,1.0
2022-05-08 18:26:49.676887-07:00,805.2,896.6,1396.7,955.1,724.9,481.4,1418.6,853.7,3478.3,3475.9,690.5,888.2,408.2,3491.7,757.1,735.6,3480.7,3467.4,387.2,545.8,394.2,486.9,256.1,262.2,3479.5,3484.4,563.4,468.7,739.7,973.9,1231.0,475.8,-1.0,3.0,-4.0,10074.0,11111.0,5721.0,3283.0,-2.0,-3.0,-4.0,-5.0,0.0,-1.0,11643.0,11432.0,1372.0,-550.0,3.0,1.0,0.0,1.0
2022-05-08 18:26:49.678135-07:00,805.2,898.3,1397.6,938.1,724.9,481.4,1429.5,860.4,3478.3,3477.1,692.9,892.4,408.2,3491.7,758.7,737.3,3481.9,3486.8,387.2,545.8,398.9,483.0,259.2,262.2,3480.7,3478.3,563.4,468.7,734.0,969.6,1228.4,475.8,-1.0,1.0,-1.0,10074.0,11111.0,5721.0,3282.0,-1.0,6.0,-2.0,-4.0,2.0,-4.0,11643.0,11432.0,1372.0,-550.0,2.0,-2.0,-3.0,1.0
2022-05-08 18:26:49.737413-07:00,803.5,893.2,1397.6,938.1,728.2,486.1,1429.5,860.4,3472.2,3478.3,692.9,892.4,410.6,3486.8,758.7,737.3,3481.9,3486.8,387.9,541.8,398.9,483.0,266.0,260.7,3480.7,3478.3,565.0,473.5,734.0,969.6,1234.6,480.6,-2.0,7.0,-4.0,10074.0,11111.0,5721.0,3282.0,-5.0,3.0,0.0,-2.0,5.0,-2.0,11643.0,11432.0,1372.0,-550.0,-4.0,4.0,3.0,1.0
2022-05-08 18:26:49.857060-07:00,803.5,893.2,1390.3,946.6,728.2,486.1,1428.6,857.9,3472.2,3478.3,685.6,890.7,410.6,3486.8,754.6,744.7,3472.2,3490.5,387.9,541.8,388.7,490.1,266.0,260.7,3478.3,3488.0,565.0,473.5,732.3,974.8,1234.6,480.6,-4.0,2.0,-6.0,10074.0,11111.0,5721.0,3282.0,-4.0,-3.0,7.0,-6.0,0.0,-1.0,11643.0,11432.0,1372.0,-550.0,-3.0,3.0,8.0,1.0
2022-05-08 18:26:49.858685-07:00,802.7,894.1,1390.3,946.6,732.3,479.8,1428.6,857.9,3471.0,3468.6,685.6,890.7,409.0,3497.8,754.6,744.7,3472.2,3490.5,388.7,543.4,388.7,490.1,261.4,261.4,3478.3,3488.0,566.6,467.1,732.3,974.8,1232.8,484.5,-1.0,0.0,-9.0,10074.0,11111.0,5721.0,3282.0,3.0,-5.0,3.0,-3.0,-1.0,-3.0,11643.0,11432.0,1372.0,-550.0,-9.0,-5.0,0.0,1.0
2022-05-08 18:26:49.947054-07:00,802.7,894.1,1393.0,939.0,732.3,479.8,1422.2,857.0,3471.0,3468.6,693.8,891.5,409.0,3497.8,754.6,738.1,3484.4,3475.9,388.7,543.4,395.0,484.5,261.4,261.4,3480.7,3483.2,566.6,467.1,729.0,971.3,1232.8,484.5,-2.0,-1.0,-6.0,10075.0,11111.0,5720.0,3281.0,4.0,-6.0,5.0,-5.0,-1.0,-5.0,11643.0,11432.0,1372.0,-550.0,2.0,-6.0,3.0,1.0
2022-05-08 18:26:49.949000-07:00,811.9,890.7,1393.0,939.0,741.4,479.8,1422.2,857.0,3469.8,3474.6,693.8,891.5,406.7,3497.8,754.6,738.1,3484.4,3475.9,386.4,546.6,395.0,484.5,261.4,262.2,3480.7,3483.2,566.6,467.1,729.0,971.3,1232.8,479.8,-3.0,1.0,-3.0,10076.0,11111.0,5718.0,3279.0,-2.0,-3.0,-1.0,-1.0,-1.0,-2.0,11643.0,11432.0,1372.0,-550.0,-7.0,-6.0,3.0,1.0
2022-05-08 18:26:49.976367-07:00,811.9,890.7,1398.5,941.5,741.4,479.8,1423.1,860.4,3469.8,3474.6,689.7,888.2,406.7,3507.5,753.8,733.2,3477.1,3475.9,385.6,546.6,395.0,488.5,261.4,262.2,3481.9,3489.2,562.6,467.1,731.5,975.6,1232.8,479.8,0.0,3.0,-5.0,10076.0,11111.0,5717.0,3279.0,1.0,-5.0,-1.0,-4.0,1.0,0.0,11643.0,11432.0,1372.0,-550.0,-4.0,-5.0,2.0,1.0
2022-05-08 18:26:50.037364-07:00,806.9,896.6,1395.7,941.5,733.2,479.8,1423.1,860.4,3472.2,3473.4,688.0,888.2,410.6,3507.5,753.8,733.2,3477.1,3475.9,385.6,545.8,395.0,487.7,263.0,260.7,3481.9,3489.2,562.6,467.9,731.5,971.3,1226.6,479.0,-2.0,-2.0,-6.0,10077.0,11112.0,5717.0,3278.0,2.0,-11.0,0.0,-5.0,-2.0,-3.0,11643.0,11432.0,1372.0,-550.0,-1.0,-5.0,2.0,1.0
2022-05-08 18:26:50.096397-07:00,806.9,896.6,1395.7,939.0,733.2,473.5,1428.6,862.1,3472.2,3473.4,688.0,884.8,410.6,3502.7,757.9,735.6,3477.1,3477.1,385.6,545.8,393.4,487.7,263.0,260.7,3488.0,3472.2,567.4,467.9,726.6,971.3,1226.6,479.0,-1.0,4.0,-4.0,10077.0,11112.0,5716.0,3277.0,-2.0,-10.0,-4.0,-1.0,0.0,-4.0,11643.0,11432.0,1372.0,-550.0,-1.0,-1.0,-1.0,1.0
2022-05-08 18:26:50.126724-07:00,806.0,891.5,1393.0,939.0,733.2,473.5,1428.6,862.1,3477.1,3478.3,688.9,884.8,412.9,3502.7,757.9,735.6,3477.1,3477.1,385.6,542.6,393.4,490.9,259.9,265.3,3488.0,3472.2,567.4,471.1,726.6,977.3,1231.9,488.5,-5.0,0.0,-2.0,10077.0,11112.0,5716.0,3277.0,5.0,0.0,4.0,-2.0,2.0,2.0,11643.0,11432.0,1372.0,-550.0,2.0,1.0,3.0,1.0
2022-05-08 18:26:50.186840-07:00,806.0,891.5,1393.0,943.2,733.2,480.6,1424.1,852.8,3477.1,3478.3,688.9,884.8,412.9,3494.1,754.6,739.7,3474.6,3492.9,387.9,542.6,394.2,490.9,259.9,265.3,3480.7,3478.3,562.6,471.1,728.2,977.3,1231.9,488.5,-1.0,-1.0,-8.0,10077.0,11112.0,5716.0,3277.0,3.0,-1.0,-7.0,-4.0,0.0,0.0,11643.0,11432.0,1372.0,-550.0,1.0,1.0,0.0,1.0
2022-05-08 18:26:50.247095-07:00,811.9,893.2,1391.2,943.2,734.0,480.6,1424.1,852.8,3467.4,3472.2,687.2,884.8,409.8,3494.1,754.6,739.7,3474.6,3492.9,387.9,546.6,394.2,483.0,260.7,261.4,3480.7,3478.3,562.6,467.1,728.2,972.2,1223.9,479.8,-4.0,7.0,-5.0,10077.0,11112.0,5716.0,3277.0,-4.0,-4.0,9.0,-5.0,4.0,0.0,11643.0,11432.0,1372.0,-550.0,-4.0,-4.0,3.0,1.0
2022-05-08 18:26:50.276454-07:00,811.9,893.2,1391.2,942.4,744.7,476.6,1419.5,859.5,3467.4,3472.2,687.2,888.2,407.5,3499.0,757.1,729.9,3483.2,3477.1,387.9,544.2,395.7,483.0,260.7,261.4,3484.4,3480.7,562.6,468.7,727.4,972.2,1223.9,479.8,-5.0,2.0,-7.0,10077.0,11112.0,5716.0,3277.0,0.0,1.0,-3.0,-4.0,3.0,0.0,11643.0,11432.0,1372.0,-550.0,-3.0,3.0,-1.0,1.0
2022-05-08 18:26:50.367721-07:00,808.5,899.1,1393.0,946.6,744.7,476.6,1419.5,859.5,3477.1,3479.5,703.6,890.7,407.5,3499.0,757.1,729.9,3483.2,3477.1,387.9,544.2,392.6,490.1,261.4,263.0,3484.4,3480.7,562.6,468.7,727.4,973.9,1231.9,483.0,0.0,1.0,-6.0,10078.0,11112.0,5715.0,3276.0,-5.0,-14.0,3.0,-3.0,1.0,-3.0,11643.0,11432.0,1372.0,-550.0,-3.0,-4.0,4.0,1.0
2022-05-08 18:26:50.369141-07:00,808.5,899.1,1393.0,946.6,729.0,473.5,1421.3,857.0,3477.1,3479.5,703.6,890.7,410.6,3496.6,744.7,736.5,3485.6,3480.7,389.5,545.0,392.6,490.1,261.4,263.0,3483.2,3479.5,566.6,468.7,727.4,973.9,1231.9,483.0,-8.0,7.0,-3.0,10079.0,11112.0,5714.0,3275.0,1.0,0.0,5.0,-8.0,2.0,3.0,11643.0,11432.0,1372.0,-550.0,-2.0,2.0,1.0,1.0
2022-05-08 18:26:50.457185-07:00,808.5,894.1,1391.2,940.7,729.0,473.5,1421.3,857.0,3471.0,3478.3,688.9,889.8,410.6,3496.6,744.7,736.5,3485.6,3480.7,389.5,545.0,395.7,486.1,263.0,259.2,3483.2,3479.5,566.6,468.7,730.7,973.9,1230.2,479.0,0.0,-1.0,-4.0,10080.0,11111.0,5713.0,3276.0,-6.0,-1.0,-4.0,-1.0,0.0,0.0,11643.0,11432.0,1372.0,-550.0,-7.0,7.0,-1.0,1.0
2022-05-08 18:26:50.486811-07:00,808.5,894.1,1391.2,940.7,727.4,473.5,1426.8,862.1,3471.0,3478.3,688.9,889.8,412.1,3501.4,754.6,740.6,3477.1,3475.9,382.5,542.6,395.7,486.1,263.0,259.2,3483.2,3480.7,562.6,467.1,730.7,973.9,1230.2,479.0,-4.0,6.0,-6.0,10079.0,11111.0,5714.0,3276.0,-4.0,-1.0,-4.0,-2.0,4.0,1.0,11643.0,11432.0,1372.0,-550.0,1.0,9.0,-1.0,1.0
2022-05-08 18:26:50.546434-07:00,818.5,892.4,1397.6,943.2,727.4,473.5,1426.8,874.7,3469.8,3471.0,692.9,892.4,412.1,3501.4,754.6,743.0,3488.0,3475.9,382.5,542.6,398.9,483.7,259.9,264.5,3481.9,3480.7,562.6,467.1,729.9,971.3,1228.4,479.0,-6.0,-3.0,-6.0,10078.0,11111.0,5716.0,3278.0,-1.0,15.0,-1.0,-3.0,-3.0,0.0,11643.0,11432.0,1372.0,-550.0,-3.0,10.0,-3.0,1.0
2022-05-08 18:26:50.576328-07:00,809.4,892.4,1397.6,943.2,730.7,479.8,1425.0,874.7,3478.3,3471.0,692.9,892.4,411.4,3500.2,762.0,743.0,3488.0,3484.4,387.9,543.4,398.9,483.7,259.9,260.7,3481.9,3483.2,565.0,466.4,729.9,971.3,1228.4,481.4,-4.0,5.0,-9.0,10078.0,11110.0,5716.0,3279.0,-3.0,5.0,-2.0,-5.0,0.0,-2.0,11643.0,11432.0,1373.0,-549.0,0.0,6.0,-1.0,1.0
2022-05-08 18:26:50.636556-07:00,809.4,893.2,1393.9,942.4,730.7,479.8,1425.0,857.9,3478.3,3475.9,692.1,887.3,411.4,3500.2,762.0,735.6,3480.7,3484.4,387.9,543.4,392.6,488.5,262.2,260.7,3472.2,3483.2,565.0,466.4,732.3,979.0,1232.8,481.4,-3.0,0.0,-5.0,10078.0,11110.0,5717.0,3278.0,-4.0,-8.0,-7.0,-1.0,-2.0,-2.0,11643.0,11432.0,1373.0,-549.0,-6.0,2.0,-3.0,1.0
2022-05-08 18:26:50.667201-07:00,806.0,893.2,1393.9,942.4,728.2,479.0,1414.9,857.9,3478.3,3475.9,692.1,887.3,409.8,3496.6,754.6,735.6,3480.7,3475.9,385.6,545.0,392.6,488.5,262.2,259.2,3472.2,3468.6,558.6,469.5,732.3,979.0,1232.8,481.4,-3.0,6.0,-1.0,10079.0,11110.0,5716.0,3279.0,1.0,-2.0,6.0,-6.0,5.0,-2.0,11643.0,11432.0,1373.0,-549.0,1.0,3.0,3.0,1.0
2022-05-08 18:26:50.756607-07:00,806.0,892.4,1401.2,956.0,728.2,479.0,1414.9,860.4,3478.3,3471.0,688.9,884.8,409.8,3496.6,754.6,734.0,3467.4,3475.9,385.6,545.0,395.7,487.7,263.0,259.2,3477.1,3468.6,558.6,469.5,733.2,971.3,1227.5,481.4,-4.0,-3.0,-4.0,10079.0,11109.0,5717.0,3279.0,-4.0,5.0,-2.0,-3.0,-3.0,-2.0,11643.0,11432.0,1373.0,-548.0,-1.0,7.0,-3.0,1.0
2022-05-08 18:26:50.786765-07:00,804.4,892.4,1401.2,956.0,727.4,479.8,1429.5,860.4,3475.9,3471.0,688.9,884.8,404.3,3494.1,762.0,734.0,3467.4,3478.3,387.2,543.4,395.7,487.7,263.0,261.4,3477.1,3477.1,562.6,472.7,733.2,971.3,1227.5,478.2,-3.0,5.0,-8.0,10079.0,11109.0,5717.0,3279.0,-6.0,-6.0,4.0,-3.0,0.0,0.0,11643.0,11432.0,1373.0,-548.0,-4.0,0.0,3.0,1.0
2022-05-08 18:26:50.876476-07:00,804.4,895.7,1392.1,941.5,727.4,479.8,1422.2,858.7,3475.9,3474.6,690.5,884.8,404.3,3494.1,757.9,736.5,3479.5,3480.7,387.2,543.4,391.8,484.5,262.2,261.4,3480.7,3488.0,562.6,472.7,732.3,975.6,1229.3,478.2,-4.0,6.0,-5.0,10079.0,11109.0,5717.0,3279.0,-3.0,-6.0,-8.0,-4.0,4.0,0.0,11643.0,11432.0,1373.0,-548.0,-6.0,5.0,-4.0,1.0
2022-05-08 18:26:50.878045-07:00,804.4,892.4,1392.1,941.5,724.9,479.8,1422.2,858.7,3472.2,3483.2,690.5,884.8,411.4,3496.6,757.9,736.5,3479.5,3480.7,388.7,545.8,391.8,484.5,263.7,264.5,3480.7,3488.0,561.0,469.5,732.3,975.6,1231.0,483.7,-3.0,1.0,-3.0,10080.0,11110.0,5716.0,3277.0,2.0,6.0,3.0,-3.0,2.0,2.0,11643.0,11432.0,1373.0,-548.0,-2.0,4.0,-1.0,1.0
2022-05-08 18:26:50.967773-07:00,804.4,892.4,1389.4,946.6,724.9,479.8,1423.1,859.5,3472.2,3483.2,691.3,884.8,411.4,3496.6,753.8,738.9,3486.8,3477.1,388.7,545.8,398.9,486.9,263.7,264.5,3477.1,3477.1,561.0,469.5,729.9,966.2,1231.0,483.7,-3.0,0.0,1.0,10080.0,11110.0,5716.0,3277.0,2.0,-2.0,-6.0,-3.0,1.0,0.0,11643.0,11432.0,1374.0,-548.0,-1.0,9.0,-2.0,1.0
2022-05-08 18:26:50.969231-07:00,808.5,891.5,1389.4,946.6,734.8,481.4,1423.1,859.5,3471.0,3475.9,691.3,884.8,412.1,3497.8,753.8,738.9,3486.8,3477.1,393.4,549.0,398.9,486.9,262.2,260.7,3477.1,3477.1,565.8,471.9,729.9,966.2,1221.3,473.5,-4.0,-4.0,-7.0,10079.0,11109.0,5717.0,3279.0,-3.0,10.0,1.0,-6.0,0.0,-3.0,11643.0,11432.0,1374.0,-548.0,-5.0,3.0,1.0,1.0
2022-05-08 18:26:51.057284-07:00,808.5,891.5,1395.7,943.2,734.8,481.4,1421.3,862.9,3471.0,3475.9,689.7,889.8,412.1,3497.8,762.9,734.0,3479.5,3488.0,393.4,549.0,398.9,480.6,262.2,260.7,3478.3,3484.4,565.8,471.9,733.2,973.9,1221.3,473.5,-2.0,2.0,-8.0,10079.0,11110.0,5716.0,3278.0,-7.0,-16.0,-6.0,-3.0,5.0,-1.0,11643.0,11432.0,1374.0,-548.0,-7.0,6.0,-1.0,1.0
2022-05-08 18:26:51.086728-07:00,804.4,894.1,1395.7,943.2,730.7,479.8,1421.3,862.9,3474.6,3477.1,689.7,889.8,405.9,3500.2,762.9,734.0,3479.5,3488.0,391.1,545.0,398.9,480.6,262.2,263.7,3478.3,3484.4,562.6,471.1,733.2,973.9,1226.6,483.7,-6.0,6.0,-4.0,10080.0,11110.0,5715.0,3277.0,-3.0,0.0,4.0,-2.0,4.0,6.0,11643.0,11432.0,1374.0,-548.0,-7.0,-4.0,2.0,1.0
2022-05-08 18:26:51.146787-07:00,804.4,894.1,1388.5,942.4,730.7,479.8,1427.7,857.9,3474.6,3477.1,700.3,890.7,405.9,3501.4,757.9,737.3,3481.9,3479.5,389.5,545.0,391.8,484.5,262.2,263.7,3477.1,3483.2,561.0,471.1,729.9,977.3,1226.6,483.7,-3.0,0.0,-2.0,10081.0,11109.0,5714.0,3277.0,4.0,5.0,1.0,-6.0,1.0,0.0,11643.0,11431.0,1374.0,-548.0,6.0,1.0,-1.0,1.0
2022-05-08 18:26:51.176373-07:00,809.4,899.1,1394.8,942.4,728.2,479.8,1427.7,857.9,3483.2,3477.1,692.1,890.7,412.9,3501.4,757.9,737.3,3481.9,3479.5,389.5,549.0,391.8,486.9,262.2,259.2,3477.1,3483.2,561.0,468.7,729.9,973.1,1235.5,477.4,0.0,3.0,-5.0,10081.0,11109.0,5714.0,3277.0,0.0,1.0,-1.0,-2.0,3.0,0.0,11643.0,11431.0,1374.0,-548.0,1.0,-2.0,-1.0,1.0
2022-05-08 18:26:51.236716-07:00,809.4,899.1,1394.8,951.7,728.2,480.6,1425.0,857.9,3483.2,3477.1,692.1,886.5,412.9,3510.0,757.9,736.5,3481.9,3479.5,387.9,549.0,393.4,486.9,262.2,259.2,3479.5,3479.5,562.6,468.7,734.0,973.1,1235.5,477.4,-9.0,2.0,-8.0,10081.0,11109.0,5714.0,3277.0,-6.0,-4.0,3.0,-8.0,3.0,2.0,11643.0,11431.0,1374.0,-548.0,0.0,2.0,2.0,1.0
2022-05-08 18:26:51.267352-07:00,811.0,894.1,1389.4,951.7,732.3,480.6,1425.0,857.9,3473.4,3475.9,686.4,886.5,412.1,3510.0,757.9,736.5,3481.9,3479.5,387.9,549.0,393.4,486.1,260.7,264.5,3479.5,3479.5,562.6,471.9,734.0,971.3,1221.3,479.0,0.0,5.0,-8.0,10081.0,11109.0,5714.0,3277.0,-3.0,3.0,-4.0,-6.0,4.0,-2.0,11643.0,11431.0,1374.0,-548.0,-1.0,-4.0,-2.0,1.0
2022-05-08 18:26:51.356639-07:00,811.0,894.1,1389.4,943.2,732.3,477.4,1432.3,860.4,3473.4,3475.9,686.4,889.8,412.1,3500.2,754.6,737.3,3475.9,3483.2,389.5,549.0,396.5,486.1,260.7,264.5,3481.9,3479.5,564.2,471.9,734.8,971.3,1221.3,479.0,0.0,2.0,-4.0,10083.0,11108.0,5713.0,3276.0,5.0,-3.0,5.0,-2.0,1.0,-3.0,11643.0,11431.0,1374.0,-548.0,4.0,-3.0,2.0,1.0
2022-05-08 18:26:51.386785-07:00,806.0,889.8,1395.7,943.2,743.0,477.4,1432.3,860.4,3474.6,3479.5,692.1,889.8,408.2,3500.2,754.6,737.3,3475.9,3483.2,389.5,551.4,396.5,484.5,263.0,259.9,3481.9,3479.5,564.2,465.6,734.8,973.9,1230.2,479.0,-4.0,-4.0,-3.0,10084.0,11108.0,5713.0,3277.0,4.0,-5.0,-1.0,-6.0,0.0,-3.0,11643.0,11431.0,1374.0,-548.0,5.0,-3.0,1.0,1.0
2022-05-08 18:26:51.476459-07:00,806.0,889.8,1395.7,943.2,733.2,482.2,1418.6,857.9,3474.6,3479.5,692.1,889.8,409.8,3499.0,760.4,732.3,3480.7,3477.1,387.9,545.8,393.4,484.5,263.0,259.9,3478.3,3478.3,566.6,468.7,728.2,973.9,1230.2,479.0,-3.0,0.0,-5.0,10084.0,11108.0,5713.0,3277.0,-6.0,-2.0,0.0,-4.0,0.0,-2.0,11643.0,11431.0,1374.0,-548.0,-2.0,-5.0,-1.0,1.0
2022-05-08 18:26:51.477588-07:00,809.4,891.5,1393.9,943.2,733.2,482.2,1418.6,857.9,3480.7,3477.1,682.3,886.5,409.8,3499.0,760.4,732.3,3480.7,3477.1,387.9,545.8,390.3,484.5,256.1,258.4,3478.3,3478.3,566.6,468.7,728.2,970.5,1228.4,480.6,-3.0,4.0,-4.0,10084.0,11108.0,5713.0,3277.0,-5.0,-3.0,-3.0,-4.0,3.0,0.0,11643.0,11431.0,1374.0,-548.0,-3.0,-4.0,-1.0,1.0
2022-05-08 18:26:51.597021-07:00,809.4,891.5,1393.9,943.2,732.3,475.8,1419.5,856.2,3480.7,3477.1,682.3,886.5,410.6,3492.9,765.3,738.9,3474.6,3478.3,385.6,543.4,390.3,484.5,256.1,258.4,3478.3,3480.7,565.0,466.4,728.2,970.5,1228.4,480.6,-5.0,3.0,-6.0,10084.0,11107.0,5713.0,3277.0,8.0,-4.0,3.0,-6.0,1.0,0.0,11643.0,11431.0,1374.0,-548.0,4.0,4.0,1.0,1.0
2022-05-08 18:26:51.598255-07:00,802.7,894.9,1392.1,944.1,732.3,475.8,1419.5,856.2,3478.3,3472.2,692.9,892.4,410.6,3492.9,765.3,738.9,3474.6,3478.3,385.6,543.4,394.2,486.9,258.4,254.6,3478.3,3480.7,565.0,466.4,731.5,973.1,1231.0,476.6,-5.0,1.0,-5.0,10084.0,11107.0,5713.0,3277.0,0.0,-6.0,0.0,-3.0,2.0,0.0,11643.0,11431.0,1374.0,-548.0,4.0,-2.0,-2.0,1.0
2022-05-08 18:26:51.656680-07:00,802.7,894.9,1392.1,944.1,729.0,478.2,1425.0,862.1,3478.3,3472.2,692.9,892.4,406.7,3497.8,755.4,738.1,3477.1,3488.0,382.5,550.6,394.2,486.9,258.4,254.6,3489.2,3479.5,575.4,470.3,731.5,973.1,1231.0,476.6,-5.0,2.0,-6.0,10085.0,11107.0,5712.0,3277.0,-10.0,-6.0,2.0,-4.0,-1.0,2.0,11643.0,11432.0,1374.0,-548.0,-6.0,-4.0,0.0,1.0
2022-05-08 18:26:51.686758-07:00,808.5,896.6,1390.3,946.6,729.0,478.2,1425.0,862.1,3479.5,3468.6,688.9,892.4,406.7,3497.8,755.4,738.1,3477.1,3488.0,382.5,550.6,394.2,486.1,263.7,263.0,3489.2,3479.5,575.4,470.3,728.2,973.1,1231.0,482.2,-2.0,1.0,-3.0,10086.0,11106.0,5712.0,3278.0,-10.0,4.0,-3.0,-3.0,-2.0,1.0,11643.0,11432.0,1374.0,-548.0,-5.0,0.0,1.0,1.0
2022-05-08 18:26:51.717341-07:00,810.2,896.6,1390.3,946.6,729.9,480.6,1421.3,860.4,3479.5,3468.6,688.9,892.4,410.6,3491.7,752.9,736.5,3478.3,3483.2,385.6,546.6,394.2,486.1,263.7,260.7,3479.5,3477.1,565.8,472.7,728.2,973.1,1231.0,476.6,-3.0,7.0,-6.0,10087.0,11105.0,5712.0,3278.0,3.0,3.0,5.0,-4.0,3.0,0.0,11643.0,11432.0,1374.0,-548.0,1.0,5.0,0.0,1.0
2022-05-08 18:26:51.776762-07:00,810.2,890.7,1392.1,937.3,729.9,480.6,1421.3,854.5,3479.5,3479.5,685.6,884.8,410.6,3491.7,752.9,736.5,3467.4,3483.2,385.6,546.6,393.4,486.9,260.7,260.7,3473.4,3477.1,565.8,472.7,721.6,971.3,1231.0,476.6,-2.0,-1.0,-7.0,10087.0,11105.0,5712.0,3278.0,1.0,2.0,2.0,-7.0,-2.0,-4.0,11643.0,11432.0,1374.0,-548.0,2.0,1.0,1.0,1.0
2022-05-08 18:26:51.867220-07:00,805.2,890.7,1392.1,937.3,729.9,478.2,1420.4,854.5,3474.6,3479.5,685.6,884.8,410.6,3505.1,759.6,736.5,3467.4,3485.6,388.7,544.2,393.4,486.9,260.7,263.0,3473.4,3477.1,570.6,467.1,721.6,971.3,1231.0,481.4,-3.0,5.0,-7.0,10087.0,11105.0,5712.0,3278.0,-3.0,-6.0,-5.0,-5.0,0.0,1.0,11643.0,11432.0,1374.0,-548.0,-2.0,2.0,-1.0,1.0
2022-05-08 18:26:51.868530-07:00,805.2,891.5,1393.0,942.4,729.9,478.2,1420.4,856.2,3474.6,3467.4,688.9,889.0,410.6,3505.1,759.6,731.5,3479.5,3485.6,388.7,544.2,392.6,484.5,263.0,263.0,3481.9,3477.1,570.6,467.1,730.7,975.6,1241.7,481.4,-2.0,0.0,-6.0,10087.0,11105.0,5711.0,3278.0,-5.0,-10.0,-1.0,-6.0,2.0,0.0,11643.0,11432.0,1374.0,-548.0,-1.0,4.0,0.0,1.0
2022-05-08 18:26:51.986806-07:00,808.5,891.5,1393.0,942.4,730.7,476.6,1427.7,856.2,3479.5,3467.4,688.9,889.0,406.7,3501.4,759.6,731.5,3479.5,3478.3,389.5,551.4,392.6,484.5,263.0,260.7,3481.9,3478.3,564.2,470.3,730.7,975.6,1241.7,477.4,-3.0,3.0,-8.0,10087.0,11105.0,5711.0,3277.0,4.0,-3.0,0.0,-1.0,2.0,1.0,11643.0,11432.0,1374.0,-548.0,4.0,0.0,2.0,1.0
2022-05-08 18:26:52.076488-07:00,808.5,891.5,1396.7,943.2,730.7,476.6,1427.7,865.4,3479.5,3475.9,686.4,885.6,406.7,3501.4,759.6,729.9,3481.9,3478.3,389.5,551.4,390.3,486.9,262.2,260.7,3483.2,3478.3,564.2,470.3,732.3,973.9,1229.3,477.4,-4.0,-2.0,-5.0,10087.0,11105.0,5711.0,3277.0,-6.0,4.0,-2.0,-5.0,-2.0,2.0,11643.0,11432.0,1374.0,-548.0,-7.0,-3.0,0.0,1.0
2022-05-08 18:26:52.077965-07:00,804.4,890.7,1396.7,943.2,726.6,478.2,1424.1,865.4,3472.2,3477.1,686.4,885.6,405.9,3500.2,753.8,729.9,3481.9,3485.6,388.7,545.8,390.3,486.9,259.9,256.1,3483.2,3475.9,564.2,470.3,732.3,973.9,1231.9,479.0,-6.0,5.0,-8.0,10087.0,11105.0,5711.0,3277.0,-3.0,2.0,0.0,-4.0,2.0,-2.0,11643.0,11432.0,1374.0,-548.0,-6.0,-2.0,2.0,1.0
2022-05-08 18:26:52.079067-07:00,804.4,890.7,1393.0,949.2,726.6,478.2,1418.6,856.2,3472.2,3477.1,692.1,889.8,405.9,3500.2,760.4,732.3,3477.1,3488.0,388.7,545.8,397.3,486.9,259.9,256.1,3472.2,3475.9,564.2,470.3,740.6,971.3,1231.9,479.0,-1.0,2.0,-7.0,10088.0,11106.0,5710.0,3276.0,-5.0,-10.0,0.0,-3.0,1.0,0.0,11643.0,11432.0,1374.0,-548.0,-6.0,-7.0,2.0,1.0
2022-05-08 18:26:52.166929-07:00,804.4,894.9,1393.0,949.2,730.7,480.6,1418.6,856.2,3477.1,3479.5,692.1,889.8,411.4,3499.0,760.4,732.3,3477.1,3488.0,385.6,543.4,397.3,486.9,264.5,260.7,3472.2,3475.9,559.4,467.1,740.6,971.3,1223.9,485.3,-6.0,2.0,-2.0,10089.0,11105.0,5709.0,3275.0,-2.0,-12.0,3.0,-5.0,0.0,1.0,11643.0,11432.0,1374.0,-548.0,-1.0,1.0,1.0,1.0
2022-05-08 18:26:52.168349-07:00,804.4,894.9,1397.6,944.9,730.7,480.6,1431.4,857.9,3477.1,3479.5,686.4,889.0,411.4,3499.0,754.6,737.3,3483.2,3478.3,385.6,543.4,396.5,486.1,264.5,260.7,3481.9,3478.3,559.4,467.1,728.2,973.1,1223.9,485.3,-1.0,2.0,-5.0,10089.0,11105.0,5709.0,3275.0,-4.0,9.0,-4.0,-2.0,0.0,-1.0,11643.0,11432.0,1374.0,-548.0,3.0,4.0,-2.0,1.0
2022-05-08 18:26:52.256637-07:00,805.2,890.7,1397.6,944.9,729.9,477.4,1431.4,857.9,3480.7,3480.7,686.4,889.0,407.5,3507.5,754.6,737.3,3483.2,3478.3,391.1,542.6,396.5,486.1,266.0,263.7,3481.9,3478.3,562.6,471.1,728.2,973.1,1218.6,488.5,-3.0,5.0,-3.0,10089.0,11106.0,5708.0,3275.0,-2.0,-11.0,-2.0,-3.0,2.0,1.0,11643.0,11432.0,1374.0,-548.0,2.0,7.0,-2.0,1.0
2022-05-08 18:26:52.316941-07:00,805.2,890.7,1393.9,944.1,729.9,479.8,1421.3,857.9,3480.7,3480.7,691.3,889.0,407.5,3499.0,757.1,742.2,3481.9,3488.0,389.5,542.6,393.4,484.5,266.0,263.7,3484.4,3484.4,562.6,471.1,724.9,977.3,1218.6,488.5,-5.0,2.0,-5.0,10090.0,11106.0,5708.0,3274.0,5.0,2.0,-2.0,-5.0,3.0,1.0,11643.0,11432.0,1374.0,-548.0,7.0,4.0,-3.0,1.0
2022-05-08 18:26:52.318349-07:00,812.7,897.4,1394.8,944.1,728.2,479.8,1421.3,857.9,3478.3,3474.6,687.2,889.0,411.4,3499.0,757.1,742.2,3481.9,3488.0,389.5,543.4,393.4,483.0,262.2,257.6,3484.4,3484.4,562.6,474.3,724.9,967.9,1225.7,470.3,-5.0,0.0,-7.0,10090.0,11106.0,5708.0,3274.0,2.0,4.0,-4.0,-7.0,0.0,-4.0,11642.0,11433.0,1374.0,-548.0,10.0,3.0,-5.0,1.0
2022-05-08 18:26:52.407341-07:00,812.7,897.4,1394.8,933.9,728.2,480.6,1414.0,858.7,3478.3,3474.6,687.2,891.5,411.4,3497.8,757.9,735.6,3478.3,3472.2,385.6,543.4,388.7,483.0,262.2,257.6,3488.0,3481.9,556.2,474.3,724.9,967.9,1225.7,470.3,-5.0,5.0,-8.0,10090.0,11106.0,5708.0,3274.0,-7.0,-3.0,3.0,-5.0,-3.0,-2.0,11642.0,11433.0,1374.0,-548.0,-4.0,0.0,0.0,1.0
2022-05-08 18:26:52.466940-07:00,804.4,899.1,1392.1,933.9,733.2,480.6,1414.0,858.7,3468.6,3481.9,691.3,891.5,409.8,3497.8,757.9,735.6,3478.3,3472.2,385.6,547.4,388.7,488.5,260.7,263.0,3488.0,3481.9,556.2,474.3,724.9,974.8,1235.5,480.6,-4.0,-1.0,-4.0,10090.0,11106.0,5708.0,3274.0,-1.0,-4.0,-3.0,-6.0,-1.0,3.0,11642.0,11433.0,1374.0,-548.0,1.0,3.0,2.0,1.0
2022-05-08 18:26:52.468305-07:00,804.4,899.1,1392.1,944.1,733.2,482.2,1423.1,857.9,3468.6,3481.9,691.3,892.4,409.8,3500.2,758.7,738.9,3477.1,3479.5,391.1,547.4,394.2,488.5,260.7,263.0,3478.3,3485.6,565.0,474.3,730.7,974.8,1235.5,480.6,-6.0,10.0,-5.0,10090.0,11106.0,5708.0,3274.0,-4.0,1.0,4.0,0.0,1.0,4.0,11642.0,11433.0,1374.0,-548.0,1.0,2.0,-2.0,1.0
2022-05-08 18:26:52.526388-07:00,803.5,892.4,1389.4,944.1,730.7,482.2,1423.1,857.9,3484.4,3474.6,685.6,892.4,408.2,3500.2,758.7,738.9,3477.1,3479.5,391.1,546.6,394.2,486.9,263.0,259.9,3478.3,3485.6,565.0,473.5,730.7,971.3,1231.9,480.6,-5.0,1.0,-11.0,10090.0,11106.0,5708.0,3274.0,7.0,2.0,-2.0,-3.0,-5.0,0.0,11642.0,11433.0,1374.0,-548.0,3.0,5.0,0.0,1.0
2022-05-08 18:26:52.589006-07:00,803.5,892.4,1389.4,950.0,730.7,482.2,1421.3,853.7,3484.4,3474.6,685.6,888.2,407.5,3497.8,753.8,731.5,3481.9,3483.2,388.7,540.2,397.3,486.9,263.0,259.9,3477.1,3467.4,563.4,470.3,729.9,971.3,1231.9,480.6,-1.0,0.0,-7.0,10090.0,11106.0,5707.0,3274.0,-2.0,-10.0,-1.0,-3.0,2.0,-5.0,11642.0,11433.0,1374.0,-548.0,1.0,-3.0,-2.0,1.0
2022-05-08 18:26:52.647065-07:00,806.9,891.5,1397.6,939.0,730.7,482.2,1421.3,853.7,3473.4,3472.2,693.8,887.3,407.5,3497.8,753.8,731.5,3481.9,3483.2,388.7,540.2,391.8,484.5,264.5,264.5,3477.1,3467.4,563.4,470.3,732.3,974.8,1231.0,479.8,-2.0,2.0,-5.0,10091.0,11106.0,5706.0,3272.0,-3.0,-12.0,4.0,-4.0,3.0,0.0,11642.0,11433.0,1373.0,-549.0,1.0,-4.0,2.0,1.0
2022-05-08 18:26:52.706676-07:00,806.9,891.5,1397.6,939.0,728.2,478.2,1424.1,858.7,3473.4,3472.2,693.8,887.3,409.8,3499.0,759.6,731.5,3474.6,3477.1,391.1,549.0,391.8,484.5,264.5,264.5,3480.7,3479.5,566.6,472.7,732.3,974.8,1231.0,479.8,-6.0,1.0,-4.0,10091.0,11107.0,5705.0,3271.0,-1.0,-9.0,4.0,-3.0,0.0,2.0,11642.0,11433.0,1373.0,-549.0,-2.0,-7.0,3.0,1.0
2022-05-08 18:26:52.736881-07:00,810.2,892.4,1389.4,945.8,728.2,478.2,1424.1,858.7,3475.9,3471.0,692.1,895.7,409.8,3499.0,759.6,731.5,3474.6,3477.1,391.1,549.0,396.5,484.5,256.9,262.2,3480.7,3479.5,566.6,472.7,731.5,972.2,1235.5,480.6,-3.0,5.0,-5.0,10092.0,11107.0,5703.0,3269.0,1.0,-1.0,0.0,-5.0,1.0,0.0,11642.0,11433.0,1373.0,-549.0,2.0,-1.0,1.0,1.0
2022-05-08 18:26:52.796936-07:00,810.2,892.4,1389.4,945.8,734.8,473.5,1418.6,857.0,3475.9,3471.0,692.1,895.7,411.4,3507.5,756.3,735.6,3478.3,3474.6,384.8,546.6,396.5,484.5,256.9,262.2,3478.3,3479.5,557.8,469.5,731.5,972.2,1235.5,480.6,-3.0,0.0,-5.0,10092.0,11107.0,5703.0,3269.0,3.0,2.0,3.0,-4.0,0.0,-2.0,11642.0,11433.0,1373.0,-549.0,5.0,6.0,0.0,1.0
2022-05-08 18:26:52.856841-07:00,799.4,894.1,1397.6,941.5,734.8,473.5,1418.6,857.0,3472.2,3472.2,688.9,890.7,411.4,3507.5,756.3,735.6,3478.3,3474.6,384.8,546.6,391.8,486.1,261.4,259.9,3478.3,3479.5,557.8,469.5,733.2,969.6,1227.5,479.8,0.0,0.0,-8.0,10092.0,11107.0,5703.0,3269.0,-3.0,-9.0,2.0,-4.0,-1.0,-6.0,11642.0,11433.0,1373.0,-549.0,1.0,0.0,0.0,1.0
2022-05-08 18:26:52.886739-07:00,803.5,894.1,1397.6,941.5,735.6,483.0,1423.1,858.7,3473.4,3472.2,688.9,890.7,405.9,3501.4,759.6,735.6,3481.9,3472.2,385.6,545.8,391.8,486.1,261.4,265.3,3480.7,3481.9,563.4,471.9,733.2,969.6,1227.5,479.8,-2.0,5.0,-8.0,10093.0,11108.0,5701.0,3267.0,0.0,-18.0,2.0,-5.0,1.0,-1.0,11642.0,11433.0,1373.0,-549.0,-4.0,-3.0,-2.0,1.0
2022-05-08 18:26:52.917469-07:00,803.5,896.6,1394.8,953.4,735.6,483.0,1423.1,857.0,3473.4,3477.1,688.9,889.8,405.9,3501.4,759.6,738.1,3481.9,3472.2,385.6,545.8,395.7,488.5,264.5,265.3,3481.9,3481.9,563.4,471.9,730.7,973.9,1230.2,479.8,-3.0,-1.0,-7.0,10094.0,11108.0,5701.0,3267.0,-2.0,-4.0,4.0,-5.0,1.0,0.0,11642.0,11433.0,1373.0,-549.0,2.0,-8.0,2.0,1.0
2022-05-08 18:26:52.977457-07:00,810.2,896.6,1394.8,953.4,726.6,479.8,1429.5,857.0,3477.1,3477.1,688.9,889.8,404.3,3486.8,756.3,738.1,3481.9,3488.0,389.5,546.6,395.7,488.5,264.5,262.2,3481.9,3478.3,566.6,464.8,730.7,973.9,1230.2,478.2,-1.0,5.0,-5.0,10095.0,11109.0,5699.0,3265.0,-3.0,-13.0,2.0,0.0,0.0,0.0,11642.0,11433.0,1373.0,-549.0,2.0,-2.0,1.0,1.0
2022-05-08 18:26:53.126634-07:00,810.2,894.1,1396.7,943.2,726.6,479.8,1429.5,862.1,3477.1,3475.9,683.1,889.8,404.3,3486.8,756.3,735.6,3483.2,3488.0,389.5,546.6,388.7,484.5,263.0,262.2,3483.2,3478.3,566.6,464.8,728.2,972.2,1227.5,478.2,-6.0,0.0,-1.0,10095.0,11109.0,5699.0,3265.0,-1.0,8.0,3.0,-6.0,-2.0,7.0,11642.0,11433.0,1373.0,-549.0,1.0,5.0,2.0,1.0
2022-05-08 18:26:53.127918-07:00,806.0,894.1,1396.7,943.2,725.8,479.0,1420.4,862.1,3479.5,3475.9,683.1,889.8,407.5,3494.1,755.4,735.6,3483.2,3480.7,387.2,547.4,388.7,484.5,263.0,259.2,3483.2,3488.0,558.6,461.6,728.2,972.2,1227.5,479.8,1.0,5.0,-11.0,10095.0,11109.0,5699.0,3265.0,-5.0,-2.0,-4.0,1.0,0.0,-3.0,11642.0,11433.0,1373.0,-549.0,-3.0,2.0,0.0,1.0
2022-05-08 18:26:53.129035-07:00,806.0,896.6,1389.4,942.4,725.8,479.0,1420.4,858.7,3479.5,3464.9,688.9,888.2,407.5,3494.1,755.4,739.7,3477.1,3480.7,387.2,547.4,399.6,486.1,262.2,259.2,3477.1,3488.0,558.6,461.6,729.0,974.8,1222.2,479.8,-2.0,3.0,-11.0,10095.0,11109.0,5699.0,3265.0,-3.0,-9.0,4.0,-5.0,0.0,-3.0,11642.0,11433.0,1373.0,-549.0,-4.0,-5.0,1.0,1.0
2022-05-08 18:26:53.186859-07:00,807.7,890.7,1389.4,942.4,732.3,486.9,1413.1,858.7,3473.4,3481.9,688.9,888.2,402.8,3503.9,757.1,739.7,3477.1,3478.3,389.5,547.4,399.6,486.1,264.5,261.4,3477.1,3473.4,561.8,469.5,729.0,974.8,1229.3,479.0,-4.0,2.0,-6.0,10095.0,11109.0,5699.0,3265.0,0.0,-8.0,1.0,-4.0,0.0,1.0,11642.0,11433.0,1373.0,-549.0,-3.0,-2.0,2.0,1.0
2022-05-08 18:26:53.216910-07:00,807.7,890.7,1399.4,939.8,732.3,486.9,1420.4,855.3,3473.4,3481.9,685.6,890.7,402.8,3503.9,767.0,737.3,3468.6,3477.1,389.5,547.4,396.5,486.1,264.5,261.4,3475.9,3477.1,561.8,469.5,732.3,978.2,1229.3,479.0,-3.0,4.0,-2.0,10095.0,11109.0,5699.0,3265.0,0.0,-6.0,-3.0,-3.0,0.0,1.0,11642.0,11433.0,1373.0,-549.0,3.0,2.0,-4.0,1.0
2022-05-08 18:26:53.306565-07:00,801.0,889.8,1399.4,939.8,729.9,483.7,1420.4,855.3,3478.3,3475.9,685.6,890.7,411.4,3502.7,767.0,737.3,3468.6,3477.1,385.6,548.2,396.5,486.1,261.4,263.0,3475.9,3477.1,564.2,471.1,732.3,978.2,1218.6,477.4,-2.0,0.0,-3.0,10095.0,11109.0,5699.0,3265.0,0.0,0.0,0.0,-3.0,0.0,0.0,11642.0,11433.0,1373.0,-549.0,2.0,3.0,-3.0,1.0
2022-05-08 18:26:53.308062-07:00,801.0,889.8,1395.7,940.7,729.9,483.7,1420.4,857.9,3478.3,3475.9,689.7,890.7,411.4,3502.7,757.1,735.6,3484.4,3483.2,385.6,548.2,396.5,486.1,261.4,263.0,3477.1,3485.6,564.2,471.1,731.5,975.6,1218.6,477.4,-4.0,5.0,-6.0,10095.0,11109.0,5699.0,3265.0,3.0,6.0,1.0,-4.0,5.0,-2.0,11642.0,11433.0,1373.0,-549.0,2.0,3.0,1.0,1.0
2022-05-08 18:26:53.426569-07:00,807.7,894.9,1395.7,940.7,729.9,480.6,1420.4,857.9,3474.6,3475.9,689.7,890.7,414.5,3496.6,757.1,735.6,3484.4,3483.2,385.6,547.4,396.5,486.1,266.0,260.7,3477.1,3485.6,561.0,469.5,731.5,975.6,1228.4,473.5,0.0,-1.0,-9.0,10095.0,11109.0,5699.0,3265.0,-2.0,-8.0,0.0,-4.0,1.0,-4.0,11642.0,11433.0,1373.0,-549.0,-1.0,5.0,-1.0,1.0
2022-05-08 18:26:53.427596-07:00,807.7,894.9,1391.2,944.1,729.9,480.6,1438.7,856.2,3474.6,3475.9,689.7,889.8,414.5,3496.6,756.3,734.8,3481.9,3483.2,385.6,547.4,391.1,484.5,266.0,260.7,3481.9,3481.9,561.0,469.5,724.9,973.9,1228.4,473.5,-3.0,1.0,-3.0,10095.0,11109.0,5699.0,3265.0,-2.0,-5.0,-6.0,-4.0,0.0,1.0,11642.0,11433.0,1373.0,-549.0,-2.0,1.0,-5.0,1.0
2022-05-08 18:26:53.457308-07:00,806.9,894.1,1392.1,944.1,726.6,480.6,1438.7,856.2,3479.5,3477.1,695.4,889.8,412.1,3502.7,756.3,734.8,3481.9,3483.2,383.3,547.4,391.1,486.9,260.7,266.0,3481.9,3481.9,561.8,466.4,724.9,973.1,1230.2,486.9,-2.0,5.0,-5.0,10095.0,11109.0,5699.0,3265.0,-4.0,6.0,1.0,-5.0,4.0,2.0,11642.0,11433.0,1373.0,-549.0,-5.0,2.0,-2.0,1.0
2022-05-08 18:26:53.517729-07:00,806.9,894.1,1392.1,947.5,726.6,481.4,1419.5,862.9,3479.5,3477.1,695.4,890.7,412.1,3500.2,754.6,738.1,3477.1,3480.7,384.0,547.4,391.8,486.9,260.7,266.0,3481.9,3486.8,565.8,466.4,730.7,973.1,1230.2,486.9,-2.0,0.0,-4.0,10094.0,11108.0,5699.0,3265.0,5.0,3.0,-3.0,-3.0,2.0,0.0,11642.0,11433.0,1375.0,-547.0,4.0,14.0,-3.0,1.0
2022-05-08 18:26:53.577322-07:00,808.5,895.7,1393.9,947.5,728.2,481.4,1419.5,862.9,3478.3,3479.5,685.6,890.7,412.9,3500.2,754.6,738.1,3477.1,3480.7,384.0,549.0,391.8,487.7,262.2,257.6,3481.9,3486.8,565.8,470.3,730.7,976.5,1233.7,480.6,-4.0,2.0,-10.0,10094.0,11108.0,5699.0,3265.0,-6.0,4.0,-1.0,-2.0,0.0,2.0,11641.0,11433.0,1376.0,-546.0,-2.0,6.0,-3.0,1.0
2022-05-08 18:26:53.607135-07:00,808.5,895.7,1393.9,939.8,728.2,479.8,1426.8,861.2,3478.3,3479.5,685.6,895.7,412.9,3501.4,757.9,733.2,3472.2,3472.2,389.5,549.0,391.8,487.7,262.2,257.6,3488.0,3480.7,561.0,470.3,732.3,976.5,1233.7,480.6,-4.0,-2.0,-10.0,10094.0,11108.0,5699.0,3265.0,-5.0,-4.0,-2.0,-5.0,0.0,-1.0,11641.0,11433.0,1377.0,-545.0,-2.0,2.0,0.0,1.0
2022-05-08 18:26:53.667450-07:00,806.0,886.5,1397.6,939.8,732.3,479.8,1426.8,861.2,3484.4,3475.9,685.6,895.7,407.5,3501.4,757.9,733.2,3472.2,3472.2,389.5,549.0,391.8,485.3,256.1,262.2,3488.0,3480.7,561.0,471.1,732.3,973.9,1229.3,483.0,0.0,6.0,-5.0,10094.0,11108.0,5699.0,3265.0,-8.0,-2.0,-5.0,-4.0,3.0,0.0,11641.0,11433.0,1377.0,-545.0,-7.0,-7.0,3.0,1.0
2022-05-08 18:26:53.756654-07:00,806.0,886.5,1397.6,939.0,732.3,487.7,1420.4,860.4,3484.4,3475.9,685.6,892.4,407.5,3507.5,753.8,732.3,3479.5,3474.6,388.7,549.0,395.7,485.3,256.1,262.2,3480.7,3472.2,560.2,471.1,724.9,973.9,1229.3,483.0,-3.0,0.0,-6.0,10095.0,11109.0,5699.0,3265.0,0.0,-7.0,3.0,-4.0,-1.0,3.0,11641.0,11433.0,1377.0,-545.0,2.0,-2.0,3.0,1.0
2022-05-08 18:26:53.758299-07:00,808.5,894.9,1385.7,954.3,728.2,487.7,1420.4,860.4,3478.3,3467.4,685.6,892.4,409.8,3507.5,753.8,732.3,3479.5,3474.6,388.7,544.2,393.4,483.7,263.0,255.3,3480.7,3472.2,560.2,471.9,718.4,973.1,1229.3,479.8,-3.0,1.0,-8.0,10095.0,11108.0,5699.0,3265.0,4.0,-1.0,-2.0,-4.0,0.0,-1.0,11641.0,11433.0,1377.0,-545.0,-5.0,-3.0,-1.0,1.0
2022-05-08 18:26:53.817595-07:00,808.5,894.9,1385.7,954.3,735.6,477.4,1418.6,863.7,3478.3,3467.4,685.6,892.4,409.8,3496.6,758.7,739.7,3481.9,3474.6,392.6,543.4,393.4,483.7,263.0,255.3,3486.8,3484.4,565.8,474.3,718.4,973.1,1229.3,479.8,0.0,2.0,-6.0,10097.0,11107.0,5697.0,3264.0,-9.0,-3.0,3.0,-3.0,0.0,0.0,11641.0,11433.0,1377.0,-545.0,-7.0,-7.0,4.0,1.0
2022-05-08 18:26:53.906527-07:00,801.0,893.2,1392.1,944.1,735.6,477.4,1418.6,863.7,3473.4,3467.4,683.1,886.5,409.8,3496.6,758.7,739.7,3481.9,3474.6,392.6,543.4,397.3,483.0,264.5,259.2,3486.8,3484.4,565.8,474.3,729.9,983.3,1224.8,475.0,-4.0,0.0,-5.0,10097.0,11107.0,5697.0,3264.0,-9.0,0.0,0.0,-5.0,2.0,1.0,11641.0,11433.0,1377.0,-545.0,-3.0,-4.0,1.0,1.0
2022-05-08 18:26:53.908091-07:00,801.0,893.2,1392.1,944.1,731.5,482.2,1422.2,862.1,3473.4,3467.4,683.1,886.5,407.5,3490.5,759.6,738.1,3488.0,3481.9,387.2,541.8,397.3,483.0,264.5,259.2,3481.9,3475.9,561.0,471.9,729.9,983.3,1224.8,475.0,-1.0,3.0,-2.0,10098.0,11107.0,5697.0,3265.0,3.0,-5.0,0.0,0.0,1.0,1.0,11641.0,11433.0,1377.0,-545.0,-1.0,-7.0,3.0,1.0
2022-05-08 18:26:53.967504-07:00,807.7,894.9,1396.7,935.6,731.5,482.2,1422.2,862.1,3479.5,3478.3,685.6,889.0,407.5,3490.5,759.6,738.1,3488.0,3481.9,387.2,541.8,394.2,481.4,259.9,260.7,3481.9,3475.9,561.0,471.9,729.9,973.1,1238.2,479.8,-2.0,-1.0,-3.0,10098.0,11107.0,5696.0,3264.0,-3.0,1.0,-1.0,-3.0,2.0,1.0,11641.0,11433.0,1377.0,-545.0,-3.0,-4.0,0.0,1.0
2022-05-08 18:26:54.026453-07:00,807.7,894.9,1396.7,935.6,726.6,480.6,1419.5,857.0,3479.5,3478.3,685.6,889.0,411.4,3494.1,757.1,734.8,3481.9,3483.2,385.6,545.8,394.2,481.4,259.9,260.7,3483.2,3477.1,563.4,471.9,729.9,973.1,1238.2,479.8,0.0,1.0,-5.0,10098.0,11107.0,5696.0,3264.0,-1.0,3.0,0.0,-3.0,-1.0,1.0,11641.0,11433.0,1377.0,-545.0,-4.0,0.0,3.0,1.0
2022-05-08 18:26:54.056940-07:00,808.5,900.8,1393.9,946.6,726.6,480.6,1419.5,860.4,3474.6,3478.3,687.2,891.5,411.4,3494.1,757.1,735.6,3485.6,3483.2,385.6,545.8,393.4,488.5,263.0,263.7,3488.0,3477.1,563.4,471.9,729.0,969.6,1225.7,482.2,-3.0,0.0,-8.0,10098.0,11107.0,5696.0,3264.0,-2.0,8.0,-6.0,-3.0,-2.0,-2.0,11641.0,11433.0,1377.0,-545.0,2.0,2.0,2.0,1.0
2022-05-08 18:26:54.236799-07:00,806.0,900.8,1393.9,946.6,730.7,479.0,1423.1,860.4,3477.1,3478.3,687.2,891.5,408.2,3494.1,761.2,735.6,3485.6,3484.4,387.2,545.8,393.4,488.5,263.0,257.6,3488.0,3479.5,563.4,471.1,729.0,969.6,1225.7,479.8,-2.0,0.0,-6.0,10098.0,11107.0,5696.0,3264.0,-4.0,-9.0,-2.0,-4.0,1.0,-2.0,11641.0,11433.0,1377.0,-545.0,1.0,-4.0,-1.0,1.0
2022-05-08 18:26:54.237949-07:00,806.0,894.1,1388.5,946.6,730.7,479.0,1423.1,860.4,3477.1,3478.3,687.2,887.3,408.2,3494.1,761.2,734.8,3479.5,3484.4,387.2,545.8,398.1,488.5,261.4,257.6,3478.3,3479.5,563.4,471.1,728.2,970.5,1225.7,479.8,-3.0,4.0,-4.0,10098.0,11107.0,5696.0,3264.0,3.0,-1.0,7.0,-7.0,2.0,3.0,11641.0,11433.0,1377.0,-545.0,4.0,-1.0,4.0,1.0
2022-05-08 18:26:54.238740-07:00,807.7,894.1,1388.5,946.6,729.0,478.2,1417.6,860.4,3478.3,3478.3,687.2,887.3,409.0,3494.1,757.9,734.8,3479.5,3478.3,388.7,550.6,398.1,488.5,261.4,259.9,3478.3,3481.9,561.8,470.3,728.2,970.5,1225.7,478.2,-2.0,0.0,-1.0,10098.0,11107.0,5696.0,3264.0,-3.0,5.0,-2.0,-2.0,1.0,2.0,11641.0,11433.0,1377.0,-545.0,1.0,3.0,-1.0,1.0
2022-05-08 18:26:54.296526-07:00,807.7,899.1,1393.0,946.6,729.0,478.2,1417.6,854.5,3478.3,3474.6,679.1,888.2,409.0,3494.1,757.9,735.6,3479.5,3478.3,388.7,550.6,390.3,486.9,262.2,259.9,3481.9,3481.9,561.8,470.3,737.3,973.9,1224.8,478.2,-1.0,0.0,-6.0,10098.0,11107.0,5696.0,3264.0,-1.0,-6.0,-3.0,-2.0,1.0,-1.0,11641.0,11433.0,1377.0,-545.0,2.0,5.0,0.0,1.0
2022-05-08 18:26:54.326441-07:00,807.7,894.9,1393.0,946.6,720.0,476.6,1425.0,854.5,3475.9,3472.2,679.1,888.2,409.0,3494.1,757.1,735.6,3479.5,3486.8,386.4,549.8,390.3,486.9,262.2,259.2,3481.9,3486.8,563.4,470.3,737.3,973.9,1227.5,483.7,-2.0,1.0,-6.0,10099.0,11107.0,5696.0,3263.0,-1.0,-12.0,2.0,-5.0,1.0,2.0,11641.0,11433.0,1377.0,-545.0,-2.0,-3.0,2.0,1.0
2022-05-08 18:26:54.357222-07:00,807.7,894.9,1394.8,937.3,720.0,476.6,1426.8,856.2,3475.9,3472.2,689.7,884.8,409.0,3494.1,761.2,730.7,3481.9,3474.6,386.4,549.8,393.4,484.5,262.2,259.2,3477.1,3478.3,563.4,470.3,729.0,975.6,1227.5,483.7,0.0,3.0,-6.0,10099.0,11107.0,5696.0,3263.0,-2.0,-4.0,-4.0,-4.0,0.0,0.0,11641.0,11433.0,1377.0,-545.0,3.0,-2.0,0.0,1.0
2022-05-08 18:26:54.417490-07:00,808.5,889.8,1394.8,937.3,729.0,477.4,1426.8,856.2,3468.6,3472.2,689.7,884.8,411.4,3499.0,761.2,730.7,3481.9,3474.6,386.4,545.8,393.4,484.5,263.7,259.2,3477.1,3478.3,563.4,466.4,729.0,975.6,1228.4,475.8,-5.0,0.0,-2.0,10099.0,11107.0,5696.0,3263.0,-7.0,-1.0,3.0,-3.0,-2.0,3.0,11641.0,11433.0,1377.0,-545.0,-5.0,-2.0,3.0,1.0
2022-05-08 18:26:54.476780-07:00,808.5,889.8,1397.6,944.1,729.0,477.4,1419.5,861.2,3468.6,3472.2,688.0,889.0,411.4,3499.0,751.3,737.3,3474.6,3478.3,386.4,545.8,393.4,482.2,263.7,259.2,3474.6,3474.6,563.4,466.4,729.0,970.5,1228.4,475.8,-1.0,3.0,-7.0,10099.0,11107.0,5696.0,3263.0,3.0,-3.0,-3.0,-4.0,0.0,0.0,11641.0,11433.0,1377.0,-545.0,6.0,1.0,0.0,1.0
2022-05-08 18:26:54.537416-07:00,803.5,892.4,1397.6,944.1,728.2,483.0,1419.5,861.2,3475.9,3471.0,688.0,889.0,415.3,3491.7,751.3,737.3,3474.6,3478.3,385.6,537.0,393.4,482.2,263.7,256.1,3474.6,3474.6,564.2,471.1,729.0,970.5,1230.2,476.6,-5.0,2.0,-5.0,10099.0,11107.0,5696.0,3263.0,-1.0,2.0,3.0,-4.0,0.0,4.0,11641.0,11433.0,1377.0,-545.0,4.0,0.0,3.0,1.0
2022-05-08 18:26:54.567111-07:00,803.5,892.4,1393.9,944.1,728.2,483.0,1420.4,858.7,3475.9,3471.0,688.9,891.5,415.3,3491.7,755.4,738.9,3479.5,3489.2,385.6,537.0,392.6,486.9,263.7,256.1,3480.7,3477.1,564.2,471.1,726.6,974.8,1230.2,476.6,-1.0,0.0,-3.0,10100.0,11107.0,5695.0,3263.0,3.0,-4.0,-2.0,-2.0,0.0,2.0,11641.0,11433.0,1377.0,-545.0,-3.0,-4.0,-2.0,1.0
2022-05-08 18:26:54.626431-07:00,806.0,891.5,1392.1,944.1,729.0,479.8,1420.4,858.7,3473.4,3473.4,692.9,891.5,410.6,3491.7,755.4,738.9,3479.5,3489.2,387.2,547.4,392.6,486.1,263.0,258.4,3480.7,3477.1,563.4,468.7,726.6,974.8,1226.6,478.2,-3.0,3.0,-5.0,10100.0,11107.0,5695.0,3263.0,-2.0,4.0,-2.0,-4.0,7.0,-1.0,11641.0,11433.0,1377.0,-545.0,1.0,2.0,0.0,1.0
2022-05-08 18:26:54.686753-07:00,806.0,891.5,1392.1,944.9,729.0,483.0,1424.1,858.7,3473.4,3473.4,692.9,889.0,410.6,3500.2,763.7,734.0,3486.8,3479.5,390.3,547.4,395.7,486.1,263.0,258.4,3477.1,3483.2,562.6,468.7,729.0,974.8,1226.6,478.2,-2.0,0.0,-5.0,10100.0,11107.0,5695.0,3263.0,-6.0,-2.0,2.0,-4.0,1.0,-1.0,11641.0,11433.0,1377.0,-545.0,-3.0,2.0,0.0,1.0
2022-05-08 18:26:54.746762-07:00,809.4,899.1,1392.1,944.9,735.6,483.0,1424.1,858.7,3478.3,3467.4,689.7,889.0,405.9,3500.2,763.7,734.0,3486.8,3479.5,390.3,547.4,395.7,486.1,259.2,260.7,3477.1,3483.2,562.6,469.5,729.0,973.9,1229.3,481.4,-3.0,7.0,-7.0,10100.0,11107.0,5695.0,3263.0,3.0,-5.0,-2.0,-3.0,4.0,0.0,11641.0,11433.0,1377.0,-545.0,2.0,-1.0,-2.0,1.0
2022-05-08 18:26:54.776400-07:00,809.4,899.1,1392.1,942.4,735.6,479.0,1416.7,855.3,3478.3,3467.4,689.7,889.8,405.9,3500.2,756.3,738.9,3478.3,3479.5,386.4,547.4,396.5,486.1,259.2,260.7,3479.5,3485.6,562.6,469.5,729.9,973.9,1229.3,481.4,-1.0,0.0,-1.0,10100.0,11107.0,5695.0,3263.0,-2.0,3.0,7.0,-3.0,-1.0,4.0,11641.0,11433.0,1377.0,-545.0,3.0,2.0,3.0,1.0
2022-05-08 18:26:54.807103-07:00,802.7,894.9,1393.9,942.4,727.4,479.0,1416.7,855.3,3473.4,3471.0,688.0,889.8,407.5,3500.2,756.3,738.9,3478.3,3479.5,386.4,546.6,396.5,486.9,256.1,263.0,3479.5,3485.6,562.6,469.5,729.9,973.9,1224.8,481.4,-5.0,7.0,-7.0,10100.0,11107.0,5695.0,3263.0,2.0,-1.0,-6.0,-7.0,-2.0,0.0,11641.0,11433.0,1377.0,-545.0,3.0,4.0,-3.0,1.0
2022-05-08 18:26:54.867093-07:00,802.7,894.9,1393.9,938.1,727.4,480.6,1418.6,861.2,3473.4,3471.0,688.0,885.6,407.5,3496.6,753.8,743.0,3483.2,3483.2,390.3,546.6,392.6,486.9,256.1,263.0,3475.9,3481.9,560.2,469.5,728.2,973.9,1224.8,481.4,0.0,0.0,-9.0,10100.0,11107.0,5695.0,3263.0,1.0,1.0,2.0,-1.0,1.0,-4.0,11641.0,11433.0,1378.0,-544.0,5.0,5.0,1.0,1.0
2022-05-08 18:26:54.927042-07:00,807.7,891.5,1393.0,948.3,727.4,480.6,1418.6,861.2,3475.9,3478.3,690.5,884.8,408.2,3496.6,753.8,743.0,3483.2,3483.2,390.3,550.6,395.7,486.9,262.2,260.7,3475.9,3481.9,560.2,471.9,726.6,971.3,1221.3,475.8,-6.0,6.0,-10.0,10100.0,11107.0,5695.0,3263.0,-3.0,-8.0,-4.0,-5.0,1.0,0.0,11641.0,11433.0,1378.0,-544.0,0.0,-3.0,-3.0,1.0
2022-05-08 18:26:54.957223-07:00,807.7,891.5,1393.0,948.3,732.3,478.2,1421.3,865.4,3475.9,3478.3,690.5,884.8,412.9,3497.8,759.6,734.8,3474.6,3480.7,385.6,548.2,395.7,486.9,262.2,260.7,3473.4,3478.3,562.6,469.5,726.6,971.3,1221.3,475.8,-5.0,2.0,-5.0,10100.0,11107.0,5695.0,3263.0,2.0,2.0,-1.0,-5.0,0.0,4.0,11641.0,11433.0,1378.0,-544.0,3.0,4.0,-1.0,1.0
2022-05-08 18:26:55.017836-07:00,805.2,891.5,1396.7,941.5,732.3,478.2,1421.3,865.4,3478.3,3480.7,685.6,889.0,412.9,3497.8,759.6,734.8,3474.6,3480.7,385.6,548.2,395.7,489.3,261.4,259.9,3473.4,3478.3,562.6,469.5,724.1,972.2,1227.5,483.0,-2.0,3.0,-9.0,10100.0,11107.0,5695.0,3263.0,-1.0,6.0,-7.0,-3.0,2.0,0.0,11641.0,11433.0,1378.0,-544.0,-1.0,1.0,-4.0,1.0
2022-05-08 18:26:55.076826-07:00,805.2,891.5,1396.7,941.5,729.0,481.4,1424.1,857.0,3478.3,3480.7,685.6,889.0,408.2,3491.7,752.9,739.7,3478.3,3481.9,388.7,545.8,395.7,489.3,261.4,259.9,3477.1,3488.0,566.6,471.1,724.1,972.2,1227.5,483.0,-4.0,3.0,-8.0,10100.0,11107.0,5695.0,3263.0,-4.0,-9.0,-2.0,0.0,1.0,-2.0,11641.0,11433.0,1378.0,-544.0,-4.0,1.0,0.0,1.0
2022-05-08 18:26:55.107156-07:00,808.5,895.7,1387.5,938.1,729.0,481.4,1424.1,857.0,3480.7,3479.5,687.2,888.2,408.2,3491.7,752.9,739.7,3478.3,3481.9,388.7,545.8,395.7,484.5,262.2,263.0,3477.1,3488.0,566.6,471.1,731.5,979.0,1229.3,479.0,-5.0,0.0,-6.0,10100.0,11107.0,5695.0,3263.0,-5.0,7.0,2.0,-5.0,0.0,0.0,11641.0,11433.0,1378.0,-544.0,-2.0,-2.0,2.0,1.0
2022-05-08 18:26:55.226912-07:00,808.5,895.7,1387.5,938.1,724.9,479.8,1419.5,857.9,3480.7,3479.5,687.2,888.2,409.8,3486.8,751.3,734.0,3480.7,3480.7,387.9,547.4,395.7,484.5,262.2,263.0,3483.2,3480.7,560.2,472.7,731.5,979.0,1229.3,479.0,-6.0,6.0,-9.0,10100.0,11107.0,5695.0,3263.0,-2.0,-5.0,-4.0,-5.0,6.0,0.0,11641.0,11433.0,1378.0,-544.0,0.0,2.0,-3.0,1.0
2022-05-08 18:26:55.228605-07:00,806.0,895.7,1383.0,960.2,724.9,479.8,1419.5,857.9,3478.3,3479.5,689.7,889.0,409.8,3486.8,751.3,730.7,3483.2,3480.7,387.9,547.4,395.7,479.8,261.4,263.7,3483.2,3480.7,560.2,472.7,724.9,973.1,1223.9,483.7,-3.0,2.0,-6.0,10100.0,11107.0,5695.0,3263.0,-2.0,-6.0,-2.0,-3.0,0.0,0.0,11641.0,11433.0,1378.0,-544.0,3.0,-3.0,1.0,1.0
2022-05-08 18:26:55.317085-07:00,811.9,895.7,1383.0,960.2,723.3,482.2,1422.2,857.9,3473.4,3479.5,689.7,889.0,411.4,3495.3,765.3,730.7,3483.2,3480.7,386.4,545.8,395.7,479.8,261.4,263.0,3483.2,3488.0,565.8,471.1,724.9,973.1,1223.9,479.8,-4.0,-1.0,-1.0,10100.0,11107.0,5695.0,3263.0,0.0,5.0,1.0,-5.0,4.0,2.0,11641.0,11433.0,1378.0,-544.0,-1.0,3.0,1.0,1.0
2022-05-08 18:26:55.318862-07:00,811.9,901.7,1400.3,943.2,723.3,482.2,1422.2,857.0,3473.4,3478.3,693.8,884.8,411.4,3495.3,765.3,734.8,3480.7,3480.7,386.4,545.8,398.9,485.3,258.4,263.0,3479.5,3488.0,565.8,471.1,730.7,979.9,1221.3,479.8,-4.0,5.0,-5.0,10100.0,11107.0,5695.0,3263.0,5.0,6.0,-5.0,-4.0,0.0,0.0,11641.0,11433.0,1379.0,-544.0,4.0,14.0,-3.0,1.0
2022-05-08 18:26:55.376441-07:00,802.7,901.7,1400.3,943.2,727.4,479.0,1413.1,857.0,3473.4,3478.3,693.8,884.8,408.2,3494.1,754.6,734.8,3480.7,3479.5,389.5,545.8,398.9,485.3,258.4,261.4,3479.5,3478.3,566.6,465.6,730.7,979.9,1221.3,479.0,-4.0,-2.0,-8.0,10100.0,11107.0,5695.0,3263.0,3.0,3.0,9.0,-6.0,-2.0,1.0,11641.0,11433.0,1379.0,-544.0,2.0,1.0,4.0,1.0
2022-05-08 18:26:55.406651-07:00,802.7,899.1,1393.9,938.1,727.4,479.0,1413.1,862.1,3473.4,3467.4,687.2,889.0,408.2,3494.1,754.6,735.6,3477.1,3479.5,389.5,545.8,395.0,484.5,263.0,261.4,3480.7,3478.3,566.6,465.6,734.8,973.9,1229.3,479.0,0.0,4.0,-8.0,10100.0,11107.0,5694.0,3263.0,2.0,-2.0,-8.0,-2.0,0.0,-4.0,11641.0,11433.0,1379.0,-544.0,2.0,-3.0,-4.0,1.0
2022-05-08 18:26:55.467044-07:00,804.4,899.1,1393.9,938.1,732.3,475.0,1416.7,862.1,3472.2,3467.4,687.2,889.0,408.2,3496.6,758.7,735.6,3477.1,3484.4,384.8,543.4,395.0,484.5,263.0,262.2,3480.7,3479.5,565.8,468.7,734.8,973.9,1229.3,475.0,-5.0,2.0,-4.0,10098.0,11108.0,5694.0,3262.0,6.0,-2.0,3.0,-4.0,2.0,2.0,11641.0,11433.0,1379.0,-544.0,4.0,-5.0,2.0,1.0
2022-05-08 18:26:55.497292-07:00,804.4,891.5,1392.1,943.2,732.3,475.0,1427.7,862.9,3472.2,3478.3,685.6,893.2,408.2,3496.6,758.7,736.5,3484.4,3480.7,384.8,543.4,395.7,490.1,263.0,262.2,3488.0,3485.6,565.8,468.7,729.0,974.8,1226.6,475.0,-2.0,0.0,-7.0,10098.0,11108.0,5694.0,3262.0,11.0,2.0,0.0,-3.0,2.0,-1.0,11641.0,11433.0,1379.0,-544.0,7.0,4.0,0.0,1.0
2022-05-08 18:26:55.587371-07:00,803.5,893.2,1392.1,943.2,729.9,473.5,1427.7,862.9,3478.3,3479.5,685.6,893.2,411.4,3494.1,758.7,736.5,3484.4,3480.7,386.4,546.6,395.7,490.1,259.2,263.0,3488.0,3485.6,565.8,469.5,729.0,974.8,1230.2,473.5,-2.0,1.0,-9.0,10098.0,11109.0,5694.0,3262.0,6.0,-10.0,-1.0,-3.0,2.0,0.0,11641.0,11433.0,1379.0,-544.0,1.0,-1.0,0.0,1.0
2022-05-08 18:26:55.616750-07:00,803.5,893.2,1392.1,944.1,729.9,473.5,1418.6,852.8,3478.3,3479.5,691.3,883.9,411.4,3494.1,753.8,735.6,3471.0,3483.2,386.4,546.6,397.3,487.7,259.2,263.0,3477.1,3477.1,565.8,469.5,733.2,972.2,1230.2,473.5,-4.0,0.0,-7.0,10098.0,11109.0,5694.0,3261.0,-1.0,-2.0,3.0,-6.0,0.0,0.0,11641.0,11433.0,1379.0,-544.0,1.0,3.0,3.0,1.0
2022-05-08 18:26:55.647045-07:00,800.2,893.2,1392.1,944.1,728.2,476.6,1418.6,852.8,3480.7,3467.4,691.3,883.9,417.6,3502.7,753.8,735.6,3471.0,3483.2,389.5,550.6,397.3,487.7,260.7,254.6,3477.1,3477.1,561.0,471.1,733.2,972.2,1228.4,472.7,1.0,3.0,-8.0,10098.0,11109.0,5693.0,3260.0,-2.0,-3.0,-3.0,-1.0,3.0,-1.0,11641.0,11433.0,1379.0,-544.0,-5.0,-2.0,0.0,1.0
2022-05-08 18:26:55.707062-07:00,800.2,893.2,1397.6,941.5,728.2,476.6,1422.2,860.4,3480.7,3467.4,690.5,892.4,417.6,3502.7,758.7,735.6,3471.0,3481.9,389.5,550.6,393.4,490.9,260.7,254.6,3488.0,3467.4,561.0,471.1,728.2,973.1,1228.4,472.7,-16.0,9.0,-11.0,10098.0,11109.0,5693.0,3260.0,-3.0,-10.0,-3.0,-16.0,1.0,3.0,11642.0,11433.0,1379.0,-544.0,-11.0,-5.0,-1.0,1.0
2022-05-08 18:26:55.767520-07:00,806.0,892.4,1397.6,941.5,734.8,482.2,1422.2,860.4,3473.4,3478.3,690.5,892.4,408.2,3494.1,758.7,735.6,3471.0,3481.9,387.2,544.2,393.4,490.9,259.2,261.4,3488.0,3467.4,561.0,467.9,728.2,973.1,1227.5,480.6,-10.0,0.0,-4.0,10102.0,11108.0,5690.0,3259.0,2.0,4.0,0.0,-8.0,0.0,4.0,11643.0,11431.0,1379.0,-543.0,0.0,-5.0,3.0,1.0
2022-05-08 18:26:55.797307-07:00,806.0,892.4,1397.6,935.6,734.8,476.6,1425.9,859.5,3473.4,3478.3,685.6,892.4,408.2,3494.1,756.3,731.5,3478.3,3477.1,387.2,544.2,393.4,481.4,259.2,261.4,3478.3,3479.5,565.0,467.9,724.9,971.3,1227.5,480.6,-3.0,-1.0,-5.0,10103.0,11108.0,5689.0,3258.0,-11.0,2.0,0.0,-2.0,0.0,1.0,11644.0,11430.0,1379.0,-543.0,-8.0,-4.0,5.0,1.0
2022-05-08 18:26:55.857355-07:00,806.9,891.5,1390.3,935.6,725.8,476.6,1425.9,859.5,3480.7,3466.1,688.0,892.4,406.7,3494.1,756.3,731.5,3478.3,3477.1,387.2,546.6,393.4,482.2,258.4,263.0,3478.3,3479.5,565.0,467.1,724.9,973.1,1221.3,483.0,-4.0,6.0,-7.0,10104.0,11108.0,5688.0,3258.0,-1.0,0.0,3.0,-5.0,0.0,0.0,11644.0,11430.0,1379.0,-543.0,-1.0,-10.0,2.0,1.0
2022-05-08 18:26:55.916980-07:00,806.9,891.5,1390.3,943.2,725.8,479.0,1419.5,857.9,3480.7,3466.1,688.0,886.5,406.7,3490.5,752.9,735.6,3479.5,3473.4,385.6,546.6,395.7,482.2,258.4,263.0,3479.5,3480.7,563.4,467.1,729.9,973.1,1221.3,483.0,-2.0,1.0,-6.0,10104.0,11108.0,5688.0,3258.0,-2.0,-5.0,-2.0,-3.0,-1.0,0.0,11644.0,11430.0,1378.0,-544.0,-3.0,-6.0,0.0,1.0
2022-05-08 18:26:55.947257-07:00,806.9,894.1,1393.9,943.2,730.7,479.0,1419.5,857.9,3477.1,3471.0,687.2,886.5,409.0,3490.5,752.9,735.6,3479.5,3473.4,385.6,549.0,395.7,485.3,266.0,261.4,3479.5,3480.7,563.4,467.9,729.9,971.3,1211.5,481.4,-2.0,2.0,-3.0,10105.0,11109.0,5686.0,3255.0,4.0,-13.0,-10.0,-3.0,1.0,1.0,11644.0,11430.0,1377.0,-545.0,0.0,-4.0,-4.0,1.0
2022-05-08 18:26:56.037683-07:00,806.9,894.1,1393.9,943.2,730.7,479.8,1420.4,856.2,3477.1,3471.0,687.2,889.0,409.0,3491.7,754.6,738.1,3480.7,3480.7,382.5,549.0,393.4,485.3,266.0,261.4,3485.6,3475.9,568.2,467.9,726.6,971.3,1211.5,481.4,-6.0,-4.0,0.0,10106.0,11108.0,5686.0,3253.0,3.0,0.0,11.0,-8.0,-4.0,6.0,11644.0,11430.0,1377.0,-545.0,3.0,-2.0,5.0,1.0
2022-05-08 18:26:56.066946-07:00,803.5,896.6,1397.6,943.2,730.7,479.8,1420.4,856.2,3475.9,3473.4,692.1,889.0,407.5,3491.7,754.6,738.1,3480.7,3480.7,382.5,546.6,393.4,484.5,259.2,257.6,3485.6,3475.9,568.2,471.1,726.6,976.5,1227.5,479.0,-1.0,7.0,-7.0,10104.0,11110.0,5685.0,3253.0,0.0,2.0,-4.0,-1.0,1.0,2.0,11644.0,11430.0,1377.0,-545.0,4.0,5.0,3.0,1.0
2022-05-08 18:26:56.156548-07:00,803.5,896.6,1397.6,939.0,729.9,480.6,1419.5,856.2,3475.9,3473.4,692.1,889.8,406.7,3496.6,754.6,734.8,3478.3,3483.2,392.6,543.4,395.7,484.5,259.2,257.6,3478.3,3481.9,560.2,468.7,728.2,976.5,1227.5,479.0,-2.0,4.0,-9.0,10103.0,11111.0,5686.0,3253.0,17.0,5.0,5.0,-2.0,4.0,-2.0,11644.0,11431.0,1377.0,-545.0,10.0,-1.0,-1.0,1.0
2022-05-08 18:26:56.158076-07:00,804.4,895.7,1384.8,944.1,729.9,480.6,1419.5,856.2,3478.3,3479.5,686.4,883.1,406.7,3496.6,754.6,734.8,3478.3,3483.2,392.6,543.4,396.5,487.7,260.7,264.5,3478.3,3481.9,560.2,468.7,728.2,964.5,1233.7,479.8,-4.0,0.0,-9.0,10103.0,11113.0,5685.0,3250.0,3.0,-14.0,-5.0,-5.0,-1.0,0.0,11643.0,11432.0,1377.0,-545.0,6.0,-7.0,-2.0,1.0
2022-05-08 18:26:56.216885-07:00,804.4,895.7,1384.8,944.1,729.0,479.8,1419.5,857.9,3478.3,3479.5,686.4,883.1,408.2,3506.3,757.1,736.5,3477.1,3483.2,387.2,543.4,396.5,487.7,260.7,264.5,3484.4,3481.9,562.6,468.7,728.2,964.5,1233.7,479.8,-6.0,4.0,-5.0,10102.0,11114.0,5683.0,3248.0,6.0,-10.0,4.0,-4.0,2.0,2.0,11643.0,11432.0,1377.0,-545.0,9.0,-2.0,3.0,1.0
2022-05-08 18:26:56.247133-07:00,809.4,895.7,1393.0,940.7,729.0,479.8,1419.5,857.9,3469.8,3480.7,682.3,886.5,408.2,3506.3,757.1,736.5,3477.1,3483.2,387.2,543.4,393.4,483.7,259.9,262.2,3484.4,3481.9,562.6,468.7,723.3,966.2,1227.5,477.4,-6.0,0.0,-5.0,10102.0,11114.0,5683.0,3248.0,7.0,7.0,-1.0,-3.0,1.0,2.0,11642.0,11432.0,1377.0,-545.0,5.0,4.0,1.0,1.0
2022-05-08 18:26:56.337455-07:00,809.4,895.7,1393.0,940.7,731.5,478.2,1419.5,856.2,3469.8,3480.7,682.3,886.5,409.8,3486.8,756.3,733.2,3481.9,3479.5,387.9,545.0,393.4,483.7,259.9,262.2,3479.5,3483.2,559.4,469.5,723.3,966.2,1227.5,477.4,-1.0,2.0,-12.0,10102.0,11115.0,5683.0,3247.0,1.0,-13.0,-4.0,-4.0,3.0,-2.0,11641.0,11434.0,1377.0,-545.0,2.0,-1.0,-1.0,1.0
2022-05-08 18:26:56.396898-07:00,808.5,900.0,1394.8,943.2,731.5,478.2,1419.5,858.7,3475.9,3483.2,684.0,891.5,409.8,3486.8,756.3,730.7,3474.6,3479.5,387.9,545.0,395.0,486.9,258.4,258.4,3477.1,3483.2,559.4,469.5,728.2,969.6,1218.6,479.8,-7.0,0.0,-7.0,10104.0,11116.0,5679.0,3243.0,-3.0,-7.0,3.0,-8.0,0.0,-1.0,11641.0,11434.0,1377.0,-545.0,-1.0,-8.0,3.0,1.0
2022-05-08 18:26:56.398395-07:00,809.4,900.0,1394.8,943.2,726.6,476.6,1414.9,858.7,3475.9,3483.2,684.0,891.5,409.0,3503.9,752.1,730.7,3474.6,3479.5,391.1,543.4,395.0,486.9,258.4,263.0,3477.1,3475.9,561.0,472.7,728.2,969.6,1218.6,473.5,0.0,2.0,-1.0,10104.0,11116.0,5679.0,3242.0,1.0,-6.0,0.0,-3.0,2.0,1.0,11641.0,11434.0,1375.0,-547.0,-2.0,-6.0,4.0,1.0
2022-05-08 18:26:56.457227-07:00,809.4,888.2,1395.7,943.2,726.6,476.6,1414.9,857.9,3475.9,3468.6,681.5,883.1,409.0,3503.9,752.1,731.5,3477.1,3479.5,391.1,543.4,398.1,489.3,263.0,263.0,3481.9,3475.9,561.0,472.7,733.2,974.8,1227.5,473.5,0.0,1.0,-1.0,10105.0,11117.0,5678.0,3242.0,2.0,-13.0,-2.0,-2.0,1.0,2.0,11641.0,11434.0,1375.0,-547.0,5.0,-2.0,-3.0,1.0
2022-05-08 18:26:56.516998-07:00,808.5,888.2,1395.7,943.2,729.0,479.8,1418.6,857.9,3475.9,3468.6,681.5,883.1,408.2,3497.8,757.9,731.5,3477.1,3475.9,387.2,545.8,398.1,489.3,263.0,262.2,3481.9,3477.1,562.6,452.2,733.2,974.8,1227.5,479.8,-5.0,2.0,-4.0,10105.0,11117.0,5678.0,3242.0,5.0,8.0,8.0,-2.0,1.0,6.0,11641.0,11434.0,1375.0,-547.0,3.0,1.0,3.0,1.0
2022-05-08 18:26:56.547366-07:00,808.5,908.4,1383.9,941.5,729.0,479.8,1418.6,856.2,3475.9,3472.2,688.9,890.7,408.2,3497.8,757.9,737.3,3481.9,3475.9,387.2,545.8,394.2,486.9,261.4,262.2,3480.7,3477.1,562.6,452.2,724.1,973.9,1230.2,479.8,-4.0,3.0,-10.0,10105.0,11117.0,5678.0,3242.0,7.0,4.0,3.0,-4.0,3.0,-1.0,11641.0,11434.0,1375.0,-547.0,7.0,4.0,3.0,1.0
2022-05-08 18:26:56.607109-07:00,804.4,908.4,1383.9,941.5,729.0,481.4,1424.1,856.2,3477.1,3472.2,688.9,890.7,405.9,3497.8,754.6,737.3,3481.9,3488.0,385.6,547.4,394.2,486.9,261.4,262.2,3480.7,3486.8,561.8,474.3,724.1,973.9,1230.2,489.3,-1.0,-6.0,-10.0,10104.0,11117.0,5678.0,3241.0,-1.0,5.0,1.0,-4.0,1.0,-2.0,11641.0,11434.0,1375.0,-547.0,-2.0,-2.0,8.0,1.0
2022-05-08 18:26:56.727123-07:00,804.4,891.5,1388.5,952.6,729.0,481.4,1420.4,851.1,3477.1,3473.4,686.4,893.2,405.9,3497.8,752.9,735.6,3477.1,3484.4,385.6,547.4,389.5,490.1,259.9,262.2,3483.2,3477.1,561.8,474.3,724.9,973.1,1223.0,489.3,0.0,5.0,-11.0,10103.0,11118.0,5676.0,3243.0,4.0,-5.0,2.0,-3.0,4.0,-6.0,11641.0,11434.0,1375.0,-547.0,6.0,1.0,4.0,1.0
2022-05-08 18:26:56.728122-07:00,803.5,890.7,1388.5,952.6,727.4,476.6,1420.4,851.1,3475.9,3473.4,686.4,893.2,405.1,3500.2,752.9,735.6,3477.1,3484.4,386.4,540.2,389.5,490.1,261.4,260.7,3483.2,3477.1,563.4,466.4,724.9,973.1,1226.6,479.0,-6.0,5.0,-10.0,10102.0,11120.0,5676.0,3243.0,13.0,-1.0,8.0,-5.0,0.0,-3.0,11641.0,11434.0,1375.0,-547.0,8.0,-7.0,4.0,1.0
2022-05-08 18:26:56.757002-07:00,803.5,890.7,1387.5,946.6,727.4,476.6,1423.1,858.7,3475.9,3473.4,689.7,889.0,405.1,3500.2,752.9,731.5,3480.7,3480.7,386.4,540.2,394.2,487.7,261.4,260.7,3483.2,3474.6,563.4,466.4,723.3,977.3,1226.6,479.0,-4.0,0.0,-8.0,10103.0,11120.0,5675.0,3241.0,-1.0,-15.0,-1.0,-2.0,-1.0,0.0,11641.0,11434.0,1375.0,-547.0,1.0,-5.0,-1.0,1.0
2022-05-08 18:26:56.817085-07:00,802.7,896.6,1387.5,946.6,732.3,481.4,1423.1,858.7,3474.6,3480.7,689.7,889.0,411.4,3496.6,752.9,731.5,3480.7,3480.7,386.4,550.6,394.2,487.7,262.2,263.0,3483.2,3474.6,566.6,472.7,723.3,977.3,1229.3,474.3,-1.0,-2.0,-3.0,10104.0,11122.0,5673.0,3238.0,-5.0,5.0,7.0,-3.0,-1.0,5.0,11641.0,11434.0,1375.0,-547.0,0.0,-7.0,8.0,1.0
2022-05-08 18:26:56.876917-07:00,802.7,896.6,1393.9,941.5,732.3,481.4,1421.3,855.3,3474.6,3480.7,686.4,885.6,411.4,3496.6,751.3,734.0,3478.3,3472.2,386.4,550.6,396.5,486.9,262.2,263.0,3474.6,3488.0,566.6,472.7,723.3,973.9,1229.3,474.3,-2.0,8.0,-2.0,10103.0,11123.0,5670.0,3239.0,1.0,-2.0,3.0,-7.0,2.0,-1.0,11641.0,11434.0,1375.0,-547.0,7.0,5.0,2.0,1.0
2022-05-08 18:26:56.907138-07:00,809.4,893.2,1393.9,941.5,729.9,486.9,1421.3,855.3,3479.5,3477.1,686.4,885.6,405.9,3496.6,751.3,734.0,3478.3,3472.2,390.3,545.0,396.5,486.9,264.5,261.4,3474.6,3488.0,563.4,471.1,723.3,973.9,1221.3,480.6,-3.0,12.0,-10.0,10100.0,11124.0,5673.0,3241.0,11.0,2.0,5.0,0.0,7.0,1.0,11640.0,11435.0,1375.0,-548.0,8.0,4.0,3.0,1.0
2022-05-08 18:26:56.967681-07:00,809.4,893.2,1390.3,946.6,729.9,479.0,1421.3,854.5,3479.5,3477.1,685.6,884.8,405.9,3500.2,762.0,735.6,3488.0,3481.9,385.6,545.0,395.0,483.7,264.5,261.4,3477.1,3481.9,563.4,471.1,729.0,966.2,1221.3,480.6,0.0,0.0,-9.0,10099.0,11124.0,5673.0,3240.0,11.0,4.0,5.0,-4.0,-1.0,-2.0,11639.0,11436.0,1375.0,-548.0,11.0,0.0,4.0,1.0
2022-05-08 18:26:56.997236-07:00,810.2,891.5,1391.2,946.6,737.3,479.0,1421.3,854.5,3472.2,3479.5,687.2,884.8,408.2,3500.2,762.0,735.6,3488.0,3481.9,385.6,545.0,395.0,485.3,259.2,259.2,3477.1,3481.9,563.4,471.9,729.0,972.2,1225.7,478.2,-4.0,5.0,-11.0,10099.0,11125.0,5673.0,3240.0,1.0,-10.0,2.0,-3.0,4.0,-2.0,11638.0,11437.0,1375.0,-548.0,4.0,-5.0,2.0,1.0
2022-05-08 18:26:57.056710-07:00,810.2,891.5,1391.2,948.3,737.3,482.2,1407.6,858.7,3472.2,3479.5,687.2,896.6,408.2,3499.0,753.8,740.6,3477.1,3485.6,391.1,545.0,396.5,485.3,259.2,259.2,3479.5,3477.1,563.4,471.9,723.3,972.2,1225.7,478.2,-3.0,0.0,-13.0,10099.0,11126.0,5671.0,3239.0,3.0,-4.0,10.0,-4.0,3.0,-1.0,11638.0,11437.0,1375.0,-548.0,4.0,-4.0,6.0,1.0
2022-05-08 18:26:57.146816-07:00,810.2,891.5,1408.5,948.3,729.9,482.2,1407.6,858.7,3483.2,3473.4,689.7,896.6,409.0,3499.0,753.8,740.6,3477.1,3485.6,391.1,547.4,396.5,485.3,263.0,256.9,3479.5,3477.1,563.4,467.1,723.3,973.1,1226.6,481.4,-1.0,-3.0,-8.0,10100.0,11127.0,5669.0,3237.0,1.0,-14.0,-5.0,0.0,-1.0,-1.0,11638.0,11437.0,1373.0,-549.0,-2.0,-8.0,2.0,1.0
2022-05-08 18:26:57.148357-07:00,810.2,891.5,1408.5,944.9,729.9,482.2,1414.9,859.5,3483.2,3473.4,689.7,892.4,409.0,3502.7,751.3,736.5,3478.3,3483.2,390.3,547.4,398.9,485.3,263.0,256.9,3481.9,3478.3,566.6,467.1,732.3,973.1,1226.6,481.4,-2.0,6.0,-6.0,10102.0,11128.0,5665.0,3234.0,-3.0,-10.0,8.0,-4.0,5.0,3.0,11638.0,11437.0,1371.0,-551.0,-3.0,-8.0,5.0,1.0
2022-05-08 18:26:57.236928-07:00,811.9,888.2,1395.7,944.9,732.3,482.2,1414.9,859.5,3480.7,3474.6,692.9,892.4,405.9,3502.7,751.3,736.5,3478.3,3483.2,390.3,547.4,398.9,483.0,262.2,262.2,3481.9,3478.3,566.6,471.1,732.3,967.9,1226.6,479.0,1.0,0.0,-4.0,10103.0,11128.0,5663.0,3231.0,-5.0,-12.0,-3.0,3.0,0.0,3.0,11638.0,11437.0,1371.0,-551.0,-8.0,-4.0,4.0,1.0
2022-05-08 18:26:57.266468-07:00,811.9,888.2,1395.7,936.4,731.5,473.5,1419.5,857.9,3480.7,3474.6,692.9,889.0,412.9,3502.7,751.3,739.7,3488.0,3479.5,386.4,547.4,398.1,483.0,262.2,262.2,3475.9,3478.3,564.2,469.5,729.0,967.9,1226.6,479.0,-7.0,1.0,0.0,10105.0,11129.0,5659.0,3233.0,-14.0,6.0,15.0,-6.0,0.0,1.0,11639.0,11436.0,1369.0,-549.0,-8.0,1.0,13.0,1.0
2022-05-08 18:26:57.297296-07:00,811.9,899.1,1387.5,942.4,731.5,473.5,1419.5,857.9,3478.3,3474.6,688.0,884.8,412.9,3502.7,751.3,739.7,3488.0,3479.5,386.4,547.4,394.2,486.9,262.2,264.5,3475.9,3478.3,564.2,469.5,729.0,968.8,1224.8,479.0,-5.0,7.0,-7.0,10106.0,11126.0,5659.0,3238.0,-10.0,-2.0,0.0,-7.0,1.0,-1.0,11640.0,11436.0,1368.0,-545.0,-5.0,6.0,4.0,1.0
2022-05-08 18:26:57.447093-07:00,811.9,899.1,1387.5,942.4,721.6,480.6,1422.2,853.7,3478.3,3474.6,688.0,884.8,413.7,3489.2,756.3,736.5,3481.9,3479.5,387.9,547.4,394.2,486.9,262.2,264.5,3479.5,3478.3,565.0,470.3,729.0,968.8,1224.8,479.0,0.0,4.0,-23.0,10106.0,11126.0,5659.0,3239.0,-6.0,3.0,9.0,1.0,0.0,-5.0,11640.0,11436.0,1368.0,-545.0,-2.0,-7.0,6.0,1.0
2022-05-08 18:26:57.448485-07:00,806.0,893.2,1388.5,946.6,721.6,480.6,1422.2,853.7,3477.1,3490.5,692.9,886.5,413.7,3489.2,756.3,736.5,3481.9,3479.5,387.9,547.4,393.4,484.5,263.0,264.5,3479.5,3478.3,565.0,470.3,726.6,970.5,1225.7,478.2,2.0,2.0,-15.0,10107.0,11127.0,5657.0,3235.0,11.0,-25.0,2.0,1.0,5.0,-5.0,11640.0,11436.0,1365.0,-548.0,9.0,-20.0,0.0,1.0
2022-05-08 18:26:57.449674-07:00,806.0,893.2,1388.5,946.6,728.2,475.0,1414.0,857.0,3477.1,3490.5,692.9,886.5,404.3,3496.6,751.3,737.3,3479.5,3479.5,384.8,548.2,393.4,484.5,263.0,264.5,3475.9,3478.3,575.4,466.4,726.6,970.5,1225.7,478.2,-2.0,-2.0,-3.0,10111.0,11130.0,5649.0,3228.0,1.0,-26.0,10.0,0.0,-2.0,0.0,11641.0,11436.0,1358.0,-555.0,5.0,-25.0,5.0,1.0
2022-05-08 18:26:57.537353-07:00,804.4,891.5,1391.2,938.1,728.2,475.0,1414.0,857.0,3477.1,3479.5,688.0,886.5,404.3,3496.6,751.3,737.3,3479.5,3479.5,384.8,548.2,392.6,483.0,261.4,260.7,3475.9,3478.3,575.4,466.4,729.9,973.9,1226.6,480.6,0.0,3.0,0.0,10114.0,11132.0,5642.0,3223.0,10.0,-19.0,1.0,1.0,2.0,5.0,11641.0,11436.0,1350.0,-562.0,13.0,-19.0,-3.0,1.0
2022-05-08 18:26:57.567080-07:00,806.9,891.5,1391.2,938.1,729.0,480.6,1405.8,852.8,3477.1,3479.5,688.0,886.5,403.5,3496.6,755.4,731.5,3481.9,3480.7,389.5,547.4,392.6,483.0,261.4,259.9,3479.5,3479.5,563.4,468.7,729.9,973.9,1226.6,473.5,-8.0,4.0,-3.0,10112.0,11136.0,5641.0,3219.0,8.0,-1.0,12.0,-4.0,6.0,8.0,11638.0,11439.0,1346.0,-566.0,6.0,-8.0,2.0,1.0
2022-05-08 18:26:57.597208-07:00,806.9,891.5,1392.1,943.2,729.0,480.6,1405.8,853.7,3477.1,3475.9,689.7,889.0,403.5,3496.6,755.4,736.5,3483.2,3480.7,389.5,547.4,392.6,485.3,264.5,259.9,3477.1,3479.5,563.4,468.7,723.3,973.1,1227.5,473.5,2.0,2.0,-2.0,10110.0,11138.0,5639.0,3220.0,17.0,9.0,-2.0,0.0,2.0,0.0,11634.0,11443.0,1346.0,-566.0,17.0,0.0,-4.0,1.0
2022-05-08 18:26:57.686918-07:00,806.9,891.5,1392.1,943.2,729.9,479.0,1418.6,853.7,3469.8,3475.9,689.7,889.0,404.3,3496.6,756.3,736.5,3483.2,3492.9,387.9,546.6,392.6,485.3,264.5,259.2,3477.1,3483.2,560.2,465.6,723.3,973.1,1227.5,476.6,0.0,7.0,-11.0,10106.0,11142.0,5640.0,3218.0,16.0,-11.0,4.0,-5.0,6.0,-5.0,11629.0,11448.0,1346.0,-567.0,18.0,-2.0,1.0,1.0
2022-05-08 18:26:57.717010-07:00,806.9,894.9,1374.8,939.8,729.9,479.0,1418.6,858.7,3469.8,3478.3,686.4,889.0,404.3,3496.6,756.3,735.6,3480.7,3492.9,387.9,546.6,396.5,486.9,263.0,259.2,3479.5,3483.2,560.2,465.6,729.0,969.6,1222.2,476.6,0.0,0.0,-10.0,10101.0,11147.0,5641.0,3215.0,3.0,-8.0,11.0,0.0,-1.0,0.0,11626.0,11451.0,1344.0,-569.0,5.0,-12.0,2.0,1.0
2022-05-08 18:26:57.806511-07:00,808.5,894.9,1374.8,939.8,726.6,482.2,1396.7,858.7,3478.3,3478.3,686.4,889.0,407.5,3495.3,750.5,735.6,3480.7,3478.3,389.5,545.8,396.5,486.9,263.0,261.4,3479.5,3478.3,562.6,471.1,729.0,969.6,1222.2,477.4,0.0,6.0,-2.0,10103.0,11149.0,5634.0,3212.0,4.0,-16.0,-4.0,-3.0,4.0,2.0,11627.0,11451.0,1342.0,-571.0,4.0,-12.0,-1.0,1.0
2022-05-08 18:26:57.836807-07:00,808.5,884.8,1390.3,946.6,726.6,482.2,1396.7,854.5,3478.3,3467.4,687.2,890.7,407.5,3495.3,750.5,739.7,3483.2,3478.3,389.5,545.8,395.7,486.9,263.0,261.4,3481.9,3478.3,562.6,471.1,732.3,971.3,1220.4,477.4,-3.0,4.0,3.0,10104.0,11150.0,5632.0,3210.0,-8.0,-13.0,8.0,-4.0,4.0,7.0,11627.0,11451.0,1341.0,-573.0,-7.0,-1.0,4.0,1.0
2022-05-08 18:26:57.867089-07:00,804.4,889.8,1390.3,946.6,728.2,480.6,1417.6,854.5,3477.1,3481.9,687.2,890.7,408.2,3497.8,751.3,739.7,3483.2,3488.0,385.6,547.4,395.7,486.9,263.0,263.0,3481.9,3477.1,563.4,471.1,732.3,971.3,1225.7,479.0,3.0,-4.0,8.0,10105.0,11148.0,5635.0,3208.0,-3.0,20.0,-24.0,5.0,-2.0,5.0,11629.0,11448.0,1345.0,-572.0,-11.0,19.0,-12.0,1.0
2022-05-08 18:26:57.897244-07:00,804.4,889.8,1393.0,946.6,728.2,480.6,1418.6,858.7,3477.1,3481.9,685.6,886.5,408.2,3497.8,755.4,737.3,3475.9,3475.9,385.6,547.4,392.6,479.8,263.0,263.0,3477.1,3479.5,563.4,471.1,729.9,977.3,1225.7,479.0,-2.0,14.0,-14.0,10102.0,11144.0,5646.0,3214.0,-3.0,30.0,-1.0,-2.0,4.0,0.0,11628.0,11449.0,1353.0,-564.0,-1.0,27.0,0.0,1.0
2022-05-08 18:26:57.986920-07:00,806.0,890.7,1393.0,946.6,728.2,479.0,1418.6,858.7,3480.7,3478.3,685.6,886.5,410.6,3494.1,755.4,737.3,3475.9,3475.9,388.7,545.0,392.6,479.8,263.0,263.0,3477.1,3479.5,562.6,469.5,729.9,977.3,1223.9,478.2,-4.0,-7.0,-17.0,10100.0,11139.0,5656.0,3219.0,-3.0,6.0,-3.0,-7.0,1.0,-5.0,11630.0,11446.0,1360.0,-558.0,-7.0,15.0,1.0,1.0
2022-05-08 18:26:58.017048-07:00,806.0,890.7,1392.1,943.2,728.2,479.0,1426.8,857.0,3480.7,3478.3,688.9,886.5,410.6,3494.1,754.6,731.5,3483.2,3483.2,388.7,545.0,395.0,483.7,263.0,263.0,3481.9,3477.1,562.6,469.5,725.8,975.6,1223.9,478.2,-3.0,0.0,-12.0,10101.0,11138.0,5656.0,3218.0,-7.0,-12.0,-14.0,-5.0,-1.0,-4.0,11631.0,11446.0,1360.0,-557.0,-8.0,-2.0,-3.0,1.0
2022-05-08 18:26:58.076553-07:00,805.2,895.7,1392.1,943.2,729.0,476.6,1426.8,857.0,3474.6,3478.3,688.9,886.5,409.8,3500.2,754.6,731.5,3483.2,3483.2,390.3,547.4,395.0,483.7,256.1,263.0,3481.9,3477.1,563.4,474.3,725.8,975.6,1224.8,476.6,0.0,9.0,-7.0,10101.0,11138.0,5656.0,3217.0,-6.0,-12.0,14.0,-4.0,3.0,2.0,11631.0,11446.0,1360.0,-557.0,-7.0,-6.0,6.0,1.0
2022-05-08 18:26:58.106732-07:00,805.2,895.7,1386.6,950.0,729.0,476.6,1415.8,856.2,3474.6,3478.3,688.0,859.5,409.8,3500.2,755.4,730.7,3472.2,3478.3,390.3,547.4,392.6,483.0,256.1,263.0,3468.6,3477.1,563.4,474.3,722.5,969.6,1224.8,476.6,1.0,-4.0,0.0,10104.0,11139.0,5654.0,3212.0,3.0,-8.0,-17.0,1.0,0.0,4.0,11631.0,11446.0,1360.0,-557.0,-2.0,0.0,-6.0,1.0
2022-05-08 18:26:58.167006-07:00,806.9,892.4,1396.7,950.0,731.5,480.6,1415.8,856.2,3473.4,3481.9,685.6,859.5,410.6,3496.6,755.4,730.7,3472.2,3478.3,387.9,545.0,392.6,483.0,262.2,257.6,3468.6,3477.1,561.8,472.7,722.5,962.8,1224.8,479.0,-1.0,5.0,3.0,10104.0,11138.0,5655.0,3210.0,-2.0,4.0,4.0,0.0,1.0,4.0,11631.0,11446.0,1360.0,-557.0,-2.0,0.0,3.0,1.0
2022-05-08 18:26:58.197229-07:00,806.9,892.4,1396.7,939.8,731.5,483.0,1418.6,854.5,3473.4,3481.9,685.6,889.8,410.6,3489.2,757.9,736.5,3475.9,3479.5,390.3,545.0,395.0,483.0,262.2,257.6,3477.1,3477.1,563.4,472.7,729.0,962.8,1224.8,479.0,0.0,-1.0,-3.0,10102.0,11137.0,5659.0,3214.0,9.0,12.0,-3.0,-2.0,-2.0,6.0,11630.0,11446.0,1363.0,-554.0,5.0,14.0,2.0,1.0
2022-05-08 18:26:58.257473-07:00,805.2,894.1,1392.1,939.8,730.7,483.0,1418.6,854.5,3480.7,3475.9,692.9,889.8,406.7,3489.2,757.9,736.5,3475.9,3479.5,390.3,546.6,395.0,486.9,262.2,259.9,3477.1,3477.1,563.4,470.3,729.0,967.9,1210.6,476.6,0.0,1.0,-3.0,10098.0,11136.0,5664.0,3219.0,3.0,18.0,-8.0,-1.0,6.0,0.0,11630.0,11446.0,1369.0,-548.0,6.0,23.0,-3.0,1.0
2022-05-08 18:26:58.287187-07:00,805.2,894.1,1392.1,943.2,730.7,482.2,1412.2,853.7,3480.7,3475.9,692.9,888.2,406.7,3496.6,752.9,735.6,3478.3,3481.9,384.0,546.6,398.9,486.9,262.2,259.9,3472.2,3485.6,556.2,470.3,729.9,967.9,1210.6,476.6,4.0,5.0,-7.0,10093.0,11137.0,5670.0,3222.0,9.0,13.0,-4.0,-3.0,3.0,1.0,11628.0,11448.0,1374.0,-543.0,8.0,15.0,1.0,1.0
2022-05-08 18:26:58.347600-07:00,801.9,894.1,1386.6,943.2,725.8,482.2,1412.2,853.7,3472.2,3472.2,691.3,888.2,405.1,3496.6,752.9,735.6,3478.3,3481.9,384.0,549.0,398.9,483.0,260.7,259.2,3472.2,3485.6,556.2,462.4,729.9,970.5,1223.9,483.0,-3.0,3.0,-9.0,10088.0,11137.0,5677.0,3224.0,17.0,19.0,-13.0,-4.0,2.0,-2.0,11623.0,11452.0,1379.0,-539.0,18.0,14.0,-9.0,1.0
2022-05-08 18:26:58.407124-07:00,801.9,894.1,1386.6,943.2,725.8,481.4,1418.6,854.5,3472.2,3472.2,691.3,888.2,405.1,3501.4,758.7,738.1,3479.5,3475.9,386.4,549.0,398.1,483.0,260.7,259.2,3480.7,3480.7,561.8,462.4,724.9,970.5,1223.9,483.0,-7.0,-4.0,-10.0,10083.0,11139.0,5683.0,3225.0,6.0,5.0,-5.0,-6.0,-2.0,0.0,11621.0,11454.0,1381.0,-538.0,1.0,9.0,3.0,1.0
2022-05-08 18:26:58.437275-07:00,809.4,889.8,1390.3,935.6,727.4,481.4,1418.6,854.5,3477.1,3479.5,691.3,887.3,409.0,3501.4,758.7,738.1,3479.5,3475.9,386.4,543.4,393.4,486.9,263.0,264.5,3480.7,3480.7,561.8,468.7,729.9,969.6,1229.3,483.7,-3.0,2.0,-7.0,10083.0,11139.0,5682.0,3226.0,2.0,6.0,7.0,-4.0,1.0,1.0,11621.0,11454.0,1381.0,-538.0,2.0,3.0,4.0,1.0
2022-05-08 18:26:58.556913-07:00,809.4,889.8,1390.3,935.6,726.6,479.0,1416.7,863.7,3477.1,3479.5,691.3,887.3,407.5,3499.0,752.9,738.1,3478.3,3483.2,385.6,550.6,393.4,486.9,263.0,264.5,3475.9,3477.1,561.0,468.7,729.9,969.6,1229.3,483.7,-2.0,-2.0,-5.0,10083.0,11139.0,5682.0,3226.0,-7.0,-2.0,-8.0,-3.0,2.0,0.0,11621.0,11454.0,1381.0,-538.0,-6.0,-2.0,-4.0,1.0
2022-05-08 18:26:58.558411-07:00,804.4,891.5,1389.4,939.8,726.6,479.0,1416.7,863.7,3472.2,3474.6,689.7,883.9,407.5,3499.0,752.9,738.1,3478.3,3483.2,385.6,550.6,394.2,484.5,262.2,258.4,3475.9,3477.1,561.0,468.7,726.6,987.6,1227.5,483.7,0.0,6.0,-3.0,10083.0,11139.0,5682.0,3227.0,-8.0,0.0,14.0,-4.0,2.0,1.0,11621.0,11454.0,1381.0,-538.0,-6.0,-1.0,4.0,1.0
2022-05-08 18:26:58.646685-07:00,804.4,891.5,1389.4,939.8,724.1,478.2,1421.3,854.5,3472.2,3474.6,689.7,883.9,411.4,3500.2,753.8,738.9,3480.7,3471.0,384.8,545.0,394.2,484.5,262.2,258.4,3484.4,3480.7,556.2,469.5,726.6,987.6,1227.5,483.7,2.0,2.0,-5.0,10083.0,11139.0,5681.0,3226.0,-2.0,-10.0,-10.0,1.0,1.0,-1.0,11621.0,11454.0,1381.0,-538.0,-4.0,-4.0,-8.0,1.0
2022-05-08 18:26:58.677418-07:00,805.2,895.7,1388.5,941.5,724.1,478.2,1421.3,854.5,3477.1,3477.1,688.0,890.7,411.4,3500.2,753.8,738.9,3480.7,3471.0,384.8,545.0,396.5,481.4,263.0,263.0,3484.4,3480.7,556.2,469.5,726.6,967.1,1224.8,479.8,-6.0,8.0,-5.0,10084.0,11140.0,5679.0,3223.0,-1.0,-16.0,-4.0,-5.0,1.0,1.0,11621.0,11454.0,1380.0,-539.0,-5.0,-14.0,-7.0,1.0
2022-05-08 18:26:58.706593-07:00,805.2,895.7,1388.5,941.5,728.2,483.0,1424.1,857.9,3477.1,3477.1,688.0,890.7,405.9,3499.0,756.3,736.5,3477.1,3480.7,379.4,537.0,396.5,481.4,263.0,263.0,3479.5,3472.2,560.2,469.5,726.6,967.1,1224.8,479.8,0.0,0.0,1.0,10086.0,11142.0,5675.0,3218.0,11.0,-11.0,-1.0,0.0,2.0,4.0,11622.0,11453.0,1377.0,-542.0,9.0,-10.0,-4.0,1.0
2022-05-08 18:26:58.737179-07:00,804.4,895.7,1393.9,940.7,728.2,483.0,1424.1,860.4,3477.1,3483.2,685.6,892.4,405.9,3499.0,756.3,737.3,3481.9,3480.7,379.4,537.0,395.7,487.7,263.0,264.5,3488.0,3472.2,560.2,469.5,727.4,969.6,1224.8,476.6,-4.0,3.0,-5.0,10084.0,11145.0,5675.0,3216.0,7.0,-11.0,1.0,-4.0,-2.0,5.0,11620.0,11455.0,1376.0,-543.0,10.0,3.0,-2.0,1.0
2022-05-08 18:26:58.797172-07:00,803.5,895.7,1393.9,940.7,733.2,479.8,1420.4,860.4,3471.0,3483.2,685.6,892.4,410.6,3501.4,756.3,737.3,3481.9,3481.9,384.0,543.4,395.7,487.7,263.0,259.9,3488.0,3481.9,565.0,470.3,727.4,969.6,1224.8,479.8,-1.0,8.0,-1.0,10084.0,11145.0,5674.0,3215.0,4.0,0.0,3.0,-1.0,0.0,7.0,11619.0,11456.0,1376.0,-543.0,5.0,-3.0,-3.0,1.0
2022-05-08 18:26:58.917098-07:00,803.5,899.1,1389.4,959.4,733.2,479.8,1420.4,857.0,3471.0,3480.7,692.9,889.8,410.6,3501.4,756.3,731.5,3484.4,3481.9,384.0,543.4,395.7,488.5,261.4,259.9,3484.4,3481.9,565.0,470.3,732.3,973.9,1224.8,479.8,-1.0,0.0,-5.0,10084.0,11145.0,5674.0,3215.0,1.0,-3.0,0.0,-5.0,0.0,3.0,11619.0,11456.0,1376.0,-543.0,-7.0,6.0,1.0,1.0
2022-05-08 18:26:58.918432-07:00,808.5,899.1,1389.4,959.4,725.8,476.6,1413.1,857.0,3478.3,3480.7,692.9,889.8,407.5,3495.3,755.4,731.5,3484.4,3485.6,387.9,543.4,395.7,488.5,261.4,262.2,3484.4,3475.9,567.4,469.5,732.3,973.9,1224.8,480.6,-3.0,5.0,-6.0,10084.0,11145.0,5674.0,3215.0,1.0,-1.0,1.0,-5.0,2.0,-1.0,11620.0,11455.0,1376.0,-543.0,-4.0,-1.0,0.0,1.0
2022-05-08 18:26:58.947162-07:00,808.5,891.5,1392.1,940.7,725.8,476.6,1413.1,858.7,3478.3,3475.9,687.2,893.2,407.5,3495.3,755.4,738.9,3480.7,3485.6,387.9,543.4,395.7,484.5,263.0,262.2,3480.7,3475.9,567.4,469.5,732.3,969.6,1224.8,480.6,-3.0,-10.0,-6.0,10086.0,11144.0,5673.0,3215.0,-15.0,-15.0,7.0,-4.0,-4.0,4.0,11622.0,11454.0,1374.0,-545.0,-17.0,-12.0,4.0,1.0
2022-05-08 18:26:59.007100-07:00,811.9,891.5,1392.1,940.7,731.5,478.2,1428.6,858.7,3472.2,3467.4,687.2,893.2,404.3,3496.6,751.3,738.9,3480.7,3478.3,388.7,547.4,395.7,484.5,261.4,264.5,3480.7,3485.6,564.2,466.4,732.3,969.6,1225.7,477.4,-1.0,19.0,-1.0,10089.0,11145.0,5666.0,3215.0,-4.0,-13.0,-6.0,-3.0,5.0,2.0,11625.0,11451.0,1371.0,-544.0,-4.0,-7.0,6.0,1.0
2022-05-08 18:26:59.037219-07:00,811.9,891.5,1390.3,935.6,731.5,478.2,1420.4,855.3,3472.2,3467.4,690.5,883.1,404.3,3496.6,758.7,736.5,3481.9,3481.9,388.7,547.4,395.7,483.7,261.4,264.5,3488.0,3477.1,564.2,466.4,726.6,969.6,1225.7,477.4,-1.0,-4.0,2.0,10089.0,11145.0,5668.0,3210.0,5.0,1.0,4.0,-3.0,-1.0,4.0,11625.0,11451.0,1371.0,-544.0,6.0,-3.0,-1.0,1.0
2022-05-08 18:26:59.097588-07:00,807.7,895.7,1390.3,935.6,726.6,485.3,1420.4,855.3,3467.4,3479.5,690.5,883.1,409.0,3480.7,758.7,736.5,3481.9,3481.9,389.5,545.0,395.7,483.7,258.4,260.7,3488.0,3477.1,563.4,471.1,726.6,969.6,1222.2,476.6,0.0,3.0,0.0,10089.0,11145.0,5668.0,3210.0,5.0,-3.0,-4.0,-3.0,-1.0,5.0,11625.0,11451.0,1371.0,-544.0,0.0,-6.0,0.0,1.0
2022-05-08 18:26:59.186890-07:00,807.7,895.7,1388.5,939.0,726.6,485.3,1438.7,858.7,3467.4,3479.5,684.8,888.2,409.0,3480.7,758.7,735.6,3480.7,3472.2,389.5,545.0,395.7,484.5,258.4,260.7,3479.5,3479.5,563.4,471.1,726.6,972.2,1222.2,476.6,-2.0,0.0,0.0,10085.0,11146.0,5671.0,3211.0,17.0,15.0,4.0,-4.0,1.0,7.0,11623.0,11453.0,1371.0,-543.0,14.0,9.0,5.0,1.0
2022-05-08 18:26:59.188680-07:00,801.9,888.2,1388.5,939.0,729.9,480.6,1438.7,858.7,3475.9,3481.9,684.8,888.2,407.5,3496.6,758.7,735.6,3480.7,3472.2,385.6,552.2,395.7,484.5,266.0,263.0,3479.5,3479.5,559.4,469.5,726.6,972.2,1228.4,479.8,5.0,3.0,-6.0,10079.0,11149.0,5677.0,3213.0,25.0,16.0,-4.0,0.0,0.0,0.0,11618.0,11457.0,1373.0,-542.0,16.0,10.0,1.0,1.0
2022-05-08 18:26:59.247292-07:00,801.9,888.2,1389.4,946.6,729.9,480.6,1423.1,858.7,3475.9,3481.9,690.5,886.5,407.5,3496.6,753.8,731.5,3478.3,3483.2,385.6,552.2,398.9,490.1,266.0,263.0,3474.6,3477.1,559.4,469.5,725.8,971.3,1228.4,479.8,-2.0,1.0,-12.0,10075.0,11153.0,5678.0,3211.0,6.0,-7.0,1.0,-4.0,5.0,-3.0,11614.0,11462.0,1374.0,-541.0,9.0,2.0,1.0,1.0
2022-05-08 18:26:59.306500-07:00,804.4,888.2,1390.3,946.6,727.4,482.2,1423.1,858.7,3477.1,3478.3,686.4,886.5,411.4,3502.7,753.8,731.5,3478.3,3483.2,384.0,543.4,398.9,482.2,263.0,260.7,3474.6,3477.1,559.4,474.3,725.8,966.2,1222.2,477.4,-1.0,10.0,-9.0,10073.0,11155.0,5678.0,3209.0,10.0,-12.0,-8.0,-3.0,1.0,-1.0,11614.0,11462.0,1374.0,-541.0,8.0,-4.0,-7.0,1.0
2022-05-08 18:26:59.367262-07:00,804.4,888.2,1390.3,946.6,727.4,479.0,1417.6,856.2,3477.1,3478.3,686.4,890.7,411.4,3497.8,757.1,731.5,3483.2,3480.7,387.2,543.4,391.8,482.2,263.0,260.7,3477.1,3477.1,563.4,474.3,729.0,966.2,1222.2,477.4,-4.0,-1.0,-5.0,10074.0,11154.0,5681.0,3203.0,1.0,-16.0,-14.0,-6.0,-4.0,0.0,11614.0,11461.0,1378.0,-544.0,1.0,-7.0,-10.0,1.0
2022-05-08 18:26:59.397261-07:00,806.9,894.1,1386.6,946.6,726.6,479.0,1417.6,856.2,3474.6,3472.2,689.7,890.7,411.4,3497.8,757.1,731.5,3483.2,3480.7,387.2,544.2,391.8,486.1,269.9,263.7,3477.1,3477.1,563.4,474.3,729.0,972.2,1229.3,478.2,-4.0,0.0,5.0,10077.0,11155.0,5677.0,3197.0,-2.0,-14.0,6.0,-3.0,0.0,4.0,11614.0,11461.0,1373.0,-549.0,-3.0,-13.0,2.0,1.0
2022-05-08 18:26:59.486876-07:00,806.9,894.1,1386.6,948.3,726.6,476.6,1405.8,853.7,3474.6,3472.2,689.7,889.0,411.4,3501.4,753.8,735.6,3484.4,3477.1,388.7,544.2,395.0,486.1,269.9,263.7,3484.4,3486.8,566.6,474.3,726.6,972.2,1229.3,478.2,0.0,5.0,1.0,10075.0,11158.0,5676.0,3194.0,20.0,4.0,-7.0,-3.0,2.0,3.0,11613.0,11462.0,1373.0,-549.0,12.0,1.0,-6.0,1.0
2022-05-08 18:26:59.488106-07:00,811.9,889.8,1391.2,948.3,727.4,476.6,1405.8,853.7,3467.4,3480.7,683.1,889.0,407.5,3501.4,753.8,735.6,3484.4,3477.1,388.7,546.6,395.0,486.9,260.7,266.0,3484.4,3486.8,566.6,471.1,726.6,973.1,1218.6,475.8,-3.0,2.0,-1.0,10073.0,11160.0,5677.0,3193.0,9.0,1.0,3.0,-8.0,1.0,4.0,11611.0,11464.0,1373.0,-549.0,10.0,3.0,-1.0,1.0
2022-05-08 18:26:59.547431-07:00,811.9,889.8,1391.2,934.7,727.4,480.6,1413.1,854.5,3467.4,3480.7,683.1,895.7,407.5,3502.7,748.0,737.3,3479.5,3481.9,390.3,546.6,387.9,486.9,260.7,266.0,3488.0,3475.9,565.8,471.1,731.5,973.1,1218.6,475.8,-4.0,2.0,-6.0,10070.0,11163.0,5677.0,3192.0,6.0,3.0,-5.0,-6.0,1.0,0.0,11610.0,11466.0,1373.0,-549.0,8.0,6.0,-8.0,1.0
2022-05-08 18:26:59.667108-07:00,809.4,894.9,1389.4,943.2,729.9,480.6,1413.1,854.5,3472.2,3477.1,684.0,889.8,411.4,3502.7,748.0,737.3,3479.5,3481.9,390.3,545.0,395.7,486.9,256.1,260.7,3488.0,3475.9,565.8,471.1,724.9,972.2,1225.7,477.4,1.0,3.0,-3.0,10070.0,11162.0,5679.0,3193.0,4.0,6.0,2.0,0.0,3.0,1.0,11610.0,11466.0,1375.0,-548.0,3.0,4.0,0.0,1.0
2022-05-08 18:26:59.668417-07:00,809.4,894.9,1389.4,943.2,727.4,479.0,1419.5,854.5,3472.2,3477.1,684.0,889.8,412.1,3500.2,756.3,731.5,3477.1,3475.9,389.5,542.6,395.7,486.9,256.1,260.7,3473.4,3480.7,556.2,471.1,724.9,972.2,1225.7,477.4,-2.0,-2.0,-2.0,10069.0,11162.0,5679.0,3194.0,4.0,12.0,1.0,-4.0,0.0,-2.0,11610.0,11466.0,1375.0,-548.0,0.0,6.0,0.0,1.0
2022-05-08 18:26:59.726771-07:00,806.9,891.5,1398.5,944.1,727.4,479.0,1419.5,854.5,3478.3,3473.4,692.1,889.8,412.1,3500.2,756.3,731.5,3477.1,3475.9,389.5,542.6,393.4,488.5,262.2,255.3,3473.4,3480.7,556.2,471.1,726.6,970.5,1225.7,480.6,2.0,2.0,-3.0,10071.0,11160.0,5679.0,3195.0,-12.0,1.0,0.0,-3.0,0.0,0.0,11611.0,11464.0,1375.0,-548.0,-12.0,-1.0,6.0,1.0
2022-05-08 18:26:59.756518-07:00,806.9,891.5,1398.5,944.1,724.9,476.6,1412.2,856.2,3478.3,3473.4,692.1,889.8,408.2,3500.2,753.8,739.7,3472.2,3478.3,389.5,543.4,393.4,488.5,262.2,255.3,3479.5,3480.7,565.0,467.9,726.6,970.5,1225.7,480.6,-1.0,4.0,0.0,10072.0,11159.0,5678.0,3195.0,-13.0,0.0,-7.0,-7.0,3.0,3.0,11613.0,11462.0,1375.0,-547.0,-13.0,3.0,1.0,1.0
2022-05-08 18:26:59.787225-07:00,807.7,889.8,1382.1,937.3,724.9,476.6,1412.2,856.2,3479.5,3479.5,690.5,889.8,408.2,3500.2,753.8,739.7,3472.2,3478.3,389.5,543.4,395.7,486.1,259.2,257.6,3479.5,3480.7,565.0,467.9,724.1,975.6,1228.4,477.4,-2.0,1.0,-3.0,10077.0,11155.0,5677.0,3198.0,-27.0,1.0,7.0,-2.0,1.0,5.0,11619.0,11457.0,1375.0,-547.0,-23.0,3.0,7.0,1.0
2022-05-08 18:26:59.847167-07:00,807.7,889.8,1382.1,937.3,726.6,479.8,1419.5,855.3,3479.5,3479.5,690.5,889.8,407.5,3500.2,752.9,734.8,3478.3,3480.7,386.4,547.4,395.7,486.1,259.2,257.6,3480.7,3488.0,556.2,464.8,724.1,975.6,1228.4,477.4,0.0,3.0,-11.0,10084.0,11149.0,5675.0,3201.0,-11.0,5.0,-4.0,-2.0,1.0,0.0,11625.0,11450.0,1375.0,-546.0,-17.0,1.0,4.0,1.0
2022-05-08 18:26:59.906712-07:00,805.2,902.5,1389.4,952.6,726.6,479.8,1419.5,854.5,3473.4,3480.7,684.8,887.3,407.5,3500.2,752.9,733.2,3479.5,3480.7,386.4,547.4,395.7,486.9,259.9,259.9,3478.3,3488.0,556.2,464.8,724.9,969.6,1222.2,477.4,-1.0,0.0,-5.0,10088.0,11145.0,5674.0,3203.0,-20.0,-6.0,4.0,-4.0,3.0,1.0,11631.0,11444.0,1376.0,-545.0,-20.0,-4.0,5.0,1.0
2022-05-08 18:26:59.937198-07:00,803.5,902.5,1389.4,952.6,729.0,475.8,1419.5,854.5,3473.4,3480.7,684.8,887.3,409.0,3499.0,749.6,733.2,3479.5,3478.3,388.7,545.0,395.7,486.9,259.9,263.7,3478.3,3483.2,559.4,468.7,724.9,969.6,1222.2,477.4,-4.0,7.0,-2.0,10094.0,11141.0,5670.0,3204.0,-8.0,-10.0,-10.0,-7.0,2.0,2.0,11636.0,11439.0,1376.0,-545.0,-11.0,-3.0,0.0,1.0
2022-05-08 18:27:00.026938-07:00,803.5,890.7,1393.0,942.4,729.0,475.8,1419.5,851.1,3473.4,3474.6,690.5,891.5,409.0,3499.0,749.6,736.5,3477.1,3478.3,388.7,545.0,394.2,484.5,258.4,263.7,3477.1,3483.2,559.4,468.7,724.1,971.3,1216.8,477.4,-1.0,-2.0,2.0,10096.0,11141.0,5670.0,3200.0,-2.0,-10.0,3.0,-3.0,-1.0,8.0,11636.0,11439.0,1376.0,-545.0,-2.0,-8.0,-2.0,1.0
2022-05-08 18:27:00.057101-07:00,805.2,890.7,1393.0,942.4,729.0,473.5,1415.8,851.1,3478.3,3474.6,690.5,891.5,405.9,3494.1,754.6,736.5,3477.1,3486.8,389.5,545.8,394.2,484.5,258.4,264.5,3477.1,3481.9,563.4,467.9,724.1,971.3,1216.8,479.0,-2.0,8.0,8.0,10095.0,11142.0,5669.0,3199.0,18.0,6.0,-8.0,-1.0,2.0,11.0,11636.0,11439.0,1376.0,-545.0,8.0,9.0,-3.0,1.0
2022-05-08 18:27:00.087268-07:00,805.2,894.1,1389.4,930.5,729.0,473.5,1415.8,857.0,3478.3,3475.9,686.4,884.8,405.9,3494.1,754.6,734.8,3484.4,3486.8,389.5,545.8,390.3,484.5,263.0,264.5,3479.5,3481.9,563.4,467.9,721.6,972.2,1221.3,479.0,-5.0,-1.0,2.0,10087.0,11146.0,5675.0,3201.0,17.0,36.0,2.0,-6.0,-4.0,4.0,11631.0,11444.0,1380.0,-541.0,18.0,23.0,0.0,1.0
2022-05-08 18:27:00.147117-07:00,804.4,894.1,1389.4,930.5,721.6,482.2,1413.1,857.0,3474.6,3475.9,686.4,884.8,410.6,3489.2,752.9,734.8,3484.4,3484.4,387.2,545.8,390.3,484.5,263.0,266.8,3479.5,3475.9,565.0,470.3,721.6,972.2,1221.3,486.9,0.0,7.0,-15.0,10076.0,11150.0,5685.0,3206.0,22.0,22.0,-5.0,-6.0,2.0,-9.0,11623.0,11451.0,1388.0,-534.0,21.0,21.0,-2.0,1.0
2022-05-08 18:27:00.206640-07:00,804.4,890.7,1385.7,939.8,721.6,482.2,1420.4,862.9,3474.6,3468.6,688.9,890.7,410.6,3489.2,751.3,729.9,3474.6,3483.2,387.2,545.8,388.7,483.0,264.5,266.8,3480.7,3481.9,565.0,470.3,729.9,969.6,1223.9,486.9,0.0,-2.0,-14.0,10071.0,11153.0,5687.0,3205.0,15.0,-19.0,-4.0,-3.0,1.0,-3.0,11620.0,11454.0,1391.0,-532.0,11.0,-6.0,-8.0,1.0
2022-05-08 18:27:00.237339-07:00,802.7,895.7,1385.7,939.8,724.9,479.0,1420.4,862.9,3484.4,3474.6,688.9,890.7,406.7,3495.3,751.3,729.9,3474.6,3483.2,387.9,547.4,388.7,483.0,258.4,259.2,3480.7,3481.9,562.6,467.9,729.9,969.6,1219.5,479.0,-4.0,-1.0,3.0,10071.0,11155.0,5685.0,3202.0,-5.0,-1.0,-1.0,-4.0,-4.0,8.0,11619.0,11455.0,1390.0,-533.0,3.0,-3.0,4.0,1.0
2022-05-08 18:27:00.297711-07:00,802.7,895.7,1389.4,945.8,724.9,479.0,1423.1,857.0,3484.4,3474.6,690.5,887.3,406.7,3495.3,757.1,730.7,3477.1,3488.0,387.9,547.4,396.5,493.2,258.4,259.2,3475.9,3474.6,562.6,467.9,729.9,970.5,1219.5,479.0,-2.0,9.0,3.0,10071.0,11155.0,5685.0,3202.0,-4.0,-1.0,-3.0,-3.0,6.0,9.0,11619.0,11455.0,1390.0,-533.0,-4.0,1.0,4.0,1.0
2022-05-08 18:27:00.356631-07:00,805.2,892.4,1389.4,945.8,725.8,479.8,1423.1,857.0,3480.7,3474.6,690.5,887.3,404.3,3497.8,757.1,730.7,3477.1,3488.0,387.2,543.4,396.5,493.2,266.8,261.4,3475.9,3474.6,561.8,470.3,729.9,970.5,1221.3,475.8,-2.0,2.0,0.0,10071.0,11155.0,5685.0,3202.0,-4.0,6.0,-4.0,-7.0,0.0,2.0,11619.0,11455.0,1392.0,-532.0,-4.0,10.0,2.0,1.0
2022-05-08 18:27:00.387249-07:00,805.2,892.4,1390.3,943.2,725.8,479.8,1422.2,852.0,3480.7,3474.6,687.2,885.6,404.3,3497.8,754.6,738.9,3483.2,3480.7,387.2,543.4,397.3,483.7,266.8,261.4,3472.2,3481.9,561.8,470.3,725.8,968.8,1221.3,475.8,-3.0,-1.0,-11.0,10069.0,11154.0,5689.0,3205.0,-9.0,9.0,3.0,-7.0,-2.0,0.0,11620.0,11454.0,1392.0,-531.0,-10.0,1.0,4.0,1.0
2022-05-08 18:27:00.477131-07:00,806.9,896.6,1390.3,943.2,725.8,479.0,1422.2,852.0,3467.4,3475.9,687.2,885.6,408.2,3494.1,754.6,738.9,3483.2,3480.7,388.7,544.2,397.3,483.7,261.4,256.1,3472.2,3481.9,563.4,467.1,725.8,968.8,1225.7,482.2,-4.0,0.0,-7.0,10070.0,11155.0,5687.0,3204.0,-5.0,-16.0,0.0,-6.0,-2.0,0.0,11620.0,11454.0,1391.0,-532.0,-4.0,-11.0,3.0,1.0
2022-05-08 18:27:00.506978-07:00,806.9,896.6,1390.3,944.1,725.8,478.2,1414.0,858.7,3467.4,3475.9,691.3,887.3,408.2,3494.1,750.5,731.5,3469.8,3478.3,384.0,544.2,394.2,480.6,261.4,256.1,3469.8,3477.1,557.8,467.1,725.8,973.9,1225.7,482.2,-1.0,4.0,0.0,10073.0,11156.0,5682.0,3198.0,2.0,-22.0,3.0,-2.0,0.0,3.0,11621.0,11453.0,1388.0,-535.0,-3.0,-10.0,2.0,1.0
2022-05-08 18:27:00.567106-07:00,801.0,894.9,1385.7,944.1,727.4,478.2,1414.0,858.7,3468.6,3471.0,684.8,887.3,408.2,3494.1,750.5,731.5,3469.8,3478.3,384.0,543.4,394.2,490.1,264.5,263.0,3469.8,3477.1,557.8,467.9,725.8,969.6,1223.0,488.5,0.0,6.0,10.0,10074.0,11157.0,5679.0,3195.0,2.0,-4.0,5.0,-4.0,4.0,10.0,11621.0,11453.0,1387.0,-536.0,-1.0,-2.0,3.0,1.0
2022-05-08 18:27:00.596838-07:00,801.0,894.9,1385.7,942.4,727.4,473.5,1412.2,854.5,3468.6,3471.0,684.8,884.8,408.2,3491.7,747.2,740.6,3472.2,3483.2,384.8,543.4,395.0,490.1,264.5,263.0,3479.5,3472.2,564.2,467.9,726.6,969.6,1223.0,488.5,-3.0,0.0,-2.0,10074.0,11157.0,5679.0,3195.0,5.0,9.0,-2.0,-5.0,-3.0,6.0,11621.0,11453.0,1389.0,-534.0,6.0,10.0,3.0,1.0
2022-05-08 18:27:00.627357-07:00,808.5,890.7,1389.4,942.4,729.9,473.5,1412.2,854.5,3474.6,3474.6,686.4,884.8,407.5,3491.7,747.2,740.6,3472.2,3483.2,384.8,548.2,395.0,483.0,258.4,261.4,3479.5,3472.2,564.2,470.3,726.6,970.5,1221.3,480.6,-3.0,5.0,-10.0,10074.0,11157.0,5680.0,3195.0,4.0,6.0,1.0,-6.0,2.0,-2.0,11621.0,11453.0,1389.0,-534.0,5.0,2.0,2.0,1.0
2022-05-08 18:27:00.687631-07:00,808.5,890.7,1389.4,939.8,729.9,478.2,1409.4,858.7,3474.6,3474.6,686.4,891.5,407.5,3497.8,750.5,741.4,3479.5,3474.6,386.4,548.2,393.4,483.0,258.4,261.4,3483.2,3480.7,561.0,470.3,725.8,970.5,1221.3,480.6,-5.0,-1.0,-4.0,10075.0,11157.0,5678.0,3194.0,-1.0,-13.0,4.0,-5.0,1.0,-1.0,11621.0,11453.0,1388.0,-535.0,-2.0,-9.0,4.0,1.0
2022-05-08 18:27:00.777615-07:00,807.7,899.1,1393.9,939.8,724.1,478.2,1409.4,858.7,3478.3,3472.2,691.3,891.5,407.5,3497.8,750.5,741.4,3479.5,3474.6,386.4,544.2,393.4,483.0,256.1,257.6,3483.2,3480.7,561.0,468.7,725.8,972.2,1218.6,475.8,0.0,6.0,1.0,10077.0,11159.0,5674.0,3191.0,-8.0,-12.0,-1.0,-4.0,2.0,6.0,11621.0,11453.0,1386.0,-537.0,-7.0,-3.0,2.0,1.0
2022-05-08 18:27:00.778640-07:00,807.7,899.1,1393.9,944.9,726.6,476.6,1411.3,851.1,3478.3,3472.2,691.3,885.6,410.6,3489.2,755.4,734.0,3485.6,3480.7,384.8,545.0,396.5,483.0,256.1,257.6,3475.9,3478.3,565.0,470.3,724.1,972.2,1218.6,475.8,-2.0,1.0,1.0,10077.0,11159.0,5674.0,3190.0,-2.0,8.0,1.0,-2.0,0.0,8.0,11621.0,11453.0,1386.0,-537.0,0.0,8.0,5.0,1.0
2022-05-08 18:27:00.837478-07:00,802.7,888.2,1389.4,943.2,726.6,476.6,1411.3,851.1,3473.4,3467.4,685.6,888.2,410.6,3489.2,755.4,734.0,3485.6,3480.7,384.8,545.0,393.4,486.9,259.2,263.7,3475.9,3478.3,565.0,470.3,724.9,969.6,1216.0,479.0,-4.0,1.0,-1.0,10077.0,11158.0,5675.0,3192.0,-9.0,18.0,0.0,-8.0,2.0,5.0,11621.0,11453.0,1389.0,-534.0,-6.0,12.0,6.0,1.0
2022-05-08 18:27:00.897069-07:00,802.7,888.2,1389.4,943.2,718.4,479.8,1416.7,852.8,3473.4,3467.4,685.6,888.2,409.8,3492.9,751.3,738.9,3479.5,3475.9,387.9,544.2,393.4,486.9,259.2,263.7,3474.6,3484.4,560.2,465.6,724.9,969.6,1216.0,479.0,0.0,3.0,-13.0,10074.0,11157.0,5679.0,3197.0,-7.0,12.0,3.0,-7.0,5.0,-4.0,11621.0,11453.0,1393.0,-530.0,-11.0,8.0,5.0,1.0
2022-05-08 18:27:00.927000-07:00,805.2,897.4,1384.8,943.2,718.4,479.8,1416.7,852.8,3477.1,3474.6,690.5,889.0,409.8,3492.9,751.3,738.9,3479.5,3475.9,387.9,544.2,396.5,482.2,259.2,263.0,3474.6,3484.4,560.2,465.6,724.1,974.8,1224.8,481.4,-3.0,2.0,-13.0,10081.0,11152.0,5675.0,3197.0,-23.0,-23.0,-1.0,-9.0,2.0,0.0,11628.0,11446.0,1391.0,-531.0,-29.0,-14.0,2.0,1.0
2022-05-08 18:27:01.017065-07:00,805.2,897.4,1384.8,943.2,727.4,476.6,1419.5,855.3,3477.1,3474.6,690.5,889.0,412.1,3507.5,751.3,728.2,3483.2,3471.0,387.2,546.6,396.5,482.2,259.2,263.0,3480.7,3480.7,564.2,474.3,724.1,974.8,1224.8,481.4,-2.0,4.0,3.0,10091.0,11148.0,5668.0,3195.0,-12.0,-13.0,-3.0,-1.0,0.0,14.0,11634.0,11440.0,1388.0,-534.0,-13.0,-9.0,2.0,1.0
2022-05-08 18:27:01.046784-07:00,803.5,891.5,1391.2,939.8,727.4,476.6,1419.5,855.3,3471.0,3475.9,684.0,889.8,412.1,3507.5,751.3,728.2,3483.2,3471.0,387.2,546.6,391.8,487.7,259.9,259.9,3480.7,3480.7,564.2,474.3,724.9,971.3,1220.4,479.8,-4.0,4.0,11.0,10096.0,11145.0,5665.0,3194.0,-10.0,8.0,0.0,-5.0,3.0,10.0,11638.0,11436.0,1388.0,-533.0,-6.0,8.0,1.0,1.0
2022-05-08 18:27:01.136948-07:00,806.9,891.5,1391.2,939.8,729.0,473.5,1418.6,858.7,3473.4,3475.9,684.0,889.8,409.0,3500.2,752.9,738.9,3477.1,3485.6,385.6,545.8,391.8,487.7,259.9,257.6,3477.1,3477.1,563.4,468.7,724.9,971.3,1220.4,473.5,-3.0,1.0,-1.0,10092.0,11144.0,5671.0,3198.0,13.0,16.0,-10.0,-2.0,-2.0,9.0,11635.0,11439.0,1392.0,-530.0,13.0,13.0,-5.0,1.0
2022-05-08 18:27:01.138764-07:00,806.9,906.7,1388.5,939.8,729.0,473.5,1418.6,857.0,3473.4,3472.2,687.2,887.3,409.0,3500.2,752.9,734.0,3483.2,3485.6,385.6,545.8,392.6,484.5,261.4,257.6,3481.9,3477.1,563.4,468.7,728.2,973.1,1209.7,473.5,-3.0,0.0,3.0,10086.0,11149.0,5675.0,3197.0,26.0,18.0,2.0,-8.0,-1.0,1.0,11629.0,11444.0,1397.0,-525.0,26.0,19.0,-2.0,1.0
2022-05-08 18:27:01.196730-07:00,806.9,906.7,1388.5,939.8,724.1,483.7,1420.4,857.0,3467.4,3472.2,687.2,887.3,405.1,3499.0,753.8,734.0,3483.2,3486.8,389.5,543.4,392.6,484.5,261.4,259.9,3481.9,3488.0,562.6,486.9,728.2,973.1,1209.7,477.4,-2.0,4.0,-10.0,10075.0,11154.0,5681.0,3198.0,17.0,8.0,6.0,-5.0,0.0,0.0,11620.0,11453.0,1399.0,-524.0,24.0,6.0,-1.0,1.0
2022-05-08 18:27:01.226953-07:00,806.9,891.5,1392.1,944.9,724.1,483.7,1420.4,855.3,3467.4,3473.4,686.4,888.2,405.1,3499.0,753.8,743.9,3478.3,3486.8,389.5,543.4,391.8,483.0,262.2,259.9,3477.1,3488.0,562.6,486.9,727.4,970.5,1228.4,477.4,-1.0,8.0,-7.0,10067.0,11162.0,5683.0,3194.0,30.0,-4.0,2.0,-6.0,5.0,0.0,11612.0,11461.0,1399.0,-525.0,24.0,2.0,-1.0,1.0
2022-05-08 18:27:01.317102-07:00,804.4,891.5,1392.1,944.9,727.4,475.8,1414.0,855.3,3473.4,3473.4,686.4,888.2,411.4,3494.1,748.0,743.9,3478.3,3477.1,389.5,545.8,391.8,483.0,262.2,263.7,3477.1,3479.5,557.0,467.1,727.4,970.5,1228.4,481.4,3.0,4.0,1.0,10063.0,11166.0,5684.0,3192.0,11.0,-1.0,-4.0,0.0,1.0,3.0,11610.0,11464.0,1399.0,-525.0,8.0,0.0,-2.0,1.0
2022-05-08 18:27:01.346930-07:00,804.4,887.3,1386.6,939.0,727.4,475.8,1418.6,852.8,3473.4,3477.1,688.9,892.4,411.4,3494.1,754.6,738.1,3475.9,3479.5,389.5,545.8,395.0,487.7,264.5,263.7,3492.9,3484.4,557.0,467.1,721.6,975.6,1223.0,481.4,-5.0,0.0,-1.0,10061.0,11167.0,5684.0,3191.0,4.0,7.0,0.0,-8.0,0.0,3.0,11610.0,11464.0,1399.0,-525.0,0.0,5.0,1.0,1.0
2022-05-08 18:27:01.406783-07:00,808.5,895.7,1386.6,939.0,726.6,482.2,1418.6,852.8,3478.3,3477.1,688.9,892.4,408.2,3502.7,754.6,738.1,3475.9,3479.5,384.8,543.4,395.0,487.7,261.4,276.0,3492.9,3484.4,563.4,471.1,721.6,975.6,1224.8,477.4,2.0,2.0,-7.0,10061.0,11167.0,5685.0,3191.0,-4.0,0.0,-2.0,-2.0,1.0,-1.0,11610.0,11464.0,1399.0,-525.0,-4.0,-1.0,0.0,1.0
2022-05-08 18:27:01.437280-07:00,808.5,895.7,1404.0,941.5,726.6,482.2,1414.9,851.1,3478.3,3477.1,684.8,886.5,408.2,3502.7,751.3,728.2,3480.7,3480.7,384.8,543.4,395.0,489.3,261.4,276.0,3477.1,3481.9,563.4,471.1,723.3,967.9,1224.8,477.4,-4.0,-3.0,1.0,10064.0,11165.0,5683.0,3191.0,-8.0,-2.0,0.0,-7.0,-4.0,3.0,11612.0,11462.0,1399.0,-525.0,-6.0,-6.0,4.0,1.0
2022-05-08 18:27:01.497191-07:00,805.2,895.7,1404.0,941.5,724.9,475.8,1414.9,851.1,3483.2,3475.9,684.8,886.5,407.5,3492.9,751.3,728.2,3480.7,3480.7,392.6,547.4,395.0,489.3,264.5,263.0,3477.1,3481.9,562.6,472.7,723.3,967.9,1216.8,480.6,2.0,1.0,4.0,10067.0,11164.0,5681.0,3190.0,-16.0,-9.0,0.0,-2.0,0.0,2.0,11614.0,11459.0,1399.0,-525.0,-14.0,-6.0,4.0,1.0
2022-05-08 18:27:01.526949-07:00,805.2,895.7,1387.5,939.8,724.9,475.8,1414.0,855.3,3483.2,3475.9,692.9,881.4,407.5,3492.9,754.6,737.3,3479.5,3472.2,392.6,547.4,391.1,485.3,264.5,263.0,3484.4,3488.0,562.6,472.7,723.3,968.8,1216.8,480.6,-8.0,5.0,1.0,10069.0,11163.0,5680.0,3192.0,2.0,-9.0,6.0,-6.0,2.0,4.0,11616.0,11458.0,1398.0,-523.0,-5.0,3.0,5.0,1.0
2022-05-08 18:27:01.588047-07:00,806.9,895.7,1387.5,939.8,733.2,480.6,1414.0,855.3,3472.2,3478.3,692.9,881.4,410.6,3496.6,754.6,737.3,3479.5,3472.2,392.6,543.4,391.1,485.3,263.0,261.4,3484.4,3488.0,561.8,471.1,723.3,968.8,1216.8,478.2,0.0,-1.0,-6.0,10069.0,11162.0,5681.0,3193.0,2.0,6.0,1.0,-3.0,2.0,1.0,11616.0,11458.0,1398.0,-523.0,1.0,-3.0,3.0,1.0
2022-05-08 18:27:01.676939-07:00,806.9,895.7,1385.7,939.0,733.2,476.6,1417.6,848.6,3472.2,3478.3,683.1,889.8,410.6,3499.0,753.8,734.0,3478.3,3477.1,387.2,543.4,391.8,486.9,263.0,261.4,3481.9,3481.9,561.8,471.1,725.8,971.3,1216.8,478.2,6.0,10.0,2.0,10074.0,11161.0,5676.0,3190.0,-12.0,-25.0,0.0,1.0,3.0,4.0,11618.0,11456.0,1396.0,-525.0,-9.0,-12.0,0.0,1.0
2022-05-08 18:27:01.678200-07:00,808.5,894.1,1386.6,939.0,725.8,476.6,1417.6,848.6,3464.9,3472.2,686.4,889.8,407.5,3499.0,753.8,734.0,3478.3,3477.1,387.2,542.6,391.8,486.9,261.4,260.7,3481.9,3481.9,561.8,468.7,725.8,971.3,1219.5,480.6,-5.0,-2.0,9.0,10075.0,11161.0,5675.0,3187.0,1.0,-4.0,-4.0,-5.0,-4.0,9.0,11618.0,11456.0,1395.0,-525.0,2.0,0.0,0.0,1.0
2022-05-08 18:27:01.737298-07:00,808.5,894.1,1386.6,942.4,725.8,478.2,1411.3,862.1,3464.9,3472.2,686.4,883.1,407.5,3501.4,749.6,735.6,3477.1,3488.0,387.9,542.6,391.8,486.9,261.4,260.7,3483.2,3483.2,565.0,468.7,729.0,971.3,1219.5,480.6,0.0,10.0,2.0,10075.0,11161.0,5675.0,3187.0,0.0,5.0,0.0,0.0,4.0,5.0,11618.0,11456.0,1395.0,-525.0,0.0,6.0,-3.0,1.0
2022-05-08 18:27:01.797137-07:00,799.4,888.2,1390.3,942.4,726.6,478.2,1411.3,862.1,3469.8,3467.4,685.6,883.1,405.9,3501.4,749.6,735.6,3477.1,3488.0,387.9,543.4,391.8,484.5,263.0,263.0,3483.2,3483.2,565.0,471.1,729.0,973.9,1222.2,478.2,-3.0,0.0,2.0,10074.0,11162.0,5676.0,3187.0,11.0,11.0,-4.0,-7.0,-4.0,7.0,11618.0,11456.0,1395.0,-525.0,6.0,13.0,0.0,1.0
2022-05-08 18:27:01.887011-07:00,799.4,888.2,1390.3,940.7,726.6,475.0,1413.1,854.5,3469.8,3467.4,685.6,884.8,405.9,3507.5,751.3,735.6,3477.1,3473.4,386.4,543.4,390.3,484.5,263.0,263.0,3483.2,3477.1,561.0,471.1,729.0,973.9,1222.2,478.2,1.0,6.0,-10.0,10071.0,11162.0,5680.0,3190.0,5.0,7.0,2.0,-2.0,6.0,-3.0,11617.0,11456.0,1398.0,-523.0,1.0,4.0,1.0,1.0
2022-05-08 18:27:01.888375-07:00,804.4,889.8,1388.5,940.7,728.2,475.0,1413.1,854.5,3475.9,3475.9,685.6,884.8,411.4,3507.5,751.3,735.6,3477.1,3473.4,386.4,548.2,390.3,483.7,260.7,264.5,3483.2,3477.1,561.0,466.4,729.0,973.9,1202.7,483.0,-1.0,1.0,-6.0,10071.0,11162.0,5679.0,3189.0,5.0,-13.0,2.0,-5.0,-1.0,0.0,11617.0,11456.0,1398.0,-523.0,1.0,-6.0,0.0,1.0
2022-05-08 18:27:01.947031-07:00,804.4,889.8,1388.5,935.6,724.9,476.6,1411.3,858.7,3475.9,3475.9,685.6,890.7,411.4,3494.1,756.3,734.8,3490.5,3477.1,387.9,549.0,392.6,483.7,260.7,264.5,3484.4,3481.9,560.2,469.5,724.9,973.9,1202.7,483.0,-1.0,6.0,6.0,10072.0,11162.0,5677.0,3187.0,-5.0,-12.0,4.0,-4.0,1.0,7.0,11617.0,11456.0,1398.0,-523.0,0.0,-4.0,2.0,1.0
2022-05-08 18:27:01.976603-07:00,807.7,894.1,1381.2,941.5,724.9,476.6,1411.3,858.7,3471.0,3477.1,688.9,887.3,411.4,3494.1,756.3,734.8,3490.5,3477.1,387.9,549.0,393.4,486.9,260.7,262.2,3484.4,3481.9,560.2,469.5,727.4,978.2,1223.9,486.9,-6.0,0.0,3.0,10072.0,11163.0,5677.0,3187.0,11.0,8.0,-7.0,-6.0,-2.0,9.0,11617.0,11456.0,1399.0,-522.0,6.0,13.0,-2.0,1.0
2022-05-08 18:27:02.036796-07:00,807.7,894.1,1381.2,941.5,732.3,483.0,1418.6,860.4,3471.0,3477.1,688.9,887.3,404.3,3508.8,752.1,742.2,3483.2,3480.7,386.4,547.4,393.4,486.9,260.7,262.2,3475.9,3480.7,558.6,467.9,727.4,978.2,1223.9,486.9,-3.0,-3.0,-5.0,10071.0,11163.0,5678.0,3188.0,3.0,14.0,1.0,-5.0,-1.0,0.0,11617.0,11456.0,1399.0,-522.0,1.0,6.0,2.0,1.0
2022-05-08 18:27:02.097862-07:00,804.4,895.7,1385.7,943.2,732.3,483.0,1418.6,860.4,3469.8,3477.1,687.2,903.4,404.3,3508.8,752.1,742.2,3483.2,3480.7,386.4,547.4,388.7,486.9,258.4,263.0,3475.9,3480.7,558.6,467.9,728.2,973.1,1223.0,473.5,1.0,5.0,4.0,10070.0,11162.0,5679.0,3189.0,-10.0,-4.0,-1.0,-3.0,2.0,4.0,11618.0,11455.0,1399.0,-521.0,-11.0,0.0,2.0,1.0
2022-05-08 18:27:02.156949-07:00,804.4,895.7,1385.7,943.2,727.4,477.4,1419.5,852.8,3469.8,3477.1,687.2,903.4,409.8,3496.6,752.1,738.9,3481.9,3472.2,387.2,543.4,388.7,486.9,258.4,263.0,3485.6,3483.2,563.4,471.9,728.2,973.1,1223.0,473.5,-4.0,-1.0,1.0,10071.0,11162.0,5680.0,3190.0,5.0,9.0,-3.0,-8.0,0.0,0.0,11618.0,11455.0,1401.0,-520.0,4.0,14.0,1.0,1.0
2022-05-08 18:27:02.246847-07:00,802.7,893.2,1391.2,939.8,727.4,477.4,1419.5,852.8,3478.3,3479.5,680.7,885.6,409.8,3496.6,752.1,738.9,3481.9,3472.2,387.2,543.4,395.0,486.9,259.2,261.4,3485.6,3483.2,563.4,471.9,726.6,973.9,1218.6,476.6,2.0,10.0,-8.0,10070.0,11161.0,5681.0,3192.0,-1.0,-4.0,8.0,-2.0,4.0,-2.0,11618.0,11455.0,1401.0,-520.0,4.0,1.0,2.0,1.0
2022-05-08 18:27:02.248186-07:00,801.9,893.2,1391.2,939.8,726.6,479.0,1412.2,858.7,3479.5,3479.5,680.7,885.6,404.3,3500.2,750.5,737.3,3480.7,3480.7,385.6,547.4,395.0,486.9,259.2,263.0,3477.1,3484.4,557.8,474.3,726.6,973.9,1218.6,482.2,0.0,0.0,-3.0,10070.0,11161.0,5681.0,3191.0,2.0,-17.0,-5.0,-5.0,0.0,3.0,11618.0,11455.0,1400.0,-521.0,-1.0,-9.0,-4.0,1.0
2022-05-08 18:27:02.276833-07:00,801.9,896.6,1388.5,936.4,726.6,479.0,1412.2,854.5,3479.5,3474.6,692.9,887.3,404.3,3500.2,750.5,735.6,3475.9,3480.7,385.6,547.4,391.8,486.9,261.4,263.0,3484.4,3484.4,557.8,474.3,718.4,971.3,1223.9,482.2,-2.0,10.0,0.0,10070.0,11162.0,5679.0,3189.0,8.0,-10.0,2.0,-4.0,3.0,9.0,11618.0,11455.0,1400.0,-521.0,5.0,-5.0,1.0,1.0
2022-05-08 18:27:02.336637-07:00,807.7,896.6,1388.5,936.4,721.6,480.6,1419.5,854.5,3486.8,3474.6,692.9,887.3,405.9,3491.7,752.9,735.6,3475.9,3471.0,384.8,545.8,391.8,486.9,261.4,261.4,3484.4,3477.1,556.2,467.9,718.4,971.3,1223.9,478.2,-2.0,0.0,8.0,10071.0,11163.0,5677.0,3187.0,6.0,7.0,-1.0,-4.0,-1.0,8.0,11618.0,11455.0,1400.0,-521.0,2.0,1.0,-3.0,1.0
2022-05-08 18:27:02.426845-07:00,807.7,892.4,1387.5,942.4,721.6,480.6,1419.5,857.0,3486.8,3480.7,688.0,883.9,405.9,3491.7,752.9,733.2,3483.2,3471.0,384.8,545.8,406.7,483.7,259.9,261.4,3481.9,3477.1,556.2,467.9,723.3,973.1,1217.7,478.2,0.0,-1.0,0.0,10069.0,11164.0,5679.0,3188.0,2.0,15.0,-3.0,-7.0,0.0,2.0,11618.0,11455.0,1402.0,-519.0,2.0,10.0,1.0,1.0
2022-05-08 18:27:02.429250-07:00,811.9,892.4,1387.5,942.4,727.4,480.6,1414.9,857.0,3474.6,3480.7,688.0,883.9,403.5,3497.8,751.3,733.2,3483.2,3479.5,387.2,548.2,406.7,483.7,259.9,263.7,3481.9,3477.1,565.0,468.7,723.3,973.1,1217.7,476.6,0.0,8.0,-8.0,10067.0,11163.0,5683.0,3191.0,9.0,-2.0,6.0,-4.0,0.0,-1.0,11618.0,11455.0,1403.0,-518.0,2.0,5.0,1.0,1.0
2022-05-08 18:27:02.516782-07:00,811.9,889.0,1388.5,939.8,727.4,480.6,1414.9,853.7,3474.6,3477.1,679.9,884.8,403.5,3497.8,751.3,729.9,3474.6,3479.5,387.2,548.2,391.8,481.4,263.7,263.7,3485.6,3477.1,565.0,468.7,725.8,973.1,1222.2,476.6,1.0,3.0,-2.0,10067.0,11163.0,5683.0,3191.0,4.0,-2.0,-6.0,-4.0,-1.0,1.0,11618.0,11455.0,1403.0,-518.0,2.0,-4.0,-3.0,1.0
2022-05-08 18:27:02.546966-07:00,802.7,888.2,1388.5,939.8,726.6,479.0,1413.1,853.7,3480.7,3479.5,679.9,884.8,411.4,3491.7,752.1,729.9,3474.6,3479.5,392.6,543.4,391.8,481.4,263.0,263.0,3485.6,3480.7,566.6,466.4,725.8,973.1,1223.9,474.3,0.0,3.0,2.0,10067.0,11163.0,5683.0,3191.0,1.0,-9.0,2.0,-6.0,2.0,0.0,11618.0,11455.0,1403.0,-518.0,5.0,-4.0,4.0,1.0
2022-05-08 18:27:02.576569-07:00,802.7,888.2,1385.7,943.2,726.6,479.0,1411.3,853.7,3480.7,3479.5,688.0,881.4,411.4,3491.7,753.8,731.5,3478.3,3467.4,392.6,543.4,393.4,485.3,263.0,263.0,3484.4,3479.5,566.6,466.4,729.0,972.2,1223.9,474.3,0.0,5.0,3.0,10067.0,11163.0,5683.0,3191.0,-1.0,-4.0,-1.0,-4.0,0.0,5.0,11618.0,11455.0,1403.0,-518.0,-2.0,-1.0,-1.0,1.0
2022-05-08 18:27:02.697270-07:00,806.9,889.8,1385.7,943.2,722.5,480.6,1411.3,853.7,3478.3,3467.4,688.0,881.4,405.9,3502.7,753.8,731.5,3478.3,3467.4,387.2,545.0,393.4,485.3,258.4,262.2,3484.4,3479.5,563.4,467.1,729.0,972.2,1224.8,475.0,-4.0,4.0,2.0,10067.0,11163.0,5683.0,3191.0,-3.0,0.0,-3.0,-6.0,-1.0,8.0,11618.0,11455.0,1403.0,-518.0,-7.0,3.0,-2.0,1.0
2022-05-08 18:27:02.698587-07:00,806.9,889.8,1389.4,942.4,722.5,480.6,1416.7,855.3,3478.3,3467.4,688.9,888.2,405.9,3502.7,751.3,734.0,3474.6,3474.6,387.2,545.0,395.0,483.7,258.4,262.2,3474.6,3484.4,563.4,467.1,727.4,973.1,1224.8,475.0,-3.0,5.0,-4.0,10066.0,11162.0,5685.0,3194.0,8.0,16.0,-2.0,-2.0,0.0,5.0,11618.0,11455.0,1403.0,-518.0,5.0,2.0,1.0,1.0
2022-05-08 18:27:02.727304-07:00,806.0,894.9,1389.4,942.4,726.6,475.8,1416.7,855.3,3478.3,3474.6,688.9,888.2,409.0,3497.8,751.3,734.0,3474.6,3474.6,391.1,549.0,395.0,483.7,261.4,263.7,3474.6,3484.4,562.6,470.3,727.4,973.1,1216.8,475.8,-1.0,0.0,2.0,10066.0,11162.0,5685.0,3194.0,-1.0,-1.0,-2.0,-7.0,0.0,-1.0,11618.0,11455.0,1403.0,-518.0,-3.0,6.0,3.0,1.0
2022-05-08 18:27:02.787552-07:00,806.0,894.9,1390.3,959.4,726.6,475.8,1415.8,858.7,3478.3,3474.6,687.2,889.8,409.0,3497.8,743.9,734.8,3478.3,3481.9,391.1,549.0,397.3,488.5,261.4,263.7,3488.0,3477.1,562.6,470.3,720.8,974.8,1216.8,475.8,-1.0,2.0,-4.0,10065.0,11161.0,5687.0,3197.0,5.0,6.0,2.0,-6.0,0.0,2.0,11618.0,11455.0,1403.0,-518.0,1.0,4.0,0.0,1.0
2022-05-08 18:27:02.847082-07:00,806.0,891.5,1382.1,959.4,728.2,479.8,1415.8,858.7,3472.2,3478.3,692.9,889.8,409.8,3506.3,743.9,734.8,3478.3,3481.9,389.5,548.2,397.3,484.5,260.7,266.0,3488.0,3477.1,561.8,468.7,720.8,973.1,1227.5,477.4,-1.0,0.0,-4.0,10065.0,11161.0,5687.0,3197.0,-4.0,-6.0,-5.0,-3.0,0.0,-1.0,11618.0,11455.0,1403.0,-518.0,-5.0,-2.0,-2.0,1.0
2022-05-08 18:27:02.876907-07:00,806.0,891.5,1382.1,940.7,728.2,480.6,1421.3,850.3,3472.2,3478.3,692.9,888.2,409.8,3502.7,758.7,736.5,3489.2,3475.9,389.5,548.2,391.8,484.5,260.7,266.0,3474.6,3477.1,557.8,468.7,725.8,973.1,1227.5,477.4,-2.0,4.0,6.0,10067.0,11162.0,5683.0,3193.0,-3.0,-15.0,0.0,-4.0,1.0,6.0,11618.0,11455.0,1403.0,-518.0,-3.0,-3.0,0.0,1.0
2022-05-08 18:27:02.997279-07:00,809.4,881.4,1387.5,940.7,723.3,480.6,1421.3,850.3,3483.2,3478.3,685.6,888.2,406.7,3502.7,758.7,736.5,3489.2,3475.9,389.5,546.6,391.8,486.9,261.4,260.7,3474.6,3477.1,557.8,470.3,725.8,973.1,1216.8,478.2,-4.0,6.0,1.0,10067.0,11162.0,5683.0,3193.0,5.0,12.0,5.0,-7.0,0.0,8.0,11618.0,11455.0,1403.0,-518.0,-3.0,3.0,1.0,1.0
2022-05-08 18:27:02.998755-07:00,809.4,881.4,1387.5,941.5,723.3,486.9,1421.3,853.7,3483.2,3478.3,685.6,886.5,406.7,3495.3,748.0,734.0,3481.9,3474.6,387.9,546.6,388.7,486.9,261.4,260.7,3481.9,3477.1,563.4,470.3,725.8,973.1,1216.8,478.2,0.0,4.0,-3.0,10067.0,11162.0,5683.0,3193.0,4.0,1.0,-7.0,-3.0,3.0,0.0,11618.0,11455.0,1403.0,-518.0,-4.0,1.0,-1.0,1.0
2022-05-08 18:27:03.056980-07:00,805.2,893.2,1385.7,941.5,729.9,486.9,1421.3,853.7,3475.9,3483.2,685.6,886.5,407.5,3495.3,748.0,734.0,3481.9,3474.6,387.9,540.2,388.7,481.4,261.4,261.4,3481.9,3477.1,563.4,467.9,725.8,967.9,1220.4,478.2,-2.0,3.0,2.0,10068.0,11161.0,5683.0,3193.0,-1.0,-1.0,5.0,-6.0,-2.0,3.0,11619.0,11455.0,1403.0,-518.0,2.0,0.0,4.0,1.0
2022-05-08 18:27:03.086803-07:00,805.2,893.2,1385.7,939.8,729.9,476.6,1416.7,868.8,3475.9,3483.2,685.6,889.8,407.5,3500.2,756.3,737.3,3473.4,3477.1,387.9,540.2,395.0,481.4,261.4,261.4,3473.4,3480.7,562.6,467.9,725.8,967.9,1220.4,478.2,0.0,1.0,2.0,10068.0,11161.0,5683.0,3193.0,1.0,0.0,-6.0,-5.0,4.0,3.0,11619.0,11455.0,1403.0,-518.0,0.0,8.0,1.0,1.0
2022-05-08 18:27:03.146654-07:00,807.7,895.7,1389.4,941.5,724.1,476.6,1416.7,868.8,3478.3,3478.3,689.7,892.4,405.9,3500.2,756.3,737.3,3473.4,3477.1,387.9,545.0,391.8,483.7,259.9,259.2,3473.4,3480.7,562.6,467.1,728.2,973.1,1219.5,476.6,-4.0,2.0,-3.0,10068.0,11161.0,5683.0,3193.0,-1.0,4.0,1.0,-6.0,0.0,0.0,11619.0,11455.0,1403.0,-518.0,-6.0,3.0,1.0,1.0
2022-05-08 18:27:03.176445-07:00,807.7,895.7,1389.4,941.5,724.1,476.6,1416.7,850.3,3478.3,3478.3,689.7,892.4,408.2,3499.0,743.9,737.3,3481.9,3477.1,387.2,545.0,391.8,483.7,259.9,259.2,3479.5,3483.2,559.4,465.6,728.2,973.1,1219.5,476.6,-1.0,7.0,-4.0,10068.0,11161.0,5683.0,3193.0,-2.0,0.0,0.0,-4.0,6.0,2.0,11619.0,11455.0,1403.0,-518.0,-2.0,-2.0,1.0,1.0
2022-05-08 18:27:03.236489-07:00,811.9,891.5,1386.6,943.2,724.1,476.6,1416.7,850.3,3472.2,3475.9,688.0,889.0,408.2,3499.0,743.9,737.3,3481.9,3477.1,387.2,545.0,391.8,485.3,263.7,263.0,3479.5,3483.2,559.4,465.6,724.9,984.2,1217.7,475.0,-1.0,3.0,3.0,10068.0,11161.0,5683.0,3193.0,6.0,-2.0,-4.0,-5.0,4.0,7.0,11619.0,11455.0,1403.0,-518.0,1.0,1.0,-3.0,1.0
2022-05-08 18:27:03.357002-07:00,811.9,891.5,1386.6,943.2,732.3,477.4,1426.8,849.5,3472.2,3475.9,688.0,889.0,405.9,3496.6,753.8,731.5,3475.9,3478.3,386.4,541.8,391.8,485.3,263.7,263.0,3488.0,3478.3,556.2,464.0,724.9,984.2,1217.7,475.0,-2.0,1.0,2.0,10068.0,11161.0,5683.0,3193.0,3.0,9.0,-2.0,-7.0,-3.0,9.0,11619.0,11455.0,1403.0,-518.0,3.0,5.0,0.0,1.0
2022-05-08 18:27:03.358684-07:00,806.0,886.5,1384.8,935.6,732.3,477.4,1426.8,849.5,3475.9,3473.4,685.6,883.9,405.9,3496.6,753.8,731.5,3475.9,3478.3,386.4,541.8,392.6,485.3,263.0,260.7,3488.0,3478.3,556.2,464.0,724.1,984.2,1216.0,478.2,-2.0,6.0,-6.0,10068.0,11161.0,5683.0,3193.0,1.0,-2.0,-2.0,-6.0,-2.0,0.0,11619.0,11455.0,1403.0,-518.0,1.0,2.0,-1.0,1.0
