Time,P0,P1,P2,P3,P4,P5,P6,P7,P8,P9,P10,P11,P12,P13,P14,P15,P16,P17,P18,P19,P20,P21,P22,P23,P24,P25,P26,P27,P28,P29,P30,P31,ECG,AX0,AY0,AZ0,QW0,QX0,QY0,QZ0,GX0,GY0,GZ0,AX1,AY1,AZ1,QW1,QX1,QY1,QZ1,GX1,GY1,GZ1
2022-05-08 17:31:33.081617-07:00,701.1,777.8,801.9,953.4,394.2,367.7,1029.7,822.7,3478.3,3468.6,1437.8,812.7,715.9,3462.5,1228.4,859.5,3445.5,3439.5,385.6,309.7,327.5,318.2,294.4,272.1,3461.3,3457.6,509.1,475.0,526.6,886.5,781.9,503.6,-10.0,-1.0,1.0,12031.0,-10185.0,-1412.0,4236.0,87.0,-81.0,5.0,-1.0,7.0,-2.0,4750.0,-7382.0,-9378.0,10170.0,74.0,-51.0,-20.0,1.0
2022-05-08 17:31:33.110111-07:00,701.1,779.4,802.7,949.2,394.2,367.7,1029.7,811.0,3478.3,3467.4,1432.3,811.0,715.9,3462.5,1228.4,857.9,3444.3,3439.5,385.6,309.7,324.4,320.5,292.1,272.1,3456.4,3457.6,509.1,475.0,523.4,887.3,773.6,503.6,-8.0,2.0,2.0,12057.0,-10142.0,-1427.0,4262.0,87.0,-90.0,-14.0,2.0,1.0,4.0,4760.0,-7357.0,-9365.0,10195.0,90.0,-49.0,-26.0,1.0
2022-05-08 17:31:33.169996-07:00,697.9,779.4,802.7,949.2,385.6,368.5,1019.4,811.0,3462.5,3467.4,1432.3,811.0,713.4,3462.5,1231.0,857.9,3444.3,3443.1,384.0,309.7,324.4,320.5,292.1,269.9,3456.4,3462.5,507.5,471.1,523.4,887.3,773.6,505.1,-4.0,-8.0,17.0,12074.0,-10106.0,-1455.0,4290.0,49.0,-119.0,2.0,4.0,4.0,5.0,4772.0,-7329.0,-9355.0,10219.0,59.0,-30.0,-25.0,1.0
2022-05-08 17:31:33.200441-07:00,697.9,781.9,801.9,950.0,385.6,368.5,1019.4,815.2,3462.5,3466.1,1427.7,810.2,713.4,3462.5,1231.0,857.9,3451.6,3443.1,384.0,309.7,328.2,318.2,291.3,269.9,3458.9,3462.5,507.5,471.1,518.7,883.1,770.3,505.1,-5.0,0.0,13.0,12087.0,-10073.0,-1481.0,4321.0,48.0,-57.0,-7.0,0.0,5.0,-3.0,4783.0,-7308.0,-9343.0,10240.0,59.0,-21.0,-12.0,1.0
2022-05-08 17:31:33.260102-07:00,698.7,775.3,801.9,950.0,391.1,366.9,1028.0,815.2,3464.9,3466.1,1427.7,810.2,711.8,3473.4,1224.8,857.9,3451.6,3439.5,384.8,311.3,328.2,318.2,285.9,275.2,3458.9,3462.5,503.6,466.4,518.7,883.1,774.5,505.9,-12.0,2.0,9.0,12102.0,-10049.0,-1489.0,4332.0,50.0,-36.0,-12.0,-5.0,6.0,8.0,4793.0,-7291.0,-9332.0,10257.0,55.0,-13.0,-12.0,1.0
2022-05-08 17:31:33.290832-07:00,698.7,775.3,797.7,949.2,391.1,366.9,1028.0,811.0,3464.9,3466.1,1435.0,806.9,711.8,3473.4,1223.9,859.5,3438.2,3449.1,384.8,311.3,322.1,319.0,285.9,275.2,3460.1,3460.1,503.6,466.4,521.8,888.2,774.5,505.9,-16.0,-12.0,5.0,12109.0,-10036.0,-1498.0,4341.0,6.0,-37.0,7.0,-4.0,-3.0,6.0,4800.0,-7282.0,-9327.0,10265.0,8.0,5.0,-6.0,1.0
2022-05-08 17:31:33.350347-07:00,706.0,778.6,797.7,949.2,388.7,363.1,1028.0,811.0,3457.6,3463.7,1435.0,806.9,712.6,3473.4,1223.9,859.5,3438.2,3449.1,384.8,314.4,322.1,319.0,286.7,265.3,3460.1,3460.1,505.1,462.4,521.8,888.2,769.5,501.2,-1.0,-6.0,0.0,12104.0,-10029.0,-1513.0,4365.0,-3.0,-59.0,16.0,2.0,9.0,-17.0,4803.0,-7279.0,-9323.0,10270.0,9.0,-16.0,-3.0,1.0
2022-05-08 17:31:33.410567-07:00,706.0,778.6,797.7,953.4,388.7,363.1,1033.2,811.9,3457.6,3463.7,1427.7,809.4,712.6,3473.4,1216.8,857.9,3443.1,3439.5,384.8,314.4,327.5,321.3,286.7,265.3,3473.4,3458.9,505.1,462.4,521.0,887.3,769.5,501.2,-13.0,-4.0,0.0,12103.0,-10021.0,-1526.0,4383.0,13.0,-85.0,17.0,-3.0,0.0,0.0,4802.0,-7271.0,-9321.0,10278.0,33.0,-23.0,-4.0,1.0
2022-05-08 17:31:33.441125-07:00,700.3,776.1,797.7,953.4,387.9,370.8,1033.2,811.9,3471.0,3467.4,1427.7,809.4,710.1,3463.7,1216.8,857.9,3443.1,3439.5,384.8,310.5,327.5,321.3,291.3,268.3,3473.4,3458.9,503.6,464.0,521.0,887.3,764.5,509.9,-14.0,-5.0,10.0,12093.0,-10012.0,-1552.0,4420.0,-14.0,-100.0,34.0,-6.0,1.0,5.0,4801.0,-7264.0,-9319.0,10284.0,11.0,-10.0,-4.0,1.0
2022-05-08 17:31:33.500085-07:00,700.3,776.1,798.5,964.5,387.9,370.8,1014.2,819.4,3471.0,3467.4,1425.9,807.7,710.1,3463.7,1220.4,851.1,3437.0,3445.5,384.8,310.5,330.5,324.4,291.3,268.3,3454.0,3460.1,503.6,464.0,524.2,884.8,764.5,509.9,-19.0,4.0,6.0,12089.0,-10001.0,-1565.0,4453.0,17.0,-61.0,30.0,-7.0,8.0,3.0,4800.0,-7257.0,-9315.0,10294.0,22.0,-20.0,-4.0,1.0
2022-05-08 17:31:33.560536-07:00,701.9,774.5,797.7,964.5,385.6,367.7,1014.2,819.4,3457.6,3464.9,1425.0,807.7,711.0,3468.6,1220.4,851.1,3437.0,3445.5,384.8,309.7,330.5,323.6,287.5,272.1,3454.0,3460.1,509.1,460.8,524.2,885.6,764.5,509.1,-7.0,7.0,1.0,12084.0,-9989.0,-1589.0,4483.0,13.0,-95.0,-12.0,0.0,10.0,3.0,4801.0,-7246.0,-9310.0,10305.0,34.0,-31.0,-14.0,1.0
2022-05-08 17:31:33.590899-07:00,701.9,774.5,797.7,960.2,385.6,369.3,1027.1,802.7,3457.6,3464.9,1425.0,811.9,711.0,3467.4,1218.6,856.2,3441.9,3455.2,388.7,309.7,323.6,323.6,287.5,272.1,3457.6,3460.1,509.9,460.8,521.0,885.6,764.5,509.1,-12.0,-9.0,7.0,12090.0,-9965.0,-1620.0,4512.0,59.0,-112.0,16.0,-5.0,-1.0,-5.0,4807.0,-7229.0,-9302.0,10322.0,76.0,-31.0,-7.0,1.0
2022-05-08 17:31:33.650774-07:00,699.5,777.8,798.5,960.2,389.5,369.3,1027.1,802.7,3466.1,3464.9,1432.3,811.9,711.8,3467.4,1218.6,856.2,3441.9,3455.2,388.7,310.5,323.6,324.4,292.1,265.3,3457.6,3460.1,509.9,459.3,521.0,883.1,761.2,500.4,-12.0,9.0,-4.0,12091.0,-9943.0,-1641.0,4547.0,8.0,-104.0,12.0,-7.0,12.0,-6.0,4809.0,-7214.0,-9291.0,10341.0,29.0,-32.0,-4.0,1.0
2022-05-08 17:31:33.710952-07:00,699.5,777.8,798.5,953.4,389.5,369.3,1016.8,797.7,3466.1,3464.9,1432.3,806.0,711.8,3462.5,1216.8,858.7,3441.9,3449.1,382.5,310.5,329.0,324.4,292.1,265.3,3461.3,3463.7,505.1,459.3,524.2,883.1,761.2,500.4,-7.0,1.0,8.0,12085.0,-9930.0,-1674.0,4582.0,15.0,-107.0,-8.0,-3.0,11.0,-6.0,4803.0,-7202.0,-9291.0,10352.0,31.0,-49.0,-7.0,1.0
2022-05-08 17:31:33.800505-07:00,703.6,777.8,787.7,953.4,392.6,369.3,1016.8,797.7,3468.6,3473.4,1423.1,806.0,711.8,3462.5,1216.8,858.7,3441.9,3449.1,382.5,310.5,329.0,319.0,286.7,269.1,3461.3,3463.7,505.1,459.3,524.2,881.4,763.7,498.8,-9.0,0.0,8.0,12094.0,-9903.0,-1696.0,4608.0,57.0,-96.0,4.0,-2.0,5.0,0.0,4801.0,-7181.0,-9284.0,10374.0,64.0,-45.0,-7.0,1.0
2022-05-08 17:31:33.830998-07:00,703.6,777.8,787.7,954.3,392.6,363.8,1008.2,801.0,3468.6,3473.4,1423.1,806.9,711.8,3472.2,1221.3,851.1,3452.8,3444.3,383.3,310.5,324.4,319.0,286.7,269.1,3452.8,3457.6,502.0,459.3,521.8,881.4,763.7,498.8,-9.0,-2.0,14.0,12106.0,-9872.0,-1715.0,4633.0,69.0,-77.0,-8.0,3.0,4.0,1.0,4805.0,-7159.0,-9272.0,10399.0,75.0,-44.0,-12.0,1.0
2022-05-08 17:31:33.890397-07:00,694.6,788.6,801.0,954.3,391.8,363.8,1008.2,801.0,3466.1,3457.6,1425.0,806.9,711.8,3472.2,1221.3,851.1,3452.8,3444.3,383.3,316.7,324.4,322.8,286.7,269.1,3452.8,3457.6,502.0,456.9,521.8,882.3,755.4,500.4,-7.0,0.0,6.0,12122.0,-9839.0,-1728.0,4656.0,69.0,-57.0,-7.0,-1.0,4.0,-1.0,4812.0,-7140.0,-9255.0,10423.0,74.0,-25.0,-10.0,1.0
2022-05-08 17:31:33.892465-07:00,694.6,788.6,801.0,952.6,384.8,360.0,1009.0,805.2,3466.1,3457.6,1425.0,811.9,706.9,3473.4,1208.0,859.5,3441.9,3438.2,387.2,312.0,329.8,322.8,286.7,269.1,3455.2,3458.9,505.9,462.4,521.8,882.3,755.4,500.4,-5.0,-3.0,9.0,12127.0,-9824.0,-1739.0,4673.0,10.0,-47.0,18.0,-2.0,3.0,-1.0,4815.0,-7132.0,-9248.0,10434.0,18.0,-12.0,-2.0,1.0
2022-05-08 17:31:33.950770-07:00,700.3,780.3,791.0,951.7,384.8,360.0,1009.0,805.2,3472.2,3467.4,1416.7,807.7,706.9,3473.4,1208.0,859.5,3441.9,3438.2,387.2,312.0,325.9,321.3,289.8,272.1,3455.2,3458.9,505.9,462.4,521.8,878.9,757.9,502.0,-9.0,-4.0,9.0,12128.0,-9820.0,-1745.0,4677.0,11.0,-11.0,-16.0,-4.0,2.0,6.0,4814.0,-7130.0,-9247.0,10436.0,15.0,-6.0,-9.0,1.0
2022-05-08 17:31:34.010334-07:00,700.3,780.3,791.0,951.7,394.2,364.6,1016.8,801.0,3472.2,3467.4,1416.7,807.7,709.3,3467.4,1214.2,856.2,3451.6,3445.5,379.4,319.0,325.9,321.3,289.8,272.1,3466.1,3456.4,505.1,458.5,521.8,878.9,757.9,502.0,-12.0,-12.0,6.0,12135.0,-9810.0,-1753.0,4676.0,23.0,-18.0,-11.0,-2.0,6.0,-3.0,4822.0,-7124.0,-9242.0,10441.0,20.0,-3.0,-12.0,1.0
2022-05-08 17:31:34.040522-07:00,701.1,776.1,789.4,950.9,394.2,364.6,1016.8,801.0,3467.4,3469.8,1411.3,806.0,709.3,3467.4,1214.2,856.2,3451.6,3445.5,379.4,319.0,323.6,321.3,288.2,266.8,3466.1,3456.4,505.1,458.5,527.4,881.4,758.7,498.0,-4.0,-11.0,8.0,12136.0,-9805.0,-1760.0,4682.0,-16.0,-19.0,0.0,2.0,1.0,-4.0,4824.0,-7123.0,-9239.0,10444.0,-6.0,-2.0,-4.0,1.0
2022-05-08 17:31:34.130393-07:00,701.1,776.1,789.4,950.9,385.6,360.0,1018.5,797.7,3467.4,3469.8,1411.3,806.0,703.6,3461.3,1215.1,856.2,3450.4,3441.9,380.9,309.7,323.6,321.3,288.2,266.8,3456.4,3464.9,504.4,457.7,527.4,881.4,758.7,498.0,-8.0,7.0,6.0,12141.0,-9796.0,-1762.0,4687.0,23.0,-15.0,-7.0,0.0,8.0,3.0,4827.0,-7118.0,-9233.0,10451.0,27.0,-7.0,-6.0,1.0
2022-05-08 17:31:34.160375-07:00,700.3,772.0,789.4,952.6,385.6,360.0,1018.5,797.7,3471.0,3461.3,1412.2,803.5,703.6,3461.3,1215.1,856.2,3450.4,3441.9,380.9,309.7,326.7,315.9,286.7,265.3,3456.4,3464.9,504.4,457.7,517.9,877.2,761.2,501.2,-7.0,-6.0,10.0,12141.0,-9794.0,-1769.0,4690.0,8.0,-19.0,1.0,-3.0,1.0,5.0,4828.0,-7118.0,-9232.0,10451.0,7.0,-6.0,-3.0,1.0
2022-05-08 17:31:34.190793-07:00,697.9,772.0,789.4,952.6,392.6,363.1,1012.5,796.0,3467.4,3461.3,1412.2,803.5,705.2,3457.6,1214.2,858.7,3449.1,3444.3,386.4,312.0,326.7,315.9,286.7,272.1,3462.5,3466.1,517.9,457.7,517.9,877.2,761.2,501.2,-11.0,0.0,12.0,12141.0,-9794.0,-1768.0,4689.0,-6.0,13.0,3.0,0.0,8.0,0.0,4828.0,-7118.0,-9232.0,10451.0,-5.0,8.0,4.0,1.0
2022-05-08 17:31:34.250350-07:00,697.9,764.5,787.7,952.6,392.6,363.1,1012.5,800.2,3467.4,3458.9,1411.3,806.0,705.2,3457.6,1214.2,853.7,3445.5,3444.3,386.4,312.0,327.5,324.4,291.3,272.1,3458.9,3466.1,517.9,457.7,525.0,883.9,754.6,501.2,-12.0,-5.0,-1.0,12139.0,-9799.0,-1764.0,4685.0,-3.0,2.0,10.0,-7.0,3.0,-4.0,4831.0,-7123.0,-9231.0,10448.0,4.0,15.0,7.0,1.0
2022-05-08 17:31:34.310436-07:00,701.9,764.5,787.7,952.6,387.2,357.6,1008.2,800.2,3473.4,3458.9,1411.3,806.0,701.1,3462.5,1209.7,853.7,3445.5,3449.1,389.5,315.1,327.5,324.4,291.3,266.0,3458.9,3473.4,505.9,455.3,525.0,883.9,754.6,498.8,-17.0,-4.0,4.0,12136.0,-9802.0,-1764.0,4686.0,-5.0,0.0,-3.0,-3.0,9.0,2.0,4831.0,-7124.0,-9232.0,10446.0,-1.0,0.0,-3.0,1.0
2022-05-08 17:31:34.340826-07:00,701.9,769.5,791.0,951.7,387.2,357.6,1008.2,797.7,3473.4,3473.4,1408.5,804.4,701.1,3462.5,1209.7,857.9,3446.7,3449.1,389.5,315.1,322.1,321.3,289.0,266.0,3462.5,3473.4,505.9,455.3,503.6,883.9,764.5,498.8,-14.0,-4.0,1.0,12138.0,-9797.0,-1768.0,4690.0,-3.0,-18.0,-6.0,-4.0,3.0,-6.0,4832.0,-7122.0,-9230.0,10449.0,-8.0,-7.0,-2.0,1.0
2022-05-08 17:31:34.400728-07:00,698.7,769.5,791.0,951.7,391.1,360.0,1010.8,797.7,3466.1,3473.4,1408.5,804.4,703.6,3474.6,1217.7,857.9,3446.7,3446.7,389.5,313.6,322.1,321.3,289.0,267.6,3462.5,3461.3,509.1,457.7,503.6,883.9,764.5,498.8,-9.0,0.0,9.0,12136.0,-9798.0,-1770.0,4693.0,-10.0,-12.0,9.0,2.0,8.0,4.0,4831.0,-7122.0,-9231.0,10449.0,-9.0,0.0,2.0,1.0
2022-05-08 17:31:34.460343-07:00,698.7,776.9,787.7,950.9,391.1,360.0,1010.8,797.7,3466.1,3468.6,1410.3,806.0,703.6,3474.6,1217.7,859.5,3447.9,3446.7,389.5,313.6,330.5,319.0,285.9,267.6,3464.9,3461.3,509.1,457.7,537.8,887.3,760.4,498.8,-10.0,2.0,5.0,12135.0,-9797.0,-1773.0,4697.0,12.0,2.0,-1.0,0.0,12.0,-7.0,4832.0,-7121.0,-9229.0,10450.0,7.0,-3.0,-3.0,1.0
2022-05-08 17:31:34.490942-07:00,701.9,776.9,787.7,950.9,395.7,362.3,1013.3,797.7,3471.0,3468.6,1410.3,806.0,703.6,3478.3,1216.8,859.5,3447.9,3447.9,386.4,315.9,330.5,319.0,285.9,272.1,3464.9,3456.4,502.8,464.8,537.8,887.3,760.4,501.2,-9.0,-3.0,1.0,12137.0,-9794.0,-1773.0,4698.0,-7.0,-13.0,-6.0,0.0,7.0,-5.0,4832.0,-7121.0,-9228.0,10451.0,-14.0,-3.0,-4.0,1.0
2022-05-08 17:31:34.550636-07:00,701.9,775.3,786.9,948.3,395.7,362.3,1007.3,796.0,3471.0,3463.7,1408.5,801.9,703.6,3478.3,1210.6,861.2,3440.7,3440.7,386.4,315.9,326.7,320.5,286.7,272.1,3458.9,3447.9,502.8,464.8,521.8,882.3,760.4,501.2,-10.0,-5.0,-1.0,12134.0,-9796.0,-1774.0,4701.0,2.0,-17.0,15.0,-3.0,1.0,-2.0,4831.0,-7121.0,-9230.0,10450.0,4.0,2.0,3.0,1.0
2022-05-08 17:31:34.610432-07:00,699.5,770.3,786.9,948.3,392.6,363.1,1007.3,796.0,3466.1,3462.5,1408.5,801.9,706.0,3474.6,1210.6,861.2,3440.7,3440.7,384.8,314.4,326.7,320.5,283.6,266.0,3458.9,3447.9,502.0,457.7,521.8,882.3,762.0,500.4,-10.0,0.0,3.0,12133.0,-9795.0,-1775.0,4705.0,3.0,-14.0,-3.0,-1.0,9.0,0.0,4831.0,-7120.0,-9229.0,10451.0,12.0,-8.0,-4.0,1.0
2022-05-08 17:31:34.640860-07:00,699.5,770.3,786.9,951.7,392.6,363.1,1009.9,796.0,3466.1,3462.5,1408.5,802.7,706.0,3474.6,1201.8,858.7,3441.9,3440.7,384.8,314.4,317.4,321.3,283.6,266.0,3468.6,3458.9,502.0,457.7,525.0,883.1,762.0,500.4,-12.0,-4.0,5.0,12133.0,-9789.0,-1783.0,4715.0,7.0,-44.0,13.0,0.0,6.0,-4.0,4830.0,-7115.0,-9228.0,10456.0,14.0,-14.0,-2.0,1.0
2022-05-08 17:31:34.700344-07:00,698.7,773.6,786.9,951.7,384.8,361.5,1009.9,796.0,3468.6,3457.6,1408.5,802.7,710.1,3458.9,1201.8,858.7,3441.9,3440.7,391.1,311.3,317.4,321.3,286.7,266.8,3468.6,3458.9,500.4,460.0,525.0,883.1,762.0,494.8,-17.0,-5.0,2.0,12131.0,-9785.0,-1790.0,4724.0,-4.0,-21.0,5.0,-5.0,0.0,5.0,4826.0,-7110.0,-9229.0,10460.0,-3.0,-19.0,-3.0,1.0
2022-05-08 17:31:34.790488-07:00,698.7,773.6,791.0,953.4,384.8,361.5,1011.6,794.4,3468.6,3457.6,1404.9,807.7,710.1,3458.9,1210.6,852.8,3439.5,3447.9,391.1,311.3,326.7,325.1,286.7,266.8,3457.6,3463.7,500.4,460.0,525.0,887.3,762.0,494.8,-10.0,-3.0,13.0,12130.0,-9779.0,-1801.0,4734.0,1.0,-30.0,10.0,-2.0,0.0,2.0,4823.0,-7103.0,-9229.0,10466.0,4.0,-19.0,-2.0,1.0
2022-05-08 17:31:34.792973-07:00,701.1,775.3,791.0,953.4,388.7,363.1,1011.6,794.4,3467.4,3467.4,1404.9,807.7,702.8,3466.1,1210.6,852.8,3439.5,3447.9,384.0,309.0,326.7,325.1,291.3,269.1,3457.6,3463.7,503.6,459.3,525.0,887.3,768.7,498.0,-9.0,2.0,12.0,12128.0,-9778.0,-1808.0,4739.0,-8.0,-10.0,-4.0,-1.0,6.0,1.0,4820.0,-7100.0,-9231.0,10468.0,5.0,-10.0,-5.0,1.0
2022-05-08 17:31:34.850003-07:00,701.1,775.3,786.9,949.2,388.7,361.5,1006.5,801.9,3467.4,3467.4,1404.0,808.5,702.8,3463.7,1202.7,858.7,3443.1,3440.7,387.9,309.0,325.1,319.7,291.3,269.1,3468.6,3464.9,502.8,459.3,523.4,879.7,768.7,498.0,-7.0,-2.0,12.0,12128.0,-9779.0,-1808.0,4738.0,0.0,-1.0,-2.0,2.0,0.0,1.0,4820.0,-7100.0,-9231.0,10468.0,3.0,-2.0,0.0,1.0
2022-05-08 17:31:34.910338-07:00,700.3,770.3,786.9,949.2,387.2,361.5,1006.5,801.9,3467.4,3468.6,1392.1,808.5,707.7,3463.7,1202.7,858.7,3443.1,3440.7,387.9,309.0,325.1,321.3,289.0,272.1,3468.6,3464.9,502.8,456.9,523.4,879.7,756.3,498.0,-6.0,-4.0,2.0,12125.0,-9782.0,-1810.0,4738.0,-10.0,-9.0,8.0,3.0,3.0,-8.0,4819.0,-7100.0,-9233.0,10467.0,-9.0,5.0,4.0,1.0
2022-05-08 17:31:35.000422-07:00,700.3,770.3,786.9,951.7,387.2,360.7,1006.5,805.2,3467.4,3468.6,1392.1,801.9,707.7,3469.8,1208.9,859.5,3440.7,3447.9,384.8,309.0,324.4,321.3,289.0,272.1,3462.5,3456.4,502.0,456.9,521.8,879.7,756.3,498.0,-12.0,1.0,5.0,12125.0,-9782.0,-1810.0,4738.0,3.0,-2.0,-2.0,-2.0,4.0,-2.0,4819.0,-7100.0,-9233.0,10467.0,9.0,-3.0,2.0,1.0
2022-05-08 17:31:35.001309-07:00,699.5,769.5,783.6,951.7,388.7,360.7,1006.5,805.2,3462.5,3467.4,1397.6,801.9,698.7,3469.8,1208.9,859.5,3440.7,3447.9,384.8,306.7,324.4,324.4,291.3,262.2,3462.5,3456.4,502.0,457.7,521.8,883.9,758.7,499.6,-13.0,-2.0,8.0,12125.0,-9782.0,-1812.0,4739.0,-2.0,-12.0,-2.0,-5.0,2.0,2.0,4819.0,-7100.0,-9232.0,10468.0,8.0,-6.0,0.0,1.0
2022-05-08 17:31:35.060505-07:00,699.5,769.5,783.6,953.4,388.7,359.2,1001.3,791.0,3462.5,3467.4,1397.6,803.5,698.7,3464.9,1205.3,858.7,3445.5,3441.9,392.6,306.7,327.5,324.4,291.3,262.2,3463.7,3460.1,502.8,457.7,517.1,883.9,758.7,499.6,-16.0,-3.0,11.0,12125.0,-9781.0,-1813.0,4740.0,1.0,-9.0,7.0,0.0,5.0,4.0,4819.0,-7100.0,-9232.0,10468.0,-2.0,8.0,3.0,1.0
2022-05-08 17:31:35.090736-07:00,695.4,767.0,780.3,953.4,388.7,359.2,1001.3,791.0,3467.4,3471.0,1397.6,803.5,705.2,3464.9,1205.3,858.7,3445.5,3441.9,392.6,313.6,327.5,318.2,285.9,269.1,3463.7,3460.1,502.8,456.9,517.1,889.0,747.2,498.0,-15.0,-7.0,3.0,12120.0,-9784.0,-1816.0,4745.0,-5.0,-12.0,13.0,-5.0,0.0,-2.0,4818.0,-7101.0,-9234.0,10466.0,2.0,-2.0,4.0,1.0
2022-05-08 17:31:35.150037-07:00,695.4,767.0,780.3,951.7,388.7,367.7,1000.5,794.4,3467.4,3471.0,1397.6,805.2,705.2,3466.1,1211.5,856.2,3437.0,3449.1,387.9,313.6,323.6,318.2,285.9,269.1,3463.7,3472.2,504.4,456.9,520.3,889.0,747.2,498.0,-18.0,3.0,4.0,12122.0,-9778.0,-1820.0,4751.0,3.0,-26.0,-5.0,-5.0,0.0,2.0,4820.0,-7098.0,-9230.0,10471.0,14.0,-13.0,-3.0,1.0
2022-05-08 17:31:35.210386-07:00,697.9,770.3,781.1,955.1,388.7,367.7,1000.5,794.4,3467.4,3462.5,1399.4,812.7,701.1,3466.1,1211.5,856.2,3437.0,3449.1,387.9,313.6,325.9,317.4,289.0,262.2,3463.7,3472.2,504.4,454.5,523.4,884.8,754.6,495.6,-14.0,-2.0,-7.0,12124.0,-9773.0,-1827.0,4754.0,10.0,-16.0,1.0,-6.0,10.0,-5.0,4822.0,-7095.0,-9227.0,10474.0,4.0,-4.0,-4.0,1.0
2022-05-08 17:31:35.240983-07:00,697.9,770.3,781.1,955.1,387.9,363.1,1004.8,796.0,3467.4,3462.5,1399.4,812.7,695.4,3466.1,1208.0,852.8,3444.3,3444.3,383.3,315.1,325.9,317.4,289.0,262.2,3455.2,3467.4,505.1,457.7,523.4,884.8,754.6,495.6,-16.0,-14.0,1.0,12120.0,-9767.0,-1838.0,4771.0,8.0,-56.0,29.0,-5.0,-1.0,-4.0,4821.0,-7093.0,-9226.0,10476.0,11.0,-15.0,-1.0,1.0
2022-05-08 17:31:35.333888-07:00,692.1,778.6,787.7,951.7,387.9,363.1,1004.8,796.0,3468.6,3475.9,1396.7,803.5,695.4,3466.1,1208.0,852.8,3444.3,3444.3,383.3,315.1,326.7,318.2,287.5,270.6,3455.2,3467.4,505.1,457.7,520.3,872.1,762.0,498.0,-11.0,-7.0,4.0,12117.0,-9751.0,-1852.0,4805.0,40.0,-77.0,36.0,-1.0,3.0,-10.0,4822.0,-7083.0,-9220.0,10488.0,31.0,-27.0,4.0,1.0
2022-05-08 17:31:35.360483-07:00,692.1,778.6,787.7,951.7,386.4,361.5,1003.9,794.4,3468.6,3475.9,1396.7,803.5,702.8,3466.1,1207.1,854.5,3454.0,3434.6,384.8,309.7,326.7,318.2,287.5,270.6,3472.2,3456.4,498.8,458.5,520.3,872.1,762.0,498.0,-8.0,-2.0,-1.0,12119.0,-9726.0,-1872.0,4844.0,36.0,-77.0,21.0,0.0,2.0,-15.0,4820.0,-7066.0,-9215.0,10505.0,45.0,-47.0,0.0,1.0
2022-05-08 17:31:35.390864-07:00,698.7,772.8,775.3,956.8,386.4,361.5,1003.9,794.4,3472.2,3468.6,1395.7,805.2,702.8,3466.1,1207.1,854.5,3454.0,3434.6,384.8,309.7,320.5,319.7,289.8,269.9,3472.2,3456.4,498.8,458.5,520.3,880.6,754.6,503.6,-10.0,16.0,14.0,12133.0,-9701.0,-1877.0,4857.0,71.0,-24.0,-14.0,0.0,6.0,11.0,4819.0,-7047.0,-9206.0,10527.0,74.0,-56.0,3.0,1.0
2022-05-08 17:31:35.450438-07:00,698.7,772.8,775.3,956.8,389.5,361.5,1011.6,790.2,3472.2,3468.6,1395.7,805.2,712.6,3468.6,1204.4,856.2,3444.3,3440.7,381.7,309.7,320.5,319.7,289.8,269.9,3457.6,3464.9,499.6,456.9,520.3,880.6,754.6,503.6,-10.0,0.0,23.0,12143.0,-9688.0,-1877.0,4857.0,-1.0,5.0,-15.0,1.0,5.0,7.0,4816.0,-7030.0,-9202.0,10542.0,-16.0,-12.0,-9.0,1.0
2022-05-08 17:31:35.510454-07:00,698.7,771.1,781.9,957.7,389.5,361.5,1011.6,794.4,3473.4,3478.3,1393.9,808.5,712.6,3468.6,1204.4,858.7,3435.8,3440.7,381.7,309.7,325.9,319.0,287.5,271.4,3447.9,3464.9,499.6,456.9,519.5,879.7,756.3,500.4,-7.0,3.0,20.0,12148.0,-9684.0,-1870.0,4856.0,-4.0,18.0,-9.0,3.0,3.0,10.0,4814.0,-7028.0,-9204.0,10543.0,5.0,9.0,5.0,1.0
2022-05-08 17:31:35.540924-07:00,697.9,771.1,781.9,957.7,392.6,364.6,1008.2,794.4,3469.8,3478.3,1393.9,808.5,700.3,3466.1,1205.3,858.7,3435.8,3445.5,384.8,311.3,325.9,319.0,287.5,267.6,3447.9,3460.1,507.5,460.0,519.5,879.7,756.3,494.8,-13.0,-7.0,-2.0,12150.0,-9684.0,-1872.0,4851.0,-4.0,1.0,-12.0,-4.0,-3.0,0.0,4815.0,-7029.0,-9203.0,10543.0,-2.0,4.0,-3.0,1.0
2022-05-08 17:31:35.600399-07:00,697.9,772.8,781.1,952.6,392.6,364.6,1008.2,792.7,3469.8,3463.7,1386.6,805.2,700.3,3466.1,1205.3,857.9,3441.9,3445.5,384.8,311.3,325.1,320.5,285.9,267.6,3464.9,3460.1,507.5,460.0,516.3,881.4,753.8,494.8,-14.0,-12.0,1.0,12147.0,-9687.0,-1874.0,4852.0,8.0,3.0,0.0,-4.0,-3.0,-4.0,4813.0,-7030.0,-9206.0,10541.0,15.0,-4.0,3.0,1.0
2022-05-08 17:31:35.660379-07:00,699.5,772.8,781.1,952.6,387.2,362.3,1006.5,792.7,3460.1,3463.7,1386.6,805.2,698.7,3467.4,1204.4,857.9,3441.9,3443.1,385.6,309.7,325.1,320.5,285.9,269.1,3464.9,3471.0,503.6,454.5,516.3,881.4,753.8,498.0,-12.0,-1.0,4.0,12149.0,-9684.0,-1874.0,4853.0,-6.0,-17.0,-12.0,-1.0,4.0,-2.0,4815.0,-7028.0,-9203.0,10543.0,1.0,-5.0,-8.0,1.0
2022-05-08 17:31:35.690942-07:00,699.5,764.5,776.9,950.0,387.2,362.3,1006.5,782.7,3460.1,3466.1,1397.6,791.0,698.7,3467.4,1204.4,855.3,3446.7,3443.1,385.6,309.7,323.6,320.5,282.9,269.1,3457.6,3471.0,503.6,454.5,513.9,878.0,762.0,498.0,-12.0,0.0,6.0,12147.0,-9683.0,-1877.0,4857.0,-10.0,-12.0,3.0,-5.0,3.0,4.0,4815.0,-7028.0,-9203.0,10543.0,-10.0,0.0,-1.0,1.0
2022-05-08 17:31:35.749905-07:00,697.0,764.5,776.9,950.0,387.2,363.1,1007.3,782.7,3464.9,3466.1,1397.6,791.0,701.9,3468.6,1208.9,855.3,3446.7,3454.0,388.7,309.0,323.6,320.5,282.9,265.3,3457.6,3457.6,505.9,456.9,513.9,878.0,762.0,497.2,-4.0,1.0,-2.0,12145.0,-9682.0,-1879.0,4865.0,-4.0,-9.0,10.0,1.0,9.0,-8.0,4815.0,-7028.0,-9203.0,10543.0,-12.0,2.0,0.0,1.0
2022-05-08 17:31:35.810407-07:00,697.0,764.5,772.0,954.3,387.2,363.1,1007.3,787.7,3464.9,3464.9,1378.5,799.4,701.9,3468.6,1208.9,858.7,3440.7,3454.0,388.7,309.0,325.9,319.0,290.5,265.3,3457.6,3457.6,505.9,456.9,519.5,875.5,756.3,497.2,-11.0,-17.0,-2.0,12141.0,-9682.0,-1882.0,4873.0,10.0,-37.0,25.0,-2.0,3.0,-11.0,4814.0,-7028.0,-9204.0,10543.0,5.0,-13.0,13.0,1.0
2022-05-08 17:31:35.840278-07:00,699.5,767.0,772.0,954.3,384.8,358.4,995.3,787.7,3473.4,3469.8,1378.5,799.4,711.8,3456.4,1199.1,858.7,3440.7,3445.5,384.8,310.5,325.9,319.0,288.2,264.5,3457.6,3455.2,502.8,459.3,519.5,875.5,751.3,498.0,-25.0,-24.0,-27.0,12116.0,-9693.0,-1893.0,4909.0,-51.0,-118.0,84.0,-13.0,16.0,-49.0,4801.0,-7032.0,-9211.0,10540.0,-32.0,-27.0,18.0,1.0
2022-05-08 17:31:35.900400-07:00,699.5,767.0,778.6,952.6,384.8,358.4,1002.2,784.4,3473.4,3469.8,1384.8,808.5,711.8,3456.4,1204.4,855.3,3443.1,3443.1,384.8,310.5,327.5,320.5,288.2,264.5,3462.5,3464.9,502.8,459.3,517.9,878.0,751.3,498.0,-54.0,-45.0,-54.0,12063.0,-9701.0,-1946.0,5002.0,-55.0,-349.0,135.0,-27.0,-31.0,-17.0,4758.0,-7032.0,-9244.0,10531.0,-72.0,-127.0,38.0,1.0
2022-05-08 17:31:35.960452-07:00,692.9,769.5,778.6,952.6,392.6,360.7,1002.2,784.4,3471.0,3463.7,1384.8,808.5,698.7,3468.6,1204.4,855.3,3443.1,3443.1,381.7,318.2,327.5,320.5,286.7,265.3,3462.5,3464.9,513.1,456.9,517.9,878.0,757.1,496.4,-33.0,9.0,-66.0,12068.0,-9596.0,-2072.0,5141.0,233.0,-513.0,-46.0,-27.0,23.0,-50.0,4720.0,-6952.0,-9237.0,10607.0,213.0,-297.0,-23.0,1.0
2022-05-08 17:31:36.050119-07:00,692.9,769.5,783.6,945.8,392.6,360.7,1022.8,787.7,3471.0,3463.7,1393.9,808.5,698.7,3468.6,1210.6,857.0,3449.1,3449.1,381.7,318.2,326.7,321.3,286.7,265.3,3471.0,3463.7,513.1,456.9,519.5,878.9,757.1,496.4,-57.0,-36.0,-9.0,12132.0,-9388.0,-2245.0,5299.0,473.0,-720.0,-67.0,-42.0,-37.0,0.0,4696.0,-6798.0,-9195.0,10753.0,444.0,-417.0,-13.0,1.0
2022-05-08 17:31:36.053289-07:00,698.7,771.1,783.6,945.8,388.7,361.5,1022.8,787.7,3462.5,3467.4,1393.9,808.5,699.5,3473.4,1210.6,857.0,3449.1,3449.1,389.5,309.0,326.7,321.3,290.5,265.3,3471.0,3463.7,513.1,460.8,519.5,878.9,758.7,496.4,-32.0,-73.0,57.0,12247.0,-9096.0,-2371.0,5484.0,747.0,-551.0,9.0,-36.0,-34.0,2.0,4676.0,-6602.0,-9075.0,10983.0,689.0,-487.0,86.0,1.0
2022-05-08 17:31:36.081900-07:00,698.7,771.1,782.7,952.6,388.7,361.5,1025.4,791.9,3462.5,3467.4,1393.9,798.5,699.5,3473.4,1203.5,855.3,3439.5,3447.9,389.5,309.0,324.4,319.7,290.5,265.3,3463.7,3468.6,513.1,460.8,511.5,879.7,758.7,496.4,-1.0,-34.0,64.0,12390.0,-8780.0,-2378.0,5672.0,732.0,-377.0,137.0,-12.0,-15.0,-4.0,4647.0,-6415.0,-8884.0,11259.0,719.0,-422.0,213.0,1.0
2022-05-08 17:31:36.170524-07:00,696.2,772.0,775.3,952.6,385.6,367.7,1025.4,791.9,3469.8,3468.6,1393.9,798.5,701.1,3466.1,1203.5,855.3,3439.5,3447.9,385.6,315.1,324.4,322.8,289.0,269.9,3463.7,3468.6,510.7,460.8,511.5,876.4,788.6,495.6,-21.0,8.0,40.0,12495.0,-8534.0,-2356.0,5826.0,582.0,-305.0,135.0,-13.0,4.0,16.0,4585.0,-6290.0,-8707.0,11491.0,558.0,-346.0,270.0,1.0
2022-05-08 17:31:36.200879-07:00,696.2,772.0,775.3,955.1,385.6,366.2,1032.3,794.4,3469.8,3468.6,1393.9,801.9,701.1,3468.6,1202.7,852.8,3451.6,3443.1,384.8,315.1,324.4,322.8,289.0,269.9,3466.1,3455.2,505.1,460.8,511.5,876.4,788.6,495.6,-10.0,24.0,15.0,12653.0,-8207.0,-2267.0,5986.0,1079.0,-253.0,149.0,8.0,53.0,29.0,4545.0,-6162.0,-8484.0,11741.0,917.0,-343.0,256.0,1.0
2022-05-08 17:31:36.230690-07:00,694.6,768.7,777.8,955.1,384.8,366.2,1032.3,794.4,3464.9,3473.4,1409.4,801.9,698.7,3468.6,1202.7,852.8,3451.6,3443.1,384.8,315.1,324.4,321.3,287.5,270.6,3466.1,3455.2,505.1,465.6,511.5,883.9,796.9,499.6,-6.0,103.0,-31.0,12776.0,-7919.0,-2212.0,6132.0,458.0,-302.0,101.0,15.0,66.0,18.0,4540.0,-6043.0,-8270.0,11954.0,419.0,-188.0,162.0,1.0
2022-05-08 17:31:36.291031-07:00,694.6,768.7,777.8,954.3,384.8,371.6,1029.7,786.9,3464.9,3473.4,1409.4,800.2,698.7,3458.9,1203.5,857.9,3447.9,3449.1,387.2,315.1,323.6,321.3,287.5,270.6,3458.9,3463.7,510.7,465.6,520.3,883.9,796.9,499.6,29.0,-38.0,32.0,12851.0,-7700.0,-2217.0,6251.0,698.0,-244.0,70.0,22.0,-31.0,6.0,4529.0,-5954.0,-8140.0,12092.0,554.0,-207.0,106.0,1.0
2022-05-08 17:31:36.350273-07:00,692.9,764.5,819.4,954.3,385.6,371.6,1029.7,786.9,3464.9,3467.4,1458.9,800.2,697.9,3458.9,1203.5,857.9,3447.9,3449.1,387.2,311.3,323.6,319.7,290.5,262.2,3458.9,3463.7,510.7,471.1,520.3,891.5,840.3,490.1,26.0,22.0,-7.0,13018.0,-7346.0,-2131.0,6361.0,935.0,-290.0,-17.0,27.0,-27.0,18.0,4569.0,-5809.0,-7905.0,12302.0,786.0,-212.0,90.0,1.0
2022-05-08 17:31:36.380475-07:00,692.9,764.5,819.4,952.6,385.6,383.3,1046.1,776.9,3464.9,3467.4,1458.9,805.2,697.9,3467.4,1223.9,855.3,3455.2,3440.7,384.8,311.3,325.9,319.7,290.5,262.2,3463.7,3455.2,512.3,471.1,521.0,891.5,840.3,490.1,16.0,32.0,-28.0,13198.0,-6961.0,-2070.0,6443.0,1038.0,-229.0,-2.0,22.0,28.0,-6.0,4630.0,-5648.0,-7651.0,12512.0,906.0,-207.0,67.0,1.0
2022-05-08 17:31:36.440983-07:00,698.7,783.6,921.1,952.6,385.6,383.3,1046.1,776.9,3464.9,3467.4,1492.1,805.2,701.1,3467.4,1223.9,855.3,3455.2,3440.7,384.8,313.6,325.9,322.8,289.0,263.7,3463.7,3455.2,512.3,472.7,521.0,909.3,880.6,491.7,14.0,33.0,16.0,13258.0,-6779.0,-2099.0,6503.0,-132.0,-267.0,-39.0,12.0,-20.0,0.0,4644.0,-5551.0,-7532.0,12622.0,-105.0,-59.0,45.0,1.0
2022-05-08 17:31:36.620493-07:00,698.7,783.6,921.1,965.4,397.3,385.6,1086.0,862.1,3464.9,3467.4,1492.1,803.5,698.7,3466.1,1298.1,862.1,3438.2,3450.4,387.2,309.0,325.9,322.8,289.0,263.7,3468.6,3462.5,509.1,486.9,522.6,909.3,880.6,491.7,-19.0,-34.0,6.0,13318.0,-6645.0,-2072.0,6528.0,587.0,19.0,13.0,-27.0,-34.0,37.0,4627.0,-5505.0,-7458.0,12692.0,433.0,-89.0,98.0,1.0
2022-05-08 17:31:36.621705-07:00,699.5,764.5,1040.1,980.7,397.3,385.6,1086.0,862.1,3473.4,3466.1,1544.1,811.0,698.7,3466.1,1298.1,862.1,3438.2,3450.4,387.2,309.0,325.9,324.4,292.8,268.3,3468.6,3462.5,509.1,486.9,525.0,922.0,894.1,503.6,-13.0,47.0,-73.0,13344.0,-6550.0,-2020.0,6587.0,216.0,-73.0,136.0,6.0,73.0,-32.0,4603.0,-5464.0,-7394.0,12756.0,117.0,-118.0,59.0,1.0
2022-05-08 17:31:36.650898-07:00,699.5,764.5,1040.1,980.7,405.1,397.3,1149.8,953.4,3473.4,3466.1,1544.1,811.0,697.0,3473.4,1363.0,874.7,3447.9,3449.1,389.5,313.6,325.9,324.4,292.8,268.3,3463.7,3455.2,517.9,498.8,525.0,922.0,894.1,503.6,21.0,31.0,65.0,13400.0,-6427.0,-1968.0,6611.0,276.0,69.0,-79.0,13.0,8.0,54.0,4597.0,-5404.0,-7347.0,12811.0,214.0,-191.0,-14.0,1.0
2022-05-08 17:31:36.653228-07:00,691.3,763.7,1037.5,984.2,405.1,397.3,1149.8,953.4,3467.4,3472.2,2308.7,903.4,697.0,3473.4,1363.0,874.7,3447.9,3449.1,389.5,313.6,326.7,319.0,293.6,272.9,3463.7,3455.2,517.9,498.8,517.9,923.7,874.7,536.2,32.0,-99.0,21.0,13439.0,-6388.0,-1842.0,6605.0,381.0,215.0,43.0,15.0,-111.0,70.0,4593.0,-5363.0,-7321.0,12845.0,117.0,-6.0,37.0,1.0
2022-05-08 17:31:36.680650-07:00,691.3,763.7,1037.5,984.2,402.0,406.7,1134.0,959.4,3467.4,3472.2,2308.7,903.4,784.4,3473.4,1475.5,939.0,3452.8,3441.9,386.4,310.5,326.7,319.0,293.6,272.9,3454.0,3462.5,534.6,533.0,517.9,923.7,874.7,536.2,-5.0,42.0,-5.0,13470.0,-6396.0,-1714.0,6570.0,-49.0,314.0,2.0,-11.0,13.0,12.0,4607.0,-5351.0,-7272.0,12872.0,-1.0,10.0,-25.0,1.0
2022-05-08 17:31:36.799930-07:00,697.0,764.5,1036.6,984.2,402.0,406.7,1134.0,959.4,3473.4,3477.1,2147.3,900.8,784.4,3473.4,1475.5,939.0,3452.8,3441.9,386.4,310.5,327.5,322.1,297.4,303.6,3454.0,3462.5,534.6,533.0,536.2,973.9,911.8,594.7,2.0,-20.0,-46.0,13455.0,-6538.0,-1589.0,6490.0,-210.0,494.0,29.0,25.0,11.0,-17.0,4597.0,-5389.0,-7327.0,12828.0,-268.0,60.0,12.0,1.0
2022-05-08 17:31:36.861163-07:00,697.0,764.5,1036.6,984.2,398.1,418.4,1133.1,999.6,3473.4,3477.1,2147.3,900.8,802.7,3467.4,1518.0,978.2,3447.9,3440.7,382.5,308.2,327.5,322.1,297.4,303.6,3464.9,3466.1,541.8,542.6,536.2,973.9,911.8,594.7,-16.0,-90.0,55.0,13416.0,-6676.0,-1510.0,6450.0,-139.0,249.0,56.0,-13.0,-61.0,5.0,4565.0,-5452.0,-7412.0,12764.0,-115.0,46.0,57.0,1.0
2022-05-08 17:31:36.862073-07:00,692.1,762.0,1015.9,973.1,398.1,418.4,1133.1,992.7,3477.1,3468.6,2062.5,897.4,802.7,3467.4,1518.0,969.6,3441.9,3440.7,382.5,308.2,327.5,320.5,302.0,304.3,3468.6,3466.1,541.8,542.6,547.4,967.9,897.4,615.7,-16.0,-30.0,27.0,13419.0,-6706.0,-1457.0,6424.0,32.0,41.0,-60.0,-25.0,-39.0,28.0,4538.0,-5494.0,-7404.0,12761.0,176.0,27.0,119.0,1.0
2022-05-08 17:31:36.890892-07:00,697.0,762.0,1015.9,973.1,393.4,417.6,1133.1,992.7,3467.4,3468.6,2062.5,897.4,791.9,3467.4,1509.7,969.6,3441.9,3441.9,383.3,312.0,327.5,320.5,302.0,302.8,3468.6,3464.9,542.6,535.4,547.4,967.9,897.4,601.2,14.0,-107.0,91.0,13383.0,-6801.0,-1486.0,6393.0,-365.0,121.0,12.0,-15.0,-106.0,4.0,4497.0,-5558.0,-7383.0,12760.0,-293.0,108.0,236.0,1.0
2022-05-08 17:31:36.950464-07:00,697.0,762.9,994.5,975.6,393.4,417.6,1133.1,978.2,3467.4,3468.6,2043.4,893.2,791.9,3467.4,1509.7,968.8,3450.4,3441.9,383.3,312.0,323.6,322.8,299.7,302.8,3463.7,3464.9,542.6,535.4,524.2,953.4,888.2,601.2,-32.0,-137.0,103.0,13336.0,-6887.0,-1450.0,6408.0,-46.0,8.0,173.0,-31.0,-141.0,74.0,4382.0,-5706.0,-7384.0,12734.0,60.0,178.0,476.0,1.0
2022-05-08 17:31:36.980752-07:00,697.9,762.9,994.5,975.6,396.5,412.9,1120.9,978.2,3469.8,3468.6,2043.4,893.2,776.1,3471.0,1486.6,968.8,3450.4,3458.9,385.6,312.0,323.6,322.8,299.7,296.7,3463.7,3467.4,541.0,541.0,524.2,953.4,888.2,602.0,-27.0,-62.0,84.0,13302.0,-6913.0,-1404.0,6460.0,-152.0,209.0,261.0,-42.0,-33.0,31.0,4239.0,-5869.0,-7277.0,12770.0,-139.0,220.0,652.0,1.0
2022-05-08 17:31:37.100106-07:00,697.9,759.6,991.9,979.0,396.5,412.9,1120.9,979.9,3469.8,3471.0,2024.4,889.0,776.1,3471.0,1486.6,960.2,3438.2,3458.9,385.6,312.0,325.9,316.7,295.1,296.7,3462.5,3467.4,541.0,541.0,547.4,950.0,880.6,602.0,-42.0,-24.0,42.0,13223.0,-7015.0,-1287.0,6536.0,-84.0,176.0,374.0,-30.0,-52.0,47.0,4025.0,-6106.0,-7185.0,12780.0,-114.0,240.0,760.0,1.0
2022-05-08 17:31:37.160945-07:00,703.6,759.6,991.9,979.0,395.7,411.4,1113.0,979.9,3467.4,3471.0,2024.4,889.0,781.1,3469.8,1471.8,960.2,3438.2,3437.0,385.6,307.4,325.9,316.7,295.1,293.6,3462.5,3452.8,534.6,531.4,547.4,950.0,880.6,592.3,2.0,21.0,-15.0,13150.0,-7075.0,-1198.0,6636.0,-113.0,196.0,365.0,4.0,60.0,-84.0,3787.0,-6300.0,-7094.0,12809.0,-214.0,-60.0,684.0,1.0
2022-05-08 17:31:37.220463-07:00,703.6,765.3,986.7,972.2,395.7,411.4,1115.6,971.3,3467.4,3466.1,2006.4,885.6,781.1,3469.8,1458.0,953.4,3444.3,3454.0,385.6,307.4,326.7,320.5,297.4,293.6,3466.1,3471.0,534.6,531.4,537.8,950.9,883.9,592.3,9.0,78.0,-56.0,13067.0,-7154.0,-1090.0,6733.0,-106.0,125.0,357.0,44.0,75.0,-46.0,3558.0,-6499.0,-7014.0,12820.0,-173.0,74.0,639.0,1.0
2022-05-08 17:31:37.221994-07:00,699.5,760.4,986.7,972.2,385.6,409.0,1115.6,971.3,3469.8,3467.4,2006.4,885.6,764.5,3483.2,1458.0,953.4,3444.3,3454.0,384.8,315.1,326.7,320.5,292.1,298.2,3466.1,3471.0,533.0,526.6,537.8,950.9,878.0,581.8,32.0,118.0,-80.0,12997.0,-7216.0,-999.0,6815.0,-53.0,144.0,248.0,59.0,114.0,-29.0,3366.0,-6633.0,-6973.0,12825.0,-136.0,70.0,421.0,1.0
2022-05-08 17:31:37.250049-07:00,699.5,760.4,978.2,973.1,385.6,409.0,1111.2,965.4,3469.8,3467.4,1990.5,893.2,764.5,3483.2,1447.0,953.4,3439.5,3443.1,384.8,315.1,328.2,322.1,292.1,298.2,3455.2,3463.7,533.0,526.6,524.2,942.4,878.0,581.8,24.0,124.0,-81.0,12960.0,-7246.0,-908.0,6866.0,72.0,123.0,150.0,56.0,94.0,-38.0,3278.0,-6728.0,-6909.0,12833.0,44.0,101.0,226.0,1.0
2022-05-08 17:31:37.280745-07:00,699.5,758.7,978.2,973.1,393.4,410.6,1111.2,965.4,3460.1,3478.3,1990.5,893.2,766.2,3462.5,1447.0,953.4,3439.5,3443.1,389.5,306.7,328.2,322.1,296.7,289.8,3455.2,3463.7,531.4,526.6,524.2,942.4,867.9,569.0,29.0,126.0,-73.0,12963.0,-7238.0,-832.0,6879.0,-9.0,95.0,7.0,51.0,85.0,-41.0,3271.0,-6768.0,-6864.0,12838.0,26.0,117.0,35.0,1.0
2022-05-08 17:31:37.429976-07:00,699.5,758.7,973.9,971.3,393.4,410.6,1108.6,964.5,3460.1,3478.3,1972.7,889.0,766.2,3462.5,1447.0,955.1,3445.5,3449.1,389.5,306.7,327.5,323.6,296.7,289.8,3463.7,3457.6,531.4,526.6,521.8,938.1,867.9,569.0,28.0,18.0,-47.0,12955.0,-7281.0,-828.0,6849.0,-95.0,85.0,-84.0,29.0,3.0,-24.0,3297.0,-6806.0,-6879.0,12803.0,-36.0,131.0,-65.0,1.0
2022-05-08 17:31:37.610971-07:00,694.6,755.4,973.9,971.3,397.3,406.7,1108.6,964.5,3466.1,3472.2,1972.7,889.0,763.7,3463.7,1447.0,955.1,3445.5,3449.1,382.5,305.1,327.5,323.6,293.6,293.6,3463.7,3457.6,519.5,525.0,521.8,938.1,861.2,569.0,10.0,-23.0,-32.0,12966.0,-7297.0,-843.0,6810.0,-30.0,-35.0,-86.0,25.0,6.0,-44.0,3337.0,-6806.0,-6891.0,12787.0,-10.0,48.0,-88.0,1.0
2022-05-08 17:31:37.613268-07:00,694.6,755.4,977.3,975.6,397.3,406.7,1107.8,960.2,3466.1,3472.2,1975.6,886.5,763.7,3463.7,1444.2,945.8,3445.5,3438.2,382.5,305.1,323.6,322.8,293.6,293.6,3456.4,3464.9,519.5,525.0,520.3,934.7,861.2,569.0,-5.0,-30.0,-8.0,12959.0,-7316.0,-881.0,6797.0,-66.0,-19.0,-46.0,-9.0,-29.0,-32.0,3355.0,-6812.0,-6916.0,12765.0,-56.0,21.0,-53.0,1.0
2022-05-08 17:31:37.614156-07:00,696.2,757.1,973.1,975.6,391.1,402.0,1107.8,960.2,3466.1,3469.8,1970.7,886.5,762.9,3464.9,1444.2,945.8,3445.5,3438.2,384.0,312.8,323.6,324.4,296.7,294.4,3456.4,3464.9,522.6,525.0,520.3,936.4,862.9,572.2,-26.0,-16.0,2.0,12954.0,-7331.0,-906.0,6786.0,-53.0,-30.0,-24.0,-24.0,5.0,-12.0,3357.0,-6810.0,-6938.0,12754.0,-49.0,-7.0,-30.0,1.0
2022-05-08 17:31:37.614878-07:00,696.2,757.1,973.1,975.6,391.1,399.6,1112.1,955.1,3466.1,3469.8,1970.7,884.8,762.9,3469.8,1434.1,939.0,3437.0,3443.1,384.8,312.8,328.2,324.4,296.7,294.4,3462.5,3451.6,527.4,525.0,522.6,936.4,862.9,572.2,-28.0,-13.0,7.0,12941.0,-7352.0,-914.0,6789.0,-67.0,-19.0,17.0,-29.0,-6.0,19.0,3349.0,-6820.0,-6949.0,12744.0,-44.0,4.0,-4.0,1.0
2022-05-08 17:31:37.699945-07:00,692.1,749.6,972.2,975.6,390.3,399.6,1112.1,955.1,3475.9,3469.8,1961.8,884.8,766.2,3469.8,1434.1,939.0,3437.0,3443.1,384.8,315.9,328.2,323.6,295.1,293.6,3462.5,3451.6,527.4,521.8,522.6,933.0,865.4,571.4,-11.0,3.0,21.0,12931.0,-7354.0,-931.0,6803.0,-14.0,-67.0,-5.0,-18.0,10.0,10.0,3344.0,-6813.0,-6955.0,12746.0,-23.0,-38.0,-15.0,1.0
2022-05-08 17:31:37.761384-07:00,691.3,754.6,964.5,972.2,395.7,399.6,1102.5,962.0,3475.9,3469.8,1952.9,881.4,757.9,3473.4,1425.9,939.0,3443.1,3445.5,387.2,313.6,327.5,324.4,286.7,292.1,3461.3,3450.4,525.8,521.0,517.9,926.2,857.0,569.0,-2.0,13.0,-1.0,12928.0,-7347.0,-950.0,6813.0,-55.0,-42.0,-6.0,1.0,5.0,8.0,3342.0,-6807.0,-6957.0,12749.0,-22.0,11.0,-20.0,1.0
2022-05-08 17:31:37.762844-07:00,691.3,754.6,964.5,975.6,395.7,401.2,1102.5,951.7,3475.9,3469.8,1952.9,881.4,757.9,3468.6,1423.1,944.1,3454.0,3449.1,392.6,313.6,330.5,324.4,286.7,292.1,3461.3,3461.3,517.9,521.0,521.0,926.2,857.0,569.0,2.0,3.0,0.0,12930.0,-7340.0,-970.0,6814.0,47.0,-24.0,-41.0,0.0,-1.0,-2.0,3354.0,-6789.0,-6960.0,12754.0,42.0,-23.0,-43.0,1.0
2022-05-08 17:31:37.790380-07:00,697.9,758.7,969.6,970.5,391.1,401.2,1102.5,951.7,3468.6,3471.0,1945.9,881.4,759.6,3468.6,1423.1,944.1,3454.0,3449.1,392.6,309.0,327.5,323.6,292.1,284.4,3461.3,3461.3,517.9,517.9,513.9,925.4,857.0,569.8,0.0,-12.0,0.0,12933.0,-7336.0,-984.0,6812.0,-60.0,-49.0,4.0,0.0,-10.0,9.0,3364.0,-6786.0,-6967.0,12748.0,-33.0,-5.0,-25.0,1.0
2022-05-08 17:31:37.850070-07:00,697.9,758.7,969.6,970.5,393.4,401.2,1101.7,948.3,3468.6,3471.0,1945.9,881.4,757.9,3469.8,1419.5,937.3,3443.1,3443.1,386.4,315.1,327.5,323.6,292.1,284.4,3462.5,3463.7,521.0,520.3,513.9,925.4,857.0,569.8,0.0,-12.0,0.0,12924.0,-7341.0,-1005.0,6820.0,23.0,-21.0,-7.0,-3.0,-3.0,-9.0,3365.0,-6778.0,-6975.0,12748.0,10.0,-37.0,-16.0,1.0
2022-05-08 17:31:37.880753-07:00,692.1,756.3,962.8,971.3,393.4,401.2,1101.7,948.3,3471.0,3461.3,1942.0,882.3,757.9,3469.8,1419.5,937.3,3443.1,3443.1,386.4,315.1,323.6,322.8,291.3,293.6,3462.5,3463.7,521.0,520.3,514.7,922.0,860.4,568.2,-9.0,3.0,7.0,12930.0,-7332.0,-1006.0,6818.0,-10.0,-34.0,10.0,-2.0,8.0,8.0,3369.0,-6771.0,-6973.0,12752.0,6.0,19.0,0.0,1.0
2022-05-08 17:31:37.940521-07:00,692.1,756.3,962.8,971.3,395.0,398.1,1099.9,947.5,3471.0,3461.3,1942.0,882.3,748.0,3467.4,1419.5,941.5,3438.2,3447.9,381.7,313.6,323.6,322.8,291.3,293.6,3463.7,3467.4,523.4,517.9,514.7,922.0,860.4,568.2,-4.0,-9.0,8.0,12919.0,-7338.0,-1024.0,6830.0,-30.0,-13.0,5.0,-11.0,-11.0,1.0,3366.0,-6773.0,-6979.0,12748.0,-27.0,-18.0,-2.0,1.0
2022-05-08 17:31:38.030336-07:00,693.8,752.9,961.1,975.6,395.0,398.1,1099.9,947.5,3479.5,3478.3,1940.0,879.7,748.0,3467.4,1419.5,941.5,3438.2,3447.9,381.7,313.6,320.5,320.5,296.7,283.6,3463.7,3467.4,523.4,517.9,508.3,922.0,859.5,558.6,-6.0,9.0,11.0,12917.0,-7341.0,-1024.0,6830.0,-3.0,-2.0,1.0,0.0,11.0,10.0,3364.0,-6773.0,-6982.0,12748.0,2.0,18.0,3.0,1.0
2022-05-08 17:31:38.031460-07:00,693.8,752.9,961.1,975.6,391.1,404.3,1103.4,947.5,3479.5,3478.3,1940.0,879.7,750.5,3460.1,1408.5,938.1,3428.6,3455.2,379.4,313.6,320.5,320.5,296.7,283.6,3460.1,3458.9,520.3,518.7,508.3,922.0,859.5,558.6,-7.0,5.0,-6.0,12914.0,-7344.0,-1028.0,6831.0,-17.0,-15.0,-8.0,-7.0,0.0,21.0,3364.0,-6776.0,-6985.0,12745.0,-13.0,-4.0,-18.0,1.0
2022-05-08 17:31:38.090657-07:00,699.5,756.3,956.0,973.9,391.1,404.3,1103.4,951.7,3462.5,3468.6,1930.2,878.9,750.5,3460.1,1408.5,937.3,3447.9,3455.2,379.4,313.6,328.2,317.4,292.1,289.8,3468.6,3458.9,520.3,518.7,515.5,921.1,855.3,560.2,-4.0,-3.0,8.0,12912.0,-7343.0,-1041.0,6834.0,2.0,-35.0,11.0,0.0,11.0,6.0,3367.0,-6771.0,-6991.0,12743.0,25.0,5.0,-6.0,1.0
2022-05-08 17:31:38.180389-07:00,700.3,756.3,956.0,973.9,394.2,395.7,1101.7,951.7,3477.1,3468.6,1930.2,878.9,751.3,3467.4,1408.5,937.3,3447.9,3447.9,389.5,313.6,328.2,317.4,292.1,282.9,3468.6,3467.4,516.3,517.9,515.5,921.1,855.3,565.0,-4.0,-10.0,7.0,12907.0,-7342.0,-1058.0,6842.0,-32.0,-46.0,-3.0,-3.0,-8.0,0.0,3369.0,-6767.0,-6994.0,12743.0,-15.0,-16.0,-11.0,1.0
2022-05-08 17:31:38.210396-07:00,700.3,751.3,957.7,973.9,394.2,395.7,1101.7,946.6,3477.1,3472.2,1919.3,874.7,751.3,3467.4,1408.5,933.0,3447.9,3447.9,389.5,313.6,331.3,321.3,293.6,282.9,3464.9,3467.4,516.3,517.9,511.5,926.2,852.8,565.0,-11.0,-3.0,3.0,12907.0,-7335.0,-1073.0,6848.0,14.0,-44.0,-8.0,-10.0,16.0,8.0,3372.0,-6762.0,-6993.0,12745.0,14.0,-22.0,-17.0,1.0
2022-05-08 17:31:38.240370-07:00,692.1,751.3,957.7,973.9,391.1,400.4,1088.6,946.6,3466.1,3472.2,1919.3,874.7,744.7,3462.5,1389.4,933.0,3447.9,3439.5,384.8,309.0,331.3,321.3,293.6,285.9,3464.9,3467.4,521.0,515.5,511.5,926.2,852.8,553.0,-11.0,-7.0,6.0,12904.0,-7336.0,-1082.0,6850.0,-14.0,-1.0,-6.0,-4.0,4.0,5.0,3368.0,-6758.0,-7003.0,12743.0,-35.0,-10.0,-14.0,1.0
2022-05-08 17:31:38.331632-07:00,692.1,756.3,963.7,971.3,391.1,400.4,1088.6,937.3,3466.1,3467.4,1919.3,878.0,744.7,3462.5,1389.4,938.1,3437.0,3439.5,384.8,309.0,327.5,317.4,292.1,285.9,3473.4,3467.4,521.0,515.5,517.1,923.7,847.8,553.0,-11.0,-1.0,6.0,12903.0,-7333.0,-1088.0,6855.0,-16.0,-54.0,5.0,-10.0,13.0,-1.0,3368.0,-6753.0,-7004.0,12745.0,9.0,3.0,-15.0,1.0
2022-05-08 17:31:38.420070-07:00,692.1,756.3,963.7,971.3,388.7,399.6,1089.5,937.3,3466.1,3467.4,1919.3,878.0,756.3,3472.2,1395.7,938.1,3437.0,3445.5,383.3,308.2,327.5,317.4,292.1,287.5,3473.4,3452.8,527.4,513.1,517.1,923.7,847.8,565.0,0.0,-9.0,7.0,12898.0,-7330.0,-1105.0,6864.0,6.0,4.0,0.0,5.0,-14.0,0.0,3368.0,-6751.0,-7006.0,12745.0,-1.0,10.0,3.0,1.0
2022-05-08 17:31:38.421478-07:00,692.1,759.6,952.6,973.9,388.7,399.6,1089.5,944.9,3466.1,3473.4,1921.3,879.7,756.3,3472.2,1395.7,936.4,3444.3,3445.5,383.3,308.2,323.6,324.4,294.4,287.5,3463.7,3452.8,527.4,513.1,506.7,919.4,849.5,565.0,-2.0,3.0,0.0,12898.0,-7328.0,-1106.0,6867.0,6.0,-20.0,11.0,-2.0,2.0,11.0,3368.0,-6745.0,-7006.0,12748.0,10.0,-2.0,-4.0,1.0
2022-05-08 17:31:38.423655-07:00,691.3,753.8,952.6,973.9,395.7,401.2,1092.9,944.9,3467.4,3471.0,1921.3,879.7,744.7,3475.9,1401.2,936.4,3444.3,3447.9,384.0,305.1,323.6,324.4,292.8,286.7,3463.7,3461.3,517.1,514.7,506.7,919.4,852.0,561.0,-5.0,3.0,0.0,12897.0,-7322.0,-1117.0,6874.0,8.0,-15.0,7.0,-1.0,2.0,-2.0,3368.0,-6738.0,-7007.0,12751.0,21.0,-3.0,-1.0,1.0
2022-05-08 17:31:38.570543-07:00,691.3,753.8,955.1,969.6,395.7,401.2,1086.8,943.2,3467.4,3471.0,1906.6,878.9,744.7,3475.9,1395.7,930.5,3438.2,3446.7,384.0,305.1,327.5,319.0,292.8,286.7,3461.3,3460.1,517.1,514.7,513.1,918.6,852.0,561.0,0.0,14.0,-7.0,12903.0,-7309.0,-1124.0,6874.0,15.0,-35.0,-23.0,2.0,21.0,-6.0,3371.0,-6718.0,-7009.0,12760.0,9.0,-45.0,-35.0,1.0
2022-05-08 17:31:38.571993-07:00,696.2,763.7,955.1,969.6,395.7,395.7,1086.8,943.2,3473.4,3468.6,1906.6,878.9,745.5,3471.0,1395.7,930.5,3438.2,3446.7,387.9,310.5,327.5,319.0,287.5,284.4,3461.3,3460.1,518.7,511.5,513.1,918.6,844.4,562.6,0.0,13.0,-21.0,12907.0,-7303.0,-1134.0,6872.0,20.0,-27.0,-17.0,13.0,27.0,-10.0,3382.0,-6702.0,-7016.0,12761.0,22.0,-23.0,-48.0,1.0
2022-05-08 17:31:38.573230-07:00,696.2,763.7,953.4,978.2,395.7,395.7,1086.0,937.3,3473.4,3468.6,1914.4,879.7,745.5,3471.0,1391.2,935.6,3449.1,3438.2,387.9,310.5,326.7,322.1,287.5,284.4,3467.4,3466.1,518.7,511.5,513.1,917.7,844.4,562.6,-1.0,10.0,-22.0,12910.0,-7292.0,-1163.0,6872.0,-14.0,-71.0,-52.0,1.0,27.0,-25.0,3396.0,-6676.0,-7030.0,12764.0,-16.0,-63.0,-75.0,1.0
2022-05-08 17:31:38.719998-07:00,693.8,753.8,953.4,978.2,392.6,397.3,1086.0,937.3,3468.6,3468.6,1914.4,879.7,752.1,3468.6,1391.2,935.6,3449.1,3438.2,385.6,309.0,326.7,322.1,294.4,286.7,3467.4,3466.1,521.8,515.5,513.1,917.7,844.4,557.0,-4.0,-5.0,-11.0,12923.0,-7269.0,-1199.0,6867.0,33.0,-105.0,-46.0,0.0,1.0,2.0,3414.0,-6634.0,-7044.0,12773.0,47.0,-55.0,-69.0,1.0
2022-05-08 17:31:38.721151-07:00,693.8,753.8,953.4,966.2,392.6,397.3,1085.1,938.1,3468.6,3468.6,1915.4,878.0,752.1,3468.6,1391.2,933.0,3438.2,3440.7,385.6,309.0,325.1,325.9,294.4,286.7,3451.6,3466.1,521.8,515.5,505.1,916.9,844.4,557.0,2.0,-6.0,6.0,12925.0,-7243.0,-1247.0,6882.0,-6.0,-119.0,-15.0,-10.0,0.0,7.0,3423.0,-6592.0,-7060.0,12783.0,6.0,-81.0,-56.0,1.0
2022-05-08 17:31:38.840914-07:00,697.0,759.6,952.6,966.2,388.7,396.5,1085.1,938.1,3466.1,3469.8,1898.7,878.0,752.1,3473.4,1391.2,933.0,3438.2,3440.7,389.5,309.7,325.1,321.3,286.7,282.1,3451.6,3466.1,526.6,515.5,505.1,922.8,846.1,562.6,-12.0,-1.0,19.0,12929.0,-7224.0,-1282.0,6889.0,14.0,-82.0,-48.0,-11.0,0.0,12.0,3430.0,-6551.0,-7079.0,12793.0,-6.0,-100.0,-79.0,1.0
2022-05-08 17:31:38.870507-07:00,697.0,759.6,952.6,971.3,388.7,398.1,1081.6,935.6,3466.1,3469.8,1898.7,874.7,752.1,3473.4,1388.5,934.7,3447.9,3447.9,382.5,309.7,326.7,321.3,286.7,282.1,3462.5,3468.6,517.9,515.5,505.9,922.8,846.1,562.6,-13.0,-13.0,29.0,12933.0,-7203.0,-1313.0,6896.0,-14.0,-78.0,-20.0,-15.0,-3.0,15.0,3439.0,-6525.0,-7084.0,12800.0,-13.0,-21.0,-46.0,1.0
2022-05-08 17:31:38.901231-07:00,699.5,752.9,945.8,971.3,385.6,398.1,1081.6,935.6,3464.9,3460.1,1896.7,874.7,741.4,3473.4,1388.5,934.7,3447.9,3447.9,382.5,309.0,326.7,315.9,296.7,288.2,3462.5,3468.6,517.9,511.5,505.9,909.3,847.8,560.2,-8.0,0.0,17.0,12933.0,-7195.0,-1323.0,6903.0,-2.0,-8.0,-11.0,-14.0,0.0,3.0,3444.0,-6513.0,-7086.0,12804.0,-9.0,-27.0,-27.0,1.0
2022-05-08 17:31:38.902113-07:00,699.5,752.9,945.8,972.2,385.6,395.0,1085.1,958.5,3464.9,3460.1,1896.7,874.7,741.4,3464.9,1384.8,936.4,3447.9,3446.7,387.9,309.0,325.9,315.9,296.7,288.2,3468.6,3466.1,517.9,511.5,509.9,909.3,847.8,560.2,2.0,31.0,-25.0,12941.0,-7193.0,-1317.0,6891.0,23.0,12.0,-14.0,1.0,21.0,1.0,3455.0,-6502.0,-7090.0,12804.0,19.0,-3.0,-43.0,1.0
2022-05-08 17:31:38.930676-07:00,693.8,750.5,949.2,972.2,385.6,395.0,1085.1,958.5,3471.0,3460.1,1904.6,874.7,743.9,3464.9,1384.8,936.4,3447.9,3446.7,387.9,310.5,325.9,319.0,296.7,282.9,3468.6,3466.1,517.9,513.9,509.9,913.5,848.6,555.4,8.0,65.0,-67.0,12935.0,-7207.0,-1320.0,6888.0,-57.0,23.0,-8.0,29.0,43.0,-31.0,3477.0,-6487.0,-7107.0,12796.0,-36.0,-10.0,-116.0,1.0
2022-05-08 17:31:38.990371-07:00,693.8,750.5,949.2,976.5,385.6,396.5,1086.8,933.9,3471.0,3460.1,1904.6,871.3,743.9,3473.4,1381.2,925.4,3449.1,3440.7,385.6,310.5,328.2,319.0,296.7,282.9,3458.9,3447.9,524.2,513.9,507.5,913.5,848.6,555.4,17.0,137.0,-114.0,12943.0,-7221.0,-1307.0,6861.0,13.0,129.0,-55.0,45.0,142.0,-75.0,3522.0,-6439.0,-7141.0,12790.0,38.0,-7.0,-284.0,1.0
2022-05-08 17:31:39.020958-07:00,695.4,758.7,950.0,976.5,387.2,396.5,1086.8,933.9,3473.4,3462.5,1900.7,871.3,748.8,3473.4,1381.2,925.4,3449.1,3440.7,385.6,308.2,328.2,322.8,291.3,285.9,3458.9,3447.9,524.2,518.7,507.5,922.8,848.6,558.6,35.0,69.0,-78.0,12974.0,-7209.0,-1316.0,6812.0,106.0,-14.0,-168.0,52.0,89.0,-88.0,3642.0,-6336.0,-7203.0,12773.0,93.0,-291.0,-516.0,1.0
2022-05-08 17:31:39.082362-07:00,695.4,758.7,950.0,971.3,384.0,397.3,1086.8,926.2,3473.4,3462.5,1900.7,871.3,742.2,3466.1,1386.6,932.2,3446.7,3443.1,384.0,315.1,327.5,322.8,291.3,285.9,3462.5,3462.5,513.9,516.3,505.1,922.8,848.6,558.6,-3.0,25.0,-31.0,13054.0,-7127.0,-1285.0,6751.0,293.0,0.0,-203.0,4.0,-15.0,13.0,3784.0,-6122.0,-7315.0,12772.0,93.0,-419.0,-611.0,1.0
2022-05-08 17:31:39.140506-07:00,691.3,751.3,952.6,968.8,384.0,397.3,1086.8,926.2,3472.2,3468.6,1892.8,870.5,742.2,3466.1,1386.6,932.2,3446.7,3443.1,384.0,315.1,327.5,321.3,293.6,284.4,3462.5,3462.5,513.9,516.3,504.4,911.8,842.8,557.0,7.0,8.0,46.0,13152.0,-7003.0,-1303.0,6687.0,237.0,9.0,-209.0,1.0,29.0,-10.0,3937.0,-5840.0,-7403.0,12807.0,29.0,-360.0,-602.0,1.0
2022-05-08 17:31:39.200054-07:00,691.3,751.3,952.6,968.8,392.6,391.8,1086.8,933.9,3472.2,3468.6,1892.8,870.5,743.0,3468.6,1379.4,927.1,3437.0,3443.1,381.7,313.6,327.5,321.3,293.6,284.4,3457.6,3455.2,517.9,516.3,504.4,911.8,842.8,557.0,-24.0,-96.0,59.0,13167.0,-7050.0,-1314.0,6606.0,-214.0,77.0,-175.0,-30.0,-104.0,42.0,4041.0,-5660.0,-7585.0,12749.0,-267.0,-204.0,-490.0,1.0
2022-05-08 17:31:39.230659-07:00,688.9,755.4,942.4,970.5,392.6,391.8,1086.8,933.9,3471.0,3466.1,1885.0,871.3,743.0,3468.6,1379.4,927.1,3437.0,3443.1,381.7,313.6,330.5,315.1,292.1,284.4,3457.6,3455.2,517.9,516.3,512.3,907.6,845.3,554.6,-50.0,-68.0,26.0,13199.0,-7045.0,-1338.0,6542.0,105.0,-41.0,-140.0,-26.0,-80.0,44.0,4131.0,-5502.0,-7702.0,12719.0,23.0,-204.0,-367.0,1.0
2022-05-08 17:31:39.290995-07:00,688.9,755.4,942.4,970.5,387.2,395.7,1083.4,933.9,3471.0,3466.1,1885.0,871.3,752.1,3464.9,1369.4,940.7,3445.5,3444.3,382.5,311.3,330.5,315.1,292.1,284.4,3466.1,3455.2,522.6,514.7,512.3,907.6,845.3,554.6,-29.0,-98.0,28.0,13233.0,-6962.0,-1464.0,6535.0,148.0,-390.0,-182.0,-33.0,-53.0,-6.0,4204.0,-5360.0,-7742.0,12731.0,202.0,-233.0,-241.0,1.0
2022-05-08 17:31:39.350312-07:00,697.0,753.8,945.8,970.5,387.2,395.7,1083.4,933.9,3464.9,3472.2,1892.8,869.6,752.1,3464.9,1369.4,940.7,3445.5,3444.3,382.5,311.3,320.5,322.8,294.4,288.2,3466.1,3455.2,522.6,514.7,506.7,878.0,841.9,558.6,4.0,-53.0,19.0,13290.0,-6778.0,-1577.0,6587.0,419.0,-460.0,-82.0,-2.0,-46.0,4.0,4261.0,-5203.0,-7696.0,12805.0,423.0,-262.0,-158.0,1.0
2022-05-08 17:31:39.440661-07:00,694.6,753.8,945.8,970.5,384.0,396.5,1069.5,934.7,3478.3,3472.2,1892.8,869.6,754.6,3468.6,1363.9,931.3,3445.5,3447.9,382.5,312.8,320.5,322.8,294.4,287.5,3468.6,3463.7,511.5,511.5,506.7,878.0,841.9,554.6,-36.0,-121.0,115.0,13275.0,-6759.0,-1645.0,6620.0,-372.0,-19.0,-30.0,-49.0,-167.0,135.0,4258.0,-5150.0,-7726.0,12810.0,-591.0,69.0,39.0,1.0
2022-05-08 17:31:39.443530-07:00,694.6,758.7,945.8,973.1,384.0,396.5,1069.5,926.2,3478.3,3467.4,1906.6,867.1,754.6,3468.6,1363.9,918.6,3447.9,3447.9,382.5,312.8,327.5,319.7,294.4,287.5,3461.3,3463.7,511.5,511.5,509.9,912.7,841.9,554.6,8.0,5.0,-18.0,13303.0,-6683.0,-1688.0,6631.0,82.0,-216.0,-60.0,0.0,-17.0,6.0,4267.0,-5116.0,-7663.0,12858.0,109.0,0.0,38.0,1.0
2022-05-08 17:31:39.500144-07:00,693.8,758.7,945.8,973.1,384.8,402.0,1076.4,926.2,3469.8,3467.4,1906.6,867.1,756.3,3462.5,1360.3,918.6,3447.9,3450.4,385.6,307.4,327.5,319.7,294.4,285.9,3461.3,3455.2,521.8,514.7,509.9,912.7,841.9,563.4,19.0,16.0,10.0,13329.0,-6612.0,-1743.0,6634.0,66.0,-107.0,-92.0,22.0,-3.0,24.0,4271.0,-5080.0,-7614.0,12901.0,92.0,-73.0,11.0,1.0
2022-05-08 17:31:39.560440-07:00,693.8,758.7,955.1,969.6,384.8,402.0,1076.4,933.0,3469.8,3466.1,1978.6,862.1,756.3,3462.5,1360.3,918.6,3444.3,3450.4,385.6,307.4,321.3,320.5,292.1,285.9,3463.7,3455.2,521.8,514.7,512.3,914.4,845.3,563.4,-1.0,-14.0,8.0,13339.0,-6581.0,-1799.0,6630.0,-31.0,-132.0,-71.0,-11.0,-4.0,-13.0,4285.0,-5081.0,-7583.0,12914.0,60.0,80.0,15.0,1.0
2022-05-08 17:31:39.620027-07:00,692.1,758.7,955.1,969.6,391.1,398.1,1075.6,933.0,3466.1,3466.1,1978.6,862.1,762.9,3466.1,1360.3,918.6,3444.3,3456.4,384.0,312.0,321.3,320.5,292.1,292.1,3463.7,3460.1,521.8,509.9,512.3,914.4,845.3,563.4,-8.0,-2.0,3.0,13343.0,-6558.0,-1858.0,6629.0,24.0,-123.0,-57.0,-13.0,-8.0,-6.0,4306.0,-5109.0,-7550.0,12915.0,89.0,85.0,9.0,1.0
2022-05-08 17:31:39.621800-07:00,692.1,758.7,958.5,966.2,391.1,398.1,1075.6,929.6,3466.1,3478.3,2007.4,858.7,762.9,3466.1,1360.3,912.7,3449.1,3456.4,384.0,312.0,324.4,321.3,296.7,292.1,3460.1,3460.1,521.8,509.9,523.4,919.4,855.3,563.4,6.0,-14.0,42.0,13357.0,-6509.0,-1943.0,6624.0,38.0,-242.0,-135.0,3.0,-9.0,15.0,4334.0,-5129.0,-7500.0,12926.0,169.0,87.0,16.0,1.0
2022-05-08 17:31:39.710315-07:00,694.6,751.3,958.5,966.2,387.2,391.8,1074.7,929.6,3464.9,3473.4,2007.4,858.7,758.7,3467.4,1339.5,912.7,3449.1,3446.7,387.2,308.2,324.4,321.3,292.8,289.0,3460.1,3461.3,514.7,505.1,523.4,919.4,851.1,553.0,10.0,60.0,19.0,13359.0,-6456.0,-2037.0,6645.0,-87.0,-275.0,4.0,19.0,40.0,37.0,4375.0,-5174.0,-7437.0,12931.0,69.0,224.0,10.0,1.0
2022-05-08 17:31:39.740452-07:00,694.6,751.3,967.1,966.2,387.2,391.8,1082.5,892.4,3464.9,3473.4,1981.6,850.3,758.7,3467.4,1324.1,905.9,3446.7,3447.9,387.2,308.2,320.5,324.4,292.8,289.0,3462.5,3447.9,514.7,505.1,518.7,914.4,851.1,553.0,28.0,81.0,30.0,13268.0,-6559.0,-2174.0,6682.0,-597.0,-106.0,95.0,25.0,66.0,4.0,4408.0,-5305.0,-7477.0,12843.0,-456.0,364.0,-15.0,1.0
2022-05-08 17:31:39.769953-07:00,692.1,749.6,967.1,966.2,393.4,391.8,1082.5,892.4,3462.5,3467.4,1981.6,850.3,750.5,3467.4,1324.1,905.9,3446.7,3447.9,386.4,312.0,320.5,324.4,291.3,282.1,3462.5,3447.9,520.3,502.8,518.7,914.4,846.1,543.4,12.0,78.0,59.0,13160.0,-6793.0,-2249.0,6636.0,-651.0,291.0,-49.0,2.0,20.0,35.0,4415.0,-5510.0,-7642.0,12657.0,-590.0,422.0,-46.0,1.0
2022-05-08 17:31:39.920444-07:00,692.1,749.6,947.5,968.8,393.4,391.8,1077.3,857.0,3462.5,3467.4,1942.0,841.9,750.5,3467.4,1310.6,903.4,3439.5,3440.7,386.4,312.0,330.5,322.8,291.3,282.1,3463.7,3471.0,520.3,502.8,515.5,905.0,846.1,543.4,16.0,150.0,-2.0,13092.0,-7059.0,-2239.0,6495.0,-809.0,472.0,-146.0,27.0,117.0,0.0,4476.0,-5724.0,-7782.0,12453.0,-646.0,590.0,-178.0,1.0
2022-05-08 17:31:39.922782-07:00,692.1,756.3,947.5,968.8,385.6,393.4,1077.3,857.0,3462.5,3462.5,1942.0,841.9,747.2,3473.4,1310.6,903.4,3439.5,3440.7,389.5,310.5,330.5,322.8,293.6,278.3,3463.7,3471.0,517.1,502.0,515.5,905.0,843.6,529.0,54.0,104.0,-42.0,12954.0,-7539.0,-2250.0,6224.0,-1257.0,820.0,-298.0,41.0,83.0,-85.0,4566.0,-6013.0,-8048.0,12110.0,-1109.0,754.0,-336.0,1.0
2022-05-08 17:31:39.923722-07:00,692.1,756.3,932.2,970.5,385.6,393.4,1066.9,839.4,3462.5,3462.5,1924.3,842.8,747.2,3473.4,1300.7,900.0,3443.1,3443.1,389.5,310.5,326.7,321.3,293.6,278.3,3466.1,3462.5,517.1,502.0,512.3,903.4,843.6,529.0,56.0,110.0,-94.0,12753.0,-8230.0,-2164.0,5778.0,-1763.0,1378.0,-360.0,25.0,83.0,-141.0,4631.0,-6367.0,-8481.0,11598.0,-1705.0,884.0,-439.0,1.0
2022-05-08 17:31:40.010828-07:00,709.3,783.6,932.2,970.5,390.3,395.0,1066.9,839.4,3457.6,3466.1,1924.3,842.8,744.7,3464.9,1300.7,900.0,3443.1,3443.1,387.9,311.3,326.7,321.3,293.6,280.6,3466.1,3462.5,523.4,501.2,512.3,903.4,837.7,521.0,29.0,-64.0,-93.0,12505.0,-9024.0,-2006.0,5157.0,-1552.0,1666.0,-575.0,12.0,-104.0,-93.0,4657.0,-6739.0,-9011.0,10961.0,-1682.0,826.0,-498.0,1.0
2022-05-08 17:31:40.040465-07:00,709.3,783.6,927.1,962.8,390.3,395.7,1081.6,836.9,3457.6,3466.1,1996.5,838.6,744.7,3464.9,1310.6,905.9,3437.0,3449.1,385.6,311.3,325.1,324.4,293.6,280.6,3454.0,3466.1,520.3,501.2,512.3,905.0,837.7,521.0,1.0,-91.0,-98.0,12344.0,-9639.0,-1772.0,4475.0,-1327.0,1646.0,-598.0,-16.0,-43.0,-91.0,4705.0,-6985.0,-9399.0,10449.0,-1279.0,608.0,-403.0,1.0
2022-05-08 17:31:40.070310-07:00,699.5,813.5,927.9,962.8,390.3,395.7,1081.6,836.9,3466.1,3469.8,1857.6,838.6,736.5,3464.9,1310.6,905.9,3437.0,3449.1,385.6,305.9,325.1,318.2,293.6,284.4,3454.0,3466.1,520.3,499.6,512.3,909.3,840.3,514.7,-57.0,-235.0,-37.0,12164.0,-10170.0,-1575.0,3818.0,-978.0,1430.0,-645.0,-55.0,-220.0,-64.0,4682.0,-7136.0,-9666.0,10108.0,-890.0,272.0,-237.0,1.0
2022-05-08 17:31:40.130301-07:00,699.5,813.5,927.9,967.1,390.3,395.7,1076.4,848.6,3466.1,3469.8,1857.6,841.9,736.5,3473.4,1280.1,898.3,3451.6,3438.2,384.8,305.9,326.7,318.2,293.6,284.4,3467.4,3468.6,518.7,499.6,513.1,909.3,840.3,514.7,-59.0,-122.0,-23.0,12089.0,-10427.0,-1427.0,3396.0,-329.0,607.0,-214.0,-21.0,-125.0,0.0,4660.0,-7239.0,-9836.0,9878.0,-298.0,163.0,-39.0,1.0
2022-05-08 17:31:40.190534-07:00,705.2,808.5,905.9,967.1,385.6,395.7,1076.4,848.6,3473.4,3464.9,1694.8,841.9,741.4,3473.4,1280.1,898.3,3451.6,3438.2,384.8,315.1,326.7,319.0,292.8,279.0,3467.4,3468.6,518.7,500.4,513.1,905.9,825.2,517.9,-47.0,-51.0,-17.0,12070.0,-10505.0,-1354.0,3251.0,-38.0,245.0,-70.0,-24.0,-24.0,-1.0,4663.0,-7290.0,-9870.0,9805.0,16.0,62.0,17.0,1.0
2022-05-08 17:31:40.220399-07:00,705.2,808.5,905.9,967.1,385.6,392.6,1069.5,849.5,3473.4,3464.9,1694.8,828.5,741.4,3475.9,1263.1,893.2,3440.7,3437.0,384.0,315.1,330.5,319.0,292.8,279.0,3457.6,3457.6,528.2,500.4,510.7,905.9,825.2,517.9,-39.0,-50.0,-39.0,12081.0,-10502.0,-1308.0,3238.0,72.0,14.0,76.0,-22.0,7.0,-35.0,4670.0,-7304.0,-9841.0,9821.0,62.0,-10.0,92.0,1.0
2022-05-08 17:31:40.281007-07:00,705.2,804.4,884.8,967.1,389.5,392.6,1069.5,849.5,3473.4,3467.4,1640.7,828.5,734.0,3475.9,1263.1,893.2,3440.7,3437.0,384.0,315.1,330.5,324.4,296.7,279.8,3457.6,3457.6,528.2,490.9,510.7,897.4,804.4,514.7,-26.0,-21.0,-7.0,12069.0,-10504.0,-1278.0,3287.0,48.0,-29.0,126.0,-15.0,5.0,-18.0,4634.0,-7327.0,-9816.0,9844.0,70.0,-46.0,141.0,1.0
2022-05-08 17:31:40.340517-07:00,705.2,804.4,884.8,965.4,389.5,383.3,1074.7,846.1,3473.4,3467.4,1640.7,828.5,729.9,3463.7,1259.6,893.2,3445.5,3435.8,383.3,309.7,327.5,324.4,296.7,279.8,3461.3,3455.2,518.7,493.2,505.1,897.4,804.4,514.7,-19.0,-10.0,-4.0,12080.0,-10476.0,-1244.0,3347.0,98.0,-59.0,144.0,-4.0,-2.0,-13.0,4600.0,-7341.0,-9768.0,9897.0,108.0,-57.0,153.0,1.0
2022-05-08 17:31:40.370009-07:00,705.2,811.9,878.9,959.4,389.5,383.3,1074.7,846.1,3462.5,3474.6,1608.7,824.4,729.9,3463.7,1259.6,893.2,3445.5,3435.8,383.3,309.7,324.4,319.0,288.2,283.6,3461.3,3455.2,518.7,493.2,508.3,889.8,796.9,513.1,8.0,19.0,-4.0,12068.0,-10474.0,-1227.0,3406.0,-62.0,-19.0,123.0,10.0,23.0,-20.0,4551.0,-7366.0,-9749.0,9921.0,-43.0,-31.0,126.0,1.0
2022-05-08 17:31:40.430530-07:00,705.2,811.9,878.9,959.4,392.6,379.4,1059.1,844.4,3462.5,3474.6,1608.7,824.4,727.4,3475.9,1248.8,894.1,3438.2,3449.1,384.8,314.4,324.4,319.0,288.2,283.6,3466.1,3469.8,517.1,486.9,508.3,889.8,796.9,513.1,-10.0,32.0,9.0,12057.0,-10479.0,-1200.0,3439.0,9.0,-2.0,81.0,-1.0,25.0,-2.0,4518.0,-7388.0,-9728.0,9941.0,30.0,-7.0,92.0,1.0
2022-05-08 17:31:40.490561-07:00,702.8,805.2,877.2,956.8,392.6,379.4,1059.1,844.4,3464.9,3468.6,1599.3,821.9,727.4,3475.9,1248.8,894.1,3438.2,3449.1,384.8,314.4,330.5,318.2,289.0,278.3,3466.1,3469.8,517.1,486.9,509.1,889.0,800.2,513.1,7.0,15.0,-13.0,12050.0,-10478.0,-1202.0,3463.0,6.0,-68.0,7.0,8.0,18.0,-21.0,4504.0,-7404.0,-9710.0,9952.0,32.0,-6.0,48.0,1.0
2022-05-08 17:31:40.520836-07:00,702.8,805.2,877.2,956.8,390.3,380.9,1058.2,845.3,3464.9,3468.6,1599.3,821.9,729.0,3460.1,1242.6,884.8,3447.9,3446.7,384.0,312.8,330.5,318.2,289.0,278.3,3463.7,3469.8,516.3,483.7,509.1,889.0,800.2,513.1,-2.0,-8.0,-4.0,12047.0,-10474.0,-1219.0,3478.0,-4.0,-45.0,6.0,1.0,6.0,-17.0,4495.0,-7412.0,-9708.0,9952.0,-3.0,-8.0,26.0,1.0
2022-05-08 17:31:40.580685-07:00,707.7,806.0,892.4,961.1,390.3,380.9,1058.2,845.3,3473.4,3475.9,1589.9,814.4,729.0,3460.1,1242.6,884.8,3447.9,3446.7,384.0,312.8,323.6,320.5,292.1,282.1,3463.7,3469.8,516.3,483.7,505.1,904.2,795.2,503.6,-4.0,0.0,-2.0,12044.0,-10474.0,-1215.0,3493.0,-2.0,13.0,32.0,2.0,7.0,-19.0,4483.0,-7423.0,-9703.0,9954.0,2.0,-6.0,39.0,1.0
2022-05-08 17:31:40.640544-07:00,707.7,806.0,892.4,961.1,393.4,384.8,1059.9,833.6,3473.4,3475.9,1589.9,814.4,725.8,3467.4,1242.6,883.9,3445.5,3433.4,384.0,308.2,323.6,320.5,292.1,282.1,3462.5,3463.7,512.3,489.3,505.1,904.2,795.2,503.6,-20.0,1.0,-6.0,12041.0,-10476.0,-1210.0,3498.0,9.0,-26.0,9.0,-9.0,9.0,-12.0,4477.0,-7430.0,-9699.0,9956.0,25.0,0.0,16.0,1.0
2022-05-08 17:31:40.669975-07:00,705.2,806.0,878.9,960.2,393.4,384.8,1059.9,831.1,3466.1,3469.8,1577.7,811.0,725.8,3467.4,1242.6,885.6,3444.3,3433.4,384.0,308.2,323.6,322.1,299.7,276.0,3462.5,3463.7,512.3,489.3,504.4,894.9,791.0,509.1,-14.0,-4.0,-9.0,12040.0,-10470.0,-1224.0,3516.0,2.0,-69.0,-10.0,-2.0,7.0,-20.0,4478.0,-7431.0,-9695.0,9959.0,9.0,-7.0,0.0,1.0
2022-05-08 17:31:40.730460-07:00,707.7,806.0,878.9,960.2,386.4,380.9,1053.0,831.1,3468.6,3469.8,1577.7,811.0,721.6,3471.0,1237.3,885.6,3444.3,3445.5,384.0,308.2,323.6,322.1,299.7,272.1,3462.5,3467.4,515.5,478.2,504.4,894.9,791.0,511.5,-4.0,-6.0,-2.0,12037.0,-10468.0,-1232.0,3527.0,6.0,-11.0,13.0,2.0,4.0,-14.0,4477.0,-7432.0,-9695.0,9958.0,23.0,-11.0,8.0,1.0
2022-05-08 17:31:40.760527-07:00,707.7,797.7,875.5,959.4,386.4,380.9,1053.0,836.1,3468.6,3469.8,1573.9,816.0,721.6,3471.0,1237.3,890.7,3443.1,3445.5,384.0,308.2,323.6,315.9,293.6,272.1,3464.9,3467.4,515.5,478.2,506.7,885.6,794.4,511.5,-6.0,0.0,-3.0,12036.0,-10463.0,-1239.0,3542.0,21.0,-65.0,10.0,3.0,7.0,-8.0,4480.0,-7428.0,-9690.0,9964.0,36.0,-8.0,5.0,1.0
2022-05-08 17:31:40.820822-07:00,703.6,797.7,875.5,959.4,397.3,380.2,1048.7,836.1,3466.1,3469.8,1573.9,816.0,720.8,3467.4,1240.8,890.7,3443.1,3439.5,389.5,312.0,323.6,315.9,293.6,278.3,3464.9,3456.4,515.5,476.6,506.7,885.6,794.4,503.6,-2.0,-8.0,8.0,12034.0,-10456.0,-1261.0,3563.0,-7.0,-44.0,11.0,-4.0,1.0,-22.0,4478.0,-7425.0,-9689.0,9969.0,6.0,-12.0,9.0,1.0
2022-05-08 17:31:40.880440-07:00,703.6,805.2,868.8,959.4,397.3,380.2,1048.7,826.9,3466.1,3462.5,1565.5,813.5,720.8,3467.4,1240.8,889.8,3443.1,3439.5,389.5,312.0,326.7,319.7,293.6,278.3,3468.6,3456.4,515.5,476.6,510.7,889.8,795.2,503.6,-17.0,-5.0,0.0,12031.0,-10457.0,-1260.0,3572.0,-16.0,-13.0,16.0,-1.0,-1.0,-8.0,4472.0,-7427.0,-9689.0,9970.0,2.0,-4.0,22.0,1.0
2022-05-08 17:31:40.970676-07:00,704.4,805.2,868.8,959.4,391.1,376.3,1043.5,826.9,3466.1,3462.5,1565.5,813.5,715.1,3457.6,1232.8,889.8,3443.1,3438.2,385.6,308.2,326.7,319.7,293.6,272.9,3468.6,3456.4,510.7,473.5,510.7,889.8,795.2,502.8,-9.0,0.0,-10.0,12027.0,-10454.0,-1269.0,3591.0,-12.0,-65.0,20.0,-6.0,2.0,-12.0,4472.0,-7429.0,-9681.0,9976.0,10.0,-6.0,15.0,1.0
2022-05-08 17:31:40.972501-07:00,704.4,797.7,872.1,956.0,391.1,376.3,1045.2,831.9,3466.1,3467.4,1559.9,815.2,715.1,3457.6,1229.3,878.0,3444.3,3435.8,385.6,308.2,327.5,320.5,290.5,272.9,3462.5,3460.1,510.7,473.5,509.1,886.5,785.2,502.8,-8.0,0.0,0.0,12023.0,-10452.0,-1282.0,3605.0,22.0,-15.0,5.0,-4.0,10.0,-9.0,4467.0,-7428.0,-9683.0,9977.0,18.0,-18.0,2.0,1.0
2022-05-08 17:31:41.060395-07:00,704.4,803.5,872.1,956.0,392.6,378.6,1045.2,831.9,3478.3,3463.7,1559.9,815.2,723.3,3466.1,1229.3,878.0,3444.3,3435.8,382.5,310.5,327.5,320.5,290.5,277.5,3462.5,3460.1,513.9,479.0,509.1,886.5,782.7,505.1,-22.0,-5.0,0.0,12022.0,-10447.0,-1288.0,3621.0,6.0,-56.0,25.0,-9.0,4.0,-1.0,4467.0,-7425.0,-9680.0,9982.0,16.0,-6.0,8.0,1.0
2022-05-08 17:31:41.061617-07:00,704.4,803.5,867.1,962.0,392.6,378.6,1044.4,829.4,3478.3,3463.7,1558.1,813.5,723.3,3466.1,1231.0,883.9,3444.3,3444.3,382.5,310.5,323.6,319.7,290.5,277.5,3460.1,3460.1,513.9,479.0,509.1,886.5,782.7,505.1,-2.0,-3.0,7.0,12023.0,-10436.0,-1301.0,3644.0,51.0,-37.0,0.0,-5.0,3.0,-12.0,4472.0,-7423.0,-9671.0,9990.0,54.0,-6.0,-5.0,1.0
2022-05-08 17:31:41.120362-07:00,706.0,806.0,867.1,962.0,385.6,373.2,1044.4,829.4,3456.4,3473.4,1558.1,813.5,711.8,3463.7,1231.0,883.9,3444.3,3444.3,384.8,308.2,323.6,319.7,293.6,279.8,3460.1,3460.1,514.7,478.2,509.1,886.5,782.7,512.3,-12.0,-8.0,-3.0,12025.0,-10428.0,-1313.0,3658.0,2.0,-47.0,6.0,-5.0,4.0,-10.0,4476.0,-7421.0,-9664.0,9997.0,14.0,-4.0,2.0,1.0
2022-05-08 17:31:41.180475-07:00,706.0,806.0,861.2,962.0,385.6,373.2,1047.8,814.4,3456.4,3473.4,1550.6,810.2,711.8,3463.7,1222.2,883.1,3434.6,3449.1,384.8,308.2,326.7,317.4,293.6,279.8,3455.2,3468.6,514.7,478.2,503.6,881.4,782.7,512.3,-6.0,4.0,0.0,12024.0,-10423.0,-1324.0,3668.0,12.0,-14.0,-5.0,0.0,15.0,-7.0,4478.0,-7421.0,-9660.0,10000.0,14.0,-5.0,-4.0,1.0
2022-05-08 17:31:41.210687-07:00,704.4,798.5,861.2,962.0,392.6,373.9,1047.8,814.4,3457.6,3462.5,1550.6,810.2,715.1,3478.3,1222.2,883.1,3434.6,3449.1,386.4,311.3,326.7,317.4,290.5,272.9,3455.2,3468.6,513.1,480.6,503.6,881.4,774.5,503.6,-6.0,-3.0,-6.0,12024.0,-10418.0,-1336.0,3682.0,-2.0,-60.0,3.0,-1.0,6.0,-15.0,4481.0,-7419.0,-9656.0,10004.0,8.0,3.0,-5.0,1.0
2022-05-08 17:31:41.331279-07:00,704.4,798.5,864.6,963.7,392.6,373.9,1039.2,816.9,3457.6,3462.5,1547.8,813.5,715.1,3478.3,1218.6,885.6,3438.2,3444.3,386.4,311.3,326.7,319.0,290.5,272.9,3466.1,3471.0,513.1,480.6,512.3,888.2,774.5,503.6,-3.0,-3.0,-7.0,12019.0,-10413.0,-1358.0,3704.0,8.0,-66.0,10.0,-3.0,6.0,-22.0,4482.0,-7419.0,-9654.0,10005.0,31.0,-22.0,7.0,1.0
2022-05-08 17:31:41.332479-07:00,703.6,799.4,859.5,963.7,389.5,377.0,1039.2,816.9,3467.4,3467.4,1544.1,813.5,713.4,3467.4,1218.6,885.6,3438.2,3444.3,386.4,312.0,326.7,322.8,293.6,278.3,3466.1,3471.0,509.1,479.0,512.3,883.1,777.8,505.1,-16.0,8.0,2.0,12027.0,-10400.0,-1366.0,3711.0,8.0,-44.0,-11.0,-5.0,5.0,-4.0,4483.0,-7409.0,-9649.0,10017.0,7.0,-15.0,-7.0,1.0
2022-05-08 17:31:41.360888-07:00,703.6,799.4,859.5,959.4,389.5,378.6,1040.9,817.7,3467.4,3467.4,1544.1,811.9,713.4,3467.4,1221.3,881.4,3445.5,3450.4,386.4,312.0,325.1,322.8,293.6,278.3,3463.7,3458.9,516.3,479.0,512.3,883.1,777.8,505.1,-8.0,-3.0,5.0,12024.0,-10396.0,-1381.0,3724.0,9.0,-43.0,4.0,0.0,0.0,-7.0,4482.0,-7407.0,-9649.0,10018.0,23.0,-6.0,0.0,1.0
2022-05-08 17:31:41.449928-07:00,701.1,811.9,860.4,959.4,386.4,378.6,1040.9,817.7,3473.4,3464.9,1540.3,811.9,726.6,3467.4,1221.3,881.4,3445.5,3450.4,386.4,306.7,325.1,319.0,290.5,270.6,3463.7,3458.9,516.3,475.0,512.3,887.3,780.3,503.6,-9.0,0.0,2.0,12026.0,-10390.0,-1395.0,3730.0,6.0,-18.0,-13.0,-3.0,14.0,-8.0,4483.0,-7404.0,-9647.0,10023.0,6.0,-11.0,-11.0,1.0
2022-05-08 17:31:41.480497-07:00,701.1,811.9,860.4,956.8,386.4,373.2,1042.6,816.0,3473.4,3464.9,1540.3,806.0,726.6,3478.3,1216.8,883.9,3449.1,3437.0,381.7,306.7,322.8,319.0,290.5,270.6,3468.6,3464.9,509.1,475.0,504.4,887.3,780.3,503.6,-7.0,0.0,0.0,12024.0,-10388.0,-1403.0,3738.0,-18.0,-30.0,12.0,0.0,8.0,-10.0,4482.0,-7402.0,-9647.0,10024.0,-18.0,-10.0,4.0,1.0
2022-05-08 17:31:41.510733-07:00,704.4,801.0,858.7,956.8,389.5,373.2,1042.6,816.0,3466.1,3469.8,1544.1,806.0,714.2,3478.3,1216.8,883.9,3449.1,3437.0,381.7,312.8,322.8,319.0,289.0,277.5,3468.6,3464.9,509.1,477.4,504.4,884.8,780.3,508.3,-5.0,3.0,0.0,12023.0,-10386.0,-1410.0,3746.0,22.0,-20.0,-5.0,-1.0,19.0,-6.0,4478.0,-7399.0,-9650.0,10026.0,17.0,-15.0,-6.0,1.0
2022-05-08 17:31:41.571189-07:00,704.4,801.0,858.7,955.1,389.5,374.7,1046.1,818.5,3466.1,3469.8,1544.1,807.7,714.2,3464.9,1224.8,879.7,3449.1,3438.2,386.4,312.8,317.4,319.0,289.0,277.5,3471.0,3462.5,506.7,477.4,507.5,884.8,780.3,508.3,-15.0,-1.0,-1.0,12023.0,-10380.0,-1420.0,3756.0,5.0,-59.0,10.0,-8.0,9.0,-1.0,4479.0,-7396.0,-9646.0,10031.0,15.0,-8.0,-1.0,1.0
2022-05-08 17:31:41.630568-07:00,704.4,797.7,852.8,961.1,384.8,374.7,1046.1,818.5,3467.4,3447.9,1529.2,809.4,712.6,3464.9,1224.8,879.7,3449.1,3438.2,386.4,305.1,328.2,324.4,287.5,271.4,3471.0,3462.5,506.7,475.0,506.7,887.3,791.0,492.5,-1.0,0.0,9.0,12019.0,-10376.0,-1430.0,3778.0,-3.0,-32.0,20.0,-3.0,-5.0,-8.0,4479.0,-7396.0,-9646.0,10031.0,3.0,-10.0,4.0,1.0
2022-05-08 17:31:41.660820-07:00,704.4,797.7,852.8,961.1,388.7,376.3,1037.5,814.4,3467.4,3447.9,1529.2,809.4,715.9,3468.6,1217.7,878.0,3438.2,3447.9,382.5,313.6,328.2,324.4,287.5,271.4,3462.5,3457.6,505.1,480.6,506.7,887.3,791.0,492.5,-16.0,-1.0,0.0,12019.0,-10374.0,-1435.0,3782.0,4.0,-30.0,4.0,-13.0,1.0,-8.0,4479.0,-7396.0,-9646.0,10032.0,3.0,1.0,-5.0,1.0
2022-05-08 17:31:41.721145-07:00,698.7,798.5,850.3,956.0,388.7,376.3,1037.5,814.4,3468.6,3464.9,1521.8,812.7,715.9,3468.6,1217.7,878.0,3438.2,3447.9,382.5,313.6,329.8,319.0,289.0,272.1,3462.5,3457.6,505.1,480.6,509.1,885.6,776.1,498.8,-12.0,0.0,2.0,12017.0,-10373.0,-1441.0,3787.0,-20.0,-11.0,9.0,0.0,4.0,1.0,4476.0,-7397.0,-9648.0,10030.0,-17.0,6.0,-1.0,1.0
2022-05-08 17:31:41.780488-07:00,698.7,798.5,850.3,956.0,392.6,373.2,1033.2,806.9,3468.6,3464.9,1521.8,812.7,711.8,3478.3,1221.3,882.3,3455.2,3432.2,389.5,312.0,329.8,319.0,289.0,272.1,3457.6,3461.3,498.8,471.9,509.1,885.6,776.1,498.8,-14.0,-12.0,-8.0,12007.0,-10380.0,-1449.0,3798.0,-24.0,-68.0,42.0,-4.0,6.0,-4.0,4473.0,-7400.0,-9653.0,10025.0,-15.0,4.0,-2.0,1.0
2022-05-08 17:31:41.810825-07:00,703.6,799.4,851.1,956.0,392.6,373.2,1033.2,806.9,3464.9,3462.5,1530.1,807.7,711.8,3478.3,1221.3,882.3,3455.2,3432.2,389.5,312.0,325.1,321.3,289.8,276.0,3457.6,3461.3,498.8,471.9,504.4,884.8,773.6,499.6,-4.0,-12.0,-24.0,11986.0,-10381.0,-1474.0,3851.0,7.0,-182.0,75.0,-2.0,3.0,-21.0,4471.0,-7398.0,-9654.0,10026.0,17.0,-25.0,2.0,1.0
2022-05-08 17:31:41.900599-07:00,703.6,799.4,851.1,956.0,387.9,371.6,1035.7,809.4,3464.9,3462.5,1530.1,807.7,712.6,3461.3,1213.3,882.3,3454.0,3452.8,384.8,309.7,325.1,321.3,289.8,276.0,3462.5,3463.7,510.7,477.4,504.4,884.8,773.6,499.6,-40.0,-32.0,-43.0,11960.0,-10358.0,-1537.0,3965.0,54.0,-564.0,152.0,-7.0,-26.0,0.0,4467.0,-7384.0,-9652.0,10039.0,85.0,-49.0,-13.0,1.0
2022-05-08 17:31:41.930299-07:00,709.3,796.0,865.4,960.2,387.9,371.6,1035.7,809.4,3466.1,3467.4,1512.5,805.2,712.6,3461.3,1213.3,882.3,3454.0,3452.8,384.8,309.7,322.8,322.1,288.2,276.7,3462.5,3463.7,510.7,477.4,501.2,878.9,770.3,498.0,-32.0,-54.0,-100.0,11942.0,-10230.0,-1740.0,4260.0,314.0,-1261.0,275.0,39.0,5.0,-51.0,4510.0,-7337.0,-9604.0,10100.0,384.0,-74.0,-61.0,1.0
2022-05-08 17:31:42.020087-07:00,707.7,796.0,865.4,960.2,391.1,375.5,1034.9,807.7,3457.6,3467.4,1512.5,805.2,711.8,3468.6,1220.4,878.0,3440.7,3446.7,384.0,310.5,322.8,322.1,288.2,278.3,3462.5,3463.7,507.5,476.6,501.2,878.9,770.3,495.6,-30.0,-50.0,-110.0,12002.0,-9895.0,-2010.0,4739.0,964.0,-1411.0,281.0,-38.0,-21.0,-82.0,4605.0,-7162.0,-9420.0,10354.0,1002.0,-376.0,-2.0,1.0
2022-05-08 17:31:42.050434-07:00,707.7,795.2,857.0,962.0,391.1,375.5,1034.9,802.7,3457.6,3467.4,1518.0,809.4,711.8,3468.6,1220.4,881.4,3437.0,3446.7,384.0,310.5,323.6,317.4,289.8,278.3,3461.3,3463.7,507.5,476.6,505.9,879.7,779.4,495.6,-15.0,-27.0,3.0,12158.0,-9430.0,-2257.0,5157.0,1091.0,-928.0,-111.0,-18.0,47.0,24.0,4658.0,-6879.0,-9183.0,10728.0,1109.0,-674.0,30.0,1.0
2022-05-08 17:31:42.081442-07:00,703.6,795.2,857.0,962.0,387.2,378.6,1036.6,802.7,3467.4,3467.4,1518.0,809.4,711.8,3463.7,1217.7,881.4,3437.0,3443.1,390.3,309.7,323.6,317.4,289.8,275.2,3461.3,3457.6,509.1,477.4,505.9,879.7,779.4,500.4,-50.0,1.0,85.0,12402.0,-8896.0,-2380.0,5460.0,1210.0,-863.0,35.0,-63.0,-5.0,40.0,4709.0,-6570.0,-8889.0,11139.0,1167.0,-563.0,99.0,1.0
2022-05-08 17:31:42.170013-07:00,703.6,795.2,837.7,962.0,387.2,378.6,1036.6,796.9,3467.4,3462.5,1495.8,804.4,711.8,3463.7,1217.7,883.1,3440.7,3443.1,390.3,309.7,320.5,321.3,293.6,275.2,3464.9,3457.6,509.1,477.4,498.8,882.3,791.0,500.4,-5.0,-24.0,113.0,12585.0,-8448.0,-2457.0,5714.0,884.0,-409.0,204.0,-41.0,44.0,15.0,4710.0,-6344.0,-8635.0,11465.0,841.0,-438.0,212.0,1.0
2022-05-08 17:31:42.171186-07:00,698.7,795.2,837.7,962.0,382.5,374.7,1045.2,796.9,3467.4,3462.5,1495.8,804.4,712.6,3467.4,1217.7,883.1,3440.7,3440.7,381.7,312.8,320.5,321.3,293.6,272.9,3464.9,3466.1,505.1,483.7,498.8,882.3,791.0,495.6,2.0,44.0,24.0,12701.0,-8153.0,-2378.0,5916.0,607.0,-201.0,264.0,-4.0,50.0,4.0,4656.0,-6211.0,-8417.0,11719.0,568.0,-306.0,300.0,1.0
2022-05-08 17:31:42.290570-07:00,698.7,793.5,838.6,959.4,382.5,374.7,1045.2,792.7,3467.4,3462.5,1491.2,806.0,712.6,3467.4,1217.7,878.9,3449.1,3440.7,381.7,312.8,325.9,317.4,291.3,272.9,3462.5,3466.1,505.1,483.7,498.8,883.1,811.0,495.6,5.0,30.0,-16.0,12797.0,-7899.0,-2324.0,6071.0,1051.0,-291.0,87.0,13.0,8.0,3.0,4613.0,-6095.0,-8216.0,11937.0,839.0,-320.0,210.0,1.0
2022-05-08 17:31:42.291832-07:00,694.6,784.4,838.6,959.4,387.9,380.2,1045.2,792.7,3464.9,3473.4,1491.2,806.0,713.4,3457.6,1203.5,878.9,3449.1,3445.5,391.1,308.2,325.9,317.4,291.3,275.2,3462.5,3446.7,512.3,479.0,498.8,883.1,821.0,490.1,-11.0,125.0,-95.0,12989.0,-7484.0,-2212.0,6232.0,796.0,-279.0,99.0,-12.0,118.0,-74.0,4636.0,-5898.0,-7928.0,12219.0,754.0,-351.0,129.0,1.0
2022-05-08 17:31:42.320930-07:00,694.6,784.4,841.1,960.2,387.9,380.2,1044.4,783.6,3464.9,3473.4,1552.5,804.4,713.4,3457.6,1217.7,875.5,3450.4,3438.2,391.1,308.2,323.6,321.3,291.3,275.2,3447.9,3468.6,512.3,479.0,508.3,889.0,821.0,490.1,-3.0,-48.0,-18.0,13105.0,-7168.0,-2246.0,6345.0,1010.0,-784.0,-269.0,9.0,-119.0,59.0,4628.0,-5726.0,-7767.0,12406.0,777.0,-421.0,33.0,1.0
2022-05-08 17:31:42.470474-07:00,700.3,786.9,841.1,960.2,387.9,383.3,1044.4,783.6,3467.4,3468.6,1552.5,804.4,712.6,3466.1,1217.7,875.5,3450.4,3438.2,385.6,313.6,323.6,321.3,290.5,273.7,3447.9,3468.6,513.9,477.4,508.3,889.0,853.7,492.5,80.0,49.0,107.0,13267.0,-6733.0,-2377.0,6437.0,-101.0,-103.0,-8.0,105.0,223.0,-161.0,4623.0,-5468.0,-7604.0,12624.0,-22.0,-120.0,144.0,1.0
2022-05-08 17:31:42.473572-07:00,700.3,786.9,929.6,965.4,387.9,383.3,1132.2,945.8,3467.4,3468.6,1694.8,816.9,712.6,3466.1,1328.7,892.4,3441.9,3445.5,385.6,313.6,325.9,321.3,290.5,273.7,3463.7,3457.6,513.9,477.4,507.5,900.0,853.7,492.5,68.0,-110.0,85.0,13327.0,-6634.0,-2347.0,6427.0,1018.0,106.0,-148.0,58.0,-16.0,-34.0,4535.0,-5429.0,-7542.0,12709.0,717.0,-331.0,121.0,1.0
2022-05-08 17:31:42.474564-07:00,700.3,776.9,929.6,965.4,389.5,395.7,1132.2,945.8,3473.4,3463.7,1694.8,816.9,723.3,3471.0,1328.7,892.4,3441.9,3445.5,382.5,313.6,325.9,321.3,299.7,281.3,3463.7,3457.6,525.8,488.5,507.5,900.0,888.2,527.4,42.0,95.0,-73.0,13477.0,-6391.0,-2172.0,6421.0,490.0,354.0,-21.0,43.0,90.0,-114.0,4522.0,-5333.0,-7359.0,12860.0,403.0,-127.0,152.0,1.0
2022-05-08 17:31:42.530361-07:00,700.3,776.9,1004.8,969.6,389.5,395.7,1128.7,984.2,3473.4,3463.7,2262.1,889.0,723.3,3471.0,1484.7,909.3,3438.2,3449.1,382.5,313.6,324.4,323.6,299.7,281.3,3457.6,3458.9,525.8,488.5,515.5,935.6,888.2,527.4,6.0,108.0,-2.0,13566.0,-6291.0,-1967.0,6399.0,122.0,330.0,66.0,28.0,97.0,-11.0,4500.0,-5285.0,-7278.0,12933.0,62.0,-126.0,60.0,1.0
2022-05-08 17:31:42.560727-07:00,697.9,778.6,986.7,969.6,389.5,405.1,1128.7,984.2,3467.4,3471.0,2113.9,889.0,778.6,3464.9,1484.7,909.3,3438.2,3449.1,382.5,311.3,324.4,324.4,292.1,296.7,3457.6,3458.9,534.6,509.1,515.5,962.0,905.9,582.6,18.0,-20.0,44.0,13568.0,-6379.0,-1854.0,6342.0,-207.0,577.0,-13.0,0.0,-2.0,-54.0,4470.0,-5303.0,-7332.0,12906.0,-322.0,36.0,84.0,1.0
2022-05-08 17:31:42.620476-07:00,697.9,778.6,986.7,971.3,389.5,402.0,1111.2,996.2,3467.4,3471.0,2113.9,880.6,778.6,3478.3,1540.3,947.5,3447.9,3450.4,389.5,311.3,323.6,324.4,292.1,296.7,3466.1,3462.5,538.6,509.1,541.0,962.0,905.9,582.6,7.0,-106.0,4.0,13564.0,-6523.0,-1665.0,6256.0,-14.0,449.0,258.0,-17.0,-92.0,-31.0,4404.0,-5349.0,-7406.0,12868.0,-136.0,39.0,134.0,1.0
2022-05-08 17:31:42.680418-07:00,701.1,779.4,971.3,971.3,388.7,402.0,1111.2,996.2,3468.6,3471.0,2030.4,880.6,786.9,3478.3,1540.3,947.5,3447.9,3450.4,389.5,311.3,323.6,324.4,293.6,289.8,3466.1,3462.5,538.6,511.5,541.0,950.9,886.5,577.8,-18.0,-103.0,65.0,13531.0,-6616.0,-1539.0,6263.0,-485.0,90.0,105.0,-27.0,-141.0,30.0,4328.0,-5395.0,-7429.0,12861.0,-426.0,49.0,268.0,1.0
2022-05-08 17:31:42.830312-07:00,701.1,779.4,971.3,972.2,388.7,402.0,1109.5,974.8,3468.6,3471.0,2030.4,877.2,786.9,3479.5,1506.0,944.1,3440.7,3438.2,389.5,311.3,327.5,324.4,293.6,289.8,3457.6,3455.2,532.2,511.5,540.2,950.9,886.5,577.8,6.0,-173.0,142.0,13451.0,-6759.0,-1549.0,6280.0,110.0,173.0,263.0,-29.0,-161.0,61.0,4170.0,-5500.0,-7473.0,12843.0,84.0,12.0,506.0,1.0
2022-05-08 17:31:42.831753-07:00,705.2,780.3,952.6,972.2,384.0,402.0,1109.5,974.8,3478.3,3474.6,2000.5,877.2,767.0,3479.5,1506.0,944.1,3440.7,3438.2,389.5,312.8,327.5,317.4,286.7,291.3,3457.6,3455.2,532.2,509.9,540.2,947.5,873.0,573.8,30.0,-29.0,80.0,13419.0,-6773.0,-1386.0,6371.0,-117.0,322.0,419.0,6.0,-35.0,33.0,4003.0,-5618.0,-7347.0,12918.0,-80.0,152.0,670.0,1.0
2022-05-08 17:31:42.832635-07:00,705.2,780.3,952.6,972.2,384.0,395.0,1112.1,973.9,3478.3,3474.6,2000.5,878.9,767.0,3474.6,1477.3,932.2,3444.3,3446.7,386.4,312.8,324.4,317.4,286.7,291.3,3473.4,3461.3,532.2,509.9,530.6,947.5,873.0,573.8,-1.0,5.0,51.0,13326.0,-6910.0,-1221.0,6451.0,-134.0,313.0,407.0,-12.0,-13.0,54.0,3774.0,-5834.0,-7273.0,12932.0,-132.0,221.0,724.0,1.0
2022-05-08 17:31:42.860816-07:00,691.3,769.5,946.6,972.2,385.6,395.0,1112.1,973.9,3468.6,3452.8,1968.7,878.9,763.7,3474.6,1477.3,932.2,3444.3,3446.7,386.4,313.6,324.4,317.4,286.7,285.2,3473.4,3461.3,532.2,503.6,530.6,945.8,862.1,569.8,-2.0,66.0,-8.0,13268.0,-6979.0,-1041.0,6528.0,112.0,342.0,365.0,-5.0,74.0,0.0,3576.0,-6037.0,-7150.0,12964.0,135.0,225.0,660.0,1.0
2022-05-08 17:31:43.010493-07:00,691.3,769.5,946.6,968.8,384.0,398.9,1113.0,962.0,3468.6,3452.8,1968.7,871.3,758.7,3471.0,1466.3,921.1,3439.5,3433.4,390.3,312.0,326.7,317.4,286.7,285.2,3447.9,3461.3,529.8,498.0,531.4,945.8,862.1,569.8,-15.0,91.0,-74.0,13235.0,-7017.0,-849.0,6582.0,-23.0,290.0,272.0,9.0,88.0,-35.0,3425.0,-6216.0,-6997.0,13004.0,40.0,231.0,549.0,1.0
2022-05-08 17:31:43.011731-07:00,692.1,772.8,939.0,965.4,384.0,398.9,1113.0,962.0,3456.4,3469.8,1959.8,868.8,758.7,3471.0,1466.3,921.1,3439.5,3433.4,390.3,312.0,325.1,317.4,294.4,282.9,3447.9,3461.3,529.8,498.0,520.3,935.6,857.9,564.2,4.0,79.0,-89.0,13174.0,-7106.0,-746.0,6621.0,-233.0,188.0,173.0,19.0,58.0,-74.0,3283.0,-6380.0,-6947.0,12988.0,-212.0,173.0,404.0,1.0
2022-05-08 17:31:43.012871-07:00,692.1,772.8,939.0,965.4,378.6,390.3,1118.2,965.4,3456.4,3469.8,1959.8,868.8,752.1,3466.1,1463.5,927.9,3446.7,3444.3,387.9,311.3,325.1,317.4,294.4,282.9,3464.9,3468.6,531.4,501.2,520.3,935.6,857.9,564.2,3.0,71.0,-97.0,13147.0,-7149.0,-664.0,6636.0,228.0,145.0,109.0,20.0,83.0,-56.0,3202.0,-6478.0,-6871.0,13000.0,204.0,17.0,246.0,1.0
2022-05-08 17:31:43.130411-07:00,695.4,768.7,949.2,971.3,378.6,390.3,1118.2,965.4,3466.1,3474.6,1939.0,866.3,752.1,3466.1,1463.5,927.9,3446.7,3444.3,387.9,311.3,321.3,310.5,283.6,285.2,3464.9,3468.6,531.4,501.2,516.3,931.3,852.8,557.8,-8.0,114.0,-95.0,13154.0,-7134.0,-586.0,6647.0,-80.0,52.0,44.0,9.0,95.0,-35.0,3171.0,-6520.0,-6824.0,13012.0,-64.0,72.0,98.0,1.0
2022-05-08 17:31:43.160440-07:00,695.4,768.7,949.2,971.3,382.5,391.1,1111.2,967.1,3466.1,3474.6,1939.0,866.3,750.5,3474.6,1449.7,926.2,3449.1,3441.9,383.3,312.8,321.3,310.5,283.6,285.2,3451.6,3457.6,527.4,498.8,516.3,931.3,852.8,557.8,4.0,50.0,-52.0,13147.0,-7147.0,-592.0,6646.0,63.0,-51.0,-46.0,7.0,60.0,-26.0,3169.0,-6521.0,-6827.0,13010.0,60.0,-30.0,-58.0,1.0
2022-05-08 17:31:43.161715-07:00,697.0,773.6,937.3,969.6,382.5,391.1,1111.2,967.1,3473.4,3466.1,1931.1,867.9,750.5,3474.6,1449.7,926.2,3449.1,3441.9,383.3,312.8,325.1,317.4,289.8,286.7,3451.6,3457.6,527.4,498.8,517.9,949.2,845.3,558.6,-8.0,11.0,-17.0,13167.0,-7116.0,-621.0,6636.0,41.0,-119.0,-104.0,-9.0,9.0,-16.0,3204.0,-6484.0,-6833.0,13017.0,32.0,-93.0,-130.0,1.0
2022-05-08 17:31:43.220543-07:00,698.7,773.6,937.3,969.6,394.2,394.2,1099.9,952.6,3471.0,3466.1,1931.1,867.9,746.3,3466.1,1438.7,924.5,3445.5,3444.3,384.8,309.7,325.1,317.4,289.8,282.9,3457.6,3457.6,531.4,498.8,517.9,949.2,845.3,553.8,-8.0,-18.0,-5.0,13182.0,-7090.0,-691.0,6627.0,-59.0,-147.0,-83.0,-8.0,9.0,-15.0,3231.0,-6440.0,-6866.0,13015.0,-61.0,-65.0,-118.0,1.0
2022-05-08 17:31:43.310426-07:00,698.7,771.1,940.7,967.1,394.2,394.2,1099.9,945.8,3471.0,3461.3,1934.1,866.3,746.3,3466.1,1438.7,921.1,3450.4,3444.3,384.8,309.7,325.1,319.7,290.5,282.9,3456.4,3457.6,531.4,498.8,515.5,929.6,846.1,553.8,-11.0,-36.0,26.0,13183.0,-7081.0,-749.0,6629.0,14.0,-92.0,-50.0,-22.0,-40.0,11.0,3246.0,-6416.0,-6892.0,13009.0,9.0,-58.0,-73.0,1.0
2022-05-08 17:31:43.340528-07:00,692.9,771.1,940.7,967.1,388.7,388.7,1102.5,945.8,3474.6,3461.3,1934.1,866.3,746.3,3464.9,1445.1,921.1,3450.4,3447.9,385.6,309.0,325.1,319.7,290.5,281.3,3456.4,3462.5,529.8,496.4,515.5,929.6,846.1,552.2,2.0,-14.0,19.0,13187.0,-7072.0,-776.0,6628.0,-36.0,-13.0,-16.0,-16.0,-6.0,10.0,3246.0,-6394.0,-6911.0,13010.0,-36.0,-35.0,-15.0,1.0
2022-05-08 17:31:43.370170-07:00,692.9,766.2,939.8,966.2,388.7,388.7,1102.5,955.1,3474.6,3464.9,1930.2,868.8,746.3,3464.9,1445.1,915.2,3445.5,3447.9,385.6,309.0,324.4,319.0,291.3,281.3,3461.3,3462.5,529.8,496.4,493.2,930.5,852.0,552.2,2.0,5.0,9.0,13185.0,-7076.0,-786.0,6627.0,-28.0,-19.0,14.0,6.0,10.0,4.0,3246.0,-6389.0,-6921.0,13007.0,-30.0,30.0,-3.0,1.0
2022-05-08 17:31:43.491201-07:00,699.5,766.2,939.8,966.2,383.3,391.1,1103.4,955.1,3466.1,3464.9,1930.2,868.8,743.0,3473.4,1442.4,915.2,3445.5,3447.9,387.2,309.7,324.4,319.0,291.3,284.4,3461.3,3462.5,525.0,494.0,493.2,930.5,852.0,556.2,4.0,0.0,9.0,13178.0,-7076.0,-804.0,6637.0,24.0,-16.0,-7.0,-2.0,6.0,-20.0,3245.0,-6382.0,-6926.0,13008.0,23.0,-10.0,-9.0,1.0
2022-05-08 17:31:43.640647-07:00,699.5,761.2,927.1,967.1,383.3,391.1,1103.4,947.5,3466.1,3467.4,1904.6,867.9,743.0,3473.4,1442.4,925.4,3454.0,3447.9,387.2,309.7,326.7,316.7,280.6,284.4,3460.1,3462.5,525.0,494.0,511.5,927.1,838.6,556.2,-10.0,6.0,0.0,13184.0,-7072.0,-800.0,6631.0,-21.0,17.0,-8.0,-10.0,10.0,7.0,3249.0,-6382.0,-6924.0,13008.0,-13.0,26.0,-8.0,1.0
2022-05-08 17:31:43.642567-07:00,692.9,761.2,927.1,967.1,385.6,391.1,1102.5,947.5,3471.0,3467.4,1904.6,867.9,743.9,3464.9,1434.1,925.4,3454.0,3441.9,384.0,309.0,326.7,316.7,280.6,280.6,3460.1,3466.1,525.0,496.4,511.5,927.1,838.6,544.2,-1.0,-4.0,10.0,13181.0,-7076.0,-805.0,6632.0,14.0,-18.0,-1.0,-9.0,-6.0,0.0,3250.0,-6385.0,-6925.0,13006.0,19.0,-10.0,-5.0,1.0
2022-05-08 17:31:43.643625-07:00,692.9,771.1,933.9,958.5,385.6,391.1,1099.9,939.0,3471.0,3466.1,1918.3,856.2,743.9,3464.9,1437.8,918.6,3440.7,3445.5,384.0,309.0,323.6,317.4,286.7,280.6,3464.9,3463.7,525.0,496.4,519.5,929.6,842.8,544.2,-9.0,10.0,1.0,13185.0,-7072.0,-805.0,6628.0,9.0,16.0,-25.0,-15.0,7.0,9.0,3255.0,-6380.0,-6924.0,13007.0,9.0,-7.0,-21.0,1.0
2022-05-08 17:31:43.644494-07:00,696.2,764.5,933.9,958.5,384.0,389.5,1099.9,939.0,3467.4,3468.6,1918.3,856.2,748.0,3469.8,1437.8,918.6,3440.7,3445.5,385.6,309.0,323.6,317.4,286.7,274.4,3464.9,3463.7,526.6,494.8,519.5,929.6,837.7,545.8,-3.0,-7.0,5.0,13186.0,-7073.0,-803.0,6624.0,-13.0,-9.0,11.0,-6.0,-3.0,-8.0,3256.0,-6383.0,-6924.0,13005.0,-10.0,3.0,-6.0,1.0
2022-05-08 17:31:43.670140-07:00,696.2,764.5,923.7,962.8,384.0,389.5,1092.9,936.4,3467.4,3468.6,1914.4,863.7,748.0,3469.8,1430.5,913.5,3435.8,3443.1,385.6,309.0,327.5,323.6,286.7,274.4,3461.3,3464.9,526.6,494.8,512.3,918.6,837.7,545.8,-1.0,-12.0,6.0,13185.0,-7076.0,-807.0,6624.0,16.0,3.0,-7.0,-7.0,-7.0,-11.0,3255.0,-6381.0,-6926.0,13006.0,8.0,-15.0,-6.0,1.0
2022-05-08 17:31:44.270131-07:00,692.9,776.1,923.7,962.8,384.8,385.6,1092.9,936.4,3471.0,3461.3,1914.4,863.7,740.6,3466.1,1430.5,913.5,3435.8,3443.1,382.5,312.8,327.5,323.6,285.2,279.8,3461.3,3464.9,521.8,496.4,512.3,918.6,832.7,550.6,-10.0,-3.0,-2.0,13186.0,-7075.0,-802.0,6624.0,-9.0,-8.0,22.0,-14.0,6.0,2.0,3254.0,-6382.0,-6924.0,13007.0,-5.0,-10.0,14.0,1.0
2022-05-08 17:31:44.331387-07:00,692.9,776.1,931.3,968.8,384.8,385.6,1095.6,942.4,3471.0,3461.3,1912.4,863.7,740.6,3466.1,1429.5,913.5,3446.7,3454.0,382.5,312.8,327.5,317.4,285.2,279.8,3452.8,3463.7,521.8,496.4,510.7,917.7,832.7,550.6,0.0,0.0,0.0,13180.0,-7078.0,-802.0,6633.0,3.0,-6.0,10.0,-6.0,-5.0,-9.0,3248.0,-6388.0,-6924.0,13006.0,8.0,5.0,12.0,1.0
2022-05-08 17:31:44.333230-07:00,699.5,763.7,931.3,968.8,386.4,391.1,1095.6,942.4,3467.4,3467.4,1912.4,863.7,735.6,3460.1,1429.5,913.5,3446.7,3454.0,388.7,312.8,327.5,317.4,289.8,282.1,3452.8,3463.7,521.0,492.5,510.7,917.7,834.4,544.2,-5.0,9.0,-1.0,13180.0,-7077.0,-800.0,6633.0,7.0,6.0,-5.0,-10.0,6.0,0.0,3247.0,-6385.0,-6920.0,13009.0,8.0,-17.0,-9.0,1.0
2022-05-08 17:31:44.334207-07:00,699.5,763.7,931.3,965.4,386.4,385.6,1096.4,950.9,3467.4,3467.4,1898.7,870.5,735.6,3469.8,1420.4,915.2,3440.7,3443.1,384.8,312.8,323.6,319.7,289.8,282.1,3460.1,3458.9,522.6,492.5,507.5,917.7,834.4,544.2,-2.0,-2.0,-1.0,13181.0,-7074.0,-801.0,6635.0,28.0,-14.0,-3.0,-4.0,2.0,-10.0,3247.0,-6385.0,-6918.0,13010.0,28.0,5.0,-6.0,1.0
2022-05-08 17:31:44.335114-07:00,698.7,762.9,929.6,965.4,384.8,385.6,1096.4,950.9,3468.6,3461.3,1899.7,870.5,738.9,3469.8,1420.4,915.2,3440.7,3443.1,384.8,311.3,323.6,315.9,288.2,279.0,3460.1,3458.9,522.6,495.6,507.5,919.4,827.7,545.8,-9.0,10.0,-9.0,13186.0,-7065.0,-799.0,6634.0,1.0,3.0,-11.0,-8.0,2.0,3.0,3252.0,-6385.0,-6911.0,13013.0,-8.0,2.0,-22.0,1.0
2022-05-08 17:31:44.335929-07:00,698.7,762.9,929.6,964.5,384.8,399.6,1084.2,933.9,3468.6,3461.3,1899.7,855.3,738.9,3471.0,1422.2,912.7,3449.1,3445.5,387.2,311.3,322.8,315.9,288.2,279.0,3464.9,3458.9,523.4,495.6,505.1,919.4,827.7,545.8,-2.0,-6.0,-1.0,13184.0,-7063.0,-804.0,6639.0,27.0,-22.0,20.0,-8.0,-17.0,-2.0,3259.0,-6382.0,-6912.0,13012.0,34.0,-18.0,-15.0,1.0
2022-05-08 17:31:44.360702-07:00,698.7,762.9,929.6,964.5,384.8,399.6,1084.2,933.9,3468.6,3461.3,1899.7,855.3,738.9,3471.0,1422.2,912.7,3449.1,3445.5,387.2,311.3,322.8,315.9,288.2,279.0,3464.9,3458.9,523.4,495.6,505.1,919.4,827.7,545.8,-2.0,-6.0,-1.0,13184.0,-7063.0,-804.0,6639.0,27.0,-22.0,20.0,-8.0,-17.0,-2.0,3259.0,-6382.0,-6912.0,13012.0,34.0,-18.0,-15.0,1.0
2022-05-08 17:31:44.362185-07:00,699.5,766.2,921.1,964.5,388.7,384.8,1092.1,933.0,3468.6,3463.7,1885.0,862.1,734.8,3461.3,1413.1,911.8,3446.7,3444.3,384.0,313.6,326.7,321.3,287.5,276.0,3457.6,3460.1,525.0,498.0,506.7,914.4,832.7,550.6,1.0,-10.0,-6.0,13199.0,-7003.0,-815.0,6672.0,-7.0,-27.0,28.0,-4.0,-10.0,-21.0,3274.0,-6358.0,-6876.0,13039.0,2.0,-5.0,-1.0,1.0
2022-05-08 17:31:44.420598-07:00,700.3,772.0,923.7,968.8,388.7,384.8,1092.1,933.0,3464.9,3474.6,1884.0,863.7,734.8,3461.3,1413.1,911.8,3446.7,3444.3,384.0,313.6,325.1,320.5,285.2,279.0,3457.6,3460.1,525.0,498.0,504.4,915.2,829.4,537.0,0.0,2.0,6.0,13199.0,-6995.0,-823.0,6679.0,-10.0,-28.0,-5.0,-6.0,1.0,-4.0,3274.0,-6350.0,-6875.0,13043.0,-11.0,-24.0,-10.0,1.0
2022-05-08 17:31:44.450512-07:00,700.3,772.0,923.7,968.8,387.9,386.4,1081.6,935.6,3464.9,3474.6,1884.0,863.7,736.5,3474.6,1413.1,907.6,3447.9,3441.9,389.5,312.0,325.1,320.5,285.2,279.0,3468.6,3447.9,521.8,494.0,504.4,915.2,829.4,537.0,-10.0,11.0,-3.0,13200.0,-6990.0,-829.0,6682.0,12.0,-21.0,3.0,-6.0,14.0,-9.0,3274.0,-6344.0,-6876.0,13046.0,3.0,-18.0,-14.0,1.0
2022-05-08 17:31:44.510802-07:00,697.9,763.7,925.4,965.4,387.9,386.4,1081.6,933.0,3467.4,3463.7,1876.2,865.4,736.5,3474.6,1413.1,904.2,3444.3,3441.9,389.5,312.0,322.8,319.0,286.7,281.3,3457.6,3447.9,521.8,494.0,504.4,910.1,833.6,537.8,2.0,10.0,0.0,13195.0,-6988.0,-841.0,6692.0,-17.0,-37.0,27.0,-5.0,7.0,-3.0,3278.0,-6346.0,-6879.0,13042.0,-1.0,19.0,-11.0,1.0
2022-05-08 17:31:44.570140-07:00,695.4,763.7,925.4,965.4,379.4,386.4,1087.7,933.0,3468.6,3463.7,1876.2,865.4,730.7,3472.2,1416.7,904.2,3444.3,3450.4,385.6,310.5,322.8,319.0,286.7,279.8,3457.6,3452.8,523.4,493.2,504.4,910.1,833.6,536.2,-6.0,12.0,-4.0,13193.0,-6990.0,-850.0,6692.0,-7.0,-14.0,-28.0,-6.0,0.0,1.0,3285.0,-6344.0,-6883.0,13039.0,0.0,-13.0,-31.0,1.0
2022-05-08 17:31:44.600474-07:00,695.4,769.5,918.6,967.1,379.4,386.4,1087.7,930.5,3468.6,3464.9,1879.1,860.4,730.7,3472.2,1416.7,909.3,3435.8,3450.4,385.6,310.5,328.2,324.4,285.9,279.8,3463.7,3452.8,523.4,493.2,503.6,916.0,824.4,536.2,-1.0,2.0,-13.0,13191.0,-6987.0,-873.0,6696.0,-20.0,-65.0,0.0,-5.0,14.0,-23.0,3296.0,-6336.0,-6891.0,13036.0,-9.0,2.0,-35.0,1.0
2022-05-08 17:31:44.690498-07:00,696.2,769.5,918.6,967.1,387.9,385.6,1082.5,930.5,3469.8,3464.9,1879.1,860.4,738.9,3457.6,1417.6,909.3,3435.8,3443.1,386.4,312.0,328.2,324.4,285.9,282.9,3463.7,3458.9,523.4,517.9,503.6,916.0,824.4,541.8,-13.0,17.0,-6.0,13191.0,-6981.0,-894.0,6701.0,-15.0,-41.0,-23.0,-15.0,10.0,-8.0,3309.0,-6325.0,-6900.0,13034.0,-11.0,-11.0,-47.0,1.0
2022-05-08 17:31:44.720087-07:00,696.2,772.0,917.7,970.5,387.9,385.6,1082.5,933.0,3469.8,3464.9,1877.2,861.2,738.9,3457.6,1417.6,912.7,3441.9,3443.1,386.4,312.0,316.7,312.8,283.6,282.9,3467.4,3458.9,523.4,517.9,502.0,914.4,831.1,541.8,-19.0,71.0,-60.0,13193.0,-6977.0,-922.0,6697.0,-36.0,-68.0,-21.0,5.0,68.0,-22.0,3330.0,-6306.0,-6917.0,13028.0,-22.0,2.0,-94.0,1.0
2022-05-08 17:31:44.750824-07:00,692.9,772.0,917.7,970.5,385.6,387.9,1086.0,933.0,3471.0,3464.9,1877.2,861.2,732.3,3462.5,1411.3,912.7,3441.9,3455.2,380.9,312.8,316.7,312.8,283.6,279.8,3467.4,3454.0,520.3,489.3,502.0,914.4,831.1,538.6,-30.0,139.0,-107.0,13178.0,-6985.0,-995.0,6708.0,-83.0,-174.0,-65.0,-4.0,128.0,-64.0,3374.0,-6267.0,-6970.0,13007.0,-35.0,-47.0,-246.0,1.0
2022-05-08 17:31:44.810819-07:00,692.9,762.9,912.7,963.7,385.6,387.9,1081.6,930.5,3471.0,3463.7,1870.3,864.6,732.3,3462.5,1409.4,907.6,3451.6,3445.5,380.9,312.8,322.8,317.4,285.2,279.8,3466.1,3462.5,520.3,489.3,505.1,914.4,830.2,538.6,-11.0,139.0,-93.0,13181.0,-6981.0,-1124.0,6686.0,-108.0,-246.0,-250.0,15.0,108.0,-38.0,3456.0,-6197.0,-7042.0,12981.0,-52.0,-80.0,-477.0,1.0
2022-05-08 17:31:44.870315-07:00,692.1,761.2,912.7,963.7,384.8,387.2,1081.6,930.5,3474.6,3468.6,1870.3,864.6,734.0,3460.1,1409.4,907.6,3451.6,3445.5,388.7,305.1,322.8,317.4,291.3,282.9,3466.1,3462.5,526.6,486.1,505.1,914.4,833.6,530.6,10.0,5.0,-44.0,13221.0,-6923.0,-1290.0,6636.0,54.0,-358.0,-344.0,9.0,14.0,-32.0,3629.0,-6051.0,-7143.0,12947.0,125.0,-157.0,-656.0,1.0
2022-05-08 17:31:44.930547-07:00,692.1,761.2,923.7,967.1,384.8,387.2,1077.3,925.4,3474.6,3468.6,1870.3,855.3,734.0,3460.1,1414.9,902.5,3447.9,3443.1,388.7,305.1,320.5,319.7,291.3,282.9,3458.9,3457.6,526.6,486.1,504.4,915.2,833.6,530.6,36.0,-39.0,33.0,13323.0,-6754.0,-1436.0,6576.0,396.0,-294.0,-375.0,19.0,-10.0,-23.0,3849.0,-5817.0,-7197.0,12961.0,339.0,-285.0,-664.0,1.0
2022-05-08 17:31:44.960792-07:00,692.1,764.5,923.7,967.1,386.4,385.6,1077.3,925.4,3473.4,3462.5,1870.3,855.3,738.9,3468.6,1414.9,902.5,3447.9,3443.1,386.4,310.5,320.5,319.7,287.5,272.9,3458.9,3457.6,523.4,497.2,504.4,915.2,834.4,541.8,23.0,-37.0,60.0,13418.0,-6608.0,-1522.0,6512.0,89.0,-224.0,-304.0,6.0,-55.0,19.0,4047.0,-5588.0,-7238.0,12979.0,0.0,-207.0,-563.0,1.0
2022-05-08 17:31:45.020437-07:00,692.1,764.5,922.8,964.5,386.4,385.6,1086.0,933.0,3473.4,3462.5,1894.8,857.0,738.9,3468.6,1409.4,908.4,3438.2,3435.8,386.4,310.5,324.4,319.0,287.5,272.9,3468.6,3457.6,523.4,497.2,504.4,915.2,834.4,541.8,23.0,-128.0,75.0,13427.0,-6595.0,-1663.0,6472.0,-158.0,-204.0,-101.0,1.0,-87.0,2.0,4185.0,-5449.0,-7358.0,12926.0,-151.0,-49.0,-407.0,1.0
2022-05-08 17:31:45.050462-07:00,695.4,766.2,922.8,964.5,381.7,387.2,1086.0,933.0,3457.6,3472.2,1894.8,857.0,735.6,3473.4,1409.4,908.4,3438.2,3435.8,392.6,302.8,324.4,319.0,288.2,277.5,3468.6,3457.6,519.5,494.8,504.4,915.2,833.6,548.2,-10.0,-90.0,43.0,13415.0,-6596.0,-1746.0,6475.0,-7.0,-155.0,-85.0,-31.0,-87.0,6.0,4270.0,-5375.0,-7463.0,12870.0,-6.0,-110.0,-261.0,1.0
2022-05-08 17:31:45.140562-07:00,695.4,766.2,921.1,970.5,381.7,387.2,1075.6,931.3,3457.6,3472.2,1877.2,862.1,735.6,3473.4,1393.0,910.1,3445.5,3451.6,392.6,302.8,327.5,321.3,288.2,277.5,3463.7,3468.6,519.5,494.8,509.1,911.0,833.6,548.2,38.0,-7.0,142.0,13439.0,-6516.0,-1811.0,6489.0,80.0,-188.0,-35.0,-5.0,48.0,-54.0,4336.0,-5278.0,-7470.0,12883.0,57.0,-100.0,-202.0,1.0
2022-05-08 17:31:45.230379-07:00,695.4,762.9,921.1,970.5,387.2,387.9,1075.6,931.3,3468.6,3467.4,1881.1,862.1,736.5,3468.6,1393.0,910.1,3445.5,3451.6,383.3,310.5,327.5,321.3,283.6,274.4,3463.7,3468.6,517.9,494.0,509.1,912.7,829.4,540.2,12.0,-10.0,20.0,13406.0,-6575.0,-1846.0,6487.0,189.0,-63.0,-30.0,15.0,-11.0,22.0,4339.0,-5296.0,-7543.0,12832.0,233.0,-80.0,-36.0,1.0
2022-05-08 17:31:45.290987-07:00,695.4,762.9,921.1,967.9,387.2,393.4,1082.5,922.8,3468.6,3467.4,1881.1,854.5,736.5,3471.0,1389.4,905.9,3443.1,3440.7,389.5,310.5,323.6,321.3,283.6,274.4,3464.9,3458.9,516.3,494.0,500.4,912.7,829.4,540.2,-7.0,34.0,-24.0,13424.0,-6498.0,-1891.0,6514.0,129.0,-276.0,-55.0,-2.0,13.0,-7.0,4361.0,-5272.0,-7481.0,12871.0,254.0,-23.0,-4.0,1.0
2022-05-08 17:31:45.470405-07:00,690.5,759.6,915.2,967.9,384.0,393.4,1082.5,922.8,3473.4,3474.6,1982.6,854.5,738.9,3471.0,1389.4,905.9,3443.1,3440.7,389.5,312.0,323.6,321.3,286.7,278.3,3464.9,3458.9,516.3,491.7,500.4,913.5,833.6,540.2,14.0,-17.0,50.0,13430.0,-6431.0,-2033.0,6525.0,1.0,-229.0,-103.0,7.0,46.0,-31.0,4390.0,-5233.0,-7423.0,12910.0,217.0,-56.0,-32.0,1.0
2022-05-08 17:31:45.473557-07:00,690.5,759.6,915.2,958.5,384.0,384.0,1087.7,927.9,3473.4,3474.6,1982.6,851.1,738.9,3468.6,1398.5,900.8,3444.3,3438.2,389.5,312.0,324.4,321.3,286.7,278.3,3458.9,3460.1,515.5,491.7,515.5,913.5,833.6,540.2,-6.0,-16.0,-1.0,13435.0,-6386.0,-2101.0,6537.0,37.0,-225.0,-51.0,-5.0,2.0,-17.0,4416.0,-5231.0,-7371.0,12932.0,213.0,-10.0,2.0,1.0
2022-05-08 17:31:45.474748-07:00,698.7,767.8,919.4,958.5,379.4,384.0,1087.7,927.9,3472.2,3457.6,2069.5,851.1,744.7,3468.6,1398.5,900.8,3444.3,3438.2,389.5,309.7,324.4,325.1,291.3,282.9,3458.9,3460.1,515.5,485.3,515.5,912.7,857.0,545.8,-2.0,-1.0,4.0,13442.0,-6334.0,-2153.0,6556.0,120.0,-88.0,-44.0,-13.0,15.0,0.0,4429.0,-5228.0,-7319.0,12959.0,140.0,16.0,30.0,1.0
2022-05-08 17:31:45.475983-07:00,698.7,767.8,919.4,966.2,379.4,380.2,1078.2,911.0,3472.2,3457.6,2069.5,842.8,744.7,3472.2,1365.7,900.0,3449.1,3439.5,385.6,309.7,322.8,325.1,291.3,282.9,3463.7,3452.8,518.7,485.3,521.8,912.7,857.0,545.8,-10.0,42.0,2.0,13449.0,-6291.0,-2200.0,6567.0,-66.0,-220.0,-42.0,-1.0,18.0,33.0,4447.0,-5233.0,-7269.0,12978.0,79.0,75.0,2.0,1.0
2022-05-08 17:31:45.500200-07:00,701.1,765.3,912.7,971.3,380.9,380.2,1078.2,911.0,3468.6,3463.7,2027.4,836.1,742.2,3472.2,1365.7,900.0,3449.1,3439.5,385.6,309.7,327.5,317.4,293.6,280.6,3463.7,3452.8,518.7,484.5,513.9,907.6,872.1,534.6,30.0,15.0,52.0,13429.0,-6293.0,-2286.0,6577.0,-67.0,-75.0,-29.0,8.0,29.0,14.0,4467.0,-5263.0,-7246.0,12972.0,13.0,116.0,14.0,1.0
2022-05-08 17:31:45.501163-07:00,701.1,765.3,912.7,971.3,380.9,380.2,1078.2,911.0,3468.6,3463.7,2027.4,836.1,742.2,3472.2,1365.7,900.0,3449.1,3439.5,385.6,309.7,327.5,317.4,293.6,280.6,3463.7,3452.8,518.7,484.5,513.9,907.6,872.1,534.6,30.0,15.0,52.0,13429.0,-6293.0,-2286.0,6577.0,-67.0,-75.0,-29.0,8.0,29.0,14.0,4467.0,-5263.0,-7246.0,12972.0,13.0,116.0,14.0,1.0
2022-05-08 17:31:45.591104-07:00,696.2,757.9,900.8,962.8,381.7,379.4,1066.0,887.3,3468.6,3474.6,1940.0,836.9,736.5,3469.8,1337.7,891.5,3450.4,3440.7,384.0,311.3,325.9,321.3,285.2,282.9,3461.3,3452.8,518.7,476.6,512.3,901.7,860.4,531.4,47.0,67.0,70.0,13298.0,-6624.0,-2365.0,6491.0,-604.0,298.0,-29.0,24.0,45.0,-9.0,4524.0,-5543.0,-7350.0,12776.0,-399.0,424.0,-23.0,1.0
2022-05-08 17:31:45.592952-07:00,696.2,757.9,900.8,962.8,385.6,380.2,1062.5,859.5,3468.6,3474.6,1940.0,836.9,734.8,3457.6,1315.1,892.4,3449.1,3440.7,384.0,308.2,325.9,321.3,285.2,282.9,3468.6,3457.6,513.9,477.4,512.3,901.7,860.4,531.4,32.0,121.0,34.0,13256.0,-6888.0,-2278.0,6330.0,-708.0,691.0,-50.0,25.0,68.0,10.0,4562.0,-5788.0,-7480.0,12577.0,-623.0,645.0,-45.0,1.0
2022-05-08 17:31:45.650310-07:00,693.8,763.7,891.5,960.2,385.6,380.2,1062.5,859.5,3472.2,3479.5,1863.5,826.9,734.8,3457.6,1315.1,892.4,3449.1,3440.7,384.0,308.2,323.6,321.3,286.7,272.9,3468.6,3457.6,513.9,477.4,509.1,900.8,848.6,517.9,33.0,109.0,-3.0,13133.0,-7369.0,-2178.0,6076.0,-1142.0,901.0,-149.0,21.0,76.0,1.0,4609.0,-6118.0,-7710.0,12261.0,-1052.0,803.0,-175.0,1.0
2022-05-08 17:31:45.710484-07:00,693.8,763.7,891.5,960.2,380.9,377.0,1066.0,843.6,3472.2,3479.5,1863.5,826.9,726.6,3463.7,1301.6,887.3,3437.0,3443.1,381.7,304.3,323.6,321.3,286.7,272.9,3460.1,3464.9,512.3,483.0,509.1,900.8,848.6,517.9,49.0,65.0,-33.0,12975.0,-7961.0,-2037.0,5706.0,-1319.0,1249.0,-248.0,50.0,39.0,-64.0,4657.0,-6473.0,-8019.0,11855.0,-1297.0,820.0,-268.0,1.0
2022-05-08 17:31:45.770320-07:00,697.9,767.0,888.2,967.1,380.9,377.0,1066.0,842.8,3469.8,3464.9,1807.1,823.5,726.6,3463.7,1301.6,888.2,3441.9,3443.1,381.7,304.3,329.0,317.4,290.5,278.3,3463.7,3464.9,512.3,483.0,509.1,889.8,840.3,513.1,38.0,79.0,-87.0,12732.0,-8673.0,-1877.0,5253.0,-1808.0,1327.0,-275.0,47.0,5.0,-92.0,4694.0,-6867.0,-8398.0,11345.0,-1630.0,969.0,-311.0,1.0
2022-05-08 17:31:45.800992-07:00,692.9,767.0,888.2,967.1,386.4,378.6,1059.9,842.8,3472.2,3464.9,1807.1,823.5,725.8,3467.4,1285.5,888.2,3441.9,3440.7,381.7,308.2,329.0,317.4,290.5,281.3,3463.7,3468.6,511.5,477.4,509.1,889.8,840.3,514.7,-17.0,-58.0,-99.0,12425.0,-9395.0,-1764.0,4762.0,-1556.0,1178.0,-338.0,-24.0,-9.0,-67.0,4686.0,-7260.0,-8818.0,10771.0,-1504.0,828.0,-321.0,1.0
2022-05-08 17:31:45.861096-07:00,692.9,763.7,882.3,969.6,386.4,378.6,1059.9,837.7,3472.2,3467.4,1781.0,822.7,725.8,3467.4,1285.5,881.4,3446.7,3440.7,381.7,308.2,322.1,319.7,293.6,281.3,3468.6,3468.6,511.5,477.4,512.3,895.7,830.2,514.7,-42.0,-69.0,-61.0,12187.0,-9916.0,-1670.0,4336.0,-1166.0,918.0,-294.0,-28.0,-1.0,-53.0,4694.0,-7536.0,-9117.0,10320.0,-1124.0,637.0,-247.0,1.0
2022-05-08 17:31:45.920443-07:00,695.4,763.7,882.3,969.6,379.4,370.0,1052.2,837.7,3473.4,3467.4,1781.0,822.7,721.6,3467.4,1271.2,881.4,3446.7,3439.5,384.0,309.0,322.1,319.7,293.6,278.3,3468.6,3460.1,513.9,475.8,512.3,895.7,830.2,508.3,-53.0,-90.0,-66.0,11962.0,-10319.0,-1625.0,4028.0,-973.0,528.0,-192.0,-34.0,-86.0,-65.0,4697.0,-7764.0,-9317.0,9964.0,-884.0,542.0,-138.0,1.0
2022-05-08 17:31:46.011024-07:00,695.4,763.7,869.6,952.6,379.4,370.0,1052.2,831.1,3473.4,3475.9,1750.2,816.0,721.6,3467.4,1271.2,886.5,3449.1,3439.5,384.0,309.0,325.1,322.1,288.2,278.3,3457.6,3460.1,513.9,475.8,505.9,892.4,831.1,508.3,-67.0,-114.0,-49.0,11743.0,-10634.0,-1617.0,3854.0,-787.0,333.0,-7.0,-48.0,-41.0,-73.0,4673.0,-7966.0,-9455.0,9682.0,-645.0,441.0,3.0,1.0
2022-05-08 17:31:46.012117-07:00,693.8,763.7,869.6,952.6,380.9,377.8,1049.6,831.1,3457.6,3475.9,1750.2,816.0,720.8,3473.4,1271.2,886.5,3449.1,3428.6,379.4,313.6,325.1,322.1,288.2,270.6,3457.6,3466.1,512.3,485.3,505.9,892.4,831.1,502.0,-51.0,-30.0,-26.0,11602.0,-10828.0,-1545.0,3767.0,-296.0,312.0,85.0,-38.0,2.0,-45.0,4663.0,-8114.0,-9502.0,9516.0,-163.0,304.0,66.0,1.0
2022-05-08 17:31:46.070431-07:00,693.8,762.9,875.5,965.4,380.9,377.8,1049.6,831.1,3457.6,3463.7,1737.8,813.5,720.8,3473.4,1271.2,884.8,3446.7,3428.6,379.4,313.6,322.8,317.4,290.5,270.6,3461.3,3466.1,512.3,485.3,503.6,894.1,826.9,502.0,-53.0,0.0,-38.0,11557.0,-10905.0,-1470.0,3714.0,-122.0,192.0,35.0,-47.0,11.0,-54.0,4680.0,-8181.0,-9497.0,9455.0,-110.0,157.0,35.0,1.0
2022-05-08 17:31:46.100521-07:00,701.1,764.5,875.5,965.4,386.4,375.5,1061.7,831.1,3478.3,3461.3,1737.8,813.5,716.7,3462.5,1266.7,884.8,3446.7,3451.6,384.0,315.9,322.8,317.4,285.2,274.4,3461.3,3463.7,512.3,466.4,503.6,894.1,827.7,505.1,-22.0,7.0,-38.0,11514.0,-10967.0,-1421.0,3683.0,-76.0,86.0,17.0,-1.0,19.0,-43.0,4663.0,-8249.0,-9506.0,9396.0,-57.0,75.0,-4.0,1.0
2022-05-08 17:31:46.160410-07:00,701.1,764.5,870.5,960.2,386.4,375.5,1046.1,831.1,3478.3,3461.3,1719.6,816.0,716.7,3462.5,1265.8,878.0,3440.7,3451.6,384.0,315.9,324.4,318.2,285.2,274.4,3458.9,3457.6,512.3,466.4,502.0,888.2,827.7,505.1,-5.0,0.0,-28.0,11496.0,-10984.0,-1424.0,3689.0,13.0,-72.0,-10.0,3.0,12.0,-42.0,4675.0,-8257.0,-9508.0,9381.0,35.0,9.0,-46.0,1.0
2022-05-08 17:31:46.220294-07:00,695.4,762.0,870.5,960.2,383.3,372.4,1046.1,831.1,3462.5,3467.4,1719.6,816.0,715.9,3467.4,1265.8,878.0,3440.7,3451.6,386.4,305.1,324.4,318.2,288.2,274.4,3458.9,3457.6,509.9,470.3,502.0,888.2,824.4,506.7,-23.0,-2.0,-4.0,11500.0,-10970.0,-1454.0,3706.0,56.0,-57.0,-55.0,-15.0,17.0,-33.0,4681.0,-8247.0,-9520.0,9374.0,61.0,-50.0,-49.0,1.0
2022-05-08 17:31:46.250955-07:00,695.4,762.0,868.8,960.2,383.3,372.4,1037.5,822.7,3462.5,3467.4,1696.7,813.5,715.9,3467.4,1256.0,877.2,3434.6,3447.9,386.4,305.1,329.0,314.4,288.2,274.4,3452.8,3457.6,509.9,470.3,505.9,884.8,824.4,506.7,-21.0,-36.0,5.0,11517.0,-10939.0,-1479.0,3735.0,61.0,-120.0,4.0,-10.0,-13.0,-26.0,4682.0,-8221.0,-9518.0,9398.0,59.0,-76.0,1.0,1.0
2022-05-08 17:31:46.310421-07:00,694.6,760.4,868.8,960.2,384.8,373.2,1037.5,822.7,3463.7,3464.9,1696.7,813.5,719.2,3464.9,1256.0,877.2,3434.6,3447.9,382.5,307.4,329.0,314.4,285.9,272.9,3452.8,3457.6,509.1,466.4,505.9,884.8,821.0,500.4,10.0,1.0,10.0,11515.0,-10922.0,-1500.0,3781.0,-13.0,-103.0,53.0,20.0,5.0,-23.0,4665.0,-8206.0,-9520.0,9418.0,2.0,-56.0,20.0,1.0
2022-05-08 17:31:46.400250-07:00,694.6,760.4,873.8,962.8,384.8,373.2,1031.4,823.5,3463.7,3464.9,1683.3,812.7,719.2,3464.9,1255.1,878.9,3439.5,3458.9,382.5,307.4,322.1,320.5,285.9,272.9,3458.9,3463.7,509.1,466.4,502.0,884.8,821.0,500.4,18.0,-1.0,29.0,11512.0,-10920.0,-1504.0,3798.0,13.0,-14.0,14.0,29.0,-6.0,10.0,4652.0,-8200.0,-9531.0,9419.0,27.0,-9.0,13.0,1.0
2022-05-08 17:31:46.401548-07:00,694.6,760.4,873.8,962.8,381.7,371.6,1031.4,823.5,3463.7,3461.3,1683.3,812.7,717.5,3464.9,1255.1,878.9,3439.5,3458.9,384.8,308.2,322.1,320.5,285.9,274.4,3458.9,3463.7,512.3,474.3,502.0,884.8,821.0,503.6,-5.0,0.0,15.0,11515.0,-10911.0,-1505.0,3811.0,-7.0,-21.0,25.0,0.0,12.0,-14.0,4654.0,-8203.0,-9525.0,9421.0,-16.0,18.0,17.0,1.0
2022-05-08 17:31:46.460422-07:00,694.6,760.4,861.2,963.7,381.7,370.0,1039.2,828.5,3463.7,3461.3,1671.9,814.4,717.5,3474.6,1252.4,878.0,3444.3,3443.1,387.2,308.2,327.5,322.1,285.9,274.4,3452.8,3457.6,507.5,474.3,512.3,900.8,821.0,503.6,-24.0,10.0,-2.0,11503.0,-10920.0,-1506.0,3819.0,-25.0,6.0,3.0,-22.0,16.0,-25.0,4644.0,-8214.0,-9528.0,9414.0,-23.0,6.0,9.0,1.0
2022-05-08 17:31:46.490808-07:00,693.8,762.0,859.5,963.7,384.0,370.0,1039.2,828.5,3472.2,3466.1,1673.8,814.4,703.6,3474.6,1252.4,878.0,3444.3,3443.1,387.2,311.3,327.5,317.4,285.9,272.9,3452.8,3457.6,507.5,469.5,512.3,894.1,829.4,499.6,-21.0,0.0,-5.0,11497.0,-10924.0,-1505.0,3830.0,-15.0,-53.0,-8.0,-7.0,12.0,-22.0,4636.0,-8221.0,-9529.0,9410.0,5.0,-3.0,-6.0,1.0
2022-05-08 17:31:46.550600-07:00,693.8,762.0,859.5,957.7,384.0,370.0,1046.1,820.2,3472.2,3466.1,1673.8,811.9,703.6,3466.1,1258.7,880.6,3447.9,3446.7,392.6,311.3,322.8,317.4,285.9,272.9,3457.6,3457.6,505.9,469.5,505.1,894.1,829.4,499.6,5.0,-4.0,3.0,11478.0,-10930.0,-1533.0,3859.0,-76.0,-113.0,20.0,7.0,-2.0,-29.0,4627.0,-8226.0,-9537.0,9402.0,-41.0,-17.0,-1.0,1.0
2022-05-08 17:31:46.610466-07:00,699.5,760.4,857.9,957.7,383.3,370.0,1046.1,820.2,3477.1,3463.7,1662.5,811.9,708.5,3466.1,1258.7,880.6,3447.9,3446.7,392.6,308.2,322.8,317.4,282.1,278.3,3457.6,3457.6,505.9,466.4,505.1,890.7,828.5,497.2,5.0,9.0,15.0,11481.0,-10919.0,-1550.0,3872.0,64.0,-26.0,-14.0,8.0,8.0,0.0,4625.0,-8219.0,-9539.0,9407.0,69.0,-22.0,0.0,1.0
2022-05-08 17:31:46.640594-07:00,699.5,760.4,857.9,952.6,383.3,371.6,1028.8,809.4,3477.1,3463.7,1662.5,811.0,708.5,3466.1,1249.7,875.5,3449.1,3433.4,387.9,308.2,324.4,317.4,282.1,278.3,3466.1,3458.9,503.6,466.4,502.8,890.7,828.5,497.2,-3.0,-9.0,1.0,11507.0,-10888.0,-1547.0,3885.0,84.0,-24.0,17.0,-1.0,4.0,-15.0,4644.0,-8207.0,-9519.0,9429.0,82.0,-4.0,2.0,1.0
2022-05-08 17:31:46.700559-07:00,701.1,753.8,858.7,952.6,382.5,371.6,1028.8,809.4,3474.6,3461.3,1655.8,811.0,714.2,3466.1,1249.7,875.5,3449.1,3433.4,387.9,309.0,324.4,319.0,284.4,268.3,3466.1,3458.9,503.6,465.6,502.8,885.6,808.5,502.8,-27.0,6.0,-20.0,11502.0,-10884.0,-1542.0,3911.0,-31.0,-44.0,57.0,-15.0,25.0,-31.0,4633.0,-8210.0,-9516.0,9435.0,-34.0,-21.0,15.0,1.0
2022-05-08 17:31:46.761044-07:00,701.1,753.8,858.7,962.0,383.3,366.2,1029.7,824.4,3474.6,3461.3,1655.8,811.9,705.2,3471.0,1243.5,873.0,3449.1,3446.7,390.3,309.0,325.1,319.0,284.4,268.3,3466.1,3457.6,504.4,466.4,502.8,885.6,808.5,502.8,-16.0,4.0,-30.0,11482.0,-10888.0,-1547.0,3957.0,37.0,-128.0,56.0,-1.0,23.0,-24.0,4616.0,-8206.0,-9527.0,9435.0,36.0,-60.0,-24.0,1.0
2022-05-08 17:31:46.790988-07:00,692.9,757.9,855.3,964.5,383.3,366.2,1029.7,824.4,3473.4,3466.1,1660.6,808.5,705.2,3471.0,1243.5,873.0,3449.1,3446.7,390.3,309.0,324.4,319.7,284.4,270.6,3466.1,3457.6,504.4,466.4,503.6,887.3,814.4,495.6,-21.0,-22.0,-37.0,11483.0,-10852.0,-1578.0,4039.0,143.0,-295.0,59.0,-10.0,-7.0,-27.0,4614.0,-8165.0,-9526.0,9473.0,165.0,-156.0,-38.0,1.0
2022-05-08 17:31:46.850715-07:00,692.9,757.9,855.3,964.5,383.3,369.3,1024.5,821.0,3473.4,3466.1,1660.6,808.5,709.3,3467.4,1235.5,872.1,3455.2,3444.3,384.0,311.3,324.4,319.7,284.4,270.6,3462.5,3460.1,502.0,468.7,503.6,887.3,814.4,495.6,0.0,47.0,-20.0,11545.0,-10726.0,-1680.0,4156.0,313.0,-462.0,-111.0,9.0,28.0,-5.0,4638.0,-8060.0,-9486.0,9590.0,378.0,-234.0,-76.0,1.0
2022-05-08 17:31:46.910471-07:00,692.9,760.4,868.8,956.8,383.3,369.3,1024.5,821.0,3473.4,3468.6,1626.5,807.7,709.3,3467.4,1235.5,872.1,3455.2,3444.3,384.0,311.3,322.1,319.0,285.9,268.3,3462.5,3460.1,502.0,468.7,500.4,892.4,823.5,498.0,-3.0,-18.0,63.0,11597.0,-10604.0,-1840.0,4256.0,113.0,-436.0,-103.0,-7.0,-1.0,9.0,4675.0,-7952.0,-9458.0,9690.0,187.0,-139.0,-88.0,1.0
2022-05-08 17:31:46.940579-07:00,692.9,760.4,868.8,956.8,390.3,377.0,1033.2,813.5,3473.4,3468.6,1626.5,807.7,704.4,3461.3,1242.6,883.9,3435.8,3454.0,384.8,312.0,322.1,319.0,285.9,268.3,3468.6,3471.0,502.8,467.1,500.4,892.4,823.5,498.0,12.0,-12.0,102.0,11589.0,-10579.0,-1915.0,4308.0,-42.0,-56.0,14.0,-2.0,0.0,22.0,4669.0,-7917.0,-9467.0,9713.0,-36.0,-39.0,2.0,1.0
2022-05-08 17:31:47.000657-07:00,694.6,757.1,857.9,954.3,390.3,377.0,1033.2,813.5,3468.6,3468.6,1628.4,806.0,704.4,3461.3,1242.6,883.9,3435.8,3454.0,384.8,312.0,323.6,314.4,282.9,272.1,3468.6,3471.0,502.8,467.1,505.9,895.7,806.9,499.6,13.0,26.0,41.0,11597.0,-10575.0,-1899.0,4302.0,31.0,56.0,-10.0,11.0,10.0,12.0,4678.0,-7922.0,-9455.0,9716.0,42.0,54.0,9.0,1.0
2022-05-08 17:31:47.060351-07:00,694.6,757.1,857.9,954.3,384.8,360.0,1031.4,816.9,3468.6,3468.6,1628.4,806.0,705.2,3462.5,1240.8,871.3,3449.1,3443.1,383.3,311.3,323.6,314.4,282.9,272.1,3466.1,3464.9,503.6,464.0,505.9,895.7,806.9,499.6,5.0,-19.0,5.0,11602.0,-10582.0,-1886.0,4278.0,17.0,61.0,-2.0,9.0,5.0,-23.0,4697.0,-7936.0,-9444.0,9706.0,13.0,61.0,5.0,1.0
2022-05-08 17:31:47.120687-07:00,692.9,755.4,861.2,961.1,384.8,360.0,1031.4,811.9,3469.8,3471.0,1630.3,806.9,705.2,3462.5,1240.8,871.3,3458.9,3443.1,383.3,311.3,326.7,318.2,280.6,270.6,3471.0,3464.9,503.6,464.0,498.8,862.1,804.4,498.0,-9.0,-6.0,-26.0,11599.0,-10594.0,-1871.0,4261.0,-7.0,52.0,-6.0,-2.0,5.0,-42.0,4700.0,-7952.0,-9443.0,9693.0,-6.0,18.0,8.0,1.0
2022-05-08 17:31:47.150532-07:00,698.7,755.4,861.2,961.1,387.9,368.5,1023.7,811.9,3471.0,3471.0,1630.3,806.9,706.0,3467.4,1227.5,871.3,3458.9,3438.2,384.8,306.7,326.7,318.2,280.6,275.2,3471.0,3468.6,509.9,466.4,498.8,862.1,804.4,495.6,-2.0,6.0,-17.0,11599.0,-10592.0,-1873.0,4266.0,16.0,-46.0,-11.0,-1.0,17.0,-32.0,4701.0,-7951.0,-9442.0,9693.0,23.0,-21.0,-17.0,1.0
2022-05-08 17:31:47.210648-07:00,698.7,756.3,862.1,963.7,387.9,368.5,1023.7,808.5,3471.0,3473.4,1628.4,806.9,706.0,3467.4,1227.5,875.5,3440.7,3438.2,384.8,306.7,325.1,317.4,284.4,275.2,3461.3,3468.6,509.9,466.4,504.4,886.5,806.9,495.6,-14.0,-6.0,13.0,11595.0,-10585.0,-1894.0,4286.0,-9.0,-71.0,4.0,-14.0,3.0,-13.0,4693.0,-7941.0,-9449.0,9700.0,5.0,-47.0,-4.0,1.0
2022-05-08 17:31:47.240559-07:00,692.1,756.3,862.1,963.7,387.2,369.3,1019.4,808.5,3466.1,3473.4,1628.4,806.9,710.1,3473.4,1227.5,875.5,3440.7,3447.9,384.0,307.4,325.1,317.4,284.4,271.4,3461.3,3468.6,501.2,465.6,504.4,886.5,806.9,494.8,1.0,7.0,33.0,11601.0,-10570.0,-1906.0,4302.0,27.0,-40.0,-12.0,3.0,5.0,8.0,4685.0,-7930.0,-9451.0,9709.0,37.0,-33.0,-11.0,1.0
2022-05-08 17:31:47.300602-07:00,692.1,761.2,851.1,961.1,387.2,369.3,1019.4,801.9,3466.1,3467.4,1623.7,799.4,710.1,3473.4,1227.5,877.2,3445.5,3447.9,384.0,307.4,327.5,320.5,287.5,271.4,3454.0,3468.6,501.2,465.6,496.4,885.6,807.7,494.8,6.0,-9.0,22.0,11604.0,-10563.0,-1910.0,4308.0,-38.0,4.0,13.0,13.0,-5.0,-1.0,4686.0,-7924.0,-9451.0,9714.0,-44.0,20.0,2.0,1.0
2022-05-08 17:31:47.450865-07:00,692.1,761.2,851.1,961.1,379.4,370.8,1021.1,801.9,3460.1,3467.4,1623.7,799.4,707.7,3468.6,1229.3,877.2,3445.5,3450.4,387.2,305.1,327.5,320.5,287.5,275.2,3454.0,3457.6,507.5,463.2,496.4,885.6,807.7,496.4,-1.0,2.0,11.0,11594.0,-10572.0,-1905.0,4314.0,-4.0,9.0,20.0,2.0,6.0,-6.0,4680.0,-7937.0,-9456.0,9702.0,9.0,13.0,19.0,1.0
2022-05-08 17:31:47.451972-07:00,692.1,751.3,847.8,964.5,379.4,370.8,1021.1,805.2,3460.1,3468.6,1607.7,797.7,707.7,3468.6,1229.3,871.3,3455.2,3450.4,387.2,305.1,327.5,320.5,282.1,275.2,3461.3,3457.6,507.5,463.2,507.5,886.5,806.0,496.4,-11.0,1.0,-4.0,11598.0,-10572.0,-1896.0,4308.0,19.0,11.0,-4.0,-7.0,2.0,-10.0,4683.0,-7943.0,-9452.0,9699.0,22.0,5.0,4.0,1.0
2022-05-08 17:31:47.453115-07:00,692.1,756.3,847.8,964.5,387.9,366.2,1021.9,805.2,3478.3,3473.4,1607.7,797.7,701.1,3469.8,1223.9,871.3,3455.2,3447.9,383.3,312.0,327.5,320.5,283.6,270.6,3461.3,3460.1,503.6,464.0,507.5,886.5,804.4,493.2,-9.0,-17.0,4.0,11591.0,-10577.0,-1899.0,4313.0,-27.0,-35.0,36.0,-5.0,-6.0,-10.0,4680.0,-7948.0,-9455.0,9694.0,-23.0,7.0,4.0,1.0
2022-05-08 17:31:47.510366-07:00,692.1,756.3,853.7,963.7,387.9,366.2,1014.2,797.7,3478.3,3473.4,1607.7,808.5,701.1,3469.8,1220.4,877.2,3439.5,3446.7,383.3,312.0,322.8,322.1,283.6,270.6,3458.9,3457.6,503.6,464.0,505.9,889.8,804.4,493.2,-6.0,19.0,4.0,11587.0,-10575.0,-1901.0,4329.0,5.0,-15.0,1.0,-3.0,19.0,-8.0,4679.0,-7948.0,-9455.0,9694.0,4.0,-9.0,0.0,1.0
2022-05-08 17:31:47.540626-07:00,694.6,755.4,853.7,963.7,384.0,370.8,1014.2,797.7,3473.4,3468.6,1607.7,808.5,702.8,3468.6,1220.4,877.2,3439.5,3446.7,381.7,308.2,322.8,322.1,279.8,271.4,3458.9,3457.6,499.6,460.8,505.9,889.8,806.0,489.3,-3.0,4.0,6.0,11591.0,-10568.0,-1907.0,4332.0,19.0,-15.0,-14.0,-3.0,14.0,-10.0,4680.0,-7942.0,-9452.0,9702.0,24.0,-22.0,-14.0,1.0
2022-05-08 17:31:47.630333-07:00,694.6,755.4,847.0,956.8,384.0,370.8,1022.8,802.7,3473.4,3468.6,1599.3,805.2,702.8,3468.6,1217.7,870.5,3428.6,3438.2,381.7,308.2,322.1,323.6,279.8,271.4,3451.6,3458.9,499.6,460.8,497.2,885.6,806.0,489.3,-2.0,-14.0,8.0,11590.0,-10566.0,-1915.0,4337.0,3.0,-30.0,11.0,0.0,0.0,-14.0,4677.0,-7936.0,-9456.0,9704.0,7.0,-17.0,-5.0,1.0
2022-05-08 17:31:47.661058-07:00,699.5,757.1,847.0,956.8,386.4,366.2,1022.8,802.7,3464.9,3471.0,1599.3,805.2,702.8,3464.9,1217.7,870.5,3428.6,3438.2,387.9,309.7,322.1,323.6,286.7,268.3,3451.6,3458.9,503.6,463.2,497.2,885.6,805.2,496.4,-10.0,0.0,7.0,11590.0,-10560.0,-1919.0,4348.0,15.0,-38.0,-10.0,-7.0,0.0,-2.0,4674.0,-7932.0,-9457.0,9708.0,8.0,-15.0,-5.0,1.0
2022-05-08 17:31:47.691004-07:00,699.5,757.1,854.5,958.5,386.4,366.2,1016.8,797.7,3464.9,3471.0,1601.1,808.5,702.8,3464.9,1217.7,872.1,3447.9,3446.7,387.9,309.7,322.8,321.3,286.7,268.3,3461.3,3461.3,503.6,463.2,498.8,882.3,805.2,496.4,-7.0,-7.0,15.0,11595.0,-10551.0,-1930.0,4354.0,21.0,-22.0,-13.0,-5.0,-4.0,4.0,4675.0,-7920.0,-9458.0,9716.0,16.0,-22.0,-12.0,1.0
2022-05-08 17:31:47.750386-07:00,691.3,752.1,847.8,958.5,384.8,369.3,1016.8,797.7,3458.9,3457.6,1596.4,808.5,703.6,3471.0,1217.7,872.1,3447.9,3446.7,389.5,312.0,322.8,325.9,280.6,266.0,3461.3,3461.3,504.4,460.0,498.8,881.4,801.9,499.6,-4.0,-1.0,0.0,11597.0,-10543.0,-1938.0,4363.0,13.0,-43.0,-2.0,1.0,7.0,-5.0,4675.0,-7911.0,-9457.0,9724.0,11.0,-18.0,-12.0,1.0
2022-05-08 17:31:47.810413-07:00,691.3,752.1,847.8,958.5,384.8,363.8,1016.8,796.9,3458.9,3457.6,1596.4,801.0,703.6,3457.6,1221.3,875.5,3445.5,3441.9,386.4,312.0,322.1,325.9,280.6,266.0,3461.3,3461.3,500.4,460.0,501.2,881.4,801.9,499.6,0.0,-5.0,9.0,11601.0,-10530.0,-1951.0,4378.0,32.0,-36.0,-11.0,0.0,-2.0,-10.0,4678.0,-7897.0,-9457.0,9734.0,32.0,-35.0,-13.0,1.0
2022-05-08 17:31:47.840572-07:00,696.2,756.3,857.0,958.5,380.2,363.8,1016.8,796.9,3472.2,3464.9,1595.5,801.0,702.8,3457.6,1221.3,875.5,3445.5,3441.9,386.4,305.1,322.1,317.4,282.9,272.1,3461.3,3461.3,500.4,464.8,501.2,887.3,799.4,488.5,-5.0,0.0,15.0,11605.0,-10519.0,-1963.0,4388.0,6.0,-40.0,5.0,1.0,6.0,-3.0,4676.0,-7884.0,-9459.0,9744.0,4.0,-26.0,-11.0,1.0
2022-05-08 17:31:47.900498-07:00,696.2,756.3,857.0,956.0,380.2,373.9,1009.0,796.0,3472.2,3464.9,1595.5,799.4,702.8,3471.0,1214.2,874.7,3463.7,3444.3,391.1,305.1,325.9,317.4,282.9,272.1,3467.4,3454.0,502.8,464.8,498.8,887.3,799.4,488.5,-1.0,2.0,11.0,11605.0,-10513.0,-1972.0,4398.0,1.0,-24.0,-3.0,0.0,5.0,-6.0,4673.0,-7878.0,-9461.0,9748.0,8.0,-18.0,-10.0,1.0
2022-05-08 17:31:48.082159-07:00,693.8,750.5,853.7,956.0,387.2,373.9,1009.0,796.0,3467.4,3466.1,1591.7,799.4,705.2,3471.0,1214.2,874.7,3463.7,3444.3,391.1,309.7,325.9,319.0,279.8,273.7,3467.4,3454.0,502.8,461.6,498.8,880.6,791.0,496.4,-13.0,-5.0,-18.0,11601.0,-10511.0,-1981.0,4410.0,-30.0,-56.0,23.0,-8.0,5.0,-29.0,4668.0,-7873.0,-9468.0,9748.0,-23.0,-27.0,-11.0,1.0
2022-05-08 17:31:48.110501-07:00,693.8,750.5,853.7,954.3,387.2,368.5,1013.3,787.7,3467.4,3466.1,1591.7,801.9,705.2,3468.6,1216.0,867.9,3435.8,3450.4,386.4,309.7,319.7,319.0,279.8,273.7,3468.6,3468.6,498.8,461.6,498.8,880.6,791.0,496.4,-27.0,-20.0,-54.0,11587.0,-10510.0,-2000.0,4442.0,37.0,-150.0,44.0,-22.0,-5.0,-39.0,4647.0,-7864.0,-9488.0,9745.0,0.0,-85.0,-21.0,1.0
2022-05-08 17:31:48.141433-07:00,693.8,757.1,853.7,954.3,386.4,368.5,1013.3,787.7,3462.5,3468.6,1593.6,801.9,701.9,3468.6,1216.0,867.9,3435.8,3450.4,386.4,309.7,319.7,317.4,279.0,272.1,3468.6,3468.6,498.8,469.5,498.8,878.0,788.6,488.5,-16.0,18.0,-18.0,11598.0,-10464.0,-2035.0,4505.0,192.0,-221.0,-24.0,-7.0,12.0,-18.0,4628.0,-7808.0,-9487.0,9800.0,176.0,-199.0,-37.0,1.0
2022-05-08 17:31:48.142727-07:00,693.8,757.1,853.7,957.7,380.9,373.9,1014.2,796.0,3462.5,3468.6,1593.6,805.2,692.9,3468.6,1219.5,873.0,3446.7,3443.1,385.6,309.7,324.4,317.4,279.0,272.1,3464.9,3456.4,498.8,460.0,502.8,878.0,788.6,488.5,-6.0,-13.0,-4.0,11644.0,-10372.0,-2089.0,4573.0,211.0,-261.0,-12.0,0.0,-2.0,-13.0,4631.0,-7717.0,-9472.0,9885.0,206.0,-208.0,-58.0,1.0
2022-05-08 17:31:48.143969-07:00,692.9,758.7,848.6,959.4,380.9,373.9,1014.2,796.0,3466.1,3469.8,1588.0,802.7,692.9,3468.6,1219.5,873.0,3446.7,3443.1,385.6,309.7,327.5,319.0,283.6,272.9,3464.9,3456.4,498.8,460.0,505.9,878.9,787.7,495.6,-28.0,-33.0,-59.0,11666.0,-10297.0,-2149.0,4657.0,140.0,-359.0,51.0,-11.0,-6.0,-35.0,4609.0,-7634.0,-9479.0,9954.0,96.0,-249.0,-45.0,1.0
2022-05-08 17:31:48.290717-07:00,692.9,758.7,848.6,959.4,385.6,375.5,1021.1,797.7,3466.1,3469.8,1588.0,802.7,698.7,3468.6,1212.4,867.9,3450.4,3449.1,377.8,309.7,327.5,319.0,283.6,272.9,3462.5,3461.3,510.7,461.6,505.9,878.9,787.7,495.6,-79.0,-57.0,-111.0,11695.0,-10161.0,-2245.0,4834.0,540.0,-836.0,102.0,-61.0,-42.0,-46.0,4566.0,-7501.0,-9470.0,10081.0,423.0,-478.0,-24.0,1.0
2022-05-08 17:31:48.292366-07:00,696.2,751.3,870.5,960.2,385.6,375.5,1021.1,797.7,3467.4,3475.9,1588.0,806.9,698.7,3468.6,1212.4,867.9,3450.4,3449.1,377.8,309.7,323.6,319.0,283.6,269.9,3462.5,3461.3,510.7,461.6,501.2,881.4,796.9,489.3,-85.0,-66.0,-73.0,11831.0,-9786.0,-2418.0,5182.0,1174.0,-1279.0,175.0,-67.0,-30.0,-22.0,4562.0,-7232.0,-9344.0,10393.0,1017.0,-723.0,-22.0,1.0
2022-05-08 17:31:48.293555-07:00,696.2,751.3,870.5,960.2,391.8,366.2,1034.9,813.5,3467.4,3475.9,1588.0,806.9,701.1,3463.7,1222.2,871.3,3454.0,3443.1,386.4,313.6,323.6,319.0,283.6,269.9,3468.6,3466.1,509.1,463.2,501.2,881.4,796.9,489.3,-16.0,-118.0,56.0,12029.0,-9224.0,-2616.0,5642.0,1417.0,-1129.0,144.0,-61.0,-95.0,-15.0,4565.0,-6867.0,-9098.0,10848.0,1194.0,-887.0,135.0,1.0
2022-05-08 17:31:48.350791-07:00,696.2,755.4,861.2,962.0,391.8,366.2,1034.9,813.5,3463.7,3457.6,1613.4,807.7,701.1,3463.7,1222.2,871.3,3454.0,3443.1,386.4,313.6,323.6,321.3,290.5,269.9,3468.6,3466.1,509.1,463.2,500.4,883.9,820.2,489.3,99.0,-34.0,59.0,12349.0,-8507.0,-2608.0,6064.0,2026.0,-678.0,200.0,55.0,-58.0,-32.0,4544.0,-6470.0,-8670.0,11435.0,1828.0,-921.0,397.0,1.0
2022-05-08 17:31:48.410529-07:00,696.2,755.4,861.2,962.0,382.5,370.0,1036.6,806.0,3463.7,3457.6,1613.4,807.7,701.1,3464.9,1228.4,877.2,3443.1,3440.7,385.6,308.2,323.6,321.3,290.5,269.9,3468.6,3463.7,508.3,467.9,500.4,883.9,820.2,489.3,67.0,69.0,57.0,12659.0,-7860.0,-2424.0,6366.0,1415.0,-246.0,246.0,34.0,36.0,31.0,4475.0,-6163.0,-8261.0,11924.0,1203.0,-681.0,441.0,1.0
2022-05-08 17:31:48.561007-07:00,695.4,760.4,858.7,963.7,382.5,370.0,1036.6,796.0,3478.3,3468.6,1544.1,803.5,701.1,3464.9,1228.4,873.8,3443.1,3440.7,385.6,308.2,325.1,325.9,291.3,266.8,3455.2,3463.7,508.3,467.9,499.6,879.7,806.0,486.9,61.0,129.0,-66.0,12900.0,-7314.0,-2242.0,6597.0,1646.0,-430.0,83.0,66.0,98.0,-25.0,4408.0,-5883.0,-7894.0,12332.0,1371.0,-725.0,263.0,1.0
2022-05-08 17:31:48.563693-07:00,699.5,760.4,858.7,963.7,382.5,383.3,1022.8,796.0,3463.7,3468.6,1544.1,803.5,697.0,3471.0,1213.3,873.8,3443.1,3451.6,387.2,309.0,325.1,325.9,291.3,269.9,3455.2,3467.4,508.3,472.7,499.6,879.7,806.0,486.9,107.0,79.0,33.0,13208.0,-6630.0,-2076.0,6761.0,1697.0,-139.0,-52.0,128.0,159.0,-77.0,4421.0,-5489.0,-7463.0,12770.0,1475.0,-778.0,72.0,1.0
2022-05-08 17:31:48.564829-07:00,699.5,758.7,955.1,963.7,382.5,383.3,1022.8,889.8,3463.7,3469.8,1608.7,797.7,697.0,3471.0,1213.3,873.8,3449.1,3451.6,387.2,309.0,323.6,318.2,286.7,269.9,3464.9,3467.4,508.3,472.7,498.8,894.1,825.2,486.9,47.0,-48.0,180.0,13415.0,-6235.0,-1842.0,6797.0,393.0,247.0,55.0,60.0,-38.0,71.0,4398.0,-5287.0,-7270.0,12973.0,85.0,-317.0,121.0,1.0
2022-05-08 17:31:48.591038-07:00,702.8,758.7,955.1,963.7,408.2,396.5,1072.9,889.8,3467.4,3469.8,1608.7,797.7,691.3,3468.6,1285.5,873.8,3449.1,3438.2,380.9,300.5,323.6,318.2,286.7,268.3,3464.9,3463.7,506.7,486.9,498.8,894.1,825.2,495.6,1.0,73.0,-23.0,13511.0,-6046.0,-1641.0,6829.0,630.0,269.0,242.0,26.0,145.0,-38.0,4331.0,-5175.0,-7148.0,13107.0,374.0,-234.0,217.0,1.0
2022-05-08 17:31:48.650260-07:00,702.8,755.4,1039.2,972.2,408.2,396.5,1072.9,967.1,3467.4,3477.1,2096.7,841.1,691.3,3468.6,1285.5,922.0,3449.1,3438.2,380.9,300.5,322.1,318.2,283.6,268.3,3466.1,3463.7,506.7,486.9,502.0,915.2,872.1,495.6,53.0,207.0,-18.0,13566.0,-5941.0,-1377.0,6872.0,363.0,641.0,75.0,15.0,99.0,0.0,4259.0,-5101.0,-7080.0,13197.0,313.0,-288.0,56.0,1.0
2022-05-08 17:31:48.710489-07:00,697.9,755.4,1039.2,972.2,412.1,410.6,1124.4,967.1,3475.9,3477.1,2096.7,841.1,774.5,3472.2,1438.7,922.0,3449.1,3444.3,384.0,311.3,322.1,318.2,283.6,293.6,3466.1,3458.9,512.3,529.8,502.0,915.2,872.1,563.4,11.0,30.0,85.0,13579.0,-6055.0,-1215.0,6774.0,-541.0,388.0,-133.0,20.0,32.0,66.0,4224.0,-5062.0,-7134.0,13194.0,-440.0,66.0,-90.0,1.0
2022-05-08 17:31:48.740615-07:00,697.9,755.4,1029.7,981.6,412.1,410.6,1108.6,1001.3,3475.9,3467.4,2122.0,871.3,774.5,3472.2,1536.6,985.0,3439.5,3446.7,384.0,311.3,320.5,315.9,295.1,293.6,3461.3,3460.1,512.3,529.8,520.3,956.8,900.0,563.4,-16.0,-61.0,16.0,13536.0,-6310.0,-1129.0,6643.0,-247.0,551.0,-72.0,-7.0,-63.0,22.0,4180.0,-5140.0,-7284.0,13095.0,-211.0,28.0,57.0,1.0
2022-05-08 17:31:48.800335-07:00,696.2,755.4,1029.7,981.6,406.7,423.1,1108.6,1001.3,3473.4,3477.1,2122.0,871.3,838.6,3467.4,1536.6,985.0,3439.5,3446.7,387.9,309.0,320.5,315.9,295.9,291.3,3461.3,3460.1,527.4,542.6,520.3,956.8,881.4,592.3,13.0,-91.0,70.0,13498.0,-6482.0,-1061.0,6566.0,-396.0,215.0,-31.0,-3.0,-111.0,7.0,4125.0,-5221.0,-7351.0,13043.0,-326.0,106.0,237.0,1.0
2022-05-08 17:31:49.040575-07:00,696.2,755.4,1006.5,973.1,406.7,423.1,1110.4,990.2,3473.4,3477.1,2035.4,874.7,838.6,3467.4,1512.5,991.9,3449.1,3452.8,387.9,309.0,322.1,324.4,295.9,291.3,3464.9,3462.5,527.4,542.6,516.3,951.7,881.4,592.3,-43.0,-184.0,181.0,13444.0,-6663.0,-1007.0,6503.0,-91.0,288.0,236.0,-50.0,-177.0,165.0,3984.0,-5365.0,-7366.0,13020.0,-82.0,220.0,516.0,1.0
2022-05-08 17:31:49.131043-07:00,699.5,773.6,1006.5,973.1,398.1,418.4,1110.4,990.2,3469.8,3473.4,2035.4,874.7,813.5,3462.5,1512.5,991.9,3449.1,3452.8,389.5,305.1,322.1,324.4,294.4,285.2,3464.9,3462.5,523.4,540.2,516.3,951.7,867.1,588.3,28.0,-28.0,85.0,13358.0,-6797.0,-880.0,6560.0,-399.0,375.0,380.0,10.0,-20.0,12.0,3794.0,-5605.0,-7288.0,13019.0,-324.0,349.0,741.0,1.0
2022-05-08 17:31:49.221045-07:00,699.5,773.6,997.0,971.3,398.1,418.4,1102.5,980.7,3469.8,3473.4,1998.5,866.3,813.5,3462.5,1481.9,976.5,3438.2,3440.7,389.5,305.1,322.1,316.7,294.4,285.2,3457.6,3461.3,523.4,540.2,509.9,939.0,867.1,588.3,-28.0,-9.0,34.0,13235.0,-7020.0,-693.0,6596.0,-164.0,541.0,427.0,-30.0,-4.0,54.0,3556.0,-5904.0,-7213.0,12996.0,-26.0,359.0,800.0,1.0
2022-05-08 17:31:49.222759-07:00,698.7,754.6,997.0,971.3,402.0,417.6,1102.5,980.7,3466.1,3471.0,1998.5,866.3,808.5,3467.4,1481.9,976.5,3438.2,3440.7,386.4,299.0,322.1,316.7,293.6,289.0,3457.6,3461.3,522.6,538.6,509.9,939.0,856.2,564.2,0.0,86.0,-61.0,13162.0,-7104.0,-469.0,6672.0,-19.0,351.0,435.0,8.0,82.0,-44.0,3369.0,-6140.0,-7051.0,13026.0,16.0,258.0,695.0,1.0
2022-05-08 17:31:49.341222-07:00,698.7,754.6,983.3,986.7,402.0,417.6,1098.2,972.2,3466.1,3471.0,1963.7,867.9,808.5,3467.4,1463.5,977.3,3451.6,3445.5,386.4,299.0,322.8,321.3,293.6,289.0,3461.3,3452.8,522.6,538.6,503.6,939.0,856.2,564.2,12.0,114.0,-106.0,13083.0,-7186.0,-298.0,6749.0,-50.0,215.0,362.0,28.0,72.0,-38.0,3207.0,-6349.0,-6929.0,13032.0,51.0,225.0,542.0,1.0
2022-05-08 17:31:49.342434-07:00,697.0,753.8,987.6,986.7,408.2,408.2,1098.2,972.2,3457.6,3466.1,1955.8,867.9,801.9,3468.6,1463.5,977.3,3451.6,3445.5,386.4,312.0,322.8,317.4,293.6,287.5,3461.3,3452.8,516.3,533.0,503.6,932.2,859.5,559.4,38.0,134.0,-125.0,13033.0,-7208.0,-238.0,6823.0,-51.0,-38.0,185.0,51.0,129.0,-62.0,3099.0,-6479.0,-6837.0,13043.0,-9.0,141.0,327.0,1.0
2022-05-08 17:31:49.371522-07:00,698.7,752.9,976.5,974.8,397.3,411.4,1092.1,963.7,3471.0,3468.6,1967.7,867.9,800.2,3467.4,1454.3,970.5,3449.1,3445.5,389.5,307.4,322.8,315.9,293.6,290.5,3457.6,3456.4,519.5,533.0,503.6,927.1,859.5,559.4,30.0,94.0,-59.0,13006.0,-7209.0,-243.0,6874.0,52.0,-58.0,-125.0,37.0,74.0,-21.0,3069.0,-6565.0,-6779.0,13037.0,35.0,9.0,-103.0,1.0
2022-05-08 17:31:49.372509-07:00,698.7,752.9,976.5,974.8,397.3,411.4,1092.1,963.7,3471.0,3468.6,1967.7,867.9,800.2,3467.4,1454.3,970.5,3449.1,3445.5,389.5,307.4,322.8,315.9,293.6,290.5,3457.6,3456.4,519.5,533.0,503.6,927.1,859.5,559.4,30.0,94.0,-59.0,13006.0,-7209.0,-243.0,6874.0,52.0,-58.0,-125.0,37.0,74.0,-21.0,3069.0,-6565.0,-6779.0,13037.0,35.0,9.0,-103.0,1.0
2022-05-08 17:31:49.373887-07:00,696.2,757.9,971.3,957.7,400.4,408.2,1094.7,956.8,3471.0,3451.6,1933.1,865.4,790.2,3467.4,1443.3,962.8,3444.3,3447.9,384.0,310.5,325.9,320.5,286.7,285.9,3462.5,3463.7,509.9,529.8,505.9,923.7,841.9,558.6,-1.0,-57.0,23.0,13046.0,-7169.0,-414.0,6832.0,-4.0,-192.0,-122.0,-27.0,-39.0,-3.0,3180.0,-6501.0,-6834.0,13013.0,33.0,-70.0,-140.0,1.0
2022-05-08 17:31:49.400456-07:00,701.1,759.6,970.5,966.2,396.5,404.3,1091.2,956.8,3473.4,3467.4,1925.2,868.8,791.9,3466.1,1441.5,967.9,3446.7,3451.6,386.4,309.0,324.4,319.0,283.6,283.6,3463.7,3460.1,513.9,525.8,501.2,918.6,848.6,552.2,-2.0,-5.0,16.0,13046.0,-7165.0,-519.0,6829.0,-51.0,-22.0,-15.0,-5.0,-15.0,-4.0,3206.0,-6473.0,-6886.0,12994.0,-38.0,-6.0,-22.0,1.0
2022-05-08 17:31:49.490483-07:00,701.1,759.6,970.5,968.8,395.7,408.2,1083.4,960.2,3473.4,3467.4,1925.2,865.4,777.8,3461.3,1437.8,967.1,3451.6,3454.0,384.0,308.2,323.6,319.0,283.6,283.6,3471.0,3462.5,511.5,528.2,501.2,918.6,848.6,552.2,12.0,15.0,23.0,13050.0,-7161.0,-530.0,6823.0,28.0,-17.0,-31.0,10.0,-8.0,17.0,3211.0,-6464.0,-6889.0,12995.0,19.0,-19.0,-30.0,1.0
2022-05-08 17:31:49.491980-07:00,692.9,750.5,960.2,969.6,395.7,408.2,1083.4,960.2,3468.6,3469.8,1915.4,861.2,777.8,3461.3,1437.8,967.1,3451.6,3454.0,384.0,308.2,330.5,319.7,290.5,282.1,3471.0,3462.5,511.5,528.2,498.8,916.9,841.9,556.2,14.0,1.0,14.0,13054.0,-7162.0,-537.0,6815.0,-58.0,-1.0,-29.0,14.0,4.0,6.0,3223.0,-6467.0,-6895.0,12988.0,-36.0,44.0,-28.0,1.0
2022-05-08 17:31:49.550163-07:00,692.9,750.5,960.2,969.6,398.9,403.5,1081.6,959.4,3468.6,3469.8,1915.4,861.2,781.1,3469.8,1429.5,959.4,3447.9,3446.7,384.8,312.0,330.5,319.7,290.5,282.1,3461.3,3456.4,508.3,525.8,498.8,916.9,841.9,556.2,4.0,7.0,4.0,13062.0,-7164.0,-544.0,6798.0,13.0,21.0,-44.0,1.0,7.0,-3.0,3242.0,-6467.0,-6896.0,12982.0,6.0,21.0,-32.0,1.0
2022-05-08 17:31:49.670390-07:00,694.6,755.4,952.6,964.5,398.9,403.5,1081.6,959.4,3471.0,3466.1,1916.4,863.7,781.1,3469.8,1429.5,959.4,3447.9,3446.7,384.8,312.0,322.8,319.0,289.8,274.4,3461.3,3456.4,508.3,525.8,502.0,922.8,841.9,552.2,1.0,-2.0,5.0,13067.0,-7169.0,-542.0,6782.0,-2.0,19.0,-24.0,-4.0,-9.0,-8.0,3256.0,-6475.0,-6898.0,12974.0,8.0,36.0,-24.0,1.0
2022-05-08 17:31:49.700440-07:00,694.6,755.4,952.6,964.5,396.5,403.5,1079.9,951.7,3471.0,3466.1,1916.4,863.7,783.6,3455.2,1425.0,956.0,3449.1,3444.3,387.9,312.0,322.8,319.0,289.8,274.4,3463.7,3462.5,507.5,528.2,502.0,922.8,841.9,552.2,1.0,-8.0,-3.0,13068.0,-7179.0,-540.0,6770.0,-37.0,24.0,-8.0,-1.0,-7.0,-4.0,3263.0,-6485.0,-6900.0,12966.0,-26.0,37.0,1.0,1.0
2022-05-08 17:31:49.702344-07:00,696.2,762.9,961.1,959.4,396.5,403.5,1079.9,951.7,3471.0,3466.1,1918.3,857.0,783.6,3455.2,1425.0,956.0,3449.1,3444.3,387.9,312.0,322.8,319.0,293.6,284.4,3463.7,3462.5,507.5,528.2,497.2,917.7,831.1,548.2,0.0,5.0,3.0,13067.0,-7188.0,-532.0,6763.0,23.0,40.0,-6.0,-1.0,-6.0,6.0,3267.0,-6494.0,-6899.0,12961.0,18.0,19.0,0.0,1.0
2022-05-08 17:31:49.730819-07:00,690.5,762.9,961.1,959.4,398.9,398.1,1085.1,947.5,3473.4,3466.1,1918.3,857.0,776.9,3468.6,1417.6,950.9,3438.2,3449.1,380.9,307.4,322.8,319.0,293.6,281.3,3474.6,3460.1,503.6,521.0,497.2,917.7,831.1,552.2,-1.0,-5.0,-7.0,13062.0,-7199.0,-531.0,6761.0,-59.0,-5.0,13.0,-5.0,-10.0,0.0,3269.0,-6506.0,-6902.0,12953.0,-19.0,28.0,0.0,1.0
