Time,P0,P1,P2,P3,P4,P5,P6,P7,P8,P9,P10,P11,P12,P13,P14,P15,P16,P17,P18,P19,P20,P21,P22,P23,P24,P25,P26,P27,P28,P29,P30,P31,ECG,AX0,AY0,AZ0,QW0,QX0,QY0,QZ0,GX0,GY0,GZ0,AX1,AY1,AZ1,QW1,QX1,QY1,QZ1,GX1,GY1,GZ1
2022-05-08 18:12:19.009870-07:00,655.4,683.1,640.8,918.6,349.9,302.0,805.2,681.5,3457.6,3469.8,1072.9,680.7,549.8,3467.4,1053.9,789.4,3439.5,3449.1,375.5,294.4,315.9,312.0,269.9,237.8,3451.6,3457.6,471.1,385.6,420.0,838.6,663.6,430.9,13.0,29.0,11.0,7204.0,-7058.0,-5266.0,11790.0,-161.0,-16.0,23.0,-11.0,29.0,1.0,5902.0,-6557.0,-7554.0,11557.0,-127.0,172.0,149.0,1.0
2022-05-08 18:12:19.012598-07:00,652.2,689.7,640.8,918.6,351.4,301.3,805.2,681.5,3462.5,3478.3,1072.9,680.7,550.6,3473.4,1053.9,789.4,3439.5,3449.1,370.0,296.7,315.9,312.0,275.2,240.1,3451.6,3457.6,471.1,386.4,420.0,838.6,658.7,427.0,15.0,29.0,-2.0,7153.0,-7081.0,-5280.0,11801.0,39.0,-95.0,174.0,32.0,38.0,28.0,5874.0,-6637.0,-7525.0,11544.0,123.0,36.0,132.0,1.0
2022-05-08 18:12:19.069654-07:00,652.2,689.7,645.7,911.0,351.4,301.3,801.0,692.9,3462.5,3478.3,1076.4,684.0,550.6,3473.4,1055.6,784.4,3434.6,3450.4,370.0,296.7,315.9,317.4,275.2,240.1,3457.6,3456.4,471.1,386.4,420.8,837.7,658.7,427.0,88.0,86.0,-19.0,7081.0,-7029.0,-5255.0,11887.0,35.0,-221.0,161.0,66.0,71.0,-43.0,5864.0,-6637.0,-7472.0,11583.0,11.0,4.0,38.0,1.0
2022-05-08 18:12:19.071439-07:00,653.8,679.1,643.2,911.0,352.2,294.4,801.0,692.9,3463.7,3468.6,1075.6,684.0,551.4,3463.7,1055.6,784.4,3434.6,3450.4,377.8,293.6,315.9,321.3,273.7,238.6,3457.6,3456.4,467.9,384.8,420.8,839.4,653.8,425.5,62.0,65.0,-26.0,7042.0,-6963.0,-5265.0,11943.0,60.0,-185.0,45.0,48.0,47.0,-24.0,5869.0,-6621.0,-7491.0,11577.0,34.0,-97.0,-115.0,1.0
2022-05-08 18:12:19.072116-07:00,653.8,679.1,643.2,915.2,352.2,297.4,797.7,680.7,3463.7,3468.6,1075.6,684.0,551.4,3467.4,1059.1,792.7,3440.7,3441.9,372.4,293.6,318.2,321.3,273.7,238.6,3461.3,3464.9,469.5,384.8,423.9,839.4,653.8,425.5,17.0,7.0,-21.0,7015.0,-6859.0,-5297.0,12005.0,72.0,-376.0,-44.0,-6.0,-17.0,-25.0,5900.0,-6549.0,-7530.0,11577.0,22.0,-149.0,-165.0,1.0
2022-05-08 18:12:19.098547-07:00,653.0,691.3,640.0,915.2,353.0,297.4,797.7,680.7,3469.8,3467.4,1081.6,684.0,550.6,3467.4,1059.1,792.7,3440.7,3441.9,372.4,294.4,318.2,317.4,271.4,233.3,3461.3,3464.9,469.5,384.8,423.9,841.9,666.8,424.7,-88.0,-202.0,56.0,7008.0,-6705.0,-5388.0,12056.0,3.0,-406.0,-176.0,-90.0,-91.0,-15.0,5908.0,-6478.0,-7569.0,11588.0,-50.0,-90.0,45.0,1.0
2022-05-08 18:12:19.189635-07:00,653.0,691.3,640.0,910.1,353.0,298.2,806.0,681.5,3469.8,3467.4,1081.6,688.0,550.6,3466.1,1057.3,792.7,3447.9,3440.7,370.0,294.4,316.7,317.4,271.4,233.3,3462.5,3455.2,468.7,384.8,416.8,841.9,666.8,424.7,-8.0,-25.0,12.0,6929.0,-6673.0,-5430.0,12100.0,10.0,-46.0,307.0,-13.0,16.0,10.0,5840.0,-6499.0,-7571.0,11609.0,100.0,-77.0,196.0,1.0
2022-05-08 18:12:19.219377-07:00,656.2,681.5,643.2,910.1,350.6,298.2,806.0,681.5,3471.0,3475.9,1103.4,688.0,553.0,3466.1,1057.3,792.7,3447.9,3440.7,370.0,299.7,316.7,324.4,275.2,235.5,3462.5,3455.2,468.7,384.8,416.8,843.6,656.2,424.7,0.0,95.0,-23.0,6859.0,-6632.0,-5340.0,12202.0,216.0,-232.0,173.0,5.0,45.0,-5.0,5807.0,-6470.0,-7504.0,11685.0,118.0,-104.0,63.0,1.0
2022-05-08 18:12:19.248780-07:00,656.2,681.5,643.2,912.7,350.6,299.0,794.4,681.5,3471.0,3475.9,1103.4,684.8,553.0,3466.1,1056.5,795.2,3449.1,3449.1,373.2,299.7,317.4,324.4,275.2,235.5,3478.3,3457.6,467.1,384.8,421.5,843.6,656.2,424.7,8.0,-38.0,45.0,6819.0,-6543.0,-5368.0,12260.0,-7.0,-206.0,13.0,-3.0,-20.0,0.0,5775.0,-6454.0,-7504.0,11709.0,-12.0,-45.0,64.0,1.0
2022-05-08 18:12:19.368921-07:00,653.0,680.7,640.0,912.7,347.6,299.0,794.4,681.5,3463.7,3457.6,1112.1,684.8,555.4,3466.1,1056.5,795.2,3449.1,3449.1,373.2,299.7,317.4,324.4,273.7,231.7,3478.3,3457.6,467.1,385.6,421.5,843.6,653.8,424.7,-1.0,7.0,23.0,6782.0,-6515.0,-5336.0,12310.0,139.0,-39.0,172.0,-3.0,15.0,-5.0,5749.0,-6450.0,-7476.0,11743.0,129.0,-41.0,103.0,1.0
2022-05-08 18:12:19.428701-07:00,653.0,680.7,640.0,911.8,351.4,302.0,801.0,672.5,3463.7,3457.6,1112.1,684.8,549.8,3469.8,1060.8,791.0,3446.7,3443.1,377.0,299.0,316.7,324.4,273.7,231.7,3457.6,3457.6,471.1,381.7,420.8,843.6,653.8,424.7,-1.0,58.0,-10.0,6760.0,-6510.0,-5311.0,12335.0,-19.0,-16.0,1.0,-18.0,15.0,-17.0,5736.0,-6448.0,-7454.0,11764.0,-28.0,2.0,10.0,1.0
2022-05-08 18:12:19.430147-07:00,653.0,682.3,640.8,912.7,351.4,302.0,801.0,672.5,3467.4,3472.2,1120.9,679.1,549.8,3469.8,1060.8,791.0,3446.7,3443.1,377.0,299.0,314.4,324.4,274.4,233.3,3457.6,3457.6,471.1,381.7,422.3,838.6,661.1,427.8,-2.0,-26.0,3.0,6784.0,-6505.0,-5311.0,12325.0,73.0,32.0,-41.0,-10.0,-9.0,-10.0,5745.0,-6444.0,-7459.0,11758.0,36.0,0.0,-31.0,1.0
2022-05-08 18:12:19.459386-07:00,653.0,682.3,640.8,912.7,349.1,305.1,802.7,679.1,3467.4,3472.2,1120.9,679.1,551.4,3461.3,1062.5,790.2,3449.1,3449.1,374.7,295.9,314.4,324.4,274.4,233.3,3462.5,3466.1,473.5,385.6,422.3,838.6,661.1,427.8,14.0,0.0,-6.0,6808.0,-6500.0,-5279.0,12328.0,95.0,30.0,-17.0,3.0,-11.0,-18.0,5765.0,-6427.0,-7442.0,11769.0,103.0,-18.0,-30.0,1.0
2022-05-08 18:12:19.519229-07:00,651.4,680.7,640.8,916.9,349.1,305.1,802.7,679.1,3464.9,3472.2,1109.5,684.8,551.4,3461.3,1062.5,790.2,3449.1,3449.1,374.7,295.9,315.1,324.4,272.9,237.8,3462.5,3466.1,473.5,385.6,420.8,837.7,653.8,427.0,11.0,23.0,12.0,6863.0,-6468.0,-5229.0,12335.0,203.0,41.0,-90.0,1.0,-1.0,6.0,5789.0,-6375.0,-7407.0,11808.0,188.0,-85.0,-48.0,1.0
2022-05-08 18:12:19.549267-07:00,651.4,680.7,640.8,916.9,353.7,292.8,805.2,679.1,3464.9,3472.2,1109.5,684.8,547.4,3462.5,1070.3,791.9,3443.1,3445.5,380.2,295.9,315.1,324.4,272.9,237.8,3463.7,3462.5,466.4,384.8,420.8,837.7,653.8,427.0,-3.0,-16.0,14.0,6900.0,-6456.0,-5204.0,12331.0,36.0,43.0,-5.0,-2.0,-4.0,6.0,5812.0,-6331.0,-7389.0,11831.0,70.0,-31.0,-42.0,1.0
2022-05-08 18:12:19.639633-07:00,656.2,679.9,635.1,915.2,353.7,292.8,805.2,679.1,3469.8,3464.9,1097.3,686.4,547.4,3462.5,1070.3,791.9,3443.1,3445.5,380.2,295.9,317.4,319.7,270.6,237.1,3463.7,3462.5,466.4,384.8,416.8,847.8,668.4,425.5,-8.0,19.0,-8.0,6911.0,-6476.0,-5165.0,12331.0,85.0,114.0,35.0,-3.0,10.0,0.0,5831.0,-6304.0,-7368.0,11849.0,114.0,-22.0,-29.0,1.0
2022-05-08 18:12:19.699016-07:00,657.0,679.9,635.1,915.2,349.9,302.0,806.9,680.7,3467.4,3464.9,1097.3,686.4,557.0,3467.4,1061.7,784.4,3445.5,3445.5,375.5,294.4,317.4,319.7,270.6,234.8,3473.4,3460.1,470.3,389.5,416.8,847.8,668.4,423.1,-6.0,8.0,-4.0,6933.0,-6481.0,-5127.0,12332.0,76.0,23.0,-17.0,-12.0,8.0,-7.0,5863.0,-6276.0,-7342.0,11864.0,102.0,-5.0,-58.0,1.0
2022-05-08 18:12:19.700429-07:00,657.0,683.1,639.2,920.3,349.9,302.0,806.9,681.5,3467.4,3467.4,1100.8,686.4,557.0,3467.4,1061.7,791.0,3435.8,3445.5,375.5,294.4,317.4,318.2,276.7,234.8,3467.4,3460.1,470.3,389.5,420.8,845.3,661.1,423.1,-9.0,-11.0,4.0,6952.0,-6475.0,-5097.0,12337.0,70.0,34.0,6.0,-15.0,-4.0,-1.0,5894.0,-6245.0,-7320.0,11879.0,106.0,-21.0,-55.0,1.0
2022-05-08 18:12:19.789067-07:00,650.5,683.1,639.2,920.3,353.0,304.3,801.9,681.5,3467.4,3467.4,1100.8,686.4,557.0,3469.8,1061.7,791.0,3435.8,3444.3,373.9,298.2,317.4,318.2,276.7,238.6,3467.4,3462.5,469.5,387.2,420.8,845.3,661.1,427.8,-8.0,8.0,7.0,6958.0,-6479.0,-5062.0,12346.0,55.0,33.0,29.0,-6.0,1.0,11.0,5914.0,-6214.0,-7298.0,11899.0,73.0,-28.0,-20.0,1.0
2022-05-08 18:12:19.818842-07:00,650.5,680.7,644.0,919.4,353.0,304.3,801.9,681.5,3467.4,3473.4,1097.3,684.8,557.0,3469.8,1061.7,789.4,3445.5,3444.3,373.9,298.2,316.7,321.3,272.1,238.6,3466.1,3462.5,469.5,387.2,419.2,838.6,666.8,427.8,-12.0,9.0,5.0,6960.0,-6472.0,-5047.0,12355.0,34.0,-20.0,-3.0,-13.0,6.0,6.0,5919.0,-6193.0,-7288.0,11913.0,39.0,-38.0,-10.0,1.0
2022-05-08 18:12:19.849478-07:00,657.0,680.7,644.0,919.4,350.6,300.5,799.4,681.5,3473.4,3473.4,1097.3,684.8,551.4,3467.4,1072.1,789.4,3445.5,3447.9,378.6,291.3,316.7,321.3,272.1,235.5,3466.1,3468.6,467.1,384.0,419.2,838.6,666.8,423.1,0.0,-5.0,12.0,6959.0,-6463.0,-5044.0,12361.0,9.0,-9.0,10.0,-8.0,0.0,0.0,5910.0,-6186.0,-7287.0,11922.0,0.0,-30.0,24.0,1.0
2022-05-08 18:12:19.909458-07:00,657.0,684.0,642.4,911.0,350.6,300.5,799.4,685.6,3473.4,3472.2,1095.6,677.4,551.4,3467.4,1072.1,790.2,3441.9,3447.9,378.6,291.3,314.4,319.0,276.7,235.5,3461.3,3468.6,467.1,384.0,427.8,840.3,664.4,423.1,2.0,7.0,7.0,6950.0,-6465.0,-5039.0,12367.0,10.0,-12.0,36.0,-2.0,4.0,-2.0,5893.0,-6183.0,-7286.0,11933.0,0.0,-32.0,35.0,1.0
2022-05-08 18:12:19.968775-07:00,650.5,684.0,642.4,911.0,347.6,299.0,800.2,685.6,3467.4,3472.2,1095.6,677.4,549.0,3468.6,1065.1,790.2,3441.9,3449.1,378.6,298.2,314.4,319.0,276.7,234.0,3461.3,3462.5,469.5,413.7,427.8,840.3,664.4,426.2,-3.0,9.0,0.0,6941.0,-6461.0,-5043.0,12373.0,-31.0,-36.0,-3.0,-9.0,4.0,-3.0,5875.0,-6183.0,-7295.0,11936.0,-49.0,-25.0,15.0,1.0
2022-05-08 18:12:20.028851-07:00,650.5,683.1,644.0,915.2,347.6,299.0,803.5,680.7,3467.4,3472.2,1090.3,684.8,549.0,3468.6,1063.4,789.4,3450.4,3449.1,378.6,298.2,312.8,315.9,271.4,234.0,3466.1,3458.9,469.5,413.7,423.9,843.6,664.4,426.2,0.0,-2.0,9.0,6929.0,-6457.0,-5060.0,12375.0,-20.0,-32.0,13.0,-2.0,-2.0,-2.0,5857.0,-6184.0,-7306.0,11938.0,-13.0,-33.0,23.0,1.0
2022-05-08 18:12:20.059071-07:00,653.8,680.7,644.0,915.2,347.6,298.2,803.5,680.7,3468.6,3457.6,1090.3,684.8,550.6,3469.8,1063.4,789.4,3450.4,3449.1,372.4,292.8,312.8,315.9,275.2,236.3,3466.1,3458.9,467.9,386.4,423.9,843.6,669.3,427.8,-4.0,6.0,3.0,6922.0,-6451.0,-5062.0,12381.0,3.0,-27.0,7.0,-7.0,4.0,4.0,5847.0,-6179.0,-7308.0,11944.0,5.0,-25.0,16.0,1.0
2022-05-08 18:12:20.118452-07:00,653.8,680.7,639.2,917.7,347.6,298.2,801.9,675.8,3468.6,3457.6,1103.4,682.3,550.6,3469.8,1059.1,793.5,3434.6,3447.9,372.4,292.8,316.7,316.7,275.2,236.3,3452.8,3461.3,467.9,386.4,421.5,844.4,669.3,427.8,-1.0,0.0,16.0,6919.0,-6443.0,-5063.0,12386.0,9.0,-9.0,2.0,-7.0,-1.0,3.0,5838.0,-6175.0,-7309.0,11950.0,2.0,-13.0,15.0,1.0
2022-05-08 18:12:20.149091-07:00,646.5,686.4,639.2,917.7,349.9,303.6,801.9,675.8,3462.5,3468.6,1103.4,682.3,549.8,3473.4,1059.1,793.5,3434.6,3447.9,378.6,296.7,316.7,316.7,272.9,231.0,3452.8,3461.3,464.0,384.8,421.5,844.4,666.8,433.3,5.0,6.0,12.0,6922.0,-6439.0,-5060.0,12387.0,3.0,-7.0,-20.0,0.0,0.0,0.0,5835.0,-6175.0,-7309.0,11952.0,-8.0,9.0,3.0,1.0
2022-05-08 18:12:20.209552-07:00,646.5,686.4,646.5,913.5,349.9,303.6,813.5,680.7,3462.5,3468.6,1094.7,682.3,549.8,3473.4,1056.5,789.4,3445.5,3443.1,378.6,296.7,319.0,321.3,272.9,231.0,3452.8,3461.3,464.0,384.8,423.9,837.7,666.8,433.3,1.0,-5.0,9.0,6937.0,-6433.0,-5060.0,12383.0,19.0,14.0,-35.0,-6.0,-6.0,-1.0,5838.0,-6179.0,-7307.0,11950.0,12.0,15.0,9.0,1.0
2022-05-08 18:12:20.298398-07:00,649.7,688.0,646.5,913.5,355.3,304.3,813.5,680.7,3466.1,3468.6,1094.7,682.3,549.8,3464.9,1056.5,789.4,3445.5,3443.1,375.5,301.3,319.0,321.3,274.4,234.8,3452.8,3461.3,468.7,386.4,423.9,837.7,665.2,429.4,0.0,2.0,-1.0,6946.0,-6427.0,-5056.0,12382.0,9.0,8.0,-14.0,-9.0,0.0,-5.0,5840.0,-6178.0,-7298.0,11954.0,17.0,3.0,1.0,1.0
2022-05-08 18:12:20.418643-07:00,649.7,688.0,641.6,913.5,355.3,297.4,804.4,671.7,3466.1,3468.6,1096.4,684.0,549.8,3471.0,1064.3,792.7,3439.5,3454.0,376.3,301.3,317.4,317.4,274.4,234.8,3467.4,3463.7,469.5,386.4,423.9,836.9,665.2,429.4,-2.0,1.0,0.0,6951.0,-6429.0,-5050.0,12381.0,12.0,14.0,-9.0,-9.0,-5.0,-4.0,5841.0,-6174.0,-7292.0,11959.0,30.0,-14.0,-9.0,1.0
2022-05-08 18:12:20.629201-07:00,653.0,684.0,642.4,913.5,349.9,297.4,804.4,671.7,3473.4,3473.4,1099.0,684.0,557.0,3471.0,1064.3,792.7,3439.5,3454.0,376.3,291.3,317.4,314.4,276.7,234.8,3467.4,3463.7,469.5,380.2,423.9,841.1,661.1,427.8,0.0,12.0,4.0,6961.0,-6424.0,-5047.0,12379.0,29.0,2.0,-47.0,-6.0,8.0,0.0,5842.0,-6164.0,-7284.0,11969.0,34.0,-16.0,-6.0,1.0
2022-05-08 18:12:20.630721-07:00,653.0,684.0,642.4,914.4,349.9,301.3,800.2,675.0,3473.4,3473.4,1099.0,678.2,557.0,3464.9,1059.1,789.4,3446.7,3446.7,374.7,291.3,319.7,314.4,276.7,234.8,3469.8,3447.9,468.7,380.2,423.9,841.1,661.1,427.8,-4.0,-12.0,5.0,6975.0,-6416.0,-5043.0,12376.0,25.0,20.0,11.0,-7.0,-3.0,0.0,5845.0,-6156.0,-7275.0,11977.0,29.0,-7.0,0.0,1.0
2022-05-08 18:12:20.631652-07:00,653.8,685.6,640.0,914.4,351.4,301.3,800.2,675.0,3467.4,3458.9,1092.9,678.2,555.4,3464.9,1059.1,789.4,3446.7,3446.7,374.7,296.7,319.7,319.7,270.6,235.5,3469.8,3447.9,468.7,387.9,423.9,837.7,666.0,424.7,-2.0,6.0,-1.0,6975.0,-6424.0,-5032.0,12377.0,-4.0,12.0,12.0,-8.0,3.0,-1.0,5848.0,-6152.0,-7268.0,11982.0,16.0,-10.0,1.0,1.0
2022-05-08 18:12:20.718765-07:00,653.8,685.6,640.0,915.2,351.4,305.9,800.2,676.6,3467.4,3458.9,1092.9,682.3,555.4,3466.1,1058.2,791.9,3456.4,3449.1,379.4,296.7,317.4,319.7,270.6,235.5,3457.6,3454.0,467.9,387.9,423.9,837.7,666.0,424.7,-3.0,0.0,-2.0,6975.0,-6424.0,-5028.0,12379.0,36.0,-17.0,7.0,-7.0,5.0,1.0,5848.0,-6142.0,-7260.0,11991.0,46.0,-31.0,3.0,1.0
2022-05-08 18:12:20.721019-07:00,655.4,682.3,640.8,915.2,352.2,305.9,800.2,676.6,3462.5,3457.6,1098.2,682.3,557.0,3466.1,1058.2,791.9,3456.4,3449.1,379.4,298.2,317.4,324.4,276.0,231.7,3457.6,3454.0,467.9,384.0,423.9,839.4,663.6,425.5,-1.0,0.0,9.0,6973.0,-6419.0,-5021.0,12385.0,1.0,-5.0,22.0,-7.0,0.0,2.0,5847.0,-6126.0,-7254.0,12004.0,17.0,-30.0,3.0,1.0
2022-05-08 18:12:20.721575-07:00,655.4,682.3,640.8,915.2,352.2,305.9,800.2,676.6,3462.5,3457.6,1098.2,682.3,557.0,3466.1,1058.2,791.9,3456.4,3449.1,379.4,298.2,317.4,324.4,276.0,231.7,3457.6,3454.0,467.9,384.0,423.9,839.4,663.6,425.5,-1.0,0.0,9.0,6973.0,-6419.0,-5021.0,12385.0,1.0,-5.0,22.0,-7.0,0.0,2.0,5847.0,-6126.0,-7254.0,12004.0,17.0,-30.0,3.0,1.0
2022-05-08 18:12:20.722259-07:00,653.8,684.0,641.6,911.8,352.2,299.0,801.0,690.5,3475.9,3463.7,1094.7,680.7,549.0,3467.4,1062.5,792.7,3445.5,3450.4,377.0,296.7,318.2,319.0,271.4,234.0,3446.7,3463.7,464.0,384.0,416.8,837.7,659.5,425.5,2.0,3.0,12.0,6974.0,-6421.0,-5005.0,12391.0,-2.0,32.0,8.0,-5.0,3.0,0.0,5845.0,-6106.0,-7244.0,12021.0,-2.0,1.0,4.0,1.0
2022-05-08 18:12:20.749651-07:00,657.0,683.1,639.2,911.8,352.2,299.0,801.0,690.5,3462.5,3466.1,1089.5,683.1,549.0,3467.4,1062.5,792.7,3445.5,3450.4,377.0,296.7,314.4,315.1,274.4,238.6,3446.7,3463.7,464.0,384.0,420.8,831.9,659.5,426.2,2.0,10.0,3.0,6978.0,-6429.0,-4998.0,12387.0,-2.0,13.0,-8.0,-5.0,3.0,-4.0,5846.0,-6106.0,-7243.0,12022.0,9.0,9.0,7.0,1.0
2022-05-08 18:12:21.018950-07:00,657.0,683.1,639.2,911.8,349.1,299.7,792.7,676.6,3462.5,3466.1,1089.5,683.1,552.2,3456.4,1059.1,790.2,3447.9,3435.8,377.0,297.4,314.4,315.1,274.4,238.6,3466.1,3457.6,465.6,385.6,420.8,831.9,659.5,426.2,-1.0,-1.0,2.0,6982.0,-6433.0,-4993.0,12385.0,17.0,17.0,1.0,-9.0,0.0,-1.0,5848.0,-6103.0,-7238.0,12025.0,29.0,-2.0,7.0,1.0
2022-05-08 18:12:21.020073-07:00,651.4,679.9,641.6,923.7,349.1,299.7,792.7,676.6,3461.3,3460.1,1095.6,684.0,552.2,3456.4,1059.1,790.2,3447.9,3435.8,377.0,297.4,315.9,317.4,272.9,238.6,3466.1,3457.6,465.6,385.6,419.2,839.4,659.5,426.2,-1.0,1.0,1.0,6983.0,-6433.0,-4991.0,12385.0,3.0,7.0,7.0,-10.0,6.0,-3.0,5850.0,-6102.0,-7235.0,12027.0,8.0,-3.0,3.0,1.0
2022-05-08 18:12:21.048707-07:00,651.4,679.9,641.6,923.7,353.7,299.0,798.5,673.3,3461.3,3460.1,1095.6,684.0,554.6,3457.6,1064.3,786.9,3451.6,3441.9,373.2,295.9,315.9,317.4,272.9,238.6,3447.9,3460.1,467.9,387.9,419.2,839.4,659.5,426.2,-1.0,0.0,-2.0,6984.0,-6434.0,-4990.0,12384.0,3.0,-12.0,8.0,-8.0,1.0,2.0,5848.0,-6098.0,-7236.0,12029.0,-2.0,-15.0,2.0,1.0
2022-05-08 18:12:21.049926-07:00,652.2,684.0,639.2,912.7,353.7,299.0,798.5,676.6,3467.4,3467.4,1091.2,684.0,554.6,3457.6,1064.3,790.2,3439.5,3441.9,373.2,295.9,319.7,321.3,272.1,237.1,3458.9,3460.1,467.9,387.9,420.8,842.8,660.3,426.2,7.0,8.0,0.0,6983.0,-6423.0,-4984.0,12393.0,12.0,-15.0,0.0,-10.0,5.0,-11.0,5847.0,-6083.0,-7229.0,12041.0,38.0,-39.0,4.0,1.0
2022-05-08 18:12:21.051237-07:00,653.0,684.0,639.2,912.7,351.4,298.2,801.9,676.6,3469.8,3467.4,1091.2,684.0,549.0,3469.8,1061.7,790.2,3439.5,3449.1,373.9,299.7,319.7,321.3,272.1,231.7,3458.9,3473.4,466.4,388.7,420.8,842.8,660.3,423.1,-6.0,-5.0,11.0,6978.0,-6419.0,-4984.0,12398.0,14.0,-16.0,25.0,-11.0,-2.0,3.0,5843.0,-6069.0,-7230.0,12050.0,23.0,-39.0,5.0,1.0
2022-05-08 18:12:21.052407-07:00,653.0,688.0,642.4,921.1,351.4,298.2,801.9,677.4,3469.8,3473.4,1092.1,679.1,549.0,3469.8,1061.7,791.0,3444.3,3449.1,373.9,299.7,319.0,317.4,272.9,231.7,3457.6,3473.4,466.4,388.7,422.3,837.7,663.6,423.1,-3.0,10.0,9.0,6970.0,-6414.0,-4983.0,12405.0,3.0,-22.0,0.0,-9.0,2.0,1.0,5837.0,-6057.0,-7231.0,12058.0,8.0,-32.0,8.0,1.0
2022-05-08 18:12:21.138991-07:00,646.5,688.0,642.4,921.1,352.2,301.3,797.7,677.4,3478.3,3473.4,1092.1,679.1,553.8,3471.0,1066.0,791.0,3444.3,3438.2,373.2,299.7,319.0,317.4,272.9,237.8,3457.6,3463.7,467.9,392.6,422.3,837.7,663.6,426.2,2.0,7.0,3.0,6972.0,-6402.0,-4978.0,12412.0,17.0,-10.0,2.0,-15.0,7.0,-2.0,5837.0,-6042.0,-7225.0,12069.0,32.0,-28.0,6.0,1.0
2022-05-08 18:12:21.199153-07:00,646.5,682.3,633.5,911.0,352.2,301.3,797.7,678.2,3478.3,3462.5,1087.7,681.5,553.8,3471.0,1066.0,792.7,3452.8,3438.2,373.2,299.7,318.2,320.5,273.7,237.8,3457.6,3463.7,467.9,392.6,420.8,841.9,666.8,426.2,0.0,3.0,12.0,6970.0,-6402.0,-4977.0,12414.0,3.0,4.0,11.0,-8.0,1.0,4.0,5836.0,-6038.0,-7225.0,12072.0,-4.0,-8.0,9.0,1.0
2022-05-08 18:12:21.200612-07:00,651.4,682.3,633.5,911.0,352.2,298.2,805.2,678.2,3462.5,3462.5,1087.7,681.5,550.6,3473.4,1062.5,792.7,3452.8,3440.7,377.8,295.1,318.2,320.5,273.7,230.2,3457.6,3466.1,464.8,384.8,420.8,841.9,666.8,427.8,-2.0,2.0,8.0,6969.0,-6403.0,-4976.0,12414.0,7.0,-8.0,-9.0,-11.0,1.0,3.0,5835.0,-6037.0,-7225.0,12072.0,5.0,-7.0,1.0,1.0
2022-05-08 18:12:21.289705-07:00,651.4,685.6,644.9,903.4,352.2,298.2,805.2,679.1,3462.5,3467.4,1094.7,680.7,550.6,3473.4,1062.5,788.6,3449.1,3440.7,377.8,295.1,315.1,319.0,273.7,230.2,3464.9,3466.1,464.8,384.8,438.8,845.3,662.7,427.8,-2.0,0.0,6.0,6972.0,-6402.0,-4972.0,12414.0,4.0,10.0,1.0,-9.0,1.0,0.0,5837.0,-6035.0,-7221.0,12074.0,6.0,-2.0,4.0,1.0
2022-05-08 18:12:21.290843-07:00,651.4,682.3,644.9,903.4,355.3,303.6,801.9,679.1,3468.6,3473.4,1094.7,680.7,551.4,3464.9,1059.9,788.6,3449.1,3439.5,377.8,294.4,315.1,319.0,276.7,231.0,3464.9,3456.4,468.7,383.3,438.8,845.3,659.5,427.0,2.0,1.0,2.0,6972.0,-6403.0,-4972.0,12414.0,11.0,6.0,0.0,-12.0,4.0,-6.0,5837.0,-6034.0,-7221.0,12075.0,16.0,-12.0,4.0,1.0
2022-05-08 18:12:21.349440-07:00,651.4,682.3,641.6,914.4,355.3,303.6,805.2,676.6,3468.6,3473.4,1098.2,681.5,551.4,3464.9,1048.7,787.7,3450.4,3444.3,377.8,294.4,317.4,317.4,276.7,231.0,3460.1,3468.6,468.7,383.3,423.1,843.6,659.5,427.0,-9.0,-6.0,-1.0,6975.0,-6399.0,-4963.0,12418.0,40.0,-4.0,9.0,-22.0,0.0,-4.0,5838.0,-6023.0,-7215.0,12084.0,46.0,-36.0,6.0,1.0
2022-05-08 18:12:21.588981-07:00,649.7,681.5,641.6,914.4,351.4,299.7,805.2,676.6,3467.4,3468.6,1098.2,681.5,551.4,3467.4,1048.7,787.7,3450.4,3444.3,374.7,295.1,317.4,317.4,271.4,236.3,3460.1,3468.6,466.4,385.6,423.1,843.6,660.3,436.4,-10.0,-64.0,1.0,6979.0,-6403.0,-4927.0,12428.0,161.0,126.0,162.0,-29.0,-11.0,-12.0,5832.0,-5998.0,-7192.0,12113.0,180.0,-99.0,22.0,1.0
2022-05-08 18:12:21.619770-07:00,649.7,681.5,642.4,911.8,351.4,299.7,806.9,681.5,3467.4,3468.6,1095.6,685.6,551.4,3467.4,1063.4,783.6,3447.9,3447.9,374.7,295.1,309.7,318.2,271.4,236.3,3460.1,3462.5,466.4,385.6,421.5,837.7,660.3,436.4,-27.0,-92.0,-14.0,6957.0,-6414.0,-4715.0,12517.0,777.0,113.0,568.0,-59.0,-12.0,-32.0,5844.0,-5901.0,-7071.0,12225.0,805.0,-291.0,114.0,1.0
2022-05-08 18:12:21.620815-07:00,654.6,679.1,642.4,911.8,350.6,298.2,806.9,681.5,3471.0,3469.8,1095.6,685.6,553.8,3469.8,1063.4,783.6,3447.9,3447.9,376.3,299.7,309.7,318.2,275.2,235.5,3460.1,3462.5,465.6,392.6,421.5,837.7,673.3,434.1,32.0,-72.0,-48.0,6910.0,-6346.0,-4332.0,12714.0,1046.0,92.0,526.0,-45.0,-34.0,-100.0,5859.0,-5670.0,-6815.0,12471.0,1169.0,-500.0,190.0,1.0
2022-05-08 18:12:21.621709-07:00,654.6,679.1,638.4,911.8,350.6,298.2,825.2,683.1,3471.0,3469.8,1089.5,679.1,553.8,3469.8,1077.3,793.5,3443.1,3449.1,376.3,299.7,312.8,314.4,275.2,235.5,3471.0,3468.6,465.6,392.6,416.8,841.1,673.3,434.1,-7.0,-34.0,-41.0,6970.0,-6212.0,-3740.0,12934.0,1669.0,139.0,646.0,14.0,42.0,55.0,5908.0,-5304.0,-6464.0,12791.0,1679.0,-757.0,92.0,1.0
2022-05-08 18:12:21.622756-07:00,653.8,691.3,640.8,911.8,353.7,300.5,825.2,683.1,3469.8,3471.0,1088.6,679.1,554.6,3471.0,1077.3,793.5,3443.1,3449.1,377.0,297.4,312.8,317.4,273.7,237.1,3471.0,3468.6,469.5,382.5,416.8,855.3,763.7,427.0,13.0,46.0,-11.0,6998.0,-6004.0,-3127.0,13177.0,1236.0,-106.0,466.0,8.0,18.0,-2.0,5939.0,-4871.0,-6079.0,13133.0,1240.0,-647.0,131.0,1.0
2022-05-08 18:12:21.679273-07:00,653.8,691.3,640.8,916.9,353.7,306.7,828.5,675.8,3469.8,3471.0,1088.6,687.2,554.6,3467.4,1098.2,791.0,3444.3,3445.5,373.2,297.4,318.2,317.4,273.7,237.1,3457.6,3467.4,474.3,382.5,422.3,855.3,763.7,427.0,35.0,40.0,63.0,7035.0,-5809.0,-2659.0,13346.0,1011.0,179.0,289.0,8.0,-49.0,36.0,5965.0,-4524.0,-5865.0,13341.0,871.0,-501.0,-14.0,1.0
2022-05-08 18:12:21.768630-07:00,650.5,702.8,644.0,916.9,350.6,306.7,828.5,675.8,3471.0,3464.9,1100.8,687.2,549.0,3467.4,1098.2,791.0,3444.3,3445.5,373.2,299.0,318.2,314.4,274.4,231.0,3457.6,3467.4,474.3,385.6,422.3,878.0,846.1,424.7,-11.0,49.0,41.0,7117.0,-5750.0,-2277.0,13399.0,651.0,283.0,84.0,0.0,6.0,44.0,5975.0,-4245.0,-5684.0,13506.0,539.0,-393.0,-10.0,1.0
2022-05-08 18:12:21.769997-07:00,650.5,702.8,644.0,911.8,350.6,305.1,823.5,684.0,3471.0,3464.9,1100.8,684.0,549.0,3467.4,1112.1,794.4,3450.4,3449.1,373.2,299.0,312.0,314.4,274.4,231.0,3463.7,3463.7,471.1,385.6,423.9,878.0,846.1,424.7,5.0,84.0,-6.0,7188.0,-5731.0,-2001.0,13414.0,334.0,225.0,131.0,14.0,87.0,30.0,5992.0,-4061.0,-5568.0,13603.0,353.0,-239.0,-68.0,1.0
2022-05-08 18:12:21.798989-07:00,655.4,712.6,644.9,911.8,348.3,305.1,823.5,684.0,3467.4,3468.6,1106.9,684.0,546.6,3467.4,1112.1,794.4,3450.4,3449.1,373.2,297.4,312.0,313.6,272.1,234.8,3463.7,3463.7,471.1,394.2,423.9,907.6,862.9,427.0,-7.0,12.0,-4.0,7202.0,-5747.0,-1867.0,13418.0,212.0,41.0,77.0,-25.0,-49.0,51.0,5976.0,-3975.0,-5496.0,13664.0,117.0,-116.0,40.0,1.0
2022-05-08 18:12:22.398329-07:00,655.4,712.6,644.9,919.4,348.3,309.7,826.9,681.5,3467.4,3468.6,1106.9,681.5,546.6,3468.6,1127.0,796.9,3458.9,3450.4,380.2,297.4,313.6,313.6,272.1,234.8,3468.6,3457.6,471.1,394.2,420.0,907.6,862.9,427.0,27.0,22.0,-5.0,7193.0,-5709.0,-1785.0,13451.0,123.0,-54.0,94.0,32.0,55.0,-15.0,5984.0,-3919.0,-5456.0,13693.0,84.0,-78.0,15.0,1.0
2022-05-08 18:12:22.818878-07:00,653.0,701.9,643.2,919.4,353.7,309.7,826.9,681.5,3473.4,3462.5,1103.4,681.5,552.2,3468.6,1127.0,796.9,3458.9,3450.4,380.2,304.3,313.6,313.6,277.5,233.3,3468.6,3457.6,471.1,394.2,420.0,926.2,882.3,427.8,13.0,-29.0,15.0,7187.0,-5689.0,-1724.0,13470.0,226.0,80.0,121.0,23.0,34.0,-1.0,5982.0,-3874.0,-5433.0,13716.0,91.0,-86.0,-38.0,1.0
2022-05-08 18:12:22.939026-07:00,653.0,701.9,643.2,916.0,352.2,304.3,828.5,687.2,3473.4,3462.5,1103.4,679.1,552.2,3462.5,1142.7,793.5,3443.1,3441.9,376.3,301.3,316.7,313.6,277.5,233.3,3457.6,3461.3,467.9,388.7,416.8,926.2,882.3,427.8,6.0,-9.0,-11.0,7169.0,-5717.0,-1620.0,13481.0,188.0,137.0,123.0,-23.0,-3.0,5.0,5980.0,-3815.0,-5393.0,13749.0,141.0,-99.0,60.0,1.0
2022-05-08 18:12:22.940206-07:00,656.2,717.5,656.2,917.7,352.2,304.3,828.5,687.2,3467.4,3462.5,1099.9,684.0,552.2,3462.5,1142.7,793.5,3443.1,3441.9,376.3,301.3,315.1,319.7,274.4,231.0,3457.6,3461.3,467.9,388.7,425.5,933.0,873.8,428.6,27.0,31.0,-8.0,7164.0,-5724.0,-1495.0,13495.0,130.0,183.0,97.0,-11.0,14.0,-18.0,5989.0,-3734.0,-5352.0,13784.0,191.0,-146.0,-50.0,1.0
2022-05-08 18:12:22.940916-07:00,656.2,717.5,656.2,917.7,351.4,303.6,829.4,672.5,3467.4,3462.5,1099.9,684.0,549.0,3473.4,1155.0,795.2,3444.3,3445.5,380.9,304.3,315.1,319.7,274.4,231.0,3452.8,3458.9,466.4,395.0,425.5,933.0,873.8,428.6,6.0,-2.0,25.0,7164.0,-5773.0,-1421.0,13482.0,63.0,166.0,35.0,86.0,70.0,-5.0,5988.0,-3686.0,-5346.0,13799.0,-37.0,-58.0,-80.0,1.0
2022-05-08 18:12:22.942072-07:00,655.4,738.9,656.2,915.2,351.4,303.6,829.4,672.5,3464.9,3472.2,1121.7,684.8,549.0,3473.4,1155.0,795.2,3444.3,3445.5,380.9,304.3,317.4,313.6,280.6,235.5,3452.8,3458.9,466.4,395.0,420.8,923.7,871.3,427.0,31.0,-3.0,30.0,7166.0,-5823.0,-1325.0,13469.0,164.0,300.0,134.0,15.0,33.0,-11.0,5987.0,-3639.0,-5326.0,13820.0,167.0,-98.0,8.0,1.0
2022-05-08 18:12:22.942740-07:00,655.4,738.9,656.2,915.2,351.4,303.6,829.4,672.5,3464.9,3472.2,1121.7,684.8,549.0,3473.4,1155.0,795.2,3444.3,3445.5,380.9,304.3,317.4,313.6,280.6,235.5,3452.8,3458.9,466.4,395.0,420.8,923.7,871.3,427.0,31.0,-3.0,30.0,7166.0,-5823.0,-1325.0,13469.0,164.0,300.0,134.0,15.0,33.0,-11.0,5987.0,-3639.0,-5326.0,13820.0,167.0,-98.0,8.0,1.0
2022-05-08 18:12:23.028517-07:00,653.8,728.2,691.3,918.6,355.3,299.0,829.4,673.3,3461.3,3473.4,1125.2,684.0,551.4,3466.1,1202.7,800.2,3441.9,3440.7,386.4,304.3,311.3,315.9,272.9,234.8,3457.6,3464.9,471.1,392.6,423.1,915.2,840.3,445.9,37.0,53.0,-8.0,7285.0,-7470.0,-2786.0,12320.0,-700.0,-108.0,-607.0,-3.0,20.0,-19.0,5701.0,-4731.0,-6976.0,12841.0,-962.0,101.0,-33.0,1.0
2022-05-08 18:12:23.089159-07:00,651.4,725.8,683.1,909.3,350.6,298.2,879.7,666.0,3457.6,3478.3,1113.0,686.4,546.6,3460.1,1204.4,796.9,3437.0,3449.1,381.7,300.5,315.1,312.0,280.6,234.8,3473.4,3457.6,458.5,388.7,425.5,903.4,821.0,444.3,32.0,143.0,74.0,7323.0,-8078.0,-3248.0,11790.0,-883.0,811.0,-540.0,26.0,52.0,13.0,5530.0,-5217.0,-7455.0,12453.0,-980.0,439.0,146.0,1.0
2022-05-08 18:12:23.090261-07:00,654.6,721.6,681.5,909.3,356.1,298.2,879.7,666.0,3471.0,3464.9,1112.1,686.4,551.4,3460.1,1204.4,796.9,3437.0,3449.1,381.7,299.0,315.1,311.3,274.4,231.0,3473.4,3457.6,458.5,389.5,425.5,901.7,816.9,442.7,-4.0,88.0,49.0,7408.0,-8512.0,-3652.0,11303.0,-1423.0,926.0,-1118.0,24.0,17.0,41.0,5396.0,-5648.0,-7824.0,12091.0,-1726.0,661.0,138.0,1.0
2022-05-08 18:12:23.091974-07:00,654.6,721.6,681.5,916.9,356.1,300.5,866.3,670.1,3471.0,3464.9,1112.1,680.7,551.4,3467.4,1200.9,797.7,3447.9,3446.7,380.9,299.0,315.1,311.3,274.4,231.0,3461.3,3456.4,459.3,389.5,423.9,901.7,816.9,442.7,26.0,42.0,-37.0,7528.0,-8932.0,-4169.0,10706.0,-1448.0,884.0,-1288.0,3.0,16.0,-3.0,5206.0,-6160.0,-8273.0,11617.0,-1920.0,698.0,200.0,1.0
2022-05-08 18:12:23.148498-07:00,652.2,720.0,681.5,916.9,354.5,300.5,866.3,670.1,3462.5,3460.1,1110.4,680.7,545.0,3467.4,1200.9,797.7,3447.9,3446.7,380.9,299.7,315.1,312.8,281.3,235.5,3461.3,3456.4,459.3,389.5,423.9,900.0,787.7,439.6,52.0,-17.0,-92.0,7662.0,-9266.0,-4728.0,10076.0,-1293.0,690.0,-1380.0,-28.0,30.0,-59.0,4984.0,-6656.0,-8731.0,11093.0,-1843.0,616.0,135.0,1.0
2022-05-08 18:12:23.179167-07:00,652.2,720.0,681.5,916.9,356.1,302.0,860.4,666.0,3462.5,3460.1,1110.4,684.0,552.2,3464.9,1195.6,797.7,3449.1,3437.0,383.3,299.7,312.8,312.8,281.3,235.5,3463.7,3456.4,463.2,391.1,427.8,900.0,787.7,439.6,30.0,-93.0,-90.0,7795.0,-9463.0,-5130.0,9581.0,-708.0,479.0,-893.0,-35.0,-22.0,-55.0,4812.0,-6980.0,-9067.0,10694.0,-1129.0,319.0,30.0,1.0
2022-05-08 18:12:23.268499-07:00,653.0,720.8,676.6,915.2,356.1,302.0,860.4,666.0,3464.9,3468.6,1113.9,683.1,552.2,3464.9,1195.6,797.7,3449.1,3437.0,383.3,299.7,311.3,312.0,277.5,234.8,3463.7,3456.4,463.2,391.1,422.3,900.8,810.2,441.9,85.0,-77.0,-44.0,7904.0,-9559.0,-5324.0,9286.0,-282.0,397.0,-507.0,-20.0,-6.0,-95.0,4707.0,-7114.0,-9266.0,10479.0,-543.0,20.0,-43.0,1.0
2022-05-08 18:12:23.298611-07:00,653.0,720.8,676.6,915.2,359.2,305.1,862.1,673.3,3464.9,3468.6,1113.9,683.1,553.8,3462.5,1193.8,792.7,3443.1,3439.5,380.9,292.8,311.3,312.0,277.5,234.8,3460.1,3447.9,465.6,385.6,422.3,900.8,810.2,441.9,-42.0,-41.0,-35.0,7983.0,-9638.0,-5337.0,9129.0,-6.0,242.0,-61.0,-13.0,-5.0,8.0,4648.0,-7090.0,-9358.0,10440.0,-45.0,-182.0,-74.0,1.0
2022-05-08 18:12:23.328815-07:00,648.1,717.5,672.5,907.6,359.2,305.1,862.1,673.3,3466.1,3464.9,1106.9,679.1,553.8,3462.5,1193.8,792.7,3443.1,3439.5,380.9,292.8,315.9,319.7,273.7,231.0,3460.1,3447.9,465.6,385.6,424.7,900.8,808.5,446.7,-63.0,15.0,-2.0,7971.0,-9652.0,-5292.0,9151.0,69.0,-97.0,156.0,-29.0,-14.0,43.0,4633.0,-7016.0,-9358.0,10496.0,161.0,-153.0,-26.0,1.0
2022-05-08 18:12:23.389279-07:00,648.1,717.5,672.5,907.6,355.3,304.3,862.9,669.3,3466.1,3464.9,1106.9,679.1,554.6,3469.8,1196.5,793.5,3444.3,3449.1,373.9,299.7,315.9,319.7,273.7,231.0,3463.7,3466.1,462.4,387.9,424.7,900.8,808.5,446.7,-27.0,39.0,41.0,7954.0,-9633.0,-5253.0,9207.0,83.0,23.0,80.0,-16.0,9.0,20.0,4640.0,-6964.0,-9326.0,10556.0,127.0,-66.0,-16.0,1.0
2022-05-08 18:12:23.449542-07:00,651.4,715.9,666.0,922.8,355.3,304.3,862.9,669.3,3464.9,3464.9,1108.6,684.0,554.6,3469.8,1196.5,793.5,3444.3,3449.1,373.9,299.7,308.2,318.2,277.5,233.3,3463.7,3466.1,462.4,387.9,423.1,899.1,809.4,446.7,-20.0,13.0,36.0,7965.0,-9633.0,-5238.0,9207.0,24.0,4.0,-17.0,-3.0,0.0,31.0,4656.0,-6963.0,-9308.0,10565.0,-1.0,67.0,1.0,1.0
2022-05-08 18:12:23.478900-07:00,651.4,715.9,666.0,922.8,350.6,296.7,857.0,672.5,3464.9,3464.9,1108.6,684.0,548.2,3467.4,1194.7,799.4,3443.1,3438.2,373.9,301.3,308.2,318.2,277.5,233.3,3461.3,3461.3,460.8,387.9,423.1,899.1,809.4,446.7,-16.0,1.0,0.0,7987.0,-9643.0,-5219.0,9188.0,31.0,71.0,-25.0,-4.0,-1.0,-1.0,4677.0,-6983.0,-9296.0,10554.0,14.0,80.0,6.0,1.0
2022-05-08 18:12:23.539672-07:00,653.0,717.5,673.3,913.5,350.6,296.7,857.0,671.7,3463.7,3463.7,1106.0,686.4,548.2,3467.4,1194.7,801.9,3447.9,3438.2,373.9,301.3,311.3,315.1,275.2,230.2,3462.5,3461.3,460.8,387.9,423.9,891.5,804.4,445.9,24.0,-13.0,-2.0,8001.0,-9650.0,-5212.0,9172.0,2.0,64.0,-3.0,-8.0,0.0,-31.0,4691.0,-7002.0,-9290.0,10541.0,4.0,42.0,14.0,1.0
2022-05-08 18:12:23.629374-07:00,653.0,717.5,673.3,913.5,361.5,299.0,849.5,671.7,3466.1,3463.7,1106.0,686.4,545.8,3464.9,1188.5,801.9,3447.9,3447.9,375.5,299.7,311.3,315.1,275.2,231.7,3462.5,3468.6,464.8,395.0,423.9,891.5,804.4,436.4,7.0,1.0,-12.0,8002.0,-9655.0,-5193.0,9177.0,37.0,-28.0,56.0,-9.0,9.0,-15.0,4700.0,-7004.0,-9278.0,10546.0,71.0,-22.0,3.0,1.0
2022-05-08 18:12:23.630517-07:00,653.0,714.2,673.3,916.0,361.5,299.0,849.5,659.5,3466.1,3467.4,1104.3,686.4,545.8,3464.9,1188.5,793.5,3445.5,3447.9,375.5,299.7,316.7,314.4,278.3,231.7,3463.7,3468.6,464.8,395.0,429.4,897.4,800.2,436.4,0.0,7.0,-9.0,7989.0,-9645.0,-5173.0,9210.0,33.0,-53.0,78.0,-14.0,6.0,-12.0,4705.0,-6987.0,-9259.0,10571.0,72.0,-43.0,-1.0,1.0
2022-05-08 18:12:23.718827-07:00,653.8,714.2,673.3,916.0,354.5,297.4,853.7,659.5,3471.0,3467.4,1104.3,686.4,550.6,3468.6,1182.3,793.5,3445.5,3450.4,376.3,295.9,316.7,314.4,278.3,234.0,3463.7,3455.2,464.8,384.0,429.4,897.4,800.2,445.9,-7.0,2.0,7.0,7974.0,-9635.0,-5151.0,9246.0,72.0,-40.0,101.0,-10.0,2.0,2.0,4704.0,-6966.0,-9244.0,10599.0,116.0,-64.0,-2.0,1.0
2022-05-08 18:12:23.779041-07:00,653.8,715.1,678.2,917.7,354.5,297.4,853.7,671.7,3471.0,3464.9,1102.5,683.1,550.6,3468.6,1182.3,796.9,3447.9,3450.4,376.3,295.9,312.8,315.1,275.2,234.0,3447.9,3455.2,464.8,384.0,418.4,891.5,803.5,445.9,-11.0,7.0,0.0,7956.0,-9617.0,-5107.0,9305.0,86.0,-88.0,134.0,-10.0,2.0,-4.0,4718.0,-6934.0,-9209.0,10644.0,144.0,-47.0,1.0,1.0
2022-05-08 18:12:23.808833-07:00,653.0,715.1,678.2,917.7,349.1,301.3,852.0,671.7,3471.0,3464.9,1102.5,683.1,546.6,3478.3,1196.5,796.9,3447.9,3443.1,376.3,299.0,312.8,315.1,275.2,234.8,3447.9,3472.2,461.6,387.9,418.4,891.5,803.5,438.0,0.0,3.0,1.0,7939.0,-9606.0,-5071.0,9350.0,56.0,-32.0,102.0,-6.0,-3.0,-6.0,4727.0,-6904.0,-9180.0,10684.0,108.0,-56.0,-1.0,1.0
2022-05-08 18:12:23.839205-07:00,653.0,711.8,666.0,916.0,349.1,301.3,855.3,666.0,3471.0,3464.9,1105.1,679.1,546.6,3478.3,1192.0,801.0,3438.2,3444.3,376.3,299.0,315.1,318.2,278.3,234.8,3445.5,3455.2,461.6,387.9,427.8,894.9,796.9,438.0,-11.0,0.0,2.0,7921.0,-9593.0,-5038.0,9396.0,79.0,-78.0,122.0,-9.0,8.0,1.0,4734.0,-6874.0,-9154.0,10723.0,136.0,-52.0,-4.0,1.0
2022-05-08 18:12:23.899566-07:00,649.7,712.6,666.0,916.0,356.1,295.9,855.3,666.0,3467.4,3466.1,1105.1,679.1,551.4,3468.6,1192.0,801.0,3438.2,3444.3,374.7,299.7,315.1,318.2,275.2,235.5,3445.5,3455.2,463.2,389.5,427.8,894.9,792.7,440.4,-6.0,-6.0,0.0,7901.0,-9579.0,-4991.0,9452.0,106.0,-49.0,158.0,-12.0,-6.0,7.0,4745.0,-6841.0,-9119.0,10768.0,193.0,-66.0,-4.0,1.0
2022-05-08 18:12:23.928828-07:00,649.7,712.6,668.4,919.4,356.1,295.9,851.1,674.2,3467.4,3466.1,1100.8,679.1,551.4,3468.6,1192.9,793.5,3450.4,3452.8,374.7,299.7,315.9,312.0,275.2,235.5,3458.9,3466.1,463.2,389.5,420.0,899.1,792.7,440.4,0.0,-7.0,-16.0,7875.0,-9540.0,-4914.0,9552.0,249.0,-164.0,276.0,-12.0,12.0,-4.0,4772.0,-6783.0,-9055.0,10847.0,344.0,-109.0,-16.0,1.0
2022-05-08 18:12:23.989275-07:00,649.7,715.9,668.4,919.4,353.0,302.0,851.1,674.2,3462.5,3466.1,1100.8,679.1,549.8,3461.3,1192.9,793.5,3450.4,3452.8,378.6,298.2,315.9,312.0,275.2,233.3,3458.9,3466.1,454.5,387.9,420.0,899.1,796.9,439.6,-8.0,-92.0,-36.0,7845.0,-9443.0,-4722.0,9768.0,711.0,-326.0,690.0,-11.0,-33.0,15.0,4854.0,-6648.0,-8903.0,11019.0,918.0,-213.0,-66.0,1.0
2022-05-08 18:12:24.048565-07:00,649.7,715.9,666.0,919.4,353.0,302.0,852.8,684.8,3462.5,3466.1,1097.3,684.0,549.8,3461.3,1185.9,790.2,3437.0,3446.7,378.6,298.2,312.0,311.3,275.2,233.3,3468.6,3461.3,454.5,387.9,422.3,891.5,796.9,439.6,13.0,-93.0,-116.0,7756.0,-9152.0,-4238.0,10322.0,1554.0,-873.0,1483.0,-37.0,-26.0,-16.0,5073.0,-6304.0,-8467.0,11457.0,2187.0,-412.0,-30.0,1.0
2022-05-08 18:12:25.338757-07:00,650.5,711.0,666.0,919.4,353.7,299.0,852.8,684.8,3468.6,3480.7,1097.3,684.0,551.4,3473.4,1185.9,790.2,3437.0,3446.7,382.5,302.0,312.0,311.3,281.3,234.0,3468.6,3461.3,464.8,391.1,422.3,891.5,796.9,442.7,134.0,-9.0,-21.0,7624.0,-8744.0,-3523.0,11020.0,1712.0,-555.0,1658.0,-26.0,-16.0,-90.0,5336.0,-5781.0,-7832.0,12050.0,2303.0,-740.0,-12.0,1.0
2022-05-08 18:12:25.488888-07:00,650.5,711.0,666.8,914.4,353.7,299.0,849.5,674.2,3468.6,3480.7,1103.4,684.0,551.4,3466.1,1174.4,799.4,3444.3,3435.8,376.3,302.0,316.7,310.5,281.3,234.0,3455.2,3468.6,456.1,391.1,423.9,888.2,796.9,442.7,-63.0,50.0,-77.0,7527.0,-8316.0,-2775.0,11616.0,1885.0,-890.0,1413.0,12.0,25.0,34.0,5551.0,-5224.0,-7196.0,12592.0,2282.0,-686.0,-145.0,1.0
2022-05-08 18:12:25.490041-07:00,650.5,715.9,666.8,914.4,353.0,299.0,849.5,674.2,3468.6,3469.8,1096.4,684.0,549.0,3466.1,1174.4,799.4,3444.3,3435.8,376.3,297.4,316.7,311.3,277.5,234.0,3455.2,3468.6,456.1,387.9,423.9,889.0,792.7,438.0,98.0,103.0,64.0,7431.0,-7886.0,-2164.0,12097.0,1225.0,-351.0,1026.0,3.0,-13.0,-4.0,5701.0,-4652.0,-6662.0,13035.0,1612.0,-651.0,-50.0,1.0
2022-05-08 18:12:25.490799-07:00,650.5,715.9,666.8,916.0,353.0,299.7,854.5,681.5,3468.6,3469.8,1096.4,679.9,549.0,3473.4,1181.5,794.4,3450.4,3443.1,373.9,297.4,313.6,311.3,277.5,234.0,3455.2,3452.8,454.5,387.9,425.5,889.0,792.7,438.0,-46.0,76.0,11.0,7391.0,-7632.0,-1774.0,12346.0,834.0,-385.0,505.0,19.0,54.0,16.0,5789.0,-4296.0,-6338.0,13278.0,1046.0,-406.0,-101.0,1.0
2022-05-08 18:12:25.492032-07:00,653.8,714.2,670.9,916.0,348.3,299.7,854.5,681.5,3472.2,3466.1,1103.4,679.9,557.8,3473.4,1181.5,794.4,3450.4,3443.1,373.9,295.9,313.6,324.4,272.1,235.5,3455.2,3452.8,454.5,392.6,425.5,888.2,792.7,445.9,-2.0,17.0,54.0,7386.0,-7481.0,-1513.0,12475.0,603.0,43.0,341.0,6.0,-2.0,43.0,5838.0,-4049.0,-6134.0,13429.0,665.0,-291.0,-58.0,1.0
2022-05-08 18:12:25.493815-07:00,653.8,714.2,670.9,916.0,348.3,300.5,847.8,677.4,3472.2,3466.1,1103.4,683.1,557.8,3469.8,1172.6,794.4,3452.8,3432.2,376.3,295.9,319.0,324.4,272.1,235.5,3452.8,3457.6,462.4,392.6,423.1,888.2,792.7,445.9,20.0,116.0,14.0,7410.0,-7351.0,-1314.0,12561.0,345.0,-144.0,106.0,29.0,91.0,-28.0,5889.0,-3866.0,-5971.0,13534.0,450.0,-220.0,-123.0,1.0
2022-05-08 18:12:25.519392-07:00,52.0,26.0,34.0,7541.0,-7425.0,-3645.0,11965.0,-3132.0,-84.0,-1549.0,-27.0,37.0,-24.0,5820.0,-5099.0,-7346.0,12434.0,-3155.0,709.0,257.0,1.0,3.0,-44.0,-18.0,7356.0,-7907.0,-4990.0,11265.0,-3284.0,145.0,-1492.0,-15.0,-55.0,-26.0,5320.0,-5892.0,-8244.0,11724.0,-3257.0,635.0,521.0,1.0,5.0,-78.0,-67.0,7212.0,-8403.0,-6505.0,10174.0,-697.0,286.0,-690.0,-40.0
2022-05-08 18:12:25.608860-07:00,52.0,26.0,34.0,7541.0,-7425.0,-3645.0,11965.0,-3132.0,-84.0,-1549.0,-27.0,37.0,-24.0,5820.0,-5099.0,-7346.0,12434.0,-3155.0,709.0,257.0,1.0,3.0,-44.0,-18.0,7356.0,-7907.0,-4990.0,11265.0,-3284.0,145.0,-1492.0,-15.0,-55.0,-26.0,5320.0,-5892.0,-8244.0,11724.0,-3257.0,635.0,521.0,1.0,-57.0,-8.0,-97.0,4710.0,-6873.0,-9329.0,10582.0,-112.0,-13.0,-58.0,1.0
2022-05-08 18:12:25.610014-07:00,659.5,723.3,666.8,911.8,349.9,312.0,851.1,688.9,3474.6,3472.2,1090.3,680.7,548.2,3473.4,1132.2,794.4,3438.2,3431.0,382.5,295.9,320.5,315.9,282.1,236.3,3462.5,3454.0,469.5,392.6,420.0,881.4,808.5,438.0,20.0,-112.0,-85.0,7304.0,-8437.0,-6680.0,9964.0,26.0,134.0,-202.0,-34.0,13.0,-50.0,4715.0,-6798.0,-9297.0,10656.0,299.0,-214.0,-15.0,1.0
2022-05-08 18:12:25.639529-07:00,658.7,725.8,659.5,911.8,356.1,312.0,851.1,688.9,3463.7,3457.6,1088.6,680.7,555.4,3473.4,1132.2,794.4,3438.2,3431.0,382.5,300.5,320.5,308.2,276.0,232.5,3462.5,3454.0,469.5,388.7,420.0,873.0,770.3,439.6,-16.0,-4.0,-72.0,7346.0,-8428.0,-6622.0,9980.0,172.0,-92.0,212.0,-5.0,13.0,-12.0,4700.0,-6711.0,-9281.0,10732.0,56.0,-183.0,-49.0,1.0
2022-05-08 18:12:25.698552-07:00,658.7,725.8,659.5,914.4,356.1,310.5,842.8,688.9,3463.7,3457.6,1088.6,682.3,555.4,3468.6,1124.4,792.7,3438.2,3444.3,375.5,300.5,317.4,308.2,276.0,232.5,3456.4,3456.4,472.7,388.7,420.0,873.0,770.3,439.6,-32.0,48.0,5.0,7289.0,-8392.0,-6605.0,10063.0,-8.0,-312.0,35.0,-3.0,-9.0,4.0,4675.0,-6664.0,-9321.0,10737.0,-82.0,-91.0,-53.0,1.0
2022-05-08 18:12:25.758819-07:00,663.6,720.8,653.0,908.4,351.4,310.5,842.8,688.9,3468.6,3466.1,1092.9,684.0,552.2,3468.6,1124.4,792.7,3438.2,3444.3,375.5,296.7,318.2,312.0,277.5,235.5,3456.4,3456.4,472.7,388.7,421.5,868.8,759.6,437.2,-40.0,-3.0,64.0,7243.0,-8324.0,-6671.0,10109.0,-78.0,-147.0,-82.0,-9.0,-14.0,10.0,4661.0,-6665.0,-9348.0,10719.0,-84.0,31.0,17.0,1.0
2022-05-08 18:12:25.789865-07:00,663.6,720.8,653.0,908.4,351.4,312.8,837.7,694.6,3468.6,3466.1,1092.9,684.0,554.6,3462.5,1123.5,787.7,3458.9,3445.5,372.4,299.7,318.2,312.0,277.5,235.5,3468.6,3460.1,467.1,393.4,421.5,868.8,759.6,437.2,-33.0,-4.0,56.0,7215.0,-8292.0,-6734.0,10113.0,-123.0,-114.0,-21.0,-18.0,2.0,-24.0,4651.0,-6709.0,-9359.0,10687.0,-123.0,95.0,48.0,1.0
2022-05-08 18:12:25.879262-07:00,657.9,723.3,661.9,917.7,351.4,312.8,837.7,694.6,3464.9,3466.1,1097.3,684.0,554.6,3462.5,1123.5,787.7,3458.9,3445.5,372.4,299.7,320.5,305.1,277.5,231.0,3468.6,3460.1,467.1,393.4,421.5,868.8,746.3,434.9,-21.0,12.0,3.0,7174.0,-8300.0,-6770.0,10112.0,-203.0,-3.0,-11.0,-26.0,-12.0,-25.0,4630.0,-6776.0,-9390.0,10626.0,-176.0,103.0,46.0,1.0
2022-05-08 18:12:25.881576-07:00,657.9,723.3,661.9,917.7,347.6,312.0,838.6,685.6,3464.9,3466.1,1097.3,684.0,546.6,3462.5,1111.2,798.5,3435.8,3444.3,374.7,298.2,320.5,305.1,277.5,231.0,3466.1,3455.2,470.3,392.6,421.5,868.8,746.3,434.9,-32.0,-8.0,-17.0,7116.0,-8319.0,-6842.0,10089.0,-191.0,-201.0,5.0,-13.0,4.0,-63.0,4612.0,-6816.0,-9410.0,10590.0,-91.0,32.0,25.0,1.0
2022-05-08 18:12:25.939023-07:00,666.0,718.4,651.4,915.2,347.6,312.0,838.6,685.6,3467.4,3469.8,1132.2,685.6,546.6,3462.5,1111.2,798.5,3435.8,3444.3,374.7,298.2,317.4,315.9,285.2,237.1,3466.1,3455.2,470.3,392.6,423.1,864.6,744.7,433.3,20.0,-2.0,-6.0,7042.0,-8292.0,-6922.0,10108.0,-91.0,-140.0,-5.0,-33.0,-38.0,26.0,4611.0,-6824.0,-9383.0,10609.0,-127.0,-30.0,19.0,1.0
2022-05-08 18:12:25.998629-07:00,666.0,718.4,651.4,915.2,351.4,305.1,838.6,686.4,3467.4,3469.8,1132.2,685.6,552.2,3469.8,1111.2,794.4,3444.3,3444.3,377.8,292.1,317.4,315.9,285.2,237.1,3457.6,3457.6,487.7,398.9,423.1,864.6,744.7,433.3,-9.0,6.0,-10.0,7014.0,-8277.0,-6962.0,10113.0,-108.0,-109.0,-23.0,-17.0,-5.0,-40.0,4583.0,-6837.0,-9402.0,10597.0,-18.0,-40.0,36.0,1.0
2022-05-08 18:12:26.028966-07:00,666.8,716.7,657.9,915.2,351.4,305.1,838.6,690.5,3478.3,3474.6,1167.4,692.9,552.2,3469.8,1111.2,791.9,3437.0,3444.3,377.8,292.1,318.2,312.0,292.8,240.1,3460.1,3457.6,487.7,398.9,428.6,880.6,745.5,429.4,-2.0,-17.0,4.0,6963.0,-8253.0,-7015.0,10131.0,-23.0,-181.0,27.0,-1.0,-9.0,-26.0,4548.0,-6846.0,-9416.0,10594.0,-25.0,-55.0,37.0,1.0
2022-05-08 18:12:26.089329-07:00,656.2,716.7,657.9,915.2,352.2,312.0,834.4,690.5,3464.9,3474.6,1167.4,692.9,556.2,3468.6,1111.2,791.9,3437.0,3438.2,377.0,295.1,318.2,312.0,292.8,236.3,3460.1,3464.9,475.0,397.3,428.6,880.6,745.5,429.4,1.0,-4.0,12.0,6919.0,-8216.0,-7045.0,10170.0,-44.0,-147.0,30.0,7.0,8.0,-11.0,4521.0,-6846.0,-9418.0,10604.0,22.0,-33.0,43.0,1.0
2022-05-08 18:12:26.118860-07:00,656.2,718.4,655.4,911.8,352.2,312.0,834.4,688.0,3464.9,3473.4,1210.6,699.5,556.2,3468.6,1111.2,791.0,3446.7,3438.2,377.0,295.1,320.5,313.6,291.3,236.3,3461.3,3464.9,475.0,397.3,422.3,861.2,734.8,429.4,-14.0,9.0,28.0,6879.0,-8200.0,-7056.0,10202.0,-4.0,-83.0,101.0,-10.0,-6.0,-21.0,4504.0,-6853.0,-9410.0,10613.0,4.0,16.0,38.0,1.0
2022-05-08 18:12:26.179296-07:00,657.0,718.4,655.4,911.8,354.5,309.7,838.6,688.0,3468.6,3473.4,1210.6,699.5,560.2,3464.9,1106.0,791.0,3446.7,3443.1,373.2,291.3,320.5,313.6,291.3,230.2,3461.3,3457.6,477.4,395.0,422.3,861.2,734.8,437.2,-6.0,14.0,21.0,6832.0,-8193.0,-7059.0,10237.0,-21.0,-96.0,20.0,5.0,-27.0,-7.0,4511.0,-6868.0,-9378.0,10628.0,-197.0,105.0,12.0,1.0
2022-05-08 18:12:26.268764-07:00,657.0,717.5,653.0,912.7,354.5,309.7,838.6,684.0,3468.6,3468.6,1210.6,698.7,560.2,3464.9,1106.0,795.2,3438.2,3443.1,373.2,291.3,315.1,310.5,291.3,230.2,3458.9,3457.6,477.4,395.0,428.6,861.2,729.9,437.2,-25.0,-6.0,3.0,6799.0,-8176.0,-7108.0,10239.0,-120.0,-155.0,-87.0,5.0,3.0,-42.0,4495.0,-6913.0,-9399.0,10588.0,189.0,51.0,75.0,1.0
2022-05-08 18:12:26.270781-07:00,659.5,717.5,653.0,912.7,355.3,308.2,828.5,684.0,3472.2,3468.6,1210.6,698.7,557.8,3463.7,1105.1,795.2,3438.2,3449.1,374.7,294.4,315.1,310.5,291.3,235.5,3458.9,3460.1,473.5,398.9,428.6,861.2,729.9,436.4,20.0,-1.0,6.0,6766.0,-8157.0,-7165.0,10236.0,-79.0,-62.0,-12.0,13.0,19.0,-50.0,4489.0,-6935.0,-9390.0,10584.0,-80.0,40.0,19.0,1.0
2022-05-08 18:12:26.329452-07:00,659.5,716.7,651.4,914.4,355.3,308.2,828.5,687.2,3472.2,3466.1,1198.2,697.9,557.8,3463.7,1105.1,790.2,3446.7,3449.1,374.7,294.4,312.0,318.2,290.5,235.5,3463.7,3460.1,473.5,398.9,415.3,860.4,731.5,436.4,26.0,10.0,0.0,6751.0,-8140.0,-7200.0,10235.0,-62.0,-62.0,-19.0,-9.0,1.0,-24.0,4482.0,-6960.0,-9403.0,10559.0,-58.0,38.0,21.0,1.0
2022-05-08 18:12:26.418866-07:00,655.4,711.0,651.4,914.4,355.3,312.0,831.9,687.2,3469.8,3480.7,1198.2,697.9,556.2,3467.4,1102.5,790.2,3446.7,3438.2,377.8,297.4,312.0,318.2,294.4,240.9,3463.7,3460.1,475.8,388.7,415.3,860.4,735.6,429.4,-18.0,10.0,-21.0,6712.0,-8130.0,-7233.0,10246.0,-109.0,-180.0,56.0,-5.0,9.0,-34.0,4463.0,-6983.0,-9419.0,10537.0,-40.0,-10.0,26.0,1.0
2022-05-08 18:12:26.421174-07:00,655.4,711.0,646.5,912.7,355.3,312.0,835.2,687.2,3469.8,3480.7,1203.5,699.5,556.2,3467.4,1102.5,793.5,3451.6,3451.6,377.8,297.4,319.7,319.7,294.4,240.9,3461.3,3473.4,475.8,388.7,422.3,861.2,735.6,429.4,6.0,10.0,0.0,6645.0,-8097.0,-7285.0,10279.0,-26.0,-213.0,-12.0,11.0,-17.0,-24.0,4443.0,-6993.0,-9430.0,10529.0,9.0,-26.0,31.0,1.0
2022-05-08 18:12:26.479505-07:00,661.9,720.0,646.5,912.7,353.7,308.2,835.2,687.2,3457.6,3466.1,1203.5,699.5,556.2,3467.4,1102.5,793.5,3451.6,3451.6,374.7,296.7,319.7,319.7,291.3,237.8,3461.3,3473.4,476.6,400.4,422.3,861.2,718.4,430.9,18.0,-18.0,25.0,6605.0,-8047.0,-7324.0,10316.0,7.0,-151.0,15.0,27.0,-85.0,15.0,4430.0,-6981.0,-9415.0,10557.0,183.0,-85.0,81.0,1.0
2022-05-08 18:12:26.539544-07:00,661.9,720.0,652.2,913.5,353.7,308.2,835.2,688.0,3457.6,3466.1,1196.5,698.7,556.2,3467.4,1097.3,793.5,3440.7,3449.1,374.7,296.7,317.4,321.3,291.3,237.8,3460.1,3466.1,476.6,400.4,427.0,865.4,718.4,430.9,5.0,-88.0,74.0,6597.0,-8025.0,-7317.0,10343.0,277.0,34.0,135.0,59.0,-8.0,103.0,4528.0,-6819.0,-9097.0,10894.0,2000.0,-387.0,191.0,1.0
2022-05-08 18:12:26.569440-07:00,656.2,714.2,652.2,913.5,356.1,309.0,835.2,688.0,3466.1,3461.3,1196.5,698.7,557.0,3467.4,1097.3,793.5,3440.7,3449.1,370.8,300.5,317.4,321.3,292.1,234.8,3460.1,3466.1,472.7,399.6,427.0,865.4,729.0,436.4,-23.0,-233.0,54.0,6714.0,-7905.0,-6915.0,10633.0,2631.0,-213.0,1097.0,-11.0,-88.0,-86.0,4897.0,-6316.0,-8195.0,11722.0,3574.0,-601.0,222.0,1.0
2022-05-08 18:12:26.658954-07:00,656.2,714.2,649.7,915.2,356.1,309.0,831.1,684.8,3466.1,3461.3,1195.6,700.3,557.0,3467.4,1096.4,794.4,3444.3,3441.9,370.8,300.5,319.0,317.4,292.1,234.8,3456.4,3466.1,472.7,399.6,423.1,862.1,729.0,436.4,26.0,-76.0,-80.0,6831.0,-7491.0,-5806.0,11487.0,3483.0,-578.0,1572.0,-109.0,8.0,-209.0,5325.0,-5487.0,-7172.0,12591.0,3280.0,-1003.0,-774.0,1.0
2022-05-08 18:12:26.688915-07:00,656.2,713.4,666.0,915.2,353.7,305.9,831.1,684.8,3462.5,3471.0,1217.7,700.3,559.4,3473.4,1096.4,794.4,3444.3,3441.9,377.8,297.4,319.0,317.4,290.5,233.3,3456.4,3466.1,475.0,402.0,423.1,862.1,750.5,433.3,176.0,190.0,-193.0,7069.0,-6892.0,-4488.0,12281.0,3290.0,175.0,886.0,-103.0,2.0,25.0,5664.0,-5001.0,-6604.0,12951.0,1298.0,-237.0,-25.0,1.0
2022-05-08 18:12:26.839066-07:00,656.2,713.4,666.0,914.4,353.7,302.0,847.8,680.7,3462.5,3471.0,1217.7,698.7,559.4,3464.9,1143.6,791.0,3444.3,3444.3,372.4,297.4,315.9,311.3,290.5,233.3,3462.5,3467.4,469.5,402.0,420.8,862.1,750.5,433.3,-146.0,-35.0,17.0,7243.0,-6674.0,-3556.0,12601.0,1238.0,405.0,696.0,-33.0,109.0,-76.0,5801.0,-4593.0,-6171.0,13251.0,1471.0,-486.0,-268.0,1.0
2022-05-08 18:12:26.989677-07:00,654.6,713.4,657.0,914.4,351.4,302.0,847.8,680.7,3467.4,3468.6,1226.6,698.7,551.4,3464.9,1143.6,791.0,3444.3,3444.3,372.4,302.8,315.9,318.2,293.6,234.0,3462.5,3467.4,469.5,393.4,420.8,876.4,821.0,432.5,32.0,45.0,-107.0,7314.0,-6549.0,-2872.0,12799.0,1572.0,276.0,621.0,-41.0,-23.0,43.0,5878.0,-4301.0,-5885.0,13444.0,701.0,-346.0,76.0,1.0
2022-05-08 18:12:27.108927-07:00,654.6,713.4,657.0,916.0,351.4,309.0,844.4,678.2,3467.4,3468.6,1226.6,693.8,551.4,3477.1,1223.0,797.7,3452.8,3444.3,375.5,302.8,317.4,318.2,293.6,234.0,3467.4,3464.9,471.1,393.4,423.9,876.4,821.0,432.5,-79.0,28.0,-2.0,7343.0,-6448.0,-2374.0,12934.0,702.0,-2.0,255.0,42.0,72.0,-25.0,5923.0,-4031.0,-5693.0,13590.0,738.0,-410.0,-265.0,1.0
2022-05-08 18:12:27.138906-07:00,654.6,713.4,653.0,916.0,353.0,309.0,844.4,678.2,3464.9,3468.6,1203.5,693.8,551.4,3477.1,1223.0,797.7,3452.8,3444.3,375.5,299.0,317.4,316.7,291.3,237.8,3467.4,3464.9,471.1,392.6,423.9,889.8,860.4,427.0,66.0,161.0,-15.0,7433.0,-6202.0,-2041.0,13059.0,1148.0,-310.0,150.0,17.0,-36.0,-34.0,5948.0,-3882.0,-5628.0,13650.0,79.0,-163.0,-39.0,1.0
2022-05-08 18:12:27.709453-07:00,654.6,713.4,653.0,914.4,353.0,305.9,829.4,681.5,3464.9,3468.6,1203.5,691.3,551.4,3468.6,1211.5,793.5,3435.8,3454.0,373.9,299.0,315.1,316.7,291.3,237.8,3457.6,3455.2,470.3,392.6,421.5,889.8,860.4,427.0,47.0,2.0,79.0,7486.0,-6086.0,-1881.0,13108.0,148.0,84.0,-69.0,8.0,8.0,-21.0,5963.0,-3807.0,-5618.0,13669.0,234.0,-158.0,-64.0,1.0
2022-05-08 18:12:27.710586-07:00,657.0,719.2,653.0,914.4,352.2,305.9,829.4,681.5,3466.1,3464.9,1203.5,691.3,554.6,3468.6,1211.5,793.5,3435.8,3454.0,373.9,299.0,315.1,312.0,280.6,231.7,3457.6,3455.2,470.3,392.6,421.5,904.2,847.0,430.2,34.0,-40.0,30.0,7526.0,-6150.0,-1768.0,13070.0,271.0,383.0,127.0,8.0,8.0,-21.0,5963.0,-3807.0,-5618.0,13669.0,234.0,-158.0,-64.0,1.0
2022-05-08 18:12:27.711141-07:00,657.0,719.2,653.0,914.4,352.2,305.9,829.4,681.5,3466.1,3464.9,1203.5,691.3,554.6,3468.6,1211.5,793.5,3435.8,3454.0,373.9,299.0,315.1,312.0,280.6,231.7,3457.6,3455.2,470.3,392.6,421.5,904.2,847.0,430.2,34.0,-40.0,30.0,7526.0,-6150.0,-1768.0,13070.0,271.0,383.0,127.0,-22.0,-24.0,-37.0,5949.0,-3691.0,-5543.0,13737.0,63.0,-110.0,42.0,1.0
2022-05-08 18:12:27.828521-07:00,653.0,722.5,659.5,911.0,348.3,306.7,836.9,679.1,3467.4,3468.6,1202.7,696.2,555.4,3468.6,1211.5,801.0,3443.1,3450.4,374.7,301.3,312.8,312.8,290.5,235.5,3458.9,3464.9,464.0,391.1,425.5,910.1,855.3,421.5,45.0,21.0,62.0,7446.0,-6289.0,-1509.0,13083.0,-1.0,96.0,162.0,-36.0,-33.0,-1.0,5938.0,-3668.0,-5530.0,13752.0,190.0,-98.0,22.0,1.0
2022-05-08 18:12:27.829643-07:00,653.0,722.5,659.5,911.0,353.7,298.2,833.6,671.7,3467.4,3468.6,1202.7,696.2,553.0,3468.6,1211.5,796.0,3445.5,3451.6,376.3,302.8,312.8,312.8,290.5,235.5,3462.5,3463.7,460.8,388.7,425.5,910.1,855.3,421.5,3.0,-24.0,-1.0,7426.0,-6361.0,-1408.0,13071.0,179.0,231.0,144.0,-36.0,-33.0,-1.0,5938.0,-3668.0,-5530.0,13752.0,190.0,-98.0,22.0,1.0
2022-05-08 18:12:27.830176-07:00,653.0,722.5,659.5,911.0,353.7,298.2,833.6,671.7,3467.4,3468.6,1202.7,696.2,553.0,3468.6,1211.5,796.0,3445.5,3451.6,376.3,302.8,312.8,312.8,290.5,235.5,3462.5,3463.7,460.8,388.7,425.5,910.1,855.3,421.5,3.0,-24.0,-1.0,7426.0,-6361.0,-1408.0,13071.0,179.0,231.0,144.0,0.0,-25.0,-5.0,5626.0,-5157.0,-7235.0,12564.0,-1810.0,550.0,53.0,1.0
2022-05-08 18:12:27.831436-07:00,657.0,725.8,657.9,914.4,349.9,299.0,832.7,675.8,3467.4,3471.0,1181.5,687.2,554.6,3464.9,1217.7,803.5,3438.2,3454.0,377.0,299.7,311.3,312.8,288.2,234.8,3466.1,3468.6,461.6,391.1,420.8,905.9,838.6,426.2,25.0,-18.0,40.0,7665.0,-8314.0,-3063.0,11453.0,-1352.0,689.0,-1325.0,-8.0,-28.0,-22.0,5489.0,-5555.0,-7652.0,12202.0,-1209.0,439.0,55.0,1.0
2022-05-08 18:12:27.832583-07:00,653.0,706.9,663.6,911.8,353.0,303.6,860.4,708.5,3473.4,3478.3,1171.8,687.2,552.2,3464.9,1202.7,798.5,3432.2,3461.3,373.2,299.0,315.1,312.0,285.2,231.7,3454.0,3461.3,467.9,391.1,420.0,903.4,816.9,429.4,16.0,-101.0,3.0,7813.0,-8670.0,-3471.0,10962.0,-844.0,796.0,-837.0,-25.0,-12.0,-71.0,5406.0,-5795.0,-7860.0,11994.0,-721.0,261.0,84.0,1.0
2022-05-08 18:12:27.858858-07:00,654.6,706.0,663.6,911.8,352.2,304.3,860.4,708.5,3469.8,3475.9,1171.8,687.2,552.2,3484.4,1202.7,798.5,3432.2,3461.3,376.3,301.3,315.1,312.0,282.9,231.7,3454.0,3461.3,458.5,391.8,420.0,903.4,806.9,441.2,25.0,4.0,-82.0,7904.0,-8951.0,-3618.0,10618.0,-553.0,661.0,-500.0,-32.0,13.0,-66.0,5285.0,-6025.0,-8108.0,11767.0,-1100.0,234.0,85.0,1.0
2022-05-08 18:12:27.918874-07:00,654.6,706.0,661.1,914.4,352.2,304.3,854.5,699.5,3469.8,3475.9,1170.9,692.1,552.2,3484.4,1203.5,797.7,3451.6,3435.8,376.3,301.3,313.6,314.4,282.9,231.7,3462.5,3458.9,458.5,391.8,416.8,905.0,806.9,441.2,32.0,-5.0,-53.0,7971.0,-9166.0,-3884.0,10286.0,-822.0,375.0,-812.0,-24.0,-17.0,-16.0,5178.0,-6172.0,-8311.0,11595.0,-368.0,40.0,15.0,1.0
2022-05-08 18:12:27.948964-07:00,646.5,701.9,661.1,914.4,351.4,298.2,854.5,699.5,3467.4,3464.9,1170.9,692.1,554.6,3468.6,1203.5,797.7,3451.6,3435.8,373.9,295.9,313.6,314.4,284.4,232.5,3462.5,3458.9,456.9,387.2,416.8,905.0,804.4,447.4,-14.0,-75.0,-46.0,8016.0,-9295.0,-4066.0,10063.0,-213.0,212.0,-190.0,-31.0,-8.0,-45.0,5150.0,-6188.0,-8337.0,11580.0,-2.0,-52.0,28.0,1.0
2022-05-08 18:12:28.099079-07:00,646.5,701.9,660.3,919.4,351.4,298.2,859.5,699.5,3467.4,3464.9,1170.9,688.9,554.6,3468.6,1197.4,791.0,3437.0,3451.6,373.9,295.9,310.5,317.4,284.4,232.5,3461.3,3463.7,456.9,387.2,413.7,903.4,804.4,447.4,22.0,-1.0,-14.0,7993.0,-9332.0,-4067.0,10045.0,-53.0,0.0,94.0,-3.0,-14.0,-4.0,5123.0,-6170.0,-8342.0,11599.0,40.0,-94.0,24.0,1.0
2022-05-08 18:12:28.100414-07:00,656.2,704.4,660.3,919.4,349.9,299.7,859.5,699.5,3478.3,3474.6,1168.2,688.9,551.4,3462.5,1197.4,791.0,3437.0,3451.6,378.6,295.9,310.5,316.7,282.1,232.5,3461.3,3463.7,455.3,390.3,413.7,896.6,808.5,432.5,-22.0,5.0,6.0,7962.0,-9365.0,-4047.0,10048.0,0.0,47.0,98.0,-7.0,11.0,-19.0,5117.0,-6148.0,-8329.0,11622.0,36.0,-33.0,8.0,1.0
2022-05-08 18:12:28.101914-07:00,656.2,704.4,660.3,912.7,349.9,302.8,859.5,699.5,3478.3,3474.6,1168.2,688.0,551.4,3473.4,1195.6,800.2,3455.2,3433.4,373.2,295.9,316.7,316.7,282.1,232.5,3460.1,3456.4,459.3,390.3,420.0,896.6,808.5,432.5,3.0,30.0,15.0,7941.0,-9366.0,-4026.0,10072.0,2.0,-25.0,64.0,-9.0,-11.0,-7.0,5117.0,-6147.0,-8327.0,11624.0,13.0,0.0,-1.0,1.0
2022-05-08 18:12:28.128906-07:00,653.8,703.6,656.2,912.7,354.5,302.8,859.5,699.5,3468.6,3471.0,1160.3,688.0,553.8,3473.4,1195.6,800.2,3455.2,3433.4,373.2,299.7,316.7,312.8,283.6,234.0,3460.1,3456.4,459.3,388.7,420.0,898.3,801.9,433.3,-12.0,-14.0,10.0,7937.0,-9367.0,-4021.0,10076.0,-3.0,16.0,18.0,-12.0,-2.0,-19.0,5122.0,-6144.0,-8315.0,11632.0,52.0,3.0,0.0,1.0
2022-05-08 18:12:28.159276-07:00,653.8,703.6,656.2,918.6,354.5,300.5,860.4,697.9,3468.6,3471.0,1160.3,688.9,553.8,3478.3,1193.8,803.5,3441.9,3438.2,373.2,299.7,316.7,312.8,283.6,234.0,3455.2,3463.7,456.1,388.7,419.2,898.3,801.9,433.3,0.0,14.0,-8.0,7936.0,-9365.0,-4001.0,10087.0,37.0,5.0,33.0,-11.0,-3.0,-21.0,5125.0,-6143.0,-8305.0,11638.0,67.0,-10.0,-17.0,1.0
2022-05-08 18:12:28.219521-07:00,649.7,699.5,660.3,918.6,350.6,300.5,860.4,697.9,3467.4,3467.4,1168.2,688.9,549.0,3478.3,1193.8,803.5,3441.9,3438.2,373.2,296.7,316.7,317.4,286.7,237.8,3455.2,3463.7,456.1,387.2,419.2,900.0,799.4,433.3,5.0,-9.0,-12.0,7934.0,-9355.0,-3994.0,10101.0,40.0,-38.0,35.0,-14.0,-19.0,-13.0,5130.0,-6129.0,-8289.0,11655.0,86.0,-33.0,-3.0,1.0
2022-05-08 18:12:28.278398-07:00,649.7,699.5,660.3,921.1,350.6,299.0,856.2,698.7,3467.4,3467.4,1168.2,697.0,549.0,3469.8,1200.9,799.4,3440.7,3446.7,373.9,296.7,309.7,317.4,286.7,237.8,3463.7,3461.3,456.1,387.2,418.4,900.0,799.4,433.3,-15.0,-14.0,-4.0,7926.0,-9347.0,-3966.0,10125.0,48.0,-11.0,90.0,-7.0,-2.0,-9.0,5131.0,-6108.0,-8271.0,11679.0,99.0,-47.0,6.0,1.0
2022-05-08 18:12:28.368875-07:00,655.4,702.8,659.5,922.8,355.3,299.0,856.2,698.7,3475.9,3464.9,1170.0,691.3,546.6,3469.8,1200.9,799.4,3440.7,3446.7,373.9,295.9,309.7,314.4,280.6,236.3,3463.7,3461.3,456.1,387.9,416.8,898.3,793.5,430.2,-3.0,3.0,-3.0,7908.0,-9342.0,-3938.0,10155.0,37.0,-30.0,95.0,-10.0,-2.0,-18.0,5137.0,-6078.0,-8242.0,11712.0,131.0,-65.0,-5.0,1.0
2022-05-08 18:12:28.371282-07:00,655.4,702.8,659.5,922.8,352.2,295.9,850.3,696.2,3475.9,3464.9,1170.0,691.3,551.4,3469.8,1200.9,800.2,3450.4,3435.8,375.5,296.7,309.7,314.4,280.6,236.3,3463.7,3462.5,460.0,395.7,416.8,898.3,793.5,430.2,10.0,5.0,2.0,7885.0,-9325.0,-3906.0,10200.0,77.0,-72.0,121.0,-7.0,-11.0,-5.0,5139.0,-6046.0,-8217.0,11745.0,124.0,-65.0,4.0,1.0
2022-05-08 18:12:28.428668-07:00,653.8,706.0,658.7,910.1,352.2,295.9,850.3,696.2,3467.4,3478.3,1159.4,688.0,551.4,3469.8,1200.9,800.2,3450.4,3435.8,375.5,296.7,311.3,315.1,281.3,234.0,3463.7,3462.5,460.0,395.7,410.6,896.6,797.7,428.6,-8.0,-8.0,2.0,7866.0,-9310.0,-3874.0,10240.0,60.0,-41.0,105.0,-9.0,0.0,-11.0,5145.0,-6007.0,-8177.0,11790.0,202.0,-69.0,11.0,1.0
2022-05-08 18:12:28.459313-07:00,653.8,706.0,658.7,910.1,349.9,295.9,862.9,699.5,3467.4,3478.3,1159.4,688.0,552.2,3472.2,1201.8,791.0,3431.0,3441.9,377.8,295.9,311.3,315.1,281.3,234.0,3460.1,3468.6,457.7,388.7,410.6,896.6,797.7,428.6,0.0,-4.0,-4.0,7841.0,-9292.0,-3829.0,10293.0,102.0,-77.0,173.0,-14.0,-2.0,-23.0,5160.0,-5955.0,-8118.0,11851.0,286.0,-112.0,-8.0,1.0
2022-05-08 18:12:28.579071-07:00,646.5,698.7,651.4,917.7,349.9,295.9,862.9,699.5,3468.6,3461.3,1161.2,688.0,552.2,3472.2,1201.8,791.0,3431.0,3441.9,377.8,295.9,315.9,315.1,283.6,231.7,3460.1,3468.6,457.7,388.7,420.8,894.1,797.7,428.6,5.0,-9.0,-8.0,7807.0,-9252.0,-3769.0,10377.0,169.0,-151.0,216.0,-6.0,-22.0,4.0,5190.0,-5874.0,-8023.0,11943.0,539.0,-113.0,-2.0,1.0
2022-05-08 18:12:28.638906-07:00,646.5,698.7,651.4,917.7,355.3,305.9,859.5,700.3,3468.6,3461.3,1161.2,688.0,550.6,3464.9,1195.6,796.9,3450.4,3438.2,376.3,296.7,315.9,315.1,283.6,231.7,3468.6,3462.5,449.8,393.4,420.8,894.1,797.7,428.6,-15.0,-29.0,-18.0,7770.0,-9186.0,-3669.0,10498.0,303.0,-233.0,340.0,-34.0,63.0,-39.0,5281.0,-5721.0,-7794.0,12127.0,986.0,-221.0,-10.0,1.0
2022-05-08 18:12:28.641591-07:00,653.8,701.1,657.0,917.7,355.3,305.9,859.5,700.3,3468.6,3478.3,1161.2,685.6,550.6,3464.9,1195.6,796.9,3450.4,3438.2,376.3,296.7,315.1,308.2,285.2,238.6,3468.6,3462.5,449.8,393.4,423.9,893.2,797.7,428.6,-4.0,-34.0,-53.0,7717.0,-8954.0,-3509.0,10789.0,790.0,-798.0,625.0,-9.0,-43.0,-60.0,5361.0,-5453.0,-7484.0,12408.0,1127.0,-365.0,-26.0,1.0
2022-05-08 18:12:28.669528-07:00,653.0,701.1,657.0,917.7,349.1,301.3,860.4,694.6,3478.3,3478.3,1161.2,685.6,553.0,3472.2,1192.9,801.9,3450.4,3456.4,379.4,295.1,315.1,308.2,285.2,235.5,3464.9,3460.1,460.0,387.2,423.9,893.2,797.7,429.4,58.0,-38.0,9.0,7620.0,-8691.0,-3180.0,11168.0,856.0,-394.0,898.0,-6.0,-24.0,5.0,5438.0,-5209.0,-7197.0,12646.0,1017.0,-303.0,43.0,1.0
2022-05-08 18:12:29.568341-07:00,653.0,698.7,656.2,922.8,349.1,301.3,860.4,693.8,3478.3,3467.4,1160.3,687.2,553.0,3472.2,1192.9,792.7,3447.9,3456.4,379.4,295.1,318.2,315.9,284.4,235.5,3468.6,3460.1,460.0,387.2,415.3,895.7,796.9,429.4,-24.0,-22.0,-16.0,7481.0,-8473.0,-2867.0,11509.0,753.0,-604.0,877.0,-1.0,5.0,-47.0,5514.0,-4898.0,-6872.0,12916.0,1130.0,-495.0,0.0,1.0
2022-05-08 18:12:29.569414-07:00,657.0,698.7,656.2,922.8,352.2,299.7,862.9,693.8,3467.4,3467.4,1160.3,687.2,551.4,3472.2,1194.7,792.7,3447.9,3446.7,377.8,298.2,318.2,315.9,284.4,238.6,3468.6,3457.6,456.9,385.6,415.3,895.7,796.9,434.9,96.0,60.0,18.0,7361.0,-8188.0,-2498.0,11873.0,849.0,-375.0,899.0,-8.0,-6.0,13.0,5563.0,-4650.0,-6626.0,13113.0,711.0,-311.0,-19.0,1.0
2022-05-08 18:12:29.659569-07:00,657.0,711.0,656.2,916.0,352.2,299.7,862.9,700.3,3467.4,3463.7,1159.4,679.1,551.4,3472.2,1194.7,801.9,3446.7,3446.7,377.8,298.2,313.6,311.3,280.6,238.6,3457.6,3457.6,456.9,385.6,416.8,897.4,791.9,434.9,-39.0,36.0,11.0,7266.0,-8015.0,-2202.0,12106.0,522.0,-320.0,541.0,-1.0,20.0,-19.0,5584.0,-4481.0,-6473.0,13239.0,510.0,-249.0,-19.0,1.0
2022-05-08 18:12:29.839627-07:00,651.4,711.0,656.2,916.0,355.3,301.3,870.5,700.3,3471.0,3463.7,1159.4,679.1,558.6,3467.4,1196.5,801.9,3446.7,3444.3,377.8,301.3,313.6,311.3,280.6,234.0,3457.6,3463.7,461.6,389.5,416.8,897.4,791.9,433.3,46.0,44.0,36.0,7201.0,-7862.0,-2033.0,12274.0,403.0,-192.0,372.0,-13.0,0.0,11.0,5628.0,-4323.0,-6313.0,13350.0,587.0,-181.0,-48.0,1.0
2022-05-08 18:12:30.289859-07:00,651.4,700.3,655.4,918.6,355.3,301.3,870.5,692.9,3471.0,3466.1,1153.3,692.9,558.6,3467.4,1196.5,797.7,3450.4,3444.3,377.8,301.3,311.3,312.0,281.3,234.0,3464.9,3463.7,461.6,389.5,415.3,898.3,791.9,433.3,-30.0,19.0,2.0,7184.0,-7750.0,-1822.0,12387.0,525.0,-143.0,333.0,-13.0,-1.0,-13.0,5674.0,-4193.0,-6176.0,13436.0,339.0,-107.0,-56.0,1.0
2022-05-08 18:12:30.290853-07:00,648.1,701.1,655.4,918.6,351.4,299.0,866.3,692.9,3478.3,3474.6,1153.3,692.9,553.8,3467.4,1190.3,797.7,3450.4,3440.7,373.9,295.9,311.3,312.0,279.0,233.3,3464.9,3468.6,456.9,390.3,415.3,898.3,793.5,433.3,14.0,44.0,6.0,7181.0,-7627.0,-1657.0,12488.0,322.0,-133.0,190.0,-13.0,-4.0,-10.0,5905.0,-3607.0,-5684.0,13720.0,-26.0,20.0,-35.0,1.0
2022-05-08 18:12:30.291650-07:00,653.0,695.4,659.5,916.9,353.7,295.9,880.6,698.7,3475.9,3464.9,1147.1,684.0,545.0,3478.3,1188.5,794.4,3452.8,3454.0,375.5,299.0,311.3,307.4,287.5,234.0,3462.5,3471.0,454.5,389.5,420.0,899.1,788.6,432.5,5.0,16.0,-10.0,7477.0,-6720.0,-1233.0,12878.0,-15.0,-63.0,-98.0,-7.0,-10.0,-17.0,5919.0,-3638.0,-5720.0,13691.0,-26.0,18.0,-19.0,1.0
2022-05-08 18:12:30.319796-07:00,650.5,695.4,653.8,916.9,353.0,299.0,871.3,702.8,3474.6,3467.4,1140.1,686.4,551.4,3468.6,1183.2,794.4,3449.1,3443.1,377.0,302.0,314.4,310.5,281.3,241.6,3468.6,3461.3,456.9,392.6,422.3,891.5,783.6,431.7,8.0,-9.0,-5.0,7487.0,-6693.0,-1327.0,12877.0,-37.0,-123.0,-47.0,-7.0,-10.0,-17.0,5919.0,-3638.0,-5720.0,13691.0,-26.0,18.0,-19.0,1.0
2022-05-08 18:12:30.320736-07:00,650.5,695.4,653.8,916.9,353.0,299.0,871.3,702.8,3474.6,3467.4,1140.1,686.4,551.4,3468.6,1183.2,794.4,3449.1,3443.1,377.0,302.0,314.4,310.5,281.3,241.6,3468.6,3461.3,456.9,392.6,422.3,891.5,783.6,431.7,8.0,-9.0,-5.0,7487.0,-6693.0,-1327.0,12877.0,-37.0,-123.0,-47.0,-39.0,22.0,-72.0,5573.0,-5469.0,-7746.0,12143.0,-2347.0,491.0,222.0,1.0
2022-05-08 18:12:30.321745-07:00,650.5,699.5,646.5,921.1,351.4,303.6,876.4,697.9,3462.5,3474.6,1141.0,684.8,551.4,3473.4,1177.0,794.4,3447.9,3450.4,373.9,299.0,319.7,313.6,282.9,236.3,3467.4,3457.6,453.0,396.5,414.5,891.5,784.4,428.6,14.0,19.0,-71.0,7523.0,-7589.0,-4475.0,11585.0,-2343.0,-64.0,-1202.0,-17.0,-66.0,-7.0,5255.0,-5994.0,-8353.0,11624.0,-2109.0,444.0,220.0,1.0
2022-05-08 18:12:30.378483-07:00,657.0,701.1,649.7,916.0,350.6,306.7,882.3,701.9,3466.1,3460.1,1145.4,689.7,553.0,3472.2,1147.1,794.4,3454.0,3450.4,377.8,300.5,312.8,305.9,285.9,233.3,3464.9,3457.6,461.6,398.9,420.8,878.9,808.5,426.2,-21.0,-119.0,-17.0,7420.0,-7857.0,-5344.0,11095.0,-1819.0,-63.0,-975.0,-28.0,18.0,-50.0,5022.0,-6340.0,-8746.0,11248.0,-1217.0,265.0,127.0,1.0
2022-05-08 18:12:30.409348-07:00,660.3,721.6,649.7,916.0,353.0,311.3,882.3,701.9,3462.5,3469.8,1145.4,689.7,554.6,3469.8,1147.1,794.4,3454.0,3450.4,377.8,297.4,312.8,305.9,291.3,237.1,3464.9,3457.6,471.1,392.6,420.8,878.9,778.6,428.6,5.0,-52.0,-36.0,7357.0,-7974.0,-5856.0,10790.0,-989.0,-65.0,-536.0,-28.0,-93.0,-13.0,4852.0,-6575.0,-8994.0,10990.0,-909.0,199.0,179.0,1.0
2022-05-08 18:12:30.469043-07:00,660.3,721.6,648.1,913.5,353.0,311.3,870.5,706.9,3462.5,3469.8,1130.5,687.2,554.6,3469.8,1128.7,796.0,3445.5,3441.9,377.8,297.4,318.2,313.6,291.3,237.1,3463.7,3458.9,471.1,392.6,421.5,871.3,778.6,428.6,-10.0,-73.0,-19.0,7280.0,-8062.0,-6155.0,10609.0,-837.0,-83.0,-275.0,-16.0,-33.0,-40.0,4719.0,-6720.0,-9156.0,10825.0,-602.0,71.0,76.0,1.0
2022-05-08 18:12:30.528898-07:00,669.3,728.2,648.1,913.5,351.4,307.4,870.5,706.9,3462.5,3464.9,1130.5,687.2,552.2,3473.4,1128.7,796.0,3445.5,3441.9,377.0,294.4,318.2,313.6,291.3,234.0,3463.7,3458.9,478.2,394.2,421.5,871.3,745.5,438.0,10.0,-25.0,5.0,7183.0,-8145.0,-6392.0,10471.0,-495.0,40.0,-113.0,-1.0,-5.0,-2.0,4638.0,-6802.0,-9265.0,10716.0,-318.0,35.0,48.0,1.0
2022-05-08 18:12:30.588582-07:00,669.3,728.2,653.8,915.2,351.4,307.4,863.7,710.1,3462.5,3464.9,1121.7,688.0,552.2,3473.4,1127.9,795.2,3449.1,3443.1,377.0,294.4,318.2,312.8,291.3,234.0,3452.8,3462.5,478.2,394.2,423.1,868.8,745.5,438.0,-12.0,-10.0,-7.0,7108.0,-8204.0,-6525.0,10393.0,-293.0,-121.0,-1.0,-9.0,0.0,-32.0,4607.0,-6831.0,-9284.0,10694.0,-145.0,-15.0,23.0,1.0
2022-05-08 18:12:30.619003-07:00,669.3,731.5,649.7,915.2,352.2,315.1,863.7,710.1,3466.1,3469.8,1114.7,688.0,557.0,3471.0,1127.9,795.2,3449.1,3443.1,373.2,294.4,318.2,311.3,290.5,237.8,3452.8,3462.5,475.8,392.6,423.1,867.9,723.3,430.2,8.0,-12.0,15.0,7033.0,-8220.0,-6594.0,10389.0,-158.0,-25.0,80.0,-8.0,-4.0,-5.0,4581.0,-6843.0,-9310.0,10674.0,-136.0,-22.0,36.0,1.0
2022-05-08 18:12:30.708890-07:00,669.3,731.5,649.7,917.7,352.2,308.2,866.3,693.8,3466.1,3469.8,1114.7,688.0,557.0,3467.4,1119.1,793.5,3441.9,3449.1,384.0,294.4,321.3,311.3,290.5,237.8,3463.7,3460.1,478.2,392.6,420.8,867.9,723.3,430.2,-14.0,12.0,13.0,6984.0,-8260.0,-6614.0,10377.0,-144.0,27.0,66.0,-8.0,5.0,-13.0,4559.0,-6853.0,-9326.0,10663.0,18.0,-11.0,7.0,1.0
2022-05-08 18:12:30.710247-07:00,672.5,733.2,653.0,917.7,353.0,308.2,866.3,693.8,3462.5,3462.5,1112.1,688.0,557.8,3467.4,1119.1,793.5,3441.9,3449.1,384.0,302.8,321.3,313.6,284.4,230.2,3463.7,3460.1,478.2,393.4,420.8,864.6,716.7,427.8,-11.0,10.0,0.0,6944.0,-8281.0,-6613.0,10387.0,0.0,-71.0,89.0,-4.0,-5.0,-11.0,4554.0,-6850.0,-9329.0,10665.0,-12.0,-7.0,-13.0,1.0
2022-05-08 18:12:30.769082-07:00,672.5,733.2,653.0,913.5,353.0,305.1,856.2,693.8,3462.5,3462.5,1112.1,688.9,557.8,3464.9,1120.9,791.0,3455.2,3439.5,373.2,302.8,315.9,313.6,284.4,230.2,3464.9,3462.5,474.3,393.4,422.3,864.6,716.7,427.8,-5.0,7.0,10.0,6923.0,-8285.0,-6607.0,10402.0,-20.0,27.0,19.0,-6.0,8.0,10.0,4557.0,-6849.0,-9327.0,10667.0,76.0,-8.0,-9.0,1.0
2022-05-08 18:12:30.828881-07:00,667.6,746.3,647.3,913.5,353.7,305.1,856.2,693.8,3471.0,3480.7,1119.1,688.9,553.8,3464.9,1120.9,791.0,3455.2,3439.5,373.2,295.9,315.9,311.3,286.7,231.0,3464.9,3462.5,474.3,393.4,422.3,860.4,715.1,427.8,-22.0,7.0,0.0,6931.0,-8294.0,-6586.0,10404.0,96.0,5.0,48.0,-12.0,-2.0,-16.0,4571.0,-6838.0,-9299.0,10692.0,81.0,-7.0,-6.0,1.0
2022-05-08 18:12:30.859503-07:00,667.6,746.3,647.3,915.2,353.7,308.2,858.7,691.3,3471.0,3480.7,1119.1,685.6,553.8,3462.5,1106.9,796.9,3438.2,3439.5,374.7,295.9,318.2,311.3,286.7,231.0,3455.2,3458.9,471.1,393.4,424.7,860.4,715.1,427.8,-1.0,4.0,4.0,6937.0,-8290.0,-6543.0,10430.0,66.0,44.0,40.0,-11.0,-6.0,-2.0,4581.0,-6832.0,-9282.0,10706.0,64.0,-5.0,0.0,1.0
2022-05-08 18:12:30.919043-07:00,674.2,731.5,652.2,917.7,352.2,308.2,858.7,691.3,3471.0,3473.4,1103.4,688.9,547.4,3462.5,1106.9,796.9,3438.2,3439.5,374.7,299.7,316.7,314.4,287.5,235.5,3455.2,3458.9,471.1,385.6,422.3,857.0,720.0,426.2,-14.0,5.0,2.0,6953.0,-8294.0,-6513.0,10435.0,90.0,24.0,-21.0,-9.0,3.0,-24.0,4591.0,-6824.0,-9271.0,10717.0,-39.0,19.0,-23.0,1.0
2022-05-08 18:12:30.979248-07:00,674.2,731.5,652.2,917.7,358.4,310.5,860.4,692.1,3471.0,3473.4,1103.4,688.9,549.8,3478.3,1104.3,795.2,3438.2,3438.2,377.0,299.7,316.7,314.4,287.5,235.5,3466.1,3457.6,476.6,385.6,422.3,857.0,720.0,426.2,14.0,20.0,10.0,6976.0,-8273.0,-6504.0,10442.0,-40.0,25.0,-40.0,-5.0,-9.0,-1.0,4593.0,-6830.0,-9276.0,10707.0,36.0,9.0,20.0,1.0
2022-05-08 18:12:31.039389-07:00,670.9,734.8,650.5,914.4,358.4,310.5,860.4,692.1,3478.3,3473.4,1099.0,688.0,549.8,3478.3,1104.3,795.2,3438.2,3438.2,377.0,299.7,321.3,312.8,282.1,234.8,3466.1,3457.6,476.6,385.6,418.4,859.5,710.1,427.8,-12.0,-12.0,14.0,6987.0,-8287.0,-6502.0,10425.0,29.0,40.0,23.0,-2.0,1.0,-16.0,4595.0,-6835.0,-9266.0,10711.0,-6.0,17.0,10.0,1.0
2022-05-08 18:12:31.159466-07:00,670.9,734.8,650.5,914.4,353.7,307.4,857.0,692.9,3478.3,3473.4,1099.0,688.0,553.8,3455.2,1111.2,794.4,3456.4,3447.9,376.3,299.7,321.3,312.8,282.1,234.8,3455.2,3461.3,473.5,385.6,418.4,859.5,710.1,427.8,2.0,12.0,0.0,6994.0,-8298.0,-6484.0,10422.0,-8.0,52.0,-1.0,-5.0,-2.0,-14.0,4594.0,-6838.0,-9267.0,10709.0,12.0,-7.0,-3.0,1.0
2022-05-08 18:12:31.160396-07:00,677.4,738.9,647.3,914.4,353.7,307.4,857.0,692.9,3468.6,3467.4,1099.0,689.7,553.8,3455.2,1111.2,794.4,3456.4,3447.9,376.3,299.7,315.9,305.1,285.2,233.3,3455.2,3461.3,473.5,385.6,422.3,859.5,706.9,424.7,-1.0,0.0,0.0,7004.0,-8308.0,-6476.0,10412.0,28.0,37.0,-11.0,-7.0,1.0,-20.0,4594.0,-6838.0,-9265.0,10711.0,6.0,-8.0,-5.0,1.0
2022-05-08 18:12:31.161972-07:00,677.4,738.9,647.3,914.4,350.6,305.1,862.1,692.1,3468.6,3467.4,1099.0,689.7,549.0,3464.9,1104.3,793.5,3438.2,3435.8,377.8,299.0,315.9,305.1,285.2,233.3,3455.2,3455.2,470.3,390.3,422.3,859.5,706.9,424.7,-1.0,3.0,1.0,7011.0,-8303.0,-6472.0,10414.0,12.0,-32.0,-5.0,-5.0,-3.0,-6.0,4595.0,-6834.0,-9261.0,10717.0,41.0,-21.0,7.0,1.0
2022-05-08 18:12:31.278908-07:00,672.5,736.5,650.5,911.8,350.6,305.1,862.1,692.1,3471.0,3467.4,1099.9,686.4,549.0,3464.9,1104.3,793.5,3438.2,3435.8,377.8,299.0,318.2,309.7,285.9,234.0,3455.2,3455.2,470.3,390.3,423.1,860.4,706.9,426.2,-13.0,-6.0,12.0,7010.0,-8299.0,-6468.0,10420.0,45.0,8.0,18.0,-2.0,-1.0,-11.0,4597.0,-6830.0,-9255.0,10724.0,9.0,-4.0,0.0,1.0
2022-05-08 18:12:31.281772-07:00,673.3,736.5,650.5,911.8,355.3,311.3,852.0,687.2,3473.4,3467.4,1099.9,686.4,549.8,3477.1,1103.4,790.2,3446.7,3444.3,378.6,292.8,318.2,309.7,285.9,234.8,3468.6,3458.9,471.1,390.3,423.1,860.4,706.9,422.3,3.0,6.0,9.0,7014.0,-8293.0,-6457.0,10430.0,15.0,-16.0,-17.0,-6.0,0.0,2.0,4597.0,-6830.0,-9255.0,10724.0,13.0,6.0,1.0,1.0
2022-05-08 18:12:31.338971-07:00,673.3,743.9,646.5,919.4,355.3,311.3,852.0,696.2,3473.4,3468.6,1097.3,684.8,549.8,3477.1,1103.4,793.5,3447.9,3444.3,378.6,292.8,311.3,311.3,285.9,234.8,3452.8,3458.9,471.1,390.3,420.8,863.7,701.9,422.3,-11.0,-4.0,7.0,7024.0,-8293.0,-6454.0,10424.0,22.0,41.0,-14.0,-9.0,0.0,-13.0,4600.0,-6829.0,-9243.0,10733.0,51.0,-3.0,13.0,1.0
2022-05-08 18:12:31.369165-07:00,673.3,743.9,646.5,919.4,361.5,307.4,852.0,696.2,3462.5,3468.6,1097.3,684.8,557.0,3472.2,1106.9,793.5,3447.9,3438.2,370.0,289.8,311.3,311.3,285.9,235.5,3452.8,3455.2,472.7,384.8,420.8,863.7,701.9,425.5,0.0,1.0,1.0,7033.0,-8287.0,-6443.0,10431.0,74.0,-26.0,-6.0,-6.0,-2.0,-17.0,4599.0,-6832.0,-9243.0,10732.0,-42.0,9.0,-13.0,1.0
2022-05-08 18:12:31.428961-07:00,673.3,738.9,648.1,916.9,361.5,307.4,852.0,686.4,3462.5,3464.9,1092.1,686.4,557.0,3472.2,1106.9,791.0,3455.2,3438.2,370.0,289.8,316.7,311.3,285.9,235.5,3457.6,3455.2,472.7,384.8,435.7,853.7,705.2,425.5,3.0,5.0,3.0,7042.0,-8279.0,-6442.0,10431.0,-52.0,25.0,-54.0,-5.0,5.0,-5.0,4594.0,-6836.0,-9252.0,10724.0,-2.0,7.0,-1.0,1.0
2022-05-08 18:12:31.459116-07:00,670.1,738.9,648.1,916.9,357.6,305.1,855.3,686.4,3473.4,3464.9,1092.1,686.4,551.4,3455.2,1101.7,791.0,3455.2,3439.5,376.3,295.9,316.7,311.3,285.9,235.5,3457.6,3462.5,475.8,394.2,435.7,853.7,705.2,422.3,-6.0,-5.0,5.0,7047.0,-8289.0,-6453.0,10413.0,-13.0,33.0,10.0,-7.0,-1.0,-10.0,4596.0,-6836.0,-9246.0,10729.0,24.0,-6.0,10.0,1.0
2022-05-08 18:12:31.518980-07:00,670.1,735.6,646.5,916.9,357.6,305.1,855.3,692.1,3473.4,3464.9,1098.2,685.6,551.4,3455.2,1101.7,791.0,3445.5,3439.5,376.3,295.9,316.7,312.0,285.2,235.5,3452.8,3462.5,475.8,394.2,421.5,859.5,706.0,422.3,-4.0,6.0,0.0,7047.0,-8298.0,-6444.0,10412.0,16.0,7.0,4.0,-7.0,0.0,-8.0,4597.0,-6836.0,-9243.0,10731.0,17.0,-8.0,-7.0,1.0
2022-05-08 18:12:31.548831-07:00,672.5,735.6,646.5,916.9,349.9,309.0,852.0,692.1,3466.1,3464.9,1098.2,685.6,548.2,3469.8,1100.8,791.0,3445.5,3438.2,373.9,296.7,316.7,312.0,285.2,234.8,3452.8,3458.9,471.1,386.4,421.5,859.5,706.0,427.0,-2.0,0.0,-1.0,7051.0,-8292.0,-6443.0,10414.0,30.0,-28.0,-22.0,-9.0,-8.0,-4.0,4599.0,-6827.0,-9233.0,10744.0,88.0,-25.0,-3.0,1.0
2022-05-08 18:12:31.609290-07:00,672.5,731.5,648.9,912.7,349.9,309.0,847.8,687.2,3466.1,3472.2,1089.5,687.2,548.2,3469.8,1103.4,796.9,3445.5,3452.8,373.9,296.7,319.7,313.6,287.5,234.8,3463.7,3473.4,471.1,386.4,424.7,857.0,697.9,427.0,-13.0,-14.0,2.0,7062.0,-8276.0,-6442.0,10420.0,95.0,-28.0,-4.0,-7.0,-8.0,-10.0,4625.0,-6793.0,-9177.0,10802.0,304.0,-57.0,15.0,1.0
2022-05-08 18:12:31.698668-07:00,674.2,735.6,648.9,912.7,349.1,303.6,847.8,687.2,3468.6,3466.1,1089.5,687.2,555.4,3468.6,1103.4,796.9,3445.5,3452.8,374.7,296.7,319.7,313.6,287.5,229.5,3463.7,3473.4,470.3,391.1,424.7,857.0,698.7,429.4,0.0,-15.0,-1.0,7072.0,-8243.0,-6396.0,10467.0,248.0,-65.0,127.0,-6.0,-9.0,-15.0,4655.0,-6733.0,-9077.0,10910.0,415.0,-110.0,52.0,1.0
2022-05-08 18:12:31.699933-07:00,674.2,735.6,646.5,916.9,349.1,303.6,852.0,685.6,3468.6,3466.1,1091.2,689.7,555.4,3468.6,1093.8,801.9,3444.3,3439.5,374.7,296.7,314.4,312.8,287.5,229.5,3463.7,3452.8,470.3,391.1,428.6,854.5,698.7,429.4,-4.0,-14.0,2.0,7094.0,-8200.0,-6300.0,10544.0,326.0,-7.0,94.0,-6.0,1.0,19.0,4700.0,-6643.0,-8935.0,11063.0,543.0,-130.0,84.0,1.0
2022-05-08 18:12:31.759343-07:00,670.1,726.6,646.5,916.9,351.4,309.7,852.0,685.6,3466.1,3469.8,1091.2,689.7,549.0,3473.4,1093.8,801.9,3444.3,3439.5,377.0,297.4,314.4,312.8,282.9,233.3,3463.7,3452.8,474.3,395.7,428.6,854.5,752.1,425.5,-34.0,-26.0,4.0,7158.0,-8126.0,-6147.0,10648.0,539.0,-87.0,217.0,-17.0,-33.0,-37.0,4742.0,-6516.0,-8744.0,11271.0,778.0,-260.0,110.0,1.0
2022-05-08 18:12:31.819553-07:00,670.1,726.6,643.2,914.4,351.4,309.7,855.3,685.6,3466.1,3469.8,1091.2,688.0,549.0,3473.4,1118.2,792.7,3455.2,3447.9,377.0,297.4,321.3,305.1,282.9,233.3,3461.3,3455.2,474.3,395.7,419.2,859.5,752.1,425.5,10.0,-39.0,26.0,7197.0,-8022.0,-5940.0,10816.0,644.0,-7.0,276.0,-20.0,38.0,15.0,4804.0,-6372.0,-8523.0,11494.0,1144.0,-261.0,-16.0,1.0
2022-05-08 18:12:31.848886-07:00,664.4,725.8,643.2,914.4,349.9,314.4,855.3,685.6,3478.3,3464.9,1091.2,688.0,549.8,3475.9,1118.2,792.7,3455.2,3447.9,376.3,299.7,321.3,305.1,282.9,232.5,3461.3,3455.2,478.2,393.4,419.2,859.5,836.1,425.5,-15.0,13.0,-41.0,7293.0,-7903.0,-5621.0,11010.0,976.0,-79.0,468.0,-15.0,-69.0,4.0,4923.0,-6156.0,-8197.0,11794.0,1284.0,-362.0,92.0,1.0
2022-05-08 18:12:32.268999-07:00,664.4,725.8,649.7,911.8,349.9,320.5,872.1,682.3,3478.3,3464.9,1103.4,687.2,549.8,3473.4,1139.2,792.7,3446.7,3445.5,377.8,299.7,319.0,310.5,282.9,232.5,3468.6,3461.3,471.1,393.4,422.3,871.3,836.1,425.5,-21.0,-84.0,26.0,7343.0,-7782.0,-5230.0,11251.0,1299.0,66.0,491.0,0.0,-261.0,63.0,5073.0,-5793.0,-7772.0,12196.0,1445.0,-434.0,-485.0,1.0
2022-05-08 18:12:32.509598-07:00,662.7,723.3,649.7,911.8,352.2,320.5,872.1,682.3,3466.1,3469.8,1091.2,687.2,550.6,3473.4,1139.2,792.7,3446.7,3445.5,377.8,296.7,319.0,312.0,283.6,235.5,3468.6,3461.3,471.1,403.5,422.3,880.6,849.5,426.2,28.0,12.0,-53.0,7515.0,-7536.0,-4647.0,11557.0,1745.0,-57.0,585.0,-24.0,-79.0,-6.0,5313.0,-5415.0,-7328.0,12537.0,1805.0,-526.0,-159.0,1.0
2022-05-08 18:12:32.628558-07:00,662.7,723.3,649.7,914.4,352.2,316.7,863.7,685.6,3466.1,3469.8,1091.2,684.0,550.6,3469.8,1139.2,789.4,3449.1,3450.4,373.2,296.7,313.6,312.0,283.6,235.5,3466.1,3460.1,471.1,403.5,423.9,880.6,849.5,426.2,-14.0,-110.0,0.0,7626.0,-7241.0,-3972.0,11919.0,2011.0,-72.0,834.0,31.0,184.0,-45.0,5552.0,-4877.0,-6805.0,12943.0,1615.0,-469.0,-279.0,1.0
2022-05-08 18:12:32.631085-07:00,661.9,718.4,650.5,914.4,349.1,316.7,863.7,685.6,3467.4,3464.9,1093.8,684.0,550.6,3469.8,1139.2,789.4,3449.1,3450.4,373.2,293.6,313.6,312.0,278.3,237.1,3466.1,3460.1,471.1,401.2,423.9,899.1,860.4,422.3,16.0,158.0,-146.0,7761.0,-6836.0,-3159.0,12308.0,2056.0,-245.0,807.0,41.0,88.0,-100.0,5683.0,-4545.0,-6457.0,13183.0,784.0,-184.0,53.0,1.0
2022-05-08 18:12:32.659542-07:00,661.9,718.4,650.5,915.2,349.1,316.7,853.7,681.5,3467.4,3464.9,1093.8,683.1,550.6,3464.9,1136.6,798.5,3440.7,3451.6,380.2,293.6,315.1,312.0,278.3,237.1,3468.6,3460.1,466.4,401.2,415.3,899.1,860.4,422.3,2.0,-4.0,48.0,7724.0,-6569.0,-2694.0,12585.0,811.0,-102.0,567.0,41.0,88.0,-100.0,5683.0,-4545.0,-6457.0,13183.0,784.0,-184.0,53.0,1.0
2022-05-08 18:12:32.660315-07:00,661.9,718.4,650.5,915.2,349.1,316.7,853.7,681.5,3467.4,3464.9,1093.8,683.1,550.6,3464.9,1136.6,798.5,3440.7,3451.6,380.2,293.6,315.1,312.0,278.3,237.1,3468.6,3460.1,466.4,401.2,415.3,899.1,860.4,422.3,2.0,-4.0,48.0,7724.0,-6569.0,-2694.0,12585.0,811.0,-102.0,567.0,-6.0,-35.0,5.0,5825.0,-4061.0,-5962.0,13508.0,31.0,33.0,0.0,1.0
2022-05-08 18:12:32.661243-07:00,659.5,710.1,660.3,922.8,355.3,323.6,852.8,676.6,3467.4,3467.4,1094.7,685.6,548.2,3460.1,1172.6,798.5,3447.9,3449.1,370.8,303.6,312.8,307.4,284.4,234.8,3452.8,3457.6,465.6,405.1,420.0,927.1,871.3,423.1,23.0,-14.0,39.0,7663.0,-6372.0,-1959.0,12856.0,-9.0,218.0,119.0,-6.0,-35.0,5.0,5825.0,-4061.0,-5962.0,13508.0,31.0,33.0,0.0,1.0
2022-05-08 18:12:32.661903-07:00,659.5,710.1,660.3,922.8,355.3,323.6,852.8,676.6,3467.4,3467.4,1094.7,685.6,548.2,3460.1,1172.6,798.5,3447.9,3449.1,370.8,303.6,312.8,307.4,284.4,234.8,3452.8,3457.6,465.6,405.1,420.0,927.1,871.3,423.1,23.0,-14.0,39.0,7663.0,-6372.0,-1959.0,12856.0,-9.0,218.0,119.0,-20.0,13.0,4.0,5388.0,-5805.0,-8124.0,11820.0,-1521.0,406.0,104.0,1.0
2022-05-08 18:12:32.664476-07:00,656.2,711.8,655.4,919.4,352.2,309.7,845.3,689.7,3467.4,3477.1,1086.0,677.4,552.2,3462.5,1119.1,790.2,3454.0,3443.1,377.0,295.1,315.1,305.9,283.6,234.0,3457.6,3457.6,466.4,402.8,422.3,890.7,819.4,421.5,-22.0,-74.0,15.0,7406.0,-7819.0,-4786.0,11381.0,-1421.0,210.0,-896.0,-32.0,-21.0,-27.0,5291.0,-6033.0,-8384.0,11565.0,-772.0,229.0,-21.0,1.0
2022-05-08 18:12:32.719496-07:00,664.4,711.8,655.4,919.4,354.5,309.7,843.6,689.7,3457.6,3477.1,1086.0,677.4,540.2,3464.9,1112.1,790.2,3454.0,3451.6,375.5,294.4,315.1,305.9,283.6,237.1,3457.6,3456.4,477.4,400.4,422.3,890.7,819.4,424.7,-8.0,-47.0,-35.0,7442.0,-7926.0,-5114.0,11139.0,-526.0,68.0,-474.0,-25.0,6.0,-61.0,5219.0,-6168.0,-8546.0,11408.0,-284.0,108.0,117.0,1.0
2022-05-08 18:12:32.748836-07:00,664.4,719.2,657.0,922.0,354.5,309.7,843.6,690.5,3457.6,3466.1,1080.8,689.7,540.2,3464.9,1112.1,796.0,3445.5,3451.6,375.5,294.4,310.5,309.0,279.0,237.1,3457.6,3456.4,477.4,400.4,423.1,878.0,754.6,424.7,15.0,-75.0,-24.0,7451.0,-7977.0,-5342.0,10988.0,-452.0,42.0,-304.0,-9.0,-31.0,-4.0,5160.0,-6228.0,-8620.0,11345.0,-165.0,-21.0,51.0,1.0
2022-05-08 18:12:32.809576-07:00,670.1,719.2,657.0,922.0,353.0,309.0,847.0,690.5,3474.6,3466.1,1080.8,689.7,546.6,3462.5,1104.3,796.0,3445.5,3447.9,377.8,295.9,310.5,309.0,279.0,236.3,3457.6,3473.4,477.4,398.9,423.1,878.0,754.6,420.8,-3.0,-32.0,3.0,7431.0,-8028.0,-5441.0,10916.0,-148.0,-2.0,-10.0,-4.0,4.0,-8.0,5146.0,-6226.0,-8627.0,11347.0,-9.0,-33.0,9.0,1.0
2022-05-08 18:12:32.869155-07:00,670.1,724.1,654.6,916.9,353.0,309.0,847.0,693.8,3474.6,3469.8,1071.2,688.9,546.6,3462.5,1104.3,794.4,3445.5,3447.9,377.8,295.9,318.2,312.0,280.6,236.3,3462.5,3473.4,477.4,398.9,420.8,870.5,741.4,420.8,4.0,11.0,13.0,7398.0,-8044.0,-5445.0,10925.0,-31.0,6.0,76.0,-4.0,-16.0,4.0,5119.0,-6243.0,-8659.0,11326.0,-306.0,12.0,34.0,1.0
2022-05-08 18:12:32.928989-07:00,668.4,718.4,654.6,916.9,355.3,305.9,838.6,693.8,3468.6,3469.8,1071.2,688.9,549.8,3474.6,1095.6,794.4,3445.5,3449.1,380.2,294.4,318.2,312.0,281.3,234.0,3462.5,3457.6,479.0,398.9,420.8,870.5,735.6,423.9,-17.0,12.0,11.0,7367.0,-8084.0,-5491.0,10893.0,-283.0,28.0,-86.0,-4.0,-4.0,4.0,5075.0,-6288.0,-8726.0,11269.0,-105.0,27.0,0.0,1.0
2022-05-08 18:12:32.958980-07:00,668.4,718.4,652.2,915.2,355.3,305.9,838.6,690.5,3468.6,3469.8,1069.5,692.9,549.8,3474.6,1092.1,796.0,3443.1,3444.3,380.2,294.4,316.7,307.4,281.3,234.0,3458.9,3460.1,479.0,398.9,425.5,869.6,735.6,423.9,-10.0,-11.0,18.0,7356.0,-8111.0,-5565.0,10843.0,-90.0,31.0,-76.0,-18.0,-11.0,-18.0,5075.0,-6301.0,-8732.0,11258.0,10.0,23.0,-10.0,1.0
2022-05-08 18:12:33.019312-07:00,670.1,722.5,652.2,915.2,353.7,308.2,838.6,690.5,3467.4,3467.4,1069.5,692.9,550.6,3467.4,1092.1,796.0,3443.1,3444.3,377.0,297.4,316.7,307.4,279.0,231.7,3458.9,3460.1,478.2,398.9,425.5,869.6,724.9,427.8,-4.0,-10.0,-2.0,7363.0,-8117.0,-5563.0,10835.0,17.0,41.0,-3.0,-9.0,-2.0,-10.0,5076.0,-6307.0,-8730.0,11255.0,13.0,-3.0,7.0,1.0
2022-05-08 18:12:33.079702-07:00,670.1,722.5,653.8,916.0,353.7,308.2,845.3,684.8,3467.4,3467.4,1074.7,685.6,550.6,3467.4,1096.4,791.9,3449.1,3449.1,377.0,297.4,318.2,309.0,279.0,231.7,3461.3,3468.6,478.2,398.9,421.5,872.1,724.9,427.8,0.0,-7.0,-8.0,7372.0,-8117.0,-5564.0,10828.0,21.0,-9.0,-18.0,-8.0,-9.0,-15.0,5079.0,-6304.0,-8723.0,11261.0,-8.0,-4.0,-6.0,1.0
2022-05-08 18:12:33.108587-07:00,673.3,722.5,653.8,916.0,350.6,307.4,845.3,684.8,3468.6,3466.1,1074.7,685.6,550.6,3472.2,1096.4,791.9,3449.1,3449.1,377.8,292.1,318.2,309.0,279.8,234.8,3461.3,3468.6,475.8,390.3,421.5,872.1,724.9,425.5,5.0,-4.0,-1.0,7368.0,-8104.0,-5561.0,10842.0,-14.0,-52.0,10.0,-4.0,0.0,-4.0,5075.0,-6300.0,-8723.0,11265.0,34.0,-25.0,-1.0,1.0
2022-05-08 18:12:33.169111-07:00,673.3,722.5,647.3,913.5,350.6,307.4,847.8,690.5,3468.6,3466.1,1067.7,687.2,550.6,3472.2,1092.1,793.5,3447.9,3454.0,377.8,292.1,314.4,304.3,279.8,234.8,3471.0,3463.7,475.8,390.3,424.7,867.1,724.9,425.5,-8.0,6.0,0.0,7366.0,-8093.0,-5563.0,10850.0,35.0,-34.0,9.0,-11.0,-16.0,7.0,5074.0,-6291.0,-8721.0,11272.0,-6.0,-13.0,-6.0,1.0
2022-05-08 18:12:33.259788-07:00,663.6,722.5,648.1,913.5,348.3,302.8,847.8,690.5,3468.6,3467.4,1062.5,687.2,550.6,3474.6,1092.1,793.5,3447.9,3454.0,377.8,294.4,314.4,302.0,279.0,234.8,3471.0,3463.7,473.5,396.5,424.7,864.6,721.6,427.8,-17.0,-4.0,4.0,7368.0,-8084.0,-5560.0,10857.0,-5.0,-13.0,-12.0,-9.0,-12.0,-9.0,5066.0,-6291.0,-8727.0,11271.0,-13.0,-16.0,14.0,1.0
2022-05-08 18:12:33.261095-07:00,663.6,722.5,648.1,916.0,348.3,302.8,835.2,688.9,3468.6,3467.4,1062.5,686.4,550.6,3474.6,1086.8,795.2,3444.3,3452.8,377.0,294.4,319.7,302.0,279.0,234.8,3455.2,3460.1,471.1,396.5,423.9,864.6,721.6,427.8,-3.0,-15.0,7.0,7362.0,-8077.0,-5570.0,10861.0,-23.0,14.0,12.0,-7.0,2.0,-9.0,5055.0,-6288.0,-8723.0,11280.0,16.0,-24.0,27.0,1.0
2022-05-08 18:12:33.319115-07:00,664.4,720.0,653.8,916.0,348.3,302.8,835.2,688.9,3464.9,3467.4,1068.6,686.4,549.8,3474.6,1086.8,795.2,3444.3,3452.8,377.0,286.7,319.7,305.1,279.8,237.1,3455.2,3460.1,471.1,393.4,423.9,866.3,711.8,423.1,0.0,11.0,-1.0,7355.0,-8081.0,-5564.0,10866.0,-8.0,-2.0,17.0,-7.0,1.0,-14.0,5050.0,-6289.0,-8724.0,11282.0,-17.0,-6.0,-2.0,1.0
2022-05-08 18:12:33.408968-07:00,664.4,720.0,653.8,919.4,348.3,306.7,836.9,688.0,3464.9,3467.4,1068.6,685.6,549.8,3471.0,1088.6,791.0,3449.1,3441.9,373.2,286.7,324.4,305.1,279.8,237.1,3469.8,3464.9,471.1,393.4,423.9,866.3,711.8,423.1,10.0,26.0,2.0,7351.0,-8074.0,-5568.0,10873.0,-16.0,-20.0,-3.0,-1.0,-4.0,3.0,5048.0,-6291.0,-8728.0,11278.0,10.0,9.0,1.0,1.0
2022-05-08 18:12:33.410818-07:00,666.8,720.0,653.8,919.4,354.5,306.7,836.9,688.0,3466.1,3457.6,1068.6,685.6,562.6,3471.0,1088.6,791.0,3449.1,3441.9,373.2,296.7,324.4,307.4,282.1,236.3,3469.8,3464.9,471.1,391.8,423.9,865.4,711.0,422.3,-13.0,-2.0,7.0,7351.0,-8075.0,-5568.0,10871.0,14.0,-20.0,4.0,7.0,-14.0,0.0,5055.0,-6284.0,-8711.0,11293.0,120.0,-17.0,11.0,1.0
2022-05-08 18:12:33.498663-07:00,666.8,720.0,653.8,915.2,354.5,309.0,829.4,688.0,3466.1,3457.6,1068.6,692.9,562.6,3462.5,1089.5,793.5,3452.8,3435.8,380.2,296.7,315.1,307.4,282.1,236.3,3471.0,3466.1,470.3,391.8,422.3,865.4,711.0,422.3,-1.0,-17.0,5.0,7356.0,-8051.0,-5545.0,10898.0,173.0,-65.0,45.0,-13.0,10.0,26.0,5084.0,-6227.0,-8609.0,11389.0,590.0,-135.0,58.0,1.0
2022-05-08 18:12:33.501147-07:00,665.2,722.5,649.7,915.2,351.4,309.0,829.4,688.0,3466.1,3464.9,1065.1,692.9,545.8,3462.5,1089.5,793.5,3452.8,3435.8,380.2,297.4,315.1,305.9,277.5,234.8,3471.0,3466.1,470.3,393.4,422.3,863.7,714.2,422.3,-26.0,-69.0,-12.0,7442.0,-7896.0,-5420.0,11015.0,977.0,-275.0,-10.0,-25.0,7.0,-18.0,5166.0,-6048.0,-8328.0,11654.0,1134.0,-238.0,93.0,1.0
2022-05-08 18:12:33.558869-07:00,665.2,722.5,649.7,923.7,355.3,299.7,840.3,685.6,3466.1,3464.9,1065.1,684.0,551.4,3468.6,1083.4,795.2,3450.4,3449.1,375.5,292.8,315.9,305.9,277.5,234.8,3475.9,3463.7,471.1,391.1,416.8,863.7,714.2,422.3,-33.0,-16.0,-32.0,7558.0,-7580.0,-5093.0,11310.0,1073.0,-423.0,450.0,-46.0,-61.0,-39.0,5249.0,-5808.0,-7960.0,11991.0,1495.0,-402.0,139.0,1.0
2022-05-08 18:12:33.889615-07:00,662.7,715.9,657.0,914.4,355.3,299.7,840.3,685.6,3473.4,3464.9,1062.5,688.0,551.4,3468.6,1083.4,795.2,3450.4,3449.1,375.5,292.8,312.0,307.4,281.3,234.8,3475.9,3463.7,471.1,391.1,422.3,871.3,788.6,424.7,29.0,-150.0,-46.0,7567.0,-7318.0,-4674.0,11652.0,1523.0,-274.0,717.0,-13.0,110.0,19.0,5439.0,-5312.0,-7320.0,12532.0,2535.0,-642.0,-45.0,1.0
2022-05-08 18:12:33.892313-07:00,662.7,715.9,657.0,914.4,354.5,307.4,866.3,706.0,3473.4,3464.9,1062.5,688.0,543.4,3466.1,1091.2,796.0,3451.6,3445.5,374.7,299.0,312.0,307.4,281.3,234.8,3452.8,3463.7,467.1,392.6,422.3,871.3,788.6,424.7,4.0,-27.0,-40.0,7656.0,-6978.0,-3869.0,12089.0,2289.0,-12.0,1054.0,-18.0,-21.0,8.0,5621.0,-4831.0,-6776.0,12945.0,1488.0,-517.0,-95.0,1.0
2022-05-08 18:12:33.893290-07:00,661.9,708.5,661.9,915.2,354.5,307.4,866.3,706.0,3471.0,3463.7,1069.5,685.6,543.4,3466.1,1091.2,796.0,3451.6,3445.5,374.7,299.0,313.6,306.7,279.8,233.3,3452.8,3463.7,467.1,392.6,423.1,889.0,872.1,427.8,20.0,54.0,-45.0,7659.0,-6666.0,-3178.0,12460.0,1406.0,-205.0,754.0,35.0,58.0,-18.0,5729.0,-4442.0,-6434.0,13209.0,1249.0,-419.0,-218.0,1.0
2022-05-08 18:12:33.894055-07:00,661.9,708.5,661.9,915.2,352.2,305.9,860.4,692.9,3471.0,3463.7,1069.5,685.6,553.8,3464.9,1107.8,792.7,3446.7,3441.9,373.9,295.9,313.6,306.7,279.8,233.3,3467.4,3463.7,469.5,400.4,423.1,889.0,872.1,427.8,-7.0,36.0,16.0,7684.0,-6394.0,-2684.0,12701.0,1272.0,-130.0,482.0,29.0,29.0,-10.0,5796.0,-4226.0,-6176.0,13373.0,574.0,-253.0,-47.0,1.0
2022-05-08 18:12:34.429249-07:00,659.5,705.2,676.6,918.6,352.2,305.9,860.4,692.9,3468.6,3467.4,1061.7,685.6,553.8,3464.9,1107.8,792.7,3446.7,3441.9,373.9,295.9,316.7,296.7,281.3,233.3,3467.4,3463.7,469.5,400.4,417.6,910.1,886.5,423.1,43.0,59.0,18.0,7648.0,-6235.0,-2373.0,12862.0,527.0,-68.0,359.0,19.0,39.0,1.0,5839.0,-4014.0,-5956.0,13518.0,310.0,-81.0,12.0,1.0
2022-05-08 18:12:34.431579-07:00,660.3,710.1,659.5,915.2,349.1,305.1,844.4,676.6,3468.6,3474.6,1061.7,686.4,553.8,3473.4,1166.5,796.9,3443.1,3452.8,375.5,302.8,311.3,306.7,281.3,238.6,3457.6,3463.7,462.4,398.1,423.9,925.4,878.0,423.9,-5.0,-26.0,-6.0,7609.0,-6192.0,-1994.0,12970.0,262.0,229.0,144.0,34.0,88.0,-27.0,5849.0,-3979.0,-5913.0,13544.0,12.0,27.0,15.0,1.0
2022-05-08 18:12:34.459743-07:00,660.3,711.0,673.3,927.9,349.1,305.1,844.4,672.5,3468.6,3471.0,1066.9,685.6,553.8,3473.4,1166.5,796.9,3450.4,3452.8,375.5,302.8,308.2,312.0,282.9,238.6,3463.7,3463.7,462.4,398.1,416.8,939.8,883.1,423.9,0.0,41.0,-22.0,7599.0,-6199.0,-1897.0,12987.0,31.0,38.0,84.0,-9.0,-4.0,-42.0,5856.0,-3951.0,-5898.0,13556.0,6.0,-44.0,-73.0,1.0
2022-05-08 18:12:34.460762-07:00,658.7,711.0,673.3,927.9,352.2,305.1,853.7,672.5,3464.9,3471.0,1066.9,685.6,550.6,3466.1,1211.5,796.9,3450.4,3443.1,374.7,299.7,308.2,312.0,282.9,239.3,3463.7,3467.4,460.0,398.9,416.8,939.8,883.1,421.5,51.0,-27.0,8.0,7584.0,-6175.0,-1875.0,13010.0,121.0,-31.0,70.0,-2.0,18.0,3.0,5865.0,-3920.0,-5867.0,13574.0,42.0,15.0,9.0,1.0
2022-05-08 18:12:34.729556-07:00,658.7,712.6,675.0,916.9,352.2,305.1,853.7,672.5,3464.9,3456.4,1068.6,679.1,550.6,3466.1,1211.5,803.5,3449.1,3443.1,374.7,299.7,324.4,310.5,281.3,239.3,3457.6,3467.4,460.0,398.9,420.0,947.5,867.1,421.5,0.0,24.0,22.0,7569.0,-6176.0,-1816.0,13027.0,32.0,71.0,125.0,-2.0,19.0,7.0,5835.0,-3900.0,-5863.0,13594.0,-32.0,3.0,-7.0,1.0
2022-05-08 18:12:35.119706-07:00,653.0,707.7,699.5,918.6,353.0,301.3,861.2,717.5,3473.4,3469.8,1059.1,693.8,553.0,3467.4,1258.7,801.9,3439.5,3445.5,376.3,299.7,317.4,309.0,280.6,238.6,3457.6,3464.9,454.5,396.5,422.3,936.4,847.8,425.5,-18.0,14.0,-32.0,7390.0,-6540.0,-1537.0,12988.0,-48.0,82.0,43.0,-7.0,-5.0,5.0,5839.0,-3913.0,-5886.0,13579.0,-108.0,44.0,-36.0,1.0
2022-05-08 18:12:35.122040-07:00,656.2,698.7,697.9,918.6,351.4,301.3,861.2,717.5,3466.1,3467.4,1057.3,693.8,552.2,3458.9,1258.7,801.9,3439.5,3445.5,373.2,297.4,317.4,307.4,281.3,237.1,3457.6,3464.9,461.6,391.8,422.3,946.6,843.6,432.5,-2.0,3.0,5.0,7368.0,-6582.0,-1548.0,12978.0,-132.0,85.0,9.0,-3.0,12.0,-4.0,5836.0,-3946.0,-5941.0,13547.0,-220.0,25.0,-27.0,1.0
2022-05-08 18:12:35.123013-07:00,656.2,698.7,697.9,929.6,351.4,301.3,876.4,715.1,3466.1,3467.4,1057.3,686.4,552.2,3463.7,1256.0,803.5,3450.4,3443.1,373.2,297.4,312.0,307.4,281.3,237.1,3471.0,3466.1,462.4,391.8,420.0,946.6,843.6,432.5,-1.0,28.0,-10.0,7372.0,-6638.0,-1606.0,12940.0,-215.0,62.0,-174.0,-3.0,31.0,0.0,5752.0,-4271.0,-6419.0,13263.0,-1055.0,202.0,-58.0,1.0
2022-05-08 18:12:35.123857-07:00,653.0,711.0,701.1,929.6,356.1,301.3,876.4,715.1,3463.7,3471.0,1063.4,686.4,549.0,3463.7,1256.0,803.5,3450.4,3443.1,373.2,302.0,312.0,308.2,279.0,235.5,3471.0,3466.1,462.4,397.3,420.0,944.1,839.4,431.7,7.0,45.0,-29.0,7432.0,-6847.0,-2131.0,12719.0,-861.0,-160.0,-699.0,-9.0,-45.0,19.0,5692.0,-4417.0,-6687.0,13108.0,-424.0,23.0,-9.0,1.0
2022-05-08 18:12:35.149003-07:00,656.2,699.5,701.1,919.4,352.2,306.7,911.8,718.4,3468.6,3460.1,1058.2,683.1,548.2,3461.3,1251.5,805.2,3449.1,3444.3,371.6,300.5,313.6,307.4,280.6,235.5,3462.5,3455.2,460.0,395.0,420.8,943.2,847.8,429.4,1.0,-149.0,42.0,7480.0,-6938.0,-2483.0,12577.0,-297.0,102.0,-112.0,-9.0,-45.0,19.0,5692.0,-4417.0,-6687.0,13108.0,-424.0,23.0,-9.0,1.0
2022-05-08 18:12:35.150002-07:00,656.2,699.5,701.1,919.4,352.2,306.7,911.8,718.4,3468.6,3460.1,1058.2,683.1,548.2,3461.3,1251.5,805.2,3449.1,3444.3,371.6,300.5,313.6,307.4,280.6,235.5,3462.5,3455.2,460.0,395.0,420.8,943.2,847.8,429.4,1.0,-149.0,42.0,7480.0,-6938.0,-2483.0,12577.0,-297.0,102.0,-112.0,-20.0,-8.0,-64.0,4864.0,-6250.0,-8729.0,11381.0,-1837.0,488.0,162.0,1.0
2022-05-08 18:12:35.208927-07:00,656.2,702.8,710.1,916.0,348.3,305.1,936.4,761.2,3464.9,3460.1,1050.4,680.7,552.2,3469.8,1248.0,805.2,3447.9,3444.3,377.8,294.4,315.1,304.3,278.3,233.3,3457.6,3469.8,461.6,397.3,422.3,936.4,832.7,444.3,62.0,-65.0,-25.0,7709.0,-8856.0,-4553.0,10481.0,-1536.0,524.0,-1132.0,-16.0,-24.0,-11.0,4643.0,-6594.0,-9099.0,10982.0,-1246.0,292.0,182.0,1.0
2022-05-08 18:12:35.240178-07:00,656.2,696.2,704.4,916.9,348.3,305.1,936.4,756.3,3464.9,3463.7,1056.5,685.6,552.2,3469.8,1248.0,801.9,3440.7,3444.3,377.8,294.4,313.6,305.1,281.3,233.3,3452.8,3469.8,461.6,397.3,420.8,933.0,823.5,444.3,-3.0,-98.0,-54.0,7724.0,-9140.0,-5043.0,9990.0,-977.0,394.0,-723.0,-10.0,5.0,-14.0,4520.0,-6753.0,-9270.0,10792.0,-578.0,75.0,95.0,1.0
2022-05-08 18:12:35.299551-07:00,657.9,696.2,704.4,916.9,355.3,298.2,923.7,756.3,3474.6,3463.7,1056.5,685.6,557.0,3460.1,1248.8,801.9,3440.7,3441.9,373.9,298.2,313.6,305.1,281.3,234.8,3452.8,3456.4,456.1,393.4,420.8,933.0,823.5,441.9,16.0,-43.0,-27.0,7731.0,-9304.0,-5294.0,9700.0,-417.0,301.0,-285.0,-5.0,-9.0,7.0,4451.0,-6836.0,-9366.0,10686.0,-178.0,55.0,15.0,1.0
2022-05-08 18:12:35.359023-07:00,657.9,696.2,702.8,923.7,355.3,298.2,923.7,749.6,3474.6,3473.4,1058.2,687.2,557.0,3460.1,1248.8,804.4,3446.7,3441.9,373.9,298.2,314.4,305.9,275.2,234.8,3463.7,3456.4,456.1,393.4,440.4,938.1,826.0,441.9,-10.0,-23.0,-9.0,7746.0,-9404.0,-5367.0,9550.0,-106.0,194.0,-109.0,-6.0,8.0,-5.0,4448.0,-6856.0,-9381.0,10661.0,7.0,10.0,-1.0,1.0
2022-05-08 18:12:35.419186-07:00,655.4,696.2,702.8,923.7,350.6,299.0,918.6,749.6,3462.5,3473.4,1058.2,687.2,550.6,3468.6,1253.3,804.4,3446.7,3444.3,381.7,299.7,314.4,305.9,275.2,236.3,3463.7,3451.6,455.3,394.2,440.4,938.1,826.0,441.2,5.0,3.0,-2.0,7776.0,-9433.0,-5359.0,9501.0,37.0,102.0,1.0,-10.0,-18.0,-2.0,4452.0,-6855.0,-9371.0,10668.0,58.0,-2.0,28.0,1.0
2022-05-08 18:12:35.478662-07:00,655.4,700.3,703.6,915.2,350.6,299.0,918.6,749.6,3462.5,3478.3,1059.1,685.6,550.6,3468.6,1253.3,801.9,3443.1,3444.3,381.7,299.7,311.3,309.0,282.1,236.3,3468.6,3451.6,455.3,394.2,422.3,934.7,823.5,441.2,-7.0,-23.0,0.0,7791.0,-9453.0,-5323.0,9489.0,35.0,82.0,56.0,-6.0,6.0,3.0,4464.0,-6854.0,-9341.0,10690.0,123.0,18.0,16.0,1.0
2022-05-08 18:12:35.508908-07:00,651.4,700.3,703.6,915.2,350.6,298.2,923.7,749.6,3477.1,3478.3,1059.1,685.6,546.6,3457.6,1244.4,801.9,3443.1,3454.0,380.2,299.0,311.3,309.0,282.1,236.3,3468.6,3469.8,454.5,393.4,422.3,934.7,823.5,440.4,-6.0,4.0,0.0,7792.0,-9467.0,-5281.0,9498.0,75.0,13.0,103.0,-9.0,6.0,-25.0,4484.0,-6850.0,-9306.0,10715.0,38.0,10.0,13.0,1.0
2022-05-08 18:12:35.629045-07:00,651.4,696.2,703.6,911.8,350.6,298.2,917.7,755.4,3477.1,3468.6,1052.2,679.1,546.6,3457.6,1252.4,804.4,3446.7,3444.3,380.2,299.0,311.3,308.2,277.5,236.3,3462.5,3462.5,454.5,393.4,422.3,932.2,820.2,440.4,15.0,17.0,-5.0,7789.0,-9470.0,-5237.0,9521.0,14.0,47.0,34.0,-8.0,-5.0,6.0,4484.0,-6856.0,-9303.0,10714.0,32.0,2.0,5.0,1.0
2022-05-08 18:12:35.631569-07:00,657.0,692.1,703.6,911.8,348.3,300.5,917.7,755.4,3471.0,3467.4,1052.2,679.1,549.8,3468.6,1252.4,804.4,3446.7,3444.3,377.0,295.1,311.3,308.2,279.8,240.1,3462.5,3462.5,453.7,391.8,422.3,932.2,818.5,436.4,-14.0,-8.0,-13.0,7794.0,-9488.0,-5222.0,9507.0,19.0,26.0,27.0,-3.0,8.0,-12.0,4492.0,-6851.0,-9289.0,10725.0,43.0,-6.0,-3.0,1.0
2022-05-08 18:12:35.632574-07:00,657.0,692.1,704.4,915.2,348.3,300.5,914.4,746.3,3471.0,3467.4,1048.7,681.5,549.8,3468.6,1246.2,806.9,3439.5,3449.1,377.0,295.1,311.3,312.0,279.8,240.1,3455.2,3462.5,453.7,391.8,416.8,931.3,818.5,436.4,12.0,5.0,8.0,7794.0,-9487.0,-5205.0,9519.0,26.0,17.0,32.0,-11.0,4.0,0.0,4495.0,-6848.0,-9283.0,10732.0,5.0,-7.0,-2.0,1.0
2022-05-08 18:12:35.689536-07:00,653.8,694.6,704.4,915.2,355.3,298.2,914.4,746.3,3464.9,3464.9,1048.7,681.5,543.4,3463.7,1246.2,806.9,3439.5,3449.1,377.0,295.9,311.3,312.0,279.0,233.3,3455.2,3462.5,451.4,391.8,416.8,931.3,816.9,439.6,-6.0,8.0,0.0,7797.0,-9494.0,-5190.0,9517.0,0.0,32.0,6.0,-9.0,0.0,0.0,4494.0,-6848.0,-9282.0,10732.0,8.0,0.0,2.0,1.0
2022-05-08 18:12:35.749611-07:00,653.8,694.6,699.5,917.7,355.3,298.2,911.8,752.1,3464.9,3464.9,1057.3,683.1,543.4,3463.7,1241.7,801.0,3451.6,3450.4,377.0,295.9,309.7,304.3,279.0,233.3,3468.6,3463.7,451.4,391.8,422.3,933.9,816.9,439.6,-10.0,0.0,-2.0,7796.0,-9497.0,-5188.0,9516.0,16.0,-27.0,2.0,-4.0,-5.0,-9.0,4494.0,-6847.0,-9279.0,10735.0,8.0,-12.0,-2.0,1.0
2022-05-08 18:12:35.808995-07:00,652.2,694.6,699.5,917.7,354.5,298.2,911.8,752.1,3473.4,3467.4,1057.3,683.1,550.6,3467.4,1241.7,801.0,3451.6,3450.4,373.9,298.2,309.7,304.3,281.3,236.3,3468.6,3463.7,454.5,391.8,422.3,933.9,811.0,449.8,5.0,-6.0,11.0,7797.0,-9492.0,-5187.0,9520.0,2.0,27.0,7.0,-10.0,-5.0,1.0,4492.0,-6845.0,-9279.0,10738.0,20.0,-17.0,9.0,1.0
2022-05-08 18:12:35.869137-07:00,652.2,694.6,700.3,921.1,354.5,300.5,920.3,748.0,3473.4,3467.4,1053.9,683.1,550.6,3467.4,1251.5,802.7,3451.6,3440.7,379.4,298.2,313.6,303.6,281.3,236.3,3466.1,3463.7,454.5,391.8,420.0,934.7,811.0,449.8,-11.0,-4.0,-2.0,7796.0,-9499.0,-5179.0,9519.0,2.0,11.0,32.0,5.0,5.0,-6.0,4495.0,-6834.0,-9268.0,10754.0,69.0,-30.0,-2.0,1.0
2022-05-08 18:12:35.898741-07:00,657.0,694.6,700.3,921.1,349.9,300.5,920.3,748.0,3461.3,3467.4,1058.2,683.1,557.0,3467.4,1251.5,802.7,3451.6,3440.7,379.4,299.7,313.6,302.8,276.7,235.5,3466.1,3463.7,454.5,398.9,420.0,932.2,811.9,436.4,10.0,4.0,9.0,7791.0,-9499.0,-5164.0,9531.0,54.0,4.0,58.0,-2.0,-2.0,-4.0,4502.0,-6819.0,-9251.0,10775.0,55.0,-18.0,-3.0,1.0
2022-05-08 18:12:35.988888-07:00,657.0,694.6,700.3,914.4,349.9,303.6,910.1,752.1,3461.3,3467.4,1058.2,687.2,557.0,3473.4,1239.1,799.4,3435.8,3431.0,377.0,299.7,314.4,302.8,276.7,235.5,3468.6,3449.1,456.9,398.9,417.6,932.2,811.9,436.4,0.0,6.0,6.0,7790.0,-9496.0,-5139.0,9549.0,23.0,-2.0,36.0,-10.0,-2.0,-2.0,4507.0,-6813.0,-9240.0,10786.0,33.0,-8.0,-2.0,1.0
2022-05-08 18:12:36.019425-07:00,659.5,688.0,697.0,914.4,353.0,303.6,910.1,752.1,3460.1,3475.9,1054.8,687.2,550.6,3473.4,1239.1,799.4,3435.8,3431.0,377.0,296.7,314.4,300.5,275.2,236.3,3468.6,3449.1,456.9,384.8,417.6,930.5,812.7,438.8,-5.0,0.0,3.0,7786.0,-9496.0,-5125.0,9559.0,11.0,9.0,37.0,-8.0,3.0,-6.0,4509.0,-6805.0,-9229.0,10799.0,40.0,-21.0,10.0,1.0
2022-05-08 18:12:36.049273-07:00,659.5,688.0,697.0,916.9,353.0,298.2,919.4,751.3,3460.1,3475.9,1054.8,683.1,550.6,3467.4,1245.3,801.9,3454.0,3447.9,377.8,296.7,315.9,300.5,275.2,236.3,3462.5,3463.7,455.3,384.8,418.4,930.5,812.7,438.8,-1.0,6.0,0.0,7782.0,-9497.0,-5109.0,9570.0,16.0,7.0,34.0,0.0,5.0,3.0,4508.0,-6800.0,-9225.0,10806.0,-1.0,-8.0,3.0,1.0
2022-05-08 18:12:36.079400-07:00,652.2,685.6,702.8,916.9,349.9,298.2,919.4,751.3,3464.9,3466.1,1056.5,683.1,546.6,3467.4,1245.3,801.9,3454.0,3447.9,377.8,297.4,315.9,304.3,277.5,228.7,3462.5,3463.7,455.3,392.6,418.4,933.9,807.7,442.7,-5.0,8.0,6.0,7781.0,-9500.0,-5100.0,9572.0,-11.0,7.0,1.0,-6.0,-1.0,0.0,4508.0,-6800.0,-9225.0,10806.0,1.0,0.0,0.0,1.0
2022-05-08 18:12:36.139492-07:00,652.2,685.6,702.8,922.0,349.9,295.9,913.5,749.6,3464.9,3466.1,1056.5,683.1,546.6,3457.6,1238.2,799.4,3446.7,3438.2,378.6,297.4,313.6,304.3,277.5,228.7,3458.9,3458.9,454.5,392.6,419.2,933.9,807.7,442.7,-11.0,1.0,-1.0,7781.0,-9500.0,-5101.0,9571.0,1.0,-5.0,-12.0,-5.0,0.0,-6.0,4507.0,-6801.0,-9225.0,10806.0,10.0,-1.0,0.0,1.0
2022-05-08 18:12:36.198518-07:00,657.9,692.1,697.0,911.8,356.1,295.9,913.5,749.6,3466.1,3461.3,1056.5,686.4,547.4,3457.6,1238.2,799.4,3446.7,3438.2,378.6,296.7,315.1,302.0,279.0,238.6,3458.9,3458.9,454.5,387.9,420.8,933.0,811.0,439.6,0.0,5.0,4.0,7783.0,-9499.0,-5100.0,9571.0,2.0,17.0,2.0,-5.0,0.0,-4.0,4506.0,-6800.0,-9224.0,10807.0,18.0,-12.0,1.0,1.0
2022-05-08 18:12:36.229333-07:00,657.9,692.1,697.0,911.8,351.4,300.5,916.0,744.7,3466.1,3461.3,1056.5,686.4,553.8,3468.6,1243.5,800.2,3449.1,3450.4,371.6,300.5,315.1,302.0,279.0,238.6,3468.6,3462.5,451.4,389.5,420.8,933.0,811.0,439.6,1.0,-3.0,4.0,7783.0,-9501.0,-5100.0,9570.0,20.0,15.0,13.0,-5.0,-1.0,0.0,4507.0,-6794.0,-9219.0,10816.0,37.0,-12.0,-6.0,1.0
2022-05-08 18:12:36.289493-07:00,649.7,691.3,694.6,916.9,351.4,300.5,916.0,744.7,3474.6,3478.3,1047.0,684.0,553.8,3468.6,1243.5,800.2,3449.1,3450.4,371.6,300.5,311.3,305.9,276.0,234.0,3468.6,3462.5,451.4,389.5,423.9,933.0,811.9,438.8,-8.0,0.0,-13.0,7785.0,-9500.0,-5091.0,9574.0,41.0,-30.0,19.0,-12.0,-15.0,10.0,4536.0,-6758.0,-9173.0,10865.0,401.0,-74.0,-32.0,1.0
2022-05-08 18:12:36.408951-07:00,649.7,691.3,694.6,916.9,352.2,300.5,915.2,748.0,3474.6,3478.3,1047.0,684.0,548.2,3466.1,1239.1,797.7,3447.9,3443.1,378.6,292.8,311.3,305.9,276.0,234.0,3462.5,3466.1,451.4,392.6,423.9,933.0,811.9,438.8,-9.0,-86.0,-23.0,7780.0,-9466.0,-5058.0,9629.0,374.0,-171.0,327.0,-23.0,-52.0,-4.0,4654.0,-6570.0,-8932.0,11127.0,1347.0,-346.0,-18.0,1.0
2022-05-08 18:12:36.411397-07:00,659.5,692.1,696.2,918.6,352.2,300.5,915.2,748.0,3469.8,3471.0,1055.6,684.8,548.2,3466.1,1239.1,797.7,3447.9,3443.1,378.6,292.8,313.6,303.6,277.5,230.2,3462.5,3466.1,451.4,392.6,420.0,938.1,811.9,445.9,-8.0,-137.0,-74.0,7744.0,-9357.0,-4799.0,9894.0,1023.0,-435.0,1004.0,-8.0,-8.0,0.0,4837.0,-6274.0,-8520.0,11536.0,2303.0,-416.0,31.0,1.0
2022-05-08 18:12:36.439352-07:00,659.5,692.1,696.2,918.6,354.5,301.3,917.7,750.5,3469.8,3471.0,1055.6,684.8,549.8,3467.4,1246.2,804.4,3452.8,3454.0,378.6,292.8,313.6,303.6,277.5,230.2,3468.6,3466.1,450.6,391.1,420.0,938.1,811.9,445.9,30.0,-11.0,-99.0,7692.0,-9010.0,-4296.0,10471.0,1893.0,-1057.0,1259.0,-5.0,16.0,-72.0,5142.0,-5753.0,-7815.0,12159.0,2760.0,-709.0,-150.0,1.0
2022-05-08 18:12:36.649744-07:00,649.7,690.5,694.6,918.6,354.5,301.3,917.7,745.5,3463.7,3467.4,1054.8,687.2,549.8,3467.4,1246.2,797.7,3457.6,3454.0,378.6,292.8,314.4,305.9,278.3,235.5,3464.9,3466.1,450.6,391.1,416.8,933.0,811.0,440.4,93.0,-15.0,-22.0,7718.0,-8417.0,-3595.0,11184.0,2495.0,-818.0,1276.0,0.0,56.0,-33.0,5437.0,-5104.0,-7080.0,12755.0,2020.0,-622.0,-162.0,1.0
2022-05-08 18:12:36.651608-07:00,646.5,690.5,694.6,918.6,350.6,300.5,914.4,745.5,3457.6,3467.4,1054.8,687.2,553.8,3471.0,1231.9,797.7,3457.6,3449.1,380.9,294.4,314.4,305.9,278.3,236.3,3464.9,3466.1,453.0,392.6,416.8,933.0,811.0,436.4,6.0,153.0,-38.0,7780.0,-7800.0,-2819.0,11795.0,1615.0,-936.0,855.0,5.0,74.0,-24.0,5573.0,-4675.0,-6674.0,13076.0,853.0,-490.0,-129.0,1.0
2022-05-08 18:12:36.652853-07:00,646.5,688.9,694.6,914.4,350.6,300.5,914.4,738.1,3457.6,3464.9,1057.3,680.7,553.8,3471.0,1231.9,796.9,3450.4,3449.1,380.9,294.4,315.1,302.0,273.7,236.3,3456.4,3466.1,453.0,392.6,417.6,932.2,811.0,436.4,57.0,27.0,112.0,7762.0,-7372.0,-2475.0,12154.0,677.0,-210.0,533.0,-1.0,-1.0,79.0,5627.0,-4435.0,-6427.0,13259.0,911.0,-283.0,67.0,1.0
2022-05-08 18:12:36.653830-07:00,649.7,688.9,694.6,914.4,353.0,295.1,910.1,738.1,3466.1,3464.9,1057.3,680.7,543.4,3468.6,1225.7,796.9,3450.4,3440.7,380.9,295.9,315.1,302.0,273.7,233.3,3456.4,3462.5,456.1,391.1,417.6,932.2,811.0,437.2,-82.0,16.0,5.0,7690.0,-7225.0,-2162.0,12346.0,733.0,-267.0,611.0,12.0,116.0,-49.0,5645.0,-4260.0,-6252.0,13392.0,102.0,-51.0,41.0,1.0
2022-05-08 18:12:36.708580-07:00,649.7,694.6,690.5,918.6,353.0,295.1,910.1,736.5,3466.1,3469.8,1056.5,682.3,543.4,3468.6,1225.7,797.7,3445.5,3440.7,380.9,295.9,315.1,305.1,276.7,233.3,3464.9,3462.5,456.1,391.1,421.5,927.1,804.4,437.2,60.0,124.0,-2.0,7638.0,-7064.0,-1961.0,12504.0,185.0,-122.0,240.0,7.0,11.0,15.0,5647.0,-4216.0,-6215.0,13422.0,191.0,-101.0,-28.0,1.0
2022-05-08 18:12:36.768958-07:00,654.6,694.6,690.5,918.6,348.3,302.0,907.6,736.5,3477.1,3469.8,1056.5,682.3,550.6,3473.4,1219.5,797.7,3445.5,3434.6,377.8,301.3,315.1,305.1,276.7,232.5,3464.9,3456.4,453.7,392.6,421.5,927.1,804.4,438.0,8.0,9.0,18.0,7612.0,-7016.0,-1921.0,12553.0,154.0,-151.0,90.0,6.0,9.0,12.0,5664.0,-4145.0,-6165.0,13460.0,172.0,-93.0,-32.0,1.0
2022-05-08 18:12:37.518697-07:00,654.6,694.6,694.6,919.4,348.3,302.0,907.6,731.5,3477.1,3460.1,1047.0,686.4,550.6,3473.4,1219.5,796.9,3449.1,3434.6,377.8,301.3,309.7,305.9,279.8,232.5,3461.3,3456.4,453.7,392.6,415.3,932.2,801.9,438.0,-5.0,18.0,0.0,7621.0,-6947.0,-1855.0,12596.0,204.0,-53.0,77.0,-4.0,-26.0,0.0,5665.0,-4121.0,-6156.0,13471.0,-2.0,-32.0,7.0,1.0
2022-05-08 18:12:37.549087-07:00,654.6,685.6,694.6,919.4,353.0,302.8,906.7,731.5,3478.3,3475.9,1047.0,686.4,548.2,3462.5,1220.4,796.9,3449.1,3443.1,377.0,295.9,309.7,305.9,281.3,235.5,3461.3,3463.7,450.6,391.8,415.3,932.2,805.2,438.8,10.0,-18.0,13.0,7615.0,-6897.0,-1853.0,12627.0,0.0,-146.0,-9.0,0.0,-6.0,3.0,5658.0,-4097.0,-6160.0,13480.0,-1.0,-52.0,-7.0,1.0
2022-05-08 18:12:37.551130-07:00,654.6,685.6,690.5,916.0,353.0,302.8,904.2,734.8,3478.3,3475.9,1048.7,679.1,548.2,3462.5,1216.8,797.7,3446.7,3449.1,377.0,295.9,311.3,303.6,281.3,235.5,3455.2,3462.5,450.6,391.8,420.8,933.0,805.2,438.8,5.0,-3.0,3.0,7625.0,-6853.0,-1871.0,12642.0,13.0,-78.0,-29.0,-5.0,15.0,9.0,5655.0,-4072.0,-6158.0,13489.0,0.0,-38.0,-7.0,1.0
2022-05-08 18:12:37.552586-07:00,656.2,693.8,690.5,916.0,354.5,301.3,904.2,734.8,3468.6,3468.6,1048.7,679.1,550.6,3464.9,1216.8,797.7,3446.7,3449.1,376.3,305.9,311.3,303.6,279.0,234.8,3455.2,3462.5,456.1,389.5,420.8,933.0,804.4,440.4,1.0,8.0,-4.0,7642.0,-6807.0,-1884.0,12655.0,22.0,-149.0,-59.0,-2.0,3.0,23.0,5648.0,-4059.0,-6165.0,13492.0,20.0,-35.0,-11.0,1.0
2022-05-08 18:12:37.553555-07:00,656.2,693.8,693.8,918.6,354.5,301.3,905.9,741.4,3468.6,3468.6,1043.5,681.5,550.6,3464.9,1221.3,797.7,3449.1,3441.9,376.3,305.9,315.1,303.6,279.0,234.8,3468.6,3461.3,456.1,389.5,421.5,931.3,804.4,440.4,-7.0,13.0,13.0,7653.0,-6768.0,-1909.0,12666.0,43.0,-56.0,-18.0,-5.0,0.0,0.0,5671.0,-4074.0,-6285.0,13423.0,24.0,-5.0,-19.0,1.0
2022-05-08 18:12:37.669101-07:00,654.6,687.2,693.8,918.6,353.0,298.2,905.9,741.4,3469.8,3473.4,1043.5,681.5,548.2,3473.4,1221.3,797.7,3449.1,3441.9,380.2,302.0,315.1,303.6,278.3,234.8,3468.6,3461.3,449.8,385.6,421.5,931.3,797.7,439.6,9.0,-4.0,2.0,7762.0,-6609.0,-2181.0,12639.0,29.0,-23.0,-35.0,-5.0,0.0,0.0,5671.0,-4074.0,-6285.0,13423.0,24.0,-5.0,-19.0,1.0
2022-05-08 18:12:37.759066-07:00,654.6,687.2,693.8,918.6,353.0,298.2,905.9,741.4,3469.8,3473.4,1043.5,681.5,548.2,3473.4,1221.3,797.7,3449.1,3441.9,380.2,302.0,315.1,303.6,278.3,234.8,3468.6,3461.3,449.8,385.6,421.5,931.3,797.7,439.6,9.0,-4.0,2.0,7762.0,-6609.0,-2181.0,12639.0,29.0,-23.0,-35.0,-9.0,2.0,-3.0,5688.0,-4069.0,-6280.0,13420.0,-2.0,-5.0,-12.0,1.0
2022-05-08 18:12:37.760370-07:00,655.4,687.2,690.5,919.4,351.4,302.8,905.9,745.5,3462.5,3464.9,1040.9,678.2,548.2,3463.7,1206.2,805.2,3444.3,3455.2,377.0,299.0,311.3,304.3,275.2,236.3,3450.4,3462.5,449.0,395.0,423.9,919.4,803.5,432.5,5.0,0.0,7.0,7770.0,-6581.0,-2201.0,12646.0,1.0,-33.0,-15.0,-5.0,-2.0,6.0,5690.0,-4069.0,-6278.0,13420.0,22.0,1.0,-4.0,1.0
2022-05-08 18:12:37.761372-07:00,655.4,687.2,690.5,919.4,352.2,302.0,900.0,724.9,3462.5,3464.9,1040.9,678.2,550.6,3467.4,1214.2,797.7,3438.2,3450.4,377.0,298.2,311.3,304.3,275.2,236.3,3460.1,3452.8,453.7,393.4,423.9,919.4,803.5,432.5,-2.0,-7.0,8.0,7773.0,-6579.0,-2202.0,12644.0,16.0,16.0,12.0,-3.0,6.0,-9.0,5693.0,-4073.0,-6273.0,13420.0,-2.0,29.0,-13.0,1.0
2022-05-08 18:12:37.788699-07:00,655.4,687.2,690.5,916.9,352.2,302.0,900.0,724.9,3469.8,3473.4,1041.8,679.9,550.6,3467.4,1214.2,797.7,3438.2,3450.4,377.0,298.2,315.9,304.3,281.3,238.6,3460.1,3452.8,453.7,393.4,413.7,923.7,793.5,427.8,13.0,4.0,1.0,7770.0,-6574.0,-2202.0,12649.0,-4.0,-29.0,6.0,-6.0,-2.0,0.0,5701.0,-4078.0,-6271.0,13416.0,2.0,6.0,-18.0,1.0
2022-05-08 18:12:37.791389-07:00,649.7,687.2,690.5,916.9,348.3,297.4,898.3,729.9,3478.3,3473.4,1041.8,679.9,552.2,3471.0,1203.5,800.2,3443.1,3445.5,378.6,295.9,315.9,304.3,281.3,231.7,3461.3,3457.6,468.7,390.3,413.7,923.7,793.5,427.8,8.0,-5.0,3.0,7774.0,-6572.0,-2205.0,12647.0,6.0,1.0,-22.0,-9.0,-1.0,11.0,5708.0,-4085.0,-6273.0,13409.0,-2.0,13.0,-19.0,1.0
2022-05-08 18:12:38.358673-07:00,649.7,688.9,692.9,919.4,348.3,297.4,898.3,733.2,3478.3,3460.1,1047.0,682.3,552.2,3471.0,1203.5,796.9,3446.7,3445.5,378.6,295.9,318.2,302.8,276.7,231.7,3469.8,3457.6,468.7,390.3,416.8,917.7,791.0,427.8,0.0,-3.0,-4.0,7781.0,-6575.0,-2211.0,12640.0,-6.0,-8.0,-17.0,-7.0,-9.0,3.0,5715.0,-4091.0,-6274.0,13405.0,-18.0,47.0,-13.0,1.0
2022-05-08 18:12:38.359900-07:00,653.0,688.9,692.9,919.4,353.7,302.0,905.9,733.2,3468.6,3460.1,1047.0,682.3,547.4,3467.4,1208.9,796.9,3446.7,3441.9,375.5,302.8,318.2,302.8,276.7,234.8,3469.8,3466.1,452.2,391.1,416.8,917.7,791.0,430.2,1.0,-11.0,0.0,7776.0,-6580.0,-2211.0,12641.0,-19.0,5.0,24.0,-7.0,8.0,0.0,5721.0,-4098.0,-6272.0,13401.0,-2.0,10.0,-8.0,1.0
2022-05-08 18:12:38.360883-07:00,653.0,688.0,685.6,919.4,353.7,302.0,905.9,729.9,3468.6,3464.9,1055.6,684.0,547.4,3467.4,1208.9,801.9,3441.9,3441.9,375.5,302.8,311.3,299.0,272.9,234.8,3460.1,3466.1,452.2,391.1,421.5,922.0,794.4,430.2,0.0,4.0,-2.0,7771.0,-6581.0,-2211.0,12643.0,-1.0,-5.0,-7.0,-9.0,2.0,11.0,5727.0,-4098.0,-6276.0,13396.0,-17.0,5.0,-22.0,1.0
2022-05-08 18:12:38.389179-07:00,653.0,688.0,685.6,919.4,348.3,299.0,900.8,729.9,3474.6,3464.9,1055.6,684.0,549.0,3475.9,1206.2,801.9,3441.9,3445.5,376.3,297.4,311.3,299.0,272.9,235.5,3460.1,3468.6,447.4,391.8,421.5,922.0,794.4,433.3,-6.0,2.0,-2.0,7777.0,-6571.0,-2222.0,12643.0,-5.0,-43.0,-27.0,-6.0,-4.0,-7.0,5737.0,-4101.0,-6277.0,13391.0,-7.0,27.0,-24.0,1.0
2022-05-08 18:12:38.390416-07:00,653.0,687.2,686.4,917.7,348.3,299.0,900.8,724.9,3474.6,3468.6,1046.1,679.1,549.0,3475.9,1206.2,802.7,3444.3,3445.5,376.3,297.4,313.6,305.9,273.7,235.5,3458.9,3468.6,447.4,391.8,424.7,920.3,792.7,433.3,11.0,-6.0,11.0,7775.0,-6550.0,-2233.0,12653.0,-5.0,-30.0,1.0,-11.0,-1.0,5.0,5741.0,-4111.0,-6277.0,13386.0,4.0,16.0,9.0,1.0
2022-05-08 18:12:38.391839-07:00,652.2,687.2,686.4,917.7,349.1,296.7,900.0,724.9,3473.4,3468.6,1046.1,679.1,549.0,3469.8,1202.7,802.7,3444.3,3439.5,373.2,299.7,313.6,305.9,273.7,237.8,3458.9,3468.6,445.9,393.4,424.7,920.3,792.7,430.9,-2.0,-6.0,0.0,7767.0,-6566.0,-2229.0,12650.0,-10.0,56.0,26.0,-11.0,-1.0,5.0,5741.0,-4111.0,-6277.0,13386.0,4.0,16.0,9.0,1.0
2022-05-08 18:12:38.392501-07:00,652.2,687.2,686.4,917.7,349.1,296.7,900.0,724.9,3473.4,3468.6,1046.1,679.1,549.0,3469.8,1202.7,802.7,3444.3,3439.5,373.2,299.7,313.6,305.9,273.7,237.8,3458.9,3468.6,445.9,393.4,424.7,920.3,792.7,430.9,-2.0,-6.0,0.0,7767.0,-6566.0,-2229.0,12650.0,-10.0,56.0,26.0,-26.0,-24.0,-52.0,5489.0,-5680.0,-7864.0,12009.0,-2244.0,507.0,226.0,1.0
2022-05-08 18:12:38.478991-07:00,651.4,699.5,687.2,924.5,354.5,318.2,903.4,726.6,3464.9,3478.3,1075.6,683.1,547.4,3460.1,1198.2,786.9,3451.6,3444.3,377.0,295.9,311.3,300.5,276.7,234.8,3458.9,3473.4,458.5,391.8,414.5,920.3,856.2,432.5,-6.0,-7.0,-55.0,7571.0,-7900.0,-4399.0,11373.0,-2304.0,244.0,-1088.0,0.0,35.0,-55.0,5217.0,-6143.0,-8367.0,11553.0,-1713.0,409.0,215.0,1.0
2022-05-08 18:12:38.480224-07:00,658.7,710.1,680.7,924.5,354.5,318.2,903.4,726.6,3460.1,3475.9,1082.5,683.1,550.6,3460.1,1198.2,786.9,3451.6,3444.3,377.0,294.4,311.3,304.3,282.1,230.2,3458.9,3473.4,458.5,395.7,414.5,906.7,846.1,427.0,-2.0,-19.0,-39.0,7527.0,-8192.0,-5091.0,10898.0,-1556.0,199.0,-957.0,-23.0,-45.0,-33.0,4971.0,-6515.0,-8780.0,11144.0,-1496.0,327.0,148.0,1.0
2022-05-08 18:12:38.570046-07:00,658.7,710.1,680.7,914.4,354.5,315.9,906.7,724.9,3460.1,3475.9,1082.5,682.3,550.6,3460.1,1177.0,798.5,3452.8,3449.1,370.0,294.4,316.7,304.3,282.1,230.2,3473.4,3467.4,471.1,395.7,419.2,906.7,846.1,427.0,18.0,-89.0,-18.0,7486.0,-8396.0,-5674.0,10474.0,-1244.0,179.0,-858.0,-46.0,-92.0,28.0,4804.0,-6753.0,-9046.0,10859.0,-857.0,188.0,115.0,1.0
2022-05-08 18:12:38.571323-07:00,670.9,733.2,677.4,914.4,356.1,315.9,906.7,724.9,3475.9,3467.4,1059.9,682.3,552.2,3460.1,1177.0,798.5,3452.8,3449.1,370.0,302.8,316.7,300.5,280.6,234.8,3473.4,3467.4,471.1,388.7,419.2,894.1,784.4,427.8,-16.0,-92.0,-30.0,7480.0,-8534.0,-6015.0,10173.0,-713.0,133.0,-405.0,-16.0,-18.0,-25.0,4717.0,-6867.0,-9178.0,10714.0,-309.0,78.0,39.0,1.0
2022-05-08 18:12:38.630123-07:00,670.9,733.2,677.4,919.4,356.1,307.4,897.4,724.1,3475.9,3467.4,1059.9,685.6,552.2,3474.6,1160.3,795.2,3454.0,3444.3,377.0,302.8,315.9,300.5,280.6,234.8,3469.8,3468.6,474.3,388.7,425.5,894.1,784.4,427.8,7.0,-49.0,-17.0,7448.0,-8612.0,-6154.0,10046.0,-270.0,95.0,-96.0,-7.0,14.0,-10.0,4687.0,-6900.0,-9222.0,10668.0,-122.0,1.0,-6.0,1.0
2022-05-08 18:12:38.688959-07:00,665.2,752.1,673.3,919.4,348.3,307.4,897.4,724.1,3472.2,3463.7,1059.1,685.6,545.0,3474.6,1160.3,795.2,3454.0,3444.3,377.0,297.4,315.9,305.1,281.3,237.8,3469.8,3468.6,474.3,394.2,425.5,892.4,765.3,430.2,6.0,15.0,-27.0,7435.0,-8638.0,-6203.0,10003.0,-107.0,-7.0,-57.0,-9.0,-11.0,0.0,4674.0,-6901.0,-9244.0,10654.0,-6.0,-30.0,-26.0,1.0
2022-05-08 18:12:38.719468-07:00,665.2,752.1,673.3,916.9,348.3,305.9,896.6,724.9,3472.2,3463.7,1059.1,684.0,550.6,3466.1,1148.9,796.9,3454.0,3444.3,379.4,293.6,319.7,305.1,281.3,237.8,3467.4,3454.0,473.5,385.6,421.5,892.4,765.3,430.2,-12.0,-9.0,-3.0,7427.0,-8622.0,-6228.0,10008.0,27.0,-85.0,-18.0,-10.0,12.0,3.0,4673.0,-6883.0,-9246.0,10664.0,24.0,-36.0,-31.0,1.0
2022-05-08 18:12:38.779261-07:00,666.0,742.2,662.7,916.9,348.3,305.9,896.6,724.9,3469.8,3467.4,1055.6,679.1,550.6,3466.1,1148.9,796.9,3454.0,3444.3,379.4,293.6,312.8,302.8,274.4,231.7,3467.4,3454.0,473.5,385.6,418.4,883.1,750.5,436.4,-13.0,8.0,0.0,7428.0,-8589.0,-6230.0,10033.0,47.0,-73.0,-18.0,-8.0,-13.0,10.0,4671.0,-6876.0,-9258.0,10660.0,-37.0,0.0,-5.0,1.0
2022-05-08 18:12:38.838855-07:00,666.0,742.2,662.7,916.9,355.3,305.9,891.5,723.3,3469.8,3467.4,1055.6,679.1,549.0,3457.6,1147.1,796.9,3446.7,3438.2,373.2,299.7,312.8,302.8,274.4,231.7,3458.9,3461.3,468.7,391.8,418.4,883.1,750.5,436.4,-14.0,-8.0,17.0,7424.0,-8581.0,-6245.0,10035.0,-30.0,-8.0,-5.0,-5.0,-3.0,18.0,4669.0,-6876.0,-9255.0,10663.0,34.0,9.0,11.0,1.0
2022-05-08 18:12:38.869057-07:00,671.7,736.5,669.3,918.6,355.3,305.9,891.5,723.3,3467.4,3473.4,1050.4,685.6,549.0,3457.6,1147.1,796.9,3446.7,3438.2,373.2,299.7,311.3,302.8,280.6,238.6,3458.9,3461.3,468.7,391.8,421.5,879.7,745.5,427.8,-21.0,0.0,13.0,7425.0,-8582.0,-6231.0,10042.0,50.0,-1.0,13.0,-6.0,12.0,-20.0,4671.0,-6882.0,-9251.0,10662.0,-53.0,23.0,-17.0,1.0
2022-05-08 18:12:38.959701-07:00,671.7,736.5,669.3,918.6,349.9,299.0,892.4,715.1,3467.4,3473.4,1050.4,685.6,550.6,3467.4,1139.2,796.0,3444.3,3445.5,377.0,296.7,311.3,302.8,280.6,238.6,3469.8,3466.1,469.5,388.7,421.5,879.7,745.5,427.8,20.0,12.0,-3.0,7424.0,-8572.0,-6244.0,10043.0,-38.0,-21.0,-51.0,-4.0,-7.0,2.0,4669.0,-6887.0,-9263.0,10648.0,3.0,6.0,-4.0,1.0
2022-05-08 18:12:39.019006-07:00,668.4,739.7,675.8,927.1,349.9,299.0,892.4,715.1,3475.9,3462.5,1044.4,688.9,550.6,3467.4,1139.2,796.0,3444.3,3445.5,377.0,296.7,319.7,303.6,279.8,238.6,3469.8,3466.1,469.5,388.7,417.6,874.7,733.2,423.9,-11.0,-14.0,-5.0,7432.0,-8577.0,-6251.0,10028.0,9.0,-10.0,-2.0,-4.0,10.0,-10.0,4670.0,-6884.0,-9260.0,10653.0,27.0,-20.0,1.0,1.0
2022-05-08 18:12:39.020484-07:00,668.4,739.7,675.8,927.1,353.0,312.0,889.0,720.8,3475.9,3462.5,1044.4,688.9,543.4,3469.8,1133.1,794.4,3447.9,3445.5,371.6,295.1,319.7,303.6,279.8,238.6,3463.7,3466.1,464.8,395.0,417.6,874.7,733.2,423.9,2.0,3.0,-3.0,7425.0,-8573.0,-6248.0,10039.0,18.0,-20.0,26.0,-1.0,-1.0,3.0,4666.0,-6878.0,-9260.0,10658.0,14.0,-23.0,6.0,1.0
2022-05-08 18:12:39.079509-07:00,673.3,731.5,661.1,914.4,353.0,312.0,889.0,713.4,3466.1,3464.9,1048.7,685.6,543.4,3469.8,1133.1,792.7,3447.9,3445.5,371.6,295.1,315.9,300.5,279.8,233.3,3468.6,3466.1,464.8,395.0,420.8,878.9,729.9,424.7,-5.0,0.0,8.0,7417.0,-8567.0,-6253.0,10046.0,17.0,-39.0,9.0,-14.0,-6.0,6.0,4667.0,-6869.0,-9253.0,10670.0,41.0,-13.0,5.0,1.0
2022-05-08 18:12:39.138908-07:00,679.1,731.5,661.1,914.4,349.9,305.1,885.6,713.4,3464.9,3464.9,1048.7,685.6,543.4,3464.9,1125.2,792.7,3447.9,3440.7,373.2,296.7,315.9,300.5,279.8,239.3,3468.6,3475.9,475.0,385.6,420.8,878.9,729.9,428.6,-9.0,0.0,12.0,7416.0,-8554.0,-6242.0,10065.0,41.0,-3.0,27.0,-6.0,7.0,-3.0,4673.0,-6864.0,-9238.0,10684.0,39.0,-9.0,11.0,1.0
2022-05-08 18:12:39.198704-07:00,679.1,738.9,659.5,916.9,349.9,305.1,885.6,715.9,3464.9,3464.9,1050.4,687.2,543.4,3464.9,1125.2,796.0,3437.0,3440.7,373.2,296.7,313.6,303.6,274.4,239.3,3464.9,3475.9,475.0,385.6,423.9,873.8,725.8,428.6,-3.0,13.0,-1.0,7420.0,-8544.0,-6227.0,10080.0,46.0,-11.0,-3.0,-5.0,-1.0,-5.0,4675.0,-6863.0,-9236.0,10685.0,-12.0,3.0,-10.0,1.0
2022-05-08 18:12:39.229066-07:00,670.1,738.9,659.5,916.9,360.0,302.0,881.4,715.9,3469.8,3464.9,1050.4,687.2,549.0,3464.9,1125.2,796.0,3437.0,3444.3,377.8,293.6,313.6,303.6,274.4,234.8,3464.9,3464.9,469.5,402.0,423.9,873.8,725.8,423.1,-2.0,-1.0,3.0,7433.0,-8536.0,-6227.0,10078.0,8.0,7.0,-29.0,-8.0,-4.0,3.0,4673.0,-6864.0,-9238.0,10684.0,5.0,5.0,0.0,1.0
2022-05-08 18:12:39.319030-07:00,670.1,734.0,658.7,926.2,360.0,302.0,881.4,711.8,3469.8,3462.5,1046.1,685.6,549.0,3464.9,1125.2,796.9,3443.1,3444.3,377.8,293.6,311.3,299.0,279.8,234.8,3457.6,3464.9,469.5,402.0,418.4,875.5,729.0,423.1,-14.0,-6.0,0.0,7433.0,-8536.0,-6227.0,10077.0,9.0,-12.0,15.0,-5.0,-1.0,-6.0,4673.0,-6865.0,-9236.0,10685.0,-8.0,-7.0,0.0,1.0
2022-05-08 18:12:39.320466-07:00,665.2,734.0,658.7,926.2,351.4,302.0,885.6,711.8,3469.8,3462.5,1046.1,685.6,543.4,3467.4,1120.9,796.9,3443.1,3445.5,378.6,293.6,311.3,299.0,279.8,235.5,3457.6,3468.6,467.9,382.5,418.4,875.5,729.0,428.6,6.0,8.0,-1.0,7428.0,-8532.0,-6228.0,10083.0,-20.0,-12.0,-4.0,-6.0,1.0,0.0,4669.0,-6861.0,-9239.0,10686.0,10.0,-19.0,-2.0,1.0
2022-05-08 18:12:39.379307-07:00,665.2,731.5,656.2,911.8,351.4,302.0,878.9,713.4,3469.8,3461.3,1053.0,692.9,543.4,3467.4,1125.2,796.0,3444.3,3443.1,378.6,293.6,316.7,299.0,277.5,235.5,3457.6,3457.6,467.9,382.5,423.9,875.5,723.3,428.6,-3.0,-1.0,2.0,7426.0,-8529.0,-6231.0,10086.0,9.0,-13.0,11.0,-4.0,-4.0,1.0,4666.0,-6859.0,-9241.0,10688.0,-10.0,-7.0,4.0,1.0
2022-05-08 18:12:39.469121-07:00,671.7,734.0,656.2,911.8,352.2,308.2,878.9,713.4,3469.8,3478.3,1053.0,692.9,545.8,3466.1,1125.2,796.0,3444.3,3443.1,373.2,299.0,316.7,299.0,280.6,231.7,3457.6,3457.6,471.1,392.6,423.9,875.5,727.4,423.1,-5.0,2.0,5.0,7419.0,-8531.0,-6232.0,10089.0,-9.0,-20.0,5.0,-7.0,0.0,-2.0,4665.0,-6859.0,-9241.0,10688.0,1.0,-4.0,-4.0,1.0
2022-05-08 18:12:39.470463-07:00,671.7,734.0,662.7,916.0,352.2,308.2,880.6,713.4,3469.8,3478.3,1050.4,685.6,545.8,3466.1,1120.0,794.4,3447.9,3438.2,373.2,299.0,315.9,300.5,280.6,231.7,3467.4,3469.8,471.1,392.6,421.5,880.6,727.4,423.1,-2.0,2.0,9.0,7416.0,-8524.0,-6235.0,10095.0,11.0,-21.0,-8.0,-10.0,-5.0,0.0,4663.0,-6860.0,-9243.0,10686.0,-1.0,9.0,8.0,1.0
2022-05-08 18:12:39.529021-07:00,674.2,736.5,662.7,916.0,350.6,303.6,880.6,713.4,3468.6,3474.6,1050.4,685.6,549.0,3473.4,1120.0,794.4,3447.9,3438.2,375.5,297.4,315.9,300.5,277.5,231.0,3467.4,3469.8,464.8,391.1,421.5,880.6,720.8,428.6,-8.0,-9.0,7.0,7414.0,-8526.0,-6236.0,10094.0,-14.0,11.0,11.0,-5.0,-4.0,-3.0,4662.0,-6861.0,-9240.0,10689.0,16.0,3.0,8.0,1.0
2022-05-08 18:12:39.589635-07:00,674.2,736.5,664.4,917.7,350.6,303.6,877.2,713.4,3468.6,3474.6,1045.2,680.7,549.0,3473.4,1117.4,794.4,3438.2,3443.1,375.5,297.4,315.9,304.3,277.5,231.0,3463.7,3456.4,464.8,391.1,423.9,876.4,720.8,428.6,0.0,-3.0,7.0,7407.0,-8530.0,-6234.0,10097.0,15.0,-3.0,14.0,-2.0,1.0,-3.0,4664.0,-6861.0,-9237.0,10690.0,1.0,11.0,-5.0,1.0
2022-05-08 18:12:39.619477-07:00,673.3,738.9,664.4,917.7,351.4,305.9,877.2,713.4,3467.4,3478.3,1045.2,680.7,552.2,3469.8,1117.4,794.4,3438.2,3443.1,377.0,295.9,315.9,304.3,279.0,230.2,3463.7,3456.4,468.7,390.3,423.9,876.4,719.2,422.3,-1.0,10.0,4.0,7409.0,-8530.0,-6231.0,10097.0,8.0,6.0,-14.0,-11.0,-3.0,-9.0,4663.0,-6865.0,-9238.0,10687.0,-5.0,6.0,-3.0,1.0
2022-05-08 18:12:39.679440-07:00,673.3,738.9,657.9,911.8,351.4,302.8,875.5,707.7,3467.4,3478.3,1046.1,687.2,552.2,3461.3,1120.9,795.2,3439.5,3450.4,378.6,295.9,313.6,299.0,279.0,230.2,3457.6,3468.6,464.0,390.3,420.0,873.0,719.2,422.3,0.0,-8.0,5.0,7411.0,-8532.0,-6233.0,10093.0,-10.0,27.0,-1.0,-3.0,-8.0,2.0,4660.0,-6868.0,-9233.0,10691.0,24.0,-9.0,18.0,1.0
2022-05-08 18:12:39.739561-07:00,666.0,732.3,661.9,911.8,348.3,302.8,875.5,707.7,3461.3,3471.0,1049.6,687.2,550.6,3461.3,1120.9,795.2,3439.5,3450.4,378.6,297.4,313.6,299.7,277.5,237.1,3457.6,3468.6,464.0,390.3,420.0,871.3,719.2,428.6,-12.0,-6.0,2.0,7405.0,-8542.0,-6228.0,10092.0,7.0,-2.0,30.0,-6.0,3.0,0.0,4661.0,-6867.0,-9228.0,10696.0,9.0,-2.0,1.0,1.0
2022-05-08 18:12:39.768917-07:00,666.0,732.3,661.9,915.2,348.3,305.9,875.5,712.6,3461.3,3471.0,1049.6,689.7,550.6,3475.9,1122.6,789.4,3440.7,3440.7,377.8,297.4,311.3,299.7,277.5,237.1,3456.4,3457.6,468.7,390.3,419.2,871.3,719.2,428.6,0.0,10.0,5.0,7406.0,-8542.0,-6220.0,10096.0,10.0,18.0,-5.0,-9.0,-6.0,-2.0,4662.0,-6866.0,-9226.0,10697.0,22.0,2.0,7.0,1.0
2022-05-08 18:12:39.828686-07:00,666.0,738.1,659.5,915.2,354.5,305.9,875.5,712.6,3469.8,3462.5,1047.0,689.7,546.6,3475.9,1122.6,789.4,3440.7,3440.7,377.8,294.4,311.3,303.6,281.3,232.5,3456.4,3457.6,468.7,391.1,419.2,873.8,719.2,422.3,-9.0,-10.0,1.0,7407.0,-8537.0,-6223.0,10098.0,19.0,-22.0,0.0,-1.0,-71.0,34.0,4679.0,-6855.0,-9170.0,10746.0,386.0,-25.0,92.0,1.0
2022-05-08 18:12:39.888975-07:00,666.0,738.1,659.5,911.8,354.5,297.4,872.1,712.6,3469.8,3462.5,1047.0,689.7,546.6,3455.2,1117.4,790.2,3449.1,3441.9,377.8,294.4,314.4,303.6,281.3,232.5,3468.6,3460.1,474.3,391.1,421.5,873.8,719.2,422.3,-32.0,-84.0,32.0,7426.0,-8497.0,-6182.0,10143.0,382.0,-86.0,86.0,-29.0,-31.0,-32.0,4776.0,-6722.0,-8890.0,11019.0,2110.0,-450.0,117.0,1.0
2022-05-08 18:12:39.919481-07:00,673.3,735.6,657.9,911.8,350.6,297.4,872.1,712.6,3466.1,3466.1,1046.1,689.7,551.4,3455.2,1117.4,790.2,3449.1,3441.9,377.8,295.1,314.4,303.6,282.1,234.0,3468.6,3460.1,474.3,392.6,421.5,875.5,719.2,427.8,9.0,-138.0,-21.0,7575.0,-8259.0,-5741.0,10482.0,2001.0,-180.0,727.0,-40.0,-94.0,-27.0,5012.0,-6320.0,-8275.0,11615.0,2494.0,-543.0,81.0,1.0
2022-05-08 18:12:40.279120-07:00,673.3,735.6,657.9,913.5,350.6,310.5,898.3,715.9,3466.1,3466.1,1046.1,677.4,551.4,3473.4,1121.7,798.5,3451.6,3449.1,377.8,295.1,315.1,303.6,282.1,234.0,3466.1,3461.3,467.9,392.6,417.6,875.5,719.2,427.8,41.0,-129.0,-2.0,7665.0,-8036.0,-5132.0,10898.0,1979.0,87.0,1339.0,-45.0,-121.0,26.0,5287.0,-5734.0,-7466.0,12323.0,2807.0,-524.0,242.0,1.0
2022-05-08 18:12:40.281811-07:00,677.4,727.4,679.1,919.4,353.0,310.5,898.3,715.9,3467.4,3467.4,1072.1,684.0,545.0,3473.4,1121.7,798.5,3451.6,3449.1,377.8,300.5,318.2,301.3,276.7,231.0,3466.1,3461.3,467.9,395.7,419.2,878.0,816.9,427.8,-50.0,-1.0,-92.0,7687.0,-7791.0,-4100.0,11482.0,2581.0,-14.0,1780.0,2.0,172.0,-65.0,5482.0,-5213.0,-6800.0,12844.0,1657.0,-494.0,52.0,1.0
2022-05-08 18:12:40.399053-07:00,677.4,727.4,679.1,919.4,356.1,317.4,957.7,721.6,3467.4,3467.4,1072.1,684.0,550.6,3469.8,1174.4,796.0,3451.6,3440.7,377.0,298.2,318.2,301.3,276.7,231.0,3471.0,3466.1,471.1,401.2,419.2,878.0,816.9,427.8,36.0,119.0,-76.0,7574.0,-7435.0,-3148.0,12078.0,1434.0,-445.0,1268.0,32.0,99.0,-27.0,5594.0,-4842.0,-6403.0,13141.0,1262.0,-407.0,-103.0,1.0
2022-05-08 18:12:41.178894-07:00,667.6,720.0,715.9,916.0,356.1,317.4,957.7,721.6,3457.6,3475.9,1064.3,685.6,550.6,3469.8,1174.4,796.0,3451.6,3440.7,377.0,298.2,310.5,299.0,278.3,233.3,3471.0,3466.1,471.1,401.2,420.8,930.5,913.5,420.0,35.0,81.0,-62.0,7490.0,-7071.0,-2640.0,12465.0,1256.0,-630.0,623.0,-23.0,15.0,8.0,5695.0,-4534.0,-6094.0,13353.0,862.0,-320.0,28.0,1.0
2022-05-08 18:12:41.180212-07:00,667.6,720.0,715.9,916.0,351.4,320.5,938.1,715.9,3457.6,3475.9,1064.3,685.6,548.2,3462.5,1190.3,796.9,3447.9,3444.3,378.6,296.7,310.5,299.0,278.3,233.3,3466.1,3461.3,462.4,415.3,420.8,930.5,913.5,420.0,-21.0,47.0,18.0,7460.0,-6684.0,-2281.0,12764.0,856.0,-585.0,432.0,-15.0,91.0,-16.0,5749.0,-4304.0,-5909.0,13489.0,605.0,-212.0,-200.0,1.0
2022-05-08 18:12:41.209547-07:00,662.7,725.8,703.6,915.2,351.4,320.5,938.1,715.9,3471.0,3462.5,1041.8,682.3,548.2,3462.5,1190.3,796.9,3447.9,3444.3,378.6,296.7,315.1,301.3,278.3,235.5,3466.1,3461.3,462.4,415.3,422.3,969.6,920.3,423.9,-3.0,45.0,-25.0,7471.0,-6305.0,-2084.0,12981.0,800.0,-785.0,112.0,-15.0,91.0,-16.0,5749.0,-4304.0,-5909.0,13489.0,605.0,-212.0,-200.0,1.0
2022-05-08 18:12:41.210280-07:00,662.7,725.8,703.6,915.2,351.4,320.5,938.1,715.9,3471.0,3462.5,1041.8,682.3,548.2,3462.5,1190.3,796.9,3447.9,3444.3,378.6,296.7,315.1,301.3,278.3,235.5,3466.1,3461.3,462.4,415.3,422.3,969.6,920.3,423.9,-3.0,45.0,-25.0,7471.0,-6305.0,-2084.0,12981.0,800.0,-785.0,112.0,2.0,21.0,-32.0,5814.0,-4024.0,-5708.0,13633.0,182.0,-69.0,64.0,1.0
2022-05-08 18:12:41.239527-07:00,666.0,715.9,699.5,920.3,351.4,317.4,922.8,704.4,3464.9,3469.8,1039.2,683.1,545.0,3472.2,1221.3,797.7,3444.3,3447.9,373.2,302.0,318.2,305.9,282.1,238.6,3458.9,3468.6,460.8,416.1,413.7,967.9,901.7,423.9,34.0,10.0,-2.0,7386.0,-5759.0,-1930.0,13303.0,-9.0,-114.0,371.0,0.0,1.0,-14.0,5797.0,-3994.0,-5676.0,13662.0,138.0,-80.0,29.0,1.0
2022-05-08 18:12:41.242110-07:00,666.0,711.8,692.1,913.5,351.4,317.4,922.8,706.0,3464.9,3467.4,1044.4,683.1,545.0,3472.2,1221.3,806.0,3449.1,3447.9,373.2,302.0,316.7,308.2,276.0,238.6,3456.4,3468.6,460.8,416.1,423.9,997.9,891.5,423.9,31.0,-4.0,15.0,7274.0,-5773.0,-1877.0,13367.0,64.0,142.0,261.0,-33.0,-42.0,-70.0,4744.0,-6961.0,-8919.0,10860.0,-2301.0,756.0,255.0,1.0
2022-05-08 18:12:41.359493-07:00,659.5,711.8,692.1,913.5,349.1,315.1,922.8,706.0,3466.1,3467.4,1044.4,683.1,549.0,3466.1,1249.7,806.0,3449.1,3445.5,375.5,299.7,316.7,308.2,276.0,234.0,3456.4,3463.7,459.3,414.5,423.9,997.9,891.5,427.0,36.0,-88.0,-80.0,7611.0,-9513.0,-5113.0,9689.0,-1882.0,1043.0,-1355.0,-2.0,27.0,-29.0,4456.0,-7441.0,-9359.0,10277.0,-1536.0,478.0,171.0,1.0
2022-05-08 18:12:41.360484-07:00,657.0,701.9,680.7,917.7,350.6,308.2,889.0,705.2,3468.6,3468.6,1050.4,680.7,549.8,3466.1,1282.8,812.7,3450.4,3444.3,376.3,302.8,313.6,301.3,281.3,235.5,3463.7,3455.2,456.9,409.0,421.5,987.6,853.7,427.0,31.0,-6.0,-81.0,7628.0,-9888.0,-5622.0,8993.0,-1135.0,706.0,-932.0,21.0,-45.0,-58.0,4272.0,-7737.0,-9632.0,9877.0,-1064.0,350.0,66.0,1.0
2022-05-08 18:12:41.449154-07:00,657.0,701.9,680.7,917.7,356.1,303.6,891.5,708.5,3468.6,3468.6,1050.4,680.7,549.8,3467.4,1296.3,806.0,3445.5,3440.7,380.2,299.7,313.6,301.3,281.3,235.5,3469.8,3454.0,456.9,411.4,421.5,987.6,853.7,427.0,59.0,-42.0,-64.0,7663.0,-10098.0,-5948.0,8507.0,-774.0,494.0,-769.0,-13.0,0.0,-31.0,4142.0,-7930.0,-9816.0,9594.0,-577.0,177.0,18.0,1.0
2022-05-08 18:12:41.508822-07:00,653.0,703.6,683.1,919.4,356.1,303.6,891.5,708.5,3462.5,3469.8,1050.4,683.1,549.8,3467.4,1296.3,806.0,3445.5,3440.7,380.2,299.7,317.4,302.8,273.7,233.3,3469.8,3454.0,456.9,411.4,426.2,983.3,856.2,429.4,20.0,-76.0,-55.0,7698.0,-10191.0,-6190.0,8185.0,-302.0,184.0,-413.0,-23.0,-31.0,-30.0,4107.0,-7985.0,-9876.0,9501.0,-5.0,3.0,-13.0,1.0
