Time,P0,P1,P2,P3,P4,P5,P6,P7,P8,P9,P10,P11,P12,P13,P14,P15,P16,P17,P18,P19,P20,P21,P22,P23,P24,P25,P26,P27,P28,P29,P30,P31,ECG,AX0,AY0,AZ0,QW0,QX0,QY0,QZ0,GX0,GY0,GZ0,AX1,AY1,AZ1,QW1,QX1,QY1,QZ1,GX1,GY1,GZ1
2022-05-08 14:30:45.740568-07:00,862.1,1063.4,1404.9,1077.3,631.1,467.9,1432.3,1027.1,3479.5,3472.2,670.9,893.2,410.6,3491.7,792.7,788.6,3478.3,3481.9,404.3,648.1,480.6,537.0,240.1,240.9,3483.2,3478.3,586.7,458.5,682.3,1117.4,1381.2,431.7,1.0,-13.0,0.0,14301.0,3205.0,2201.0,6987.0,-17.0,39.0,-10.0,0.0,0.0,8.0,15854.0,3523.0,575.0,2086.0,-26.0,16.0,-9.0,1.0
2022-05-08 14:30:45.860444-07:00,872.1,1066.9,1400.3,1068.6,631.1,467.9,1432.3,1027.1,3477.1,3471.0,670.1,895.7,410.6,3491.7,792.7,788.6,3478.3,3481.9,404.3,648.1,475.0,536.2,247.7,247.7,3483.2,3478.3,586.7,458.5,679.1,1136.6,1382.1,430.9,7.0,-4.0,-13.0,14300.0,3201.0,2205.0,6988.0,3.0,-17.0,7.0,5.0,7.0,-6.0,15855.0,3519.0,577.0,2086.0,0.0,5.0,6.0,1.0
2022-05-08 14:30:45.861423-07:00,872.1,1066.9,1400.3,1068.6,629.5,467.9,1437.8,1033.2,3477.1,3471.0,670.1,895.7,411.4,3500.2,786.1,791.9,3477.1,3488.0,407.5,648.1,475.0,536.2,247.7,247.7,3483.2,3481.9,583.5,459.3,679.1,1136.6,1382.1,430.9,8.0,0.0,21.0,14301.0,3202.0,2197.0,6988.0,-3.0,7.0,3.0,5.0,6.0,15.0,15855.0,3520.0,574.0,2086.0,-5.0,-3.0,4.0,1.0
2022-05-08 14:30:45.862511-07:00,868.8,1070.3,1397.6,1069.5,629.5,467.9,1437.8,1033.2,3475.9,3473.4,666.0,896.6,411.4,3500.2,786.1,791.9,3477.1,3488.0,407.5,648.1,479.8,537.0,248.5,240.9,3483.2,3481.9,583.5,459.3,679.1,1117.4,1374.8,434.9,-1.0,-8.0,-10.0,14300.0,3199.0,2202.0,6990.0,12.0,22.0,-6.0,-6.0,-3.0,-4.0,15854.0,3519.0,578.0,2087.0,6.0,17.0,-5.0,1.0
2022-05-08 14:30:45.920642-07:00,868.8,1070.3,1397.6,1069.5,628.6,464.0,1434.1,1030.6,3475.9,3473.4,666.0,896.6,408.2,3500.2,795.2,787.7,3481.9,3489.2,409.8,647.3,479.8,537.0,248.5,240.9,3477.1,3475.9,584.3,453.0,679.1,1117.4,1374.8,434.9,6.0,-6.0,-5.0,14300.0,3199.0,2205.0,6990.0,-10.0,-13.0,-6.0,3.0,1.0,1.0,15854.0,3520.0,579.0,2087.0,-2.0,-8.0,1.0,1.0
2022-05-08 14:30:45.980996-07:00,868.8,1065.1,1396.7,1070.3,628.6,464.0,1434.1,1028.8,3475.9,3472.2,667.6,892.4,408.2,3500.2,795.2,789.4,3483.2,3489.2,409.8,647.3,481.4,538.6,247.7,250.8,3475.9,3475.9,584.3,453.0,694.6,1117.4,1376.6,426.2,2.0,-1.0,11.0,14299.0,3203.0,2204.0,6989.0,-9.0,12.0,3.0,0.0,7.0,9.0,15853.0,3523.0,580.0,2087.0,-4.0,1.0,0.0,1.0
2022-05-08 14:30:46.130546-07:00,864.6,1065.1,1396.7,1070.3,628.6,467.1,1423.1,1028.8,3473.4,3472.2,667.6,892.4,406.7,3501.4,788.6,789.4,3483.2,3477.1,405.9,652.2,481.4,538.6,247.7,243.9,3475.9,3479.5,581.8,454.5,694.6,1117.4,1376.6,434.9,11.0,0.0,-7.0,14295.0,3208.0,2220.0,6990.0,68.0,27.0,-1.0,6.0,11.0,0.0,15852.0,3530.0,585.0,2088.0,39.0,19.0,1.0,1.0
2022-05-08 14:30:46.131489-07:00,864.6,1063.4,1404.9,1066.9,628.6,467.1,1423.1,1032.3,3473.4,3481.9,661.1,888.2,406.7,3501.4,788.6,791.0,3485.6,3477.1,405.9,652.2,475.8,533.8,237.8,243.9,3478.3,3479.5,581.8,454.5,681.5,1120.9,1374.8,434.9,4.0,-5.0,-5.0,14291.0,3218.0,2231.0,6990.0,39.0,8.0,10.0,2.0,5.0,-6.0,15849.0,3540.0,587.0,2088.0,39.0,-4.0,3.0,1.0
2022-05-08 14:30:46.132738-07:00,866.3,1063.4,1404.9,1066.9,635.9,467.1,1423.1,1032.3,3473.4,3481.9,661.1,888.2,408.2,3505.1,793.5,791.0,3485.6,3478.3,406.7,654.6,475.8,533.8,237.8,243.2,3478.3,3484.4,585.1,460.8,681.5,1120.9,1374.8,431.7,4.0,14.0,10.0,14279.0,3249.0,2250.0,6994.0,85.0,17.0,23.0,-5.0,16.0,8.0,15842.0,3574.0,592.0,2086.0,70.0,1.0,-1.0,1.0
2022-05-08 14:30:46.160542-07:00,866.3,1063.4,1404.9,1069.5,635.9,467.1,1423.1,1033.2,3473.4,3466.1,666.8,868.8,408.2,3505.1,793.5,792.7,3479.5,3478.3,406.7,654.6,480.6,538.6,242.4,243.2,3483.2,3484.4,585.1,460.8,684.0,1119.1,1394.8,431.7,3.0,2.0,0.0,14274.0,3252.0,2271.0,6997.0,36.0,59.0,-11.0,0.0,7.0,2.0,15839.0,3587.0,596.0,2082.0,33.0,14.0,-19.0,1.0
2022-05-08 14:30:46.221132-07:00,866.3,1063.4,1404.9,1069.5,627.8,467.1,1437.8,1033.2,3474.6,3466.1,666.8,868.8,405.1,3496.6,789.4,792.7,3479.5,3474.6,409.0,648.1,480.6,538.6,242.4,241.6,3483.2,3478.3,584.3,454.5,684.0,1119.1,1394.8,428.6,4.0,1.0,-11.0,14270.0,3255.0,2296.0,6995.0,-2.0,33.0,-13.0,2.0,14.0,-5.0,15838.0,3597.0,602.0,2075.0,-5.0,-1.0,-14.0,1.0
2022-05-08 14:30:46.430444-07:00,866.3,1066.0,1385.7,1067.7,627.8,467.1,1419.5,1021.1,3474.6,3472.2,666.0,889.8,405.1,3496.6,784.4,790.2,3478.3,3472.2,409.0,648.1,477.4,533.0,245.4,241.6,3481.9,3479.5,584.3,454.5,680.7,1111.2,1379.4,428.6,10.0,6.0,-2.0,14273.0,3258.0,2295.0,6988.0,18.0,-28.0,-21.0,2.0,1.0,-5.0,15838.0,3597.0,602.0,2070.0,11.0,-12.0,-13.0,1.0
2022-05-08 14:30:46.431520-07:00,867.9,1066.9,1385.7,1067.7,630.3,467.1,1419.5,1021.1,3471.0,3466.1,666.0,889.8,409.0,3499.0,784.4,790.2,3478.3,3472.2,407.5,649.7,477.4,533.0,244.7,245.4,3481.9,3479.5,581.0,454.5,680.7,1111.2,1374.8,432.5,10.0,-20.0,19.0,14280.0,3253.0,2282.0,6981.0,6.0,-17.0,-18.0,2.0,-6.0,4.0,15840.0,3591.0,598.0,2068.0,2.0,-6.0,-5.0,1.0
2022-05-08 14:30:46.432381-07:00,867.9,1066.9,1404.9,1072.1,630.3,467.1,1424.1,1025.4,3471.0,3466.1,665.2,896.6,409.0,3499.0,793.5,791.0,3478.3,3474.6,407.5,649.7,479.0,537.0,244.7,245.4,3478.3,3479.5,581.0,454.5,679.9,1113.9,1374.8,432.5,2.0,-11.0,9.0,14279.0,3250.0,2286.0,6982.0,-14.0,25.0,9.0,-1.0,-1.0,5.0,15840.0,3589.0,599.0,2070.0,-14.0,10.0,12.0,1.0
2022-05-08 14:30:46.433560-07:00,867.1,1059.1,1404.9,1072.1,630.3,471.1,1424.1,1025.4,3466.1,3475.9,665.2,896.6,407.5,3499.0,793.5,791.0,3478.3,3474.6,414.5,653.8,479.0,537.0,245.4,247.0,3478.3,3479.5,581.0,456.9,679.9,1113.9,1377.5,433.3,7.0,2.0,-8.0,14276.0,3254.0,2295.0,6985.0,16.0,8.0,12.0,0.0,9.0,-4.0,15839.0,3593.0,600.0,2071.0,7.0,-3.0,8.0,1.0
2022-05-08 14:30:46.520508-07:00,867.1,1059.1,1404.9,1072.1,630.3,471.1,1432.3,1032.3,3466.1,3475.9,674.2,896.6,407.5,3499.0,791.0,785.2,3478.3,3483.2,414.5,653.8,475.8,536.2,245.4,247.0,3472.2,3479.5,581.0,456.9,681.5,1114.7,1377.5,433.3,6.0,0.0,0.0,14274.0,3265.0,2295.0,6983.0,42.0,-14.0,8.0,0.0,11.0,0.0,15837.0,3601.0,601.0,2071.0,31.0,-2.0,6.0,1.0
2022-05-08 14:30:46.521476-07:00,868.8,1068.6,1404.9,1072.1,633.5,467.9,1432.3,1032.3,3474.6,3472.2,674.2,896.6,405.9,3497.8,791.0,785.2,3478.3,3483.2,404.3,652.2,475.8,536.2,244.7,247.7,3472.2,3479.5,581.0,461.6,681.5,1114.7,1384.8,432.5,5.0,-1.0,9.0,14273.0,3268.0,2296.0,6983.0,16.0,9.0,-7.0,1.0,0.0,9.0,15837.0,3602.0,603.0,2071.0,9.0,14.0,-3.0,1.0
2022-05-08 14:30:46.701044-07:00,868.8,1068.6,1401.2,1074.7,633.5,470.3,1428.6,1034.0,3474.6,3472.2,669.3,895.7,405.9,3491.7,791.9,780.3,3477.1,3474.6,408.2,652.2,477.4,537.0,244.7,247.7,3479.5,3474.6,578.6,461.6,682.3,1110.4,1384.8,432.5,11.0,-5.0,-11.0,14272.0,3270.0,2302.0,6983.0,7.0,0.0,-12.0,8.0,2.0,-5.0,15837.0,3603.0,606.0,2071.0,2.0,-6.0,-3.0,1.0
2022-05-08 14:30:46.730619-07:00,872.1,1060.8,1394.8,1074.7,629.5,470.3,1428.6,1034.0,3469.8,3471.0,670.9,895.7,409.0,3491.7,791.9,780.3,3477.1,3474.6,408.2,652.2,477.4,536.2,243.9,244.7,3479.5,3474.6,578.6,459.3,682.3,1115.6,1383.0,434.1,17.0,0.0,0.0,14270.0,3285.0,2297.0,6980.0,10.0,-17.0,4.0,9.0,12.0,-1.0,15835.0,3612.0,604.0,2070.0,11.0,-16.0,7.0,1.0
2022-05-08 14:30:46.732278-07:00,872.1,1060.8,1394.8,1064.3,629.5,470.3,1422.2,1024.5,3469.8,3471.0,670.9,886.5,409.0,3497.8,790.2,790.2,3474.6,3479.5,404.3,652.2,475.0,536.2,243.9,244.7,3477.1,3467.4,583.5,459.3,675.0,1115.6,1383.0,434.1,2.0,3.0,21.0,14270.0,3285.0,2294.0,6982.0,1.0,15.0,12.0,-3.0,2.0,10.0,15835.0,3613.0,602.0,2070.0,2.0,6.0,4.0,1.0
2022-05-08 14:30:46.733363-07:00,872.1,1056.5,1396.7,1064.3,626.2,470.3,1422.2,1024.5,3473.4,3479.5,669.3,886.5,409.0,3497.8,790.2,790.2,3474.6,3479.5,404.3,648.9,475.0,534.6,243.2,245.4,3477.1,3467.4,583.5,456.9,675.0,1118.2,1373.0,436.4,1.0,-4.0,-6.0,14267.0,3280.0,2309.0,6985.0,17.0,31.0,7.0,0.0,1.0,1.0,15835.0,3612.0,606.0,2071.0,11.0,19.0,4.0,1.0
2022-05-08 14:30:46.760128-07:00,872.1,1056.5,1396.7,1071.2,626.2,464.0,1423.1,1034.0,3473.4,3479.5,669.3,888.2,409.0,3496.6,794.4,791.0,3473.4,3472.2,402.8,648.9,480.6,534.6,243.2,245.4,3474.6,3481.9,580.2,456.9,681.5,1118.2,1373.0,436.4,-4.0,0.0,-6.0,14265.0,3281.0,2316.0,6986.0,5.0,-6.0,3.0,-7.0,8.0,5.0,15834.0,3615.0,609.0,2071.0,5.0,2.0,3.0,1.0
2022-05-08 14:30:46.849979-07:00,864.6,1060.8,1405.8,1071.2,634.3,464.0,1423.1,1034.0,3469.8,3475.9,667.6,888.2,411.4,3496.6,794.4,791.0,3473.4,3472.2,402.8,653.8,480.6,534.6,244.7,243.2,3474.6,3481.9,580.2,454.5,681.5,1119.1,1375.7,432.5,7.0,3.0,5.0,14266.0,3280.0,2314.0,6985.0,2.0,4.0,-11.0,3.0,9.0,2.0,15834.0,3615.0,608.0,2071.0,-2.0,-3.0,-10.0,1.0
2022-05-08 14:30:46.879949-07:00,864.6,1060.8,1405.8,1099.0,627.0,468.7,1423.1,1028.8,3469.8,3475.9,667.6,895.7,414.5,3497.8,798.5,791.9,3480.7,3483.2,406.7,646.5,473.5,534.6,244.7,243.2,3480.7,3481.9,581.0,454.5,670.9,1119.1,1375.7,432.5,16.0,-6.0,-1.0,14267.0,3278.0,2320.0,6982.0,15.0,15.0,-12.0,10.0,6.0,-2.0,15834.0,3614.0,611.0,2067.0,6.0,10.0,-10.0,1.0
2022-05-08 14:30:47.000437-07:00,864.6,1066.0,1398.5,1070.3,627.0,468.7,1423.1,1028.8,3477.1,3472.2,678.2,889.8,414.5,3497.8,798.5,791.9,3480.7,3483.2,406.7,646.5,475.0,538.6,240.9,243.2,3480.7,3481.9,581.0,454.5,679.1,1119.1,1376.6,429.4,2.0,-6.0,-7.0,14268.0,3274.0,2318.0,6984.0,-24.0,-14.0,8.0,3.0,0.0,6.0,15835.0,3611.0,612.0,2066.0,-14.0,-8.0,5.0,1.0
2022-05-08 14:30:47.001466-07:00,864.6,1066.0,1398.5,1070.3,623.8,467.9,1420.4,1028.8,3477.1,3472.2,678.2,889.8,408.2,3494.1,791.0,784.4,3480.7,3477.1,398.1,649.7,475.0,538.6,240.9,243.2,3475.9,3483.2,583.5,454.5,679.1,1119.1,1376.6,429.4,10.0,11.0,7.0,14269.0,3279.0,2310.0,6982.0,-14.0,-8.0,-3.0,3.0,15.0,5.0,15835.0,3611.0,610.0,2066.0,-15.0,-11.0,-2.0,1.0
2022-05-08 14:30:47.030611-07:00,864.6,1059.1,1404.0,1066.0,623.8,467.9,1420.4,1028.8,3472.2,3472.2,668.4,892.4,408.2,3494.1,791.0,784.4,3480.7,3477.1,398.1,649.7,475.0,533.8,241.6,243.2,3475.9,3483.2,583.5,454.5,677.4,1118.2,1379.4,427.8,2.0,-1.0,9.0,14268.0,3272.0,2314.0,6985.0,3.0,27.0,4.0,0.0,6.0,12.0,15836.0,3607.0,608.0,2066.0,-4.0,11.0,4.0,1.0
2022-05-08 14:30:47.090661-07:00,864.6,1059.1,1404.0,1066.0,628.6,468.7,1417.6,1025.4,3472.2,3472.2,668.4,892.4,409.8,3495.3,795.2,790.2,3478.3,3479.5,404.3,650.5,475.0,533.8,241.6,243.2,3488.0,3477.1,572.2,459.3,677.4,1118.2,1379.4,427.8,4.0,-3.0,-11.0,14269.0,3271.0,2318.0,6984.0,9.0,6.0,-2.0,-5.0,5.0,-5.0,15836.0,3604.0,614.0,2067.0,0.0,3.0,-4.0,1.0
2022-05-08 14:30:47.239938-07:00,865.4,1060.8,1393.9,1071.2,628.6,468.7,1417.6,1025.4,3480.7,3468.6,666.0,891.5,409.8,3495.3,795.2,790.2,3478.3,3479.5,404.3,650.5,476.6,535.4,246.2,246.2,3488.0,3477.1,572.2,459.3,692.9,1117.4,1377.5,430.9,8.0,-10.0,18.0,14269.0,3270.0,2317.0,6984.0,10.0,-1.0,9.0,7.0,4.0,10.0,15837.0,3603.0,614.0,2067.0,1.0,1.0,5.0,1.0
2022-05-08 14:30:47.241194-07:00,862.1,1060.8,1393.9,1071.2,627.0,468.7,1424.1,1030.6,3473.4,3468.6,666.0,891.5,407.5,3497.8,794.4,791.9,3481.9,3467.4,401.2,649.7,476.6,535.4,246.2,246.2,3474.6,3472.2,578.6,454.5,692.9,1117.4,1377.5,429.4,10.0,-9.0,2.0,14266.0,3267.0,2320.0,6990.0,20.0,44.0,13.0,4.0,1.0,3.0,15836.0,3603.0,617.0,2072.0,4.0,20.0,10.0,1.0
2022-05-08 14:30:47.269935-07:00,862.1,1059.9,1397.6,1072.1,627.0,468.7,1424.1,1024.5,3473.4,3472.2,666.0,897.4,407.5,3497.8,794.4,787.7,3480.7,3467.4,401.2,649.7,477.4,535.4,241.6,246.2,3477.1,3472.2,578.6,454.5,678.2,1115.6,1373.9,429.4,3.0,0.0,-15.0,14261.0,3270.0,2332.0,6995.0,-7.0,-17.0,6.0,1.0,3.0,2.0,15834.0,3606.0,623.0,2077.0,-2.0,3.0,10.0,1.0
2022-05-08 14:30:47.331006-07:00,866.3,1059.9,1397.6,1072.1,631.9,469.5,1423.1,1024.5,3467.4,3472.2,666.0,897.4,408.2,3494.1,792.7,787.7,3480.7,3479.5,403.5,650.5,477.4,535.4,241.6,239.3,3477.1,3478.3,582.6,462.4,678.2,1115.6,1373.9,423.1,15.0,7.0,5.0,14262.0,3275.0,2322.0,6993.0,6.0,-3.0,5.0,7.0,17.0,5.0,15834.0,3608.0,623.0,2078.0,13.0,-4.0,8.0,1.0
2022-05-08 14:30:47.331789-07:00,866.3,1056.5,1396.7,1072.1,631.9,469.5,1423.1,1030.6,3467.4,3479.5,666.8,890.7,408.2,3494.1,792.7,791.0,3483.2,3479.5,403.5,650.5,475.0,533.8,243.2,239.3,3479.5,3478.3,582.6,462.4,681.5,1106.9,1378.5,423.1,0.0,5.0,-4.0,14261.0,3277.0,2325.0,6993.0,21.0,28.0,-2.0,-7.0,11.0,-7.0,15833.0,3610.0,626.0,2079.0,13.0,14.0,-7.0,1.0
2022-05-08 14:30:47.360898-07:00,864.6,1056.5,1396.7,1072.1,628.6,464.0,1424.1,1030.6,3477.1,3479.5,666.8,890.7,409.0,3495.3,789.4,791.0,3483.2,3479.5,401.2,652.2,475.0,533.8,243.2,243.9,3479.5,3477.1,583.5,461.6,681.5,1106.9,1378.5,432.5,5.0,5.0,-12.0,14261.0,3274.0,2330.0,6994.0,-11.0,-21.0,-11.0,0.0,11.0,-5.0,15834.0,3607.0,626.0,2078.0,-12.0,-14.0,-12.0,1.0
2022-05-08 14:30:47.540653-07:00,864.6,1056.5,1398.5,1079.0,628.6,464.0,1424.1,1021.1,3477.1,3474.6,665.2,891.5,409.0,3495.3,789.4,790.2,3480.7,3479.5,401.2,652.2,480.6,535.4,244.7,243.9,3472.2,3477.1,583.5,461.6,676.6,1110.4,1377.5,432.5,19.0,0.0,13.0,14266.0,3276.0,2321.0,6986.0,3.0,1.0,-10.0,12.0,11.0,10.0,15835.0,3606.0,622.0,2074.0,-3.0,-5.0,-12.0,1.0
2022-05-08 14:30:47.571087-07:00,867.1,1059.9,1398.5,1079.0,627.0,464.8,1418.6,1021.1,3472.2,3472.2,665.2,891.5,411.4,3502.7,791.0,790.2,3480.7,3480.7,405.9,653.8,480.6,535.4,245.4,245.4,3472.2,3484.4,582.6,455.3,676.6,1110.4,1374.8,440.4,3.0,-12.0,2.0,14267.0,3270.0,2326.0,6984.0,9.0,24.0,-4.0,0.0,-1.0,7.0,15836.0,3601.0,623.0,2074.0,-3.0,13.0,-4.0,1.0
2022-05-08 14:30:47.631043-07:00,867.1,1059.9,1403.0,1071.2,627.0,464.8,1422.2,1022.8,3472.2,3472.2,661.1,895.7,411.4,3502.7,791.9,782.7,3471.0,3472.2,405.9,653.8,479.0,535.4,245.4,245.4,3474.6,3473.4,582.6,455.3,682.3,1118.2,1374.8,440.4,12.0,-8.0,-4.0,14266.0,3264.0,2329.0,6987.0,-23.0,-2.0,15.0,6.0,0.0,1.0,15837.0,3597.0,623.0,2076.0,-17.0,-5.0,14.0,1.0
2022-05-08 14:30:47.632174-07:00,864.6,1057.3,1403.0,1071.2,627.0,466.4,1422.2,1022.8,3478.3,3477.1,661.1,895.7,409.0,3507.5,791.9,782.7,3471.0,3472.2,403.5,650.5,479.0,535.4,243.2,240.9,3474.6,3473.4,577.8,454.5,682.3,1118.2,1397.6,423.1,6.0,7.0,10.0,14264.0,3264.0,2327.0,6994.0,8.0,8.0,11.0,2.0,10.0,10.0,15836.0,3596.0,621.0,2082.0,3.0,8.0,13.0,1.0
2022-05-08 14:30:47.633380-07:00,864.6,1057.3,1401.2,1074.7,627.0,466.4,1418.6,1028.0,3478.3,3477.1,665.2,891.5,409.0,3507.5,787.7,789.4,3478.3,3472.2,403.5,650.5,477.4,534.6,243.2,240.9,3475.9,3480.7,577.8,454.5,680.7,1119.1,1397.6,423.1,5.0,0.0,-5.0,14263.0,3263.0,2329.0,6995.0,5.0,18.0,-9.0,-3.0,5.0,-4.0,15836.0,3596.0,625.0,2084.0,-1.0,9.0,-3.0,1.0
2022-05-08 14:30:47.810500-07:00,865.4,1055.6,1401.2,1074.7,628.6,465.6,1418.6,1028.0,3478.3,3477.1,665.2,891.5,408.2,3496.6,787.7,789.4,3478.3,3472.2,405.1,648.9,477.4,534.6,247.7,244.7,3475.9,3480.7,581.8,458.5,680.7,1119.1,1376.6,434.1,8.0,-4.0,-3.0,14263.0,3264.0,2328.0,6995.0,-6.0,-16.0,4.0,3.0,4.0,-2.0,15836.0,3596.0,625.0,2084.0,1.0,0.0,0.0,1.0
2022-05-08 14:30:47.812163-07:00,865.4,1055.6,1393.0,1065.1,628.6,465.6,1422.2,1022.8,3478.3,3477.1,669.3,894.1,408.2,3496.6,790.2,789.4,3478.3,3473.4,405.1,648.9,478.2,539.4,247.7,244.7,3475.9,3483.2,581.8,458.5,681.5,1117.4,1376.6,434.1,10.0,3.0,7.0,14264.0,3270.0,2322.0,6993.0,7.0,-1.0,5.0,5.0,6.0,-1.0,15835.0,3598.0,625.0,2084.0,10.0,0.0,3.0,1.0
2022-05-08 14:30:47.900522-07:00,868.8,1063.4,1398.5,1065.1,635.9,467.1,1422.2,1022.8,3475.9,3474.6,668.4,894.1,408.2,3494.1,790.2,789.4,3478.3,3473.4,403.5,649.7,478.2,534.6,243.9,243.2,3475.9,3483.2,577.0,454.5,681.5,1111.2,1373.9,430.9,10.0,3.0,1.0,14263.0,3269.0,2324.0,6993.0,9.0,14.0,-3.0,3.0,9.0,2.0,15835.0,3598.0,625.0,2084.0,2.0,3.0,-6.0,1.0
2022-05-08 14:30:47.901670-07:00,868.8,1063.4,1398.5,1067.7,635.9,464.0,1416.7,1022.8,3475.9,3474.6,668.4,891.5,408.2,3500.2,790.2,788.6,3483.2,3475.9,403.5,649.7,475.0,534.6,243.9,243.2,3478.3,3472.2,576.2,454.5,680.7,1111.2,1373.9,430.9,10.0,-1.0,-5.0,14263.0,3271.0,2324.0,6993.0,13.0,-9.0,0.0,3.0,9.0,-2.0,15835.0,3598.0,625.0,2084.0,7.0,4.0,0.0,1.0
2022-05-08 14:30:47.902407-07:00,864.6,1055.6,1393.0,1067.7,623.8,464.0,1416.7,1022.8,3471.0,3467.4,665.2,891.5,405.9,3500.2,790.2,788.6,3483.2,3475.9,403.5,651.4,475.0,540.2,243.2,243.2,3478.3,3472.2,576.2,453.7,680.7,1112.1,1375.7,431.7,7.0,-7.0,7.0,14262.0,3272.0,2328.0,6993.0,1.0,17.0,-1.0,0.0,2.0,8.0,15835.0,3598.0,625.0,2084.0,-1.0,2.0,-2.0,1.0
2022-05-08 14:30:47.960482-07:00,864.6,1055.6,1393.0,1069.5,623.8,464.8,1418.6,1028.8,3471.0,3467.4,665.2,890.7,405.9,3502.7,790.2,785.2,3477.1,3473.4,402.8,651.4,479.0,540.2,243.2,243.2,3475.9,3479.5,576.2,453.7,675.8,1112.1,1375.7,431.7,10.0,-9.0,-6.0,14262.0,3265.0,2332.0,6996.0,-28.0,7.0,-1.0,3.0,-2.0,1.0,15836.0,3593.0,626.0,2084.0,-17.0,10.0,3.0,1.0
2022-05-08 14:30:47.961601-07:00,862.9,1055.6,1401.2,1069.5,628.6,464.8,1418.6,1028.8,3478.3,3474.6,666.0,890.7,406.7,3502.7,790.2,785.2,3477.1,3473.4,402.8,650.5,479.0,534.6,240.9,243.9,3475.9,3479.5,576.2,459.3,675.8,1117.4,1377.5,433.3,7.0,0.0,-5.0,14259.0,3274.0,2337.0,6994.0,36.0,-5.0,-6.0,-1.0,5.0,-1.0,15834.0,3602.0,628.0,2084.0,27.0,-1.0,-1.0,1.0
2022-05-08 14:30:48.081079-07:00,862.9,1055.6,1401.2,1070.3,628.6,464.0,1418.6,1030.6,3478.3,3474.6,666.0,889.0,406.7,3500.2,789.4,791.0,3477.1,3479.5,402.0,650.5,471.9,534.6,240.9,243.9,3477.1,3480.7,582.6,459.3,679.1,1117.4,1377.5,433.3,1.0,2.0,6.0,14258.0,3275.0,2336.0,6998.0,-31.0,-1.0,13.0,2.0,5.0,10.0,15835.0,3601.0,627.0,2084.0,-24.0,-6.0,5.0,1.0
2022-05-08 14:30:48.081891-07:00,868.8,1053.0,1391.2,1069.5,627.0,464.0,1418.6,1030.6,3484.4,3461.3,665.2,889.0,409.8,3500.2,789.4,791.0,3477.1,3479.5,402.0,652.2,478.2,537.8,240.1,246.2,3477.1,3480.7,582.6,456.9,679.1,1115.6,1372.1,432.5,7.0,-9.0,2.0,14257.0,3274.0,2344.0,6997.0,-3.0,38.0,-20.0,5.0,-3.0,10.0,15835.0,3599.0,626.0,2084.0,-13.0,0.0,1.0,1.0
2022-05-08 14:30:48.140835-07:00,868.8,1053.0,1391.2,1069.5,630.3,465.6,1415.8,1030.6,3484.4,3461.3,665.2,889.0,407.5,3495.3,791.9,790.2,3479.5,3472.2,400.4,651.4,478.2,537.8,240.1,246.2,3484.4,3477.1,579.4,456.1,679.1,1115.6,1372.1,432.5,6.0,-3.0,-6.0,14264.0,3275.0,2356.0,6978.0,4.0,2.0,-36.0,0.0,25.0,-1.0,15835.0,3599.0,626.0,2084.0,-6.0,-10.0,-5.0,1.0
2022-05-08 14:30:48.200480-07:00,867.1,1056.5,1400.3,1061.7,630.3,465.6,1415.8,1030.6,3475.9,3479.5,667.6,889.8,407.5,3495.3,791.9,790.2,3479.5,3472.2,400.4,651.4,477.4,533.8,242.4,244.7,3484.4,3477.1,579.4,456.1,677.4,1110.4,1381.2,431.7,12.0,1.0,5.0,14265.0,3274.0,2353.0,6978.0,3.0,-8.0,13.0,5.0,9.0,8.0,15835.0,3599.0,624.0,2084.0,1.0,-11.0,-2.0,1.0
2022-05-08 14:30:48.350430-07:00,867.1,1056.5,1400.3,1061.7,631.9,469.5,1413.1,1022.8,3475.9,3479.5,667.6,889.8,411.4,3500.2,786.9,786.9,3488.0,3479.5,401.2,650.5,477.4,533.8,242.4,244.7,3477.1,3467.4,577.0,451.4,677.4,1110.4,1381.2,431.7,13.0,-6.0,6.0,14263.0,3272.0,2351.0,6983.0,4.0,1.0,1.0,7.0,2.0,7.0,15835.0,3598.0,624.0,2084.0,10.0,11.0,-1.0,1.0
2022-05-08 14:30:48.351397-07:00,867.1,1059.9,1396.7,1067.7,631.9,469.5,1413.1,1022.8,3474.6,3471.0,679.9,891.5,411.4,3500.2,786.9,786.9,3488.0,3479.5,401.2,650.5,480.6,533.0,239.3,244.7,3477.1,3467.4,577.0,451.4,677.4,1116.5,1379.4,427.0,4.0,0.0,-4.0,14260.0,3273.0,2353.0,6989.0,-11.0,8.0,24.0,1.0,7.0,2.0,15835.0,3600.0,627.0,2084.0,-8.0,1.0,9.0,1.0
2022-05-08 14:30:48.381028-07:00,867.1,1059.9,1396.7,1067.7,627.0,467.9,1422.2,1023.7,3474.6,3471.0,679.9,891.5,403.5,3490.5,786.1,791.0,3472.2,3477.1,401.2,646.5,480.6,533.0,239.3,244.7,3488.0,3483.2,574.6,449.0,677.4,1116.5,1379.4,427.0,12.0,9.0,4.0,14257.0,3277.0,2354.0,6993.0,24.0,4.0,5.0,0.0,17.0,-3.0,15834.0,3601.0,627.0,2084.0,5.0,-9.0,3.0,1.0
2022-05-08 14:30:48.381878-07:00,862.9,1054.8,1396.7,1070.3,627.0,467.9,1422.2,1020.2,3469.8,3478.3,666.8,884.8,403.5,3490.5,786.1,785.2,3478.3,3477.1,401.2,646.5,476.6,538.6,240.1,241.6,3479.5,3483.2,574.6,449.0,679.1,1121.7,1380.3,430.9,13.0,7.0,6.0,14260.0,3277.0,2366.0,6983.0,9.0,17.0,-48.0,5.0,15.0,-2.0,15835.0,3599.0,627.0,2083.0,-8.0,-2.0,-12.0,1.0
2022-05-08 14:30:48.440558-07:00,866.3,1054.8,1396.7,1070.3,628.6,468.7,1414.9,1020.2,3469.8,3478.3,666.8,884.8,408.2,3507.5,791.9,785.2,3478.3,3478.3,408.2,650.5,476.6,538.6,240.1,243.9,3479.5,3473.4,579.4,447.4,679.1,1121.7,1380.3,432.5,8.0,-8.0,-2.0,14262.0,3277.0,2376.0,6975.0,2.0,13.0,-3.0,1.0,4.0,3.0,15835.0,3601.0,628.0,2077.0,3.0,3.0,-11.0,1.0
2022-05-08 14:30:48.470633-07:00,866.3,1051.3,1400.3,1067.7,628.6,468.7,1414.9,1021.9,3469.8,3468.6,670.9,890.7,408.2,3507.5,791.9,789.4,3479.5,3478.3,408.2,650.5,476.6,539.4,246.2,243.9,3483.2,3473.4,579.4,447.4,682.3,1114.7,1378.5,432.5,12.0,-10.0,3.0,14260.0,3275.0,2373.0,6980.0,10.0,-2.0,20.0,6.0,2.0,9.0,15835.0,3601.0,628.0,2077.0,13.0,-4.0,7.0,1.0
2022-05-08 14:30:48.650528-07:00,865.4,1051.3,1400.3,1067.7,627.8,465.6,1416.7,1021.9,3478.3,3468.6,670.9,890.7,407.5,3502.7,793.5,789.4,3479.5,3475.9,405.1,646.5,476.6,539.4,246.2,242.4,3483.2,3474.6,577.8,447.4,682.3,1114.7,1378.5,427.8,13.0,6.0,10.0,14258.0,3277.0,2372.0,6985.0,-7.0,13.0,12.0,2.0,8.0,3.0,15835.0,3602.0,628.0,2077.0,0.0,8.0,6.0,1.0
2022-05-08 14:30:48.651659-07:00,865.4,1050.4,1404.0,1075.6,627.8,465.6,1416.7,1021.1,3478.3,3467.4,664.4,909.3,407.5,3502.7,793.5,783.6,3467.4,3475.9,405.1,646.5,475.0,533.0,244.7,242.4,3481.9,3474.6,577.8,447.4,680.7,1117.4,1370.3,427.8,4.0,0.0,-12.0,14254.0,3277.0,2381.0,6988.0,17.0,19.0,8.0,0.0,5.0,-2.0,15834.0,3603.0,636.0,2078.0,14.0,15.0,-1.0,1.0
2022-05-08 14:30:48.652384-07:00,864.6,1050.4,1404.0,1075.6,625.4,468.7,1413.1,1021.1,3480.7,3467.4,664.4,909.3,408.2,3495.3,790.2,783.6,3467.4,3477.1,403.5,650.5,475.0,533.0,244.7,241.6,3481.9,3477.1,580.2,453.7,680.7,1117.4,1370.3,430.9,11.0,2.0,-6.0,14256.0,3279.0,2376.0,6987.0,-19.0,-24.0,3.0,9.0,0.0,1.0,15835.0,3601.0,636.0,2079.0,-15.0,-9.0,-1.0,1.0
2022-05-08 14:30:48.654348-07:00,864.6,1056.5,1426.8,1068.6,625.4,468.7,1411.3,1024.5,3480.7,3474.6,670.9,894.1,408.2,3495.3,791.0,784.4,3483.2,3475.9,403.5,650.5,479.0,533.8,240.9,241.6,3475.9,3481.9,580.2,453.7,682.3,1113.9,1377.5,430.9,18.0,2.0,16.0,14256.0,3283.0,2371.0,6986.0,17.0,5.0,-7.0,6.0,11.0,7.0,15835.0,3599.0,633.0,2078.0,9.0,2.0,-1.0,1.0
2022-05-08 14:30:48.710448-07:00,862.9,1055.6,1426.8,1068.6,631.1,468.7,1411.3,1024.5,3473.4,3480.7,670.9,894.1,409.0,3497.8,791.0,784.4,3483.2,3475.9,404.3,651.4,479.0,533.8,243.9,243.2,3475.9,3481.9,579.4,447.4,682.3,1113.9,1382.1,430.2,8.0,0.0,-9.0,14257.0,3284.0,2386.0,6978.0,35.0,28.0,-27.0,0.0,12.0,-7.0,15835.0,3599.0,633.0,2078.0,5.0,5.0,-1.0,1.0
2022-05-08 14:30:48.920351-07:00,862.9,1055.6,1400.3,1069.5,631.1,468.7,1418.6,1024.5,3473.4,3480.7,669.3,892.4,409.0,3497.8,787.7,789.4,3478.3,3478.3,404.3,651.4,481.4,538.6,243.9,243.2,3474.6,3481.9,579.4,447.4,681.5,1114.7,1382.1,430.2,6.0,-11.0,-4.0,14257.0,3282.0,2391.0,6978.0,11.0,-4.0,0.0,0.0,2.0,-2.0,15836.0,3596.0,633.0,2078.0,0.0,-9.0,-1.0,1.0
2022-05-08 14:30:48.921290-07:00,868.8,1051.3,1400.3,1069.5,627.0,466.4,1418.6,1024.5,3478.3,3472.2,669.3,892.4,411.4,3492.9,787.7,789.4,3478.3,3478.3,403.5,651.4,481.4,538.6,243.9,237.8,3474.6,3481.9,582.6,447.4,681.5,1114.7,1379.4,438.0,13.0,2.0,11.0,14256.0,3286.0,2393.0,6978.0,-13.0,-3.0,3.0,7.0,2.0,5.0,15835.0,3599.0,634.0,2078.0,-7.0,10.0,4.0,1.0
2022-05-08 14:30:48.980340-07:00,868.8,1051.3,1394.8,1073.8,627.0,466.4,1414.9,1024.5,3478.3,3472.2,670.1,889.8,411.4,3492.9,790.2,784.4,3483.2,3483.2,403.5,651.4,475.8,532.2,243.9,237.8,3477.1,3478.3,582.6,447.4,681.5,1113.0,1379.4,438.0,12.0,2.0,0.0,14253.0,3288.0,2402.0,6978.0,13.0,24.0,8.0,2.0,6.0,-8.0,15834.0,3602.0,640.0,2079.0,11.0,14.0,3.0,1.0
2022-05-08 14:30:49.011210-07:00,865.4,1053.0,1394.8,1073.8,627.0,467.1,1414.9,1024.5,3473.4,3479.5,670.1,889.8,411.4,3491.7,790.2,784.4,3483.2,3483.2,404.3,651.4,475.8,532.2,240.1,244.7,3477.1,3478.3,581.0,450.6,681.5,1113.0,1373.9,432.5,13.0,4.0,-6.0,14252.0,3290.0,2403.0,6981.0,12.0,-18.0,10.0,3.0,10.0,-1.0,15834.0,3603.0,641.0,2079.0,6.0,-2.0,4.0,1.0
2022-05-08 14:30:49.012128-07:00,865.4,1053.0,1390.3,1070.3,627.0,460.8,1419.5,1022.8,3473.4,3479.5,664.4,891.5,411.4,3495.3,790.2,791.9,3475.9,3480.7,406.7,651.4,473.5,533.8,240.1,244.7,3464.9,3479.5,581.8,450.6,675.0,1111.2,1373.9,432.5,14.0,2.0,13.0,14253.0,3294.0,2403.0,6975.0,16.0,11.0,-25.0,8.0,7.0,10.0,15834.0,3603.0,641.0,2079.0,6.0,7.0,-4.0,1.0
2022-05-08 14:30:49.013266-07:00,867.9,1052.2,1404.9,1070.3,628.6,460.8,1419.5,1022.8,3479.5,3474.6,667.6,891.5,409.8,3495.3,790.2,791.9,3475.9,3480.7,406.7,648.9,473.5,535.4,243.2,241.6,3464.9,3479.5,581.8,445.1,675.0,1118.2,1377.5,434.1,12.0,-6.0,-2.0,14253.0,3294.0,2416.0,6971.0,7.0,28.0,-6.0,3.0,2.0,1.0,15834.0,3603.0,644.0,2078.0,2.0,6.0,-9.0,1.0
2022-05-08 14:30:49.191576-07:00,867.9,1052.2,1404.9,1067.7,628.6,464.8,1416.7,1021.1,3479.5,3474.6,667.6,895.7,409.8,3492.9,790.2,790.2,3484.4,3474.6,405.9,648.9,476.6,535.4,243.2,241.6,3478.3,3472.2,575.4,445.1,679.1,1118.2,1377.5,434.1,16.0,-1.0,0.0,14253.0,3297.0,2418.0,6970.0,16.0,-15.0,0.0,3.0,1.0,-2.0,15834.0,3604.0,644.0,2078.0,6.0,3.0,3.0,1.0
2022-05-08 14:30:49.192720-07:00,868.8,1052.2,1393.0,1067.7,628.6,464.8,1416.7,1021.1,3472.2,3479.5,666.8,895.7,408.2,3492.9,790.2,790.2,3484.4,3474.6,405.9,652.2,476.6,541.0,247.7,241.6,3478.3,3472.2,575.4,449.0,679.1,1119.1,1381.2,429.4,16.0,5.0,11.0,14253.0,3301.0,2414.0,6969.0,21.0,2.0,2.0,5.0,7.0,3.0,15833.0,3607.0,645.0,2078.0,24.0,11.0,-5.0,1.0
2022-05-08 14:30:49.193480-07:00,868.8,1052.2,1393.0,1066.0,628.6,466.4,1422.2,1024.5,3472.2,3479.5,666.8,888.2,408.2,3496.6,784.4,789.4,3467.4,3474.6,404.3,652.2,475.0,541.0,247.7,241.6,3479.5,3477.1,577.8,449.0,680.7,1119.1,1381.2,429.4,8.0,-3.0,-3.0,14251.0,3299.0,2422.0,6970.0,-15.0,11.0,-5.0,-2.0,4.0,-3.0,15833.0,3606.0,646.0,2079.0,-6.0,-2.0,-6.0,1.0
2022-05-08 14:30:49.220846-07:00,872.1,1059.1,1400.3,1066.0,627.0,466.4,1422.2,1024.5,3472.2,3474.6,670.1,888.2,405.9,3496.6,784.4,789.4,3467.4,3474.6,404.3,646.5,475.0,537.8,244.7,250.8,3479.5,3477.1,577.8,445.9,680.7,1111.2,1377.5,433.3,10.0,-6.0,-2.0,14251.0,3299.0,2422.0,6970.0,-4.0,-13.0,-3.0,3.0,0.0,-1.0,15833.0,3606.0,646.0,2079.0,5.0,-3.0,0.0,1.0
2022-05-08 14:30:49.250867-07:00,872.1,1059.1,1400.3,1071.2,631.9,468.7,1414.0,1025.4,3472.2,3474.6,670.1,891.5,407.5,3491.7,787.7,787.7,3478.3,3472.2,408.2,657.0,475.8,537.8,244.7,250.8,3481.9,3468.6,576.2,448.2,679.1,1111.2,1377.5,433.3,12.0,4.0,9.0,14252.0,3303.0,2416.0,6969.0,-22.0,-21.0,4.0,3.0,11.0,6.0,15833.0,3605.0,646.0,2079.0,-10.0,-3.0,3.0,1.0
2022-05-08 14:30:49.491427-07:00,863.7,1053.0,1398.5,1067.7,631.9,468.7,1414.0,1025.4,3473.4,3467.4,667.6,894.9,407.5,3491.7,787.7,787.7,3478.3,3472.2,408.2,657.0,480.6,532.2,243.2,242.4,3481.9,3468.6,576.2,448.2,681.5,1120.9,1377.5,432.5,13.0,4.0,4.0,14252.0,3304.0,2415.0,6969.0,12.0,17.0,4.0,3.0,15.0,2.0,15833.0,3605.0,646.0,2079.0,-2.0,8.0,0.0,1.0
2022-05-08 14:30:49.492398-07:00,863.7,1053.0,1398.5,1067.7,631.1,468.7,1414.0,1028.8,3473.4,3467.4,667.6,894.9,404.3,3497.8,793.5,786.9,3473.4,3473.4,402.0,648.9,480.6,532.2,243.2,242.4,3475.9,3475.9,580.2,443.5,681.5,1120.9,1377.5,432.5,10.0,-9.0,-11.0,14251.0,3301.0,2421.0,6970.0,2.0,-3.0,5.0,1.0,3.0,-4.0,15833.0,3605.0,646.0,2079.0,1.0,-3.0,4.0,1.0
2022-05-08 14:30:49.493409-07:00,865.4,1048.7,1391.2,1069.5,631.1,468.7,1414.0,1028.8,3467.4,3468.6,666.8,895.7,404.3,3497.8,793.5,786.9,3473.4,3473.4,402.0,648.9,478.2,534.6,237.8,236.3,3475.9,3475.9,580.2,443.5,679.9,1115.6,1373.9,430.9,21.0,2.0,5.0,14253.0,3303.0,2414.0,6969.0,-14.0,-23.0,7.0,7.0,12.0,1.0,15834.0,3606.0,644.0,2078.0,-5.0,-4.0,7.0,1.0
2022-05-08 14:30:49.494338-07:00,865.4,1048.7,1391.2,1069.5,627.0,467.9,1414.9,1021.1,3467.4,3468.6,666.8,895.7,405.9,3494.1,791.0,788.6,3481.9,3472.2,405.1,652.2,478.2,534.6,237.8,236.3,3480.7,3479.5,581.0,446.7,679.9,1115.6,1373.9,430.9,12.0,2.0,2.0,14254.0,3302.0,2411.0,6968.0,-2.0,7.0,4.0,0.0,13.0,4.0,15834.0,3606.0,644.0,2078.0,-7.0,11.0,-2.0,1.0
2022-05-08 14:30:49.550542-07:00,862.1,1047.0,1388.5,1066.0,627.0,467.9,1414.9,1021.1,3471.0,3475.9,662.7,891.5,405.9,3494.1,791.0,788.6,3481.9,3472.2,405.1,652.2,477.4,541.0,247.7,235.5,3480.7,3479.5,581.0,446.7,676.6,1113.0,1374.8,434.1,15.0,-3.0,-9.0,14253.0,3301.0,2412.0,6969.0,2.0,-8.0,-2.0,5.0,8.0,-4.0,15834.0,3605.0,645.0,2078.0,-6.0,-5.0,-1.0,1.0
2022-05-08 14:30:49.551694-07:00,862.1,1047.0,1388.5,1066.0,629.5,469.5,1416.7,1034.0,3472.2,3475.9,662.7,891.5,409.8,3507.5,788.6,785.2,3474.6,3485.6,408.2,653.0,477.4,541.0,247.7,244.7,3471.0,3478.3,578.6,449.0,676.6,1113.0,1374.8,434.1,14.0,-6.0,13.0,14255.0,3301.0,2403.0,6968.0,-10.0,-19.0,-6.0,5.0,5.0,5.0,15834.0,3602.0,645.0,2078.0,-2.0,-1.0,-2.0,1.0
2022-05-08 14:30:49.640774-07:00,862.1,1049.6,1389.4,1070.3,629.5,469.5,1416.7,1021.1,3472.2,3468.6,662.7,894.9,409.8,3507.5,788.6,790.2,3480.7,3485.6,408.2,653.0,474.3,535.4,240.1,244.7,3472.2,3478.3,578.6,449.0,695.4,1109.5,1373.9,434.1,11.0,-7.0,4.0,14255.0,3301.0,2404.0,6968.0,-3.0,13.0,4.0,1.0,11.0,4.0,15834.0,3602.0,646.0,2079.0,-13.0,7.0,5.0,1.0
2022-05-08 14:30:49.761139-07:00,857.0,1049.6,1389.4,1070.3,627.0,466.4,1421.3,1021.1,3477.1,3468.6,662.7,894.9,409.8,3494.1,784.4,790.2,3480.7,3467.4,408.2,657.9,474.3,535.4,240.1,240.9,3472.2,3474.6,578.6,450.6,695.4,1109.5,1373.9,430.2,17.0,-5.0,-3.0,14255.0,3296.0,2402.0,6971.0,-16.0,0.0,6.0,9.0,5.0,0.0,15836.0,3595.0,645.0,2079.0,-2.0,4.0,7.0,1.0
2022-05-08 14:30:49.791344-07:00,857.0,1047.0,1398.5,1064.3,627.0,466.4,1421.3,1020.2,3477.1,3477.1,666.0,888.2,409.8,3494.1,784.4,786.9,3477.1,3467.4,408.2,657.9,478.2,537.8,243.2,240.9,3477.1,3474.6,578.6,450.6,678.2,1119.1,1373.0,430.2,11.0,-1.0,1.0,14255.0,3300.0,2402.0,6970.0,11.0,6.0,4.0,3.0,11.0,1.0,15835.0,3599.0,645.0,2079.0,10.0,-2.0,1.0,1.0
2022-05-08 14:30:49.792519-07:00,867.1,1047.0,1398.5,1064.3,629.5,466.4,1415.8,1020.2,3478.3,3477.1,666.0,888.2,412.9,3507.5,787.7,786.9,3477.1,3467.4,405.1,646.5,478.2,537.8,243.2,243.2,3477.1,3479.5,577.8,449.8,678.2,1119.1,1373.0,430.9,11.0,-11.0,8.0,14252.0,3306.0,2409.0,6971.0,43.0,31.0,11.0,0.0,5.0,0.0,15833.0,3609.0,647.0,2078.0,43.0,9.0,6.0,1.0
2022-05-08 14:30:49.820615-07:00,867.1,1055.6,1399.4,1065.1,629.5,466.4,1415.8,1023.7,3478.3,3472.2,662.7,895.7,412.9,3507.5,787.7,788.6,3479.5,3467.4,405.1,646.5,478.2,533.8,241.6,243.2,3478.3,3479.5,577.8,449.8,679.1,1113.9,1384.8,430.9,18.0,-20.0,-2.0,14239.0,3319.0,2438.0,6980.0,82.0,74.0,26.0,5.0,-6.0,-10.0,15827.0,3632.0,654.0,2082.0,88.0,11.0,9.0,1.0
2022-05-08 14:30:49.851336-07:00,866.3,1046.1,1399.4,1065.1,627.8,465.6,1415.8,1023.7,3474.6,3468.6,662.7,895.7,409.8,3500.2,786.9,788.6,3479.5,3481.9,406.7,650.5,478.2,533.8,240.1,245.4,3478.3,3477.1,573.8,445.1,679.1,1113.9,1374.8,429.4,31.0,-48.0,25.0,14214.0,3366.0,2500.0,6987.0,230.0,143.0,-3.0,1.0,-66.0,-29.0,15811.0,3699.0,665.0,2079.0,267.0,-1.0,-16.0,1.0
2022-05-08 14:30:49.941270-07:00,866.3,1046.1,1393.0,1070.3,627.8,465.6,1412.2,1026.3,3474.6,3468.6,666.8,894.1,409.8,3500.2,791.9,790.2,3479.5,3471.0,406.7,650.5,475.8,533.8,240.1,245.4,3488.0,3478.3,573.8,445.1,683.1,1111.2,1374.8,429.4,5.0,-91.0,7.0,14138.0,3582.0,2757.0,6937.0,1144.0,357.0,-105.0,-2.0,-97.0,-15.0,15735.0,4018.0,731.0,2044.0,1157.0,62.0,-93.0,1.0
2022-05-08 14:30:49.972676-07:00,867.9,1059.9,1393.0,1070.3,623.0,468.7,1412.2,1026.3,3473.4,3464.9,666.8,894.1,409.0,3491.7,791.9,790.2,3479.5,3471.0,402.0,653.8,475.8,533.8,243.2,237.8,3488.0,3478.3,575.4,449.8,683.1,1111.2,1376.6,426.2,2.0,-82.0,-40.0,13949.0,4185.0,3253.0,6764.0,2173.0,418.0,-148.0,-5.0,-61.0,-14.0,15541.0,4722.0,858.0,1970.0,2063.0,42.0,-114.0,1.0
2022-05-08 14:30:50.000463-07:00,867.9,1059.9,1396.7,1071.2,623.0,468.7,1420.4,1045.2,3473.4,3464.9,666.8,895.7,409.0,3491.7,796.9,782.7,3485.6,3488.0,402.0,653.8,475.8,535.4,243.2,237.8,3485.6,3479.5,575.4,449.8,684.0,1116.5,1376.6,426.2,6.0,0.0,-7.0,13593.0,5152.0,3850.0,6503.0,3280.0,95.0,-81.0,3.0,0.0,-1.0,15175.0,5805.0,1040.0,1834.0,2998.0,69.0,-240.0,1.0
2022-05-08 14:30:50.060497-07:00,869.6,1062.5,1396.7,1071.2,634.3,473.5,1420.4,1045.2,3484.4,3478.3,666.8,895.7,406.7,3502.7,796.9,782.7,3485.6,3488.0,407.5,649.7,475.8,535.4,245.4,242.4,3485.6,3479.5,584.3,443.5,684.0,1116.5,1380.3,428.6,42.0,158.0,18.0,13096.0,6339.0,4464.0,6067.0,3329.0,102.0,-199.0,1.0,135.0,-40.0,14685.0,6968.0,1269.0,1615.0,2917.0,124.0,-422.0,1.0
2022-05-08 14:30:50.150525-07:00,869.6,1062.5,1389.4,1070.3,634.3,473.5,1419.5,1073.8,3484.4,3478.3,671.7,891.5,406.7,3502.7,792.7,787.7,3473.4,3477.1,407.5,649.7,473.5,537.0,245.4,242.4,3486.8,3488.0,584.3,443.5,680.7,1111.2,1380.3,428.6,12.0,-7.0,1.0,12530.0,7312.0,5088.0,5663.0,3160.0,378.0,-242.0,-94.0,217.0,-9.0,14154.0,7993.0,1551.0,1348.0,2993.0,208.0,-550.0,1.0
2022-05-08 14:30:50.181200-07:00,869.6,1044.4,1395.7,1070.3,629.5,474.3,1419.5,1073.8,3474.6,3478.3,671.7,891.5,408.2,3507.5,792.7,787.7,3473.4,3477.1,404.3,652.2,473.5,538.6,245.4,246.2,3486.8,3488.0,587.5,449.0,680.7,1115.6,1370.3,430.9,15.0,2.0,-36.0,11773.0,8371.0,5739.0,5178.0,3677.0,293.0,-81.0,2.0,-16.0,-46.0,13430.0,9126.0,1925.0,1042.0,3265.0,378.0,-663.0,1.0
2022-05-08 14:30:50.210516-07:00,869.6,1044.4,1395.7,1062.5,629.5,471.1,1416.7,1069.5,3474.6,3478.3,671.7,891.5,408.2,3486.8,797.7,791.0,3475.9,3480.7,398.1,652.2,479.0,538.6,245.4,246.2,3478.3,3473.4,588.3,449.0,681.5,1115.6,1370.3,430.9,5.0,-143.0,-2.0,10910.0,9437.0,6221.0,4652.0,3812.0,-56.0,166.0,4.0,-105.0,-8.0,12561.0,10236.0,2304.0,758.0,3711.0,473.0,-591.0,1.0
2022-05-08 14:30:50.270900-07:00,870.5,1039.2,1400.3,1062.5,627.0,471.1,1416.7,1069.5,3477.1,3478.3,675.8,891.5,412.9,3486.8,797.7,791.0,3475.9,3480.7,398.1,655.4,479.0,541.0,242.4,244.7,3478.3,3473.4,588.3,449.0,681.5,1113.0,1383.0,430.2,42.0,28.0,-100.0,9486.0,10905.0,6697.0,3832.0,5766.0,40.0,347.0,-31.0,-21.0,-167.0,11126.0,11701.0,2755.0,401.0,5202.0,626.0,-662.0,1.0
2022-05-08 14:30:50.330552-07:00,870.5,1039.2,1400.3,1066.9,627.0,475.8,1411.3,1072.9,3477.1,3478.3,675.8,889.8,412.9,3496.6,798.5,786.1,3477.1,3478.3,404.3,655.4,476.6,541.0,242.4,244.7,3490.5,3483.2,584.3,449.0,681.5,1113.0,1383.0,430.2,50.0,36.0,-42.0,8025.0,12020.0,7115.0,2989.0,3888.0,-15.0,-81.0,-2.0,46.0,-48.0,9687.0,12845.0,3101.0,87.0,3549.0,480.0,-404.0,1.0
2022-05-08 14:30:50.390699-07:00,869.6,1026.3,1400.3,1066.9,632.7,475.8,1411.3,1072.9,3463.7,3467.4,675.0,889.8,408.2,3496.6,798.5,786.1,3477.1,3478.3,404.3,646.5,476.6,547.4,240.9,243.9,3490.5,3483.2,584.3,450.6,681.5,1116.5,1372.1,431.7,30.0,-88.0,5.0,6776.0,12763.0,7383.0,2261.0,4072.0,103.0,84.0,9.0,-110.0,-93.0,8471.0,13637.0,3268.0,-130.0,3476.0,306.0,-196.0,1.0
2022-05-08 14:30:50.421175-07:00,869.6,1026.3,1400.3,1070.3,632.7,472.7,1414.9,1075.6,3463.7,3467.4,675.0,907.6,408.2,3496.6,791.0,787.7,3480.7,3475.9,405.1,646.5,475.8,547.4,240.9,243.9,3480.7,3488.0,587.5,450.6,684.8,1116.5,1372.1,431.7,7.0,91.0,2.0,5401.0,13392.0,7577.0,1578.0,3447.0,185.0,58.0,0.0,-18.0,9.0,7261.0,14295.0,3357.0,-293.0,2771.0,371.0,-23.0,1.0
2022-05-08 14:30:50.660544-07:00,866.3,1032.3,1404.0,1066.0,627.8,472.7,1414.9,1075.6,3478.3,3472.2,679.9,899.1,408.2,3496.6,791.0,787.7,3480.7,3475.9,405.1,646.5,475.8,549.8,246.2,243.2,3480.7,3488.0,587.5,448.2,687.2,1116.5,1378.5,429.4,9.0,57.0,-17.0,4318.0,13757.0,7711.0,1034.0,2855.0,127.0,-109.0,-3.0,-13.0,-36.0,6326.0,14730.0,3363.0,-375.0,2314.0,263.0,21.0,1.0
2022-05-08 14:30:50.663589-07:00,866.3,1032.3,1404.0,1066.0,630.3,477.4,1427.7,1069.5,3478.3,3472.2,679.9,899.1,408.2,3499.0,796.0,786.1,3478.3,3479.5,401.2,655.4,475.8,549.8,246.2,243.2,3486.8,3477.1,581.8,449.0,687.2,1116.5,1378.5,429.4,15.0,124.0,-8.0,3274.0,13994.0,7852.0,497.0,2515.0,152.0,-216.0,2.0,19.0,-8.0,5388.0,15085.0,3407.0,-496.0,2153.0,233.0,-150.0,1.0
2022-05-08 14:30:50.664577-07:00,867.9,1028.0,1408.5,1066.0,630.3,477.4,1427.7,1069.5,3472.2,3467.4,684.8,888.2,408.2,3499.0,796.0,786.1,3478.3,3479.5,401.2,655.4,479.8,546.6,247.7,244.7,3486.8,3477.1,581.8,449.0,680.7,1114.7,1378.5,432.5,27.0,140.0,-5.0,2533.0,14080.0,7985.0,104.0,1628.0,84.0,-336.0,-6.0,57.0,-8.0,4703.0,15290.0,3494.0,-579.0,1408.0,221.0,-238.0,1.0
2022-05-08 14:30:50.665361-07:00,867.9,1028.0,1408.5,1066.0,627.0,476.6,1430.5,1079.9,3472.2,3467.4,684.8,888.2,407.5,3497.8,815.2,791.9,3467.4,3481.9,405.1,653.8,479.8,546.6,247.7,244.7,3467.4,3481.9,579.4,447.4,680.7,1114.7,1378.5,432.5,15.0,9.0,16.0,1950.0,14080.0,8145.0,-199.0,1428.0,134.0,-500.0,5.0,-58.0,-23.0,4172.0,15412.0,3620.0,-633.0,1140.0,244.0,-322.0,1.0
2022-05-08 14:30:50.666136-07:00,867.9,1025.4,1406.7,1063.4,627.0,476.6,1430.5,1079.9,3473.4,3471.0,692.1,894.9,407.5,3497.8,815.2,791.9,3467.4,3481.9,405.1,653.8,477.4,553.0,244.7,238.6,3467.4,3481.9,579.4,447.4,671.7,1111.2,1377.5,429.4,17.0,25.0,-4.0,1535.0,14017.0,8335.0,-356.0,773.0,265.0,-482.0,0.0,-85.0,-30.0,3808.0,15469.0,3768.0,-665.0,690.0,192.0,-392.0,1.0
2022-05-08 14:30:50.721747-07:00,867.9,1025.4,1406.7,1063.4,627.0,470.3,1436.0,1074.7,3473.4,3471.0,692.1,894.9,412.1,3503.9,825.2,788.6,3474.6,3474.6,405.9,653.8,477.4,553.0,244.7,238.6,3479.5,3477.1,581.0,452.2,671.7,1111.2,1377.5,429.4,44.0,-45.0,12.0,1218.0,13928.0,8532.0,-416.0,661.0,333.0,-537.0,7.0,-124.0,-43.0,3582.0,15487.0,3907.0,-689.0,563.0,169.0,-415.0,1.0
2022-05-08 14:30:50.810474-07:00,867.9,1019.4,1414.0,1069.5,627.0,470.3,1436.0,1074.7,3474.6,3469.8,699.5,894.9,412.1,3503.9,825.2,788.6,3474.6,3474.6,405.9,653.8,475.0,549.8,245.4,243.2,3479.5,3477.1,581.0,452.2,685.6,1106.0,1371.2,435.7,29.0,-38.0,23.0,915.0,13850.0,8695.0,-408.0,442.0,449.0,-324.0,6.0,-68.0,-14.0,3322.0,15504.0,4060.0,-727.0,476.0,98.0,-262.0,1.0
2022-05-08 14:30:50.841494-07:00,860.4,1019.4,1414.0,1069.5,631.9,472.7,1441.5,1070.3,3467.4,3469.8,699.5,894.9,408.2,3500.2,824.4,791.0,3484.4,3477.1,405.9,654.6,475.0,549.8,245.4,247.7,3477.1,3475.9,589.1,452.2,685.6,1106.0,1371.2,433.3,6.0,6.0,-1.0,736.0,13818.0,8767.0,-306.0,73.0,341.0,-64.0,30.0,-27.0,26.0,3126.0,15525.0,4132.0,-758.0,165.0,48.0,-26.0,1.0
2022-05-08 14:30:50.960536-07:00,860.4,1016.8,1413.1,1075.6,631.9,472.7,1441.5,1060.8,3467.4,3480.7,698.7,894.1,408.2,3500.2,824.4,787.7,3474.6,3477.1,405.9,654.6,474.3,552.2,244.7,247.7,3477.1,3475.9,589.1,452.2,679.9,1115.6,1373.9,433.3,17.0,111.0,8.0,736.0,13834.0,8745.0,-196.0,-257.0,140.0,113.0,21.0,-4.0,21.0,3112.0,15535.0,4105.0,-749.0,-161.0,6.0,127.0,1.0
2022-05-08 14:30:50.961601-07:00,865.4,1016.8,1413.1,1075.6,629.5,473.5,1441.5,1060.8,3478.3,3480.7,698.7,894.1,408.2,3489.2,820.2,787.7,3474.6,3477.1,406.7,648.1,474.3,552.2,244.7,242.4,3477.1,3477.1,581.0,449.8,679.9,1115.6,1373.9,433.3,23.0,67.0,23.0,744.0,13842.0,8733.0,-124.0,-4.0,155.0,-3.0,10.0,-25.0,-1.0,3155.0,15538.0,4067.0,-715.0,-12.0,63.0,47.0,1.0
2022-05-08 14:30:51.110486-07:00,865.4,1014.2,1411.3,1075.6,629.5,473.5,1441.5,1048.7,3478.3,3478.3,706.0,898.3,408.2,3489.2,820.2,791.9,3477.1,3477.1,406.7,648.1,475.0,550.6,240.9,242.4,3477.1,3477.1,581.0,449.8,679.9,1116.5,1376.6,433.3,12.0,54.0,-10.0,747.0,13822.0,8766.0,-5.0,-152.0,215.0,-113.0,5.0,-29.0,-4.0,3154.0,15538.0,4075.0,-685.0,-97.0,40.0,-57.0,1.0
2022-05-08 14:30:51.111671-07:00,862.1,1014.2,1411.3,1075.6,631.1,471.1,1444.2,1048.7,3469.8,3478.3,706.0,898.3,413.7,3499.0,819.4,791.9,3477.1,3477.1,407.5,652.2,475.0,550.6,240.9,246.2,3477.1,3475.9,581.0,450.6,679.9,1116.5,1376.6,436.4,6.0,24.0,-14.0,739.0,13802.0,8797.0,61.0,-14.0,80.0,-61.0,0.0,-47.0,3.0,3153.0,15531.0,4102.0,-678.0,4.0,3.0,-33.0,1.0
2022-05-08 14:30:51.112650-07:00,862.1,1010.8,1414.9,1077.3,631.1,471.1,1444.2,1041.8,3469.8,3467.4,701.1,891.5,413.7,3499.0,819.4,785.2,3483.2,3477.1,407.5,652.2,483.7,553.8,239.3,246.2,3471.0,3475.9,581.0,450.6,679.1,1111.2,1379.4,436.4,1.0,18.0,11.0,743.0,13792.0,8812.0,74.0,-28.0,10.0,-30.0,-5.0,-38.0,4.0,3140.0,15530.0,4115.0,-685.0,-33.0,-10.0,-20.0,1.0
2022-05-08 14:30:51.113875-07:00,864.6,1014.2,1414.9,1077.3,640.8,475.0,1438.7,1041.8,3466.1,3478.3,701.1,891.5,410.6,3500.2,817.7,785.2,3483.2,3480.7,402.8,653.8,483.7,553.8,242.4,244.7,3471.0,3477.1,580.2,452.2,679.1,1111.2,1375.7,430.9,0.0,25.0,8.0,763.0,13788.0,8816.0,88.0,-58.0,-8.0,-11.0,-5.0,-26.0,3.0,3137.0,15528.0,4123.0,-693.0,-49.0,-9.0,1.0,1.0
2022-05-08 14:30:51.230534-07:00,864.6,1014.2,1414.0,1075.6,640.8,475.0,1438.7,1035.7,3466.1,3478.3,699.5,884.8,410.6,3500.2,817.7,787.7,3474.6,3483.2,402.8,653.8,473.5,543.4,242.4,244.7,3475.9,3477.1,580.2,452.2,680.7,1111.2,1375.7,430.9,6.0,28.0,12.0,808.0,13789.0,8812.0,104.0,-95.0,-58.0,24.0,1.0,-32.0,3.0,3163.0,15523.0,4123.0,-694.0,-103.0,-10.0,18.0,1.0
2022-05-08 14:30:51.381131-07:00,866.3,1004.8,1414.0,1075.6,630.3,471.9,1438.7,1035.7,3478.3,3467.4,699.5,884.8,407.5,3502.7,817.7,787.7,3474.6,3483.2,404.3,649.7,473.5,543.4,243.2,239.3,3475.9,3477.1,579.4,448.2,680.7,1111.2,1372.1,416.8,16.0,43.0,15.0,848.0,13789.0,8807.0,123.0,-58.0,16.0,-13.0,10.0,-18.0,4.0,3181.0,15520.0,4119.0,-689.0,-52.0,-4.0,3.0,1.0
2022-05-08 14:30:51.531043-07:00,866.3,1004.8,1413.1,1069.5,630.3,471.9,1433.2,1030.6,3478.3,3467.4,701.9,895.7,407.5,3502.7,818.5,790.2,3479.5,3474.6,404.3,649.7,477.4,549.8,243.2,239.3,3467.4,3474.6,579.4,448.2,681.5,1119.1,1372.1,416.8,14.0,38.0,-3.0,884.0,13784.0,8811.0,169.0,-141.0,8.0,-3.0,15.0,-17.0,0.0,3203.0,15514.0,4127.0,-681.0,-78.0,-5.0,-30.0,1.0
2022-05-08 14:30:51.770842-07:00,862.9,1007.3,1413.1,1069.5,630.3,475.0,1433.2,1030.6,3474.6,3469.8,701.9,895.7,409.8,3497.8,818.5,790.2,3479.5,3474.6,403.5,655.4,477.4,549.8,240.1,243.9,3467.4,3474.6,580.2,455.3,681.5,1119.1,1381.2,432.5,14.0,18.0,6.0,928.0,13782.0,8809.0,202.0,-26.0,-47.0,1.0,11.0,-36.0,4.0,3207.0,15509.0,4141.0,-685.0,12.0,-26.0,-29.0,1.0
2022-05-08 14:30:51.772351-07:00,862.9,1007.3,1410.3,1069.5,630.3,475.0,1433.2,1032.3,3474.6,3469.8,696.2,900.8,409.8,3497.8,817.7,791.0,3477.1,3477.1,403.5,655.4,479.8,544.2,240.1,243.9,3480.7,3480.7,580.2,455.3,683.1,1111.2,1381.2,432.5,16.0,5.0,83.0,969.0,13781.0,8806.0,189.0,-79.0,-81.0,6.0,21.0,-57.0,55.0,3207.0,15508.0,4145.0,-683.0,-27.0,48.0,12.0,1.0
2022-05-08 14:30:51.773884-07:00,864.6,1015.1,1412.2,1069.5,635.1,472.7,1433.2,1032.3,3472.2,3469.8,707.7,900.8,408.2,3501.4,817.7,791.0,3477.1,3477.1,402.0,651.4,479.8,547.4,241.6,244.7,3480.7,3480.7,577.8,451.4,683.1,1112.1,1372.1,441.9,0.0,20.0,102.0,976.0,13787.0,8796.0,203.0,-74.0,227.0,76.0,-14.0,-27.0,32.0,3181.0,15522.0,4125.0,-614.0,1.0,237.0,123.0,1.0
2022-05-08 14:30:51.774817-07:00,864.6,1015.1,1412.2,1070.3,635.1,477.4,1423.1,1029.7,3472.2,3469.8,707.7,891.5,408.2,3495.3,812.7,792.7,3481.9,3480.7,405.9,651.4,477.4,547.4,241.6,244.7,3479.5,3475.9,580.2,451.4,679.9,1112.1,1372.1,441.9,-24.0,42.0,-26.0,968.0,13796.0,8777.0,351.0,-243.0,270.0,53.0,-17.0,-4.0,-3.0,3193.0,15530.0,4103.0,-478.0,-151.0,282.0,113.0,1.0
2022-05-08 14:30:51.775371-07:00,864.6,1015.1,1412.2,1070.3,635.1,477.4,1423.1,1029.7,3472.2,3469.8,707.7,891.5,408.2,3495.3,812.7,792.7,3481.9,3480.7,405.9,651.4,477.4,547.4,241.6,244.7,3479.5,3475.9,580.2,451.4,679.9,1112.1,1372.1,441.9,-24.0,42.0,-26.0,968.0,13796.0,8777.0,351.0,-243.0,270.0,53.0,-17.0,-4.0,-3.0,3193.0,15530.0,4103.0,-478.0,-151.0,282.0,113.0,1.0
2022-05-08 14:30:51.800431-07:00,862.9,1018.5,1414.0,1072.9,633.5,469.5,1430.5,1022.8,3480.7,3467.4,701.9,893.2,409.8,3497.8,811.0,791.9,3480.7,3488.0,405.9,654.6,476.6,551.4,243.9,241.6,3480.7,3485.6,583.5,453.7,683.1,1117.4,1390.3,429.4,19.0,3.0,6.0,1049.0,13834.0,8701.0,489.0,-122.0,-129.0,115.0,16.0,-33.0,-4.0,3238.0,15546.0,4026.0,-251.0,-114.0,14.0,101.0,1.0
2022-05-08 14:30:51.802752-07:00,862.9,1018.5,1414.0,1074.7,633.5,475.8,1425.9,1023.7,3480.7,3467.4,701.9,893.2,409.8,3492.9,825.2,791.0,3474.6,3480.7,406.7,654.6,479.8,551.4,243.9,241.6,3479.5,3481.9,577.8,453.7,681.5,1117.4,1390.3,429.4,6.0,17.0,-6.0,1188.0,13866.0,8630.0,527.0,-37.0,21.0,-42.0,-3.0,-16.0,-3.0,3291.0,15547.0,3981.0,-214.0,-43.0,6.0,-30.0,1.0
2022-05-08 14:30:52.070909-07:00,862.1,1008.2,1410.3,1072.1,627.0,471.9,1426.8,1016.8,3478.3,3474.6,701.1,894.1,409.8,3492.9,814.4,791.9,3484.4,3478.3,403.5,651.4,476.6,548.2,245.4,247.7,3484.4,3467.4,578.6,447.4,680.7,1120.0,1383.0,430.9,9.0,11.0,-5.0,1203.0,13861.0,8637.0,530.0,-28.0,-38.0,-8.0,1.0,-24.0,-11.0,3301.0,15543.0,3988.0,-219.0,-38.0,-34.0,-14.0,1.0
2022-05-08 14:30:52.073698-07:00,865.4,1006.5,1415.8,1069.5,627.0,471.9,1426.8,1016.8,3473.4,3473.4,709.3,891.5,409.8,3492.9,814.4,791.9,3484.4,3478.3,403.5,651.4,475.0,545.8,239.3,240.1,3484.4,3467.4,578.6,447.4,682.3,1114.7,1378.5,429.4,15.0,-7.0,18.0,1224.0,13859.0,8637.0,528.0,-14.0,-24.0,-9.0,6.0,-32.0,-1.0,3310.0,15541.0,3990.0,-231.0,-21.0,-33.0,-2.0,1.0
2022-05-08 14:30:52.074634-07:00,865.4,1006.5,1415.8,1069.5,624.6,469.5,1428.6,1013.3,3473.4,3473.4,709.3,891.5,406.7,3495.3,815.2,786.9,3472.2,3477.1,405.1,653.0,475.0,545.8,239.3,240.1,3473.4,3475.9,574.6,450.6,682.3,1114.7,1378.5,429.4,6.0,15.0,5.0,1230.0,13861.0,8633.0,531.0,-54.0,-1.0,18.0,1.0,-11.0,0.0,3318.0,15540.0,3983.0,-241.0,-58.0,-32.0,15.0,1.0
2022-05-08 14:30:52.075387-07:00,865.4,1015.1,1410.3,1064.3,624.6,469.5,1428.6,1015.9,3477.1,3467.4,700.3,891.5,406.7,3495.3,815.2,794.4,3479.5,3477.1,405.1,653.0,479.0,547.4,243.2,237.1,3479.5,3475.9,574.6,450.6,681.5,1134.0,1375.7,432.5,9.0,16.0,-25.0,1270.0,13864.0,8620.0,551.0,-114.0,-35.0,26.0,2.0,-21.0,-18.0,3358.0,15535.0,3969.0,-255.0,-102.0,-78.0,25.0,1.0
2022-05-08 14:30:52.340584-07:00,862.9,1015.1,1410.3,1064.3,630.3,467.1,1425.9,1015.9,3480.7,3467.4,700.3,891.5,409.0,3502.7,812.7,794.4,3479.5,3474.6,406.7,648.9,479.0,547.4,243.2,242.4,3479.5,3480.7,578.6,457.7,681.5,1134.0,1375.7,436.4,16.0,24.0,-7.0,1318.0,13868.0,8608.0,536.0,-39.0,-142.0,19.0,12.0,-10.0,-13.0,3388.0,15531.0,3958.0,-284.0,-54.0,-140.0,-7.0,1.0
2022-05-08 14:30:52.343152-07:00,862.9,1011.6,1408.5,1075.6,630.3,467.1,1425.9,1009.0,3480.7,3475.9,709.3,895.7,409.0,3502.7,812.7,788.6,3481.9,3474.6,406.7,648.9,479.0,545.8,243.2,242.4,3478.3,3480.7,578.6,457.7,688.9,1115.6,1377.5,436.4,-7.0,30.0,39.0,1364.0,13872.0,8597.0,483.0,-7.0,-169.0,11.0,-10.0,-9.0,21.0,3420.0,15525.0,3951.0,-338.0,-27.0,-130.0,-23.0,1.0
2022-05-08 14:30:52.344045-07:00,863.7,1011.6,1408.5,1075.6,633.5,472.7,1432.3,1009.0,3479.5,3475.9,709.3,895.7,404.3,3489.2,817.7,788.6,3481.9,3474.6,404.3,652.2,479.0,545.8,243.2,243.2,3478.3,3479.5,573.8,447.4,688.9,1115.6,1377.5,436.4,-12.0,31.0,80.0,1398.0,13871.0,8595.0,441.0,-23.0,-56.0,-19.0,-15.0,-17.0,29.0,3441.0,15519.0,3952.0,-373.0,-18.0,-14.0,-21.0,1.0
2022-05-08 14:30:52.344885-07:00,863.7,1008.2,1405.8,1069.5,633.5,472.7,1432.3,1006.5,3479.5,3466.1,705.2,891.5,404.3,3489.2,817.7,790.2,3480.7,3474.6,404.3,652.2,476.6,549.0,244.7,243.2,3480.7,3479.5,573.8,447.4,683.1,1115.6,1377.5,436.4,6.0,17.0,28.0,1391.0,13860.0,8612.0,471.0,-5.0,138.0,-57.0,2.0,-24.0,14.0,3436.0,15516.0,3968.0,-361.0,10.0,104.0,-30.0,1.0
2022-05-08 14:30:52.345592-07:00,865.4,1008.2,1405.8,1069.5,627.0,473.5,1425.9,1006.5,3473.4,3466.1,705.2,891.5,404.3,3507.5,813.5,790.2,3480.7,3483.2,406.7,647.3,476.6,549.0,244.7,244.7,3480.7,3471.0,573.0,449.8,683.1,1115.6,1377.5,434.9,8.0,-5.0,-27.0,1371.0,13841.0,8643.0,527.0,-59.0,122.0,-58.0,5.0,-23.0,-17.0,3430.0,15513.0,3990.0,-317.0,-45.0,89.0,-28.0,1.0
2022-05-08 14:30:52.641052-07:00,862.1,1015.1,1404.0,1067.7,630.3,471.9,1423.1,1007.3,3474.6,3479.5,697.9,889.8,408.2,3492.9,811.9,791.0,3475.9,3481.9,405.9,648.9,472.7,543.4,242.4,240.1,3480.7,3477.1,577.8,450.6,679.9,1115.6,1374.8,430.9,0.0,12.0,19.0,1444.0,13828.0,8651.0,545.0,-69.0,-19.0,10.0,3.0,-13.0,7.0,3467.0,15502.0,4003.0,-287.0,-68.0,0.0,21.0,1.0
2022-05-08 14:30:52.881217-07:00,865.4,1010.8,1404.0,1067.7,631.9,471.9,1423.1,1007.3,3475.9,3479.5,697.9,889.8,406.7,3502.7,811.9,791.0,3475.9,3481.9,405.9,645.7,472.7,543.4,241.6,240.1,3480.7,3477.1,580.2,450.6,679.9,1115.6,1376.6,430.9,0.0,15.0,27.0,1475.0,13826.0,8647.0,571.0,-78.0,33.0,4.0,-1.0,-10.0,14.0,3491.0,15499.0,3995.0,-267.0,-76.0,46.0,23.0,1.0
2022-05-08 14:30:52.911247-07:00,865.4,1010.8,1402.1,1070.3,631.9,471.9,1423.1,1000.5,3475.9,3479.5,700.3,890.7,406.7,3502.7,818.5,786.9,3471.0,3478.3,405.9,645.7,479.0,546.6,241.6,240.1,3473.4,3478.3,580.2,450.6,679.9,1113.0,1376.6,430.9,-2.0,24.0,13.0,1489.0,13823.0,8648.0,609.0,-52.0,74.0,-3.0,-3.0,-6.0,3.0,3506.0,15497.0,3992.0,-234.0,-45.0,76.0,20.0,1.0
2022-05-08 14:30:52.912099-07:00,865.4,1010.8,1402.1,1070.3,627.0,470.3,1423.1,1000.5,3473.4,3478.3,700.3,890.7,407.5,3501.4,818.5,786.9,3471.0,3478.3,402.8,648.9,479.0,546.6,242.4,246.2,3473.4,3478.3,580.2,452.2,679.9,1113.0,1375.7,427.8,8.0,12.0,-10.0,1504.0,13817.0,8650.0,653.0,-84.0,52.0,-12.0,9.0,-16.0,-18.0,3525.0,15492.0,3995.0,-196.0,-84.0,61.0,3.0,1.0
2022-05-08 14:30:52.941674-07:00,865.4,1010.8,1403.0,1073.8,627.0,468.7,1422.2,996.2,3473.4,3478.3,701.1,893.2,407.5,3496.6,811.9,784.4,3483.2,3483.2,409.8,648.9,476.6,543.4,242.4,246.2,3480.7,3483.2,577.0,452.2,694.6,1114.7,1375.7,427.8,14.0,-2.0,-8.0,1519.0,13812.0,8654.0,678.0,-31.0,1.0,-8.0,5.0,-16.0,-7.0,3538.0,15489.0,3999.0,-177.0,-34.0,9.0,1.0,1.0
2022-05-08 14:30:52.942656-07:00,861.2,1000.5,1405.8,1066.9,627.0,469.5,1424.1,1000.5,3478.3,3478.3,698.7,892.4,408.2,3491.7,806.9,790.2,3477.1,3478.3,404.3,652.2,473.5,548.2,237.8,236.3,3480.7,3480.7,575.4,447.4,680.7,1114.7,1371.2,430.9,-15.0,13.0,-1.0,1566.0,13809.0,8651.0,682.0,-33.0,-37.0,3.0,-17.0,-12.0,0.0,3575.0,15481.0,3996.0,-184.0,-29.0,-33.0,7.0,1.0
2022-05-08 14:30:52.943305-07:00,861.2,1000.5,1405.8,1066.9,627.0,469.5,1424.1,1000.5,3478.3,3478.3,698.7,892.4,408.2,3491.7,806.9,790.2,3477.1,3478.3,404.3,652.2,473.5,548.2,237.8,236.3,3480.7,3480.7,575.4,447.4,680.7,1114.7,1371.2,430.9,-15.0,13.0,-1.0,1566.0,13809.0,8651.0,682.0,-33.0,-37.0,3.0,-17.0,-12.0,0.0,3575.0,15481.0,3996.0,-184.0,-29.0,-33.0,7.0,1.0
2022-05-08 14:30:52.943909-07:00,861.2,1000.5,1405.8,1066.9,627.0,469.5,1424.1,1000.5,3478.3,3478.3,698.7,892.4,408.2,3491.7,806.9,790.2,3477.1,3478.3,404.3,652.2,473.5,548.2,237.8,236.3,3480.7,3480.7,575.4,447.4,680.7,1114.7,1371.2,430.9,-15.0,13.0,-1.0,1566.0,13809.0,8651.0,682.0,-33.0,-37.0,3.0,-17.0,-12.0,0.0,3575.0,15481.0,3996.0,-184.0,-29.0,-33.0,7.0,1.0
2022-05-08 14:30:52.944944-07:00,863.7,1004.8,1400.3,1074.7,631.1,470.3,1418.6,999.6,3473.4,3479.5,701.9,894.9,406.7,3499.0,809.4,788.6,3478.3,3469.8,404.3,652.2,474.3,547.4,242.4,244.7,3478.3,3483.2,577.8,448.2,684.0,1118.2,1368.5,432.5,5.0,19.0,0.0,1654.0,13824.0,8609.0,693.0,0.0,-12.0,24.0,0.0,-16.0,-1.0,3646.0,15472.0,3964.0,-220.0,4.0,-14.0,10.0,1.0
2022-05-08 14:30:53.181243-07:00,863.7,1004.8,1400.3,1074.7,631.1,469.5,1424.1,993.6,3473.4,3479.5,701.9,894.9,409.8,3497.8,811.9,787.7,3479.5,3477.1,402.8,651.4,474.3,547.4,242.4,244.7,3483.2,3477.1,577.8,453.7,684.0,1118.2,1368.5,432.5,-6.0,11.0,-8.0,1664.0,13828.0,8600.0,694.0,2.0,-35.0,23.0,-3.0,-11.0,-1.0,3650.0,15472.0,3960.0,-228.0,-3.0,-27.0,7.0,1.0
2022-05-08 14:30:53.182278-07:00,865.4,1009.0,1411.3,1053.9,631.1,469.5,1424.1,993.6,3468.6,3471.0,706.0,897.4,409.8,3497.8,811.9,787.7,3479.5,3477.1,402.8,651.4,477.4,537.0,250.8,244.7,3483.2,3477.1,577.8,453.7,684.8,1108.6,1376.6,429.4,4.0,24.0,22.0,1669.0,13834.0,8592.0,673.0,18.0,-33.0,1.0,3.0,-4.0,12.0,3641.0,15474.0,3958.0,-238.0,20.0,-7.0,-9.0,1.0
2022-05-08 14:30:53.183141-07:00,865.4,1009.0,1411.3,1053.9,632.7,474.3,1418.6,991.0,3468.6,3471.0,706.0,897.4,408.2,3502.7,814.4,790.2,3480.7,3475.9,403.5,649.7,477.4,537.0,250.8,244.7,3479.5,3479.5,579.4,460.0,684.8,1108.6,1376.6,429.4,6.0,1.0,0.0,1664.0,13833.0,8595.0,672.0,55.0,10.0,-4.0,8.0,-19.0,5.0,3635.0,15474.0,3966.0,-239.0,35.0,15.0,-14.0,1.0
2022-05-08 14:30:53.184434-07:00,862.9,1008.2,1399.4,1067.7,632.7,474.3,1418.6,991.0,3478.3,3477.1,698.7,891.5,408.2,3502.7,814.4,790.2,3480.7,3475.9,403.5,649.7,477.4,548.2,240.9,243.9,3479.5,3479.5,579.4,460.0,677.4,1116.5,1375.7,433.3,5.0,4.0,-4.0,1647.0,13841.0,8587.0,646.0,29.0,-53.0,23.0,5.0,-18.0,-3.0,3613.0,15478.0,3968.0,-244.0,21.0,-6.0,-4.0,1.0
2022-05-08 14:30:53.390566-07:00,862.9,1008.2,1399.4,1067.7,631.9,471.9,1419.5,996.2,3479.5,3477.1,698.7,891.5,407.5,3499.0,813.5,801.0,3477.1,3473.4,403.5,653.8,477.4,548.2,240.9,245.4,3480.7,3484.4,577.8,471.9,677.4,1116.5,1375.7,433.3,-5.0,0.0,10.0,1656.0,13847.0,8576.0,641.0,-26.0,9.0,20.0,-8.0,-20.0,0.0,3609.0,15479.0,3968.0,-252.0,-13.0,-14.0,6.0,1.0
2022-05-08 14:30:53.630643-07:00,862.9,1006.5,1414.9,1072.9,631.9,471.9,1419.5,993.6,3479.5,3467.4,698.7,893.2,407.5,3499.0,813.5,786.9,3473.4,3473.4,403.5,653.8,476.6,546.6,241.6,245.4,3474.6,3484.4,577.8,471.9,680.7,1118.2,1378.5,433.3,-14.0,20.0,-6.0,1664.0,13850.0,8568.0,650.0,-1.0,-27.0,10.0,-14.0,-8.0,1.0,3612.0,15479.0,3966.0,-261.0,-1.0,-18.0,-1.0,1.0
2022-05-08 14:30:53.631778-07:00,862.9,1006.5,1414.9,1072.9,630.3,472.7,1422.2,993.6,3471.0,3467.4,698.7,893.2,409.0,3501.4,817.7,786.9,3473.4,3484.4,403.5,648.9,476.6,546.6,241.6,239.3,3474.6,3479.5,579.4,467.1,680.7,1118.2,1378.5,432.5,2.0,9.0,22.0,1685.0,13850.0,8565.0,636.0,-24.0,-32.0,-6.0,1.0,-10.0,6.0,3618.0,15477.0,3969.0,-272.0,-15.0,-13.0,-14.0,1.0
2022-05-08 14:30:53.632742-07:00,862.9,1004.8,1412.2,1073.8,630.3,472.7,1422.2,994.5,3471.0,3475.9,706.0,890.7,409.0,3501.4,817.7,790.2,3477.1,3484.4,403.5,648.9,476.6,545.8,243.9,239.3,3478.3,3479.5,579.4,467.1,679.1,1116.5,1374.8,432.5,10.0,-4.0,5.0,1693.0,13847.0,8569.0,644.0,-12.0,28.0,-16.0,10.0,-19.0,1.0,3620.0,15475.0,3972.0,-272.0,-8.0,3.0,-5.0,1.0
2022-05-08 14:30:53.751278-07:00,854.5,1004.8,1412.2,1073.8,625.4,474.3,1423.1,994.5,3479.5,3475.9,706.0,890.7,405.1,3497.8,815.2,790.2,3477.1,3477.1,404.3,652.2,476.6,545.8,243.9,243.2,3478.3,3480.7,577.8,471.1,679.1,1116.5,1374.8,427.0,1.0,4.0,-1.0,1691.0,13845.0,8572.0,650.0,-15.0,-5.0,9.0,2.0,-8.0,1.0,3621.0,15475.0,3972.0,-270.0,-21.0,-5.0,10.0,1.0
2022-05-08 14:30:53.752242-07:00,854.5,1000.5,1407.6,1069.5,625.4,474.3,1423.1,995.3,3479.5,3473.4,700.3,896.6,405.1,3497.8,815.2,786.9,3483.2,3477.1,404.3,652.2,473.5,548.2,247.0,243.2,3478.3,3480.7,577.8,471.1,679.9,1117.4,1374.8,427.0,0.0,14.0,7.0,1697.0,13845.0,8569.0,655.0,-9.0,-2.0,-12.0,2.0,-8.0,3.0,3627.0,15474.0,3969.0,-273.0,-12.0,-12.0,1.0,1.0
2022-05-08 14:30:53.753787-07:00,863.7,1000.5,1407.6,1069.5,626.2,472.7,1423.1,995.3,3479.5,3467.4,700.3,896.6,404.3,3491.7,806.9,786.9,3483.2,3475.9,406.7,651.4,473.5,548.2,244.7,236.3,3478.3,3478.3,577.0,474.3,679.9,1117.4,1374.8,431.7,3.0,9.0,2.0,1697.0,13844.0,8572.0,650.0,40.0,-35.0,5.0,7.0,-4.0,0.0,3628.0,15474.0,3969.0,-273.0,9.0,-8.0,2.0,1.0
2022-05-08 14:30:53.754993-07:00,859.5,1004.8,1404.0,1069.5,628.6,474.3,1419.5,989.3,3481.9,3480.7,700.3,894.1,408.2,3497.8,809.4,790.2,3485.6,3479.5,405.1,660.3,476.6,543.4,246.2,240.1,3484.4,3479.5,576.2,467.1,688.0,1113.0,1377.5,430.9,5.0,4.0,4.0,1703.0,13841.0,8576.0,647.0,11.0,-16.0,-11.0,7.0,-15.0,3.0,3621.0,15475.0,3972.0,-265.0,7.0,-4.0,-8.0,1.0
2022-05-08 14:30:53.870820-07:00,859.5,1004.8,1404.0,1071.2,628.6,474.3,1416.7,992.7,3481.9,3480.7,704.4,889.8,408.2,3497.8,811.0,788.6,3473.4,3480.7,405.1,660.3,475.8,546.6,246.2,240.1,3475.9,3481.9,576.2,467.1,683.1,1113.0,1377.5,430.9,-4.0,0.0,16.0,1709.0,13839.0,8578.0,650.0,-43.0,28.0,-14.0,-8.0,-17.0,7.0,3623.0,15474.0,3974.0,-265.0,-24.0,9.0,-7.0,1.0
2022-05-08 14:30:53.871765-07:00,859.5,1004.8,1404.0,1071.2,628.6,474.3,1416.7,992.7,3481.9,3480.7,704.4,889.8,408.2,3497.8,811.0,788.6,3473.4,3480.7,405.1,660.3,475.8,546.6,246.2,240.1,3475.9,3481.9,576.2,467.1,683.1,1113.0,1377.5,430.9,-4.0,0.0,16.0,1709.0,13839.0,8578.0,650.0,-43.0,28.0,-14.0,-8.0,-17.0,7.0,3623.0,15474.0,3974.0,-265.0,-24.0,9.0,-7.0,1.0
2022-05-08 14:30:53.873002-07:00,863.7,1010.8,1398.5,1070.3,634.3,475.8,1421.3,988.5,3467.4,3469.8,699.5,897.4,407.5,3497.8,811.0,784.4,3480.7,3474.6,405.1,655.4,478.2,545.8,240.1,237.8,3478.3,3478.3,573.8,473.5,682.3,1111.2,1377.5,430.9,6.0,1.0,15.0,1715.0,13833.0,8586.0,650.0,13.0,-73.0,-4.0,7.0,-11.0,7.0,3627.0,15473.0,3974.0,-279.0,1.0,-31.0,-9.0,1.0
2022-05-08 14:30:53.900606-07:00,857.9,1003.0,1408.5,1070.3,620.5,475.8,1421.3,988.5,3457.6,3467.4,697.0,897.4,404.3,3497.8,811.0,784.4,3480.7,3474.6,405.1,653.0,478.2,546.6,240.9,247.0,3478.3,3478.3,573.8,467.9,682.3,1107.8,1373.9,434.1,-3.0,8.0,18.0,1721.0,13833.0,8586.0,629.0,7.0,-20.0,-15.0,-4.0,-6.0,9.0,3628.0,15473.0,3973.0,-286.0,-4.0,-5.0,-8.0,1.0
2022-05-08 14:30:54.050536-07:00,857.9,1003.0,1408.5,1068.6,620.5,467.1,1420.4,991.0,3457.6,3467.4,697.0,891.5,404.3,3489.2,808.5,791.0,3481.9,3467.4,412.1,653.0,473.5,546.6,240.9,247.0,3477.1,3472.2,570.6,467.9,679.9,1107.8,1373.9,434.1,-3.0,11.0,3.0,1718.0,13833.0,8586.0,632.0,14.0,19.0,-8.0,5.0,-12.0,8.0,3625.0,15473.0,3976.0,-288.0,11.0,2.0,-13.0,1.0
2022-05-08 14:30:54.051746-07:00,863.7,1002.2,1407.6,1068.6,627.8,467.1,1420.4,991.0,3467.4,3472.2,698.7,891.5,404.3,3489.2,808.5,791.0,3481.9,3467.4,412.1,648.1,473.5,545.0,239.3,241.6,3477.1,3472.2,570.6,468.7,679.9,1109.5,1377.5,431.7,3.0,-5.0,7.0,1717.0,13830.0,8592.0,629.0,0.0,-16.0,-12.0,2.0,-16.0,3.0,3624.0,15472.0,3980.0,-289.0,-4.0,3.0,-9.0,1.0
2022-05-08 14:30:54.052574-07:00,863.7,1002.2,1407.6,1073.8,627.8,474.3,1420.4,990.2,3467.4,3472.2,698.7,890.7,404.3,3495.3,815.2,790.2,3480.7,3483.2,405.9,648.1,473.5,545.0,239.3,241.6,3479.5,3475.9,574.6,468.7,684.0,1109.5,1377.5,431.7,6.0,5.0,-2.0,1717.0,13830.0,8592.0,627.0,7.0,4.0,2.0,9.0,-9.0,0.0,3619.0,15473.0,3980.0,-289.0,3.0,-2.0,10.0,1.0
2022-05-08 14:30:54.140720-07:00,865.4,1003.9,1409.4,1073.8,631.1,474.3,1420.4,990.2,3469.8,3467.4,698.7,896.6,409.0,3495.3,815.2,790.2,3480.7,3483.2,405.9,652.2,471.9,546.6,243.2,241.6,3479.5,3475.9,574.6,470.3,674.2,1114.7,1363.0,433.3,6.0,9.0,10.0,1718.0,13832.0,8589.0,630.0,-13.0,-7.0,14.0,8.0,-8.0,5.0,3621.0,15474.0,3974.0,-287.0,-12.0,-7.0,14.0,1.0
2022-05-08 14:30:54.142328-07:00,865.4,1003.9,1409.4,1073.8,629.5,476.6,1415.8,987.6,3469.8,3467.4,698.7,896.6,406.7,3495.3,811.9,784.4,3474.6,3484.4,405.1,656.2,471.9,546.6,243.2,241.6,3480.7,3472.2,572.2,466.4,674.2,1114.7,1363.0,433.3,-7.0,24.0,11.0,1721.0,13834.0,8584.0,630.0,18.0,2.0,6.0,-9.0,-2.0,9.0,3620.0,15475.0,3971.0,-284.0,5.0,15.0,2.0,1.0
2022-05-08 14:30:54.351492-07:00,859.5,997.0,1401.2,1068.6,629.5,476.6,1415.8,987.6,3480.7,3473.4,699.5,891.5,406.7,3495.3,811.9,784.4,3474.6,3484.4,405.1,656.2,471.9,546.6,243.9,242.4,3480.7,3472.2,572.2,466.4,680.7,1111.2,1376.6,429.4,-9.0,8.0,2.0,1721.0,13834.0,8585.0,635.0,11.0,21.0,-9.0,-9.0,-16.0,8.0,3618.0,15475.0,3973.0,-279.0,5.0,13.0,-7.0,1.0
2022-05-08 14:30:54.353599-07:00,859.5,997.0,1401.2,1068.6,627.8,477.4,1419.5,986.7,3480.7,3473.4,699.5,891.5,405.1,3495.3,817.7,790.2,3478.3,3469.8,401.2,645.7,471.9,546.6,243.9,242.4,3483.2,3485.6,577.8,465.6,680.7,1111.2,1376.6,429.4,7.0,-3.0,3.0,1717.0,13831.0,8589.0,639.0,9.0,14.0,-1.0,5.0,-22.0,1.0,3616.0,15475.0,3974.0,-272.0,5.0,14.0,5.0,1.0
2022-05-08 14:30:54.354904-07:00,857.9,1005.6,1404.9,1068.6,627.8,477.4,1419.5,986.7,3467.4,3478.3,694.6,894.1,405.1,3495.3,817.7,790.2,3478.3,3469.8,401.2,645.7,475.8,544.2,241.6,239.3,3483.2,3485.6,577.8,465.6,686.4,1112.1,1375.7,427.8,-6.0,-7.0,6.0,1710.0,13833.0,8588.0,642.0,-5.0,7.0,5.0,-3.0,-18.0,4.0,3615.0,15477.0,3971.0,-266.0,0.0,12.0,16.0,1.0
2022-05-08 14:30:54.355916-07:00,857.9,1005.6,1404.9,1068.6,633.5,471.9,1411.3,989.3,3467.4,3478.3,694.6,894.1,404.3,3494.1,813.5,791.0,3480.7,3488.0,403.5,648.1,475.8,544.2,241.6,239.3,3477.1,3477.1,569.0,471.1,686.4,1112.1,1375.7,427.8,-9.0,-3.0,-2.0,1707.0,13837.0,8581.0,643.0,1.0,13.0,36.0,-10.0,-18.0,-1.0,3616.0,15480.0,3958.0,-262.0,-18.0,-12.0,35.0,1.0
2022-05-08 14:30:54.380649-07:00,863.7,1003.9,1404.9,1069.5,633.5,471.9,1411.3,986.7,3480.7,3477.1,695.4,889.0,404.3,3494.1,813.5,790.2,3481.9,3488.0,403.5,648.1,473.5,541.8,238.6,238.6,3479.5,3477.1,569.0,471.1,685.6,1112.1,1371.2,426.2,1.0,15.0,2.0,1710.0,13844.0,8569.0,657.0,-26.0,15.0,22.0,5.0,-9.0,4.0,3629.0,15481.0,3940.0,-261.0,-26.0,-14.0,39.0,1.0
2022-05-08 14:30:54.501263-07:00,864.6,1003.9,1404.9,1069.5,631.9,474.3,1414.0,986.7,3477.1,3477.1,695.4,889.0,407.5,3492.9,811.0,790.2,3481.9,3474.6,404.3,652.2,473.5,541.8,238.6,242.4,3479.5,3477.1,581.0,464.0,685.6,1112.1,1371.2,433.3,3.0,24.0,10.0,1718.0,13849.0,8559.0,656.0,2.0,-21.0,21.0,3.0,-3.0,6.0,3634.0,15483.0,3929.0,-259.0,-3.0,6.0,18.0,1.0
2022-05-08 14:30:54.740767-07:00,864.6,1000.5,1401.2,1067.7,631.9,474.3,1414.0,981.6,3477.1,3479.5,698.7,894.1,407.5,3492.9,811.0,791.9,3467.4,3474.6,404.3,652.2,473.5,544.2,244.7,242.4,3483.2,3477.1,581.0,464.0,679.1,1119.1,1378.5,433.3,-5.0,-5.0,16.0,1718.0,13850.0,8558.0,658.0,8.0,22.0,1.0,-8.0,-17.0,6.0,3631.0,15484.0,3927.0,-251.0,10.0,27.0,20.0,1.0
2022-05-08 14:30:54.861401-07:00,862.1,1000.5,1401.2,1067.7,634.3,475.8,1418.6,981.6,3464.9,3479.5,698.7,894.1,407.5,3495.3,811.9,791.9,3467.4,3484.4,406.7,653.0,473.5,544.2,244.7,241.6,3483.2,3478.3,573.8,467.9,679.1,1119.1,1378.5,432.5,-4.0,-1.0,7.0,1709.0,13853.0,8554.0,671.0,-12.0,37.0,28.0,6.0,-15.0,0.0,3626.0,15489.0,3916.0,-232.0,-1.0,45.0,40.0,1.0
2022-05-08 14:30:54.863816-07:00,862.1,1001.3,1400.3,1066.0,634.3,475.8,1418.6,979.9,3464.9,3490.5,702.8,894.9,407.5,3495.3,811.9,786.9,3478.3,3484.4,406.7,653.0,472.7,543.4,243.2,241.6,3484.4,3478.3,573.8,467.9,702.8,1111.2,1377.5,432.5,17.0,17.0,-14.0,1694.0,13858.0,8546.0,688.0,13.0,44.0,17.0,17.0,-2.0,-7.0,3619.0,15493.0,3908.0,-215.0,4.0,21.0,18.0,1.0
2022-05-08 14:30:54.864685-07:00,859.5,1001.3,1400.3,1066.0,628.6,475.0,1413.1,979.9,3478.3,3490.5,702.8,894.9,409.8,3502.7,811.0,786.9,3478.3,3473.4,404.3,653.0,472.7,543.4,243.2,240.9,3484.4,3478.3,575.4,465.6,702.8,1111.2,1377.5,434.1,-9.0,10.0,-2.0,1699.0,13857.0,8546.0,696.0,-14.0,-15.0,4.0,-3.0,-1.0,1.0,3624.0,15492.0,3907.0,-213.0,-10.0,-10.0,1.0,1.0
2022-05-08 14:30:54.865403-07:00,859.5,1003.9,1404.0,1066.0,628.6,475.0,1414.9,983.3,3478.3,3480.7,702.8,892.4,409.8,3502.7,811.9,789.4,3478.3,3477.1,404.3,653.0,480.6,543.4,241.6,240.9,3471.0,3480.7,575.4,465.6,679.9,1115.6,1374.8,434.1,2.0,10.0,-1.0,1708.0,13857.0,8545.0,689.0,-14.0,-31.0,7.0,8.0,-8.0,0.0,3630.0,15490.0,3906.0,-219.0,-13.0,-21.0,-10.0,1.0
2022-05-08 14:30:54.981230-07:00,866.3,1001.3,1400.3,1075.6,631.9,478.2,1417.6,986.7,3467.4,3472.2,697.9,889.8,409.8,3499.0,807.7,786.1,3480.7,3474.6,406.7,651.4,470.3,541.8,242.4,243.2,3473.4,3477.1,571.4,465.6,682.3,1118.2,1375.7,435.7,-15.0,-124.0,-53.0,2395.0,13729.0,8547.0,1082.0,-1062.0,-25.0,-3.0,-23.0,-89.0,-56.0,4267.0,15327.0,3912.0,-52.0,-918.0,-60.0,64.0,1.0
2022-05-08 14:30:54.982838-07:00,861.2,1003.9,1400.3,1068.6,627.0,474.3,1404.0,979.9,3473.4,3472.2,701.1,894.9,405.9,3496.6,804.4,796.9,3474.6,3480.7,404.3,650.5,475.8,545.0,246.2,240.1,3467.4,3477.1,575.4,460.8,679.9,1119.1,1367.6,436.4,23.0,146.0,-70.0,2696.0,13694.0,8497.0,1194.0,-1075.0,-222.0,5.0,31.0,121.0,-15.0,4564.0,15250.0,3880.0,-16.0,-1139.0,-166.0,-12.0,1.0
2022-05-08 14:30:55.040228-07:00,861.2,1003.9,1408.5,1063.4,627.0,471.9,1413.1,978.2,3473.4,3472.2,700.3,889.8,405.9,3500.2,807.7,791.9,3469.8,3479.5,404.3,650.5,478.2,547.4,246.2,240.1,3469.8,3479.5,577.0,460.8,681.5,1113.9,1367.6,436.4,11.0,-34.0,-65.0,3533.0,13499.0,8448.0,1536.0,-2325.0,-440.0,-190.0,27.0,-40.0,-8.0,5265.0,15023.0,3876.0,44.0,-1857.0,-362.0,-150.0,1.0
2022-05-08 14:30:55.041476-07:00,858.7,1004.8,1395.7,1063.4,629.5,471.9,1413.1,978.2,3471.0,3469.8,701.9,889.8,404.3,3500.2,807.7,791.9,3469.8,3479.5,404.3,652.2,478.2,540.2,245.4,243.9,3469.8,3479.5,577.0,463.2,681.5,1112.1,1377.5,440.4,45.0,63.0,18.0,4318.0,13310.0,8340.0,1759.0,-1876.0,-494.0,-62.0,44.0,61.0,3.0,5956.0,14764.0,3870.0,57.0,-1706.0,-352.0,-114.0,1.0
2022-05-08 14:30:55.130687-07:00,858.7,1004.8,1395.7,1072.1,629.5,473.5,1413.1,980.7,3471.0,3469.8,701.9,896.6,404.3,3492.9,811.9,789.4,3473.4,3488.0,406.7,652.2,477.4,540.2,245.4,243.9,3474.6,3477.1,573.8,463.2,679.9,1112.1,1377.5,440.4,22.0,7.0,-22.0,5321.0,12942.0,8228.0,2221.0,-3194.0,-199.0,-244.0,-1.0,-9.0,8.0,6817.0,14393.0,3848.0,104.0,-2709.0,-416.0,-55.0,1.0
2022-05-08 14:30:55.131728-07:00,857.9,1006.5,1400.3,1072.1,632.7,473.5,1413.1,980.7,3472.2,3478.3,701.9,896.6,409.0,3492.9,811.9,789.4,3473.4,3488.0,406.7,651.4,477.4,543.4,242.4,244.7,3474.6,3477.1,573.8,462.4,679.9,1111.2,1375.7,430.2,-31.0,-114.0,-45.0,6486.0,12405.0,8037.0,2811.0,-3152.0,-275.0,-126.0,-30.0,-83.0,-6.0,7893.0,13855.0,3758.0,221.0,-2595.0,-449.0,53.0,1.0
2022-05-08 14:30:55.191388-07:00,857.9,1006.5,1400.3,1071.2,632.7,467.9,1409.4,982.5,3472.2,3478.3,701.9,895.7,409.0,3497.8,809.4,786.1,3475.9,3467.4,401.2,651.4,475.0,543.4,242.4,244.7,3477.1,3478.3,577.8,462.4,679.9,1111.2,1375.7,430.2,11.0,11.0,20.0,7253.0,11985.0,7854.0,3240.0,-2803.0,91.0,-58.0,-11.0,36.0,-17.0,8786.0,13339.0,3635.0,294.0,-2318.0,-418.0,64.0,1.0
2022-05-08 14:30:55.250671-07:00,857.9,1022.8,1404.0,1071.2,633.5,467.9,1409.4,982.5,3472.2,3480.7,712.6,895.7,407.5,3497.8,809.4,786.1,3475.9,3467.4,401.2,646.5,475.0,543.4,243.9,243.2,3477.1,3478.3,577.8,464.0,679.9,1114.7,1378.5,434.9,-28.0,38.0,-55.0,8165.0,11332.0,7638.0,3877.0,-3169.0,19.0,-260.0,-9.0,8.0,1.0,9711.0,12723.0,3473.0,434.0,-2732.0,-358.0,168.0,1.0
2022-05-08 14:30:55.280662-07:00,857.9,1022.8,1404.0,1078.2,630.3,468.7,1414.9,982.5,3472.2,3480.7,712.6,893.2,402.8,3500.2,804.4,787.7,3488.0,3474.6,405.1,653.8,473.5,543.4,243.9,243.2,3474.6,3467.4,575.4,466.4,679.9,1114.7,1378.5,434.9,28.0,-65.0,-34.0,9066.0,10579.0,7408.0,4408.0,-2666.0,142.0,-292.0,13.0,-83.0,-27.0,10605.0,12037.0,3278.0,596.0,-2475.0,-349.0,198.0,1.0
2022-05-08 14:30:55.370798-07:00,861.2,1033.2,1400.3,1063.4,630.3,468.7,1414.9,982.5,3475.9,3473.4,692.1,893.2,402.8,3500.2,804.4,787.7,3488.0,3474.6,405.1,653.8,471.9,545.0,250.8,246.2,3474.6,3467.4,575.4,466.4,683.1,1114.7,1374.8,434.1,9.0,-16.0,-50.0,9703.0,9952.0,7205.0,4830.0,-1990.0,-60.0,-125.0,20.0,-10.0,15.0,11274.0,11456.0,3090.0,736.0,-1853.0,-263.0,222.0,1.0
2022-05-08 14:30:55.430621-07:00,861.2,1033.2,1400.3,1063.4,629.5,469.5,1420.4,985.0,3475.9,3473.4,692.1,893.2,409.8,3501.4,807.7,793.5,3479.5,3477.1,402.8,652.2,471.9,545.0,250.8,246.2,3483.2,3475.9,575.4,465.6,683.1,1114.7,1374.8,434.1,-1.0,30.0,-46.0,10276.0,9403.0,6929.0,5139.0,-2089.0,-264.0,-203.0,-5.0,-17.0,1.0,11848.0,10906.0,2886.0,900.0,-1927.0,-293.0,291.0,1.0
2022-05-08 14:30:55.433237-07:00,862.9,1036.6,1402.1,1063.4,629.5,469.5,1420.4,985.0,3473.4,3477.1,688.0,880.6,409.8,3501.4,807.7,793.5,3479.5,3477.1,402.8,652.2,474.3,545.8,246.2,243.9,3483.2,3475.9,575.4,465.6,684.0,1112.1,1371.2,436.4,22.0,39.0,-60.0,10850.0,8812.0,6626.0,5399.0,-2199.0,-202.0,-218.0,15.0,-7.0,1.0,12415.0,10303.0,2655.0,1040.0,-2041.0,-327.0,284.0,1.0
2022-05-08 14:30:55.521698-07:00,862.9,1036.6,1402.1,1063.4,623.8,467.1,1414.9,981.6,3473.4,3477.1,688.0,880.6,404.3,3497.8,801.9,788.6,3488.0,3485.6,405.1,651.4,474.3,545.8,246.2,243.9,3479.5,3484.4,574.6,461.6,684.0,1112.1,1371.2,436.4,18.0,61.0,-105.0,11466.0,8102.0,6262.0,5668.0,-2800.0,-330.0,-341.0,3.0,38.0,-41.0,13023.0,9577.0,2386.0,1194.0,-2499.0,-395.0,333.0,1.0
2022-05-08 14:30:55.551453-07:00,861.2,1040.1,1404.9,1075.6,623.8,467.1,1414.9,981.6,3472.2,3480.7,697.0,892.4,404.3,3497.8,801.9,788.6,3488.0,3485.6,405.1,651.4,470.3,543.4,250.8,250.8,3479.5,3484.4,574.6,461.6,679.9,1119.1,1376.6,431.7,-34.0,-12.0,-100.0,12167.0,7229.0,5741.0,5932.0,-2735.0,-650.0,-211.0,-21.0,-15.0,-7.0,13670.0,8688.0,2043.0,1381.0,-2592.0,-478.0,409.0,1.0
2022-05-08 14:30:55.670730-07:00,861.2,1040.1,1404.9,1075.6,627.0,467.9,1419.5,995.3,3472.2,3480.7,697.0,892.4,411.4,3492.9,801.9,786.9,3480.7,3478.3,404.3,648.9,470.3,543.4,250.8,250.8,3480.7,3473.4,583.5,467.9,679.9,1119.1,1376.6,431.7,8.0,92.0,-24.0,12774.0,6444.0,5154.0,6098.0,-2374.0,-604.0,-377.0,6.0,51.0,15.0,14222.0,7798.0,1715.0,1551.0,-2426.0,-350.0,271.0,1.0
2022-05-08 14:30:55.671997-07:00,865.4,1047.0,1424.1,1075.6,627.0,467.9,1419.5,1028.0,3474.6,3472.2,691.3,883.9,411.4,3492.9,801.9,791.9,3472.2,3478.3,404.3,648.9,475.8,544.2,247.7,245.4,3484.4,3473.4,583.5,467.9,680.7,1114.7,1377.5,425.5,-4.0,3.0,-23.0,13266.0,5707.0,4659.0,6178.0,-1961.0,-517.0,-270.0,20.0,-27.0,42.0,14661.0,6976.0,1467.0,1637.0,-1978.0,-244.0,69.0,1.0
2022-05-08 14:30:55.700706-07:00,865.4,1047.0,1424.1,1075.6,628.6,470.3,1414.0,1028.0,3475.9,3472.2,691.3,883.9,405.9,3507.5,808.5,791.9,3472.2,3474.6,403.5,653.0,475.8,544.2,247.7,248.5,3484.4,3477.1,576.2,471.9,680.7,1114.7,1377.5,434.9,41.0,-98.0,-56.0,13594.0,5171.0,4224.0,6250.0,-1284.0,-418.0,-43.0,27.0,-159.0,-37.0,14960.0,6334.0,1296.0,1684.0,-1414.0,-207.0,72.0,1.0
2022-05-08 14:30:55.760685-07:00,865.4,1045.2,1411.3,1073.8,628.6,470.3,1414.0,1068.6,3475.9,3479.5,679.1,894.1,405.9,3507.5,808.5,784.4,3488.0,3474.6,403.5,653.0,477.4,550.6,253.1,248.5,3477.1,3477.1,576.2,471.9,679.9,1129.6,1374.8,434.9,-12.0,121.0,-34.0,13831.0,4735.0,3822.0,6334.0,-1685.0,-640.0,-41.0,10.0,40.0,47.0,15190.0,5785.0,1122.0,1728.0,-1580.0,-254.0,95.0,1.0
2022-05-08 14:30:55.791645-07:00,865.4,1045.2,1411.3,1073.8,627.0,471.9,1415.8,1068.6,3480.7,3479.5,679.1,894.1,405.9,3496.6,805.2,784.4,3488.0,3480.7,405.1,650.5,477.4,550.6,253.1,251.5,3477.1,3484.4,574.6,472.7,679.9,1129.6,1374.8,429.4,36.0,43.0,52.0,14107.0,4193.0,3331.0,6383.0,-1676.0,-386.0,-183.0,42.0,-24.0,12.0,15419.0,5164.0,971.0,1754.0,-1515.0,-132.0,-60.0,1.0
2022-05-08 14:30:56.031373-07:00,865.4,1072.9,1411.3,1072.1,627.0,471.9,1415.8,1138.4,3480.7,3473.4,680.7,878.0,405.9,3496.6,805.2,790.2,3467.4,3480.7,405.1,650.5,478.2,544.2,247.7,251.5,3479.5,3484.4,574.6,472.7,684.8,1113.0,1379.4,429.4,-40.0,-9.0,-77.0,14321.0,3639.0,3001.0,6410.0,-1487.0,-268.0,-146.0,-3.0,-2.0,24.0,15599.0,4606.0,901.0,1751.0,-1304.0,0.0,-63.0,1.0
2022-05-08 14:30:56.210247-07:00,872.1,1072.9,1411.3,1072.1,634.3,473.5,1422.2,1138.4,3473.4,3473.4,680.7,878.0,404.3,3500.2,796.0,790.2,3467.4,3474.6,409.0,653.8,478.2,544.2,247.7,247.7,3479.5,3477.1,580.2,475.8,684.8,1113.0,1379.4,434.9,-24.0,-169.0,-82.0,14470.0,3204.0,2599.0,6482.0,-967.0,-446.0,120.0,-37.0,-239.0,-68.0,15724.0,4157.0,828.0,1797.0,-812.0,-88.0,99.0,1.0
2022-05-08 14:30:56.510761-07:00,872.1,1112.1,1451.6,1081.6,634.3,473.5,1433.2,1169.1,3473.4,3477.1,682.3,889.0,404.3,3500.2,795.2,783.6,3483.2,3475.9,409.0,653.8,480.6,542.6,251.5,247.7,3472.2,3479.5,580.2,475.8,671.7,1116.5,1374.8,434.9,-19.0,202.0,25.0,14523.0,3053.0,2302.0,6549.0,-777.0,-507.0,138.0,11.0,79.0,59.0,15793.0,3876.0,744.0,1850.0,-743.0,-24.0,147.0,1.0
2022-05-08 14:30:56.512195-07:00,867.9,1122.6,1451.6,1081.6,635.9,473.5,1433.2,1169.1,3471.0,3467.4,682.3,889.0,414.5,3507.5,795.2,783.6,3483.2,3475.9,408.2,652.2,480.6,542.6,249.2,252.3,3472.2,3479.5,597.1,478.2,671.7,1116.5,1375.7,429.4,-28.0,-77.0,-28.0,14614.0,2757.0,2023.0,6571.0,-508.0,-85.0,-152.0,-17.0,-200.0,-61.0,15862.0,3594.0,689.0,1854.0,-300.0,-34.0,-124.0,1.0
2022-05-08 14:30:56.513756-07:00,867.9,1122.6,1467.2,1087.7,635.9,473.5,1446.0,1208.9,3471.0,3467.4,685.6,892.4,414.5,3507.5,791.9,787.7,3475.9,3488.0,408.2,652.2,478.2,550.6,249.2,252.3,3485.6,3473.4,597.1,478.2,678.2,1119.1,1375.7,429.4,-24.0,131.0,-75.0,14635.0,2728.0,2033.0,6532.0,-340.0,-3.0,-70.0,-8.0,72.0,10.0,15889.0,3505.0,664.0,1803.0,-455.0,-75.0,-61.0,1.0
2022-05-08 14:30:56.514767-07:00,869.6,1119.1,1467.2,1087.7,628.6,479.0,1446.0,1208.9,3480.7,3474.6,685.6,892.4,411.4,3500.2,791.9,787.7,3475.9,3488.0,406.7,653.0,478.2,550.6,250.0,249.2,3485.6,3473.4,587.5,482.2,678.2,1119.1,1371.2,433.3,4.0,-1.0,-80.0,14676.0,2652.0,1965.0,6492.0,188.0,-80.0,-145.0,2.0,-60.0,-47.0,15905.0,3455.0,628.0,1767.0,165.0,-51.0,-94.0,1.0
2022-05-08 14:30:56.630393-07:00,869.6,1119.1,1470.9,1083.4,628.6,479.0,1448.8,1204.4,3480.7,3474.6,677.4,890.7,411.4,3500.2,787.7,795.2,3480.7,3485.6,406.7,653.0,479.0,545.0,250.0,249.2,3479.5,3478.3,587.5,482.2,679.1,1113.0,1371.2,433.3,0.0,33.0,6.0,14707.0,2667.0,1901.0,6434.0,-330.0,-235.0,-108.0,26.0,-47.0,28.0,15913.0,3445.0,591.0,1733.0,-258.0,-165.0,-58.0,1.0
2022-05-08 14:30:56.632899-07:00,-9.0,13.0,-13.0,14715.0,2747.0,1883.0,6387.0,-2.0,-19.0,21.0,14.0,-35.0,17.0,15908.0,3494.0,551.0,1690.0,47.0,-10.0,25.0,1.0,7.0,28.0,-20.0,14581.0,3238.0,1954.0,6443.0,21.0,-148.0,-5.0,22.0,-33.0,9.0,15819.0,3862.0,579.0,1720.0,31.0,-100.0,-62.0,1.0,0.0,1.0,26.0,15816.0,3892.0,552.0,1687.0,76.0,-70.0,-50.0,1.0
2022-05-08 14:30:56.691346-07:00,872.1,1107.8,1458.0,1092.9,634.3,472.7,1436.0,1165.6,3473.4,3468.6,679.9,900.8,407.5,3497.8,788.6,787.7,3479.5,3477.1,403.5,650.5,473.5,543.4,244.7,247.7,3479.5,3480.7,585.9,475.8,683.1,1112.1,1363.9,436.4,-21.0,41.0,2.0,14580.0,3289.0,1921.0,6430.0,96.0,-118.0,21.0,0.0,-14.0,29.0,15816.0,3903.0,538.0,1666.0,28.0,-26.0,-31.0,1.0
2022-05-08 14:30:56.692339-07:00,872.1,1107.8,1458.0,1092.9,633.5,473.5,1435.0,1160.3,3473.4,3468.6,679.9,900.8,412.1,3489.2,784.4,788.6,3483.2,3477.1,408.2,653.8,473.5,543.4,244.7,247.7,3478.3,3478.3,587.5,473.5,683.1,1112.1,1363.9,436.4,-20.0,45.0,0.0,14572.0,3336.0,1923.0,6424.0,30.0,-12.0,-4.0,7.0,-25.0,6.0,15815.0,3910.0,538.0,1655.0,62.0,-10.0,-22.0,1.0
2022-05-08 14:30:56.693364-07:00,875.5,1110.4,1460.8,1086.8,633.5,473.5,1435.0,1160.3,3477.1,3472.2,679.9,891.5,412.1,3489.2,784.4,788.6,3483.2,3477.1,408.2,653.8,478.2,540.2,247.7,255.3,3478.3,3478.3,587.5,473.5,679.1,1110.4,1374.8,432.5,-7.0,30.0,-30.0,14567.0,3360.0,1933.0,6419.0,69.0,-5.0,2.0,7.0,-9.0,11.0,15815.0,3918.0,528.0,1644.0,5.0,-31.0,-17.0,1.0
2022-05-08 14:30:56.900743-07:00,875.5,1110.4,1460.8,1086.8,631.1,468.7,1437.8,1159.4,3477.1,3472.2,679.9,891.5,405.9,3495.3,784.4,784.4,3484.4,3477.1,403.5,648.9,478.2,540.2,247.7,255.3,3479.5,3479.5,588.3,467.9,679.1,1110.4,1374.8,432.5,-2.0,48.0,-21.0,14560.0,3391.0,1945.0,6417.0,-5.0,-21.0,14.0,1.0,3.0,-3.0,15814.0,3925.0,525.0,1634.0,41.0,-4.0,-25.0,1.0
2022-05-08 14:30:56.991014-07:00,870.5,1109.5,1460.8,1085.1,631.1,468.7,1437.8,1159.4,3469.8,3479.5,679.9,889.8,405.9,3495.3,784.4,784.4,3484.4,3477.1,403.5,648.9,476.6,541.8,250.8,247.7,3479.5,3479.5,588.3,467.9,682.3,1116.5,1375.7,429.4,-4.0,45.0,-26.0,14551.0,3431.0,1958.0,6410.0,36.0,-15.0,6.0,8.0,-19.0,7.0,15817.0,3917.0,525.0,1627.0,-37.0,-6.0,-14.0,1.0
2022-05-08 14:30:56.992475-07:00,873.0,1109.5,1460.8,1085.1,633.5,475.8,1435.0,1155.0,3471.0,3479.5,679.9,889.8,408.2,3502.7,789.4,787.7,3488.0,3475.9,404.3,650.5,476.6,541.8,250.8,250.8,3478.3,3484.4,589.1,470.3,682.3,1116.5,1375.7,436.4,-2.0,19.0,-19.0,14545.0,3445.0,1961.0,6415.0,-64.0,-17.0,19.0,10.0,-16.0,0.0,15819.0,3910.0,520.0,1620.0,-15.0,-23.0,-14.0,1.0
2022-05-08 14:30:57.141406-07:00,873.0,1104.3,1447.9,1088.6,633.5,475.8,1435.0,1155.9,3471.0,3473.4,677.4,894.9,408.2,3502.7,789.4,785.2,3480.7,3475.9,404.3,650.5,480.6,540.2,250.0,250.8,3474.6,3484.4,589.1,470.3,681.5,1112.1,1369.4,436.4,0.0,29.0,-27.0,14541.0,3462.0,1957.0,6418.0,-45.0,-43.0,2.0,1.0,-16.0,7.0,15821.0,3906.0,512.0,1618.0,4.0,-8.0,-3.0,1.0
2022-05-08 14:30:57.290696-07:00,872.1,1104.3,1447.9,1088.6,629.5,477.4,1425.9,1155.9,3466.1,3473.4,677.4,894.9,408.2,3502.7,786.1,785.2,3480.7,3467.4,405.9,657.0,480.6,540.2,250.0,250.0,3474.6,3475.9,589.9,471.1,681.5,1112.1,1369.4,433.3,-2.0,23.0,-6.0,14538.0,3470.0,1947.0,6423.0,-7.0,-14.0,30.0,0.0,12.0,12.0,15817.0,3923.0,512.0,1617.0,42.0,2.0,1.0,1.0
2022-05-08 14:30:57.291949-07:00,872.1,1108.6,1459.8,1091.2,629.5,477.4,1425.9,1153.3,3466.1,3488.0,675.0,894.9,408.2,3502.7,786.1,785.2,3481.9,3467.4,405.9,657.0,479.8,539.4,250.0,250.0,3477.1,3475.9,589.9,471.1,681.5,1115.6,1370.3,433.3,-8.0,36.0,-3.0,14525.0,3494.0,1971.0,6432.0,54.0,60.0,27.0,7.0,-13.0,6.0,15820.0,3907.0,513.0,1622.0,-33.0,17.0,11.0,1.0
2022-05-08 14:30:57.292873-07:00,871.3,1108.6,1459.8,1091.2,634.3,468.7,1432.3,1153.3,3469.8,3488.0,675.0,894.9,406.7,3508.8,789.4,785.2,3481.9,3475.9,405.9,646.5,479.8,539.4,250.0,243.9,3477.1,3474.6,589.1,469.5,681.5,1115.6,1370.3,430.2,-2.0,27.0,-24.0,14515.0,3494.0,1997.0,6446.0,-7.0,37.0,2.0,14.0,-13.0,-15.0,15821.0,3906.0,510.0,1620.0,20.0,-17.0,-16.0,1.0
2022-05-08 14:30:57.294257-07:00,871.3,1104.3,1450.6,1087.7,634.3,468.7,1432.3,1150.6,3469.8,3478.3,678.2,889.0,406.7,3508.8,789.4,783.6,3475.9,3475.9,405.9,646.5,481.4,543.4,247.0,243.9,3479.5,3474.6,589.1,469.5,683.1,1113.0,1373.9,430.2,10.0,19.0,-44.0,14508.0,3527.0,2012.0,6441.0,22.0,-14.0,-26.0,-9.0,-2.0,0.0,15803.0,3958.0,537.0,1655.0,70.0,42.0,12.0,1.0
2022-05-08 14:30:57.620431-07:00,867.9,1097.3,1453.4,1080.8,630.3,472.7,1436.9,1139.2,3472.2,3472.2,676.6,888.2,409.0,3496.6,790.2,787.7,3472.2,3481.9,402.0,651.4,479.0,541.8,249.2,247.7,3480.7,3475.9,587.5,470.3,679.1,1117.4,1373.0,431.7,-15.0,21.0,-21.0,14474.0,3603.0,2057.0,6460.0,74.0,20.0,16.0,8.0,-8.0,26.0,15782.0,4035.0,564.0,1665.0,-4.0,41.0,-16.0,1.0
2022-05-08 14:30:57.771760-07:00,866.3,1099.0,1447.9,1083.4,627.0,471.1,1430.5,1132.2,3475.9,3477.1,675.0,905.9,412.9,3500.2,783.6,791.9,3480.7,3481.9,406.7,648.9,473.5,543.4,250.8,252.3,3488.0,3472.2,592.3,467.1,681.5,1119.1,1375.7,432.5,-4.0,22.0,5.0,14437.0,3712.0,2097.0,6468.0,-12.0,73.0,-13.0,-2.0,-6.0,-12.0,15781.0,4035.0,585.0,1665.0,20.0,33.0,-6.0,1.0
2022-05-08 14:30:57.773265-07:00,870.5,1097.3,1451.6,1083.4,627.8,471.1,1430.5,1132.2,3477.1,3472.2,675.8,905.9,408.2,3494.1,783.6,791.9,3480.7,3481.9,404.3,648.1,473.5,545.8,247.0,243.9,3488.0,3472.2,589.9,469.5,681.5,1110.4,1370.3,436.4,-4.0,4.0,-39.0,14436.0,3702.0,2126.0,6467.0,26.0,58.0,2.0,6.0,-1.0,7.0,15779.0,4038.0,592.0,1675.0,20.0,21.0,29.0,1.0
2022-05-08 14:30:57.861327-07:00,870.5,1097.3,1451.6,1087.7,627.8,468.7,1433.2,1124.4,3477.1,3472.2,675.8,894.1,408.2,3501.4,777.8,786.1,3479.5,3471.0,402.8,648.1,480.6,545.8,247.0,243.9,3485.6,3483.2,589.9,469.5,681.5,1110.4,1370.3,436.4,2.0,8.0,-13.0,14430.0,3701.0,2138.0,6477.0,26.0,-10.0,42.0,6.0,3.0,-6.0,15770.0,4059.0,617.0,1699.0,3.0,40.0,25.0,1.0
2022-05-08 14:30:57.921361-07:00,866.3,1102.5,1450.6,1087.7,627.8,468.7,1433.2,1124.4,3472.2,3464.9,676.6,894.1,404.3,3501.4,777.8,786.1,3479.5,3471.0,402.8,649.7,480.6,548.2,245.4,247.0,3485.6,3483.2,589.9,467.1,681.5,1116.5,1371.2,429.4,3.0,20.0,-28.0,14407.0,3733.0,2174.0,6498.0,-7.0,76.0,39.0,0.0,-12.0,6.0,15788.0,3991.0,607.0,1700.0,-53.0,-10.0,18.0,1.0
2022-05-08 14:30:58.011646-07:00,869.6,1096.4,1452.5,1084.2,627.0,474.3,1424.1,1126.1,3477.1,3477.1,673.3,889.0,414.5,3491.7,785.2,783.6,3480.7,3469.8,411.4,653.8,477.4,539.4,247.0,250.8,3483.2,3475.9,584.3,467.9,680.7,1120.9,1368.5,429.4,-4.0,2.0,-12.0,14410.0,3699.0,2185.0,6507.0,-43.0,-15.0,26.0,5.0,-2.0,3.0,15790.0,3979.0,599.0,1706.0,9.0,-17.0,10.0,1.0
2022-05-08 14:30:58.250730-07:00,869.6,1096.4,1452.5,1084.2,631.9,471.9,1419.5,1121.7,3477.1,3477.1,673.3,889.0,405.1,3496.6,786.1,789.4,3475.9,3479.5,405.9,646.5,477.4,539.4,247.0,250.8,3477.1,3477.1,592.3,469.5,680.7,1120.9,1368.5,429.4,0.0,10.0,-2.0,14413.0,3696.0,2168.0,6508.0,11.0,-13.0,5.0,11.0,2.0,4.0,15791.0,3979.0,595.0,1706.0,-38.0,-10.0,2.0,1.0
2022-05-08 14:30:58.251914-07:00,866.3,1099.9,1445.1,1086.0,631.9,471.9,1419.5,1121.7,3469.8,3480.7,671.7,887.3,405.1,3496.6,786.1,789.4,3475.9,3479.5,405.9,646.5,479.0,541.0,250.0,247.7,3477.1,3477.1,592.3,469.5,675.8,1113.9,1374.8,427.8,10.0,22.0,-8.0,14411.0,3703.0,2169.0,6508.0,-42.0,-6.0,2.0,8.0,1.0,-5.0,15794.0,3967.0,592.0,1705.0,-9.0,-5.0,-9.0,1.0
2022-05-08 14:30:58.341308-07:00,866.3,1099.9,1445.1,1086.0,631.9,467.9,1425.9,1121.7,3469.8,3480.7,671.7,887.3,406.7,3486.8,785.2,792.7,3480.7,3483.2,402.8,648.9,479.0,541.0,250.0,247.7,3481.9,3479.5,581.8,464.0,675.8,1113.9,1374.8,427.8,4.0,2.0,-14.0,14416.0,3693.0,2164.0,6504.0,-9.0,4.0,-18.0,9.0,-9.0,-6.0,15794.0,3964.0,588.0,1712.0,21.0,-9.0,30.0,1.0
2022-05-08 14:30:58.400628-07:00,857.9,1099.9,1448.8,1084.2,631.9,467.9,1425.9,1121.7,3467.4,3472.2,679.9,888.2,406.7,3486.8,785.2,792.7,3480.7,3483.2,402.8,648.9,480.6,536.2,243.9,247.0,3481.9,3479.5,581.8,464.0,683.1,1119.1,1373.9,434.1,3.0,-5.0,-18.0,14415.0,3692.0,2161.0,6506.0,17.0,-11.0,19.0,2.0,0.0,5.0,15790.0,3972.0,577.0,1727.0,-17.0,-27.0,38.0,1.0
2022-05-08 14:30:58.401952-07:00,862.9,1099.9,1448.8,1084.2,630.3,465.6,1421.3,1120.0,3475.9,3472.2,679.9,888.2,405.1,3491.7,780.3,786.1,3480.7,3473.4,402.0,648.9,480.6,536.2,243.9,250.8,3483.2,3480.7,582.6,471.1,683.1,1119.1,1373.9,430.9,-1.0,21.0,-10.0,14408.0,3712.0,2156.0,6513.0,-1.0,-20.0,28.0,2.0,0.0,5.0,15790.0,3972.0,577.0,1727.0,-17.0,-27.0,38.0,1.0
2022-05-08 14:30:58.402639-07:00,862.9,1099.9,1448.8,1084.2,630.3,465.6,1421.3,1120.0,3475.9,3472.2,679.9,888.2,405.1,3491.7,780.3,786.1,3480.7,3473.4,402.0,648.9,480.6,536.2,243.9,250.8,3483.2,3480.7,582.6,471.1,683.1,1119.1,1373.9,430.9,-1.0,21.0,-10.0,14408.0,3712.0,2156.0,6513.0,-1.0,-20.0,28.0,2.0,0.0,5.0,15790.0,3972.0,577.0,1727.0,-17.0,-27.0,38.0,1.0
2022-05-08 14:30:58.403985-07:00,862.9,1099.9,1448.8,1084.2,630.3,465.6,1421.3,1120.0,3475.9,3472.2,679.9,888.2,405.1,3491.7,780.3,786.1,3480.7,3473.4,402.0,648.9,480.6,536.2,243.9,250.8,3483.2,3480.7,582.6,471.1,683.1,1119.1,1373.9,430.9,-1.0,21.0,-10.0,14408.0,3712.0,2156.0,6513.0,-1.0,-20.0,28.0,17.0,-18.0,-6.0,15793.0,3968.0,576.0,1711.0,46.0,38.0,-32.0,1.0
2022-05-08 14:30:58.405339-07:00,871.3,1092.1,1446.0,1080.8,628.6,474.3,1420.4,1115.6,3483.2,3475.9,676.6,891.5,411.4,3500.2,782.7,786.1,3484.4,3472.2,405.9,652.2,472.7,539.4,249.2,247.7,3483.2,3474.6,585.9,465.6,679.9,1119.1,1373.9,433.3,14.0,-12.0,-33.0,14413.0,3712.0,2166.0,6499.0,56.0,54.0,-30.0,17.0,-18.0,-6.0,15793.0,3968.0,576.0,1711.0,46.0,38.0,-32.0,1.0
2022-05-08 14:30:58.406065-07:00,871.3,1092.1,1446.0,1080.8,628.6,474.3,1420.4,1115.6,3483.2,3475.9,676.6,891.5,411.4,3500.2,782.7,786.1,3484.4,3472.2,405.9,652.2,472.7,539.4,249.2,247.7,3483.2,3474.6,585.9,465.6,679.9,1119.1,1373.9,433.3,14.0,-12.0,-33.0,14413.0,3712.0,2166.0,6499.0,56.0,54.0,-30.0,13.0,9.0,4.0,15791.0,3974.0,582.0,1716.0,-1.0,26.0,19.0,1.0
2022-05-08 14:30:58.490715-07:00,867.1,1092.9,1448.8,1098.2,632.7,467.1,1420.4,1118.2,3478.3,3469.8,670.9,897.4,409.0,3507.5,785.2,790.2,3480.7,3477.1,406.7,649.7,477.4,544.2,247.7,250.8,3480.7,3478.3,584.3,467.9,677.4,1115.6,1373.9,434.9,11.0,26.0,0.0,14405.0,3718.0,2180.0,6509.0,5.0,5.0,17.0,9.0,6.0,-9.0,15787.0,3982.0,595.0,1729.0,31.0,45.0,29.0,1.0
2022-05-08 14:30:58.520615-07:00,867.9,1095.6,1448.8,1098.2,645.7,471.9,1420.4,1118.2,3471.0,3477.1,670.9,897.4,409.0,3492.9,785.2,790.2,3480.7,3477.1,401.2,653.8,477.4,544.2,249.2,248.5,3480.7,3478.3,585.1,469.5,677.4,1115.6,1371.2,431.7,7.0,0.0,-14.0,14400.0,3716.0,2200.0,6514.0,37.0,76.0,10.0,0.0,-10.0,-2.0,15781.0,3996.0,605.0,1751.0,38.0,24.0,44.0,1.0
2022-05-08 14:30:58.522004-07:00,867.9,1095.6,1447.9,1083.4,645.7,471.9,1422.2,1111.2,3471.0,3477.1,677.4,894.1,409.0,3492.9,781.1,786.9,3483.2,3477.1,401.2,653.8,476.6,539.4,249.2,248.5,3488.0,3477.1,585.1,469.5,684.8,1114.7,1371.2,431.7,-2.0,-1.0,-30.0,14386.0,3727.0,2218.0,6531.0,35.0,4.0,47.0,-13.0,16.0,12.0,15780.0,3996.0,611.0,1759.0,-27.0,10.0,1.0,1.0
2022-05-08 14:30:58.610667-07:00,860.4,1093.8,1447.9,1083.4,627.8,473.5,1422.2,1111.2,3475.9,3472.2,677.4,894.1,405.9,3491.7,781.1,786.9,3483.2,3477.1,405.9,652.2,476.6,539.4,247.7,245.4,3488.0,3477.1,581.8,467.1,684.8,1114.7,1373.9,436.4,-13.0,37.0,8.0,14381.0,3737.0,2219.0,6537.0,-21.0,8.0,-1.0,-10.0,-16.0,-9.0,15781.0,3992.0,613.0,1754.0,14.0,6.0,-13.0,1.0
2022-05-08 14:30:58.730629-07:00,860.4,1093.8,1450.6,1081.6,627.8,473.5,1416.7,1103.4,3475.9,3472.2,667.6,884.8,405.9,3491.7,784.4,784.4,3479.5,3474.6,405.9,652.2,473.5,532.2,247.7,245.4,3477.1,3478.3,581.8,467.1,680.7,1117.4,1373.9,436.4,-13.0,-12.0,-21.0,14384.0,3724.0,2232.0,6533.0,11.0,41.0,-23.0,0.0,-6.0,1.0,15783.0,3988.0,609.0,1750.0,-22.0,-22.0,-16.0,1.0
2022-05-08 14:30:58.732000-07:00,863.7,1092.9,1440.5,1081.6,631.1,472.7,1416.7,1103.4,3472.2,3472.2,666.0,884.8,402.8,3491.7,784.4,784.4,3479.5,3474.6,408.2,653.8,473.5,537.0,247.0,247.0,3477.1,3478.3,589.1,469.5,680.7,1114.7,1370.3,411.4,-3.0,6.0,-13.0,14386.0,3727.0,2236.0,6526.0,-20.0,-32.0,-17.0,9.0,0.0,8.0,15787.0,3979.0,605.0,1737.0,-15.0,-2.0,-39.0,1.0
2022-05-08 14:30:58.760679-07:00,863.7,1092.9,1440.5,1083.4,631.1,475.0,1421.3,1104.3,3472.2,3472.2,666.0,892.4,402.8,3496.6,784.4,788.6,3477.1,3478.3,405.1,653.8,477.4,537.0,247.0,247.0,3479.5,3480.7,583.5,469.5,679.1,1114.7,1370.3,411.4,12.0,14.0,14.0,14394.0,3723.0,2222.0,6515.0,-23.0,-11.0,-40.0,9.0,-10.0,0.0,15789.0,3976.0,609.0,1725.0,0.0,13.0,-28.0,1.0
2022-05-08 14:30:58.821266-07:00,867.1,1091.2,1448.8,1083.4,631.1,475.0,1421.3,1104.3,3478.3,3464.9,673.3,892.4,408.2,3496.6,784.4,788.6,3477.1,3478.3,405.1,654.6,477.4,539.4,250.8,246.2,3479.5,3480.7,583.5,466.4,679.1,1110.4,1370.3,430.2,5.0,-8.0,-5.0,14402.0,3714.0,2232.0,6500.0,-7.0,34.0,-34.0,0.0,-14.0,2.0,15789.0,3974.0,613.0,1723.0,-6.0,10.0,17.0,1.0
2022-05-08 14:30:58.823940-07:00,867.1,1091.2,1448.8,1086.8,631.1,474.3,1419.5,1107.8,3478.3,3464.9,673.3,886.5,408.2,3496.6,781.1,786.1,3478.3,3484.4,405.1,654.6,480.6,539.4,250.8,246.2,3481.9,3484.4,589.1,466.4,681.5,1110.4,1370.3,430.2,-2.0,-11.0,-18.0,14402.0,3709.0,2240.0,6500.0,-18.0,4.0,13.0,6.0,20.0,9.0,15786.0,3984.0,612.0,1731.0,9.0,2.0,14.0,1.0
2022-05-08 14:30:58.941418-07:00,866.3,1092.9,1440.5,1086.8,630.3,474.3,1419.5,1107.8,3478.3,3471.0,666.0,886.5,411.4,3496.6,781.1,786.1,3478.3,3484.4,405.1,653.8,480.6,539.4,245.4,247.0,3481.9,3484.4,589.1,467.1,681.5,1113.9,1371.2,436.4,5.0,24.0,2.0,14399.0,3725.0,2235.0,6499.0,53.0,-17.0,18.0,4.0,-8.0,-7.0,15787.0,3979.0,612.0,1733.0,11.0,5.0,8.0,1.0
2022-05-08 14:30:58.970953-07:00,866.3,1092.9,1440.5,1084.2,630.3,468.7,1415.8,1107.8,3478.3,3471.0,666.0,894.1,411.4,3486.8,781.1,788.6,3485.6,3479.5,401.2,653.8,480.6,539.4,245.4,247.0,3484.4,3477.1,578.6,467.1,686.4,1113.9,1371.2,436.4,3.0,1.0,-6.0,14399.0,3719.0,2231.0,6503.0,-11.0,20.0,14.0,9.0,-8.0,5.0,15785.0,3983.0,611.0,1739.0,8.0,5.0,27.0,1.0
2022-05-08 14:30:59.031302-07:00,867.1,1089.5,1448.8,1084.2,631.1,468.7,1415.8,1107.8,3475.9,3472.2,670.9,883.9,408.2,3486.8,781.1,788.6,3485.6,3479.5,401.2,650.5,477.4,544.2,247.7,247.0,3484.4,3477.1,578.6,471.1,679.1,1116.5,1385.7,430.2,7.0,0.0,-9.0,14393.0,3721.0,2236.0,6514.0,-4.0,-4.0,35.0,0.0,0.0,0.0,15783.0,3988.0,608.0,1750.0,16.0,5.0,16.0,1.0
2022-05-08 14:30:59.032394-07:00,867.1,1089.5,1448.8,1084.2,630.3,472.7,1425.9,1105.1,3475.9,3472.2,670.9,883.9,409.8,3501.4,784.4,791.9,3477.1,3488.0,403.5,650.5,477.4,544.2,247.7,247.0,3488.0,3475.9,585.9,469.5,679.1,1116.5,1385.7,430.2,1.0,8.0,0.0,14388.0,3734.0,2229.0,6521.0,42.0,-11.0,16.0,-18.0,2.0,0.0,15782.0,3989.0,608.0,1755.0,-6.0,0.0,8.0,1.0
2022-05-08 14:30:59.090950-07:00,864.6,1091.2,1440.5,1086.0,630.3,472.7,1425.9,1105.1,3478.3,3488.0,670.9,890.7,409.8,3501.4,784.4,791.9,3477.1,3488.0,403.5,650.5,474.3,545.8,252.3,247.7,3488.0,3475.9,585.9,469.5,681.5,1118.2,1365.7,429.4,-17.0,11.0,-16.0,14382.0,3741.0,2231.0,6528.0,11.0,-7.0,16.0,11.0,-1.0,-6.0,15782.0,3988.0,607.0,1755.0,-2.0,-7.0,-7.0,1.0
2022-05-08 14:30:59.120790-07:00,864.6,1091.2,1440.5,1086.0,631.1,471.1,1416.7,1104.3,3478.3,3488.0,670.9,890.7,404.3,3497.8,783.6,787.7,3477.1,3480.7,402.8,650.5,474.3,545.8,252.3,247.7,3475.9,3471.0,581.0,465.6,681.5,1118.2,1365.7,429.4,12.0,10.0,-10.0,14383.0,3753.0,2223.0,6523.0,-11.0,-30.0,-15.0,15.0,-3.0,-2.0,15781.0,3992.0,607.0,1754.0,17.0,-1.0,-3.0,1.0
2022-05-08 14:30:59.180739-07:00,870.5,1101.7,1445.1,1086.8,631.1,471.1,1416.7,1104.3,3471.0,3471.0,673.3,889.0,404.3,3497.8,783.6,787.7,3477.1,3480.7,402.8,650.5,478.2,537.0,247.0,249.2,3475.9,3471.0,581.0,465.6,679.9,1115.6,1365.7,438.8,12.0,-1.0,-9.0,14381.0,3757.0,2227.0,6522.0,17.0,5.0,5.0,-8.0,6.0,-3.0,15779.0,4001.0,607.0,1753.0,22.0,-13.0,-8.0,1.0
2022-05-08 14:30:59.330717-07:00,870.5,1101.7,1445.1,1086.8,627.0,471.1,1416.7,1102.5,3471.0,3471.0,673.3,889.0,407.5,3500.2,785.2,784.4,3475.9,3480.7,405.1,650.5,478.2,537.0,247.0,249.2,3479.5,3479.5,581.0,465.6,679.9,1115.6,1365.7,438.8,-8.0,7.0,-10.0,14381.0,3768.0,2223.0,6519.0,7.0,-40.0,-8.0,14.0,-8.0,10.0,15783.0,3989.0,602.0,1747.0,-15.0,18.0,-9.0,1.0
2022-05-08 14:30:59.481528-07:00,864.6,1090.3,1441.5,1084.2,627.0,471.1,1416.7,1101.7,3478.3,3473.4,673.3,890.7,407.5,3500.2,785.2,782.7,3479.5,3480.7,405.1,650.5,475.0,540.2,243.9,245.4,3477.1,3479.5,581.0,465.6,683.1,1116.5,1370.3,431.7,12.0,-3.0,18.0,14386.0,3757.0,2211.0,6516.0,-18.0,17.0,-9.0,2.0,0.0,-14.0,15783.0,3986.0,609.0,1749.0,-5.0,5.0,-5.0,1.0
2022-05-08 14:30:59.510666-07:00,867.1,1090.3,1441.5,1084.2,631.9,471.9,1411.3,1101.7,3467.4,3473.4,673.3,890.7,412.1,3497.8,781.9,782.7,3479.5,3480.7,398.1,650.5,475.0,540.2,243.9,250.8,3477.1,3477.1,587.5,465.6,683.1,1116.5,1370.3,426.2,4.0,5.0,-22.0,14386.0,3751.0,2219.0,6517.0,-12.0,17.0,-12.0,4.0,-5.0,0.0,15783.0,3987.0,608.0,1749.0,4.0,-5.0,2.0,1.0
2022-05-08 14:30:59.541615-07:00,867.1,1093.8,1438.7,1079.9,631.9,471.9,1411.3,1103.4,3467.4,3481.9,672.5,887.3,412.1,3497.8,781.9,784.4,3475.9,3480.7,398.1,650.5,480.6,541.8,243.9,250.8,3477.1,3477.1,587.5,465.6,681.5,1115.6,1378.5,426.2,5.0,3.0,-10.0,14387.0,3751.0,2219.0,6517.0,0.0,-18.0,0.0,5.0,-1.0,1.0,15783.0,3987.0,607.0,1751.0,1.0,-6.0,10.0,1.0
2022-05-08 14:30:59.542683-07:00,867.9,1093.8,1438.7,1079.9,626.2,471.1,1421.3,1103.4,3477.1,3481.9,672.5,887.3,405.9,3497.8,780.3,784.4,3475.9,3478.3,401.2,651.4,480.6,541.8,243.9,247.0,3477.1,3480.7,581.8,465.6,681.5,1115.6,1378.5,433.3,5.0,5.0,2.0,14387.0,3753.0,2214.0,6517.0,1.0,2.0,13.0,-14.0,-1.0,0.0,15782.0,3989.0,609.0,1752.0,9.0,1.0,-10.0,1.0
2022-05-08 14:30:59.543859-07:00,867.9,1088.6,1439.6,1087.7,626.2,471.1,1421.3,1125.2,3477.1,3478.3,669.3,892.4,405.9,3497.8,780.3,786.1,3481.9,3478.3,401.2,651.4,479.8,541.8,246.2,247.0,3479.5,3480.7,581.8,465.6,682.3,1117.4,1374.8,433.3,-3.0,12.0,-7.0,14385.0,3758.0,2215.0,6517.0,9.0,-2.0,-13.0,-14.0,-1.0,0.0,15782.0,3989.0,609.0,1752.0,9.0,1.0,-10.0,1.0
2022-05-08 14:30:59.544626-07:00,867.9,1088.6,1439.6,1087.7,626.2,471.1,1421.3,1125.2,3477.1,3478.3,669.3,892.4,405.9,3497.8,780.3,786.1,3481.9,3478.3,401.2,651.4,479.8,541.8,246.2,247.0,3479.5,3480.7,581.8,465.6,682.3,1117.4,1374.8,433.3,-3.0,12.0,-7.0,14385.0,3758.0,2215.0,6517.0,9.0,-2.0,-13.0,20.0,-11.0,-9.0,15785.0,3979.0,615.0,1750.0,-12.0,31.0,35.0,1.0
2022-05-08 14:30:59.570842-07:00,867.9,1092.1,1440.5,1085.1,627.8,471.1,1414.0,1099.9,3475.9,3469.8,671.7,895.7,401.2,3497.8,776.9,784.4,3469.8,3478.3,405.1,653.8,480.6,541.0,247.0,246.2,3472.2,3484.4,584.3,466.4,684.0,1113.9,1373.0,433.3,29.0,-12.0,-3.0,14388.0,3750.0,2229.0,6511.0,0.0,50.0,25.0,-19.0,-4.0,-7.0,15780.0,3991.0,622.0,1766.0,65.0,14.0,24.0,1.0
2022-05-08 14:30:59.721497-07:00,878.0,1090.3,1440.5,1085.1,629.5,467.1,1414.0,1099.9,3474.6,3475.9,671.7,895.7,408.2,3499.0,776.9,784.4,3469.8,3478.3,404.3,648.1,480.6,541.0,247.7,243.2,3472.2,3484.4,585.9,465.6,684.0,1113.9,1372.1,427.8,-13.0,3.0,-24.0,14376.0,3759.0,2247.0,6525.0,100.0,23.0,15.0,-5.0,7.0,1.0,15767.0,4043.0,627.0,1763.0,155.0,-10.0,-17.0,1.0
2022-05-08 14:30:59.840728-07:00,878.0,1090.3,1439.6,1084.2,629.5,467.1,1417.6,1098.2,3474.6,3475.9,674.2,892.4,408.2,3499.0,781.1,786.9,3479.5,3480.7,404.3,648.1,471.9,537.0,247.7,243.2,3488.0,3479.5,585.9,465.6,684.8,1118.2,1372.1,427.8,0.0,24.0,6.0,14362.0,3809.0,2290.0,6513.0,221.0,76.0,-65.0,5.0,-51.0,-5.0,15737.0,4161.0,648.0,1743.0,445.0,41.0,-44.0,1.0
2022-05-08 14:30:59.842144-07:00,862.9,1090.3,1439.6,1084.2,628.6,471.1,1417.6,1098.2,3478.3,3475.9,674.2,892.4,406.7,3500.2,781.1,786.9,3479.5,3480.7,405.9,653.0,471.9,537.0,245.4,244.7,3488.0,3479.5,578.6,467.1,684.8,1118.2,1368.5,418.4,7.0,-22.0,9.0,14341.0,3906.0,2423.0,6454.0,766.0,263.0,-334.0,10.0,58.0,0.0,15678.0,4376.0,720.0,1727.0,448.0,111.0,-53.0,1.0
2022-05-08 14:30:59.843158-07:00,862.9,1090.3,1440.5,1084.2,628.6,471.1,1420.4,1105.1,3478.3,3475.9,675.0,889.8,406.7,3500.2,786.9,787.7,3479.5,3481.9,405.9,653.0,475.8,539.4,245.4,244.7,3480.7,3478.3,578.6,467.1,683.1,1116.5,1368.5,418.4,9.0,109.0,-43.0,14301.0,4227.0,2712.0,6221.0,795.0,71.0,-527.0,-14.0,-115.0,-24.0,15593.0,4676.0,807.0,1669.0,1222.0,104.0,-176.0,1.0
2022-05-08 14:30:59.844377-07:00,867.9,1092.9,1440.5,1084.2,630.3,477.4,1420.4,1105.1,3473.4,3472.2,675.0,889.8,411.4,3507.5,786.9,787.7,3479.5,3481.9,402.8,650.5,475.8,539.4,247.0,254.6,3480.7,3478.3,585.9,467.1,683.1,1116.5,1366.6,427.0,0.0,-132.0,20.0,14282.0,4477.0,2986.0,5957.0,1256.0,262.0,-646.0,-12.0,7.0,-29.0,15345.0,5443.0,950.0,1556.0,2040.0,65.0,-155.0,1.0
2022-05-08 14:30:59.900627-07:00,867.9,1092.9,1433.2,1078.2,630.3,475.8,1414.9,1113.0,3473.4,3472.2,679.9,892.4,411.4,3500.2,789.4,789.4,3483.2,3477.1,401.2,650.5,473.5,543.4,247.0,254.6,3483.2,3478.3,584.3,467.1,679.1,1116.5,1366.6,427.0,-10.0,-76.0,-33.0,14056.0,5174.0,3495.0,5646.0,2270.0,365.0,-255.0,-12.0,-93.0,44.0,15023.0,6275.0,1079.0,1486.0,2229.0,131.0,-62.0,1.0
2022-05-08 14:30:59.960826-07:00,865.4,1089.5,1443.3,1078.2,631.9,475.8,1414.9,1113.0,3478.3,3475.9,679.1,892.4,405.9,3500.2,789.4,789.4,3483.2,3477.1,401.2,653.8,473.5,538.6,247.7,242.4,3483.2,3478.3,584.3,464.8,679.1,1115.6,1368.5,427.8,-11.0,-44.0,74.0,13718.0,5920.0,3936.0,5452.0,2358.0,273.0,-13.0,10.0,60.0,-17.0,14576.0,7236.0,1284.0,1403.0,2601.0,272.0,-182.0,1.0
2022-05-08 14:30:59.962105-07:00,865.4,1089.5,1443.3,1091.2,631.9,475.8,1414.9,1109.5,3478.3,3475.9,679.1,893.2,405.9,3502.7,792.7,785.2,3474.6,3478.3,405.1,653.8,475.0,538.6,247.7,242.4,3480.7,3479.5,588.3,464.8,675.0,1115.6,1368.5,427.8,25.0,77.0,36.0,13208.0,6851.0,4478.0,5196.0,2989.0,514.0,-112.0,4.0,21.0,-55.0,14072.0,8158.0,1510.0,1256.0,2411.0,176.0,-301.0,1.0
2022-05-08 14:31:00.020945-07:00,865.4,1089.5,1436.0,1091.2,627.0,475.8,1414.9,1109.5,3477.1,3466.1,681.5,893.2,408.2,3502.7,792.7,785.2,3474.6,3478.3,405.1,650.5,475.0,542.6,250.8,245.4,3480.7,3479.5,588.3,465.6,675.0,1115.6,1370.3,430.2,31.0,17.0,-69.0,12618.0,7672.0,5108.0,4927.0,2585.0,709.0,-189.0,11.0,-37.0,-45.0,13509.0,9049.0,1719.0,1053.0,2576.0,119.0,-391.0,1.0
2022-05-08 14:31:00.110855-07:00,865.4,1089.5,1436.0,1079.0,627.0,478.2,1410.3,1103.4,3477.1,3466.1,681.5,892.4,408.2,3491.7,791.0,788.6,3472.2,3483.2,404.3,650.5,471.9,542.6,250.8,245.4,3480.7,3481.9,592.3,465.6,682.3,1115.6,1370.3,430.2,14.0,25.0,-70.0,11970.0,8503.0,5643.0,4584.0,2991.0,278.0,-104.0,11.0,10.0,-67.0,12913.0,9864.0,1922.0,835.0,2319.0,115.0,-397.0,1.0
2022-05-08 14:31:00.112121-07:00,867.9,1092.1,1429.5,1079.0,627.0,478.2,1410.3,1103.4,3474.6,3471.0,679.1,892.4,415.3,3491.7,791.0,788.6,3472.2,3483.2,404.3,642.4,471.9,545.0,246.2,246.2,3480.7,3481.9,592.3,466.4,682.3,1114.7,1367.6,432.5,29.0,38.0,-29.0,11294.0,9359.0,6028.0,4118.0,2679.0,38.0,-131.0,-10.0,-38.0,-72.0,12307.0,10592.0,2097.0,616.0,3345.0,165.0,-466.0,1.0
2022-05-08 14:31:00.170801-07:00,867.9,1092.1,1429.5,1076.4,634.3,481.4,1404.9,1095.6,3474.6,3471.0,679.1,888.2,404.3,3491.7,789.4,787.7,3469.8,3480.7,405.9,650.5,473.5,545.0,246.2,246.2,3488.0,3475.9,596.3,459.3,683.1,1114.7,1367.6,432.5,15.0,-90.0,14.0,10500.0,10210.0,6389.0,3621.0,3512.0,171.0,-19.0,-12.0,-90.0,-21.0,11289.0,11637.0,2334.0,334.0,3473.0,212.0,-318.0,1.0
2022-05-08 14:31:00.291850-07:00,869.6,1084.2,1420.4,1077.3,634.3,481.4,1404.9,1095.6,3467.4,3473.4,680.7,891.5,404.3,3491.7,789.4,787.7,3469.8,3480.7,405.9,650.5,473.5,548.2,244.7,243.2,3488.0,3475.9,596.3,459.3,681.5,1114.7,1370.3,431.7,28.0,-83.0,64.0,9403.0,11183.0,6760.0,3043.0,3705.0,236.0,95.0,-3.0,-37.0,40.0,10216.0,12561.0,2505.0,129.0,3044.0,253.0,-166.0,1.0
2022-05-08 14:31:00.471425-07:00,869.6,1084.2,1420.4,1077.3,627.0,473.5,1414.9,1088.6,3467.4,3473.4,680.7,891.5,411.4,3502.7,789.4,788.6,3477.1,3481.9,403.5,650.5,473.5,548.2,244.7,243.2,3478.3,3478.3,588.3,464.0,681.5,1114.7,1370.3,431.7,-5.0,36.0,59.0,8269.0,12023.0,7010.0,2526.0,3318.0,192.0,268.0,-17.0,-80.0,-15.0,9170.0,13321.0,2626.0,-11.0,3183.0,316.0,-81.0,1.0
2022-05-08 14:31:00.474679-07:00,867.9,1079.0,1426.8,1079.9,627.0,473.5,1414.9,1088.6,3477.1,3472.2,684.0,897.4,411.4,3502.7,789.4,788.6,3477.1,3481.9,403.5,650.5,474.3,549.0,242.4,243.2,3478.3,3478.3,588.3,464.0,685.6,1125.2,1368.5,432.5,20.0,-15.0,60.0,7157.0,12713.0,7175.0,2025.0,3417.0,267.0,141.0,83.0,2.0,-4.0,8030.0,14020.0,2718.0,-88.0,2628.0,326.0,8.0,1.0
2022-05-08 14:31:00.475565-07:00,867.9,1079.0,1426.8,1079.9,631.1,475.8,1409.4,1076.4,3477.1,3472.2,684.0,897.4,410.6,3497.8,787.7,790.2,3478.3,3479.5,405.9,651.4,474.3,549.0,242.4,243.2,3483.2,3477.1,589.1,462.4,685.6,1125.2,1368.5,432.5,31.0,146.0,49.0,5865.0,13326.0,7366.0,1477.0,3358.0,347.0,59.0,16.0,-43.0,-30.0,7098.0,14498.0,2800.0,-143.0,2271.0,334.0,-115.0,1.0
2022-05-08 14:31:00.476376-07:00,867.1,1069.5,1423.1,1072.9,631.1,475.8,1409.4,1076.4,3474.6,3474.6,686.4,889.8,410.6,3497.8,787.7,790.2,3478.3,3479.5,405.9,651.4,473.5,551.4,249.2,242.4,3483.2,3477.1,589.1,462.4,679.9,1118.2,1371.2,430.2,35.0,36.0,40.0,4794.0,13700.0,7525.0,1062.0,2584.0,449.0,-91.0,7.0,-29.0,-58.0,6087.0,14930.0,2903.0,-230.0,2817.0,323.0,-194.0,1.0
2022-05-08 14:31:00.501283-07:00,867.1,1069.5,1423.1,1072.9,634.3,477.4,1413.1,1072.9,3474.6,3474.6,686.4,889.8,409.0,3486.8,796.0,788.6,3471.0,3480.7,402.8,651.4,473.5,551.4,249.2,242.4,3477.1,3477.1,587.5,462.4,679.9,1118.2,1371.2,430.2,22.0,18.0,1.0,3636.0,13980.0,7701.0,695.0,3044.0,664.0,-118.0,7.0,-29.0,-58.0,6087.0,14930.0,2903.0,-230.0,2817.0,323.0,-194.0,1.0
2022-05-08 14:31:00.561043-07:00,867.1,1069.5,1423.1,1072.9,634.3,477.4,1413.1,1072.9,3474.6,3474.6,686.4,889.8,409.0,3486.8,796.0,788.6,3471.0,3480.7,402.8,651.4,473.5,551.4,249.2,242.4,3477.1,3477.1,587.5,462.4,679.9,1118.2,1371.2,430.2,22.0,18.0,1.0,3636.0,13980.0,7701.0,695.0,3044.0,664.0,-118.0,11.0,14.0,54.0,4218.0,15510.0,3145.0,-420.0,1463.0,323.0,-252.0,1.0
2022-05-08 14:31:00.562469-07:00,868.8,1070.3,1424.1,1075.6,628.6,479.8,1419.5,1060.8,3478.3,3472.2,688.9,892.4,406.7,3494.1,835.2,791.9,3478.3,3492.9,405.9,652.2,470.3,553.0,243.9,253.1,3474.6,3477.1,586.7,460.8,679.1,1109.5,1371.2,434.1,-8.0,116.0,52.0,1732.0,14193.0,7999.0,116.0,1450.0,332.0,-259.0,13.0,49.0,17.0,3780.0,15599.0,3270.0,-339.0,496.0,616.0,-200.0,1.0
2022-05-08 14:31:00.620851-07:00,868.8,1069.5,1418.6,1073.8,628.6,479.8,1419.5,1059.1,3478.3,3473.4,697.9,884.8,406.7,3494.1,835.2,789.4,3477.1,3492.9,405.9,652.2,472.7,549.8,247.7,253.1,3472.2,3477.1,586.7,460.8,679.1,1117.4,1368.5,434.1,19.0,70.0,117.0,1301.0,14183.0,8098.0,17.0,697.0,383.0,-221.0,-26.0,-37.0,-40.0,3541.0,15633.0,3390.0,-140.0,340.0,591.0,-146.0,1.0
2022-05-08 14:31:00.681229-07:00,872.1,1069.5,1418.6,1073.8,629.5,479.0,1404.0,1059.1,3478.3,3473.4,697.9,884.8,410.6,3494.1,838.6,789.4,3477.1,3474.6,405.9,650.5,472.7,549.8,247.7,246.2,3472.2,3479.5,581.8,467.9,679.1,1117.4,1368.5,431.7,-13.0,22.0,-16.0,1010.0,14133.0,8225.0,147.0,333.0,710.0,-328.0,8.0,-66.0,-83.0,3424.0,15639.0,3483.0,36.0,5.0,434.0,-97.0,1.0
2022-05-08 14:31:00.710777-07:00,872.1,1070.3,1427.7,1077.3,629.5,479.0,1404.0,1040.1,3478.3,3473.4,692.9,901.7,410.6,3494.1,838.6,795.2,3478.3,3474.6,405.9,650.5,475.0,551.4,247.0,246.2,3477.1,3479.5,581.8,467.9,692.9,1111.2,1373.0,431.7,-18.0,29.0,-113.0,815.0,14083.0,8329.0,269.0,158.0,315.0,-192.0,1.0,-66.0,-55.0,3325.0,15647.0,3541.0,110.0,329.0,101.0,-70.0,1.0
2022-05-08 14:31:00.830968-07:00,865.4,1070.3,1427.7,1077.3,627.0,483.7,1408.5,1040.1,3469.8,3473.4,692.9,901.7,407.5,3496.6,841.9,795.2,3478.3,3488.0,409.0,656.2,475.0,551.4,247.0,250.8,3477.1,3477.1,580.2,467.1,692.9,1111.2,1373.0,433.3,15.0,6.0,-75.0,690.0,14047.0,8399.0,283.0,174.0,126.0,-153.0,23.0,-32.0,-38.0,3314.0,15646.0,3554.0,103.0,-30.0,-90.0,12.0,1.0
2022-05-08 14:31:00.832288-07:00,865.4,1070.3,1416.7,1077.3,627.0,483.7,1409.4,1029.7,3469.8,3460.1,697.9,889.8,407.5,3496.6,836.9,790.2,3479.5,3483.2,409.0,656.2,470.3,548.2,246.2,250.8,3478.3,3479.5,580.2,467.1,678.2,1115.6,1376.6,433.3,19.0,28.0,-61.0,686.0,14043.0,8408.0,268.0,-26.0,-149.0,64.0,46.0,0.0,-3.0,3358.0,15642.0,3531.0,58.0,-209.0,-88.0,23.0,1.0
2022-05-08 14:31:00.950940-07:00,862.1,1066.9,1416.7,1077.3,632.7,483.0,1409.4,1029.7,3472.2,3469.8,697.9,889.8,411.4,3506.3,836.9,790.2,3479.5,3483.2,404.3,648.1,470.3,548.2,243.9,250.0,3478.3,3479.5,582.6,464.0,678.2,1115.6,1376.6,432.5,1.0,51.0,25.0,744.0,14064.0,8369.0,184.0,38.0,-269.0,94.0,-16.0,-24.0,21.0,3405.0,15637.0,3512.0,41.0,-132.0,-28.0,19.0,1.0
2022-05-08 14:31:00.954326-07:00,862.1,1066.9,1424.1,1072.9,632.7,483.0,1406.7,1021.1,3472.2,3469.8,689.7,894.1,411.4,3506.3,836.1,797.7,3475.9,3478.3,404.3,648.1,475.0,549.8,243.9,250.0,3483.2,3473.4,582.6,464.0,688.0,1110.4,1376.6,432.5,-3.0,93.0,78.0,808.0,14079.0,8339.0,138.0,-148.0,-63.0,32.0,-3.0,-37.0,0.0,3447.0,15626.0,3519.0,66.0,-157.0,69.0,-22.0,1.0
2022-05-08 14:31:00.955296-07:00,864.6,1065.1,1424.1,1072.9,629.5,485.3,1406.7,1021.1,3478.3,3474.6,689.7,894.1,404.3,3495.3,836.1,797.7,3475.9,3478.3,403.5,655.4,475.0,549.8,248.5,244.7,3483.2,3473.4,575.4,471.1,688.0,1110.4,1375.7,438.0,-11.0,76.0,30.0,868.0,14066.0,8354.0,209.0,-198.0,144.0,-69.0,7.0,-40.0,-31.0,3464.0,15620.0,3529.0,95.0,-7.0,39.0,-9.0,1.0
2022-05-08 14:31:01.011301-07:00,864.6,1065.1,1413.1,1077.3,629.5,485.3,1404.0,1007.3,3478.3,3474.6,691.3,899.1,404.3,3495.3,833.6,786.9,3488.0,3477.1,403.5,655.4,473.5,546.6,248.5,244.7,3479.5,3474.6,575.4,471.1,679.9,1113.0,1375.7,438.0,4.0,34.0,-32.0,875.0,14056.0,8369.0,259.0,-19.0,45.0,-11.0,3.0,-25.0,-6.0,3474.0,15617.0,3529.0,97.0,-81.0,-29.0,5.0,1.0
2022-05-08 14:31:01.101765-07:00,867.1,1054.8,1413.1,1077.3,637.6,479.8,1404.0,1007.3,3478.3,3478.3,691.3,899.1,409.8,3491.7,833.6,786.9,3488.0,3477.1,408.2,657.0,473.5,546.6,245.4,243.9,3479.5,3474.6,582.6,467.9,679.9,1113.0,1371.2,430.2,-3.0,40.0,-3.0,913.0,14054.0,8367.0,264.0,-82.0,-78.0,23.0,4.0,-35.0,-4.0,3510.0,15610.0,3526.0,92.0,-95.0,-31.0,8.0,1.0
2022-05-08 14:31:01.103052-07:00,867.1,1054.8,1422.2,1080.8,637.6,479.8,1408.5,1001.3,3478.3,3478.3,696.2,894.1,409.8,3499.0,834.4,791.0,3478.3,3483.2,403.5,657.0,477.4,543.4,245.4,243.9,3480.7,3481.9,582.6,467.9,684.0,1113.9,1371.2,430.2,-2.0,54.0,11.0,982.0,14054.0,8360.0,277.0,-91.0,-34.0,1.0,3.0,-16.0,-3.0,3544.0,15603.0,3521.0,85.0,-68.0,-37.0,2.0,1.0
2022-05-08 14:31:01.161323-07:00,868.8,1054.8,1426.8,1080.8,631.9,479.8,1408.5,1001.3,3472.2,3475.9,693.8,894.1,407.5,3499.0,834.4,791.0,3478.3,3483.2,403.5,653.0,477.4,543.4,246.2,246.2,3480.7,3481.9,582.6,466.4,684.0,1115.6,1371.2,432.5,-1.0,52.0,8.0,1066.0,14050.0,8355.0,295.0,-50.0,-70.0,11.0,18.0,-26.0,-2.0,3540.0,15604.0,3522.0,81.0,30.0,11.0,-17.0,1.0
2022-05-08 14:31:01.310864-07:00,868.8,1054.8,1426.8,1079.0,631.9,480.6,1396.7,997.0,3472.2,3475.9,693.8,900.8,407.5,3495.3,841.1,792.7,3478.3,3478.3,402.8,653.0,473.5,543.4,246.2,246.2,3480.7,3477.1,581.0,466.4,684.8,1115.6,1371.2,432.5,19.0,45.0,35.0,1112.0,14050.0,8349.0,294.0,32.0,-29.0,-12.0,0.0,-16.0,-1.0,3538.0,15601.0,3537.0,99.0,-70.0,58.0,-28.0,1.0
2022-05-08 14:31:01.314415-07:00,867.1,1068.6,1417.6,1079.0,631.1,480.6,1396.7,997.0,3472.2,3464.9,692.1,900.8,409.8,3495.3,841.1,792.7,3478.3,3478.3,402.8,649.7,473.5,550.6,248.5,242.4,3480.7,3477.1,581.0,467.9,684.8,1117.4,1371.2,430.9,-4.0,48.0,15.0,1137.0,14039.0,8363.0,347.0,-86.0,97.0,-41.0,-17.0,-3.0,-8.0,3537.0,15598.0,3552.0,100.0,-12.0,-13.0,-30.0,1.0
2022-05-08 14:31:01.315297-07:00,867.1,1068.6,1417.6,1072.1,631.1,481.4,1405.8,998.7,3472.2,3464.9,692.1,900.0,409.8,3497.8,830.2,789.4,3472.2,3475.9,405.1,649.7,475.0,550.6,248.5,242.4,3472.2,3480.7,582.6,467.9,681.5,1117.4,1371.2,430.9,-32.0,46.0,-36.0,1136.0,14032.0,8374.0,363.0,-13.0,-37.0,-19.0,14.0,-31.0,-16.0,3549.0,15594.0,3560.0,77.0,-32.0,-68.0,-32.0,1.0
2022-05-08 14:31:01.400778-07:00,865.4,1052.2,1418.6,1072.1,627.8,481.4,1405.8,998.7,3478.3,3473.4,690.5,900.0,405.9,3497.8,830.2,789.4,3472.2,3475.9,405.1,654.6,475.0,547.4,246.2,245.4,3472.2,3480.7,582.6,466.4,681.5,1113.9,1367.6,438.0,10.0,32.0,1.0,1173.0,14030.0,8372.0,334.0,-17.0,-152.0,-3.0,14.0,-35.0,-2.0,3566.0,15587.0,3571.0,60.0,-63.0,-43.0,-37.0,1.0
2022-05-08 14:31:01.551427-07:00,865.4,1052.2,1418.6,1071.2,630.3,480.6,1404.9,993.6,3478.3,3473.4,690.5,897.4,407.5,3492.9,836.1,787.7,3473.4,3483.2,404.3,653.0,484.5,547.4,246.2,245.4,3478.3,3477.1,584.3,465.6,684.0,1113.9,1367.6,438.0,11.0,16.0,39.0,1216.0,14025.0,8376.0,304.0,-42.0,-31.0,-34.0,-11.0,-23.0,0.0,3577.0,15584.0,3575.0,50.0,-41.0,-18.0,-1.0,1.0
2022-05-08 14:31:01.552606-07:00,866.3,1054.8,1419.5,1077.3,630.3,480.6,1404.9,993.6,3483.2,3473.4,692.1,893.2,407.5,3492.9,836.1,787.7,3473.4,3483.2,404.3,653.0,475.8,544.2,243.9,247.7,3478.3,3477.1,584.3,465.6,681.5,1113.9,1368.5,434.1,-13.0,27.0,8.0,1236.0,14022.0,8379.0,310.0,-40.0,-18.0,15.0,-9.0,-20.0,-9.0,3587.0,15582.0,3574.0,38.0,-35.0,-36.0,1.0,1.0
2022-05-08 14:31:01.554510-07:00,866.3,1054.8,1419.5,1077.3,631.9,479.0,1399.4,991.9,3483.2,3473.4,692.1,893.2,408.2,3507.5,832.7,787.7,3473.4,3478.3,404.3,656.2,475.8,544.2,243.9,247.7,3480.7,3475.9,575.4,461.6,681.5,1113.9,1368.5,434.1,-8.0,40.0,-1.0,1272.0,14024.0,8369.0,307.0,-26.0,-57.0,1.0,5.0,-31.0,4.0,3603.0,15578.0,3575.0,25.0,-41.0,-28.0,-11.0,1.0
2022-05-08 14:31:01.555621-07:00,862.9,1058.2,1422.2,1070.3,631.9,479.0,1399.4,991.9,3469.8,3478.3,688.9,895.7,408.2,3507.5,832.7,787.7,3473.4,3478.3,404.3,656.2,473.5,543.4,247.0,247.7,3480.7,3475.9,575.4,461.6,680.7,1111.2,1370.3,433.3,-1.0,20.0,19.0,1315.0,14022.0,8367.0,298.0,-29.0,-52.0,-4.0,17.0,-26.0,5.0,3609.0,15577.0,3573.0,23.0,-21.0,0.0,13.0,1.0
2022-05-08 14:31:01.700834-07:00,862.9,1058.2,1422.2,1070.3,625.4,478.2,1401.2,994.5,3469.8,3478.3,688.9,895.7,405.1,3499.0,836.9,784.4,3480.7,3475.9,404.3,653.8,473.5,543.4,247.0,247.7,3467.4,3477.1,582.6,466.4,680.7,1111.2,1370.3,433.3,13.0,24.0,25.0,1340.0,14022.0,8363.0,294.0,-21.0,-26.0,22.0,-3.0,-6.0,1.0,3611.0,15579.0,3563.0,34.0,-44.0,29.0,40.0,1.0
2022-05-08 14:31:01.702126-07:00,862.1,1055.6,1411.3,1071.2,625.4,478.2,1401.2,994.5,3481.9,3479.5,701.9,891.5,405.1,3499.0,836.9,784.4,3480.7,3475.9,404.3,653.8,474.3,548.2,243.9,247.7,3467.4,3477.1,582.6,466.4,681.5,1115.6,1367.6,434.9,-1.0,31.0,20.0,1359.0,14026.0,8352.0,312.0,-58.0,41.0,35.0,-15.0,-9.0,-17.0,3628.0,15578.0,3548.0,47.0,-33.0,-24.0,28.0,1.0
2022-05-08 14:31:01.731279-07:00,866.3,1055.6,1411.3,1071.2,631.1,486.9,1402.1,989.3,3479.5,3479.5,701.9,891.5,411.4,3497.8,832.7,784.4,3474.6,3479.5,405.9,657.0,474.3,548.2,243.9,247.7,3469.8,3483.2,591.5,467.9,681.5,1115.6,1367.6,436.4,-23.0,35.0,-37.0,1375.0,14033.0,8337.0,344.0,-32.0,-10.0,34.0,15.0,-26.0,-6.0,3643.0,15577.0,3538.0,29.0,-15.0,-65.0,-8.0,1.0
2022-05-08 14:31:01.761187-07:00,866.3,1053.0,1420.4,1075.6,631.1,486.9,1402.1,991.0,3479.5,3475.9,690.5,898.3,411.4,3497.8,832.7,793.5,3485.6,3479.5,405.9,657.0,470.3,545.8,247.7,247.7,3488.0,3483.2,591.5,467.9,680.7,1114.7,1380.3,436.4,11.0,32.0,11.0,1399.0,14039.0,8324.0,322.0,7.0,-121.0,4.0,7.0,-18.0,5.0,3653.0,15574.0,3542.0,13.0,-37.0,-22.0,-27.0,1.0
2022-05-08 14:31:01.820552-07:00,865.4,1053.0,1420.4,1075.6,624.6,483.7,1395.7,991.0,3472.2,3475.9,690.5,898.3,410.6,3495.3,834.4,793.5,3485.6,3474.6,401.2,653.0,470.3,545.8,247.7,245.4,3488.0,3474.6,582.6,460.8,680.7,1114.7,1380.3,434.1,8.0,32.0,34.0,1422.0,14039.0,8321.0,292.0,-34.0,-19.0,-17.0,-13.0,-7.0,0.0,3660.0,15570.0,3553.0,7.0,-10.0,-12.0,-29.0,1.0
2022-05-08 14:31:01.941424-07:00,865.4,1047.8,1413.1,1074.7,624.6,483.7,1395.7,984.2,3472.2,3469.8,690.5,891.5,410.6,3495.3,834.4,791.0,3478.3,3474.6,401.2,653.0,473.5,549.8,247.7,245.4,3474.6,3474.6,582.6,460.8,678.2,1114.7,1367.6,434.1,-15.0,38.0,-2.0,1440.0,14033.0,8327.0,301.0,-2.0,1.0,-19.0,0.0,-26.0,-3.0,3659.0,15567.0,3564.0,-7.0,5.0,-27.0,-30.0,1.0
2022-05-08 14:31:01.942456-07:00,862.1,1047.8,1413.1,1074.7,634.3,481.4,1394.8,984.2,3475.9,3469.8,690.5,891.5,412.9,3501.4,831.9,791.0,3478.3,3484.4,406.7,652.2,473.5,549.8,247.7,247.7,3474.6,3474.6,584.3,465.6,678.2,1114.7,1367.6,429.4,0.0,16.0,13.0,1450.0,14028.0,8335.0,286.0,14.0,-56.0,-21.0,6.0,-23.0,4.0,3653.0,15566.0,3576.0,-17.0,-20.0,-5.0,-27.0,1.0
2022-05-08 14:31:01.971509-07:00,862.1,1053.9,1414.9,1077.3,634.3,481.4,1394.8,983.3,3475.9,3477.1,691.3,887.3,412.9,3501.4,831.9,791.9,3478.3,3484.4,406.7,652.2,472.7,543.4,244.7,247.7,3488.0,3474.6,584.3,465.6,680.7,1113.9,1370.3,429.4,4.0,13.0,22.0,1461.0,14023.0,8341.0,277.0,-18.0,-2.0,-24.0,8.0,-24.0,20.0,3647.0,15566.0,3582.0,-9.0,1.0,46.0,10.0,1.0
2022-05-08 14:31:02.060925-07:00,861.2,1057.3,1414.9,1077.3,629.5,479.8,1394.8,983.3,3477.1,3474.6,691.3,887.3,398.9,3490.5,831.9,791.9,3478.3,3478.3,407.5,653.0,472.7,543.4,247.7,242.4,3488.0,3474.6,582.6,464.0,680.7,1113.9,1373.0,434.9,1.0,19.0,43.0,1466.0,14021.0,8344.0,286.0,-8.0,27.0,4.0,-20.0,3.0,0.0,3637.0,15570.0,3577.0,27.0,10.0,93.0,43.0,1.0
2022-05-08 14:31:02.062495-07:00,861.2,1057.3,1415.8,1077.3,629.5,479.8,1399.4,987.6,3477.1,3474.6,691.3,892.4,398.9,3490.5,831.1,791.0,3472.2,3483.2,407.5,653.0,472.7,546.6,247.7,242.4,3486.8,3479.5,582.6,464.0,683.1,1112.1,1373.0,434.9,-19.0,30.0,4.0,1464.0,14020.0,8344.0,319.0,5.0,102.0,13.0,4.0,-6.0,-18.0,3635.0,15572.0,3569.0,54.0,-15.0,29.0,24.0,1.0
2022-05-08 14:31:02.120710-07:00,865.4,1048.7,1415.8,1077.3,632.7,478.2,1399.4,987.6,3468.6,3484.4,691.3,892.4,411.4,3496.6,831.1,791.0,3472.2,3483.2,405.1,653.8,472.7,546.6,243.9,248.5,3486.8,3479.5,578.6,466.4,683.1,1112.1,1390.3,434.9,0.0,31.0,-37.0,1454.0,14022.0,8341.0,352.0,-16.0,32.0,18.0,23.0,-25.0,-1.0,3641.0,15570.0,3569.0,51.0,-2.0,-23.0,-17.0,1.0
2022-05-08 14:31:02.270752-07:00,865.4,1048.7,1413.1,1075.6,632.7,478.2,1386.6,987.6,3468.6,3484.4,688.9,888.2,411.4,3496.6,827.7,792.7,3480.7,3474.6,405.1,653.8,473.5,547.4,243.9,248.5,3480.7,3474.6,578.6,466.4,684.8,1107.8,1390.3,434.9,23.0,16.0,14.0,1465.0,14023.0,8339.0,336.0,15.0,-70.0,-10.0,-4.0,-6.0,5.0,3635.0,15570.0,3576.0,46.0,13.0,-3.0,-16.0,1.0
2022-05-08 14:31:02.272169-07:00,877.2,1050.4,1413.1,1075.6,631.1,482.2,1386.6,987.6,3473.4,3467.4,688.9,888.2,406.7,3492.9,827.7,792.7,3480.7,3474.6,401.2,654.6,473.5,547.4,243.9,245.4,3480.7,3474.6,576.2,467.9,684.8,1107.8,1369.4,423.1,-4.0,26.0,16.0,1466.0,14022.0,8341.0,316.0,16.0,-11.0,-15.0,-20.0,-5.0,-1.0,3634.0,15569.0,3584.0,38.0,-5.0,-23.0,-24.0,1.0
2022-05-08 14:31:02.273106-07:00,877.2,1050.4,1416.7,1074.7,631.1,482.2,1394.8,979.0,3473.4,3467.4,688.9,899.1,406.7,3492.9,831.9,792.7,3485.6,3479.5,401.2,654.6,477.4,549.8,243.9,245.4,3480.7,3485.6,576.2,467.9,682.3,1114.7,1369.4,423.1,-26.0,30.0,-11.0,1465.0,14021.0,8343.0,312.0,-3.0,-25.0,-13.0,-3.0,-25.0,1.0,3634.0,15565.0,3600.0,17.0,1.0,-29.0,-56.0,1.0
2022-05-08 14:31:02.300929-07:00,861.2,1052.2,1414.0,1074.7,628.6,486.9,1394.8,979.0,3473.4,3478.3,688.0,899.1,407.5,3495.3,831.9,792.7,3485.6,3479.5,405.9,652.2,477.4,548.2,247.7,246.2,3480.7,3485.6,581.8,467.9,682.3,1117.4,1369.4,433.3,3.0,5.0,31.0,1489.0,14014.0,8352.0,284.0,10.0,-70.0,-41.0,21.0,-26.0,5.0,3617.0,15564.0,3620.0,10.0,14.0,21.0,-37.0,1.0
2022-05-08 14:31:02.450858-07:00,861.2,1052.2,1414.0,1074.7,628.6,478.2,1387.5,981.6,3473.4,3478.3,688.0,889.8,407.5,3500.2,831.1,793.5,3483.2,3475.9,402.8,652.2,471.1,548.2,247.7,246.2,3481.9,3479.5,578.6,467.9,679.1,1117.4,1369.4,433.3,18.0,4.0,27.0,1483.0,14004.0,8370.0,269.0,17.0,24.0,-52.0,0.0,-7.0,0.0,3597.0,15567.0,3626.0,23.0,27.0,33.0,13.0,1.0
2022-05-08 14:31:02.661528-07:00,867.9,1047.0,1414.0,1074.7,631.1,478.2,1387.5,981.6,3480.7,3472.2,692.1,889.8,410.6,3500.2,831.1,793.5,3483.2,3475.9,402.8,652.2,471.1,544.2,240.9,243.2,3481.9,3479.5,578.6,468.7,679.1,1107.8,1369.4,434.1,0.0,20.0,-4.0,1465.0,14001.0,8377.0,279.0,27.0,30.0,-2.0,-1.0,-18.0,-4.0,3592.0,15570.0,3618.0,31.0,6.0,7.0,30.0,1.0
2022-05-08 14:31:02.663190-07:00,867.9,1047.0,1414.0,1077.3,631.1,480.6,1399.4,978.2,3480.7,3472.2,692.1,891.5,410.6,3496.6,832.7,791.0,3478.3,3478.3,405.1,652.2,477.4,544.2,240.9,243.2,3475.9,3475.9,578.6,468.7,684.8,1107.8,1369.4,434.1,-9.0,22.0,1.0,1464.0,14005.0,8370.0,292.0,-2.0,35.0,33.0,-4.0,-10.0,-1.0,3590.0,15573.0,3611.0,31.0,2.0,-5.0,11.0,1.0
2022-05-08 14:31:02.664208-07:00,867.1,1048.7,1414.9,1077.3,632.7,480.6,1399.4,978.2,3467.4,3474.6,692.9,891.5,410.6,3496.6,832.7,791.0,3478.3,3478.3,405.1,649.7,477.4,543.4,250.8,243.9,3475.9,3475.9,578.6,468.7,684.8,1113.9,1372.1,433.3,-12.0,30.0,0.0,1474.0,14009.0,8362.0,294.0,8.0,-29.0,9.0,-2.0,-14.0,7.0,3591.0,15572.0,3611.0,33.0,-13.0,17.0,0.0,1.0
2022-05-08 14:31:02.665106-07:00,867.1,1048.7,1414.9,1074.7,632.7,482.2,1394.8,976.5,3467.4,3474.6,692.9,895.7,410.6,3505.1,831.1,796.0,3488.0,3478.3,403.5,649.7,470.3,543.4,250.8,243.9,3479.5,3472.2,582.6,468.7,677.4,1113.9,1372.1,433.3,0.0,23.0,30.0,1487.0,14008.0,8361.0,287.0,-14.0,2.0,-4.0,0.0,-4.0,1.0,3589.0,15572.0,3614.0,45.0,-11.0,26.0,2.0,1.0
2022-05-08 14:31:02.690835-07:00,867.9,1047.8,1410.3,1077.3,629.5,482.2,1394.8,976.5,3478.3,3479.5,692.1,891.5,411.4,3505.1,831.1,796.0,3488.0,3478.3,403.5,654.6,473.5,553.8,243.9,244.7,3479.5,3472.2,582.6,464.8,681.5,1116.5,1362.1,430.9,-7.0,25.0,-1.0,1488.0,14005.0,8366.0,304.0,-15.0,38.0,-7.0,0.0,-4.0,1.0,3589.0,15572.0,3614.0,45.0,-11.0,26.0,2.0,1.0
2022-05-08 14:31:02.720554-07:00,867.9,1047.8,1410.3,1077.3,629.5,482.2,1394.8,976.5,3478.3,3479.5,692.1,891.5,411.4,3505.1,831.1,796.0,3488.0,3478.3,403.5,654.6,473.5,553.8,243.9,244.7,3479.5,3472.2,582.6,464.8,681.5,1116.5,1362.1,430.9,-7.0,25.0,-1.0,1488.0,14005.0,8366.0,304.0,-15.0,38.0,-7.0,-1.0,-6.0,7.0,3594.0,15571.0,3614.0,40.0,5.0,-9.0,-14.0,1.0
2022-05-08 14:31:02.810813-07:00,868.8,1045.2,1414.0,1077.3,634.3,471.9,1383.9,979.0,3478.3,3471.0,692.9,895.7,409.8,3497.8,832.7,791.9,3472.2,3475.9,395.7,651.4,471.1,546.6,243.9,242.4,3483.2,3478.3,575.4,467.9,679.1,1114.7,1363.0,430.9,-6.0,28.0,9.0,1514.0,14004.0,8363.0,299.0,17.0,-44.0,-9.0,1.0,-26.0,12.0,3583.0,15572.0,3621.0,44.0,37.0,37.0,-9.0,1.0
2022-05-08 14:31:02.931306-07:00,862.9,1046.1,1411.3,1069.5,634.3,471.9,1383.9,979.0,3474.6,3471.0,690.5,892.4,409.8,3497.8,832.7,791.9,3472.2,3475.9,395.7,651.4,474.3,545.8,247.0,243.9,3483.2,3478.3,575.4,467.9,678.2,1114.7,1369.4,429.4,2.0,6.0,30.0,1516.0,14000.0,8369.0,299.0,27.0,33.0,-19.0,8.0,-16.0,7.0,3565.0,15576.0,3622.0,60.0,21.0,67.0,22.0,1.0
2022-05-08 14:31:03.050763-07:00,862.9,1046.1,1411.3,1069.5,631.1,482.2,1391.2,973.9,3474.6,3471.0,690.5,892.4,409.8,3489.2,832.7,790.2,3486.8,3478.3,411.4,648.9,474.3,545.8,247.0,243.9,3479.5,3481.9,578.6,464.8,678.2,1114.7,1369.4,429.4,10.0,8.0,19.0,1494.0,14000.0,8374.0,309.0,24.0,57.0,5.0,-18.0,2.0,-11.0,3559.0,15578.0,3616.0,82.0,-29.0,6.0,18.0,1.0
2022-05-08 14:31:03.081398-07:00,863.7,1049.6,1411.3,1066.9,631.1,482.2,1391.2,978.2,3474.6,3474.6,688.0,896.6,409.8,3489.2,832.7,791.9,3477.1,3478.3,411.4,648.9,474.3,544.2,241.6,243.9,3481.9,3481.9,578.6,464.8,678.2,1115.6,1375.7,431.7,-25.0,27.0,-33.0,1481.0,14003.0,8370.0,339.0,-28.0,68.0,23.0,9.0,-10.0,-6.0,3573.0,15575.0,3615.0,72.0,-18.0,-51.0,-31.0,1.0
2022-05-08 14:31:03.082601-07:00,860.4,1049.6,1411.3,1066.9,631.1,480.6,1393.9,978.2,3472.2,3474.6,688.0,896.6,408.2,3499.0,831.1,791.9,3477.1,3478.3,405.1,652.2,474.3,544.2,241.6,240.9,3481.9,3486.8,573.8,460.8,678.2,1115.6,1375.7,428.6,2.0,28.0,-9.0,1496.0,14004.0,8364.0,343.0,-15.0,-70.0,0.0,11.0,-10.0,9.0,3582.0,15571.0,3626.0,59.0,-19.0,-13.0,-32.0,1.0
2022-05-08 14:31:03.083661-07:00,860.4,1047.8,1404.9,1072.1,631.1,480.6,1393.9,971.3,3472.2,3480.7,689.7,884.8,408.2,3499.0,831.1,784.4,3483.2,3478.3,405.1,652.2,475.8,546.6,243.9,240.9,3477.1,3486.8,573.8,460.8,675.8,1112.1,1373.9,428.6,15.0,14.0,28.0,1515.0,13999.0,8370.0,318.0,-16.0,-34.0,-40.0,-14.0,0.0,-2.0,3594.0,15566.0,3637.0,53.0,-33.0,-43.0,-29.0,1.0
2022-05-08 14:31:03.084596-07:00,857.9,1047.8,1404.9,1072.1,630.3,478.2,1385.7,971.3,3474.6,3480.7,689.7,884.8,406.7,3502.7,831.9,784.4,3483.2,3479.5,405.1,653.8,475.8,546.6,243.9,245.4,3477.1,3480.7,578.6,466.4,675.8,1112.1,1373.9,434.1,-18.0,20.0,-14.0,1523.0,13993.0,8380.0,321.0,-26.0,-7.0,-19.0,-7.0,-23.0,4.0,3611.0,15560.0,3645.0,26.0,-36.0,-57.0,-41.0,1.0
2022-05-08 14:31:03.200803-07:00,857.9,1045.2,1415.8,1070.3,630.3,478.2,1385.7,977.3,3474.6,3477.1,691.3,888.2,406.7,3502.7,831.9,787.7,3477.1,3479.5,405.1,653.8,476.6,543.4,243.9,245.4,3474.6,3480.7,578.6,466.4,678.2,1116.5,1369.4,434.1,-9.0,7.0,12.0,1545.0,13991.0,8380.0,298.0,-26.0,-94.0,-13.0,6.0,-24.0,3.0,3615.0,15556.0,3656.0,7.0,9.0,-8.0,-24.0,1.0
2022-05-08 14:31:03.410825-07:00,862.9,1045.2,1415.8,1070.3,631.1,479.0,1387.5,977.3,3467.4,3477.1,691.3,888.2,405.9,3495.3,834.4,787.7,3477.1,3485.6,406.7,653.8,476.6,543.4,243.9,247.0,3474.6,3484.4,578.6,467.9,678.2,1116.5,1369.4,432.5,5.0,-2.0,31.0,1565.0,13986.0,8384.0,279.0,9.0,-17.0,-23.0,14.0,-9.0,1.0,3609.0,15556.0,3662.0,6.0,22.0,-8.0,0.0,1.0
2022-05-08 14:31:03.441364-07:00,862.9,1045.2,1409.4,1070.3,631.1,479.0,1387.5,975.6,3467.4,3474.6,689.7,897.4,405.9,3495.3,834.4,793.5,3478.3,3485.6,406.7,653.8,473.5,549.0,246.2,247.0,3480.7,3484.4,578.6,467.9,679.1,1111.2,1369.4,432.5,8.0,15.0,-2.0,1559.0,13984.0,8389.0,278.0,21.0,-10.0,2.0,2.0,-10.0,6.0,3602.0,15558.0,3659.0,5.0,9.0,-1.0,5.0,1.0
2022-05-08 14:31:03.591066-07:00,862.1,1043.5,1409.4,1070.3,634.3,473.5,1380.3,975.6,3471.0,3485.6,689.7,897.4,405.1,3502.7,833.6,793.5,3478.3,3477.1,400.4,652.2,473.5,549.0,243.9,243.2,3480.7,3491.7,578.6,467.9,679.1,1111.2,1363.9,429.4,3.0,20.0,18.0,1561.0,13986.0,8386.0,268.0,16.0,-28.0,13.0,-9.0,-8.0,7.0,3596.0,15560.0,3662.0,7.0,18.0,22.0,-15.0,1.0
2022-05-08 14:31:03.592370-07:00,862.1,1043.5,1404.0,1081.6,634.3,473.5,1393.0,973.9,3471.0,3485.6,690.5,895.7,405.1,3502.7,829.4,789.4,3478.3,3477.1,400.4,652.2,476.6,546.6,243.9,243.2,3477.1,3484.4,578.6,467.9,679.9,1113.0,1363.9,429.4,-12.0,24.0,8.0,1566.0,13986.0,8384.0,270.0,14.0,24.0,-21.0,-10.0,-1.0,0.0,3587.0,15559.0,3674.0,10.0,12.0,16.0,-30.0,1.0
2022-05-08 14:31:03.650854-07:00,865.4,1041.8,1404.0,1081.6,633.5,479.8,1393.0,973.9,3479.5,3480.7,690.5,895.7,409.0,3496.6,829.4,789.4,3478.3,3477.1,405.1,653.8,476.6,546.6,244.7,245.4,3477.1,3484.4,581.0,464.0,679.9,1113.0,1366.6,432.5,-12.0,20.0,-1.0,1565.0,13980.0,8395.0,271.0,15.0,-1.0,-29.0,0.0,-21.0,0.0,3583.0,15556.0,3688.0,5.0,16.0,1.0,-31.0,1.0
2022-05-08 14:31:04.190895-07:00,865.4,1041.8,1413.1,1074.7,633.5,479.8,1389.4,967.9,3479.5,3480.7,694.6,891.5,409.0,3496.6,826.0,788.6,3478.3,3478.3,405.1,653.8,475.0,541.8,244.7,245.4,3483.2,3471.0,581.0,464.0,683.1,1115.6,1366.6,432.5,-3.0,-3.0,8.0,1567.0,13973.0,8405.0,270.0,13.0,16.0,-25.0,0.0,-21.0,0.0,3583.0,15556.0,3688.0,5.0,16.0,1.0,-31.0,1.0
2022-05-08 14:31:04.191871-07:00,865.4,1041.8,1413.1,1074.7,633.5,479.8,1389.4,967.9,3479.5,3480.7,694.6,891.5,409.0,3496.6,826.0,788.6,3478.3,3478.3,405.1,653.8,475.0,541.8,244.7,245.4,3483.2,3471.0,581.0,464.0,683.1,1115.6,1366.6,432.5,-3.0,-3.0,8.0,1567.0,13973.0,8405.0,270.0,13.0,16.0,-25.0,1.0,-15.0,5.0,3578.0,15556.0,3695.0,-13.0,-16.0,-35.0,-1.0,1.0
2022-05-08 14:31:04.700840-07:00,862.9,1050.4,1412.2,1077.3,623.0,481.4,1390.3,972.2,3467.4,3483.2,688.9,895.7,405.9,3499.0,835.2,784.4,3477.1,3483.2,403.5,651.4,473.5,550.6,242.4,249.2,3475.9,3472.2,581.8,466.4,675.8,1111.2,1367.6,429.4,0.0,12.0,5.0,1564.0,13970.0,8411.0,268.0,-12.0,-36.0,20.0,-1.0,-10.0,2.0,3583.0,15552.0,3704.0,-31.0,27.0,-4.0,-31.0,1.0
2022-05-08 14:31:04.731552-07:00,865.4,1038.3,1412.2,1072.1,623.8,479.8,1376.6,975.6,3472.2,3471.0,687.2,889.8,404.3,3500.2,826.9,794.4,3477.1,3469.8,404.3,650.5,475.0,547.4,243.2,243.2,3478.3,3474.6,580.2,464.8,684.8,1114.7,1365.7,431.7,-2.0,7.0,8.0,1595.0,13968.0,8410.0,246.0,24.0,0.0,-31.0,1.0,-16.0,2.0,3571.0,15553.0,3715.0,-37.0,33.0,8.0,-19.0,1.0
2022-05-08 14:31:04.732627-07:00,865.4,1038.3,1412.2,1095.6,623.8,478.2,1390.3,972.2,3472.2,3471.0,687.2,895.7,404.3,3502.7,828.5,796.9,3477.1,3477.1,411.4,650.5,474.3,547.4,243.2,243.2,3480.7,3478.3,578.6,464.8,677.4,1114.7,1365.7,431.7,0.0,-5.0,13.0,1588.0,13963.0,8419.0,237.0,31.0,-21.0,-20.0,1.0,-16.0,2.0,3571.0,15553.0,3715.0,-37.0,33.0,8.0,-19.0,1.0
2022-05-08 14:31:04.733402-07:00,865.4,1038.3,1412.2,1095.6,623.8,478.2,1390.3,972.2,3472.2,3471.0,687.2,895.7,404.3,3502.7,828.5,796.9,3477.1,3477.1,411.4,650.5,474.3,547.4,243.2,243.2,3480.7,3478.3,578.6,464.8,677.4,1114.7,1365.7,431.7,0.0,-5.0,13.0,1588.0,13963.0,8419.0,237.0,31.0,-21.0,-20.0,-16.0,-5.0,-2.0,3382.0,15576.0,3792.0,-81.0,34.0,1.0,-27.0,1.0
2022-05-08 14:31:04.734385-07:00,857.0,1044.4,1408.5,1077.3,627.0,479.8,1391.2,968.8,3467.4,3478.3,690.5,889.8,407.5,3507.5,834.4,791.9,3475.9,3483.2,404.3,649.7,474.3,542.6,247.0,243.2,3488.0,3481.9,578.6,467.9,678.2,1111.2,1365.7,430.9,-23.0,8.0,-12.0,1438.0,13943.0,8482.0,140.0,35.0,27.0,-27.0,-8.0,86.0,8.0,4580.0,15205.0,4032.0,68.0,-1028.0,-172.0,-207.0,1.0
2022-05-08 14:31:04.760813-07:00,863.7,1037.5,1405.8,1070.3,628.6,474.3,1390.3,973.9,3463.7,3480.7,706.0,906.7,412.1,3499.0,824.4,790.2,3471.0,3478.3,398.1,653.0,473.5,542.6,240.1,243.2,3474.6,3488.0,577.8,464.8,679.9,1113.0,1372.1,430.9,-22.0,11.0,-32.0,3043.0,13623.0,8492.0,1216.0,-1185.0,-279.0,-51.0,2.0,150.0,-35.0,5387.0,14921.0,4095.0,112.0,-2824.0,-414.0,-328.0,1.0
2022-05-08 14:31:04.850985-07:00,858.7,1034.9,1402.1,1070.3,634.3,474.3,1390.3,973.9,3478.3,3475.9,701.1,906.7,409.0,3499.0,824.4,790.2,3471.0,3478.3,398.1,652.2,473.5,550.6,247.0,248.5,3474.6,3488.0,577.8,462.4,679.9,1126.1,1370.3,430.9,4.0,190.0,-121.0,3972.0,13374.0,8435.0,1626.0,-3439.0,-324.0,-299.0,4.0,71.0,-52.0,6938.0,14265.0,4090.0,266.0,-4494.0,-688.0,-233.0,1.0
