Time,P0,P1,P2,P3,P4,P5,P6,P7,P8,P9,P10,P11,P12,P13,P14,P15,P16,P17,P18,P19,P20,P21,P22,P23,P24,P25,P26,P27,P28,P29,P30,P31,ECG,AX0,AY0,AZ0,QW0,QX0,QY0,QZ0,GX0,GY0,GZ0,AX1,AY1,AZ1,QW1,QX1,QY1,QZ1,GX1,GY1,GZ1
2022-05-08 16:20:11.879219-07:00,619.7,692.9,677.4,897.4,349.1,293.6,805.2,679.1,3468.6,3473.4,1151.5,711.0,530.6,3467.4,1147.1,787.7,3451.6,3447.9,356.1,308.2,321.3,313.6,272.9,253.1,3462.5,3462.5,479.8,378.6,456.1,886.5,697.0,386.4,-27.0,2.0,-46.0,7050.0,-8384.0,-8582.0,8648.0,-163.0,175.0,65.0,-42.0,1.0,-36.0,7495.0,-13479.0,-3030.0,4627.0,-123.0,111.0,96.0,1.0
2022-05-08 16:20:11.939529-07:00,621.4,692.9,677.4,897.4,353.0,290.5,805.2,679.1,3473.4,3471.0,1151.5,711.0,529.0,3461.3,1147.1,787.7,3451.6,3447.9,359.2,315.1,321.3,313.6,272.9,251.5,3462.5,3462.5,478.2,381.7,456.1,886.5,694.6,395.7,-22.0,53.0,-45.0,7062.0,-8419.0,-8572.0,8614.0,34.0,28.0,-40.0,-14.0,30.0,13.0,7483.0,-13498.0,-3007.0,4604.0,27.0,29.0,-30.0,1.0
2022-05-08 16:20:11.999184-07:00,621.4,692.9,684.8,891.5,353.0,290.5,799.4,682.3,3473.4,3471.0,1146.3,710.1,529.0,3461.3,1140.1,791.9,3452.8,3450.4,359.2,315.1,324.4,315.1,272.9,251.5,3462.5,3466.1,478.2,381.7,454.5,889.8,694.6,395.7,-7.0,9.0,-17.0,7110.0,-8378.0,-8566.0,8621.0,164.0,20.0,-113.0,-5.0,10.0,-3.0,7538.0,-13472.0,-3014.0,4586.0,165.0,44.0,-98.0,1.0
2022-05-08 16:20:12.029458-07:00,619.7,697.0,675.8,891.5,348.3,296.7,799.4,682.3,3471.0,3471.0,1150.6,710.1,529.8,3468.6,1140.1,791.9,3452.8,3450.4,356.1,312.8,324.4,313.6,272.9,256.1,3462.5,3466.1,488.5,384.8,454.5,883.9,698.7,408.2,-4.0,-46.0,-10.0,7190.0,-8312.0,-8526.0,8657.0,354.0,10.0,-59.0,-9.0,-13.0,0.0,7644.0,-13417.0,-3015.0,4571.0,374.0,13.0,-91.0,1.0
2022-05-08 16:20:12.149122-07:00,619.7,697.0,675.8,895.7,348.3,292.1,801.0,682.3,3471.0,3471.0,1150.6,710.1,529.8,3467.4,1141.9,786.1,3441.9,3449.1,355.3,312.8,319.7,313.6,272.9,256.1,3456.4,3462.5,476.6,384.8,456.1,883.9,698.7,408.2,14.0,-12.0,-36.0,7267.0,-8247.0,-8453.0,8726.0,236.0,0.0,0.0,7.0,-4.0,-33.0,7770.0,-13342.0,-3000.0,4589.0,238.0,-16.0,-39.0,1.0
2022-05-08 16:20:12.179743-07:00,621.4,682.3,681.5,895.7,351.4,292.1,801.0,682.3,3475.9,3467.4,1149.8,710.1,529.8,3467.4,1141.9,786.1,3441.9,3449.1,355.3,312.0,319.7,315.9,272.9,259.9,3456.4,3462.5,476.6,378.6,456.1,884.8,696.2,391.8,29.0,-31.0,-19.0,7275.0,-8239.0,-8459.0,8722.0,-46.0,8.0,9.0,22.0,-10.0,-30.0,7782.0,-13337.0,-3003.0,4580.0,-39.0,13.0,19.0,1.0
2022-05-08 16:20:12.210194-07:00,621.4,682.3,681.5,893.2,351.4,292.8,797.7,682.3,3475.9,3467.4,1149.8,706.9,529.8,3469.8,1138.4,793.5,3447.9,3444.3,345.2,312.0,321.3,315.9,272.9,259.9,3467.4,3468.6,479.8,378.6,452.2,884.8,696.2,391.8,12.0,-13.0,-26.0,7257.0,-8253.0,-8473.0,8710.0,-39.0,-31.0,53.0,12.0,-7.0,-11.0,7765.0,-13347.0,-3004.0,4580.0,-34.0,-31.0,41.0,1.0
2022-05-08 16:20:12.239396-07:00,616.5,691.3,683.1,893.2,355.3,292.8,797.7,682.3,3477.1,3473.4,1148.9,706.9,529.0,3469.8,1138.4,793.5,3447.9,3444.3,345.2,314.4,321.3,312.0,272.1,253.8,3467.4,3468.6,479.8,381.7,452.2,885.6,695.4,400.4,-7.0,-1.0,-27.0,7227.0,-8263.0,-8482.0,8717.0,-37.0,-36.0,56.0,-15.0,8.0,-7.0,7746.0,-13351.0,-3003.0,4601.0,-43.0,-48.0,38.0,1.0
2022-05-08 16:20:12.329260-07:00,616.5,691.3,683.1,897.4,355.3,296.7,801.9,691.3,3477.1,3473.4,1148.9,709.3,529.0,3469.8,1130.5,797.7,3438.2,3440.7,353.0,314.4,322.1,312.0,272.1,253.8,3463.7,3452.8,479.0,381.7,454.5,885.6,695.4,400.4,-31.0,2.0,-12.0,7193.0,-8274.0,-8488.0,8729.0,-35.0,-51.0,48.0,-29.0,3.0,11.0,7720.0,-13357.0,-3007.0,4624.0,-50.0,-58.0,27.0,1.0
2022-05-08 16:20:12.330492-07:00,623.0,696.2,683.1,897.4,355.3,296.7,801.9,691.3,3469.8,3471.0,1145.4,709.3,533.0,3469.8,1130.5,797.7,3438.2,3440.7,353.0,309.0,322.1,311.3,269.1,259.9,3463.7,3452.8,479.0,380.9,454.5,884.8,697.0,396.5,-2.0,6.0,14.0,7162.0,-8276.0,-8491.0,8749.0,-1.0,-54.0,45.0,5.0,-5.0,15.0,7703.0,-13356.0,-3007.0,4654.0,4.0,-55.0,24.0,1.0
2022-05-08 16:20:12.389387-07:00,623.0,696.2,683.1,897.4,349.9,295.1,799.4,687.2,3469.8,3471.0,1145.4,706.9,529.0,3469.8,1135.7,791.9,3451.6,3447.9,353.7,313.6,317.4,311.3,269.1,259.9,3458.9,3462.5,479.0,379.4,461.6,884.8,697.0,396.5,5.0,5.0,23.0,7161.0,-8265.0,-8485.0,8767.0,60.0,-34.0,-1.0,17.0,-19.0,27.0,7708.0,-13347.0,-3008.0,4672.0,65.0,-33.0,1.0,1.0
2022-05-08 16:20:12.419083-07:00,621.4,693.8,676.6,891.5,349.9,295.1,799.4,687.2,3472.2,3475.9,1140.1,711.8,529.0,3469.8,1135.7,791.9,3451.6,3447.9,353.7,313.6,321.3,309.7,272.1,258.4,3458.9,3462.5,479.0,379.4,457.7,879.7,699.5,398.1,7.0,0.0,6.0,7179.0,-8239.0,-8475.0,8786.0,77.0,-8.0,-34.0,2.0,-8.0,6.0,7738.0,-13324.0,-3007.0,4687.0,77.0,-29.0,-5.0,1.0
2022-05-08 16:20:12.479128-07:00,621.4,693.8,676.6,891.5,354.5,302.8,799.4,687.2,3472.2,3475.9,1140.1,711.8,536.2,3466.1,1136.6,793.5,3458.9,3446.7,353.0,311.3,321.3,309.7,272.1,258.4,3464.9,3467.4,475.0,382.5,457.7,879.7,699.5,398.1,-1.0,14.0,0.0,7217.0,-8201.0,-8463.0,8801.0,141.0,25.0,-66.0,-8.0,27.0,-7.0,7775.0,-13297.0,-3007.0,4705.0,142.0,-34.0,-30.0,1.0
2022-05-08 16:20:12.539319-07:00,622.2,696.2,682.3,895.7,354.5,302.8,799.4,687.2,3473.4,3469.8,1147.1,710.1,536.2,3466.1,1136.6,793.5,3458.9,3446.7,353.0,311.3,321.3,305.1,269.9,260.7,3464.9,3467.4,475.0,382.5,449.8,883.9,699.5,397.3,-28.0,-11.0,-13.0,7256.0,-8197.0,-8444.0,8792.0,-1.0,60.0,-21.0,-22.0,0.0,17.0,7802.0,-13277.0,-3010.0,4714.0,-18.0,-3.0,-8.0,1.0
2022-05-08 16:20:12.569175-07:00,622.2,696.2,682.3,895.7,352.2,293.6,801.0,678.2,3473.4,3469.8,1147.1,710.1,530.6,3472.2,1139.2,791.9,3450.4,3446.7,356.8,313.6,321.3,305.1,269.9,260.7,3457.6,3466.1,481.4,385.6,449.8,883.9,699.5,397.3,-2.0,-2.0,-1.0,7254.0,-8202.0,-8429.0,8803.0,48.0,-8.0,51.0,0.0,-2.0,3.0,7805.0,-13271.0,-3013.0,4726.0,41.0,-46.0,13.0,1.0
2022-05-08 16:20:12.659255-07:00,624.6,691.3,683.1,892.4,352.2,293.6,801.0,678.2,3467.4,3467.4,1141.0,709.3,530.6,3472.2,1139.2,791.9,3450.4,3446.7,356.8,313.6,317.4,312.8,273.7,256.1,3457.6,3466.1,481.4,385.6,454.5,897.4,699.5,394.2,0.0,13.0,-7.0,7242.0,-8200.0,-8422.0,8822.0,5.0,-49.0,30.0,4.0,-3.0,10.0,7810.0,-13258.0,-3019.0,4748.0,1.0,-58.0,-9.0,1.0
2022-05-08 16:20:12.719152-07:00,620.5,691.3,683.1,892.4,354.5,295.1,803.5,684.8,3462.5,3467.4,1141.0,709.3,530.6,3460.1,1150.6,787.7,3454.0,3441.9,354.5,313.6,317.4,312.8,273.7,256.1,3452.8,3467.4,471.9,376.3,454.5,897.4,699.5,395.0,-6.0,2.0,8.0,7233.0,-8187.0,-8423.0,8840.0,27.0,-42.0,7.0,0.0,-4.0,12.0,7813.0,-13247.0,-3037.0,4765.0,20.0,-57.0,-22.0,1.0
2022-05-08 16:20:12.720582-07:00,620.5,692.9,679.1,893.2,354.5,295.1,803.5,684.8,3462.5,3474.6,1142.7,714.2,530.6,3460.1,1150.6,789.4,3451.6,3441.9,354.5,313.6,319.7,311.3,267.6,256.1,3457.6,3467.4,471.9,376.3,458.5,887.3,692.1,395.0,-8.0,2.0,15.0,7220.0,-8172.0,-8432.0,8856.0,8.0,-66.0,-2.0,0.0,-6.0,16.0,7815.0,-13236.0,-3053.0,4779.0,-1.0,-40.0,-18.0,1.0
2022-05-08 16:20:12.779163-07:00,622.2,692.9,679.1,893.2,349.1,296.7,796.9,684.8,3473.4,3474.6,1142.7,714.2,524.2,3468.6,1137.5,789.4,3451.6,3452.8,353.7,315.1,319.7,311.3,267.6,254.6,3457.6,3456.4,481.4,377.8,458.5,887.3,692.1,390.3,-4.0,-8.0,26.0,7215.0,-8163.0,-8436.0,8864.0,-5.0,-6.0,-8.0,-1.0,-19.0,18.0,7818.0,-13231.0,-3062.0,4783.0,-7.0,1.0,-6.0,1.0
2022-05-08 16:20:12.839207-07:00,622.2,692.1,678.2,890.7,349.1,296.7,796.9,682.3,3473.4,3478.3,1145.4,711.0,524.2,3468.6,1137.5,795.2,3443.1,3452.8,353.7,315.1,319.7,311.3,269.9,254.6,3460.1,3456.4,481.4,377.8,457.7,886.5,699.5,390.3,20.0,-1.0,27.0,7221.0,-8169.0,-8428.0,8862.0,-45.0,63.0,16.0,24.0,-11.0,4.0,7822.0,-13232.0,-3055.0,4779.0,-13.0,46.0,29.0,1.0
2022-05-08 16:20:12.869403-07:00,614.9,692.1,678.2,890.7,353.7,293.6,805.2,682.3,3466.1,3478.3,1145.4,711.0,526.6,3460.1,1136.6,795.2,3443.1,3438.2,356.1,312.8,319.7,311.3,269.9,257.6,3460.1,3456.4,479.8,382.5,457.7,886.5,699.5,398.9,10.0,-3.0,4.0,7230.0,-8202.0,-8429.0,8823.0,-71.0,94.0,2.0,9.0,-9.0,3.0,7805.0,-13255.0,-3039.0,4751.0,-75.0,77.0,42.0,1.0
2022-05-08 16:20:12.929057-07:00,614.9,697.0,686.4,894.1,353.7,293.6,805.2,683.1,3466.1,3464.9,1148.9,706.9,526.6,3460.1,1136.6,791.9,3449.1,3438.2,356.1,312.8,312.8,311.3,276.7,257.6,3466.1,3456.4,479.8,382.5,450.6,883.9,700.3,398.9,2.0,2.0,-31.0,7237.0,-8233.0,-8426.0,8791.0,-83.0,87.0,3.0,-7.0,9.0,-15.0,7790.0,-13274.0,-3024.0,4732.0,-59.0,48.0,18.0,1.0
2022-05-08 16:20:13.019142-07:00,623.0,697.0,686.4,894.1,356.1,295.9,808.5,683.1,3456.4,3464.9,1148.9,706.9,527.4,3473.4,1141.0,791.9,3449.1,3443.1,356.8,308.2,312.8,311.3,276.7,254.6,3466.1,3466.1,479.0,377.0,450.6,883.9,700.3,398.9,-2.0,-14.0,-23.0,7225.0,-8282.0,-8435.0,8747.0,-120.0,72.0,27.0,-9.0,-7.0,-15.0,7755.0,-13303.0,-3019.0,4713.0,-107.0,33.0,20.0,1.0
2022-05-08 16:20:13.020146-07:00,623.0,699.5,683.1,894.9,356.1,295.9,798.5,684.0,3456.4,3472.2,1146.3,705.2,527.4,3473.4,1134.9,791.0,3441.9,3446.7,356.8,308.2,320.5,311.3,272.9,254.6,3457.6,3457.6,479.0,377.0,456.1,889.0,700.3,398.9,-4.0,14.0,-11.0,7221.0,-8309.0,-8431.0,8727.0,-13.0,35.0,3.0,1.0,10.0,7.0,7737.0,-13314.0,-3017.0,4713.0,-1.0,-16.0,8.0,1.0
2022-05-08 16:20:13.079103-07:00,618.9,692.1,683.1,894.9,353.7,294.4,798.5,684.0,3478.3,3468.6,1146.3,705.2,530.6,3474.6,1134.9,791.0,3441.9,3446.7,351.4,311.3,320.5,311.3,268.3,254.6,3457.6,3457.6,478.2,381.7,456.1,889.0,697.0,397.3,-13.0,-5.0,-32.0,7221.0,-8310.0,-8439.0,8720.0,-11.0,-14.0,-26.0,-4.0,-8.0,5.0,7733.0,-13313.0,-3028.0,4715.0,-22.0,-14.0,-26.0,1.0
2022-05-08 16:20:13.169777-07:00,618.9,692.1,679.1,897.4,353.7,294.4,796.9,689.7,3478.3,3468.6,1148.9,711.8,530.6,3474.6,1137.5,789.4,3445.5,3446.7,351.4,311.3,321.3,315.1,268.3,254.6,3464.9,3468.6,478.2,381.7,457.7,889.0,697.0,397.3,-8.0,-12.0,8.0,7220.0,-8304.0,-8439.0,8726.0,16.0,-13.0,25.0,-5.0,-13.0,10.0,7737.0,-13306.0,-3040.0,4721.0,21.0,-26.0,-11.0,1.0
2022-05-08 16:20:13.171071-07:00,624.6,692.9,679.1,897.4,352.2,292.8,796.9,689.7,3468.6,3457.6,1148.9,711.8,529.0,3467.4,1137.5,789.4,3445.5,3446.7,356.8,315.1,321.3,315.1,279.0,254.6,3464.9,3468.6,479.0,380.9,457.7,889.0,695.4,397.3,-3.0,13.0,4.0,7221.0,-8301.0,-8430.0,8736.0,24.0,5.0,2.0,0.0,2.0,14.0,7747.0,-13296.0,-3040.0,4731.0,29.0,-10.0,-8.0,1.0
2022-05-08 16:20:13.229951-07:00,624.6,692.9,679.1,895.7,352.2,292.8,798.5,690.5,3468.6,3457.6,1141.9,715.9,529.0,3467.4,1132.2,789.4,3439.5,3439.5,356.8,315.1,321.3,311.3,279.0,254.6,3455.2,3451.6,479.0,380.9,457.7,888.2,695.4,397.3,-4.0,0.0,7.0,7230.0,-8300.0,-8424.0,8736.0,14.0,14.0,-11.0,0.0,-2.0,15.0,7757.0,-13290.0,-3042.0,4730.0,15.0,5.0,-14.0,1.0
2022-05-08 16:20:13.289227-07:00,627.0,697.9,679.1,895.7,351.4,295.1,798.5,690.5,3452.8,3464.9,1141.9,715.9,531.4,3471.0,1132.2,789.4,3439.5,3439.5,353.7,311.3,321.3,311.3,272.9,249.2,3455.2,3451.6,487.7,378.6,457.7,888.2,695.4,391.8,12.0,0.0,6.0,7233.0,-8298.0,-8422.0,8737.0,0.0,11.0,-1.0,15.0,-9.0,0.0,7764.0,-13287.0,-3041.0,4729.0,7.0,15.0,-4.0,1.0
2022-05-08 16:20:13.349206-07:00,627.0,697.9,681.5,890.7,351.4,295.1,805.2,684.8,3452.8,3464.9,1150.6,705.2,531.4,3471.0,1138.4,796.9,3449.1,3449.1,353.7,311.3,317.4,315.1,272.9,249.2,3460.1,3468.6,487.7,378.6,456.1,889.0,695.4,391.8,0.0,-12.0,3.0,7242.0,-8309.0,-8412.0,8728.0,-2.0,60.0,14.0,0.0,-16.0,0.0,7767.0,-13290.0,-3036.0,4719.0,1.0,32.0,14.0,1.0
2022-05-08 16:20:13.379127-07:00,619.7,699.5,680.7,890.7,345.2,296.7,805.2,684.8,3467.4,3477.1,1148.9,705.2,532.2,3473.4,1138.4,796.9,3449.1,3449.1,358.4,315.1,317.4,312.0,268.3,256.9,3460.1,3468.6,481.4,378.6,456.1,884.8,699.5,395.7,-22.0,5.0,-19.0,7242.0,-8329.0,-8405.0,8716.0,-23.0,40.0,12.0,-23.0,12.0,0.0,7762.0,-13298.0,-3022.0,4714.0,-23.0,28.0,23.0,1.0
2022-05-08 16:20:13.498958-07:00,619.7,699.5,680.7,899.1,345.2,293.6,801.0,686.4,3467.4,3477.1,1148.9,705.2,532.2,3468.6,1133.1,790.2,3441.9,3445.5,355.3,315.1,322.1,312.0,268.3,256.9,3469.8,3466.1,479.8,378.6,457.7,884.8,699.5,395.7,-20.0,2.0,-17.0,7233.0,-8345.0,-8402.0,8711.0,5.0,-9.0,2.0,-15.0,2.0,5.0,7755.0,-13302.0,-3018.0,4716.0,-8.0,-7.0,-1.0,1.0
2022-05-08 16:20:13.529006-07:00,622.2,693.8,682.3,899.1,350.6,293.6,801.0,686.4,3475.9,3464.9,1147.1,705.2,530.6,3468.6,1133.1,790.2,3441.9,3445.5,355.3,313.6,322.1,312.0,272.9,256.1,3469.8,3466.1,479.8,378.6,457.7,884.8,696.2,397.3,13.0,0.0,1.0,7230.0,-8336.0,-8403.0,8721.0,19.0,-21.0,-5.0,13.0,-5.0,0.0,7759.0,-13297.0,-3021.0,4723.0,22.0,-21.0,-20.0,1.0
2022-05-08 16:20:13.559314-07:00,622.2,693.8,682.3,896.6,350.6,294.4,797.7,684.8,3475.9,3464.9,1147.1,710.1,530.6,3471.0,1132.2,792.7,3452.8,3447.9,356.8,313.6,320.5,312.0,272.9,256.1,3467.4,3462.5,477.4,378.6,462.4,884.8,696.2,397.3,19.0,-3.0,10.0,7236.0,-8323.0,-8401.0,8731.0,38.0,-25.0,-6.0,22.0,-12.0,6.0,7770.0,-13288.0,-3031.0,4724.0,31.0,-15.0,-18.0,1.0
2022-05-08 16:20:13.619794-07:00,620.5,702.8,678.2,896.6,350.6,294.4,797.7,684.8,3464.9,3457.6,1132.2,710.1,528.2,3471.0,1132.2,792.7,3452.8,3447.9,356.8,315.9,320.5,309.7,268.3,248.5,3467.4,3462.5,477.4,379.4,462.4,887.3,670.1,395.7,14.0,-5.0,7.0,7244.0,-8306.0,-8397.0,8744.0,30.0,-17.0,3.0,11.0,-8.0,4.0,7788.0,-13275.0,-3038.0,4726.0,33.0,-9.0,-10.0,1.0
2022-05-08 16:20:13.621190-07:00,620.5,702.8,678.2,894.9,350.6,286.7,796.0,686.4,3464.9,3457.6,1132.2,709.3,528.2,3469.8,1134.0,790.2,3446.7,3437.0,348.3,315.9,320.5,309.7,268.3,248.5,3458.9,3460.1,480.6,379.4,454.5,887.3,670.1,395.7,-8.0,-1.0,8.0,7246.0,-8306.0,-8389.0,8750.0,-2.0,19.0,24.0,-9.0,-3.0,3.0,7799.0,-13268.0,-3034.0,4728.0,11.0,6.0,23.0,1.0
2022-05-08 16:20:13.679174-07:00,616.5,693.8,683.1,894.9,355.3,286.7,796.0,686.4,3473.4,3462.5,1147.1,709.3,529.0,3469.8,1134.0,790.2,3446.7,3437.0,348.3,312.0,320.5,315.9,273.7,253.1,3458.9,3460.1,480.6,380.2,454.5,886.5,699.5,391.8,-11.0,8.0,-5.0,7244.0,-8322.0,-8383.0,8743.0,-30.0,37.0,10.0,-7.0,3.0,8.0,7796.0,-13273.0,-3022.0,4730.0,-23.0,21.0,25.0,1.0
2022-05-08 16:20:13.739274-07:00,616.5,693.8,683.1,892.4,351.4,292.1,799.4,686.4,3473.4,3462.5,1147.1,705.2,533.0,3474.6,1138.4,792.7,3443.1,3451.6,356.1,315.1,317.4,315.9,273.7,253.1,3457.6,3467.4,479.8,379.4,460.0,886.5,699.5,391.8,-8.0,5.0,-13.0,7240.0,-8336.0,-8387.0,8728.0,-38.0,10.0,-13.0,-5.0,1.0,2.0,7784.0,-13283.0,-3015.0,4724.0,-40.0,12.0,6.0,1.0
2022-05-08 16:20:13.769145-07:00,618.9,688.9,676.6,897.4,351.4,292.1,799.4,686.4,3467.4,3478.3,1143.6,708.5,533.0,3474.6,1138.4,792.7,3443.1,3451.6,356.1,315.1,324.4,310.5,272.9,254.6,3457.6,3467.4,479.8,379.4,456.1,881.4,702.8,398.1,4.0,-4.0,-6.0,7238.0,-8336.0,-8396.0,8721.0,1.0,-17.0,-22.0,6.0,-5.0,-1.0,7773.0,-13290.0,-3018.0,4720.0,-7.0,-11.0,-13.0,1.0
2022-05-08 16:20:13.859459-07:00,618.9,688.9,676.6,897.4,353.0,293.6,800.2,688.0,3467.4,3478.3,1143.6,708.5,533.0,3473.4,1136.6,792.7,3447.9,3445.5,356.8,309.7,324.4,310.5,272.9,254.6,3472.2,3463.7,479.8,377.8,456.1,881.4,702.8,398.1,10.0,-11.0,2.0,7235.0,-8329.0,-8404.0,8724.0,-35.0,-23.0,9.0,6.0,-13.0,-1.0,7770.0,-13290.0,-3025.0,4721.0,-31.0,-11.0,3.0,1.0
2022-05-08 16:20:13.889255-07:00,621.4,692.1,683.1,893.2,353.0,293.6,800.2,688.0,3457.6,3464.9,1134.9,712.6,533.0,3473.4,1136.6,792.7,3447.9,3445.5,356.8,309.7,320.5,311.3,275.2,250.0,3472.2,3463.7,479.8,377.8,451.4,883.1,697.0,398.9,-4.0,-2.0,3.0,7222.0,-8338.0,-8411.0,8719.0,-34.0,10.0,21.0,0.0,-11.0,11.0,7755.0,-13298.0,-3025.0,4721.0,-35.0,-1.0,19.0,1.0
2022-05-08 16:20:13.919543-07:00,621.4,692.1,683.1,893.2,353.7,294.4,794.4,685.6,3457.6,3464.9,1134.9,712.6,529.8,3468.6,1137.5,788.6,3443.1,3440.7,353.7,310.5,320.5,311.3,275.2,250.0,3473.4,3457.6,480.6,384.8,451.4,883.1,697.0,398.9,-1.0,9.0,0.0,7215.0,-8345.0,-8410.0,8718.0,-17.0,10.0,5.0,1.0,1.0,8.0,7752.0,-13301.0,-3022.0,4723.0,-13.0,0.0,7.0,1.0
2022-05-08 16:20:13.979161-07:00,622.2,695.4,677.4,896.6,353.7,294.4,794.4,685.6,3455.2,3467.4,1139.2,710.1,529.8,3468.6,1137.5,788.6,3443.1,3440.7,353.7,310.5,317.4,311.3,272.1,257.6,3473.4,3457.6,480.6,384.8,456.1,889.0,698.7,398.9,-2.0,-3.0,6.0,7211.0,-8349.0,-8414.0,8714.0,-10.0,19.0,7.0,-1.0,-2.0,3.0,7747.0,-13303.0,-3022.0,4723.0,-8.0,7.0,10.0,1.0
2022-05-08 16:20:14.039314-07:00,619.7,695.4,677.4,896.6,353.0,295.9,797.7,692.9,3475.9,3467.4,1139.2,710.1,529.0,3462.5,1132.2,791.9,3445.5,3458.9,351.4,309.7,317.4,311.3,272.1,256.1,3461.3,3469.8,475.8,386.4,456.1,889.0,698.7,391.8,-7.0,8.0,-5.0,7215.0,-8356.0,-8410.0,8708.0,-13.0,17.0,-8.0,-7.0,5.0,1.0,7747.0,-13306.0,-3019.0,4718.0,-11.0,16.0,3.0,1.0
2022-05-08 16:20:14.069684-07:00,619.7,691.3,679.1,893.2,353.0,295.9,797.7,685.6,3475.9,3463.7,1147.1,712.6,529.0,3462.5,1132.2,793.5,3449.1,3458.9,351.4,309.7,319.7,309.7,277.5,256.1,3468.6,3469.8,475.8,386.4,453.0,889.0,700.3,391.8,-4.0,-1.0,-14.0,7216.0,-8362.0,-8409.0,8703.0,13.0,-6.0,-8.0,-4.0,-3.0,-1.0,7746.0,-13307.0,-3018.0,4716.0,9.0,-2.0,-9.0,1.0
2022-05-08 16:20:14.129122-07:00,617.3,691.3,679.1,893.2,354.5,292.1,794.4,685.6,3469.8,3463.7,1147.1,712.6,527.4,3473.4,1134.0,793.5,3449.1,3449.1,351.4,312.8,319.7,309.7,277.5,257.6,3468.6,3466.1,484.5,379.4,453.0,889.0,700.3,395.7,0.0,-5.0,-8.0,7217.0,-8355.0,-8407.0,8710.0,41.0,-35.0,-1.0,2.0,-4.0,0.0,7754.0,-13300.0,-3024.0,4720.0,33.0,-27.0,-16.0,1.0
2022-05-08 16:20:14.189306-07:00,617.3,685.6,682.3,894.1,354.5,292.1,794.4,688.0,3469.8,3468.6,1142.7,703.6,527.4,3473.4,1134.0,793.5,3451.6,3449.1,351.4,312.8,321.3,314.4,271.4,257.6,3457.6,3466.1,484.5,379.4,466.4,888.2,697.9,395.7,1.0,-4.0,8.0,7217.0,-8340.0,-8406.0,8726.0,30.0,-26.0,10.0,1.0,-6.0,9.0,7764.0,-13289.0,-3029.0,4730.0,27.0,-24.0,-8.0,1.0
2022-05-08 16:20:14.219704-07:00,623.0,685.6,682.3,894.1,354.5,292.8,796.0,688.0,3467.4,3468.6,1142.7,703.6,532.2,3471.0,1136.6,793.5,3451.6,3447.9,353.0,315.1,321.3,314.4,271.4,257.6,3457.6,3463.7,475.8,380.2,466.4,888.2,697.9,392.6,-1.0,6.0,11.0,7220.0,-8332.0,-8397.0,8739.0,20.0,-4.0,1.0,1.0,-3.0,11.0,7776.0,-13280.0,-3027.0,4738.0,21.0,-3.0,-2.0,1.0
2022-05-08 16:20:14.279172-07:00,623.0,691.3,676.6,895.7,354.5,292.8,796.0,684.8,3467.4,3460.1,1142.7,717.5,532.2,3471.0,1136.6,787.7,3445.5,3447.9,353.0,315.1,322.8,315.1,270.6,257.6,3457.6,3463.7,475.8,380.2,460.8,885.6,695.4,392.6,0.0,-3.0,3.0,7224.0,-8329.0,-8394.0,8742.0,24.0,13.0,0.0,0.0,-6.0,6.0,7783.0,-13276.0,-3025.0,4739.0,27.0,0.0,2.0,1.0
2022-05-08 16:20:14.339257-07:00,623.8,691.3,676.6,895.7,349.9,297.4,805.2,684.8,3471.0,3460.1,1142.7,717.5,531.4,3464.9,1132.2,787.7,3445.5,3443.1,353.0,309.7,322.8,315.1,270.6,255.3,3457.6,3454.0,479.8,383.3,460.8,885.6,695.4,395.0,-5.0,-13.0,2.0,7231.0,-8328.0,-8387.0,8743.0,33.0,12.0,11.0,-1.0,-9.0,5.0,7793.0,-13270.0,-3018.0,4744.0,51.0,-8.0,19.0,1.0
2022-05-08 16:20:14.369175-07:00,623.8,692.9,679.1,896.6,349.9,297.4,800.2,680.7,3471.0,3469.8,1145.4,711.8,531.4,3464.9,1133.1,793.5,3449.1,3443.1,353.0,309.7,320.5,315.9,272.1,255.3,3463.7,3464.9,479.8,383.3,453.7,886.5,698.7,395.0,5.0,-11.0,10.0,7248.0,-8311.0,-8363.0,8768.0,221.0,20.0,71.0,5.0,18.0,-3.0,7864.0,-13218.0,-2995.0,4787.0,340.0,-79.0,47.0,1.0
2022-05-08 16:20:14.609375-07:00,618.9,692.1,679.1,896.6,347.6,293.6,800.2,680.7,3462.5,3467.4,1145.4,711.8,533.0,3468.6,1133.1,793.5,3449.1,3443.1,356.8,311.3,320.5,315.9,275.2,253.8,3463.7,3464.9,478.2,380.9,453.7,886.5,771.1,398.9,0.0,-27.0,-5.0,7279.0,-8293.0,-8289.0,8829.0,173.0,21.0,142.0,0.0,-6.0,-10.0,7960.0,-13141.0,-2954.0,4864.0,325.0,-126.0,94.0,1.0
2022-05-08 16:20:14.611974-07:00,618.9,692.1,677.4,895.7,347.6,293.6,836.1,685.6,3462.5,3467.4,1141.9,711.0,533.0,3468.6,1127.9,784.4,3438.2,3447.9,356.8,311.3,316.7,315.1,275.2,253.8,3458.9,3463.7,478.2,380.9,454.5,904.2,771.1,398.9,3.0,-142.0,62.0,7334.0,-8284.0,-8096.0,8971.0,946.0,249.0,540.0,-13.0,-33.0,-8.0,8201.0,-12944.0,-2843.0,5055.0,1224.0,-361.0,244.0,1.0
2022-05-08 16:20:14.612687-07:00,627.8,708.5,677.4,895.7,348.3,298.2,836.1,685.6,3468.6,3467.4,1141.9,711.0,530.6,3478.3,1127.9,784.4,3438.2,3447.9,353.7,312.8,316.7,315.1,268.3,253.8,3458.9,3463.7,488.5,379.4,454.5,904.2,1051.3,392.6,49.0,-50.0,12.0,7509.0,-8285.0,-7593.0,9260.0,1386.0,635.0,814.0,-2.0,-39.0,-16.0,8458.0,-12700.0,-2744.0,5299.0,1097.0,-538.0,253.0,1.0
2022-05-08 16:20:14.613347-07:00,627.8,708.5,676.6,902.5,348.3,298.2,955.1,704.4,3468.6,3467.4,1157.7,713.4,530.6,3478.3,1146.3,796.9,3444.3,3447.9,353.7,312.8,325.9,312.8,268.3,253.8,3463.7,3466.1,488.5,379.4,456.9,1032.3,1051.3,392.6,14.0,112.0,-54.0,7724.0,-8392.0,-6986.0,9462.0,735.0,718.0,544.0,35.0,-4.0,18.0,8710.0,-12459.0,-2602.0,5529.0,774.0,-225.0,220.0,1.0
2022-05-08 16:20:14.638852-07:00,623.0,732.3,676.6,902.5,349.9,308.2,955.1,704.4,3467.4,3472.2,1157.7,713.4,529.8,3467.4,1146.3,796.9,3444.3,3447.9,354.5,318.2,325.9,312.8,278.3,250.0,3463.7,3466.1,492.5,392.6,456.9,1032.3,1048.7,395.0,-6.0,117.0,-45.0,7843.0,-8528.0,-6690.0,9457.0,7.0,496.0,121.0,27.0,46.0,29.0,8785.0,-12385.0,-2529.0,5611.0,89.0,-12.0,86.0,1.0
2022-05-08 16:20:14.669646-07:00,623.0,732.3,684.0,894.9,349.9,312.0,962.8,707.7,3467.4,3472.2,1168.2,715.9,529.8,3466.1,1323.2,809.4,3447.9,3451.6,353.0,318.2,321.3,311.3,278.3,250.0,3460.1,3464.9,499.6,392.6,459.3,1123.5,1048.7,395.0,9.0,28.0,-45.0,7893.0,-8604.0,-6591.0,9416.0,52.0,203.0,38.0,25.0,45.0,-29.0,8800.0,-12369.0,-2506.0,5633.0,57.0,46.0,42.0,1.0
2022-05-08 16:20:14.729120-07:00,637.6,757.1,680.7,894.9,348.3,312.0,962.8,707.7,3464.9,3471.0,1160.3,715.9,529.0,3466.1,1323.2,809.4,3447.9,3451.6,353.0,321.3,321.3,318.2,279.8,255.3,3460.1,3464.9,499.6,396.5,459.3,1096.4,1012.5,394.2,9.0,31.0,-43.0,7907.0,-8636.0,-6573.0,9388.0,-72.0,-3.0,-49.0,7.0,20.0,-6.0,8798.0,-12366.0,-2499.0,5644.0,-27.0,-14.0,7.0,1.0
2022-05-08 16:20:14.759794-07:00,637.6,757.1,680.7,897.4,348.3,311.3,950.0,701.1,3464.9,3471.0,1160.3,719.2,529.0,3473.4,1315.1,817.7,3449.1,3447.9,352.2,321.3,323.6,318.2,279.8,255.3,3462.5,3454.0,502.8,396.5,483.7,1096.4,1012.5,394.2,2.0,-9.0,-8.0,7901.0,-8639.0,-6606.0,9367.0,-6.0,-22.0,-40.0,-5.0,-11.0,0.0,8792.0,-12369.0,-2510.0,5642.0,2.0,-27.0,-29.0,1.0
2022-05-08 16:20:14.819404-07:00,620.5,744.7,692.9,897.4,351.4,311.3,950.0,701.1,3469.8,3463.7,1166.5,719.2,527.4,3473.4,1315.1,817.7,3449.1,3447.9,352.2,321.3,323.6,311.3,277.5,253.1,3462.5,3454.0,502.8,395.7,483.7,1086.0,1009.0,403.5,3.0,-12.0,27.0,7899.0,-8630.0,-6618.0,9369.0,-7.0,0.0,18.0,1.0,-2.0,9.0,8797.0,-12360.0,-2522.0,5650.0,7.0,-16.0,6.0,1.0
2022-05-08 16:20:14.879073-07:00,620.5,744.7,692.9,894.1,351.4,315.1,939.0,701.1,3469.8,3463.7,1166.5,711.0,527.4,3473.4,1335.9,819.4,3447.9,3449.1,356.8,321.3,320.5,311.3,277.5,253.1,3461.3,3455.2,500.4,395.7,479.0,1086.0,1009.0,403.5,6.0,11.0,10.0,7898.0,-8637.0,-6612.0,9366.0,-10.0,31.0,-12.0,6.0,-5.0,15.0,8798.0,-12359.0,-2520.0,5651.0,-4.0,5.0,7.0,1.0
2022-05-08 16:20:14.909365-07:00,627.8,752.9,679.9,894.1,348.3,315.1,939.0,701.1,3477.1,3472.2,1160.3,711.0,527.4,3473.4,1335.9,819.4,3447.9,3449.1,356.8,322.1,320.5,314.4,281.3,258.4,3461.3,3455.2,500.4,400.4,479.0,1074.7,998.7,409.8,1.0,19.0,-6.0,7915.0,-8641.0,-6610.0,9351.0,8.0,33.0,-67.0,1.0,4.0,8.0,8799.0,-12362.0,-2517.0,5644.0,-2.0,20.0,-21.0,1.0
2022-05-08 16:20:14.969008-07:00,627.8,752.9,679.9,891.5,348.3,311.3,933.0,697.9,3477.1,3472.2,1160.3,711.8,527.4,3472.2,1316.9,814.4,3450.4,3446.7,354.5,322.1,319.7,314.4,281.3,258.4,3464.9,3456.4,492.5,400.4,477.4,1074.7,998.7,409.8,1.0,-22.0,-12.0,7929.0,-8641.0,-6631.0,9324.0,-40.0,-10.0,-58.0,-10.0,-15.0,5.0,8793.0,-12374.0,-2520.0,5626.0,-25.0,6.0,-14.0,1.0
2022-05-08 16:20:15.029199-07:00,625.4,757.9,675.0,895.7,355.3,311.3,933.0,697.9,3464.9,3464.9,1151.5,711.8,529.8,3472.2,1316.9,814.4,3450.4,3446.7,354.5,317.4,321.3,319.7,274.4,255.3,3464.9,3456.4,492.5,398.9,474.3,1066.0,980.7,405.9,2.0,-12.0,-17.0,7934.0,-8636.0,-6642.0,9315.0,25.0,-2.0,-8.0,-2.0,-8.0,-10.0,8795.0,-12372.0,-2521.0,5626.0,33.0,-14.0,-8.0,1.0
2022-05-08 16:20:15.059709-07:00,625.4,757.9,675.0,895.7,349.9,312.0,938.1,697.9,3464.9,3464.9,1151.5,711.8,537.8,3475.9,1315.1,811.0,3458.9,3449.1,356.1,324.4,321.3,319.7,274.4,255.3,3460.1,3458.9,492.5,397.3,474.3,1066.0,980.7,405.9,-8.0,4.0,-11.0,7936.0,-8630.0,-6649.0,9315.0,-26.0,-63.0,-21.0,-1.0,-11.0,13.0,8802.0,-12367.0,-2523.0,5626.0,-11.0,0.0,-9.0,1.0
2022-05-08 16:20:15.119518-07:00,627.0,746.3,672.5,904.2,349.9,312.0,938.1,697.9,3471.0,3469.8,1157.7,713.4,537.8,3475.9,1315.1,811.0,3458.9,3449.1,356.1,324.4,319.0,315.9,281.3,256.9,3460.1,3458.9,492.5,397.3,467.9,1072.1,976.5,402.8,4.0,-3.0,-3.0,7926.0,-8616.0,-6664.0,9326.0,8.0,-38.0,12.0,-2.0,-10.0,6.0,8802.0,-12361.0,-2530.0,5635.0,13.0,-26.0,-2.0,1.0
2022-05-08 16:20:15.179089-07:00,627.0,746.3,672.5,904.2,351.4,307.4,932.2,692.1,3471.0,3469.8,1157.7,713.4,535.4,3467.4,1311.5,818.5,3454.0,3449.1,354.5,317.4,319.0,315.9,281.3,256.9,3463.7,3455.2,496.4,393.4,467.9,1072.1,976.5,402.8,-13.0,6.0,2.0,7923.0,-8613.0,-6666.0,9329.0,0.0,-5.0,-1.0,-3.0,-5.0,18.0,8803.0,-12358.0,-2532.0,5640.0,9.0,4.0,-2.0,1.0
2022-05-08 16:20:15.209396-07:00,623.8,749.6,671.7,898.3,351.4,307.4,932.2,692.1,3469.8,3472.2,1160.3,715.1,535.4,3467.4,1311.5,818.5,3454.0,3449.1,354.5,317.4,320.5,311.3,284.4,255.3,3463.7,3455.2,496.4,393.4,474.3,1068.6,971.3,405.9,0.0,1.0,-14.0,7919.0,-8608.0,-6674.0,9332.0,-21.0,-40.0,-19.0,-1.0,-1.0,9.0,8800.0,-12359.0,-2535.0,5642.0,-20.0,-7.0,-9.0,1.0
2022-05-08 16:20:15.269148-07:00,623.8,749.6,671.7,898.3,353.0,313.6,947.5,700.3,3469.8,3472.2,1160.3,715.1,534.6,3467.4,1311.5,811.0,3449.1,3438.2,358.4,324.4,320.5,311.3,284.4,255.3,3457.6,3462.5,503.6,397.3,474.3,1068.6,971.3,405.9,4.0,-3.0,-8.0,7913.0,-8593.0,-6685.0,9343.0,17.0,-58.0,4.0,1.0,-1.0,-3.0,8803.0,-12351.0,-2546.0,5650.0,23.0,-54.0,-17.0,1.0
2022-05-08 16:20:15.329149-07:00,629.5,748.8,675.0,896.6,353.0,313.6,947.5,701.1,3469.8,3477.1,1157.7,713.4,534.6,3467.4,1311.5,816.0,3438.2,3438.2,358.4,324.4,317.4,311.3,283.6,254.6,3460.1,3462.5,503.6,397.3,473.5,1071.2,973.9,408.2,0.0,4.0,0.0,7903.0,-8582.0,-6694.0,9355.0,1.0,-57.0,9.0,4.0,-2.0,4.0,8806.0,-12341.0,-2553.0,5662.0,10.0,-32.0,1.0,1.0
2022-05-08 16:20:15.359661-07:00,628.6,748.8,675.0,896.6,353.0,305.1,925.4,701.1,3466.1,3477.1,1157.7,713.4,533.0,3478.3,1307.0,816.0,3438.2,3451.6,355.3,319.0,317.4,311.3,283.6,255.3,3460.1,3468.6,491.7,391.8,473.5,1071.2,973.9,416.1,-3.0,3.0,0.0,7895.0,-8568.0,-6703.0,9368.0,25.0,-39.0,9.0,-4.0,-9.0,14.0,8808.0,-12334.0,-2559.0,5674.0,30.0,-43.0,-7.0,1.0
2022-05-08 16:20:15.449537-07:00,628.6,752.1,670.9,905.0,353.0,305.1,925.4,702.8,3466.1,3463.7,1154.2,712.6,533.0,3478.3,1307.0,815.2,3440.7,3451.6,355.3,319.0,318.2,314.4,279.0,255.3,3466.1,3468.6,491.7,391.8,474.3,1060.8,968.8,416.1,0.0,3.0,10.0,7893.0,-8562.0,-6704.0,9375.0,-9.0,-3.0,-8.0,0.0,-2.0,6.0,8810.0,-12329.0,-2561.0,5680.0,-9.0,3.0,-1.0,1.0
2022-05-08 16:20:15.479132-07:00,618.9,752.1,670.9,905.0,353.7,311.3,936.4,702.8,3462.5,3463.7,1154.2,712.6,537.8,3469.8,1290.9,815.2,3440.7,3441.9,363.1,321.3,318.2,314.4,279.0,250.0,3466.1,3467.4,493.2,393.4,474.3,1060.8,968.8,404.3,-15.0,-3.0,-4.0,7893.0,-8571.0,-6703.0,9367.0,-22.0,21.0,4.0,-1.0,-13.0,20.0,8804.0,-12337.0,-2559.0,5672.0,-22.0,26.0,13.0,1.0
2022-05-08 16:20:15.509349-07:00,618.9,747.2,674.2,903.4,353.7,311.3,936.4,701.1,3462.5,3472.2,1152.4,711.8,537.8,3469.8,1290.9,818.5,3441.9,3441.9,363.1,321.3,318.2,315.1,279.0,250.0,3466.1,3467.4,493.2,393.4,464.8,1059.9,965.4,404.3,0.0,-2.0,-5.0,7885.0,-8572.0,-6710.0,9368.0,-13.0,-18.0,15.0,-4.0,1.0,0.0,8800.0,-12338.0,-2558.0,5676.0,-8.0,3.0,16.0,1.0
2022-05-08 16:20:15.719197-07:00,629.5,747.2,674.2,903.4,354.5,309.7,933.0,701.1,3471.0,3472.2,1152.4,711.8,526.6,3462.5,1299.8,818.5,3441.9,3443.1,354.5,322.8,318.2,315.1,279.0,258.4,3466.1,3467.4,495.6,395.0,464.8,1059.9,965.4,409.0,12.0,4.0,1.0,7884.0,-8581.0,-6708.0,9362.0,-13.0,30.0,7.0,12.0,-10.0,9.0,8795.0,-12344.0,-2553.0,5675.0,-13.0,18.0,14.0,1.0
2022-05-08 16:20:15.720459-07:00,629.5,747.2,670.1,900.0,354.5,309.7,933.0,696.2,3471.0,3474.6,1157.7,715.9,526.6,3462.5,1299.8,815.2,3438.2,3443.1,354.5,322.8,317.4,314.4,279.0,258.4,3464.9,3467.4,495.6,395.0,474.3,1063.4,972.2,409.0,12.0,-2.0,1.0,7880.0,-8582.0,-6717.0,9358.0,-22.0,-25.0,-19.0,16.0,-12.0,6.0,8790.0,-12348.0,-2558.0,5671.0,-29.0,-1.0,-8.0,1.0
2022-05-08 16:20:15.721333-07:00,625.4,739.7,670.1,900.0,355.3,312.8,925.4,696.2,3471.0,3468.6,1157.7,715.9,523.4,3468.6,1305.2,815.2,3438.2,3438.2,357.6,320.5,317.4,314.4,276.0,253.1,3464.9,3468.6,494.0,393.4,474.3,1063.4,967.1,411.4,-1.0,-10.0,5.0,7877.0,-8577.0,-6724.0,9359.0,-16.0,0.0,1.0,-4.0,-13.0,2.0,8789.0,-12347.0,-2561.0,5673.0,-10.0,-2.0,9.0,1.0
2022-05-08 16:20:15.722854-07:00,625.4,739.7,670.1,895.7,355.3,312.8,928.8,701.1,3471.0,3468.6,1146.3,711.0,523.4,3468.6,1299.0,815.2,3428.6,3449.1,357.6,320.5,320.5,315.1,276.0,253.1,3472.2,3457.6,494.0,393.4,474.3,1056.5,967.1,411.4,-9.0,2.0,-4.0,7871.0,-8596.0,-6722.0,9349.0,-37.0,44.0,21.0,-10.0,-6.0,6.0,8779.0,-12357.0,-2548.0,5671.0,-20.0,32.0,36.0,1.0
2022-05-08 16:20:15.778925-07:00,629.5,746.3,670.1,895.7,352.2,309.0,928.8,701.1,3468.6,3473.4,1146.3,711.0,530.6,3473.4,1299.0,815.2,3428.6,3449.1,356.8,325.1,320.5,315.1,279.0,256.1,3472.2,3457.6,494.8,396.5,474.3,1056.5,964.5,409.8,-6.0,14.0,-13.0,7865.0,-8611.0,-6723.0,9339.0,-19.0,6.0,-6.0,-4.0,6.0,13.0,8772.0,-12367.0,-2537.0,5667.0,-12.0,19.0,3.0,1.0
2022-05-08 16:20:15.808897-07:00,629.5,746.3,666.0,899.1,352.2,309.0,933.0,706.9,3468.6,3473.4,1149.8,711.8,530.6,3473.4,1303.4,814.4,3451.6,3458.9,356.8,325.1,324.4,311.3,279.0,256.1,3464.9,3468.6,494.8,396.5,468.7,1056.5,964.5,409.8,2.0,-8.0,-1.0,7869.0,-8612.0,-6726.0,9334.0,-12.0,19.0,-16.0,-3.0,-6.0,3.0,8773.0,-12368.0,-2536.0,5664.0,-11.0,22.0,-6.0,1.0
2022-05-08 16:20:15.869278-07:00,623.0,740.6,666.0,899.1,350.6,310.5,933.0,706.9,3469.8,3480.7,1149.8,711.8,528.2,3480.7,1303.4,814.4,3451.6,3458.9,354.5,319.0,324.4,311.3,278.3,253.8,3464.9,3468.6,496.4,394.2,468.7,1056.5,958.5,407.5,6.0,0.0,-13.0,7870.0,-8616.0,-6725.0,9329.0,-8.0,-4.0,-6.0,4.0,-6.0,9.0,8772.0,-12372.0,-2532.0,5657.0,-7.0,1.0,-5.0,1.0
2022-05-08 16:20:15.929401-07:00,623.0,740.6,673.3,891.5,350.6,310.5,923.7,697.0,3469.8,3480.7,1154.2,716.7,528.2,3480.7,1290.9,813.5,3445.5,3443.1,354.5,319.0,320.5,312.8,278.3,253.8,3460.1,3462.5,496.4,394.2,469.5,1057.3,958.5,407.5,13.0,-5.0,-7.0,7866.0,-8608.0,-6732.0,9335.0,8.0,-45.0,-7.0,2.0,-13.0,0.0,8774.0,-12369.0,-2537.0,5659.0,11.0,-34.0,-20.0,1.0
2022-05-08 16:20:15.989284-07:00,627.8,740.6,663.6,891.5,347.6,307.4,923.7,697.0,3467.4,3475.9,1153.3,716.7,529.0,3457.6,1290.9,813.5,3445.5,3443.1,353.7,319.0,320.5,316.7,277.5,255.3,3460.1,3462.5,490.9,396.5,469.5,1059.1,954.3,407.5,0.0,-3.0,0.0,7863.0,-8599.0,-6735.0,9344.0,17.0,-16.0,16.0,-3.0,-12.0,12.0,8778.0,-12360.0,-2547.0,5667.0,15.0,-16.0,-4.0,1.0
2022-05-08 16:20:16.019235-07:00,627.8,740.6,663.6,895.7,347.6,311.3,926.2,692.1,3467.4,3475.9,1153.3,715.9,529.0,3471.0,1293.6,810.2,3454.0,3446.7,356.1,319.0,320.5,316.7,277.5,255.3,3460.1,3457.6,494.8,396.5,473.5,1059.1,954.3,407.5,0.0,11.0,4.0,7856.0,-8597.0,-6734.0,9352.0,12.0,-17.0,15.0,0.0,-1.0,14.0,8780.0,-12355.0,-2551.0,5674.0,10.0,-19.0,-6.0,1.0
2022-05-08 16:20:16.079174-07:00,631.9,740.6,662.7,895.7,353.7,311.3,926.2,692.1,3464.9,3457.6,1156.8,715.9,528.2,3471.0,1293.6,810.2,3454.0,3446.7,356.1,321.3,320.5,312.0,281.3,256.9,3460.1,3457.6,494.8,395.7,473.5,1058.2,962.0,397.3,-4.0,-3.0,9.0,7856.0,-8591.0,-6738.0,9354.0,5.0,-9.0,-14.0,-4.0,-4.0,11.0,8783.0,-12351.0,-2555.0,5675.0,4.0,-3.0,-15.0,1.0
2022-05-08 16:20:16.109496-07:00,631.9,740.6,662.7,891.5,353.7,311.3,927.1,699.5,3464.9,3457.6,1156.8,711.8,528.2,3473.4,1290.0,806.9,3443.1,3438.2,353.0,321.3,319.0,312.0,281.3,256.9,3463.7,3462.5,495.6,395.7,464.8,1058.2,962.0,397.3,-5.0,-5.0,-2.0,7859.0,-8591.0,-6741.0,9349.0,-17.0,16.0,-15.0,-8.0,-5.0,4.0,8784.0,-12352.0,-2556.0,5673.0,-16.0,14.0,-3.0,1.0
2022-05-08 16:20:16.169269-07:00,623.8,738.1,670.9,891.5,355.3,311.3,927.1,699.5,3473.4,3462.5,1152.4,711.8,529.0,3473.4,1290.0,806.9,3443.1,3438.2,353.0,324.4,319.0,312.0,277.5,259.9,3463.7,3462.5,495.6,395.0,464.8,1058.2,978.2,408.2,5.0,0.0,-7.0,7862.0,-8594.0,-6741.0,9345.0,-11.0,-1.0,-12.0,5.0,-5.0,3.0,8784.0,-12354.0,-2554.0,5669.0,-7.0,7.0,-3.0,1.0
2022-05-08 16:20:16.229163-07:00,623.8,738.1,670.9,899.1,355.3,306.7,925.4,698.7,3473.4,3462.5,1152.4,713.4,529.0,3473.4,1291.8,818.5,3449.1,3450.4,356.8,324.4,325.1,312.0,277.5,259.9,3471.0,3462.5,495.6,395.0,467.1,1058.2,978.2,408.2,6.0,1.0,-4.0,7863.0,-8591.0,-6741.0,9347.0,12.0,-8.0,3.0,6.0,-6.0,0.0,8785.0,-12353.0,-2555.0,5670.0,15.0,-13.0,-5.0,1.0
2022-05-08 16:20:16.259603-07:00,620.5,741.4,668.4,899.1,358.4,306.7,925.4,698.7,3468.6,3473.4,1155.0,713.4,528.2,3473.4,1291.8,818.5,3449.1,3450.4,356.8,322.8,325.1,311.3,278.3,256.1,3471.0,3462.5,495.6,397.3,467.1,1053.9,953.4,404.3,-6.0,-4.0,3.0,7862.0,-8592.0,-6741.0,9346.0,2.0,-2.0,-4.0,-3.0,-8.0,13.0,8784.0,-12352.0,-2557.0,5671.0,-7.0,-2.0,-7.0,1.0
2022-05-08 16:20:16.319218-07:00,620.5,741.4,668.4,894.9,354.5,308.2,926.2,706.9,3468.6,3473.4,1155.0,715.1,530.6,3475.9,1296.3,815.2,3450.4,3449.1,355.3,320.5,324.4,311.3,278.3,256.1,3461.3,3456.4,499.6,401.2,468.7,1053.9,953.4,404.3,1.0,3.0,-2.0,7861.0,-8593.0,-6740.0,9348.0,-7.0,4.0,4.0,-1.0,-1.0,3.0,8785.0,-12350.0,-2558.0,5674.0,-2.0,-9.0,3.0,1.0
2022-05-08 16:20:16.379039-07:00,625.4,740.6,670.9,891.5,354.5,308.2,926.2,706.9,3471.0,3468.6,1157.7,719.2,530.6,3475.9,1296.3,815.2,3450.4,3449.1,355.3,320.5,321.3,309.7,276.7,257.6,3461.3,3456.4,499.6,401.2,469.5,1064.3,948.3,410.6,-6.0,0.0,0.0,7862.0,-8597.0,-6739.0,9344.0,-15.0,12.0,-8.0,-2.0,-5.0,13.0,8786.0,-12349.0,-2558.0,5674.0,-8.0,5.0,-2.0,1.0
2022-05-08 16:20:16.408957-07:00,625.4,740.6,670.9,891.5,353.0,310.5,927.9,697.0,3471.0,3468.6,1157.7,719.2,537.8,3464.9,1291.8,808.5,3446.7,3454.0,361.5,320.5,321.3,309.7,276.7,257.6,3468.6,3473.4,491.7,397.3,469.5,1064.3,948.3,410.6,0.0,0.0,0.0,7861.0,-8599.0,-6738.0,9344.0,-2.0,11.0,12.0,0.0,-4.0,3.0,8786.0,-12349.0,-2559.0,5676.0,3.0,2.0,9.0,1.0
2022-05-08 16:20:16.469869-07:00,621.4,739.7,666.0,889.8,353.0,310.5,927.9,697.0,3475.9,3464.9,1153.3,715.1,537.8,3464.9,1291.8,808.5,3446.7,3454.0,361.5,320.5,320.5,315.9,278.3,257.6,3468.6,3473.4,491.7,397.3,465.6,1051.3,952.6,410.6,4.0,2.0,1.0,7862.0,-8606.0,-6735.0,9339.0,-6.0,18.0,7.0,1.0,-2.0,0.0,8784.0,-12350.0,-2557.0,5676.0,-4.0,7.0,8.0,1.0
2022-05-08 16:20:16.589264-07:00,621.4,739.7,666.0,889.8,350.6,306.7,928.8,698.7,3475.9,3464.9,1153.3,715.1,530.6,3468.6,1296.3,813.5,3445.5,3446.7,358.4,322.1,320.5,315.9,278.3,257.6,3468.6,3468.6,492.5,398.1,465.6,1051.3,952.6,410.6,6.0,-1.0,-5.0,7864.0,-8610.0,-6732.0,9335.0,2.0,4.0,6.0,2.0,-6.0,2.0,8784.0,-12351.0,-2555.0,5673.0,1.0,6.0,3.0,1.0
2022-05-08 16:20:16.590702-07:00,624.6,738.9,666.0,897.4,350.6,306.7,928.8,698.7,3474.6,3478.3,1146.3,716.7,530.6,3468.6,1296.3,813.5,3445.5,3446.7,358.4,322.1,322.8,315.1,279.8,256.9,3468.6,3468.6,492.5,398.1,464.0,1046.1,949.2,414.5,0.0,-4.0,-4.0,7865.0,-8607.0,-6732.0,9337.0,9.0,-16.0,-4.0,0.0,-7.0,5.0,8785.0,-12350.0,-2556.0,5674.0,7.0,-13.0,-6.0,1.0
2022-05-08 16:20:16.619191-07:00,624.6,738.9,666.0,897.4,348.3,305.9,922.8,699.5,3473.4,3478.3,1146.3,716.7,528.2,3488.0,1286.4,809.4,3440.7,3445.5,356.8,323.6,322.8,315.1,279.8,263.0,3464.9,3466.1,497.2,395.7,464.0,1046.1,949.2,412.1,-5.0,-7.0,-1.0,7862.0,-8606.0,-6731.0,9341.0,5.0,-8.0,15.0,-5.0,-10.0,1.0,8786.0,-12348.0,-2558.0,5676.0,8.0,-9.0,6.0,1.0
2022-05-08 16:20:16.709478-07:00,624.6,738.1,666.0,899.1,348.3,305.9,922.8,701.1,3473.4,3467.4,1149.8,718.4,528.2,3488.0,1286.4,807.7,3447.9,3445.5,356.8,323.6,321.3,311.3,271.4,263.0,3473.4,3466.1,497.2,395.7,469.5,1053.0,958.5,412.1,-5.0,0.0,0.0,7856.0,-8611.0,-6727.0,9344.0,-11.0,0.0,22.0,-3.0,-6.0,9.0,8785.0,-12349.0,-2553.0,5679.0,-5.0,4.0,23.0,1.0
2022-05-08 16:20:16.710606-07:00,620.5,738.1,666.0,899.1,361.5,308.2,924.5,701.1,3473.4,3467.4,1149.8,718.4,528.2,3475.9,1288.2,807.7,3447.9,3443.1,356.1,319.0,321.3,311.3,271.4,257.6,3473.4,3464.9,493.2,391.1,469.5,1053.0,958.5,408.2,-3.0,13.0,-7.0,7856.0,-8615.0,-6723.0,9344.0,2.0,-2.0,-7.0,0.0,2.0,9.0,8784.0,-12350.0,-2549.0,5679.0,-1.0,-2.0,-2.0,1.0
2022-05-08 16:20:16.769274-07:00,620.5,741.4,670.1,897.4,361.5,308.2,924.5,698.7,3473.4,3473.4,1153.3,714.2,528.2,3475.9,1288.2,806.9,3454.0,3443.1,356.1,319.0,321.3,317.4,279.0,257.6,3466.1,3464.9,493.2,391.1,471.1,1052.2,950.9,408.2,3.0,0.0,0.0,7858.0,-8608.0,-6727.0,9345.0,7.0,-20.0,-17.0,4.0,-6.0,3.0,8787.0,-12348.0,-2553.0,5677.0,5.0,-12.0,-22.0,1.0
2022-05-08 16:20:16.859559-07:00,623.0,741.4,670.1,897.4,350.6,314.4,920.3,698.7,3473.4,3473.4,1153.3,714.2,529.0,3478.3,1288.2,806.9,3454.0,3454.0,354.5,322.8,321.3,317.4,279.0,254.6,3466.1,3467.4,500.4,395.0,471.1,1052.2,950.9,411.4,-1.0,-12.0,1.0,7859.0,-8607.0,-6729.0,9344.0,-3.0,4.0,5.0,-1.0,-12.0,2.0,8789.0,-12347.0,-2556.0,5675.0,-9.0,3.0,7.0,1.0
2022-05-08 16:20:16.860689-07:00,623.0,734.8,670.1,894.9,350.6,314.4,920.3,697.9,3473.4,3471.0,1156.8,711.8,529.0,3478.3,1288.2,811.0,3463.7,3454.0,354.5,322.8,324.4,318.2,274.4,254.6,3464.9,3467.4,500.4,395.0,487.7,1053.0,953.4,411.4,-1.0,3.0,-5.0,7857.0,-8608.0,-6727.0,9346.0,-6.0,6.0,17.0,0.0,1.0,1.0,8788.0,-12348.0,-2554.0,5676.0,-2.0,-6.0,10.0,1.0
2022-05-08 16:20:16.949301-07:00,625.4,734.8,670.1,894.9,355.3,310.5,919.4,697.9,3473.4,3471.0,1156.8,711.8,524.2,3467.4,1291.8,811.0,3463.7,3446.7,354.5,324.4,324.4,318.2,274.4,257.6,3464.9,3471.0,491.7,391.8,487.7,1053.0,953.4,411.4,4.0,7.0,5.0,7856.0,-8609.0,-6727.0,9347.0,-2.0,4.0,-3.0,6.0,-2.0,3.0,8788.0,-12348.0,-2554.0,5676.0,-6.0,12.0,1.0,1.0
2022-05-08 16:20:16.950954-07:00,625.4,736.5,665.2,891.5,355.3,310.5,923.7,699.5,3473.4,3466.1,1147.1,710.1,524.2,3467.4,1286.4,812.7,3452.8,3455.2,354.5,324.4,324.4,312.0,277.5,257.6,3458.9,3468.6,491.7,391.8,465.6,1053.0,945.8,411.4,-8.0,1.0,3.0,7860.0,-8615.0,-6722.0,9341.0,-2.0,25.0,-2.0,-4.0,-6.0,17.0,8789.0,-12350.0,-2551.0,5672.0,5.0,11.0,3.0,1.0
2022-05-08 16:20:17.009379-07:00,622.2,738.9,665.2,891.5,350.6,311.3,923.7,699.5,3467.4,3477.1,1147.1,710.1,537.8,3471.0,1286.4,812.7,3452.8,3455.2,359.2,317.4,324.4,312.0,278.3,257.6,3458.9,3468.6,496.4,390.3,465.6,1053.0,947.5,414.5,-1.0,5.0,-7.0,7863.0,-8619.0,-6718.0,9337.0,2.0,18.0,2.0,-3.0,-8.0,6.0,8790.0,-12349.0,-2549.0,5672.0,0.0,6.0,4.0,1.0
2022-05-08 16:20:17.069215-07:00,622.2,738.9,666.8,895.7,350.6,311.3,914.4,693.8,3467.4,3477.1,1155.9,719.2,537.8,3471.0,1285.5,813.5,3447.9,3454.0,359.2,317.4,323.6,315.9,278.3,257.6,3460.1,3474.6,496.4,390.3,466.4,1052.2,947.5,414.5,-6.0,-4.0,-8.0,7864.0,-8629.0,-6716.0,9328.0,-18.0,22.0,-2.0,-3.0,-5.0,3.0,8786.0,-12356.0,-2545.0,5665.0,-20.0,17.0,8.0,1.0
2022-05-08 16:20:17.129178-07:00,624.6,737.3,666.8,895.7,352.2,309.0,914.4,693.8,3474.6,3471.0,1155.9,719.2,536.2,3464.9,1285.5,813.5,3447.9,3454.0,358.4,321.3,323.6,315.9,276.7,258.4,3460.1,3474.6,491.7,391.8,466.4,1052.2,946.6,408.2,0.0,-1.0,-11.0,7861.0,-8632.0,-6718.0,9327.0,-2.0,-10.0,14.0,-3.0,-11.0,3.0,8782.0,-12359.0,-2544.0,5665.0,0.0,-13.0,6.0,1.0
2022-05-08 16:20:17.159430-07:00,624.6,737.3,661.1,899.1,352.2,309.0,915.2,701.1,3474.6,3471.0,1148.0,716.7,536.2,3464.9,1284.6,811.9,3447.9,3433.4,358.4,321.3,321.3,311.3,276.7,258.4,3462.5,3454.0,491.7,391.8,468.7,1049.6,946.6,408.2,9.0,18.0,10.0,7854.0,-8633.0,-6721.0,9329.0,-27.0,2.0,16.0,14.0,8.0,4.0,8777.0,-12363.0,-2546.0,5663.0,-61.0,107.0,-25.0,1.0
2022-05-08 16:20:17.219097-07:00,620.5,737.3,661.1,899.1,355.3,305.1,915.2,701.1,3462.5,3475.9,1148.0,716.7,529.0,3473.4,1284.6,811.9,3447.9,3433.4,354.5,320.5,321.3,311.3,278.3,263.0,3462.5,3454.0,495.6,392.6,468.7,1049.6,950.0,413.7,-36.0,-38.0,4.0,7769.0,-8748.0,-6751.0,9272.0,-452.0,102.0,145.0,-17.0,-50.0,27.0,8725.0,-12458.0,-2500.0,5556.0,-369.0,320.0,66.0,1.0
2022-05-08 16:20:17.249083-07:00,620.5,737.3,670.1,897.4,355.3,309.7,922.8,713.4,3462.5,3475.9,1155.0,716.7,529.0,3471.0,1269.4,807.7,3443.1,3446.7,356.1,320.5,321.3,311.3,278.3,263.0,3455.2,3471.0,493.2,392.6,470.3,1047.8,950.0,413.7,-14.0,111.0,-112.0,7619.0,-8774.0,-6874.0,9281.0,-321.0,-613.0,-12.0,10.0,39.0,41.0,8632.0,-12576.0,-2483.0,5442.0,-362.0,228.0,-146.0,1.0
2022-05-08 16:20:17.309335-07:00,622.2,736.5,670.1,897.4,355.3,309.7,922.8,713.4,3466.1,3473.4,1147.1,716.7,526.6,3471.0,1269.4,807.7,3443.1,3446.7,356.1,320.5,321.3,312.8,277.5,259.2,3455.2,3471.0,493.2,390.3,470.3,1069.5,1113.0,414.5,19.0,1.0,-52.0,7388.0,-8652.0,-7183.0,9349.0,-657.0,-831.0,-150.0,-31.0,-6.0,-50.0,8501.0,-12724.0,-2570.0,5261.0,-830.0,328.0,-275.0,1.0
2022-05-08 16:20:17.370049-07:00,622.2,736.5,670.1,894.1,355.3,323.6,910.1,689.7,3466.1,3473.4,1147.1,715.9,526.6,3468.6,1233.7,807.7,3438.2,3447.9,356.1,320.5,319.0,312.8,277.5,259.2,3462.5,3457.6,496.4,390.3,467.1,1069.5,1113.0,414.5,15.0,-85.0,61.0,7158.0,-8575.0,-7456.0,9385.0,-331.0,-475.0,23.0,-1.0,-37.0,-1.0,8283.0,-12925.0,-2701.0,5049.0,-636.0,202.0,-168.0,1.0
2022-05-08 16:20:17.399572-07:00,631.9,748.8,670.1,894.1,348.3,323.6,910.1,689.7,3478.3,3466.1,1148.0,715.9,533.8,3468.6,1233.7,807.7,3438.2,3447.9,356.1,316.7,319.0,318.2,287.5,256.1,3462.5,3457.6,496.4,395.0,467.1,1020.2,969.6,407.5,-10.0,11.0,50.0,7078.0,-8576.0,-7509.0,9402.0,-196.0,-21.0,52.0,-14.0,-56.0,29.0,8133.0,-13053.0,-2771.0,4925.0,-512.0,167.0,-49.0,1.0
2022-05-08 16:20:17.459702-07:00,631.9,748.8,670.1,898.3,348.3,318.2,911.8,700.3,3478.3,3466.1,1148.0,711.0,533.8,3472.2,1200.0,805.2,3449.1,3438.2,348.3,316.7,322.8,318.2,287.5,256.1,3469.8,3464.9,507.5,395.0,473.5,1020.2,969.6,407.5,-32.0,-33.0,38.0,7013.0,-8641.0,-7570.0,9342.0,-262.0,60.0,37.0,-16.0,-11.0,1.0,7981.0,-13174.0,-2810.0,4826.0,-458.0,147.0,-19.0,1.0
2022-05-08 16:20:17.549185-07:00,635.1,772.8,666.0,898.3,356.8,318.2,911.8,700.3,3467.4,3485.6,1121.7,711.0,530.6,3472.2,1200.0,805.2,3449.1,3438.2,348.3,318.2,322.8,312.8,294.4,257.6,3469.8,3464.9,507.5,388.7,473.5,997.0,885.6,405.9,0.0,10.0,7.0,6995.0,-8704.0,-7593.0,9279.0,-171.0,140.0,-32.0,15.0,7.0,8.0,7892.0,-13247.0,-2821.0,4766.0,-164.0,54.0,-3.0,1.0
2022-05-08 16:20:17.550842-07:00,635.1,772.8,666.0,899.1,356.8,308.2,891.5,696.2,3467.4,3485.6,1121.7,714.2,530.6,3475.9,1196.5,801.9,3450.4,3437.0,355.3,318.2,319.0,312.8,294.4,257.6,3464.9,3466.1,500.4,388.7,473.5,997.0,885.6,405.9,9.0,-21.0,-5.0,7000.0,-8743.0,-7613.0,9221.0,-39.0,101.0,-49.0,3.0,-10.0,-15.0,7848.0,-13284.0,-2825.0,4733.0,-60.0,29.0,-1.0,1.0
2022-05-08 16:20:17.609853-07:00,631.9,781.9,673.3,896.6,353.7,308.2,891.5,696.2,3472.2,3473.4,1118.2,712.6,529.0,3475.9,1196.5,801.9,3450.4,3437.0,355.3,318.2,322.8,319.0,288.2,253.1,3464.9,3466.1,500.4,394.2,470.3,987.6,856.2,412.1,-8.0,-22.0,5.0,7018.0,-8773.0,-7593.0,9196.0,-15.0,106.0,35.0,-7.0,-16.0,4.0,7846.0,-13286.0,-2823.0,4730.0,-7.0,8.0,11.0,1.0
2022-05-08 16:20:17.669817-07:00,631.9,781.9,673.3,896.6,357.6,305.1,894.9,695.4,3472.2,3473.4,1118.2,712.6,530.6,3474.6,1177.9,800.2,3454.0,3456.4,352.2,313.6,322.8,319.0,288.2,253.1,3464.9,3466.1,497.2,390.3,470.3,987.6,856.2,412.1,4.0,0.0,2.0,7005.0,-8804.0,-7585.0,9183.0,-62.0,30.0,44.0,0.0,-6.0,-6.0,7840.0,-13290.0,-2813.0,4735.0,-24.0,12.0,35.0,1.0
2022-05-08 16:20:17.699675-07:00,644.0,758.7,666.8,895.7,357.6,305.1,894.9,695.4,3468.6,3478.3,1108.6,716.7,530.6,3474.6,1177.9,800.2,3454.0,3456.4,352.2,313.6,322.8,314.4,288.2,254.6,3464.9,3466.1,497.2,390.3,471.9,977.3,843.6,412.1,-8.0,0.0,10.0,6995.0,-8837.0,-7566.0,9174.0,-46.0,79.0,67.0,-6.0,-8.0,7.0,7836.0,-13294.0,-2800.0,4741.0,-8.0,13.0,36.0,1.0
2022-05-08 16:20:17.819301-07:00,644.0,758.7,666.8,895.7,353.0,313.6,885.6,692.9,3468.6,3478.3,1108.6,716.7,533.0,3460.1,1175.3,795.2,3437.0,3460.1,353.7,316.7,322.8,314.4,288.2,254.6,3462.5,3455.2,493.2,392.6,471.9,977.3,843.6,412.1,-2.0,27.0,-1.0,6974.0,-8866.0,-7563.0,9165.0,-67.0,-11.0,40.0,4.0,-1.0,2.0,7828.0,-13301.0,-2792.0,4739.0,-31.0,16.0,7.0,1.0
2022-05-08 16:20:17.848765-07:00,639.2,757.1,663.6,891.5,353.0,313.6,885.6,692.9,3477.1,3467.4,1103.4,715.1,533.0,3460.1,1175.3,795.2,3437.0,3460.1,353.7,316.7,321.3,310.5,292.8,258.4,3462.5,3455.2,493.2,392.6,471.9,966.2,838.6,403.5,-1.0,-6.0,1.0,6961.0,-8867.0,-7572.0,9166.0,-2.0,-3.0,-9.0,-5.0,-12.0,0.0,7828.0,-13299.0,-2799.0,4739.0,7.0,-17.0,-23.0,1.0
2022-05-08 16:20:17.879101-07:00,639.2,757.1,663.6,891.5,353.7,306.7,884.8,689.7,3477.1,3467.4,1103.4,715.1,538.6,3473.4,1169.1,797.7,3441.9,3443.1,351.4,314.4,321.3,310.5,292.8,258.4,3463.7,3467.4,495.6,392.6,471.9,966.2,838.6,403.5,-6.0,3.0,5.0,6954.0,-8863.0,-7580.0,9169.0,-43.0,-22.0,12.0,0.0,4.0,1.0,7831.0,-13294.0,-2804.0,4747.0,-17.0,-11.0,-4.0,1.0
2022-05-08 16:20:17.909345-07:00,635.1,754.6,667.6,891.5,353.7,306.7,884.8,689.7,3467.4,3473.4,1108.6,715.9,538.6,3473.4,1169.1,797.7,3441.9,3443.1,351.4,314.4,322.8,315.1,288.2,257.6,3463.7,3467.4,495.6,392.6,468.7,977.3,824.4,402.8,-2.0,-1.0,19.0,6929.0,-8874.0,-7591.0,9168.0,-36.0,1.0,31.0,-6.0,-3.0,6.0,7817.0,-13301.0,-2804.0,4748.0,-12.0,-2.0,15.0,1.0
2022-05-08 16:20:17.969232-07:00,635.1,754.6,667.6,891.5,349.9,305.9,879.7,684.8,3468.6,3473.4,1108.6,715.9,533.0,3466.1,1169.1,792.7,3444.3,3446.7,356.8,315.1,322.8,315.1,288.2,253.8,3458.9,3468.6,496.4,390.3,468.7,977.3,824.4,402.0,3.0,23.0,2.0,6935.0,-8873.0,-7576.0,9176.0,27.0,-3.0,-7.0,5.0,4.0,8.0,7831.0,-13291.0,-2797.0,4758.0,38.0,-5.0,1.0,1.0
2022-05-08 16:20:18.029200-07:00,635.1,760.4,665.2,895.7,349.9,305.9,879.7,690.5,3468.6,3469.8,1095.6,712.6,533.0,3466.1,1169.1,794.4,3449.1,3446.7,356.8,315.1,321.3,315.1,286.7,253.8,3466.1,3468.6,496.4,390.3,471.9,977.3,820.2,402.0,9.0,-9.0,3.0,6930.0,-8874.0,-7594.0,9164.0,-51.0,-13.0,-23.0,4.0,-9.0,-10.0,7820.0,-13299.0,-2806.0,4749.0,-50.0,4.0,-18.0,1.0
2022-05-08 16:20:18.119220-07:00,634.3,760.4,665.2,895.7,352.2,302.0,882.3,690.5,3466.1,3469.8,1095.6,712.6,530.6,3467.4,1170.0,794.4,3449.1,3449.1,355.3,314.4,321.3,315.1,286.7,254.6,3466.1,3458.9,492.5,388.7,471.9,977.3,820.2,404.3,4.0,-5.0,-7.0,6928.0,-8876.0,-7598.0,9161.0,-19.0,-10.0,1.0,4.0,-4.0,-3.0,7815.0,-13300.0,-2813.0,4750.0,-20.0,-15.0,1.0,1.0
2022-05-08 16:20:18.149842-07:00,634.3,762.0,662.7,894.9,352.2,302.0,882.3,691.3,3466.1,3478.3,1105.1,712.6,530.6,3467.4,1170.0,796.9,3445.5,3449.1,355.3,314.4,324.4,315.1,285.9,254.6,3462.5,3458.9,492.5,388.7,458.5,970.5,814.4,404.3,-1.0,-5.0,6.0,6918.0,-8874.0,-7609.0,9162.0,-28.0,-33.0,8.0,-1.0,-4.0,0.0,7807.0,-13301.0,-2820.0,4756.0,-17.0,-21.0,5.0,1.0
2022-05-08 16:20:18.151143-07:00,630.3,762.0,662.7,894.9,351.4,308.2,879.7,691.3,3472.2,3478.3,1105.1,712.6,530.6,3473.4,1168.2,796.9,3445.5,3437.0,353.0,313.6,324.4,315.1,285.9,259.9,3462.5,3464.9,496.4,376.3,458.5,970.5,814.4,405.1,0.0,3.0,17.0,6905.0,-8871.0,-7620.0,9165.0,-35.0,-19.0,0.0,1.0,-10.0,13.0,7802.0,-13301.0,-2825.0,4761.0,-17.0,-12.0,7.0,1.0
2022-05-08 16:20:18.239217-07:00,630.3,751.3,666.8,892.4,351.4,308.2,879.7,686.4,3472.2,3468.6,1096.4,708.5,530.6,3473.4,1168.2,798.5,3438.2,3437.0,353.0,313.6,324.4,311.3,288.2,259.9,3466.1,3464.9,496.4,376.3,467.1,968.8,815.2,405.1,6.0,14.0,21.0,6910.0,-8870.0,-7617.0,9164.0,-5.0,38.0,-14.0,2.0,6.0,6.0,7808.0,-13297.0,-2823.0,4764.0,2.0,12.0,1.0,1.0
2022-05-08 16:20:18.269255-07:00,637.6,748.0,666.8,892.4,354.5,308.2,876.4,686.4,3468.6,3467.4,1096.4,708.5,539.4,3471.0,1164.7,798.5,3438.2,3449.1,354.5,315.1,324.4,311.3,286.7,257.6,3466.1,3454.0,494.0,391.1,467.1,968.8,802.7,405.1,2.0,0.0,4.0,6918.0,-8883.0,-7619.0,9144.0,-35.0,41.0,-13.0,3.0,3.0,2.0,7803.0,-13305.0,-2820.0,4752.0,-34.0,45.0,3.0,1.0
2022-05-08 16:20:18.299155-07:00,637.6,748.0,665.2,903.4,354.5,308.2,874.7,687.2,3468.6,3467.4,1095.6,711.8,539.4,3471.0,1163.0,796.0,3441.9,3454.0,354.5,315.1,320.5,313.6,286.7,257.6,3468.6,3474.6,494.0,391.1,460.8,967.1,802.7,405.1,-6.0,-1.0,-11.0,6923.0,-8897.0,-7623.0,9123.0,-36.0,33.0,-16.0,-11.0,0.0,-3.0,7794.0,-13317.0,-2815.0,4735.0,-31.0,25.0,4.0,1.0
2022-05-08 16:20:18.359163-07:00,633.5,752.9,665.2,903.4,356.1,302.8,874.7,687.2,3473.4,3466.1,1095.6,711.8,532.2,3473.4,1163.0,796.0,3441.9,3454.0,358.4,319.0,320.5,313.6,289.0,253.8,3468.6,3474.6,502.8,392.6,460.8,967.1,806.9,405.1,-7.0,9.0,-14.0,6920.0,-8904.0,-7624.0,9118.0,7.0,-23.0,-5.0,-3.0,10.0,-1.0,7789.0,-13320.0,-2815.0,4735.0,17.0,-24.0,1.0,1.0
2022-05-08 16:20:18.419234-07:00,633.5,752.9,659.5,891.5,356.1,302.8,874.7,692.1,3473.4,3466.1,1105.1,711.0,532.2,3473.4,1151.5,799.4,3441.9,3452.8,358.4,319.0,321.3,315.9,289.0,253.8,3454.0,3458.9,502.8,392.6,467.9,961.1,806.9,405.1,10.0,-6.0,8.0,6913.0,-8895.0,-7635.0,9123.0,-8.0,-39.0,-12.0,9.0,-8.0,0.0,7789.0,-13315.0,-2822.0,4744.0,-4.0,-37.0,-12.0,1.0
2022-05-08 16:20:18.479161-07:00,631.9,751.3,659.5,891.5,355.3,305.9,874.7,692.1,3462.5,3472.2,1105.1,711.0,533.8,3475.9,1151.5,799.4,3441.9,3452.8,356.1,314.4,321.3,315.9,294.4,256.1,3454.0,3458.9,489.3,392.6,467.9,961.1,811.0,403.5,-2.0,-4.0,19.0,6909.0,-8884.0,-7633.0,9139.0,15.0,-25.0,23.0,-6.0,-9.0,10.0,7794.0,-13307.0,-2829.0,4756.0,28.0,-29.0,6.0,1.0
2022-05-08 16:20:18.509314-07:00,631.9,751.3,664.4,899.1,355.3,305.9,874.7,685.6,3462.5,3472.2,1093.8,711.0,533.8,3475.9,1163.0,798.5,3455.2,3447.9,356.1,314.4,324.4,314.4,294.4,256.1,3457.6,3468.6,489.3,392.6,466.4,962.8,811.0,403.5,-9.0,6.0,14.0,6907.0,-8885.0,-7627.0,9144.0,8.0,17.0,2.0,-7.0,-1.0,14.0,7798.0,-13302.0,-2828.0,4765.0,14.0,-5.0,7.0,1.0
2022-05-08 16:20:18.569075-07:00,631.9,752.1,664.4,899.1,353.7,299.0,874.7,685.6,3466.1,3474.6,1093.8,711.0,529.8,3464.9,1163.0,798.5,3455.2,3447.9,354.5,315.9,324.4,314.4,292.1,253.1,3457.6,3468.6,493.2,387.9,466.4,962.8,805.2,401.2,-4.0,4.0,3.0,6914.0,-8887.0,-7622.0,9142.0,-2.0,9.0,-16.0,0.0,3.0,7.0,7802.0,-13298.0,-2826.0,4767.0,6.0,6.0,0.0,1.0
2022-05-08 16:20:18.599797-07:00,631.9,752.1,662.7,900.8,353.7,304.3,873.8,684.8,3466.1,3474.6,1090.3,711.8,529.8,3472.2,1155.0,797.7,3449.1,3444.3,358.4,315.9,317.4,315.1,292.1,253.1,3473.4,3471.0,488.5,387.9,467.9,955.1,805.2,401.2,9.0,5.0,-1.0,6915.0,-8886.0,-7623.0,9141.0,9.0,-9.0,-10.0,11.0,0.0,1.0,7805.0,-13297.0,-2825.0,4768.0,11.0,0.0,-11.0,1.0
2022-05-08 16:20:18.689381-07:00,633.5,752.1,663.6,900.8,352.2,304.3,873.8,684.8,3469.8,3456.4,1092.9,711.8,524.2,3472.2,1155.0,797.7,3449.1,3444.3,358.4,318.2,317.4,315.9,286.7,259.2,3473.4,3471.0,488.5,385.6,467.9,963.7,797.7,396.5,8.0,2.0,-8.0,6920.0,-8876.0,-7628.0,9142.0,15.0,-24.0,-23.0,6.0,3.0,-5.0,7813.0,-13291.0,-2831.0,4769.0,24.0,-21.0,-24.0,1.0
2022-05-08 16:20:18.779183-07:00,633.5,752.1,663.6,905.9,352.2,304.3,873.8,685.6,3469.8,3456.4,1092.9,708.5,524.2,3467.4,1151.5,791.0,3449.1,3441.9,356.8,318.2,323.6,315.9,286.7,259.2,3468.6,3457.6,491.7,385.6,461.6,963.7,797.7,396.5,-19.0,-22.0,7.0,6917.0,-8867.0,-7635.0,9147.0,7.0,-10.0,25.0,-19.0,-14.0,5.0,7813.0,-13286.0,-2840.0,4776.0,9.0,-28.0,4.0,1.0
2022-05-08 16:20:18.780352-07:00,631.9,745.5,666.0,905.9,351.4,304.3,873.8,685.6,3472.2,3452.8,1091.2,708.5,530.6,3467.4,1151.5,791.0,3449.1,3441.9,356.8,315.1,323.6,314.4,280.6,259.2,3468.6,3457.6,491.7,385.6,461.6,954.3,796.0,405.1,2.0,19.0,18.0,6907.0,-8874.0,-7625.0,9155.0,-8.0,15.0,21.0,7.0,-1.0,18.0,7812.0,-13284.0,-2833.0,4789.0,-2.0,-6.0,29.0,1.0
2022-05-08 16:20:18.809328-07:00,631.9,745.5,666.0,899.1,351.4,302.8,874.7,689.7,3472.2,3452.8,1091.2,709.3,530.6,3467.4,1150.6,800.2,3446.7,3438.2,353.0,315.1,324.4,314.4,280.6,259.2,3468.6,3460.1,493.2,385.6,469.5,954.3,796.0,405.1,1.0,12.0,0.0,6910.0,-8871.0,-7629.0,9154.0,6.0,-18.0,-54.0,-1.0,0.0,4.0,7814.0,-13282.0,-2833.0,4789.0,5.0,-2.0,-20.0,1.0
2022-05-08 16:20:18.868736-07:00,634.3,742.2,665.2,899.1,349.9,302.8,874.7,689.7,3468.6,3464.9,1089.5,709.3,531.4,3467.4,1150.6,800.2,3446.7,3438.2,353.0,313.6,324.4,312.8,288.2,256.1,3468.6,3460.1,493.2,387.9,469.5,961.1,793.5,405.9,0.0,-10.0,-6.0,6921.0,-8859.0,-7641.0,9147.0,11.0,-18.0,-20.0,2.0,-12.0,-7.0,7818.0,-13278.0,-2843.0,4788.0,17.0,-16.0,-19.0,1.0
2022-05-08 16:20:19.049000-07:00,634.3,742.2,665.2,895.7,348.3,300.5,870.5,685.6,3468.6,3464.9,1089.5,714.2,530.6,3474.6,1151.5,798.5,3445.5,3451.6,354.5,315.9,319.0,312.8,288.2,256.1,3458.9,3467.4,494.8,384.8,464.0,961.1,793.5,405.9,-6.0,-7.0,-8.0,6921.0,-8851.0,-7646.0,9150.0,-25.0,-39.0,-15.0,-10.0,-3.0,0.0,7825.0,-13270.0,-2852.0,4794.0,-17.0,-15.0,-23.0,1.0
2022-05-08 16:20:19.050276-07:00,634.3,742.2,664.4,900.8,348.3,300.5,870.5,685.6,3473.4,3473.4,1091.2,714.2,530.6,3474.6,1151.5,798.5,3445.5,3451.6,354.5,315.9,317.4,315.9,285.2,257.6,3458.9,3467.4,494.8,384.8,466.4,955.1,796.0,405.9,-1.0,-3.0,20.0,6914.0,-8838.0,-7648.0,9167.0,53.0,-44.0,32.0,2.0,-16.0,7.0,7833.0,-13259.0,-2858.0,4806.0,59.0,-46.0,0.0,1.0
2022-05-08 16:20:19.051412-07:00,634.3,742.2,664.4,900.8,353.0,302.0,872.1,684.8,3473.4,3473.4,1091.2,714.2,533.8,3473.4,1156.8,796.9,3450.4,3440.7,353.7,318.2,317.4,315.9,285.2,257.6,3462.5,3466.1,490.1,384.8,466.4,955.1,796.0,405.9,0.0,7.0,31.0,6911.0,-8828.0,-7643.0,9183.0,2.0,18.0,-1.0,-4.0,-5.0,18.0,7843.0,-13250.0,-2858.0,4816.0,8.0,1.0,2.0,1.0
2022-05-08 16:20:19.053039-07:00,634.3,745.5,663.6,900.8,353.0,302.0,872.1,684.8,3474.6,3467.4,1097.3,712.6,533.8,3473.4,1156.8,796.9,3450.4,3440.7,353.7,318.2,323.6,315.9,286.7,259.2,3462.5,3466.1,490.1,384.8,467.9,950.0,789.4,402.8,1.0,-2.0,13.0,6916.0,-8834.0,-7636.0,9180.0,-9.0,28.0,-6.0,-2.0,-8.0,13.0,7841.0,-13255.0,-2853.0,4809.0,-7.0,25.0,12.0,1.0
2022-05-08 16:20:19.109626-07:00,634.3,745.5,663.6,900.8,353.0,305.1,873.8,683.1,3474.6,3467.4,1097.3,712.6,525.8,3469.8,1153.3,797.7,3444.3,3454.0,359.2,315.1,323.6,315.9,286.7,259.2,3468.6,3463.7,491.7,389.5,467.9,950.0,789.4,402.8,9.0,-1.0,-11.0,6926.0,-8841.0,-7631.0,9169.0,-11.0,28.0,-12.0,3.0,1.0,-8.0,7844.0,-13256.0,-2847.0,4804.0,4.0,14.0,4.0,1.0
2022-05-08 16:20:19.169023-07:00,630.3,743.9,660.3,896.6,353.0,305.1,873.8,683.1,3469.8,3475.9,1098.2,710.1,525.8,3469.8,1153.3,797.7,3444.3,3454.0,359.2,315.1,321.3,315.1,290.5,254.6,3468.6,3463.7,491.7,389.5,468.7,954.3,795.2,401.2,-3.0,-9.0,-17.0,6926.0,-8844.0,-7633.0,9164.0,-13.0,-44.0,14.0,-5.0,0.0,0.0,7844.0,-13255.0,-2848.0,4806.0,3.0,-15.0,0.0,1.0
2022-05-08 16:20:19.198763-07:00,630.3,743.9,660.3,896.6,348.3,313.6,871.3,684.8,3469.8,3475.9,1098.2,710.1,532.2,3473.4,1153.3,796.9,3447.9,3438.2,356.1,319.7,321.3,315.1,290.5,254.6,3472.2,3468.6,483.0,385.6,468.7,954.3,795.2,401.2,-9.0,3.0,9.0,6912.0,-8835.0,-7640.0,9178.0,9.0,-55.0,19.0,-9.0,0.0,4.0,7846.0,-13249.0,-2853.0,4818.0,15.0,-40.0,4.0,1.0
2022-05-08 16:20:19.288941-07:00,631.9,737.3,661.9,896.6,348.3,313.6,871.3,685.6,3475.9,3469.8,1090.3,711.0,532.2,3473.4,1153.3,797.7,3454.0,3438.2,356.1,319.7,320.5,316.7,285.9,253.1,3468.6,3468.6,483.0,385.6,462.4,953.4,786.9,405.1,-3.0,10.0,24.0,6906.0,-8825.0,-7635.0,9196.0,8.0,-6.0,8.0,0.0,0.0,16.0,7855.0,-13238.0,-2855.0,4832.0,25.0,-15.0,4.0,1.0
2022-05-08 16:20:19.319282-07:00,635.1,737.3,661.9,896.6,353.0,303.6,866.3,685.6,3464.9,3469.8,1090.3,711.0,533.0,3472.2,1155.0,797.7,3454.0,3449.1,355.3,314.4,320.5,316.7,285.9,258.4,3468.6,3473.4,488.5,390.3,462.4,953.4,786.9,408.2,4.0,2.0,21.0,6908.0,-8826.0,-7633.0,9196.0,-8.0,35.0,-9.0,3.0,-8.0,17.0,7854.0,-13241.0,-2852.0,4826.0,-12.0,33.0,10.0,1.0
2022-05-08 16:20:19.379325-07:00,635.1,736.5,663.6,903.4,353.0,303.6,866.3,691.3,3464.9,3469.8,1090.3,712.6,533.0,3472.2,1155.0,800.2,3438.2,3449.1,355.3,314.4,318.2,315.1,285.9,258.4,3447.9,3473.4,488.5,390.3,464.8,948.3,786.9,408.2,4.0,0.0,-8.0,6919.0,-8836.0,-7629.0,9181.0,-14.0,45.0,-22.0,-1.0,0.0,-2.0,7854.0,-13247.0,-2846.0,4814.0,-16.0,32.0,8.0,1.0
2022-05-08 16:20:19.439155-07:00,631.9,736.5,663.6,903.4,349.1,299.0,872.1,691.3,3469.8,3469.8,1090.3,712.6,528.2,3467.4,1153.3,800.2,3438.2,3451.6,358.4,312.8,318.2,315.1,285.9,252.3,3447.9,3466.1,490.1,389.5,464.8,948.3,786.9,402.8,-10.0,-13.0,-25.0,6925.0,-8845.0,-7631.0,9165.0,-9.0,2.0,-2.0,-15.0,1.0,-12.0,7850.0,-13251.0,-2845.0,4808.0,-12.0,5.0,2.0,1.0
2022-05-08 16:20:19.440949-07:00,631.9,736.5,667.6,889.0,349.1,299.0,872.1,684.0,3469.8,3466.1,1092.1,710.1,528.2,3467.4,1153.3,799.4,3451.6,3451.6,358.4,312.8,319.7,315.9,287.5,252.3,3464.9,3466.1,490.1,389.5,468.7,952.6,780.3,402.8,-5.0,8.0,-15.0,6919.0,-8845.0,-7632.0,9170.0,25.0,-39.0,13.0,-7.0,5.0,0.0,7853.0,-13247.0,-2847.0,4815.0,34.0,-42.0,0.0,1.0
2022-05-08 16:20:19.499219-07:00,626.2,736.5,667.6,889.0,355.3,301.3,865.4,684.0,3467.4,3466.1,1092.1,710.1,530.6,3475.9,1149.8,799.4,3451.6,3450.4,355.3,313.6,319.7,315.9,287.5,254.6,3464.9,3462.5,484.5,384.8,468.7,952.6,780.3,401.2,-2.0,9.0,14.0,6912.0,-8827.0,-7636.0,9189.0,33.0,-79.0,-14.0,-3.0,-1.0,13.0,7865.0,-13230.0,-2859.0,4835.0,36.0,-45.0,-25.0,1.0
2022-05-08 16:20:19.559441-07:00,626.2,738.9,666.8,898.3,355.3,301.3,865.4,681.5,3467.4,3469.8,1093.8,706.9,530.6,3475.9,1149.8,791.9,3449.1,3450.4,355.3,313.6,319.0,310.5,292.1,254.6,3469.8,3462.5,484.5,384.8,463.2,948.3,781.1,401.2,0.0,14.0,19.0,6909.0,-8802.0,-7648.0,9205.0,-20.0,-47.0,-41.0,4.0,-3.0,18.0,7873.0,-13220.0,-2868.0,4843.0,8.0,-11.0,-21.0,1.0
2022-05-08 16:20:19.589226-07:00,623.8,733.2,666.8,898.3,353.7,302.0,865.4,681.5,3469.8,3468.6,1093.8,706.9,531.4,3469.8,1146.3,791.9,3449.1,3446.7,355.3,316.7,319.0,310.5,286.7,256.9,3469.8,3455.2,486.9,385.6,463.2,948.3,781.1,405.9,3.0,-3.0,10.0,6904.0,-8790.0,-7670.0,9202.0,-42.0,-12.0,-22.0,-2.0,0.0,1.0,7875.0,-13219.0,-2876.0,4839.0,-2.0,12.0,-16.0,1.0
2022-05-08 16:20:19.649294-07:00,623.8,733.2,659.5,894.1,353.7,302.0,869.6,690.5,3469.8,3468.6,1101.7,698.7,531.4,3469.8,1154.2,796.0,3454.0,3451.6,355.3,316.7,321.3,312.8,286.7,256.9,3457.6,3467.4,486.9,385.6,463.2,949.2,781.1,405.9,6.0,-9.0,0.0,6896.0,-8795.0,-7684.0,9192.0,-41.0,-3.0,-5.0,0.0,-6.0,-5.0,7872.0,-13223.0,-2877.0,4832.0,-17.0,13.0,0.0,1.0
2022-05-08 16:20:19.709288-07:00,627.8,729.9,659.5,894.1,355.3,303.6,869.6,690.5,3475.9,3472.2,1101.7,698.7,532.2,3473.4,1154.2,796.0,3454.0,3451.6,348.3,314.4,321.3,312.8,283.6,254.6,3457.6,3467.4,494.0,384.8,463.2,949.2,782.7,387.9,3.0,0.0,-4.0,6890.0,-8798.0,-7690.0,9188.0,-13.0,-21.0,-3.0,0.0,0.0,0.0,7872.0,-13223.0,-2876.0,4831.0,4.0,-3.0,0.0,1.0
2022-05-08 16:20:19.739173-07:00,627.8,729.9,658.7,902.5,355.3,303.6,864.6,688.0,3475.9,3472.2,1104.3,705.2,532.2,3473.4,1157.7,789.4,3439.5,3447.9,348.3,314.4,327.5,308.2,283.6,254.6,3447.9,3464.9,494.0,384.8,466.4,942.4,782.7,387.9,-2.0,-3.0,7.0,6881.0,-8799.0,-7699.0,9186.0,-28.0,-6.0,0.0,-6.0,-2.0,3.0,7869.0,-13225.0,-2877.0,4830.0,-21.0,0.0,1.0,1.0
2022-05-08 16:20:19.829185-07:00,637.6,731.5,658.7,902.5,351.4,302.8,864.6,688.0,3478.3,3468.6,1104.3,705.2,529.8,3457.6,1157.7,789.4,3439.5,3447.9,358.4,316.7,327.5,308.2,286.7,255.3,3447.9,3464.9,486.9,385.6,466.4,942.4,781.9,403.5,4.0,4.0,12.0,6875.0,-8804.0,-7706.0,9181.0,-38.0,4.0,-2.0,1.0,-7.0,6.0,7863.0,-13229.0,-2880.0,4829.0,-24.0,8.0,7.0,1.0
2022-05-08 16:20:19.859217-07:00,637.6,731.5,669.3,902.5,351.4,302.8,862.9,690.5,3478.3,3468.6,1107.8,709.3,529.8,3457.6,1148.9,795.2,3445.5,3447.9,358.4,316.7,323.6,311.3,286.7,255.3,3468.6,3460.1,486.9,385.6,470.3,947.5,781.9,403.5,3.0,1.0,0.0,6878.0,-8810.0,-7704.0,9174.0,0.0,27.0,-3.0,1.0,0.0,1.0,7860.0,-13232.0,-2879.0,4826.0,7.0,6.0,7.0,1.0
2022-05-08 16:20:19.889683-07:00,627.8,735.6,661.9,902.5,353.0,299.0,862.9,690.5,3467.4,3473.4,1104.3,709.3,533.8,3478.3,1148.9,795.2,3445.5,3447.9,351.4,308.2,323.6,315.1,287.5,256.9,3468.6,3460.1,488.5,384.0,470.3,946.6,776.1,399.6,0.0,-7.0,2.0,6877.0,-8821.0,-7706.0,9163.0,-16.0,18.0,7.0,-5.0,-6.0,3.0,7853.0,-13239.0,-2876.0,4819.0,-5.0,13.0,14.0,1.0
2022-05-08 16:20:19.949265-07:00,627.8,735.6,661.9,896.6,353.0,300.5,868.8,685.6,3467.4,3473.4,1104.3,713.4,533.8,3473.4,1150.6,796.9,3450.4,3449.1,356.8,308.2,320.5,315.1,287.5,256.9,3463.7,3468.6,488.5,384.0,467.9,946.6,776.1,399.6,-7.0,2.0,-3.0,6881.0,-8827.0,-7702.0,9157.0,-11.0,18.0,5.0,-8.0,0.0,0.0,7853.0,-13239.0,-2872.0,4821.0,-9.0,8.0,10.0,1.0
2022-05-08 16:20:20.159500-07:00,630.3,727.4,661.1,896.6,353.0,300.5,868.8,685.6,3466.1,3472.2,1102.5,713.4,529.0,3473.4,1150.6,796.9,3450.4,3449.1,356.8,315.9,320.5,315.1,282.1,254.6,3463.7,3468.6,488.5,392.6,467.9,948.3,771.1,404.3,1.0,3.0,-1.0,6878.0,-8829.0,-7705.0,9155.0,3.0,3.0,7.0,-6.0,-2.0,1.0,7851.0,-13240.0,-2872.0,4821.0,5.0,-5.0,-1.0,1.0
2022-05-08 16:20:20.160742-07:00,630.3,727.4,661.1,896.6,353.0,305.9,867.1,687.2,3466.1,3472.2,1102.5,707.7,529.0,3467.4,1147.1,796.9,3439.5,3443.1,352.2,315.9,321.3,315.1,282.1,254.6,3473.4,3466.1,485.3,392.6,461.6,948.3,771.1,404.3,-2.0,-1.0,4.0,6879.0,-8825.0,-7703.0,9160.0,16.0,-20.0,-5.0,-6.0,-3.0,4.0,7853.0,-13237.0,-2875.0,4827.0,14.0,-24.0,-6.0,1.0
2022-05-08 16:20:20.189674-07:00,628.6,731.5,661.1,896.6,346.8,305.9,867.1,687.2,3478.3,3468.6,1104.3,707.7,530.6,3467.4,1147.1,796.9,3439.5,3443.1,352.2,317.4,321.3,315.9,284.4,255.3,3473.4,3466.1,485.3,384.8,461.6,947.5,776.9,408.2,-2.0,2.0,5.0,6882.0,-8813.0,-7699.0,9172.0,33.0,-14.0,6.0,-6.0,-2.0,5.0,7862.0,-13227.0,-2877.0,4837.0,29.0,-20.0,-8.0,1.0
2022-05-08 16:20:20.191165-07:00,628.6,731.5,661.1,900.8,346.8,309.0,873.8,688.0,3478.3,3468.6,1104.3,710.1,530.6,3479.5,1143.6,796.9,3440.7,3443.1,353.0,317.4,322.1,315.9,284.4,255.3,3472.2,3471.0,490.1,384.8,460.8,947.5,776.9,408.2,3.0,7.0,12.0,6886.0,-8809.0,-7698.0,9174.0,-9.0,-4.0,-16.0,0.0,-1.0,9.0,7865.0,-13224.0,-2882.0,4837.0,-15.0,4.0,-14.0,1.0
2022-05-08 16:20:20.219820-07:00,627.0,729.0,659.5,900.8,352.2,309.0,873.8,688.0,3478.3,3471.0,1103.4,710.1,534.6,3479.5,1143.6,796.9,3440.7,3443.1,353.0,312.8,322.1,318.2,285.2,260.7,3472.2,3471.0,490.1,390.3,460.8,948.3,776.1,403.5,7.0,-4.0,15.0,6882.0,-8811.0,-7707.0,9167.0,-46.0,5.0,-10.0,0.0,-5.0,6.0,7854.0,-13233.0,-2885.0,4828.0,-45.0,23.0,-1.0,1.0
2022-05-08 16:20:20.279147-07:00,627.0,729.0,659.5,895.7,351.4,299.0,860.4,688.0,3478.3,3471.0,1103.4,711.8,533.8,3474.6,1141.9,797.7,3447.9,3445.5,356.8,318.2,321.3,318.2,285.2,260.7,3457.6,3474.6,486.9,385.6,464.8,948.3,776.1,403.5,6.0,5.0,-1.0,6890.0,-8818.0,-7701.0,9160.0,27.0,31.0,13.0,0.0,-2.0,6.0,7857.0,-13234.0,-2878.0,4825.0,26.0,11.0,17.0,1.0
2022-05-08 16:20:20.309319-07:00,631.9,732.3,664.4,891.5,351.4,299.0,860.4,688.0,3467.4,3471.0,1099.9,712.6,533.8,3474.6,1141.9,797.7,3447.9,3445.5,356.8,318.2,320.5,315.1,288.2,256.9,3457.6,3474.6,486.9,385.6,464.0,939.0,776.9,402.8,0.0,-1.0,-8.0,6892.0,-8827.0,-7698.0,9152.0,-26.0,14.0,-3.0,-5.0,-4.0,3.0,7852.0,-13239.0,-2874.0,4822.0,-18.0,9.0,8.0,1.0
2022-05-08 16:20:20.339221-07:00,631.9,732.3,664.4,891.5,353.0,303.6,865.4,684.0,3467.4,3471.0,1099.9,712.6,529.8,3475.9,1145.4,796.0,3446.7,3444.3,354.5,314.4,320.5,315.1,288.2,256.9,3457.6,3458.9,493.2,385.6,464.0,939.0,776.9,402.8,-3.0,0.0,-3.0,6889.0,-8830.0,-7699.0,9151.0,1.0,0.0,10.0,-6.0,-1.0,4.0,7851.0,-13240.0,-2874.0,4822.0,-1.0,-5.0,7.0,1.0
2022-05-08 16:20:20.429182-07:00,627.0,723.3,661.9,896.6,353.0,303.6,865.4,684.0,3467.4,3468.6,1101.7,711.0,529.8,3475.9,1145.4,796.0,3446.7,3444.3,354.5,314.4,317.4,311.3,287.5,254.6,3457.6,3458.9,493.2,385.6,461.6,945.8,769.5,400.4,-7.0,3.0,1.0,6887.0,-8829.0,-7700.0,9152.0,-2.0,-6.0,5.0,-8.0,-2.0,9.0,7850.0,-13239.0,-2875.0,4823.0,-1.0,-10.0,5.0,1.0
2022-05-08 16:20:20.459362-07:00,627.0,723.3,661.9,896.6,348.3,299.7,866.3,686.4,3467.4,3468.6,1101.7,711.0,530.6,3461.3,1147.1,797.7,3447.9,3444.3,356.8,315.1,317.4,311.3,287.5,254.6,3478.3,3462.5,483.7,386.4,461.6,945.8,769.5,400.4,-4.0,3.0,8.0,6887.0,-8829.0,-7699.0,9153.0,0.0,-1.0,3.0,-6.0,-2.0,5.0,7849.0,-13239.0,-2876.0,4826.0,2.0,-6.0,0.0,1.0
2022-05-08 16:20:20.489177-07:00,627.0,732.3,661.1,895.7,348.3,299.7,866.3,686.4,3479.5,3466.1,1098.2,712.6,530.6,3461.3,1147.1,797.7,3447.9,3444.3,356.8,315.1,325.1,314.4,285.9,254.6,3478.3,3462.5,483.7,386.4,461.6,946.6,771.1,405.9,-2.0,3.0,1.0,6888.0,-8829.0,-7698.0,9153.0,10.0,-3.0,-1.0,-8.0,-3.0,8.0,7849.0,-13239.0,-2876.0,4826.0,4.0,-3.0,0.0,1.0
2022-05-08 16:20:20.579125-07:00,627.0,732.3,661.1,895.7,348.3,305.9,862.9,688.9,3479.5,3466.1,1098.2,712.6,526.6,3457.6,1141.9,798.5,3440.7,3445.5,356.1,312.0,325.1,314.4,285.9,254.6,3464.9,3467.4,486.9,388.7,461.6,946.6,771.1,405.9,-3.0,-3.0,7.0,6889.0,-8831.0,-7696.0,9152.0,-2.0,12.0,-2.0,-4.0,-7.0,13.0,7848.0,-13240.0,-2877.0,4825.0,3.0,2.0,0.0,1.0
2022-05-08 16:20:20.609379-07:00,631.9,734.0,659.5,894.9,348.3,305.9,862.9,685.6,3468.6,3485.6,1095.6,711.0,526.6,3457.6,1141.9,796.9,3450.4,3445.5,356.1,312.0,324.4,315.1,282.9,257.6,3463.7,3467.4,486.9,388.7,462.4,946.6,772.0,403.5,0.0,-2.0,-1.0,6890.0,-8830.0,-7695.0,9153.0,2.0,5.0,-7.0,0.0,-3.0,4.0,7852.0,-13237.0,-2876.0,4826.0,9.0,-1.0,-4.0,1.0
2022-05-08 16:20:20.639230-07:00,637.6,734.0,659.5,894.9,356.8,302.8,857.9,685.6,3473.4,3485.6,1095.6,711.0,528.2,3461.3,1140.1,796.9,3450.4,3444.3,353.0,314.4,324.4,315.1,282.9,255.3,3463.7,3468.6,486.1,394.2,462.4,946.6,772.0,395.0,-9.0,-29.0,41.0,6894.0,-8827.0,-7691.0,9157.0,4.0,1.0,-7.0,-8.0,-10.0,0.0,7865.0,-13226.0,-2874.0,4836.0,67.0,-24.0,6.0,1.0
2022-05-08 16:20:20.699156-07:00,637.6,724.9,663.6,889.8,356.8,302.8,857.9,687.2,3473.4,3472.2,1101.7,712.6,528.2,3461.3,1140.1,791.0,3443.1,3444.3,353.0,314.4,317.4,315.1,284.4,255.3,3468.6,3468.6,486.1,394.2,464.8,944.9,772.8,395.0,-75.0,-231.0,46.0,6872.0,-8976.0,-7616.0,9090.0,3.0,562.0,439.0,-84.0,-117.0,43.0,7898.0,-13193.0,-2808.0,4911.0,741.0,-289.0,483.0,1.0
2022-05-08 16:20:20.759306-07:00,623.0,724.9,663.6,889.8,352.2,302.0,875.5,687.2,3463.7,3472.2,1101.7,712.6,527.4,3478.3,1152.4,791.0,3443.1,3447.9,353.0,311.3,317.4,315.1,284.4,255.3,3468.6,3467.4,491.7,389.5,464.8,944.9,772.8,406.7,63.0,124.0,-68.0,7090.0,-9084.0,-7031.0,9285.0,1682.0,852.0,802.0,37.0,23.0,-38.0,8250.0,-12875.0,-2558.0,5297.0,1563.0,-617.0,415.0,1.0
2022-05-08 16:20:20.789146-07:00,623.0,731.5,684.0,892.4,352.2,302.0,875.5,733.2,3463.7,3467.4,1163.8,715.9,527.4,3478.3,1152.4,804.4,3447.9,3447.9,353.0,311.3,317.4,318.2,287.5,255.3,3462.5,3467.4,491.7,389.5,462.4,1096.4,1111.2,406.7,-8.0,122.0,-42.0,7305.0,-9107.0,-6615.0,9400.0,276.0,224.0,144.0,9.0,10.0,34.0,8454.0,-12657.0,-2462.0,5541.0,236.0,-262.0,67.0,1.0
2022-05-08 16:20:20.849606-07:00,632.7,731.5,684.0,892.4,359.2,312.0,963.7,733.2,3479.5,3467.4,1163.8,715.9,522.6,3468.6,1326.8,804.4,3447.9,3438.2,355.3,315.1,317.4,318.2,287.5,256.1,3462.5,3460.1,503.6,387.2,462.4,1096.4,1111.2,405.9,11.0,65.0,-3.0,7378.0,-9054.0,-6540.0,9448.0,312.0,-6.0,-64.0,31.0,83.0,-11.0,8521.0,-12569.0,-2482.0,5629.0,192.0,-41.0,-58.0,1.0
2022-05-08 16:20:20.909363-07:00,632.7,757.9,674.2,890.7,359.2,312.0,945.8,721.6,3479.5,3466.1,1153.3,715.9,522.6,3468.6,1342.2,816.0,3441.9,3444.3,355.3,315.1,319.7,315.1,283.6,256.1,3468.6,3463.7,503.6,387.2,471.1,1082.5,1040.1,405.9,7.0,5.0,2.0,7417.0,-9026.0,-6521.0,9457.0,64.0,-33.0,-26.0,3.0,7.0,13.0,8562.0,-12530.0,-2480.0,5655.0,71.0,-75.0,-9.0,1.0
2022-05-08 16:20:20.939162-07:00,631.1,768.7,674.2,890.7,356.1,309.0,945.8,721.6,3479.5,3474.6,1153.3,715.9,533.0,3478.3,1342.2,816.0,3441.9,3444.3,355.3,317.4,319.7,315.1,287.5,256.9,3468.6,3463.7,498.0,385.6,471.1,1082.5,1027.1,420.8,18.0,16.0,-3.0,7427.0,-9009.0,-6535.0,9456.0,-8.0,-14.0,-82.0,13.0,15.0,-11.0,8574.0,-12515.0,-2484.0,5668.0,12.0,-27.0,-19.0,1.0
2022-05-08 16:20:21.030006-07:00,631.1,768.7,670.1,891.5,356.1,309.0,933.9,714.2,3479.5,3474.6,1150.6,712.6,533.0,3478.3,1328.7,813.5,3438.2,3443.1,355.3,317.4,317.4,313.6,287.5,256.9,3457.6,3462.5,498.0,385.6,486.1,1060.8,1027.1,420.8,-2.0,-23.0,8.0,7439.0,-8991.0,-6555.0,9449.0,3.0,-36.0,-34.0,-9.0,-17.0,3.0,8580.0,-12509.0,-2495.0,5668.0,20.0,-29.0,-14.0,1.0
2022-05-08 16:20:21.059503-07:00,625.4,765.3,670.1,891.5,355.3,313.6,933.9,714.2,3468.6,3469.8,1150.6,712.6,532.2,3475.9,1328.7,813.5,3438.2,3443.1,358.4,316.7,317.4,313.6,289.8,253.8,3457.6,3462.5,501.2,384.8,486.1,1060.8,1001.3,431.7,3.0,10.0,7.0,7437.0,-8985.0,-6562.0,9452.0,4.0,3.0,-6.0,-1.0,3.0,-1.0,8582.0,-12502.0,-2498.0,5678.0,13.0,-21.0,11.0,1.0
2022-05-08 16:20:21.089122-07:00,625.4,765.3,665.2,900.0,355.3,313.6,932.2,711.0,3468.6,3469.8,1147.1,708.5,532.2,3475.9,1323.2,815.2,3447.9,3454.0,358.4,316.7,324.4,313.6,289.8,253.8,3471.0,3457.6,501.2,384.8,482.2,1060.8,1001.3,431.7,-3.0,13.0,-9.0,7448.0,-8975.0,-6564.0,9452.0,26.0,-37.0,-44.0,-10.0,1.0,3.0,8588.0,-12494.0,-2501.0,5685.0,13.0,-39.0,-19.0,1.0
2022-05-08 16:20:21.269906-07:00,623.8,758.7,665.2,900.0,351.4,309.0,932.2,711.0,3460.1,3471.0,1147.1,708.5,537.8,3473.4,1323.2,815.2,3447.9,3454.0,357.6,315.9,324.4,313.6,284.4,263.0,3471.0,3457.6,507.5,387.2,482.2,1060.8,997.0,410.6,8.0,-17.0,0.0,7451.0,-8948.0,-6587.0,9459.0,14.0,-60.0,-30.0,-5.0,0.0,-8.0,8591.0,-12487.0,-2517.0,5690.0,7.0,-36.0,-29.0,1.0
2022-05-08 16:20:21.299821-07:00,623.8,758.7,659.5,898.3,351.4,309.0,933.0,708.5,3460.1,3471.0,1146.3,711.0,537.8,3473.4,1313.3,806.0,3443.1,3443.1,357.6,315.9,323.6,315.1,284.4,263.0,3457.6,3464.9,507.5,387.2,486.9,1057.3,997.0,410.6,2.0,-2.0,4.0,7450.0,-8935.0,-6588.0,9471.0,7.0,-54.0,2.0,-4.0,-10.0,16.0,8596.0,-12478.0,-2524.0,5698.0,9.0,-40.0,-5.0,1.0
2022-05-08 16:20:21.300760-07:00,626.2,764.5,661.1,898.3,353.0,309.7,933.0,708.5,3473.4,3471.0,1139.2,711.0,529.0,3463.7,1313.3,806.0,3443.1,3443.1,359.2,319.0,323.6,316.7,280.6,251.5,3457.6,3464.9,500.4,389.5,486.9,1053.0,994.5,419.2,4.0,14.0,7.0,7447.0,-8921.0,-6592.0,9484.0,12.0,-31.0,-4.0,-1.0,-8.0,15.0,8601.0,-12467.0,-2533.0,5710.0,8.0,-13.0,-11.0,1.0
2022-05-08 16:20:21.301930-07:00,626.2,764.5,661.1,891.5,353.0,313.6,923.7,710.1,3473.4,3471.0,1139.2,709.3,529.0,3462.5,1314.2,811.0,3443.1,3454.0,356.8,319.0,315.9,316.7,280.6,251.5,3471.0,3467.4,496.4,389.5,483.7,1053.0,994.5,419.2,-3.0,-2.0,17.0,7445.0,-8918.0,-6594.0,9487.0,2.0,8.0,5.0,-4.0,-10.0,19.0,8604.0,-12465.0,-2534.0,5711.0,-3.0,21.0,4.0,1.0
2022-05-08 16:20:21.359287-07:00,629.5,755.4,661.9,891.5,355.3,313.6,923.7,710.1,3479.5,3468.6,1139.2,709.3,531.4,3462.5,1314.2,811.0,3443.1,3454.0,356.8,320.5,315.9,312.8,280.6,259.9,3471.0,3467.4,496.4,382.5,483.7,1050.4,988.5,416.8,6.0,5.0,4.0,7450.0,-8921.0,-6592.0,9481.0,7.0,24.0,-16.0,-2.0,-2.0,7.0,8606.0,-12467.0,-2530.0,5706.0,5.0,20.0,-3.0,1.0
2022-05-08 16:20:21.389040-07:00,629.5,755.4,661.9,891.5,355.3,307.4,922.8,704.4,3479.5,3468.6,1139.2,710.1,531.4,3468.6,1304.3,809.4,3441.9,3438.2,356.8,320.5,315.9,312.8,280.6,259.9,3457.6,3458.9,499.6,382.5,485.3,1050.4,988.5,416.8,1.0,-8.0,1.0,7458.0,-8919.0,-6597.0,9474.0,-6.0,9.0,-21.0,4.0,-4.0,4.0,8608.0,-12467.0,-2529.0,5701.0,-3.0,5.0,-7.0,1.0
2022-05-08 16:20:21.479262-07:00,631.1,746.3,659.5,891.5,356.1,307.4,922.8,704.4,3474.6,3472.2,1140.1,710.1,531.4,3468.6,1304.3,809.4,3441.9,3438.2,356.8,319.7,315.9,315.1,279.0,256.1,3457.6,3458.9,499.6,389.5,485.3,1046.1,981.6,419.2,2.0,-5.0,8.0,7459.0,-8924.0,-6597.0,9468.0,-15.0,29.0,6.0,-2.0,-10.0,12.0,8607.0,-12471.0,-2524.0,5696.0,-12.0,26.0,13.0,1.0
2022-05-08 16:20:21.509252-07:00,631.1,746.3,659.5,899.1,356.1,308.2,915.2,705.2,3474.6,3472.2,1140.1,708.5,531.4,3464.9,1312.4,815.2,3449.1,3445.5,360.7,319.7,321.3,315.1,279.0,256.1,3462.5,3457.6,501.2,389.5,481.4,1046.1,981.6,419.2,-1.0,12.0,6.0,7463.0,-8935.0,-6590.0,9459.0,-22.0,37.0,-5.0,-2.0,-1.0,11.0,8607.0,-12476.0,-2513.0,5692.0,-16.0,29.0,17.0,1.0
2022-05-08 16:20:21.539108-07:00,624.6,756.3,666.0,897.4,352.2,308.2,915.2,705.2,3462.5,3467.4,1141.0,713.4,534.6,3464.9,1312.4,815.2,3449.1,3445.5,360.7,315.9,318.2,315.1,281.3,258.4,3462.5,3457.6,501.2,389.5,483.0,1047.8,991.9,423.9,-3.0,4.0,4.0,7468.0,-8948.0,-6590.0,9443.0,-20.0,41.0,-15.0,-3.0,0.0,8.0,8604.0,-12485.0,-2499.0,5681.0,-17.0,46.0,14.0,1.0
2022-05-08 16:20:21.749276-07:00,624.6,756.3,666.0,897.4,348.3,305.9,925.4,706.0,3462.5,3467.4,1141.0,713.4,532.2,3466.1,1310.6,814.4,3445.5,3447.9,357.6,316.7,318.2,315.1,281.3,258.4,3464.9,3458.9,497.2,389.5,483.0,1047.8,991.9,423.9,4.0,0.0,-8.0,7473.0,-8958.0,-6589.0,9430.0,1.0,17.0,-6.0,-1.0,0.0,0.0,8601.0,-12493.0,-2489.0,5672.0,7.0,17.0,10.0,1.0
2022-05-08 16:20:21.750962-07:00,629.5,752.9,664.4,899.1,348.3,305.9,925.4,706.0,3463.7,3472.2,1140.1,708.5,532.2,3466.1,1310.6,814.4,3445.5,3447.9,357.6,316.7,324.4,309.7,282.9,256.1,3464.9,3458.9,497.2,389.5,478.2,1050.4,979.9,423.1,0.0,-1.0,-6.0,7477.0,-8963.0,-6588.0,9423.0,-12.0,19.0,-2.0,-6.0,1.0,-4.0,8601.0,-12498.0,-2485.0,5665.0,-7.0,23.0,7.0,1.0
2022-05-08 16:20:21.752004-07:00,629.5,752.9,664.4,899.1,350.6,313.6,923.7,708.5,3463.7,3472.2,1140.1,708.5,530.6,3464.9,1303.4,809.4,3444.3,3454.0,356.1,314.4,324.4,309.7,282.9,256.1,3461.3,3466.1,502.8,384.0,478.2,1050.4,979.9,423.1,0.0,4.0,-3.0,7478.0,-8965.0,-6585.0,9423.0,9.0,-2.0,8.0,-5.0,1.0,2.0,8602.0,-12498.0,-2483.0,5664.0,7.0,-2.0,1.0,1.0
2022-05-08 16:20:21.752944-07:00,631.9,752.9,657.9,894.9,350.6,313.6,923.7,708.5,3472.2,3473.4,1127.0,715.9,530.6,3464.9,1303.4,809.4,3444.3,3454.0,356.1,314.4,324.4,313.6,282.1,256.9,3461.3,3466.1,502.8,384.0,479.8,1049.6,973.1,421.5,-4.0,2.0,-2.0,7476.0,-8961.0,-6587.0,9426.0,10.0,-25.0,-4.0,-11.0,-6.0,9.0,8602.0,-12496.0,-2485.0,5668.0,5.0,-16.0,-14.0,1.0
2022-05-08 16:20:21.809483-07:00,631.9,752.9,657.9,894.9,349.1,309.7,919.4,698.7,3472.2,3473.4,1127.0,715.9,530.6,3464.9,1302.5,815.2,3447.9,3454.0,355.3,318.2,324.4,313.6,282.1,256.9,3467.4,3460.1,498.0,387.2,479.8,1049.6,973.1,421.5,-3.0,-3.0,-1.0,7474.0,-8950.0,-6590.0,9437.0,14.0,-37.0,6.0,-9.0,-10.0,5.0,8605.0,-12487.0,-2497.0,5677.0,6.0,-41.0,-16.0,1.0
2022-05-08 16:20:21.839194-07:00,624.6,749.6,660.3,899.1,349.1,309.7,919.4,698.7,3469.8,3473.4,1141.0,711.0,530.6,3464.9,1302.5,815.2,3447.9,3454.0,355.3,318.2,322.1,315.1,282.1,255.3,3467.4,3460.1,498.0,387.2,478.2,1045.2,966.2,420.8,-3.0,1.0,-7.0,7468.0,-8941.0,-6594.0,9447.0,0.0,-47.0,4.0,-8.0,5.0,-2.0,8603.0,-12481.0,-2507.0,5688.0,-4.0,-54.0,-15.0,1.0
2022-05-08 16:20:21.899245-07:00,625.4,749.6,660.3,899.1,355.3,307.4,920.3,706.0,3473.4,3473.4,1141.0,711.0,531.4,3466.1,1299.0,811.9,3447.9,3454.0,361.5,319.7,322.1,315.1,282.1,255.3,3457.6,3467.4,498.0,386.4,478.2,1045.2,966.2,418.4,-9.0,5.0,2.0,7464.0,-8924.0,-6599.0,9462.0,13.0,-65.0,-4.0,-8.0,-4.0,12.0,8605.0,-12473.0,-2520.0,5699.0,3.0,-50.0,-23.0,1.0
2022-05-08 16:20:21.959281-07:00,625.4,752.1,657.9,896.6,355.3,307.4,920.3,706.0,3473.4,3468.6,1134.0,714.2,531.4,3466.1,1299.0,806.0,3444.3,3454.0,361.5,319.7,319.7,307.4,282.1,255.3,3467.4,3467.4,498.0,386.4,479.0,1041.8,968.8,418.4,2.0,0.0,18.0,7459.0,-8910.0,-6602.0,9477.0,13.0,-19.0,9.0,5.0,-11.0,17.0,8608.0,-12461.0,-2537.0,5713.0,6.0,-25.0,-11.0,1.0
2022-05-08 16:20:21.989135-07:00,627.0,752.1,657.9,896.6,352.2,312.0,923.7,706.0,3473.4,3468.6,1134.0,714.2,528.2,3466.1,1303.4,806.0,3444.3,3457.6,352.2,312.8,319.7,307.4,282.1,257.6,3467.4,3460.1,494.0,385.6,479.0,1041.8,968.8,422.3,11.0,1.0,24.0,7462.0,-8907.0,-6601.0,9478.0,-8.0,20.0,3.0,5.0,-8.0,14.0,8612.0,-12455.0,-2541.0,5716.0,-1.0,20.0,4.0,1.0
2022-05-08 16:20:22.049358-07:00,627.0,746.3,662.7,894.1,352.2,312.0,923.7,709.3,3473.4,3466.1,1133.1,713.4,528.2,3466.1,1303.4,816.0,3443.1,3457.6,352.2,312.8,318.2,315.1,281.3,257.6,3469.8,3460.1,494.0,385.6,473.5,1046.1,963.7,422.3,-2.0,0.0,6.0,7467.0,-8911.0,-6597.0,9474.0,-7.0,26.0,-11.0,-3.0,-7.0,8.0,8617.0,-12455.0,-2537.0,5711.0,-4.0,39.0,11.0,1.0
2022-05-08 16:20:22.109344-07:00,627.8,746.3,662.7,894.1,349.1,308.2,919.4,709.3,3464.9,3466.1,1133.1,713.4,528.2,3467.4,1290.0,816.0,3443.1,3447.9,348.3,311.3,318.2,315.1,281.3,256.1,3469.8,3468.6,498.0,377.8,473.5,1046.1,963.7,416.1,-3.0,0.0,-6.0,7477.0,-8921.0,-6591.0,9460.0,-8.0,55.0,-10.0,-9.0,2.0,1.0,8617.0,-12462.0,-2527.0,5701.0,-12.0,37.0,7.0,1.0
2022-05-08 16:20:22.139096-07:00,627.8,751.3,657.9,905.9,349.1,308.2,919.4,709.3,3464.9,3473.4,1134.9,705.2,528.2,3467.4,1290.0,811.0,3451.6,3447.9,348.3,311.3,316.7,313.6,287.5,256.1,3462.5,3468.6,498.0,377.8,482.2,1041.8,968.8,416.1,0.0,5.0,-10.0,7479.0,-8933.0,-6589.0,9449.0,-24.0,9.0,-9.0,-2.0,1.0,0.0,8613.0,-12471.0,-2519.0,5692.0,-29.0,19.0,6.0,1.0
2022-05-08 16:20:22.199193-07:00,623.0,748.8,657.9,905.9,356.8,305.1,916.9,709.3,3473.4,3468.6,1134.9,705.2,533.0,3472.2,1296.3,811.0,3451.6,3440.7,357.6,315.9,316.7,313.6,281.3,258.4,3462.5,3473.4,492.5,382.5,482.2,1041.8,962.0,423.9,2.0,-2.0,-3.0,7478.0,-8935.0,-6591.0,9447.0,-16.0,10.0,4.0,-5.0,-8.0,-2.0,8606.0,-12476.0,-2521.0,5689.0,-20.0,3.0,5.0,1.0
2022-05-08 16:20:22.379205-07:00,623.0,748.8,656.2,895.7,356.8,305.1,918.6,705.2,3473.4,3468.6,1140.1,711.0,533.0,3472.2,1288.2,813.5,3451.6,3445.5,357.6,315.9,318.2,316.7,281.3,258.4,3450.4,3475.9,492.5,382.5,472.7,1042.6,962.0,423.9,-4.0,6.0,3.0,7476.0,-8943.0,-6592.0,9440.0,-20.0,8.0,7.0,-6.0,1.0,14.0,8600.0,-12480.0,-2523.0,5688.0,-20.0,-2.0,8.0,1.0
2022-05-08 16:20:22.380497-07:00,623.0,746.3,656.2,895.7,348.3,307.4,918.6,705.2,3466.1,3467.4,1140.1,711.0,526.6,3477.1,1288.2,813.5,3451.6,3445.5,356.1,321.3,318.2,316.7,277.5,255.3,3450.4,3475.9,496.4,382.5,472.7,1042.6,965.4,418.4,-1.0,3.0,0.0,7470.0,-8948.0,-6597.0,9436.0,-17.0,9.0,-1.0,-3.0,4.0,1.0,8591.0,-12486.0,-2526.0,5687.0,-23.0,4.0,1.0,1.0
2022-05-08 16:20:22.381435-07:00,623.0,746.3,660.3,896.6,348.3,307.4,933.9,700.3,3466.1,3467.4,1132.2,705.2,526.6,3477.1,1290.9,815.2,3438.2,3451.6,356.1,321.3,319.0,310.5,277.5,255.3,3464.9,3467.4,496.4,382.5,477.4,1039.2,965.4,418.4,4.0,-9.0,2.0,7469.0,-8952.0,-6599.0,9433.0,-2.0,9.0,1.0,0.0,-10.0,0.0,8586.0,-12491.0,-2528.0,5685.0,-14.0,1.0,2.0,1.0
2022-05-08 16:20:22.383080-07:00,644.0,754.6,660.3,896.6,353.7,309.0,933.9,700.3,3462.5,3467.4,1132.2,705.2,529.8,3471.0,1290.9,815.2,3438.2,3451.6,354.5,317.4,319.0,310.5,282.1,253.8,3464.9,3467.4,502.0,385.6,477.4,1039.2,966.2,413.7,-7.0,3.0,4.0,7475.0,-8955.0,-6589.0,9431.0,17.0,14.0,6.0,-6.0,-2.0,8.0,8589.0,-12490.0,-2526.0,5684.0,11.0,12.0,1.0,1.0
2022-05-08 16:20:22.439193-07:00,644.0,754.6,651.4,894.1,353.7,309.0,916.0,715.9,3462.5,3467.4,1127.0,714.2,529.8,3471.0,1285.5,811.9,3454.0,3433.4,354.5,317.4,322.8,313.6,282.1,253.8,3455.2,3455.2,502.0,385.6,472.7,1034.9,966.2,413.7,-3.0,2.0,-1.0,7481.0,-8953.0,-6583.0,9433.0,23.0,5.0,-3.0,-8.0,-1.0,0.0,8592.0,-12487.0,-2524.0,5685.0,18.0,-8.0,-8.0,1.0
2022-05-08 16:20:22.499147-07:00,622.2,744.7,654.6,894.1,348.3,307.4,916.0,715.9,3468.6,3471.0,1130.5,714.2,530.6,3475.9,1285.5,811.9,3454.0,3433.4,355.3,319.7,322.8,311.3,277.5,255.3,3455.2,3455.2,497.2,387.2,472.7,1042.6,958.5,427.0,3.0,1.0,-3.0,7482.0,-8944.0,-6582.0,9441.0,27.0,-32.0,-7.0,-3.0,4.0,-1.0,8600.0,-12481.0,-2526.0,5686.0,21.0,-17.0,-16.0,1.0
2022-05-08 16:20:22.529453-07:00,622.2,744.7,654.6,897.4,348.3,312.0,921.1,709.3,3468.6,3471.0,1130.5,710.1,530.6,3457.6,1283.7,809.4,3458.9,3446.7,356.8,319.7,316.7,311.3,277.5,255.3,3467.4,3468.6,497.2,387.2,478.2,1042.6,958.5,427.0,-2.0,-5.0,6.0,7483.0,-8935.0,-6581.0,9449.0,20.0,-25.0,2.0,-3.0,-10.0,13.0,8608.0,-12473.0,-2531.0,5689.0,19.0,-15.0,-11.0,1.0
2022-05-08 16:20:22.619441-07:00,620.5,748.8,657.0,897.4,352.2,312.0,921.1,709.3,3472.2,3471.0,1133.1,710.1,528.2,3457.6,1283.7,809.4,3458.9,3446.7,356.8,315.9,316.7,314.4,279.8,263.0,3467.4,3468.6,497.2,384.8,478.2,1040.9,952.6,421.5,0.0,7.0,9.0,7486.0,-8927.0,-6578.0,9457.0,1.0,3.0,3.0,0.0,-3.0,17.0,8616.0,-12465.0,-2531.0,5695.0,13.0,0.0,1.0,1.0
2022-05-08 16:20:22.649228-07:00,620.5,748.8,657.0,895.7,352.2,309.0,927.1,703.6,3472.2,3471.0,1133.1,707.7,528.2,3469.8,1273.9,809.4,3454.0,3428.6,355.3,315.9,322.1,314.4,279.8,263.0,3466.1,3456.4,496.4,384.8,477.4,1040.9,952.6,421.5,-4.0,3.0,4.0,7489.0,-8930.0,-6575.0,9454.0,-13.0,33.0,-3.0,-12.0,-5.0,11.0,8617.0,-12465.0,-2527.0,5692.0,-9.0,28.0,11.0,1.0
2022-05-08 16:20:22.679221-07:00,623.8,741.4,658.7,895.7,353.0,309.0,927.1,703.6,3461.3,3468.6,1133.1,707.7,529.8,3469.8,1273.9,809.4,3454.0,3428.6,355.3,318.2,322.1,312.8,279.8,253.8,3466.1,3456.4,496.4,378.6,477.4,1040.1,959.4,420.8,0.0,8.0,-12.0,7490.0,-8938.0,-6574.0,9446.0,-8.0,3.0,-16.0,-6.0,0.0,1.0,8613.0,-12472.0,-2524.0,5685.0,-13.0,19.0,1.0,1.0
2022-05-08 16:20:22.860090-07:00,623.8,741.4,658.7,890.7,353.0,305.9,913.5,706.9,3461.3,3468.6,1133.1,712.6,529.8,3468.6,1269.4,810.2,3451.6,3446.7,357.6,318.2,320.5,312.8,279.8,253.8,3455.2,3462.5,498.0,378.6,471.9,1040.1,959.4,420.8,0.0,-14.0,-4.0,7491.0,-8938.0,-6578.0,9443.0,-4.0,-8.0,2.0,-9.0,-8.0,-1.0,8609.0,-12475.0,-2525.0,5684.0,-5.0,-3.0,-2.0,1.0
2022-05-08 16:20:22.861157-07:00,627.8,749.6,654.6,890.7,355.3,305.9,913.5,706.9,3472.2,3464.9,1132.2,712.6,524.2,3468.6,1269.4,810.2,3451.6,3446.7,357.6,316.7,320.5,311.3,276.0,259.9,3455.2,3462.5,498.0,382.5,471.9,1040.9,961.1,420.0,4.0,0.0,1.0,7483.0,-8936.0,-6578.0,9451.0,6.0,-21.0,18.0,1.0,-6.0,4.0,8608.0,-12472.0,-2530.0,5691.0,-3.0,-18.0,7.0,1.0
2022-05-08 16:20:22.862009-07:00,627.8,749.6,654.6,895.7,351.4,304.3,915.2,702.8,3472.2,3464.9,1132.2,711.8,529.0,3471.0,1281.0,809.4,3441.9,3451.6,353.7,321.3,319.7,311.3,276.0,259.9,3473.4,3471.0,493.2,385.6,471.9,1040.9,961.1,420.0,-6.0,8.0,7.0,7481.0,-8933.0,-6577.0,9456.0,-1.0,-6.0,0.0,-8.0,-1.0,10.0,8609.0,-12468.0,-2532.0,5696.0,-3.0,-7.0,0.0,1.0
2022-05-08 16:20:22.919269-07:00,622.2,744.7,661.9,895.7,351.4,304.3,915.2,702.8,3473.4,3478.3,1133.1,707.7,529.0,3471.0,1281.0,809.4,3441.9,3451.6,353.7,321.3,322.1,316.7,285.2,257.6,3473.4,3471.0,493.2,385.6,475.8,1029.7,951.7,416.8,-2.0,2.0,5.0,7484.0,-8938.0,-6572.0,9452.0,-10.0,24.0,-1.0,0.0,0.0,11.0,8611.0,-12469.0,-2528.0,5693.0,-11.0,23.0,8.0,1.0
2022-05-08 16:20:22.949233-07:00,622.2,744.7,661.9,895.7,344.5,312.0,910.1,703.6,3473.4,3478.3,1133.1,707.7,530.6,3473.4,1274.7,811.9,3443.1,3450.4,358.4,315.9,322.1,316.7,285.2,257.6,3457.6,3460.1,496.4,384.8,475.8,1029.7,951.7,416.8,3.0,4.0,-4.0,7487.0,-8942.0,-6569.0,9449.0,5.0,13.0,-6.0,-2.0,3.0,-3.0,8611.0,-12471.0,-2524.0,5690.0,-3.0,9.0,-2.0,1.0
2022-05-08 16:20:23.009379-07:00,626.2,742.2,653.8,895.7,344.5,312.0,910.1,703.6,3473.4,3471.0,1129.6,711.0,530.6,3473.4,1274.7,811.9,3443.1,3450.4,358.4,315.9,324.4,309.7,281.3,256.1,3457.6,3460.1,496.4,384.8,469.5,1026.3,953.4,421.5,-1.0,-7.0,-3.0,7488.0,-8945.0,-6566.0,9447.0,6.0,13.0,14.0,-7.0,-7.0,1.0,8611.0,-12472.0,-2524.0,5691.0,-2.0,5.0,10.0,1.0
2022-05-08 16:20:23.039518-07:00,626.2,742.2,653.8,895.7,351.4,306.7,913.5,706.0,3473.4,3471.0,1129.6,711.0,529.8,3466.1,1274.7,810.2,3449.1,3447.9,357.6,319.0,324.4,309.7,281.3,256.1,3457.6,3457.6,498.0,389.5,469.5,1026.3,953.4,421.5,0.0,8.0,1.0,7484.0,-8947.0,-6563.0,9450.0,4.0,-8.0,12.0,-5.0,0.0,0.0,8609.0,-12471.0,-2524.0,5695.0,3.0,-11.0,2.0,1.0
2022-05-08 16:20:23.099176-07:00,624.6,746.3,653.8,898.3,351.4,306.7,913.5,706.0,3478.3,3463.7,1129.6,712.6,529.8,3466.1,1274.7,810.2,3449.1,3447.9,357.6,319.0,321.3,312.0,274.4,259.9,3457.6,3457.6,498.0,389.5,474.3,1037.5,951.7,422.3,-1.0,4.0,7.0,7484.0,-8947.0,-6563.0,9450.0,10.0,-12.0,-8.0,0.0,0.0,9.0,8609.0,-12470.0,-2524.0,5696.0,-2.0,2.0,-7.0,1.0
2022-05-08 16:20:23.129519-07:00,623.0,746.3,653.8,898.3,349.1,309.7,915.2,704.4,3461.3,3463.7,1129.6,712.6,529.8,3462.5,1274.7,806.9,3450.4,3458.9,360.0,315.9,321.3,312.0,274.4,254.6,3469.8,3469.8,495.6,391.1,474.3,1037.5,951.7,421.5,2.0,-1.0,6.0,7485.0,-8948.0,-6561.0,9450.0,-10.0,23.0,5.0,-2.0,-3.0,5.0,8609.0,-12470.0,-2524.0,5695.0,-14.0,20.0,14.0,1.0
2022-05-08 16:20:23.279202-07:00,623.0,752.1,658.7,897.4,349.1,309.7,915.2,700.3,3461.3,3467.4,1128.7,711.8,529.8,3462.5,1274.7,809.4,3445.5,3458.9,360.0,315.9,319.0,315.1,274.4,254.6,3462.5,3469.8,495.6,391.1,474.3,1030.6,952.6,421.5,-4.0,4.0,-11.0,7486.0,-8960.0,-6560.0,9438.0,-16.0,22.0,0.0,-13.0,1.0,2.0,8602.0,-12480.0,-2517.0,5689.0,-11.0,9.0,11.0,1.0
2022-05-08 16:20:23.281090-07:00,627.8,752.1,658.7,897.4,355.3,309.7,918.6,700.3,3469.8,3467.4,1128.7,711.8,533.0,3467.4,1273.0,809.4,3445.5,3444.3,351.4,319.0,319.0,315.1,274.4,259.2,3462.5,3469.8,494.0,384.0,474.3,1030.6,952.6,416.8,-6.0,-2.0,-13.0,7486.0,-8965.0,-6559.0,9434.0,-11.0,-7.0,7.0,-14.0,-1.0,-3.0,8597.0,-12483.0,-2517.0,5689.0,-8.0,-12.0,7.0,1.0
2022-05-08 16:20:23.281957-07:00,627.8,747.2,660.3,903.4,355.3,309.7,918.6,703.6,3469.8,3471.0,1130.5,704.4,533.0,3467.4,1273.0,812.7,3438.2,3444.3,351.4,319.0,321.3,309.7,279.0,259.2,3458.9,3469.8,494.0,384.0,467.1,1028.8,947.5,416.8,6.0,2.0,6.0,7484.0,-8966.0,-6558.0,9435.0,8.0,3.0,4.0,5.0,-3.0,7.0,8595.0,-12482.0,-2520.0,5692.0,6.0,-13.0,-4.0,1.0
2022-05-08 16:20:23.489774-07:00,621.4,747.2,660.3,903.4,352.2,303.6,910.1,703.6,3468.6,3471.0,1130.5,704.4,538.6,3473.4,1270.3,812.7,3438.2,3437.0,353.7,316.7,321.3,309.7,279.0,254.6,3458.9,3455.2,486.1,385.6,467.1,1028.8,947.5,419.2,2.0,1.0,10.0,7486.0,-8966.0,-6559.0,9434.0,15.0,5.0,-9.0,0.0,-3.0,14.0,8594.0,-12483.0,-2523.0,5692.0,-3.0,6.0,-11.0,1.0
2022-05-08 16:20:23.519258-07:00,621.4,744.7,658.7,896.6,352.2,303.6,910.1,703.6,3468.6,3479.5,1128.7,709.3,538.6,3473.4,1270.3,802.7,3443.1,3437.0,353.7,316.7,319.7,312.8,281.3,254.6,3463.7,3455.2,486.1,385.6,474.3,1030.6,951.7,419.2,18.0,1.0,7.0,7492.0,-8962.0,-6558.0,9433.0,16.0,42.0,-5.0,4.0,4.0,-11.0,8593.0,-12488.0,-2524.0,5680.0,-34.0,111.0,-21.0,1.0
2022-05-08 16:20:23.522411-07:00,626.2,744.7,658.7,896.6,355.3,307.4,913.5,703.6,3467.4,3479.5,1128.7,709.3,524.2,3479.5,1274.7,802.7,3443.1,3443.1,360.7,321.3,319.7,312.8,281.3,257.6,3463.7,3469.8,496.4,387.2,474.3,1030.6,951.7,418.4,11.0,11.0,-44.0,7495.0,-9018.0,-6544.0,9386.0,-283.0,158.0,63.0,-2.0,-17.0,42.0,8566.0,-12551.0,-2502.0,5591.0,-329.0,301.0,-29.0,1.0
2022-05-08 16:20:23.523380-07:00,626.2,751.3,657.9,896.6,355.3,307.4,911.8,706.9,3467.4,3463.7,1131.4,711.8,524.2,3479.5,1233.7,804.4,3444.3,3449.1,360.7,321.3,319.7,315.9,279.0,257.6,3466.1,3461.3,496.4,387.2,498.8,1033.2,997.9,418.4,-3.0,148.0,-65.0,7438.0,-9001.0,-6621.0,9395.0,-86.0,-594.0,-260.0,2.0,76.0,23.0,8504.0,-12634.0,-2519.0,5491.0,-170.0,143.0,-137.0,1.0
2022-05-08 16:20:23.549293-07:00,620.5,755.4,657.9,896.6,353.0,304.3,911.8,706.9,3468.6,3474.6,1131.4,711.8,531.4,3478.3,1233.7,804.4,3444.3,3449.1,360.0,318.2,319.7,315.9,294.4,258.4,3466.1,3461.3,493.2,388.7,498.8,1033.2,1067.7,412.1,15.0,-63.0,-18.0,7365.0,-8820.0,-6876.0,9440.0,-177.0,-634.0,-331.0,-33.0,-14.0,-31.0,8426.0,-12727.0,-2620.0,5346.0,-410.0,179.0,-297.0,1.0
2022-05-08 16:20:23.579391-07:00,620.5,755.4,665.2,898.3,353.0,304.3,909.3,705.2,3468.6,3474.6,1125.2,708.5,531.4,3478.3,1201.8,793.5,3445.5,3449.1,360.0,318.2,319.7,315.1,294.4,258.4,3458.9,3467.4,493.2,388.7,499.6,1011.6,1067.7,412.1,-11.0,-86.0,100.0,7292.0,-8707.0,-7067.0,9460.0,-312.0,-155.0,-67.0,-22.0,-64.0,21.0,8287.0,-12866.0,-2727.0,5176.0,-694.0,264.0,-173.0,1.0
2022-05-08 16:20:23.669177-07:00,635.1,757.9,665.2,898.3,348.3,312.0,909.3,705.2,3468.6,3472.2,1125.2,708.5,531.4,3467.4,1201.8,793.5,3445.5,3449.1,356.1,317.4,319.7,315.1,300.5,251.5,3458.9,3467.4,496.4,395.0,499.6,1011.6,889.8,427.8,28.0,12.0,57.0,7213.0,-8726.0,-7146.0,9444.0,-75.0,51.0,3.0,-4.0,10.0,4.0,8159.0,-12986.0,-2771.0,5056.0,-364.0,176.0,-56.0,1.0
2022-05-08 16:20:23.699959-07:00,635.1,757.9,658.7,896.6,348.3,312.0,910.1,698.7,3468.6,3472.2,1105.1,720.8,531.4,3467.4,1191.2,800.2,3441.9,3449.1,356.1,317.4,315.9,312.8,300.5,251.5,3463.7,3471.0,496.4,395.0,497.2,986.7,889.8,427.8,-10.0,-27.0,28.0,7217.0,-8762.0,-7149.0,9406.0,-66.0,142.0,10.0,-22.0,-30.0,-15.0,8069.0,-13071.0,-2791.0,4968.0,-255.0,147.0,-15.0,1.0
2022-05-08 16:20:23.729588-07:00,642.4,781.1,658.7,896.6,353.0,313.6,910.1,698.7,3464.9,3466.1,1105.1,720.8,531.4,3466.1,1191.2,800.2,3441.9,3449.1,354.5,321.3,315.9,312.8,299.0,256.9,3463.7,3471.0,500.4,398.9,497.2,986.7,850.3,411.4,-4.0,11.0,0.0,7254.0,-8826.0,-7117.0,9341.0,11.0,283.0,-38.0,1.0,11.0,8.0,8018.0,-13122.0,-2787.0,4919.0,-95.0,83.0,17.0,1.0
2022-05-08 16:20:23.969129-07:00,642.4,781.1,660.3,900.8,353.0,310.5,906.7,701.1,3464.9,3466.1,1093.8,713.4,531.4,3467.4,1180.6,798.5,3447.9,3450.4,354.5,321.3,319.7,312.8,299.0,256.9,3464.9,3462.5,490.9,398.9,496.4,976.5,850.3,411.4,-39.0,20.0,-46.0,7322.0,-8883.0,-7077.0,9264.0,-8.0,133.0,-95.0,-15.0,17.0,11.0,7997.0,-13145.0,-2781.0,4896.0,-34.0,39.0,5.0,1.0
2022-05-08 16:20:23.971898-07:00,643.2,788.6,661.9,900.8,353.0,310.5,906.7,701.1,3466.1,3472.2,1085.1,713.4,529.0,3467.4,1180.6,798.5,3447.9,3450.4,354.5,315.9,319.7,311.3,297.4,255.3,3464.9,3462.5,490.9,395.7,496.4,970.5,829.4,415.3,0.0,-22.0,-29.0,7342.0,-8884.0,-7101.0,9229.0,-68.0,-5.0,-71.0,-18.0,0.0,-23.0,7980.0,-13159.0,-2788.0,4882.0,-72.0,6.0,-18.0,1.0
2022-05-08 16:20:23.973167-07:00,643.2,788.6,661.9,897.4,353.0,307.4,920.3,699.5,3466.1,3472.2,1085.1,725.8,529.0,3468.6,1168.2,797.7,3447.9,3450.4,353.0,315.9,322.1,311.3,297.4,255.3,3464.9,3472.2,494.0,395.7,494.0,970.5,829.4,415.3,-5.0,-17.0,1.0,7345.0,-8885.0,-7109.0,9221.0,12.0,8.0,48.0,-10.0,-13.0,0.0,7976.0,-13158.0,-2795.0,4886.0,24.0,-26.0,13.0,1.0
2022-05-08 16:20:23.974436-07:00,644.9,796.9,660.3,897.4,348.3,307.4,920.3,699.5,3485.6,3464.9,1082.5,725.8,529.8,3468.6,1168.2,797.7,3447.9,3450.4,353.0,313.6,322.1,310.5,295.9,255.3,3464.9,3472.2,494.0,391.8,494.0,956.0,818.5,409.0,-13.0,32.0,7.0,7339.0,-8886.0,-7096.0,9233.0,23.0,-43.0,2.0,-3.0,10.0,28.0,7987.0,-13146.0,-2793.0,4902.0,49.0,-23.0,6.0,1.0
2022-05-08 16:20:24.059318-07:00,644.9,796.9,660.3,899.1,348.3,308.2,907.6,690.5,3485.6,3464.9,1082.5,717.5,529.8,3473.4,1160.3,799.4,3449.1,3444.3,359.2,313.6,324.4,310.5,295.9,255.3,3461.3,3455.2,496.4,391.8,492.5,956.0,818.5,409.0,2.0,-14.0,21.0,7344.0,-8873.0,-7105.0,9236.0,-23.0,54.0,-34.0,-8.0,4.0,-6.0,7993.0,-13141.0,-2796.0,4904.0,-22.0,9.0,-16.0,1.0
2022-05-08 16:20:24.060623-07:00,646.5,786.9,657.9,899.1,352.2,308.2,907.6,690.5,3468.6,3471.0,1081.6,717.5,533.0,3473.4,1160.3,799.4,3449.1,3444.3,359.2,318.2,324.4,312.8,295.9,263.0,3461.3,3455.2,496.4,388.7,492.5,956.0,816.9,404.3,3.0,8.0,-4.0,7359.0,-8883.0,-7095.0,9222.0,34.0,41.0,5.0,-1.0,-7.0,3.0,8001.0,-13137.0,-2789.0,4905.0,61.0,-6.0,20.0,1.0
2022-05-08 16:20:24.089241-07:00,646.5,786.9,657.9,895.7,349.1,306.7,895.7,692.1,3468.6,3471.0,1081.6,711.8,535.4,3466.1,1158.6,801.9,3451.6,3438.2,357.6,316.7,322.1,312.8,295.9,263.0,3467.4,3468.6,492.5,395.7,489.3,956.0,816.9,404.3,-3.0,-2.0,-13.0,7364.0,-8884.0,-7092.0,9218.0,-18.0,-19.0,-22.0,-7.0,-2.0,-4.0,8007.0,-13133.0,-2786.0,4907.0,-4.0,3.0,-10.0,1.0
2022-05-08 16:20:24.209290-07:00,644.0,771.1,653.8,901.7,349.1,306.7,895.7,692.1,3468.6,3468.6,1066.9,713.4,535.4,3466.1,1158.6,801.9,3451.6,3438.2,357.6,316.7,320.5,312.0,292.8,257.6,3467.4,3468.6,492.5,395.7,493.2,955.1,813.5,410.6,-12.0,3.0,-10.0,7361.0,-8878.0,-7099.0,9221.0,15.0,-34.0,-5.0,-11.0,-5.0,6.0,8013.0,-13127.0,-2787.0,4914.0,34.0,-29.0,-5.0,1.0
2022-05-08 16:20:24.210520-07:00,644.0,771.1,653.8,901.7,353.7,305.9,902.5,692.1,3468.6,3468.6,1066.9,713.4,530.6,3472.2,1162.1,801.9,3451.6,3443.1,358.4,311.3,320.5,312.0,292.8,257.6,3463.7,3468.6,498.0,389.5,493.2,955.1,813.5,410.6,1.0,4.0,3.0,7359.0,-8865.0,-7109.0,9228.0,13.0,-30.0,-13.0,-3.0,6.0,1.0,8018.0,-13119.0,-2794.0,4922.0,9.0,-20.0,-17.0,1.0
2022-05-08 16:20:24.269215-07:00,647.3,775.3,659.5,890.7,353.7,305.9,902.5,692.1,3475.9,3468.6,1067.7,715.1,530.6,3472.2,1162.1,801.9,3451.6,3443.1,358.4,311.3,315.1,312.0,297.4,256.9,3463.7,3468.6,498.0,389.5,489.3,967.1,804.4,411.4,0.0,1.0,15.0,7359.0,-8863.0,-7109.0,9229.0,2.0,8.0,4.0,-3.0,-5.0,8.0,8018.0,-13119.0,-2796.0,4922.0,17.0,-5.0,7.0,1.0
2022-05-08 16:20:24.299209-07:00,647.3,775.3,659.5,890.7,348.3,314.4,899.1,691.3,3475.9,3468.6,1067.7,715.1,529.0,3464.9,1157.7,799.4,3443.1,3443.1,360.0,313.6,315.1,312.0,297.4,256.9,3460.1,3475.9,486.1,393.4,489.3,967.1,804.4,411.4,-4.0,5.0,1.0,7367.0,-8868.0,-7102.0,9223.0,-7.0,35.0,-10.0,-1.0,-3.0,11.0,8020.0,-13119.0,-2794.0,4920.0,-13.0,16.0,7.0,1.0
2022-05-08 16:20:24.329843-07:00,643.2,776.9,656.2,895.7,348.3,314.4,899.1,691.3,3466.1,3463.7,1068.6,714.2,529.0,3464.9,1157.7,799.4,3443.1,3443.1,360.0,313.6,320.5,305.1,292.8,259.9,3460.1,3475.9,486.1,393.4,484.5,953.4,803.5,408.2,1.0,3.0,-9.0,7367.0,-8876.0,-7108.0,9212.0,-31.0,-3.0,-15.0,-9.0,5.0,0.0,8018.0,-13123.0,-2792.0,4915.0,-13.0,5.0,6.0,1.0
2022-05-08 16:20:24.389277-07:00,643.2,776.9,656.2,895.7,351.4,312.0,889.8,692.9,3466.1,3463.7,1068.6,714.2,532.2,3469.8,1151.5,797.7,3445.5,3443.1,353.0,318.2,320.5,305.1,292.8,259.9,3463.7,3464.9,488.5,391.8,484.5,953.4,803.5,408.2,-15.0,-11.0,-4.0,7371.0,-8882.0,-7106.0,9204.0,17.0,36.0,16.0,-14.0,-8.0,5.0,8015.0,-13124.0,-2792.0,4915.0,20.0,-8.0,16.0,1.0
2022-05-08 16:20:24.449208-07:00,643.2,773.6,657.0,899.1,351.4,312.0,889.8,693.8,3462.5,3462.5,1070.3,711.8,532.2,3469.8,1151.5,801.9,3446.7,3443.1,353.0,318.2,314.4,312.0,298.2,256.1,3461.3,3464.9,488.5,391.8,483.0,946.6,796.9,406.7,-2.0,12.0,3.0,7372.0,-8888.0,-7100.0,9202.0,-8.0,4.0,-3.0,0.0,2.0,12.0,8016.0,-13123.0,-2788.0,4919.0,4.0,1.0,4.0,1.0
2022-05-08 16:20:24.479181-07:00,640.8,773.6,657.0,899.1,353.7,309.0,891.5,693.8,3468.6,3462.5,1070.3,711.8,533.0,3467.4,1158.6,801.9,3446.7,3445.5,360.0,319.7,314.4,312.0,298.2,254.6,3461.3,3467.4,490.1,389.5,483.0,946.6,796.9,409.8,-7.0,0.0,-1.0,7375.0,-8886.0,-7106.0,9197.0,-25.0,9.0,-26.0,-9.0,1.0,10.0,8016.0,-13123.0,-2788.0,4919.0,-13.0,6.0,0.0,1.0
2022-05-08 16:20:24.569209-07:00,640.8,765.3,658.7,899.1,353.7,309.0,891.5,698.7,3468.6,3475.9,1072.9,710.1,533.0,3467.4,1158.6,797.7,3433.4,3445.5,360.0,319.7,324.4,310.5,295.1,254.6,3455.2,3467.4,490.1,389.5,483.7,947.5,793.5,409.8,0.0,-11.0,0.0,7376.0,-8890.0,-7111.0,9188.0,-6.0,24.0,5.0,-1.0,-8.0,3.0,8012.0,-13125.0,-2789.0,4919.0,5.0,-7.0,5.0,1.0
2022-05-08 16:20:24.571306-07:00,639.2,765.3,658.7,899.1,349.1,305.1,891.5,698.7,3462.5,3475.9,1072.9,710.1,529.8,3460.1,1153.3,797.7,3433.4,3458.9,360.7,311.3,324.4,310.5,295.1,251.5,3455.2,3463.7,490.9,393.4,483.7,947.5,793.5,409.0,1.0,7.0,-5.0,7374.0,-8892.0,-7109.0,9191.0,-6.0,-18.0,1.0,-2.0,2.0,1.0,8014.0,-13122.0,-2790.0,4923.0,6.0,-11.0,-2.0,1.0
2022-05-08 16:20:24.659319-07:00,639.2,772.8,653.0,894.9,349.1,305.1,891.5,689.7,3462.5,3468.6,1070.3,710.1,529.8,3460.1,1153.3,798.5,3447.9,3458.9,360.7,311.3,315.9,310.5,291.3,251.5,3457.6,3463.7,490.9,393.4,485.3,946.6,783.6,409.0,-5.0,0.0,-2.0,7372.0,-8886.0,-7112.0,9195.0,5.0,-10.0,-9.0,-11.0,0.0,-7.0,8015.0,-13119.0,-2796.0,4927.0,5.0,-19.0,-12.0,1.0
2022-05-08 16:20:24.689260-07:00,641.6,772.8,653.0,894.9,347.6,311.3,883.1,689.7,3467.4,3468.6,1070.3,710.1,526.6,3461.3,1148.9,798.5,3447.9,3440.7,356.8,313.6,315.9,310.5,291.3,257.6,3457.6,3464.9,492.5,394.2,485.3,946.6,783.6,403.5,-9.0,7.0,5.0,7374.0,-8886.0,-7109.0,9195.0,14.0,19.0,13.0,-10.0,-6.0,16.0,8013.0,-13117.0,-2803.0,4929.0,4.0,-10.0,-1.0,1.0
2022-05-08 16:20:24.719135-07:00,641.6,762.9,653.0,900.8,347.6,311.3,894.1,686.4,3467.4,3467.4,1066.9,708.5,526.6,3461.3,1145.4,797.7,3444.3,3444.3,356.8,313.6,317.4,309.7,296.7,257.6,3462.5,3462.5,492.5,394.2,477.4,948.3,790.2,403.5,2.0,3.0,0.0,7375.0,-8888.0,-7107.0,9195.0,4.0,13.0,-7.0,-4.0,-1.0,5.0,8015.0,-13116.0,-2805.0,4930.0,0.0,-2.0,-13.0,1.0
2022-05-08 16:20:24.810000-07:00,649.7,771.1,653.0,900.8,356.8,308.2,894.1,686.4,3462.5,3461.3,1066.9,708.5,527.4,3464.9,1145.4,797.7,3444.3,3444.3,352.2,313.6,317.4,309.7,291.3,257.6,3462.5,3462.5,486.1,392.6,477.4,948.3,782.7,401.2,-6.0,-2.0,0.0,7381.0,-8887.0,-7103.0,9194.0,11.0,1.0,-1.0,-5.0,-8.0,9.0,8020.0,-13113.0,-2807.0,4928.0,11.0,1.0,-7.0,1.0
2022-05-08 16:20:24.899296-07:00,649.7,771.1,657.0,895.7,356.8,308.2,887.3,690.5,3462.5,3461.3,1066.0,716.7,527.4,3464.9,1143.6,800.2,3445.5,3433.4,352.2,313.6,321.3,312.0,291.3,257.6,3464.9,3454.0,486.1,392.6,485.3,945.8,782.7,401.2,-6.0,6.0,0.0,7388.0,-8884.0,-7096.0,9197.0,21.0,35.0,-1.0,-12.0,3.0,7.0,8031.0,-13106.0,-2803.0,4930.0,24.0,10.0,-1.0,1.0
2022-05-08 16:20:24.900594-07:00,635.9,761.2,657.0,895.7,353.0,306.7,887.3,690.5,3467.4,3468.6,1066.0,716.7,534.6,3468.6,1143.6,800.2,3445.5,3433.4,354.5,312.8,321.3,312.0,295.1,256.9,3464.9,3454.0,489.3,384.0,485.3,945.8,787.7,405.9,-10.0,1.0,-6.0,7393.0,-8888.0,-7090.0,9193.0,23.0,31.0,0.0,-6.0,-1.0,11.0,8036.0,-13105.0,-2799.0,4927.0,21.0,7.0,-3.0,1.0
2022-05-08 16:20:24.989202-07:00,635.9,761.2,657.9,891.5,353.0,306.7,889.8,686.4,3467.4,3468.6,1062.5,708.5,534.6,3468.6,1148.0,797.7,3449.1,3447.9,354.5,312.8,321.3,312.0,295.1,256.9,3458.9,3468.6,489.3,384.0,481.4,940.7,787.7,405.9,4.0,3.0,-4.0,7395.0,-8884.0,-7087.0,9198.0,16.0,-2.0,1.0,-6.0,4.0,-4.0,8044.0,-13100.0,-2796.0,4929.0,14.0,-9.0,-2.0,1.0
2022-05-08 16:20:24.991132-07:00,636.7,761.2,657.9,891.5,347.6,307.4,889.8,686.4,3472.2,3473.4,1062.5,708.5,529.8,3473.4,1148.0,797.7,3449.1,3447.9,353.7,311.3,321.3,312.0,292.8,254.6,3458.9,3468.6,488.5,386.4,481.4,940.7,782.7,401.2,-1.0,4.0,3.0,7398.0,-8885.0,-7081.0,9199.0,19.0,-15.0,14.0,-8.0,0.0,6.0,8048.0,-13097.0,-2795.0,4932.0,25.0,-15.0,0.0,1.0
2022-05-08 16:20:25.019274-07:00,636.7,761.2,653.8,893.2,347.6,306.7,884.8,695.4,3472.2,3473.4,1063.4,712.6,529.8,3457.6,1144.5,794.4,3432.2,3446.7,353.7,311.3,321.3,311.3,292.8,254.6,3458.9,3463.7,488.5,386.4,481.4,939.8,782.7,401.2,-2.0,2.0,9.0,7396.0,-8883.0,-7078.0,9205.0,-15.0,-21.0,-4.0,-8.0,5.0,8.0,8053.0,-13092.0,-2795.0,4936.0,-3.0,0.0,-1.0,1.0
2022-05-08 16:20:25.079808-07:00,643.2,753.8,653.8,893.2,347.6,306.7,884.8,695.4,3472.2,3457.6,1064.3,712.6,529.0,3457.6,1144.5,794.4,3432.2,3446.7,353.7,310.5,321.3,311.3,293.6,258.4,3458.9,3463.7,488.5,391.8,481.4,943.2,788.6,404.3,-12.0,0.0,3.0,7400.0,-8886.0,-7074.0,9201.0,-7.0,30.0,4.0,-26.0,0.0,6.0,8055.0,-13090.0,-2790.0,4941.0,8.0,0.0,19.0,1.0
2022-05-08 16:20:25.229989-07:00,643.2,753.8,653.8,897.4,347.6,302.8,893.2,692.9,3472.2,3457.6,1064.3,711.8,529.0,3478.3,1139.2,802.7,3446.7,3440.7,354.5,310.5,325.1,311.3,293.6,258.4,3461.3,3452.8,488.5,391.8,483.7,943.2,788.6,404.3,14.0,18.0,-3.0,7399.0,-8901.0,-7074.0,9188.0,-28.0,15.0,-6.0,8.0,7.0,4.0,8047.0,-13096.0,-2783.0,4942.0,-24.0,11.0,9.0,1.0
2022-05-08 16:20:25.231068-07:00,637.6,761.2,655.4,897.4,345.2,302.8,893.2,692.9,3461.3,3469.8,1061.7,711.8,531.4,3478.3,1139.2,802.7,3446.7,3440.7,354.5,318.2,325.1,312.0,292.8,256.1,3461.3,3452.8,488.5,390.3,483.7,939.0,781.1,406.7,15.0,-8.0,2.0,7399.0,-8896.0,-7085.0,9185.0,9.0,-22.0,-22.0,15.0,-2.0,0.0,8047.0,-13095.0,-2790.0,4941.0,11.0,-16.0,-20.0,1.0
2022-05-08 16:20:25.231998-07:00,637.6,761.2,655.4,899.1,345.2,309.0,886.5,685.6,3461.3,3469.8,1061.7,711.8,531.4,3466.1,1144.5,799.4,3446.7,3439.5,354.5,318.2,315.9,312.0,292.8,256.1,3468.6,3461.3,493.2,390.3,478.2,939.0,781.1,406.7,2.0,-13.0,10.0,7395.0,-8891.0,-7090.0,9188.0,-19.0,0.0,1.0,-5.0,-7.0,0.0,8048.0,-13093.0,-2795.0,4942.0,-9.0,1.0,9.0,1.0
2022-05-08 16:20:25.289796-07:00,642.4,767.0,655.4,899.1,348.3,309.0,886.5,685.6,3467.4,3463.7,1055.6,711.8,525.8,3466.1,1144.5,799.4,3446.7,3439.5,354.5,317.4,315.9,311.3,296.7,256.1,3468.6,3461.3,493.2,389.5,478.2,940.7,773.6,402.8,-20.0,13.0,-12.0,7389.0,-8907.0,-7090.0,9178.0,-42.0,24.0,22.0,-23.0,4.0,5.0,8036.0,-13101.0,-2787.0,4945.0,-25.0,8.0,28.0,1.0
2022-05-08 16:20:25.319296-07:00,642.4,767.0,655.4,896.6,348.3,304.3,884.8,690.5,3467.4,3463.7,1055.6,711.8,525.8,3471.0,1144.5,796.9,3449.1,3432.2,360.0,317.4,322.1,311.3,296.7,256.1,3454.0,3458.9,489.3,389.5,483.7,940.7,773.6,402.8,-2.0,2.0,-8.0,7379.0,-8920.0,-7094.0,9170.0,-42.0,1.0,7.0,-9.0,0.0,1.0,8026.0,-13107.0,-2782.0,4948.0,-24.0,10.0,7.0,1.0
2022-05-08 16:20:25.409436-07:00,633.5,765.3,655.4,896.6,349.1,304.3,884.8,690.5,3468.6,3471.0,1064.3,719.2,534.6,3471.0,1144.5,796.9,3449.1,3432.2,360.0,313.6,320.5,315.1,300.5,256.1,3454.0,3458.9,489.3,392.6,479.8,941.5,780.3,402.8,2.0,0.0,0.0,7375.0,-8923.0,-7098.0,9168.0,8.0,-6.0,11.0,0.0,1.0,1.0,8025.0,-13108.0,-2783.0,4948.0,10.0,-6.0,1.0,1.0
2022-05-08 16:20:25.439273-07:00,633.5,765.3,655.4,896.6,349.9,305.9,890.7,690.5,3468.6,3471.0,1064.3,719.2,529.8,3478.3,1140.1,798.5,3450.4,3454.0,355.3,309.0,320.5,315.1,300.5,256.1,3473.4,3463.7,491.7,389.5,479.8,941.5,780.3,402.8,0.0,8.0,4.0,7374.0,-8923.0,-7097.0,9169.0,4.0,-10.0,-2.0,-2.0,1.0,9.0,8026.0,-13107.0,-2782.0,4949.0,6.0,-9.0,-7.0,1.0
2022-05-08 16:20:25.469586-07:00,637.6,762.0,649.7,891.5,349.9,305.9,890.7,690.5,3474.6,3468.6,1047.0,715.1,529.8,3478.3,1140.1,798.5,3450.4,3454.0,355.3,309.0,320.5,309.7,295.1,256.9,3473.4,3463.7,491.7,389.5,478.2,933.0,776.1,404.3,-6.0,-3.0,9.0,7372.0,-8921.0,-7099.0,9170.0,-2.0,12.0,-6.0,-10.0,-5.0,6.0,8026.0,-13106.0,-2782.0,4949.0,2.0,-2.0,-3.0,1.0
2022-05-08 16:20:25.529099-07:00,637.6,762.0,649.7,891.5,351.4,302.0,883.9,683.1,3474.6,3468.6,1047.0,715.1,532.2,3467.4,1134.0,797.7,3454.0,3450.4,351.4,314.4,320.5,309.7,295.1,256.9,3468.6,3467.4,485.3,390.3,478.2,933.0,776.1,404.3,-2.0,9.0,-7.0,7374.0,-8922.0,-7096.0,9171.0,4.0,3.0,6.0,-6.0,-1.0,2.0,8030.0,-13104.0,-2780.0,4951.0,8.0,-1.0,2.0,1.0
2022-05-08 16:20:25.590034-07:00,641.6,762.0,656.2,900.0,351.4,302.0,883.9,683.1,3469.8,3475.9,1062.5,711.8,532.2,3467.4,1134.0,797.7,3454.0,3450.4,351.4,314.4,322.8,313.6,293.6,255.3,3468.6,3467.4,485.3,390.3,482.2,932.2,774.5,404.3,-5.0,4.0,0.0,7374.0,-8922.0,-7096.0,9171.0,0.0,-1.0,-7.0,-4.0,0.0,7.0,8030.0,-13104.0,-2780.0,4952.0,3.0,-6.0,-5.0,1.0
2022-05-08 16:20:25.619317-07:00,641.6,762.0,656.2,900.0,349.9,320.5,889.0,687.2,3469.8,3475.9,1062.5,711.8,531.4,3457.6,1137.5,798.5,3447.9,3438.2,349.9,315.1,322.8,313.6,293.6,255.3,3469.8,3462.5,489.3,388.7,482.2,932.2,774.5,404.3,2.0,4.0,4.0,7376.0,-8918.0,-7095.0,9174.0,13.0,9.0,-11.0,-6.0,-1.0,7.0,8035.0,-13099.0,-2779.0,4956.0,12.0,-5.0,-9.0,1.0
2022-05-08 16:20:25.679957-07:00,639.2,749.6,654.6,896.6,349.9,320.5,889.0,692.9,3467.4,3475.9,1059.1,715.1,531.4,3457.6,1137.5,799.4,3449.1,3438.2,349.9,315.1,319.7,313.6,295.1,257.6,3469.8,3462.5,489.3,388.7,483.7,947.5,776.9,405.9,-5.0,8.0,-1.0,7381.0,-8913.0,-7101.0,9170.0,-15.0,-22.0,-28.0,-4.0,0.0,3.0,8037.0,-13097.0,-2779.0,4958.0,-8.0,2.0,-14.0,1.0
2022-05-08 16:20:25.769217-07:00,632.7,749.6,654.6,896.6,351.4,305.9,883.9,692.9,3464.9,3475.9,1059.1,715.1,529.0,3466.1,1137.5,799.4,3449.1,3444.3,353.0,311.3,319.7,313.6,295.1,253.8,3469.8,3452.8,487.7,390.3,483.7,947.5,776.9,402.0,-1.0,-15.0,7.0,7381.0,-8910.0,-7110.0,9167.0,10.0,5.0,0.0,-6.0,-8.0,2.0,8037.0,-13097.0,-2784.0,4955.0,13.0,-1.0,-5.0,1.0
2022-05-08 16:20:25.772325-07:00,632.7,758.7,651.4,894.9,351.4,305.9,883.9,686.4,3464.9,3469.8,1059.9,710.1,529.0,3466.1,1137.5,799.4,3445.5,3444.3,353.0,311.3,322.1,311.3,292.8,253.8,3466.1,3452.8,487.7,390.3,480.6,932.2,775.3,402.0,0.0,15.0,-3.0,7380.0,-8910.0,-7107.0,9169.0,7.0,3.0,4.0,0.0,5.0,10.0,8040.0,-13095.0,-2781.0,4958.0,8.0,-9.0,4.0,1.0
2022-05-08 16:20:25.919279-07:00,632.7,758.7,651.4,894.9,350.6,306.7,881.4,686.4,3468.6,3469.8,1059.9,710.1,524.2,3462.5,1141.9,799.4,3445.5,3440.7,356.8,310.5,322.1,311.3,292.8,254.6,3466.1,3473.4,486.9,406.7,480.6,932.2,775.3,401.2,-5.0,-1.0,0.0,7382.0,-8909.0,-7112.0,9165.0,-21.0,3.0,-26.0,-7.0,-5.0,6.0,8040.0,-13095.0,-2781.0,4958.0,-11.0,-9.0,-7.0,1.0
2022-05-08 16:20:25.922544-07:00,632.7,757.1,651.4,899.1,350.6,306.7,881.4,684.8,3468.6,3471.0,1059.9,712.6,524.2,3462.5,1141.9,797.7,3443.1,3440.7,356.8,310.5,311.3,312.0,297.4,254.6,3466.1,3473.4,486.9,406.7,477.4,930.5,778.6,401.2,-4.0,-2.0,2.0,7382.0,-8910.0,-7114.0,9162.0,6.0,4.0,7.0,-3.0,-3.0,4.0,8041.0,-13094.0,-2780.0,4960.0,23.0,-9.0,10.0,1.0
2022-05-08 16:20:25.923499-07:00,635.9,757.1,651.4,899.1,352.2,304.3,881.4,684.8,3467.4,3471.0,1059.9,712.6,531.4,3474.6,1136.6,797.7,3443.1,3449.1,353.7,313.6,311.3,312.0,297.4,259.9,3466.1,3474.6,486.9,391.8,477.4,930.5,778.6,409.8,-8.0,7.0,-2.0,7383.0,-8913.0,-7115.0,9158.0,-22.0,-8.0,-11.0,-10.0,-8.0,11.0,8043.0,-13091.0,-2778.0,4965.0,-2.0,-3.0,4.0,1.0
2022-05-08 16:20:25.979909-07:00,635.9,753.8,651.4,900.0,352.2,304.3,881.4,688.0,3467.4,3467.4,1052.2,714.2,531.4,3474.6,1136.6,798.5,3449.1,3449.1,353.7,313.6,321.3,313.6,294.4,259.9,3461.3,3474.6,486.9,391.8,474.3,936.4,772.0,409.8,-1.0,-2.0,-2.0,7379.0,-8911.0,-7122.0,9158.0,-8.0,-7.0,-3.0,0.0,-1.0,3.0,8047.0,-13088.0,-2778.0,4968.0,20.0,-12.0,5.0,1.0
2022-05-08 16:20:26.069703-07:00,635.1,748.8,651.4,900.0,348.3,298.2,885.6,688.0,3467.4,3474.6,1052.2,714.2,531.4,3473.4,1135.7,798.5,3449.1,3441.9,356.8,315.1,321.3,313.6,292.8,254.6,3461.3,3464.9,490.1,388.7,474.3,936.4,777.8,408.2,-5.0,4.0,0.0,7379.0,-8911.0,-7122.0,9158.0,-2.0,-5.0,-1.0,-6.0,-1.0,7.0,8055.0,-13080.0,-2777.0,4975.0,32.0,-18.0,6.0,1.0
2022-05-08 16:20:26.072090-07:00,635.1,748.8,655.4,899.1,348.3,298.2,878.0,684.8,3467.4,3474.6,1054.8,710.1,531.4,3473.4,1138.4,795.2,3437.0,3457.6,356.8,315.1,319.7,311.3,292.8,254.6,3456.4,3458.9,490.1,388.7,481.4,935.6,777.8,408.2,-3.0,-2.0,-2.0,7374.0,-8909.0,-7126.0,9160.0,-15.0,-22.0,2.0,-4.0,0.0,4.0,8064.0,-13071.0,-2777.0,4984.0,34.0,-19.0,4.0,1.0
2022-05-08 16:20:26.129116-07:00,627.0,754.6,655.4,899.1,350.6,305.1,878.0,684.8,3462.5,3473.4,1054.8,710.1,530.6,3462.5,1138.4,795.2,3437.0,3457.6,356.1,314.4,319.7,311.3,296.7,251.5,3456.4,3458.9,490.1,392.6,481.4,935.6,776.1,397.3,-8.0,1.0,-4.0,7370.0,-8904.0,-7132.0,9164.0,4.0,-24.0,-10.0,-12.0,-4.0,6.0,8074.0,-13061.0,-2777.0,4994.0,40.0,-27.0,-4.0,1.0
2022-05-08 16:20:26.189611-07:00,627.0,754.6,656.2,899.1,350.6,305.1,883.9,687.2,3462.5,3473.4,1057.3,719.2,530.6,3462.5,1140.1,796.9,3449.1,3447.9,356.1,314.4,319.7,311.3,296.7,251.5,3461.3,3471.0,490.1,392.6,477.4,939.0,776.1,397.3,1.0,7.0,0.0,7369.0,-8891.0,-7144.0,9168.0,-26.0,-41.0,-27.0,-3.0,-6.0,0.0,8080.0,-13054.0,-2780.0,5001.0,-5.0,-12.0,-13.0,1.0
2022-05-08 16:20:26.279106-07:00,635.1,752.9,656.2,899.1,352.2,305.9,883.9,687.2,3479.5,3473.4,1057.3,719.2,529.0,3462.5,1140.1,796.9,3449.1,3447.9,360.0,312.8,319.7,311.3,295.1,256.9,3461.3,3471.0,494.8,388.7,477.4,939.0,773.6,405.1,0.0,-4.0,0.0,7365.0,-8883.0,-7154.0,9171.0,15.0,-20.0,-2.0,-4.0,-6.0,4.0,8083.0,-13050.0,-2783.0,5005.0,22.0,-11.0,-1.0,1.0
2022-05-08 16:20:26.280444-07:00,635.1,752.9,655.4,900.0,352.2,305.9,878.0,692.9,3479.5,3473.4,1056.5,715.9,529.0,3462.5,1141.9,792.7,3440.7,3446.7,360.0,312.8,321.3,312.8,295.1,256.9,3462.5,3471.0,494.8,388.7,478.2,939.8,773.6,405.1,-6.0,5.0,4.0,7365.0,-8878.0,-7154.0,9175.0,-9.0,-8.0,-2.0,-4.0,-1.0,14.0,8085.0,-13047.0,-2784.0,5010.0,-5.0,-5.0,0.0,1.0
2022-05-08 16:20:26.339159-07:00,637.6,747.2,653.0,900.0,349.9,301.3,878.0,692.9,3478.3,3468.6,1063.4,715.9,527.4,3475.9,1141.9,792.7,3440.7,3446.7,354.5,314.4,321.3,308.2,295.1,250.0,3462.5,3471.0,488.5,389.5,478.2,934.7,773.6,402.0,2.0,7.0,2.0,7362.0,-8875.0,-7158.0,9177.0,9.0,3.0,-11.0,-5.0,-1.0,3.0,8086.0,-13046.0,-2784.0,5010.0,6.0,-2.0,-2.0,1.0
2022-05-08 16:20:26.369742-07:00,637.6,747.2,653.0,900.0,349.9,299.0,881.4,690.5,3478.3,3468.6,1063.4,716.7,527.4,3475.9,1136.6,798.5,3443.1,3449.1,356.8,314.4,322.8,308.2,295.1,250.0,3466.1,3464.9,488.5,389.5,480.6,934.7,773.6,402.0,-3.0,0.0,4.0,7363.0,-8876.0,-7157.0,9177.0,1.0,4.0,-1.0,-4.0,-1.0,3.0,8087.0,-13046.0,-2783.0,5010.0,7.0,6.0,2.0,1.0
2022-05-08 16:20:26.429245-07:00,633.5,750.5,657.0,900.0,356.8,299.0,881.4,690.5,3468.6,3462.5,1048.7,716.7,535.4,3475.9,1136.6,798.5,3443.1,3449.1,356.8,313.6,322.8,315.1,290.5,256.9,3466.1,3464.9,488.5,385.6,480.6,933.0,769.5,405.9,-5.0,6.0,0.0,7366.0,-8877.0,-7154.0,9176.0,-4.0,-4.0,1.0,-4.0,3.0,2.0,8090.0,-13044.0,-2782.0,5011.0,-2.0,2.0,0.0,1.0
2022-05-08 16:20:26.489602-07:00,633.5,750.5,657.0,895.7,356.8,299.0,871.3,681.5,3468.6,3462.5,1048.7,713.4,535.4,3467.4,1133.1,796.0,3450.4,3437.0,354.5,313.6,321.3,315.1,290.5,256.9,3468.6,3458.9,490.1,385.6,475.8,933.0,769.5,405.9,-3.0,0.0,3.0,7363.0,-8875.0,-7157.0,9178.0,3.0,-10.0,5.0,-4.0,-1.0,7.0,8093.0,-13042.0,-2781.0,5011.0,17.0,-1.0,-1.0,1.0
2022-05-08 16:20:26.519217-07:00,631.9,744.7,646.5,895.7,355.3,299.0,871.3,681.5,3471.0,3473.4,1058.2,713.4,530.6,3467.4,1133.1,796.0,3450.4,3437.0,354.5,311.3,321.3,307.4,292.1,256.1,3468.6,3458.9,490.1,388.7,475.8,931.3,767.8,402.8,-4.0,-4.0,1.0,7370.0,-8869.0,-7146.0,9187.0,47.0,-7.0,17.0,-2.0,-2.0,8.0,8106.0,-13032.0,-2778.0,5017.0,50.0,-16.0,-1.0,1.0
2022-05-08 16:20:26.609540-07:00,631.9,744.7,646.5,897.4,355.3,299.0,882.3,685.6,3471.0,3473.4,1058.2,712.6,530.6,3467.4,1133.1,797.7,3445.5,3447.9,356.8,311.3,321.3,307.4,292.1,256.1,3463.7,3460.1,486.9,388.7,478.2,931.3,767.8,402.8,-4.0,9.0,3.0,7373.0,-8864.0,-7139.0,9195.0,-9.0,-7.0,0.0,-8.0,0.0,4.0,8115.0,-13024.0,-2777.0,5025.0,11.0,-14.0,-3.0,1.0
2022-05-08 16:20:26.639230-07:00,634.3,748.0,654.6,896.6,348.3,299.0,882.3,685.6,3467.4,3467.4,1057.3,712.6,531.4,3467.4,1133.1,797.7,3445.5,3447.9,356.8,315.1,318.2,312.8,287.5,253.1,3463.7,3460.1,486.9,387.2,480.6,939.8,775.3,407.5,-62.0,-105.0,117.0,7354.0,-8977.0,-7114.0,9118.0,-250.0,510.0,242.0,-29.0,-74.0,27.0,8130.0,-13002.0,-2730.0,5083.0,248.0,-104.0,287.0,1.0
2022-05-08 16:20:26.699192-07:00,634.3,748.0,654.6,896.6,351.4,304.3,880.6,686.4,3467.4,3467.4,1057.3,712.6,527.4,3469.8,1155.9,797.7,3446.7,3451.6,356.1,312.8,318.2,312.8,287.5,253.1,3464.9,3457.6,487.7,402.0,480.6,939.8,775.3,407.5,96.0,-7.0,-121.0,7480.0,-9095.0,-6754.0,9173.0,957.0,618.0,613.0,30.0,29.0,-99.0,8283.0,-12849.0,-2604.0,5287.0,992.0,-485.0,312.0,1.0
2022-05-08 16:20:26.729450-07:00,633.5,753.8,678.2,900.0,351.4,304.3,880.6,686.4,3467.4,3467.4,1076.4,711.8,527.4,3469.8,1155.9,797.7,3446.7,3451.6,356.1,312.8,322.8,309.0,297.4,254.6,3464.9,3457.6,487.7,402.0,482.2,1115.6,1115.6,401.2,-32.0,80.0,-36.0,7573.0,-9158.0,-6464.0,9243.0,232.0,206.0,232.0,-24.0,8.0,81.0,8445.0,-12662.0,-2510.0,5521.0,357.0,-295.0,163.0,1.0
2022-05-08 16:20:26.789283-07:00,633.5,753.8,678.2,900.0,356.8,306.7,946.6,726.6,3467.4,3467.4,1076.4,711.8,531.4,3478.3,1476.4,816.0,3441.9,3456.4,356.1,321.3,322.8,309.0,297.4,254.6,3473.4,3469.8,502.8,400.4,482.2,1115.6,1115.6,401.2,56.0,130.0,-11.0,7591.0,-9080.0,-6393.0,9354.0,251.0,-237.0,-10.0,46.0,104.0,-45.0,8517.0,-12555.0,-2514.0,5654.0,149.0,-181.0,-41.0,1.0
2022-05-08 16:20:26.819305-07:00,634.3,766.2,688.9,901.7,356.8,306.7,946.6,726.6,3468.6,3471.0,1094.7,711.0,531.4,3478.3,1476.4,816.0,3441.9,3456.4,356.1,321.3,318.2,309.7,299.0,255.3,3473.4,3469.8,502.8,400.4,517.1,1095.6,1028.0,423.9,-6.0,6.0,29.0,7625.0,-9032.0,-6392.0,9373.0,123.0,-16.0,-61.0,1.0,6.0,26.0,8550.0,-12515.0,-2529.0,5684.0,84.0,-60.0,-29.0,1.0
2022-05-08 16:20:26.879748-07:00,634.3,766.2,688.9,901.7,354.5,305.1,926.2,706.9,3468.6,3471.0,1094.7,711.0,529.0,3478.3,1451.6,825.2,3449.1,3451.6,358.4,316.7,318.2,309.7,299.0,255.3,3457.6,3458.9,505.9,400.4,517.1,1095.6,1028.0,423.9,-21.0,-5.0,5.0,7654.0,-9044.0,-6384.0,9344.0,-30.0,104.0,-51.0,-5.0,-17.0,32.0,8552.0,-12518.0,-2528.0,5675.0,-33.0,52.0,7.0,1.0
2022-05-08 16:20:26.939205-07:00,635.1,767.0,670.9,896.6,354.5,305.1,926.2,706.9,3467.4,3479.5,1095.6,720.0,529.0,3478.3,1451.6,825.2,3449.1,3451.6,358.4,316.7,314.4,318.2,296.7,256.9,3457.6,3458.9,505.9,400.4,509.9,1076.4,1009.9,461.6,12.0,9.0,-19.0,7672.0,-9039.0,-6398.0,9324.0,-16.0,-21.0,-92.0,1.0,14.0,-18.0,8552.0,-12522.0,-2527.0,5667.0,-18.0,5.0,-27.0,1.0
2022-05-08 16:20:26.999238-07:00,631.1,767.0,670.9,896.6,348.3,309.7,921.1,706.0,3468.6,3479.5,1095.6,720.0,529.8,3474.6,1436.0,823.5,3455.2,3449.1,356.8,318.2,314.4,318.2,296.7,256.9,3461.3,3478.3,503.6,398.9,509.9,1076.4,1009.9,467.9,-13.0,-26.0,0.0,7685.0,-9036.0,-6409.0,9309.0,5.0,8.0,0.0,-9.0,-26.0,15.0,8550.0,-12525.0,-2533.0,5660.0,11.0,-9.0,5.0,1.0
2022-05-08 16:20:27.029261-07:00,631.1,757.1,665.2,898.3,348.3,309.7,921.1,706.9,3468.6,3466.1,1076.4,712.6,529.8,3474.6,1436.0,826.0,3444.3,3449.1,356.8,318.2,319.7,312.0,293.6,256.9,3457.6,3478.3,503.6,398.9,507.5,1077.3,1001.3,467.9,6.0,13.0,0.0,7678.0,-9021.0,-6418.0,9323.0,28.0,-70.0,-2.0,2.0,18.0,6.0,8554.0,-12517.0,-2536.0,5671.0,29.0,-33.0,-5.0,1.0
2022-05-08 16:20:27.119611-07:00,631.9,757.1,665.2,898.3,353.7,310.5,916.9,706.9,3464.9,3466.1,1076.4,712.6,531.4,3467.4,1414.0,826.0,3444.3,3447.9,354.5,317.4,319.7,312.0,293.6,256.1,3457.6,3464.9,505.9,398.9,507.5,1077.3,1001.3,465.6,-7.0,4.0,1.0,7681.0,-9004.0,-6429.0,9329.0,-18.0,-33.0,-55.0,-16.0,-15.0,22.0,8560.0,-12510.0,-2544.0,5673.0,-16.0,4.0,-25.0,1.0
2022-05-08 16:20:27.120888-07:00,631.9,751.3,658.7,896.6,353.7,310.5,916.9,702.8,3464.9,3462.5,1078.2,707.7,531.4,3467.4,1414.0,819.4,3444.3,3447.9,354.5,317.4,322.8,314.4,288.2,256.1,3452.8,3464.9,505.9,398.9,509.1,1070.3,989.3,465.6,5.0,2.0,7.0,7681.0,-8997.0,-6440.0,9329.0,1.0,27.0,11.0,6.0,0.0,5.0,8562.0,-12507.0,-2547.0,5676.0,1.0,0.0,6.0,1.0
2022-05-08 16:20:27.209125-07:00,631.9,751.3,658.7,896.6,352.2,309.7,911.8,702.8,3467.4,3462.5,1078.2,707.7,528.2,3469.8,1393.0,819.4,3444.3,3444.3,348.3,319.7,322.8,314.4,288.2,258.4,3452.8,3468.6,502.0,392.6,509.1,1070.3,989.3,463.2,6.0,-3.0,4.0,7683.0,-9000.0,-6435.0,9327.0,44.0,-17.0,1.0,1.0,-4.0,0.0,8564.0,-12505.0,-2547.0,5676.0,34.0,-24.0,-10.0,1.0
2022-05-08 16:20:27.211366-07:00,631.9,752.1,664.4,890.7,352.2,309.7,911.8,706.9,3467.4,3469.8,1081.6,705.2,528.2,3469.8,1393.0,819.4,3438.2,3444.3,348.3,319.7,319.0,310.5,288.2,258.4,3464.9,3468.6,502.0,392.6,499.6,1062.5,985.0,463.2,-8.0,-17.0,3.0,7686.0,-8996.0,-6437.0,9327.0,3.0,7.0,6.0,-7.0,-12.0,17.0,8566.0,-12504.0,-2549.0,5676.0,-4.0,6.0,2.0,1.0
2022-05-08 16:20:27.269726-07:00,627.0,743.9,664.4,890.7,349.9,311.3,916.9,706.9,3469.8,3473.4,1081.6,705.2,527.4,3471.0,1385.7,819.4,3438.2,3443.1,354.5,316.7,319.0,310.5,291.3,258.4,3464.9,3464.9,506.7,391.1,499.6,1062.5,982.5,456.9,0.0,7.0,0.0,7685.0,-8997.0,-6434.0,9329.0,-11.0,-2.0,-3.0,0.0,0.0,5.0,8570.0,-12500.0,-2546.0,5679.0,-1.0,3.0,4.0,1.0
2022-05-08 16:20:27.359229-07:00,627.0,743.9,656.2,893.2,349.9,311.3,913.5,701.1,3469.8,3473.4,1072.9,714.2,527.4,3471.0,1381.2,820.2,3451.6,3435.8,354.5,316.7,321.3,311.3,291.3,258.4,3464.9,3463.7,506.7,391.1,501.2,1075.6,982.5,456.9,0.0,-17.0,2.0,7686.0,-8999.0,-6436.0,9325.0,-12.0,38.0,1.0,-8.0,-17.0,3.0,8569.0,-12503.0,-2545.0,5676.0,-14.0,13.0,7.0,1.0
2022-05-08 16:20:27.361912-07:00,627.8,744.7,656.2,893.2,353.7,310.5,913.5,701.1,3457.6,3469.8,1072.9,714.2,528.2,3477.1,1381.2,820.2,3451.6,3435.8,353.0,313.6,321.3,311.3,289.8,253.8,3464.9,3463.7,500.4,393.4,501.2,1075.6,978.2,453.7,0.0,15.0,-4.0,7691.0,-9006.0,-6428.0,9320.0,1.0,-22.0,-4.0,-1.0,2.0,3.0,8572.0,-12501.0,-2540.0,5678.0,6.0,-10.0,9.0,1.0
2022-05-08 16:20:27.419220-07:00,627.8,744.7,656.2,891.5,353.7,310.5,908.4,710.1,3457.6,3469.8,1077.3,715.9,528.2,3477.1,1379.4,820.2,3438.2,3445.5,353.0,313.6,323.6,319.0,289.8,253.8,3466.1,3463.7,500.4,393.4,498.0,1067.7,978.2,453.7,5.0,0.0,-2.0,7691.0,-9000.0,-6431.0,9324.0,16.0,2.0,-5.0,-6.0,1.0,-7.0,8573.0,-12497.0,-2545.0,5683.0,13.0,-17.0,-14.0,1.0
2022-05-08 16:20:27.509292-07:00,627.0,743.9,656.2,891.5,354.5,309.7,908.4,710.1,3457.6,3472.2,1077.3,715.9,530.6,3469.8,1379.4,820.2,3438.2,3445.5,356.8,315.1,323.6,319.0,292.1,256.1,3466.1,3463.7,504.4,395.0,498.0,1067.7,973.9,457.7,-10.0,-1.0,0.0,7698.0,-9003.0,-6422.0,9322.0,23.0,18.0,23.0,-7.0,-10.0,19.0,8575.0,-12495.0,-2545.0,5684.0,11.0,-5.0,2.0,1.0
2022-05-08 16:20:27.511072-07:00,627.0,743.9,653.8,893.2,354.5,309.7,905.0,700.3,3457.6,3472.2,1072.1,706.0,530.6,3469.8,1374.8,816.9,3447.9,3443.1,356.8,315.1,320.5,309.7,292.1,256.1,3460.1,3471.0,504.4,395.0,499.6,1065.1,973.9,457.7,1.0,20.0,-6.0,7697.0,-8999.0,-6410.0,9335.0,20.0,-43.0,-1.0,-6.0,9.0,2.0,8584.0,-12483.0,-2545.0,5695.0,29.0,-31.0,-14.0,1.0
2022-05-08 16:20:27.659374-07:00,627.0,741.4,653.8,893.2,348.3,311.3,905.0,700.3,3473.4,3469.8,1072.1,706.0,532.2,3463.7,1374.8,816.9,3447.9,3443.1,357.6,317.4,320.5,309.7,289.8,255.3,3460.1,3471.0,498.8,396.5,499.6,1065.1,969.6,460.0,-4.0,-10.0,3.0,7698.0,-8990.0,-6408.0,9343.0,28.0,-3.0,8.0,-6.0,-15.0,4.0,8592.0,-12475.0,-2552.0,5698.0,20.0,-15.0,-14.0,1.0
2022-05-08 16:20:27.661187-07:00,627.0,741.4,652.2,898.3,348.3,309.7,913.5,703.6,3473.4,3469.8,1068.6,705.2,532.2,3469.8,1375.7,816.0,3444.3,3454.0,357.6,317.4,322.1,311.3,289.8,255.3,3472.2,3462.5,500.4,396.5,495.6,1066.0,969.6,460.0,2.0,9.0,2.0,7699.0,-8987.0,-6402.0,9349.0,1.0,-11.0,10.0,4.0,-4.0,12.0,8598.0,-12470.0,-2551.0,5701.0,7.0,-6.0,1.0,1.0
2022-05-08 16:20:27.662060-07:00,631.1,743.0,651.4,898.3,355.3,309.7,913.5,703.6,3479.5,3474.6,1072.1,705.2,529.8,3469.8,1375.7,816.0,3444.3,3454.0,357.6,317.4,322.1,305.1,290.5,256.1,3472.2,3462.5,500.4,395.7,495.6,1059.9,973.1,454.5,-4.0,5.0,-1.0,7701.0,-8984.0,-6401.0,9351.0,-3.0,-5.0,-12.0,-3.0,-1.0,7.0,8602.0,-12467.0,-2549.0,5703.0,-2.0,3.0,-4.0,1.0
2022-05-08 16:20:27.719948-07:00,631.1,743.0,651.4,899.1,355.3,309.0,911.0,703.6,3479.5,3474.6,1072.1,711.8,529.8,3464.9,1364.8,814.4,3443.1,3445.5,354.5,317.4,317.4,305.1,290.5,256.1,3461.3,3458.9,499.6,395.7,494.8,1059.9,973.1,454.5,4.0,-6.0,-2.0,7702.0,-8985.0,-6402.0,9350.0,-4.0,3.0,11.0,-3.0,-4.0,3.0,8602.0,-12467.0,-2549.0,5703.0,1.0,2.0,10.0,1.0
2022-05-08 16:20:27.809265-07:00,628.6,736.5,649.7,899.1,351.4,309.0,911.0,703.6,3467.4,3475.9,1069.5,711.8,531.4,3464.9,1364.8,814.4,3443.1,3445.5,354.5,315.9,317.4,311.3,285.9,257.6,3461.3,3458.9,499.6,395.7,494.8,1059.9,966.2,454.5,-1.0,-2.0,-3.0,7698.0,-8988.0,-6404.0,9348.0,-4.0,0.0,6.0,-5.0,-1.0,3.0,8599.0,-12469.0,-2549.0,5703.0,-11.0,2.0,6.0,1.0
2022-05-08 16:20:27.811026-07:00,628.6,736.5,649.7,891.5,351.4,308.2,909.3,701.1,3467.4,3475.9,1069.5,709.3,531.4,3467.4,1363.9,813.5,3446.7,3445.5,352.2,315.9,322.1,311.3,285.9,257.6,3463.7,3463.7,502.0,395.7,489.3,1059.9,966.2,454.5,-7.0,5.0,-2.0,7695.0,-8990.0,-6403.0,9349.0,-19.0,-4.0,-1.0,-9.0,-2.0,13.0,8598.0,-12469.0,-2548.0,5704.0,-11.0,4.0,6.0,1.0
2022-05-08 16:20:27.899602-07:00,631.1,739.7,651.4,891.5,349.1,308.2,909.3,701.1,3478.3,3467.4,1069.5,709.3,529.8,3467.4,1363.9,813.5,3446.7,3445.5,352.2,312.8,322.1,314.4,289.8,256.1,3463.7,3463.7,502.0,398.9,489.3,1055.6,973.1,459.3,-10.0,4.0,0.0,7693.0,-8992.0,-6404.0,9347.0,-6.0,8.0,5.0,-6.0,-2.0,12.0,8597.0,-12469.0,-2548.0,5705.0,-8.0,8.0,3.0,1.0
2022-05-08 16:20:27.929332-07:00,631.1,739.7,651.4,895.7,352.2,310.5,906.7,704.4,3478.3,3467.4,1069.5,710.1,530.6,3469.8,1361.2,811.0,3449.1,3457.6,356.1,318.2,317.4,314.4,289.8,256.1,3468.6,3462.5,500.4,394.2,490.9,1055.6,973.1,459.3,3.0,1.0,1.0,7695.0,-8994.0,-6402.0,9346.0,7.0,29.0,8.0,2.0,0.0,3.0,8598.0,-12469.0,-2547.0,5706.0,3.0,5.0,8.0,1.0
2022-05-08 16:20:27.989357-07:00,623.8,738.9,655.4,893.2,352.2,310.5,906.7,704.4,3471.0,3475.9,1077.3,709.3,530.6,3469.8,1361.2,811.0,3449.1,3457.6,356.1,318.2,317.4,308.2,286.7,263.0,3468.6,3462.5,500.4,394.2,496.4,1059.9,959.4,449.8,-15.0,8.0,-9.0,7700.0,-9003.0,-6395.0,9338.0,-9.0,10.0,2.0,-13.0,-3.0,16.0,8597.0,-12472.0,-2544.0,5703.0,-6.0,5.0,3.0,1.0
2022-05-08 16:20:28.019986-07:00,623.8,738.9,655.4,893.2,347.6,312.0,906.7,698.7,3471.0,3475.9,1077.3,709.3,532.2,3462.5,1360.3,814.4,3446.7,3450.4,354.5,316.7,317.4,308.2,286.7,263.0,3469.8,3468.6,500.4,389.5,496.4,1059.9,959.4,449.8,1.0,4.0,-6.0,7699.0,-9005.0,-6395.0,9337.0,5.0,-15.0,-9.0,0.0,-2.0,0.0,8596.0,-12472.0,-2543.0,5703.0,0.0,-15.0,-9.0,1.0
2022-05-08 16:20:28.109303-07:00,627.0,731.5,654.6,891.5,347.6,312.0,906.7,698.7,3473.4,3457.6,1069.5,712.6,532.2,3462.5,1360.3,814.4,3446.7,3450.4,354.5,316.7,324.4,313.6,286.7,254.6,3469.8,3468.6,500.4,389.5,490.9,1062.5,962.0,453.0,4.0,-8.0,0.0,7696.0,-8998.0,-6399.0,9343.0,17.0,-17.0,14.0,-7.0,-5.0,1.0,8598.0,-12468.0,-2550.0,5706.0,15.0,-20.0,-11.0,1.0
2022-05-08 16:20:28.111094-07:00,627.0,731.5,654.6,891.5,348.3,307.4,913.5,702.8,3473.4,3457.6,1069.5,712.6,533.8,3473.4,1363.0,814.4,3444.3,3447.9,356.1,314.4,324.4,313.6,286.7,254.6,3457.6,3458.9,511.5,391.8,490.9,1062.5,962.0,453.0,-9.0,5.0,0.0,7694.0,-8995.0,-6392.0,9352.0,22.0,-12.0,16.0,-8.0,-1.0,13.0,8602.0,-12462.0,-2552.0,5713.0,19.0,-15.0,1.0,1.0
2022-05-08 16:20:28.229269-07:00,631.1,736.5,651.4,894.9,348.3,307.4,913.5,702.8,3466.1,3467.4,1074.7,706.0,533.8,3473.4,1363.0,814.4,3444.3,3447.9,356.1,314.4,314.4,314.4,287.5,259.2,3457.6,3458.9,511.5,391.8,490.9,1053.9,959.4,454.5,0.0,10.0,2.0,7696.0,-8989.0,-6388.0,9360.0,4.0,13.0,-4.0,-2.0,1.0,5.0,8608.0,-12455.0,-2552.0,5719.0,4.0,7.0,-8.0,1.0
2022-05-08 16:20:28.230566-07:00,624.6,736.5,651.4,894.9,353.0,308.2,908.4,700.3,3473.4,3467.4,1074.7,706.0,533.8,3469.8,1357.6,818.5,3449.1,3451.6,356.8,308.2,314.4,314.4,287.5,254.6,3460.1,3472.2,509.9,393.4,490.9,1053.9,959.4,448.2,-1.0,0.0,-2.0,7697.0,-8991.0,-6387.0,9358.0,3.0,8.0,10.0,-4.0,-7.0,7.0,8609.0,-12454.0,-2552.0,5719.0,8.0,9.0,7.0,1.0
2022-05-08 16:20:28.289330-07:00,624.6,737.3,654.6,889.8,353.0,308.2,908.4,701.9,3473.4,3467.4,1073.8,705.2,533.8,3469.8,1357.6,817.7,3447.9,3451.6,356.8,308.2,323.6,314.4,286.7,254.6,3461.3,3472.2,509.9,393.4,486.1,1057.3,959.4,448.2,-2.0,4.0,-2.0,7697.0,-8990.0,-6385.0,9359.0,9.0,-6.0,1.0,-2.0,-1.0,7.0,8609.0,-12453.0,-2552.0,5720.0,3.0,0.0,-2.0,1.0
2022-05-08 16:20:28.319900-07:00,635.1,737.3,654.6,889.8,350.6,307.4,903.4,701.9,3461.3,3467.4,1073.8,705.2,529.8,3475.9,1345.8,817.7,3447.9,3454.0,361.5,319.7,323.6,314.4,286.7,256.1,3461.3,3467.4,498.8,387.9,486.1,1057.3,959.4,450.6,0.0,1.0,6.0,7697.0,-8991.0,-6384.0,9359.0,7.0,20.0,13.0,1.0,-8.0,9.0,8610.0,-12453.0,-2552.0,5720.0,7.0,11.0,7.0,1.0
2022-05-08 16:20:28.409284-07:00,635.1,738.9,653.0,902.5,350.6,307.4,903.4,702.8,3461.3,3471.0,1077.3,709.3,529.8,3475.9,1345.8,816.0,3441.9,3454.0,361.5,319.7,316.7,312.0,291.3,256.1,3466.1,3467.4,498.8,387.9,494.8,1051.3,961.1,450.6,-3.0,3.0,1.0,7695.0,-8996.0,-6384.0,9356.0,-7.0,14.0,-2.0,-4.0,-5.0,3.0,8608.0,-12456.0,-2551.0,5717.0,-10.0,9.0,8.0,1.0
