Time,P0,P1,P2,P3,P4,P5,P6,P7,P8,P9,P10,P11,P12,P13,P14,P15,P16,P17,P18,P19,P20,P21,P22,P23,P24,P25,P26,P27,P28,P29,P30,P31,ECG,AX0,AY0,AZ0,QW0,QX0,QY0,QZ0,GX0,GY0,GZ0,AX1,AY1,AZ1,QW1,QX1,QY1,QZ1,GX1,GY1,GZ1
2022-05-08 18:21:31.979485-07:00,850.3,905.0,1352.1,935.6,719.2,467.1,1485.6,929.6,3466.1,3474.6,640.0,850.3,405.9,3486.8,816.0,742.2,3477.1,3469.8,405.1,553.8,413.7,476.6,237.1,234.8,3481.9,3472.2,594.7,466.4,695.4,1040.9,1186.7,510.7,2.0,0.0,0.0,10881.0,9957.0,5422.0,4637.0,-5.0,-27.0,6.0,4.0,-3.0,9.0,12117.0,10124.0,3820.0,2130.0,-4.0,-1.0,1.0,1.0
2022-05-08 18:21:32.099961-07:00,850.3,905.0,1359.4,945.8,719.2,467.1,1481.9,928.8,3466.1,3474.6,629.5,854.5,405.9,3486.8,811.0,739.7,3478.3,3477.1,405.1,553.8,416.1,479.0,237.1,234.8,3477.1,3472.2,594.7,466.4,692.9,1036.6,1186.7,510.7,3.0,-5.0,0.0,10888.0,9964.0,5399.0,4632.0,-31.0,-80.0,40.0,9.0,4.0,13.0,12120.0,10121.0,3818.0,2132.0,-4.0,-3.0,13.0,1.0
2022-05-08 18:21:32.220293-07:00,848.6,909.3,1359.4,945.8,715.1,467.1,1481.9,928.8,3467.4,3475.9,629.5,854.5,411.4,3497.8,811.0,739.7,3478.3,3477.1,406.7,550.6,416.1,479.0,235.5,237.1,3477.1,3472.2,590.7,467.9,692.9,1036.6,1188.5,505.9,11.0,25.0,-5.0,10907.0,9982.0,5333.0,4627.0,-39.0,-138.0,91.0,2.0,5.0,9.0,12122.0,10120.0,3807.0,2140.0,-6.0,-12.0,27.0,1.0
2022-05-08 18:21:32.221017-07:00,848.6,909.3,1359.4,936.4,715.1,467.1,1481.9,931.3,3467.4,3475.9,631.1,858.7,411.4,3491.7,818.5,738.9,3467.4,3472.2,402.0,550.6,416.1,475.8,235.5,237.1,3478.3,3479.5,588.3,467.9,697.0,1042.6,1188.5,505.9,7.0,-7.0,9.0,10928.0,9987.0,5295.0,4608.0,-7.0,-79.0,-12.0,5.0,-4.0,13.0,12127.0,10117.0,3799.0,2141.0,-7.0,5.0,0.0,1.0
2022-05-08 18:21:32.249751-07:00,852.8,912.7,1354.0,936.4,718.4,467.1,1481.9,931.3,3479.5,3473.4,627.0,858.7,412.9,3491.7,818.5,738.9,3467.4,3472.2,402.0,550.6,416.1,479.8,238.6,242.4,3478.3,3479.5,588.3,466.4,697.0,1040.9,1184.1,510.7,3.0,-3.0,6.0,10939.0,9999.0,5265.0,4593.0,-28.0,-104.0,44.0,5.0,0.0,15.0,12130.0,10113.0,3797.0,2145.0,-14.0,10.0,20.0,1.0
2022-05-08 18:21:32.252084-07:00,852.8,912.7,1354.0,943.2,718.4,469.5,1474.6,927.1,3479.5,3473.4,627.0,857.0,412.9,3492.9,813.5,743.0,3477.1,3472.2,402.8,550.6,419.2,479.8,238.6,242.4,3481.9,3480.7,588.3,466.4,692.1,1040.9,1184.1,510.7,15.0,16.0,7.0,10950.0,10007.0,5231.0,4585.0,4.0,-49.0,1.0,3.0,2.0,-1.0,12131.0,10112.0,3794.0,2152.0,13.0,21.0,0.0,1.0
2022-05-08 18:21:32.252697-07:00,849.5,908.4,1353.1,943.2,715.1,469.5,1474.6,927.1,3478.3,3472.2,627.8,857.0,416.1,3492.9,813.5,743.0,3477.1,3472.2,402.8,554.6,419.2,482.2,240.9,237.8,3481.9,3480.7,588.3,467.1,692.1,1038.3,1189.4,506.7,4.0,0.0,1.0,10947.0,10012.0,5238.0,4575.0,37.0,47.0,-40.0,1.0,0.0,10.0,12124.0,10116.0,3804.0,2154.0,13.0,16.0,-13.0,1.0
2022-05-08 18:21:32.253113-07:00,849.5,908.4,1353.1,943.2,715.1,469.5,1474.6,927.1,3478.3,3472.2,627.8,857.0,416.1,3492.9,813.5,743.0,3477.1,3472.2,402.8,554.6,419.2,482.2,240.9,237.8,3481.9,3480.7,588.3,467.1,692.1,1038.3,1189.4,506.7,4.0,0.0,1.0,10947.0,10012.0,5238.0,4575.0,37.0,47.0,-40.0,1.0,0.0,10.0,12124.0,10116.0,3804.0,2154.0,13.0,16.0,-13.0,1.0
2022-05-08 18:21:32.399570-07:00,847.0,912.7,1355.8,939.0,720.0,470.3,1476.4,932.2,3475.9,3469.8,627.8,856.2,408.2,3492.9,816.9,737.3,3488.0,3480.7,402.8,550.6,420.0,478.2,234.8,231.7,3488.0,3477.1,589.1,468.7,697.0,1039.2,1185.0,510.7,7.0,3.0,6.0,10936.0,10007.0,5276.0,4569.0,35.0,26.0,-28.0,2.0,-2.0,7.0,12116.0,10121.0,3815.0,2156.0,19.0,18.0,-10.0,1.0
2022-05-08 18:21:32.400619-07:00,847.0,912.7,1355.8,941.5,716.7,469.5,1477.3,934.7,3475.9,3469.8,627.8,849.5,405.9,3497.8,821.9,739.7,3480.7,3473.4,402.0,553.8,417.6,478.2,234.8,231.7,3478.3,3474.6,589.9,464.0,693.8,1039.2,1185.0,510.7,3.0,-7.0,1.0,10928.0,10006.0,5297.0,4565.0,14.0,25.0,-22.0,2.0,-2.0,11.0,12110.0,10124.0,3824.0,2158.0,10.0,23.0,-9.0,1.0
2022-05-08 18:21:32.401909-07:00,852.8,903.4,1357.6,935.6,716.7,469.5,1477.3,934.7,3469.8,3471.0,624.6,852.0,405.9,3497.8,821.9,739.7,3480.7,3473.4,402.0,553.8,415.3,475.8,238.6,237.8,3478.3,3474.6,589.9,464.0,692.1,1034.9,1185.9,521.8,9.0,10.0,-4.0,10922.0,10009.0,5304.0,4564.0,5.0,8.0,7.0,4.0,2.0,6.0,12107.0,10126.0,3829.0,2161.0,3.0,10.0,3.0,1.0
2022-05-08 18:21:32.460431-07:00,852.8,903.4,1357.6,935.6,719.2,467.1,1479.2,933.0,3469.8,3471.0,624.6,852.0,403.5,3486.8,816.0,736.5,3478.3,3480.7,398.1,548.2,415.3,475.8,238.6,237.8,3477.1,3472.2,586.7,463.2,692.1,1034.9,1185.9,521.8,7.0,-2.0,-4.0,10922.0,10009.0,5305.0,4562.0,23.0,-5.0,-12.0,4.0,-1.0,6.0,12106.0,10126.0,3830.0,2162.0,13.0,9.0,-8.0,1.0
2022-05-08 18:21:32.580348-07:00,847.8,905.0,1354.9,938.1,719.2,467.1,1479.2,933.0,3468.6,3478.3,626.2,858.7,403.5,3486.8,816.0,736.5,3478.3,3480.7,398.1,548.2,418.4,481.4,238.6,231.7,3477.1,3472.2,586.7,463.2,697.9,1043.5,1189.4,508.3,5.0,2.0,2.0,10918.0,10013.0,5310.0,4557.0,9.0,3.0,-17.0,3.0,-1.0,10.0,12104.0,10129.0,3831.0,2161.0,3.0,4.0,-7.0,1.0
2022-05-08 18:21:32.699625-07:00,847.8,905.0,1354.9,938.1,718.4,468.7,1477.3,931.3,3468.6,3478.3,626.2,858.7,410.6,3486.8,817.7,738.9,3484.4,3479.5,409.8,549.8,418.4,481.4,238.6,231.7,3481.9,3481.9,588.3,466.4,697.9,1043.5,1189.4,508.3,3.0,1.0,3.0,10916.0,10015.0,5316.0,4550.0,19.0,7.0,-13.0,1.0,-1.0,8.0,12101.0,10132.0,3832.0,2161.0,12.0,6.0,-7.0,1.0
2022-05-08 18:21:32.700602-07:00,847.8,903.4,1354.9,936.4,718.4,468.7,1477.3,931.3,3474.6,3479.5,627.0,858.7,410.6,3486.8,817.7,738.9,3484.4,3479.5,409.8,549.8,416.1,480.6,236.3,234.8,3481.9,3481.9,588.3,466.4,693.8,1042.6,1184.1,506.7,5.0,6.0,-1.0,10912.0,10016.0,5325.0,4548.0,16.0,18.0,-19.0,3.0,-2.0,13.0,12101.0,10132.0,3833.0,2162.0,5.0,11.0,-6.0,1.0
2022-05-08 18:21:32.701722-07:00,844.4,903.4,1354.9,936.4,715.9,474.3,1476.4,924.5,3477.1,3479.5,627.0,858.7,412.9,3491.7,820.2,735.6,3474.6,3485.6,400.4,548.2,416.1,480.6,236.3,237.1,3477.1,3478.3,592.3,464.8,693.8,1042.6,1184.1,507.5,3.0,1.0,2.0,10908.0,10018.0,5336.0,4539.0,30.0,9.0,-28.0,1.0,-1.0,6.0,12097.0,10134.0,3837.0,2162.0,11.0,10.0,-9.0,1.0
2022-05-08 18:21:32.760401-07:00,844.4,901.7,1357.6,936.4,715.9,474.3,1476.4,925.4,3477.1,3473.4,627.0,855.3,412.9,3491.7,820.2,738.1,3472.2,3485.6,400.4,548.2,416.1,479.0,236.3,237.1,3475.9,3478.3,592.3,464.8,690.5,1031.4,1179.7,507.5,3.0,-2.0,2.0,10905.0,10021.0,5344.0,4532.0,17.0,4.0,-9.0,2.0,-3.0,6.0,12096.0,10135.0,3838.0,2161.0,8.0,1.0,-2.0,1.0
2022-05-08 18:21:32.761278-07:00,851.1,901.7,1357.6,936.4,717.5,471.9,1473.6,925.4,3467.4,3473.4,627.0,855.3,407.5,3499.0,816.0,738.1,3472.2,3479.5,400.4,553.0,416.1,479.0,236.3,235.5,3475.9,3478.3,592.3,467.9,690.5,1031.4,1179.7,508.3,8.0,3.0,0.0,10902.0,10025.0,5345.0,4530.0,8.0,0.0,-4.0,4.0,0.0,5.0,12096.0,10135.0,3838.0,2161.0,6.0,5.0,-2.0,1.0
2022-05-08 18:21:32.879536-07:00,851.1,903.4,1346.7,938.1,717.5,471.9,1473.6,928.8,3467.4,3480.7,625.4,857.9,407.5,3499.0,816.0,745.5,3480.7,3479.5,400.4,553.0,417.6,480.6,235.5,235.5,3478.3,3478.3,592.3,467.9,695.4,1031.4,1181.5,508.3,9.0,0.0,0.0,10901.0,10025.0,5346.0,4530.0,5.0,-8.0,4.0,4.0,0.0,2.0,12096.0,10135.0,3838.0,2161.0,2.0,-2.0,3.0,1.0
2022-05-08 18:21:32.881160-07:00,850.3,903.4,1346.7,938.1,714.2,464.0,1484.7,928.8,3479.5,3480.7,625.4,857.9,414.5,3500.2,818.5,745.5,3480.7,3485.6,402.8,550.6,417.6,480.6,235.5,237.1,3478.3,3473.4,593.1,471.1,695.4,1031.4,1181.5,505.9,10.0,6.0,-2.0,10901.0,10025.0,5346.0,4530.0,-6.0,-5.0,9.0,3.0,0.0,7.0,12096.0,10135.0,3838.0,2161.0,-4.0,-6.0,3.0,1.0
2022-05-08 18:21:32.969516-07:00,850.3,906.7,1355.8,928.8,714.2,464.0,1484.7,916.9,3479.5,3483.2,627.0,854.5,414.5,3500.2,818.5,735.6,3483.2,3485.6,402.8,550.6,419.2,480.6,231.7,237.1,3478.3,3473.4,593.1,471.1,692.1,1037.5,1184.1,505.9,2.0,0.0,2.0,10901.0,10025.0,5345.0,4529.0,5.0,0.0,-5.0,1.0,-2.0,9.0,12096.0,10135.0,3838.0,2161.0,4.0,-2.0,-3.0,1.0
2022-05-08 18:21:32.970484-07:00,848.6,904.2,1355.8,928.8,717.5,471.1,1470.0,916.9,3478.3,3473.4,627.0,854.5,410.6,3491.7,816.0,735.6,3483.2,3469.8,402.8,551.4,419.2,480.6,234.8,234.8,3478.3,3481.9,589.9,467.9,692.1,1037.5,1180.6,503.6,5.0,8.0,5.0,10897.0,10031.0,5345.0,4526.0,28.0,-11.0,14.0,2.0,0.0,9.0,12092.0,10140.0,3838.0,2160.0,18.0,5.0,3.0,1.0
2022-05-08 18:21:33.059669-07:00,848.6,904.2,1351.2,939.8,717.5,471.1,1468.1,927.9,3478.3,3473.4,620.5,854.5,410.6,3491.7,812.7,745.5,3480.7,3472.2,402.8,551.4,410.6,478.2,234.8,234.8,3477.1,3488.0,589.9,467.9,695.4,1033.2,1180.6,503.6,4.0,-2.0,5.0,10897.0,10031.0,5346.0,4527.0,9.0,7.0,1.0,2.0,-2.0,9.0,12091.0,10140.0,3841.0,2161.0,4.0,12.0,0.0,1.0
2022-05-08 18:21:33.061677-07:00,847.8,901.7,1351.2,939.8,719.2,475.8,1468.1,927.9,3472.2,3467.4,620.5,854.5,416.1,3496.6,812.7,745.5,3480.7,3472.2,403.5,549.8,410.6,478.2,239.3,233.3,3477.1,3488.0,593.1,464.8,695.4,1033.2,1185.9,506.7,8.0,2.0,1.0,10894.0,10031.0,5350.0,4530.0,-7.0,17.0,-3.0,2.0,-2.0,3.0,12090.0,10141.0,3841.0,2161.0,-6.0,3.0,0.0,1.0
2022-05-08 18:21:33.149579-07:00,847.8,901.7,1353.1,933.9,719.2,475.8,1470.0,929.6,3472.2,3467.4,627.8,851.1,416.1,3496.6,819.4,741.4,3467.4,3488.0,403.5,549.8,410.6,479.8,239.3,233.3,3483.2,3474.6,593.1,464.8,690.5,1040.1,1185.9,506.7,5.0,1.0,-3.0,10892.0,10032.0,5352.0,4530.0,14.0,-1.0,4.0,3.0,-5.0,2.0,12090.0,10141.0,3841.0,2161.0,5.0,5.0,1.0,1.0
2022-05-08 18:21:33.151026-07:00,847.8,905.9,1353.1,933.9,711.8,474.3,1470.0,929.6,3478.3,3479.5,627.8,851.1,408.2,3497.8,819.4,741.4,3467.4,3488.0,405.1,549.8,410.6,479.8,234.8,234.8,3483.2,3474.6,585.9,464.8,690.5,1040.1,1181.5,505.9,6.0,-3.0,4.0,10892.0,10032.0,5352.0,4530.0,3.0,-1.0,-2.0,1.0,-3.0,9.0,12090.0,10141.0,3841.0,2161.0,-1.0,-2.0,0.0,1.0
2022-05-08 18:21:33.210419-07:00,847.8,905.9,1338.6,946.6,711.8,474.3,1465.4,927.9,3478.3,3479.5,626.2,857.0,408.2,3497.8,814.4,736.5,3474.6,3478.3,405.1,549.8,418.4,478.2,234.8,234.8,3481.9,3473.4,585.9,464.8,699.5,1033.2,1181.5,505.9,9.0,1.0,1.0,10891.0,10033.0,5352.0,4529.0,-4.0,7.0,2.0,5.0,-3.0,7.0,12090.0,10141.0,3841.0,2161.0,-4.0,4.0,-1.0,1.0
2022-05-08 18:21:33.329584-07:00,852.0,905.9,1339.5,946.6,720.8,471.1,1465.4,927.9,3472.2,3477.1,631.1,857.0,412.9,3499.0,814.4,736.5,3474.6,3478.3,404.3,551.4,418.4,480.6,237.8,240.1,3481.9,3473.4,588.3,464.0,699.5,1034.0,1179.7,510.7,11.0,4.0,0.0,10889.0,10035.0,5353.0,4528.0,10.0,6.0,-2.0,4.0,-2.0,3.0,12090.0,10141.0,3841.0,2161.0,2.0,4.0,0.0,1.0
2022-05-08 18:21:33.330582-07:00,852.0,905.9,1339.5,933.9,720.8,467.1,1470.9,927.1,3472.2,3477.1,631.1,852.8,412.9,3497.8,816.9,734.8,3467.4,3467.4,408.2,551.4,418.4,480.6,237.8,240.1,3483.2,3478.3,597.1,464.0,696.2,1034.0,1179.7,510.7,6.0,-2.0,-1.0,10889.0,10035.0,5353.0,4528.0,5.0,3.0,1.0,2.0,-2.0,2.0,12090.0,10141.0,3841.0,2161.0,3.0,3.0,-1.0,1.0
2022-05-08 18:21:33.449148-07:00,849.5,905.9,1351.2,933.9,717.5,467.1,1470.9,927.1,3471.0,3473.4,626.2,852.8,409.0,3497.8,816.9,734.8,3467.4,3467.4,408.2,550.6,418.4,478.2,239.3,234.8,3483.2,3478.3,597.1,464.0,696.2,1037.5,1179.7,504.4,7.0,-1.0,1.0,10891.0,10033.0,5352.0,4529.0,-13.0,-7.0,0.0,2.0,-2.0,1.0,12090.0,10141.0,3841.0,2161.0,-5.0,-5.0,2.0,1.0
2022-05-08 18:21:33.450535-07:00,849.5,905.9,1351.2,931.3,717.5,467.9,1468.1,928.8,3471.0,3473.4,626.2,853.7,409.0,3492.9,814.4,738.1,3481.9,3473.4,402.8,550.6,416.1,478.2,239.3,234.8,3483.2,3484.4,589.1,464.0,694.6,1037.5,1179.7,504.4,6.0,3.0,1.0,10891.0,10033.0,5352.0,4529.0,-6.0,-2.0,-2.0,4.0,-1.0,8.0,12090.0,10141.0,3841.0,2161.0,-12.0,-5.0,2.0,1.0
2022-05-08 18:21:33.452105-07:00,847.8,901.7,1355.8,931.3,718.4,467.9,1468.1,928.8,3478.3,3485.6,631.1,853.7,410.6,3492.9,814.4,738.1,3481.9,3473.4,402.8,550.6,416.1,476.6,231.7,235.5,3483.2,3484.4,589.1,463.2,694.6,1038.3,1181.5,512.3,7.0,0.0,3.0,10891.0,10034.0,5352.0,4528.0,11.0,-2.0,-1.0,2.0,-4.0,7.0,12091.0,10140.0,3841.0,2161.0,6.0,-4.0,0.0,1.0
2022-05-08 18:21:33.540284-07:00,847.8,901.7,1355.8,934.7,718.4,471.1,1468.1,933.0,3478.3,3485.6,631.1,853.7,410.6,3495.3,811.0,741.4,3478.3,3474.6,404.3,550.6,414.5,476.6,231.7,235.5,3479.5,3483.2,595.5,463.2,694.6,1038.3,1181.5,512.3,6.0,0.0,1.0,10891.0,10034.0,5352.0,4528.0,-7.0,-5.0,-2.0,3.0,-1.0,6.0,12091.0,10140.0,3841.0,2161.0,-4.0,-2.0,1.0,1.0
2022-05-08 18:21:33.569586-07:00,853.7,900.0,1348.5,931.3,720.8,471.1,1468.1,933.0,3478.3,3481.9,627.8,855.3,412.1,3495.3,811.0,741.4,3478.3,3474.6,404.3,549.8,416.8,483.0,240.1,237.1,3479.5,3483.2,595.5,464.8,700.3,1035.7,1184.1,503.6,6.0,1.0,-1.0,10891.0,10034.0,5352.0,4528.0,-1.0,-3.0,0.0,2.0,-1.0,1.0,12091.0,10140.0,3841.0,2161.0,-3.0,-6.0,1.0,1.0
2022-05-08 18:21:33.599835-07:00,853.7,900.0,1348.5,931.3,721.6,472.7,1461.7,927.9,3478.3,3481.9,627.8,855.3,409.0,3499.0,811.9,736.5,3484.4,3478.3,402.8,549.8,416.8,483.0,240.1,237.1,3479.5,3473.4,586.7,465.6,700.3,1035.7,1184.1,503.6,3.0,0.0,0.0,10891.0,10034.0,5352.0,4528.0,-1.0,-8.0,-3.0,1.0,-3.0,7.0,12092.0,10141.0,3838.0,2159.0,-1.0,-15.0,0.0,1.0
2022-05-08 18:21:33.689558-07:00,849.5,902.5,1355.8,940.7,721.6,472.7,1461.7,927.9,3477.1,3471.0,623.0,857.0,409.0,3499.0,811.9,736.5,3484.4,3478.3,402.8,549.8,417.6,476.6,238.6,238.6,3479.5,3473.4,586.7,465.6,693.8,1036.6,1183.2,508.3,6.0,2.0,0.0,10895.0,10034.0,5346.0,4526.0,-21.0,-19.0,9.0,3.0,-1.0,3.0,12095.0,10140.0,3834.0,2156.0,-15.0,-16.0,3.0,1.0
2022-05-08 18:21:33.719544-07:00,849.5,902.5,1355.8,940.7,726.6,464.8,1465.4,930.5,3477.1,3471.0,623.0,857.0,409.0,3496.6,816.9,731.5,3477.1,3479.5,405.1,553.8,417.6,476.6,238.6,238.6,3477.1,3474.6,583.5,467.9,693.8,1036.6,1183.2,508.3,7.0,-1.0,4.0,10900.0,10034.0,5339.0,4522.0,4.0,-19.0,-4.0,3.0,0.0,5.0,12100.0,10136.0,3828.0,2153.0,-3.0,-13.0,0.0,1.0
2022-05-08 18:21:33.749593-07:00,847.8,905.9,1351.2,930.5,726.6,464.8,1465.4,930.5,3475.9,3478.3,626.2,849.5,409.0,3496.6,816.9,731.5,3477.1,3479.5,405.1,553.8,414.5,480.6,239.3,238.6,3477.1,3474.6,583.5,467.9,694.6,1035.7,1181.5,505.1,7.0,-3.0,7.0,10903.0,10034.0,5334.0,4519.0,-15.0,-12.0,7.0,3.0,-1.0,6.0,12102.0,10136.0,3824.0,2150.0,-10.0,-13.0,3.0,1.0
2022-05-08 18:21:33.839581-07:00,847.8,905.9,1351.2,930.5,715.9,462.4,1463.5,924.5,3475.9,3478.3,626.2,849.5,412.1,3488.0,825.2,739.7,3469.8,3481.9,402.0,553.8,414.5,480.6,239.3,238.6,3484.4,3481.9,588.3,466.4,694.6,1035.7,1181.5,505.1,9.0,7.0,4.0,10904.0,10034.0,5333.0,4519.0,-4.0,-10.0,-1.0,4.0,1.0,4.0,12104.0,10135.0,3822.0,2149.0,-1.0,-7.0,1.0,1.0
2022-05-08 18:21:33.841240-07:00,847.0,900.0,1350.3,935.6,715.9,462.4,1463.5,926.2,3469.8,3474.6,623.8,850.3,412.1,3488.0,825.2,738.1,3479.5,3481.9,402.0,553.8,415.3,476.6,238.6,234.8,3478.3,3481.9,588.3,466.4,696.2,1045.2,1184.1,519.5,9.0,0.0,4.0,10904.0,10035.0,5332.0,4518.0,5.0,1.0,-1.0,1.0,-1.0,7.0,12104.0,10135.0,3822.0,2149.0,1.0,1.0,0.0,1.0
2022-05-08 18:21:33.900072-07:00,849.5,900.0,1350.3,935.6,715.9,467.1,1463.5,926.2,3473.4,3474.6,623.8,850.3,406.7,3495.3,817.7,738.1,3479.5,3475.9,402.8,550.6,415.3,476.6,238.6,235.5,3478.3,3485.6,588.3,463.2,696.2,1045.2,1184.1,509.9,7.0,4.0,9.0,10908.0,10032.0,5329.0,4519.0,-26.0,-18.0,7.0,3.0,-7.0,16.0,12105.0,10133.0,3821.0,2150.0,-21.0,-4.0,6.0,1.0
2022-05-08 18:21:34.019539-07:00,849.5,903.4,1347.6,927.1,715.9,467.1,1463.5,923.7,3473.4,3475.9,627.0,860.4,406.7,3495.3,817.7,734.8,3475.9,3475.9,402.8,550.6,419.2,475.8,237.1,235.5,3483.2,3485.6,588.3,463.2,691.3,1038.3,1182.3,509.9,6.0,4.0,3.0,10903.0,10032.0,5334.0,4522.0,25.0,33.0,-8.0,3.0,2.0,12.0,12106.0,10131.0,3823.0,2152.0,15.0,15.0,-2.0,1.0
2022-05-08 18:21:34.080535-07:00,847.0,903.4,1347.6,927.1,715.1,462.4,1447.0,923.7,3474.6,3475.9,627.0,860.4,411.4,3496.6,814.4,734.8,3475.9,3474.6,402.0,553.8,419.2,475.8,237.1,231.7,3483.2,3477.1,581.8,464.0,691.3,1038.3,1182.3,507.5,9.0,2.0,-3.0,10900.0,10031.0,5340.0,4526.0,5.0,18.0,7.0,2.0,1.0,1.0,12103.0,10132.0,3827.0,2155.0,3.0,11.0,4.0,1.0
2022-05-08 18:21:34.081941-07:00,847.0,900.8,1350.3,935.6,715.1,462.4,1447.0,925.4,3474.6,3473.4,639.2,856.2,411.4,3496.6,814.4,737.3,3474.6,3474.6,402.0,553.8,413.7,474.3,231.7,231.7,3477.1,3477.1,581.8,464.0,692.1,1034.9,1180.6,507.5,8.0,0.0,0.0,10899.0,10030.0,5342.0,4528.0,4.0,-5.0,-4.0,2.0,-1.0,2.0,12103.0,10131.0,3829.0,2156.0,1.0,7.0,-3.0,1.0
2022-05-08 18:21:34.109466-07:00,847.8,900.8,1350.3,935.6,715.1,467.1,1467.2,925.4,3480.7,3473.4,639.2,856.2,412.1,3495.3,811.9,737.3,3474.6,3479.5,400.4,557.0,413.7,474.3,231.7,234.8,3477.1,3479.5,591.5,464.8,692.1,1034.9,1180.6,506.7,11.0,5.0,1.0,10898.0,10031.0,5343.0,4527.0,5.0,2.0,-2.0,4.0,1.0,7.0,12103.0,10131.0,3829.0,2156.0,5.0,3.0,0.0,1.0
2022-05-08 18:21:34.200439-07:00,847.8,899.1,1346.7,932.2,715.1,467.1,1463.5,929.6,3480.7,3479.5,629.5,858.7,412.1,3495.3,817.7,735.6,3472.2,3480.7,400.4,557.0,417.6,478.2,239.3,234.8,3472.2,3484.4,591.5,464.8,695.4,1033.2,1185.9,506.7,6.0,6.0,2.0,10898.0,10031.0,5343.0,4527.0,-1.0,3.0,-1.0,2.0,0.0,2.0,12103.0,10131.0,3829.0,2156.0,-3.0,8.0,-4.0,1.0
2022-05-08 18:21:34.201231-07:00,845.3,899.1,1346.7,932.2,718.4,467.9,1463.5,929.6,3472.2,3464.9,629.5,858.7,412.9,3507.5,817.7,735.6,3472.2,3480.7,405.9,554.6,417.6,478.2,235.5,237.1,3472.2,3484.4,585.1,467.9,695.4,1033.2,1183.2,511.5,6.0,1.0,2.0,10896.0,10033.0,5344.0,4527.0,14.0,13.0,-3.0,2.0,0.0,2.0,12102.0,10132.0,3829.0,2156.0,4.0,7.0,-2.0,1.0
2022-05-08 18:21:34.259585-07:00,845.3,899.1,1342.2,939.8,718.4,467.9,1458.9,922.0,3472.2,3464.9,626.2,855.3,412.9,3507.5,813.5,740.6,3477.1,3488.0,405.9,554.6,413.7,479.0,235.5,237.1,3475.9,3474.6,585.1,467.9,690.5,1033.2,1183.2,511.5,7.0,0.0,-3.0,10895.0,10033.0,5346.0,4527.0,-2.0,-6.0,5.0,2.0,-3.0,5.0,12102.0,10132.0,3829.0,2156.0,-5.0,1.0,1.0,1.0
2022-05-08 18:21:34.319561-07:00,844.4,905.9,1342.2,939.8,719.2,466.4,1458.9,922.0,3471.0,3472.2,626.2,855.3,410.6,3501.4,813.5,740.6,3477.1,3488.0,404.3,554.6,413.7,479.0,233.3,238.6,3475.9,3474.6,590.7,463.2,690.5,1033.2,1175.3,505.9,15.0,2.0,2.0,10895.0,10033.0,5346.0,4527.0,11.0,10.0,-6.0,6.0,0.0,6.0,12102.0,10132.0,3829.0,2156.0,5.0,0.0,-5.0,1.0
2022-05-08 18:21:34.349581-07:00,844.4,905.9,1348.5,938.1,719.2,466.4,1456.2,929.6,3471.0,3472.2,627.0,858.7,410.6,3501.4,818.5,739.7,3475.9,3472.2,404.3,554.6,417.6,479.0,233.3,238.6,3479.5,3478.3,590.7,463.2,698.7,1035.7,1175.3,505.9,6.0,1.0,3.0,10893.0,10035.0,5347.0,4527.0,3.0,5.0,-5.0,1.0,-3.0,5.0,12102.0,10132.0,3829.0,2156.0,3.0,7.0,-1.0,1.0
2022-05-08 18:21:34.410454-07:00,847.0,894.9,1348.5,938.1,718.4,467.1,1456.2,929.6,3468.6,3477.1,627.0,858.7,409.8,3488.0,818.5,739.7,3475.9,3472.2,406.7,553.0,417.6,479.0,238.6,234.8,3479.5,3478.3,594.7,460.8,698.7,1035.7,1183.2,507.5,6.0,1.0,0.0,10892.0,10036.0,5347.0,4527.0,9.0,9.0,-5.0,1.0,3.0,1.0,12102.0,10132.0,3829.0,2156.0,7.0,8.0,-2.0,1.0
2022-05-08 18:21:34.529783-07:00,847.0,894.9,1353.1,936.4,718.4,467.9,1470.9,927.1,3468.6,3477.1,635.1,856.2,409.8,3495.3,818.5,731.5,3474.6,3484.4,404.3,553.0,416.1,475.0,238.6,234.8,3475.9,3477.1,591.5,460.8,692.1,1038.3,1183.2,507.5,6.0,-1.0,-2.0,10892.0,10035.0,5350.0,4528.0,7.0,1.0,1.0,3.0,0.0,0.0,12102.0,10132.0,3829.0,2156.0,1.0,-2.0,2.0,1.0
2022-05-08 18:21:34.531127-07:00,846.1,900.0,1343.1,936.4,715.9,467.9,1470.9,927.1,3478.3,3477.1,625.4,856.2,411.4,3495.3,818.5,731.5,3474.6,3484.4,404.3,553.8,416.1,481.4,238.6,231.7,3475.9,3477.1,591.5,467.9,692.1,1034.9,1186.7,512.3,13.0,2.0,0.0,10892.0,10034.0,5349.0,4527.0,-7.0,-12.0,2.0,3.0,2.0,0.0,12103.0,10132.0,3828.0,2155.0,-10.0,-8.0,2.0,1.0
2022-05-08 18:21:34.559383-07:00,846.1,900.0,1343.1,939.8,715.9,469.5,1464.4,922.0,3478.3,3477.1,625.4,851.1,411.4,3495.3,817.7,737.3,3471.0,3473.4,405.9,553.8,418.4,481.4,238.6,231.7,3474.6,3472.2,588.3,467.9,695.4,1034.9,1186.7,512.3,7.0,0.0,6.0,10894.0,10036.0,5344.0,4523.0,-10.0,-20.0,5.0,2.0,0.0,7.0,12104.0,10131.0,3827.0,2155.0,-9.0,-3.0,2.0,1.0
2022-05-08 18:21:34.590200-07:00,844.4,901.7,1344.0,939.8,715.9,469.5,1464.4,922.0,3467.4,3472.2,630.3,851.1,411.4,3495.3,817.7,737.3,3471.0,3473.4,405.9,549.8,418.4,480.6,234.8,231.7,3474.6,3472.2,588.3,463.2,695.4,1036.6,1185.9,512.3,7.0,-11.0,7.0,10901.0,10033.0,5332.0,4527.0,-100.0,-23.0,80.0,8.0,20.0,4.0,12106.0,10128.0,3827.0,2158.0,-3.0,16.0,16.0,1.0
2022-05-08 18:21:34.739560-07:00,844.4,901.7,1344.0,935.6,715.9,465.6,1457.1,926.2,3467.4,3472.2,630.3,858.7,411.4,3499.0,822.7,739.7,3477.1,3478.3,401.2,549.8,420.0,480.6,234.8,231.7,3488.0,3488.0,585.9,463.2,698.7,1036.6,1185.9,512.3,-15.0,-41.0,15.0,10956.0,9988.0,5228.0,4617.0,-640.0,-155.0,519.0,16.0,36.0,48.0,12139.0,10091.0,3797.0,2194.0,-292.0,-14.0,130.0,1.0
2022-05-08 18:21:34.743276-07:00,847.0,904.2,1344.9,935.6,720.8,465.6,1457.1,926.2,3484.4,3472.2,628.6,858.7,412.1,3499.0,822.7,739.7,3477.1,3478.3,401.2,554.6,420.0,480.6,234.8,237.8,3488.0,3488.0,585.9,474.3,698.7,1043.5,1196.5,512.3,-14.0,-31.0,31.0,11146.0,9904.0,4748.0,4856.0,-1258.0,-846.0,1213.0,16.0,-40.0,-6.0,12228.0,9980.0,3742.0,2307.0,-601.0,115.0,278.0,1.0
2022-05-08 18:21:34.770030-07:00,847.0,904.2,1344.9,937.3,720.8,471.9,1494.0,927.1,3484.4,3472.2,628.6,857.0,409.8,3502.7,911.8,744.7,3478.3,3488.0,403.5,549.8,420.8,480.6,234.8,237.8,3480.7,3477.1,590.7,464.0,701.9,1043.5,1196.5,512.3,81.0,113.0,17.0,11480.0,9679.0,4048.0,5155.0,-1797.0,-293.0,873.0,-25.0,80.0,-124.0,12433.0,9711.0,3646.0,2503.0,-1230.0,11.0,237.0,1.0
2022-05-08 18:21:34.889614-07:00,843.6,973.1,1354.9,939.8,720.8,471.9,1494.0,927.1,3474.6,3480.7,626.2,854.5,409.8,3502.7,911.8,744.7,3478.3,3488.0,403.5,549.8,416.1,475.0,234.8,241.6,3480.7,3477.1,590.7,464.0,700.3,1061.7,1359.4,505.9,0.0,-46.0,-54.0,11847.0,9214.0,3572.0,5517.0,-1390.0,-218.0,473.0,27.0,-70.0,-28.0,12737.0,9308.0,3513.0,2689.0,-924.0,21.0,132.0,1.0
2022-05-08 18:21:34.892446-07:00,843.6,973.1,1354.9,939.8,715.1,472.7,1550.6,930.5,3474.6,3480.7,626.2,854.5,407.5,3499.0,1051.3,765.3,3474.6,3483.2,402.0,553.8,416.1,475.0,234.8,241.6,3483.2,3489.2,589.1,468.7,700.3,1061.7,1359.4,505.9,-29.0,-41.0,-39.0,12004.0,9051.0,3233.0,5653.0,-195.0,-572.0,599.0,-10.0,9.0,18.0,12837.0,9161.0,3470.0,2775.0,-17.0,52.0,94.0,1.0
2022-05-08 18:21:34.893422-07:00,837.7,1029.7,1363.9,939.8,715.1,472.7,1550.6,930.5,3478.3,3478.3,632.7,857.0,407.5,3499.0,1051.3,765.3,3474.6,3483.2,402.0,553.8,416.1,479.0,235.5,237.8,3483.2,3489.2,589.1,468.7,701.1,1081.6,1428.6,506.7,61.0,39.0,-15.0,12026.0,9131.0,2812.0,5703.0,-412.0,-869.0,667.0,40.0,79.0,28.0,12850.0,9130.0,3447.0,2842.0,-389.0,39.0,167.0,1.0
2022-05-08 18:21:35.009928-07:00,837.7,1029.7,1363.9,939.8,720.0,464.8,1539.4,946.6,3478.3,3478.3,632.7,857.0,409.8,3496.6,1082.5,788.6,3467.4,3479.5,397.3,548.2,416.1,479.0,235.5,237.8,3473.4,3483.2,593.9,474.3,701.1,1081.6,1428.6,506.7,3.0,-55.0,-4.0,12216.0,8980.0,2191.0,5811.0,-1475.0,-820.0,871.0,-9.0,9.0,10.0,13009.0,8892.0,3343.0,2993.0,-1053.0,5.0,302.0,1.0
2022-05-08 18:21:35.011250-07:00,839.4,1034.0,1375.7,939.0,720.0,464.8,1539.4,946.6,3468.6,3474.6,622.2,855.3,409.8,3496.6,1082.5,788.6,3467.4,3479.5,397.3,548.2,425.5,480.6,240.1,238.6,3473.4,3483.2,593.9,474.3,699.5,1090.3,1456.2,506.7,-50.0,35.0,-15.0,12456.0,8672.0,1438.0,6001.0,-1451.0,-916.0,984.0,-73.0,4.0,-27.0,13234.0,8537.0,3172.0,3220.0,-1065.0,19.0,367.0,1.0
2022-05-08 18:21:35.039616-07:00,832.7,1034.0,1375.7,939.0,728.2,468.7,1524.5,943.2,3478.3,3474.6,622.2,855.3,410.6,3496.6,1113.9,780.3,3484.4,3477.1,405.1,555.4,425.5,480.6,240.1,240.1,3481.9,3479.5,586.7,474.3,699.5,1090.3,1456.2,512.3,-28.0,55.0,-8.0,12669.0,8374.0,730.0,6106.0,-1390.0,-911.0,621.0,-53.0,1.0,-47.0,13427.0,8206.0,3015.0,3424.0,-894.0,-5.0,279.0,1.0
2022-05-08 18:21:35.099841-07:00,832.7,1027.1,1366.6,944.9,728.2,468.7,1524.5,930.5,3478.3,3472.2,648.1,854.5,410.6,3496.6,1113.9,790.2,3478.3,3477.1,405.1,555.4,430.2,482.2,234.0,240.1,3477.1,3479.5,586.7,474.3,702.8,1119.1,1495.8,512.3,-37.0,43.0,-85.0,12761.0,8293.0,233.0,6064.0,-184.0,-954.0,314.0,-9.0,-8.0,-16.0,13468.0,8116.0,2960.0,3525.0,77.0,72.0,136.0,1.0
2022-05-08 18:21:35.160676-07:00,833.6,1027.1,1366.6,944.9,732.3,471.9,1502.3,930.5,3475.9,3472.2,648.1,854.5,420.0,3490.5,1243.5,790.2,3478.3,3477.1,399.6,546.6,430.2,482.2,234.0,237.8,3477.1,3483.2,586.7,477.4,702.8,1119.1,1495.8,508.3,-7.0,-49.0,-88.0,12759.0,8438.0,-260.0,5862.0,-136.0,-1433.0,193.0,18.0,-37.0,-62.0,13402.0,8211.0,2972.0,3543.0,360.0,-5.0,74.0,1.0
2022-05-08 18:21:35.189607-07:00,833.6,1014.2,1383.9,945.8,732.3,471.9,1502.3,920.3,3475.9,3483.2,666.0,861.2,420.0,3490.5,1243.5,798.5,3485.6,3477.1,399.6,546.6,435.7,483.0,244.7,237.8,3467.4,3483.2,586.7,477.4,701.1,1148.0,1562.7,508.3,-29.0,-38.0,-33.0,12714.0,8611.0,-795.0,5658.0,-194.0,-1224.0,404.0,74.0,-37.0,-42.0,13326.0,8347.0,2954.0,3527.0,139.0,-53.0,163.0,1.0
2022-05-08 18:21:35.309566-07:00,837.7,1014.2,1383.9,945.8,734.0,470.3,1498.6,920.3,3474.6,3483.2,666.0,861.2,412.9,3495.3,1260.4,798.5,3485.6,3479.5,403.5,554.6,435.7,483.0,244.7,241.6,3467.4,3478.3,585.9,471.1,701.1,1148.0,1562.7,523.4,32.0,3.0,39.0,12686.0,8652.0,-1257.0,5575.0,-229.0,-751.0,392.0,9.0,-31.0,10.0,13301.0,8415.0,2861.0,3537.0,131.0,-200.0,153.0,1.0
2022-05-08 18:21:35.340379-07:00,837.7,985.9,1389.4,951.7,734.0,470.3,1498.6,929.6,3474.6,3473.4,684.0,861.2,412.9,3495.3,1260.4,807.7,3479.5,3479.5,403.5,554.6,445.1,485.3,240.1,241.6,3483.2,3478.3,585.9,471.1,709.3,1155.9,1564.6,523.4,26.0,6.0,41.0,12646.0,8709.0,-1536.0,5506.0,30.0,-611.0,131.0,2.0,-8.0,33.0,13241.0,8536.0,2804.0,3520.0,379.0,-145.0,88.0,1.0
2022-05-08 18:21:35.341270-07:00,845.3,964.5,1389.4,951.7,738.9,473.5,1471.8,929.6,3479.5,3478.3,684.0,861.2,412.1,3494.1,1249.7,807.7,3479.5,3475.9,400.4,555.4,445.1,485.3,240.1,236.3,3483.2,3485.6,589.1,475.8,709.3,1155.9,1568.3,509.1,18.0,38.0,28.0,12565.0,8852.0,-1682.0,5420.0,364.0,-422.0,17.0,0.0,-17.0,-19.0,13119.0,8738.0,2801.0,3483.0,629.0,-125.0,55.0,1.0
2022-05-08 18:21:35.399622-07:00,845.3,964.5,1401.2,962.0,738.9,473.5,1477.3,922.0,3479.5,3478.3,686.4,865.4,412.1,3494.1,1234.6,805.2,3478.3,3480.7,400.4,555.4,449.0,481.4,240.1,236.3,3475.9,3477.1,589.1,475.8,709.3,1171.8,1568.3,509.1,44.0,89.0,-64.0,12475.0,8992.0,-1668.0,5402.0,269.0,-29.0,-40.0,-1.0,5.0,51.0,13004.0,8925.0,2806.0,3436.0,384.0,-47.0,41.0,1.0
2022-05-08 18:21:35.489649-07:00,852.8,948.3,1401.2,962.0,738.1,467.1,1477.3,922.0,3474.6,3478.3,686.4,865.4,412.1,3491.7,1234.6,805.2,3478.3,3480.7,403.5,558.6,449.0,481.4,240.9,240.1,3475.9,3477.1,587.5,467.1,709.3,1171.8,1566.5,505.1,-2.0,17.0,1.0,12422.0,9167.0,-1689.0,5219.0,518.0,-578.0,-401.0,-2.0,-22.0,0.0,12863.0,9144.0,2849.0,3352.0,786.0,-59.0,-70.0,1.0
2022-05-08 18:21:35.490949-07:00,852.8,948.3,1411.3,968.8,738.1,467.1,1521.8,920.3,3474.6,3478.3,694.6,862.9,412.1,3491.7,1235.5,815.2,3471.0,3489.2,403.5,558.6,445.9,486.1,240.9,240.1,3478.3,3475.9,587.5,467.1,714.2,1196.5,1566.5,505.1,29.0,-1.0,67.0,12298.0,9455.0,-1635.0,5012.0,625.0,-203.0,-332.0,86.0,24.0,-15.0,12649.0,9443.0,2952.0,3248.0,909.0,73.0,-101.0,1.0
2022-05-08 18:21:35.549522-07:00,854.5,941.5,1411.3,968.8,747.2,467.1,1521.8,920.3,3469.8,3474.6,694.6,862.9,409.0,3500.2,1235.5,815.2,3471.0,3489.2,404.3,562.6,445.9,486.1,243.2,239.3,3478.3,3475.9,585.9,459.3,714.2,1196.5,1560.9,512.3,8.0,-87.0,28.0,12205.0,9649.0,-1519.0,4906.0,465.0,-90.0,-309.0,28.0,-14.0,61.0,12494.0,9620.0,3076.0,3212.0,510.0,218.0,-58.0,1.0
2022-05-08 18:21:35.639779-07:00,854.5,941.5,1423.1,969.6,747.2,467.1,1473.6,926.2,3469.8,3474.6,698.7,857.9,409.0,3500.2,1216.8,819.4,3478.3,3485.6,404.3,562.6,449.0,483.0,243.2,239.3,3485.6,3483.2,585.9,459.3,719.2,1216.8,1560.9,512.3,33.0,3.0,58.0,12071.0,9879.0,-1375.0,4823.0,805.0,37.0,-393.0,9.0,-32.0,26.0,12297.0,9828.0,3224.0,3201.0,850.0,266.0,-67.0,1.0
2022-05-08 18:21:35.669617-07:00,853.7,934.7,1414.0,969.6,743.0,469.5,1473.6,926.2,3479.5,3469.8,697.0,857.9,409.0,3492.9,1216.8,819.4,3478.3,3485.6,396.5,559.4,449.0,481.4,240.1,240.9,3485.6,3483.2,587.5,454.5,719.2,1205.3,1544.1,543.4,0.0,27.0,-1.0,11917.0,10152.0,-1106.0,4704.0,798.0,58.0,-651.0,-4.0,-35.0,-5.0,12055.0,10067.0,3418.0,3175.0,850.0,289.0,-117.0,1.0
2022-05-08 18:21:35.699285-07:00,853.7,934.7,1414.0,963.7,743.0,460.0,1459.8,926.2,3479.5,3469.8,697.0,860.4,409.0,3495.3,1208.9,820.2,3477.1,3480.7,398.1,559.4,445.1,481.4,240.1,240.9,3479.5,3477.1,584.3,454.5,715.9,1205.3,1544.1,543.4,-36.0,35.0,-80.0,11723.0,10526.0,-709.0,4440.0,1354.0,-54.0,-1164.0,-22.0,-31.0,-41.0,11742.0,10390.0,3621.0,3082.0,1275.0,144.0,-183.0,1.0
2022-05-08 18:21:35.759464-07:00,853.7,926.2,1405.8,963.7,746.3,460.0,1459.8,926.2,3473.4,3480.7,698.7,860.4,414.5,3495.3,1208.9,820.2,3477.1,3480.7,398.1,561.8,445.1,478.2,237.8,244.7,3479.5,3477.1,584.3,448.2,715.9,1193.8,1517.1,541.8,-55.0,84.0,-104.0,11484.0,10981.0,-278.0,3985.0,1223.0,-359.0,-1313.0,-128.0,2.0,-103.0,11368.0,10775.0,3826.0,2912.0,1291.0,263.0,-219.0,1.0
2022-05-08 18:21:35.850100-07:00,853.7,926.2,1405.8,966.2,746.3,460.0,1441.5,923.7,3473.4,3480.7,698.7,863.7,414.5,3497.8,1194.7,811.0,3483.2,3475.9,395.0,561.8,442.7,478.2,237.8,244.7,3480.7,3474.6,581.8,448.2,705.2,1193.8,1517.1,541.8,-39.0,-9.0,-81.0,11242.0,11377.0,82.0,3554.0,1199.0,-295.0,-1045.0,-5.0,-25.0,-71.0,10978.0,11165.0,3988.0,2712.0,1353.0,-1.0,-190.0,1.0
2022-05-08 18:21:35.851149-07:00,843.6,927.9,1401.2,966.2,743.9,460.0,1441.5,923.7,3481.9,3480.7,706.9,863.7,412.1,3497.8,1194.7,811.0,3483.2,3475.9,395.0,561.8,442.7,479.8,238.6,236.3,3480.7,3474.6,581.8,449.0,705.2,1187.6,1504.1,538.6,0.0,-6.0,-21.0,10988.0,11709.0,327.0,3238.0,824.0,-258.0,-587.0,3.0,40.0,-24.0,10654.0,11476.0,4087.0,2553.0,882.0,-82.0,-71.0,1.0
2022-05-08 18:21:35.939543-07:00,843.6,927.9,1401.2,955.1,742.2,454.5,1422.2,912.7,3481.9,3480.7,706.9,857.0,410.6,3491.7,1190.3,815.2,3481.9,3479.5,395.0,562.6,439.6,479.8,238.6,236.3,3484.4,3474.6,581.0,440.4,706.0,1187.6,1504.1,538.6,14.0,-23.0,3.0,10859.0,11875.0,425.0,3051.0,431.0,-224.0,-329.0,5.0,11.0,14.0,10501.0,11626.0,4111.0,2470.0,513.0,-72.0,-11.0,1.0
2022-05-08 18:21:35.942301-07:00,843.6,925.4,1388.5,966.2,742.2,454.5,1422.2,912.7,3472.2,3467.4,699.5,862.1,410.6,3491.7,1190.3,815.2,3481.9,3479.5,395.0,562.6,436.4,479.8,234.8,239.3,3484.4,3474.6,581.0,440.4,709.3,1175.3,1486.6,534.6,43.0,10.0,34.0,10783.0,11976.0,462.0,2923.0,181.0,-141.0,-167.0,11.0,60.0,-3.0,10374.0,11747.0,4125.0,2409.0,270.0,-15.0,-17.0,1.0
2022-05-08 18:21:35.999567-07:00,843.6,925.4,1388.5,966.2,743.9,454.5,1423.1,915.2,3472.2,3467.4,699.5,862.1,409.8,3507.5,1187.6,812.7,3478.3,3488.0,397.3,560.2,436.4,479.8,234.8,239.3,3481.9,3483.2,577.8,441.9,709.3,1175.3,1486.6,534.6,23.0,2.0,14.0,10769.0,11987.0,470.0,2925.0,-34.0,89.0,21.0,5.0,21.0,-3.0,10328.0,11785.0,4139.0,2395.0,-33.0,28.0,-12.0,1.0
2022-05-08 18:21:36.060009-07:00,840.3,922.8,1402.1,962.8,743.9,454.5,1423.1,915.2,3474.6,3469.8,699.5,860.4,409.8,3507.5,1187.6,812.7,3478.3,3488.0,397.3,560.2,434.9,479.8,240.1,238.6,3481.9,3483.2,577.8,441.9,702.8,1170.9,1476.4,537.0,2.0,-11.0,-7.0,10789.0,11962.0,481.0,2950.0,-15.0,24.0,-20.0,-1.0,-15.0,2.0,10335.0,11774.0,4147.0,2407.0,47.0,36.0,-6.0,1.0
2022-05-08 18:21:36.119536-07:00,840.3,922.8,1402.1,962.8,736.5,458.5,1426.8,933.0,3474.6,3469.8,699.5,860.4,411.4,3497.8,1175.3,810.2,3488.0,3475.9,388.7,564.2,434.9,479.8,240.1,238.6,3485.6,3484.4,582.6,435.7,702.8,1170.9,1476.4,537.0,0.0,25.0,-6.0,10774.0,11974.0,516.0,2950.0,36.0,75.0,-46.0,-12.0,17.0,-11.0,10312.0,11788.0,4165.0,2408.0,11.0,29.0,-24.0,1.0
2022-05-08 18:21:36.149539-07:00,836.9,911.8,1388.5,961.1,736.5,458.5,1426.8,933.0,3469.8,3475.9,696.2,854.5,411.4,3497.8,1175.3,810.2,3488.0,3475.9,388.7,564.2,438.8,484.5,239.3,240.1,3485.6,3484.4,582.6,435.7,704.4,1165.6,1458.9,538.6,0.0,-15.0,-11.0,10777.0,11966.0,534.0,2970.0,-17.0,49.0,27.0,2.0,-8.0,-13.0,10306.0,11789.0,4176.0,2409.0,22.0,3.0,1.0,1.0
2022-05-08 18:21:36.209803-07:00,838.6,911.8,1388.5,961.1,735.6,453.7,1423.1,939.8,3469.8,3475.9,696.2,854.5,411.4,3490.5,1167.4,813.5,3472.2,3475.9,395.0,563.4,438.8,484.5,239.3,233.3,3477.1,3488.0,576.2,439.6,704.4,1165.6,1458.9,541.0,1.0,7.0,-18.0,10782.0,11958.0,530.0,2985.0,-39.0,-5.0,17.0,-1.0,0.0,-14.0,10302.0,11792.0,4176.0,2412.0,-9.0,-4.0,7.0,1.0
2022-05-08 18:21:36.270200-07:00,838.6,919.4,1386.6,959.4,735.6,453.7,1423.1,977.3,3469.8,3475.9,696.2,857.9,411.4,3490.5,1167.4,807.7,3479.5,3475.9,395.0,563.4,435.7,483.7,240.9,233.3,3480.7,3488.0,576.2,439.6,705.2,1165.6,1455.2,541.0,11.0,9.0,-10.0,10784.0,11958.0,528.0,2976.0,21.0,-24.0,-7.0,-1.0,25.0,-9.0,10294.0,11799.0,4178.0,2407.0,45.0,-2.0,-9.0,1.0
2022-05-08 18:21:36.299501-07:00,848.6,919.4,1386.6,959.4,741.4,454.5,1436.9,977.3,3472.2,3475.9,696.2,857.9,405.9,3495.3,1170.9,807.7,3479.5,3480.7,394.2,561.8,435.7,483.7,240.9,237.8,3480.7,3480.7,577.8,442.7,705.2,1165.6,1455.2,531.4,10.0,-12.0,3.0,10785.0,11957.0,513.0,2983.0,-37.0,2.0,66.0,0.0,-12.0,5.0,10289.0,11803.0,4182.0,2405.0,-15.0,13.0,4.0,1.0
2022-05-08 18:21:36.359720-07:00,848.6,908.4,1383.9,952.6,741.4,454.5,1436.9,981.6,3472.2,3478.3,695.4,855.3,405.9,3495.3,1170.9,805.2,3488.0,3480.7,394.2,561.8,432.5,483.7,238.6,237.8,3474.6,3480.7,577.8,442.7,697.9,1163.0,1451.6,531.4,5.0,2.0,6.0,10791.0,11950.0,495.0,2993.0,2.0,12.0,30.0,-3.0,-7.0,-10.0,10289.0,11802.0,4182.0,2408.0,10.0,7.0,15.0,1.0
2022-05-08 18:21:36.389374-07:00,831.1,908.4,1383.9,952.6,734.0,453.7,1439.6,981.6,3481.9,3478.3,695.4,855.3,410.6,3497.8,1158.6,805.2,3488.0,3478.3,391.8,559.4,432.5,483.7,238.6,242.4,3474.6,3477.1,573.8,438.0,697.9,1163.0,1451.6,533.8,12.0,14.0,-5.0,10781.0,11954.0,503.0,3006.0,13.0,37.0,-4.0,0.0,10.0,-1.0,10280.0,11806.0,4189.0,2414.0,23.0,26.0,-4.0,1.0
2022-05-08 18:21:36.450134-07:00,831.1,906.7,1374.8,956.0,734.0,453.7,1439.6,985.9,3481.9,3478.3,692.1,856.2,410.6,3497.8,1158.6,807.7,3481.9,3478.3,391.8,559.4,436.4,482.2,241.6,242.4,3485.6,3477.1,573.8,438.0,715.1,1160.3,1448.8,533.8,13.0,0.0,-4.0,10777.0,11957.0,508.0,3011.0,8.0,4.0,-2.0,0.0,2.0,-15.0,10271.0,11810.0,4200.0,2415.0,17.0,19.0,-12.0,1.0
2022-05-08 18:21:36.509812-07:00,839.4,905.0,1374.8,956.0,745.5,455.3,1447.0,985.9,3467.4,3478.3,692.1,856.2,410.6,3497.8,1154.2,807.7,3481.9,3472.2,392.6,557.8,436.4,482.2,241.6,241.6,3485.6,3478.3,573.8,436.4,715.1,1160.3,1448.8,533.8,5.0,-7.0,-9.0,10771.0,11959.0,514.0,3021.0,10.0,36.0,45.0,0.0,8.0,-5.0,10265.0,11811.0,4210.0,2420.0,13.0,26.0,2.0,1.0
2022-05-08 18:21:36.540080-07:00,839.4,905.0,1379.4,960.2,745.5,455.3,1442.4,994.5,3467.4,3478.3,697.9,858.7,410.6,3497.8,1154.2,799.4,3474.6,3478.3,392.6,557.8,430.9,479.8,241.6,241.6,3481.9,3483.2,573.8,436.4,704.4,1156.8,1448.8,533.8,-4.0,1.0,-13.0,10772.0,11952.0,511.0,3046.0,-20.0,44.0,21.0,-10.0,-11.0,-4.0,10266.0,11806.0,4214.0,2426.0,-19.0,19.0,4.0,1.0
2022-05-08 18:21:36.599481-07:00,835.2,905.9,1379.4,960.2,739.7,449.8,1442.4,994.5,3478.3,3479.5,697.9,858.7,414.5,3497.8,1154.2,799.4,3474.6,3478.3,398.9,558.6,430.9,479.8,243.9,233.3,3481.9,3483.2,577.8,434.1,704.4,1156.8,1442.4,533.0,10.0,4.0,0.0,10771.0,11952.0,512.0,3049.0,8.0,-8.0,27.0,-1.0,13.0,-10.0,10265.0,11807.0,4217.0,2428.0,9.0,9.0,4.0,1.0
2022-05-08 18:21:36.630650-07:00,835.2,905.9,1373.0,949.2,739.7,449.8,1446.0,983.3,3478.3,3479.5,695.4,855.3,414.5,3497.8,1151.5,802.7,3472.2,3478.3,398.9,558.6,432.5,483.7,243.9,233.3,3479.5,3474.6,577.8,434.1,700.3,1153.3,1442.4,533.0,6.0,-10.0,0.0,10772.0,11949.0,502.0,3060.0,-10.0,23.0,26.0,0.0,-10.0,-5.0,10265.0,11804.0,4220.0,2433.0,-9.0,14.0,4.0,1.0
2022-05-08 18:21:36.690150-07:00,841.9,898.3,1373.0,949.2,735.6,453.0,1446.0,983.3,3471.0,3471.0,695.4,855.3,411.4,3499.0,1151.5,802.7,3472.2,3478.3,394.2,560.2,432.5,483.7,240.1,237.8,3479.5,3474.6,574.6,435.7,700.3,1153.3,1439.6,531.4,9.0,8.0,2.0,10765.0,11951.0,499.0,3076.0,9.0,38.0,25.0,-2.0,3.0,-5.0,10261.0,11805.0,4224.0,2442.0,9.0,25.0,10.0,1.0
2022-05-08 18:21:36.749569-07:00,841.9,898.3,1375.7,954.3,735.6,453.0,1454.3,994.5,3471.0,3471.0,692.1,856.2,411.4,3499.0,1141.9,799.4,3488.0,3479.5,394.2,560.2,436.4,486.9,240.1,237.8,3479.5,3475.9,574.6,435.7,706.9,1149.8,1439.6,531.4,9.0,0.0,-13.0,10762.0,11949.0,501.0,3095.0,3.0,21.0,24.0,3.0,0.0,-10.0,10257.0,11803.0,4232.0,2450.0,6.0,29.0,4.0,1.0
2022-05-08 18:21:36.779886-07:00,847.8,902.5,1374.8,954.3,741.4,451.4,1454.3,994.5,3475.9,3474.6,691.3,856.2,412.1,3497.8,1141.9,799.4,3488.0,3479.5,392.6,557.8,436.4,484.5,239.3,238.6,3479.5,3475.9,573.0,434.9,706.9,1156.8,1430.5,524.2,-3.0,6.0,-14.0,10753.0,11955.0,500.0,3106.0,16.0,16.0,-8.0,-5.0,-8.0,-16.0,10247.0,11809.0,4239.0,2452.0,16.0,8.0,-3.0,1.0
2022-05-08 18:21:36.869578-07:00,847.8,902.5,1374.8,951.7,741.4,459.3,1445.1,985.9,3475.9,3474.6,691.3,852.8,412.1,3494.1,1148.0,803.5,3479.5,3474.6,390.3,557.8,436.4,484.5,239.3,238.6,3478.3,3483.2,572.2,434.9,706.0,1156.8,1430.5,524.2,0.0,-3.0,-14.0,10749.0,11960.0,504.0,3099.0,-16.0,-31.0,-5.0,-2.0,5.0,-15.0,10243.0,11813.0,4239.0,2449.0,-3.0,-20.0,-3.0,1.0
2022-05-08 18:21:36.899595-07:00,839.4,904.2,1378.5,951.7,749.6,459.3,1445.1,985.9,3477.1,3477.1,693.8,852.8,411.4,3494.1,1148.0,803.5,3479.5,3474.6,390.3,554.6,436.4,483.0,238.6,244.7,3478.3,3483.2,572.2,436.4,706.0,1161.2,1434.1,529.8,5.0,-5.0,0.0,10749.0,11962.0,493.0,3091.0,11.0,-31.0,18.0,-3.0,0.0,-6.0,10241.0,11816.0,4236.0,2447.0,12.0,-6.0,13.0,1.0
2022-05-08 18:21:36.929802-07:00,839.4,904.2,1378.5,951.7,749.6,455.3,1442.4,987.6,3477.1,3477.1,693.8,852.8,411.4,3491.7,1141.0,805.2,3478.3,3485.6,392.6,554.6,436.4,483.0,238.6,244.7,3480.7,3479.5,573.0,436.4,698.7,1161.2,1434.1,529.8,4.0,-6.0,5.0,10747.0,11963.0,476.0,3097.0,-21.0,-7.0,33.0,0.0,-1.0,-3.0,10243.0,11815.0,4230.0,2453.0,-21.0,-2.0,14.0,1.0
2022-05-08 18:21:36.989574-07:00,836.9,903.4,1368.5,951.7,737.3,455.3,1442.4,987.6,3474.6,3472.2,690.5,852.8,407.5,3491.7,1141.0,805.2,3478.3,3485.6,392.6,562.6,436.4,484.5,231.7,240.1,3480.7,3479.5,573.0,430.9,698.7,1156.8,1430.5,533.0,8.0,5.0,3.0,10747.0,11963.0,464.0,3098.0,-1.0,-18.0,13.0,0.0,8.0,-9.0,10243.0,11816.0,4228.0,2455.0,3.0,3.0,4.0,1.0
2022-05-08 18:21:37.049574-07:00,836.9,903.4,1368.5,953.4,737.3,455.3,1436.9,985.9,3474.6,3472.2,690.5,859.5,407.5,3489.2,1140.1,800.2,3474.6,3474.6,386.4,562.6,434.1,484.5,231.7,240.1,3477.1,3477.1,576.2,430.9,701.9,1156.8,1430.5,533.0,2.0,-9.0,-8.0,10745.0,11964.0,466.0,3100.0,11.0,7.0,-1.0,0.0,6.0,0.0,10242.0,11816.0,4230.0,2457.0,10.0,7.0,4.0,1.0
2022-05-08 18:21:37.079817-07:00,836.9,900.8,1367.6,950.9,740.6,455.3,1436.9,985.9,3469.8,3477.1,692.1,871.3,407.5,3489.2,1140.1,800.2,3474.6,3474.6,386.4,557.8,430.9,486.9,239.3,237.1,3477.1,3477.1,576.2,431.7,701.9,1149.8,1434.1,531.4,4.0,-6.0,5.0,10742.0,11968.0,453.0,3101.0,13.0,-5.0,33.0,-2.0,4.0,-9.0,10236.0,11819.0,4233.0,2458.0,5.0,24.0,9.0,1.0
2022-05-08 18:21:37.169625-07:00,836.9,900.8,1367.6,950.9,734.8,452.2,1437.8,980.7,3469.8,3477.1,692.1,871.3,408.2,3500.2,1135.7,802.7,3485.6,3472.2,392.6,560.2,430.9,486.9,239.3,237.1,3480.7,3475.9,576.2,435.7,701.9,1149.8,1434.1,531.4,4.0,-3.0,-5.0,10737.0,11967.0,439.0,3121.0,-5.0,15.0,83.0,0.0,-2.0,0.0,10231.0,11819.0,4236.0,2473.0,-6.0,34.0,25.0,1.0
2022-05-08 18:21:37.231261-07:00,838.6,898.3,1363.9,952.6,734.8,452.2,1437.8,980.7,3472.2,3473.4,688.9,862.1,408.2,3500.2,1135.7,802.7,3485.6,3472.2,392.6,560.2,434.1,483.7,238.6,240.1,3480.7,3475.9,576.2,435.7,706.0,1152.4,1420.4,529.0,5.0,-2.0,-9.0,10732.0,11969.0,413.0,3135.0,19.0,-36.0,66.0,-1.0,20.0,-8.0,10223.0,11822.0,4240.0,2487.0,23.0,35.0,25.0,1.0
2022-05-08 18:21:37.232341-07:00,838.6,898.3,1363.9,952.6,735.6,451.4,1447.9,987.6,3472.2,3473.4,688.9,862.1,410.6,3489.2,1136.6,800.2,3467.4,3484.4,390.3,563.4,434.1,483.7,238.6,240.1,3479.5,3486.8,582.6,431.7,706.0,1152.4,1420.4,529.0,9.0,-29.0,6.0,10730.0,11968.0,355.0,3150.0,-76.0,-59.0,139.0,8.0,18.0,-14.0,10223.0,11817.0,4242.0,2508.0,-58.0,53.0,24.0,1.0
2022-05-08 18:21:37.289623-07:00,835.2,891.5,1372.1,950.9,735.6,451.4,1447.9,987.6,3473.4,3483.2,690.5,852.8,410.6,3489.2,1136.6,800.2,3467.4,3484.4,390.3,563.4,434.1,481.4,241.6,237.1,3479.5,3486.8,582.6,431.7,698.7,1156.8,1421.3,524.2,12.0,-10.0,-10.0,10743.0,11937.0,248.0,3235.0,-194.0,24.0,466.0,5.0,29.0,-6.0,10252.0,11784.0,4237.0,2554.0,-292.0,106.0,99.0,1.0
2022-05-08 18:21:37.349550-07:00,835.2,891.5,1372.1,950.9,738.9,448.2,1481.9,1028.0,3473.4,3483.2,690.5,852.8,404.3,3500.2,1135.7,799.4,3478.3,3479.5,389.5,565.0,434.1,481.4,241.6,237.1,3474.6,3477.1,565.8,431.7,698.7,1156.8,1421.3,524.2,20.0,-63.0,8.0,10804.0,11834.0,30.0,3416.0,-374.0,5.0,662.0,24.0,-12.0,-3.0,10351.0,11684.0,4204.0,2662.0,-356.0,127.0,148.0,1.0
2022-05-08 18:21:37.379791-07:00,835.2,894.9,1374.8,952.6,738.9,448.2,1481.9,1063.4,3472.2,3483.2,690.5,857.0,404.3,3500.2,1135.7,800.2,3483.2,3479.5,389.5,565.0,435.7,482.2,244.7,239.3,3485.6,3477.1,565.8,431.7,702.8,1167.4,1440.5,530.6,-2.0,16.0,17.0,10817.0,11745.0,-219.0,3664.0,-299.0,164.0,867.0,-16.0,10.0,-7.0,10428.0,11593.0,4179.0,2796.0,-427.0,198.0,153.0,1.0
2022-05-08 18:21:37.439537-07:00,842.8,894.9,1374.8,952.6,746.3,449.8,1509.7,1063.4,3483.2,3483.2,690.5,857.0,410.6,3497.8,1128.7,800.2,3483.2,3469.8,390.3,557.0,435.7,482.2,244.7,236.3,3485.6,3479.5,569.8,431.7,702.8,1167.4,1440.5,533.8,-42.0,28.0,-16.0,10840.0,11619.0,-474.0,3964.0,-328.0,146.0,893.0,-30.0,-55.0,-22.0,10537.0,11467.0,4150.0,2949.0,-423.0,147.0,154.0,1.0
2022-05-08 18:21:37.499583-07:00,842.8,899.1,1379.4,950.9,746.3,449.8,1509.7,1079.9,3483.2,3477.1,687.2,856.2,410.6,3497.8,1128.7,796.9,3475.9,3469.8,390.3,557.0,438.8,479.8,243.2,236.3,3472.2,3479.5,569.8,431.7,701.9,1151.5,1426.8,533.8,-12.0,14.0,-27.0,10823.0,11536.0,-676.0,4213.0,-69.0,143.0,685.0,-22.0,9.0,-23.0,10609.0,11382.0,4118.0,3062.0,-159.0,121.0,148.0,1.0
2022-05-08 18:21:37.529845-07:00,843.6,899.1,1379.4,950.9,752.9,453.7,1549.7,1079.9,3474.6,3477.1,687.2,856.2,410.6,3499.0,1124.4,796.9,3475.9,3488.0,395.0,560.2,438.8,479.8,243.2,231.7,3472.2,3483.2,567.4,427.8,701.9,1151.5,1426.8,530.6,-21.0,11.0,-44.0,10743.0,11529.0,-840.0,4405.0,64.0,7.0,532.0,-10.0,0.0,-21.0,10618.0,11361.0,4096.0,3141.0,-69.0,59.0,127.0,1.0
2022-05-08 18:21:37.589635-07:00,843.6,900.8,1383.0,955.1,752.9,453.7,1549.7,1093.8,3474.6,3479.5,679.1,862.1,410.6,3499.0,1124.4,805.2,3480.7,3488.0,395.0,560.2,441.9,484.5,238.6,231.7,3492.9,3483.2,567.4,427.8,700.3,1154.2,1416.7,530.6,-26.0,15.0,-47.0,10668.0,11536.0,-1013.0,4530.0,63.0,-120.0,521.0,2.0,-22.0,-75.0,10612.0,11366.0,4058.0,3188.0,5.0,-27.0,154.0,1.0
2022-05-08 18:21:37.649855-07:00,850.3,900.8,1383.0,955.1,753.8,450.6,1565.5,1093.8,3472.2,3479.5,679.1,862.1,413.7,3494.1,1125.2,805.2,3480.7,3474.6,391.8,567.4,441.9,484.5,238.6,237.8,3492.9,3483.2,571.4,434.1,700.3,1154.2,1416.7,535.4,-26.0,28.0,-30.0,10591.0,11543.0,-1143.0,4660.0,82.0,135.0,438.0,-13.0,-6.0,-84.0,10620.0,11384.0,3979.0,3198.0,-40.0,-178.0,139.0,1.0
2022-05-08 18:21:37.679841-07:00,850.3,896.6,1404.9,950.0,753.8,450.6,1570.2,1096.4,3472.2,3480.7,682.3,857.9,413.7,3494.1,1128.7,801.9,3479.5,3472.2,391.8,567.4,438.8,482.2,234.8,237.8,3474.6,3480.7,571.4,434.1,698.7,1149.8,1417.6,535.4,-5.0,54.0,-48.0,10509.0,11556.0,-1167.0,4806.0,122.0,101.0,286.0,13.0,18.0,22.0,10646.0,11405.0,3878.0,3161.0,-18.0,-256.0,93.0,1.0
2022-05-08 18:21:37.740080-07:00,847.8,899.1,1404.9,950.0,744.7,451.4,1570.2,1096.4,3472.2,3475.9,682.3,857.9,410.6,3492.9,1128.7,801.9,3479.5,3472.2,391.1,566.6,438.8,482.2,235.5,237.1,3474.6,3480.7,573.0,428.6,698.7,1149.8,1415.8,530.6,32.0,-36.0,49.0,10448.0,11571.0,-1226.0,4887.0,81.0,40.0,258.0,17.0,-10.0,13.0,10656.0,11439.0,3794.0,3106.0,36.0,-211.0,53.0,1.0
2022-05-08 18:21:37.800221-07:00,847.8,899.1,1414.0,945.8,744.7,451.4,1536.6,1085.1,3472.2,3475.9,674.2,858.7,410.6,3492.9,1121.7,802.7,3474.6,3477.1,391.1,566.6,444.3,485.3,235.5,237.1,3484.4,3483.2,573.0,428.6,701.1,1147.1,1415.8,530.6,-11.0,1.0,10.0,10377.0,11580.0,-1230.0,5016.0,115.0,248.0,246.0,-12.0,3.0,41.0,10672.0,11453.0,3734.0,3071.0,-100.0,-120.0,59.0,1.0
2022-05-08 18:21:37.829801-07:00,852.0,899.1,1414.0,945.8,751.3,458.5,1536.6,1085.1,3473.4,3467.4,674.2,858.7,416.1,3502.7,1121.7,802.7,3474.6,3477.1,394.2,571.4,444.3,485.3,235.5,240.1,3484.4,3483.2,569.0,427.8,701.1,1147.1,1410.3,546.6,9.0,-31.0,-26.0,10371.0,11549.0,-1292.0,5082.0,-122.0,-90.0,185.0,4.0,4.0,0.0,10721.0,11432.0,3659.0,3068.0,-99.0,-148.0,90.0,1.0
2022-05-08 18:21:37.890259-07:00,852.0,899.1,1443.3,946.6,751.3,458.5,1512.5,1073.8,3473.4,3467.4,679.9,867.1,416.1,3502.7,1126.1,796.0,3474.6,3477.1,394.2,571.4,438.8,483.0,235.5,240.1,3474.6,3483.2,569.0,427.8,695.4,1151.5,1410.3,546.6,0.0,26.0,-13.0,10385.0,11538.0,-1377.0,5056.0,-116.0,-166.0,51.0,-8.0,10.0,-13.0,10745.0,11439.0,3590.0,3040.0,-36.0,-171.0,43.0,1.0
2022-05-08 18:21:37.983209-07:00,835.2,894.1,1443.3,946.6,745.5,451.4,1512.5,1073.8,3472.2,3469.8,679.9,867.1,412.9,3499.0,1126.1,796.0,3474.6,3477.1,395.0,569.8,438.8,483.0,236.3,237.8,3474.6,3483.2,569.8,429.4,695.4,1151.5,1419.5,540.2,16.0,7.0,12.0,10408.0,11539.0,-1456.0,4984.0,-121.0,-270.0,-8.0,9.0,13.0,17.0,10763.0,11451.0,3534.0,2999.0,4.0,-152.0,23.0,1.0
2022-05-08 18:21:37.984770-07:00,835.2,894.1,1440.5,946.6,745.5,449.8,1489.3,1066.0,3472.2,3469.8,674.2,857.0,412.9,3490.5,1125.2,794.4,3477.1,3475.9,395.7,569.8,439.6,481.4,236.3,237.8,3473.4,3473.4,569.8,429.4,698.7,1152.4,1419.5,540.2,10.0,-47.0,34.0,10456.0,11517.0,-1554.0,4902.0,-192.0,-230.0,40.0,10.0,-11.0,20.0,10786.0,11449.0,3488.0,2977.0,-59.0,-88.0,38.0,1.0
2022-05-08 18:21:38.039685-07:00,837.7,894.9,1436.9,946.6,743.0,449.8,1489.3,1066.0,3474.6,3471.0,676.6,857.0,412.1,3490.5,1125.2,794.4,3477.1,3475.9,395.7,572.2,439.6,480.6,238.6,236.3,3473.4,3473.4,569.8,423.1,698.7,1148.0,1416.7,538.6,16.0,-3.0,38.0,10504.0,11463.0,-1633.0,4903.0,-232.0,30.0,145.0,1.0,20.0,-8.0,10819.0,11427.0,3451.0,2984.0,-188.0,-27.0,48.0,1.0
2022-05-08 18:21:38.099478-07:00,837.7,894.9,1436.9,948.3,743.0,449.8,1492.1,1056.5,3474.6,3471.0,676.6,854.5,412.1,3489.2,1121.7,796.9,3473.4,3478.3,392.6,572.2,437.2,480.6,238.6,236.3,3483.2,3477.1,569.8,423.1,706.0,1148.0,1416.7,538.6,-1.0,10.0,-32.0,10600.0,11332.0,-1728.0,4968.0,-548.0,77.0,266.0,10.0,30.0,-25.0,10927.0,11326.0,3401.0,3028.0,-513.0,-18.0,59.0,1.0
2022-05-08 18:21:38.129855-07:00,845.3,903.4,1433.2,948.3,739.7,449.8,1492.1,1056.5,3469.8,3468.6,676.6,854.5,410.6,3489.2,1121.7,796.9,3473.4,3478.3,392.6,569.0,437.2,475.0,234.8,237.1,3483.2,3477.1,569.8,429.4,706.0,1139.2,1410.3,541.0,-36.0,-5.0,-32.0,10757.0,11121.0,-1890.0,5047.0,-634.0,32.0,324.0,-8.0,-40.0,6.0,11112.0,11152.0,3322.0,3092.0,-657.0,-42.0,83.0,1.0
2022-05-08 18:21:38.189630-07:00,845.3,903.4,1433.2,946.6,739.7,446.7,1490.3,1042.6,3469.8,3468.6,676.6,857.0,410.6,3494.1,1120.9,796.9,3477.1,3477.1,388.7,569.0,438.8,475.0,234.8,237.1,3477.1,3475.9,569.8,429.4,697.9,1139.2,1410.3,541.0,7.0,6.0,4.0,10852.0,10997.0,-2031.0,5060.0,-304.0,-136.0,128.0,2.0,-3.0,2.0,11247.0,11027.0,3243.0,3135.0,-312.0,-82.0,60.0,1.0
2022-05-08 18:21:38.249680-07:00,847.8,903.4,1434.1,946.6,738.1,446.7,1490.3,1042.6,3477.1,3480.7,675.0,857.0,410.6,3494.1,1120.9,796.9,3477.1,3477.1,388.7,565.8,438.8,479.8,237.8,236.3,3477.1,3475.9,569.8,425.5,697.9,1139.2,1409.4,532.2,27.0,0.0,22.0,10902.0,10936.0,-2106.0,5053.0,-242.0,5.0,90.0,13.0,20.0,0.0,11311.0,10970.0,3201.0,3151.0,-217.0,-14.0,22.0,1.0
2022-05-08 18:21:38.280328-07:00,847.8,903.4,1434.1,945.8,738.1,449.0,1474.6,1024.5,3477.1,3480.7,675.0,855.3,410.6,3490.5,1118.2,794.4,3488.0,3472.2,387.2,564.2,445.1,479.8,237.8,236.3,3478.3,3484.4,568.2,426.2,706.0,1139.2,1409.4,532.2,-7.0,-20.0,6.0,10950.0,10870.0,-2154.0,5074.0,-141.0,18.0,45.0,1.0,-37.0,18.0,11372.0,10904.0,3178.0,3178.0,-179.0,10.0,27.0,1.0
2022-05-08 18:21:38.339678-07:00,843.6,905.9,1429.5,944.9,738.1,449.0,1474.6,1024.5,3471.0,3474.6,675.8,853.7,410.6,3490.5,1118.2,794.4,3488.0,3472.2,387.2,564.2,444.3,483.0,238.6,240.1,3478.3,3484.4,568.2,426.2,691.3,1149.8,1406.7,531.4,15.0,24.0,16.0,10951.0,10860.0,-2148.0,5095.0,-8.0,96.0,32.0,0.0,38.0,-9.0,11382.0,10890.0,3181.0,3191.0,-34.0,58.0,6.0,1.0
2022-05-08 18:21:38.399629-07:00,843.6,905.9,1429.5,944.9,729.0,445.1,1458.0,1009.9,3471.0,3474.6,675.8,853.7,412.1,3499.0,1120.9,791.0,3467.4,3469.8,388.7,565.8,444.3,483.0,238.6,240.1,3478.3,3478.3,569.0,428.6,691.3,1149.8,1406.7,531.4,-12.0,-19.0,-26.0,10974.0,10816.0,-2147.0,5139.0,-109.0,102.0,74.0,2.0,-7.0,-16.0,11416.0,10843.0,3188.0,3220.0,-159.0,52.0,-2.0,1.0
2022-05-08 18:21:38.429843-07:00,842.8,905.0,1414.9,944.9,729.0,445.1,1458.0,1009.9,3474.6,3474.6,675.0,860.4,412.1,3499.0,1120.9,791.0,3467.4,3469.8,388.7,565.8,449.8,481.4,232.5,237.8,3478.3,3478.3,569.0,428.6,701.1,1142.7,1414.9,529.8,-10.0,10.0,-4.0,11002.0,10759.0,-2152.0,5195.0,-150.0,151.0,98.0,-9.0,1.0,-10.0,11461.0,10789.0,3184.0,3249.0,-200.0,45.0,10.0,1.0
2022-05-08 18:21:38.489650-07:00,842.8,905.0,1414.9,944.9,733.2,450.6,1441.5,1004.8,3474.6,3474.6,675.0,860.4,412.9,3497.8,1129.6,798.5,3472.2,3480.7,390.3,560.2,449.8,481.4,232.5,237.8,3475.9,3485.6,565.0,426.2,701.1,1142.7,1414.9,529.8,-3.0,-2.0,-16.0,11020.0,10727.0,-2158.0,5222.0,-12.0,24.0,14.0,1.0,-9.0,-3.0,11501.0,10741.0,3177.0,3271.0,-55.0,15.0,8.0,1.0
2022-05-08 18:21:38.549556-07:00,847.8,909.3,1421.3,948.3,733.2,450.6,1441.5,1004.8,3467.4,3475.9,669.3,859.5,412.9,3497.8,1129.6,798.5,3472.2,3480.7,390.3,560.2,448.2,482.2,238.6,240.1,3475.9,3485.6,565.0,426.2,697.9,1139.2,1405.8,536.2,-3.0,3.0,-6.0,11017.0,10732.0,-2144.0,5224.0,30.0,42.0,-36.0,-3.0,6.0,-15.0,11496.0,10743.0,3185.0,3274.0,16.0,26.0,-14.0,1.0
2022-05-08 18:21:38.579782-07:00,843.6,909.3,1421.3,948.3,734.8,447.4,1431.4,1003.9,3478.3,3475.9,669.3,859.5,413.7,3497.8,1121.7,797.7,3477.1,3478.3,387.2,562.6,448.2,482.2,238.6,237.8,3477.1,3478.3,568.2,428.6,697.9,1139.2,1405.8,528.2,-4.0,-17.0,4.0,11014.0,10736.0,-2112.0,5235.0,42.0,69.0,-28.0,0.0,-6.0,8.0,11492.0,10741.0,3201.0,3278.0,2.0,38.0,-13.0,1.0
2022-05-08 18:21:38.640272-07:00,843.6,897.4,1414.9,944.1,734.8,447.4,1431.4,986.7,3478.3,3472.2,666.8,862.1,413.7,3497.8,1121.7,792.7,3485.6,3478.3,387.2,562.6,440.4,483.7,234.0,237.8,3477.1,3478.3,568.2,428.6,701.9,1142.7,1396.7,528.2,8.0,-5.0,3.0,11007.0,10742.0,-2086.0,5248.0,36.0,55.0,-19.0,8.0,2.0,-4.0,11489.0,10736.0,3218.0,3291.0,8.0,58.0,-8.0,1.0
2022-05-08 18:21:38.699625-07:00,842.8,897.4,1414.9,944.1,734.0,452.2,1418.6,986.7,3473.4,3472.2,666.8,862.1,410.6,3492.9,1130.5,792.7,3485.6,3479.5,387.2,564.2,440.4,483.7,234.0,237.1,3477.1,3481.9,562.6,432.5,701.9,1142.7,1396.7,529.0,5.0,-15.0,14.0,11000.0,10745.0,-2041.0,5274.0,102.0,169.0,-41.0,0.0,-3.0,0.0,11477.0,10734.0,3249.0,3306.0,20.0,96.0,-25.0,1.0
2022-05-08 18:21:38.729872-07:00,842.8,902.5,1411.3,947.5,734.0,452.2,1418.6,985.9,3473.4,3475.9,664.4,857.9,410.6,3492.9,1130.5,791.9,3483.2,3479.5,387.2,564.2,443.5,482.2,239.3,237.1,3486.8,3481.9,562.6,432.5,699.5,1140.1,1410.3,529.0,-7.0,-5.0,-27.0,10988.0,10747.0,-1978.0,5319.0,32.0,78.0,-5.0,5.0,-3.0,9.0,11469.0,10723.0,3288.0,3332.0,-12.0,113.0,-7.0,1.0
2022-05-08 18:21:38.789678-07:00,842.8,902.5,1411.3,947.5,732.3,450.6,1406.7,985.9,3481.9,3475.9,664.4,857.9,413.7,3495.3,1140.1,791.9,3483.2,3471.0,385.6,563.4,443.5,482.2,239.3,240.1,3486.8,3478.3,567.4,428.6,699.5,1140.1,1410.3,525.8,1.0,5.0,5.0,10977.0,10755.0,-1942.0,5340.0,73.0,161.0,-21.0,-4.0,8.0,-29.0,11457.0,10722.0,3315.0,3350.0,11.0,97.0,-21.0,1.0
2022-05-08 18:21:38.849553-07:00,842.8,914.4,1416.7,942.4,732.3,450.6,1400.3,980.7,3481.9,3467.4,673.3,857.9,413.7,3495.3,1134.0,793.5,3472.2,3477.1,385.6,563.4,445.1,480.6,238.6,240.1,3478.3,3478.3,567.4,428.6,697.9,1143.6,1400.3,525.8,0.0,-6.0,-1.0,10970.0,10745.0,-1865.0,5399.0,86.0,257.0,-22.0,5.0,3.0,-8.0,11451.0,10710.0,3354.0,3370.0,-18.0,104.0,-37.0,1.0
2022-05-08 18:21:38.879677-07:00,843.6,912.7,1416.7,942.4,729.9,450.6,1400.3,980.7,3477.1,3473.4,673.3,857.9,412.1,3502.7,1134.0,793.5,3472.2,3477.1,390.3,564.2,445.1,480.6,237.1,237.1,3478.3,3478.3,566.6,430.9,697.9,1143.6,1408.5,532.2,30.0,-13.0,36.0,10954.0,10743.0,-1765.0,5469.0,213.0,287.0,-62.0,13.0,4.0,12.0,11442.0,10699.0,3399.0,3389.0,57.0,140.0,-57.0,1.0
2022-05-08 18:21:38.939710-07:00,843.6,912.7,1409.4,950.9,729.9,450.6,1398.5,968.8,3477.1,3473.4,666.0,857.9,412.1,3502.7,1147.1,790.2,3474.6,3484.4,390.3,564.2,442.7,483.7,237.1,237.1,3472.2,3477.1,566.6,430.9,696.2,1141.0,1408.5,532.2,26.0,-41.0,59.0,10919.0,10751.0,-1610.0,5569.0,202.0,526.0,25.0,9.0,14.0,11.0,11423.0,10684.0,3480.0,3418.0,-14.0,250.0,-82.0,1.0
2022-05-08 18:21:38.999644-07:00,834.4,924.5,1409.4,950.9,738.9,450.6,1398.5,968.8,3462.5,3472.2,666.0,857.9,409.0,3485.6,1147.1,790.2,3474.6,3484.4,388.7,559.4,442.7,483.7,240.1,231.7,3472.2,3477.1,559.4,438.8,696.2,1141.0,1401.2,525.0,25.0,-52.0,92.0,10839.0,10747.0,-1375.0,5793.0,649.0,989.0,85.0,2.0,-17.0,-11.0,11397.0,10660.0,3590.0,3465.0,118.0,310.0,-104.0,1.0
2022-05-08 18:21:39.029804-07:00,834.4,924.5,1447.9,941.5,738.9,450.6,1412.2,964.5,3462.5,3472.2,671.7,856.2,409.0,3485.6,1153.3,791.0,3479.5,3480.7,388.7,559.4,439.6,485.3,240.1,231.7,3479.5,3475.9,559.4,438.8,693.8,1140.1,1401.2,525.0,32.0,-6.0,42.0,10641.0,10786.0,-912.0,6168.0,1092.0,1465.0,-179.0,5.0,-55.0,-14.0,11328.0,10672.0,3737.0,3501.0,403.0,246.0,-199.0,1.0
2022-05-08 18:21:39.089565-07:00,838.6,956.0,1447.9,941.5,729.9,461.6,1412.2,964.5,3479.5,3471.0,671.7,856.2,414.5,3489.2,1153.3,791.0,3479.5,3480.7,398.1,567.4,439.6,485.3,237.1,235.5,3479.5,3475.9,569.0,458.5,693.8,1140.1,1396.7,525.0,23.0,128.0,-77.0,10319.0,10906.0,-93.0,6559.0,1779.0,1994.0,-857.0,-5.0,-12.0,-91.0,11177.0,10791.0,3920.0,3420.0,654.0,112.0,-344.0,1.0
2022-05-08 18:21:39.149682-07:00,838.6,956.0,1426.8,942.4,729.9,471.9,1393.0,955.1,3479.5,3471.0,666.8,861.2,414.5,3496.6,1181.5,784.4,3479.5,3481.9,417.6,567.4,439.6,485.3,237.1,235.5,3473.4,3477.1,572.2,458.5,699.5,1139.2,1396.7,525.0,-10.0,179.0,-320.0,10011.0,11034.0,1159.0,6718.0,1934.0,1754.0,-2078.0,-12.0,-96.0,-62.0,11014.0,10960.0,4107.0,3185.0,830.0,-195.0,-612.0,1.0
2022-05-08 18:21:39.179781-07:00,832.7,943.2,1440.5,942.4,738.9,471.9,1393.0,955.1,3483.2,3471.0,661.1,861.2,407.5,3496.6,1181.5,784.4,3479.5,3481.9,417.6,559.4,439.6,486.1,238.6,237.8,3473.4,3477.1,572.2,499.6,699.5,1140.1,1417.6,522.6,-2.0,131.0,30.0,9744.0,11317.0,2706.0,6172.0,2767.0,538.0,-3138.0,0.0,159.0,-135.0,10945.0,11090.0,4258.0,2743.0,-142.0,-765.0,-845.0,1.0
2022-05-08 18:21:39.269654-07:00,832.7,943.2,1440.5,939.8,738.9,491.7,1435.0,945.8,3483.2,3471.0,661.1,851.1,407.5,3500.2,1108.6,792.7,3474.6,3478.3,409.0,559.4,440.4,486.1,238.6,237.8,3485.6,3480.7,591.5,499.6,700.3,1140.1,1417.6,522.6,-4.0,-120.0,-44.0,9407.0,11564.0,4134.0,5397.0,1974.0,516.0,-2715.0,37.0,-73.0,49.0,10927.0,11125.0,4395.0,2441.0,1109.0,88.0,-644.0,1.0
2022-05-08 18:21:39.270813-07:00,850.3,993.6,1449.7,939.8,732.3,491.7,1435.0,945.8,3475.9,3473.4,662.7,851.1,409.0,3500.2,1108.6,792.7,3474.6,3478.3,409.0,562.6,440.4,486.1,239.3,241.6,3485.6,3480.7,591.5,530.6,700.3,1133.1,1363.9,523.4,-8.0,-79.0,28.0,9003.0,11871.0,5028.0,4602.0,2101.0,-235.0,-1562.0,21.0,79.0,-10.0,10331.0,11602.0,4710.0,2219.0,1190.0,173.0,-304.0,1.0
2022-05-08 18:21:39.389847-07:00,850.3,993.6,1449.7,948.3,732.3,496.4,1616.2,941.5,3475.9,3473.4,662.7,847.8,409.0,3502.7,1017.6,785.2,3475.9,3483.2,409.8,562.6,435.7,486.1,239.3,241.6,3483.2,3477.1,587.5,530.6,703.6,1133.1,1363.9,523.4,-18.0,-51.0,5.0,8947.0,11895.0,5352.0,4273.0,-350.0,-80.0,-581.0,-11.0,16.0,16.0,10337.0,11604.0,4712.0,2170.0,-699.0,-256.0,42.0,1.0
2022-05-08 18:21:39.391128-07:00,855.3,988.5,1441.5,948.3,739.7,496.4,1616.2,941.5,3478.3,3478.3,653.0,847.8,409.0,3502.7,1017.6,785.2,3475.9,3483.2,409.8,561.0,435.7,484.5,244.7,240.9,3483.2,3477.1,587.5,537.8,703.6,1119.1,1333.2,524.2,-11.0,-54.0,11.0,9241.0,11682.0,5333.0,4258.0,-552.0,-140.0,-195.0,-5.0,9.0,-27.0,10624.0,11403.0,4547.0,2201.0,-697.0,-381.0,110.0,1.0
2022-05-08 18:21:39.449544-07:00,855.3,988.5,1441.5,942.4,727.4,486.9,1608.7,928.8,3478.3,3478.3,653.0,852.0,410.6,3495.3,985.0,773.6,3486.8,3480.7,410.6,563.4,436.4,484.5,244.7,240.9,3483.2,3475.9,584.3,529.0,702.8,1119.1,1333.2,524.2,-10.0,17.0,12.0,9282.0,11688.0,5317.0,4170.0,237.0,-300.0,-107.0,-2.0,3.0,18.0,10682.0,11392.0,4453.0,2176.0,52.0,-139.0,39.0,1.0
2022-05-08 18:21:39.659285-07:00,853.7,993.6,1428.6,944.1,727.4,486.9,1608.7,928.8,3473.4,3472.2,653.0,853.7,410.6,3495.3,985.0,773.6,3486.8,3480.7,410.6,563.4,430.9,483.7,239.3,242.4,3483.2,3475.9,584.3,529.0,697.9,1106.0,1325.0,529.8,34.0,7.0,70.0,9279.0,11773.0,5273.0,3991.0,146.0,-368.0,-51.0,9.0,46.0,-5.0,10664.0,11427.0,4423.0,2142.0,71.0,-83.0,20.0,1.0
2022-05-08 18:21:39.719952-07:00,853.7,993.6,1428.6,944.1,727.4,490.1,1579.6,923.7,3473.4,3472.2,653.0,853.7,411.4,3492.9,966.2,772.0,3478.3,3474.6,405.9,560.2,430.9,483.7,239.3,242.4,3481.9,3477.1,581.0,528.2,697.9,1106.0,1325.0,529.8,15.0,-31.0,64.0,9345.0,11763.0,5203.0,3958.0,-259.0,-129.0,48.0,5.0,-39.0,15.0,10711.0,11402.0,4376.0,2135.0,-232.0,-119.0,52.0,1.0
2022-05-08 18:21:39.721531-07:00,854.5,991.0,1421.3,939.8,727.4,490.1,1579.6,923.7,3467.4,3471.0,646.5,856.2,411.4,3492.9,966.2,772.0,3478.3,3474.6,405.9,560.2,433.3,483.0,243.2,240.9,3481.9,3477.1,581.0,528.2,700.3,1108.6,1308.8,521.0,10.0,42.0,38.0,9355.0,11787.0,5165.0,3911.0,245.0,-158.0,-15.0,-1.0,14.0,0.0,10749.0,11384.0,4333.0,2127.0,54.0,-51.0,15.0,1.0
2022-05-08 18:21:39.723187-07:00,854.5,991.0,1421.3,939.8,730.7,485.3,1562.7,920.3,3467.4,3471.0,646.5,856.2,412.1,3501.4,957.7,774.5,3468.6,3483.2,409.0,560.2,433.3,483.0,243.2,240.9,3479.5,3479.5,575.4,528.2,700.3,1108.6,1308.8,521.0,15.0,-12.0,33.0,9347.0,11804.0,5174.0,3868.0,-115.0,48.0,-56.0,-5.0,6.0,-23.0,10719.0,11405.0,4355.0,2126.0,24.0,48.0,-24.0,1.0
2022-05-08 18:21:39.724796-07:00,856.2,992.7,1411.3,944.1,730.7,485.3,1562.7,920.3,3471.0,3469.8,646.5,854.5,412.1,3501.4,957.7,774.5,3468.6,3483.2,409.0,560.2,429.4,484.5,240.9,242.4,3479.5,3479.5,575.4,528.2,698.7,1103.4,1303.4,525.0,3.0,-12.0,-3.0,9363.0,11780.0,5180.0,3895.0,64.0,-33.0,38.0,0.0,-2.0,1.0,10719.0,11403.0,4355.0,2132.0,52.0,-4.0,22.0,1.0
2022-05-08 18:21:39.840218-07:00,846.1,992.7,1411.3,944.1,727.4,490.9,1559.9,917.7,3467.4,3469.8,646.5,854.5,412.9,3492.9,949.2,771.1,3477.1,3478.3,405.1,554.6,429.4,484.5,240.9,240.9,3478.3,3474.6,577.0,517.9,698.7,1103.4,1303.4,521.0,13.0,25.0,12.0,9333.0,11826.0,5157.0,3859.0,29.0,-80.0,21.0,0.0,13.0,-18.0,10693.0,11425.0,4363.0,2129.0,48.0,38.0,-15.0,1.0
2022-05-08 18:21:39.841840-07:00,846.1,991.0,1410.3,939.0,727.4,490.9,1559.9,918.6,3467.4,3477.1,646.5,852.8,412.9,3492.9,949.2,773.6,3475.9,3478.3,405.1,554.6,436.4,484.5,237.8,240.9,3477.1,3474.6,577.0,517.9,697.0,1106.9,1302.5,521.0,0.0,-5.0,2.0,9363.0,11809.0,5145.0,3852.0,-47.0,-41.0,-29.0,-6.0,1.0,-12.0,10698.0,11419.0,4364.0,2131.0,-40.0,-27.0,1.0,1.0
2022-05-08 18:21:39.842756-07:00,847.8,991.0,1410.3,939.0,732.3,486.9,1559.0,918.6,3473.4,3477.1,646.5,852.8,411.4,3500.2,950.0,773.6,3475.9,3478.3,405.9,560.2,436.4,484.5,237.8,241.6,3477.1,3477.1,577.0,520.3,697.0,1106.9,1302.5,522.6,12.0,0.0,20.0,9363.0,11822.0,5130.0,3835.0,-10.0,-30.0,38.0,-1.0,5.0,-15.0,10704.0,11418.0,4356.0,2123.0,-37.0,-20.0,7.0,1.0
2022-05-08 18:21:40.019755-07:00,847.8,999.6,1408.5,946.6,732.3,486.9,1559.0,916.0,3473.4,3475.9,647.3,852.0,411.4,3500.2,950.0,767.8,3477.1,3478.3,405.9,560.2,433.3,486.1,241.6,241.6,3480.7,3477.1,577.0,520.3,705.2,1102.5,1304.3,522.6,4.0,13.0,6.0,9388.0,11812.0,5103.0,3841.0,-26.0,-93.0,7.0,-3.0,5.0,-2.0,10722.0,11404.0,4346.0,2130.0,-17.0,-9.0,12.0,1.0
2022-05-08 18:21:40.079578-07:00,852.0,999.6,1408.5,946.6,720.8,482.2,1543.1,916.0,3475.9,3475.9,647.3,852.0,411.4,3499.0,939.0,767.8,3477.1,3477.1,408.2,565.0,433.3,486.1,241.6,242.4,3480.7,3471.0,572.2,520.3,705.2,1102.5,1304.3,521.0,14.0,6.0,29.0,9385.0,11828.0,5095.0,3808.0,28.0,-8.0,-22.0,0.0,16.0,-16.0,10714.0,11412.0,4350.0,2121.0,19.0,9.0,-22.0,1.0
2022-05-08 18:21:40.140265-07:00,852.0,990.2,1403.0,946.6,720.8,482.2,1543.1,916.0,3475.9,3477.1,648.1,851.1,411.4,3499.0,939.0,766.2,3468.6,3477.1,408.2,565.0,426.2,483.0,244.7,242.4,3478.3,3471.0,572.2,520.3,697.0,1102.5,1284.6,521.0,2.0,-19.0,9.0,9418.0,11797.0,5079.0,3844.0,-139.0,5.0,51.0,-6.0,-15.0,5.0,10719.0,11404.0,4353.0,2132.0,-29.0,20.0,25.0,1.0
2022-05-08 18:21:40.199684-07:00,845.3,991.9,1403.0,946.6,726.6,479.8,1552.5,916.0,3471.0,3473.4,648.1,851.1,413.7,3490.5,936.4,766.2,3468.6,3478.3,404.3,556.2,426.2,483.0,240.9,243.9,3478.3,3480.7,577.8,525.0,697.0,1102.5,1292.7,517.9,11.0,23.0,10.0,9425.0,11808.0,5050.0,3833.0,-2.0,-78.0,12.0,-2.0,13.0,-19.0,10706.0,11412.0,4361.0,2139.0,40.0,41.0,-8.0,1.0
2022-05-08 18:21:40.200875-07:00,845.3,991.9,1400.3,935.6,726.6,479.8,1534.8,915.2,3471.0,3473.4,648.9,853.7,413.7,3490.5,938.1,764.5,3478.3,3478.3,404.3,556.2,427.8,483.0,240.9,243.9,3467.4,3483.2,577.8,525.0,692.1,1099.0,1292.7,517.9,6.0,-21.0,22.0,9475.0,11769.0,5023.0,3863.0,-235.0,42.0,35.0,-4.0,-26.0,-3.0,10704.0,11405.0,4374.0,2157.0,-174.0,30.0,24.0,1.0
2022-05-08 18:21:40.202310-07:00,845.3,989.3,1400.3,935.6,726.6,483.0,1534.8,915.2,3471.0,3464.9,648.9,853.7,412.1,3501.4,938.1,764.5,3478.3,3478.3,404.3,560.2,427.8,483.0,241.6,239.3,3467.4,3483.2,580.2,514.7,692.1,1099.0,1287.3,521.8,-2.0,-25.0,-9.0,9555.0,11701.0,4981.0,3925.0,-243.0,-16.0,78.0,-4.0,-18.0,-12.0,10759.0,11353.0,4356.0,2194.0,-119.0,-8.0,33.0,1.0
2022-05-08 18:21:40.230008-07:00,845.3,989.3,1402.1,936.4,726.6,483.0,1539.4,916.0,3471.0,3464.9,647.3,855.3,412.1,3501.4,936.4,764.5,3480.7,3472.2,404.3,560.2,429.4,483.7,241.6,239.3,3467.4,3473.4,580.2,514.7,696.2,1098.2,1287.3,521.8,5.0,26.0,8.0,9574.0,11712.0,4924.0,3919.0,-45.0,-135.0,80.0,2.0,18.0,-4.0,10775.0,11341.0,4345.0,2199.0,-23.0,0.0,0.0,1.0
2022-05-08 18:21:40.231102-07:00,849.5,987.6,1402.1,936.4,718.4,483.7,1539.4,916.0,3478.3,3468.6,647.3,855.3,409.0,3486.8,936.4,764.5,3480.7,3472.2,403.5,556.2,429.4,483.7,238.6,244.7,3467.4,3473.4,572.2,517.1,696.2,1098.2,1292.7,529.0,0.0,-7.0,65.0,9691.0,11651.0,4783.0,3986.0,-724.0,-113.0,397.0,4.0,26.0,55.0,10803.0,11311.0,4339.0,2227.0,-353.0,99.0,53.0,1.0
2022-05-08 18:21:40.289598-07:00,849.5,987.6,1402.1,943.2,718.4,483.7,1552.5,919.4,3478.3,3468.6,645.7,857.0,409.0,3486.8,964.5,766.2,3472.2,3478.3,403.5,556.2,430.9,482.2,238.6,244.7,3483.2,3479.5,572.2,517.1,697.9,1092.9,1292.7,529.0,-17.0,6.0,-79.0,10099.0,11403.0,4268.0,4264.0,-2151.0,-645.0,1104.0,-17.0,81.0,-3.0,11007.0,11104.0,4285.0,2372.0,-1399.0,1.0,186.0,1.0
2022-05-08 18:21:40.319736-07:00,837.7,979.9,1393.0,943.2,725.8,486.9,1552.5,919.4,3467.4,3472.2,647.3,857.0,408.2,3496.6,964.5,766.2,3472.2,3478.3,405.1,559.4,430.9,482.2,237.8,241.6,3483.2,3479.5,576.2,516.3,697.9,1097.3,1328.7,533.0,32.0,10.0,-43.0,10810.0,10883.0,3312.0,4708.0,-3013.0,-557.0,1568.0,-37.0,35.0,-163.0,11493.0,10634.0,4078.0,2574.0,-2437.0,-378.0,244.0,1.0
2022-05-08 18:21:40.379843-07:00,837.7,979.9,1393.0,934.7,725.8,478.2,1547.8,934.7,3467.4,3472.2,647.3,854.5,408.2,3494.1,1062.5,771.1,3478.3,3480.7,411.4,559.4,427.0,482.2,237.8,241.6,3477.1,3471.0,582.6,516.3,690.5,1097.3,1328.7,533.0,-27.0,35.0,-56.0,11549.0,10035.0,2448.0,5327.0,-3375.0,-41.0,1268.0,-17.0,-20.0,-18.0,12262.0,9824.0,3673.0,2842.0,-3051.0,-358.0,345.0,1.0
2022-05-08 18:21:40.439444-07:00,838.6,969.6,1396.7,934.7,722.5,478.2,1547.8,934.7,3481.9,3474.6,638.4,854.5,411.4,3494.1,1062.5,771.1,3478.3,3480.7,411.4,558.6,427.0,479.8,239.3,240.1,3477.1,3471.0,582.6,505.9,690.5,1106.0,1404.9,517.9,-22.0,-80.0,19.0,12221.0,9126.0,1600.0,5765.0,-2763.0,-375.0,1065.0,-21.0,-61.0,-1.0,12953.0,8973.0,3243.0,3103.0,-2095.0,-351.0,319.0,1.0
2022-05-08 18:21:40.469187-07:00,838.6,969.6,1396.7,935.6,722.5,474.3,1532.9,923.7,3481.9,3474.6,638.4,856.2,411.4,3501.4,1140.1,778.6,3475.9,3481.9,406.7,558.6,430.2,479.8,239.3,240.1,3477.1,3474.6,572.2,505.9,691.3,1106.0,1404.9,517.9,8.0,-106.0,18.0,12514.0,8681.0,1021.0,5954.0,-1434.0,-812.0,750.0,-6.0,-91.0,34.0,13317.0,8465.0,2942.0,3283.0,-679.0,-117.0,271.0,1.0
2022-05-08 18:21:40.560000-07:00,831.9,967.9,1400.3,935.6,723.3,474.3,1532.9,923.7,3473.4,3467.4,657.0,856.2,410.6,3501.4,1140.1,778.6,3475.9,3481.9,406.7,557.8,430.2,489.3,247.7,237.8,3477.1,3474.6,572.2,490.9,691.3,1127.0,1410.3,517.1,42.0,54.0,33.0,12620.0,8558.0,469.0,5976.0,-141.0,-768.0,376.0,0.0,20.0,-20.0,13348.0,8420.0,2846.0,3358.0,163.0,-57.0,140.0,1.0
2022-05-08 18:21:40.589725-07:00,831.9,967.9,1400.3,946.6,723.3,467.1,1513.4,915.2,3473.4,3467.4,657.0,856.2,410.6,3507.5,1246.2,792.7,3484.4,3475.9,401.2,557.8,429.4,489.3,247.7,237.8,3474.6,3477.1,569.8,490.9,694.6,1127.0,1410.3,517.1,4.0,5.0,-18.0,12653.0,8549.0,165.0,5936.0,-619.0,-406.0,245.0,10.0,-20.0,-4.0,13356.0,8412.0,2814.0,3371.0,-196.0,4.0,60.0,1.0
2022-05-08 18:21:40.619650-07:00,832.7,957.7,1402.1,955.1,727.4,467.1,1513.4,915.2,3478.3,3478.3,675.0,857.0,412.9,3507.5,1246.2,792.7,3484.4,3475.9,401.2,556.2,436.4,489.3,238.6,240.1,3474.6,3477.1,569.8,483.7,697.9,1153.3,1488.4,521.8,-19.0,-39.0,-2.0,12690.0,8510.0,-96.0,5912.0,113.0,-493.0,168.0,-14.0,-37.0,-13.0,13326.0,8459.0,2820.0,3372.0,380.0,-29.0,3.0,1.0
2022-05-08 18:21:40.680291-07:00,832.7,957.7,1402.1,955.1,721.6,460.0,1510.6,915.2,3478.3,3478.3,675.0,857.0,412.1,3503.9,1272.1,806.0,3485.6,3481.9,398.1,559.4,436.4,489.3,238.6,240.1,3481.9,3486.8,569.8,477.4,697.9,1153.3,1488.4,521.8,-10.0,4.0,-37.0,12624.0,8644.0,-247.0,5855.0,163.0,-445.0,57.0,-52.0,2.0,-1.0,13228.0,8609.0,2848.0,3348.0,370.0,44.0,49.0,1.0
2022-05-08 18:21:40.739572-07:00,836.1,956.0,1403.0,953.4,721.6,460.0,1510.6,915.2,3473.4,3466.1,690.5,868.8,412.1,3503.9,1272.1,806.0,3485.6,3481.9,398.1,559.4,431.7,491.7,234.8,240.9,3481.9,3486.8,569.8,477.4,692.9,1162.1,1529.2,521.0,-15.0,-22.0,-2.0,12568.0,8795.0,-396.0,5743.0,604.0,-595.0,-46.0,-6.0,-21.0,-47.0,13101.0,8810.0,2875.0,3303.0,759.0,-62.0,16.0,1.0
2022-05-08 18:21:40.769577-07:00,836.1,956.0,1403.0,953.4,722.5,458.5,1507.8,933.9,3473.4,3466.1,690.5,868.8,415.3,3499.0,1262.2,804.4,3468.6,3479.5,402.0,561.8,431.7,491.7,234.8,240.9,3479.5,3478.3,569.0,460.8,692.9,1162.1,1529.2,521.0,7.0,43.0,27.0,12408.0,9088.0,-440.0,5629.0,617.0,-219.0,53.0,6.0,34.0,-26.0,12921.0,9089.0,2914.0,3224.0,682.0,-75.0,13.0,1.0
2022-05-08 18:21:40.829735-07:00,851.1,950.0,1402.1,939.0,722.5,458.5,1507.8,933.9,3474.6,3480.7,714.2,858.7,415.3,3499.0,1262.2,804.4,3468.6,3479.5,402.0,561.8,437.2,486.9,240.1,237.1,3479.5,3478.3,569.0,460.8,692.9,1156.8,1573.9,511.5,-7.0,11.0,-44.0,12302.0,9279.0,-466.0,5547.0,353.0,-658.0,-209.0,92.0,-78.0,24.0,12786.0,9282.0,2959.0,3166.0,686.0,-25.0,-45.0,1.0
2022-05-08 18:21:40.889657-07:00,851.1,950.0,1402.1,939.0,730.7,462.4,1517.1,939.0,3474.6,3480.7,714.2,858.7,412.1,3484.4,1254.2,813.5,3480.7,3473.4,396.5,559.4,437.2,486.9,240.1,237.1,3475.9,3479.5,566.6,454.5,692.9,1156.8,1573.9,511.5,50.0,45.0,83.0,12174.0,9587.0,-545.0,5294.0,734.0,-479.0,-249.0,6.0,56.0,-23.0,12537.0,9621.0,3065.0,3052.0,1060.0,44.0,-107.0,1.0
2022-05-08 18:21:40.919724-07:00,850.3,930.5,1402.1,942.4,730.7,462.4,1517.1,922.0,3475.9,3467.4,706.0,860.4,412.1,3484.4,1254.2,823.5,3486.8,3473.4,396.5,559.4,435.7,493.2,243.2,243.2,3479.5,3479.5,566.6,454.5,726.6,1160.3,1595.5,575.4,5.0,-9.0,30.0,12061.0,9781.0,-486.0,5201.0,445.0,65.0,-187.0,5.0,-43.0,70.0,12359.0,9827.0,3183.0,3001.0,530.0,196.0,-72.0,1.0
2022-05-08 18:21:40.980499-07:00,848.6,930.5,1402.1,942.4,771.1,449.8,1494.9,922.0,3483.2,3467.4,706.0,860.4,407.5,3496.6,1225.7,823.5,3486.8,3474.6,391.1,561.8,435.7,493.2,243.2,243.2,3479.5,3483.2,561.8,453.0,726.6,1160.3,1595.5,605.2,28.0,2.0,23.0,11971.0,9987.0,-309.0,5028.0,1060.0,-228.0,-954.0,2.0,-55.0,22.0,12148.0,10061.0,3331.0,2923.0,1171.0,169.0,-230.0,1.0
2022-05-08 18:21:41.039575-07:00,848.6,924.5,1404.0,946.6,771.1,449.8,1494.9,916.0,3483.2,3483.2,705.2,860.4,407.5,3496.6,1225.7,811.9,3475.9,3474.6,391.1,561.8,437.2,492.5,240.1,243.2,3474.6,3483.2,561.8,453.0,732.3,1153.3,1574.9,605.2,-1.0,145.0,20.0,11819.0,10376.0,143.0,4591.0,1199.0,2.0,-1997.0,-28.0,-50.0,-25.0,11833.0,10406.0,3566.0,2723.0,1134.0,165.0,-549.0,1.0
2022-05-08 18:21:41.099583-07:00,839.4,924.5,1404.0,946.6,785.2,452.2,1472.7,916.0,3475.9,3483.2,705.2,860.4,409.8,3502.7,1216.0,811.9,3475.9,3484.4,393.4,565.0,437.2,492.5,240.1,237.8,3474.6,3484.4,565.0,449.0,732.3,1153.3,1574.9,605.2,-9.0,34.0,-101.0,11651.0,10829.0,917.0,3820.0,1950.0,-350.0,-2554.0,-17.0,-28.0,-99.0,11474.0,10761.0,3891.0,2419.0,1612.0,51.0,-742.0,1.0
2022-05-08 18:21:41.129869-07:00,839.4,916.9,1407.6,948.3,785.2,452.2,1472.7,909.3,3475.9,3478.3,733.2,862.1,409.8,3502.7,1216.0,812.7,3478.3,3484.4,393.4,565.0,435.7,499.6,237.8,237.8,3477.1,3484.4,565.0,449.0,731.5,1159.4,1576.8,605.2,15.0,4.0,-13.0,11249.0,11404.0,1634.0,3028.0,1733.0,-55.0,-1475.0,17.0,22.0,-76.0,10949.0,11240.0,4229.0,2078.0,1777.0,105.0,-472.0,1.0
2022-05-08 18:21:41.189610-07:00,839.4,916.9,1407.6,948.3,792.7,449.8,1474.6,909.3,3479.5,3478.3,733.2,862.1,409.8,3494.1,1197.4,812.7,3478.3,3477.1,388.7,557.0,435.7,499.6,237.8,240.1,3477.1,3480.7,565.8,441.9,731.5,1159.4,1576.8,603.6,1.0,-127.0,21.0,11006.0,11673.0,2076.0,2596.0,586.0,-111.0,-1020.0,13.0,-73.0,15.0,10698.0,11445.0,4406.0,1894.0,433.0,4.0,-264.0,1.0
2022-05-08 18:21:41.219797-07:00,839.4,914.4,1400.3,948.3,792.7,449.8,1449.7,908.4,3479.5,3481.9,736.5,857.9,409.8,3494.1,1196.5,815.2,3478.3,3486.8,388.7,557.0,430.9,498.0,245.4,240.1,3488.0,3480.7,565.8,441.9,727.4,1153.3,1573.0,603.6,32.0,27.0,63.0,10885.0,11789.0,2259.0,2421.0,443.0,162.0,-123.0,5.0,70.0,-5.0,10551.0,11567.0,4465.0,1839.0,305.0,31.0,2.0,1.0
2022-05-08 18:21:41.280516-07:00,841.1,914.4,1400.3,948.3,811.9,450.6,1449.7,908.4,3472.2,3467.4,736.5,857.9,410.6,3501.4,1196.5,815.2,3478.3,3486.8,392.6,559.4,430.9,498.0,234.0,231.7,3488.0,3480.7,561.8,445.1,727.4,1153.3,1557.1,601.2,-1.0,-61.0,-41.0,10878.0,11765.0,2329.0,2501.0,-143.0,166.0,52.0,5.0,-28.0,9.0,10564.0,11547.0,4471.0,1875.0,-79.0,37.0,51.0,1.0
2022-05-08 18:21:41.339675-07:00,841.1,914.4,1402.1,948.3,811.9,450.6,1437.8,916.0,3472.2,3467.4,730.7,862.1,410.6,3501.4,1188.5,806.0,3480.7,3480.7,392.6,559.4,427.0,498.0,234.0,231.7,3480.7,3480.7,561.8,445.1,732.3,1147.1,1557.1,601.2,12.0,43.0,-13.0,10853.0,11791.0,2280.0,2536.0,67.0,-60.0,178.0,1.0,38.0,-16.0,10533.0,11582.0,4450.0,1886.0,57.0,-2.0,71.0,1.0
2022-05-08 18:21:41.369591-07:00,841.1,907.6,1402.1,948.3,801.9,448.2,1437.8,916.0,3488.0,3467.4,730.7,862.1,410.6,3503.9,1188.5,806.0,3480.7,3480.7,392.6,560.2,427.0,498.0,240.1,235.5,3480.7,3480.7,561.8,441.9,732.3,1147.1,1550.6,597.1,4.0,-8.0,10.0,10868.0,11782.0,2216.0,2571.0,-119.0,-14.0,122.0,2.0,-22.0,-15.0,10544.0,11577.0,4430.0,1900.0,-43.0,-10.0,30.0,1.0
2022-05-08 18:21:41.429749-07:00,841.1,907.6,1399.4,945.8,801.9,448.2,1428.6,925.4,3488.0,3467.4,736.5,859.5,410.6,3503.9,1182.3,805.2,3469.8,3477.1,392.6,560.2,427.0,499.6,240.1,235.5,3483.2,3488.0,561.8,441.9,729.9,1147.1,1550.6,597.1,17.0,12.0,11.0,10861.0,11790.0,2180.0,2590.0,33.0,-42.0,108.0,5.0,7.0,4.0,10535.0,11587.0,4422.0,1904.0,21.0,-5.0,26.0,1.0
2022-05-08 18:21:41.519636-07:00,842.8,911.0,1399.4,945.8,799.4,445.9,1428.6,925.4,3481.9,3479.5,736.5,859.5,407.5,3499.0,1182.3,805.2,3469.8,3477.1,393.4,554.6,427.0,499.6,241.6,236.3,3483.2,3488.0,563.4,439.6,729.9,1147.1,1543.1,589.9,14.0,0.0,15.0,10871.0,11789.0,2131.0,2595.0,-41.0,-83.0,45.0,2.0,-3.0,-21.0,10536.0,11588.0,4415.0,1915.0,-31.0,16.0,12.0,1.0
2022-05-08 18:21:41.521993-07:00,842.8,911.0,1397.6,942.4,799.4,445.1,1426.8,919.4,3481.9,3479.5,730.7,863.7,407.5,3495.3,1177.9,801.9,3478.3,3484.4,389.5,554.6,428.6,495.6,241.6,236.3,3478.3,3481.9,560.2,439.6,733.2,1151.5,1543.1,589.9,6.0,-12.0,16.0,10872.0,11788.0,2107.0,2616.0,0.0,55.0,94.0,0.0,-12.0,-16.0,10528.0,11594.0,4412.0,1922.0,17.0,13.0,24.0,1.0
2022-05-08 18:21:41.579566-07:00,839.4,906.7,1390.3,942.4,783.6,445.1,1426.8,919.4,3479.5,3467.4,727.4,863.7,414.5,3495.3,1177.9,801.9,3478.3,3484.4,389.5,559.4,428.6,492.5,239.3,240.1,3478.3,3481.9,560.2,441.2,733.2,1141.0,1545.0,589.1,3.0,11.0,-16.0,10866.0,11784.0,2107.0,2659.0,-3.0,39.0,53.0,1.0,2.0,-1.0,10525.0,11595.0,4411.0,1936.0,-19.0,-3.0,26.0,1.0
2022-05-08 18:21:41.609847-07:00,839.4,906.7,1390.3,942.4,783.6,444.3,1414.9,924.5,3479.5,3467.4,727.4,861.2,414.5,3501.4,1185.0,803.5,3483.2,3475.9,387.2,559.4,427.0,492.5,239.3,240.1,3479.5,3472.2,565.0,441.2,730.7,1141.0,1545.0,589.1,9.0,1.0,15.0,10876.0,11779.0,2076.0,2667.0,-61.0,-46.0,71.0,0.0,-8.0,-24.0,10536.0,11589.0,4398.0,1944.0,-55.0,-11.0,22.0,1.0
2022-05-08 18:21:41.669745-07:00,843.6,906.7,1388.5,942.4,777.8,444.3,1414.9,924.5,3472.2,3474.6,728.2,861.2,414.5,3501.4,1185.0,803.5,3483.2,3475.9,387.2,557.0,427.0,499.6,237.8,235.5,3479.5,3472.2,565.0,442.7,730.7,1137.5,1532.9,585.9,9.0,8.0,12.0,10881.0,11771.0,2067.0,2686.0,30.0,51.0,18.0,0.0,-1.0,-4.0,10540.0,11586.0,4392.0,1951.0,-8.0,24.0,14.0,1.0
2022-05-08 18:21:41.729660-07:00,843.6,906.7,1388.5,956.0,777.8,445.9,1419.5,927.9,3472.2,3474.6,728.2,856.2,414.5,3484.4,1173.5,806.9,3480.7,3481.9,387.2,557.0,427.8,499.6,237.8,235.5,3475.9,3472.2,563.4,442.7,732.3,1137.5,1532.9,585.9,14.0,3.0,-1.0,10878.0,11774.0,2068.0,2685.0,5.0,-76.0,-21.0,7.0,5.0,-21.0,10543.0,11582.0,4392.0,1962.0,-27.0,-3.0,12.0,1.0
2022-05-08 18:21:41.759953-07:00,839.4,905.0,1385.7,956.0,781.9,445.9,1419.5,927.9,3475.9,3475.9,724.1,856.2,410.6,3484.4,1173.5,806.9,3480.7,3481.9,387.2,559.4,427.8,494.0,235.5,240.1,3475.9,3472.2,563.4,439.6,732.3,1141.9,1531.0,586.7,2.0,-3.0,7.0,10879.0,11777.0,2053.0,2679.0,-13.0,20.0,38.0,-3.0,-1.0,-12.0,10546.0,11580.0,4389.0,1968.0,-20.0,-5.0,15.0,1.0
2022-05-08 18:21:41.849670-07:00,839.4,905.0,1385.7,960.2,777.8,441.2,1402.1,916.9,3475.9,3475.9,724.1,858.7,414.5,3496.6,1174.4,805.2,3477.1,3474.6,390.3,557.8,421.5,494.0,235.5,240.1,3485.6,3472.2,563.4,434.9,732.3,1141.9,1531.0,586.7,11.0,-5.0,1.0,10886.0,11771.0,2030.0,2693.0,-34.0,-76.0,67.0,3.0,1.0,-10.0,10555.0,11573.0,4380.0,1979.0,-40.0,-2.0,32.0,1.0
2022-05-08 18:21:41.879748-07:00,839.4,901.7,1382.1,939.8,777.8,441.2,1402.1,916.9,3471.0,3480.7,738.1,862.1,414.5,3496.6,1174.4,805.2,3477.1,3474.6,390.3,557.8,430.2,497.2,237.1,231.7,3485.6,3472.2,563.4,434.9,732.3,1142.7,1537.6,579.4,2.0,7.0,6.0,10896.0,11768.0,1994.0,2696.0,-28.0,-3.0,33.0,-5.0,2.0,-15.0,10560.0,11571.0,4368.0,1985.0,-33.0,-13.0,20.0,1.0
2022-05-08 18:21:41.910274-07:00,839.4,901.7,1382.1,939.8,777.8,441.9,1409.4,921.1,3471.0,3480.7,738.1,862.1,412.9,3499.0,1168.2,799.4,3477.1,3480.7,385.6,558.6,430.2,497.2,237.1,231.7,3488.0,3481.9,561.8,438.0,732.3,1142.7,1537.6,579.4,10.0,4.0,-4.0,10897.0,11770.0,1988.0,2687.0,26.0,-65.0,-16.0,2.0,14.0,-13.0,10564.0,11569.0,4364.0,1986.0,11.0,-22.0,5.0,1.0
2022-05-08 18:21:41.970278-07:00,845.3,916.0,1380.3,935.6,777.8,441.9,1409.4,921.1,3472.2,3474.6,723.3,852.0,412.9,3499.0,1168.2,799.4,3477.1,3480.7,385.6,558.6,421.5,492.5,238.6,237.8,3488.0,3481.9,561.8,438.0,729.9,1137.5,1531.0,574.6,10.0,-11.0,16.0,10898.0,11774.0,1968.0,2678.0,-11.0,-25.0,25.0,0.0,-4.0,-10.0,10563.0,11574.0,4359.0,1979.0,-6.0,-16.0,6.0,1.0
2022-05-08 18:21:42.029879-07:00,845.3,916.0,1380.3,935.6,778.6,441.9,1404.0,915.2,3472.2,3474.6,723.3,852.0,412.1,3497.8,1163.8,801.9,3477.1,3479.5,385.6,563.4,421.5,492.5,238.6,237.8,3488.0,3477.1,538.6,437.2,729.9,1137.5,1531.0,574.6,7.0,-1.0,0.0,10901.0,11770.0,1964.0,2684.0,11.0,5.0,8.0,1.0,7.0,-8.0,10567.0,11569.0,4359.0,1983.0,-5.0,8.0,9.0,1.0
2022-05-08 18:21:42.089612-07:00,836.9,900.0,1383.9,938.1,778.6,441.9,1404.0,915.2,3475.9,3474.6,715.1,854.5,412.1,3497.8,1163.8,801.9,3477.1,3479.5,385.6,563.4,420.0,494.0,241.6,237.8,3488.0,3477.1,538.6,437.2,726.6,1142.7,1532.0,577.0,11.0,4.0,0.0,10899.0,11773.0,1960.0,2682.0,-2.0,-11.0,-6.0,2.0,6.0,-16.0,10564.0,11572.0,4359.0,1982.0,11.0,-1.0,-6.0,1.0
2022-05-08 18:21:42.119775-07:00,836.1,900.0,1383.9,938.1,772.8,441.9,1404.0,918.6,3469.8,3474.6,715.1,854.5,412.1,3500.2,1170.0,801.9,3481.9,3475.9,389.5,559.4,420.0,494.0,241.6,238.6,3478.3,3480.7,560.2,434.1,726.6,1142.7,1532.0,574.6,8.0,-17.0,13.0,10905.0,11768.0,1958.0,2684.0,-21.0,5.0,2.0,0.0,-1.0,-6.0,10565.0,11571.0,4360.0,1979.0,-6.0,-15.0,-10.0,1.0
2022-05-08 18:21:42.209862-07:00,836.1,891.5,1378.5,939.8,772.8,441.9,1404.0,922.8,3469.8,3468.6,718.4,858.7,412.1,3500.2,1170.0,801.9,3489.2,3475.9,389.5,559.4,427.8,497.2,237.8,238.6,3477.1,3480.7,560.2,434.1,732.3,1138.4,1520.8,574.6,10.0,-6.0,9.0,10906.0,11764.0,1956.0,2698.0,7.0,18.0,33.0,-1.0,-1.0,6.0,10564.0,11571.0,4362.0,1983.0,1.0,21.0,11.0,1.0
2022-05-08 18:21:42.211724-07:00,836.9,891.5,1378.5,939.8,772.0,443.5,1397.6,922.8,3477.1,3468.6,718.4,858.7,410.6,3502.7,1164.7,801.9,3489.2,3480.7,388.7,557.8,427.8,497.2,237.8,237.1,3477.1,3468.6,563.4,432.5,732.3,1138.4,1520.8,569.0,5.0,-3.0,-2.0,10908.0,11763.0,1944.0,2701.0,-5.0,-32.0,13.0,-4.0,0.0,-19.0,10562.0,11570.0,4367.0,1988.0,10.0,10.0,-4.0,1.0
2022-05-08 18:21:42.269474-07:00,836.9,894.9,1383.0,934.7,772.0,443.5,1397.6,922.8,3477.1,3475.9,712.6,875.5,410.6,3502.7,1164.7,797.7,3467.4,3480.7,388.7,557.8,421.5,491.7,240.1,237.1,3478.3,3468.6,563.4,432.5,731.5,1137.5,1523.6,569.0,6.0,-4.0,5.0,10905.0,11769.0,1934.0,2698.0,-2.0,5.0,27.0,-1.0,-3.0,-25.0,10552.0,11578.0,4369.0,1985.0,12.0,-3.0,2.0,1.0
2022-05-08 18:21:42.359966-07:00,834.4,894.9,1383.0,934.7,778.6,445.9,1398.5,922.8,3474.6,3475.9,712.6,875.5,409.8,3495.3,1165.6,797.7,3467.4,3477.1,385.6,557.8,421.5,491.7,240.1,236.3,3478.3,3488.0,561.8,431.7,731.5,1137.5,1523.6,569.8,-16.0,-22.0,-7.0,10902.0,11771.0,1924.0,2706.0,17.0,-49.0,51.0,-7.0,1.0,-7.0,10550.0,11581.0,4365.0,1988.0,1.0,-5.0,36.0,1.0
2022-05-08 18:21:42.361284-07:00,834.4,891.5,1374.8,939.8,778.6,445.9,1396.7,926.2,3474.6,3464.9,711.8,852.8,409.8,3495.3,1159.4,802.7,3479.5,3478.3,385.6,557.8,423.9,492.5,238.6,236.3,3481.9,3483.2,561.8,431.7,731.5,1131.4,1521.8,569.8,17.0,-11.0,5.0,10911.0,11768.0,1884.0,2709.0,-41.0,-28.0,56.0,13.0,-2.0,-19.0,10559.0,11579.0,4344.0,2000.0,-50.0,-17.0,47.0,1.0
2022-05-08 18:21:42.509713-07:00,846.1,893.2,1374.8,939.8,770.3,442.7,1396.7,926.2,3481.9,3478.3,711.8,852.8,412.1,3496.6,1159.4,802.7,3479.5,3478.3,386.4,560.2,423.9,492.5,238.6,242.4,3481.9,3483.2,556.2,429.4,731.5,1131.4,1509.7,570.6,21.0,21.0,9.0,10918.0,11760.0,1861.0,2733.0,-49.0,6.0,68.0,1.0,28.0,5.0,10573.0,11571.0,4327.0,2010.0,-44.0,-14.0,26.0,1.0
2022-05-08 18:21:42.511579-07:00,846.1,893.2,1375.7,939.0,770.3,442.7,1400.3,925.4,3481.9,3478.3,715.9,854.5,412.1,3496.6,1153.3,799.4,3481.9,3483.2,386.4,560.2,427.0,498.0,238.6,242.4,3477.1,3472.2,556.2,429.4,729.9,1135.7,1509.7,570.6,14.0,-1.0,12.0,10935.0,11744.0,1830.0,2754.0,-45.0,-9.0,67.0,1.0,10.0,-9.0,10586.0,11559.0,4323.0,2019.0,-27.0,13.0,7.0,1.0
2022-05-08 18:21:42.512572-07:00,840.3,899.1,1375.7,939.0,765.3,450.6,1400.3,925.4,3460.1,3479.5,715.9,854.5,412.1,3497.8,1153.3,799.4,3481.9,3483.2,387.9,555.4,427.0,498.0,241.6,236.3,3477.1,3472.2,560.2,434.9,729.9,1135.7,1514.3,567.4,-9.0,-35.0,-9.0,10946.0,11731.0,1816.0,2776.0,-13.0,15.0,24.0,-4.0,-26.0,-6.0,10592.0,11551.0,4326.0,2027.0,1.0,11.0,5.0,1.0
2022-05-08 18:21:42.629673-07:00,840.3,899.1,1374.8,935.6,765.3,450.6,1397.6,923.7,3460.1,3479.5,713.4,857.9,412.1,3497.8,1161.2,794.4,3481.9,3474.6,387.9,555.4,426.2,498.0,241.6,236.3,3481.9,3488.0,560.2,434.9,728.2,1132.2,1514.3,567.4,-3.0,-13.0,-2.0,10931.0,11746.0,1803.0,2777.0,18.0,-18.0,52.0,-7.0,14.0,-19.0,10578.0,11565.0,4323.0,2028.0,10.0,1.0,32.0,1.0
2022-05-08 18:21:42.659980-07:00,838.6,889.8,1374.8,935.6,767.8,445.1,1397.6,923.7,3480.7,3480.7,713.4,857.9,412.1,3496.6,1161.2,794.4,3481.9,3474.6,387.2,564.2,426.2,498.0,241.6,239.3,3481.9,3488.0,562.6,432.5,728.2,1132.2,1518.0,567.4,12.0,6.0,-5.0,10934.0,11742.0,1777.0,2800.0,-39.0,-1.0,79.0,3.0,13.0,-15.0,10582.0,11563.0,4310.0,2041.0,-41.0,-2.0,37.0,1.0
2022-05-08 18:21:42.661788-07:00,838.6,889.8,1375.7,940.7,767.8,441.2,1401.2,932.2,3480.7,3480.7,711.8,858.7,412.1,3486.8,1159.4,801.9,3477.1,3479.5,389.5,564.2,420.0,499.6,241.6,239.3,3477.1,3488.0,559.4,432.5,727.4,1134.0,1518.0,567.4,7.0,-12.0,4.0,10947.0,11729.0,1748.0,2825.0,-54.0,-10.0,53.0,-2.0,18.0,5.0,10598.0,11549.0,4305.0,2055.0,-56.0,23.0,5.0,1.0
2022-05-08 18:21:42.719996-07:00,831.1,891.5,1372.1,940.7,762.9,441.2,1401.2,932.2,3483.2,3478.3,716.7,858.7,409.8,3486.8,1159.4,801.9,3477.1,3479.5,389.5,557.8,420.0,496.4,240.1,248.5,3477.1,3488.0,559.4,433.3,727.4,1133.1,1506.9,568.2,30.0,-16.0,24.0,10952.0,11727.0,1709.0,2837.0,-110.0,-21.0,174.0,17.0,26.0,-10.0,10611.0,11536.0,4298.0,2072.0,-117.0,16.0,29.0,1.0
2022-05-08 18:21:42.779746-07:00,831.1,891.5,1372.1,946.6,762.9,438.0,1408.5,936.4,3483.2,3478.3,716.7,857.9,409.8,3486.8,1149.8,797.7,3477.1,3472.2,387.2,557.8,423.1,496.4,240.1,248.5,3484.4,3477.1,557.0,433.3,726.6,1133.1,1506.9,568.2,11.0,-22.0,2.0,10993.0,11675.0,1605.0,2949.0,-406.0,71.0,525.0,4.0,-5.0,-1.0,10681.0,11473.0,4263.0,2135.0,-336.0,10.0,130.0,1.0
2022-05-08 18:21:42.809798-07:00,834.4,887.3,1375.7,946.6,767.8,438.0,1408.5,936.4,3479.5,3467.4,711.8,857.9,417.6,3486.8,1149.8,797.7,3477.1,3472.2,387.2,557.8,423.1,499.6,237.1,237.8,3484.4,3477.1,557.0,430.9,726.6,1131.4,1505.1,566.6,0.0,-81.0,5.0,11053.0,11583.0,1391.0,3190.0,-259.0,140.0,1070.0,-9.0,31.0,-24.0,10728.0,11441.0,4188.0,2217.0,-108.0,18.0,277.0,1.0
2022-05-08 18:21:42.899641-07:00,834.4,887.3,1375.7,941.5,767.8,442.7,1411.3,954.3,3479.5,3467.4,711.8,857.9,417.6,3500.2,1146.3,799.4,3479.5,3478.3,382.5,557.8,425.5,499.6,237.1,237.8,3477.1,3477.1,556.2,430.9,724.1,1131.4,1505.1,566.6,-8.0,3.0,-15.0,11086.0,11473.0,1048.0,3577.0,-774.0,179.0,1163.0,-2.0,-46.0,-43.0,10793.0,11387.0,4101.0,2335.0,-660.0,49.0,358.0,1.0
2022-05-08 18:21:42.929667-07:00,834.4,885.6,1381.2,941.5,766.2,442.7,1411.3,954.3,3478.3,3467.4,708.5,857.9,412.9,3500.2,1146.3,799.4,3479.5,3478.3,382.5,558.6,425.5,493.2,234.8,237.8,3477.1,3477.1,556.2,430.2,724.1,1128.7,1504.1,569.0,-8.0,5.0,-8.0,11189.0,11259.0,649.0,4008.0,-651.0,145.0,1218.0,5.0,-49.0,-28.0,10988.0,11209.0,3954.0,2537.0,-711.0,7.0,408.0,1.0
2022-05-08 18:21:42.959810-07:00,834.4,885.6,1381.2,935.6,757.1,441.2,1426.8,976.5,3478.3,3467.4,708.5,855.3,407.5,3496.6,1155.0,795.2,3478.3,3485.6,387.9,561.0,431.7,493.2,234.8,237.8,3477.1,3488.0,554.6,424.7,728.2,1128.7,1504.1,569.0,24.0,96.0,-18.0,11229.0,11091.0,281.0,4389.0,-631.0,42.0,912.0,7.0,12.0,6.0,11156.0,11049.0,3805.0,2724.0,-704.0,21.0,310.0,1.0
2022-05-08 18:21:43.019696-07:00,838.6,893.2,1380.3,936.4,757.1,441.2,1426.8,976.5,3478.3,3471.0,711.8,857.0,407.5,3496.6,1155.0,795.2,3478.3,3485.6,387.9,561.0,430.9,492.5,237.8,242.4,3477.1,3488.0,554.6,424.7,724.9,1125.2,1502.3,569.8,18.0,-8.0,-11.0,11293.0,10940.0,-4.0,4608.0,-87.0,-86.0,612.0,-5.0,10.0,-4.0,11312.0,10892.0,3696.0,2858.0,-251.0,27.0,153.0,1.0
2022-05-08 18:21:43.079931-07:00,838.6,893.2,1380.3,936.4,766.2,440.4,1424.1,994.5,3478.3,3471.0,711.8,857.0,413.7,3495.3,1154.2,799.4,3481.9,3481.9,384.0,564.2,430.9,492.5,237.8,242.4,3477.1,3478.3,564.2,429.4,724.9,1125.2,1502.3,569.8,36.0,-4.0,10.0,11250.0,10928.0,-145.0,4737.0,-5.0,129.0,340.0,19.0,31.0,-27.0,11334.0,10872.0,3655.0,2903.0,-62.0,2.0,40.0,1.0
2022-05-08 18:21:43.109950-07:00,836.1,889.0,1381.2,930.5,766.2,440.4,1424.1,994.5,3474.6,3469.8,708.5,862.1,413.7,3495.3,1154.2,799.4,3481.9,3481.9,384.0,564.2,429.4,487.7,241.6,238.6,3477.1,3478.3,564.2,429.4,724.9,1116.5,1495.8,572.2,-21.0,-63.0,-46.0,11221.0,10893.0,-244.0,4880.0,-180.0,-41.0,501.0,3.0,-18.0,-14.0,11360.0,10842.0,3636.0,2934.0,-167.0,-1.0,86.0,1.0
2022-05-08 18:21:43.170010-07:00,836.1,889.0,1381.2,930.5,767.0,440.4,1428.6,1002.2,3474.6,3469.8,708.5,862.1,409.8,3489.2,1148.0,795.2,3480.7,3478.3,382.5,561.8,429.4,487.7,241.6,238.6,3478.3,3468.6,535.4,428.6,724.9,1116.5,1495.8,572.2,-17.0,-10.0,-14.0,11196.0,10847.0,-417.0,5026.0,-152.0,2.0,548.0,-16.0,16.0,-18.0,11405.0,10801.0,3581.0,2979.0,-234.0,-29.0,149.0,1.0
2022-05-08 18:21:43.230672-07:00,830.2,884.8,1373.0,932.2,767.0,440.4,1428.6,1002.2,3473.4,3477.1,701.9,860.4,409.8,3489.2,1148.0,795.2,3480.7,3478.3,382.5,561.8,432.5,491.7,239.3,236.3,3478.3,3468.6,535.4,428.6,725.8,1125.2,1496.7,576.2,1.0,22.0,-7.0,11183.0,10779.0,-585.0,5181.0,-173.0,7.0,445.0,0.0,-9.0,0.0,11482.0,10726.0,3508.0,3040.0,-307.0,-19.0,132.0,1.0
2022-05-08 18:21:43.260332-07:00,832.7,884.8,1373.0,932.2,776.1,436.4,1431.4,1009.9,3478.3,3477.1,701.9,860.4,412.1,3494.1,1149.8,796.0,3472.2,3481.9,384.0,563.4,432.5,491.7,239.3,234.8,3485.6,3488.0,556.2,423.9,725.8,1125.2,1496.7,569.8,10.0,-1.0,16.0,11168.0,10751.0,-673.0,5259.0,197.0,20.0,149.0,-8.0,19.0,-31.0,11530.0,10684.0,3455.0,3064.0,8.0,-63.0,26.0,1.0
2022-05-08 18:21:43.320278-07:00,832.7,887.3,1392.1,936.4,776.1,436.4,1431.4,1025.4,3478.3,3473.4,703.6,857.9,412.1,3494.1,1149.8,796.0,3477.1,3481.9,384.0,563.4,433.3,490.1,237.8,234.8,3480.7,3488.0,556.2,423.9,721.6,1122.6,1489.3,569.8,-13.0,10.0,-29.0,11106.0,10793.0,-660.0,5308.0,84.0,65.0,19.0,4.0,-22.0,-20.0,11516.0,10713.0,3436.0,3040.0,36.0,-81.0,-6.0,1.0
2022-05-08 18:21:43.379765-07:00,831.9,887.3,1392.1,936.4,770.3,441.2,1450.6,1025.4,3478.3,3473.4,703.6,857.9,411.4,3499.0,1159.4,796.0,3477.1,3475.9,387.2,566.6,433.3,490.1,237.8,240.9,3480.7,3480.7,556.2,426.2,721.6,1122.6,1489.3,583.5,3.0,-22.0,-17.0,11102.0,10806.0,-638.0,5292.0,8.0,-70.0,-87.0,7.0,7.0,-2.0,11534.0,10718.0,3398.0,3000.0,1.0,-171.0,-15.0,1.0
2022-05-08 18:21:43.409832-07:00,831.9,894.1,1386.6,929.6,770.3,441.2,1450.6,1047.8,3478.3,3472.2,701.9,857.0,411.4,3499.0,1159.4,791.9,3477.1,3475.9,387.2,566.6,433.3,488.5,238.6,240.9,3480.7,3480.7,556.2,426.2,721.6,1123.5,1484.7,583.5,10.0,-10.0,5.0,11127.0,10806.0,-642.0,5240.0,-105.0,-78.0,-115.0,-3.0,11.0,16.0,11554.0,10725.0,3347.0,2949.0,-61.0,-163.0,-29.0,1.0
2022-05-08 18:21:43.469689-07:00,830.2,894.1,1386.6,929.6,766.2,438.0,1434.1,1047.8,3474.6,3472.2,701.9,857.0,409.8,3497.8,1141.9,791.9,3477.1,3478.3,384.0,565.8,433.3,488.5,238.6,236.3,3480.7,3467.4,553.8,421.5,721.6,1123.5,1484.7,585.9,13.0,-58.0,33.0,11180.0,10780.0,-653.0,5179.0,-90.0,-50.0,-113.0,3.0,-4.0,8.0,11592.0,10712.0,3300.0,2902.0,-59.0,-152.0,-31.0,1.0
2022-05-08 18:21:43.529814-07:00,830.2,889.8,1383.0,936.4,766.2,438.0,1434.1,1028.8,3474.6,3479.5,700.3,857.0,409.8,3497.8,1141.9,794.4,3474.6,3478.3,384.0,565.8,429.4,481.4,236.3,236.3,3477.1,3467.4,553.8,421.5,726.6,1118.2,1487.5,585.9,25.0,-17.0,40.0,11221.0,10744.0,-678.0,5160.0,-147.0,-43.0,-13.0,10.0,3.0,29.0,11622.0,10691.0,3270.0,2894.0,-106.0,-27.0,17.0,1.0
2022-05-08 18:21:43.559854-07:00,834.4,884.8,1383.0,936.4,764.5,441.2,1436.0,1028.8,3483.2,3469.8,700.3,857.0,410.6,3492.9,1148.0,794.4,3474.6,3484.4,385.6,572.2,429.4,481.4,233.3,237.1,3477.1,3478.3,557.0,427.0,726.6,1118.2,1477.3,577.8,8.0,-34.0,3.0,11277.0,10685.0,-705.0,5158.0,-178.0,7.0,-15.0,10.0,8.0,0.0,11660.0,10651.0,3253.0,2911.0,-134.0,20.0,21.0,1.0
2022-05-08 18:21:43.619647-07:00,834.4,884.8,1390.3,935.6,764.5,441.2,1418.6,1015.1,3483.2,3469.8,699.5,858.7,410.6,3492.9,1150.6,788.6,3474.6,3477.1,385.6,572.2,426.2,487.7,233.3,237.1,3480.7,3488.0,557.0,427.0,720.8,1114.7,1477.3,577.8,16.0,14.0,-3.0,11297.0,10647.0,-729.0,5188.0,-68.0,83.0,79.0,11.0,-2.0,-19.0,11686.0,10613.0,3248.0,2950.0,-140.0,76.0,41.0,1.0
2022-05-08 18:21:43.679829-07:00,827.7,900.0,1390.3,935.6,762.0,441.2,1418.6,1015.1,3469.8,3478.3,699.5,858.7,411.4,3495.3,1150.6,788.6,3474.6,3477.1,385.6,572.2,426.2,487.7,238.6,232.5,3480.7,3488.0,561.8,426.2,720.8,1114.7,1472.7,571.4,-10.0,-16.0,-20.0,11345.0,10580.0,-744.0,5219.0,-265.0,31.0,3.0,-5.0,1.0,-11.0,11729.0,10552.0,3253.0,2992.0,-191.0,43.0,4.0,1.0
2022-05-08 18:21:43.709867-07:00,827.7,900.0,1385.7,937.3,762.0,441.2,1409.4,1001.3,3469.8,3478.3,701.9,858.7,411.4,3495.3,1172.6,791.9,3480.7,3485.6,385.6,572.2,433.3,486.9,238.6,232.5,3475.9,3484.4,561.8,426.2,721.6,1115.6,1472.7,571.4,15.0,13.0,-2.0,11379.0,10544.0,-757.0,5215.0,-61.0,28.0,-37.0,0.0,4.0,-18.0,11749.0,10523.0,3256.0,3009.0,-36.0,25.0,3.0,1.0
2022-05-08 18:21:43.769617-07:00,828.5,919.4,1385.7,937.3,756.3,439.6,1409.4,1001.3,3467.4,3472.2,701.9,858.7,410.6,3502.7,1172.6,791.9,3480.7,3485.6,387.9,568.2,433.3,486.9,250.0,238.6,3475.9,3484.4,553.0,425.5,721.6,1115.6,1456.2,569.8,2.0,-7.0,-4.0,11402.0,10508.0,-747.0,5239.0,-100.0,90.0,44.0,4.0,7.0,-7.0,11771.0,10490.0,3264.0,3031.0,-141.0,61.0,8.0,1.0
2022-05-08 18:21:43.829720-07:00,828.5,919.4,1385.7,936.4,756.3,439.6,1411.3,990.2,3467.4,3472.2,706.9,851.1,410.6,3502.7,1152.4,787.7,3474.6,3477.1,387.9,568.2,433.3,485.3,250.0,238.6,3483.2,3478.3,553.0,425.5,719.2,1115.6,1456.2,569.8,6.0,-5.0,-4.0,11440.0,10459.0,-771.0,5251.0,-151.0,-26.0,30.0,7.0,-10.0,-10.0,11806.0,10444.0,3261.0,3057.0,-113.0,23.0,19.0,1.0
2022-05-08 18:21:43.859839-07:00,828.5,919.4,1393.0,936.4,758.7,436.4,1411.3,990.2,3478.3,3469.8,699.5,851.1,414.5,3496.6,1152.4,787.7,3474.6,3477.1,385.6,568.2,433.3,483.7,237.1,238.6,3483.2,3478.3,549.8,423.1,719.2,1112.1,1449.7,573.0,0.0,13.0,-17.0,11463.0,10424.0,-761.0,5272.0,-66.0,124.0,9.0,-3.0,13.0,-13.0,11827.0,10413.0,3266.0,3077.0,-131.0,66.0,-1.0,1.0
2022-05-08 18:21:43.949913-07:00,828.5,919.4,1393.0,934.7,758.7,442.7,1403.0,982.5,3478.3,3469.8,699.5,856.2,414.5,3503.9,1148.9,782.7,3475.9,3478.3,387.2,568.2,432.5,483.7,237.1,238.6,3478.3,3479.5,557.0,423.1,717.5,1112.1,1449.7,573.0,-1.0,-6.0,-26.0,11496.0,10389.0,-762.0,5270.0,-120.0,-12.0,-51.0,-2.0,-12.0,-23.0,11848.0,10382.0,3271.0,3093.0,-71.0,7.0,-16.0,1.0
2022-05-08 18:21:43.983348-07:00,831.1,933.0,1385.7,934.7,762.0,442.7,1403.0,982.5,3478.3,3472.2,692.1,856.2,407.5,3503.9,1148.9,782.7,3475.9,3478.3,387.2,568.2,432.5,481.4,236.3,231.7,3478.3,3479.5,557.0,435.7,717.5,1106.9,1440.5,565.0,14.0,-12.0,14.0,11516.0,10377.0,-761.0,5249.0,-20.0,-27.0,-26.0,4.0,10.0,8.0,11849.0,10379.0,3277.0,3094.0,17.0,20.0,-5.0,1.0
2022-05-08 18:21:44.009806-07:00,831.1,933.0,1385.7,936.4,762.0,438.8,1395.7,973.1,3478.3,3472.2,692.1,851.1,407.5,3495.3,1152.4,777.8,3479.5,3479.5,387.9,568.2,429.4,481.4,236.3,231.7,3480.7,3478.3,556.2,435.7,711.8,1106.9,1440.5,565.0,9.0,-15.0,1.0,11517.0,10377.0,-762.0,5248.0,5.0,-7.0,2.0,0.0,5.0,6.0,11843.0,10377.0,3292.0,3107.0,9.0,58.0,0.0,1.0
2022-05-08 18:21:44.069597-07:00,829.4,938.1,1385.7,936.4,750.5,438.8,1395.7,973.1,3479.5,3474.6,692.9,851.1,414.5,3495.3,1152.4,777.8,3479.5,3479.5,387.9,571.4,429.4,484.5,238.6,235.5,3480.7,3478.3,556.2,426.2,711.8,1105.1,1450.6,561.0,14.0,-6.0,16.0,11522.0,10360.0,-747.0,5271.0,-21.0,152.0,11.0,0.0,6.0,-10.0,11844.0,10367.0,3307.0,3121.0,-74.0,86.0,-13.0,1.0
2022-05-08 18:21:44.129732-07:00,829.4,938.1,1385.7,941.5,750.5,439.6,1390.3,968.8,3479.5,3474.6,692.9,851.1,414.5,3500.2,1145.4,782.7,3474.6,3477.1,384.0,571.4,429.4,484.5,238.6,235.5,3481.9,3478.3,553.0,426.2,713.4,1105.1,1450.6,561.0,4.0,-22.0,0.0,11531.0,10321.0,-707.0,5333.0,-51.0,186.0,66.0,3.0,10.0,0.0,11864.0,10330.0,3328.0,3149.0,-121.0,97.0,2.0,1.0
2022-05-08 18:21:44.189761-07:00,828.5,939.8,1384.8,933.0,751.3,439.6,1390.3,968.8,3473.4,3479.5,687.2,856.2,418.4,3500.2,1145.4,782.7,3474.6,3477.1,384.0,562.6,430.2,481.4,233.3,234.0,3481.9,3478.3,553.0,429.4,714.2,1100.8,1427.7,565.0,19.0,-11.0,30.0,11542.0,10270.0,-676.0,5412.0,-69.0,285.0,56.0,-1.0,-21.0,-5.0,11891.0,10278.0,3350.0,3192.0,-132.0,137.0,-17.0,1.0
2022-05-08 18:21:44.219715-07:00,828.5,939.8,1384.8,933.0,746.3,441.2,1393.9,966.2,3473.4,3479.5,687.2,856.2,408.2,3490.5,1142.7,783.6,3481.9,3475.9,386.4,564.2,430.2,481.4,233.3,234.0,3478.3,3479.5,557.0,432.5,714.2,1100.8,1427.7,565.0,47.0,-31.0,62.0,11532.0,10224.0,-534.0,5533.0,184.0,589.0,-2.0,10.0,4.0,-15.0,11902.0,10240.0,3393.0,3225.0,-4.0,139.0,-60.0,1.0
2022-05-08 18:21:44.279744-07:00,829.4,939.8,1382.1,933.0,746.3,441.2,1393.9,966.2,3472.2,3478.3,692.9,858.7,408.2,3490.5,1142.7,783.6,3481.9,3475.9,386.4,564.2,424.7,483.7,238.6,234.8,3478.3,3479.5,557.0,432.5,711.8,1104.3,1422.2,557.8,36.0,80.0,33.0,11488.0,10144.0,-139.0,5791.0,294.0,1392.0,-277.0,4.0,-22.0,-12.0,11925.0,10188.0,3450.0,3244.0,-251.0,151.0,-137.0,1.0
2022-05-08 18:21:44.309820-07:00,829.4,939.8,1382.1,933.0,752.1,441.9,1408.5,962.0,3472.2,3478.3,692.9,858.7,411.4,3489.2,1141.9,783.6,3488.0,3477.1,397.3,565.0,424.7,483.7,238.6,234.8,3479.5,3474.6,549.0,445.1,711.8,1104.3,1422.2,557.8,56.0,184.0,-66.0,11466.0,10055.0,646.0,5954.0,852.0,1721.0,-1330.0,3.0,-50.0,-61.0,11955.0,10128.0,3551.0,3212.0,-35.0,-1.0,-455.0,1.0
2022-05-08 18:21:44.369636-07:00,833.6,968.8,1401.2,936.4,752.1,441.9,1408.5,962.0,3478.3,3477.1,695.4,855.3,411.4,3489.2,1141.9,783.6,3488.0,3477.1,397.3,565.0,424.7,482.2,236.3,240.1,3479.5,3474.6,549.0,445.1,715.9,1119.1,1417.6,558.6,42.0,-20.0,-230.0,11366.0,10192.0,1941.0,5621.0,2069.0,1334.0,-2548.0,-69.0,-3.0,-118.0,12004.0,10086.0,3700.0,2986.0,246.0,-193.0,-644.0,1.0
2022-05-08 18:21:44.429913-07:00,833.6,968.8,1401.2,936.4,754.6,479.0,1412.2,955.1,3478.3,3477.1,695.4,855.3,412.9,3495.3,1231.9,776.9,3475.9,3483.2,398.9,559.4,424.7,482.2,236.3,240.1,3478.3,3483.2,570.6,511.5,715.9,1119.1,1417.6,558.6,-46.0,-20.0,-101.0,11050.0,10512.0,3338.0,4969.0,2355.0,627.0,-2728.0,-43.0,96.0,-4.0,12305.0,9823.0,3624.0,2718.0,-528.0,-549.0,-404.0,1.0
2022-05-08 18:21:44.639306-07:00,827.7,960.2,1408.5,930.5,754.6,479.0,1412.2,932.2,3480.7,3477.1,689.7,858.7,412.9,3495.3,1231.9,782.7,3479.5,3483.2,398.9,559.4,430.2,482.2,241.6,242.4,3480.7,3483.2,570.6,511.5,720.0,1111.2,1445.1,557.0,20.0,-243.0,130.0,10895.0,10572.0,4284.0,4428.0,1260.0,818.0,-1739.0,336.0,-233.0,-43.0,12272.0,9902.0,3674.0,2509.0,1897.0,337.0,38.0,1.0
2022-05-08 18:21:44.640448-07:00,843.6,960.2,1408.5,930.5,753.8,494.8,1530.1,932.2,3478.3,3477.1,689.7,858.7,412.9,3496.6,1108.6,782.7,3479.5,3483.2,398.1,563.4,430.2,482.2,241.6,240.9,3480.7,3486.8,573.0,537.8,720.0,1111.2,1445.1,556.2,5.0,-7.0,43.0,10580.0,10746.0,4990.0,4014.0,891.0,367.0,-1086.0,36.0,66.0,43.0,11983.0,10220.0,3832.0,2394.0,300.0,-26.0,-110.0,1.0
2022-05-08 18:21:44.641564-07:00,843.6,1009.0,1427.7,939.0,753.8,494.8,1530.1,918.6,3478.3,3474.6,675.0,853.7,412.9,3496.6,1108.6,777.8,3480.7,3483.2,398.1,563.4,422.3,489.3,244.7,240.9,3480.7,3486.8,573.0,537.8,726.6,1101.7,1363.9,556.2,-12.0,-72.0,53.0,10603.0,10655.0,5256.0,3854.0,-54.0,123.0,-542.0,0.0,-40.0,9.0,12008.0,10207.0,3813.0,2349.0,-229.0,-156.0,1.0,1.0
2022-05-08 18:21:44.642993-07:00,852.0,1009.0,1427.7,939.0,755.4,493.2,1559.0,918.6,3467.4,3474.6,675.0,853.7,417.6,3494.1,1005.6,777.8,3480.7,3483.2,395.7,561.0,422.3,489.3,244.7,243.9,3480.7,3479.5,572.2,530.6,726.6,1101.7,1363.9,549.8,5.0,15.0,24.0,10593.0,10637.0,5392.0,3743.0,230.0,11.0,-294.0,6.0,14.0,-10.0,12032.0,10197.0,3776.0,2329.0,61.0,-46.0,-11.0,1.0
2022-05-08 18:21:44.669427-07:00,852.0,1042.6,1423.1,944.9,755.4,493.2,1559.0,912.7,3467.4,3478.3,673.3,852.8,417.6,3494.1,1005.6,775.3,3480.7,3483.2,395.7,561.0,426.2,479.8,242.4,243.9,3477.1,3479.5,572.2,530.6,719.2,1096.4,1338.6,549.8,2.0,6.0,31.0,10589.0,10616.0,5500.0,3656.0,-18.0,27.0,-272.0,7.0,19.0,19.0,12033.0,10203.0,3771.0,2304.0,-5.0,-16.0,-37.0,1.0
2022-05-08 18:21:44.790360-07:00,852.8,1042.6,1423.1,944.9,758.7,486.9,1573.0,912.7,3474.6,3478.3,673.3,852.8,409.0,3495.3,973.1,775.3,3480.7,3475.9,397.3,561.8,426.2,479.8,242.4,243.9,3477.1,3481.9,576.2,532.2,719.2,1096.4,1338.6,552.2,3.0,-33.0,29.0,10608.0,10587.0,5534.0,3635.0,-8.0,-3.0,-45.0,-4.0,3.0,27.0,12039.0,10200.0,3769.0,2292.0,-35.0,-39.0,0.0,1.0
2022-05-08 18:21:44.791502-07:00,852.8,1047.8,1423.1,940.7,758.7,486.9,1560.9,911.0,3474.6,3478.3,679.1,859.5,409.0,3495.3,953.4,771.1,3481.9,3480.7,397.3,561.8,422.3,482.2,244.7,243.9,3475.9,3488.0,576.2,532.2,715.1,1101.7,1323.2,552.2,12.0,3.0,22.0,10620.0,10589.0,5515.0,3617.0,5.0,-86.0,30.0,1.0,11.0,-2.0,12050.0,10193.0,3753.0,2289.0,-10.0,-17.0,18.0,1.0
2022-05-08 18:21:44.969565-07:00,847.0,1050.4,1423.1,940.7,741.4,483.0,1560.9,911.0,3478.3,3478.3,679.1,859.5,414.5,3500.2,953.4,771.1,3481.9,3480.7,398.9,562.6,422.3,482.2,250.8,244.7,3475.9,3488.0,576.2,526.6,715.1,1101.7,1316.9,548.2,21.0,-37.0,10.0,10645.0,10581.0,5474.0,3631.0,-107.0,-45.0,73.0,-8.0,-30.0,-8.0,12054.0,10191.0,3748.0,2289.0,-33.0,-14.0,5.0,1.0
2022-05-08 18:21:44.970901-07:00,847.0,1050.4,1424.1,938.1,741.4,483.0,1551.5,900.0,3478.3,3478.3,666.0,856.2,414.5,3500.2,946.6,772.8,3479.5,3483.2,398.9,562.6,423.1,483.0,250.8,244.7,3472.2,3480.7,576.2,526.6,719.2,1092.9,1316.9,548.2,12.0,21.0,19.0,10648.0,10596.0,5436.0,3638.0,14.0,-93.0,59.0,-1.0,8.0,6.0,12050.0,10198.0,3743.0,2284.0,61.0,-11.0,3.0,1.0
2022-05-08 18:21:44.971960-07:00,850.3,1044.4,1424.1,938.1,745.5,482.2,1551.5,900.0,3478.3,3474.6,666.0,856.2,409.8,3495.3,946.6,772.8,3479.5,3483.2,392.6,559.4,423.1,483.0,246.2,244.7,3472.2,3480.7,573.8,521.0,719.2,1092.9,1309.7,549.0,13.0,-17.0,21.0,10666.0,10603.0,5392.0,3627.0,-22.0,-84.0,65.0,-1.0,-2.0,-5.0,12044.0,10206.0,3744.0,2282.0,20.0,5.0,4.0,1.0
2022-05-08 18:21:44.972895-07:00,850.3,1044.4,1406.7,941.5,745.5,482.2,1542.2,913.5,3478.3,3474.6,664.4,857.9,409.8,3495.3,944.1,767.8,3477.1,3483.2,392.6,559.4,423.1,482.2,246.2,244.7,3484.4,3477.1,573.8,521.0,710.1,1083.4,1309.7,549.0,18.0,17.0,26.0,10677.0,10615.0,5345.0,3633.0,-23.0,-30.0,48.0,1.0,5.0,2.0,12044.0,10207.0,3739.0,2282.0,-13.0,-16.0,6.0,1.0
2022-05-08 18:21:45.089397-07:00,844.4,1034.0,1406.7,941.5,739.7,483.0,1542.2,913.5,3477.1,3475.9,664.4,857.9,414.5,3500.2,944.1,767.8,3477.1,3483.2,395.0,565.0,423.1,482.2,237.8,243.9,3484.4,3477.1,576.2,521.0,710.1,1083.4,1302.5,541.8,13.0,5.0,20.0,10679.0,10617.0,5333.0,3636.0,-2.0,5.0,-18.0,-1.0,5.0,2.0,12039.0,10212.0,3743.0,2277.0,32.0,18.0,-15.0,1.0
2022-05-08 18:21:45.090677-07:00,844.4,1034.0,1429.5,943.2,739.7,483.7,1538.5,911.0,3477.1,3475.9,664.4,852.8,414.5,3499.0,938.1,768.7,3483.2,3479.5,396.5,565.0,421.5,485.3,237.8,243.9,3479.5,3480.7,569.0,521.0,711.8,1074.7,1302.5,541.8,11.0,-13.0,9.0,10684.0,10611.0,5330.0,3644.0,-15.0,2.0,16.0,-3.0,-14.0,-2.0,12030.0,10219.0,3754.0,2279.0,16.0,21.0,2.0,1.0
2022-05-08 18:21:45.209659-07:00,847.0,1028.0,1406.7,943.2,737.3,483.7,1538.5,911.0,3469.8,3471.0,662.7,852.8,409.0,3499.0,938.1,768.7,3483.2,3479.5,396.5,563.4,421.5,484.5,240.1,241.6,3479.5,3480.7,569.0,518.7,711.8,1086.8,1303.4,543.4,15.0,38.0,13.0,10679.0,10623.0,5327.0,3628.0,77.0,-19.0,-66.0,-5.0,23.0,-22.0,12020.0,10228.0,3760.0,2280.0,42.0,9.0,-7.0,1.0
2022-05-08 18:21:45.211257-07:00,847.0,1028.0,1406.7,937.3,737.3,479.8,1527.3,902.5,3469.8,3471.0,662.7,855.3,409.0,3494.1,933.9,767.0,3480.7,3477.1,394.2,563.4,423.1,484.5,240.1,241.6,3484.4,3479.5,565.0,518.7,715.9,1086.8,1303.4,543.4,15.0,-23.0,16.0,10683.0,10608.0,5361.0,3612.0,-44.0,50.0,-87.0,1.0,-21.0,6.0,12015.0,10231.0,3773.0,2274.0,10.0,16.0,-23.0,1.0
2022-05-08 18:21:45.212154-07:00,842.8,1034.0,1402.1,937.3,740.6,479.8,1527.3,902.5,3467.4,3477.1,661.1,855.3,409.8,3494.1,933.9,767.0,3480.7,3477.1,394.2,559.4,423.1,483.0,244.7,243.9,3484.4,3479.5,565.0,519.5,715.9,1084.2,1307.0,552.2,12.0,-4.0,6.0,10689.0,10600.0,5375.0,3598.0,29.0,-61.0,-15.0,-5.0,-2.0,-1.0,12009.0,10235.0,3781.0,2273.0,26.0,7.0,-4.0,1.0
2022-05-08 18:21:45.269618-07:00,842.8,1034.0,1402.1,942.4,740.6,476.6,1530.1,921.1,3467.4,3477.1,661.1,856.2,409.8,3496.6,927.1,772.0,3480.7,3472.2,395.7,559.4,423.9,483.0,244.7,243.9,3475.9,3478.3,567.4,519.5,715.1,1084.2,1307.0,552.2,8.0,-6.0,20.0,10690.0,10605.0,5367.0,3590.0,-16.0,18.0,21.0,-5.0,-1.0,0.0,12007.0,10238.0,3782.0,2271.0,1.0,2.0,1.0,1.0
2022-05-08 18:21:45.449713-07:00,847.8,1028.8,1398.5,942.4,738.1,476.6,1530.1,921.1,3473.4,3474.6,659.5,857.0,414.5,3496.6,927.1,772.0,3480.7,3472.2,395.7,559.4,423.1,485.3,243.2,239.3,3475.9,3478.3,567.4,513.1,709.3,1086.0,1302.5,537.0,16.0,11.0,2.0,10693.0,10605.0,5356.0,3597.0,-2.0,-45.0,12.0,-1.0,9.0,-9.0,12002.0,10242.0,3784.0,2272.0,28.0,16.0,5.0,1.0
2022-05-08 18:21:45.451060-07:00,847.8,1028.8,1398.5,942.4,742.2,481.4,1516.2,897.4,3473.4,3474.6,659.5,857.0,410.6,3495.3,923.7,767.0,3477.1,3483.2,395.0,561.8,423.1,485.3,243.2,239.3,3488.0,3480.7,564.2,518.7,709.3,1086.0,1302.5,537.0,15.0,2.0,14.0,10698.0,10605.0,5350.0,3593.0,-10.0,-6.0,-11.0,-1.0,7.0,-8.0,11998.0,10246.0,3787.0,2272.0,12.0,10.0,-5.0,1.0
2022-05-08 18:21:45.451989-07:00,844.4,1035.7,1393.0,937.3,742.2,481.4,1516.2,897.4,3472.2,3478.3,661.9,858.7,410.6,3495.3,923.7,767.0,3477.1,3483.2,395.0,561.8,422.3,484.5,243.9,244.7,3488.0,3480.7,564.2,518.7,713.4,1086.0,1292.7,545.8,9.0,-5.0,4.0,10702.0,10599.0,5347.0,3602.0,-73.0,-1.0,32.0,-2.0,0.0,-1.0,12003.0,10242.0,3784.0,2271.0,-34.0,-14.0,6.0,1.0
2022-05-08 18:21:45.453830-07:00,844.4,1035.7,1393.0,937.3,731.5,482.2,1519.9,890.7,3472.2,3478.3,661.9,858.7,412.1,3496.6,925.4,768.7,3488.0,3483.2,392.6,558.6,422.3,484.5,243.9,244.7,3479.5,3477.1,570.6,517.9,713.4,1086.0,1292.7,545.8,9.0,18.0,7.0,10716.0,10594.0,5326.0,3606.0,10.0,-65.0,6.0,-3.0,3.0,-9.0,12010.0,10237.0,3774.0,2272.0,-12.0,-19.0,9.0,1.0
2022-05-08 18:21:45.510385-07:00,846.1,1032.3,1395.7,937.3,731.5,482.2,1519.9,890.7,3480.7,3478.3,653.0,849.5,412.1,3496.6,925.4,768.7,3488.0,3483.2,392.6,558.6,423.9,480.6,241.6,241.6,3479.5,3477.1,570.6,517.9,708.5,1091.2,1289.1,544.2,15.0,-18.0,16.0,10726.0,10594.0,5311.0,3599.0,-80.0,3.0,9.0,2.0,-22.0,8.0,12019.0,10229.0,3768.0,2271.0,-55.0,-20.0,-3.0,1.0
2022-05-08 18:21:45.630507-07:00,846.1,1032.3,1395.7,937.3,737.3,479.0,1513.4,894.9,3480.7,3478.3,653.0,849.5,410.6,3484.4,927.9,768.7,3466.1,3472.2,395.7,559.4,423.9,480.6,241.6,241.6,3475.9,3478.3,564.2,513.9,708.5,1091.2,1289.1,544.2,15.0,6.0,8.0,10742.0,10587.0,5293.0,3597.0,17.0,-66.0,12.0,-3.0,4.0,-16.0,12025.0,10222.0,3766.0,2272.0,9.0,0.0,4.0,1.0
2022-05-08 18:21:45.749737-07:00,847.0,1034.0,1401.2,939.0,737.3,479.0,1513.4,902.5,3469.8,3473.4,661.1,857.0,410.6,3484.4,927.9,767.8,3483.2,3472.2,395.7,559.4,421.5,482.2,244.7,240.1,3474.6,3478.3,564.2,513.9,707.7,1072.9,1291.8,541.0,11.0,-10.0,20.0,10742.0,10592.0,5292.0,3587.0,-22.0,10.0,-29.0,-5.0,0.0,-5.0,12024.0,10222.0,3769.0,2271.0,-6.0,9.0,-16.0,1.0
2022-05-08 18:21:45.751697-07:00,848.6,1034.0,1401.2,939.0,737.3,481.4,1514.3,902.5,3474.6,3473.4,661.1,857.0,404.3,3502.7,920.3,767.8,3483.2,3481.9,392.6,561.0,421.5,482.2,244.7,243.2,3474.6,3474.6,564.2,517.1,707.7,1072.9,1291.8,541.8,11.0,2.0,0.0,10749.0,10582.0,5290.0,3595.0,1.0,-31.0,20.0,-1.0,-1.0,-2.0,12024.0,10222.0,3770.0,2270.0,23.0,9.0,8.0,1.0
2022-05-08 18:21:45.752674-07:00,848.6,1029.7,1396.7,944.1,737.3,481.4,1514.3,897.4,3474.6,3477.1,660.3,857.9,404.3,3502.7,920.3,765.3,3489.2,3481.9,392.6,561.0,420.8,479.8,241.6,243.2,3477.1,3474.6,564.2,517.1,707.7,1076.4,1282.8,541.8,14.0,14.0,13.0,10744.0,10594.0,5287.0,3582.0,16.0,10.0,-33.0,0.0,12.0,-4.0,12018.0,10229.0,3772.0,2266.0,12.0,9.0,-20.0,1.0
2022-05-08 18:21:45.754451-07:00,841.9,1029.7,1396.7,944.1,734.8,480.6,1523.6,897.4,3469.8,3477.1,660.3,857.9,410.6,3494.1,919.4,765.3,3489.2,3473.4,393.4,564.2,420.8,479.8,241.6,236.3,3477.1,3483.2,564.2,513.1,707.7,1076.4,1282.8,542.6,7.0,-12.0,14.0,10745.0,10588.0,5296.0,3581.0,18.0,-4.0,-8.0,-2.0,-8.0,2.0,12014.0,10232.0,3779.0,2264.0,30.0,14.0,0.0,1.0
2022-05-08 18:21:46.080286-07:00,841.9,1028.8,1394.8,937.3,734.8,480.6,1523.6,894.9,3469.8,3472.2,660.3,854.5,410.6,3494.1,919.4,757.9,3479.5,3473.4,393.4,564.2,418.4,476.6,243.2,236.3,3475.9,3483.2,564.2,513.1,708.5,1079.9,1281.0,542.6,9.0,20.0,5.0,10742.0,10596.0,5296.0,3568.0,45.0,-11.0,-48.0,-3.0,14.0,-9.0,12005.0,10240.0,3785.0,2265.0,32.0,16.0,-15.0,1.0
2022-05-08 18:21:46.082553-07:00,846.1,1028.8,1394.8,937.3,735.6,483.7,1521.8,894.9,3474.6,3472.2,660.3,854.5,412.1,3495.3,911.0,757.9,3479.5,3472.2,391.1,561.0,418.4,476.6,243.2,245.4,3475.9,3467.4,562.6,517.9,708.5,1079.9,1281.0,538.6,7.0,-3.0,13.0,10735.0,10600.0,5318.0,3543.0,34.0,7.0,-76.0,-3.0,5.0,-4.0,11998.0,10245.0,3796.0,2259.0,9.0,11.0,-26.0,1.0
2022-05-08 18:21:46.083507-07:00,846.1,1026.3,1387.5,928.8,735.6,483.7,1512.5,889.0,3474.6,3467.4,657.0,855.3,412.1,3495.3,913.5,756.3,3477.1,3484.4,391.1,561.0,419.2,480.6,245.4,245.4,3481.9,3474.6,562.6,517.9,707.7,1076.4,1299.0,538.6,7.0,-6.0,8.0,10740.0,10593.0,5326.0,3535.0,21.0,-7.0,-16.0,0.0,-7.0,0.0,11994.0,10247.0,3806.0,2259.0,22.0,20.0,-3.0,1.0
2022-05-08 18:21:46.084298-07:00,846.1,1026.3,1387.5,928.8,733.2,478.2,1512.5,889.0,3467.4,3478.3,657.0,855.3,406.7,3491.7,913.5,756.3,3477.1,3484.4,387.2,560.2,419.2,480.6,242.4,247.7,3481.9,3474.6,564.2,517.9,707.7,1076.4,1284.6,542.6,17.0,14.0,15.0,10735.0,10600.0,5333.0,3522.0,9.0,17.0,-36.0,-1.0,14.0,-18.0,11983.0,10256.0,3815.0,2260.0,23.0,12.0,-16.0,1.0
2022-05-08 18:21:46.200367-07:00,846.1,1026.3,1389.4,943.2,733.2,478.2,1507.8,890.7,3467.4,3478.3,660.3,860.4,406.7,3491.7,914.4,766.2,3473.4,3471.0,387.2,560.2,419.2,484.5,242.4,247.7,3479.5,3477.1,564.2,517.9,709.3,1071.2,1284.6,542.6,6.0,-12.0,3.0,10737.0,10586.0,5348.0,3531.0,2.0,27.0,-3.0,-5.0,-12.0,-7.0,11981.0,10255.0,3823.0,2260.0,8.0,12.0,-6.0,1.0
2022-05-08 18:21:46.201153-07:00,846.1,1026.3,1389.4,943.2,733.2,478.2,1507.8,890.7,3467.4,3478.3,660.3,860.4,406.7,3491.7,914.4,766.2,3473.4,3471.0,387.2,560.2,419.2,484.5,242.4,247.7,3479.5,3477.1,564.2,517.9,709.3,1071.2,1284.6,542.6,6.0,-12.0,3.0,10737.0,10586.0,5348.0,3531.0,2.0,27.0,-3.0,-5.0,-12.0,-7.0,11981.0,10255.0,3823.0,2260.0,8.0,12.0,-6.0,1.0
2022-05-08 18:21:46.202203-07:00,839.4,1025.4,1385.7,935.6,734.8,476.6,1503.2,889.0,3468.6,3472.2,656.2,858.7,411.4,3492.9,918.6,762.0,3467.4,3477.1,394.2,560.2,423.9,479.0,240.9,243.9,3478.3,3488.0,561.0,511.5,710.1,1074.7,1284.6,541.0,12.0,-2.0,7.0,10734.0,10586.0,5356.0,3531.0,-5.0,-3.0,2.0,-1.0,0.0,-9.0,11983.0,10253.0,3824.0,2259.0,-22.0,-6.0,-1.0,1.0
2022-05-08 18:21:46.203521-07:00,839.4,1025.4,1389.4,937.3,734.8,485.3,1501.4,890.7,3468.6,3472.2,653.0,857.0,411.4,3499.0,915.2,766.2,3488.0,3479.5,392.6,560.2,420.0,483.0,240.9,243.9,3478.3,3477.1,562.6,511.5,710.1,1079.0,1284.6,541.0,7.0,3.0,10.0,10736.0,10585.0,5354.0,3532.0,3.0,-13.0,-8.0,-4.0,0.0,-10.0,11988.0,10248.0,3820.0,2258.0,-12.0,-7.0,-3.0,1.0
2022-05-08 18:21:46.320681-07:00,841.1,1023.7,1383.0,937.3,734.8,485.3,1501.4,890.7,3468.6,3478.3,653.0,857.0,414.5,3499.0,915.2,766.2,3488.0,3479.5,392.6,554.6,420.0,483.7,243.2,245.4,3478.3,3477.1,562.6,509.9,710.1,1077.3,1283.7,535.4,8.0,2.0,13.0,10739.0,10583.0,5354.0,3527.0,-4.0,-4.0,-19.0,0.0,10.0,-4.0,11989.0,10248.0,3820.0,2259.0,-5.0,1.0,-1.0,1.0
2022-05-08 18:21:46.322222-07:00,841.1,1023.7,1383.0,934.7,734.8,479.8,1504.1,891.5,3468.6,3478.3,653.0,858.7,414.5,3496.6,911.0,776.1,3477.1,3480.7,395.7,554.6,416.8,483.7,243.2,245.4,3477.1,3473.4,559.4,509.9,712.6,1077.3,1283.7,535.4,9.0,-10.0,13.0,10744.0,10581.0,5347.0,3532.0,-8.0,-5.0,18.0,-3.0,-3.0,-4.0,11989.0,10247.0,3820.0,2259.0,-15.0,-3.0,7.0,1.0
2022-05-08 18:21:46.379871-07:00,846.1,1020.2,1383.9,934.7,724.9,479.8,1504.1,891.5,3474.6,3468.6,650.5,858.7,414.5,3496.6,911.0,776.1,3477.1,3480.7,395.7,556.2,416.8,483.7,243.2,238.6,3477.1,3473.4,559.4,510.7,712.6,1072.9,1291.8,539.4,14.0,13.0,11.0,10742.0,10583.0,5345.0,3532.0,24.0,-2.0,-18.0,4.0,7.0,-4.0,11989.0,10248.0,3819.0,2259.0,13.0,9.0,-1.0,1.0
2022-05-08 18:21:46.469760-07:00,846.1,1020.2,1383.9,938.1,724.9,475.8,1481.9,886.5,3474.6,3468.6,650.5,854.5,414.5,3497.8,904.2,760.4,3483.2,3477.1,395.7,556.2,424.7,483.7,243.2,238.6,3478.3,3477.1,564.2,510.7,706.9,1072.9,1291.8,539.4,9.0,0.0,25.0,10742.0,10583.0,5349.0,3526.0,7.0,-15.0,-12.0,7.0,3.0,11.0,11983.0,10250.0,3826.0,2264.0,8.0,32.0,-2.0,1.0
2022-05-08 18:21:46.471107-07:00,845.3,1018.5,1382.1,938.1,729.0,475.8,1481.9,886.5,3480.7,3474.6,649.7,854.5,412.1,3497.8,904.2,760.4,3483.2,3477.1,395.7,553.8,424.7,479.8,240.1,243.2,3478.3,3477.1,564.2,513.1,706.9,1075.6,1276.5,545.0,13.0,6.0,38.0,10763.0,10561.0,5330.0,3557.0,-85.0,53.0,65.0,12.0,22.0,33.0,11983.0,10242.0,3839.0,2280.0,-19.0,71.0,15.0,1.0
2022-05-08 18:21:46.499619-07:00,845.3,1018.5,1382.1,936.4,732.3,479.0,1491.2,888.2,3480.7,3474.6,649.7,856.2,412.1,3496.6,905.9,760.4,3488.0,3474.6,398.1,556.2,422.3,479.8,240.1,243.2,3467.4,3475.9,566.6,506.7,706.0,1075.6,1276.5,545.0,0.0,58.0,19.0,10812.0,10508.0,5270.0,3654.0,-446.0,21.0,278.0,25.0,76.0,31.0,12018.0,10180.0,3865.0,2334.0,-295.0,163.0,-20.0,1.0
2022-05-08 18:21:46.559808-07:00,845.3,1019.4,1381.2,933.0,732.3,479.0,1491.2,888.2,3467.4,3480.7,651.4,852.8,412.1,3496.6,905.9,760.4,3488.0,3474.6,398.1,556.2,423.1,485.3,243.2,243.2,3467.4,3475.9,566.6,506.7,710.1,1076.4,1301.6,537.8,-32.0,60.0,-23.0,11108.0,10224.0,4929.0,4027.0,-2239.0,-57.0,1127.0,-2.0,171.0,-18.0,12221.0,9902.0,3876.0,2454.0,-1278.0,140.0,-17.0,1.0
2022-05-08 18:21:46.619704-07:00,845.3,1019.4,1381.2,933.0,732.3,476.6,1515.3,921.1,3467.4,3480.7,651.4,852.8,411.4,3491.7,1091.2,769.5,3477.1,3478.3,395.7,558.6,423.1,485.3,243.2,243.2,3478.3,3480.7,583.5,505.9,710.1,1076.4,1301.6,537.8,-52.0,15.0,-43.0,11871.0,9346.0,4139.0,4800.0,-4046.0,-126.0,1318.0,-9.0,117.0,-119.0,12787.0,9185.0,3667.0,2666.0,-2844.0,-143.0,137.0,1.0
2022-05-08 18:21:46.680021-07:00,844.4,1012.5,1373.9,933.0,732.3,476.6,1515.3,921.1,3472.2,3474.6,685.6,859.5,411.4,3491.7,1091.2,769.5,3477.1,3478.3,395.7,558.6,415.3,486.9,244.7,244.7,3478.3,3480.7,583.5,505.9,707.7,1088.6,1408.5,527.4,2.0,-181.0,-300.0,12617.0,8254.0,3015.0,5659.0,-4089.0,-1203.0,1825.0,-17.0,-119.0,61.0,13488.0,8176.0,3317.0,2943.0,-2864.0,-263.0,271.0,1.0
2022-05-08 18:21:46.739699-07:00,844.4,1012.5,1373.9,933.0,734.8,467.9,1539.4,927.9,3472.2,3474.6,685.6,859.5,408.2,3503.9,1248.0,800.2,3477.1,3483.2,390.3,561.8,415.3,486.9,244.7,244.7,3478.3,3488.0,575.4,494.8,707.7,1088.6,1408.5,527.4,30.0,-48.0,-44.0,13046.0,7712.0,1758.0,5972.0,-1770.0,-1432.0,1293.0,-19.0,-18.0,-146.0,13848.0,7617.0,3002.0,3102.0,-1096.0,-336.0,241.0,1.0
2022-05-08 18:21:46.769719-07:00,836.9,991.0,1375.7,939.0,734.8,467.9,1539.4,927.9,3485.6,3471.0,692.9,862.1,408.2,3503.9,1248.0,800.2,3477.1,3483.2,390.3,561.8,422.3,483.0,243.9,245.4,3478.3,3488.0,575.4,494.8,711.8,1106.9,1418.6,537.0,0.0,50.0,-118.0,13180.0,7536.0,670.0,6122.0,-1485.0,-2100.0,1222.0,-22.0,-72.0,-58.0,13999.0,7381.0,2775.0,3205.0,-690.0,-348.0,307.0,1.0
2022-05-08 18:21:46.800168-07:00,830.2,991.0,1375.7,939.0,732.3,460.8,1537.6,907.6,3473.4,3471.0,692.9,862.1,413.7,3492.9,1278.3,810.2,3477.1,3477.1,395.7,560.2,422.3,483.0,243.9,237.8,3471.0,3483.2,571.4,487.7,711.8,1106.9,1418.6,544.2,23.0,-72.0,-2.0,13227.0,7464.0,-295.0,6140.0,-376.0,-1413.0,900.0,46.0,-135.0,-70.0,14048.0,7315.0,2631.0,3265.0,86.0,-147.0,212.0,1.0
2022-05-08 18:21:46.860517-07:00,830.2,993.6,1383.0,944.1,732.3,460.8,1537.6,885.6,3473.4,3471.0,696.2,854.5,413.7,3492.9,1278.3,811.0,3472.2,3477.1,395.7,560.2,430.9,481.4,246.2,237.8,3480.7,3483.2,571.4,487.7,709.3,1111.2,1436.0,544.2,30.0,-72.0,71.0,13183.0,7535.0,-989.0,6073.0,-577.0,-1382.0,415.0,39.0,-107.0,20.0,14009.0,7417.0,2534.0,3277.0,274.0,-289.0,135.0,1.0
2022-05-08 18:21:46.889741-07:00,827.7,993.6,1383.0,944.1,729.0,460.0,1506.9,885.6,3473.4,3471.0,696.2,854.5,410.6,3497.8,1257.8,811.0,3472.2,3483.2,384.8,556.2,430.9,481.4,246.2,241.6,3480.7,3478.3,564.2,477.4,709.3,1111.2,1436.0,538.6,38.0,0.0,128.0,13068.0,7762.0,-1324.0,5972.0,710.0,-631.0,68.0,15.0,-43.0,29.0,13842.0,7751.0,2505.0,3237.0,1143.0,-131.0,129.0,1.0
2022-05-08 18:21:46.980082-07:00,827.7,992.7,1373.0,948.3,729.0,460.0,1506.9,927.9,3473.4,3472.2,707.7,855.3,410.6,3497.8,1257.8,820.2,3477.1,3483.2,384.8,556.2,429.4,483.0,240.1,241.6,3477.1,3478.3,564.2,477.4,707.7,1120.0,1443.3,538.6,37.0,39.0,60.0,12901.0,8077.0,-1297.0,5923.0,757.0,-164.0,3.0,20.0,35.0,-6.0,13657.0,8083.0,2531.0,3193.0,943.0,-65.0,115.0,1.0
2022-05-08 18:21:47.040045-07:00,845.3,992.7,1373.0,948.3,735.6,457.7,1511.5,927.9,3473.4,3472.2,707.7,855.3,411.4,3490.5,1256.9,820.2,3477.1,3481.9,389.5,561.8,429.4,483.0,240.1,243.9,3477.1,3481.9,562.6,471.1,707.7,1120.0,1443.3,540.2,-17.0,-46.0,-69.0,12703.0,8461.0,-1177.0,5839.0,1347.0,-373.0,-320.0,0.0,-18.0,-32.0,13407.0,8496.0,2595.0,3126.0,1512.0,-65.0,-6.0,1.0
2022-05-08 18:21:47.042159-07:00,845.3,997.0,1375.7,942.4,735.6,457.7,1511.5,950.9,3473.4,3473.4,732.3,862.1,411.4,3490.5,1256.9,829.4,3474.6,3481.9,389.5,561.8,429.4,483.0,243.2,243.9,3478.3,3481.9,562.6,471.1,714.2,1141.9,1426.8,540.2,32.0,82.0,-41.0,12418.0,9003.0,-1090.0,5656.0,932.0,-621.0,-257.0,10.0,61.0,-2.0,13080.0,9000.0,2694.0,3015.0,1078.0,-34.0,-8.0,1.0
2022-05-08 18:21:47.099715-07:00,836.9,981.6,1375.7,942.4,744.7,457.7,1512.5,950.9,3478.3,3472.2,732.3,862.1,410.6,3501.4,1254.2,829.4,3474.6,3483.2,390.3,565.0,429.4,483.0,237.8,241.6,3478.3,3478.3,567.4,455.3,714.2,1141.9,1455.2,545.8,49.0,-55.0,-41.0,12296.0,9280.0,-1104.0,5470.0,957.0,-623.0,-332.0,32.0,-26.0,33.0,12817.0,9376.0,2787.0,2914.0,1401.0,67.0,-71.0,1.0
2022-05-08 18:21:47.220490-07:00,836.9,981.6,1397.6,945.8,744.7,457.7,1494.9,933.9,3478.3,3472.2,740.6,858.7,410.6,3501.4,1253.3,842.8,3467.4,3481.9,390.3,565.0,433.3,483.0,237.8,241.6,3474.6,3479.5,567.4,455.3,713.4,1157.7,1455.2,545.8,58.0,30.0,85.0,12056.0,9730.0,-1058.0,5226.0,936.0,-394.0,-366.0,17.0,62.0,12.0,12462.0,9827.0,2946.0,2804.0,1121.0,188.0,-114.0,1.0
2022-05-08 18:21:47.221513-07:00,836.1,963.7,1397.6,945.8,745.5,452.2,1494.9,933.9,3467.4,3473.4,740.6,858.7,412.1,3496.6,1253.3,842.8,3467.4,3481.9,387.9,562.6,433.3,483.0,237.8,240.1,3474.6,3479.5,562.6,449.0,713.4,1157.7,1468.1,573.0,-15.0,-3.0,4.0,11903.0,10033.0,-894.0,5029.0,979.0,-162.0,-1026.0,5.0,-115.0,28.0,12194.0,10121.0,3130.0,2739.0,1208.0,161.0,-263.0,1.0
2022-05-08 18:21:47.249864-07:00,836.1,963.7,1397.6,943.2,745.5,452.2,1484.7,919.4,3467.4,3473.4,740.6,870.5,412.1,3496.6,1226.6,841.1,3483.2,3477.1,387.9,562.6,430.9,486.1,237.8,240.1,3481.9,3478.3,562.6,449.0,712.6,1153.3,1468.1,573.0,31.0,211.0,12.0,11696.0,10499.0,-451.0,4606.0,1347.0,-124.0,-1591.0,-3.0,15.0,-41.0,11816.0,10534.0,3363.0,2559.0,1297.0,81.0,-436.0,1.0
2022-05-08 18:21:47.339658-07:00,836.9,965.4,1397.6,943.2,739.7,449.8,1484.7,919.4,3472.2,3480.7,740.6,870.5,416.1,3499.0,1226.6,841.1,3483.2,3477.1,383.3,565.8,430.9,486.1,240.9,242.4,3481.9,3478.3,563.4,443.5,712.6,1153.3,1458.0,572.2,-69.0,36.0,-81.0,11572.0,10890.0,256.0,3981.0,1465.0,-30.0,-2644.0,-17.0,-133.0,-88.0,11507.0,10833.0,3645.0,2320.0,1289.0,60.0,-700.0,1.0
2022-05-08 18:21:47.342108-07:00,836.9,965.4,1398.5,939.0,739.7,449.8,1485.6,901.7,3472.2,3480.7,752.9,864.6,416.1,3499.0,1212.4,835.2,3473.4,3475.9,383.3,565.8,428.6,490.1,240.9,242.4,3474.6,3483.2,563.4,443.5,711.8,1147.1,1458.0,572.2,2.0,-42.0,-57.0,11304.0,11391.0,1234.0,3066.0,2067.0,-50.0,-2629.0,-9.0,158.0,-166.0,11143.0,11166.0,3966.0,1969.0,1396.0,151.0,-720.0,1.0
2022-05-08 18:21:47.400228-07:00,839.4,954.3,1392.1,939.0,747.2,451.4,1485.6,901.7,3472.2,3478.3,774.5,864.6,415.3,3494.1,1212.4,835.2,3473.4,3475.9,380.2,565.0,428.6,492.5,242.4,243.2,3474.6,3483.2,555.4,435.7,711.8,1145.4,1447.9,581.8,-8.0,-134.0,-29.0,10931.0,11795.0,1996.0,2415.0,927.0,92.0,-1164.0,13.0,53.0,15.0,10792.0,11450.0,4232.0,1718.0,801.0,47.0,-331.0,1.0
2022-05-08 18:21:47.460741-07:00,839.4,954.3,1392.1,941.5,747.2,449.0,1469.0,895.7,3472.2,3478.3,774.5,861.2,415.3,3499.0,1199.1,835.2,3473.4,3472.2,382.5,565.0,430.9,492.5,242.4,243.2,3478.3,3479.5,560.2,435.7,712.6,1145.4,1447.9,581.8,33.0,-166.0,45.0,10797.0,11916.0,2305.0,2134.0,319.0,14.0,-455.0,58.0,45.0,-29.0,10646.0,11564.0,4337.0,1602.0,193.0,133.0,-88.0,1.0
2022-05-08 18:21:47.519682-07:00,836.1,947.5,1390.3,941.5,743.9,449.0,1469.0,895.7,3478.3,3478.3,781.9,861.2,414.5,3499.0,1199.1,835.2,3473.4,3472.2,382.5,565.0,430.9,494.0,240.9,241.6,3478.3,3479.5,560.2,435.7,712.6,1142.7,1440.5,585.9,-15.0,-20.0,-8.0,10733.0,11957.0,2386.0,2139.0,-144.0,188.0,278.0,-22.0,13.0,29.0,10595.0,11604.0,4352.0,1611.0,-37.0,30.0,93.0,1.0
2022-05-08 18:21:47.579790-07:00,836.1,947.5,1390.3,944.9,743.9,442.7,1446.0,891.5,3478.3,3478.3,781.9,863.7,414.5,3496.6,1196.5,835.2,3481.9,3475.9,387.2,565.0,421.5,494.0,240.9,241.6,3477.1,3481.9,564.2,435.7,711.8,1142.7,1440.5,585.9,10.0,-13.0,-18.0,10780.0,11914.0,2290.0,2243.0,-100.0,-90.0,235.0,10.0,40.0,-58.0,10640.0,11571.0,4307.0,1669.0,-143.0,5.0,117.0,1.0
2022-05-08 18:21:47.640249-07:00,837.7,950.0,1386.6,944.9,745.5,442.7,1446.0,891.5,3472.2,3469.8,782.7,863.7,414.5,3496.6,1196.5,835.2,3481.9,3475.9,387.2,561.0,421.5,495.6,241.6,243.2,3477.1,3481.9,564.2,436.4,711.8,1139.2,1441.5,582.6,2.0,24.0,-1.0,10786.0,11910.0,2211.0,2313.0,-183.0,115.0,227.0,-8.0,36.0,-21.0,10654.0,11568.0,4268.0,1700.0,-116.0,-15.0,63.0,1.0
2022-05-08 18:21:47.641952-07:00,837.7,950.0,1386.6,938.1,738.1,445.1,1458.0,894.9,3472.2,3469.8,782.7,860.4,412.9,3489.2,1198.2,834.4,3478.3,3483.2,386.4,561.8,425.5,495.6,241.6,243.2,3479.5,3475.9,557.8,436.4,708.5,1139.2,1441.5,582.6,8.0,-48.0,-3.0,10816.0,11877.0,2153.0,2400.0,37.0,-87.0,163.0,9.0,-37.0,-2.0,10681.0,11551.0,4240.0,1721.0,15.0,-39.0,67.0,1.0
2022-05-08 18:21:47.699768-07:00,852.0,939.0,1383.0,936.4,738.1,445.1,1458.0,894.9,3467.4,3469.8,776.1,862.9,412.9,3489.2,1198.2,834.4,3478.3,3483.2,386.4,561.8,421.5,494.8,240.1,237.8,3479.5,3475.9,557.8,436.4,711.8,1137.5,1441.5,574.6,4.0,-49.0,44.0,10789.0,11909.0,2078.0,2431.0,40.0,-8.0,261.0,-2.0,5.0,-15.0,10655.0,11586.0,4207.0,1728.0,71.0,-16.0,130.0,1.0
2022-05-08 18:21:47.789679-07:00,852.0,939.0,1383.0,936.4,738.9,449.0,1424.1,905.0,3467.4,3469.8,776.1,862.9,410.6,3497.8,1191.2,833.6,3475.9,3477.1,380.9,562.6,421.5,494.8,240.1,237.8,3477.1,3488.0,562.6,436.4,711.8,1137.5,1441.5,574.6,25.0,11.0,-1.0,10772.0,11908.0,1980.0,2586.0,-145.0,157.0,391.0,15.0,-14.0,18.0,10655.0,11595.0,4156.0,1790.0,-145.0,75.0,173.0,1.0
2022-05-08 18:21:47.791476-07:00,835.2,940.7,1371.2,939.0,738.9,449.0,1424.1,905.0,3473.4,3478.3,775.3,860.4,410.6,3497.8,1191.2,833.6,3475.9,3477.1,380.9,562.6,423.9,493.2,239.3,241.6,3477.1,3488.0,562.6,436.4,705.2,1133.1,1437.8,569.8,32.0,77.0,4.0,10780.0,11888.0,1901.0,2696.0,-54.0,50.0,254.0,0.0,61.0,-38.0,10672.0,11580.0,4124.0,1850.0,-52.0,19.0,91.0,1.0
2022-05-08 18:21:47.850247-07:00,835.2,940.7,1371.2,939.0,737.3,441.2,1417.6,911.8,3473.4,3478.3,775.3,860.4,415.3,3490.5,1178.8,831.1,3478.3,3485.6,384.8,559.4,423.9,493.2,239.3,241.6,3477.1,3475.9,557.8,432.5,705.2,1133.1,1437.8,569.8,-9.0,15.0,-58.0,10789.0,11862.0,1871.0,2801.0,-96.0,138.0,138.0,-4.0,-21.0,2.0,10682.0,11569.0,4120.0,1878.0,-40.0,52.0,9.0,1.0
2022-05-08 18:21:47.909724-07:00,836.9,941.5,1373.9,940.7,737.3,441.2,1417.6,911.8,3474.6,3469.8,768.7,861.2,415.3,3490.5,1178.8,831.1,3478.3,3485.6,384.8,559.4,423.1,494.8,241.6,237.8,3477.1,3475.9,557.8,432.5,703.6,1128.7,1437.8,572.2,6.0,7.0,-14.0,10789.0,11880.0,1854.0,2731.0,90.0,-237.0,-148.0,1.0,2.0,-36.0,10668.0,11579.0,4133.0,1861.0,94.0,-47.0,-63.0,1.0
2022-05-08 18:21:47.969656-07:00,834.4,941.5,1373.9,940.7,738.9,442.7,1402.1,905.0,3464.9,3469.8,768.7,861.2,412.1,3491.7,1186.7,824.4,3472.2,3475.9,380.9,561.8,423.1,494.8,241.6,240.9,3474.6,3477.1,557.0,423.1,703.6,1128.7,1437.8,569.8,-11.0,-26.0,26.0,10791.0,11893.0,1832.0,2682.0,-95.0,-44.0,24.0,-12.0,-12.0,-9.0,10655.0,11595.0,4137.0,1831.0,-45.0,-32.0,-25.0,1.0
2022-05-08 18:21:48.029842-07:00,834.4,937.3,1363.9,936.4,738.9,442.7,1402.1,911.8,3464.9,3475.9,774.5,857.0,412.1,3491.7,1186.7,831.9,3483.2,3475.9,380.9,561.8,418.4,498.0,237.1,240.9,3480.7,3477.1,557.0,423.1,701.9,1127.9,1436.0,569.8,11.0,-10.0,-2.0,10821.0,11872.0,1796.0,2680.0,-62.0,-107.0,36.0,-2.0,-16.0,8.0,10685.0,11570.0,4126.0,1839.0,-63.0,-18.0,26.0,1.0
2022-05-08 18:21:48.090333-07:00,831.1,937.3,1363.9,936.4,735.6,441.9,1402.1,911.8,3480.7,3475.9,774.5,857.0,414.5,3500.2,1181.5,831.9,3483.2,3485.6,379.4,559.4,418.4,498.0,237.1,247.7,3480.7,3477.1,554.6,430.9,701.9,1127.9,1436.0,569.0,16.0,1.0,28.0,10830.0,11872.0,1766.0,2663.0,-13.0,3.0,9.0,-1.0,23.0,-21.0,10690.0,11569.0,4116.0,1838.0,-21.0,1.0,0.0,1.0
2022-05-08 18:21:48.149536-07:00,831.1,931.3,1361.2,933.9,735.6,441.9,1402.1,907.6,3480.7,3478.3,768.7,862.1,414.5,3500.2,1181.5,835.2,3483.2,3485.6,379.4,559.4,421.5,489.3,237.8,247.7,3481.9,3477.1,554.6,430.9,700.3,1122.6,1429.5,569.0,8.0,-12.0,-11.0,10825.0,11871.0,1759.0,2690.0,-11.0,17.0,84.0,5.0,-7.0,-3.0,10686.0,11570.0,4120.0,1846.0,12.0,21.0,24.0,1.0
2022-05-08 18:21:48.179931-07:00,832.7,931.3,1361.2,933.9,729.9,441.2,1399.4,907.6,3469.8,3478.3,768.7,862.1,413.7,3492.9,1185.0,835.2,3483.2,3479.5,380.9,560.2,421.5,489.3,237.8,244.7,3481.9,3483.2,555.4,429.4,700.3,1122.6,1429.5,561.0,3.0,14.0,-3.0,10836.0,11867.0,1713.0,2695.0,-19.0,-82.0,74.0,-1.0,0.0,-32.0,10689.0,11567.0,4115.0,1858.0,-15.0,4.0,20.0,1.0
2022-05-08 18:21:48.210572-07:00,832.7,929.6,1363.0,937.3,729.9,441.2,1399.4,911.0,3469.8,3468.6,761.2,858.7,413.7,3492.9,1185.0,824.4,3477.1,3479.5,380.9,560.2,421.5,494.8,244.7,244.7,3488.0,3483.2,555.4,429.4,726.6,1129.6,1434.1,561.0,-8.0,12.0,-17.0,10837.0,11865.0,1696.0,2708.0,-17.0,36.0,41.0,-11.0,0.0,-31.0,10690.0,11566.0,4111.0,1862.0,-16.0,2.0,17.0,1.0
2022-05-08 18:21:48.269644-07:00,831.1,928.8,1363.0,937.3,734.0,445.1,1397.6,911.0,3469.8,3474.6,761.2,858.7,417.6,3494.1,1174.4,824.4,3477.1,3478.3,384.8,559.4,421.5,494.8,236.3,243.2,3488.0,3477.1,551.4,423.9,726.6,1129.6,1429.5,567.4,10.0,-2.0,2.0,10846.0,11858.0,1689.0,2707.0,-21.0,-39.0,-17.0,1.0,-16.0,-16.0,10695.0,11563.0,4109.0,1861.0,-24.0,-23.0,2.0,1.0
