Time,P0,P1,P2,P3,P4,P5,P6,P7,P8,P9,P10,P11,P12,P13,P14,P15,P16,P17,P18,P19,P20,P21,P22,P23,P24,P25,P26,P27,P28,P29,P30,P31,ECG,AX0,AY0,AZ0,QW0,QX0,QY0,QZ0,GX0,GY0,GZ0,AX1,AY1,AZ1,QW1,QX1,QY1,QZ1,GX1,GY1,GZ1
2022-05-08 18:17:42.727353-07:00,659.5,765.3,699.5,976.5,360.0,325.1,853.7,679.9,3468.6,3479.5,1327.8,759.6,576.2,3461.3,1324.1,857.0,3435.8,3454.0,374.7,303.6,313.6,331.3,307.4,237.8,3468.6,3468.6,479.8,418.4,470.3,907.6,691.3,480.6,4.0,-1.0,8.0,10253.0,-8583.0,-5337.0,7821.0,-13.0,-2.0,0.0,0.0,-6.0,9.0,6097.0,-7909.0,-8474.0,9844.0,-37.0,65.0,-2.0,1.0
2022-05-08 18:17:42.786874-07:00,671.7,757.1,699.5,976.5,357.6,325.1,853.7,679.9,3466.1,3478.3,1327.8,759.6,581.8,3466.1,1324.1,857.0,3435.8,3454.0,377.8,303.6,313.6,331.3,307.4,237.8,3468.6,3468.6,479.8,416.8,470.3,907.6,692.1,473.5,5.0,4.0,10.0,10255.0,-8579.0,-5335.0,7823.0,16.0,-1.0,-2.0,1.0,-3.0,3.0,6110.0,-7937.0,-8460.0,9825.0,-4.0,98.0,26.0,1.0
2022-05-08 18:17:42.816874-07:00,671.7,757.1,699.5,987.6,357.6,325.1,847.0,673.3,3466.1,3478.3,1323.2,772.0,581.8,3466.1,1320.5,862.9,3451.6,3439.5,377.8,303.6,316.7,325.9,307.4,237.8,3460.1,3463.7,479.8,416.8,467.9,912.7,692.1,473.5,1.0,0.0,-1.0,10255.0,-8575.0,-5337.0,7827.0,-2.0,-31.0,0.0,-2.0,0.0,5.0,6122.0,-7962.0,-8445.0,9810.0,-16.0,83.0,17.0,1.0
2022-05-08 18:17:42.876662-07:00,659.5,753.8,699.5,987.6,357.6,325.1,847.0,673.3,3457.6,3478.3,1323.2,772.0,581.0,3472.2,1320.5,862.9,3451.6,3439.5,371.6,303.6,316.7,325.9,308.2,240.1,3460.1,3463.7,480.6,423.9,467.9,912.7,697.0,478.2,0.0,-1.0,0.0,10254.0,-8564.0,-5342.0,7836.0,22.0,-27.0,-2.0,-10.0,0.0,2.0,6133.0,-7984.0,-8431.0,9797.0,6.0,43.0,14.0,1.0
2022-05-08 18:17:42.938138-07:00,659.5,753.8,700.3,981.6,357.6,325.1,855.3,670.9,3457.6,3478.3,1331.4,764.5,581.0,3472.2,1330.5,857.0,3450.4,3441.9,371.6,303.6,319.7,328.2,308.2,240.1,3458.9,3463.7,480.6,423.9,472.7,910.1,697.0,478.2,0.0,1.0,1.0,10257.0,-8548.0,-5344.0,7848.0,40.0,-35.0,5.0,0.0,-1.0,8.0,6142.0,-7990.0,-8422.0,9795.0,18.0,21.0,2.0,1.0
2022-05-08 18:17:42.966854-07:00,668.4,757.1,700.3,981.6,363.1,324.4,855.3,670.9,3457.6,3467.4,1331.4,764.5,585.9,3474.6,1330.5,857.0,3450.4,3441.9,380.2,308.2,319.7,328.2,306.7,235.5,3458.9,3463.7,489.3,426.2,472.7,910.1,699.5,475.0,4.0,3.0,5.0,10266.0,-8524.0,-5336.0,7869.0,72.0,-35.0,12.0,-7.0,1.0,9.0,6152.0,-7979.0,-8415.0,9804.0,41.0,27.0,-10.0,1.0
2022-05-08 18:17:43.026692-07:00,668.4,757.1,697.9,986.7,363.1,321.3,857.0,676.6,3457.6,3467.4,1331.4,764.5,585.9,3468.6,1323.2,856.2,3446.7,3443.1,376.3,308.2,311.3,329.8,306.7,235.5,3454.0,3463.7,486.9,426.2,474.3,913.5,699.5,475.0,1.0,-3.0,9.0,10269.0,-8512.0,-5334.0,7878.0,11.0,-11.0,1.0,-4.0,-3.0,7.0,6160.0,-7976.0,-8407.0,9808.0,15.0,-6.0,8.0,1.0
2022-05-08 18:17:43.116824-07:00,659.5,757.1,698.7,986.7,357.6,321.3,857.0,676.6,3467.4,3473.4,1327.8,764.5,577.8,3468.6,1323.2,856.2,3446.7,3443.1,376.3,309.0,311.3,323.6,311.3,237.1,3454.0,3463.7,486.9,416.8,474.3,905.0,691.3,477.4,-2.0,4.0,6.0,10272.0,-8508.0,-5330.0,7882.0,11.0,4.0,12.0,-5.0,-1.0,18.0,6164.0,-7979.0,-8400.0,9809.0,12.0,33.0,11.0,1.0
2022-05-08 18:17:43.118903-07:00,659.5,757.1,698.7,980.7,357.6,323.6,852.8,689.7,3467.4,3473.4,1327.8,763.7,577.8,3471.0,1329.6,867.9,3456.4,3444.3,377.0,309.0,311.3,323.6,311.3,237.1,3468.6,3473.4,479.8,416.8,470.3,905.0,691.3,477.4,2.0,2.0,6.0,10271.0,-8509.0,-5329.0,7883.0,-7.0,5.0,3.0,-6.0,-2.0,15.0,6165.0,-7984.0,-8399.0,9805.0,-24.0,29.0,9.0,1.0
2022-05-08 18:17:43.176730-07:00,662.7,754.6,699.5,980.7,360.0,323.6,852.8,689.7,3468.6,3475.9,1327.8,763.7,579.4,3471.0,1329.6,867.9,3456.4,3444.3,377.0,309.0,311.3,323.6,308.2,239.3,3468.6,3473.4,479.8,421.5,470.3,905.0,693.8,476.6,2.0,0.0,2.0,10271.0,-8509.0,-5328.0,7884.0,-4.0,2.0,11.0,-6.0,-4.0,7.0,6166.0,-7989.0,-8399.0,9801.0,-16.0,25.0,6.0,1.0
2022-05-08 18:17:43.236757-07:00,662.7,754.6,699.5,982.5,360.0,325.9,845.3,676.6,3468.6,3475.9,1327.8,760.4,579.4,3475.9,1326.8,868.8,3454.0,3432.2,375.5,309.0,314.4,323.6,308.2,239.3,3458.9,3451.6,486.9,421.5,469.5,905.0,693.8,476.6,5.0,2.0,2.0,10270.0,-8510.0,-5327.0,7885.0,-7.0,7.0,2.0,-6.0,-1.0,1.0,6167.0,-7991.0,-8398.0,9799.0,-10.0,0.0,8.0,1.0
2022-05-08 18:17:43.266762-07:00,661.9,750.5,692.1,982.5,362.3,325.9,845.3,676.6,3469.8,3473.4,1324.1,760.4,575.4,3475.9,1326.8,868.8,3454.0,3432.2,375.5,307.4,314.4,325.1,305.1,240.9,3458.9,3451.6,486.9,423.1,469.5,916.9,692.1,477.4,1.0,6.0,0.0,10271.0,-8510.0,-5325.0,7885.0,0.0,-9.0,11.0,-6.0,0.0,4.0,6169.0,-7994.0,-8396.0,9798.0,-8.0,7.0,6.0,1.0
2022-05-08 18:17:43.326655-07:00,661.9,750.5,692.1,989.3,362.3,323.6,849.5,677.4,3469.8,3473.4,1324.1,766.2,575.4,3461.3,1330.5,854.5,3443.1,3447.9,374.7,307.4,315.1,325.1,305.1,240.9,3462.5,3460.1,481.4,423.1,472.7,916.9,692.1,477.4,0.0,-1.0,6.0,10270.0,-8510.0,-5325.0,7885.0,0.0,2.0,6.0,-6.0,0.0,6.0,6168.0,-7992.0,-8397.0,9799.0,-1.0,0.0,4.0,1.0
2022-05-08 18:17:43.386680-07:00,657.0,762.0,705.2,983.3,361.5,323.6,849.5,677.4,3466.1,3473.4,1335.9,757.1,577.8,3461.3,1330.5,854.5,3443.1,3447.9,374.7,302.0,315.9,328.2,309.0,237.8,3462.5,3460.1,481.4,423.9,468.7,912.7,695.4,479.8,0.0,1.0,6.0,10271.0,-8510.0,-5325.0,7885.0,11.0,2.0,0.0,-5.0,1.0,11.0,6167.0,-7990.0,-8398.0,9800.0,6.0,9.0,-1.0,1.0
2022-05-08 18:17:43.417299-07:00,657.0,762.0,705.2,983.3,354.5,320.5,848.6,669.3,3466.1,3473.4,1335.9,757.1,577.8,3469.8,1325.9,856.2,3443.1,3440.7,375.5,299.0,315.9,328.2,309.0,237.8,3463.7,3458.9,479.8,421.5,468.7,912.7,695.4,479.8,2.0,2.0,6.0,10270.0,-8512.0,-5325.0,7884.0,-25.0,13.0,2.0,-3.0,-1.0,9.0,6165.0,-7992.0,-8400.0,9798.0,-16.0,0.0,3.0,1.0
2022-05-08 18:17:43.476639-07:00,656.2,765.3,709.3,985.0,354.5,320.5,848.6,669.3,3467.4,3467.4,1325.0,761.2,577.8,3469.8,1325.9,856.2,3443.1,3440.7,375.5,299.0,314.4,328.2,305.1,240.1,3463.7,3458.9,479.8,421.5,468.7,906.7,693.8,479.0,1.0,6.0,3.0,10270.0,-8517.0,-5322.0,7881.0,-12.0,14.0,9.0,-3.0,2.0,6.0,6167.0,-7997.0,-8399.0,9793.0,-15.0,13.0,6.0,1.0
2022-05-08 18:17:43.537375-07:00,656.2,765.3,709.3,985.0,356.1,324.4,847.8,679.1,3467.4,3467.4,1325.0,761.2,580.2,3457.6,1323.2,858.7,3446.7,3446.7,380.2,305.1,314.4,328.2,305.1,240.1,3466.1,3456.4,482.2,422.3,468.7,906.7,693.8,479.0,0.0,2.0,1.0,10269.0,-8521.0,-5322.0,7877.0,1.0,6.0,-3.0,-7.0,0.0,10.0,6168.0,-8001.0,-8399.0,9789.0,-3.0,6.0,3.0,1.0
2022-05-08 18:17:43.567466-07:00,666.8,758.7,696.2,982.5,356.1,324.4,847.8,679.1,3467.4,3468.6,1320.5,762.0,580.2,3457.6,1323.2,858.7,3446.7,3446.7,380.2,305.1,312.0,328.2,307.4,236.3,3466.1,3456.4,482.2,422.3,470.3,881.4,692.1,479.0,0.0,-1.0,2.0,10268.0,-8522.0,-5323.0,7877.0,-3.0,5.0,0.0,-7.0,-3.0,6.0,6168.0,-8001.0,-8399.0,9789.0,7.0,-7.0,2.0,1.0
2022-05-08 18:17:43.626780-07:00,666.8,758.7,696.2,982.5,359.2,319.7,849.5,678.2,3467.4,3468.6,1320.5,762.0,581.0,3457.6,1328.7,862.1,3438.2,3444.3,373.2,304.3,312.0,328.2,307.4,236.3,3461.3,3462.5,485.3,422.3,470.3,881.4,692.1,479.0,0.0,5.0,1.0,10268.0,-8522.0,-5323.0,7877.0,-10.0,-2.0,8.0,-10.0,0.0,8.0,6166.0,-7999.0,-8401.0,9791.0,0.0,-14.0,2.0,1.0
2022-05-08 18:17:43.656741-07:00,655.4,758.7,696.2,983.3,359.2,319.7,849.5,675.0,3458.9,3469.8,1324.1,763.7,581.0,3457.6,1328.7,862.1,3443.1,3444.3,373.2,304.3,315.1,329.0,306.7,234.8,3458.9,3462.5,485.3,422.3,467.9,926.2,699.5,484.5,3.0,5.0,5.0,10267.0,-8523.0,-5324.0,7876.0,-3.0,5.0,2.0,-5.0,3.0,11.0,6164.0,-7997.0,-8402.0,9793.0,-6.0,-11.0,2.0,1.0
2022-05-08 18:17:43.746540-07:00,660.3,758.7,696.2,983.3,361.5,327.5,847.0,675.0,3469.8,3469.8,1324.1,763.7,580.2,3473.4,1316.9,862.1,3443.1,3439.5,377.0,308.2,315.1,329.0,306.7,240.1,3458.9,3451.6,484.5,420.0,467.9,926.2,699.5,472.7,-1.0,4.0,5.0,10268.0,-8523.0,-5323.0,7876.0,-4.0,10.0,-3.0,-7.0,1.0,12.0,6164.0,-7997.0,-8402.0,9792.0,-6.0,8.0,3.0,1.0
2022-05-08 18:17:43.776738-07:00,660.3,757.1,694.6,982.5,361.5,327.5,847.0,670.9,3469.8,3463.7,1322.3,765.3,580.2,3473.4,1316.9,857.9,3446.7,3439.5,377.0,308.2,316.7,328.2,304.3,240.1,3468.6,3451.6,484.5,420.0,466.4,905.9,693.8,472.7,0.0,-2.0,2.0,10266.0,-8527.0,-5323.0,7874.0,3.0,2.0,7.0,-7.0,-4.0,6.0,6165.0,-8004.0,-8403.0,9786.0,-10.0,27.0,-6.0,1.0
2022-05-08 18:17:43.806839-07:00,661.1,757.1,694.6,982.5,361.5,327.5,851.1,670.9,3466.1,3463.7,1322.3,765.3,569.0,3464.9,1315.1,857.9,3446.7,3433.4,380.2,305.9,316.7,328.2,304.3,238.6,3468.6,3461.3,483.0,414.5,466.4,905.9,693.8,481.4,3.0,2.0,1.0,10266.0,-8527.0,-5324.0,7873.0,-10.0,-5.0,-2.0,-4.0,0.0,7.0,6165.0,-8005.0,-8405.0,9783.0,-17.0,-8.0,-9.0,1.0
2022-05-08 18:17:43.866890-07:00,661.1,760.4,694.6,987.6,361.5,327.5,851.1,686.4,3466.1,3466.1,1321.4,757.9,569.0,3464.9,1315.1,860.4,3449.1,3433.4,380.2,305.9,315.9,330.5,302.8,238.6,3460.1,3461.3,483.0,414.5,466.4,912.7,694.6,481.4,4.0,1.0,5.0,10266.0,-8527.0,-5324.0,7873.0,3.0,4.0,-1.0,0.0,1.0,12.0,6163.0,-8003.0,-8406.0,9784.0,-1.0,-1.0,-1.0,1.0
2022-05-08 18:17:43.926730-07:00,657.0,760.4,694.6,987.6,357.6,321.3,848.6,686.4,3466.1,3466.1,1321.4,757.9,582.6,3469.8,1318.7,860.4,3449.1,3439.5,377.0,301.3,315.9,330.5,302.8,240.1,3460.1,3457.6,481.4,420.8,466.4,912.7,694.6,477.4,2.0,-6.0,9.0,10266.0,-8527.0,-5324.0,7873.0,1.0,9.0,6.0,-7.0,-1.0,7.0,6163.0,-8003.0,-8406.0,9784.0,3.0,11.0,8.0,1.0
2022-05-08 18:17:43.986737-07:00,657.0,757.9,696.2,983.3,357.6,321.3,859.5,673.3,3466.1,3478.3,1324.1,761.2,582.6,3469.8,1319.6,859.5,3449.1,3434.6,377.0,301.3,318.2,330.5,299.0,240.1,3460.1,3458.9,481.4,420.8,467.9,909.3,694.6,477.4,0.0,5.0,2.0,10266.0,-8532.0,-5321.0,7869.0,-16.0,11.0,0.0,-6.0,1.0,7.0,6162.0,-8007.0,-8404.0,9784.0,-4.0,-1.0,7.0,1.0
2022-05-08 18:17:44.016770-07:00,661.1,754.6,696.2,983.3,362.3,322.8,859.5,673.3,3466.1,3463.7,1324.1,761.2,578.6,3468.6,1319.6,859.5,3449.1,3434.6,380.2,304.3,318.2,330.5,306.7,237.1,3460.1,3458.9,482.2,416.8,467.9,909.3,689.7,477.4,1.0,3.0,2.0,10267.0,-8534.0,-5320.0,7868.0,-8.0,1.0,-10.0,-7.0,0.0,8.0,6162.0,-8007.0,-8404.0,9784.0,-3.0,-10.0,-3.0,1.0
2022-05-08 18:17:44.107100-07:00,661.1,754.6,695.4,978.2,362.3,322.8,856.2,675.8,3466.1,3463.7,1323.2,763.7,578.6,3468.6,1321.4,851.1,3439.5,3446.7,380.2,304.3,314.4,329.8,306.7,237.1,3457.6,3462.5,482.2,416.8,471.1,909.3,689.7,477.4,0.0,0.0,0.0,10267.0,-8533.0,-5321.0,7867.0,-13.0,5.0,1.0,-9.0,5.0,6.0,6159.0,-8004.0,-8406.0,9787.0,-2.0,-33.0,-5.0,1.0
2022-05-08 18:17:44.136816-07:00,667.6,757.1,695.4,978.2,357.6,322.1,856.2,675.8,3457.6,3471.0,1323.2,763.7,580.2,3467.4,1321.4,851.1,3439.5,3446.7,377.8,304.3,314.4,329.8,304.3,239.3,3457.6,3462.5,478.2,421.5,471.1,909.3,692.1,460.0,0.0,0.0,4.0,10266.0,-8537.0,-5321.0,7865.0,4.0,0.0,-2.0,-5.0,-1.0,13.0,6154.0,-7997.0,-8410.0,9792.0,-6.0,-4.0,-12.0,1.0
2022-05-08 18:17:44.167431-07:00,667.6,757.1,696.2,989.3,357.6,322.1,850.3,672.5,3457.6,3471.0,1321.4,758.7,580.2,3467.4,1325.0,851.1,3438.2,3446.7,377.8,304.3,318.2,332.1,304.3,239.3,3455.2,3467.4,478.2,421.5,472.7,910.1,692.1,460.0,0.0,-1.0,7.0,10264.0,-8539.0,-5322.0,7864.0,-8.0,3.0,-6.0,-4.0,-3.0,9.0,6154.0,-7991.0,-8416.0,9791.0,-11.0,-9.0,-11.0,1.0
2022-05-08 18:17:44.226730-07:00,660.3,758.7,696.2,989.3,359.2,320.5,850.3,672.5,3467.4,3460.1,1321.4,758.7,582.6,3469.8,1325.0,851.1,3438.2,3446.7,377.8,308.2,318.2,332.1,305.9,243.2,3455.2,3467.4,479.0,423.9,472.7,910.1,696.2,503.6,0.0,4.0,5.0,10264.0,-8539.0,-5322.0,7864.0,-15.0,4.0,-5.0,-6.0,-1.0,8.0,6154.0,-7987.0,-8422.0,9790.0,-19.0,-15.0,-11.0,1.0
2022-05-08 18:17:44.256682-07:00,660.3,758.7,696.2,981.6,359.2,320.5,848.6,673.3,3467.4,3460.1,1317.8,757.1,582.6,3469.8,1316.9,854.5,3440.7,3445.5,377.8,308.2,314.4,329.0,305.9,243.2,3449.1,3455.2,479.0,423.9,466.4,906.7,696.2,503.6,0.0,1.0,1.0,10263.0,-8540.0,-5324.0,7863.0,13.0,-3.0,1.0,-9.0,3.0,9.0,6153.0,-7983.0,-8428.0,9788.0,2.0,-1.0,-12.0,1.0
2022-05-08 18:17:44.316920-07:00,658.7,756.3,692.9,981.6,354.5,323.6,848.6,673.3,3466.1,3468.6,1317.8,757.1,583.5,3461.3,1316.9,854.5,3440.7,3445.5,373.9,309.0,314.4,330.5,307.4,239.3,3449.1,3455.2,476.6,420.0,466.4,902.5,694.6,471.9,0.0,-3.0,6.0,10263.0,-8541.0,-5324.0,7863.0,-16.0,1.0,-6.0,-7.0,-2.0,8.0,6151.0,-7977.0,-8437.0,9788.0,-22.0,-30.0,-16.0,1.0
2022-05-08 18:17:44.406810-07:00,658.7,756.3,692.9,987.6,354.5,322.1,846.1,679.1,3466.1,3468.6,1317.8,762.0,583.5,3462.5,1340.4,856.2,3449.1,3446.7,380.9,309.0,311.3,330.5,307.4,239.3,3461.3,3460.1,481.4,420.0,468.7,902.5,694.6,471.9,1.0,0.0,3.0,10262.0,-8542.0,-5325.0,7862.0,0.0,-2.0,-8.0,-4.0,0.0,7.0,6147.0,-7966.0,-8446.0,9790.0,-5.0,-33.0,-19.0,1.0
2022-05-08 18:17:44.408321-07:00,657.9,751.3,696.2,987.6,354.5,322.1,846.1,679.1,3468.6,3464.9,1323.2,762.0,575.4,3462.5,1340.4,856.2,3449.1,3446.7,380.9,306.7,311.3,323.6,302.0,237.8,3461.3,3460.1,481.4,422.3,468.7,910.1,688.9,470.3,5.0,0.0,4.0,10261.0,-8540.0,-5327.0,7864.0,2.0,-11.0,-6.0,-3.0,-1.0,8.0,6145.0,-7953.0,-8456.0,9794.0,-1.0,-36.0,-17.0,1.0
2022-05-08 18:17:44.467550-07:00,657.9,751.3,696.2,985.9,354.5,319.7,848.6,675.0,3468.6,3464.9,1323.2,764.5,575.4,3464.9,1315.1,855.3,3434.6,3449.1,380.2,306.7,315.1,323.6,302.0,237.8,3454.0,3464.9,484.5,422.3,471.9,910.1,688.9,470.3,1.0,3.0,9.0,10261.0,-8540.0,-5327.0,7864.0,1.0,-3.0,-5.0,-2.0,0.0,9.0,6141.0,-7942.0,-8464.0,9798.0,-2.0,-24.0,-10.0,1.0
2022-05-08 18:17:44.526846-07:00,657.0,754.6,696.2,985.9,350.6,319.7,848.6,675.0,3467.4,3455.2,1316.0,764.5,578.6,3464.9,1315.1,855.3,3434.6,3449.1,380.2,302.8,315.1,328.2,306.7,238.6,3454.0,3464.9,484.5,416.8,471.9,903.4,692.1,473.5,5.0,2.0,0.0,10261.0,-8540.0,-5327.0,7864.0,-16.0,-1.0,-6.0,-4.0,0.0,5.0,6141.0,-7937.0,-8470.0,9797.0,-17.0,-15.0,-14.0,1.0
2022-05-08 18:17:44.556785-07:00,657.0,754.6,696.2,984.2,350.6,323.6,844.4,666.0,3467.4,3455.2,1316.0,760.4,578.6,3469.8,1318.7,858.7,3443.1,3437.0,374.7,302.8,319.0,328.2,306.7,238.6,3461.3,3457.6,483.0,416.8,465.6,903.4,692.1,473.5,4.0,7.0,0.0,10261.0,-8539.0,-5327.0,7865.0,15.0,-12.0,-3.0,-5.0,1.0,7.0,6139.0,-7931.0,-8477.0,9797.0,9.0,-21.0,-13.0,1.0
2022-05-08 18:17:44.616929-07:00,659.5,752.1,695.4,984.2,362.3,323.6,844.4,666.0,3473.4,3457.6,1318.7,760.4,579.4,3469.8,1318.7,858.7,3443.1,3437.0,374.7,305.9,319.0,323.6,304.3,236.3,3461.3,3457.6,483.0,419.2,465.6,905.9,693.8,473.5,2.0,-1.0,8.0,10260.0,-8536.0,-5331.0,7866.0,4.0,-5.0,-7.0,-9.0,-2.0,13.0,6134.0,-7917.0,-8486.0,9805.0,13.0,-45.0,-12.0,1.0
2022-05-08 18:17:44.676800-07:00,659.5,752.1,695.4,976.5,358.4,325.1,852.8,672.5,3473.4,3457.6,1318.7,759.6,578.6,3458.9,1325.9,862.1,3450.4,3444.3,373.2,304.3,308.2,323.6,304.3,236.3,3454.0,3455.2,477.4,420.0,469.5,905.9,693.8,473.5,2.0,0.0,2.0,10261.0,-8533.0,-5331.0,7868.0,-5.0,-10.0,4.0,-8.0,2.0,9.0,6132.0,-7904.0,-8492.0,9810.0,0.0,-37.0,-17.0,1.0
2022-05-08 18:17:44.707222-07:00,656.2,753.8,693.8,987.6,358.4,325.1,852.8,672.5,3462.5,3466.1,1316.9,761.2,578.6,3458.9,1325.9,862.1,3450.4,3444.3,373.2,304.3,315.9,327.5,303.6,240.1,3454.0,3455.2,477.4,420.0,467.9,906.7,693.8,481.4,10.0,6.0,6.0,10260.0,-8532.0,-5333.0,7871.0,12.0,-3.0,4.0,-4.0,-9.0,12.0,6130.0,-7898.0,-8495.0,9813.0,7.0,-18.0,-8.0,1.0
2022-05-08 18:17:44.766970-07:00,656.2,753.8,693.8,987.6,356.1,320.5,851.1,669.3,3462.5,3466.1,1316.9,761.2,577.8,3463.7,1306.1,854.5,3449.1,3446.7,374.7,306.7,315.9,327.5,303.6,240.1,3458.9,3462.5,479.8,420.8,467.9,906.7,693.8,481.4,5.0,0.0,7.0,10260.0,-8530.0,-5333.0,7872.0,-4.0,0.0,1.0,-6.0,-1.0,10.0,6129.0,-7896.0,-8495.0,9815.0,4.0,-7.0,7.0,1.0
2022-05-08 18:17:44.826879-07:00,659.5,758.7,703.6,985.9,356.1,320.5,851.1,669.3,3464.9,3463.7,1319.6,778.6,577.8,3463.7,1306.1,854.5,3449.1,3446.7,374.7,306.7,312.0,328.2,302.0,234.8,3458.9,3462.5,479.8,420.8,469.5,916.0,694.6,477.4,-3.0,-1.0,8.0,10260.0,-8531.0,-5333.0,7871.0,-4.0,1.0,8.0,-8.0,0.0,13.0,6130.0,-7901.0,-8492.0,9814.0,-8.0,23.0,11.0,1.0
2022-05-08 18:17:44.886889-07:00,659.5,758.7,703.6,985.9,361.5,322.1,841.1,675.8,3464.9,3463.7,1319.6,778.6,577.8,3460.1,1303.4,859.5,3445.5,3447.9,376.3,302.0,312.0,328.2,302.0,234.8,3456.4,3457.6,483.7,420.0,469.5,916.0,694.6,477.4,9.0,6.0,4.0,10260.0,-8531.0,-5331.0,7873.0,4.0,1.0,17.0,-7.0,5.0,6.0,6134.0,-7907.0,-8487.0,9811.0,15.0,11.0,7.0,1.0
2022-05-08 18:17:44.917577-07:00,660.3,758.7,693.8,981.6,361.5,322.1,841.1,675.8,3463.7,3468.6,1316.0,762.9,577.8,3460.1,1303.4,859.5,3445.5,3447.9,376.3,302.0,318.2,329.0,304.3,236.3,3456.4,3457.6,483.7,420.0,467.1,907.6,694.6,477.4,0.0,-4.0,7.0,10258.0,-8532.0,-5330.0,7874.0,16.0,-7.0,5.0,-2.0,-3.0,15.0,6132.0,-7904.0,-8483.0,9818.0,24.0,-10.0,9.0,1.0
2022-05-08 18:17:44.976800-07:00,661.1,758.7,693.8,981.6,363.1,320.5,851.1,673.3,3466.1,3468.6,1316.0,762.9,575.4,3468.6,1311.5,851.1,3444.3,3438.2,378.6,306.7,318.2,329.0,304.3,237.1,3464.9,3466.1,481.4,421.5,467.1,907.6,694.6,473.5,3.0,0.0,5.0,10259.0,-8529.0,-5329.0,7877.0,1.0,-10.0,8.0,-8.0,-1.0,7.0,6133.0,-7903.0,-8481.0,9821.0,5.0,4.0,6.0,1.0
2022-05-08 18:17:45.007436-07:00,661.1,757.9,694.6,983.3,363.1,320.5,851.1,671.7,3466.1,3479.5,1325.0,765.3,575.4,3468.6,1311.5,859.5,3435.8,3438.2,378.6,306.7,312.8,329.8,305.1,237.1,3462.5,3466.1,481.4,421.5,467.1,909.3,688.9,473.5,8.0,7.0,6.0,10257.0,-8529.0,-5327.0,7881.0,-12.0,3.0,6.0,-5.0,5.0,8.0,6133.0,-7905.0,-8479.0,9820.0,-3.0,-3.0,11.0,1.0
2022-05-08 18:17:45.067471-07:00,659.5,757.9,694.6,983.3,364.6,322.1,853.7,671.7,3475.9,3479.5,1325.0,765.3,578.6,3471.0,1309.7,859.5,3435.8,3445.5,376.3,305.1,312.8,329.8,305.1,237.1,3462.5,3468.6,479.8,416.8,467.1,909.3,688.9,484.5,2.0,3.0,5.0,10258.0,-8528.0,-5327.0,7881.0,6.0,-4.0,5.0,-7.0,6.0,13.0,6133.0,-7909.0,-8473.0,9822.0,4.0,15.0,12.0,1.0
2022-05-08 18:17:45.187543-07:00,659.5,755.4,693.8,981.6,364.6,322.1,853.7,675.0,3475.9,3467.4,1319.6,757.9,578.6,3471.0,1309.7,859.5,3445.5,3445.5,376.3,305.1,315.1,330.5,302.8,237.1,3466.1,3468.6,479.8,416.8,467.9,905.0,691.3,484.5,2.0,-6.0,4.0,10257.0,-8528.0,-5327.0,7882.0,0.0,1.0,11.0,-6.0,-4.0,13.0,6132.0,-7911.0,-8470.0,9824.0,10.0,-8.0,11.0,1.0
2022-05-08 18:17:45.217020-07:00,660.3,755.4,693.8,981.6,356.1,317.4,850.3,675.0,3468.6,3467.4,1319.6,757.9,575.4,3478.3,1308.8,859.5,3445.5,3444.3,379.4,302.8,315.1,330.5,302.8,237.8,3466.1,3457.6,479.0,420.8,467.9,905.0,691.3,477.4,1.0,4.0,5.0,10257.0,-8528.0,-5324.0,7884.0,1.0,-7.0,7.0,-5.0,1.0,15.0,6131.0,-7908.0,-8467.0,9830.0,14.0,-17.0,8.0,1.0
2022-05-08 18:17:45.218062-07:00,660.3,757.9,689.7,979.9,356.1,317.4,850.3,673.3,3468.6,3462.5,1322.3,757.1,575.4,3478.3,1308.8,856.2,3449.1,3444.3,379.4,302.8,312.8,323.6,303.6,237.8,3461.3,3457.6,479.0,420.8,465.6,905.0,692.9,477.4,0.0,-7.0,9.0,10254.0,-8528.0,-5324.0,7888.0,-1.0,2.0,20.0,-7.0,-3.0,15.0,6128.0,-7909.0,-8465.0,9833.0,-3.0,11.0,13.0,1.0
2022-05-08 18:17:45.276957-07:00,664.4,757.9,689.7,979.9,361.5,319.7,843.6,673.3,3468.6,3462.5,1322.3,757.1,584.3,3473.4,1302.5,856.2,3449.1,3450.4,380.2,302.0,312.8,323.6,303.6,234.8,3461.3,3452.8,478.2,417.6,465.6,905.0,692.9,475.0,3.0,4.0,5.0,10246.0,-8534.0,-5316.0,7898.0,-32.0,5.0,43.0,-8.0,11.0,16.0,6131.0,-7920.0,-8460.0,9826.0,-17.0,17.0,19.0,1.0
2022-05-08 18:17:45.337016-07:00,664.4,757.1,693.8,984.2,361.5,319.7,848.6,673.3,3468.6,3464.9,1335.9,763.7,584.3,3473.4,1307.9,854.5,3444.3,3449.1,380.2,302.0,312.8,326.7,302.0,234.8,3466.1,3458.9,478.2,417.6,467.1,905.9,685.6,475.0,6.0,4.0,1.0,10233.0,-8543.0,-5311.0,7908.0,9.0,-26.0,42.0,-4.0,4.0,14.0,6130.0,-7933.0,-8452.0,9823.0,9.0,42.0,25.0,1.0
2022-05-08 18:17:45.366961-07:00,653.0,757.9,693.8,984.2,358.4,319.0,848.6,673.3,3460.1,3469.8,1335.9,763.7,580.2,3458.9,1307.9,854.5,3444.3,3449.1,373.2,306.7,312.8,326.7,308.2,239.3,3466.1,3458.9,475.0,416.8,467.1,905.9,690.5,474.3,6.0,-28.0,9.0,10216.0,-8545.0,-5309.0,7930.0,0.0,-50.0,92.0,-3.0,-15.0,7.0,6129.0,-7949.0,-8440.0,9821.0,8.0,43.0,57.0,1.0
2022-05-08 18:17:45.426849-07:00,653.0,757.9,699.5,982.5,358.4,319.0,858.7,674.2,3460.1,3469.8,1319.6,760.4,580.2,3458.9,1309.7,862.1,3449.1,3443.1,373.2,306.7,310.5,325.9,308.2,239.3,3452.8,3464.9,475.0,416.8,467.9,909.3,690.5,474.3,-11.0,-58.0,-1.0,10194.0,-8534.0,-5274.0,7991.0,165.0,-79.0,249.0,-18.0,-24.0,2.0,6133.0,-7978.0,-8396.0,9833.0,94.0,86.0,116.0,1.0
2022-05-08 18:17:45.457146-07:00,670.9,754.6,699.5,982.5,354.5,323.6,858.7,674.2,3460.1,3461.3,1319.6,760.4,573.8,3469.8,1309.7,862.1,3449.1,3443.1,375.5,305.9,310.5,325.9,301.3,240.9,3452.8,3464.9,481.4,423.9,467.9,909.3,689.7,475.8,-2.0,-84.0,30.0,10204.0,-8471.0,-5152.0,8125.0,734.0,22.0,256.0,11.0,-115.0,-10.0,6178.0,-7992.0,-8279.0,9892.0,503.0,37.0,110.0,1.0
2022-05-08 18:17:45.576992-07:00,670.9,754.6,692.1,985.0,354.5,323.6,869.6,681.5,3460.1,3461.3,1316.9,765.3,573.8,3469.8,1455.2,855.3,3449.1,3434.6,375.5,305.9,316.7,329.8,301.3,240.9,3455.2,3462.5,481.4,423.9,467.9,908.4,689.7,475.8,7.0,-200.0,5.0,10410.0,-8197.0,-4800.0,8356.0,1718.0,106.0,416.0,-27.0,-140.0,-26.0,6381.0,-7835.0,-7937.0,10165.0,1777.0,-184.0,239.0,1.0
2022-05-08 18:17:45.578136-07:00,657.9,761.2,692.1,985.0,358.4,322.8,869.6,681.5,3468.6,3468.6,1316.9,765.3,573.0,3469.8,1455.2,855.3,3449.1,3434.6,377.8,307.4,316.7,329.8,313.6,240.1,3455.2,3462.5,486.1,426.2,467.9,908.4,812.7,476.6,-34.0,-129.0,-116.0,10753.0,-7688.0,-4131.0,8755.0,2361.0,151.0,743.0,-114.0,-94.0,-10.0,6677.0,-7446.0,-7340.0,10702.0,2318.0,-381.0,374.0,1.0
2022-05-08 18:17:45.757309-07:00,657.9,761.2,692.1,985.0,358.4,328.2,886.5,684.0,3468.6,3468.6,1377.5,765.3,573.0,3471.0,1953.9,893.2,3444.3,3445.5,378.6,307.4,312.8,330.5,313.6,240.1,3452.8,3461.3,486.9,426.2,471.1,940.7,812.7,476.6,-68.0,-26.0,-103.0,11036.0,-7142.0,-3409.0,9166.0,2270.0,122.0,635.0,-100.0,-35.0,-11.0,6854.0,-6933.0,-6766.0,11297.0,2063.0,-668.0,385.0,1.0
2022-05-08 18:17:45.758482-07:00,658.7,765.3,696.2,985.0,360.0,328.2,886.5,684.0,3466.1,3471.0,1894.8,765.3,585.9,3471.0,1953.9,893.2,3444.3,3445.5,378.6,305.1,312.8,326.7,325.9,234.8,3452.8,3461.3,486.9,441.2,471.1,1028.8,950.0,478.2,5.0,93.0,-54.0,11350.0,-6446.0,-2732.0,9518.0,2478.0,-114.0,400.0,-42.0,39.0,-95.0,6999.0,-6324.0,-6204.0,11873.0,2274.0,-1002.0,280.0,1.0
2022-05-08 18:17:45.759199-07:00,658.7,765.3,696.2,981.6,360.0,339.0,905.0,685.6,3466.1,3471.0,1894.8,801.0,585.9,3471.0,2274.5,976.5,3449.1,3435.8,377.8,305.1,318.2,326.7,325.9,234.8,3457.6,3458.9,483.0,441.2,468.7,1028.8,950.0,478.2,-1.0,164.0,-64.0,11694.0,-5819.0,-2105.0,9664.0,1952.0,259.0,-69.0,4.0,189.0,12.0,7124.0,-5698.0,-5733.0,12343.0,1550.0,-700.0,43.0,1.0
2022-05-08 18:17:45.760754-07:00,658.7,753.8,697.9,981.6,362.3,339.0,905.0,685.6,3468.6,3457.6,2231.1,801.0,615.7,3471.0,2274.5,976.5,3449.1,3435.8,377.8,302.0,318.2,326.7,333.6,238.6,3457.6,3458.9,483.0,476.6,468.7,1140.1,992.7,472.7,-1.0,151.0,-62.0,11942.0,-5288.0,-1684.0,9748.0,1547.0,-357.0,-22.0,-64.0,22.0,72.0,7200.0,-5250.0,-5395.0,12646.0,1491.0,-734.0,132.0,1.0
2022-05-08 18:17:45.816930-07:00,658.7,753.8,697.9,988.5,362.3,346.0,917.7,679.1,3468.6,3457.6,2231.1,884.8,615.7,3458.9,2192.2,991.9,3435.8,3441.9,377.8,302.0,311.3,326.7,333.6,238.6,3468.6,3446.7,483.7,476.6,474.3,1140.1,992.7,472.7,-17.0,-28.0,22.0,12171.0,-4815.0,-1597.0,9725.0,909.0,-452.0,-422.0,41.0,103.0,119.0,7294.0,-4861.0,-5193.0,12831.0,607.0,-86.0,-229.0,1.0
2022-05-08 18:17:45.876871-07:00,663.6,757.9,705.2,988.5,357.6,346.0,917.7,679.1,3473.4,3468.6,2118.9,884.8,632.7,3458.9,2192.2,991.9,3435.8,3441.9,377.8,306.7,311.3,330.5,329.0,247.7,3468.6,3446.7,483.7,481.4,474.3,1132.2,957.7,480.6,-5.0,37.0,-23.0,12332.0,-4401.0,-1425.0,9744.0,1115.0,-71.0,-169.0,43.0,11.0,18.0,7331.0,-4519.0,-4970.0,13022.0,891.0,-304.0,17.0,1.0
2022-05-08 18:17:45.907134-07:00,663.6,757.9,705.2,994.5,357.6,346.0,916.9,685.6,3473.4,3468.6,2118.9,889.0,632.7,3467.4,2137.2,973.1,3440.7,3444.3,375.5,306.7,317.4,330.5,329.0,247.7,3460.1,3464.9,480.6,481.4,471.1,1132.2,957.7,480.6,32.0,-26.0,-18.0,12455.0,-4119.0,-1278.0,9733.0,545.0,-35.0,-122.0,55.0,80.0,1.0,7356.0,-4323.0,-4843.0,13122.0,260.0,-175.0,-16.0,1.0
2022-05-08 18:17:46.027448-07:00,670.1,752.9,724.9,979.9,359.2,346.0,916.9,685.6,3468.6,3472.2,2069.5,877.2,635.1,3467.4,2137.2,973.1,3440.7,3444.3,375.5,309.0,316.7,320.5,323.6,240.9,3460.1,3464.9,480.6,483.0,474.3,1119.1,967.1,468.7,-12.0,17.0,-58.0,12535.0,-3887.0,-1149.0,9741.0,787.0,-181.0,-131.0,19.0,-23.0,47.0,7347.0,-4171.0,-4708.0,13225.0,515.0,-192.0,-53.0,1.0
2022-05-08 18:17:46.029986-07:00,670.1,752.9,724.9,979.9,359.2,337.5,914.4,675.8,3468.6,3472.2,2069.5,877.2,631.9,3462.5,2098.7,972.2,3438.2,3447.9,379.4,309.0,316.7,320.5,323.6,240.9,3457.6,3464.9,485.3,483.7,474.3,1119.1,967.1,468.7,43.0,30.0,-39.0,12620.0,-3575.0,-1107.0,9756.0,437.0,-347.0,-91.0,73.0,113.0,-16.0,7406.0,-3987.0,-4605.0,13285.0,385.0,-54.0,-53.0,1.0
2022-05-08 18:17:46.057667-07:00,664.4,759.6,744.7,987.6,359.2,337.5,914.4,675.8,3463.7,3475.9,1997.5,871.3,631.9,3462.5,2098.7,972.2,3438.2,3447.9,379.4,309.0,317.4,325.9,326.7,237.1,3457.6,3464.9,485.3,483.7,494.0,1102.5,931.3,470.3,65.0,150.0,-67.0,12700.0,-3286.0,-1118.0,9752.0,598.0,-465.0,-245.0,28.0,91.0,-46.0,7462.0,-3839.0,-4525.0,13324.0,349.0,-121.0,-352.0,1.0
2022-05-08 18:17:46.116997-07:00,664.4,759.6,744.7,987.6,363.1,335.2,945.8,715.9,3463.7,3475.9,1997.5,871.3,626.2,3466.1,2064.5,1003.9,3446.7,3452.8,370.0,303.6,317.4,325.9,326.7,237.1,3457.6,3468.6,486.1,474.3,494.0,1102.5,931.3,470.3,45.0,-12.0,-25.0,12744.0,-3176.0,-1246.0,9715.0,-304.0,-328.0,-66.0,32.0,58.0,-4.0,7466.0,-3823.0,-4602.0,13301.0,-397.0,-154.0,32.0,1.0
2022-05-08 18:17:46.266927-07:00,659.5,762.9,794.4,988.5,363.1,335.2,945.8,715.9,3471.0,3468.6,1890.9,865.4,626.2,3466.1,2064.5,1003.9,3446.7,3452.8,370.0,303.6,317.4,325.1,325.1,237.8,3457.6,3468.6,486.1,474.3,521.8,1083.4,933.0,475.8,67.0,46.0,-1.0,12697.0,-3229.0,-1365.0,9743.0,-115.0,-43.0,33.0,47.0,-65.0,-21.0,7429.0,-3791.0,-4677.0,13304.0,45.0,-133.0,-87.0,1.0
2022-05-08 18:17:46.447680-07:00,659.5,762.9,794.4,988.5,363.1,333.6,1002.2,735.6,3471.0,3468.6,1890.9,865.4,621.4,3461.3,2044.4,1024.5,3439.5,3449.1,376.3,312.0,317.4,325.1,325.1,237.8,3455.2,3456.4,502.8,476.6,521.8,1083.4,933.0,475.8,66.0,53.0,107.0,12670.0,-3264.0,-1475.0,9750.0,-446.0,-302.0,150.0,66.0,13.0,46.0,7380.0,-3805.0,-4784.0,13290.0,-551.0,-66.0,154.0,1.0
2022-05-08 18:17:46.477015-07:00,657.9,769.5,869.6,990.2,363.1,333.6,1002.2,738.1,3466.1,3469.8,1802.3,861.2,621.4,3461.3,2044.4,1029.7,3441.9,3449.1,376.3,312.0,317.4,329.0,322.1,243.2,3466.1,3456.4,502.8,476.6,537.8,1085.1,924.5,499.6,35.0,83.0,27.0,12610.0,-3347.0,-1572.0,9785.0,-16.0,39.0,60.0,54.0,46.0,8.0,7342.0,-3828.0,-4828.0,13288.0,-61.0,56.0,12.0,1.0
2022-05-08 18:17:46.478180-07:00,657.9,769.5,869.6,990.2,366.9,328.2,991.0,738.1,3460.1,3469.8,1802.3,861.2,623.0,3468.6,2025.4,1029.7,3441.9,3443.1,373.2,308.2,317.4,329.0,322.1,245.4,3466.1,3456.4,501.2,470.3,537.8,1085.1,924.5,524.2,47.0,289.0,-55.0,12594.0,-3551.0,-1586.0,9732.0,-952.0,462.0,-24.0,84.0,269.0,-8.0,7311.0,-3956.0,-4965.0,13217.0,-1650.0,293.0,149.0,1.0
2022-05-08 18:17:46.479550-07:00,657.9,770.3,848.6,988.5,366.9,328.2,991.0,747.2,3460.1,3462.5,1776.2,852.0,623.0,3468.6,2025.4,1019.4,3445.5,3443.1,373.2,308.2,317.4,329.8,325.9,245.4,3457.6,3456.4,501.2,470.3,551.4,1145.4,950.0,524.2,116.0,92.0,39.0,12391.0,-4515.0,-1988.0,9517.0,-3154.0,869.0,-174.0,100.0,14.0,13.0,6995.0,-4648.0,-5733.0,12847.0,-3353.0,756.0,257.0,1.0
2022-05-08 18:17:46.627066-07:00,658.7,770.3,848.6,988.5,368.5,327.5,985.9,747.2,3467.4,3462.5,1776.2,852.0,606.0,3467.4,2084.6,1019.4,3445.5,3451.6,371.6,319.0,317.4,329.8,325.9,242.4,3457.6,3458.9,498.8,472.7,551.4,1145.4,950.0,528.2,53.0,114.0,-20.0,12114.0,-5782.0,-2473.0,9063.0,-3282.0,1121.0,-377.0,80.0,17.0,8.0,6619.0,-5479.0,-6649.0,12264.0,-3291.0,711.0,351.0,1.0
2022-05-08 18:17:46.628049-07:00,658.7,770.3,848.6,988.5,368.5,327.5,985.9,747.2,3467.4,3462.5,1776.2,852.0,606.0,3467.4,2084.6,1019.4,3445.5,3451.6,371.6,319.0,317.4,329.8,325.9,242.4,3457.6,3458.9,498.8,472.7,551.4,1145.4,950.0,528.2,53.0,114.0,-20.0,12114.0,-5782.0,-2473.0,9063.0,-3282.0,1121.0,-377.0,80.0,17.0,8.0,6619.0,-5479.0,-6649.0,12264.0,-3291.0,711.0,351.0,1.0
2022-05-08 18:17:46.629190-07:00,661.1,765.3,840.3,1002.2,365.4,323.6,966.2,740.6,3466.1,3473.4,1737.8,841.1,606.8,3463.7,2075.5,998.7,3449.1,3431.0,377.8,315.1,313.6,327.5,323.6,239.3,3463.7,3460.1,489.3,472.7,545.8,1126.1,979.9,525.8,40.0,-66.0,-111.0,11012.0,-8686.0,-3816.0,7561.0,-3729.0,953.0,-828.0,1.0,80.0,-13.0,5497.0,-7402.0,-8516.0,10531.0,-2979.0,748.0,262.0,1.0
2022-05-08 18:17:46.687021-07:00,661.1,758.7,840.3,996.2,365.4,323.6,966.2,724.9,3466.1,3469.8,1691.9,835.2,606.8,3463.7,2075.5,996.2,3449.1,3431.0,377.8,315.1,315.1,323.6,322.8,239.3,3457.6,3460.1,489.3,472.7,541.0,1113.0,972.2,525.8,-36.0,-78.0,-88.0,10513.0,-9658.0,-4263.0,6817.0,-2682.0,1137.0,-532.0,-58.0,-103.0,-14.0,5082.0,-8018.0,-9113.0,9761.0,-2450.0,728.0,45.0,1.0
2022-05-08 18:17:46.717578-07:00,660.3,756.3,840.3,996.2,373.9,324.4,957.7,724.9,3469.8,3467.4,1691.9,835.2,593.9,3461.3,2049.4,996.2,3449.1,3450.4,380.2,310.5,315.1,323.6,315.9,239.3,3457.6,3468.6,495.6,456.9,541.0,1113.0,956.8,523.4,-47.0,-152.0,-45.0,10175.0,-10273.0,-4554.0,6215.0,-1568.0,478.0,-588.0,-103.0,-55.0,-19.0,4823.0,-8422.0,-9528.0,9136.0,-1587.0,524.0,-34.0,1.0
2022-05-08 18:17:46.719486-07:00,660.3,756.3,823.5,986.7,373.9,324.4,950.0,732.3,3469.8,3467.4,1550.6,824.4,593.9,3461.3,2025.4,994.5,3443.1,3447.9,380.2,310.5,314.4,323.6,315.9,239.3,3471.0,3457.6,495.6,456.9,546.6,1092.1,956.8,523.4,-126.0,-187.0,-56.0,9994.0,-10622.0,-4673.0,5820.0,-800.0,670.0,-215.0,-130.0,-113.0,35.0,4674.0,-8654.0,-9745.0,8760.0,-859.0,321.0,-53.0,1.0
2022-05-08 18:17:46.720592-07:00,653.0,764.5,823.5,986.7,374.7,323.6,950.0,732.3,3464.9,3468.6,1550.6,824.4,594.7,3469.8,2025.4,994.5,3443.1,3447.9,374.7,305.1,314.4,323.6,318.2,243.2,3471.0,3457.6,493.2,453.7,546.6,1092.1,943.2,525.0,-104.0,-86.0,-65.0,9921.0,-10789.0,-4666.0,5642.0,-294.0,164.0,-19.0,-105.0,-51.0,35.0,4618.0,-8775.0,-9792.0,8616.0,-266.0,177.0,98.0,1.0
2022-05-08 18:17:46.747009-07:00,653.0,764.5,817.7,996.2,374.7,323.6,946.6,727.4,3464.9,3468.6,1511.5,815.2,594.7,3469.8,1993.5,984.2,3450.4,3444.3,374.7,305.1,315.9,326.7,318.2,243.2,3463.7,3460.1,493.2,453.7,543.4,1092.9,943.2,525.0,-11.0,6.0,-33.0,9897.0,-10851.0,-4613.0,5610.0,-46.0,219.0,203.0,-18.0,-9.0,4.0,4617.0,-8833.0,-9750.0,8604.0,44.0,90.0,135.0,1.0
2022-05-08 18:17:46.836997-07:00,657.9,750.5,817.7,996.2,370.0,327.5,946.6,727.4,3478.3,3462.5,1511.5,815.2,594.7,3451.6,1993.5,984.2,3450.4,3444.3,377.8,309.0,315.9,326.7,319.0,237.1,3463.7,3460.1,485.3,453.0,543.4,1092.9,930.5,509.9,18.0,43.0,-9.0,9895.0,-10880.0,-4538.0,5617.0,78.0,35.0,89.0,24.0,18.0,19.0,4635.0,-8852.0,-9707.0,8623.0,127.0,27.0,26.0,1.0
2022-05-08 18:17:46.897027-07:00,657.9,750.5,813.5,993.6,370.0,327.5,944.9,722.5,3478.3,3462.5,1488.4,811.9,594.7,3451.6,1989.5,985.0,3435.8,3439.5,377.8,309.0,315.1,325.9,319.0,237.1,3462.5,3460.1,485.3,453.0,543.4,1087.7,930.5,509.9,31.0,-1.0,9.0,9923.0,-10847.0,-4517.0,5650.0,156.0,-18.0,26.0,2.0,4.0,-17.0,4678.0,-8822.0,-9683.0,8658.0,156.0,-28.0,-73.0,1.0
2022-05-08 18:17:46.899395-07:00,649.7,751.3,813.5,993.6,374.7,324.4,944.9,722.5,3462.5,3472.2,1488.4,811.9,597.1,3463.7,1989.5,985.0,3435.8,3439.5,378.6,305.1,315.1,325.9,318.2,240.1,3462.5,3460.1,494.8,451.4,543.4,1087.7,926.2,504.4,-22.0,-47.0,2.0,9966.0,-10808.0,-4483.0,5674.0,145.0,-9.0,45.0,-23.0,-32.0,25.0,4716.0,-8776.0,-9672.0,8696.0,144.0,-51.0,-49.0,1.0
2022-05-08 18:17:46.957221-07:00,649.7,751.3,811.9,991.0,374.7,317.4,944.1,733.2,3462.5,3472.2,1479.2,809.4,597.1,3469.8,1977.6,985.9,3445.5,3441.9,373.2,305.1,317.4,322.8,318.2,240.1,3463.7,3457.6,486.1,451.4,544.2,1094.7,926.2,504.4,-6.0,-11.0,22.0,9993.0,-10767.0,-4437.0,5740.0,199.0,-48.0,173.0,-4.0,-15.0,20.0,4753.0,-8731.0,-9632.0,8765.0,261.0,-55.0,14.0,1.0
2022-05-08 18:17:47.016973-07:00,657.0,754.6,811.0,991.0,366.9,317.4,944.1,733.2,3461.3,3468.6,1469.0,809.4,591.5,3469.8,1977.6,985.9,3445.5,3441.9,373.2,306.7,317.4,328.2,317.4,239.3,3463.7,3457.6,486.1,445.1,544.2,1079.0,922.0,505.1,1.0,14.0,25.0,10020.0,-10724.0,-4366.0,5828.0,220.0,-35.0,177.0,5.0,4.0,13.0,4803.0,-8682.0,-9572.0,8852.0,269.0,-47.0,6.0,1.0
2022-05-08 18:17:47.107043-07:00,657.0,754.6,811.0,992.7,366.9,323.6,939.0,728.2,3461.3,3468.6,1469.0,804.4,591.5,3466.1,1967.7,979.0,3444.3,3446.7,373.2,306.7,311.3,328.2,317.4,239.3,3457.6,3460.1,492.5,445.1,539.4,1079.0,922.0,505.1,2.0,17.0,31.0,10064.0,-10672.0,-4303.0,5894.0,215.0,-19.0,78.0,-3.0,-4.0,17.0,4854.0,-8638.0,-9519.0,8924.0,236.0,-26.0,-23.0,1.0
2022-05-08 18:17:47.108140-07:00,657.0,748.8,806.9,992.7,377.0,323.6,939.0,728.2,3468.6,3464.9,1450.6,804.4,592.3,3466.1,1967.7,979.0,3444.3,3446.7,373.2,299.0,311.3,323.6,313.6,237.8,3457.6,3460.1,492.5,441.9,539.4,1080.8,915.2,508.3,8.0,3.0,15.0,10097.0,-10639.0,-4271.0,5920.0,17.0,15.0,19.0,-2.0,0.0,0.0,4887.0,-8621.0,-9494.0,8950.0,-7.0,40.0,3.0,1.0
2022-05-08 18:17:47.167069-07:00,657.0,748.8,806.9,991.9,377.0,321.3,938.1,726.6,3468.6,3464.9,1450.6,797.7,592.3,3468.6,1956.8,973.9,3441.9,3440.7,378.6,299.0,315.1,323.6,313.6,237.8,3455.2,3452.8,490.9,441.9,547.4,1080.8,915.2,508.3,-7.0,-17.0,30.0,10096.0,-10644.0,-4263.0,5920.0,18.0,9.0,33.0,1.0,-20.0,26.0,4892.0,-8625.0,-9485.0,8952.0,45.0,7.0,21.0,1.0
2022-05-08 18:17:47.196948-07:00,661.1,749.6,810.2,991.9,371.6,321.3,938.1,726.6,3471.0,3456.4,1458.0,797.7,592.3,3468.6,1956.8,973.9,3441.9,3440.7,378.6,304.3,315.1,325.1,307.4,237.8,3455.2,3452.8,490.9,450.6,547.4,1071.2,922.8,505.1,-5.0,6.0,0.0,10110.0,-10631.0,-4240.0,5937.0,60.0,1.0,42.0,1.0,1.0,17.0,4909.0,-8617.0,-9463.0,8975.0,67.0,11.0,9.0,1.0
2022-05-08 18:17:47.256973-07:00,661.1,749.6,810.2,991.0,370.8,317.4,939.8,728.2,3471.0,3456.4,1458.0,801.0,585.1,3460.1,1959.8,976.5,3446.7,3441.9,377.0,312.0,318.2,325.1,307.4,237.8,3457.6,3454.0,487.7,445.1,535.4,1071.2,922.8,505.1,5.0,0.0,12.0,10118.0,-10620.0,-4229.0,5949.0,45.0,17.0,13.0,-3.0,-3.0,2.0,4918.0,-8609.0,-9451.0,8990.0,40.0,-7.0,-3.0,1.0
2022-05-08 18:17:47.316918-07:00,657.0,748.0,810.2,981.6,370.8,317.4,939.8,728.2,3471.0,3468.6,1458.9,797.7,585.1,3460.1,1959.8,976.5,3446.7,3441.9,377.0,312.0,315.1,322.8,311.3,240.9,3457.6,3454.0,487.7,445.1,536.2,1072.9,911.8,506.7,-8.0,2.0,3.0,10137.0,-10601.0,-4218.0,5959.0,79.0,-30.0,-9.0,-2.0,-2.0,21.0,4934.0,-8596.0,-9437.0,9008.0,67.0,-7.0,-13.0,1.0
2022-05-08 18:17:47.347682-07:00,657.0,748.0,810.2,981.6,363.1,322.1,945.8,734.8,3471.0,3468.6,1458.9,797.7,585.1,3463.7,1959.8,966.2,3438.2,3446.7,373.9,309.0,315.1,322.8,311.3,240.9,3457.6,3463.7,489.3,449.8,536.2,1072.9,911.8,506.7,15.0,2.0,21.0,10159.0,-10569.0,-4226.0,5973.0,62.0,-13.0,-26.0,-2.0,3.0,-1.0,4948.0,-8577.0,-9430.0,9025.0,44.0,-21.0,-24.0,1.0
2022-05-08 18:17:47.437172-07:00,657.9,743.0,806.0,983.3,363.1,322.1,945.8,734.8,3469.8,3471.0,1446.0,800.2,585.1,3463.7,1959.8,966.2,3438.2,3446.7,373.9,309.0,318.2,325.9,311.3,234.8,3457.6,3463.7,489.3,449.8,536.2,1086.0,911.0,504.4,-6.0,-8.0,21.0,10171.0,-10551.0,-4225.0,5983.0,42.0,-42.0,9.0,-3.0,-7.0,25.0,4958.0,-8568.0,-9423.0,9036.0,75.0,-26.0,-3.0,1.0
2022-05-08 18:17:47.467050-07:00,657.9,743.0,806.0,983.3,362.3,326.7,939.0,745.5,3469.8,3471.0,1446.0,800.2,596.3,3457.6,1943.0,973.9,3449.1,3449.1,377.0,305.1,318.2,325.9,311.3,234.8,3457.6,3463.7,486.1,444.3,536.2,1086.0,911.0,504.4,-2.0,4.0,14.0,10198.0,-10520.0,-4209.0,6004.0,102.0,-9.0,15.0,-4.0,6.0,18.0,4978.0,-8546.0,-9401.0,9069.0,107.0,-18.0,-3.0,1.0
2022-05-08 18:17:47.497310-07:00,661.9,744.7,807.7,991.9,362.3,326.7,939.0,745.5,3467.4,3467.4,1436.0,791.0,596.3,3457.6,1943.0,973.9,3449.1,3449.1,377.0,305.1,314.4,325.9,309.7,241.6,3457.6,3463.7,486.1,444.3,530.6,1061.7,901.7,511.5,-4.0,-2.0,16.0,10207.0,-10509.0,-4199.0,6015.0,-11.0,-4.0,19.0,-3.0,-6.0,18.0,4988.0,-8536.0,-9388.0,9086.0,4.0,10.0,12.0,1.0
2022-05-08 18:17:47.557054-07:00,661.9,744.7,807.7,991.9,373.9,322.1,942.4,740.6,3467.4,3467.4,1436.0,791.0,589.9,3468.6,1939.0,968.8,3440.7,3440.7,374.7,305.9,314.4,325.9,309.7,241.6,3463.7,3457.6,487.7,441.9,530.6,1061.7,901.7,511.5,0.0,12.0,13.0,10210.0,-10506.0,-4194.0,6020.0,22.0,5.0,-1.0,-4.0,2.0,14.0,4991.0,-8535.0,-9382.0,9091.0,13.0,2.0,-1.0,1.0
2022-05-08 18:17:47.617027-07:00,659.5,741.4,806.9,995.3,373.9,322.1,942.4,734.8,3467.4,3473.4,1436.9,795.2,589.9,3468.6,1939.0,969.6,3434.6,3440.7,374.7,305.9,318.2,325.1,312.0,244.7,3458.9,3457.6,487.7,441.9,532.2,1049.6,906.7,492.5,0.0,-7.0,15.0,10214.0,-10501.0,-4197.0,6019.0,16.0,-15.0,-16.0,-5.0,-6.0,15.0,4992.0,-8534.0,-9379.0,9095.0,14.0,-1.0,-4.0,1.0
2022-05-08 18:17:47.647262-07:00,654.6,741.4,806.9,995.3,365.4,324.4,941.5,734.8,3469.8,3473.4,1436.9,795.2,592.3,3473.4,1936.1,969.6,3434.6,3447.9,381.7,306.7,318.2,325.1,312.0,238.6,3458.9,3467.4,490.1,439.6,532.2,1049.6,906.7,495.6,0.0,-5.0,17.0,10216.0,-10493.0,-4200.0,6026.0,-5.0,-15.0,10.0,-9.0,0.0,10.0,4996.0,-8531.0,-9375.0,9099.0,6.0,-1.0,9.0,1.0
2022-05-08 18:17:47.797160-07:00,654.6,748.0,799.4,990.2,365.4,324.4,941.5,735.6,3469.8,3463.7,1429.5,795.2,592.3,3473.4,1936.1,967.1,3446.7,3447.9,381.7,306.7,311.3,322.1,308.2,238.6,3462.5,3467.4,490.1,439.6,537.8,1059.1,900.0,495.6,-1.0,5.0,17.0,10217.0,-10491.0,-4193.0,6033.0,8.0,6.0,16.0,-1.0,-5.0,18.0,4998.0,-8530.0,-9370.0,9105.0,17.0,3.0,6.0,1.0
2022-05-08 18:17:47.799051-07:00,661.9,748.0,799.4,990.2,362.3,317.4,934.7,735.6,3468.6,3463.7,1429.5,795.2,581.8,3468.6,1936.1,967.1,3446.7,3439.5,373.2,306.7,311.3,322.1,308.2,237.8,3462.5,3457.6,490.1,441.9,537.8,1059.1,900.0,497.2,2.0,-1.0,15.0,10220.0,-10488.0,-4194.0,6035.0,6.0,-2.0,-9.0,-6.0,-2.0,12.0,5000.0,-8528.0,-9367.0,9109.0,2.0,-2.0,2.0,1.0
2022-05-08 18:17:47.799865-07:00,661.9,742.2,796.9,992.7,362.3,317.4,934.7,736.5,3468.6,3478.3,1423.1,793.5,581.8,3468.6,1936.1,962.8,3443.1,3439.5,373.2,306.7,308.2,325.9,311.3,237.8,3458.9,3457.6,490.1,441.9,530.6,1061.7,899.1,497.2,0.0,-1.0,13.0,10225.0,-10483.0,-4191.0,6035.0,12.0,9.0,9.0,-5.0,-3.0,9.0,5001.0,-8527.0,-9364.0,9111.0,12.0,-2.0,2.0,1.0
2022-05-08 18:17:47.856969-07:00,657.0,742.2,796.9,992.7,367.7,321.3,937.3,736.5,3460.1,3478.3,1423.1,793.5,581.8,3457.6,1925.2,962.8,3443.1,3446.7,376.3,303.6,308.2,325.9,311.3,240.1,3458.9,3452.8,487.7,441.2,530.6,1061.7,899.1,494.8,-5.0,4.0,12.0,10230.0,-10477.0,-4185.0,6041.0,33.0,-15.0,7.0,-4.0,3.0,15.0,5007.0,-8523.0,-9357.0,9120.0,34.0,6.0,-3.0,1.0
2022-05-08 18:17:47.946919-07:00,657.0,744.7,794.4,994.5,367.7,321.3,944.1,747.2,3460.1,3469.8,1416.7,791.0,581.8,3457.6,1944.0,966.2,3446.7,3439.5,376.3,303.6,315.1,327.5,304.3,240.1,3467.4,3449.1,487.7,441.2,533.0,1052.2,895.7,494.8,0.0,-1.0,17.0,10248.0,-10458.0,-4176.0,6051.0,55.0,5.0,11.0,1.0,-4.0,17.0,5020.0,-8515.0,-9342.0,9135.0,53.0,4.0,-4.0,1.0
2022-05-08 18:17:47.948110-07:00,653.0,740.6,794.4,994.5,373.9,320.5,944.1,747.2,3462.5,3457.6,1416.7,791.0,593.1,3466.1,1944.0,966.2,3446.7,3439.5,377.0,307.4,315.1,327.5,305.9,241.6,3467.4,3449.1,485.3,439.6,533.0,1052.2,897.4,499.6,-2.0,0.0,18.0,10253.0,-10451.0,-4168.0,6058.0,10.0,1.0,14.0,-6.0,-6.0,18.0,5032.0,-8513.0,-9331.0,9142.0,18.0,27.0,8.0,1.0
2022-05-08 18:17:48.007040-07:00,653.0,740.6,806.0,991.9,373.9,320.5,937.3,739.7,3462.5,3457.6,1414.9,790.2,593.1,3466.1,1908.5,965.4,3444.3,3445.5,377.0,307.4,315.9,325.9,305.9,241.6,3460.1,3460.1,485.3,439.6,533.0,1053.9,897.4,499.6,-1.0,3.0,9.0,10264.0,-10439.0,-4162.0,6066.0,50.0,-20.0,-7.0,-2.0,-8.0,11.0,5047.0,-8509.0,-9315.0,9154.0,60.0,6.0,0.0,1.0
2022-05-08 18:17:48.067171-07:00,656.2,742.2,806.0,991.9,360.0,319.7,937.3,739.7,3467.4,3461.3,1414.9,790.2,588.3,3461.3,1908.5,965.4,3444.3,3445.5,373.9,304.3,315.9,325.9,306.7,240.1,3460.1,3460.1,490.9,441.9,533.0,1053.9,891.5,491.7,4.0,8.0,1.0,10279.0,-10417.0,-4172.0,6072.0,29.0,-44.0,-44.0,-1.0,3.0,10.0,5059.0,-8502.0,-9302.0,9167.0,32.0,4.0,-9.0,1.0
2022-05-08 18:17:48.097221-07:00,656.2,742.2,801.9,987.6,360.0,319.7,923.7,738.9,3467.4,3461.3,1414.9,795.2,588.3,3461.3,1903.6,959.4,3437.0,3444.3,373.9,304.3,313.6,323.6,306.7,240.1,3458.9,3466.1,490.9,441.9,534.6,1052.2,891.5,491.7,-5.0,3.0,-2.0,10277.0,-10394.0,-4218.0,6082.0,7.0,-147.0,-86.0,-6.0,-1.0,9.0,5060.0,-8499.0,-9301.0,9170.0,13.0,-16.0,-15.0,1.0
2022-05-08 18:17:48.157060-07:00,652.2,747.2,801.9,987.6,365.4,324.4,923.7,738.9,3461.3,3468.6,1414.9,795.2,586.7,3475.9,1903.6,959.4,3437.0,3444.3,375.5,304.3,313.6,323.6,306.7,242.4,3458.9,3466.1,489.3,442.7,534.6,1052.2,900.0,486.1,2.0,-7.0,3.0,10285.0,-10344.0,-4284.0,6107.0,50.0,-171.0,-90.0,-8.0,-8.0,5.0,5067.0,-8481.0,-9303.0,9181.0,29.0,-28.0,-34.0,1.0
2022-05-08 18:17:48.247356-07:00,652.2,747.2,797.7,989.3,365.4,324.4,929.6,735.6,3461.3,3468.6,1405.8,784.4,586.7,3475.9,1905.6,957.7,3444.3,3444.3,375.5,304.3,315.1,325.9,306.7,242.4,3463.7,3464.9,489.3,442.7,532.2,1051.3,900.0,486.1,-22.0,1.0,-6.0,10288.0,-10280.0,-4360.0,6155.0,85.0,-308.0,-100.0,-1.0,-17.0,39.0,5075.0,-8454.0,-9301.0,9203.0,88.0,-67.0,-19.0,1.0
2022-05-08 18:17:48.249611-07:00,657.0,738.9,800.2,989.3,361.5,319.7,929.6,735.6,3460.1,3467.4,1409.4,784.4,587.5,3456.4,1905.6,957.7,3444.3,3444.3,382.5,305.1,315.1,323.6,312.0,239.3,3463.7,3464.9,484.5,442.7,532.2,1051.3,892.4,514.7,39.0,-24.0,12.0,10311.0,-10165.0,-4440.0,6250.0,243.0,-243.0,2.0,4.0,5.0,-31.0,5105.0,-8384.0,-9264.0,9288.0,264.0,-173.0,-31.0,1.0
2022-05-08 18:17:48.307117-07:00,657.0,738.9,800.2,991.9,361.5,319.0,933.0,731.5,3460.1,3467.4,1409.4,789.4,587.5,3467.4,1911.5,962.8,3443.1,3447.9,377.0,305.1,318.2,323.6,312.0,239.3,3457.6,3456.4,483.0,442.7,530.6,1051.3,892.4,514.7,-12.0,-9.0,10.0,10339.0,-10076.0,-4437.0,6350.0,254.0,-226.0,91.0,-5.0,-13.0,26.0,5136.0,-8316.0,-9229.0,9366.0,285.0,-133.0,-12.0,1.0
2022-05-08 18:17:48.367092-07:00,649.7,735.6,798.5,991.9,369.3,319.0,933.0,731.5,3466.1,3468.6,1398.5,789.4,585.9,3467.4,1911.5,962.8,3443.1,3447.9,377.0,306.7,318.2,330.5,312.8,237.1,3457.6,3456.4,483.0,438.0,530.6,1047.0,886.5,490.9,1.0,3.0,19.0,10385.0,-9959.0,-4425.0,6467.0,360.0,-197.0,44.0,-7.0,-19.0,11.0,5178.0,-8226.0,-9163.0,9486.0,390.0,-158.0,-16.0,1.0
2022-05-08 18:17:48.427041-07:00,649.7,735.6,798.5,991.0,369.3,322.1,931.3,735.6,3466.1,3468.6,1398.5,791.9,585.9,3462.5,1906.6,962.8,3438.2,3444.3,373.2,306.7,311.3,330.5,312.8,237.1,3466.1,3456.4,481.4,438.0,530.6,1047.0,886.5,490.9,-36.0,-12.0,2.0,10493.0,-9792.0,-4426.0,6547.0,522.0,-234.0,-197.0,-34.0,-48.0,23.0,5237.0,-8102.0,-9088.0,9632.0,488.0,-234.0,-66.0,1.0
2022-05-08 18:17:48.457952-07:00,657.9,738.1,805.2,991.0,361.5,322.1,931.3,735.6,3473.4,3460.1,1404.0,791.9,586.7,3462.5,1906.6,962.8,3438.2,3444.3,373.2,311.3,311.3,325.9,306.7,237.1,3466.1,3456.4,481.4,438.8,530.6,1041.8,884.8,489.3,-24.0,-249.0,25.0,10731.0,-9446.0,-4421.0,6672.0,1414.0,-371.0,-141.0,-50.0,-178.0,23.0,5380.0,-7858.0,-8935.0,9895.0,1370.0,-419.0,-227.0,1.0
2022-05-08 18:17:48.667276-07:00,657.9,738.1,805.2,986.7,361.5,321.3,928.8,733.2,3473.4,3460.1,1404.0,788.6,586.7,3456.4,1924.3,967.1,3447.9,3451.6,374.7,311.3,318.2,325.9,306.7,237.1,3466.1,3460.1,486.9,438.8,531.4,1041.8,884.8,489.3,1.0,-246.0,-36.0,11155.0,-8821.0,-3921.0,7128.0,2610.0,1.0,1080.0,-46.0,-38.0,-7.0,5762.0,-7331.0,-8485.0,10464.0,2582.0,-453.0,-127.0,1.0
2022-05-08 18:17:48.670308-07:00,653.0,736.5,797.7,986.7,362.3,321.3,928.8,733.2,3464.9,3478.3,1412.2,788.6,584.3,3456.4,1924.3,967.1,3447.9,3451.6,374.7,305.1,318.2,323.6,306.7,237.1,3466.1,3460.1,486.9,436.4,531.4,1047.0,899.1,486.9,-62.0,-46.0,-88.0,11451.0,-8145.0,-3191.0,7797.0,2440.0,-446.0,1295.0,-44.0,-56.0,41.0,6099.0,-6749.0,-7803.0,11172.0,2668.0,-604.0,157.0,1.0
2022-05-08 18:17:48.671193-07:00,653.0,736.5,797.7,991.0,369.3,314.4,933.9,735.6,3464.9,3478.3,1412.2,785.2,582.6,3473.4,1919.3,963.7,3439.5,3441.9,378.6,306.7,312.8,323.6,306.7,237.1,3456.4,3454.0,486.9,438.8,533.0,1047.0,899.1,486.9,19.0,83.0,-83.0,11683.0,-7281.0,-2541.0,8514.0,2863.0,-565.0,1259.0,-48.0,96.0,-14.0,6409.0,-6074.0,-7058.0,11860.0,2890.0,-755.0,58.0,1.0
2022-05-08 18:17:48.672569-07:00,656.2,738.1,796.0,989.3,369.3,314.4,933.9,735.6,3469.8,3471.0,1383.9,789.4,582.6,3473.4,1919.3,963.7,3439.5,3441.9,378.6,306.7,315.1,323.6,303.6,237.8,3456.4,3454.0,486.9,438.8,527.4,1049.6,883.9,490.9,-62.0,208.0,-143.0,11875.0,-6390.0,-2027.0,9082.0,2118.0,-1011.0,664.0,-37.0,90.0,45.0,6640.0,-5545.0,-6465.0,12321.0,2250.0,-612.0,-56.0,1.0
2022-05-08 18:17:48.696854-07:00,656.2,738.1,796.0,989.3,363.1,319.7,924.5,731.5,3469.8,3471.0,1383.9,789.4,587.5,3466.1,1907.5,962.8,3449.1,3445.5,371.6,312.0,315.1,323.6,303.6,237.8,3466.1,3452.8,478.2,438.0,527.4,1049.6,883.9,490.9,63.0,170.0,-55.0,11933.0,-5628.0,-1801.0,9545.0,1466.0,-856.0,657.0,0.0,103.0,-40.0,6828.0,-4958.0,-5959.0,12717.0,1621.0,-711.0,95.0,1.0
2022-05-08 18:17:48.756819-07:00,651.4,735.6,801.9,992.7,363.1,319.7,924.5,731.5,3469.8,3457.6,1390.3,788.6,587.5,3466.1,1907.5,962.8,3449.1,3445.5,371.6,312.0,313.6,324.4,303.6,237.1,3466.1,3452.8,478.2,438.0,525.0,1039.2,884.8,490.1,51.0,36.0,-17.0,11968.0,-5028.0,-1672.0,9855.0,1282.0,-835.0,411.0,68.0,60.0,-4.0,6911.0,-4485.0,-5629.0,12995.0,1243.0,-512.0,-134.0,1.0
2022-05-08 18:17:48.939303-07:00,651.4,735.6,801.9,992.7,362.3,319.0,922.0,729.0,3469.8,3457.6,1390.3,788.6,586.7,3471.0,1886.9,959.4,3438.2,3435.8,373.2,309.7,313.6,324.4,303.6,237.1,3463.7,3463.7,496.4,441.2,525.0,1039.2,884.8,490.1,117.0,140.0,-29.0,11941.0,-4552.0,-1655.0,10119.0,441.0,-722.0,249.0,79.0,65.0,-123.0,6948.0,-4071.0,-5404.0,13206.0,328.0,-745.0,-23.0,1.0
2022-05-08 18:17:48.967886-07:00,663.6,737.3,795.2,992.7,362.3,319.0,922.0,729.0,3457.6,3462.5,1380.3,788.6,586.7,3471.0,1886.9,959.4,3438.2,3435.8,373.2,309.7,315.1,320.5,303.6,237.8,3463.7,3463.7,496.4,441.2,531.4,1034.9,889.0,486.1,75.0,-107.0,41.0,11918.0,-4337.0,-1722.0,10229.0,529.0,-377.0,144.0,37.0,-69.0,38.0,6934.0,-3902.0,-5392.0,13269.0,479.0,-225.0,-80.0,1.0
2022-05-08 18:17:48.969617-07:00,657.0,737.3,795.2,992.7,368.5,318.2,913.5,732.3,3472.2,3462.5,1380.3,788.6,585.9,3463.7,1876.2,963.7,3437.0,3434.6,375.5,302.0,315.1,320.5,303.6,238.6,3451.6,3451.6,484.5,435.7,531.4,1034.9,889.0,490.9,68.0,147.0,-22.0,11911.0,-4063.0,-1602.0,10368.0,173.0,-181.0,205.0,41.0,125.0,-82.0,6978.0,-3633.0,-5229.0,13387.0,295.0,-264.0,53.0,1.0
2022-05-08 18:17:48.997091-07:00,657.0,736.5,798.5,985.0,368.5,318.2,913.5,729.9,3472.2,3471.0,1373.0,785.2,585.9,3463.7,1876.2,960.2,3438.2,3434.6,375.5,302.0,314.4,321.3,306.7,238.6,3468.6,3451.6,484.5,435.7,525.0,1034.9,881.4,490.9,22.0,-115.0,30.0,11877.0,-4034.0,-1704.0,10401.0,241.0,-289.0,52.0,-6.0,-63.0,33.0,6962.0,-3665.0,-5229.0,13386.0,216.0,-301.0,-53.0,1.0
2022-05-08 18:17:48.998255-07:00,660.3,736.5,798.5,985.0,371.6,316.7,923.7,729.9,3474.6,3471.0,1373.0,785.2,581.0,3468.6,1870.3,960.2,3438.2,3438.2,378.6,302.0,314.4,321.3,306.7,241.6,3468.6,3463.7,487.7,443.5,525.0,1034.9,881.4,493.2,-37.0,13.0,18.0,11879.0,-3977.0,-1605.0,10438.0,424.0,54.0,182.0,-134.0,27.0,240.0,7007.0,-3623.0,-5090.0,13428.0,629.0,322.0,-18.0,1.0
2022-05-08 18:17:49.207870-07:00,660.3,731.5,790.2,985.9,371.6,316.7,923.7,737.3,3474.6,3462.5,1363.9,787.7,581.0,3468.6,1870.3,963.7,3445.5,3438.2,378.6,302.0,316.7,323.6,305.1,241.6,3460.1,3463.7,487.7,443.5,534.6,1031.4,883.9,493.2,21.0,68.0,-28.0,11871.0,-3881.0,-1515.0,10496.0,91.0,-94.0,35.0,-4.0,60.0,35.0,7043.0,-3565.0,-4977.0,13467.0,35.0,-29.0,-27.0,1.0
2022-05-08 18:17:49.238120-07:00,657.0,731.5,790.2,985.9,367.7,315.9,918.6,737.3,3468.6,3462.5,1363.9,787.7,588.3,3462.5,1858.6,963.7,3445.5,3438.2,373.2,307.4,316.7,323.6,305.1,240.1,3460.1,3460.1,483.0,432.5,534.6,1031.4,883.9,509.1,42.0,4.0,-6.0,11880.0,-3851.0,-1529.0,10495.0,14.0,-14.0,-61.0,25.0,17.0,7.0,7063.0,-3561.0,-4968.0,13460.0,37.0,57.0,-38.0,1.0
2022-05-08 18:17:49.239945-07:00,657.0,733.2,796.9,986.7,367.7,315.9,918.6,737.3,3468.6,3466.1,1364.8,788.6,588.3,3462.5,1858.6,956.0,3438.2,3438.2,373.2,307.4,316.7,326.7,305.1,240.1,3463.7,3460.1,483.0,432.5,525.8,1040.9,887.3,509.1,14.0,0.0,-21.0,11900.0,-3829.0,-1526.0,10480.0,16.0,-92.0,-12.0,8.0,14.0,10.0,7100.0,-3564.0,-4929.0,13455.0,68.0,29.0,-13.0,1.0
2022-05-08 18:17:49.241091-07:00,648.9,733.2,796.9,986.7,365.4,317.4,917.7,737.3,3472.2,3466.1,1364.8,788.6,589.1,3478.3,1857.6,956.0,3438.2,3449.1,373.2,309.0,316.7,326.7,305.1,240.9,3463.7,3461.3,478.2,432.5,525.8,1040.9,887.3,521.8,26.0,-27.0,15.0,11907.0,-3802.0,-1578.0,10474.0,-23.0,-85.0,-85.0,6.0,-24.0,24.0,7113.0,-3574.0,-4937.0,13442.0,-30.0,59.0,-19.0,1.0
2022-05-08 18:17:49.242454-07:00,648.9,737.3,796.9,988.5,365.4,317.4,920.3,731.5,3472.2,3466.1,1360.3,779.4,589.1,3478.3,1850.8,958.5,3450.4,3449.1,373.2,309.0,312.0,325.1,303.6,240.9,3463.7,3447.9,478.2,432.5,528.2,1034.0,885.6,521.8,17.0,16.0,-15.0,11924.0,-3775.0,-1594.0,10463.0,-17.0,-5.0,-28.0,12.0,5.0,-20.0,7125.0,-3576.0,-4933.0,13437.0,-36.0,83.0,10.0,1.0
2022-05-08 18:17:49.447221-07:00,653.0,737.3,796.9,988.5,364.6,319.7,920.3,731.5,3458.9,3467.4,1360.3,779.4,581.0,3467.4,1850.8,958.5,3450.4,3449.1,378.6,305.9,312.0,325.1,304.3,238.6,3463.7,3447.9,486.9,435.7,528.2,1034.0,874.7,520.3,14.0,1.0,-6.0,11933.0,-3778.0,-1618.0,10447.0,-44.0,-38.0,-84.0,4.0,14.0,1.0,7135.0,-3604.0,-4945.0,13420.0,-95.0,18.0,-34.0,1.0
2022-05-08 18:17:49.477121-07:00,653.0,737.3,796.9,988.5,364.6,319.7,925.4,731.5,3458.9,3467.4,1350.3,781.1,581.0,3467.4,1842.0,956.0,3443.1,3446.7,378.6,305.9,316.7,323.6,304.3,238.6,3456.4,3450.4,486.9,435.7,525.0,1038.3,874.7,520.3,7.0,0.0,-5.0,11942.0,-3792.0,-1631.0,10431.0,-46.0,51.0,-15.0,-13.0,-2.0,36.0,7143.0,-3641.0,-4940.0,13407.0,-46.0,87.0,0.0,1.0
2022-05-08 18:17:49.657963-07:00,666.8,738.9,796.9,988.5,365.4,314.4,925.4,731.5,3458.9,3462.5,1350.3,781.1,581.0,3463.7,1842.0,956.0,3443.1,3446.7,373.2,299.0,316.7,323.6,305.9,240.1,3456.4,3450.4,478.2,435.7,525.0,1038.3,878.0,504.4,12.0,-7.0,5.0,11950.0,-3817.0,-1635.0,10411.0,-28.0,25.0,-41.0,-7.0,-5.0,51.0,7151.0,-3672.0,-4942.0,13394.0,-14.0,84.0,0.0,1.0
2022-05-08 18:17:49.658968-07:00,666.8,738.9,794.4,991.0,365.4,314.4,921.1,739.7,3458.9,3462.5,1351.2,786.9,581.0,3463.7,1841.1,951.7,3437.0,3439.5,373.2,299.0,318.2,326.7,305.9,240.1,3461.3,3463.7,478.2,435.7,526.6,1030.6,878.0,504.4,12.0,-7.0,-12.0,11959.0,-3833.0,-1638.0,10395.0,-47.0,79.0,-4.0,-4.0,11.0,10.0,7154.0,-3695.0,-4942.0,13386.0,-48.0,63.0,18.0,1.0
2022-05-08 18:17:49.660125-07:00,660.3,747.2,794.4,991.0,360.7,319.7,921.1,739.7,3473.4,3468.6,1351.2,786.9,582.6,3467.4,1841.1,951.7,3437.0,3439.5,373.9,307.4,318.2,326.7,303.6,242.4,3461.3,3463.7,474.3,439.6,526.6,1030.6,875.5,509.1,5.0,9.0,-12.0,11957.0,-3867.0,-1631.0,10386.0,-58.0,45.0,-31.0,-8.0,34.0,13.0,7149.0,-3734.0,-4940.0,13379.0,-64.0,46.0,36.0,1.0
2022-05-08 18:17:49.662256-07:00,660.3,747.2,791.9,988.5,360.7,319.7,916.9,732.3,3473.4,3468.6,1345.8,786.9,582.6,3467.4,1834.3,956.8,3440.7,3450.4,373.9,307.4,315.1,326.7,303.6,242.4,3456.4,3468.6,474.3,439.6,518.7,1028.0,875.5,509.1,0.0,0.0,-23.0,11978.0,-3883.0,-1616.0,10357.0,28.0,52.0,-36.0,-3.0,60.0,43.0,7162.0,-3747.0,-4941.0,13368.0,1.0,40.0,6.0,1.0
2022-05-08 18:17:49.867927-07:00,655.4,736.5,789.4,988.5,363.1,311.3,916.9,732.3,3463.7,3464.9,1345.8,786.9,580.2,3467.4,1834.3,956.8,3440.7,3450.4,373.2,307.4,315.1,332.1,299.0,243.9,3456.4,3468.6,477.4,436.4,518.7,1021.1,884.8,513.9,24.0,-3.0,-8.0,11987.0,-3910.0,-1617.0,10337.0,-98.0,97.0,-18.0,6.0,25.0,1.0,7150.0,-3783.0,-4966.0,13354.0,-94.0,97.0,42.0,1.0
2022-05-08 18:17:49.869107-07:00,655.4,736.5,789.4,988.5,363.1,311.3,916.9,732.3,3463.7,3464.9,1345.8,786.9,580.2,3467.4,1834.3,956.8,3440.7,3450.4,373.2,307.4,315.1,332.1,299.0,243.9,3456.4,3468.6,477.4,436.4,518.7,1021.1,884.8,513.9,24.0,-3.0,-8.0,11987.0,-3910.0,-1617.0,10337.0,-98.0,97.0,-18.0,6.0,25.0,1.0,7150.0,-3783.0,-4966.0,13354.0,-94.0,97.0,42.0,1.0
2022-05-08 18:17:49.870345-07:00,654.6,747.2,796.0,995.3,363.1,319.0,924.5,726.6,3468.6,3468.6,1344.9,777.8,581.8,3464.9,1822.6,953.4,3438.2,3446.7,377.8,305.1,315.1,329.0,301.3,244.7,3458.9,3461.3,471.9,434.9,510.7,1026.3,878.0,505.9,13.0,-12.0,2.0,11984.0,-3975.0,-1699.0,10303.0,-87.0,3.0,-14.0,12.0,-25.0,21.0,7143.0,-3890.0,-5008.0,13312.0,-65.0,123.0,4.0,1.0
2022-05-08 18:17:49.871217-07:00,653.0,738.1,786.1,995.3,354.5,319.0,924.5,726.6,3469.8,3474.6,1346.7,777.8,585.9,3464.9,1822.6,953.4,3438.2,3446.7,377.8,298.2,315.1,330.5,298.2,236.3,3458.9,3461.3,471.9,438.0,510.7,1029.7,883.9,503.6,21.0,2.0,3.0,11989.0,-3982.0,-1730.0,10288.0,-62.0,-23.0,-57.0,5.0,25.0,-5.0,7149.0,-3908.0,-5024.0,13297.0,-77.0,32.0,-22.0,1.0
2022-05-08 18:17:49.872526-07:00,653.0,738.1,786.1,985.0,354.5,319.0,911.8,726.6,3469.8,3474.6,1346.7,774.5,585.9,3473.4,1810.0,947.5,3438.2,3440.7,377.8,298.2,315.9,330.5,298.2,236.3,3468.6,3458.9,468.7,438.0,513.9,1029.7,883.9,503.6,8.0,11.0,-21.0,11985.0,-4016.0,-1759.0,10274.0,-165.0,17.0,-3.0,-4.0,22.0,17.0,7144.0,-3966.0,-5042.0,13276.0,-161.0,87.0,24.0,1.0
2022-05-08 18:17:50.107954-07:00,655.4,740.6,784.4,984.2,361.5,319.0,911.8,726.6,3468.6,3461.3,1341.3,781.9,583.5,3473.4,1810.0,947.5,3438.2,3440.7,377.8,302.8,319.7,325.1,303.6,237.8,3468.6,3458.9,468.7,434.1,512.3,1033.2,882.3,498.8,15.0,-24.0,-11.0,11972.0,-4065.0,-1812.0,10262.0,-52.0,-75.0,-57.0,-5.0,-26.0,27.0,7139.0,-4014.0,-5072.0,13252.0,-52.0,-4.0,-39.0,1.0
2022-05-08 18:17:50.227789-07:00,655.4,740.6,784.4,984.2,367.7,316.7,920.3,722.5,3468.6,3461.3,1341.3,781.9,573.8,3462.5,1808.1,950.0,3438.2,3438.2,373.2,305.1,319.7,325.1,303.6,237.8,3457.6,3457.6,471.9,427.8,512.3,1033.2,882.3,498.8,23.0,18.0,-10.0,11990.0,-4033.0,-1846.0,10246.0,11.0,-92.0,-85.0,-2.0,28.0,17.0,7160.0,-4008.0,-5073.0,13243.0,-22.0,-6.0,-61.0,1.0
2022-05-08 18:17:50.229063-07:00,657.0,745.5,784.4,991.9,367.7,316.7,920.3,722.5,3472.2,3468.6,1341.3,786.1,573.8,3462.5,1808.1,950.0,3438.2,3438.2,373.2,305.1,315.9,327.5,297.4,241.6,3457.6,3457.6,471.9,427.8,510.7,1027.1,873.0,505.9,32.0,-9.0,21.0,12005.0,-4024.0,-1888.0,10225.0,-71.0,-49.0,-77.0,28.0,-21.0,62.0,7174.0,-4047.0,-5087.0,13218.0,-99.0,114.0,-35.0,1.0
2022-05-08 18:17:50.257356-07:00,657.0,745.5,784.4,991.9,362.3,332.1,922.8,717.5,3472.2,3468.6,1341.3,786.1,575.4,3462.5,1804.2,944.9,3446.7,3432.2,374.7,305.9,315.9,327.5,297.4,241.6,3458.9,3463.7,469.5,431.7,510.7,1027.1,873.0,505.9,76.0,13.0,51.0,12016.0,-4016.0,-1940.0,10205.0,-64.0,-87.0,-64.0,66.0,27.0,50.0,7189.0,-4096.0,-5095.0,13192.0,-86.0,102.0,-35.0,1.0
2022-05-08 18:17:50.258484-07:00,660.3,750.5,782.7,982.5,362.3,332.1,922.8,717.5,3464.9,3473.4,1346.7,781.1,575.4,3462.5,1804.2,944.9,3446.7,3432.2,374.7,305.9,321.3,325.1,301.3,240.1,3458.9,3463.7,469.5,431.7,508.3,1021.1,873.0,502.0,100.0,107.0,25.0,12011.0,-4055.0,-2001.0,10185.0,-420.0,19.0,-98.0,117.0,57.0,25.0,7194.0,-4201.0,-5112.0,13149.0,-402.0,416.0,33.0,1.0
2022-05-08 18:17:50.259118-07:00,660.3,750.5,782.7,982.5,362.3,332.1,922.8,717.5,3464.9,3473.4,1346.7,781.1,575.4,3462.5,1804.2,944.9,3446.7,3432.2,374.7,305.9,321.3,325.1,301.3,240.1,3458.9,3463.7,469.5,431.7,508.3,1021.1,873.0,502.0,100.0,107.0,25.0,12011.0,-4055.0,-2001.0,10185.0,-420.0,19.0,-98.0,117.0,57.0,25.0,7194.0,-4201.0,-5112.0,13149.0,-402.0,416.0,33.0,1.0
2022-05-08 18:17:50.259871-07:00,654.6,771.1,781.9,984.2,359.2,319.0,917.7,710.1,3473.4,3468.6,1316.9,781.1,577.8,3460.1,1808.1,949.2,3434.6,3437.0,373.2,313.6,315.1,322.8,301.3,240.1,3460.1,3469.8,473.5,434.1,509.9,1026.3,870.5,498.8,70.0,195.0,-21.0,12004.0,-4390.0,-2388.0,9968.0,-1266.0,-19.0,-367.0,49.0,130.0,74.0,7206.0,-4776.0,-5380.0,12836.0,-1196.0,582.0,-47.0,1.0
2022-05-08 18:17:50.260390-07:00,654.6,771.1,781.9,984.2,359.2,319.0,917.7,710.1,3473.4,3468.6,1316.9,781.1,577.8,3460.1,1808.1,949.2,3434.6,3437.0,373.2,313.6,315.1,322.8,301.3,240.1,3460.1,3469.8,473.5,434.1,509.9,1026.3,870.5,498.8,70.0,195.0,-21.0,12004.0,-4390.0,-2388.0,9968.0,-1266.0,-19.0,-367.0,49.0,130.0,74.0,7206.0,-4776.0,-5380.0,12836.0,-1196.0,582.0,-47.0,1.0
2022-05-08 18:17:50.317260-07:00,653.0,791.0,781.9,987.6,357.6,321.3,921.1,701.9,3466.1,3457.6,1340.4,784.4,581.8,3466.1,1802.3,944.1,3443.1,3440.7,375.5,305.1,324.4,325.9,301.3,236.3,3457.6,3461.3,473.5,437.2,516.3,1020.2,869.6,490.9,22.0,181.0,-194.0,11653.0,-6122.0,-3685.0,9032.0,-4271.0,1155.0,-994.0,-56.0,121.0,-221.0,6823.0,-6485.0,-6597.0,11675.0,-3802.0,1910.0,91.0,1.0
2022-05-08 18:17:50.347244-07:00,657.9,791.0,781.9,987.6,363.1,326.7,933.9,701.9,3468.6,3457.6,1340.4,784.4,579.4,3468.6,1941.0,944.1,3443.1,3450.4,380.2,305.9,324.4,325.9,301.3,240.9,3457.6,3455.2,471.9,429.4,516.3,1020.2,869.6,498.0,-20.0,67.0,-300.0,11202.0,-7731.0,-4510.0,7929.0,-4993.0,1751.0,-1252.0,-177.0,65.0,-78.0,6329.0,-7939.0,-7654.0,10332.0,-5417.0,2098.0,-207.0,1.0
2022-05-08 18:17:50.677271-07:00,657.9,811.0,769.5,985.9,363.1,326.7,933.9,701.9,3468.6,3469.8,1468.1,790.2,579.4,3468.6,1941.0,944.9,3441.9,3450.4,380.2,305.9,314.4,328.2,305.1,240.9,3466.1,3455.2,471.9,429.4,508.3,1047.0,900.8,498.0,-15.0,-140.0,-381.0,10520.0,-9387.0,-5257.0,6481.0,-5110.0,1646.0,-1373.0,-10.0,25.0,-162.0,5557.0,-8868.0,-8714.0,9109.0,-3705.0,-973.0,-516.0,1.0
2022-05-08 18:17:50.678591-07:00,661.1,811.0,769.5,985.9,361.5,329.8,959.4,701.9,3463.7,3469.8,1468.1,790.2,583.5,3469.8,2199.3,944.9,3441.9,3451.6,380.2,308.2,314.4,328.2,305.1,241.6,3466.1,3452.8,483.0,438.0,508.3,1047.0,900.8,497.2,-188.0,-444.0,-46.0,9665.0,-10627.0,-6018.0,5086.0,-4174.0,881.0,-1349.0,-84.0,-175.0,-5.0,4566.0,-9521.0,-9870.0,7716.0,-4939.0,660.0,-438.0,1.0
2022-05-08 18:17:50.679489-07:00,661.1,825.2,776.1,983.3,361.5,329.8,959.4,704.4,3463.7,3478.3,1521.8,789.4,583.5,3469.8,2199.3,951.7,3449.1,3451.6,380.2,308.2,321.3,330.5,336.7,241.6,3458.9,3452.8,483.0,438.0,519.5,1049.6,930.5,497.2,38.0,-261.0,-121.0,9225.0,-11095.0,-6365.0,4442.0,-513.0,356.0,-13.0,-48.0,-47.0,-179.0,4116.0,-9881.0,-10425.0,6722.0,-1466.0,798.0,-228.0,1.0
2022-05-08 18:17:50.680749-07:00,670.9,825.2,776.1,983.3,354.5,337.5,967.9,704.4,3471.0,3478.3,1521.8,789.4,579.4,3478.3,2035.4,951.7,3449.1,3441.9,380.2,307.4,321.3,330.5,336.7,236.3,3458.9,3461.3,490.9,439.6,519.5,1049.6,930.5,499.6,10.0,-70.0,-83.0,9263.0,-11174.0,-6202.0,4394.0,509.0,148.0,522.0,-11.0,-35.0,-22.0,4238.0,-9922.0,-10407.0,6612.0,477.0,128.0,-30.0,1.0
2022-05-08 18:17:50.707220-07:00,670.9,837.7,767.0,985.9,354.5,337.5,955.1,699.5,3471.0,3464.9,1470.0,783.6,579.4,3478.3,1794.5,933.0,3449.1,3458.9,380.2,307.4,311.3,327.5,339.8,236.3,3458.9,3451.6,490.9,439.6,512.3,1028.8,864.6,499.6,28.0,-9.0,-18.0,9417.0,-11094.0,-5937.0,4628.0,921.0,7.0,589.0,0.0,2.0,-29.0,4446.0,-9769.0,-10274.0,6905.0,1155.0,-329.0,-108.0,1.0
2022-05-08 18:17:50.708889-07:00,670.9,827.7,767.0,985.9,363.8,324.4,955.1,699.5,3471.0,3467.4,1470.0,783.6,578.6,3458.9,1794.5,933.0,3449.1,3458.9,377.0,303.6,311.3,327.5,335.2,239.3,3458.9,3451.6,491.7,438.8,512.3,1028.8,816.0,496.4,3.0,10.0,-4.0,9686.0,-10889.0,-5607.0,4960.0,1340.0,7.0,586.0,3.0,-15.0,7.0,4745.0,-9538.0,-10064.0,7326.0,1433.0,-124.0,-16.0,1.0
2022-05-08 18:17:50.709470-07:00,670.9,827.7,767.0,985.9,363.8,324.4,955.1,699.5,3471.0,3467.4,1470.0,783.6,578.6,3458.9,1794.5,933.0,3449.1,3458.9,377.0,303.6,311.3,327.5,335.2,239.3,3458.9,3451.6,491.7,438.8,512.3,1028.8,816.0,496.4,3.0,10.0,-4.0,9686.0,-10889.0,-5607.0,4960.0,1340.0,7.0,586.0,3.0,-15.0,7.0,4745.0,-9538.0,-10064.0,7326.0,1433.0,-124.0,-16.0,1.0
2022-05-08 18:17:50.767274-07:00,679.1,821.0,749.6,985.0,361.5,327.5,944.1,697.9,3462.5,3467.4,1426.8,789.4,579.4,3467.4,1709.1,931.3,3439.5,3446.7,377.0,307.4,315.9,325.1,327.5,231.7,3455.2,3460.1,492.5,434.1,512.3,1007.3,797.7,488.5,-16.0,17.0,53.0,9981.0,-10560.0,-5268.0,5436.0,227.0,-133.0,127.0,0.0,3.0,45.0,5038.0,-9148.0,-9832.0,7918.0,350.0,-311.0,-108.0,1.0
2022-05-08 18:17:50.886955-07:00,679.1,821.0,749.6,979.9,361.5,327.5,948.3,693.8,3462.5,3467.4,1416.7,782.7,579.4,3467.4,1671.0,929.6,3444.3,3450.4,377.0,307.4,315.9,325.1,327.5,231.7,3456.4,3457.6,492.5,434.1,502.0,1005.6,797.7,488.5,-10.0,-22.0,41.0,10008.0,-10515.0,-5226.0,5514.0,195.0,-10.0,144.0,-1.0,-18.0,11.0,5077.0,-9101.0,-9809.0,7976.0,119.0,90.0,19.0,1.0
2022-05-08 18:17:50.888000-07:00,657.0,822.7,749.6,979.9,361.5,325.9,948.3,693.8,3466.1,3457.6,1416.7,782.7,579.4,3466.1,1671.0,929.6,3444.3,3450.4,377.0,309.0,315.9,325.1,324.4,241.6,3456.4,3457.6,493.2,434.1,502.0,1005.6,795.2,494.8,6.0,34.0,0.0,10027.0,-10508.0,-5153.0,5561.0,70.0,73.0,134.0,-10.0,18.0,6.0,5119.0,-9148.0,-9755.0,7961.0,3.0,146.0,77.0,1.0
2022-05-08 18:17:50.890254-07:00,657.0,822.7,744.7,982.5,361.5,322.1,946.6,695.4,3466.1,3457.6,1404.0,783.6,579.4,3471.0,1647.3,919.4,3437.0,3441.9,376.3,309.0,312.8,328.2,324.4,241.6,3455.2,3462.5,488.5,434.1,503.6,992.7,795.2,494.8,-12.0,-2.0,1.0,10014.0,-10537.0,-5121.0,5560.0,-56.0,32.0,44.0,-6.0,-7.0,0.0,5112.0,-9193.0,-9746.0,7926.0,-94.0,106.0,49.0,1.0
2022-05-08 18:17:50.947216-07:00,671.7,830.2,743.0,982.5,362.3,322.1,946.6,695.4,3466.1,3468.6,1398.5,783.6,576.2,3471.0,1647.3,919.4,3437.0,3441.9,376.3,305.9,312.8,322.8,323.6,241.6,3455.2,3462.5,488.5,434.1,503.6,993.6,791.9,490.9,-1.0,2.0,-12.0,10009.0,-10540.0,-5120.0,5564.0,10.0,-18.0,-11.0,-25.0,9.0,-4.0,5111.0,-9227.0,-9736.0,7898.0,-26.0,7.0,1.0,1.0
2022-05-08 18:17:51.007539-07:00,671.7,830.2,743.0,985.0,362.3,326.7,938.1,692.1,3466.1,3468.6,1398.5,781.9,576.2,3472.2,1632.2,918.6,3449.1,3444.3,377.0,305.9,318.2,322.8,323.6,241.6,3457.6,3458.9,494.0,434.1,503.6,993.6,791.9,490.9,-3.0,-13.0,5.0,10003.0,-10532.0,-5134.0,5576.0,28.0,-69.0,8.0,-4.0,-6.0,0.0,5105.0,-9214.0,-9745.0,7906.0,47.0,-52.0,-18.0,1.0
2022-05-08 18:17:51.127285-07:00,673.3,816.0,737.3,985.0,360.7,326.7,938.1,692.1,3472.2,3469.8,1392.1,781.9,577.0,3472.2,1632.2,918.6,3449.1,3444.3,377.0,305.1,318.2,322.8,322.8,235.5,3457.6,3458.9,494.0,432.5,503.6,987.6,785.2,489.3,0.0,4.0,4.0,10019.0,-10500.0,-5131.0,5611.0,127.0,-34.0,16.0,-8.0,2.0,3.0,5117.0,-9198.0,-9733.0,7933.0,120.0,-41.0,-9.0,1.0
2022-05-08 18:17:51.128401-07:00,673.3,816.0,737.3,984.2,360.7,325.1,937.3,697.0,3472.2,3469.8,1392.1,784.4,577.0,3468.6,1627.5,917.7,3444.3,3439.5,377.0,305.1,319.0,322.8,322.8,235.5,3468.6,3468.6,484.5,432.5,504.4,987.6,785.2,489.3,-10.0,-7.0,1.0,10029.0,-10481.0,-5122.0,5637.0,26.0,-45.0,45.0,-10.0,-5.0,2.0,5124.0,-9174.0,-9726.0,7964.0,23.0,-52.0,-17.0,1.0
2022-05-08 18:17:51.130197-07:00,675.8,819.4,738.9,984.2,363.8,325.1,937.3,697.0,3461.3,3466.1,1388.5,784.4,576.2,3468.6,1627.5,917.7,3444.3,3439.5,377.0,309.0,319.0,328.2,319.0,237.1,3468.6,3468.6,484.5,436.4,504.4,990.2,777.8,488.5,-18.0,-6.0,2.0,10026.0,-10474.0,-5106.0,5669.0,68.0,-25.0,72.0,-20.0,-3.0,4.0,5128.0,-9152.0,-9725.0,7988.0,129.0,-31.0,-16.0,1.0
2022-05-08 18:17:51.218037-07:00,675.8,819.4,738.9,982.5,363.8,323.6,923.7,696.2,3461.3,3466.1,1388.5,786.9,576.2,3478.3,1619.9,918.6,3443.1,3429.8,371.6,309.0,315.9,328.2,319.0,237.1,3462.5,3450.4,484.5,436.4,492.5,990.2,777.8,488.5,-12.0,-1.0,-16.0,10044.0,-10446.0,-5073.0,5719.0,158.0,-50.0,78.0,-17.0,0.0,-6.0,5162.0,-9111.0,-9700.0,8042.0,190.0,-112.0,-88.0,1.0
2022-05-08 18:17:51.337418-07:00,670.1,815.2,739.7,979.9,359.2,323.6,923.7,696.2,3472.2,3468.6,1391.2,782.7,581.0,3478.3,1619.9,918.6,3443.1,3429.8,371.6,308.2,320.5,323.6,320.5,237.8,3462.5,3450.4,484.5,433.3,504.4,985.0,771.1,487.7,-2.0,-4.0,0.0,10055.0,-10413.0,-5050.0,5778.0,136.0,-83.0,86.0,-11.0,-5.0,0.0,5182.0,-9027.0,-9697.0,8127.0,257.0,-213.0,-61.0,1.0
2022-05-08 18:17:51.339171-07:00,670.1,815.2,739.7,979.9,359.2,323.6,939.8,691.3,3472.2,3468.6,1391.2,782.7,581.8,3467.4,1610.5,910.1,3451.6,3438.2,378.6,310.5,320.5,323.6,320.5,237.8,3457.6,3460.1,489.3,433.3,504.4,985.0,771.1,487.7,15.0,7.0,10.0,10073.0,-10367.0,-5032.0,5847.0,164.0,-118.0,68.0,11.0,-10.0,5.0,5203.0,-8944.0,-9676.0,8231.0,248.0,-166.0,-39.0,1.0
2022-05-08 18:17:51.340179-07:00,673.3,816.0,730.7,981.6,359.2,323.6,939.8,691.3,3473.4,3462.5,1381.2,777.8,581.8,3467.4,1610.5,910.1,3451.6,3438.2,378.6,310.5,316.7,324.4,322.8,237.8,3457.6,3460.1,489.3,433.3,501.2,985.9,781.9,493.2,4.0,2.0,23.0,10091.0,-10321.0,-5026.0,5902.0,68.0,-78.0,40.0,18.0,-20.0,18.0,5218.0,-8869.0,-9662.0,8318.0,172.0,-170.0,-24.0,1.0
2022-05-08 18:17:51.397299-07:00,673.3,816.0,730.7,981.6,360.7,325.9,936.4,696.2,3473.4,3462.5,1381.2,777.8,579.4,3457.6,1605.8,911.8,3458.9,3449.1,373.2,305.1,316.7,324.4,322.8,237.8,3464.9,3466.1,485.3,438.8,501.2,985.9,781.9,493.2,0.0,13.0,26.0,10088.0,-10302.0,-5029.0,5936.0,7.0,-45.0,33.0,-1.0,0.0,11.0,5213.0,-8842.0,-9657.0,8356.0,17.0,-2.0,31.0,1.0
2022-05-08 18:17:51.457607-07:00,670.9,814.4,735.6,979.9,360.7,325.9,936.4,696.2,3469.8,3467.4,1373.9,782.7,579.4,3457.6,1605.8,911.8,3458.9,3449.1,373.2,305.1,322.8,322.1,319.0,240.1,3464.9,3466.1,485.3,438.8,502.8,979.9,776.9,484.5,-1.0,-1.0,13.0,10090.0,-10299.0,-5028.0,5941.0,-19.0,10.0,-20.0,-9.0,-2.0,6.0,5221.0,-8871.0,-9641.0,8339.0,-53.0,115.0,39.0,1.0
2022-05-08 18:17:51.577347-07:00,670.9,814.4,735.6,979.9,357.6,320.5,932.2,696.2,3469.8,3467.4,1373.9,782.7,588.3,3457.6,1595.5,916.9,3437.0,3449.1,377.0,299.0,322.8,322.1,319.0,240.1,3461.3,3466.1,489.3,437.2,502.8,979.9,776.9,484.5,-10.0,-4.0,-6.0,10093.0,-10303.0,-5025.0,5930.0,-3.0,14.0,2.0,-15.0,-5.0,7.0,5234.0,-8923.0,-9619.0,8301.0,-47.0,180.0,65.0,1.0
2022-05-08 18:17:51.578545-07:00,666.0,809.4,726.6,979.9,357.6,320.5,932.2,696.2,3471.0,3462.5,1373.0,786.9,588.3,3457.6,1595.5,916.9,3437.0,3449.1,377.0,299.0,313.6,325.1,318.2,231.0,3461.3,3466.1,489.3,437.2,502.8,983.3,767.0,486.9,-8.0,-31.0,-14.0,10083.0,-10301.0,-5035.0,5942.0,12.0,-98.0,14.0,-1.0,-26.0,5.0,5251.0,-8983.0,-9584.0,8265.0,1.0,153.0,82.0,1.0
2022-05-08 18:17:51.579338-07:00,670.1,809.4,726.6,979.9,356.8,322.1,929.6,684.0,3473.4,3462.5,1373.0,786.9,579.4,3472.2,1580.5,911.8,3449.1,3449.1,378.6,310.5,313.6,325.1,318.2,244.7,3461.3,3466.1,490.9,436.4,502.8,983.3,767.0,490.1,-101.0,-180.0,-14.0,10110.0,-10184.0,-5041.0,6092.0,659.0,-524.0,177.0,-16.0,-138.0,80.0,5352.0,-9051.0,-9416.0,8320.0,775.0,327.0,404.0,1.0
2022-05-08 18:17:51.637497-07:00,670.1,816.9,729.9,986.7,356.8,322.1,929.6,688.0,3473.4,3464.9,1424.1,782.7,579.4,3472.2,1580.5,916.0,3441.9,3449.1,378.6,310.5,316.7,320.5,321.3,244.7,3456.4,3466.1,490.9,436.4,501.2,985.9,783.6,490.1,52.0,-153.0,-126.0,10295.0,-9653.0,-4985.0,6664.0,1923.0,-1370.0,477.0,-58.0,-100.0,-118.0,5685.0,-8876.0,-8867.0,8872.0,2589.0,-520.0,404.0,1.0
2022-05-08 18:17:51.697903-07:00,666.0,816.9,729.9,986.7,360.0,323.6,927.1,688.0,3467.4,3464.9,1424.1,782.7,586.7,3466.1,1734.9,916.0,3441.9,3445.5,373.2,312.0,316.7,320.5,321.3,236.3,3456.4,3455.2,493.2,429.4,501.2,985.9,783.6,487.7,-25.0,-241.0,-16.0,10622.0,-8845.0,-4737.0,7412.0,2792.0,-956.0,602.0,-86.0,-175.0,2.0,6093.0,-8275.0,-8208.0,9771.0,3119.0,-1163.0,117.0,1.0
2022-05-08 18:17:51.727980-07:00,666.0,801.9,729.9,977.3,360.0,323.6,927.1,692.9,3467.4,3469.8,1513.4,778.6,586.7,3466.1,1734.9,923.7,3440.7,3445.5,373.2,312.0,316.7,328.2,325.9,236.3,3463.7,3455.2,493.2,429.4,499.6,989.3,814.4,487.7,-2.0,-60.0,-122.0,11170.0,-7689.0,-4008.0,8275.0,4032.0,-775.0,1014.0,-149.0,-35.0,44.0,6640.0,-7389.0,-7296.0,10795.0,4351.0,-1070.0,359.0,1.0
2022-05-08 18:17:51.787942-07:00,670.9,801.9,729.9,977.3,357.6,331.3,942.4,692.9,3464.9,3469.8,1513.4,778.6,582.6,3467.4,2151.4,923.7,3440.7,3449.1,373.9,305.1,316.7,328.2,325.9,239.3,3463.7,3455.2,490.1,435.7,499.6,989.3,814.4,478.2,42.0,80.0,-158.0,11647.0,-6486.0,-3041.0,9026.0,3790.0,-152.0,938.0,-57.0,124.0,-199.0,7033.0,-6274.0,-6395.0,11778.0,3657.0,-1340.0,195.0,1.0
2022-05-08 18:17:51.847669-07:00,670.9,791.0,730.7,979.9,357.6,331.3,942.4,691.3,3464.9,3473.4,2094.7,808.5,582.6,3467.4,2151.4,967.9,3449.1,3449.1,373.9,305.1,324.4,325.1,322.8,239.3,3467.4,3455.2,490.1,435.7,505.1,1031.4,965.4,478.2,-47.0,185.0,-93.0,11906.0,-5661.0,-2282.0,9456.0,2005.0,-200.0,583.0,-84.0,162.0,59.0,7210.0,-5556.0,-5708.0,12369.0,1810.0,-713.0,321.0,1.0
2022-05-08 18:17:51.939586-07:00,658.7,791.0,730.7,979.9,360.7,346.8,945.8,691.3,3468.6,3473.4,2094.7,808.5,591.5,3466.1,2282.8,967.9,3449.1,3446.7,371.6,309.0,324.4,325.1,322.8,240.1,3467.4,3466.1,480.6,453.7,505.1,1031.4,965.4,484.5,-60.0,113.0,-39.0,12040.0,-5185.0,-2012.0,9620.0,1034.0,-228.0,-62.0,49.0,175.0,-85.0,7171.0,-5056.0,-5497.0,12698.0,725.0,-723.0,-18.0,1.0
2022-05-08 18:17:51.940438-07:00,658.7,797.7,729.0,984.2,360.7,346.8,941.5,688.0,3468.6,3466.1,2119.9,826.9,591.5,3466.1,2154.4,936.4,3440.7,3439.5,371.6,309.0,315.9,326.7,324.4,240.1,3457.6,3461.3,480.6,453.7,506.7,1097.3,991.9,484.5,41.0,78.0,-6.0,12157.0,-4833.0,-1894.0,9679.0,707.0,-321.0,-191.0,28.0,-1.0,23.0,7145.0,-4803.0,-5348.0,12873.0,540.0,-962.0,199.0,1.0
2022-05-08 18:17:51.997323-07:00,657.0,794.4,729.0,984.2,357.6,345.2,941.5,688.0,3462.5,3466.1,2119.9,826.9,602.8,3478.3,2154.4,936.4,3440.7,3439.5,377.8,309.0,315.9,326.7,318.2,238.6,3457.6,3461.3,479.8,453.0,506.7,1097.3,964.5,484.5,73.0,9.0,1.0,12287.0,-4547.0,-1892.0,9655.0,518.0,-314.0,-264.0,41.0,67.0,33.0,7135.0,-4560.0,-5324.0,12976.0,295.0,-178.0,-18.0,1.0
2022-05-08 18:17:52.027817-07:00,657.0,794.4,729.9,979.9,357.6,345.2,944.1,689.7,3462.5,3466.1,2036.4,835.2,602.8,3478.3,2084.6,927.9,3435.8,3443.1,377.8,309.0,313.6,325.9,318.2,238.6,3461.3,3452.8,479.8,453.0,498.8,1101.7,964.5,484.5,21.0,19.0,27.0,12405.0,-4308.0,-1898.0,9612.0,451.0,-298.0,-379.0,61.0,-25.0,44.0,7124.0,-4425.0,-5298.0,13040.0,195.0,-157.0,-130.0,1.0
2022-05-08 18:17:52.088085-07:00,666.8,793.5,729.9,979.9,361.5,334.4,944.1,689.7,3460.1,3468.6,2036.4,835.2,606.8,3466.1,2084.6,927.9,3435.8,3443.1,375.5,309.0,313.6,325.9,319.0,241.6,3461.3,3452.8,474.3,453.0,498.8,1101.7,950.0,484.5,64.0,47.0,-16.0,12521.0,-4088.0,-1949.0,9547.0,243.0,-201.0,-398.0,55.0,55.0,-41.0,7153.0,-4334.0,-5319.0,13046.0,103.0,210.0,-163.0,1.0
2022-05-08 18:17:52.687664-07:00,666.8,793.5,741.4,979.0,361.5,334.4,946.6,682.3,3460.1,3468.6,1962.8,831.9,606.8,3466.1,2058.4,927.9,3447.9,3437.0,375.5,309.0,319.0,325.9,319.0,241.6,3461.3,3457.6,474.3,453.0,507.5,1093.8,950.0,484.5,42.0,19.0,-31.0,12622.0,-3950.0,-1997.0,9462.0,285.0,-239.0,-287.0,1.0,21.0,-32.0,7195.0,-4321.0,-5313.0,13029.0,-6.0,-101.0,-108.0,1.0
2022-05-08 18:17:52.688783-07:00,651.4,782.7,741.4,979.0,356.1,333.6,946.6,682.3,3454.0,3464.9,1962.8,831.9,602.8,3473.4,2058.4,927.9,3447.9,3437.0,375.5,305.1,319.0,325.9,314.4,234.8,3461.3,3457.6,480.6,455.3,507.5,1093.8,940.7,482.2,61.0,20.0,10.0,12717.0,-3831.0,-2032.0,9377.0,147.0,-21.0,-369.0,0.0,-13.0,-36.0,7225.0,-4305.0,-5335.0,13009.0,-16.0,78.0,-131.0,1.0
2022-05-08 18:17:52.689955-07:00,651.4,782.7,759.6,979.9,356.1,333.6,950.9,687.2,3454.0,3464.9,1893.8,833.6,602.8,3472.2,2067.5,988.5,3443.1,3451.6,378.6,305.1,318.2,321.3,314.4,234.8,3458.9,3463.7,475.8,455.3,513.1,1067.7,940.7,482.2,-19.0,-2.0,-15.0,12809.0,-3755.0,-2009.0,9286.0,281.0,-115.0,-238.0,23.0,-57.0,62.0,7287.0,-4287.0,-5295.0,12997.0,220.0,-63.0,-220.0,1.0
2022-05-08 18:17:52.691190-07:00,659.5,780.3,781.1,979.9,364.6,333.6,950.9,687.2,3452.8,3473.4,1802.3,833.6,599.6,3472.2,2067.5,988.5,3443.1,3451.6,378.6,312.0,318.2,325.9,320.5,237.8,3458.9,3463.7,475.8,464.0,513.1,1054.8,933.0,483.7,55.0,55.0,4.0,12871.0,-3666.0,-2071.0,9222.0,-246.0,-28.0,-320.0,17.0,67.0,-23.0,7340.0,-4271.0,-5324.0,12960.0,-163.0,114.0,-21.0,1.0
2022-05-08 18:17:52.717339-07:00,659.5,780.3,781.1,986.7,364.6,323.6,967.1,705.2,3452.8,3473.4,1802.3,833.6,599.6,3464.9,2030.4,1030.6,3444.3,3434.6,373.2,312.0,315.9,325.9,320.5,237.8,3456.4,3447.9,498.0,464.0,533.8,1054.8,933.0,483.7,-61.0,-38.0,-44.0,12895.0,-3675.0,-2126.0,9172.0,219.0,-264.0,97.0,10.0,27.0,67.0,7357.0,-4271.0,-5339.0,12945.0,48.0,-160.0,-128.0,1.0
2022-05-08 18:17:52.747328-07:00,657.0,767.8,809.4,985.9,360.0,317.4,1025.4,768.7,3462.5,3475.9,1711.9,816.0,592.3,3473.4,1987.5,998.7,3440.7,3449.1,373.2,311.3,312.8,324.4,315.1,240.1,3463.7,3456.4,486.1,447.4,528.2,1049.6,972.2,530.6,39.0,-54.0,-106.0,11368.0,-8592.0,-3805.0,7135.0,-2709.0,801.0,-272.0,-4.0,52.0,-40.0,5540.0,-7431.0,-8550.0,10461.0,-2327.0,471.0,229.0,1.0
2022-05-08 18:17:52.777122-07:00,656.2,762.0,801.0,986.7,360.0,317.4,1025.4,768.7,3468.6,3471.0,1674.8,806.0,592.3,3473.4,1987.5,998.7,3440.7,3449.1,373.2,311.3,318.2,324.4,305.1,238.6,3463.7,3456.4,486.1,447.4,523.4,1052.2,946.6,542.6,-17.0,-109.0,-16.0,10985.0,-9375.0,-3919.0,6673.0,-1455.0,1008.0,-115.0,-19.0,-75.0,11.0,5251.0,-7838.0,-8938.0,9977.0,-1278.0,318.0,-116.0,1.0
2022-05-08 18:17:52.837576-07:00,656.2,762.0,801.0,986.7,360.7,322.8,1006.5,784.4,3468.6,3471.0,1674.8,806.0,589.9,3461.3,1991.5,990.2,3438.2,3446.7,372.4,311.3,318.2,324.4,305.1,238.6,3460.1,3456.4,493.2,449.0,523.4,1052.2,946.6,542.6,-52.0,-128.0,-49.0,10879.0,-9738.0,-3833.0,6368.0,-401.0,675.0,4.0,-46.0,-56.0,24.0,5205.0,-7986.0,-9095.0,9739.0,-296.0,249.0,-103.0,1.0
2022-05-08 18:17:52.897433-07:00,657.9,755.4,805.2,988.5,360.7,322.8,1006.5,791.9,3468.6,3455.2,1613.4,796.9,589.9,3461.3,1991.5,985.9,3441.9,3446.7,372.4,311.3,313.6,325.9,304.3,238.6,3466.1,3456.4,493.2,449.0,529.8,1033.2,921.1,532.2,-30.0,-153.0,-25.0,10924.0,-9823.0,-3554.0,6323.0,554.0,586.0,484.0,-70.0,-74.0,1.0,5319.0,-7957.0,-9036.0,9756.0,682.0,22.0,-123.0,1.0
2022-05-08 18:17:52.927585-07:00,653.0,755.4,805.2,988.5,365.4,321.3,1000.5,791.9,3468.6,3455.2,1613.4,796.9,581.8,3468.6,1966.7,985.9,3441.9,3445.5,378.6,309.0,313.6,325.9,304.3,237.8,3466.1,3457.6,487.7,440.4,529.8,1033.2,921.1,535.4,-68.0,-58.0,-67.0,11092.0,-9705.0,-3077.0,6462.0,1036.0,415.0,745.0,-65.0,-11.0,27.0,5532.0,-7768.0,-8792.0,10010.0,1163.0,-101.0,-59.0,1.0
2022-05-08 18:17:52.987792-07:00,653.0,758.7,797.7,985.9,365.4,321.3,1000.5,788.6,3468.6,3460.1,1588.0,796.9,581.8,3468.6,1966.7,985.0,3450.4,3445.5,378.6,309.0,319.0,327.5,308.2,237.8,3462.5,3457.6,487.7,440.4,532.2,1030.6,917.7,535.4,-9.0,19.0,-49.0,11216.0,-9512.0,-2702.0,6697.0,775.0,86.0,625.0,-83.0,37.0,-56.0,5725.0,-7570.0,-8531.0,10275.0,924.0,-154.0,9.0,1.0
2022-05-08 18:17:53.047348-07:00,653.0,758.7,797.7,985.9,370.8,319.0,998.7,788.6,3457.6,3460.1,1588.0,796.9,575.4,3469.8,1947.9,985.0,3450.4,3444.3,371.6,308.2,319.0,327.5,308.2,237.1,3462.5,3472.2,490.9,435.7,532.2,1030.6,917.7,530.6,-61.0,-44.0,-48.0,11245.0,-9449.0,-2392.0,6855.0,324.0,159.0,574.0,-53.0,-74.0,22.0,5818.0,-7468.0,-8360.0,10437.0,466.0,-75.0,84.0,1.0
2022-05-08 18:17:53.137640-07:00,653.0,765.3,794.4,981.6,370.8,319.0,998.7,786.9,3457.6,3466.1,1552.5,787.7,575.4,3469.8,1947.9,983.3,3449.1,3444.3,371.6,308.2,318.2,321.3,305.9,237.1,3458.9,3472.2,490.9,435.7,530.6,1023.7,910.1,530.6,25.0,7.0,7.0,11190.0,-9448.0,-2244.0,6993.0,38.0,34.0,407.0,8.0,-6.0,-4.0,5811.0,-7429.0,-8280.0,10532.0,160.0,-85.0,114.0,1.0
2022-05-08 18:17:53.138846-07:00,656.2,765.3,794.4,981.6,370.0,324.4,992.7,786.9,3463.7,3466.1,1552.5,787.7,575.4,3472.2,1928.2,983.3,3449.1,3447.9,376.3,308.2,318.2,321.3,305.9,240.1,3458.9,3464.9,489.3,445.1,530.6,1023.7,910.1,523.4,53.0,59.0,7.0,11128.0,-9472.0,-2140.0,7092.0,0.0,27.0,287.0,31.0,21.0,-10.0,5796.0,-7407.0,-8242.0,10586.0,69.0,-87.0,55.0,1.0
2022-05-08 18:17:53.197875-07:00,656.2,757.1,790.2,987.6,370.0,324.4,992.7,776.1,3463.7,3468.6,1534.8,786.9,575.4,3472.2,1928.2,979.9,3446.7,3447.9,376.3,308.2,314.4,320.5,306.7,240.1,3458.9,3464.9,489.3,445.1,531.4,1021.1,894.9,523.4,-10.0,-19.0,21.0,11083.0,-9502.0,-2125.0,7127.0,-84.0,-53.0,75.0,0.0,-24.0,42.0,5777.0,-7405.0,-8261.0,10583.0,-48.0,-28.0,-4.0,1.0
2022-05-08 18:17:53.227646-07:00,656.2,762.9,790.2,987.6,365.4,321.3,991.9,776.1,3475.9,3457.6,1534.8,786.9,577.0,3477.1,1909.5,979.9,3446.7,3439.5,366.9,307.4,314.4,320.5,298.2,242.4,3458.9,3438.2,486.1,438.0,531.4,1021.1,888.2,526.6,-1.0,-4.0,5.0,11081.0,-9482.0,-2097.0,7166.0,114.0,12.0,114.0,-17.0,15.0,16.0,5786.0,-7370.0,-8247.0,10613.0,126.0,-61.0,-10.0,1.0
2022-05-08 18:17:53.347415-07:00,656.2,762.9,788.6,982.5,365.4,321.3,985.0,779.4,3475.9,3457.6,1526.4,782.7,577.0,3477.1,1907.5,974.8,3435.8,3447.9,366.9,307.4,310.5,320.5,298.2,242.4,3468.6,3457.6,486.1,438.0,531.4,1015.1,888.2,526.6,4.0,-2.0,8.0,11068.0,-9478.0,-2061.0,7201.0,-35.0,-6.0,114.0,-17.0,13.0,7.0,5780.0,-7354.0,-8235.0,10636.0,-13.0,-40.0,24.0,1.0
2022-05-08 18:17:53.348839-07:00,649.7,754.6,788.6,982.5,370.8,315.9,985.0,779.4,3463.7,3461.3,1526.4,782.7,582.6,3468.6,1907.5,974.8,3435.8,3447.9,377.8,309.7,310.5,320.5,301.3,244.7,3468.6,3457.6,486.1,441.2,531.4,1015.1,883.9,516.3,5.0,17.0,-8.0,11058.0,-9476.0,-2035.0,7227.0,59.0,-19.0,62.0,6.0,23.0,16.0,5778.0,-7339.0,-8225.0,10655.0,59.0,-32.0,-4.0,1.0
2022-05-08 18:17:53.377351-07:00,649.7,754.6,788.6,992.7,370.8,315.9,983.3,770.3,3463.7,3461.3,1521.8,784.4,582.6,3468.6,1905.6,978.2,3435.8,3452.8,377.8,309.7,312.8,325.9,301.3,244.7,3454.0,3463.7,486.1,441.2,529.0,1012.5,883.9,516.3,11.0,-16.0,15.0,11050.0,-9464.0,-2041.0,7252.0,-11.0,-69.0,20.0,-7.0,-4.0,11.0,5778.0,-7333.0,-8229.0,10656.0,-14.0,-37.0,-19.0,1.0
2022-05-08 18:17:53.467383-07:00,655.4,758.7,788.6,992.7,368.5,312.8,983.3,770.3,3469.8,3460.1,1521.8,784.4,574.6,3469.8,1905.6,978.2,3435.8,3452.8,380.2,309.0,312.8,325.9,302.0,237.8,3454.0,3463.7,486.9,435.7,529.0,1012.5,880.6,534.6,3.0,0.0,10.0,11054.0,-9444.0,-2032.0,7275.0,80.0,-20.0,43.0,1.0,6.0,19.0,5778.0,-7308.0,-8229.0,10674.0,82.0,-53.0,-11.0,1.0
2022-05-08 18:17:53.497406-07:00,655.4,758.7,790.2,987.6,368.5,312.8,978.2,788.6,3469.8,3460.1,1498.6,781.1,574.6,3469.8,1882.0,967.9,3438.2,3445.5,380.2,309.0,317.4,324.4,302.0,237.8,3454.0,3463.7,486.9,435.7,531.4,1008.2,880.6,534.6,-7.0,10.0,1.0,11054.0,-9428.0,-2022.0,7298.0,5.0,-45.0,38.0,-4.0,10.0,25.0,5783.0,-7283.0,-8215.0,10699.0,11.0,-23.0,1.0,1.0
2022-05-08 18:17:53.527405-07:00,653.0,755.4,790.2,987.6,368.5,316.7,978.2,788.6,3468.6,3469.8,1498.6,781.1,574.6,3458.9,1882.0,967.9,3438.2,3445.5,375.5,306.7,317.4,324.4,302.8,242.4,3454.0,3463.7,477.4,432.5,531.4,1008.2,882.3,506.7,13.0,-7.0,19.0,11048.0,-9413.0,-2031.0,7325.0,55.0,-44.0,38.0,-2.0,4.0,11.0,5781.0,-7270.0,-8211.0,10712.0,60.0,-46.0,-13.0,1.0
2022-05-08 18:17:53.677381-07:00,653.0,755.4,786.9,987.6,368.5,311.3,978.2,773.6,3468.6,3469.8,1493.0,781.9,574.6,3466.1,1886.0,971.3,3444.3,3444.3,376.3,306.7,312.0,320.5,302.8,242.4,3458.9,3462.5,482.2,432.5,531.4,1010.8,882.3,506.7,0.0,14.0,4.0,11056.0,-9395.0,-2017.0,7338.0,21.0,-17.0,17.0,0.0,13.0,17.0,5790.0,-7247.0,-8201.0,10730.0,12.0,-11.0,-13.0,1.0
2022-05-08 18:17:53.737614-07:00,664.4,750.5,790.2,987.6,366.2,311.3,978.2,773.6,3463.7,3466.1,1489.3,781.9,577.8,3466.1,1886.0,971.3,3444.3,3444.3,376.3,305.1,312.0,325.9,297.4,236.3,3458.9,3462.5,482.2,437.2,531.4,1004.8,878.0,513.1,11.0,-8.0,14.0,11055.0,-9390.0,-2026.0,7346.0,9.0,-23.0,6.0,-5.0,3.0,13.0,5792.0,-7244.0,-8201.0,10731.0,20.0,-24.0,-10.0,1.0
2022-05-08 18:17:53.739204-07:00,664.4,750.5,790.2,983.3,366.2,314.4,976.5,772.0,3463.7,3466.1,1489.3,774.5,577.8,3469.8,1883.0,974.8,3449.1,3441.9,380.2,305.1,316.7,325.9,297.4,236.3,3457.6,3458.9,482.2,437.2,525.8,1004.8,878.0,513.1,1.0,-6.0,14.0,11059.0,-9383.0,-2018.0,7351.0,40.0,-4.0,30.0,-3.0,2.0,18.0,5796.0,-7232.0,-8192.0,10744.0,52.0,-7.0,-4.0,1.0
2022-05-08 18:17:53.798131-07:00,656.2,745.5,781.1,983.3,370.8,314.4,976.5,772.0,3467.4,3468.6,1470.0,774.5,577.0,3469.8,1883.0,974.8,3449.1,3441.9,380.2,309.7,316.7,317.4,298.2,238.6,3457.6,3458.9,482.2,428.6,525.8,1008.2,869.6,513.1,5.0,13.0,6.0,11064.0,-9372.0,-1999.0,7362.0,4.0,13.0,38.0,2.0,2.0,18.0,5807.0,-7222.0,-8177.0,10756.0,27.0,6.0,-2.0,1.0
2022-05-08 18:17:53.799155-07:00,656.2,745.5,781.1,988.5,370.8,321.3,974.8,772.8,3467.4,3468.6,1470.0,778.6,577.0,3469.8,1881.1,971.3,3451.6,3444.3,375.5,309.7,319.0,317.4,298.2,238.6,3462.5,3454.0,483.7,428.6,524.2,1008.2,869.6,513.1,5.0,2.0,4.0,11058.0,-9374.0,-1994.0,7368.0,16.0,8.0,9.0,-3.0,1.0,14.0,5812.0,-7223.0,-8172.0,10757.0,12.0,14.0,-3.0,1.0
2022-05-08 18:17:53.857403-07:00,657.0,752.1,781.1,988.5,366.9,321.3,974.8,772.8,3469.8,3475.9,1469.0,778.6,575.4,3469.8,1881.1,971.3,3451.6,3444.3,375.5,305.1,319.0,324.4,301.3,238.6,3462.5,3454.0,483.7,429.4,524.2,1009.0,878.9,511.5,4.0,-5.0,11.0,11068.0,-9369.0,-1984.0,7364.0,11.0,34.0,-8.0,-5.0,3.0,15.0,5819.0,-7217.0,-8164.0,10763.0,7.0,6.0,-9.0,1.0
2022-05-08 18:17:53.917978-07:00,657.0,752.1,781.1,991.9,366.9,315.1,975.6,775.3,3469.8,3475.9,1469.0,779.4,579.4,3462.5,1876.2,970.5,3451.6,3444.3,375.5,305.9,312.8,324.4,301.3,238.6,3461.3,3458.9,484.5,432.5,525.0,1009.0,878.9,511.5,5.0,7.0,-2.0,11073.0,-9368.0,-1973.0,7359.0,11.0,5.0,5.0,-3.0,5.0,6.0,5825.0,-7214.0,-8154.0,10769.0,21.0,11.0,2.0,1.0
2022-05-08 18:17:53.977396-07:00,650.5,742.2,784.4,986.7,366.9,315.1,975.6,775.3,3471.0,3472.2,1459.8,781.9,579.4,3462.5,1876.2,970.5,3451.6,3444.3,375.5,305.9,313.6,326.7,297.4,237.8,3461.3,3458.9,484.5,432.5,521.8,1008.2,867.9,510.7,2.0,-2.0,1.0,11076.0,-9367.0,-1976.0,7356.0,5.0,4.0,-18.0,-1.0,5.0,12.0,5831.0,-7216.0,-8151.0,10767.0,-7.0,14.0,-13.0,1.0
2022-05-08 18:17:53.979226-07:00,650.5,742.2,784.4,986.7,372.4,309.0,979.0,776.1,3471.0,3472.2,1459.8,781.9,576.2,3458.9,1869.3,963.7,3443.1,3447.9,373.9,308.2,313.6,326.7,297.4,237.8,3464.9,3460.1,475.0,436.4,521.8,1008.2,867.9,510.7,8.0,-8.0,8.0,11078.0,-9365.0,-1976.0,7355.0,11.0,0.0,1.0,-3.0,-1.0,8.0,5832.0,-7215.0,-8151.0,10767.0,9.0,2.0,-7.0,1.0
2022-05-08 18:17:54.037508-07:00,657.0,749.6,784.4,979.9,372.4,309.0,979.0,776.1,3473.4,3466.1,1469.0,776.9,576.2,3458.9,1869.3,963.7,3443.1,3447.9,373.9,308.2,316.7,322.8,295.9,239.3,3464.9,3460.1,475.0,436.4,521.8,1009.9,872.1,506.7,12.0,1.0,4.0,11079.0,-9361.0,-1979.0,7358.0,12.0,-9.0,-1.0,-1.0,9.0,4.0,5834.0,-7213.0,-8151.0,10768.0,3.0,-6.0,-11.0,1.0
2022-05-08 18:17:54.097553-07:00,657.0,749.6,784.4,979.9,368.5,318.2,971.3,774.5,3473.4,3466.1,1469.0,776.9,572.2,3464.9,1860.6,968.8,3438.2,3434.6,376.3,305.9,316.7,322.8,295.9,239.3,3462.5,3458.9,479.8,430.9,521.8,1009.9,872.1,506.7,-1.0,-13.0,7.0,11081.0,-9358.0,-1977.0,7359.0,13.0,-23.0,22.0,-3.0,-4.0,12.0,5836.0,-7210.0,-8151.0,10769.0,9.0,-10.0,-4.0,1.0
2022-05-08 18:17:54.127518-07:00,653.8,751.3,782.7,985.0,368.5,318.2,971.3,774.5,3467.4,3466.1,1458.0,776.1,572.2,3464.9,1860.6,968.8,3438.2,3434.6,376.3,305.9,313.6,321.3,300.5,235.5,3462.5,3458.9,479.8,430.9,523.4,1003.0,871.3,505.9,8.0,7.0,0.0,11082.0,-9346.0,-1972.0,7374.0,28.0,-19.0,17.0,-1.0,8.0,9.0,5839.0,-7199.0,-8142.0,10780.0,32.0,-18.0,-8.0,1.0
2022-05-08 18:17:54.187567-07:00,653.8,751.3,782.7,985.0,367.7,314.4,969.6,759.6,3467.4,3466.1,1458.0,776.1,573.8,3467.4,1862.5,963.7,3446.7,3432.2,375.5,306.7,313.6,321.3,300.5,235.5,3457.6,3457.6,483.7,429.4,523.4,1003.0,871.3,505.9,0.0,-8.0,10.0,11084.0,-9340.0,-1973.0,7380.0,15.0,-22.0,8.0,-1.0,0.0,18.0,5842.0,-7193.0,-8140.0,10785.0,8.0,-9.0,-9.0,1.0
2022-05-08 18:17:54.217514-07:00,657.0,747.2,781.1,986.7,367.7,314.4,969.6,771.1,3473.4,3472.2,1449.7,777.8,573.8,3467.4,1862.5,966.2,3443.1,3432.2,375.5,306.7,315.9,322.1,299.7,236.3,3469.8,3457.6,483.7,429.4,517.9,1001.3,868.8,512.3,7.0,-1.0,9.0,11086.0,-9329.0,-1967.0,7391.0,26.0,-4.0,29.0,3.0,2.0,6.0,5845.0,-7182.0,-8134.0,10795.0,31.0,-15.0,-3.0,1.0
2022-05-08 18:17:54.277959-07:00,657.0,747.2,781.1,986.7,368.5,316.7,966.2,771.1,3457.6,3472.2,1449.7,777.8,569.8,3467.4,1858.6,966.2,3443.1,3438.2,376.3,307.4,315.9,322.1,299.7,237.8,3469.8,3457.6,482.2,427.0,517.9,1001.3,868.8,510.7,4.0,1.0,8.0,11089.0,-9323.0,-1960.0,7396.0,4.0,2.0,15.0,2.0,4.0,12.0,5847.0,-7176.0,-8130.0,10801.0,2.0,-12.0,0.0,1.0
2022-05-08 18:17:54.367363-07:00,657.0,741.4,781.9,983.3,368.5,316.7,966.2,764.5,3457.6,3468.6,1446.0,781.9,569.8,3467.4,1858.6,968.8,3443.1,3438.2,376.3,307.4,309.7,321.3,296.7,237.8,3454.0,3457.6,482.2,427.0,517.1,997.0,865.4,510.7,6.0,-8.0,5.0,11087.0,-9321.0,-1958.0,7403.0,21.0,-8.0,20.0,-2.0,3.0,8.0,5848.0,-7173.0,-8128.0,10804.0,15.0,-4.0,-4.0,1.0
2022-05-08 18:17:54.427471-07:00,649.7,741.4,781.9,983.3,366.9,315.1,970.5,764.5,3464.9,3468.6,1446.0,781.9,575.4,3474.6,1848.9,968.8,3443.1,3440.7,389.5,304.3,309.7,321.3,296.7,239.3,3454.0,3457.6,481.4,429.4,517.1,997.0,865.4,504.4,5.0,4.0,6.0,11090.0,-9313.0,-1946.0,7412.0,27.0,-5.0,27.0,2.0,7.0,9.0,5850.0,-7160.0,-8120.0,10817.0,33.0,-24.0,-4.0,1.0
2022-05-08 18:17:54.429275-07:00,649.7,750.5,781.1,987.6,366.9,315.1,970.5,774.5,3464.9,3468.6,1440.5,775.3,575.4,3474.6,1848.9,970.5,3440.7,3440.7,389.5,304.3,315.1,322.8,297.4,239.3,3461.3,3457.6,481.4,429.4,521.8,1003.9,863.7,504.4,-3.0,-2.0,-1.0,11092.0,-9301.0,-1934.0,7427.0,51.0,-37.0,57.0,2.0,1.0,15.0,5856.0,-7145.0,-8109.0,10833.0,68.0,-23.0,-1.0,1.0
2022-05-08 18:17:54.517530-07:00,655.4,750.5,781.1,987.6,364.6,315.9,975.6,774.5,3464.9,3468.6,1440.5,775.3,572.2,3462.5,1852.8,970.5,3440.7,3450.4,371.6,304.3,315.1,322.8,297.4,239.3,3461.3,3468.6,481.4,429.4,521.8,1003.9,863.7,507.5,-9.0,-16.0,2.0,11098.0,-9277.0,-1915.0,7453.0,89.0,-11.0,53.0,-3.0,-11.0,16.0,5865.0,-7119.0,-8088.0,10860.0,92.0,-40.0,-9.0,1.0
2022-05-08 18:17:54.519325-07:00,655.4,754.6,782.7,987.6,364.6,315.9,976.5,764.5,3464.9,3468.6,1444.2,773.6,572.2,3462.5,1852.8,968.8,3445.5,3449.1,371.6,304.3,316.7,324.4,296.7,239.3,3452.8,3462.5,481.4,429.4,517.1,1004.8,862.9,507.5,-48.0,-104.0,11.0,11108.0,-9234.0,-1887.0,7497.0,264.0,-134.0,176.0,-28.0,-56.0,48.0,5881.0,-7070.0,-8044.0,10916.0,319.0,-116.0,26.0,1.0
2022-05-08 18:17:54.608042-07:00,657.0,744.7,782.7,987.6,367.7,318.2,976.5,764.5,3464.9,3466.1,1444.2,773.6,577.0,3466.1,1852.8,968.8,3445.5,3449.1,375.5,309.7,316.7,324.4,299.0,234.8,3452.8,3462.5,483.7,427.8,517.1,1004.8,862.9,505.9,-45.0,-159.0,16.0,11165.0,-9037.0,-1776.0,7679.0,1103.0,-436.0,537.0,-64.0,-90.0,47.0,5972.0,-6878.0,-7820.0,11150.0,1282.0,-395.0,70.0,1.0
2022-05-08 18:17:54.637657-07:00,657.0,744.7,782.7,985.0,367.7,318.2,966.2,772.0,3464.9,3466.1,1450.6,778.6,577.0,3466.1,1849.8,964.5,3434.6,3443.1,375.5,309.7,308.2,323.6,299.0,234.8,3456.4,3460.1,483.7,427.8,525.0,992.7,862.9,505.9,-116.0,-4.0,-100.0,11301.0,-8610.0,-1528.0,8016.0,1116.0,-803.0,477.0,-47.0,-68.0,90.0,6107.0,-6553.0,-7411.0,11545.0,1423.0,-333.0,178.0,1.0
2022-05-08 18:17:54.667515-07:00,647.3,745.5,782.7,985.0,366.9,313.6,966.2,772.0,3468.6,3462.5,1450.6,778.6,574.6,3478.3,1849.8,964.5,3434.6,3443.1,380.9,308.2,308.2,323.6,301.3,238.6,3456.4,3460.1,479.8,430.9,525.0,992.7,862.1,515.5,82.0,-99.0,-16.0,11444.0,-7986.0,-1518.0,8450.0,1734.0,-1284.0,654.0,-47.0,108.0,-71.0,6223.0,-6243.0,-7045.0,11878.0,1887.0,-839.0,-3.0,1.0
2022-05-08 18:17:54.727496-07:00,647.3,745.5,782.7,987.6,366.9,313.6,969.6,762.9,3468.6,3462.5,1452.5,785.2,574.6,3478.3,1855.7,962.8,3441.9,3451.6,380.9,308.2,314.4,321.3,301.3,238.6,3462.5,3466.1,479.8,430.9,525.8,996.2,862.1,515.5,-40.0,63.0,-112.0,11570.0,-7265.0,-1189.0,8966.0,1648.0,-786.0,974.0,9.0,31.0,63.0,6371.0,-5701.0,-6529.0,12357.0,1843.0,-392.0,127.0,1.0
2022-05-08 18:17:54.788251-07:00,667.6,742.2,782.7,987.6,364.6,325.1,969.6,762.9,3461.3,3468.6,1452.5,785.2,573.8,3461.3,1855.7,962.8,3441.9,3451.6,378.6,309.0,314.4,321.3,300.5,234.0,3462.5,3466.1,476.6,430.9,525.8,996.2,867.9,520.3,165.0,52.0,-6.0,11644.0,-6483.0,-1009.0,9476.0,1618.0,-1215.0,786.0,-76.0,188.0,-71.0,6530.0,-5184.0,-5986.0,12771.0,1736.0,-1066.0,-136.0,1.0
2022-05-08 18:17:54.847527-07:00,667.6,742.2,772.0,986.7,364.6,325.1,966.2,757.9,3461.3,3468.6,1433.2,777.8,573.8,3461.3,1853.7,959.4,3447.9,3446.7,378.6,309.0,315.1,324.4,300.5,234.0,3469.8,3447.9,476.6,430.9,517.9,996.2,867.9,520.3,-24.0,143.0,-54.0,11643.0,-5922.0,-763.0,9861.0,770.0,-467.0,560.0,-12.0,80.0,118.0,6594.0,-4692.0,-5607.0,13096.0,848.0,-55.0,96.0,1.0
2022-05-08 18:17:54.907436-07:00,657.9,734.8,780.3,986.7,366.9,312.0,966.2,757.9,3478.3,3469.8,1417.6,777.8,577.0,3464.9,1853.7,959.4,3447.9,3446.7,377.8,309.0,315.1,325.9,299.7,237.8,3469.8,3447.9,478.2,432.5,517.9,998.7,867.1,531.4,67.0,19.0,23.0,11616.0,-5546.0,-780.0,10106.0,519.0,-853.0,287.0,10.0,80.0,-38.0,6610.0,-4458.0,-5415.0,13249.0,538.0,-540.0,-45.0,1.0
2022-05-08 18:17:54.997323-07:00,657.9,734.8,780.3,986.7,366.9,318.2,966.2,761.2,3478.3,3469.8,1417.6,767.8,577.0,3471.0,1853.7,957.7,3454.0,3449.1,377.0,309.0,315.1,325.9,299.7,237.8,3458.9,3460.1,476.6,432.5,520.3,998.7,867.1,531.4,10.0,76.0,6.0,11622.0,-5195.0,-719.0,10289.0,825.0,-331.0,225.0,39.0,8.0,44.0,6640.0,-4194.0,-5236.0,13392.0,812.0,-157.0,-44.0,1.0
2022-05-08 18:17:54.998657-07:00,654.6,737.3,781.1,986.7,373.9,318.2,966.2,761.2,3467.4,3458.9,1401.2,767.8,576.2,3471.0,1853.7,957.7,3454.0,3449.1,377.0,305.1,315.1,325.1,297.4,246.2,3458.9,3460.1,476.6,423.1,520.3,998.7,871.3,549.0,78.0,85.0,10.0,11666.0,-4897.0,-714.0,10385.0,23.0,-550.0,-127.0,41.0,101.0,-52.0,6679.0,-4023.0,-5135.0,13464.0,-23.0,-295.0,-99.0,1.0
2022-05-08 18:17:55.267488-07:00,654.6,737.3,781.1,988.5,373.9,311.3,963.7,765.3,3467.4,3458.9,1401.2,769.5,576.2,3463.7,1833.3,967.1,3444.3,3456.4,370.8,305.1,315.1,325.1,297.4,246.2,3461.3,3469.8,480.6,423.1,513.9,998.7,871.3,549.0,40.0,-64.0,47.0,11696.0,-4805.0,-823.0,10386.0,281.0,-71.0,-36.0,32.0,-15.0,67.0,6701.0,-4012.0,-5115.0,13464.0,268.0,83.0,-56.0,1.0
2022-05-08 18:17:55.657394-07:00,653.8,737.3,779.4,988.5,369.3,311.3,963.7,765.3,3464.9,3467.4,1405.8,769.5,577.8,3463.7,1833.3,967.1,3444.3,3456.4,370.8,302.8,315.1,325.9,295.9,237.1,3461.3,3469.8,480.6,432.5,513.9,1010.8,889.8,546.6,15.0,57.0,-26.0,11737.0,-4677.0,-782.0,10401.0,157.0,-262.0,-139.0,34.0,11.0,12.0,6748.0,-3928.0,-5034.0,13495.0,148.0,-8.0,-94.0,1.0
2022-05-08 18:17:55.659132-07:00,653.8,737.3,779.4,985.9,369.3,310.5,962.0,763.7,3464.9,3467.4,1405.8,767.0,577.8,3471.0,1840.1,964.5,3449.1,3454.0,377.8,302.8,315.9,325.9,295.9,237.1,3456.4,3456.4,485.3,432.5,522.6,1010.8,889.8,546.6,47.0,16.0,20.0,11785.0,-4594.0,-854.0,10379.0,0.0,-74.0,-177.0,53.0,13.0,-5.0,6782.0,-3904.0,-5043.0,13482.0,-5.0,115.0,-77.0,1.0
2022-05-08 18:17:56.107619-07:00,652.2,737.3,778.6,984.2,364.6,310.5,962.0,763.7,3466.1,3466.1,1401.2,769.5,575.4,3471.0,1840.1,964.5,3449.1,3454.0,377.8,307.4,316.7,326.7,299.0,239.3,3456.4,3456.4,485.3,433.3,517.9,1017.6,870.5,557.0,28.0,-19.0,0.0,11839.0,-4535.0,-874.0,10341.0,191.0,-129.0,-101.0,25.0,-3.0,11.0,6838.0,-3878.0,-5007.0,13475.0,177.0,-42.0,-97.0,1.0
2022-05-08 18:17:56.110351-07:00,652.2,737.3,778.6,984.2,366.2,308.2,962.0,753.8,3466.1,3466.1,1401.2,769.5,574.6,3466.1,1832.3,961.1,3439.5,3441.9,378.6,304.3,316.7,326.7,299.0,239.3,3457.6,3463.7,478.2,425.5,517.9,1017.6,870.5,557.0,33.0,1.0,-18.0,11882.0,-4444.0,-903.0,10329.0,-7.0,-141.0,-97.0,28.0,30.0,-20.0,6870.0,-3831.0,-5002.0,13474.0,-34.0,-23.0,-72.0,1.0
2022-05-08 18:17:56.198210-07:00,655.4,742.2,789.4,987.6,366.2,308.2,962.0,753.8,3467.4,3469.8,1390.3,768.7,574.6,3466.1,1832.3,961.1,3439.5,3441.9,378.6,304.3,315.1,324.4,299.7,237.1,3457.6,3463.7,478.2,425.5,515.5,1015.9,878.9,570.6,13.0,-26.0,-6.0,11901.0,-4416.0,-969.0,10313.0,-1.0,-112.0,-68.0,-3.0,14.0,6.0,6890.0,-3832.0,-5019.0,13457.0,12.0,-20.0,-59.0,1.0
2022-05-08 18:17:56.258052-07:00,655.4,742.2,789.4,987.6,363.8,309.7,963.7,761.2,3467.4,3469.8,1390.3,768.7,570.6,3468.6,1827.5,960.2,3446.7,3440.7,379.4,309.0,315.1,324.4,299.7,237.1,3456.4,3457.6,470.3,423.1,515.5,1015.9,878.9,570.6,-7.0,-4.0,-20.0,11918.0,-4373.0,-980.0,10311.0,120.0,-74.0,-8.0,-10.0,35.0,30.0,6912.0,-3796.0,-5001.0,13463.0,88.0,-46.0,-37.0,1.0
2022-05-08 18:17:56.288244-07:00,653.0,734.8,776.9,979.9,360.0,312.8,973.9,761.2,3471.0,3473.4,1374.8,763.7,568.2,3464.9,1818.7,955.1,3443.1,3449.1,383.3,307.4,314.4,322.8,294.4,239.3,3455.2,3457.6,474.3,427.8,513.9,1021.9,872.1,575.4,13.0,8.0,-1.0,11947.0,-4236.0,-963.0,10336.0,149.0,-67.0,42.0,0.0,47.0,10.0,7058.0,-3714.0,-4975.0,13419.0,166.0,-65.0,-23.0,1.0
2022-05-08 18:17:56.289309-07:00,653.0,734.8,776.9,979.9,360.0,312.8,973.9,761.2,3471.0,3473.4,1374.8,763.7,568.2,3464.9,1818.7,955.1,3443.1,3449.1,383.3,307.4,314.4,322.8,294.4,239.3,3455.2,3457.6,474.3,427.8,513.9,1021.9,872.1,575.4,13.0,8.0,-1.0,11947.0,-4236.0,-963.0,10336.0,149.0,-67.0,42.0,0.0,47.0,10.0,7058.0,-3714.0,-4975.0,13419.0,166.0,-65.0,-23.0,1.0
2022-05-08 18:17:56.347597-07:00,648.1,747.2,768.7,983.3,359.2,324.4,966.2,751.3,3464.9,3464.9,1364.8,769.5,565.8,3457.6,1780.1,958.5,3443.1,3454.0,377.0,309.0,313.6,325.1,296.7,236.3,3461.3,3478.3,467.1,426.2,512.3,1020.2,862.1,550.6,101.0,92.0,86.0,11860.0,-4478.0,-1148.0,10315.0,-295.0,54.0,-37.0,162.0,27.0,69.0,7111.0,-4209.0,-5003.0,13234.0,-274.0,339.0,18.0,1.0
2022-05-08 18:17:56.348984-07:00,652.2,765.3,771.1,983.3,364.6,324.4,966.2,751.3,3468.6,3467.4,1374.8,769.5,569.8,3457.6,1780.1,958.5,3443.1,3454.0,377.0,303.6,313.6,330.5,294.4,236.3,3461.3,3478.3,467.1,423.1,512.3,1025.4,862.1,555.4,107.0,189.0,40.0,11841.0,-4654.0,-1294.0,10242.0,-738.0,106.0,-253.0,134.0,128.0,15.0,7135.0,-4476.0,-5076.0,13104.0,-640.0,647.0,-63.0,1.0
2022-05-08 18:17:56.349896-07:00,652.2,765.3,771.1,979.0,364.6,321.3,972.2,738.1,3468.6,3467.4,1374.8,764.5,569.8,3469.8,1756.0,961.1,3450.4,3438.2,370.0,303.6,316.7,330.5,294.4,236.3,3462.5,3468.6,477.4,423.1,519.5,1025.4,862.1,555.4,63.0,282.0,-78.0,11789.0,-5037.0,-1569.0,10081.0,-1451.0,173.0,-321.0,108.0,224.0,6.0,7190.0,-4953.0,-5266.0,12825.0,-1397.0,1074.0,-254.0,1.0
2022-05-08 18:17:56.378165-07:00,655.4,781.9,764.5,979.0,359.2,321.3,972.2,738.1,3472.2,3463.7,1464.4,764.5,572.2,3469.8,1756.0,961.1,3450.4,3438.2,370.0,308.2,316.7,324.4,293.6,237.8,3462.5,3468.6,477.4,427.0,519.5,1022.8,856.2,549.0,134.0,216.0,-102.0,11617.0,-5826.0,-2249.0,9721.0,-3125.0,483.0,-1082.0,64.0,181.0,-154.0,7171.0,-5738.0,-5823.0,12255.0,-3385.0,1427.0,-471.0,1.0
2022-05-08 18:17:56.379163-07:00,655.4,781.9,764.5,978.2,359.2,317.4,979.9,734.8,3472.2,3463.7,1464.4,764.5,572.2,3457.6,1810.0,958.5,3447.9,3434.6,376.3,308.2,318.2,324.4,293.6,237.8,3468.6,3462.5,475.0,427.0,509.9,1022.8,856.2,549.0,49.0,97.0,-198.0,11318.0,-7211.0,-3134.0,8861.0,-4575.0,1445.0,-1400.0,-67.0,136.0,-118.0,6846.0,-6938.0,-6959.0,11181.0,-5027.0,1327.0,-467.0,1.0
2022-05-08 18:17:56.437618-07:00,653.0,798.5,755.4,978.2,360.0,317.4,979.9,734.8,3464.9,3466.1,1583.3,764.5,569.8,3457.6,1810.0,958.5,3447.9,3434.6,376.3,305.9,318.2,322.1,305.9,244.7,3468.6,3462.5,475.0,426.2,509.9,1015.9,858.7,549.0,-12.0,-114.0,-257.0,10713.0,-8896.0,-4126.0,7583.0,-5344.0,1539.0,-1690.0,-131.0,-113.0,-177.0,6219.0,-8109.0,-8121.0,9903.0,-4782.0,1241.0,-54.0,1.0
2022-05-08 18:17:56.468098-07:00,653.0,798.5,755.4,981.6,360.0,332.1,997.0,737.3,3464.9,3466.1,1583.3,772.0,569.8,3475.9,2149.3,959.4,3440.7,3451.6,375.5,305.9,316.7,322.1,305.9,244.7,3469.8,3467.4,479.8,426.2,509.1,1015.9,858.7,549.0,-145.0,-336.0,-125.0,9865.0,-10353.0,-5131.0,6132.0,-5007.0,1201.0,-1592.0,-213.0,-142.0,-108.0,5301.0,-8969.0,-9202.0,8672.0,-5062.0,884.0,-3.0,1.0
2022-05-08 18:17:56.678329-07:00,661.9,797.7,759.6,979.9,360.7,332.1,997.0,737.3,3466.1,3474.6,1560.9,778.6,577.0,3475.9,2149.3,959.4,3440.7,3451.6,375.5,307.4,315.9,323.6,328.2,236.3,3469.8,3467.4,479.8,437.2,510.7,1029.7,916.0,544.2,-48.0,-119.0,-110.0,9187.0,-11246.0,-5685.0,5024.0,-2589.0,1049.0,-755.0,-83.0,-48.0,-41.0,4593.0,-9819.0,-9768.0,7450.0,-3018.0,1116.0,412.0,1.0
2022-05-08 18:17:56.679400-07:00,661.9,797.7,759.6,979.9,364.6,323.6,997.0,738.1,3466.1,3474.6,1560.9,778.6,571.4,3473.4,2054.4,956.0,3446.7,3435.8,374.7,305.9,315.9,323.6,328.2,236.3,3468.6,3468.6,491.7,429.4,510.7,1029.7,916.0,544.2,-29.0,-82.0,-10.0,8800.0,-11741.0,-5868.0,4324.0,-1446.0,718.0,-413.0,7.0,-98.0,33.0,4152.0,-10287.0,-10018.0,6709.0,-1596.0,589.0,200.0,1.0
2022-05-08 18:17:56.680333-07:00,665.2,806.0,749.6,979.9,364.6,323.6,997.0,738.1,3480.7,3466.1,1489.3,776.1,571.4,3473.4,2054.4,956.0,3446.7,3435.8,374.7,305.9,315.9,320.5,328.2,237.1,3468.6,3468.6,491.7,429.4,509.9,1005.6,856.2,537.0,50.0,-66.0,-37.0,8730.0,-11880.0,-5880.0,4064.0,-29.0,318.0,-3.0,0.0,-15.0,-22.0,4047.0,-10432.0,-10099.0,6422.0,-234.0,198.0,-68.0,1.0
2022-05-08 18:17:56.682564-07:00,665.2,806.0,749.6,979.9,360.7,324.4,989.3,734.0,3480.7,3466.1,1489.3,776.1,566.6,3467.4,1812.9,947.5,3438.2,3450.4,377.8,306.7,315.9,320.5,328.2,237.1,3468.6,3466.1,516.3,423.1,509.9,1005.6,856.2,537.0,-13.0,-62.0,-8.0,8817.0,-11895.0,-5751.0,4017.0,218.0,261.0,165.0,5.0,-64.0,-6.0,4093.0,-10401.0,-10100.0,6441.0,261.0,-67.0,-35.0,1.0
2022-05-08 18:17:56.888365-07:00,670.1,804.4,737.3,984.2,360.7,324.4,989.3,734.0,3473.4,3469.8,1444.2,775.3,566.6,3467.4,1812.9,947.5,3438.2,3450.4,377.8,306.7,324.4,324.4,327.5,238.6,3468.6,3466.1,516.3,423.1,507.5,997.0,813.5,537.8,6.0,-9.0,-5.0,8921.0,-11842.0,-5633.0,4111.0,460.0,-74.0,263.0,-11.0,4.0,-1.0,4185.0,-10364.0,-10030.0,6551.0,416.0,-43.0,38.0,1.0
2022-05-08 18:17:56.891031-07:00,670.1,804.4,737.3,984.2,362.3,319.0,978.2,728.2,3473.4,3469.8,1444.2,775.3,571.4,3458.9,1718.6,939.8,3438.2,3451.6,377.0,307.4,324.4,324.4,327.5,238.6,3461.3,3458.9,488.5,430.9,507.5,997.0,813.5,537.8,-9.0,-8.0,25.0,9000.0,-11784.0,-5524.0,4250.0,312.0,-75.0,255.0,-10.0,-9.0,3.0,4257.0,-10293.0,-9974.0,6698.0,374.0,-175.0,-11.0,1.0
2022-05-08 18:17:56.917633-07:00,664.4,803.5,730.7,984.2,362.3,319.0,978.2,729.9,3466.1,3467.4,1423.1,773.6,571.4,3458.9,1718.6,928.8,3451.6,3451.6,377.0,307.4,316.7,319.7,319.0,236.3,3462.5,3458.9,488.5,430.9,498.8,999.6,797.7,536.2,-16.0,6.0,27.0,9060.0,-11727.0,-5447.0,4378.0,331.0,-105.0,178.0,-9.0,-6.0,18.0,4318.0,-10224.0,-9930.0,6829.0,348.0,-140.0,-19.0,1.0
2022-05-08 18:17:56.920145-07:00,672.5,803.5,730.7,984.2,361.5,322.8,973.9,729.9,3471.0,3467.4,1423.1,773.6,567.4,3455.2,1692.9,928.8,3451.6,3449.1,373.2,305.9,316.7,319.7,319.0,237.8,3462.5,3457.6,485.3,423.1,498.8,999.6,797.7,534.6,0.0,5.0,31.0,9112.0,-11663.0,-5405.0,4490.0,185.0,-112.0,100.0,-3.0,-12.0,13.0,4352.0,-10169.0,-9907.0,6924.0,222.0,-170.0,-23.0,1.0
2022-05-08 18:17:56.921139-07:00,672.5,805.2,729.0,979.9,361.5,322.8,973.9,723.3,3471.0,3471.0,1421.3,769.5,567.4,3455.2,1692.9,928.8,3438.2,3449.1,373.2,305.9,314.4,323.6,324.4,237.8,3452.8,3457.6,485.3,423.1,497.2,980.7,791.9,534.6,0.0,-10.0,38.0,9144.0,-11616.0,-5379.0,4578.0,151.0,-114.0,97.0,-9.0,-14.0,8.0,4374.0,-10125.0,-9883.0,7008.0,167.0,-90.0,35.0,1.0
2022-05-08 18:17:56.978122-07:00,668.4,805.2,729.0,979.9,360.0,322.8,968.8,723.3,3474.6,3471.0,1421.3,769.5,569.8,3467.4,1667.2,928.8,3438.2,3435.8,376.3,303.6,314.4,323.6,324.4,234.8,3452.8,3463.7,490.1,427.0,497.2,980.7,791.9,535.4,-9.0,7.0,27.0,9184.0,-11576.0,-5335.0,4650.0,141.0,-49.0,104.0,4.0,-8.0,19.0,4391.0,-10099.0,-9849.0,7083.0,129.0,-61.0,49.0,1.0
2022-05-08 18:17:57.127531-07:00,668.4,801.9,726.6,980.7,360.0,322.8,968.8,726.6,3474.6,3467.4,1405.8,768.7,569.8,3467.4,1667.2,933.0,3449.1,3435.8,376.3,303.6,318.2,322.8,320.5,234.8,3463.7,3463.7,490.1,427.0,502.8,979.9,789.4,535.4,0.0,7.0,29.0,9189.0,-11558.0,-5323.0,4699.0,8.0,-68.0,32.0,-6.0,-10.0,23.0,4394.0,-10093.0,-9824.0,7124.0,4.0,-14.0,50.0,1.0
2022-05-08 18:17:57.128813-07:00,673.3,801.9,726.6,980.7,356.1,325.9,957.7,726.6,3473.4,3467.4,1405.8,768.7,571.4,3468.6,1652.0,933.0,3449.1,3435.8,375.5,307.4,318.2,322.8,320.5,239.3,3463.7,3458.9,490.9,430.2,502.8,979.9,789.4,532.2,2.0,0.0,29.0,9197.0,-11547.0,-5316.0,4719.0,8.0,6.0,27.0,11.0,-5.0,16.0,4384.0,-10098.0,-9814.0,7135.0,-21.0,0.0,44.0,1.0
2022-05-08 18:17:57.129713-07:00,673.3,801.9,721.6,980.7,356.1,325.9,957.7,722.5,3473.4,3461.3,1400.3,776.9,571.4,3468.6,1652.0,924.5,3441.9,3435.8,375.5,307.4,311.3,321.3,315.9,239.3,3462.5,3458.9,490.9,430.2,498.8,977.3,777.8,532.2,1.0,-7.0,27.0,9202.0,-11537.0,-5306.0,4743.0,30.0,-27.0,34.0,7.0,-5.0,5.0,4378.0,-10099.0,-9804.0,7154.0,33.0,-19.0,40.0,1.0
2022-05-08 18:17:57.337740-07:00,672.5,797.7,721.6,980.7,359.2,320.5,962.8,722.5,3467.4,3474.6,1400.3,776.9,569.8,3463.7,1634.1,924.5,3441.9,3445.5,376.3,303.6,311.3,321.3,316.7,234.8,3462.5,3461.3,490.1,447.4,498.8,977.3,781.9,534.6,1.0,6.0,19.0,9215.0,-11527.0,-5290.0,4760.0,2.0,4.0,19.0,-5.0,-2.0,4.0,4378.0,-10099.0,-9789.0,7173.0,-2.0,-7.0,37.0,1.0
2022-05-08 18:17:57.339715-07:00,672.5,797.7,723.3,975.6,359.2,320.5,959.4,723.3,3467.4,3474.6,1384.8,767.0,569.8,3463.7,1628.4,919.4,3441.9,3447.9,376.3,303.6,314.4,321.3,316.7,234.8,3456.4,3463.7,490.1,447.4,500.4,972.2,781.9,534.6,-11.0,-3.0,11.0,9212.0,-11537.0,-5282.0,4750.0,-28.0,20.0,10.0,-11.0,-26.0,20.0,4368.0,-10118.0,-9778.0,7167.0,-14.0,6.0,27.0,1.0
2022-05-08 18:17:57.340759-07:00,672.5,800.2,723.3,975.6,362.3,323.6,959.4,723.3,3469.8,3473.4,1384.8,767.0,572.2,3468.6,1628.4,919.4,3441.9,3447.9,378.6,306.7,314.4,321.3,322.1,235.5,3456.4,3463.7,493.2,423.9,500.4,972.2,772.0,530.6,0.0,-4.0,6.0,9210.0,-11536.0,-5281.0,4758.0,29.0,-24.0,7.0,0.0,-13.0,8.0,4365.0,-10125.0,-9768.0,7172.0,22.0,6.0,30.0,1.0
2022-05-08 18:17:57.341645-07:00,672.5,800.2,724.9,973.1,362.3,323.6,960.2,719.2,3469.8,3473.4,1376.6,764.5,572.2,3468.6,1623.7,918.6,3450.4,3447.9,378.6,306.7,321.3,317.4,322.1,235.5,3452.8,3460.1,493.2,423.9,498.8,962.0,772.0,530.6,-19.0,-48.0,6.0,9245.0,-11492.0,-5276.0,4802.0,311.0,-130.0,43.0,-12.0,-52.0,56.0,4395.0,-10111.0,-9738.0,7215.0,250.0,-4.0,26.0,1.0
2022-05-08 18:17:57.367693-07:00,670.1,791.0,724.9,973.1,361.5,323.6,960.2,719.2,3463.7,3464.9,1376.6,764.5,565.0,3471.0,1623.7,918.6,3450.4,3447.9,377.0,309.7,321.3,317.4,315.9,234.8,3452.8,3460.1,483.7,426.2,498.8,962.0,777.8,539.4,-59.0,-178.0,-21.0,9530.0,-11200.0,-5057.0,5157.0,1954.0,-403.0,693.0,-50.0,-132.0,66.0,4681.0,-9928.0,-9515.0,7577.0,2025.0,-286.0,6.0,1.0
2022-05-08 18:17:57.428050-07:00,670.1,791.0,726.6,980.7,361.5,323.6,963.7,718.4,3463.7,3464.9,1377.5,760.4,565.0,3471.0,1783.9,921.1,3445.5,3438.2,377.0,309.7,318.2,322.1,315.9,234.8,3460.1,3468.6,483.7,426.2,496.4,966.2,777.8,539.4,0.0,-173.0,-179.0,10115.0,-10433.0,-4596.0,6013.0,3559.0,-1220.0,986.0,4.0,-182.0,-100.0,5355.0,-9353.0,-8980.0,8465.0,3728.0,-884.0,-321.0,1.0
2022-05-08 18:17:57.457878-07:00,663.6,788.6,728.2,980.7,356.8,316.7,963.7,718.4,3467.4,3475.9,1700.5,760.4,569.0,3467.4,1783.9,921.1,3445.5,3438.2,373.2,304.3,318.2,323.6,320.5,234.8,3460.1,3468.6,490.9,436.4,496.4,985.0,894.1,523.4,0.0,-208.0,-95.0,10774.0,-9291.0,-4016.0,7065.0,3839.0,-1140.0,1111.0,-114.0,-140.0,-106.0,6092.0,-8504.0,-8185.0,9593.0,4168.0,-1013.0,238.0,1.0
2022-05-08 18:17:57.517643-07:00,663.6,788.6,728.2,983.3,356.8,337.5,979.0,724.1,3467.4,3475.9,1700.5,776.1,569.0,3478.3,2374.5,958.5,3438.2,3443.1,375.5,304.3,316.7,323.6,320.5,234.8,3456.4,3458.9,487.7,436.4,498.8,985.0,894.1,523.4,-39.0,-126.0,-68.0,11374.0,-8069.0,-3095.0,8024.0,4185.0,-505.0,1467.0,-78.0,-25.0,-50.0,6653.0,-7517.0,-7281.0,10708.0,3847.0,-1311.0,124.0,1.0
2022-05-08 18:17:57.577610-07:00,654.6,781.1,722.5,983.3,361.5,337.5,979.0,724.1,3467.4,3460.1,2247.6,776.1,591.5,3478.3,2374.5,958.5,3438.2,3443.1,375.5,304.3,316.7,325.1,321.3,241.6,3456.4,3458.9,487.7,445.1,498.8,1115.6,997.0,528.2,-55.0,160.0,-202.0,11811.0,-6809.0,-2121.0,8836.0,3654.0,-816.0,1211.0,-36.0,134.0,-10.0,7062.0,-6431.0,-6325.0,11713.0,3686.0,-1301.0,188.0,1.0
2022-05-08 18:17:57.637784-07:00,654.6,781.1,722.5,976.5,361.5,342.9,996.2,724.1,3467.4,3460.1,2247.6,857.9,591.5,3457.6,2230.1,979.9,3441.9,3440.7,377.8,304.3,315.9,325.1,321.3,241.6,3461.3,3468.6,486.9,445.1,503.6,1115.6,997.0,528.2,-18.0,198.0,-104.0,12006.0,-5727.0,-1830.0,9389.0,1879.0,-1591.0,283.0,-91.0,149.0,-57.0,7246.0,-5600.0,-5693.0,12336.0,1803.0,-1173.0,36.0,1.0
2022-05-08 18:17:57.667680-07:00,663.6,786.9,725.8,976.5,359.2,342.9,996.2,724.1,3466.1,3463.7,2114.9,857.9,606.0,3457.6,2230.1,979.9,3441.9,3440.7,377.8,304.3,315.9,327.5,311.3,237.8,3461.3,3468.6,486.9,443.5,503.6,1103.4,957.7,527.4,100.0,48.0,14.0,12104.0,-4940.0,-1792.0,9711.0,1438.0,-796.0,300.0,52.0,101.0,-155.0,7245.0,-4922.0,-5502.0,12706.0,1214.0,-1189.0,47.0,1.0
2022-05-08 18:17:57.817618-07:00,663.6,786.9,725.8,978.2,359.2,346.8,971.3,711.8,3466.1,3463.7,2114.9,848.6,606.0,3466.1,2117.9,962.0,3446.7,3443.1,376.3,304.3,318.2,327.5,311.3,237.8,3458.9,3457.6,476.6,443.5,501.2,1103.4,957.7,527.4,45.0,78.0,64.0,12204.0,-4419.0,-1586.0,9872.0,1058.0,-387.0,0.0,30.0,-9.0,90.0,7240.0,-4516.0,-5187.0,12989.0,948.0,-493.0,155.0,1.0
2022-05-08 18:17:57.819730-07:00,660.3,791.0,728.2,978.2,357.6,346.8,971.3,711.8,3466.1,3457.6,2102.7,848.6,603.6,3466.1,2117.9,962.0,3446.7,3443.1,376.3,305.1,318.2,323.6,313.6,240.9,3458.9,3457.6,476.6,443.5,501.2,1109.5,967.1,525.8,50.0,79.0,-19.0,12357.0,-4018.0,-1555.0,9858.0,767.0,-527.0,-419.0,61.0,78.0,33.0,7232.0,-4216.0,-5125.0,13119.0,408.0,-221.0,-192.0,1.0
2022-05-08 18:17:57.820834-07:00,660.3,791.0,728.2,975.6,357.6,339.0,970.5,711.8,3466.1,3457.6,2102.7,842.8,601.2,3461.3,2060.5,953.4,3438.2,3447.9,373.2,307.4,317.4,323.6,313.6,240.9,3461.3,3457.6,470.3,451.4,501.2,1109.5,967.1,525.8,15.0,143.0,-67.0,12535.0,-3691.0,-1656.0,9744.0,300.0,-647.0,-673.0,93.0,82.0,88.0,7265.0,-4115.0,-5121.0,13134.0,-115.0,84.0,-124.0,1.0
2022-05-08 18:17:57.907593-07:00,656.2,768.7,754.6,979.9,357.6,339.0,970.5,711.8,3478.3,3467.4,1983.6,834.4,601.2,3461.3,2060.5,953.4,3438.2,3447.9,373.2,307.4,318.2,321.3,317.4,244.7,3461.3,3457.6,470.3,451.4,514.7,1097.3,955.1,525.0,94.0,82.0,-10.0,12733.0,-3288.0,-1894.0,9586.0,526.0,-737.0,-726.0,132.0,154.0,-13.0,7329.0,-4080.0,-5216.0,13072.0,-221.0,-41.0,-466.0,1.0
2022-05-08 18:17:57.910408-07:00,656.2,768.7,754.6,979.9,360.7,342.9,973.9,710.1,3478.3,3467.4,1983.6,834.4,595.5,3466.1,2071.5,954.3,3449.1,3449.1,377.0,305.1,318.2,321.3,317.4,244.7,3462.5,3464.9,475.8,483.7,514.7,1097.3,955.1,525.0,58.0,28.0,-17.0,12864.0,-3039.0,-2138.0,9442.0,-183.0,-618.0,-596.0,25.0,-11.0,-57.0,7430.0,-4180.0,-5206.0,12987.0,-714.0,163.0,-270.0,1.0
2022-05-08 18:17:57.967674-07:00,657.0,767.8,766.2,981.6,360.7,342.9,973.9,710.1,3478.3,3478.3,1771.4,824.4,595.5,3466.1,2071.5,954.3,3449.1,3449.1,377.0,305.1,322.1,323.6,322.1,237.1,3462.5,3464.9,475.8,483.7,524.2,1064.3,950.9,521.0,30.0,-54.0,-38.0,12933.0,-2910.0,-2281.0,9354.0,256.0,-230.0,-143.0,12.0,38.0,-32.0,7490.0,-4198.0,-5218.0,12942.0,197.0,36.0,-82.0,1.0
2022-05-08 18:17:58.027389-07:00,657.0,767.8,766.2,981.6,360.7,341.4,979.0,711.8,3478.3,3478.3,1771.4,824.4,587.5,3469.8,2041.4,989.3,3449.1,3450.4,373.2,307.4,322.1,323.6,322.1,237.1,3466.1,3461.3,471.1,482.2,524.2,1064.3,950.9,521.0,15.0,-18.0,-11.0,12970.0,-2826.0,-2385.0,9303.0,-43.0,-256.0,-290.0,10.0,-12.0,-29.0,7518.0,-4193.0,-5249.0,12915.0,-13.0,-2.0,-201.0,1.0
2022-05-08 18:17:58.057935-07:00,655.4,771.1,781.9,978.2,360.7,341.4,979.0,711.8,3472.2,3467.4,1634.1,813.5,587.5,3469.8,2041.4,989.3,3449.1,3450.4,373.2,307.4,319.7,320.5,321.3,240.1,3466.1,3461.3,471.1,482.2,543.4,1055.6,942.4,519.5,-5.0,-14.0,-5.0,13020.0,-2766.0,-2420.0,9242.0,130.0,-10.0,-82.0,34.0,83.0,36.0,7564.0,-4136.0,-5221.0,12918.0,283.0,-125.0,-47.0,1.0
2022-05-08 18:17:58.178268-07:00,655.4,771.1,781.9,978.2,357.6,338.3,1003.9,752.1,3472.2,3467.4,1634.1,813.5,580.2,3457.6,2004.5,1020.2,3445.5,3447.9,376.3,306.7,319.7,320.5,321.3,240.1,3457.6,3467.4,489.3,490.1,543.4,1055.6,942.4,519.5,95.0,74.0,18.0,12984.0,-2692.0,-2482.0,9298.0,-39.0,-336.0,70.0,61.0,23.0,-57.0,7567.0,-4035.0,-5210.0,12952.0,-153.0,-208.0,-91.0,1.0
2022-05-08 18:17:58.237612-07:00,667.6,769.5,816.9,979.9,357.6,338.3,1003.9,786.9,3468.6,3473.4,1571.1,803.5,580.2,3457.6,2004.5,1015.1,3444.3,3447.9,376.3,306.7,319.7,325.1,319.0,243.2,3463.7,3467.4,489.3,490.1,557.0,1034.9,954.3,527.4,0.0,-12.0,132.0,12971.0,-2760.0,-2530.0,9283.0,-257.0,-47.0,169.0,9.0,-59.0,172.0,7543.0,-4027.0,-5262.0,12947.0,-299.0,-137.0,138.0,1.0
2022-05-08 18:17:58.267686-07:00,659.5,769.5,816.9,979.9,360.7,334.4,1028.0,786.9,3464.9,3473.4,1571.1,803.5,584.3,3464.9,1997.5,1015.1,3444.3,3447.9,380.2,306.7,319.7,325.1,319.0,240.1,3463.7,3462.5,508.3,478.2,557.0,1034.9,954.3,553.8,109.0,56.0,67.0,12912.0,-2829.0,-2553.0,9338.0,-88.0,250.0,164.0,80.0,63.0,-71.0,7489.0,-4050.0,-5305.0,12954.0,-48.0,46.0,100.0,1.0
2022-05-08 18:17:58.269583-07:00,659.5,765.3,798.5,987.6,360.7,334.4,1028.0,792.7,3464.9,3472.2,1567.4,804.4,584.3,3464.9,1997.5,1000.5,3439.5,3447.9,380.2,306.7,315.9,320.5,318.2,240.1,3464.9,3462.5,508.3,478.2,569.0,1043.5,968.8,553.8,25.0,79.0,61.0,12887.0,-3269.0,-2356.0,9281.0,-878.0,1396.0,211.0,86.0,125.0,29.0,7414.0,-4173.0,-5372.0,12931.0,-784.0,247.0,270.0,1.0
2022-05-08 18:17:58.327702-07:00,655.4,765.3,798.5,987.6,380.2,328.2,1041.8,792.7,3472.2,3472.2,1567.4,804.4,578.6,3468.6,2019.4,1000.5,3439.5,3450.4,376.3,305.1,315.9,320.5,318.2,236.3,3464.9,3456.4,510.7,468.7,569.0,1043.5,968.8,563.4,121.0,229.0,-76.0,12658.0,-4129.0,-2183.0,9295.0,-2003.0,1222.0,822.0,21.0,120.0,-133.0,7138.0,-4547.0,-5699.0,12819.0,-1952.0,66.0,764.0,1.0
2022-05-08 18:17:58.388062-07:00,655.4,763.7,782.7,975.6,380.2,328.2,1041.8,776.9,3472.2,3467.4,1591.7,808.5,578.6,3468.6,2019.4,991.0,3441.9,3450.4,376.3,305.1,315.1,323.6,313.6,236.3,3466.1,3456.4,510.7,468.7,550.6,1064.3,996.2,563.4,151.0,118.0,-49.0,12255.0,-5612.0,-2290.0,9029.0,-3672.0,2302.0,442.0,59.0,141.0,-86.0,6637.0,-5239.0,-6498.0,12439.0,-3486.0,737.0,636.0,1.0
2022-05-08 18:17:58.447664-07:00,651.4,763.7,782.7,975.6,370.0,323.6,1019.4,776.9,3473.4,3467.4,1591.7,808.5,580.2,3463.7,2063.5,991.0,3441.9,3440.7,377.0,308.2,315.1,323.6,313.6,241.6,3466.1,3466.1,506.7,464.8,550.6,1064.3,996.2,554.6,8.0,133.0,-147.0,11678.0,-7243.0,-2430.0,8584.0,-3586.0,1621.0,172.0,1.0,125.0,-59.0,6083.0,-6123.0,-7347.0,11830.0,-3223.0,411.0,518.0,1.0
2022-05-08 18:17:58.477603-07:00,651.4,761.2,767.8,977.3,370.0,323.6,1005.6,767.0,3473.4,3468.6,1605.8,797.7,580.2,3463.7,2061.5,978.2,3440.7,3451.6,377.0,308.2,317.4,322.1,312.8,241.6,3455.2,3463.7,506.7,464.8,549.8,1047.0,983.3,554.6,-8.0,37.0,-57.0,11064.0,-8705.0,-2817.0,7894.0,-3495.0,1549.0,-647.0,8.0,-4.0,98.0,5542.0,-6927.0,-8208.0,11062.0,-3189.0,666.0,-147.0,1.0
2022-05-08 18:17:58.507683-07:00,656.2,756.3,767.8,977.3,373.2,323.6,1005.6,767.0,3467.4,3468.6,1605.8,797.7,584.3,3467.4,2061.5,978.2,3440.7,3451.6,378.6,305.9,317.4,322.1,308.2,241.6,3455.2,3463.7,505.1,455.3,549.8,1047.0,966.2,553.0,-29.0,-88.0,-5.0,10694.0,-9507.0,-3128.0,7342.0,-2145.0,902.0,-590.0,-2.0,-100.0,16.0,5164.0,-7487.0,-8859.0,10355.0,-2022.0,563.0,-19.0,1.0
2022-05-08 18:17:58.657655-07:00,656.2,756.3,757.9,978.2,373.2,323.6,997.0,762.0,3467.4,3468.6,1555.3,799.4,584.3,3467.4,2023.4,973.9,3439.5,3451.6,378.6,305.9,314.4,321.3,308.2,241.6,3457.6,3466.1,505.1,455.3,543.4,1042.6,966.2,553.0,-64.0,-145.0,-12.0,10413.0,-10106.0,-3343.0,6834.0,-1054.0,719.0,-405.0,-56.0,-120.0,34.0,4983.0,-7828.0,-9219.0,9866.0,-1101.0,418.0,-43.0,1.0
2022-05-08 18:17:58.661936-07:00,651.4,749.6,757.9,978.2,377.0,321.3,997.0,762.0,3463.7,3466.1,1555.3,799.4,573.8,3467.4,2023.4,973.9,3439.5,3451.6,377.0,310.5,314.4,321.3,306.7,237.1,3457.6,3466.1,506.7,448.2,543.4,1042.6,950.0,541.8,-67.0,-158.0,-20.0,10338.0,-10373.0,-3398.0,6513.0,-321.0,500.0,-171.0,-75.0,-70.0,21.0,4944.0,-7986.0,-9368.0,9615.0,-404.0,270.0,-65.0,1.0
2022-05-08 18:17:58.662939-07:00,651.4,749.6,753.8,976.5,377.0,321.3,991.0,757.1,3463.7,3466.1,1512.5,787.7,573.8,3467.4,1998.5,978.2,3438.2,3444.3,377.0,310.5,319.0,317.4,306.7,237.1,3463.7,3458.9,506.7,448.2,545.8,1034.9,950.0,541.8,-49.0,-102.0,-7.0,10332.0,-10484.0,-3304.0,6392.0,196.0,290.0,224.0,-54.0,-27.0,1.0,4975.0,-8044.0,-9346.0,9573.0,206.0,110.0,70.0,1.0
2022-05-08 18:17:58.717587-07:00,660.3,749.6,753.8,976.5,376.3,320.5,991.0,757.1,3473.4,3464.9,1512.5,787.7,577.0,3467.4,1998.5,978.2,3438.2,3444.3,377.0,305.1,319.0,317.4,309.0,237.1,3463.7,3458.9,498.0,447.4,545.8,1034.9,935.6,540.2,-13.0,68.0,-33.0,10400.0,-10471.0,-3110.0,6400.0,226.0,281.0,217.0,-50.0,65.0,-14.0,5058.0,-8036.0,-9233.0,9645.0,297.0,138.0,58.0,1.0
2022-05-08 18:17:58.777936-07:00,660.3,749.6,743.0,972.2,376.3,322.1,985.9,759.6,3473.4,3464.9,1497.7,787.7,577.0,3468.6,1975.6,975.6,3454.0,3445.5,373.2,305.1,316.7,317.4,309.0,237.1,3458.9,3457.6,501.2,447.4,547.4,1044.4,935.6,540.2,-77.0,38.0,-72.0,10445.0,-10495.0,-2977.0,6350.0,-52.0,217.0,-109.0,-63.0,8.0,28.0,5109.0,-8084.0,-9173.0,9635.0,-50.0,230.0,56.0,1.0
2022-05-08 18:17:58.808220-07:00,654.6,748.0,744.7,972.2,374.7,322.1,985.9,759.6,3469.8,3469.8,1486.6,787.7,572.2,3468.6,1975.6,975.6,3454.0,3445.5,373.2,303.6,316.7,320.5,308.2,236.3,3458.9,3457.6,501.2,449.8,547.4,1024.5,929.6,541.8,4.0,-77.0,9.0,10465.0,-10533.0,-2961.0,6261.0,100.0,267.0,-26.0,-5.0,-12.0,17.0,5130.0,-8142.0,-9142.0,9604.0,77.0,134.0,37.0,1.0
2022-05-08 18:17:58.898233-07:00,654.6,748.0,744.7,977.3,374.7,323.6,979.9,760.4,3469.8,3469.8,1486.6,783.6,572.2,3463.7,1956.8,970.5,3438.2,3441.9,373.2,303.6,318.2,320.5,308.2,236.3,3463.7,3456.4,504.4,449.8,541.0,1024.5,929.6,541.8,31.0,-40.0,2.0,10507.0,-10536.0,-2859.0,6233.0,227.0,136.0,192.0,17.0,-15.0,-7.0,5177.0,-8148.0,-9064.0,9649.0,299.0,15.0,78.0,1.0
2022-05-08 18:17:58.899274-07:00,655.4,748.0,739.7,977.3,377.0,323.6,979.9,760.4,3455.2,3466.1,1476.4,783.6,576.2,3463.7,1956.8,970.5,3438.2,3441.9,373.2,304.3,318.2,323.6,307.4,237.8,3463.7,3456.4,504.4,445.1,541.0,1017.6,911.8,530.6,28.0,22.0,-15.0,10538.0,-10512.0,-2765.0,6265.0,69.0,-12.0,37.0,17.0,3.0,-10.0,5203.0,-8136.0,-9000.0,9704.0,106.0,-19.0,63.0,1.0
2022-05-08 18:17:58.957963-07:00,655.4,748.0,739.7,977.3,377.0,323.6,979.0,757.1,3455.2,3466.1,1476.4,786.1,576.2,3464.9,1939.0,967.1,3449.1,3441.9,374.7,304.3,319.7,323.6,307.4,237.8,3469.8,3456.4,502.8,445.1,541.8,1017.6,911.8,530.6,-4.0,-25.0,6.0,10543.0,-10503.0,-2758.0,6273.0,22.0,-11.0,34.0,5.0,-11.0,19.0,5198.0,-8138.0,-8984.0,9721.0,46.0,-14.0,32.0,1.0
2022-05-08 18:17:59.017582-07:00,655.4,745.5,749.6,977.3,376.3,323.6,979.0,757.1,3466.1,3471.0,1476.4,786.1,577.8,3464.9,1939.0,967.1,3449.1,3441.9,374.7,306.7,319.7,320.5,303.6,239.3,3469.8,3456.4,502.8,445.9,541.8,1016.8,913.5,534.6,-15.0,10.0,12.0,10553.0,-10472.0,-2734.0,6320.0,218.0,-134.0,124.0,-9.0,-2.0,41.0,5219.0,-8104.0,-8932.0,9784.0,292.0,-75.0,23.0,1.0
2022-05-08 18:17:59.077620-07:00,655.4,745.5,749.6,980.7,376.3,324.4,974.8,762.0,3466.1,3471.0,1476.4,780.3,577.8,3479.5,1948.9,967.1,3443.1,3440.7,375.5,306.7,318.2,320.5,303.6,239.3,3463.7,3457.6,501.2,445.9,541.0,1016.8,913.5,534.6,8.0,25.0,20.0,10584.0,-10407.0,-2703.0,6388.0,102.0,-23.0,19.0,0.0,10.0,5.0,5248.0,-8062.0,-8886.0,9845.0,96.0,-16.0,-13.0,1.0
2022-05-08 18:17:59.108315-07:00,652.2,746.3,738.9,980.7,370.0,324.4,974.8,762.0,3462.5,3464.9,1468.1,777.8,576.2,3479.5,1948.9,967.1,3443.1,3440.7,375.5,303.6,311.3,325.1,302.8,237.8,3463.7,3457.6,501.2,443.5,546.6,1018.5,903.4,529.0,3.0,-16.0,36.0,10604.0,-10381.0,-2694.0,6399.0,71.0,-5.0,17.0,3.0,-10.0,19.0,5263.0,-8049.0,-8870.0,9862.0,84.0,-9.0,-1.0,1.0
2022-05-08 18:17:59.167780-07:00,652.2,746.3,738.9,980.7,369.3,320.5,962.8,759.6,3462.5,3464.9,1468.1,777.8,573.8,3460.1,1942.0,964.5,3445.5,3450.4,377.0,305.9,311.3,325.1,302.8,237.8,3457.6,3462.5,503.6,445.9,546.6,1018.5,903.4,529.0,13.0,2.0,17.0,10622.0,-10357.0,-2674.0,6418.0,66.0,-39.0,40.0,-1.0,2.0,15.0,5281.0,-8030.0,-8843.0,9893.0,92.0,-34.0,11.0,1.0
2022-05-08 18:17:59.257590-07:00,661.1,748.8,731.5,977.3,369.3,320.5,962.8,759.6,3473.4,3468.6,1454.3,776.1,573.8,3460.1,1942.0,964.5,3445.5,3450.4,377.0,305.9,311.3,324.4,299.0,241.6,3457.6,3462.5,503.6,445.9,533.8,1023.7,901.7,533.0,0.0,-6.0,13.0,10630.0,-10339.0,-2665.0,6437.0,46.0,-35.0,23.0,4.0,0.0,20.0,5288.0,-8015.0,-8829.0,9914.0,59.0,-31.0,4.0,1.0
2022-05-08 18:17:59.347764-07:00,661.1,748.8,731.5,977.3,377.0,319.0,973.1,755.4,3473.4,3468.6,1454.3,776.1,574.6,3468.6,1933.1,962.8,3439.5,3435.8,370.0,301.3,311.3,324.4,299.0,241.6,3463.7,3464.9,494.8,444.3,533.8,1023.7,901.7,533.0,12.0,8.0,14.0,10643.0,-10310.0,-2660.0,6464.0,95.0,-45.0,17.0,0.0,11.0,6.0,5298.0,-7988.0,-8809.0,9948.0,96.0,-53.0,-6.0,1.0
2022-05-08 18:17:59.377727-07:00,661.1,739.7,732.3,979.0,377.0,319.0,973.1,755.4,3457.6,3472.2,1447.0,778.6,574.6,3468.6,1933.1,962.8,3439.5,3435.8,370.0,301.3,317.4,319.0,303.6,237.8,3463.7,3464.9,494.8,444.3,544.2,1015.9,899.1,524.2,1.0,-16.0,21.0,10651.0,-10292.0,-2657.0,6482.0,-18.0,-28.0,38.0,0.0,-10.0,18.0,5297.0,-7976.0,-8804.0,9963.0,2.0,-15.0,12.0,1.0
2022-05-08 18:17:59.437809-07:00,661.1,739.7,732.3,979.0,370.0,320.5,973.1,757.9,3457.6,3472.2,1447.0,778.6,570.6,3466.1,1919.3,963.7,3441.9,3450.4,379.4,306.7,317.4,319.0,303.6,237.8,3455.2,3468.6,498.0,447.4,544.2,1015.9,899.1,524.2,10.0,1.0,23.0,10652.0,-10276.0,-2650.0,6509.0,113.0,-29.0,35.0,5.0,-6.0,11.0,5303.0,-7960.0,-8792.0,9983.0,117.0,-54.0,-14.0,1.0
2022-05-08 18:17:59.439838-07:00,656.2,741.4,731.5,977.3,370.0,320.5,973.1,755.4,3473.4,3471.0,1441.5,774.5,570.6,3466.1,1919.3,956.8,3449.1,3450.4,379.4,306.7,318.2,316.7,299.7,238.6,3466.1,3468.6,498.0,447.4,537.0,997.0,900.8,525.0,-5.0,-9.0,25.0,10677.0,-10239.0,-2631.0,6534.0,56.0,-30.0,33.0,4.0,-2.0,20.0,5322.0,-7928.0,-8769.0,10019.0,60.0,-10.0,-6.0,1.0
2022-05-08 18:17:59.497704-07:00,655.4,741.4,731.5,977.3,370.0,325.9,970.5,755.4,3456.4,3471.0,1441.5,774.5,573.0,3463.7,1918.3,956.8,3449.1,3440.7,374.7,304.3,318.2,316.7,299.7,239.3,3466.1,3463.7,490.9,444.3,537.0,997.0,900.8,518.7,3.0,11.0,17.0,10682.0,-10222.0,-2621.0,6556.0,33.0,-10.0,18.0,2.0,9.0,18.0,5333.0,-7917.0,-8754.0,10034.0,37.0,-8.0,2.0,1.0
2022-05-08 18:17:59.498988-07:00,655.4,743.0,729.9,985.9,370.0,325.9,970.5,758.7,3456.4,3467.4,1447.0,776.9,573.0,3463.7,1918.3,962.0,3446.7,3440.7,374.7,304.3,305.1,323.6,300.5,239.3,3452.8,3463.7,490.9,444.3,534.6,1007.3,894.9,518.7,-7.0,1.0,9.0,10691.0,-10211.0,-2617.0,6559.0,18.0,-12.0,-21.0,-4.0,0.0,24.0,5338.0,-7913.0,-8748.0,10040.0,17.0,1.0,-12.0,1.0
2022-05-08 18:17:59.558258-07:00,653.0,743.0,729.9,985.9,372.4,317.4,971.3,758.7,3464.9,3467.4,1447.0,776.9,573.0,3472.2,1917.4,962.0,3446.7,3440.7,379.4,304.3,305.1,323.6,300.5,240.1,3452.8,3460.1,499.6,438.0,534.6,1007.3,894.9,521.8,2.0,-8.0,12.0,10699.0,-10197.0,-2625.0,6565.0,-2.0,-34.0,4.0,-1.0,0.0,6.0,5346.0,-7906.0,-8741.0,10047.0,0.0,-9.0,2.0,1.0
2022-05-08 18:17:59.617744-07:00,653.0,743.9,738.9,973.1,372.4,317.4,971.3,750.5,3464.9,3466.1,1433.2,768.7,573.0,3472.2,1917.4,960.2,3449.1,3440.7,379.4,304.3,318.2,322.8,302.8,240.1,3463.7,3460.1,499.6,438.0,538.6,1010.8,895.7,521.8,1.0,-1.0,10.0,10693.0,-10194.0,-2629.0,6576.0,3.0,-28.0,26.0,1.0,0.0,17.0,5343.0,-7904.0,-8740.0,10052.0,16.0,-30.0,6.0,1.0
2022-05-08 18:17:59.647736-07:00,657.0,743.9,738.9,973.1,370.8,318.2,967.9,750.5,3472.2,3466.1,1433.2,768.7,573.0,3473.4,1913.4,960.2,3449.1,3446.7,375.5,306.7,318.2,322.8,302.8,238.6,3463.7,3462.5,495.6,462.4,538.6,1010.8,895.7,521.0,-3.0,2.0,14.0,10693.0,-10184.0,-2632.0,6591.0,44.0,-32.0,5.0,1.0,5.0,19.0,5340.0,-7889.0,-8738.0,10066.0,27.0,-44.0,-9.0,1.0
2022-05-08 18:17:59.707828-07:00,657.0,739.7,729.0,978.2,370.8,318.2,967.9,754.6,3472.2,3467.4,1434.1,764.5,573.0,3473.4,1913.4,956.0,3449.1,3446.7,375.5,306.7,310.5,322.1,302.0,238.6,3461.3,3462.5,495.6,462.4,540.2,1005.6,890.7,521.0,-1.0,-7.0,25.0,10701.0,-10164.0,-2638.0,6608.0,19.0,-45.0,18.0,2.0,-5.0,17.0,5342.0,-7872.0,-8734.0,10082.0,30.0,-22.0,-5.0,1.0
2022-05-08 18:17:59.858457-07:00,653.0,741.4,729.0,978.2,380.9,321.3,967.1,754.6,3472.2,3468.6,1434.1,764.5,567.4,3480.7,1905.6,956.0,3449.1,3446.7,376.3,306.7,310.5,322.1,301.3,234.8,3461.3,3468.6,490.1,445.9,540.2,1005.6,890.7,514.7,-7.0,-15.0,20.0,10704.0,-10146.0,-2633.0,6632.0,79.0,-49.0,57.0,0.0,-7.0,33.0,5353.0,-7855.0,-8718.0,10103.0,96.0,-24.0,1.0,1.0
2022-05-08 18:17:59.859517-07:00,653.0,741.4,734.8,978.2,380.9,321.3,963.7,773.6,3472.2,3468.6,1425.9,772.0,567.4,3480.7,1904.6,956.8,3433.4,3447.9,376.3,306.7,318.2,325.1,301.3,234.8,3458.9,3466.1,490.1,445.9,545.0,1006.5,890.7,514.7,-42.0,-68.0,-16.0,10734.0,-10082.0,-2598.0,6696.0,440.0,-202.0,180.0,-4.0,-41.0,61.0,5413.0,-7791.0,-8641.0,10187.0,500.0,-67.0,-35.0,1.0
2022-05-08 18:17:59.860610-07:00,652.2,739.7,734.8,978.2,370.0,322.1,963.7,773.6,3468.6,3467.4,1425.9,772.0,569.0,3471.0,1904.6,956.8,3433.4,3447.9,377.8,308.2,318.2,325.1,299.7,238.6,3458.9,3466.1,499.6,434.9,545.0,1006.5,903.4,528.2,-118.0,-41.0,-140.0,10861.0,-9773.0,-2561.0,6958.0,1285.0,-1327.0,158.0,-57.0,-94.0,76.0,5613.0,-7570.0,-8388.0,10453.0,1520.0,-325.0,-105.0,1.0
2022-05-08 18:17:59.917818-07:00,652.2,739.7,735.6,979.0,370.0,322.1,966.2,751.3,3468.6,3467.4,1425.9,772.0,569.0,3471.0,1926.2,956.8,3443.1,3447.9,377.8,308.2,318.2,327.5,299.7,238.6,3457.6,3460.1,499.6,434.9,537.8,1007.3,903.4,528.2,53.0,-93.0,3.0,11081.0,-9042.0,-2775.0,7496.0,1435.0,-1882.0,69.0,-60.0,-66.0,-70.0,5880.0,-7093.0,-7999.0,10935.0,1699.0,-676.0,-219.0,1.0
2022-05-08 18:18:00.007634-07:00,657.9,737.3,735.6,979.0,370.8,314.4,966.2,751.3,3457.6,3467.4,1425.9,772.0,571.4,3468.6,1926.2,956.8,3443.1,3447.9,372.4,308.2,318.2,327.5,299.7,236.3,3457.6,3460.1,499.6,434.9,537.8,1007.3,900.0,526.6,-41.0,-185.0,8.0,11233.0,-8279.0,-2879.0,8089.0,1833.0,-1411.0,655.0,-89.0,-107.0,25.0,6067.0,-6610.0,-7606.0,11406.0,1932.0,-761.0,40.0,1.0
2022-05-08 18:18:00.068711-07:00,657.9,737.3,731.5,969.6,370.8,314.4,976.5,742.2,3457.6,3467.4,1437.8,767.8,571.4,3468.6,1916.4,953.4,3447.9,3444.3,372.4,308.2,314.4,316.7,299.7,236.3,3468.6,3468.6,499.6,434.9,530.6,1007.3,900.0,526.6,-61.0,3.0,-55.0,11395.0,-7363.0,-2683.0,8785.0,2403.0,-1646.0,789.0,-76.0,-12.0,59.0,6269.0,-5978.0,-7020.0,12005.0,2576.0,-1002.0,70.0,1.0
