Time,P0,P1,P2,P3,P4,P5,P6,P7,P8,P9,P10,P11,P12,P13,P14,P15,P16,P17,P18,P19,P20,P21,P22,P23,P24,P25,P26,P27,P28,P29,P30,P31,ECG,AX0,AY0,AZ0,QW0,QX0,QY0,QZ0,GX0,GY0,GZ0,AX1,AY1,AZ1,QW1,QX1,QY1,QZ1,GX1,GY1,GZ1
2022-05-08 16:14:57.100991-07:00,821.0,929.6,1280.1,1020.2,716.7,456.1,1414.0,916.0,3477.1,3488.0,668.4,884.8,387.2,3495.3,776.1,728.2,3488.0,3483.2,384.8,580.2,418.4,505.1,244.7,246.2,3484.4,3477.1,573.8,446.7,625.4,1079.0,1167.4,480.6,6.0,1.0,5.0,8666.0,10040.0,8456.0,4585.0,-2.0,7.0,2.0,4.0,-5.0,11.0,5858.0,3811.0,11101.0,9817.0,0.0,3.0,0.0,1.0
2022-05-08 16:14:57.132725-07:00,825.2,933.0,1280.1,1020.2,714.2,456.9,1415.8,916.0,3473.4,3474.6,668.4,884.8,390.3,3499.0,781.9,728.2,3488.0,3483.2,384.0,578.6,418.4,505.1,247.7,248.5,3484.4,3480.7,573.8,445.1,625.4,1079.0,1174.4,478.2,0.0,1.0,-2.0,8666.0,10040.0,8456.0,4585.0,1.0,3.0,-6.0,4.0,-5.0,7.0,5858.0,3811.0,11101.0,9817.0,1.0,8.0,-5.0,1.0
2022-05-08 16:14:57.133702-07:00,825.2,933.0,1286.4,1025.4,714.2,456.9,1409.4,926.2,3473.4,3474.6,671.7,877.2,390.3,3499.0,780.3,722.5,3467.4,3489.2,384.0,578.6,416.8,507.5,247.7,248.5,3469.8,3472.2,573.8,445.1,620.5,1080.8,1174.4,478.2,-5.0,-1.0,0.0,8666.0,10040.0,8456.0,4585.0,-8.0,5.0,5.0,0.0,0.0,2.0,5858.0,3811.0,11101.0,9817.0,-7.0,-3.0,-1.0,1.0
2022-05-08 16:14:57.192358-07:00,828.5,935.6,1286.4,1025.4,711.0,456.1,1409.4,926.2,3471.0,3474.6,671.7,877.2,392.6,3490.5,780.3,722.5,3467.4,3489.2,389.5,581.8,416.8,507.5,250.8,244.7,3469.8,3472.2,573.0,447.4,620.5,1080.8,1179.7,485.3,0.0,5.0,1.0,8667.0,10040.0,8454.0,4588.0,5.0,-3.0,7.0,2.0,-1.0,7.0,5858.0,3810.0,11100.0,9818.0,1.0,0.0,2.0,1.0
2022-05-08 16:14:57.193478-07:00,828.5,935.6,1286.4,1023.7,711.0,456.1,1415.8,920.3,3471.0,3474.6,669.3,887.3,392.6,3490.5,776.1,725.8,3477.1,3481.9,389.5,581.8,414.5,505.9,250.8,244.7,3474.6,3477.1,573.0,447.4,625.4,1079.9,1179.7,485.3,3.0,-3.0,3.0,8667.0,10039.0,8455.0,4587.0,2.0,0.0,-11.0,3.0,-3.0,5.0,5858.0,3810.0,11100.0,9818.0,2.0,6.0,-5.0,1.0
2022-05-08 16:14:57.311043-07:00,825.2,942.4,1286.4,1023.7,716.7,456.1,1415.8,920.3,3471.0,3467.4,669.3,887.3,392.6,3500.2,776.1,725.8,3477.1,3481.9,381.7,579.4,414.5,505.9,248.5,247.0,3474.6,3477.1,576.2,449.0,625.4,1079.9,1170.9,483.0,2.0,0.0,3.0,8667.0,10039.0,8456.0,4587.0,-7.0,6.0,2.0,4.0,-1.0,7.0,5858.0,3810.0,11100.0,9818.0,-2.0,7.0,0.0,1.0
2022-05-08 16:14:57.312525-07:00,825.2,942.4,1282.8,1021.9,716.7,456.1,1399.4,920.3,3471.0,3467.4,662.7,889.8,392.6,3500.2,775.3,722.5,3480.7,3474.6,381.7,579.4,421.5,501.2,248.5,247.0,3483.2,3478.3,576.2,449.0,627.8,1079.9,1170.9,483.0,4.0,0.0,-2.0,8667.0,10039.0,8456.0,4587.0,-5.0,-3.0,-3.0,5.0,0.0,6.0,5858.0,3810.0,11100.0,9818.0,-4.0,-1.0,-1.0,1.0
2022-05-08 16:14:57.341301-07:00,821.9,933.9,1282.8,1021.9,714.2,458.5,1399.4,920.3,3471.0,3474.6,672.5,889.8,391.1,3500.2,775.3,722.5,3480.7,3474.6,386.4,581.8,421.5,501.2,244.7,247.7,3483.2,3478.3,577.8,449.8,627.8,1078.2,1167.4,480.6,-1.0,3.0,0.0,8669.0,10037.0,8455.0,4589.0,-10.0,2.0,-5.0,3.0,4.0,10.0,5859.0,3809.0,11097.0,9821.0,-16.0,-6.0,-3.0,1.0
2022-05-08 16:14:57.401489-07:00,821.9,933.9,1282.8,1025.4,714.2,460.0,1407.6,916.9,3471.0,3474.6,672.5,889.0,391.1,3500.2,774.5,724.1,3478.3,3469.8,387.2,581.8,416.8,501.2,244.7,247.7,3479.5,3467.4,577.8,449.8,624.6,1078.2,1167.4,480.6,-7.0,-5.0,6.0,8672.0,10033.0,8456.0,4590.0,-2.0,2.0,-11.0,0.0,-5.0,12.0,5860.0,3807.0,11094.0,9824.0,-2.0,5.0,-4.0,1.0
2022-05-08 16:14:57.460956-07:00,817.7,933.9,1287.3,1025.4,717.5,460.0,1407.6,916.9,3469.8,3483.2,671.7,889.0,388.7,3500.2,774.5,724.1,3478.3,3469.8,387.2,585.1,416.8,505.9,247.7,249.2,3479.5,3467.4,577.8,449.0,624.6,1081.6,1177.9,476.6,0.0,0.0,2.0,8672.0,10032.0,8457.0,4590.0,0.0,14.0,-1.0,2.0,-3.0,12.0,5860.0,3807.0,11094.0,9824.0,4.0,1.0,0.0,1.0
2022-05-08 16:14:57.490978-07:00,817.7,933.9,1287.3,1021.1,717.5,454.5,1415.8,926.2,3469.8,3483.2,671.7,884.8,388.7,3495.3,776.1,721.6,3477.1,3473.4,389.5,585.1,416.8,505.9,247.7,249.2,3484.4,3477.1,575.4,449.0,627.8,1081.6,1177.9,476.6,0.0,-1.0,0.0,8670.0,10033.0,8458.0,4590.0,-11.0,2.0,-2.0,3.0,-8.0,9.0,5860.0,3808.0,11096.0,9822.0,-2.0,3.0,0.0,1.0
2022-05-08 16:14:57.551717-07:00,823.5,939.0,1281.9,1021.1,711.8,454.5,1415.8,926.2,3478.3,3475.9,669.3,884.8,391.1,3495.3,776.1,721.6,3477.1,3473.4,389.5,581.0,416.8,498.8,247.7,245.4,3484.4,3477.1,575.4,455.3,627.8,1076.4,1166.5,476.6,2.0,6.0,3.0,8672.0,10034.0,8456.0,4587.0,14.0,-15.0,3.0,2.0,-3.0,5.0,5859.0,3809.0,11098.0,9820.0,13.0,7.0,0.0,1.0
2022-05-08 16:14:57.641036-07:00,823.5,939.0,1281.9,1021.9,711.8,456.1,1408.5,924.5,3478.3,3475.9,669.3,892.4,391.1,3491.7,777.8,726.6,3480.7,3479.5,379.4,581.0,416.1,498.8,247.7,245.4,3481.9,3477.1,577.8,455.3,622.2,1076.4,1166.5,476.6,0.0,0.0,4.0,8672.0,10035.0,8456.0,4586.0,7.0,-7.0,7.0,3.0,-3.0,13.0,5859.0,3809.0,11098.0,9820.0,11.0,2.0,2.0,1.0
2022-05-08 16:14:57.642362-07:00,823.5,933.0,1290.0,1027.1,714.2,456.1,1408.5,924.5,3474.6,3471.0,666.0,890.7,393.4,3491.7,777.8,726.6,3480.7,3479.5,379.4,581.0,418.4,498.0,248.5,243.9,3481.9,3477.1,577.8,447.4,620.5,1079.9,1189.4,478.2,1.0,0.0,0.0,8672.0,10035.0,8456.0,4586.0,-9.0,2.0,-1.0,3.0,-2.0,9.0,5859.0,3809.0,11098.0,9820.0,-4.0,0.0,-1.0,1.0
2022-05-08 16:14:57.730998-07:00,823.5,933.0,1290.0,1027.1,719.2,460.0,1404.0,918.6,3474.6,3471.0,666.0,890.7,391.1,3491.7,781.9,725.8,3481.9,3471.0,386.4,581.0,418.4,498.0,248.5,243.9,3486.8,3475.9,576.2,448.2,620.5,1079.9,1189.4,478.2,0.0,-1.0,-1.0,8670.0,10036.0,8457.0,4585.0,7.0,-5.0,-4.0,3.0,-3.0,4.0,5859.0,3809.0,11098.0,9820.0,-2.0,3.0,-4.0,1.0
2022-05-08 16:14:57.790895-07:00,831.9,935.6,1288.2,1024.5,719.2,460.0,1404.0,918.6,3479.5,3471.0,673.3,891.5,391.1,3491.7,781.9,725.8,3481.9,3471.0,386.4,581.0,423.9,500.4,243.9,247.0,3486.8,3475.9,576.2,448.2,623.8,1079.9,1178.8,478.2,1.0,5.0,1.0,8672.0,10035.0,8456.0,4586.0,0.0,-4.0,8.0,3.0,-1.0,4.0,5859.0,3809.0,11098.0,9820.0,-3.0,-4.0,0.0,1.0
2022-05-08 16:14:57.791963-07:00,831.9,935.6,1288.2,1024.5,715.9,461.6,1412.2,926.2,3479.5,3471.0,673.3,891.5,388.7,3491.7,779.4,728.2,3474.6,3480.7,387.9,578.6,423.9,500.4,243.9,247.0,3474.6,3481.9,574.6,450.6,623.8,1079.9,1178.8,478.2,3.0,2.0,4.0,8672.0,10035.0,8455.0,4586.0,0.0,-7.0,-3.0,3.0,0.0,7.0,5859.0,3809.0,11098.0,9820.0,4.0,1.0,-3.0,1.0
2022-05-08 16:14:57.881085-07:00,822.7,937.3,1280.1,1022.8,715.9,461.6,1412.2,926.2,3483.2,3478.3,667.6,889.0,388.7,3491.7,779.4,728.2,3474.6,3480.7,387.9,578.6,421.5,502.8,249.2,245.4,3474.6,3481.9,574.6,450.6,626.2,1076.4,1177.0,477.4,0.0,2.0,0.0,8672.0,10035.0,8455.0,4586.0,0.0,0.0,6.0,5.0,-5.0,7.0,5859.0,3809.0,11098.0,9820.0,7.0,2.0,1.0,1.0
2022-05-08 16:14:57.910879-07:00,822.7,937.3,1280.1,1022.8,712.6,456.1,1419.5,921.1,3483.2,3478.3,667.6,889.0,386.4,3495.3,779.4,724.1,3478.3,3484.4,383.3,577.8,421.5,502.8,249.2,245.4,3472.2,3467.4,573.0,447.4,626.2,1076.4,1177.0,477.4,-1.0,3.0,-1.0,8672.0,10035.0,8455.0,4586.0,-3.0,-7.0,-7.0,2.0,-5.0,9.0,5859.0,3809.0,11098.0,9820.0,-3.0,8.0,0.0,1.0
2022-05-08 16:14:57.972001-07:00,828.5,936.4,1279.2,1020.2,712.6,456.1,1419.5,934.7,3475.9,3473.4,666.8,888.2,386.4,3495.3,779.4,728.2,3478.3,3484.4,383.3,577.8,416.8,498.8,248.5,248.5,3475.9,3467.4,573.0,447.4,623.0,1086.0,1178.8,479.0,0.0,0.0,2.0,8673.0,10036.0,8455.0,4585.0,-3.0,-2.0,-1.0,3.0,-3.0,8.0,5859.0,3809.0,11098.0,9820.0,-5.0,2.0,1.0,1.0
2022-05-08 16:14:58.030658-07:00,822.7,936.4,1279.2,1020.2,713.4,460.0,1415.8,934.7,3479.5,3473.4,666.8,888.2,392.6,3495.3,778.6,728.2,3478.3,3489.2,382.5,578.6,416.8,498.8,248.5,243.9,3475.9,3486.8,577.8,452.2,623.0,1086.0,1178.8,481.4,2.0,0.0,5.0,8673.0,10036.0,8455.0,4585.0,-5.0,4.0,-3.0,4.0,-3.0,12.0,5859.0,3809.0,11098.0,9820.0,-4.0,0.0,-2.0,1.0
2022-05-08 16:14:58.090607-07:00,822.7,932.2,1289.1,1032.3,713.4,460.0,1415.8,922.0,3479.5,3477.1,668.4,888.2,392.6,3495.3,778.6,726.6,3484.4,3489.2,382.5,578.6,422.3,501.2,247.7,243.9,3477.1,3486.8,577.8,452.2,626.2,1080.8,1176.2,481.4,2.0,8.0,0.0,8672.0,10036.0,8455.0,4585.0,9.0,11.0,-5.0,4.0,1.0,10.0,5859.0,3810.0,11099.0,9818.0,11.0,8.0,-1.0,1.0
2022-05-08 16:14:58.091679-07:00,821.0,932.2,1289.1,1032.3,715.1,458.5,1408.5,922.0,3477.1,3477.1,668.4,888.2,388.7,3496.6,777.8,726.6,3484.4,3478.3,386.4,578.6,422.3,501.2,247.7,250.0,3477.1,3479.5,573.0,447.4,626.2,1080.8,1176.2,477.4,2.0,-2.0,-3.0,8673.0,10035.0,8456.0,4583.0,7.0,-11.0,5.0,3.0,-2.0,3.0,5859.0,3810.0,11099.0,9818.0,3.0,-5.0,1.0,1.0
2022-05-08 16:14:58.180884-07:00,821.0,936.4,1287.3,1022.8,715.1,458.5,1408.5,920.3,3477.1,3477.1,661.9,888.2,388.7,3496.6,777.8,723.3,3479.5,3478.3,386.4,578.6,416.1,504.4,245.4,250.0,3480.7,3479.5,573.0,447.4,627.8,1079.9,1181.5,477.4,4.0,-1.0,3.0,8675.0,10034.0,8455.0,4584.0,-7.0,-10.0,6.0,5.0,-10.0,10.0,5859.0,3809.0,11098.0,9820.0,-4.0,-5.0,2.0,1.0
2022-05-08 16:14:58.211572-07:00,817.7,936.4,1287.3,1022.8,715.9,459.3,1413.1,920.3,3471.0,3477.1,661.9,888.2,390.3,3499.0,781.9,723.3,3479.5,3478.3,380.9,583.5,416.1,504.4,245.4,246.2,3480.7,3484.4,577.0,451.4,627.8,1079.9,1181.5,477.4,-2.0,-1.0,5.0,8676.0,10034.0,8455.0,4582.0,-8.0,-8.0,-9.0,1.0,-4.0,13.0,5859.0,3809.0,11098.0,9820.0,-6.0,2.0,-2.0,1.0
2022-05-08 16:14:58.301092-07:00,817.7,930.5,1280.1,1018.5,715.9,459.3,1406.7,921.1,3471.0,3478.3,664.4,888.2,390.3,3499.0,781.9,723.3,3483.2,3477.1,380.9,583.5,416.1,498.8,245.4,246.2,3478.3,3479.5,577.0,451.4,620.5,1084.2,1174.4,477.4,3.0,3.0,4.0,8675.0,10034.0,8456.0,4583.0,0.0,14.0,3.0,3.0,0.0,7.0,5859.0,3809.0,11098.0,9820.0,1.0,-1.0,-2.0,1.0
2022-05-08 16:14:58.302052-07:00,823.5,940.7,1280.1,1018.5,715.1,461.6,1406.7,921.1,3469.8,3475.9,664.4,888.2,387.2,3502.7,781.9,723.3,3483.2,3477.1,386.4,577.0,416.1,498.8,247.0,247.7,3478.3,3479.5,574.6,446.7,620.5,1084.2,1174.4,478.2,2.0,1.0,-4.0,8673.0,10033.0,8458.0,4585.0,9.0,-1.0,2.0,3.0,-1.0,9.0,5859.0,3809.0,11098.0,9820.0,8.0,4.0,-2.0,1.0
2022-05-08 16:14:58.361299-07:00,823.5,940.7,1279.2,1021.9,715.1,461.6,1413.1,916.0,3469.8,3475.9,670.1,889.8,387.2,3502.7,774.5,734.0,3477.1,3485.6,386.4,577.0,418.4,505.9,247.0,247.7,3473.4,3488.0,574.6,446.7,623.8,1076.4,1174.4,478.2,1.0,1.0,0.0,8673.0,10033.0,8458.0,4585.0,-8.0,-8.0,-1.0,4.0,-6.0,7.0,5859.0,3809.0,11098.0,9820.0,-4.0,0.0,0.0,1.0
2022-05-08 16:14:58.420898-07:00,823.5,939.8,1279.2,1021.9,712.6,460.0,1413.1,916.0,3477.1,3488.0,670.1,889.8,393.4,3497.8,774.5,734.0,3477.1,3485.6,387.2,583.5,418.4,505.9,247.7,248.5,3473.4,3488.0,570.6,441.9,623.8,1076.4,1177.0,481.4,3.0,9.0,4.0,8673.0,10033.0,8458.0,4585.0,0.0,2.0,1.0,5.0,3.0,15.0,5859.0,3809.0,11098.0,9820.0,-3.0,-4.0,0.0,1.0
2022-05-08 16:14:58.451259-07:00,823.5,939.8,1281.0,1035.7,712.6,460.0,1406.7,916.9,3477.1,3488.0,669.3,889.0,393.4,3497.8,776.1,723.3,3484.4,3480.7,387.2,583.5,425.5,503.6,247.7,248.5,3481.9,3488.0,570.6,441.9,618.9,1083.4,1177.0,481.4,0.0,1.0,2.0,8673.0,10033.0,8458.0,4585.0,6.0,7.0,-4.0,3.0,-4.0,11.0,5859.0,3809.0,11098.0,9820.0,2.0,4.0,-4.0,1.0
2022-05-08 16:14:58.510985-07:00,823.5,933.9,1281.0,1035.7,715.1,460.0,1406.7,916.9,3468.6,3478.3,669.3,889.0,387.2,3497.8,776.1,723.3,3484.4,3480.7,386.4,581.8,425.5,503.6,246.2,248.5,3481.9,3488.0,575.4,446.7,618.9,1083.4,1177.0,478.2,0.0,-2.0,0.0,8672.0,10032.0,8459.0,4587.0,0.0,10.0,-2.0,3.0,-3.0,9.0,5859.0,3809.0,11098.0,9820.0,1.0,1.0,-2.0,1.0
2022-05-08 16:14:58.541082-07:00,823.5,933.9,1286.4,1029.7,715.1,462.4,1407.6,926.2,3468.6,3478.3,670.1,884.8,387.2,3491.7,774.5,727.4,3477.1,3479.5,382.5,581.8,420.0,501.2,246.2,248.5,3480.7,3472.2,571.4,446.7,620.5,1082.5,1177.0,478.2,1.0,5.0,-1.0,8672.0,10032.0,8458.0,4586.0,-2.0,-12.0,4.0,3.0,-2.0,3.0,5859.0,3809.0,11098.0,9820.0,1.0,-1.0,-1.0,1.0
2022-05-08 16:14:58.601727-07:00,823.5,935.6,1286.4,1029.7,722.5,462.4,1407.6,926.2,3472.2,3475.9,667.6,884.8,392.6,3491.7,774.5,727.4,3477.1,3479.5,382.5,580.2,420.0,505.9,248.5,248.5,3480.7,3472.2,571.4,447.4,620.5,1076.4,1174.4,480.6,0.0,-2.0,4.0,8672.0,10032.0,8459.0,4587.0,3.0,12.0,0.0,2.0,-4.0,13.0,5859.0,3809.0,11098.0,9820.0,4.0,0.0,-1.0,1.0
2022-05-08 16:14:58.661013-07:00,823.5,935.6,1286.4,1025.4,722.5,460.0,1414.9,920.3,3472.2,3475.9,667.6,883.9,392.6,3503.9,779.4,721.6,3475.9,3472.2,386.4,580.2,417.6,505.9,248.5,248.5,3477.1,3471.0,576.2,447.4,624.6,1076.4,1174.4,480.6,3.0,4.0,0.0,8672.0,10032.0,8459.0,4587.0,-3.0,1.0,2.0,2.0,-2.0,8.0,5859.0,3809.0,11098.0,9820.0,0.0,1.0,-1.0,1.0
2022-05-08 16:14:58.691073-07:00,821.9,932.2,1278.3,1025.4,720.0,460.0,1414.9,920.3,3475.9,3478.3,666.8,883.9,393.4,3503.9,779.4,721.6,3475.9,3472.2,386.4,580.2,417.6,503.6,247.7,249.2,3477.1,3471.0,576.2,450.6,624.6,1079.0,1191.2,481.4,0.0,4.0,0.0,8671.0,10033.0,8459.0,4586.0,10.0,-1.0,-6.0,2.0,-2.0,5.0,5859.0,3810.0,11099.0,9819.0,10.0,5.0,0.0,1.0
2022-05-08 16:14:58.841012-07:00,821.9,932.2,1278.3,1028.0,720.0,463.2,1425.0,926.2,3475.9,3478.3,666.8,889.0,393.4,3502.7,780.3,728.2,3479.5,3481.9,389.5,580.2,419.2,503.6,247.7,249.2,3479.5,3481.9,580.2,450.6,624.6,1079.0,1191.2,481.4,-2.0,-2.0,1.0,8672.0,10033.0,8459.0,4586.0,-3.0,-6.0,6.0,1.0,-6.0,9.0,5859.0,3810.0,11099.0,9819.0,-5.0,-7.0,0.0,1.0
2022-05-08 16:14:58.842495-07:00,825.2,934.7,1282.8,1028.0,717.5,463.2,1425.0,926.2,3480.7,3477.1,670.9,889.0,397.3,3502.7,780.3,728.2,3479.5,3481.9,389.5,582.6,419.2,505.9,246.2,250.0,3479.5,3481.9,580.2,449.8,624.6,1077.3,1168.2,478.2,1.0,3.0,1.0,8672.0,10033.0,8459.0,4586.0,0.0,-4.0,-4.0,5.0,-2.0,9.0,5859.0,3810.0,11099.0,9819.0,2.0,1.0,1.0,1.0
2022-05-08 16:14:58.843191-07:00,825.2,934.7,1282.8,1025.4,715.9,463.2,1416.7,924.5,3480.7,3477.1,670.9,888.2,388.7,3499.0,771.1,722.5,3488.0,3480.7,387.2,589.1,423.9,505.9,246.2,250.0,3480.7,3481.9,574.6,453.7,631.1,1077.3,1168.2,478.2,1.0,0.0,4.0,8672.0,10033.0,8459.0,4586.0,-6.0,-5.0,4.0,4.0,-4.0,13.0,5859.0,3810.0,11099.0,9819.0,-2.0,-5.0,0.0,1.0
2022-05-08 16:14:58.901546-07:00,823.5,936.4,1289.1,1022.8,715.9,463.2,1416.7,924.5,3477.1,3472.2,664.4,884.8,388.7,3499.0,771.1,722.5,3488.0,3480.7,387.2,589.1,424.7,504.4,247.7,250.0,3480.7,3481.9,574.6,453.7,621.4,1084.2,1177.0,479.0,0.0,7.0,1.0,8670.0,10034.0,8459.0,4585.0,3.0,-1.0,-3.0,4.0,-1.0,7.0,5859.0,3810.0,11099.0,9819.0,4.0,3.0,0.0,1.0
2022-05-08 16:14:58.931249-07:00,823.5,936.4,1289.1,1022.8,711.8,460.8,1410.3,920.3,3477.1,3472.2,664.4,884.8,391.8,3491.7,776.9,720.8,3483.2,3483.2,384.8,582.6,424.7,504.4,247.7,250.0,3483.2,3481.9,576.2,448.2,621.4,1084.2,1177.0,479.0,2.0,0.0,1.0,8671.0,10033.0,8459.0,4585.0,2.0,-1.0,8.0,5.0,-5.0,9.0,5859.0,3810.0,11099.0,9819.0,-3.0,-3.0,-1.0,1.0
2022-05-08 16:14:58.991608-07:00,825.2,935.6,1286.4,1021.1,711.8,460.8,1410.3,920.3,3467.4,3468.6,664.4,887.3,391.8,3491.7,776.9,720.8,3483.2,3483.2,384.8,582.6,420.0,505.9,247.0,248.5,3483.2,3481.9,576.2,448.2,623.8,1073.8,1180.6,477.4,2.0,-1.0,1.0,8671.0,10033.0,8459.0,4585.0,-3.0,0.0,2.0,4.0,-6.0,11.0,5859.0,3810.0,11099.0,9819.0,-4.0,-3.0,4.0,1.0
2022-05-08 16:14:59.051733-07:00,825.2,935.6,1286.4,1021.1,715.9,456.9,1414.9,923.7,3467.4,3468.6,664.4,887.3,387.9,3502.7,781.9,725.8,3477.1,3477.1,379.4,582.6,420.0,505.9,247.0,248.5,3489.2,3473.4,582.6,449.8,623.8,1073.8,1180.6,477.4,0.0,2.0,7.0,8670.0,10034.0,8459.0,4585.0,-5.0,4.0,-5.0,1.0,-5.0,10.0,5859.0,3810.0,11099.0,9819.0,3.0,1.0,-3.0,1.0
2022-05-08 16:14:59.081005-07:00,826.0,933.9,1282.8,1028.8,715.9,456.9,1414.9,923.7,3478.3,3473.4,666.0,889.8,387.9,3502.7,781.9,725.8,3477.1,3477.1,379.4,582.6,419.2,500.4,244.7,250.0,3489.2,3473.4,582.6,449.8,630.3,1073.8,1181.5,480.6,5.0,0.0,0.0,8670.0,10034.0,8459.0,4585.0,5.0,-3.0,5.0,4.0,0.0,4.0,5859.0,3810.0,11099.0,9819.0,1.0,4.0,-1.0,1.0
2022-05-08 16:14:59.170946-07:00,826.0,933.9,1282.8,1028.8,724.1,458.5,1412.2,921.1,3478.3,3473.4,666.0,889.8,389.5,3492.9,777.8,722.5,3483.2,3477.1,383.3,577.0,419.2,500.4,244.7,250.0,3479.5,3478.3,576.2,447.4,630.3,1073.8,1181.5,480.6,2.0,2.0,2.0,8670.0,10034.0,8459.0,4585.0,3.0,-3.0,2.0,3.0,-4.0,11.0,5859.0,3810.0,11099.0,9819.0,3.0,-3.0,0.0,1.0
2022-05-08 16:14:59.201730-07:00,817.7,927.9,1286.4,1022.8,724.1,458.5,1412.2,926.2,3474.6,3466.1,666.8,889.8,389.5,3492.9,777.8,721.6,3477.1,3477.1,383.3,577.0,422.3,502.8,246.2,247.7,3477.1,3478.3,576.2,447.4,628.6,1076.4,1174.4,480.6,6.0,3.0,-2.0,8672.0,10032.0,8458.0,4587.0,-27.0,7.0,-6.0,1.0,1.0,6.0,5860.0,3808.0,11096.0,9823.0,-21.0,-6.0,0.0,1.0
2022-05-08 16:14:59.290944-07:00,821.9,927.9,1286.4,1022.8,719.2,465.6,1411.3,926.2,3475.9,3466.1,666.8,889.8,392.6,3491.7,779.4,721.6,3477.1,3485.6,384.0,580.2,422.3,502.8,246.2,244.7,3477.1,3483.2,572.2,452.2,628.6,1076.4,1174.4,473.5,4.0,5.0,6.0,8673.0,10031.0,8458.0,4587.0,-3.0,1.0,-8.0,3.0,-5.0,9.0,5860.0,3808.0,11096.0,9823.0,-5.0,-1.0,-6.0,1.0
2022-05-08 16:14:59.292014-07:00,821.9,933.9,1286.4,1023.7,719.2,465.6,1411.3,916.0,3475.9,3480.7,673.3,883.9,392.6,3491.7,779.4,729.0,3488.0,3485.6,384.0,580.2,424.7,502.8,249.2,244.7,3477.1,3483.2,572.2,452.2,631.1,1078.2,1176.2,473.5,1.0,4.0,3.0,8674.0,10031.0,8458.0,4588.0,10.0,5.0,6.0,2.0,0.0,12.0,5860.0,3808.0,11096.0,9823.0,4.0,2.0,0.0,1.0
2022-05-08 16:14:59.351170-07:00,825.2,933.9,1286.4,1023.7,711.8,464.8,1409.4,916.0,3480.7,3480.7,673.3,883.9,392.6,3490.5,779.4,729.0,3488.0,3483.2,386.4,580.2,424.7,502.8,249.2,244.7,3477.1,3483.2,573.0,453.0,631.1,1078.2,1176.2,479.0,2.0,0.0,-2.0,8673.0,10031.0,8458.0,4588.0,4.0,-7.0,-3.0,2.0,0.0,8.0,5860.0,3808.0,11096.0,9823.0,5.0,3.0,-2.0,1.0
2022-05-08 16:14:59.411755-07:00,825.2,932.2,1292.7,1028.8,711.8,464.8,1409.4,927.1,3480.7,3469.8,669.3,891.5,392.6,3490.5,779.4,724.9,3472.2,3483.2,386.4,580.2,420.8,502.8,247.7,244.7,3479.5,3483.2,573.0,453.0,623.8,1081.6,1185.0,479.0,2.0,4.0,1.0,8673.0,10031.0,8458.0,4588.0,-8.0,1.0,1.0,4.0,-1.0,10.0,5860.0,3808.0,11096.0,9823.0,-7.0,-5.0,0.0,1.0
2022-05-08 16:14:59.441124-07:00,822.7,932.2,1292.7,1028.8,715.1,467.9,1410.3,927.1,3471.0,3469.8,669.3,891.5,388.7,3502.7,777.8,724.9,3472.2,3481.9,385.6,581.0,420.8,502.8,247.7,250.8,3479.5,3488.0,573.8,449.0,623.8,1081.6,1185.0,477.4,0.0,4.0,3.0,8673.0,10031.0,8458.0,4588.0,2.0,-4.0,-1.0,4.0,1.0,13.0,5860.0,3808.0,11096.0,9823.0,0.0,2.0,-3.0,1.0
2022-05-08 16:14:59.531867-07:00,822.7,932.2,1292.7,1016.8,715.1,467.9,1407.6,922.8,3471.0,3477.1,662.7,891.5,388.7,3502.7,776.9,720.8,3485.6,3480.7,385.6,581.0,421.5,498.8,249.2,250.8,3488.0,3477.1,573.8,449.0,618.9,1076.4,1170.9,477.4,-1.0,0.0,0.0,8673.0,10031.0,8458.0,4588.0,-5.0,2.0,7.0,3.0,0.0,12.0,5860.0,3808.0,11096.0,9823.0,1.0,4.0,2.0,1.0
2022-05-08 16:14:59.561897-07:00,820.2,931.3,1292.7,1016.8,721.6,465.6,1407.6,922.8,3478.3,3478.3,662.7,891.5,391.1,3494.1,776.9,720.8,3485.6,3480.7,387.2,580.2,421.5,498.8,250.8,243.9,3488.0,3477.1,573.0,447.4,618.9,1076.4,1178.8,479.0,3.0,9.0,1.0,8673.0,10031.0,8458.0,4588.0,-2.0,-2.0,0.0,4.0,0.0,7.0,5860.0,3808.0,11096.0,9823.0,-2.0,2.0,1.0,1.0
2022-05-08 16:14:59.651150-07:00,820.2,931.3,1283.7,1027.1,721.6,465.6,1406.7,923.7,3478.3,3478.3,666.0,884.8,391.1,3494.1,776.1,723.3,3472.2,3479.5,387.2,580.2,419.2,509.1,250.8,243.9,3481.9,3473.4,573.0,447.4,618.9,1075.6,1178.8,479.0,0.0,3.0,3.0,8673.0,10031.0,8458.0,4588.0,-4.0,-1.0,7.0,4.0,-1.0,11.0,5860.0,3808.0,11096.0,9823.0,-3.0,-2.0,0.0,1.0
2022-05-08 16:14:59.652323-07:00,821.9,932.2,1283.7,1027.1,720.0,464.8,1406.7,923.7,3472.2,3479.5,666.0,884.8,389.5,3491.7,776.1,723.3,3472.2,3479.5,386.4,584.3,419.2,509.1,245.4,247.0,3481.9,3473.4,585.1,450.6,618.9,1075.6,1176.2,477.4,1.0,4.0,4.0,8676.0,10029.0,8457.0,4589.0,-11.0,12.0,6.0,1.0,-2.0,11.0,5863.0,3809.0,11093.0,9824.0,-19.0,-24.0,-9.0,1.0
2022-05-08 16:14:59.681109-07:00,821.9,932.2,1285.5,1025.4,720.0,464.8,1417.6,918.6,3472.2,3479.5,666.0,890.7,389.5,3491.7,774.5,725.8,3468.6,3481.9,386.4,584.3,417.6,500.4,245.4,247.0,3483.2,3488.0,585.1,450.6,623.0,1076.4,1176.2,477.4,-31.0,73.0,-25.0,8682.0,10022.0,8447.0,4610.0,-200.0,-63.0,118.0,2.0,32.0,45.0,5886.0,3807.0,11077.0,9828.0,-73.0,-70.0,-66.0,1.0
2022-05-08 16:14:59.771007-07:00,827.7,947.5,1285.5,1025.4,712.6,464.8,1417.6,918.6,3474.6,3472.2,666.0,890.7,394.2,3491.7,774.5,725.8,3468.6,3481.9,385.6,575.4,417.6,500.4,247.7,247.7,3483.2,3488.0,577.0,446.7,623.0,1076.4,1185.0,478.2,19.0,91.0,-105.0,8807.0,9948.0,8360.0,4693.0,-795.0,-168.0,-95.0,-26.0,47.0,-47.0,5990.0,3777.0,10987.0,9878.0,-678.0,-326.0,-159.0,1.0
2022-05-08 16:14:59.801149-07:00,827.7,947.5,1295.4,1096.4,712.6,478.2,1546.9,1080.8,3474.6,3472.2,673.3,890.7,394.2,3491.7,774.5,730.7,3478.3,3480.7,385.6,575.4,416.8,503.6,247.7,247.7,3478.3,3483.2,614.1,446.7,626.2,1078.2,1185.0,478.2,-29.0,-34.0,35.0,9087.0,9730.0,8249.0,4812.0,-834.0,-169.0,-117.0,40.0,139.0,1.0,6217.0,3710.0,10748.0,10024.0,162.0,-695.0,-213.0,1.0
2022-05-08 16:14:59.861065-07:00,833.6,966.2,1446.0,1096.4,732.3,478.2,1546.9,1080.8,3478.3,3474.6,672.5,890.7,391.8,3491.7,774.5,730.7,3478.3,3480.7,385.6,583.5,416.8,512.3,249.2,248.5,3478.3,3483.2,614.1,448.2,626.2,1078.2,1182.3,479.8,34.0,-108.0,58.0,9324.0,9542.0,8100.0,4985.0,-1035.0,22.0,110.0,11.0,-103.0,32.0,6447.0,3741.0,10544.0,10085.0,-791.0,-408.0,0.0,1.0
2022-05-08 16:14:59.951148-07:00,833.6,966.2,1446.0,1134.9,732.3,479.0,1541.3,1052.2,3478.3,3474.6,672.5,889.0,391.8,3503.9,774.5,722.5,3483.2,3472.2,384.0,583.5,423.1,512.3,249.2,248.5,3488.0,3468.6,610.8,448.2,623.0,1078.2,1182.3,479.8,-3.0,5.0,35.0,9481.0,9383.0,7983.0,5175.0,-441.0,81.0,76.0,20.0,-15.0,48.0,6557.0,3727.0,10394.0,10174.0,-187.0,-61.0,-30.0,1.0
2022-05-08 16:14:59.953920-07:00,833.6,958.5,1554.3,1134.9,794.4,479.0,1541.3,1052.2,3474.6,3471.0,684.0,889.0,391.8,3503.9,774.5,722.5,3483.2,3472.2,384.0,578.6,423.1,517.9,249.2,251.5,3488.0,3468.6,610.8,451.4,623.0,1072.9,1185.0,490.1,10.0,-20.0,0.0,9505.0,9355.0,7958.0,5218.0,-30.0,-12.0,36.0,4.0,-37.0,2.0,6570.0,3723.0,10416.0,10144.0,139.0,-4.0,-61.0,1.0
2022-05-08 16:14:59.981405-07:00,833.6,958.5,1554.3,1117.4,794.4,471.1,1581.4,999.6,3474.6,3471.0,684.0,884.8,391.8,3500.2,776.9,723.3,3483.2,3478.3,383.3,578.6,420.0,517.9,249.2,251.5,3483.2,3477.1,619.7,451.4,626.2,1072.9,1185.0,490.1,9.0,-22.0,-4.0,9508.0,9343.0,7952.0,5246.0,-11.0,72.0,19.0,5.0,-6.0,-6.0,6562.0,3716.0,10453.0,10115.0,88.0,60.0,-48.0,1.0
2022-05-08 16:15:00.071014-07:00,831.1,956.8,1596.4,1117.4,812.7,471.1,1581.4,999.6,3473.4,3468.6,684.0,884.8,387.2,3500.2,776.9,723.3,3483.2,3478.3,383.3,578.6,420.0,520.3,252.3,250.8,3483.2,3477.1,619.7,452.2,626.2,1080.8,1189.4,527.4,0.0,4.0,-22.0,9465.0,9351.0,7995.0,5243.0,74.0,64.0,-52.0,8.0,0.0,12.0,6540.0,3710.0,10504.0,10078.0,66.0,55.0,-42.0,1.0
2022-05-08 16:15:00.101824-07:00,831.1,956.8,1596.4,1109.5,817.7,473.5,1573.9,985.9,3473.4,3468.6,684.0,892.4,388.7,3492.9,771.1,720.8,3481.9,3467.4,384.8,582.6,420.0,520.3,252.3,250.8,3477.1,3480.7,614.1,450.6,625.4,1080.8,1189.4,527.4,7.0,-16.0,-1.0,9478.0,9330.0,8003.0,5245.0,-92.0,29.0,-28.0,2.0,-15.0,-8.0,6541.0,3693.0,10499.0,10089.0,-71.0,5.0,8.0,1.0
2022-05-08 16:15:00.131555-07:00,831.9,950.0,1611.5,1118.2,817.7,473.5,1573.9,985.9,3481.9,3475.9,682.3,889.0,388.7,3492.9,771.1,720.8,3481.9,3467.4,384.8,582.6,418.4,520.3,247.7,249.2,3477.1,3480.7,614.1,450.6,623.0,1074.7,1185.0,537.0,3.0,10.0,-6.0,9475.0,9313.0,8012.0,5265.0,-28.0,21.0,7.0,8.0,2.0,14.0,6542.0,3688.0,10493.0,10096.0,-33.0,2.0,2.0,1.0
2022-05-08 16:15:00.191035-07:00,831.9,950.0,1611.5,1118.2,809.4,479.8,1545.0,978.2,3481.9,3475.9,682.3,889.0,394.2,3492.9,775.3,725.8,3483.2,3480.7,387.9,578.6,418.4,520.3,247.7,249.2,3488.0,3472.2,616.5,452.2,623.0,1074.7,1185.0,537.0,5.0,-6.0,7.0,9487.0,9300.0,8006.0,5277.0,-33.0,13.0,0.0,6.0,-7.0,11.0,6547.0,3681.0,10481.0,10108.0,-13.0,0.0,7.0,1.0
2022-05-08 16:15:00.251209-07:00,840.3,939.0,1612.4,1106.0,809.4,479.8,1545.0,978.2,3471.0,3481.9,682.3,886.5,394.2,3492.9,775.3,725.8,3483.2,3480.7,387.9,578.6,421.5,518.7,249.2,247.0,3488.0,3472.2,616.5,452.2,627.8,1080.8,1189.4,535.4,-5.0,13.0,-2.0,9470.0,9301.0,8027.0,5276.0,43.0,59.0,-35.0,0.0,15.0,23.0,6537.0,3677.0,10496.0,10101.0,14.0,27.0,-12.0,1.0
2022-05-08 16:15:00.310981-07:00,840.3,939.0,1612.4,1106.0,808.5,478.2,1532.9,970.5,3471.0,3481.9,682.3,886.5,389.5,3501.4,774.5,724.1,3488.0,3477.1,387.9,579.4,421.5,518.7,249.2,247.0,3474.6,3483.2,614.1,448.2,627.8,1080.8,1189.4,535.4,3.0,3.0,-7.0,9476.0,9288.0,8032.0,5280.0,-27.0,-9.0,-2.0,6.0,-11.0,5.0,6537.0,3670.0,10490.0,10109.0,-26.0,4.0,10.0,1.0
2022-05-08 16:15:00.341042-07:00,836.9,937.3,1608.7,1106.0,808.5,478.2,1532.9,970.5,3478.3,3477.1,684.8,888.2,389.5,3501.4,774.5,724.1,3488.0,3477.1,387.9,579.4,416.8,521.0,250.0,252.3,3474.6,3483.2,614.1,448.2,627.8,1079.9,1186.7,536.2,1.0,4.0,10.0,9473.0,9286.0,8039.0,5277.0,25.0,50.0,-35.0,3.0,0.0,10.0,6534.0,3667.0,10492.0,10110.0,14.0,22.0,-7.0,1.0
2022-05-08 16:15:00.401182-07:00,834.4,937.3,1608.7,1106.0,797.7,480.6,1525.5,967.1,3477.1,3477.1,684.8,888.2,387.9,3496.6,778.6,729.0,3471.0,3478.3,387.9,578.6,416.8,521.0,250.0,247.0,3469.8,3480.7,613.3,448.2,627.8,1079.9,1186.7,529.0,-4.0,4.0,0.0,9462.0,9278.0,8059.0,5281.0,0.0,22.0,-5.0,6.0,6.0,26.0,6528.0,3662.0,10493.0,10115.0,6.0,17.0,1.0,1.0
2022-05-08 16:15:00.431324-07:00,834.4,941.5,1607.7,1099.9,797.7,480.6,1525.5,956.0,3477.1,3473.4,683.1,889.8,387.9,3496.6,778.6,724.1,3485.6,3478.3,387.9,578.6,420.8,521.8,245.4,247.0,3483.2,3480.7,613.3,448.2,623.8,1080.8,1199.1,529.0,6.0,7.0,-7.0,9460.0,9279.0,8059.0,5281.0,9.0,8.0,6.0,0.0,1.0,-5.0,6523.0,3660.0,10498.0,10114.0,13.0,13.0,0.0,1.0
2022-05-08 16:15:00.491053-07:00,838.6,941.5,1607.7,1099.9,795.2,481.4,1519.9,956.0,3479.5,3473.4,683.1,889.8,385.6,3507.5,773.6,724.1,3485.6,3475.9,382.5,579.4,420.8,521.8,245.4,250.8,3483.2,3477.1,613.3,449.0,623.8,1080.8,1199.1,537.8,1.0,9.0,-2.0,9458.0,9276.0,8062.0,5287.0,-32.0,37.0,-6.0,4.0,0.0,5.0,6524.0,3659.0,10495.0,10117.0,-25.0,-12.0,6.0,1.0
2022-05-08 16:15:00.580782-07:00,838.6,928.8,1594.6,1104.3,795.2,481.4,1519.9,970.5,3479.5,3484.4,682.3,889.0,385.6,3507.5,773.6,725.8,3479.5,3475.9,382.5,579.4,421.5,518.7,247.7,250.8,3488.0,3477.1,613.3,449.0,626.2,1076.4,1185.9,537.8,3.0,0.0,8.0,9462.0,9267.0,8059.0,5298.0,13.0,-6.0,14.0,4.0,-3.0,8.0,6525.0,3657.0,10488.0,10124.0,18.0,6.0,6.0,1.0
2022-05-08 16:15:00.582027-07:00,834.4,928.8,1594.6,1104.3,796.9,481.4,1513.4,970.5,3478.3,3484.4,682.3,889.0,392.6,3501.4,772.8,725.8,3479.5,3474.6,384.8,581.0,421.5,518.7,247.7,247.7,3488.0,3480.7,614.1,458.5,626.2,1076.4,1185.9,528.2,1.0,9.0,2.0,9455.0,9271.0,8064.0,5298.0,8.0,12.0,-2.0,4.0,-1.0,4.0,6522.0,3658.0,10491.0,10122.0,0.0,2.0,-1.0,1.0
2022-05-08 16:15:00.640889-07:00,834.4,933.0,1592.7,1106.0,796.9,481.4,1513.4,967.9,3478.3,3477.1,683.1,885.6,392.6,3501.4,772.8,725.8,3477.1,3474.6,384.8,581.0,410.6,517.9,247.7,247.7,3478.3,3480.7,614.1,458.5,624.6,1081.6,1179.7,528.2,0.0,-1.0,-11.0,9457.0,9262.0,8065.0,5309.0,-22.0,-5.0,14.0,7.0,-5.0,10.0,6524.0,3655.0,10484.0,10129.0,-16.0,-1.0,5.0,1.0
2022-05-08 16:15:00.701246-07:00,836.9,924.5,1592.7,1106.0,790.2,482.2,1506.0,967.9,3464.9,3474.6,683.1,885.6,389.5,3495.3,769.5,725.8,3477.1,3481.9,388.7,582.6,410.6,517.9,249.2,247.7,3478.3,3483.2,610.8,448.2,624.6,1081.6,1185.9,527.4,5.0,4.0,-3.0,9462.0,9272.0,8054.0,5298.0,23.0,-48.0,-2.0,3.0,-3.0,0.0,6524.0,3656.0,10484.0,10129.0,15.0,1.0,-2.0,1.0
2022-05-08 16:15:00.731462-07:00,836.9,924.5,1605.8,1099.0,790.2,482.2,1506.9,960.2,3464.9,3474.6,684.0,893.2,389.5,3495.3,772.8,722.5,3475.9,3488.0,388.7,582.6,418.4,517.1,249.2,247.7,3474.6,3478.3,610.8,448.2,622.2,1077.3,1185.9,527.4,2.0,3.0,14.0,9466.0,9275.0,8049.0,5294.0,-19.0,-5.0,-7.0,8.0,-1.0,14.0,6525.0,3655.0,10481.0,10132.0,-14.0,-6.0,5.0,1.0
2022-05-08 16:15:00.791617-07:00,843.6,929.6,1605.8,1099.0,788.6,485.3,1506.9,960.2,3472.2,3478.3,684.0,893.2,389.5,3499.0,772.8,722.5,3475.9,3488.0,384.8,581.0,418.4,517.1,253.8,253.1,3474.6,3478.3,616.5,451.4,622.2,1077.3,1188.5,530.6,3.0,5.0,5.0,9468.0,9273.0,8048.0,5295.0,3.0,0.0,-10.0,11.0,1.0,12.0,6526.0,3655.0,10477.0,10135.0,4.0,8.0,-5.0,1.0
2022-05-08 16:15:00.851080-07:00,843.6,929.6,1585.2,1102.5,788.6,485.3,1494.9,951.7,3472.2,3478.3,685.6,889.8,389.5,3499.0,768.7,724.9,3474.6,3479.5,384.8,581.0,417.6,524.2,253.8,253.1,3475.9,3477.1,616.5,451.4,624.6,1078.2,1188.5,530.6,1.0,2.0,-9.0,9464.0,9275.0,8049.0,5296.0,18.0,3.0,15.0,2.0,0.0,5.0,6523.0,3655.0,10478.0,10135.0,5.0,-2.0,3.0,1.0
2022-05-08 16:15:00.881349-07:00,835.2,923.7,1585.2,1102.5,788.6,485.3,1494.9,951.7,3468.6,3469.8,685.6,889.8,393.4,3495.3,768.7,724.9,3474.6,3479.5,381.7,581.8,417.6,524.2,243.9,244.7,3475.9,3477.1,610.8,452.2,624.6,1078.2,1182.3,526.6,-4.0,9.0,-1.0,9466.0,9273.0,8047.0,5299.0,2.0,-6.0,-6.0,1.0,3.0,12.0,6525.0,3653.0,10475.0,10138.0,0.0,0.0,-3.0,1.0
2022-05-08 16:15:00.941037-07:00,835.2,923.7,1589.9,1101.7,788.6,485.3,1496.7,947.5,3468.6,3469.8,679.1,884.8,393.4,3495.3,772.0,720.8,3471.0,3472.2,381.7,581.8,416.1,517.1,243.9,244.7,3477.1,3474.6,610.8,452.2,620.5,1079.0,1182.3,526.6,3.0,-9.0,9.0,9469.0,9273.0,8043.0,5300.0,-10.0,13.0,15.0,8.0,-7.0,12.0,6527.0,3652.0,10470.0,10143.0,-6.0,0.0,12.0,1.0
2022-05-08 16:15:01.001205-07:00,835.2,915.2,1573.9,1101.7,788.6,481.4,1496.7,947.5,3475.9,3480.7,682.3,884.8,392.6,3502.7,772.0,720.8,3471.0,3472.2,387.2,588.3,416.1,513.9,243.9,248.5,3477.1,3474.6,611.7,450.6,620.5,1074.7,1177.9,525.8,2.0,22.0,-4.0,9460.0,9278.0,8046.0,5304.0,17.0,2.0,-8.0,2.0,5.0,11.0,6523.0,3653.0,10472.0,10143.0,6.0,13.0,-8.0,1.0
2022-05-08 16:15:01.031961-07:00,835.2,915.2,1573.9,1099.9,788.6,486.9,1498.6,950.9,3475.9,3480.7,682.3,891.5,392.6,3500.2,774.5,720.8,3477.1,3478.3,389.5,588.3,420.0,513.9,243.9,248.5,3479.5,3475.9,613.3,450.6,623.8,1074.7,1177.9,525.8,2.0,-7.0,-5.0,9465.0,9275.0,8045.0,5301.0,-4.0,-13.0,4.0,3.0,-3.0,-2.0,6522.0,3652.0,10471.0,10145.0,-4.0,-1.0,3.0,1.0
2022-05-08 16:15:01.091051-07:00,838.6,926.2,1573.9,1099.9,785.2,486.9,1498.6,950.9,3472.2,3468.6,684.8,891.5,391.1,3500.2,774.5,720.8,3477.1,3478.3,389.5,582.6,420.0,521.0,246.2,247.7,3479.5,3475.9,613.3,449.8,623.8,1080.8,1189.4,522.6,1.0,8.0,1.0,9462.0,9276.0,8048.0,5301.0,26.0,16.0,5.0,3.0,-5.0,11.0,6522.0,3653.0,10472.0,10144.0,20.0,4.0,0.0,1.0
2022-05-08 16:15:01.121067-07:00,838.6,926.2,1573.9,1098.2,785.2,479.8,1494.0,948.3,3472.2,3468.6,684.8,889.8,391.1,3499.0,767.8,723.3,3471.0,3477.1,382.5,582.6,421.5,521.0,246.2,247.7,3483.2,3473.4,608.4,449.8,623.8,1080.8,1189.4,522.6,-1.0,0.0,6.0,9460.0,9276.0,8049.0,5302.0,23.0,-7.0,0.0,6.0,2.0,12.0,6521.0,3654.0,10472.0,10144.0,12.0,11.0,0.0,1.0
2022-05-08 16:15:01.181304-07:00,839.4,926.2,1572.1,1098.2,785.2,479.8,1494.0,948.3,3483.2,3471.0,684.8,889.8,393.4,3499.0,767.8,723.3,3471.0,3477.1,382.5,579.4,421.5,520.3,243.9,247.7,3483.2,3473.4,608.4,452.2,623.8,1092.9,1180.6,528.2,5.0,-3.0,1.0,9459.0,9277.0,8050.0,5301.0,-13.0,4.0,0.0,5.0,-2.0,1.0,6521.0,3653.0,10470.0,10146.0,-6.0,2.0,-1.0,1.0
2022-05-08 16:15:01.332149-07:00,839.4,926.2,1572.1,1093.8,785.2,481.4,1487.5,946.6,3483.2,3471.0,684.8,888.2,393.4,3495.3,771.1,724.9,3481.9,3479.5,386.4,579.4,416.8,520.3,243.9,247.7,3475.9,3484.4,607.6,452.2,623.8,1092.9,1180.6,528.2,0.0,4.0,-8.0,9458.0,9276.0,8051.0,5303.0,4.0,-4.0,-1.0,7.0,-1.0,4.0,6520.0,3653.0,10470.0,10147.0,0.0,1.0,-1.0,1.0
2022-05-08 16:15:01.333178-07:00,838.6,918.6,1573.9,1092.9,781.9,481.4,1487.5,946.6,3472.2,3481.9,682.3,889.8,391.1,3495.3,771.1,724.9,3481.9,3479.5,386.4,577.0,418.4,518.7,249.2,245.4,3475.9,3484.4,607.6,448.2,625.4,1082.5,1177.9,529.0,1.0,13.0,2.0,9458.0,9277.0,8051.0,5301.0,-10.0,19.0,-3.0,0.0,4.0,13.0,6520.0,3653.0,10470.0,10147.0,-6.0,-1.0,0.0,1.0
2022-05-08 16:15:01.334305-07:00,838.6,918.6,1573.9,1092.9,784.4,481.4,1486.6,949.2,3472.2,3481.9,682.3,889.8,387.9,3490.5,771.1,725.8,3479.5,3472.2,387.2,579.4,418.4,518.7,249.2,245.4,3478.3,3467.4,608.4,449.8,625.4,1082.5,1177.9,529.0,1.0,7.0,3.0,9458.0,9272.0,8053.0,5308.0,8.0,6.0,1.0,4.0,-4.0,5.0,6522.0,3651.0,10465.0,10152.0,4.0,5.0,-2.0,1.0
2022-05-08 16:15:01.391005-07:00,835.2,918.6,1571.1,1092.9,784.4,481.4,1486.6,949.2,3480.7,3475.9,679.1,889.0,387.9,3490.5,771.1,725.8,3479.5,3472.2,387.2,579.4,419.2,516.3,250.8,243.9,3478.3,3467.4,608.4,449.8,620.5,1082.5,1183.2,525.0,2.0,-3.0,-8.0,9457.0,9272.0,8054.0,5308.0,1.0,1.0,2.0,3.0,-6.0,2.0,6521.0,3650.0,10465.0,10153.0,2.0,11.0,0.0,1.0
2022-05-08 16:15:01.421376-07:00,835.2,918.6,1571.1,1092.9,782.7,485.3,1483.8,947.5,3480.7,3475.9,679.1,889.0,392.6,3501.4,775.3,719.2,3481.9,3483.2,395.0,580.2,419.2,516.3,250.8,243.9,3477.1,3467.4,614.9,447.4,620.5,1082.5,1183.2,525.0,-1.0,9.0,-2.0,9455.0,9273.0,8054.0,5307.0,-8.0,10.0,-6.0,6.0,-1.0,16.0,6521.0,3650.0,10465.0,10153.0,-1.0,-1.0,0.0,1.0
2022-05-08 16:15:01.481574-07:00,836.9,921.1,1572.1,1086.0,782.7,485.3,1483.8,947.5,3480.7,3477.1,683.1,885.6,392.6,3501.4,775.3,719.2,3481.9,3483.2,395.0,580.2,420.8,518.7,245.4,245.4,3477.1,3467.4,614.9,447.4,627.8,1078.2,1165.6,520.3,2.0,2.0,1.0,9459.0,9275.0,8050.0,5304.0,-7.0,-21.0,1.0,2.0,-5.0,8.0,6521.0,3650.0,10464.0,10153.0,-1.0,-7.0,0.0,1.0
2022-05-08 16:15:01.541018-07:00,836.9,921.1,1572.1,1086.0,777.8,483.7,1488.4,944.9,3480.7,3477.1,683.1,885.6,388.7,3495.3,771.1,724.9,3479.5,3477.1,382.5,581.8,420.8,518.7,245.4,245.4,3474.6,3484.4,611.7,445.1,627.8,1078.2,1165.6,520.3,2.0,7.0,4.0,9462.0,9276.0,8048.0,5302.0,19.0,9.0,5.0,5.0,1.0,7.0,6521.0,3650.0,10464.0,10154.0,12.0,7.0,3.0,1.0
2022-05-08 16:15:01.571223-07:00,829.4,916.9,1563.7,1083.4,777.8,483.7,1488.4,960.2,3464.9,3467.4,686.4,894.1,388.7,3495.3,771.1,724.1,3479.5,3477.1,382.5,581.8,420.8,517.9,247.0,246.2,3481.9,3484.4,611.7,445.1,627.8,1073.8,1174.4,520.3,3.0,2.0,-4.0,9459.0,9278.0,8049.0,5299.0,2.0,-18.0,-7.0,6.0,-4.0,4.0,6519.0,3649.0,10467.0,10152.0,4.0,12.0,-4.0,1.0
2022-05-08 16:15:01.631343-07:00,837.7,916.9,1563.7,1083.4,773.6,480.6,1477.3,960.2,3472.2,3467.4,686.4,894.1,392.6,3499.0,770.3,724.1,3479.5,3477.1,386.4,580.2,420.8,517.9,247.0,246.2,3481.9,3483.2,610.0,449.0,627.8,1073.8,1174.4,519.5,-4.0,-1.0,2.0,9460.0,9279.0,8048.0,5298.0,-19.0,23.0,-1.0,2.0,-3.0,9.0,6518.0,3648.0,10467.0,10153.0,-10.0,-5.0,2.0,1.0
2022-05-08 16:15:01.691449-07:00,837.7,911.8,1563.7,1103.4,773.6,480.6,1477.3,942.4,3472.2,3483.2,679.1,900.0,392.6,3499.0,770.3,725.8,3478.3,3477.1,386.4,580.2,414.5,517.1,250.8,246.2,3472.2,3483.2,610.0,449.0,627.8,1079.0,1177.0,519.5,3.0,0.0,-4.0,9463.0,9275.0,8047.0,5302.0,-14.0,-17.0,3.0,6.0,-5.0,6.0,6518.0,3648.0,10467.0,10153.0,-4.0,-5.0,3.0,1.0
2022-05-08 16:15:01.751204-07:00,829.4,911.8,1563.7,1103.4,777.8,480.6,1477.3,942.4,3467.4,3483.2,679.1,900.0,395.7,3500.2,771.1,725.8,3478.3,3477.1,386.4,581.8,414.5,517.1,250.8,243.9,3472.2,3484.4,607.6,455.3,627.8,1079.0,1177.0,525.0,3.0,11.0,4.0,9463.0,9277.0,8046.0,5300.0,18.0,20.0,1.0,9.0,0.0,6.0,6516.0,3650.0,10471.0,10149.0,19.0,10.0,-2.0,1.0
2022-05-08 16:15:01.781405-07:00,829.4,912.7,1563.7,1085.1,777.8,480.6,1477.3,955.1,3467.4,3477.1,686.4,887.3,395.7,3500.2,771.1,725.8,3478.3,3477.1,386.4,581.8,422.3,517.9,247.0,243.9,3477.1,3484.4,607.6,455.3,624.6,1086.0,1182.3,525.0,-5.0,-2.0,-1.0,9460.0,9274.0,8050.0,5305.0,-9.0,-4.0,0.0,3.0,-5.0,10.0,6516.0,3650.0,10472.0,10149.0,-3.0,2.0,-1.0,1.0
2022-05-08 16:15:01.901165-07:00,836.9,912.7,1563.7,1085.1,775.3,481.4,1487.5,955.1,3477.1,3477.1,686.4,887.3,390.3,3496.6,772.8,725.8,3478.3,3477.1,389.5,578.6,422.3,517.9,247.0,245.4,3477.1,3478.3,610.8,449.8,624.6,1086.0,1182.3,521.8,1.0,1.0,-6.0,9457.0,9275.0,8052.0,5304.0,9.0,8.0,-5.0,5.0,2.0,11.0,6515.0,3652.0,10474.0,10146.0,0.0,2.0,-4.0,1.0
2022-05-08 16:15:01.903944-07:00,836.9,912.7,1569.3,1084.2,775.3,481.4,1471.8,945.8,3477.1,3467.4,678.2,882.3,390.3,3496.6,772.0,724.1,3484.4,3485.6,389.5,578.6,420.8,519.5,252.3,245.4,3480.7,3480.7,610.8,449.8,620.5,1080.8,1183.2,521.8,5.0,7.0,0.0,9459.0,9277.0,8050.0,5301.0,11.0,-11.0,3.0,3.0,-3.0,4.0,6515.0,3652.0,10474.0,10146.0,0.0,3.0,0.0,1.0
2022-05-08 16:15:01.931308-07:00,836.1,916.0,1569.3,1084.2,775.3,481.4,1471.8,945.8,3472.2,3471.0,678.2,882.3,390.3,3497.8,772.0,724.1,3484.4,3485.6,379.4,581.0,420.8,519.5,245.4,247.0,3480.7,3480.7,608.4,446.7,620.5,1080.8,1177.9,521.0,1.0,1.0,2.0,9458.0,9278.0,8050.0,5301.0,-7.0,5.0,4.0,6.0,-6.0,12.0,6515.0,3652.0,10474.0,10146.0,-4.0,-4.0,2.0,1.0
2022-05-08 16:15:01.991065-07:00,836.1,916.0,1569.3,1084.2,775.3,481.4,1479.2,949.2,3472.2,3471.0,679.1,890.7,390.3,3497.8,772.0,725.8,3477.1,3478.3,379.4,581.0,420.0,525.0,245.4,247.0,3480.7,3481.9,608.4,446.7,624.6,1075.6,1177.9,521.0,5.0,0.0,-2.0,9460.0,9275.0,8046.0,5308.0,-14.0,11.0,20.0,8.0,-1.0,7.0,6515.0,3652.0,10472.0,10148.0,-1.0,1.0,11.0,1.0
2022-05-08 16:15:02.051818-07:00,846.1,905.9,1569.3,1084.2,775.3,478.2,1479.2,949.2,3473.4,3471.0,679.1,890.7,385.6,3496.6,772.0,725.8,3477.1,3478.3,379.4,575.4,420.0,525.0,243.9,245.4,3480.7,3481.9,610.0,449.8,624.6,1075.6,1177.0,521.8,0.0,6.0,-5.0,9456.0,9275.0,8047.0,5313.0,-4.0,9.0,-9.0,2.0,-1.0,6.0,6514.0,3652.0,10473.0,10148.0,-12.0,8.0,-7.0,1.0
2022-05-08 16:15:02.081699-07:00,846.1,905.9,1556.2,1080.8,775.3,478.2,1476.4,940.7,3473.4,3471.0,682.3,888.2,385.6,3496.6,771.1,724.9,3477.1,3475.9,379.4,575.4,423.1,517.1,243.9,245.4,3488.0,3478.3,610.0,449.8,627.0,1076.4,1177.0,521.8,3.0,1.0,-2.0,9460.0,9272.0,8048.0,5311.0,-3.0,-9.0,5.0,6.0,-6.0,3.0,6514.0,3652.0,10473.0,10148.0,-8.0,-3.0,2.0,1.0
2022-05-08 16:15:02.140979-07:00,839.4,913.5,1556.2,1080.8,771.1,479.0,1476.4,940.7,3472.2,3472.2,682.3,888.2,390.3,3496.6,771.1,724.9,3477.1,3475.9,387.2,587.5,423.1,517.1,251.5,249.2,3488.0,3478.3,603.6,449.0,627.0,1076.4,1183.2,518.7,4.0,12.0,-2.0,9460.0,9272.0,8048.0,5311.0,0.0,2.0,0.0,8.0,-3.0,13.0,6514.0,3652.0,10473.0,10148.0,-4.0,0.0,-2.0,1.0
2022-05-08 16:15:02.171118-07:00,839.4,913.5,1568.3,1076.4,771.1,479.0,1471.8,938.1,3472.2,3472.2,681.5,889.8,390.3,3496.6,769.5,725.8,3483.2,3479.5,387.2,587.5,421.5,516.3,251.5,249.2,3485.6,3478.3,603.6,449.0,624.6,1087.7,1183.2,518.7,7.0,3.0,1.0,9462.0,9272.0,8048.0,5308.0,15.0,-17.0,-6.0,5.0,1.0,5.0,6514.0,3652.0,10473.0,10148.0,14.0,10.0,-2.0,1.0
2022-05-08 16:15:02.290967-07:00,840.3,911.0,1559.0,1076.4,775.3,482.2,1471.8,938.1,3484.4,3477.1,679.1,889.8,398.9,3496.6,769.5,725.8,3483.2,3479.5,385.6,580.2,421.5,518.7,248.5,249.2,3485.6,3478.3,607.6,451.4,624.6,1075.6,1185.0,516.3,-5.0,0.0,-2.0,9458.0,9272.0,8052.0,5308.0,-10.0,18.0,-9.0,3.0,-6.0,13.0,6513.0,3651.0,10476.0,10146.0,-3.0,10.0,-4.0,1.0
2022-05-08 16:15:02.321649-07:00,840.3,911.0,1559.0,1075.6,775.3,474.3,1481.0,944.9,3484.4,3477.1,679.1,888.2,398.9,3497.8,767.0,724.9,3481.9,3478.3,386.4,580.2,422.3,518.7,248.5,249.2,3477.1,3472.2,609.2,451.4,619.7,1075.6,1185.0,516.3,-1.0,0.0,0.0,9459.0,9273.0,8050.0,5307.0,-3.0,-8.0,-3.0,5.0,-3.0,7.0,6512.0,3651.0,10476.0,10147.0,0.0,0.0,0.0,1.0
2022-05-08 16:15:02.351673-07:00,833.6,909.3,1552.5,1075.6,772.8,474.3,1481.0,944.9,3466.1,3464.9,686.4,888.2,391.1,3497.8,767.0,724.9,3481.9,3478.3,386.4,577.8,422.3,516.3,243.2,248.5,3477.1,3472.2,609.2,445.1,619.7,1079.9,1178.8,521.8,0.0,5.0,0.0,9455.0,9277.0,8052.0,5304.0,16.0,3.0,2.0,2.0,-4.0,11.0,6511.0,3653.0,10478.0,10144.0,13.0,3.0,1.0,1.0
2022-05-08 16:15:02.381575-07:00,833.6,909.3,1552.5,1079.9,772.8,480.6,1463.5,945.8,3466.1,3464.9,686.4,886.5,391.1,3496.6,765.3,723.3,3473.4,3474.6,385.6,577.8,419.2,516.3,243.2,248.5,3471.0,3488.0,607.6,445.1,620.5,1079.9,1178.8,521.8,2.0,-1.0,4.0,9456.0,9276.0,8052.0,5304.0,-21.0,-2.0,-1.0,5.0,-3.0,8.0,6511.0,3652.0,10478.0,10145.0,-11.0,3.0,2.0,1.0
2022-05-08 16:15:02.441068-07:00,840.3,904.2,1551.5,1079.9,769.5,480.6,1463.5,945.8,3472.2,3479.5,684.0,886.5,392.6,3496.6,765.3,723.3,3473.4,3474.6,385.6,580.2,419.2,520.3,243.9,248.5,3471.0,3488.0,607.6,448.2,620.5,1073.8,1172.6,519.5,5.0,7.0,-3.0,9455.0,9278.0,8053.0,5303.0,16.0,1.0,0.0,7.0,1.0,9.0,6511.0,3653.0,10478.0,10144.0,8.0,6.0,-1.0,1.0
2022-05-08 16:15:02.471187-07:00,840.3,904.2,1551.5,1079.0,769.5,478.2,1470.9,946.6,3472.2,3479.5,684.0,891.5,392.6,3502.7,775.3,719.2,3483.2,3475.9,384.0,580.2,416.8,520.3,243.9,248.5,3484.4,3488.0,606.0,448.2,626.2,1073.8,1172.6,519.5,0.0,5.0,-4.0,9453.0,9279.0,8054.0,5302.0,6.0,-4.0,2.0,2.0,-6.0,2.0,6511.0,3653.0,10478.0,10144.0,-10.0,-6.0,-1.0,1.0
2022-05-08 16:15:02.590708-07:00,838.6,909.3,1561.8,1077.3,772.0,478.2,1470.9,946.6,3478.3,3477.1,686.4,889.8,391.1,3502.7,775.3,719.2,3483.2,3475.9,384.0,584.3,420.0,517.9,246.2,250.8,3484.4,3488.0,606.0,452.2,623.0,1076.4,1180.6,515.5,-2.0,2.0,0.0,9456.0,9277.0,8052.0,5303.0,-3.0,7.0,1.0,5.0,-7.0,15.0,6512.0,3652.0,10477.0,10145.0,14.0,5.0,-1.0,1.0
2022-05-08 16:15:02.591922-07:00,838.6,909.3,1561.8,1077.3,772.8,480.6,1470.0,939.0,3478.3,3477.1,686.4,889.8,389.5,3497.8,769.5,724.9,3479.5,3472.2,382.5,580.2,420.0,517.9,246.2,250.8,3488.0,3473.4,606.0,446.7,623.0,1076.4,1180.6,515.5,2.0,2.0,2.0,9456.0,9279.0,8051.0,5301.0,0.0,-3.0,-3.0,6.0,-6.0,7.0,6511.0,3653.0,10479.0,10144.0,4.0,4.0,-2.0,1.0
2022-05-08 16:15:02.681328-07:00,831.1,909.3,1553.4,1072.9,772.8,480.6,1470.0,939.0,3478.3,3480.7,684.0,884.8,389.5,3497.8,769.5,724.9,3479.5,3472.2,382.5,580.2,419.2,519.5,252.3,250.0,3488.0,3473.4,606.0,446.7,623.8,1079.0,1181.5,518.7,0.0,2.0,5.0,9456.0,9279.0,8051.0,5301.0,7.0,2.0,-3.0,6.0,-4.0,14.0,6511.0,3653.0,10479.0,10144.0,-1.0,5.0,3.0,1.0
2022-05-08 16:15:02.683155-07:00,831.1,909.3,1553.4,1072.9,773.6,481.4,1470.9,944.1,3478.3,3480.7,684.0,884.8,387.9,3499.0,770.3,726.6,3474.6,3485.6,384.8,580.2,419.2,519.5,252.3,250.0,3484.4,3484.4,609.2,453.7,623.8,1079.0,1181.5,518.7,3.0,-6.0,4.0,9451.0,9282.0,8055.0,5299.0,38.0,20.0,-3.0,5.0,-10.0,1.0,6510.0,3652.0,10480.0,10143.0,13.0,14.0,-1.0,1.0
2022-05-08 16:15:02.741132-07:00,836.9,906.7,1551.5,1069.5,773.6,481.4,1470.9,944.1,3478.3,3473.4,682.3,884.8,387.9,3499.0,770.3,726.6,3474.6,3485.6,384.8,580.2,422.3,517.9,250.0,250.0,3484.4,3484.4,609.2,453.7,626.2,1075.6,1180.6,517.1,62.0,-48.0,38.0,9363.0,9307.0,8151.0,5263.0,611.0,346.0,-194.0,13.0,-33.0,-34.0,6472.0,3649.0,10523.0,10124.0,270.0,208.0,27.0,1.0
2022-05-08 16:15:02.771555-07:00,836.9,906.7,1551.5,1069.5,794.4,483.0,1475.5,948.3,3478.3,3473.4,682.3,884.8,391.1,3502.7,773.6,721.6,3471.0,3474.6,382.5,579.4,422.3,517.9,250.0,250.0,3486.8,3478.3,600.4,448.2,626.2,1075.6,1180.6,517.1,-24.0,-25.0,-13.0,9128.0,9423.0,8380.0,5106.0,642.0,-15.0,-38.0,1.0,55.0,69.0,6287.0,3673.0,10785.0,9954.0,976.0,494.0,15.0,1.0
2022-05-08 16:15:02.831218-07:00,841.1,942.4,1566.5,1091.2,794.4,483.0,1475.5,954.3,3474.6,3475.9,679.1,887.3,391.1,3502.7,773.6,729.0,3473.4,3474.6,382.5,579.4,417.6,518.7,243.9,245.4,3484.4,3478.3,600.4,448.2,627.0,1091.2,1179.7,521.8,-19.0,55.0,-15.0,9048.0,9595.0,8352.0,4974.0,428.0,-288.0,153.0,-28.0,65.0,-52.0,6088.0,3720.0,10978.0,9850.0,529.0,357.0,209.0,1.0
2022-05-08 16:15:02.891099-07:00,858.7,942.4,1566.5,1091.2,790.2,535.4,1516.2,954.3,3475.9,3475.9,679.1,887.3,391.8,3501.4,777.8,729.0,3473.4,3480.7,383.3,578.6,417.6,518.7,243.9,245.4,3484.4,3474.6,640.8,457.7,627.0,1091.2,1179.7,514.7,-2.0,42.0,-35.0,9054.0,9669.0,8327.0,4861.0,86.0,-161.0,-114.0,-3.0,25.0,-25.0,5971.0,3740.0,11060.0,9822.0,98.0,116.0,70.0,1.0
2022-05-08 16:15:02.921205-07:00,858.7,1037.5,1532.9,1084.2,790.2,535.4,1516.2,987.6,3475.9,3473.4,681.5,892.4,391.8,3501.4,777.8,724.9,3478.3,3480.7,383.3,578.6,417.6,515.5,250.8,245.4,3472.2,3474.6,640.8,457.7,631.9,1082.5,1184.1,514.7,-16.0,-38.0,3.0,9093.0,9701.0,8286.0,4795.0,40.0,-272.0,83.0,18.0,-16.0,28.0,5938.0,3753.0,11078.0,9817.0,64.0,23.0,77.0,1.0
2022-05-08 16:15:02.981340-07:00,857.9,1037.5,1532.9,1084.2,783.6,533.0,1560.9,987.6,3481.9,3473.4,681.5,892.4,387.9,3503.9,770.3,724.9,3478.3,3488.0,387.9,582.6,417.6,515.5,250.8,250.8,3472.2,3474.6,673.3,467.9,631.9,1082.5,1184.1,516.3,18.0,67.0,6.0,9110.0,9794.0,8201.0,4719.0,118.0,-230.0,59.0,-25.0,41.0,-24.0,5894.0,3797.0,11086.0,9818.0,102.0,4.0,118.0,1.0
2022-05-08 16:15:03.041231-07:00,857.9,1099.9,1522.7,1069.5,783.6,533.0,1560.9,972.2,3481.9,3467.4,679.9,892.4,387.9,3503.9,770.3,724.9,3477.1,3488.0,387.9,582.6,420.0,509.9,242.4,250.8,3478.3,3474.6,673.3,467.9,631.9,1085.1,1188.5,516.3,-8.0,29.0,45.0,9126.0,9771.0,8233.0,4680.0,16.0,53.0,-190.0,8.0,14.0,40.0,5880.0,3805.0,11088.0,9821.0,12.0,32.0,-13.0,1.0
2022-05-08 16:15:03.071658-07:00,864.6,1099.9,1522.7,1069.5,779.4,525.8,1567.4,972.2,3472.2,3467.4,679.9,892.4,394.2,3505.1,768.7,724.9,3477.1,3473.4,384.0,579.4,420.0,509.9,242.4,246.2,3478.3,3469.8,661.1,468.7,631.9,1085.1,1188.5,508.3,-5.0,-40.0,28.0,9107.0,9760.0,8276.0,4663.0,137.0,51.0,-5.0,9.0,-43.0,24.0,5860.0,3795.0,11114.0,9807.0,100.0,73.0,12.0,1.0
2022-05-08 16:15:03.131877-07:00,864.6,1120.9,1508.8,1071.2,779.4,525.8,1569.3,965.4,3472.2,3485.6,675.0,892.4,394.2,3505.1,770.3,724.9,3484.4,3481.9,384.0,579.4,416.1,511.5,249.2,246.2,3478.3,3483.2,661.1,468.7,631.1,1082.5,1183.2,508.3,0.0,34.0,-30.0,9061.0,9780.0,8310.0,4649.0,76.0,76.0,-64.0,-6.0,13.0,-9.0,5823.0,3800.0,11157.0,9778.0,101.0,54.0,-5.0,1.0
2022-05-08 16:15:03.191145-07:00,857.9,1120.0,1508.8,1071.2,774.5,521.0,1569.3,965.4,3473.4,3479.5,675.0,892.4,392.6,3497.8,770.3,724.9,3484.4,3481.9,385.6,573.8,416.1,511.5,251.5,243.9,3478.3,3483.2,656.2,463.2,631.1,1082.5,1178.8,512.3,-7.0,-32.0,-34.0,9061.0,9764.0,8344.0,4625.0,80.0,-60.0,-60.0,5.0,-11.0,4.0,5810.0,3791.0,11172.0,9772.0,25.0,32.0,-1.0,1.0
2022-05-08 16:15:03.251193-07:00,857.9,1120.0,1520.8,1066.0,774.5,521.0,1573.9,960.2,3473.4,3479.5,679.9,890.7,392.6,3497.8,771.1,723.3,3488.0,3477.1,385.6,573.8,420.8,517.1,251.5,243.9,3478.3,3479.5,656.2,463.2,631.1,1073.8,1178.8,512.3,-4.0,28.0,1.0,9047.0,9796.0,8340.0,4589.0,-5.0,-10.0,-9.0,3.0,16.0,12.0,5794.0,3805.0,11192.0,9753.0,13.0,-10.0,18.0,1.0
2022-05-08 16:15:03.281211-07:00,857.0,1122.6,1520.8,1066.0,772.8,517.9,1573.9,960.2,3479.5,3481.9,679.9,890.7,389.5,3497.8,771.1,723.3,3488.0,3477.1,387.2,579.4,420.8,517.1,250.8,247.0,3478.3,3479.5,656.2,466.4,631.1,1073.8,1177.9,503.6,-2.0,-1.0,16.0,9054.0,9786.0,8346.0,4588.0,4.0,11.0,-30.0,4.0,-11.0,27.0,5798.0,3804.0,11183.0,9761.0,-11.0,-4.0,-8.0,1.0
2022-05-08 16:15:03.311228-07:00,857.0,1122.6,1490.3,1069.5,772.8,517.9,1563.7,956.0,3479.5,3481.9,677.4,883.1,389.5,3497.8,771.1,728.2,3474.6,3479.5,387.2,579.4,416.8,512.3,250.8,247.0,3479.5,3488.0,656.2,466.4,631.9,1081.6,1177.9,503.6,6.0,4.0,11.0,9045.0,9792.0,8352.0,4581.0,105.0,38.0,-14.0,3.0,-2.0,0.0,5790.0,3807.0,11193.0,9754.0,71.0,31.0,14.0,1.0
2022-05-08 16:15:03.371173-07:00,855.3,1113.0,1490.3,1069.5,775.3,518.7,1563.7,956.0,3467.4,3478.3,677.4,883.1,389.5,3502.7,771.1,728.2,3474.6,3479.5,387.2,579.4,416.8,512.3,248.5,243.2,3479.5,3488.0,649.7,469.5,631.9,1081.6,1177.0,512.3,8.0,10.0,-14.0,9023.0,9795.0,8379.0,4568.0,-18.0,37.0,-40.0,3.0,1.0,-6.0,5777.0,3805.0,11209.0,9743.0,-4.0,16.0,-14.0,1.0
2022-05-08 16:15:03.431880-07:00,855.3,1113.0,1481.0,1063.4,775.3,517.9,1570.2,956.8,3467.4,3478.3,673.3,884.8,389.5,3497.8,767.0,715.1,3477.1,3474.6,384.8,579.4,416.1,511.5,248.5,243.2,3473.4,3488.0,647.3,469.5,631.1,1076.4,1177.0,512.3,-1.0,2.0,-6.0,9026.0,9795.0,8378.0,4566.0,41.0,-43.0,25.0,-4.0,-6.0,-9.0,5778.0,3805.0,11207.0,9745.0,9.0,-11.0,16.0,1.0
2022-05-08 16:15:03.461055-07:00,851.1,1119.1,1475.5,1063.4,772.0,517.9,1570.2,956.8,3477.1,3472.2,673.3,884.8,388.7,3497.8,767.0,715.1,3477.1,3474.6,384.8,578.6,416.1,509.1,249.2,250.0,3473.4,3488.0,647.3,467.1,631.1,1076.4,1182.3,502.0,12.0,-8.0,9.0,9031.0,9802.0,8367.0,4560.0,-28.0,-5.0,-1.0,6.0,-25.0,5.0,5783.0,3809.0,11201.0,9748.0,-39.0,-20.0,5.0,1.0
2022-05-08 16:15:03.521770-07:00,851.1,1119.1,1475.5,1065.1,772.0,518.7,1555.3,958.5,3477.1,3472.2,673.3,889.8,388.7,3494.1,766.2,724.1,3483.2,3472.2,384.0,578.6,422.3,509.1,249.2,250.0,3480.7,3472.2,644.9,467.1,632.7,1076.4,1182.3,502.0,0.0,9.0,14.0,9025.0,9809.0,8370.0,4551.0,80.0,-14.0,-14.0,4.0,-1.0,14.0,5783.0,3811.0,11203.0,9745.0,39.0,10.0,1.0,1.0
2022-05-08 16:15:03.581767-07:00,856.2,1112.1,1476.4,1065.1,768.7,518.7,1555.3,958.5,3483.2,3480.7,675.0,889.8,385.6,3494.1,766.2,724.1,3483.2,3472.2,384.0,581.0,422.3,509.9,247.7,243.9,3480.7,3472.2,644.9,466.4,632.7,1078.2,1178.8,502.0,8.0,-10.0,8.0,9020.0,9808.0,8378.0,4548.0,-47.0,62.0,-15.0,5.0,-21.0,5.0,5779.0,3809.0,11206.0,9745.0,-28.0,7.0,-1.0,1.0
2022-05-08 16:15:03.611692-07:00,856.2,1112.1,1476.4,1060.8,768.7,513.9,1545.0,948.3,3483.2,3480.7,675.0,890.7,385.6,3500.2,764.5,724.1,3484.4,3477.1,386.4,581.0,417.6,509.9,247.7,243.9,3483.2,3488.0,642.4,466.4,634.3,1078.2,1178.8,502.0,1.0,10.0,-10.0,9012.0,9801.0,8393.0,4553.0,23.0,5.0,-30.0,3.0,4.0,0.0,5774.0,3806.0,11209.0,9745.0,26.0,18.0,-9.0,1.0
2022-05-08 16:15:03.791274-07:00,853.7,1104.3,1474.6,1060.8,772.0,513.9,1545.0,948.3,3480.7,3478.3,669.3,890.7,391.8,3500.2,764.5,724.1,3484.4,3477.1,386.4,581.8,417.6,509.9,247.7,250.0,3483.2,3488.0,642.4,464.0,634.3,1076.4,1174.4,507.5,0.0,-14.0,-7.0,9018.0,9801.0,8390.0,4545.0,25.0,-54.0,38.0,1.0,-8.0,0.0,5771.0,3804.0,11213.0,9743.0,20.0,-8.0,24.0,1.0
2022-05-08 16:15:03.792732-07:00,853.7,1104.3,1474.6,1063.4,765.3,511.5,1551.5,950.9,3480.7,3478.3,669.3,892.4,388.7,3500.2,767.0,723.3,3477.1,3483.2,386.4,575.4,416.1,509.9,247.7,250.0,3481.9,3480.7,640.0,464.0,627.0,1076.4,1174.4,507.5,4.0,19.0,5.0,9020.0,9818.0,8374.0,4533.0,24.0,-36.0,-20.0,3.0,13.0,11.0,5768.0,3815.0,11210.0,9744.0,15.0,-10.0,16.0,1.0
2022-05-08 16:15:03.793524-07:00,854.5,1109.5,1469.0,1062.5,765.3,511.5,1551.5,950.9,3477.1,3472.2,669.3,889.8,388.7,3500.2,767.0,723.3,3477.1,3483.2,386.4,575.4,418.4,509.1,248.5,247.7,3481.9,3480.7,640.0,464.0,634.3,1078.2,1176.2,505.9,3.0,-16.0,26.0,9015.0,9833.0,8377.0,4508.0,140.0,-8.0,34.0,9.0,-23.0,7.0,5759.0,3819.0,11209.0,9749.0,123.0,16.0,35.0,1.0
2022-05-08 16:15:03.821465-07:00,854.5,1109.5,1469.0,1062.5,757.9,515.5,1567.4,991.9,3477.1,3472.2,669.3,889.8,395.0,3496.6,767.8,728.2,3469.8,3475.9,384.0,575.4,418.4,509.1,248.5,247.7,3488.0,3480.7,638.4,470.3,634.3,1078.2,1176.2,505.9,-4.0,29.0,-7.0,8984.0,9859.0,8384.0,4499.0,14.0,9.0,-19.0,-2.0,11.0,0.0,5739.0,3827.0,11223.0,9741.0,34.0,26.0,4.0,1.0
2022-05-08 16:15:03.881207-07:00,857.0,1115.6,1473.6,1070.3,757.9,515.5,1567.4,991.9,3475.9,3483.2,673.3,889.0,395.0,3496.6,767.8,728.2,3469.8,3475.9,384.0,575.4,419.2,505.1,249.2,248.5,3488.0,3480.7,638.4,470.3,629.5,1105.1,1171.8,505.9,0.0,-24.0,3.0,8978.0,9859.0,8398.0,4485.0,77.0,19.0,-9.0,0.0,-18.0,0.0,5727.0,3829.0,11238.0,9730.0,74.0,6.0,19.0,1.0
2022-05-08 16:15:03.941072-07:00,857.0,1115.6,1473.6,1070.3,765.3,512.3,1571.1,976.5,3475.9,3483.2,673.3,889.0,391.8,3500.2,767.8,724.1,3483.2,3475.9,392.6,583.5,419.2,505.1,249.2,248.5,3490.5,3479.5,640.8,469.5,629.5,1105.1,1171.8,505.9,8.0,24.0,-18.0,8958.0,9876.0,8403.0,4478.0,-32.0,-19.0,11.0,3.0,3.0,2.0,5718.0,3832.0,11241.0,9731.0,-23.0,4.0,10.0,1.0
2022-05-08 16:15:04.120668-07:00,852.8,1117.4,1462.6,1070.3,765.3,512.3,1571.1,976.5,3478.3,3477.1,670.1,888.2,391.8,3500.2,767.8,724.1,3483.2,3475.9,392.6,583.5,420.8,512.3,244.7,250.0,3490.5,3479.5,640.8,469.5,628.6,1072.9,1176.2,509.1,3.0,-6.0,7.0,8970.0,9876.0,8393.0,4473.0,37.0,-34.0,-7.0,1.0,-7.0,9.0,5718.0,3831.0,11239.0,9734.0,18.0,4.0,8.0,1.0
2022-05-08 16:15:04.121830-07:00,852.8,1117.4,1462.6,1070.3,757.9,512.3,1559.0,967.9,3478.3,3477.1,670.1,888.2,388.7,3496.6,767.8,718.4,3477.1,3477.1,386.4,580.2,420.8,512.3,244.7,250.0,3473.4,3477.1,629.5,467.9,628.6,1072.9,1176.2,509.1,-5.0,9.0,9.0,8967.0,9881.0,8393.0,4466.0,-19.0,4.0,-5.0,0.0,5.0,21.0,5719.0,3833.0,11238.0,9734.0,-16.0,-7.0,2.0,1.0
2022-05-08 16:15:04.122827-07:00,856.2,1113.9,1470.9,1063.4,757.9,512.3,1559.0,973.9,3473.4,3475.9,668.4,889.0,388.7,3496.6,767.8,724.1,3481.9,3477.1,386.4,580.2,417.6,505.9,249.2,245.4,3488.0,3477.1,629.5,467.9,630.3,1076.4,1182.3,505.9,4.0,2.0,8.0,8966.0,9884.0,8394.0,4460.0,36.0,-1.0,-18.0,1.0,-12.0,5.0,5718.0,3834.0,11240.0,9732.0,24.0,6.0,1.0,1.0
2022-05-08 16:15:04.123919-07:00,854.5,1113.9,1470.9,1063.4,769.5,506.7,1540.3,973.9,3483.2,3475.9,668.4,889.0,391.1,3502.7,770.3,724.1,3481.9,3488.0,384.0,579.4,417.6,505.9,249.2,250.0,3488.0,3479.5,631.1,467.9,630.3,1076.4,1182.3,505.9,3.0,-6.0,-2.0,8960.0,9887.0,8402.0,4452.0,3.0,-14.0,4.0,1.0,-6.0,5.0,5715.0,3834.0,11243.0,9729.0,2.0,4.0,4.0,1.0
2022-05-08 16:15:04.181354-07:00,854.5,1112.1,1473.6,1057.3,769.5,506.7,1540.3,971.3,3483.2,3472.2,670.9,889.8,391.1,3502.7,770.3,725.8,3473.4,3488.0,384.0,579.4,420.0,509.9,249.2,250.0,3488.0,3479.5,631.1,467.9,631.1,1074.7,1177.0,505.9,-1.0,15.0,-2.0,8961.0,9891.0,8395.0,4454.0,1.0,-11.0,17.0,1.0,7.0,9.0,5716.0,3836.0,11242.0,9729.0,-7.0,-11.0,5.0,1.0
2022-05-08 16:15:04.211105-07:00,852.0,1112.1,1473.6,1057.3,757.1,507.5,1559.9,971.3,3472.2,3472.2,670.9,889.8,393.4,3500.2,772.0,725.8,3473.4,3485.6,387.9,581.0,420.0,509.9,249.2,250.8,3488.0,3481.9,630.3,466.4,631.1,1074.7,1177.0,505.9,1.0,-5.0,9.0,8970.0,9896.0,8384.0,4446.0,32.0,-41.0,3.0,0.0,-8.0,0.0,5718.0,3836.0,11239.0,9732.0,18.0,-3.0,8.0,1.0
2022-05-08 16:15:04.271113-07:00,852.0,1106.0,1458.9,1061.7,757.1,507.5,1559.9,964.5,3472.2,3472.2,671.7,883.9,393.4,3500.2,772.0,720.8,3483.2,3485.6,387.9,581.0,417.6,512.3,247.7,250.8,3480.7,3481.9,630.3,466.4,628.6,1079.0,1171.8,505.9,-6.0,11.0,17.0,8961.0,9905.0,8386.0,4438.0,4.0,23.0,2.0,2.0,-5.0,20.0,5716.0,3840.0,11241.0,9729.0,3.0,7.0,8.0,1.0
2022-05-08 16:15:04.331695-07:00,852.0,1106.0,1458.9,1061.7,761.2,502.0,1540.3,964.5,3480.7,3472.2,671.7,883.9,389.5,3495.3,766.2,720.8,3483.2,3472.2,382.5,582.6,417.6,512.3,247.7,243.9,3480.7,3483.2,625.4,464.0,628.6,1079.0,1171.8,502.8,0.0,-8.0,-5.0,8963.0,9904.0,8386.0,4439.0,-3.0,-19.0,3.0,2.0,-11.0,5.0,5716.0,3839.0,11240.0,9731.0,9.0,8.0,1.0,1.0
2022-05-08 16:15:04.361009-07:00,852.0,1105.1,1464.4,1059.9,761.2,502.0,1537.6,960.2,3480.7,3478.3,672.5,892.4,389.5,3495.3,773.6,720.0,3475.9,3477.1,382.5,582.6,422.3,511.5,247.7,243.9,3494.1,3478.3,625.4,464.0,634.3,1078.2,1178.8,502.8,-4.0,12.0,2.0,8957.0,9916.0,8383.0,4428.0,31.0,-8.0,-8.0,-1.0,8.0,6.0,5713.0,3843.0,11246.0,9724.0,13.0,2.0,1.0,1.0
2022-05-08 16:15:04.451918-07:00,855.3,1105.1,1464.4,1059.9,758.7,505.9,1537.6,960.2,3477.1,3471.0,672.5,892.4,390.3,3491.7,773.6,720.0,3475.9,3477.1,381.7,577.0,422.3,511.5,247.0,245.4,3494.1,3478.3,625.4,462.4,634.3,1078.2,1179.7,501.2,4.0,0.0,6.0,8962.0,9920.0,8376.0,4420.0,2.0,-37.0,9.0,1.0,-10.0,8.0,5713.0,3843.0,11245.0,9725.0,0.0,2.0,10.0,1.0
2022-05-08 16:15:04.511082-07:00,855.3,1105.1,1459.8,1057.3,758.7,505.9,1534.8,971.3,3477.1,3471.0,675.0,882.3,390.3,3491.7,761.2,719.2,3467.4,3481.9,381.7,577.0,416.1,512.3,247.0,245.4,3479.5,3477.1,625.4,462.4,626.2,1079.9,1179.7,501.2,11.0,5.0,6.0,8969.0,9928.0,8367.0,4408.0,23.0,-44.0,-2.0,3.0,3.0,-2.0,5710.0,3847.0,11247.0,9723.0,17.0,7.0,2.0,1.0
2022-05-08 16:15:04.541715-07:00,846.1,1105.1,1459.8,1057.3,759.6,505.9,1534.8,971.3,3469.8,3467.4,675.0,882.3,385.6,3491.7,761.2,719.2,3467.4,3481.9,381.7,577.0,416.1,512.3,246.2,246.2,3479.5,3477.1,622.2,463.2,626.2,1079.9,1176.2,525.8,-5.0,-1.0,1.0,8970.0,9924.0,8369.0,4409.0,-15.0,26.0,-9.0,1.0,-10.0,15.0,5711.0,3846.0,11245.0,9725.0,-8.0,3.0,0.0,1.0
2022-05-08 16:15:04.691084-07:00,846.1,1105.1,1456.2,1057.3,759.6,505.9,1528.3,977.3,3469.8,3467.4,669.3,891.5,385.6,3491.7,766.2,723.3,3477.1,3474.6,381.7,577.0,415.3,505.9,246.2,246.2,3474.6,3480.7,622.2,463.2,628.6,1078.2,1176.2,525.8,0.0,0.0,4.0,8969.0,9923.0,8375.0,4403.0,26.0,-8.0,-16.0,0.0,-3.0,3.0,5709.0,3845.0,11247.0,9724.0,14.0,8.0,-4.0,1.0
2022-05-08 16:15:04.692164-07:00,848.6,1098.2,1456.2,1057.3,761.2,498.8,1528.3,977.3,3478.3,3463.7,669.3,891.5,393.4,3500.2,766.2,723.3,3477.1,3474.6,383.3,585.1,415.3,505.9,247.7,249.2,3474.6,3480.7,627.8,464.0,628.6,1078.2,1169.1,500.4,3.0,-5.0,4.0,8971.0,9923.0,8375.0,4400.0,2.0,5.0,2.0,1.0,-11.0,-1.0,5710.0,3844.0,11245.0,9726.0,4.0,-2.0,1.0,1.0
2022-05-08 16:15:04.721801-07:00,848.6,1098.2,1455.2,1057.3,761.2,498.8,1531.0,971.3,3478.3,3463.7,666.0,894.1,393.4,3489.2,767.0,725.8,3467.4,3475.9,384.0,585.1,423.9,507.5,247.7,249.2,3479.5,3477.1,621.4,464.0,631.1,1082.5,1169.1,500.4,-4.0,1.0,10.0,8970.0,9919.0,8380.0,4402.0,-24.0,10.0,-18.0,0.0,-1.0,14.0,5710.0,3843.0,11244.0,9728.0,-1.0,10.0,-3.0,1.0
2022-05-08 16:15:04.722656-07:00,843.6,1095.6,1449.7,1057.3,756.3,498.8,1531.0,971.3,3479.5,3478.3,672.5,894.1,390.3,3489.2,767.0,725.8,3467.4,3475.9,384.0,578.6,423.9,505.9,252.3,246.2,3479.5,3477.1,621.4,464.8,631.1,1077.3,1170.0,498.0,7.0,0.0,4.0,8965.0,9922.0,8381.0,4400.0,-8.0,11.0,14.0,3.0,-5.0,9.0,5709.0,3844.0,11246.0,9726.0,-5.0,5.0,7.0,1.0
2022-05-08 16:15:04.811324-07:00,843.6,1095.6,1449.7,1059.1,756.3,503.6,1528.3,970.5,3479.5,3478.3,672.5,892.4,390.3,3506.3,769.5,723.3,3480.7,3473.4,384.0,578.6,420.0,505.9,252.3,246.2,3474.6,3469.8,620.5,464.8,639.2,1077.3,1170.0,498.0,7.0,15.0,0.0,8959.0,9925.0,8385.0,4399.0,33.0,21.0,-17.0,4.0,0.0,2.0,5708.0,3846.0,11249.0,9723.0,14.0,8.0,-7.0,1.0
2022-05-08 16:15:04.814001-07:00,854.5,1106.9,1458.9,1059.1,754.6,503.6,1528.3,970.5,3479.5,3480.7,673.3,892.4,395.0,3506.3,769.5,723.3,3480.7,3473.4,384.0,582.6,420.0,509.1,250.8,247.7,3474.6,3469.8,620.5,466.4,639.2,1080.8,1177.0,505.9,1.0,0.0,9.0,8957.0,9923.0,8391.0,4397.0,1.0,10.0,4.0,0.0,-4.0,6.0,5709.0,3845.0,11249.0,9723.0,-8.0,0.0,0.0,1.0
2022-05-08 16:15:04.901828-07:00,854.5,1106.9,1458.9,1059.9,754.6,513.1,1518.0,969.6,3479.5,3480.7,673.3,887.3,395.0,3486.8,772.0,725.8,3478.3,3483.2,384.8,582.6,416.8,509.1,250.8,247.7,3477.1,3471.0,619.7,466.4,631.1,1080.8,1177.0,505.9,4.0,6.0,3.0,8958.0,9921.0,8389.0,4403.0,-22.0,14.0,7.0,0.0,-7.0,-5.0,5709.0,3845.0,11248.0,9724.0,-15.0,-4.0,-2.0,1.0
2022-05-08 16:15:04.931195-07:00,853.7,1093.8,1447.9,1059.9,762.0,513.1,1518.0,969.6,3472.2,3468.6,670.1,887.3,390.3,3486.8,772.0,725.8,3478.3,3483.2,384.8,580.2,416.8,506.7,250.8,246.2,3477.1,3471.0,619.7,465.6,631.1,1079.0,1172.6,501.2,6.0,0.0,3.0,8954.0,9922.0,8392.0,4403.0,34.0,-4.0,6.0,3.0,-6.0,3.0,5709.0,3844.0,11247.0,9724.0,15.0,-1.0,5.0,1.0
2022-05-08 16:15:04.961544-07:00,853.7,1093.8,1447.9,1061.7,758.7,500.4,1510.6,970.5,3472.2,3468.6,670.1,890.7,392.6,3500.2,761.2,718.4,3483.2,3480.7,384.8,578.6,416.8,506.7,250.8,246.2,3490.5,3480.7,624.6,467.1,629.5,1079.0,1172.6,501.2,10.0,13.0,2.0,8950.0,9925.0,8394.0,4401.0,4.0,18.0,4.0,3.0,0.0,-3.0,5709.0,3845.0,11248.0,9723.0,-4.0,-4.0,-1.0,1.0
2022-05-08 16:15:05.020914-07:00,847.0,1098.2,1447.9,1058.2,758.7,500.4,1510.6,970.5,3478.3,3477.1,667.6,888.2,392.6,3500.2,761.2,718.4,3483.2,3480.7,384.8,578.6,422.3,507.5,247.7,243.9,3490.5,3480.7,624.6,467.1,631.1,1075.6,1171.8,502.0,-2.0,7.0,1.0,8945.0,9921.0,8400.0,4408.0,14.0,8.0,-1.0,0.0,-2.0,3.0,5708.0,3843.0,11248.0,9725.0,14.0,13.0,-2.0,1.0
2022-05-08 16:15:05.110804-07:00,847.0,1098.2,1447.9,1058.2,756.3,501.2,1513.4,967.1,3478.3,3477.1,667.6,888.2,394.2,3494.1,765.3,724.1,3477.1,3490.5,383.3,578.6,422.3,507.5,247.7,243.9,3488.0,3478.3,615.7,463.2,631.1,1075.6,1171.8,502.0,6.0,-5.0,0.0,8944.0,9922.0,8400.0,4407.0,4.0,5.0,-3.0,1.0,-9.0,0.0,5706.0,3843.0,11250.0,9723.0,6.0,0.0,3.0,1.0
2022-05-08 16:15:05.111918-07:00,842.8,1088.6,1455.2,1059.9,756.3,501.2,1513.4,967.1,3479.5,3474.6,670.9,889.8,394.2,3494.1,765.3,724.1,3477.1,3490.5,383.3,578.6,419.2,509.1,251.5,250.8,3488.0,3478.3,615.7,463.2,631.1,1075.6,1175.3,498.8,2.0,7.0,4.0,8942.0,9924.0,8401.0,4406.0,-1.0,-5.0,-9.0,2.0,-2.0,5.0,5706.0,3843.0,11250.0,9723.0,0.0,4.0,-3.0,1.0
2022-05-08 16:15:05.231294-07:00,842.8,1088.6,1455.2,1059.9,763.7,499.6,1514.3,967.1,3479.5,3474.6,670.9,889.8,390.3,3491.7,762.9,724.1,3484.4,3484.4,387.9,583.5,419.2,509.1,251.5,250.8,3481.9,3475.9,621.4,460.0,631.1,1075.6,1175.3,498.8,0.0,-2.0,2.0,8945.0,9926.0,8396.0,4406.0,6.0,-23.0,25.0,1.0,-7.0,0.0,5706.0,3843.0,11250.0,9723.0,8.0,-1.0,11.0,1.0
2022-05-08 16:15:05.232962-07:00,841.9,1089.5,1448.8,1058.2,763.7,499.6,1514.3,967.1,3467.4,3472.2,659.5,889.0,390.3,3491.7,762.9,724.1,3484.4,3484.4,387.9,583.5,416.8,509.9,250.8,245.4,3481.9,3475.9,621.4,460.0,628.6,1080.8,1178.8,502.8,3.0,18.0,1.0,8943.0,9934.0,8392.0,4399.0,0.0,-8.0,-14.0,2.0,9.0,6.0,5704.0,3844.0,11252.0,9722.0,-11.0,-5.0,-4.0,1.0
2022-05-08 16:15:05.291130-07:00,843.6,1089.5,1448.8,1058.2,754.6,495.6,1510.6,959.4,3474.6,3472.2,659.5,889.0,391.1,3494.1,764.5,719.2,3477.1,3473.4,382.5,580.2,416.8,509.9,250.8,250.0,3477.1,3479.5,607.6,467.9,628.6,1080.8,1178.8,501.2,1.0,-5.0,11.0,8946.0,9930.0,8393.0,4401.0,7.0,16.0,9.0,2.0,-9.0,11.0,5705.0,3844.0,11250.0,9723.0,-1.0,0.0,2.0,1.0
2022-05-08 16:15:05.320945-07:00,843.6,1091.2,1447.0,1060.8,754.6,495.6,1510.6,961.1,3474.6,3478.3,666.0,904.2,391.1,3494.1,764.5,725.8,3488.0,3473.4,382.5,580.2,420.8,509.1,247.0,250.0,3483.2,3479.5,607.6,467.9,627.0,1077.3,1181.5,501.2,3.0,10.0,1.0,8944.0,9931.0,8392.0,4402.0,4.0,-5.0,-10.0,0.0,-2.0,-2.0,5705.0,3844.0,11250.0,9723.0,2.0,7.0,-4.0,1.0
2022-05-08 16:15:05.381319-07:00,855.3,1091.2,1447.0,1060.8,752.9,502.8,1510.6,961.1,3479.5,3478.3,666.0,904.2,389.5,3496.6,769.5,725.8,3488.0,3481.9,382.5,577.8,420.8,509.1,247.0,255.3,3483.2,3486.8,618.1,467.1,627.0,1077.3,1181.5,498.8,0.0,-5.0,5.0,8940.0,9928.0,8399.0,4404.0,6.0,29.0,14.0,1.0,-5.0,7.0,5705.0,3844.0,11250.0,9723.0,2.0,4.0,4.0,1.0
2022-05-08 16:15:05.471173-07:00,855.3,1092.9,1445.1,1059.1,752.9,502.8,1510.6,960.2,3479.5,3477.1,670.1,889.0,389.5,3496.6,769.5,722.5,3475.9,3481.9,382.5,577.8,420.0,507.5,243.9,255.3,3484.4,3486.8,618.1,467.1,629.5,1082.5,1175.3,498.8,3.0,7.0,3.0,8935.0,9928.0,8402.0,4410.0,11.0,5.0,-5.0,2.0,-3.0,7.0,5705.0,3844.0,11250.0,9724.0,10.0,6.0,-6.0,1.0
2022-05-08 16:15:05.472339-07:00,841.9,1092.9,1445.1,1059.1,756.3,502.8,1507.8,960.2,3471.0,3477.1,670.1,889.0,389.5,3499.0,764.5,722.5,3475.9,3479.5,384.8,581.8,420.0,507.5,243.9,248.5,3484.4,3483.2,612.5,464.8,629.5,1082.5,1175.3,498.0,4.0,4.0,7.0,8931.0,9930.0,8405.0,4409.0,19.0,21.0,5.0,1.0,7.0,5.0,5704.0,3844.0,11252.0,9722.0,12.0,6.0,3.0,1.0
2022-05-08 16:15:05.531527-07:00,841.9,1088.6,1452.5,1055.6,756.3,502.8,1507.8,956.0,3471.0,3480.7,671.7,888.2,389.5,3499.0,764.5,723.3,3477.1,3479.5,384.8,581.8,420.0,505.1,246.2,248.5,3479.5,3483.2,612.5,464.8,626.2,1075.6,1175.3,498.0,0.0,2.0,6.0,8923.0,9933.0,8408.0,4412.0,17.0,13.0,14.0,1.0,1.0,1.0,5703.0,3847.0,11254.0,9719.0,22.0,0.0,-2.0,1.0
2022-05-08 16:15:05.561069-07:00,852.0,1095.6,1452.5,1055.6,751.3,502.8,1515.3,956.0,3480.7,3471.0,671.7,888.2,385.6,3507.5,762.0,723.3,3477.1,3477.1,385.6,579.4,420.0,505.1,245.4,245.4,3479.5,3474.6,613.3,464.0,626.2,1075.6,1175.3,497.2,-1.0,7.0,7.0,8916.0,9935.0,8411.0,4415.0,-9.0,35.0,24.0,0.0,6.0,5.0,5703.0,3847.0,11255.0,9718.0,-8.0,-9.0,-12.0,1.0
2022-05-08 16:15:05.651934-07:00,852.0,1095.6,1452.5,1060.8,751.3,502.8,1506.9,962.0,3480.7,3471.0,668.4,891.5,385.6,3507.5,764.5,723.3,3479.5,3488.0,385.6,579.4,421.5,506.7,245.4,245.4,3477.1,3472.2,613.3,464.0,630.3,1072.9,1175.3,497.2,-26.0,77.0,-8.0,8904.0,9930.0,8418.0,4437.0,-143.0,33.0,-7.0,3.0,39.0,37.0,5724.0,3832.0,11243.0,9726.0,-123.0,-31.0,-76.0,1.0
2022-05-08 16:15:05.771149-07:00,848.6,1095.6,1452.5,1060.8,758.7,501.2,1506.9,962.0,3474.6,3477.1,668.4,891.5,395.7,3492.9,764.5,723.3,3479.5,3488.0,383.3,577.8,421.5,506.7,244.7,247.0,3477.1,3472.2,616.5,460.0,630.3,1072.9,1176.2,503.6,19.0,-32.0,-46.0,9008.0,9864.0,8348.0,4503.0,-427.0,-135.0,128.0,-9.0,-6.0,-78.0,5799.0,3780.0,11163.0,9794.0,-388.0,-146.0,-77.0,1.0
2022-05-08 16:15:05.800899-07:00,848.6,1095.6,1462.6,1092.9,758.7,501.2,1579.6,1111.2,3474.6,3477.1,669.3,889.8,395.7,3492.9,772.0,725.8,3471.0,3474.6,383.3,577.8,417.6,508.3,244.7,247.0,3475.9,3485.6,616.5,460.0,627.0,1079.0,1176.2,503.6,-21.0,53.0,43.0,9074.0,9789.0,8297.0,4629.0,-497.0,285.0,44.0,6.0,-9.0,62.0,5961.0,3741.0,11037.0,9853.0,-484.0,-339.0,-230.0,1.0
2022-05-08 16:15:05.801995-07:00,856.2,1141.9,1462.6,1092.9,761.2,502.8,1579.6,1111.2,3472.2,3474.6,669.3,889.8,390.3,3499.0,772.0,725.8,3471.0,3474.6,384.0,579.4,417.6,508.3,243.9,245.4,3475.9,3485.6,633.5,460.8,627.0,1079.0,1177.9,498.8,-23.0,-10.0,24.0,9170.0,9653.0,8261.0,4787.0,-386.0,79.0,127.0,19.0,41.0,10.0,6160.0,3700.0,10876.0,9926.0,-201.0,-516.0,-240.0,1.0
2022-05-08 16:15:05.831855-07:00,856.2,1141.9,1502.3,1086.0,761.2,502.8,1607.7,1146.3,3472.2,3474.6,670.9,884.8,390.3,3499.0,781.1,725.8,3485.6,3483.2,384.0,579.4,416.8,512.3,243.9,245.4,3480.7,3480.7,633.5,460.8,627.8,1081.6,1177.9,498.8,14.0,-55.0,21.0,9178.0,9598.0,8223.0,4946.0,-21.0,256.0,225.0,3.0,-60.0,27.0,6343.0,3717.0,10734.0,9958.0,-187.0,-265.0,-55.0,1.0
2022-05-08 16:15:05.921124-07:00,855.3,1094.7,1506.9,1086.0,788.6,502.8,1607.7,1146.3,3481.9,3474.6,668.4,884.8,390.3,3507.5,781.1,725.8,3485.6,3483.2,387.2,581.8,416.8,518.7,250.8,243.9,3480.7,3480.7,629.5,459.3,627.8,1076.4,1186.7,504.4,18.0,7.0,-31.0,9180.0,9618.0,8164.0,5002.0,-95.0,-167.0,49.0,27.0,-21.0,-35.0,6383.0,3721.0,10712.0,9955.0,-45.0,-107.0,-58.0,1.0
2022-05-08 16:15:05.922315-07:00,855.3,1094.7,1506.9,1079.9,788.6,501.2,1639.8,1034.0,3481.9,3474.6,668.4,892.4,390.3,3499.0,780.3,725.8,3488.0,3473.4,392.6,581.8,417.6,518.7,250.8,243.9,3488.0,3474.6,629.5,459.3,623.8,1076.4,1186.7,504.4,5.0,8.0,28.0,9210.0,9632.0,8116.0,4998.0,-28.0,-26.0,26.0,6.0,1.0,22.0,6409.0,3723.0,10701.0,9949.0,15.0,2.0,-27.0,1.0
2022-05-08 16:15:06.011368-07:00,853.7,1063.4,1532.0,1079.9,842.8,501.2,1639.8,1034.0,3473.4,3472.2,673.3,892.4,391.8,3499.0,780.3,725.8,3488.0,3473.4,392.6,578.6,417.6,517.9,243.9,256.9,3488.0,3474.6,629.5,451.4,623.8,1079.9,1189.4,550.6,7.0,-3.0,0.0,9218.0,9633.0,8101.0,5006.0,-26.0,-33.0,26.0,10.0,2.0,2.0,6403.0,3715.0,10720.0,9935.0,11.0,22.0,-16.0,1.0
2022-05-08 16:15:06.014106-07:00,853.7,1063.4,1532.0,1085.1,842.8,495.6,1619.9,996.2,3473.4,3472.2,673.3,892.4,391.8,3497.8,783.6,722.5,3477.1,3474.6,384.0,578.6,415.3,517.9,243.9,256.9,3484.4,3480.7,623.8,451.4,628.6,1079.9,1189.4,550.6,-6.0,14.0,-20.0,9233.0,9614.0,8090.0,5030.0,-105.0,32.0,-8.0,6.0,4.0,11.0,6401.0,3704.0,10711.0,9951.0,-56.0,33.0,0.0,1.0
2022-05-08 16:15:06.071053-07:00,852.0,1049.6,1550.6,1085.1,868.8,495.6,1619.9,996.2,3485.6,3478.3,666.0,892.4,387.9,3497.8,783.6,722.5,3477.1,3474.6,384.0,580.2,415.3,521.8,243.2,248.5,3484.4,3480.7,623.8,455.3,628.6,1084.2,1177.9,550.6,8.0,-8.0,0.0,9253.0,9601.0,8087.0,5024.0,-19.0,-22.0,-44.0,2.0,-7.0,-9.0,6402.0,3695.0,10707.0,9958.0,-38.0,0.0,-6.0,1.0
2022-05-08 16:15:06.131315-07:00,852.0,1049.6,1550.6,1081.6,868.8,495.6,1579.6,983.3,3485.6,3478.3,666.0,880.6,387.9,3490.5,778.6,723.3,3472.2,3475.9,386.4,580.2,416.8,521.8,243.2,248.5,3477.1,3480.7,627.8,455.3,624.6,1084.2,1177.9,550.6,-9.0,-12.0,11.0,9261.0,9576.0,8099.0,5038.0,-61.0,58.0,-10.0,16.0,-17.0,35.0,6405.0,3689.0,10698.0,9967.0,-8.0,8.0,2.0,1.0
2022-05-08 16:15:06.191165-07:00,846.1,1036.6,1555.3,1076.4,854.5,495.6,1579.6,983.3,3478.3,3479.5,675.0,888.2,390.3,3490.5,778.6,723.3,3472.2,3475.9,386.4,580.2,416.8,519.5,249.2,245.4,3477.1,3480.7,627.8,454.5,626.2,1082.5,1184.1,541.8,15.0,3.0,-3.0,9265.0,9577.0,8093.0,5039.0,-29.0,-35.0,3.0,8.0,-4.0,-13.0,6404.0,3684.0,10695.0,9973.0,-42.0,9.0,1.0,1.0
2022-05-08 16:15:06.221065-07:00,846.1,1036.6,1555.3,1076.4,844.4,500.4,1582.4,974.8,3478.3,3479.5,675.0,888.2,391.1,3491.7,777.8,724.1,3479.5,3474.6,387.9,579.4,416.8,519.5,249.2,245.4,3477.1,3479.5,628.6,449.8,626.2,1082.5,1184.1,541.8,-5.0,7.0,6.0,9266.0,9571.0,8095.0,5044.0,20.0,47.0,-16.0,2.0,2.0,3.0,6405.0,3682.0,10693.0,9976.0,10.0,10.0,-4.0,1.0
2022-05-08 16:15:06.281928-07:00,849.5,1028.0,1568.3,1074.7,844.4,500.4,1582.4,974.8,3478.3,3469.8,670.1,888.2,391.1,3491.7,777.8,724.1,3479.5,3474.6,387.9,579.4,415.3,517.9,250.8,247.0,3477.1,3479.5,628.6,449.8,627.0,1075.6,1190.3,545.8,-3.0,2.0,-14.0,9260.0,9569.0,8104.0,5044.0,5.0,-35.0,9.0,8.0,-4.0,11.0,6400.0,3679.0,10697.0,9976.0,-1.0,8.0,3.0,1.0
2022-05-08 16:15:06.311200-07:00,849.5,1028.0,1568.3,1074.7,847.8,498.8,1563.7,976.5,3478.3,3469.8,670.1,888.2,391.1,3497.8,771.1,725.8,3483.2,3484.4,384.8,580.2,415.3,517.9,250.8,247.0,3479.5,3486.8,629.5,451.4,627.0,1075.6,1190.3,545.8,5.0,7.0,5.0,9277.0,9573.0,8084.0,5038.0,-21.0,-21.0,-5.0,6.0,-2.0,-4.0,6401.0,3676.0,10691.0,9983.0,-12.0,4.0,4.0,1.0
2022-05-08 16:15:06.370984-07:00,846.1,1014.2,1558.1,1075.6,847.8,498.8,1563.7,976.5,3474.6,3479.5,666.0,888.2,391.1,3497.8,771.1,725.8,3483.2,3484.4,384.8,580.2,418.4,520.3,247.0,250.8,3479.5,3486.8,629.5,451.4,628.6,1087.7,1181.5,542.6,1.0,-3.0,2.0,9275.0,9572.0,8090.0,5032.0,17.0,-10.0,-6.0,10.0,3.0,20.0,6400.0,3675.0,10690.0,9985.0,-11.0,-8.0,2.0,1.0
2022-05-08 16:15:06.431951-07:00,846.1,1014.2,1558.1,1075.6,845.3,496.4,1551.5,972.2,3474.6,3479.5,666.0,888.2,389.5,3497.8,771.1,725.8,3481.9,3478.3,386.4,578.6,418.4,520.3,247.0,250.8,3478.3,3480.7,630.3,454.5,628.6,1087.7,1181.5,542.6,11.0,13.0,-7.0,9288.0,9574.0,8073.0,5034.0,-23.0,-43.0,26.0,6.0,0.0,-8.0,6401.0,3672.0,10681.0,9995.0,-14.0,4.0,11.0,1.0
2022-05-08 16:15:06.461161-07:00,849.5,1015.9,1559.0,1075.6,845.3,496.4,1551.5,973.9,3485.6,3477.1,671.7,888.2,389.5,3497.8,771.1,725.8,3475.9,3478.3,386.4,578.6,418.4,517.9,248.5,249.2,3478.3,3480.7,630.3,454.5,623.8,1075.6,1180.6,539.4,-5.0,-7.0,3.0,9290.0,9568.0,8076.0,5036.0,-19.0,36.0,-26.0,6.0,-7.0,17.0,6400.0,3673.0,10680.0,9996.0,-8.0,9.0,-2.0,1.0
2022-05-08 16:15:06.521132-07:00,846.1,1015.9,1559.0,1075.6,838.6,499.6,1555.3,973.9,3472.2,3477.1,671.7,888.2,391.1,3497.8,772.8,725.8,3475.9,3474.6,392.6,580.2,418.4,517.9,248.5,243.2,3478.3,3486.8,623.8,450.6,623.8,1075.6,1180.6,535.4,2.0,6.0,-1.0,9293.0,9567.0,8076.0,5033.0,-15.0,-14.0,-6.0,7.0,-1.0,2.0,6399.0,3671.0,10680.0,9998.0,-16.0,5.0,1.0,1.0
2022-05-08 16:15:06.581261-07:00,846.1,1009.0,1559.0,1079.9,838.6,499.6,1555.3,965.4,3472.2,3472.2,673.3,887.3,391.1,3497.8,772.8,720.0,3485.6,3474.6,392.6,580.2,425.5,517.9,243.9,243.2,3484.4,3486.8,623.8,450.6,635.9,1076.4,1176.2,535.4,2.0,6.0,-4.0,9294.0,9566.0,8075.0,5035.0,16.0,-3.0,12.0,6.0,-2.0,-2.0,6399.0,3670.0,10678.0,10000.0,12.0,-1.0,5.0,1.0
2022-05-08 16:15:06.611189-07:00,847.0,1009.0,1559.0,1079.9,827.7,496.4,1546.9,965.4,3479.5,3472.2,673.3,887.3,388.7,3496.6,772.8,720.0,3485.6,3473.4,384.0,579.4,425.5,517.9,243.9,248.5,3484.4,3478.3,624.6,449.0,635.9,1076.4,1176.2,533.8,2.0,2.0,2.0,9294.0,9567.0,8070.0,5040.0,-4.0,2.0,20.0,4.0,-1.0,0.0,6399.0,3671.0,10677.0,10000.0,-7.0,-10.0,7.0,1.0
2022-05-08 16:15:06.671725-07:00,847.0,1009.9,1552.5,1077.3,827.7,496.4,1546.9,963.7,3479.5,3468.6,670.1,886.5,388.7,3496.6,772.8,720.0,3474.6,3473.4,384.0,579.4,410.6,511.5,254.6,248.5,3488.0,3478.3,624.6,449.0,627.8,1066.0,1183.2,533.8,0.0,7.0,2.0,9296.0,9561.0,8067.0,5053.0,-50.0,24.0,0.0,6.0,-1.0,13.0,6402.0,3669.0,10669.0,10007.0,-34.0,-5.0,2.0,1.0
2022-05-08 16:15:06.701344-07:00,842.8,1009.9,1552.5,1077.3,827.7,497.2,1545.0,963.7,3478.3,3468.6,670.1,886.5,391.8,3497.8,772.0,720.0,3474.6,3481.9,380.9,577.8,410.6,511.5,254.6,247.0,3488.0,3477.1,620.5,449.8,627.8,1066.0,1183.2,533.8,1.0,1.0,-5.0,9300.0,9559.0,8064.0,5053.0,5.0,-29.0,-9.0,7.0,3.0,0.0,6402.0,3668.0,10666.0,10011.0,-1.0,5.0,-3.0,1.0
2022-05-08 16:15:06.761844-07:00,842.8,1002.2,1551.5,1077.3,827.7,497.2,1545.0,962.0,3478.3,3479.5,666.8,881.4,391.8,3497.8,772.0,724.1,3480.7,3481.9,380.9,577.8,410.6,513.1,246.2,247.0,3474.6,3477.1,620.5,449.8,620.5,1073.8,1182.3,533.8,7.0,7.0,-4.0,9306.0,9559.0,8059.0,5051.0,-27.0,-2.0,-1.0,10.0,-9.0,3.0,6403.0,3667.0,10664.0,10013.0,-20.0,-7.0,6.0,1.0
2022-05-08 16:15:06.821158-07:00,847.8,995.3,1551.5,1077.3,836.1,499.6,1536.6,962.0,3469.8,3478.3,666.8,881.4,394.2,3500.2,770.3,724.1,3480.7,3483.2,387.9,582.6,410.6,513.1,249.2,256.9,3474.6,3483.2,619.7,450.6,620.5,1073.8,1181.5,530.6,-1.0,11.0,8.0,9304.0,9557.0,8061.0,5054.0,15.0,9.0,1.0,8.0,0.0,17.0,6402.0,3668.0,10664.0,10014.0,15.0,4.0,0.0,1.0
2022-05-08 16:15:06.851688-07:00,847.8,995.3,1546.9,1074.7,836.1,499.6,1530.1,956.0,3469.8,3478.3,669.3,890.7,394.2,3500.2,772.8,721.6,3468.6,3474.6,387.9,582.6,419.2,518.7,249.2,256.9,3471.0,3477.1,619.7,450.6,626.2,1080.8,1181.5,530.6,5.0,6.0,-2.0,9304.0,9559.0,8061.0,5052.0,16.0,-5.0,-5.0,7.0,4.0,-2.0,6401.0,3667.0,10664.0,10015.0,11.0,13.0,0.0,1.0
2022-05-08 16:15:06.911239-07:00,852.0,996.2,1546.9,1074.7,821.0,495.6,1530.1,956.0,3467.4,3472.2,669.3,890.7,392.6,3490.5,772.8,721.6,3468.6,3474.6,386.4,585.9,419.2,518.7,247.7,247.7,3471.0,3477.1,620.5,451.4,626.2,1080.8,1174.4,530.6,1.0,-2.0,-1.0,9301.0,9559.0,8064.0,5053.0,-1.0,9.0,10.0,7.0,-10.0,9.0,6399.0,3668.0,10666.0,10014.0,7.0,-2.0,1.0,1.0
2022-05-08 16:15:07.001082-07:00,852.0,996.2,1543.1,1071.2,821.0,495.6,1528.3,956.8,3467.4,3472.2,668.4,883.9,392.6,3490.5,773.6,725.8,3478.3,3477.1,386.4,585.9,419.2,512.3,247.7,247.7,3477.1,3485.6,620.5,451.4,626.2,1076.4,1174.4,530.6,3.0,5.0,-4.0,9307.0,9562.0,8052.0,5054.0,-14.0,-34.0,12.0,4.0,5.0,-3.0,6400.0,3666.0,10663.0,10017.0,-13.0,-5.0,3.0,1.0
2022-05-08 16:15:07.002532-07:00,847.8,990.2,1543.1,1071.2,811.9,497.2,1528.3,956.8,3477.1,3479.5,668.4,883.9,390.3,3499.0,773.6,725.8,3478.3,3477.1,387.9,575.4,419.2,512.3,250.8,244.7,3477.1,3485.6,621.4,451.4,626.2,1076.4,1174.4,517.9,3.0,-5.0,0.0,9314.0,9565.0,8043.0,5051.0,-1.0,-22.0,19.0,5.0,-4.0,4.0,6402.0,3668.0,10660.0,10018.0,5.0,-15.0,3.0,1.0
2022-05-08 16:15:07.091187-07:00,847.8,990.2,1527.3,1069.5,811.9,497.2,1524.5,957.7,3477.1,3479.5,669.3,886.5,390.3,3499.0,776.1,720.8,3472.2,3478.3,387.9,575.4,418.4,522.6,250.8,244.7,3479.5,3475.9,621.4,451.4,629.5,1074.7,1174.4,517.9,8.0,12.0,9.0,9315.0,9566.0,8036.0,5057.0,-25.0,-5.0,10.0,12.0,-1.0,3.0,6403.0,3670.0,10658.0,10019.0,-4.0,6.0,5.0,1.0
2022-05-08 16:15:07.121130-07:00,851.1,992.7,1537.6,1069.5,818.5,493.2,1524.5,957.7,3475.9,3480.7,674.2,886.5,391.8,3500.2,776.1,720.8,3472.2,3478.3,380.9,577.8,418.4,517.1,246.2,247.0,3479.5,3475.9,618.9,446.7,629.5,1077.3,1192.9,521.8,-5.0,-2.0,3.0,9314.0,9560.0,8039.0,5065.0,-5.0,28.0,-3.0,6.0,-8.0,13.0,6403.0,3669.0,10657.0,10021.0,8.0,11.0,-3.0,1.0
2022-05-08 16:15:07.181148-07:00,851.1,992.7,1537.6,1069.5,818.5,494.0,1517.1,954.3,3475.9,3480.7,674.2,892.4,391.8,3495.3,768.7,725.8,3480.7,3483.2,386.4,577.8,420.8,517.1,246.2,247.0,3472.2,3488.0,618.9,446.7,635.9,1077.3,1192.9,521.8,4.0,3.0,-7.0,9312.0,9561.0,8041.0,5065.0,4.0,0.0,-1.0,6.0,2.0,-5.0,6401.0,3670.0,10659.0,10020.0,4.0,0.0,-1.0,1.0
2022-05-08 16:15:07.211237-07:00,844.4,979.9,1537.6,1069.5,818.5,494.0,1517.1,954.3,3477.1,3474.6,670.1,892.4,392.6,3495.3,768.7,725.8,3480.7,3483.2,386.4,582.6,420.8,521.8,249.2,248.5,3472.2,3488.0,618.9,451.4,635.9,1074.7,1177.9,530.6,-3.0,6.0,0.0,9310.0,9557.0,8044.0,5071.0,1.0,23.0,7.0,8.0,-1.0,11.0,6401.0,3670.0,10658.0,10020.0,-1.0,-7.0,4.0,1.0
2022-05-08 16:15:07.271625-07:00,844.4,979.9,1537.6,1077.3,818.5,494.0,1519.9,954.3,3477.1,3474.6,670.1,892.4,392.6,3496.6,772.0,723.3,3478.3,3480.7,387.2,582.6,416.1,521.8,249.2,248.5,3480.7,3472.2,621.4,451.4,627.0,1074.7,1177.9,530.6,6.0,1.0,6.0,9312.0,9557.0,8043.0,5068.0,6.0,-11.0,-9.0,8.0,-5.0,2.0,6401.0,3670.0,10658.0,10020.0,5.0,3.0,-4.0,1.0
2022-05-08 16:15:07.331274-07:00,843.6,985.0,1550.6,1077.3,816.9,494.0,1519.9,954.3,3480.7,3475.9,671.7,892.4,385.6,3496.6,772.0,723.3,3478.3,3480.7,387.2,580.2,416.1,516.3,249.2,247.0,3480.7,3472.2,621.4,449.8,627.0,1079.0,1200.0,528.2,0.0,2.0,1.0,9308.0,9556.0,8047.0,5072.0,3.0,23.0,7.0,7.0,3.0,4.0,6400.0,3670.0,10659.0,10019.0,-3.0,1.0,1.0,1.0
2022-05-08 16:15:07.362195-07:00,843.6,985.0,1550.6,1070.3,816.9,500.4,1517.1,950.9,3480.7,3475.9,671.7,888.2,385.6,3491.7,772.0,726.6,3480.7,3467.4,379.4,580.2,416.1,516.3,249.2,247.0,3483.2,3472.2,616.5,449.8,627.0,1079.0,1200.0,528.2,2.0,3.0,-9.0,9309.0,9555.0,8047.0,5073.0,12.0,-21.0,6.0,6.0,0.0,0.0,6400.0,3669.0,10659.0,10019.0,-4.0,0.0,1.0,1.0
2022-05-08 16:15:07.451357-07:00,843.6,982.5,1532.9,1077.3,813.5,500.4,1517.1,950.9,3473.4,3469.8,666.8,887.3,392.6,3491.7,772.0,726.6,3480.7,3467.4,379.4,577.0,417.6,515.5,251.5,251.5,3483.2,3472.2,616.5,452.2,627.0,1076.4,1182.3,525.8,2.0,0.0,3.0,9305.0,9558.0,8049.0,5070.0,11.0,12.0,4.0,7.0,-4.0,4.0,6400.0,3670.0,10660.0,10019.0,6.0,-3.0,2.0,1.0
2022-05-08 16:15:07.452844-07:00,843.6,982.5,1532.9,1077.3,812.7,491.7,1517.1,948.3,3473.4,3469.8,666.8,887.3,391.1,3496.6,773.6,719.2,3467.4,3477.1,380.2,580.2,417.6,515.5,251.5,251.5,3467.4,3477.1,615.7,448.2,627.0,1076.4,1182.3,525.8,-1.0,1.0,-1.0,9309.0,9560.0,8045.0,5066.0,-3.0,-44.0,9.0,9.0,-3.0,8.0,6400.0,3670.0,10660.0,10019.0,-7.0,-1.0,2.0,1.0
2022-05-08 16:15:07.541095-07:00,841.1,973.9,1531.0,1072.1,812.7,491.7,1517.1,948.3,3469.8,3477.1,668.4,888.2,391.1,3496.6,773.6,719.2,3467.4,3477.1,380.2,580.2,418.4,514.7,243.9,247.7,3467.4,3477.1,615.7,448.2,622.2,1080.8,1182.3,521.0,7.0,3.0,7.0,9315.0,9561.0,8038.0,5064.0,-20.0,13.0,0.0,7.0,-1.0,5.0,6400.0,3669.0,10659.0,10020.0,-15.0,-6.0,3.0,1.0
2022-05-08 16:15:07.571074-07:00,841.1,973.9,1531.0,1072.1,813.5,496.4,1511.5,951.7,3469.8,3477.1,668.4,888.2,394.2,3486.8,769.5,725.8,3481.9,3479.5,379.4,577.0,418.4,514.7,243.9,247.7,3480.7,3480.7,620.5,449.0,622.2,1080.8,1182.3,521.0,-2.0,5.0,5.0,9314.0,9558.0,8042.0,5066.0,-4.0,-5.0,-10.0,7.0,0.0,10.0,6398.0,3668.0,10661.0,10019.0,6.0,7.0,-7.0,1.0
2022-05-08 16:15:07.600933-07:00,846.1,979.9,1538.5,1067.7,813.5,496.4,1511.5,951.7,3477.1,3474.6,673.3,886.5,394.2,3486.8,769.5,725.8,3481.9,3479.5,379.4,577.0,416.1,517.1,245.4,247.0,3480.7,3480.7,620.5,449.0,620.5,1077.3,1179.7,525.0,7.0,6.0,-5.0,9314.0,9558.0,8040.0,5068.0,-17.0,7.0,5.0,5.0,-5.0,-1.0,6398.0,3667.0,10660.0,10020.0,-17.0,-4.0,7.0,1.0
2022-05-08 16:15:07.661240-07:00,846.1,979.9,1538.5,1067.7,808.5,491.7,1504.1,947.5,3477.1,3474.6,673.3,886.5,391.1,3499.0,773.6,722.5,3483.2,3479.5,381.7,580.2,416.1,517.1,245.4,247.0,3478.3,3474.6,615.7,449.0,620.5,1077.3,1179.7,525.0,-1.0,3.0,-1.0,9314.0,9554.0,8043.0,5071.0,-13.0,3.0,-8.0,11.0,0.0,10.0,6399.0,3667.0,10659.0,10022.0,-2.0,6.0,-2.0,1.0
2022-05-08 16:15:07.721148-07:00,841.9,980.7,1530.1,1066.9,808.5,491.7,1504.1,950.0,3474.6,3467.4,669.3,886.5,391.1,3499.0,773.6,720.0,3479.5,3479.5,381.7,580.2,413.7,517.1,247.0,249.2,3478.3,3474.6,615.7,449.0,624.6,1078.2,1181.5,525.0,3.0,9.0,-5.0,9322.0,9550.0,8037.0,5073.0,-29.0,-23.0,3.0,3.0,3.0,1.0,6401.0,3665.0,10655.0,10026.0,-33.0,-8.0,5.0,1.0
2022-05-08 16:15:07.751871-07:00,846.1,980.7,1530.1,1066.9,806.9,494.8,1508.8,950.0,3473.4,3467.4,669.3,886.5,391.1,3492.9,777.8,720.0,3479.5,3483.2,381.7,580.2,413.7,517.1,247.0,244.7,3478.3,3478.3,615.7,444.3,624.6,1078.2,1181.5,524.2,2.0,1.0,6.0,9327.0,9546.0,8034.0,5076.0,-1.0,10.0,-7.0,12.0,-5.0,12.0,6402.0,3661.0,10650.0,10031.0,-2.0,1.0,1.0,1.0
2022-05-08 16:15:07.811177-07:00,846.1,980.7,1527.3,1066.9,806.9,494.8,1508.8,944.1,3473.4,3467.4,672.5,883.9,391.1,3492.9,777.8,725.8,3480.7,3483.2,381.7,580.2,410.6,521.8,240.9,244.7,3471.0,3478.3,615.7,444.3,631.1,1082.5,1180.6,524.2,1.0,4.0,8.0,9326.0,9545.0,8036.0,5078.0,-5.0,26.0,1.0,7.0,1.0,7.0,6403.0,3661.0,10649.0,10032.0,-4.0,-1.0,0.0,1.0
2022-05-08 16:15:07.871540-07:00,841.1,980.7,1527.3,1066.9,811.9,497.2,1507.8,944.1,3475.9,3467.4,672.5,883.9,393.4,3500.2,768.7,725.8,3480.7,3477.1,383.3,584.3,410.6,521.8,240.9,247.7,3471.0,3486.8,620.5,443.5,631.1,1082.5,1180.6,517.9,5.0,2.0,-6.0,9321.0,9546.0,8038.0,5081.0,10.0,-1.0,10.0,6.0,-6.0,-4.0,6400.0,3661.0,10652.0,10030.0,17.0,5.0,0.0,1.0
2022-05-08 16:15:07.901327-07:00,841.1,977.3,1531.0,1069.5,811.9,497.2,1507.8,950.0,3475.9,3469.8,670.1,888.2,393.4,3500.2,768.7,729.0,3477.1,3477.1,383.3,584.3,420.8,516.3,245.4,247.7,3480.7,3486.8,620.5,443.5,625.4,1079.0,1176.2,517.9,8.0,7.0,-5.0,9323.0,9547.0,8034.0,5081.0,-44.0,-10.0,1.0,7.0,2.0,-2.0,6400.0,3662.0,10654.0,10028.0,-18.0,-10.0,2.0,1.0
2022-05-08 16:15:07.961203-07:00,843.6,977.3,1531.0,1069.5,810.2,492.5,1499.5,950.0,3474.6,3469.8,670.1,888.2,391.1,3491.7,767.8,729.0,3477.1,3477.1,386.4,579.4,420.8,516.3,245.4,243.9,3480.7,3474.6,618.9,449.8,625.4,1079.0,1176.2,521.0,3.0,4.0,7.0,9330.0,9538.0,8032.0,5090.0,-8.0,10.0,14.0,11.0,-8.0,15.0,6405.0,3662.0,10647.0,10032.0,-10.0,-11.0,2.0,1.0
2022-05-08 16:15:08.021069-07:00,843.6,977.3,1529.2,1069.5,810.2,492.5,1503.2,954.3,3474.6,3486.8,669.3,892.4,391.1,3491.7,772.0,721.6,3478.3,3478.3,386.4,579.4,417.6,517.9,247.0,243.9,3467.4,3479.5,618.9,449.8,623.8,1081.6,1179.7,521.0,2.0,0.0,1.0,9328.0,9539.0,8029.0,5095.0,21.0,-6.0,3.0,9.0,-7.0,7.0,6405.0,3662.0,10647.0,10032.0,7.0,9.0,1.0,1.0
2022-05-08 16:15:08.051455-07:00,845.3,979.9,1529.2,1069.5,809.4,494.0,1503.2,954.3,3478.3,3473.4,669.3,892.4,390.3,3495.3,772.0,721.6,3478.3,3478.3,384.8,577.8,417.6,517.9,244.7,245.4,3467.4,3479.5,618.1,448.2,623.8,1081.6,1169.1,521.0,22.0,-27.0,21.0,9308.0,9552.0,8047.0,5078.0,171.0,47.0,-54.0,13.0,-39.0,-16.0,6393.0,3660.0,10661.0,10026.0,75.0,68.0,1.0,1.0
2022-05-08 16:15:08.111228-07:00,845.3,979.9,1527.3,1064.3,809.4,494.0,1505.1,949.2,3478.3,3473.4,669.3,883.1,390.3,3495.3,778.6,723.3,3471.0,3481.9,384.8,577.8,410.6,518.7,244.7,245.4,3473.4,3477.1,618.1,448.2,624.6,1076.4,1169.1,521.0,20.0,-10.0,25.0,9185.0,9610.0,8167.0,5002.0,395.0,204.0,-138.0,29.0,-53.0,32.0,6315.0,3658.0,10769.0,9961.0,368.0,215.0,-14.0,1.0
2022-05-08 16:15:08.171203-07:00,848.6,1008.2,1527.3,1064.3,875.5,497.2,1505.1,949.2,3471.0,3478.3,669.3,883.1,389.5,3495.3,778.6,723.3,3471.0,3481.9,386.4,582.6,410.6,518.7,245.4,247.0,3473.4,3477.1,618.9,445.1,624.6,1076.4,1177.9,539.4,-7.0,-31.0,-18.0,9089.0,9662.0,8253.0,4935.0,357.0,-24.0,23.0,2.0,-18.0,3.0,6159.0,3670.0,10953.0,9851.0,598.0,350.0,85.0,1.0
2022-05-08 16:15:08.201359-07:00,848.6,1008.2,1530.1,1075.6,875.5,497.2,1537.6,967.9,3471.0,3478.3,666.0,889.8,389.5,3495.3,774.5,729.0,3475.9,3484.4,386.4,582.6,417.6,513.9,245.4,247.0,3483.2,3486.8,618.9,445.1,627.8,1077.3,1177.9,539.4,10.0,9.0,-56.0,9037.0,9788.0,8237.0,4808.0,320.0,-404.0,60.0,-20.0,-8.0,-28.0,6005.0,3708.0,11094.0,9775.0,312.0,226.0,134.0,1.0
2022-05-08 16:15:08.261168-07:00,844.4,1093.8,1530.1,1075.6,857.0,529.0,1537.6,967.9,3473.4,3478.3,666.0,889.8,391.8,3496.6,774.5,729.0,3475.9,3484.4,384.0,581.8,417.6,513.9,249.2,245.4,3483.2,3486.8,621.4,449.8,627.8,1077.3,1177.0,541.0,-5.0,-15.0,12.0,9095.0,9897.0,8129.0,4655.0,71.0,-477.0,71.0,10.0,-17.0,-2.0,5926.0,3741.0,11143.0,9756.0,78.0,28.0,124.0,1.0
2022-05-08 16:15:08.321178-07:00,844.4,1093.8,1514.3,1067.7,857.0,535.4,1531.0,958.5,3473.4,3478.3,673.3,888.2,391.8,3502.7,779.4,722.5,3480.7,3479.5,383.3,581.8,417.6,518.7,249.2,245.4,3484.4,3480.7,648.9,449.8,630.3,1086.0,1177.0,541.0,10.0,24.0,20.0,9161.0,9968.0,8013.0,4576.0,9.0,-337.0,95.0,14.0,-8.0,7.0,5887.0,3779.0,11136.0,9772.0,1.0,26.0,134.0,1.0
2022-05-08 16:15:08.351487-07:00,842.8,1137.5,1500.4,1067.7,843.6,535.4,1531.0,958.5,3472.2,3467.4,672.5,888.2,391.8,3502.7,779.4,722.5,3480.7,3479.5,383.3,577.8,417.6,513.1,250.0,250.8,3484.4,3480.7,648.9,456.9,630.3,1082.5,1178.8,536.2,6.0,40.0,54.0,9181.0,10003.0,7975.0,4525.0,32.0,-52.0,-64.0,9.0,9.0,3.0,5860.0,3803.0,11139.0,9776.0,24.0,14.0,38.0,1.0
2022-05-08 16:15:08.411159-07:00,842.8,1137.5,1500.4,1062.5,843.6,529.0,1547.8,948.3,3472.2,3467.4,672.5,886.5,391.8,3502.7,775.3,724.1,3478.3,3477.1,384.0,577.8,412.9,513.1,250.0,250.8,3481.9,3478.3,655.4,456.9,631.1,1082.5,1178.8,536.2,-3.0,-4.0,15.0,9176.0,9997.0,8003.0,4499.0,106.0,24.0,-42.0,13.0,-9.0,16.0,5833.0,3804.0,11159.0,9768.0,57.0,88.0,13.0,1.0
2022-05-08 16:15:08.471167-07:00,845.3,1145.4,1492.1,1062.5,837.7,529.0,1547.8,948.3,3466.1,3472.2,668.4,886.5,391.1,3502.7,775.3,724.1,3478.3,3477.1,384.0,580.2,412.9,511.5,246.2,247.7,3481.9,3478.3,655.4,456.9,631.1,1079.9,1199.1,534.6,-2.0,-3.0,-14.0,9153.0,9999.0,8013.0,4525.0,-38.0,109.0,45.0,5.0,0.0,-24.0,5814.0,3802.0,11177.0,9760.0,9.0,16.0,9.0,1.0
2022-05-08 16:15:08.531209-07:00,845.3,1145.4,1492.1,1059.1,837.7,531.4,1547.8,948.3,3466.1,3472.2,668.4,892.4,391.1,3499.0,778.6,721.6,3477.1,3477.1,381.7,580.2,416.8,511.5,246.2,247.7,3488.0,3479.5,666.0,456.9,632.7,1079.9,1199.1,534.6,-14.0,25.0,-15.0,9129.0,9996.0,8042.0,4530.0,51.0,17.0,-60.0,6.0,14.0,12.0,5805.0,3799.0,11192.0,9748.0,44.0,21.0,-24.0,1.0
2022-05-08 16:15:08.561684-07:00,851.1,1130.5,1474.6,1059.1,830.2,531.4,1547.8,948.3,3483.2,3475.9,668.4,892.4,387.9,3499.0,778.6,721.6,3477.1,3477.1,381.7,577.0,416.8,512.3,247.7,244.7,3488.0,3479.5,666.0,458.5,632.7,1072.9,1180.6,529.0,16.0,-29.0,0.0,9167.0,9983.0,8011.0,4535.0,-146.0,-78.0,51.0,8.0,-33.0,-25.0,5812.0,3797.0,11175.0,9765.0,-66.0,-24.0,33.0,1.0
2022-05-08 16:15:08.651383-07:00,851.1,1130.5,1474.6,1058.2,829.4,532.2,1537.6,936.4,3483.2,3475.9,668.4,886.5,391.1,3495.3,774.5,721.6,3480.7,3480.7,382.5,579.4,416.8,512.3,247.7,244.7,3478.3,3485.6,661.9,454.5,633.5,1072.9,1180.6,529.0,-2.0,28.0,19.0,9160.0,9992.0,8002.0,4545.0,37.0,28.0,-4.0,7.0,14.0,21.0,5811.0,3808.0,11176.0,9761.0,33.0,3.0,-2.0,1.0
2022-05-08 16:15:08.653507-07:00,844.4,1122.6,1455.2,1056.5,829.4,532.2,1537.6,936.4,3480.7,3474.6,666.0,890.7,391.1,3495.3,774.5,721.6,3480.7,3480.7,382.5,579.4,415.3,508.3,246.2,247.0,3478.3,3485.6,661.9,454.5,630.3,1077.3,1170.0,525.8,9.0,-8.0,4.0,9161.0,9995.0,8001.0,4537.0,19.0,-39.0,6.0,5.0,-10.0,-5.0,5803.0,3808.0,11184.0,9756.0,21.0,17.0,11.0,1.0
2022-05-08 16:15:08.711249-07:00,844.4,1122.6,1455.2,1056.5,817.7,529.8,1534.8,928.8,3480.7,3474.6,666.0,890.7,387.9,3483.2,772.8,724.1,3477.1,3483.2,377.8,579.4,415.3,508.3,246.2,247.0,3473.4,3478.3,654.6,454.5,630.3,1077.3,1170.0,525.8,2.0,12.0,-3.0,9145.0,10009.0,8015.0,4516.0,99.0,25.0,-50.0,4.0,-1.0,-10.0,5790.0,3812.0,11201.0,9742.0,63.0,25.0,-4.0,1.0
2022-05-08 16:15:08.771173-07:00,847.0,1127.9,1470.0,1063.4,817.7,529.8,1534.8,928.8,3474.6,3473.4,667.6,889.8,387.9,3483.2,772.8,724.1,3477.1,3483.2,377.8,579.4,417.6,508.3,247.7,243.9,3473.4,3478.3,654.6,454.5,628.6,1096.4,1174.4,525.8,5.0,-15.0,2.0,9129.0,10018.0,8032.0,4498.0,30.0,-1.0,6.0,5.0,-12.0,-4.0,5782.0,3816.0,11212.0,9733.0,5.0,3.0,13.0,1.0
2022-05-08 16:15:08.831380-07:00,847.0,1127.9,1470.0,1063.4,815.2,518.7,1533.8,942.4,3474.6,3473.4,667.6,889.8,392.6,3489.2,780.3,723.3,3483.2,3478.3,387.9,574.6,417.6,508.3,247.7,243.9,3483.2,3479.5,655.4,451.4,628.6,1096.4,1174.4,525.8,1.0,19.0,1.0,9126.0,10016.0,8033.0,4505.0,0.0,15.0,-1.0,5.0,-2.0,5.0,5781.0,3817.0,11210.0,9735.0,-6.0,2.0,-6.0,1.0
2022-05-08 16:15:08.861140-07:00,841.1,1122.6,1451.6,1052.2,815.2,518.7,1533.8,942.4,3475.9,3472.2,659.5,885.6,392.6,3489.2,780.3,723.3,3483.2,3478.3,387.9,574.6,414.5,509.9,247.0,247.0,3483.2,3479.5,655.4,451.4,631.1,1082.5,1172.6,529.8,7.0,-7.0,-3.0,9128.0,10016.0,8037.0,4497.0,37.0,-10.0,-9.0,5.0,0.0,-16.0,5780.0,3818.0,11211.0,9734.0,14.0,-4.0,0.0,1.0
2022-05-08 16:15:08.891220-07:00,841.1,1122.6,1451.6,1052.2,817.7,514.7,1527.3,939.0,3475.9,3472.2,659.5,885.6,385.6,3494.1,772.8,721.6,3474.6,3478.3,380.2,580.2,414.5,509.9,247.0,247.0,3478.3,3480.7,653.0,456.9,631.1,1082.5,1172.6,529.8,0.0,1.0,10.0,9126.0,10008.0,8041.0,4509.0,-16.0,27.0,4.0,4.0,-6.0,4.0,5781.0,3817.0,11208.0,9738.0,-2.0,7.0,2.0,1.0
2022-05-08 16:15:08.981205-07:00,847.8,1111.2,1457.1,1045.2,817.7,514.7,1527.3,939.8,3481.9,3478.3,662.7,885.6,385.6,3494.1,772.8,724.9,3488.0,3478.3,380.2,580.2,416.1,509.9,245.4,247.7,3485.6,3480.7,653.0,456.9,629.5,1080.8,1174.4,525.0,3.0,5.0,-6.0,9123.0,10012.0,8042.0,4504.0,-9.0,-24.0,-7.0,6.0,-6.0,-6.0,5780.0,3819.0,11211.0,9734.0,-19.0,1.0,-4.0,1.0
2022-05-08 16:15:09.011218-07:00,844.4,1111.2,1457.1,1045.2,816.0,516.3,1519.0,939.8,3480.7,3478.3,662.7,885.6,392.6,3495.3,771.1,724.9,3488.0,3489.2,387.9,573.0,416.1,509.9,245.4,242.4,3485.6,3480.7,655.4,457.7,629.5,1080.8,1174.4,517.1,2.0,0.0,0.0,9130.0,10012.0,8035.0,4502.0,-1.0,-22.0,13.0,3.0,0.0,-7.0,5780.0,3818.0,11209.0,9737.0,-9.0,-5.0,1.0,1.0
2022-05-08 16:15:09.041315-07:00,844.4,1110.4,1447.9,1055.6,816.0,516.3,1519.0,956.8,3480.7,3467.4,663.6,890.7,392.6,3495.3,771.1,725.8,3474.6,3489.2,387.9,573.0,415.3,509.1,243.9,242.4,3478.3,3480.7,655.4,457.7,630.3,1078.2,1174.4,517.1,6.0,-2.0,-2.0,9144.0,10008.0,8021.0,4508.0,-48.0,-26.0,2.0,5.0,-12.0,-10.0,5783.0,3815.0,11202.0,9744.0,-28.0,-11.0,6.0,1.0
2022-05-08 16:15:09.101449-07:00,842.8,1110.4,1447.9,1055.6,812.7,514.7,1526.4,956.8,3483.2,3467.4,663.6,890.7,391.8,3507.5,771.1,725.8,3474.6,3474.6,384.8,580.2,415.3,509.1,243.9,247.7,3478.3,3475.9,657.0,453.0,630.3,1078.2,1174.4,521.0,5.0,10.0,13.0,9141.0,10012.0,8022.0,4504.0,-2.0,1.0,-11.0,9.0,-7.0,7.0,5783.0,3816.0,11202.0,9743.0,3.0,9.0,-2.0,1.0
2022-05-08 16:15:09.161846-07:00,842.8,1104.3,1440.5,1048.7,812.7,514.7,1526.4,964.5,3483.2,3472.2,662.7,889.0,391.8,3507.5,771.1,724.1,3477.1,3474.6,384.8,580.2,417.6,505.1,248.5,247.7,3475.9,3475.9,657.0,453.0,627.8,1077.3,1177.9,521.0,1.0,9.0,-4.0,9140.0,10016.0,8020.0,4501.0,14.0,-27.0,14.0,5.0,10.0,-6.0,5779.0,3815.0,11206.0,9742.0,3.0,9.0,4.0,1.0
2022-05-08 16:15:09.221200-07:00,842.8,1104.3,1440.5,1048.7,810.2,515.5,1528.3,964.5,3467.4,3472.2,662.7,889.0,393.4,3484.4,772.0,724.1,3477.1,3481.9,380.9,577.8,417.6,505.1,248.5,247.7,3475.9,3477.1,655.4,461.6,627.8,1077.3,1177.9,525.0,-4.0,-4.0,4.0,9139.0,10015.0,8022.0,4500.0,31.0,35.0,-13.0,4.0,-8.0,7.0,5778.0,3816.0,11206.0,9742.0,23.0,6.0,1.0,1.0
2022-05-08 16:15:09.251420-07:00,842.8,1106.0,1437.8,1047.8,810.2,515.5,1526.4,967.1,3467.4,3473.4,666.8,883.1,393.4,3484.4,777.8,724.9,3469.8,3475.9,380.9,577.8,414.5,510.7,250.8,247.7,3479.5,3483.2,655.4,461.6,627.8,1073.8,1175.3,525.0,2.0,4.0,2.0,9132.0,10022.0,8026.0,4493.0,10.0,-20.0,-7.0,6.0,-2.0,2.0,5777.0,3819.0,11210.0,9737.0,-3.0,4.0,2.0,1.0
2022-05-08 16:15:09.311221-07:00,844.4,1104.3,1437.8,1047.8,811.0,517.9,1526.4,967.1,3478.3,3473.4,666.8,883.1,387.9,3492.9,777.8,724.9,3469.8,3475.9,379.4,579.4,414.5,510.7,247.0,249.2,3479.5,3483.2,653.8,453.0,627.8,1073.8,1175.3,521.8,7.0,-5.0,2.0,9136.0,10026.0,8021.0,4486.0,16.0,0.0,-1.0,5.0,-9.0,-8.0,5776.0,3819.0,11210.0,9738.0,10.0,-2.0,4.0,1.0
2022-05-08 16:15:09.341279-07:00,844.4,1104.3,1444.2,1047.0,811.0,517.9,1517.1,962.8,3478.3,3473.4,666.8,889.0,387.9,3492.9,776.1,724.9,3467.4,3480.7,379.4,579.4,416.8,508.3,247.0,249.2,3475.9,3486.8,653.8,453.0,629.5,1079.0,1175.3,521.8,-3.0,0.0,6.0,9131.0,10027.0,8024.0,4486.0,34.0,-12.0,-5.0,4.0,2.0,6.0,5773.0,3821.0,11214.0,9734.0,28.0,16.0,6.0,1.0
2022-05-08 16:15:09.401417-07:00,859.5,1099.9,1444.2,1047.0,804.4,511.5,1517.1,962.8,3479.5,3471.0,666.8,889.0,390.3,3492.9,776.1,724.9,3467.4,3480.7,384.0,576.2,416.8,508.3,244.7,245.4,3475.9,3486.8,653.0,453.0,629.5,1079.0,1177.0,508.3,7.0,12.0,0.0,9123.0,10038.0,8025.0,4478.0,-7.0,-1.0,-2.0,8.0,4.0,-5.0,5769.0,3822.0,11221.0,9728.0,1.0,10.0,5.0,1.0
2022-05-08 16:15:09.461197-07:00,859.5,1099.9,1441.5,1052.2,804.4,511.5,1522.7,957.7,3479.5,3471.0,667.6,889.0,390.3,3492.9,772.8,726.6,3478.3,3480.7,384.0,576.2,413.7,510.7,244.7,245.4,3472.2,3478.3,653.0,453.0,624.6,1072.1,1177.0,508.3,0.0,0.0,-2.0,9123.0,10040.0,8024.0,4475.0,38.0,-20.0,10.0,6.0,-3.0,-5.0,5765.0,3825.0,11226.0,9724.0,36.0,9.0,11.0,1.0
2022-05-08 16:15:09.491250-07:00,841.9,1123.5,1441.5,1052.2,810.2,511.5,1522.7,957.7,3472.2,3478.3,667.6,889.0,392.6,3497.8,772.8,726.6,3478.3,3480.7,383.3,574.6,413.7,510.7,242.4,247.7,3472.2,3478.3,649.7,452.2,624.6,1072.1,1176.2,517.9,1.0,15.0,2.0,9121.0,10051.0,8018.0,4465.0,-17.0,-30.0,2.0,3.0,0.0,-5.0,5761.0,3830.0,11228.0,9721.0,-15.0,1.0,5.0,1.0
2022-05-08 16:15:09.551686-07:00,841.9,1123.5,1439.6,1047.0,810.2,512.3,1531.0,962.8,3472.2,3478.3,661.9,892.4,392.6,3494.1,771.1,726.6,3479.5,3483.2,383.3,574.6,414.5,505.1,242.4,247.7,3474.6,3479.5,649.7,452.2,627.0,1080.8,1176.2,517.9,1.0,-6.0,7.0,9128.0,10052.0,8010.0,4461.0,22.0,-22.0,3.0,6.0,-5.0,0.0,5762.0,3830.0,11228.0,9722.0,8.0,3.0,6.0,1.0
2022-05-08 16:15:09.611171-07:00,846.1,1114.7,1432.3,1047.0,811.9,512.3,1531.0,962.8,3473.4,3468.6,667.6,892.4,389.5,3494.1,771.1,726.6,3479.5,3483.2,383.3,582.6,414.5,508.3,247.0,247.0,3474.6,3479.5,649.7,455.3,627.0,1079.0,1174.4,524.2,4.0,7.0,9.0,9128.0,10057.0,8008.0,4455.0,-5.0,14.0,0.0,3.0,0.0,0.0,5760.0,3832.0,11229.0,9720.0,-5.0,-2.0,-4.0,1.0
2022-05-08 16:15:09.641746-07:00,846.1,1114.7,1432.3,1053.9,811.9,505.1,1516.2,970.5,3473.4,3468.6,667.6,889.8,389.5,3494.1,771.1,724.1,3472.2,3474.6,377.0,582.6,416.8,508.3,247.0,247.0,3477.1,3478.3,647.3,455.3,626.2,1079.0,1174.4,524.2,2.0,-1.0,5.0,9125.0,10052.0,8012.0,4463.0,23.0,24.0,2.0,4.0,-4.0,3.0,5759.0,3832.0,11230.0,9719.0,14.0,12.0,3.0,1.0
2022-05-08 16:15:09.701333-07:00,844.4,1099.0,1430.5,1053.9,797.7,505.1,1516.2,970.5,3468.6,3471.0,661.1,889.8,390.3,3494.1,771.1,724.1,3472.2,3474.6,377.0,580.2,416.8,508.3,250.0,243.9,3477.1,3478.3,647.3,453.0,626.2,1074.7,1170.9,516.3,2.0,5.0,-2.0,9116.0,10058.0,8018.0,4459.0,7.0,0.0,-4.0,4.0,-6.0,0.0,5756.0,3833.0,11236.0,9714.0,5.0,-2.0,-1.0,1.0
2022-05-08 16:15:09.761826-07:00,844.4,1099.0,1430.5,1047.8,797.7,514.7,1513.4,961.1,3468.6,3471.0,661.1,888.2,390.3,3501.4,772.8,722.5,3477.1,3479.5,380.9,580.2,418.4,508.3,250.0,243.9,3483.2,3481.9,640.8,453.0,627.8,1074.7,1170.9,516.3,1.0,3.0,1.0,9118.0,10057.0,8017.0,4460.0,-1.0,2.0,4.0,6.0,-3.0,2.0,5756.0,3833.0,11236.0,9714.0,-5.0,1.0,4.0,1.0
2022-05-08 16:15:09.791242-07:00,844.4,1094.7,1440.5,1047.8,808.5,514.7,1513.4,961.1,3477.1,3472.2,667.6,888.2,391.8,3501.4,772.8,722.5,3477.1,3479.5,380.9,578.6,418.4,509.1,243.9,250.8,3483.2,3481.9,640.8,454.5,627.8,1078.2,1170.9,513.1,-3.0,1.0,11.0,9116.0,10058.0,8018.0,4459.0,0.0,7.0,-3.0,4.0,-4.0,0.0,5755.0,3834.0,11237.0,9713.0,0.0,-2.0,-3.0,1.0
2022-05-08 16:15:09.851412-07:00,844.4,1094.7,1440.5,1053.0,804.4,510.7,1521.8,960.2,3477.1,3472.2,667.6,887.3,392.6,3499.0,767.8,725.8,3477.1,3480.7,379.4,579.4,417.6,509.1,243.9,250.8,3478.3,3472.2,646.5,455.3,631.1,1078.2,1170.9,513.1,-1.0,12.0,1.0,9111.0,10062.0,8020.0,4456.0,24.0,7.0,-13.0,5.0,2.0,1.0,5754.0,3835.0,11240.0,9710.0,14.0,9.0,-2.0,1.0
2022-05-08 16:15:09.911124-07:00,841.1,1099.9,1439.6,1049.6,804.4,510.7,1521.8,960.2,3477.1,3478.3,662.7,893.2,392.6,3499.0,767.8,725.8,3477.1,3480.7,379.4,579.4,418.4,509.9,250.8,245.4,3478.3,3472.2,646.5,455.3,628.6,1084.2,1176.2,517.1,2.0,-2.0,-2.0,9110.0,10067.0,8022.0,4445.0,27.0,-26.0,-3.0,4.0,-9.0,-4.0,5752.0,3836.0,11244.0,9706.0,15.0,7.0,5.0,1.0
2022-05-08 16:15:09.941295-07:00,841.1,1099.9,1439.6,1049.6,803.5,517.9,1504.1,962.0,3477.1,3478.3,662.7,893.2,394.2,3496.6,774.5,721.6,3481.9,3474.6,384.0,581.0,418.4,509.9,250.8,245.4,3485.6,3484.4,650.5,454.5,628.6,1084.2,1176.2,517.1,3.0,-1.0,11.0,9113.0,10073.0,8016.0,4436.0,-20.0,4.0,0.0,4.0,-12.0,-2.0,5752.0,3837.0,11243.0,9706.0,-18.0,-10.0,4.0,1.0
2022-05-08 16:15:10.031311-07:00,848.6,1098.2,1431.4,1054.8,803.5,517.9,1504.1,962.0,3480.7,3480.7,665.2,894.1,394.2,3496.6,774.5,721.6,3481.9,3474.6,384.0,581.0,412.9,509.1,246.2,247.0,3485.6,3484.4,650.5,454.5,626.2,1085.1,1173.5,515.5,4.0,17.0,2.0,9114.0,10073.0,8015.0,4434.0,20.0,-25.0,-7.0,6.0,-1.0,4.0,5752.0,3838.0,11245.0,9705.0,15.0,8.0,-3.0,1.0
2022-05-08 16:15:10.091222-07:00,848.6,1098.2,1431.4,1054.8,800.2,507.5,1510.6,960.2,3480.7,3480.7,665.2,894.1,392.6,3495.3,779.4,722.5,3479.5,3477.1,382.5,581.0,412.9,509.1,246.2,247.0,3481.9,3485.6,640.0,453.7,626.2,1085.1,1173.5,515.5,2.0,-3.0,8.0,9115.0,10075.0,8014.0,4430.0,-14.0,12.0,10.0,5.0,-4.0,-1.0,5752.0,3838.0,11245.0,9705.0,-8.0,2.0,1.0,1.0
2022-05-08 16:15:10.092732-07:00,843.6,1100.8,1425.9,1057.3,800.2,507.5,1510.6,960.2,3481.9,3483.2,662.7,895.7,392.6,3495.3,779.4,722.5,3479.5,3477.1,382.5,581.0,416.1,512.3,245.4,244.7,3481.9,3485.6,640.0,453.7,627.8,1079.9,1169.1,517.1,0.0,6.0,-4.0,9115.0,10074.0,8012.0,4434.0,35.0,-11.0,-4.0,6.0,-1.0,-2.0,5752.0,3838.0,11245.0,9704.0,18.0,3.0,-1.0,1.0
2022-05-08 16:15:10.151489-07:00,838.6,1100.8,1425.9,1057.3,806.9,508.3,1504.1,956.8,3467.4,3483.2,662.7,895.7,385.6,3492.9,772.8,725.8,3488.0,3478.3,380.2,578.6,416.1,512.3,245.4,246.2,3478.3,3475.9,639.2,454.5,627.8,1079.9,1169.1,511.5,3.0,-3.0,4.0,9112.0,10078.0,8013.0,4429.0,-18.0,-12.0,-1.0,5.0,0.0,0.0,5752.0,3838.0,11245.0,9704.0,-14.0,-1.0,1.0,1.0
2022-05-08 16:15:10.211233-07:00,838.6,1099.0,1425.9,1052.2,806.9,508.3,1504.1,952.6,3467.4,3472.2,667.6,890.7,385.6,3492.9,772.8,725.8,3472.2,3478.3,380.2,578.6,416.8,510.7,247.0,246.2,3480.7,3475.9,639.2,454.5,623.8,1085.1,1171.8,511.5,4.0,4.0,3.0,9114.0,10081.0,8007.0,4433.0,-3.0,-8.0,11.0,7.0,-9.0,-2.0,5752.0,3837.0,11245.0,9705.0,1.0,-4.0,1.0,1.0
2022-05-08 16:15:10.241332-07:00,840.3,1099.0,1425.9,1052.2,797.7,506.7,1506.9,952.6,3472.2,3472.2,667.6,890.7,386.4,3495.3,767.8,725.8,3472.2,3479.5,383.3,577.0,416.8,510.7,247.0,246.2,3480.7,3477.1,645.7,457.7,623.8,1085.1,1171.8,513.1,-2.0,4.0,11.0,9110.0,10081.0,8010.0,4434.0,9.0,30.0,-9.0,6.0,-3.0,8.0,5752.0,3837.0,11245.0,9705.0,2.0,9.0,-1.0,1.0
2022-05-08 16:15:10.331303-07:00,840.3,1090.3,1425.0,1046.1,797.7,506.7,1506.9,948.3,3472.2,3475.9,661.9,878.0,386.4,3495.3,767.8,723.3,3479.5,3479.5,383.3,577.0,414.5,505.9,249.2,246.2,3483.2,3477.1,645.7,457.7,627.0,1076.4,1169.1,513.1,0.0,4.0,-4.0,9108.0,10081.0,8012.0,4434.0,4.0,-13.0,4.0,5.0,-1.0,-1.0,5751.0,3838.0,11246.0,9703.0,-5.0,2.0,2.0,1.0
2022-05-08 16:15:10.361224-07:00,848.6,1090.3,1425.0,1046.1,801.0,507.5,1502.3,948.3,3474.6,3475.9,661.9,878.0,392.6,3507.5,772.8,723.3,3479.5,3477.1,384.8,582.6,414.5,505.9,249.2,249.2,3483.2,3483.2,642.4,456.9,627.0,1076.4,1169.1,517.1,0.0,-2.0,2.0,9113.0,10079.0,8008.0,4435.0,-12.0,7.0,1.0,6.0,-6.0,0.0,5751.0,3837.0,11245.0,9705.0,-13.0,-7.0,3.0,1.0
2022-05-08 16:15:10.391576-07:00,848.6,1088.6,1424.1,1050.4,801.0,507.5,1502.3,956.0,3474.6,3473.4,659.5,887.3,392.6,3507.5,772.8,728.2,3488.0,3477.1,384.8,582.6,416.1,510.7,243.2,249.2,3474.6,3483.2,642.4,456.9,626.2,1076.4,1170.9,517.1,2.0,4.0,3.0,9112.0,10083.0,8008.0,4429.0,24.0,-23.0,7.0,4.0,4.0,1.0,5751.0,3838.0,11246.0,9704.0,4.0,-4.0,-2.0,1.0
2022-05-08 16:15:10.451431-07:00,844.4,1087.7,1424.1,1050.4,797.7,512.3,1493.0,956.0,3467.4,3477.1,659.5,887.3,388.7,3499.0,778.6,728.2,3488.0,3479.5,384.0,575.4,416.1,510.7,243.9,245.4,3474.6,3488.0,643.2,453.7,626.2,1076.4,1173.5,513.9,8.0,6.0,8.0,9117.0,10081.0,8004.0,4430.0,-14.0,5.0,8.0,6.0,-4.0,-4.0,5752.0,3836.0,11243.0,9707.0,-5.0,1.0,1.0,1.0
2022-05-08 16:15:10.511220-07:00,844.4,1087.7,1428.6,1055.6,797.7,512.3,1495.8,952.6,3467.4,3477.1,662.7,888.2,388.7,3499.0,774.5,721.6,3488.0,3474.6,384.0,575.4,414.5,509.1,243.9,245.4,3481.9,3473.4,643.2,453.7,623.0,1080.8,1173.5,513.9,-2.0,0.0,3.0,9109.0,10082.0,8010.0,4432.0,15.0,6.0,-4.0,5.0,-6.0,6.0,5750.0,3836.0,11246.0,9705.0,14.0,14.0,-3.0,1.0
2022-05-08 16:15:10.541345-07:00,842.8,1087.7,1428.6,1055.6,799.4,508.3,1495.8,952.6,3469.8,3478.3,662.7,888.2,388.7,3499.0,774.5,721.6,3488.0,3474.6,385.6,575.4,414.5,509.1,243.9,242.4,3481.9,3473.4,648.1,455.3,623.0,1080.8,1177.0,512.3,3.0,4.0,-2.0,9108.0,10083.0,8010.0,4433.0,-8.0,14.0,8.0,5.0,-3.0,-2.0,5748.0,3836.0,11247.0,9704.0,-2.0,4.0,0.0,1.0
2022-05-08 16:15:10.601211-07:00,842.8,1087.7,1441.5,1047.8,799.4,508.3,1495.8,949.2,3469.8,3478.3,668.4,882.3,388.7,3499.0,771.1,721.6,3474.6,3483.2,385.6,575.4,416.1,509.9,243.9,242.4,3472.2,3481.9,648.1,455.3,625.4,1084.2,1177.0,512.3,2.0,0.0,-1.0,9103.0,10084.0,8013.0,4433.0,18.0,1.0,-2.0,4.0,0.0,3.0,5748.0,3836.0,11249.0,9703.0,12.0,1.0,-1.0,1.0
2022-05-08 16:15:10.661260-07:00,845.3,1091.2,1441.5,1047.8,801.0,505.9,1495.8,949.2,3474.6,3475.9,668.4,882.3,393.4,3494.1,771.1,721.6,3474.6,3483.2,377.8,577.0,416.1,509.9,243.2,246.2,3472.2,3481.9,640.0,454.5,625.4,1084.2,1170.9,518.7,9.0,6.0,3.0,9105.0,10086.0,8010.0,4431.0,-5.0,-14.0,10.0,7.0,-4.0,-2.0,5748.0,3836.0,11248.0,9703.0,-3.0,-4.0,6.0,1.0
2022-05-08 16:15:10.691375-07:00,845.3,1091.2,1424.1,1044.4,801.0,505.9,1496.7,947.5,3474.6,3475.9,664.4,892.4,393.4,3494.1,772.8,726.6,3485.6,3477.1,377.8,577.0,415.3,506.7,243.2,246.2,3480.7,3474.6,640.0,454.5,627.8,1081.6,1170.9,518.7,1.0,-1.0,4.0,9104.0,10088.0,8010.0,4429.0,-7.0,3.0,-6.0,6.0,-8.0,2.0,5748.0,3837.0,11249.0,9703.0,-5.0,5.0,-5.0,1.0
2022-05-08 16:15:10.751395-07:00,837.7,1086.8,1424.1,1044.4,801.9,506.7,1496.7,947.5,3471.0,3477.1,664.4,892.4,392.6,3491.7,772.8,726.6,3485.6,3477.1,383.3,575.4,415.3,506.7,247.7,245.4,3480.7,3474.6,640.8,455.3,627.8,1081.6,1177.0,514.7,0.0,6.0,1.0,9103.0,10088.0,8011.0,4429.0,22.0,11.0,-1.0,4.0,0.0,4.0,5748.0,3837.0,11249.0,9703.0,12.0,-4.0,1.0,1.0
2022-05-08 16:15:10.811218-07:00,837.7,1086.8,1422.2,1053.9,801.9,506.7,1494.0,945.8,3471.0,3477.1,660.3,884.8,392.6,3496.6,772.0,723.3,3471.0,3479.5,379.4,575.4,412.9,508.3,247.7,245.4,3478.3,3485.6,642.4,455.3,627.8,1079.0,1177.0,514.7,1.0,-2.0,0.0,9100.0,10090.0,8013.0,4427.0,-6.0,2.0,1.0,5.0,-2.0,0.0,5747.0,3838.0,11251.0,9700.0,-1.0,6.0,0.0,1.0
2022-05-08 16:15:10.871258-07:00,842.8,1086.8,1425.0,1053.9,797.7,506.7,1494.0,945.8,3475.9,3479.5,665.2,884.8,388.7,3496.6,772.0,723.3,3471.0,3479.5,379.4,581.0,412.9,512.3,240.9,245.4,3478.3,3485.6,642.4,455.3,627.8,1080.8,1165.6,511.5,8.0,5.0,1.0,9103.0,10089.0,8009.0,4431.0,-23.0,0.0,7.0,6.0,-9.0,0.0,5748.0,3837.0,11249.0,9702.0,-16.0,-10.0,5.0,1.0
2022-05-08 16:15:10.901286-07:00,842.8,1086.8,1425.0,1049.6,797.7,505.1,1494.9,950.0,3475.9,3479.5,665.2,889.0,388.7,3494.1,771.1,718.4,3486.8,3474.6,386.4,581.0,416.1,512.3,240.9,245.4,3485.6,3474.6,640.0,455.3,628.6,1080.8,1165.6,511.5,4.0,2.0,5.0,9101.0,10091.0,8010.0,4430.0,23.0,2.0,-1.0,6.0,-1.0,3.0,5748.0,3838.0,11251.0,9700.0,14.0,6.0,-1.0,1.0
2022-05-08 16:15:10.960880-07:00,841.9,1088.6,1426.8,1049.6,796.0,505.1,1494.9,950.0,3483.2,3479.5,663.6,889.0,387.9,3494.1,771.1,718.4,3486.8,3474.6,386.4,578.6,416.1,508.3,244.7,245.4,3485.6,3474.6,640.0,455.3,628.6,1080.8,1167.4,514.7,5.0,5.0,8.0,9099.0,10091.0,8011.0,4431.0,-5.0,14.0,4.0,5.0,-12.0,1.0,5748.0,3838.0,11251.0,9700.0,-4.0,-2.0,1.0,1.0
2022-05-08 16:15:10.991397-07:00,841.9,1088.6,1426.8,1041.8,796.0,505.1,1497.7,944.9,3483.2,3479.5,663.6,891.5,387.9,3499.0,774.5,730.7,3483.2,3488.0,380.9,578.6,416.8,508.3,244.7,245.4,3483.2,3485.6,637.6,455.3,626.2,1080.8,1167.4,514.7,0.0,-2.0,-1.0,9097.0,10091.0,8013.0,4432.0,17.0,3.0,0.0,5.0,-3.0,-1.0,5747.0,3838.0,11252.0,9699.0,8.0,-2.0,-2.0,1.0
2022-05-08 16:15:11.052116-07:00,842.8,1079.9,1418.6,1041.8,800.2,505.1,1497.7,944.9,3468.6,3475.9,661.1,891.5,382.5,3499.0,774.5,730.7,3483.2,3488.0,380.9,576.2,416.8,507.5,244.7,246.2,3483.2,3485.6,637.6,455.3,626.2,1082.5,1170.9,507.5,0.0,1.0,0.0,9096.0,10092.0,8014.0,4430.0,3.0,1.0,9.0,5.0,1.0,0.0,5747.0,3838.0,11252.0,9699.0,-3.0,-7.0,2.0,1.0
2022-05-08 16:15:11.111154-07:00,842.8,1079.9,1418.6,1045.2,795.2,504.4,1493.0,947.5,3468.6,3475.9,661.1,884.8,392.6,3492.9,772.0,726.6,3483.2,3477.1,381.7,577.0,412.9,507.5,244.7,246.2,3478.3,3474.6,643.2,453.0,627.0,1082.5,1170.9,507.5,3.0,-1.0,9.0,9094.0,10092.0,8015.0,4434.0,-15.0,19.0,8.0,5.0,-5.0,7.0,5749.0,3838.0,11249.0,9701.0,-18.0,-8.0,1.0,1.0
2022-05-08 16:15:11.141355-07:00,839.4,1080.8,1424.1,1047.0,795.2,504.4,1493.0,947.5,3473.4,3475.9,665.2,889.0,392.6,3492.9,772.0,726.6,3483.2,3477.1,381.7,577.0,419.2,512.3,247.7,247.7,3478.3,3474.6,643.2,453.0,627.8,1081.6,1173.5,515.5,8.0,16.0,2.0,9089.0,10094.0,8013.0,4441.0,-7.0,16.0,17.0,4.0,4.0,0.0,5748.0,3839.0,11250.0,9700.0,-4.0,-2.0,3.0,1.0
2022-05-08 16:15:11.232273-07:00,839.4,1080.8,1424.1,1047.0,796.9,505.1,1487.5,947.5,3473.4,3475.9,665.2,889.0,395.0,3488.0,776.9,724.9,3473.4,3474.6,378.6,576.2,419.2,512.3,247.7,247.7,3480.7,3481.9,638.4,453.0,627.8,1081.6,1173.5,515.5,4.0,7.0,6.0,9085.0,10095.0,8016.0,4443.0,26.0,13.0,-6.0,5.0,0.0,-1.0,5748.0,3839.0,11251.0,9699.0,14.0,4.0,-3.0,1.0
2022-05-08 16:15:11.233871-07:00,841.9,1076.4,1436.9,1049.6,796.9,505.1,1487.5,947.5,3477.1,3474.6,659.5,893.2,395.0,3488.0,776.9,724.9,3473.4,3474.6,378.6,576.2,417.6,509.1,246.2,247.0,3480.7,3481.9,638.4,453.0,629.5,1072.1,1172.6,513.1,1.0,-3.0,0.0,9079.0,10093.0,8022.0,4448.0,8.0,22.0,6.0,6.0,-3.0,4.0,5748.0,3839.0,11251.0,9699.0,0.0,2.0,-1.0,1.0
2022-05-08 16:15:11.291303-07:00,841.9,1076.4,1436.9,1049.6,801.9,503.6,1490.3,952.6,3477.1,3474.6,659.5,893.2,390.3,3501.4,776.1,722.5,3484.4,3477.1,387.9,576.2,417.6,509.1,246.2,247.0,3472.2,3474.6,642.4,453.7,629.5,1072.1,1172.6,513.1,5.0,12.0,0.0,9075.0,10096.0,8021.0,4451.0,2.0,3.0,4.0,6.0,3.0,2.0,5748.0,3839.0,11251.0,9699.0,0.0,-3.0,3.0,1.0
2022-05-08 16:15:11.351268-07:00,834.4,1083.4,1425.0,1047.0,801.9,503.6,1490.3,952.6,3471.0,3478.3,663.6,889.8,390.3,3501.4,776.1,722.5,3484.4,3477.1,387.9,576.2,415.3,507.5,247.7,243.2,3472.2,3474.6,642.4,453.7,625.4,1078.2,1172.6,508.3,2.0,-1.0,5.0,9071.0,10100.0,8023.0,4447.0,16.0,7.0,1.0,6.0,-12.0,5.0,5747.0,3840.0,11253.0,9697.0,4.0,-4.0,-1.0,1.0
2022-05-08 16:15:11.381425-07:00,841.1,1083.4,1425.0,1047.0,791.0,504.4,1503.2,953.4,3478.3,3478.3,663.6,889.8,392.6,3495.3,781.9,726.6,3477.1,3474.6,387.2,575.4,415.3,507.5,247.7,243.9,3478.3,3478.3,638.4,454.5,625.4,1078.2,1172.6,514.7,2.0,11.0,0.0,9069.0,10102.0,8024.0,4446.0,11.0,-2.0,2.0,3.0,4.0,-3.0,5747.0,3840.0,11253.0,9697.0,-8.0,-6.0,-3.0,1.0
2022-05-08 16:15:11.441370-07:00,841.1,1078.2,1420.4,1047.0,791.0,504.4,1503.2,950.0,3478.3,3481.9,661.9,889.0,392.6,3495.3,781.9,722.5,3486.8,3474.6,387.2,575.4,414.5,505.1,242.4,243.9,3479.5,3478.3,638.4,454.5,623.8,1074.7,1171.8,514.7,2.0,3.0,4.0,9066.0,10102.0,8026.0,4446.0,7.0,15.0,2.0,6.0,-5.0,4.0,5748.0,3839.0,11250.0,9700.0,-13.0,0.0,-4.0,1.0
2022-05-08 16:15:11.501327-07:00,841.9,1078.2,1420.4,1047.0,791.0,507.5,1488.4,950.0,3474.6,3481.9,661.9,889.0,387.9,3501.4,776.9,722.5,3486.8,3478.3,380.2,575.4,414.5,505.1,242.4,243.9,3479.5,3481.9,639.2,447.4,623.8,1074.7,1171.8,510.7,-2.0,4.0,4.0,9067.0,10096.0,8024.0,4462.0,-33.0,23.0,34.0,6.0,4.0,7.0,5755.0,3833.0,11241.0,9710.0,-44.0,-14.0,-15.0,1.0
2022-05-08 16:15:11.561277-07:00,841.9,1072.1,1421.3,1049.6,791.0,507.5,1488.4,1031.4,3474.6,3475.9,665.2,887.3,387.9,3501.4,776.9,724.1,3474.6,3478.3,380.2,575.4,416.8,506.7,247.7,243.9,3481.9,3481.9,639.2,447.4,625.4,1075.6,1168.2,510.7,10.0,-6.0,-12.0,9102.0,10073.0,7992.0,4502.0,-233.0,-22.0,41.0,5.0,0.0,-19.0,5782.0,3817.0,11205.0,9741.0,-170.0,-46.0,-17.0,1.0
2022-05-08 16:15:11.591400-07:00,836.1,1072.1,1421.3,1049.6,798.5,504.4,1545.9,1031.4,3471.0,3475.9,665.2,887.3,395.7,3494.1,783.6,724.1,3474.6,3486.8,382.5,574.6,416.8,506.7,247.7,244.7,3481.9,3477.1,646.5,457.7,625.4,1075.6,1168.2,505.1,-1.0,20.0,12.0,9129.0,10049.0,7968.0,4543.0,-78.0,27.0,46.0,7.0,7.0,13.0,5813.0,3808.0,11172.0,9764.0,-80.0,-46.0,-29.0,1.0
2022-05-08 16:15:11.651247-07:00,836.1,1079.0,1433.2,1051.3,798.5,504.4,1545.9,1157.7,3471.0,3474.6,663.6,894.1,395.7,3494.1,783.6,728.2,3466.1,3486.8,382.5,574.6,417.6,507.5,243.2,244.7,3475.9,3477.1,646.5,457.7,627.0,1075.6,1174.4,505.1,-4.0,-3.0,10.0,9150.0,10020.0,7948.0,4598.0,-367.0,94.0,108.0,9.0,15.0,13.0,5856.0,3787.0,11131.0,9793.0,-274.0,-108.0,-80.0,1.0
2022-05-08 16:15:11.681504-07:00,847.0,1106.0,1433.2,1051.3,805.2,508.3,1661.5,1157.7,3472.2,3473.4,663.6,894.1,395.7,3501.4,781.1,728.2,3466.1,3477.1,381.7,574.6,417.6,507.5,243.9,250.8,3475.9,3481.9,660.3,450.6,627.0,1075.6,1172.6,516.3,6.0,25.0,-31.0,9209.0,9960.0,7876.0,4733.0,-387.0,51.0,200.0,-2.0,-7.0,-27.0,5944.0,3760.0,11048.0,9844.0,-346.0,-230.0,-85.0,1.0
2022-05-08 16:15:11.741755-07:00,847.0,1106.0,1447.0,1072.1,805.2,508.3,1682.4,1195.6,3472.2,3473.4,660.3,884.8,395.7,3501.4,781.9,727.4,3480.7,3477.1,381.7,574.6,414.5,510.7,243.9,250.8,3490.5,3483.2,660.3,450.6,623.8,1072.9,1172.6,516.3,4.0,2.0,-2.0,9288.0,9904.0,7800.0,4822.0,-202.0,-155.0,-17.0,7.0,-17.0,-3.0,6051.0,3737.0,10937.0,9911.0,-291.0,-198.0,-86.0,1.0
2022-05-08 16:15:11.801390-07:00,863.7,1099.9,1447.0,1072.1,805.2,513.1,1682.4,1195.6,3467.4,3484.4,660.3,884.8,389.5,3497.8,781.9,727.4,3480.7,3477.1,384.8,579.4,414.5,510.7,243.2,245.4,3490.5,3483.2,655.4,452.2,623.8,1072.9,1174.4,521.0,16.0,-29.0,58.0,9349.0,9880.0,7757.0,4823.0,-311.0,117.0,132.0,14.0,95.0,-48.0,6178.0,3724.0,10839.0,9945.0,-226.0,-493.0,-163.0,1.0
2022-05-08 16:15:11.861310-07:00,863.7,1099.9,1466.3,1083.4,805.2,513.1,1688.1,1205.3,3467.4,3484.4,663.6,889.0,389.5,3497.8,777.8,725.8,3480.7,3477.1,384.8,579.4,419.2,512.3,243.2,245.4,3474.6,3480.7,655.4,452.2,627.0,1077.3,1174.4,521.0,-28.0,100.0,-34.0,9373.0,9785.0,7706.0,5045.0,-207.0,100.0,218.0,16.0,55.0,38.0,6333.0,3747.0,10690.0,10000.0,-266.0,-134.0,-11.0,1.0
2022-05-08 16:15:11.891345-07:00,857.0,1061.7,1466.3,1083.4,801.0,506.7,1688.1,1205.3,3484.4,3479.5,663.6,889.0,387.9,3496.6,777.8,725.8,3480.7,3477.1,386.4,584.3,419.2,512.3,243.2,243.9,3474.6,3480.7,655.4,450.6,627.0,1077.3,1165.6,515.5,27.0,1.0,-3.0,9381.0,9774.0,7681.0,5089.0,-125.0,78.0,-59.0,8.0,35.0,-45.0,6411.0,3735.0,10629.0,10020.0,-106.0,-191.0,-106.0,1.0
2022-05-08 16:15:11.952032-07:00,857.0,1061.7,1530.1,1095.6,801.0,506.7,1714.8,1164.7,3484.4,3479.5,664.4,887.3,387.9,3496.6,772.8,724.9,3483.2,3481.9,386.4,584.3,417.6,519.5,243.2,243.9,3481.9,3471.0,655.4,450.6,629.5,1076.4,1165.6,515.5,-4.0,-91.0,-6.0,9420.0,9680.0,7661.0,5225.0,-478.0,254.0,361.0,26.0,-51.0,17.0,6491.0,3742.0,10538.0,10063.0,-384.0,-155.0,141.0,1.0
2022-05-08 16:15:12.041419-07:00,854.5,1061.7,1585.2,1095.6,872.1,502.0,1714.8,1164.7,3469.8,3467.4,667.6,887.3,394.2,3507.5,772.8,724.9,3483.2,3481.9,384.0,585.1,417.6,517.9,248.5,244.7,3481.9,3471.0,658.7,456.1,629.5,1074.7,1177.0,518.7,20.0,99.0,-25.0,9422.0,9665.0,7562.0,5393.0,19.0,-96.0,92.0,17.0,12.0,13.0,6508.0,3764.0,10451.0,10133.0,-18.0,-17.0,29.0,1.0
2022-05-08 16:15:12.042639-07:00,854.5,1061.7,1585.2,1088.6,872.1,497.2,1684.3,1097.3,3469.8,3467.4,667.6,892.4,394.2,3500.2,771.1,719.2,3477.1,3479.5,391.1,585.1,415.3,517.9,248.5,244.7,3472.2,3469.8,651.4,456.1,627.8,1074.7,1177.0,518.7,18.0,-27.0,2.0,9447.0,9680.0,7535.0,5358.0,-73.0,-82.0,-48.0,11.0,-12.0,-9.0,6523.0,3758.0,10449.0,10128.0,-38.0,-31.0,-43.0,1.0
2022-05-08 16:15:12.101719-07:00,853.7,1048.7,1592.7,1088.6,920.3,497.2,1684.3,1097.3,3469.8,3472.2,665.2,892.4,390.3,3500.2,771.1,719.2,3477.1,3479.5,391.1,583.5,415.3,514.7,252.3,245.4,3472.2,3469.8,651.4,451.4,627.8,1076.4,1176.2,516.3,-2.0,5.0,22.0,9469.0,9670.0,7512.0,5370.0,1.0,11.0,42.0,10.0,0.0,18.0,6536.0,3755.0,10429.0,10142.0,-21.0,13.0,28.0,1.0
2022-05-08 16:15:12.131421-07:00,853.7,1048.7,1592.7,1097.3,920.3,494.8,1654.9,1081.6,3469.8,3472.2,665.2,881.4,390.3,3495.3,773.6,721.6,3488.0,3481.9,381.7,583.5,412.9,514.7,252.3,245.4,3480.7,3469.8,648.9,451.4,626.2,1076.4,1176.2,516.3,6.0,1.0,5.0,9462.0,9671.0,7526.0,5361.0,11.0,20.0,-68.0,10.0,-1.0,7.0,6523.0,3748.0,10445.0,10136.0,52.0,53.0,-37.0,1.0
2022-05-08 16:15:12.221182-07:00,849.5,1033.2,1581.4,1097.3,913.5,494.8,1654.9,1081.6,3481.9,3472.2,665.2,881.4,389.5,3495.3,773.6,721.6,3488.0,3481.9,381.7,582.6,412.9,516.3,248.5,242.4,3480.7,3469.8,648.9,451.4,626.2,1076.4,1169.1,512.3,5.0,5.0,-18.0,9460.0,9666.0,7533.0,5365.0,-52.0,14.0,49.0,3.0,10.0,-14.0,6520.0,3740.0,10453.0,10132.0,-4.0,3.0,12.0,1.0
2022-05-08 16:15:12.311815-07:00,849.5,1033.2,1581.4,1096.4,913.5,491.7,1636.0,1073.8,3481.9,3472.2,665.2,884.8,389.5,3491.7,773.6,729.0,3485.6,3485.6,382.5,582.6,420.0,516.3,248.5,242.4,3481.9,3475.9,650.5,451.4,623.8,1076.4,1169.1,512.3,8.0,22.0,-10.0,9463.0,9666.0,7522.0,5373.0,20.0,-25.0,-5.0,14.0,8.0,-2.0,6518.0,3741.0,10447.0,10140.0,3.0,3.0,-2.0,1.0
2022-05-08 16:15:12.341217-07:00,847.8,1026.3,1572.1,1096.4,900.0,491.7,1636.0,1073.8,3480.7,3477.1,667.6,884.8,391.1,3491.7,773.6,729.0,3485.6,3485.6,382.5,585.1,420.0,515.5,243.9,244.7,3481.9,3475.9,650.5,449.0,623.8,1079.0,1163.8,512.3,8.0,2.0,9.0,9468.0,9673.0,7517.0,5359.0,5.0,-31.0,6.0,7.0,9.0,8.0,6518.0,3741.0,10449.0,10138.0,1.0,5.0,-2.0,1.0
2022-05-08 16:15:12.342567-07:00,847.8,1026.3,1572.1,1092.1,887.3,490.1,1615.2,1067.7,3480.7,3477.1,667.6,890.7,390.3,3491.7,764.5,724.1,3485.6,3479.5,392.6,581.0,416.8,515.5,243.9,244.7,3485.6,3479.5,644.0,446.7,625.4,1079.0,1163.8,512.3,7.0,2.0,5.0,9474.0,9672.0,7507.0,5365.0,-14.0,7.0,18.0,18.0,-11.0,9.0,6520.0,3740.0,10444.0,10143.0,-17.0,-7.0,9.0,1.0
2022-05-08 16:15:12.402117-07:00,845.3,1024.5,1584.2,1099.0,887.3,490.1,1615.2,1067.7,3473.4,3478.3,667.6,891.5,390.3,3491.7,764.5,724.1,3485.6,3479.5,392.6,581.0,417.6,517.9,249.2,246.2,3485.6,3479.5,644.0,446.7,625.4,1082.5,1171.8,511.5,9.0,11.0,-12.0,9474.0,9675.0,7510.0,5355.0,14.0,-27.0,-33.0,10.0,6.0,1.0,6514.0,3736.0,10450.0,10141.0,13.0,18.0,-11.0,1.0
2022-05-08 16:15:12.431469-07:00,845.3,1024.5,1584.2,1099.0,882.3,483.0,1610.5,1063.4,3473.4,3478.3,667.6,891.5,395.7,3500.2,772.8,722.5,3483.2,3479.5,379.4,581.8,417.6,517.9,249.2,246.2,3478.3,3483.2,648.9,446.7,625.4,1082.5,1171.8,511.5,4.0,-5.0,0.0,9479.0,9672.0,7511.0,5350.0,2.0,-2.0,7.0,6.0,-4.0,-1.0,6515.0,3732.0,10451.0,10141.0,-1.0,-2.0,2.0,1.0
2022-05-08 16:15:12.491342-07:00,846.1,1019.4,1573.0,1099.0,882.3,483.0,1610.5,1063.4,3471.0,3469.8,666.8,889.0,395.7,3500.2,772.8,722.5,3483.2,3479.5,379.4,581.8,416.8,518.7,250.8,245.4,3478.3,3483.2,648.9,446.7,624.6,1077.3,1171.8,509.1,9.0,1.0,4.0,9484.0,9668.0,7506.0,5357.0,-28.0,-6.0,8.0,12.0,-2.0,8.0,6516.0,3730.0,10448.0,10144.0,-24.0,-6.0,7.0,1.0
2022-05-08 16:15:12.581643-07:00,846.1,1019.4,1573.0,1099.0,878.0,486.1,1609.6,1059.1,3471.0,3469.8,666.8,889.0,391.1,3495.3,774.5,722.5,3481.9,3488.0,380.9,578.6,416.8,518.7,250.8,245.4,3478.3,3474.6,642.4,445.9,624.6,1077.3,1171.8,509.1,7.0,12.0,6.0,9478.0,9671.0,7511.0,5355.0,34.0,9.0,-10.0,13.0,2.0,7.0,6512.0,3728.0,10452.0,10143.0,27.0,26.0,-8.0,1.0
2022-05-08 16:15:12.583415-07:00,846.1,1018.5,1554.3,1095.6,878.0,486.1,1609.6,1059.1,3483.2,3475.9,661.9,887.3,391.1,3495.3,774.5,722.5,3481.9,3488.0,380.9,578.6,414.5,523.4,242.4,246.2,3478.3,3474.6,642.4,445.9,626.2,1079.9,1171.8,508.3,8.0,0.0,-3.0,9475.0,9667.0,7516.0,5358.0,-19.0,22.0,6.0,11.0,-3.0,-2.0,6507.0,3726.0,10457.0,10142.0,-5.0,7.0,5.0,1.0
2022-05-08 16:15:12.641191-07:00,847.8,1018.5,1554.3,1095.6,871.3,484.5,1588.9,1063.4,3478.3,3475.9,661.9,887.3,387.9,3495.3,770.3,724.9,3473.4,3479.5,384.0,580.2,414.5,523.4,242.4,247.7,3483.2,3483.2,647.3,448.2,626.2,1079.9,1171.8,512.3,6.0,10.0,0.0,9470.0,9666.0,7518.0,5366.0,1.0,6.0,3.0,9.0,6.0,6.0,6506.0,3727.0,10457.0,10143.0,0.0,-2.0,5.0,1.0
2022-05-08 16:15:12.731050-07:00,847.8,1015.9,1559.0,1099.0,871.3,484.5,1588.9,1059.9,3478.3,3473.4,668.4,885.6,387.9,3495.3,770.3,718.4,3472.2,3479.5,384.0,580.2,418.4,520.3,245.4,247.7,3481.9,3483.2,647.3,448.2,624.6,1072.1,1172.6,512.3,6.0,8.0,-5.0,9468.0,9669.0,7519.0,5364.0,18.0,-15.0,2.0,13.0,0.0,4.0,6504.0,3725.0,10459.0,10143.0,16.0,15.0,-2.0,1.0
2022-05-08 16:15:12.732951-07:00,843.6,1015.9,1559.0,1099.0,889.0,485.3,1596.4,1059.9,3471.0,3473.4,668.4,885.6,391.8,3496.6,775.3,718.4,3472.2,3480.7,384.0,582.6,418.4,520.3,245.4,247.7,3481.9,3472.2,640.0,450.6,624.6,1072.1,1172.6,515.5,9.0,7.0,0.0,9470.0,9669.0,7518.0,5363.0,-15.0,4.0,0.0,13.0,-5.0,6.0,6503.0,3725.0,10459.0,10143.0,-14.0,-4.0,2.0,1.0
2022-05-08 16:15:12.791303-07:00,843.6,1007.3,1582.4,1098.2,889.0,485.3,1596.4,1053.9,3471.0,3475.9,669.3,890.7,391.8,3496.6,775.3,721.6,3479.5,3480.7,384.0,582.6,415.3,521.0,246.2,247.7,3483.2,3472.2,640.0,450.6,623.0,1072.9,1169.1,515.5,6.0,1.0,-1.0,9474.0,9665.0,7513.0,5371.0,-12.0,1.0,18.0,15.0,-7.0,5.0,6504.0,3723.0,10457.0,10145.0,-3.0,1.0,5.0,1.0
2022-05-08 16:15:12.851475-07:00,846.1,1007.3,1582.4,1098.2,872.1,486.9,1589.9,1053.9,3471.0,3475.9,669.3,890.7,393.4,3491.7,776.9,721.6,3479.5,3478.3,386.4,580.2,415.3,521.0,246.2,247.7,3483.2,3467.4,637.6,444.3,623.0,1072.9,1169.1,508.3,12.0,15.0,-6.0,9475.0,9672.0,7504.0,5366.0,18.0,-35.0,-2.0,11.0,4.0,-7.0,6500.0,3721.0,10460.0,10146.0,10.0,18.0,-4.0,1.0
2022-05-08 16:15:12.941272-07:00,846.1,1010.8,1556.2,1090.3,872.1,486.9,1589.9,1056.5,3471.0,3480.7,666.8,879.7,393.4,3491.7,776.9,724.9,3479.5,3478.3,386.4,580.2,416.1,514.7,255.3,247.7,3483.2,3467.4,637.6,444.3,623.0,1086.0,1170.0,508.3,0.0,2.0,13.0,9471.0,9669.0,7510.0,5369.0,-15.0,20.0,-3.0,11.0,-7.0,18.0,6498.0,3721.0,10463.0,10143.0,-12.0,1.0,3.0,1.0
2022-05-08 16:15:12.942573-07:00,847.0,1003.9,1556.2,1090.3,878.0,487.7,1585.2,1056.5,3474.6,3478.3,666.8,879.7,392.6,3492.9,771.1,724.9,3479.5,3479.5,383.3,583.5,416.1,514.7,244.7,246.2,3483.2,3484.4,640.0,442.7,623.0,1086.0,1171.8,510.7,6.0,8.0,-4.0,9477.0,9668.0,7506.0,5369.0,7.0,-22.0,0.0,15.0,-1.0,-9.0,6497.0,3718.0,10462.0,10147.0,13.0,12.0,-2.0,1.0
2022-05-08 16:15:13.001479-07:00,847.0,1003.9,1554.3,1081.6,878.0,487.7,1579.6,1052.2,3474.6,3478.3,666.0,889.0,392.6,3492.9,776.9,723.3,3472.2,3475.9,383.3,583.5,416.1,517.9,244.7,246.2,3478.3,3483.2,640.0,442.7,621.4,1084.2,1171.8,510.7,2.0,-1.0,2.0,9468.0,9667.0,7514.0,5373.0,6.0,34.0,7.0,9.0,-7.0,8.0,6491.0,3718.0,10470.0,10142.0,9.0,6.0,1.0,1.0
2022-05-08 16:15:13.031539-07:00,847.0,995.3,1554.3,1081.6,875.5,484.5,1579.6,1052.2,3480.7,3483.2,666.0,889.0,395.7,3494.1,776.9,723.3,3472.2,3475.9,384.8,581.0,416.1,517.9,245.4,245.4,3478.3,3483.2,638.4,445.9,621.4,1084.2,1165.6,509.9,9.0,-1.0,-8.0,9476.0,9664.0,7503.0,5381.0,-36.0,-31.0,22.0,14.0,-1.0,-4.0,6495.0,3717.0,10463.0,10147.0,-12.0,-18.0,10.0,1.0
2022-05-08 16:15:13.151442-07:00,847.0,995.3,1558.1,1094.7,875.5,484.5,1575.8,1052.2,3480.7,3483.2,666.0,889.0,395.7,3494.1,770.3,726.6,3484.4,3475.9,384.8,581.0,419.2,518.7,245.4,245.4,3483.2,3474.6,638.4,445.9,624.6,1081.6,1165.6,509.9,7.0,15.0,7.0,9474.0,9669.0,7503.0,5376.0,35.0,7.0,-18.0,10.0,9.0,1.0,6493.0,3719.0,10467.0,10143.0,25.0,19.0,-10.0,1.0
2022-05-08 16:15:13.153654-07:00,849.5,991.0,1558.1,1094.7,866.3,482.2,1575.8,1052.2,3471.0,3478.3,666.0,889.0,385.6,3505.1,770.3,726.6,3484.4,3475.9,387.9,580.2,419.2,518.7,244.7,243.2,3483.2,3474.6,640.0,444.3,624.6,1081.6,1170.0,509.1,-1.0,-9.0,1.0,9473.0,9664.0,7510.0,5378.0,-30.0,5.0,7.0,14.0,-10.0,9.0,6491.0,3715.0,10470.0,10143.0,-16.0,4.0,7.0,1.0
2022-05-08 16:15:13.181531-07:00,849.5,991.0,1552.5,1091.2,866.3,482.2,1573.9,1053.0,3471.0,3478.3,664.4,889.8,385.6,3505.1,777.8,722.5,3475.9,3481.9,387.9,580.2,420.0,511.5,244.7,243.2,3469.8,3479.5,640.0,444.3,627.8,1079.0,1170.0,509.1,10.0,20.0,-13.0,9468.0,9670.0,7507.0,5379.0,25.0,-13.0,1.0,12.0,11.0,0.0,6490.0,3717.0,10471.0,10142.0,17.0,4.0,-8.0,1.0
2022-05-08 16:15:13.241309-07:00,845.3,997.0,1556.2,1091.2,860.4,485.3,1573.9,1053.0,3467.4,3475.9,666.8,889.8,388.7,3497.8,777.8,722.5,3475.9,3481.9,383.3,581.0,420.0,517.1,243.9,243.9,3469.8,3479.5,640.8,443.5,627.8,1077.3,1182.3,525.0,-1.0,-4.0,-1.0,9470.0,9669.0,7508.0,5377.0,-10.0,-14.0,4.0,10.0,-2.0,11.0,6490.0,3718.0,10472.0,10141.0,-6.0,-7.0,5.0,1.0
2022-05-08 16:15:13.301406-07:00,845.3,997.0,1556.2,1092.9,860.4,484.5,1579.6,1047.0,3467.4,3475.9,666.8,885.6,388.7,3499.0,771.1,724.9,3481.9,3477.1,384.8,581.0,416.8,517.1,243.9,243.9,3475.9,3478.3,634.3,443.5,626.2,1077.3,1182.3,525.0,3.0,16.0,7.0,9473.0,9672.0,7501.0,5374.0,8.0,-16.0,-1.0,9.0,0.0,5.0,6490.0,3718.0,10472.0,10141.0,5.0,-2.0,-4.0,1.0
2022-05-08 16:15:13.332168-07:00,848.6,990.2,1549.7,1092.9,856.2,484.5,1579.6,1047.0,3479.5,3467.4,666.0,885.6,393.4,3499.0,771.1,724.9,3481.9,3477.1,384.8,584.3,416.8,515.5,245.4,246.2,3475.9,3478.3,634.3,446.7,626.2,1080.8,1164.7,509.1,5.0,3.0,3.0,9467.0,9675.0,7506.0,5372.0,12.0,11.0,-6.0,13.0,-4.0,7.0,6487.0,3716.0,10474.0,10141.0,8.0,18.0,-3.0,1.0
2022-05-08 16:15:13.452240-07:00,848.6,990.2,1549.7,1089.5,856.2,480.6,1561.8,1047.0,3479.5,3467.4,666.0,883.9,393.4,3495.3,771.1,724.1,3478.3,3486.8,384.8,584.3,416.1,515.5,245.4,246.2,3485.6,3477.1,642.4,446.7,628.6,1080.8,1164.7,509.1,7.0,6.0,0.0,9465.0,9675.0,7508.0,5373.0,-13.0,14.0,-4.0,9.0,-1.0,0.0,6484.0,3714.0,10477.0,10140.0,-3.0,13.0,0.0,1.0
2022-05-08 16:15:13.453714-07:00,847.0,986.7,1545.0,1089.5,856.2,480.6,1561.8,1047.0,3478.3,3475.9,667.6,883.9,389.5,3495.3,771.1,724.1,3478.3,3486.8,384.8,581.0,416.1,514.7,243.9,243.2,3485.6,3477.1,642.4,445.1,628.6,1079.0,1172.6,503.6,7.0,3.0,-6.0,9462.0,9676.0,7512.0,5372.0,31.0,-2.0,-9.0,10.0,-1.0,-3.0,6480.0,3712.0,10481.0,10140.0,18.0,9.0,-8.0,1.0
2022-05-08 16:15:13.481479-07:00,847.0,986.7,1545.0,1090.3,856.2,479.8,1561.8,1045.2,3478.3,3475.9,667.6,889.0,389.5,3490.5,771.1,722.5,3474.6,3472.2,380.9,581.0,416.1,514.7,243.9,243.2,3479.5,3478.3,636.7,445.1,622.2,1079.0,1172.6,503.6,6.0,2.0,-3.0,9462.0,9677.0,7512.0,5370.0,-4.0,-16.0,6.0,14.0,0.0,0.0,6480.0,3713.0,10481.0,10139.0,-2.0,0.0,1.0,1.0
2022-05-08 16:15:13.541291-07:00,844.4,981.6,1540.3,1087.7,855.3,479.8,1561.8,1045.2,3478.3,3485.6,670.1,889.0,389.5,3490.5,771.1,722.5,3474.6,3472.2,380.9,580.2,420.0,518.7,256.9,243.2,3479.5,3478.3,636.7,449.8,627.0,1084.2,1173.5,497.2,-1.0,7.0,3.0,9463.0,9678.0,7513.0,5366.0,16.0,-3.0,-19.0,10.0,6.0,14.0,6479.0,3713.0,10485.0,10136.0,18.0,14.0,-12.0,1.0
2022-05-08 16:15:13.601510-07:00,844.4,981.6,1540.3,1087.7,845.3,481.4,1566.5,1044.4,3478.3,3485.6,670.1,889.0,390.3,3497.8,771.1,723.3,3478.3,3484.4,380.9,581.8,420.0,518.7,256.9,243.2,3483.2,3480.7,636.7,440.4,627.0,1084.2,1173.5,497.2,6.0,0.0,2.0,9462.0,9678.0,7514.0,5364.0,-2.0,6.0,21.0,9.0,0.0,-2.0,6479.0,3713.0,10485.0,10136.0,0.0,0.0,9.0,1.0
2022-05-08 16:15:13.661221-07:00,855.3,979.9,1545.9,1085.1,845.3,481.4,1566.5,1044.4,3467.4,3488.0,667.6,885.6,390.3,3497.8,771.1,723.3,3478.3,3484.4,380.9,581.8,416.8,517.9,247.7,246.2,3483.2,3480.7,636.7,440.4,626.2,1070.3,1167.4,504.4,7.0,8.0,1.0,9457.0,9682.0,7515.0,5366.0,58.0,7.0,-12.0,11.0,2.0,7.0,6474.0,3714.0,10490.0,10133.0,44.0,29.0,-9.0,1.0
