Time,P0,P1,P2,P3,P4,P5,P6,P7,P8,P9,P10,P11,P12,P13,P14,P15,P16,P17,P18,P19,P20,P21,P22,P23,P24,P25,P26,P27,P28,P29,P30,P31,ECG,AX0,AY0,AZ0,QW0,QX0,QY0,QZ0,GX0,GY0,GZ0,AX1,AY1,AZ1,QW1,QX1,QY1,QZ1,GX1,GY1,GZ1
2022-05-08 14:13:12.845489-07:00,960.2,1045.2,1710.0,1260.4,743.0,533.0,1554.3,984.2,3481.9,3474.6,847.8,1028.8,445.1,3496.6,1049.6,964.5,3479.5,3480.7,433.3,694.6,502.0,583.5,276.0,277.5,3483.2,3481.9,699.5,502.0,795.2,1328.7,1681.4,506.7,-6.0,-9.0,-8.0,9797.0,12497.0,3839.0,1237.0,5.0,13.0,3.0,-2.0,-41.0,5.0,11299.0,11672.0,1921.0,910.0,4.0,4.0,-11.0,1.0
2022-05-08 14:13:12.965284-07:00,959.4,1045.2,1710.0,1260.4,743.0,528.2,1550.6,984.2,3472.2,3474.6,847.8,1028.8,449.8,3486.8,1047.0,964.5,3479.5,3483.2,430.2,693.8,502.0,583.5,276.0,279.8,3483.2,3480.7,693.8,498.8,795.2,1328.7,1681.4,511.5,-8.0,-11.0,-14.0,9798.0,12497.0,3838.0,1235.0,9.0,-13.0,-7.0,-6.0,-44.0,0.0,11300.0,11672.0,1923.0,907.0,3.0,-10.0,-11.0,1.0
2022-05-08 14:13:12.966346-07:00,959.4,1040.1,1712.9,1274.7,743.0,528.2,1550.6,980.7,3472.2,3473.4,848.6,1017.6,449.8,3486.8,1047.0,959.4,3479.5,3483.2,430.2,693.8,498.0,581.0,273.7,279.8,3477.1,3480.7,693.8,498.8,778.6,1326.8,1678.6,511.5,1.0,-10.0,-2.0,9801.0,12497.0,3833.0,1229.0,-9.0,-24.0,5.0,2.0,-45.0,7.0,11301.0,11672.0,1919.0,903.0,-6.0,-14.0,4.0,1.0
2022-05-08 14:13:12.967440-07:00,959.4,1040.1,1712.9,1274.7,739.7,531.4,1545.0,980.7,3481.9,3473.4,848.6,1017.6,446.7,3494.1,1056.5,959.4,3479.5,3492.9,430.9,699.5,498.0,581.0,273.7,277.5,3477.1,3484.4,698.7,515.5,778.6,1326.8,1678.6,503.6,0.0,-7.0,4.0,9801.0,12498.0,3831.0,1226.0,-1.0,-2.0,2.0,2.0,-45.0,10.0,11301.0,11672.0,1916.0,900.0,2.0,-4.0,3.0,1.0
2022-05-08 14:13:13.025450-07:00,959.4,1040.9,1708.1,1256.0,739.7,531.4,1545.0,984.2,3481.9,3479.5,838.6,1030.6,446.7,3494.1,1056.5,958.5,3479.5,3492.9,430.9,699.5,505.9,584.3,276.7,277.5,3475.9,3484.4,698.7,515.5,791.9,1325.9,1680.5,503.6,2.0,-7.0,-2.0,9801.0,12498.0,3831.0,1226.0,2.0,1.0,-6.0,0.0,-47.0,5.0,11301.0,11672.0,1916.0,900.0,9.0,5.0,-2.0,1.0
2022-05-08 14:13:13.205535-07:00,959.4,1046.1,1708.1,1256.0,738.9,537.8,1552.5,984.2,3477.1,3474.6,838.6,1030.6,446.7,3502.7,1052.2,958.5,3479.5,3481.9,431.7,695.4,505.9,584.3,275.2,272.9,3475.9,3486.8,695.4,505.1,791.9,1325.9,1678.6,503.6,0.0,-14.0,-1.0,9801.0,12496.0,3836.0,1224.0,7.0,13.0,-9.0,0.0,-45.0,5.0,11300.0,11673.0,1917.0,899.0,8.0,6.0,-9.0,1.0
2022-05-08 14:13:13.206590-07:00,959.4,1046.1,1710.0,1260.4,738.9,537.8,1548.7,979.9,3477.1,3474.6,848.6,1046.1,446.7,3502.7,1041.8,957.7,3486.8,3479.5,431.7,695.4,499.6,582.6,275.2,272.9,3481.9,3480.7,695.4,505.1,794.4,1327.8,1678.6,503.6,-5.0,-14.0,-8.0,9800.0,12496.0,3838.0,1227.0,-3.0,3.0,1.0,-4.0,-45.0,5.0,11300.0,11673.0,1917.0,899.0,4.0,-2.0,0.0,1.0
2022-05-08 14:13:13.207380-07:00,956.0,1046.1,1710.0,1260.4,734.8,529.0,1548.7,979.9,3469.8,3483.2,848.6,1046.1,445.1,3499.0,1041.8,957.7,3486.8,3479.5,430.9,697.9,499.6,582.6,279.0,277.5,3481.9,3480.7,698.7,502.0,794.4,1327.8,1685.3,498.8,3.0,-9.0,-3.0,9802.0,12495.0,3838.0,1228.0,-8.0,-6.0,2.0,2.0,-45.0,6.0,11300.0,11673.0,1917.0,899.0,-9.0,-5.0,2.0,1.0
2022-05-08 14:13:13.385056-07:00,956.0,1046.1,1711.0,1257.8,734.8,529.0,1546.9,980.7,3469.8,3483.2,838.6,1028.0,445.1,3499.0,1041.8,956.0,3466.1,3479.5,430.9,697.9,502.0,583.5,279.0,277.5,3485.6,3480.7,698.7,502.0,791.0,1326.8,1685.3,498.8,2.0,-7.0,0.0,9803.0,12495.0,3836.0,1225.0,-2.0,0.0,-4.0,1.0,-43.0,5.0,11300.0,11673.0,1917.0,899.0,-4.0,3.0,-2.0,1.0
2022-05-08 14:13:13.385963-07:00,959.4,1052.2,1711.0,1257.8,740.6,527.4,1546.9,980.7,3464.9,3472.2,838.6,1028.0,450.6,3495.3,1041.8,956.0,3466.1,3479.5,427.8,696.2,502.0,583.5,272.9,275.2,3485.6,3480.7,696.2,505.9,791.0,1326.8,1680.5,500.4,1.0,-6.0,0.0,9802.0,12495.0,3837.0,1226.0,-4.0,15.0,-5.0,0.0,-45.0,5.0,11300.0,11673.0,1917.0,899.0,3.0,5.0,-2.0,1.0
2022-05-08 14:13:13.387241-07:00,959.4,1052.2,1710.0,1261.3,740.6,527.4,1552.5,984.2,3464.9,3472.2,847.0,1026.3,450.6,3495.3,1047.0,959.4,3478.3,3479.5,427.8,696.2,509.1,584.3,272.9,275.2,3484.4,3479.5,696.2,505.9,789.4,1329.6,1680.5,500.4,0.0,-10.0,-4.0,9801.0,12494.0,3842.0,1232.0,1.0,19.0,-8.0,2.0,-45.0,3.0,11300.0,11673.0,1918.0,900.0,7.0,5.0,-7.0,1.0
2022-05-08 14:13:13.388484-07:00,956.8,1047.8,1711.0,1261.3,740.6,533.0,1552.5,984.2,3467.4,3478.3,842.8,1026.3,450.6,3501.4,1047.0,959.4,3478.3,3479.5,430.2,697.9,509.1,581.0,278.3,281.3,3484.4,3479.5,699.5,509.1,789.4,1327.8,1677.6,504.4,0.0,-13.0,-7.0,9800.0,12494.0,3845.0,1235.0,3.0,-4.0,-2.0,0.0,-44.0,1.0,11300.0,11673.0,1918.0,900.0,7.0,0.0,-1.0,1.0
2022-05-08 14:13:13.415310-07:00,956.8,1047.8,1711.0,1255.1,740.6,528.2,1551.5,980.7,3467.4,3478.3,842.8,1030.6,450.6,3502.7,1049.6,960.2,3475.9,3480.7,426.2,697.9,502.8,581.0,278.3,281.3,3481.9,3483.2,700.3,509.1,788.6,1327.8,1677.6,504.4,1.0,-10.0,0.0,9800.0,12493.0,3845.0,1235.0,-4.0,-3.0,2.0,1.0,-45.0,9.0,11300.0,11673.0,1918.0,900.0,-1.0,-2.0,0.0,1.0
2022-05-08 14:13:13.505960-07:00,962.0,1047.8,1711.0,1255.1,734.8,528.2,1551.5,980.7,3473.4,3479.5,844.4,1030.6,452.2,3502.7,1049.6,960.2,3475.9,3480.7,426.2,691.3,502.8,581.0,278.3,277.5,3481.9,3483.2,700.3,502.8,788.6,1324.1,1679.5,502.8,0.0,-9.0,1.0,9800.0,12493.0,3845.0,1235.0,-1.0,7.0,-4.0,-1.0,-44.0,9.0,11300.0,11673.0,1918.0,900.0,-1.0,4.0,1.0,1.0
2022-05-08 14:13:13.566073-07:00,962.0,1047.8,1711.0,1264.0,734.8,529.8,1543.1,980.7,3473.4,3479.5,844.4,1028.8,452.2,3491.7,1047.0,958.5,3480.7,3488.0,434.1,691.3,502.8,581.0,278.3,277.5,3474.6,3485.6,695.4,502.8,791.9,1324.1,1679.5,502.8,0.0,-10.0,-2.0,9800.0,12493.0,3845.0,1236.0,2.0,1.0,-8.0,1.0,-47.0,8.0,11300.0,11673.0,1918.0,900.0,3.0,3.0,-5.0,1.0
2022-05-08 14:13:13.567460-07:00,962.8,1043.5,1711.0,1264.0,735.6,529.8,1543.1,980.7,3478.3,3475.9,847.8,1028.8,445.9,3491.7,1047.0,958.5,3480.7,3488.0,434.1,697.0,502.8,581.8,272.9,268.3,3474.6,3485.6,695.4,503.6,791.9,1324.1,1665.3,499.6,3.0,-9.0,-4.0,9800.0,12493.0,3845.0,1236.0,-1.0,0.0,3.0,0.0,-44.0,2.0,11300.0,11673.0,1918.0,900.0,1.0,-3.0,3.0,1.0
2022-05-08 14:13:13.625328-07:00,962.8,1043.5,1711.0,1256.0,735.6,527.4,1552.5,978.2,3478.3,3475.9,847.8,1028.0,445.9,3499.0,1038.3,962.0,3488.0,3483.2,429.4,697.0,504.4,581.8,272.9,268.3,3486.8,3477.1,697.9,503.6,789.4,1324.1,1665.3,499.6,-4.0,-9.0,-2.0,9800.0,12493.0,3846.0,1237.0,5.0,-2.0,2.0,-4.0,-42.0,6.0,11300.0,11673.0,1918.0,900.0,6.0,5.0,1.0,1.0
2022-05-08 14:13:13.685318-07:00,958.5,1044.4,1710.0,1261.3,738.1,527.4,1552.5,978.2,3473.4,3480.7,843.6,1029.7,445.1,3499.0,1038.3,962.0,3488.0,3483.2,429.4,697.0,504.4,581.0,271.4,273.7,3486.8,3477.1,697.9,505.9,792.7,1327.8,1667.2,506.7,1.0,-8.0,-5.0,9799.0,12493.0,3847.0,1238.0,-1.0,5.0,-8.0,3.0,-45.0,11.0,11300.0,11673.0,1918.0,900.0,-6.0,1.0,-3.0,1.0
2022-05-08 14:13:13.715422-07:00,958.5,1044.4,1710.0,1261.3,738.9,526.6,1547.8,985.0,3473.4,3480.7,843.6,1029.7,449.8,3496.6,1046.1,956.8,3478.3,3481.9,434.9,693.8,504.4,581.0,271.4,273.7,3485.6,3488.0,698.7,505.1,792.7,1327.8,1667.2,506.7,1.0,-13.0,-3.0,9799.0,12493.0,3849.0,1237.0,8.0,-2.0,-9.0,2.0,-45.0,6.0,11300.0,11673.0,1918.0,900.0,3.0,8.0,-3.0,1.0
2022-05-08 14:13:13.775398-07:00,952.6,1042.6,1704.3,1260.4,738.9,526.6,1547.8,985.0,3478.3,3475.9,837.7,1033.2,449.8,3496.6,1046.1,956.8,3478.3,3481.9,434.9,693.8,501.2,583.5,273.7,277.5,3485.6,3488.0,698.7,505.1,796.0,1311.5,1678.6,502.0,-3.0,-13.0,4.0,9799.0,12493.0,3849.0,1237.0,-7.0,7.0,1.0,-5.0,-45.0,8.0,11300.0,11673.0,1918.0,900.0,-1.0,2.0,0.0,1.0
2022-05-08 14:13:13.895247-07:00,952.6,1042.6,1704.3,1260.4,737.3,529.0,1547.8,980.7,3478.3,3475.9,837.7,1033.2,445.9,3500.2,1049.6,956.0,3480.7,3478.3,427.8,695.4,501.2,583.5,273.7,277.5,3483.2,3473.4,698.7,502.0,796.0,1311.5,1678.6,502.0,-2.0,-7.0,-3.0,9797.0,12493.0,3853.0,1242.0,3.0,12.0,-7.0,-1.0,-43.0,7.0,11300.0,11673.0,1918.0,900.0,6.0,3.0,-5.0,1.0
2022-05-08 14:13:13.955387-07:00,956.8,1043.5,1711.9,1258.7,737.3,529.0,1547.8,980.7,3475.9,3475.9,845.3,1024.5,445.9,3500.2,1049.6,956.0,3480.7,3478.3,427.8,695.4,502.8,582.6,279.0,276.0,3483.2,3473.4,698.7,502.0,791.0,1322.3,1679.5,502.8,0.0,-13.0,-4.0,9797.0,12492.0,3856.0,1240.0,0.0,10.0,-6.0,-1.0,-45.0,1.0,11300.0,11673.0,1918.0,900.0,2.0,-4.0,-3.0,1.0
2022-05-08 14:13:13.956469-07:00,956.8,1043.5,1711.9,1258.7,742.2,529.0,1552.5,982.5,3475.9,3475.9,845.3,1024.5,447.4,3496.6,1049.6,960.2,3474.6,3481.9,427.8,693.8,502.8,582.6,279.0,276.0,3474.6,3479.5,706.0,501.2,791.0,1322.3,1679.5,502.8,0.0,-9.0,-5.0,9798.0,12490.0,3859.0,1244.0,-1.0,7.0,2.0,-2.0,-44.0,0.0,11300.0,11673.0,1918.0,900.0,7.0,-6.0,6.0,1.0
2022-05-08 14:13:13.985404-07:00,956.0,1044.4,1707.2,1258.7,742.2,529.0,1552.5,978.2,3467.4,3467.4,847.0,1027.1,447.4,3496.6,1049.6,959.4,3479.5,3481.9,427.8,693.8,505.9,581.8,276.0,270.6,3475.9,3479.5,706.0,501.2,786.1,1330.5,1674.8,502.0,0.0,-6.0,0.0,9798.0,12489.0,3859.0,1245.0,-8.0,-4.0,4.0,3.0,-46.0,5.0,11301.0,11673.0,1916.0,898.0,-4.0,-14.0,5.0,1.0
2022-05-08 14:13:14.075397-07:00,955.1,1044.4,1707.2,1258.7,738.1,527.4,1549.7,978.2,3478.3,3467.4,847.0,1027.1,444.3,3503.9,1049.6,959.4,3479.5,3483.2,430.2,692.9,505.9,581.8,276.0,271.4,3475.9,3475.9,697.9,505.9,786.1,1330.5,1674.8,502.0,0.0,-12.0,-2.0,9798.0,12489.0,3859.0,1245.0,2.0,-7.0,1.0,-2.0,-46.0,6.0,11301.0,11673.0,1916.0,898.0,0.0,-4.0,2.0,1.0
2022-05-08 14:13:14.076817-07:00,955.1,1041.8,1707.2,1261.3,738.1,527.4,1549.7,979.9,3478.3,3472.2,844.4,1024.5,444.3,3503.9,1049.6,958.5,3479.5,3483.2,430.2,692.9,502.8,584.3,276.0,271.4,3483.2,3475.9,697.9,505.9,791.9,1325.0,1677.6,502.0,0.0,-12.0,-3.0,9798.0,12489.0,3859.0,1245.0,3.0,-5.0,5.0,-3.0,-45.0,3.0,11301.0,11673.0,1916.0,898.0,2.0,-2.0,7.0,1.0
2022-05-08 14:13:14.135339-07:00,956.8,1041.8,1707.2,1261.3,738.9,524.2,1542.2,979.9,3467.4,3472.2,844.4,1024.5,446.7,3492.9,1042.6,958.5,3479.5,3474.6,428.6,689.7,502.8,584.3,276.0,274.4,3483.2,3477.1,701.9,502.0,791.9,1325.0,1677.6,498.8,-1.0,-7.0,-2.0,9798.0,12489.0,3859.0,1245.0,2.0,-4.0,6.0,-1.0,-42.0,7.0,11301.0,11673.0,1916.0,898.0,0.0,-6.0,7.0,1.0
2022-05-08 14:13:14.255362-07:00,956.8,1046.1,1710.0,1261.3,738.9,524.2,1542.2,973.1,3467.4,3468.6,842.8,1023.7,446.7,3492.9,1042.6,956.8,3477.1,3474.6,428.6,689.7,498.8,579.4,276.7,274.4,3475.9,3477.1,701.9,502.0,790.2,1325.0,1672.9,498.8,1.0,-10.0,0.0,9798.0,12489.0,3859.0,1245.0,-2.0,5.0,-4.0,0.0,-47.0,5.0,11301.0,11673.0,1916.0,898.0,1.0,-2.0,1.0,1.0
2022-05-08 14:13:14.285382-07:00,959.4,1046.1,1710.0,1261.3,737.3,528.2,1558.1,973.1,3479.5,3468.6,842.8,1023.7,447.4,3497.8,1047.8,956.8,3477.1,3475.9,430.9,695.4,498.8,579.4,276.7,278.3,3475.9,3472.2,697.0,499.6,790.2,1325.0,1672.9,504.4,0.0,-8.0,-5.0,9798.0,12489.0,3859.0,1245.0,1.0,3.0,4.0,1.0,-47.0,6.0,11301.0,11673.0,1916.0,898.0,4.0,1.0,6.0,1.0
2022-05-08 14:13:14.286329-07:00,959.4,1041.8,1709.1,1262.2,737.3,528.2,1550.6,979.9,3479.5,3477.1,846.1,1025.4,447.4,3497.8,1041.8,956.0,3469.8,3475.9,430.9,695.4,498.8,584.3,277.5,278.3,3475.9,3475.9,697.0,499.6,799.4,1327.8,1681.4,504.4,1.0,-12.0,-4.0,9799.0,12489.0,3859.0,1245.0,-11.0,4.0,7.0,2.0,-47.0,4.0,11301.0,11672.0,1915.0,897.0,-10.0,-13.0,6.0,1.0
2022-05-08 14:13:14.315796-07:00,951.7,1047.8,1709.1,1262.2,742.2,528.2,1550.6,979.9,3474.6,3475.9,846.1,1025.4,451.4,3502.7,1041.8,956.0,3469.8,3475.9,431.7,697.0,498.8,584.3,279.8,268.3,3475.9,3475.9,697.0,505.1,799.4,1327.8,1671.9,507.5,5.0,-10.0,-3.0,9801.0,12488.0,3856.0,1244.0,9.0,-16.0,4.0,3.0,-44.0,1.0,11304.0,11670.0,1913.0,899.0,2.0,-6.0,11.0,1.0
2022-05-08 14:13:14.435937-07:00,951.7,1047.8,1709.1,1257.8,742.2,528.2,1539.4,981.6,3474.6,3475.9,843.6,1028.0,451.4,3502.7,1040.1,965.4,3480.7,3481.9,431.7,697.0,500.4,580.2,279.8,268.3,3477.1,3477.1,697.0,505.1,787.7,1323.2,1671.9,507.5,0.0,-7.0,-1.0,9803.0,12487.0,3856.0,1245.0,-11.0,3.0,2.0,-2.0,-44.0,4.0,11304.0,11670.0,1911.0,901.0,-8.0,-3.0,3.0,1.0
2022-05-08 14:13:14.437222-07:00,960.2,1041.8,1709.1,1257.8,736.5,530.6,1539.4,981.6,3472.2,3475.9,843.6,1028.0,446.7,3505.1,1040.1,965.4,3480.7,3481.9,428.6,689.7,500.4,580.2,275.2,276.7,3477.1,3477.1,699.5,502.8,787.7,1323.2,1674.8,505.1,3.0,-14.0,-2.0,9803.0,12487.0,3856.0,1245.0,4.0,2.0,-2.0,4.0,-45.0,5.0,11304.0,11670.0,1911.0,901.0,1.0,-6.0,3.0,1.0
2022-05-08 14:13:14.465811-07:00,960.2,1041.8,1713.8,1262.2,736.5,530.6,1551.5,968.8,3472.2,3475.9,844.4,1028.8,446.7,3505.1,1043.5,959.4,3480.7,3484.4,428.6,689.7,497.2,583.5,275.2,276.7,3479.5,3480.7,699.5,502.8,792.7,1322.3,1674.8,505.1,1.0,-7.0,-2.0,9802.0,12487.0,3856.0,1245.0,1.0,10.0,7.0,0.0,-44.0,4.0,11304.0,11670.0,1911.0,901.0,-1.0,-1.0,9.0,1.0
2022-05-08 14:13:14.555283-07:00,957.7,1045.2,1713.8,1262.2,742.2,529.8,1551.5,968.8,3471.0,3480.7,844.4,1028.8,451.4,3502.7,1043.5,959.4,3480.7,3484.4,427.0,690.5,497.2,583.5,277.5,272.9,3479.5,3480.7,701.9,504.4,792.7,1322.3,1671.9,500.4,2.0,-5.0,-8.0,9802.0,12487.0,3856.0,1245.0,-2.0,-4.0,1.0,0.0,-40.0,0.0,11304.0,11670.0,1910.0,902.0,0.0,-2.0,3.0,1.0
2022-05-08 14:13:14.556301-07:00,957.7,1045.2,1714.8,1264.0,742.2,527.4,1542.2,979.0,3471.0,3480.7,846.1,1034.0,451.4,3500.2,1044.4,954.3,3481.9,3488.0,428.6,690.5,495.6,580.2,277.5,272.9,3475.9,3478.3,699.5,504.4,786.9,1316.9,1671.9,500.4,6.0,-11.0,-5.0,9802.0,12487.0,3857.0,1245.0,-5.0,2.0,-10.0,8.0,-46.0,1.0,11304.0,11670.0,1910.0,902.0,-3.0,0.0,-6.0,1.0
2022-05-08 14:13:14.645925-07:00,956.8,1046.1,1701.4,1264.0,737.3,527.4,1542.2,979.0,3477.1,3475.9,841.1,1034.0,448.2,3500.2,1044.4,954.3,3481.9,3488.0,428.6,693.8,495.6,581.0,275.2,278.3,3475.9,3478.3,699.5,502.0,786.9,1325.9,1674.8,502.0,1.0,-14.0,0.0,9803.0,12487.0,3856.0,1244.0,-7.0,-4.0,-7.0,1.0,-47.0,4.0,11304.0,11670.0,1909.0,901.0,-11.0,-8.0,-3.0,1.0
2022-05-08 14:13:14.675353-07:00,956.8,1046.1,1701.4,1256.0,737.3,533.0,1547.8,979.0,3477.1,3475.9,841.1,1026.3,448.2,3499.0,1037.5,957.7,3477.1,3477.1,429.4,693.8,502.0,581.0,275.2,278.3,3479.5,3477.1,695.4,502.0,794.4,1325.9,1674.8,502.0,-3.0,-6.0,-3.0,9804.0,12486.0,3857.0,1244.0,2.0,-3.0,-10.0,-4.0,-41.0,3.0,11305.0,11669.0,1909.0,901.0,-5.0,-4.0,-4.0,1.0
2022-05-08 14:13:14.705427-07:00,951.7,1043.5,1712.9,1256.0,740.6,533.0,1547.8,979.0,3477.1,3477.1,845.3,1026.3,446.7,3499.0,1037.5,957.7,3477.1,3477.1,429.4,692.1,502.0,587.5,279.8,276.7,3479.5,3477.1,695.4,502.0,794.4,1322.3,1676.7,502.8,2.0,-9.0,-2.0,9805.0,12484.0,3862.0,1240.0,0.0,3.0,-12.0,1.0,-44.0,5.0,11305.0,11669.0,1912.0,899.0,4.0,2.0,-13.0,1.0
2022-05-08 14:13:14.765311-07:00,951.7,1043.5,1712.9,1256.0,740.6,534.6,1545.0,976.5,3477.1,3477.1,845.3,1024.5,446.7,3502.7,1030.6,957.7,3477.1,3475.9,434.1,692.1,498.8,587.5,279.8,276.7,3478.3,3484.4,701.1,502.0,793.5,1322.3,1676.7,502.8,1.0,-15.0,-6.0,9805.0,12484.0,3863.0,1239.0,3.0,-2.0,-4.0,-1.0,-45.0,3.0,11306.0,11668.0,1914.0,897.0,-3.0,-3.0,-4.0,1.0
2022-05-08 14:13:14.825367-07:00,959.4,1041.8,1713.8,1256.0,734.8,534.6,1545.0,976.5,3471.0,3490.5,847.0,1024.5,447.4,3502.7,1030.6,957.7,3477.1,3475.9,434.1,692.1,498.8,581.8,278.3,274.4,3478.3,3484.4,701.1,505.1,793.5,1328.7,1678.6,503.6,4.0,-5.0,-4.0,9805.0,12484.0,3863.0,1239.0,-5.0,5.0,-7.0,2.0,-44.0,5.0,11306.0,11668.0,1914.0,897.0,-6.0,-5.0,-9.0,1.0
2022-05-08 14:13:14.885425-07:00,959.4,1041.8,1713.8,1258.7,737.3,524.2,1547.8,973.1,3471.0,3490.5,847.0,1027.1,449.0,3503.9,1038.3,957.7,3472.2,3480.7,433.3,692.9,498.8,581.8,278.3,274.4,3480.7,3478.3,698.7,501.2,792.7,1328.7,1678.6,503.6,6.0,-10.0,-6.0,9805.0,12482.0,3867.0,1236.0,8.0,-2.0,-12.0,4.0,-47.0,3.0,11306.0,11668.0,1915.0,896.0,2.0,-2.0,-12.0,1.0
2022-05-08 14:13:14.915529-07:00,952.6,1044.4,1706.2,1261.3,737.3,524.2,1547.8,973.1,3483.2,3478.3,837.7,1030.6,449.0,3503.9,1038.3,957.7,3472.2,3480.7,433.3,692.9,503.6,578.6,276.0,272.1,3480.7,3478.3,698.7,501.2,787.7,1316.9,1674.8,502.8,0.0,-12.0,-4.0,9805.0,12482.0,3868.0,1235.0,3.0,-3.0,-5.0,1.0,-45.0,5.0,11306.0,11668.0,1917.0,894.0,4.0,-3.0,-4.0,1.0
2022-05-08 14:13:14.976032-07:00,952.6,1044.4,1706.2,1261.3,731.5,528.2,1543.1,978.2,3483.2,3478.3,837.7,1030.6,448.2,3496.6,1056.5,950.9,3475.9,3481.9,427.0,685.6,503.6,578.6,276.0,272.1,3483.2,3484.4,689.7,505.1,787.7,1316.9,1674.8,502.8,0.0,-11.0,-2.0,9805.0,12482.0,3868.0,1235.0,-8.0,7.0,-2.0,-1.0,-48.0,6.0,11306.0,11668.0,1917.0,894.0,-6.0,-4.0,-3.0,1.0
2022-05-08 14:13:15.065150-07:00,956.0,1053.0,1706.2,1261.3,731.5,528.2,1543.1,978.2,3488.0,3479.5,842.8,1028.0,448.2,3496.6,1056.5,950.9,3475.9,3481.9,427.0,685.6,505.1,585.1,277.5,274.4,3483.2,3484.4,689.7,505.1,788.6,1328.7,1679.5,503.6,1.0,-10.0,-5.0,9805.0,12482.0,3869.0,1234.0,4.0,-1.0,-11.0,1.0,-44.0,4.0,11306.0,11668.0,1917.0,894.0,-1.0,2.0,-3.0,1.0
2022-05-08 14:13:15.335448-07:00,956.0,1053.0,1706.2,1261.3,738.1,525.8,1546.9,979.0,3488.0,3479.5,842.8,1028.0,447.4,3503.9,1039.2,957.7,3480.7,3479.5,433.3,696.2,505.1,585.1,277.5,274.4,3483.2,3472.2,704.4,505.1,788.6,1328.7,1679.5,503.6,0.0,-8.0,-8.0,9806.0,12482.0,3869.0,1233.0,-5.0,-11.0,-6.0,0.0,-44.0,2.0,11306.0,11668.0,1917.0,894.0,-8.0,-4.0,-3.0,1.0
2022-05-08 14:13:15.337100-07:00,956.0,1041.8,1708.1,1256.0,738.1,525.8,1546.9,979.0,3466.1,3472.2,842.8,1031.4,447.4,3503.9,1039.2,957.7,3480.7,3479.5,433.3,696.2,504.4,579.4,269.9,273.7,3483.2,3472.2,704.4,505.1,787.7,1315.1,1680.5,502.8,0.0,-7.0,-2.0,9806.0,12482.0,3869.0,1233.0,-8.0,7.0,-1.0,-1.0,-47.0,8.0,11306.0,11668.0,1917.0,894.0,2.0,-5.0,0.0,1.0
2022-05-08 14:13:15.337839-07:00,958.5,1041.8,1708.1,1256.0,734.8,531.4,1550.6,975.6,3468.6,3472.2,842.8,1031.4,449.0,3503.9,1042.6,958.5,3473.4,3480.7,430.9,692.9,504.4,579.4,269.9,278.3,3474.6,3488.0,696.2,504.4,787.7,1315.1,1680.5,503.6,0.0,-6.0,-7.0,9806.0,12481.0,3870.0,1235.0,3.0,-4.0,-4.0,-1.0,-44.0,3.0,11306.0,11668.0,1917.0,894.0,2.0,-3.0,3.0,1.0
2022-05-08 14:13:15.338580-07:00,958.5,1046.1,1709.1,1262.2,734.8,531.4,1550.6,977.3,3468.6,3481.9,837.7,1029.7,449.0,3503.9,1042.6,960.2,3483.2,3480.7,430.9,692.9,498.0,585.9,272.9,278.3,3483.2,3488.0,696.2,504.4,790.2,1319.6,1671.0,503.6,2.0,-9.0,-2.0,9806.0,12481.0,3870.0,1235.0,-2.0,-4.0,2.0,0.0,-43.0,4.0,11306.0,11668.0,1917.0,894.0,-1.0,-3.0,2.0,1.0
2022-05-08 14:13:15.340560-07:00,955.1,1046.1,1709.1,1262.2,738.9,529.0,1550.6,977.3,3480.7,3481.9,837.7,1029.7,449.0,3492.9,1043.5,960.2,3483.2,3480.7,433.3,692.1,498.0,585.9,272.9,275.2,3483.2,3481.9,690.5,521.8,790.2,1319.6,1671.0,501.2,-4.0,-8.0,-5.0,9807.0,12480.0,3871.0,1236.0,6.0,0.0,-4.0,-4.0,-46.0,5.0,11306.0,11668.0,1917.0,894.0,0.0,3.0,-2.0,1.0
2022-05-08 14:13:15.365926-07:00,955.1,1046.1,1710.0,1260.4,738.9,529.0,1550.6,979.0,3480.7,3479.5,840.3,1024.5,449.0,3492.9,1043.5,955.1,3483.2,3480.7,433.3,692.1,496.4,578.6,282.9,275.2,3485.6,3481.9,690.5,521.8,789.4,1323.2,1665.3,501.2,3.0,-10.0,-6.0,9807.0,12480.0,3871.0,1236.0,-7.0,0.0,-1.0,0.0,-46.0,2.0,11306.0,11668.0,1917.0,894.0,-2.0,1.0,2.0,1.0
2022-05-08 14:13:15.366510-07:00,955.1,1046.1,1710.0,1260.4,738.9,529.0,1550.6,979.0,3480.7,3479.5,840.3,1024.5,449.0,3492.9,1043.5,955.1,3483.2,3480.7,433.3,692.1,496.4,578.6,282.9,275.2,3485.6,3481.9,690.5,521.8,789.4,1323.2,1665.3,501.2,3.0,-10.0,-6.0,9807.0,12480.0,3871.0,1236.0,-7.0,0.0,-1.0,0.0,-46.0,2.0,11306.0,11668.0,1917.0,894.0,-2.0,1.0,2.0,1.0
2022-05-08 14:13:15.425354-07:00,963.7,1043.5,1705.3,1256.0,736.5,529.0,1544.1,979.0,3478.3,3467.4,839.4,1028.8,447.4,3494.1,1046.1,960.2,3479.5,3488.0,429.4,694.6,500.4,584.3,272.9,279.8,3479.5,3477.1,693.8,505.9,790.2,1325.9,1676.7,497.2,-1.0,-7.0,-6.0,9807.0,12480.0,3871.0,1236.0,2.0,-7.0,0.0,0.0,-41.0,5.0,11306.0,11668.0,1917.0,894.0,2.0,5.0,3.0,1.0
2022-05-08 14:13:15.545385-07:00,952.6,1045.2,1705.3,1256.0,729.9,527.4,1545.9,979.0,3468.6,3483.2,839.4,1028.8,448.2,3491.7,1040.1,960.2,3479.5,3480.7,431.7,695.4,500.4,584.3,275.2,276.0,3479.5,3471.0,699.5,502.8,790.2,1325.9,1670.1,498.8,6.0,-9.0,-6.0,9809.0,12479.0,3871.0,1237.0,-7.0,-5.0,-4.0,2.0,-44.0,4.0,11306.0,11668.0,1917.0,894.0,-5.0,-5.0,-2.0,1.0
2022-05-08 14:13:15.547631-07:00,952.6,1045.2,1707.2,1258.7,729.9,527.4,1546.9,980.7,3468.6,3483.2,841.1,1026.3,448.2,3491.7,1042.6,957.7,3472.2,3477.1,431.7,695.4,500.4,582.6,275.2,276.0,3479.5,3485.6,699.5,502.8,787.7,1321.4,1670.1,498.8,-1.0,-13.0,0.0,9809.0,12479.0,3871.0,1237.0,4.0,0.0,-1.0,-1.0,-50.0,10.0,11306.0,11668.0,1917.0,894.0,7.0,7.0,2.0,1.0
2022-05-08 14:13:15.605357-07:00,949.2,1040.1,1707.2,1258.7,739.7,528.2,1546.9,980.7,3477.1,3474.6,841.1,1026.3,446.7,3499.0,1042.6,957.7,3472.2,3477.1,430.2,692.9,500.4,582.6,274.4,275.2,3479.5,3485.6,699.5,503.6,787.7,1321.4,1670.1,510.7,-2.0,-7.0,-6.0,9809.0,12479.0,3871.0,1237.0,1.0,11.0,-4.0,-1.0,-47.0,3.0,11305.0,11668.0,1918.0,895.0,4.0,7.0,-1.0,1.0
2022-05-08 14:13:15.606381-07:00,949.2,1040.1,1711.0,1258.7,739.7,528.2,1536.6,977.3,3477.1,3474.6,839.4,1022.8,446.7,3499.0,1039.2,953.4,3475.9,3477.1,430.2,692.9,501.2,581.8,274.4,275.2,3475.9,3477.1,699.5,503.6,789.4,1320.5,1670.1,510.7,1.0,-11.0,-8.0,9808.0,12478.0,3873.0,1237.0,3.0,-6.0,-13.0,0.0,-48.0,4.0,11305.0,11668.0,1918.0,895.0,3.0,3.0,-7.0,1.0
2022-05-08 14:13:15.696007-07:00,955.1,1045.2,1711.0,1258.7,743.0,531.4,1536.6,977.3,3473.4,3474.6,839.4,1022.8,451.4,3496.6,1039.2,953.4,3475.9,3477.1,431.7,692.1,501.2,581.8,277.5,277.5,3475.9,3477.1,698.7,505.9,789.4,1320.5,1672.9,518.7,-3.0,-14.0,-7.0,9809.0,12477.0,3874.0,1237.0,-10.0,4.0,5.0,-5.0,-50.0,5.0,11305.0,11668.0,1918.0,895.0,-3.0,-5.0,6.0,1.0
2022-05-08 14:13:15.725254-07:00,955.1,1045.2,1707.2,1254.2,743.0,531.4,1550.6,980.7,3473.4,3474.6,841.9,1023.7,451.4,3496.6,1039.2,954.3,3477.1,3488.0,431.7,692.1,500.4,578.6,277.5,277.5,3479.5,3473.4,698.7,505.9,790.2,1322.3,1672.9,518.7,3.0,-9.0,-3.0,9810.0,12477.0,3873.0,1236.0,0.0,-6.0,-1.0,1.0,-44.0,3.0,11305.0,11668.0,1918.0,895.0,4.0,-3.0,3.0,1.0
2022-05-08 14:13:15.755445-07:00,956.8,1046.1,1705.3,1254.2,739.7,525.8,1550.6,980.7,3472.2,3478.3,838.6,1023.7,448.2,3495.3,1039.2,954.3,3477.1,3488.0,433.3,696.2,500.4,580.2,277.5,274.4,3479.5,3473.4,699.5,501.2,790.2,1321.4,1676.7,526.6,1.0,-8.0,-1.0,9810.0,12476.0,3875.0,1235.0,5.0,1.0,-12.0,0.0,-43.0,5.0,11305.0,11668.0,1918.0,895.0,4.0,2.0,-6.0,1.0
2022-05-08 14:13:15.815508-07:00,956.8,1046.1,1705.3,1252.4,739.7,532.2,1546.9,979.9,3472.2,3478.3,838.6,1028.8,448.2,3494.1,1037.5,956.8,3475.9,3472.2,432.5,696.2,502.8,580.2,277.5,274.4,3481.9,3475.9,700.3,501.2,787.7,1321.4,1676.7,526.6,0.0,-8.0,-7.0,9810.0,12476.0,3877.0,1234.0,4.0,1.0,0.0,0.0,-51.0,6.0,11305.0,11668.0,1918.0,895.0,7.0,1.0,-1.0,1.0
2022-05-08 14:13:15.875370-07:00,956.8,1040.9,1711.0,1252.4,743.0,532.2,1546.9,979.9,3477.1,3479.5,841.1,1028.8,452.2,3494.1,1037.5,956.8,3475.9,3472.2,432.5,692.9,502.8,581.8,275.2,275.2,3481.9,3475.9,700.3,505.1,787.7,1324.1,1665.3,502.8,0.0,-6.0,-5.0,9810.0,12476.0,3877.0,1234.0,-5.0,1.0,3.0,-2.0,-45.0,1.0,11305.0,11668.0,1918.0,895.0,-3.0,-1.0,3.0,1.0
2022-05-08 14:13:15.905529-07:00,956.8,1040.9,1711.0,1252.4,743.0,526.6,1549.7,979.0,3477.1,3479.5,841.1,1023.7,452.2,3496.6,1039.2,959.4,3481.9,3483.2,429.4,692.9,503.6,581.8,275.2,275.2,3479.5,3488.0,698.7,505.1,795.2,1324.1,1665.3,502.8,0.0,-12.0,-5.0,9810.0,12476.0,3877.0,1234.0,3.0,-1.0,-3.0,0.0,-45.0,5.0,11305.0,11668.0,1918.0,895.0,3.0,2.0,3.0,1.0
2022-05-08 14:13:15.965629-07:00,953.4,1042.6,1705.3,1252.4,734.0,526.6,1549.7,979.0,3485.6,3472.2,841.9,1023.7,446.7,3496.6,1039.2,959.4,3481.9,3483.2,429.4,691.3,503.6,584.3,276.7,274.4,3479.5,3488.0,698.7,504.4,795.2,1329.6,1660.6,501.2,-2.0,-10.0,-6.0,9810.0,12476.0,3877.0,1234.0,-3.0,5.0,-1.0,-2.0,-47.0,5.0,11305.0,11668.0,1918.0,895.0,1.0,1.0,0.0,1.0
2022-05-08 14:13:16.025380-07:00,953.4,1042.6,1705.3,1262.2,734.0,531.4,1545.0,984.2,3485.6,3472.2,841.9,1025.4,446.7,3505.1,1043.5,955.1,3480.7,3479.5,428.6,691.3,504.4,584.3,276.7,274.4,3480.7,3490.5,700.3,504.4,788.6,1329.6,1660.6,501.2,0.0,-8.0,-4.0,9810.0,12476.0,3877.0,1234.0,3.0,6.0,-3.0,1.0,-44.0,5.0,11305.0,11668.0,1918.0,895.0,8.0,0.0,1.0,1.0
2022-05-08 14:13:16.115480-07:00,957.7,1044.4,1712.9,1256.9,734.0,531.4,1545.0,984.2,3472.2,3479.5,842.8,1019.4,452.2,3505.1,1043.5,955.1,3480.7,3479.5,428.6,694.6,498.8,581.0,277.5,276.0,3480.7,3490.5,700.3,505.1,786.9,1325.9,1669.1,503.6,1.0,-11.0,-3.0,9810.0,12476.0,3877.0,1234.0,-1.0,2.0,-2.0,0.0,-45.0,4.0,11305.0,11668.0,1918.0,895.0,4.0,-2.0,1.0,1.0
2022-05-08 14:13:16.176004-07:00,957.7,1044.4,1712.9,1256.9,739.7,537.8,1550.6,981.6,3472.2,3479.5,842.8,1019.4,448.2,3500.2,1038.3,953.4,3475.9,3484.4,425.5,695.4,498.8,581.0,277.5,276.0,3478.3,3477.1,701.1,505.1,786.9,1325.9,1669.1,503.6,0.0,-12.0,-5.0,9810.0,12476.0,3878.0,1236.0,0.0,11.0,-3.0,-3.0,-47.0,3.0,11305.0,11668.0,1918.0,895.0,4.0,1.0,3.0,1.0
2022-05-08 14:13:16.177171-07:00,956.0,1043.5,1698.6,1255.1,739.7,537.8,1550.6,981.6,3472.2,3467.4,840.3,1022.8,448.2,3500.2,1038.3,953.4,3475.9,3484.4,425.5,695.4,502.0,583.5,281.3,273.7,3478.3,3477.1,701.1,505.1,791.0,1319.6,1669.1,498.8,-3.0,-8.0,-8.0,9810.0,12476.0,3878.0,1236.0,-8.0,4.0,-3.0,-1.0,-45.0,3.0,11305.0,11668.0,1918.0,895.0,-1.0,0.0,0.0,1.0
2022-05-08 14:13:16.205883-07:00,956.0,1043.5,1698.6,1255.1,735.6,527.4,1545.0,980.7,3472.2,3467.4,840.3,1022.8,451.4,3507.5,1035.7,959.4,3483.2,3483.2,429.4,692.1,502.0,583.5,281.3,273.7,3484.4,3479.5,692.1,505.9,791.0,1319.6,1669.1,498.8,3.0,-11.0,-4.0,9810.0,12476.0,3878.0,1236.0,-3.0,-9.0,-1.0,0.0,-45.0,3.0,11305.0,11668.0,1918.0,895.0,-7.0,-4.0,5.0,1.0
2022-05-08 14:13:16.295840-07:00,956.0,1042.6,1709.1,1264.0,735.6,527.4,1545.0,980.7,3469.8,3478.3,839.4,1021.1,451.4,3507.5,1035.7,959.4,3483.2,3483.2,429.4,692.1,497.2,581.0,274.4,273.7,3484.4,3479.5,692.1,505.9,791.9,1316.9,1672.9,498.8,-2.0,-11.0,-7.0,9811.0,12474.0,3878.0,1236.0,4.0,0.0,5.0,-2.0,-51.0,3.0,11305.0,11668.0,1918.0,895.0,7.0,0.0,9.0,1.0
2022-05-08 14:13:16.325366-07:00,956.0,1042.6,1709.1,1264.0,735.6,526.6,1546.9,976.5,3469.8,3478.3,839.4,1021.1,445.1,3502.7,1034.9,953.4,3477.1,3477.1,436.4,693.8,497.2,581.0,274.4,273.7,3478.3,3483.2,693.8,506.7,791.9,1316.9,1672.9,498.8,-3.0,-8.0,-7.0,9810.0,12475.0,3878.0,1236.0,-6.0,3.0,6.0,-2.0,-43.0,4.0,11305.0,11669.0,1917.0,896.0,-4.0,-1.0,3.0,1.0
2022-05-08 14:13:16.355427-07:00,954.3,1046.1,1706.2,1258.7,735.6,526.6,1546.9,979.9,3466.1,3477.1,837.7,1028.8,445.1,3502.7,1034.9,956.0,3467.4,3477.1,436.4,693.8,500.4,581.8,279.0,273.7,3483.2,3483.2,693.8,506.7,790.2,1352.1,1668.2,498.8,4.0,-6.0,-9.0,9810.0,12475.0,3878.0,1236.0,-5.0,-3.0,0.0,5.0,-45.0,1.0,11305.0,11669.0,1917.0,896.0,-3.0,-3.0,-1.0,1.0
2022-05-08 14:13:16.475283-07:00,953.4,1046.1,1706.2,1258.7,733.2,527.4,1552.5,979.9,3474.6,3477.1,837.7,1028.8,446.7,3496.6,1036.6,956.0,3467.4,3467.4,428.6,688.9,500.4,581.8,279.0,274.4,3483.2,3480.7,699.5,505.9,790.2,1352.1,1668.2,499.6,-1.0,-13.0,-2.0,9810.0,12475.0,3878.0,1236.0,2.0,0.0,0.0,-3.0,-46.0,4.0,11305.0,11669.0,1917.0,896.0,3.0,3.0,4.0,1.0
2022-05-08 14:13:16.506080-07:00,953.4,1046.1,1708.1,1258.7,733.2,527.4,1552.5,976.5,3474.6,3477.1,837.7,1023.7,446.7,3496.6,1036.6,945.8,3480.7,3467.4,428.6,688.9,497.2,580.2,276.0,274.4,3478.3,3480.7,699.5,505.9,787.7,1320.5,1666.3,499.6,-2.0,-9.0,-4.0,9810.0,12475.0,3878.0,1236.0,-4.0,1.0,9.0,-4.0,-44.0,9.0,11305.0,11669.0,1917.0,896.0,3.0,3.0,7.0,1.0
2022-05-08 14:13:16.507471-07:00,960.2,1046.1,1708.1,1258.7,738.9,529.8,1547.8,976.5,3478.3,3477.1,837.7,1023.7,445.1,3499.0,1035.7,945.8,3480.7,3477.1,429.4,697.9,497.2,580.2,276.0,274.4,3478.3,3474.6,695.4,502.8,787.7,1320.5,1666.3,504.4,0.0,-7.0,-2.0,9810.0,12475.0,3878.0,1236.0,7.0,6.0,-8.0,-1.0,-45.0,5.0,11305.0,11669.0,1917.0,896.0,7.0,5.0,-4.0,1.0
2022-05-08 14:13:16.655363-07:00,960.2,1041.8,1704.3,1269.4,738.9,529.8,1547.8,977.3,3478.3,3475.9,841.9,1028.0,445.1,3499.0,1035.7,956.0,3477.1,3477.1,429.4,697.9,496.4,582.6,275.2,274.4,3481.9,3474.6,695.4,502.8,786.9,1316.0,1669.1,504.4,2.0,-18.0,-8.0,9810.0,12475.0,3879.0,1237.0,2.0,7.0,6.0,-2.0,-47.0,2.0,11305.0,11669.0,1917.0,896.0,5.0,7.0,7.0,1.0
2022-05-08 14:13:16.686060-07:00,960.2,1041.8,1704.3,1269.4,732.3,528.2,1542.2,977.3,3472.2,3475.9,841.9,1028.0,449.0,3495.3,1034.9,956.0,3477.1,3488.0,427.8,689.7,496.4,582.6,275.2,281.3,3481.9,3478.3,696.2,505.9,786.9,1316.0,1669.1,503.6,3.0,-7.0,-10.0,9810.0,12475.0,3879.0,1237.0,-8.0,0.0,9.0,0.0,-43.0,1.0,11305.0,11669.0,1916.0,896.0,-3.0,-9.0,5.0,1.0
2022-05-08 14:13:16.955382-07:00,960.2,1034.9,1704.3,1259.6,732.3,528.2,1542.2,979.0,3472.2,3469.8,838.6,1025.4,449.0,3495.3,1036.6,958.5,3472.2,3472.2,427.8,689.7,498.8,583.5,276.7,281.3,3485.6,3479.5,696.2,505.9,788.6,1316.9,1660.6,503.6,3.0,-7.0,-5.0,9812.0,12473.0,3878.0,1238.0,3.0,0.0,1.0,1.0,-46.0,5.0,11306.0,11668.0,1916.0,897.0,5.0,-3.0,0.0,1.0
2022-05-08 14:13:16.957031-07:00,954.3,1041.8,1704.3,1259.6,738.1,533.0,1542.2,979.0,3478.3,3480.7,838.6,1025.4,446.7,3496.6,1036.6,958.5,3472.2,3472.2,427.8,692.1,498.8,583.5,276.7,272.1,3485.6,3479.5,697.0,505.1,788.6,1316.9,1666.3,505.1,3.0,-8.0,5.0,9811.0,12473.0,3881.0,1241.0,-2.0,23.0,-10.0,4.0,-43.0,14.0,11305.0,11669.0,1916.0,896.0,15.0,3.0,-5.0,1.0
2022-05-08 14:13:16.957984-07:00,954.3,1041.8,1711.9,1260.4,738.1,533.0,1545.0,977.3,3478.3,3480.7,846.1,1023.7,446.7,3496.6,1045.2,956.0,3478.3,3480.7,427.8,692.1,500.4,582.6,276.7,272.1,3478.3,3481.9,697.0,505.1,784.4,1321.4,1666.3,505.1,0.0,-20.0,-6.0,9807.0,12474.0,3887.0,1247.0,-2.0,37.0,0.0,0.0,-47.0,15.0,11302.0,11671.0,1918.0,897.0,-3.0,12.0,2.0,1.0
2022-05-08 14:13:16.958807-07:00,955.1,1043.5,1711.9,1260.4,734.0,526.6,1545.0,977.3,3467.4,3472.2,846.1,1023.7,452.2,3496.6,1045.2,956.0,3478.3,3480.7,430.9,691.3,500.4,582.6,277.5,276.7,3478.3,3481.9,699.5,500.4,784.4,1321.4,1694.8,493.2,9.0,-16.0,-39.0,9800.0,12481.0,3883.0,1247.0,36.0,-35.0,16.0,4.0,-47.0,-20.0,11299.0,11674.0,1918.0,899.0,17.0,8.0,13.0,1.0
2022-05-08 14:13:16.960531-07:00,955.1,1043.5,1711.0,1257.8,734.0,526.6,1545.9,976.5,3467.4,3472.2,855.3,1028.8,452.2,3496.6,1246.2,975.6,3479.5,3475.9,430.9,691.3,498.8,584.3,277.5,276.7,3479.5,3477.1,699.5,500.4,793.5,1325.9,1694.8,493.2,-2.0,-27.0,3.0,9803.0,12481.0,3876.0,1244.0,-6.0,-29.0,26.0,0.0,-51.0,4.0,11301.0,11673.0,1913.0,897.0,-5.0,-14.0,10.0,1.0
2022-05-08 14:13:17.016217-07:00,956.0,1044.4,1711.0,1252.4,738.9,535.4,1549.7,975.6,3473.4,3478.3,908.4,1029.7,447.4,3494.1,1328.7,985.0,3468.6,3481.9,427.8,695.4,502.0,585.1,274.4,278.3,3473.4,3488.0,696.2,505.1,787.7,1352.1,1888.9,505.1,1.0,-5.0,-3.0,9810.0,12483.0,3849.0,1246.0,-6.0,6.0,8.0,1.0,-46.0,2.0,11301.0,11674.0,1910.0,897.0,9.0,5.0,1.0,1.0
2022-05-08 14:13:17.045354-07:00,956.0,1044.4,1711.0,1266.7,738.9,533.8,1543.1,972.2,3473.4,3478.3,908.4,1033.2,447.4,3497.8,1360.3,993.6,3483.2,3477.1,430.9,695.4,504.4,585.1,274.4,278.3,3477.1,3480.7,704.4,505.1,794.4,1352.1,1888.9,505.1,0.0,-3.0,-10.0,9810.0,12484.0,3846.0,1248.0,-7.0,-14.0,19.0,3.0,-40.0,2.0,11300.0,11675.0,1910.0,897.0,4.0,-8.0,2.0,1.0
2022-05-08 14:13:17.225408-07:00,958.5,1048.7,1719.6,1266.7,734.8,533.8,1543.1,972.2,3472.2,3471.0,937.3,1033.2,448.2,3497.8,1360.3,993.6,3483.2,3477.1,430.9,692.1,504.4,581.8,274.4,275.2,3477.1,3480.7,704.4,508.3,794.4,1376.6,1979.6,500.4,0.0,0.0,-16.0,9816.0,12482.0,3838.0,1247.0,-7.0,-23.0,-1.0,-7.0,-45.0,9.0,11300.0,11675.0,1908.0,894.0,-3.0,-15.0,-9.0,1.0
2022-05-08 14:13:17.285378-07:00,958.5,1048.7,1719.6,1277.4,734.8,538.6,1548.7,985.0,3472.2,3471.0,937.3,1033.2,448.2,3496.6,1420.4,1009.0,3473.4,3477.1,431.7,692.1,505.9,581.8,274.4,275.2,3488.0,3472.2,702.8,508.3,797.7,1376.6,1979.6,500.4,4.0,-6.0,0.0,9820.0,12482.0,3830.0,1243.0,-16.0,-11.0,13.0,4.0,-48.0,1.0,11301.0,11675.0,1906.0,893.0,-8.0,-9.0,-3.0,1.0
2022-05-08 14:13:17.315855-07:00,962.0,1046.1,1738.7,1277.4,743.0,538.6,1548.7,985.0,3481.9,3477.1,975.6,1033.2,447.4,3496.6,1420.4,1009.0,3473.4,3477.1,431.7,692.9,505.9,581.8,282.1,276.7,3488.0,3472.2,702.8,498.8,797.7,1414.0,2102.7,503.6,-10.0,-8.0,2.0,9826.0,12478.0,3826.0,1250.0,-11.0,4.0,21.0,-3.0,-46.0,14.0,11305.0,11672.0,1903.0,890.0,-11.0,-10.0,-6.0,1.0
2022-05-08 14:13:17.465496-07:00,962.0,1046.1,1738.7,1295.4,741.4,545.8,1545.9,977.3,3481.9,3477.1,975.6,1042.6,445.1,3501.4,1495.8,1026.3,3485.6,3479.5,431.7,688.9,502.0,581.8,282.1,276.7,3491.7,3484.4,706.0,505.9,795.2,1414.0,2102.7,503.6,20.0,0.0,-16.0,9831.0,12476.0,3815.0,1256.0,-58.0,11.0,11.0,2.0,-37.0,-3.0,11309.0,11668.0,1905.0,883.0,-40.0,-23.0,-26.0,1.0
2022-05-08 14:13:17.466851-07:00,954.3,1045.2,1787.8,1314.2,741.4,545.8,1545.9,977.3,3469.8,3478.3,1034.9,1046.1,445.1,3501.4,1495.8,1026.3,3485.6,3479.5,431.7,688.9,502.0,581.0,278.3,276.7,3491.7,3484.4,706.0,505.9,797.7,1467.2,2244.5,502.0,-3.0,-20.0,-7.0,9850.0,12462.0,3808.0,1273.0,-110.0,2.0,35.0,-2.0,-53.0,0.0,11327.0,11652.0,1905.0,868.0,-61.0,-27.0,-24.0,1.0
2022-05-08 14:13:17.467725-07:00,954.3,1045.2,1787.8,1314.2,748.8,553.8,1551.5,993.6,3469.8,3478.3,1034.9,1046.1,450.6,3495.3,1554.3,1058.2,3480.7,3477.1,429.4,696.2,502.0,581.0,278.3,276.7,3473.4,3479.5,711.8,503.6,797.7,1467.2,2244.5,502.0,9.0,-6.0,-6.0,9865.0,12455.0,3788.0,1281.0,-35.0,-27.0,38.0,0.0,-39.0,0.0,11334.0,11647.0,1898.0,854.0,-16.0,-41.0,-12.0,1.0
2022-05-08 14:13:17.468903-07:00,960.2,1044.4,1813.9,1340.4,748.8,553.8,1551.5,993.6,3479.5,3475.9,1086.8,1056.5,450.6,3495.3,1554.3,1058.2,3480.7,3477.1,429.4,696.2,504.4,582.6,283.6,291.3,3473.4,3479.5,711.8,503.6,821.9,1541.3,2370.3,503.6,6.0,-6.0,2.0,9891.0,12439.0,3770.0,1293.0,-98.0,-15.0,40.0,0.0,-52.0,12.0,11351.0,11633.0,1888.0,839.0,-28.0,-36.0,-12.0,1.0
2022-05-08 14:13:17.470515-07:00,960.2,1044.4,1813.9,1340.4,746.3,566.6,1553.4,1026.3,3479.5,3475.9,1086.8,1056.5,448.2,3486.8,1570.2,1074.7,3484.4,3473.4,427.8,692.1,504.4,582.6,283.6,291.3,3477.1,3477.1,723.3,507.5,821.9,1541.3,2370.3,503.6,10.0,-4.0,-9.0,9911.0,12430.0,3743.0,1299.0,-20.0,-68.0,65.0,8.0,-37.0,-2.0,11354.0,11632.0,1881.0,826.0,9.0,-32.0,-8.0,1.0
2022-05-08 14:13:17.496004-07:00,959.4,1053.0,1801.3,1383.0,746.3,566.6,1553.4,1026.3,3480.7,3475.9,1129.6,1065.1,448.2,3486.8,1570.2,1074.7,3484.4,3473.4,427.8,692.1,498.8,583.5,282.9,281.3,3477.1,3477.1,723.3,507.5,828.5,1602.1,2474.9,508.3,-3.0,-9.0,0.0,9931.0,12424.0,3709.0,1305.0,-60.0,-31.0,59.0,0.0,-47.0,8.0,11359.0,11629.0,1873.0,819.0,-8.0,-22.0,0.0,1.0
2022-05-08 14:13:17.615872-07:00,958.5,1053.0,1801.3,1383.0,754.6,563.4,1553.4,1036.6,3473.4,3475.9,1129.6,1065.1,449.8,3502.7,1549.7,1101.7,3478.3,3477.1,433.3,691.3,498.8,583.5,282.9,283.6,3475.9,3485.6,747.2,505.9,828.5,1602.1,2474.9,497.2,10.0,-16.0,-7.0,9944.0,12424.0,3673.0,1304.0,-25.0,-76.0,55.0,7.0,-41.0,5.0,11356.0,11633.0,1867.0,812.0,12.0,-31.0,-5.0,1.0
2022-05-08 14:13:17.616886-07:00,958.5,1051.3,1790.7,1414.9,754.6,563.4,1553.4,1044.4,3473.4,3472.2,1143.6,1076.4,449.8,3502.7,1549.7,1120.9,3480.7,3477.1,433.3,691.3,502.0,585.1,283.6,283.6,3478.3,3485.6,747.2,505.9,848.6,1636.0,2532.5,497.2,-4.0,-17.0,-2.0,9969.0,12417.0,3631.0,1302.0,-84.0,-76.0,70.0,-5.0,-51.0,11.0,11361.0,11630.0,1856.0,801.0,-31.0,-54.0,-8.0,1.0
2022-05-08 14:13:17.645743-07:00,961.1,1051.3,1790.7,1414.9,757.1,559.4,1560.9,1044.4,3484.4,3472.2,1143.6,1076.4,451.4,3502.7,1524.5,1120.9,3480.7,3484.4,430.9,694.6,502.0,585.1,283.6,289.0,3478.3,3481.9,734.8,510.7,848.6,1636.0,2532.5,502.8,-9.0,-15.0,0.0,9992.0,12412.0,3586.0,1297.0,-29.0,-112.0,76.0,0.0,-39.0,6.0,11373.0,11622.0,1843.0,789.0,-64.0,-15.0,13.0,1.0
2022-05-08 14:13:17.795905-07:00,961.1,1055.6,1766.6,1447.9,757.1,559.4,1560.9,1038.3,3484.4,3478.3,1149.8,1079.0,451.4,3502.7,1524.5,1132.2,3483.2,3484.4,430.9,694.6,504.4,589.9,286.7,289.0,3484.4,3481.9,734.8,510.7,865.4,1645.4,2546.5,502.8,12.0,0.0,-17.0,10015.0,12414.0,3523.0,1277.0,-88.0,-156.0,92.0,0.0,-74.0,-2.0,11443.0,11553.0,1836.0,805.0,-94.0,-74.0,3.0,1.0
2022-05-08 14:13:17.798158-07:00,955.1,1055.6,1766.6,1447.9,760.4,557.0,1553.4,1038.3,3473.4,3478.3,1149.8,1079.0,451.4,3497.8,1477.3,1132.2,3483.2,3477.1,433.3,693.8,504.4,589.9,286.7,285.9,3484.4,3480.7,731.5,531.4,865.4,1645.4,2546.5,501.2,-4.0,-17.0,10.0,10053.0,12404.0,3453.0,1261.0,-101.0,-118.0,65.0,0.0,-55.0,2.0,11486.0,11514.0,1818.0,796.0,-114.0,-46.0,-7.0,1.0
2022-05-08 14:13:17.799025-07:00,955.1,1061.7,1748.3,1472.7,760.4,557.0,1553.4,1036.6,3473.4,3477.1,1160.3,1084.2,451.4,3497.8,1477.3,1131.4,3477.1,3477.1,433.3,693.8,498.8,590.7,292.1,285.9,3486.8,3480.7,731.5,531.4,871.3,1642.6,2547.6,501.2,11.0,-11.0,5.0,10082.0,12394.0,3407.0,1257.0,-73.0,-82.0,57.0,3.0,-47.0,-3.0,11521.0,11481.0,1806.0,785.0,-97.0,-43.0,-17.0,1.0
2022-05-08 14:13:18.006163-07:00,959.4,1065.1,1748.3,1472.7,762.9,550.6,1569.3,1036.6,3468.6,3477.1,1160.3,1084.2,453.7,3499.0,1458.0,1131.4,3477.1,3477.1,434.9,690.5,498.8,590.7,289.8,293.6,3486.8,3474.6,745.5,517.9,871.3,1642.6,2557.3,505.9,-1.0,-1.0,-14.0,10107.0,12381.0,3374.0,1267.0,-84.0,-12.0,62.0,1.0,-41.0,8.0,11544.0,11461.0,1796.0,769.0,-54.0,-48.0,-26.0,1.0
2022-05-08 14:13:18.007161-07:00,959.4,1065.1,1753.1,1490.3,762.9,550.6,1569.3,1043.5,3468.6,3477.1,1155.9,1076.4,453.7,3499.0,1431.4,1143.6,3477.1,3477.1,434.9,690.5,505.9,602.0,289.8,293.6,3480.7,3479.5,745.5,517.9,892.4,1637.9,2557.3,505.9,13.0,-7.0,-8.0,10133.0,12367.0,3342.0,1274.0,-59.0,-72.0,44.0,4.0,-40.0,-3.0,11569.0,11438.0,1790.0,751.0,-70.0,-34.0,-22.0,1.0
2022-05-08 14:13:18.008455-07:00,966.2,1073.8,1753.1,1490.3,774.5,548.2,1569.3,1043.5,3471.0,3472.2,1155.9,1076.4,455.3,3494.1,1431.4,1143.6,3477.1,3477.1,431.7,692.1,505.9,602.0,289.8,292.8,3480.7,3479.5,731.5,506.7,892.4,1637.9,2571.3,502.0,-1.0,-7.0,5.0,10152.0,12364.0,3302.0,1263.0,-74.0,-70.0,48.0,-7.0,-50.0,-6.0,11596.0,11414.0,1778.0,732.0,-80.0,-76.0,-17.0,1.0
2022-05-08 14:13:18.009261-07:00,966.2,1073.8,1751.2,1506.9,774.5,548.2,1576.8,1034.9,3471.0,3472.2,1157.7,1086.8,455.3,3494.1,1401.2,1147.1,3478.3,3477.1,431.7,692.1,498.0,602.0,289.8,292.8,3485.6,3481.9,731.5,506.7,898.3,1631.3,2571.3,502.0,-13.0,-17.0,1.0,10181.0,12351.0,3265.0,1259.0,-74.0,-87.0,46.0,-5.0,-43.0,4.0,11628.0,11385.0,1760.0,709.0,-105.0,-69.0,-23.0,1.0
2022-05-08 14:13:18.065503-07:00,973.9,1072.9,1751.2,1506.9,776.9,546.6,1576.8,1034.9,3479.5,3467.4,1157.7,1086.8,451.4,3497.8,1401.2,1147.1,3478.3,3477.1,427.8,695.4,498.0,602.0,289.8,286.7,3485.6,3481.9,737.3,502.8,898.3,1631.3,2549.7,503.6,0.0,3.0,8.0,10193.0,12355.0,3219.0,1238.0,-25.0,-102.0,51.0,8.0,-20.0,0.0,11658.0,11359.0,1743.0,681.0,-96.0,-79.0,-23.0,1.0
2022-05-08 14:13:18.095333-07:00,973.9,1072.9,1765.6,1525.5,776.9,546.6,1592.7,1052.2,3479.5,3467.4,1161.2,1088.6,451.4,3497.8,1370.3,1146.3,3478.3,3481.9,427.8,695.4,498.8,600.4,289.8,286.7,3474.6,3481.9,737.3,502.8,912.7,1627.5,2549.7,503.6,7.0,-3.0,-1.0,10229.0,12337.0,3174.0,1235.0,-88.0,-83.0,57.0,-1.0,-46.0,3.0,11694.0,11326.0,1723.0,657.0,-108.0,-78.0,-16.0,1.0
2022-05-08 14:13:18.305878-07:00,967.1,1073.8,1782.0,1525.5,779.4,553.0,1592.7,1052.2,3483.2,3473.4,1160.3,1088.6,451.4,3499.0,1370.3,1146.3,3478.3,3481.9,429.4,697.0,498.8,602.0,290.5,293.6,3474.6,3481.9,741.4,504.4,912.7,1619.9,2532.5,509.1,4.0,8.0,-7.0,10247.0,12335.0,3131.0,1219.0,-34.0,-134.0,63.0,3.0,-31.0,8.0,11723.0,11300.0,1706.0,634.0,-146.0,-55.0,-11.0,1.0
2022-05-08 14:13:18.307384-07:00,967.1,1073.8,1782.0,1530.1,779.4,550.6,1601.1,1062.5,3483.2,3473.4,1160.3,1098.2,451.4,3503.9,1359.4,1152.4,3472.2,3477.1,434.1,697.0,502.0,602.0,290.5,293.6,3480.7,3481.9,741.4,504.4,920.3,1619.9,2532.5,509.1,8.0,-2.0,0.0,10272.0,12328.0,3081.0,1200.0,-58.0,-72.0,40.0,1.0,-37.0,16.0,11763.0,11262.0,1691.0,614.0,-73.0,-60.0,-34.0,1.0
2022-05-08 14:13:18.309046-07:00,973.1,1080.8,1785.8,1530.1,785.2,550.6,1601.1,1062.5,3474.6,3475.9,1169.1,1098.2,453.7,3503.9,1359.4,1152.4,3472.2,3477.1,434.1,696.2,502.0,603.6,290.5,289.8,3480.7,3481.9,741.4,505.9,920.3,1620.9,2507.9,505.1,-3.0,0.0,-9.0,10298.0,12317.0,3044.0,1189.0,2.0,-98.0,46.0,4.0,-51.0,8.0,11796.0,11230.0,1675.0,598.0,-78.0,-56.0,0.0,1.0
2022-05-08 14:13:18.310605-07:00,973.1,1080.8,1785.8,1530.1,785.2,552.2,1609.6,1109.5,3474.6,3475.9,1169.1,1099.9,453.7,3497.8,1335.9,1147.1,3483.2,3477.1,430.9,696.2,501.2,603.6,290.5,289.8,3484.4,3479.5,736.5,505.9,931.3,1620.9,2507.9,505.1,13.0,0.0,2.0,10308.0,12322.0,2998.0,1166.0,-44.0,-81.0,40.0,11.0,-39.0,-3.0,11825.0,11205.0,1653.0,579.0,-79.0,-73.0,-13.0,1.0
2022-05-08 14:13:18.396194-07:00,983.3,1080.8,1786.8,1530.1,783.6,552.2,1609.6,1109.5,3480.7,3467.4,1160.3,1099.9,455.3,3497.8,1335.9,1147.1,3483.2,3477.1,430.9,693.8,501.2,603.6,286.7,292.1,3484.4,3479.5,736.5,502.8,931.3,1615.2,2475.9,520.3,1.0,0.0,-1.0,10316.0,12320.0,2983.0,1157.0,16.0,-21.0,-9.0,10.0,-37.0,-1.0,11840.0,11190.0,1648.0,570.0,-17.0,-4.0,-15.0,1.0
2022-05-08 14:13:18.397241-07:00,983.3,1080.8,1786.8,1525.5,783.6,549.8,1617.1,1156.8,3480.7,3467.4,1160.3,1106.9,455.3,3496.6,1321.4,1148.0,3475.9,3474.6,432.5,693.8,505.1,603.6,286.7,292.1,3477.1,3467.4,742.2,502.8,943.2,1615.2,2475.9,520.3,6.0,-16.0,0.0,10317.0,12323.0,2969.0,1146.0,18.0,-51.0,30.0,6.0,-44.0,-1.0,11849.0,11181.0,1644.0,560.0,-24.0,-53.0,-10.0,1.0
2022-05-08 14:13:18.515444-07:00,986.7,1094.7,1771.4,1529.2,779.4,549.8,1617.1,1156.8,3477.1,3472.2,1158.6,1109.5,453.7,3496.6,1321.4,1148.0,3475.9,3474.6,432.5,695.4,503.6,608.4,292.1,292.8,3477.1,3467.4,742.2,497.2,956.0,1611.5,2443.0,507.5,0.0,-19.0,-28.0,10328.0,12321.0,2943.0,1134.0,-48.0,-87.0,11.0,-5.0,-50.0,-11.0,11866.0,11165.0,1634.0,552.0,-70.0,-37.0,1.0,1.0
2022-05-08 14:13:18.516643-07:00,986.7,1094.7,1771.4,1529.2,777.8,550.6,1628.4,1209.7,3477.1,3472.2,1158.6,1109.5,450.6,3492.9,1304.3,1142.7,3488.0,3479.5,427.8,696.2,503.6,608.4,292.1,292.8,3483.2,3490.5,738.1,493.2,956.0,1611.5,2443.0,507.5,8.0,-11.0,9.0,10325.0,12331.0,2927.0,1107.0,-5.0,-30.0,-12.0,8.0,-46.0,11.0,11876.0,11157.0,1626.0,542.0,-37.0,-11.0,-7.0,1.0
2022-05-08 14:13:18.665320-07:00,990.2,1095.6,1759.8,1519.9,777.8,550.6,1628.4,1209.7,3479.5,3471.0,1151.5,1109.5,450.6,3492.9,1304.3,1142.7,3488.0,3479.5,427.8,696.2,499.6,602.8,286.7,288.2,3483.2,3490.5,738.1,493.2,956.8,1604.0,2403.9,509.9,7.0,-32.0,4.0,10332.0,12329.0,2910.0,1093.0,-2.0,-72.0,16.0,5.0,-63.0,14.0,11889.0,11144.0,1619.0,538.0,-31.0,-38.0,6.0,1.0
2022-05-08 14:13:18.696037-07:00,990.2,1095.6,1759.8,1519.9,782.7,551.4,1637.9,1282.8,3479.5,3471.0,1151.5,1109.5,450.6,3497.8,1299.8,1138.4,3475.9,3478.3,433.3,695.4,499.6,602.8,286.7,288.2,3474.6,3480.7,745.5,491.7,956.8,1604.0,2403.9,509.9,8.0,-18.0,14.0,10338.0,12331.0,2892.0,1079.0,-19.0,-9.0,-9.0,2.0,-51.0,4.0,11900.0,11133.0,1612.0,534.0,-12.0,0.0,-1.0,1.0
2022-05-08 14:13:18.696954-07:00,1000.5,1100.8,1752.1,1500.4,782.7,551.4,1637.9,1282.8,3472.2,3475.9,1145.4,1110.4,450.6,3497.8,1299.8,1138.4,3475.9,3478.3,433.3,695.4,502.8,606.8,286.7,288.2,3474.6,3480.7,745.5,491.7,952.6,1596.4,2388.1,515.5,0.0,-5.0,1.0,10336.0,12329.0,2902.0,1085.0,4.0,13.0,-3.0,0.0,-40.0,-9.0,11900.0,11132.0,1616.0,538.0,1.0,11.0,-6.0,1.0
2022-05-08 14:13:18.756070-07:00,1000.5,1100.8,1752.1,1500.4,771.1,550.6,1638.8,1284.6,3472.2,3475.9,1145.4,1110.4,447.4,3486.8,1291.8,1134.9,3475.9,3485.6,428.6,694.6,502.8,606.8,286.7,288.2,3481.9,3483.2,738.1,486.9,952.6,1596.4,2388.1,515.5,4.0,0.0,-8.0,10331.0,12331.0,2909.0,1090.0,13.0,13.0,-12.0,2.0,-35.0,-2.0,11896.0,11135.0,1623.0,544.0,-1.0,13.0,-3.0,1.0
2022-05-08 14:13:18.756934-07:00,995.3,1098.2,1736.8,1502.3,771.1,550.6,1638.8,1270.3,3467.4,3471.0,1132.2,1102.5,447.4,3486.8,1291.8,1127.0,3474.6,3485.6,428.6,694.6,505.1,606.0,286.7,288.2,3475.9,3483.2,738.1,486.9,951.7,1593.6,2358.8,517.1,2.0,-6.0,-3.0,10327.0,12333.0,2914.0,1093.0,-7.0,15.0,2.0,-2.0,-46.0,4.0,11896.0,11134.0,1626.0,546.0,-5.0,-1.0,-1.0,1.0
2022-05-08 14:13:18.845654-07:00,997.0,1098.2,1736.8,1502.3,779.4,548.2,1634.1,1270.3,3480.7,3471.0,1132.2,1102.5,453.0,3505.1,1281.9,1127.0,3474.6,3481.9,434.1,697.9,505.1,606.0,286.7,286.7,3475.9,3475.9,734.8,486.1,951.7,1593.6,2358.8,517.1,4.0,-2.0,-4.0,10327.0,12332.0,2917.0,1097.0,8.0,-11.0,4.0,4.0,-40.0,4.0,11896.0,11134.0,1626.0,547.0,0.0,-5.0,3.0,1.0
2022-05-08 14:13:18.876209-07:00,997.0,1088.6,1725.3,1490.3,779.4,548.2,1634.1,1267.6,3480.7,3483.2,1119.1,1107.8,453.0,3505.1,1281.9,1126.1,3477.1,3481.9,434.1,697.9,500.4,606.0,288.2,286.7,3474.6,3475.9,734.8,486.1,949.2,1592.7,2352.5,517.1,7.0,-3.0,4.0,10325.0,12332.0,2924.0,1101.0,16.0,41.0,-18.0,2.0,-38.0,-5.0,11897.0,11134.0,1626.0,546.0,3.0,23.0,-3.0,1.0
2022-05-08 14:13:18.905303-07:00,997.9,1088.6,1725.3,1490.3,776.9,549.0,1627.5,1267.6,3479.5,3483.2,1119.1,1107.8,448.2,3497.8,1274.7,1126.1,3477.1,3480.7,430.2,696.2,500.4,606.0,288.2,285.2,3474.6,3489.2,732.3,483.7,949.2,1592.7,2352.5,513.9,-8.0,-11.0,-4.0,10320.0,12331.0,2943.0,1113.0,18.0,25.0,-7.0,-3.0,-45.0,13.0,11894.0,11135.0,1636.0,556.0,5.0,25.0,-1.0,1.0
2022-05-08 14:13:19.115504-07:00,997.9,1094.7,1732.0,1482.9,776.9,549.0,1627.5,1256.0,3479.5,3472.2,1125.2,1104.3,448.2,3497.8,1274.7,1125.2,3484.4,3480.7,430.2,696.2,500.4,606.0,287.5,285.2,3485.6,3489.2,732.3,483.7,936.4,1590.8,2342.0,513.9,4.0,-10.0,-10.0,10318.0,12331.0,2946.0,1117.0,6.0,16.0,-2.0,1.0,-43.0,-3.0,11893.0,11135.0,1642.0,562.0,1.0,5.0,1.0,1.0
2022-05-08 14:13:19.117194-07:00,991.9,1094.7,1732.0,1482.9,770.3,548.2,1620.9,1256.0,3479.5,3472.2,1125.2,1104.3,449.8,3502.7,1286.4,1125.2,3484.4,3478.3,432.5,692.1,500.4,606.0,287.5,283.6,3485.6,3475.9,735.6,480.6,936.4,1590.8,2342.0,516.3,-1.0,-10.0,-6.0,10317.0,12331.0,2947.0,1118.0,3.0,0.0,1.0,0.0,-43.0,0.0,11893.0,11135.0,1642.0,562.0,1.0,10.0,7.0,1.0
2022-05-08 14:13:19.146049-07:00,991.9,1098.2,1711.0,1478.3,770.3,548.2,1619.9,1257.8,3479.5,3468.6,1120.0,1106.9,449.8,3502.7,1264.0,1118.2,3477.1,3480.7,432.5,692.1,498.8,609.2,283.6,283.6,3481.9,3480.7,735.6,480.6,934.7,1583.3,2324.3,516.3,-3.0,-9.0,-1.0,10317.0,12331.0,2950.0,1121.0,1.0,10.0,1.0,-1.0,-48.0,6.0,11892.0,11135.0,1643.0,565.0,0.0,3.0,4.0,1.0
2022-05-08 14:13:19.147232-07:00,989.3,1084.2,1711.0,1478.3,770.3,543.4,1619.9,1257.8,3478.3,3475.9,1120.0,1106.9,449.8,3495.3,1264.0,1118.2,3477.1,3480.7,431.7,692.9,498.8,609.2,285.2,280.6,3481.9,3480.7,734.8,479.8,934.7,1583.3,2325.4,509.9,6.0,-7.0,1.0,10316.0,12330.0,2956.0,1124.0,5.0,32.0,-7.0,5.0,-42.0,2.0,11892.0,11135.0,1646.0,567.0,15.0,23.0,-6.0,1.0
2022-05-08 14:13:19.148370-07:00,989.3,1084.2,1710.0,1473.6,770.3,543.4,1620.9,1256.9,3478.3,3475.9,1120.9,1119.1,449.8,3495.3,1256.0,1127.9,3467.4,3488.0,431.7,692.9,502.0,606.8,285.2,280.6,3478.3,3480.7,734.8,479.8,943.2,1582.4,2325.4,509.9,8.0,-6.0,-4.0,10316.0,12329.0,2957.0,1126.0,6.0,-7.0,-2.0,3.0,-38.0,-12.0,11890.0,11137.0,1649.0,570.0,-6.0,-2.0,-1.0,1.0
2022-05-08 14:13:19.205409-07:00,985.0,1080.8,1710.0,1473.6,776.9,545.8,1620.9,1256.9,3479.5,3479.5,1120.9,1119.1,455.3,3500.2,1256.0,1127.9,3467.4,3488.0,430.9,692.9,502.0,606.8,285.2,289.0,3478.3,3480.7,734.0,478.2,943.2,1582.4,2317.0,518.7,0.0,-6.0,-3.0,10317.0,12328.0,2958.0,1127.0,-1.0,21.0,-5.0,-2.0,-46.0,-3.0,11891.0,11135.0,1649.0,570.0,0.0,11.0,7.0,1.0
2022-05-08 14:13:19.265429-07:00,985.0,1080.8,1710.0,1473.6,776.9,545.8,1624.7,1256.0,3479.5,3479.5,1131.4,1104.3,455.3,3500.2,1257.8,1126.1,3479.5,3483.2,430.9,692.9,505.9,609.2,285.2,289.0,3489.2,3479.5,734.0,478.2,942.4,1578.6,2317.0,518.7,1.0,-7.0,-5.0,10318.0,12325.0,2962.0,1132.0,-9.0,-2.0,1.0,1.0,-45.0,3.0,11890.0,11136.0,1651.0,572.0,-4.0,-10.0,-1.0,1.0
2022-05-08 14:13:19.385487-07:00,981.6,1079.9,1710.0,1473.6,771.1,543.4,1624.7,1256.0,3469.8,3480.7,1131.4,1104.3,447.4,3507.5,1257.8,1126.1,3479.5,3483.2,427.8,693.8,505.9,609.2,292.1,288.2,3489.2,3479.5,731.5,483.7,942.4,1578.6,2328.5,518.7,5.0,-6.0,0.0,10318.0,12326.0,2962.0,1132.0,-10.0,22.0,5.0,0.0,-41.0,-10.0,11890.0,11136.0,1652.0,573.0,-9.0,11.0,7.0,1.0
2022-05-08 14:13:19.416126-07:00,981.6,1079.9,1706.2,1472.7,771.1,544.2,1619.0,1252.4,3469.8,3480.7,1113.0,1107.8,447.4,3501.4,1264.9,1127.0,3478.3,3488.0,432.5,693.8,502.8,610.8,292.1,288.2,3481.9,3481.9,731.5,483.7,928.8,1575.8,2328.5,518.7,0.0,0.0,-7.0,10318.0,12323.0,2969.0,1142.0,-16.0,24.0,0.0,0.0,-40.0,4.0,11889.0,11136.0,1654.0,574.0,5.0,8.0,6.0,1.0
2022-05-08 14:13:19.417250-07:00,989.3,1084.2,1707.2,1472.7,774.5,544.2,1619.0,1252.4,3478.3,3475.9,1111.2,1107.8,452.2,3501.4,1264.9,1127.0,3478.3,3488.0,432.5,696.2,502.8,605.2,286.7,286.7,3481.9,3481.9,731.5,479.8,928.8,1576.8,2305.6,532.2,12.0,0.0,-4.0,10317.0,12323.0,2972.0,1144.0,-12.0,12.0,-8.0,4.0,-40.0,-5.0,11889.0,11136.0,1655.0,576.0,1.0,0.0,-3.0,1.0
2022-05-08 14:13:19.445488-07:00,989.3,1084.2,1707.2,1470.9,774.5,543.4,1628.4,1258.7,3478.3,3475.9,1111.2,1110.4,452.2,3507.5,1252.4,1119.1,3477.1,3477.1,434.9,696.2,501.2,605.2,286.7,286.7,3474.6,3467.4,732.3,479.8,932.2,1576.8,2305.6,532.2,4.0,-3.0,-5.0,10319.0,12321.0,2973.0,1146.0,-8.0,4.0,-1.0,2.0,-42.0,0.0,11889.0,11136.0,1656.0,576.0,4.0,-2.0,-1.0,1.0
2022-05-08 14:13:19.505970-07:00,984.2,1076.4,1699.5,1470.9,771.1,543.4,1628.4,1258.7,3469.8,3475.9,1110.4,1110.4,445.1,3507.5,1252.4,1119.1,3477.1,3477.1,434.9,698.7,501.2,607.6,285.2,287.5,3474.6,3467.4,732.3,479.0,932.2,1575.8,2299.3,534.6,0.0,-8.0,-6.0,10318.0,12321.0,2975.0,1149.0,9.0,-5.0,5.0,0.0,-47.0,13.0,11890.0,11135.0,1657.0,578.0,8.0,10.0,5.0,1.0
2022-05-08 14:13:19.625512-07:00,984.2,1076.4,1699.5,1455.2,771.1,541.8,1623.7,1252.4,3469.8,3475.9,1110.4,1106.0,445.1,3500.2,1252.4,1123.5,3474.6,3481.9,430.9,698.7,501.2,607.6,285.2,287.5,3477.1,3490.5,729.9,479.0,928.8,1575.8,2299.3,534.6,2.0,-8.0,-6.0,10321.0,12319.0,2972.0,1152.0,-11.0,13.0,12.0,1.0,-42.0,0.0,11889.0,11136.0,1657.0,578.0,-6.0,-1.0,7.0,1.0
2022-05-08 14:13:19.627285-07:00,985.0,1081.6,1695.7,1455.2,764.5,541.8,1623.7,1252.4,3477.1,3474.6,1104.3,1106.0,455.3,3500.2,1252.4,1123.5,3474.6,3481.9,430.9,694.6,501.2,610.8,284.4,281.3,3477.1,3490.5,729.9,475.8,928.8,1571.1,2278.6,536.2,2.0,-12.0,0.0,10321.0,12317.0,2975.0,1158.0,10.0,17.0,-6.0,3.0,-44.0,3.0,11890.0,11135.0,1660.0,580.0,8.0,14.0,4.0,1.0
2022-05-08 14:13:19.715226-07:00,985.0,1081.6,1695.7,1460.8,774.5,539.4,1620.9,1242.6,3477.1,3474.6,1104.3,1103.4,452.2,3500.2,1251.5,1112.1,3479.5,3484.4,433.3,688.9,505.9,610.8,284.4,281.3,3478.3,3475.9,730.7,475.8,933.0,1571.1,2278.6,536.2,4.0,-6.0,-5.0,10319.0,12319.0,2977.0,1159.0,6.0,-1.0,3.0,1.0,-41.0,2.0,11888.0,11136.0,1662.0,582.0,4.0,6.0,3.0,1.0
2022-05-08 14:13:19.836174-07:00,980.7,1080.8,1693.8,1458.9,774.5,539.4,1620.9,1242.6,3479.5,3467.4,1104.3,1105.1,452.2,3500.2,1251.5,1112.1,3479.5,3484.4,433.3,688.9,502.8,609.2,282.1,289.0,3478.3,3475.9,730.7,475.8,929.6,1568.3,2289.0,533.0,1.0,-7.0,-2.0,10318.0,12318.0,2979.0,1162.0,-6.0,17.0,5.0,-1.0,-43.0,3.0,11888.0,11136.0,1662.0,582.0,0.0,7.0,7.0,1.0
2022-05-08 14:13:19.836965-07:00,980.7,1080.8,1693.8,1458.9,767.0,538.6,1619.0,1246.2,3479.5,3467.4,1104.3,1105.1,452.2,3490.5,1268.5,1118.2,3475.9,3484.4,431.7,692.9,502.8,609.2,282.1,289.0,3485.6,3481.9,730.7,475.8,929.6,1568.3,2289.0,533.0,3.0,-6.0,-9.0,10316.0,12320.0,2980.0,1164.0,7.0,-9.0,13.0,2.0,-37.0,11.0,11888.0,11136.0,1662.0,584.0,-8.0,-5.0,10.0,1.0
2022-05-08 14:13:19.865931-07:00,985.9,1075.6,1690.0,1454.3,767.0,538.6,1619.0,1246.2,3481.9,3472.2,1105.1,1104.3,452.2,3490.5,1268.5,1118.2,3475.9,3484.4,431.7,692.9,505.1,611.7,287.5,285.9,3485.6,3481.9,730.7,475.8,931.3,1568.3,2294.2,531.4,3.0,-7.0,-7.0,10319.0,12317.0,2979.0,1168.0,5.0,12.0,-4.0,2.0,-46.0,4.0,11889.0,11135.0,1662.0,584.0,10.0,-4.0,-5.0,1.0
2022-05-08 14:13:19.866933-07:00,985.9,1075.6,1690.0,1454.3,767.0,537.0,1625.6,1243.5,3481.9,3472.2,1105.1,1104.3,449.8,3502.7,1255.1,1122.6,3483.2,3477.1,436.4,697.0,505.1,611.7,287.5,285.9,3481.9,3477.1,724.9,479.0,931.3,1568.3,2294.2,531.4,1.0,-10.0,-1.0,10319.0,12318.0,2980.0,1167.0,-3.0,7.0,5.0,4.0,-42.0,3.0,11889.0,11135.0,1662.0,585.0,1.0,10.0,11.0,1.0
2022-05-08 14:13:19.985396-07:00,984.2,1076.4,1687.2,1449.7,767.0,537.0,1625.6,1243.5,3474.6,3473.4,1101.7,1102.5,449.8,3502.7,1255.1,1122.6,3483.2,3477.1,436.4,697.0,505.9,609.2,284.4,280.6,3481.9,3477.1,724.9,479.0,927.1,1563.7,2281.7,532.2,3.0,0.0,-13.0,10319.0,12318.0,2978.0,1171.0,6.0,2.0,9.0,3.0,-42.0,0.0,11888.0,11136.0,1660.0,587.0,0.0,-2.0,8.0,1.0
2022-05-08 14:13:19.987010-07:00,985.9,1076.4,1687.2,1449.7,766.2,540.2,1619.0,1246.2,3472.2,3473.4,1101.7,1102.5,450.6,3503.9,1248.8,1122.6,3484.4,3477.1,434.1,697.0,505.9,609.2,284.4,285.9,3484.4,3479.5,723.3,475.8,927.1,1563.7,2281.7,533.0,3.0,-4.0,-6.0,10318.0,12318.0,2978.0,1172.0,-5.0,11.0,0.0,3.0,-41.0,7.0,11888.0,11136.0,1660.0,587.0,-4.0,7.0,1.0,1.0
2022-05-08 14:13:19.988758-07:00,985.9,1073.8,1683.3,1454.3,766.2,540.2,1619.0,1236.4,3472.2,3483.2,1100.8,1101.7,450.6,3503.9,1248.8,1116.5,3478.3,3477.1,434.1,697.0,498.0,610.8,284.4,285.9,3479.5,3479.5,723.3,475.8,923.7,1569.3,2274.5,533.0,5.0,-9.0,-8.0,10320.0,12316.0,2979.0,1172.0,3.0,-1.0,-9.0,4.0,-43.0,2.0,11887.0,11137.0,1660.0,587.0,12.0,1.0,-4.0,1.0
2022-05-08 14:13:20.105463-07:00,979.9,1073.8,1683.3,1454.3,763.7,538.6,1624.7,1236.4,3472.2,3483.2,1100.8,1101.7,445.9,3492.9,1252.4,1116.5,3478.3,3472.2,431.7,692.9,498.0,610.8,284.4,283.6,3479.5,3478.3,729.0,475.8,923.7,1569.3,2274.5,529.0,0.0,-2.0,-6.0,10320.0,12316.0,2979.0,1172.0,6.0,-5.0,-5.0,1.0,-44.0,5.0,11887.0,11137.0,1660.0,587.0,-3.0,0.0,-2.0,1.0
2022-05-08 14:13:20.106635-07:00,979.9,1077.3,1679.5,1447.9,763.7,538.6,1624.7,1239.1,3472.2,3473.4,1105.1,1104.3,445.9,3492.9,1252.4,1115.6,3475.9,3472.2,431.7,692.9,502.8,608.4,282.9,283.6,3472.2,3478.3,729.0,475.8,916.9,1557.1,2271.4,529.0,2.0,-2.0,-7.0,10320.0,12316.0,2979.0,1172.0,-6.0,8.0,-5.0,1.0,-39.0,2.0,11887.0,11137.0,1661.0,588.0,-9.0,10.0,-3.0,1.0
2022-05-08 14:13:20.195358-07:00,982.5,1077.3,1679.5,1447.9,764.5,541.8,1619.0,1239.1,3473.4,3473.4,1105.1,1104.3,449.0,3496.6,1246.2,1115.6,3475.9,3480.7,430.9,691.3,502.8,608.4,282.9,280.6,3472.2,3483.2,724.9,471.9,916.9,1557.1,2271.4,527.4,6.0,-14.0,-4.0,10322.0,12314.0,2982.0,1171.0,9.0,-4.0,-11.0,4.0,-43.0,2.0,11887.0,11137.0,1663.0,585.0,10.0,-3.0,-12.0,1.0
2022-05-08 14:13:20.255399-07:00,982.5,1072.9,1671.9,1447.0,764.5,541.8,1619.0,1251.5,3473.4,3473.4,1095.6,1105.1,449.0,3496.6,1246.2,1119.1,3474.6,3480.7,430.9,691.3,495.6,606.8,280.6,280.6,3474.6,3483.2,724.9,471.9,923.7,1559.9,2274.5,527.4,-4.0,-7.0,-11.0,10324.0,12312.0,2981.0,1172.0,-12.0,5.0,0.0,-1.0,-42.0,1.0,11887.0,11137.0,1663.0,585.0,-9.0,7.0,4.0,1.0
2022-05-08 14:13:20.256576-07:00,981.6,1071.2,1671.9,1447.0,769.5,544.2,1614.3,1251.5,3483.2,3480.7,1095.6,1105.1,451.4,3502.7,1242.6,1119.1,3474.6,3478.3,429.4,692.1,495.6,606.8,282.1,277.5,3474.6,3477.1,726.6,490.9,923.7,1559.9,2267.2,525.8,2.0,0.0,-4.0,10325.0,12311.0,2983.0,1171.0,-9.0,5.0,-11.0,6.0,-38.0,3.0,11887.0,11137.0,1664.0,584.0,1.0,-1.0,-12.0,1.0
2022-05-08 14:13:20.285439-07:00,981.6,1071.2,1676.7,1452.5,769.5,544.2,1619.9,1241.7,3483.2,3480.7,1096.4,1104.3,451.4,3502.7,1246.2,1106.9,3479.5,3483.2,429.4,692.1,502.8,609.2,282.1,277.5,3480.7,3484.4,726.6,490.9,918.6,1560.9,2267.2,525.8,5.0,-8.0,-9.0,10325.0,12310.0,2986.0,1169.0,-7.0,2.0,-8.0,3.0,-44.0,4.0,11887.0,11136.0,1668.0,580.0,-6.0,1.0,-13.0,1.0
2022-05-08 14:13:20.615416-07:00,979.9,1069.5,1676.7,1452.5,765.3,541.0,1619.9,1241.7,3477.1,3479.5,1096.4,1104.3,452.2,3494.1,1246.2,1106.9,3479.5,3483.2,428.6,699.5,502.8,609.2,284.4,282.1,3480.7,3484.4,732.3,471.9,918.6,1560.9,2263.1,526.6,0.0,-8.0,-6.0,10327.0,12307.0,2991.0,1170.0,2.0,9.0,-15.0,1.0,-42.0,3.0,11887.0,11136.0,1672.0,580.0,4.0,15.0,-10.0,1.0
2022-05-08 14:13:20.616664-07:00,979.9,1069.5,1680.5,1445.1,765.3,541.0,1605.8,1227.5,3477.1,3479.5,1093.8,1099.9,452.2,3494.1,1241.7,1115.6,3472.2,3478.3,428.6,699.5,500.4,606.0,284.4,282.1,3477.1,3478.3,732.3,471.9,921.1,1562.7,2263.1,526.6,4.0,-5.0,-6.0,10326.0,12306.0,2999.0,1169.0,-3.0,11.0,-13.0,1.0,-44.0,1.0,11886.0,11135.0,1680.0,581.0,-3.0,15.0,-8.0,1.0
2022-05-08 14:13:20.617460-07:00,978.2,1066.9,1680.5,1445.1,765.3,539.4,1605.8,1227.5,3478.3,3483.2,1093.8,1099.9,449.0,3503.9,1241.7,1115.6,3472.2,3478.3,428.6,696.2,500.4,606.0,289.0,284.4,3477.1,3478.3,729.0,470.3,921.1,1562.7,2268.3,515.5,0.0,-13.0,-11.0,10326.0,12306.0,3002.0,1167.0,-4.0,3.0,-6.0,1.0,-50.0,5.0,11886.0,11135.0,1682.0,583.0,-5.0,0.0,-8.0,1.0
2022-05-08 14:13:20.618649-07:00,978.2,1066.9,1667.2,1443.3,765.3,539.4,1619.9,1231.9,3478.3,3483.2,1094.7,1101.7,449.0,3503.9,1242.6,1114.7,3480.7,3472.2,428.6,696.2,502.8,606.8,289.0,284.4,3474.6,3475.9,729.0,470.3,921.1,1550.6,2268.3,515.5,2.0,-6.0,-5.0,10327.0,12305.0,3002.0,1166.0,-13.0,8.0,-5.0,0.0,-41.0,9.0,11886.0,11135.0,1683.0,582.0,-7.0,1.0,-7.0,1.0
2022-05-08 14:13:20.645338-07:00,981.6,1064.3,1665.3,1443.3,768.7,537.8,1619.9,1231.9,3475.9,3474.6,1098.2,1101.7,449.8,3501.4,1242.6,1114.7,3480.7,3472.2,431.7,694.6,502.8,607.6,280.6,285.9,3474.6,3475.9,729.0,471.1,921.1,1553.4,2267.2,531.4,5.0,-5.0,-9.0,10330.0,12302.0,3003.0,1168.0,5.0,-4.0,-8.0,4.0,-40.0,-1.0,11886.0,11135.0,1683.0,582.0,4.0,6.0,-6.0,1.0
2022-05-08 14:13:20.646559-07:00,978.2,1066.0,1668.2,1442.4,767.0,537.0,1612.4,1229.3,3473.4,3480.7,1095.6,1102.5,451.4,3496.6,1238.2,1115.6,3483.2,3483.2,433.3,692.9,506.7,608.4,285.2,279.8,3490.5,3480.7,724.9,474.3,914.4,1551.5,2259.0,526.6,1.0,-7.0,-5.0,10330.0,12302.0,3004.0,1166.0,-5.0,-2.0,-3.0,-3.0,-43.0,6.0,11886.0,11135.0,1684.0,583.0,-5.0,-6.0,-5.0,1.0
2022-05-08 14:13:20.976356-07:00,978.2,1066.0,1668.2,1440.5,767.0,539.4,1609.6,1222.2,3473.4,3480.7,1095.6,1100.8,451.4,3505.1,1239.9,1115.6,3483.2,3467.4,429.4,692.9,498.8,608.4,285.2,279.8,3478.3,3469.8,724.9,474.3,921.1,1551.5,2259.0,526.6,0.0,-14.0,-5.0,10333.0,12299.0,3006.0,1166.0,-1.0,11.0,-7.0,3.0,-49.0,5.0,11886.0,11134.0,1684.0,583.0,-2.0,6.0,-4.0,1.0
2022-05-08 14:13:20.977322-07:00,979.0,1064.3,1665.3,1440.5,764.5,539.4,1609.6,1222.2,3471.0,3477.1,1090.3,1100.8,447.4,3505.1,1239.9,1115.6,3483.2,3467.4,429.4,695.4,498.8,608.4,282.9,281.3,3478.3,3469.8,724.9,471.9,921.1,1552.5,2252.8,527.4,2.0,-6.0,-6.0,10333.0,12299.0,3006.0,1166.0,6.0,-1.0,-5.0,3.0,-45.0,1.0,11886.0,11134.0,1684.0,583.0,3.0,2.0,-2.0,1.0
2022-05-08 14:13:20.978121-07:00,979.0,1064.3,1665.3,1462.6,764.5,539.4,1622.8,1220.4,3471.0,3477.1,1090.3,1096.4,447.4,3495.3,1237.3,1112.1,3485.6,3479.5,433.3,695.4,498.8,608.4,282.9,281.3,3488.0,3485.6,725.8,471.9,904.2,1552.5,2252.8,527.4,-2.0,-11.0,-9.0,10334.0,12298.0,3007.0,1168.0,-11.0,14.0,0.0,-4.0,-45.0,7.0,11887.0,11134.0,1685.0,584.0,-6.0,13.0,0.0,1.0
2022-05-08 14:13:20.979291-07:00,978.2,1055.6,1649.2,1441.5,764.5,539.4,1622.8,1220.4,3490.5,3471.0,1088.6,1100.8,450.6,3495.3,1237.3,1112.1,3485.6,3479.5,433.3,692.9,503.6,607.6,283.6,277.5,3488.0,3485.6,725.8,471.1,911.0,1545.0,2270.3,526.6,4.0,-5.0,-6.0,10334.0,12298.0,3007.0,1168.0,-5.0,-2.0,-5.0,3.0,-41.0,0.0,11886.0,11135.0,1685.0,584.0,-7.0,-3.0,-6.0,1.0
2022-05-08 14:13:21.095414-07:00,978.2,1055.6,1649.2,1441.5,764.5,534.6,1613.4,1225.7,3490.5,3471.0,1088.6,1100.8,450.6,3507.5,1239.9,1113.9,3477.1,3483.2,431.7,694.6,503.6,607.6,283.6,277.5,3483.2,3481.9,723.3,471.9,911.0,1545.0,2270.3,526.6,1.0,-10.0,-6.0,10334.0,12298.0,3007.0,1168.0,3.0,2.0,-7.0,1.0,-49.0,8.0,11886.0,11135.0,1685.0,584.0,9.0,2.0,0.0,1.0
2022-05-08 14:13:21.096251-07:00,978.2,1055.6,1649.2,1441.5,764.5,534.6,1613.4,1225.7,3490.5,3471.0,1088.6,1100.8,450.6,3507.5,1239.9,1113.9,3477.1,3483.2,431.7,694.6,503.6,607.6,283.6,277.5,3483.2,3481.9,723.3,471.9,911.0,1545.0,2270.3,526.6,1.0,-10.0,-6.0,10334.0,12298.0,3007.0,1168.0,3.0,2.0,-7.0,1.0,-49.0,8.0,11886.0,11135.0,1685.0,584.0,9.0,2.0,0.0,1.0
2022-05-08 14:13:21.097361-07:00,974.8,1059.1,1660.6,1433.2,756.3,536.2,1604.0,1228.4,3479.5,3478.3,1087.7,1097.3,446.7,3497.8,1240.8,1106.9,3480.7,3477.1,430.9,692.1,499.6,610.8,280.6,279.0,3484.4,3480.7,721.6,467.1,911.0,1563.7,2251.7,527.4,1.0,-10.0,-4.0,10335.0,12297.0,3008.0,1168.0,-3.0,2.0,-4.0,2.0,-42.0,4.0,11885.0,11136.0,1684.0,583.0,-7.0,1.0,-1.0,1.0
2022-05-08 14:13:21.125844-07:00,974.8,1059.1,1660.6,1433.2,764.5,538.6,1607.7,1222.2,3479.5,3478.3,1087.7,1097.3,452.2,3495.3,1238.2,1108.6,3485.6,3477.1,434.9,690.5,499.6,610.8,280.6,279.0,3484.4,3480.7,729.9,466.4,911.0,1563.7,2251.7,527.4,0.0,-1.0,-4.0,10334.0,12297.0,3010.0,1171.0,9.0,8.0,0.0,2.0,-39.0,2.0,11884.0,11137.0,1685.0,584.0,13.0,5.0,-2.0,1.0
2022-05-08 14:13:21.215409-07:00,977.3,1059.9,1659.6,1440.5,764.5,538.6,1607.7,1219.5,3472.2,3474.6,1085.1,1096.4,452.2,3495.3,1238.2,1106.0,3479.5,3477.1,434.9,690.5,501.2,606.8,274.4,279.8,3477.1,3480.7,729.9,466.4,905.0,1552.5,2250.7,517.9,4.0,-5.0,-11.0,10334.0,12297.0,3011.0,1172.0,6.0,-5.0,-3.0,0.0,-39.0,-1.0,11884.0,11137.0,1686.0,584.0,-2.0,3.0,-4.0,1.0
2022-05-08 14:13:21.306164-07:00,978.2,1059.9,1659.6,1440.5,765.3,536.2,1604.0,1219.5,3471.0,3474.6,1085.1,1096.4,449.8,3497.8,1232.8,1106.0,3479.5,3479.5,430.9,692.1,501.2,606.8,274.4,283.6,3477.1,3477.1,725.8,466.4,905.0,1552.5,2250.7,522.6,-1.0,-10.0,-8.0,10334.0,12297.0,3011.0,1172.0,-4.0,0.0,-3.0,1.0,-42.0,4.0,11883.0,11137.0,1686.0,585.0,-8.0,-4.0,-4.0,1.0
2022-05-08 14:13:21.307064-07:00,978.2,1061.7,1659.6,1439.6,765.3,536.2,1604.0,1221.3,3471.0,3477.1,1087.7,1103.4,449.8,3497.8,1232.8,1107.8,3483.2,3479.5,430.9,692.1,500.4,609.2,280.6,283.6,3478.3,3477.1,725.8,466.4,916.0,1550.6,2245.6,522.6,2.0,-5.0,-3.0,10335.0,12296.0,3011.0,1172.0,2.0,10.0,-4.0,2.0,-42.0,3.0,11884.0,11136.0,1686.0,585.0,1.0,7.0,-1.0,1.0
2022-05-08 14:13:21.336210-07:00,976.5,1061.7,1659.6,1439.6,761.2,535.4,1611.5,1221.3,3481.9,3477.1,1087.7,1103.4,453.7,3499.0,1232.8,1107.8,3483.2,3479.5,431.7,695.4,500.4,609.2,280.6,279.0,3478.3,3483.2,717.5,465.6,916.0,1550.6,2245.6,528.2,2.0,-11.0,-8.0,10334.0,12296.0,3012.0,1174.0,11.0,0.0,-7.0,1.0,-41.0,3.0,11883.0,11137.0,1687.0,586.0,10.0,8.0,-5.0,1.0
2022-05-08 14:13:21.337336-07:00,976.5,1059.1,1665.3,1432.3,761.2,535.4,1611.5,1223.0,3481.9,3472.2,1087.7,1104.3,453.7,3499.0,1232.8,1104.3,3489.2,3479.5,431.7,695.4,505.9,609.2,274.4,279.0,3480.7,3483.2,717.5,465.6,908.4,1547.8,2241.4,528.2,-1.0,-12.0,-12.0,10335.0,12295.0,3012.0,1174.0,-10.0,3.0,3.0,-3.0,-47.0,8.0,11884.0,11136.0,1687.0,586.0,-9.0,-6.0,1.0,1.0
2022-05-08 14:13:21.395467-07:00,973.1,1059.1,1665.3,1432.3,760.4,534.6,1604.0,1223.0,3481.9,3472.2,1087.7,1104.3,445.1,3497.8,1233.7,1104.3,3489.2,3484.4,436.4,692.1,505.9,609.2,274.4,274.4,3480.7,3479.5,727.4,468.7,908.4,1547.8,2241.4,519.5,0.0,-12.0,-6.0,10336.0,12294.0,3012.0,1174.0,-1.0,-8.0,6.0,2.0,-46.0,4.0,11884.0,11136.0,1687.0,586.0,-2.0,-4.0,3.0,1.0
2022-05-08 14:13:21.725552-07:00,973.1,1057.3,1657.7,1437.8,760.4,534.6,1609.6,1222.2,3481.9,3481.9,1085.1,1098.2,445.1,3497.8,1239.1,1101.7,3477.1,3480.7,436.4,692.1,499.6,607.6,279.0,274.4,3484.4,3481.9,727.4,468.7,907.6,1544.1,2243.5,519.5,0.0,-8.0,-6.0,10338.0,12293.0,3010.0,1176.0,-19.0,-6.0,12.0,1.0,-41.0,6.0,11886.0,11134.0,1686.0,585.0,-14.0,-12.0,4.0,1.0
2022-05-08 14:13:21.726802-07:00,974.8,1057.3,1657.7,1437.8,757.9,533.8,1609.6,1222.2,3478.3,3474.6,1085.1,1098.2,451.4,3494.1,1239.1,1101.7,3477.1,3480.7,436.4,692.1,499.6,607.6,278.3,276.0,3484.4,3481.9,729.0,464.8,907.6,1544.1,2241.4,525.0,0.0,-9.0,-3.0,10339.0,12293.0,3008.0,1176.0,5.0,-2.0,2.0,2.0,-41.0,5.0,11886.0,11134.0,1686.0,585.0,4.0,5.0,3.0,1.0
2022-05-08 14:13:21.756041-07:00,974.8,1057.3,1657.7,1436.9,757.9,533.8,1610.5,1216.8,3478.3,3474.6,1086.8,1099.9,451.4,3494.1,1239.1,1106.9,3474.6,3474.6,436.4,692.1,505.1,608.4,278.3,276.0,3484.4,3480.7,729.0,464.8,911.0,1545.0,2241.4,525.0,4.0,-8.0,-6.0,10339.0,12292.0,3010.0,1179.0,-2.0,24.0,3.0,4.0,-46.0,8.0,11887.0,11134.0,1686.0,585.0,2.0,7.0,7.0,1.0
2022-05-08 14:13:21.757215-07:00,972.2,1064.3,1657.7,1436.9,751.3,535.4,1610.5,1216.8,3474.6,3477.1,1086.8,1099.9,452.2,3502.7,1239.1,1106.9,3474.6,3474.6,432.5,692.9,505.1,608.4,279.0,281.3,3484.4,3480.7,718.4,467.1,911.0,1545.0,2250.7,523.4,3.0,-8.0,-3.0,10337.0,12291.0,3017.0,1187.0,6.0,42.0,-10.0,5.0,-47.0,0.0,11886.0,11134.0,1691.0,590.0,8.0,20.0,4.0,1.0
2022-05-08 14:13:21.758368-07:00,972.2,1064.3,1657.7,1441.5,751.3,535.4,1614.3,1226.6,3474.6,3477.1,1087.7,1097.3,452.2,3502.7,1245.3,1106.0,3477.1,3480.7,432.5,692.9,502.0,608.4,279.0,281.3,3481.9,3477.1,718.4,467.1,908.4,1550.6,2250.7,523.4,9.0,-8.0,-5.0,10332.0,12289.0,3038.0,1200.0,-10.0,84.0,-27.0,4.0,-45.0,-3.0,11879.0,11139.0,1701.0,598.0,48.0,57.0,6.0,1.0
2022-05-08 14:13:21.760426-07:00,990.2,1069.5,1657.7,1441.5,766.2,537.8,1614.3,1226.6,3474.6,3477.1,1087.7,1097.3,453.7,3499.0,1245.3,1106.0,3477.1,3480.7,434.1,694.6,502.0,608.4,278.3,280.6,3481.9,3477.1,720.8,467.9,908.4,1550.6,2313.9,523.4,5.0,-8.0,-12.0,10327.0,12285.0,3060.0,1221.0,-3.0,38.0,-7.0,4.0,-40.0,13.0,11865.0,11151.0,1710.0,610.0,14.0,23.0,13.0,1.0
2022-05-08 14:13:22.086192-07:00,986.7,1062.5,1686.2,1441.5,762.0,538.6,1610.5,1222.2,3475.9,3473.4,1122.6,1103.4,445.1,3496.6,1279.2,1106.9,3484.4,3483.2,438.0,694.6,502.8,604.4,279.8,276.0,3485.6,3479.5,725.8,471.1,913.5,1542.2,2479.1,528.2,-29.0,-1.0,-25.0,10301.0,12291.0,3118.0,1237.0,23.0,95.0,-14.0,-20.0,-38.0,19.0,11825.0,11189.0,1733.0,645.0,38.0,24.0,25.0,1.0
2022-05-08 14:13:22.087565-07:00,986.7,1062.5,1686.2,1446.0,762.0,536.2,1606.8,1219.5,3475.9,3473.4,1122.6,1092.9,445.1,3496.6,1337.7,1102.5,3477.1,3481.9,435.7,694.6,501.2,604.4,279.8,276.0,3483.2,3480.7,721.6,471.1,905.0,1542.2,2479.1,528.2,14.0,-9.0,-2.0,10293.0,12298.0,3120.0,1236.0,52.0,-29.0,-2.0,10.0,-35.0,5.0,11818.0,11196.0,1732.0,653.0,38.0,21.0,20.0,1.0
2022-05-08 14:13:22.088400-07:00,992.7,1057.3,1705.3,1446.0,758.7,536.2,1606.8,1219.5,3478.3,3473.4,1131.4,1092.9,445.1,3496.6,1337.7,1102.5,3477.1,3481.9,435.7,691.3,501.2,605.2,282.9,279.0,3483.2,3480.7,721.6,475.8,905.0,1550.6,2499.4,522.6,9.0,-3.0,-27.0,10288.0,12300.0,3125.0,1237.0,6.0,57.0,-29.0,14.0,-43.0,0.0,11810.0,11203.0,1734.0,668.0,86.0,55.0,22.0,1.0
2022-05-08 14:13:22.090057-07:00,992.7,1057.3,1705.3,1458.0,758.7,541.0,1602.1,1211.5,3478.3,3473.4,1131.4,1089.5,445.1,3489.2,1433.2,1102.5,3483.2,3475.9,429.4,691.3,504.4,605.2,282.9,279.0,3484.4,3477.1,725.8,475.8,911.0,1550.6,2499.4,522.6,-5.0,-6.0,-3.0,10271.0,12303.0,3166.0,1250.0,27.0,74.0,-40.0,0.0,-41.0,22.0,11785.0,11226.0,1747.0,686.0,33.0,47.0,20.0,1.0
2022-05-08 14:13:22.266510-07:00,997.9,1063.4,1795.5,1508.8,759.6,549.8,1594.6,1207.1,3478.3,3478.3,1185.9,1085.1,448.2,3499.0,1584.2,1113.0,3475.9,3472.2,427.0,694.6,500.4,610.0,282.1,284.4,3480.7,3474.6,718.4,515.5,899.1,1559.0,2662.4,521.0,2.0,-14.0,-9.0,10188.0,12328.0,3323.0,1278.0,17.0,102.0,-54.0,2.0,-48.0,6.0,11662.0,11341.0,1794.0,764.0,81.0,75.0,27.0,1.0
2022-05-08 14:13:22.267619-07:00,996.2,1062.5,1869.3,1521.8,759.6,549.8,1594.6,1207.1,3464.9,3478.3,1182.3,1083.4,448.2,3499.0,1584.2,1113.0,3475.9,3472.2,427.0,694.6,498.8,601.2,295.1,289.8,3480.7,3474.6,718.4,515.5,904.2,1584.2,2670.0,516.3,-7.0,3.0,-9.0,10161.0,12337.0,3367.0,1286.0,57.0,92.0,-58.0,0.0,-42.0,6.0,11630.0,11370.0,1811.0,787.0,66.0,82.0,24.0,1.0
2022-05-08 14:13:22.386183-07:00,996.2,1062.5,1869.3,1521.8,760.4,558.6,1612.4,1197.4,3464.9,3478.3,1182.3,1083.4,450.6,3495.3,1671.9,1119.1,3478.3,3479.5,430.2,691.3,498.8,601.2,295.1,289.8,3479.5,3478.3,719.2,523.4,904.2,1584.2,2670.0,516.3,8.0,-4.0,-19.0,10146.0,12338.0,3402.0,1299.0,37.0,60.0,-20.0,9.0,-41.0,0.0,11603.0,11394.0,1822.0,804.0,64.0,62.0,22.0,1.0
2022-05-08 14:13:22.387700-07:00,1001.3,1066.9,1919.3,1515.3,760.4,558.6,1612.4,1197.4,3469.8,3472.2,1170.0,1078.2,450.6,3495.3,1671.9,1119.1,3478.3,3479.5,430.2,691.3,495.6,605.2,296.7,297.4,3479.5,3478.3,719.2,523.4,905.9,1580.5,2617.8,524.2,0.0,-6.0,0.0,10130.0,12344.0,3426.0,1306.0,25.0,72.0,-40.0,0.0,-34.0,4.0,11578.0,11418.0,1828.0,818.0,40.0,52.0,16.0,1.0
2022-05-08 14:13:22.388522-07:00,999.6,1066.9,1919.3,1515.3,757.9,560.2,1593.6,1192.9,3480.7,3472.2,1170.0,1078.2,449.8,3499.0,1696.7,1120.0,3478.3,3483.2,430.2,691.3,495.6,605.2,296.7,302.8,3485.6,3483.2,711.8,532.2,905.9,1580.5,2617.8,517.1,2.0,-8.0,7.0,10117.0,12342.0,3466.0,1323.0,38.0,87.0,-44.0,10.0,-45.0,2.0,11558.0,11437.0,1837.0,825.0,52.0,55.0,6.0,1.0
2022-05-08 14:13:22.475514-07:00,999.6,1059.9,1945.0,1486.6,757.9,560.2,1593.6,1180.6,3480.7,3481.9,1146.3,1072.9,449.8,3499.0,1696.7,1106.0,3472.2,3483.2,430.2,691.3,501.2,598.7,302.8,302.8,3488.0,3483.2,711.8,532.2,898.3,1547.8,2526.1,517.1,0.0,-7.0,-8.0,10091.0,12349.0,3510.0,1334.0,105.0,83.0,-55.0,-43.0,-49.0,10.0,11524.0,11466.0,1851.0,846.0,185.0,13.0,30.0,1.0
2022-05-08 14:13:22.476724-07:00,989.3,1059.9,1945.0,1486.6,760.4,555.4,1585.2,1180.6,3467.4,3481.9,1146.3,1072.9,449.8,3502.7,1649.2,1106.0,3472.2,3488.0,429.4,692.9,501.2,598.7,302.8,299.0,3488.0,3472.2,718.4,541.8,898.3,1547.8,2526.1,516.3,10.0,-8.0,-2.0,10060.0,12360.0,3557.0,1345.0,35.0,121.0,-66.0,-61.0,-48.0,15.0,11499.0,11488.0,1869.0,860.0,108.0,26.0,16.0,1.0
2022-05-08 14:13:22.477476-07:00,989.3,1066.0,2001.5,1467.2,760.4,555.4,1585.2,1174.4,3467.4,3480.7,1137.5,1069.5,449.8,3502.7,1649.2,1108.6,3488.0,3488.0,429.4,692.9,503.6,600.4,302.8,299.0,3488.0,3472.2,718.4,541.8,894.1,1530.1,2451.5,516.3,9.0,-15.0,-8.0,10036.0,12361.0,3613.0,1362.0,52.0,123.0,-76.0,60.0,-26.0,-4.0,11474.0,11509.0,1887.0,876.0,63.0,54.0,10.0,1.0
2022-05-08 14:13:22.625347-07:00,988.5,1066.0,2001.5,1467.2,756.3,559.4,1583.3,1174.4,3477.1,3480.7,1137.5,1069.5,449.8,3496.6,1589.9,1108.6,3488.0,3479.5,428.6,695.4,503.6,600.4,302.8,308.2,3488.0,3481.9,714.2,589.9,894.1,1530.1,2451.5,523.4,-2.0,-15.0,1.0,10011.0,12367.0,3653.0,1391.0,40.0,118.0,33.0,0.0,-45.0,0.0,11443.0,11536.0,1900.0,898.0,80.0,57.0,25.0,1.0
2022-05-08 14:13:22.656126-07:00,988.5,1094.7,2043.4,1474.6,756.3,559.4,1583.3,1134.9,3477.1,3475.9,1117.4,1072.9,449.8,3496.6,1589.9,1097.3,3480.7,3479.5,428.6,695.4,498.0,602.0,305.9,308.2,3480.7,3481.9,714.2,589.9,900.8,1507.8,2338.9,523.4,-11.0,4.0,-18.0,9990.0,12365.0,3702.0,1431.0,42.0,113.0,-92.0,9.0,-46.0,5.0,11416.0,11560.0,1915.0,910.0,49.0,65.0,-12.0,1.0
2022-05-08 14:13:22.656981-07:00,988.5,1118.2,2043.4,1474.6,758.7,570.6,1591.7,1134.9,3477.1,3475.9,1117.4,1072.9,447.4,3499.0,1519.0,1097.3,3480.7,3481.9,429.4,694.6,498.0,602.0,308.2,309.7,3480.7,3481.9,722.5,621.4,900.8,1507.8,2252.8,514.7,8.0,-26.0,-2.0,9964.0,12373.0,3747.0,1422.0,30.0,75.0,-49.0,6.0,-44.0,2.0,11394.0,11577.0,1932.0,921.0,15.0,65.0,4.0,1.0
2022-05-08 14:13:22.685511-07:00,988.5,1118.2,2043.4,1456.2,758.7,570.6,1590.8,1120.0,3477.1,3475.9,1106.0,1069.5,447.4,3499.0,1438.7,1089.5,3475.9,3478.3,429.4,694.6,505.9,599.6,308.2,309.7,3472.2,3484.4,722.5,621.4,901.7,1483.8,2252.8,514.7,7.0,0.0,-30.0,9952.0,12379.0,3748.0,1445.0,-3.0,10.0,63.0,-4.0,-49.0,-9.0,11380.0,11588.0,1940.0,942.0,59.0,8.0,36.0,1.0
2022-05-08 14:13:22.835850-07:00,986.7,1169.1,2043.4,1456.2,754.6,578.6,1590.8,1120.0,3472.2,3472.2,1106.0,1069.5,451.4,3507.5,1438.7,1089.5,3475.9,3478.3,433.3,692.9,505.9,599.6,309.0,309.0,3472.2,3484.4,723.3,626.2,901.7,1483.8,2167.7,513.1,-5.0,-17.0,10.0,9963.0,12370.0,3745.0,1458.0,-44.0,16.0,21.0,18.0,-46.0,20.0,11375.0,11592.0,1939.0,957.0,11.0,48.0,24.0,1.0
2022-05-08 14:13:22.865298-07:00,986.7,1169.1,2038.4,1440.5,754.6,578.6,1608.7,1106.9,3472.2,3472.2,1067.7,1067.7,451.4,3507.5,1384.8,1081.6,3480.7,3480.7,433.3,692.9,502.0,597.9,309.0,309.0,3484.4,3486.8,723.3,626.2,897.4,1471.8,2167.7,513.1,7.0,-21.0,-21.0,9971.0,12368.0,3722.0,1479.0,-38.0,-2.0,74.0,-4.0,-59.0,-8.0,11362.0,11603.0,1940.0,975.0,15.0,42.0,30.0,1.0
2022-05-08 14:13:23.075165-07:00,990.2,1222.2,2038.4,1440.5,760.4,589.9,1608.7,1106.9,3481.9,3480.7,1067.7,1067.7,450.6,3492.9,1384.8,1081.6,3480.7,3480.7,430.2,692.9,502.0,597.9,313.6,308.2,3484.4,3486.8,725.8,646.5,897.4,1471.8,2089.6,531.4,-10.0,3.0,-25.0,9986.0,12360.0,3704.0,1495.0,-85.0,-55.0,19.0,0.0,-48.0,-7.0,11359.0,11603.0,1947.0,994.0,-3.0,40.0,17.0,1.0
2022-05-08 14:13:23.196161-07:00,990.2,1222.2,2106.8,1441.5,760.4,589.9,1607.7,1088.6,3481.9,3480.7,1042.6,1068.6,450.6,3492.9,1330.5,1072.1,3484.4,3478.3,430.2,692.9,497.2,597.9,313.6,308.2,3477.1,3481.9,725.8,646.5,886.5,1456.2,2089.6,531.4,0.0,-10.0,10.0,10013.0,12336.0,3719.0,1469.0,-141.0,47.0,-139.0,5.0,-41.0,12.0,11364.0,11599.0,1945.0,995.0,-70.0,3.0,-12.0,1.0
2022-05-08 14:13:23.199198-07:00,1003.9,1271.2,2146.3,1441.5,758.7,598.7,1607.7,1088.6,3472.2,3478.3,1000.5,1068.6,451.4,3492.9,1330.5,1072.1,3484.4,3478.3,429.4,694.6,497.2,593.9,313.6,313.6,3477.1,3481.9,735.6,668.4,886.5,1448.8,2038.4,505.1,-10.0,-27.0,-13.0,10021.0,12317.0,3758.0,1479.0,53.0,75.0,17.0,10.0,-46.0,29.0,11353.0,11606.0,1958.0,1002.0,92.0,62.0,0.0,1.0
2022-05-08 14:13:23.200180-07:00,1003.9,1271.2,2146.3,1429.5,758.7,593.9,1625.6,1084.2,3472.2,3478.3,1000.5,1071.2,451.4,3501.4,1274.7,1059.9,3478.3,3483.2,436.4,694.6,502.0,593.9,313.6,313.6,3481.9,3485.6,742.2,668.4,884.8,1448.8,2038.4,505.1,9.0,-10.0,-56.0,9983.0,12347.0,3763.0,1467.0,148.0,-40.0,-49.0,6.0,-38.0,-17.0,11331.0,11626.0,1967.0,1007.0,49.0,5.0,7.0,1.0
2022-05-08 14:13:23.201281-07:00,1031.4,1325.0,2185.0,1429.5,757.9,593.9,1625.6,1084.2,3478.3,3472.2,980.7,1071.2,451.4,3501.4,1274.7,1059.9,3478.3,3483.2,436.4,692.9,502.0,592.3,311.3,308.2,3481.9,3485.6,742.2,684.0,884.8,1438.7,2002.5,516.3,5.0,-6.0,5.0,9965.0,12358.0,3772.0,1477.0,121.0,83.0,17.0,-7.0,-56.0,-21.0,11319.0,11636.0,1975.0,1018.0,104.0,59.0,1.0,1.0
2022-05-08 14:13:23.201953-07:00,1031.4,1325.0,2185.0,1429.5,757.9,593.9,1625.6,1084.2,3478.3,3472.2,980.7,1071.2,451.4,3501.4,1274.7,1059.9,3478.3,3483.2,436.4,692.9,502.0,592.3,311.3,308.2,3481.9,3485.6,742.2,684.0,884.8,1438.7,2002.5,516.3,5.0,-6.0,5.0,9965.0,12358.0,3772.0,1477.0,121.0,83.0,17.0,-7.0,-56.0,-21.0,11319.0,11636.0,1975.0,1018.0,104.0,59.0,1.0,1.0
2022-05-08 14:13:23.376170-07:00,1057.3,1346.7,2170.7,1428.6,756.3,589.1,1650.2,1071.2,3467.4,3475.9,950.0,1077.3,456.1,3496.6,1216.8,1061.7,3481.9,3475.9,434.9,693.8,503.6,595.5,315.1,312.0,3483.2,3475.9,755.4,688.0,878.9,1432.3,1967.7,516.3,-8.0,-28.0,-52.0,9957.0,12324.0,3851.0,1603.0,-46.0,55.0,123.0,-2.0,-56.0,-14.0,11290.0,11655.0,2018.0,1023.0,41.0,25.0,-14.0,1.0
2022-05-08 14:13:23.377057-07:00,1057.3,1346.7,2170.7,1428.6,756.3,589.1,1650.2,1071.2,3467.4,3475.9,950.0,1077.3,456.1,3496.6,1216.8,1061.7,3481.9,3475.9,434.9,693.8,503.6,595.5,315.1,312.0,3483.2,3475.9,755.4,688.0,878.9,1432.3,1967.7,516.3,-8.0,-28.0,-52.0,9957.0,12324.0,3851.0,1603.0,-46.0,55.0,123.0,-2.0,-56.0,-14.0,11290.0,11655.0,2018.0,1023.0,41.0,25.0,-14.0,1.0
2022-05-08 14:13:23.378064-07:00,1053.0,1331.4,2146.3,1412.2,757.9,580.2,1633.1,1053.0,3479.5,3478.3,935.6,1072.1,457.7,3495.3,1171.8,1042.6,3484.4,3473.4,428.6,699.5,498.8,591.5,309.7,317.4,3480.7,3474.6,752.1,670.9,864.6,1416.7,1947.9,518.7,8.0,-6.0,-27.0,9971.0,12286.0,3914.0,1659.0,63.0,-12.0,47.0,6.0,-36.0,-5.0,11293.0,11651.0,2033.0,1009.0,70.0,43.0,0.0,1.0
2022-05-08 14:13:23.405971-07:00,1047.8,1319.6,2127.0,1398.5,757.9,580.2,1633.1,1053.0,3469.8,3475.9,924.5,1065.1,457.7,3495.3,1171.8,1042.6,3484.4,3473.4,428.6,699.5,502.0,593.1,310.5,308.2,3480.7,3474.6,752.1,670.9,869.6,1415.8,1915.4,516.3,-2.0,-4.0,-22.0,9965.0,12291.0,3911.0,1661.0,-13.0,-34.0,-24.0,2.0,-46.0,0.0,11283.0,11660.0,2037.0,1011.0,-5.0,0.0,-2.0,1.0
2022-05-08 14:13:23.615436-07:00,1047.8,1319.6,2127.0,1398.5,757.9,577.0,1631.3,1044.4,3469.8,3475.9,924.5,1065.1,455.3,3494.1,1162.1,1040.1,3478.3,3478.3,429.4,696.2,502.0,593.1,310.5,308.2,3488.0,3478.3,738.1,668.4,869.6,1415.8,1915.4,516.3,14.0,-25.0,1.0,9971.0,12288.0,3911.0,1653.0,-20.0,43.0,0.0,4.0,-51.0,2.0,11285.0,11658.0,2036.0,1009.0,-24.0,-20.0,-4.0,1.0
2022-05-08 14:13:23.617277-07:00,1051.3,1311.5,2112.8,1393.0,757.9,577.0,1631.3,1044.4,3471.0,3479.5,921.1,1066.0,455.3,3494.1,1162.1,1040.1,3478.3,3478.3,429.4,696.2,499.6,594.7,308.2,309.0,3488.0,3478.3,738.1,668.4,863.7,1414.9,1903.6,518.7,1.0,-2.0,3.0,9966.0,12289.0,3917.0,1658.0,16.0,17.0,-2.0,10.0,-46.0,15.0,11286.0,11658.0,2036.0,1008.0,20.0,13.0,-10.0,1.0
2022-05-08 14:13:23.618597-07:00,1051.3,1311.5,2112.8,1393.0,758.7,575.4,1619.9,1047.8,3471.0,3479.5,921.1,1066.0,450.6,3502.7,1154.2,1033.2,3483.2,3485.6,436.4,697.9,499.6,594.7,308.2,309.0,3477.1,3480.7,746.3,673.3,863.7,1414.9,1903.6,518.7,2.0,-4.0,-14.0,9951.0,12299.0,3920.0,1668.0,31.0,28.0,21.0,5.0,-38.0,3.0,11277.0,11664.0,2043.0,1012.0,30.0,11.0,-2.0,1.0
2022-05-08 14:13:23.619453-07:00,1041.8,1306.1,2105.8,1398.5,758.7,575.4,1619.9,1047.0,3483.2,3472.2,916.0,1062.5,450.6,3502.7,1154.2,1031.4,3472.2,3485.6,436.4,697.9,502.0,586.7,307.4,309.0,3486.8,3480.7,746.3,673.3,863.7,1392.1,1896.7,512.3,-5.0,-11.0,-14.0,9944.0,12306.0,3913.0,1678.0,-24.0,-19.0,55.0,3.0,-41.0,3.0,11273.0,11668.0,2045.0,1014.0,-1.0,1.0,3.0,1.0
2022-05-08 14:13:23.735471-07:00,1047.0,1306.1,2105.8,1398.5,756.3,582.6,1619.9,1047.0,3478.3,3472.2,916.0,1062.5,445.1,3500.2,1141.0,1031.4,3472.2,3483.2,433.3,694.6,502.0,586.7,307.4,309.0,3486.8,3478.3,738.9,672.5,863.7,1392.1,1896.7,511.5,6.0,-2.0,0.0,9951.0,12306.0,3890.0,1685.0,-39.0,13.0,10.0,7.0,-39.0,13.0,11275.0,11667.0,2043.0,1011.0,-20.0,-26.0,3.0,1.0
2022-05-08 14:13:23.736432-07:00,1047.0,1306.1,2105.8,1398.5,756.3,582.6,1619.9,1047.0,3478.3,3472.2,916.0,1062.5,445.1,3500.2,1141.0,1031.4,3472.2,3483.2,433.3,694.6,502.0,586.7,307.4,309.0,3486.8,3478.3,738.9,672.5,863.7,1392.1,1896.7,511.5,6.0,-2.0,0.0,9951.0,12306.0,3890.0,1685.0,-39.0,13.0,10.0,7.0,-39.0,13.0,11275.0,11667.0,2043.0,1011.0,-20.0,-26.0,3.0,1.0
2022-05-08 14:13:23.737432-07:00,1042.6,1307.9,2082.6,1385.7,758.7,578.6,1619.0,1034.9,3472.2,3488.0,911.8,1066.9,452.2,3502.7,1138.4,1032.3,3485.6,3484.4,430.9,694.6,501.2,588.3,309.0,307.4,3480.7,3478.3,728.2,674.2,857.9,1404.9,1889.9,515.5,3.0,-6.0,-16.0,9948.0,12301.0,3904.0,1706.0,21.0,22.0,-6.0,0.0,-44.0,0.0,11273.0,11668.0,2046.0,1015.0,22.0,21.0,-2.0,1.0
2022-05-08 14:13:23.738319-07:00,1042.6,1300.7,2078.5,1381.2,758.7,578.6,1619.0,1039.2,3472.2,3481.9,904.2,1061.7,452.2,3502.7,1138.4,1024.5,3483.2,3484.4,430.9,694.6,503.6,588.3,302.0,307.4,3483.2,3478.3,728.2,674.2,859.5,1401.2,1882.0,515.5,6.0,-10.0,-11.0,9942.0,12303.0,3910.0,1714.0,10.0,20.0,8.0,10.0,-47.0,-1.0,11272.0,11668.0,2048.0,1016.0,6.0,1.0,-5.0,1.0
2022-05-08 14:13:23.915421-07:00,1041.8,1300.7,2078.5,1381.2,752.1,583.5,1607.7,1039.2,3478.3,3481.9,904.2,1061.7,450.6,3496.6,1136.6,1024.5,3483.2,3478.3,430.9,692.9,503.6,588.3,302.0,306.7,3483.2,3492.9,731.5,668.4,859.5,1401.2,1882.0,510.7,3.0,-18.0,-8.0,9938.0,12306.0,3911.0,1715.0,18.0,-13.0,1.0,4.0,-48.0,6.0,11272.0,11668.0,2048.0,1016.0,6.0,-2.0,4.0,1.0
2022-05-08 14:13:23.917832-07:00,1041.8,1297.2,2071.5,1383.0,752.1,583.5,1614.3,1038.3,3478.3,3467.4,900.8,1066.9,450.6,3496.6,1143.6,1025.4,3485.6,3474.6,430.9,692.9,503.6,588.3,309.0,306.7,3472.2,3488.0,731.5,668.4,864.6,1390.3,1864.5,510.7,0.0,-11.0,1.0,9939.0,12305.0,3912.0,1716.0,-12.0,13.0,3.0,-1.0,-47.0,10.0,11273.0,11667.0,2046.0,1014.0,-12.0,-7.0,9.0,1.0
2022-05-08 14:13:23.945372-07:00,1037.5,1290.0,2071.5,1383.0,754.6,579.4,1614.3,1038.3,3475.9,3479.5,900.8,1066.9,457.7,3490.5,1143.6,1025.4,3485.6,3474.6,430.2,693.8,503.6,588.3,305.9,305.1,3472.2,3488.0,729.9,670.1,864.6,1390.3,1869.3,514.7,10.0,-6.0,-5.0,9939.0,12302.0,3918.0,1720.0,-31.0,24.0,-22.0,2.0,-40.0,-3.0,11273.0,11667.0,2046.0,1014.0,-11.0,4.0,-8.0,1.0
2022-05-08 14:13:23.946949-07:00,1037.5,1290.0,2073.5,1388.5,754.6,579.4,1612.4,1032.3,3475.9,3479.5,903.4,1061.7,457.7,3490.5,1124.4,1024.5,3481.9,3477.1,430.2,693.8,502.8,588.3,305.9,305.1,3479.5,3480.7,729.9,670.1,847.8,1395.7,1869.3,514.7,8.0,-10.0,0.0,9939.0,12293.0,3942.0,1733.0,-6.0,69.0,-32.0,7.0,-42.0,0.0,11276.0,11665.0,2050.0,1011.0,-1.0,7.0,-12.0,1.0
2022-05-08 14:13:23.975470-07:00,1042.6,1293.6,2073.5,1388.5,752.1,581.8,1612.4,1032.3,3483.2,3477.1,903.4,1061.7,452.2,3496.6,1124.4,1024.5,3481.9,3477.1,431.7,692.1,502.8,588.3,305.1,304.3,3479.5,3480.7,732.3,666.0,847.8,1395.7,1867.4,509.1,-6.0,-1.0,-18.0,9929.0,12291.0,3962.0,1750.0,25.0,29.0,2.0,3.0,-37.0,11.0,11273.0,11667.0,2055.0,1012.0,25.0,21.0,0.0,1.0
2022-05-08 14:13:24.036164-07:00,1042.6,1293.6,2066.5,1374.8,752.1,581.8,1604.0,1028.0,3483.2,3477.1,902.5,1055.6,452.2,3496.6,1120.0,1015.1,3477.1,3477.1,431.7,692.1,502.8,589.9,305.1,304.3,3488.0,3472.2,732.3,666.0,857.9,1392.1,1867.4,509.1,4.0,-15.0,-11.0,9922.0,12293.0,3975.0,1750.0,-5.0,20.0,-35.0,7.0,-43.0,-4.0,11270.0,11669.0,2057.0,1014.0,-7.0,-8.0,-6.0,1.0
2022-05-08 14:13:24.095623-07:00,1036.6,1293.6,2066.5,1374.8,758.7,580.2,1604.0,1028.0,3483.2,3468.6,902.5,1055.6,446.7,3488.0,1120.0,1015.1,3477.1,3477.1,434.1,694.6,502.8,589.9,305.9,305.9,3488.0,3472.2,733.2,657.9,857.9,1392.1,1857.6,509.9,3.0,-9.0,-5.0,9910.0,12303.0,3980.0,1743.0,54.0,-17.0,14.0,6.0,-43.0,5.0,11264.0,11675.0,2057.0,1013.0,32.0,3.0,4.0,1.0
2022-05-08 14:13:24.155534-07:00,1036.6,1293.6,2066.5,1367.6,758.7,578.6,1601.1,1026.3,3483.2,3468.6,898.3,1059.1,446.7,3505.1,1116.5,1015.1,3475.9,3467.4,434.1,694.6,502.0,588.3,305.9,305.9,3467.4,3481.9,729.9,657.9,852.0,1383.9,1857.6,509.9,6.0,-6.0,-9.0,9901.0,12314.0,3969.0,1740.0,18.0,-11.0,25.0,6.0,-49.0,0.0,11256.0,11682.0,2056.0,1014.0,13.0,5.0,15.0,1.0
2022-05-08 14:13:24.185410-07:00,1041.8,1290.9,2049.4,1367.6,752.1,578.6,1601.1,1026.3,3479.5,3477.1,890.7,1059.1,452.2,3505.1,1116.5,1015.1,3475.9,3467.4,434.1,699.5,502.0,590.7,303.6,301.3,3467.4,3481.9,729.9,661.9,852.0,1385.7,1855.7,511.5,2.0,-7.0,-2.0,9894.0,12319.0,3966.0,1749.0,9.0,31.0,25.0,7.0,-44.0,3.0,11252.0,11687.0,2055.0,1015.0,10.0,3.0,6.0,1.0
2022-05-08 14:13:24.305330-07:00,1041.8,1290.9,2049.4,1398.5,752.1,575.4,1602.1,1028.8,3479.5,3477.1,890.7,1056.5,452.2,3499.0,1119.1,1020.2,3480.7,3483.2,428.6,699.5,503.6,590.7,303.6,301.3,3477.1,3479.5,725.8,661.9,845.3,1385.7,1855.7,511.5,6.0,-8.0,-18.0,9884.0,12328.0,3961.0,1752.0,20.0,-23.0,14.0,4.0,-46.0,0.0,11248.0,11690.0,2054.0,1017.0,8.0,5.0,11.0,1.0
2022-05-08 14:13:24.366209-07:00,1034.9,1281.9,2054.4,1398.5,752.1,575.4,1602.1,1028.8,3477.1,3478.3,895.7,1056.5,453.7,3499.0,1119.1,1020.2,3480.7,3483.2,428.6,693.8,503.6,591.5,306.7,300.5,3477.1,3479.5,725.8,659.5,845.3,1392.1,1851.8,513.9,3.0,-7.0,-2.0,9884.0,12333.0,3950.0,1748.0,-26.0,-8.0,12.0,9.0,-44.0,-4.0,11248.0,11691.0,2051.0,1020.0,-14.0,-9.0,10.0,1.0
2022-05-08 14:13:24.485306-07:00,1034.9,1281.9,2054.4,1368.5,752.1,581.0,1599.3,1026.3,3477.1,3478.3,895.7,1059.1,453.7,3507.5,1108.6,1015.1,3480.7,3479.5,431.7,693.8,502.0,591.5,306.7,300.5,3477.1,3488.0,731.5,659.5,858.7,1392.1,1851.8,513.9,0.0,-2.0,4.0,9886.0,12331.0,3948.0,1750.0,-5.0,3.0,12.0,6.0,-40.0,11.0,11251.0,11688.0,2048.0,1021.0,2.0,5.0,6.0,1.0
2022-05-08 14:13:24.516093-07:00,1037.5,1286.4,2039.4,1368.5,751.3,581.0,1599.3,1026.3,3479.5,3474.6,896.6,1059.1,449.8,3507.5,1108.6,1015.1,3480.7,3479.5,431.7,695.4,502.0,589.1,305.9,306.7,3477.1,3488.0,731.5,660.3,858.7,1374.8,1848.9,509.9,10.0,-9.0,-2.0,9887.0,12329.0,3951.0,1757.0,-3.0,32.0,7.0,8.0,-48.0,4.0,11251.0,11688.0,2048.0,1021.0,2.0,5.0,7.0,1.0
2022-05-08 14:13:24.695626-07:00,1037.5,1286.4,2039.4,1375.7,748.8,579.4,1595.5,1022.8,3479.5,3474.6,896.6,1050.4,452.2,3497.8,1107.8,1016.8,3478.3,3477.1,429.4,693.8,507.5,589.1,305.9,306.7,3483.2,3477.1,726.6,655.4,849.5,1374.8,1848.9,509.9,1.0,0.0,-5.0,9880.0,12332.0,3955.0,1760.0,19.0,5.0,-3.0,8.0,-42.0,3.0,11249.0,11690.0,2048.0,1020.0,15.0,8.0,3.0,1.0
2022-05-08 14:13:24.725504-07:00,1037.5,1290.9,2038.4,1368.5,748.8,579.4,1595.5,1022.8,3483.2,3467.4,894.9,1055.6,452.2,3497.8,1107.8,1016.8,3478.3,3477.1,429.4,693.8,501.2,588.3,302.0,305.1,3483.2,3477.1,726.6,655.4,853.7,1384.8,1848.9,509.1,0.0,-11.0,-15.0,9878.0,12332.0,3960.0,1766.0,-5.0,14.0,9.0,5.0,-44.0,0.0,11248.0,11691.0,2049.0,1021.0,2.0,1.0,5.0,1.0
2022-05-08 14:13:24.726876-07:00,1037.5,1290.9,2038.4,1368.5,750.5,578.6,1599.3,1027.1,3483.2,3467.4,894.9,1055.6,449.8,3495.3,1111.2,1016.8,3477.1,3481.9,423.1,693.8,501.2,588.3,302.0,305.1,3473.4,3481.9,725.8,652.2,853.7,1384.8,1848.9,509.1,5.0,-13.0,-11.0,9877.0,12333.0,3959.0,1766.0,-3.0,-11.0,10.0,11.0,-47.0,0.0,11248.0,11691.0,2049.0,1021.0,-3.0,-5.0,9.0,1.0
2022-05-08 14:13:24.727864-07:00,1038.3,1281.9,2022.4,1366.6,750.5,578.6,1599.3,1027.1,3467.4,3478.3,888.2,1058.2,449.8,3495.3,1111.2,1016.8,3477.1,3481.9,423.1,693.8,498.8,593.9,302.8,297.4,3473.4,3481.9,725.8,652.2,855.3,1376.6,1836.2,513.1,3.0,-9.0,-2.0,9874.0,12335.0,3956.0,1768.0,-11.0,-3.0,16.0,6.0,-42.0,0.0,11248.0,11691.0,2046.0,1024.0,-2.0,2.0,12.0,1.0
2022-05-08 14:13:24.728879-07:00,1038.3,1281.9,2022.4,1366.6,748.8,575.4,1597.4,1023.7,3467.4,3478.3,888.2,1058.2,448.2,3494.1,1101.7,1010.8,3477.1,3478.3,431.7,692.1,498.8,593.9,302.8,297.4,3483.2,3478.3,724.1,661.1,855.3,1376.6,1836.2,513.1,0.0,-13.0,-7.0,9874.0,12338.0,3947.0,1771.0,10.0,-23.0,22.0,7.0,-46.0,3.0,11248.0,11692.0,2044.0,1026.0,6.0,2.0,12.0,1.0
2022-05-08 14:13:24.731037-07:00,1033.2,1270.3,2012.4,1359.4,748.8,575.4,1597.4,1023.7,3473.4,3475.9,889.0,1054.8,448.2,3494.1,1101.7,1010.8,3477.1,3478.3,431.7,692.1,503.6,585.1,300.5,302.8,3483.2,3478.3,724.1,661.1,847.8,1384.8,1833.3,510.7,-1.0,-15.0,0.0,9868.0,12345.0,3940.0,1772.0,-9.0,6.0,20.0,9.0,-50.0,7.0,11248.0,11692.0,2043.0,1026.0,-1.0,6.0,4.0,1.0
2022-05-08 14:13:24.846235-07:00,1029.7,1272.1,2027.4,1361.2,752.9,577.0,1596.4,1018.5,3469.8,3478.3,889.8,1059.1,453.0,3497.8,1102.5,1009.9,3486.8,3479.5,435.7,693.8,502.8,588.3,295.9,300.5,3478.3,3483.2,724.9,648.9,847.0,1382.1,1833.3,506.7,0.0,0.0,-7.0,9867.0,12347.0,3935.0,1774.0,1.0,-14.0,-6.0,5.0,-39.0,-4.0,11247.0,11692.0,2044.0,1027.0,3.0,1.0,-9.0,1.0
2022-05-08 14:13:24.847773-07:00,1033.2,1272.1,2027.4,1361.2,750.5,575.4,1593.6,1018.5,3469.8,3478.3,889.8,1059.1,449.0,3497.8,1104.3,1009.9,3486.8,3480.7,431.7,697.9,502.8,588.3,295.9,305.9,3478.3,3484.4,725.8,647.3,847.0,1382.1,1833.3,511.5,8.0,-6.0,-5.0,9870.0,12344.0,3937.0,1772.0,-22.0,11.0,-7.0,8.0,-47.0,10.0,11250.0,11689.0,2046.0,1025.0,-13.0,-6.0,-12.0,1.0
2022-05-08 14:13:24.905452-07:00,1033.2,1277.4,2017.4,1360.3,750.5,575.4,1593.6,1018.5,3469.8,3467.4,886.5,1048.7,449.0,3497.8,1104.3,1015.9,3481.9,3480.7,431.7,697.9,498.8,585.9,302.0,305.9,3479.5,3484.4,725.8,647.3,848.6,1379.4,1829.4,511.5,0.0,-9.0,-8.0,9870.0,12344.0,3936.0,1776.0,-1.0,6.0,13.0,3.0,-45.0,4.0,11251.0,11689.0,2047.0,1024.0,3.0,-2.0,-3.0,1.0
2022-05-08 14:13:24.935388-07:00,1034.9,1277.4,2017.4,1360.3,746.3,577.8,1594.6,1018.5,3474.6,3467.4,886.5,1048.7,453.0,3494.1,1100.8,1015.9,3481.9,3475.9,429.4,692.1,498.8,585.9,302.0,303.6,3479.5,3479.5,718.4,649.7,848.6,1379.4,1829.4,518.7,3.0,-4.0,-8.0,9868.0,12346.0,3936.0,1775.0,9.0,-6.0,-19.0,8.0,-47.0,5.0,11251.0,11689.0,2047.0,1024.0,-1.0,-2.0,-9.0,1.0
2022-05-08 14:13:24.965537-07:00,1034.9,1278.3,2010.4,1359.4,746.3,577.8,1594.6,1021.9,3474.6,3473.4,888.2,1056.5,453.0,3494.1,1100.8,1007.3,3477.1,3475.9,429.4,692.1,498.8,588.3,309.0,303.6,3477.1,3479.5,718.4,649.7,847.8,1374.8,1834.3,518.7,11.0,-7.0,0.0,9863.0,12350.0,3938.0,1766.0,-2.0,-1.0,-19.0,11.0,-45.0,0.0,11249.0,11689.0,2051.0,1020.0,-9.0,2.0,-16.0,1.0
2022-05-08 14:13:25.057084-07:00,1034.0,1273.0,2010.4,1359.4,754.6,576.2,1597.4,1021.9,3472.2,3478.3,888.2,1056.5,452.2,3507.5,1092.9,1007.3,3477.1,3475.9,436.4,698.7,498.8,588.3,302.0,300.5,3477.1,3475.9,725.8,659.5,847.8,1374.8,1827.5,509.9,0.0,-6.0,-5.0,9865.0,12347.0,3943.0,1763.0,21.0,-2.0,-13.0,8.0,-46.0,7.0,11252.0,11687.0,2056.0,1016.0,9.0,4.0,-12.0,1.0
2022-05-08 14:13:25.085448-07:00,1034.0,1273.0,2015.4,1360.3,754.6,576.2,1591.7,1020.2,3472.2,3478.3,883.1,1053.9,452.2,3507.5,1097.3,1005.6,3484.4,3475.9,436.4,698.7,503.6,587.5,302.0,300.5,3488.0,3481.9,725.8,659.5,848.6,1379.4,1827.5,509.9,7.0,-16.0,-5.0,9862.0,12351.0,3943.0,1758.0,6.0,-8.0,-5.0,9.0,-47.0,-2.0,11251.0,11687.0,2058.0,1014.0,-1.0,2.0,-8.0,1.0
2022-05-08 14:13:25.115453-07:00,1029.7,1268.5,2015.4,1360.3,749.6,576.2,1591.7,1020.2,3467.4,3480.7,883.1,1053.9,454.5,3495.3,1097.3,1005.6,3484.4,3475.9,433.3,688.0,503.6,587.5,302.8,302.8,3488.0,3481.9,725.8,648.1,848.6,1379.4,1820.7,511.5,-6.0,-14.0,-5.0,9862.0,12351.0,3944.0,1757.0,8.0,-6.0,-7.0,1.0,-45.0,9.0,11251.0,11687.0,2060.0,1012.0,-2.0,-2.0,-11.0,1.0
2022-05-08 14:13:25.295445-07:00,1029.7,1268.5,2006.4,1354.0,749.6,576.2,1597.4,1022.8,3467.4,3480.7,887.3,1053.9,454.5,3495.3,1100.8,1006.5,3475.9,3483.2,433.3,688.0,502.0,587.5,302.8,302.8,3483.2,3478.3,725.8,648.1,845.3,1374.8,1820.7,511.5,9.0,-1.0,-19.0,9859.0,12353.0,3944.0,1756.0,10.0,-16.0,-14.0,6.0,-48.0,-3.0,11252.0,11686.0,2063.0,1009.0,-1.0,1.0,-12.0,1.0
2022-05-08 14:13:25.416441-07:00,1034.9,1273.9,2006.4,1354.0,747.2,571.4,1597.4,1022.8,3478.3,3472.2,887.3,1053.9,452.2,3492.9,1100.8,1006.5,3475.9,3483.2,433.3,688.9,502.0,587.5,302.0,304.3,3483.2,3478.3,727.4,643.2,845.3,1374.8,1819.7,513.1,6.0,-16.0,-2.0,9861.0,12352.0,3949.0,1744.0,-19.0,1.0,-18.0,11.0,-45.0,5.0,11253.0,11685.0,2067.0,1005.0,-12.0,4.0,-12.0,1.0
2022-05-08 14:13:25.417618-07:00,1034.9,1273.9,2006.4,1358.5,747.2,571.4,1588.9,1015.9,3478.3,3472.2,887.3,1051.3,452.2,3492.9,1095.6,1006.5,3484.4,3474.6,433.3,688.9,498.0,589.1,302.0,304.3,3473.4,3484.4,727.4,643.2,847.8,1372.1,1819.7,513.1,2.0,-4.0,-10.0,9865.0,12349.0,3948.0,1743.0,4.0,-16.0,3.0,9.0,-41.0,2.0,11253.0,11685.0,2067.0,1005.0,3.0,5.0,-4.0,1.0
2022-05-08 14:13:25.419098-07:00,1025.4,1267.6,2002.5,1358.5,758.7,574.6,1588.9,1015.9,3475.9,3468.6,884.8,1051.3,453.7,3502.7,1095.6,1006.5,3484.4,3474.6,433.3,698.7,498.0,589.1,300.5,301.3,3473.4,3484.4,721.6,644.0,847.8,1376.6,1814.9,505.9,1.0,-4.0,-8.0,9870.0,12346.0,3945.0,1744.0,-8.0,7.0,5.0,5.0,-46.0,1.0,11254.0,11683.0,2067.0,1005.0,-4.0,0.0,-6.0,1.0
2022-05-08 14:13:25.420711-07:00,1025.4,1267.6,2002.5,1348.5,758.7,576.2,1586.1,1021.1,3475.9,3468.6,884.8,1057.3,453.7,3500.2,1098.2,1008.2,3479.5,3475.9,429.4,698.7,501.2,589.1,300.5,301.3,3478.3,3479.5,721.6,644.0,844.4,1376.6,1814.9,505.9,7.0,-14.0,0.0,9870.0,12345.0,3948.0,1741.0,3.0,8.0,-19.0,10.0,-47.0,2.0,11254.0,11683.0,2069.0,1003.0,-3.0,2.0,-10.0,1.0
2022-05-08 14:13:25.475987-07:00,1028.0,1264.0,1996.5,1348.5,746.3,576.2,1586.1,1021.1,3473.4,3469.8,885.6,1057.3,453.0,3500.2,1098.2,1008.2,3479.5,3475.9,429.4,692.1,501.2,585.1,305.9,301.3,3478.3,3479.5,721.6,638.4,844.4,1377.5,1825.5,509.1,0.0,-10.0,-4.0,9871.0,12343.0,3952.0,1742.0,-14.0,22.0,-4.0,7.0,-44.0,4.0,11254.0,11683.0,2069.0,1003.0,-3.0,7.0,-5.0,1.0
2022-05-08 14:13:25.477188-07:00,1028.0,1264.0,1996.5,1355.8,746.3,572.2,1582.4,1017.6,3473.4,3469.8,885.6,1053.0,453.0,3496.6,1088.6,1001.3,3467.4,3472.2,432.5,692.1,503.6,585.1,305.9,301.3,3483.2,3479.5,725.8,638.4,846.1,1377.5,1825.5,509.1,0.0,-1.0,-12.0,9870.0,12343.0,3952.0,1749.0,4.0,2.0,12.0,3.0,-43.0,1.0,11253.0,11684.0,2069.0,1003.0,8.0,3.0,0.0,1.0
2022-05-08 14:13:25.595278-07:00,1029.7,1274.7,1999.5,1355.8,747.2,572.2,1582.4,1017.6,3472.2,3469.8,884.8,1053.0,448.2,3496.6,1088.6,1001.3,3467.4,3472.2,432.5,691.3,503.6,586.7,303.6,298.2,3483.2,3479.5,725.8,639.2,846.1,1368.5,1815.8,509.1,11.0,-6.0,-8.0,9870.0,12342.0,3953.0,1748.0,-8.0,-9.0,-18.0,12.0,-45.0,1.0,11253.0,11684.0,2070.0,1002.0,-6.0,2.0,-10.0,1.0
2022-05-08 14:13:25.596778-07:00,1029.7,1274.7,1999.5,1352.1,747.2,572.2,1587.1,1017.6,3472.2,3469.8,884.8,1051.3,448.2,3500.2,1083.4,1000.5,3483.2,3477.1,435.7,691.3,504.4,586.7,303.6,298.2,3481.9,3477.1,725.8,639.2,845.3,1368.5,1815.8,509.1,0.0,-15.0,0.0,9873.0,12338.0,3961.0,1748.0,1.0,13.0,1.0,4.0,-49.0,8.0,11254.0,11683.0,2072.0,1000.0,-2.0,7.0,-5.0,1.0
2022-05-08 14:13:25.625452-07:00,1030.6,1266.7,1996.5,1354.0,748.0,572.2,1587.1,1017.6,3478.3,3475.9,879.7,1053.0,456.9,3500.2,1083.4,1000.5,3483.2,3477.1,435.7,694.6,500.4,585.1,300.5,312.0,3481.9,3477.1,725.8,645.7,846.1,1368.5,1813.9,505.1,6.0,-9.0,-6.0,9871.0,12337.0,3965.0,1753.0,-4.0,12.0,1.0,6.0,-46.0,-1.0,11254.0,11683.0,2073.0,1001.0,8.0,8.0,-2.0,1.0
2022-05-08 14:13:25.806362-07:00,1030.6,1266.7,1996.5,1354.0,745.5,569.0,1575.8,1015.9,3478.3,3475.9,879.7,1053.0,455.3,3503.9,1086.8,1005.6,3483.2,3485.6,429.4,692.1,500.4,585.1,300.5,312.0,3480.7,3480.7,722.5,636.7,846.1,1368.5,1813.9,505.1,3.0,-6.0,-7.0,9871.0,12337.0,3967.0,1754.0,3.0,0.0,-10.0,7.0,-43.0,2.0,11254.0,11683.0,2073.0,1001.0,-1.0,3.0,-9.0,1.0
2022-05-08 14:13:25.807482-07:00,1031.4,1257.8,1989.5,1348.5,745.5,569.0,1575.8,1015.9,3483.2,3475.9,878.0,1058.2,455.3,3503.9,1086.8,1005.6,3483.2,3485.6,429.4,692.1,502.0,583.5,301.3,301.3,3480.7,3480.7,722.5,636.7,844.4,1363.9,1811.0,509.9,4.0,-14.0,-5.0,9871.0,12336.0,3968.0,1754.0,-3.0,3.0,-5.0,7.0,-45.0,2.0,11254.0,11683.0,2073.0,1001.0,-2.0,-1.0,-2.0,1.0
2022-05-08 14:13:25.808411-07:00,1031.4,1257.8,1989.5,1348.5,747.2,574.6,1581.4,1013.3,3483.2,3475.9,878.0,1058.2,449.8,3495.3,1089.5,1005.6,3483.2,3478.3,430.2,692.1,502.0,583.5,301.3,301.3,3490.5,3488.0,724.1,640.8,844.4,1363.9,1811.0,509.9,1.0,-4.0,-5.0,9870.0,12336.0,3969.0,1756.0,-4.0,9.0,-7.0,7.0,-45.0,3.0,11254.0,11683.0,2073.0,1001.0,2.0,8.0,-4.0,1.0
2022-05-08 14:13:25.835484-07:00,1024.5,1262.2,1979.6,1349.4,747.2,574.6,1581.4,1013.3,3477.1,3478.3,880.6,1051.3,449.8,3495.3,1089.5,1005.6,3483.2,3478.3,430.2,692.1,502.8,585.1,299.7,298.2,3490.5,3488.0,724.1,640.8,841.9,1354.0,1802.3,508.3,9.0,-7.0,-13.0,9869.0,12337.0,3969.0,1756.0,11.0,-2.0,0.0,6.0,-43.0,-3.0,11254.0,11683.0,2073.0,1001.0,4.0,4.0,-7.0,1.0
2022-05-08 14:13:25.926145-07:00,1024.5,1262.2,1979.6,1349.4,744.7,573.0,1574.9,1017.6,3477.1,3478.3,880.6,1051.3,452.2,3497.8,1084.2,1002.2,3488.0,3474.6,430.9,693.8,502.8,585.1,299.7,298.2,3477.1,3478.3,721.6,640.8,841.9,1354.0,1802.3,508.3,5.0,-10.0,-4.0,9869.0,12337.0,3970.0,1753.0,-16.0,-5.0,-5.0,7.0,-45.0,6.0,11254.0,11683.0,2073.0,1001.0,-8.0,0.0,-2.0,1.0
2022-05-08 14:13:25.927150-07:00,1024.5,1270.3,1974.6,1349.4,744.7,573.0,1574.9,1016.8,3483.2,3475.9,876.4,1045.2,452.2,3497.8,1084.2,1000.5,3477.1,3474.6,430.9,693.8,505.9,585.9,304.3,295.9,3479.5,3478.3,721.6,640.8,840.3,1363.0,1800.3,510.7,4.0,-7.0,-4.0,9870.0,12336.0,3970.0,1755.0,3.0,8.0,13.0,4.0,-44.0,1.0,11254.0,11683.0,2073.0,1001.0,-6.0,4.0,-4.0,1.0
2022-05-08 14:13:26.015564-07:00,1028.0,1270.3,1974.6,1349.4,746.3,577.8,1587.1,1016.8,3480.7,3475.9,876.4,1045.2,449.0,3497.8,1086.8,1000.5,3477.1,3477.1,429.4,699.5,505.9,585.9,304.3,299.7,3479.5,3477.1,719.2,635.9,840.3,1363.0,1800.3,506.7,8.0,5.0,-16.0,9867.0,12338.0,3971.0,1759.0,29.0,1.0,-7.0,6.0,-42.0,0.0,11253.0,11684.0,2073.0,1001.0,7.0,4.0,-8.0,1.0
2022-05-08 14:13:26.017488-07:00,1028.0,1260.4,1986.6,1338.6,746.3,577.8,1587.1,1010.8,3480.7,3468.6,878.9,1053.9,449.0,3497.8,1086.8,1003.0,3475.9,3477.1,429.4,699.5,507.5,587.5,305.9,299.7,3475.9,3477.1,719.2,635.9,845.3,1365.7,1802.3,506.7,2.0,-10.0,-4.0,9867.0,12337.0,3975.0,1755.0,-3.0,5.0,-2.0,5.0,-44.0,0.0,11253.0,11683.0,2073.0,1000.0,0.0,2.0,-7.0,1.0
2022-05-08 14:13:26.136107-07:00,1033.2,1260.4,1986.6,1338.6,748.0,573.0,1581.4,1010.8,3478.3,3468.6,878.9,1053.9,448.2,3500.2,1084.2,1003.0,3475.9,3475.9,433.3,692.9,507.5,587.5,305.9,303.6,3475.9,3478.3,719.2,638.4,845.3,1365.7,1802.3,503.6,6.0,-12.0,-7.0,9866.0,12337.0,3977.0,1757.0,1.0,3.0,-4.0,6.0,-43.0,0.0,11253.0,11683.0,2073.0,1000.0,4.0,4.0,-3.0,1.0
2022-05-08 14:13:26.137106-07:00,1033.2,1263.1,1985.6,1341.3,748.0,573.0,1581.4,1010.8,3478.3,3475.9,882.3,1051.3,448.2,3500.2,1084.2,1001.3,3478.3,3475.9,433.3,692.9,499.6,589.1,305.9,303.6,3474.6,3478.3,719.2,638.4,841.1,1358.5,1798.4,503.6,6.0,-9.0,-8.0,9863.0,12339.0,3980.0,1754.0,13.0,0.0,-8.0,7.0,-48.0,2.0,11253.0,11683.0,2073.0,1000.0,5.0,5.0,-1.0,1.0
2022-05-08 14:13:26.165405-07:00,1030.6,1263.1,1985.6,1341.3,744.7,570.6,1582.4,1010.8,3480.7,3475.9,882.3,1051.3,449.0,3507.5,1083.4,1001.3,3478.3,3477.1,433.3,691.3,499.6,589.1,305.9,296.7,3474.6,3477.1,720.0,646.5,841.1,1358.5,1798.4,508.3,5.0,-11.0,-11.0,9865.0,12337.0,3976.0,1756.0,-17.0,-10.0,15.0,0.0,-48.0,-4.0,11255.0,11682.0,2073.0,1001.0,-12.0,-5.0,9.0,1.0
2022-05-08 14:13:26.255383-07:00,1030.6,1259.6,1987.5,1335.0,744.7,570.6,1582.4,1014.2,3480.7,3467.4,877.2,1052.2,449.0,3507.5,1076.4,999.6,3477.1,3481.9,433.3,691.3,503.6,585.1,302.8,296.7,3490.5,3477.1,720.0,646.5,837.7,1364.8,1794.5,508.3,4.0,-13.0,-3.0,9867.0,12336.0,3975.0,1756.0,-14.0,-8.0,-1.0,6.0,-51.0,0.0,11257.0,11681.0,2069.0,997.0,-13.0,-14.0,5.0,1.0
2022-05-08 14:13:26.345541-07:00,1027.1,1257.8,1987.5,1335.0,743.0,571.4,1582.4,1014.2,3467.4,3481.9,877.2,1052.2,450.6,3496.6,1076.4,999.6,3477.1,3481.9,430.2,691.3,503.6,585.1,301.3,305.9,3490.5,3477.1,724.1,636.7,837.7,1364.8,1800.3,509.1,6.0,-10.0,-5.0,9868.0,12336.0,3974.0,1757.0,-18.0,-2.0,11.0,7.0,-44.0,3.0,11257.0,11681.0,2068.0,996.0,-4.0,-1.0,9.0,1.0
2022-05-08 14:13:26.347095-07:00,1027.1,1257.8,1979.6,1346.7,743.0,571.4,1582.4,1007.3,3467.4,3481.9,877.2,1049.6,450.6,3496.6,1081.6,995.3,3484.4,3478.3,430.2,691.3,498.8,584.3,301.3,305.9,3479.5,3472.2,724.1,636.7,844.4,1359.4,1800.3,509.1,0.0,0.0,-5.0,9869.0,12336.0,3969.0,1763.0,3.0,9.0,14.0,3.0,-42.0,7.0,11256.0,11682.0,2064.0,1001.0,2.0,-4.0,14.0,1.0
2022-05-08 14:13:26.406388-07:00,1024.5,1258.7,1979.6,1346.7,748.0,569.0,1582.4,1007.3,3479.5,3478.3,877.2,1049.6,452.2,3495.3,1081.6,995.3,3484.4,3478.3,431.7,696.2,498.8,584.3,300.5,299.7,3479.5,3472.2,725.8,637.6,844.4,1359.4,1793.6,529.8,7.0,-4.0,-7.0,9869.0,12336.0,3968.0,1763.0,1.0,2.0,-4.0,9.0,-46.0,-3.0,11256.0,11682.0,2062.0,1002.0,1.0,1.0,0.0,1.0
2022-05-08 14:13:26.525402-07:00,1024.5,1258.7,1974.6,1340.4,748.0,569.0,1577.7,1009.0,3479.5,3478.3,875.5,1049.6,452.2,3495.3,1078.2,1002.2,3478.3,3475.9,431.7,696.2,500.4,583.5,300.5,299.7,3475.9,3484.4,725.8,637.6,841.9,1360.3,1793.6,529.8,8.0,-13.0,-9.0,9868.0,12335.0,3971.0,1768.0,-3.0,14.0,8.0,9.0,-43.0,7.0,11256.0,11682.0,2062.0,1002.0,-2.0,-2.0,6.0,1.0
2022-05-08 14:13:26.586084-07:00,1024.5,1252.4,1974.6,1340.4,743.9,574.6,1577.7,1009.0,3471.0,3471.0,875.5,1049.6,453.0,3507.5,1078.2,1002.2,3478.3,3475.9,428.6,696.2,500.4,583.5,299.0,299.7,3475.9,3484.4,715.1,635.1,841.9,1360.3,1792.6,502.8,4.0,-9.0,-7.0,9869.0,12335.0,3970.0,1766.0,1.0,-11.0,5.0,6.0,-48.0,1.0,11256.0,11682.0,2061.0,1003.0,-3.0,-3.0,11.0,1.0
2022-05-08 14:13:26.587188-07:00,1024.5,1252.4,1984.6,1346.7,743.9,575.4,1578.6,1015.9,3471.0,3471.0,875.5,1047.0,453.0,3500.2,1079.0,997.0,3481.9,3478.3,430.9,696.2,501.2,587.5,299.0,299.7,3479.5,3477.1,724.9,635.1,836.9,1361.2,1792.6,502.8,11.0,-2.0,-3.0,9867.0,12338.0,3969.0,1763.0,12.0,0.0,-6.0,8.0,-43.0,8.0,11256.0,11683.0,2059.0,1005.0,1.0,0.0,1.0,1.0
2022-05-08 14:13:26.705428-07:00,1027.1,1252.4,1970.7,1346.7,747.2,575.4,1578.6,1015.9,3471.0,3471.0,872.1,1047.0,450.6,3500.2,1079.0,997.0,3481.9,3478.3,430.9,692.1,501.2,587.5,301.3,296.7,3479.5,3477.1,724.9,633.5,836.9,1361.2,1795.5,502.0,7.0,-15.0,-7.0,9865.0,12338.0,3970.0,1764.0,19.0,-8.0,11.0,9.0,-46.0,-1.0,11255.0,11683.0,2059.0,1005.0,11.0,-2.0,8.0,1.0
2022-05-08 14:13:26.707123-07:00,1027.1,1252.4,1970.7,1338.6,747.2,569.8,1581.4,1010.8,3471.0,3471.0,872.1,1049.6,450.6,3503.9,1073.8,994.5,3475.9,3488.0,430.9,692.1,498.8,587.5,301.3,296.7,3477.1,3480.7,723.3,633.5,837.7,1361.2,1795.5,502.0,6.0,-13.0,-5.0,9864.0,12340.0,3969.0,1764.0,-2.0,-7.0,11.0,8.0,-48.0,4.0,11255.0,11684.0,2058.0,1006.0,3.0,6.0,12.0,1.0
2022-05-08 14:13:26.735422-07:00,1025.4,1251.5,1972.7,1338.6,746.3,569.8,1581.4,1010.8,3478.3,3478.3,872.1,1049.6,449.0,3503.9,1073.8,994.5,3475.9,3488.0,430.9,696.2,498.8,589.1,299.0,295.1,3477.1,3480.7,723.3,633.5,837.7,1362.1,1788.7,506.7,6.0,-5.0,-5.0,9864.0,12341.0,3967.0,1766.0,-5.0,-4.0,-3.0,13.0,-46.0,0.0,11255.0,11684.0,2057.0,1007.0,-5.0,-2.0,3.0,1.0
2022-05-08 14:13:26.736692-07:00,1025.4,1251.5,1972.7,1340.4,746.3,573.0,1577.7,1009.0,3478.3,3478.3,872.1,1045.2,449.0,3496.6,1075.6,997.0,3474.6,3472.2,431.7,696.2,505.1,589.1,299.0,295.1,3483.2,3475.9,715.1,633.5,837.7,1362.1,1788.7,506.7,10.0,-4.0,-9.0,9861.0,12343.0,3967.0,1765.0,24.0,-9.0,0.0,14.0,-46.0,-3.0,11254.0,11685.0,2057.0,1007.0,12.0,-4.0,1.0,1.0
2022-05-08 14:13:26.855443-07:00,1028.0,1244.4,1971.7,1340.4,745.5,573.0,1577.7,1009.0,3471.0,3478.3,875.5,1045.2,448.2,3496.6,1075.6,997.0,3474.6,3472.2,431.7,688.0,505.1,588.3,311.3,299.7,3483.2,3475.9,715.1,635.9,837.7,1357.6,1788.7,505.9,4.0,-12.0,-4.0,9859.0,12344.0,3967.0,1764.0,3.0,4.0,6.0,10.0,-47.0,5.0,11254.0,11685.0,2057.0,1007.0,4.0,1.0,2.0,1.0
2022-05-08 14:13:26.856760-07:00,1028.0,1244.4,1971.7,1339.5,741.4,574.6,1580.5,1012.5,3471.0,3478.3,875.5,1047.0,450.6,3494.1,1076.4,996.2,3479.5,3473.4,433.3,694.6,501.2,588.3,311.3,299.7,3480.7,3480.7,717.5,631.9,839.4,1357.6,1788.7,505.9,8.0,-7.0,-11.0,9859.0,12347.0,3963.0,1761.0,5.0,-19.0,3.0,8.0,-46.0,-5.0,11254.0,11685.0,2057.0,1007.0,1.0,-2.0,8.0,1.0
2022-05-08 14:13:26.858114-07:00,1023.7,1251.5,1962.8,1343.1,741.4,574.6,1580.5,1012.5,3473.4,3472.2,873.0,1046.1,450.6,3494.1,1076.4,996.2,3479.5,3473.4,433.3,694.6,502.8,584.3,299.7,295.1,3480.7,3480.7,717.5,631.9,837.7,1360.3,1786.8,505.9,8.0,-9.0,-6.0,9859.0,12349.0,3959.0,1755.0,-6.0,-10.0,-6.0,9.0,-41.0,2.0,11254.0,11685.0,2057.0,1007.0,-6.0,0.0,2.0,1.0
2022-05-08 14:13:26.915570-07:00,1023.7,1251.5,1962.8,1343.1,741.4,575.4,1582.4,1009.0,3473.4,3472.2,873.0,1046.1,455.3,3495.3,1076.4,992.7,3472.2,3483.2,426.2,695.4,502.8,584.3,299.7,295.1,3481.9,3481.9,719.2,637.6,837.7,1360.3,1786.8,505.9,5.0,-5.0,-2.0,9858.0,12349.0,3957.0,1759.0,-8.0,2.0,17.0,6.0,-43.0,7.0,11254.0,11685.0,2057.0,1007.0,-2.0,-1.0,4.0,1.0
2022-05-08 14:13:27.035376-07:00,1022.8,1247.1,1963.7,1340.4,741.4,575.4,1582.4,1009.0,3474.6,3478.3,872.1,1044.4,455.3,3495.3,1076.4,992.7,3472.2,3483.2,426.2,695.4,498.8,583.5,303.6,299.7,3481.9,3481.9,719.2,637.6,832.7,1336.8,1795.5,504.4,6.0,-9.0,-5.0,9858.0,12349.0,3957.0,1761.0,5.0,10.0,-5.0,7.0,-46.0,4.0,11254.0,11685.0,2057.0,1007.0,6.0,4.0,0.0,1.0
2022-05-08 14:13:27.037101-07:00,1022.8,1247.1,1963.7,1340.4,743.9,573.0,1577.7,1008.2,3474.6,3478.3,872.1,1044.4,449.8,3500.2,1072.9,999.6,3477.1,3477.1,429.4,692.9,498.8,583.5,303.6,299.7,3475.9,3484.4,715.9,632.7,832.7,1336.8,1795.5,504.4,6.0,-10.0,-11.0,9853.0,12353.0,3958.0,1759.0,14.0,-8.0,2.0,11.0,-44.0,-4.0,11253.0,11686.0,2057.0,1007.0,10.0,1.0,3.0,1.0
2022-05-08 14:13:27.066060-07:00,1016.8,1250.6,1958.8,1336.8,743.9,573.0,1577.7,1008.2,3479.5,3471.0,867.9,1047.8,449.8,3500.2,1072.9,999.6,3477.1,3477.1,429.4,692.9,505.9,589.1,301.3,295.1,3475.9,3484.4,715.9,632.7,838.6,1363.0,1784.9,498.8,6.0,-5.0,-5.0,9856.0,12351.0,3955.0,1762.0,-17.0,2.0,11.0,7.0,-46.0,-3.0,11255.0,11684.0,2057.0,1007.0,-5.0,-7.0,3.0,1.0
2022-05-08 14:13:27.125464-07:00,1028.8,1250.6,1958.8,1336.8,745.5,569.8,1574.9,1008.2,3475.9,3471.0,867.9,1047.8,445.1,3500.2,1074.7,996.2,3477.1,3474.6,427.8,694.6,505.9,589.1,301.3,302.8,3486.8,3483.2,734.8,633.5,838.6,1363.0,1784.9,506.7,8.0,-11.0,-6.0,9857.0,12350.0,3956.0,1763.0,6.0,0.0,-11.0,11.0,-41.0,0.0,11255.0,11684.0,2057.0,1007.0,6.0,-2.0,-7.0,1.0
2022-05-08 14:13:27.155473-07:00,1028.8,1250.6,1961.8,1340.4,745.5,569.8,1574.9,1008.2,3475.9,3467.4,871.3,1046.1,445.1,3500.2,1074.7,995.3,3475.9,3474.6,427.8,694.6,502.0,589.1,302.8,302.8,3480.7,3483.2,734.8,633.5,837.7,1354.9,1785.8,506.7,7.0,-1.0,-11.0,9857.0,12348.0,3959.0,1766.0,11.0,-2.0,-5.0,16.0,-37.0,-6.0,11254.0,11685.0,2057.0,1007.0,10.0,5.0,-6.0,1.0
2022-05-08 14:13:27.245397-07:00,1021.1,1250.6,1961.8,1340.4,743.9,568.2,1572.1,1008.2,3473.4,3467.4,871.3,1046.1,445.1,3497.8,1067.7,995.3,3475.9,3467.4,429.4,691.3,502.0,589.1,302.8,301.3,3480.7,3481.9,716.7,633.5,837.7,1354.9,1785.8,505.9,10.0,0.0,0.0,9855.0,12350.0,3960.0,1766.0,14.0,-21.0,-4.0,11.0,-42.0,6.0,11254.0,11685.0,2057.0,1007.0,1.0,-4.0,-3.0,1.0
2022-05-08 14:13:27.275532-07:00,1021.1,1250.6,1968.7,1333.2,743.9,568.2,1572.1,1003.9,3473.4,3480.7,882.3,1048.7,445.1,3497.8,1067.7,996.2,3483.2,3467.4,429.4,691.3,505.1,581.8,298.2,301.3,3484.4,3481.9,716.7,633.5,840.3,1359.4,1779.1,505.9,-5.0,14.0,-34.0,9850.0,12357.0,3953.0,1754.0,43.0,-55.0,-24.0,19.0,-34.0,7.0,11250.0,11689.0,2058.0,1007.0,32.0,19.0,-9.0,1.0
2022-05-08 14:13:27.335448-07:00,1021.1,1250.6,1968.7,1333.2,740.6,573.0,1573.9,1003.9,3471.0,3480.7,882.3,1048.7,447.4,3505.1,1112.1,996.2,3483.2,3473.4,434.1,689.7,505.1,581.8,298.2,301.3,3484.4,3478.3,722.5,630.3,840.3,1359.4,1779.1,510.7,17.0,-22.0,-20.0,9850.0,12369.0,3934.0,1712.0,-101.0,-88.0,-11.0,9.0,-43.0,-8.0,11240.0,11697.0,2061.0,1005.0,-61.0,-35.0,-7.0,1.0
2022-05-08 14:13:27.365518-07:00,1021.1,1273.9,1961.8,1342.2,740.6,573.0,1573.9,1009.9,3471.0,3472.2,926.2,1048.7,447.4,3505.1,1112.1,1000.5,3469.8,3473.4,434.1,689.7,503.6,585.1,297.4,301.3,3480.7,3478.3,722.5,630.3,845.3,1358.5,1825.5,510.7,-10.0,-1.0,14.0,9880.0,12351.0,3912.0,1723.0,-29.0,38.0,38.0,2.0,-52.0,17.0,11255.0,11685.0,2054.0,1002.0,23.0,14.0,5.0,1.0
2022-05-08 14:13:27.426025-07:00,1021.9,1281.9,1961.8,1342.2,743.9,573.0,1573.0,1009.9,3474.6,3483.2,926.2,1048.7,445.9,3502.7,1203.5,1000.5,3469.8,3471.0,436.4,696.2,503.6,585.1,301.3,299.7,3480.7,3477.1,724.1,631.1,845.3,1358.5,1913.4,507.5,10.0,4.0,9.0,9883.0,12339.0,3936.0,1737.0,-82.0,99.0,-80.0,18.0,-29.0,9.0,11246.0,11692.0,2063.0,1001.0,-15.0,11.0,-42.0,1.0
2022-05-08 14:13:27.485540-07:00,1021.9,1281.9,1974.6,1357.6,743.9,573.0,1571.1,1013.3,3474.6,3483.2,971.3,1053.0,445.9,3502.7,1311.5,1018.5,3477.1,3478.3,436.4,696.2,498.0,590.7,301.3,299.7,3480.7,3483.2,724.1,631.1,852.0,1369.4,1913.4,507.5,-12.0,-36.0,-33.0,9895.0,12323.0,3945.0,1759.0,3.0,-49.0,123.0,12.0,-53.0,0.0,11246.0,11689.0,2078.0,1002.0,49.0,35.0,13.0,1.0
2022-05-08 14:13:27.515603-07:00,1017.6,1286.4,1974.6,1357.6,744.7,570.6,1571.1,1013.3,3467.4,3478.3,971.3,1053.0,448.2,3494.1,1311.5,1018.5,3477.1,3478.3,434.1,690.5,498.0,590.7,300.5,302.8,3480.7,3483.2,729.9,631.1,852.0,1369.4,1984.6,505.1,19.0,15.0,-60.0,9906.0,12339.0,3878.0,1737.0,-23.0,-219.0,-37.0,1.0,-37.0,-29.0,11236.0,11701.0,2069.0,1006.0,-34.0,-78.0,27.0,1.0
2022-05-08 14:13:27.695420-07:00,1017.6,1286.4,1967.7,1351.2,744.7,570.6,1574.9,1006.5,3467.4,3478.3,1025.4,1054.8,448.2,3494.1,1402.1,1023.7,3478.3,3474.6,434.1,690.5,497.2,586.7,300.5,302.8,3480.7,3477.1,729.9,631.1,847.0,1384.8,1984.6,505.1,0.0,-27.0,22.0,9949.0,12322.0,3851.0,1674.0,-66.0,-105.0,1.0,16.0,-50.0,25.0,11262.0,11682.0,2038.0,986.0,-56.0,-64.0,3.0,1.0
2022-05-08 14:13:27.815494-07:00,1015.1,1290.0,1967.7,1351.2,747.2,573.0,1574.9,1006.5,3474.6,3479.5,1025.4,1054.8,453.0,3492.9,1402.1,1023.7,3478.3,3474.6,436.4,696.2,497.2,586.7,301.3,297.4,3480.7,3477.1,739.7,619.7,847.0,1384.8,2111.8,507.5,12.0,3.0,-30.0,9969.0,12320.0,3809.0,1661.0,-29.0,-114.0,46.0,8.0,-40.0,-14.0,11269.0,11679.0,2024.0,976.0,19.0,-19.0,15.0,1.0
2022-05-08 14:13:27.845583-07:00,1015.1,1290.0,1977.6,1361.2,747.2,573.0,1575.8,1009.0,3474.6,3479.5,1058.2,1058.2,453.0,3492.9,1500.4,1043.5,3475.9,3478.3,436.4,696.2,501.2,584.3,301.3,297.4,3488.0,3483.2,739.7,619.7,853.7,1411.3,2111.8,507.5,-11.0,-1.0,21.0,9985.0,12314.0,3794.0,1646.0,-46.0,-7.0,-26.0,14.0,-45.0,17.0,11275.0,11676.0,2015.0,971.0,-32.0,-12.0,-7.0,1.0
2022-05-08 14:13:27.847605-07:00,1005.6,1285.5,1992.5,1361.2,743.9,576.2,1575.8,1009.0,3467.4,3475.9,1106.0,1058.2,446.7,3494.1,1500.4,1043.5,3475.9,3478.3,430.2,690.5,501.2,584.3,298.2,299.0,3488.0,3483.2,741.4,612.5,853.7,1455.2,2270.3,509.9,-1.0,-10.0,-34.0,9997.0,12309.0,3779.0,1645.0,-24.0,-45.0,47.0,6.0,-42.0,-7.0,11277.0,11673.0,2015.0,971.0,9.0,6.0,-2.0,1.0
2022-05-08 14:13:27.848925-07:00,1005.6,1285.5,1992.5,1372.1,743.9,578.6,1571.1,1008.2,3467.4,3475.9,1106.0,1070.3,446.7,3486.8,1596.4,1067.7,3473.4,3477.1,430.2,690.5,498.0,584.3,298.2,299.0,3478.3,3477.1,757.1,612.5,846.1,1455.2,2270.3,509.9,13.0,8.0,-34.0,10027.0,12298.0,3734.0,1645.0,-164.0,-108.0,102.0,19.0,-40.0,-9.0,11295.0,11660.0,2003.0,955.0,-98.0,-84.0,-29.0,1.0
2022-05-08 14:13:28.026129-07:00,1003.9,1298.1,1972.7,1372.1,744.7,578.6,1571.1,1008.2,3480.7,3468.6,1136.6,1070.3,451.4,3486.8,1596.4,1067.7,3473.4,3477.1,430.2,693.8,498.0,581.8,299.7,299.7,3478.3,3477.1,757.1,607.6,846.1,1467.2,2393.4,506.7,-22.0,-13.0,-8.0,10081.0,12279.0,3651.0,1643.0,-57.0,-200.0,144.0,2.0,-50.0,11.0,11329.0,11633.0,1973.0,935.0,-39.0,-74.0,27.0,1.0
2022-05-08 14:13:28.027205-07:00,1003.9,1298.1,1972.7,1383.0,744.7,575.4,1559.0,1019.4,3480.7,3468.6,1136.6,1074.7,451.4,3491.7,1620.9,1076.4,3478.3,3478.3,430.2,693.8,500.4,581.8,299.7,299.7,3477.1,3477.1,773.6,607.6,845.3,1467.2,2393.4,506.7,70.0,-15.0,-15.0,10138.0,12269.0,3537.0,1620.0,-217.0,-172.0,119.0,14.0,-53.0,-24.0,11345.0,11625.0,1935.0,910.0,-86.0,-139.0,3.0,1.0
2022-05-08 14:13:28.028102-07:00,996.2,1296.3,1984.6,1383.0,744.7,575.4,1559.0,1019.4,3468.6,3483.2,1167.4,1074.7,441.9,3491.7,1620.9,1076.4,3478.3,3478.3,430.2,697.9,500.4,587.5,298.2,301.3,3477.1,3477.1,773.6,602.0,845.3,1496.7,2446.2,504.4,-23.0,-18.0,39.0,10191.0,12240.0,3484.0,1622.0,-39.0,-120.0,65.0,7.0,-53.0,33.0,11381.0,11598.0,1901.0,888.0,-42.0,-62.0,16.0,1.0
2022-05-08 14:13:28.029324-07:00,996.2,1296.3,1984.6,1409.4,744.7,573.8,1574.9,1042.6,3468.6,3483.2,1167.4,1079.9,441.9,3496.6,1614.3,1092.9,3474.6,3481.9,430.9,697.9,498.8,587.5,298.2,301.3,3472.2,3480.7,769.5,602.0,863.7,1496.7,2446.2,504.4,43.0,7.0,-32.0,10205.0,12244.0,3427.0,1624.0,-81.0,-87.0,94.0,14.0,-33.0,7.0,11383.0,11599.0,1888.0,872.0,6.0,-50.0,-31.0,1.0
2022-05-08 14:13:28.058161-07:00,999.6,1291.8,1995.5,1445.1,744.7,573.8,1574.9,1042.6,3467.4,3483.2,1201.8,1080.8,449.8,3496.6,1614.3,1092.9,3474.6,3481.9,430.9,690.5,498.0,589.1,299.0,295.9,3472.2,3480.7,769.5,592.3,878.9,1544.1,2528.3,507.5,-10.0,-12.0,4.0,10241.0,12221.0,3403.0,1623.0,-38.0,-40.0,15.0,8.0,-53.0,-3.0,11401.0,11585.0,1877.0,848.0,-34.0,-58.0,-17.0,1.0
2022-05-08 14:13:28.059094-07:00,999.6,1291.8,1995.5,1445.1,744.7,573.8,1574.9,1042.6,3467.4,3483.2,1201.8,1080.8,449.8,3496.6,1614.3,1092.9,3474.6,3481.9,430.9,690.5,498.0,589.1,299.0,295.9,3472.2,3480.7,769.5,592.3,878.9,1544.1,2528.3,507.5,-10.0,-12.0,4.0,10241.0,12221.0,3403.0,1623.0,-38.0,-40.0,15.0,8.0,-53.0,-3.0,11401.0,11585.0,1877.0,848.0,-34.0,-58.0,-17.0,1.0
2022-05-08 14:13:28.146080-07:00,997.0,1291.8,1958.8,1486.6,750.5,573.0,1571.1,1059.1,3480.7,3478.3,1210.6,1083.4,445.1,3494.1,1591.7,1106.9,3488.0,3481.9,427.8,688.9,499.6,588.3,306.7,299.0,3474.6,3475.9,764.5,581.8,887.3,1594.6,2590.7,504.4,11.0,-49.0,-18.0,10334.0,12163.0,3326.0,1624.0,-110.0,-99.0,-24.0,13.0,-71.0,-6.0,11489.0,11509.0,1838.0,769.0,-142.0,-104.0,-46.0,1.0
2022-05-08 14:13:28.235494-07:00,997.0,1291.8,1958.8,1486.6,755.4,573.0,1586.1,1127.9,3480.7,3478.3,1210.6,1083.4,445.9,3499.0,1544.1,1114.7,3475.9,3467.4,428.6,692.9,499.6,588.3,306.7,299.0,3474.6,3480.7,769.5,573.0,887.3,1594.6,2590.7,504.4,7.0,-14.0,11.0,10359.0,12153.0,3294.0,1605.0,-175.0,-35.0,50.0,27.0,-33.0,10.0,11515.0,11489.0,1821.0,740.0,-120.0,-58.0,-34.0,1.0
2022-05-08 14:13:28.236861-07:00,997.0,1276.5,1936.1,1533.8,755.4,573.0,1586.1,1127.9,3478.3,3467.4,1214.2,1103.4,445.9,3499.0,1544.1,1114.7,3475.9,3467.4,428.6,692.9,506.7,595.5,299.0,303.6,3474.6,3480.7,769.5,573.0,901.7,1636.9,2651.5,508.3,5.0,-4.0,-7.0,10403.0,12119.0,3265.0,1634.0,-66.0,-5.0,42.0,6.0,-53.0,-3.0,11549.0,11457.0,1810.0,722.0,-47.0,-34.0,-17.0,1.0
2022-05-08 14:13:28.265526-07:00,997.0,1276.5,1936.1,1533.8,763.7,570.6,1591.7,1185.9,3478.3,3467.4,1214.2,1103.4,452.2,3494.1,1499.5,1139.2,3480.7,3479.5,430.2,692.1,506.7,595.5,299.0,303.6,3488.0,3483.2,763.7,561.8,901.7,1636.9,2651.5,508.3,14.0,5.0,-3.0,10413.0,12112.0,3255.0,1650.0,-52.0,17.0,43.0,7.0,-38.0,11.0,11556.0,11451.0,1809.0,712.0,-32.0,-24.0,-21.0,1.0
2022-05-08 14:13:28.385452-07:00,991.9,1260.4,1900.7,1551.5,763.7,570.6,1591.7,1205.3,3478.3,3471.0,1219.5,1101.7,452.2,3494.1,1499.5,1156.8,3474.6,3479.5,430.2,692.1,499.6,589.1,299.0,298.2,3477.1,3483.2,763.7,561.8,925.4,1653.9,2685.3,504.4,4.0,-21.0,-13.0,10432.0,12098.0,3234.0,1671.0,-48.0,4.0,64.0,12.0,-51.0,-14.0,11574.0,11434.0,1804.0,699.0,-34.0,-36.0,-13.0,1.0
2022-05-08 14:13:28.386848-07:00,997.9,1260.4,1900.7,1551.5,778.6,569.8,1601.1,1205.3,3478.3,3471.0,1219.5,1101.7,449.8,3500.2,1447.0,1156.8,3474.6,3483.2,429.4,692.1,499.6,589.1,299.0,294.4,3477.1,3481.9,772.0,547.4,925.4,1653.9,2685.3,502.0,-8.0,14.0,-13.0,10444.0,12094.0,3202.0,1683.0,-106.0,-52.0,72.0,15.0,-27.0,8.0,11595.0,11416.0,1790.0,689.0,-109.0,-34.0,-9.0,1.0
2022-05-08 14:13:28.415488-07:00,997.9,1256.9,1854.7,1574.9,778.6,569.8,1601.1,1229.3,3478.3,3472.2,1222.2,1093.8,449.8,3500.2,1447.0,1164.7,3479.5,3483.2,429.4,692.1,507.5,597.1,294.4,294.4,3483.2,3481.9,772.0,547.4,950.0,1653.0,2658.0,502.0,-8.0,2.0,-2.0,10466.0,12090.0,3146.0,1681.0,-89.0,-81.0,90.0,0.0,-44.0,12.0,11628.0,11386.0,1769.0,678.0,-104.0,-64.0,-6.0,1.0
2022-05-08 14:13:28.475046-07:00,991.0,1256.9,1854.7,1574.9,797.7,569.0,1605.8,1229.3,3483.2,3472.2,1222.2,1093.8,441.9,3499.0,1393.9,1164.7,3479.5,3488.0,429.4,690.5,507.5,597.1,294.4,293.6,3483.2,3478.3,769.5,545.8,950.0,1653.0,2658.0,501.2,-16.0,-21.0,-5.0,10490.0,12089.0,3082.0,1663.0,13.0,-166.0,77.0,3.0,-55.0,15.0,11677.0,11340.0,1744.0,665.0,-92.0,-68.0,-8.0,1.0
2022-05-08 14:13:28.536206-07:00,991.0,1243.5,1821.6,1611.5,797.7,569.0,1605.8,1273.0,3483.2,3477.1,1235.5,1112.1,441.9,3499.0,1393.9,1163.0,3479.5,3488.0,429.4,690.5,505.1,590.7,289.8,293.6,3472.2,3478.3,769.5,545.8,968.8,1683.3,2603.7,501.2,11.0,6.0,-3.0,10483.0,12112.0,3025.0,1640.0,28.0,-64.0,49.0,-3.0,-38.0,14.0,11696.0,11324.0,1725.0,653.0,-3.0,-49.0,-13.0,1.0
2022-05-08 14:13:28.566350-07:00,986.7,1243.5,1821.6,1611.5,816.9,565.0,1630.3,1273.0,3473.4,3477.1,1235.5,1112.1,447.4,3497.8,1348.5,1163.0,3479.5,3475.9,429.4,695.4,505.1,590.7,289.8,293.6,3472.2,3481.9,775.3,540.2,968.8,1683.3,2603.7,504.4,3.0,7.0,7.0,10466.0,12136.0,2993.0,1630.0,18.0,-49.0,55.0,11.0,-34.0,-7.0,11709.0,11314.0,1708.0,638.0,-41.0,-35.0,-7.0,1.0
2022-05-08 14:13:28.625448-07:00,986.7,1242.6,1797.4,1623.7,816.9,565.0,1691.9,1367.6,3473.4,3475.9,1222.2,1111.2,447.4,3497.8,1310.6,1162.1,3480.7,3479.5,429.4,695.4,504.4,598.7,293.6,293.6,3488.0,3479.5,775.3,540.2,998.7,1690.0,2531.5,504.4,-2.0,-3.0,-16.0,10461.0,12145.0,2972.0,1630.0,-11.0,-38.0,34.0,5.0,-42.0,0.0,11723.0,11302.0,1697.0,628.0,-59.0,-38.0,-9.0,1.0
2022-05-08 14:13:28.745544-07:00,1090.3,1235.5,1797.4,1623.7,838.6,565.0,1691.9,1367.6,3472.2,3472.2,1222.2,1111.2,455.3,3499.0,1310.6,1162.1,3480.7,3479.5,429.4,692.1,504.4,598.7,295.1,296.7,3488.0,3479.5,776.9,532.2,998.7,1690.0,2481.3,508.3,-5.0,-14.0,-31.0,10457.0,12164.0,2921.0,1610.0,25.0,-191.0,79.0,0.0,-47.0,-8.0,11745.0,11282.0,1678.0,615.0,-96.0,-95.0,14.0,1.0
2022-05-08 14:13:28.747129-07:00,1090.3,1235.5,1783.9,1621.8,838.6,565.0,1720.5,1456.2,3472.2,3472.2,1209.7,1118.2,455.3,3499.0,1292.7,1160.3,3477.1,3481.9,429.4,692.1,502.0,594.7,295.1,296.7,3485.6,3481.9,776.9,532.2,1015.1,1686.2,2481.3,508.3,16.0,1.0,-15.0,10428.0,12221.0,2815.0,1549.0,124.0,-283.0,142.0,-7.0,-24.0,4.0,11753.0,11281.0,1641.0,589.0,90.0,-103.0,10.0,1.0
2022-05-08 14:13:28.926044-07:00,1159.4,1239.1,1783.9,1621.8,840.3,564.2,1720.5,1456.2,3473.4,3479.5,1209.7,1118.2,451.4,3507.5,1292.7,1160.3,3477.1,3481.9,428.6,696.2,502.0,594.7,293.6,292.1,3485.6,3481.9,773.6,522.6,1015.1,1686.2,2418.7,550.6,-17.0,-21.0,-33.0,10448.0,12239.0,2700.0,1486.0,-19.0,-333.0,98.0,6.0,-62.0,-1.0,11774.0,11269.0,1584.0,544.0,-155.0,-196.0,37.0,1.0
2022-05-08 14:13:28.927090-07:00,1159.4,1239.1,1777.2,1613.4,840.3,564.2,1733.0,1439.6,3473.4,3479.5,1190.3,1116.5,451.4,3507.5,1277.4,1150.6,3480.7,3479.5,428.6,696.2,500.4,602.8,293.6,292.1,3477.1,3467.4,773.6,522.6,1013.3,1681.4,2418.7,550.6,7.0,13.0,10.0,10465.0,12257.0,2581.0,1420.0,-51.0,-270.0,105.0,13.0,-53.0,-9.0,11816.0,11238.0,1510.0,504.0,-135.0,-139.0,44.0,1.0
2022-05-08 14:13:28.955957-07:00,1187.6,1245.3,1777.2,1613.4,826.9,557.0,1733.0,1439.6,3471.0,3466.1,1190.3,1116.5,451.4,3507.5,1277.4,1150.6,3480.7,3479.5,432.5,692.1,500.4,602.8,295.9,294.4,3477.1,3467.4,772.8,515.5,1013.3,1681.4,2385.0,575.4,12.0,11.0,24.0,10480.0,12259.0,2528.0,1387.0,15.0,-99.0,3.0,22.0,-39.0,16.0,11841.0,11218.0,1466.0,480.0,-36.0,-69.0,-6.0,1.0
2022-05-08 14:13:28.957003-07:00,1187.6,1245.3,1776.2,1592.7,826.9,551.4,1745.4,1446.0,3471.0,3466.1,1188.5,1118.2,451.4,3496.6,1267.6,1157.7,3480.7,3478.3,430.2,692.1,498.8,604.4,295.9,294.4,3483.2,3478.3,764.5,515.5,1021.1,1669.1,2385.0,575.4,6.0,-16.0,14.0,10469.0,12279.0,2499.0,1347.0,79.0,-100.0,3.0,10.0,-44.0,14.0,11852.0,11209.0,1450.0,467.0,8.0,-28.0,10.0,1.0
2022-05-08 14:13:28.958003-07:00,1217.7,1285.5,1761.8,1592.7,821.0,551.4,1745.4,1446.0,3477.1,3478.3,1176.2,1118.2,455.3,3496.6,1267.6,1157.7,3480.7,3478.3,430.2,694.6,498.8,601.2,299.7,295.9,3483.2,3478.3,764.5,511.5,1021.1,1659.6,2351.4,614.1,14.0,18.0,17.0,10454.0,12293.0,2493.0,1348.0,30.0,107.0,-23.0,3.0,-40.0,0.0,11850.0,11212.0,1444.0,468.0,-8.0,31.0,8.0,1.0
2022-05-08 14:13:29.045435-07:00,1217.7,1285.5,1761.8,1576.8,821.0,553.8,1752.1,1439.6,3477.1,3478.3,1176.2,1120.9,455.3,3494.1,1257.8,1135.7,3474.6,3481.9,431.7,694.6,500.4,601.2,299.7,295.9,3467.4,3475.9,764.5,511.5,1021.9,1659.6,2351.4,614.1,6.0,-9.0,-13.0,10444.0,12295.0,2517.0,1365.0,16.0,10.0,3.0,12.0,-41.0,-8.0,11846.0,11214.0,1455.0,478.0,21.0,26.0,3.0,1.0
2022-05-08 14:13:29.136090-07:00,1198.2,1241.7,1736.8,1576.8,830.2,553.8,1752.1,1439.6,3481.9,3467.4,1165.6,1120.9,453.7,3494.1,1257.8,1135.7,3474.6,3481.9,431.7,694.6,500.4,606.8,299.7,298.2,3467.4,3475.9,764.5,509.9,1021.9,1651.1,2338.9,616.5,6.0,-5.0,-5.0,10432.0,12301.0,2529.0,1372.0,19.0,68.0,-20.0,6.0,-36.0,-9.0,11842.0,11217.0,1461.0,484.0,10.0,23.0,-7.0,1.0
2022-05-08 14:13:29.137690-07:00,1198.2,1241.7,1736.8,1570.2,830.2,551.4,1745.4,1419.5,3481.9,3467.4,1165.6,1126.1,453.7,3497.8,1251.5,1130.5,3479.5,3480.7,431.7,694.6,501.2,606.8,299.7,298.2,3485.6,3478.3,767.8,509.9,1015.1,1651.1,2338.9,616.5,-5.0,-10.0,0.0,10423.0,12301.0,2556.0,1391.0,-12.0,75.0,-4.0,0.0,-49.0,21.0,11837.0,11221.0,1472.0,494.0,20.0,44.0,2.0,1.0
2022-05-08 14:13:29.165405-07:00,1188.5,1239.1,1725.3,1570.2,821.0,551.4,1745.4,1419.5,3467.4,3474.6,1156.8,1126.1,455.3,3497.8,1251.5,1130.5,3479.5,3480.7,431.7,696.2,501.2,602.8,295.9,296.7,3485.6,3478.3,767.8,505.1,1015.1,1642.6,2332.6,606.8,8.0,-2.0,-7.0,10423.0,12297.0,2568.0,1406.0,5.0,26.0,-13.0,7.0,-40.0,-9.0,11834.0,11222.0,1481.0,502.0,2.0,21.0,-2.0,1.0
2022-05-08 14:13:29.256270-07:00,1188.5,1239.1,1725.3,1562.7,819.4,550.6,1738.7,1404.0,3467.4,3474.6,1156.8,1126.1,452.2,3501.4,1240.8,1125.2,3478.3,3484.4,429.4,691.3,500.4,602.8,295.9,296.7,3477.1,3477.1,762.0,503.6,1002.2,1642.6,2332.6,606.8,-3.0,-17.0,-7.0,10417.0,12298.0,2585.0,1412.0,21.0,47.0,-23.0,4.0,-48.0,0.0,11833.0,11222.0,1489.0,511.0,3.0,39.0,-8.0,1.0
2022-05-08 14:13:29.345531-07:00,1184.1,1222.2,1724.4,1552.5,819.4,550.6,1738.7,1404.0,3479.5,3478.3,1148.9,1124.4,452.2,3501.4,1240.8,1125.2,3478.3,3484.4,429.4,691.3,504.4,602.8,293.6,305.9,3477.1,3477.1,762.0,503.6,997.9,1634.1,2319.1,602.8,-3.0,-1.0,-17.0,10414.0,12297.0,2597.0,1420.0,-28.0,-20.0,-2.0,7.0,-42.0,-3.0,11834.0,11220.0,1495.0,518.0,-35.0,0.0,7.0,1.0
2022-05-08 14:13:29.376178-07:00,1184.1,1222.2,1724.4,1552.5,811.9,544.2,1727.2,1404.9,3479.5,3478.3,1148.9,1124.4,453.0,3496.6,1243.5,1126.1,3475.9,3467.4,432.5,697.9,504.4,602.8,293.6,305.9,3475.9,3479.5,754.6,500.4,997.9,1634.1,2319.1,602.8,6.0,2.0,1.0,10416.0,12296.0,2598.0,1415.0,-7.0,18.0,-35.0,5.0,-44.0,-3.0,11838.0,11216.0,1494.0,517.0,-16.0,1.0,-12.0,1.0
2022-05-08 14:13:29.377166-07:00,1170.0,1216.0,1710.0,1548.7,811.9,544.2,1727.2,1404.9,3473.4,3475.9,1147.1,1114.7,453.0,3496.6,1243.5,1126.1,3475.9,3467.4,432.5,697.9,505.9,605.2,292.8,292.8,3475.9,3479.5,754.6,500.4,992.7,1631.3,2306.6,603.6,0.0,-10.0,-6.0,10415.0,12293.0,2615.0,1412.0,10.0,-3.0,-18.0,5.0,-39.0,5.0,11839.0,11213.0,1503.0,520.0,8.0,15.0,-7.0,1.0
2022-05-08 14:13:29.405791-07:00,1170.0,1216.0,1710.0,1548.7,811.0,545.0,1717.7,1396.7,3473.4,3475.9,1147.1,1114.7,452.2,3486.8,1240.8,1125.2,3475.9,3478.3,430.9,692.9,505.9,605.2,292.8,292.8,3477.1,3485.6,761.2,499.6,992.7,1631.3,2306.6,603.6,5.0,-3.0,-6.0,10414.0,12294.0,2617.0,1411.0,0.0,5.0,-3.0,5.0,-40.0,0.0,11840.0,11212.0,1504.0,519.0,-13.0,5.0,-4.0,1.0
2022-05-08 14:13:29.495488-07:00,1175.3,1212.4,1712.9,1539.4,811.0,545.0,1717.7,1396.7,3477.1,3466.1,1142.7,1111.2,452.2,3486.8,1240.8,1125.2,3475.9,3478.3,430.9,692.9,501.2,606.0,290.5,286.7,3477.1,3485.6,761.2,499.6,991.0,1629.4,2293.1,603.6,-2.0,-3.0,-7.0,10415.0,12292.0,2620.0,1413.0,-17.0,-6.0,-10.0,3.0,-43.0,1.0,11843.0,11209.0,1507.0,521.0,-17.0,13.0,-4.0,1.0
2022-05-08 14:13:29.525454-07:00,1163.0,1212.4,1712.9,1539.4,805.2,537.0,1714.8,1385.7,3467.4,3466.1,1142.7,1111.2,448.2,3495.3,1234.6,1116.5,3475.9,3483.2,434.1,692.9,501.2,606.0,290.5,289.0,3475.9,3472.2,762.0,495.6,991.0,1629.4,2293.1,604.4,3.0,0.0,-4.0,10422.0,12287.0,2619.0,1413.0,-21.0,3.0,-13.0,1.0,-41.0,1.0,11848.0,11203.0,1507.0,523.0,-21.0,3.0,-4.0,1.0
2022-05-08 14:13:29.645289-07:00,1163.0,1206.2,1700.5,1529.2,805.2,537.0,1714.8,1383.0,3467.4,3477.1,1140.1,1113.9,448.2,3495.3,1234.6,1116.5,3479.5,3483.2,434.1,692.9,502.8,601.2,299.7,289.0,3478.3,3472.2,762.0,495.6,988.5,1622.8,2299.3,604.4,9.0,-3.0,4.0,10425.0,12283.0,2626.0,1412.0,-9.0,14.0,-23.0,5.0,-41.0,6.0,11848.0,11203.0,1514.0,525.0,-3.0,14.0,-15.0,1.0
2022-05-08 14:13:29.647781-07:00,1161.2,1206.2,1700.5,1529.2,813.5,543.4,1712.9,1383.0,3474.6,3477.1,1140.1,1113.9,450.6,3486.8,1230.2,1116.5,3479.5,3477.1,430.2,696.2,502.8,601.2,299.7,287.5,3478.3,3472.2,754.6,497.2,988.5,1622.8,2299.3,605.2,3.0,-2.0,-9.0,10425.0,12280.0,2637.0,1414.0,-13.0,18.0,-10.0,1.0,-41.0,7.0,11846.0,11203.0,1520.0,530.0,-4.0,6.0,-3.0,1.0
