Time,P0,P1,P2,P3,P4,P5,P6,P7,P8,P9,P10,P11,P12,P13,P14,P15,P16,P17,P18,P19,P20,P21,P22,P23,P24,P25,P26,P27,P28,P29,P30,P31,ECG,AX0,AY0,AZ0,QW0,QX0,QY0,QZ0,GX0,GY0,GZ0,AX1,AY1,AZ1,QW1,QX1,QY1,QZ1,GX1,GY1,GZ1
2022-05-08 17:26:34.350946-07:00,860.4,921.1,1255.1,977.3,781.9,444.3,1500.4,1028.0,3478.3,3474.6,623.0,913.5,404.3,3486.8,755.4,761.2,3480.7,3480.7,420.0,585.1,409.8,518.7,244.7,243.9,3481.9,3475.9,592.3,477.4,831.9,1077.3,1235.5,518.7,0.0,-19.0,11.0,10734.0,9718.0,6535.0,4008.0,62.0,71.0,9.0,-2.0,-7.0,11.0,11531.0,10323.0,-2669.0,-4665.0,56.0,43.0,26.0,1.0
2022-05-08 17:26:34.618334-07:00,860.4,917.7,1249.7,985.0,781.9,444.3,1500.4,1024.5,3478.3,3468.6,629.5,916.0,404.3,3486.8,755.4,757.1,3483.2,3480.7,420.0,585.1,411.4,521.8,243.2,243.9,3478.3,3475.9,592.3,477.4,823.5,1075.6,1234.6,518.7,7.0,5.0,-3.0,10708.0,9728.0,6552.0,4025.0,35.0,60.0,31.0,4.0,6.0,7.0,11528.0,10339.0,-2673.0,-4637.0,40.0,44.0,48.0,1.0
2022-05-08 17:26:34.620853-07:00,852.0,920.3,1249.7,985.0,775.3,449.8,1500.4,1024.5,3478.3,3472.2,629.5,916.0,405.9,3495.3,759.6,757.1,3483.2,3472.2,420.0,585.9,411.4,521.8,244.7,247.7,3478.3,3481.9,595.5,476.6,823.5,1075.6,1240.8,519.5,9.0,-1.0,-16.0,10686.0,9737.0,6567.0,4038.0,37.0,49.0,8.0,12.0,3.0,7.0,11525.0,10349.0,-2681.0,-4618.0,29.0,8.0,28.0,1.0
2022-05-08 17:26:34.621721-07:00,852.0,920.3,1252.4,980.7,775.3,449.8,1495.8,1022.8,3478.3,3472.2,632.7,912.7,405.9,3495.3,755.4,756.3,3480.7,3475.9,420.0,585.9,412.9,513.9,244.7,247.7,3477.1,3480.7,595.5,476.6,822.7,1075.6,1240.8,519.5,14.0,0.0,-5.0,10674.0,9748.0,6568.0,4044.0,2.0,-3.0,37.0,12.0,2.0,6.0,11527.0,10349.0,-2692.0,-4606.0,-12.0,-14.0,36.0,1.0
2022-05-08 17:26:34.622419-07:00,852.0,916.9,1252.4,980.7,777.8,449.8,1495.8,1022.8,3475.9,3475.9,632.7,912.7,405.1,3491.7,755.4,756.3,3480.7,3475.9,425.5,584.3,412.9,513.9,243.9,240.9,3477.1,3480.7,588.3,473.5,822.7,1075.6,1239.1,515.5,14.0,5.0,8.0,10674.0,9754.0,6550.0,4055.0,-1.0,-23.0,38.0,11.0,3.0,11.0,11536.0,10340.0,-2706.0,-4597.0,-3.0,-10.0,38.0,1.0
2022-05-08 17:26:34.626798-07:00,852.0,916.9,1255.1,979.9,777.8,449.8,1489.3,1022.8,3475.9,3475.9,629.5,910.1,405.1,3491.7,762.0,751.3,3467.4,3468.6,425.5,584.3,414.5,517.9,243.9,240.9,3469.8,3478.3,588.3,473.5,831.9,1084.2,1239.1,515.5,3.0,-5.0,16.0,10673.0,9758.0,6539.0,4065.0,-3.0,13.0,25.0,6.0,2.0,15.0,11543.0,10335.0,-2713.0,-4587.0,-8.0,10.0,26.0,1.0
2022-05-08 17:26:34.649180-07:00,850.3,913.5,1255.1,979.9,781.9,445.1,1489.3,1022.8,3467.4,3471.0,629.5,910.1,405.1,3492.9,762.0,751.3,3467.4,3468.6,423.1,581.8,414.5,517.9,247.7,247.7,3469.8,3478.3,588.3,477.4,831.9,1084.2,1235.5,518.7,-1.0,-4.0,0.0,10670.0,9762.0,6528.0,4082.0,-18.0,12.0,58.0,0.0,1.0,12.0,11550.0,10328.0,-2720.0,-4579.0,-12.0,-4.0,32.0,1.0
2022-05-08 17:26:34.708614-07:00,850.3,913.5,1252.4,979.9,781.9,445.1,1493.0,1005.6,3467.4,3471.0,630.3,907.6,405.1,3492.9,762.0,751.3,3467.4,3480.7,423.1,581.8,414.5,517.9,247.7,247.7,3467.4,3478.3,588.3,477.4,825.2,1073.8,1235.5,518.7,-14.0,30.0,0.0,10672.0,9769.0,6504.0,4101.0,-43.0,-37.0,70.0,-3.0,22.0,22.0,11556.0,10319.0,-2728.0,-4580.0,-30.0,-67.0,-19.0,1.0
2022-05-08 17:26:34.739052-07:00,854.5,916.9,1253.3,979.9,777.8,450.6,1493.0,1005.6,3471.0,3472.2,627.8,907.6,406.7,3496.6,762.0,751.3,3467.4,3480.7,425.5,583.5,414.5,509.9,243.2,243.9,3467.4,3478.3,593.1,476.6,825.2,1072.1,1248.8,511.5,-17.0,-19.0,-19.0,10734.0,9731.0,6440.0,4129.0,-312.0,-146.0,36.0,-17.0,-6.0,-6.0,11572.0,10282.0,-2724.0,-4626.0,-164.0,-84.0,-50.0,1.0
2022-05-08 17:26:34.828490-07:00,854.5,916.9,1253.3,973.1,777.8,446.7,1475.5,1036.6,3471.0,3472.2,627.8,908.4,406.7,3497.8,753.8,756.3,3472.2,3472.2,420.0,583.5,411.4,509.9,243.2,243.9,3478.3,3479.5,591.5,476.6,828.5,1072.1,1248.8,511.5,5.0,-23.0,44.0,10780.0,9732.0,6377.0,4105.0,81.0,-151.0,31.0,-3.0,-11.0,14.0,11579.0,10258.0,-2731.0,-4658.0,40.0,-47.0,10.0,1.0
2022-05-08 17:26:34.858595-07:00,853.7,907.6,1254.2,973.1,779.4,446.7,1475.5,1036.6,3467.4,3472.2,630.3,908.4,399.6,3497.8,753.8,756.3,3472.2,3472.2,420.0,581.8,411.4,517.1,244.7,244.7,3478.3,3479.5,591.5,474.3,828.5,1077.3,1236.4,517.1,23.0,19.0,22.0,10789.0,9758.0,6320.0,4108.0,-114.0,-81.0,147.0,16.0,8.0,19.0,11580.0,10251.0,-2750.0,-4657.0,-74.0,-23.0,43.0,1.0
2022-05-08 17:26:34.888826-07:00,853.7,907.6,1254.2,980.7,779.4,447.4,1489.3,1055.6,3467.4,3472.2,630.3,912.7,399.6,3496.6,757.9,753.8,3477.1,3474.6,423.1,581.8,411.4,517.1,244.7,244.7,3472.2,3479.5,598.7,474.3,828.5,1077.3,1236.4,517.1,22.0,-16.0,8.0,10839.0,9719.0,6260.0,4160.0,-190.0,-13.0,29.0,20.0,-8.0,-5.0,11616.0,10207.0,-2752.0,-4662.0,-57.0,-9.0,16.0,1.0
2022-05-08 17:26:34.948506-07:00,858.7,904.2,1252.4,980.7,782.7,447.4,1489.3,1055.6,3478.3,3469.8,631.1,912.7,405.1,3496.6,757.9,753.8,3477.1,3474.6,423.1,585.1,411.4,511.5,250.8,247.7,3472.2,3479.5,598.7,480.6,828.5,1075.6,1223.0,521.8,27.0,29.0,25.0,10813.0,9747.0,6269.0,4148.0,168.0,19.0,-9.0,25.0,15.0,19.0,11603.0,10225.0,-2764.0,-4650.0,90.0,43.0,-21.0,1.0
2022-05-08 17:26:35.068386-07:00,858.7,904.2,1252.4,981.6,782.7,455.3,1489.3,1066.0,3478.3,3469.8,631.1,912.7,405.1,3497.8,765.3,755.4,3473.4,3478.3,424.7,585.1,410.6,511.5,250.8,247.7,3475.9,3472.2,593.1,480.6,833.6,1075.6,1223.0,521.8,4.0,-21.0,-5.0,10812.0,9738.0,6283.0,4154.0,-149.0,23.0,-31.0,3.0,-5.0,5.0,11603.0,10235.0,-2747.0,-4637.0,-59.0,68.0,-18.0,1.0
2022-05-08 17:26:35.069468-07:00,862.1,908.4,1256.9,981.6,780.3,455.3,1489.3,1066.0,3478.3,3468.6,639.2,919.4,401.2,3497.8,765.3,755.4,3473.4,3478.3,424.7,589.1,410.6,516.3,243.2,245.4,3475.9,3472.2,593.1,478.2,828.5,1072.1,1239.9,526.6,0.0,-15.0,7.0,10817.0,9726.0,6288.0,4160.0,119.0,44.0,15.0,-10.0,-1.0,1.0,11597.0,10255.0,-2734.0,-4615.0,136.0,59.0,24.0,1.0
2022-05-08 17:26:35.098570-07:00,862.1,908.4,1256.9,981.6,780.3,456.9,1501.4,1057.3,3478.3,3468.6,639.2,919.4,404.3,3495.3,770.3,756.3,3477.1,3475.9,425.5,582.6,410.6,516.3,243.2,245.4,3477.1,3477.1,595.5,475.0,828.5,1072.1,1239.9,526.6,-1.0,-8.0,11.0,10751.0,9776.0,6331.0,4148.0,162.0,97.0,6.0,0.0,1.0,16.0,11560.0,10312.0,-2747.0,-4574.0,171.0,70.0,46.0,1.0
2022-05-08 17:26:35.128936-07:00,858.7,916.0,1261.3,976.5,780.3,456.9,1501.4,1057.3,3473.4,3474.6,631.9,908.4,404.3,3495.3,770.3,756.3,3477.1,3475.9,425.5,582.6,412.9,517.9,240.9,242.4,3477.1,3477.1,595.5,475.0,825.2,1078.2,1251.5,517.1,11.0,9.0,-5.0,10723.0,9780.0,6349.0,4183.0,-77.0,107.0,50.0,4.0,8.0,6.0,11550.0,10341.0,-2749.0,-4531.0,13.0,73.0,54.0,1.0
2022-05-08 17:26:35.188764-07:00,858.7,916.0,1261.3,976.5,781.1,457.7,1508.8,1059.9,3473.4,3474.6,631.9,908.4,405.1,3496.6,786.9,760.4,3483.2,3477.1,424.7,584.3,412.9,517.9,240.9,242.4,3481.9,3473.4,597.1,478.2,825.2,1078.2,1251.5,517.1,5.0,10.0,-17.0,10721.0,9752.0,6361.0,4234.0,-43.0,79.0,23.0,8.0,10.0,0.0,11563.0,10342.0,-2743.0,-4499.0,6.0,48.0,36.0,1.0
2022-05-08 17:26:35.248444-07:00,847.8,913.5,1271.2,985.0,781.1,457.7,1508.8,1059.9,3475.9,3478.3,631.9,911.8,405.1,3496.6,786.9,760.4,3483.2,3477.1,424.7,584.3,413.7,518.7,242.4,244.7,3481.9,3473.4,597.1,478.2,826.0,1078.2,1252.4,517.1,17.0,1.0,-14.0,10727.0,9735.0,6362.0,4256.0,-88.0,11.0,-6.0,6.0,6.0,5.0,11573.0,10334.0,-2740.0,-4494.0,-41.0,-13.0,5.0,1.0
2022-05-08 17:26:35.279364-07:00,847.8,913.5,1271.2,985.0,788.6,464.8,1506.9,1059.9,3475.9,3478.3,631.9,911.8,408.2,3494.1,791.9,762.9,3480.7,3473.4,423.9,581.8,413.7,518.7,242.4,244.7,3477.1,3481.9,593.1,479.0,826.0,1078.2,1252.4,517.1,9.0,-11.0,10.0,10749.0,9718.0,6344.0,4267.0,-41.0,-46.0,15.0,6.0,-4.0,11.0,11584.0,10320.0,-2739.0,-4497.0,-16.0,-11.0,8.0,1.0
2022-05-08 17:26:35.339028-07:00,854.5,906.7,1271.2,976.5,788.6,464.8,1506.9,1053.0,3462.5,3466.1,636.7,916.0,408.2,3494.1,791.9,758.7,3481.9,3473.4,423.9,581.8,407.5,517.1,242.4,244.7,3481.9,3481.9,593.1,479.0,827.7,1074.7,1261.3,522.6,2.0,-20.0,17.0,10762.0,9710.0,6324.0,4283.0,-82.0,10.0,57.0,-5.0,-4.0,12.0,11594.0,10310.0,-2747.0,-4491.0,-40.0,-8.0,49.0,1.0
2022-05-08 17:26:35.428512-07:00,860.4,906.7,1271.2,976.5,798.5,471.9,1499.5,1053.0,3468.6,3466.1,636.7,916.0,404.3,3486.8,787.7,758.7,3481.9,3477.1,419.2,588.3,407.5,517.1,242.4,239.3,3481.9,3483.2,597.1,476.6,827.7,1074.7,1261.3,518.7,9.0,-5.0,14.0,10763.0,9704.0,6306.0,4319.0,-13.0,36.0,66.0,4.0,1.0,12.0,11608.0,10301.0,-2760.0,-4468.0,4.0,30.0,76.0,1.0
2022-05-08 17:26:35.429553-07:00,860.4,907.6,1290.9,985.0,798.5,471.9,1499.5,1061.7,3468.6,3467.4,637.6,916.0,404.3,3486.8,787.7,756.3,3479.5,3477.1,419.2,588.3,412.9,521.8,246.2,239.3,3479.5,3483.2,597.1,476.6,823.5,1075.6,1259.6,518.7,21.0,-11.0,4.0,10743.0,9715.0,6304.0,4347.0,54.0,68.0,50.0,17.0,-4.0,8.0,11613.0,10308.0,-2772.0,-4432.0,41.0,38.0,76.0,1.0
2022-05-08 17:26:35.488795-07:00,854.5,907.6,1290.9,985.0,777.8,465.6,1505.1,1061.7,3467.4,3467.4,637.6,916.0,402.0,3496.6,787.7,756.3,3479.5,3478.3,422.3,578.6,412.9,521.8,246.2,244.7,3479.5,3474.6,597.1,482.2,823.5,1075.6,1259.6,518.7,3.0,-7.0,-23.0,10703.0,9743.0,6315.0,4370.0,64.0,53.0,73.0,-6.0,3.0,7.0,11613.0,10320.0,-2794.0,-4390.0,37.0,15.0,106.0,1.0
2022-05-08 17:26:35.729209-07:00,854.5,905.0,1275.6,978.2,777.8,465.6,1505.1,1047.8,3467.4,3479.5,636.7,905.0,402.0,3496.6,787.7,755.4,3479.5,3478.3,422.3,578.6,415.3,517.9,240.9,244.7,3469.8,3474.6,597.1,482.2,825.2,1075.6,1252.4,518.7,2.0,5.0,-10.0,10688.0,9767.0,6295.0,4380.0,24.0,-54.0,69.0,3.0,6.0,10.0,11622.0,10312.0,-2826.0,-4363.0,-11.0,-30.0,92.0,1.0
2022-05-08 17:26:35.730266-07:00,852.0,905.0,1275.6,978.2,779.4,461.6,1497.7,1047.8,3471.0,3479.5,636.7,905.0,405.9,3507.5,786.1,755.4,3479.5,3480.7,423.9,589.1,415.3,517.9,240.9,240.9,3469.8,3478.3,596.3,476.6,825.2,1075.6,1252.4,517.9,4.0,24.0,8.0,10679.0,9798.0,6267.0,4373.0,42.0,-77.0,36.0,1.0,9.0,14.0,11633.0,10298.0,-2854.0,-4349.0,-13.0,-19.0,56.0,1.0
2022-05-08 17:26:35.731924-07:00,852.0,903.4,1273.0,979.9,779.4,461.6,1492.1,1053.0,3471.0,3477.1,633.5,911.8,405.9,3507.5,781.1,757.9,3477.1,3474.6,423.9,589.1,412.9,517.1,243.9,240.9,3480.7,3477.1,596.3,476.6,821.9,1076.4,1245.3,517.9,13.0,7.0,10.0,10681.0,9812.0,6251.0,4358.0,24.0,-32.0,-4.0,6.0,3.0,10.0,11635.0,10294.0,-2863.0,-4347.0,1.0,-15.0,0.0,1.0
2022-05-08 17:26:35.733572-07:00,858.7,903.4,1273.0,979.9,781.9,460.0,1492.1,1053.0,3478.3,3474.6,633.5,911.8,403.5,3496.6,781.1,757.9,3477.1,3474.6,423.1,583.5,412.9,517.1,243.2,245.4,3480.7,3477.1,590.7,481.4,821.9,1076.4,1238.2,519.5,17.0,-25.0,25.0,10672.0,9829.0,6254.0,4338.0,149.0,-17.0,-9.0,18.0,-23.0,14.0,11631.0,10303.0,-2862.0,-4336.0,89.0,51.0,12.0,1.0
2022-05-08 17:26:35.759260-07:00,858.7,903.4,1273.0,984.2,781.9,460.0,1484.7,1046.1,3478.3,3474.6,637.6,908.4,403.5,3496.6,772.8,757.1,3478.3,3467.4,423.1,583.5,412.1,519.5,243.2,245.4,3467.4,3490.5,590.7,481.4,816.0,1072.9,1238.2,519.5,11.0,4.0,-3.0,10639.0,9865.0,6268.0,4318.0,29.0,12.0,-4.0,5.0,9.0,11.0,11619.0,10326.0,-2861.0,-4315.0,23.0,33.0,8.0,1.0
2022-05-08 17:26:35.788779-07:00,850.3,911.8,1273.0,984.2,778.6,464.8,1484.7,1046.1,3469.8,3472.2,637.6,908.4,403.5,3496.6,772.8,757.1,3478.3,3467.4,422.3,580.2,412.1,519.5,244.7,241.6,3467.4,3490.5,585.1,480.6,816.0,1072.9,1236.4,511.5,9.0,-14.0,-2.0,10625.0,9881.0,6273.0,4308.0,122.0,-25.0,3.0,11.0,-10.0,4.0,11614.0,10336.0,-2865.0,-4302.0,78.0,3.0,25.0,1.0
2022-05-08 17:26:35.848582-07:00,850.3,911.8,1283.7,979.0,778.6,464.8,1490.3,1045.2,3469.8,3472.2,636.7,911.8,403.5,3496.6,767.8,758.7,3478.3,3477.1,422.3,580.2,411.4,518.7,244.7,241.6,3479.5,3477.1,585.1,480.6,824.4,1073.8,1236.4,511.5,14.0,16.0,5.0,10606.0,9910.0,6272.0,4288.0,8.0,-24.0,6.0,13.0,10.0,16.0,11605.0,10346.0,-2878.0,-4294.0,0.0,-8.0,3.0,1.0
2022-05-08 17:26:35.878638-07:00,857.0,905.9,1283.7,979.0,777.8,461.6,1490.3,1045.2,3471.0,3478.3,636.7,911.8,402.8,3496.6,767.8,758.7,3478.3,3477.1,424.7,583.5,411.4,518.7,243.9,237.8,3479.5,3477.1,591.5,477.4,824.4,1073.8,1248.8,518.7,16.0,-6.0,15.0,10613.0,9910.0,6262.0,4286.0,33.0,-13.0,3.0,10.0,-5.0,11.0,11606.0,10344.0,-2879.0,-4294.0,25.0,4.0,1.0,1.0
2022-05-08 17:26:35.968556-07:00,857.0,905.9,1266.7,975.6,777.8,456.1,1495.8,1042.6,3471.0,3478.3,633.5,904.2,402.8,3492.9,769.5,759.6,3489.2,3478.3,420.8,583.5,411.4,518.7,243.9,237.8,3481.9,3477.1,585.9,477.4,821.0,1073.8,1248.8,518.7,8.0,-3.0,15.0,10607.0,9914.0,6266.0,4287.0,6.0,23.0,6.0,0.0,1.0,19.0,11607.0,10347.0,-2876.0,-4287.0,9.0,33.0,5.0,1.0
2022-05-08 17:26:35.998566-07:00,864.6,913.5,1259.6,975.6,779.4,456.1,1495.8,1042.6,3471.0,3469.8,633.5,904.2,408.2,3492.9,769.5,759.6,3489.2,3478.3,420.8,585.1,411.4,514.7,242.4,244.7,3481.9,3477.1,585.9,477.4,821.0,1075.6,1235.5,511.5,0.0,-10.0,5.0,10602.0,9910.0,6274.0,4296.0,8.0,28.0,5.0,0.0,-3.0,14.0,11606.0,10353.0,-2868.0,-4279.0,15.0,31.0,8.0,1.0
2022-05-08 17:26:36.028632-07:00,864.6,913.5,1259.6,982.5,779.4,454.5,1471.8,1039.2,3471.0,3469.8,633.5,919.4,408.2,3495.3,762.9,754.6,3480.7,3475.9,420.0,585.1,412.1,514.7,242.4,244.7,3475.9,3469.8,583.5,477.4,826.0,1075.6,1235.5,511.5,3.0,-12.0,-2.0,10594.0,9914.0,6275.0,4304.0,3.0,25.0,42.0,0.0,-3.0,11.0,11607.0,10359.0,-2868.0,-4263.0,13.0,20.0,38.0,1.0
2022-05-08 17:26:36.209287-07:00,854.5,906.7,1257.8,982.5,777.8,454.5,1471.8,1039.2,3467.4,3477.1,631.1,919.4,401.2,3495.3,762.9,754.6,3480.7,3475.9,420.0,585.1,412.1,517.1,237.8,243.9,3475.9,3469.8,583.5,475.8,826.0,1074.7,1239.1,517.9,-5.0,-1.0,0.0,10588.0,9924.0,6263.0,4315.0,3.0,-43.0,59.0,-4.0,5.0,13.0,11614.0,10357.0,-2875.0,-4246.0,8.0,5.0,44.0,1.0
2022-05-08 17:26:36.210227-07:00,854.5,906.7,1257.8,979.0,777.8,454.5,1469.0,1040.9,3467.4,3477.1,631.1,909.3,401.2,3486.8,772.0,756.3,3480.7,3474.6,423.1,585.1,409.0,517.1,237.8,243.9,3472.2,3478.3,586.7,475.8,831.9,1074.7,1239.1,517.9,10.0,1.0,0.0,10595.0,9936.0,6227.0,4323.0,-28.0,-71.0,68.0,8.0,5.0,11.0,11620.0,10351.0,-2883.0,-4237.0,-17.0,-8.0,31.0,1.0
2022-05-08 17:26:36.239460-07:00,849.5,906.7,1266.7,979.0,771.1,454.5,1469.0,1040.9,3475.9,3472.2,634.3,909.3,406.7,3486.8,772.0,756.3,3480.7,3474.6,423.1,584.3,409.0,515.5,245.4,237.8,3472.2,3478.3,586.7,479.8,831.9,1077.3,1233.7,511.5,12.0,0.0,-3.0,10606.0,9946.0,6188.0,4328.0,-61.0,-38.0,43.0,1.0,2.0,1.0,11628.0,10342.0,-2895.0,-4231.0,-39.0,-26.0,39.0,1.0
2022-05-08 17:26:36.240617-07:00,849.5,906.7,1266.7,984.2,778.6,457.7,1451.6,1039.2,3475.9,3472.2,634.3,912.7,401.2,3494.1,770.3,751.3,3480.7,3480.7,426.2,584.3,416.1,515.5,245.4,237.8,3480.7,3480.7,583.5,479.8,826.0,1077.3,1233.7,511.5,8.0,1.0,15.0,10621.0,9942.0,6161.0,4340.0,-22.0,-32.0,30.0,7.0,-1.0,16.0,11644.0,10319.0,-2911.0,-4229.0,-35.0,-24.0,48.0,1.0
2022-05-08 17:26:36.298553-07:00,851.1,900.0,1273.9,980.7,778.6,457.7,1451.6,1039.2,3474.6,3478.3,631.9,912.7,401.2,3494.1,770.3,751.3,3480.7,3480.7,426.2,584.3,412.1,517.9,238.6,243.2,3480.7,3480.7,583.5,479.8,823.5,1078.2,1239.1,515.5,12.0,21.0,15.0,10630.0,9936.0,6146.0,4352.0,-80.0,48.0,-9.0,7.0,13.0,15.0,11656.0,10305.0,-2920.0,-4223.0,-41.0,-1.0,4.0,1.0
2022-05-08 17:26:36.328258-07:00,851.1,900.0,1273.9,980.7,777.8,456.1,1458.0,1036.6,3474.6,3478.3,631.9,912.7,404.3,3494.1,767.8,757.1,3480.7,3478.3,423.1,583.5,412.1,517.9,238.6,243.2,3472.2,3478.3,585.9,478.2,823.5,1078.2,1239.1,515.5,5.0,-1.0,-1.0,10642.0,9906.0,6152.0,4380.0,-60.0,42.0,-6.0,7.0,-3.0,9.0,11671.0,10290.0,-2912.0,-4225.0,-28.0,10.0,-12.0,1.0
2022-05-08 17:26:36.388759-07:00,850.3,897.4,1271.2,980.7,777.8,456.1,1458.0,1036.6,3478.3,3478.3,634.3,916.9,404.3,3494.1,767.8,757.1,3480.7,3478.3,423.1,583.5,410.6,520.3,245.4,245.4,3472.2,3478.3,585.9,478.2,820.2,1074.7,1234.6,525.0,8.0,-2.0,0.0,10650.0,9890.0,6154.0,4398.0,-45.0,15.0,25.0,12.0,-1.0,8.0,11678.0,10282.0,-2906.0,-4230.0,-25.0,-16.0,-8.0,1.0
2022-05-08 17:26:36.448559-07:00,850.3,897.4,1271.2,980.7,782.7,463.2,1460.8,1033.2,3478.3,3478.3,634.3,916.9,406.7,3488.0,776.1,759.6,3486.8,3477.1,420.8,586.7,410.6,520.3,245.4,245.4,3488.0,3485.6,588.3,479.0,820.2,1074.7,1234.6,525.0,14.0,-11.0,-6.0,10668.0,9869.0,6141.0,4417.0,-77.0,-25.0,-7.0,11.0,-2.0,2.0,11687.0,10268.0,-2905.0,-4240.0,-60.0,-16.0,-14.0,1.0
2022-05-08 17:26:36.478945-07:00,858.7,889.8,1276.5,981.6,782.7,463.2,1460.8,1033.2,3479.5,3480.7,632.7,913.5,406.7,3488.0,776.1,759.6,3486.8,3477.1,420.8,586.7,413.7,513.9,245.4,245.4,3488.0,3485.6,588.3,479.0,824.4,1072.1,1238.2,521.0,20.0,0.0,13.0,10681.0,9861.0,6129.0,4421.0,-47.0,6.0,-10.0,12.0,2.0,10.0,11696.0,10254.0,-2908.0,-4247.0,-22.0,-22.0,0.0,1.0
2022-05-08 17:26:36.598582-07:00,849.5,889.8,1276.5,981.6,788.6,464.0,1458.0,1030.6,3474.6,3480.7,632.7,913.5,403.5,3494.1,793.5,760.4,3478.3,3475.9,425.5,583.5,413.7,513.9,245.4,237.8,3477.1,3483.2,575.4,481.4,824.4,1072.1,1238.2,516.3,7.0,-4.0,9.0,10688.0,9850.0,6126.0,4434.0,-40.0,14.0,15.0,4.0,2.0,6.0,11701.0,10247.0,-2912.0,-4249.0,5.0,7.0,13.0,1.0
2022-05-08 17:26:36.599735-07:00,849.5,894.1,1275.6,973.9,788.6,464.0,1458.0,1033.2,3474.6,3475.9,635.1,900.0,403.5,3494.1,793.5,759.6,3474.6,3475.9,425.5,583.5,409.0,521.0,241.6,237.8,3479.5,3483.2,575.4,481.4,816.9,1080.8,1236.4,516.3,11.0,-16.0,2.0,10693.0,9838.0,6123.0,4453.0,-32.0,33.0,22.0,4.0,-1.0,3.0,11702.0,10246.0,-2914.0,-4245.0,1.0,5.0,11.0,1.0
2022-05-08 17:26:36.658575-07:00,851.1,894.1,1275.6,973.9,779.4,457.7,1473.6,1033.2,3467.4,3475.9,635.1,900.0,398.1,3491.7,784.4,759.6,3474.6,3467.4,423.9,582.6,409.0,521.0,241.6,239.3,3479.5,3480.7,590.7,479.0,816.9,1080.8,1236.4,518.7,1.0,-15.0,-2.0,10685.0,9836.0,6127.0,4470.0,9.0,26.0,22.0,3.0,-2.0,7.0,11705.0,10244.0,-2920.0,-4238.0,5.0,9.0,31.0,1.0
2022-05-08 17:26:36.838804-07:00,851.1,895.7,1278.3,979.9,779.4,457.7,1473.6,1033.2,3467.4,3471.0,631.1,908.4,398.1,3491.7,784.4,762.0,3480.7,3467.4,423.9,582.6,414.5,520.3,244.7,239.3,3478.3,3480.7,590.7,479.0,825.2,1072.9,1234.6,518.7,11.0,5.0,-8.0,10663.0,9861.0,6123.0,4473.0,105.0,-12.0,56.0,10.0,8.0,7.0,11709.0,10244.0,-2933.0,-4221.0,39.0,-8.0,55.0,1.0
2022-05-08 17:26:36.840194-07:00,857.9,895.7,1278.3,979.9,782.7,459.3,1455.2,1033.2,3475.9,3471.0,631.1,908.4,401.2,3495.3,794.4,762.0,3480.7,3480.7,420.0,585.9,414.5,520.3,244.7,247.7,3478.3,3478.3,587.5,480.6,825.2,1072.9,1234.6,518.7,11.0,-1.0,2.0,10652.0,9881.0,6110.0,4472.0,-25.0,-16.0,40.0,10.0,6.0,11.0,11707.0,10241.0,-2956.0,-4213.0,-12.0,-34.0,33.0,1.0
2022-05-08 17:26:36.841249-07:00,857.9,883.9,1268.5,975.6,782.7,459.3,1455.2,1035.7,3475.9,3472.2,635.1,913.5,401.2,3495.3,794.4,757.1,3478.3,3480.7,420.0,585.9,407.5,517.9,240.9,247.7,3475.9,3478.3,587.5,480.6,830.2,1069.5,1236.4,518.7,10.0,-9.0,6.0,10666.0,9871.0,6089.0,4490.0,-60.0,-7.0,20.0,6.0,-1.0,6.0,11719.0,10223.0,-2968.0,-4218.0,-52.0,-25.0,11.0,1.0
2022-05-08 17:26:36.842035-07:00,857.0,889.0,1268.5,975.6,782.7,458.5,1447.9,1035.7,3467.4,3477.1,635.1,913.5,405.1,3488.0,795.2,757.1,3478.3,3477.1,427.0,584.3,407.5,517.9,242.4,240.1,3475.9,3475.9,581.8,493.2,830.2,1069.5,1235.5,517.9,12.0,6.0,8.0,10667.0,9871.0,6084.0,4495.0,11.0,-7.0,-3.0,10.0,3.0,9.0,11726.0,10211.0,-2974.0,-4223.0,-3.0,-12.0,6.0,1.0
2022-05-08 17:26:36.898502-07:00,857.0,889.0,1272.1,981.6,782.7,458.5,1447.9,1028.8,3467.4,3477.1,636.7,911.0,405.1,3488.0,798.5,755.4,3488.0,3472.2,427.0,584.3,412.9,518.7,242.4,240.1,3483.2,3478.3,581.8,493.2,823.5,1075.6,1235.5,517.9,4.0,-13.0,2.0,10669.0,9867.0,6083.0,4499.0,-19.0,19.0,3.0,0.0,1.0,6.0,11726.0,10211.0,-2974.0,-4222.0,-9.0,-1.0,1.0,1.0
2022-05-08 17:26:36.928698-07:00,849.5,885.6,1272.1,981.6,779.4,459.3,1447.9,1028.8,3483.2,3481.9,636.7,911.0,405.1,3496.6,798.5,755.4,3488.0,3472.2,420.0,578.6,412.9,518.7,246.2,241.6,3483.2,3478.3,589.1,481.4,823.5,1075.6,1239.1,518.7,13.0,-10.0,5.0,10666.0,9868.0,6080.0,4509.0,12.0,-4.0,23.0,6.0,-3.0,7.0,11729.0,10209.0,-2979.0,-4218.0,12.0,1.0,25.0,1.0
2022-05-08 17:26:36.988638-07:00,849.5,885.6,1278.3,981.6,779.4,459.3,1448.8,1028.8,3483.2,3481.9,635.1,912.7,405.1,3496.6,795.2,757.9,3473.4,3467.4,420.0,578.6,409.8,521.0,246.2,241.6,3479.5,3469.8,589.1,481.4,827.7,1073.8,1239.1,518.7,5.0,3.0,1.0,10656.0,9878.0,6074.0,4517.0,11.0,12.0,44.0,5.0,2.0,8.0,11730.0,10208.0,-2989.0,-4206.0,2.0,1.0,35.0,1.0
2022-05-08 17:26:37.078572-07:00,852.8,882.3,1278.3,981.6,775.3,461.6,1448.8,1028.8,3478.3,3473.4,635.1,912.7,401.2,3501.4,795.2,757.9,3473.4,3467.4,423.1,579.4,409.8,521.0,246.2,244.7,3479.5,3469.8,586.7,483.7,827.7,1073.8,1243.5,509.9,9.0,-1.0,-2.0,10656.0,9882.0,6058.0,4532.0,-21.0,-21.0,45.0,9.0,-1.0,5.0,11737.0,10202.0,-2995.0,-4198.0,-14.0,-4.0,27.0,1.0
2022-05-08 17:26:37.079875-07:00,852.8,882.3,1275.6,982.5,775.3,461.6,1444.2,1034.9,3478.3,3473.4,634.3,914.4,401.2,3501.4,797.7,756.3,3469.8,3478.3,423.1,579.4,413.7,522.6,246.2,244.7,3488.0,3472.2,586.7,483.7,824.4,1076.4,1243.5,509.9,6.0,1.0,3.0,10659.0,9886.0,6040.0,4539.0,-11.0,-25.0,29.0,5.0,4.0,6.0,11746.0,10194.0,-3001.0,-4191.0,-20.0,-7.0,25.0,1.0
2022-05-08 17:26:37.139216-07:00,857.9,904.2,1273.0,982.5,778.6,458.5,1444.2,1034.9,3477.1,3474.6,631.9,914.4,402.8,3496.6,797.7,756.3,3469.8,3478.3,421.5,583.5,413.7,517.1,243.9,241.6,3488.0,3472.2,581.8,475.8,824.4,1075.6,1234.6,534.6,11.0,-2.0,3.0,10664.0,9886.0,6024.0,4548.0,-61.0,-5.0,31.0,7.0,0.0,6.0,11757.0,10178.0,-3008.0,-4192.0,-68.0,-13.0,25.0,1.0
2022-05-08 17:26:37.318593-07:00,857.9,904.2,1273.0,981.6,778.6,460.8,1447.9,1024.5,3477.1,3474.6,631.9,912.7,402.8,3495.3,791.0,754.6,3477.1,3473.4,423.9,583.5,412.9,517.1,243.9,241.6,3478.3,3471.0,581.0,475.8,822.7,1075.6,1234.6,534.6,-4.0,-23.0,3.0,10681.0,9878.0,5995.0,4566.0,-70.0,-37.0,68.0,-1.0,-3.0,2.0,11779.0,10149.0,-3022.0,-4189.0,-82.0,-45.0,68.0,1.0
2022-05-08 17:26:37.320765-07:00,852.0,894.1,1273.9,981.6,780.3,460.8,1447.9,1024.5,3478.3,3464.9,635.1,912.7,404.3,3495.3,791.0,754.6,3477.1,3473.4,423.9,578.6,412.9,521.8,237.8,241.6,3478.3,3471.0,581.0,479.0,822.7,1079.0,1258.7,515.5,-28.0,-3.0,-14.0,10711.0,9862.0,5946.0,4593.0,-181.0,-82.0,83.0,-14.0,-3.0,12.0,11827.0,10083.0,-3047.0,-4196.0,-226.0,-77.0,77.0,1.0
2022-05-08 17:26:37.321866-07:00,852.0,894.1,1273.9,984.2,780.3,461.6,1484.7,1015.1,3478.3,3464.9,635.1,912.7,404.3,3496.6,800.2,754.6,3473.4,3467.4,420.8,578.6,415.3,521.8,237.8,241.6,3478.3,3475.9,585.9,479.0,825.2,1079.0,1258.7,515.5,-30.0,-18.0,-6.0,10810.0,9809.0,5853.0,4594.0,-334.0,-271.0,45.0,-17.0,-16.0,10.0,11908.0,9970.0,-3058.0,-4229.0,-299.0,-107.0,100.0,1.0
2022-05-08 17:26:37.323523-07:00,852.8,899.1,1292.7,984.2,779.4,461.6,1484.7,1015.1,3467.4,3472.2,638.4,912.7,403.5,3496.6,800.2,754.6,3473.4,3467.4,420.8,581.8,415.3,521.8,240.9,247.0,3478.3,3475.9,585.9,479.8,825.2,1098.2,1339.5,515.5,-55.0,-37.0,14.0,10907.0,9796.0,5718.0,4564.0,-184.0,-356.0,83.0,-50.0,-34.0,-9.0,11990.0,9849.0,-3087.0,-4259.0,-265.0,-141.0,128.0,1.0
2022-05-08 17:26:37.378710-07:00,852.8,899.1,1292.7,979.9,779.4,464.0,1603.0,1021.1,3467.4,3472.2,638.4,905.0,403.5,3497.8,806.0,753.8,3479.5,3472.2,420.8,581.8,409.0,521.8,240.9,247.0,3467.4,3472.2,592.3,479.8,824.4,1098.2,1339.5,515.5,17.0,-22.0,31.0,10972.0,9816.0,5570.0,4547.0,-153.0,-280.0,158.0,21.0,-27.0,12.0,11993.0,9824.0,-3164.0,-4252.0,-27.0,-133.0,164.0,1.0
2022-05-08 17:26:37.438773-07:00,856.2,912.7,1297.2,985.9,782.7,464.0,1603.0,1021.1,3473.4,3472.2,647.3,913.5,404.3,3497.8,806.0,753.8,3479.5,3472.2,420.8,585.1,410.6,528.2,240.9,244.7,3467.4,3472.2,592.3,479.0,826.9,1111.2,1462.6,516.3,54.0,7.0,9.0,11026.0,9808.0,5475.0,4548.0,-57.0,-191.0,64.0,78.0,0.0,18.0,11991.0,9813.0,-3232.0,-4233.0,181.0,-23.0,69.0,1.0
2022-05-08 17:26:37.498713-07:00,856.2,912.7,1297.2,985.9,781.9,470.3,1670.1,1038.3,3473.4,3472.2,647.3,913.5,399.6,3500.2,854.5,766.2,3471.0,3477.1,424.7,582.6,410.6,528.2,240.9,244.7,3483.2,3472.2,592.3,480.6,826.9,1111.2,1462.6,516.3,57.0,41.0,-35.0,10994.0,9896.0,5433.0,4486.0,208.0,-132.0,19.0,13.0,51.0,-26.0,11926.0,9885.0,-3287.0,-4209.0,172.0,-115.0,10.0,1.0
2022-05-08 17:26:37.528613-07:00,861.2,905.9,1318.7,991.0,781.9,470.3,1670.1,1038.3,3468.6,3477.1,656.2,914.4,399.6,3500.2,854.5,766.2,3471.0,3477.1,424.7,582.6,410.6,537.0,237.8,237.8,3483.2,3472.2,592.3,480.6,828.5,1142.7,1590.8,519.5,-18.0,-9.0,-5.0,11047.0,9871.0,5375.0,4481.0,-364.0,-172.0,33.0,-29.0,36.0,10.0,11910.0,9872.0,-3328.0,-4247.0,-135.0,-154.0,20.0,1.0
2022-05-08 17:26:37.588707-07:00,861.2,905.9,1318.7,991.0,786.9,470.3,1700.5,1033.2,3468.6,3477.1,656.2,914.4,403.5,3484.4,918.6,778.6,3472.2,3479.5,424.7,589.9,410.6,537.0,237.8,237.8,3479.5,3478.3,594.7,480.6,828.5,1142.7,1590.8,519.5,18.0,47.0,-2.0,11142.0,9802.0,5314.0,4470.0,-203.0,-70.0,-125.0,0.0,15.0,-17.0,11934.0,9809.0,-3362.0,-4299.0,-151.0,-166.0,-45.0,1.0
2022-05-08 17:26:37.619209-07:00,862.9,905.9,1331.4,985.9,786.9,470.3,1700.5,1033.2,3477.1,3468.6,657.0,908.4,403.5,3484.4,918.6,778.6,3472.2,3479.5,424.7,589.9,415.3,537.8,242.4,247.0,3479.5,3478.3,594.7,480.6,827.7,1196.5,1714.8,525.0,17.0,-2.0,17.0,11210.0,9725.0,5313.0,4467.0,-292.0,40.0,-83.0,-14.0,29.0,7.0,11955.0,9740.0,-3381.0,-4383.0,-117.0,-166.0,-98.0,1.0
2022-05-08 17:26:37.679162-07:00,862.9,905.9,1331.4,985.9,798.5,470.3,1712.9,1016.8,3477.1,3468.6,657.0,908.4,402.8,3489.2,1002.2,792.7,3483.2,3475.9,424.7,589.1,415.3,537.8,242.4,247.0,3475.9,3477.1,598.7,482.2,827.7,1196.5,1714.8,525.0,28.0,24.0,-28.0,11285.0,9633.0,5311.0,4481.0,-252.0,3.0,-120.0,20.0,20.0,-21.0,11972.0,9685.0,-3381.0,-4459.0,-197.0,-119.0,-97.0,1.0
2022-05-08 17:26:37.739349-07:00,860.4,914.4,1339.5,984.2,798.5,470.3,1712.9,997.9,3469.8,3468.6,664.4,914.4,402.8,3489.2,1002.2,803.5,3480.7,3475.9,424.7,589.1,410.6,541.8,244.7,246.2,3479.5,3477.1,598.7,482.2,831.9,1231.9,1799.4,522.6,25.0,-16.0,-25.0,11360.0,9566.0,5288.0,4463.0,-216.0,-121.0,-77.0,3.0,29.0,-20.0,11986.0,9632.0,-3385.0,-4533.0,-163.0,-160.0,-77.0,1.0
2022-05-08 17:26:37.768578-07:00,862.1,914.4,1339.5,984.2,798.5,469.5,1694.8,997.9,3477.1,3468.6,664.4,914.4,406.7,3499.0,1064.3,803.5,3480.7,3472.2,423.1,577.8,410.6,541.8,244.7,244.7,3479.5,3472.2,593.1,475.0,831.9,1231.9,1799.4,521.8,28.0,6.0,0.0,11426.0,9490.0,5278.0,4469.0,-281.0,65.0,-74.0,19.0,6.0,-7.0,11997.0,9570.0,-3410.0,-4615.0,-195.0,-199.0,-77.0,1.0
2022-05-08 17:26:37.949341-07:00,862.1,919.4,1333.2,995.3,798.5,469.5,1694.8,979.9,3477.1,3475.9,668.4,911.8,406.7,3499.0,1064.3,816.0,3471.0,3472.2,423.1,577.8,417.6,539.4,246.2,244.7,3481.9,3472.2,593.1,475.0,835.2,1245.3,1835.2,521.8,16.0,6.0,-7.0,11489.0,9416.0,5275.0,4466.0,-126.0,-54.0,-106.0,9.0,3.0,-12.0,12013.0,9507.0,-3424.0,-4692.0,-116.0,-157.0,-69.0,1.0
2022-05-08 17:26:37.950840-07:00,856.2,919.4,1333.2,995.3,786.1,460.8,1682.4,979.9,3468.6,3475.9,668.4,911.8,409.0,3494.1,1075.6,816.0,3471.0,3478.3,424.7,585.1,417.6,539.4,246.2,244.7,3481.9,3477.1,602.8,486.1,835.2,1245.3,1835.2,521.8,33.0,9.0,22.0,11526.0,9369.0,5283.0,4461.0,-261.0,95.0,-118.0,-8.0,38.0,0.0,12013.0,9457.0,-3450.0,-4773.0,-154.0,-236.0,-119.0,1.0
2022-05-08 17:26:37.978619-07:00,856.2,919.4,1327.8,1002.2,786.1,460.8,1682.4,981.6,3468.6,3473.4,666.0,919.4,409.0,3494.1,1075.6,818.5,3478.3,3478.3,424.7,585.1,415.3,536.2,241.6,244.7,3478.3,3477.1,602.8,486.1,840.3,1242.6,1862.5,521.8,17.0,-17.0,22.0,11591.0,9257.0,5312.0,4491.0,-87.0,130.0,-130.0,27.0,7.0,2.0,12024.0,9384.0,-3470.0,-4874.0,-56.0,-169.0,-108.0,1.0
2022-05-08 17:26:37.979732-07:00,857.9,919.4,1327.8,1002.2,795.2,466.4,1656.8,981.6,3475.9,3473.4,666.0,919.4,404.3,3500.2,1110.4,818.5,3478.3,3475.9,424.7,584.3,415.3,536.2,241.6,240.9,3478.3,3478.3,606.0,481.4,840.3,1242.6,1862.5,520.3,45.0,-29.0,46.0,11615.0,9191.0,5358.0,4509.0,-271.0,275.0,-140.0,43.0,15.0,3.0,11999.0,9356.0,-3498.0,-4968.0,-127.0,-234.0,-124.0,1.0
2022-05-08 17:26:38.038691-07:00,857.9,918.6,1329.6,1015.9,795.2,466.4,1638.8,986.7,3475.9,3477.1,666.8,914.4,404.3,3500.2,1119.1,825.2,3475.9,3475.9,424.7,584.3,412.9,538.6,243.9,240.9,3469.8,3473.4,606.0,481.4,1046.1,1247.1,1924.3,520.3,19.0,40.0,49.0,11625.0,9060.0,5477.0,4604.0,-151.0,573.0,-107.0,11.0,37.0,12.0,11983.0,9305.0,-3531.0,-5079.0,-72.0,-211.0,-141.0,1.0
2022-05-08 17:26:38.068547-07:00,865.4,920.3,1329.6,1015.9,839.4,466.4,1638.8,986.7,3472.2,3478.3,666.8,914.4,406.7,3495.3,1119.1,825.2,3475.9,3475.9,424.7,584.3,412.9,538.6,243.9,243.9,3469.8,3473.4,607.6,480.6,1046.1,1247.1,1902.6,573.8,2.0,-29.0,-31.0,11563.0,8952.0,5669.0,4738.0,85.0,497.0,6.0,12.0,-7.0,6.0,11918.0,9341.0,-3561.0,-5145.0,229.0,-124.0,-132.0,1.0
2022-05-08 17:26:38.128747-07:00,865.4,920.3,1324.1,1030.6,839.4,466.4,1613.4,967.9,3472.2,3478.3,666.0,913.5,406.7,3495.3,1121.7,816.0,3474.6,3488.0,424.7,584.3,414.5,539.4,243.9,243.9,3475.9,3474.6,607.6,480.6,1204.4,1227.5,1902.6,573.8,18.0,60.0,30.0,11493.0,8900.0,5806.0,4840.0,-186.0,487.0,-2.0,13.0,29.0,17.0,11839.0,9395.0,-3594.0,-5205.0,36.0,-131.0,-143.0,1.0
2022-05-08 17:26:38.188606-07:00,857.9,922.0,1324.1,1030.6,931.3,464.8,1613.4,967.9,3471.0,3478.3,666.0,913.5,408.2,3490.5,1121.7,816.0,3474.6,3488.0,425.5,585.9,414.5,539.4,243.9,243.2,3475.9,3474.6,609.2,482.2,1204.4,1227.5,1876.2,583.5,-9.0,-8.0,-7.0,11465.0,8769.0,5938.0,4982.0,-80.0,407.0,-90.0,4.0,7.0,21.0,11804.0,9412.0,-3572.0,-5269.0,63.0,23.0,-177.0,1.0
2022-05-08 17:26:38.218670-07:00,857.9,922.0,1338.6,1056.5,931.3,464.8,1593.6,976.5,3471.0,3478.3,660.3,914.4,408.2,3490.5,1134.0,811.9,3473.4,3477.1,425.5,585.9,413.7,537.0,243.9,243.2,3475.9,3473.4,609.2,482.2,1156.8,1202.7,1876.2,583.5,-2.0,12.0,-17.0,11448.0,8676.0,6068.0,5028.0,-48.0,317.0,-192.0,21.0,33.0,6.0,11780.0,9435.0,-3512.0,-5322.0,-22.0,47.0,-212.0,1.0
2022-05-08 17:26:38.278929-07:00,856.2,910.1,1338.6,1056.5,951.7,460.8,1593.6,976.5,3477.1,3467.4,660.3,914.4,400.4,3495.3,1134.0,811.9,3473.4,3477.1,425.5,581.8,413.7,537.0,246.2,243.9,3475.9,3473.4,610.8,478.2,1156.8,1202.7,1833.3,585.1,20.0,40.0,-36.0,11419.0,8650.0,6189.0,4991.0,188.0,48.0,-279.0,3.0,39.0,-29.0,11706.0,9522.0,-3434.0,-5378.0,173.0,83.0,-353.0,1.0
2022-05-08 17:26:38.338162-07:00,856.2,910.1,1366.6,1068.6,951.7,464.0,1567.4,963.7,3477.1,3467.4,653.8,911.8,400.4,3489.2,1134.9,807.7,3472.2,3472.2,425.5,581.8,416.1,538.6,246.2,243.9,3479.5,3477.1,619.7,478.2,1090.3,1193.8,1833.3,585.1,10.0,58.0,-4.0,11400.0,8662.0,6296.0,4880.0,53.0,74.0,-325.0,0.0,49.0,12.0,11628.0,9609.0,-3336.0,-5455.0,28.0,61.0,-366.0,1.0
2022-05-08 17:26:38.368908-07:00,857.9,909.3,1367.6,1068.6,955.1,464.0,1567.4,963.7,3475.9,3473.4,650.5,911.8,405.9,3489.2,1134.9,807.7,3472.2,3472.2,425.5,586.7,416.1,535.4,249.2,248.5,3479.5,3477.1,619.7,479.0,1090.3,1192.9,1828.4,585.1,0.0,34.0,31.0,11424.0,8599.0,6393.0,4808.0,43.0,20.0,-296.0,23.0,32.0,55.0,11582.0,9644.0,-3214.0,-5564.0,8.0,71.0,-436.0,1.0
2022-05-08 17:26:38.458321-07:00,857.9,909.3,1367.6,1072.1,955.1,466.4,1570.2,954.3,3475.9,3473.4,650.5,916.0,405.9,3491.7,1106.9,802.7,3481.9,3474.6,421.5,586.7,415.3,535.4,249.2,248.5,3478.3,3479.5,604.4,479.0,1067.7,1192.9,1828.4,585.1,12.0,82.0,72.0,11446.0,8576.0,6466.0,4697.0,108.0,17.0,-342.0,22.0,53.0,47.0,11502.0,9717.0,-3070.0,-5683.0,92.0,108.0,-527.0,1.0
2022-05-08 17:26:38.488280-07:00,857.9,907.6,1371.2,1072.1,934.7,466.4,1570.2,954.3,3473.4,3471.0,646.5,916.0,406.7,3491.7,1106.9,802.7,3481.9,3474.6,421.5,586.7,415.3,532.2,242.4,242.4,3478.3,3479.5,604.4,473.5,1067.7,1196.5,1817.8,576.2,-20.0,38.0,45.0,11473.0,8518.0,6572.0,4590.0,-46.0,44.0,-367.0,0.0,52.0,69.0,11411.0,9795.0,-2900.0,-5821.0,12.0,153.0,-582.0,1.0
2022-05-08 17:26:38.518734-07:00,857.9,907.6,1371.2,1062.5,934.7,463.2,1553.4,954.3,3473.4,3471.0,646.5,916.9,406.7,3497.8,1102.5,805.2,3478.3,3467.4,430.2,586.7,409.0,532.2,242.4,242.4,3474.6,3472.2,602.8,473.5,1063.4,1196.5,1817.8,576.2,26.0,-1.0,21.0,11531.0,8423.0,6656.0,4496.0,-103.0,104.0,-403.0,15.0,-1.0,-2.0,11328.0,9853.0,-2709.0,-5975.0,7.0,55.0,-617.0,1.0
2022-05-08 17:26:38.578627-07:00,864.6,899.1,1372.1,1062.5,926.2,463.2,1553.4,954.3,3483.2,3473.4,642.4,916.9,406.7,3497.8,1102.5,805.2,3478.3,3467.4,430.2,592.3,409.0,530.6,243.9,243.9,3474.6,3472.2,602.8,473.5,1063.4,1187.6,1808.1,573.8,-11.0,-53.0,-16.0,11544.0,8363.0,6772.0,4402.0,164.0,5.0,-259.0,23.0,-31.0,27.0,11212.0,9945.0,-2546.0,-6111.0,161.0,125.0,-548.0,1.0
2022-05-08 17:26:38.638859-07:00,864.6,899.1,1372.1,1063.4,920.3,461.6,1553.4,953.4,3483.2,3473.4,642.4,921.1,405.9,3500.2,1099.9,806.0,3485.6,3469.8,423.9,589.1,416.1,530.6,243.9,243.9,3479.5,3474.6,608.4,475.8,1054.8,1187.6,1808.1,573.8,31.0,-13.0,-21.0,11575.0,8351.0,6795.0,4306.0,-220.0,-206.0,-218.0,14.0,-22.0,1.0,11138.0,9990.0,-2409.0,-6229.0,-114.0,7.0,-421.0,1.0
2022-05-08 17:26:38.668632-07:00,862.1,889.8,1383.0,1066.9,920.3,461.6,1553.4,953.4,3472.2,3469.8,643.2,912.7,405.9,3500.2,1099.9,806.0,3485.6,3469.8,423.9,589.1,410.6,528.2,246.2,243.9,3479.5,3474.6,608.4,475.8,1059.1,1189.4,1794.5,570.6,61.0,-102.0,-1.0,11700.0,8248.0,6744.0,4247.0,-290.0,-195.0,-210.0,37.0,-80.0,-26.0,11126.0,9946.0,-2299.0,-6359.0,-204.0,-78.0,-302.0,1.0
2022-05-08 17:26:38.758605-07:00,862.1,889.8,1383.0,1066.9,908.4,454.5,1550.6,945.8,3472.2,3469.8,643.2,912.7,402.0,3490.5,1092.9,811.0,3474.6,3475.9,423.1,589.1,410.6,528.2,246.2,243.9,3480.7,3477.1,609.2,475.0,1059.1,1189.4,1794.5,570.6,50.0,-123.0,20.0,11780.0,8184.0,6727.0,4176.0,10.0,-157.0,-205.0,65.0,-90.0,7.0,11106.0,9931.0,-2239.0,-6438.0,40.0,9.0,-175.0,1.0
2022-05-08 17:26:38.788353-07:00,862.1,893.2,1374.8,1062.5,908.4,454.5,1550.6,945.8,3474.6,3475.9,648.9,916.0,402.0,3490.5,1092.9,811.0,3474.6,3475.9,423.1,589.1,409.0,529.0,242.4,243.9,3480.7,3477.1,609.2,475.0,1038.3,1186.7,1790.7,567.4,33.0,-27.0,1.0,11778.0,8222.0,6731.0,4099.0,115.0,-51.0,-47.0,40.0,-31.0,7.0,11063.0,9960.0,-2241.0,-6467.0,86.0,-45.0,-60.0,1.0
2022-05-08 17:26:38.818392-07:00,862.1,893.2,1374.8,1062.5,905.9,460.0,1538.5,947.5,3474.6,3475.9,648.9,916.0,406.7,3494.1,1087.7,801.9,3488.0,3474.6,424.7,585.1,409.0,529.0,242.4,243.9,3477.1,3477.1,602.8,474.3,1038.3,1186.7,1790.7,567.4,35.0,-23.0,8.0,11795.0,8215.0,6725.0,4076.0,-65.0,-28.0,-45.0,35.0,-7.0,-2.0,11058.0,9951.0,-2248.0,-6487.0,-30.0,-61.0,-6.0,1.0
2022-05-08 17:26:38.878342-07:00,861.2,894.1,1383.0,1055.6,905.9,460.0,1538.5,947.5,3475.9,3467.4,641.6,911.8,406.7,3494.1,1087.7,801.9,3488.0,3474.6,424.7,585.1,412.1,532.2,243.9,246.2,3477.1,3477.1,602.8,474.3,1021.1,1183.2,1787.8,569.8,30.0,-1.0,20.0,11802.0,8216.0,6712.0,4073.0,55.0,-26.0,-6.0,28.0,-2.0,11.0,11063.0,9938.0,-2271.0,-6490.0,32.0,-9.0,4.0,1.0
2022-05-08 17:26:38.998486-07:00,861.2,894.1,1383.0,1055.6,905.9,456.1,1535.7,941.5,3475.9,3467.4,641.6,911.8,406.7,3497.8,1081.6,799.4,3467.4,3474.6,421.5,585.9,412.1,532.2,243.9,241.6,3477.1,3475.9,614.9,474.3,1021.1,1183.2,1787.8,575.4,3.0,-3.0,17.0,11791.0,8221.0,6727.0,4071.0,27.0,65.0,-35.0,18.0,4.0,32.0,11059.0,9944.0,-2283.0,-6483.0,45.0,7.0,-7.0,1.0
2022-05-08 17:26:39.028853-07:00,861.2,889.0,1375.7,1054.8,905.9,456.1,1535.7,944.9,3475.9,3461.3,637.6,911.8,406.7,3497.8,1081.6,801.0,3479.5,3474.6,421.5,585.9,412.1,534.6,240.9,241.6,3484.4,3475.9,614.9,474.3,1022.8,1180.6,1779.1,575.4,2.0,-9.0,29.0,11784.0,8218.0,6742.0,4071.0,-9.0,29.0,-18.0,10.0,-19.0,39.0,11061.0,9943.0,-2290.0,-6480.0,-19.0,25.0,18.0,1.0
2022-05-08 17:26:39.029917-07:00,857.9,889.0,1375.7,1054.8,898.3,455.3,1527.3,944.9,3469.8,3461.3,637.6,911.8,401.2,3506.3,1084.2,801.0,3479.5,3483.2,421.5,584.3,412.1,534.6,240.9,237.8,3484.4,3480.7,602.0,458.5,1022.8,1180.6,1779.1,567.4,6.0,-3.0,16.0,11796.0,8202.0,6747.0,4062.0,3.0,-2.0,-44.0,14.0,4.0,21.0,11082.0,9929.0,-2283.0,-6468.0,-10.0,54.0,20.0,1.0
2022-05-08 17:26:39.088775-07:00,857.9,879.7,1383.9,1050.4,898.3,455.3,1527.3,947.5,3469.8,3468.6,640.0,911.8,401.2,3506.3,1084.2,791.0,3471.0,3483.2,421.5,584.3,414.5,527.4,243.2,237.8,3478.3,3480.7,602.0,458.5,1015.9,1180.6,1779.1,567.4,4.0,5.0,10.0,11793.0,8198.0,6756.0,4065.0,-6.0,58.0,-4.0,16.0,16.0,13.0,11087.0,9935.0,-2280.0,-6451.0,20.0,31.0,7.0,1.0
2022-05-08 17:26:39.118898-07:00,859.5,879.7,1383.9,1050.4,897.4,456.1,1527.3,947.5,3466.1,3468.6,640.0,911.8,406.7,3497.8,1081.6,791.0,3471.0,3475.9,423.1,585.1,414.5,527.4,243.2,243.9,3478.3,3475.9,599.6,472.7,1015.9,1180.6,1779.1,559.4,11.0,8.0,8.0,11793.0,8186.0,6765.0,4072.0,-39.0,24.0,-35.0,16.0,12.0,3.0,11091.0,9936.0,-2274.0,-6444.0,-19.0,28.0,-12.0,1.0
2022-05-08 17:26:39.178577-07:00,859.5,889.0,1393.9,1043.5,897.4,456.1,1527.3,943.2,3466.1,3478.3,640.0,913.5,406.7,3497.8,1081.6,802.7,3483.2,3475.9,423.1,585.1,410.6,532.2,241.6,243.9,3478.3,3475.9,599.6,472.7,1005.6,1177.9,1780.1,559.4,8.0,8.0,0.0,11791.0,8176.0,6779.0,4077.0,15.0,33.0,-8.0,5.0,-4.0,8.0,11095.0,9938.0,-2265.0,-6437.0,11.0,30.0,-7.0,1.0
2022-05-08 17:26:39.238308-07:00,868.8,889.0,1393.9,1043.5,894.9,456.9,1521.8,943.2,3467.4,3479.5,640.0,913.5,409.8,3495.3,1087.7,802.7,3483.2,3477.1,423.9,584.3,410.6,532.2,243.2,246.2,3478.3,3483.2,599.6,475.0,1005.6,1177.9,1775.2,561.8,14.0,0.0,1.0,11796.0,8162.0,6782.0,4082.0,-86.0,5.0,-25.0,11.0,-1.0,4.0,11105.0,9930.0,-2258.0,-6434.0,-80.0,6.0,-5.0,1.0
2022-05-08 17:26:39.268326-07:00,868.8,889.0,1382.1,1058.2,894.9,456.9,1522.7,939.8,3467.4,3479.5,641.6,919.4,409.8,3495.3,1079.0,799.4,3467.4,3475.9,423.9,584.3,414.5,531.4,243.2,246.2,3475.9,3475.9,599.6,475.0,1007.3,1182.3,1775.2,561.8,16.0,-13.0,0.0,11808.0,8139.0,6788.0,4082.0,-5.0,33.0,-47.0,11.0,-1.0,0.0,11120.0,9916.0,-2249.0,-6434.0,-9.0,11.0,-5.0,1.0
2022-05-08 17:26:39.328227-07:00,852.8,883.1,1382.1,1058.2,889.0,453.7,1522.7,939.8,3467.4,3474.6,641.6,919.4,404.3,3491.7,1079.0,799.4,3467.4,3475.9,423.9,583.5,414.5,531.4,242.4,240.1,3475.9,3475.9,597.1,471.9,1007.3,1182.3,1770.4,554.6,0.0,6.0,-2.0,11798.0,8143.0,6803.0,4079.0,22.0,-1.0,-5.0,12.0,7.0,14.0,11118.0,9919.0,-2253.0,-6433.0,12.0,-2.0,2.0,1.0
2022-05-08 17:26:39.388530-07:00,852.8,883.1,1383.0,1056.5,889.0,453.7,1510.6,940.7,3467.4,3474.6,640.0,914.4,404.3,3491.7,1072.9,800.2,3469.8,3481.9,423.9,583.5,410.6,528.2,242.4,240.1,3477.1,3480.7,597.1,471.9,1007.3,1177.9,1770.4,554.6,13.0,-11.0,5.0,11809.0,8138.0,6794.0,4073.0,-36.0,-43.0,-29.0,10.0,-6.0,4.0,11124.0,9910.0,-2254.0,-6434.0,-33.0,-14.0,10.0,1.0
2022-05-08 17:26:39.418578-07:00,857.9,878.0,1383.0,1056.5,891.5,451.4,1510.6,940.7,3469.8,3473.4,640.0,914.4,405.1,3497.8,1072.9,800.2,3469.8,3481.9,420.0,588.3,410.6,528.2,240.9,243.9,3477.1,3480.7,597.9,469.5,1007.3,1177.9,1771.4,558.6,4.0,-14.0,16.0,11823.0,8129.0,6782.0,4072.0,-26.0,-28.0,10.0,17.0,-11.0,23.0,11139.0,9894.0,-2261.0,-6432.0,-30.0,-10.0,45.0,1.0
2022-05-08 17:26:39.478332-07:00,857.9,878.0,1383.0,1053.9,891.5,451.4,1520.8,936.4,3469.8,3473.4,640.8,911.0,405.1,3497.8,1067.7,799.4,3479.5,3472.2,420.0,588.3,414.5,529.8,240.9,243.9,3483.2,3467.4,597.9,469.5,1010.8,1177.9,1771.4,558.6,17.0,-6.0,18.0,11842.0,8120.0,6759.0,4072.0,-54.0,-49.0,0.0,18.0,11.0,3.0,11165.0,9871.0,-2268.0,-6419.0,-51.0,4.0,55.0,1.0
2022-05-08 17:26:39.538347-07:00,861.2,880.6,1380.3,1053.9,885.6,455.3,1520.8,936.4,3472.2,3471.0,638.4,911.0,404.3,3502.7,1067.7,799.4,3479.5,3472.2,422.3,588.3,414.5,529.8,243.9,240.9,3483.2,3467.4,601.2,471.9,1010.8,1178.8,1777.2,566.6,10.0,0.0,18.0,11851.0,8111.0,6743.0,4089.0,-22.0,13.0,26.0,17.0,-3.0,14.0,11186.0,9855.0,-2282.0,-6402.0,-27.0,3.0,61.0,1.0
2022-05-08 17:26:39.568680-07:00,861.2,880.6,1380.3,1051.3,885.6,453.0,1510.6,932.2,3472.2,3471.0,638.4,916.0,404.3,3500.2,1071.2,799.4,3472.2,3473.4,423.9,588.3,414.5,529.8,243.9,240.9,3478.3,3483.2,603.6,471.9,1000.5,1178.8,1777.2,566.6,14.0,26.0,19.0,11850.0,8107.0,6745.0,4097.0,11.0,22.0,-36.0,18.0,24.0,11.0,11203.0,9847.0,-2289.0,-6381.0,-14.0,39.0,32.0,1.0
2022-05-08 17:26:39.628589-07:00,857.0,879.7,1381.2,1051.3,892.4,453.0,1510.6,932.2,3467.4,3478.3,640.8,916.0,407.5,3500.2,1071.2,799.4,3472.2,3473.4,423.9,587.5,414.5,529.8,243.2,247.7,3478.3,3483.2,603.6,467.1,1000.5,1176.2,1766.6,557.8,3.0,-5.0,7.0,11848.0,8096.0,6763.0,4095.0,10.0,48.0,-50.0,9.0,-3.0,22.0,11216.0,9841.0,-2286.0,-6369.0,-15.0,22.0,10.0,1.0
2022-05-08 17:26:39.658717-07:00,857.0,879.7,1381.2,1050.4,892.4,448.2,1507.8,930.5,3467.4,3478.3,640.8,911.0,407.5,3491.7,1068.6,800.2,3480.7,3467.4,421.5,587.5,412.1,529.8,243.2,247.7,3472.2,3474.6,602.8,467.1,997.9,1176.2,1766.6,557.8,10.0,-8.0,-3.0,11844.0,8101.0,6771.0,4085.0,14.0,-25.0,11.0,7.0,-8.0,5.0,11224.0,9840.0,-2285.0,-6357.0,-12.0,10.0,37.0,1.0
2022-05-08 17:26:39.718793-07:00,857.9,873.0,1380.3,1050.4,883.9,448.2,1507.8,930.5,3467.4,3477.1,639.2,911.0,405.1,3491.7,1068.6,800.2,3480.7,3467.4,421.5,589.1,412.1,531.4,242.4,237.8,3472.2,3474.6,602.8,468.7,997.9,1180.6,1747.3,566.6,15.0,-9.0,23.0,11849.0,8094.0,6770.0,4085.0,-4.0,34.0,-17.0,15.0,-6.0,21.0,11238.0,9830.0,-2294.0,-6346.0,-15.0,9.0,48.0,1.0
2022-05-08 17:26:39.778671-07:00,857.9,873.0,1380.3,1047.0,883.9,454.5,1502.3,931.3,3467.4,3477.1,639.2,919.4,405.1,3485.6,1071.2,796.9,3475.9,3473.4,423.1,589.1,413.7,531.4,242.4,237.8,3475.9,3478.3,594.7,468.7,993.6,1180.6,1747.3,566.6,18.0,-3.0,15.0,11840.0,8094.0,6782.0,4093.0,32.0,66.0,25.0,13.0,6.0,5.0,11245.0,9833.0,-2305.0,-6323.0,34.0,33.0,49.0,1.0
2022-05-08 17:26:39.808619-07:00,856.2,877.2,1383.0,1053.9,882.3,454.5,1502.3,931.3,3472.2,3467.4,640.0,917.7,409.0,3485.6,1071.2,796.9,3475.9,3473.4,423.1,581.8,411.4,529.0,242.4,243.2,3475.9,3478.3,594.7,475.0,988.5,1170.9,1756.0,556.2,18.0,8.0,-6.0,11815.0,8096.0,6802.0,4126.0,7.0,94.0,44.0,6.0,5.0,1.0,11248.0,9843.0,-2319.0,-6297.0,26.0,19.0,54.0,1.0
2022-05-08 17:26:39.868502-07:00,856.2,877.2,1383.0,1053.9,882.3,454.5,1507.8,930.5,3472.2,3467.4,640.0,917.7,405.9,3486.8,1072.1,796.9,3467.4,3480.7,419.2,586.7,411.4,529.0,242.4,243.2,3469.8,3480.7,594.7,469.5,988.5,1170.9,1756.0,556.2,7.0,1.0,2.0,11798.0,8091.0,6819.0,4158.0,-4.0,64.0,31.0,12.0,3.0,15.0,11256.0,9841.0,-2335.0,-6280.0,22.0,10.0,50.0,1.0
2022-05-08 17:26:39.928570-07:00,860.4,885.6,1377.5,1053.0,882.3,454.5,1507.8,930.5,3475.9,3472.2,636.7,916.0,405.9,3486.8,1072.1,796.9,3467.4,3480.7,419.2,586.7,414.5,533.0,242.4,243.9,3469.8,3480.7,594.7,469.5,990.2,1170.9,1757.0,556.2,11.0,-2.0,0.0,11783.0,8099.0,6823.0,4175.0,19.0,28.0,43.0,8.0,0.0,2.0,11258.0,9848.0,-2353.0,-6259.0,30.0,2.0,58.0,1.0
2022-05-08 17:26:39.988717-07:00,860.4,885.6,1377.5,1053.0,878.0,453.7,1503.2,926.2,3475.9,3472.2,636.7,916.0,405.1,3497.8,1073.8,793.5,3473.4,3479.5,424.7,585.9,414.5,533.0,242.4,243.9,3479.5,3483.2,606.8,473.5,990.2,1170.9,1757.0,556.2,9.0,-4.0,7.0,11770.0,8106.0,6826.0,4195.0,19.0,32.0,35.0,11.0,0.0,15.0,11265.0,9849.0,-2373.0,-6238.0,13.0,14.0,66.0,1.0
2022-05-08 17:26:40.018748-07:00,860.4,881.4,1377.5,1059.9,878.0,453.7,1503.2,926.2,3474.6,3473.4,636.7,912.7,405.1,3497.8,1073.8,793.5,3473.4,3479.5,424.7,585.9,407.5,528.2,245.4,245.4,3479.5,3483.2,606.8,473.5,974.8,1169.1,1748.3,557.0,6.0,12.0,5.0,11755.0,8127.0,6828.0,4195.0,48.0,12.0,17.0,8.0,16.0,7.0,11270.0,9854.0,-2392.0,-6213.0,38.0,1.0,59.0,1.0
2022-05-08 17:26:40.168692-07:00,860.4,881.4,1377.5,1059.9,879.7,449.8,1502.3,931.3,3474.6,3473.4,636.7,912.7,403.5,3491.7,1066.0,796.0,3478.3,3485.6,420.0,587.5,407.5,528.2,245.4,245.4,3488.0,3488.0,597.1,472.7,974.8,1169.1,1748.3,557.0,3.0,-11.0,6.0,11744.0,8138.0,6833.0,4195.0,34.0,5.0,-1.0,6.0,0.0,12.0,11278.0,9852.0,-2412.0,-6194.0,3.0,-3.0,73.0,1.0
2022-05-08 17:26:40.170408-07:00,865.4,878.9,1373.9,1057.3,879.7,449.8,1502.3,923.7,3478.3,3469.8,640.8,917.7,403.5,3491.7,1066.0,794.4,3477.1,3485.6,420.0,587.5,411.4,526.6,236.3,244.7,3479.5,3488.0,597.1,472.7,979.9,1174.4,1747.3,556.2,9.0,-85.0,8.0,11733.0,8155.0,6836.0,4189.0,69.0,5.0,22.0,0.0,-62.0,9.0,11300.0,9844.0,-2447.0,-6154.0,3.0,4.0,186.0,1.0
2022-05-08 17:26:40.171382-07:00,859.5,878.9,1373.9,1057.3,894.1,451.4,1491.2,923.7,3471.0,3469.8,640.8,917.7,407.5,3495.3,1060.8,794.4,3477.1,3483.2,420.8,581.8,411.4,526.6,236.3,241.6,3479.5,3480.7,598.7,465.6,979.9,1174.4,1747.3,558.6,17.0,-119.0,-1.0,11709.0,8191.0,6832.0,4191.0,130.0,-34.0,137.0,12.0,-77.0,18.0,11351.0,9824.0,-2526.0,-6058.0,7.0,6.0,403.0,1.0
2022-05-08 17:26:40.319180-07:00,859.5,877.2,1372.1,1055.6,894.1,451.4,1491.2,927.9,3471.0,3478.3,640.0,912.7,407.5,3495.3,1060.8,798.5,3467.4,3483.2,420.8,581.8,411.4,528.2,240.9,241.6,3479.5,3480.7,598.7,465.6,991.9,1178.8,1743.5,558.6,42.0,-48.0,-19.0,11685.0,8257.0,6772.0,4227.0,5.0,-110.0,287.0,36.0,12.0,-24.0,11441.0,9767.0,-2670.0,-5916.0,-62.0,-92.0,580.0,1.0
2022-05-08 17:26:40.320786-07:00,857.9,877.2,1372.1,1055.6,878.9,453.7,1487.5,927.9,3478.3,3478.3,640.0,912.7,408.2,3494.1,1060.8,798.5,3467.4,3469.8,420.0,581.8,411.4,528.2,240.9,240.9,3479.5,3480.7,596.3,469.5,991.9,1178.8,1743.5,561.0,25.0,-18.0,-5.0,11680.0,8313.0,6640.0,4338.0,-61.0,-199.0,542.0,35.0,35.0,-3.0,11522.0,9690.0,-2840.0,-5806.0,59.0,-222.0,649.0,1.0
2022-05-08 17:26:40.321783-07:00,857.9,880.6,1373.0,1050.4,878.9,453.7,1487.5,918.6,3478.3,3467.4,636.7,909.3,408.2,3494.1,1060.8,797.7,3474.6,3469.8,420.0,581.8,409.0,531.4,243.2,240.9,3478.3,3480.7,596.3,469.5,1000.5,1176.2,1739.7,561.0,39.0,117.0,74.0,11656.0,8408.0,6459.0,4489.0,-208.0,-32.0,492.0,35.0,65.0,32.0,11590.0,9630.0,-3064.0,-5656.0,-57.0,-104.0,562.0,1.0
2022-05-08 17:26:40.408595-07:00,851.1,880.6,1373.0,1050.4,882.3,450.6,1481.0,918.6,3475.9,3467.4,636.7,909.3,408.2,3495.3,1049.6,797.7,3474.6,3472.2,422.3,584.3,409.0,531.4,243.2,246.2,3478.3,3477.1,597.1,466.4,1000.5,1176.2,1739.7,557.0,4.0,7.0,1.0,11632.0,8423.0,6363.0,4658.0,7.0,128.0,329.0,-10.0,5.0,-2.0,11668.0,9580.0,-3196.0,-5506.0,89.0,85.0,451.0,1.0
2022-05-08 17:26:40.409842-07:00,851.1,878.0,1368.5,1048.7,882.3,450.6,1480.1,919.4,3475.9,3466.1,633.5,913.5,408.2,3495.3,1051.3,796.9,3474.6,3477.1,422.3,584.3,415.3,524.2,244.7,246.2,3480.7,3474.6,597.1,466.4,989.3,1174.4,1742.6,557.0,14.0,4.0,-3.0,11557.0,8478.0,6340.0,4775.0,55.0,110.0,325.0,-3.0,0.0,5.0,11715.0,9585.0,-3298.0,-5333.0,67.0,72.0,472.0,1.0
2022-05-08 17:26:40.468672-07:00,857.0,878.9,1368.5,1048.7,883.9,454.5,1480.1,919.4,3464.9,3474.6,633.5,913.5,409.8,3495.3,1051.3,796.9,3474.6,3477.1,423.9,584.3,415.3,524.2,246.2,244.7,3480.7,3474.6,597.9,471.9,989.3,1174.4,1738.7,563.4,26.0,63.0,-31.0,11506.0,8507.0,6302.0,4896.0,-135.0,92.0,254.0,16.0,40.0,-4.0,11780.0,9557.0,-3399.0,-5174.0,-78.0,15.0,420.0,1.0
2022-05-08 17:26:40.528591-07:00,857.0,878.9,1374.8,1074.7,883.9,454.5,1478.3,919.4,3464.9,3474.6,640.8,913.5,409.8,3495.3,1038.3,798.5,3467.4,3483.2,423.9,584.3,411.4,527.4,246.2,244.7,3478.3,3477.1,597.9,471.9,1004.8,1172.6,1738.7,563.4,-12.0,55.0,-25.0,11480.0,8511.0,6265.0,4995.0,20.0,37.0,203.0,7.0,53.0,9.0,11840.0,9511.0,-3492.0,-5061.0,22.0,-24.0,307.0,1.0
2022-05-08 17:26:40.648650-07:00,858.7,878.0,1374.8,1074.7,879.7,453.7,1478.3,919.4,3471.0,3473.4,640.8,913.5,407.5,3501.4,1038.3,798.5,3467.4,3483.2,427.0,590.7,411.4,527.4,242.4,244.7,3478.3,3477.1,598.7,471.1,1004.8,1172.6,1736.8,561.8,14.0,60.0,-15.0,11459.0,8544.0,6219.0,5045.0,-31.0,-60.0,139.0,12.0,37.0,-5.0,11871.0,9479.0,-3570.0,-4992.0,-38.0,-90.0,185.0,1.0
2022-05-08 17:26:40.679324-07:00,858.7,878.0,1372.1,1056.5,879.7,453.7,1471.8,912.7,3471.0,3473.4,633.5,915.2,407.5,3501.4,1048.7,796.9,3477.1,3477.1,427.0,590.7,413.7,528.2,242.4,244.7,3478.3,3479.5,598.7,471.1,1005.6,1176.2,1736.8,561.8,-2.0,8.0,44.0,11464.0,8546.0,6185.0,5072.0,4.0,15.0,27.0,21.0,-4.0,47.0,11895.0,9440.0,-3624.0,-4971.0,-25.0,-5.0,95.0,1.0
2022-05-08 17:26:40.680124-07:00,857.9,881.4,1372.1,1056.5,876.4,453.7,1471.8,912.7,3478.3,3467.4,633.5,915.2,408.2,3497.8,1048.7,796.9,3477.1,3477.1,421.5,588.3,413.7,528.2,244.7,240.1,3478.3,3479.5,600.4,475.0,1005.6,1176.2,1725.3,561.0,12.0,6.0,9.0,11455.0,8551.0,6188.0,5081.0,-42.0,7.0,30.0,19.0,10.0,28.0,11910.0,9432.0,-3632.0,-4944.0,-51.0,36.0,44.0,1.0
2022-05-08 17:26:40.708564-07:00,857.9,881.4,1364.8,1049.6,876.4,455.3,1488.4,913.5,3478.3,3467.4,637.6,911.8,408.2,3496.6,1051.3,795.2,3472.2,3468.6,422.3,588.3,409.8,529.0,244.7,240.1,3479.5,3469.8,594.7,475.0,1072.9,1167.4,1725.3,561.0,28.0,-26.0,8.0,11482.0,8515.0,6156.0,5117.0,-187.0,4.0,62.0,27.0,-16.0,7.0,11957.0,9379.0,-3629.0,-4933.0,-226.0,-1.0,87.0,1.0
2022-05-08 17:26:40.768783-07:00,860.4,878.0,1369.4,1049.6,892.4,455.3,1488.4,913.5,3474.6,3468.6,634.3,911.8,405.1,3496.6,1051.3,795.2,3472.2,3468.6,422.3,589.1,409.8,527.4,245.4,244.7,3479.5,3469.8,594.7,467.1,1072.9,1173.5,1729.1,559.4,-21.0,49.0,0.0,11494.0,8520.0,6103.0,5146.0,9.0,-154.0,159.0,5.0,65.0,55.0,12004.0,9335.0,-3630.0,-4902.0,-5.0,56.0,84.0,1.0
2022-05-08 17:26:40.828619-07:00,860.4,878.0,1369.4,1043.5,892.4,456.1,1462.6,930.5,3474.6,3468.6,634.3,912.7,405.1,3497.8,1040.1,794.4,3475.9,3477.1,423.9,589.1,412.9,527.4,245.4,244.7,3479.5,3477.1,596.3,467.1,1275.6,1173.5,1729.1,559.4,30.0,10.0,55.0,11541.0,8551.0,5956.0,5162.0,-140.0,-303.0,196.0,34.0,-21.0,10.0,12054.0,9296.0,-3605.0,-4871.0,-172.0,128.0,57.0,1.0
2022-05-08 17:26:40.858682-07:00,857.9,876.4,1364.8,1043.5,910.1,456.1,1462.6,930.5,3461.3,3469.8,641.6,912.7,404.3,3497.8,1040.1,794.4,3475.9,3477.1,423.9,585.1,412.9,522.6,240.9,241.6,3479.5,3477.1,596.3,467.1,1275.6,1160.3,1735.8,585.1,39.0,-11.0,31.0,11573.0,8583.0,5831.0,5180.0,-98.0,-253.0,215.0,52.0,4.0,50.0,12088.0,9301.0,-3542.0,-4824.0,-40.0,241.0,13.0,1.0
2022-05-08 17:26:40.918738-07:00,857.9,876.4,1364.8,1040.1,910.1,456.1,1460.8,963.7,3461.3,3469.8,641.6,916.0,404.3,3502.7,1047.0,798.5,3481.9,3467.4,422.3,585.1,410.6,522.6,240.9,241.6,3492.9,3475.9,593.9,467.1,1245.3,1160.3,1735.8,585.1,94.0,-33.0,86.0,11611.0,8645.0,5642.0,5202.0,56.0,-352.0,263.0,79.0,-62.0,37.0,12139.0,9310.0,-3447.0,-4745.0,-3.0,362.0,74.0,1.0
2022-05-08 17:26:40.978610-07:00,859.5,873.8,1360.3,1040.1,895.7,456.1,1460.8,963.7,3480.7,3479.5,635.9,916.0,405.9,3502.7,1047.0,798.5,3481.9,3467.4,422.3,581.8,410.6,527.4,241.6,237.8,3492.9,3475.9,593.9,467.1,1245.3,1162.1,1799.4,578.6,99.0,16.0,61.0,11565.0,8797.0,5537.0,5162.0,327.0,-262.0,189.0,78.0,-19.0,15.0,12155.0,9430.0,-3306.0,-4565.0,237.0,604.0,72.0,1.0
2022-05-08 17:26:41.009016-07:00,859.5,873.8,1360.3,1040.1,880.6,464.0,1480.1,963.7,3480.7,3479.5,635.9,912.7,403.5,3496.6,1062.5,794.4,3485.6,3488.0,420.8,590.7,412.1,527.4,241.6,237.8,3475.9,3479.5,601.2,473.5,1182.3,1162.1,1799.4,578.6,1.0,9.0,50.0,11445.0,9024.0,5553.0,5018.0,824.0,-245.0,-70.0,40.0,20.0,18.0,12107.0,9655.0,-3148.0,-4328.0,570.0,648.0,-28.0,1.0
2022-05-08 17:26:41.068999-07:00,860.4,886.5,1363.0,1034.0,880.6,464.0,1480.1,963.7,3475.9,3478.3,638.4,916.9,403.5,3496.6,1062.5,794.4,3485.6,3488.0,420.8,590.7,410.6,528.2,247.7,245.4,3475.9,3479.5,601.2,473.5,1149.8,1160.3,1797.4,582.6,-47.0,25.0,-20.0,11173.0,9375.0,5747.0,4761.0,1379.0,27.0,-272.0,-80.0,32.0,-8.0,11931.0,10005.0,-3023.0,-4104.0,973.0,600.0,-92.0,1.0
2022-05-08 17:26:41.278679-07:00,860.4,886.5,1363.0,1034.0,872.1,470.3,1519.0,945.8,3475.9,3478.3,638.4,916.9,400.4,3496.6,1048.7,794.4,3485.6,3478.3,420.8,588.3,410.6,528.2,247.7,245.4,3478.3,3467.4,610.0,473.5,1149.8,1160.3,1797.4,582.6,-22.0,-99.0,-87.0,10897.0,9669.0,5976.0,4527.0,1041.0,118.0,-194.0,-40.0,-26.0,-73.0,11723.0,10362.0,-2900.0,-3902.0,810.0,523.0,-100.0,1.0
2022-05-08 17:26:41.279852-07:00,864.6,900.0,1360.3,1034.0,872.1,470.3,1519.0,945.8,3475.9,3468.6,640.8,915.2,400.4,3496.6,1048.7,794.4,3485.6,3478.3,420.8,588.3,411.4,525.0,247.0,246.2,3478.3,3467.4,610.0,473.5,1133.1,1161.2,1673.8,576.2,-90.0,103.0,-98.0,10555.0,9988.0,6206.0,4331.0,1473.0,226.0,-94.0,-74.0,10.0,-55.0,11514.0,10674.0,-2850.0,-3716.0,1012.0,362.0,2.0,1.0
2022-05-08 17:26:41.280665-07:00,864.6,900.0,1360.3,1034.0,863.7,473.5,1569.3,926.2,3475.9,3468.6,640.8,915.2,406.7,3497.8,980.7,793.5,3477.1,3471.0,423.1,589.1,411.4,525.0,247.0,246.2,3486.8,3480.7,652.2,474.3,1133.1,1161.2,1673.8,576.2,-33.0,-10.0,-108.0,10410.0,10125.0,6342.0,4162.0,111.0,-66.0,-265.0,-39.0,32.0,-37.0,11353.0,10878.0,-2808.0,-3652.0,138.0,103.0,-150.0,1.0
2022-05-08 17:26:41.281792-07:00,872.1,982.5,1352.1,1024.5,863.7,473.5,1569.3,926.2,3468.6,3473.4,635.1,916.0,406.7,3497.8,980.7,793.5,3477.1,3471.0,423.1,589.1,412.9,528.2,243.9,244.7,3486.8,3480.7,652.2,474.3,1120.0,1150.6,1601.1,568.2,-23.0,-9.0,56.0,10400.0,10165.0,6358.0,4066.0,611.0,-152.0,-48.0,-18.0,-42.0,-12.0,11328.0,10903.0,-2775.0,-3681.0,312.0,-8.0,-119.0,1.0
2022-05-08 17:26:41.308200-07:00,864.6,982.5,1352.1,1024.5,860.4,467.1,1755.0,915.2,3479.5,3473.4,635.1,916.0,405.9,3495.3,931.3,791.9,3467.4,3471.0,423.9,583.5,412.9,528.2,243.9,240.9,3478.3,3475.9,655.4,477.4,1120.0,1150.6,1601.1,567.4,22.0,-58.0,-5.0,10378.0,10225.0,6386.0,3924.0,-77.0,-176.0,-192.0,11.0,15.0,16.0,11224.0,10998.0,-2758.0,-3725.0,62.0,-81.0,-195.0,1.0
2022-05-08 17:26:41.368769-07:00,864.6,1042.6,1355.8,1037.5,860.4,467.1,1755.0,915.2,3479.5,3483.2,640.0,907.6,405.9,3495.3,931.3,791.9,3475.9,3471.0,423.9,583.5,409.0,527.4,243.9,240.9,3478.3,3475.9,655.4,477.4,1097.3,1150.6,1561.8,567.4,15.0,-53.0,50.0,10487.0,10179.0,6300.0,3893.0,-298.0,-277.0,57.0,-3.0,6.0,32.0,11261.0,10938.0,-2743.0,-3801.0,-255.0,-105.0,-34.0,1.0
2022-05-08 17:26:41.428671-07:00,867.9,1042.6,1355.8,1037.5,848.6,470.3,1815.8,915.2,3474.6,3483.2,640.0,907.6,403.5,3502.7,916.0,791.9,3475.9,3468.6,422.3,589.1,409.0,527.4,243.9,243.2,3478.3,3477.1,642.4,478.2,1097.3,1150.6,1561.8,566.6,70.0,18.0,59.0,10505.0,10224.0,6231.0,3839.0,13.0,-136.0,-55.0,21.0,-16.0,9.0,11271.0,10914.0,-2760.0,-3830.0,-17.0,-62.0,-32.0,1.0
2022-05-08 17:26:41.458662-07:00,867.9,1083.4,1351.2,1030.6,848.6,470.3,1815.8,912.7,3474.6,3474.6,631.1,916.9,403.5,3502.7,916.0,781.9,3481.9,3468.6,422.3,589.1,410.6,531.4,244.7,243.2,3478.3,3477.1,642.4,478.2,1101.7,1141.0,1542.2,566.6,31.0,-33.0,21.0,10530.0,10195.0,6233.0,3844.0,-102.0,40.0,30.0,25.0,-14.0,29.0,11298.0,10876.0,-2772.0,-3852.0,-122.0,-49.0,44.0,1.0
2022-05-08 17:26:41.548661-07:00,871.3,1083.4,1351.2,1030.6,846.1,460.8,1790.7,912.7,3469.8,3474.6,631.1,916.9,405.1,3492.9,902.5,781.9,3481.9,3474.6,418.4,584.3,410.6,531.4,244.7,248.5,3478.3,3475.9,640.0,472.7,1101.7,1141.0,1542.2,562.6,27.0,33.0,2.0,10492.0,10235.0,6234.0,3836.0,163.0,-52.0,-8.0,2.0,25.0,10.0,11310.0,10862.0,-2798.0,-3834.0,95.0,4.0,56.0,1.0
2022-05-08 17:26:41.578677-07:00,871.3,1096.4,1346.7,1030.6,846.1,460.8,1790.7,903.4,3469.8,3472.2,630.3,914.4,405.1,3492.9,902.5,784.4,3485.6,3474.6,418.4,584.3,423.9,526.6,247.7,248.5,3479.5,3475.9,640.0,472.7,1083.4,1137.5,1522.7,562.6,15.0,11.0,0.0,10472.0,10266.0,6237.0,3805.0,67.0,-11.0,8.0,-2.0,18.0,1.0,11289.0,10884.0,-2818.0,-3820.0,30.0,-36.0,21.0,1.0
2022-05-08 17:26:41.608608-07:00,873.8,1083.4,1346.7,1030.6,847.8,466.4,1755.0,903.4,3473.4,3472.2,630.3,914.4,401.2,3499.0,893.2,784.4,3485.6,3474.6,418.4,585.1,423.9,526.6,240.9,245.4,3479.5,3479.5,633.5,475.8,1083.4,1137.5,1494.9,569.8,8.0,10.0,13.0,10471.0,10266.0,6243.0,3798.0,41.0,1.0,-44.0,-5.0,5.0,12.0,11287.0,10880.0,-2826.0,-3831.0,15.0,-31.0,-38.0,1.0
2022-05-08 17:26:41.668629-07:00,873.8,1083.4,1345.8,1021.1,847.8,466.4,1725.3,909.3,3473.4,3472.2,633.5,917.7,401.2,3499.0,888.2,781.1,3474.6,3475.9,418.4,585.1,410.6,525.0,240.9,245.4,3477.1,3467.4,633.5,475.8,1073.8,1134.9,1494.9,569.8,6.0,9.0,9.0,10480.0,10254.0,6257.0,3783.0,-31.0,4.0,-63.0,1.0,4.0,18.0,11281.0,10880.0,-2816.0,-3856.0,-13.0,-19.0,-74.0,1.0
2022-05-08 17:26:41.728603-07:00,865.4,1079.9,1345.8,1021.1,843.6,464.0,1725.3,909.3,3472.2,3474.6,633.5,917.7,404.3,3497.8,888.2,781.1,3474.6,3475.9,423.9,585.9,410.6,525.0,240.9,245.4,3477.1,3467.4,629.5,475.0,1073.8,1134.9,1494.0,529.0,24.0,14.0,6.0,10490.0,10244.0,6265.0,3770.0,-19.0,-25.0,-66.0,13.0,9.0,15.0,11276.0,10880.0,-2798.0,-3885.0,-10.0,-5.0,-89.0,1.0
2022-05-08 17:26:41.759128-07:00,865.4,1079.9,1345.8,1026.3,843.6,464.0,1714.8,909.3,3472.2,3474.6,627.8,911.8,404.3,3497.8,887.3,777.8,3477.1,3469.8,423.9,585.9,413.7,529.8,240.9,245.4,3473.4,3473.4,629.5,475.0,1059.1,1134.9,1494.0,529.0,25.0,-17.0,11.0,10502.0,10236.0,6267.0,3756.0,9.0,-12.0,-42.0,15.0,-4.0,18.0,11273.0,10881.0,-2778.0,-3905.0,7.0,3.0,-46.0,1.0
2022-05-08 17:26:41.818712-07:00,862.9,1081.6,1345.8,1026.3,843.6,460.8,1714.8,909.3,3464.9,3479.5,627.8,911.8,402.0,3491.7,887.3,777.8,3477.1,3469.8,421.5,589.1,413.7,529.8,248.5,246.2,3473.4,3473.4,629.5,473.5,1059.1,1134.9,1496.7,563.4,17.0,-6.0,10.0,10501.0,10234.0,6272.0,3754.0,50.0,12.0,-33.0,6.0,-7.0,16.0,11272.0,10881.0,-2772.0,-3912.0,24.0,11.0,-6.0,1.0
2022-05-08 17:26:41.878566-07:00,862.9,1081.6,1343.1,1027.1,843.6,460.8,1700.5,912.7,3464.9,3479.5,640.8,915.2,402.0,3491.7,878.0,782.7,3472.2,3469.8,421.5,589.1,417.6,526.6,248.5,246.2,3477.1,3467.4,629.5,473.5,1064.3,1130.5,1496.7,563.4,18.0,-18.0,18.0,10480.0,10242.0,6294.0,3752.0,85.0,63.0,-14.0,13.0,-6.0,26.0,11269.0,10888.0,-2771.0,-3900.0,44.0,44.0,36.0,1.0
2022-05-08 17:26:41.908989-07:00,864.6,1075.6,1336.8,1027.1,838.6,460.8,1700.5,912.7,3471.0,3473.4,631.9,915.2,409.8,3495.3,878.0,782.7,3472.2,3469.8,420.0,585.1,417.6,528.2,250.0,243.2,3477.1,3467.4,626.2,475.8,1064.3,1133.1,1487.5,559.4,0.0,0.0,-2.0,10465.0,10253.0,6298.0,3760.0,5.0,-4.0,36.0,0.0,10.0,5.0,11274.0,10892.0,-2774.0,-3874.0,-6.0,24.0,41.0,1.0
2022-05-08 17:26:41.968617-07:00,864.6,1075.6,1336.8,1022.8,838.6,463.2,1675.7,906.7,3471.0,3473.4,631.9,916.0,409.8,3497.8,879.7,779.4,3467.4,3472.2,423.9,585.1,410.6,528.2,250.0,243.2,3483.2,3478.3,625.4,475.8,1055.6,1133.1,1487.5,559.4,7.0,-4.0,3.0,10462.0,10258.0,6291.0,3765.0,65.0,3.0,0.0,-5.0,-2.0,1.0,11281.0,10890.0,-2779.0,-3857.0,20.0,22.0,42.0,1.0
2022-05-08 17:26:42.028617-07:00,867.9,1072.9,1346.7,1022.8,836.9,463.2,1675.7,906.7,3475.9,3469.8,633.5,916.0,406.7,3497.8,879.7,779.4,3467.4,3472.2,423.9,587.5,410.6,529.8,242.4,243.9,3483.2,3478.3,625.4,473.5,1055.6,1127.0,1478.3,558.6,12.0,4.0,6.0,10446.0,10275.0,6296.0,3755.0,31.0,-9.0,6.0,3.0,11.0,9.0,11278.0,10895.0,-2788.0,-3843.0,14.0,9.0,22.0,1.0
2022-05-08 17:26:42.088835-07:00,867.9,1072.9,1346.7,1022.8,836.9,464.0,1688.1,905.9,3475.9,3469.8,633.5,911.8,406.7,3499.0,879.7,780.3,3467.4,3483.2,418.4,587.5,412.9,529.8,242.4,243.9,3474.6,3477.1,631.1,473.5,1054.8,1127.0,1478.3,558.6,14.0,0.0,-2.0,10447.0,10274.0,6294.0,3759.0,-40.0,-7.0,10.0,7.0,-3.0,9.0,11284.0,10888.0,-2789.0,-3844.0,-38.0,-21.0,0.0,1.0
2022-05-08 17:26:42.118726-07:00,867.9,1070.3,1340.4,1022.8,835.2,464.0,1688.1,905.9,3478.3,3473.4,627.0,911.8,402.8,3499.0,879.7,780.3,3467.4,3483.2,418.4,582.6,412.9,527.4,242.4,240.9,3474.6,3477.1,631.1,476.6,1054.8,1133.1,1481.0,555.4,12.0,-12.0,2.0,10462.0,10268.0,6274.0,3767.0,-4.0,-50.0,40.0,2.0,-2.0,7.0,11298.0,10869.0,-2794.0,-3852.0,-41.0,-27.0,18.0,1.0
2022-05-08 17:26:42.178618-07:00,867.9,1070.3,1340.4,1022.8,835.2,462.4,1685.3,905.9,3478.3,3473.4,627.0,913.5,402.8,3494.1,874.7,783.6,3467.4,3471.0,419.2,582.6,415.3,527.4,242.4,240.9,3477.1,3477.1,623.8,476.6,1047.8,1133.1,1481.0,555.4,-1.0,26.0,-16.0,10473.0,10276.0,6235.0,3778.0,-204.0,-110.0,132.0,4.0,32.0,2.0,11312.0,10845.0,-2804.0,-3873.0,-88.0,-71.0,-29.0,1.0
2022-05-08 17:26:42.208420-07:00,869.6,1073.8,1331.4,1021.1,833.6,462.4,1685.3,905.9,3478.3,3477.1,628.6,914.4,402.8,3494.1,874.7,783.6,3467.4,3471.0,419.2,581.8,407.5,528.2,244.7,241.6,3477.1,3477.1,623.8,473.5,1040.9,1133.1,1469.0,559.4,9.0,-60.0,12.0,10579.0,10203.0,6135.0,3846.0,-118.0,-89.0,116.0,0.0,-38.0,15.0,11379.0,10758.0,-2809.0,-3917.0,-166.0,-94.0,62.0,1.0
2022-05-08 17:26:42.418596-07:00,869.6,1073.8,1331.4,1021.1,831.1,466.4,1676.7,919.4,3478.3,3477.1,628.6,914.4,405.1,3497.8,878.0,780.3,3483.2,3485.6,420.0,587.5,407.5,528.2,244.7,241.6,3475.9,3485.6,631.1,475.0,1040.9,1133.1,1469.0,559.4,21.0,37.0,21.0,10584.0,10227.0,6090.0,3838.0,-79.0,-69.0,16.0,18.0,21.0,28.0,11391.0,10733.0,-2842.0,-3925.0,-70.0,-58.0,36.0,1.0
2022-05-08 17:26:42.421081-07:00,874.7,1053.9,1334.1,1021.9,831.1,466.4,1676.7,919.4,3471.0,3479.5,631.1,916.0,405.1,3497.8,878.0,780.3,3483.2,3485.6,420.0,587.5,412.9,528.2,242.4,240.9,3475.9,3485.6,631.1,475.0,1049.6,1138.4,1476.4,557.0,20.0,2.0,18.0,10618.0,10206.0,6059.0,3850.0,-16.0,-21.0,2.0,10.0,0.0,21.0,11417.0,10701.0,-2851.0,-3930.0,-33.0,-10.0,24.0,1.0
2022-05-08 17:26:42.422110-07:00,874.7,1053.9,1334.1,1021.9,831.9,466.4,1671.9,902.5,3471.0,3479.5,631.1,916.0,402.8,3508.8,871.3,782.7,3474.6,3489.2,416.8,585.9,412.9,528.2,242.4,240.9,3484.4,3478.3,627.0,476.6,1049.6,1138.4,1476.4,557.0,16.0,9.0,5.0,10617.0,10208.0,6057.0,3851.0,0.0,18.0,-1.0,10.0,10.0,12.0,11421.0,10698.0,-2856.0,-3925.0,2.0,-4.0,9.0,1.0
2022-05-08 17:26:42.422991-07:00,873.0,1039.2,1328.7,1017.6,831.9,466.4,1671.9,902.5,3472.2,3474.6,628.6,916.9,402.8,3508.8,871.3,782.7,3474.6,3489.2,416.8,585.9,412.1,531.4,247.0,240.9,3484.4,3478.3,627.0,476.6,1033.2,1118.2,1468.1,560.2,8.0,-11.0,-5.0,10628.0,10196.0,6050.0,3862.0,-43.0,3.0,-4.0,7.0,-6.0,6.0,11430.0,10687.0,-2856.0,-3929.0,-35.0,-22.0,0.0,1.0
2022-05-08 17:26:42.478667-07:00,873.0,1039.2,1328.7,1017.6,830.2,467.1,1661.5,910.1,3472.2,3474.6,628.6,916.9,404.3,3494.1,873.0,781.9,3483.2,3479.5,416.8,581.0,412.1,531.4,247.0,240.9,3479.5,3477.1,627.0,477.4,1033.2,1118.2,1468.1,560.2,7.0,-7.0,-9.0,10632.0,10197.0,6041.0,3864.0,-9.0,-26.0,33.0,5.0,5.0,10.0,11435.0,10675.0,-2869.0,-3934.0,-19.0,-45.0,26.0,1.0
2022-05-08 17:26:42.509048-07:00,868.8,1031.4,1332.3,1015.1,830.2,467.1,1661.5,896.6,3478.3,3468.6,627.8,913.5,404.3,3494.1,873.0,776.9,3483.2,3479.5,416.8,581.0,412.1,522.6,240.9,242.4,3471.0,3477.1,627.0,477.4,1032.3,1129.6,1463.5,553.8,9.0,5.0,-7.0,10652.0,10194.0,6007.0,3872.0,-154.0,-87.0,47.0,3.0,5.0,6.0,11453.0,10645.0,-2887.0,-3951.0,-116.0,-67.0,16.0,1.0
2022-05-08 17:26:42.568606-07:00,878.9,1031.4,1332.3,1015.1,814.4,464.0,1657.7,896.6,3466.1,3468.6,627.8,913.5,409.0,3492.9,870.5,776.9,3483.2,3478.3,422.3,584.3,412.1,522.6,240.9,244.7,3471.0,3477.1,621.4,470.3,1032.3,1129.6,1463.5,555.4,15.0,0.0,17.0,10694.0,10172.0,5960.0,3885.0,-60.0,-52.0,40.0,8.0,7.0,18.0,11481.0,10602.0,-2904.0,-3975.0,-79.0,-72.0,15.0,1.0
2022-05-08 17:26:42.599118-07:00,878.9,1026.3,1331.4,1022.8,814.4,464.0,1657.7,899.1,3466.1,3472.2,632.7,914.4,409.0,3492.9,870.5,781.9,3488.0,3478.3,422.3,584.3,414.5,528.2,244.7,244.7,3475.9,3477.1,621.4,470.3,1032.3,1120.0,1464.4,555.4,6.0,7.0,13.0,10718.0,10162.0,5925.0,3899.0,-100.0,-52.0,70.0,10.0,8.0,29.0,11501.0,10568.0,-2915.0,-3998.0,-62.0,-52.0,-22.0,1.0
2022-05-08 17:26:42.658777-07:00,874.7,1026.3,1331.4,1022.8,838.6,467.9,1638.8,899.1,3473.4,3472.2,632.7,914.4,402.8,3500.2,869.6,781.9,3488.0,3477.1,418.4,586.7,414.5,528.2,244.7,237.8,3475.9,3488.0,623.0,476.6,1032.3,1120.0,1464.4,553.0,12.0,-10.0,30.0,10761.0,10141.0,5860.0,3931.0,15.0,-98.0,91.0,18.0,-21.0,37.0,11522.0,10538.0,-2916.0,-4015.0,13.0,-19.0,-7.0,1.0
2022-05-08 17:26:42.748594-07:00,874.7,1033.2,1331.4,1018.5,838.6,467.9,1638.8,915.2,3473.4,3471.0,627.0,915.2,402.8,3500.2,869.6,775.3,3477.1,3477.1,418.4,586.7,412.9,523.4,243.2,237.8,3479.5,3488.0,623.0,476.6,1015.9,1125.2,1461.7,553.0,19.0,-10.0,-8.0,10747.0,10176.0,5837.0,3913.0,116.0,-46.0,-17.0,3.0,0.0,4.0,11492.0,10571.0,-2923.0,-4012.0,104.0,-10.0,-19.0,1.0
2022-05-08 17:26:42.749726-07:00,883.9,1033.2,1331.4,1018.5,828.5,470.3,1631.3,915.2,3467.4,3471.0,627.0,915.2,405.1,3496.6,874.7,775.3,3477.1,3484.4,421.5,581.8,412.9,523.4,243.2,241.6,3479.5,3480.7,628.6,476.6,1015.9,1125.2,1461.7,550.6,4.0,6.0,4.0,10734.0,10199.0,5835.0,3892.0,-14.0,-13.0,5.0,3.0,7.0,27.0,11481.0,10583.0,-2925.0,-4008.0,-8.0,27.0,-9.0,1.0
2022-05-08 17:26:42.809319-07:00,883.9,1019.4,1332.3,1014.2,828.5,470.3,1635.0,911.8,3467.4,3467.4,626.2,906.7,405.1,3496.6,894.1,777.8,3480.7,3477.1,421.5,581.8,410.6,524.2,240.9,241.6,3473.4,3472.2,628.6,476.6,1023.7,1127.0,1511.5,550.6,12.0,0.0,-10.0,10759.0,10175.0,5817.0,3913.0,-99.0,11.0,35.0,0.0,1.0,-1.0,11493.0,10573.0,-2918.0,-4008.0,-41.0,-1.0,0.0,1.0
2022-05-08 17:26:42.868668-07:00,878.9,995.3,1332.3,1014.2,831.9,467.1,1635.0,911.8,3467.4,3468.6,626.2,906.7,401.2,3507.5,894.1,777.8,3480.7,3477.1,422.3,583.5,410.6,524.2,245.4,242.4,3473.4,3472.2,619.7,477.4,1023.7,1127.0,1551.5,553.8,15.0,1.0,-16.0,10776.0,10162.0,5799.0,3926.0,-72.0,-21.0,18.0,9.0,10.0,-1.0,11504.0,10554.0,-2922.0,-4020.0,-71.0,-53.0,-2.0,1.0
2022-05-08 17:26:42.898650-07:00,878.9,995.3,1331.4,1017.6,831.9,467.1,1643.5,910.1,3467.4,3468.6,631.1,913.5,401.2,3507.5,905.9,780.3,3467.4,3483.2,422.3,583.5,412.9,527.4,245.4,242.4,3472.2,3480.7,619.7,477.4,1021.9,1130.5,1551.5,553.8,17.0,0.0,-1.0,10811.0,10136.0,5763.0,3951.0,-152.0,-54.0,62.0,15.0,-1.0,8.0,11530.0,10513.0,-2931.0,-4045.0,-117.0,-54.0,8.0,1.0
2022-05-08 17:26:42.958626-07:00,870.5,983.3,1331.4,1017.6,821.0,471.9,1643.5,910.1,3469.8,3472.2,631.1,913.5,406.7,3494.1,905.9,780.3,3467.4,3483.2,418.4,581.8,412.9,527.4,244.7,244.7,3472.2,3480.7,616.5,470.3,1021.9,1130.5,1566.5,549.8,19.0,2.0,11.0,10834.0,10125.0,5727.0,3967.0,-18.0,-28.0,23.0,13.0,4.0,14.0,11544.0,10489.0,-2943.0,-4060.0,-26.0,-48.0,1.0,1.0
2022-05-08 17:26:43.018661-07:00,870.5,983.3,1334.1,1015.1,821.0,471.9,1636.0,908.4,3469.8,3472.2,631.9,911.8,406.7,3494.1,901.7,777.8,3478.3,3479.5,418.4,581.8,412.9,528.2,244.7,244.7,3468.6,3485.6,616.5,470.3,1013.3,1133.1,1566.5,549.8,23.0,11.0,13.0,10843.0,10127.0,5705.0,3971.0,-48.0,-42.0,-8.0,16.0,11.0,10.0,11553.0,10471.0,-2953.0,-4073.0,-52.0,-37.0,-20.0,1.0
2022-05-08 17:26:43.048709-07:00,873.8,975.6,1334.1,1015.1,825.2,467.1,1636.0,908.4,3477.1,3471.0,631.9,911.8,403.5,3505.1,901.7,777.8,3478.3,3479.5,423.1,583.5,412.9,528.2,239.3,243.2,3468.6,3485.6,618.1,471.9,1013.3,1133.1,1558.1,553.0,7.0,-5.0,7.0,10859.0,10111.0,5699.0,3976.0,-33.0,12.0,-10.0,-1.0,-1.0,17.0,11563.0,10454.0,-2952.0,-4091.0,-24.0,-21.0,-11.0,1.0
2022-05-08 17:26:43.109011-07:00,873.8,975.6,1327.8,1015.9,825.2,469.5,1623.7,908.4,3477.1,3471.0,631.9,911.0,403.5,3497.8,894.9,776.1,3477.1,3471.0,423.1,583.5,414.5,531.4,239.3,243.2,3479.5,3475.9,616.5,471.9,1009.0,1132.2,1558.1,553.0,3.0,-2.0,-2.0,10865.0,10100.0,5703.0,3980.0,-29.0,9.0,-6.0,4.0,4.0,13.0,11567.0,10445.0,-2953.0,-4103.0,-24.0,-31.0,-21.0,1.0
2022-05-08 17:26:43.168673-07:00,878.9,967.1,1327.8,1015.9,819.4,469.5,1623.7,908.4,3478.3,3466.1,626.2,911.0,406.7,3497.8,894.9,776.1,3477.1,3471.0,423.1,587.5,414.5,527.4,240.9,239.3,3479.5,3475.9,616.5,474.3,1009.0,1128.7,1545.9,554.6,1.0,-6.0,-18.0,10893.0,10066.0,5688.0,4013.0,-230.0,41.0,54.0,-3.0,18.0,-11.0,11579.0,10418.0,-2955.0,-4134.0,-167.0,-151.0,-49.0,1.0
2022-05-08 17:26:43.198683-07:00,878.9,967.1,1327.8,1016.8,819.4,467.9,1614.3,980.7,3478.3,3466.1,626.2,917.7,406.7,3497.8,885.6,777.8,3471.0,3479.5,423.1,587.5,413.7,527.4,240.9,239.3,3480.7,3472.2,615.7,474.3,1008.2,1128.7,1545.9,554.6,-5.0,-4.0,-5.0,10945.0,9983.0,5667.0,4105.0,-242.0,137.0,72.0,-17.0,2.0,-8.0,11607.0,10347.0,-2982.0,-4215.0,-142.0,-253.0,-43.0,1.0
2022-05-08 17:26:43.258658-07:00,873.0,963.7,1332.3,1016.8,821.0,467.9,1614.3,980.7,3481.9,3477.1,630.3,917.7,408.2,3497.8,885.6,777.8,3471.0,3479.5,423.1,581.0,413.7,529.8,245.4,244.7,3480.7,3472.2,615.7,468.7,1008.2,1134.9,1601.1,549.8,-9.0,-21.0,-5.0,10978.0,9898.0,5675.0,4213.0,-384.0,193.0,95.0,-3.0,6.0,-10.0,11627.0,10267.0,-3031.0,-4319.0,-140.0,-382.0,-69.0,1.0
2022-05-08 17:26:43.319208-07:00,873.0,963.7,1332.3,1007.3,821.0,475.0,1680.5,996.2,3481.9,3477.1,630.3,913.5,408.2,3499.0,922.0,776.1,3477.1,3488.0,420.8,581.0,410.6,529.8,245.4,244.7,3486.8,3477.1,619.7,468.7,1003.0,1134.9,1601.1,549.8,-2.0,-29.0,38.0,11041.0,9788.0,5651.0,4334.0,-271.0,75.0,92.0,-3.0,-25.0,39.0,11674.0,10153.0,-3090.0,-4419.0,-250.0,-221.0,39.0,1.0
2022-05-08 17:26:43.438791-07:00,874.7,955.1,1332.3,1007.3,820.2,475.0,1680.5,996.2,3480.7,3479.5,632.7,913.5,409.8,3499.0,922.0,776.1,3477.1,3488.0,420.8,581.8,410.6,526.6,241.6,241.6,3486.8,3477.1,619.7,474.3,1003.0,1150.6,1664.4,557.0,-17.0,-24.0,32.0,11074.0,9741.0,5626.0,4390.0,-121.0,82.0,62.0,-9.0,-8.0,26.0,11712.0,10075.0,-3142.0,-4459.0,-138.0,-153.0,90.0,1.0
2022-05-08 17:26:43.528934-07:00,874.7,955.1,1332.3,1016.8,822.7,464.0,1714.8,973.9,3480.7,3479.5,632.7,914.4,404.3,3500.2,963.7,782.7,3477.1,3472.2,423.9,585.9,412.9,526.6,241.6,241.6,3477.1,3481.9,618.1,474.3,1001.3,1150.6,1664.4,557.0,42.0,0.0,-4.0,11094.0,9682.0,5624.0,4471.0,-305.0,215.0,59.0,27.0,-35.0,4.0,11751.0,9991.0,-3211.0,-4497.0,-212.0,-235.0,92.0,1.0
2022-05-08 17:26:43.530172-07:00,871.3,956.0,1338.6,1018.5,822.7,464.0,1714.8,973.9,3477.1,3477.1,633.5,911.8,404.3,3500.2,963.7,782.7,3477.1,3472.2,423.9,585.9,413.7,525.0,243.9,241.6,3477.1,3481.9,618.1,474.3,993.6,1160.3,1717.7,549.8,11.0,-13.0,13.0,11137.0,9549.0,5667.0,4595.0,-245.0,326.0,-30.0,-8.0,-3.0,-2.0,11803.0,9895.0,-3267.0,-4532.0,-162.0,-166.0,92.0,1.0
2022-05-08 17:26:43.530930-07:00,871.3,956.0,1338.6,1018.5,821.0,463.2,1679.5,947.5,3477.1,3477.1,633.5,911.8,404.3,3501.4,1007.3,786.1,3467.4,3477.1,422.3,583.5,413.7,525.0,243.9,241.6,3467.4,3481.9,611.7,471.1,993.6,1160.3,1717.7,549.8,-8.0,-2.0,-31.0,11141.0,9440.0,5758.0,4694.0,-214.0,342.0,-38.0,-6.0,11.0,-15.0,11822.0,9838.0,-3319.0,-4568.0,-122.0,-194.0,42.0,1.0
2022-05-08 17:26:43.559108-07:00,867.9,965.4,1331.4,1021.9,821.0,463.2,1679.5,947.5,3474.6,3477.1,642.4,915.2,404.3,3501.4,1007.3,786.1,3467.4,3477.1,422.3,583.5,414.5,524.2,236.3,245.4,3467.4,3481.9,611.7,471.1,996.2,1181.5,1800.3,549.0,14.0,22.0,-38.0,11179.0,9323.0,5797.0,4790.0,-357.0,154.0,-46.0,23.0,14.0,-9.0,11859.0,9731.0,-3380.0,-4656.0,-356.0,-296.0,11.0,1.0
2022-05-08 17:26:43.618576-07:00,867.9,965.4,1331.4,1021.9,817.7,460.8,1648.3,927.1,3474.6,3477.1,642.4,915.2,405.1,3489.2,1072.1,796.0,3478.3,3478.3,416.1,582.6,414.5,524.2,236.3,245.4,3467.4,3472.2,611.7,467.9,996.2,1181.5,1800.3,549.0,20.0,39.0,0.0,11232.0,9201.0,5824.0,4867.0,-244.0,218.0,-69.0,27.0,13.0,15.0,11893.0,9623.0,-3441.0,-4748.0,-169.0,-258.0,-15.0,1.0
2022-05-08 17:26:43.648597-07:00,877.2,974.8,1327.8,1020.2,817.7,460.8,1648.3,927.1,3467.4,3473.4,646.5,913.5,405.1,3489.2,1072.1,796.0,3478.3,3478.3,416.1,582.6,410.6,531.4,244.7,243.2,3467.4,3472.2,611.7,467.9,1019.4,1173.5,1860.6,553.0,4.0,-6.0,46.0,11252.0,9100.0,5904.0,4915.0,-34.0,208.0,-102.0,30.0,27.0,43.0,11905.0,9568.0,-3471.0,-4808.0,-51.0,-107.0,-31.0,1.0
2022-05-08 17:26:43.708709-07:00,876.4,974.8,1327.8,1020.2,821.9,460.8,1619.9,921.1,3469.8,3473.4,646.5,913.5,407.5,3495.3,1076.4,803.5,3479.5,3481.9,416.8,585.9,410.6,531.4,244.7,243.9,3478.3,3488.0,615.7,467.1,1019.4,1173.5,1860.6,553.8,33.0,24.0,26.0,11265.0,9045.0,5934.0,4951.0,-134.0,75.0,-45.0,48.0,-21.0,34.0,11915.0,9531.0,-3485.0,-4846.0,-45.0,-90.0,-46.0,1.0
2022-05-08 17:26:43.768671-07:00,876.4,957.7,1327.8,1011.6,821.9,460.8,1619.9,916.9,3469.8,3477.1,653.8,916.0,407.5,3495.3,1076.4,801.9,3478.3,3481.9,416.8,585.9,412.9,524.2,244.7,243.9,3480.7,3488.0,615.7,467.1,1069.5,1182.3,1885.0,553.8,43.0,11.0,20.0,11288.0,9008.0,5924.0,4978.0,-80.0,28.0,-52.0,24.0,35.0,-1.0,11928.0,9498.0,-3500.0,-4868.0,-88.0,-49.0,-44.0,1.0
2022-05-08 17:26:43.798630-07:00,877.2,957.7,1327.8,1011.6,830.2,454.5,1589.9,916.9,3472.2,3477.1,653.8,916.0,406.7,3507.5,1071.2,801.9,3478.3,3479.5,419.2,585.1,412.9,524.2,244.7,242.4,3480.7,3485.6,614.9,468.7,1069.5,1182.3,1885.0,551.4,16.0,-12.0,-13.0,11317.0,8951.0,5937.0,4998.0,-97.0,65.0,-92.0,13.0,1.0,-20.0,11931.0,9471.0,-3506.0,-4907.0,-57.0,-94.0,-77.0,1.0
2022-05-08 17:26:43.858685-07:00,877.2,956.8,1335.0,1035.7,830.2,454.5,1589.9,905.9,3472.2,3474.6,648.9,914.4,406.7,3507.5,1071.2,801.9,3474.6,3479.5,419.2,585.1,412.1,531.4,243.2,242.4,3479.5,3485.6,614.9,468.7,1131.4,1177.0,1877.2,551.4,17.0,-2.0,3.0,11328.0,8886.0,5991.0,5026.0,-119.0,262.0,-88.0,-7.0,6.0,-20.0,11912.0,9461.0,-3521.0,-4964.0,30.0,-143.0,-105.0,1.0
2022-05-08 17:26:43.948626-07:00,874.7,956.8,1335.0,1035.7,851.1,456.9,1571.1,905.9,3472.2,3474.6,648.9,914.4,405.1,3494.1,1066.9,801.9,3474.6,3485.6,420.8,586.7,412.1,531.4,243.2,240.1,3479.5,3481.9,614.9,467.1,1131.4,1177.0,1877.2,565.0,-3.0,0.0,-5.0,11315.0,8801.0,6083.0,5092.0,-83.0,275.0,-58.0,-1.0,5.0,24.0,11882.0,9449.0,-3553.0,-5034.0,8.0,-145.0,-71.0,1.0
2022-05-08 17:26:43.949902-07:00,874.7,955.1,1326.8,1031.4,851.1,456.9,1571.1,905.9,3472.2,3481.9,650.5,911.0,405.1,3494.1,1066.9,799.4,3474.6,3485.6,420.8,586.7,413.7,532.2,243.9,240.1,3473.4,3481.9,614.9,467.1,1142.7,1167.4,1859.6,565.0,3.0,6.0,8.0,11317.0,8718.0,6154.0,5147.0,-149.0,238.0,-83.0,11.0,0.0,21.0,11853.0,9436.0,-3585.0,-5104.0,-23.0,-159.0,-82.0,1.0
2022-05-08 17:26:44.008604-07:00,871.3,950.0,1326.8,1031.4,871.3,455.3,1544.1,905.9,3480.7,3474.6,650.5,911.0,401.2,3500.2,1054.8,799.4,3474.6,3477.1,420.0,584.3,413.7,532.2,248.5,247.0,3473.4,3473.4,614.9,466.4,1142.7,1167.4,1846.9,576.2,23.0,-8.0,14.0,11323.0,8648.0,6208.0,5186.0,-80.0,211.0,-59.0,-2.0,5.0,-19.0,11823.0,9429.0,-3608.0,-5171.0,13.0,-145.0,-94.0,1.0
2022-05-08 17:26:44.068675-07:00,871.3,950.0,1328.7,1037.5,871.3,455.3,1539.4,907.6,3480.7,3474.6,646.5,911.8,401.2,3500.2,1034.0,797.7,3481.9,3481.9,420.0,584.3,409.8,524.2,248.5,247.0,3481.9,3480.7,614.9,466.4,1116.5,1159.4,1846.9,576.2,19.0,-21.0,29.0,11300.0,8592.0,6277.0,5247.0,-15.0,262.0,-4.0,12.0,15.0,5.0,11781.0,9450.0,-3634.0,-5209.0,227.0,-104.0,-94.0,1.0
2022-05-08 17:26:44.098733-07:00,871.3,937.3,1328.7,1037.5,894.1,456.1,1539.4,907.6,3467.4,3472.2,646.5,911.8,403.5,3491.7,1034.0,797.7,3481.9,3481.9,418.4,587.5,409.8,524.2,241.6,240.9,3481.9,3480.7,611.7,464.0,1116.5,1159.4,1817.8,573.0,3.0,-16.0,-6.0,11264.0,8551.0,6358.0,5294.0,74.0,194.0,-47.0,4.0,-10.0,14.0,11731.0,9487.0,-3656.0,-5240.0,176.0,-60.0,-90.0,1.0
2022-05-08 17:26:44.158627-07:00,871.3,937.3,1331.4,1056.5,894.1,456.1,1526.4,891.5,3467.4,3472.2,646.5,915.2,403.5,3491.7,1028.0,800.2,3475.9,3475.9,418.4,587.5,411.4,529.0,241.6,240.9,3478.3,3480.7,611.7,464.0,1107.8,1150.6,1817.8,573.0,17.0,64.0,-1.0,11234.0,8569.0,6413.0,5260.0,68.0,-41.0,-125.0,14.0,47.0,11.0,11663.0,9545.0,-3662.0,-5281.0,20.0,-51.0,-164.0,1.0
2022-05-08 17:26:44.218614-07:00,870.5,950.9,1331.4,1056.5,907.6,456.1,1526.4,891.5,3473.4,3467.4,646.5,915.2,410.6,3490.5,1028.0,800.2,3475.9,3475.9,416.8,586.7,411.4,529.0,239.3,237.8,3478.3,3480.7,610.0,471.1,1107.8,1150.6,1801.3,573.0,-13.0,26.0,24.0,11266.0,8534.0,6451.0,5202.0,27.0,-7.0,-227.0,6.0,33.0,29.0,11628.0,9554.0,-3623.0,-5369.0,6.0,-25.0,-262.0,1.0
2022-05-08 17:26:44.248749-07:00,870.5,950.9,1335.9,1047.8,907.6,456.1,1517.1,893.2,3473.4,3467.4,646.5,913.5,410.6,3490.5,1024.5,791.9,3472.2,3481.9,416.8,586.7,415.3,529.8,239.3,237.8,3475.9,3473.4,610.0,471.1,1125.2,1146.3,1801.3,573.0,13.0,46.0,33.0,11266.0,8530.0,6506.0,5141.0,166.0,93.0,-223.0,15.0,48.0,11.0,11573.0,9609.0,-3546.0,-5441.0,103.0,83.0,-332.0,1.0
2022-05-08 17:26:44.308382-07:00,866.3,925.4,1344.0,1047.8,901.7,458.5,1517.1,893.2,3478.3,3475.9,646.5,913.5,408.2,3496.6,1024.5,791.9,3472.2,3481.9,427.0,587.5,415.3,529.0,237.8,239.3,3475.9,3473.4,610.8,466.4,1125.2,1147.1,1784.9,573.0,13.0,43.0,5.0,11233.0,8524.0,6631.0,5062.0,248.0,184.0,-294.0,9.0,35.0,6.0,11484.0,9717.0,-3430.0,-5512.0,210.0,163.0,-459.0,1.0
2022-05-08 17:26:44.368698-07:00,866.3,925.4,1344.0,1043.5,901.7,460.0,1527.3,889.8,3478.3,3475.9,646.5,912.7,408.2,3494.1,1040.1,791.0,3479.5,3488.0,424.7,587.5,409.0,529.0,237.8,239.3,3478.3,3479.5,609.2,466.4,1097.3,1147.1,1784.9,573.0,4.0,83.0,-2.0,11185.0,8514.0,6788.0,4978.0,200.0,191.0,-300.0,13.0,57.0,19.0,11401.0,9806.0,-3319.0,-5593.0,123.0,81.0,-524.0,1.0
2022-05-08 17:26:44.398643-07:00,875.5,933.0,1335.9,1043.5,891.5,460.0,1527.3,889.8,3467.4,3473.4,641.6,912.7,409.0,3494.1,1040.1,791.0,3479.5,3488.0,424.7,585.9,409.0,531.4,240.1,241.6,3478.3,3479.5,609.2,466.4,1097.3,1147.1,1781.0,563.4,17.0,32.0,34.0,11182.0,8456.0,6929.0,4887.0,93.0,218.0,-438.0,-1.0,42.0,4.0,11317.0,9871.0,-3158.0,-5741.0,30.0,101.0,-595.0,1.0
2022-05-08 17:26:44.488655-07:00,875.5,933.0,1335.9,1047.0,891.5,460.8,1516.2,889.8,3467.4,3473.4,641.6,913.5,409.0,3491.7,1028.8,788.6,3483.2,3467.4,416.8,585.9,410.6,531.4,240.1,241.6,3475.9,3474.6,606.0,466.4,1086.8,1147.1,1781.0,563.4,-12.0,-17.0,17.0,11146.0,8393.0,7112.0,4814.0,167.0,325.0,-271.0,-1.0,9.0,38.0,11210.0,9956.0,-2991.0,-5891.0,152.0,45.0,-576.0,1.0
2022-05-08 17:26:44.548745-07:00,867.1,923.7,1337.7,1047.0,884.8,460.8,1516.2,889.8,3472.2,3467.4,640.0,913.5,405.9,3491.7,1028.8,788.6,3483.2,3467.4,416.8,586.7,410.6,527.4,239.3,240.9,3475.9,3474.6,606.0,466.4,1086.8,1143.6,1774.3,563.4,-12.0,-10.0,10.0,11093.0,8365.0,7261.0,4763.0,74.0,163.0,-258.0,-19.0,-5.0,15.0,11086.0,10057.0,-2850.0,-6022.0,96.0,90.0,-515.0,1.0
2022-05-08 17:26:44.550167-07:00,867.1,923.7,1337.7,1042.6,884.8,453.7,1508.8,889.8,3472.2,3467.4,640.0,912.7,405.9,3490.5,1040.9,786.9,3488.0,3473.4,422.3,586.7,412.1,527.4,239.3,240.9,3474.6,3483.2,610.8,466.4,1079.9,1143.6,1774.3,563.4,-1.0,-87.0,5.0,11089.0,8287.0,7367.0,4746.0,-38.0,250.0,-185.0,-9.0,-36.0,8.0,10982.0,10135.0,-2713.0,-6144.0,67.0,2.0,-417.0,1.0
2022-05-08 17:26:44.609316-07:00,870.5,928.8,1342.2,1040.1,880.6,453.7,1508.8,889.8,3481.9,3469.8,641.6,915.2,408.2,3490.5,1040.9,786.9,3488.0,3473.4,422.3,589.9,415.3,524.2,241.6,235.5,3474.6,3483.2,610.8,467.9,1066.0,1148.9,1764.6,562.6,10.0,-59.0,-4.0,11072.0,8238.0,7463.0,4720.0,78.0,43.0,-164.0,13.0,-48.0,6.0,10913.0,10175.0,-2616.0,-6241.0,25.0,36.0,-290.0,1.0
2022-05-08 17:26:44.668624-07:00,870.5,928.8,1342.2,1040.1,873.0,447.4,1504.1,883.1,3481.9,3469.8,641.6,915.2,404.3,3492.9,1043.5,789.4,3483.2,3474.6,422.3,586.7,415.3,524.2,241.6,235.5,3479.5,3479.5,613.3,462.4,1066.0,1148.9,1764.6,562.6,39.0,-30.0,-4.0,11071.0,8199.0,7529.0,4686.0,-79.0,135.0,-181.0,33.0,-32.0,-3.0,10875.0,10193.0,-2541.0,-6310.0,-88.0,-2.0,-211.0,1.0
2022-05-08 17:26:44.698686-07:00,867.9,930.5,1342.2,1040.9,873.0,447.4,1504.1,883.1,3472.2,3472.2,640.0,912.7,404.3,3492.9,1043.5,789.4,3483.2,3474.6,422.3,586.7,409.8,523.4,244.7,241.6,3479.5,3479.5,613.3,462.4,1056.5,1141.9,1761.8,557.8,34.0,-79.0,-16.0,11091.0,8134.0,7584.0,4664.0,-16.0,-7.0,-117.0,37.0,-35.0,-13.0,10869.0,10183.0,-2482.0,-6359.0,-30.0,13.0,-114.0,1.0
2022-05-08 17:26:44.758587-07:00,867.9,930.5,1342.2,1040.9,865.4,449.0,1526.4,881.4,3472.2,3472.2,640.0,912.7,403.5,3494.1,1043.5,788.6,3478.3,3478.3,417.6,589.9,409.8,523.4,244.7,241.6,3475.9,3472.2,606.8,464.8,1056.5,1141.9,1761.8,557.8,41.0,-55.0,-1.0,11100.0,8126.0,7592.0,4643.0,-11.0,2.0,-45.0,40.0,-38.0,-2.0,10860.0,10185.0,-2468.0,-6377.0,7.0,-10.0,-53.0,1.0
2022-05-08 17:26:44.818530-07:00,869.6,925.4,1335.9,1046.1,865.4,449.0,1526.4,881.4,3478.3,3466.1,641.6,916.0,403.5,3494.1,1043.5,788.6,3478.3,3478.3,417.6,589.9,410.6,525.0,243.2,240.9,3475.9,3472.2,606.8,464.8,1053.0,1139.2,1756.0,563.4,30.0,-32.0,7.0,11104.0,8133.0,7583.0,4637.0,3.0,-46.0,50.0,26.0,-14.0,3.0,10859.0,10186.0,-2479.0,-6373.0,38.0,-17.0,26.0,1.0
2022-05-08 17:26:44.848526-07:00,869.6,925.4,1335.9,1046.1,863.7,451.4,1495.8,878.9,3478.3,3466.1,641.6,916.0,403.5,3505.1,1038.3,786.1,3473.4,3467.4,417.6,595.5,410.6,525.0,243.2,240.9,3475.9,3483.2,614.9,467.9,1053.0,1139.2,1756.0,563.4,19.0,-11.0,21.0,11111.0,8138.0,7557.0,4651.0,-64.0,-23.0,38.0,25.0,-6.0,16.0,10869.0,10175.0,-2507.0,-6363.0,-14.0,-19.0,62.0,1.0
2022-05-08 17:26:44.908432-07:00,870.5,920.3,1335.9,1036.6,863.7,451.4,1495.8,879.7,3473.4,3474.6,644.9,913.5,403.5,3505.1,1038.3,791.0,3480.7,3467.4,417.6,595.5,416.8,524.2,240.9,245.4,3475.9,3483.2,614.9,467.9,1053.9,1143.6,1748.3,558.6,4.0,1.0,24.0,11124.0,8133.0,7535.0,4665.0,-14.0,4.0,34.0,9.0,7.0,25.0,10881.0,10167.0,-2529.0,-6346.0,20.0,7.0,61.0,1.0
2022-05-08 17:26:44.968410-07:00,868.8,920.3,1335.9,1036.6,869.6,453.7,1496.7,879.7,3478.3,3474.6,644.9,913.5,408.2,3497.8,1034.9,791.0,3480.7,3477.1,418.4,588.3,416.8,524.2,240.9,242.4,3475.9,3474.6,602.0,462.4,1053.9,1143.6,1748.3,557.0,-2.0,9.0,18.0,11125.0,8129.0,7522.0,4693.0,-41.0,31.0,30.0,6.0,10.0,29.0,10892.0,10161.0,-2545.0,-6330.0,6.0,15.0,47.0,1.0
2022-05-08 17:26:44.998404-07:00,868.8,921.1,1345.8,1037.5,869.6,453.7,1496.7,880.6,3478.3,3467.4,643.2,913.5,408.2,3497.8,1034.9,787.7,3483.2,3477.1,418.4,588.3,409.8,526.6,242.4,242.4,3484.4,3474.6,602.0,462.4,1046.1,1148.9,1744.5,557.0,-3.0,10.0,15.0,11128.0,8119.0,7517.0,4710.0,-25.0,11.0,19.0,0.0,9.0,29.0,10906.0,10155.0,-2547.0,-6315.0,-11.0,23.0,28.0,1.0
2022-05-08 17:26:45.059460-07:00,873.0,921.1,1345.8,1037.5,860.4,447.4,1485.6,880.6,3467.4,3467.4,643.2,913.5,406.7,3497.8,1027.1,787.7,3483.2,3473.4,420.8,584.3,409.8,526.6,242.4,243.2,3484.4,3477.1,603.6,467.9,1046.1,1148.9,1744.5,549.0,3.0,16.0,3.0,11132.0,8112.0,7512.0,4721.0,-40.0,4.0,-9.0,-2.0,19.0,3.0,10919.0,10149.0,-2541.0,-6305.0,-44.0,30.0,10.0,1.0
2022-05-08 17:26:45.118684-07:00,873.0,916.9,1336.8,1040.1,860.4,447.4,1485.6,880.6,3467.4,3478.3,645.7,916.0,406.7,3497.8,1027.1,784.4,3467.4,3473.4,420.8,584.3,408.2,522.6,244.7,243.2,3475.9,3477.1,603.6,467.9,1040.1,1139.2,1745.4,549.0,1.0,19.0,7.0,11139.0,8093.0,7517.0,4728.0,-28.0,29.0,-26.0,10.0,14.0,11.0,10930.0,10141.0,-2527.0,-6304.0,-22.0,27.0,-24.0,1.0
2022-05-08 17:26:45.149478-07:00,863.7,916.9,1336.8,1040.1,852.0,450.6,1488.4,880.6,3478.3,3478.3,645.7,916.0,406.7,3494.1,1022.8,784.4,3467.4,3490.5,425.5,586.7,408.2,522.6,244.7,240.1,3475.9,3474.6,601.2,454.5,1040.1,1139.2,1745.4,553.0,9.0,2.0,-2.0,11145.0,8079.0,7523.0,4728.0,-10.0,3.0,-34.0,8.0,3.0,3.0,10934.0,10138.0,-2508.0,-6310.0,-29.0,25.0,-40.0,1.0
2022-05-08 17:26:45.208544-07:00,863.7,917.7,1334.1,1035.7,852.0,450.6,1484.7,882.3,3478.3,3473.4,642.4,912.7,406.7,3494.1,1027.1,786.9,3483.2,3479.5,425.5,586.7,410.6,525.8,242.4,240.1,3489.2,3481.9,601.2,454.5,1040.1,1143.6,1743.5,553.0,7.0,-8.0,3.0,11154.0,8065.0,7531.0,4719.0,-9.0,7.0,-48.0,9.0,-4.0,8.0,10937.0,10132.0,-2493.0,-6320.0,-28.0,1.0,-31.0,1.0
2022-05-08 17:26:45.238939-07:00,875.5,914.4,1334.1,1035.7,859.5,449.0,1484.7,882.3,3478.3,3472.2,642.4,912.7,407.5,3495.3,1027.1,786.9,3483.2,3479.5,421.5,585.1,410.6,525.8,244.7,240.9,3489.2,3481.9,603.6,464.8,1040.1,1143.6,1738.7,551.4,9.0,-5.0,9.0,11158.0,8062.0,7537.0,4704.0,7.0,-20.0,-35.0,6.0,-3.0,9.0,10935.0,10131.0,-2487.0,-6327.0,-3.0,-6.0,-17.0,1.0
2022-05-08 17:26:45.298692-07:00,875.5,914.4,1339.5,1042.6,859.5,449.0,1481.9,878.0,3478.3,3472.2,647.3,914.4,407.5,3495.3,1014.2,787.7,3485.6,3474.6,421.5,585.1,412.1,524.2,244.7,240.9,3481.9,3475.9,603.6,464.8,1038.3,1141.0,1738.7,551.4,12.0,-8.0,18.0,11171.0,8051.0,7533.0,4698.0,-43.0,-9.0,-33.0,8.0,-6.0,7.0,10941.0,10120.0,-2490.0,-6335.0,-37.0,-32.0,1.0,1.0
2022-05-08 17:26:45.358669-07:00,871.3,913.5,1339.5,1042.6,854.5,448.2,1481.9,878.0,3475.9,3480.7,647.3,914.4,407.5,3494.1,1014.2,787.7,3485.6,3474.6,425.5,586.7,412.1,524.2,241.6,243.2,3481.9,3475.9,608.4,466.4,1038.3,1141.0,1733.0,552.2,8.0,-14.0,24.0,11180.0,8039.0,7530.0,4703.0,-1.0,7.0,11.0,12.0,-9.0,27.0,10952.0,10105.0,-2494.0,-6338.0,-8.0,-3.0,21.0,1.0
2022-05-08 17:26:45.418681-07:00,871.3,913.5,1336.8,1035.7,854.5,448.2,1474.6,875.5,3475.9,3480.7,643.2,916.0,407.5,3494.1,1019.4,786.1,3477.1,3474.6,425.5,586.7,412.9,523.4,241.6,243.2,3480.7,3475.9,608.4,466.4,1034.9,1147.1,1733.0,552.2,9.0,0.0,10.0,11174.0,8046.0,7532.0,4703.0,41.0,14.0,3.0,11.0,6.0,14.0,10954.0,10109.0,-2500.0,-6326.0,28.0,29.0,24.0,1.0
2022-05-08 17:26:45.448699-07:00,865.4,921.1,1336.8,1035.7,851.1,445.9,1474.6,875.5,3472.2,3469.8,643.2,916.0,406.7,3486.8,1019.4,786.1,3477.1,3474.6,416.8,586.7,412.9,523.4,240.1,241.6,3480.7,3475.9,602.0,467.9,1034.9,1147.1,1736.8,550.6,13.0,10.0,5.0,11172.0,8049.0,7533.0,4700.0,-11.0,6.0,-18.0,11.0,4.0,10.0,10956.0,10110.0,-2505.0,-6318.0,-4.0,2.0,10.0,1.0
2022-05-08 17:26:45.508656-07:00,865.4,921.1,1343.1,1032.3,851.1,449.0,1479.2,877.2,3472.2,3469.8,644.0,911.0,406.7,3499.0,1021.9,786.9,3481.9,3475.9,427.0,586.7,410.6,523.4,240.1,241.6,3480.7,3472.2,599.6,467.9,1030.6,1141.0,1736.8,550.6,20.0,-9.0,9.0,11179.0,8042.0,7527.0,4706.0,-14.0,2.0,-5.0,15.0,-6.0,0.0,10961.0,10106.0,-2507.0,-6316.0,-12.0,0.0,13.0,1.0
2022-05-08 17:26:45.538837-07:00,861.2,911.0,1330.5,1032.3,847.8,449.0,1479.2,877.2,3477.1,3467.4,641.6,911.0,402.8,3499.0,1021.9,786.9,3481.9,3475.9,427.0,587.5,410.6,527.4,241.6,243.2,3480.7,3472.2,599.6,464.8,1030.6,1138.4,1735.8,550.6,14.0,-16.0,5.0,11174.0,8046.0,7533.0,4701.0,62.0,-12.0,-16.0,23.0,-11.0,16.0,10966.0,10106.0,-2513.0,-6303.0,30.0,30.0,32.0,1.0
2022-05-08 17:26:45.598664-07:00,861.2,911.0,1330.5,1034.0,847.8,448.2,1463.5,876.4,3477.1,3467.4,641.6,912.7,402.8,3505.1,1023.7,790.2,3472.2,3474.6,416.8,587.5,414.5,527.4,241.6,243.2,3477.1,3488.0,604.4,464.8,1030.6,1138.4,1735.8,550.6,18.0,-20.0,12.0,11173.0,8056.0,7529.0,4693.0,6.0,-3.0,18.0,12.0,-17.0,0.0,10971.0,10111.0,-2524.0,-6283.0,19.0,10.0,52.0,1.0
2022-05-08 17:26:45.719408-07:00,866.3,911.8,1336.8,1034.0,852.8,448.2,1463.5,876.4,3467.4,3472.2,647.3,912.7,405.9,3505.1,1023.7,790.2,3472.2,3474.6,416.8,589.1,414.5,520.3,240.9,245.4,3477.1,3488.0,604.4,463.2,1030.6,1139.2,1733.9,550.6,20.0,-22.0,10.0,11169.0,8060.0,7522.0,4706.0,14.0,22.0,25.0,14.0,-28.0,1.0,10978.0,10111.0,-2544.0,-6262.0,22.0,16.0,78.0,1.0
2022-05-08 17:26:45.721227-07:00,866.3,911.8,1336.8,1040.9,852.8,449.8,1460.8,875.5,3467.4,3472.2,647.3,919.4,405.9,3503.9,1014.2,784.4,3474.6,3489.2,420.8,589.1,411.4,520.3,240.9,245.4,3478.3,3474.6,601.2,463.2,1037.5,1139.2,1733.9,550.6,16.0,-22.0,9.0,11151.0,8076.0,7521.0,4723.0,25.0,42.0,83.0,5.0,-17.0,4.0,10984.0,10119.0,-2564.0,-6230.0,52.0,30.0,120.0,1.0
2022-05-08 17:26:45.748682-07:00,863.7,909.3,1325.0,1040.9,847.8,449.8,1460.8,875.5,3474.6,3471.0,650.5,919.4,407.5,3503.9,1014.2,784.4,3474.6,3489.2,420.8,590.7,411.4,525.0,241.6,244.7,3478.3,3474.6,601.2,467.9,1037.5,1132.2,1727.2,552.2,6.0,-31.0,4.0,11122.0,8093.0,7529.0,4750.0,41.0,59.0,81.0,11.0,-13.0,10.0,10992.0,10130.0,-2601.0,-6183.0,59.0,22.0,148.0,1.0
2022-05-08 17:26:45.808779-07:00,863.7,909.3,1325.0,1034.9,843.6,440.4,1461.7,868.8,3474.6,3471.0,650.5,912.7,405.1,3497.8,1015.9,786.1,3483.2,3478.3,415.3,589.1,410.6,525.0,241.6,244.7,3479.5,3475.9,605.2,467.9,1028.8,1132.2,1727.2,552.2,24.0,-9.0,-9.0,11085.0,8116.0,7532.0,4792.0,10.0,91.0,108.0,16.0,-3.0,-6.0,11004.0,10139.0,-2653.0,-6125.0,59.0,-17.0,195.0,1.0
2022-05-08 17:26:45.868738-07:00,864.6,905.0,1335.0,1032.3,843.6,440.4,1461.7,868.8,3475.9,3467.4,646.5,911.0,405.1,3497.8,1015.9,786.1,3483.2,3478.3,415.3,589.1,412.1,525.0,242.4,243.2,3479.5,3475.9,605.2,467.9,1020.2,1132.2,1727.2,550.6,24.0,20.0,3.0,11070.0,8127.0,7518.0,4829.0,-40.0,12.0,89.0,22.0,18.0,5.0,11025.0,10131.0,-2725.0,-6068.0,13.0,-43.0,204.0,1.0
2022-05-08 17:26:45.898977-07:00,864.6,905.0,1335.0,1032.3,844.4,452.2,1464.4,878.9,3475.9,3467.4,646.5,911.0,404.3,3492.9,1019.4,786.1,3469.8,3472.2,416.8,589.1,412.1,525.0,242.4,243.2,3478.3,3478.3,600.4,464.0,1020.2,1132.2,1727.2,550.6,11.0,4.0,20.0,11062.0,8131.0,7503.0,4865.0,-20.0,55.0,63.0,-3.0,1.0,6.0,11053.0,10115.0,-2790.0,-6015.0,1.0,-12.0,193.0,1.0
2022-05-08 17:26:45.958632-07:00,862.9,910.1,1327.8,1029.7,844.4,452.2,1464.4,878.9,3477.1,3479.5,645.7,916.9,404.3,3492.9,1019.4,786.1,3469.8,3472.2,416.8,589.1,412.9,521.0,241.6,243.2,3478.3,3478.3,600.4,464.0,1021.1,1131.4,1728.2,550.6,2.0,-52.0,18.0,11025.0,8133.0,7527.0,4907.0,62.0,140.0,80.0,8.0,-37.0,19.0,11083.0,10100.0,-2851.0,-5956.0,56.0,0.0,258.0,1.0
2022-05-08 17:26:45.988933-07:00,862.9,910.1,1327.8,1029.7,858.7,446.7,1458.0,872.1,3477.1,3479.5,645.7,916.9,405.1,3500.2,1018.5,790.2,3464.9,3479.5,416.8,593.9,412.9,521.0,241.6,243.2,3472.2,3479.5,611.7,464.0,1021.1,1131.4,1728.2,550.6,-8.0,-67.0,31.0,10989.0,8156.0,7535.0,4938.0,53.0,62.0,123.0,5.0,-30.0,15.0,11128.0,10075.0,-2936.0,-5871.0,21.0,-11.0,391.0,1.0
2022-05-08 17:26:46.048971-07:00,867.1,903.4,1322.3,1035.7,858.7,446.7,1458.0,872.1,3474.6,3477.1,644.9,906.7,405.1,3500.2,1018.5,790.2,3464.9,3479.5,416.8,593.9,408.2,525.0,244.7,239.3,3472.2,3479.5,611.7,464.0,1031.4,1141.9,1724.4,550.6,-7.0,-42.0,4.0,10947.0,8181.0,7533.0,4992.0,30.0,15.0,168.0,13.0,-15.0,59.0,11196.0,10037.0,-3057.0,-5744.0,14.0,-26.0,517.0,1.0
2022-05-08 17:26:46.108656-07:00,862.1,903.4,1322.3,1035.7,850.3,449.0,1454.3,878.0,3468.6,3477.1,644.9,906.7,406.7,3500.2,1016.8,782.7,3478.3,3473.4,418.4,581.0,408.2,525.0,244.7,236.3,3477.1,3471.0,594.7,462.4,1031.4,1141.9,1724.4,549.0,22.0,-8.0,-29.0,10947.0,8252.0,7432.0,5028.0,13.0,-241.0,304.0,23.0,12.0,-17.0,11281.0,9983.0,-3212.0,-5585.0,0.0,-56.0,615.0,1.0
2022-05-08 17:26:46.138880-07:00,862.1,910.1,1326.8,1024.5,850.3,449.0,1454.3,883.1,3468.6,3472.2,658.7,910.1,406.7,3500.2,1016.8,786.1,3478.3,3473.4,418.4,581.0,419.2,525.0,241.6,236.3,3472.2,3471.0,594.7,462.4,1021.1,1137.5,1713.8,549.0,29.0,41.0,-6.0,10954.0,8323.0,7302.0,5084.0,-118.0,-198.0,457.0,18.0,49.0,-23.0,11368.0,9911.0,-3404.0,-5422.0,-47.0,-133.0,636.0,1.0
2022-05-08 17:26:46.198686-07:00,866.3,910.1,1326.8,1024.5,849.5,445.1,1445.1,883.1,3467.4,3472.2,658.7,910.1,405.9,3494.1,1015.9,786.1,3478.3,3473.4,420.0,584.3,419.2,525.0,241.6,243.2,3472.2,3478.3,608.4,460.8,1021.1,1137.5,1713.8,549.0,12.0,82.0,12.0,10973.0,8370.0,7140.0,5196.0,-134.0,-149.0,300.0,9.0,56.0,-10.0,11461.0,9814.0,-3580.0,-5287.0,-100.0,-82.0,507.0,1.0
2022-05-08 17:26:46.258771-07:00,866.3,909.3,1328.7,1034.0,849.5,445.1,1445.1,885.6,3467.4,3469.8,641.6,916.0,405.9,3494.1,1015.9,783.6,3481.9,3473.4,420.0,584.3,412.1,521.0,241.6,243.2,3473.4,3478.3,608.4,460.8,1046.1,1137.5,1714.8,549.0,-5.0,32.0,8.0,10957.0,8415.0,7050.0,5279.0,19.0,0.0,268.0,5.0,31.0,18.0,11520.0,9760.0,-3701.0,-5175.0,26.0,-25.0,379.0,1.0
2022-05-08 17:26:46.288923-07:00,862.9,909.3,1328.7,1034.0,847.0,445.1,1438.7,885.6,3471.0,3469.8,641.6,916.0,405.9,3502.7,1014.2,783.6,3481.9,3480.7,416.8,585.9,412.1,521.0,241.6,241.6,3473.4,3478.3,602.8,463.2,1046.1,1137.5,1714.8,551.4,15.0,16.0,0.0,10945.0,8450.0,6983.0,5336.0,-95.0,-114.0,144.0,4.0,6.0,0.0,11573.0,9719.0,-3782.0,-5074.0,-89.0,25.0,317.0,1.0
2022-05-08 17:26:46.348716-07:00,862.9,910.1,1320.5,1027.1,847.0,445.1,1438.7,889.8,3471.0,3475.9,643.2,911.8,405.9,3502.7,1014.2,791.9,3483.2,3480.7,416.8,585.9,407.5,517.9,241.6,241.6,3481.9,3478.3,602.8,463.2,1066.0,1134.9,1702.4,551.4,14.0,-11.0,8.0,10950.0,8475.0,6911.0,5380.0,-1.0,-82.0,246.0,24.0,4.0,17.0,11630.0,9674.0,-3849.0,-4978.0,-7.0,23.0,323.0,1.0
2022-05-08 17:26:46.408699-07:00,864.6,894.9,1320.5,1027.1,857.0,441.9,1431.4,889.8,3462.5,3472.2,643.2,911.8,404.3,3496.6,1006.5,791.9,3483.2,3472.2,420.8,585.1,407.5,517.9,241.6,241.6,3481.9,3467.4,601.2,460.8,1066.0,1134.9,1699.5,549.0,25.0,183.0,46.0,10867.0,8586.0,6881.0,5411.0,196.0,69.0,168.0,8.0,89.0,57.0,11637.0,9702.0,-3907.0,-4859.0,181.0,135.0,172.0,1.0
2022-05-08 17:26:46.439136-07:00,864.6,894.9,1320.5,1034.0,857.0,441.9,1430.5,882.3,3462.5,3472.2,652.2,915.2,404.3,3496.6,1004.8,783.6,3475.9,3483.2,420.8,585.1,412.9,519.5,241.6,241.6,3478.3,3480.7,601.2,460.8,1034.0,1132.2,1699.5,549.0,27.0,14.0,-26.0,10847.0,8627.0,6860.0,5413.0,87.0,-102.0,73.0,10.0,7.0,-11.0,11666.0,9699.0,-3907.0,-4797.0,-31.0,58.0,100.0,1.0
2022-05-08 17:26:46.499021-07:00,865.4,905.0,1320.5,1034.0,865.4,447.4,1430.5,882.3,3471.0,3472.2,652.2,915.2,404.3,3499.0,1004.8,783.6,3475.9,3483.2,422.3,585.1,412.9,519.5,241.6,241.6,3478.3,3480.7,601.2,467.9,1034.0,1132.2,1687.2,543.4,19.0,65.0,-5.0,10846.0,8688.0,6812.0,5379.0,34.0,-182.0,20.0,-1.0,40.0,-9.0,11696.0,9676.0,-3905.0,-4771.0,-110.0,22.0,32.0,1.0
2022-05-08 17:26:46.558773-07:00,865.4,905.0,1325.0,1032.3,865.4,447.4,1438.7,874.7,3471.0,3472.2,643.2,913.5,404.3,3499.0,1008.2,785.2,3477.1,3484.4,422.3,585.1,416.1,523.4,241.6,241.6,3477.1,3479.5,601.2,467.9,1039.2,1127.9,1687.2,543.4,0.0,4.0,-1.0,10893.0,8675.0,6769.0,5359.0,-218.0,-40.0,-68.0,-1.0,4.0,2.0,11741.0,9620.0,-3875.0,-4800.0,-228.0,-4.0,-42.0,1.0
2022-05-08 17:26:46.588891-07:00,864.6,919.4,1325.0,1032.3,900.8,451.4,1438.7,874.7,3477.1,3472.2,643.2,913.5,405.1,3500.2,1008.2,785.2,3477.1,3484.4,416.8,583.5,416.1,523.4,239.3,243.2,3477.1,3479.5,599.6,467.9,1039.2,1127.9,1691.0,557.8,2.0,12.0,2.0,10956.0,8620.0,6736.0,5358.0,-185.0,-93.0,-76.0,5.0,0.0,7.0,11790.0,9564.0,-3824.0,-4830.0,-216.0,55.0,-67.0,1.0
2022-05-08 17:26:46.648724-07:00,864.6,919.4,1310.6,1030.6,900.8,451.4,1433.2,900.8,3477.1,3472.2,648.1,911.8,405.1,3500.2,997.9,786.9,3478.3,3471.0,416.8,583.5,409.8,526.6,239.3,243.2,3480.7,3480.7,599.6,467.9,1069.5,1124.4,1691.0,557.8,7.0,-34.0,31.0,11033.0,8579.0,6670.0,5349.0,-241.0,-269.0,71.0,46.0,-4.0,60.0,11850.0,9510.0,-3754.0,-4846.0,-238.0,122.0,-37.0,1.0
2022-05-08 17:26:46.828744-07:00,864.6,911.8,1325.0,1030.6,920.3,445.9,1433.2,900.8,3468.6,3474.6,644.0,911.8,406.7,3495.3,997.9,786.9,3478.3,3471.0,418.4,581.8,409.8,522.6,235.5,236.3,3480.7,3480.7,597.9,460.8,1069.5,1129.6,1690.0,577.8,62.0,-10.0,44.0,11178.0,8534.0,6465.0,5373.0,-737.0,-480.0,160.0,49.0,-23.0,37.0,11975.0,9373.0,-3685.0,-4857.0,-585.0,65.0,62.0,1.0
2022-05-08 17:26:46.830710-07:00,864.6,911.8,1325.0,1028.8,920.3,449.8,1456.2,1015.1,3468.6,3474.6,644.0,921.1,406.7,3496.6,993.6,781.1,3481.9,3474.6,416.1,581.8,408.2,522.6,235.5,236.3,3488.0,3483.2,599.6,460.8,1094.7,1129.6,1690.0,577.8,44.0,-37.0,107.0,11387.0,8420.0,6192.0,5435.0,-195.0,-437.0,222.0,68.0,1.0,69.0,12150.0,9208.0,-3597.0,-4805.0,-219.0,386.0,143.0,1.0
2022-05-08 17:26:46.831660-07:00,865.4,905.0,1328.7,1028.8,897.4,449.8,1456.2,1015.1,3471.0,3469.8,642.4,921.1,402.8,3496.6,993.6,781.1,3481.9,3474.6,416.1,587.5,408.2,523.4,244.7,237.8,3488.0,3483.2,599.6,462.4,1094.7,1128.7,1714.8,563.4,122.0,-57.0,98.0,11433.0,8507.0,5989.0,5429.0,139.0,-235.0,314.0,82.0,-59.0,6.0,12199.0,9282.0,-3448.0,-4646.0,218.0,682.0,55.0,1.0
2022-05-08 17:26:46.858623-07:00,865.4,905.0,1328.7,1023.7,897.4,459.3,1573.0,1046.1,3471.0,3469.8,642.4,916.9,402.8,3500.2,1004.8,783.6,3478.3,3473.4,415.3,587.5,411.4,523.4,244.7,237.8,3477.1,3475.9,600.4,462.4,1047.8,1128.7,1714.8,563.4,30.0,-50.0,-6.0,11346.0,8746.0,5846.0,5388.0,626.0,-603.0,414.0,4.0,-29.0,-1.0,12128.0,9578.0,-3256.0,-4361.0,819.0,932.0,69.0,1.0
2022-05-08 17:26:46.888924-07:00,872.1,920.3,1337.7,1023.7,885.6,459.3,1573.0,1046.1,3478.3,3474.6,644.9,916.9,405.1,3500.2,1004.8,783.6,3478.3,3473.4,415.3,583.5,411.4,528.2,240.1,237.8,3477.1,3475.9,600.4,467.1,1047.8,1128.7,1755.0,559.4,-19.0,-17.0,-35.0,11083.0,9241.0,5797.0,5158.0,1627.0,-298.0,186.0,-36.0,-40.0,-48.0,11900.0,10051.0,-3123.0,-4005.0,1302.0,770.0,55.0,1.0
2022-05-08 17:26:46.948655-07:00,872.1,920.3,1337.7,1028.8,885.6,467.1,1594.6,997.9,3478.3,3474.6,644.9,919.4,405.1,3492.9,971.3,784.4,3484.4,3483.2,421.5,583.5,414.5,528.2,240.1,237.8,3484.4,3488.0,619.7,467.1,1031.4,1128.7,1755.0,559.4,-44.0,-38.0,-29.0,10704.0,9747.0,5940.0,4853.0,1472.0,-212.0,-10.0,-44.0,-7.0,-9.0,11636.0,10482.0,-3067.0,-3709.0,1040.0,564.0,95.0,1.0
2022-05-08 17:26:47.008651-07:00,883.1,969.6,1337.7,1022.8,870.5,467.1,1594.6,997.9,3467.4,3469.8,639.2,907.6,404.3,3492.9,971.3,784.4,3484.4,3483.2,421.5,582.6,412.1,523.4,237.8,240.9,3484.4,3488.0,619.7,467.1,1019.4,1129.6,1654.9,559.4,-51.0,78.0,-86.0,10343.0,10091.0,6155.0,4664.0,1216.0,356.0,-151.0,-95.0,32.0,-67.0,11421.0,10788.0,-3046.0,-3512.0,824.0,262.0,-24.0,1.0
2022-05-08 17:26:47.039016-07:00,883.1,969.6,1337.7,1022.8,872.1,467.9,1688.1,957.7,3467.4,3469.8,639.2,907.6,409.0,3501.4,915.2,784.4,3477.1,3473.4,419.2,585.9,412.1,523.4,237.8,240.9,3473.4,3467.4,630.3,469.5,1019.4,1129.6,1654.9,559.4,-45.0,-16.0,-89.0,10106.0,10242.0,6423.0,4488.0,773.0,138.0,-382.0,-40.0,42.0,-38.0,11260.0,10979.0,-3030.0,-3454.0,446.0,68.0,-93.0,1.0
2022-05-08 17:26:47.098646-07:00,876.4,1069.5,1327.8,1024.5,872.1,467.9,1688.1,957.7,3467.4,3464.9,635.1,907.6,409.0,3501.4,915.2,784.4,3477.1,3473.4,419.2,585.9,411.4,523.4,238.6,239.3,3473.4,3467.4,630.3,469.5,1009.0,1118.2,1585.2,558.6,9.0,73.0,-45.0,9952.0,10385.0,6558.0,4307.0,531.0,-65.0,-158.0,-32.0,85.0,-56.0,11163.0,11082.0,-3000.0,-3464.0,218.0,-64.0,-310.0,1.0
2022-05-08 17:26:47.188835-07:00,876.4,1069.5,1327.8,1024.5,858.7,467.9,1760.8,960.2,3467.4,3464.9,635.1,907.6,406.7,3497.8,898.3,777.8,3474.6,3474.6,416.8,585.9,411.4,523.4,238.6,239.3,3485.6,3478.3,627.0,468.7,1009.0,1118.2,1585.2,558.6,7.0,34.0,-14.0,9952.0,10366.0,6629.0,4242.0,-128.0,-60.0,-263.0,2.0,28.0,34.0,11111.0,11110.0,-2937.0,-3594.0,-161.0,-133.0,-363.0,1.0
2022-05-08 17:26:47.190382-07:00,877.2,1069.5,1324.1,1021.9,858.7,467.9,1760.8,960.2,3467.4,3473.4,634.3,911.8,406.7,3497.8,898.3,777.8,3474.6,3474.6,416.8,585.9,408.2,525.8,240.9,240.1,3485.6,3478.3,627.0,468.7,1001.3,1120.0,1546.9,554.6,100.0,-102.0,16.0,10059.0,10288.0,6643.0,4158.0,-159.0,-129.0,-238.0,69.0,-53.0,-11.0,11110.0,11079.0,-2864.0,-3751.0,-103.0,-174.0,-234.0,1.0
2022-05-08 17:26:47.309489-07:00,877.2,1069.5,1324.1,1021.9,856.2,461.6,1710.0,943.2,3467.4,3473.4,634.3,911.8,409.8,3489.2,892.4,775.3,3474.6,3478.3,418.4,589.1,408.2,525.8,240.9,240.1,3478.3,3480.7,623.8,471.1,1001.3,1120.0,1546.9,554.6,52.0,-39.0,64.0,10084.0,10288.0,6651.0,4084.0,104.0,-133.0,-52.0,45.0,-26.0,54.0,11095.0,11065.0,-2863.0,-3837.0,8.0,-85.0,-21.0,1.0
2022-05-08 17:26:47.311059-07:00,873.8,1060.8,1325.0,1015.9,856.2,461.6,1710.0,946.6,3475.9,3484.4,631.1,913.5,409.8,3489.2,892.4,778.6,3472.2,3478.3,418.4,589.1,409.8,520.3,237.8,243.2,3477.1,3480.7,623.8,471.1,995.3,1113.0,1537.6,549.8,13.0,2.0,51.0,10100.0,10306.0,6609.0,4069.0,-113.0,-85.0,89.0,-1.0,-4.0,46.0,11109.0,11042.0,-2876.0,-3850.0,-152.0,4.0,57.0,1.0
2022-05-08 17:26:47.338903-07:00,870.5,1060.8,1325.0,1015.9,851.1,461.6,1699.5,946.6,3471.0,3484.4,631.1,913.5,405.1,3492.9,886.5,778.6,3472.2,3481.9,416.8,582.6,409.8,520.3,237.8,241.6,3477.1,3478.3,623.8,467.1,995.3,1113.0,1537.6,554.6,-16.0,-2.0,33.0,10123.0,10295.0,6577.0,4088.0,85.0,30.0,17.0,-28.0,-1.0,12.0,11136.0,11021.0,-2877.0,-3832.0,99.0,28.0,38.0,1.0
2022-05-08 17:26:47.398792-07:00,870.5,1057.3,1314.2,1016.8,851.1,461.6,1699.5,944.1,3471.0,3471.0,630.3,913.5,405.1,3492.9,886.5,778.6,3474.6,3481.9,416.8,582.6,410.6,523.4,242.4,241.6,3479.5,3478.3,623.8,467.1,993.6,1113.9,1526.4,554.6,5.0,27.0,4.0,10086.0,10306.0,6611.0,4098.0,-25.0,96.0,-8.0,-4.0,16.0,12.0,11119.0,11047.0,-2873.0,-3808.0,24.0,76.0,-13.0,1.0
2022-05-08 17:26:47.458651-07:00,874.7,1057.3,1314.2,1016.8,867.1,462.4,1678.6,944.1,3467.4,3471.0,630.3,913.5,403.5,3496.6,878.9,778.6,3474.6,3480.7,420.8,589.1,410.6,523.4,242.4,243.2,3479.5,3477.1,620.5,467.1,993.6,1113.9,1526.4,553.8,25.0,11.0,-15.0,10079.0,10282.0,6654.0,4108.0,121.0,91.0,-106.0,11.0,12.0,0.0,11117.0,11061.0,-2847.0,-3794.0,90.0,43.0,-38.0,1.0
2022-05-08 17:26:47.488908-07:00,874.7,1052.2,1317.8,1010.8,867.1,462.4,1678.6,934.7,3467.4,3475.9,631.9,911.8,403.5,3496.6,878.9,775.3,3475.9,3480.7,420.8,589.1,412.9,525.0,246.2,243.2,3480.7,3477.1,620.5,467.1,991.9,1113.0,1517.1,553.8,27.0,0.0,0.0,10049.0,10291.0,6697.0,4085.0,17.0,10.0,-79.0,18.0,4.0,15.0,11100.0,11084.0,-2832.0,-3789.0,25.0,48.0,-53.0,1.0
2022-05-08 17:26:47.548604-07:00,870.5,1052.2,1317.8,1010.8,847.8,464.8,1661.5,934.7,3474.6,3475.9,631.9,911.8,402.8,3491.7,874.7,775.3,3475.9,3478.3,418.4,589.9,412.9,525.0,246.2,243.2,3480.7,3477.1,618.9,477.4,991.9,1113.0,1517.1,548.2,14.0,-23.0,7.0,10046.0,10282.0,6719.0,4080.0,25.0,66.0,-56.0,-8.0,-17.0,9.0,11097.0,11092.0,-2813.0,-3786.0,17.0,25.0,-15.0,1.0
2022-05-08 17:26:47.608692-07:00,870.5,1045.2,1310.6,1011.6,847.8,464.8,1661.5,946.6,3474.6,3466.1,627.8,916.0,402.8,3491.7,873.8,775.3,3478.3,3474.6,418.4,589.9,412.9,522.6,243.2,243.2,3479.5,3478.3,618.9,477.4,1004.8,1111.2,1506.0,548.2,7.0,-57.0,15.0,10010.0,10298.0,6749.0,4078.0,121.0,82.0,46.0,-16.0,-18.0,25.0,11087.0,11109.0,-2821.0,-3762.0,78.0,28.0,88.0,1.0
2022-05-08 17:26:47.698621-07:00,873.0,1044.4,1310.6,1011.6,844.4,463.2,1661.5,946.6,3483.2,3475.9,627.8,916.0,405.9,3499.0,873.8,775.3,3478.3,3474.6,417.6,582.6,412.9,522.6,251.5,240.1,3479.5,3478.3,619.7,471.1,1004.8,1111.2,1503.2,546.6,13.0,29.0,-5.0,9979.0,10330.0,6733.0,4100.0,-8.0,-21.0,94.0,0.0,11.0,0.0,11093.0,11109.0,-2846.0,-3722.0,-2.0,28.0,117.0,1.0
2022-05-08 17:26:47.699934-07:00,873.0,1044.4,1306.1,1008.2,844.4,463.2,1659.6,939.8,3483.2,3475.9,627.0,917.7,405.9,3499.0,873.8,776.9,3478.3,3473.4,417.6,582.6,411.4,521.0,251.5,240.1,3472.2,3488.0,619.7,471.1,981.6,1112.1,1503.2,546.6,29.0,26.0,-2.0,9976.0,10336.0,6720.0,4114.0,16.0,9.0,43.0,21.0,26.0,6.0,11104.0,11101.0,-2867.0,-3698.0,4.0,-2.0,49.0,1.0
2022-05-08 17:26:47.729027-07:00,867.1,1045.2,1306.1,1008.2,845.3,461.6,1659.6,939.8,3479.5,3479.5,627.0,917.7,406.7,3500.2,873.8,776.9,3478.3,3473.4,417.6,583.5,411.4,521.0,242.4,239.3,3472.2,3488.0,620.5,467.1,981.6,1112.1,1501.4,547.4,10.0,14.0,2.0,9977.0,10337.0,6706.0,4132.0,-4.0,-4.0,-14.0,1.0,0.0,12.0,11111.0,11094.0,-2871.0,-3695.0,-10.0,-4.0,-3.0,1.0
2022-05-08 17:26:47.818695-07:00,867.1,1045.2,1310.6,1014.2,845.3,461.6,1641.6,929.6,3479.5,3479.5,627.8,913.5,406.7,3500.2,866.3,773.6,3477.1,3474.6,417.6,583.5,417.6,521.0,242.4,239.3,3480.7,3478.3,620.5,467.1,973.1,1106.9,1501.4,547.4,7.0,-5.0,17.0,9984.0,10328.0,6711.0,4129.0,-66.0,7.0,-21.0,-5.0,0.0,14.0,11116.0,11089.0,-2864.0,-3702.0,-44.0,8.0,-15.0,1.0
2022-05-08 17:26:47.939432-07:00,870.5,1034.9,1310.6,1014.2,843.6,464.0,1641.6,929.6,3469.8,3468.6,627.8,913.5,403.5,3499.0,866.3,773.6,3477.1,3474.6,421.5,580.2,417.6,521.0,242.4,238.6,3480.7,3478.3,622.2,471.1,973.1,1106.9,1494.0,536.2,16.0,10.0,4.0,9991.0,10321.0,6711.0,4130.0,-7.0,1.0,-18.0,12.0,9.0,18.0,11120.0,11086.0,-2860.0,-3701.0,0.0,5.0,-10.0,1.0
2022-05-08 17:26:47.968708-07:00,870.5,1034.9,1310.6,1015.9,843.6,460.8,1632.2,930.5,3469.8,3468.6,631.1,917.7,403.5,3486.8,871.3,773.6,3483.2,3477.1,418.4,580.2,412.9,523.4,242.4,238.6,3474.6,3477.1,616.5,471.1,968.8,1110.4,1494.0,536.2,28.0,13.0,6.0,10004.0,10312.0,6701.0,4138.0,-51.0,8.0,-14.0,18.0,12.0,6.0,11126.0,11079.0,-2853.0,-3709.0,-29.0,-13.0,-34.0,1.0
2022-05-08 17:26:47.971148-07:00,867.9,1034.9,1311.5,1015.9,847.0,460.8,1632.2,930.5,3472.2,3479.5,627.0,917.7,405.1,3486.8,871.3,773.6,3483.2,3477.1,418.4,586.7,412.9,522.6,243.9,243.2,3474.6,3477.1,616.5,471.1,968.8,1106.9,1481.9,543.4,18.0,11.0,8.0,10023.0,10290.0,6693.0,4161.0,-107.0,6.0,8.0,3.0,6.0,6.0,11135.0,11069.0,-2837.0,-3724.0,-51.0,-1.0,-54.0,1.0
2022-05-08 17:26:47.998631-07:00,867.9,1034.9,1311.5,1009.0,847.0,462.4,1618.1,944.9,3472.2,3479.5,627.0,911.0,405.1,3491.7,872.1,767.8,3472.2,3474.6,419.2,586.7,412.9,522.6,243.9,243.2,3479.5,3478.3,618.9,471.1,971.3,1106.9,1481.9,543.4,8.0,-19.0,8.0,10063.0,10245.0,6683.0,4189.0,-117.0,29.0,-40.0,-8.0,-16.0,12.0,11150.0,11053.0,-2817.0,-3743.0,-50.0,3.0,-25.0,1.0
2022-05-08 17:26:48.028751-07:00,869.6,1034.0,1311.5,1009.0,841.9,462.4,1618.1,944.9,3473.4,3483.2,634.3,911.0,404.3,3491.7,872.1,767.8,3472.2,3474.6,419.2,584.3,412.9,519.5,240.1,241.6,3479.5,3478.3,618.9,472.7,971.3,1107.8,1489.3,543.4,11.0,-21.0,11.0,10085.0,10216.0,6699.0,4181.0,-32.0,16.0,-79.0,5.0,-2.0,13.0,11155.0,11049.0,-2812.0,-3746.0,-3.0,11.0,-1.0,1.0
2022-05-08 17:26:48.088935-07:00,869.6,1034.0,1311.5,1010.8,841.9,462.4,1634.1,928.8,3473.4,3483.2,634.3,917.7,404.3,3507.5,863.7,772.0,3477.1,3469.8,416.8,584.3,411.4,519.5,240.1,241.6,3479.5,3478.3,621.4,472.7,967.1,1107.8,1489.3,543.4,13.0,0.0,11.0,10085.0,10208.0,6708.0,4186.0,-14.0,21.0,12.0,8.0,4.0,15.0,11159.0,11047.0,-2812.0,-3737.0,12.0,29.0,20.0,1.0
2022-05-08 17:26:48.178659-07:00,878.0,1018.5,1302.5,1010.8,841.1,462.4,1634.1,928.8,3475.9,3469.8,623.8,917.7,407.5,3507.5,863.7,772.0,3477.1,3469.8,416.8,582.6,411.4,521.0,243.9,241.6,3479.5,3478.3,621.4,473.5,967.1,1103.4,1480.1,543.4,21.0,8.0,1.0,10075.0,10211.0,6716.0,4190.0,29.0,31.0,-30.0,10.0,7.0,3.0,11156.0,11056.0,-2808.0,-3724.0,23.0,21.0,-2.0,1.0
2022-05-08 17:26:48.181452-07:00,878.0,1018.5,1302.5,1009.9,833.6,465.6,1604.0,929.6,3475.9,3469.8,623.8,912.7,401.2,3500.2,863.7,773.6,3486.8,3478.3,418.4,590.7,409.0,521.0,243.9,241.6,3483.2,3485.6,618.9,467.9,965.4,1103.4,1480.1,543.4,20.0,1.0,-7.0,10071.0,10207.0,6730.0,4187.0,-29.0,11.0,-38.0,12.0,3.0,4.0,11153.0,11058.0,-2806.0,-3725.0,-21.0,0.0,-17.0,1.0
2022-05-08 17:26:48.238963-07:00,872.1,1012.5,1307.0,1009.9,833.6,465.6,1604.0,929.6,3477.1,3469.8,628.6,908.4,401.2,3500.2,863.7,773.6,3486.8,3478.3,418.4,590.7,411.4,522.6,240.1,244.7,3483.2,3485.6,618.9,467.9,965.4,1106.9,1471.8,542.6,6.0,-11.0,0.0,10074.0,10204.0,6736.0,4177.0,15.0,-13.0,-18.0,-4.0,2.0,3.0,11155.0,11056.0,-2805.0,-3730.0,-4.0,-21.0,-3.0,1.0
2022-05-08 17:26:48.388972-07:00,872.1,1012.5,1307.0,1009.9,838.6,467.9,1607.7,926.2,3477.1,3469.8,628.6,908.4,408.2,3500.2,864.6,773.6,3477.1,3480.7,420.0,585.9,411.4,522.6,240.1,244.7,3488.0,3475.9,613.3,470.3,965.4,1106.9,1471.8,542.6,11.0,-16.0,2.0,10084.0,10203.0,6719.0,4184.0,-55.0,-34.0,52.0,2.0,-4.0,10.0,11164.0,11040.0,-2817.0,-3740.0,-58.0,-47.0,31.0,1.0
2022-05-08 17:26:48.390820-07:00,864.6,1017.6,1295.4,1021.1,838.6,467.9,1607.7,926.2,3467.4,3471.0,630.3,902.5,408.2,3500.2,864.6,773.6,3477.1,3480.7,420.0,585.9,410.6,521.0,242.4,241.6,3488.0,3475.9,613.3,470.3,962.0,1092.1,1470.0,541.8,2.0,-10.0,16.0,10103.0,10196.0,6690.0,4202.0,-97.0,-39.0,67.0,1.0,-2.0,21.0,11190.0,11005.0,-2838.0,-3748.0,-83.0,-46.0,58.0,1.0
2022-05-08 17:26:48.391757-07:00,864.6,1017.6,1295.4,1021.1,835.2,464.8,1608.7,924.5,3467.4,3471.0,630.3,902.5,402.0,3500.2,864.6,767.8,3478.3,3474.6,417.6,585.9,410.6,521.0,242.4,241.6,3479.5,3481.9,635.9,465.6,962.0,1092.1,1470.0,541.8,-18.0,-6.0,-33.0,10148.0,10170.0,6628.0,4252.0,-509.0,-77.0,203.0,-13.0,9.0,-5.0,11240.0,10943.0,-2860.0,-3762.0,-258.0,-100.0,67.0,1.0
2022-05-08 17:26:48.448675-07:00,873.0,1040.9,1302.5,1006.5,835.2,464.8,1608.7,924.5,3478.3,3477.1,635.9,916.0,402.0,3500.2,864.6,767.8,3478.3,3474.6,417.6,585.9,412.9,521.0,246.2,250.8,3479.5,3481.9,635.9,465.6,959.4,1103.4,1483.8,542.6,-35.0,-69.0,-59.0,10309.0,10049.0,6457.0,4414.0,-596.0,-120.0,334.0,-50.0,-22.0,-39.0,11359.0,10777.0,-2936.0,-3827.0,-437.0,-341.0,194.0,1.0
2022-05-08 17:26:48.479120-07:00,875.5,1040.9,1302.5,1006.5,831.9,464.8,1647.3,963.7,3472.2,3477.1,635.9,916.0,409.8,3486.8,891.5,774.5,3488.0,3477.1,416.8,589.9,412.9,521.0,246.2,243.2,3480.7,3477.1,612.5,473.5,959.4,1103.4,1483.8,543.4,2.0,39.0,-11.0,10446.0,9967.0,6267.0,4550.0,-718.0,-147.0,199.0,-21.0,17.0,-14.0,11497.0,10547.0,-3065.0,-3955.0,-687.0,-511.0,135.0,1.0
2022-05-08 17:26:48.538443-07:00,875.5,991.0,1308.8,1011.6,831.9,464.8,1647.3,937.3,3472.2,3479.5,631.9,920.3,409.8,3486.8,891.5,773.6,3479.5,3477.1,416.8,589.9,412.1,521.0,244.7,243.2,3478.3,3477.1,612.5,473.5,954.3,1111.2,1557.1,543.4,-42.0,-26.0,10.0,10677.0,9789.0,6074.0,4660.0,-666.0,-404.0,54.0,-29.0,-17.0,37.0,11666.0,10288.0,-3140.0,-4082.0,-549.0,-313.0,110.0,1.0
2022-05-08 17:26:48.598664-07:00,875.5,991.0,1308.8,1011.6,827.7,467.1,1722.4,937.3,3474.6,3479.5,631.9,920.3,411.4,3497.8,931.3,773.6,3479.5,3483.2,417.6,586.7,412.1,521.0,244.7,245.4,3478.3,3477.1,614.1,470.3,954.3,1111.2,1557.1,546.6,-17.0,9.0,-8.0,10833.0,9739.0,5906.0,4620.0,-231.0,-406.0,21.0,-1.0,32.0,21.0,11727.0,10163.0,-3204.0,-4166.0,-376.0,-397.0,9.0,1.0
2022-05-08 17:26:48.628715-07:00,875.5,973.9,1307.0,1009.9,827.7,467.1,1722.4,921.1,3474.6,3474.6,633.5,917.7,411.4,3497.8,931.3,774.5,3475.9,3483.2,417.6,586.7,412.1,521.8,243.2,245.4,3483.2,3477.1,614.1,470.3,953.4,1120.9,1636.9,546.6,14.0,5.0,40.0,10997.0,9655.0,5743.0,4614.0,-697.0,-197.0,-31.0,-1.0,-13.0,30.0,11821.0,9963.0,-3281.0,-4319.0,-571.0,-326.0,-3.0,1.0
2022-05-08 17:26:48.688966-07:00,868.8,973.9,1307.0,1009.9,827.7,463.2,1691.9,921.1,3478.3,3474.6,633.5,917.7,404.3,3497.8,982.5,774.5,3475.9,3478.3,417.6,582.6,412.1,521.8,243.2,241.6,3483.2,3474.6,612.5,467.1,953.4,1120.9,1636.9,541.0,127.0,64.0,70.0,11146.0,9518.0,5677.0,4624.0,-189.0,178.0,-221.0,23.0,34.0,-52.0,11897.0,9811.0,-3324.0,-4427.0,-155.0,-324.0,-66.0,1.0
2022-05-08 17:26:48.749292-07:00,868.8,968.8,1314.2,1003.0,827.7,463.2,1691.9,912.7,3478.3,3473.4,637.6,911.8,404.3,3497.8,982.5,779.4,3485.6,3478.3,417.6,582.6,414.5,527.4,244.7,241.6,3478.3,3474.6,612.5,467.1,951.7,1144.5,1765.6,541.0,46.0,0.0,47.0,11229.0,9311.0,5786.0,4708.0,-520.0,239.0,-139.0,62.0,-2.0,60.0,11926.0,9702.0,-3369.0,-4552.0,-424.0,-317.0,-70.0,1.0
2022-05-08 17:26:48.778880-07:00,872.1,967.9,1314.2,1003.0,827.7,462.4,1649.2,912.7,3469.8,3473.4,637.6,911.8,404.3,3494.1,1034.9,779.4,3485.6,3467.4,420.0,585.9,414.5,527.4,243.2,240.9,3478.3,3479.5,607.6,468.7,951.7,1144.5,1938.0,547.4,73.0,18.0,16.0,11337.0,9105.0,5841.0,4784.0,-303.0,166.0,-222.0,83.0,8.0,17.0,11983.0,9562.0,-3416.0,-4663.0,-107.0,-169.0,-134.0,1.0
2022-05-08 17:26:48.838989-07:00,872.1,967.9,1313.3,1012.5,827.7,462.4,1594.6,903.4,3469.8,3473.4,647.3,912.7,404.3,3494.1,1076.4,795.2,3472.2,3479.5,420.0,585.9,413.7,529.8,243.2,240.9,3474.6,3488.0,607.6,468.7,953.4,1163.0,1938.0,547.4,81.0,-54.0,-12.0,11375.0,8994.0,5927.0,4798.0,-228.0,202.0,-180.0,2.0,61.0,-86.0,11982.0,9515.0,-3435.0,-4747.0,-95.0,-248.0,-185.0,1.0
2022-05-08 17:26:48.899299-07:00,870.5,965.4,1313.3,1012.5,834.4,460.0,1594.6,903.4,3472.2,3477.1,647.3,912.7,408.2,3497.8,1076.4,795.2,3472.2,3479.5,419.2,588.3,413.7,529.8,241.6,247.0,3474.6,3488.0,610.8,470.3,953.4,1163.0,1922.3,556.2,0.0,-17.0,-60.0,11416.0,8864.0,6004.0,4848.0,-212.0,165.0,-146.0,0.0,-37.0,17.0,11980.0,9459.0,-3452.0,-4852.0,-77.0,-184.0,-101.0,1.0
2022-05-08 17:26:48.928792-07:00,870.5,965.4,1309.7,1019.4,834.4,460.0,1570.2,908.4,3472.2,3477.1,647.3,919.4,408.2,3497.8,1075.6,791.0,3473.4,3479.5,419.2,588.3,409.8,529.0,241.6,247.0,3474.6,3479.5,610.8,470.3,1002.2,1151.5,1922.3,556.2,20.0,-15.0,28.0,11436.0,8787.0,6068.0,4858.0,-67.0,218.0,-144.0,-6.0,12.0,-17.0,11954.0,9427.0,-3495.0,-4943.0,-55.0,-238.0,-99.0,1.0
2022-05-08 17:26:49.018720-07:00,873.0,961.1,1309.7,1019.4,862.1,459.3,1570.2,908.4,3478.3,3471.0,647.3,919.4,406.7,3503.9,1075.6,791.0,3473.4,3479.5,417.6,585.9,409.8,529.0,240.9,234.8,3474.6,3479.5,604.4,467.9,1002.2,1151.5,1922.3,543.4,-10.0,-13.0,4.0,11413.0,8678.0,6189.0,4958.0,-199.0,413.0,-35.0,18.0,-15.0,69.0,11925.0,9399.0,-3548.0,-5030.0,-82.0,-171.0,-34.0,1.0
2022-05-08 17:26:49.078665-07:00,873.0,961.1,1317.8,1015.1,862.1,459.3,1549.7,899.1,3478.3,3471.0,645.7,908.4,406.7,3503.9,1061.7,797.7,3464.9,3480.7,417.6,585.9,409.0,525.0,240.9,234.8,3477.1,3475.9,604.4,467.9,1072.9,1147.1,1922.3,543.4,32.0,31.0,0.0,11405.0,8632.0,6242.0,4988.0,-5.0,132.0,-78.0,12.0,28.0,-12.0,11890.0,9398.0,-3584.0,-5088.0,78.0,-179.0,-105.0,1.0
2022-05-08 17:26:49.079983-07:00,868.8,957.7,1310.6,1015.1,884.8,455.3,1549.7,899.1,3472.2,3471.0,645.7,908.4,403.5,3491.7,1061.7,797.7,3464.9,3480.7,419.2,584.3,409.0,525.8,237.8,244.7,3477.1,3475.9,610.0,467.9,1072.9,1139.2,1877.2,553.8,-15.0,-48.0,44.0,11392.0,8562.0,6322.0,5039.0,-164.0,332.0,-28.0,-1.0,-21.0,45.0,11842.0,9395.0,-3625.0,-5177.0,38.0,-221.0,-117.0,1.0
2022-05-08 17:26:49.139561-07:00,868.8,957.7,1310.6,1021.9,884.8,455.3,1531.0,890.7,3472.2,3471.0,645.7,910.1,403.5,3501.4,1075.6,787.7,3478.3,3467.4,420.0,584.3,412.9,525.8,237.8,244.7,3477.1,3475.9,607.6,467.9,1072.9,1139.2,1877.2,553.8,-1.0,-4.0,61.0,11324.0,8533.0,6429.0,5104.0,90.0,306.0,8.0,7.0,7.0,39.0,11754.0,9473.0,-3669.0,-5204.0,232.0,-31.0,-67.0,1.0
2022-05-08 17:26:49.199054-07:00,867.9,944.1,1310.6,1021.9,917.7,455.3,1531.0,890.7,3468.6,3466.1,642.4,910.1,402.8,3501.4,1075.6,787.7,3478.3,3467.4,420.0,580.2,412.9,523.4,239.3,242.4,3477.1,3475.9,607.6,466.4,1072.9,1139.2,1859.6,563.4,21.0,47.0,49.0,11244.0,8523.0,6545.0,5151.0,151.0,358.0,-6.0,16.0,23.0,29.0,11681.0,9564.0,-3658.0,-5210.0,325.0,45.0,-182.0,1.0
2022-05-08 17:26:49.228828-07:00,867.9,944.1,1310.6,1026.3,917.7,448.2,1516.2,884.8,3468.6,3466.1,642.4,912.7,402.8,3500.2,1084.2,792.7,3477.1,3478.3,418.4,580.2,409.8,523.4,239.3,242.4,3488.0,3483.2,603.6,466.4,1081.6,1139.2,1859.6,563.4,23.0,56.0,37.0,11169.0,8503.0,6682.0,5172.0,35.0,295.0,-186.0,21.0,69.0,25.0,11618.0,9647.0,-3585.0,-5247.0,56.0,104.0,-327.0,1.0
2022-05-08 17:26:49.288826-07:00,870.5,939.0,1315.1,1026.3,922.0,448.2,1516.2,884.8,3481.9,3478.3,635.1,912.7,398.1,3500.2,1084.2,792.7,3477.1,3478.3,418.4,585.1,409.8,517.9,241.6,240.1,3488.0,3483.2,603.6,465.6,1081.6,1139.2,1824.6,557.0,3.0,-5.0,3.0,11121.0,8452.0,6837.0,5156.0,198.0,340.0,-209.0,9.0,16.0,-7.0,11542.0,9755.0,-3448.0,-5307.0,241.0,233.0,-421.0,1.0
2022-05-08 17:26:49.348623-07:00,870.5,939.0,1315.1,1027.1,922.0,453.7,1499.5,883.9,3481.9,3478.3,635.1,919.4,398.1,3494.1,1083.4,786.9,3480.7,3475.9,420.8,585.1,416.1,517.9,241.6,240.1,3475.9,3477.1,606.8,465.6,1106.0,1139.2,1824.6,557.0,1.0,159.0,-36.0,11029.0,8477.0,7010.0,5080.0,315.0,135.0,-322.0,-1.0,106.0,16.0,11423.0,9922.0,-3293.0,-5355.0,169.0,208.0,-508.0,1.0
2022-05-08 17:26:49.378790-07:00,868.8,935.6,1312.4,1024.5,908.4,453.7,1499.5,883.9,3473.4,3474.6,633.5,911.0,401.2,3494.1,1083.4,786.9,3480.7,3475.9,420.8,587.5,412.1,525.8,240.9,237.1,3475.9,3477.1,606.8,465.6,1084.2,1133.1,1828.4,555.4,4.0,-5.0,8.0,11082.0,8386.0,7125.0,4953.0,-72.0,35.0,-533.0,5.0,28.0,10.0,11367.0,9962.0,-3093.0,-5516.0,-118.0,73.0,-657.0,1.0
2022-05-08 17:26:49.438851-07:00,868.8,935.6,1312.4,1024.5,905.9,449.0,1499.5,876.4,3473.4,3474.6,633.5,911.0,404.3,3497.8,1076.4,786.1,3478.3,3474.6,420.0,591.5,412.1,525.8,240.9,237.1,3474.6,3479.5,607.6,469.5,1084.2,1133.1,1828.4,555.4,17.0,-11.0,6.0,11129.0,8294.0,7231.0,4849.0,-26.0,96.0,-332.0,-3.0,-16.0,2.0,11287.0,10003.0,-2899.0,-5707.0,-43.0,22.0,-636.0,1.0
2022-05-08 17:26:49.498736-07:00,868.8,932.2,1313.3,1022.8,905.9,449.0,1499.5,876.4,3474.6,3480.7,634.3,908.4,404.3,3497.8,1076.4,786.1,3478.3,3474.6,420.0,591.5,414.5,521.8,240.9,242.4,3474.6,3479.5,607.6,469.5,1056.5,1140.1,1787.8,550.6,15.0,-103.0,5.0,11175.0,8179.0,7331.0,4786.0,-147.0,108.0,-368.0,4.0,-61.0,6.0,11228.0,10025.0,-2720.0,-5871.0,-124.0,73.0,-504.0,1.0
2022-05-08 17:26:49.528764-07:00,868.8,932.2,1313.3,1022.8,894.9,449.8,1500.4,875.5,3474.6,3480.7,634.3,908.4,402.0,3496.6,1075.6,790.2,3478.3,3483.2,419.2,585.1,414.5,521.8,240.9,242.4,3472.2,3474.6,605.2,467.1,1056.5,1140.1,1787.8,550.6,17.0,-86.0,-18.0,11174.0,8132.0,7424.0,4726.0,155.0,117.0,-152.0,9.0,-49.0,-17.0,11156.0,10077.0,-2584.0,-5979.0,130.0,62.0,-403.0,1.0
2022-05-08 17:26:49.588848-07:00,867.1,930.5,1317.8,1021.1,894.9,449.8,1500.4,875.5,3467.4,3483.2,630.3,914.4,402.0,3496.6,1075.6,790.2,3478.3,3483.2,419.2,585.1,415.3,523.4,246.2,237.8,3472.2,3474.6,605.2,467.1,1049.6,1140.1,1777.2,553.0,30.0,-39.0,7.0,11148.0,8121.0,7506.0,4675.0,47.0,98.0,-211.0,14.0,-30.0,2.0,11073.0,10143.0,-2497.0,-6059.0,48.0,62.0,-294.0,1.0
2022-05-08 17:26:49.648789-07:00,867.1,930.5,1317.8,1021.1,884.8,448.2,1490.3,873.8,3467.4,3483.2,630.3,914.4,406.7,3486.8,1068.6,781.1,3474.6,3472.2,421.5,589.9,415.3,523.4,246.2,237.8,3479.5,3477.1,604.4,463.2,1049.6,1140.1,1777.2,553.0,26.0,-62.0,8.0,11126.0,8089.0,7585.0,4658.0,115.0,177.0,-86.0,17.0,-27.0,7.0,11026.0,10175.0,-2435.0,-6116.0,102.0,12.0,-203.0,1.0
2022-05-08 17:26:49.678614-07:00,867.1,924.5,1315.1,1026.3,884.8,448.2,1490.3,870.5,3480.7,3473.4,634.3,911.0,406.7,3486.8,1068.6,783.6,3483.2,3472.2,421.5,589.9,412.1,526.6,231.7,241.6,3481.9,3477.1,604.4,463.2,1053.9,1134.0,1774.3,545.0,19.0,9.0,14.0,11095.0,8119.0,7613.0,4631.0,44.0,-76.0,-12.0,37.0,-7.0,36.0,10978.0,10217.0,-2427.0,-6134.0,60.0,-47.0,-34.0,1.0
2022-05-08 17:26:49.738898-07:00,867.1,924.5,1315.1,1026.3,878.0,449.0,1480.1,870.5,3474.6,3473.4,634.3,911.0,405.9,3510.0,1068.6,783.6,3483.2,3480.7,421.5,589.1,412.1,526.6,231.7,242.4,3481.9,3478.3,604.4,460.0,1053.9,1134.0,1774.3,545.8,66.0,-65.0,38.0,11108.0,8122.0,7600.0,4618.0,42.0,4.0,17.0,41.0,-47.0,-13.0,10978.0,10213.0,-2436.0,-6138.0,21.0,-8.0,31.0,1.0
2022-05-08 17:26:49.798722-07:00,867.1,925.4,1334.1,1017.6,878.0,449.0,1480.1,867.9,3474.6,3478.3,637.6,914.4,405.9,3510.0,1068.6,782.7,3478.3,3480.7,421.5,589.1,409.8,519.5,246.2,242.4,3472.2,3478.3,604.4,460.0,1044.4,1127.0,1759.8,545.8,18.0,-8.0,0.0,11065.0,8158.0,7610.0,4640.0,73.0,54.0,99.0,12.0,-5.0,13.0,10965.0,10240.0,-2466.0,-6105.0,104.0,32.0,91.0,1.0
2022-05-08 17:26:49.828788-07:00,870.5,925.4,1334.1,1017.6,874.7,448.2,1481.0,867.9,3472.2,3478.3,637.6,914.4,406.7,3500.2,1063.4,782.7,3478.3,3481.9,417.6,583.5,409.8,519.5,246.2,244.7,3472.2,3477.1,604.4,469.5,1044.4,1127.0,1759.8,544.2,5.0,37.0,5.0,11061.0,8163.0,7599.0,4660.0,-53.0,-16.0,32.0,1.0,30.0,8.0,10968.0,10244.0,-2487.0,-6084.0,-28.0,-2.0,69.0,1.0
2022-05-08 17:26:49.888782-07:00,870.5,929.6,1325.0,1021.9,874.7,448.2,1481.0,859.5,3472.2,3469.8,637.6,911.8,406.7,3500.2,1063.4,790.2,3477.1,3481.9,417.6,583.5,406.7,525.0,246.2,244.7,3490.5,3477.1,604.4,469.5,1047.8,1131.4,1756.0,544.2,0.0,33.0,7.0,11066.0,8158.0,7594.0,4665.0,5.0,-1.0,-16.0,0.0,24.0,10.0,10981.0,10236.0,-2498.0,-6070.0,13.0,6.0,10.0,1.0
2022-05-08 17:26:49.948652-07:00,868.8,929.6,1325.0,1021.9,870.5,445.9,1481.0,859.5,3481.9,3469.8,637.6,911.8,405.1,3500.2,1065.1,790.2,3477.1,3485.6,420.8,585.1,406.7,525.0,246.2,243.2,3490.5,3479.5,600.4,467.9,1047.8,1131.4,1756.0,541.0,0.0,-4.0,0.0,11064.0,8163.0,7597.0,4655.0,18.0,-25.0,-9.0,0.0,-4.0,7.0,10974.0,10242.0,-2500.0,-6070.0,14.0,-4.0,-14.0,1.0
2022-05-08 17:26:49.978595-07:00,868.8,916.9,1308.8,1014.2,870.5,445.9,1482.9,866.3,3481.9,3472.2,632.7,915.2,405.1,3500.2,1059.9,777.8,3473.4,3478.3,420.8,585.1,412.1,522.6,237.8,243.2,3471.0,3473.4,600.4,467.9,1056.5,1128.7,1744.5,541.0,23.0,2.0,18.0,11076.0,8157.0,7590.0,4650.0,-41.0,-10.0,-37.0,13.0,0.0,11.0,10976.0,10238.0,-2501.0,-6074.0,-41.0,-13.0,2.0,1.0
2022-05-08 17:26:50.068734-07:00,868.8,915.2,1308.8,1014.2,867.9,445.1,1482.9,866.3,3474.6,3468.6,632.7,915.2,408.2,3502.7,1059.9,777.8,3473.4,3478.3,422.3,586.7,412.1,522.6,237.8,242.4,3471.0,3473.4,603.6,464.8,1056.5,1128.7,1742.6,541.0,10.0,-8.0,16.0,11077.0,8152.0,7594.0,4650.0,34.0,15.0,1.0,8.0,3.0,18.0,10984.0,10229.0,-2504.0,-6075.0,15.0,7.0,15.0,1.0
2022-05-08 17:26:50.098702-07:00,868.8,915.2,1313.3,1028.0,867.9,445.1,1470.0,861.2,3474.6,3468.6,631.9,915.2,408.2,3502.7,1057.3,783.6,3477.1,3479.5,422.3,586.7,411.4,521.0,237.8,242.4,3475.9,3483.2,603.6,464.8,1042.6,1126.1,1742.6,541.0,17.0,5.0,15.0,11081.0,8153.0,7586.0,4652.0,-42.0,-13.0,-4.0,8.0,-2.0,6.0,10989.0,10226.0,-2508.0,-6067.0,-37.0,12.0,28.0,1.0
2022-05-08 17:26:50.128801-07:00,862.9,910.1,1313.3,1028.0,864.6,445.1,1470.0,861.2,3480.7,3480.7,631.9,915.2,405.9,3495.3,1057.3,783.6,3477.1,3479.5,421.5,585.9,411.4,521.0,237.8,243.2,3475.9,3483.2,602.0,467.1,1042.6,1126.1,1745.4,536.2,14.0,0.0,14.0,11093.0,8140.0,7577.0,4661.0,-35.0,-2.0,-10.0,6.0,2.0,9.0,11008.0,10212.0,-2505.0,-6058.0,-38.0,19.0,25.0,1.0
2022-05-08 17:26:50.188848-07:00,862.9,910.1,1316.0,1016.8,864.6,445.1,1468.1,865.4,3480.7,3480.7,627.0,912.7,405.9,3495.3,1055.6,791.9,3477.1,3467.4,421.5,585.9,410.6,523.4,237.8,243.2,3481.9,3477.1,602.0,467.1,1034.0,1133.1,1745.4,536.2,12.0,16.0,11.0,11097.0,8133.0,7572.0,4669.0,-8.0,9.0,-16.0,10.0,15.0,9.0,11021.0,10205.0,-2504.0,-6047.0,-8.0,24.0,12.0,1.0
2022-05-08 17:26:50.248703-07:00,867.1,917.7,1316.0,1016.8,861.2,446.7,1468.1,865.4,3473.4,3474.6,627.0,912.7,404.3,3494.1,1055.6,791.9,3477.1,3467.4,416.1,587.5,410.6,523.4,240.9,243.9,3481.9,3477.1,601.2,464.8,1034.0,1133.1,1746.4,538.6,17.0,9.0,8.0,11098.0,8134.0,7569.0,4670.0,-6.0,-15.0,-12.0,15.0,3.0,9.0,11026.0,10206.0,-2500.0,-6038.0,-19.0,29.0,1.0,1.0
2022-05-08 17:26:50.278380-07:00,867.1,917.7,1320.5,1013.3,861.2,441.9,1467.2,857.9,3473.4,3474.6,627.0,908.4,404.3,3502.7,1053.0,777.8,3485.6,3479.5,416.1,587.5,412.1,523.4,240.9,243.9,3488.0,3473.4,599.6,464.8,1029.7,1130.5,1746.4,538.6,11.0,-8.0,13.0,11106.0,8127.0,7567.0,4666.0,40.0,-8.0,-48.0,12.0,3.0,22.0,11034.0,10203.0,-2493.0,-6031.0,-3.0,26.0,-3.0,1.0
2022-05-08 17:26:50.338997-07:00,869.6,916.0,1312.4,1013.3,853.7,441.9,1467.2,857.9,3472.2,3468.6,625.4,908.4,404.3,3502.7,1053.0,777.8,3485.6,3479.5,416.1,589.1,412.1,523.4,241.6,240.9,3488.0,3473.4,599.6,462.4,1029.7,1116.5,1738.7,537.0,18.0,0.0,9.0,11105.0,8131.0,7571.0,4655.0,-17.0,14.0,2.0,6.0,-5.0,2.0,11037.0,10206.0,-2485.0,-6023.0,-3.0,15.0,5.0,1.0
2022-05-08 17:26:50.398654-07:00,869.6,916.0,1312.4,1020.2,853.7,448.2,1465.4,862.9,3472.2,3468.6,625.4,909.3,404.3,3501.4,1049.6,784.4,3475.9,3481.9,416.8,589.1,409.8,523.4,241.6,240.9,3481.9,3488.0,602.0,462.4,1021.9,1116.5,1738.7,537.0,10.0,-7.0,6.0,11107.0,8127.0,7569.0,4660.0,-9.0,-12.0,-6.0,7.0,-8.0,10.0,11042.0,10205.0,-2481.0,-6017.0,-21.0,17.0,17.0,1.0
2022-05-08 17:26:50.428787-07:00,867.9,911.0,1310.6,1020.2,864.6,448.2,1465.4,862.9,3478.3,3478.3,629.5,909.3,406.7,3501.4,1049.6,784.4,3475.9,3481.9,416.8,588.3,409.8,521.8,240.9,243.2,3481.9,3488.0,602.0,466.4,1021.9,1127.0,1727.2,536.2,15.0,9.0,9.0,11112.0,8126.0,7563.0,4661.0,-6.0,-6.0,-13.0,10.0,-3.0,8.0,11052.0,10200.0,-2478.0,-6009.0,-12.0,7.0,19.0,1.0
2022-05-08 17:26:50.488904-07:00,867.9,911.0,1310.6,1012.5,864.6,445.9,1464.4,860.4,3478.3,3478.3,629.5,915.2,406.7,3494.1,1049.6,786.9,3480.7,3488.0,416.8,588.3,414.5,521.8,240.9,243.2,3474.6,3480.7,599.6,466.4,1021.9,1127.0,1727.2,536.2,7.0,-8.0,11.0,11119.0,8120.0,7562.0,4657.0,-18.0,-20.0,-12.0,10.0,-4.0,17.0,11062.0,10194.0,-2473.0,-6002.0,-35.0,21.0,19.0,1.0
2022-05-08 17:26:50.548554-07:00,872.1,912.7,1309.7,1012.5,856.2,445.9,1464.4,860.4,3471.0,3468.6,632.7,915.2,404.3,3494.1,1049.6,786.9,3480.7,3488.0,416.8,585.1,414.5,524.2,240.9,238.6,3474.6,3480.7,599.6,462.4,1021.9,1126.1,1736.8,537.0,11.0,-32.0,10.0,11131.0,8115.0,7554.0,4649.0,14.0,-32.0,-2.0,9.0,-15.0,16.0,11079.0,10185.0,-2467.0,-5989.0,-32.0,34.0,39.0,1.0
