Time,P0,P1,P2,P3,P4,P5,P6,P7,P8,P9,P10,P11,P12,P13,P14,P15,P16,P17,P18,P19,P20,P21,P22,P23,P24,P25,P26,P27,P28,P29,P30,P31,ECG,AX0,AY0,AZ0,QW0,QX0,QY0,QZ0,GX0,GY0,GZ0,AX1,AY1,AZ1,QW1,QX1,QY1,QZ1,GX1,GY1,GZ1
2022-05-08 17:15:18.676217-07:00,731.5,739.7,787.7,1079.0,399.6,332.9,828.5,730.7,3468.6,3479.5,1266.7,786.1,615.7,3478.3,1231.0,895.7,3439.5,3444.3,398.1,322.8,342.9,353.7,289.0,267.6,3466.1,3456.4,494.8,436.4,483.7,889.0,660.3,479.8,9.0,-1.0,3.0,12161.0,-10920.0,1075.0,-398.0,8.0,-10.0,-2.0,11.0,-5.0,-4.0,8821.0,-12504.0,-2529.0,5280.0,9.0,-15.0,0.0,1.0
2022-05-08 17:15:18.707178-07:00,731.5,739.7,792.7,1068.6,399.6,332.9,826.9,745.5,3468.6,3479.5,1274.7,778.6,615.7,3478.3,1216.8,884.8,3434.6,3444.3,398.1,322.8,342.1,356.8,289.0,267.6,3445.5,3456.4,494.8,436.4,486.9,891.5,660.3,479.8,5.0,-4.0,3.0,12162.0,-10918.0,1074.0,-397.0,-2.0,-5.0,-4.0,10.0,-7.0,-1.0,8824.0,-12500.0,-2529.0,5283.0,9.0,-6.0,-4.0,1.0
2022-05-08 17:15:18.766762-07:00,735.6,733.2,792.7,1068.6,395.7,329.8,826.9,745.5,3468.6,3464.9,1274.7,778.6,623.0,3478.3,1216.8,884.8,3434.6,3444.3,402.0,320.5,342.1,356.8,286.7,266.8,3445.5,3456.4,493.2,437.2,486.9,891.5,668.4,501.2,5.0,-8.0,0.0,12162.0,-10918.0,1075.0,-397.0,5.0,-2.0,13.0,11.0,-11.0,2.0,8825.0,-12500.0,-2529.0,5284.0,4.0,2.0,11.0,1.0
2022-05-08 17:15:18.826352-07:00,735.6,733.2,789.4,1084.2,395.7,329.8,824.4,738.1,3468.6,3464.9,1273.9,774.5,623.0,3478.3,1216.8,896.6,3446.7,3450.4,402.0,320.5,344.5,351.4,286.7,266.8,3455.2,3461.3,493.2,437.2,479.0,885.6,668.4,501.2,4.0,-3.0,-1.0,12162.0,-10918.0,1076.0,-396.0,15.0,-12.0,4.0,10.0,-7.0,0.0,8824.0,-12500.0,-2527.0,5285.0,6.0,-1.0,8.0,1.0
2022-05-08 17:15:18.856961-07:00,736.5,737.3,789.4,1084.2,396.5,332.1,824.4,738.1,3461.3,3464.9,1273.9,774.5,623.0,3478.3,1216.8,896.6,3446.7,3450.4,398.9,326.7,344.5,351.4,280.6,269.1,3455.2,3461.3,494.8,439.6,479.0,885.6,662.7,474.3,13.0,-3.0,0.0,12168.0,-10912.0,1072.0,-392.0,7.0,-13.0,-2.0,5.0,-3.0,5.0,8830.0,-12494.0,-2531.0,5288.0,12.0,-23.0,-8.0,1.0
2022-05-08 17:15:18.918219-07:00,736.5,737.3,786.9,1069.5,396.5,332.1,824.4,739.7,3461.3,3464.9,1273.0,778.6,623.0,3478.3,1216.0,891.5,3439.5,3449.1,398.9,326.7,342.1,356.8,280.6,269.1,3456.4,3458.9,494.8,439.6,484.5,884.8,662.7,474.3,1.0,-4.0,0.0,12170.0,-10910.0,1068.0,-389.0,15.0,-7.0,-2.0,8.0,-4.0,2.0,8836.0,-12486.0,-2535.0,5294.0,19.0,-20.0,-3.0,1.0
2022-05-08 17:15:19.036352-07:00,730.7,735.6,794.4,1069.5,397.3,337.5,824.4,739.7,3467.4,3463.7,1272.1,778.6,624.6,3463.7,1216.0,891.5,3439.5,3449.1,400.4,322.8,342.1,355.3,285.9,268.3,3456.4,3458.9,499.6,437.2,484.5,889.0,663.6,483.7,4.0,-8.0,1.0,12176.0,-10904.0,1064.0,-387.0,26.0,-11.0,-6.0,12.0,-5.0,4.0,8842.0,-12481.0,-2536.0,5295.0,11.0,-7.0,2.0,1.0
2022-05-08 17:15:19.037314-07:00,730.7,735.6,794.4,1072.1,397.3,336.7,824.4,738.9,3467.4,3463.7,1272.1,776.9,624.6,3467.4,1220.4,899.1,3441.9,3449.1,400.4,322.8,344.5,355.3,285.9,268.3,3458.9,3468.6,499.6,437.2,483.7,889.0,663.6,483.7,19.0,-12.0,1.0,12187.0,-10893.0,1059.0,-383.0,32.0,-26.0,0.0,23.0,-14.0,0.0,8849.0,-12477.0,-2538.0,5293.0,18.0,-5.0,9.0,1.0
2022-05-08 17:15:19.067582-07:00,734.8,735.6,791.9,1072.1,398.9,336.7,824.4,738.9,3471.0,3460.1,1274.7,776.9,626.2,3467.4,1220.4,899.1,3441.9,3449.1,400.4,322.1,344.5,352.2,289.8,269.1,3458.9,3468.6,499.6,439.6,483.7,888.2,662.7,483.7,12.0,-3.0,0.0,12196.0,-10883.0,1050.0,-380.0,35.0,-21.0,16.0,24.0,-11.0,1.0,8858.0,-12470.0,-2538.0,5295.0,36.0,-22.0,19.0,1.0
2022-05-08 17:15:19.156147-07:00,734.8,735.6,791.9,1062.5,398.9,331.3,829.4,731.5,3471.0,3460.1,1274.7,769.5,626.2,3464.9,1217.7,892.4,3444.3,3432.2,398.1,322.1,345.2,352.2,289.8,269.1,3458.9,3451.6,490.1,439.6,488.5,888.2,662.7,483.7,1.0,1.0,-3.0,12219.0,-10859.0,1039.0,-374.0,97.0,-31.0,-7.0,7.0,-3.0,0.0,8877.0,-12450.0,-2532.0,5312.0,97.0,-50.0,12.0,1.0
2022-05-08 17:15:19.157341-07:00,732.3,727.4,799.4,1062.5,397.3,331.3,829.4,731.5,3466.1,3462.5,1266.7,769.5,623.0,3464.9,1217.7,892.4,3444.3,3432.2,398.1,323.6,345.2,354.5,285.9,265.3,3458.9,3451.6,490.1,437.2,488.5,889.0,664.4,481.4,-6.0,-1.0,1.0,12259.0,-10817.0,999.0,-366.0,198.0,-97.0,-48.0,-12.0,-2.0,-4.0,8908.0,-12422.0,-2520.0,5333.0,130.0,-27.0,13.0,1.0
2022-05-08 17:15:19.336484-07:00,732.3,727.4,799.4,1067.7,397.3,333.6,826.0,738.9,3466.1,3462.5,1266.7,772.8,623.0,3477.1,1214.2,889.0,3451.6,3437.0,401.2,323.6,342.9,354.5,285.9,265.3,3464.9,3458.9,489.3,437.2,485.3,889.0,664.4,481.4,-11.0,-21.0,-3.0,12311.0,-10762.0,961.0,-352.0,121.0,-87.0,-9.0,-1.0,-10.0,-2.0,8948.0,-12387.0,-2502.0,5354.0,77.0,-32.0,-6.0,1.0
2022-05-08 17:15:19.337461-07:00,734.8,728.2,789.4,1067.7,402.0,333.6,826.0,738.9,3464.9,3467.4,1278.3,772.8,618.9,3477.1,1214.2,889.0,3451.6,3437.0,401.2,323.6,342.9,352.2,280.6,265.3,3464.9,3458.9,489.3,435.7,485.3,887.3,665.2,479.8,10.0,1.0,15.0,12322.0,-10751.0,954.0,-336.0,-6.0,0.0,31.0,13.0,-7.0,11.0,8971.0,-12362.0,-2510.0,5370.0,47.0,-49.0,-15.0,1.0
2022-05-08 17:15:19.338278-07:00,734.8,728.2,789.4,1077.3,398.9,335.2,828.5,730.7,3464.9,3467.4,1278.3,769.5,620.5,3463.7,1212.4,891.5,3449.1,3438.2,398.9,327.5,342.1,352.2,280.6,265.3,3462.5,3457.6,492.5,433.3,478.2,887.3,665.2,479.8,1.0,-2.0,14.0,12321.0,-10751.0,964.0,-336.0,-25.0,34.0,12.0,11.0,-6.0,10.0,8978.0,-12354.0,-2517.0,5373.0,-43.0,32.0,-9.0,1.0
2022-05-08 17:15:19.396229-07:00,733.2,735.6,791.0,1075.6,398.9,335.2,828.5,730.7,3474.6,3466.1,1272.1,776.9,620.5,3463.7,1212.4,891.5,3449.1,3438.2,398.9,327.5,342.1,359.2,286.7,269.1,3462.5,3457.6,492.5,433.3,483.7,892.4,667.6,484.5,7.0,-7.0,-1.0,12308.0,-10764.0,985.0,-344.0,-44.0,66.0,18.0,10.0,-2.0,0.0,8963.0,-12375.0,-2515.0,5351.0,-59.0,56.0,1.0,1.0
2022-05-08 17:15:19.456058-07:00,733.2,735.6,791.0,1075.6,402.0,333.6,823.5,733.2,3474.6,3466.1,1272.1,776.9,620.5,3462.5,1216.0,899.1,3444.3,3438.2,400.4,320.5,342.1,359.2,286.7,269.1,3461.3,3462.5,494.0,441.9,483.7,892.4,667.6,484.5,5.0,-4.0,-6.0,12295.0,-10776.0,1015.0,-355.0,-45.0,60.0,23.0,10.0,-4.0,-3.0,8950.0,-12394.0,-2512.0,5330.0,-43.0,46.0,-2.0,1.0
2022-05-08 17:15:19.457255-07:00,731.5,728.2,792.7,1066.9,402.0,333.6,823.5,733.2,3467.4,3466.1,1268.5,772.8,620.5,3462.5,1216.0,899.1,3444.3,3438.2,400.4,320.5,350.6,358.4,287.5,262.2,3461.3,3462.5,494.0,441.9,481.4,895.7,665.2,479.8,3.0,-7.0,-13.0,12285.0,-10785.0,1035.0,-367.0,-14.0,42.0,2.0,10.0,-4.0,1.0,8943.0,-12406.0,-2509.0,5315.0,-20.0,28.0,-1.0,1.0
2022-05-08 17:15:19.575917-07:00,731.5,728.2,792.7,1066.9,399.6,331.3,825.2,733.2,3467.4,3466.1,1268.5,772.8,625.4,3471.0,1217.7,895.7,3440.7,3441.9,397.3,327.5,350.6,358.4,287.5,262.2,3461.3,3468.6,497.2,438.0,481.4,895.7,665.2,479.8,3.0,-6.0,-6.0,12279.0,-10791.0,1043.0,-372.0,-11.0,11.0,15.0,7.0,-3.0,-3.0,8943.0,-12408.0,-2509.0,5312.0,-4.0,7.0,-6.0,1.0
2022-05-08 17:15:19.577381-07:00,735.6,734.0,803.5,1073.8,399.6,331.3,825.2,733.2,3469.8,3469.8,1272.1,778.6,625.4,3471.0,1217.7,895.7,3440.7,3441.9,397.3,327.5,343.7,354.5,287.5,271.4,3461.3,3468.6,497.2,438.0,488.5,886.5,666.8,488.5,7.0,-3.0,-1.0,12278.0,-10792.0,1046.0,-368.0,2.0,-4.0,9.0,12.0,-7.0,1.0,8946.0,-12402.0,-2514.0,5317.0,20.0,-22.0,-3.0,1.0
2022-05-08 17:15:19.606724-07:00,731.5,734.0,803.5,1073.8,396.5,335.2,821.9,731.5,3466.1,3469.8,1272.1,778.6,621.4,3458.9,1213.3,893.2,3451.6,3438.2,398.9,325.9,343.7,354.5,287.5,266.8,3457.6,3461.3,496.4,438.8,488.5,886.5,666.8,479.0,1.0,-5.0,-1.0,12278.0,-10792.0,1043.0,-366.0,8.0,-12.0,-2.0,7.0,-3.0,2.0,8952.0,-12394.0,-2517.0,5323.0,19.0,-19.0,-7.0,1.0
2022-05-08 17:15:19.697022-07:00,731.5,732.3,791.9,1072.1,396.5,335.2,821.9,731.5,3466.1,3461.3,1273.9,772.0,621.4,3458.9,1213.3,891.5,3449.1,3438.2,398.9,325.9,343.7,351.4,280.6,266.8,3466.1,3461.3,496.4,438.8,486.1,889.0,659.5,479.0,9.0,-6.0,0.0,12280.0,-10790.0,1038.0,-362.0,17.0,-17.0,0.0,14.0,-9.0,0.0,8958.0,-12387.0,-2521.0,5330.0,19.0,-19.0,-1.0,1.0
2022-05-08 17:15:19.726343-07:00,731.5,732.3,791.9,1072.1,397.3,335.2,826.9,731.5,3478.3,3461.3,1273.9,772.0,623.8,3458.9,1213.3,891.5,3449.1,3440.7,403.5,327.5,343.7,351.4,280.6,267.6,3466.1,3457.6,492.5,444.3,486.1,889.0,659.5,478.2,6.0,-4.0,2.0,12285.0,-10785.0,1030.0,-357.0,20.0,-24.0,-3.0,11.0,-3.0,0.0,8965.0,-12379.0,-2523.0,5335.0,26.0,-13.0,5.0,1.0
2022-05-08 17:15:19.756198-07:00,731.5,736.5,790.2,1062.5,397.3,335.2,826.9,731.5,3478.3,3466.1,1267.6,772.8,623.8,3458.9,1213.3,895.7,3433.4,3440.7,403.5,327.5,346.0,354.5,290.5,267.6,3460.1,3457.6,492.5,444.3,481.4,893.2,668.4,478.2,1.0,-3.0,-3.0,12292.0,-10778.0,1023.0,-352.0,17.0,-19.0,-7.0,7.0,-2.0,3.0,8973.0,-12371.0,-2524.0,5340.0,23.0,-13.0,2.0,1.0
2022-05-08 17:15:19.846242-07:00,733.2,736.5,790.2,1062.5,394.2,337.5,826.9,731.5,3467.4,3466.1,1267.6,772.8,624.6,3462.5,1220.4,895.7,3433.4,3433.4,396.5,325.1,346.0,354.5,290.5,266.8,3460.1,3462.5,496.4,452.2,481.4,893.2,668.4,481.4,8.0,-10.0,4.0,12297.0,-10773.0,1016.0,-347.0,10.0,-18.0,-5.0,10.0,-7.0,2.0,8977.0,-12366.0,-2527.0,5343.0,7.0,-13.0,1.0,1.0
2022-05-08 17:15:19.875945-07:00,733.2,734.8,788.6,1067.7,394.2,337.5,826.9,732.3,3467.4,3457.6,1266.7,769.5,624.6,3462.5,1220.4,891.5,3445.5,3433.4,396.5,325.1,337.5,354.5,285.2,266.8,3466.1,3462.5,496.4,452.2,498.8,890.7,663.6,481.4,0.0,-6.0,-2.0,12300.0,-10771.0,1012.0,-345.0,7.0,-6.0,3.0,7.0,-6.0,-1.0,8978.0,-12365.0,-2524.0,5344.0,8.0,-1.0,14.0,1.0
2022-05-08 17:15:19.906821-07:00,734.8,734.8,788.6,1067.7,398.9,330.5,831.9,732.3,3469.8,3457.6,1266.7,769.5,618.9,3468.6,1223.9,891.5,3445.5,3446.7,402.0,327.5,337.5,354.5,285.2,270.6,3466.1,3455.2,493.2,445.9,498.8,890.7,663.6,479.8,4.0,-15.0,-4.0,12305.0,-10765.0,1006.0,-341.0,27.0,-21.0,7.0,6.0,-10.0,-2.0,8976.0,-12368.0,-2518.0,5344.0,1.0,0.0,21.0,1.0
2022-05-08 17:15:19.966220-07:00,734.8,730.7,790.2,1066.9,398.9,330.5,828.5,740.6,3469.8,3472.2,1264.9,775.3,618.9,3468.6,1208.0,888.2,3449.1,3438.2,402.0,327.5,343.7,353.7,284.4,270.6,3457.6,3462.5,493.2,445.9,497.2,888.2,670.1,479.8,7.0,-7.0,8.0,12311.0,-10759.0,999.0,-326.0,19.0,-56.0,13.0,13.0,-3.0,3.0,8975.0,-12368.0,-2511.0,5349.0,8.0,0.0,25.0,1.0
2022-05-08 17:15:20.026443-07:00,733.2,733.2,790.2,1066.9,398.1,333.6,828.5,740.6,3473.4,3467.4,1264.9,775.3,626.2,3462.5,1208.0,888.2,3449.1,3438.2,399.6,323.6,343.7,353.7,285.9,267.6,3457.6,3462.5,488.5,439.6,497.2,888.2,666.0,483.7,2.0,-7.0,0.0,12322.0,-10748.0,985.0,-316.0,26.0,-34.0,-5.0,8.0,-5.0,4.0,8983.0,-12359.0,-2510.0,5357.0,29.0,-25.0,3.0,1.0
2022-05-08 17:15:20.056881-07:00,733.2,733.2,791.9,1067.7,398.1,333.6,824.4,734.8,3473.4,3467.4,1272.1,784.4,626.2,3462.5,1217.7,892.4,3445.5,3441.9,399.6,323.6,342.1,351.4,285.9,267.6,3468.6,3478.3,488.5,439.6,484.5,891.5,666.0,483.7,8.0,-6.0,4.0,12329.0,-10741.0,979.0,-309.0,18.0,-17.0,15.0,10.0,-5.0,2.0,8989.0,-12349.0,-2510.0,5368.0,25.0,-23.0,18.0,1.0
2022-05-08 17:15:20.116753-07:00,734.0,731.5,791.9,1067.7,398.9,334.4,824.4,734.8,3468.6,3464.9,1272.1,784.4,623.0,3461.3,1217.7,892.4,3445.5,3441.9,397.3,328.2,342.1,351.4,280.6,265.3,3468.6,3478.3,492.5,440.4,484.5,891.5,668.4,488.5,3.0,-6.0,0.0,12332.0,-10739.0,978.0,-301.0,7.0,-10.0,14.0,10.0,-6.0,1.0,8993.0,-12343.0,-2505.0,5381.0,21.0,-16.0,19.0,1.0
2022-05-08 17:15:20.176485-07:00,734.0,731.5,791.0,1076.4,398.9,334.4,826.0,727.4,3468.6,3464.9,1271.2,777.8,623.0,3461.3,1218.6,890.7,3449.1,3449.1,397.3,328.2,347.6,356.8,280.6,265.3,3464.9,3452.8,492.5,440.4,487.7,892.4,668.4,488.5,6.0,-3.0,12.0,12334.0,-10736.0,978.0,-297.0,5.0,-9.0,7.0,8.0,-5.0,0.0,8995.0,-12339.0,-2500.0,5386.0,10.0,-2.0,12.0,1.0
2022-05-08 17:15:20.266119-07:00,731.5,732.3,791.0,1076.4,404.3,336.7,826.0,727.4,3473.4,3467.4,1271.2,777.8,619.7,3473.4,1218.6,890.7,3449.1,3449.1,399.6,324.4,347.6,356.8,280.6,263.7,3464.9,3452.8,494.0,436.4,487.7,892.4,673.3,490.1,2.0,-7.0,0.0,12334.0,-10737.0,977.0,-297.0,-10.0,-3.0,8.0,5.0,-3.0,3.0,8994.0,-12340.0,-2495.0,5389.0,-14.0,7.0,14.0,1.0
2022-05-08 17:15:20.267621-07:00,731.5,732.3,787.7,1075.6,404.3,336.7,844.4,744.7,3473.4,3467.4,1265.8,775.3,619.7,3473.4,1219.5,894.9,3441.9,3445.5,399.6,324.4,346.0,354.5,280.6,263.7,3467.4,3457.6,494.0,436.4,486.9,889.0,673.3,490.1,8.0,-3.0,-5.0,12334.0,-10736.0,982.0,-292.0,12.0,1.0,16.0,10.0,-5.0,-2.0,8990.0,-12343.0,-2489.0,5392.0,13.0,-15.0,14.0,1.0
2022-05-08 17:15:20.416213-07:00,734.0,734.8,790.2,1075.6,399.6,332.9,844.4,744.7,3469.8,3473.4,1269.4,775.3,619.7,3457.6,1219.5,894.9,3441.9,3445.5,400.4,327.5,346.0,354.5,289.0,264.5,3467.4,3457.6,492.5,438.0,486.9,887.3,669.3,484.5,0.0,-20.0,-5.0,12339.0,-10730.0,979.0,-289.0,18.0,-15.0,-1.0,13.0,-7.0,5.0,8996.0,-12335.0,-2489.0,5400.0,23.0,-27.0,0.0,1.0
2022-05-08 17:15:20.417676-07:00,734.0,734.8,790.2,1070.3,399.6,331.3,824.4,731.5,3469.8,3473.4,1269.4,774.5,619.7,3464.9,1217.7,900.0,3443.1,3444.3,401.2,327.5,343.7,354.5,289.0,264.5,3468.6,3457.6,490.9,438.0,488.5,887.3,669.3,484.5,12.0,-13.0,6.0,12344.0,-10725.0,972.0,-281.0,-3.0,-25.0,11.0,16.0,-5.0,0.0,9002.0,-12323.0,-2494.0,5414.0,24.0,-55.0,-5.0,1.0
2022-05-08 17:15:20.446814-07:00,738.9,735.6,788.6,1070.3,398.1,331.3,824.4,731.5,3462.5,3468.6,1267.6,774.5,617.3,3464.9,1217.7,900.0,3443.1,3444.3,401.2,330.5,343.7,348.3,287.5,266.8,3468.6,3457.6,490.9,435.7,488.5,895.7,664.4,488.5,14.0,1.0,6.0,12349.0,-10720.0,971.0,-273.0,17.0,-12.0,5.0,12.0,-7.0,-1.0,9008.0,-12309.0,-2501.0,5432.0,26.0,-48.0,-6.0,1.0
2022-05-08 17:15:20.566380-07:00,738.9,735.6,788.6,1070.3,398.1,332.9,824.4,734.0,3462.5,3468.6,1267.6,771.1,617.3,3467.4,1209.7,894.1,3440.7,3440.7,399.6,330.5,346.0,348.3,287.5,266.8,3461.3,3457.6,496.4,435.7,486.9,895.7,664.4,488.5,9.0,-17.0,7.0,12357.0,-10711.0,966.0,-268.0,36.0,-21.0,10.0,15.0,-14.0,1.0,9013.0,-12297.0,-2510.0,5449.0,30.0,-49.0,4.0,1.0
2022-05-08 17:15:20.567421-07:00,732.3,745.5,791.9,1070.3,399.6,332.9,824.4,734.0,3471.0,3466.1,1269.4,771.1,620.5,3467.4,1209.7,894.1,3440.7,3440.7,399.6,321.3,346.0,352.2,283.6,269.1,3461.3,3457.6,496.4,434.9,486.9,891.5,664.4,478.2,11.0,0.0,3.0,12370.0,-10697.0,966.0,-256.0,21.0,-23.0,18.0,18.0,-3.0,-1.0,9020.0,-12280.0,-2519.0,5471.0,20.0,-71.0,-7.0,1.0
2022-05-08 17:15:20.568190-07:00,732.3,745.5,791.9,1071.2,399.6,332.1,830.2,735.6,3471.0,3466.1,1269.4,773.6,620.5,3473.4,1211.5,895.7,3447.9,3431.0,396.5,321.3,345.2,352.2,283.6,269.1,3468.6,3458.9,493.2,434.9,486.9,891.5,664.4,478.2,6.0,-20.0,0.0,12378.0,-10688.0,961.0,-251.0,49.0,-18.0,4.0,21.0,-8.0,-3.0,9025.0,-12261.0,-2537.0,5498.0,37.0,-87.0,-4.0,1.0
2022-05-08 17:15:20.685937-07:00,737.3,735.6,790.2,1070.3,395.7,332.1,830.2,735.6,3467.4,3469.8,1269.4,775.3,627.8,3473.4,1211.5,895.7,3447.9,3431.0,396.5,325.9,345.2,354.5,286.7,265.3,3468.6,3458.9,493.2,437.2,483.0,889.8,672.5,483.7,1.0,-2.0,0.0,12394.0,-10671.0,950.0,-243.0,36.0,-37.0,10.0,12.0,0.0,-3.0,9034.0,-12232.0,-2562.0,5534.0,31.0,-125.0,-23.0,1.0
2022-05-08 17:15:20.686938-07:00,737.3,735.6,790.2,1070.3,398.1,329.8,828.5,737.3,3467.4,3469.8,1269.4,775.3,623.0,3463.7,1222.2,895.7,3438.2,3455.2,400.4,325.9,345.2,354.5,286.7,265.3,3457.6,3462.5,492.5,435.7,483.0,889.8,672.5,483.7,-5.0,-5.0,9.0,12397.0,-10669.0,941.0,-229.0,11.0,-38.0,17.0,-7.0,-3.0,2.0,9034.0,-12211.0,-2600.0,5563.0,14.0,-107.0,-31.0,1.0
2022-05-08 17:15:20.715913-07:00,733.2,731.5,791.9,1070.3,398.1,329.8,828.5,737.3,3478.3,3467.4,1264.0,776.1,623.0,3463.7,1222.2,895.7,3438.2,3455.2,400.4,325.9,343.7,356.1,286.7,268.3,3457.6,3462.5,492.5,435.7,481.4,894.1,669.3,475.0,-6.0,-3.0,3.0,12401.0,-10664.0,935.0,-219.0,10.0,-21.0,8.0,-5.0,-2.0,8.0,9034.0,-12194.0,-2632.0,5587.0,11.0,-90.0,-32.0,1.0
2022-05-08 17:15:20.806469-07:00,733.2,731.5,791.9,1070.3,395.0,329.8,827.7,727.4,3478.3,3467.4,1264.0,776.1,621.4,3478.3,1210.6,895.7,3441.9,3433.4,398.1,322.1,343.7,356.1,286.7,268.3,3468.6,3463.7,494.8,435.7,481.4,894.1,669.3,475.0,-6.0,-7.0,5.0,12404.0,-10662.0,927.0,-211.0,-1.0,-29.0,7.0,-1.0,-5.0,5.0,9035.0,-12179.0,-2654.0,5606.0,22.0,-63.0,-12.0,1.0
2022-05-08 17:15:20.808454-07:00,740.6,731.5,791.9,1068.6,395.0,329.8,827.7,727.4,3474.6,3466.1,1262.2,776.9,621.4,3478.3,1210.6,895.7,3441.9,3433.4,398.1,322.1,346.0,354.5,287.5,269.9,3468.6,3463.7,494.8,435.7,488.5,887.3,666.8,483.7,4.0,-1.0,6.0,12406.0,-10660.0,924.0,-206.0,5.0,-8.0,7.0,12.0,-6.0,3.0,9040.0,-12168.0,-2663.0,5619.0,11.0,-31.0,-11.0,1.0
2022-05-08 17:15:20.865821-07:00,740.6,731.5,791.9,1068.6,402.0,330.5,831.9,734.8,3474.6,3466.1,1262.2,776.9,618.9,3457.6,1206.2,894.1,3446.7,3440.7,398.9,323.6,346.0,354.5,287.5,269.9,3460.1,3461.3,495.6,438.0,488.5,887.3,666.8,483.7,2.0,-6.0,5.0,12406.0,-10660.0,920.0,-203.0,7.0,-9.0,0.0,8.0,-6.0,3.0,9038.0,-12165.0,-2667.0,5625.0,4.0,-8.0,5.0,1.0
2022-05-08 17:15:20.896268-07:00,738.1,737.3,801.0,1070.3,402.0,330.5,831.9,734.8,3468.6,3471.0,1258.7,775.3,618.9,3457.6,1206.2,894.1,3446.7,3440.7,398.9,323.6,346.8,352.2,289.0,267.6,3460.1,3461.3,495.6,438.0,479.8,890.7,664.4,483.7,4.0,-6.0,2.0,12407.0,-10659.0,920.0,-203.0,12.0,-2.0,2.0,10.0,-6.0,0.0,9039.0,-12165.0,-2666.0,5626.0,13.0,-3.0,13.0,1.0
2022-05-08 17:15:20.956208-07:00,734.0,737.3,801.0,1070.3,398.1,334.4,827.7,730.7,3478.3,3471.0,1258.7,775.3,618.9,3469.8,1210.6,895.7,3438.2,3449.1,408.2,321.3,346.8,352.2,289.0,265.3,3460.1,3457.6,492.5,437.2,479.8,890.7,664.4,482.2,4.0,-8.0,3.0,12411.0,-10655.0,918.0,-201.0,14.0,-16.0,-2.0,7.0,-2.0,0.0,9040.0,-12164.0,-2659.0,5630.0,7.0,3.0,18.0,1.0
2022-05-08 17:15:21.016389-07:00,734.0,734.8,795.2,1066.0,398.1,334.4,827.7,737.3,3478.3,3460.1,1268.5,771.1,618.9,3469.8,1210.6,898.3,3445.5,3449.1,408.2,321.3,341.4,355.3,280.6,265.3,3461.3,3457.6,492.5,437.2,480.6,887.3,664.4,482.2,1.0,-5.0,3.0,12416.0,-10650.0,913.0,-197.0,17.0,-12.0,10.0,14.0,-4.0,0.0,9044.0,-12157.0,-2656.0,5640.0,24.0,-26.0,10.0,1.0
2022-05-08 17:15:21.046588-07:00,740.6,734.8,795.2,1066.0,395.0,334.4,831.1,737.3,3477.1,3460.1,1268.5,771.1,621.4,3473.4,1216.0,898.3,3445.5,3451.6,401.2,326.7,341.4,355.3,280.6,273.7,3461.3,3464.9,494.8,444.3,480.6,887.3,664.4,486.9,4.0,-5.0,7.0,12418.0,-10647.0,908.0,-193.0,13.0,-19.0,5.0,11.0,-7.0,3.0,9050.0,-12146.0,-2659.0,5652.0,23.0,-31.0,7.0,1.0
2022-05-08 17:15:21.136358-07:00,740.6,734.0,785.2,1066.0,395.0,334.4,831.1,735.6,3477.1,3471.0,1257.8,774.5,621.4,3473.4,1216.0,896.6,3446.7,3451.6,401.2,326.7,344.5,355.3,285.2,273.7,3458.9,3464.9,494.8,444.3,499.6,886.5,673.3,486.9,8.0,-5.0,4.0,12424.0,-10641.0,902.0,-187.0,23.0,-23.0,3.0,13.0,-3.0,2.0,9050.0,-12142.0,-2663.0,5658.0,3.0,-26.0,-4.0,1.0
2022-05-08 17:15:21.166268-07:00,738.1,734.0,785.2,1066.0,400.4,329.8,826.9,735.6,3467.4,3471.0,1257.8,774.5,619.7,3464.9,1210.6,896.6,3446.7,3444.3,402.0,325.9,344.5,355.3,285.2,266.8,3458.9,3467.4,492.5,439.6,499.6,886.5,673.3,483.7,12.0,-2.0,3.0,12436.0,-10627.0,897.0,-178.0,22.0,-19.0,14.0,29.0,-13.0,-3.0,9051.0,-12135.0,-2672.0,5666.0,1.0,-52.0,-9.0,1.0
2022-05-08 17:15:21.226480-07:00,738.1,736.5,792.7,1069.5,400.4,329.8,826.9,737.3,3467.4,3468.6,1264.0,771.1,619.7,3464.9,1210.6,892.4,3447.9,3444.3,402.0,325.9,338.3,355.3,281.3,266.8,3463.7,3467.4,492.5,439.6,490.1,883.9,670.1,483.7,4.0,-6.0,4.0,12442.0,-10621.0,891.0,-167.0,21.0,-32.0,11.0,8.0,-5.0,2.0,9048.0,-12125.0,-2694.0,5683.0,-9.0,-70.0,-10.0,1.0
2022-05-08 17:15:21.285840-07:00,735.6,731.5,792.7,1069.5,396.5,336.7,828.5,737.3,3461.3,3471.0,1264.0,771.1,624.6,3457.6,1214.2,892.4,3447.9,3445.5,399.6,322.8,338.3,355.3,283.6,269.9,3463.7,3456.4,496.4,445.9,490.1,883.9,664.4,480.6,3.0,-7.0,1.0,12447.0,-10616.0,885.0,-155.0,6.0,-30.0,17.0,16.0,-10.0,4.0,9038.0,-12120.0,-2725.0,5695.0,-38.0,-64.0,-31.0,1.0
2022-05-08 17:15:21.677010-07:00,735.6,731.5,795.2,1068.6,396.5,336.7,831.1,736.5,3461.3,3471.0,1260.4,773.6,624.6,3457.6,1211.5,888.2,3444.3,3446.7,399.6,322.8,342.9,354.5,283.6,269.9,3468.6,3456.4,496.4,445.9,485.3,883.1,664.4,480.6,7.0,2.0,6.0,12454.0,-10608.0,876.0,-137.0,28.0,-41.0,13.0,1.0,-6.0,2.0,9030.0,-12116.0,-2746.0,5705.0,-15.0,-52.0,-14.0,1.0
2022-05-08 17:15:21.796904-07:00,734.0,731.5,795.2,1068.6,402.0,332.1,831.1,736.5,3461.3,3468.6,1260.4,773.6,621.4,3478.3,1211.5,888.2,3444.3,3446.7,399.6,324.4,342.9,354.5,281.3,263.0,3468.6,3456.4,495.6,438.8,485.3,883.1,670.1,477.4,-1.0,-16.0,10.0,12471.0,-10590.0,865.0,-126.0,108.0,-36.0,19.0,5.0,-8.0,7.0,9033.0,-12107.0,-2756.0,5716.0,40.0,-19.0,16.0,1.0
2022-05-08 17:15:21.798842-07:00,734.0,731.5,791.9,1068.6,402.0,332.1,834.4,735.6,3461.3,3468.6,1264.0,771.1,621.4,3478.3,1202.7,889.8,3443.1,3441.9,399.6,324.4,344.5,355.3,281.3,263.0,3456.4,3457.6,495.6,438.8,483.0,887.3,670.1,477.4,1.0,-3.0,-4.0,12504.0,-10551.0,864.0,-105.0,66.0,-37.0,47.0,3.0,-2.0,-2.0,9044.0,-12092.0,-2751.0,5734.0,34.0,-55.0,14.0,1.0
2022-05-08 17:15:21.799568-07:00,736.5,736.5,791.9,1068.6,394.2,334.4,834.4,735.6,3467.4,3464.9,1264.0,771.1,614.1,3468.6,1202.7,889.8,3443.1,3441.9,403.5,323.6,344.5,355.3,283.6,266.0,3456.4,3457.6,493.2,438.0,483.0,887.3,666.8,479.8,4.0,-4.0,9.0,12514.0,-10540.0,864.0,-82.0,38.0,-34.0,40.0,5.0,-8.0,4.0,9043.0,-12082.0,-2762.0,5751.0,18.0,-58.0,9.0,1.0
2022-05-08 17:15:21.800215-07:00,736.5,736.5,798.5,1072.9,394.2,334.4,831.9,739.7,3467.4,3464.9,1257.8,775.3,614.1,3468.6,1209.7,892.4,3441.9,3447.9,403.5,323.6,342.1,352.2,283.6,266.0,3455.2,3462.5,493.2,438.0,486.9,886.5,666.8,479.8,7.0,6.0,1.0,12539.0,-10511.0,859.0,-64.0,136.0,-50.0,30.0,5.0,7.0,3.0,9048.0,-12069.0,-2768.0,5766.0,62.0,-47.0,13.0,1.0
2022-05-08 17:15:21.826431-07:00,736.5,736.5,798.5,1072.9,394.2,334.4,831.9,739.7,3467.4,3464.9,1257.8,775.3,614.1,3468.6,1209.7,892.4,3441.9,3447.9,403.5,323.6,342.1,352.2,283.6,266.0,3455.2,3462.5,493.2,438.0,486.9,886.5,666.8,479.8,7.0,6.0,1.0,12539.0,-10511.0,859.0,-64.0,136.0,-50.0,30.0,5.0,7.0,3.0,9048.0,-12069.0,-2768.0,5766.0,62.0,-47.0,13.0,1.0
2022-05-08 17:15:21.856727-07:00,736.5,742.2,1034.0,1079.0,399.6,337.5,855.3,736.5,3462.5,3473.4,1256.9,776.1,619.7,3469.8,1216.0,896.6,3443.1,3446.7,402.0,324.4,339.8,352.2,286.7,265.3,3457.6,3463.7,498.8,439.6,482.2,885.6,666.0,482.2,1.0,-15.0,63.0,12972.0,-9991.0,544.0,257.0,386.0,-172.0,-25.0,-28.0,-20.0,0.0,9335.0,-11419.0,-3103.0,6424.0,364.0,-494.0,-120.0,1.0
2022-05-08 17:15:21.946441-07:00,736.5,742.2,1034.0,1088.6,403.5,336.7,859.5,734.0,3462.5,3473.4,1256.9,772.8,620.5,3456.4,1207.1,897.4,3447.9,3444.3,398.9,325.9,342.9,352.2,286.7,265.3,3466.1,3463.7,498.8,434.9,486.9,885.6,666.0,482.2,-3.0,31.0,86.0,13038.0,-9905.0,548.0,207.0,106.0,214.0,-159.0,14.0,8.0,20.0,9430.0,-11233.0,-3191.0,6569.0,253.0,-339.0,-101.0,1.0
2022-05-08 17:15:22.065915-07:00,734.8,748.8,1073.8,1119.1,403.5,336.7,859.5,734.0,3463.7,3474.6,1256.0,767.8,620.5,3456.4,1207.1,897.4,3447.9,3444.3,398.9,325.9,342.1,354.5,284.4,269.9,3466.1,3463.7,498.8,434.9,492.5,892.4,671.7,479.8,-22.0,2.0,7.0,13039.0,-9903.0,574.0,89.0,12.0,92.0,-195.0,40.0,-24.0,31.0,9474.0,-11135.0,-3245.0,6645.0,93.0,-193.0,-40.0,1.0
2022-05-08 17:15:22.096805-07:00,734.8,748.8,1073.8,1119.1,405.1,332.1,863.7,743.9,3463.7,3474.6,1256.0,767.8,627.8,3461.3,1202.7,889.8,3441.9,3444.3,395.7,331.3,342.1,354.5,284.4,269.9,3458.9,3457.6,501.2,434.1,492.5,892.4,671.7,479.8,5.0,8.0,-41.0,13077.0,-9859.0,480.0,25.0,317.0,-236.0,-356.0,14.0,-2.0,-11.0,9504.0,-11112.0,-3185.0,6671.0,267.0,69.0,119.0,1.0
2022-05-08 17:15:22.425971-07:00,739.7,752.1,1134.9,1228.4,405.1,332.1,863.7,743.9,3461.3,3457.6,1256.9,776.1,627.8,3461.3,1202.7,889.8,3441.9,3444.3,395.7,331.3,342.9,353.7,285.2,266.0,3458.9,3457.6,501.2,434.1,479.8,886.5,666.0,484.5,14.0,39.0,-26.0,13161.0,-9755.0,255.0,-16.0,169.0,-446.0,-391.0,12.0,39.0,-23.0,9568.0,-11060.0,-3111.0,6700.0,120.0,-57.0,29.0,1.0
2022-05-08 17:15:22.427081-07:00,739.7,752.1,1134.9,1228.4,405.9,353.7,859.5,756.3,3461.3,3457.6,1256.9,776.1,627.0,3464.9,1207.1,895.7,3457.6,3438.2,402.0,325.1,342.9,353.7,285.2,266.0,3457.6,3460.1,510.7,437.2,479.8,886.5,666.0,484.5,-24.0,1.0,48.0,13132.0,-9796.0,54.0,-61.0,-528.0,-90.0,-261.0,-8.0,7.0,15.0,9530.0,-11058.0,-3187.0,6721.0,-253.0,-221.0,-90.0,1.0
2022-05-08 17:15:22.428224-07:00,743.9,752.1,1147.1,1327.8,405.9,353.7,859.5,756.3,3462.5,3467.4,1260.4,766.2,627.0,3464.9,1207.1,895.7,3457.6,3438.2,402.0,325.1,346.8,356.1,286.7,269.9,3457.6,3460.1,510.7,437.2,479.8,885.6,663.6,482.2,-31.0,-1.0,-20.0,12964.0,-10018.0,-56.0,-114.0,-708.0,-412.0,-292.0,2.0,26.0,-27.0,9405.0,-11117.0,-3333.0,6730.0,-576.0,-184.0,3.0,1.0
2022-05-08 17:15:22.429553-07:00,743.9,752.1,1147.1,1327.8,411.4,362.3,858.7,763.7,3462.5,3467.4,1260.4,766.2,618.9,3468.6,1203.5,899.1,3443.1,3443.1,397.3,329.0,346.8,356.1,286.7,269.9,3460.1,3466.1,515.5,450.6,479.8,885.6,663.6,482.2,-96.0,-13.0,-108.0,12710.0,-10335.0,-263.0,-92.0,-1349.0,-547.0,-182.0,-19.0,19.0,-12.0,9171.0,-11241.0,-3594.0,6712.0,-1071.0,-555.0,-276.0,1.0
2022-05-08 17:15:22.431233-07:00,734.8,757.9,1188.5,1410.3,411.4,362.3,858.7,791.9,3468.6,3467.4,1264.0,772.0,618.9,3468.6,1203.5,898.3,3449.1,3443.1,397.3,329.0,345.2,354.5,285.9,267.6,3463.7,3466.1,515.5,450.6,484.5,894.1,671.7,539.4,18.0,47.0,-107.0,12204.0,-10917.0,-555.0,18.0,-2309.0,-765.0,-320.0,-39.0,39.0,-76.0,8661.0,-11482.0,-4124.0,6677.0,-1995.0,-541.0,-256.0,1.0
2022-05-08 17:15:22.519706-07:00,742.2,757.9,1188.5,1410.3,412.1,368.5,862.9,791.9,3467.4,3467.4,1264.0,772.0,621.4,3467.4,1212.4,898.3,3449.1,3443.1,401.2,331.3,345.2,354.5,285.9,270.6,3463.7,3462.5,517.9,456.1,484.5,894.1,671.7,557.0,48.0,-174.0,68.0,10214.0,-12780.0,-855.0,233.0,-749.0,45.0,246.0,-61.0,-4.0,-14.0,6321.0,-12611.0,-5447.0,6306.0,-759.0,128.0,461.0,1.0
2022-05-08 17:15:22.520586-07:00,740.6,757.1,1153.3,1563.7,423.1,367.7,848.6,779.4,3463.7,3460.1,1285.5,783.6,634.3,3474.6,1218.6,899.1,3439.5,3440.7,404.3,335.2,342.1,352.2,295.9,269.1,3456.4,3464.9,521.8,481.4,492.5,918.6,719.2,536.2,23.0,31.0,-21.0,10061.0,-12906.0,-743.0,280.0,-796.0,84.0,365.0,43.0,-40.0,-12.0,6108.0,-12804.0,-5300.0,6252.0,-221.0,119.0,675.0,1.0
2022-05-08 17:15:22.546777-07:00,740.6,774.5,1144.5,1552.5,423.1,367.7,853.7,788.6,3463.7,3457.6,1273.9,793.5,634.3,3474.6,1212.4,893.2,3446.7,3441.9,404.3,335.2,346.0,355.3,296.7,269.1,3461.3,3457.6,521.8,481.4,493.2,939.0,725.8,536.2,23.0,-115.0,27.0,9756.0,-13142.0,-629.0,369.0,-844.0,10.0,434.0,-39.0,-8.0,-55.0,5803.0,-12987.0,-5227.0,6227.0,-796.0,-308.0,397.0,1.0
2022-05-08 17:15:22.606069-07:00,753.8,781.1,1144.5,1552.5,434.1,367.7,853.7,788.6,3471.0,3456.4,1273.9,793.5,636.7,3457.6,1212.4,893.2,3446.7,3441.9,401.2,332.1,346.0,355.3,299.7,272.1,3461.3,3457.6,513.9,483.7,493.2,939.0,721.6,530.6,-20.0,58.0,95.0,9489.0,-13342.0,-442.0,426.0,-905.0,321.0,393.0,31.0,-18.0,-7.0,5464.0,-13148.0,-5189.0,6228.0,-794.0,66.0,561.0,1.0
2022-05-08 17:15:22.666264-07:00,753.8,781.1,1137.5,1540.3,434.1,367.7,853.7,780.3,3471.0,3456.4,1264.0,800.2,636.7,3457.6,1212.4,894.1,3441.9,3440.7,401.2,332.1,344.5,354.5,299.7,272.1,3457.6,3455.2,513.9,483.7,483.0,942.4,721.6,530.6,24.0,64.0,63.0,9082.0,-13629.0,-256.0,383.0,-1616.0,308.0,199.0,42.0,-15.0,-25.0,5070.0,-13402.0,-5124.0,6070.0,-1123.0,344.0,503.0,1.0
2022-05-08 17:15:22.726268-07:00,753.8,774.5,1137.5,1540.3,436.4,368.5,853.7,780.3,3463.7,3468.6,1264.0,800.2,639.2,3458.9,1212.4,894.1,3441.9,3440.7,400.4,328.2,344.5,354.5,299.0,265.3,3457.6,3455.2,512.3,486.9,483.0,942.4,724.1,536.2,28.0,-93.0,-9.0,8487.0,-14011.0,-159.0,292.0,-1433.0,279.0,86.0,-6.0,-73.0,-5.0,4580.0,-13676.0,-5111.0,5857.0,-1215.0,92.0,446.0,1.0
2022-05-08 17:15:22.756082-07:00,753.8,774.5,1127.9,1517.1,436.4,368.5,873.0,787.7,3463.7,3468.6,1238.2,801.0,639.2,3458.9,1211.5,897.4,3444.3,3439.5,400.4,328.2,342.1,356.1,299.0,265.3,3456.4,3447.9,512.3,486.9,484.5,933.0,724.1,536.2,-17.0,-92.0,11.0,8023.0,-14283.0,-66.0,273.0,-836.0,-46.0,292.0,-25.0,-89.0,1.0,4275.0,-13829.0,-5074.0,5760.0,-668.0,-8.0,405.0,1.0
2022-05-08 17:15:22.816441-07:00,755.4,773.6,1127.9,1517.1,440.4,365.4,873.0,787.7,3461.3,3473.4,1238.2,801.0,648.9,3472.2,1211.5,897.4,3444.3,3439.5,401.2,330.5,342.1,356.1,304.3,267.6,3456.4,3447.9,509.9,476.6,484.5,933.0,711.8,529.0,-10.0,-46.0,-55.0,7689.0,-14464.0,30.0,333.0,-1050.0,44.0,189.0,-24.0,-26.0,-51.0,3947.0,-13965.0,-5024.0,5709.0,-872.0,99.0,508.0,1.0
2022-05-08 17:15:22.876167-07:00,755.4,773.6,1120.9,1500.4,440.4,365.4,862.9,788.6,3461.3,3473.4,1227.5,805.2,648.9,3473.4,1206.2,899.1,3447.9,3449.1,402.0,330.5,347.6,355.3,304.3,267.6,3457.6,3464.9,511.5,476.6,493.2,933.0,711.8,529.0,31.0,-75.0,-39.0,7292.0,-14666.0,108.0,407.0,-902.0,-69.0,264.0,-27.0,-64.0,-127.0,3595.0,-14111.0,-4955.0,5642.0,-631.0,-109.0,457.0,1.0
2022-05-08 17:15:22.906300-07:00,751.3,770.3,1120.9,1500.4,432.5,365.4,862.9,788.6,3460.1,3464.9,1247.1,805.2,644.0,3473.4,1206.2,899.1,3447.9,3449.1,402.0,323.6,347.6,354.5,297.4,268.3,3457.6,3464.9,511.5,471.9,493.2,925.4,708.5,531.4,-2.0,-122.0,-42.0,7035.0,-14789.0,196.0,439.0,-142.0,26.0,322.0,-10.0,-43.0,-39.0,3338.0,-14176.0,-4875.0,5706.0,-23.0,-436.0,377.0,1.0
2022-05-08 17:15:22.965999-07:00,751.3,770.3,1120.9,1477.3,432.5,364.6,858.7,791.9,3460.1,3464.9,1247.1,799.4,644.0,3466.1,1224.8,891.5,3458.9,3444.3,403.5,323.6,344.5,354.5,297.4,268.3,3460.1,3458.9,510.7,471.9,490.9,925.4,708.5,531.4,35.0,6.0,-7.0,7020.0,-14790.0,369.0,529.0,-130.0,-10.0,437.0,27.0,-15.0,-74.0,3229.0,-14133.0,-4777.0,5953.0,-9.0,-547.0,407.0,1.0
2022-05-08 17:15:22.996103-07:00,746.3,771.1,1111.2,1477.3,434.9,364.6,858.7,791.9,3471.0,3461.3,1269.4,799.4,640.0,3466.1,1224.8,891.5,3458.9,3444.3,403.5,325.1,344.5,355.3,312.0,271.4,3460.1,3458.9,510.7,471.1,490.9,918.6,707.7,524.2,30.0,80.0,52.0,6996.0,-14797.0,462.0,567.0,18.0,-25.0,-9.0,43.0,31.0,-12.0,3073.0,-14085.0,-4687.0,6216.0,-74.0,-650.0,280.0,1.0
2022-05-08 17:15:23.056063-07:00,746.3,771.1,1111.2,1455.2,434.9,363.1,859.5,793.5,3471.0,3461.3,1269.4,805.2,640.0,3473.4,1231.0,893.2,3449.1,3444.3,398.9,325.1,343.7,355.3,312.0,271.4,3468.6,3458.9,505.1,471.1,490.9,918.6,707.7,524.2,13.0,148.0,-11.0,6995.0,-14794.0,483.0,638.0,-126.0,-246.0,199.0,95.0,96.0,-21.0,2996.0,-14013.0,-4620.0,6462.0,72.0,-540.0,228.0,1.0
2022-05-08 17:15:23.146541-07:00,748.8,770.3,1106.9,1455.2,434.1,363.1,859.5,793.5,3461.3,3464.9,1276.5,805.2,644.0,3473.4,1231.0,893.2,3449.1,3444.3,398.9,328.2,343.7,354.5,318.2,269.9,3468.6,3458.9,505.1,473.5,490.9,916.0,698.7,531.4,50.0,53.0,44.0,6901.0,-14833.0,495.0,737.0,-420.0,-36.0,21.0,79.0,41.0,-23.0,2856.0,-13970.0,-4605.0,6627.0,-289.0,-260.0,193.0,1.0
2022-05-08 17:15:23.148759-07:00,748.8,770.3,1106.9,1461.7,434.1,364.6,852.8,791.0,3461.3,3464.9,1276.5,806.9,644.0,3462.5,1240.8,898.3,3449.1,3440.7,400.4,328.2,345.2,354.5,318.2,269.9,3461.3,3447.9,510.7,473.5,490.1,916.0,698.7,531.4,17.0,-26.0,61.0,6759.0,-14895.0,513.0,793.0,-137.0,-66.0,383.0,35.0,43.0,16.0,2709.0,-13954.0,-4603.0,6723.0,-50.0,-420.0,132.0,1.0
2022-05-08 17:15:23.206254-07:00,743.0,764.5,1101.7,1454.3,427.8,364.6,852.8,791.0,3457.6,3463.7,1266.7,808.5,648.9,3462.5,1240.8,898.3,3449.1,3440.7,400.4,323.6,346.0,354.5,318.2,268.3,3461.3,3447.9,510.7,490.9,486.1,914.4,697.9,525.0,10.0,47.0,87.0,6814.0,-14854.0,734.0,913.0,338.0,-34.0,626.0,29.0,2.0,-6.0,2769.0,-13875.0,-4512.0,6920.0,448.0,-493.0,116.0,1.0
2022-05-08 17:15:23.265972-07:00,743.0,764.5,1101.7,1454.3,426.2,367.7,862.1,791.9,3457.6,3463.7,1266.7,808.5,654.6,3457.6,1234.6,894.9,3449.1,3440.7,399.6,329.0,346.0,354.5,318.2,268.3,3467.4,3462.5,509.1,486.9,486.1,914.4,697.9,525.0,-41.0,41.0,114.0,6837.0,-14829.0,918.0,968.0,-290.0,103.0,215.0,50.0,-9.0,91.0,2750.0,-13849.0,-4441.0,7026.0,-115.0,-23.0,231.0,1.0
2022-05-08 17:15:23.296113-07:00,745.5,767.0,1097.3,1436.9,426.2,367.7,862.1,791.9,3468.6,3468.6,1257.8,803.5,654.6,3457.6,1234.6,894.9,3449.1,3440.7,399.6,329.0,346.0,353.7,309.7,272.1,3467.4,3462.5,509.1,486.9,488.5,918.6,697.9,517.9,-29.0,-55.0,94.0,6742.0,-14865.0,1008.0,999.0,82.0,-52.0,331.0,11.0,-28.0,76.0,2725.0,-13870.0,-4357.0,7046.0,264.0,-70.0,161.0,1.0
2022-05-08 17:15:23.356232-07:00,745.5,767.0,1097.3,1436.9,427.8,364.6,853.7,791.0,3468.6,3468.6,1257.8,803.5,644.0,3457.6,1227.5,890.7,3444.3,3438.2,396.5,332.9,346.0,353.7,309.7,272.1,3460.1,3456.4,511.5,483.7,488.5,918.6,697.9,517.9,31.0,9.0,64.0,6797.0,-14826.0,1140.0,1054.0,184.0,98.0,194.0,36.0,-26.0,2.0,2797.0,-13841.0,-4258.0,7135.0,216.0,-27.0,138.0,1.0
2022-05-08 17:15:23.416455-07:00,742.2,765.3,1096.4,1437.8,427.8,364.6,853.7,791.0,3461.3,3466.1,1251.5,801.0,644.0,3457.6,1227.5,890.7,3444.3,3438.2,396.5,332.9,345.2,356.1,309.7,270.6,3460.1,3456.4,511.5,483.7,490.9,909.3,693.8,524.2,-20.0,27.0,87.0,6849.0,-14798.0,1212.0,1036.0,104.0,59.0,98.0,47.0,12.0,57.0,2840.0,-13841.0,-4187.0,7160.0,170.0,22.0,91.0,1.0
2022-05-08 17:15:23.446527-07:00,742.2,765.3,1096.4,1437.8,430.2,354.5,851.1,792.7,3461.3,3466.1,1251.5,801.0,649.7,3461.3,1222.2,895.7,3440.7,3444.3,398.9,331.3,345.2,356.1,309.7,270.6,3447.9,3447.9,505.1,479.8,490.9,909.3,693.8,524.2,24.0,32.0,28.0,6879.0,-14779.0,1273.0,1035.0,68.0,63.0,150.0,27.0,21.0,-7.0,2904.0,-13844.0,-4131.0,7160.0,150.0,121.0,19.0,1.0
2022-05-08 17:15:23.535930-07:00,741.4,757.9,1089.5,1433.2,430.2,354.5,851.1,784.4,3469.8,3464.9,1246.2,803.5,649.7,3461.3,1222.2,895.7,3447.9,3444.3,398.9,331.3,340.6,351.4,309.7,268.3,3457.6,3447.9,505.1,479.8,483.7,905.0,689.7,527.4,-12.0,14.0,39.0,6905.0,-14763.0,1324.0,1028.0,44.0,35.0,7.0,19.0,-5.0,13.0,2971.0,-13856.0,-4097.0,7129.0,105.0,112.0,-23.0,1.0
2022-05-08 17:15:23.537561-07:00,739.7,757.9,1089.5,1433.2,426.2,363.1,847.8,784.4,3467.4,3464.9,1246.2,803.5,651.4,3469.8,1225.7,895.7,3447.9,3447.9,401.2,325.9,340.6,351.4,309.7,272.9,3457.6,3464.9,505.1,470.3,483.7,905.0,689.7,523.4,18.0,23.0,21.0,6917.0,-14759.0,1308.0,1026.0,17.0,-32.0,-51.0,3.0,39.0,-3.0,3008.0,-13875.0,-4096.0,7079.0,61.0,108.0,-70.0,1.0
2022-05-08 17:15:23.596132-07:00,739.7,765.3,1096.4,1432.3,426.2,363.1,847.8,784.4,3467.4,3469.8,1242.6,797.7,651.4,3469.8,1225.7,889.8,3444.3,3447.9,401.2,325.9,341.4,356.1,305.9,272.9,3454.0,3464.9,505.1,470.3,488.5,907.6,684.8,523.4,22.0,-2.0,12.0,6928.0,-14755.0,1295.0,1030.0,11.0,0.0,-29.0,17.0,-5.0,-40.0,3057.0,-13885.0,-4109.0,7030.0,18.0,146.0,-90.0,1.0
2022-05-08 17:15:23.657011-07:00,746.3,765.3,1096.4,1432.3,423.9,355.3,851.1,784.4,3463.7,3469.8,1242.6,797.7,653.8,3464.9,1227.5,889.8,3444.3,3441.9,396.5,327.5,341.4,356.1,305.9,270.6,3454.0,3468.6,509.1,481.4,488.5,907.6,684.8,516.3,14.0,-9.0,19.0,6939.0,-14752.0,1261.0,1035.0,20.0,-108.0,-119.0,-8.0,-19.0,0.0,3100.0,-13901.0,-4133.0,6965.0,24.0,69.0,-132.0,1.0
2022-05-08 17:15:23.686264-07:00,746.3,765.3,1094.7,1427.7,423.9,355.3,851.1,791.9,3463.7,3464.9,1244.4,806.0,653.8,3464.9,1227.5,896.6,3444.3,3441.9,396.5,327.5,346.8,352.2,310.5,270.6,3463.7,3468.6,509.1,481.4,489.3,908.4,684.8,516.3,28.0,-32.0,0.0,6940.0,-14756.0,1203.0,1036.0,18.0,-7.0,-99.0,19.0,-9.0,-50.0,3123.0,-13902.0,-4178.0,6925.0,-27.0,100.0,-109.0,1.0
2022-05-08 17:15:23.746551-07:00,740.6,765.3,1094.7,1427.7,423.9,359.2,852.0,791.9,3468.6,3464.9,1244.4,806.0,657.0,3466.1,1223.0,896.6,3444.3,3444.3,405.1,325.1,346.8,352.2,310.5,275.2,3463.7,3464.9,512.3,479.8,489.3,908.4,684.8,521.0,-16.0,-33.0,40.0,6966.0,-14747.0,1169.0,1036.0,86.0,-87.0,-41.0,7.0,-34.0,12.0,3168.0,-13901.0,-4207.0,6889.0,86.0,81.0,-110.0,1.0
2022-05-08 17:15:23.835927-07:00,740.6,763.7,1086.0,1430.5,423.9,359.2,852.0,784.4,3468.6,3468.6,1234.6,794.4,657.0,3466.1,1216.8,895.7,3443.1,3435.8,405.1,325.1,345.2,353.7,312.0,275.2,3462.5,3456.4,512.3,479.8,488.5,905.0,689.7,521.0,23.0,-13.0,6.0,6988.0,-14739.0,1124.0,1052.0,-15.0,-43.0,-114.0,19.0,-7.0,-34.0,3197.0,-13896.0,-4239.0,6866.0,-43.0,80.0,-89.0,1.0
2022-05-08 17:15:23.838253-07:00,747.2,764.5,1086.0,1430.5,421.5,354.5,852.0,784.4,3469.8,3467.4,1234.6,794.4,653.0,3475.9,1216.8,895.7,3443.1,3435.8,395.7,325.1,345.2,353.7,305.9,266.8,3462.5,3456.4,509.1,479.0,488.5,905.0,684.0,517.9,-2.0,-34.0,39.0,6997.0,-14738.0,1077.0,1046.0,7.0,-40.0,-76.0,9.0,-21.0,0.0,3213.0,-13902.0,-4267.0,6829.0,6.0,70.0,-68.0,1.0
2022-05-08 17:15:23.896219-07:00,747.2,764.5,1087.7,1424.1,421.5,354.5,852.0,786.9,3469.8,3467.4,1232.8,805.2,653.0,3475.9,1216.8,895.7,3450.4,3435.8,395.7,325.1,342.9,353.7,305.9,266.8,3450.4,3460.1,509.1,479.0,486.1,902.5,684.0,517.9,14.0,-20.0,29.0,7027.0,-14725.0,1051.0,1055.0,23.0,-51.0,-18.0,0.0,-15.0,-13.0,3240.0,-13903.0,-4281.0,6806.0,39.0,32.0,-50.0,1.0
2022-05-08 17:15:23.957045-07:00,739.7,762.9,1087.7,1424.1,421.5,355.3,852.0,786.9,3464.9,3463.7,1232.8,805.2,654.6,3467.4,1216.8,895.7,3450.4,3435.8,402.0,328.2,342.9,353.7,309.0,268.3,3450.4,3460.1,507.5,477.4,486.1,902.5,681.5,518.7,-9.0,-10.0,34.0,7045.0,-14718.0,1040.0,1049.0,2.0,16.0,-16.0,9.0,-11.0,10.0,3255.0,-13909.0,-4286.0,6783.0,14.0,96.0,-18.0,1.0
2022-05-08 17:15:24.016196-07:00,739.7,762.9,1081.6,1421.3,421.5,355.3,848.6,789.4,3464.9,3463.7,1231.9,796.9,654.6,3467.4,1216.8,897.4,3443.1,3440.7,402.0,328.2,342.1,356.8,309.0,268.3,3473.4,3452.8,507.5,477.4,490.1,905.9,681.5,518.7,2.0,-11.0,31.0,7066.0,-14707.0,1037.0,1067.0,26.0,-65.0,25.0,16.0,-14.0,3.0,3285.0,-13922.0,-4276.0,6749.0,102.0,87.0,-23.0,1.0
2022-05-08 17:15:24.046602-07:00,730.7,765.3,1081.6,1421.3,423.1,354.5,848.6,789.4,3478.3,3478.3,1231.9,796.9,657.9,3472.2,1216.8,897.4,3443.1,3440.7,412.9,323.6,342.1,356.8,305.9,268.3,3473.4,3452.8,509.1,483.7,490.1,905.9,678.2,518.7,12.0,4.0,20.0,7075.0,-14702.0,1035.0,1078.0,-2.0,34.0,-38.0,30.0,0.0,-18.0,3321.0,-13923.0,-4272.0,6731.0,-6.0,132.0,-24.0,1.0
2022-05-08 17:15:24.106995-07:00,730.7,765.3,1081.6,1415.8,423.1,354.5,852.0,797.7,3478.3,3478.3,1232.8,801.9,657.9,3472.2,1210.6,893.2,3437.0,3447.9,412.9,323.6,342.1,354.5,305.9,268.3,3457.6,3468.6,509.1,483.7,491.7,905.0,678.2,518.7,12.0,14.0,19.0,7089.0,-14695.0,1033.0,1078.0,79.0,-64.0,21.0,7.0,3.0,7.0,3357.0,-13936.0,-4268.0,6689.0,119.0,58.0,-63.0,1.0
2022-05-08 17:15:24.135952-07:00,739.7,765.3,1079.9,1415.8,420.8,350.6,852.0,797.7,3467.4,3467.4,1225.7,801.9,658.7,3473.4,1210.6,893.2,3437.0,3447.9,402.0,326.7,342.1,357.6,307.4,268.3,3457.6,3468.6,509.9,477.4,491.7,903.4,679.9,514.7,17.0,10.0,21.0,7111.0,-14686.0,1015.0,1080.0,11.0,6.0,-77.0,21.0,8.0,-16.0,3408.0,-13932.0,-4277.0,6665.0,3.0,109.0,-81.0,1.0
2022-05-08 17:15:24.256308-07:00,739.7,765.3,1079.9,1416.7,420.8,348.3,856.2,795.2,3467.4,3467.4,1225.7,796.9,658.7,3467.4,1207.1,888.2,3450.4,3441.9,398.1,326.7,342.9,357.6,307.4,268.3,3462.5,3463.7,505.9,477.4,489.3,903.4,679.9,514.7,-6.0,-3.0,26.0,7122.0,-14683.0,989.0,1073.0,40.0,-50.0,-35.0,10.0,-10.0,15.0,3444.0,-13944.0,-4295.0,6611.0,69.0,96.0,-93.0,1.0
2022-05-08 17:15:24.259102-07:00,744.7,763.7,1080.8,1416.7,423.9,348.3,856.2,795.2,3467.4,3463.7,1220.4,796.9,654.6,3467.4,1207.1,888.2,3450.4,3441.9,398.1,329.0,342.9,353.0,305.1,268.3,3462.5,3463.7,505.9,473.5,489.3,902.5,682.3,517.9,1.0,-5.0,15.0,7144.0,-14673.0,957.0,1084.0,18.0,-44.0,-83.0,15.0,-3.0,-11.0,3492.0,-13943.0,-4313.0,6575.0,16.0,115.0,-101.0,1.0
2022-05-08 17:15:24.286891-07:00,744.7,763.7,1080.8,1411.3,423.9,351.4,852.8,791.0,3467.4,3463.7,1220.4,796.0,654.6,3467.4,1206.2,894.1,3461.3,3440.7,399.6,329.0,343.7,353.0,305.1,268.3,3462.5,3462.5,507.5,473.5,479.8,902.5,682.3,517.9,2.0,-6.0,26.0,7164.0,-14666.0,919.0,1082.0,53.0,-35.0,-66.0,12.0,-13.0,-1.0,3530.0,-13951.0,-4336.0,6522.0,42.0,123.0,-103.0,1.0
2022-05-08 17:15:24.376382-07:00,738.1,772.0,1076.4,1411.3,416.8,351.4,852.8,791.0,3467.4,3456.4,1220.4,796.0,658.7,3467.4,1206.2,894.1,3461.3,3440.7,399.6,326.7,343.7,353.0,299.0,271.4,3462.5,3462.5,507.5,473.5,479.8,902.5,672.5,517.1,1.0,-9.0,23.0,7189.0,-14657.0,888.0,1069.0,38.0,3.0,-82.0,23.0,0.0,13.0,3577.0,-13954.0,-4360.0,6474.0,22.0,148.0,-103.0,1.0
2022-05-08 17:15:24.406716-07:00,738.1,772.0,1076.4,1411.3,416.8,355.3,846.1,788.6,3467.4,3456.4,1220.4,791.0,658.7,3467.4,1206.2,894.9,3451.6,3437.0,402.0,326.7,342.9,353.0,299.0,271.4,3461.3,3451.6,513.1,473.5,486.9,902.5,672.5,517.1,9.0,1.0,17.0,7218.0,-14644.0,863.0,1071.0,43.0,-50.0,-45.0,20.0,-9.0,-17.0,3639.0,-13961.0,-4376.0,6414.0,66.0,110.0,-116.0,1.0
2022-05-08 17:15:24.436296-07:00,737.3,757.9,1075.6,1409.4,421.5,355.3,846.1,788.6,3464.9,3464.9,1209.7,797.7,650.5,3467.4,1206.2,894.9,3451.6,3437.0,402.0,327.5,349.1,354.5,302.8,270.6,3461.3,3451.6,513.1,477.4,483.7,898.3,679.1,517.1,-24.0,-5.0,38.0,7237.0,-14636.0,827.0,1077.0,62.0,-91.0,-63.0,24.0,-8.0,57.0,3694.0,-13975.0,-4394.0,6339.0,63.0,217.0,-109.0,1.0
2022-05-08 17:15:24.496320-07:00,737.3,757.9,1075.6,1409.4,419.2,353.7,849.5,789.4,3464.9,3464.9,1209.7,797.7,650.5,3461.3,1207.1,892.4,3443.1,3446.7,396.5,327.5,349.1,354.5,302.8,270.6,3463.7,3468.6,504.4,477.4,483.7,898.3,679.1,517.1,30.0,75.0,69.0,7295.0,-14605.0,770.0,1150.0,158.0,-259.0,-57.0,40.0,53.0,-5.0,3803.0,-13980.0,-4401.0,6258.0,154.0,201.0,-187.0,1.0
2022-05-08 17:15:24.555965-07:00,742.2,761.2,1090.3,1404.9,419.2,353.7,849.5,789.4,3464.9,3467.4,1216.0,796.0,650.5,3461.3,1207.1,892.4,3443.1,3446.7,396.5,327.5,349.9,354.5,305.9,276.0,3463.7,3468.6,504.4,477.4,486.9,905.0,683.1,514.7,-13.0,70.0,94.0,7327.0,-14587.0,693.0,1225.0,42.0,-320.0,-95.0,55.0,9.0,96.0,3933.0,-14001.0,-4426.0,6111.0,130.0,510.0,-259.0,1.0
2022-05-08 17:15:24.586341-07:00,742.2,761.2,1090.3,1404.9,421.5,354.5,844.4,798.5,3464.9,3467.4,1216.0,796.0,657.0,3474.6,1208.0,899.1,3439.5,3449.1,397.3,325.9,349.9,354.5,305.9,276.0,3462.5,3458.9,505.1,475.8,486.9,905.0,683.1,514.7,15.0,64.0,46.0,7370.0,-14563.0,573.0,1312.0,78.0,-234.0,-203.0,55.0,62.0,14.0,4108.0,-14014.0,-4477.0,5928.0,162.0,470.0,-400.0,1.0
2022-05-08 17:15:24.646780-07:00,746.3,758.7,1083.4,1411.3,421.5,354.5,844.4,798.5,3464.9,3461.3,1214.2,800.2,657.0,3474.6,1208.0,899.1,3439.5,3449.1,397.3,325.9,346.0,354.5,306.7,266.0,3462.5,3458.9,505.1,475.8,478.2,895.7,676.6,514.7,6.0,33.0,49.0,7418.0,-14539.0,420.0,1363.0,150.0,-329.0,-345.0,20.0,-30.0,47.0,4304.0,-14045.0,-4522.0,5673.0,208.0,621.0,-420.0,1.0
2022-05-08 17:15:24.706314-07:00,746.3,758.7,1083.4,1411.3,416.8,356.8,847.0,791.9,3464.9,3461.3,1214.2,800.2,651.4,3473.4,1206.2,899.1,3444.3,3440.7,402.0,330.5,346.0,354.5,306.7,266.0,3464.9,3461.3,496.4,479.0,478.2,895.7,676.6,514.7,41.0,7.0,-27.0,7514.0,-14492.0,255.0,1377.0,215.0,-121.0,-366.0,8.0,-1.0,-84.0,4536.0,-14034.0,-4595.0,5458.0,215.0,552.0,-467.0,1.0
2022-05-08 17:15:24.826660-07:00,738.9,757.9,1078.2,1410.3,416.8,356.8,847.0,791.9,3463.7,3471.0,1208.0,795.2,651.4,3473.4,1206.2,899.1,3444.3,3440.7,402.0,330.5,341.4,360.7,305.9,269.1,3464.9,3461.3,496.4,479.0,483.0,906.7,679.9,511.5,-16.0,-83.0,-93.0,7597.0,-14457.0,83.0,1314.0,231.0,-48.0,-414.0,-62.0,-43.0,-80.0,4731.0,-14034.0,-4688.0,5208.0,140.0,333.0,-536.0,1.0
2022-05-08 17:15:24.827783-07:00,738.9,757.9,1078.2,1410.3,422.3,356.1,851.1,787.7,3468.6,3471.0,1208.0,795.2,652.2,3458.9,1200.9,895.7,3449.1,3449.1,398.9,323.6,341.4,360.7,305.9,266.8,3460.1,3455.2,509.1,474.3,483.0,906.7,679.9,514.7,-38.0,-208.0,-93.0,7750.0,-14382.0,-48.0,1243.0,542.0,-56.0,-332.0,-58.0,-111.0,-53.0,4938.0,-14001.0,-4768.0,5030.0,399.0,402.0,-397.0,1.0
2022-05-08 17:15:24.858189-07:00,738.9,762.0,1102.5,1401.2,422.3,356.1,851.1,796.0,3468.6,3467.4,1208.0,801.9,652.2,3458.9,1200.9,894.1,3440.7,3449.1,398.9,323.6,346.0,363.1,304.3,266.8,3455.2,3455.2,509.1,474.3,479.8,901.7,678.2,514.7,24.0,72.0,-10.0,8000.0,-14244.0,-147.0,1236.0,539.0,-83.0,-226.0,11.0,53.0,-77.0,5186.0,-13942.0,-4805.0,4905.0,267.0,243.0,-390.0,1.0
2022-05-08 17:15:24.886950-07:00,740.6,762.0,1102.5,1401.2,416.8,353.7,855.3,796.0,3469.8,3467.4,1208.0,801.9,656.2,3457.6,1208.9,894.1,3440.7,3449.1,399.6,331.3,346.0,363.1,304.3,268.3,3455.2,3458.9,507.5,476.6,479.8,901.7,678.2,519.5,35.0,-19.0,29.0,8104.0,-14189.0,-250.0,1174.0,96.0,75.0,-326.0,46.0,37.0,-43.0,5312.0,-13918.0,-4892.0,4752.0,60.0,226.0,-371.0,1.0
2022-05-08 17:15:25.036337-07:00,740.6,760.4,1080.8,1401.2,416.8,353.7,855.3,806.0,3469.8,3474.6,1195.6,802.7,656.2,3457.6,1208.9,897.4,3446.7,3449.1,399.6,331.3,343.7,361.5,301.3,268.3,3461.3,3458.9,507.5,476.6,490.9,905.0,680.7,519.5,-35.0,-92.0,-47.0,8245.0,-14113.0,-279.0,1096.0,560.0,104.0,-65.0,7.0,-60.0,-86.0,5492.0,-13870.0,-4914.0,4665.0,478.0,225.0,-182.0,1.0
2022-05-08 17:15:25.037433-07:00,751.3,760.4,1080.8,1401.2,416.1,354.5,857.0,806.0,3467.4,3474.6,1195.6,802.7,654.6,3469.8,1212.4,897.4,3446.7,3439.5,402.8,329.0,343.7,361.5,301.3,269.1,3461.3,3462.5,505.1,480.6,490.9,905.0,680.7,517.1,-8.0,100.0,33.0,8506.0,-13956.0,-266.0,1112.0,645.0,-60.0,-48.0,-3.0,21.0,-2.0,5753.0,-13817.0,-4839.0,4583.0,485.0,378.0,-162.0,1.0
2022-05-08 17:15:25.039557-07:00,751.3,755.4,1095.6,1396.7,416.1,354.5,857.0,790.2,3467.4,3468.6,1192.0,804.4,654.6,3469.8,1212.4,900.0,3446.7,3439.5,402.8,329.0,341.4,365.4,308.2,269.1,3461.3,3462.5,505.1,480.6,485.3,900.0,680.7,517.1,-59.0,-98.0,-31.0,8476.0,-13976.0,-347.0,1075.0,-286.0,-44.0,-232.0,-12.0,24.0,66.0,5813.0,-13840.0,-4878.0,4393.0,-206.0,544.0,-97.0,1.0
2022-05-08 17:15:25.246338-07:00,736.5,761.2,1095.6,1396.7,413.7,355.3,860.4,790.2,3461.3,3469.8,1192.0,804.4,653.0,3457.6,1222.2,900.0,3446.7,3439.5,401.2,325.1,341.4,365.4,305.1,266.8,3461.3,3457.6,504.4,480.6,485.3,900.0,681.5,515.5,-49.0,-18.0,59.0,8547.0,-13928.0,-422.0,1099.0,399.0,-191.0,-164.0,46.0,-89.0,66.0,5960.0,-13873.0,-4752.0,4226.0,314.0,1062.0,246.0,1.0
2022-05-08 17:15:25.247500-07:00,736.5,761.2,1092.9,1396.7,413.7,355.3,875.5,791.0,3461.3,3469.8,1191.2,809.4,653.0,3457.6,1216.8,911.0,3434.6,3444.3,401.2,325.1,343.7,364.6,305.1,266.8,3454.0,3456.4,504.4,480.6,488.5,898.3,681.5,515.5,-47.0,-27.0,-64.0,8865.0,-13726.0,-480.0,1106.0,1453.0,231.0,-20.0,-40.0,-25.0,-8.0,6135.0,-13959.0,-4494.0,3969.0,361.0,579.0,242.0,1.0
2022-05-08 17:15:25.248300-07:00,738.9,755.4,1092.9,1396.7,421.5,356.8,875.5,791.0,3457.6,3468.6,1191.2,809.4,670.1,3464.9,1216.8,911.0,3434.6,3444.3,398.1,330.5,343.7,364.6,309.7,269.9,3454.0,3456.4,512.3,467.1,488.5,898.3,711.8,517.9,-37.0,155.0,-167.0,9409.0,-13355.0,-460.0,1155.0,1744.0,-408.0,-54.0,63.0,156.0,48.0,6418.0,-13889.0,-4317.0,3964.0,1214.0,80.0,-151.0,1.0
2022-05-08 17:15:25.249506-07:00,738.9,755.4,1093.8,1397.6,421.5,356.8,916.0,846.1,3457.6,3468.6,1211.5,816.0,670.1,3464.9,1235.5,909.3,3449.1,3435.8,398.1,330.5,341.4,362.3,309.7,269.9,3455.2,3468.6,512.3,467.1,491.7,906.7,711.8,517.9,101.0,49.0,16.0,9883.0,-12986.0,-702.0,1275.0,1282.0,-349.0,-482.0,57.0,113.0,-81.0,6701.0,-13769.0,-4210.0,4028.0,1174.0,-184.0,-37.0,1.0
2022-05-08 17:15:25.336354-07:00,744.7,764.5,1093.8,1397.6,415.3,355.3,916.0,846.1,3464.9,3468.6,1211.5,816.0,666.0,3467.4,1235.5,909.3,3449.1,3435.8,397.3,329.8,341.4,362.3,315.1,265.3,3455.2,3468.6,505.1,490.1,491.7,906.7,752.1,641.6,14.0,-47.0,3.0,10368.0,-12611.0,-751.0,1159.0,1666.0,307.0,-358.0,20.0,-45.0,-9.0,6999.0,-13613.0,-4091.0,4173.0,984.0,21.0,244.0,1.0
2022-05-08 17:15:25.339771-07:00,744.7,764.5,1087.7,1389.4,415.3,355.3,918.6,857.9,3464.9,3468.6,1430.5,817.7,666.0,3467.4,1309.7,904.2,3444.3,3438.2,397.3,329.8,340.6,366.2,315.1,265.3,3457.6,3452.8,505.1,490.1,490.9,891.5,752.1,641.6,-32.0,18.0,-23.0,10938.0,-12132.0,-752.0,1022.0,1398.0,181.0,-304.0,10.0,55.0,-33.0,7466.0,-13341.0,-3893.0,4423.0,1051.0,-24.0,343.0,1.0
2022-05-08 17:15:25.396847-07:00,747.2,766.2,1087.7,1389.4,422.3,369.3,918.6,857.9,3466.1,3454.0,1430.5,817.7,677.4,3469.8,1309.7,904.2,3444.3,3438.2,402.0,329.0,340.6,366.2,312.0,269.1,3457.6,3452.8,509.1,502.8,490.9,891.5,766.2,646.5,44.0,-74.0,48.0,11389.0,-11714.0,-796.0,924.0,1611.0,178.0,-453.0,-15.0,-98.0,-41.0,7807.0,-13136.0,-3655.0,4643.0,2100.0,-575.0,235.0,1.0
2022-05-08 17:15:25.485960-07:00,747.2,766.2,1077.3,1390.3,422.3,381.7,920.3,852.0,3466.1,3454.0,1683.3,822.7,677.4,3461.3,1364.8,912.7,3438.2,3435.8,398.1,329.0,339.0,360.7,312.0,269.1,3457.6,3454.0,507.5,502.8,488.5,905.9,766.2,646.5,-113.0,26.0,-208.0,11914.0,-11195.0,-745.0,771.0,931.0,421.0,-82.0,-43.0,50.0,-72.0,8345.0,-12744.0,-3393.0,4989.0,455.0,143.0,445.0,1.0
2022-05-08 17:15:25.487206-07:00,737.3,759.6,1092.1,1390.3,420.8,381.7,920.3,852.0,3473.4,3468.6,1853.7,822.7,683.1,3461.3,1364.8,912.7,3438.2,3435.8,398.1,323.6,339.0,366.2,304.3,272.1,3457.6,3454.0,507.5,512.3,488.5,907.6,784.4,653.0,-36.0,-76.0,-91.0,12046.0,-11060.0,-694.0,716.0,287.0,106.0,-107.0,15.0,-55.0,-84.0,8436.0,-12690.0,-3198.0,5101.0,464.0,-98.0,347.0,1.0
2022-05-08 17:15:25.546344-07:00,737.3,759.6,1092.1,1390.3,420.8,376.3,904.2,837.7,3473.4,3468.6,1853.7,832.7,683.1,3463.7,1429.5,911.0,3445.5,3441.9,399.6,323.6,342.9,366.2,304.3,272.1,3460.1,3457.6,512.3,512.3,490.1,907.6,784.4,653.0,29.0,-5.0,55.0,12199.0,-10905.0,-587.0,594.0,635.0,635.0,18.0,-15.0,43.0,4.0,8586.0,-12551.0,-3050.0,5280.0,710.0,-215.0,281.0,1.0
2022-05-08 17:15:25.606104-07:00,734.8,765.3,1101.7,1390.3,433.3,376.3,904.2,837.7,3455.2,3477.1,1968.7,832.7,682.3,3463.7,1429.5,911.0,3445.5,3441.9,399.6,329.0,342.9,360.7,310.5,269.1,3460.1,3457.6,512.3,503.6,490.1,912.7,810.2,635.1,36.0,40.0,74.0,12488.0,-10593.0,-367.0,365.0,1176.0,762.0,-291.0,32.0,-10.0,36.0,8794.0,-12381.0,-2859.0,5444.0,856.0,-43.0,296.0,1.0
2022-05-08 17:15:25.636510-07:00,734.8,765.3,1101.7,1515.3,433.3,385.6,908.4,841.9,3455.2,3477.1,1968.7,839.4,682.3,3457.6,1457.1,914.4,3449.1,3446.7,398.1,329.0,346.0,360.7,310.5,269.1,3467.4,3456.4,512.3,503.6,486.1,912.7,810.2,635.1,-19.0,119.0,55.0,12795.0,-10231.0,-176.0,63.0,693.0,785.0,-193.0,-23.0,71.0,18.0,9049.0,-12208.0,-2651.0,5520.0,596.0,242.0,104.0,1.0
2022-05-08 17:15:25.696274-07:00,739.7,775.3,1122.6,1515.3,448.2,385.6,908.4,841.9,3474.6,3462.5,1958.8,839.4,679.9,3457.6,1457.1,914.4,3449.1,3446.7,398.1,327.5,346.0,361.5,305.9,273.7,3467.4,3456.4,512.3,497.2,486.1,922.8,854.5,618.9,-38.0,-36.0,-21.0,12744.0,-10294.0,-2.0,-237.0,-484.0,702.0,-295.0,6.0,-30.0,30.0,8980.0,-12337.0,-2546.0,5396.0,-554.0,481.0,98.0,1.0
2022-05-08 17:15:25.756448-07:00,739.7,775.3,1122.6,1425.9,432.5,400.4,884.8,831.1,3474.6,3462.5,1958.8,831.9,678.2,3462.5,1502.3,913.5,3438.2,3444.3,399.6,330.5,344.5,361.5,305.9,273.7,3458.9,3458.9,525.0,492.5,492.5,922.8,854.5,618.9,26.0,-40.0,3.0,12662.0,-10381.0,253.0,-529.0,-16.0,1122.0,-108.0,-17.0,9.0,-77.0,8882.0,-12479.0,-2467.0,5266.0,8.0,274.0,82.0,1.0
2022-05-08 17:15:25.786196-07:00,734.0,771.1,1148.0,1404.0,432.5,400.4,884.8,831.1,3460.1,3478.3,1919.3,832.7,678.2,3462.5,1502.3,913.5,3438.2,3444.3,399.6,330.5,344.5,359.2,309.0,269.9,3458.9,3458.9,525.0,492.5,488.5,918.6,857.0,609.2,21.0,0.0,-77.0,12640.0,-10355.0,743.0,-943.0,-157.0,1672.0,59.0,-5.0,-38.0,-53.0,8968.0,-12453.0,-2402.0,5211.0,206.0,103.0,-78.0,1.0
2022-05-08 17:15:25.876764-07:00,734.0,771.1,1148.0,1404.0,426.2,385.6,885.6,844.4,3460.1,3478.3,1919.3,832.7,679.1,3468.6,1487.5,910.1,3444.3,3450.4,399.6,325.9,344.5,359.2,309.0,269.9,3461.3,3462.5,505.1,495.6,488.5,918.6,857.0,609.2,-8.0,-177.0,-42.0,12642.0,-10239.0,1373.0,-1376.0,632.0,1773.0,332.0,-1.0,-11.0,-14.0,9162.0,-12314.0,-2334.0,5234.0,1006.0,-41.0,36.0,1.0
2022-05-08 17:15:25.878196-07:00,741.4,775.3,1150.6,1383.9,426.2,385.6,885.6,844.4,3466.1,3464.9,1890.9,828.5,679.1,3468.6,1487.5,910.1,3444.3,3450.4,399.6,325.9,342.1,360.0,305.1,269.1,3461.3,3462.5,505.1,495.6,485.3,916.0,838.6,603.6,-11.0,17.0,-46.0,12710.0,-10018.0,1995.0,-1596.0,-49.0,1293.0,547.0,0.0,-35.0,-22.0,9387.0,-12110.0,-2243.0,5350.0,557.0,-207.0,79.0,1.0
2022-05-08 17:15:26.146989-07:00,741.4,775.3,1150.6,1383.9,423.1,381.7,885.6,841.1,3466.1,3464.9,1890.9,828.5,676.6,3461.3,1458.9,911.0,3433.4,3440.7,398.9,325.1,342.1,360.0,305.1,269.1,3455.2,3468.6,525.8,495.6,485.3,916.0,838.6,603.6,60.0,65.0,-45.0,12604.0,-10008.0,2506.0,-1773.0,-271.0,1245.0,329.0,9.0,11.0,14.0,9507.0,-11964.0,-2235.0,5470.0,435.0,-359.0,-46.0,1.0
2022-05-08 17:15:26.147948-07:00,748.8,788.6,1045.2,1352.1,423.1,381.7,885.6,841.1,3471.0,3463.7,1847.9,829.4,676.6,3461.3,1458.9,911.0,3433.4,3440.7,398.9,325.1,341.4,362.3,309.0,269.9,3455.2,3468.6,525.8,495.6,490.1,909.3,813.5,598.7,-49.0,52.0,-35.0,12475.0,-10007.0,2962.0,-1976.0,-162.0,928.0,185.0,11.0,35.0,20.0,9593.0,-11866.0,-2254.0,5526.0,114.0,-85.0,-56.0,1.0
2022-05-08 17:15:26.176250-07:00,750.5,788.6,1045.2,1352.1,434.9,378.6,881.4,841.9,3469.8,3463.7,1847.9,829.4,669.3,3466.1,1442.4,902.5,3440.7,3449.1,403.5,328.2,341.4,362.3,309.0,269.1,3458.9,3456.4,526.6,495.6,490.1,909.3,813.5,590.7,-27.0,4.0,17.0,12250.0,-10130.0,3323.0,-2173.0,-810.0,1131.0,-47.0,-6.0,-1.0,0.0,9554.0,-11887.0,-2365.0,5501.0,-320.0,-18.0,-218.0,1.0
2022-05-08 17:15:26.177384-07:00,750.5,801.9,985.0,1328.7,434.9,378.6,881.4,840.3,3469.8,3467.4,1802.3,822.7,669.3,3466.1,1442.4,907.6,3443.1,3449.1,403.5,328.2,340.6,367.7,309.0,269.1,3463.7,3456.4,526.6,495.6,488.5,897.4,777.8,590.7,-42.0,-41.0,-27.0,11949.0,-10325.0,3669.0,-2367.0,-698.0,787.0,-12.0,-23.0,-36.0,28.0,9423.0,-12034.0,-2422.0,5383.0,-509.0,347.0,7.0,1.0
2022-05-08 17:15:26.716444-07:00,758.7,801.9,985.0,1328.7,435.7,370.0,892.4,840.3,3461.3,3467.4,1802.3,822.7,665.2,3466.1,1402.1,907.6,3443.1,3445.5,401.2,326.7,340.6,367.7,309.0,269.9,3463.7,3468.6,534.6,489.3,488.5,897.4,777.8,587.5,38.0,-15.0,-70.0,11738.0,-10469.0,3883.0,-2442.0,-621.0,430.0,102.0,6.0,12.0,-38.0,9254.0,-12229.0,-2387.0,5249.0,-551.0,261.0,87.0,1.0
2022-05-08 17:15:26.837184-07:00,758.7,796.9,949.2,1317.8,421.5,377.0,878.0,837.7,3457.6,3467.4,1698.6,816.0,663.6,3473.4,1359.4,900.0,3454.0,3451.6,399.6,330.5,344.5,362.3,304.3,270.6,3460.1,3463.7,529.8,485.3,488.5,895.7,756.3,589.1,62.0,-18.0,-14.0,11707.0,-10529.0,3974.0,-2173.0,202.0,-549.0,317.0,9.0,-6.0,-45.0,9234.0,-12236.0,-2348.0,5285.0,297.0,-174.0,27.0,1.0
2022-05-08 17:15:26.838365-07:00,758.7,795.2,927.1,1303.4,421.5,377.0,878.0,832.7,3457.6,3468.6,1596.4,812.7,663.6,3473.4,1359.4,891.5,3437.0,3451.6,399.6,330.5,347.6,366.2,302.8,270.6,3455.2,3463.7,529.8,485.3,494.8,894.1,739.7,589.1,-34.0,-16.0,9.0,11860.0,-10439.0,3884.0,-1933.0,319.0,-677.0,384.0,35.0,-31.0,46.0,9309.0,-12147.0,-2327.0,5368.0,244.0,-68.0,99.0,1.0
2022-05-08 17:15:26.839730-07:00,753.8,795.2,927.1,1303.4,418.4,366.9,877.2,832.7,3466.1,3468.6,1596.4,812.7,660.3,3466.1,1328.7,891.5,3437.0,3451.6,400.4,328.2,347.6,366.2,302.8,267.6,3455.2,3460.1,529.8,486.9,494.8,894.1,739.7,585.9,79.0,24.0,44.0,12049.0,-10331.0,3723.0,-1635.0,331.0,-685.0,332.0,26.0,16.0,-24.0,9366.0,-12079.0,-2290.0,5437.0,256.0,-170.0,65.0,1.0
2022-05-08 17:15:26.987030-07:00,753.8,796.9,916.0,1292.7,418.4,366.9,878.9,831.9,3466.1,3462.5,1559.0,800.2,660.3,3466.1,1308.8,899.1,3447.9,3443.1,400.4,328.2,349.1,360.7,303.6,267.6,3458.9,3461.3,529.8,486.9,485.3,896.6,731.5,585.9,-24.0,10.0,42.0,12173.0,-10250.0,3620.0,-1449.0,194.0,-495.0,175.0,16.0,-13.0,29.0,9406.0,-12028.0,-2269.0,5490.0,112.0,34.0,119.0,1.0
2022-05-08 17:15:26.987708-07:00,753.8,796.9,916.0,1292.7,418.4,366.9,878.9,831.9,3466.1,3462.5,1559.0,800.2,660.3,3466.1,1308.8,899.1,3447.9,3443.1,400.4,328.2,349.1,360.7,303.6,267.6,3458.9,3461.3,529.8,486.9,485.3,896.6,731.5,585.9,-24.0,10.0,42.0,12173.0,-10250.0,3620.0,-1449.0,194.0,-495.0,175.0,16.0,-13.0,29.0,9406.0,-12028.0,-2269.0,5490.0,112.0,34.0,119.0,1.0
2022-05-08 17:15:26.988322-07:00,753.8,796.9,916.0,1292.7,418.4,366.9,878.9,831.9,3466.1,3462.5,1559.0,800.2,660.3,3466.1,1308.8,899.1,3447.9,3443.1,400.4,328.2,349.1,360.7,303.6,267.6,3458.9,3461.3,529.8,486.9,485.3,896.6,731.5,585.9,-24.0,10.0,42.0,12173.0,-10250.0,3620.0,-1449.0,194.0,-495.0,175.0,16.0,-13.0,29.0,9406.0,-12028.0,-2269.0,5490.0,112.0,34.0,119.0,1.0
2022-05-08 17:15:26.989923-07:00,751.3,794.4,917.7,1273.0,416.8,363.1,864.6,819.4,3464.9,3471.0,1493.0,796.0,654.6,3461.3,1281.9,892.4,3441.9,3434.6,400.4,327.5,344.5,360.7,299.0,266.0,3450.4,3456.4,519.5,476.6,481.4,891.5,732.3,573.0,-1.0,-13.0,-11.0,12706.0,-9926.0,2710.0,-1065.0,293.0,-266.0,-16.0,4.0,-18.0,-5.0,9264.0,-12302.0,-1858.0,5276.0,152.0,19.0,63.0,1.0
2022-05-08 17:15:26.990864-07:00,752.9,796.9,912.7,1273.0,417.6,363.1,864.6,819.4,3464.9,3452.8,1480.1,796.0,655.4,3461.3,1281.9,892.4,3441.9,3434.6,400.4,329.0,344.5,359.2,302.8,269.1,3450.4,3456.4,519.5,471.1,481.4,891.5,729.9,573.8,20.0,-7.0,-7.0,12807.0,-9831.0,2591.0,-1029.0,436.0,-261.0,-101.0,-3.0,0.0,-21.0,9323.0,-12253.0,-1808.0,5303.0,363.0,-70.0,56.0,1.0
2022-05-08 17:15:27.136451-07:00,752.9,796.9,912.7,1271.2,417.6,356.8,869.6,821.9,3464.9,3452.8,1480.1,800.2,655.4,3471.0,1306.1,897.4,3443.1,3441.9,395.0,329.0,342.9,359.2,302.8,269.1,3466.1,3457.6,516.3,471.1,479.8,891.5,729.9,573.8,-20.0,-68.0,15.0,12931.0,-9691.0,2496.0,-1035.0,452.0,-148.0,-2.0,9.0,-72.0,28.0,9417.0,-12165.0,-1766.0,5353.0,308.0,-65.0,72.0,1.0
2022-05-08 17:15:27.137647-07:00,752.1,805.2,909.3,1268.5,419.2,356.8,869.6,821.9,3462.5,3468.6,1555.3,805.2,653.0,3471.0,1306.1,897.4,3443.1,3441.9,395.0,325.9,343.7,358.4,300.5,274.4,3466.1,3457.6,516.3,475.0,488.5,899.1,762.0,575.4,18.0,-37.0,-3.0,13116.0,-9470.0,2398.0,-993.0,949.0,-336.0,135.0,5.0,26.0,-34.0,9617.0,-11967.0,-1668.0,5474.0,922.0,-264.0,147.0,1.0
2022-05-08 17:15:27.138581-07:00,752.1,805.2,909.3,1268.5,416.8,368.5,867.9,818.5,3462.5,3468.6,1555.3,805.2,655.4,3463.7,1491.2,912.7,3438.2,3451.6,402.0,327.5,343.7,358.4,300.5,274.4,3455.2,3457.6,529.0,479.0,488.5,899.1,762.0,575.4,1.0,42.0,-23.0,13330.0,-9184.0,2344.0,-943.0,484.0,-74.0,89.0,6.0,13.0,2.0,9793.0,-11775.0,-1594.0,5599.0,382.0,-136.0,91.0,1.0
2022-05-08 17:15:27.285626-07:00,751.3,805.2,905.0,1265.8,416.8,368.5,867.9,818.5,3468.6,3462.5,1608.7,806.0,655.4,3463.7,1491.2,912.7,3438.2,3451.6,402.0,327.5,342.9,362.3,301.3,269.1,3455.2,3457.6,529.0,479.0,483.7,909.3,798.5,573.0,3.0,-24.0,6.0,13422.0,-9068.0,2284.0,-923.0,338.0,-237.0,-75.0,3.0,-21.0,1.0,9858.0,-11699.0,-1563.0,5653.0,245.0,-88.0,43.0,1.0
2022-05-08 17:15:27.286638-07:00,751.3,805.2,905.0,1265.8,416.8,373.2,867.9,813.5,3468.6,3462.5,1608.7,806.0,651.4,3457.6,1559.0,918.6,3433.4,3439.5,398.9,323.6,342.9,362.3,301.3,269.1,3463.7,3460.1,521.8,477.4,483.7,909.3,798.5,573.0,11.0,-44.0,6.0,13542.0,-8915.0,2178.0,-910.0,496.0,-229.0,35.0,-6.0,-51.0,14.0,9959.0,-11588.0,-1523.0,5715.0,445.0,-141.0,62.0,1.0
2022-05-08 17:15:27.288084-07:00,748.8,809.4,907.6,1265.8,416.8,373.2,867.9,813.5,3469.8,3457.6,1617.1,808.5,651.4,3457.6,1559.0,918.6,3433.4,3439.5,398.9,323.6,349.1,363.8,301.3,268.3,3463.7,3460.1,521.8,477.4,483.0,909.3,794.4,570.6,8.0,-70.0,35.0,13675.0,-8732.0,2108.0,-859.0,527.0,-196.0,179.0,10.0,-36.0,5.0,10101.0,-11420.0,-1451.0,5822.0,570.0,-162.0,172.0,1.0
2022-05-08 17:15:27.289689-07:00,748.8,809.4,907.6,1265.8,424.7,360.7,867.9,809.4,3469.8,3457.6,1617.1,808.5,656.2,3471.0,1627.5,929.6,3443.1,3454.0,400.4,320.5,349.1,363.8,301.3,268.3,3462.5,3458.9,518.7,479.8,483.0,909.3,794.4,570.6,1.0,15.0,-17.0,13812.0,-8528.0,2081.0,-784.0,643.0,-148.0,176.0,6.0,0.0,6.0,10254.0,-11223.0,-1357.0,5958.0,687.0,-228.0,149.0,1.0
2022-05-08 17:15:27.346140-07:00,754.6,806.9,891.5,1262.2,424.7,360.7,867.9,808.5,3468.6,3457.6,1661.5,811.0,656.2,3471.0,1627.5,944.9,3445.5,3454.0,400.4,320.5,342.1,361.5,305.1,269.1,3456.4,3458.9,518.7,479.8,482.2,903.4,813.5,569.8,-20.0,11.0,-33.0,13970.0,-8288.0,2010.0,-727.0,678.0,-466.0,-15.0,24.0,-35.0,23.0,10434.0,-11003.0,-1274.0,6072.0,716.0,-165.0,53.0,1.0
2022-05-08 17:15:27.376726-07:00,758.7,806.9,891.5,1262.2,417.6,364.6,863.7,808.5,3468.6,3457.6,1661.5,811.0,651.4,3472.2,1694.8,944.9,3445.5,3443.1,400.4,322.1,342.1,361.5,305.1,269.1,3456.4,3458.9,513.1,483.7,482.2,903.4,813.5,567.4,-19.0,-81.0,-17.0,14152.0,-8041.0,1761.0,-639.0,849.0,-898.0,-72.0,15.0,-132.0,34.0,10633.0,-10765.0,-1174.0,6173.0,782.0,-95.0,86.0,1.0
2022-05-08 17:15:27.436638-07:00,758.7,796.0,885.6,1253.3,417.6,364.6,863.7,808.5,3468.6,3460.1,1634.1,805.2,651.4,3472.2,1694.8,945.8,3440.7,3443.1,400.4,322.1,342.9,367.7,309.7,269.1,3455.2,3458.9,513.1,483.7,483.0,902.5,815.2,567.4,-15.0,-22.0,-26.0,14361.0,-7769.0,1279.0,-465.0,780.0,-1617.0,-296.0,-4.0,-120.0,18.0,10848.0,-10473.0,-1071.0,6319.0,787.0,-255.0,147.0,1.0
2022-05-08 17:15:27.496326-07:00,748.8,796.0,885.6,1253.3,417.6,366.9,865.4,808.5,3460.1,3460.1,1634.1,805.2,653.8,3457.6,1799.4,945.8,3440.7,3449.1,403.5,327.5,342.9,367.7,309.7,268.3,3455.2,3457.6,509.9,499.6,483.0,902.5,815.2,562.6,13.0,-4.0,-10.0,14537.0,-7527.0,549.0,-384.0,706.0,-1299.0,-738.0,38.0,-3.0,15.0,11015.0,-10181.0,-1077.0,6503.0,655.0,-531.0,-43.0,1.0
2022-05-08 17:15:27.526843-07:00,748.8,797.7,956.8,1273.9,417.6,366.9,865.4,810.2,3460.1,3473.4,1732.0,822.7,653.8,3457.6,1799.4,985.9,3435.8,3449.1,403.5,327.5,348.3,370.8,312.8,268.3,3462.5,3457.6,509.9,499.6,486.1,961.1,878.0,562.6,-5.0,36.0,-63.0,14661.0,-7301.0,-118.0,-406.0,505.0,-1614.0,-1023.0,-67.0,-94.0,6.0,11143.0,-9955.0,-1081.0,6633.0,532.0,-396.0,20.0,1.0
2022-05-08 17:15:27.586462-07:00,747.2,797.7,956.8,1273.9,414.5,387.9,867.9,810.2,3468.6,3473.4,1732.0,822.7,655.4,3471.0,1975.6,985.9,3435.8,3449.1,403.5,333.6,348.3,370.8,312.8,268.3,3462.5,3458.9,522.6,518.7,486.1,961.1,878.0,561.0,63.0,-44.0,27.0,14671.0,-7208.0,-989.0,-510.0,-136.0,-1174.0,-884.0,25.0,110.0,-144.0,11241.0,-9768.0,-1249.0,6715.0,132.0,-563.0,-163.0,1.0
2022-05-08 17:15:27.646355-07:00,747.2,786.9,1025.4,1264.0,414.5,387.9,867.9,801.0,3468.6,3471.0,1827.5,828.5,655.4,3471.0,1975.6,1023.7,3449.1,3449.1,403.5,333.6,346.8,374.7,318.2,268.3,3462.5,3458.9,522.6,518.7,483.7,1028.8,939.0,561.0,31.0,9.0,-60.0,14540.0,-7376.0,-1466.0,-692.0,-875.0,-968.0,-1170.0,-66.0,-120.0,77.0,11150.0,-9836.0,-1297.0,6759.0,-746.0,-30.0,65.0,1.0
2022-05-08 17:15:27.706581-07:00,745.5,781.9,1025.4,1264.0,417.6,413.7,883.9,801.0,3461.3,3468.6,1827.5,828.5,657.9,3462.5,1964.7,1023.7,3449.1,3439.5,397.3,339.8,346.8,374.7,311.3,276.0,3462.5,3454.0,550.6,535.4,483.7,1028.8,950.9,565.8,-37.0,-104.0,8.0,14258.0,-7697.0,-2220.0,-988.0,-743.0,-1508.0,-1137.0,-29.0,72.0,-54.0,10908.0,-10094.0,-1550.0,6720.0,-1158.0,-99.0,-191.0,1.0
2022-05-08 17:15:27.736371-07:00,745.5,781.9,1046.1,1258.7,417.6,413.7,883.1,793.5,3461.3,3468.6,1854.7,831.9,657.9,3462.5,1943.0,1032.3,3439.5,3438.2,397.3,339.8,353.7,366.9,311.3,276.0,3452.8,3460.1,550.6,535.4,484.5,1047.0,950.9,565.8,-88.0,-43.0,36.0,13954.0,-8012.0,-2863.0,-1149.0,-1161.0,-1030.0,-818.0,-51.0,63.0,-38.0,10577.0,-10419.0,-1777.0,6697.0,-1256.0,-99.0,-51.0,1.0
2022-05-08 17:15:27.826519-07:00,739.7,772.8,1046.1,1258.7,412.1,439.6,883.1,793.5,3468.6,3463.7,1854.7,831.9,658.7,3457.6,1943.0,1032.3,3439.5,3438.2,402.0,342.1,353.7,366.9,315.1,274.4,3452.8,3460.1,558.6,545.0,484.5,1047.0,960.2,556.2,-44.0,-77.0,42.0,13655.0,-8363.0,-3202.0,-1342.0,-744.0,-16.0,-330.0,-5.0,87.0,34.0,10355.0,-10665.0,-1959.0,6605.0,-754.0,43.0,13.0,1.0
2022-05-08 17:15:27.827605-07:00,739.7,772.8,1080.8,1261.3,412.1,439.6,878.0,789.4,3468.6,3463.7,1909.5,834.4,658.7,3457.6,1900.7,1032.3,3445.5,3437.0,402.0,342.1,349.9,365.4,315.1,274.4,3455.2,3461.3,558.6,545.0,490.1,1038.3,960.2,556.2,21.0,41.0,26.0,13579.0,-8432.0,-3253.0,-1538.0,303.0,236.0,-657.0,57.0,-79.0,100.0,10266.0,-10728.0,-2032.0,6620.0,251.0,-169.0,-87.0,1.0
2022-05-08 17:15:27.886496-07:00,740.6,772.0,1080.8,1261.3,420.8,449.0,878.0,789.4,3466.1,3468.6,1909.5,834.4,657.9,3468.6,1900.7,1032.3,3445.5,3437.0,404.3,348.3,349.9,365.4,314.4,288.2,3455.2,3461.3,566.6,535.4,490.1,1038.3,987.6,571.4,-36.0,120.0,-59.0,13664.0,-8220.0,-3346.0,-1725.0,256.0,72.0,-291.0,43.0,73.0,13.0,10354.0,-10617.0,-2075.0,6649.0,-54.0,-53.0,-8.0,1.0
2022-05-08 17:15:27.946038-07:00,740.6,772.0,1174.4,1307.9,420.8,449.0,879.7,784.4,3466.1,3468.6,1896.7,825.2,657.9,3468.6,1869.3,1029.7,3443.1,3447.9,404.3,348.3,353.7,362.3,314.4,288.2,3455.2,3463.7,566.6,535.4,486.9,1085.1,987.6,571.4,22.0,-47.0,-3.0,13654.0,-8164.0,-3491.0,-1778.0,418.0,-395.0,-332.0,38.0,-68.0,-16.0,10287.0,-10683.0,-2139.0,6627.0,-13.0,-165.0,-125.0,1.0
2022-05-08 17:15:27.976605-07:00,738.1,772.8,1197.4,1307.9,413.7,441.2,879.7,784.4,3455.2,3462.5,1856.7,825.2,657.0,3458.9,1869.3,1029.7,3443.1,3447.9,398.1,344.5,353.7,364.6,315.1,283.6,3455.2,3463.7,566.6,528.2,486.9,1093.8,972.2,603.6,-18.0,46.0,-144.0,13684.0,-8030.0,-3692.0,-1751.0,60.0,-569.0,-40.0,92.0,78.0,-20.0,10295.0,-10658.0,-2193.0,6637.0,-203.0,-151.0,-70.0,1.0
2022-05-08 17:15:28.035910-07:00,738.1,772.8,1197.4,1324.1,413.7,435.7,882.3,784.4,3455.2,3462.5,1856.7,824.4,657.0,3467.4,1843.0,1025.4,3449.1,3447.9,398.9,344.5,351.4,364.6,315.1,283.6,3472.2,3457.6,553.8,528.2,478.2,1093.8,972.2,603.6,-40.0,54.0,-162.0,13565.0,-8134.0,-3975.0,-1568.0,-398.0,-1080.0,142.0,67.0,72.0,-83.0,10102.0,-10838.0,-2377.0,6578.0,-1044.0,-103.0,-171.0,1.0
2022-05-08 17:15:28.096423-07:00,747.2,774.5,1197.4,1324.1,411.4,435.7,882.3,784.4,3475.9,3457.6,1802.3,824.4,649.7,3467.4,1843.0,1025.4,3449.1,3447.9,398.9,340.6,351.4,359.2,313.6,282.9,3472.2,3457.6,553.8,521.0,478.2,1122.6,950.0,588.3,-45.0,69.0,-46.0,13338.0,-8392.0,-4275.0,-1350.0,-908.0,-692.0,209.0,27.0,112.0,-107.0,9803.0,-11092.0,-2680.0,6491.0,-1204.0,-186.0,-254.0,1.0
2022-05-08 17:15:28.126520-07:00,747.2,774.5,1197.4,1307.0,411.4,438.0,882.3,781.1,3475.9,3457.6,1802.3,826.0,649.7,3471.0,1823.6,1022.8,3455.2,3443.1,402.8,340.6,354.5,359.2,313.6,282.9,3456.4,3463.7,557.0,521.0,493.2,1122.6,950.0,588.3,-63.0,-39.0,-80.0,12997.0,-8874.0,-4373.0,-1280.0,-1406.0,-767.0,243.0,-16.0,-30.0,49.0,9415.0,-11469.0,-2958.0,6287.0,-1689.0,263.0,-202.0,1.0
2022-05-08 17:15:28.185835-07:00,739.7,782.7,1192.0,1307.0,407.5,438.0,882.3,781.1,3469.8,3479.5,1768.5,826.0,657.0,3471.0,1823.6,1022.8,3455.2,3443.1,402.8,342.9,354.5,356.1,305.1,282.9,3456.4,3463.7,557.0,518.7,493.2,1134.0,935.6,593.1,127.0,-204.0,-15.0,12581.0,-9402.0,-4527.0,-1118.0,-1045.0,-437.0,514.0,-11.0,-145.0,-237.0,8862.0,-11898.0,-3348.0,6093.0,-1883.0,-286.0,-108.0,1.0
2022-05-08 17:15:28.246200-07:00,739.7,782.7,1192.0,1306.1,407.5,435.7,873.0,780.3,3469.8,3479.5,1768.5,823.5,657.0,3467.4,1848.9,1021.1,3445.5,3438.2,398.1,342.9,348.3,356.1,305.1,282.9,3463.7,3454.0,559.4,518.7,498.8,1134.0,935.6,593.1,-83.0,-175.0,40.0,12455.0,-9676.0,-4295.0,-1111.0,-96.0,976.0,491.0,-54.0,-42.0,104.0,8592.0,-12039.0,-3562.0,6081.0,-212.0,8.0,-90.0,1.0
2022-05-08 17:15:28.276589-07:00,749.6,777.8,1163.0,1306.1,408.2,435.7,873.0,780.3,3472.2,3464.9,1810.0,823.5,661.9,3467.4,1848.9,1021.1,3445.5,3438.2,398.1,346.8,348.3,360.0,305.1,279.8,3463.7,3454.0,559.4,521.0,498.8,1115.6,939.8,617.3,11.0,38.0,-6.0,12550.0,-9707.0,-3937.0,-1108.0,-117.0,448.0,617.0,20.0,27.0,-23.0,8566.0,-12006.0,-3644.0,6135.0,-143.0,-370.0,-53.0,1.0
2022-05-08 17:15:28.336858-07:00,749.6,777.8,1163.0,1310.6,415.3,430.9,871.3,774.5,3472.2,3464.9,1810.0,831.1,666.8,3473.4,1848.9,1007.3,3445.5,3450.4,398.1,358.4,355.3,360.0,305.1,279.8,3462.5,3457.6,553.0,523.4,494.8,1115.6,939.8,617.3,149.0,-249.0,62.0,12421.0,-9990.0,-3630.0,-1093.0,-1026.0,228.0,472.0,-73.0,-277.0,26.0,8410.0,-12113.0,-3683.0,6117.0,-650.0,312.0,269.0,1.0
2022-05-08 17:15:28.396263-07:00,748.8,783.6,1157.7,1295.4,415.3,430.9,871.3,774.5,3467.4,3468.6,1814.9,826.0,666.8,3473.4,1848.9,1007.3,3445.5,3450.4,398.1,358.4,350.6,359.2,310.5,279.8,3462.5,3457.6,553.0,523.4,502.0,1099.9,945.8,614.1,145.0,-327.0,83.0,12235.0,-10309.0,-3358.0,-1095.0,-644.0,544.0,619.0,-48.0,-281.0,-20.0,8171.0,-12281.0,-3626.0,6139.0,-293.0,50.0,569.0,1.0
2022-05-08 17:15:28.576434-07:00,748.8,783.6,1157.7,1295.4,411.4,418.4,872.1,787.7,3467.4,3468.6,1814.9,826.0,670.1,3471.0,1827.5,1015.1,3438.2,3446.7,401.2,365.4,350.6,359.2,310.5,279.8,3452.8,3462.5,553.8,522.6,502.0,1099.9,945.8,614.1,97.0,-123.0,45.0,12278.0,-10387.0,-2969.0,-998.0,209.0,555.0,847.0,-19.0,-160.0,-37.0,8078.0,-12288.0,-3372.0,6389.0,505.0,-380.0,912.0,1.0
2022-05-08 17:15:28.579176-07:00,757.9,780.3,1130.5,1283.7,411.4,418.4,872.1,787.7,3469.8,3473.4,1796.5,830.2,670.1,3471.0,1827.5,1015.1,3438.2,3446.7,401.2,365.4,348.3,358.4,313.6,275.2,3452.8,3462.5,553.8,522.6,495.6,1086.0,935.6,605.2,-8.0,60.0,-10.0,12468.0,-10293.0,-2504.0,-878.0,503.0,758.0,875.0,34.0,17.0,26.0,8122.0,-12152.0,-2996.0,6769.0,779.0,-300.0,996.0,1.0
2022-05-08 17:15:28.579962-07:00,757.9,780.3,1130.5,1283.7,409.8,424.7,870.5,781.9,3469.8,3473.4,1796.5,830.2,664.4,3462.5,1812.9,1009.9,3444.3,3445.5,398.1,370.0,348.3,358.4,313.6,275.2,3458.9,3458.9,569.8,517.1,495.6,1086.0,935.6,605.2,-83.0,209.0,-78.0,12627.0,-10203.0,-2074.0,-766.0,197.0,533.0,719.0,69.0,118.0,21.0,8119.0,-12049.0,-2630.0,7101.0,422.0,-153.0,913.0,1.0
2022-05-08 17:15:28.580677-07:00,753.8,779.4,1121.7,1281.0,409.8,424.7,870.5,781.9,3468.6,3466.1,1774.3,826.0,664.4,3462.5,1812.9,1009.9,3444.3,3445.5,398.1,370.0,350.6,355.3,313.6,275.2,3458.9,3458.9,569.8,517.1,492.5,1082.5,925.4,591.5,-62.0,154.0,-69.0,12626.0,-10261.0,-1809.0,-677.0,-253.0,238.0,460.0,72.0,111.0,17.0,8003.0,-12078.0,-2385.0,7269.0,-55.0,37.0,641.0,1.0
2022-05-08 17:15:28.636238-07:00,753.8,779.4,1121.7,1281.0,405.9,417.6,870.5,784.4,3468.6,3466.1,1774.3,826.0,661.9,3468.6,1797.4,1003.0,3449.1,3435.8,399.6,380.2,350.6,355.3,313.6,275.2,3463.7,3450.4,550.6,511.5,492.5,1082.5,925.4,591.5,-39.0,129.0,-30.0,12600.0,-10323.0,-1656.0,-604.0,-11.0,145.0,302.0,57.0,82.0,25.0,7906.0,-12106.0,-2237.0,7374.0,53.0,-76.0,385.0,1.0
2022-05-08 17:15:28.726326-07:00,757.9,773.6,1117.4,1277.4,405.9,417.6,870.5,781.1,3460.1,3475.9,1761.8,824.4,661.9,3468.6,1797.4,998.7,3447.9,3435.8,399.6,380.2,352.2,358.4,303.6,279.8,3461.3,3450.4,550.6,511.5,492.5,1079.0,920.3,581.8,-46.0,155.0,-58.0,12633.0,-10298.0,-1570.0,-576.0,115.0,91.0,59.0,54.0,115.0,10.0,7885.0,-12086.0,-2161.0,7452.0,68.0,-47.0,127.0,1.0
2022-05-08 17:15:28.727455-07:00,757.1,773.6,1117.4,1277.4,402.8,422.3,862.1,781.1,3464.9,3475.9,1761.8,824.4,661.9,3462.5,1795.5,998.7,3447.9,3441.9,399.6,379.4,352.2,358.4,303.6,279.8,3461.3,3462.5,552.2,507.5,492.5,1079.0,920.3,586.7,-55.0,86.0,-15.0,12637.0,-10292.0,-1566.0,-597.0,-30.0,8.0,-118.0,47.0,72.0,19.0,7890.0,-12082.0,-2160.0,7452.0,-32.0,53.0,-88.0,1.0
2022-05-08 17:15:28.785823-07:00,757.1,772.8,1107.8,1280.1,402.8,422.3,862.1,782.7,3464.9,3462.5,1750.2,822.7,661.9,3462.5,1795.5,1000.5,3435.8,3441.9,399.6,379.4,348.3,355.3,305.1,279.8,3462.5,3462.5,552.2,507.5,492.5,1072.9,901.7,586.7,-37.0,20.0,-3.0,12629.0,-10292.0,-1610.0,-640.0,2.0,-38.0,-153.0,-3.0,8.0,18.0,7912.0,-12095.0,-2201.0,7395.0,-19.0,78.0,-178.0,1.0
2022-05-08 17:15:28.936280-07:00,754.6,772.8,1107.8,1280.1,411.4,418.4,867.9,782.7,3468.6,3462.5,1750.2,822.7,657.9,3469.8,1781.0,1000.5,3435.8,3449.1,399.6,380.2,348.3,355.3,305.1,278.3,3462.5,3460.1,552.2,506.7,492.5,1072.9,901.7,584.3,1.0,-30.0,-13.0,12635.0,-10270.0,-1685.0,-686.0,60.0,-63.0,-220.0,-11.0,-36.0,-16.0,7960.0,-12096.0,-2248.0,7328.0,35.0,71.0,-206.0,1.0
2022-05-08 17:15:29.086701-07:00,754.6,778.6,1113.9,1272.1,411.4,418.4,867.9,777.8,3468.6,3472.2,1744.5,824.4,657.9,3469.8,1781.0,1004.8,3449.1,3449.1,399.6,380.2,348.3,358.4,312.0,278.3,3463.7,3460.1,552.2,506.7,491.7,1073.8,896.6,584.3,-1.0,-52.0,-6.0,12668.0,-10214.0,-1756.0,-740.0,186.0,3.0,-180.0,-12.0,-38.0,-20.0,8012.0,-12078.0,-2281.0,7291.0,150.0,-16.0,-168.0,1.0
2022-05-08 17:15:29.088374-07:00,752.9,778.6,1113.9,1272.1,403.5,415.3,860.4,777.8,3457.6,3472.2,1744.5,824.4,660.3,3464.9,1769.5,1004.8,3449.1,3443.1,403.5,385.6,348.3,358.4,312.0,274.4,3463.7,3458.9,553.8,498.8,491.7,1073.8,896.6,583.5,-7.0,-23.0,-23.0,12708.0,-10155.0,-1792.0,-782.0,104.0,-4.0,-123.0,-1.0,-14.0,-20.0,8082.0,-12039.0,-2305.0,7271.0,31.0,4.0,-118.0,1.0
2022-05-08 17:15:29.089717-07:00,752.9,774.5,1109.5,1269.4,403.5,415.3,857.9,777.8,3457.6,3469.8,1733.0,820.2,660.3,3464.9,1760.8,998.7,3446.7,3443.1,403.5,385.6,346.0,355.3,305.9,274.4,3468.6,3450.4,553.8,498.8,490.1,1062.5,896.6,583.5,19.0,-36.0,-13.0,12704.0,-10152.0,-1830.0,-798.0,-29.0,-68.0,-48.0,5.0,-35.0,-30.0,8094.0,-12045.0,-2338.0,7237.0,-70.0,6.0,-68.0,1.0
2022-05-08 17:15:29.090867-07:00,760.4,776.1,1109.5,1269.4,403.5,414.5,857.9,777.8,3457.6,3458.9,1733.0,820.2,659.5,3471.0,1760.8,998.7,3446.7,3443.1,398.9,380.9,346.0,355.3,305.9,278.3,3468.6,3450.4,550.6,498.8,490.1,1062.5,912.7,589.1,21.0,-26.0,0.0,12692.0,-10166.0,-1840.0,-798.0,-31.0,-13.0,9.0,8.0,-45.0,-7.0,8087.0,-12057.0,-2368.0,7215.0,-21.0,-11.0,-21.0,1.0
2022-05-08 17:15:29.116974-07:00,760.4,776.1,1106.0,1268.5,403.5,414.5,861.2,782.7,3457.6,3458.9,1731.1,823.5,659.5,3471.0,1767.5,988.5,3439.5,3444.3,398.9,380.9,355.3,354.5,305.9,278.3,3454.0,3457.6,550.6,498.8,491.7,1071.2,912.7,589.1,11.0,0.0,3.0,12690.0,-10168.0,-1842.0,-791.0,1.0,-45.0,5.0,14.0,-25.0,14.0,8089.0,-12057.0,-2386.0,7207.0,-50.0,-13.0,-16.0,1.0
2022-05-08 17:15:29.266069-07:00,750.5,781.9,1112.1,1268.5,398.9,415.3,862.9,771.1,3471.0,3463.7,1710.0,820.2,657.9,3472.2,1752.1,993.6,3440.7,3451.6,401.2,385.6,346.8,354.5,302.8,274.4,3456.4,3452.8,549.8,495.6,493.2,1060.8,905.0,572.2,-3.0,-13.0,-15.0,12675.0,-10182.0,-1877.0,-762.0,-38.0,-52.0,23.0,8.0,-9.0,-8.0,8070.0,-12075.0,-2412.0,7188.0,-62.0,18.0,7.0,1.0
2022-05-08 17:15:29.269296-07:00,754.6,772.0,1112.1,1268.5,405.1,408.2,862.9,771.1,3457.6,3467.4,1710.0,820.2,658.7,3462.5,1752.1,993.6,3440.7,3451.6,400.4,381.7,346.8,354.5,305.1,272.9,3456.4,3452.8,546.6,492.5,493.2,1060.8,911.0,579.4,7.0,-16.0,-13.0,12661.0,-10201.0,-1881.0,-736.0,-50.0,-46.0,34.0,-1.0,-16.0,-24.0,8052.0,-12091.0,-2415.0,7181.0,-55.0,17.0,17.0,1.0
2022-05-08 17:15:29.356755-07:00,754.6,772.0,1105.1,1260.4,405.1,408.2,857.9,771.1,3457.6,3467.4,1710.0,821.0,658.7,3462.5,1755.0,992.7,3443.1,3440.7,400.4,381.7,346.0,353.0,305.1,272.9,3455.2,3458.9,546.6,492.5,490.1,1061.7,911.0,579.4,-8.0,-7.0,-5.0,12650.0,-10216.0,-1878.0,-729.0,-4.0,6.0,21.0,5.0,-2.0,1.0,8050.0,-12097.0,-2408.0,7176.0,34.0,10.0,16.0,1.0
2022-05-08 17:15:29.357918-07:00,760.4,766.2,1096.4,1260.4,403.5,405.9,857.9,771.1,3462.5,3466.1,1698.6,821.0,656.2,3464.9,1755.0,992.7,3443.1,3440.7,403.5,380.2,346.0,354.5,303.6,272.9,3455.2,3458.9,544.2,494.0,490.1,1059.9,905.0,557.0,-13.0,28.0,-20.0,12663.0,-10202.0,-1867.0,-715.0,69.0,6.0,34.0,12.0,10.0,-7.0,8068.0,-12087.0,-2398.0,7177.0,60.0,-5.0,-14.0,1.0
2022-05-08 17:15:29.385954-07:00,760.4,766.2,1096.4,1261.3,403.5,405.9,862.1,770.3,3462.5,3466.1,1698.6,818.5,656.2,3468.6,1749.3,998.7,3443.1,3449.1,402.0,380.2,348.3,354.5,303.6,272.9,3461.3,3462.5,544.2,494.0,492.5,1059.9,905.0,557.0,-17.0,5.0,-20.0,12674.0,-10189.0,-1868.0,-713.0,38.0,-4.0,-26.0,8.0,5.0,-4.0,8087.0,-12080.0,-2405.0,7164.0,24.0,25.0,-62.0,1.0
2022-05-08 17:15:29.626450-07:00,749.6,772.0,1100.8,1261.3,402.8,405.9,862.1,770.3,3463.7,3463.7,1694.8,818.5,653.0,3468.6,1749.3,998.7,3443.1,3449.1,402.0,379.4,348.3,355.3,302.8,278.3,3461.3,3462.5,544.2,492.5,492.5,1059.1,899.1,575.4,-1.0,11.0,-17.0,12696.0,-10160.0,-1877.0,-711.0,152.0,-20.0,-19.0,2.0,-2.0,-10.0,8133.0,-12053.0,-2413.0,7156.0,132.0,-41.0,-88.0,1.0
2022-05-08 17:15:29.627784-07:00,749.6,772.0,1100.8,1261.3,402.8,404.3,861.2,772.8,3463.7,3463.7,1694.8,824.4,653.0,3466.1,1736.8,988.5,3445.5,3441.9,400.4,379.4,349.1,355.3,302.8,278.3,3458.9,3458.9,541.0,492.5,490.1,1059.1,899.1,575.4,-19.0,14.0,-22.0,12734.0,-10107.0,-1897.0,-718.0,153.0,-18.0,-76.0,7.0,7.0,5.0,8189.0,-12014.0,-2432.0,7151.0,97.0,-20.0,-118.0,1.0
2022-05-08 17:15:29.628796-07:00,744.7,772.8,1099.9,1261.3,402.8,404.3,861.2,772.8,3468.6,3468.6,1692.9,824.4,656.2,3466.1,1736.8,988.5,3445.5,3441.9,400.4,377.8,349.1,356.1,297.4,272.1,3458.9,3458.9,541.0,491.7,490.1,1052.2,898.3,571.4,-15.0,14.0,-21.0,12756.0,-10072.0,-1938.0,-709.0,92.0,-117.0,-51.0,8.0,9.0,3.0,8232.0,-11989.0,-2468.0,7130.0,32.0,-13.0,-151.0,1.0
2022-05-08 17:15:29.629941-07:00,744.7,772.8,1099.9,1260.4,402.8,407.5,861.2,772.0,3468.6,3468.6,1692.9,811.0,656.2,3464.9,1729.1,996.2,3443.1,3439.5,401.2,377.8,356.1,356.1,297.4,272.1,3462.5,3458.9,543.4,491.7,491.7,1052.2,898.3,571.4,-22.0,17.0,-4.0,12771.0,-10050.0,-1980.0,-658.0,114.0,-163.0,79.0,12.0,16.0,29.0,8275.0,-11970.0,-2513.0,7095.0,59.0,13.0,-174.0,1.0
2022-05-08 17:15:29.631873-07:00,749.6,762.9,1098.2,1255.1,401.2,407.5,861.2,772.0,3467.4,3462.5,1688.1,818.5,657.0,3464.9,1729.1,996.2,3443.1,3439.5,401.2,373.2,352.2,354.5,298.2,278.3,3462.5,3458.9,543.4,490.9,489.3,1048.7,914.4,576.2,4.0,28.0,-5.0,12783.0,-10028.0,-2032.0,-578.0,8.0,-186.0,-10.0,10.0,-15.0,-22.0,8310.0,-11952.0,-2577.0,7063.0,-63.0,27.0,-207.0,1.0
2022-05-08 17:15:29.745925-07:00,749.6,762.9,1098.2,1255.1,398.1,402.8,856.2,769.5,3467.4,3462.5,1688.1,818.5,653.0,3467.4,1733.9,995.3,3447.9,3438.2,400.4,373.9,352.2,354.5,298.2,278.3,3461.3,3447.9,543.4,494.0,489.3,1048.7,914.4,576.2,-34.0,58.0,-15.0,12764.0,-10039.0,-2108.0,-529.0,22.0,-263.0,82.0,50.0,62.0,69.0,8341.0,-11970.0,-2652.0,6967.0,-17.0,99.0,-293.0,1.0
2022-05-08 17:15:29.747303-07:00,751.3,768.7,1101.7,1256.0,398.1,402.8,856.2,769.5,3471.0,3466.1,1687.2,817.7,653.0,3467.4,1733.9,995.3,3447.9,3438.2,400.4,373.9,351.4,358.4,302.8,274.4,3461.3,3447.9,543.4,494.0,490.1,1050.4,903.4,570.6,1.0,20.0,-16.0,12733.0,-10067.0,-2185.0,-432.0,-155.0,-268.0,10.0,24.0,-17.0,-27.0,8366.0,-11982.0,-2760.0,6875.0,-139.0,139.0,-311.0,1.0
2022-05-08 17:15:29.776679-07:00,751.3,768.7,1101.7,1256.0,397.3,406.7,855.3,769.5,3471.0,3466.1,1687.2,817.7,658.7,3469.8,1728.2,1003.0,3438.2,3446.7,395.0,369.3,351.4,358.4,302.8,274.4,3461.3,3456.4,537.8,490.9,490.1,1050.4,903.4,570.6,-34.0,13.0,5.0,12690.0,-10103.0,-2284.0,-337.0,18.0,-379.0,120.0,5.0,40.0,32.0,8406.0,-11997.0,-2872.0,6753.0,-24.0,-9.0,-376.0,1.0
2022-05-08 17:15:29.835915-07:00,752.1,766.2,1098.2,1253.3,397.3,406.7,855.3,769.5,3471.0,3464.9,1697.6,825.2,658.7,3469.8,1728.2,1003.0,3438.2,3446.7,395.0,369.3,346.8,361.5,299.0,277.5,3461.3,3456.4,537.8,490.9,493.2,1054.8,903.4,571.4,13.0,-12.0,-11.0,12648.0,-10133.0,-2391.0,-255.0,-151.0,-314.0,-92.0,5.0,-38.0,-6.0,8441.0,-12000.0,-2990.0,6651.0,-162.0,131.0,-351.0,1.0
2022-05-08 17:15:29.926427-07:00,752.1,766.2,1098.2,1253.3,405.1,405.1,849.5,773.6,3471.0,3464.9,1697.6,825.2,663.6,3464.9,1721.5,995.3,3447.9,3443.1,402.0,360.0,346.8,361.5,299.0,277.5,3457.6,3468.6,543.4,486.1,493.2,1054.8,903.4,571.4,41.0,3.0,-11.0,12614.0,-10146.0,-2518.0,-175.0,83.0,-386.0,39.0,10.0,-33.0,6.0,8491.0,-12000.0,-3092.0,6540.0,55.0,-26.0,-312.0,1.0
2022-05-08 17:15:29.927805-07:00,744.7,765.3,1086.8,1251.5,405.1,405.1,849.5,773.6,3468.6,3471.0,1693.8,819.4,663.6,3464.9,1721.5,995.3,3447.9,3443.1,402.0,360.0,346.8,359.2,297.4,275.2,3457.6,3468.6,543.4,486.1,494.0,1063.4,910.1,572.2,43.0,-8.0,-15.0,12591.0,-10145.0,-2638.0,-90.0,-70.0,-310.0,-75.0,24.0,-40.0,-50.0,8536.0,-11984.0,-3197.0,6461.0,-99.0,52.0,-325.0,1.0
2022-05-08 17:15:29.986047-07:00,744.7,765.3,1086.8,1251.5,395.0,405.1,855.3,765.3,3468.6,3471.0,1693.8,819.4,658.7,3463.7,1726.3,993.6,3451.6,3444.3,400.4,356.1,346.8,359.2,297.4,276.7,3462.5,3457.6,544.2,490.1,494.0,1063.4,910.1,564.2,31.0,-14.0,-3.0,12572.0,-10140.0,-2750.0,-31.0,85.0,-275.0,-18.0,15.0,-28.0,-4.0,8602.0,-11963.0,-3263.0,6378.0,97.0,11.0,-269.0,1.0
2022-05-08 17:15:30.016638-07:00,744.7,762.9,1090.3,1254.2,395.0,405.1,855.3,769.5,3468.6,3468.6,1695.7,813.5,658.7,3463.7,1726.3,997.9,3445.5,3444.3,400.4,356.1,349.1,357.6,295.9,276.7,3457.6,3457.6,544.2,490.1,490.9,1048.7,912.7,564.2,28.0,-8.0,11.0,12582.0,-10103.0,-2839.0,0.0,38.0,-137.0,-134.0,20.0,-33.0,-19.0,8676.0,-11922.0,-3326.0,6322.0,59.0,66.0,-253.0,1.0
2022-05-08 17:15:30.076373-07:00,755.4,762.9,1090.3,1254.2,399.6,398.1,856.2,769.5,3466.1,3468.6,1695.7,813.5,654.6,3460.1,1715.8,997.9,3445.5,3446.7,405.1,352.2,349.1,357.6,295.9,276.7,3457.6,3457.6,544.2,483.7,490.9,1048.7,912.7,562.6,-16.0,-8.0,12.0,12590.0,-10074.0,-2904.0,-33.0,55.0,-20.0,-151.0,-7.0,6.0,16.0,8730.0,-11904.0,-3362.0,6262.0,82.0,94.0,-229.0,1.0
2022-05-08 17:15:30.136335-07:00,755.4,762.9,1088.6,1257.8,399.6,398.1,856.2,762.0,3466.1,3471.0,1685.3,817.7,654.6,3460.1,1715.8,996.2,3445.5,3446.7,405.1,352.2,348.3,361.5,301.3,276.7,3461.3,3457.6,544.2,483.7,488.5,1044.4,894.1,562.6,-5.0,-10.0,-8.0,12607.0,-10043.0,-2936.0,-53.0,38.0,-16.0,-69.0,-24.0,-3.0,-13.0,8804.0,-11877.0,-3397.0,6191.0,57.0,64.0,-217.0,1.0
2022-05-08 17:15:30.256372-07:00,755.4,762.9,1088.6,1257.8,397.3,399.6,852.8,762.0,3462.5,3471.0,1685.3,817.7,661.1,3474.6,1715.8,996.2,3445.5,3449.1,402.0,348.3,348.3,361.5,301.3,279.8,3461.3,3463.7,537.0,486.9,488.5,1044.4,894.1,556.2,-1.0,-43.0,-15.0,12596.0,-10053.0,-2952.0,-95.0,-76.0,32.0,-124.0,-34.0,-41.0,-27.0,8860.0,-11869.0,-3433.0,6106.0,-20.0,104.0,-207.0,1.0
2022-05-08 17:15:30.257738-07:00,755.4,766.2,1094.7,1259.6,397.3,399.6,852.8,767.8,3462.5,3467.4,1686.2,823.5,661.1,3474.6,1715.8,990.2,3445.5,3449.1,402.0,348.3,346.0,363.1,300.5,279.8,3458.9,3463.7,537.0,486.9,485.3,1043.5,909.3,556.2,-17.0,-53.0,-6.0,12584.0,-10066.0,-2953.0,-154.0,13.0,90.0,-75.0,-19.0,-11.0,8.0,8902.0,-11866.0,-3462.0,6033.0,117.0,88.0,-153.0,1.0
2022-05-08 17:15:30.406385-07:00,753.8,764.5,1094.7,1259.6,398.9,400.4,844.4,767.8,3452.8,3467.4,1686.2,823.5,661.1,3473.4,1705.3,990.2,3445.5,3435.8,402.0,352.2,346.0,363.1,303.6,275.2,3458.9,3464.9,544.2,490.9,485.3,1043.5,900.8,565.0,-8.0,34.0,-48.0,12612.0,-10037.0,-2934.0,-160.0,78.0,26.0,19.0,0.0,24.0,-22.0,8971.0,-11832.0,-3479.0,5988.0,57.0,8.0,-183.0,1.0
2022-05-08 17:15:30.407757-07:00,753.8,764.5,1079.9,1245.3,398.9,400.4,854.5,764.5,3452.8,3467.4,1684.3,814.4,661.1,3473.4,1711.0,996.2,3444.3,3454.0,402.0,352.2,347.6,356.1,303.6,275.2,3458.9,3457.6,544.2,490.9,493.2,1034.0,900.8,565.0,9.0,-21.0,-35.0,12602.0,-10043.0,-2957.0,-163.0,-23.0,-121.0,-71.0,-7.0,-34.0,0.0,9020.0,-11812.0,-3525.0,5927.0,45.0,-35.0,-221.0,1.0
2022-05-08 17:15:30.436812-07:00,743.0,767.0,1079.9,1245.3,403.5,398.9,854.5,764.5,3466.1,3478.3,1684.3,814.4,657.9,3473.4,1711.0,996.2,3444.3,3454.0,402.0,355.3,347.6,356.1,297.4,276.7,3458.9,3457.6,540.2,484.5,493.2,1034.0,900.8,557.8,32.0,6.0,-28.0,12624.0,-9995.0,-3028.0,-133.0,234.0,-176.0,-79.0,31.0,-22.0,-21.0,9084.0,-11746.0,-3594.0,5919.0,273.0,-117.0,-222.0,1.0
2022-05-08 17:15:30.437775-07:00,743.0,767.0,1099.0,1256.9,403.5,398.9,855.3,767.8,3466.1,3478.3,1673.8,820.2,657.9,3473.4,1697.6,991.0,3438.2,3444.3,402.0,355.3,342.9,360.7,297.4,276.7,3468.6,3460.1,540.2,484.5,489.3,1039.2,900.8,557.8,85.0,-234.0,93.0,12529.0,-10072.0,-3165.0,-78.0,-162.0,-379.0,26.0,94.0,-138.0,21.0,9096.0,-11740.0,-3672.0,5864.0,21.0,-4.0,-48.0,1.0
2022-05-08 17:15:30.496240-07:00,758.7,762.0,1099.0,1256.9,402.0,395.0,855.3,767.8,3456.4,3471.0,1673.8,820.2,655.4,3467.4,1697.6,991.0,3438.2,3444.3,399.6,349.1,342.9,360.7,305.9,272.9,3468.6,3460.1,539.4,489.3,489.3,1039.2,907.6,568.2,-23.0,-108.0,-9.0,12509.0,-10081.0,-3216.0,-23.0,251.0,-109.0,-66.0,-42.0,-22.0,-33.0,9150.0,-11714.0,-3626.0,5862.0,387.0,31.0,54.0,1.0
2022-05-08 17:15:30.526716-07:00,758.7,762.0,1150.6,1249.7,402.0,395.0,854.5,762.0,3456.4,3471.0,1664.4,813.5,655.4,3467.4,1705.3,986.7,3433.4,3445.5,399.6,349.1,350.6,362.3,305.9,272.9,3447.9,3452.8,539.4,489.3,490.9,1040.1,907.6,568.2,5.0,122.0,-61.0,12552.0,-10002.0,-3295.0,-33.0,83.0,-137.0,-148.0,15.0,71.0,-4.0,9268.0,-11646.0,-3529.0,5870.0,171.0,126.0,26.0,1.0
2022-05-08 17:15:30.676515-07:00,745.5,760.4,1150.6,1249.7,405.1,396.5,854.5,762.0,3457.6,3467.4,1664.4,813.5,659.5,3468.6,1705.3,986.7,3433.4,3445.5,400.4,352.2,350.6,362.3,300.5,276.0,3447.9,3452.8,545.0,493.2,490.9,1040.1,905.0,560.2,15.0,-25.0,76.0,12461.0,-10084.0,-3387.0,-70.0,-343.0,-61.0,-78.0,9.0,-4.0,69.0,9289.0,-11670.0,-3472.0,5823.0,8.0,253.0,26.0,1.0
2022-05-08 17:15:30.677927-07:00,745.5,760.4,1263.1,1247.1,405.1,409.0,863.7,762.0,3457.6,3467.4,1660.6,810.2,659.5,3467.4,1692.9,986.7,3429.8,3450.4,398.1,352.2,348.3,360.7,300.5,276.0,3455.2,3473.4,550.6,493.2,499.6,1047.0,905.0,560.2,19.0,35.0,56.0,12426.0,-10129.0,-3382.0,-7.0,-76.0,-82.0,204.0,40.0,0.0,82.0,9355.0,-11676.0,-3363.0,5767.0,229.0,291.0,53.0,1.0
2022-05-08 17:15:30.679165-07:00,749.6,757.9,1228.4,1247.1,401.2,409.0,863.7,762.0,3464.9,3455.2,1661.5,810.2,657.0,3467.4,1692.9,986.7,3429.8,3450.4,398.1,347.6,348.3,364.6,302.8,274.4,3455.2,3473.4,550.6,491.7,499.6,1043.5,885.6,566.6,28.0,-42.0,-8.0,12310.0,-10266.0,-3393.0,64.0,-647.0,-237.0,141.0,20.0,-11.0,-29.0,9375.0,-11729.0,-3273.0,5681.0,-277.0,327.0,44.0,1.0
2022-05-08 17:15:30.735983-07:00,749.6,757.9,1228.4,1390.3,401.2,411.4,878.9,768.7,3464.9,3455.2,1661.5,819.4,657.0,3460.1,1752.1,985.0,3449.1,3444.3,399.6,347.6,345.2,364.6,302.8,274.4,3456.4,3461.3,543.4,491.7,487.7,1043.5,885.6,566.6,3.0,-56.0,-24.0,12204.0,-10402.0,-3359.0,133.0,-117.0,35.0,343.0,8.0,0.0,-54.0,9343.0,-11817.0,-3191.0,5597.0,-7.0,298.0,98.0,1.0
2022-05-08 17:15:30.766055-07:00,744.7,759.6,1199.1,1390.3,415.3,411.4,878.9,768.7,3460.1,3460.1,1653.0,819.4,651.4,3460.1,1752.1,985.0,3449.1,3444.3,399.6,347.6,345.2,362.3,303.6,274.4,3456.4,3461.3,543.4,505.9,487.7,1037.5,907.6,555.4,46.0,-70.0,81.0,12189.0,-10468.0,-3203.0,190.0,-49.0,367.0,309.0,-9.0,-63.0,-30.0,9333.0,-11883.0,-3080.0,5535.0,21.0,288.0,173.0,1.0
2022-05-08 17:15:30.856318-07:00,744.7,759.6,1199.1,1406.7,415.3,407.5,884.8,770.3,3460.1,3460.1,1653.0,814.4,651.4,3468.6,1709.1,984.2,3437.0,3439.5,403.5,347.6,348.3,362.3,303.6,274.4,3457.6,3446.7,547.4,505.9,490.1,1037.5,907.6,555.4,112.0,-52.0,222.0,12354.0,-10407.0,-2743.0,49.0,501.0,1682.0,529.0,32.0,-34.0,-5.0,9452.0,-11842.0,-2863.0,5538.0,627.0,369.0,333.0,1.0
2022-05-08 17:15:30.858124-07:00,745.5,757.9,1233.7,1406.7,408.2,407.5,884.8,770.3,3467.4,3468.6,1637.9,814.4,640.0,3468.6,1709.1,984.2,3437.0,3439.5,403.5,348.3,348.3,359.2,306.7,281.3,3457.6,3446.7,547.4,501.2,490.1,1028.0,940.7,553.0,0.0,88.0,-47.0,12768.0,-10088.0,-1896.0,-227.0,1003.0,2113.0,676.0,7.0,132.0,0.0,9726.0,-11697.0,-2497.0,5550.0,1000.0,331.0,324.0,1.0
2022-05-08 17:15:30.976882-07:00,745.5,757.9,1233.7,1338.6,408.2,403.5,873.8,776.9,3467.4,3468.6,1637.9,812.7,640.0,3469.8,1698.6,979.9,3446.7,3449.1,401.2,348.3,345.2,359.2,306.7,281.3,3466.1,3458.9,540.2,501.2,489.3,1028.0,940.7,553.0,85.0,6.0,-63.0,13008.0,-9907.0,-868.0,-556.0,615.0,2665.0,928.0,-34.0,64.0,-91.0,9908.0,-11588.0,-2267.0,5554.0,609.0,192.0,149.0,1.0
2022-05-08 17:15:30.979496-07:00,747.2,757.1,1168.2,1313.3,402.8,403.5,873.8,776.9,3466.1,3463.7,1686.2,815.2,648.9,3469.8,1698.6,979.9,3446.7,3449.1,401.2,346.0,346.8,359.2,319.0,274.4,3466.1,3458.9,540.2,515.5,491.7,1070.3,907.6,546.6,13.0,63.0,-158.0,13151.0,-9721.0,334.0,-940.0,312.0,2607.0,767.0,-94.0,-93.0,-91.0,10109.0,-11424.0,-2123.0,5588.0,616.0,122.0,114.0,1.0
2022-05-08 17:15:31.245846-07:00,747.2,757.1,1168.2,1313.3,408.2,398.9,894.1,784.4,3466.1,3463.7,1686.2,815.2,649.7,3461.3,1669.1,973.1,3441.9,3449.1,398.1,348.3,346.8,359.2,319.0,274.4,3460.1,3458.9,543.4,556.2,491.7,1070.3,907.6,546.6,73.0,-20.0,-334.0,13313.0,-9376.0,1177.0,-1378.0,933.0,1742.0,416.0,-14.0,22.0,-108.0,10389.0,-11129.0,-2098.0,5677.0,1135.0,-517.0,-262.0,1.0
2022-05-08 17:15:31.276736-07:00,744.7,754.6,1136.6,1303.4,408.2,398.9,894.1,784.4,3473.4,3469.8,1653.9,811.0,649.7,3461.3,1669.1,973.1,3441.9,3449.1,398.1,348.3,349.1,359.2,325.9,272.9,3460.1,3458.9,543.4,556.2,484.5,1060.8,926.2,547.4,-185.0,-91.0,50.0,13401.0,-9159.0,1677.0,-1468.0,401.0,700.0,567.0,-53.0,-100.0,97.0,10693.0,-10694.0,-2231.0,5896.0,1022.0,-643.0,-189.0,1.0
2022-05-08 17:15:31.306839-07:00,744.7,754.6,1136.6,1303.4,411.4,408.2,900.8,780.3,3473.4,3469.8,1653.9,811.0,648.9,3468.6,1718.6,973.1,3444.3,3433.4,398.1,347.6,349.1,359.2,325.9,272.9,3463.7,3463.7,537.0,579.4,484.5,1060.8,926.2,547.4,8.0,48.0,-10.0,13510.0,-8965.0,1891.0,-1407.0,55.0,199.0,347.0,-33.0,-21.0,-30.0,10862.0,-10453.0,-2294.0,5993.0,198.0,-278.0,-128.0,1.0
2022-05-08 17:15:31.307948-07:00,748.8,766.2,1062.5,1284.6,411.4,408.2,900.8,780.3,3478.3,3472.2,1642.6,815.2,648.9,3468.6,1718.6,973.1,3444.3,3433.4,398.1,347.6,349.1,354.5,332.9,281.3,3463.7,3463.7,537.0,579.4,489.3,1046.1,939.8,548.2,1.0,14.0,39.0,13378.0,-9121.0,2095.0,-1373.0,-664.0,429.0,303.0,18.0,6.0,44.0,10777.0,-10548.0,-2311.0,5975.0,-460.0,203.0,108.0,1.0
2022-05-08 17:15:32.116765-07:00,748.8,766.2,1062.5,1284.6,400.4,385.6,898.3,787.7,3478.3,3472.2,1642.6,815.2,651.4,3461.3,1751.2,973.9,3449.1,3445.5,398.1,349.9,349.1,354.5,332.9,281.3,3464.9,3461.3,552.2,570.6,489.3,1046.1,939.8,548.2,23.0,32.0,6.0,13255.0,-9255.0,2331.0,-1284.0,-260.0,206.0,438.0,29.0,24.0,25.0,10695.0,-10647.0,-2297.0,5951.0,-98.0,-24.0,71.0,1.0
2022-05-08 17:15:32.385993-07:00,756.3,764.5,997.0,1263.1,400.4,385.6,898.3,777.8,3468.6,3471.0,1604.0,803.5,651.4,3461.3,1751.2,967.1,3449.1,3445.5,398.1,349.9,348.3,354.5,331.3,275.2,3469.8,3461.3,552.2,570.6,489.3,1029.7,860.4,541.8,25.0,21.0,12.0,13207.0,-9297.0,2479.0,-1190.0,-141.0,128.0,249.0,34.0,-1.0,1.0,10674.0,-10647.0,-2355.0,5965.0,-90.0,-99.0,-104.0,1.0
2022-05-08 17:15:32.446270-07:00,765.3,762.0,979.9,1257.8,399.6,385.6,895.7,788.6,3467.4,3461.3,1568.3,803.5,645.7,3455.2,1640.7,960.2,3440.7,3431.0,398.9,344.5,344.5,353.7,327.5,266.8,3468.6,3461.3,543.4,561.0,487.7,1018.5,829.4,542.6,-13.0,-29.0,14.0,13156.0,-9384.0,2462.0,-1113.0,-51.0,-91.0,-93.0,-18.0,-24.0,14.0,10628.0,-10669.0,-2476.0,5960.0,-65.0,-76.0,-55.0,1.0
2022-05-08 17:15:32.536896-07:00,753.8,762.0,979.9,1257.8,408.2,386.4,893.2,788.6,3471.0,3461.3,1568.3,803.5,652.2,3467.4,1614.3,960.2,3440.7,3444.3,398.1,346.0,344.5,353.7,327.5,273.7,3468.6,3460.1,542.6,563.4,487.7,1018.5,829.4,543.4,19.0,-23.0,-12.0,13156.0,-9404.0,2390.0,-1096.0,-37.0,-187.0,-37.0,-13.0,-6.0,-18.0,10611.0,-10671.0,-2516.0,5970.0,-59.0,-127.0,-19.0,1.0
2022-05-08 17:15:32.567235-07:00,749.6,760.4,928.8,1227.5,405.1,384.0,879.7,771.1,3472.2,3462.5,1509.7,801.0,647.3,3458.9,1514.3,942.4,3444.3,3429.8,391.8,342.9,344.5,351.4,318.2,268.3,3464.9,3457.6,537.0,544.2,484.5,991.9,798.5,537.8,10.0,-35.0,-14.0,13331.0,-9222.0,2126.0,-1070.0,132.0,11.0,76.0,0.0,-17.0,-24.0,10606.0,-10732.0,-2294.0,5958.0,66.0,139.0,92.0,1.0
2022-05-08 17:15:32.568475-07:00,752.1,760.4,928.8,1227.5,401.2,384.0,879.7,771.1,3466.1,3460.1,1502.3,801.0,642.4,3458.9,1514.3,942.4,3444.3,3429.8,391.8,344.5,344.5,347.6,315.9,269.1,3464.9,3457.6,537.0,543.4,484.5,999.6,791.0,533.8,-3.0,-15.0,-15.0,13366.0,-9170.0,2145.0,-1050.0,171.0,-14.0,114.0,-5.0,-18.0,-7.0,10630.0,-10716.0,-2228.0,5970.0,173.0,29.0,81.0,1.0
2022-05-08 17:15:32.686890-07:00,744.7,756.3,933.0,1221.3,397.3,380.2,871.3,776.1,3468.6,3468.6,1497.7,801.9,639.2,3463.7,1501.4,943.2,3441.9,3439.5,397.3,342.1,345.2,342.1,318.2,262.2,3458.9,3466.1,541.0,537.8,479.8,1001.3,801.9,530.6,45.0,-21.0,-44.0,13464.0,-9106.0,1855.0,-886.0,66.0,-196.0,-146.0,14.0,-3.0,-67.0,10675.0,-10763.0,-1874.0,5926.0,78.0,121.0,69.0,1.0
2022-05-08 17:15:32.687696-07:00,744.7,756.3,933.0,1221.3,397.3,380.2,871.3,776.1,3468.6,3468.6,1497.7,801.9,639.2,3463.7,1501.4,943.2,3441.9,3439.5,397.3,342.1,345.2,342.1,318.2,262.2,3458.9,3466.1,541.0,537.8,479.8,1001.3,801.9,530.6,45.0,-21.0,-44.0,13464.0,-9106.0,1855.0,-886.0,66.0,-196.0,-146.0,14.0,-3.0,-67.0,10675.0,-10763.0,-1874.0,5926.0,78.0,121.0,69.0,1.0
2022-05-08 17:15:32.717012-07:00,749.6,758.7,916.9,1219.5,402.0,379.4,868.8,774.5,3464.9,3466.1,1645.4,804.4,641.6,3457.6,1583.3,947.5,3441.9,3449.1,398.1,344.5,341.4,352.2,319.0,271.4,3458.9,3461.3,533.8,548.2,479.8,996.2,885.6,537.0,22.0,11.0,-28.0,13775.0,-8782.0,1015.0,-722.0,715.0,-1095.0,-269.0,-10.0,-23.0,-12.0,10898.0,-10444.0,-1587.0,6170.0,557.0,-196.0,219.0,1.0
2022-05-08 17:15:32.718111-07:00,741.4,758.7,916.9,1219.5,402.0,377.0,868.8,774.5,3462.5,3466.1,1645.4,804.4,648.9,3464.9,1668.2,947.5,3441.9,3449.1,395.0,344.5,341.4,352.2,319.0,269.1,3458.9,3461.3,538.6,548.2,479.8,996.2,885.6,536.2,22.0,1.0,7.0,13978.0,-8511.0,502.0,-605.0,966.0,-1075.0,-400.0,4.0,10.0,-5.0,11045.0,-10213.0,-1499.0,6315.0,716.0,-234.0,171.0,1.0
2022-05-08 17:15:32.746224-07:00,741.4,754.6,919.4,1222.2,402.0,377.0,868.8,763.7,3462.5,3464.9,1645.4,798.5,648.9,3464.9,1668.2,950.9,3437.0,3449.1,395.0,344.5,342.1,353.0,315.9,269.1,3450.4,3461.3,538.6,548.2,486.9,1001.3,885.6,536.2,18.0,-2.0,-25.0,14189.0,-8175.0,37.0,-512.0,887.0,-961.0,-299.0,-3.0,-19.0,-1.0,11168.0,-10021.0,-1392.0,6431.0,552.0,-130.0,203.0,1.0
2022-05-08 17:15:32.776247-07:00,743.9,754.6,919.4,1222.2,395.7,381.7,877.2,763.7,3469.8,3464.9,1645.4,798.5,645.7,3474.6,1710.0,950.9,3437.0,3445.5,399.6,343.7,342.1,353.0,315.9,272.9,3450.4,3462.5,530.6,551.4,486.9,1001.3,885.6,536.2,27.0,-10.0,-8.0,14352.0,-7879.0,-435.0,-412.0,711.0,-1122.0,-369.0,-10.0,-26.0,-19.0,11259.0,-9846.0,-1309.0,6558.0,449.0,-229.0,205.0,1.0
2022-05-08 17:15:32.806504-07:00,743.9,762.0,915.2,1218.6,395.7,381.7,877.2,765.3,3469.8,3460.1,1688.1,805.2,645.7,3474.6,1710.0,956.8,3443.1,3445.5,399.6,343.7,346.8,361.5,313.6,272.9,3460.1,3462.5,530.6,551.4,486.9,997.0,903.4,536.2,24.0,11.0,3.0,14457.0,-7646.0,-933.0,-311.0,422.0,-979.0,-294.0,15.0,28.0,-28.0,11296.0,-9739.0,-1289.0,6657.0,211.0,-195.0,151.0,1.0
2022-05-08 17:15:32.866019-07:00,742.2,762.0,915.2,1218.6,400.4,378.6,886.5,765.3,3464.9,3460.1,1688.1,805.2,636.7,3457.6,1749.3,956.8,3443.1,3454.0,402.8,339.8,346.8,361.5,313.6,266.8,3460.1,3463.7,530.6,549.8,486.9,997.0,903.4,529.0,2.0,-8.0,16.0,14510.0,-7493.0,-1300.0,-224.0,469.0,-587.0,-186.0,-8.0,-10.0,-3.0,11315.0,-9651.0,-1269.0,6757.0,321.0,-157.0,149.0,1.0
2022-05-08 17:15:32.926434-07:00,742.2,759.6,910.1,1216.8,400.4,378.6,871.3,765.3,3464.9,3469.8,1666.3,808.5,636.7,3457.6,1739.7,956.8,3438.2,3443.1,402.8,339.8,346.8,364.6,315.1,266.8,3455.2,3461.3,530.6,549.8,483.7,993.6,894.1,529.0,8.0,37.0,-59.0,14585.0,-7296.0,-1562.0,-175.0,349.0,-613.0,-248.0,-39.0,17.0,-16.0,11361.0,-9536.0,-1229.0,6850.0,-39.0,-70.0,166.0,1.0
2022-05-08 17:15:32.956634-07:00,742.2,759.6,910.1,1216.8,399.6,378.6,871.3,765.3,3447.9,3473.4,1666.3,808.5,644.0,3472.2,1739.7,956.8,3438.2,3443.1,402.0,342.9,346.8,364.6,315.1,272.9,3455.2,3461.3,529.0,549.8,483.7,993.6,897.4,526.6,-4.0,11.0,3.0,14586.0,-7235.0,-1821.0,-155.0,-6.0,-380.0,-187.0,6.0,20.0,3.0,11319.0,-9535.0,-1256.0,6916.0,-77.0,-141.0,35.0,1.0
2022-05-08 17:15:33.016366-07:00,742.2,759.6,911.0,1218.6,399.6,378.6,864.6,770.3,3447.9,3473.4,1656.8,806.0,644.0,3472.2,1726.3,951.7,3434.6,3441.9,402.0,342.9,351.4,367.7,315.1,272.9,3451.6,3467.4,529.0,549.8,486.9,996.2,897.4,526.6,-17.0,36.0,-8.0,14564.0,-7242.0,-1966.0,-162.0,-94.0,-227.0,-147.0,1.0,27.0,11.0,11287.0,-9542.0,-1305.0,6948.0,-119.0,-106.0,-7.0,1.0
2022-05-08 17:15:33.076341-07:00,734.8,756.3,911.0,1218.6,403.5,372.4,864.6,770.3,3462.5,3467.4,1656.8,806.0,646.5,3467.4,1726.3,951.7,3434.6,3441.9,398.9,344.5,351.4,367.7,314.4,273.7,3451.6,3467.4,529.0,547.4,486.9,996.2,897.4,531.4,2.0,-13.0,-29.0,14538.0,-7270.0,-2050.0,-178.0,-62.0,-94.0,-59.0,-2.0,-4.0,-2.0,11256.0,-9559.0,-1362.0,6965.0,-101.0,-116.0,-19.0,1.0
2022-05-08 17:15:33.106459-07:00,734.8,756.3,918.6,1216.8,403.5,372.4,862.1,757.9,3462.5,3467.4,1672.9,802.7,646.5,3467.4,1742.6,951.7,3435.8,3446.7,398.9,344.5,342.9,360.0,314.4,273.7,3452.8,3461.3,529.0,547.4,484.5,991.9,897.4,531.4,27.0,-16.0,-6.0,14518.0,-7300.0,-2086.0,-183.0,-112.0,-49.0,-24.0,0.0,-29.0,-22.0,11222.0,-9569.0,-1426.0,6993.0,-165.0,-158.0,10.0,1.0
2022-05-08 17:15:33.166239-07:00,734.0,751.3,918.6,1216.8,399.6,380.9,862.1,757.9,3464.9,3471.0,1672.9,802.7,646.5,3471.0,1742.6,951.7,3435.8,3446.7,397.3,342.9,342.9,360.0,314.4,279.0,3452.8,3461.3,536.2,545.8,484.5,991.9,912.7,550.6,-20.0,-49.0,-18.0,14451.0,-7434.0,-2073.0,-228.0,-560.0,84.0,-34.0,-15.0,-2.0,-1.0,11115.0,-9669.0,-1523.0,7007.0,-507.0,-56.0,14.0,1.0
2022-05-08 17:15:33.226471-07:00,734.0,751.3,952.6,1216.0,399.6,378.6,867.1,759.6,3464.9,3471.0,1780.1,821.9,646.5,3463.7,1761.8,961.1,3437.0,3451.6,402.8,342.9,347.6,365.4,314.4,279.0,3463.7,3455.2,532.2,545.8,480.6,996.2,912.7,550.6,17.0,10.0,-23.0,14332.0,-7673.0,-2024.0,-252.0,-682.0,75.0,45.0,-21.0,-34.0,-32.0,10933.0,-9845.0,-1653.0,7017.0,-754.0,-106.0,59.0,1.0
2022-05-08 17:15:33.256512-07:00,738.9,756.3,983.3,1216.0,395.0,378.6,867.1,759.6,3458.9,3462.5,1849.8,821.9,655.4,3463.7,1761.8,961.1,3437.0,3451.6,402.8,339.8,347.6,360.7,318.2,298.2,3463.7,3455.2,532.2,545.8,480.6,1011.6,940.7,527.4,-33.0,-8.0,-30.0,14163.0,-7977.0,-2023.0,-359.0,-780.0,-17.0,-220.0,-26.0,2.0,24.0,10703.0,-10069.0,-1825.0,7011.0,-780.0,-104.0,14.0,1.0
2022-05-08 17:15:33.315878-07:00,738.9,756.3,983.3,1209.7,395.0,380.9,860.4,768.7,3458.9,3462.5,1849.8,836.1,655.4,3462.5,1711.0,968.8,3438.2,3435.8,398.1,339.8,346.0,360.7,318.2,298.2,3457.6,3454.0,532.2,545.8,479.8,1011.6,940.7,527.4,19.0,141.0,-121.0,13995.0,-8224.0,-2184.0,-429.0,-824.0,-548.0,-324.0,-2.0,16.0,-18.0,10442.0,-10315.0,-2039.0,6988.0,-1234.0,-129.0,-62.0,1.0
2022-05-08 17:15:33.376430-07:00,731.5,760.4,1037.5,1209.7,395.0,380.9,860.4,768.7,3452.8,3468.6,1824.6,836.1,660.3,3462.5,1711.0,968.8,3438.2,3435.8,398.1,337.5,346.0,360.0,312.0,289.8,3457.6,3454.0,532.2,533.8,479.8,1002.2,926.2,533.8,19.0,19.0,85.0,13621.0,-8698.0,-2611.0,-654.0,-1677.0,-600.0,-1143.0,12.0,-8.0,41.0,10025.0,-10742.0,-2357.0,6855.0,-1616.0,208.0,-192.0,1.0
2022-05-08 17:15:33.435904-07:00,731.5,760.4,1037.5,1228.4,395.0,385.6,880.6,778.6,3452.8,3468.6,1824.6,829.4,660.3,3467.4,1650.2,958.5,3441.9,3441.9,398.9,337.5,345.2,360.0,312.0,289.8,3452.8,3463.7,529.0,533.8,486.9,1002.2,926.2,533.8,-14.0,-109.0,56.0,13258.0,-9106.0,-2942.0,-1035.0,-1210.0,-176.0,-730.0,32.0,18.0,38.0,9695.0,-11112.0,-2591.0,6653.0,-1039.0,167.0,-103.0,1.0
2022-05-08 17:15:33.466143-07:00,736.5,751.3,1127.9,1228.4,398.9,385.6,880.6,778.6,3466.1,3466.1,1811.0,829.4,660.3,3467.4,1650.2,958.5,3441.9,3441.9,398.9,350.6,345.2,353.7,308.2,297.4,3452.8,3463.7,529.0,524.2,486.9,1001.3,941.5,532.2,8.0,-44.0,-56.0,13018.0,-9398.0,-3004.0,-1272.0,-886.0,112.0,-480.0,0.0,-63.0,-43.0,9455.0,-11353.0,-2749.0,6526.0,-973.0,102.0,-200.0,1.0
2022-05-08 17:15:33.526463-07:00,736.5,751.3,1127.9,1210.6,398.9,398.9,896.6,788.6,3466.1,3466.1,1811.0,829.4,660.3,3464.9,1606.8,949.2,3446.7,3428.6,406.7,350.6,346.8,353.7,308.2,297.4,3455.2,3451.6,539.4,524.2,484.5,1001.3,941.5,532.2,94.0,-21.0,-47.0,12814.0,-9642.0,-3027.0,-1446.0,-527.0,85.0,-42.0,21.0,-91.0,-27.0,9270.0,-11525.0,-2901.0,6423.0,-341.0,18.0,62.0,1.0
2022-05-08 17:15:33.556611-07:00,740.6,748.8,1171.8,1236.4,397.3,398.9,896.6,788.6,3468.6,3468.6,1810.0,824.4,660.3,3464.9,1606.8,949.2,3446.7,3428.6,406.7,358.4,344.5,356.8,306.7,299.7,3455.2,3451.6,539.4,531.4,481.4,1007.3,935.6,528.2,-14.0,55.0,15.0,12802.0,-9647.0,-3038.0,-1501.0,181.0,138.0,-103.0,5.0,29.0,-19.0,9234.0,-11531.0,-2928.0,6452.0,81.0,-79.0,18.0,1.0
2022-05-08 17:15:33.616274-07:00,740.6,748.8,1171.8,1236.4,398.1,402.0,888.2,787.7,3468.6,3468.6,1810.0,824.4,662.7,3468.6,1596.4,960.2,3440.7,3451.6,405.9,360.0,344.5,356.8,306.7,299.7,3449.1,3463.7,539.4,524.2,481.4,1007.3,935.6,528.2,-43.0,31.0,-11.0,12840.0,-9579.0,-3034.0,-1615.0,55.0,135.0,-257.0,-11.0,31.0,39.0,9255.0,-11513.0,-2934.0,6451.0,-19.0,-20.0,-44.0,1.0
2022-05-08 17:15:33.676474-07:00,735.6,755.4,1174.4,1267.6,398.1,402.0,888.2,787.7,3467.4,3472.2,1799.4,823.5,662.7,3468.6,1596.4,960.2,3440.7,3451.6,405.9,360.0,349.1,358.4,309.7,296.7,3449.1,3463.7,539.4,524.2,481.4,1008.2,928.8,533.8,-56.0,59.0,-79.0,12830.0,-9558.0,-3113.0,-1663.0,66.0,-298.0,-174.0,-13.0,9.0,69.0,9234.0,-11542.0,-2973.0,6412.0,-269.0,14.0,-141.0,1.0
2022-05-08 17:15:33.706650-07:00,735.6,755.4,1174.4,1267.6,396.5,409.8,889.0,786.9,3467.4,3472.2,1799.4,823.5,659.5,3460.1,1580.5,967.9,3449.1,3443.1,396.5,357.6,349.1,358.4,309.7,296.7,3457.6,3462.5,533.0,527.4,481.4,1008.2,928.8,533.8,-44.0,-55.0,-90.0,12666.0,-9684.0,-3412.0,-1604.0,-633.0,-910.0,-314.0,-18.0,11.0,-7.0,9005.0,-11748.0,-3155.0,6275.0,-1126.0,129.0,-165.0,1.0
2022-05-08 17:15:33.766303-07:00,738.9,751.3,1168.2,1255.1,396.5,409.8,889.0,786.9,3464.9,3467.4,1768.5,823.5,659.5,3460.1,1580.5,967.9,3449.1,3443.1,396.5,357.6,348.3,352.2,315.1,295.9,3457.6,3462.5,533.0,527.4,481.4,1032.3,915.2,534.6,22.0,-66.0,-68.0,12419.0,-9881.0,-3795.0,-1473.0,-342.0,-984.0,-198.0,-10.0,-25.0,-83.0,8739.0,-11953.0,-3361.0,6156.0,-759.0,-98.0,-188.0,1.0
2022-05-08 17:15:33.826672-07:00,738.9,751.3,1168.2,1255.1,394.2,417.6,875.5,784.4,3464.9,3467.4,1768.5,823.5,659.5,3467.4,1559.0,957.7,3441.9,3443.1,393.4,355.3,348.3,352.2,315.1,295.9,3463.7,3463.7,536.2,540.2,481.4,1032.3,915.2,534.6,17.0,-14.0,-38.0,12303.0,-9934.0,-4072.0,-1346.0,-23.0,-467.0,-151.0,-32.0,-14.0,-90.0,8583.0,-12014.0,-3558.0,6146.0,-310.0,-285.0,-185.0,1.0
2022-05-08 17:15:33.856721-07:00,735.6,758.7,1179.7,1250.6,394.2,417.6,875.5,783.6,3469.8,3474.6,1717.7,821.9,659.5,3467.4,1559.0,956.0,3439.5,3443.1,393.4,355.3,345.2,353.7,312.0,289.8,3460.1,3463.7,536.2,540.2,480.6,1057.3,908.4,529.0,-41.0,-3.0,-16.0,12268.0,-9929.0,-4192.0,-1331.0,-83.0,-246.0,-167.0,-23.0,28.0,0.0,8496.0,-12027.0,-3730.0,6140.0,-377.0,-218.0,-219.0,1.0
2022-05-08 17:15:33.917570-07:00,729.0,758.7,1179.7,1250.6,395.0,412.1,871.3,783.6,3464.9,3474.6,1717.7,821.9,660.3,3463.7,1539.4,956.0,3439.5,3443.1,400.4,351.4,345.2,353.7,312.0,294.4,3460.1,3457.6,530.6,539.4,480.6,1057.3,908.4,526.6,-49.0,34.0,-53.0,12217.0,-9960.0,-4257.0,-1363.0,-282.0,158.0,-94.0,17.0,75.0,-40.0,8403.0,-12050.0,-3882.0,6128.0,-651.0,-29.0,-276.0,1.0
2022-05-08 17:15:33.976325-07:00,729.0,758.7,1219.5,1254.2,395.0,412.1,871.3,776.9,3464.9,3464.9,1708.1,821.0,660.3,3463.7,1539.4,962.8,3437.0,3443.1,400.4,351.4,344.5,359.2,308.2,294.4,3464.9,3457.6,530.6,539.4,484.5,1059.9,919.4,526.6,33.0,-56.0,3.0,12049.0,-10179.0,-4200.0,-1422.0,-782.0,-122.0,174.0,8.0,3.0,-57.0,8165.0,-12196.0,-4127.0,5999.0,-761.0,-289.0,-282.0,1.0
2022-05-08 17:15:34.006672-07:00,735.6,758.7,1219.5,1254.2,391.1,415.3,866.3,776.9,3469.8,3464.9,1708.1,821.0,666.0,3473.4,1527.3,962.8,3437.0,3446.7,396.5,364.6,344.5,359.2,308.2,292.1,3464.9,3455.2,539.4,529.8,484.5,1059.9,919.4,530.6,158.0,-169.0,237.0,11949.0,-10363.0,-4025.0,-1438.0,-220.0,489.0,443.0,63.0,-255.0,29.0,8019.0,-12223.0,-4331.0,5997.0,39.0,-226.0,85.0,1.0
2022-05-08 17:15:34.066237-07:00,735.6,758.7,1187.6,1248.8,391.1,415.3,866.3,768.7,3469.8,3469.8,1783.9,831.9,666.0,3473.4,1527.3,1002.2,3447.9,3446.7,396.5,364.6,346.0,360.0,311.3,292.1,3467.4,3455.2,539.4,529.8,485.3,1045.2,912.7,530.6,84.0,35.0,29.0,12141.0,-10273.0,-3665.0,-1440.0,466.0,752.0,532.0,63.0,7.0,-1.0,8079.0,-12124.0,-4296.0,6143.0,435.0,-245.0,258.0,1.0
2022-05-08 17:15:34.096268-07:00,734.8,758.7,1187.6,1248.8,397.3,403.5,866.3,768.7,3473.4,3469.8,1783.9,831.9,679.1,3471.0,1576.8,1002.2,3447.9,3446.7,398.9,369.3,346.0,360.0,311.3,295.9,3467.4,3471.0,541.8,521.0,485.3,1045.2,912.7,539.4,47.0,-26.0,-11.0,12230.0,-10284.0,-3315.0,-1450.0,-342.0,457.0,478.0,20.0,-92.0,16.0,8079.0,-12093.0,-4195.0,6271.0,-264.0,34.0,374.0,1.0
2022-05-08 17:15:34.185997-07:00,734.8,752.9,1153.3,1247.1,397.3,403.5,866.3,764.5,3473.4,3466.1,1850.8,831.1,679.1,3471.0,1576.8,995.3,3446.7,3446.7,398.9,369.3,351.4,355.3,309.7,295.9,3452.8,3471.0,541.8,521.0,490.1,1035.7,893.2,539.4,56.0,-89.0,-23.0,12085.0,-10527.0,-3098.0,-1406.0,-812.0,78.0,479.0,0.0,-99.0,-31.0,7886.0,-12230.0,-4113.0,6305.0,-495.0,62.0,501.0,1.0
2022-05-08 17:15:34.216017-07:00,737.3,751.3,1153.3,1247.1,391.8,402.0,857.0,764.5,3463.7,3477.1,1850.8,831.1,684.0,3468.6,1579.6,995.3,3446.7,3438.2,403.5,375.5,351.4,355.3,305.9,299.7,3452.8,3468.6,539.4,528.2,490.1,1035.7,892.4,540.2,46.0,-98.0,21.0,11908.0,-10787.0,-2927.0,-1301.0,-473.0,19.0,549.0,-21.0,-101.0,-32.0,7665.0,-12371.0,-3998.0,6375.0,-236.0,-74.0,590.0,1.0
2022-05-08 17:15:34.336750-07:00,737.3,751.3,1138.4,1246.2,391.8,402.0,857.9,761.2,3463.7,3477.1,1877.2,848.6,684.0,3468.6,1588.0,989.3,3443.1,3443.1,403.5,375.5,342.9,361.5,305.9,299.7,3455.2,3466.1,539.4,528.2,486.1,1033.2,892.4,540.2,-14.0,31.0,37.0,11884.0,-10879.0,-2735.0,-1171.0,28.0,109.0,534.0,-13.0,-15.0,39.0,7569.0,-12392.0,-3845.0,6541.0,167.0,-208.0,528.0,1.0
2022-05-08 17:15:34.337818-07:00,734.0,753.8,1138.4,1246.2,395.7,402.0,857.9,761.2,3464.9,3467.4,1877.2,848.6,684.8,3474.6,1588.0,989.3,3443.1,3443.1,404.3,374.7,342.9,361.5,303.6,302.8,3455.2,3466.1,540.2,523.4,486.1,1033.2,891.5,533.8,-40.0,81.0,-17.0,11918.0,-10892.0,-2578.0,-1058.0,56.0,93.0,384.0,4.0,43.0,17.0,7513.0,-12382.0,-3703.0,6706.0,117.0,-169.0,427.0,1.0
2022-05-08 17:15:34.396378-07:00,734.0,753.8,1133.1,1236.4,395.7,402.0,862.1,778.6,3464.9,3467.4,1886.0,836.9,684.8,3474.6,1588.9,984.2,3445.5,3446.7,404.3,374.7,346.0,360.0,303.6,302.8,3461.3,3464.9,540.2,523.4,490.9,1025.4,891.5,533.8,-32.0,66.0,-24.0,11929.0,-10909.0,-2480.0,-981.0,13.0,9.0,240.0,10.0,48.0,0.0,7467.0,-12371.0,-3609.0,6827.0,102.0,-137.0,274.0,1.0
2022-05-08 17:15:34.459177-07:00,736.5,768.7,1133.1,1236.4,391.8,395.0,862.1,778.6,3464.9,3468.6,1886.0,836.9,685.6,3469.8,1588.9,984.2,3445.5,3446.7,398.1,375.5,346.0,360.0,299.0,296.7,3461.3,3464.9,536.2,513.9,490.9,1025.4,889.0,544.2,-28.0,62.0,1.0,11935.0,-10921.0,-2424.0,-925.0,-13.0,22.0,145.0,13.0,42.0,7.0,7439.0,-12353.0,-3551.0,6919.0,60.0,-120.0,168.0,1.0
2022-05-08 17:15:34.459840-07:00,736.5,768.7,1124.4,1233.7,391.8,395.0,859.5,776.1,3464.9,3468.6,1881.1,834.4,685.6,3469.8,1589.9,977.3,3428.6,3441.9,398.1,375.5,346.0,354.5,299.0,296.7,3447.9,3457.6,536.2,513.9,491.7,1017.6,889.0,544.2,-31.0,65.0,-17.0,11943.0,-10923.0,-2384.0,-896.0,49.0,-1.0,92.0,22.0,46.0,10.0,7429.0,-12335.0,-3513.0,6981.0,66.0,-77.0,103.0,1.0
2022-05-08 17:15:34.515965-07:00,745.5,757.9,1122.6,1233.7,394.2,398.1,859.5,776.1,3464.9,3468.6,1856.7,834.4,688.0,3474.6,1589.9,977.3,3428.6,3441.9,399.6,379.4,346.0,360.7,301.3,302.8,3447.9,3457.6,534.6,513.9,491.7,1006.5,889.8,544.2,-12.0,58.0,-34.0,11937.0,-10933.0,-2382.0,-858.0,-59.0,-83.0,45.0,16.0,24.0,-6.0,7404.0,-12334.0,-3510.0,7012.0,-81.0,-50.0,34.0,1.0
2022-05-08 17:15:34.606257-07:00,745.5,757.9,1122.6,1235.5,394.2,393.4,858.7,771.1,3464.9,3468.6,1856.7,837.7,688.0,3463.7,1572.1,984.2,3437.0,3439.5,398.1,379.4,348.3,360.7,301.3,302.8,3473.4,3451.6,539.4,513.9,484.5,1006.5,889.8,544.2,5.0,0.0,-13.0,11901.0,-10969.0,-2408.0,-827.0,-76.0,-80.0,25.0,7.0,-6.0,-24.0,7361.0,-12353.0,-3535.0,7012.0,-58.0,-36.0,10.0,1.0
2022-05-08 17:15:34.636228-07:00,742.2,753.8,1119.1,1235.5,394.2,393.4,858.7,771.1,3464.9,3457.6,1867.4,837.7,690.5,3463.7,1572.1,984.2,3437.0,3439.5,398.1,380.2,348.3,359.2,302.8,300.5,3473.4,3451.6,539.4,512.3,484.5,1007.3,872.1,542.6,4.0,16.0,-5.0,11905.0,-10966.0,-2414.0,-803.0,60.0,-29.0,31.0,15.0,4.0,-4.0,7361.0,-12347.0,-3535.0,7022.0,31.0,-30.0,20.0,1.0
2022-05-08 17:15:34.666204-07:00,742.2,753.8,1119.1,1235.5,394.2,398.9,855.3,777.8,3464.9,3457.6,1867.4,843.6,690.5,3464.9,1572.1,973.9,3444.3,3441.9,399.6,380.2,342.9,359.2,302.8,300.5,3464.9,3460.1,536.2,512.3,488.5,1007.3,872.1,542.6,-4.0,35.0,-27.0,11911.0,-10960.0,-2415.0,-779.0,-7.0,-55.0,48.0,14.0,15.0,-5.0,7350.0,-12349.0,-3534.0,7030.0,-46.0,-15.0,15.0,1.0
2022-05-08 17:15:34.726336-07:00,737.3,757.9,1117.4,1235.5,391.8,398.9,855.3,777.8,3468.6,3460.1,1850.8,843.6,682.3,3464.9,1572.1,973.9,3444.3,3441.9,399.6,372.4,342.9,354.5,298.2,299.0,3464.9,3460.1,536.2,505.1,488.5,1008.2,877.2,537.0,14.0,-9.0,-1.0,11888.0,-10983.0,-2429.0,-759.0,-73.0,-38.0,1.0,3.0,-15.0,-22.0,7324.0,-12364.0,-3545.0,7025.0,-63.0,3.0,17.0,1.0
2022-05-08 17:15:34.756649-07:00,737.3,757.9,1117.4,1228.4,391.8,396.5,849.5,778.6,3468.6,3460.1,1850.8,835.2,682.3,3455.2,1559.9,971.3,3437.0,3431.0,398.1,372.4,346.0,354.5,298.2,299.0,3462.5,3455.2,533.0,505.1,489.3,1008.2,877.2,537.0,-2.0,1.0,-6.0,11891.0,-10983.0,-2419.0,-749.0,54.0,-6.0,55.0,4.0,-11.0,5.0,7316.0,-12368.0,-3538.0,7031.0,0.0,-15.0,31.0,1.0
2022-05-08 17:15:34.906317-07:00,738.9,754.6,1109.5,1217.7,394.2,396.5,849.5,778.6,3467.4,3471.0,1845.0,835.2,684.8,3455.2,1559.9,971.3,3437.0,3431.0,398.1,374.7,346.0,361.5,299.7,299.7,3462.5,3455.2,533.0,502.8,489.3,1003.0,884.8,538.6,1.0,11.0,3.0,11896.0,-10981.0,-2410.0,-728.0,-20.0,-48.0,25.0,0.0,-21.0,6.0,7310.0,-12370.0,-3537.0,7034.0,-41.0,-5.0,8.0,1.0
2022-05-08 17:15:34.909024-07:00,738.9,754.6,1109.5,1217.7,391.1,388.7,855.3,776.1,3467.4,3471.0,1845.0,836.9,685.6,3463.7,1555.3,971.3,3437.0,3440.7,396.5,377.8,341.4,361.5,299.7,299.7,3461.3,3460.1,533.8,494.8,488.5,1003.0,884.8,538.6,10.0,-20.0,9.0,11887.0,-10990.0,-2416.0,-719.0,-3.0,-8.0,29.0,2.0,-26.0,0.0,7297.0,-12379.0,-3543.0,7029.0,-11.0,10.0,16.0,1.0
2022-05-08 17:15:35.026784-07:00,738.9,755.4,1106.0,1225.7,391.1,388.7,855.3,776.1,3468.6,3462.5,1840.1,836.9,685.6,3463.7,1555.3,971.3,3437.0,3440.7,396.5,377.8,349.1,355.3,297.4,303.6,3461.3,3460.1,533.8,494.8,483.0,997.0,871.3,535.4,15.0,11.0,1.0,11897.0,-10983.0,-2405.0,-700.0,24.0,-8.0,49.0,8.0,-12.0,-14.0,7295.0,-12379.0,-3541.0,7032.0,-9.0,-7.0,18.0,1.0
2022-05-08 17:15:35.027814-07:00,738.9,755.4,1106.0,1225.7,391.1,402.8,849.5,779.4,3468.6,3462.5,1840.1,836.9,686.4,3464.9,1552.5,965.4,3443.1,3446.7,398.1,373.9,349.1,355.3,297.4,303.6,3463.7,3457.6,533.8,500.4,483.0,997.0,871.3,535.4,8.0,3.0,2.0,11889.0,-10993.0,-2403.0,-692.0,-49.0,-18.0,14.0,4.0,-16.0,-3.0,7285.0,-12385.0,-3542.0,7030.0,-34.0,8.0,13.0,1.0
2022-05-08 17:15:35.028913-07:00,738.9,753.8,1099.9,1223.9,391.1,402.8,849.5,779.4,3469.8,3475.9,1828.4,834.4,686.4,3464.9,1552.5,965.4,3443.1,3446.7,398.1,373.9,342.1,357.6,299.0,293.6,3463.7,3457.6,533.8,500.4,490.1,998.7,862.1,535.4,7.0,-11.0,7.0,11885.0,-10998.0,-2397.0,-686.0,17.0,6.0,32.0,1.0,-22.0,0.0,7283.0,-12388.0,-3535.0,7030.0,24.0,10.0,28.0,1.0
2022-05-08 17:15:35.056682-07:00,738.9,753.8,1099.9,1223.9,389.5,392.6,850.3,775.3,3469.8,3475.9,1828.4,834.4,679.9,3462.5,1553.4,974.8,3444.3,3454.0,397.3,374.7,342.1,357.6,299.0,293.6,3461.3,3467.4,539.4,499.6,490.1,998.7,862.1,535.4,4.0,15.0,-9.0,11893.0,-10992.0,-2391.0,-677.0,-1.0,-6.0,16.0,6.0,-9.0,-4.0,7284.0,-12388.0,-3529.0,7032.0,-10.0,9.0,5.0,1.0
2022-05-08 17:15:35.176957-07:00,728.2,750.5,1101.7,1220.4,389.5,392.6,850.3,775.3,3463.7,3460.1,1824.6,841.9,679.9,3462.5,1553.4,974.8,3444.3,3454.0,397.3,374.7,341.4,351.4,297.4,299.0,3461.3,3467.4,539.4,499.6,490.1,998.7,859.5,534.6,14.0,0.0,-4.0,11890.0,-10996.0,-2390.0,-675.0,15.0,-12.0,18.0,5.0,-24.0,-5.0,7283.0,-12390.0,-3532.0,7030.0,12.0,-1.0,7.0,1.0
2022-05-08 17:15:35.206244-07:00,731.5,750.5,1101.7,1220.4,388.7,392.6,852.8,767.0,3468.6,3460.1,1824.6,841.9,683.1,3467.4,1540.3,967.1,3441.9,3445.5,401.2,373.9,341.4,351.4,297.4,298.2,3462.5,3460.1,531.4,491.7,490.1,998.7,859.5,535.4,-7.0,4.0,0.0,11899.0,-10985.0,-2391.0,-671.0,45.0,-6.0,6.0,0.0,-10.0,5.0,7291.0,-12386.0,-3525.0,7031.0,30.0,16.0,12.0,1.0
2022-05-08 17:15:35.236827-07:00,731.5,750.5,1101.7,1214.2,388.7,392.6,852.8,770.3,3468.6,3466.1,1828.4,831.1,683.1,3467.4,1540.3,967.9,3445.5,3445.5,401.2,373.9,341.4,354.5,300.5,298.2,3466.1,3460.1,531.4,491.7,482.2,994.5,860.4,535.4,9.0,2.0,-10.0,11909.0,-10975.0,-2393.0,-657.0,15.0,-21.0,17.0,1.0,-13.0,-20.0,7295.0,-12385.0,-3517.0,7033.0,0.0,-4.0,11.0,1.0
2022-05-08 17:15:35.296777-07:00,737.3,750.5,1101.7,1214.2,393.4,388.7,852.8,770.3,3455.2,3466.1,1828.4,831.1,680.7,3462.5,1545.9,967.9,3445.5,3452.8,402.0,366.9,341.4,354.5,300.5,300.5,3466.1,3471.0,531.4,486.1,482.2,994.5,860.4,533.8,-3.0,2.0,-8.0,11908.0,-10976.0,-2396.0,-647.0,-3.0,-27.0,16.0,-2.0,-3.0,-5.0,7295.0,-12385.0,-3517.0,7032.0,-7.0,-3.0,7.0,1.0
2022-05-08 17:15:35.298105-07:00,737.3,751.3,1097.3,1221.3,393.4,388.7,852.8,771.1,3455.2,3464.9,1818.7,831.1,680.7,3462.5,1545.9,968.8,3441.9,3452.8,402.0,366.9,341.4,351.4,294.4,300.5,3460.1,3471.0,531.4,486.1,486.9,997.9,858.7,533.8,-3.0,-2.0,-8.0,11899.0,-10986.0,-2400.0,-640.0,-41.0,-15.0,0.0,-8.0,-13.0,-6.0,7288.0,-12390.0,-3521.0,7030.0,-29.0,14.0,8.0,1.0
2022-05-08 17:15:35.356035-07:00,735.6,751.3,1097.3,1221.3,391.1,390.3,846.1,771.1,3458.9,3464.9,1818.7,831.1,679.1,3471.0,1542.2,968.8,3441.9,3449.1,402.0,373.9,341.4,351.4,294.4,291.3,3460.1,3462.5,531.4,492.5,486.9,997.9,858.7,528.2,-1.0,-1.0,-11.0,11893.0,-10992.0,-2400.0,-636.0,1.0,5.0,23.0,-5.0,-14.0,-5.0,7283.0,-12393.0,-3524.0,7028.0,-3.0,-7.0,13.0,1.0
2022-05-08 17:15:35.446346-07:00,735.6,756.3,1100.8,1216.0,391.1,390.3,846.1,764.5,3458.9,3464.9,1810.0,836.1,679.1,3471.0,1542.2,959.4,3433.4,3449.1,402.0,373.9,344.5,353.7,294.4,291.3,3457.6,3462.5,531.4,492.5,483.0,993.6,853.7,528.2,-4.0,6.0,4.0,11894.0,-10993.0,-2393.0,-629.0,-5.0,-5.0,24.0,0.0,-10.0,2.0,7281.0,-12392.0,-3523.0,7032.0,-6.0,-3.0,14.0,1.0
2022-05-08 17:15:35.447810-07:00,738.9,754.6,1100.8,1216.0,391.8,388.7,847.0,764.5,3467.4,3471.0,1810.0,836.1,683.1,3464.9,1537.6,959.4,3433.4,3450.4,402.0,369.3,344.5,353.7,292.8,295.1,3457.6,3456.4,529.8,486.1,483.0,993.6,852.8,527.4,4.0,4.0,-3.0,11884.0,-11004.0,-2394.0,-617.0,-54.0,-29.0,14.0,4.0,-3.0,-8.0,7268.0,-12399.0,-3522.0,7033.0,-51.0,13.0,20.0,1.0
2022-05-08 17:15:35.506160-07:00,738.9,754.6,1099.9,1213.3,391.8,388.7,850.3,767.0,3467.4,3471.0,1809.0,832.7,683.1,3464.9,1535.7,958.5,3434.6,3446.7,402.0,369.3,346.8,353.7,292.8,295.1,3454.0,3447.9,529.8,486.1,490.1,990.2,852.8,527.4,9.0,-4.0,-1.0,11870.0,-11019.0,-2399.0,-605.0,-12.0,-30.0,27.0,6.0,-9.0,-5.0,7250.0,-12411.0,-3525.0,7029.0,-8.0,-11.0,15.0,1.0
2022-05-08 17:15:35.566025-07:00,735.6,755.4,1099.9,1213.3,391.8,386.4,850.3,767.0,3468.6,3463.7,1809.0,832.7,676.6,3467.4,1535.7,958.5,3434.6,3446.7,402.8,373.2,346.8,353.7,294.4,294.4,3454.0,3447.9,534.6,488.5,490.1,990.2,851.1,527.4,5.0,22.0,4.0,11875.0,-11016.0,-2392.0,-585.0,29.0,-19.0,47.0,11.0,-2.0,-5.0,7249.0,-12411.0,-3521.0,7033.0,6.0,-8.0,17.0,1.0
2022-05-08 17:15:35.596608-07:00,735.6,755.4,1095.6,1216.0,391.8,386.4,853.7,767.0,3468.6,3463.7,1813.9,835.2,676.6,3467.4,1541.3,968.8,3440.7,3449.1,402.8,373.2,350.6,358.4,294.4,294.4,3463.7,3462.5,534.6,488.5,487.7,993.6,851.1,527.4,3.0,8.0,0.0,11869.0,-11022.0,-2397.0,-581.0,-41.0,-18.0,-22.0,8.0,-4.0,-4.0,7244.0,-12415.0,-3523.0,7030.0,-31.0,16.0,-9.0,1.0
2022-05-08 17:15:35.716423-07:00,738.1,755.4,1095.6,1216.0,388.7,384.8,853.7,767.0,3467.4,3467.4,1813.9,835.2,677.4,3463.7,1541.3,968.8,3440.7,3449.1,411.4,370.0,350.6,358.4,297.4,296.7,3463.7,3462.5,525.8,494.0,487.7,993.6,855.3,537.8,7.0,0.0,5.0,11870.0,-11020.0,-2399.0,-586.0,42.0,16.0,0.0,5.0,-12.0,0.0,7248.0,-12415.0,-3523.0,7026.0,32.0,8.0,-6.0,1.0
2022-05-08 17:15:35.717650-07:00,738.1,755.4,1097.3,1215.1,388.7,384.8,842.8,771.1,3467.4,3467.4,1802.3,836.1,677.4,3463.7,1529.2,957.7,3444.3,3443.1,411.4,370.0,345.2,350.6,297.4,296.7,3457.6,3460.1,525.8,494.0,483.0,988.5,855.3,537.8,0.0,0.0,4.0,11889.0,-11000.0,-2398.0,-582.0,65.0,-15.0,7.0,5.0,-12.0,1.0,7258.0,-12412.0,-3516.0,7024.0,7.0,12.0,-3.0,1.0
2022-05-08 17:15:35.746597-07:00,734.0,755.4,1097.3,1215.1,390.3,385.6,842.8,771.1,3466.1,3457.6,1802.3,836.1,675.8,3473.4,1529.2,957.7,3444.3,3443.1,396.5,374.7,345.2,350.6,298.2,293.6,3457.6,3460.1,531.4,493.2,483.0,988.5,847.8,524.2,14.0,-8.0,-11.0,11896.0,-10992.0,-2401.0,-573.0,20.0,-16.0,18.0,4.0,-22.0,-15.0,7259.0,-12415.0,-3513.0,7019.0,-11.0,4.0,4.0,1.0
2022-05-08 17:15:35.835831-07:00,734.0,755.4,1091.2,1226.6,390.3,385.6,851.1,778.6,3466.1,3457.6,1805.2,838.6,675.8,3471.0,1521.8,967.1,3449.1,3440.7,396.5,374.7,344.5,354.5,298.2,293.6,3463.7,3457.6,529.0,493.2,483.7,992.7,847.8,524.2,4.0,-15.0,-16.0,11900.0,-10989.0,-2399.0,-564.0,12.0,-14.0,25.0,-4.0,-18.0,-9.0,7255.0,-12417.0,-3513.0,7019.0,0.0,0.0,13.0,1.0
2022-05-08 17:15:35.866045-07:00,735.6,752.1,1095.6,1226.6,385.6,385.6,851.1,778.6,3462.5,3471.0,1807.1,838.6,675.0,3471.0,1521.8,967.1,3449.1,3440.7,396.5,366.9,344.5,353.0,294.4,299.0,3463.7,3457.6,529.0,486.9,483.7,991.9,858.7,524.2,-2.0,5.0,-1.0,11897.0,-10992.0,-2401.0,-548.0,-21.0,-35.0,25.0,0.0,-11.0,-4.0,7248.0,-12419.0,-3513.0,7024.0,-16.0,-27.0,16.0,1.0
2022-05-08 17:15:35.896015-07:00,735.6,752.1,1095.6,1216.0,385.6,390.3,847.0,767.8,3462.5,3471.0,1807.1,831.1,675.0,3471.0,1521.8,963.7,3449.1,3438.2,404.3,366.9,342.9,353.0,294.4,299.0,3457.6,3451.6,537.8,486.9,483.0,991.9,858.7,524.2,5.0,-7.0,2.0,11894.0,-10996.0,-2404.0,-526.0,15.0,-39.0,41.0,-1.0,-9.0,-4.0,7238.0,-12419.0,-3513.0,7033.0,1.0,-26.0,23.0,1.0
2022-05-08 17:15:36.046245-07:00,736.5,753.8,1092.1,1216.0,387.9,390.3,847.0,767.8,3473.4,3469.8,1796.5,831.1,675.0,3471.0,1521.8,963.7,3449.1,3438.2,404.3,370.8,342.9,349.1,292.8,298.2,3457.6,3451.6,537.8,483.0,483.0,985.0,863.7,531.4,-2.0,15.0,-4.0,11894.0,-10996.0,-2407.0,-506.0,-4.0,-30.0,18.0,6.0,2.0,-5.0,7233.0,-12419.0,-3509.0,7041.0,-6.0,-7.0,15.0,1.0
2022-05-08 17:15:36.136103-07:00,736.5,753.8,1092.1,1210.6,387.9,382.5,845.3,772.0,3473.4,3469.8,1796.5,834.4,675.0,3473.4,1520.8,967.1,3443.1,3438.2,398.1,370.8,341.4,349.1,292.8,298.2,3452.8,3449.1,529.0,483.0,486.1,985.0,863.7,531.4,-1.0,10.0,0.0,11892.0,-10999.0,-2408.0,-498.0,-9.0,-4.0,8.0,5.0,-5.0,-1.0,7230.0,-12420.0,-3510.0,7042.0,-2.0,-1.0,-3.0,1.0
2022-05-08 17:15:36.286414-07:00,737.3,750.5,1089.5,1210.6,385.6,382.5,845.3,772.0,3468.6,3466.1,1787.8,834.4,679.1,3473.4,1520.8,967.1,3443.1,3438.2,398.1,369.3,341.4,353.0,293.6,295.1,3452.8,3449.1,529.0,479.8,486.1,979.9,857.9,528.2,-2.0,11.0,9.0,11892.0,-10999.0,-2407.0,-499.0,7.0,11.0,-3.0,10.0,-2.0,3.0,7231.0,-12420.0,-3509.0,7041.0,5.0,14.0,-4.0,1.0
2022-05-08 17:15:36.406035-07:00,737.3,750.5,1089.5,1213.3,393.4,387.9,842.8,772.0,3468.6,3466.1,1787.8,832.7,683.1,3467.4,1517.1,962.0,3445.5,3438.2,398.1,368.5,342.1,353.0,293.6,295.1,3455.2,3458.9,525.8,483.7,484.5,979.9,857.9,528.2,2.0,10.0,-3.0,11892.0,-10998.0,-2408.0,-502.0,-6.0,0.0,-13.0,12.0,-4.0,-3.0,7232.0,-12423.0,-3510.0,7033.0,-11.0,16.0,-19.0,1.0
2022-05-08 17:15:36.407634-07:00,738.1,747.2,1089.5,1210.6,393.4,387.9,842.8,772.0,3457.6,3462.5,1803.2,836.9,683.1,3467.4,1517.1,962.0,3445.5,3438.2,398.1,368.5,349.1,353.0,299.7,296.7,3455.2,3458.9,525.8,483.7,486.1,986.7,867.1,529.0,4.0,3.0,3.0,11889.0,-11001.0,-2412.0,-502.0,-2.0,-12.0,8.0,9.0,-6.0,0.0,7232.0,-12428.0,-3518.0,7021.0,-11.0,16.0,-24.0,1.0
2022-05-08 17:15:36.409090-07:00,738.1,747.2,1089.5,1210.6,392.6,380.9,846.1,762.9,3457.6,3462.5,1803.2,836.9,674.2,3458.9,1526.4,955.1,3456.4,3449.1,398.9,369.3,349.1,353.0,299.7,296.7,3469.8,3463.7,528.2,484.5,486.1,986.7,867.1,529.0,6.0,-6.0,2.0,11902.0,-10989.0,-2405.0,-491.0,66.0,-9.0,28.0,3.0,-17.0,-8.0,7243.0,-12424.0,-3519.0,7017.0,24.0,-3.0,-13.0,1.0
2022-05-08 17:15:36.410296-07:00,738.9,748.8,1090.3,1224.8,392.6,380.9,846.1,762.9,3467.4,3456.4,1786.8,832.7,674.2,3458.9,1526.4,955.1,3456.4,3449.1,398.9,369.3,349.1,349.9,292.1,299.7,3469.8,3463.7,528.2,484.5,483.7,988.5,857.9,526.6,5.0,0.0,-15.0,11916.0,-10975.0,-2400.0,-479.0,15.0,-19.0,14.0,5.0,-14.0,-10.0,7247.0,-12423.0,-3520.0,7015.0,-6.0,17.0,-11.0,1.0
2022-05-08 17:15:36.410923-07:00,738.9,748.8,1090.3,1224.8,392.6,380.9,846.1,762.9,3467.4,3456.4,1786.8,832.7,674.2,3458.9,1526.4,955.1,3456.4,3449.1,398.9,369.3,349.1,349.9,292.1,299.7,3469.8,3463.7,528.2,484.5,483.7,988.5,857.9,526.6,5.0,0.0,-15.0,11916.0,-10975.0,-2400.0,-479.0,15.0,-19.0,14.0,5.0,-14.0,-10.0,7247.0,-12423.0,-3520.0,7015.0,-6.0,17.0,-11.0,1.0
2022-05-08 17:15:36.436390-07:00,736.5,751.3,1089.5,1205.3,388.7,381.7,842.8,764.5,3466.1,3469.8,1788.7,831.1,682.3,3458.9,1520.8,962.8,3443.1,3455.2,397.3,366.2,341.4,349.1,296.7,299.7,3463.7,3458.9,524.2,486.9,483.0,983.3,864.6,531.4,-8.0,5.0,0.0,11904.0,-10987.0,-2410.0,-462.0,-19.0,-12.0,16.0,4.0,-1.0,5.0,7235.0,-12434.0,-3518.0,7007.0,-16.0,6.0,1.0,1.0
2022-05-08 17:15:36.437375-07:00,736.5,751.3,1089.5,1205.3,388.7,381.7,842.8,764.5,3466.1,3469.8,1788.7,831.1,682.3,3458.9,1520.8,962.8,3443.1,3455.2,397.3,366.2,341.4,349.1,296.7,299.7,3463.7,3458.9,524.2,486.9,483.0,983.3,864.6,531.4,-8.0,5.0,0.0,11904.0,-10987.0,-2410.0,-462.0,-19.0,-12.0,16.0,4.0,-1.0,5.0,7235.0,-12434.0,-3518.0,7007.0,-16.0,6.0,1.0,1.0
2022-05-08 17:15:36.556838-07:00,735.6,749.6,1089.5,1205.3,385.6,386.4,841.1,768.7,3468.6,3473.4,1784.9,834.4,677.4,3474.6,1511.5,966.2,3449.1,3440.7,399.6,366.2,342.1,351.4,295.1,292.8,3457.6,3457.6,529.8,479.8,486.1,985.9,863.7,526.6,-29.0,47.0,9.0,11899.0,-10992.0,-2413.0,-455.0,16.0,3.0,-8.0,24.0,31.0,35.0,7247.0,-12437.0,-3530.0,6984.0,5.0,51.0,-86.0,1.0
2022-05-08 17:15:36.557997-07:00,735.6,733.2,1086.8,1209.7,385.6,386.4,841.1,770.3,3468.6,3462.5,1785.8,831.1,677.4,3474.6,1511.5,957.7,3444.3,3440.7,399.6,366.2,339.8,349.9,293.6,292.8,3463.7,3457.6,529.8,479.8,483.7,990.2,858.7,526.6,-13.0,92.0,9.0,11903.0,-10986.0,-2418.0,-453.0,-17.0,-11.0,-56.0,35.0,35.0,22.0,7279.0,-12434.0,-3558.0,6941.0,7.0,94.0,-184.0,1.0
2022-05-08 17:15:36.676443-07:00,736.5,733.2,1086.8,1209.7,403.5,385.6,841.1,770.3,3467.4,3462.5,1785.8,831.1,688.0,3467.4,1517.1,957.7,3444.3,3443.1,395.0,363.1,339.8,349.9,293.6,295.1,3463.7,3466.1,530.6,486.9,483.7,990.2,858.7,522.6,-52.0,77.0,22.0,11898.0,-10983.0,-2448.0,-485.0,8.0,-13.0,-127.0,44.0,58.0,51.0,7338.0,-12430.0,-3612.0,6858.0,-7.0,147.0,-292.0,1.0
2022-05-08 17:15:36.677284-07:00,736.5,749.6,1083.4,1204.4,403.5,385.6,841.1,767.8,3467.4,3467.4,1791.6,835.2,688.0,3467.4,1517.1,958.5,3444.3,3443.1,395.0,363.1,342.9,351.4,293.6,295.1,3466.1,3466.1,530.6,486.9,474.3,990.2,860.4,522.6,-33.0,124.0,-10.0,11911.0,-10962.0,-2479.0,-489.0,39.0,-129.0,-5.0,22.0,61.0,39.0,7412.0,-12415.0,-3705.0,6755.0,-11.0,46.0,-407.0,1.0
