Time,P0,P1,P2,P3,P4,P5,P6,P7,P8,P9,P10,P11,P12,P13,P14,P15,P16,P17,P18,P19,P20,P21,P22,P23,P24,P25,P26,P27,P28,P29,P30,P31,ECG,AX0,AY0,AZ0,QW0,QX0,QY0,QZ0,GX0,GY0,GZ0,AX1,AY1,AZ1,QW1,QX1,QY1,QZ1,GX1,GY1,GZ1
2022-05-08 18:12:19.062633-07:00,835.2,813.5,1327.8,922.8,709.3,472.7,1404.0,950.0,3469.8,3478.3,621.4,859.5,409.0,3496.6,744.7,745.5,3479.5,3477.1,377.0,553.8,385.6,483.7,231.7,238.6,3479.5,3486.8,565.0,430.9,678.2,1004.8,1086.8,494.0,79.0,-103.0,-10.0,13223.0,8343.0,4765.0,-1141.0,13.0,57.0,105.0,50.0,-78.0,-44.0,13775.0,7465.0,-919.0,-4703.0,68.0,-55.0,96.0,1.0
2022-05-08 18:12:19.063892-07:00,841.9,810.2,1335.0,924.5,709.3,472.7,1404.0,950.0,3478.3,3475.9,619.7,851.1,409.0,3496.6,744.7,745.5,3479.5,3477.1,377.0,553.8,389.5,486.1,234.8,231.0,3479.5,3486.8,565.0,430.9,679.1,1009.0,1082.5,496.4,15.0,-18.0,-16.0,13221.0,8383.0,4715.0,-1069.0,61.0,-40.0,280.0,27.0,-19.0,-12.0,13773.0,7488.0,-1011.0,-4652.0,154.0,-105.0,208.0,1.0
2022-05-08 18:12:19.121516-07:00,841.9,810.2,1335.0,924.5,707.7,477.4,1409.4,937.3,3478.3,3475.9,619.7,851.1,411.4,3496.6,748.8,743.0,3480.7,3477.1,377.0,550.6,389.5,486.1,234.8,231.0,3484.4,3479.5,563.4,430.2,679.1,1009.0,1082.5,496.4,-108.0,193.0,-5.0,13232.0,8432.0,4612.0,-989.0,16.0,-134.0,251.0,-45.0,142.0,64.0,13767.0,7520.0,-1095.0,-4598.0,85.0,-54.0,122.0,1.0
2022-05-08 18:12:19.185662-07:00,832.7,808.5,1335.9,919.4,707.7,477.4,1409.4,937.3,3485.6,3483.2,624.6,862.1,411.4,3496.6,748.8,743.0,3480.7,3477.1,377.0,550.6,390.3,486.1,234.0,231.7,3484.4,3479.5,563.4,430.2,681.5,1007.3,1081.6,491.7,-50.0,27.0,-5.0,13227.0,8444.0,4592.0,-1042.0,37.0,-84.0,-220.0,-37.0,1.0,35.0,13747.0,7537.0,-1100.0,-4630.0,-1.0,-51.0,-172.0,1.0
2022-05-08 18:12:19.211542-07:00,832.7,808.5,1335.9,919.4,707.7,467.1,1404.0,940.7,3485.6,3483.2,624.6,862.1,404.3,3499.0,752.1,748.0,3473.4,3471.0,373.9,552.2,390.3,486.1,234.0,231.7,3485.6,3479.5,562.6,431.7,681.5,1007.3,1081.6,491.7,13.0,-90.0,20.0,13245.0,8413.0,4584.0,-1107.0,-59.0,-158.0,-18.0,25.0,-49.0,7.0,13748.0,7501.0,-1095.0,-4685.0,-71.0,-65.0,-34.0,1.0
2022-05-08 18:12:19.331490-07:00,833.6,811.9,1333.2,920.3,707.7,467.1,1404.0,940.7,3478.3,3473.4,623.8,857.9,404.3,3499.0,752.1,748.0,3473.4,3471.0,373.9,552.2,391.1,484.5,233.3,234.8,3485.6,3479.5,562.6,431.7,683.1,1003.0,1084.2,486.1,4.0,40.0,42.0,13267.0,8404.0,4535.0,-1110.0,1.0,-1.0,75.0,27.0,28.0,10.0,13750.0,7500.0,-1104.0,-4680.0,42.0,33.0,27.0,1.0
2022-05-08 18:12:19.391531-07:00,834.4,811.9,1333.2,920.3,708.5,471.9,1406.7,941.5,3488.0,3473.4,623.8,857.9,405.1,3500.2,749.6,747.2,3469.8,3477.1,377.8,551.4,391.1,484.5,233.3,233.3,3479.5,3477.1,560.2,429.4,683.1,1003.0,1084.2,483.0,17.0,-19.0,-9.0,13250.0,8425.0,4552.0,-1080.0,77.0,156.0,41.0,16.0,-11.0,-9.0,13736.0,7541.0,-1090.0,-4658.0,105.0,83.0,16.0,1.0
2022-05-08 18:12:19.392527-07:00,834.4,817.7,1339.5,922.8,708.5,471.9,1406.7,940.7,3488.0,3480.7,626.2,858.7,405.1,3500.2,749.6,744.7,3490.5,3477.1,377.8,551.4,391.8,486.9,229.5,233.3,3481.9,3477.1,560.2,429.4,680.7,1003.9,1084.2,483.0,-18.0,-4.0,-43.0,13228.0,8455.0,4570.0,-1036.0,-4.0,21.0,82.0,-17.0,-2.0,-7.0,13728.0,7571.0,-1085.0,-4633.0,58.0,54.0,55.0,1.0
2022-05-08 18:12:19.421612-07:00,833.6,817.7,1339.5,922.8,708.5,475.0,1397.6,940.7,3475.9,3480.7,626.2,858.7,405.9,3495.3,747.2,744.7,3490.5,3485.6,377.8,546.6,391.8,486.9,229.5,231.0,3481.9,3483.2,566.6,430.2,680.7,1003.9,1084.2,486.9,-2.0,9.0,-20.0,13237.0,8446.0,4567.0,-1015.0,-54.0,22.0,-13.0,3.0,6.0,-7.0,13735.0,7574.0,-1085.0,-4609.0,-48.0,7.0,35.0,1.0
2022-05-08 18:12:19.481322-07:00,833.6,821.0,1332.3,920.3,708.5,475.0,1397.6,941.5,3475.9,3467.4,622.2,859.5,405.9,3495.3,747.2,747.2,3479.5,3485.6,377.8,546.6,388.7,479.8,233.3,231.0,3483.2,3483.2,566.6,430.2,679.1,1005.6,1086.0,486.9,6.0,1.0,-13.0,13246.0,8430.0,4570.0,-1010.0,-81.0,-42.0,3.0,19.0,0.0,0.0,13748.0,7557.0,-1088.0,-4599.0,-66.0,-11.0,32.0,1.0
2022-05-08 18:12:19.511734-07:00,831.1,821.0,1332.3,920.3,706.0,473.5,1401.2,941.5,3475.9,3467.4,622.2,859.5,408.2,3502.7,748.0,747.2,3479.5,3479.5,375.5,549.8,388.7,479.8,233.3,232.5,3483.2,3481.9,562.6,404.3,679.1,1005.6,1086.0,486.9,2.0,8.0,1.0,13273.0,8397.0,4554.0,-1010.0,-80.0,-36.0,-7.0,11.0,6.0,0.0,13769.0,7523.0,-1093.0,-4589.0,-84.0,-21.0,31.0,1.0
2022-05-08 18:12:19.632148-07:00,831.1,811.0,1335.0,926.2,706.0,473.5,1401.2,939.8,3475.9,3479.5,621.4,857.0,408.2,3502.7,748.0,747.2,3472.2,3479.5,375.5,549.8,387.9,490.9,228.7,232.5,3488.0,3481.9,562.6,404.3,677.4,999.6,1082.5,486.9,-1.0,4.0,-5.0,13291.0,8371.0,4549.0,-1015.0,-79.0,-31.0,-35.0,11.0,-2.0,6.0,13787.0,7492.0,-1097.0,-4587.0,-81.0,-21.0,10.0,1.0
2022-05-08 18:12:19.721784-07:00,831.1,810.2,1335.0,926.2,715.1,478.2,1406.7,939.8,3479.5,3477.1,621.4,857.0,413.7,3494.1,748.0,747.2,3472.2,3472.2,380.2,552.2,387.9,490.9,230.2,234.8,3488.0,3491.7,562.6,430.9,677.4,999.6,1083.4,488.5,-7.0,-5.0,-5.0,13314.0,8336.0,4543.0,-1023.0,-79.0,-36.0,-18.0,0.0,-6.0,4.0,13805.0,7455.0,-1100.0,-4589.0,-87.0,-34.0,21.0,1.0
2022-05-08 18:12:19.724340-07:00,831.1,810.2,1335.9,921.1,715.1,478.2,1409.4,939.8,3479.5,3477.1,617.3,862.1,413.7,3494.1,748.0,743.9,3480.7,3479.5,380.2,552.2,392.6,488.5,230.2,234.8,3481.9,3488.0,562.6,430.9,679.9,1005.6,1083.4,488.5,-17.0,0.0,-9.0,13332.0,8310.0,4538.0,-1026.0,-76.0,-28.0,-11.0,0.0,-9.0,9.0,13820.0,7424.0,-1106.0,-4595.0,-75.0,-46.0,-2.0,1.0
2022-05-08 18:12:19.724938-07:00,833.6,815.2,1335.9,921.1,704.4,471.1,1409.4,939.8,3478.3,3472.2,617.3,862.1,402.8,3494.1,748.0,743.9,3480.7,3479.5,377.0,554.6,392.6,488.5,228.7,233.3,3481.9,3488.0,567.4,427.8,679.9,1005.6,1081.6,486.9,-13.0,-6.0,-5.0,13352.0,8280.0,4530.0,-1037.0,-40.0,-75.0,-47.0,-3.0,-5.0,12.0,13831.0,7391.0,-1116.0,-4613.0,-89.0,-61.0,-11.0,1.0
2022-05-08 18:12:19.781517-07:00,833.6,815.2,1339.5,922.0,704.4,471.1,1402.1,933.9,3478.3,3472.2,618.9,865.4,402.8,3494.1,747.2,747.2,3483.2,3480.7,377.0,554.6,392.6,486.9,228.7,233.3,3467.4,3478.3,567.4,427.8,679.9,1004.8,1081.6,486.9,-15.0,-10.0,-2.0,13360.0,8270.0,4519.0,-1064.0,6.0,-46.0,-30.0,2.0,-10.0,11.0,13835.0,7369.0,-1124.0,-4633.0,-16.0,-50.0,-34.0,1.0
2022-05-08 18:12:19.961446-07:00,833.6,815.2,1339.5,922.0,712.6,480.6,1402.1,933.9,3473.4,3488.0,618.9,865.4,401.2,3489.2,747.2,747.2,3483.2,3480.7,372.4,547.4,392.6,486.9,233.3,230.2,3467.4,3478.3,557.0,426.2,679.9,1004.8,1089.5,488.5,-16.0,-6.0,0.0,13366.0,8265.0,4505.0,-1085.0,-11.0,-66.0,-19.0,3.0,-7.0,14.0,13833.0,7358.0,-1135.0,-4654.0,-20.0,-48.0,-20.0,1.0
2022-05-08 18:12:19.991334-07:00,833.6,815.2,1321.4,926.2,712.6,480.6,1403.0,943.2,3473.4,3488.0,623.0,854.5,401.2,3489.2,748.0,738.1,3480.7,3477.1,372.4,547.4,386.4,483.7,233.3,230.2,3471.0,3484.4,557.0,426.2,684.8,1003.0,1089.5,488.5,-8.0,-2.0,7.0,13376.0,8254.0,4490.0,-1104.0,-5.0,-35.0,-14.0,9.0,-3.0,10.0,13836.0,7343.0,-1144.0,-4667.0,-15.0,-36.0,-13.0,1.0
2022-05-08 18:12:19.992313-07:00,836.1,814.4,1335.0,926.2,704.4,475.8,1403.0,943.2,3471.0,3479.5,617.3,854.5,404.3,3494.1,748.0,738.1,3480.7,3477.1,372.4,553.8,386.4,486.9,233.3,234.0,3471.0,3484.4,559.4,427.8,684.8,1004.8,1084.2,498.8,2.0,4.0,-1.0,13377.0,8257.0,4482.0,-1110.0,24.0,-23.0,8.0,9.0,1.0,0.0,13832.0,7343.0,-1152.0,-4677.0,20.0,-21.0,-17.0,1.0
2022-05-08 18:12:19.993362-07:00,836.1,814.4,1335.0,922.8,704.4,477.4,1399.4,944.1,3471.0,3479.5,617.3,863.7,404.3,3497.8,746.3,745.5,3484.4,3479.5,377.0,553.8,388.7,486.9,233.3,234.0,3485.6,3488.0,563.4,427.8,686.4,1004.8,1084.2,498.8,0.0,-4.0,-15.0,13375.0,8264.0,4473.0,-1118.0,11.0,-32.0,-4.0,4.0,-4.0,-5.0,13826.0,7344.0,-1160.0,-4689.0,7.0,-38.0,-20.0,1.0
2022-05-08 18:12:20.081269-07:00,832.7,813.5,1329.6,922.8,703.6,477.4,1399.4,944.1,3478.3,3477.1,623.0,863.7,402.8,3497.8,746.3,745.5,3484.4,3479.5,377.0,552.2,388.7,488.5,231.7,239.3,3485.6,3488.0,563.4,429.4,686.4,1008.2,1082.5,490.1,-4.0,1.0,-10.0,13378.0,8266.0,4456.0,-1130.0,-6.0,-65.0,-4.0,2.0,0.0,0.0,13823.0,7339.0,-1173.0,-4705.0,-11.0,-51.0,-22.0,1.0
2022-05-08 18:12:20.082623-07:00,832.7,813.5,1329.6,922.0,703.6,470.3,1402.1,944.1,3478.3,3477.1,623.0,862.1,402.8,3503.9,744.7,741.4,3484.4,3488.0,380.2,552.2,392.6,488.5,231.7,239.3,3479.5,3478.3,564.2,429.4,681.5,1008.2,1082.5,490.1,-5.0,-8.0,-16.0,13390.0,8256.0,4436.0,-1146.0,-29.0,-52.0,-10.0,3.0,-5.0,4.0,13822.0,7324.0,-1187.0,-4726.0,-25.0,-57.0,-24.0,1.0
2022-05-08 18:12:20.111058-07:00,831.1,811.0,1327.8,922.0,703.6,470.3,1402.1,944.1,3464.9,3478.3,621.4,862.1,406.7,3503.9,744.7,741.4,3484.4,3488.0,380.2,549.8,392.6,489.3,231.7,233.3,3479.5,3478.3,564.2,430.9,681.5,1005.6,1087.7,488.5,0.0,-16.0,5.0,13402.0,8242.0,4421.0,-1156.0,-57.0,-59.0,-13.0,8.0,-9.0,3.0,13823.0,7308.0,-1201.0,-4747.0,-37.0,-52.0,-12.0,1.0
2022-05-08 18:12:20.231534-07:00,831.1,811.0,1327.8,921.1,703.6,477.4,1412.2,952.6,3464.9,3478.3,621.4,854.5,406.7,3496.6,750.5,743.9,3475.9,3481.9,380.2,549.8,394.2,489.3,231.7,233.3,3477.1,3469.8,563.4,430.9,685.6,1005.6,1087.7,488.5,-9.0,-7.0,15.0,13411.0,8231.0,4411.0,-1168.0,-17.0,-8.0,-11.0,15.0,-8.0,10.0,13827.0,7294.0,-1212.0,-4753.0,-8.0,-22.0,2.0,1.0
2022-05-08 18:12:20.232620-07:00,832.7,811.0,1333.2,922.8,705.2,477.4,1412.2,952.6,3477.1,3467.4,621.4,857.9,405.1,3496.6,750.5,743.9,3475.9,3481.9,380.2,551.4,388.7,487.7,236.3,238.6,3477.1,3469.8,563.4,429.4,679.9,1001.3,1082.5,490.9,-3.0,4.0,1.0,13412.0,8231.0,4410.0,-1165.0,-5.0,12.0,13.0,9.0,-4.0,3.0,13829.0,7291.0,-1215.0,-4750.0,-7.0,-5.0,12.0,1.0
2022-05-08 18:12:20.261332-07:00,832.7,811.0,1333.2,922.8,705.2,470.3,1405.8,947.5,3477.1,3467.4,621.4,857.9,405.9,3499.0,746.3,747.2,3475.9,3485.6,377.0,553.8,388.7,487.7,236.3,238.6,3478.3,3484.4,565.0,427.0,679.9,1001.3,1082.5,490.9,2.0,3.0,-3.0,13413.0,8229.0,4414.0,-1160.0,-8.0,6.0,-1.0,6.0,-3.0,0.0,13830.0,7290.0,-1217.0,-4748.0,-9.0,2.0,7.0,1.0
2022-05-08 18:12:20.321559-07:00,830.2,814.4,1334.1,919.4,705.2,470.3,1405.8,947.5,3472.2,3473.4,624.6,857.0,405.9,3499.0,746.3,747.2,3475.9,3485.6,377.0,553.8,391.1,488.5,233.3,234.0,3478.3,3484.4,565.0,427.0,685.6,1004.8,1080.8,490.9,-5.0,-4.0,-12.0,13412.0,8227.0,4419.0,-1157.0,-6.0,10.0,9.0,5.0,-4.0,0.0,13831.0,7289.0,-1217.0,-4748.0,-1.0,-5.0,8.0,1.0
2022-05-08 18:12:20.381425-07:00,830.2,814.4,1334.1,919.4,707.7,471.9,1411.3,947.5,3472.2,3473.4,624.6,857.0,403.5,3499.0,742.2,747.2,3477.1,3474.6,376.3,553.0,391.1,488.5,233.3,234.0,3475.9,3478.3,559.4,425.5,685.6,1004.8,1080.8,490.9,-4.0,0.0,-10.0,13416.0,8222.0,4417.0,-1158.0,-20.0,-27.0,4.0,0.0,-4.0,0.0,13833.0,7282.0,-1219.0,-4750.0,-19.0,-15.0,-2.0,1.0
2022-05-08 18:12:20.411916-07:00,831.9,812.7,1335.9,919.4,707.7,471.9,1411.3,947.5,3469.8,3472.2,600.4,858.7,403.5,3499.0,742.2,747.2,3477.1,3474.6,376.3,553.0,388.7,486.9,233.3,234.0,3475.9,3478.3,559.4,425.5,680.7,1009.0,1081.6,487.7,-4.0,-1.0,-6.0,13421.0,8215.0,4412.0,-1163.0,-11.0,-14.0,-19.0,7.0,2.0,3.0,13835.0,7272.0,-1225.0,-4759.0,-10.0,-31.0,-18.0,1.0
2022-05-08 18:12:20.471668-07:00,826.0,812.7,1335.9,919.4,692.1,470.3,1400.3,944.9,3477.1,3472.2,600.4,858.7,408.2,3495.3,750.5,740.6,3477.1,3474.6,376.3,551.4,388.7,486.9,233.3,234.0,3483.2,3468.6,563.4,422.3,680.7,1009.0,1081.6,488.5,-6.0,-5.0,-12.0,13423.0,8214.0,4406.0,-1175.0,-1.0,-34.0,-12.0,9.0,-7.0,4.0,13831.0,7268.0,-1234.0,-4773.0,-10.0,-38.0,-21.0,1.0
2022-05-08 18:12:20.561360-07:00,826.0,821.9,1327.8,918.6,692.1,470.3,1400.3,948.3,3477.1,3478.3,622.2,857.0,408.2,3495.3,750.5,749.6,3483.2,3474.6,376.3,551.4,392.6,486.1,235.5,234.0,3475.9,3468.6,563.4,422.3,678.2,1001.3,1092.9,488.5,4.0,1.0,-9.0,13432.0,8206.0,4389.0,-1184.0,-48.0,-60.0,-13.0,4.0,1.0,-3.0,13832.0,7253.0,-1244.0,-4792.0,-37.0,-54.0,-22.0,1.0
2022-05-08 18:12:20.562544-07:00,831.1,821.9,1327.8,918.6,701.1,471.9,1408.5,948.3,3471.0,3478.3,622.2,857.0,402.0,3496.6,748.0,749.6,3483.2,3475.9,376.3,550.6,392.6,486.1,235.5,234.8,3475.9,3479.5,561.8,426.2,678.2,1001.3,1092.9,494.8,-5.0,-8.0,4.0,13435.0,8203.0,4384.0,-1199.0,43.0,-25.0,-20.0,11.0,-3.0,11.0,13829.0,7246.0,-1253.0,-4808.0,9.0,-39.0,-32.0,1.0
2022-05-08 18:12:20.621938-07:00,831.1,811.0,1335.0,922.8,701.1,471.9,1408.5,944.9,3471.0,3472.2,624.6,865.4,402.0,3496.6,748.0,749.6,3478.3,3475.9,376.3,550.6,389.5,485.3,235.5,234.8,3475.9,3479.5,561.8,426.2,673.3,1004.8,1085.1,494.8,0.0,-8.0,-4.0,13437.0,8203.0,4375.0,-1211.0,3.0,-26.0,-6.0,7.0,-11.0,0.0,13825.0,7242.0,-1261.0,-4824.0,3.0,-35.0,-15.0,1.0
2022-05-08 18:12:20.711137-07:00,831.9,811.0,1335.0,922.8,701.9,467.1,1409.4,944.9,3478.3,3472.2,624.6,865.4,405.9,3490.5,748.8,749.6,3478.3,3480.7,376.3,549.8,389.5,485.3,235.5,233.3,3475.9,3477.1,560.2,433.3,673.3,1004.8,1085.1,489.3,-3.0,7.0,-11.0,13432.0,8212.0,4370.0,-1216.0,39.0,-1.0,-1.0,8.0,2.0,0.0,13818.0,7245.0,-1272.0,-4836.0,17.0,-36.0,-21.0,1.0
2022-05-08 18:12:20.712264-07:00,831.9,808.5,1331.4,918.6,701.9,467.1,1409.4,952.6,3478.3,3477.1,624.6,862.1,405.9,3490.5,748.8,745.5,3473.4,3480.7,376.3,549.8,390.3,487.7,238.6,233.3,3481.9,3477.1,560.2,433.3,684.8,1003.0,1079.0,489.3,-2.0,-4.0,3.0,13433.0,8213.0,4363.0,-1230.0,-23.0,-46.0,-28.0,10.0,-10.0,8.0,13816.0,7239.0,-1280.0,-4850.0,-33.0,-28.0,-11.0,1.0
2022-05-08 18:12:20.861403-07:00,831.9,811.0,1331.4,918.6,706.9,481.4,1409.4,952.6,3473.4,3474.6,624.6,862.1,403.5,3495.3,749.6,745.5,3473.4,3478.3,375.5,551.4,390.3,487.7,235.5,231.7,3481.9,3475.9,568.2,440.4,684.8,1003.0,1083.4,492.5,-6.0,-10.0,15.0,13437.0,8207.0,4360.0,-1235.0,9.0,2.0,4.0,8.0,-14.0,14.0,13818.0,7231.0,-1282.0,-4854.0,7.0,3.0,-1.0,1.0
2022-05-08 18:12:20.862519-07:00,831.9,811.0,1333.2,922.0,706.9,481.4,1411.3,945.8,3473.4,3474.6,623.0,861.2,403.5,3495.3,748.0,748.8,3480.7,3481.9,375.5,551.4,389.5,486.1,235.5,231.7,3484.4,3479.5,568.2,440.4,688.0,1004.8,1083.4,492.5,-7.0,-7.0,2.0,13434.0,8208.0,4369.0,-1227.0,0.0,42.0,17.0,7.0,-8.0,10.0,13820.0,7230.0,-1280.0,-4850.0,11.0,28.0,13.0,1.0
2022-05-08 18:12:20.863481-07:00,836.1,809.4,1333.2,922.0,703.6,475.0,1411.3,945.8,3471.0,3474.6,623.0,861.2,408.2,3494.1,748.0,748.8,3480.7,3481.9,378.6,546.6,389.5,486.1,231.7,228.7,3484.4,3479.5,562.6,429.4,688.0,1004.8,1087.7,491.7,-2.0,0.0,-14.0,13430.0,8211.0,4379.0,-1214.0,-3.0,35.0,8.0,7.0,-1.0,0.0,13821.0,7236.0,-1273.0,-4841.0,8.0,22.0,7.0,1.0
2022-05-08 18:12:20.921684-07:00,836.1,809.4,1331.4,921.1,703.6,475.0,1404.0,950.9,3471.0,3474.6,622.2,858.7,408.2,3494.1,752.1,744.7,3477.1,3477.1,378.6,546.6,389.5,486.1,231.7,228.7,3483.2,3483.2,562.6,429.4,675.8,1009.9,1087.7,491.7,0.0,7.0,-16.0,13427.0,8212.0,4386.0,-1207.0,-7.0,14.0,5.0,10.0,0.0,-3.0,13821.0,7238.0,-1271.0,-4838.0,-5.0,-4.0,3.0,1.0
2022-05-08 18:12:20.981215-07:00,834.4,813.5,1331.4,921.1,703.6,473.5,1404.0,950.9,3483.2,3471.0,622.2,858.7,404.3,3492.9,752.1,744.7,3477.1,3477.1,376.3,549.0,389.5,486.1,225.7,236.3,3483.2,3483.2,564.2,428.6,675.8,1009.9,1085.1,497.2,-2.0,2.0,-13.0,13433.0,8204.0,4383.0,-1207.0,-28.0,-27.0,-6.0,5.0,-3.0,-6.0,13823.0,7233.0,-1273.0,-4840.0,-19.0,-26.0,-10.0,1.0
2022-05-08 18:12:21.041375-07:00,834.4,813.5,1330.5,924.5,703.6,473.5,1407.6,945.8,3483.2,3471.0,621.4,861.2,404.3,3492.9,746.3,742.2,3471.0,3475.9,376.3,549.0,391.1,486.1,225.7,236.3,3483.2,3480.7,564.2,428.6,678.2,1008.2,1085.1,497.2,-8.0,-7.0,-5.0,13442.0,8191.0,4379.0,-1215.0,-17.0,-17.0,-20.0,8.0,-3.0,4.0,13824.0,7223.0,-1279.0,-4850.0,17.0,-17.0,-16.0,1.0
2022-05-08 18:12:21.101286-07:00,831.1,812.7,1346.7,924.5,710.1,474.3,1407.6,945.8,3477.1,3478.3,620.5,861.2,404.3,3494.1,746.3,742.2,3471.0,3475.9,377.0,545.8,391.1,486.1,235.5,231.0,3483.2,3480.7,562.6,427.8,678.2,1001.3,1086.8,502.8,-4.0,-7.0,-6.0,13442.0,8193.0,4376.0,-1219.0,11.0,-7.0,-2.0,9.0,-6.0,9.0,13819.0,7228.0,-1286.0,-4857.0,12.0,-14.0,-9.0,1.0
2022-05-08 18:12:21.192036-07:00,831.1,812.7,1346.7,920.3,710.1,467.1,1404.9,953.4,3477.1,3478.3,620.5,865.4,404.3,3486.8,750.5,748.8,3479.5,3483.2,371.6,545.8,390.3,486.1,235.5,231.0,3483.2,3479.5,564.2,427.8,684.0,1001.3,1086.8,502.8,-6.0,-10.0,-4.0,13441.0,8194.0,4375.0,-1219.0,5.0,-1.0,4.0,8.0,-6.0,6.0,13818.0,7227.0,-1292.0,-4859.0,10.0,-11.0,-3.0,1.0
2022-05-08 18:12:21.222342-07:00,838.6,807.7,1332.3,920.3,702.8,467.1,1404.9,953.4,3473.4,3471.0,624.6,865.4,407.5,3486.8,750.5,748.8,3479.5,3483.2,371.6,552.2,390.3,488.5,228.7,232.5,3483.2,3479.5,564.2,429.4,684.0,997.0,1072.9,483.7,-8.0,5.0,-13.0,13444.0,8193.0,4370.0,-1217.0,-8.0,-24.0,11.0,6.0,-2.0,0.0,13818.0,7225.0,-1294.0,-4860.0,0.0,-10.0,4.0,1.0
2022-05-08 18:12:21.251872-07:00,838.6,807.7,1332.3,922.0,702.8,469.5,1415.8,951.7,3473.4,3471.0,624.6,860.4,407.5,3496.6,748.0,748.8,3481.9,3479.5,371.6,552.2,393.4,488.5,228.7,232.5,3474.6,3467.4,562.6,429.4,679.9,997.0,1072.9,483.7,-5.0,0.0,-2.0,13444.0,8194.0,4366.0,-1219.0,12.0,6.0,-3.0,10.0,-2.0,6.0,13818.0,7223.0,-1299.0,-4862.0,6.0,-7.0,-8.0,1.0
2022-05-08 18:12:21.253614-07:00,831.9,807.7,1330.5,922.0,698.7,469.5,1415.8,951.7,3474.6,3477.1,619.7,860.4,405.9,3496.6,748.0,748.8,3481.9,3479.5,371.6,548.2,393.4,489.3,229.5,228.7,3474.6,3467.4,562.6,422.3,679.9,1007.3,1089.5,488.5,-3.0,-9.0,-7.0,13445.0,8193.0,4365.0,-1220.0,-17.0,-24.0,7.0,10.0,-6.0,3.0,13820.0,7219.0,-1301.0,-4862.0,-16.0,-8.0,2.0,1.0
2022-05-08 18:12:21.371766-07:00,831.9,807.7,1330.5,922.8,698.7,469.5,1400.3,959.4,3474.6,3477.1,619.7,857.9,405.9,3502.7,752.1,748.8,3472.2,3484.4,380.2,548.2,391.1,489.3,229.5,228.7,3479.5,3484.4,561.8,422.3,682.3,1007.3,1089.5,488.5,-6.0,9.0,-5.0,13451.0,8188.0,4355.0,-1221.0,-23.0,-15.0,-5.0,6.0,3.0,5.0,13822.0,7212.0,-1305.0,-4865.0,-22.0,-22.0,-3.0,1.0
2022-05-08 18:12:21.373497-07:00,835.2,804.4,1331.4,919.4,701.9,469.5,1400.3,959.4,3471.0,3479.5,624.6,862.1,404.3,3502.7,752.1,748.8,3472.2,3484.4,380.2,552.2,392.6,481.4,232.5,235.5,3479.5,3484.4,561.8,423.1,679.1,1003.9,1086.0,490.1,-13.0,38.0,-31.0,13460.0,8168.0,4364.0,-1224.0,-194.0,-3.0,-81.0,-4.0,13.0,-13.0,13834.0,7175.0,-1308.0,-4884.0,-166.0,-81.0,-32.0,1.0
2022-05-08 18:12:21.401640-07:00,835.2,804.4,1331.4,919.4,709.3,472.7,1417.6,949.2,3471.0,3479.5,624.6,862.1,404.3,3497.8,753.8,744.7,3477.1,3477.1,371.6,552.2,392.6,481.4,232.5,235.5,3483.2,3479.5,566.6,427.0,679.1,1003.9,1086.0,490.1,-3.0,141.0,-96.0,13546.0,7993.0,4424.0,-1219.0,-1169.0,-5.0,-433.0,2.0,17.0,4.0,13933.0,6933.0,-1305.0,-4952.0,-1093.0,-349.0,-14.0,1.0
2022-05-08 18:12:21.461519-07:00,833.6,821.0,1342.2,923.7,709.3,472.7,1417.6,949.2,3477.1,3478.3,621.4,857.9,404.3,3497.8,753.8,744.7,3477.1,3477.1,371.6,552.2,395.7,486.9,233.3,231.7,3483.2,3479.5,566.6,427.0,680.7,1003.9,1092.9,489.3,-37.0,-16.0,-78.0,13869.0,7338.0,4532.0,-1305.0,-1735.0,-402.0,-814.0,-38.0,25.0,-26.0,14176.0,6320.0,-1275.0,-5090.0,-1617.0,-515.0,23.0,1.0
2022-05-08 18:12:21.582106-07:00,833.6,821.0,1342.2,923.7,701.9,482.2,1462.6,963.7,3477.1,3478.3,621.4,857.9,404.3,3488.0,784.4,746.3,3483.2,3467.4,371.6,555.4,395.7,486.9,233.3,231.7,3483.2,3477.1,561.0,429.4,680.7,1003.9,1092.9,489.3,0.0,-9.0,-3.0,14176.0,6648.0,4601.0,-1450.0,-1260.0,-87.0,-561.0,-31.0,58.0,-24.0,14372.0,5724.0,-1281.0,-5241.0,-1168.0,-541.0,-122.0,1.0
2022-05-08 18:12:21.583166-07:00,847.8,826.9,1362.1,918.6,701.9,482.2,1462.6,963.7,3478.3,3472.2,629.5,861.2,404.3,3488.0,784.4,746.3,3483.2,3467.4,371.6,555.4,393.4,486.1,234.0,232.5,3483.2,3477.1,561.0,429.4,679.1,1020.2,1107.8,489.3,-22.0,10.0,-30.0,14375.0,6065.0,4780.0,-1472.0,-1387.0,107.0,-639.0,33.0,-16.0,47.0,14510.0,5182.0,-1312.0,-5414.0,-1247.0,-540.0,-122.0,1.0
2022-05-08 18:12:21.611887-07:00,847.8,826.9,1362.1,918.6,707.7,475.0,1573.0,960.2,3478.3,3472.2,629.5,861.2,408.2,3502.7,894.9,755.4,3477.1,3483.2,376.3,553.8,393.4,486.1,234.0,232.5,3478.3,3481.9,570.6,427.8,679.1,1020.2,1107.8,489.3,21.0,-130.0,15.0,14569.0,5438.0,4931.0,-1516.0,-1237.0,-20.0,-359.0,39.0,-64.0,-23.0,14627.0,4677.0,-1342.0,-5551.0,-934.0,-489.0,-41.0,1.0
2022-05-08 18:12:21.672327-07:00,851.1,826.9,1380.3,925.4,707.7,475.0,1573.0,952.6,3469.8,3472.2,677.4,862.1,408.2,3502.7,894.9,781.9,3475.9,3483.2,376.3,553.8,397.3,490.1,231.7,231.0,3486.8,3481.9,570.6,427.8,686.4,1000.5,1151.5,488.5,-32.0,-72.0,59.0,14711.0,4981.0,5019.0,-1418.0,-999.0,94.0,20.0,28.0,-12.0,30.0,14703.0,4318.0,-1390.0,-5628.0,-731.0,-347.0,66.0,1.0
2022-05-08 18:12:21.881516-07:00,841.1,826.9,1380.3,925.4,705.2,473.5,1580.5,952.6,3472.2,3472.2,677.4,862.1,411.4,3502.7,1025.4,781.9,3475.9,3483.2,373.9,556.2,397.3,490.1,231.7,232.5,3486.8,3472.2,570.6,430.9,686.4,1000.5,1151.5,489.3,33.0,-52.0,17.0,14809.0,4654.0,5086.0,-1269.0,-835.0,222.0,141.0,10.0,15.0,-1.0,14750.0,4084.0,-1406.0,-5675.0,-522.0,-198.0,21.0,1.0
2022-05-08 18:12:21.885879-07:00,841.1,818.5,1400.3,926.2,705.2,473.5,1580.5,948.3,3472.2,3475.9,708.5,860.4,411.4,3502.7,1025.4,807.7,3483.2,3483.2,373.9,556.2,397.3,488.5,231.0,232.5,3477.1,3472.2,570.6,430.9,699.5,1019.4,1210.6,489.3,-30.0,-24.0,-30.0,14838.0,4495.0,5187.0,-1070.0,-318.0,149.0,240.0,31.0,-28.0,48.0,14758.0,4014.0,-1406.0,-5704.0,-67.0,-43.0,-30.0,1.0
2022-05-08 18:12:21.911434-07:00,842.8,818.5,1400.3,926.2,711.8,471.1,1545.9,948.3,3479.5,3475.9,708.5,860.4,405.9,3491.7,1074.7,807.7,3483.2,3483.2,373.9,558.6,397.3,488.5,231.0,231.7,3477.1,3474.6,567.4,434.1,699.5,1019.4,1210.6,486.9,8.0,-44.0,15.0,14869.0,4408.0,5195.0,-961.0,-319.0,15.0,143.0,22.0,-5.0,-10.0,14766.0,3974.0,-1405.0,-5713.0,-72.0,-31.0,1.0,1.0
2022-05-08 18:12:21.912536-07:00,842.8,816.9,1404.0,926.2,711.8,471.1,1545.9,947.5,3479.5,3467.4,724.1,863.7,405.9,3491.7,1074.7,816.9,3483.2,3483.2,373.9,558.6,399.6,486.9,237.8,231.7,3477.1,3474.6,567.4,434.1,691.3,1032.3,1273.0,486.9,-9.0,39.0,-18.0,14883.0,4352.0,5227.0,-827.0,-230.0,227.0,180.0,8.0,8.0,7.0,14769.0,3960.0,-1401.0,-5715.0,-99.0,-9.0,13.0,1.0
2022-05-08 18:12:21.913450-07:00,837.7,830.2,1404.0,926.2,713.4,473.5,1539.4,947.5,3478.3,3478.3,724.1,863.7,402.8,3500.2,1116.5,816.9,3483.2,3478.3,373.9,561.8,399.6,486.9,244.7,236.3,3477.1,3474.6,568.2,436.4,691.3,1032.3,1335.0,491.7,14.0,29.0,-34.0,14880.0,4262.0,5321.0,-738.0,-205.0,277.0,48.0,5.0,-9.0,-24.0,14776.0,3920.0,-1399.0,-5725.0,-104.0,-48.0,-17.0,1.0
2022-05-08 18:12:22.061903-07:00,837.7,830.2,1414.0,927.1,713.4,473.5,1522.7,942.4,3478.3,3478.3,723.3,864.6,402.8,3500.2,1120.9,824.4,3477.1,3477.1,373.9,561.8,400.4,488.5,244.7,236.3,3488.0,3488.0,568.2,436.4,687.2,1044.4,1335.0,491.7,-6.0,12.0,9.0,14856.0,4201.0,5443.0,-679.0,-143.0,322.0,-6.0,-1.0,16.0,-7.0,14781.0,3875.0,-1402.0,-5742.0,-96.0,-48.0,-26.0,1.0
2022-05-08 18:12:22.062904-07:00,841.1,834.4,1414.0,927.1,738.9,473.5,1522.7,942.4,3474.6,3472.2,723.3,864.6,405.1,3500.2,1120.9,824.4,3477.1,3477.1,377.0,561.8,400.4,488.5,233.3,234.0,3488.0,3488.0,566.6,429.4,687.2,1044.4,1340.4,489.3,3.0,-12.0,-33.0,14816.0,4131.0,5611.0,-618.0,-263.0,422.0,-91.0,15.0,-1.0,-18.0,14791.0,3811.0,-1403.0,-5760.0,-170.0,-70.0,-15.0,1.0
2022-05-08 18:12:22.063863-07:00,841.1,834.4,1414.0,922.0,738.9,473.5,1502.3,939.8,3474.6,3472.2,727.4,868.8,405.1,3500.2,1115.6,830.2,3472.2,3479.5,377.0,561.8,402.8,484.5,233.3,234.0,3473.4,3480.7,566.6,429.4,692.9,1049.6,1340.4,489.3,-19.0,6.0,-10.0,14782.0,4052.0,5759.0,-587.0,-120.0,303.0,-69.0,19.0,4.0,13.0,14799.0,3765.0,-1408.0,-5768.0,-75.0,-33.0,-16.0,1.0
2022-05-08 18:12:22.181452-07:00,841.1,831.1,1414.0,922.0,751.3,474.3,1502.3,939.8,3472.2,3479.5,727.4,868.8,411.4,3491.7,1115.6,830.2,3472.2,3479.5,377.8,560.2,402.8,484.5,234.8,237.1,3473.4,3480.7,567.4,428.6,692.9,1049.6,1338.6,492.5,9.0,12.0,-2.0,14754.0,4019.0,5853.0,-580.0,-9.0,210.0,-88.0,15.0,-5.0,-8.0,14801.0,3738.0,-1413.0,-5779.0,-50.0,-17.0,-24.0,1.0
2022-05-08 18:12:22.241361-07:00,841.1,831.1,1414.0,933.9,751.3,474.3,1496.7,935.6,3472.2,3479.5,723.3,866.3,411.4,3491.7,1094.7,817.7,3475.9,3471.0,377.8,560.2,403.5,487.7,234.8,237.1,3474.6,3472.2,567.4,428.6,692.9,1048.7,1338.6,492.5,-17.0,-51.0,-14.0,14723.0,3989.0,5950.0,-600.0,-19.0,180.0,-112.0,3.0,-29.0,-9.0,14803.0,3716.0,-1415.0,-5787.0,35.0,-17.0,5.0,1.0
2022-05-08 18:12:22.392149-07:00,837.7,838.6,1414.9,933.9,779.4,471.9,1496.7,935.6,3467.4,3479.5,729.0,866.3,409.0,3507.5,1094.7,817.7,3475.9,3471.0,373.2,562.6,403.5,487.7,237.8,236.3,3474.6,3472.2,565.0,430.2,692.9,1053.0,1338.6,499.6,-5.0,47.0,6.0,14683.0,4029.0,6020.0,-611.0,124.0,197.0,-12.0,13.0,25.0,3.0,14797.0,3742.0,-1427.0,-5783.0,75.0,6.0,-17.0,1.0
2022-05-08 18:12:22.393028-07:00,837.7,838.6,1414.9,947.5,779.4,468.7,1481.0,929.6,3467.4,3479.5,729.0,857.9,409.0,3503.9,1088.6,820.2,3479.5,3485.6,377.8,562.6,400.4,487.7,237.8,236.3,3488.0,3478.3,565.0,430.2,692.1,1053.0,1338.6,499.6,1.0,2.0,-54.0,14637.0,4055.0,6112.0,-616.0,110.0,229.0,-21.0,9.0,-1.0,-13.0,14783.0,3788.0,-1438.0,-5786.0,165.0,9.0,-23.0,1.0
2022-05-08 18:12:22.481038-07:00,842.8,837.7,1426.8,947.5,816.9,468.7,1481.0,929.6,3481.9,3478.3,724.9,857.9,406.7,3503.9,1088.6,820.2,3479.5,3485.6,377.8,561.8,400.4,493.2,237.1,238.6,3488.0,3478.3,565.0,430.2,692.1,1049.6,1328.7,501.2,1.0,20.0,0.0,14607.0,4108.0,6150.0,-598.0,159.0,57.0,118.0,12.0,-9.0,-4.0,14762.0,3860.0,-1469.0,-5785.0,176.0,3.0,-2.0,1.0
2022-05-08 18:12:22.482102-07:00,842.8,837.7,1426.8,958.5,816.9,467.9,1470.0,928.8,3481.9,3478.3,724.9,861.2,406.7,3499.0,1076.4,821.9,3475.9,3481.9,374.7,561.8,402.0,493.2,237.1,238.6,3479.5,3481.9,561.8,430.2,688.9,1049.6,1328.7,501.2,-20.0,-65.0,5.0,14577.0,4146.0,6196.0,-593.0,7.0,167.0,-44.0,19.0,-17.0,6.0,14752.0,3898.0,-1487.0,-5780.0,54.0,-5.0,-3.0,1.0
2022-05-08 18:12:22.483309-07:00,841.1,841.1,1412.2,958.5,845.3,467.9,1470.0,928.8,3472.2,3472.2,721.6,861.2,412.1,3499.0,1076.4,821.9,3475.9,3481.9,374.7,562.6,402.0,490.1,238.6,237.8,3479.5,3481.9,561.8,430.9,688.9,1047.8,1318.7,501.2,-5.0,44.0,-36.0,14531.0,4234.0,6247.0,-582.0,264.0,137.0,141.0,12.0,11.0,-2.0,14731.0,3991.0,-1497.0,-5768.0,282.0,75.0,-10.0,1.0
2022-05-08 18:12:22.484534-07:00,841.1,841.1,1412.2,956.8,845.3,471.1,1448.8,926.2,3472.2,3472.2,721.6,857.9,412.1,3496.6,1073.8,816.0,3479.5,3473.4,378.6,562.6,399.6,490.1,238.6,237.8,3483.2,3483.2,564.2,430.9,684.8,1047.8,1318.7,501.2,-19.0,-24.0,-1.0,14496.0,4299.0,6286.0,-546.0,123.0,168.0,70.0,17.0,5.0,0.0,14711.0,4076.0,-1512.0,-5755.0,212.0,40.0,1.0,1.0
2022-05-08 18:12:22.631268-07:00,836.9,829.4,1412.2,954.3,899.1,471.1,1448.8,926.2,3469.8,3475.9,724.9,857.9,407.5,3496.6,1073.8,816.0,3479.5,3473.4,378.6,561.8,402.0,486.1,237.1,235.5,3483.2,3483.2,564.2,430.2,689.7,1047.0,1317.8,505.1,0.0,21.0,-18.0,14449.0,4443.0,6298.0,-523.0,347.0,53.0,178.0,10.0,5.0,-8.0,14675.0,4221.0,-1525.0,-5740.0,378.0,92.0,-43.0,1.0
2022-05-08 18:12:22.751407-07:00,836.9,829.4,1412.2,954.3,877.2,465.6,1439.6,943.2,3469.8,3475.9,724.9,857.9,407.5,3494.1,1070.3,811.9,3483.2,3474.6,373.9,563.4,402.0,486.1,237.1,235.5,3481.9,3469.8,563.4,429.4,689.7,1047.0,1317.8,505.1,0.0,-33.0,5.0,14386.0,4640.0,6301.0,-478.0,470.0,159.0,387.0,5.0,4.0,-1.0,14614.0,4423.0,-1556.0,-5734.0,611.0,99.0,-83.0,1.0
2022-05-08 18:12:22.842082-07:00,845.3,824.4,1404.0,948.3,877.2,465.6,1439.6,943.2,3471.0,3474.6,722.5,866.3,407.5,3494.1,1070.3,811.9,3483.2,3474.6,373.9,563.4,395.0,486.1,239.3,236.3,3481.9,3469.8,563.4,429.4,687.2,1049.6,1307.9,505.9,-22.0,35.0,-23.0,14290.0,4937.0,6304.0,-366.0,547.0,144.0,475.0,19.0,3.0,15.0,14519.0,4725.0,-1602.0,-5723.0,703.0,168.0,-96.0,1.0
2022-05-08 18:12:22.843245-07:00,845.3,824.4,1404.0,948.3,862.1,467.9,1441.5,951.7,3471.0,3474.6,722.5,866.3,405.9,3500.2,1072.9,813.5,3478.3,3477.1,378.6,559.4,395.0,486.1,239.3,236.3,3477.1,3486.8,563.4,426.2,687.2,1049.6,1307.9,505.9,18.0,71.0,-71.0,14252.0,5063.0,6290.0,-327.0,36.0,-17.0,31.0,-3.0,10.0,-31.0,14467.0,4883.0,-1615.0,-5717.0,146.0,14.0,-34.0,1.0
2022-05-08 18:12:22.844383-07:00,845.3,824.4,1399.4,950.9,862.1,467.9,1441.5,951.7,3479.5,3477.1,720.8,862.1,405.9,3500.2,1072.9,813.5,3478.3,3477.1,378.6,559.4,398.1,486.9,236.3,238.6,3477.1,3486.8,563.4,426.2,684.8,1040.9,1305.2,507.5,-8.0,78.0,-82.0,14259.0,5070.0,6270.0,-313.0,-98.0,-87.0,32.0,1.0,7.0,0.0,14453.0,4906.0,-1636.0,-5727.0,-10.0,-58.0,-19.0,1.0
2022-05-08 18:12:22.846476-07:00,845.3,824.4,1399.4,950.9,852.0,464.0,1431.4,945.8,3479.5,3477.1,720.8,862.1,407.5,3499.0,1066.9,811.9,3484.4,3471.0,373.2,563.4,398.1,486.9,236.3,238.6,3485.6,3475.9,573.8,432.5,684.8,1040.9,1305.2,507.5,25.0,-1.0,1.0,14306.0,5011.0,6209.0,-337.0,-48.0,-171.0,-89.0,10.0,2.0,-15.0,14461.0,4854.0,-1658.0,-5744.0,-98.0,-118.0,2.0,1.0
2022-05-08 18:12:22.932114-07:00,845.3,821.9,1400.3,957.7,852.0,464.0,1431.4,950.0,3474.6,3473.4,724.9,868.8,407.5,3499.0,1066.9,807.7,3477.1,3471.0,373.2,563.4,398.9,490.1,237.8,236.3,3481.9,3475.9,573.8,432.5,689.7,1047.0,1293.6,505.1,-32.0,8.0,18.0,14319.0,4990.0,6195.0,-372.0,-34.0,-24.0,-61.0,19.0,-2.0,18.0,14463.0,4811.0,-1685.0,-5768.0,-63.0,-84.0,-36.0,1.0
2022-05-08 18:12:22.932953-07:00,840.3,825.2,1419.5,952.6,840.3,464.8,1420.4,953.4,3472.2,3467.4,721.6,862.9,403.5,3494.1,1062.5,806.0,3488.0,3486.8,377.0,563.4,395.0,485.3,233.3,236.3,3491.7,3481.9,561.8,428.6,687.2,1038.3,1296.3,503.6,3.0,-16.0,71.0,14293.0,4996.0,6248.0,-367.0,201.0,242.0,-14.0,24.0,6.0,18.0,14456.0,4793.0,-1710.0,-5794.0,121.0,29.0,-23.0,1.0
2022-05-08 18:12:22.961426-07:00,838.6,825.2,1419.5,952.6,828.5,467.9,1415.8,953.4,3472.2,3467.4,721.6,862.9,399.6,3497.8,1065.1,806.0,3488.0,3477.1,375.5,555.4,395.0,485.3,233.3,234.0,3491.7,3477.1,561.0,421.5,687.2,1038.3,1296.3,501.2,-21.0,-66.0,96.0,14158.0,5159.0,6422.0,-341.0,605.0,655.0,184.0,36.0,-8.0,48.0,14413.0,4928.0,-1696.0,-5790.0,529.0,238.0,-125.0,1.0
2022-05-08 18:12:22.991922-07:00,838.6,821.0,1396.7,944.9,828.5,467.9,1415.8,956.0,3472.2,3473.4,724.9,861.2,399.6,3497.8,1065.1,810.2,3477.1,3477.1,375.5,555.4,396.5,486.9,236.3,234.0,3477.1,3477.1,561.0,421.5,684.8,1042.6,1296.3,501.2,-5.0,-128.0,94.0,13895.0,5594.0,6635.0,-185.0,1118.0,927.0,731.0,31.0,-59.0,43.0,14273.0,5346.0,-1686.0,-5769.0,1326.0,476.0,-239.0,1.0
2022-05-08 18:12:23.051834-07:00,839.4,819.4,1396.7,944.9,826.0,460.8,1410.3,956.0,3467.4,3477.1,724.9,861.2,409.0,3496.6,1054.8,810.2,3477.1,3481.9,381.7,559.4,396.5,486.9,235.5,237.1,3477.1,3480.7,566.6,423.1,684.8,1042.6,1298.1,509.9,-61.0,-3.0,30.0,13491.0,6196.0,6931.0,75.0,1122.0,1267.0,872.0,15.0,9.0,63.0,14028.0,6027.0,-1641.0,-5714.0,1520.0,723.0,-285.0,1.0
2022-05-08 18:12:23.111125-07:00,839.4,819.4,1399.4,946.6,826.0,460.8,1412.2,952.6,3467.4,3477.1,729.9,867.9,409.0,3496.6,1053.0,811.9,3483.2,3477.1,381.7,559.4,397.3,486.1,235.5,237.1,3477.1,3481.9,566.6,423.1,687.2,1039.2,1298.1,509.9,-11.0,-140.0,-89.0,13098.0,6745.0,7157.0,394.0,1127.0,911.0,1063.0,5.0,-81.0,-1.0,13770.0,6716.0,-1552.0,-5596.0,1629.0,801.0,-154.0,1.0
2022-05-08 18:12:23.141533-07:00,835.2,824.4,1399.4,946.6,816.9,464.0,1412.2,952.6,3473.4,3477.1,729.9,867.9,411.4,3502.7,1053.0,811.9,3483.2,3477.1,382.5,559.4,397.3,486.1,237.8,234.0,3477.1,3481.9,564.2,424.7,687.2,1039.2,1281.0,501.2,88.0,127.0,-68.0,12703.0,7411.0,7187.0,713.0,1208.0,766.0,1310.0,-52.0,93.0,-103.0,13432.0,7512.0,-1511.0,-5413.0,1900.0,757.0,-123.0,1.0
2022-05-08 18:12:23.201726-07:00,835.2,824.4,1389.4,947.5,816.9,464.0,1404.0,950.0,3473.4,3477.1,738.9,862.1,411.4,3502.7,1055.6,804.4,3472.2,3479.5,382.5,559.4,394.2,486.9,237.8,234.0,3477.1,3480.7,564.2,424.7,684.0,1044.4,1281.0,501.2,43.0,141.0,-173.0,12391.0,7822.0,7253.0,1059.0,437.0,555.0,691.0,-5.0,31.0,-65.0,13158.0,8079.0,-1484.0,-5275.0,946.0,439.0,-57.0,1.0
2022-05-08 18:12:23.291400-07:00,834.4,822.7,1389.4,947.5,822.7,466.4,1404.0,950.0,3477.1,3481.9,738.9,862.1,405.9,3501.4,1055.6,804.4,3472.2,3479.5,389.5,563.4,394.2,486.9,231.7,236.3,3477.1,3480.7,561.0,427.0,684.0,1044.4,1288.2,503.6,99.0,84.0,-123.0,12308.0,7946.0,7242.0,1170.0,73.0,36.0,199.0,-14.0,31.0,-117.0,13065.0,8271.0,-1476.0,-5212.0,258.0,72.0,14.0,1.0
2022-05-08 18:12:23.382132-07:00,834.4,822.7,1397.6,943.2,822.7,466.4,1410.3,944.9,3477.1,3481.9,743.9,859.5,405.9,3501.4,1053.9,805.2,3472.2,3484.4,389.5,563.4,395.7,487.7,231.7,236.3,3477.1,3481.9,561.0,427.0,683.1,1042.6,1288.2,503.6,23.0,67.0,-25.0,12311.0,7961.0,7217.0,1182.0,10.0,-65.0,-35.0,15.0,35.0,-21.0,13044.0,8294.0,-1506.0,-5217.0,0.0,-89.0,-17.0,1.0
2022-05-08 18:12:23.383241-07:00,837.7,821.0,1391.2,943.2,814.4,462.4,1410.3,944.9,3469.8,3472.2,740.6,859.5,409.8,3496.6,1053.9,805.2,3472.2,3484.4,392.6,558.6,395.7,487.7,235.5,241.6,3477.1,3481.9,563.4,423.1,683.1,1039.2,1290.9,509.1,-11.0,-5.0,-7.0,12341.0,7925.0,7216.0,1124.0,-73.0,-164.0,-246.0,14.0,-9.0,20.0,13071.0,8221.0,-1521.0,-5261.0,-230.0,-133.0,-28.0,1.0
2022-05-08 18:12:23.411509-07:00,837.7,821.0,1391.2,940.7,814.4,461.6,1393.9,952.6,3469.8,3472.2,740.6,857.0,409.8,3486.8,1051.3,807.7,3468.6,3486.8,391.1,558.6,395.0,487.7,235.5,241.6,3483.2,3480.7,562.6,423.1,684.0,1039.2,1290.9,509.1,-32.0,-14.0,-2.0,12394.0,7853.0,7217.0,1033.0,-118.0,-115.0,-213.0,6.0,-3.0,27.0,13120.0,8117.0,-1527.0,-5300.0,-251.0,-105.0,-1.0,1.0
2022-05-08 18:12:23.471640-07:00,843.6,813.5,1391.2,940.7,806.9,461.6,1393.9,952.6,3467.4,3472.2,743.0,857.0,406.7,3486.8,1051.3,807.7,3468.6,3486.8,391.1,565.0,395.0,486.9,231.7,238.6,3483.2,3480.7,562.6,423.9,684.0,1036.6,1276.5,511.5,-15.0,-29.0,3.0,12436.0,7796.0,7216.0,972.0,-17.0,-65.0,-95.0,2.0,-10.0,15.0,13150.0,8055.0,-1527.0,-5319.0,-106.0,-39.0,5.0,1.0
2022-05-08 18:12:23.501678-07:00,843.6,813.5,1391.2,939.0,806.9,457.7,1389.4,939.0,3467.4,3472.2,743.0,855.3,406.7,3502.7,1045.2,804.4,3473.4,3481.9,387.9,565.0,391.8,486.9,231.7,238.6,3484.4,3488.0,563.4,423.9,686.4,1036.6,1276.5,511.5,-5.0,5.0,-13.0,12457.0,7768.0,7215.0,928.0,-76.0,-73.0,-98.0,3.0,-3.0,0.0,13174.0,8012.0,-1524.0,-5326.0,-120.0,-26.0,17.0,1.0
2022-05-08 18:12:23.591954-07:00,841.9,823.5,1395.7,939.0,806.0,457.7,1389.4,939.0,3479.5,3481.9,746.3,855.3,404.3,3502.7,1045.2,804.4,3473.4,3481.9,387.9,557.8,391.8,486.9,239.3,238.6,3484.4,3488.0,563.4,426.2,686.4,1035.7,1290.0,506.7,0.0,2.0,-8.0,12481.0,7735.0,7211.0,905.0,-52.0,-34.0,-39.0,0.0,-1.0,0.0,13197.0,7972.0,-1521.0,-5330.0,-67.0,-15.0,18.0,1.0
2022-05-08 18:12:23.651978-07:00,841.9,823.5,1395.7,944.9,806.0,464.8,1392.1,939.8,3479.5,3481.9,746.3,865.4,404.3,3505.1,1048.7,803.5,3473.4,3480.7,395.0,557.8,393.4,486.9,239.3,238.6,3473.4,3479.5,558.6,426.2,682.3,1035.7,1290.0,506.7,-2.0,0.0,-15.0,12496.0,7713.0,7212.0,884.0,-23.0,-57.0,-78.0,7.0,0.0,0.0,13214.0,7942.0,-1520.0,-5332.0,-78.0,-20.0,7.0,1.0
2022-05-08 18:12:23.653679-07:00,836.1,819.4,1390.3,945.8,804.4,464.8,1392.1,939.8,3473.4,3483.2,738.9,857.9,404.3,3505.1,1048.7,803.5,3473.4,3480.7,395.0,558.6,394.2,485.3,238.6,237.1,3473.4,3479.5,558.6,423.1,679.1,1040.9,1286.4,503.6,1.0,3.0,-9.0,12509.0,7703.0,7204.0,851.0,-20.0,-63.0,-52.0,4.0,0.0,-1.0,13225.0,7918.0,-1521.0,-5339.0,-52.0,-35.0,-4.0,1.0
2022-05-08 18:12:23.772348-07:00,836.1,819.4,1390.3,945.8,801.0,460.8,1413.1,944.1,3473.4,3483.2,738.9,857.9,405.1,3492.9,1046.1,808.5,3485.6,3479.5,384.8,557.0,394.2,485.3,238.6,237.1,3477.1,3477.1,560.2,420.8,679.1,1040.9,1286.4,503.6,10.0,4.0,-1.0,12527.0,7684.0,7196.0,821.0,-20.0,-44.0,-80.0,9.0,2.0,-4.0,13238.0,7888.0,-1526.0,-5350.0,-81.0,-45.0,-6.0,1.0
2022-05-08 18:12:23.831280-07:00,846.1,820.2,1388.5,939.0,801.0,460.8,1413.1,944.1,3485.6,3472.2,738.9,866.3,405.1,3492.9,1046.1,808.5,3485.6,3479.5,384.8,557.0,389.5,485.3,234.0,239.3,3477.1,3477.1,560.2,420.8,684.8,1034.9,1281.0,503.6,3.0,-7.0,-14.0,12542.0,7664.0,7194.0,790.0,-14.0,-56.0,-71.0,2.0,-5.0,-3.0,13252.0,7856.0,-1533.0,-5362.0,-64.0,-50.0,-8.0,1.0
2022-05-08 18:12:23.832469-07:00,846.1,820.2,1388.5,939.0,797.7,457.7,1386.6,950.9,3485.6,3472.2,738.9,866.3,405.1,3496.6,1034.0,808.5,3477.1,3481.9,387.2,558.6,389.5,485.3,234.0,239.3,3483.2,3483.2,560.2,423.9,684.8,1034.9,1281.0,503.6,-9.0,-2.0,-17.0,12554.0,7649.0,7193.0,759.0,1.0,-70.0,-55.0,-1.0,-3.0,2.0,13264.0,7826.0,-1540.0,-5375.0,-63.0,-43.0,-4.0,1.0
2022-05-08 18:12:24.011567-07:00,838.6,816.9,1395.7,944.1,797.7,457.7,1386.6,950.9,3466.1,3473.4,738.1,861.2,405.1,3496.6,1034.0,808.5,3477.1,3481.9,387.2,558.6,390.3,488.5,233.3,235.5,3483.2,3483.2,560.2,423.9,684.8,1035.7,1280.1,503.6,-3.0,5.0,-23.0,12569.0,7638.0,7184.0,720.0,-57.0,-119.0,-117.0,0.0,-7.0,0.0,13277.0,7792.0,-1550.0,-5390.0,-109.0,-72.0,1.0,1.0
2022-05-08 18:12:24.042059-07:00,838.6,816.9,1395.7,944.1,800.2,461.6,1374.8,944.1,3466.1,3473.4,738.1,861.2,405.9,3499.0,1044.4,809.4,3478.3,3478.3,385.6,557.8,390.3,488.5,233.3,235.5,3483.2,3469.8,561.0,424.7,684.8,1035.7,1280.1,503.6,-14.0,21.0,-18.0,12609.0,7587.0,7172.0,661.0,-112.0,-139.0,-187.0,8.0,6.0,11.0,13315.0,7713.0,-1555.0,-5408.0,-240.0,-89.0,29.0,1.0
2022-05-08 18:12:24.042945-07:00,831.1,821.9,1387.5,944.9,800.2,461.6,1374.8,940.7,3473.4,3472.2,741.4,861.2,405.9,3499.0,1044.4,804.4,3475.9,3478.3,385.6,557.8,390.3,485.3,238.6,235.5,3481.9,3469.8,561.0,424.7,684.8,1036.6,1281.9,504.4,-4.0,35.0,-30.0,12666.0,7501.0,7171.0,565.0,-167.0,-183.0,-354.0,-6.0,3.0,3.0,13375.0,7586.0,-1555.0,-5440.0,-384.0,-135.0,11.0,1.0
2022-05-08 18:12:24.044036-07:00,836.1,821.9,1387.5,944.9,799.4,461.6,1393.0,940.7,3479.5,3472.2,741.4,861.2,405.1,3507.5,1040.1,804.4,3475.9,3483.2,388.7,551.4,390.3,485.3,238.6,238.6,3481.9,3472.2,561.8,423.9,684.8,1036.6,1281.9,505.1,-7.0,33.0,-85.0,12759.0,7331.0,7194.0,409.0,-416.0,-334.0,-623.0,-2.0,0.0,-4.0,13490.0,7346.0,-1534.0,-5489.0,-782.0,-213.0,48.0,1.0
2022-05-08 18:12:24.046664-07:00,836.1,825.2,1393.9,942.4,799.4,461.6,1393.0,944.9,3479.5,3477.1,737.3,857.9,405.1,3507.5,1040.1,809.4,3484.4,3483.2,388.7,551.4,388.7,479.8,237.1,238.6,3481.9,3472.2,561.8,423.9,681.5,1035.7,1280.1,505.1,13.0,3.0,-69.0,12972.0,7002.0,7148.0,156.0,-654.0,-648.0,-823.0,16.0,-5.0,-14.0,13679.0,6940.0,-1514.0,-5557.0,-1119.0,-375.0,103.0,1.0
2022-05-08 18:12:24.191470-07:00,835.2,825.2,1393.9,942.4,801.0,462.4,1383.0,944.9,3467.4,3477.1,737.3,857.9,404.3,3490.5,1042.6,809.4,3484.4,3478.3,384.8,559.4,388.7,479.8,237.1,237.1,3481.9,3474.6,561.8,422.3,681.5,1035.7,1280.1,505.9,61.0,-29.0,-13.0,13281.0,6551.0,7010.0,-114.0,-987.0,-929.0,-816.0,35.0,-69.0,-23.0,13908.0,6406.0,-1510.0,-5627.0,-1367.0,-458.0,189.0,1.0
2022-05-08 18:12:24.192690-07:00,835.2,818.5,1393.9,942.4,801.0,462.4,1383.0,948.3,3467.4,3475.9,732.3,866.3,404.3,3490.5,1042.6,808.5,3488.0,3478.3,384.8,559.4,391.8,483.7,235.5,237.1,3492.9,3474.6,561.8,422.3,679.9,1031.4,1273.9,505.9,20.0,70.0,96.0,13569.0,6069.0,6879.0,-407.0,-760.0,-615.0,-963.0,53.0,83.0,17.0,14128.0,5843.0,-1525.0,-5690.0,-1252.0,-451.0,146.0,1.0
2022-05-08 18:12:24.193703-07:00,836.9,818.5,1393.9,942.4,809.4,460.0,1412.2,948.3,3478.3,3475.9,732.3,866.3,406.7,3494.1,1037.5,808.5,3488.0,3483.2,386.4,558.6,391.8,483.7,235.5,233.3,3492.9,3480.7,563.4,421.5,679.9,1031.4,1273.9,505.9,-54.0,-129.0,-69.0,13774.0,5605.0,6853.0,-595.0,-899.0,-434.0,-548.0,6.0,-23.0,19.0,14304.0,5345.0,-1487.0,-5749.0,-1094.0,-269.0,83.0,1.0
2022-05-08 18:12:24.252552-07:00,836.9,811.9,1382.1,942.4,809.4,460.0,1482.9,945.8,3478.3,3472.2,735.6,865.4,406.7,3494.1,1040.1,803.5,3480.7,3479.5,386.4,558.6,391.8,484.5,235.5,233.3,3483.2,3481.9,563.4,421.5,679.1,1036.6,1273.9,505.9,-29.0,31.0,40.0,13926.0,5365.0,6730.0,-657.0,-185.0,-310.0,-173.0,7.0,-12.0,4.0,14386.0,5086.0,-1505.0,-5774.0,-276.0,-197.0,71.0,1.0
2022-05-08 18:12:25.152513-07:00,837.7,810.2,1382.1,942.4,831.9,461.6,1482.9,945.8,3473.4,3478.3,735.6,865.4,404.3,3488.0,1040.1,803.5,3480.7,3479.5,385.6,557.8,391.8,484.5,234.8,234.0,3483.2,3481.9,564.2,423.9,679.1,1036.6,1268.5,498.0,10.0,-58.0,-11.0,14016.0,5203.0,6664.0,-704.0,-433.0,-240.0,-156.0,14.0,-13.0,1.0,14429.0,4931.0,-1517.0,-5798.0,-370.0,-144.0,3.0,1.0
2022-05-08 18:12:25.242135-07:00,837.7,810.2,1400.3,942.4,831.9,461.6,1503.2,958.5,3473.4,3478.3,729.9,864.6,404.3,3488.0,1046.1,803.5,3479.5,3479.5,385.6,557.8,394.2,479.8,234.8,234.0,3480.7,3478.3,564.2,423.9,680.7,1034.0,1268.5,498.0,-42.0,30.0,43.0,14079.0,5127.0,6596.0,-664.0,189.0,-65.0,231.0,25.0,-12.0,22.0,14449.0,4858.0,-1529.0,-5809.0,127.0,10.0,24.0,1.0
2022-05-08 18:12:25.243093-07:00,831.1,814.4,1400.3,942.4,883.1,463.2,1503.2,958.5,3474.6,3477.1,729.9,864.6,407.5,3496.6,1046.1,803.5,3479.5,3479.5,384.0,560.2,394.2,479.8,240.9,237.8,3480.7,3478.3,563.4,422.3,680.7,1034.0,1273.9,514.7,4.0,-33.0,-20.0,14087.0,5176.0,6540.0,-647.0,-39.0,-155.0,10.0,14.0,1.0,-20.0,14440.0,4901.0,-1524.0,-5795.0,-20.0,38.0,-3.0,1.0
2022-05-08 18:12:25.244379-07:00,831.1,814.4,1390.3,938.1,883.1,463.2,1477.3,957.7,3474.6,3477.1,731.5,857.9,407.5,3496.6,1035.7,803.5,3473.4,3483.2,384.0,560.2,395.7,484.5,240.9,237.8,3469.8,3478.3,563.4,422.3,688.0,1035.7,1273.9,514.7,44.0,-4.0,-24.0,14139.0,5186.0,6421.0,-643.0,-29.0,-378.0,139.0,13.0,-10.0,-39.0,14443.0,4912.0,-1510.0,-5782.0,75.0,16.0,19.0,1.0
2022-05-08 18:12:25.246509-07:00,846.1,807.7,1394.8,938.1,892.4,460.0,1477.3,957.7,3478.3,3488.0,733.2,857.9,408.2,3503.9,1035.7,803.5,3473.4,3483.2,380.9,557.0,395.7,484.5,238.6,234.8,3469.8,3478.3,561.0,423.9,688.0,1034.0,1268.5,513.9,4.0,89.0,-40.0,14195.0,5198.0,6278.0,-710.0,61.0,-313.0,-87.0,-15.0,54.0,-23.0,14441.0,4910.0,-1526.0,-5784.0,-56.0,-67.0,-23.0,1.0
2022-05-08 18:12:25.301587-07:00,846.1,807.7,1394.8,938.1,892.4,460.0,1477.3,957.7,3478.3,3488.0,733.2,857.9,408.2,3503.9,1035.7,803.5,3473.4,3483.2,380.9,557.0,395.7,484.5,238.6,234.8,3469.8,3478.3,561.0,423.9,688.0,1034.0,1268.5,513.9,4.0,89.0,-40.0,14195.0,5198.0,6278.0,-710.0,61.0,-313.0,-87.0,-15.0,54.0,-23.0,14441.0,4910.0,-1526.0,-5784.0,-56.0,-67.0,-23.0,1.0
2022-05-08 18:12:25.302803-07:00,836.9,811.0,1418.6,935.6,822.7,468.7,1544.1,933.9,3472.2,3477.1,718.4,861.2,408.2,3492.9,1034.0,805.2,3474.6,3485.6,377.8,553.0,398.9,483.0,231.7,234.8,3481.9,3477.1,561.0,421.5,691.3,1028.0,1246.2,498.0,-1.0,0.0,-5.0,14278.0,5418.0,5927.0,-314.0,99.0,-18.0,23.0,17.0,-1.0,-2.0,14330.0,5265.0,-1650.0,-5714.0,137.0,99.0,-4.0,1.0
2022-05-08 18:12:25.303668-07:00,836.9,805.2,1425.9,952.6,822.7,468.7,1544.1,933.0,3472.2,3473.4,720.8,861.2,408.2,3492.9,1034.0,795.2,3480.7,3485.6,377.8,553.0,395.7,486.9,238.6,234.8,3483.2,3477.1,561.0,421.5,688.0,1023.7,1241.7,498.0,-14.0,-101.0,53.0,14255.0,5505.0,5903.0,-296.0,429.0,-2.0,346.0,45.0,-33.0,38.0,14293.0,5398.0,-1652.0,-5681.0,558.0,203.0,-17.0,1.0
2022-05-08 18:12:25.421007-07:00,838.6,805.2,1425.9,952.6,817.7,466.4,1569.3,933.0,3473.4,3473.4,720.8,861.2,404.3,3491.7,1034.9,795.2,3480.7,3479.5,380.2,553.0,395.7,486.9,238.6,231.7,3483.2,3478.3,562.6,422.3,688.0,1023.7,1241.7,500.4,-25.0,-142.0,93.0,14126.0,5899.0,5836.0,-220.0,1725.0,133.0,832.0,36.0,-29.0,59.0,14142.0,5868.0,-1674.0,-5587.0,1616.0,598.0,-87.0,1.0
2022-05-08 18:12:25.422374-07:00,838.6,813.5,1431.4,940.7,817.7,466.4,1604.9,938.1,3473.4,3478.3,723.3,862.1,404.3,3491.7,1060.8,803.5,3477.1,3481.9,380.2,553.0,391.8,486.9,237.8,231.7,3472.2,3480.7,562.6,422.3,682.3,1027.1,1239.9,500.4,5.0,-151.0,-13.0,13724.0,6867.0,5737.0,-129.0,2980.0,331.0,1341.0,60.0,-109.0,24.0,13779.0,6819.0,-1663.0,-5414.0,2601.0,932.0,-200.0,1.0
2022-05-08 18:12:25.451307-07:00,831.1,865.4,1431.4,940.7,809.4,471.9,1604.9,938.1,3467.4,3478.3,723.3,862.1,405.9,3496.6,1060.8,803.5,3477.1,3481.9,377.0,555.4,391.8,486.9,233.3,237.1,3472.2,3480.7,565.8,422.3,682.3,1027.1,1235.5,490.1,-19.0,170.0,-175.0,13027.0,8259.0,5523.0,-162.0,3077.0,-348.0,828.0,-18.0,81.0,-15.0,13311.0,7844.0,-1671.0,-5189.0,1940.0,836.0,-44.0,1.0
2022-05-08 18:12:25.511142-07:00,831.1,865.4,1417.6,930.5,809.4,471.9,1670.1,926.2,3467.4,3478.3,726.6,858.7,405.9,3496.6,1028.0,797.7,3477.1,3478.3,377.0,555.4,393.4,481.4,233.3,237.1,3484.4,3480.7,565.8,422.3,686.4,1026.3,1235.5,490.1,49.0,-80.0,-67.0,12589.0,9059.0,5272.0,-303.0,1336.0,62.0,628.0,-21.0,-20.0,-95.0,13025.0,8415.0,-1655.0,-5023.0,1292.0,439.0,-2.0,1.0
2022-05-08 18:12:25.541669-07:00,836.9,944.9,1417.6,930.5,811.9,486.9,1670.1,926.2,3475.9,3472.2,726.6,858.7,402.8,3497.8,1028.0,797.7,3477.1,3478.3,377.8,557.0,393.4,481.4,231.7,234.8,3484.4,3480.7,582.6,434.9,686.4,1026.3,1215.1,503.6,-11.0,180.0,-113.0,12301.0,9521.0,5141.0,-186.0,362.0,-11.0,465.0,-13.0,51.0,-36.0,12833.0,8766.0,-1689.0,-4905.0,441.0,162.0,60.0,1.0
2022-05-08 18:12:25.601646-07:00,836.9,944.9,1400.3,934.7,811.9,486.9,1631.3,927.9,3475.9,3472.2,711.0,857.0,402.8,3497.8,968.8,794.4,3477.1,3478.3,377.8,557.0,389.5,483.7,231.7,234.8,3479.5,3480.7,582.6,434.9,691.3,1028.8,1215.1,503.6,14.0,-29.0,-50.0,12289.0,9559.0,5099.0,-159.0,-67.0,-34.0,-102.0,0.0,-36.0,-25.0,12815.0,8788.0,-1699.0,-4909.0,-59.0,-70.0,-18.0,1.0
2022-05-08 18:12:25.661777-07:00,838.6,953.4,1400.3,934.7,812.7,485.3,1631.3,927.9,3478.3,3479.5,711.0,857.0,405.9,3502.7,968.8,794.4,3477.1,3478.3,378.6,554.6,389.5,483.7,241.6,231.7,3479.5,3480.7,582.6,434.1,691.3,1028.8,1203.5,502.0,-6.0,25.0,-11.0,12269.0,9593.0,5085.0,-190.0,154.0,-126.0,36.0,3.0,13.0,0.0,12793.0,8800.0,-1726.0,-4935.0,53.0,-96.0,-29.0,1.0
2022-05-08 18:12:25.691715-07:00,838.6,953.4,1385.7,931.3,812.7,484.5,1611.5,924.5,3478.3,3479.5,704.4,858.7,405.9,3499.0,947.5,786.9,3480.7,3477.1,380.2,554.6,393.4,484.5,241.6,231.7,3479.5,3474.6,584.3,434.1,682.3,1017.6,1203.5,502.0,-2.0,-17.0,50.0,12282.0,9578.0,5079.0,-226.0,-73.0,43.0,-146.0,24.0,-2.0,24.0,12805.0,8753.0,-1752.0,-4978.0,-126.0,-116.0,-32.0,1.0
2022-05-08 18:12:25.781392-07:00,836.9,952.6,1384.8,931.3,803.5,484.5,1611.5,924.5,3478.3,3467.4,699.5,858.7,401.2,3499.0,947.5,786.9,3480.7,3477.1,380.2,560.2,393.4,482.2,235.5,244.7,3479.5,3474.6,584.3,429.4,682.3,1021.9,1193.8,501.2,-24.0,-9.0,11.0,12271.0,9572.0,5118.0,-241.0,87.0,4.0,-11.0,8.0,-12.0,24.0,12803.0,8744.0,-1755.0,-4998.0,27.0,-8.0,-24.0,1.0
2022-05-08 18:12:25.811452-07:00,836.9,952.6,1384.8,937.3,803.5,483.0,1612.4,921.1,3478.3,3467.4,699.5,855.3,401.2,3492.9,937.3,779.4,3478.3,3478.3,380.2,560.2,394.2,482.2,235.5,244.7,3479.5,3475.9,579.4,429.4,680.7,1021.9,1193.8,501.2,-15.0,0.0,2.0,12258.0,9581.0,5129.0,-256.0,-13.0,42.0,-60.0,12.0,1.0,9.0,12806.0,8733.0,-1755.0,-5010.0,-57.0,-11.0,-19.0,1.0
2022-05-08 18:12:25.842134-07:00,829.4,950.0,1384.8,937.3,797.7,483.0,1612.4,921.1,3477.1,3473.4,690.5,855.3,406.7,3492.9,937.3,779.4,3478.3,3478.3,380.2,553.8,394.2,481.4,238.6,234.8,3479.5,3475.9,579.4,432.5,680.7,1017.6,1186.7,494.0,0.0,-2.0,-19.0,12245.0,9591.0,5143.0,-273.0,102.0,4.0,12.0,-6.0,0.0,-14.0,12802.0,8736.0,-1748.0,-5015.0,34.0,3.0,-21.0,1.0
2022-05-08 18:12:25.901648-07:00,829.4,950.0,1384.8,928.8,797.7,479.8,1581.4,915.2,3477.1,3473.4,690.5,862.1,406.7,3496.6,927.9,780.3,3467.4,3479.5,377.8,553.8,388.7,481.4,238.6,234.8,3469.8,3475.9,581.0,432.5,686.4,1017.6,1186.7,494.0,-7.0,4.0,-27.0,12228.0,9612.0,5142.0,-290.0,-38.0,-38.0,-53.0,-4.0,7.0,-11.0,12796.0,8732.0,-1754.0,-5037.0,-58.0,-80.0,-42.0,1.0
2022-05-08 18:12:25.931487-07:00,833.6,944.9,1379.4,936.4,797.7,479.8,1581.4,915.2,3474.6,3467.4,692.1,857.9,407.5,3496.6,927.9,780.3,3467.4,3479.5,377.8,557.0,392.6,483.0,238.6,241.6,3469.8,3475.9,581.0,432.5,684.0,1020.2,1185.9,497.2,-12.0,-2.0,-21.0,12234.0,9608.0,5133.0,-330.0,116.0,-108.0,-39.0,7.0,1.0,-5.0,12795.0,8713.0,-1766.0,-5070.0,-12.0,-71.0,-41.0,1.0
2022-05-08 18:12:25.991441-07:00,833.6,944.9,1379.4,936.4,796.9,481.4,1573.0,918.6,3474.6,3467.4,692.1,857.9,405.1,3491.7,922.0,781.1,3480.7,3478.3,379.4,554.6,392.6,483.0,238.6,241.6,3481.9,3488.0,571.4,433.3,684.0,1020.2,1185.9,497.2,2.0,15.0,9.0,12237.0,9619.0,5100.0,-386.0,-16.0,-133.0,-69.0,8.0,3.0,-1.0,12799.0,8682.0,-1781.0,-5105.0,-112.0,-109.0,-32.0,1.0
2022-05-08 18:12:26.051614-07:00,833.6,940.7,1383.0,932.2,796.9,481.4,1573.0,918.6,3468.6,3478.3,691.3,861.2,405.1,3491.7,922.0,781.1,3480.7,3478.3,379.4,554.6,389.5,476.6,234.0,236.3,3481.9,3488.0,571.4,433.3,682.3,1015.9,1184.1,495.6,-10.0,-22.0,26.0,12265.0,9585.0,5092.0,-437.0,-14.0,-87.0,-80.0,9.0,-14.0,14.0,12815.0,8638.0,-1791.0,-5137.0,-35.0,-49.0,-26.0,1.0
2022-05-08 18:12:26.081482-07:00,833.6,940.7,1383.0,932.2,798.5,477.4,1573.9,914.4,3468.6,3478.3,691.3,861.2,404.3,3491.7,916.0,785.2,3477.1,3477.1,380.2,558.6,389.5,476.6,234.0,236.3,3481.9,3472.2,590.7,429.4,682.3,1015.9,1184.1,495.6,-12.0,-1.0,4.0,12268.0,9583.0,5088.0,-464.0,-16.0,-28.0,-29.0,7.0,-4.0,12.0,12820.0,8620.0,-1793.0,-5154.0,-68.0,-34.0,-11.0,1.0
2022-05-08 18:12:26.141520-07:00,832.7,956.8,1378.5,928.8,798.5,477.4,1573.9,914.4,3471.0,3477.1,687.2,851.1,404.3,3491.7,916.0,785.2,3477.1,3477.1,380.2,558.6,391.8,478.2,241.6,238.6,3481.9,3472.2,590.7,429.4,683.1,1018.5,1179.7,493.2,1.0,-7.0,15.0,12287.0,9559.0,5085.0,-483.0,1.0,-43.0,-31.0,8.0,0.0,-4.0,12831.0,8598.0,-1796.0,-5162.0,-10.0,-17.0,-7.0,1.0
2022-05-08 18:12:26.202371-07:00,832.7,956.8,1378.5,928.8,798.5,475.0,1558.1,915.2,3471.0,3477.1,687.2,851.1,407.5,3496.6,922.8,774.5,3477.1,3488.0,371.6,553.8,391.8,478.2,241.6,238.6,3488.0,3486.8,587.5,434.9,683.1,1018.5,1179.7,493.2,-1.0,2.0,-7.0,12281.0,9566.0,5086.0,-498.0,4.0,-29.0,-13.0,6.0,5.0,1.0,12830.0,8598.0,-1796.0,-5164.0,-28.0,-14.0,-9.0,1.0
2022-05-08 18:12:26.231508-07:00,841.9,950.9,1376.6,932.2,798.5,475.0,1558.1,914.4,3479.5,3475.9,684.0,857.9,407.5,3496.6,922.8,781.1,3477.1,3488.0,371.6,553.8,388.7,482.2,237.1,234.8,3480.7,3486.8,587.5,434.9,680.7,1015.1,1179.7,500.4,-5.0,0.0,-2.0,12294.0,9554.0,5077.0,-504.0,-8.0,-37.0,-19.0,0.0,0.0,0.0,12837.0,8583.0,-1799.0,-5171.0,-19.0,-22.0,-8.0,1.0
2022-05-08 18:12:26.321649-07:00,831.9,950.9,1376.6,932.2,794.4,479.8,1561.8,914.4,3467.4,3475.9,684.0,857.9,405.9,3497.8,915.2,781.1,3477.1,3481.9,374.7,555.4,388.7,482.2,237.1,237.1,3480.7,3486.8,577.0,430.2,680.7,1015.1,1179.7,499.6,-6.0,0.0,5.0,12288.0,9561.0,5075.0,-522.0,18.0,-9.0,-25.0,4.0,3.0,0.0,12835.0,8581.0,-1802.0,-5181.0,-19.0,-26.0,-19.0,1.0
2022-05-08 18:12:26.351515-07:00,831.9,939.0,1369.4,928.8,794.4,479.8,1561.8,912.7,3467.4,3477.1,685.6,857.0,405.9,3497.8,915.2,779.4,3486.8,3481.9,374.7,555.4,385.6,484.5,238.6,237.1,3480.7,3486.8,577.0,430.2,683.1,1018.5,1177.0,499.6,0.0,-21.0,1.0,12297.0,9548.0,5078.0,-529.0,-25.0,-35.0,4.0,3.0,-13.0,0.0,12841.0,8566.0,-1801.0,-5188.0,-18.0,-2.0,8.0,1.0
2022-05-08 18:12:26.381443-07:00,834.4,939.0,1369.4,928.8,791.0,485.3,1559.9,912.7,3478.3,3477.1,685.6,857.0,409.0,3494.1,911.8,779.4,3486.8,3478.3,379.4,554.6,385.6,484.5,238.6,234.0,3480.7,3480.7,577.8,433.3,683.1,1018.5,1177.0,492.5,-10.0,24.0,1.0,12295.0,9555.0,5067.0,-534.0,38.0,-6.0,-5.0,7.0,19.0,4.0,12840.0,8568.0,-1802.0,-5187.0,-16.0,5.0,-9.0,1.0
2022-05-08 18:12:26.441426-07:00,834.4,935.6,1383.0,933.0,791.0,485.3,1559.9,912.7,3478.3,3478.3,687.2,859.5,409.0,3494.1,911.8,776.9,3473.4,3478.3,379.4,554.6,384.8,483.7,237.1,234.0,3475.9,3480.7,577.8,433.3,679.1,1015.9,1180.6,492.5,1.0,-8.0,-16.0,12303.0,9547.0,5063.0,-543.0,-45.0,-41.0,-2.0,7.0,-9.0,-6.0,12847.0,8557.0,-1798.0,-5189.0,-46.0,-15.0,12.0,1.0
2022-05-08 18:12:26.501720-07:00,831.1,935.6,1383.0,933.0,788.6,483.7,1557.1,912.7,3478.3,3478.3,687.2,859.5,405.1,3492.9,901.7,776.9,3473.4,3478.3,377.8,555.4,384.8,483.7,237.1,234.8,3475.9,3477.1,577.8,427.8,679.1,1015.9,1180.6,494.8,4.0,77.0,-18.0,12340.0,9511.0,5040.0,-545.0,-196.0,-78.0,-37.0,9.0,23.0,-7.0,12875.0,8509.0,-1804.0,-5198.0,-260.0,-93.0,29.0,1.0
2022-05-08 18:12:26.531502-07:00,831.1,928.8,1375.7,926.2,788.6,483.7,1548.7,915.2,3478.3,3474.6,682.3,860.4,405.1,3492.9,908.4,774.5,3472.2,3480.7,377.8,555.4,391.1,477.4,234.0,234.8,3479.5,3477.1,577.8,427.8,683.1,1015.1,1177.0,494.8,-15.0,75.0,-13.0,12498.0,9286.0,5064.0,-590.0,-916.0,-209.0,-420.0,16.0,43.0,0.0,13012.0,8257.0,-1787.0,-5268.0,-928.0,-274.0,-6.0,1.0
2022-05-08 18:12:26.621780-07:00,839.4,925.4,1375.7,926.2,798.5,479.0,1548.7,915.2,3473.4,3471.0,682.3,860.4,402.8,3497.8,908.4,774.5,3472.2,3480.7,374.7,553.8,391.1,477.4,230.2,231.7,3479.5,3477.1,580.2,431.7,683.1,1015.1,1182.3,495.6,-9.0,-61.0,-33.0,12890.0,8696.0,5129.0,-598.0,-1987.0,-234.0,-495.0,-25.0,-38.0,-31.0,13269.0,7754.0,-1736.0,-5406.0,-1490.0,-406.0,44.0,1.0
2022-05-08 18:12:26.681429-07:00,839.4,925.4,1363.9,925.4,798.5,479.0,1597.4,964.5,3473.4,3471.0,689.7,857.9,402.8,3497.8,923.7,778.6,3477.1,3471.0,374.7,553.8,389.5,480.6,230.2,231.7,3477.1,3472.2,580.2,431.7,679.1,1020.2,1182.3,495.6,-16.0,-17.0,30.0,13337.0,7949.0,5205.0,-527.0,-1859.0,-41.0,-423.0,-3.0,21.0,9.0,13570.0,7116.0,-1721.0,-5539.0,-1583.0,-555.0,127.0,1.0
2022-05-08 18:12:26.682579-07:00,834.4,905.0,1363.9,925.4,786.1,477.4,1597.4,964.5,3474.6,3480.7,689.7,857.9,401.2,3494.1,923.7,778.6,3477.1,3471.0,377.8,555.4,389.5,480.6,238.6,236.3,3477.1,3472.2,585.9,433.3,679.1,1020.2,1196.5,511.5,22.0,-49.0,19.0,13753.0,7165.0,5266.0,-457.0,-1921.0,-218.0,-617.0,6.0,-44.0,6.0,13857.0,6462.0,-1687.0,-5641.0,-1516.0,-411.0,181.0,1.0
2022-05-08 18:12:26.802422-07:00,834.4,905.0,1377.5,932.2,786.1,477.4,1711.0,951.7,3474.6,3480.7,681.5,857.9,401.2,3494.1,965.4,776.9,3477.1,3477.1,377.8,555.4,395.0,479.8,238.6,236.3,3480.7,3474.6,585.9,433.3,685.6,1022.8,1196.5,511.5,-15.0,10.0,-24.0,14054.0,6465.0,5365.0,-573.0,-1562.0,-170.0,-844.0,-14.0,28.0,-6.0,14094.0,5867.0,-1638.0,-5716.0,-1404.0,-399.0,120.0,1.0
2022-05-08 18:12:26.803781-07:00,838.6,885.6,1377.5,932.2,786.9,469.5,1711.0,951.7,3474.6,3483.2,681.5,857.9,405.1,3496.6,965.4,776.9,3477.1,3477.1,377.0,556.2,395.0,479.8,232.5,233.3,3480.7,3474.6,575.4,427.8,685.6,1022.8,1205.3,493.2,8.0,-173.0,-3.0,14303.0,5856.0,5407.0,-581.0,-1087.0,-178.0,-249.0,13.0,-86.0,1.0,14254.0,5410.0,-1635.0,-5773.0,-757.0,-263.0,128.0,1.0
2022-05-08 18:12:26.861480-07:00,838.6,885.6,1383.9,931.3,786.9,467.9,1692.9,932.2,3474.6,3483.2,686.4,859.5,405.1,3491.7,999.6,781.1,3472.2,3480.7,374.7,556.2,395.0,481.4,232.5,233.3,3474.6,3481.9,565.8,427.8,684.8,1017.6,1205.3,493.2,-5.0,74.0,42.0,14435.0,5518.0,5416.0,-542.0,-938.0,33.0,-232.0,12.0,9.0,48.0,14360.0,5094.0,-1632.0,-5799.0,-826.0,-278.0,100.0,1.0
2022-05-08 18:12:26.921700-07:00,849.5,876.4,1390.3,931.3,786.1,467.9,1692.9,932.2,3478.3,3471.0,688.0,859.5,407.5,3491.7,999.6,781.1,3472.2,3480.7,374.7,554.6,395.0,481.4,235.5,234.0,3474.6,3481.9,565.8,424.7,684.8,1021.1,1203.5,494.0,10.0,-192.0,61.0,14578.0,5050.0,5494.0,-493.0,-913.0,16.0,-276.0,24.0,-97.0,-13.0,14467.0,4750.0,-1618.0,-5828.0,-597.0,-184.0,116.0,1.0
2022-05-08 18:12:26.981421-07:00,849.5,876.4,1390.3,933.0,786.1,464.8,1636.0,931.3,3478.3,3471.0,688.0,857.9,407.5,3497.8,1016.8,783.6,3474.6,3473.4,379.4,554.6,398.9,481.4,235.5,234.0,3480.7,3473.4,565.8,424.7,681.5,1021.1,1203.5,494.0,-4.0,26.0,-6.0,14616.0,4878.0,5552.0,-440.0,-339.0,105.0,36.0,25.0,-3.0,-8.0,14510.0,4620.0,-1608.0,-5828.0,-204.0,-68.0,47.0,1.0
2022-05-08 18:12:26.982572-07:00,855.3,862.9,1397.6,933.0,788.6,464.8,1636.0,931.3,3475.9,3478.3,687.2,857.9,405.1,3497.8,1016.8,783.6,3474.6,3473.4,379.4,557.0,398.9,479.0,232.5,237.1,3480.7,3473.4,565.8,425.5,681.5,1017.6,1200.9,489.3,3.0,-29.0,16.0,14644.0,4734.0,5604.0,-393.0,-289.0,118.0,-101.0,16.0,-1.0,-4.0,14534.0,4520.0,-1615.0,-5844.0,-159.0,-89.0,-8.0,1.0
2022-05-08 18:12:27.162070-07:00,855.3,862.9,1397.6,930.5,788.6,462.4,1599.3,917.7,3475.9,3478.3,687.2,868.8,405.1,3496.6,1019.4,789.4,3478.3,3479.5,377.0,557.0,398.1,479.0,232.5,237.1,3483.2,3474.6,566.6,425.5,686.4,1017.6,1200.9,489.3,9.0,21.0,-11.0,14635.0,4657.0,5694.0,-386.0,-169.0,232.0,-114.0,10.0,22.0,7.0,14536.0,4469.0,-1630.0,-5874.0,-115.0,-82.0,-58.0,1.0
2022-05-08 18:12:27.282152-07:00,846.1,874.7,1404.0,930.5,791.0,462.4,1599.3,917.7,3480.7,3472.2,685.6,868.8,403.5,3496.6,1019.4,789.4,3478.3,3479.5,377.0,563.4,398.1,483.7,236.3,238.6,3483.2,3474.6,566.6,426.2,686.4,1018.5,1215.1,492.5,8.0,-67.0,15.0,14622.0,4573.0,5796.0,-381.0,-163.0,212.0,-114.0,30.0,-24.0,3.0,14544.0,4407.0,-1630.0,-5902.0,-109.0,-46.0,-24.0,1.0
2022-05-08 18:12:27.283179-07:00,846.1,874.7,1404.0,930.5,781.1,465.6,1583.3,920.3,3480.7,3472.2,685.6,862.9,404.3,3496.6,1028.8,789.4,3477.1,3481.9,378.6,563.4,402.8,483.7,236.3,238.6,3483.2,3478.3,570.6,427.8,685.6,1018.5,1215.1,492.5,-4.0,-1.0,10.0,14589.0,4570.0,5882.0,-351.0,70.0,239.0,58.0,20.0,-6.0,2.0,14541.0,4414.0,-1634.0,-5902.0,74.0,24.0,8.0,1.0
2022-05-08 18:12:27.285123-07:00,847.8,872.1,1400.3,925.4,781.1,465.6,1583.3,920.3,3478.3,3478.3,684.8,862.9,404.3,3496.6,1028.8,789.4,3477.1,3481.9,378.6,563.4,398.1,484.5,231.0,238.6,3483.2,3478.3,570.6,427.8,686.4,1015.9,1209.7,490.9,-27.0,-11.0,-38.0,14553.0,4587.0,5959.0,-317.0,49.0,127.0,29.0,16.0,0.0,9.0,14539.0,4433.0,-1632.0,-5894.0,53.0,29.0,8.0,1.0
2022-05-08 18:12:27.286662-07:00,847.8,872.1,1400.3,925.4,790.2,464.8,1550.6,921.1,3478.3,3478.3,684.8,862.9,404.3,3497.8,1021.9,788.6,3474.6,3474.6,378.6,561.8,398.1,484.5,231.0,238.6,3483.2,3480.7,561.8,426.2,686.4,1015.9,1209.7,490.9,-8.0,5.0,-7.0,14510.0,4682.0,5991.0,-293.0,166.0,142.0,159.0,0.0,15.0,-6.0,14519.0,4513.0,-1641.0,-5880.0,251.0,56.0,-8.0,1.0
2022-05-08 18:12:27.372462-07:00,852.0,874.7,1411.3,933.9,790.2,464.8,1550.6,921.1,3472.2,3471.0,681.5,863.7,404.3,3497.8,1021.9,788.6,3474.6,3474.6,378.6,561.8,399.6,483.0,233.3,235.5,3483.2,3480.7,561.8,426.2,683.1,1015.1,1200.9,493.2,-1.0,13.0,-12.0,14468.0,4755.0,6037.0,-250.0,141.0,190.0,76.0,1.0,0.0,-11.0,14498.0,4593.0,-1657.0,-5867.0,145.0,26.0,1.0,1.0
2022-05-08 18:12:27.373481-07:00,852.0,874.7,1411.3,933.9,796.9,458.5,1541.3,919.4,3472.2,3471.0,681.5,863.7,406.7,3497.8,1010.8,795.2,3478.3,3477.1,380.2,567.4,399.6,483.0,233.3,235.5,3483.2,3472.2,564.2,424.7,683.1,1015.1,1200.9,493.2,-19.0,6.0,-30.0,14413.0,4848.0,6096.0,-213.0,205.0,153.0,161.0,8.0,12.0,0.0,14474.0,4671.0,-1672.0,-5859.0,240.0,42.0,-25.0,1.0
2022-05-08 18:12:27.374272-07:00,852.8,867.9,1398.5,932.2,796.9,458.5,1541.3,919.4,3480.7,3462.5,681.5,865.4,406.7,3497.8,1010.8,795.2,3478.3,3477.1,380.2,567.4,396.5,486.9,234.0,235.5,3483.2,3472.2,564.2,424.7,688.9,1017.6,1200.0,498.0,-11.0,29.0,14.0,14369.0,4937.0,6129.0,-152.0,72.0,121.0,131.0,11.0,0.0,-1.0,14444.0,4761.0,-1691.0,-5854.0,169.0,29.0,-27.0,1.0
2022-05-08 18:12:27.431939-07:00,848.6,867.9,1398.5,932.2,817.7,459.3,1531.0,911.8,3472.2,3462.5,681.5,865.4,404.3,3499.0,1013.3,791.9,3475.9,3475.9,373.2,560.2,396.5,486.9,234.0,232.5,3480.7,3480.7,561.8,430.2,688.9,1017.6,1200.0,496.4,-32.0,12.0,-37.0,14350.0,4964.0,6151.0,-127.0,86.0,69.0,81.0,0.0,-9.0,-7.0,14431.0,4793.0,-1701.0,-5858.0,90.0,19.0,-22.0,1.0
2022-05-08 18:12:27.612216-07:00,848.6,868.8,1393.9,939.8,817.7,459.3,1531.0,909.3,3472.2,3467.4,685.6,862.1,404.3,3499.0,1013.3,784.4,3472.2,3475.9,373.2,560.2,405.1,483.0,234.0,232.5,3477.1,3480.7,561.8,430.2,690.5,1019.4,1192.9,496.4,4.0,-6.0,-2.0,14339.0,4984.0,6162.0,-109.0,43.0,75.0,15.0,11.0,-16.0,0.0,14423.0,4815.0,-1709.0,-5857.0,55.0,-3.0,-8.0,1.0
2022-05-08 18:12:27.641437-07:00,847.0,868.8,1393.9,939.8,813.5,458.5,1513.4,909.3,3474.6,3467.4,685.6,862.1,405.9,3494.1,1017.6,784.4,3472.2,3479.5,379.4,561.8,405.1,483.0,234.0,234.8,3477.1,3483.2,561.8,434.9,690.5,1019.4,1192.9,496.4,0.0,-12.0,22.0,14309.0,5026.0,6198.0,-101.0,183.0,188.0,78.0,8.0,-7.0,0.0,14409.0,4863.0,-1721.0,-5849.0,181.0,39.0,-11.0,1.0
2022-05-08 18:12:27.642657-07:00,847.0,872.1,1398.5,936.4,813.5,458.5,1513.4,905.9,3474.6,3477.1,682.3,858.7,405.9,3494.1,1017.6,788.6,3479.5,3479.5,379.4,561.8,398.9,486.1,236.3,234.8,3477.1,3483.2,561.8,434.9,690.5,1018.5,1196.5,496.4,-19.0,-29.0,33.0,14240.0,5124.0,6276.0,-62.0,339.0,354.0,201.0,18.0,-8.0,19.0,14371.0,4982.0,-1735.0,-5838.0,374.0,114.0,-44.0,1.0
2022-05-08 18:12:27.643816-07:00,847.8,872.1,1398.5,936.4,812.7,459.3,1498.6,905.9,3478.3,3477.1,682.3,858.7,409.0,3494.1,1016.8,788.6,3479.5,3480.7,376.3,562.6,398.9,486.1,236.3,241.6,3477.1,3480.7,563.4,426.2,690.5,1018.5,1196.5,495.6,20.0,6.0,57.0,14126.0,5307.0,6382.0,6.0,528.0,533.0,295.0,19.0,-10.0,2.0,14301.0,5202.0,-1747.0,-5814.0,584.0,201.0,-70.0,1.0
2022-05-08 18:12:27.701673-07:00,847.8,865.4,1403.0,937.3,812.7,459.3,1480.1,909.3,3478.3,3469.8,683.1,859.5,409.0,3494.1,1013.3,783.6,3485.6,3477.1,376.3,562.6,393.4,482.2,234.8,241.6,3479.5,3475.9,563.4,426.2,686.4,1012.5,1187.6,495.6,-38.0,-66.0,59.0,13923.0,5581.0,6590.0,108.0,841.0,848.0,452.0,25.0,4.0,45.0,14223.0,5440.0,-1738.0,-5791.0,923.0,344.0,-178.0,1.0
2022-05-08 18:12:27.821632-07:00,844.4,859.5,1403.0,937.3,802.7,461.6,1480.1,909.3,3469.8,3474.6,683.1,859.5,404.3,3492.9,1013.3,783.6,3485.6,3477.1,370.0,562.6,393.4,482.2,237.8,236.3,3479.5,3475.9,559.4,423.9,686.4,1012.5,1182.3,491.7,-22.0,-88.0,46.0,13601.0,6066.0,6822.0,326.0,1143.0,1027.0,945.0,36.0,-33.0,30.0,14026.0,5968.0,-1721.0,-5756.0,1460.0,558.0,-265.0,1.0
2022-05-08 18:12:27.822854-07:00,844.4,859.5,1400.3,948.3,802.7,461.6,1468.1,906.7,3469.8,3474.6,688.0,864.6,404.3,3492.9,1015.1,785.2,3480.7,3478.3,370.0,562.6,391.8,485.3,237.8,236.3,3481.9,3474.6,559.4,423.9,688.0,1017.6,1182.3,491.7,-4.0,-1.0,-20.0,13229.0,6583.0,7052.0,611.0,926.0,992.0,763.0,11.0,-15.0,15.0,13787.0,6578.0,-1673.0,-5682.0,1275.0,616.0,-213.0,1.0
2022-05-08 18:12:27.911364-07:00,844.4,859.5,1400.3,948.3,811.9,456.9,1468.1,906.7,3478.3,3479.5,688.0,864.6,405.1,3497.8,1015.1,785.2,3480.7,3478.3,384.0,557.8,391.8,485.3,235.5,236.3,3481.9,3474.6,558.6,423.1,688.0,1017.6,1185.0,498.8,28.0,41.0,-78.0,12845.0,7092.0,7234.0,904.0,1051.0,874.0,1113.0,-10.0,0.0,-33.0,13519.0,7202.0,-1611.0,-5587.0,1590.0,670.0,-233.0,1.0
2022-05-08 18:12:28.271620-07:00,844.4,859.5,1404.0,940.7,811.9,456.9,1468.1,905.9,3478.3,3479.5,692.9,861.2,405.1,3497.8,1003.9,790.2,3478.3,3483.2,384.0,557.8,395.0,485.3,235.5,236.3,3477.1,3483.2,558.6,423.1,679.1,1015.1,1185.0,498.8,41.0,116.0,-120.0,12541.0,7456.0,7364.0,1154.0,255.0,496.0,144.0,-11.0,23.0,-55.0,13289.0,7700.0,-1555.0,-5491.0,438.0,343.0,-83.0,1.0
2022-05-08 18:12:28.273189-07:00,848.6,863.7,1404.0,940.7,805.2,461.6,1468.1,905.9,3469.8,3473.4,692.9,861.2,405.9,3492.9,1003.9,790.2,3478.3,3483.2,391.1,560.2,395.0,485.3,237.1,233.3,3477.1,3483.2,563.4,422.3,679.1,1015.1,1182.3,495.6,56.0,-2.0,-98.0,12424.0,7550.0,7456.0,1220.0,246.0,156.0,216.0,-12.0,-11.0,-78.0,13216.0,7861.0,-1499.0,-5453.0,342.0,146.0,-79.0,1.0
2022-05-08 18:12:28.274403-07:00,848.6,863.7,1403.0,939.8,805.2,456.1,1459.8,904.2,3469.8,3473.4,688.0,862.1,405.9,3496.6,1005.6,789.4,3480.7,3477.1,391.1,560.2,392.6,486.9,237.1,233.3,3478.3,3481.9,561.0,422.3,687.2,1018.5,1182.3,495.6,50.0,14.0,-59.0,12381.0,7609.0,7463.0,1246.0,25.0,-38.0,-100.0,0.0,-30.0,-44.0,13167.0,7947.0,-1496.0,-5448.0,-32.0,-47.0,-4.0,1.0
2022-05-08 18:12:28.275203-07:00,852.0,867.9,1393.0,939.8,801.0,456.1,1459.8,904.2,3467.4,3480.7,689.7,862.1,404.3,3496.6,1005.6,789.4,3480.7,3477.1,391.1,564.2,392.6,490.1,225.7,239.3,3478.3,3481.9,561.0,426.2,687.2,1015.1,1181.5,495.6,-7.0,13.0,-13.0,12392.0,7604.0,7458.0,1201.0,32.0,-89.0,-45.0,1.0,7.0,6.0,13170.0,7925.0,-1517.0,-5465.0,-4.0,-84.0,-12.0,1.0
2022-05-08 18:12:28.361247-07:00,852.0,867.9,1393.0,938.1,801.0,457.7,1447.0,900.8,3467.4,3480.7,689.7,861.2,404.3,3499.0,1003.0,786.9,3472.2,3480.7,386.4,564.2,394.2,490.1,225.7,239.3,3473.4,3478.3,563.4,426.2,688.9,1015.1,1181.5,495.6,-15.0,9.0,19.0,12402.0,7601.0,7450.0,1161.0,-9.0,-23.0,-116.0,10.0,1.0,24.0,13168.0,7908.0,-1538.0,-5489.0,-54.0,-71.0,-20.0,1.0
2022-05-08 18:12:28.392209-07:00,845.3,857.0,1392.1,938.1,800.2,457.7,1447.0,900.8,3477.1,3471.0,685.6,861.2,411.4,3499.0,1003.0,786.9,3472.2,3480.7,386.4,561.0,394.2,487.7,234.8,234.0,3473.4,3478.3,563.4,421.5,688.9,1015.1,1180.6,492.5,-25.0,-36.0,-4.0,12419.0,7561.0,7469.0,1117.0,-66.0,-43.0,-141.0,10.0,-17.0,22.0,13194.0,7850.0,-1538.0,-5510.0,-147.0,-45.0,-7.0,1.0
2022-05-08 18:12:28.394386-07:00,847.8,855.3,1390.3,936.4,791.9,453.0,1440.5,898.3,3478.3,3480.7,688.0,862.1,403.5,3491.7,1003.0,786.1,3481.9,3485.6,392.6,556.2,393.4,483.0,231.7,233.3,3474.6,3477.1,559.4,420.0,689.7,1015.1,1176.2,492.5,15.0,-3.0,-15.0,12463.0,7491.0,7476.0,1040.0,-66.0,-106.0,-91.0,0.0,-3.0,-11.0,13245.0,7753.0,-1528.0,-5529.0,-120.0,-51.0,18.0,1.0
2022-05-08 18:12:28.395351-07:00,847.8,855.3,1390.3,936.4,791.9,454.5,1429.5,898.3,3478.3,3480.7,688.0,862.1,400.4,3501.4,997.9,788.6,3479.5,3481.9,385.6,562.6,393.4,483.0,231.7,233.3,3477.1,3486.8,557.8,421.5,689.7,1015.1,1176.2,492.5,-7.0,0.0,-14.0,12485.0,7478.0,7456.0,1013.0,-18.0,-86.0,-17.0,0.0,-3.0,1.0,13257.0,7725.0,-1535.0,-5538.0,-34.0,-35.0,9.0,1.0
2022-05-08 18:12:28.481423-07:00,847.8,851.1,1384.8,932.2,791.9,454.5,1429.5,898.3,3471.0,3477.1,686.4,862.9,400.4,3501.4,997.9,788.6,3479.5,3481.9,385.6,562.6,392.6,487.7,234.0,234.8,3477.1,3486.8,557.8,421.5,691.3,1018.5,1175.3,496.4,9.0,5.0,-15.0,12515.0,7462.0,7427.0,990.0,-70.0,-141.0,-47.0,9.0,-9.0,-3.0,13270.0,7692.0,-1546.0,-5547.0,-95.0,-68.0,21.0,1.0
2022-05-08 18:12:28.511798-07:00,847.8,851.1,1384.8,932.2,791.9,456.1,1429.5,898.3,3471.0,3477.1,686.4,862.9,405.1,3497.8,991.0,783.6,3474.6,3473.4,391.1,558.6,392.6,487.7,234.0,234.8,3468.6,3478.3,556.2,420.0,691.3,1018.5,1175.3,496.4,-6.0,8.0,-29.0,12563.0,7424.0,7389.0,945.0,-107.0,-208.0,-122.0,9.0,6.0,3.0,13302.0,7625.0,-1559.0,-5560.0,-205.0,-86.0,31.0,1.0
2022-05-08 18:12:28.571738-07:00,843.6,857.0,1390.3,937.3,791.9,456.1,1429.5,898.3,3469.8,3469.8,687.2,861.2,405.1,3497.8,991.0,783.6,3474.6,3473.4,391.1,558.6,391.1,482.2,231.7,231.0,3468.6,3478.3,556.2,420.0,688.9,1017.6,1171.8,496.4,22.0,7.0,-14.0,12630.0,7378.0,7330.0,872.0,-78.0,-255.0,-135.0,-3.0,-16.0,-16.0,13346.0,7532.0,-1570.0,-5578.0,-203.0,-118.0,28.0,1.0
2022-05-08 18:12:28.572845-07:00,847.0,857.0,1390.3,937.3,786.1,453.0,1427.7,900.0,3469.8,3469.8,687.2,861.2,404.3,3492.9,997.9,780.3,3488.0,3480.7,388.7,558.6,391.1,482.2,231.7,235.5,3483.2,3477.1,549.8,423.9,688.9,1017.6,1171.8,494.0,-7.0,32.0,-12.0,12707.0,7301.0,7285.0,778.0,-141.0,-260.0,-266.0,10.0,4.0,7.0,13401.0,7411.0,-1585.0,-5606.0,-338.0,-147.0,31.0,1.0
2022-05-08 18:12:28.631546-07:00,847.0,866.3,1383.9,930.5,786.1,453.0,1427.7,895.7,3469.8,3475.9,684.8,860.4,404.3,3492.9,997.9,777.8,3480.7,3480.7,388.7,558.6,391.1,483.0,237.8,235.5,3477.1,3477.1,549.8,423.9,683.1,1018.5,1168.2,494.0,0.0,-3.0,-47.0,12820.0,7161.0,7240.0,623.0,-286.0,-475.0,-468.0,1.0,-8.0,3.0,13509.0,7189.0,-1576.0,-5638.0,-657.0,-182.0,88.0,1.0
2022-05-08 18:12:28.721951-07:00,846.1,866.3,1383.9,930.5,786.1,455.3,1422.2,895.7,3485.6,3475.9,684.8,860.4,398.1,3490.5,991.9,777.8,3480.7,3472.2,389.5,556.2,391.1,483.0,237.8,231.7,3477.1,3483.2,554.6,420.8,683.1,1018.5,1168.2,499.6,2.0,0.0,-8.0,12956.0,6979.0,7190.0,406.0,-212.0,-328.0,-617.0,8.0,-13.0,0.0,13623.0,6934.0,-1582.0,-5681.0,-594.0,-250.0,53.0,1.0
2022-05-08 18:12:28.725049-07:00,846.1,853.7,1383.0,933.9,786.1,455.3,1422.2,900.8,3485.6,3477.1,685.6,855.3,398.1,3490.5,991.9,788.6,3481.9,3472.2,389.5,556.2,391.8,484.5,234.8,231.7,3479.5,3483.2,554.6,420.8,685.6,1013.3,1169.1,499.6,-40.0,-15.0,-25.0,13082.0,6758.0,7183.0,171.0,-393.0,-408.0,-669.0,17.0,-13.0,31.0,13752.0,6641.0,-1580.0,-5719.0,-799.0,-234.0,132.0,1.0
2022-05-08 18:12:28.841423-07:00,847.8,853.7,1383.0,933.9,797.7,451.4,1425.9,900.8,3472.2,3477.1,685.6,855.3,402.0,3492.9,993.6,788.6,3481.9,3475.9,387.9,555.4,391.8,484.5,234.8,231.7,3479.5,3477.1,558.6,435.7,685.6,1013.3,1169.1,495.6,23.0,5.0,65.0,13243.0,6520.0,7110.0,-27.0,-321.0,-403.0,-441.0,14.0,-14.0,-13.0,13890.0,6341.0,-1570.0,-5730.0,-573.0,-195.0,115.0,1.0
2022-05-08 18:12:28.932111-07:00,847.8,854.5,1380.3,936.4,797.7,451.4,1404.0,889.8,3472.2,3475.9,684.0,862.9,402.0,3492.9,995.3,789.4,3467.4,3479.5,387.9,555.4,391.8,485.3,234.0,231.7,3475.9,3474.6,558.6,435.7,685.6,1014.2,1167.4,495.6,-20.0,-19.0,5.0,13341.0,6334.0,7093.0,-134.0,-382.0,-204.0,-324.0,37.0,-13.0,18.0,13980.0,6126.0,-1564.0,-5745.0,-513.0,-126.0,85.0,1.0
2022-05-08 18:12:28.933085-07:00,846.1,844.4,1380.3,936.4,802.7,453.0,1404.0,889.8,3478.3,3471.0,684.0,862.9,402.8,3497.8,995.3,789.4,3467.4,3479.5,384.8,554.6,391.8,485.3,234.0,231.0,3475.9,3474.6,560.2,427.0,685.6,1014.2,1173.5,502.0,13.0,-32.0,-16.0,13449.0,6163.0,7039.0,-198.0,-344.0,-290.0,-187.0,6.0,-22.0,-14.0,14062.0,5944.0,-1557.0,-5740.0,-380.0,-122.0,119.0,1.0
2022-05-08 18:12:28.934626-07:00,846.1,844.4,1392.1,933.9,802.7,453.0,1405.8,903.4,3478.3,3471.0,677.4,872.1,402.8,3497.8,992.7,786.1,3468.6,3477.1,384.8,554.6,386.4,484.5,234.0,231.0,3473.4,3484.4,560.2,427.0,688.9,1015.1,1173.5,502.0,-24.0,50.0,-15.0,13538.0,6027.0,6985.0,-238.0,-381.0,-215.0,-174.0,12.0,30.0,21.0,14123.0,5800.0,-1565.0,-5735.0,-391.0,-122.0,93.0,1.0
2022-05-08 18:12:29.382226-07:00,846.1,845.3,1392.1,933.9,797.7,453.0,1405.8,903.4,3473.4,3475.9,677.4,872.1,404.3,3499.0,992.7,786.1,3468.6,3477.1,384.8,554.6,386.4,484.5,235.5,230.2,3473.4,3484.4,556.2,423.1,688.9,1015.1,1172.6,497.2,18.0,4.0,-24.0,13674.0,5814.0,6897.0,-290.0,-456.0,-416.0,-272.0,15.0,-5.0,-18.0,14193.0,5629.0,-1559.0,-5734.0,-539.0,-152.0,121.0,1.0
2022-05-08 18:12:29.383162-07:00,846.1,845.3,1386.6,937.3,797.7,453.0,1419.5,895.7,3473.4,3475.9,683.1,857.0,404.3,3499.0,990.2,785.2,3478.3,3473.4,384.8,554.6,391.1,484.5,235.5,230.2,3473.4,3478.3,556.2,423.1,686.4,1016.8,1172.6,497.2,1.0,33.0,1.0,13791.0,5611.0,6827.0,-371.0,-396.0,-241.0,-293.0,6.0,30.0,-11.0,14274.0,5416.0,-1558.0,-5738.0,-477.0,-156.0,74.0,1.0
2022-05-08 18:12:29.384498-07:00,855.3,841.9,1386.6,937.3,799.4,460.0,1419.5,895.7,3469.8,3467.4,683.1,857.0,405.9,3501.4,990.2,785.2,3478.3,3473.4,387.2,554.6,391.1,484.5,231.0,241.6,3473.4,3478.3,560.2,424.7,686.4,1016.8,1170.9,504.4,-1.0,-14.0,-34.0,13905.0,5401.0,6763.0,-418.0,-498.0,-349.0,-182.0,22.0,-18.0,-5.0,14346.0,5206.0,-1555.0,-5752.0,-492.0,-166.0,82.0,1.0
2022-05-08 18:12:29.386504-07:00,855.3,841.9,1389.4,935.6,799.4,454.5,1448.8,900.0,3469.8,3467.4,680.7,865.4,405.9,3501.4,987.6,781.1,3472.2,3480.7,387.9,554.6,391.8,479.8,231.0,241.6,3481.9,3473.4,556.2,424.7,689.7,1014.2,1170.9,504.4,25.0,40.0,29.0,14004.0,5263.0,6663.0,-460.0,-231.0,-234.0,-126.0,10.0,32.0,-12.0,14406.0,5034.0,-1558.0,-5756.0,-296.0,-115.0,60.0,1.0
2022-05-08 18:12:29.502094-07:00,844.4,841.1,1382.1,935.6,800.2,454.5,1448.8,900.0,3467.4,3479.5,675.8,865.4,409.0,3501.4,987.6,781.1,3472.2,3480.7,387.9,556.2,391.8,484.5,232.5,231.7,3481.9,3473.4,556.2,416.1,689.7,1014.2,1182.3,500.4,-14.0,-69.0,-19.0,14101.0,5088.0,6596.0,-450.0,-448.0,-271.0,-45.0,6.0,-72.0,-3.0,14457.0,4874.0,-1560.0,-5765.0,-323.0,-118.0,76.0,1.0
2022-05-08 18:12:29.502959-07:00,844.4,833.6,1381.2,931.3,883.1,457.7,1537.6,913.5,3475.9,3475.9,675.8,860.4,404.3,3499.0,979.9,782.7,3478.3,3479.5,381.7,557.0,396.5,479.8,231.7,234.0,3478.3,3477.1,554.6,423.9,692.9,1004.8,1168.2,491.7,-26.0,-2.0,0.0,14317.0,4982.0,6206.0,-330.0,-44.0,3.0,113.0,-4.0,-26.0,15.0,14493.0,4766.0,-1631.0,-5747.0,51.0,-2.0,15.0,1.0
2022-05-08 18:12:29.503939-07:00,838.6,834.4,1383.0,928.8,883.1,457.7,1537.6,913.5,3477.1,3475.9,679.1,862.1,404.3,3499.0,979.9,782.7,3478.3,3479.5,381.7,557.0,397.3,482.2,234.0,236.3,3478.3,3477.1,554.6,423.9,692.9,1009.0,1170.9,491.7,-20.0,-40.0,3.0,14318.0,4987.0,6203.0,-281.0,56.0,26.0,175.0,13.0,-30.0,11.0,14493.0,4776.0,-1639.0,-5734.0,159.0,35.0,45.0,1.0
2022-05-08 18:12:29.591078-07:00,838.6,834.4,1383.0,928.8,864.6,458.5,1519.9,908.4,3477.1,3475.9,679.1,862.1,405.9,3500.2,973.9,784.4,3472.2,3477.1,376.3,555.4,397.3,482.2,234.0,236.3,3477.1,3488.0,558.6,420.0,692.9,1009.0,1170.9,491.7,4.0,49.0,-15.0,14306.0,5040.0,6190.0,-236.0,4.0,-10.0,76.0,12.0,24.0,-8.0,14482.0,4838.0,-1648.0,-5710.0,31.0,33.0,19.0,1.0
2022-05-08 18:12:29.622270-07:00,831.1,832.7,1386.6,930.5,864.6,458.5,1519.9,908.4,3480.7,3475.9,679.1,861.2,405.9,3500.2,973.9,784.4,3472.2,3477.1,376.3,555.4,397.3,486.9,236.3,230.2,3477.1,3488.0,558.6,420.0,684.8,1011.6,1167.4,491.7,10.0,-25.0,-4.0,14318.0,5034.0,6168.0,-210.0,45.0,-43.0,79.0,17.0,-34.0,-6.0,14486.0,4838.0,-1642.0,-5699.0,28.0,16.0,22.0,1.0
2022-05-08 18:12:29.623357-07:00,831.1,832.7,1386.6,930.5,845.3,456.9,1507.8,903.4,3480.7,3475.9,679.1,861.2,404.3,3497.8,978.2,780.3,3462.5,3479.5,384.8,561.8,397.3,486.9,236.3,230.2,3480.7,3478.3,558.6,418.4,684.8,1011.6,1167.4,491.7,-6.0,3.0,-15.0,14318.0,5055.0,6150.0,-210.0,-51.0,-52.0,-1.0,9.0,5.0,1.0,14481.0,4858.0,-1645.0,-5694.0,-12.0,-7.0,8.0,1.0
2022-05-08 18:12:29.862110-07:00,839.4,838.6,1380.3,926.2,845.3,456.9,1507.8,903.4,3483.2,3473.4,677.4,862.9,404.3,3497.8,978.2,780.3,3462.5,3479.5,384.8,561.8,395.7,483.7,232.5,237.1,3480.7,3478.3,558.6,418.4,688.0,1008.2,1172.6,493.2,6.0,-18.0,3.0,14336.0,5035.0,6125.0,-205.0,-73.0,-58.0,44.0,19.0,-8.0,-3.0,14484.0,4849.0,-1647.0,-5695.0,-13.0,-23.0,7.0,1.0
2022-05-08 18:12:29.863791-07:00,844.4,838.6,1380.3,926.2,836.9,456.9,1504.1,904.2,3479.5,3473.4,677.4,862.9,403.5,3489.2,979.9,783.6,3478.3,3488.0,382.5,558.6,395.7,483.7,232.5,231.7,3473.4,3479.5,554.6,420.0,688.0,1008.2,1172.6,494.0,-15.0,-9.0,0.0,14350.0,5032.0,6097.0,-185.0,31.0,-100.0,58.0,22.0,-17.0,7.0,14482.0,4851.0,-1656.0,-5694.0,24.0,2.0,5.0,1.0
2022-05-08 18:12:29.864748-07:00,844.4,827.7,1380.3,927.9,836.9,456.9,1504.1,905.0,3479.5,3471.0,677.4,859.5,403.5,3489.2,979.9,782.7,3472.2,3488.0,382.5,558.6,395.0,482.2,231.0,231.7,3475.9,3479.5,554.6,420.0,689.7,1008.2,1171.8,494.0,20.0,25.0,19.0,14351.0,5057.0,6072.0,-189.0,13.0,78.0,0.0,15.0,9.0,0.0,14477.0,4872.0,-1651.0,-5690.0,15.0,31.0,-16.0,1.0
2022-05-08 18:12:30.041575-07:00,842.8,827.7,1380.3,927.9,828.5,456.1,1551.5,905.0,3474.6,3471.0,677.4,859.5,403.5,3497.8,976.5,782.7,3472.2,3473.4,379.4,552.2,395.0,482.2,231.0,229.5,3475.9,3478.3,557.0,420.8,689.7,1008.2,1171.8,494.8,-5.0,-31.0,-11.0,14336.0,5066.0,6101.0,-176.0,48.0,27.0,41.0,25.0,-24.0,3.0,14474.0,4882.0,-1642.0,-5693.0,35.0,43.0,-24.0,1.0
2022-05-08 18:12:30.042910-07:00,842.8,827.7,1383.0,939.8,828.5,456.1,1551.5,906.7,3474.6,3471.0,679.9,862.1,403.5,3497.8,976.5,779.4,3477.1,3473.4,379.4,552.2,397.3,483.7,233.3,229.5,3479.5,3478.3,557.0,420.8,693.8,1011.6,1169.1,494.8,-11.0,-19.0,-12.0,14331.0,5091.0,6091.0,-165.0,10.0,-45.0,103.0,13.0,-11.0,6.0,14470.0,4907.0,-1631.0,-5684.0,54.0,52.0,7.0,1.0
2022-05-08 18:12:30.043851-07:00,833.6,827.7,1383.0,939.8,820.2,461.6,1551.5,906.7,3471.0,3471.0,679.9,862.1,403.5,3486.8,979.0,779.4,3477.1,3480.7,378.6,556.2,397.3,483.7,233.3,231.7,3479.5,3485.6,559.4,423.1,693.8,1011.6,1169.1,489.3,-10.0,21.0,-12.0,14333.0,5126.0,6059.0,-137.0,57.0,-44.0,69.0,-10.0,6.0,-8.0,14461.0,4956.0,-1624.0,-5666.0,102.0,74.0,10.0,1.0
2022-05-08 18:12:30.161474-07:00,833.6,830.2,1378.5,928.8,820.2,461.6,1545.0,903.4,3471.0,3472.2,677.4,860.4,403.5,3486.8,972.2,781.1,3478.3,3474.6,378.6,556.2,396.5,481.4,231.7,231.7,3478.3,3477.1,559.4,423.1,692.9,1012.5,1164.7,489.3,-2.0,-8.0,-17.0,14332.0,5152.0,6039.0,-130.0,50.0,-28.0,56.0,-7.0,1.0,-12.0,14456.0,4992.0,-1610.0,-5653.0,74.0,53.0,1.0,1.0
2022-05-08 18:12:30.163038-07:00,836.9,830.2,1378.5,928.8,809.4,454.5,1545.0,903.4,3480.7,3474.6,677.4,860.4,403.5,3495.3,972.2,781.1,3478.3,3474.6,380.2,560.2,396.5,481.4,235.5,235.5,3478.3,3477.1,551.4,420.0,692.9,1012.5,1181.5,490.9,-16.0,-7.0,-16.0,14327.0,5194.0,6016.0,-119.0,35.0,-115.0,98.0,-1.0,-16.0,1.0,14447.0,5034.0,-1600.0,-5640.0,85.0,55.0,15.0,1.0
2022-05-08 18:12:30.164052-07:00,836.9,830.2,1390.3,920.3,809.4,454.5,1539.4,912.7,3480.7,3474.6,672.5,860.4,403.5,3495.3,973.1,781.1,3478.3,3477.1,380.2,560.2,393.4,485.3,235.5,235.5,3481.9,3475.9,551.4,420.0,689.7,1006.5,1181.5,490.9,-1.0,20.0,14.0,14334.0,5228.0,5970.0,-111.0,119.0,-49.0,62.0,20.0,17.0,6.0,14437.0,5084.0,-1598.0,-5623.0,135.0,69.0,-1.0,1.0
2022-05-08 18:12:30.251937-07:00,847.0,826.9,1390.3,920.3,817.7,458.5,1539.4,912.7,3475.9,3471.0,672.5,860.4,403.5,3503.9,973.1,781.1,3478.3,3477.1,383.3,560.2,393.4,485.3,233.3,233.3,3481.9,3475.9,554.6,420.8,689.7,1006.5,1165.6,490.1,-1.0,-30.0,31.0,14312.0,5310.0,5948.0,-120.0,382.0,-10.0,94.0,34.0,-9.0,21.0,14407.0,5187.0,-1592.0,-5608.0,353.0,167.0,-43.0,1.0
2022-05-08 18:12:30.252910-07:00,847.0,826.9,1393.9,919.4,817.7,458.5,1545.9,900.8,3475.9,3471.0,669.3,865.4,403.5,3503.9,977.3,786.9,3477.1,3478.3,383.3,560.2,392.6,482.2,233.3,233.3,3478.3,3477.1,554.6,420.8,684.8,1009.0,1165.6,490.1,7.0,-108.0,74.0,14221.0,5559.0,5940.0,-141.0,1002.0,227.0,405.0,41.0,-20.0,21.0,14324.0,5464.0,-1591.0,-5557.0,949.0,390.0,-71.0,1.0
2022-05-08 18:12:30.371532-07:00,833.6,841.9,1393.9,919.4,803.5,461.6,1545.9,900.8,3472.2,3473.4,669.3,865.4,403.5,3490.5,977.3,786.9,3477.1,3478.3,373.2,553.0,392.6,482.2,234.8,231.7,3478.3,3477.1,557.8,423.1,684.8,1009.0,1163.8,486.1,-39.0,-93.0,-13.0,13957.0,6179.0,5954.0,-80.0,2117.0,265.0,807.0,32.0,-91.0,63.0,14120.0,6079.0,-1564.0,-5447.0,1656.0,728.0,-110.0,1.0
2022-05-08 18:12:30.372800-07:00,833.6,841.9,1383.0,925.4,803.5,478.2,1584.2,897.4,3472.2,3473.4,679.9,858.7,403.5,3496.6,979.0,776.1,3484.4,3477.1,381.7,553.0,392.6,479.8,234.8,231.7,3488.0,3475.9,570.6,423.1,686.4,1008.2,1163.8,486.1,21.0,-6.0,-35.0,13536.0,7129.0,5863.0,-175.0,2112.0,84.0,520.0,-41.0,26.0,-55.0,13855.0,6772.0,-1548.0,-5312.0,1536.0,517.0,-120.0,1.0
2022-05-08 18:12:30.373732-07:00,833.6,909.3,1377.5,925.4,806.0,478.2,1584.2,897.4,3481.9,3471.0,675.0,858.7,402.0,3496.6,979.0,776.1,3484.4,3477.1,381.7,557.0,392.6,483.0,238.6,232.5,3488.0,3475.9,570.6,434.1,686.4,1007.3,1163.0,486.1,-3.0,52.0,-86.0,13116.0,7919.0,5800.0,-236.0,1850.0,186.0,588.0,0.0,8.0,-5.0,13610.0,7339.0,-1550.0,-5190.0,1133.0,460.0,-42.0,1.0
2022-05-08 18:12:30.375319-07:00,833.6,909.3,1377.5,929.6,806.0,483.0,1654.9,902.5,3481.9,3471.0,675.0,856.2,402.0,3502.7,939.8,777.8,3480.7,3479.5,377.8,557.0,388.7,483.0,238.6,232.5,3477.1,3479.5,581.8,434.1,684.8,1007.3,1163.0,486.1,-11.0,52.0,-29.0,12903.0,8293.0,5753.0,-277.0,254.0,220.0,43.0,-10.0,-16.0,-48.0,13548.0,7508.0,-1525.0,-5117.0,99.0,135.0,41.0,1.0
2022-05-08 18:12:30.491475-07:00,840.3,994.5,1372.1,929.6,799.4,483.0,1654.9,902.5,3478.3,3471.0,672.5,856.2,404.3,3502.7,939.8,777.8,3480.7,3479.5,377.8,553.0,388.7,484.5,239.3,231.7,3477.1,3479.5,581.8,441.9,684.8,1010.8,1149.8,495.6,19.0,53.0,-53.0,12833.0,8348.0,5828.0,-334.0,202.0,57.0,-207.0,-23.0,37.0,-42.0,13545.0,7531.0,-1495.0,-5100.0,-3.0,43.0,-67.0,1.0
2022-05-08 18:12:30.492920-07:00,840.3,994.5,1372.1,926.2,799.4,482.2,1635.0,911.0,3478.3,3471.0,672.5,859.5,404.3,3496.6,893.2,780.3,3478.3,3478.3,384.8,553.0,391.8,484.5,239.3,231.7,3488.0,3477.1,578.6,441.9,682.3,1010.8,1149.8,495.6,-7.0,-29.0,-17.0,12806.0,8331.0,5906.0,-412.0,-12.0,30.0,-242.0,17.0,-8.0,-7.0,13546.0,7513.0,-1475.0,-5131.0,-109.0,-60.0,-44.0,1.0
2022-05-08 18:12:30.521947-07:00,841.9,1016.8,1368.5,926.2,800.2,482.2,1635.0,911.0,3478.3,3478.3,671.7,859.5,405.1,3496.6,893.2,780.3,3478.3,3478.3,384.8,558.6,391.8,484.5,242.4,242.4,3488.0,3477.1,578.6,453.0,682.3,1011.6,1149.8,493.2,4.0,-27.0,0.0,12824.0,8307.0,5897.0,-455.0,47.0,-141.0,30.0,-3.0,-5.0,-6.0,13553.0,7487.0,-1481.0,-5148.0,46.0,-27.0,3.0,1.0
2022-05-08 18:12:30.581541-07:00,841.9,1016.8,1368.5,929.6,795.2,476.6,1604.0,912.7,3478.3,3478.3,671.7,852.8,404.3,3492.9,875.5,771.1,3474.6,3479.5,381.7,562.6,394.2,484.5,242.4,242.4,3467.4,3472.2,582.6,449.8,695.4,1011.6,1149.8,493.2,-19.0,11.0,20.0,12816.0,8333.0,5876.0,-453.0,13.0,18.0,7.0,8.0,1.0,29.0,13545.0,7498.0,-1490.0,-5151.0,-1.0,-2.0,-18.0,1.0
2022-05-08 18:12:30.641422-07:00,842.8,1007.3,1366.6,933.0,795.2,476.6,1604.0,912.7,3467.4,3478.3,669.3,860.4,404.3,3492.9,875.5,771.1,3474.6,3479.5,381.7,562.6,395.0,490.1,240.9,240.9,3467.4,3472.2,582.6,449.8,684.8,1007.3,1149.8,491.7,6.0,-18.0,-1.0,12816.0,8328.0,5885.0,-457.0,20.0,-2.0,11.0,7.0,-15.0,-4.0,13544.0,7500.0,-1484.0,-5152.0,46.0,32.0,3.0,1.0
2022-05-08 18:12:30.701551-07:00,842.8,1007.3,1366.6,933.0,791.0,480.6,1592.7,900.8,3467.4,3478.3,669.3,860.4,405.1,3495.3,867.9,769.5,3477.1,3475.9,377.0,553.0,395.0,490.1,240.9,240.9,3473.4,3478.3,578.6,444.3,684.8,1007.3,1149.8,491.7,9.0,7.0,0.0,12802.0,8357.0,5873.0,-444.0,88.0,6.0,75.0,2.0,2.0,-12.0,13530.0,7534.0,-1479.0,-5140.0,113.0,52.0,-10.0,1.0
2022-05-08 18:12:30.731402-07:00,844.4,1000.5,1364.8,926.2,791.0,480.6,1592.7,900.8,3473.4,3468.6,666.0,862.1,405.1,3495.3,867.9,769.5,3477.1,3475.9,377.0,553.0,391.1,483.7,244.7,240.1,3473.4,3478.3,578.6,444.3,681.5,1007.3,1150.6,493.2,-14.0,-1.0,2.0,12766.0,8407.0,5881.0,-437.0,150.0,70.0,28.0,11.0,-1.0,14.0,13503.0,7587.0,-1477.0,-5133.0,151.0,45.0,-35.0,1.0
2022-05-08 18:12:30.791435-07:00,844.4,1000.5,1364.8,926.2,791.0,490.1,1589.9,907.6,3473.4,3468.6,666.0,862.1,406.7,3507.5,865.4,770.3,3489.2,3484.4,377.0,559.4,391.1,483.7,244.7,240.1,3480.7,3481.9,573.0,445.9,681.5,1007.3,1150.6,493.2,1.0,1.0,-9.0,12717.0,8489.0,5868.0,-448.0,282.0,-38.0,108.0,4.0,0.0,-2.0,13461.0,7669.0,-1475.0,-5123.0,234.0,86.0,-22.0,1.0
2022-05-08 18:12:30.851647-07:00,842.8,1005.6,1365.7,933.0,791.0,490.1,1589.9,907.6,3477.1,3467.4,658.7,861.2,406.7,3507.5,865.4,770.3,3489.2,3484.4,377.0,559.4,395.7,479.8,238.6,241.6,3480.7,3481.9,573.0,445.9,682.3,997.9,1148.0,491.7,4.0,14.0,2.0,12673.0,8581.0,5829.0,-467.0,176.0,-29.0,43.0,3.0,9.0,-4.0,13424.0,7741.0,-1474.0,-5113.0,143.0,45.0,-30.0,1.0
2022-05-08 18:12:30.881503-07:00,843.6,1005.6,1365.7,933.0,791.0,472.7,1577.7,899.1,3478.3,3467.4,658.7,861.2,409.8,3499.0,859.5,769.5,3485.6,3480.7,380.2,557.0,395.7,479.8,238.6,240.1,3485.6,3474.6,578.6,449.0,682.3,997.9,1148.0,491.7,-4.0,-19.0,-10.0,12632.0,8647.0,5820.0,-476.0,199.0,24.0,83.0,5.0,-7.0,-5.0,13385.0,7809.0,-1476.0,-5112.0,208.0,35.0,-44.0,1.0
2022-05-08 18:12:30.941395-07:00,843.6,1000.5,1358.5,939.0,791.0,472.7,1577.7,900.0,3478.3,3472.2,662.7,862.1,409.8,3499.0,859.5,767.8,3474.6,3480.7,380.2,557.0,392.6,486.1,244.7,240.1,3477.1,3474.6,578.6,449.0,687.2,1014.2,1138.4,491.7,1.0,12.0,2.0,12597.0,8719.0,5790.0,-462.0,124.0,-8.0,110.0,5.0,9.0,0.0,13346.0,7872.0,-1490.0,-5112.0,130.0,-1.0,-14.0,1.0
2022-05-08 18:12:31.001531-07:00,839.4,1000.5,1358.5,939.0,784.4,472.7,1573.0,900.0,3469.8,3472.2,662.7,862.1,404.3,3491.7,854.5,767.8,3474.6,3477.1,376.3,555.4,392.6,486.1,244.7,239.3,3477.1,3473.4,572.2,445.9,687.2,1014.2,1138.4,493.2,-5.0,10.0,17.0,12580.0,8753.0,5777.0,-455.0,102.0,12.0,18.0,4.0,0.0,5.0,13327.0,7902.0,-1496.0,-5113.0,76.0,15.0,-25.0,1.0
2022-05-08 18:12:31.061511-07:00,839.4,1001.3,1352.1,928.8,784.4,472.7,1573.0,893.2,3469.8,3478.3,663.6,863.7,404.3,3491.7,854.5,770.3,3488.0,3477.1,376.3,555.4,388.7,486.9,243.2,239.3,3477.1,3473.4,572.2,445.9,677.4,1012.5,1144.5,493.2,-7.0,-5.0,-4.0,12549.0,8789.0,5788.0,-473.0,121.0,3.0,-19.0,10.0,-2.0,1.0,13311.0,7931.0,-1489.0,-5113.0,50.0,47.0,-21.0,1.0
2022-05-08 18:12:31.064126-07:00,841.1,1001.3,1352.1,928.8,791.9,483.0,1556.2,893.2,3472.2,3478.3,663.6,863.7,408.2,3486.8,857.9,770.3,3488.0,3477.1,377.0,555.4,388.7,486.9,243.2,240.9,3477.1,3480.7,574.6,443.5,677.4,1012.5,1144.5,492.5,-2.0,-25.0,3.0,12540.0,8807.0,5779.0,-485.0,80.0,-30.0,36.0,5.0,4.0,-2.0,13303.0,7949.0,-1484.0,-5107.0,84.0,31.0,0.0,1.0
2022-05-08 18:12:31.121879-07:00,841.1,1001.3,1358.5,925.4,791.9,483.0,1568.3,896.6,3472.2,3488.0,661.1,860.4,408.2,3486.8,852.8,769.5,3480.7,3478.3,377.0,555.4,391.8,480.6,243.2,240.9,3477.1,3488.0,574.6,443.5,680.7,1008.2,1145.4,492.5,0.0,7.0,-7.0,12510.0,8866.0,5752.0,-487.0,160.0,-19.0,69.0,0.0,7.0,-11.0,13276.0,7999.0,-1487.0,-5097.0,118.0,31.0,-11.0,1.0
2022-05-08 18:12:31.211421-07:00,841.9,995.3,1358.5,925.4,783.6,467.1,1568.3,896.6,3478.3,3481.9,661.1,860.4,404.3,3497.8,852.8,769.5,3480.7,3478.3,378.6,557.0,391.8,480.6,243.2,240.9,3477.1,3488.0,573.8,442.7,680.7,1008.2,1148.0,494.8,-4.0,-6.0,-7.0,12500.0,8877.0,5756.0,-492.0,-24.0,13.0,-34.0,4.0,0.0,0.0,13272.0,8007.0,-1489.0,-5097.0,-7.0,-13.0,-5.0,1.0
2022-05-08 18:12:31.212782-07:00,841.9,995.3,1355.8,919.4,783.6,467.1,1558.1,891.5,3478.3,3481.9,658.7,858.7,404.3,3497.8,849.5,771.1,3472.2,3479.5,378.6,557.0,390.3,479.8,243.2,240.9,3483.2,3480.7,573.8,442.7,680.7,1006.5,1148.0,494.8,-4.0,-9.0,-8.0,12500.0,8877.0,5756.0,-492.0,9.0,-4.0,14.0,4.0,-1.0,0.0,13271.0,8004.0,-1495.0,-5100.0,9.0,-19.0,-2.0,1.0
2022-05-08 18:12:31.271667-07:00,839.4,991.0,1355.8,919.4,781.1,470.3,1558.1,891.5,3478.3,3469.8,658.7,858.7,405.1,3507.5,849.5,771.1,3472.2,3479.5,381.7,562.6,390.3,479.8,237.1,239.3,3483.2,3480.7,577.0,441.9,680.7,1006.5,1141.0,488.5,-4.0,5.0,2.0,12504.0,8873.0,5755.0,-494.0,-32.0,-9.0,-22.0,9.0,-6.0,1.0,13273.0,7998.0,-1500.0,-5104.0,-23.0,-13.0,-9.0,1.0
2022-05-08 18:12:31.331366-07:00,839.4,991.0,1357.6,933.0,781.1,470.3,1557.1,894.9,3478.3,3469.8,661.1,853.7,405.1,3507.5,852.0,768.7,3474.6,3473.4,381.7,562.6,388.7,481.4,237.1,239.3,3480.7,3477.1,577.0,441.9,684.8,1009.0,1141.0,488.5,-1.0,-8.0,-1.0,12511.0,8863.0,5755.0,-496.0,-18.0,-5.0,-1.0,3.0,-1.0,3.0,13277.0,7988.0,-1503.0,-5108.0,-19.0,-17.0,7.0,1.0
2022-05-08 18:12:31.361541-07:00,840.3,989.3,1357.6,933.0,781.1,467.1,1557.1,894.9,3480.7,3488.0,661.1,853.7,408.2,3492.9,852.0,768.7,3474.6,3473.4,378.6,558.6,388.7,481.4,237.8,236.3,3480.7,3477.1,573.8,445.1,684.8,1009.0,1139.2,491.7,-6.0,-1.0,3.0,12521.0,8850.0,5754.0,-497.0,-35.0,-19.0,-30.0,0.0,0.0,2.0,13285.0,7971.0,-1505.0,-5113.0,-47.0,-18.0,-3.0,1.0
2022-05-08 18:12:31.451560-07:00,840.3,989.3,1353.1,934.7,781.1,474.3,1557.1,895.7,3480.7,3488.0,665.2,865.4,408.2,3497.8,850.3,767.0,3480.7,3481.9,380.2,558.6,395.7,486.9,237.8,236.3,3486.8,3472.2,576.2,445.1,683.1,1009.9,1139.2,491.7,0.0,4.0,-11.0,12539.0,8820.0,5757.0,-518.0,-103.0,-55.0,-87.0,4.0,-2.0,-3.0,13305.0,7933.0,-1501.0,-5122.0,-128.0,-45.0,-1.0,1.0
2022-05-08 18:12:31.481426-07:00,841.1,991.9,1358.5,934.7,781.1,474.3,1557.1,895.7,3480.7,3467.4,656.2,865.4,403.5,3497.8,850.3,767.0,3480.7,3481.9,380.2,554.6,395.7,483.0,241.6,237.8,3486.8,3472.2,576.2,441.2,683.1,1011.6,1140.1,490.1,-1.0,-16.0,3.0,12569.0,8774.0,5760.0,-538.0,-69.0,-38.0,-47.0,6.0,0.0,0.0,13324.0,7889.0,-1505.0,-5137.0,-59.0,-40.0,-2.0,1.0
2022-05-08 18:12:31.511548-07:00,841.1,991.9,1358.5,933.0,781.1,473.5,1552.5,891.5,3480.7,3467.4,656.2,862.1,403.5,3496.6,847.8,774.5,3472.2,3485.6,378.6,554.6,393.4,483.0,241.6,237.8,3475.9,3477.1,573.0,441.2,683.1,1011.6,1140.1,490.1,-11.0,-1.0,12.0,12579.0,8765.0,5751.0,-547.0,-21.0,-35.0,-9.0,6.0,-2.0,13.0,13330.0,7875.0,-1511.0,-5143.0,-26.0,-20.0,-4.0,1.0
2022-05-08 18:12:31.571587-07:00,838.6,990.2,1354.9,933.0,778.6,473.5,1552.5,891.5,3472.2,3478.3,657.9,862.1,405.9,3496.6,847.8,774.5,3472.2,3485.6,378.6,558.6,393.4,486.9,234.8,240.9,3475.9,3477.1,573.0,444.3,683.1,1012.5,1140.1,490.9,-3.0,-9.0,0.0,12592.0,8747.0,5749.0,-555.0,-71.0,-23.0,-37.0,4.0,-6.0,5.0,13341.0,7852.0,-1511.0,-5150.0,-79.0,-28.0,3.0,1.0
2022-05-08 18:12:31.632122-07:00,838.6,990.2,1354.9,943.2,778.6,465.6,1542.2,888.2,3472.2,3478.3,657.9,862.1,405.9,3494.1,844.4,763.7,3474.6,3477.1,377.0,558.6,391.8,486.9,234.8,240.9,3475.9,3477.1,573.0,444.3,684.8,1012.5,1140.1,490.9,2.0,0.0,-5.0,12613.0,8718.0,5747.0,-571.0,-44.0,-45.0,-46.0,0.0,4.0,-8.0,13356.0,7820.0,-1512.0,-5160.0,-73.0,-36.0,-1.0,1.0
2022-05-08 18:12:31.691444-07:00,841.1,995.3,1357.6,943.2,777.8,465.6,1542.2,888.2,3472.2,3472.2,660.3,862.1,402.8,3494.1,844.4,763.7,3474.6,3477.1,377.0,557.0,391.8,480.6,240.1,238.6,3475.9,3477.1,573.0,442.7,684.8,1011.6,1134.9,488.5,2.0,-15.0,0.0,12632.0,8689.0,5747.0,-587.0,-69.0,-40.0,-45.0,5.0,-10.0,-4.0,13370.0,7784.0,-1521.0,-5174.0,-64.0,-56.0,0.0,1.0
2022-05-08 18:12:31.721921-07:00,841.1,995.3,1357.6,930.5,784.4,467.1,1545.0,884.8,3472.2,3472.2,660.3,855.3,404.3,3502.7,851.1,761.2,3478.3,3473.4,384.8,560.2,394.2,480.6,240.1,238.6,3478.3,3478.3,572.2,442.7,680.7,1011.6,1134.9,488.5,-5.0,3.0,-7.0,12635.0,8692.0,5734.0,-599.0,47.0,-51.0,19.0,-5.0,-2.0,-3.0,13372.0,7772.0,-1535.0,-5184.0,-14.0,-51.0,-3.0,1.0
2022-05-08 18:12:31.811463-07:00,841.1,980.7,1353.1,927.9,784.4,467.1,1545.0,884.8,3472.2,3483.2,661.1,862.1,404.3,3502.7,851.1,761.2,3478.3,3473.4,384.8,560.2,398.1,481.4,240.9,238.6,3478.3,3478.3,572.2,442.7,679.1,1009.0,1140.1,487.7,-4.0,23.0,-14.0,12663.0,8655.0,5729.0,-605.0,-244.0,-47.0,-92.0,-13.0,11.0,-9.0,13397.0,7699.0,-1562.0,-5220.0,-271.0,-208.0,2.0,1.0
2022-05-08 18:12:31.841987-07:00,841.1,980.7,1353.1,927.9,780.3,475.0,1559.0,891.5,3472.2,3483.2,661.1,862.1,405.1,3497.8,865.4,764.5,3474.6,3475.9,374.7,558.6,398.1,481.4,240.9,238.6,3488.0,3480.7,580.2,441.9,679.1,1009.0,1140.1,487.7,-31.0,-10.0,-4.0,12739.0,8515.0,5768.0,-606.0,-297.0,22.0,-146.0,15.0,-5.0,32.0,13442.0,7582.0,-1589.0,-5266.0,-309.0,-182.0,-5.0,1.0
2022-05-08 18:12:31.871669-07:00,844.4,981.6,1345.8,933.0,780.3,475.0,1559.0,891.5,3479.5,3480.7,657.9,862.1,405.1,3497.8,865.4,764.5,3474.6,3475.9,374.7,558.6,391.8,483.0,234.8,240.1,3488.0,3480.7,580.2,441.9,684.0,1011.6,1136.6,494.8,-53.0,66.0,-30.0,12822.0,8390.0,5768.0,-609.0,-773.0,-180.0,-85.0,16.0,53.0,12.0,13507.0,7427.0,-1601.0,-5316.0,-544.0,-237.0,17.0,1.0
2022-05-08 18:12:31.932101-07:00,844.4,981.6,1345.8,933.0,772.8,475.0,1569.3,899.1,3479.5,3480.7,657.9,862.1,404.3,3489.2,864.6,764.5,3469.8,3472.2,377.8,556.2,391.8,483.0,234.8,240.1,3477.1,3481.9,597.9,440.4,684.0,1011.6,1136.6,494.8,87.0,-198.0,9.0,13125.0,7964.0,5698.0,-525.0,-1133.0,-518.0,-264.0,-8.0,-127.0,-22.0,13654.0,7103.0,-1605.0,-5384.0,-836.0,-248.0,119.0,1.0
2022-05-08 18:12:31.961568-07:00,837.7,969.6,1345.8,929.6,772.8,475.0,1569.3,899.1,3475.9,3479.5,659.5,867.1,404.3,3489.2,864.6,764.5,3469.8,3472.2,377.8,556.2,391.1,483.0,240.1,240.1,3477.1,3481.9,597.9,440.4,682.3,1009.9,1165.6,486.1,19.0,101.0,-37.0,13335.0,7677.0,5607.0,-502.0,-1043.0,-253.0,24.0,15.0,31.0,-1.0,13764.0,6848.0,-1600.0,-5434.0,-741.0,-282.0,-1.0,1.0
2022-05-08 18:12:32.051977-07:00,837.7,969.6,1345.8,929.6,778.6,471.1,1579.6,901.7,3467.4,3479.5,659.5,867.1,403.5,3492.9,927.9,767.8,3483.2,3479.5,391.1,557.8,391.1,483.0,240.1,237.1,3479.5,3475.9,592.3,435.7,682.3,1009.9,1165.6,487.7,33.0,-92.0,-8.0,13658.0,7156.0,5526.0,-395.0,-1504.0,-481.0,-214.0,22.0,-65.0,7.0,13923.0,6447.0,-1601.0,-5520.0,-1066.0,-402.0,109.0,1.0
2022-05-08 18:12:32.081444-07:00,837.7,938.1,1350.3,926.2,778.6,471.1,1579.6,979.9,3467.4,3474.6,660.3,859.5,403.5,3492.9,927.9,766.2,3474.6,3479.5,391.1,557.8,398.1,481.4,239.3,237.1,3481.9,3475.9,592.3,435.7,680.7,1009.9,1193.8,487.7,-25.0,-3.0,31.0,13960.0,6660.0,5389.0,-388.0,-977.0,-522.0,-109.0,-6.0,38.0,6.0,14070.0,6075.0,-1600.0,-5570.0,-594.0,-185.0,63.0,1.0
2022-05-08 18:12:32.111861-07:00,835.2,938.1,1350.3,926.2,780.3,472.7,1572.1,979.9,3480.7,3474.6,660.3,859.5,402.8,3499.0,953.4,766.2,3474.6,3478.3,379.4,549.8,398.1,481.4,239.3,238.6,3481.9,3474.6,584.3,432.5,680.7,1009.9,1193.8,490.1,35.0,0.0,0.0,14178.0,6306.0,5248.0,-355.0,-940.0,-353.0,-115.0,7.0,-10.0,-9.0,14159.0,5827.0,-1618.0,-5603.0,-711.0,-320.0,112.0,1.0
2022-05-08 18:12:32.531466-07:00,835.2,927.1,1356.7,927.1,780.3,472.7,1572.1,977.3,3480.7,3467.4,660.3,858.7,402.8,3499.0,953.4,771.1,3473.4,3478.3,379.4,549.8,398.9,483.7,243.2,238.6,3481.9,3474.6,584.3,432.5,669.3,1016.8,1205.3,490.1,27.0,-24.0,66.0,14377.0,5921.0,5153.0,-352.0,-622.0,-372.0,-229.0,16.0,-43.0,-4.0,14264.0,5528.0,-1634.0,-5634.0,-362.0,-180.0,36.0,1.0
2022-05-08 18:12:32.535821-07:00,831.1,927.1,1356.7,927.1,772.8,468.7,1605.8,977.3,3478.3,3467.4,660.3,858.7,408.2,3500.2,987.6,771.1,3473.4,3474.6,380.2,557.0,398.9,483.7,243.2,242.4,3481.9,3483.2,579.4,436.4,669.3,1016.8,1205.3,499.6,-8.0,9.0,8.0,14445.0,5742.0,5164.0,-370.0,-360.0,175.0,-119.0,8.0,7.0,7.0,14292.0,5420.0,-1644.0,-5664.0,-215.0,-90.0,-25.0,1.0
2022-05-08 18:12:32.536906-07:00,831.1,916.9,1359.4,925.4,772.8,468.7,1605.8,962.8,3478.3,3478.3,657.9,860.4,408.2,3500.2,987.6,779.4,3478.3,3474.6,380.2,557.0,401.2,482.2,235.5,242.4,3471.0,3483.2,579.4,436.4,680.7,1007.3,1223.9,499.6,-10.0,-81.0,-14.0,14476.0,5600.0,5235.0,-341.0,-101.0,43.0,-38.0,24.0,-43.0,6.0,14321.0,5322.0,-1647.0,-5684.0,-86.0,-32.0,22.0,1.0
2022-05-08 18:12:32.537787-07:00,839.4,901.7,1359.4,925.4,778.6,465.6,1593.6,962.8,3474.6,3477.1,657.9,860.4,404.3,3496.6,997.9,779.4,3478.3,3480.7,377.0,557.8,401.2,482.2,236.3,234.8,3471.0,3478.3,572.2,435.7,680.7,1007.3,1246.2,488.5,12.0,22.0,25.0,14467.0,5600.0,5262.0,-326.0,42.0,147.0,23.0,13.0,21.0,0.0,14321.0,5326.0,-1645.0,-5680.0,51.0,38.0,-4.0,1.0
2022-05-08 18:12:32.538638-07:00,839.4,901.7,1368.5,934.7,778.6,465.6,1566.5,965.4,3474.6,3477.1,663.6,865.4,404.3,3496.6,1000.5,777.8,3466.1,3477.1,377.0,557.8,398.1,482.2,236.3,234.8,3475.9,3488.0,572.2,435.7,678.2,1014.2,1246.2,488.5,-12.0,-31.0,3.0,14445.0,5605.0,5317.0,-315.0,85.0,122.0,-31.0,17.0,-18.0,3.0,14320.0,5336.0,-1634.0,-5679.0,15.0,33.0,-11.0,1.0
2022-05-08 18:12:32.561551-07:00,839.4,901.7,1368.5,934.7,778.6,465.6,1566.5,965.4,3474.6,3477.1,663.6,865.4,404.3,3496.6,1000.5,777.8,3466.1,3477.1,377.0,557.8,398.1,482.2,236.3,234.8,3475.9,3488.0,572.2,435.7,678.2,1014.2,1246.2,488.5,-12.0,-31.0,3.0,14445.0,5605.0,5317.0,-315.0,85.0,122.0,-31.0,17.0,-18.0,3.0,14320.0,5336.0,-1634.0,-5679.0,15.0,33.0,-11.0,1.0
2022-05-08 18:12:32.563654-07:00,847.8,909.3,1355.8,924.5,766.2,465.6,1560.9,932.2,3468.6,3467.4,653.0,859.5,409.8,3495.3,922.0,764.5,3477.1,3477.1,380.2,553.8,395.0,481.4,236.3,236.3,3475.9,3479.5,573.8,435.7,679.9,1009.9,1196.5,485.3,-68.0,124.0,10.0,13663.0,7305.0,5312.0,-432.0,2827.0,-239.0,629.0,8.0,117.0,3.0,13915.0,6591.0,-1601.0,-5366.0,1858.0,660.0,-74.0,1.0
2022-05-08 18:12:32.622092-07:00,845.3,950.0,1346.7,924.5,785.2,465.6,1560.9,932.2,3473.4,3480.7,651.4,859.5,406.7,3495.3,922.0,764.5,3477.1,3477.1,380.2,552.2,395.0,479.8,238.6,238.6,3475.9,3479.5,573.8,433.3,679.9,1003.0,1170.0,483.0,-23.0,-46.0,-41.0,13290.0,8058.0,5167.0,-411.0,1576.0,157.0,655.0,17.0,-54.0,3.0,13599.0,7298.0,-1648.0,-5246.0,1604.0,446.0,-87.0,1.0
2022-05-08 18:12:32.682042-07:00,845.3,950.0,1346.7,934.7,785.2,464.0,1543.1,932.2,3473.4,3480.7,651.4,864.6,406.7,3486.8,866.3,763.7,3477.1,3477.1,376.3,552.2,395.0,479.8,238.6,238.6,3479.5,3472.2,577.8,433.3,683.1,1003.0,1170.0,483.0,12.0,112.0,-28.0,12986.0,8618.0,5035.0,-421.0,961.0,20.0,434.0,-14.0,83.0,-47.0,13351.0,7819.0,-1670.0,-5123.0,1042.0,363.0,-49.0,1.0
2022-05-08 18:12:32.711512-07:00,838.6,991.0,1341.3,934.7,774.5,464.0,1543.1,932.2,3469.8,3477.1,658.7,864.6,410.6,3486.8,866.3,763.7,3477.1,3477.1,376.3,557.0,395.0,478.2,237.8,237.8,3479.5,3472.2,577.8,432.5,683.1,1005.6,1160.3,488.5,16.0,50.0,-56.0,12832.0,8869.0,4993.0,-421.0,430.0,-9.0,102.0,-2.0,25.0,-37.0,13206.0,8100.0,-1669.0,-5064.0,478.0,153.0,-58.0,1.0
2022-05-08 18:12:32.772075-07:00,838.6,991.0,1341.3,925.4,774.5,465.6,1524.5,924.5,3469.8,3477.1,658.7,865.4,410.6,3491.7,841.1,762.9,3481.9,3484.4,378.6,557.0,391.8,478.2,237.8,237.8,3481.9,3477.1,571.4,432.5,679.9,1005.6,1160.3,488.5,22.0,49.0,-3.0,12776.0,8963.0,4965.0,-466.0,290.0,-25.0,-22.0,-5.0,26.0,-50.0,13145.0,8203.0,-1677.0,-5054.0,228.0,5.0,-46.0,1.0
2022-05-08 18:12:32.831596-07:00,830.2,987.6,1346.7,925.4,776.9,465.6,1524.5,924.5,3480.7,3472.2,651.4,865.4,405.1,3491.7,841.1,762.9,3481.9,3484.4,378.6,553.8,391.8,487.7,235.5,241.6,3481.9,3477.1,571.4,434.9,679.9,1011.6,1153.3,479.8,0.0,-20.0,14.0,12728.0,9018.0,4987.0,-502.0,144.0,-4.0,-70.0,9.0,-20.0,12.0,13104.0,8252.0,-1693.0,-5075.0,94.0,-25.0,-56.0,1.0
2022-05-08 18:12:32.862164-07:00,830.2,987.6,1346.7,930.5,770.3,464.8,1521.8,919.4,3480.7,3472.2,651.4,866.3,404.3,3494.1,832.7,765.3,3467.4,3475.9,380.2,551.4,393.4,487.7,235.5,241.6,3478.3,3471.0,573.0,432.5,679.9,1011.6,1153.3,479.8,-4.0,-24.0,17.0,12714.0,9032.0,4993.0,-535.0,30.0,-23.0,-37.0,6.0,-10.0,9.0,13091.0,8264.0,-1699.0,-5087.0,29.0,-17.0,-14.0,1.0
2022-05-08 18:12:32.951675-07:00,840.3,976.5,1335.0,928.8,770.3,464.8,1521.8,919.4,3473.4,3480.7,653.0,862.1,404.3,3494.1,832.7,765.3,3467.4,3475.9,380.2,551.4,393.4,483.7,238.6,237.8,3478.3,3471.0,573.0,432.5,679.9,1009.0,1153.3,481.4,-15.0,16.0,5.0,12678.0,9063.0,5029.0,-527.0,84.0,180.0,-12.0,9.0,16.0,15.0,13067.0,8297.0,-1707.0,-5092.0,83.0,-1.0,-37.0,1.0
2022-05-08 18:12:32.981430-07:00,840.3,976.5,1335.0,928.8,772.0,460.0,1506.9,916.0,3473.4,3480.7,653.0,862.1,403.5,3494.1,830.2,765.3,3484.4,3479.5,375.5,554.6,393.4,483.7,238.6,237.8,3477.1,3473.4,568.2,431.7,679.9,1009.0,1153.3,481.4,4.0,-34.0,-23.0,12673.0,9051.0,5062.0,-532.0,-50.0,-35.0,-49.0,3.0,-8.0,-8.0,13071.0,8292.0,-1694.0,-5093.0,-44.0,31.0,-7.0,1.0
2022-05-08 18:12:33.041482-07:00,835.2,971.3,1343.1,929.6,772.0,460.0,1506.9,916.0,3478.3,3483.2,650.5,880.6,403.5,3494.1,830.2,765.3,3484.4,3479.5,375.5,554.6,393.4,479.8,237.8,235.5,3477.1,3473.4,568.2,431.7,687.2,1000.5,1146.3,486.9,-4.0,21.0,0.0,12673.0,9058.0,5049.0,-535.0,29.0,-3.0,22.0,3.0,6.0,-6.0,13070.0,8296.0,-1694.0,-5092.0,11.0,-17.0,2.0,1.0
2022-05-08 18:12:33.101675-07:00,835.2,971.3,1343.1,929.6,767.0,462.4,1492.1,911.0,3478.3,3483.2,650.5,880.6,404.3,3494.1,822.7,762.9,3484.4,3467.4,374.7,557.0,393.4,479.8,237.8,235.5,3485.6,3478.3,568.2,436.4,687.2,1000.5,1146.3,486.9,2.0,-21.0,9.0,12685.0,9040.0,5051.0,-548.0,-49.0,-15.0,-65.0,2.0,-5.0,0.0,13076.0,8277.0,-1698.0,-5104.0,-64.0,-40.0,-17.0,1.0
2022-05-08 18:12:33.161653-07:00,837.7,967.1,1341.3,933.9,767.0,462.4,1492.1,911.0,3473.4,3485.6,653.0,857.9,404.3,3494.1,822.7,762.9,3484.4,3467.4,374.7,557.0,395.0,478.2,237.1,235.5,3485.6,3478.3,568.2,436.4,683.1,1013.3,1149.8,483.7,5.0,-20.0,12.0,12691.0,9029.0,5053.0,-565.0,-6.0,-36.0,-12.0,11.0,-11.0,1.0,13084.0,8261.0,-1697.0,-5111.0,-18.0,-2.0,-2.0,1.0
2022-05-08 18:12:33.163002-07:00,835.2,967.1,1341.3,933.9,768.7,460.8,1507.8,911.8,3468.6,3485.6,653.0,857.9,404.3,3500.2,826.9,760.4,3488.0,3475.9,380.2,554.6,395.0,478.2,237.1,237.8,3481.9,3475.9,570.6,431.7,683.1,1013.3,1149.8,487.7,-1.0,12.0,17.0,12691.0,9025.0,5062.0,-561.0,-32.0,62.0,-29.0,10.0,1.0,6.0,13087.0,8257.0,-1698.0,-5110.0,-44.0,-14.0,1.0,1.0
2022-05-08 18:12:33.221569-07:00,835.2,969.6,1336.8,926.2,768.7,460.8,1507.8,911.8,3468.6,3471.0,653.8,861.2,404.3,3500.2,826.9,763.7,3483.2,3475.9,380.2,554.6,391.8,479.8,236.3,237.8,3480.7,3475.9,570.6,431.7,682.3,1009.0,1144.5,487.7,-10.0,-16.0,-13.0,12703.0,8991.0,5089.0,-571.0,-62.0,-27.0,-67.0,9.0,-4.0,-1.0,13106.0,8224.0,-1690.0,-5117.0,-84.0,-1.0,-16.0,1.0
2022-05-08 18:12:33.281491-07:00,836.9,969.6,1336.8,926.2,767.8,461.6,1495.8,911.8,3464.9,3471.0,653.8,861.2,403.5,3489.2,831.1,763.7,3483.2,3472.2,377.0,554.6,391.8,479.8,236.3,243.9,3480.7,3479.5,571.4,424.7,682.3,1009.0,1144.5,489.3,0.0,-14.0,-2.0,12710.0,8983.0,5085.0,-579.0,-1.0,-8.0,3.0,0.0,-2.0,-10.0,13114.0,8208.0,-1686.0,-5124.0,-15.0,-27.0,-3.0,1.0
2022-05-08 18:12:33.311707-07:00,836.9,965.4,1331.4,925.4,767.8,461.6,1495.8,907.6,3464.9,3473.4,648.9,861.2,403.5,3489.2,831.1,762.0,3478.3,3472.2,377.0,554.6,392.6,479.0,237.8,243.9,3478.3,3479.5,571.4,424.7,685.6,1001.3,1147.1,489.3,-29.0,9.0,-3.0,12714.0,8968.0,5099.0,-589.0,-49.0,-27.0,-75.0,5.0,3.0,20.0,13120.0,8189.0,-1689.0,-5137.0,-64.0,-19.0,-25.0,1.0
2022-05-08 18:12:33.401304-07:00,832.7,965.4,1331.4,925.4,765.3,458.5,1488.4,907.6,3472.2,3473.4,648.9,861.2,404.3,3497.8,828.5,762.0,3478.3,3478.3,379.4,550.6,392.6,479.0,237.8,237.8,3478.3,3477.1,565.8,414.5,685.6,1001.3,1147.1,483.0,-1.0,-21.0,3.0,12714.0,8970.0,5095.0,-605.0,38.0,-20.0,19.0,7.0,-11.0,1.0,13122.0,8180.0,-1686.0,-5146.0,19.0,6.0,3.0,1.0
2022-05-08 18:12:33.431943-07:00,832.7,957.7,1327.8,927.1,765.3,458.5,1488.4,904.2,3472.2,3472.2,650.5,863.7,404.3,3497.8,828.5,762.9,3472.2,3478.3,379.4,550.6,393.4,482.2,239.3,237.8,3474.6,3477.1,565.8,414.5,680.7,1004.8,1140.1,483.0,0.0,18.0,5.0,12719.0,8964.0,5094.0,-602.0,-62.0,-1.0,-17.0,20.0,10.0,5.0,13124.0,8177.0,-1687.0,-5145.0,-59.0,-8.0,10.0,1.0
2022-05-08 18:12:33.461249-07:00,832.7,962.0,1327.8,927.1,764.5,464.8,1488.4,904.2,3474.6,3472.2,650.5,863.7,402.8,3499.0,817.7,762.9,3472.2,3474.6,377.0,553.0,393.4,482.2,238.6,238.6,3474.6,3484.4,569.0,435.7,680.7,1004.8,1142.7,486.9,8.0,13.0,0.0,12763.0,8895.0,5105.0,-605.0,-248.0,-26.0,-117.0,15.0,11.0,0.0,13158.0,8121.0,-1685.0,-5148.0,-270.0,-64.0,30.0,1.0
2022-05-08 18:12:33.522300-07:00,832.7,962.0,1361.2,929.6,764.5,464.8,1486.6,901.7,3474.6,3472.2,655.4,857.9,402.8,3499.0,831.9,754.6,3473.4,3471.0,377.0,553.0,392.6,479.8,238.6,238.6,3479.5,3488.0,569.0,435.7,681.5,1006.5,1142.7,486.9,-48.0,69.0,-1.0,12885.0,8706.0,5127.0,-574.0,-824.0,-2.0,-31.0,8.0,75.0,20.0,13237.0,7969.0,-1688.0,-5184.0,-585.0,-257.0,1.0,1.0
2022-05-08 18:12:33.581709-07:00,833.6,951.7,1361.2,929.6,757.9,459.3,1486.6,901.7,3469.8,3477.1,655.4,857.9,402.0,3499.0,831.9,754.6,3473.4,3471.0,373.9,554.6,392.6,479.8,238.6,238.6,3479.5,3488.0,576.2,425.5,681.5,1006.5,1144.5,486.9,56.0,-57.0,-107.0,13224.0,8192.0,5125.0,-426.0,-1733.0,-253.0,-287.0,-53.0,-113.0,-64.0,13397.0,7629.0,-1681.0,-5285.0,-1278.0,-486.0,103.0,1.0
2022-05-08 18:12:33.761404-07:00,833.6,951.7,1344.9,924.5,757.9,459.3,1515.3,944.9,3469.8,3477.1,648.1,865.4,402.0,3499.0,871.3,754.6,3483.2,3480.7,373.9,554.6,395.7,481.4,238.6,238.6,3477.1,3477.1,576.2,425.5,681.5,1005.6,1144.5,486.9,-83.0,118.0,-59.0,13525.0,7667.0,5150.0,-442.0,-1325.0,-230.0,-293.0,7.0,89.0,27.0,13627.0,7144.0,-1663.0,-5378.0,-1064.0,-313.0,19.0,1.0
2022-05-08 18:12:33.762710-07:00,841.1,935.6,1344.9,924.5,758.7,465.6,1515.3,944.9,3468.6,3479.5,648.1,865.4,404.3,3507.5,871.3,754.6,3483.2,3480.7,376.3,553.8,395.7,481.4,234.8,237.1,3477.1,3477.1,595.5,431.7,681.5,1005.6,1178.8,479.8,85.0,-101.0,-30.0,13899.0,7018.0,5082.0,-430.0,-1562.0,-388.0,-435.0,23.0,-126.0,-53.0,13832.0,6659.0,-1640.0,-5484.0,-1196.0,-451.0,119.0,1.0
2022-05-08 18:12:33.763720-07:00,841.1,935.6,1336.8,934.7,758.7,465.6,1536.6,971.3,3468.6,3479.5,653.8,858.7,404.3,3507.5,913.5,762.9,3485.6,3474.6,376.3,553.8,392.6,479.8,234.8,237.1,3479.5,3481.9,595.5,431.7,675.8,999.6,1178.8,479.8,-67.0,39.0,41.0,14128.0,6555.0,5063.0,-495.0,-927.0,-273.0,-303.0,5.0,50.0,43.0,14017.0,6209.0,-1632.0,-5544.0,-872.0,-245.0,77.0,1.0
2022-05-08 18:12:33.765440-07:00,836.1,914.4,1353.1,934.7,772.8,462.4,1536.6,971.3,3478.3,3471.0,646.5,858.7,404.3,3494.1,913.5,762.9,3485.6,3474.6,378.6,560.2,392.6,483.7,241.6,235.5,3479.5,3481.9,576.2,430.2,675.8,1004.8,1174.4,487.7,22.0,-97.0,-34.0,14333.0,6151.0,4993.0,-494.0,-978.0,-375.0,-181.0,31.0,-89.0,-18.0,14137.0,5884.0,-1621.0,-5597.0,-768.0,-273.0,74.0,1.0
2022-05-08 18:12:33.882185-07:00,836.1,914.4,1353.1,927.9,772.8,464.8,1537.6,968.8,3478.3,3471.0,646.5,865.4,404.3,3502.7,928.8,765.3,3483.2,3477.1,374.7,560.2,398.1,483.7,241.6,235.5,3484.4,3480.7,579.4,430.2,679.1,1004.8,1174.4,487.7,-67.0,4.0,16.0,14456.0,5911.0,4925.0,-510.0,-589.0,-316.0,-9.0,6.0,44.0,47.0,14248.0,5598.0,-1620.0,-5611.0,-518.0,-137.0,97.0,1.0
2022-05-08 18:12:34.031523-07:00,833.6,899.1,1350.3,927.9,764.5,464.8,1537.6,968.8,3477.1,3474.6,651.4,865.4,408.2,3502.7,928.8,765.3,3483.2,3477.1,374.7,560.2,398.1,483.7,244.7,236.3,3484.4,3480.7,579.4,427.8,679.1,1008.2,1192.9,483.0,81.0,-43.0,33.0,14592.0,5682.0,4796.0,-464.0,-409.0,-127.0,14.0,8.0,-36.0,-37.0,14312.0,5429.0,-1624.0,-5612.0,-252.0,-130.0,63.0,1.0
2022-05-08 18:12:34.034659-07:00,833.6,899.1,1350.3,922.8,764.5,459.3,1535.7,966.2,3477.1,3474.6,651.4,859.5,408.2,3497.8,945.8,766.2,3479.5,3484.4,378.6,560.2,398.9,483.7,244.7,236.3,3477.1,3488.0,569.8,427.8,680.7,1008.2,1192.9,483.0,-37.0,32.0,-8.0,14648.0,5510.0,4829.0,-431.0,-475.0,108.0,-164.0,-2.0,22.0,22.0,14352.0,5303.0,-1636.0,-5627.0,-329.0,-129.0,18.0,1.0
2022-05-08 18:12:34.035815-07:00,850.3,888.2,1352.1,922.8,765.3,459.3,1535.7,966.2,3473.4,3475.9,640.0,859.5,406.7,3497.8,945.8,766.2,3479.5,3484.4,378.6,557.0,398.9,483.7,236.3,240.9,3477.1,3488.0,569.8,427.8,680.7,1009.9,1209.7,483.0,18.0,-37.0,-39.0,14698.0,5324.0,4886.0,-436.0,-342.0,59.0,-152.0,-6.0,-5.0,-25.0,14391.0,5167.0,-1644.0,-5652.0,-293.0,-154.0,28.0,1.0
2022-05-08 18:12:34.036741-07:00,850.3,888.2,1352.1,930.5,768.7,460.8,1588.9,958.5,3473.4,3475.9,640.0,860.4,404.3,3496.6,976.5,771.1,3475.9,3478.3,377.0,556.2,397.3,483.7,236.3,240.9,3473.4,3478.3,573.0,427.0,675.0,1009.9,1209.7,483.0,3.0,-24.0,1.0,14735.0,5187.0,4921.0,-435.0,-194.0,54.0,-62.0,15.0,7.0,17.0,14431.0,5034.0,-1658.0,-5664.0,-215.0,-114.0,53.0,1.0
2022-05-08 18:12:34.121613-07:00,855.3,889.8,1358.5,931.3,768.7,460.8,1588.9,958.5,3473.4,3473.4,655.4,859.5,404.3,3496.6,976.5,771.1,3475.9,3478.3,377.0,556.2,402.0,486.1,230.2,238.6,3473.4,3478.3,573.0,427.0,680.7,1009.9,1206.2,486.1,-15.0,7.0,25.0,14733.0,5145.0,4973.0,-414.0,-69.0,154.0,-48.0,27.0,-8.0,1.0,14445.0,4985.0,-1668.0,-5670.0,-43.0,-29.0,-5.0,1.0
2022-05-08 18:12:34.241624-07:00,855.3,889.8,1358.5,931.3,760.4,456.9,1608.7,948.3,3473.4,3473.4,655.4,859.5,402.8,3491.7,999.6,774.5,3475.9,3483.2,375.5,557.0,402.0,486.1,230.2,238.6,3474.6,3478.3,564.2,429.4,680.7,1009.9,1206.2,486.1,-13.0,-21.0,-41.0,14722.0,5096.0,5057.0,-398.0,-124.0,163.0,-5.0,18.0,-5.0,5.0,14453.0,4951.0,-1673.0,-5677.0,-72.0,-22.0,5.0,1.0
2022-05-08 18:12:34.242980-07:00,846.1,898.3,1365.7,925.4,760.4,456.9,1608.7,948.3,3479.5,3474.6,651.4,865.4,402.8,3491.7,999.6,774.5,3475.9,3483.2,375.5,557.0,400.4,479.8,238.6,233.3,3474.6,3478.3,564.2,429.4,676.6,1008.2,1203.5,494.0,-18.0,5.0,-1.0,14721.0,5064.0,5094.0,-364.0,-16.0,114.0,22.0,-2.0,-7.0,1.0,14459.0,4931.0,-1680.0,-5678.0,3.0,-22.0,1.0,1.0
2022-05-08 18:12:34.361572-07:00,846.1,898.3,1365.7,925.4,763.7,457.7,1615.2,936.4,3479.5,3474.6,651.4,865.4,399.6,3500.2,1000.5,778.6,3483.2,3477.1,380.2,555.4,400.4,479.8,238.6,233.3,3475.9,3474.6,565.8,427.0,676.6,1008.2,1203.5,494.0,-21.0,6.0,-17.0,14700.0,5067.0,5154.0,-345.0,18.0,194.0,-5.0,-3.0,10.0,0.0,14455.0,4936.0,-1683.0,-5683.0,12.0,-1.0,-27.0,1.0
2022-05-08 18:12:34.362818-07:00,850.3,892.4,1357.6,929.6,763.7,457.7,1615.2,936.4,3463.7,3468.6,653.8,856.2,399.6,3500.2,1000.5,778.6,3483.2,3477.1,380.2,555.4,401.2,484.5,238.6,236.3,3475.9,3474.6,565.8,427.0,679.9,1007.3,1202.7,486.1,-20.0,-44.0,-45.0,14673.0,5088.0,5209.0,-318.0,117.0,27.0,100.0,1.0,-24.0,-2.0,14447.0,4951.0,-1684.0,-5690.0,76.0,11.0,-16.0,1.0
2022-05-08 18:12:34.482149-07:00,847.8,892.4,1357.6,929.6,777.8,464.8,1574.9,932.2,3472.2,3468.6,653.8,856.2,404.3,3496.6,995.3,777.8,3480.7,3480.7,377.0,557.8,401.2,484.5,238.6,238.6,3480.7,3481.9,559.4,424.7,679.9,1007.3,1202.7,479.8,15.0,17.0,42.0,14656.0,5167.0,5182.0,-295.0,232.0,16.0,85.0,15.0,-14.0,-16.0,14430.0,4999.0,-1699.0,-5686.0,148.0,-4.0,-16.0,1.0
2022-05-08 18:12:34.485214-07:00,847.8,879.7,1360.3,933.0,777.8,464.8,1574.9,926.2,3472.2,3478.3,657.0,866.3,404.3,3496.6,995.3,774.5,3478.3,3480.7,377.0,557.8,398.1,484.5,236.3,238.6,3478.3,3481.9,559.4,424.7,677.4,1010.8,1206.2,479.8,11.0,-5.0,-4.0,14620.0,5245.0,5206.0,-283.0,107.0,147.0,51.0,23.0,3.0,-14.0,14406.0,5057.0,-1712.0,-5692.0,120.0,7.0,-36.0,1.0
2022-05-08 18:12:34.486457-07:00,847.8,879.7,1360.3,933.0,776.1,464.8,1552.5,926.2,3462.5,3478.3,657.0,866.3,398.1,3497.8,990.2,774.5,3478.3,3483.2,374.7,560.2,398.1,484.5,236.3,237.1,3478.3,3488.0,569.8,421.5,677.4,1010.8,1206.2,486.1,-7.0,13.0,-39.0,14580.0,5324.0,5237.0,-258.0,143.0,32.0,99.0,6.0,24.0,-14.0,14379.0,5127.0,-1730.0,-5692.0,190.0,17.0,-40.0,1.0
2022-05-08 18:12:34.487443-07:00,847.8,874.7,1359.4,932.2,776.1,464.8,1552.5,923.7,3462.5,3472.2,649.7,857.9,398.1,3497.8,990.2,772.8,3483.2,3483.2,374.7,560.2,400.4,488.5,234.8,237.1,3488.0,3488.0,569.8,421.5,680.7,1015.1,1191.2,486.1,-3.0,13.0,-2.0,14551.0,5390.0,5254.0,-239.0,63.0,130.0,30.0,6.0,-6.0,-3.0,14358.0,5184.0,-1744.0,-5690.0,100.0,8.0,-15.0,1.0
2022-05-08 18:12:34.602125-07:00,852.0,874.7,1359.4,932.2,776.9,453.0,1532.9,923.7,3472.2,3472.2,649.7,857.9,402.8,3499.0,987.6,772.8,3483.2,3471.0,379.4,557.0,400.4,488.5,234.8,237.8,3488.0,3478.3,558.6,434.9,680.7,1015.1,1191.2,486.9,-19.0,-30.0,-27.0,14518.0,5430.0,5303.0,-221.0,171.0,84.0,78.0,7.0,-13.0,3.0,14345.0,5220.0,-1751.0,-5688.0,134.0,36.0,-17.0,1.0
2022-05-08 18:12:34.603500-07:00,852.0,876.4,1354.0,935.6,776.9,453.0,1532.9,910.1,3472.2,3477.1,652.2,858.7,402.8,3499.0,987.6,777.8,3478.3,3471.0,379.4,557.0,398.9,483.0,236.3,237.8,3479.5,3478.3,558.6,434.9,679.9,1015.1,1187.6,486.9,-2.0,7.0,2.0,14481.0,5527.0,5307.0,-198.0,205.0,57.0,173.0,11.0,4.0,-2.0,14317.0,5306.0,-1762.0,-5675.0,241.0,54.0,-12.0,1.0
2022-05-08 18:12:34.605131-07:00,838.6,873.8,1354.0,935.6,771.1,456.9,1527.3,910.1,3475.9,3474.6,652.2,858.7,402.8,3491.7,985.9,777.8,3478.3,3467.4,377.0,560.2,398.9,483.0,235.5,236.3,3479.5,3480.7,561.0,428.6,679.9,1015.1,1185.9,494.8,-13.0,2.0,-1.0,14442.0,5608.0,5329.0,-146.0,122.0,170.0,120.0,1.0,-4.0,-2.0,14295.0,5377.0,-1770.0,-5662.0,116.0,44.0,3.0,1.0
2022-05-08 18:12:34.872096-07:00,838.6,873.8,1353.1,927.1,771.1,456.9,1516.2,916.0,3475.9,3474.6,648.1,862.1,402.8,3491.7,979.9,784.4,3483.2,3477.1,377.0,560.2,398.9,490.1,235.5,236.3,3477.1,3477.1,561.0,428.6,679.9,1014.2,1185.9,494.8,-14.0,-35.0,0.0,14400.0,5670.0,5378.0,-112.0,230.0,91.0,67.0,18.0,-14.0,0.0,14289.0,5403.0,-1768.0,-5653.0,90.0,55.0,7.0,1.0
2022-05-08 18:12:35.232142-07:00,837.7,872.1,1353.1,927.1,806.9,455.3,1516.2,916.0,3472.2,3467.4,648.1,862.1,407.5,3486.8,979.9,784.4,3483.2,3477.1,372.4,560.2,398.9,490.1,237.1,234.8,3477.1,3477.1,560.2,427.0,679.9,1014.2,1186.7,479.0,-3.0,16.0,-22.0,14362.0,5755.0,5390.0,-89.0,141.0,48.0,126.0,0.0,10.0,-13.0,14270.0,5464.0,-1770.0,-5640.0,147.0,19.0,-13.0,1.0
2022-05-08 18:12:35.234917-07:00,837.7,872.1,1350.3,950.0,806.9,455.3,1503.2,919.4,3472.2,3467.4,651.4,857.9,407.5,3486.8,976.5,775.3,3483.2,3473.4,372.4,560.2,398.1,479.8,237.1,234.8,3475.9,3471.0,560.2,427.0,673.3,1014.2,1186.7,479.0,0.0,7.0,-11.0,14354.0,5773.0,5390.0,-60.0,-69.0,-1.0,7.0,9.0,-2.0,0.0,14259.0,5491.0,-1781.0,-5639.0,-38.0,-30.0,-6.0,1.0
2022-05-08 18:12:35.472084-07:00,832.7,871.3,1350.3,950.0,796.9,453.7,1503.2,919.4,3475.9,3464.9,651.4,857.9,412.1,3499.0,976.5,775.3,3483.2,3473.4,377.0,557.8,398.1,479.8,238.6,234.0,3475.9,3471.0,559.4,421.5,673.3,1014.2,1173.5,498.0,-8.0,-4.0,-8.0,14348.0,5778.0,5400.0,-57.0,71.0,31.0,21.0,9.0,-12.0,-2.0,14259.0,5485.0,-1786.0,-5643.0,41.0,12.0,-8.0,1.0
2022-05-08 18:12:35.531100-07:00,832.7,871.3,1354.0,930.5,796.9,453.7,1500.4,914.4,3475.9,3464.9,649.7,857.9,412.1,3499.0,973.1,776.1,3472.2,3474.6,377.0,557.8,395.0,481.4,238.6,234.0,3469.8,3475.9,559.4,421.5,686.4,1013.3,1173.5,498.0,-7.0,-18.0,2.0,14335.0,5802.0,5411.0,-53.0,16.0,41.0,38.0,10.0,-12.0,5.0,14255.0,5500.0,-1788.0,-5639.0,76.0,13.0,-1.0,1.0
2022-05-08 18:12:35.532063-07:00,832.7,871.3,1354.0,930.5,796.9,453.7,1500.4,914.4,3475.9,3464.9,649.7,857.9,412.1,3499.0,973.1,776.1,3472.2,3474.6,377.0,557.8,395.0,481.4,238.6,234.0,3469.8,3475.9,559.4,421.5,686.4,1013.3,1173.5,498.0,-7.0,-18.0,2.0,14335.0,5802.0,5411.0,-53.0,16.0,41.0,38.0,10.0,-12.0,5.0,14255.0,5500.0,-1788.0,-5639.0,76.0,13.0,-1.0,1.0
2022-05-08 18:12:35.533307-07:00,832.7,864.6,1351.2,931.3,787.7,455.3,1498.6,912.7,3467.4,3478.3,653.8,866.3,403.5,3491.7,973.1,776.9,3477.1,3478.3,370.0,557.8,392.6,483.7,235.5,235.5,3478.3,3478.3,560.2,423.1,677.4,1009.0,1179.7,482.2,54.0,31.0,-136.0,11757.0,9078.0,6744.0,1519.0,565.0,672.0,755.0,-8.0,-20.0,-60.0,12398.0,9275.0,-1692.0,-5083.0,998.0,382.0,-107.0,1.0
2022-05-08 18:12:35.534565-07:00,833.6,866.3,1343.1,927.1,806.0,454.5,1485.6,904.2,3473.4,3478.3,658.7,859.5,407.5,3496.6,974.8,776.9,3478.3,3479.5,395.7,560.2,393.4,478.2,235.5,231.7,3480.7,3483.2,561.0,423.9,681.5,1014.2,1172.6,490.9,41.0,86.0,-104.0,11586.0,9240.0,6768.0,1734.0,19.0,350.0,288.0,-5.0,10.0,-45.0,12256.0,9492.0,-1696.0,-5025.0,274.0,61.0,-13.0,1.0
2022-05-08 18:12:35.535449-07:00,833.6,866.3,1343.1,927.1,798.5,453.0,1485.6,909.3,3473.4,3478.3,658.7,859.5,404.3,3492.9,965.4,776.9,3483.2,3472.2,397.3,553.0,393.4,478.2,235.5,231.7,3488.0,3467.4,561.0,428.6,681.5,1014.2,1172.6,490.9,-13.0,41.0,-9.0,11672.0,9147.0,6743.0,1743.0,-73.0,-79.0,-186.0,2.0,10.0,8.0,12295.0,9406.0,-1750.0,-5073.0,-228.0,-46.0,4.0,1.0
2022-05-08 18:12:35.591462-07:00,832.7,857.9,1340.4,931.3,788.6,450.6,1463.5,904.2,3471.0,3469.8,658.7,857.0,409.8,3500.2,969.6,777.8,3473.4,3474.6,394.2,553.0,391.1,483.7,234.8,234.8,3483.2,3483.2,566.6,420.0,682.3,1013.3,1165.6,491.7,1.0,-52.0,-15.0,11744.0,9057.0,6757.0,1682.0,-155.0,-108.0,-163.0,0.0,-8.0,-9.0,12361.0,9310.0,-1740.0,-5091.0,-178.0,-52.0,28.0,1.0
2022-05-08 18:12:35.651926-07:00,832.7,862.9,1338.6,924.5,788.6,450.6,1463.5,894.1,3471.0,3478.3,659.5,858.7,409.8,3500.2,969.6,776.1,3477.1,3474.6,394.2,553.0,392.6,482.2,234.0,234.8,3485.6,3483.2,566.6,420.0,682.3,1012.5,1162.1,491.7,-9.0,17.0,-5.0,11766.0,9044.0,6740.0,1661.0,16.0,-59.0,-11.0,6.0,2.0,11.0,12370.0,9294.0,-1748.0,-5097.0,-26.0,-21.0,2.0,1.0
2022-05-08 18:12:35.771569-07:00,831.1,862.9,1338.6,924.5,786.9,453.7,1457.1,894.1,3471.0,3478.3,659.5,858.7,407.5,3492.9,968.8,776.1,3477.1,3475.9,395.7,555.4,392.6,482.2,234.0,231.7,3485.6,3480.7,561.0,420.8,682.3,1012.5,1162.1,494.0,-15.0,-12.0,3.0,11794.0,9010.0,6744.0,1634.0,-91.0,-29.0,-118.0,8.0,-9.0,15.0,12397.0,9253.0,-1747.0,-5107.0,-130.0,-25.0,17.0,1.0
2022-05-08 18:12:35.772829-07:00,831.1,861.2,1341.3,925.4,786.9,453.7,1457.1,910.1,3471.0,3474.6,663.6,852.0,407.5,3492.9,968.8,776.1,3483.2,3475.9,395.7,555.4,385.6,483.7,237.1,231.7,3477.1,3480.7,561.0,420.8,679.1,1015.1,1166.5,494.0,-9.0,-18.0,7.0,11816.0,8984.0,6743.0,1620.0,-38.0,-7.0,1.0,4.0,-6.0,8.0,12413.0,9233.0,-1747.0,-5105.0,-1.0,7.0,20.0,1.0
2022-05-08 18:12:35.832098-07:00,837.7,857.9,1341.3,925.4,785.2,450.6,1457.1,910.1,3479.5,3477.1,663.6,852.0,405.9,3499.0,962.0,776.1,3483.2,3473.4,388.7,553.0,385.6,483.7,236.3,235.5,3477.1,3472.2,558.6,417.6,679.1,1015.1,1167.4,492.5,-12.0,-11.0,1.0,11822.0,8970.0,6746.0,1642.0,-42.0,37.0,29.0,4.0,-9.0,12.0,12418.0,9235.0,-1744.0,-5091.0,8.0,39.0,23.0,1.0
2022-05-08 18:12:35.833198-07:00,837.7,857.9,1348.5,927.1,785.2,450.6,1450.6,900.8,3479.5,3477.1,657.9,860.4,405.9,3499.0,957.7,778.6,3486.8,3464.9,388.7,553.0,389.5,477.4,236.3,235.5,3480.7,3481.9,558.6,417.6,686.4,1011.6,1167.4,492.5,-11.0,3.0,-25.0,11819.0,8966.0,6756.0,1647.0,-25.0,-14.0,-26.0,0.0,-1.0,-2.0,12426.0,9234.0,-1733.0,-5076.0,-26.0,35.0,15.0,1.0
2022-05-08 18:12:35.891458-07:00,831.1,852.8,1348.5,927.1,790.2,453.7,1450.6,900.8,3472.2,3471.0,657.9,860.4,408.2,3502.7,957.7,778.6,3486.8,3464.9,395.7,554.6,389.5,477.4,234.0,235.5,3480.7,3481.9,560.2,424.7,686.4,1011.6,1158.6,490.9,15.0,19.0,-24.0,11821.0,8971.0,6751.0,1626.0,-8.0,-69.0,-56.0,3.0,4.0,-16.0,12433.0,9226.0,-1728.0,-5074.0,-61.0,-21.0,5.0,1.0
2022-05-08 18:12:35.892729-07:00,831.1,852.8,1344.0,926.2,790.2,453.7,1445.1,900.8,3472.2,3471.0,659.5,861.2,408.2,3502.7,961.1,774.5,3477.1,3477.1,395.7,554.6,395.0,480.6,234.0,235.5,3481.9,3475.9,560.2,424.7,681.5,1011.6,1158.6,490.9,5.0,23.0,-6.0,11844.0,8949.0,6751.0,1578.0,-57.0,-93.0,-165.0,12.0,5.0,-6.0,12461.0,9179.0,-1729.0,-5090.0,-183.0,-70.0,0.0,1.0
2022-05-08 18:12:35.952512-07:00,833.6,851.1,1344.0,926.2,779.4,453.0,1445.1,900.8,3472.2,3474.6,659.5,861.2,408.2,3497.8,961.1,774.5,3477.1,3477.1,392.6,552.2,395.0,480.6,235.5,234.0,3481.9,3475.9,559.4,423.1,681.5,1011.6,1159.4,515.5,-3.0,-13.0,-4.0,11896.0,8885.0,6762.0,1500.0,-100.0,-129.0,-218.0,4.0,-1.0,-1.0,12510.0,9097.0,-1728.0,-5119.0,-208.0,-81.0,5.0,1.0
2022-05-08 18:12:36.012169-07:00,833.6,851.1,1346.7,932.2,779.4,453.0,1444.2,899.1,3472.2,3474.6,658.7,862.1,408.2,3497.8,963.7,779.4,3471.0,3483.2,392.6,552.2,390.3,479.0,235.5,234.0,3478.3,3490.5,559.4,423.1,679.1,1015.1,1159.4,515.5,-14.0,-14.0,7.0,11932.0,8842.0,6768.0,1444.0,-45.0,-47.0,-95.0,2.0,-4.0,10.0,12533.0,9054.0,-1730.0,-5137.0,-81.0,-50.0,-2.0,1.0
2022-05-08 18:12:36.191502-07:00,832.7,862.1,1341.3,932.2,776.1,449.8,1444.2,899.1,3471.0,3471.0,652.2,862.1,403.5,3497.8,963.7,779.4,3471.0,3483.2,391.8,551.4,390.3,484.5,231.7,234.0,3478.3,3490.5,556.2,420.0,679.1,1011.6,1168.2,492.5,-20.0,-20.0,10.0,11946.0,8820.0,6779.0,1410.0,-31.0,-22.0,-72.0,10.0,-8.0,15.0,12551.0,9022.0,-1734.0,-5150.0,-66.0,-19.0,-1.0,1.0
2022-05-08 18:12:36.192802-07:00,832.7,862.1,1341.3,926.2,776.1,451.4,1438.7,898.3,3471.0,3471.0,652.2,855.3,403.5,3499.0,962.8,772.8,3479.5,3479.5,390.3,551.4,391.1,484.5,231.7,234.0,3480.7,3481.9,557.8,420.0,686.4,1011.6,1168.2,492.5,-16.0,-8.0,1.0,11950.0,8805.0,6791.0,1404.0,-3.0,40.0,7.0,5.0,-2.0,12.0,12558.0,9010.0,-1732.0,-5152.0,18.0,21.0,5.0,1.0
2022-05-08 18:12:36.193842-07:00,836.9,856.2,1344.0,926.2,774.5,451.4,1438.7,898.3,3479.5,3483.2,658.7,855.3,404.3,3499.0,962.8,772.8,3479.5,3479.5,390.3,553.0,391.1,483.0,234.8,243.9,3480.7,3481.9,557.8,422.3,686.4,1015.9,1158.6,495.6,-6.0,14.0,-13.0,11946.0,8807.0,6798.0,1406.0,15.0,4.0,7.0,3.0,2.0,0.0,12558.0,9016.0,-1725.0,-5145.0,5.0,23.0,3.0,1.0
2022-05-08 18:12:36.195272-07:00,836.9,856.2,1344.0,924.5,774.5,447.4,1437.8,899.1,3479.5,3483.2,658.7,857.9,404.3,3497.8,964.5,776.1,3478.3,3474.6,390.3,553.0,390.3,483.0,234.8,243.9,3475.9,3473.4,561.8,422.3,685.6,1015.9,1158.6,495.6,5.0,2.0,2.0,11945.0,8810.0,6796.0,1397.0,33.0,-6.0,-21.0,5.0,6.0,-4.0,12558.0,9019.0,-1719.0,-5140.0,-7.0,12.0,-7.0,1.0
2022-05-08 18:12:36.252510-07:00,832.7,857.0,1342.2,924.5,767.8,447.4,1437.8,899.1,3467.4,3467.4,653.8,857.9,412.1,3497.8,964.5,776.1,3478.3,3474.6,390.3,553.0,390.3,479.8,233.3,233.3,3475.9,3473.4,561.8,416.8,685.6,1013.3,1161.2,501.2,-3.0,-5.0,-8.0,11949.0,8804.0,6800.0,1384.0,-7.0,-33.0,-34.0,6.0,-10.0,4.0,12565.0,9010.0,-1716.0,-5141.0,-37.0,-7.0,1.0,1.0
2022-05-08 18:12:36.312076-07:00,832.7,857.0,1342.2,923.7,767.8,452.2,1435.0,891.5,3467.4,3467.4,653.8,857.9,412.1,3496.6,965.4,773.6,3472.2,3467.4,395.0,553.0,390.3,479.8,233.3,233.3,3477.1,3477.1,558.6,416.8,683.1,1013.3,1161.2,501.2,0.0,52.0,-16.0,11958.0,8797.0,6798.0,1358.0,-39.0,-58.0,-122.0,0.0,12.0,-1.0,12580.0,8987.0,-1710.0,-5146.0,-202.0,-26.0,5.0,1.0
2022-05-08 18:12:36.401479-07:00,827.7,852.8,1343.1,922.0,776.1,452.2,1435.0,891.5,3472.2,3468.6,654.6,855.3,411.4,3496.6,965.4,773.6,3472.2,3467.4,395.0,557.0,390.3,479.0,233.3,233.3,3477.1,3477.1,558.6,420.0,683.1,1010.8,1157.7,505.1,9.0,129.0,-80.0,12031.0,8678.0,6838.0,1273.0,-535.0,-203.0,-782.0,-7.0,32.0,-18.0,12701.0,8800.0,-1677.0,-5183.0,-1075.0,-239.0,49.0,1.0
2022-05-08 18:12:36.402842-07:00,827.7,852.8,1343.1,922.0,766.2,446.7,1438.7,893.2,3472.2,3468.6,654.6,855.3,405.9,3499.0,958.5,776.1,3474.6,3474.6,392.6,553.0,390.3,479.0,233.3,233.3,3478.3,3486.8,559.4,422.3,683.1,1010.8,1157.7,505.1,31.0,-10.0,-79.0,12270.0,8293.0,6936.0,1001.0,-789.0,-472.0,-1129.0,0.0,-23.0,-31.0,12971.0,8340.0,-1625.0,-5291.0,-1372.0,-412.0,71.0,1.0
2022-05-08 18:12:36.701507-07:00,830.2,853.7,1348.5,925.4,766.2,446.7,1438.7,893.2,3477.1,3472.2,660.3,858.7,405.9,3499.0,958.5,776.1,3474.6,3474.6,392.6,553.0,390.3,483.0,235.5,239.3,3478.3,3486.8,559.4,422.3,681.5,1010.8,1161.2,505.1,19.0,-41.0,-71.0,12602.0,7798.0,6953.0,688.0,-1257.0,-785.0,-1082.0,-19.0,-13.0,-23.0,13291.0,7743.0,-1607.0,-5408.0,-1655.0,-604.0,217.0,1.0
2022-05-08 18:12:36.703075-07:00,830.2,853.7,1348.5,925.4,763.7,450.6,1427.7,895.7,3477.1,3472.2,660.3,858.7,408.2,3492.9,962.8,776.1,3474.6,3477.1,388.7,553.8,390.3,483.0,235.5,239.3,3477.1,3472.2,557.8,415.3,681.5,1010.8,1161.2,505.1,24.0,-45.0,72.0,13025.0,7176.0,6864.0,417.0,-1125.0,-655.0,-901.0,-11.0,7.0,-17.0,13603.0,7091.0,-1639.0,-5517.0,-1262.0,-526.0,159.0,1.0
2022-05-08 18:12:36.704594-07:00,833.6,856.2,1343.1,919.4,763.7,450.6,1427.7,895.7,3479.5,3473.4,652.2,860.4,408.2,3492.9,962.8,776.1,3474.6,3477.1,388.7,553.8,385.6,479.8,229.5,231.7,3477.1,3472.2,557.8,415.3,679.9,1016.8,1155.0,506.7,-38.0,-23.0,38.0,13272.0,6734.0,6846.0,235.0,-696.0,-222.0,-569.0,48.0,-11.0,43.0,13792.0,6634.0,-1662.0,-5608.0,-940.0,-384.0,69.0,1.0
2022-05-08 18:12:36.705530-07:00,827.7,856.2,1343.1,919.4,767.0,451.4,1437.8,891.5,3478.3,3473.4,652.2,860.4,402.0,3494.1,956.8,772.0,3479.5,3488.0,388.7,555.4,385.6,479.8,229.5,237.1,3479.5,3478.3,557.0,420.8,679.9,1016.8,1155.0,495.6,35.0,-130.0,-7.0,13499.0,6314.0,6807.0,150.0,-1112.0,-561.0,-523.0,30.0,-111.0,0.0,13982.0,6172.0,-1667.0,-5662.0,-1090.0,-404.0,212.0,1.0
2022-05-08 18:12:36.706646-07:00,827.7,849.5,1340.4,922.8,767.0,451.4,1437.8,887.3,3478.3,3473.4,655.4,860.4,402.0,3494.1,956.8,776.1,3478.3,3488.0,388.7,555.4,393.4,483.0,235.5,237.1,3483.2,3478.3,557.0,420.8,680.7,1009.0,1154.2,495.6,-33.0,12.0,86.0,13722.0,5925.0,6710.0,65.0,-534.0,-262.0,-300.0,29.0,38.0,41.0,14127.0,5813.0,-1668.0,-5683.0,-635.0,-169.0,100.0,1.0
2022-05-08 18:12:37.152677-07:00,835.2,878.9,1343.1,922.8,772.0,449.0,1463.5,902.5,3472.2,3472.2,646.5,860.4,405.9,3496.6,960.2,774.5,3488.0,3477.1,387.2,546.6,394.2,473.5,236.3,234.8,3483.2,3478.3,557.0,421.5,683.1,1006.5,1156.8,499.6,-14.0,15.0,58.0,13960.0,5535.0,6551.0,47.0,-209.0,-272.0,14.0,1.0,15.0,21.0,14259.0,5466.0,-1677.0,-5696.0,-76.0,-118.0,53.0,1.0
2022-05-08 18:12:37.154172-07:00,844.4,878.9,1343.1,922.8,778.6,456.9,1504.1,902.5,3477.1,3472.2,646.5,860.4,405.9,3507.5,959.4,774.5,3488.0,3473.4,384.8,553.0,394.2,473.5,236.3,236.3,3483.2,3489.2,562.6,418.4,683.1,1006.5,1156.8,502.8,-17.0,7.0,-23.0,13991.0,5520.0,6499.0,24.0,117.0,-74.0,-76.0,9.0,-16.0,-3.0,14256.0,5473.0,-1672.0,-5697.0,56.0,68.0,-37.0,1.0
2022-05-08 18:12:37.331423-07:00,844.4,849.5,1351.2,927.1,778.6,456.9,1504.1,915.2,3477.1,3478.3,650.5,861.2,405.9,3507.5,959.4,777.8,3477.1,3473.4,384.8,553.0,395.0,482.2,234.0,236.3,3478.3,3489.2,562.6,418.4,681.5,1008.2,1158.6,502.8,24.0,-56.0,-32.0,14015.0,5527.0,6440.0,-32.0,-112.0,-263.0,29.0,6.0,-30.0,-27.0,14261.0,5462.0,-1667.0,-5697.0,-48.0,-57.0,42.0,1.0
