Time,P0,P1,P2,P3,P4,P5,P6,P7,P8,P9,P10,P11,P12,P13,P14,P15,P16,P17,P18,P19,P20,P21,P22,P23,P24,P25,P26,P27,P28,P29,P30,P31,ECG,AX0,AY0,AZ0,QW0,QX0,QY0,QZ0,GX0,GY0,GZ0,AX1,AY1,AZ1,QW1,QX1,QY1,QZ1,GX1,GY1,GZ1
2022-05-08 14:25:11.118517-07:00,902.5,1034.0,1623.7,1146.3,640.0,517.1,1354.0,894.9,3471.0,3481.9,745.5,920.3,411.4,3501.4,927.9,832.7,3481.9,3474.6,402.8,657.0,478.2,549.0,261.4,259.9,3471.0,3477.1,630.3,541.0,706.9,1170.0,1490.3,456.1,0.0,-8.0,0.0,9295.0,12540.0,4575.0,1962.0,0.0,-7.0,-10.0,2.0,-31.0,0.0,10741.0,11741.0,3477.0,1771.0,1.0,-3.0,-8.0,1.0
2022-05-08 14:25:11.148453-07:00,905.0,1030.6,1623.7,1146.3,639.2,511.5,1354.0,894.9,3474.6,3475.9,748.0,920.3,412.9,3502.7,927.9,832.7,3481.9,3474.6,403.5,653.8,478.2,543.4,260.7,256.9,3471.0,3477.1,627.0,549.0,706.9,1166.5,1495.8,458.5,-2.0,-6.0,4.0,9295.0,12540.0,4576.0,1961.0,-2.0,1.0,-8.0,1.0,-30.0,1.0,10741.0,11741.0,3478.0,1770.0,-2.0,-1.0,-12.0,1.0
2022-05-08 14:25:11.208497-07:00,905.0,1030.6,1623.7,1155.9,639.2,513.9,1354.0,900.0,3474.6,3475.9,748.0,918.6,412.9,3500.2,927.1,836.1,3479.5,3477.1,406.7,653.8,479.8,543.4,260.7,256.9,3483.2,3480.7,627.0,549.0,706.0,1166.5,1495.8,458.5,2.0,-7.0,0.0,9296.0,12538.0,4580.0,1957.0,9.0,5.0,-18.0,4.0,-32.0,1.0,10741.0,11739.0,3483.0,1766.0,7.0,4.0,-14.0,1.0
2022-05-08 14:25:11.328198-07:00,901.7,1028.8,1632.2,1155.9,641.6,513.9,1354.0,900.0,3478.3,3467.4,748.0,918.6,420.8,3500.2,927.1,836.1,3479.5,3477.1,406.7,657.0,479.8,547.4,257.6,256.9,3483.2,3480.7,627.0,547.4,706.0,1169.1,1494.9,457.7,3.0,-9.0,0.0,9297.0,12536.0,4586.0,1953.0,1.0,-2.0,-16.0,8.0,-30.0,0.0,10742.0,11738.0,3488.0,1761.0,-3.0,-1.0,-18.0,1.0
2022-05-08 14:25:11.329132-07:00,901.7,1028.8,1632.2,1146.3,641.6,511.5,1353.1,890.7,3478.3,3467.4,748.0,920.3,420.8,3507.5,929.6,833.6,3485.6,3468.6,408.2,657.0,476.6,547.4,257.6,256.9,3472.2,3472.2,627.8,547.4,706.9,1169.1,1494.9,457.7,-2.0,-10.0,2.0,9297.0,12535.0,4589.0,1951.0,5.0,-1.0,-11.0,2.0,-29.0,0.0,10743.0,11736.0,3492.0,1757.0,-2.0,-5.0,-11.0,1.0
2022-05-08 14:25:11.359087-07:00,898.3,1025.4,1619.0,1146.3,641.6,511.5,1353.1,890.7,3475.9,3467.4,749.6,920.3,416.1,3507.5,929.6,833.6,3485.6,3468.6,408.2,654.6,476.6,548.2,259.9,260.7,3472.2,3472.2,627.8,545.8,706.9,1166.5,1493.0,451.4,-3.0,-6.0,1.0,9296.0,12535.0,4593.0,1951.0,5.0,3.0,-10.0,2.0,-27.0,2.0,10743.0,11736.0,3495.0,1755.0,7.0,4.0,-12.0,1.0
2022-05-08 14:25:11.418542-07:00,898.3,1025.4,1619.0,1146.3,641.6,513.9,1354.0,895.7,3475.9,3467.4,749.6,922.0,416.1,3502.7,936.4,833.6,3478.3,3475.9,404.3,654.6,479.0,548.2,259.9,260.7,3483.2,3477.1,626.2,545.8,706.9,1166.5,1493.0,451.4,1.0,-8.0,-3.0,9297.0,12533.0,4596.0,1948.0,0.0,7.0,-11.0,5.0,-32.0,0.0,10744.0,11735.0,3498.0,1752.0,-3.0,0.0,-10.0,1.0
2022-05-08 14:25:11.448513-07:00,908.4,1026.3,1620.9,1142.7,641.6,513.9,1354.0,895.7,3473.4,3473.4,748.8,920.3,418.4,3502.7,936.4,833.6,3478.3,3475.9,404.3,653.8,479.0,543.4,257.6,256.9,3483.2,3477.1,626.2,541.8,708.5,1162.1,1489.3,461.6,0.0,-8.0,1.0,9297.0,12533.0,4596.0,1948.0,5.0,-7.0,-3.0,4.0,-31.0,4.0,10744.0,11735.0,3498.0,1752.0,1.0,-5.0,-3.0,1.0
2022-05-08 14:25:11.478947-07:00,908.4,1026.3,1620.9,1142.7,641.6,510.7,1353.1,912.7,3473.4,3473.4,748.8,920.3,415.3,3505.1,918.6,833.6,3480.7,3475.9,408.2,657.9,479.0,543.4,257.6,256.9,3483.2,3472.2,624.6,546.6,708.5,1162.1,1489.3,461.6,-1.0,-3.0,-1.0,9297.0,12533.0,4596.0,1948.0,5.0,-3.0,-5.0,0.0,-32.0,2.0,10744.0,11735.0,3498.0,1752.0,2.0,-9.0,-5.0,1.0
2022-05-08 14:25:11.538590-07:00,898.3,1028.0,1615.2,1147.1,641.6,510.7,1353.1,912.7,3475.9,3468.6,748.8,935.6,415.3,3505.1,918.6,833.6,3480.7,3475.9,408.2,657.9,478.2,545.0,258.4,257.6,3483.2,3472.2,624.6,546.6,711.0,1165.6,1487.5,457.7,1.0,-9.0,1.0,9297.0,12533.0,4596.0,1948.0,1.0,-3.0,-3.0,8.0,-33.0,1.0,10744.0,11735.0,3498.0,1751.0,2.0,-5.0,-3.0,1.0
2022-05-08 14:25:11.568357-07:00,898.3,1028.0,1615.2,1147.1,643.2,515.5,1350.3,894.9,3475.9,3468.6,748.8,935.6,409.8,3502.7,927.1,831.1,3478.3,3478.3,400.4,660.3,478.2,545.0,258.4,257.6,3481.9,3475.9,622.2,545.8,711.0,1165.6,1487.5,457.7,-1.0,-7.0,4.0,9297.0,12533.0,4596.0,1948.0,-1.0,1.0,3.0,0.0,-34.0,0.0,10744.0,11735.0,3498.0,1751.0,1.0,2.0,4.0,1.0
2022-05-08 14:25:11.628962-07:00,909.3,1023.7,1618.1,1150.6,643.2,515.5,1350.3,894.9,3480.7,3468.6,744.7,923.7,409.8,3502.7,927.1,831.1,3478.3,3478.3,400.4,660.3,480.6,545.8,258.4,252.3,3481.9,3475.9,622.2,545.8,711.0,1182.3,1493.0,453.7,-3.0,-3.0,0.0,9297.0,12533.0,4596.0,1948.0,-1.0,11.0,-2.0,2.0,-32.0,2.0,10744.0,11735.0,3498.0,1751.0,-2.0,2.0,0.0,1.0
2022-05-08 14:25:11.689155-07:00,909.3,1023.7,1618.1,1150.6,643.2,516.3,1354.0,891.5,3480.7,3468.6,744.7,923.7,416.1,3501.4,928.8,835.2,3479.5,3477.1,405.9,654.6,480.6,545.8,258.4,252.3,3475.9,3474.6,626.2,546.6,711.0,1182.3,1493.0,453.7,5.0,-5.0,-1.0,9297.0,12533.0,4596.0,1949.0,-3.0,0.0,-9.0,8.0,-31.0,-3.0,10744.0,11735.0,3498.0,1751.0,-8.0,-2.0,-5.0,1.0
2022-05-08 14:25:11.718677-07:00,903.4,1028.0,1622.8,1146.3,643.2,516.3,1354.0,899.1,3472.2,3469.8,747.2,916.0,416.1,3501.4,928.8,832.7,3474.6,3477.1,405.9,654.6,481.4,547.4,259.9,259.2,3480.7,3474.6,626.2,546.6,704.4,1164.7,1491.2,454.5,-1.0,-7.0,3.0,9297.0,12533.0,4596.0,1949.0,-4.0,5.0,1.0,0.0,-33.0,4.0,10744.0,11735.0,3498.0,1751.0,-3.0,2.0,4.0,1.0
2022-05-08 14:25:11.809120-07:00,906.7,1028.0,1622.8,1146.3,643.2,513.9,1349.4,899.1,3467.4,3469.8,747.2,916.0,415.3,3500.2,934.7,832.7,3474.6,3477.1,405.9,655.4,481.4,547.4,259.9,259.2,3480.7,3478.3,634.3,547.4,704.4,1164.7,1491.2,451.4,-1.0,-4.0,-3.0,9297.0,12533.0,4596.0,1949.0,8.0,8.0,-3.0,0.0,-32.0,0.0,10744.0,11735.0,3498.0,1751.0,3.0,3.0,3.0,1.0
2022-05-08 14:25:11.839465-07:00,906.7,1029.7,1623.7,1139.2,643.2,513.9,1349.4,911.0,3467.4,3474.6,748.8,922.8,415.3,3500.2,934.7,833.6,3474.6,3477.1,405.9,655.4,479.8,545.8,258.4,259.2,3488.0,3478.3,634.3,547.4,709.3,1162.1,1486.6,451.4,-1.0,-6.0,-1.0,9297.0,12533.0,4597.0,1948.0,3.0,-7.0,-13.0,3.0,-27.0,-2.0,10744.0,11735.0,3498.0,1751.0,-4.0,1.0,-3.0,1.0
2022-05-08 14:25:11.868372-07:00,904.2,1029.7,1623.7,1139.2,638.4,513.9,1355.8,911.0,3481.9,3474.6,748.8,922.8,411.4,3491.7,926.2,833.6,3474.6,3479.5,406.7,652.2,479.8,545.8,258.4,256.1,3488.0,3480.7,626.2,547.4,709.3,1162.1,1486.6,457.7,-5.0,-11.0,2.0,9297.0,12532.0,4599.0,1947.0,0.0,12.0,3.0,0.0,-33.0,5.0,10744.0,11735.0,3498.0,1751.0,-5.0,1.0,7.0,1.0
2022-05-08 14:25:11.928987-07:00,904.2,1028.8,1619.9,1150.6,638.4,513.9,1355.8,899.1,3481.9,3469.8,750.5,925.4,411.4,3491.7,926.2,834.4,3479.5,3479.5,406.7,652.2,484.5,545.8,259.9,256.1,3477.1,3480.7,626.2,547.4,713.4,1162.1,1482.9,457.7,2.0,-4.0,0.0,9296.0,12532.0,4600.0,1949.0,0.0,3.0,-4.0,4.0,-29.0,-2.0,10744.0,11735.0,3498.0,1751.0,-1.0,0.0,1.0,1.0
2022-05-08 14:25:11.988667-07:00,900.0,1028.8,1619.9,1150.6,642.4,514.7,1354.9,899.1,3478.3,3469.8,750.5,925.4,415.3,3505.1,929.6,834.4,3479.5,3474.6,401.2,652.2,484.5,545.8,259.9,259.2,3477.1,3474.6,631.1,543.4,713.4,1162.1,1482.9,454.5,-1.0,-5.0,-2.0,9296.0,12532.0,4601.0,1949.0,3.0,-2.0,-5.0,4.0,-32.0,0.0,10744.0,11735.0,3498.0,1751.0,2.0,4.0,1.0,1.0
2022-05-08 14:25:12.018193-07:00,900.0,1026.3,1625.6,1148.0,642.4,514.7,1357.6,891.5,3478.3,3463.7,747.2,917.7,415.3,3505.1,926.2,833.6,3469.8,3479.5,401.2,652.2,479.0,549.0,259.9,259.2,3480.7,3475.9,631.1,543.4,706.0,1167.4,1494.0,454.5,-1.0,-6.0,3.0,9296.0,12532.0,4601.0,1949.0,0.0,4.0,-4.0,3.0,-30.0,2.0,10744.0,11735.0,3498.0,1751.0,1.0,4.0,2.0,1.0
2022-05-08 14:25:12.108480-07:00,905.0,1028.0,1625.6,1148.0,641.6,509.9,1357.6,891.5,3471.0,3479.5,747.2,917.7,416.1,3507.5,926.2,833.6,3469.8,3479.5,407.5,657.0,479.0,549.0,257.6,261.4,3480.7,3475.9,623.0,541.8,706.0,1167.4,1490.3,456.1,-1.0,0.0,-1.0,9296.0,12532.0,4601.0,1949.0,3.0,5.0,-8.0,2.0,-27.0,-3.0,10744.0,11735.0,3498.0,1751.0,1.0,4.0,-3.0,1.0
2022-05-08 14:25:12.138720-07:00,905.0,1028.0,1623.7,1142.7,641.6,509.9,1353.1,892.4,3471.0,3479.5,747.2,920.3,416.1,3507.5,925.4,834.4,3475.9,3474.6,407.5,657.0,476.6,543.4,257.6,261.4,3485.6,3483.2,623.0,541.8,706.0,1165.6,1490.3,456.1,-3.0,-10.0,0.0,9296.0,12532.0,4602.0,1950.0,9.0,9.0,-2.0,1.0,-30.0,-1.0,10744.0,11735.0,3498.0,1752.0,8.0,6.0,0.0,1.0
2022-05-08 14:25:12.168495-07:00,906.7,1027.1,1623.7,1142.7,644.9,513.9,1353.1,892.4,3478.3,3484.4,747.2,920.3,417.6,3500.2,925.4,834.4,3475.9,3474.6,405.1,657.0,476.6,543.4,259.2,258.4,3485.6,3483.2,627.0,541.8,706.0,1165.6,1490.3,451.4,0.0,-10.0,-1.0,9295.0,12531.0,4604.0,1952.0,1.0,3.0,7.0,3.0,-33.0,-2.0,10744.0,11735.0,3497.0,1752.0,-1.0,4.0,14.0,1.0
2022-05-08 14:25:12.228859-07:00,906.7,1027.1,1621.8,1154.2,644.9,513.9,1352.1,894.9,3478.3,3484.4,747.2,922.0,417.6,3500.2,923.7,831.9,3488.0,3471.0,405.1,657.0,481.4,547.4,259.2,258.4,3485.6,3485.6,627.0,541.8,710.1,1162.1,1490.3,451.4,-1.0,-11.0,1.0,9295.0,12531.0,4604.0,1952.0,-3.0,4.0,10.0,2.0,-31.0,0.0,10743.0,11736.0,3494.0,1756.0,-7.0,-2.0,13.0,1.0
2022-05-08 14:25:12.289239-07:00,903.4,1028.0,1621.8,1154.2,642.4,513.9,1352.1,894.9,3467.4,3474.6,747.2,922.0,416.1,3501.4,923.7,831.9,3488.0,3471.0,405.9,657.0,481.4,547.4,263.0,258.4,3485.6,3485.6,629.5,543.4,710.1,1162.1,1486.6,453.0,0.0,0.0,0.0,9295.0,12532.0,4601.0,1953.0,5.0,5.0,-5.0,4.0,-29.0,-4.0,10743.0,11737.0,3491.0,1758.0,-2.0,-4.0,-1.0,1.0
2022-05-08 14:25:12.319294-07:00,903.4,1028.0,1625.6,1147.1,642.4,510.7,1353.1,891.5,3467.4,3474.6,743.9,924.5,416.1,3494.1,925.4,838.6,3483.2,3472.2,407.5,657.0,480.6,545.0,263.0,258.4,3480.7,3478.3,632.7,543.4,707.7,1166.5,1486.6,453.0,3.0,-9.0,-1.0,9295.0,12532.0,4601.0,1955.0,-6.0,4.0,10.0,5.0,-31.0,-3.0,10743.0,11737.0,3491.0,1758.0,-1.0,0.0,12.0,1.0
2022-05-08 14:25:12.378365-07:00,905.0,1031.4,1622.8,1147.1,640.0,510.7,1353.1,891.5,3474.6,3479.5,750.5,924.5,416.1,3494.1,925.4,838.6,3483.2,3472.2,407.5,653.8,480.6,550.6,259.2,258.4,3480.7,3478.3,632.7,550.6,707.7,1168.2,1487.5,451.4,-5.0,-3.0,-1.0,9296.0,12532.0,4597.0,1959.0,-2.0,4.0,15.0,-3.0,-28.0,0.0,10742.0,11738.0,3486.0,1763.0,1.0,2.0,18.0,1.0
2022-05-08 14:25:12.438686-07:00,905.0,1031.4,1622.8,1145.4,640.0,508.3,1347.6,897.4,3474.6,3479.5,750.5,922.8,416.1,3496.6,935.6,829.4,3478.3,3483.2,406.7,653.8,476.6,550.6,259.2,258.4,3485.6,3472.2,627.8,550.6,707.7,1168.2,1487.5,451.4,0.0,-5.0,0.0,9297.0,12532.0,4594.0,1964.0,-10.0,4.0,8.0,1.0,-30.0,-1.0,10742.0,11739.0,3482.0,1767.0,-3.0,6.0,10.0,1.0
2022-05-08 14:25:12.468489-07:00,906.7,1030.6,1623.7,1145.4,641.6,508.3,1347.6,897.4,3478.3,3474.6,749.6,922.8,416.1,3496.6,935.6,829.4,3478.3,3483.2,406.7,656.2,476.6,544.2,256.1,266.0,3485.6,3472.2,627.8,545.8,707.7,1165.6,1484.7,456.9,3.0,-8.0,-1.0,9297.0,12532.0,4594.0,1964.0,-3.0,1.0,-4.0,4.0,-32.0,3.0,10742.0,11739.0,3481.0,1768.0,-7.0,-6.0,3.0,1.0
2022-05-08 14:25:12.528784-07:00,906.7,1030.6,1623.7,1150.6,641.6,518.7,1354.0,891.5,3478.3,3474.6,749.6,926.2,416.1,3507.5,931.3,829.4,3488.0,3477.1,402.8,656.2,483.7,544.2,256.1,266.0,3474.6,3477.1,629.5,545.8,698.7,1165.6,1484.7,456.9,-2.0,-9.0,3.0,9297.0,12532.0,4594.0,1964.0,-6.0,3.0,9.0,0.0,-34.0,3.0,10742.0,11740.0,3479.0,1769.0,-3.0,0.0,12.0,1.0
2022-05-08 14:25:12.588807-07:00,911.0,1028.0,1627.5,1150.6,644.9,518.7,1354.0,891.5,3468.6,3473.4,744.7,926.2,417.6,3507.5,931.3,829.4,3488.0,3477.1,402.8,657.9,483.7,543.4,263.7,263.0,3474.6,3477.1,629.5,545.0,698.7,1163.0,1496.7,460.0,-2.0,-5.0,-2.0,9296.0,12532.0,4593.0,1966.0,-1.0,9.0,4.0,1.0,-30.0,0.0,10741.0,11741.0,3476.0,1772.0,0.0,2.0,8.0,1.0
2022-05-08 14:25:12.647999-07:00,911.0,1028.0,1627.5,1147.1,643.2,511.5,1351.2,894.1,3468.6,3473.4,744.7,925.4,415.3,3497.8,933.0,833.6,3473.4,3480.7,405.9,654.6,478.2,543.4,263.7,263.0,3488.0,3477.1,624.6,545.8,713.4,1163.0,1496.7,460.0,2.0,-10.0,-3.0,9296.0,12532.0,4594.0,1967.0,-3.0,-3.0,-1.0,6.0,-33.0,0.0,10741.0,11741.0,3476.0,1772.0,-6.0,1.0,4.0,1.0
2022-05-08 14:25:12.678914-07:00,898.3,1023.7,1620.9,1147.1,643.2,511.5,1351.2,894.1,3467.4,3467.4,752.1,924.5,415.3,3497.8,933.0,833.6,3473.4,3480.7,405.9,654.6,473.5,545.0,256.1,264.5,3488.0,3477.1,624.6,545.8,707.7,1170.0,1481.9,456.1,-5.0,-4.0,1.0,9296.0,12532.0,4594.0,1968.0,2.0,2.0,11.0,0.0,-28.0,3.0,10741.0,11741.0,3476.0,1772.0,0.0,-6.0,8.0,1.0
2022-05-08 14:25:12.738777-07:00,898.3,1023.7,1620.9,1147.1,636.7,511.5,1354.0,895.7,3467.4,3467.4,752.1,924.5,414.5,3500.2,923.7,826.0,3478.3,3467.4,411.4,654.6,473.5,545.0,256.1,264.5,3473.4,3480.7,627.8,547.4,707.7,1170.0,1481.9,456.1,1.0,-4.0,0.0,9295.0,12533.0,4592.0,1969.0,6.0,5.0,3.0,3.0,-31.0,3.0,10741.0,11741.0,3476.0,1772.0,5.0,-3.0,5.0,1.0
2022-05-08 14:25:12.798105-07:00,903.4,1024.5,1627.5,1150.6,636.7,511.5,1354.0,895.7,3475.9,3478.3,742.2,927.9,414.5,3500.2,923.7,826.0,3478.3,3467.4,411.4,654.6,475.0,544.2,263.0,259.2,3473.4,3480.7,627.8,547.4,707.7,1161.2,1487.5,456.9,0.0,-6.0,3.0,9295.0,12533.0,4592.0,1969.0,6.0,1.0,-5.0,4.0,-30.0,3.0,10741.0,11741.0,3476.0,1772.0,3.0,2.0,-2.0,1.0
2022-05-08 14:25:12.828577-07:00,903.4,1024.5,1627.5,1150.6,642.4,511.5,1358.5,897.4,3475.9,3478.3,742.2,927.9,413.7,3496.6,931.3,830.2,3477.1,3474.6,404.3,656.2,475.0,544.2,263.0,259.2,3477.1,3475.9,632.7,541.8,707.7,1161.2,1487.5,456.9,1.0,-3.0,-1.0,9295.0,12533.0,4593.0,1969.0,3.0,8.0,-8.0,1.0,-28.0,1.0,10741.0,11741.0,3476.0,1772.0,1.0,-3.0,-8.0,1.0
2022-05-08 14:25:12.888844-07:00,903.4,1026.3,1635.0,1145.4,642.4,511.5,1358.5,897.4,3479.5,3469.8,747.2,923.7,413.7,3496.6,931.3,830.2,3477.1,3474.6,404.3,656.2,477.4,541.0,263.0,259.9,3477.1,3475.9,632.7,541.8,708.5,1136.6,1503.2,456.1,3.0,-7.0,-3.0,9294.0,12533.0,4593.0,1969.0,3.0,2.0,-2.0,4.0,-28.0,-1.0,10741.0,11741.0,3476.0,1772.0,7.0,-1.0,-4.0,1.0
2022-05-08 14:25:12.919097-07:00,906.7,1026.3,1635.0,1145.4,644.0,513.1,1356.7,897.4,3473.4,3469.8,747.2,923.7,413.7,3494.1,929.6,832.7,3481.9,3477.1,405.1,658.7,477.4,541.0,263.0,256.1,3488.0,3480.7,627.0,543.4,708.5,1136.6,1503.2,459.3,-1.0,-6.0,1.0,9295.0,12532.0,4595.0,1968.0,3.0,-3.0,-12.0,1.0,-28.0,1.0,10741.0,11740.0,3477.0,1771.0,-2.0,-7.0,-10.0,1.0
2022-05-08 14:25:12.979092-07:00,906.7,1028.0,1625.6,1148.0,644.0,513.1,1356.7,897.4,3473.4,3473.4,750.5,923.7,413.7,3494.1,929.6,833.6,3478.3,3477.1,405.1,658.7,479.0,546.6,263.7,256.1,3489.2,3480.7,627.0,543.4,709.3,1164.7,1486.6,459.3,0.0,-14.0,-1.0,9295.0,12531.0,4598.0,1966.0,6.0,3.0,-7.0,2.0,-35.0,0.0,10741.0,11740.0,3478.0,1770.0,7.0,-2.0,-6.0,1.0
2022-05-08 14:25:13.038589-07:00,903.4,1028.0,1625.6,1148.0,644.9,511.5,1349.4,897.4,3478.3,3473.4,750.5,923.7,412.9,3495.3,929.6,833.6,3478.3,3483.2,405.9,653.8,479.0,546.6,263.7,261.4,3489.2,3489.2,625.4,543.4,709.3,1164.7,1486.6,455.3,-2.0,-5.0,0.0,9295.0,12531.0,4599.0,1963.0,-4.0,-5.0,-14.0,-1.0,-31.0,-2.0,10741.0,11740.0,3478.0,1770.0,-4.0,-5.0,-7.0,1.0
2022-05-08 14:25:13.069250-07:00,903.4,1025.4,1610.5,1148.9,644.9,511.5,1349.4,896.6,3478.3,3468.6,748.0,918.6,412.9,3495.3,929.6,835.2,3481.9,3483.2,405.9,653.8,481.4,547.4,256.9,261.4,3480.7,3489.2,625.4,543.4,709.3,1171.8,1484.7,455.3,-2.0,-7.0,1.0,9295.0,12530.0,4601.0,1962.0,4.0,-4.0,-11.0,0.0,-32.0,3.0,10742.0,11739.0,3481.0,1767.0,0.0,-1.0,-8.0,1.0
2022-05-08 14:25:13.128368-07:00,909.3,1025.4,1610.5,1148.9,644.9,510.7,1357.6,896.6,3475.9,3468.6,748.0,918.6,417.6,3499.0,927.1,835.2,3481.9,3474.6,406.7,656.2,481.4,547.4,256.9,256.1,3480.7,3483.2,628.6,544.2,709.3,1171.8,1484.7,451.4,0.0,-10.0,0.0,9295.0,12530.0,4602.0,1962.0,2.0,6.0,4.0,2.0,-34.0,2.0,10742.0,11739.0,3481.0,1767.0,1.0,1.0,3.0,1.0
2022-05-08 14:25:13.188842-07:00,909.3,1028.8,1623.7,1140.1,644.9,510.7,1357.6,897.4,3475.9,3477.1,747.2,920.3,417.6,3499.0,927.1,838.6,3483.2,3474.6,406.7,656.2,478.2,545.8,253.8,256.1,3477.1,3483.2,628.6,544.2,709.3,1168.2,1488.4,451.4,-6.0,-7.0,-1.0,9295.0,12530.0,4602.0,1962.0,-2.0,8.0,-9.0,-1.0,-31.0,-4.0,10742.0,11739.0,3481.0,1767.0,-4.0,1.0,0.0,1.0
2022-05-08 14:25:13.219115-07:00,905.9,1028.0,1623.7,1140.1,634.3,515.5,1354.9,897.4,3475.9,3467.4,747.2,920.3,411.4,3500.2,926.2,838.6,3483.2,3477.1,409.0,660.3,478.2,545.8,260.7,259.9,3477.1,3475.9,623.0,559.4,709.3,1168.2,1490.3,457.7,4.0,-4.0,-2.0,9295.0,12530.0,4602.0,1962.0,-1.0,4.0,-9.0,4.0,-30.0,-3.0,10742.0,11739.0,3482.0,1767.0,-9.0,-3.0,-10.0,1.0
2022-05-08 14:25:13.309304-07:00,905.9,1028.0,1620.9,1150.6,634.3,515.5,1356.7,891.5,3475.9,3467.4,744.7,921.1,411.4,3500.2,929.6,832.7,3483.2,3477.1,409.0,660.3,479.0,545.0,260.7,259.9,3480.7,3480.7,623.0,559.4,705.2,1162.1,1490.3,457.7,-1.0,-12.0,6.0,9296.0,12529.0,4604.0,1960.0,-9.0,7.0,-1.0,2.0,-36.0,-2.0,10742.0,11739.0,3482.0,1767.0,-9.0,-3.0,-3.0,1.0
2022-05-08 14:25:13.338502-07:00,903.4,1024.5,1620.9,1150.6,642.4,513.9,1356.7,891.5,3472.2,3467.4,744.7,921.1,416.1,3497.8,929.6,832.7,3483.2,3477.1,406.7,658.7,479.0,545.0,259.2,263.0,3480.7,3480.7,627.0,543.4,705.2,1162.1,1488.4,450.6,-5.0,-1.0,-2.0,9296.0,12529.0,4604.0,1960.0,-5.0,-6.0,-7.0,0.0,-28.0,0.0,10742.0,11739.0,3482.0,1767.0,-5.0,2.0,2.0,1.0
2022-05-08 14:25:13.369117-07:00,903.4,1024.5,1627.5,1144.5,642.4,513.9,1351.2,892.4,3472.2,3467.4,752.9,920.3,416.1,3497.8,923.7,832.7,3481.9,3474.6,406.7,658.7,483.7,544.2,259.2,263.0,3475.9,3485.6,627.0,543.4,712.6,1165.6,1488.4,450.6,0.0,-2.0,1.0,9296.0,12529.0,4604.0,1960.0,0.0,0.0,-6.0,1.0,-25.0,0.0,10742.0,11739.0,3482.0,1767.0,-2.0,2.0,-6.0,1.0
2022-05-08 14:25:13.459094-07:00,912.7,1028.8,1627.5,1144.5,636.7,514.7,1351.2,892.4,3478.3,3462.5,752.9,920.3,417.6,3499.0,923.7,832.7,3481.9,3474.6,402.8,660.3,483.7,544.2,259.9,259.2,3475.9,3485.6,626.2,545.0,712.6,1165.6,1489.3,456.9,0.0,-11.0,1.0,9296.0,12529.0,4605.0,1959.0,2.0,4.0,-2.0,0.0,-33.0,1.0,10742.0,11739.0,3482.0,1767.0,2.0,4.0,1.0,1.0
2022-05-08 14:25:13.518246-07:00,912.7,1028.8,1613.4,1146.3,636.7,514.7,1353.1,891.5,3478.3,3462.5,753.8,922.0,417.6,3499.0,925.4,828.5,3489.2,3480.7,402.8,660.3,481.4,552.2,259.9,259.2,3475.9,3478.3,626.2,545.0,710.1,1168.2,1489.3,456.9,-4.0,-3.0,-3.0,9296.0,12529.0,4605.0,1959.0,0.0,1.0,-1.0,-2.0,-27.0,1.0,10742.0,11739.0,3482.0,1767.0,2.0,-1.0,4.0,1.0
2022-05-08 14:25:13.520226-07:00,905.0,1024.5,1623.7,1146.3,645.7,514.7,1353.1,891.5,3474.6,3478.3,745.5,922.0,412.1,3497.8,925.4,828.5,3489.2,3480.7,405.1,655.4,481.4,544.2,259.9,258.4,3475.9,3478.3,625.4,546.6,710.1,1166.5,1488.4,468.7,0.0,-4.0,-2.0,9296.0,12529.0,4605.0,1959.0,-4.0,-3.0,-5.0,1.0,-31.0,1.0,10742.0,11739.0,3482.0,1767.0,-4.0,-6.0,-1.0,1.0
2022-05-08 14:25:13.578506-07:00,905.0,1024.5,1623.7,1138.4,645.7,513.9,1372.1,895.7,3474.6,3478.3,745.5,916.9,412.1,3497.8,928.8,831.1,3488.0,3486.8,404.3,655.4,479.8,544.2,259.9,258.4,3481.9,3474.6,618.1,546.6,707.7,1166.5,1488.4,468.7,-1.0,-6.0,3.0,9294.0,12530.0,4605.0,1959.0,8.0,-3.0,-6.0,1.0,-33.0,0.0,10741.0,11739.0,3482.0,1766.0,5.0,4.0,0.0,1.0
2022-05-08 14:25:13.638674-07:00,905.0,1026.3,1622.8,1138.4,643.2,513.9,1372.1,895.7,3474.6,3471.0,749.6,916.9,412.9,3497.8,928.8,831.1,3488.0,3486.8,404.3,660.3,479.8,544.2,257.6,259.9,3481.9,3474.6,618.1,546.6,707.7,1163.8,1480.1,453.0,-2.0,-9.0,3.0,9293.0,12531.0,4607.0,1958.0,13.0,5.0,-2.0,0.0,-31.0,3.0,10741.0,11739.0,3482.0,1766.0,6.0,5.0,2.0,1.0
2022-05-08 14:25:13.698556-07:00,905.0,1026.3,1622.8,1148.0,643.2,511.5,1354.0,895.7,3474.6,3471.0,749.6,923.7,412.9,3497.8,929.6,831.1,3481.9,3478.3,405.9,660.3,475.0,544.2,257.6,259.9,3485.6,3479.5,623.8,546.6,705.2,1163.8,1480.1,453.0,-4.0,-10.0,-1.0,9292.0,12530.0,4609.0,1960.0,-1.0,13.0,0.0,-1.0,-32.0,0.0,10741.0,11739.0,3482.0,1766.0,1.0,-2.0,3.0,1.0
2022-05-08 14:25:13.759129-07:00,904.2,1021.1,1622.8,1148.0,636.7,511.5,1354.0,895.7,3475.9,3477.1,746.3,923.7,411.4,3497.8,929.6,831.1,3481.9,3478.3,405.9,646.5,475.0,542.6,258.4,261.4,3485.6,3479.5,623.8,543.4,705.2,1161.2,1487.5,454.5,-2.0,-3.0,-1.0,9292.0,12530.0,4609.0,1961.0,-1.0,-4.0,-6.0,-1.0,-29.0,0.0,10741.0,11739.0,3482.0,1766.0,2.0,-1.0,3.0,1.0
2022-05-08 14:25:13.849092-07:00,904.2,1021.1,1622.8,1144.5,636.7,517.1,1349.4,896.6,3475.9,3477.1,746.3,927.1,411.4,3497.8,927.9,832.7,3483.2,3474.6,403.5,646.5,487.7,542.6,258.4,261.4,3485.6,3473.4,623.0,543.4,705.2,1161.2,1487.5,454.5,0.0,-10.0,3.0,9292.0,12530.0,4609.0,1961.0,-2.0,2.0,1.0,0.0,-31.0,-2.0,10741.0,11739.0,3482.0,1766.0,-5.0,1.0,6.0,1.0
2022-05-08 14:25:13.849866-07:00,900.0,1023.7,1626.5,1149.8,643.2,517.1,1349.4,896.6,3478.3,3469.8,747.2,918.6,417.6,3497.8,927.9,832.7,3483.2,3474.6,403.5,655.4,481.4,547.4,260.7,261.4,3485.6,3473.4,623.0,547.4,706.9,1169.1,1493.0,457.7,-4.0,-2.0,0.0,9292.0,12530.0,4609.0,1961.0,6.0,2.0,-5.0,-1.0,-27.0,0.0,10741.0,11739.0,3482.0,1766.0,6.0,1.0,0.0,1.0
2022-05-08 14:25:13.878564-07:00,900.0,1023.7,1626.5,1149.8,642.4,515.5,1355.8,898.3,3478.3,3469.8,747.2,918.6,412.9,3496.6,930.5,831.1,3481.9,3480.7,402.8,660.3,481.4,547.4,260.7,261.4,3484.4,3472.2,623.8,545.0,706.9,1169.1,1493.0,457.7,-2.0,-14.0,0.0,9292.0,12530.0,4609.0,1961.0,2.0,3.0,2.0,2.0,-34.0,2.0,10741.0,11739.0,3482.0,1766.0,4.0,3.0,6.0,1.0
2022-05-08 14:25:13.938627-07:00,905.0,1030.6,1623.7,1146.3,642.4,515.5,1355.8,898.3,3483.2,3467.4,749.6,919.4,412.9,3496.6,930.5,831.1,3481.9,3480.7,402.8,660.3,479.8,545.8,258.4,259.9,3484.4,3472.2,623.8,545.0,709.3,1168.2,1489.3,456.1,-4.0,-10.0,0.0,9292.0,12530.0,4609.0,1961.0,-4.0,8.0,8.0,-2.0,-32.0,-3.0,10741.0,11740.0,3480.0,1768.0,2.0,6.0,12.0,1.0
2022-05-08 14:25:13.968852-07:00,905.0,1030.6,1623.7,1146.3,643.2,509.1,1354.0,889.8,3483.2,3467.4,749.6,919.4,416.1,3499.0,924.5,832.7,3473.4,3477.1,404.3,656.2,479.8,545.8,258.4,259.9,3467.4,3478.3,622.2,545.0,709.3,1168.2,1489.3,456.1,-2.0,-2.0,-4.0,9292.0,12530.0,4609.0,1961.0,-1.0,-3.0,-4.0,-1.0,-29.0,-3.0,10741.0,11741.0,3478.0,1771.0,-2.0,1.0,4.0,1.0
2022-05-08 14:25:14.029135-07:00,901.7,1024.5,1619.9,1148.0,643.2,509.1,1354.0,889.8,3467.4,3472.2,745.5,924.5,416.1,3499.0,924.5,832.7,3473.4,3477.1,404.3,656.2,480.6,545.8,260.7,268.3,3467.4,3478.3,622.2,545.0,705.2,1153.3,1488.4,454.5,0.0,-8.0,3.0,9292.0,12530.0,4609.0,1961.0,-4.0,-4.0,-7.0,2.0,-34.0,5.0,10741.0,11741.0,3478.0,1771.0,-2.0,-5.0,-6.0,1.0
2022-05-08 14:25:14.090436-07:00,901.7,1024.5,1619.9,1148.0,640.0,512.3,1355.8,892.4,3467.4,3472.2,745.5,924.5,417.6,3497.8,924.5,835.2,3478.3,3483.2,404.3,653.0,480.6,545.8,260.7,268.3,3474.6,3478.3,620.5,545.8,705.2,1153.3,1488.4,454.5,0.0,-6.0,3.0,9291.0,12530.0,4610.0,1962.0,-2.0,13.0,3.0,-1.0,-30.0,1.0,10741.0,11741.0,3478.0,1771.0,-2.0,0.0,5.0,1.0
2022-05-08 14:25:14.148218-07:00,905.9,1028.8,1615.2,1143.6,640.0,512.3,1355.8,898.3,3479.5,3467.4,751.3,915.2,417.6,3497.8,924.5,837.7,3484.4,3483.2,404.3,653.0,477.4,545.0,259.2,262.2,3479.5,3478.3,620.5,545.8,710.1,1162.1,1484.7,453.7,-3.0,-1.0,-8.0,9290.0,12530.0,4612.0,1964.0,2.0,6.0,-4.0,-3.0,-29.0,-2.0,10741.0,11741.0,3478.0,1771.0,1.0,4.0,0.0,1.0
2022-05-08 14:25:14.178523-07:00,912.7,1028.8,1615.2,1143.6,644.0,513.9,1354.0,898.3,3472.2,3467.4,751.3,915.2,416.1,3497.8,929.6,837.7,3484.4,3480.7,405.9,653.0,477.4,545.0,259.2,259.9,3479.5,3479.5,626.2,545.8,710.1,1162.1,1484.7,456.1,0.0,-10.0,-1.0,9291.0,12530.0,4611.0,1964.0,-1.0,-13.0,-3.0,0.0,-32.0,0.0,10741.0,11741.0,3478.0,1771.0,-2.0,-6.0,-6.0,1.0
2022-05-08 14:25:14.238617-07:00,912.7,1028.8,1632.2,1141.9,644.0,513.9,1354.0,895.7,3472.2,3475.9,750.5,915.2,416.1,3497.8,929.6,833.6,3490.5,3480.7,405.9,653.0,482.2,546.6,256.1,259.9,3483.2,3479.5,626.2,545.8,722.5,1166.5,1486.6,456.1,-7.0,-9.0,6.0,9291.0,12530.0,4610.0,1962.0,1.0,6.0,3.0,-3.0,-34.0,6.0,10741.0,11741.0,3478.0,1771.0,1.0,1.0,4.0,1.0
2022-05-08 14:25:14.268125-07:00,906.7,1028.8,1632.2,1141.9,639.2,513.9,1349.4,895.7,3481.9,3475.9,750.5,915.2,415.3,3502.7,927.9,833.6,3490.5,3472.2,408.2,655.4,482.2,546.6,256.1,259.9,3483.2,3474.6,631.1,548.2,722.5,1166.5,1486.6,461.6,0.0,-5.0,0.0,9291.0,12530.0,4610.0,1962.0,0.0,5.0,-1.0,0.0,-31.0,0.0,10741.0,11741.0,3478.0,1771.0,0.0,-2.0,-1.0,1.0
2022-05-08 14:25:14.328583-07:00,906.7,1028.0,1624.7,1146.3,639.2,513.9,1349.4,899.1,3481.9,3488.0,749.6,922.8,415.3,3502.7,927.9,836.9,3477.1,3472.2,408.2,655.4,477.4,546.6,262.2,259.9,3467.4,3474.6,631.1,548.2,708.5,1164.7,1484.7,461.6,-2.0,-3.0,-1.0,9291.0,12530.0,4610.0,1962.0,9.0,1.0,-7.0,0.0,-29.0,-2.0,10741.0,11741.0,3478.0,1771.0,1.0,0.0,-6.0,1.0
2022-05-08 14:25:14.388759-07:00,905.0,1028.0,1624.7,1146.3,641.6,509.1,1348.5,899.1,3479.5,3488.0,749.6,922.8,417.6,3500.2,927.1,836.9,3477.1,3484.4,405.9,659.5,477.4,546.6,262.2,259.2,3467.4,3478.3,625.4,546.6,708.5,1164.7,1484.7,453.7,-4.0,-6.0,1.0,9292.0,12529.0,4612.0,1960.0,5.0,3.0,-1.0,-1.0,-34.0,0.0,10741.0,11741.0,3478.0,1771.0,2.0,3.0,3.0,1.0
2022-05-08 14:25:14.419250-07:00,905.0,1027.1,1623.7,1169.1,641.6,509.1,1345.8,897.4,3479.5,3478.3,743.9,925.4,417.6,3500.2,922.0,831.1,3486.8,3485.6,405.9,659.5,479.0,546.6,259.2,259.2,3486.8,3479.5,625.4,546.6,701.1,1160.3,1486.6,453.7,-2.0,-5.0,-1.0,9291.0,12529.0,4613.0,1961.0,4.0,3.0,-4.0,0.0,-31.0,-1.0,10741.0,11741.0,3478.0,1771.0,5.0,4.0,0.0,1.0
2022-05-08 14:25:14.478986-07:00,906.7,1027.1,1623.7,1169.1,646.5,513.9,1345.8,897.4,3475.9,3475.9,743.9,925.4,418.4,3499.0,922.0,831.1,3486.8,3485.6,408.2,660.3,479.0,546.6,261.4,259.2,3486.8,3479.5,625.4,549.0,701.1,1160.3,1488.4,456.9,-3.0,-10.0,-2.0,9291.0,12529.0,4613.0,1961.0,2.0,8.0,-1.0,-2.0,-34.0,1.0,10741.0,11741.0,3478.0,1771.0,2.0,-3.0,2.0,1.0
2022-05-08 14:25:14.508862-07:00,906.7,1027.1,1625.6,1146.3,646.5,513.9,1353.1,895.7,3475.9,3475.9,749.6,926.2,418.4,3499.0,923.7,835.2,3488.0,3479.5,408.2,660.3,475.0,550.6,261.4,259.2,3474.6,3481.9,625.4,549.0,710.1,1171.8,1488.4,456.9,-5.0,-7.0,-1.0,9291.0,12529.0,4613.0,1961.0,0.0,-3.0,4.0,-1.0,-32.0,-2.0,10741.0,11741.0,3477.0,1771.0,-3.0,-1.0,10.0,1.0
2022-05-08 14:25:14.568972-07:00,905.0,1029.7,1625.6,1146.3,643.2,515.5,1353.1,895.7,3471.0,3477.1,749.6,926.2,417.6,3507.5,923.7,835.2,3488.0,3479.5,405.1,656.2,475.0,550.6,259.2,263.0,3474.6,3481.9,623.0,545.8,710.1,1171.8,1487.5,460.8,-1.0,-5.0,0.0,9291.0,12529.0,4613.0,1961.0,0.0,2.0,6.0,0.0,-29.0,1.0,10740.0,11742.0,3475.0,1773.0,-2.0,-4.0,7.0,1.0
2022-05-08 14:25:14.658633-07:00,905.0,1029.7,1621.8,1148.9,643.2,515.5,1365.7,894.9,3471.0,3477.1,752.1,919.4,417.6,3507.5,933.0,826.9,3478.3,3481.9,405.1,656.2,481.4,545.8,259.2,263.0,3475.9,3488.0,623.0,545.8,706.9,1165.6,1487.5,460.8,0.0,-8.0,-2.0,9291.0,12529.0,4614.0,1962.0,-3.0,6.0,5.0,-1.0,-31.0,2.0,10740.0,11742.0,3473.0,1774.0,-3.0,2.0,12.0,1.0
2022-05-08 14:25:14.659845-07:00,901.7,1022.8,1621.8,1148.9,640.0,512.3,1365.7,894.9,3478.3,3479.5,752.1,919.4,416.1,3491.7,933.0,826.9,3478.3,3481.9,406.7,661.1,481.4,545.8,256.1,262.2,3475.9,3488.0,623.8,544.2,706.9,1165.6,1490.3,453.7,-5.0,2.0,-2.0,9291.0,12529.0,4614.0,1962.0,3.0,5.0,3.0,-2.0,-28.0,1.0,10740.0,11742.0,3472.0,1776.0,2.0,0.0,6.0,1.0
2022-05-08 14:25:14.748036-07:00,901.7,1022.8,1627.5,1141.9,640.0,512.3,1354.0,901.7,3478.3,3479.5,749.6,918.6,416.1,3496.6,928.8,831.1,3477.1,3472.2,402.8,661.1,479.0,545.8,256.1,262.2,3479.5,3478.3,623.8,544.2,705.2,1163.0,1490.3,453.7,3.0,-12.0,1.0,9291.0,12529.0,4614.0,1962.0,-1.0,-4.0,4.0,1.0,-36.0,-1.0,10740.0,11742.0,3472.0,1776.0,-1.0,-6.0,5.0,1.0
2022-05-08 14:25:14.778254-07:00,903.4,1025.4,1627.5,1141.9,645.7,512.3,1354.0,901.7,3464.9,3473.4,743.0,918.6,412.1,3496.6,928.8,831.1,3477.1,3472.2,402.8,657.9,479.0,550.6,259.9,256.1,3479.5,3478.3,623.8,550.6,705.2,1165.6,1499.5,452.2,-5.0,-10.0,0.0,9291.0,12529.0,4613.0,1963.0,-9.0,2.0,10.0,-1.0,-37.0,4.0,10740.0,11743.0,3470.0,1777.0,-4.0,-2.0,13.0,1.0
2022-05-08 14:25:14.808823-07:00,903.4,1025.4,1627.5,1148.0,645.7,513.1,1348.5,891.5,3464.9,3473.4,743.0,924.5,412.1,3505.1,920.3,830.2,3483.2,3474.6,404.3,657.9,478.2,550.6,259.9,256.1,3478.3,3473.4,627.0,550.6,708.5,1165.6,1499.5,452.2,-2.0,-5.0,0.0,9291.0,12530.0,4610.0,1967.0,-10.0,10.0,4.0,-1.0,-26.0,4.0,10739.0,11744.0,3468.0,1780.0,-4.0,8.0,6.0,1.0
2022-05-08 14:25:14.868549-07:00,898.3,1027.1,1623.7,1148.0,636.7,513.1,1348.5,891.5,3478.3,3483.2,750.5,924.5,417.6,3505.1,920.3,830.2,3483.2,3474.6,404.3,653.8,478.2,544.2,263.0,258.4,3478.3,3473.4,627.0,547.4,708.5,1169.1,1488.4,454.5,8.0,-1.0,0.0,9291.0,12530.0,4610.0,1967.0,4.0,7.0,-2.0,6.0,-30.0,-2.0,10739.0,11744.0,3468.0,1780.0,4.0,-2.0,-6.0,1.0
2022-05-08 14:25:14.928573-07:00,898.3,1027.1,1623.7,1148.9,636.7,509.9,1356.7,889.8,3478.3,3483.2,750.5,918.6,417.6,3500.2,922.8,841.9,3480.7,3483.2,405.1,653.8,473.5,544.2,263.0,258.4,3481.9,3494.1,627.0,547.4,709.3,1169.1,1488.4,454.5,0.0,-13.0,4.0,9290.0,12530.0,4609.0,1967.0,2.0,5.0,11.0,0.0,-33.0,1.0,10739.0,11744.0,3468.0,1780.0,1.0,-1.0,5.0,1.0
2022-05-08 14:25:14.958966-07:00,905.0,1024.5,1619.0,1148.9,647.3,509.9,1356.7,889.8,3474.6,3473.4,752.1,918.6,414.5,3500.2,922.8,841.9,3480.7,3483.2,405.1,654.6,473.5,550.6,258.4,254.6,3481.9,3494.1,627.0,542.6,709.3,1164.7,1486.6,453.0,-6.0,-2.0,-1.0,9289.0,12531.0,4608.0,1971.0,3.0,-2.0,5.0,-2.0,-30.0,-1.0,10739.0,11744.0,3468.0,1780.0,5.0,6.0,6.0,1.0
2022-05-08 14:25:15.018970-07:00,905.0,1024.5,1619.0,1142.7,636.7,510.7,1354.9,896.6,3474.6,3473.4,752.1,922.8,419.2,3494.1,926.2,831.1,3480.7,3481.9,404.3,657.9,483.0,550.6,258.4,254.6,3471.0,3479.5,624.6,547.4,706.0,1164.7,1486.6,453.0,1.0,-5.0,-7.0,9290.0,12533.0,4602.0,1971.0,1.0,-18.0,15.0,2.0,-32.0,-4.0,10739.0,11744.0,3468.0,1780.0,7.0,-6.0,3.0,1.0
2022-05-08 14:25:15.078333-07:00,909.3,1025.4,1623.7,1143.6,636.7,510.7,1354.9,896.6,3477.1,3471.0,743.9,922.0,419.2,3494.1,926.2,831.1,3480.7,3481.9,404.3,657.9,479.0,542.6,257.6,259.2,3471.0,3479.5,624.6,547.4,701.9,1160.3,1491.2,456.1,-1.0,-9.0,5.0,9292.0,12536.0,4590.0,1966.0,6.0,-27.0,19.0,-1.0,-34.0,2.0,10738.0,11746.0,3465.0,1777.0,13.0,-13.0,12.0,1.0
2022-05-08 14:25:15.108985-07:00,909.3,1025.4,1623.7,1143.6,640.8,514.7,1354.9,892.4,3477.1,3471.0,743.9,922.0,417.6,3501.4,925.4,832.7,3473.4,3480.7,403.5,653.0,479.0,542.6,257.6,259.2,3481.9,3477.1,623.0,538.6,701.9,1160.3,1491.2,456.1,-2.0,6.0,7.0,9292.0,12535.0,4594.0,1966.0,9.0,29.0,-30.0,2.0,-29.0,4.0,10735.0,11750.0,3462.0,1772.0,12.0,-10.0,-18.0,1.0
2022-05-08 14:25:15.168147-07:00,904.2,1024.5,1621.8,1152.4,640.8,514.7,1354.9,892.4,3483.2,3477.1,748.8,918.6,417.6,3501.4,925.4,832.7,3473.4,3480.7,403.5,653.0,482.2,543.4,259.2,260.7,3481.9,3477.1,623.0,538.6,711.0,1161.2,1488.4,455.3,7.0,-14.0,-1.0,9289.0,12529.0,4613.0,1970.0,9.0,36.0,-23.0,-1.0,-36.0,-22.0,10733.0,11751.0,3470.0,1763.0,13.0,-4.0,-31.0,1.0
2022-05-08 14:25:15.228365-07:00,904.2,1024.5,1621.8,1152.4,643.2,513.1,1358.5,895.7,3483.2,3477.1,748.8,918.6,415.3,3499.0,927.1,831.1,3477.1,3484.4,401.2,658.7,482.2,543.4,259.2,260.7,3481.9,3483.2,634.3,547.4,711.0,1161.2,1488.4,455.3,20.0,40.0,19.0,9263.0,12530.0,4653.0,2000.0,-110.0,251.0,-19.0,13.0,-3.0,2.0,10730.0,11753.0,3480.0,1748.0,-2.0,-26.0,-68.0,1.0
2022-05-08 14:25:15.258561-07:00,905.0,1051.3,1636.9,1163.0,643.2,513.1,1358.5,895.7,3483.2,3478.3,756.3,922.8,415.3,3499.0,927.1,831.1,3477.1,3484.4,401.2,658.7,480.6,541.8,265.3,257.6,3481.9,3483.2,634.3,547.4,715.9,1173.5,1529.2,453.0,-14.0,12.0,0.0,9265.0,12490.0,4718.0,2083.0,-54.0,247.0,-8.0,1.0,-16.0,9.0,10739.0,11744.0,3494.0,1724.0,20.0,-2.0,-61.0,1.0
2022-05-08 14:25:15.348466-07:00,906.7,1051.3,1636.9,1163.0,639.2,511.5,1359.4,895.7,3488.0,3478.3,756.3,922.8,411.4,3495.3,982.5,836.9,3478.3,3478.3,405.9,653.0,480.6,541.8,265.3,261.4,3478.3,3484.4,647.3,549.0,715.9,1173.5,1529.2,453.7,-6.0,-15.0,-12.0,9267.0,12455.0,4761.0,2181.0,-113.0,206.0,59.0,2.0,-41.0,-4.0,10740.0,11740.0,3511.0,1708.0,-2.0,-3.0,-44.0,1.0
2022-05-08 14:25:15.378589-07:00,906.7,1082.5,1659.6,1176.2,639.2,511.5,1359.4,891.5,3488.0,3466.1,833.6,925.4,411.4,3495.3,982.5,857.0,3474.6,3478.3,405.9,653.0,481.4,543.4,267.6,261.4,3474.6,3484.4,647.3,549.0,725.8,1183.2,1616.2,453.7,-1.0,-11.0,-25.0,9268.0,12439.0,4771.0,2243.0,-78.0,68.0,65.0,1.0,-24.0,-10.0,10743.0,11739.0,3516.0,1691.0,2.0,-47.0,-38.0,1.0
2022-05-08 14:25:15.438786-07:00,916.9,1082.5,1659.6,1176.2,642.4,512.3,1363.9,891.5,3478.3,3466.1,833.6,925.4,416.1,3492.9,1189.4,857.0,3474.6,3477.1,401.2,657.0,481.4,543.4,267.6,266.8,3474.6,3485.6,646.5,555.4,725.8,1183.2,1616.2,456.1,8.0,-26.0,-13.0,9305.0,12421.0,4727.0,2285.0,-188.0,-42.0,142.0,0.0,-48.0,-2.0,10766.0,11727.0,3499.0,1666.0,-75.0,-83.0,-4.0,1.0
2022-05-08 14:25:15.468583-07:00,916.9,1099.0,1688.1,1193.8,642.4,512.3,1363.9,905.9,3478.3,3472.2,916.0,933.9,416.1,3492.9,1189.4,892.4,3471.0,3477.1,401.2,657.0,480.6,546.6,264.5,266.8,3485.6,3485.6,646.5,555.4,721.6,1218.6,1791.6,456.1,-5.0,5.0,2.0,9336.0,12417.0,4668.0,2305.0,-135.0,-99.0,151.0,7.0,-25.0,2.0,10783.0,11721.0,3476.0,1646.0,-32.0,-83.0,-4.0,1.0
2022-05-08 14:25:15.528977-07:00,919.4,1099.0,1688.1,1193.8,648.9,517.9,1372.1,905.9,3473.4,3472.2,916.0,933.9,412.1,3502.7,1301.6,892.4,3471.0,3481.9,407.5,661.9,480.6,546.6,264.5,267.6,3485.6,3484.4,662.7,555.4,721.6,1218.6,1791.6,456.1,11.0,-11.0,11.0,9403.0,12387.0,4594.0,2339.0,-227.0,-13.0,114.0,2.0,-36.0,4.0,10810.0,11705.0,3454.0,1621.0,-66.0,-92.0,-22.0,1.0
2022-05-08 14:25:15.558889-07:00,919.4,1099.0,1775.2,1270.3,648.9,517.9,1372.1,913.5,3473.4,3477.1,973.9,946.6,412.1,3502.7,1301.6,912.7,3474.6,3481.9,407.5,661.9,478.2,546.6,264.5,267.6,3478.3,3484.4,662.7,555.4,720.8,1290.0,2073.5,456.1,-17.0,-14.0,9.0,9462.0,12351.0,4545.0,2389.0,-202.0,4.0,126.0,-4.0,-36.0,8.0,10834.0,11691.0,3437.0,1596.0,-55.0,-65.0,-21.0,1.0
2022-05-08 14:25:15.649167-07:00,916.9,1098.2,1775.2,1270.3,653.8,517.9,1384.8,913.5,3479.5,3474.6,973.9,946.6,417.6,3500.2,1469.0,912.7,3474.6,3477.1,410.6,660.3,478.2,546.6,269.9,267.6,3478.3,3483.2,670.1,569.0,720.8,1290.0,2270.3,455.3,24.0,5.0,-9.0,9517.0,12318.0,4487.0,2448.0,-170.0,16.0,120.0,5.0,-28.0,-15.0,10848.0,11686.0,3422.0,1573.0,-21.0,-79.0,-22.0,1.0
2022-05-08 14:25:15.678570-07:00,916.9,1098.2,1828.4,1307.9,653.8,517.9,1387.5,950.0,3479.5,3474.6,1041.8,951.7,417.6,3500.2,1557.1,943.2,3484.4,3480.7,410.6,660.3,481.4,546.6,269.9,267.6,3477.1,3483.2,670.1,569.0,741.4,1377.5,2270.3,455.3,-1.0,-6.0,-5.0,9575.0,12276.0,4447.0,2504.0,-204.0,-1.0,96.0,0.0,-35.0,-2.0,10868.0,11675.0,3406.0,1554.0,-30.0,-60.0,-7.0,1.0
2022-05-08 14:25:15.708949-07:00,916.9,1088.6,1828.4,1307.9,653.0,521.0,1387.5,950.0,3479.5,3484.4,1041.8,951.7,410.6,3503.9,1557.1,943.2,3484.4,3480.7,408.2,657.0,481.4,546.6,272.9,270.6,3477.1,3483.2,679.9,557.0,741.4,1377.5,2436.7,460.0,3.0,-1.0,1.0,9642.0,12228.0,4405.0,2557.0,-234.0,33.0,95.0,-1.0,-24.0,0.0,10883.0,11668.0,3392.0,1532.0,-21.0,-74.0,-22.0,1.0
2022-05-08 14:25:15.769320-07:00,916.9,1088.6,1857.6,1389.4,653.0,521.0,1404.0,995.3,3479.5,3484.4,1069.5,960.2,410.6,3503.9,1560.9,982.5,3483.2,3491.7,408.2,657.0,475.0,549.0,272.9,270.6,3488.0,3485.6,679.9,557.0,762.0,1458.9,2436.7,460.0,-2.0,-17.0,8.0,9706.0,12170.0,4381.0,2632.0,-201.0,108.0,67.0,5.0,-34.0,13.0,10902.0,11659.0,3374.0,1503.0,-37.0,-66.0,-23.0,1.0
2022-05-08 14:25:15.828600-07:00,916.0,1082.5,1857.6,1389.4,666.8,521.0,1404.0,995.3,3483.2,3479.5,1069.5,960.2,417.6,3497.8,1560.9,982.5,3483.2,3491.7,409.0,657.0,475.0,549.0,282.1,280.6,3488.0,3485.6,675.8,552.2,762.0,1458.9,2551.9,454.5,-12.0,-8.0,4.0,9741.0,12135.0,4370.0,2680.0,-89.0,25.0,60.0,-3.0,-33.0,-5.0,10900.0,11665.0,3370.0,1481.0,49.0,-60.0,-29.0,1.0
2022-05-08 14:25:15.858440-07:00,916.0,1082.5,1851.8,1458.9,666.8,521.0,1420.4,1040.1,3483.2,3479.5,1084.2,960.2,417.6,3497.8,1513.4,1013.3,3483.2,3473.4,409.0,657.0,483.7,549.8,282.1,280.6,3484.4,3484.4,675.8,552.2,781.1,1526.4,2551.9,454.5,-4.0,0.0,0.0,9768.0,12112.0,4353.0,2716.0,-142.0,24.0,42.0,-8.0,-23.0,1.0,10908.0,11664.0,3359.0,1450.0,-27.0,-69.0,-38.0,1.0
2022-05-08 14:25:15.918627-07:00,915.2,1080.8,1825.5,1458.9,687.2,521.0,1420.4,1040.1,3474.6,3477.1,1099.0,960.2,423.9,3502.7,1513.4,1013.3,3483.2,3473.4,409.0,658.7,483.7,557.0,279.8,282.1,3484.4,3484.4,675.8,542.6,781.1,1539.4,2569.1,461.6,-8.0,-18.0,8.0,9801.0,12085.0,4340.0,2738.0,-84.0,16.0,39.0,-7.0,-28.0,11.0,10906.0,11668.0,3362.0,1427.0,21.0,-26.0,-41.0,1.0
2022-05-08 14:25:15.978579-07:00,915.2,1080.8,1825.5,1501.4,687.2,520.3,1435.0,1076.4,3474.6,3477.1,1099.0,979.9,423.9,3496.6,1438.7,1028.8,3478.3,3479.5,410.6,658.7,483.7,557.0,279.8,282.1,3483.2,3480.7,675.8,542.6,801.9,1539.4,2569.1,461.6,18.0,2.0,-21.0,9825.0,12069.0,4314.0,2762.0,-94.0,-41.0,50.0,24.0,-27.0,-7.0,10894.0,11680.0,3372.0,1397.0,-8.0,-44.0,-56.0,1.0
2022-05-08 14:25:16.008831-07:00,912.7,1072.9,1817.8,1501.4,692.9,520.3,1435.0,1076.4,3478.3,3467.4,1101.7,979.9,417.6,3496.6,1438.7,1028.8,3478.3,3479.5,410.6,657.0,483.7,556.2,284.4,279.0,3483.2,3480.7,675.8,532.2,801.9,1536.6,2522.9,457.7,20.0,10.0,-17.0,9835.0,12076.0,4276.0,2757.0,-2.0,-74.0,61.0,10.0,-27.0,0.0,10893.0,11681.0,3380.0,1376.0,41.0,-14.0,-48.0,1.0
2022-05-08 14:25:16.068590-07:00,912.7,1072.9,1817.8,1494.0,692.9,517.9,1463.5,1129.6,3478.3,3467.4,1101.7,985.9,417.6,3501.4,1389.4,1021.1,3488.0,3481.9,412.9,657.0,479.0,556.2,284.4,279.0,3478.3,3477.1,679.9,532.2,801.9,1536.6,2522.9,457.7,2.0,-10.0,5.0,9840.0,12080.0,4252.0,2757.0,31.0,-16.0,23.0,0.0,-29.0,16.0,10886.0,11686.0,3394.0,1363.0,41.0,18.0,-29.0,1.0
2022-05-08 14:25:16.128587-07:00,922.0,1068.6,1802.3,1494.0,689.7,517.9,1463.5,1129.6,3471.0,3467.4,1105.1,985.9,417.6,3501.4,1389.4,1021.1,3488.0,3481.9,412.9,655.4,479.0,560.2,276.7,279.8,3478.3,3477.1,679.9,515.5,801.9,1527.3,2469.5,465.6,21.0,10.0,-18.0,9833.0,12097.0,4229.0,2741.0,26.0,-118.0,25.0,-6.0,-25.0,-7.0,10889.0,11682.0,3401.0,1354.0,-40.0,-14.0,-27.0,1.0
2022-05-08 14:25:16.158450-07:00,922.0,1068.6,1802.3,1478.3,689.7,517.1,1442.4,1140.1,3471.0,3467.4,1105.1,991.9,417.6,3507.5,1357.6,1039.2,3486.8,3484.4,409.8,655.4,482.2,560.2,276.7,279.8,3477.1,3491.7,679.1,515.5,812.7,1527.3,2469.5,465.6,-1.0,0.0,-6.0,9838.0,12112.0,4198.0,2706.0,8.0,-108.0,-4.0,2.0,-19.0,-7.0,10892.0,11679.0,3404.0,1344.0,-2.0,-26.0,-20.0,1.0
2022-05-08 14:25:16.218585-07:00,930.5,1106.9,1785.8,1466.3,699.5,517.1,1442.4,1140.1,3475.9,3478.3,1110.4,1007.3,422.3,3507.5,1357.6,1039.2,3486.8,3484.4,409.8,655.4,483.7,558.6,279.8,280.6,3477.1,3491.7,679.1,508.3,854.5,1521.8,2417.6,471.1,-4.0,-14.0,-6.0,9849.0,12122.0,4166.0,2673.0,-7.0,-119.0,20.0,-4.0,-34.0,-2.0,10907.0,11669.0,3396.0,1332.0,-45.0,-51.0,-4.0,1.0
2022-05-08 14:25:16.278578-07:00,930.5,1106.9,1785.8,1466.3,702.8,513.1,1436.9,1158.6,3475.9,3478.3,1110.4,1007.3,418.4,3501.4,1313.3,1026.3,3474.6,3478.3,407.5,657.9,483.7,558.6,279.8,280.6,3480.7,3475.9,679.9,497.2,854.5,1521.8,2417.6,471.1,17.0,8.0,1.0,9861.0,12132.0,4127.0,2641.0,0.0,-117.0,4.0,7.0,-27.0,-6.0,10914.0,11666.0,3386.0,1323.0,-3.0,-40.0,-11.0,1.0
2022-05-08 14:25:16.308979-07:00,934.7,1121.7,1775.2,1455.2,702.8,513.1,1436.9,1158.6,3471.0,3478.3,1104.3,1012.5,418.4,3501.4,1313.3,1026.3,3474.6,3478.3,407.5,657.9,479.8,556.2,280.6,281.3,3480.7,3475.9,679.9,497.2,865.4,1506.0,2353.5,467.9,-7.0,-7.0,-3.0,9881.0,12124.0,4112.0,2627.0,-25.0,-66.0,13.0,4.0,-29.0,3.0,10918.0,11668.0,3376.0,1303.0,-7.0,-56.0,-13.0,1.0
2022-05-08 14:25:16.398656-07:00,934.7,1121.7,1775.2,1455.2,704.4,513.1,1447.0,1162.1,3471.0,3478.3,1104.3,1012.5,420.0,3502.7,1288.2,1022.8,3480.7,3475.9,404.3,656.2,479.8,556.2,280.6,281.3,3475.9,3483.2,674.2,496.4,865.4,1506.0,2353.5,467.9,7.0,0.0,-9.0,9896.0,12130.0,4078.0,2595.0,7.0,-124.0,-7.0,0.0,-30.0,-4.0,10921.0,11670.0,3366.0,1284.0,15.0,-44.0,-19.0,1.0
2022-05-08 14:25:16.458478-07:00,934.7,1141.0,1765.6,1447.0,704.4,513.1,1447.0,1162.1,3488.0,3477.1,1099.0,1011.6,420.0,3502.7,1288.2,1022.8,3480.7,3475.9,404.3,656.2,481.4,561.0,282.9,283.6,3475.9,3483.2,674.2,496.4,874.7,1498.6,2325.4,467.9,0.0,-16.0,-3.0,9903.0,12140.0,4055.0,2561.0,-3.0,-81.0,-6.0,4.0,-41.0,9.0,10922.0,11673.0,3360.0,1265.0,-6.0,-35.0,-10.0,1.0
2022-05-08 14:25:16.459709-07:00,934.7,1141.0,1765.6,1447.0,706.9,509.9,1447.0,1160.3,3488.0,3477.1,1099.0,1011.6,425.5,3505.1,1276.5,1020.2,3488.0,3474.6,410.6,657.9,481.4,561.0,282.9,283.6,3483.2,3477.1,678.2,488.5,874.7,1498.6,2325.4,467.9,-6.0,-6.0,16.0,9904.0,12151.0,4037.0,2532.0,24.0,-40.0,-13.0,0.0,-26.0,-4.0,10929.0,11668.0,3356.0,1262.0,5.0,14.0,-1.0,1.0
2022-05-08 14:25:16.548462-07:00,933.0,1131.4,1750.2,1436.9,706.9,509.9,1447.0,1159.4,3477.1,3471.0,1096.4,1016.8,425.5,3505.1,1276.5,1016.8,3479.5,3474.6,410.6,657.9,475.0,557.8,286.7,282.9,3479.5,3477.1,678.2,488.5,873.8,1493.0,2295.2,465.6,3.0,-7.0,9.0,9898.0,12155.0,4044.0,2526.0,16.0,19.0,-15.0,10.0,-35.0,-9.0,10927.0,11667.0,3362.0,1267.0,17.0,11.0,-11.0,1.0
2022-05-08 14:25:16.549768-07:00,927.1,1131.4,1750.2,1436.9,701.9,510.7,1435.0,1159.4,3468.6,3471.0,1096.4,1016.8,418.4,3500.2,1259.6,1016.8,3479.5,3474.6,411.4,656.2,475.0,557.8,286.7,282.9,3479.5,3477.1,668.4,486.9,873.8,1493.0,2295.2,470.3,8.0,-2.0,-7.0,9885.0,12161.0,4058.0,2524.0,28.0,7.0,-29.0,5.0,-39.0,-1.0,10924.0,11667.0,3374.0,1270.0,7.0,20.0,-15.0,1.0
2022-05-08 14:25:16.638219-07:00,927.1,1122.6,1729.1,1425.9,701.9,510.7,1435.0,1149.8,3468.6,3467.4,1086.0,1015.1,418.4,3500.2,1259.6,1010.8,3477.1,3474.6,411.4,656.2,476.6,556.2,282.1,282.9,3477.1,3477.1,668.4,486.9,861.2,1476.4,2284.8,470.3,-7.0,-15.0,9.0,9873.0,12163.0,4083.0,2521.0,18.0,77.0,-41.0,-1.0,-28.0,15.0,10921.0,11665.0,3389.0,1276.0,-5.0,46.0,-11.0,1.0
2022-05-08 14:25:16.668291-07:00,929.6,1122.6,1729.1,1425.9,702.8,512.3,1435.0,1149.8,3478.3,3467.4,1086.0,1015.1,427.8,3510.0,1245.3,1010.8,3477.1,3478.3,409.0,655.4,476.6,556.2,282.1,282.9,3477.1,3484.4,679.9,493.2,861.2,1476.4,2284.8,462.4,2.0,3.0,-10.0,9866.0,12158.0,4102.0,2539.0,-1.0,32.0,3.0,4.0,-40.0,-5.0,10916.0,11666.0,3398.0,1285.0,3.0,20.0,-2.0,1.0
2022-05-08 14:25:16.698840-07:00,929.6,1115.6,1730.1,1410.3,702.8,512.3,1435.0,1139.2,3478.3,3478.3,1080.8,1010.8,427.8,3510.0,1245.3,1009.9,3478.3,3478.3,409.0,655.4,483.7,561.0,282.1,282.9,3484.4,3484.4,679.9,493.2,863.7,1467.2,2267.2,462.4,4.0,-5.0,3.0,9856.0,12158.0,4122.0,2545.0,29.0,65.0,-40.0,1.0,-28.0,-4.0,10912.0,11665.0,3411.0,1289.0,12.0,38.0,-18.0,1.0
2022-05-08 14:25:16.758468-07:00,918.6,1115.6,1730.1,1410.3,695.4,505.1,1441.5,1139.2,3483.2,3478.3,1080.8,1010.8,423.9,3497.8,1249.7,1009.9,3478.3,3484.4,412.9,657.0,483.7,561.0,282.1,281.3,3484.4,3478.3,675.0,489.3,863.7,1467.2,2267.2,467.9,-6.0,-8.0,0.0,9837.0,12161.0,4153.0,2555.0,38.0,41.0,0.0,0.0,-28.0,0.0,10904.0,11667.0,3427.0,1299.0,0.0,16.0,-6.0,1.0
2022-05-08 14:25:16.818578-07:00,918.6,1103.4,1716.7,1414.0,695.4,505.1,1436.0,1141.9,3483.2,3478.3,1073.8,1013.3,423.9,3497.8,1244.4,1004.8,3477.1,3485.6,412.9,657.0,482.2,563.4,279.0,281.3,3479.5,3486.8,675.0,489.3,870.5,1465.4,2252.8,467.9,2.0,-1.0,-16.0,9831.0,12167.0,4148.0,2560.0,4.0,-18.0,20.0,2.0,-35.0,-4.0,10905.0,11665.0,3428.0,1301.0,-1.0,-8.0,6.0,1.0
2022-05-08 14:25:16.848680-07:00,915.2,1106.0,1716.7,1414.0,695.4,503.6,1436.0,1141.9,3469.8,3472.2,1073.8,1013.3,416.8,3496.6,1244.4,1004.8,3477.1,3485.6,408.2,653.8,482.2,563.4,277.5,279.0,3479.5,3486.8,669.3,483.7,870.5,1465.4,2247.6,467.1,2.0,-5.0,3.0,9832.0,12169.0,4143.0,2556.0,-7.0,-3.0,-4.0,3.0,-32.0,3.0,10908.0,11663.0,3425.0,1299.0,-3.0,-14.0,2.0,1.0
2022-05-08 14:25:16.908474-07:00,915.2,1106.0,1710.0,1409.4,695.4,503.6,1435.0,1139.2,3469.8,3472.2,1062.5,1010.8,416.8,3496.6,1240.8,1008.2,3477.1,3479.5,408.2,653.8,480.6,563.4,277.5,279.0,3481.9,3472.2,669.3,483.7,858.7,1450.6,2247.6,467.1,1.0,1.0,9.0,9829.0,12169.0,4147.0,2560.0,22.0,23.0,-1.0,6.0,-21.0,5.0,10907.0,11664.0,3425.0,1300.0,6.0,24.0,-1.0,1.0
2022-05-08 14:25:16.968500-07:00,910.1,1102.5,1710.0,1409.4,698.7,502.8,1435.0,1139.2,3474.6,3478.3,1062.5,1010.8,423.1,3496.6,1240.8,1008.2,3477.1,3479.5,404.3,658.7,480.6,563.4,279.0,276.0,3481.9,3472.2,670.9,486.1,858.7,1450.6,2233.2,465.6,0.0,-8.0,-5.0,9817.0,12175.0,4153.0,2563.0,21.0,11.0,15.0,3.0,-36.0,6.0,10902.0,11667.0,3430.0,1303.0,11.0,7.0,4.0,1.0
2022-05-08 14:25:16.998564-07:00,910.1,1102.5,1705.3,1407.6,698.7,502.8,1435.0,1140.1,3474.6,3478.3,1060.8,1010.8,423.1,3496.6,1229.3,1008.2,3477.1,3484.4,404.3,658.7,479.0,556.2,279.0,276.0,3479.5,3481.9,670.9,486.1,851.1,1458.9,2233.2,465.6,1.0,-1.0,-1.0,9815.0,12177.0,4154.0,2565.0,6.0,12.0,-4.0,1.0,-26.0,-2.0,10903.0,11665.0,3431.0,1304.0,-9.0,15.0,1.0,1.0
2022-05-08 14:25:17.088418-07:00,916.9,1097.3,1705.3,1407.6,691.3,502.8,1435.0,1140.1,3480.7,3474.6,1060.8,1010.8,420.8,3508.8,1229.3,1008.2,3477.1,3484.4,411.4,661.1,479.0,556.2,272.9,279.8,3479.5,3481.9,671.7,480.6,851.1,1458.9,2222.9,479.8,-6.0,-4.0,0.0,9806.0,12177.0,4166.0,2577.0,11.0,39.0,6.0,4.0,-28.0,11.0,10897.0,11669.0,3437.0,1310.0,20.0,19.0,8.0,1.0
2022-05-08 14:25:17.118167-07:00,916.9,1097.3,1702.4,1402.1,691.3,502.0,1428.6,1127.0,3480.7,3474.6,1063.4,1010.8,420.8,3500.2,1238.2,1000.5,3479.5,3479.5,409.8,661.1,478.2,557.0,272.9,279.8,3478.3,3472.2,671.7,480.6,851.1,1455.2,2222.9,479.8,-2.0,-10.0,-2.0,9803.0,12177.0,4168.0,2585.0,7.0,19.0,11.0,8.0,-35.0,2.0,10895.0,11670.0,3439.0,1311.0,3.0,13.0,8.0,1.0
2022-05-08 14:25:17.178166-07:00,909.3,1095.6,1696.7,1402.1,690.5,502.0,1428.6,1127.0,3478.3,3483.2,1056.5,1010.8,420.8,3500.2,1238.2,1000.5,3479.5,3479.5,409.8,661.1,478.2,557.0,276.7,273.7,3478.3,3472.2,671.7,479.8,851.1,1447.9,2222.9,464.8,-3.0,-3.0,-2.0,9797.0,12179.0,4173.0,2592.0,17.0,36.0,2.0,1.0,-31.0,0.0,10896.0,11668.0,3443.0,1318.0,4.0,13.0,7.0,1.0
2022-05-08 14:25:17.208805-07:00,909.3,1095.6,1696.7,1394.8,690.5,503.6,1436.0,1129.6,3478.3,3483.2,1056.5,1015.1,420.8,3505.1,1238.2,1002.2,3478.3,3480.7,411.4,661.1,477.4,557.0,276.7,273.7,3477.1,3481.9,668.4,479.8,847.8,1447.9,2222.9,464.8,-5.0,-15.0,2.0,9788.0,12180.0,4184.0,2602.0,13.0,38.0,7.0,10.0,-34.0,12.0,10891.0,11670.0,3448.0,1322.0,9.0,20.0,7.0,1.0
2022-05-08 14:25:17.268940-07:00,915.2,1094.7,1689.1,1394.8,697.0,503.6,1436.0,1129.6,3483.2,3481.9,1048.7,1015.1,423.1,3505.1,1238.2,1002.2,3478.3,3480.7,411.4,654.6,477.4,549.8,276.7,277.5,3477.1,3481.9,668.4,483.7,847.8,1448.8,2214.7,463.2,0.0,-11.0,-4.0,9779.0,12183.0,4191.0,2607.0,23.0,18.0,9.0,5.0,-34.0,9.0,10887.0,11671.0,3451.0,1330.0,7.0,25.0,13.0,1.0
2022-05-08 14:25:17.298640-07:00,915.2,1094.7,1689.1,1397.6,697.0,501.2,1437.8,1125.2,3483.2,3481.9,1048.7,1012.5,423.1,3499.0,1227.5,999.6,3484.4,3474.6,406.7,654.6,480.6,549.8,276.7,277.5,3480.7,3483.2,670.1,483.7,847.8,1448.8,2214.7,463.2,1.0,0.0,-5.0,9766.0,12195.0,4193.0,2603.0,42.0,-2.0,-2.0,3.0,-32.0,10.0,10885.0,11671.0,3456.0,1343.0,-6.0,27.0,9.0,1.0
2022-05-08 14:25:17.359396-07:00,917.7,1087.7,1685.3,1397.6,695.4,501.2,1437.8,1125.2,3472.2,3478.3,1055.6,1012.5,423.1,3499.0,1227.5,999.6,3484.4,3474.6,406.7,660.3,480.6,560.2,278.3,276.0,3480.7,3483.2,670.1,480.6,847.8,1446.0,2213.7,467.1,0.0,-13.0,-4.0,9762.0,12196.0,4195.0,2608.0,6.0,6.0,15.0,10.0,-33.0,14.0,10882.0,11672.0,3459.0,1346.0,0.0,-4.0,6.0,1.0
2022-05-08 14:25:17.418637-07:00,917.7,1087.7,1685.3,1396.7,695.4,499.6,1426.8,1126.1,3472.2,3478.3,1055.6,1009.0,422.3,3507.5,1224.8,999.6,3480.7,3478.3,410.6,655.4,478.2,560.2,278.3,276.0,3477.1,3477.1,665.2,479.8,852.0,1446.0,2213.7,467.1,0.0,-7.0,0.0,9760.0,12199.0,4190.0,2612.0,11.0,9.0,11.0,7.0,-31.0,4.0,10881.0,11673.0,3458.0,1351.0,-3.0,18.0,14.0,1.0
2022-05-08 14:25:17.448815-07:00,918.6,1089.5,1678.6,1393.0,695.4,499.6,1426.8,1126.1,3483.2,3478.3,1054.8,1000.5,422.3,3507.5,1224.8,999.6,3480.7,3478.3,410.6,655.4,480.6,556.2,272.9,272.9,3477.1,3477.1,665.2,479.8,843.6,1454.3,2205.5,464.0,6.0,-2.0,3.0,9754.0,12200.0,4195.0,2616.0,-3.0,36.0,0.0,10.0,-32.0,-4.0,10880.0,11672.0,3461.0,1356.0,4.0,20.0,4.0,1.0
2022-05-08 14:25:17.508514-07:00,918.6,1089.5,1678.6,1393.0,691.3,504.4,1447.9,1120.9,3483.2,3478.3,1054.8,1000.5,419.2,3502.7,1227.5,997.9,3478.3,3485.6,410.6,661.9,480.6,556.2,272.9,272.9,3481.9,3483.2,670.1,471.9,843.6,1454.3,2205.5,464.0,2.0,-7.0,-3.0,9752.0,12198.0,4202.0,2625.0,6.0,10.0,6.0,12.0,-28.0,1.0,10879.0,11672.0,3464.0,1359.0,5.0,-3.0,-3.0,1.0
2022-05-08 14:25:17.568818-07:00,919.4,1083.4,1671.9,1379.4,691.3,504.4,1447.9,1120.9,3477.1,3475.9,1047.8,997.0,419.2,3502.7,1227.5,997.9,3478.3,3485.6,410.6,661.9,477.4,562.6,272.9,268.3,3481.9,3483.2,670.1,471.9,838.6,1454.3,2207.5,466.4,1.0,-4.0,-9.0,9752.0,12199.0,4201.0,2624.0,5.0,-3.0,5.0,7.0,-30.0,-9.0,10880.0,11671.0,3464.0,1359.0,-9.0,-8.0,1.0,1.0
2022-05-08 14:25:17.598744-07:00,919.4,1083.4,1671.9,1379.4,693.8,500.4,1425.0,1123.5,3477.1,3475.9,1047.8,997.0,419.2,3491.7,1223.0,997.0,3475.9,3479.5,408.2,660.3,477.4,562.6,272.9,268.3,3477.1,3483.2,640.0,480.6,838.6,1454.3,2207.5,466.4,0.0,-4.0,1.0,9751.0,12199.0,4201.0,2624.0,13.0,-5.0,-6.0,14.0,-29.0,0.0,10881.0,11671.0,3463.0,1358.0,7.0,-9.0,-10.0,1.0
2022-05-08 14:25:17.658954-07:00,917.7,1079.0,1673.8,1386.6,693.8,500.4,1425.0,1123.5,3485.6,3475.9,1053.0,1008.2,419.2,3491.7,1223.0,997.0,3475.9,3479.5,408.2,660.3,483.0,558.6,275.2,275.2,3477.1,3483.2,640.0,480.6,838.6,1433.2,2202.4,464.0,6.0,1.0,0.0,9751.0,12198.0,4204.0,2624.0,6.0,12.0,-12.0,14.0,-28.0,-3.0,10881.0,11669.0,3466.0,1355.0,5.0,9.0,-15.0,1.0
2022-05-08 14:25:17.718422-07:00,916.0,1079.0,1673.8,1386.6,695.4,499.6,1426.8,1123.5,3475.9,3475.9,1053.0,1008.2,421.5,3502.7,1221.3,1002.2,3478.3,3477.1,408.2,658.7,483.0,558.6,275.2,271.4,3479.5,3479.5,679.1,475.8,838.6,1433.2,2202.4,464.0,2.0,-7.0,-3.0,9751.0,12197.0,4208.0,2622.0,1.0,8.0,-15.0,11.0,-30.0,0.0,10882.0,11668.0,3472.0,1350.0,0.0,-3.0,-18.0,1.0
2022-05-08 14:25:17.748998-07:00,916.0,1072.9,1672.9,1393.0,695.4,499.6,1426.8,1118.2,3475.9,3480.7,1047.0,1015.1,421.5,3502.7,1221.3,992.7,3477.1,3477.1,408.2,658.7,480.6,561.0,274.4,271.4,3490.5,3479.5,679.1,475.8,839.4,1439.6,2194.2,464.0,-3.0,-9.0,-2.0,9750.0,12194.0,4217.0,2624.0,4.0,14.0,-11.0,6.0,-34.0,10.0,10883.0,11666.0,3477.0,1345.0,6.0,1.0,-17.0,1.0
2022-05-08 14:25:17.808532-07:00,910.1,1072.9,1672.9,1393.0,691.3,501.2,1430.5,1118.2,3477.1,3480.7,1047.0,1015.1,416.8,3505.1,1225.7,992.7,3477.1,3481.9,413.7,660.3,480.6,561.0,274.4,272.9,3490.5,3483.2,666.0,475.0,839.4,1439.6,2194.2,460.0,3.0,-9.0,-4.0,9748.0,12195.0,4224.0,2619.0,13.0,-3.0,-15.0,10.0,-26.0,1.0,10883.0,11664.0,3485.0,1342.0,1.0,7.0,-16.0,1.0
2022-05-08 14:25:17.868276-07:00,910.1,1072.9,1676.7,1386.6,691.3,501.2,1430.5,1123.5,3477.1,3485.6,1050.4,1006.5,416.8,3505.1,1225.7,997.9,3481.9,3481.9,413.7,660.3,478.2,558.6,272.9,272.9,3479.5,3483.2,666.0,475.0,845.3,1451.6,2199.3,460.0,0.0,-4.0,1.0,9747.0,12193.0,4231.0,2619.0,-7.0,12.0,-6.0,10.0,-30.0,10.0,10883.0,11663.0,3489.0,1340.0,-2.0,-6.0,-8.0,1.0
2022-05-08 14:25:17.898952-07:00,913.5,1072.9,1676.7,1386.6,690.5,499.6,1446.0,1123.5,3478.3,3485.6,1050.4,1006.5,421.5,3507.5,1222.2,997.9,3481.9,3488.0,407.5,656.2,478.2,558.6,272.9,276.7,3479.5,3483.2,666.0,473.5,845.3,1451.6,2199.3,460.8,0.0,6.0,-2.0,9746.0,12193.0,4233.0,2622.0,1.0,10.0,-11.0,4.0,-30.0,4.0,10883.0,11663.0,3490.0,1338.0,1.0,6.0,-16.0,1.0
2022-05-08 14:25:17.958838-07:00,913.5,1077.3,1665.3,1384.8,690.5,499.6,1446.0,1120.9,3478.3,3480.7,1049.6,1001.3,421.5,3507.5,1222.2,997.0,3477.1,3488.0,407.5,656.2,479.8,557.0,275.2,276.7,3481.9,3483.2,666.0,473.5,832.7,1441.5,2190.1,460.8,5.0,-9.0,-3.0,9744.0,12193.0,4239.0,2617.0,11.0,8.0,-13.0,13.0,-33.0,-2.0,10884.0,11661.0,3495.0,1334.0,-4.0,6.0,-10.0,1.0
2022-05-08 14:25:18.018289-07:00,911.8,1076.4,1665.3,1384.8,693.8,502.8,1425.9,1120.9,3479.5,3483.2,1049.6,1001.3,421.5,3507.5,1223.9,997.0,3477.1,3472.2,411.4,658.7,479.8,557.0,271.4,272.9,3481.9,3477.1,661.1,474.3,832.7,1441.5,2194.2,465.6,5.0,-3.0,2.0,9745.0,12193.0,4239.0,2615.0,-13.0,-4.0,4.0,8.0,-33.0,-7.0,10884.0,11661.0,3494.0,1331.0,-8.0,-7.0,-1.0,1.0
2022-05-08 14:25:18.048609-07:00,911.8,1076.4,1663.4,1384.8,693.8,502.8,1424.1,1117.4,3479.5,3483.2,1045.2,999.6,421.5,3507.5,1219.5,996.2,3480.7,3477.1,411.4,658.7,480.6,554.6,271.4,272.9,3479.5,3480.7,661.1,474.3,838.6,1436.0,2194.2,465.6,0.0,-1.0,1.0,9745.0,12192.0,4240.0,2617.0,-2.0,10.0,-6.0,9.0,-27.0,7.0,10884.0,11661.0,3494.0,1330.0,-9.0,2.0,-6.0,1.0
2022-05-08 14:25:18.138435-07:00,910.1,1069.5,1663.4,1384.8,688.0,498.0,1424.1,1117.4,3488.0,3478.3,1045.2,999.6,421.5,3500.2,1219.5,996.2,3480.7,3477.1,406.7,660.3,480.6,554.6,273.7,269.1,3479.5,3480.7,670.1,477.4,838.6,1436.0,2184.0,467.1,6.0,-3.0,-4.0,9745.0,12192.0,4240.0,2617.0,-3.0,-3.0,-6.0,14.0,-26.0,3.0,10885.0,11661.0,3495.0,1329.0,-3.0,-5.0,-10.0,1.0
2022-05-08 14:25:18.198438-07:00,910.1,1069.5,1661.5,1379.4,688.0,498.0,1420.4,1115.6,3488.0,3478.3,1036.6,1006.5,421.5,3500.2,1218.6,996.2,3477.1,3481.9,406.7,660.3,482.2,557.8,273.7,269.1,3480.7,3480.7,670.1,477.4,832.7,1431.4,2184.0,467.1,0.0,-7.0,0.0,9745.0,12192.0,4240.0,2617.0,-2.0,-2.0,-5.0,7.0,-31.0,-1.0,10886.0,11660.0,3497.0,1327.0,-10.0,7.0,-3.0,1.0
2022-05-08 14:25:18.199725-07:00,909.3,1072.9,1661.5,1379.4,687.2,498.0,1420.4,1115.6,3478.3,3472.2,1036.6,1006.5,420.8,3497.8,1218.6,996.2,3477.1,3481.9,409.8,657.0,482.2,557.8,273.7,271.4,3480.7,3480.7,667.6,468.7,832.7,1431.4,2179.9,456.1,-3.0,-3.0,-1.0,9745.0,12192.0,4240.0,2617.0,-8.0,1.0,5.0,4.0,-30.0,6.0,10886.0,11659.0,3497.0,1327.0,-7.0,-7.0,1.0,1.0
2022-05-08 14:25:18.288344-07:00,909.3,1072.9,1662.5,1383.9,687.2,498.0,1423.1,1111.2,3478.3,3472.2,1046.1,1009.9,420.8,3497.8,1216.0,993.6,3480.7,3480.7,409.8,657.0,480.6,561.0,273.7,271.4,3480.7,3483.2,667.6,468.7,832.7,1438.7,2179.9,456.1,5.0,-3.0,-3.0,9746.0,12192.0,4239.0,2615.0,-1.0,-20.0,-5.0,13.0,-22.0,-3.0,10888.0,11658.0,3495.0,1324.0,-12.0,-14.0,-11.0,1.0
2022-05-08 14:25:18.318409-07:00,905.0,1072.9,1653.0,1383.9,690.5,494.0,1423.1,1111.2,3483.2,3471.0,1042.6,1009.9,421.5,3507.5,1216.0,993.6,3480.7,3480.7,411.4,659.5,480.6,559.4,270.6,273.7,3480.7,3483.2,665.2,471.1,832.7,1432.3,2178.9,464.8,-3.0,-10.0,-1.0,9747.0,12193.0,4236.0,2612.0,-3.0,0.0,1.0,5.0,-26.0,10.0,10889.0,11658.0,3495.0,1323.0,-1.0,0.0,2.0,1.0
2022-05-08 14:25:18.348883-07:00,905.0,1072.9,1653.0,1383.0,690.5,501.2,1424.1,1117.4,3483.2,3471.0,1042.6,1003.9,421.5,3496.6,1213.3,989.3,3477.1,3484.4,411.4,659.5,479.8,559.4,270.6,273.7,3483.2,3484.4,666.0,471.1,830.2,1432.3,2178.9,464.8,4.0,5.0,2.0,9747.0,12193.0,4236.0,2612.0,1.0,6.0,-1.0,13.0,-26.0,3.0,10889.0,11658.0,3493.0,1322.0,-2.0,-3.0,-4.0,1.0
2022-05-08 14:25:18.408354-07:00,915.2,1086.0,1654.9,1383.0,686.4,501.2,1424.1,1117.4,3472.2,3474.6,1042.6,1003.9,420.8,3496.6,1213.3,989.3,3477.1,3484.4,411.4,656.2,479.8,560.2,266.8,276.7,3483.2,3484.4,666.0,470.3,830.2,1431.4,2172.8,459.3,5.0,-4.0,-4.0,9747.0,12193.0,4236.0,2612.0,-3.0,2.0,-7.0,13.0,-29.0,-6.0,10889.0,11658.0,3493.0,1321.0,1.0,-1.0,-6.0,1.0
2022-05-08 14:25:18.468724-07:00,915.2,1086.0,1654.9,1378.5,686.4,499.6,1417.6,1111.2,3472.2,3474.6,1042.6,1007.3,420.8,3492.9,1216.8,994.5,3474.6,3479.5,412.1,656.2,481.4,560.2,266.8,276.7,3478.3,3477.1,666.0,470.3,830.2,1431.4,2172.8,459.3,0.0,-7.0,4.0,9746.0,12193.0,4237.0,2614.0,-7.0,9.0,2.0,10.0,-34.0,11.0,10889.0,11658.0,3493.0,1321.0,-5.0,4.0,2.0,1.0
2022-05-08 14:25:18.498672-07:00,910.1,1069.5,1649.2,1378.5,679.1,499.6,1417.6,1111.2,3469.8,3478.3,1043.5,1007.3,420.8,3492.9,1216.8,994.5,3474.6,3479.5,412.1,660.3,481.4,557.8,272.1,271.4,3478.3,3477.1,666.0,471.9,830.2,1430.5,2178.9,464.8,-1.0,0.0,-3.0,9745.0,12194.0,4236.0,2614.0,-5.0,8.0,-2.0,4.0,-26.0,-2.0,10889.0,11658.0,3493.0,1321.0,-5.0,9.0,-2.0,1.0
2022-05-08 14:25:18.558073-07:00,910.1,1069.5,1649.2,1383.0,679.1,494.8,1417.6,1111.2,3469.8,3478.3,1043.5,1006.5,420.8,3496.6,1211.5,991.0,3484.4,3484.4,417.6,660.3,479.8,557.8,272.1,271.4,3475.9,3480.7,664.4,471.9,831.1,1430.5,2178.9,464.8,0.0,-5.0,-4.0,9744.0,12193.0,4239.0,2618.0,-6.0,11.0,-4.0,12.0,-32.0,-3.0,10889.0,11658.0,3493.0,1321.0,-2.0,5.0,-5.0,1.0
2022-05-08 14:25:18.618911-07:00,905.9,1080.8,1653.0,1373.9,690.5,494.8,1417.6,1111.2,3471.0,3467.4,1039.2,1000.5,416.8,3496.6,1211.5,991.0,3484.4,3484.4,417.6,660.3,477.4,559.4,266.0,269.1,3475.9,3480.7,664.4,470.3,831.9,1430.5,2180.9,460.8,4.0,-8.0,2.0,9742.0,12194.0,4240.0,2617.0,9.0,-2.0,-1.0,14.0,-27.0,-1.0,10889.0,11658.0,3493.0,1321.0,-3.0,-3.0,-4.0,1.0
2022-05-08 14:25:18.648524-07:00,905.9,1080.8,1653.0,1373.9,685.6,497.2,1426.8,1114.7,3471.0,3467.4,1039.2,1000.5,415.3,3486.8,1213.3,990.2,3484.4,3479.5,406.7,659.5,477.4,559.4,266.0,269.1,3477.1,3480.7,668.4,471.1,831.9,1430.5,2180.9,460.8,0.0,-5.0,-2.0,9744.0,12193.0,4240.0,2618.0,2.0,-2.0,3.0,9.0,-28.0,8.0,10891.0,11656.0,3492.0,1322.0,9.0,-3.0,1.0,1.0
2022-05-08 14:25:18.708425-07:00,902.5,1070.3,1638.8,1371.2,685.6,497.2,1426.8,1114.7,3468.6,3472.2,1035.7,1001.3,415.3,3486.8,1213.3,990.2,3484.4,3479.5,406.7,659.5,481.4,558.6,275.2,268.3,3477.1,3480.7,668.4,471.1,829.4,1422.2,2169.7,459.3,1.0,-11.0,-1.0,9742.0,12194.0,4241.0,2617.0,2.0,3.0,-2.0,13.0,-33.0,-1.0,10890.0,11658.0,3492.0,1321.0,2.0,-8.0,-6.0,1.0
2022-05-08 14:25:18.768906-07:00,902.5,1070.3,1638.8,1371.2,684.8,495.6,1420.4,1116.5,3468.6,3472.2,1035.7,1001.3,422.3,3496.6,1211.5,990.2,3483.2,3484.4,410.6,659.5,481.4,558.6,275.2,268.3,3483.2,3488.0,664.4,474.3,829.4,1422.2,2169.7,459.3,-3.0,-8.0,2.0,9744.0,12193.0,4240.0,2618.0,-5.0,-2.0,3.0,10.0,-34.0,11.0,10891.0,11657.0,3492.0,1321.0,-2.0,2.0,5.0,1.0
2022-05-08 14:25:18.798585-07:00,900.8,1065.1,1652.0,1376.6,684.8,495.6,1420.4,1116.5,3471.0,3488.0,1031.4,1005.6,422.3,3496.6,1211.5,990.2,3483.2,3484.4,410.6,659.5,479.8,557.0,274.4,267.6,3483.2,3488.0,664.4,474.3,828.5,1428.6,2160.5,459.3,-2.0,-1.0,-1.0,9741.0,12195.0,4241.0,2617.0,-3.0,3.0,-6.0,8.0,-27.0,10.0,10891.0,11657.0,3492.0,1321.0,0.0,0.0,-4.0,1.0
2022-05-08 14:25:18.858194-07:00,900.8,1065.1,1652.0,1376.6,695.4,495.6,1415.8,1113.0,3471.0,3488.0,1031.4,1005.6,419.2,3503.9,1210.6,994.5,3472.2,3478.3,411.4,656.2,479.8,557.0,274.4,267.6,3477.1,3477.1,675.0,469.5,828.5,1428.6,2160.5,459.3,5.0,-10.0,-6.0,9741.0,12195.0,4240.0,2616.0,-8.0,-12.0,-3.0,14.0,-31.0,0.0,10892.0,11657.0,3490.0,1318.0,-6.0,-12.0,-8.0,1.0
2022-05-08 14:25:18.918606-07:00,905.0,1061.7,1638.8,1367.6,695.4,495.6,1415.8,1106.9,3480.7,3475.9,1036.6,998.7,419.2,3503.9,1210.6,986.7,3471.0,3478.3,411.4,656.2,479.0,558.6,268.3,269.9,3488.0,3477.1,675.0,469.5,828.5,1426.8,2168.7,463.2,1.0,-9.0,6.0,9742.0,12196.0,4237.0,2613.0,-4.0,-3.0,1.0,10.0,-35.0,0.0,10893.0,11656.0,3489.0,1317.0,-10.0,-2.0,0.0,1.0
2022-05-08 14:25:19.008554-07:00,893.2,1061.7,1638.8,1367.6,687.2,500.4,1414.9,1106.9,3480.7,3475.9,1036.6,998.7,418.4,3496.6,1211.5,986.7,3471.0,3472.2,413.7,657.0,479.0,558.6,268.3,268.3,3488.0,3485.6,666.8,470.3,828.5,1426.8,2168.7,461.6,0.0,-4.0,-1.0,9742.0,12196.0,4237.0,2613.0,-2.0,4.0,5.0,8.0,-31.0,-1.0,10893.0,11656.0,3489.0,1317.0,3.0,-5.0,-2.0,1.0
2022-05-08 14:25:19.009716-07:00,893.2,1062.5,1648.3,1367.6,687.2,500.4,1414.9,1111.2,3480.7,3477.1,1033.2,1001.3,418.4,3496.6,1211.5,990.2,3486.8,3472.2,413.7,657.0,479.8,554.6,267.6,268.3,3477.1,3485.6,666.8,470.3,824.4,1427.7,2162.6,461.6,11.0,-1.0,1.0,9742.0,12196.0,4237.0,2613.0,2.0,3.0,-11.0,18.0,-26.0,5.0,10893.0,11656.0,3489.0,1316.0,-4.0,1.0,-9.0,1.0
2022-05-08 14:25:19.068372-07:00,894.9,1062.5,1648.3,1367.6,687.2,496.4,1418.6,1111.2,3467.4,3477.1,1033.2,1001.3,416.8,3500.2,1214.2,990.2,3486.8,3478.3,411.4,656.2,479.8,554.6,267.6,277.5,3477.1,3472.2,661.9,480.6,824.4,1427.7,2162.6,471.1,-1.0,-10.0,5.0,9742.0,12195.0,4242.0,2613.0,3.0,13.0,-1.0,7.0,-30.0,10.0,10893.0,11656.0,3490.0,1318.0,4.0,0.0,0.0,1.0
2022-05-08 14:25:19.099017-07:00,894.9,1067.7,1636.0,1368.5,687.2,496.4,1418.6,1109.5,3467.4,3477.1,1036.6,1004.8,416.8,3500.2,1214.2,990.2,3488.0,3478.3,411.4,656.2,482.2,557.0,271.4,277.5,3471.0,3472.2,661.9,480.6,822.7,1417.6,2162.6,471.1,4.0,-5.0,-6.0,9741.0,12194.0,4243.0,2616.0,5.0,1.0,9.0,10.0,-31.0,-1.0,10892.0,11657.0,3490.0,1318.0,6.0,-5.0,1.0,1.0
2022-05-08 14:25:19.158639-07:00,891.5,1067.7,1636.0,1368.5,687.2,498.0,1426.8,1109.5,3474.6,3477.1,1036.6,1004.8,416.8,3503.9,1208.0,990.2,3488.0,3477.1,408.2,656.2,482.2,557.0,271.4,273.7,3471.0,3488.0,662.7,467.9,822.7,1417.6,2162.6,464.0,3.0,-1.0,-1.0,9741.0,12194.0,4244.0,2615.0,3.0,-3.0,-11.0,12.0,-24.0,-1.0,10892.0,11657.0,3491.0,1317.0,0.0,4.0,-10.0,1.0
2022-05-08 14:25:19.218647-07:00,891.5,1059.9,1640.7,1389.4,687.2,498.0,1417.6,1108.6,3474.6,3471.0,1032.3,1009.9,416.8,3503.9,1208.0,986.7,3475.9,3480.7,408.2,656.2,478.2,563.4,269.1,273.7,3483.2,3472.2,662.7,467.9,826.0,1425.0,2160.5,464.0,-1.0,-9.0,3.0,9742.0,12193.0,4246.0,2614.0,9.0,1.0,-5.0,8.0,-31.0,8.0,10893.0,11656.0,3494.0,1314.0,12.0,-3.0,-10.0,1.0
2022-05-08 14:25:19.248571-07:00,893.2,1055.6,1640.7,1389.4,687.2,496.4,1417.6,1108.6,3467.4,3472.2,1032.3,1009.9,419.2,3491.7,1208.0,986.7,3475.9,3480.7,409.8,657.0,478.2,563.4,272.9,269.9,3483.2,3472.2,661.1,467.1,826.0,1425.0,2161.6,461.6,0.0,0.0,-4.0,9740.0,12193.0,4249.0,2617.0,11.0,5.0,2.0,12.0,-30.0,7.0,10891.0,11657.0,3495.0,1313.0,7.0,9.0,-5.0,1.0
2022-05-08 14:25:19.308825-07:00,893.2,1055.6,1628.4,1369.4,687.2,496.4,1416.7,1104.3,3467.4,3472.2,1033.2,1000.5,419.2,3491.7,1207.1,987.6,3478.3,3477.1,409.8,657.0,478.2,556.2,272.9,269.9,3471.0,3479.5,661.1,467.1,824.4,1414.9,2161.6,461.6,0.0,-7.0,-7.0,9738.0,12194.0,4250.0,2616.0,3.0,-6.0,-1.0,9.0,-26.0,-3.0,10891.0,11656.0,3497.0,1314.0,-3.0,-6.0,-5.0,1.0
2022-05-08 14:25:19.368824-07:00,894.9,1059.9,1628.4,1369.4,688.0,494.8,1416.7,1104.3,3475.9,3480.7,1033.2,1000.5,416.8,3494.1,1207.1,987.6,3478.3,3477.1,412.1,652.2,478.2,556.2,270.6,268.3,3471.0,3479.5,661.9,467.1,824.4,1414.9,2152.4,461.6,-1.0,0.0,0.0,9738.0,12194.0,4250.0,2617.0,3.0,10.0,-2.0,7.0,-23.0,6.0,10891.0,11656.0,3497.0,1314.0,1.0,-3.0,-5.0,1.0
2022-05-08 14:25:19.399595-07:00,894.9,1059.9,1637.9,1358.5,688.0,494.8,1418.6,1106.9,3475.9,3480.7,1029.7,1003.0,416.8,3494.1,1205.3,988.5,3467.4,3477.1,412.1,652.2,479.0,559.4,270.6,268.3,3478.3,3479.5,661.9,467.1,825.2,1423.1,2152.4,461.6,0.0,-9.0,4.0,9738.0,12194.0,4250.0,2617.0,9.0,3.0,0.0,10.0,-32.0,1.0,10891.0,11656.0,3497.0,1314.0,6.0,-1.0,-4.0,1.0
2022-05-08 14:25:19.489467-07:00,904.2,1055.6,1637.9,1358.5,687.2,498.8,1418.6,1106.9,3473.4,3478.3,1029.7,1003.0,423.1,3496.6,1205.3,988.5,3467.4,3477.1,411.4,654.6,479.0,559.4,270.6,272.1,3478.3,3479.5,665.2,470.3,825.2,1423.1,2157.5,475.8,2.0,-5.0,-4.0,9738.0,12194.0,4250.0,2617.0,4.0,1.0,0.0,11.0,-26.0,0.0,10891.0,11656.0,3497.0,1314.0,-1.0,5.0,1.0,1.0
2022-05-08 14:25:19.490391-07:00,904.2,1055.6,1629.4,1368.5,687.2,498.8,1411.3,1099.0,3473.4,3478.3,1021.1,997.0,423.1,3496.6,1200.9,986.7,3474.6,3483.2,411.4,654.6,485.3,557.8,270.6,272.1,3480.7,3472.2,665.2,470.3,829.4,1426.8,2157.5,475.8,-3.0,0.0,-1.0,9738.0,12194.0,4250.0,2617.0,-2.0,9.0,2.0,6.0,-27.0,5.0,10891.0,11656.0,3497.0,1314.0,-3.0,3.0,4.0,1.0
2022-05-08 14:25:19.579155-07:00,895.7,1055.6,1636.9,1368.5,679.1,496.4,1411.3,1099.0,3468.6,3474.6,1032.3,997.0,420.0,3492.9,1200.9,986.7,3474.6,3483.2,409.8,657.9,485.3,557.0,268.3,271.4,3480.7,3472.2,659.5,468.7,829.4,1419.5,2156.5,460.8,5.0,0.0,-3.0,9738.0,12193.0,4251.0,2619.0,1.0,-9.0,0.0,21.0,-28.0,-1.0,10891.0,11656.0,3497.0,1314.0,2.0,-6.0,-8.0,1.0
2022-05-08 14:25:19.638653-07:00,895.7,1055.6,1636.9,1370.3,679.1,498.0,1417.6,1108.6,3468.6,3474.6,1032.3,1002.2,420.0,3499.0,1201.8,989.3,3474.6,3478.3,408.2,657.9,479.8,557.0,268.3,271.4,3486.8,3483.2,657.9,468.7,826.9,1419.5,2156.5,460.8,5.0,-9.0,1.0,9740.0,12193.0,4250.0,2615.0,-2.0,-1.0,-2.0,11.0,-31.0,-3.0,10891.0,11656.0,3498.0,1312.0,-5.0,-8.0,-6.0,1.0
2022-05-08 14:25:19.639772-07:00,888.2,1059.9,1644.5,1370.3,685.6,498.0,1417.6,1108.6,3472.2,3475.9,1027.1,1002.2,415.3,3499.0,1201.8,989.3,3474.6,3478.3,408.2,659.5,479.8,556.2,270.6,267.6,3486.8,3483.2,657.9,467.9,826.9,1420.4,2165.6,457.7,-2.0,-1.0,1.0,9739.0,12193.0,4250.0,2616.0,0.0,7.0,4.0,5.0,-27.0,9.0,10892.0,11655.0,3498.0,1312.0,-2.0,5.0,0.0,1.0
2022-05-08 14:25:19.728670-07:00,888.2,1059.9,1644.5,1360.3,685.6,495.6,1413.1,1104.3,3472.2,3475.9,1027.1,1004.8,415.3,3495.3,1207.1,986.7,3478.3,3477.1,409.0,659.5,481.4,556.2,270.6,267.6,3480.7,3477.1,660.3,467.9,824.4,1420.4,2165.6,457.7,4.0,0.0,-7.0,9739.0,12193.0,4250.0,2616.0,6.0,3.0,-13.0,12.0,-26.0,0.0,10892.0,11655.0,3498.0,1312.0,2.0,7.0,-10.0,1.0
2022-05-08 14:25:19.788765-07:00,895.7,1060.8,1621.8,1360.3,687.2,495.6,1413.1,1104.3,3468.6,3466.1,1028.8,1004.8,418.4,3495.3,1207.1,986.7,3478.3,3477.1,409.0,658.7,481.4,558.6,266.8,264.5,3480.7,3477.1,660.3,467.1,824.4,1418.6,2147.3,461.6,-2.0,-12.0,0.0,9739.0,12193.0,4254.0,2614.0,-4.0,8.0,0.0,7.0,-31.0,7.0,10892.0,11655.0,3500.0,1310.0,-7.0,2.0,-2.0,1.0
2022-05-08 14:25:19.790143-07:00,895.7,1060.8,1621.8,1358.5,687.2,492.5,1419.5,1100.8,3468.6,3466.1,1028.8,996.2,418.4,3503.9,1195.6,991.0,3477.1,3472.2,408.2,658.7,478.2,558.6,266.8,264.5,3472.2,3475.9,662.7,467.1,821.0,1418.6,2147.3,461.6,3.0,-4.0,0.0,9739.0,12193.0,4252.0,2615.0,-1.0,5.0,12.0,13.0,-25.0,1.0,10892.0,11655.0,3500.0,1310.0,-4.0,-9.0,6.0,1.0
2022-05-08 14:25:19.878607-07:00,906.7,1059.9,1628.4,1368.5,687.2,492.5,1419.5,1100.8,3475.9,3474.6,1023.7,1003.0,419.2,3503.9,1195.6,991.0,3477.1,3472.2,408.2,660.3,476.6,556.2,269.1,267.6,3472.2,3475.9,662.7,464.0,825.2,1419.5,2151.4,461.6,3.0,-5.0,0.0,9738.0,12193.0,4251.0,2618.0,-9.0,16.0,0.0,17.0,-29.0,6.0,10892.0,11655.0,3499.0,1309.0,-3.0,-7.0,-4.0,1.0
2022-05-08 14:25:19.968935-07:00,906.7,1059.9,1628.4,1368.5,692.1,491.7,1411.3,1100.8,3475.9,3474.6,1023.7,1003.0,417.6,3501.4,1200.9,987.6,3488.0,3478.3,412.1,654.6,476.6,556.2,269.1,267.6,3478.3,3477.1,661.1,467.9,825.2,1419.5,2151.4,461.6,0.0,-8.0,-2.0,9736.0,12192.0,4256.0,2623.0,13.0,17.0,-2.0,15.0,-35.0,5.0,10892.0,11655.0,3500.0,1310.0,-2.0,14.0,-3.0,1.0
2022-05-08 14:25:19.970593-07:00,896.6,1061.7,1642.6,1373.9,692.1,491.7,1411.3,1100.8,3479.5,3478.3,1026.3,1000.5,417.6,3501.4,1200.9,987.6,3488.0,3478.3,412.1,654.6,480.6,556.2,267.6,273.7,3478.3,3477.1,661.1,467.9,827.7,1427.7,2155.5,461.6,9.0,0.0,7.0,9726.0,12197.0,4262.0,2626.0,17.0,32.0,-4.0,9.0,-23.0,1.0,10890.0,11654.0,3505.0,1316.0,-8.0,14.0,-1.0,1.0
2022-05-08 14:25:20.028684-07:00,896.6,1061.7,1642.6,1373.9,689.7,499.6,1418.6,1112.1,3479.5,3478.3,1026.3,1000.5,419.2,3495.3,1221.3,990.2,3475.9,3475.9,414.5,654.6,480.6,556.2,267.6,273.7,3484.4,3474.6,663.6,470.3,827.7,1427.7,2155.5,461.6,8.0,-5.0,3.0,9717.0,12196.0,4280.0,2637.0,20.0,82.0,-27.0,16.0,-37.0,6.0,10892.0,11650.0,3513.0,1325.0,-10.0,36.0,2.0,1.0
2022-05-08 14:25:20.088649-07:00,919.4,1085.1,1674.8,1386.6,689.7,499.6,1418.6,1112.1,3472.2,3477.1,1044.4,1000.5,419.2,3495.3,1221.3,990.2,3475.9,3475.9,414.5,654.6,477.4,557.8,272.9,266.8,3484.4,3474.6,663.6,470.3,828.5,1446.0,2261.0,462.4,-5.0,-36.0,-11.0,9695.0,12199.0,4312.0,2653.0,62.0,75.0,14.0,10.0,-17.0,6.0,10892.0,11644.0,3523.0,1340.0,-12.0,27.0,8.0,1.0
2022-05-08 14:25:20.118222-07:00,919.4,1085.1,1674.8,1386.6,688.9,496.4,1421.3,1104.3,3472.2,3477.1,1044.4,1000.5,414.5,3507.5,1305.2,991.0,3483.2,3485.6,405.1,654.6,477.4,557.8,272.9,266.8,3478.3,3484.4,665.2,474.3,828.5,1446.0,2261.0,462.4,4.0,3.0,-15.0,9670.0,12212.0,4320.0,2672.0,-10.0,29.0,4.0,11.0,-14.0,7.0,10896.0,11643.0,3513.0,1347.0,-30.0,3.0,26.0,1.0
2022-05-08 14:25:20.148898-07:00,925.4,1075.6,1712.9,1416.7,688.9,496.4,1421.3,1093.8,3473.4,3478.3,1063.4,997.9,414.5,3507.5,1305.2,987.6,3490.5,3485.6,405.1,654.6,480.6,555.4,269.9,272.9,3488.0,3484.4,665.2,474.3,824.4,1432.3,2440.9,461.6,0.0,-10.0,2.0,9666.0,12214.0,4319.0,2677.0,26.0,3.0,40.0,14.0,-30.0,8.0,10899.0,11643.0,3502.0,1355.0,-8.0,-3.0,33.0,1.0
2022-05-08 14:25:20.208591-07:00,928.8,1075.6,1712.9,1416.7,684.0,497.2,1418.6,1093.8,3479.5,3478.3,1063.4,997.9,416.8,3492.9,1414.9,987.6,3490.5,3472.2,407.5,659.5,480.6,555.4,269.9,272.1,3488.0,3478.3,655.4,483.7,824.4,1432.3,2440.9,460.0,0.0,-4.0,-19.0,9653.0,12236.0,4283.0,2679.0,21.0,-123.0,137.0,14.0,-34.0,0.0,10899.0,11648.0,3481.0,1360.0,11.0,-41.0,49.0,1.0
2022-05-08 14:25:20.238834-07:00,928.8,1070.3,1755.0,1445.1,684.0,497.2,1418.6,1089.5,3479.5,3477.1,1070.3,985.9,416.8,3492.9,1414.9,984.2,3478.3,3472.2,407.5,659.5,479.0,551.4,271.4,272.1,3478.3,3478.3,655.4,483.7,825.2,1438.7,2504.7,460.0,22.0,0.0,-1.0,9655.0,12261.0,4218.0,2663.0,9.0,-118.0,70.0,24.0,-21.0,-3.0,10899.0,11654.0,3458.0,1366.0,-7.0,-15.0,50.0,1.0
2022-05-08 14:25:20.299006-07:00,939.0,1070.3,1755.0,1445.1,685.6,503.6,1414.9,1089.5,3473.4,3477.1,1070.3,985.9,418.4,3502.7,1522.7,984.2,3478.3,3478.3,405.9,659.5,479.0,551.4,271.4,270.6,3478.3,3479.5,656.2,501.2,825.2,1438.7,2504.7,456.9,6.0,-11.0,0.0,9657.0,12273.0,4180.0,2659.0,3.0,-35.0,47.0,22.0,-26.0,23.0,10901.0,11654.0,3442.0,1397.0,-25.0,58.0,80.0,1.0
2022-05-08 14:25:20.418874-07:00,939.0,1055.6,1845.0,1474.6,685.6,503.6,1414.9,1084.2,3473.4,3478.3,1086.8,984.2,418.4,3502.7,1522.7,979.0,3480.7,3478.3,405.9,659.5,480.6,556.2,270.6,270.6,3472.2,3479.5,656.2,501.2,841.1,1456.2,2536.8,456.9,14.0,-4.0,-4.0,9653.0,12293.0,4143.0,2641.0,71.0,-118.0,32.0,26.0,-35.0,-14.0,10894.0,11658.0,3435.0,1429.0,81.0,71.0,73.0,1.0
2022-05-08 14:25:20.420173-07:00,954.3,1055.6,1845.0,1474.6,688.0,520.3,1418.6,1084.2,3472.2,3478.3,1086.8,984.2,416.8,3496.6,1647.3,979.0,3480.7,3480.7,409.8,653.0,480.6,556.2,270.6,277.5,3472.2,3485.6,662.7,546.6,841.1,1456.2,2536.8,460.0,-28.0,0.0,34.0,9605.0,12337.0,4147.0,2603.0,168.0,1.0,-27.0,0.0,-22.0,18.0,10861.0,11682.0,3442.0,1465.0,35.0,58.0,36.0,1.0
2022-05-08 14:25:20.449013-07:00,954.3,1056.5,1891.8,1464.4,688.0,520.3,1418.6,1068.6,3472.2,3474.6,1073.8,980.7,416.8,3496.6,1639.8,973.1,3469.8,3483.2,409.8,653.0,478.2,557.0,279.0,277.5,3478.3,3485.6,662.7,546.6,826.9,1449.7,2489.8,460.0,7.0,12.0,0.0,9577.0,12360.0,4152.0,2589.0,91.0,4.0,7.0,19.0,-29.0,-6.0,10849.0,11691.0,3443.0,1484.0,23.0,28.0,22.0,1.0
2022-05-08 14:25:20.538913-07:00,956.8,1052.2,1891.8,1464.4,684.0,535.4,1418.6,1068.6,3475.9,3472.2,1073.8,980.7,412.9,3503.9,1639.8,973.1,3469.8,3483.2,404.3,652.2,478.2,557.0,282.9,283.6,3478.3,3485.6,661.9,569.0,826.9,1449.7,2396.6,461.6,2.0,9.0,-5.0,9540.0,12385.0,4171.0,2579.0,127.0,2.0,-37.0,18.0,-14.0,5.0,10838.0,11698.0,3449.0,1497.0,25.0,33.0,4.0,1.0
2022-05-08 14:25:20.540609-07:00,956.8,1052.2,1880.1,1429.5,684.0,535.4,1414.0,1050.4,3475.9,3472.2,1060.8,981.6,412.9,3503.9,1559.0,969.6,3478.3,3478.3,404.3,652.2,479.8,545.0,282.9,283.6,3477.1,3474.6,661.9,569.0,823.5,1423.1,2396.6,461.6,0.0,-2.0,5.0,9509.0,12408.0,4184.0,2560.0,106.0,-13.0,-9.0,15.0,-26.0,1.0,10826.0,11705.0,3458.0,1507.0,37.0,34.0,0.0,1.0
2022-05-08 14:25:20.599231-07:00,943.2,1051.3,1880.1,1429.5,684.8,538.6,1414.0,1050.4,3471.0,3466.1,1060.8,981.6,415.3,3501.4,1559.0,969.6,3478.3,3478.3,408.2,660.3,479.8,545.0,287.5,279.8,3477.1,3474.6,655.4,572.2,823.5,1423.1,2307.7,460.8,20.0,16.0,-4.0,9483.0,12422.0,4206.0,2551.0,101.0,32.0,-66.0,26.0,-27.0,0.0,10810.0,11715.0,3470.0,1517.0,61.0,51.0,6.0,1.0
2022-05-08 14:25:20.689095-07:00,943.2,1051.3,1881.1,1413.1,684.8,538.6,1412.2,1040.1,3471.0,3466.1,1048.7,976.5,415.3,3501.4,1507.8,965.4,3483.2,3472.2,408.2,660.3,481.4,551.4,287.5,279.8,3480.7,3479.5,655.4,572.2,826.0,1409.4,2307.7,460.8,-8.0,-19.0,16.0,9435.0,12441.0,4271.0,2529.0,202.0,85.0,-122.0,12.0,-36.0,9.0,10781.0,11737.0,3484.0,1524.0,57.0,80.0,0.0,1.0
2022-05-08 14:25:20.690232-07:00,946.6,1058.2,1881.1,1413.1,686.4,541.0,1412.2,1040.1,3479.5,3485.6,1048.7,976.5,430.2,3497.8,1507.8,965.4,3483.2,3472.2,409.0,655.4,481.4,551.4,285.9,288.2,3480.7,3479.5,659.5,606.8,826.0,1409.4,2217.8,462.4,12.0,-15.0,-12.0,9367.0,12471.0,4336.0,2522.0,108.0,116.0,-69.0,-6.0,-42.0,-1.0,10745.0,11759.0,3509.0,1542.0,131.0,22.0,7.0,1.0
2022-05-08 14:25:20.749176-07:00,946.6,1058.2,1918.3,1408.5,686.4,548.2,1421.3,1036.6,3479.5,3485.6,1046.1,973.1,430.2,3501.4,1421.3,963.7,3473.4,3483.2,409.8,655.4,479.8,554.6,285.9,288.2,3483.2,3477.1,657.0,606.8,824.4,1378.5,2217.8,462.4,9.0,2.0,-28.0,9307.0,12496.0,4399.0,2511.0,170.0,64.0,-103.0,18.0,-23.0,-2.0,10716.0,11776.0,3532.0,1566.0,54.0,95.0,21.0,1.0
2022-05-08 14:25:20.838613-07:00,941.5,1079.9,1966.7,1408.5,683.1,548.2,1421.3,1036.6,3473.4,3475.9,1023.7,973.1,420.8,3501.4,1421.3,963.7,3473.4,3483.2,409.8,654.6,479.8,551.4,291.3,286.7,3483.2,3477.1,657.0,631.9,824.4,1364.8,2100.7,456.9,-4.0,-13.0,3.0,9246.0,12530.0,4456.0,2470.0,186.0,36.0,-87.0,13.0,-32.0,16.0,10686.0,11798.0,3542.0,1583.0,81.0,61.0,25.0,1.0
2022-05-08 14:25:20.840080-07:00,941.5,1079.9,1966.7,1381.2,683.1,563.4,1414.9,1028.0,3473.4,3475.9,1023.7,979.0,420.8,3500.2,1302.5,953.4,3484.4,3479.5,409.0,654.6,486.9,551.4,291.3,286.7,3489.2,3478.3,656.2,631.9,812.7,1364.8,2100.7,456.9,13.0,1.0,-28.0,9190.0,12571.0,4480.0,2425.0,174.0,-55.0,-65.0,20.0,-18.0,-3.0,10646.0,11828.0,3554.0,1604.0,108.0,56.0,33.0,1.0
2022-05-08 14:25:20.898136-07:00,944.9,1125.2,1973.7,1381.2,686.4,563.4,1414.9,1028.0,3473.4,3464.9,974.8,979.0,418.4,3500.2,1302.5,953.4,3484.4,3479.5,409.0,653.8,486.9,548.2,293.6,293.6,3489.2,3478.3,656.2,653.8,812.7,1343.1,1995.5,457.7,-9.0,15.0,48.0,9175.0,12590.0,4487.0,2372.0,139.0,-66.0,-67.0,14.0,-20.0,-18.0,10617.0,11854.0,3547.0,1613.0,91.0,39.0,43.0,1.0
2022-05-08 14:25:20.958608-07:00,944.9,1125.2,1973.7,1371.2,686.4,568.2,1423.1,1021.1,3473.4,3464.9,974.8,973.1,418.4,3491.7,1224.8,938.1,3480.7,3474.6,408.2,653.8,483.7,548.2,293.6,293.6,3481.9,3475.9,657.9,653.8,815.2,1343.1,1995.5,457.7,-7.0,14.0,22.0,9180.0,12546.0,4598.0,2369.0,-128.0,232.0,-321.0,14.0,-18.0,45.0,10614.0,11858.0,3544.0,1616.0,-48.0,1.0,-15.0,1.0
2022-05-08 14:25:20.989181-07:00,963.7,1191.2,1992.5,1371.2,685.6,568.2,1423.1,1021.1,3473.4,3478.3,927.1,973.1,420.8,3491.7,1224.8,938.1,3480.7,3474.6,408.2,654.6,483.7,550.6,291.3,294.4,3481.9,3475.9,657.9,660.3,815.2,1330.5,1922.3,461.6,-22.0,-40.0,-5.0,9186.0,12509.0,4684.0,2374.0,60.0,46.0,-42.0,11.0,-23.0,-15.0,10602.0,11861.0,3565.0,1626.0,88.0,75.0,-10.0,1.0
2022-05-08 14:25:21.048612-07:00,963.7,1191.2,1992.5,1358.5,686.4,559.4,1426.8,997.9,3473.4,3478.3,927.1,991.0,420.8,3499.0,1158.6,936.4,3480.7,3467.4,409.0,662.7,472.7,550.6,291.3,294.4,3474.6,3472.2,656.2,665.2,812.7,1330.5,1922.3,461.6,1.0,36.0,-17.0,9180.0,12494.0,4723.0,2399.0,-62.0,135.0,-137.0,15.0,-21.0,15.0,10596.0,11865.0,3571.0,1627.0,-49.0,-20.0,-11.0,1.0
2022-05-08 14:25:21.198184-07:00,974.8,1211.5,2018.4,1344.0,686.4,559.4,1426.8,997.9,3478.3,3477.1,897.4,970.5,420.8,3499.0,1158.6,936.4,3480.7,3467.4,409.0,662.7,482.2,549.8,292.1,295.1,3474.6,3472.2,656.2,665.2,805.2,1319.6,1876.2,464.0,15.0,-18.0,14.0,9203.0,12460.0,4788.0,2359.0,20.0,-43.0,-173.0,18.0,-30.0,-5.0,10603.0,11856.0,3578.0,1626.0,10.0,19.0,-21.0,1.0
2022-05-08 14:25:21.199465-07:00,974.8,1211.5,2018.4,1344.0,682.3,577.0,1429.5,990.2,3478.3,3477.1,897.4,970.5,416.1,3495.3,1120.0,925.4,3475.9,3483.2,404.3,653.0,482.2,549.8,292.1,295.1,3488.0,3483.2,653.0,697.0,805.2,1319.6,1876.2,464.0,-17.0,-21.0,11.0,9213.0,12438.0,4829.0,2350.0,-14.0,69.0,-40.0,18.0,-31.0,26.0,10609.0,11847.0,3590.0,1628.0,2.0,25.0,-24.0,1.0
2022-05-08 14:25:21.200754-07:00,981.6,1239.9,2042.4,1334.1,682.3,577.0,1429.5,990.2,3473.4,3474.6,870.5,967.1,416.1,3495.3,1120.0,925.4,3475.9,3483.2,404.3,653.0,473.5,548.2,286.7,290.5,3488.0,3483.2,653.0,697.0,798.5,1315.1,1834.3,463.2,3.0,11.0,8.0,9212.0,12436.0,4832.0,2360.0,-55.0,35.0,-15.0,15.0,-24.0,4.0,10603.0,11848.0,3603.0,1632.0,-13.0,24.0,-17.0,1.0
2022-05-08 14:25:21.258543-07:00,981.6,1239.9,2042.4,1334.1,680.7,586.7,1435.0,985.0,3473.4,3474.6,870.5,967.1,419.2,3505.1,1106.9,919.4,3478.3,3471.0,412.1,660.3,473.5,548.2,286.7,290.5,3477.1,3488.0,648.9,701.9,798.5,1315.1,1834.3,463.2,-13.0,-10.0,-5.0,9228.0,12415.0,4849.0,2374.0,-39.0,55.0,-22.0,17.0,-21.0,13.0,10605.0,11844.0,3609.0,1631.0,1.0,-5.0,-15.0,1.0
2022-05-08 14:25:21.289197-07:00,982.5,1240.8,2033.4,1330.5,680.7,586.7,1435.0,985.0,3474.6,3475.9,852.8,962.8,419.2,3505.1,1106.9,919.4,3478.3,3471.0,412.1,660.3,475.8,550.6,291.3,289.8,3477.1,3488.0,648.9,701.9,798.5,1300.7,1811.9,460.8,7.0,-12.0,-10.0,9242.0,12409.0,4830.0,2385.0,-38.0,-40.0,68.0,10.0,-39.0,-11.0,10607.0,11842.0,3609.0,1632.0,7.0,0.0,1.0,1.0
2022-05-08 14:25:21.378608-07:00,983.3,1240.8,2033.4,1330.5,684.0,586.7,1429.5,980.7,3469.8,3475.9,852.8,962.8,418.4,3505.1,1088.6,917.7,3477.1,3475.9,407.5,657.0,475.8,550.6,291.3,292.1,3488.0,3477.1,647.3,701.1,798.5,1300.7,1811.9,462.4,-1.0,7.0,13.0,9248.0,12406.0,4830.0,2381.0,3.0,6.0,-63.0,18.0,-29.0,21.0,10609.0,11842.0,3607.0,1624.0,-10.0,-16.0,-25.0,1.0
2022-05-08 14:25:21.408591-07:00,983.3,1231.0,2021.4,1326.8,684.0,586.7,1429.5,972.2,3469.8,3478.3,848.6,969.6,418.4,3505.1,1088.6,911.0,3492.9,3475.9,407.5,657.0,481.4,551.4,291.3,292.1,3479.5,3477.1,647.3,701.1,798.5,1295.4,1784.9,462.4,-7.0,-15.0,6.0,9252.0,12400.0,4843.0,2370.0,7.0,-10.0,-14.0,19.0,-26.0,21.0,10610.0,11840.0,3615.0,1617.0,13.0,3.0,-25.0,1.0
2022-05-08 14:25:21.468254-07:00,984.2,1231.0,2021.4,1326.8,685.6,592.3,1423.1,972.2,3477.1,3478.3,848.6,969.6,418.4,3512.4,1078.2,911.0,3492.9,3488.0,404.3,659.5,481.4,551.4,291.3,290.5,3479.5,3483.2,653.0,700.3,798.5,1295.4,1784.9,462.4,-3.0,6.0,-1.0,9241.0,12412.0,4837.0,2365.0,5.0,7.0,4.0,13.0,-29.0,12.0,10602.0,11845.0,3621.0,1614.0,-3.0,-4.0,-13.0,1.0
2022-05-08 14:25:21.498157-07:00,984.2,1224.8,2000.5,1316.0,685.6,592.3,1423.1,964.5,3477.1,3479.5,833.6,964.5,418.4,3512.4,1078.2,904.2,3477.1,3488.0,404.3,659.5,479.8,545.0,285.2,290.5,3475.9,3483.2,653.0,700.3,794.4,1289.1,1776.2,462.4,5.0,-7.0,11.0,9240.0,12411.0,4838.0,2369.0,27.0,14.0,15.0,12.0,-31.0,6.0,10606.0,11842.0,3623.0,1613.0,11.0,1.0,-9.0,1.0
2022-05-08 14:25:21.528769-07:00,977.3,1224.8,2000.5,1316.0,681.5,590.7,1425.0,964.5,3477.1,3479.5,833.6,964.5,421.5,3496.6,1072.9,904.2,3477.1,3481.9,404.3,653.8,479.8,545.0,285.2,286.7,3475.9,3480.7,640.8,700.3,794.4,1289.1,1776.2,459.3,2.0,5.0,-6.0,9225.0,12416.0,4849.0,2382.0,37.0,45.0,-14.0,14.0,-26.0,8.0,10602.0,11844.0,3629.0,1608.0,30.0,11.0,-21.0,1.0
2022-05-08 14:25:21.589088-07:00,977.3,1215.1,1981.6,1310.6,681.5,590.7,1425.0,959.4,3477.1,3478.3,831.1,957.7,421.5,3496.6,1072.9,911.0,3484.4,3481.9,404.3,653.8,483.7,546.6,289.0,286.7,3475.9,3480.7,640.8,700.3,786.1,1288.2,1762.7,459.3,3.0,-5.0,-1.0,9206.0,12424.0,4867.0,2375.0,45.0,11.0,-21.0,15.0,-27.0,2.0,10594.0,11850.0,3637.0,1601.0,19.0,9.0,-23.0,1.0
2022-05-08 14:25:21.648662-07:00,975.6,1204.4,1981.6,1310.6,681.5,592.3,1423.1,959.4,3469.8,3475.9,831.1,957.7,414.5,3500.2,1064.3,911.0,3484.4,3481.9,407.5,653.0,483.7,546.6,285.2,285.9,3475.9,3481.9,642.4,684.8,786.1,1288.2,1756.0,458.5,2.0,-4.0,3.0,9202.0,12421.0,4881.0,2378.0,-13.0,33.0,-23.0,12.0,-22.0,8.0,10593.0,11849.0,3643.0,1597.0,-11.0,9.0,-21.0,1.0
2022-05-08 14:25:21.708633-07:00,975.6,1204.4,1973.7,1305.2,681.5,592.3,1414.0,953.4,3469.8,3475.9,828.5,956.0,414.5,3500.2,1053.9,905.0,3479.5,3483.2,407.5,653.0,482.2,547.4,285.2,285.9,3483.2,3472.2,642.4,684.8,791.9,1282.8,1756.0,458.5,0.0,1.0,-1.0,9195.0,12424.0,4883.0,2383.0,10.0,6.0,19.0,14.0,-25.0,8.0,10594.0,11847.0,3646.0,1595.0,4.0,-2.0,-9.0,1.0
2022-05-08 14:25:21.738772-07:00,970.5,1200.0,1973.7,1305.2,679.1,589.1,1414.0,953.4,3480.7,3475.9,828.5,956.0,421.5,3505.1,1053.9,905.0,3479.5,3483.2,407.5,656.2,482.2,547.4,284.4,282.1,3483.2,3472.2,647.3,684.8,791.9,1282.8,1749.3,461.6,9.0,-8.0,0.0,9195.0,12425.0,4881.0,2385.0,-7.0,14.0,1.0,18.0,-35.0,0.0,10594.0,11848.0,3645.0,1596.0,-4.0,-6.0,-3.0,1.0
2022-05-08 14:25:21.798568-07:00,970.5,1200.0,1958.8,1310.6,679.1,589.1,1411.3,956.0,3480.7,3475.9,826.0,963.7,421.5,3505.1,1056.5,905.0,3477.1,3483.2,407.5,656.2,476.6,549.8,284.4,282.1,3478.3,3481.9,647.3,684.8,789.4,1286.4,1749.3,461.6,-4.0,3.0,11.0,9194.0,12422.0,4885.0,2393.0,-2.0,15.0,-16.0,9.0,-26.0,13.0,10594.0,11848.0,3643.0,1598.0,-3.0,9.0,-4.0,1.0
2022-05-08 14:25:21.828603-07:00,969.6,1198.2,1958.8,1310.6,677.4,589.9,1411.3,956.0,3473.4,3475.9,826.0,963.7,421.5,3495.3,1056.5,905.0,3477.1,3483.2,410.6,657.9,476.6,549.8,287.5,290.5,3478.3,3481.9,641.6,684.0,789.4,1286.4,1746.4,462.4,5.0,-8.0,0.0,9197.0,12415.0,4895.0,2396.0,-5.0,16.0,-15.0,17.0,-27.0,7.0,10595.0,11846.0,3645.0,1596.0,0.0,3.0,-17.0,1.0
2022-05-08 14:25:21.889219-07:00,969.6,1198.2,1955.8,1295.4,677.4,589.9,1414.0,960.2,3473.4,3475.9,827.7,956.0,421.5,3495.3,1053.9,902.5,3479.5,3477.1,410.6,657.9,479.8,550.6,287.5,290.5,3484.4,3480.7,641.6,684.0,787.7,1277.4,1746.4,462.4,-1.0,-11.0,6.0,9196.0,12410.0,4907.0,2401.0,-9.0,8.0,-8.0,15.0,-32.0,9.0,10595.0,11846.0,3649.0,1594.0,0.0,2.0,-7.0,1.0
2022-05-08 14:25:21.948144-07:00,971.3,1188.5,1941.0,1295.4,676.6,588.3,1414.0,960.2,3478.3,3474.6,820.2,956.0,420.8,3494.1,1053.9,902.5,3479.5,3477.1,411.4,656.2,479.8,547.4,285.2,286.7,3484.4,3480.7,640.0,684.0,787.7,1280.1,1730.1,457.7,0.0,-4.0,-2.0,9192.0,12416.0,4902.0,2402.0,3.0,-9.0,28.0,9.0,-26.0,1.0,10594.0,11847.0,3648.0,1594.0,2.0,-9.0,7.0,1.0
2022-05-08 14:25:22.008538-07:00,971.3,1188.5,1941.0,1292.7,676.6,589.1,1410.3,953.4,3478.3,3474.6,820.2,957.7,420.8,3497.8,1047.0,898.3,3484.4,3479.5,407.5,656.2,480.6,547.4,285.2,286.7,3478.3,3475.9,635.9,684.0,781.9,1280.1,1730.1,457.7,6.0,4.0,0.0,9193.0,12418.0,4893.0,2400.0,6.0,-9.0,-15.0,13.0,-28.0,0.0,10594.0,11848.0,3646.0,1592.0,-9.0,-10.0,-8.0,1.0
2022-05-08 14:25:22.038784-07:00,972.2,1191.2,1938.0,1292.7,675.8,589.1,1410.3,953.4,3469.8,3473.4,816.9,957.7,416.8,3497.8,1047.0,898.3,3484.4,3479.5,407.5,656.2,480.6,546.6,284.4,282.9,3478.3,3475.9,635.9,683.1,781.9,1273.0,1747.3,457.7,7.0,-10.0,18.0,9200.0,12411.0,4900.0,2398.0,-23.0,26.0,-19.0,17.0,-30.0,11.0,10600.0,11843.0,3647.0,1591.0,-11.0,7.0,-12.0,1.0
2022-05-08 14:25:22.099236-07:00,972.2,1191.2,1938.0,1296.3,675.8,586.7,1407.6,956.8,3469.8,3473.4,816.9,957.7,416.8,3502.7,1040.1,898.3,3475.9,3473.4,409.0,656.2,479.0,546.6,284.4,282.9,3478.3,3473.4,640.8,683.1,785.2,1273.0,1747.3,457.7,-4.0,-6.0,1.0,9196.0,12407.0,4911.0,2410.0,18.0,27.0,12.0,13.0,-24.0,11.0,10599.0,11843.0,3649.0,1593.0,18.0,12.0,-3.0,1.0
2022-05-08 14:25:22.188724-07:00,970.5,1187.6,1941.0,1296.3,678.2,586.7,1407.6,956.8,3474.6,3475.9,815.2,957.7,416.8,3502.7,1040.1,898.3,3475.9,3473.4,409.0,656.2,479.0,549.8,282.1,282.9,3478.3,3473.4,640.8,682.3,785.2,1271.2,1723.4,460.0,2.0,7.0,-14.0,9189.0,12411.0,4914.0,2413.0,-8.0,-6.0,-14.0,14.0,-22.0,-4.0,10594.0,11846.0,3651.0,1596.0,1.0,-5.0,-6.0,1.0
2022-05-08 14:25:22.189990-07:00,970.5,1187.6,1941.0,1291.8,678.2,585.9,1404.9,945.8,3474.6,3475.9,815.2,953.4,416.8,3502.7,1040.1,894.9,3478.3,3478.3,408.2,656.2,479.8,549.8,282.1,282.9,3474.6,3471.0,640.8,682.3,781.9,1271.2,1723.4,460.0,-3.0,-1.0,1.0,9192.0,12410.0,4912.0,2409.0,19.0,-37.0,11.0,11.0,-31.0,11.0,10597.0,11844.0,3647.0,1595.0,1.0,-7.0,0.0,1.0
2022-05-08 14:25:22.278976-07:00,967.1,1188.5,1928.2,1284.6,679.1,585.9,1404.9,945.8,3466.1,3478.3,816.0,945.8,420.8,3502.7,1040.1,894.9,3478.3,3478.3,408.2,656.2,480.6,546.6,283.6,281.3,3474.6,3471.0,640.8,679.1,790.2,1278.3,1706.2,455.3,3.0,-13.0,20.0,9196.0,12411.0,4906.0,2403.0,-4.0,4.0,-10.0,17.0,-38.0,13.0,10601.0,11841.0,3646.0,1597.0,-23.0,4.0,-7.0,1.0
2022-05-08 14:25:22.280229-07:00,967.1,1188.5,1928.2,1284.6,680.7,586.7,1412.2,946.6,3466.1,3478.3,816.0,945.8,419.2,3499.0,1034.9,904.2,3478.3,3478.3,411.4,657.9,480.6,546.6,283.6,281.3,3472.2,3472.2,644.0,675.8,790.2,1278.3,1706.2,455.3,1.0,2.0,7.0,9196.0,12410.0,4909.0,2402.0,-6.0,5.0,-12.0,14.0,-25.0,6.0,10602.0,11841.0,3644.0,1598.0,-4.0,6.0,-8.0,1.0
2022-05-08 14:25:22.339506-07:00,966.2,1196.5,1927.2,1281.9,680.7,586.7,1412.2,946.6,3474.6,3475.9,812.7,956.8,419.2,3499.0,1034.9,904.2,3478.3,3478.3,411.4,657.9,479.8,546.6,284.4,283.6,3472.2,3472.2,644.0,675.8,777.8,1266.7,1723.4,457.7,-1.0,-3.0,-2.0,9195.0,12410.0,4910.0,2404.0,-3.0,11.0,1.0,8.0,-27.0,7.0,10602.0,11841.0,3644.0,1600.0,-3.0,5.0,-3.0,1.0
2022-05-08 14:25:22.428537-07:00,966.2,1196.5,1927.2,1281.9,675.8,585.9,1409.4,944.1,3474.6,3475.9,812.7,956.8,421.5,3495.3,1031.4,894.9,3480.7,3484.4,405.9,653.0,479.8,546.6,284.4,283.6,3478.3,3478.3,642.4,676.6,777.8,1266.7,1723.4,457.7,0.0,1.0,2.0,9195.0,12410.0,4910.0,2404.0,13.0,6.0,2.0,14.0,-26.0,10.0,10601.0,11841.0,3644.0,1600.0,6.0,-1.0,4.0,1.0
2022-05-08 14:25:22.430406-07:00,968.8,1188.5,1911.5,1307.9,675.8,585.9,1409.4,944.1,3467.4,3477.1,806.9,953.4,421.5,3495.3,1031.4,894.9,3480.7,3484.4,405.9,653.0,480.6,545.8,283.6,286.7,3478.3,3478.3,642.4,676.6,772.0,1267.6,1715.8,461.6,-1.0,-2.0,8.0,9196.0,12406.0,4916.0,2407.0,-11.0,23.0,-14.0,14.0,-32.0,13.0,10601.0,11841.0,3644.0,1600.0,-8.0,3.0,-5.0,1.0
2022-05-08 14:25:22.489428-07:00,968.8,1188.5,1911.5,1307.9,672.5,588.3,1404.9,948.3,3467.4,3477.1,806.9,953.4,418.4,3507.5,1031.4,894.9,3475.9,3477.1,409.0,656.2,480.6,545.8,283.6,286.7,3477.1,3479.5,646.5,679.1,772.0,1267.6,1715.8,461.6,1.0,-7.0,0.0,9197.0,12403.0,4920.0,2411.0,12.0,1.0,6.0,18.0,-33.0,12.0,10602.0,11840.0,3645.0,1602.0,6.0,8.0,7.0,1.0
2022-05-08 14:25:22.548121-07:00,968.8,1176.2,1918.3,1282.8,672.5,588.3,1404.9,947.5,3467.4,3472.2,810.2,949.2,418.4,3507.5,1031.4,891.5,3475.9,3477.1,409.0,656.2,475.8,546.6,285.2,284.4,3473.4,3479.5,646.5,679.1,781.9,1264.0,1709.1,460.0,0.0,2.0,-3.0,9194.0,12406.0,4916.0,2416.0,-4.0,6.0,14.0,11.0,-26.0,0.0,10602.0,11840.0,3644.0,1603.0,0.0,-4.0,11.0,1.0
2022-05-08 14:25:22.579002-07:00,967.1,1176.2,1918.3,1282.8,674.2,582.6,1405.8,947.5,3473.4,3472.2,810.2,949.2,413.7,3500.2,1027.1,891.5,3475.9,3477.1,408.2,653.0,475.8,546.6,285.2,277.5,3473.4,3484.4,644.0,679.9,781.9,1264.0,1709.1,461.6,1.0,-12.0,10.0,9194.0,12405.0,4917.0,2418.0,-4.0,15.0,-2.0,14.0,-32.0,13.0,10602.0,11840.0,3644.0,1603.0,1.0,-3.0,2.0,1.0
2022-05-08 14:25:22.638857-07:00,967.1,1180.6,1916.4,1283.7,674.2,582.6,1405.8,943.2,3473.4,3472.2,806.9,953.4,413.7,3500.2,1027.1,891.5,3478.3,3477.1,408.2,653.0,478.2,550.6,283.6,277.5,3475.9,3484.4,644.0,679.9,781.9,1263.1,1708.1,461.6,1.0,0.0,5.0,9191.0,12407.0,4915.0,2420.0,-12.0,8.0,1.0,15.0,-25.0,8.0,10601.0,11841.0,3641.0,1606.0,-14.0,8.0,11.0,1.0
2022-05-08 14:25:22.698838-07:00,967.9,1180.6,1916.4,1283.7,668.4,590.7,1412.2,943.2,3467.4,3472.2,806.9,953.4,419.2,3486.8,1028.0,891.5,3478.3,3475.9,407.5,658.7,478.2,550.6,283.6,280.6,3475.9,3479.5,640.0,676.6,781.9,1263.1,1708.1,457.7,0.0,0.0,-3.0,9194.0,12405.0,4914.0,2425.0,6.0,7.0,15.0,9.0,-26.0,5.0,10602.0,11841.0,3638.0,1609.0,-1.0,6.0,10.0,1.0
2022-05-08 14:25:22.728925-07:00,967.9,1184.1,1908.5,1281.0,668.4,590.7,1412.2,947.5,3467.4,3475.9,810.2,955.1,419.2,3486.8,1028.0,894.9,3478.3,3475.9,407.5,658.7,477.4,549.8,280.6,280.6,3480.7,3479.5,640.0,676.6,780.3,1259.6,1704.3,457.7,12.0,-3.0,3.0,9194.0,12405.0,4914.0,2425.0,1.0,4.0,-2.0,19.0,-30.0,3.0,10602.0,11841.0,3637.0,1610.0,1.0,-2.0,3.0,1.0
2022-05-08 14:25:22.818822-07:00,967.1,1184.1,1908.5,1281.0,675.8,581.8,1400.3,947.5,3473.4,3475.9,810.2,955.1,418.4,3497.8,1021.1,894.9,3478.3,3478.3,407.5,653.0,477.4,549.8,280.6,280.6,3480.7,3479.5,630.3,674.2,780.3,1259.6,1704.3,460.0,2.0,-2.0,8.0,9194.0,12405.0,4914.0,2425.0,4.0,3.0,-6.0,16.0,-32.0,3.0,10602.0,11841.0,3637.0,1610.0,2.0,2.0,3.0,1.0
2022-05-08 14:25:22.848510-07:00,967.1,1185.0,1910.5,1279.2,675.8,581.8,1403.0,946.6,3473.4,3478.3,806.0,952.6,418.4,3497.8,1022.8,888.2,3488.0,3488.0,407.5,653.0,475.8,552.2,279.0,280.6,3472.2,3480.7,630.3,674.2,783.6,1265.8,1699.5,460.0,1.0,-2.0,5.0,9192.0,12402.0,4922.0,2431.0,12.0,22.0,-15.0,10.0,-29.0,7.0,10602.0,11841.0,3637.0,1610.0,4.0,5.0,2.0,1.0
2022-05-08 14:25:22.878566-07:00,962.8,1182.3,1910.5,1279.2,677.4,585.9,1403.0,946.6,3472.2,3477.1,806.0,952.6,417.6,3494.1,1022.8,888.2,3488.0,3488.0,409.8,654.6,475.8,552.2,281.3,282.1,3472.2,3480.7,634.3,672.5,783.6,1265.8,1696.7,457.7,0.0,-6.0,-1.0,9188.0,12400.0,4936.0,2429.0,-2.0,12.0,-24.0,16.0,-31.0,6.0,10601.0,11842.0,3637.0,1610.0,3.0,7.0,-5.0,1.0
2022-05-08 14:25:22.938791-07:00,962.8,1182.3,1904.6,1273.0,677.4,585.9,1400.3,938.1,3472.2,3477.1,802.7,950.9,417.6,3494.1,1022.8,889.8,3484.4,3474.6,409.8,654.6,481.4,545.0,281.3,282.1,3488.0,3485.6,634.3,672.5,780.3,1271.2,1696.7,457.7,2.0,-5.0,4.0,9189.0,12398.0,4937.0,2433.0,-18.0,10.0,12.0,14.0,-26.0,6.0,10601.0,11842.0,3636.0,1611.0,-8.0,2.0,11.0,1.0
2022-05-08 14:25:22.998618-07:00,962.8,1181.5,1904.6,1273.0,675.0,589.9,1400.3,938.1,3472.2,3472.2,802.7,950.9,413.7,3503.9,1022.8,889.8,3484.4,3474.6,408.2,660.3,481.4,545.0,279.0,287.5,3488.0,3485.6,633.5,671.7,780.3,1271.2,1698.6,467.9,-4.0,4.0,0.0,9188.0,12397.0,4937.0,2440.0,-1.0,-3.0,9.0,14.0,-26.0,10.0,10602.0,11842.0,3636.0,1611.0,-3.0,8.0,7.0,1.0
2022-05-08 14:25:23.058629-07:00,962.8,1181.5,1902.6,1274.7,675.0,589.9,1402.1,942.4,3472.2,3472.2,801.9,944.9,413.7,3503.9,1025.4,888.2,3474.6,3472.2,408.2,660.3,483.7,549.8,279.0,287.5,3477.1,3481.9,633.5,671.7,780.3,1265.8,1698.6,467.9,7.0,-1.0,3.0,9188.0,12398.0,4936.0,2438.0,-2.0,7.0,6.0,17.0,-24.0,6.0,10602.0,11842.0,3636.0,1611.0,0.0,-8.0,1.0,1.0
2022-05-08 14:25:23.089097-07:00,960.2,1179.7,1902.6,1274.7,672.5,581.8,1402.1,942.4,3473.4,3473.4,801.9,944.9,416.1,3502.7,1025.4,888.2,3474.6,3472.2,411.4,654.6,483.7,549.8,279.0,284.4,3477.1,3481.9,635.1,668.4,780.3,1265.8,1697.6,460.0,4.0,3.0,6.0,9184.0,12400.0,4938.0,2438.0,1.0,14.0,-10.0,15.0,-26.0,6.0,10600.0,11843.0,3636.0,1610.0,-2.0,1.0,-12.0,1.0
2022-05-08 14:25:23.148613-07:00,960.2,1179.7,1900.7,1278.3,672.5,585.1,1405.8,937.3,3473.4,3473.4,808.5,958.5,416.1,3495.3,1016.8,892.4,3484.4,3479.5,410.6,654.6,482.2,546.6,279.0,284.4,3480.7,3483.2,635.1,668.4,778.6,1262.2,1697.6,460.0,0.0,-5.0,1.0,9180.0,12400.0,4943.0,2442.0,17.0,7.0,1.0,17.0,-24.0,8.0,10599.0,11844.0,3639.0,1607.0,12.0,6.0,-9.0,1.0
2022-05-08 14:25:23.178884-07:00,963.7,1178.8,1895.8,1278.3,672.5,585.1,1405.8,937.3,3478.3,3477.1,802.7,958.5,416.8,3495.3,1016.8,892.4,3484.4,3479.5,410.6,660.3,482.2,549.0,280.6,279.8,3480.7,3483.2,635.1,673.3,778.6,1263.1,1688.1,458.5,2.0,-13.0,0.0,9181.0,12399.0,4946.0,2440.0,8.0,-7.0,-4.0,18.0,-30.0,5.0,10598.0,11844.0,3641.0,1605.0,10.0,1.0,-14.0,1.0
2022-05-08 14:25:23.298604-07:00,963.7,1178.8,1895.8,1281.9,672.5,582.6,1401.2,939.0,3478.3,3477.1,802.7,949.2,416.8,3502.7,1013.3,891.5,3480.7,3480.7,409.0,660.3,480.6,549.0,280.6,279.8,3477.1,3472.2,633.5,673.3,774.5,1263.1,1688.1,458.5,0.0,-2.0,4.0,9179.0,12398.0,4951.0,2444.0,-10.0,14.0,-10.0,15.0,-23.0,13.0,10600.0,11842.0,3645.0,1600.0,-6.0,-3.0,-18.0,1.0
2022-05-08 14:25:23.299942-07:00,955.1,1182.3,1898.7,1281.9,675.0,582.6,1401.2,939.0,3474.6,3467.4,805.2,949.2,417.6,3502.7,1013.3,891.5,3480.7,3480.7,409.0,652.2,480.6,550.6,282.9,277.5,3477.1,3472.2,633.5,672.5,774.5,1264.9,1697.6,460.8,4.0,-1.0,3.0,9179.0,12397.0,4951.0,2443.0,1.0,-3.0,-8.0,18.0,-26.0,5.0,10600.0,11840.0,3651.0,1596.0,3.0,0.0,-17.0,1.0
2022-05-08 14:25:23.358556-07:00,955.1,1182.3,1898.7,1273.0,675.0,581.8,1401.2,941.5,3474.6,3467.4,805.2,947.5,417.6,3501.4,1007.3,889.8,3483.2,3474.6,409.0,652.2,479.0,550.6,282.9,277.5,3479.5,3477.1,633.5,672.5,774.5,1264.9,1697.6,460.8,1.0,-7.0,5.0,9178.0,12396.0,4956.0,2444.0,3.0,10.0,-8.0,15.0,-30.0,11.0,10601.0,11839.0,3656.0,1591.0,2.0,0.0,-16.0,1.0
2022-05-08 14:25:23.389462-07:00,961.1,1170.9,1887.9,1273.0,665.2,581.8,1401.2,941.5,3469.8,3473.4,802.7,947.5,420.0,3501.4,1007.3,889.8,3483.2,3474.6,409.0,653.0,479.0,543.4,281.3,279.0,3479.5,3477.1,633.5,666.8,774.5,1255.1,1681.4,460.0,1.0,-3.0,-7.0,9177.0,12397.0,4956.0,2444.0,-6.0,1.0,1.0,13.0,-32.0,5.0,10602.0,11838.0,3660.0,1588.0,-9.0,-7.0,-12.0,1.0
2022-05-08 14:25:23.478603-07:00,961.1,1170.9,1887.9,1266.7,672.5,579.4,1392.1,944.1,3469.8,3473.4,802.7,947.5,415.3,3495.3,1009.9,892.4,3469.8,3478.3,411.4,657.9,479.0,543.4,281.3,279.0,3478.3,3480.7,635.1,662.7,772.8,1255.1,1681.4,460.0,2.0,0.0,3.0,9175.0,12399.0,4956.0,2441.0,5.0,-6.0,-10.0,16.0,-24.0,3.0,10601.0,11837.0,3664.0,1584.0,-2.0,-4.0,-16.0,1.0
2022-05-08 14:25:23.481117-07:00,965.4,1176.2,1886.9,1271.2,672.5,579.4,1392.1,944.1,3474.6,3472.2,799.4,947.5,415.3,3495.3,1009.9,892.4,3469.8,3478.3,411.4,657.9,480.6,548.2,285.9,286.7,3478.3,3480.7,635.1,662.7,775.3,1253.3,1687.2,459.3,3.0,-7.0,7.0,9175.0,12398.0,4958.0,2440.0,7.0,-4.0,-4.0,21.0,-30.0,9.0,10602.0,11836.0,3667.0,1580.0,9.0,4.0,-8.0,1.0
2022-05-08 14:25:23.539638-07:00,965.4,1176.2,1886.9,1271.2,672.5,577.8,1401.2,939.8,3474.6,3472.2,799.4,947.5,420.0,3500.2,1011.6,891.5,3471.0,3469.8,405.9,648.1,480.6,548.2,285.9,286.7,3474.6,3477.1,631.9,666.0,775.3,1253.3,1687.2,459.3,0.0,-4.0,2.0,9175.0,12398.0,4958.0,2440.0,-2.0,7.0,1.0,12.0,-24.0,5.0,10601.0,11837.0,3668.0,1580.0,5.0,2.0,-4.0,1.0
2022-05-08 14:25:23.598127-07:00,962.8,1168.2,1885.0,1266.7,672.5,577.8,1401.2,939.8,3469.8,3479.5,799.4,947.5,420.0,3500.2,1011.6,891.5,3471.0,3469.8,405.9,648.1,480.6,547.4,281.3,279.0,3474.6,3477.1,631.9,666.0,772.0,1252.4,1675.7,460.0,8.0,-4.0,2.0,9177.0,12396.0,4958.0,2442.0,17.0,7.0,-4.0,23.0,-27.0,8.0,10602.0,11836.0,3668.0,1580.0,9.0,0.0,-11.0,1.0
2022-05-08 14:25:23.628793-07:00,962.8,1168.2,1885.0,1266.7,679.9,581.8,1402.1,941.5,3469.8,3479.5,799.4,947.5,421.5,3512.4,1006.5,885.6,3477.1,3478.3,411.4,656.2,480.6,547.4,281.3,279.0,3474.6,3480.7,633.5,666.8,772.0,1252.4,1675.7,460.0,2.0,-15.0,5.0,9177.0,12396.0,4962.0,2439.0,0.0,-7.0,-9.0,13.0,-33.0,3.0,10602.0,11835.0,3672.0,1577.0,3.0,1.0,-9.0,1.0
2022-05-08 14:25:23.688815-07:00,964.5,1172.6,1888.9,1268.5,679.9,581.8,1402.1,941.5,3478.3,3478.3,796.0,951.7,421.5,3512.4,1006.5,885.6,3477.1,3478.3,411.4,656.2,479.8,548.2,280.6,279.0,3474.6,3480.7,633.5,666.8,775.3,1263.1,1685.3,456.9,-4.0,-6.0,5.0,9177.0,12395.0,4962.0,2439.0,-3.0,-2.0,0.0,14.0,-28.0,9.0,10602.0,11835.0,3672.0,1576.0,0.0,5.0,-3.0,1.0
2022-05-08 14:25:23.748675-07:00,959.4,1172.6,1888.9,1268.5,672.5,577.8,1399.4,941.5,3481.9,3478.3,796.0,951.7,417.6,3496.6,1000.5,884.8,3478.3,3478.3,411.4,657.9,479.8,548.2,280.6,281.3,3475.9,3474.6,630.3,663.6,775.3,1263.1,1685.3,454.5,-1.0,3.0,0.0,9176.0,12396.0,4962.0,2438.0,-2.0,4.0,-10.0,15.0,-26.0,5.0,10602.0,11835.0,3673.0,1575.0,-6.0,-2.0,-10.0,1.0
2022-05-08 14:25:23.838962-07:00,959.4,1170.9,1882.0,1263.1,672.5,577.8,1399.4,942.4,3481.9,3475.9,800.2,946.6,417.6,3496.6,1000.5,884.8,3481.9,3478.3,411.4,657.9,479.8,545.0,287.5,281.3,3484.4,3474.6,630.3,663.6,771.1,1253.3,1682.4,454.5,-2.0,-2.0,5.0,9177.0,12394.0,4967.0,2436.0,1.0,2.0,-19.0,16.0,-22.0,8.0,10602.0,11834.0,3677.0,1572.0,5.0,-4.0,-12.0,1.0
2022-05-08 14:25:23.841763-07:00,965.4,1170.9,1882.0,1263.1,673.3,577.8,1394.8,942.4,3478.3,3475.9,800.2,946.6,420.0,3497.8,1005.6,884.8,3481.9,3484.4,414.5,655.4,479.8,545.0,287.5,280.6,3484.4,3477.1,637.6,663.6,771.1,1253.3,1682.4,456.9,2.0,-2.0,4.0,9177.0,12394.0,4968.0,2435.0,10.0,1.0,12.0,16.0,-29.0,4.0,10602.0,11834.0,3678.0,1571.0,9.0,6.0,-2.0,1.0
2022-05-08 14:25:23.928856-07:00,965.4,1171.8,1875.2,1262.2,673.3,577.8,1394.8,944.1,3478.3,3474.6,796.0,950.0,420.0,3497.8,1005.6,899.1,3466.1,3484.4,414.5,655.4,477.4,546.6,282.1,280.6,3483.2,3477.1,637.6,663.6,779.4,1258.7,1675.7,456.9,12.0,-1.0,3.0,9177.0,12393.0,4968.0,2438.0,-12.0,16.0,-5.0,22.0,-26.0,4.0,10603.0,11833.0,3678.0,1571.0,-11.0,-5.0,-8.0,1.0
2022-05-08 14:25:23.930440-07:00,956.8,1171.8,1875.2,1262.2,677.4,573.8,1395.7,944.1,3481.9,3474.6,796.0,950.0,419.2,3495.3,1013.3,899.1,3466.1,3477.1,409.8,654.6,477.4,546.6,282.1,280.6,3483.2,3483.2,635.9,670.1,779.4,1258.7,1675.7,462.4,3.0,-4.0,0.0,9176.0,12392.0,4972.0,2439.0,9.0,-3.0,-7.0,18.0,-23.0,5.0,10602.0,11833.0,3679.0,1570.0,8.0,3.0,-8.0,1.0
2022-05-08 14:25:23.989050-07:00,956.8,1166.5,1881.1,1254.2,677.4,573.8,1395.7,936.4,3481.9,3472.2,801.9,939.0,419.2,3495.3,1013.3,884.8,3477.1,3477.1,409.8,654.6,480.6,543.4,282.1,280.6,3475.9,3483.2,635.9,670.1,770.3,1254.2,1675.7,462.4,-3.0,-8.0,0.0,9175.0,12393.0,4972.0,2440.0,0.0,2.0,12.0,17.0,-32.0,12.0,10602.0,11833.0,3679.0,1570.0,3.0,-5.0,-2.0,1.0
2022-05-08 14:25:24.078655-07:00,957.7,1170.9,1881.1,1254.2,674.2,575.4,1395.7,936.4,3471.0,3469.8,801.9,939.0,420.8,3492.9,1002.2,884.8,3477.1,3483.2,407.5,653.8,480.6,543.4,280.6,281.3,3475.9,3478.3,635.1,661.9,770.3,1254.2,1673.8,460.8,10.0,-5.0,2.0,9175.0,12395.0,4966.0,2436.0,-5.0,-4.0,-5.0,17.0,-26.0,-1.0,10602.0,11834.0,3679.0,1570.0,-3.0,-2.0,-3.0,1.0
2022-05-08 14:25:24.080408-07:00,957.7,1170.9,1880.1,1262.2,674.2,575.4,1395.7,942.4,3471.0,3469.8,808.5,949.2,420.8,3492.9,1005.6,885.6,3478.3,3473.4,407.5,653.8,482.2,547.4,280.6,281.3,3483.2,3478.3,635.1,661.9,772.0,1260.4,1673.8,460.8,2.0,-2.0,5.0,9175.0,12395.0,4968.0,2437.0,-1.0,5.0,-7.0,15.0,-26.0,8.0,10602.0,11834.0,3679.0,1570.0,-5.0,-1.0,-6.0,1.0
2022-05-08 14:25:24.168727-07:00,956.0,1161.2,1880.1,1262.2,675.8,581.8,1395.7,942.4,3471.0,3472.2,808.5,949.2,418.4,3496.6,1005.6,885.6,3478.3,3473.4,406.7,653.0,482.2,547.4,285.2,279.8,3483.2,3478.3,635.1,661.1,772.0,1260.4,1671.9,458.5,7.0,-8.0,3.0,9174.0,12395.0,4970.0,2436.0,14.0,9.0,4.0,20.0,-27.0,0.0,10600.0,11835.0,3681.0,1570.0,15.0,4.0,0.0,1.0
2022-05-08 14:25:24.198060-07:00,956.0,1161.2,1875.2,1253.3,675.8,581.8,1397.6,936.4,3471.0,3472.2,793.5,937.3,418.4,3496.6,998.7,884.8,3479.5,3474.6,406.7,653.0,483.7,550.6,285.2,279.8,3475.9,3478.3,635.1,661.1,768.7,1255.1,1671.9,458.5,2.0,-1.0,4.0,9172.0,12395.0,4972.0,2438.0,0.0,9.0,-5.0,16.0,-27.0,6.0,10600.0,11835.0,3681.0,1570.0,0.0,-4.0,-3.0,1.0
2022-05-08 14:25:24.229050-07:00,962.0,1163.8,1875.2,1253.3,672.5,577.0,1397.6,936.4,3480.7,3478.3,793.5,937.3,415.3,3494.1,998.7,884.8,3479.5,3474.6,409.8,657.0,483.7,550.6,280.6,279.0,3475.9,3478.3,632.7,661.1,768.7,1255.1,1672.9,457.7,4.0,-15.0,6.0,9172.0,12395.0,4974.0,2439.0,5.0,-3.0,0.0,19.0,-30.0,1.0,10600.0,11835.0,3681.0,1570.0,7.0,1.0,-3.0,1.0
2022-05-08 14:25:24.288804-07:00,962.0,1163.8,1863.5,1261.3,672.5,577.0,1401.2,939.8,3480.7,3478.3,796.0,948.3,415.3,3494.1,1004.8,887.3,3471.0,3483.2,409.8,657.0,478.2,543.4,280.6,279.0,3478.3,3480.7,632.7,661.1,775.3,1254.2,1672.9,457.7,3.0,4.0,5.0,9168.0,12398.0,4973.0,2439.0,0.0,9.0,-7.0,13.0,-25.0,2.0,10597.0,11837.0,3681.0,1570.0,-4.0,-6.0,-7.0,1.0
2022-05-08 14:25:24.348280-07:00,956.8,1158.6,1870.3,1261.3,671.7,577.0,1401.2,939.8,3464.9,3464.9,793.5,948.3,418.4,3497.8,1004.8,887.3,3471.0,3483.2,405.1,655.4,478.2,547.4,281.3,281.3,3478.3,3480.7,635.1,663.6,775.3,1253.3,1661.5,458.5,0.0,-6.0,2.0,9168.0,12397.0,4975.0,2439.0,7.0,2.0,14.0,22.0,-27.0,11.0,10597.0,11838.0,3681.0,1569.0,11.0,3.0,4.0,1.0
2022-05-08 14:25:24.378890-07:00,956.8,1158.6,1870.3,1261.3,671.7,575.4,1392.1,932.2,3464.9,3464.9,793.5,946.6,418.4,3502.7,1001.3,890.7,3477.1,3478.3,410.6,655.4,478.2,547.4,281.3,281.3,3479.5,3479.5,635.1,663.6,769.5,1253.3,1661.5,458.5,-2.0,-8.0,3.0,9166.0,12399.0,4972.0,2441.0,-5.0,8.0,3.0,12.0,-33.0,10.0,10597.0,11838.0,3681.0,1569.0,-3.0,6.0,3.0,1.0
2022-05-08 14:25:24.438653-07:00,956.0,1168.2,1868.4,1261.3,673.3,575.4,1392.1,932.2,3472.2,3480.7,801.9,946.6,416.8,3502.7,1001.3,890.7,3477.1,3478.3,410.6,653.8,478.2,547.4,281.3,281.3,3479.5,3479.5,635.1,663.6,769.5,1248.8,1672.9,458.5,9.0,2.0,-2.0,9165.0,12399.0,4973.0,2442.0,-10.0,12.0,-2.0,19.0,-30.0,5.0,10597.0,11837.0,3681.0,1570.0,-7.0,-6.0,-3.0,1.0
2022-05-08 14:25:24.468111-07:00,956.0,1168.2,1868.4,1264.9,673.3,577.8,1388.5,934.7,3472.2,3480.7,801.9,946.6,416.8,3499.0,1000.5,883.1,3474.6,3472.2,406.7,653.8,475.8,547.4,281.3,281.3,3474.6,3478.3,635.9,663.6,764.5,1248.8,1672.9,458.5,1.0,-9.0,4.0,9168.0,12395.0,4980.0,2440.0,6.0,3.0,-17.0,17.0,-34.0,12.0,10598.0,11836.0,3684.0,1567.0,6.0,1.0,-5.0,1.0
2022-05-08 14:25:24.528687-07:00,962.0,1164.7,1868.4,1264.9,670.9,577.8,1388.5,934.7,3479.5,3469.8,798.5,946.6,416.1,3499.0,1000.5,883.1,3474.6,3472.2,406.7,654.6,475.8,542.6,279.8,281.3,3474.6,3478.3,635.9,661.9,764.5,1250.6,1673.8,458.5,-3.0,-5.0,3.0,9167.0,12393.0,4985.0,2443.0,8.0,15.0,-1.0,19.0,-28.0,8.0,10598.0,11836.0,3684.0,1567.0,5.0,3.0,2.0,1.0
2022-05-08 14:25:24.588803-07:00,962.0,1164.7,1868.4,1256.9,670.9,575.4,1395.7,932.2,3479.5,3469.8,798.5,949.2,416.1,3494.1,1001.3,878.9,3475.9,3478.3,407.5,654.6,479.0,542.6,279.8,281.3,3480.7,3488.0,627.0,661.9,772.8,1250.6,1673.8,458.5,-7.0,-2.0,0.0,9165.0,12392.0,4990.0,2446.0,-7.0,17.0,-16.0,14.0,-23.0,14.0,10598.0,11836.0,3684.0,1567.0,-4.0,0.0,-5.0,1.0
2022-05-08 14:25:24.619297-07:00,961.1,1159.4,1857.6,1259.6,673.3,575.4,1395.7,932.2,3481.9,3471.0,793.5,949.2,416.8,3494.1,1001.3,878.9,3475.9,3478.3,407.5,651.4,483.7,549.0,277.5,272.9,3480.7,3488.0,627.0,656.2,768.7,1243.5,1669.1,459.3,1.0,-11.0,8.0,9166.0,12390.0,4993.0,2448.0,-14.0,26.0,10.0,17.0,-32.0,6.0,10598.0,11836.0,3684.0,1567.0,-5.0,-8.0,4.0,1.0
2022-05-08 14:25:24.679018-07:00,961.1,1159.4,1857.6,1259.6,672.5,574.6,1391.2,936.4,3481.9,3471.0,793.5,949.2,418.4,3510.0,997.9,886.5,3484.4,3474.6,405.9,655.4,483.7,549.0,277.5,272.9,3485.6,3483.2,630.3,657.9,768.7,1243.5,1669.1,459.3,2.0,6.0,1.0,9164.0,12390.0,4989.0,2458.0,7.0,7.0,13.0,19.0,-25.0,6.0,10596.0,11838.0,3683.0,1568.0,14.0,4.0,8.0,1.0
2022-05-08 14:25:24.738772-07:00,959.4,1163.8,1865.4,1259.6,672.5,574.6,1391.2,936.4,3474.6,3478.3,795.2,945.8,418.4,3510.0,997.9,886.5,3484.4,3474.6,405.9,655.4,483.7,550.6,278.3,277.5,3485.6,3483.2,630.3,657.9,768.7,1248.0,1666.3,458.5,5.0,-7.0,0.0,9164.0,12391.0,4988.0,2456.0,17.0,-14.0,7.0,20.0,-23.0,3.0,10595.0,11839.0,3683.0,1568.0,12.0,1.0,2.0,1.0
2022-05-08 14:25:24.768126-07:00,959.4,1163.8,1865.4,1259.6,670.1,581.0,1394.8,930.5,3474.6,3478.3,795.2,945.8,416.1,3508.8,1001.3,889.0,3478.3,3478.3,414.5,657.9,483.7,550.6,278.3,277.5,3488.0,3483.2,631.9,656.2,768.7,1248.0,1666.3,458.5,0.0,-4.0,6.0,9166.0,12390.0,4985.0,2462.0,-13.0,7.0,12.0,15.0,-25.0,14.0,10599.0,11837.0,3680.0,1566.0,-6.0,-10.0,5.0,1.0
2022-05-08 14:25:24.828782-07:00,952.6,1158.6,1870.3,1277.4,670.1,581.0,1394.8,930.5,3471.0,3472.2,794.4,944.1,416.1,3508.8,1001.3,889.0,3478.3,3478.3,414.5,657.9,478.2,543.4,281.3,279.8,3488.0,3483.2,631.9,656.2,757.9,1264.9,1667.2,454.5,3.0,0.0,6.0,9163.0,12393.0,4982.0,2462.0,7.0,9.0,5.0,17.0,-25.0,7.0,10598.0,11837.0,3680.0,1565.0,3.0,3.0,6.0,1.0
2022-05-08 14:25:24.888808-07:00,952.6,1158.6,1870.3,1277.4,668.4,577.8,1393.9,933.9,3471.0,3472.2,794.4,944.1,420.8,3486.8,993.6,885.6,3478.3,3472.2,407.5,657.9,478.2,543.4,281.3,279.8,3480.7,3477.1,635.9,654.6,757.9,1264.9,1667.2,454.5,0.0,-7.0,3.0,9162.0,12394.0,4983.0,2462.0,1.0,8.0,8.0,19.0,-29.0,11.0,10598.0,11837.0,3680.0,1565.0,-2.0,3.0,5.0,1.0
2022-05-08 14:25:24.919214-07:00,956.0,1155.9,1853.7,1256.0,668.4,577.8,1393.9,933.9,3479.5,3474.6,787.7,947.5,420.8,3486.8,993.6,885.6,3478.3,3472.2,407.5,657.9,480.6,549.0,285.9,281.3,3480.7,3477.1,635.9,654.6,767.0,1247.1,1671.9,460.0,0.0,-3.0,5.0,9162.0,12394.0,4983.0,2462.0,-7.0,4.0,7.0,21.0,-30.0,9.0,10598.0,11837.0,3680.0,1565.0,-9.0,-4.0,2.0,1.0
2022-05-08 14:25:24.979048-07:00,960.2,1155.9,1853.7,1256.0,672.5,574.6,1392.1,933.9,3467.4,3474.6,787.7,947.5,416.8,3500.2,997.0,879.7,3479.5,3483.2,409.0,658.7,480.6,549.0,285.9,280.6,3480.7,3484.4,632.7,656.2,767.0,1247.1,1671.9,454.5,1.0,1.0,9.0,9159.0,12393.0,4985.0,2469.0,-5.0,26.0,4.0,20.0,-32.0,12.0,10598.0,11838.0,3679.0,1566.0,-6.0,-8.0,11.0,1.0
2022-05-08 14:25:25.039690-07:00,960.2,1163.0,1864.5,1264.9,672.5,574.6,1392.1,931.3,3467.4,3464.9,794.4,948.3,416.8,3500.2,997.0,882.3,3484.4,3483.2,409.0,658.7,474.3,547.4,279.0,280.6,3479.5,3484.4,632.7,656.2,765.3,1245.3,1658.7,454.5,6.0,-5.0,1.0,9154.0,12396.0,4989.0,2471.0,10.0,4.0,2.0,18.0,-30.0,5.0,10596.0,11839.0,3678.0,1567.0,-1.0,-4.0,7.0,1.0
2022-05-08 14:25:25.068696-07:00,956.0,1163.0,1864.5,1264.9,685.6,573.8,1388.5,931.3,3478.3,3464.9,794.4,948.3,415.3,3505.1,990.2,882.3,3484.4,3477.1,409.0,651.4,474.3,547.4,279.0,274.4,3479.5,3488.0,635.1,653.8,765.3,1245.3,1658.7,467.1,3.0,1.0,4.0,9152.0,12396.0,4987.0,2476.0,-5.0,6.0,19.0,19.0,-26.0,2.0,10596.0,11840.0,3674.0,1571.0,-4.0,-6.0,8.0,1.0
2022-05-08 14:25:25.129173-07:00,956.0,1158.6,1859.6,1256.9,685.6,573.8,1388.5,934.7,3478.3,3480.7,793.5,943.2,415.3,3505.1,990.2,884.8,3489.2,3477.1,409.0,651.4,481.4,550.6,281.3,274.4,3479.5,3488.0,635.1,653.8,764.5,1244.4,1659.6,467.1,6.0,3.0,8.0,9148.0,12395.0,4993.0,2487.0,-4.0,36.0,4.0,21.0,-33.0,21.0,10597.0,11840.0,3671.0,1573.0,-3.0,-3.0,-4.0,1.0
2022-05-08 14:25:25.188878-07:00,950.9,1158.6,1859.6,1256.9,673.3,572.2,1389.4,934.7,3477.1,3480.7,793.5,943.2,418.4,3505.1,1001.3,884.8,3489.2,3477.1,411.4,655.4,481.4,550.6,281.3,281.3,3479.5,3484.4,630.3,647.3,764.5,1244.4,1659.6,454.5,1.0,12.0,-12.0,9138.0,12392.0,5005.0,2515.0,-13.0,78.0,11.0,17.0,-28.0,3.0,10597.0,11841.0,3667.0,1578.0,9.0,-2.0,4.0,1.0
2022-05-08 14:25:25.218809-07:00,950.9,1163.8,1861.5,1266.7,673.3,572.2,1389.4,933.9,3477.1,3479.5,802.7,942.4,418.4,3505.1,1001.3,884.8,3479.5,3477.1,411.4,655.4,475.8,548.2,278.3,281.3,3483.2,3484.4,630.3,647.3,773.6,1256.9,1684.3,454.5,-15.0,-1.0,12.0,9140.0,12384.0,5007.0,2543.0,-28.0,27.0,67.0,21.0,-30.0,20.0,10599.0,11839.0,3664.0,1582.0,11.0,11.0,13.0,1.0
2022-05-08 14:25:25.279067-07:00,956.0,1171.8,1861.5,1266.7,666.0,575.4,1388.5,933.9,3479.5,3483.2,802.7,942.4,412.1,3501.4,1139.2,884.8,3479.5,3478.3,409.8,657.0,475.8,548.2,282.1,279.0,3483.2,3478.3,635.9,652.2,773.6,1256.9,1864.5,458.5,-1.0,12.0,-13.0,9160.0,12385.0,4957.0,2565.0,-92.0,-61.0,108.0,21.0,-20.0,3.0,10587.0,11849.0,3664.0,1593.0,37.0,16.0,11.0,1.0
2022-05-08 14:25:25.338890-07:00,956.0,1171.8,1872.3,1295.4,666.0,575.4,1393.9,934.7,3479.5,3483.2,868.8,949.2,412.1,3501.4,1396.7,927.1,3479.5,3477.1,409.8,657.0,477.4,548.2,282.1,279.0,3480.7,3483.2,635.9,652.2,781.9,1282.8,1864.5,458.5,6.0,-17.0,5.0,9224.0,12358.0,4895.0,2585.0,-189.0,-94.0,79.0,20.0,-30.0,19.0,10593.0,11846.0,3654.0,1597.0,-35.0,-26.0,21.0,1.0
2022-05-08 14:25:25.368761-07:00,947.5,1168.2,1872.3,1295.4,673.3,577.0,1393.9,934.7,3477.1,3468.6,868.8,949.2,416.8,3502.7,1396.7,927.1,3479.5,3477.1,405.9,652.2,477.4,548.2,282.9,280.6,3480.7,3483.2,634.3,645.7,781.9,1282.8,2167.7,454.5,8.0,-23.0,-26.0,9291.0,12349.0,4790.0,2583.0,-96.0,-263.0,175.0,11.0,-39.0,-25.0,10595.0,11848.0,3640.0,1604.0,11.0,-21.0,44.0,1.0
2022-05-08 14:25:25.429113-07:00,947.5,1168.2,1902.6,1330.5,673.3,577.0,1385.7,938.1,3477.1,3468.6,978.2,952.6,416.8,3502.7,1512.5,944.1,3479.5,3472.2,405.9,652.2,480.6,545.8,282.9,280.6,3481.9,3478.3,634.3,645.7,780.3,1341.3,2167.7,454.5,-2.0,11.0,31.0,9351.0,12337.0,4705.0,2581.0,-226.0,-117.0,84.0,26.0,-26.0,21.0,10616.0,11838.0,3612.0,1600.0,-84.0,-66.0,18.0,1.0
2022-05-08 14:25:25.488880-07:00,948.3,1158.6,1902.6,1330.5,673.3,584.3,1385.7,938.1,3473.4,3485.6,978.2,952.6,415.3,3501.4,1512.5,944.1,3479.5,3472.2,409.0,657.9,480.6,545.8,277.5,284.4,3481.9,3478.3,640.0,636.7,780.3,1341.3,2357.7,458.5,21.0,0.0,16.0,9411.0,12312.0,4640.0,2599.0,-90.0,-58.0,94.0,20.0,-25.0,-4.0,10630.0,11831.0,3594.0,1595.0,2.0,-41.0,10.0,1.0
2022-05-08 14:25:25.519245-07:00,948.3,1158.6,1909.5,1360.3,673.3,584.3,1390.3,931.3,3473.4,3485.6,1043.5,963.7,415.3,3501.4,1597.4,972.2,3488.0,3481.9,409.0,657.9,479.8,545.8,277.5,284.4,3480.7,3477.1,640.0,636.7,783.6,1427.7,2357.7,458.5,-45.0,-49.0,34.0,9449.0,12282.0,4606.0,2663.0,-235.0,59.0,200.0,21.0,-38.0,45.0,10641.0,11825.0,3586.0,1584.0,-12.0,-24.0,-11.0,1.0
2022-05-08 14:25:25.579023-07:00,946.6,1168.2,1915.4,1360.3,670.9,585.9,1390.3,931.3,3472.2,3485.6,1066.0,963.7,419.2,3496.6,1597.4,972.2,3488.0,3481.9,405.9,660.3,479.8,546.6,282.9,282.1,3480.7,3477.1,647.3,627.0,783.6,1456.2,2410.3,458.5,51.0,52.0,-32.0,9476.0,12306.0,4449.0,2719.0,-63.0,-204.0,306.0,2.0,-29.0,-67.0,10609.0,11859.0,3575.0,1573.0,101.0,-56.0,39.0,1.0
2022-05-08 14:25:25.669813-07:00,946.6,1168.2,1915.4,1373.9,670.9,580.2,1393.0,939.8,3472.2,3485.6,1066.0,967.9,419.2,3496.6,1567.4,978.2,3481.9,3479.5,404.3,660.3,480.6,546.6,282.9,282.1,3479.5,3484.4,653.0,627.0,781.1,1456.2,2410.3,458.5,-22.0,-23.0,40.0,9548.0,12266.0,4380.0,2762.0,-345.0,-6.0,144.0,32.0,-11.0,49.0,10632.0,11852.0,3543.0,1539.0,-98.0,-148.0,-34.0,1.0
2022-05-08 14:25:25.670894-07:00,942.4,1175.3,1904.6,1373.9,677.4,580.2,1393.0,939.8,3467.4,3468.6,1079.0,967.9,414.5,3496.6,1567.4,978.2,3481.9,3479.5,404.3,660.3,480.6,548.2,282.9,284.4,3479.5,3484.4,653.0,619.7,781.1,1464.4,2417.6,456.9,42.0,24.0,-43.0,9621.0,12240.0,4242.0,2840.0,-86.0,-207.0,289.0,16.0,-24.0,-14.0,10628.0,11869.0,3513.0,1508.0,142.0,-62.0,31.0,1.0
2022-05-08 14:25:25.729061-07:00,942.4,1175.3,1904.6,1432.3,677.4,577.8,1393.0,979.0,3467.4,3468.6,1079.0,957.7,414.5,3507.5,1518.0,984.2,3480.7,3483.2,407.5,660.3,480.6,548.2,282.9,284.4,3485.6,3479.5,669.3,619.7,799.4,1464.4,2417.6,456.9,-29.0,-6.0,53.0,9654.0,12227.0,4190.0,2859.0,-224.0,66.0,81.0,16.0,3.0,43.0,10626.0,11880.0,3494.0,1482.0,-93.0,-162.0,-29.0,1.0
2022-05-08 14:25:25.818830-07:00,935.6,1174.4,1896.7,1432.3,677.4,577.8,1393.0,979.0,3477.1,3474.6,1092.1,957.7,416.8,3507.5,1518.0,984.2,3480.7,3483.2,407.5,656.2,480.6,551.4,276.7,287.5,3485.6,3479.5,669.3,609.2,799.4,1496.7,2462.1,462.4,20.0,-64.0,-30.0,9729.0,12165.0,4124.0,2962.0,-265.0,-21.0,232.0,34.0,-85.0,16.0,10680.0,11856.0,3438.0,1413.0,-17.0,-90.0,33.0,1.0
2022-05-08 14:25:25.821617-07:00,935.6,1174.4,1896.7,1474.6,677.4,566.6,1404.9,1016.8,3477.1,3474.6,1092.1,961.1,416.8,3507.5,1487.5,993.6,3483.2,3483.2,408.2,656.2,483.0,551.4,276.7,287.5,3483.2,3478.3,669.3,609.2,807.7,1496.7,2462.1,462.4,1.0,-12.0,24.0,9732.0,12179.0,4070.0,2971.0,-71.0,-19.0,-38.0,28.0,-20.0,22.0,10665.0,11877.0,3421.0,1385.0,-46.0,-83.0,-37.0,1.0
2022-05-08 14:25:25.908620-07:00,939.8,1161.2,1865.4,1488.4,696.2,566.6,1404.9,1016.8,3473.4,3467.4,1103.4,967.9,420.0,3507.5,1487.5,993.6,3483.2,3483.2,408.2,655.4,481.4,555.4,284.4,279.0,3483.2,3478.3,669.3,585.9,806.9,1497.7,2485.5,449.0,8.0,-3.0,-32.0,9765.0,12160.0,4038.0,2984.0,-244.0,-52.0,101.0,7.0,-48.0,-14.0,10700.0,11862.0,3387.0,1327.0,-46.0,-165.0,-21.0,1.0
2022-05-08 14:25:25.938877-07:00,939.8,1161.2,1865.4,1488.4,679.1,559.4,1426.8,1054.8,3473.4,3467.4,1103.4,967.9,416.8,3503.9,1448.8,1000.5,3479.5,3483.2,405.9,662.7,481.4,555.4,284.4,279.0,3485.6,3484.4,659.5,568.2,806.9,1497.7,2485.5,449.0,-19.0,13.0,25.0,9787.0,12149.0,4013.0,2991.0,-6.0,31.0,-21.0,11.0,-13.0,29.0,10702.0,11870.0,3366.0,1292.0,-8.0,-64.0,-29.0,1.0
2022-05-08 14:25:25.968724-07:00,946.6,1163.8,1844.0,1481.0,679.1,559.4,1426.8,1054.8,3481.9,3477.1,1099.0,968.8,416.8,3503.9,1448.8,1000.5,3479.5,3483.2,405.9,662.7,477.4,557.0,281.3,282.1,3485.6,3484.4,659.5,568.2,811.9,1494.9,2511.1,454.5,2.0,15.0,-17.0,9800.0,12137.0,4002.0,3011.0,-113.0,-6.0,90.0,24.0,-37.0,21.0,10724.0,11863.0,3339.0,1243.0,-64.0,-166.0,-54.0,1.0
2022-05-08 14:25:26.058688-07:00,946.6,1163.8,1844.0,1481.0,684.0,552.2,1449.7,1086.8,3481.9,3477.1,1099.0,968.8,418.4,3496.6,1412.2,1001.3,3480.7,3488.0,406.7,657.0,477.4,557.0,281.3,282.1,3477.1,3478.3,664.4,552.2,811.9,1494.9,2511.1,454.5,21.0,19.0,-14.0,9823.0,12131.0,3972.0,3004.0,154.0,-145.0,-33.0,23.0,-18.0,-6.0,10737.0,11858.0,3326.0,1208.0,-9.0,-64.0,-67.0,1.0
2022-05-08 14:25:26.118794-07:00,947.5,1137.5,1847.9,1480.1,684.0,552.2,1449.7,1086.8,3471.0,3462.5,1112.1,971.3,418.4,3496.6,1412.2,1001.3,3480.7,3488.0,406.7,657.0,480.6,555.4,276.0,269.9,3477.1,3478.3,664.4,552.2,814.4,1482.9,2467.4,454.5,-6.0,-21.0,-4.0,9824.0,12154.0,3937.0,2949.0,-161.0,-148.0,68.0,11.0,-39.0,12.0,10768.0,11840.0,3310.0,1159.0,-81.0,-175.0,-36.0,1.0
2022-05-08 14:25:26.120301-07:00,947.5,1137.5,1847.9,1480.1,683.1,550.6,1448.8,1114.7,3471.0,3462.5,1112.1,971.3,418.4,3507.5,1384.8,1003.0,3488.0,3479.5,412.9,657.0,480.6,555.4,276.0,269.9,3488.0,3479.5,664.4,533.8,814.4,1482.9,2467.4,454.5,19.0,9.0,8.0,9857.0,12151.0,3883.0,2927.0,-4.0,-80.0,-8.0,32.0,-16.0,2.0,10783.0,11838.0,3285.0,1113.0,32.0,-67.0,-33.0,1.0
2022-05-08 14:25:26.178718-07:00,939.0,1119.1,1845.0,1479.2,683.1,550.6,1448.8,1144.5,3475.9,3477.1,1126.1,977.3,418.4,3507.5,1384.8,991.9,3477.1,3479.5,412.9,657.0,482.2,556.2,271.4,277.5,3479.5,3479.5,664.4,533.8,821.0,1461.7,2449.4,460.0,6.0,-7.0,6.0,9881.0,12145.0,3857.0,2903.0,-71.0,-87.0,25.0,20.0,-30.0,14.0,10801.0,11827.0,3272.0,1087.0,-48.0,-83.0,-35.0,1.0
2022-05-08 14:25:26.239138-07:00,937.3,1119.1,1845.0,1479.2,684.8,537.0,1458.9,1144.5,3467.4,3477.1,1126.1,977.3,415.3,3494.1,1350.3,991.9,3477.1,3483.2,411.4,663.6,482.2,556.2,271.4,273.7,3479.5,3481.9,666.0,524.2,821.0,1461.7,2449.4,463.2,4.0,-20.0,-7.0,9915.0,12131.0,3829.0,2882.0,23.0,-113.0,-32.0,13.0,-41.0,6.0,10816.0,11820.0,3256.0,1057.0,-17.0,-41.0,-28.0,1.0
2022-05-08 14:25:26.268460-07:00,937.3,1109.5,1809.0,1452.5,684.8,537.0,1458.9,1185.0,3467.4,3472.2,1127.0,978.2,415.3,3494.1,1350.3,986.7,3478.3,3483.2,411.4,663.6,479.8,563.4,276.7,273.7,3485.6,3481.9,666.0,524.2,836.9,1457.1,2409.2,463.2,1.0,-1.0,0.0,9926.0,12139.0,3810.0,2836.0,-44.0,-131.0,-32.0,21.0,-30.0,16.0,10814.0,11826.0,3252.0,1034.0,-1.0,-47.0,-26.0,1.0
2022-05-08 14:25:26.328678-07:00,932.2,1109.5,1809.0,1452.5,672.5,539.4,1470.9,1185.0,3475.9,3472.2,1127.0,978.2,413.7,3494.1,1325.0,986.7,3478.3,3479.5,411.4,661.1,479.8,563.4,276.7,272.9,3485.6,3480.7,665.2,516.3,836.9,1457.1,2409.2,466.4,18.0,1.0,-9.0,9968.0,12127.0,3779.0,2780.0,-91.0,-163.0,-77.0,16.0,-39.0,-26.0,10832.0,11816.0,3237.0,1005.0,-46.0,-101.0,-35.0,1.0
2022-05-08 14:25:26.388639-07:00,932.2,1125.2,1797.4,1433.2,672.5,539.4,1470.9,1211.5,3475.9,3483.2,1120.9,970.5,413.7,3494.1,1325.0,985.9,3481.9,3479.5,411.4,661.1,477.4,557.8,274.4,272.9,3477.1,3480.7,665.2,516.3,852.8,1451.6,2378.7,466.4,1.0,-7.0,18.0,9991.0,12119.0,3777.0,2732.0,-14.0,-69.0,-60.0,18.0,-24.0,11.0,10838.0,11812.0,3236.0,990.0,11.0,-30.0,-17.0,1.0
2022-05-08 14:25:26.448626-07:00,929.6,1125.2,1797.4,1433.2,681.5,532.2,1462.6,1211.5,3472.2,3483.2,1120.9,970.5,418.4,3490.5,1297.2,985.9,3481.9,3478.3,407.5,657.9,477.4,557.8,274.4,276.7,3477.1,3483.2,661.9,506.7,852.8,1451.6,2378.7,472.7,2.0,-7.0,10.0,10002.0,12115.0,3785.0,2704.0,20.0,-30.0,-66.0,21.0,-30.0,-7.0,10840.0,11810.0,3237.0,983.0,1.0,-8.0,-26.0,1.0
2022-05-08 14:25:26.478258-07:00,929.6,1127.0,1782.9,1416.7,681.5,532.2,1471.8,1208.0,3472.2,3478.3,1113.9,979.9,418.4,3490.5,1271.2,976.5,3479.5,3469.8,407.5,657.9,479.8,557.8,274.4,276.7,3480.7,3473.4,661.9,506.7,868.8,1434.1,2314.9,472.7,11.0,-9.0,14.0,9993.0,12123.0,3796.0,2682.0,41.0,6.0,-25.0,19.0,-29.0,-3.0,10837.0,11812.0,3241.0,979.0,18.0,4.0,-11.0,1.0
2022-05-08 14:25:26.538363-07:00,921.1,1112.1,1782.9,1416.7,679.1,531.4,1471.8,1208.0,3480.7,3472.2,1113.9,979.9,416.8,3506.3,1271.2,976.5,3479.5,3469.8,410.6,659.5,479.8,557.8,272.1,275.2,3480.7,3473.4,668.4,498.8,868.8,1434.1,2273.4,473.5,-3.0,-2.0,2.0,9982.0,12129.0,3808.0,2682.0,35.0,-10.0,-7.0,14.0,-22.0,28.0,10831.0,11816.0,3246.0,984.0,14.0,7.0,-6.0,1.0
2022-05-08 14:25:26.598425-07:00,921.1,1112.1,1760.8,1404.0,679.1,531.4,1459.8,1205.3,3480.7,3472.2,1112.1,983.3,416.8,3506.3,1249.7,975.6,3480.7,3480.7,410.6,659.5,483.0,561.0,272.1,275.2,3483.2,3481.9,668.4,498.8,860.4,1423.1,2273.4,473.5,5.0,5.0,7.0,9969.0,12136.0,3816.0,2687.0,35.0,58.0,-22.0,16.0,-29.0,-12.0,10829.0,11816.0,3249.0,990.0,-4.0,44.0,-12.0,1.0
2022-05-08 14:25:26.628201-07:00,920.3,1106.9,1760.8,1404.0,679.9,525.0,1459.8,1205.3,3473.4,3473.4,1112.1,983.3,420.8,3497.8,1249.7,975.6,3480.7,3480.7,412.9,657.9,483.0,561.0,270.6,272.1,3483.2,3481.9,666.8,499.6,860.4,1423.1,2253.8,474.3,1.0,-1.0,9.0,9948.0,12142.0,3846.0,2694.0,46.0,51.0,-27.0,17.0,-18.0,30.0,10817.0,11822.0,3267.0,1000.0,34.0,43.0,-12.0,1.0
2022-05-08 14:25:26.688746-07:00,920.3,1106.9,1743.5,1404.0,679.9,525.0,1458.0,1199.1,3473.4,3473.4,1097.3,980.7,420.8,3497.8,1248.0,965.4,3472.2,3480.7,412.9,657.9,479.0,559.4,270.6,272.1,3478.3,3483.2,666.8,499.6,853.7,1417.6,2253.8,474.3,1.0,-2.0,-10.0,9936.0,12146.0,3857.0,2702.0,15.0,19.0,21.0,8.0,-25.0,15.0,10811.0,11825.0,3274.0,1006.0,14.0,-2.0,-2.0,1.0
2022-05-08 14:25:26.778367-07:00,913.5,1099.0,1743.5,1404.0,679.9,522.6,1458.0,1199.1,3478.3,3478.3,1097.3,980.7,416.1,3489.2,1248.0,965.4,3472.2,3480.7,411.4,657.9,479.0,559.4,270.6,266.8,3478.3,3483.2,661.9,494.8,853.7,1417.6,2254.8,471.1,-1.0,-13.0,-1.0,9929.0,12147.0,3868.0,2709.0,33.0,24.0,-13.0,13.0,-36.0,11.0,10812.0,11822.0,3279.0,1011.0,1.0,21.0,-11.0,1.0
2022-05-08 14:25:26.779590-07:00,913.5,1099.0,1729.1,1390.3,679.9,526.6,1464.4,1192.0,3478.3,3478.3,1087.7,983.3,416.1,3502.7,1245.3,967.1,3483.2,3483.2,408.2,657.9,482.2,559.4,270.6,266.8,3480.7,3481.9,656.2,494.8,844.4,1406.7,2254.8,471.1,-5.0,-2.0,6.0,9917.0,12150.0,3882.0,2718.0,29.0,41.0,0.0,11.0,-24.0,20.0,10812.0,11819.0,3285.0,1020.0,12.0,19.0,-9.0,1.0
2022-05-08 14:25:26.838637-07:00,913.5,1090.3,1718.6,1390.3,676.6,526.6,1464.4,1192.0,3475.9,3485.6,1075.6,983.3,417.6,3502.7,1245.3,967.1,3483.2,3483.2,408.2,657.9,482.2,563.4,273.7,279.8,3480.7,3481.9,656.2,494.0,844.4,1401.2,2234.2,470.3,10.0,-6.0,2.0,9908.0,12155.0,3887.0,2721.0,14.0,18.0,-2.0,19.0,-31.0,-14.0,10808.0,11822.0,3287.0,1022.0,8.0,17.0,-3.0,1.0
2022-05-08 14:25:26.868424-07:00,913.5,1090.3,1718.6,1386.6,676.6,519.5,1455.2,1195.6,3475.9,3485.6,1075.6,979.0,417.6,3496.6,1239.1,959.4,3488.0,3481.9,404.3,657.9,481.4,563.4,273.7,279.8,3479.5,3484.4,657.9,494.0,846.1,1401.2,2234.2,470.3,-4.0,-5.0,8.0,9899.0,12159.0,3894.0,2726.0,13.0,18.0,-1.0,9.0,-30.0,3.0,10807.0,11822.0,3290.0,1027.0,1.0,12.0,5.0,1.0
2022-05-08 14:25:26.928468-07:00,912.7,1080.8,1718.6,1386.6,671.7,519.5,1455.2,1195.6,3481.9,3479.5,1077.3,979.0,416.1,3496.6,1239.1,959.4,3488.0,3481.9,404.3,660.3,481.4,558.6,266.0,269.1,3479.5,3484.4,657.9,485.3,846.1,1394.8,2219.8,467.9,3.0,-2.0,0.0,9896.0,12158.0,3898.0,2736.0,5.0,36.0,12.0,16.0,-24.0,12.0,10807.0,11822.0,3291.0,1030.0,9.0,7.0,2.0,1.0
2022-05-08 14:25:26.958585-07:00,912.7,1080.8,1718.6,1408.5,671.7,520.3,1453.4,1185.0,3481.9,3479.5,1077.3,980.7,416.1,3494.1,1225.7,959.4,3477.1,3477.1,404.3,660.3,483.7,558.6,266.0,269.1,3483.2,3477.1,661.9,485.3,836.9,1394.8,2219.8,467.9,7.0,-1.0,0.0,9891.0,12160.0,3900.0,2741.0,1.0,-8.0,-4.0,21.0,-29.0,3.0,10806.0,11823.0,3289.0,1031.0,-9.0,-5.0,-10.0,1.0
2022-05-08 14:25:27.018759-07:00,905.9,1077.3,1733.0,1408.5,676.6,520.3,1453.4,1185.0,3475.9,3468.6,1079.0,980.7,413.7,3494.1,1225.7,959.4,3477.1,3477.1,404.3,660.3,483.7,560.2,266.8,264.5,3483.2,3477.1,661.9,483.0,836.9,1397.6,2212.7,467.9,-1.0,-5.0,13.0,9893.0,12161.0,3897.0,2738.0,-2.0,7.0,-1.0,7.0,-26.0,0.0,10812.0,11818.0,3288.0,1033.0,-12.0,5.0,2.0,1.0
2022-05-08 14:25:27.079173-07:00,905.9,1077.3,1733.0,1376.6,675.0,515.5,1451.6,1179.7,3475.9,3468.6,1079.0,972.2,414.5,3490.5,1234.6,955.1,3477.1,3483.2,409.8,657.9,478.2,560.2,266.8,264.5,3484.4,3484.4,659.5,484.5,841.9,1397.6,2212.7,467.9,0.0,-1.0,5.0,9890.0,12160.0,3901.0,2746.0,1.0,22.0,9.0,10.0,-24.0,12.0,10813.0,11817.0,3289.0,1035.0,5.0,10.0,5.0,1.0
2022-05-08 14:25:27.168623-07:00,903.4,1085.1,1702.4,1368.5,675.0,515.5,1451.6,1179.7,3475.9,3477.1,1067.7,973.9,414.5,3490.5,1234.6,955.1,3477.1,3483.2,409.8,657.9,479.0,558.6,267.6,262.2,3484.4,3484.4,659.5,484.5,838.6,1391.2,2207.5,474.3,9.0,7.0,3.0,9888.0,12161.0,3903.0,2747.0,-5.0,14.0,-12.0,17.0,-26.0,-2.0,10812.0,11817.0,3290.0,1039.0,-2.0,11.0,-4.0,1.0
2022-05-08 14:25:27.169889-07:00,903.4,1085.1,1702.4,1368.5,675.0,520.3,1458.9,1177.9,3475.9,3477.1,1067.7,973.9,416.1,3501.4,1224.8,961.1,3478.3,3474.6,404.3,660.3,479.0,558.6,267.6,262.2,3480.7,3481.9,659.5,482.2,838.6,1391.2,2207.5,474.3,-8.0,-4.0,5.0,9885.0,12158.0,3911.0,2757.0,1.0,28.0,10.0,11.0,-26.0,22.0,10811.0,11817.0,3292.0,1043.0,9.0,14.0,8.0,1.0
2022-05-08 14:25:27.229485-07:00,906.7,1078.2,1700.5,1372.1,675.0,520.3,1458.9,1177.9,3475.9,3477.1,1062.5,970.5,416.1,3501.4,1224.8,961.1,3478.3,3474.6,404.3,660.3,476.6,555.4,268.3,268.3,3480.7,3481.9,659.5,482.2,836.1,1387.5,2201.4,467.1,7.0,5.0,-4.0,9882.0,12161.0,3908.0,2762.0,1.0,11.0,13.0,18.0,-25.0,1.0,10809.0,11818.0,3292.0,1044.0,-1.0,-4.0,5.0,1.0
2022-05-08 14:25:27.259032-07:00,906.7,1078.2,1700.5,1372.1,681.5,513.9,1459.8,1171.8,3475.9,3477.1,1062.5,970.5,417.6,3500.2,1223.0,955.1,3472.2,3477.1,405.9,657.0,476.6,555.4,268.3,268.3,3479.5,3480.7,657.0,480.6,836.1,1387.5,2201.4,467.1,0.0,0.0,2.0,9877.0,12161.0,3914.0,2768.0,16.0,14.0,-4.0,13.0,-24.0,10.0,10808.0,11819.0,3293.0,1046.0,-2.0,10.0,-8.0,1.0
2022-05-08 14:25:27.349162-07:00,905.0,1070.3,1688.1,1374.8,681.5,513.9,1459.8,1171.8,3481.9,3474.6,1060.8,970.5,417.6,3500.2,1223.0,955.1,3472.2,3477.1,405.9,657.0,479.8,559.4,267.6,264.5,3479.5,3480.7,657.0,480.6,829.4,1389.4,2197.3,465.6,5.0,-2.0,8.0,9870.0,12166.0,3918.0,2769.0,20.0,18.0,-3.0,14.0,-22.0,0.0,10807.0,11818.0,3296.0,1049.0,15.0,9.0,-1.0,1.0
2022-05-08 14:25:27.378679-07:00,909.3,1070.3,1688.1,1374.8,676.6,519.5,1452.5,1168.2,3483.2,3474.6,1060.8,970.5,417.6,3500.2,1221.3,952.6,3477.1,3483.2,406.7,655.4,479.8,559.4,267.6,266.0,3481.9,3484.4,654.6,483.7,829.4,1389.4,2197.3,466.4,3.0,-2.0,7.0,9865.0,12166.0,3924.0,2775.0,11.0,28.0,2.0,13.0,-27.0,-1.0,10806.0,11820.0,3296.0,1049.0,2.0,9.0,5.0,1.0
2022-05-08 14:25:27.409047-07:00,909.3,1071.2,1694.8,1370.3,676.6,519.5,1452.5,1167.4,3483.2,3478.3,1061.7,973.1,417.6,3500.2,1221.3,957.7,3472.2,3483.2,406.7,655.4,481.4,557.8,265.3,266.0,3473.4,3484.4,654.6,483.7,830.2,1390.3,2190.1,466.4,-1.0,0.0,-1.0,9861.0,12166.0,3928.0,2784.0,5.0,15.0,10.0,15.0,-22.0,5.0,10806.0,11820.0,3296.0,1049.0,-4.0,7.0,2.0,1.0
2022-05-08 14:25:27.468380-07:00,904.2,1071.2,1694.8,1370.3,671.7,517.9,1453.4,1167.4,3467.4,3478.3,1061.7,973.1,410.6,3499.0,1224.8,957.7,3472.2,3477.1,408.2,666.8,481.4,557.8,265.3,266.8,3473.4,3484.4,660.3,475.0,830.2,1390.3,2190.1,464.8,4.0,2.0,1.0,9861.0,12168.0,3925.0,2783.0,-5.0,-10.0,-5.0,15.0,-30.0,2.0,10806.0,11820.0,3296.0,1049.0,3.0,5.0,-3.0,1.0
