Time,P0,P1,P2,P3,P4,P5,P6,P7,P8,P9,P10,P11,P12,P13,P14,P15,P16,P17,P18,P19,P20,P21,P22,P23,P24,P25,P26,P27,P28,P29,P30,P31,ECG,AX0,AY0,AZ0,QW0,QX0,QY0,QZ0,GX0,GY0,GZ0,AX1,AY1,AZ1,QW1,QX1,QY1,QZ1,GX1,GY1,GZ1
2022-05-08 18:19:22.780436-07:00,830.2,839.4,1259.6,930.5,694.6,453.7,1279.2,831.1,3472.2,3475.9,625.4,856.2,416.1,3496.6,777.8,740.6,3474.6,3478.3,372.4,561.8,400.4,479.8,236.3,240.1,3485.6,3479.5,548.2,467.9,698.7,1041.8,1227.5,549.0,1.0,3.0,0.0,10363.0,10777.0,5358.0,4023.0,9.0,-6.0,-3.0,2.0,0.0,-3.0,11875.0,10550.0,3614.0,1748.0,-4.0,3.0,-1.0,1.0
2022-05-08 18:19:22.781527-07:00,830.2,839.4,1259.6,927.1,694.6,460.8,1264.9,826.0,3472.2,3475.9,634.3,859.5,416.1,3491.7,791.9,738.9,3475.9,3483.2,372.4,561.8,402.0,479.8,236.3,240.1,3477.1,3480.7,539.4,467.9,700.3,1047.0,1227.5,549.0,-3.0,-2.0,-2.0,10360.0,10780.0,5359.0,4022.0,-12.0,5.0,0.0,0.0,-1.0,-7.0,11873.0,10552.0,3615.0,1747.0,-6.0,4.0,-2.0,1.0
2022-05-08 18:19:22.900889-07:00,816.9,836.9,1264.0,927.1,701.1,460.8,1264.9,826.0,3473.4,3473.4,630.3,859.5,412.9,3491.7,791.9,738.9,3475.9,3483.2,372.4,561.8,402.0,485.3,242.4,238.6,3477.1,3480.7,539.4,465.6,700.3,1047.8,1224.8,544.2,1.0,7.0,2.0,10362.0,10780.0,5355.0,4023.0,-11.0,-12.0,6.0,3.0,0.0,-4.0,11875.0,10550.0,3614.0,1748.0,-9.0,0.0,2.0,1.0
2022-05-08 18:19:22.901736-07:00,816.9,836.9,1264.0,927.1,701.1,457.7,1278.3,828.5,3473.4,3473.4,630.3,850.3,412.9,3503.9,783.6,741.4,3479.5,3479.5,370.8,561.8,398.1,485.3,242.4,238.6,3481.9,3477.1,543.4,465.6,698.7,1047.8,1224.8,544.2,1.0,0.0,7.0,10364.0,10778.0,5354.0,4023.0,9.0,1.0,13.0,2.0,-7.0,1.0,11876.0,10549.0,3614.0,1749.0,4.0,9.0,2.0,1.0
2022-05-08 18:19:22.990343-07:00,818.5,842.8,1265.8,927.1,692.9,457.7,1278.3,828.5,3478.3,3474.6,626.2,850.3,413.7,3503.9,783.6,741.4,3479.5,3479.5,370.8,561.8,398.1,485.3,234.8,237.8,3481.9,3477.1,543.4,468.7,698.7,1046.1,1229.3,545.0,1.0,0.0,4.0,10359.0,10785.0,5347.0,4025.0,17.0,-2.0,20.0,1.0,0.0,-7.0,11872.0,10552.0,3618.0,1750.0,13.0,13.0,3.0,1.0
2022-05-08 18:19:22.991333-07:00,818.5,842.8,1265.8,927.9,692.9,459.3,1259.6,834.4,3478.3,3474.6,626.2,859.5,413.7,3499.0,784.4,752.1,3472.2,3479.5,372.4,561.8,399.6,485.3,234.8,237.8,3479.5,3480.7,549.0,468.7,699.5,1046.1,1229.3,545.0,2.0,4.0,-2.0,10353.0,10792.0,5344.0,4027.0,12.0,-1.0,5.0,3.0,0.0,-9.0,11869.0,10553.0,3621.0,1752.0,12.0,9.0,0.0,1.0
2022-05-08 18:19:23.051002-07:00,817.7,836.1,1264.9,929.6,692.9,459.3,1259.6,834.4,3469.8,3478.3,634.3,855.3,411.4,3499.0,784.4,752.1,3472.2,3479.5,372.4,559.4,403.5,483.7,235.5,231.7,3479.5,3480.7,549.0,466.4,699.5,1044.4,1231.9,542.6,-3.0,6.0,-1.0,10348.0,10796.0,5347.0,4025.0,18.0,6.0,-3.0,-1.0,0.0,-3.0,11865.0,10558.0,3621.0,1751.0,17.0,7.0,-8.0,1.0
2022-05-08 18:19:23.080233-07:00,817.7,836.1,1264.9,929.6,694.6,456.1,1274.7,824.4,3469.8,3478.3,634.3,855.3,414.5,3500.2,784.4,744.7,3481.9,3481.9,366.9,558.6,403.5,483.7,235.5,231.7,3475.9,3488.0,547.4,467.1,699.5,1044.4,1231.9,542.6,-6.0,-2.0,0.0,10347.0,10798.0,5347.0,4024.0,-2.0,-3.0,5.0,0.0,-6.0,-1.0,11864.0,10559.0,3621.0,1750.0,-7.0,0.0,-1.0,1.0
2022-05-08 18:19:23.140405-07:00,811.0,846.1,1269.4,927.9,694.6,456.1,1274.7,824.4,3480.7,3479.5,625.4,859.5,414.5,3500.2,784.4,744.7,3481.9,3481.9,366.9,558.6,403.5,483.7,237.1,231.7,3475.9,3488.0,547.4,467.1,699.5,1049.6,1231.9,542.6,-2.0,-2.0,1.0,10348.0,10796.0,5347.0,4025.0,-16.0,-5.0,-4.0,-2.0,-5.0,-10.0,11866.0,10558.0,3621.0,1751.0,-11.0,0.0,-4.0,1.0
2022-05-08 18:19:23.200499-07:00,811.0,846.1,1269.4,927.9,692.9,455.3,1259.6,827.7,3480.7,3479.5,625.4,859.5,413.7,3507.5,785.2,745.5,3488.0,3480.7,369.3,561.0,403.5,483.7,237.1,231.7,3483.2,3485.6,544.2,466.4,699.5,1049.6,1231.9,542.6,0.0,2.0,0.0,10348.0,10795.0,5348.0,4027.0,-2.0,8.0,8.0,1.0,-4.0,-4.0,11866.0,10557.0,3621.0,1751.0,-7.0,7.0,4.0,1.0
2022-05-08 18:19:23.230371-07:00,813.5,837.7,1260.4,918.6,692.9,455.3,1259.6,827.7,3473.4,3474.6,627.0,852.8,413.7,3507.5,785.2,745.5,3488.0,3480.7,369.3,561.0,396.5,482.2,231.7,240.1,3483.2,3485.6,544.2,466.4,702.8,1045.2,1228.4,541.8,11.0,0.0,1.0,10351.0,10792.0,5346.0,4029.0,-10.0,5.0,11.0,8.0,-3.0,-3.0,11868.0,10554.0,3621.0,1752.0,-4.0,6.0,4.0,1.0
2022-05-08 18:19:23.320238-07:00,813.5,837.7,1260.4,918.6,688.9,453.7,1269.4,847.0,3473.4,3474.6,627.0,852.8,416.1,3500.2,786.9,744.7,3477.1,3478.3,368.5,561.0,396.5,482.2,231.7,240.1,3477.1,3479.5,543.4,467.9,702.8,1045.2,1228.4,541.8,9.0,2.0,-2.0,10351.0,10793.0,5345.0,4031.0,-10.0,5.0,2.0,4.0,3.0,-6.0,11869.0,10554.0,3621.0,1752.0,-14.0,0.0,-1.0,1.0
2022-05-08 18:19:23.380271-07:00,819.4,841.9,1263.1,918.6,688.9,453.7,1269.4,831.1,3473.4,3474.6,628.6,849.5,416.1,3500.2,786.9,742.2,3486.8,3478.3,368.5,561.0,402.0,483.0,236.3,237.8,3483.2,3479.5,543.4,467.9,700.3,1039.2,1226.6,547.4,0.0,5.0,0.0,10351.0,10793.0,5341.0,4036.0,0.0,-14.0,18.0,1.0,1.0,-1.0,11871.0,10552.0,3620.0,1753.0,-1.0,4.0,3.0,1.0
2022-05-08 18:19:23.381309-07:00,814.4,841.9,1263.1,918.6,699.5,456.1,1267.6,831.1,3467.4,3474.6,628.6,849.5,412.9,3502.7,779.4,742.2,3486.8,3480.7,373.9,553.8,402.0,483.0,236.3,236.3,3483.2,3477.1,545.0,464.0,700.3,1039.2,1226.6,549.0,-7.0,-6.0,2.0,10355.0,10796.0,5328.0,4034.0,-20.0,-26.0,21.0,0.0,-1.0,0.0,11874.0,10548.0,3620.0,1754.0,-24.0,-4.0,4.0,1.0
2022-05-08 18:19:23.440363-07:00,814.4,841.9,1252.4,925.4,699.5,456.1,1267.6,830.2,3467.4,3478.3,627.8,853.7,412.9,3502.7,779.4,738.9,3489.2,3480.7,373.9,553.8,402.0,486.9,235.5,236.3,3483.2,3477.1,545.0,464.0,697.0,1039.2,1224.8,549.0,-2.0,9.0,-3.0,10359.0,10804.0,5301.0,4036.0,-12.0,-50.0,62.0,-3.0,0.0,-2.0,11876.0,10546.0,3616.0,1758.0,-11.0,-8.0,16.0,1.0
2022-05-08 18:19:23.500309-07:00,813.5,841.9,1252.4,925.4,691.3,456.1,1273.0,830.2,3471.0,3478.3,627.8,853.7,412.9,3502.7,782.7,738.9,3489.2,3478.3,374.7,564.2,402.0,486.9,235.5,234.8,3483.2,3478.3,543.4,469.5,697.0,1039.2,1224.8,544.2,7.0,7.0,0.0,10367.0,10812.0,5271.0,4037.0,-6.0,-50.0,36.0,4.0,-2.0,-7.0,11878.0,10545.0,3612.0,1761.0,-1.0,0.0,8.0,1.0
2022-05-08 18:19:23.530369-07:00,813.5,841.1,1264.0,927.9,691.3,456.1,1273.0,828.5,3471.0,3481.9,629.5,851.1,412.9,3502.7,782.7,746.3,3475.9,3478.3,374.7,564.2,399.6,483.0,235.5,234.8,3480.7,3478.3,543.4,469.5,698.7,1045.2,1226.6,544.2,-2.0,-3.0,6.0,10371.0,10817.0,5258.0,4028.0,0.0,-32.0,0.0,2.0,4.0,-2.0,11878.0,10545.0,3612.0,1761.0,6.0,-2.0,1.0,1.0
2022-05-08 18:19:23.590242-07:00,814.4,841.1,1264.0,927.9,692.9,460.8,1268.5,828.5,3477.1,3481.9,629.5,851.1,412.9,3503.9,795.2,746.3,3475.9,3480.7,366.2,556.2,399.6,483.0,235.5,234.0,3480.7,3478.3,542.6,468.7,698.7,1045.2,1226.6,541.0,0.0,7.0,-1.0,10373.0,10821.0,5250.0,4023.0,-3.0,-18.0,8.0,0.0,0.0,-2.0,11878.0,10545.0,3612.0,1761.0,-2.0,-8.0,0.0,1.0
2022-05-08 18:19:23.650392-07:00,814.4,844.4,1262.2,929.6,692.9,460.8,1268.5,824.4,3477.1,3474.6,627.8,858.7,412.9,3503.9,782.7,744.7,3488.0,3480.7,366.2,556.2,403.5,482.2,237.8,234.0,3484.4,3477.1,542.6,468.7,706.0,1048.7,1229.3,541.0,-1.0,6.0,8.0,10374.0,10822.0,5248.0,4021.0,3.0,0.0,-6.0,1.0,-1.0,-2.0,11878.0,10545.0,3612.0,1761.0,0.0,0.0,-3.0,1.0
2022-05-08 18:19:23.680562-07:00,816.9,846.1,1262.2,929.6,690.5,458.5,1268.5,824.4,3467.4,3473.4,627.8,858.7,414.5,3507.5,782.7,744.7,3488.0,3480.7,371.6,556.2,403.5,482.2,235.5,237.8,3484.4,3477.1,543.4,467.1,706.0,1048.7,1216.8,555.4,0.0,5.0,5.0,10374.0,10822.0,5248.0,4021.0,7.0,4.0,0.0,2.0,0.0,-2.0,11878.0,10545.0,3612.0,1761.0,7.0,9.0,-1.0,1.0
2022-05-08 18:19:23.740366-07:00,816.9,846.1,1259.6,927.1,690.5,458.5,1267.6,832.7,3467.4,3473.4,627.0,852.8,414.5,3507.5,781.1,742.2,3467.4,3475.9,371.6,556.2,405.1,483.7,235.5,237.8,3473.4,3475.9,543.4,467.1,700.3,1043.5,1216.8,555.4,-1.0,1.0,1.0,10370.0,10824.0,5250.0,4021.0,8.0,12.0,-3.0,1.0,-4.0,-5.0,11877.0,10546.0,3612.0,1761.0,3.0,5.0,-3.0,1.0
2022-05-08 18:19:23.800705-07:00,811.9,845.3,1259.6,927.1,692.9,453.0,1267.6,832.7,3479.5,3478.3,627.0,852.8,414.5,3499.0,781.1,742.2,3467.4,3475.9,370.8,556.2,405.1,483.7,240.9,244.7,3473.4,3475.9,544.2,468.7,700.3,1043.5,1225.7,547.4,1.0,0.0,0.0,10369.0,10823.0,5252.0,4023.0,5.0,-2.0,0.0,3.0,-3.0,-8.0,11877.0,10546.0,3612.0,1761.0,4.0,-2.0,-1.0,1.0
2022-05-08 18:19:23.830233-07:00,811.9,845.3,1264.0,926.2,692.9,453.0,1267.6,821.0,3479.5,3478.3,624.6,854.5,414.5,3499.0,784.4,741.4,3478.3,3475.9,370.8,556.2,401.2,482.2,240.9,244.7,3474.6,3480.7,544.2,468.7,699.5,1049.6,1225.7,547.4,4.0,3.0,6.0,10369.0,10823.0,5252.0,4023.0,-5.0,-1.0,2.0,3.0,-2.0,-4.0,11877.0,10546.0,3612.0,1761.0,3.0,0.0,-2.0,1.0
2022-05-08 18:19:23.890257-07:00,816.9,841.9,1264.0,926.2,694.6,454.5,1267.6,821.0,3472.2,3480.7,624.6,854.5,413.7,3492.9,784.4,741.4,3478.3,3475.9,372.4,559.4,401.2,482.2,231.7,230.2,3474.6,3480.7,544.2,464.8,699.5,1049.6,1223.9,538.6,0.0,0.0,3.0,10364.0,10829.0,5254.0,4020.0,13.0,3.0,-9.0,1.0,0.0,-7.0,11874.0,10550.0,3613.0,1760.0,6.0,5.0,-7.0,1.0
2022-05-08 18:19:23.950491-07:00,816.9,841.9,1260.4,924.5,694.6,455.3,1272.1,826.9,3472.2,3480.7,627.8,855.3,413.7,3497.8,785.2,739.7,3478.3,3477.1,372.4,559.4,398.1,481.4,231.7,230.2,3477.1,3478.3,542.6,464.8,701.1,1046.1,1223.9,538.6,-2.0,3.0,4.0,10363.0,10830.0,5251.0,4022.0,9.0,1.0,14.0,0.0,0.0,-3.0,11874.0,10550.0,3613.0,1760.0,4.0,3.0,-1.0,1.0
2022-05-08 18:19:23.980684-07:00,815.2,839.4,1255.1,924.5,695.4,455.3,1272.1,826.9,3473.4,3474.6,626.2,855.3,411.4,3497.8,785.2,739.7,3478.3,3477.1,372.4,560.2,398.1,482.2,231.7,234.0,3477.1,3478.3,542.6,463.2,701.1,1040.1,1228.4,541.8,0.0,-1.0,4.0,10361.0,10830.0,5253.0,4024.0,13.0,13.0,-6.0,3.0,-2.0,-4.0,11874.0,10550.0,3614.0,1760.0,12.0,12.0,-4.0,1.0
2022-05-08 18:19:24.070529-07:00,815.2,839.4,1255.1,926.2,695.4,455.3,1273.0,831.1,3473.4,3474.6,626.2,856.2,411.4,3494.1,782.7,745.5,3484.4,3483.2,366.9,560.2,402.8,482.2,231.7,234.0,3471.0,3488.0,541.0,463.2,697.0,1040.1,1228.4,541.8,1.0,5.0,3.0,10355.0,10833.0,5258.0,4026.0,6.0,19.0,-2.0,1.0,-3.0,-7.0,11870.0,10552.0,3618.0,1763.0,-3.0,14.0,-3.0,1.0
2022-05-08 18:19:24.100893-07:00,811.0,849.5,1264.0,926.2,694.6,455.3,1273.0,831.1,3472.2,3468.6,628.6,856.2,415.3,3494.1,782.7,745.5,3484.4,3483.2,366.9,558.6,402.8,479.8,234.8,241.6,3471.0,3488.0,541.0,465.6,697.0,1044.4,1221.3,540.2,1.0,0.0,-6.0,10354.0,10832.0,5260.0,4028.0,4.0,0.0,8.0,2.0,-1.0,-9.0,11870.0,10552.0,3619.0,1764.0,-4.0,-3.0,1.0,1.0
2022-05-08 18:19:24.160248-07:00,811.0,849.5,1264.0,926.2,694.6,456.9,1262.2,824.4,3472.2,3468.6,628.6,852.0,415.3,3494.1,783.6,743.0,3480.7,3474.6,368.5,558.6,398.1,479.8,234.8,241.6,3477.1,3483.2,539.4,465.6,701.9,1044.4,1221.3,540.2,-1.0,0.0,0.0,10354.0,10832.0,5260.0,4028.0,-2.0,-2.0,-1.0,1.0,-1.0,-5.0,11870.0,10552.0,3619.0,1764.0,-6.0,-6.0,-3.0,1.0
2022-05-08 18:19:24.190289-07:00,816.0,840.3,1259.6,926.2,688.0,456.9,1262.2,824.4,3473.4,3467.4,626.2,852.0,417.6,3494.1,783.6,743.0,3480.7,3474.6,368.5,561.0,398.1,485.3,234.8,238.6,3477.1,3483.2,539.4,466.4,701.9,1040.1,1223.9,545.0,-1.0,2.0,4.0,10355.0,10832.0,5259.0,4028.0,-14.0,-8.0,6.0,1.0,-5.0,-7.0,11872.0,10549.0,3619.0,1765.0,-10.0,-3.0,1.0,1.0
2022-05-08 18:19:24.250413-07:00,816.0,840.3,1259.6,920.3,692.9,455.3,1269.4,823.5,3473.4,3467.4,626.2,855.3,412.1,3492.9,779.4,738.9,3480.7,3471.0,368.5,556.2,403.5,485.3,234.8,238.6,3479.5,3478.3,542.6,465.6,699.5,1040.1,1223.9,545.0,0.0,4.0,5.0,10354.0,10832.0,5260.0,4028.0,5.0,3.0,-3.0,1.0,-3.0,-4.0,11872.0,10549.0,3619.0,1765.0,4.0,3.0,-3.0,1.0
2022-05-08 18:19:24.280733-07:00,819.4,842.8,1260.4,924.5,692.9,455.3,1269.4,823.5,3472.2,3469.8,627.0,851.1,412.1,3492.9,779.4,738.9,3480.7,3471.0,368.5,556.2,401.2,486.9,237.1,236.3,3479.5,3478.3,542.6,465.6,698.7,1042.6,1228.4,541.8,0.0,3.0,5.0,10354.0,10832.0,5261.0,4029.0,5.0,12.0,-1.0,2.0,-4.0,-2.0,11872.0,10549.0,3619.0,1765.0,0.0,10.0,-1.0,1.0
2022-05-08 18:19:24.340856-07:00,819.4,842.8,1260.4,924.5,690.5,455.3,1268.5,828.5,3472.2,3469.8,627.0,851.1,417.6,3491.7,780.3,741.4,3479.5,3477.1,370.8,561.0,401.2,486.9,237.1,236.3,3488.0,3485.6,543.4,463.2,698.7,1042.6,1228.4,541.8,0.0,0.0,3.0,10353.0,10832.0,5261.0,4029.0,4.0,2.0,-6.0,2.0,-4.0,-6.0,11872.0,10549.0,3619.0,1765.0,-1.0,5.0,-4.0,1.0
2022-05-08 18:19:24.370426-07:00,816.0,838.6,1254.2,929.6,690.5,455.3,1268.5,828.5,3477.1,3478.3,627.8,853.7,417.6,3491.7,780.3,741.4,3479.5,3477.1,370.8,561.0,401.2,479.8,237.8,233.3,3488.0,3485.6,543.4,463.2,699.5,1043.5,1223.9,546.6,0.0,3.0,0.0,10353.0,10832.0,5261.0,4029.0,4.0,2.0,5.0,1.0,-3.0,-6.0,11872.0,10549.0,3619.0,1765.0,1.0,8.0,3.0,1.0
2022-05-08 18:19:24.430966-07:00,816.0,838.6,1254.2,929.6,692.1,453.0,1271.2,827.7,3477.1,3478.3,627.8,853.7,413.7,3499.0,776.1,745.5,3481.9,3483.2,367.7,557.8,401.2,479.8,237.8,233.3,3486.8,3475.9,540.2,466.4,699.5,1043.5,1223.9,546.6,0.0,2.0,0.0,10353.0,10832.0,5261.0,4029.0,4.0,-4.0,2.0,1.0,2.0,-4.0,11872.0,10549.0,3619.0,1765.0,-3.0,1.0,-3.0,1.0
2022-05-08 18:19:24.520352-07:00,818.5,842.8,1265.8,918.6,692.1,453.0,1271.2,827.7,3480.7,3472.2,627.0,856.2,413.7,3499.0,776.1,745.5,3481.9,3483.2,367.7,557.8,403.5,479.8,237.1,231.7,3486.8,3475.9,540.2,466.4,706.0,1042.6,1215.1,544.2,0.0,2.0,3.0,10353.0,10832.0,5261.0,4029.0,-3.0,-2.0,-1.0,0.0,0.0,-8.0,11872.0,10549.0,3619.0,1765.0,2.0,0.0,1.0,1.0
2022-05-08 18:19:24.521411-07:00,815.2,842.8,1265.8,918.6,690.5,454.5,1268.5,822.7,3472.2,3472.2,627.0,856.2,413.7,3495.3,782.7,751.3,3477.1,3488.0,370.0,563.4,403.5,479.8,237.1,235.5,3478.3,3480.7,544.2,466.4,706.0,1042.6,1215.1,540.2,1.0,4.0,3.0,10353.0,10832.0,5261.0,4029.0,4.0,-6.0,4.0,2.0,-1.0,-8.0,11872.0,10549.0,3619.0,1765.0,-4.0,-2.0,-2.0,1.0
2022-05-08 18:19:24.580664-07:00,815.2,841.9,1252.4,929.6,690.5,454.5,1268.5,830.2,3472.2,3468.6,626.2,857.0,413.7,3495.3,782.7,748.8,3489.2,3488.0,370.0,563.4,396.5,481.4,234.8,235.5,3480.7,3480.7,544.2,466.4,694.6,1044.4,1224.8,540.2,0.0,5.0,7.0,10353.0,10831.0,5262.0,4030.0,-14.0,14.0,3.0,1.0,-1.0,0.0,11872.0,10549.0,3619.0,1765.0,-7.0,5.0,3.0,1.0
2022-05-08 18:19:24.670138-07:00,813.5,841.9,1252.4,929.6,692.1,461.6,1265.8,830.2,3479.5,3468.6,626.2,857.0,414.5,3491.7,777.8,748.8,3489.2,3480.7,370.0,557.0,396.5,481.4,234.8,235.5,3480.7,3480.7,544.2,464.0,694.6,1044.4,1224.8,541.8,1.0,0.0,3.0,10353.0,10830.0,5263.0,4032.0,9.0,5.0,-1.0,1.0,2.0,-8.0,11871.0,10550.0,3619.0,1765.0,2.0,7.0,1.0,1.0
2022-05-08 18:19:24.671286-07:00,813.5,847.0,1255.1,922.0,692.1,461.6,1265.8,823.5,3479.5,3478.3,625.4,854.5,414.5,3491.7,777.8,738.1,3478.3,3480.7,370.0,557.0,401.2,479.8,237.8,235.5,3480.7,3480.7,544.2,464.0,697.0,1046.1,1226.6,541.8,-1.0,1.0,0.0,10354.0,10829.0,5262.0,4033.0,-3.0,4.0,11.0,0.0,-2.0,-11.0,11871.0,10550.0,3619.0,1765.0,-8.0,-1.0,3.0,1.0
2022-05-08 18:19:24.731347-07:00,815.2,847.0,1255.1,922.0,688.0,456.9,1263.1,823.5,3483.2,3478.3,625.4,854.5,414.5,3496.6,786.1,738.1,3478.3,3478.3,371.6,556.2,401.2,479.8,237.8,234.0,3480.7,3473.4,543.4,467.9,697.0,1046.1,1226.6,550.6,0.0,1.0,3.0,10354.0,10830.0,5261.0,4033.0,-11.0,-13.0,4.0,2.0,0.0,-4.0,11872.0,10549.0,3619.0,1765.0,-11.0,-1.0,-2.0,1.0
2022-05-08 18:19:24.820392-07:00,815.2,838.6,1257.8,924.5,688.0,456.9,1263.1,826.0,3483.2,3484.4,627.0,856.2,414.5,3496.6,786.1,741.4,3483.2,3478.3,371.6,556.2,399.6,478.2,236.3,234.0,3474.6,3473.4,543.4,467.9,697.0,1049.6,1225.7,550.6,0.0,6.0,5.0,10356.0,10829.0,5258.0,4033.0,-3.0,-3.0,9.0,1.0,-1.0,1.0,11872.0,10549.0,3619.0,1765.0,-6.0,7.0,-1.0,1.0
2022-05-08 18:19:24.821857-07:00,812.7,836.1,1257.8,924.5,692.1,453.0,1265.8,826.0,3475.9,3478.3,627.0,856.2,416.8,3499.0,783.6,741.4,3483.2,3483.2,370.8,563.4,399.6,478.2,238.6,234.0,3474.6,3480.7,544.2,464.0,697.0,1049.6,1223.9,543.4,0.0,1.0,0.0,10357.0,10829.0,5252.0,4038.0,-1.0,-16.0,35.0,3.0,-3.0,-2.0,11872.0,10549.0,3619.0,1765.0,6.0,1.0,6.0,1.0
2022-05-08 18:19:24.880745-07:00,812.7,836.1,1276.5,929.6,692.1,453.0,1268.5,819.4,3475.9,3478.3,627.8,851.1,416.8,3499.0,788.6,741.4,3481.9,3477.1,370.8,563.4,400.4,479.8,238.6,234.0,3483.2,3479.5,544.2,464.0,701.9,1037.5,1223.9,543.4,0.0,9.0,1.0,10357.0,10834.0,5242.0,4039.0,-7.0,-7.0,4.0,0.0,4.0,-5.0,11872.0,10549.0,3619.0,1765.0,-4.0,0.0,0.0,1.0
2022-05-08 18:19:24.940342-07:00,811.0,840.3,1276.5,929.6,689.7,463.2,1268.5,819.4,3475.9,3469.8,627.8,851.1,414.5,3500.2,788.6,741.4,3481.9,3477.1,370.8,561.0,400.4,479.8,236.3,231.7,3483.2,3479.5,544.2,469.5,701.9,1037.5,1223.9,530.6,0.0,2.0,3.0,10358.0,10833.0,5238.0,4043.0,-13.0,-7.0,21.0,2.0,-3.0,-1.0,11872.0,10549.0,3619.0,1765.0,-3.0,3.0,1.0,1.0
2022-05-08 18:19:24.970618-07:00,811.0,840.3,1263.1,928.8,689.7,463.2,1274.7,828.5,3475.9,3469.8,630.3,855.3,414.5,3500.2,784.4,743.0,3477.1,3480.7,370.8,561.0,400.4,483.0,236.3,231.7,3477.1,3469.8,544.2,469.5,702.8,1043.5,1223.9,530.6,2.0,4.0,8.0,10361.0,10835.0,5229.0,4044.0,11.0,4.0,7.0,3.0,-1.0,-10.0,11871.0,10549.0,3620.0,1766.0,7.0,11.0,-5.0,1.0
2022-05-08 18:19:25.030267-07:00,813.5,837.7,1263.1,928.8,686.4,455.3,1274.7,828.5,3478.3,3478.3,630.3,855.3,417.6,3507.5,784.4,743.0,3477.1,3480.7,372.4,557.0,400.4,483.0,236.3,238.6,3477.1,3469.8,541.8,467.9,702.8,1043.5,1223.9,541.8,3.0,-4.0,3.0,10358.0,10835.0,5233.0,4047.0,6.0,17.0,3.0,2.0,-5.0,-4.0,11871.0,10549.0,3621.0,1767.0,2.0,11.0,-1.0,1.0
2022-05-08 18:19:25.090306-07:00,813.5,837.7,1257.8,926.2,686.4,455.3,1268.5,827.7,3478.3,3478.3,625.4,862.1,417.6,3507.5,783.6,745.5,3472.2,3483.2,372.4,557.0,402.0,486.9,236.3,238.6,3488.0,3478.3,541.8,467.9,700.3,1047.0,1223.9,541.8,0.0,5.0,-3.0,10356.0,10834.0,5236.0,4049.0,-1.0,-2.0,-1.0,1.0,0.0,-10.0,11870.0,10549.0,3622.0,1768.0,3.0,0.0,-2.0,1.0
2022-05-08 18:19:25.120511-07:00,814.4,839.4,1256.0,926.2,690.5,456.1,1268.5,827.7,3474.6,3467.4,626.2,862.1,409.0,3494.1,783.6,745.5,3472.2,3483.2,370.0,559.4,402.0,482.2,237.8,237.1,3488.0,3478.3,537.8,465.6,700.3,1045.2,1222.2,545.0,1.0,0.0,4.0,10356.0,10834.0,5236.0,4049.0,-5.0,-12.0,7.0,3.0,-2.0,0.0,11870.0,10549.0,3622.0,1768.0,-1.0,1.0,1.0,1.0
2022-05-08 18:19:25.180937-07:00,814.4,839.4,1256.0,924.5,690.5,461.6,1264.9,827.7,3474.6,3467.4,626.2,854.5,409.0,3494.1,785.2,740.6,3488.0,3472.2,370.8,559.4,403.5,482.2,237.8,237.1,3485.6,3483.2,541.8,465.6,699.5,1045.2,1222.2,545.0,0.0,7.0,7.0,10355.0,10836.0,5236.0,4047.0,-6.0,1.0,-5.0,1.0,0.0,-2.0,11870.0,10549.0,3622.0,1768.0,-1.0,-1.0,-3.0,1.0
2022-05-08 18:19:25.240267-07:00,819.4,841.9,1260.4,924.5,699.5,461.6,1264.9,827.7,3479.5,3471.0,628.6,854.5,415.3,3494.1,785.2,740.6,3488.0,3472.2,370.8,560.2,403.5,485.3,230.2,237.8,3485.6,3483.2,541.8,468.7,699.5,1044.4,1221.3,537.0,3.0,3.0,0.0,10355.0,10836.0,5236.0,4048.0,15.0,-5.0,3.0,1.0,0.0,-4.0,11870.0,10549.0,3622.0,1768.0,7.0,2.0,-2.0,1.0
2022-05-08 18:19:25.270920-07:00,819.4,841.9,1260.4,918.6,699.5,454.5,1272.1,828.5,3479.5,3471.0,628.6,854.5,415.3,3489.2,785.2,739.7,3478.3,3475.9,369.3,560.2,400.4,485.3,230.2,237.8,3478.3,3472.2,540.2,468.7,702.8,1044.4,1221.3,537.0,1.0,0.0,1.0,10356.0,10835.0,5235.0,4048.0,-10.0,-3.0,10.0,2.0,-2.0,-6.0,11872.0,10548.0,3622.0,1768.0,-8.0,-2.0,-1.0,1.0
2022-05-08 18:19:25.360455-07:00,811.0,838.6,1259.6,918.6,685.6,454.5,1272.1,828.5,3480.7,3472.2,634.3,854.5,413.7,3489.2,785.2,739.7,3478.3,3475.9,369.3,557.8,400.4,479.8,236.3,237.1,3478.3,3472.2,540.2,469.5,702.8,1044.4,1242.6,543.4,8.0,2.0,9.0,10359.0,10833.0,5225.0,4058.0,-129.0,-3.0,98.0,5.0,12.0,-14.0,11872.0,10548.0,3621.0,1767.0,-5.0,-20.0,8.0,1.0
2022-05-08 18:19:25.390276-07:00,811.0,838.6,1259.6,925.4,685.6,452.2,1276.5,831.9,3480.7,3472.2,634.3,854.5,413.7,3494.1,777.8,741.4,3484.4,3475.9,366.9,557.8,400.4,479.8,236.3,237.1,3479.5,3489.2,545.0,469.5,699.5,1044.4,1242.6,543.4,-31.0,-5.0,24.0,10438.0,10777.0,5097.0,4165.0,-612.0,-133.0,484.0,19.0,31.0,92.0,11906.0,10521.0,3584.0,1775.0,-348.0,-95.0,122.0,1.0
2022-05-08 18:19:25.450487-07:00,816.9,841.9,1260.4,926.2,691.3,452.2,1276.5,831.9,3463.7,3466.1,627.0,854.5,416.1,3494.1,777.8,741.4,3484.4,3475.9,366.9,561.0,400.4,479.8,234.8,242.4,3479.5,3489.2,545.0,467.9,699.5,1041.8,1220.4,540.2,-70.0,38.0,-6.0,10731.0,10622.0,4581.0,4414.0,-1375.0,-772.0,1183.0,9.0,121.0,47.0,12069.0,10348.0,3480.0,1891.0,-1047.0,-19.0,342.0,1.0
2022-05-08 18:19:25.780407-07:00,816.9,841.9,1260.4,926.2,688.0,456.9,1286.4,829.4,3463.7,3466.1,627.0,854.5,413.7,3491.7,781.9,742.2,3473.4,3467.4,371.6,560.2,400.4,479.8,234.8,242.4,3485.6,3484.4,540.2,468.7,699.5,1041.8,1220.4,540.2,50.0,121.0,-115.0,11372.0,10220.0,3444.0,4776.0,-3300.0,-1687.0,1765.0,10.0,164.0,-34.0,12459.0,9893.0,3300.0,2111.0,-2117.0,-83.0,231.0,1.0
2022-05-08 18:19:25.781527-07:00,817.7,834.4,1268.5,933.0,688.0,456.9,1286.4,829.4,3474.6,3479.5,628.6,855.3,413.7,3491.7,781.9,742.2,3473.4,3467.4,371.6,560.2,412.1,488.5,235.5,237.1,3485.6,3484.4,540.2,468.7,701.9,1048.7,1300.7,535.4,23.0,-139.0,-83.0,12285.0,9332.0,1896.0,5179.0,-4218.0,-1746.0,1839.0,-38.0,-45.0,-132.0,13149.0,8989.0,2998.0,2396.0,-3067.0,-285.0,468.0,1.0
2022-05-08 18:19:26.170803-07:00,817.7,834.4,1268.5,933.0,685.6,455.3,1310.6,832.7,3474.6,3479.5,628.6,855.3,411.4,3499.0,927.9,762.0,3475.9,3485.6,370.0,562.6,412.1,488.5,235.5,237.1,3478.3,3483.2,548.2,467.1,701.9,1048.7,1300.7,535.4,-1.0,-59.0,22.0,12778.0,8651.0,624.0,5472.0,-1759.0,-1222.0,1447.0,40.0,-129.0,-38.0,13582.0,8307.0,2729.0,2743.0,-984.0,108.0,348.0,1.0
2022-05-08 18:19:26.171831-07:00,816.9,852.0,1276.5,929.6,685.6,455.3,1310.6,832.7,3475.9,3480.7,632.7,857.9,411.4,3499.0,927.9,762.0,3475.9,3485.6,370.0,562.6,420.8,489.3,238.6,234.8,3478.3,3483.2,548.2,467.1,702.8,1081.6,1440.5,541.0,0.0,135.0,-9.0,12819.0,8506.0,-183.0,5632.0,-745.0,-1220.0,1123.0,-54.0,52.0,21.0,13654.0,8110.0,2733.0,2957.0,-338.0,331.0,248.0,1.0
2022-05-08 18:19:26.320770-07:00,819.4,852.0,1276.5,929.6,694.6,452.2,1343.1,833.6,3473.4,3480.7,632.7,857.9,414.5,3495.3,1048.7,781.9,3480.7,3479.5,375.5,565.8,420.8,489.3,238.6,237.8,3481.9,3477.1,541.8,473.5,702.8,1081.6,1440.5,544.2,-44.0,19.0,44.0,12879.0,8326.0,-874.0,5699.0,-940.0,-752.0,841.0,-35.0,-18.0,-8.0,13712.0,7942.0,2765.0,3115.0,-494.0,290.0,150.0,1.0
2022-05-08 18:19:26.321581-07:00,819.4,861.2,1273.9,931.3,694.6,452.2,1343.1,840.3,3473.4,3472.2,632.7,858.7,414.5,3495.3,1048.7,796.0,3477.1,3479.5,375.5,565.8,441.2,490.1,243.2,237.8,3485.6,3477.1,541.8,473.5,706.0,1107.8,1556.2,544.2,-29.0,-54.0,-37.0,12915.0,8149.0,-1468.0,5752.0,-665.0,-986.0,751.0,46.0,-94.0,-37.0,13759.0,7784.0,2786.0,3282.0,-248.0,264.0,243.0,1.0
2022-05-08 18:19:26.322093-07:00,819.4,861.2,1273.9,931.3,694.6,452.2,1343.1,840.3,3473.4,3472.2,632.7,858.7,414.5,3495.3,1048.7,796.0,3477.1,3479.5,375.5,565.8,441.2,490.1,243.2,237.8,3485.6,3477.1,541.8,473.5,706.0,1107.8,1556.2,544.2,-29.0,-54.0,-37.0,12915.0,8149.0,-1468.0,5752.0,-665.0,-986.0,751.0,46.0,-94.0,-37.0,13759.0,7784.0,2786.0,3282.0,-248.0,264.0,243.0,1.0
2022-05-08 18:19:26.323163-07:00,820.2,859.5,1278.3,926.2,701.1,457.7,1390.3,848.6,3473.4,3473.4,644.9,857.0,413.7,3496.6,1281.0,802.7,3480.7,3475.9,395.7,568.2,460.0,487.7,240.1,241.6,3477.1,3488.0,547.4,462.4,701.9,1141.0,1611.5,545.8,-24.0,20.0,24.0,12817.0,8114.0,-2426.0,5696.0,136.0,-472.0,2.0,-2.0,-63.0,-32.0,13684.0,7819.0,2772.0,3517.0,425.0,-10.0,87.0,1.0
2022-05-08 18:19:26.325293-07:00,823.5,872.1,1308.8,951.7,706.9,459.3,1385.7,867.9,3467.4,3477.1,708.5,867.1,415.3,3499.0,1237.3,797.7,3477.1,3484.4,395.7,571.4,474.3,493.2,243.9,244.7,3477.1,3481.9,545.0,470.3,710.1,1186.7,1671.9,543.4,-18.0,30.0,-12.0,12339.0,9211.0,-2212.0,5143.0,664.0,-208.0,-448.0,-4.0,-48.0,29.0,12836.0,9232.0,2917.0,3152.0,784.0,-84.0,-40.0,1.0
2022-05-08 18:19:26.354058-07:00,913.5,857.9,1299.0,951.7,706.9,454.5,1385.7,867.9,3467.4,3477.1,715.1,867.1,417.6,3486.8,1237.3,797.7,3477.1,3484.4,395.7,569.0,474.3,493.2,244.7,243.9,3477.1,3481.9,547.4,467.1,710.1,1184.1,1641.6,549.8,19.0,23.0,6.0,12184.0,9535.0,-2077.0,4976.0,814.0,-168.0,-361.0,8.0,57.0,-63.0,12615.0,9552.0,2971.0,3040.0,872.0,-98.0,-42.0,1.0
2022-05-08 18:19:26.380349-07:00,829.4,861.2,1328.7,939.8,703.6,451.4,1401.2,869.6,3471.0,3472.2,727.4,865.4,414.5,3491.7,1230.2,804.4,3477.1,3481.9,397.3,571.4,471.9,491.7,240.1,242.4,3477.1,3474.6,550.6,460.8,711.8,1171.8,1627.5,587.5,34.0,-40.0,29.0,12017.0,9839.0,-1893.0,4860.0,365.0,-211.0,-129.0,26.0,-14.0,32.0,12357.0,9908.0,3042.0,2884.0,539.0,-4.0,-21.0,1.0
2022-05-08 18:19:26.440704-07:00,829.4,861.2,1328.7,933.9,703.6,451.4,1388.5,871.3,3471.0,3472.2,727.4,860.4,414.5,3505.1,1221.3,804.4,3469.8,3475.9,396.5,571.4,467.1,491.7,240.1,242.4,3469.8,3468.6,546.6,460.8,713.4,1171.8,1627.5,587.5,18.0,-22.0,54.0,11949.0,9959.0,-1813.0,4816.0,344.0,43.0,-205.0,7.0,-8.0,60.0,12262.0,10016.0,3094.0,2863.0,325.0,168.0,-25.0,1.0
2022-05-08 18:19:26.470415-07:00,827.7,856.2,1318.7,933.9,714.2,451.4,1388.5,871.3,3472.2,3475.9,727.4,860.4,411.4,3505.1,1221.3,804.4,3469.8,3475.9,396.5,568.2,467.1,493.2,241.6,243.9,3469.8,3468.6,546.6,456.1,713.4,1181.5,1609.6,644.9,2.0,-42.0,12.0,11908.0,10122.0,-1672.0,4625.0,646.0,-274.0,-751.0,23.0,-117.0,23.0,12156.0,10119.0,3182.0,2851.0,968.0,170.0,-107.0,1.0
2022-05-08 18:19:26.530312-07:00,827.7,856.2,1318.7,934.7,714.2,452.2,1383.0,862.1,3472.2,3475.9,727.4,862.9,411.4,3499.0,1211.5,818.5,3477.1,3478.3,392.6,568.2,467.1,493.2,241.6,243.9,3481.9,3474.6,544.2,456.1,710.1,1181.5,1609.6,644.9,-7.0,57.0,27.0,11673.0,10574.0,-1338.0,4308.0,1361.0,-186.0,-1175.0,-9.0,-60.0,-7.0,11790.0,10508.0,3377.0,2761.0,1598.0,226.0,-169.0,1.0
2022-05-08 18:19:26.590363-07:00,835.2,854.5,1325.0,938.1,714.2,452.2,1383.0,862.1,3469.8,3477.1,734.0,862.9,415.3,3499.0,1211.5,818.5,3477.1,3478.3,392.6,576.2,465.6,490.1,237.8,241.6,3481.9,3474.6,544.2,454.5,711.0,1182.3,1595.5,628.6,-84.0,62.0,-48.0,11362.0,11202.0,-686.0,3661.0,2186.0,-512.0,-2644.0,199.0,-210.0,-37.0,11254.0,11041.0,3635.0,2582.0,2389.0,-9.0,-402.0,1.0
2022-05-08 18:19:26.620665-07:00,835.2,854.5,1325.0,938.1,720.0,449.0,1390.3,873.8,3469.8,3477.1,734.0,862.9,414.5,3501.4,1216.0,814.4,3474.6,3478.3,394.2,572.2,465.6,490.1,237.8,241.6,3474.6,3481.9,549.0,445.9,711.0,1182.3,1595.5,628.6,7.0,43.0,-46.0,10725.0,12066.0,147.0,2791.0,2728.0,-395.0,-1820.0,-21.0,338.0,-209.0,10461.0,11766.0,3961.0,2205.0,2637.0,93.0,-284.0,1.0
2022-05-08 18:19:26.680673-07:00,828.5,859.5,1322.3,930.5,720.0,449.0,1390.3,873.8,3478.3,3475.9,743.9,860.4,414.5,3501.4,1216.0,814.4,3474.6,3478.3,394.2,572.2,462.4,495.6,245.4,243.2,3474.6,3481.9,549.0,445.9,713.4,1179.7,1589.9,639.2,-15.0,-71.0,-43.0,10458.0,12366.0,607.0,2405.0,394.0,26.0,-959.0,89.0,-44.0,-42.0,9971.0,12152.0,4184.0,1964.0,504.0,-97.0,-275.0,1.0
2022-05-08 18:19:26.740385-07:00,828.5,859.5,1322.3,930.5,716.7,444.3,1387.5,888.2,3478.3,3475.9,743.9,860.4,414.5,3486.8,1204.4,807.7,3483.2,3481.9,398.9,572.2,462.4,495.6,245.4,243.2,3484.4,3483.2,543.4,447.4,713.4,1179.7,1589.9,639.2,-15.0,-125.0,-7.0,10357.0,12476.0,874.0,2179.0,600.0,-64.0,-399.0,25.0,51.0,-35.0,9861.0,12237.0,4252.0,1835.0,507.0,-81.0,-12.0,1.0
2022-05-08 18:19:26.770426-07:00,832.7,858.7,1317.8,932.2,716.7,444.3,1387.5,888.2,3475.9,3479.5,754.6,857.9,414.5,3486.8,1204.4,807.7,3483.2,3481.9,398.9,572.2,458.5,498.0,244.7,242.4,3484.4,3483.2,543.4,447.4,711.0,1177.9,1582.4,615.7,-2.0,-28.0,17.0,10371.0,12458.0,867.0,2222.0,-480.0,138.0,292.0,-7.0,-22.0,13.0,9847.0,12263.0,4222.0,1809.0,-460.0,-71.0,110.0,1.0
2022-05-08 18:19:26.830332-07:00,832.7,858.7,1317.8,932.2,712.6,441.2,1386.6,884.8,3475.9,3479.5,754.6,857.9,412.9,3492.9,1202.7,809.4,3477.1,3478.3,403.5,572.2,458.5,498.0,244.7,242.4,3484.4,3483.2,544.2,449.0,711.0,1177.9,1582.4,615.7,10.0,-31.0,17.0,10439.0,12393.0,793.0,2291.0,27.0,-35.0,219.0,5.0,12.0,-6.0,9951.0,12197.0,4149.0,1852.0,-72.0,-37.0,143.0,1.0
2022-05-08 18:19:26.920340-07:00,827.7,849.5,1316.9,933.0,712.6,441.2,1386.6,885.6,3467.4,3472.2,752.1,862.9,412.9,3492.9,1202.7,811.0,3467.4,3478.3,403.5,572.2,453.7,497.2,239.3,246.2,3483.2,3483.2,544.2,449.0,713.4,1154.2,1564.6,614.1,36.0,63.0,28.0,10450.0,12374.0,698.0,2371.0,-398.0,81.0,340.0,4.0,22.0,1.0,10012.0,12159.0,4093.0,1898.0,-439.0,-12.0,85.0,1.0
2022-05-08 18:19:26.921502-07:00,835.2,849.5,1316.9,933.0,719.2,452.2,1356.7,885.6,3472.2,3472.2,752.1,862.9,414.5,3494.1,1191.2,811.0,3467.4,3474.6,395.7,569.8,453.7,497.2,239.3,240.9,3483.2,3477.1,545.0,445.1,713.4,1154.2,1564.6,610.8,2.0,-26.0,26.0,10531.0,12287.0,598.0,2492.0,-68.0,81.0,243.0,2.0,-24.0,-5.0,10114.0,12081.0,4043.0,1960.0,-154.0,28.0,110.0,1.0
2022-05-08 18:19:26.980314-07:00,835.2,849.5,1316.0,936.4,719.2,452.2,1356.7,889.0,3472.2,3478.3,744.7,859.5,414.5,3494.1,1191.2,809.4,3473.4,3474.6,395.7,569.8,455.3,494.0,247.0,240.9,3471.0,3477.1,545.0,445.1,715.1,1163.8,1549.7,610.8,12.0,21.0,32.0,10551.0,12247.0,539.0,2612.0,-385.0,315.0,379.0,-7.0,9.0,-30.0,10199.0,12014.0,3995.0,2026.0,-516.0,1.0,120.0,1.0
2022-05-08 18:19:27.040390-07:00,833.6,849.5,1316.0,936.4,714.2,449.8,1358.5,889.0,3480.7,3478.3,744.7,859.5,414.5,3497.8,1188.5,809.4,3473.4,3478.3,403.5,572.2,455.3,494.0,247.0,238.6,3471.0,3479.5,542.6,442.7,715.1,1163.8,1549.7,607.6,-23.0,-43.0,-16.0,10636.0,12126.0,498.0,2833.0,-70.0,247.0,266.0,-5.0,-38.0,25.0,10343.0,11899.0,3923.0,2114.0,-277.0,-8.0,152.0,1.0
2022-05-08 18:19:27.070433-07:00,833.6,847.8,1320.5,925.4,714.2,449.8,1358.5,964.5,3480.7,3472.2,748.8,862.1,414.5,3497.8,1188.5,806.0,3474.6,3478.3,403.5,572.2,453.7,498.0,243.2,238.6,3479.5,3479.5,542.6,442.7,709.3,1164.7,1542.2,607.6,26.0,96.0,-18.0,10645.0,12098.0,444.0,2926.0,-205.0,-56.0,183.0,10.0,38.0,-19.0,10389.0,11867.0,3868.0,2171.0,-169.0,-8.0,120.0,1.0
2022-05-08 18:19:27.160228-07:00,828.5,847.8,1320.5,925.4,718.4,447.4,1360.3,964.5,3472.2,3472.2,748.8,862.1,413.7,3500.2,1181.5,806.0,3474.6,3483.2,395.7,567.4,453.7,498.0,243.2,242.4,3479.5,3488.0,543.4,441.9,709.3,1164.7,1542.2,602.0,2.0,27.0,-11.0,10659.0,12085.0,388.0,2937.0,144.0,-33.0,-4.0,2.0,0.0,-42.0,10393.0,11865.0,3855.0,2187.0,104.0,33.0,24.0,1.0
2022-05-08 18:19:27.161412-07:00,828.5,845.3,1315.1,927.1,718.4,447.4,1367.6,1001.3,3472.2,3475.9,738.9,856.2,413.7,3500.2,1174.4,817.7,3474.6,3478.3,395.7,567.4,449.8,495.6,241.6,242.4,3480.7,3474.6,543.4,441.9,715.1,1150.6,1535.7,602.0,-7.0,8.0,-22.0,10620.0,12125.0,403.0,2912.0,53.0,-63.0,-37.0,-5.0,13.0,-27.0,10354.0,11894.0,3871.0,2182.0,57.0,12.0,-14.0,1.0
2022-05-08 18:19:27.220417-07:00,828.5,844.4,1315.1,927.1,719.2,445.1,1367.6,1001.3,3473.4,3467.4,738.9,856.2,409.0,3499.0,1174.4,817.7,3474.6,3478.3,396.5,571.4,449.8,495.6,241.6,243.9,3480.7,3474.6,544.2,444.3,715.1,1150.6,1538.5,593.9,5.0,2.0,9.0,10624.0,12127.0,392.0,2888.0,-38.0,-7.0,-17.0,2.0,0.0,-29.0,10352.0,11896.0,3872.0,2181.0,-44.0,-19.0,1.0,1.0
2022-05-08 18:19:27.340321-07:00,828.5,844.4,1321.4,930.5,719.2,445.1,1362.1,989.3,3473.4,3467.4,739.7,857.0,409.0,3499.0,1174.4,803.5,3474.6,3473.4,396.5,571.4,459.3,495.6,241.6,243.9,3488.0,3477.1,544.2,444.3,706.9,1149.8,1538.5,593.9,5.0,23.0,-7.0,10625.0,12124.0,393.0,2896.0,1.0,-16.0,57.0,-2.0,9.0,-3.0,10356.0,11893.0,3870.0,2186.0,6.0,8.0,22.0,1.0
2022-05-08 18:19:27.400387-07:00,824.4,846.1,1321.4,930.5,713.4,445.1,1362.1,989.3,3473.4,3471.0,739.7,857.0,412.9,3507.5,1174.4,803.5,3474.6,3473.4,396.5,573.0,459.3,495.6,241.6,244.7,3488.0,3477.1,545.8,440.4,706.9,1149.8,1523.6,587.5,0.0,-5.0,3.0,10632.0,12118.0,364.0,2902.0,-38.0,-40.0,51.0,2.0,-11.0,-11.0,10361.0,11889.0,3865.0,2191.0,-27.0,2.0,14.0,1.0
2022-05-08 18:19:27.403325-07:00,824.4,846.1,1307.9,928.8,713.4,445.1,1350.3,984.2,3473.4,3471.0,734.8,860.4,412.9,3507.5,1170.9,799.4,3488.0,3481.9,396.5,573.0,453.0,494.0,241.6,244.7,3478.3,3477.1,545.8,440.4,708.5,1155.0,1523.6,587.5,5.0,11.0,10.0,10641.0,12110.0,335.0,2906.0,-72.0,-24.0,59.0,-1.0,4.0,-16.0,10371.0,11881.0,3858.0,2196.0,-63.0,-15.0,14.0,1.0
2022-05-08 18:19:27.430345-07:00,825.2,842.8,1307.9,928.8,717.5,441.9,1350.3,984.2,3477.1,3472.2,734.8,860.4,413.7,3495.3,1170.9,799.4,3488.0,3481.9,392.6,564.2,453.0,494.0,240.1,240.9,3478.3,3477.1,542.6,437.2,708.5,1155.0,1526.4,586.7,16.0,4.0,17.0,10655.0,12091.0,318.0,2934.0,-38.0,74.0,62.0,9.0,11.0,-11.0,10386.0,11868.0,3854.0,2203.0,-55.0,14.0,5.0,1.0
2022-05-08 18:19:27.460297-07:00,825.2,842.8,1307.9,927.9,717.5,441.9,1346.7,985.9,3477.1,3472.2,738.9,861.2,413.7,3496.6,1192.9,801.0,3481.9,3475.9,391.8,564.2,456.9,498.8,240.1,240.9,3479.5,3477.1,540.2,437.2,711.8,1146.3,1526.4,586.7,15.0,9.0,2.0,10665.0,12071.0,316.0,2981.0,-20.0,57.0,54.0,10.0,3.0,12.0,10391.0,11858.0,3863.0,2217.0,9.0,45.0,-10.0,1.0
2022-05-08 18:19:27.550506-07:00,826.0,841.1,1314.2,927.9,713.4,441.9,1346.7,985.9,3475.9,3477.1,738.1,861.2,409.0,3496.6,1192.9,801.0,3481.9,3475.9,391.8,565.8,456.9,500.4,246.2,244.7,3479.5,3477.1,540.2,432.5,711.8,1142.7,1524.5,584.3,8.0,8.0,12.0,10662.0,12066.0,303.0,3012.0,-12.0,40.0,87.0,0.0,5.0,-9.0,10381.0,11858.0,3883.0,2233.0,11.0,76.0,-6.0,1.0
2022-05-08 18:19:27.580502-07:00,826.0,841.1,1314.2,924.5,713.4,442.7,1363.0,1005.6,3475.9,3477.1,738.1,857.9,409.0,3494.1,1163.8,796.0,3479.5,3475.9,391.1,565.8,450.6,500.4,246.2,244.7,3481.9,3477.1,543.4,432.5,710.1,1142.7,1524.5,584.3,-14.0,0.0,-7.0,10673.0,12045.0,296.0,3059.0,-72.0,83.0,57.0,-7.0,-19.0,-10.0,10388.0,11841.0,3900.0,2257.0,-63.0,53.0,-6.0,1.0
2022-05-08 18:19:27.610403-07:00,831.9,837.7,1307.9,924.5,708.5,442.7,1363.0,1005.6,3469.8,3477.1,734.8,857.9,412.1,3494.1,1163.8,796.0,3479.5,3475.9,391.1,567.4,450.6,494.8,242.4,242.4,3481.9,3477.1,543.4,436.4,710.1,1142.7,1521.8,580.2,-8.0,12.0,-11.0,10669.0,12045.0,305.0,3072.0,47.0,12.0,11.0,-10.0,18.0,-24.0,10378.0,11844.0,3914.0,2266.0,39.0,36.0,2.0,1.0
2022-05-08 18:19:27.670457-07:00,831.9,837.7,1307.9,927.1,708.5,444.3,1360.3,1009.0,3469.8,3477.1,734.8,854.5,412.1,3501.4,1163.8,805.2,3484.4,3480.7,387.2,567.4,448.2,494.8,242.4,242.4,3477.1,3488.0,543.4,436.4,710.1,1142.7,1521.8,580.2,-1.0,9.0,-2.0,10666.0,12046.0,299.0,3079.0,-22.0,17.0,31.0,-1.0,1.0,-25.0,10373.0,11845.0,3921.0,2271.0,-35.0,15.0,-2.0,1.0
2022-05-08 18:19:27.730254-07:00,825.2,837.7,1316.0,927.1,713.4,444.3,1360.3,1009.0,3478.3,3477.1,733.2,854.5,412.1,3501.4,1163.8,805.2,3484.4,3480.7,387.2,568.2,448.2,494.8,241.6,241.6,3477.1,3488.0,543.4,438.8,710.1,1144.5,1519.0,573.8,0.0,-11.0,-5.0,10682.0,12026.0,288.0,3103.0,-75.0,14.0,66.0,2.0,-7.0,-1.0,10396.0,11825.0,3915.0,2281.0,-67.0,0.0,18.0,1.0
2022-05-08 18:19:27.790337-07:00,825.2,837.7,1316.0,926.2,708.5,441.9,1352.1,995.3,3478.3,3477.1,733.2,862.1,417.6,3495.3,1168.2,799.4,3477.1,3480.7,390.3,567.4,453.0,494.8,241.6,241.6,3483.2,3483.2,545.8,436.4,705.2,1144.5,1519.0,573.8,0.0,13.0,6.0,10691.0,12015.0,244.0,3119.0,-57.0,-34.0,87.0,0.0,-5.0,-11.0,10404.0,11818.0,3907.0,2293.0,-45.0,7.0,16.0,1.0
2022-05-08 18:19:27.820735-07:00,825.2,837.7,1310.6,916.9,708.5,441.9,1352.1,995.3,3477.1,3473.4,730.7,854.5,417.6,3495.3,1168.2,799.4,3477.1,3480.7,390.3,567.4,450.6,492.5,239.3,239.3,3483.2,3483.2,545.8,436.4,710.1,1141.9,1522.7,578.6,0.0,10.0,3.0,10700.0,12004.0,227.0,3127.0,-19.0,3.0,19.0,-3.0,5.0,-11.0,10413.0,11810.0,3906.0,2296.0,-29.0,4.0,0.0,1.0
2022-05-08 18:19:27.880398-07:00,825.2,837.7,1310.6,916.9,704.4,443.5,1356.7,1000.5,3477.1,3473.4,730.7,854.5,411.4,3497.8,1160.3,798.5,3481.9,3483.2,387.2,562.6,450.6,492.5,239.3,239.3,3479.5,3488.0,540.2,429.4,710.1,1141.9,1522.7,578.6,-2.0,-2.0,2.0,10709.0,11992.0,218.0,3148.0,-48.0,47.0,60.0,4.0,-1.0,-11.0,10424.0,11799.0,3906.0,2303.0,-64.0,18.0,11.0,1.0
2022-05-08 18:19:27.910573-07:00,824.4,843.6,1309.7,924.5,704.4,443.5,1356.7,1000.5,3472.2,3483.2,732.3,862.1,411.4,3497.8,1160.3,798.5,3481.9,3483.2,387.2,562.6,449.0,493.2,242.4,241.6,3479.5,3488.0,540.2,429.4,715.9,1139.2,1519.9,581.8,-8.0,7.0,-3.0,10723.0,11970.0,201.0,3181.0,-78.0,35.0,76.0,-3.0,0.0,-18.0,10445.0,11779.0,3901.0,2319.0,-95.0,-2.0,19.0,1.0
2022-05-08 18:19:27.970592-07:00,824.4,843.6,1309.7,924.5,704.4,438.0,1352.1,1006.5,3472.2,3483.2,732.3,862.1,417.6,3502.7,1162.1,811.0,3483.2,3483.2,394.2,574.6,449.0,493.2,242.4,241.6,3478.3,3479.5,535.4,432.5,715.9,1139.2,1519.9,581.8,-1.0,15.0,-8.0,10742.0,11946.0,174.0,3207.0,-94.0,-12.0,92.0,3.0,4.0,-11.0,10474.0,11755.0,3888.0,2334.0,-104.0,-16.0,26.0,1.0
2022-05-08 18:19:28.031005-07:00,824.4,836.1,1299.0,924.5,704.4,438.0,1352.1,1006.5,3475.9,3467.4,730.7,857.9,417.6,3502.7,1162.1,811.0,3483.2,3483.2,394.2,574.6,451.4,494.0,238.6,237.1,3478.3,3479.5,535.4,432.5,721.6,1139.2,1506.9,577.0,-1.0,8.0,9.0,10769.0,11917.0,130.0,3232.0,-112.0,-1.0,106.0,0.0,-4.0,-10.0,10506.0,11729.0,3871.0,2348.0,-121.0,-9.0,23.0,1.0
2022-05-08 18:19:28.060369-07:00,825.2,836.1,1299.0,924.5,712.6,437.2,1345.8,997.0,3468.6,3467.4,730.7,857.9,407.5,3496.6,1150.6,801.9,3474.6,3481.9,390.3,567.4,451.4,494.0,238.6,240.1,3481.9,3478.3,543.4,431.7,721.6,1139.2,1506.9,575.4,0.0,1.0,15.0,10796.0,11882.0,101.0,3271.0,-118.0,60.0,103.0,0.0,8.0,-7.0,10546.0,11694.0,3855.0,2367.0,-158.0,1.0,24.0,1.0
2022-05-08 18:19:28.120821-07:00,825.2,837.7,1307.9,923.7,712.6,437.2,1345.8,996.2,3468.6,3472.2,728.2,861.2,407.5,3496.6,1150.6,801.9,3481.9,3481.9,390.3,567.4,449.8,494.8,240.9,240.1,3489.2,3478.3,543.4,431.7,713.4,1136.6,1511.5,575.4,-3.0,-2.0,7.0,10835.0,11826.0,74.0,3342.0,-201.0,136.0,149.0,-3.0,-7.0,-9.0,10603.0,11644.0,3835.0,2394.0,-248.0,3.0,29.0,1.0
2022-05-08 18:19:28.180399-07:00,824.4,837.7,1307.9,923.7,706.9,438.8,1345.8,996.2,3466.1,3472.2,728.2,861.2,412.1,3507.5,1161.2,801.9,3481.9,3475.9,387.2,569.8,449.8,494.8,240.9,240.9,3489.2,3474.6,541.0,433.3,713.4,1136.6,1511.5,578.6,15.0,9.0,17.0,10873.0,11765.0,44.0,3434.0,-146.0,162.0,200.0,8.0,18.0,-15.0,10660.0,11591.0,3813.0,2426.0,-152.0,39.0,41.0,1.0
2022-05-08 18:19:28.210242-07:00,824.4,835.2,1303.4,922.8,706.9,438.8,1345.8,1018.5,3466.1,3468.6,727.4,851.1,412.1,3507.5,1161.2,796.9,3488.0,3475.9,387.2,569.8,449.8,490.9,236.3,240.9,3479.5,3474.6,541.0,433.3,706.9,1142.7,1513.4,578.6,-14.0,-3.0,-2.0,10895.0,11706.0,26.0,3566.0,-116.0,205.0,198.0,-3.0,-24.0,15.0,10701.0,11546.0,3806.0,2471.0,-127.0,56.0,37.0,1.0
2022-05-08 18:19:28.271030-07:00,825.2,835.2,1303.4,922.8,707.7,442.7,1358.5,1018.5,3479.5,3468.6,727.4,851.1,414.5,3491.7,1156.8,796.9,3488.0,3474.6,387.9,564.2,449.8,490.9,236.3,240.1,3479.5,3479.5,543.4,438.8,706.9,1142.7,1513.4,583.5,-6.0,20.0,-24.0,10894.0,11687.0,-7.0,3627.0,-39.0,-18.0,125.0,3.0,16.0,-22.0,10716.0,11529.0,3799.0,2500.0,-35.0,13.0,37.0,1.0
2022-05-08 18:19:28.330328-07:00,825.2,836.1,1302.5,916.9,707.7,442.7,1358.5,1039.2,3479.5,3478.3,721.6,861.2,414.5,3491.7,1156.8,798.5,3483.2,3474.6,387.9,564.2,441.9,492.5,241.6,240.1,3477.1,3479.5,543.4,438.8,718.4,1134.9,1513.4,583.5,-8.0,-2.0,0.0,10903.0,11670.0,-44.0,3654.0,-43.0,21.0,72.0,-3.0,2.0,-17.0,10731.0,11517.0,3786.0,2511.0,-66.0,-8.0,14.0,1.0
2022-05-08 18:19:28.360381-07:00,824.4,831.9,1302.5,916.9,709.3,436.4,1374.8,1039.2,3478.3,3483.2,721.6,861.2,414.5,3499.0,1152.4,798.5,3483.2,3477.1,386.4,571.4,441.9,492.5,237.1,240.9,3477.1,3483.2,541.8,428.6,718.4,1134.9,1500.4,585.9,-5.0,-24.0,3.0,10903.0,11659.0,-85.0,3694.0,-52.0,-6.0,168.0,4.0,-1.0,1.0,10741.0,11509.0,3774.0,2525.0,-47.0,5.0,44.0,1.0
2022-05-08 18:19:28.450882-07:00,824.4,831.9,1307.0,923.7,709.3,436.4,1373.0,1034.9,3478.3,3483.2,722.5,857.9,414.5,3499.0,1151.5,796.9,3479.5,3474.6,386.4,571.4,449.8,499.6,237.1,240.9,3481.9,3485.6,541.8,428.6,718.4,1138.4,1500.4,585.9,-10.0,-12.0,-8.0,10914.0,11627.0,-177.0,3756.0,-155.0,-23.0,305.0,-1.0,-5.0,-22.0,10765.0,11487.0,3749.0,2559.0,-150.0,10.0,93.0,1.0
2022-05-08 18:19:28.510411-07:00,829.4,834.4,1307.0,923.7,708.5,439.6,1373.0,1034.9,3473.4,3480.7,722.5,857.9,413.7,3502.7,1151.5,796.9,3479.5,3474.6,391.8,576.2,449.8,499.6,237.8,239.3,3481.9,3485.6,543.4,430.9,718.4,1138.4,1508.8,571.4,1.0,26.0,3.0,10932.0,11573.0,-320.0,3861.0,-245.0,-3.0,410.0,1.0,-6.0,-10.0,10811.0,11446.0,3704.0,2612.0,-244.0,1.0,124.0,1.0
2022-05-08 18:19:28.511547-07:00,829.4,834.4,1304.3,922.0,708.5,439.6,1378.5,1051.3,3473.4,3480.7,724.9,857.0,413.7,3502.7,1162.1,793.5,3475.9,3480.7,391.8,576.2,449.0,492.5,237.8,239.3,3475.9,3485.6,543.4,430.9,715.1,1141.0,1508.8,571.4,2.0,18.0,-7.0,10960.0,11499.0,-461.0,3985.0,-243.0,28.0,440.0,0.0,17.0,-3.0,10888.0,11375.0,3649.0,2679.0,-325.0,20.0,133.0,1.0
2022-05-08 18:19:28.570392-07:00,823.5,841.9,1304.3,922.0,704.4,434.1,1378.5,1051.3,3474.6,3468.6,724.9,857.0,417.6,3502.7,1162.1,793.5,3475.9,3480.7,384.8,565.0,449.0,492.5,238.6,240.9,3475.9,3485.6,541.8,432.5,715.1,1141.0,1504.1,574.6,4.0,3.0,1.0,11001.0,11405.0,-610.0,4119.0,-218.0,70.0,462.0,1.0,30.0,-16.0,10976.0,11294.0,3589.0,2747.0,-295.0,18.0,129.0,1.0
2022-05-08 18:19:28.630305-07:00,823.5,841.9,1301.6,922.0,704.4,434.1,1388.5,1067.7,3474.6,3468.6,722.5,857.0,417.6,3502.7,1150.6,795.2,3478.3,3472.2,384.8,565.0,446.7,494.8,238.6,240.9,3478.3,3477.1,541.8,432.5,712.6,1132.2,1504.1,574.6,-3.0,40.0,0.0,11070.0,11263.0,-771.0,4295.0,-592.0,174.0,506.0,4.0,-62.0,0.0,11115.0,11158.0,3516.0,2833.0,-642.0,3.0,135.0,1.0
2022-05-08 18:19:28.660812-07:00,824.4,836.1,1302.5,922.0,705.2,438.0,1388.5,1067.7,3469.8,3467.4,717.5,857.0,413.7,3497.8,1150.6,795.2,3478.3,3472.2,389.5,569.0,446.7,494.8,237.8,243.2,3478.3,3477.1,544.2,437.2,712.6,1130.5,1498.6,583.5,-1.0,52.0,-19.0,11133.0,11144.0,-903.0,4416.0,-210.0,-45.0,281.0,2.0,14.0,-1.0,11235.0,11041.0,3442.0,2905.0,-267.0,-20.0,108.0,1.0
2022-05-08 18:19:28.720559-07:00,824.4,836.1,1302.5,924.5,705.2,439.6,1410.3,1123.5,3469.8,3467.4,717.5,856.2,413.7,3491.7,1149.8,796.9,3483.2,3472.2,386.4,569.0,453.7,494.8,237.8,243.2,3481.9,3479.5,543.4,437.2,705.2,1130.5,1498.6,583.5,-7.0,22.0,-3.0,11158.0,11092.0,-992.0,4463.0,-128.0,0.0,188.0,-4.0,-11.0,-14.0,11293.0,10986.0,3402.0,2937.0,-167.0,-5.0,46.0,1.0
2022-05-08 18:19:28.780468-07:00,833.6,831.9,1307.9,924.5,710.1,439.6,1410.3,1123.5,3475.9,3477.1,722.5,856.2,416.8,3491.7,1149.8,796.9,3483.2,3472.2,386.4,574.6,453.7,494.0,240.9,234.8,3481.9,3479.5,543.4,429.4,705.2,1136.6,1507.8,591.5,-21.0,0.0,-23.0,11159.0,11068.0,-1044.0,4509.0,-12.0,12.0,130.0,-1.0,-7.0,-28.0,11324.0,10959.0,3373.0,2955.0,-72.0,-47.0,48.0,1.0
2022-05-08 18:19:28.810435-07:00,833.6,831.9,1307.9,927.1,710.1,438.0,1420.4,1162.1,3475.9,3477.1,722.5,862.1,416.8,3503.9,1149.8,800.2,3478.3,3480.7,392.6,574.6,451.4,494.0,240.9,234.8,3483.2,3478.3,542.6,429.4,712.6,1136.6,1507.8,591.5,0.0,10.0,4.0,11151.0,11060.0,-1088.0,4536.0,-56.0,-21.0,162.0,-2.0,16.0,-13.0,11353.0,10941.0,3328.0,2958.0,-113.0,-79.0,60.0,1.0
2022-05-08 18:19:28.870584-07:00,818.5,828.5,1307.9,927.1,704.4,438.0,1420.4,1162.1,3478.3,3483.2,714.2,862.1,414.5,3503.9,1149.8,800.2,3478.3,3480.7,392.6,575.4,451.4,490.9,237.1,240.1,3483.2,3478.3,542.6,427.0,712.6,1129.6,1520.8,615.7,4.0,7.0,0.0,11160.0,11027.0,-1140.0,4582.0,-96.0,-8.0,104.0,4.0,-17.0,24.0,11395.0,10909.0,3283.0,2968.0,-117.0,-62.0,38.0,1.0
2022-05-08 18:19:28.930351-07:00,818.5,828.5,1307.9,928.8,704.4,437.2,1412.2,1151.5,3478.3,3483.2,714.2,860.4,414.5,3497.8,1148.0,798.5,3486.8,3480.7,386.4,575.4,450.6,490.9,237.1,240.1,3485.6,3474.6,545.8,427.0,711.8,1129.6,1520.8,615.7,15.0,24.0,21.0,11155.0,11031.0,-1170.0,4578.0,51.0,-23.0,17.0,7.0,12.0,-6.0,11404.0,10910.0,3252.0,2961.0,8.0,-48.0,24.0,1.0
2022-05-08 18:19:28.960769-07:00,828.5,838.6,1309.7,927.1,702.8,437.2,1412.2,1151.5,3474.6,3474.6,716.7,858.7,412.1,3497.8,1148.0,798.5,3486.8,3480.7,386.4,575.4,445.1,493.2,234.8,237.1,3485.6,3474.6,545.8,427.8,710.1,1125.2,1504.1,623.8,-20.0,5.0,-31.0,11157.0,11026.0,-1163.0,4586.0,-27.0,-16.0,-20.0,-5.0,-13.0,0.0,11418.0,10900.0,3240.0,2961.0,-45.0,-28.0,8.0,1.0
2022-05-08 18:19:29.051110-07:00,828.5,838.6,1309.7,927.1,705.2,434.9,1402.1,1138.4,3474.6,3474.6,716.7,858.7,417.6,3495.3,1148.0,795.2,3481.9,3480.7,384.8,577.8,445.1,493.2,234.8,237.1,3480.7,3480.7,544.2,430.9,710.1,1125.2,1504.1,623.8,-3.0,-7.0,17.0,11156.0,11031.0,-1174.0,4573.0,3.0,-11.0,6.0,-1.0,-4.0,-11.0,11418.0,10907.0,3225.0,2952.0,-9.0,-31.0,14.0,1.0
2022-05-08 18:19:29.052819-07:00,824.4,830.2,1310.6,923.7,705.2,434.9,1402.1,1138.4,3474.6,3467.4,710.1,865.4,417.6,3495.3,1148.0,795.2,3481.9,3480.7,384.8,577.8,450.6,493.2,244.7,243.9,3480.7,3480.7,544.2,430.9,710.1,1123.5,1502.3,655.4,-16.0,0.0,-34.0,11158.0,11027.0,-1177.0,4578.0,-62.0,-45.0,37.0,-1.0,-5.0,9.0,11431.0,10899.0,3205.0,2949.0,-74.0,-35.0,29.0,1.0
2022-05-08 18:19:29.111013-07:00,824.4,830.2,1310.6,923.7,709.3,435.7,1390.3,1128.7,3474.6,3467.4,710.1,865.4,423.9,3491.7,1148.0,792.7,3477.1,3479.5,386.4,572.2,450.6,493.2,244.7,243.9,3477.1,3484.4,537.0,426.2,710.1,1123.5,1502.3,655.4,5.0,4.0,14.0,11172.0,11013.0,-1234.0,4562.0,-112.0,-81.0,88.0,11.0,0.0,-19.0,11446.0,10893.0,3171.0,2952.0,-73.0,-49.0,54.0,1.0
2022-05-08 18:19:29.170305-07:00,826.9,834.4,1319.6,924.5,709.3,435.7,1390.3,1128.7,3471.0,3469.8,708.5,863.7,423.9,3491.7,1148.0,792.7,3477.1,3479.5,386.4,572.2,446.7,486.9,241.6,247.7,3477.1,3484.4,537.0,426.2,707.7,1126.1,1497.7,623.0,16.0,10.0,29.0,11189.0,10980.0,-1272.0,4591.0,-71.0,91.0,129.0,3.0,13.0,24.0,11473.0,10866.0,3145.0,2973.0,-127.0,27.0,53.0,1.0
2022-05-08 18:19:29.410298-07:00,826.9,834.4,1319.6,924.5,712.6,435.7,1391.2,1115.6,3471.0,3469.8,708.5,863.7,417.6,3497.8,1148.0,795.2,3475.9,3483.2,387.9,573.8,446.7,486.9,241.6,247.7,3477.1,3485.6,549.8,427.8,707.7,1126.1,1497.7,623.0,0.0,-34.0,-3.0,11207.0,10935.0,-1311.0,4642.0,-172.0,-11.0,191.0,15.0,-18.0,3.0,11510.0,10821.0,3129.0,3013.0,-175.0,46.0,67.0,1.0
2022-05-08 18:19:29.439995-07:00,828.5,838.6,1316.9,915.2,712.6,435.7,1391.2,1100.8,3474.6,3474.6,706.0,857.9,417.6,3497.8,1148.0,794.4,3474.6,3483.2,387.9,573.8,449.0,489.3,241.6,238.6,3488.0,3485.6,549.8,427.8,706.0,1118.2,1510.6,614.1,8.0,30.0,-2.0,11227.0,10883.0,-1401.0,4689.0,-165.0,-46.0,215.0,7.0,7.0,-9.0,11546.0,10773.0,3107.0,3069.0,-173.0,60.0,83.0,1.0
2022-05-08 18:19:29.500494-07:00,825.2,838.6,1316.9,915.2,695.4,431.7,1371.2,1100.8,3475.9,3474.6,706.0,857.9,415.3,3486.8,1144.5,794.4,3474.6,3480.7,382.5,573.8,449.0,489.3,241.6,240.9,3488.0,3479.5,544.2,423.1,706.0,1118.2,1510.6,612.5,-11.0,23.0,6.0,11249.0,10831.0,-1484.0,4731.0,-130.0,22.0,161.0,-8.0,12.0,-18.0,11580.0,10726.0,3097.0,3117.0,-159.0,53.0,45.0,1.0
2022-05-08 18:19:29.501657-07:00,825.2,844.4,1313.3,918.6,695.4,431.7,1371.2,1097.3,3475.9,3480.7,709.3,865.4,415.3,3486.8,1144.5,792.7,3479.5,3480.7,382.5,573.8,449.0,492.5,239.3,240.9,3475.9,3479.5,544.2,423.1,709.3,1126.1,1499.5,612.5,1.0,9.0,-2.0,11275.0,10784.0,-1525.0,4763.0,-108.0,-19.0,50.0,7.0,-3.0,-7.0,11610.0,10688.0,3087.0,3143.0,-94.0,10.0,19.0,1.0
2022-05-08 18:19:29.590327-07:00,818.5,844.4,1313.3,918.6,699.5,432.5,1373.9,1097.3,3464.9,3480.7,709.3,865.4,413.7,3497.8,1153.3,792.7,3479.5,3483.2,386.4,576.2,449.0,492.5,239.3,241.6,3475.9,3479.5,540.2,430.2,709.3,1126.1,1499.5,613.3,0.0,17.0,0.0,11289.0,10761.0,-1547.0,4776.0,-71.0,33.0,40.0,0.0,-2.0,-3.0,11627.0,10666.0,3081.0,3159.0,-87.0,14.0,9.0,1.0
2022-05-08 18:19:29.741055-07:00,818.5,847.0,1315.1,928.8,699.5,432.5,1373.9,1078.2,3464.9,3472.2,707.7,860.4,413.7,3497.8,1153.3,795.2,3480.7,3483.2,386.4,576.2,449.0,489.3,237.8,241.6,3472.2,3479.5,540.2,430.2,711.0,1119.1,1492.1,613.3,3.0,6.0,13.0,11298.0,10743.0,-1559.0,4790.0,-9.0,10.0,46.0,5.0,-3.0,-9.0,11640.0,10648.0,3082.0,3173.0,-33.0,38.0,14.0,1.0
2022-05-08 18:19:29.741971-07:00,823.5,847.0,1315.1,928.8,696.2,436.4,1363.9,1078.2,3478.3,3472.2,707.7,860.4,417.6,3490.5,1144.5,795.2,3480.7,3475.9,385.6,567.4,449.0,489.3,237.8,239.3,3472.2,3479.5,538.6,426.2,711.0,1119.1,1492.1,601.2,-11.0,1.0,-18.0,11302.0,10727.0,-1563.0,4816.0,-61.0,42.0,73.0,-1.0,-8.0,6.0,11652.0,10627.0,3088.0,3194.0,-77.0,49.0,24.0,1.0
2022-05-08 18:19:29.742805-07:00,823.5,853.7,1317.8,925.4,696.2,436.4,1367.6,1062.5,3478.3,3478.3,706.9,860.4,417.6,3490.5,1151.5,793.5,3483.2,3488.0,385.6,567.4,448.2,491.7,236.3,239.3,3488.0,3483.2,538.6,426.2,704.4,1118.2,1493.0,601.2,4.0,16.0,0.0,11300.0,10718.0,-1599.0,4827.0,-19.0,-71.0,92.0,5.0,5.0,-21.0,11654.0,10616.0,3091.0,3218.0,-14.0,44.0,35.0,1.0
2022-05-08 18:19:29.744122-07:00,823.5,852.8,1317.8,925.4,696.2,437.2,1367.6,1062.5,3475.9,3477.1,706.9,860.4,414.5,3502.7,1151.5,793.5,3483.2,3488.0,389.5,574.6,448.2,491.7,242.4,236.3,3488.0,3483.2,541.0,423.1,704.4,1118.2,1496.7,606.8,-5.0,7.0,7.0,11313.0,10691.0,-1617.0,4852.0,-83.0,141.0,31.0,-2.0,2.0,-11.0,11671.0,10592.0,3090.0,3238.0,-130.0,30.0,-7.0,1.0
2022-05-08 18:19:29.980417-07:00,823.5,852.8,1316.0,918.6,696.2,437.2,1364.8,1059.9,3475.9,3477.1,704.4,860.4,414.5,3502.7,1157.7,791.0,3478.3,3480.7,389.5,574.6,446.7,489.3,242.4,236.3,3477.1,3477.1,541.0,423.1,694.6,1116.5,1496.7,606.8,-2.0,-3.0,-17.0,11332.0,10650.0,-1607.0,4901.0,-101.0,87.0,94.0,7.0,-3.0,7.0,11703.0,10549.0,3090.0,3261.0,-142.0,41.0,13.0,1.0
2022-05-08 18:19:29.981392-07:00,823.5,852.8,1316.0,918.6,696.2,437.2,1364.8,1059.9,3475.9,3477.1,704.4,860.4,414.5,3502.7,1157.7,791.0,3478.3,3480.7,389.5,574.6,446.7,489.3,242.4,236.3,3477.1,3477.1,541.0,423.1,694.6,1116.5,1496.7,606.8,-2.0,-3.0,-17.0,11332.0,10650.0,-1607.0,4901.0,-101.0,87.0,94.0,7.0,-3.0,7.0,11703.0,10549.0,3090.0,3261.0,-142.0,41.0,13.0,1.0
2022-05-08 18:19:29.982715-07:00,824.4,848.6,1307.0,918.6,697.9,433.3,1352.1,1050.4,3473.4,3472.2,701.1,857.9,415.3,3497.8,1144.5,790.2,3477.1,3484.4,387.2,569.0,447.4,487.7,235.5,239.3,3472.2,3478.3,535.4,430.2,706.9,1110.4,1475.5,598.7,1.0,-12.0,5.0,11368.0,10589.0,-1613.0,4947.0,0.0,-90.0,-9.0,13.0,-2.0,-12.0,11750.0,10496.0,3079.0,3276.0,37.0,-9.0,-3.0,1.0
2022-05-08 18:19:29.983541-07:00,824.4,848.6,1308.8,922.0,697.9,438.0,1353.1,1051.3,3473.4,3472.2,706.0,862.1,415.3,3494.1,1150.6,788.6,3484.4,3475.9,389.5,569.0,450.6,486.9,235.5,239.3,3477.1,3475.9,544.2,430.2,704.4,1111.2,1475.5,598.7,-9.0,-1.0,6.0,11371.0,10585.0,-1614.0,4950.0,-31.0,75.0,12.0,-2.0,2.0,10.0,11752.0,10492.0,3080.0,3280.0,-49.0,28.0,-4.0,1.0
2022-05-08 18:19:29.984297-07:00,826.0,849.5,1301.6,922.0,696.2,438.0,1353.1,1051.3,3473.4,3472.2,706.0,862.1,414.5,3494.1,1150.6,788.6,3484.4,3475.9,389.5,571.4,450.6,486.1,238.6,239.3,3477.1,3475.9,544.2,429.4,704.4,1106.9,1485.6,588.3,-10.0,4.0,-8.0,11378.0,10566.0,-1605.0,4974.0,-24.0,49.0,18.0,1.0,-4.0,-3.0,11765.0,10473.0,3084.0,3292.0,-44.0,25.0,-1.0,1.0
2022-05-08 18:19:30.070527-07:00,826.0,849.5,1301.6,927.1,696.2,433.3,1345.8,1035.7,3473.4,3472.2,706.0,860.4,414.5,3499.0,1145.4,786.9,3479.5,3477.1,384.8,571.4,448.2,486.1,238.6,239.3,3488.0,3477.1,536.2,429.4,703.6,1106.9,1485.6,588.3,-7.0,16.0,-7.0,11379.0,10563.0,-1594.0,4983.0,15.0,26.0,1.0,0.0,0.0,-11.0,11764.0,10470.0,3091.0,3299.0,6.0,18.0,-9.0,1.0
2022-05-08 18:19:30.071424-07:00,826.0,852.8,1307.9,927.1,692.9,433.3,1345.8,1035.7,3473.4,3472.2,702.8,860.4,412.1,3499.0,1145.4,786.9,3479.5,3477.1,384.8,569.8,448.2,490.1,237.1,240.1,3488.0,3477.1,536.2,422.3,703.6,1113.9,1482.9,595.5,-17.0,9.0,-12.0,11378.0,10566.0,-1570.0,4987.0,32.0,44.0,-5.0,-6.0,4.0,0.0,11763.0,10470.0,3095.0,3297.0,-4.0,4.0,-4.0,1.0
2022-05-08 18:19:30.072765-07:00,826.0,852.8,1307.9,919.4,692.9,439.6,1337.7,1026.3,3473.4,3472.2,702.8,859.5,412.1,3495.3,1140.1,786.1,3479.5,3484.4,388.7,569.8,446.7,490.1,237.1,240.1,3474.6,3483.2,537.8,422.3,704.4,1113.9,1482.9,595.5,3.0,-3.0,13.0,11377.0,10565.0,-1559.0,4996.0,17.0,55.0,7.0,7.0,7.0,7.0,11765.0,10467.0,3096.0,3300.0,-21.0,25.0,-4.0,1.0
2022-05-08 18:19:30.160333-07:00,816.0,847.0,1305.2,929.6,692.1,439.6,1337.7,1026.3,3478.3,3466.1,697.0,853.7,409.8,3495.3,1140.1,786.1,3479.5,3484.4,388.7,570.6,452.2,488.5,233.3,243.2,3474.6,3483.2,537.8,426.2,701.1,1111.2,1462.6,587.5,1.0,0.0,16.0,11374.0,10559.0,-1541.0,5019.0,23.0,50.0,1.0,8.0,-7.0,8.0,11765.0,10460.0,3105.0,3312.0,14.0,38.0,-7.0,1.0
2022-05-08 18:19:30.221015-07:00,816.0,847.0,1305.2,929.6,692.1,436.4,1336.8,1024.5,3478.3,3466.1,697.0,853.7,415.3,3491.7,1140.1,789.4,3471.0,3478.3,384.0,571.4,452.2,488.5,233.3,243.2,3472.2,3483.2,537.8,427.8,701.1,1111.2,1462.6,587.5,13.0,-1.0,43.0,11370.0,10552.0,-1494.0,5058.0,85.0,209.0,-14.0,10.0,4.0,-3.0,11763.0,10452.0,3127.0,3324.0,-24.0,80.0,-28.0,1.0
2022-05-08 18:19:30.221918-07:00,825.2,852.8,1300.7,931.3,692.1,436.4,1336.8,1024.5,3472.2,3475.9,703.6,865.4,415.3,3491.7,1140.1,789.4,3471.0,3478.3,384.0,571.4,446.7,490.1,237.8,241.6,3472.2,3483.2,537.8,427.8,704.4,1113.0,1478.3,590.7,19.0,1.0,31.0,11364.0,10524.0,-1363.0,5166.0,178.0,455.0,-45.0,9.0,5.0,23.0,11762.0,10434.0,3170.0,3343.0,12.0,141.0,-51.0,1.0
2022-05-08 18:19:30.250458-07:00,825.2,852.8,1300.7,931.3,695.4,439.6,1364.8,1035.7,3472.2,3475.9,703.6,865.4,416.1,3495.3,1161.2,790.2,3478.3,3481.9,391.8,569.0,446.7,490.1,237.8,241.6,3479.5,3481.9,535.4,435.7,704.4,1113.0,1478.3,590.7,26.0,-8.0,61.0,11350.0,10502.0,-1155.0,5291.0,227.0,586.0,-181.0,20.0,-15.0,-18.0,11737.0,10436.0,3246.0,3352.0,124.0,143.0,-115.0,1.0
2022-05-08 18:19:30.310423-07:00,830.2,869.6,1305.2,921.1,695.4,439.6,1364.8,1035.7,3468.6,3475.9,699.5,860.4,416.1,3495.3,1161.2,790.2,3478.3,3481.9,391.8,569.0,449.0,493.2,231.7,231.7,3479.5,3481.9,535.4,435.7,706.0,1109.5,1480.1,585.1,35.0,-20.0,102.0,11272.0,10494.0,-684.0,5549.0,808.0,1662.0,-210.0,-5.0,10.0,-74.0,11705.0,10450.0,3340.0,3326.0,99.0,139.0,-187.0,1.0
2022-05-08 18:19:30.370332-07:00,830.2,869.6,1305.2,921.1,691.3,446.7,1416.7,1017.6,3468.6,3475.9,699.5,860.4,415.3,3499.0,1226.6,789.4,3472.2,3480.7,409.8,571.4,449.0,493.2,231.7,231.7,3479.5,3480.7,540.2,460.0,706.0,1109.5,1480.1,585.1,30.0,3.0,-7.0,11035.0,10471.0,159.0,6082.0,1121.0,2316.0,-244.0,-6.0,-4.0,27.0,11689.0,10420.0,3491.0,3321.0,63.0,300.0,-279.0,1.0
2022-05-08 18:19:30.401173-07:00,828.5,903.4,1325.0,927.1,691.3,446.7,1416.7,989.3,3475.9,3469.8,706.0,862.9,415.3,3499.0,1226.6,787.7,3472.2,3480.7,409.8,571.4,451.4,489.3,243.2,237.8,3475.9,3480.7,540.2,460.0,705.2,1113.0,1472.7,586.7,33.0,-46.0,-144.0,10734.0,10492.0,1023.0,6486.0,1489.0,1615.0,-470.0,48.0,-41.0,-11.0,11582.0,10501.0,3691.0,3224.0,841.0,99.0,-462.0,1.0
2022-05-08 18:19:30.460636-07:00,837.7,903.4,1325.0,927.1,696.2,474.3,1419.5,989.3,3477.1,3469.8,706.0,862.9,417.6,3503.9,1249.7,787.7,3472.2,3485.6,409.0,570.6,451.4,489.3,243.2,238.6,3475.9,3477.1,543.4,512.3,705.2,1113.0,1472.7,589.9,-28.0,53.0,-154.0,10310.0,10762.0,1862.0,6546.0,1713.0,957.0,-946.0,-22.0,-16.0,-33.0,11296.0,10781.0,3956.0,2995.0,1019.0,98.0,-472.0,1.0
2022-05-08 18:19:30.520265-07:00,837.7,960.2,1328.7,923.7,696.2,474.3,1419.5,960.2,3477.1,3474.6,697.9,862.1,417.6,3503.9,1249.7,788.6,3481.9,3485.6,409.0,570.6,445.1,494.8,240.9,238.6,3477.1,3477.1,543.4,512.3,706.0,1116.5,1470.9,589.9,-68.0,20.0,-31.0,9969.0,11096.0,2651.0,6236.0,2035.0,60.0,-1255.0,-7.0,38.0,41.0,11029.0,11024.0,4174.0,2801.0,1222.0,136.0,-396.0,1.0
2022-05-08 18:19:30.550418-07:00,827.7,960.2,1328.7,923.7,688.9,505.9,1648.3,960.2,3480.7,3474.6,697.9,862.1,415.3,3500.2,1167.4,788.6,3481.9,3478.3,406.7,572.2,445.1,494.8,240.9,245.4,3477.1,3475.9,556.2,560.2,706.0,1116.5,1470.9,597.9,-13.0,7.0,-25.0,9518.0,11588.0,3300.0,5715.0,2144.0,-218.0,-1166.0,-12.0,-3.0,-18.0,10647.0,11352.0,4421.0,2580.0,1236.0,107.0,-337.0,1.0
2022-05-08 18:19:30.610532-07:00,827.7,954.3,1323.2,929.6,688.9,505.9,1648.3,945.8,3480.7,3478.3,690.5,852.8,415.3,3500.2,1167.4,781.9,3475.9,3478.3,406.7,572.2,441.9,496.4,247.0,245.4,3483.2,3475.9,556.2,560.2,708.5,1111.2,1432.3,597.9,11.0,64.0,-4.0,9198.0,11932.0,3856.0,5156.0,1394.0,-267.0,-1286.0,-28.0,42.0,-47.0,10527.0,11461.0,4502.0,2447.0,356.0,-82.0,-264.0,1.0
2022-05-08 18:19:30.670264-07:00,837.7,954.3,1323.2,929.6,697.9,495.6,1650.2,945.8,3479.5,3478.3,690.5,852.8,407.5,3505.1,1049.6,781.9,3475.9,3475.9,409.0,569.0,441.9,496.4,247.0,248.5,3483.2,3477.1,563.4,548.2,708.5,1111.2,1432.3,583.5,14.0,100.0,30.0,9004.0,12076.0,4434.0,4676.0,843.0,115.0,-1477.0,-11.0,57.0,-35.0,10514.0,11478.0,4550.0,2331.0,-180.0,-145.0,-210.0,1.0
2022-05-08 18:19:30.701107-07:00,837.7,976.5,1347.6,929.6,697.9,495.6,1636.0,943.2,3479.5,3468.6,684.8,857.9,407.5,3505.1,990.2,774.5,3475.9,3479.5,409.0,569.0,441.2,494.0,244.7,248.5,3479.5,3479.5,563.4,548.2,711.0,1106.9,1391.2,583.5,2.0,-35.0,-23.0,9103.0,11865.0,5009.0,4440.0,-317.0,506.0,-1398.0,-4.0,-1.0,-32.0,10674.0,11345.0,4538.0,2280.0,-833.0,-183.0,-149.0,1.0
2022-05-08 18:19:30.760425-07:00,837.7,977.3,1347.6,929.6,695.4,492.5,1636.0,943.2,3472.2,3467.4,684.8,857.9,411.4,3496.6,990.2,774.5,3475.9,3479.5,408.2,569.0,441.2,494.0,248.5,247.7,3479.5,3479.5,564.2,549.8,711.0,1106.9,1366.6,579.4,-17.0,-94.0,-14.0,9321.0,11554.0,5404.0,4344.0,-350.0,216.0,-968.0,17.0,-24.0,27.0,10958.0,11098.0,4465.0,2296.0,-727.0,-172.0,-62.0,1.0
2022-05-08 18:19:30.820395-07:00,837.7,977.3,1351.2,933.9,695.4,492.5,1600.2,939.8,3472.2,3467.4,675.8,858.7,411.4,3496.6,961.1,779.4,3478.3,3484.4,408.2,569.0,440.4,496.4,248.5,247.7,3474.6,3477.1,564.2,549.8,711.0,1101.7,1366.6,579.4,-22.0,-72.0,0.0,9423.0,11446.0,5596.0,4163.0,146.0,-191.0,-526.0,0.0,-38.0,9.0,11130.0,10949.0,4407.0,2293.0,-249.0,-137.0,-47.0,1.0
2022-05-08 18:19:30.850460-07:00,844.4,970.5,1351.2,933.9,697.0,492.5,1600.2,939.8,3489.2,3474.6,675.8,858.7,414.5,3499.0,961.1,779.4,3478.3,3484.4,411.4,561.8,440.4,496.4,250.8,247.7,3474.6,3477.1,561.8,544.2,711.0,1101.7,1355.8,584.3,0.0,-13.0,45.0,9445.0,11456.0,5666.0,3984.0,99.0,-189.0,-249.0,12.0,3.0,9.0,11197.0,10899.0,4374.0,2267.0,-123.0,-81.0,-30.0,1.0
2022-05-08 18:19:30.910491-07:00,844.4,970.5,1357.6,930.5,697.0,492.5,1582.4,933.9,3489.2,3474.6,676.6,865.4,414.5,3499.0,945.8,771.1,3477.1,3475.9,411.4,561.8,441.9,495.6,250.8,247.7,3472.2,3479.5,561.8,544.2,711.0,1097.3,1355.8,584.3,-7.0,-15.0,41.0,9513.0,11430.0,5662.0,3903.0,-75.0,-162.0,-81.0,5.0,8.0,12.0,11237.0,10864.0,4358.0,2267.0,-25.0,10.0,2.0,1.0
2022-05-08 18:19:30.970556-07:00,841.1,967.1,1357.6,930.5,692.9,491.7,1582.4,933.9,3485.6,3478.3,676.6,865.4,417.6,3494.1,945.8,771.1,3477.1,3475.9,407.5,567.4,441.9,495.6,245.4,244.7,3472.2,3479.5,556.2,540.2,711.0,1097.3,1345.8,580.2,-4.0,-21.0,12.0,9536.0,11440.0,5622.0,3876.0,37.0,-118.0,69.0,4.0,-3.0,0.0,11229.0,10869.0,4362.0,2277.0,66.0,49.0,27.0,1.0
2022-05-08 18:19:31.000890-07:00,841.1,967.1,1349.4,930.5,692.9,488.5,1572.1,927.9,3485.6,3478.3,679.1,857.9,417.6,3501.4,942.4,771.1,3477.1,3478.3,404.3,567.4,440.4,495.6,245.4,244.7,3480.7,3475.9,559.4,540.2,712.6,1100.8,1345.8,580.2,0.0,30.0,10.0,9527.0,11460.0,5600.0,3870.0,7.0,25.0,32.0,1.0,25.0,-18.0,11207.0,10886.0,4372.0,2286.0,18.0,15.0,0.0,1.0
2022-05-08 18:19:31.060453-07:00,843.6,967.1,1345.8,930.5,696.2,488.5,1572.1,927.9,3480.7,3467.4,676.6,857.9,414.5,3501.4,942.4,771.1,3477.1,3478.3,404.3,569.0,440.4,495.6,247.7,250.0,3480.7,3475.9,559.4,540.2,712.6,1092.1,1343.1,579.4,-14.0,-12.0,-14.0,9562.0,11435.0,5575.0,3896.0,-66.0,-62.0,40.0,3.0,-8.0,0.0,11209.0,10881.0,4375.0,2295.0,-9.0,19.0,23.0,1.0
2022-05-08 18:19:31.120328-07:00,843.6,967.1,1345.8,928.8,696.2,486.1,1564.6,929.6,3480.7,3467.4,676.6,853.7,414.5,3492.9,933.9,776.9,3477.1,3479.5,405.1,569.0,441.2,495.6,247.7,250.0,3483.2,3477.1,559.4,540.2,709.3,1092.1,1343.1,579.4,-2.0,22.0,2.0,9566.0,11455.0,5546.0,3869.0,0.0,-113.0,12.0,1.0,17.0,-10.0,11197.0,10890.0,4380.0,2300.0,40.0,14.0,-7.0,1.0
2022-05-08 18:19:31.150402-07:00,843.6,970.5,1338.6,928.8,691.3,486.1,1564.6,929.6,3469.8,3463.7,670.1,853.7,415.3,3492.9,933.9,776.9,3477.1,3479.5,405.1,565.8,441.2,495.6,247.7,243.2,3483.2,3477.1,559.4,537.8,709.3,1088.6,1334.1,578.6,-6.0,-24.0,3.0,9590.0,11450.0,5515.0,3868.0,-102.0,-41.0,65.0,4.0,-31.0,7.0,11202.0,10886.0,4377.0,2302.0,-55.0,-11.0,16.0,1.0
2022-05-08 18:19:31.210237-07:00,843.6,970.5,1338.6,922.0,691.3,496.4,1552.5,922.8,3469.8,3463.7,670.1,859.5,415.3,3497.8,933.0,772.0,3469.8,3480.7,402.8,565.8,439.6,495.6,247.7,243.2,3479.5,3488.0,556.2,537.8,705.2,1088.6,1334.1,578.6,-4.0,18.0,1.0,9612.0,11458.0,5470.0,3852.0,65.0,-160.0,10.0,1.0,19.0,-11.0,11203.0,10884.0,4373.0,2312.0,39.0,13.0,10.0,1.0
2022-05-08 18:19:31.270395-07:00,839.4,962.0,1333.2,922.0,688.9,496.4,1552.5,922.8,3477.1,3477.1,670.1,859.5,413.7,3497.8,933.0,772.0,3469.8,3480.7,402.8,568.2,439.6,494.0,247.0,244.7,3479.5,3488.0,556.2,542.6,705.2,1085.1,1331.4,574.6,-1.0,-6.0,13.0,9624.0,11470.0,5445.0,3823.0,-131.0,2.0,-4.0,4.0,-12.0,-3.0,11202.0,10885.0,4373.0,2308.0,-60.0,-11.0,-6.0,1.0
2022-05-08 18:19:31.300582-07:00,839.4,962.0,1333.2,933.0,690.5,490.1,1550.6,922.0,3477.1,3477.1,670.1,860.4,415.3,3497.8,927.1,770.3,3478.3,3473.4,401.2,567.4,439.6,494.0,247.0,244.7,3475.9,3480.7,556.2,536.2,702.8,1085.1,1331.4,574.6,-7.0,-1.0,10.0,9666.0,11439.0,5425.0,3837.0,-54.0,-51.0,12.0,2.0,2.0,0.0,11224.0,10864.0,4365.0,2319.0,-58.0,8.0,10.0,1.0
2022-05-08 18:19:31.360474-07:00,839.4,969.6,1337.7,930.5,690.5,490.1,1550.6,922.0,3467.4,3477.1,665.2,857.9,415.3,3497.8,927.1,770.3,3478.3,3473.4,401.2,567.4,437.2,494.0,245.4,243.9,3475.9,3480.7,556.2,536.2,710.1,1089.5,1329.6,572.2,-4.0,-10.0,4.0,9682.0,11439.0,5399.0,3833.0,-9.0,-51.0,43.0,0.0,-1.0,-4.0,11219.0,10865.0,4372.0,2324.0,30.0,26.0,7.0,1.0
2022-05-08 18:19:31.420361-07:00,839.4,969.6,1337.7,930.5,692.9,486.1,1545.0,919.4,3467.4,3477.1,665.2,857.9,412.1,3500.2,924.5,764.5,3478.3,3475.9,402.8,565.0,437.2,494.0,245.4,243.9,3479.5,3471.0,553.8,537.8,710.1,1089.5,1329.6,572.2,-3.0,-1.0,5.0,9692.0,11444.0,5372.0,3832.0,-1.0,-43.0,40.0,0.0,1.0,-10.0,11212.0,10871.0,4375.0,2330.0,14.0,11.0,11.0,1.0
2022-05-08 18:19:31.450441-07:00,841.1,970.5,1334.1,932.2,692.9,486.1,1545.0,919.4,3478.3,3480.7,667.6,862.1,412.1,3500.2,924.5,764.5,3478.3,3475.9,402.8,565.0,436.4,494.0,248.5,247.0,3479.5,3471.0,553.8,537.8,709.3,1088.6,1327.8,574.6,-2.0,6.0,2.0,9698.0,11453.0,5347.0,3824.0,-14.0,-74.0,19.0,0.0,8.0,-8.0,11209.0,10872.0,4376.0,2335.0,8.0,12.0,5.0,1.0
2022-05-08 18:19:31.510380-07:00,841.1,970.5,1334.1,932.2,690.5,486.1,1538.5,922.0,3478.3,3480.7,667.6,862.1,415.3,3496.6,920.3,767.8,3485.6,3480.7,401.2,562.6,436.4,494.0,248.5,247.0,3475.9,3488.0,551.4,531.4,709.3,1088.6,1327.8,574.6,-5.0,2.0,3.0,9713.0,11454.0,5325.0,3814.0,-35.0,-40.0,24.0,0.0,2.0,-2.0,11211.0,10870.0,4375.0,2336.0,-13.0,-8.0,6.0,1.0
2022-05-08 18:19:31.570405-07:00,842.8,959.4,1335.0,928.8,690.5,486.1,1538.5,922.0,3479.5,3474.6,670.1,860.4,415.3,3496.6,920.3,767.8,3485.6,3480.7,401.2,562.6,434.9,495.6,243.9,247.7,3475.9,3488.0,551.4,531.4,709.3,1087.7,1337.7,576.2,-3.0,-6.0,21.0,9734.0,11447.0,5295.0,3824.0,-116.0,-33.0,89.0,6.0,1.0,7.0,11213.0,10867.0,4373.0,2343.0,-15.0,25.0,23.0,1.0
2022-05-08 18:19:31.600594-07:00,838.6,959.4,1335.0,928.8,688.9,486.1,1538.5,920.3,3475.9,3474.6,670.1,860.4,413.7,3491.7,914.4,772.8,3488.0,3469.8,401.2,564.2,434.9,495.6,243.9,248.5,3483.2,3477.1,559.4,537.0,709.3,1087.7,1337.7,576.2,-16.0,47.0,16.0,9791.0,11420.0,5212.0,3872.0,-552.0,-149.0,334.0,26.0,54.0,33.0,11212.0,10855.0,4381.0,2385.0,-65.0,147.0,56.0,1.0
2022-05-08 18:19:31.660526-07:00,838.6,960.2,1332.3,923.7,688.9,486.1,1538.5,931.3,3475.9,3472.2,664.4,855.3,413.7,3491.7,914.4,767.0,3472.2,3469.8,401.2,564.2,438.0,489.3,243.2,248.5,3471.0,3477.1,559.4,537.0,711.8,1083.4,1324.1,576.2,-72.0,72.0,-174.0,10110.0,11243.0,4790.0,4108.0,-2449.0,-862.0,1377.0,-78.0,244.0,52.0,11285.0,10737.0,4403.0,2530.0,-916.0,156.0,50.0,1.0
2022-05-08 18:19:31.750499-07:00,828.5,960.2,1332.3,923.7,688.0,484.5,1547.8,931.3,3467.4,3472.2,664.4,855.3,419.2,3501.4,973.9,767.0,3472.2,3478.3,398.1,562.6,438.0,489.3,243.2,237.8,3471.0,3477.1,565.0,531.4,711.8,1083.4,1324.1,568.2,15.0,-78.0,-74.0,11028.0,10629.0,3662.0,4520.0,-3460.0,-1100.0,1375.0,-24.0,-65.0,-178.0,11929.0,10076.0,4126.0,2754.0,-2522.0,-359.0,112.0,1.0
2022-05-08 18:19:31.751971-07:00,828.5,954.3,1325.0,923.7,688.0,484.5,1547.8,927.1,3467.4,3474.6,670.9,852.8,419.2,3501.4,973.9,772.8,3478.3,3478.3,398.1,562.6,436.4,494.8,245.4,237.8,3485.6,3477.1,565.0,531.4,706.0,1086.8,1363.0,568.2,-42.0,152.0,-77.0,11854.0,9812.0,2622.0,4975.0,-3518.0,-625.0,1241.0,-37.0,20.0,-44.0,12685.0,9230.0,3692.0,2949.0,-3070.0,-654.0,172.0,1.0
2022-05-08 18:19:31.810346-07:00,833.6,954.3,1325.0,923.7,684.0,483.0,1532.0,927.1,3477.1,3474.6,670.9,852.8,413.7,3503.9,1060.8,772.8,3478.3,3479.5,398.1,563.4,436.4,494.8,245.4,239.3,3485.6,3477.1,577.8,531.4,706.0,1086.8,1363.0,573.0,-28.0,-141.0,-62.0,12632.0,8832.0,1618.0,5314.0,-2928.0,-1001.0,1000.0,0.0,-120.0,17.0,13351.0,8377.0,3210.0,3118.0,-2030.0,-624.0,246.0,1.0
2022-05-08 18:19:31.870366-07:00,833.6,942.4,1325.0,933.9,684.0,483.0,1532.0,915.2,3477.1,3472.2,674.2,862.1,413.7,3503.9,1060.8,773.6,3477.1,3479.5,398.1,563.4,432.5,500.4,244.7,239.3,3479.5,3477.1,577.8,531.4,706.0,1090.3,1383.0,573.0,89.0,-31.0,56.0,12889.0,8557.0,759.0,5341.0,-492.0,-1484.0,757.0,47.0,-67.0,76.0,13523.0,8157.0,2991.0,3177.0,-39.0,-172.0,155.0,1.0
2022-05-08 18:19:32.111188-07:00,829.4,935.6,1325.0,933.9,688.9,480.6,1516.2,915.2,3480.7,3472.2,674.2,862.1,408.2,3497.8,1115.6,773.6,3477.1,3481.9,401.2,565.8,432.5,500.4,243.2,243.2,3479.5,3481.9,565.8,505.9,706.0,1090.3,1404.0,571.4,8.0,-5.0,70.0,12919.0,8583.0,84.0,5278.0,-651.0,-1092.0,695.0,20.0,-22.0,-18.0,13557.0,8101.0,2918.0,3241.0,-295.0,-12.0,172.0,1.0
2022-05-08 18:19:32.113559-07:00,829.4,935.6,1334.1,944.9,688.9,480.6,1502.3,906.7,3480.7,3472.2,674.2,860.4,408.2,3497.8,1217.7,781.9,3475.9,3479.5,401.2,565.8,438.0,501.2,243.2,243.2,3477.1,3488.0,565.8,505.9,711.8,1116.5,1404.0,571.4,-60.0,-71.0,-1.0,12984.0,8451.0,-386.0,5319.0,-530.0,-544.0,547.0,-58.0,-50.0,-5.0,13614.0,8000.0,2844.0,3317.0,-196.0,42.0,184.0,1.0
2022-05-08 18:19:32.260457-07:00,826.9,932.2,1334.1,944.9,688.0,471.9,1502.3,906.7,3469.8,3467.4,674.2,860.4,412.1,3496.6,1217.7,781.9,3475.9,3479.5,398.9,563.4,438.0,501.2,243.2,244.7,3477.1,3488.0,566.6,499.6,711.8,1116.5,1472.7,582.6,-19.0,-56.0,10.0,13014.0,8378.0,-797.0,5314.0,-556.0,-717.0,359.0,20.0,-21.0,-71.0,13638.0,7960.0,2785.0,3364.0,-226.0,-44.0,151.0,1.0
2022-05-08 18:19:32.263152-07:00,826.9,932.2,1332.3,948.3,688.0,471.9,1496.7,905.9,3469.8,3467.4,684.0,862.1,412.1,3496.6,1268.5,784.4,3479.5,3488.0,398.9,563.4,438.8,502.0,243.2,244.7,3477.1,3478.3,566.6,499.6,705.2,1140.1,1472.7,582.6,-27.0,43.0,-18.0,12994.0,8393.0,-1061.0,5292.0,-12.0,-497.0,221.0,-34.0,27.0,36.0,13649.0,7942.0,2724.0,3411.0,38.0,-66.0,117.0,1.0
2022-05-08 18:19:32.264039-07:00,821.0,944.9,1332.3,948.3,689.7,467.9,1496.7,905.9,3472.2,3472.2,684.0,862.1,411.4,3502.7,1268.5,784.4,3479.5,3488.0,395.7,566.6,438.8,502.0,243.9,240.9,3477.1,3478.3,562.6,494.0,705.2,1140.1,1513.4,562.6,11.0,21.0,5.0,12969.0,8454.0,-1339.0,5194.0,-159.0,-652.0,56.0,30.0,2.0,-56.0,13637.0,7973.0,2680.0,3421.0,-13.0,-146.0,4.0,1.0
2022-05-08 18:19:32.264605-07:00,821.0,944.9,1332.3,948.3,689.7,467.9,1496.7,905.9,3472.2,3472.2,684.0,862.1,411.4,3502.7,1268.5,784.4,3479.5,3488.0,395.7,566.6,438.8,502.0,243.9,240.9,3477.1,3478.3,562.6,494.0,705.2,1140.1,1513.4,562.6,11.0,21.0,5.0,12969.0,8454.0,-1339.0,5194.0,-159.0,-652.0,56.0,30.0,2.0,-56.0,13637.0,7973.0,2680.0,3421.0,-13.0,-146.0,4.0,1.0
2022-05-08 18:19:32.291037-07:00,826.9,947.5,1337.7,939.8,693.8,468.7,1491.2,951.7,3478.3,3479.5,700.3,859.5,417.6,3497.8,1266.7,796.0,3475.9,3472.2,391.1,566.6,447.4,498.8,243.2,241.6,3488.0,3478.3,563.4,486.9,706.0,1138.4,1565.5,572.2,13.0,12.0,9.0,12875.0,8689.0,-1599.0,4961.0,315.0,-515.0,-149.0,20.0,24.0,-26.0,13552.0,8160.0,2640.0,3351.0,502.0,-110.0,-32.0,1.0
2022-05-08 18:19:32.321072-07:00,826.9,947.5,1337.7,939.0,693.8,469.5,1502.3,1001.3,3478.3,3479.5,700.3,854.5,417.6,3494.1,1263.1,789.4,3483.2,3488.0,392.6,566.6,444.3,498.8,243.2,241.6,3481.9,3467.4,556.2,486.9,708.5,1138.4,1565.5,572.2,-39.0,1.0,-36.0,12820.0,8813.0,-1652.0,4865.0,186.0,-260.0,-53.0,-1.0,-12.0,-13.0,13456.0,8333.0,2660.0,3293.0,519.0,-125.0,-22.0,1.0
2022-05-08 18:19:32.380124-07:00,841.1,932.2,1335.0,939.0,687.2,469.5,1502.3,1001.3,3471.0,3472.2,711.0,854.5,414.5,3494.1,1263.1,789.4,3483.2,3488.0,392.6,575.4,444.3,504.4,237.8,244.7,3481.9,3467.4,556.2,481.4,708.5,1134.9,1595.5,566.6,-25.0,-7.0,12.0,12734.0,8989.0,-1693.0,4756.0,558.0,-365.0,-215.0,-1.0,8.0,-52.0,13319.0,8581.0,2674.0,3203.0,921.0,-198.0,-65.0,1.0
2022-05-08 18:19:32.383005-07:00,841.1,932.2,1335.0,932.2,687.2,454.5,1504.1,1007.3,3471.0,3472.2,711.0,862.9,414.5,3499.0,1254.2,795.2,3480.7,3473.4,387.2,575.4,445.1,504.4,237.8,244.7,3477.1,3475.9,556.2,481.4,706.0,1134.9,1595.5,566.6,2.0,22.0,-41.0,12589.0,9245.0,-1631.0,4672.0,492.0,-157.0,-209.0,8.0,20.0,6.0,13144.0,8881.0,2695.0,3088.0,663.0,-116.0,-50.0,1.0
2022-05-08 18:19:32.410356-07:00,838.6,922.8,1335.9,932.2,689.7,454.5,1504.1,1007.3,3477.1,3478.3,720.8,862.9,416.1,3499.0,1254.2,795.2,3480.7,3473.4,387.2,567.4,445.1,500.4,243.2,234.8,3477.1,3475.9,556.2,475.8,706.0,1128.7,1602.1,560.2,15.0,-38.0,38.0,12472.0,9439.0,-1623.0,4599.0,631.0,-234.0,-73.0,69.0,-48.0,-1.0,12981.0,9138.0,2727.0,2998.0,870.0,-116.0,-30.0,1.0
2022-05-08 18:19:32.470478-07:00,838.6,922.8,1335.9,935.6,692.1,453.0,1505.1,1004.8,3477.1,3478.3,720.8,860.4,414.5,3500.2,1239.9,796.0,3477.1,3483.2,387.9,571.4,448.2,500.4,243.2,234.8,3484.4,3479.5,557.0,472.7,698.7,1128.7,1602.1,560.2,55.0,-31.0,105.0,12271.0,9706.0,-1510.0,4622.0,839.0,160.0,-39.0,25.0,21.0,60.0,12721.0,9503.0,2802.0,2905.0,1046.0,44.0,-24.0,1.0
2022-05-08 18:19:32.500633-07:00,855.3,922.0,1336.8,930.5,692.1,453.0,1505.1,1004.8,3483.2,3472.2,716.7,862.9,414.5,3500.2,1239.9,796.0,3477.1,3483.2,387.9,571.4,445.1,496.4,243.9,241.6,3484.4,3479.5,557.0,472.7,705.2,1140.1,1575.8,634.3,-2.0,22.0,-22.0,12134.0,9897.0,-1384.0,4620.0,502.0,-164.0,-303.0,37.0,-119.0,65.0,12513.0,9744.0,2927.0,2889.0,717.0,237.0,-19.0,1.0
2022-05-08 18:19:32.561142-07:00,855.3,922.0,1336.8,930.5,702.8,451.4,1493.0,972.2,3483.2,3472.2,716.7,862.9,416.8,3501.4,1222.2,796.9,3477.1,3473.4,385.6,573.0,445.1,496.4,243.9,241.6,3484.4,3485.6,557.8,463.2,705.2,1140.1,1575.8,634.3,0.0,47.0,39.0,11979.0,10258.0,-1120.0,4295.0,1340.0,-199.0,-1289.0,-9.0,-35.0,-69.0,12208.0,10098.0,3102.0,2793.0,1477.0,119.0,-241.0,1.0
2022-05-08 18:19:32.620481-07:00,838.6,904.2,1325.0,922.8,702.8,451.4,1493.0,972.2,3478.3,3477.1,722.5,856.2,416.8,3501.4,1222.2,796.9,3477.1,3473.4,385.6,573.0,438.8,497.2,237.8,242.4,3484.4,3485.6,557.8,463.2,697.9,1140.1,1568.3,614.1,-5.0,140.0,15.0,11690.0,10792.0,-460.0,3888.0,1602.0,378.0,-1663.0,-26.0,87.0,-76.0,11784.0,10572.0,3342.0,2576.0,1477.0,80.0,-411.0,1.0
2022-05-08 18:19:32.651051-07:00,838.6,904.2,1325.0,922.8,697.9,445.9,1482.9,937.3,3478.3,3477.1,722.5,856.2,414.5,3494.1,1205.3,791.0,3474.6,3475.9,383.3,570.6,438.8,497.2,237.8,242.4,3478.3,3492.9,549.8,464.8,697.9,1140.1,1568.3,614.1,-59.0,-96.0,-125.0,11508.0,11130.0,299.0,3472.0,1185.0,247.0,-1743.0,-20.0,-16.0,-61.0,11516.0,10843.0,3573.0,2340.0,973.0,-7.0,-530.0,1.0
2022-05-08 18:19:32.710916-07:00,831.1,899.1,1325.0,925.4,697.9,445.9,1482.9,937.3,3472.2,3478.3,710.1,860.4,414.5,3494.1,1205.3,791.0,3474.6,3475.9,383.3,570.6,437.2,509.1,244.7,244.7,3478.3,3492.9,549.8,464.8,701.9,1134.0,1529.2,598.7,0.0,1.0,-39.0,11215.0,11513.0,768.0,3084.0,1085.0,-22.0,-864.0,16.0,68.0,-62.0,11165.0,11183.0,3773.0,2115.0,1180.0,32.0,-283.0,1.0
2022-05-08 18:19:32.740509-07:00,838.6,899.1,1325.0,925.4,691.3,447.4,1462.6,929.6,3475.9,3478.3,710.1,860.4,412.1,3497.8,1193.8,792.7,3474.6,3474.6,391.8,567.4,437.2,509.1,244.7,234.8,3471.0,3474.6,544.2,457.7,701.9,1134.0,1529.2,593.9,-38.0,-73.0,-28.0,11093.0,11652.0,985.0,2937.0,283.0,39.0,-315.0,0.0,-2.0,-7.0,11000.0,11336.0,3859.0,2006.0,251.0,-11.0,-92.0,1.0
2022-05-08 18:19:32.800595-07:00,838.6,901.7,1318.7,927.1,691.3,447.4,1462.6,911.8,3475.9,3467.4,739.7,858.7,412.1,3497.8,1193.8,792.7,3467.4,3474.6,391.8,567.4,436.4,499.6,237.8,234.8,3477.1,3474.6,544.2,457.7,701.9,1126.1,1520.8,593.9,14.0,-18.0,17.0,11085.0,11662.0,975.0,2933.0,-157.0,-27.0,245.0,16.0,44.0,3.0,10998.0,11352.0,3829.0,1989.0,-129.0,-91.0,103.0,1.0
2022-05-08 18:19:32.890949-07:00,832.7,901.7,1318.7,927.1,688.0,447.4,1452.5,911.8,3475.9,3467.4,739.7,858.7,412.9,3486.8,1185.9,792.7,3467.4,3477.1,387.9,566.6,436.4,499.6,237.8,240.1,3477.1,3480.7,549.8,456.9,701.9,1126.1,1520.8,592.3,3.0,-13.0,17.0,11162.0,11571.0,848.0,3039.0,-312.0,-23.0,286.0,13.0,-31.0,24.0,11089.0,11278.0,3755.0,2043.0,-324.0,-32.0,141.0,1.0
2022-05-08 18:19:32.892743-07:00,832.7,896.6,1318.7,930.5,688.0,447.4,1452.5,903.4,3475.9,3483.2,724.9,856.2,412.9,3486.8,1185.9,787.7,3485.6,3477.1,387.9,566.6,437.2,498.8,244.7,240.1,3481.9,3480.7,549.8,456.9,704.4,1124.4,1508.8,592.3,30.0,82.0,31.0,11173.0,11554.0,749.0,3092.0,-51.0,-30.0,214.0,12.0,40.0,-3.0,11118.0,11257.0,3708.0,2089.0,-47.0,10.0,108.0,1.0
2022-05-08 18:19:32.951091-07:00,831.1,896.6,1318.7,930.5,685.6,449.0,1437.8,903.4,3471.0,3483.2,724.9,856.2,419.2,3505.1,1183.2,787.7,3485.6,3472.2,378.6,563.4,437.2,498.8,244.7,237.8,3481.9,3474.6,551.4,455.3,704.4,1124.4,1508.8,586.7,-14.0,-3.0,-9.0,11185.0,11532.0,690.0,3142.0,-33.0,-33.0,136.0,7.0,-31.0,-1.0,11136.0,11238.0,3690.0,2127.0,-46.0,34.0,70.0,1.0
2022-05-08 18:19:33.010355-07:00,831.1,889.0,1318.7,930.5,685.6,449.0,1437.8,914.4,3471.0,3474.6,726.6,853.7,419.2,3505.1,1183.2,791.0,3483.2,3472.2,378.6,563.4,434.1,498.8,237.8,237.8,3479.5,3474.6,551.4,455.3,706.0,1125.2,1505.1,586.7,-6.0,14.0,6.0,11170.0,11543.0,664.0,3158.0,29.0,14.0,69.0,4.0,10.0,-21.0,11132.0,11240.0,3681.0,2153.0,9.0,28.0,60.0,1.0
2022-05-08 18:19:33.040423-07:00,832.7,892.4,1318.7,930.5,694.6,446.7,1423.1,914.4,3472.2,3471.0,726.6,853.7,415.3,3499.0,1182.3,791.0,3483.2,3477.1,384.0,568.2,434.1,498.8,243.9,243.2,3479.5,3483.2,551.4,461.6,706.0,1125.2,1496.7,585.9,-8.0,21.0,-15.0,11176.0,11526.0,654.0,3199.0,-105.0,48.0,87.0,2.0,-3.0,-9.0,11145.0,11225.0,3673.0,2177.0,-119.0,23.0,32.0,1.0
2022-05-08 18:19:33.101098-07:00,832.7,892.4,1323.2,927.1,694.6,446.7,1409.4,955.1,3472.2,3471.0,729.9,857.9,415.3,3499.0,1178.8,790.2,3479.5,3477.1,384.0,568.2,432.5,501.2,243.9,243.2,3488.0,3483.2,551.4,461.6,703.6,1127.9,1496.7,585.9,-10.0,-7.0,-8.0,11190.0,11511.0,630.0,3215.0,20.0,-21.0,66.0,6.0,-4.0,-29.0,11163.0,11210.0,3657.0,2188.0,7.0,-21.0,38.0,1.0
2022-05-08 18:19:33.160472-07:00,830.2,888.2,1323.2,927.1,688.9,449.0,1409.4,955.1,3472.2,3481.9,729.9,857.9,416.8,3507.5,1178.8,790.2,3479.5,3477.1,387.9,570.6,432.5,501.2,236.3,244.7,3488.0,3483.2,551.4,451.4,703.6,1127.9,1494.0,581.8,-10.0,7.0,-9.0,11185.0,11511.0,607.0,3235.0,-53.0,-7.0,81.0,3.0,-4.0,-4.0,11161.0,11214.0,3645.0,2198.0,-43.0,-4.0,37.0,1.0
2022-05-08 18:19:33.190494-07:00,830.2,888.2,1314.2,924.5,688.9,449.0,1406.7,975.6,3472.2,3481.9,729.0,859.5,416.8,3507.5,1170.0,785.2,3483.2,3478.3,387.9,570.6,427.8,498.8,236.3,244.7,3485.6,3488.0,551.4,451.4,700.3,1116.5,1494.0,581.8,2.0,14.0,3.0,11192.0,11508.0,577.0,3228.0,-18.0,-61.0,15.0,11.0,6.0,-12.0,11171.0,11208.0,3630.0,2201.0,-25.0,-28.0,12.0,1.0
2022-05-08 18:19:33.280380-07:00,829.4,885.6,1314.2,924.5,687.2,445.9,1406.7,975.6,3472.2,3472.2,729.0,859.5,413.7,3499.0,1170.0,785.2,3483.2,3478.3,383.3,565.8,427.8,498.8,241.6,243.2,3485.6,3488.0,546.6,452.2,700.3,1116.5,1488.4,581.8,0.0,-4.0,2.0,11195.0,11509.0,564.0,3217.0,-1.0,-41.0,18.0,5.0,7.0,3.0,11179.0,11202.0,3623.0,2201.0,-18.0,6.0,10.0,1.0
2022-05-08 18:19:33.341075-07:00,829.4,885.6,1312.4,923.7,687.2,445.9,1395.7,961.1,3472.2,3472.2,720.0,859.5,413.7,3499.0,1175.3,789.4,3478.3,3483.2,383.3,565.8,439.6,502.8,241.6,243.2,3481.9,3488.0,546.6,452.2,703.6,1115.6,1488.4,581.8,2.0,0.0,18.0,11200.0,11509.0,540.0,3203.0,-36.0,-38.0,0.0,7.0,-2.0,-15.0,11186.0,11196.0,3619.0,2203.0,-41.0,-8.0,-2.0,1.0
2022-05-08 18:19:33.342126-07:00,827.7,874.7,1307.0,923.7,688.0,442.7,1395.7,961.1,3472.2,3471.0,720.8,859.5,411.4,3501.4,1175.3,789.4,3478.3,3483.2,384.0,568.2,439.6,502.8,239.3,242.4,3481.9,3488.0,552.2,449.8,703.6,1113.0,1478.3,582.6,3.0,4.0,7.0,11206.0,11506.0,530.0,3195.0,12.0,-11.0,9.0,7.0,10.0,-10.0,11190.0,11190.0,3621.0,2209.0,8.0,11.0,6.0,1.0
2022-05-08 18:19:33.400527-07:00,827.7,874.7,1307.0,919.4,688.0,438.8,1389.4,956.0,3472.2,3471.0,720.8,862.9,411.4,3492.9,1165.6,781.1,3478.3,3475.9,381.7,568.2,431.7,502.8,239.3,242.4,3480.7,3483.2,556.2,449.8,699.5,1113.0,1478.3,582.6,-7.0,-12.0,-6.0,11202.0,11508.0,520.0,3202.0,-14.0,-33.0,85.0,3.0,7.0,-1.0,11188.0,11190.0,3623.0,2219.0,-16.0,20.0,27.0,1.0
2022-05-08 18:19:33.490512-07:00,831.9,878.0,1307.0,919.4,693.8,438.8,1389.4,956.0,3480.7,3468.6,736.5,862.9,413.7,3492.9,1165.6,781.1,3478.3,3475.9,381.7,566.6,431.7,501.2,236.3,243.9,3480.7,3483.2,556.2,448.2,699.5,1115.6,1485.6,569.0,0.0,0.0,4.0,11215.0,11493.0,476.0,3214.0,-90.0,-22.0,84.0,5.0,7.0,-17.0,11208.0,11169.0,3614.0,2239.0,-104.0,15.0,29.0,1.0
2022-05-08 18:19:33.492035-07:00,831.9,878.0,1307.0,927.1,693.8,441.9,1385.7,954.3,3480.7,3468.6,736.5,857.9,413.7,3497.8,1162.1,786.9,3479.5,3483.2,384.8,566.6,434.9,501.2,236.3,243.9,3477.1,3486.8,543.4,448.2,701.9,1115.6,1485.6,569.0,4.0,7.0,3.0,11231.0,11473.0,434.0,3239.0,-65.0,-18.0,108.0,9.0,1.0,-10.0,11221.0,11154.0,3607.0,2255.0,-51.0,5.0,26.0,1.0
2022-05-08 18:19:33.580469-07:00,832.7,879.7,1314.2,927.1,686.4,441.9,1385.7,954.3,3472.2,3472.2,723.3,857.9,412.9,3497.8,1162.1,786.9,3479.5,3483.2,384.8,562.6,434.9,497.2,241.6,244.7,3477.1,3486.8,543.4,449.0,701.9,1108.6,1496.7,566.6,4.0,-10.0,17.0,11245.0,11450.0,401.0,3274.0,-76.0,79.0,122.0,7.0,13.0,-8.0,11237.0,11138.0,3599.0,2271.0,-78.0,38.0,25.0,1.0
2022-05-08 18:19:33.610460-07:00,832.7,879.7,1314.2,915.2,686.4,437.2,1385.7,946.6,3472.2,3472.2,723.3,854.5,412.9,3497.8,1163.0,788.6,3481.9,3478.3,380.9,562.6,430.9,497.2,241.6,244.7,3467.4,3467.4,548.2,449.0,691.3,1108.6,1496.7,566.6,-1.0,5.0,-16.0,11258.0,11421.0,370.0,3335.0,-130.0,-14.0,121.0,7.0,6.0,0.0,11254.0,11114.0,3599.0,2302.0,-107.0,45.0,13.0,1.0
2022-05-08 18:19:33.640331-07:00,835.2,879.7,1304.3,917.7,689.7,437.2,1385.7,946.6,3475.9,3475.9,713.4,858.7,410.6,3497.8,1163.0,788.6,3481.9,3478.3,380.9,567.4,436.4,498.0,242.4,239.3,3467.4,3467.4,548.2,445.1,703.6,1107.8,1493.0,567.4,-11.0,10.0,-5.0,11275.0,11401.0,310.0,3350.0,-25.0,-69.0,64.0,1.0,-4.0,-31.0,11262.0,11101.0,3604.0,2321.0,7.0,17.0,2.0,1.0
2022-05-08 18:19:33.700466-07:00,835.2,879.7,1304.3,917.7,684.8,435.7,1383.9,960.2,3475.9,3475.9,713.4,858.7,420.8,3497.8,1163.8,783.6,3483.2,3472.2,383.3,564.2,436.4,498.0,242.4,239.3,3478.3,3478.3,549.8,448.2,703.6,1107.8,1493.0,567.4,-10.0,0.0,-2.0,11273.0,11403.0,285.0,3354.0,-13.0,-3.0,59.0,1.0,2.0,-13.0,11253.0,11108.0,3610.0,2324.0,-2.0,11.0,9.0,1.0
2022-05-08 18:19:33.760481-07:00,827.7,877.2,1303.4,924.5,684.8,435.7,1383.9,960.2,3473.4,3479.5,711.0,857.9,420.8,3497.8,1163.8,783.6,3483.2,3472.2,383.3,564.2,431.7,502.8,240.1,244.7,3478.3,3478.3,549.8,448.2,699.5,1112.1,1480.1,561.0,-6.0,-1.0,-5.0,11280.0,11393.0,255.0,3366.0,-50.0,-80.0,62.0,11.0,-10.0,-2.0,11262.0,11098.0,3605.0,2334.0,-42.0,-5.0,23.0,1.0
2022-05-08 18:19:33.820409-07:00,827.7,877.2,1303.4,924.5,692.1,438.0,1381.2,959.4,3473.4,3479.5,711.0,857.9,412.1,3491.7,1162.1,785.2,3478.3,3477.1,380.9,569.0,431.7,502.8,240.1,244.7,3488.0,3483.2,549.8,446.7,699.5,1112.1,1480.1,561.0,-3.0,8.0,12.0,11282.0,11392.0,218.0,3365.0,-6.0,-31.0,51.0,3.0,4.0,0.0,11263.0,11098.0,3597.0,2340.0,0.0,20.0,15.0,1.0
2022-05-08 18:19:33.850544-07:00,823.5,876.4,1298.1,922.0,692.1,438.0,1381.2,959.4,3467.4,3479.5,717.5,857.0,412.1,3491.7,1162.1,785.2,3478.3,3477.1,380.9,569.0,433.3,499.6,244.7,237.8,3488.0,3483.2,549.8,446.7,701.9,1113.9,1492.1,559.4,-7.0,-1.0,1.0,11278.0,11394.0,193.0,3375.0,-8.0,-28.0,78.0,10.0,0.0,-2.0,11261.0,11098.0,3597.0,2353.0,-13.0,29.0,26.0,1.0
2022-05-08 18:19:33.910450-07:00,823.5,876.4,1298.1,922.0,682.3,440.4,1384.8,961.1,3467.4,3479.5,717.5,857.0,410.6,3491.7,1161.2,786.9,3485.6,3477.1,377.8,568.2,433.3,499.6,244.7,237.8,3481.9,3484.4,544.2,441.9,701.9,1113.9,1492.1,559.4,-1.0,2.0,11.0,11282.0,11385.0,152.0,3392.0,-45.0,-31.0,91.0,7.0,0.0,-9.0,11266.0,11088.0,3595.0,2375.0,-41.0,23.0,32.0,1.0
2022-05-08 18:19:34.000496-07:00,824.4,878.0,1295.4,919.4,682.3,440.4,1384.8,956.8,3475.9,3473.4,716.7,853.7,410.6,3491.7,1161.2,781.9,3478.3,3477.1,377.8,568.2,436.4,498.0,241.6,240.1,3480.7,3484.4,544.2,441.9,699.5,1112.1,1477.3,561.0,-11.0,8.0,-6.0,11277.0,11383.0,120.0,3417.0,-3.0,-19.0,99.0,4.0,9.0,0.0,11261.0,11088.0,3599.0,2395.0,1.0,48.0,22.0,1.0
2022-05-08 18:19:34.090363-07:00,830.2,878.0,1295.4,919.4,685.6,432.5,1381.2,956.8,3473.4,3473.4,716.7,853.7,412.1,3492.9,1155.0,781.9,3478.3,3472.2,377.8,566.6,436.4,498.0,241.6,239.3,3480.7,3478.3,545.0,442.7,699.5,1112.1,1477.3,557.8,-12.0,5.0,-14.0,11274.0,11380.0,72.0,3439.0,-15.0,-38.0,147.0,3.0,0.0,-6.0,11256.0,11086.0,3604.0,2417.0,-21.0,61.0,35.0,1.0
2022-05-08 18:19:34.091702-07:00,830.2,874.7,1295.4,922.8,685.6,432.5,1381.2,961.1,3473.4,3475.9,719.2,857.9,412.1,3492.9,1155.0,784.4,3477.1,3472.2,377.8,566.6,432.5,498.0,241.6,239.3,3483.2,3478.3,545.0,442.7,697.9,1101.7,1473.6,557.8,-2.0,10.0,0.0,11267.0,11379.0,-1.0,3468.0,-31.0,-55.0,183.0,6.0,11.0,-11.0,11257.0,11081.0,3601.0,2443.0,-29.0,36.0,39.0,1.0
2022-05-08 18:19:34.093127-07:00,824.4,874.7,1295.4,922.8,691.3,441.2,1384.8,961.1,3477.1,3475.9,719.2,857.9,414.5,3491.7,1155.0,784.4,3477.1,3481.9,381.7,566.6,432.5,498.0,241.6,240.1,3483.2,3479.5,546.6,447.4,697.9,1101.7,1473.6,560.2,-13.0,-16.0,-4.0,11259.0,11371.0,-83.0,3517.0,-54.0,-65.0,224.0,3.0,-6.0,-11.0,11258.0,11074.0,3600.0,2470.0,-27.0,32.0,44.0,1.0
2022-05-08 18:19:34.150518-07:00,824.4,878.9,1302.5,930.5,691.3,441.2,1384.8,956.0,3477.1,3481.9,711.8,858.7,414.5,3491.7,1155.0,776.1,3471.0,3481.9,381.7,566.6,429.4,497.2,241.6,240.1,3469.8,3479.5,546.6,447.4,694.6,1106.0,1471.8,560.2,-10.0,-12.0,2.0,11247.0,11364.0,-177.0,3571.0,-37.0,-48.0,281.0,3.0,4.0,-4.0,11256.0,11073.0,3591.0,2496.0,-21.0,35.0,75.0,1.0
2022-05-08 18:19:34.210328-07:00,828.5,878.9,1302.5,930.5,686.4,438.8,1392.1,956.0,3478.3,3481.9,711.8,858.7,405.9,3486.8,1153.3,776.1,3471.0,3474.6,383.3,561.0,429.4,497.2,241.6,241.6,3469.8,3477.1,545.8,441.2,694.6,1106.0,1471.8,559.4,-9.0,-13.0,12.0,11242.0,11337.0,-299.0,3665.0,-130.0,10.0,361.0,3.0,-12.0,-14.0,11265.0,11060.0,3570.0,2540.0,-116.0,31.0,92.0,1.0
2022-05-08 18:19:34.240442-07:00,828.5,876.4,1297.2,919.4,686.4,438.8,1412.2,1003.0,3478.3,3471.0,711.8,855.3,405.9,3486.8,1167.4,781.9,3475.9,3477.1,383.3,561.0,432.5,497.2,242.4,241.6,3474.6,3478.3,545.8,441.2,696.2,1106.0,1466.3,559.4,1.0,7.0,5.0,11235.0,11292.0,-411.0,3810.0,-120.0,133.0,467.0,3.0,20.0,-17.0,11293.0,11030.0,3535.0,2596.0,-173.0,29.0,122.0,1.0
2022-05-08 18:19:34.300633-07:00,830.2,876.4,1297.2,919.4,689.7,442.7,1412.2,1003.0,3467.4,3467.4,711.8,855.3,411.4,3497.8,1167.4,781.9,3475.9,3477.1,379.4,566.6,432.5,497.2,237.1,237.8,3474.6,3478.3,540.2,442.7,696.2,1106.0,1471.8,553.0,-18.0,11.0,-41.0,11253.0,11205.0,-551.0,3993.0,-241.0,6.0,527.0,4.0,-29.0,31.0,11358.0,10956.0,3493.0,2682.0,-286.0,79.0,163.0,1.0
2022-05-08 18:19:34.360690-07:00,830.2,876.4,1302.5,920.3,689.7,442.7,1410.3,1034.0,3467.4,3467.4,710.1,857.9,411.4,3497.8,1149.8,796.0,3472.2,3472.2,379.4,566.6,439.6,501.2,237.1,237.8,3474.6,3473.4,540.2,442.7,701.9,1108.6,1471.8,553.0,7.0,32.0,12.0,11271.0,11152.0,-733.0,4062.0,-155.0,-144.0,300.0,13.0,29.0,-35.0,11400.0,10910.0,3454.0,2742.0,-122.0,26.0,84.0,1.0
2022-05-08 18:19:34.390455-07:00,831.1,867.9,1302.5,920.3,686.4,441.2,1410.3,1034.0,3462.5,3472.2,710.1,857.9,407.5,3491.7,1149.8,796.0,3472.2,3472.2,378.6,567.4,439.6,501.2,241.6,240.1,3474.6,3473.4,550.6,441.9,701.9,1108.6,1470.9,553.0,-13.0,-32.0,2.0,11269.0,11117.0,-834.0,4142.0,-105.0,52.0,276.0,5.0,-3.0,-13.0,11429.0,10875.0,3436.0,2781.0,-139.0,31.0,48.0,1.0
2022-05-08 18:19:34.450971-07:00,831.1,867.9,1295.4,922.8,686.4,441.2,1404.0,1056.5,3462.5,3472.2,709.3,861.2,407.5,3491.7,1151.5,776.9,3473.4,3479.5,378.6,567.4,442.7,499.6,241.6,240.1,3483.2,3485.6,550.6,441.9,698.7,1103.4,1470.9,553.0,-7.0,-10.0,-17.0,11251.0,11093.0,-919.0,4237.0,-57.0,-6.0,276.0,7.0,-7.0,-2.0,11453.0,10844.0,3420.0,2824.0,-99.0,32.0,64.0,1.0
2022-05-08 18:19:34.480553-07:00,826.0,873.0,1297.2,922.8,684.8,435.7,1404.0,1056.5,3473.4,3471.0,706.9,861.2,413.7,3499.0,1151.5,776.9,3473.4,3479.5,377.8,569.0,442.7,500.4,240.9,239.3,3483.2,3485.6,552.2,441.9,698.7,1106.9,1472.7,552.2,-2.0,13.0,18.0,11239.0,11067.0,-1029.0,4310.0,-85.0,-33.0,301.0,7.0,6.0,-21.0,11467.0,10824.0,3405.0,2864.0,-73.0,46.0,63.0,1.0
2022-05-08 18:19:34.540490-07:00,826.0,873.0,1297.2,926.2,684.8,435.7,1409.4,1060.8,3473.4,3471.0,706.9,861.2,413.7,3501.4,1141.9,782.7,3479.5,3483.2,377.0,569.0,444.3,500.4,240.9,239.3,3483.2,3480.7,547.4,441.9,698.7,1106.9,1472.7,552.2,-1.0,1.0,3.0,11222.0,11045.0,-1088.0,4395.0,-8.0,75.0,196.0,10.0,-1.0,4.0,11479.0,10804.0,3397.0,2900.0,-56.0,47.0,45.0,1.0
2022-05-08 18:19:34.601143-07:00,826.9,876.4,1291.8,926.2,678.2,435.7,1409.4,1060.8,3472.2,3472.2,705.2,861.2,417.6,3501.4,1141.9,782.7,3479.5,3483.2,377.0,569.8,444.3,496.4,237.1,238.6,3483.2,3480.7,547.4,440.4,698.7,1104.3,1471.8,569.8,-20.0,-14.0,-21.0,11202.0,11037.0,-1136.0,4452.0,-22.0,-46.0,183.0,4.0,-25.0,3.0,11482.0,10790.0,3396.0,2940.0,-44.0,73.0,67.0,1.0
2022-05-08 18:19:34.660429-07:00,826.9,876.4,1291.8,923.7,678.2,441.2,1419.5,1053.0,3472.2,3472.2,705.2,856.2,417.6,3491.7,1154.2,782.7,3483.2,3478.3,377.8,569.8,440.4,496.4,237.1,238.6,3481.9,3471.0,547.4,440.4,699.5,1104.3,1471.8,569.8,-8.0,23.0,0.0,11202.0,11025.0,-1184.0,4474.0,-6.0,24.0,48.0,0.0,5.0,-19.0,11491.0,10775.0,3386.0,2970.0,-76.0,21.0,41.0,1.0
2022-05-08 18:19:34.690482-07:00,826.9,868.8,1297.2,923.7,686.4,441.2,1419.5,1053.0,3467.4,3475.9,702.8,856.2,410.6,3491.7,1154.2,782.7,3483.2,3478.3,377.8,573.0,440.4,499.6,244.7,240.1,3481.9,3471.0,547.4,444.3,699.5,1105.1,1470.9,641.6,-14.0,14.0,-22.0,11199.0,11022.0,-1202.0,4482.0,-30.0,-50.0,42.0,9.0,-5.0,-25.0,11498.0,10769.0,3376.0,2979.0,-35.0,-35.0,21.0,1.0
2022-05-08 18:19:34.750607-07:00,826.9,868.8,1297.2,918.6,686.4,432.5,1408.5,1054.8,3467.4,3475.9,702.8,865.4,410.6,3502.7,1147.1,781.9,3479.5,3479.5,377.0,573.0,441.9,499.6,244.7,240.1,3484.4,3477.1,544.2,444.3,697.9,1105.1,1470.9,641.6,-12.0,8.0,5.0,11203.0,11027.0,-1209.0,4457.0,-6.0,-30.0,-41.0,-1.0,12.0,-29.0,11507.0,10767.0,3357.0,2973.0,-7.0,-68.0,-1.0,1.0
2022-05-08 18:19:34.810508-07:00,833.6,865.4,1309.7,922.8,682.3,432.5,1408.5,1054.8,3477.1,3478.3,700.3,857.9,412.9,3502.7,1147.1,781.9,3479.5,3479.5,377.0,568.2,443.5,494.8,240.1,237.1,3484.4,3477.1,544.2,440.4,695.4,1090.3,1466.3,627.8,-4.0,-8.0,-15.0,11211.0,11023.0,-1196.0,4450.0,-30.0,-12.0,-18.0,10.0,-5.0,12.0,11517.0,10767.0,3337.0,2955.0,-14.0,-73.0,-10.0,1.0
2022-05-08 18:19:34.900691-07:00,833.6,865.4,1309.7,922.8,679.1,435.7,1393.9,1051.3,3477.1,3478.3,700.3,857.9,412.1,3491.7,1147.1,778.6,3481.9,3488.0,379.4,570.6,443.5,494.8,240.1,237.1,3479.5,3483.2,545.8,436.4,695.4,1090.3,1466.3,627.8,-8.0,-17.0,31.0,11224.0,11015.0,-1183.0,4443.0,12.0,84.0,-41.0,0.0,2.0,-7.0,11523.0,10771.0,3320.0,2935.0,-8.0,-13.0,0.0,1.0
2022-05-08 18:19:34.902030-07:00,837.7,867.9,1302.5,922.0,679.1,435.7,1393.9,1051.3,3480.7,3473.4,701.9,856.2,412.1,3491.7,1147.1,778.6,3481.9,3488.0,379.4,570.6,438.8,496.4,240.1,237.1,3479.5,3483.2,545.8,436.4,691.3,1098.2,1465.4,603.6,-9.0,-2.0,-33.0,11227.0,11010.0,-1163.0,4451.0,-44.0,-46.0,-20.0,13.0,1.0,-7.0,11528.0,10771.0,3310.0,2927.0,13.0,-56.0,8.0,1.0
2022-05-08 18:19:34.930505-07:00,837.7,867.9,1302.5,922.0,680.7,436.4,1396.7,1043.5,3480.7,3473.4,701.9,856.2,413.7,3494.1,1141.9,780.3,3481.9,3475.9,377.8,569.0,438.8,496.4,240.1,237.1,3477.1,3479.5,545.0,435.7,691.3,1098.2,1465.4,603.6,-6.0,7.0,13.0,11242.0,11001.0,-1182.0,4431.0,-61.0,-6.0,-7.0,3.0,1.0,-3.0,11536.0,10771.0,3293.0,2915.0,-94.0,-40.0,-1.0,1.0
2022-05-08 18:19:34.990911-07:00,830.2,868.8,1316.9,923.7,680.7,436.4,1396.7,1043.5,3478.3,3475.9,700.3,853.7,413.7,3494.1,1141.9,780.3,3481.9,3475.9,377.8,569.0,438.0,496.4,240.9,237.1,3477.1,3479.5,545.0,435.7,695.4,1088.6,1468.1,598.7,3.0,-13.0,23.0,11273.0,10962.0,-1206.0,4441.0,-135.0,16.0,79.0,7.0,4.0,6.0,11569.0,10739.0,3274.0,2924.0,-148.0,13.0,34.0,1.0
2022-05-08 18:19:35.051203-07:00,830.2,868.8,1316.9,923.7,691.3,432.5,1393.0,1035.7,3478.3,3475.9,700.3,853.7,413.7,3499.0,1141.0,782.7,3481.9,3478.3,377.0,565.0,438.0,496.4,240.9,237.1,3475.9,3481.9,546.6,444.3,695.4,1088.6,1468.1,598.7,-2.0,-2.0,18.0,11316.0,10890.0,-1244.0,4499.0,-252.0,123.0,146.0,6.0,-6.0,6.0,11626.0,10674.0,3253.0,2961.0,-286.0,31.0,35.0,1.0
2022-05-08 18:19:35.080589-07:00,836.9,864.6,1309.7,920.3,691.3,432.5,1393.0,1022.8,3474.6,3478.3,698.7,852.0,413.7,3499.0,1141.0,776.9,3477.1,3478.3,377.0,565.0,438.0,496.4,240.1,240.9,3481.9,3481.9,546.6,444.3,695.4,1099.0,1461.7,606.0,-5.0,19.0,-10.0,11365.0,10806.0,-1282.0,4569.0,-165.0,68.0,148.0,8.0,-1.0,0.0,11689.0,10597.0,3232.0,3010.0,-173.0,37.0,39.0,1.0
2022-05-08 18:19:35.140508-07:00,831.1,864.6,1309.7,920.3,677.4,435.7,1391.2,1022.8,3467.4,3478.3,698.7,852.0,410.6,3497.8,1141.0,776.9,3477.1,3478.3,378.6,569.0,438.0,496.4,240.1,241.6,3481.9,3483.2,547.4,441.2,695.4,1099.0,1461.7,592.3,5.0,24.0,9.0,11388.0,10756.0,-1306.0,4621.0,-119.0,116.0,121.0,5.0,11.0,-8.0,11731.0,10541.0,3226.0,3050.0,-237.0,70.0,14.0,1.0
2022-05-08 18:19:35.230499-07:00,831.1,876.4,1310.6,926.2,677.4,435.7,1391.2,1006.5,3467.4,3473.4,695.4,857.9,410.6,3497.8,1141.0,777.8,3484.4,3478.3,378.6,569.0,440.4,494.0,237.8,241.6,3479.5,3483.2,547.4,441.2,697.9,1090.3,1462.6,592.3,-13.0,0.0,-9.0,11420.0,10700.0,-1317.0,4667.0,-56.0,34.0,66.0,4.0,-2.0,-4.0,11769.0,10488.0,3227.0,3082.0,-57.0,47.0,25.0,1.0
2022-05-08 18:19:35.260457-07:00,828.5,876.4,1310.6,926.2,677.4,434.1,1388.5,1006.5,3478.3,3473.4,695.4,857.9,416.1,3501.4,1143.6,777.8,3484.4,3478.3,375.5,569.0,440.4,494.0,237.8,243.2,3479.5,3479.5,545.0,441.2,697.9,1090.3,1462.6,593.1,-5.0,12.0,1.0,11429.0,10681.0,-1331.0,4687.0,-92.0,61.0,68.0,6.0,6.0,-16.0,11785.0,10464.0,3226.0,3106.0,-106.0,32.0,17.0,1.0
2022-05-08 18:19:35.320391-07:00,828.5,878.9,1314.2,922.0,677.4,434.1,1388.5,1002.2,3478.3,3475.9,694.6,859.5,416.1,3501.4,1143.6,776.1,3477.1,3478.3,375.5,569.0,439.6,502.8,242.4,243.2,3473.4,3479.5,545.0,441.2,685.6,1093.8,1459.8,593.1,-22.0,3.0,-32.0,11453.0,10637.0,-1349.0,4722.0,-147.0,20.0,94.0,5.0,-10.0,-13.0,11823.0,10417.0,3214.0,3131.0,-170.0,-3.0,21.0,1.0
2022-05-08 18:19:35.350960-07:00,835.2,878.9,1314.2,922.0,683.1,438.8,1390.3,1002.2,3478.3,3475.9,694.6,859.5,412.9,3486.8,1135.7,776.1,3477.1,3478.3,378.6,567.4,439.6,502.8,242.4,241.6,3473.4,3478.3,540.2,437.2,685.6,1093.8,1459.8,586.7,0.0,12.0,10.0,11468.0,10616.0,-1381.0,4723.0,-17.0,-29.0,4.0,5.0,11.0,0.0,11843.0,10397.0,3198.0,3139.0,-11.0,-12.0,12.0,1.0
2022-05-08 18:19:35.380659-07:00,835.2,877.2,1300.7,926.2,683.1,438.8,1371.2,1000.5,3478.3,3477.1,701.1,851.1,412.9,3486.8,1135.7,778.6,3475.9,3473.4,378.6,567.4,437.2,493.2,237.1,241.6,3469.8,3480.7,540.2,437.2,692.9,1091.2,1459.8,586.7,-4.0,-14.0,7.0,11474.0,10607.0,-1376.0,4731.0,-21.0,69.0,25.0,11.0,-7.0,4.0,11848.0,10389.0,3199.0,3144.0,-52.0,20.0,-5.0,1.0
2022-05-08 18:19:35.440568-07:00,837.7,877.2,1300.7,926.2,680.7,438.8,1371.2,1000.5,3474.6,3474.6,701.1,851.1,414.5,3496.6,1135.7,778.6,3475.9,3473.4,373.2,566.6,437.2,493.2,240.1,240.9,3469.8,3480.7,543.4,438.8,692.9,1091.2,1456.2,585.9,-1.0,4.0,3.0,11481.0,10593.0,-1373.0,4747.0,-7.0,7.0,1.0,8.0,3.0,-7.0,11856.0,10376.0,3203.0,3154.0,-2.0,12.0,6.0,1.0
2022-05-08 18:19:35.500488-07:00,837.7,877.2,1307.9,917.7,680.7,438.8,1362.1,972.2,3474.6,3474.6,690.5,860.4,414.5,3496.6,1134.0,778.6,3474.6,3478.3,373.2,566.6,432.5,494.0,240.1,240.9,3477.1,3477.1,543.4,438.8,704.4,1086.8,1456.2,585.9,-13.0,14.0,-5.0,11484.0,10587.0,-1355.0,4757.0,-1.0,86.0,-29.0,-3.0,0.0,-8.0,11858.0,10371.0,3208.0,3158.0,-29.0,16.0,-13.0,1.0
2022-05-08 18:19:35.531023-07:00,844.4,876.4,1307.9,917.7,684.0,443.5,1362.1,972.2,3467.4,3472.2,690.5,860.4,411.4,3497.8,1134.0,778.6,3474.6,3478.3,373.2,570.6,432.5,494.0,236.3,237.8,3477.1,3477.1,536.2,438.0,704.4,1086.8,1456.2,585.1,-8.0,-2.0,-19.0,11481.0,10593.0,-1341.0,4755.0,12.0,-59.0,4.0,8.0,-1.0,-3.0,11855.0,10374.0,3212.0,3157.0,28.0,1.0,5.0,1.0
2022-05-08 18:19:35.590641-07:00,844.4,876.4,1304.3,926.2,684.0,443.5,1353.1,969.6,3467.4,3472.2,684.0,856.2,411.4,3497.8,1127.0,771.1,3472.2,3467.4,373.2,570.6,438.0,492.5,236.3,237.8,3484.4,3475.9,536.2,438.0,699.5,1083.4,1456.2,585.1,-8.0,-4.0,15.0,11483.0,10593.0,-1354.0,4748.0,-27.0,30.0,16.0,3.0,0.0,-2.0,11855.0,10374.0,3211.0,3158.0,-29.0,0.0,4.0,1.0
2022-05-08 18:19:35.650485-07:00,836.9,874.7,1304.3,926.2,679.1,430.9,1353.1,969.6,3478.3,3479.5,684.0,856.2,412.9,3499.0,1127.0,771.1,3472.2,3467.4,375.5,565.0,438.0,492.5,237.8,237.8,3484.4,3475.9,545.0,438.0,699.5,1083.4,1456.2,584.3,-4.0,1.0,-7.0,11485.0,10587.0,-1348.0,4756.0,15.0,-22.0,0.0,7.0,1.0,11.0,11859.0,10368.0,3210.0,3160.0,8.0,6.0,4.0,1.0
2022-05-08 18:19:35.680500-07:00,836.9,874.7,1297.2,923.7,679.1,436.4,1352.1,959.4,3478.3,3479.5,685.6,862.1,412.9,3500.2,1133.1,772.0,3474.6,3472.2,371.6,565.0,442.7,496.4,237.8,237.8,3481.9,3481.9,540.2,438.0,697.9,1086.8,1456.2,584.3,-6.0,7.0,2.0,11482.0,10593.0,-1350.0,4750.0,-9.0,15.0,3.0,3.0,8.0,-13.0,11855.0,10373.0,3211.0,3160.0,0.0,5.0,-3.0,1.0
2022-05-08 18:19:35.740630-07:00,830.2,878.9,1293.6,923.7,680.7,436.4,1352.1,959.4,3468.6,3473.4,684.8,862.1,412.9,3500.2,1133.1,772.0,3474.6,3472.2,371.6,567.4,442.7,488.5,237.8,237.8,3481.9,3481.9,540.2,437.2,697.9,1089.5,1450.6,583.5,-12.0,0.0,-12.0,11486.0,10585.0,-1342.0,4761.0,-23.0,-1.0,25.0,2.0,0.0,12.0,11861.0,10365.0,3211.0,3164.0,-26.0,11.0,7.0,1.0
2022-05-08 18:19:35.830545-07:00,830.2,878.9,1293.6,921.1,680.7,435.7,1346.7,962.8,3468.6,3473.4,684.8,856.2,412.9,3495.3,1126.1,772.0,3474.6,3477.1,375.5,567.4,438.8,488.5,237.8,237.8,3485.6,3479.5,541.8,437.2,694.6,1089.5,1450.6,583.5,0.0,10.0,9.0,11487.0,10586.0,-1360.0,4749.0,17.0,-42.0,-13.0,6.0,-3.0,-4.0,11860.0,10366.0,3210.0,3164.0,31.0,0.0,0.0,1.0
2022-05-08 18:19:35.860370-07:00,834.4,873.0,1299.0,921.1,678.2,435.7,1346.7,962.8,3472.2,3477.1,690.5,856.2,412.1,3495.3,1126.1,772.0,3474.6,3477.1,375.5,562.6,438.8,492.5,237.1,240.9,3485.6,3479.5,541.8,435.7,694.6,1086.0,1449.7,581.0,-12.0,-11.0,4.0,11490.0,10585.0,-1349.0,4749.0,3.0,59.0,-7.0,5.0,-2.0,-2.0,11861.0,10364.0,3213.0,3163.0,-16.0,18.0,-11.0,1.0
2022-05-08 18:19:35.890922-07:00,834.4,873.0,1299.0,927.9,678.2,430.2,1340.4,960.2,3472.2,3477.1,690.5,857.0,412.1,3495.3,1129.6,771.1,3478.3,3481.9,373.9,562.6,439.6,492.5,237.1,240.9,3480.7,3484.4,537.0,435.7,695.4,1086.0,1449.7,581.0,-5.0,4.0,-6.0,11487.0,10586.0,-1346.0,4753.0,-2.0,-32.0,17.0,9.0,2.0,-5.0,11860.0,10364.0,3216.0,3167.0,-4.0,-2.0,11.0,1.0
2022-05-08 18:19:35.950338-07:00,823.5,868.8,1309.7,927.9,675.8,430.2,1340.4,960.2,3474.6,3473.4,691.3,857.0,411.4,3495.3,1129.6,771.1,3478.3,3481.9,373.9,566.6,439.6,492.5,234.0,237.8,3480.7,3484.4,537.0,433.3,695.4,1079.9,1442.4,572.2,-5.0,10.0,9.0,11490.0,10582.0,-1344.0,4756.0,10.0,58.0,-3.0,2.0,9.0,-2.0,11862.0,10361.0,3215.0,3169.0,-16.0,12.0,-2.0,1.0
2022-05-08 18:19:35.980515-07:00,823.5,868.8,1309.7,926.2,672.5,434.1,1338.6,951.7,3474.6,3473.4,691.3,862.9,413.7,3495.3,1123.5,774.5,3478.3,3473.4,377.0,568.2,436.4,492.5,234.0,237.8,3480.7,3479.5,543.4,434.1,695.4,1079.9,1442.4,572.2,-4.0,-9.0,-8.0,11489.0,10582.0,-1338.0,4762.0,12.0,-31.0,10.0,12.0,-5.0,3.0,11859.0,10360.0,3222.0,3175.0,30.0,18.0,5.0,1.0
2022-05-08 18:19:36.040549-07:00,818.5,878.9,1303.4,924.5,672.5,434.1,1338.6,951.7,3474.6,3475.9,680.7,857.0,413.7,3495.3,1123.5,774.5,3478.3,3473.4,377.0,568.2,435.7,493.2,252.3,237.8,3480.7,3479.5,543.4,434.1,699.5,1085.1,1450.6,576.2,-4.0,2.0,15.0,11487.0,10584.0,-1347.0,4761.0,-7.0,29.0,10.0,2.0,2.0,-3.0,11857.0,10360.0,3226.0,3180.0,-26.0,23.0,1.0,1.0
2022-05-08 18:19:36.100551-07:00,818.5,878.9,1303.4,924.5,680.7,432.5,1333.2,952.6,3474.6,3475.9,680.7,857.0,414.5,3496.6,1123.5,776.1,3480.7,3481.9,372.4,565.0,435.7,493.2,252.3,237.8,3479.5,3481.9,547.4,435.7,699.5,1085.1,1450.6,576.2,0.0,-2.0,1.0,11494.0,10564.0,-1330.0,4792.0,-37.0,91.0,38.0,10.0,-3.0,5.0,11870.0,10337.0,3233.0,3196.0,-71.0,40.0,-3.0,1.0
2022-05-08 18:19:36.130447-07:00,823.5,874.7,1295.4,930.5,680.7,432.5,1333.2,952.6,3483.2,3472.2,685.6,856.2,414.5,3496.6,1123.5,776.1,3480.7,3481.9,372.4,565.0,436.4,492.5,239.3,234.8,3479.5,3481.9,547.4,435.7,701.1,1084.2,1445.1,577.0,-7.0,-2.0,5.0,11503.0,10536.0,-1315.0,4835.0,-42.0,131.0,36.0,6.0,-10.0,0.0,11889.0,10307.0,3241.0,3216.0,-81.0,56.0,1.0,1.0
2022-05-08 18:19:36.191134-07:00,823.5,874.7,1295.4,930.5,679.1,434.1,1337.7,960.2,3483.2,3472.2,685.6,856.2,409.8,3502.7,1116.5,777.8,3473.4,3477.1,372.4,573.0,436.4,492.5,239.3,234.8,3481.9,3486.8,544.2,429.4,701.1,1084.2,1445.1,577.0,10.0,-2.0,23.0,11505.0,10522.0,-1290.0,4868.0,-4.0,76.0,8.0,10.0,5.0,8.0,11895.0,10291.0,3254.0,3233.0,-35.0,76.0,-1.0,1.0
2022-05-08 18:19:36.250506-07:00,822.7,881.4,1295.4,922.0,679.1,434.1,1337.7,960.2,3469.8,3479.5,680.7,862.1,409.8,3502.7,1116.5,777.8,3473.4,3477.1,372.4,573.0,435.7,491.7,238.6,243.2,3481.9,3486.8,544.2,429.4,695.4,1087.7,1443.3,576.2,47.0,-7.0,69.0,11511.0,10501.0,-1245.0,4910.0,10.0,221.0,-9.0,27.0,4.0,30.0,11904.0,10261.0,3280.0,3269.0,-58.0,179.0,-25.0,1.0
2022-05-08 18:19:36.280524-07:00,829.4,881.4,1295.4,922.0,679.1,435.7,1351.2,967.9,3471.0,3479.5,680.7,862.1,412.1,3502.7,1123.5,770.3,3480.7,3479.5,386.4,565.0,435.7,491.7,238.6,238.6,3475.9,3478.3,543.4,438.0,695.4,1087.7,1443.3,572.2,70.0,-19.0,126.0,11525.0,10448.0,-1078.0,5030.0,47.0,742.0,-89.0,31.0,-4.0,14.0,11910.0,10209.0,3351.0,3334.0,-89.0,341.0,-93.0,1.0
2022-05-08 18:19:36.340831-07:00,829.4,926.2,1301.6,923.7,679.1,435.7,1351.2,956.8,3471.0,3478.3,685.6,856.2,412.1,3502.7,1123.5,775.3,3478.3,3479.5,386.4,565.0,436.4,493.2,236.3,238.6,3472.2,3478.3,543.4,438.0,697.9,1083.4,1448.8,572.2,19.0,-17.0,32.0,11533.0,10339.0,-700.0,5294.0,172.0,1179.0,-127.0,11.0,-18.0,29.0,11924.0,10118.0,3487.0,3425.0,-122.0,429.0,-110.0,1.0
2022-05-08 18:19:36.400621-07:00,817.7,926.2,1301.6,923.7,675.0,442.7,1358.5,956.8,3467.4,3478.3,685.6,856.2,413.7,3496.6,1170.0,775.3,3478.3,3480.7,379.4,565.0,436.4,493.2,236.3,240.1,3472.2,3483.2,547.4,458.5,697.9,1083.4,1448.8,571.4,33.0,67.0,-2.0,11473.0,10305.0,-165.0,5531.0,790.0,1345.0,-518.0,23.0,-18.0,-79.0,11887.0,10080.0,3661.0,3481.0,327.0,375.0,-249.0,1.0
2022-05-08 18:19:36.460361-07:00,817.7,952.6,1311.5,926.2,675.0,442.7,1358.5,960.2,3467.4,3475.9,692.9,862.1,413.7,3496.6,1170.0,778.6,3479.5,3480.7,379.4,565.0,439.6,494.8,241.6,240.1,3479.5,3483.2,547.4,458.5,699.5,1084.2,1447.9,571.4,-22.0,111.0,-145.0,11301.0,10343.0,693.0,5768.0,1049.0,1893.0,-848.0,-58.0,-3.0,-138.0,11792.0,10121.0,3889.0,3437.0,308.0,234.0,-464.0,1.0
2022-05-08 18:19:36.490471-07:00,826.0,952.6,1311.5,926.2,683.1,461.6,1358.5,960.2,3472.2,3475.9,692.9,862.1,416.8,3501.4,1185.9,778.6,3479.5,3480.7,393.4,561.8,439.6,494.8,241.6,240.1,3479.5,3481.9,549.8,493.2,699.5,1084.2,1447.9,571.4,-28.0,-11.0,-253.0,11172.0,10344.0,1730.0,5799.0,1153.0,1422.0,-1778.0,-7.0,-78.0,-88.0,11771.0,10131.0,4074.0,3261.0,174.0,-29.0,-599.0,1.0
2022-05-08 18:19:36.550555-07:00,826.0,977.3,1320.5,927.9,683.1,461.6,1358.5,919.4,3472.2,3477.1,683.1,860.4,416.8,3501.4,1185.9,772.8,3483.2,3480.7,393.4,561.8,432.5,494.8,240.1,240.1,3488.0,3481.9,549.8,493.2,701.1,1085.1,1425.9,571.4,-48.0,22.0,108.0,10888.0,10602.0,2805.0,5442.0,1712.0,864.0,-1647.0,-51.0,177.0,25.0,11665.0,10249.0,4255.0,3037.0,822.0,22.0,-406.0,1.0
2022-05-08 18:19:36.580596-07:00,831.1,965.4,1320.5,927.9,677.4,511.5,1588.0,919.4,3467.4,3480.7,683.1,860.4,414.5,3496.6,1146.3,772.8,3483.2,3483.2,398.9,569.8,432.5,494.8,244.7,244.7,3488.0,3469.8,566.6,537.8,701.1,1085.1,1396.7,573.8,-53.0,-199.0,-35.0,10729.0,10640.0,3478.0,5294.0,853.0,432.0,-826.0,27.0,-129.0,80.0,11574.0,10367.0,4328.0,2879.0,400.0,-70.0,-162.0,1.0
2022-05-08 18:19:36.640582-07:00,831.1,965.4,1316.0,926.2,677.4,511.5,1590.8,916.0,3467.4,3480.7,679.1,857.0,414.5,3496.6,1049.6,769.5,3486.8,3477.1,398.9,569.8,437.2,492.5,244.7,244.7,3474.6,3472.2,566.6,537.8,702.8,1092.1,1396.7,573.8,-14.0,-27.0,27.0,10495.0,10886.0,3780.0,5049.0,730.0,-13.0,-249.0,2.0,68.0,27.0,11400.0,10561.0,4389.0,2771.0,684.0,8.0,-24.0,1.0
2022-05-08 18:19:36.730534-07:00,827.7,972.2,1316.0,926.2,676.6,502.0,1590.8,916.0,3466.1,3474.6,679.1,857.0,409.8,3500.2,1049.6,769.5,3486.8,3477.1,391.8,566.6,437.2,492.5,244.7,245.4,3474.6,3472.2,557.8,542.6,702.8,1092.1,1363.9,569.8,-18.0,-15.0,41.0,10355.0,11027.0,3838.0,4988.0,465.0,-3.0,20.0,-22.0,0.0,-9.0,11266.0,10707.0,4410.0,2724.0,390.0,-8.0,66.0,1.0
2022-05-08 18:19:36.732295-07:00,827.7,972.2,1307.9,922.8,676.6,502.0,1580.5,904.2,3466.1,3474.6,674.2,858.7,409.8,3500.2,1006.5,769.5,3481.9,3478.3,391.8,566.6,423.1,489.3,244.7,245.4,3478.3,3474.6,557.8,542.6,697.9,1086.8,1363.9,569.8,3.0,78.0,15.0,10267.0,11109.0,3902.0,4939.0,193.0,8.0,-97.0,-16.0,88.0,4.0,11196.0,10786.0,4405.0,2706.0,170.0,-35.0,23.0,1.0
2022-05-08 18:19:36.790452-07:00,832.7,984.2,1307.9,922.8,683.1,505.9,1580.5,904.2,3471.0,3483.2,674.2,858.7,416.8,3491.7,1006.5,769.5,3481.9,3478.3,388.7,565.8,423.1,489.3,243.2,246.2,3478.3,3474.6,557.0,533.0,697.9,1086.8,1345.8,570.6,5.0,-16.0,4.0,10257.0,11126.0,3912.0,4912.0,31.0,-62.0,-48.0,-5.0,-26.0,-18.0,11184.0,10809.0,4394.0,2682.0,19.0,-49.0,-13.0,1.0
2022-05-08 18:19:36.850563-07:00,832.7,984.2,1305.2,925.4,683.1,504.4,1560.9,907.6,3471.0,3483.2,672.5,859.5,416.8,3500.2,985.0,764.5,3488.0,3472.2,388.7,565.8,432.5,487.7,243.2,246.2,3480.7,3483.2,559.4,533.0,700.3,1087.7,1345.8,570.6,-5.0,28.0,23.0,10213.0,11166.0,3962.0,4874.0,163.0,27.0,-58.0,6.0,17.0,18.0,11190.0,10820.0,4374.0,2652.0,25.0,-77.0,-11.0,1.0
2022-05-08 18:19:36.880569-07:00,831.9,982.5,1306.1,925.4,680.7,504.4,1560.9,907.6,3473.4,3473.4,673.3,859.5,410.6,3500.2,985.0,764.5,3488.0,3472.2,391.1,565.0,432.5,492.5,243.2,243.2,3480.7,3483.2,559.4,528.2,700.3,1079.9,1327.8,568.2,1.0,-28.0,-4.0,10220.0,11166.0,3957.0,4864.0,-48.0,-38.0,27.0,0.0,-12.0,-28.0,11193.0,10819.0,4369.0,2648.0,-32.0,-13.0,3.0,1.0
2022-05-08 18:19:36.940442-07:00,831.9,982.5,1306.1,928.8,680.7,492.5,1548.7,896.6,3473.4,3473.4,673.3,860.4,410.6,3497.8,973.9,765.3,3474.6,3477.1,399.6,565.0,433.3,492.5,243.2,243.2,3474.6,3478.3,556.2,528.2,701.9,1079.9,1327.8,568.2,-6.0,25.0,15.0,10224.0,11167.0,3947.0,4861.0,18.0,-23.0,-12.0,-3.0,27.0,2.0,11220.0,10799.0,4349.0,2646.0,-62.0,-55.0,-4.0,1.0
2022-05-08 18:19:36.970633-07:00,829.4,991.0,1310.6,928.8,680.7,492.5,1548.7,896.6,3478.3,3474.6,668.4,860.4,412.1,3497.8,973.9,765.3,3474.6,3477.1,399.6,564.2,433.3,488.5,246.2,244.7,3474.6,3478.3,556.2,528.2,701.9,1079.0,1331.4,568.2,-5.0,0.0,12.0,10230.0,11173.0,3928.0,4849.0,-19.0,-74.0,10.0,0.0,0.0,-3.0,11223.0,10799.0,4347.0,2643.0,18.0,7.0,-10.0,1.0
2022-05-08 18:19:37.030524-07:00,829.4,991.0,1310.6,930.5,680.7,498.0,1532.0,893.2,3478.3,3474.6,668.4,857.9,412.1,3497.8,984.2,760.4,3475.9,3480.7,393.4,564.2,426.2,488.5,246.2,244.7,3478.3,3483.2,557.0,528.2,701.1,1079.0,1331.4,568.2,-6.0,0.0,19.0,10245.0,11172.0,3894.0,4849.0,-21.0,-30.0,45.0,4.0,-8.0,-3.0,11227.0,10796.0,4344.0,2642.0,-41.0,-19.0,13.0,1.0
2022-05-08 18:19:37.090536-07:00,831.9,985.0,1301.6,930.5,679.1,498.0,1532.0,893.2,3479.5,3475.9,662.7,857.9,413.7,3497.8,984.2,760.4,3475.9,3480.7,393.4,564.2,426.2,486.1,255.3,248.5,3478.3,3483.2,557.0,525.8,701.1,1072.9,1332.3,569.8,-1.0,22.0,23.0,10248.0,11176.0,3878.0,4846.0,26.0,-24.0,12.0,1.0,12.0,0.0,11231.0,10792.0,4340.0,2643.0,4.0,-1.0,0.0,1.0
2022-05-08 18:19:37.120427-07:00,831.9,985.0,1301.6,925.4,680.7,489.3,1530.1,897.4,3479.5,3475.9,662.7,862.1,414.5,3489.2,963.7,761.2,3472.2,3478.3,392.6,569.8,430.2,486.1,255.3,248.5,3485.6,3474.6,552.2,524.2,697.9,1072.9,1332.3,569.8,-1.0,-8.0,15.0,10256.0,11173.0,3872.0,4840.0,-10.0,6.0,-13.0,-1.0,-7.0,-22.0,11221.0,10800.0,4348.0,2642.0,13.0,15.0,-10.0,1.0
2022-05-08 18:19:37.210345-07:00,826.9,987.6,1297.2,927.1,680.7,489.3,1530.1,897.4,3474.6,3471.0,663.6,856.2,414.5,3489.2,963.7,761.2,3472.2,3478.3,392.6,569.8,425.5,489.3,247.0,249.2,3485.6,3474.6,552.2,524.2,706.0,1077.3,1318.7,569.8,-3.0,2.0,6.0,10256.0,11173.0,3867.0,4842.0,-15.0,-16.0,17.0,2.0,-1.0,-7.0,11212.0,10806.0,4355.0,2643.0,29.0,17.0,-2.0,1.0
2022-05-08 18:19:37.240545-07:00,826.9,987.6,1297.2,927.1,683.1,497.2,1516.2,892.4,3474.6,3471.0,663.6,856.2,415.3,3503.9,961.1,760.4,3477.1,3479.5,390.3,567.4,425.5,489.3,247.0,249.2,3485.6,3480.7,557.0,521.0,706.0,1077.3,1318.7,569.8,-2.0,7.0,4.0,10262.0,11173.0,3858.0,4839.0,-21.0,-19.0,11.0,-1.0,6.0,-10.0,11206.0,10811.0,4359.0,2645.0,8.0,3.0,2.0,1.0
2022-05-08 18:19:37.270554-07:00,828.5,981.6,1307.0,924.5,683.1,497.2,1516.2,892.4,3488.0,3478.3,661.1,855.3,415.3,3503.9,961.1,760.4,3477.1,3479.5,390.3,567.4,427.8,490.1,240.1,240.9,3485.6,3480.7,557.0,521.0,701.1,1066.0,1317.8,562.6,-1.0,3.0,8.0,10265.0,11172.0,3856.0,4835.0,18.0,-16.0,-8.0,2.0,4.0,-3.0,11203.0,10813.0,4361.0,2644.0,22.0,8.0,-7.0,1.0
2022-05-08 18:19:37.330555-07:00,828.5,981.6,1307.0,924.5,672.5,497.2,1517.1,884.8,3488.0,3478.3,661.1,855.3,412.1,3494.1,960.2,758.7,3472.2,3480.7,390.3,568.2,427.8,490.1,240.1,240.9,3477.1,3480.7,552.2,517.9,701.1,1066.0,1317.8,562.6,-4.0,-10.0,4.0,10268.0,11175.0,3844.0,4832.0,-34.0,-29.0,32.0,2.0,-5.0,-6.0,11197.0,10817.0,4365.0,2645.0,-2.0,16.0,6.0,1.0
2022-05-08 18:19:37.390491-07:00,824.4,979.9,1303.4,918.6,672.5,497.2,1517.1,884.8,3474.6,3473.4,663.6,856.2,412.1,3494.1,960.2,758.7,3472.2,3480.7,390.3,568.2,427.0,488.5,244.7,244.7,3477.1,3480.7,552.2,517.9,698.7,1078.2,1309.7,558.6,1.0,18.0,3.0,10277.0,11182.0,3818.0,4818.0,1.0,-77.0,1.0,-3.0,5.0,-24.0,11197.0,10818.0,4361.0,2646.0,-19.0,-22.0,5.0,1.0
2022-05-08 18:19:37.420490-07:00,823.5,979.9,1303.4,918.6,675.0,496.4,1511.5,887.3,3474.6,3473.4,663.6,856.2,410.6,3495.3,956.8,758.7,3475.9,3480.7,391.1,563.4,427.0,488.5,244.7,243.2,3480.7,3479.5,552.2,521.8,698.7,1078.2,1309.7,564.2,-1.0,5.0,23.0,10286.0,11180.0,3815.0,4807.0,-38.0,0.0,-19.0,4.0,0.0,-1.0,11207.0,10812.0,4355.0,2642.0,-21.0,-11.0,-11.0,1.0
2022-05-08 18:19:37.480592-07:00,823.5,992.7,1295.4,924.5,675.0,496.4,1511.5,885.6,3474.6,3477.1,660.3,851.1,410.6,3495.3,956.8,757.9,3480.7,3480.7,391.1,563.4,426.2,486.9,251.5,243.2,3477.1,3479.5,552.2,521.8,698.7,1069.5,1316.0,564.2,-3.0,-15.0,6.0,10301.0,11169.0,3801.0,4809.0,-22.0,-36.0,20.0,0.0,-7.0,-3.0,11210.0,10808.0,4356.0,2644.0,-11.0,5.0,7.0,1.0
2022-05-08 18:19:37.570407-07:00,832.7,992.7,1295.4,924.5,679.1,494.0,1514.3,885.6,3467.4,3477.1,660.3,851.1,414.5,3500.2,951.7,757.9,3480.7,3475.9,385.6,569.8,426.2,486.9,251.5,242.4,3477.1,3477.1,556.2,520.3,698.7,1069.5,1316.0,560.2,2.0,28.0,9.0,10310.0,11168.0,3779.0,4810.0,-173.0,-28.0,61.0,3.0,34.0,-19.0,11218.0,10800.0,4353.0,2647.0,-83.0,8.0,6.0,1.0
2022-05-08 18:19:37.571651-07:00,832.7,982.5,1300.7,925.4,679.1,494.0,1514.3,882.3,3467.4,3468.6,661.9,857.0,414.5,3500.2,951.7,756.3,3474.6,3475.9,385.6,569.8,427.8,487.7,245.4,242.4,3478.3,3477.1,556.2,520.3,700.3,1066.0,1310.6,560.2,0.0,75.0,-2.0,10403.0,11084.0,3701.0,4864.0,-759.0,-60.0,174.0,4.0,72.0,5.0,11300.0,10715.0,4328.0,2685.0,-516.0,-19.0,10.0,1.0
2022-05-08 18:19:37.630478-07:00,816.9,982.5,1300.7,925.4,680.7,498.0,1507.8,882.3,3473.4,3468.6,661.9,857.0,417.6,3499.0,944.1,756.3,3474.6,3473.4,387.9,559.4,427.8,487.7,245.4,240.1,3478.3,3473.4,549.8,519.5,700.3,1066.0,1310.6,568.2,-49.0,60.0,-106.0,10733.0,10791.0,3417.0,5011.0,-1953.0,-491.0,460.0,-6.0,86.0,11.0,11540.0,10469.0,4251.0,2758.0,-1382.0,-151.0,-27.0,1.0
2022-05-08 18:19:37.690526-07:00,816.9,979.0,1299.0,925.4,680.7,498.0,1507.8,917.7,3473.4,3477.1,659.5,856.2,417.6,3499.0,944.1,757.1,3478.3,3473.4,387.9,559.4,430.2,489.3,240.9,240.1,3478.3,3473.4,549.8,519.5,692.1,1077.3,1328.7,568.2,-26.0,-11.0,-141.0,11330.0,10303.0,2729.0,5145.0,-2742.0,-1005.0,707.0,-16.0,51.0,-109.0,11984.0,10013.0,4060.0,2840.0,-2172.0,-455.0,45.0,1.0
2022-05-08 18:19:37.750534-07:00,820.2,964.5,1299.0,925.4,676.6,493.2,1522.7,917.7,3478.3,3473.4,659.5,856.2,415.3,3496.6,1028.8,757.1,3478.3,3483.2,387.9,565.0,430.2,489.3,247.7,246.2,3478.3,3485.6,559.4,513.9,692.1,1077.3,1456.2,565.0,-59.0,-52.0,-87.0,11917.0,9741.0,1866.0,5296.0,-2202.0,-1155.0,1000.0,-26.0,-39.0,-17.0,12560.0,9377.0,3718.0,2986.0,-1784.0,-519.0,233.0,1.0
2022-05-08 18:19:37.780624-07:00,820.2,964.5,1296.3,926.2,676.6,493.2,1506.9,891.5,3478.3,3473.4,659.5,857.9,415.3,3496.6,1132.2,767.8,3478.3,3475.9,387.9,565.0,426.2,490.1,247.7,246.2,3477.1,3475.9,559.4,513.9,703.6,1083.4,1456.2,565.0,40.0,-72.0,-32.0,12324.0,9343.0,953.0,5326.0,-1332.0,-1402.0,696.0,32.0,-72.0,-35.0,12939.0,8955.0,3363.0,3083.0,-934.0,-413.0,240.0,1.0
2022-05-08 18:19:37.871247-07:00,826.0,959.4,1296.3,926.2,681.5,482.2,1506.9,891.5,3469.8,3466.1,659.5,857.9,410.6,3494.1,1132.2,767.8,3478.3,3475.9,387.9,564.2,426.2,490.1,237.8,236.3,3477.1,3475.9,567.4,502.0,703.6,1083.4,1513.4,569.0,11.0,-35.0,69.0,12519.0,9176.0,245.0,5240.0,-777.0,-990.0,540.0,20.0,-32.0,13.0,13141.0,8725.0,3131.0,3134.0,-600.0,-284.0,165.0,1.0
2022-05-08 18:19:37.961112-07:00,826.0,959.4,1299.0,920.3,681.5,482.2,1505.1,887.3,3469.8,3466.1,669.3,857.0,410.6,3494.1,1202.7,776.1,3483.2,3464.9,387.9,564.2,429.4,486.1,237.8,236.3,3475.9,3477.1,567.4,502.0,697.0,1100.8,1513.4,569.0,11.0,-41.0,71.0,12596.0,9114.0,-245.0,5161.0,-219.0,-814.0,278.0,3.0,-54.0,45.0,13228.0,8635.0,2991.0,3156.0,33.0,-156.0,83.0,1.0
2022-05-08 18:19:38.021102-07:00,816.9,960.2,1299.0,920.3,675.0,467.9,1505.1,887.3,3478.3,3477.1,669.3,857.0,412.1,3500.2,1202.7,776.1,3483.2,3464.9,380.9,567.4,429.4,486.1,243.9,237.8,3475.9,3477.1,560.2,494.8,697.0,1100.8,1556.2,568.2,24.0,-19.0,58.0,12595.0,9161.0,-541.0,5058.0,-98.0,-426.0,95.0,15.0,-10.0,-8.0,13220.0,8673.0,2926.0,3145.0,2.0,-119.0,61.0,1.0
2022-05-08 18:19:38.022178-07:00,816.9,960.2,1301.6,920.3,675.0,467.9,1491.2,883.9,3478.3,3477.1,667.6,854.5,412.1,3500.2,1221.3,776.1,3473.4,3478.3,380.9,567.4,436.4,489.3,243.9,237.8,3479.5,3477.1,560.2,494.8,698.7,1104.3,1556.2,568.2,-4.0,8.0,12.0,12585.0,9193.0,-668.0,5010.0,48.0,-262.0,64.0,0.0,7.0,20.0,13208.0,8700.0,2892.0,3151.0,148.0,-84.0,40.0,1.0
2022-05-08 18:19:38.023366-07:00,817.7,962.8,1298.1,920.3,676.6,470.3,1491.2,883.9,3473.4,3473.4,679.1,854.5,409.8,3494.1,1221.3,776.1,3473.4,3478.3,380.2,564.2,436.4,492.5,246.2,243.9,3479.5,3477.1,560.2,490.1,698.7,1114.7,1597.4,553.0,8.0,23.0,-33.0,12561.0,9242.0,-772.0,4963.0,-108.0,-294.0,-4.0,21.0,-9.0,-14.0,13179.0,8755.0,2868.0,3141.0,36.0,-117.0,31.0,1.0
2022-05-08 18:19:38.110546-07:00,817.7,962.8,1298.1,924.5,676.6,467.1,1492.1,938.1,3473.4,3473.4,679.1,856.2,409.8,3496.6,1231.9,776.1,3481.9,3478.3,380.2,564.2,429.4,492.5,246.2,243.9,3486.8,3477.1,553.0,490.1,699.5,1114.7,1597.4,553.0,-19.0,-23.0,0.0,12564.0,9269.0,-878.0,4889.0,176.0,-294.0,49.0,-6.0,1.0,-21.0,13156.0,8801.0,2852.0,3127.0,259.0,-85.0,27.0,1.0
2022-05-08 18:19:38.140407-07:00,820.2,960.2,1303.4,924.5,675.8,467.1,1492.1,938.1,3479.5,3471.0,686.4,856.2,414.5,3496.6,1231.9,776.1,3481.9,3478.3,380.2,565.8,429.4,486.1,239.3,244.7,3486.8,3477.1,553.0,486.1,699.5,1117.4,1597.4,563.4,-5.0,32.0,0.0,12499.0,9381.0,-957.0,4826.0,239.0,-314.0,0.0,72.0,-15.0,-13.0,13068.0,8944.0,2850.0,3089.0,418.0,-43.0,20.0,1.0
2022-05-08 18:19:38.171124-07:00,820.2,960.2,1303.4,916.0,675.8,458.5,1503.2,979.9,3479.5,3471.0,686.4,857.0,414.5,3500.2,1202.7,785.2,3485.6,3479.5,381.7,565.8,436.4,486.1,239.3,244.7,3480.7,3477.1,549.8,486.1,695.4,1117.4,1597.4,563.4,-14.0,-15.0,-33.0,12450.0,9476.0,-1003.0,4757.0,179.0,-241.0,-32.0,9.0,-21.0,-6.0,12979.0,9087.0,2858.0,3042.0,430.0,-76.0,-3.0,1.0
2022-05-08 18:19:38.260459-07:00,1671.9,956.0,1295.4,916.0,674.2,458.5,1503.2,979.9,3475.9,3473.4,701.1,857.0,414.5,3500.2,1202.7,785.2,3485.6,3479.5,381.7,562.6,436.4,491.7,242.4,241.6,3480.7,3477.1,549.8,481.4,695.4,1126.1,1586.1,560.2,-18.0,-27.0,41.0,12355.0,9631.0,-1066.0,4678.0,489.0,-304.0,30.0,59.0,10.0,-77.0,12825.0,9321.0,2880.0,2966.0,794.0,-52.0,20.0,1.0
2022-05-08 18:19:38.320556-07:00,1671.9,956.0,1295.4,923.7,674.2,460.0,1503.2,997.9,3475.9,3473.4,701.1,857.0,414.5,3501.4,1205.3,788.6,3474.6,3473.4,382.5,562.6,435.7,491.7,242.4,241.6,3481.9,3474.6,552.2,481.4,698.7,1126.1,1586.1,560.2,-8.0,-22.0,-5.0,12220.0,9791.0,-1035.0,4707.0,338.0,57.0,91.0,-3.0,9.0,9.0,12689.0,9523.0,2883.0,2902.0,452.0,-70.0,12.0,1.0
2022-05-08 18:19:38.350622-07:00,853.7,932.2,1296.3,922.0,683.1,460.0,1503.2,997.9,3478.3,3472.2,715.9,862.1,414.5,3501.4,1205.3,788.6,3474.6,3473.4,382.5,562.6,438.8,493.2,241.6,246.2,3481.9,3474.6,552.2,474.3,698.7,1133.1,1601.1,559.4,69.0,-14.0,-30.0,12093.0,9914.0,-1038.0,4777.0,493.0,-36.0,232.0,15.0,-17.0,-9.0,12568.0,9700.0,2874.0,2851.0,537.0,-116.0,49.0,1.0
2022-05-08 18:19:38.440559-07:00,853.7,932.2,1296.3,922.0,672.5,447.4,1519.0,984.2,3478.3,3472.2,715.9,862.1,414.5,3507.5,1200.0,791.9,3478.3,3477.1,373.2,565.0,438.8,493.2,241.6,246.2,3480.7,3477.1,549.0,469.5,698.7,1133.1,1601.1,559.4,40.0,23.0,12.0,11952.0,10101.0,-1007.0,4747.0,481.0,-268.0,-173.0,41.0,50.0,48.0,12408.0,9910.0,2916.0,2785.0,714.0,12.0,-75.0,1.0
2022-05-08 18:19:38.441926-07:00,832.7,927.9,1310.6,933.0,672.5,447.4,1519.0,984.2,3471.0,3472.2,720.0,856.2,414.5,3507.5,1200.0,791.9,3478.3,3477.1,373.2,565.0,435.7,493.2,242.4,242.4,3480.7,3477.1,549.0,469.5,698.7,1138.4,1591.7,581.0,29.0,-26.0,82.0,11852.0,10285.0,-991.0,4604.0,425.0,-220.0,-266.0,29.0,-17.0,11.0,12212.0,10146.0,3013.0,2698.0,736.0,86.0,-132.0,1.0
2022-05-08 18:19:38.470507-07:00,832.7,927.9,1310.6,933.0,697.0,451.4,1504.1,973.9,3471.0,3472.2,720.0,856.2,414.5,3500.2,1191.2,788.6,3472.2,3477.1,378.6,566.6,435.7,493.2,242.4,242.4,3475.9,3481.9,553.8,465.6,698.7,1138.4,1591.7,581.0,-4.0,-63.0,49.0,11776.0,10450.0,-829.0,4457.0,557.0,-20.0,-604.0,-2.0,-40.0,25.0,12039.0,10323.0,3150.0,2644.0,682.0,201.0,-164.0,1.0
2022-05-08 18:19:38.530285-07:00,834.4,926.2,1308.8,918.6,697.0,451.4,1504.1,973.9,3472.2,3474.6,713.4,861.2,414.5,3500.2,1191.2,788.6,3472.2,3477.1,378.6,566.6,438.0,494.0,237.8,239.3,3475.9,3481.9,553.8,465.6,701.1,1173.5,1581.4,624.6,5.0,26.0,12.0,11605.0,10721.0,-568.0,4302.0,916.0,109.0,-555.0,12.0,0.0,-32.0,11772.0,10586.0,3332.0,2587.0,954.0,272.0,-152.0,1.0
2022-05-08 18:19:38.590625-07:00,834.4,926.2,1308.8,918.6,702.8,448.2,1489.3,944.1,3472.2,3474.6,713.4,861.2,415.3,3492.9,1178.8,787.7,3485.6,3484.4,380.2,567.4,438.0,494.0,237.8,239.3,3481.9,3477.1,552.2,454.5,701.1,1173.5,1581.4,624.6,-73.0,82.0,-35.0,11413.0,10996.0,-165.0,4150.0,1160.0,304.0,-996.0,-14.0,-91.0,-52.0,11489.0,10852.0,3525.0,2501.0,1105.0,158.0,-234.0,1.0
2022-05-08 18:19:38.620522-07:00,841.9,912.7,1299.0,922.8,702.8,448.2,1489.3,927.9,3473.4,3473.4,710.1,861.2,415.3,3492.9,1178.8,788.6,3481.9,3484.4,380.2,567.4,433.3,498.8,240.1,241.6,3485.6,3477.1,552.2,454.5,694.6,1157.7,1565.5,599.6,-23.0,-94.0,-50.0,11141.0,11397.0,513.0,3761.0,1751.0,162.0,-1564.0,-25.0,48.0,-104.0,11131.0,11202.0,3728.0,2269.0,1574.0,134.0,-453.0,1.0
2022-05-08 18:19:38.680799-07:00,838.6,912.7,1299.0,922.8,696.2,441.2,1491.2,927.9,3477.1,3473.4,710.1,861.2,417.6,3501.4,1148.9,788.6,3481.9,3481.9,381.7,569.0,433.3,498.8,240.1,244.7,3485.6,3475.9,557.0,455.3,694.6,1157.7,1565.5,585.9,7.0,-27.0,-4.0,10735.0,11849.0,1053.0,3420.0,1282.0,119.0,-1092.0,15.0,19.0,-50.0,10667.0,11616.0,3942.0,2043.0,1288.0,46.0,-344.0,1.0
2022-05-08 18:19:38.770464-07:00,838.6,906.7,1293.6,919.4,696.2,441.2,1491.2,913.5,3477.1,3469.8,717.5,859.5,417.6,3501.4,1148.9,781.9,3478.3,3481.9,381.7,569.0,430.9,494.0,238.6,244.7,3473.4,3475.9,557.0,455.3,706.0,1155.9,1540.3,585.9,5.0,-73.0,23.0,10469.0,12104.0,1522.0,3162.0,1060.0,208.0,-802.0,-6.0,70.0,-15.0,10399.0,11837.0,4086.0,1869.0,845.0,86.0,-231.0,1.0
2022-05-08 18:19:38.771788-07:00,837.7,906.7,1293.6,919.4,688.0,446.7,1477.3,913.5,3477.1,3469.8,717.5,859.5,416.1,3499.0,1151.5,781.9,3478.3,3481.9,382.5,566.6,430.9,494.0,238.6,240.1,3473.4,3481.9,549.8,461.6,706.0,1155.9,1540.3,573.0,18.0,-51.0,28.0,10278.0,12253.0,1723.0,3116.0,195.0,206.0,-83.0,19.0,26.0,0.0,10216.0,11980.0,4156.0,1812.0,203.0,55.0,-29.0,1.0
2022-05-08 18:19:38.860337-07:00,837.7,894.9,1295.4,922.8,688.0,446.7,1477.3,896.6,3477.1,3472.2,721.6,852.8,416.1,3499.0,1151.5,785.2,3477.1,3481.9,382.5,566.6,427.8,491.7,239.3,240.1,3477.1,3481.9,549.8,461.6,697.0,1155.0,1514.3,573.0,-7.0,-38.0,12.0,10279.0,12209.0,1764.0,3256.0,-152.0,382.0,200.0,2.0,-25.0,-12.0,10228.0,11967.0,4154.0,1837.0,-155.0,46.0,88.0,1.0
2022-05-08 18:19:38.920011-07:00,838.6,894.9,1295.4,922.8,705.2,442.7,1447.9,896.6,3471.0,3472.2,721.6,852.8,409.0,3490.5,1158.6,785.2,3477.1,3483.2,384.8,563.4,427.8,491.7,239.3,244.7,3477.1,3481.9,551.4,458.5,697.0,1155.0,1514.3,575.4,2.0,48.0,-34.0,10304.0,12148.0,1730.0,3418.0,-291.0,97.0,296.0,9.0,22.0,-9.0,10298.0,11908.0,4110.0,1922.0,-277.0,9.0,135.0,1.0
2022-05-08 18:19:38.951087-07:00,838.6,904.2,1296.3,924.5,705.2,442.7,1441.5,893.2,3471.0,3469.8,721.6,856.2,409.0,3490.5,1134.9,782.7,3488.0,3484.4,384.8,563.4,430.2,490.9,240.1,244.7,3477.1,3480.7,551.4,458.5,695.4,1152.4,1506.9,575.4,13.0,12.0,13.0,10361.0,12085.0,1662.0,3506.0,-99.0,107.0,143.0,6.0,6.0,-18.0,10353.0,11864.0,4079.0,1964.0,-100.0,41.0,62.0,1.0
2022-05-08 18:19:39.010593-07:00,836.9,900.0,1296.3,924.5,696.2,441.9,1441.5,893.2,3478.3,3475.9,721.6,856.2,413.7,3495.3,1134.9,782.7,3488.0,3484.4,380.9,565.8,430.2,490.9,239.3,240.1,3477.1,3480.7,546.6,454.5,695.4,1152.4,1505.1,573.0,2.0,11.0,-4.0,10362.0,12076.0,1643.0,3543.0,-64.0,-38.0,76.0,5.0,17.0,0.0,10357.0,11857.0,4076.0,1989.0,-8.0,12.0,23.0,1.0
2022-05-08 18:19:39.040510-07:00,836.9,900.0,1298.1,922.0,696.2,441.9,1423.1,894.1,3478.3,3475.9,724.1,861.2,413.7,3495.3,1127.9,776.1,3475.9,3480.7,380.9,565.8,427.0,491.7,239.3,240.1,3469.8,3483.2,546.6,454.5,690.5,1148.9,1505.1,573.0,0.0,-14.0,25.0,10385.0,12060.0,1599.0,3546.0,-51.0,-5.0,42.0,5.0,-16.0,-32.0,10363.0,11853.0,4068.0,2000.0,-22.0,17.0,23.0,1.0
2022-05-08 18:19:39.100698-07:00,835.2,897.4,1298.1,922.0,695.4,442.7,1423.1,894.1,3475.9,3481.9,724.1,861.2,412.9,3502.7,1127.9,776.1,3475.9,3480.7,379.4,569.0,427.0,491.7,240.1,242.4,3469.8,3483.2,549.0,456.9,690.5,1148.9,1499.5,572.2,-3.0,14.0,-14.0,10384.0,12053.0,1607.0,3570.0,-25.0,30.0,25.0,-2.0,24.0,-7.0,10364.0,11849.0,4070.0,2015.0,-30.0,18.0,17.0,1.0
2022-05-08 18:19:39.190605-07:00,835.2,897.4,1294.5,919.4,695.4,442.7,1411.3,891.5,3475.9,3481.9,721.6,862.9,412.9,3502.7,1131.4,783.6,3478.3,3471.0,379.4,569.0,428.6,492.5,240.1,242.4,3477.1,3479.5,549.0,456.9,700.3,1146.3,1499.5,572.2,-5.0,-12.0,2.0,10400.0,12041.0,1582.0,3577.0,-37.0,-34.0,37.0,6.0,-5.0,-22.0,10371.0,11843.0,4063.0,2025.0,-2.0,-6.0,17.0,1.0
2022-05-08 18:19:39.191957-07:00,836.1,902.5,1294.5,919.4,695.4,443.5,1411.3,891.5,3469.8,3473.4,721.6,862.9,416.1,3500.2,1131.4,783.6,3478.3,3471.0,383.3,560.2,428.6,492.5,239.3,242.4,3477.1,3479.5,549.0,451.4,700.3,1146.3,1496.7,565.0,2.0,8.0,-1.0,10403.0,12040.0,1561.0,3579.0,-53.0,-28.0,33.0,7.0,1.0,-12.0,10368.0,11847.0,4057.0,2030.0,-40.0,-14.0,12.0,1.0
2022-05-08 18:19:39.250699-07:00,836.1,902.5,1294.5,915.2,695.4,445.9,1398.5,892.4,3469.8,3473.4,725.8,856.2,416.1,3497.8,1127.0,779.4,3474.6,3478.3,376.3,560.2,423.1,499.6,239.3,242.4,3475.9,3479.5,550.6,451.4,702.8,1142.7,1496.7,565.0,8.0,-1.0,10.0,10418.0,12035.0,1521.0,3570.0,-42.0,-102.0,62.0,7.0,6.0,-10.0,10380.0,11840.0,4046.0,2037.0,-29.0,-12.0,27.0,1.0
2022-05-08 18:19:39.280444-07:00,838.6,893.2,1283.7,915.2,693.8,445.9,1398.5,892.4,3480.7,3481.9,718.4,856.2,412.9,3497.8,1127.0,779.4,3474.6,3478.3,376.3,565.8,423.1,493.2,231.7,244.7,3475.9,3479.5,550.6,448.2,702.8,1134.0,1478.3,567.4,5.0,0.0,30.0,10442.0,12015.0,1482.0,3586.0,-64.0,16.0,51.0,3.0,0.0,6.0,10394.0,11829.0,4035.0,2050.0,-77.0,18.0,19.0,1.0
2022-05-08 18:19:39.340854-07:00,838.6,893.2,1283.7,921.1,693.8,438.8,1387.5,878.0,3480.7,3481.9,718.4,857.0,412.9,3497.8,1119.1,786.1,3479.5,3477.1,381.7,565.8,424.7,493.2,231.7,244.7,3481.9,3474.6,549.0,448.2,691.3,1134.0,1478.3,567.4,13.0,16.0,13.0,10453.0,12001.0,1471.0,3602.0,-28.0,8.0,14.0,9.0,16.0,-2.0,10409.0,11813.0,4034.0,2065.0,-48.0,26.0,0.0,1.0
2022-05-08 18:19:39.370400-07:00,838.6,892.4,1290.0,921.1,697.9,438.8,1387.5,878.0,3480.7,3472.2,718.4,857.0,415.3,3497.8,1119.1,786.1,3479.5,3477.1,381.7,574.6,424.7,497.2,243.2,244.7,3481.9,3474.6,549.0,448.2,691.3,1138.4,1473.6,561.8,-1.0,-19.0,21.0,10469.0,11983.0,1467.0,3617.0,-49.0,60.0,13.0,2.0,-10.0,-6.0,10422.0,11797.0,4038.0,2080.0,-65.0,35.0,-8.0,1.0
2022-05-08 18:19:39.431068-07:00,838.6,892.4,1290.0,911.0,697.9,442.7,1393.0,876.4,3480.7,3472.2,718.4,856.2,415.3,3497.8,1113.0,778.6,3485.6,3474.6,379.4,574.6,431.7,497.2,243.2,244.7,3478.3,3488.0,547.4,448.2,697.0,1138.4,1473.6,561.8,4.0,4.0,2.0,10473.0,11970.0,1466.0,3649.0,-64.0,44.0,75.0,5.0,11.0,-10.0,10435.0,11780.0,4046.0,2102.0,-79.0,36.0,16.0,1.0
2022-05-08 18:19:39.550582-07:00,836.1,890.7,1281.9,911.0,692.9,442.7,1393.0,876.4,3475.9,3467.4,719.2,856.2,417.6,3497.8,1113.0,778.6,3485.6,3474.6,379.4,562.6,431.7,492.5,242.4,240.1,3478.3,3488.0,547.4,449.0,697.0,1139.2,1459.8,556.2,0.0,0.0,-4.0,10502.0,11939.0,1434.0,3681.0,-172.0,2.0,97.0,10.0,-10.0,-17.0,10472.0,11746.0,4033.0,2128.0,-136.0,4.0,29.0,1.0
