Time,P0,P1,P2,P3,P4,P5,P6,P7,P8,P9,P10,P11,P12,P13,P14,P15,P16,P17,P18,P19,P20,P21,P22,P23,P24,P25,P26,P27,P28,P29,P30,P31,ECG,AX0,AY0,AZ0,QW0,QX0,QY0,QZ0,GX0,GY0,GZ0,AX1,AY1,AZ1,QW1,QX1,QY1,QZ1,GX1,GY1,GZ1
2022-05-08 17:21:10.283131-07:00,871.3,1065.1,1252.4,1001.3,709.3,456.9,1569.3,1034.0,3477.1,3472.2,688.0,936.4,414.5,3496.6,859.5,823.5,3480.7,3474.6,365.4,582.6,411.4,509.1,266.0,262.2,3478.3,3484.4,711.8,441.9,802.7,1126.1,1361.2,506.7,1.0,-5.0,4.0,10652.0,10519.0,6069.0,2735.0,-5.0,-5.0,-2.0,2.0,-2.0,3.0,11062.0,10740.0,-2676.0,-4854.0,1.0,1.0,-6.0,1.0
2022-05-08 17:21:10.313649-07:00,867.1,1055.6,1252.4,1001.3,705.2,454.5,1569.3,1034.0,3474.6,3475.9,688.0,936.4,417.6,3486.8,859.5,823.5,3480.7,3474.6,367.7,577.8,411.4,509.1,266.0,261.4,3478.3,3484.4,708.5,444.3,802.7,1126.1,1354.9,510.7,0.0,-2.0,0.0,10652.0,10519.0,6069.0,2735.0,0.0,-1.0,4.0,6.0,0.0,2.0,11062.0,10740.0,-2676.0,-4854.0,2.0,2.0,-4.0,1.0
2022-05-08 17:21:10.372836-07:00,867.1,1055.6,1248.0,981.6,705.2,454.5,1566.5,1042.6,3474.6,3475.9,682.3,931.3,417.6,3486.8,854.5,826.9,3475.9,3478.3,367.7,577.8,409.8,506.7,266.0,261.4,3479.5,3481.9,708.5,444.3,809.4,1117.4,1354.9,510.7,0.0,-2.0,-6.0,10653.0,10520.0,6067.0,2733.0,6.0,-14.0,-3.0,4.0,1.0,-3.0,11062.0,10740.0,-2675.0,-4853.0,10.0,4.0,-2.0,1.0
2022-05-08 17:21:10.403118-07:00,876.4,1066.9,1248.0,981.6,714.2,458.5,1566.5,1042.6,3466.1,3478.3,682.3,931.3,420.8,3507.5,854.5,826.9,3475.9,3478.3,370.0,583.5,409.8,506.7,260.7,262.2,3479.5,3481.9,705.2,446.7,809.4,1117.4,1350.3,516.3,2.0,-7.0,-1.0,10654.0,10520.0,6066.0,2732.0,1.0,-7.0,-4.0,4.0,1.0,0.0,11062.0,10741.0,-2675.0,-4853.0,-2.0,-4.0,-3.0,1.0
2022-05-08 17:21:10.553021-07:00,876.4,1066.9,1249.7,986.7,714.2,454.5,1565.5,1040.9,3466.1,3478.3,682.3,928.8,420.8,3496.6,858.7,825.2,3475.9,3483.2,370.0,583.5,410.6,510.7,260.7,262.2,3474.6,3488.0,713.4,446.7,801.9,1122.6,1350.3,516.3,0.0,-4.0,1.0,10653.0,10521.0,6066.0,2731.0,11.0,2.0,-1.0,3.0,-4.0,6.0,11062.0,10741.0,-2675.0,-4853.0,10.0,3.0,-2.0,1.0
2022-05-08 17:21:10.582648-07:00,864.6,1055.6,1251.5,986.7,706.9,454.5,1565.5,1040.9,3473.4,3464.9,679.1,928.8,410.6,3496.6,858.7,825.2,3475.9,3483.2,370.0,585.1,410.6,505.1,263.0,262.2,3474.6,3488.0,713.4,445.1,801.9,1118.2,1354.0,511.5,0.0,-4.0,0.0,10650.0,10524.0,6067.0,2730.0,10.0,-3.0,-6.0,4.0,-1.0,1.0,11059.0,10744.0,-2677.0,-4852.0,11.0,9.0,-2.0,1.0
2022-05-08 17:21:10.703120-07:00,864.6,1055.6,1251.5,984.2,706.9,456.9,1562.7,1034.0,3473.4,3464.9,679.1,933.9,410.6,3500.2,855.3,821.9,3474.6,3478.3,371.6,585.1,409.8,505.1,263.0,262.2,3480.7,3480.7,711.8,445.1,810.2,1118.2,1354.0,511.5,-3.0,1.0,-5.0,10648.0,10526.0,6067.0,2728.0,1.0,-3.0,-6.0,5.0,-3.0,7.0,11057.0,10746.0,-2677.0,-4851.0,11.0,9.0,-3.0,1.0
2022-05-08 17:21:10.732829-07:00,867.9,1063.4,1256.9,984.2,701.9,456.9,1562.7,1034.0,3474.6,3475.9,686.4,933.9,416.8,3500.2,855.3,821.9,3474.6,3478.3,371.6,582.6,409.8,512.3,267.6,266.8,3480.7,3480.7,711.8,446.7,810.2,1120.0,1362.1,507.5,0.0,-2.0,-4.0,10646.0,10527.0,6069.0,2727.0,-2.0,-7.0,-10.0,5.0,1.0,0.0,11054.0,10750.0,-2678.0,-4850.0,6.0,8.0,-5.0,1.0
2022-05-08 17:21:10.734143-07:00,867.9,1063.4,1256.9,979.9,701.9,461.6,1562.7,1031.4,3474.6,3475.9,686.4,930.5,416.8,3489.2,854.5,826.9,3481.9,3473.4,366.2,582.6,414.5,512.3,267.6,266.8,3481.9,3471.0,706.9,446.7,809.4,1120.0,1362.1,507.5,0.0,-7.0,-5.0,10646.0,10529.0,6067.0,2724.0,15.0,-17.0,-3.0,3.0,-1.0,4.0,11054.0,10750.0,-2677.0,-4849.0,5.0,2.0,0.0,1.0
2022-05-08 17:21:10.735303-07:00,865.4,1054.8,1247.1,979.9,700.3,461.6,1562.7,1031.4,3480.7,3469.8,698.7,930.5,416.1,3489.2,854.5,826.9,3481.9,3473.4,366.2,581.0,414.5,505.1,261.4,262.2,3481.9,3471.0,706.9,442.7,809.4,1120.9,1354.0,512.3,-1.0,-3.0,-4.0,10649.0,10531.0,6062.0,2718.0,1.0,-25.0,-12.0,2.0,-1.0,3.0,11054.0,10750.0,-2677.0,-4849.0,-9.0,-2.0,-3.0,1.0
2022-05-08 17:21:10.737032-07:00,865.4,1054.8,1247.1,987.6,705.2,456.9,1563.7,1040.1,3480.7,3469.8,698.7,925.4,420.8,3497.8,857.0,826.9,3483.2,3472.2,370.0,584.3,411.4,505.1,261.4,262.2,3485.6,3479.5,712.6,447.4,811.0,1120.9,1354.0,512.3,0.0,-14.0,0.0,10653.0,10530.0,6061.0,2707.0,8.0,-18.0,-14.0,6.0,-1.0,4.0,11054.0,10750.0,-2677.0,-4849.0,0.0,6.0,-8.0,1.0
2022-05-08 17:21:10.792788-07:00,865.4,1058.2,1253.3,987.6,705.2,456.9,1563.7,1040.1,3467.4,3471.0,687.2,929.6,420.8,3497.8,857.0,826.9,3483.2,3472.2,370.0,584.3,410.6,510.7,264.5,263.0,3485.6,3479.5,712.6,447.4,811.0,1118.2,1350.3,505.1,2.0,-5.0,2.0,10654.0,10530.0,6060.0,2705.0,2.0,-9.0,0.0,7.0,-2.0,4.0,11054.0,10750.0,-2677.0,-4849.0,-8.0,-1.0,0.0,1.0
2022-05-08 17:21:10.913491-07:00,865.4,1058.2,1253.3,987.6,704.4,456.1,1561.8,1031.4,3467.4,3471.0,687.2,929.6,416.8,3495.3,864.6,824.4,3481.9,3483.2,371.6,584.3,410.6,510.7,264.5,263.0,3483.2,3478.3,709.3,441.9,811.0,1118.2,1350.3,505.1,-7.0,-9.0,1.0,10654.0,10529.0,6062.0,2702.0,2.0,-2.0,-10.0,0.0,-6.0,8.0,11054.0,10750.0,-2677.0,-4849.0,3.0,6.0,-9.0,1.0
2022-05-08 17:21:10.914565-07:00,863.7,1058.2,1254.2,985.0,704.4,456.1,1561.8,1031.4,3475.9,3472.2,679.1,925.4,416.8,3495.3,864.6,824.4,3481.9,3483.2,371.6,584.3,410.6,503.6,263.0,269.1,3483.2,3478.3,709.3,441.9,811.9,1121.7,1348.5,518.7,-1.0,-2.0,-2.0,10654.0,10529.0,6062.0,2702.0,4.0,-5.0,8.0,6.0,3.0,6.0,11054.0,10750.0,-2677.0,-4849.0,7.0,10.0,0.0,1.0
2022-05-08 17:21:11.062696-07:00,863.7,1058.2,1254.2,985.0,707.7,451.4,1567.4,1028.0,3475.9,3472.2,679.1,925.4,410.6,3502.7,859.5,824.4,3477.1,3477.1,369.3,589.1,410.6,503.6,263.0,269.1,3477.1,3478.3,706.9,445.1,811.9,1121.7,1348.5,518.7,0.0,-4.0,-3.0,10655.0,10529.0,6063.0,2700.0,4.0,1.0,-14.0,5.0,-4.0,5.0,11054.0,10751.0,-2674.0,-4848.0,2.0,1.0,-11.0,1.0
2022-05-08 17:21:11.063725-07:00,867.1,1065.1,1245.3,983.3,707.7,451.4,1567.4,1032.3,3472.2,3477.1,689.7,927.1,410.6,3502.7,859.5,825.2,3477.1,3477.1,369.3,589.1,404.3,506.7,269.1,263.0,3478.3,3478.3,706.9,445.1,806.9,1116.5,1354.0,514.7,-6.0,-6.0,-2.0,10654.0,10529.0,6064.0,2699.0,7.0,6.0,2.0,0.0,0.0,4.0,11054.0,10751.0,-2674.0,-4848.0,8.0,-3.0,-3.0,1.0
2022-05-08 17:21:11.064743-07:00,867.9,1065.1,1245.3,983.3,706.9,454.5,1569.3,1032.3,3468.6,3477.1,689.7,927.1,417.6,3491.7,862.1,825.2,3469.8,3477.1,368.5,581.8,404.3,506.7,269.1,262.2,3478.3,3477.1,710.1,443.5,806.9,1116.5,1354.0,512.3,1.0,-6.0,-5.0,10655.0,10530.0,6063.0,2698.0,-6.0,-7.0,0.0,3.0,0.0,0.0,11054.0,10751.0,-2674.0,-4848.0,1.0,3.0,-7.0,1.0
2022-05-08 17:21:11.092730-07:00,867.9,1059.9,1245.3,987.6,706.9,454.5,1569.3,1028.8,3468.6,3466.1,680.7,931.3,417.6,3491.7,862.1,817.7,3480.7,3477.1,368.5,581.8,409.0,509.1,266.0,262.2,3480.7,3477.1,710.1,443.5,803.5,1120.9,1353.1,512.3,1.0,-5.0,-5.0,10655.0,10530.0,6063.0,2698.0,-2.0,-7.0,-7.0,6.0,-1.0,-4.0,11054.0,10751.0,-2674.0,-4848.0,-1.0,0.0,-8.0,1.0
2022-05-08 17:21:11.124320-07:00,867.9,1059.9,1245.3,987.6,707.7,458.5,1564.6,1028.8,3480.7,3466.1,680.7,931.3,418.4,3496.6,862.1,817.7,3480.7,3478.3,365.4,586.7,409.0,509.1,266.0,267.6,3480.7,3484.4,710.1,452.2,803.5,1120.9,1353.1,510.7,-4.0,-3.0,-1.0,10655.0,10531.0,6061.0,2696.0,-1.0,-11.0,2.0,1.0,1.0,5.0,11054.0,10751.0,-2674.0,-4848.0,3.0,3.0,-2.0,1.0
2022-05-08 17:21:11.273049-07:00,867.9,1057.3,1253.3,988.5,707.7,458.5,1564.6,1034.0,3480.7,3477.1,686.4,937.3,418.4,3496.6,862.1,823.5,3485.6,3478.3,365.4,586.7,413.7,509.1,262.2,267.6,3478.3,3484.4,710.1,452.2,806.9,1120.9,1349.4,510.7,-1.0,-6.0,4.0,10655.0,10531.0,6061.0,2695.0,-10.0,-8.0,-5.0,3.0,-4.0,7.0,11053.0,10753.0,-2674.0,-4849.0,10.0,7.0,-10.0,1.0
2022-05-08 17:21:11.332988-07:00,866.3,1057.3,1253.3,988.5,708.5,456.9,1557.1,1034.0,3479.5,3477.1,686.4,937.3,416.1,3495.3,859.5,823.5,3485.6,3472.2,366.9,581.0,413.7,509.1,262.2,270.6,3478.3,3489.2,710.1,443.5,806.9,1120.9,1349.4,512.3,-2.0,1.0,-9.0,10656.0,10530.0,6061.0,2695.0,-6.0,-9.0,-6.0,3.0,2.0,2.0,11052.0,10753.0,-2674.0,-4849.0,1.0,4.0,-5.0,1.0
2022-05-08 17:21:11.334120-07:00,866.3,1056.5,1255.1,984.2,708.5,456.9,1561.8,1033.2,3479.5,3480.7,689.7,933.9,416.1,3495.3,857.0,822.7,3489.2,3479.5,366.9,581.0,412.1,510.7,262.2,270.6,3483.2,3473.4,710.1,443.5,811.0,1120.9,1351.2,512.3,-1.0,-8.0,-1.0,10657.0,10531.0,6058.0,2693.0,-10.0,-16.0,4.0,5.0,-4.0,2.0,11053.0,10752.0,-2673.0,-4849.0,-11.0,-2.0,-6.0,1.0
2022-05-08 17:21:11.335164-07:00,865.4,1062.5,1255.1,984.2,703.6,460.0,1561.8,1033.2,3467.4,3483.2,689.7,933.9,417.6,3499.0,857.0,822.7,3489.2,3479.5,364.6,583.5,412.1,510.7,266.0,262.2,3483.2,3473.4,710.1,446.7,811.0,1120.9,1354.0,511.5,-4.0,-4.0,-5.0,10663.0,10530.0,6052.0,2689.0,9.0,-27.0,-2.0,2.0,-3.0,10.0,11056.0,10749.0,-2672.0,-4850.0,-15.0,3.0,-8.0,1.0
2022-05-08 17:21:11.393439-07:00,865.4,1062.5,1250.6,988.5,703.6,460.0,1564.6,1028.8,3467.4,3483.2,681.5,927.1,417.6,3499.0,858.7,826.0,3480.7,3475.9,364.6,583.5,411.4,509.9,266.0,262.2,3480.7,3475.9,710.1,446.7,801.9,1116.5,1354.0,511.5,6.0,-3.0,16.0,10669.0,10528.0,6047.0,2682.0,-52.0,3.0,-26.0,5.0,0.0,4.0,11058.0,10746.0,-2668.0,-4856.0,-32.0,-2.0,-15.0,1.0
2022-05-08 17:21:11.423542-07:00,867.1,1059.9,1250.6,988.5,706.9,456.9,1564.6,1028.8,3473.4,3480.7,681.5,927.1,418.4,3496.6,858.7,826.0,3480.7,3475.9,366.9,586.7,411.4,509.9,259.2,256.1,3480.7,3475.9,712.6,446.7,801.9,1116.5,1348.5,509.9,0.0,-3.0,2.0,10674.0,10525.0,6046.0,2677.0,-1.0,-2.0,-6.0,4.0,4.0,2.0,11057.0,10746.0,-2667.0,-4856.0,0.0,3.0,-4.0,1.0
2022-05-08 17:21:11.603035-07:00,867.1,1059.9,1247.1,981.6,706.9,456.9,1563.7,1031.4,3473.4,3480.7,684.8,931.3,418.4,3496.6,855.3,826.9,3477.1,3474.6,366.9,586.7,407.5,509.9,259.2,256.1,3478.3,3479.5,712.6,446.7,807.7,1116.5,1348.5,509.9,-3.0,-6.0,-7.0,10673.0,10526.0,6046.0,2677.0,9.0,0.0,-1.0,1.0,0.0,2.0,11056.0,10747.0,-2668.0,-4856.0,12.0,7.0,-2.0,1.0
2022-05-08 17:21:11.633599-07:00,868.8,1056.5,1247.1,981.6,707.7,461.6,1563.7,1031.4,3467.4,3479.5,684.8,931.3,417.6,3497.8,855.3,826.9,3477.1,3474.6,368.5,581.8,407.5,509.9,264.5,263.7,3478.3,3479.5,711.8,445.9,807.7,1116.5,1351.2,512.3,-6.0,-4.0,-5.0,10674.0,10526.0,6046.0,2677.0,9.0,-17.0,6.0,6.0,-1.0,6.0,11056.0,10747.0,-2668.0,-4856.0,7.0,1.0,-2.0,1.0
2022-05-08 17:21:11.693578-07:00,868.8,1056.5,1255.1,987.6,707.7,454.5,1551.5,1028.0,3467.4,3479.5,685.6,933.9,417.6,3496.6,858.7,821.0,3472.2,3481.9,364.6,581.8,414.5,508.3,264.5,263.7,3475.9,3478.3,714.2,445.9,809.4,1118.2,1351.2,512.3,-3.0,1.0,-6.0,10675.0,10527.0,6043.0,2674.0,-9.0,-31.0,3.0,6.0,5.0,4.0,11056.0,10747.0,-2668.0,-4856.0,-6.0,-3.0,0.0,1.0
2022-05-08 17:21:11.694847-07:00,872.1,1057.3,1269.4,987.6,707.7,454.5,1551.5,1028.0,3475.9,3472.2,684.8,933.9,413.7,3496.6,858.7,821.0,3472.2,3481.9,364.6,581.0,414.5,509.9,261.4,260.7,3475.9,3478.3,714.2,446.7,809.4,1119.1,1354.0,504.4,-3.0,-6.0,4.0,10678.0,10527.0,6039.0,2671.0,-1.0,-2.0,2.0,3.0,-1.0,9.0,11057.0,10745.0,-2668.0,-4857.0,-1.0,-2.0,-2.0,1.0
2022-05-08 17:21:11.752986-07:00,872.1,1057.3,1269.4,988.5,707.7,454.5,1553.4,1023.7,3475.9,3472.2,684.8,931.3,413.7,3495.3,860.4,815.2,3479.5,3485.6,369.3,581.0,414.5,509.9,261.4,260.7,3475.9,3478.3,706.9,446.7,808.5,1119.1,1354.0,504.4,0.0,-6.0,1.0,10678.0,10527.0,6039.0,2671.0,3.0,-7.0,4.0,5.0,3.0,3.0,11057.0,10745.0,-2668.0,-4857.0,4.0,3.0,-2.0,1.0
2022-05-08 17:21:11.783542-07:00,862.9,1060.8,1252.4,988.5,704.4,454.5,1553.4,1023.7,3473.4,3473.4,686.4,931.3,416.1,3495.3,860.4,815.2,3479.5,3485.6,369.3,581.8,414.5,509.1,266.8,264.5,3475.9,3478.3,706.9,447.4,808.5,1116.5,1348.5,507.5,-5.0,-8.0,-1.0,10678.0,10527.0,6039.0,2671.0,7.0,0.0,-2.0,2.0,-3.0,4.0,11057.0,10745.0,-2668.0,-4857.0,3.0,3.0,-4.0,1.0
2022-05-08 17:21:11.784254-07:00,862.9,1060.8,1252.4,985.9,704.4,458.5,1554.3,1026.3,3473.4,3473.4,686.4,925.4,416.1,3501.4,861.2,825.2,3479.5,3474.6,370.0,581.8,411.4,509.1,266.8,264.5,3479.5,3475.9,710.1,447.4,801.9,1116.5,1348.5,507.5,-2.0,-4.0,-5.0,10679.0,10526.0,6039.0,2671.0,-14.0,-3.0,4.0,3.0,-3.0,6.0,11057.0,10745.0,-2668.0,-4857.0,-1.0,-2.0,-4.0,1.0
2022-05-08 17:21:11.932947-07:00,890.7,1054.8,1248.8,985.9,712.6,458.5,1554.3,1026.3,3480.7,3469.8,677.4,925.4,416.1,3501.4,861.2,825.2,3479.5,3474.6,370.0,582.6,411.4,503.6,262.2,262.2,3479.5,3475.9,710.1,449.0,801.9,1121.7,1353.1,514.7,2.0,-2.0,0.0,10680.0,10526.0,6038.0,2670.0,-4.0,-10.0,-5.0,6.0,0.0,-1.0,11057.0,10745.0,-2668.0,-4857.0,-2.0,0.0,-5.0,1.0
2022-05-08 17:21:11.934009-07:00,890.7,1054.8,1248.8,983.3,725.8,456.1,1544.1,1016.8,3480.7,3469.8,677.4,933.0,415.3,3503.9,855.3,821.0,3478.3,3474.6,366.9,577.8,411.4,503.6,262.2,262.2,3475.9,3475.9,708.5,445.9,803.5,1121.7,1353.1,514.7,-3.0,-5.0,0.0,10679.0,10527.0,6038.0,2669.0,4.0,-4.0,1.0,4.0,-1.0,5.0,11057.0,10745.0,-2668.0,-4857.0,4.0,3.0,-3.0,1.0
2022-05-08 17:21:11.934746-07:00,868.8,1053.9,1248.0,991.0,725.8,456.1,1544.1,1016.8,3472.2,3464.9,682.3,931.3,415.3,3503.9,855.3,821.0,3478.3,3474.6,366.9,577.8,411.4,505.1,257.6,266.0,3475.9,3475.9,708.5,445.9,806.0,1122.6,1350.3,511.5,-1.0,-9.0,-2.0,10679.0,10527.0,6038.0,2669.0,4.0,-3.0,1.0,3.0,0.0,5.0,11057.0,10745.0,-2668.0,-4857.0,6.0,7.0,-1.0,1.0
2022-05-08 17:21:11.992771-07:00,868.8,1053.9,1248.0,991.0,706.0,458.5,1556.2,1021.9,3472.2,3464.9,682.3,931.3,419.2,3492.9,858.7,820.2,3481.9,3483.2,367.7,586.7,411.4,505.1,257.6,266.0,3484.4,3483.2,705.2,448.2,806.0,1122.6,1350.3,511.5,-4.0,-6.0,-2.0,10679.0,10527.0,6038.0,2669.0,0.0,-6.0,-3.0,1.0,0.0,2.0,11057.0,10745.0,-2668.0,-4857.0,1.0,6.0,-8.0,1.0
2022-05-08 17:21:12.022656-07:00,865.4,1059.9,1250.6,984.2,706.0,458.5,1556.2,1021.9,3478.3,3475.9,695.4,931.3,419.2,3492.9,858.7,820.2,3481.9,3483.2,367.7,586.7,410.6,505.1,265.3,266.0,3484.4,3483.2,705.2,448.2,804.4,1123.5,1344.9,513.1,-8.0,-3.0,-3.0,10678.0,10527.0,6039.0,2670.0,-7.0,14.0,4.0,1.0,-2.0,7.0,11057.0,10745.0,-2668.0,-4857.0,-4.0,-3.0,-1.0,1.0
2022-05-08 17:21:12.082494-07:00,865.4,1059.9,1250.6,984.2,712.6,457.7,1558.1,1025.4,3478.3,3475.9,695.4,931.3,414.5,3499.0,858.7,821.9,3478.3,3477.1,366.9,582.6,410.6,505.1,265.3,266.0,3475.9,3471.0,727.4,444.3,804.4,1123.5,1344.9,513.1,-2.0,-3.0,-6.0,10679.0,10526.0,6039.0,2670.0,5.0,-5.0,-10.0,6.0,-1.0,4.0,11057.0,10745.0,-2668.0,-4857.0,5.0,2.0,-5.0,1.0
2022-05-08 17:21:12.142917-07:00,867.9,1057.3,1245.3,979.0,712.6,457.7,1558.1,1025.4,3484.4,3472.2,686.4,918.6,414.5,3499.0,858.7,821.9,3478.3,3477.1,366.9,582.6,407.5,505.1,263.7,261.4,3475.9,3471.0,727.4,444.3,803.5,1134.0,1350.3,509.1,0.0,-5.0,0.0,10679.0,10526.0,6039.0,2670.0,-4.0,-2.0,4.0,4.0,0.0,4.0,11057.0,10745.0,-2668.0,-4857.0,-2.0,-3.0,-3.0,1.0
2022-05-08 17:21:12.173026-07:00,870.5,1057.3,1245.3,979.0,707.7,459.3,1551.5,1023.7,3474.6,3472.2,686.4,918.6,415.3,3494.1,859.5,824.4,3479.5,3479.5,363.8,580.2,407.5,505.1,263.7,260.7,3474.6,3477.1,714.2,445.9,803.5,1134.0,1350.3,515.5,-2.0,-5.0,1.0,10679.0,10526.0,6039.0,2670.0,-1.0,1.0,2.0,4.0,-2.0,7.0,11057.0,10745.0,-2668.0,-4857.0,4.0,4.0,-2.0,1.0
2022-05-08 17:21:12.262938-07:00,870.5,1055.6,1243.5,983.3,707.7,459.3,1551.5,1027.1,3474.6,3471.0,680.7,927.9,415.3,3494.1,859.5,826.0,3488.0,3479.5,363.8,580.2,410.6,509.1,265.3,260.7,3488.0,3477.1,714.2,445.9,807.7,1118.2,1348.5,515.5,-2.0,-5.0,-3.0,10678.0,10526.0,6040.0,2670.0,7.0,7.0,-1.0,3.0,-3.0,1.0,11057.0,10745.0,-2668.0,-4857.0,2.0,0.0,0.0,1.0
2022-05-08 17:21:12.322895-07:00,870.5,1055.6,1243.5,983.3,705.2,460.0,1546.9,1027.1,3485.6,3471.0,680.7,927.9,417.6,3499.0,858.7,826.0,3488.0,3478.3,373.9,583.5,410.6,509.1,265.3,260.7,3488.0,3488.0,712.6,442.7,807.7,1118.2,1348.5,513.9,-3.0,-8.0,-9.0,10679.0,10527.0,6038.0,2669.0,-2.0,-13.0,0.0,3.0,0.0,2.0,11057.0,10745.0,-2668.0,-4857.0,-4.0,-6.0,-1.0,1.0
2022-05-08 17:21:12.324663-07:00,870.5,1053.9,1244.4,989.3,705.2,460.0,1546.9,1020.2,3485.6,3475.9,681.5,925.4,417.6,3499.0,858.7,824.4,3480.7,3478.3,373.9,583.5,407.5,509.9,263.0,260.7,3475.9,3488.0,712.6,442.7,799.4,1114.7,1338.6,513.9,-4.0,-4.0,2.0,10680.0,10527.0,6037.0,2667.0,-9.0,-2.0,8.0,4.0,-3.0,11.0,11059.0,10742.0,-2669.0,-4860.0,-13.0,-13.0,4.0,1.0
2022-05-08 17:21:12.383471-07:00,861.2,1053.9,1244.4,989.3,712.6,457.7,1547.8,1020.2,3472.2,3475.9,681.5,925.4,416.8,3497.8,858.7,824.4,3480.7,3472.2,367.7,581.0,407.5,509.9,263.0,262.2,3475.9,3484.4,707.7,450.6,799.4,1114.7,1338.6,509.1,0.0,-6.0,6.0,10680.0,10527.0,6037.0,2667.0,9.0,0.0,-2.0,4.0,-2.0,10.0,11059.0,10742.0,-2669.0,-4860.0,7.0,5.0,-2.0,1.0
2022-05-08 17:21:12.442821-07:00,861.2,1053.9,1248.8,985.0,712.6,457.7,1547.8,1021.1,3472.2,3472.2,682.3,925.4,416.8,3497.8,858.7,821.0,3484.4,3472.2,367.7,581.0,405.9,512.3,261.4,262.2,3478.3,3484.4,707.7,450.6,798.5,1116.5,1347.6,509.1,-5.0,-1.0,-6.0,10679.0,10527.0,6038.0,2668.0,1.0,9.0,-7.0,5.0,1.0,4.0,11059.0,10742.0,-2669.0,-4860.0,5.0,2.0,-1.0,1.0
2022-05-08 17:21:12.473147-07:00,868.8,1049.6,1248.8,985.0,698.7,456.1,1552.5,1021.1,3480.7,3474.6,682.3,925.4,414.5,3500.2,860.4,821.0,3484.4,3475.9,373.9,582.6,405.9,512.3,262.2,263.7,3478.3,3477.1,711.0,446.7,798.5,1116.5,1354.0,512.3,-3.0,-5.0,-7.0,10679.0,10527.0,6038.0,2668.0,-3.0,-6.0,5.0,5.0,0.0,5.0,11059.0,10742.0,-2669.0,-4860.0,-4.0,-6.0,0.0,1.0
2022-05-08 17:21:12.533015-07:00,868.8,1049.6,1248.8,979.9,698.7,456.1,1552.5,1021.1,3480.7,3474.6,680.7,929.6,414.5,3500.2,855.3,822.7,3479.5,3483.2,373.9,582.6,410.6,509.9,262.2,263.7,3472.2,3477.1,711.0,446.7,804.4,1116.5,1354.0,512.3,0.0,-3.0,-1.0,10679.0,10527.0,6038.0,2668.0,-6.0,-4.0,0.0,6.0,0.0,3.0,11059.0,10742.0,-2669.0,-4860.0,-3.0,-4.0,1.0,1.0
2022-05-08 17:21:12.623067-07:00,867.9,1059.1,1248.8,979.9,708.5,454.5,1552.5,1021.1,3472.2,3478.3,680.7,929.6,416.8,3497.8,855.3,822.7,3479.5,3483.2,370.0,589.9,410.6,509.9,260.7,263.0,3472.2,3477.1,701.9,447.4,804.4,1116.5,1347.6,511.5,-2.0,-5.0,-3.0,10678.0,10530.0,6036.0,2665.0,14.0,-7.0,-2.0,1.0,0.0,0.0,11059.0,10742.0,-2669.0,-4860.0,5.0,-7.0,0.0,1.0
2022-05-08 17:21:12.653193-07:00,867.9,1059.1,1247.1,979.9,708.5,454.5,1541.3,1027.1,3472.2,3478.3,685.6,944.9,416.8,3497.8,857.0,823.5,3481.9,3479.5,370.0,589.9,414.5,510.7,260.7,263.0,3478.3,3475.9,701.9,447.4,803.5,1117.4,1347.6,511.5,-1.0,-2.0,-4.0,10679.0,10530.0,6035.0,2664.0,2.0,-12.0,3.0,3.0,0.0,0.0,11059.0,10740.0,-2671.0,-4862.0,-4.0,-9.0,1.0,1.0
2022-05-08 17:21:12.712891-07:00,862.1,1051.3,1247.1,979.9,708.5,453.7,1541.3,1027.1,3466.1,3479.5,685.6,944.9,416.1,3496.6,857.0,823.5,3481.9,3479.5,370.8,586.7,414.5,510.7,265.3,266.0,3478.3,3475.9,707.7,447.4,803.5,1117.4,1345.8,512.3,-4.0,-8.0,2.0,10683.0,10528.0,6032.0,2662.0,-10.0,-18.0,1.0,4.0,0.0,7.0,11060.0,10739.0,-2672.0,-4864.0,-8.0,-9.0,-2.0,1.0
2022-05-08 17:21:12.742903-07:00,862.1,1051.3,1246.2,979.9,708.5,453.7,1552.5,1024.5,3466.1,3479.5,681.5,935.6,416.1,3496.6,862.1,819.4,3471.0,3478.3,370.8,586.7,406.7,508.3,265.3,266.0,3464.9,3477.1,707.7,447.4,801.9,1116.5,1345.8,512.3,0.0,0.0,5.0,10683.0,10529.0,6030.0,2661.0,-9.0,1.0,0.0,5.0,1.0,13.0,11060.0,10739.0,-2672.0,-4864.0,0.0,2.0,-2.0,1.0
2022-05-08 17:21:12.803076-07:00,865.4,1048.7,1249.7,979.9,705.2,456.9,1552.5,1024.5,3473.4,3474.6,683.1,935.6,413.7,3495.3,862.1,819.4,3471.0,3478.3,371.6,578.6,406.7,512.3,262.2,263.0,3464.9,3477.1,704.4,445.9,801.9,1118.2,1350.3,515.5,-8.0,-3.0,-8.0,10678.0,10530.0,6036.0,2665.0,14.0,11.0,-6.0,0.0,0.0,9.0,11058.0,10740.0,-2673.0,-4864.0,14.0,14.0,-1.0,1.0
2022-05-08 17:21:12.862936-07:00,865.4,1048.7,1249.7,984.2,705.2,461.6,1546.9,1029.7,3473.4,3474.6,683.1,931.3,413.7,3495.3,852.0,821.0,3479.5,3478.3,369.3,578.6,409.0,512.3,262.2,263.0,3471.0,3474.6,704.4,445.9,810.2,1118.2,1350.3,515.5,-1.0,2.0,-19.0,10680.0,10529.0,6034.0,2663.0,-18.0,-22.0,1.0,5.0,5.0,-1.0,11058.0,10741.0,-2672.0,-4862.0,-20.0,-15.0,-2.0,1.0
2022-05-08 17:21:12.864334-07:00,864.6,1054.8,1247.1,984.2,705.2,461.6,1546.9,1029.7,3475.9,3472.2,687.2,931.3,412.1,3495.3,852.0,821.0,3479.5,3478.3,369.3,585.9,409.0,509.1,261.4,263.7,3471.0,3474.6,704.4,449.0,810.2,1116.5,1344.0,510.7,-7.0,45.0,-66.0,10732.0,10489.0,6014.0,2659.0,-332.0,-152.0,-79.0,4.0,17.0,-13.0,11082.0,10709.0,-2665.0,-4884.0,-331.0,-67.0,-47.0,1.0
2022-05-08 17:21:12.923720-07:00,864.6,1054.8,1247.1,987.6,705.2,462.4,1559.9,1022.8,3475.9,3472.2,687.2,929.6,412.1,3507.5,854.5,829.4,3480.7,3479.5,373.9,585.9,409.8,509.1,261.4,263.7,3484.4,3462.5,710.1,449.0,804.4,1116.5,1344.0,510.7,-31.0,11.0,-120.0,10875.0,10389.0,5946.0,2627.0,-482.0,-435.0,-124.0,-13.0,11.0,-53.0,11187.0,10570.0,-2632.0,-4964.0,-551.0,-260.0,-57.0,1.0
2022-05-08 17:21:12.982831-07:00,867.9,1059.9,1253.3,987.6,708.5,462.4,1559.9,1022.8,3467.4,3477.1,683.1,929.6,415.3,3507.5,854.5,829.4,3480.7,3479.5,373.9,582.6,409.8,509.9,261.4,261.4,3484.4,3462.5,710.1,447.4,804.4,1116.5,1352.1,513.9,-17.0,-43.0,-128.0,11128.0,10238.0,5781.0,2520.0,-819.0,-766.0,-129.0,-10.0,1.0,-68.0,11281.0,10386.0,-2641.0,-5132.0,-832.0,-590.0,-103.0,1.0
2022-05-08 17:21:13.073240-07:00,867.9,1059.9,1253.3,991.9,708.5,468.7,1644.5,1028.8,3467.4,3477.1,683.1,926.2,415.3,3494.1,871.3,825.2,3477.1,3477.1,370.8,582.6,406.7,509.9,261.4,261.4,3488.0,3472.2,757.9,447.4,809.4,1116.5,1352.1,513.9,-34.0,-72.0,-28.0,11484.0,10024.0,5497.0,2421.0,-781.0,-797.0,79.0,-26.0,-34.0,-14.0,11458.0,10041.0,-2694.0,-5393.0,-825.0,-717.0,-38.0,1.0
2022-05-08 17:21:13.074928-07:00,872.1,1120.0,1266.7,990.2,713.4,468.7,1644.5,1028.8,3479.5,3472.2,683.1,932.2,412.1,3494.1,871.3,825.2,3477.1,3477.1,370.8,587.5,410.6,512.3,261.4,264.5,3488.0,3472.2,757.9,446.7,808.5,1119.1,1355.8,513.1,-18.0,8.0,15.0,11720.0,9922.0,5219.0,2321.0,-119.0,-539.0,19.0,-16.0,18.0,-19.0,11553.0,9760.0,-2811.0,-5640.0,-281.0,-722.0,-126.0,1.0
2022-05-08 17:21:13.163583-07:00,872.1,1120.0,1266.7,990.2,702.8,467.1,1679.5,1014.2,3479.5,3472.2,683.1,932.2,416.8,3502.7,878.0,821.0,3478.3,3475.9,367.7,581.0,410.6,512.3,261.4,264.5,3479.5,3478.3,785.2,441.9,808.5,1119.1,1355.8,513.1,36.0,-24.0,76.0,11833.0,9852.0,5110.0,2289.0,-701.0,133.0,67.0,29.0,-18.0,12.0,11558.0,9552.0,-2950.0,-5909.0,-562.0,-790.0,-143.0,1.0
2022-05-08 17:21:13.164999-07:00,881.4,1139.2,1266.7,988.5,702.8,467.1,1679.5,1014.2,3472.2,3467.4,688.9,927.9,416.8,3502.7,878.0,821.0,3478.3,3475.9,367.7,581.0,412.1,505.1,263.0,266.8,3479.5,3478.3,785.2,441.9,806.0,1116.5,1345.8,513.1,-2.0,-5.0,23.0,11972.0,9634.0,5117.0,2472.0,-420.0,195.0,212.0,32.0,20.0,67.0,11608.0,9305.0,-3062.0,-6143.0,-221.0,-545.0,-67.0,1.0
2022-05-08 17:21:13.223071-07:00,881.4,1139.2,1266.7,988.5,705.2,470.3,1751.2,997.9,3472.2,3467.4,688.9,927.9,417.6,3491.7,911.8,828.5,3472.2,3474.6,367.7,585.9,412.1,505.1,263.0,266.8,3484.4,3477.1,789.4,442.7,806.0,1116.5,1345.8,513.1,-1.0,93.0,37.0,12026.0,9533.0,5095.0,2645.0,-968.0,220.0,116.0,22.0,65.0,57.0,11581.0,9184.0,-3177.0,-6315.0,-377.0,-532.0,-176.0,1.0
2022-05-08 17:21:13.282894-07:00,883.1,1122.6,1257.8,983.3,705.2,470.3,1751.2,997.9,3474.6,3479.5,698.7,929.6,417.6,3491.7,911.8,828.5,3472.2,3474.6,367.7,585.9,413.7,512.3,267.6,261.4,3484.4,3477.1,789.4,442.7,805.2,1141.0,1366.6,524.2,30.0,-111.0,107.0,12242.0,9172.0,5135.0,2842.0,-849.0,760.0,-96.0,-6.0,-41.0,-33.0,11644.0,8928.0,-3220.0,-6541.0,-481.0,-442.0,-145.0,1.0
2022-05-08 17:21:13.342867-07:00,883.1,1122.6,1257.8,983.3,714.2,484.5,1780.1,1006.5,3474.6,3479.5,698.7,929.6,413.7,3489.2,980.7,821.0,3481.9,3477.1,364.6,589.1,413.7,512.3,267.6,261.4,3475.9,3478.3,801.9,447.4,805.2,1141.0,1366.6,524.2,-29.0,-6.0,-4.0,12223.0,8905.0,5428.0,3204.0,-525.0,1135.0,165.0,31.0,-46.0,88.0,11633.0,8791.0,-3266.0,-6720.0,-187.0,-402.0,-177.0,1.0
2022-05-08 17:21:13.373467-07:00,883.9,1103.4,1282.8,1015.1,714.2,484.5,1780.1,1107.8,3473.4,3467.4,732.3,932.2,413.7,3489.2,980.7,831.9,3478.3,3477.1,364.6,589.1,414.5,509.9,266.8,266.8,3480.7,3478.3,801.9,447.4,802.7,1113.9,1419.5,521.0,7.0,-21.0,16.0,12194.0,8694.0,5640.0,3516.0,-311.0,824.0,104.0,19.0,5.0,-18.0,11632.0,8683.0,-3294.0,-6848.0,-179.0,-307.0,-135.0,1.0
2022-05-08 17:21:13.433673-07:00,882.3,1103.4,1282.8,1015.1,709.3,490.1,1730.1,1107.8,3477.1,3467.4,732.3,932.2,410.6,3505.1,1062.5,831.9,3478.3,3475.9,372.4,588.3,414.5,509.9,266.8,267.6,3480.7,3483.2,811.0,453.7,802.7,1113.9,1419.5,509.9,-33.0,21.0,2.0,12119.0,8536.0,5844.0,3814.0,-299.0,647.0,45.0,7.0,-22.0,44.0,11580.0,8631.0,-3351.0,-6972.0,-15.0,-244.0,-109.0,1.0
2022-05-08 17:21:13.463050-07:00,882.3,1080.8,1292.7,991.9,709.3,490.1,1730.1,1500.4,3477.1,3483.2,791.0,939.0,410.6,3505.1,1062.5,865.4,3483.2,3475.9,372.4,588.3,412.9,518.7,265.3,267.6,3480.7,3483.2,811.0,453.7,814.4,1182.3,1627.5,509.9,40.0,22.0,21.0,12090.0,8398.0,6011.0,3950.0,-148.0,310.0,-120.0,0.0,32.0,-1.0,11528.0,8622.0,-3386.0,-7052.0,145.0,-202.0,-193.0,1.0
2022-05-08 17:21:13.523488-07:00,883.9,1080.8,1292.7,991.9,714.2,490.1,1767.5,1500.4,3474.6,3483.2,791.0,939.0,415.3,3500.2,1217.7,865.4,3483.2,3485.6,373.2,587.5,412.9,518.7,265.3,268.3,3480.7,3483.2,797.7,450.6,814.4,1182.3,1627.5,554.6,-21.0,-74.0,-77.0,12075.0,8310.0,6127.0,4006.0,-64.0,265.0,-150.0,51.0,35.0,41.0,11436.0,8649.0,-3444.0,-7141.0,237.0,-153.0,-149.0,1.0
2022-05-08 17:21:13.582905-07:00,883.9,1070.3,1299.8,1007.3,714.2,490.1,1767.5,1604.0,3474.6,3480.7,845.3,947.5,415.3,3500.2,1217.7,919.4,3485.6,3485.6,373.2,587.5,412.1,517.1,272.9,268.3,3479.5,3483.2,797.7,450.6,997.9,1243.5,1829.4,554.6,3.0,7.0,37.0,12052.0,8340.0,6202.0,3894.0,224.0,44.0,-260.0,49.0,25.0,0.0,11329.0,8738.0,-3495.0,-7178.0,206.0,-74.0,-146.0,1.0
2022-05-08 17:21:13.642892-07:00,885.6,1070.3,1299.8,1007.3,711.8,489.3,1779.1,1604.0,3481.9,3480.7,845.3,947.5,419.2,3492.9,1252.4,919.4,3485.6,3480.7,376.3,592.3,412.1,517.1,272.9,267.6,3479.5,3479.5,793.5,461.6,997.9,1243.5,1829.4,622.2,-25.0,48.0,46.0,11962.0,8415.0,6329.0,3805.0,444.0,186.0,-171.0,19.0,30.0,45.0,11221.0,8844.0,-3520.0,-7204.0,361.0,24.0,-188.0,1.0
2022-05-08 17:21:13.703002-07:00,885.6,1054.8,1303.4,1013.3,711.8,489.3,1745.4,1593.6,3481.9,3478.3,854.5,954.3,419.2,3492.9,1216.8,953.4,3473.4,3477.1,376.3,592.3,407.5,515.5,275.2,267.6,3475.9,3475.9,793.5,461.6,1007.3,1306.1,1830.4,622.2,-53.0,147.0,42.0,11826.0,8548.0,6475.0,3686.0,561.0,141.0,-156.0,11.0,122.0,76.0,11108.0,8981.0,-3488.0,-7226.0,277.0,126.0,-332.0,1.0
2022-05-08 17:21:13.762966-07:00,885.6,1045.2,1303.4,1013.3,743.0,488.5,1745.4,1593.6,3478.3,3483.2,854.5,954.3,420.8,3496.6,1216.8,953.4,3473.4,3477.1,374.7,585.9,407.5,515.5,275.2,276.0,3475.9,3475.9,791.0,486.1,1007.3,1306.1,1817.8,627.8,-91.0,197.0,21.0,11697.0,8673.0,6607.0,3568.0,454.0,118.0,-233.0,5.0,182.0,102.0,10972.0,9131.0,-3369.0,-7302.0,159.0,208.0,-571.0,1.0
2022-05-08 17:21:13.765492-07:00,885.6,1045.2,1305.2,1027.1,743.0,488.5,1737.8,1550.6,3478.3,3483.2,852.0,956.8,420.8,3496.6,1239.9,961.1,3481.9,3478.3,374.7,585.9,412.1,517.1,275.2,276.0,3477.1,3481.9,791.0,486.1,977.3,1320.5,1817.8,627.8,-33.0,111.0,35.0,11656.0,8727.0,6700.0,3396.0,309.0,-80.0,-398.0,44.0,134.0,63.0,10834.0,9264.0,-3144.0,-7441.0,70.0,264.0,-802.0,1.0
2022-05-08 17:21:13.853652-07:00,874.7,1041.8,1305.2,1027.1,750.5,486.1,1737.8,1550.6,3464.9,3472.2,852.0,956.8,420.0,3497.8,1239.9,961.1,3481.9,3478.3,377.8,586.7,412.1,517.1,285.9,281.3,3477.1,3481.9,784.4,509.1,977.3,1320.5,1865.4,618.1,-11.0,-3.0,-18.0,11611.0,8785.0,6797.0,3201.0,407.0,60.0,-401.0,-69.0,-9.0,-25.0,10656.0,9424.0,-2867.0,-7607.0,76.0,279.0,-919.0,1.0
2022-05-08 17:21:13.882822-07:00,874.7,1041.8,1312.4,1009.9,750.5,486.1,1756.0,1572.1,3464.9,3472.2,844.4,956.8,420.0,3497.8,1258.7,973.9,3469.8,3474.6,377.8,586.7,412.9,513.1,285.9,281.3,3474.6,3472.2,784.4,509.1,956.0,1353.1,1865.4,618.1,3.0,-79.0,-66.0,11573.0,8778.0,6942.0,3040.0,117.0,-30.0,-373.0,-12.0,-15.0,9.0,10497.0,9541.0,-2573.0,-7785.0,-51.0,222.0,-842.0,1.0
2022-05-08 17:21:13.913526-07:00,887.3,1040.1,1312.4,1009.9,782.7,494.8,1756.0,1572.1,3464.9,3478.3,844.4,956.8,420.0,3496.6,1258.7,973.9,3469.8,3474.6,371.6,588.3,412.9,513.1,295.1,291.3,3474.6,3472.2,785.2,521.0,956.0,1353.1,1886.9,622.2,42.0,-141.0,-32.0,11572.0,8760.0,7018.0,2921.0,248.0,38.0,-346.0,23.0,-101.0,-49.0,10360.0,9611.0,-2342.0,-7953.0,44.0,149.0,-681.0,1.0
2022-05-08 17:21:14.032927-07:00,887.3,1040.1,1313.3,1010.8,782.7,496.4,1727.2,1527.3,3464.9,3478.3,843.6,959.4,420.0,3496.6,1235.5,978.2,3477.1,3469.8,368.5,588.3,416.8,518.7,295.1,291.3,3477.1,3478.3,784.4,521.0,942.4,1364.8,1886.9,622.2,79.0,-116.0,-57.0,11505.0,8813.0,7125.0,2763.0,397.0,-37.0,-279.0,47.0,-80.0,-48.0,10227.0,9704.0,-2184.0,-8057.0,144.0,124.0,-460.0,1.0
2022-05-08 17:21:14.035481-07:00,881.4,1039.2,1304.3,1010.8,778.6,496.4,1727.2,1527.3,3467.4,3471.0,838.6,959.4,418.4,3496.6,1235.5,978.2,3477.1,3469.8,368.5,592.3,416.8,511.5,293.6,289.8,3477.1,3478.3,784.4,527.4,942.4,1361.2,1873.2,619.7,58.0,-99.0,-36.0,11468.0,8848.0,7182.0,2657.0,127.0,-16.0,-180.0,59.0,-62.0,-44.0,10144.0,9744.0,-2108.0,-8132.0,11.0,-11.0,-251.0,1.0
2022-05-08 17:21:14.063431-07:00,881.4,1039.2,1304.3,1013.3,778.6,491.7,1711.9,1516.2,3467.4,3471.0,838.6,966.2,418.4,3491.7,1222.2,981.6,3481.9,3483.2,371.6,592.3,411.4,511.5,293.6,289.8,3475.9,3481.9,781.1,527.4,925.4,1361.2,1873.2,619.7,55.0,-118.0,-7.0,11484.0,8835.0,7190.0,2609.0,-79.0,-97.0,-78.0,66.0,-78.0,-13.0,10128.0,9726.0,-2090.0,-8179.0,-69.0,-74.0,-38.0,1.0
2022-05-08 17:21:14.153079-07:00,878.0,1028.8,1301.6,1013.3,767.8,491.7,1711.9,1516.2,3478.3,3474.6,831.9,966.2,420.8,3491.7,1222.2,981.6,3481.9,3483.2,371.6,593.9,411.4,511.5,284.4,289.0,3475.9,3481.9,781.1,525.8,925.4,1355.8,1855.7,616.5,6.0,-86.0,-7.0,11514.0,8822.0,7157.0,2611.0,-21.0,-52.0,107.0,26.0,-52.0,3.0,10146.0,9691.0,-2120.0,-8190.0,7.0,-82.0,103.0,1.0
2022-05-08 17:21:14.182910-07:00,878.0,1028.8,1301.6,1014.2,767.8,495.6,1693.8,1486.6,3478.3,3474.6,831.9,962.8,420.8,3497.8,1219.5,980.7,3485.6,3478.3,373.9,593.9,420.0,511.5,284.4,289.0,3489.2,3464.9,780.3,525.8,919.4,1355.8,1855.7,616.5,-6.0,3.0,1.0,11511.0,8860.0,7103.0,2639.0,15.0,-52.0,150.0,11.0,2.0,20.0,10156.0,9687.0,-2184.0,-8167.0,58.0,-67.0,143.0,1.0
2022-05-08 17:21:14.213273-07:00,878.9,1030.6,1303.4,1015.1,769.5,495.6,1693.8,1486.6,3477.1,3477.1,827.7,964.5,415.3,3497.8,1219.5,980.7,3485.6,3478.3,373.9,589.9,417.6,513.9,284.4,285.9,3489.2,3464.9,780.3,524.2,914.4,1351.2,1841.1,606.8,-16.0,41.0,13.0,11514.0,8876.0,7069.0,2667.0,-50.0,-14.0,66.0,4.0,28.0,34.0,10167.0,9675.0,-2232.0,-8153.0,-12.0,-67.0,110.0,1.0
2022-05-08 17:21:14.273240-07:00,878.9,1030.6,1303.4,1015.1,757.1,488.5,1699.5,1489.3,3477.1,3477.1,827.7,964.5,423.9,3497.8,1209.7,978.2,3485.6,3480.7,373.2,592.3,417.6,513.9,284.4,285.9,3474.6,3474.6,780.3,521.8,914.4,1351.2,1841.1,606.8,-9.0,21.0,19.0,11524.0,8876.0,7049.0,2676.0,42.0,-49.0,33.0,16.0,29.0,23.0,10192.0,9649.0,-2268.0,-8143.0,42.0,-21.0,50.0,1.0
2022-05-08 17:21:14.363165-07:00,878.9,1028.8,1297.2,1006.5,757.1,488.5,1699.5,1489.3,3479.5,3472.2,828.5,961.1,423.9,3497.8,1209.7,978.2,3485.6,3480.7,373.2,592.3,416.1,517.9,294.4,284.4,3474.6,3474.6,780.3,521.8,906.7,1348.5,1834.3,610.0,0.0,17.0,1.0,11521.0,8880.0,7045.0,2686.0,-49.0,33.0,10.0,20.0,10.0,17.0,10201.0,9640.0,-2293.0,-8136.0,-28.0,-29.0,25.0,1.0
2022-05-08 17:21:14.364324-07:00,878.9,1028.8,1297.2,1006.5,763.7,489.3,1679.5,1474.6,3479.5,3472.2,828.5,961.1,421.5,3506.3,1202.7,975.6,3478.3,3479.5,370.8,593.1,416.1,517.9,294.4,284.4,3475.9,3477.1,772.8,523.4,906.7,1348.5,1834.3,610.0,0.0,2.0,0.0,11533.0,8871.0,7035.0,2690.0,-45.0,-46.0,10.0,21.0,8.0,20.0,10217.0,9621.0,-2301.0,-8136.0,-49.0,-8.0,21.0,1.0
2022-05-08 17:21:14.422965-07:00,882.3,1020.2,1304.3,1007.3,763.7,489.3,1679.5,1474.6,3477.1,3483.2,823.5,957.7,421.5,3506.3,1202.7,975.6,3478.3,3479.5,370.8,593.1,417.6,516.3,282.1,284.4,3475.9,3477.1,772.8,523.4,906.7,1342.2,1826.5,609.2,-2.0,-5.0,3.0,11551.0,8848.0,7035.0,2688.0,-35.0,3.0,-55.0,14.0,-2.0,19.0,10242.0,9595.0,-2295.0,-8136.0,-77.0,-1.0,14.0,1.0
2022-05-08 17:21:14.482776-07:00,882.3,1020.2,1304.3,1007.3,756.3,490.9,1671.0,1468.1,3477.1,3483.2,823.5,957.7,421.5,3491.7,1203.5,974.8,3484.4,3475.9,369.3,592.3,417.6,516.3,282.1,284.4,3477.1,3478.3,774.5,526.6,906.7,1342.2,1826.5,609.2,2.0,-5.0,-10.0,11547.0,8853.0,7040.0,2676.0,42.0,3.0,-1.0,2.0,0.0,0.0,10255.0,9585.0,-2291.0,-8133.0,29.0,6.0,6.0,1.0
2022-05-08 17:21:14.513040-07:00,878.9,1026.3,1303.4,1009.0,756.3,490.9,1671.0,1452.5,3481.9,3475.9,821.0,961.1,421.5,3491.7,1203.5,973.1,3484.4,3475.9,369.3,592.3,415.3,512.3,283.6,282.1,3490.5,3478.3,774.5,526.6,904.2,1336.8,1820.7,605.2,7.0,-7.0,-12.0,11537.0,8865.0,7046.0,2665.0,44.0,-7.0,-26.0,11.0,-6.0,7.0,10250.0,9590.0,-2296.0,-8132.0,3.0,-4.0,12.0,1.0
2022-05-08 17:21:14.573100-07:00,879.7,1026.3,1303.4,1009.0,757.9,501.2,1671.9,1452.5,3475.9,3475.9,821.0,961.1,423.9,3496.6,1195.6,973.1,3484.4,3488.0,373.9,586.7,415.3,512.3,283.6,285.2,3490.5,3484.4,778.6,525.0,904.2,1336.8,1820.7,601.2,0.0,-3.0,-13.0,11533.0,8885.0,7033.0,2648.0,31.0,-54.0,43.0,11.0,3.0,2.0,10253.0,9587.0,-2303.0,-8129.0,24.0,-25.0,17.0,1.0
2022-05-08 17:21:14.633616-07:00,879.7,1021.1,1300.7,1007.3,757.9,501.2,1671.9,1455.2,3475.9,3477.1,825.2,952.6,423.9,3496.6,1195.6,971.3,3477.1,3488.0,373.9,586.7,415.3,516.3,287.5,285.2,3475.9,3484.4,778.6,525.0,896.6,1346.7,1818.7,601.2,1.0,-10.0,1.0,11539.0,8896.0,7011.0,2646.0,-7.0,-51.0,22.0,14.0,-9.0,8.0,10255.0,9580.0,-2321.0,-8130.0,3.0,-32.0,32.0,1.0
2022-05-08 17:21:14.663015-07:00,890.7,1021.1,1300.7,1007.3,753.8,490.9,1676.7,1455.2,3478.3,3477.1,825.2,952.6,420.0,3489.2,1203.5,971.3,3477.1,3485.6,370.0,586.7,415.3,516.3,287.5,280.6,3475.9,3472.2,773.6,502.8,896.6,1346.7,1818.7,591.5,-5.0,-1.0,8.0,11541.0,8901.0,7000.0,2649.0,1.0,-4.0,39.0,15.0,2.0,24.0,10263.0,9568.0,-2341.0,-8129.0,8.0,-34.0,32.0,1.0
2022-05-08 17:21:14.753046-07:00,890.7,1015.9,1297.2,1005.6,753.8,490.9,1676.7,1451.6,3478.3,3473.4,815.2,960.2,420.0,3489.2,1203.5,968.8,3479.5,3485.6,370.0,586.7,413.7,517.9,282.1,280.6,3477.1,3472.2,773.6,502.8,900.0,1339.5,1801.3,591.5,-1.0,16.0,4.0,11539.0,8911.0,6990.0,2652.0,20.0,-10.0,11.0,13.0,16.0,13.0,10270.0,9561.0,-2356.0,-8123.0,7.0,4.0,25.0,1.0
2022-05-08 17:21:14.782922-07:00,876.4,1015.9,1297.2,1005.6,762.0,488.5,1666.3,1451.6,3478.3,3473.4,815.2,960.2,420.0,3502.7,1186.7,968.8,3479.5,3483.2,372.4,588.3,413.7,517.9,282.1,280.6,3477.1,3477.1,770.3,529.0,900.0,1339.5,1801.3,601.2,0.0,8.0,10.0,11537.0,8913.0,6989.0,2652.0,-16.0,31.0,-9.0,11.0,8.0,17.0,10276.0,9558.0,-2362.0,-8119.0,-2.0,-4.0,6.0,1.0
2022-05-08 17:21:14.812649-07:00,876.4,1016.8,1299.8,1021.9,762.0,488.5,1654.9,1447.0,3478.3,3480.7,815.2,959.4,420.0,3502.7,1182.3,969.6,3480.7,3481.9,372.4,588.3,417.6,511.5,284.4,280.6,3472.2,3483.2,770.3,529.0,903.4,1343.1,1797.4,601.2,0.0,-9.0,8.0,11531.0,8911.0,6999.0,2661.0,37.0,47.0,21.0,11.0,0.0,7.0,10280.0,9555.0,-2360.0,-8117.0,3.0,16.0,0.0,1.0
2022-05-08 17:21:14.963919-07:00,893.2,1016.8,1299.8,1021.9,752.1,489.3,1654.9,1447.0,3479.5,3483.2,815.2,959.4,423.9,3499.0,1182.3,969.6,3480.7,3481.9,371.6,589.1,417.6,511.5,277.5,288.2,3472.2,3483.2,772.0,523.4,903.4,1343.1,1790.7,592.3,1.0,-3.0,-10.0,11516.0,8916.0,7013.0,2674.0,-23.0,41.0,2.0,9.0,-8.0,14.0,10281.0,9558.0,-2358.0,-8113.0,-20.0,13.0,3.0,1.0
2022-05-08 17:21:14.964843-07:00,893.2,1016.8,1294.5,1006.5,752.1,489.3,1652.0,1439.6,3479.5,3483.2,813.5,956.0,423.9,3499.0,1184.1,967.9,3481.9,3488.0,371.6,589.1,418.4,511.5,277.5,288.2,3477.1,3474.6,772.0,523.4,888.2,1339.5,1790.7,592.3,10.0,-13.0,-10.0,11514.0,8913.0,7017.0,2682.0,21.0,16.0,23.0,11.0,-6.0,-3.0,10292.0,9553.0,-2352.0,-8106.0,-7.0,19.0,24.0,1.0
2022-05-08 17:21:14.992766-07:00,876.4,1018.5,1294.5,1006.5,762.0,489.3,1652.0,1439.6,3474.6,3475.9,813.5,956.0,420.0,3499.0,1184.1,967.9,3481.9,3488.0,375.5,590.7,418.4,511.5,279.0,277.5,3477.1,3474.6,774.5,519.5,888.2,1339.5,1811.9,600.4,5.0,3.0,-15.0,11506.0,8921.0,7016.0,2691.0,-24.0,5.0,14.0,8.0,5.0,-3.0,10297.0,9554.0,-2357.0,-8098.0,-3.0,-7.0,22.0,1.0
2022-05-08 17:21:15.052771-07:00,876.4,1018.5,1296.3,1008.2,762.0,489.3,1654.9,1433.2,3474.6,3475.9,811.9,954.3,420.0,3499.0,1181.5,962.8,3471.0,3467.4,375.5,590.7,417.6,513.9,279.0,277.5,3475.9,3488.0,774.5,519.5,896.6,1339.5,1811.9,600.4,3.0,-10.0,-8.0,11509.0,8917.0,7015.0,2697.0,-9.0,3.0,10.0,10.0,-5.0,3.0,10305.0,9545.0,-2364.0,-8096.0,-17.0,-16.0,23.0,1.0
2022-05-08 17:21:15.082488-07:00,874.7,1015.1,1296.3,1008.2,753.8,487.7,1654.9,1433.2,3468.6,3475.9,811.9,954.3,421.5,3502.7,1181.5,962.8,3471.0,3467.4,370.0,590.7,417.6,513.9,280.6,279.0,3475.9,3488.0,767.8,521.0,896.6,1339.5,1783.9,601.2,-1.0,-3.0,-9.0,11510.0,8921.0,7009.0,2695.0,10.0,-54.0,17.0,9.0,0.0,5.0,10312.0,9538.0,-2374.0,-8093.0,0.0,-16.0,25.0,1.0
2022-05-08 17:21:15.113641-07:00,874.7,1015.1,1288.2,1005.6,753.8,485.3,1641.6,1430.5,3468.6,3475.9,806.0,956.0,421.5,3491.7,1174.4,968.8,3472.2,3475.9,370.0,590.7,414.5,511.5,280.6,279.0,3477.1,3478.3,770.3,521.0,892.4,1329.6,1783.9,601.2,6.0,-2.0,2.0,11518.0,8926.0,6992.0,2684.0,-19.0,-23.0,-9.0,8.0,5.0,-1.0,10318.0,9526.0,-2388.0,-8095.0,-16.0,-41.0,21.0,1.0
2022-05-08 17:21:15.173051-07:00,875.5,1015.1,1297.2,1005.6,756.3,485.3,1641.6,1430.5,3469.8,3478.3,812.7,956.0,421.5,3491.7,1174.4,968.8,3472.2,3475.9,370.0,588.3,414.5,506.7,276.0,278.3,3477.1,3478.3,770.3,525.0,892.4,1326.8,1784.9,594.7,2.0,0.0,-2.0,11522.0,8930.0,6982.0,2683.0,-14.0,-36.0,26.0,7.0,3.0,12.0,10322.0,9516.0,-2401.0,-8098.0,-8.0,-33.0,20.0,1.0
2022-05-08 17:21:15.232928-07:00,875.5,1015.1,1297.2,1010.8,756.3,489.3,1646.4,1427.7,3469.8,3478.3,812.7,959.4,421.5,3502.7,1170.9,967.1,3478.3,3480.7,371.6,588.3,419.2,506.7,276.0,278.3,3480.7,3478.3,776.9,525.0,892.4,1326.8,1784.9,594.7,-1.0,-7.0,5.0,11530.0,8929.0,6970.0,2682.0,4.0,-20.0,8.0,11.0,-3.0,11.0,10331.0,9500.0,-2411.0,-8102.0,-19.0,-23.0,22.0,1.0
2022-05-08 17:21:15.262988-07:00,878.0,1009.0,1301.6,1010.8,753.8,489.3,1646.4,1427.7,3473.4,3471.0,806.9,959.4,423.9,3502.7,1170.9,967.1,3478.3,3480.7,371.6,586.7,419.2,511.5,278.3,281.3,3480.7,3478.3,776.9,522.6,892.4,1329.6,1769.5,594.7,0.0,4.0,3.0,11531.0,8937.0,6959.0,2676.0,4.0,-21.0,23.0,11.0,3.0,11.0,10338.0,9493.0,-2421.0,-8099.0,-14.0,-10.0,21.0,1.0
2022-05-08 17:21:15.323866-07:00,878.0,1009.0,1301.6,1003.9,753.8,489.3,1629.4,1432.3,3473.4,3471.0,806.9,959.4,423.9,3496.6,1178.8,967.1,3480.7,3474.6,370.0,586.7,419.2,511.5,278.3,281.3,3478.3,3477.1,769.5,522.6,883.9,1329.6,1769.5,594.7,-1.0,-4.0,5.0,11532.0,8940.0,6954.0,2679.0,-6.0,7.0,1.0,11.0,0.0,12.0,10348.0,9485.0,-2425.0,-8094.0,-6.0,-6.0,19.0,1.0
2022-05-08 17:21:15.412889-07:00,878.9,1017.6,1293.6,1003.9,752.1,489.3,1629.4,1432.3,3469.8,3473.4,811.0,959.4,423.9,3496.6,1178.8,967.1,3480.7,3474.6,370.0,593.1,419.2,513.9,274.4,277.5,3478.3,3477.1,769.5,524.2,883.9,1329.6,1778.1,596.3,0.0,6.0,2.0,11529.0,8938.0,6960.0,2682.0,-11.0,31.0,-12.0,7.0,3.0,14.0,10353.0,9481.0,-2429.0,-8090.0,-16.0,0.0,12.0,1.0
2022-05-08 17:21:15.442599-07:00,878.9,1017.6,1293.6,1002.2,750.5,487.7,1633.1,1426.8,3469.8,3473.4,811.0,956.0,419.2,3502.7,1167.4,967.1,3472.2,3472.2,370.0,589.9,410.6,513.9,274.4,277.5,3488.0,3478.3,769.5,517.9,882.3,1329.6,1778.1,596.3,2.0,1.0,-8.0,11529.0,8934.0,6965.0,2683.0,8.0,-22.0,5.0,4.0,5.0,6.0,10358.0,9479.0,-2425.0,-8087.0,-9.0,18.0,2.0,1.0
2022-05-08 17:21:15.472830-07:00,882.3,1006.5,1292.7,1006.5,750.5,487.7,1633.1,1426.8,3478.3,3480.7,805.2,962.0,419.2,3502.7,1167.4,967.1,3472.2,3472.2,370.0,589.9,419.2,511.5,278.3,280.6,3488.0,3478.3,769.5,517.9,880.6,1319.6,1769.5,590.7,4.0,-3.0,-7.0,11530.0,8931.0,6969.0,2677.0,10.0,21.0,-25.0,4.0,2.0,1.0,10361.0,9479.0,-2421.0,-8085.0,-5.0,2.0,0.0,1.0
2022-05-08 17:21:15.532917-07:00,882.3,1006.5,1292.7,1006.5,743.9,491.7,1637.9,1427.7,3478.3,3480.7,805.2,962.0,420.0,3495.3,1172.6,968.8,3477.1,3485.6,370.8,593.1,419.2,511.5,278.3,280.6,3480.7,3483.2,762.0,521.0,880.6,1319.6,1769.5,590.7,-3.0,-3.0,-12.0,11528.0,8929.0,6977.0,2673.0,-23.0,-19.0,-13.0,8.0,4.0,8.0,10365.0,9475.0,-2419.0,-8086.0,-29.0,-5.0,-1.0,1.0
2022-05-08 17:21:15.592977-07:00,878.0,1004.8,1296.3,1005.6,743.9,491.7,1637.9,1427.7,3471.0,3473.4,805.2,964.5,420.0,3495.3,1172.6,968.8,3477.1,3485.6,370.8,593.1,415.3,515.5,279.8,278.3,3480.7,3483.2,762.0,521.0,880.6,1321.4,1758.9,592.3,7.0,-6.0,-7.0,11537.0,8925.0,6968.0,2670.0,8.0,-9.0,-10.0,8.0,0.0,-3.0,10369.0,9470.0,-2416.0,-8087.0,2.0,-12.0,5.0,1.0
2022-05-08 17:21:15.623203-07:00,878.0,1004.8,1296.3,1005.6,751.3,490.9,1631.3,1419.5,3471.0,3473.4,805.2,964.5,420.0,3499.0,1163.8,956.0,3468.6,3481.9,372.4,585.1,415.3,515.5,279.8,278.3,3477.1,3477.1,772.0,523.4,880.6,1321.4,1758.9,592.3,-8.0,-2.0,-5.0,11544.0,8915.0,6970.0,2669.0,-48.0,-8.0,-26.0,9.0,-2.0,16.0,10375.0,9459.0,-2418.0,-8091.0,-54.0,-20.0,11.0,1.0
2022-05-08 17:21:15.683033-07:00,882.3,1009.9,1292.7,1006.5,751.3,490.9,1631.3,1419.5,3469.8,3475.9,796.0,960.2,420.0,3499.0,1163.8,956.0,3468.6,3481.9,372.4,585.1,409.0,512.3,276.0,279.8,3477.1,3477.1,772.0,523.4,879.7,1326.8,1760.8,595.5,0.0,-2.0,-3.0,11557.0,8905.0,6964.0,2658.0,-16.0,-38.0,-17.0,10.0,2.0,8.0,10386.0,9443.0,-2416.0,-8096.0,-34.0,-20.0,15.0,1.0
2022-05-08 17:21:15.712924-07:00,877.2,1009.9,1292.7,1006.5,745.5,485.3,1626.5,1410.3,3474.6,3475.9,796.0,960.2,419.2,3499.0,1163.8,962.8,3479.5,3485.6,374.7,585.1,409.0,512.3,276.0,276.7,3477.1,3483.2,773.6,517.1,879.7,1326.8,1760.8,589.9,-5.0,-18.0,1.0,11572.0,8892.0,6956.0,2658.0,-28.0,-3.0,-7.0,11.0,-16.0,14.0,10399.0,9426.0,-2420.0,-8098.0,-9.0,-14.0,24.0,1.0
2022-05-08 17:21:15.832951-07:00,877.2,1011.6,1288.2,1004.8,745.5,485.3,1626.5,1404.0,3474.6,3474.6,806.0,960.2,419.2,3499.0,1163.8,967.1,3483.2,3485.6,374.7,585.1,412.1,512.3,278.3,276.7,3477.1,3483.2,773.6,517.1,877.2,1325.0,1760.8,589.9,0.0,-2.0,1.0,11573.0,8895.0,6951.0,2658.0,-5.0,-11.0,25.0,9.0,6.0,7.0,10406.0,9421.0,-2430.0,-8092.0,-3.0,-8.0,29.0,1.0
2022-05-08 17:21:15.834118-07:00,876.4,1011.6,1288.2,1004.8,748.8,485.3,1625.6,1404.0,3475.9,3474.6,806.0,960.2,420.8,3496.6,1162.1,967.1,3483.2,3478.3,372.4,589.9,412.1,512.3,278.3,278.3,3477.1,3483.2,772.0,527.4,877.2,1325.0,1760.8,595.5,-1.0,-8.0,0.0,11573.0,8898.0,6945.0,2664.0,6.0,7.0,17.0,7.0,1.0,10.0,10414.0,9418.0,-2438.0,-8083.0,5.0,8.0,31.0,1.0
2022-05-08 17:21:15.863055-07:00,876.4,1003.9,1293.6,1006.5,748.8,485.3,1625.6,1406.7,3475.9,3467.4,798.5,960.2,420.8,3496.6,1162.1,957.7,3475.9,3478.3,372.4,589.9,413.7,512.3,277.5,278.3,3477.1,3483.2,772.0,527.4,877.2,1318.7,1752.1,595.5,-5.0,11.0,-10.0,11567.0,8910.0,6941.0,2661.0,23.0,-18.0,11.0,2.0,15.0,6.0,10418.0,9419.0,-2446.0,-8074.0,-9.0,-6.0,23.0,1.0
2022-05-08 17:21:15.923060-07:00,877.2,1003.9,1293.6,1006.5,743.0,490.1,1622.8,1406.7,3469.8,3467.4,798.5,960.2,423.9,3499.0,1160.3,957.7,3475.9,3484.4,370.8,584.3,413.7,512.3,277.5,279.0,3477.1,3477.1,761.2,522.6,877.2,1318.7,1752.1,588.3,15.0,-7.0,-1.0,11578.0,8905.0,6928.0,2663.0,-33.0,-26.0,15.0,7.0,-1.0,-2.0,10426.0,9410.0,-2453.0,-8072.0,-11.0,-24.0,20.0,1.0
2022-05-08 17:21:15.953088-07:00,877.2,1009.9,1287.3,1002.2,743.0,490.1,1622.8,1403.0,3469.8,3475.9,801.9,960.2,423.9,3499.0,1160.3,963.7,3474.6,3484.4,370.8,584.3,412.9,506.7,276.0,279.0,3474.6,3477.1,761.2,522.6,881.4,1313.3,1748.3,588.3,-9.0,2.0,-2.0,11579.0,8905.0,6925.0,2665.0,-3.0,6.0,2.0,5.0,5.0,13.0,10429.0,9405.0,-2462.0,-8072.0,-2.0,-13.0,13.0,1.0
2022-05-08 17:21:16.013036-07:00,878.9,1000.5,1287.3,1002.2,748.0,492.5,1623.7,1403.0,3474.6,3481.9,801.9,960.2,418.4,3499.0,1157.7,963.7,3474.6,3473.4,370.8,588.3,412.9,506.7,281.3,274.4,3474.6,3478.3,770.3,519.5,881.4,1313.3,1749.3,584.3,6.0,-16.0,-3.0,11581.0,8905.0,6923.0,2664.0,2.0,2.0,5.0,11.0,-17.0,2.0,10433.0,9402.0,-2468.0,-8069.0,-6.0,-8.0,23.0,1.0
2022-05-08 17:21:16.073166-07:00,878.9,1000.5,1292.7,998.7,748.0,492.5,1642.6,1402.1,3474.6,3481.9,803.5,956.0,418.4,3499.0,1162.1,962.8,3477.1,3480.7,370.8,588.3,416.8,510.7,281.3,274.4,3477.1,3478.3,770.3,519.5,881.4,1324.1,1749.3,584.3,4.0,-40.0,-10.0,11577.0,8911.0,6923.0,2658.0,26.0,-23.0,-7.0,15.0,-38.0,9.0,10442.0,9399.0,-2479.0,-8057.0,-4.0,-3.0,67.0,1.0
2022-05-08 17:21:16.103427-07:00,883.9,1003.9,1292.7,998.7,743.0,486.9,1642.6,1402.1,3478.3,3478.3,803.5,956.0,418.4,3502.7,1162.1,962.8,3477.1,3480.7,373.9,590.7,416.8,510.7,276.0,278.3,3477.1,3478.3,762.0,521.8,881.4,1324.1,1756.0,587.5,4.0,-113.0,-13.0,11583.0,8929.0,6900.0,2637.0,43.0,-108.0,33.0,8.0,-92.0,-6.0,10479.0,9385.0,-2507.0,-8016.0,-35.0,8.0,202.0,1.0
2022-05-08 17:21:16.163014-07:00,883.9,1003.9,1287.3,997.0,743.0,486.9,1619.0,1404.0,3478.3,3478.3,794.4,959.4,418.4,3502.7,1161.2,960.2,3477.1,3480.7,373.9,590.7,416.1,512.3,276.0,278.3,3474.6,3478.3,762.0,521.8,873.8,1325.0,1756.0,587.5,17.0,-175.0,19.0,11607.0,8954.0,6829.0,2626.0,8.0,-226.0,122.0,45.0,-137.0,11.0,10570.0,9348.0,-2572.0,-7918.0,-66.0,42.0,460.0,1.0
2022-05-08 17:21:16.223839-07:00,889.0,1000.5,1287.3,997.0,750.5,486.1,1619.0,1404.0,3467.4,3471.0,794.4,959.4,423.9,3501.4,1161.2,960.2,3477.1,3480.7,370.0,590.7,416.1,512.3,282.1,279.0,3474.6,3478.3,765.3,525.0,873.8,1325.0,1760.8,593.9,6.0,-147.0,25.0,11650.0,8999.0,6711.0,2588.0,81.0,-344.0,175.0,52.0,-48.0,25.0,10701.0,9313.0,-2707.0,-7737.0,28.0,71.0,708.0,1.0
2022-05-08 17:21:16.342916-07:00,889.0,1000.5,1289.1,1005.6,750.5,486.1,1614.3,1398.5,3467.4,3471.0,811.9,959.4,423.9,3501.4,1172.6,956.8,3473.4,3480.7,370.0,590.7,412.1,511.5,282.1,279.0,3468.6,3479.5,765.3,525.0,878.0,1313.3,1760.8,593.9,36.0,-34.0,17.0,11639.0,9160.0,6538.0,2515.0,389.0,-419.0,281.0,32.0,26.0,0.0,10833.0,9309.0,-2905.0,-7482.0,146.0,118.0,818.0,1.0
2022-05-08 17:21:16.344218-07:00,882.3,1009.0,1291.8,1005.6,748.0,494.0,1614.3,1398.5,3478.3,3473.4,816.0,959.4,417.6,3495.3,1172.6,956.8,3473.4,3480.7,372.4,592.3,412.1,516.3,279.0,282.1,3468.6,3479.5,764.5,527.4,878.0,1319.6,1755.0,591.5,2.0,54.0,-4.0,11612.0,9337.0,6345.0,2483.0,196.0,-388.0,420.0,17.0,54.0,10.0,10961.0,9314.0,-3092.0,-7211.0,122.0,121.0,761.0,1.0
2022-05-08 17:21:16.373435-07:00,882.3,1009.0,1291.8,1009.9,748.0,498.0,1612.4,1376.6,3478.3,3473.4,816.0,958.5,417.6,3495.3,1168.2,951.7,3483.2,3475.9,373.9,592.3,414.5,516.3,279.0,282.1,3477.1,3477.1,776.9,527.4,878.0,1319.6,1755.0,591.5,-11.0,63.0,-7.0,11622.0,9456.0,6125.0,2536.0,-21.0,-310.0,505.0,6.0,71.0,18.0,11089.0,9290.0,-3246.0,-6974.0,26.0,118.0,677.0,1.0
2022-05-08 17:21:16.403088-07:00,881.4,1007.3,1292.7,1009.9,750.5,498.0,1612.4,1376.6,3475.9,3469.8,797.7,958.5,420.0,3495.3,1168.2,951.7,3483.2,3475.9,373.9,590.7,414.5,517.1,274.4,276.0,3477.1,3477.1,776.9,542.6,878.0,1314.2,1749.3,594.7,-3.0,83.0,-8.0,11618.0,9576.0,5912.0,2608.0,139.0,-266.0,464.0,3.0,93.0,5.0,11188.0,9289.0,-3378.0,-6751.0,124.0,143.0,563.0,1.0
2022-05-08 17:21:16.462861-07:00,881.4,1007.3,1292.7,1003.9,750.5,495.6,1629.4,1386.6,3475.9,3469.8,797.7,956.0,420.0,3502.7,1156.8,952.6,3488.0,3477.1,373.9,590.7,419.2,517.1,274.4,276.0,3483.2,3477.1,774.5,542.6,874.7,1314.2,1749.3,594.7,-37.0,340.0,-83.0,11716.0,9559.0,5725.0,2652.0,-578.0,-412.0,143.0,7.0,132.0,-3.0,11317.0,9216.0,-3394.0,-6626.0,-464.0,87.0,235.0,1.0
2022-05-08 17:21:16.523174-07:00,889.8,1002.2,1292.7,1003.9,759.6,495.6,1629.4,1386.6,3480.7,3466.1,791.9,956.0,416.1,3502.7,1156.8,952.6,3488.0,3477.1,373.9,585.9,419.2,514.7,280.6,274.4,3483.2,3477.1,774.5,536.2,874.7,1317.8,1718.6,589.1,38.0,-25.0,27.0,11856.0,9471.0,5597.0,2614.0,-165.0,-215.0,-79.0,54.0,-8.0,-5.0,11405.0,9132.0,-3365.0,-6608.0,-146.0,34.0,61.0,1.0
2022-05-08 17:21:16.583034-07:00,889.8,1002.2,1292.7,1008.2,759.6,492.5,1602.1,1391.2,3480.7,3466.1,791.9,960.2,416.1,3492.9,1163.0,958.5,3488.0,3483.2,368.5,585.9,420.0,514.7,280.6,274.4,3488.0,3475.9,776.1,536.2,869.6,1317.8,1718.6,589.1,42.0,0.0,12.0,11958.0,9370.0,5531.0,2653.0,-665.0,-14.0,113.0,41.0,6.0,-16.0,11512.0,9000.0,-3340.0,-6615.0,-568.0,-139.0,141.0,1.0
2022-05-08 17:21:16.613027-07:00,883.9,1000.5,1298.1,1003.0,756.3,492.5,1602.1,1391.2,3480.7,3483.2,791.9,955.1,416.8,3492.9,1163.0,958.5,3488.0,3483.2,368.5,581.8,412.9,517.1,289.0,287.5,3488.0,3475.9,776.1,525.8,872.1,1312.4,1716.7,585.1,-11.0,55.0,-19.0,12123.0,9174.0,5451.0,2755.0,-397.0,-165.0,-2.0,13.0,57.0,7.0,11661.0,8833.0,-3278.0,-6609.0,-336.0,77.0,94.0,1.0
2022-05-08 17:21:16.673160-07:00,883.9,1000.5,1298.1,1003.0,764.5,496.4,1587.1,1421.3,3480.7,3483.2,791.9,955.1,418.4,3497.8,1193.8,955.1,3481.9,3481.9,370.0,587.5,412.9,517.1,289.0,287.5,3479.5,3488.0,772.8,519.5,872.1,1312.4,1716.7,585.1,17.0,-9.0,-24.0,12192.0,9134.0,5365.0,2755.0,-320.0,-162.0,96.0,3.0,12.0,-27.0,11718.0,8776.0,-3246.0,-6602.0,-286.0,-18.0,56.0,1.0
2022-05-08 17:21:16.703294-07:00,876.4,1006.5,1296.3,1000.5,764.5,496.4,1587.1,1421.3,3472.2,3488.0,779.4,945.8,418.4,3497.8,1193.8,955.1,3481.9,3481.9,370.0,587.5,417.6,518.7,282.9,280.6,3479.5,3488.0,772.8,519.5,933.9,1321.4,1728.2,590.7,-16.0,-70.0,-25.0,12296.0,8999.0,5318.0,2826.0,-365.0,110.0,49.0,-24.0,-28.0,-42.0,11822.0,8626.0,-3207.0,-6631.0,-370.0,-40.0,90.0,1.0
2022-05-08 17:21:16.823037-07:00,876.4,1006.5,1296.3,1000.5,754.6,486.1,1588.0,1494.0,3472.2,3488.0,779.4,945.8,413.7,3500.2,1204.4,949.2,3478.3,3479.5,373.9,578.6,417.6,518.7,282.9,280.6,3478.3,3477.1,767.8,511.5,933.9,1321.4,1728.2,590.7,-22.0,4.0,-14.0,12346.0,8942.0,5274.0,2869.0,-281.0,-116.0,73.0,-30.0,-5.0,7.0,11874.0,8564.0,-3178.0,-6632.0,-250.0,-6.0,53.0,1.0
2022-05-08 17:21:16.824233-07:00,885.6,998.7,1290.0,999.6,754.6,486.1,1588.0,1494.0,3472.2,3478.3,771.1,947.5,413.7,3500.2,1204.4,949.2,3478.3,3479.5,373.9,578.6,418.4,512.3,276.0,282.9,3478.3,3477.1,767.8,511.5,984.2,1308.8,1723.4,603.6,-7.0,-19.0,-22.0,12417.0,8868.0,5218.0,2897.0,-192.0,-144.0,44.0,-15.0,-10.0,-2.0,11953.0,8471.0,-3124.0,-6637.0,-295.0,57.0,64.0,1.0
2022-05-08 17:21:16.942754-07:00,885.6,998.7,1290.0,999.6,744.7,484.5,1589.9,1573.9,3472.2,3478.3,771.1,947.5,413.7,3502.7,1174.4,941.5,3488.0,3479.5,371.6,582.6,418.4,512.3,276.0,282.9,3479.5,3481.9,773.6,503.6,984.2,1308.8,1723.4,603.6,9.0,-19.0,78.0,12457.0,8871.0,5132.0,2868.0,183.0,-301.0,86.0,44.0,-14.0,61.0,11999.0,8463.0,-3073.0,-6586.0,86.0,272.0,94.0,1.0
2022-05-08 17:21:16.945945-07:00,882.3,997.0,1281.0,1000.5,744.7,484.5,1589.9,1528.3,3468.6,3474.6,757.9,947.5,413.7,3502.7,1174.4,938.1,3477.1,3479.5,371.6,582.6,414.5,513.9,276.7,274.4,3479.5,3481.9,773.6,503.6,961.1,1328.7,1736.8,640.8,37.0,-79.0,119.0,12432.0,8995.0,5023.0,2781.0,394.0,-267.0,27.0,40.0,-41.0,32.0,11992.0,8600.0,-3033.0,-6438.0,442.0,464.0,167.0,1.0
2022-05-08 17:21:16.973067-07:00,887.3,997.0,1281.0,1000.5,731.5,495.6,1702.4,1528.3,3469.8,3474.6,757.9,947.5,412.1,3495.3,1190.3,938.1,3477.1,3477.1,369.3,589.1,414.5,513.9,276.7,279.0,3479.5,3475.9,766.2,494.0,961.1,1328.7,1736.8,631.9,21.0,55.0,109.0,12214.0,9310.0,5068.0,2627.0,1072.0,128.0,-224.0,27.0,6.0,66.0,11861.0,8946.0,-3028.0,-6210.0,828.0,617.0,60.0,1.0
2022-05-08 17:21:17.003268-07:00,887.3,1012.5,1291.8,1001.3,731.5,495.6,1702.4,1295.4,3469.8,3472.2,758.7,946.6,412.1,3495.3,1190.3,926.2,3478.3,3477.1,369.3,589.1,413.7,517.9,279.8,279.0,3480.7,3475.9,766.2,494.0,960.2,1290.9,1694.8,631.9,39.0,-57.0,54.0,11977.0,9529.0,5282.0,2506.0,523.0,520.0,-255.0,40.0,-69.0,33.0,11789.0,9225.0,-2938.0,-5977.0,467.0,727.0,162.0,1.0
2022-05-08 17:21:17.062891-07:00,887.3,1012.5,1291.8,1001.3,741.4,490.9,1687.2,1295.4,3471.0,3472.2,758.7,946.6,415.3,3501.4,1157.7,926.2,3478.3,3478.3,369.3,586.7,413.7,517.9,279.8,282.9,3480.7,3486.8,786.9,502.8,960.2,1290.9,1694.8,620.5,-15.0,4.0,3.0,11715.0,9700.0,5552.0,2507.0,1034.0,712.0,-17.0,-13.0,-25.0,17.0,11670.0,9596.0,-2861.0,-5655.0,1002.0,831.0,139.0,1.0
2022-05-08 17:21:17.153873-07:00,887.3,1136.6,1304.3,1002.2,741.4,490.9,1687.2,1211.5,3471.0,3466.1,755.4,942.4,415.3,3501.4,1157.7,908.4,3473.4,3478.3,369.3,586.7,418.4,519.5,283.6,282.9,3480.7,3486.8,786.9,502.8,926.2,1257.8,1615.2,620.5,-20.0,-15.0,-66.0,11435.0,9836.0,5856.0,2573.0,13.0,746.0,-230.0,-25.0,-3.0,-28.0,11602.0,9837.0,-2755.0,-5430.0,236.0,703.0,85.0,1.0
2022-05-08 17:21:17.155122-07:00,883.1,1164.7,1304.3,1002.2,738.9,489.3,1845.9,1211.5,3467.4,3478.3,755.4,942.4,416.8,3497.8,1082.5,908.4,3473.4,3475.9,370.0,587.5,418.4,519.5,285.2,287.5,3480.7,3472.2,816.9,492.5,926.2,1257.8,1553.4,614.9,-14.0,-53.0,-93.0,11330.0,9779.0,6100.0,2686.0,179.0,540.0,19.0,-11.0,-10.0,-46.0,11608.0,9992.0,-2605.0,-5201.0,321.0,621.0,128.0,1.0
2022-05-08 17:21:17.243471-07:00,883.1,1164.7,1307.0,1003.0,738.9,489.3,1856.7,1190.3,3467.4,3478.3,749.6,944.1,416.8,3497.8,1033.2,907.6,3483.2,3479.5,370.0,587.5,414.5,516.3,285.2,287.5,3474.6,3477.1,816.9,492.5,917.7,1239.1,1553.4,614.9,0.0,57.0,-118.0,11206.0,9801.0,6241.0,2803.0,-72.0,449.0,15.0,-22.0,60.0,-100.0,11601.0,10130.0,-2496.0,-5002.0,34.0,398.0,56.0,1.0
2022-05-08 17:21:17.513607-07:00,877.2,1142.7,1307.0,1003.0,745.5,486.9,1856.7,1190.3,3479.5,3478.3,749.6,944.1,415.3,3495.3,1033.2,907.6,3483.2,3479.5,371.6,587.5,414.5,516.3,281.3,284.4,3474.6,3477.1,817.7,486.1,917.7,1239.1,1536.6,605.2,-1.0,-51.0,-124.0,11183.0,9710.0,6360.0,2941.0,-182.0,288.0,-36.0,-3.0,-26.0,-61.0,11634.0,10153.0,-2408.0,-4919.0,-59.0,181.0,22.0,1.0
2022-05-08 17:21:17.572927-07:00,877.2,1142.7,1296.3,1000.5,745.5,486.9,1811.0,1199.1,3479.5,3478.3,740.6,944.9,415.3,3495.3,1015.1,896.6,3475.9,3474.6,371.6,587.5,415.3,517.9,281.3,284.4,3475.9,3471.0,817.7,486.1,910.1,1239.1,1536.6,605.2,13.0,35.0,-86.0,11181.0,9686.0,6380.0,2982.0,-38.0,-108.0,40.0,-1.0,28.0,-44.0,11649.0,10160.0,-2379.0,-4884.0,-55.0,-13.0,2.0,1.0
2022-05-08 17:21:17.632928-07:00,876.4,1129.6,1296.3,1000.5,742.2,478.2,1811.0,1199.1,3483.2,3475.9,740.6,944.9,413.7,3497.8,1015.1,896.6,3475.9,3474.6,366.9,581.8,415.3,517.9,279.8,281.3,3475.9,3471.0,804.4,486.1,910.1,1239.1,1510.6,601.2,-15.0,-9.0,-65.0,11243.0,9639.0,6339.0,2987.0,-310.0,-81.0,-46.0,-15.0,-1.0,-10.0,11669.0,10117.0,-2388.0,-4921.0,-283.0,-185.0,-33.0,1.0
2022-05-08 17:21:17.723075-07:00,876.4,1129.6,1299.0,1006.5,742.2,478.2,1773.3,1169.1,3483.2,3475.9,738.9,942.4,413.7,3497.8,1001.3,895.7,3472.2,3484.4,366.9,581.8,417.6,515.5,279.8,281.3,3480.7,3480.7,804.4,486.1,899.1,1230.2,1510.6,601.2,-10.0,-30.0,-6.0,11353.0,9567.0,6260.0,2970.0,-275.0,-272.0,-14.0,-5.0,-21.0,22.0,11723.0,10007.0,-2411.0,-5005.0,-273.0,-218.0,-14.0,1.0
2022-05-08 17:21:17.724698-07:00,878.9,1131.4,1293.6,1006.5,738.9,480.6,1773.3,1169.1,3468.6,3478.3,736.5,942.4,417.6,3500.2,1001.3,895.7,3472.2,3484.4,367.7,589.1,417.6,517.1,279.0,277.5,3480.7,3480.7,789.4,490.1,899.1,1228.4,1506.0,603.6,-4.0,10.0,34.0,11449.0,9521.0,6163.0,2951.0,-196.0,-166.0,25.0,0.0,-5.0,25.0,11768.0,9912.0,-2443.0,-5074.0,-185.0,-190.0,-13.0,1.0
2022-05-08 17:21:17.753206-07:00,878.9,1131.4,1293.6,1006.5,738.9,480.6,1773.3,1169.1,3468.6,3478.3,736.5,942.4,417.6,3500.2,1001.3,895.7,3472.2,3484.4,367.7,589.1,417.6,517.1,279.0,277.5,3480.7,3480.7,789.4,490.1,899.1,1228.4,1506.0,603.6,-4.0,10.0,34.0,11449.0,9521.0,6163.0,2951.0,-196.0,-166.0,25.0,0.0,-5.0,25.0,11768.0,9912.0,-2443.0,-5074.0,-185.0,-190.0,-13.0,1.0
2022-05-08 17:21:17.754466-07:00,878.9,1129.6,1289.1,992.7,729.9,476.6,1744.5,1139.2,3478.3,3467.4,736.5,943.2,417.6,3507.5,987.6,883.9,3485.6,3488.0,374.7,585.9,416.1,517.9,278.3,282.9,3485.6,3481.9,788.6,486.9,894.1,1221.3,1500.4,593.9,0.0,7.0,7.0,11568.0,9460.0,6033.0,2955.0,-138.0,-54.0,27.0,0.0,2.0,20.0,11834.0,9776.0,-2487.0,-5161.0,-104.0,-42.0,10.0,1.0
2022-05-08 17:21:17.755318-07:00,881.4,1121.7,1283.7,992.7,734.0,476.6,1744.5,1139.2,3472.2,3473.4,727.4,943.2,413.7,3507.5,987.6,883.9,3485.6,3488.0,374.7,585.1,416.1,512.3,277.5,282.1,3485.6,3481.9,788.6,483.7,894.1,1209.7,1501.4,587.5,-15.0,-10.0,4.0,11591.0,9447.0,6012.0,2950.0,20.0,-38.0,-5.0,-19.0,-5.0,4.0,11846.0,9756.0,-2486.0,-5171.0,9.0,-5.0,-13.0,1.0
2022-05-08 17:21:17.783632-07:00,881.4,1121.7,1283.7,986.7,734.0,478.2,1743.5,1130.5,3472.2,3473.4,727.4,947.5,413.7,3499.0,979.9,888.2,3483.2,3478.3,373.9,585.1,413.7,512.3,277.5,282.1,3478.3,3479.5,787.7,483.7,882.3,1209.7,1501.4,587.5,-37.0,-17.0,-27.0,11585.0,9453.0,6018.0,2938.0,0.0,3.0,11.0,-31.0,-4.0,-9.0,11840.0,9762.0,-2478.0,-5177.0,14.0,15.0,-4.0,1.0
2022-05-08 17:21:17.784319-07:00,881.4,1121.7,1283.7,986.7,734.0,478.2,1743.5,1130.5,3472.2,3473.4,727.4,947.5,413.7,3499.0,979.9,888.2,3483.2,3478.3,373.9,585.1,413.7,512.3,277.5,282.1,3478.3,3479.5,787.7,483.7,882.3,1209.7,1501.4,587.5,-37.0,-17.0,-27.0,11585.0,9453.0,6018.0,2938.0,0.0,3.0,11.0,-31.0,-4.0,-9.0,11840.0,9762.0,-2478.0,-5177.0,14.0,15.0,-4.0,1.0
2022-05-08 17:21:17.842939-07:00,874.7,1108.6,1290.0,995.3,734.8,475.8,1734.9,1130.5,3473.4,3475.9,730.7,944.9,417.6,3495.3,980.7,882.3,3485.6,3484.4,370.0,589.1,415.3,521.8,275.2,279.0,3480.7,3474.6,782.7,483.0,884.8,1210.6,1501.4,590.7,4.0,5.0,-8.0,11566.0,9477.0,6018.0,2940.0,71.0,13.0,21.0,0.0,0.0,-5.0,11824.0,9782.0,-2482.0,-5173.0,53.0,-3.0,8.0,1.0
2022-05-08 17:21:17.873216-07:00,873.0,1113.0,1292.7,1009.0,734.8,475.8,1734.9,1130.5,3474.6,3473.4,729.9,942.4,417.6,3495.3,980.7,882.3,3485.6,3484.4,370.0,589.1,410.6,518.7,275.2,279.8,3480.7,3474.6,782.7,483.0,876.4,1210.6,1480.1,585.1,-2.0,-6.0,7.0,11552.0,9490.0,6022.0,2941.0,0.0,48.0,-1.0,0.0,0.0,6.0,11819.0,9789.0,-2485.0,-5172.0,2.0,0.0,0.0,1.0
2022-05-08 17:21:17.932978-07:00,873.0,1113.0,1292.7,1009.0,733.2,481.4,1724.4,1122.6,3474.6,3473.4,729.9,942.4,416.8,3495.3,977.3,882.3,3475.9,3484.4,369.3,581.8,410.6,518.7,275.2,279.8,3479.5,3486.8,778.6,486.9,876.4,1210.6,1480.1,585.1,-1.0,2.0,-23.0,11533.0,9500.0,6040.0,2948.0,84.0,36.0,13.0,-4.0,-1.0,1.0,11808.0,9805.0,-2486.0,-5165.0,69.0,18.0,4.0,1.0
2022-05-08 17:21:17.992781-07:00,878.9,1109.5,1289.1,994.5,733.2,481.4,1724.4,1122.6,3488.0,3480.7,717.5,936.4,416.8,3495.3,977.3,882.3,3475.9,3484.4,369.3,581.8,414.5,514.7,279.8,279.8,3479.5,3486.8,778.6,486.9,883.1,1201.8,1484.7,585.9,3.0,5.0,-23.0,11511.0,9526.0,6043.0,2941.0,41.0,-27.0,13.0,-2.0,1.0,-8.0,11796.0,9819.0,-2493.0,-5163.0,25.0,-10.0,-6.0,1.0
2022-05-08 17:21:18.054044-07:00,878.9,1109.5,1289.1,994.5,734.0,471.1,1716.7,1117.4,3488.0,3480.7,717.5,936.4,415.3,3492.9,973.9,875.5,3478.3,3483.2,371.6,590.7,414.5,514.7,279.8,279.8,3481.9,3483.2,781.9,488.5,883.1,1201.8,1484.7,585.9,5.0,9.0,-3.0,11505.0,9545.0,6035.0,2924.0,29.0,-41.0,-8.0,0.0,1.0,4.0,11789.0,9823.0,-2501.0,-5169.0,3.0,-25.0,-13.0,1.0
2022-05-08 17:21:18.055189-07:00,873.0,1118.2,1277.4,1000.5,734.0,471.1,1716.7,1116.5,3475.9,3479.5,718.4,935.6,415.3,3492.9,973.9,883.1,3473.4,3483.2,371.6,590.7,416.1,514.7,274.4,277.5,3481.9,3483.2,781.9,488.5,879.7,1203.5,1474.6,581.8,-1.0,-16.0,1.0,11501.0,9552.0,6037.0,2913.0,52.0,-8.0,-7.0,0.0,-10.0,9.0,11783.0,9826.0,-2506.0,-5174.0,39.0,-7.0,-2.0,1.0
2022-05-08 17:21:18.142921-07:00,873.8,1118.2,1277.4,1000.5,733.2,477.4,1711.0,1116.5,3471.0,3479.5,718.4,935.6,419.2,3497.8,964.5,883.1,3473.4,3467.4,365.4,581.8,416.1,514.7,274.4,278.3,3481.9,3477.1,771.1,488.5,879.7,1203.5,1474.6,581.0,-2.0,-5.0,1.0,11496.0,9565.0,6033.0,2900.0,17.0,-28.0,-12.0,0.0,-2.0,10.0,11780.0,9828.0,-2509.0,-5175.0,4.0,-6.0,-7.0,1.0
2022-05-08 17:21:18.203402-07:00,873.8,1104.3,1284.6,1000.5,733.2,477.4,1711.0,1113.0,3471.0,3473.4,725.8,938.1,419.2,3497.8,964.5,876.4,3481.9,3467.4,365.4,581.8,416.8,515.5,281.3,278.3,3479.5,3477.1,771.1,488.5,871.3,1203.5,1471.8,581.0,2.0,3.0,0.0,11487.0,9579.0,6032.0,2889.0,42.0,6.0,5.0,0.0,2.0,3.0,11776.0,9833.0,-2511.0,-5174.0,21.0,9.0,-1.0,1.0
2022-05-08 17:21:18.205325-07:00,872.1,1104.3,1284.6,1000.5,728.2,476.6,1709.1,1113.0,3472.2,3473.4,725.8,938.1,420.0,3490.5,966.2,876.4,3481.9,3474.6,370.0,589.1,416.8,515.5,281.3,278.3,3479.5,3488.0,768.7,464.0,871.3,1203.5,1471.8,580.2,3.0,-2.0,-8.0,11480.0,9584.0,6038.0,2889.0,10.0,20.0,-2.0,-1.0,1.0,1.0,11774.0,9837.0,-2509.0,-5171.0,7.0,6.0,0.0,1.0
2022-05-08 17:21:18.353070-07:00,872.1,1106.0,1281.9,994.5,728.2,476.6,1709.1,1113.9,3472.2,3472.2,719.2,939.0,420.0,3490.5,966.2,877.2,3477.1,3474.6,370.0,589.1,412.1,517.1,286.7,278.3,3478.3,3488.0,768.7,464.0,880.6,1204.4,1472.7,580.2,1.0,-8.0,-20.0,11473.0,9593.0,6039.0,2884.0,48.0,-27.0,0.0,-5.0,1.0,-11.0,11774.0,9839.0,-2508.0,-5170.0,8.0,0.0,2.0,1.0
2022-05-08 17:21:18.412955-07:00,869.6,1106.0,1281.9,994.5,731.5,477.4,1708.1,1113.9,3471.0,3472.2,719.2,939.0,410.6,3507.5,969.6,877.2,3477.1,3484.4,370.8,585.9,412.1,517.1,286.7,276.0,3478.3,3481.9,775.3,487.7,880.6,1204.4,1472.7,585.1,0.0,-10.0,-8.0,11475.0,9598.0,6031.0,2875.0,-17.0,-32.0,7.0,-4.0,-1.0,-4.0,11777.0,9832.0,-2510.0,-5174.0,-18.0,-21.0,5.0,1.0
2022-05-08 17:21:18.443572-07:00,869.6,1103.4,1276.5,991.0,731.5,477.4,1694.8,1119.1,3471.0,3477.1,722.5,942.4,410.6,3507.5,965.4,873.0,3483.2,3469.8,370.8,585.9,418.4,517.1,279.8,276.0,3477.1,3483.2,775.3,487.7,900.0,1199.1,1462.6,585.1,-3.0,-5.0,-6.0,11483.0,9596.0,6021.0,2870.0,-38.0,-42.0,-7.0,0.0,-10.0,4.0,11781.0,9822.0,-2514.0,-5182.0,-34.0,-25.0,4.0,1.0
2022-05-08 17:21:18.444661-07:00,872.1,1093.8,1276.5,991.0,735.6,474.3,1694.8,1119.1,3474.6,3469.8,722.5,942.4,417.6,3507.5,965.4,873.0,3483.2,3469.8,370.0,585.9,418.4,517.1,276.7,279.8,3477.1,3483.2,769.5,487.7,900.0,1199.1,1459.8,580.2,1.0,-3.0,-6.0,11493.0,9601.0,6003.0,2855.0,-2.0,-60.0,2.0,-3.0,0.0,1.0,11786.0,9812.0,-2516.0,-5188.0,-30.0,-17.0,9.0,1.0
2022-05-08 17:21:18.445735-07:00,872.1,1093.8,1284.6,993.6,735.6,474.3,1693.8,1106.0,3474.6,3469.8,718.4,941.5,417.6,3507.5,965.4,880.6,3473.4,3477.1,370.0,585.9,416.1,518.7,276.7,279.8,3488.0,3479.5,769.5,487.7,877.2,1196.5,1459.8,580.2,1.0,-7.0,-2.0,11509.0,9594.0,5985.0,2848.0,-49.0,-56.0,1.0,0.0,-4.0,7.0,11796.0,9794.0,-2520.0,-5199.0,-67.0,-45.0,0.0,1.0
2022-05-08 17:21:18.623092-07:00,873.0,1105.1,1284.6,993.6,730.7,475.0,1693.8,1106.0,3479.5,3483.2,718.4,941.5,414.5,3496.6,965.4,880.6,3473.4,3477.1,369.3,583.5,416.1,518.7,273.7,274.4,3488.0,3479.5,771.1,485.3,877.2,1196.5,1458.0,579.4,0.0,4.0,-8.0,11531.0,9590.0,5956.0,2834.0,-30.0,-102.0,3.0,0.0,-1.0,3.0,11810.0,9768.0,-2523.0,-5214.0,-59.0,-34.0,1.0,1.0
2022-05-08 17:21:18.683031-07:00,873.0,1105.1,1298.1,995.3,730.7,475.0,1694.8,1112.1,3479.5,3483.2,720.0,939.0,414.5,3496.6,964.5,878.9,3478.3,3479.5,369.3,583.5,411.4,517.9,273.7,274.4,3478.3,3483.2,771.1,485.3,871.3,1203.5,1458.0,579.4,12.0,-3.0,0.0,11550.0,9591.0,5927.0,2815.0,-21.0,-46.0,-2.0,0.0,-1.0,-4.0,11820.0,9747.0,-2527.0,-5228.0,-40.0,-52.0,-14.0,1.0
2022-05-08 17:21:18.684352-07:00,866.3,1099.9,1298.1,995.3,729.0,473.5,1694.8,1112.1,3473.4,3473.4,720.0,939.0,420.8,3494.1,964.5,878.9,3478.3,3479.5,373.2,583.5,411.4,517.9,274.4,271.4,3478.3,3483.2,771.1,484.5,871.3,1203.5,1474.6,573.0,0.0,-6.0,8.0,11566.0,9583.0,5912.0,2811.0,-16.0,-32.0,3.0,-2.0,-2.0,5.0,11828.0,9727.0,-2533.0,-5244.0,-37.0,-29.0,-2.0,1.0
2022-05-08 17:21:18.685210-07:00,866.3,1099.9,1281.0,996.2,729.0,473.5,1695.7,1104.3,3473.4,3473.4,719.2,934.7,420.8,3497.8,959.4,867.9,3477.1,3480.7,370.0,583.5,411.4,517.9,274.4,271.4,3469.8,3477.1,759.6,484.5,869.6,1192.0,1474.6,573.0,0.0,-1.0,3.0,11568.0,9586.0,5905.0,2803.0,-1.0,-23.0,1.0,0.0,0.0,5.0,11831.0,9719.0,-2538.0,-5250.0,-3.0,0.0,-2.0,1.0
2022-05-08 17:21:18.712744-07:00,868.8,1093.8,1281.0,996.2,725.8,473.5,1695.7,1104.3,3468.6,3471.0,718.4,934.7,416.1,3497.8,959.4,867.9,3477.1,3480.7,370.0,581.8,411.4,514.7,274.4,282.9,3469.8,3477.1,759.6,481.4,869.6,1192.0,1458.0,576.2,2.0,9.0,-1.0,11563.0,9592.0,5906.0,2800.0,23.0,19.0,-8.0,-3.0,3.0,0.0,11829.0,9722.0,-2538.0,-5249.0,23.0,13.0,-3.0,1.0
2022-05-08 17:21:18.742919-07:00,868.8,1093.8,1281.0,997.9,725.8,475.8,1670.1,1089.5,3468.6,3471.0,718.4,939.8,416.1,3496.6,956.8,873.8,3480.7,3479.5,366.9,581.8,414.5,514.7,274.4,282.9,3481.9,3478.3,758.7,481.4,867.1,1192.0,1458.0,576.2,-3.0,-10.0,-8.0,11555.0,9593.0,5919.0,2802.0,33.0,14.0,1.0,-1.0,0.0,-1.0,11824.0,9729.0,-2539.0,-5246.0,24.0,5.0,-2.0,1.0
2022-05-08 17:21:18.893512-07:00,873.0,1087.7,1281.9,997.9,734.0,475.8,1670.1,1089.5,3462.5,3478.3,719.2,939.8,413.7,3496.6,956.8,873.8,3480.7,3479.5,366.9,584.3,414.5,518.7,274.4,274.4,3481.9,3478.3,758.7,485.3,867.1,1194.7,1447.0,576.2,4.0,2.0,-10.0,11551.0,9600.0,5918.0,2798.0,-7.0,-10.0,4.0,-5.0,-1.0,-6.0,11821.0,9735.0,-2539.0,-5243.0,-7.0,-6.0,0.0,1.0
2022-05-08 17:21:18.923846-07:00,873.0,1087.7,1281.9,992.7,734.0,471.9,1648.3,1094.7,3462.5,3478.3,719.2,939.0,413.7,3497.8,960.2,871.3,3477.1,3478.3,368.5,584.3,417.6,518.7,274.4,274.4,3483.2,3472.2,754.6,485.3,869.6,1194.7,1447.0,576.2,-4.0,-9.0,0.0,11552.0,9600.0,5917.0,2797.0,15.0,-3.0,-4.0,0.0,-7.0,10.0,11821.0,9734.0,-2539.0,-5244.0,0.0,-3.0,-3.0,1.0
2022-05-08 17:21:18.953891-07:00,872.1,1084.2,1276.5,992.7,727.4,471.9,1648.3,1094.7,3480.7,3467.4,716.7,939.0,417.6,3497.8,960.2,871.3,3477.1,3478.3,368.5,585.1,417.6,516.3,275.2,268.3,3483.2,3472.2,754.6,486.1,869.6,1196.5,1449.7,575.4,7.0,2.0,-4.0,11550.0,9606.0,5912.0,2791.0,-1.0,-22.0,4.0,0.0,4.0,-4.0,11820.0,9736.0,-2540.0,-5244.0,6.0,3.0,6.0,1.0
2022-05-08 17:21:18.954845-07:00,872.1,1084.2,1276.5,997.9,725.8,473.5,1644.5,1085.1,3480.7,3467.4,716.7,940.7,417.6,3492.9,969.6,872.1,3475.9,3478.3,366.9,583.5,412.1,516.3,275.2,268.3,3474.6,3474.6,758.7,483.0,866.3,1196.5,1449.7,575.4,6.0,-3.0,1.0,11552.0,9606.0,5911.0,2787.0,7.0,15.0,-13.0,-1.0,0.0,1.0,11820.0,9736.0,-2540.0,-5244.0,0.0,0.0,-4.0,1.0
2022-05-08 17:21:19.012989-07:00,879.7,1092.1,1281.9,993.6,725.8,473.5,1644.5,1085.1,3473.4,3473.4,712.6,936.4,417.6,3492.9,969.6,872.1,3475.9,3478.3,366.9,583.5,407.5,515.5,274.4,274.4,3474.6,3474.6,758.7,483.0,857.9,1189.4,1457.1,577.0,-3.0,-4.0,-5.0,11547.0,9609.0,5916.0,2788.0,28.0,-2.0,4.0,-5.0,-1.0,3.0,11818.0,9738.0,-2540.0,-5242.0,16.0,11.0,7.0,1.0
2022-05-08 17:21:19.043504-07:00,879.7,1092.1,1281.9,993.6,726.6,478.2,1640.7,1089.5,3473.4,3473.4,712.6,936.4,413.7,3496.6,955.1,870.5,3483.2,3481.9,369.3,587.5,407.5,515.5,274.4,274.4,3483.2,3481.9,756.3,485.3,857.9,1189.4,1457.1,577.0,-1.0,-5.0,-7.0,11543.0,9612.0,5920.0,2782.0,21.0,-9.0,-9.0,-1.0,0.0,1.0,11817.0,9743.0,-2537.0,-5238.0,11.0,13.0,-4.0,1.0
2022-05-08 17:21:19.193035-07:00,868.8,1089.5,1273.9,993.6,726.6,478.2,1640.7,1089.5,3475.9,3472.2,709.3,937.3,413.7,3496.6,955.1,870.5,3483.2,3481.9,369.3,587.5,414.5,518.7,274.4,270.6,3483.2,3481.9,756.3,485.3,862.1,1196.5,1456.2,580.2,-3.0,-6.0,-1.0,11540.0,9616.0,5920.0,2785.0,15.0,8.0,17.0,-4.0,1.0,4.0,11815.0,9746.0,-2538.0,-5236.0,-3.0,-3.0,10.0,1.0
2022-05-08 17:21:19.194211-07:00,868.8,1089.5,1273.9,993.6,738.9,470.3,1643.5,1085.1,3475.9,3472.2,709.3,937.3,416.1,3496.6,951.7,872.1,3475.9,3483.2,367.7,584.3,414.5,518.7,274.4,270.6,3478.3,3475.9,748.8,481.4,862.1,1196.5,1456.2,580.2,1.0,0.0,-6.0,11532.0,9625.0,5923.0,2783.0,36.0,5.0,-8.0,0.0,-1.0,4.0,11811.0,9751.0,-2540.0,-5235.0,20.0,9.0,2.0,1.0
2022-05-08 17:21:19.195036-07:00,870.5,1086.8,1278.3,994.5,738.9,470.3,1643.5,1085.1,3478.3,3471.0,711.8,939.8,416.1,3496.6,951.7,872.1,3475.9,3483.2,367.7,584.3,417.6,515.5,271.4,281.3,3478.3,3475.9,748.8,481.4,864.6,1170.9,1442.4,575.4,0.0,4.0,-19.0,11523.0,9636.0,5924.0,2776.0,15.0,5.0,0.0,-2.0,3.0,0.0,11805.0,9760.0,-2539.0,-5230.0,17.0,13.0,6.0,1.0
2022-05-08 17:21:19.253854-07:00,860.4,1086.8,1278.3,994.5,724.9,474.3,1632.2,1075.6,3466.1,3471.0,711.8,939.8,415.3,3502.7,952.6,868.8,3485.6,3477.1,367.7,581.0,417.6,515.5,271.4,270.6,3474.6,3485.6,748.0,482.2,864.6,1170.9,1442.4,573.0,0.0,-7.0,-13.0,11518.0,9640.0,5929.0,2775.0,23.0,14.0,-12.0,0.0,0.0,-8.0,11802.0,9764.0,-2541.0,-5229.0,17.0,5.0,2.0,1.0
2022-05-08 17:21:19.313719-07:00,860.4,1087.7,1279.2,991.0,724.9,474.3,1632.2,1083.4,3466.1,3473.4,711.8,937.3,415.3,3502.7,952.6,863.7,3477.1,3477.1,367.7,581.0,411.4,516.3,269.9,270.6,3480.7,3485.6,748.0,482.2,865.4,1192.9,1447.9,573.0,7.0,20.0,-34.0,11510.0,9651.0,5929.0,2768.0,0.0,-20.0,-5.0,3.0,13.0,-17.0,11797.0,9769.0,-2544.0,-5229.0,-1.0,-16.0,-2.0,1.0
2022-05-08 17:21:19.373798-07:00,870.5,1087.7,1279.2,991.0,724.1,474.3,1648.3,1083.4,3483.2,3473.4,711.8,937.3,412.1,3492.9,951.7,863.7,3477.1,3480.7,367.7,581.8,411.4,516.3,269.9,269.9,3480.7,3479.5,747.2,482.2,865.4,1192.9,1447.9,571.4,7.0,9.0,-73.0,11531.0,9638.0,5917.0,2749.0,-46.0,-91.0,-54.0,-1.0,7.0,-42.0,11792.0,9762.0,-2554.0,-5250.0,-54.0,-92.0,-38.0,1.0
2022-05-08 17:21:19.463065-07:00,870.5,1088.6,1278.3,997.9,724.1,474.3,1648.3,1076.4,3483.2,3473.4,712.6,929.6,412.1,3492.9,951.7,869.6,3484.4,3480.7,367.7,581.8,415.3,518.7,268.3,269.9,3478.3,3479.5,747.2,482.2,857.0,1188.5,1450.6,571.4,-16.0,4.0,-145.0,11573.0,9626.0,5887.0,2684.0,-107.0,-244.0,-124.0,-33.0,41.0,-78.0,11791.0,9712.0,-2583.0,-5332.0,-157.0,-299.0,-113.0,1.0
2022-05-08 17:21:19.464898-07:00,868.8,1088.6,1278.3,997.9,722.5,477.4,1635.0,1076.4,3478.3,3473.4,712.6,929.6,418.4,3501.4,953.4,869.6,3484.4,3480.7,373.2,581.8,415.3,518.7,268.3,273.7,3478.3,3477.1,752.9,473.5,857.0,1188.5,1450.6,584.3,-33.0,-26.0,-126.0,11725.0,9537.0,5768.0,2596.0,-440.0,-507.0,-79.0,-32.0,16.0,-76.0,11798.0,9581.0,-2656.0,-5512.0,-434.0,-598.0,-115.0,1.0
2022-05-08 17:21:19.492885-07:00,868.8,1079.9,1281.0,1003.9,722.5,477.4,1668.2,1090.3,3478.3,3475.9,714.2,939.0,418.4,3501.4,952.6,873.0,3478.3,3483.2,373.2,581.8,405.9,514.7,273.7,273.7,3471.0,3479.5,752.9,473.5,862.1,1187.6,1447.0,584.3,-6.0,-22.0,42.0,11935.0,9435.0,5538.0,2512.0,-422.0,-612.0,33.0,-35.0,-11.0,-27.0,11850.0,9346.0,-2764.0,-5746.0,-424.0,-670.0,-118.0,1.0
2022-05-08 17:21:19.613842-07:00,873.0,1095.6,1281.0,1003.9,726.6,476.6,1668.2,1090.3,3488.0,3475.9,714.2,939.0,415.3,3503.9,952.6,873.0,3478.3,3483.2,369.3,583.5,405.9,514.7,272.9,276.7,3471.0,3479.5,773.6,483.7,862.1,1187.6,1432.3,584.3,-22.0,-22.0,44.0,12036.0,9378.0,5433.0,2471.0,-156.0,-90.0,-26.0,-26.0,-23.0,29.0,11841.0,9178.0,-2893.0,-5968.0,-137.0,-625.0,-164.0,1.0
2022-05-08 17:21:19.673210-07:00,873.0,1095.6,1297.2,1001.3,726.6,476.6,1716.7,1058.2,3488.0,3475.9,714.2,938.1,415.3,3503.9,956.0,869.6,3479.5,3473.4,369.3,583.5,412.9,514.7,272.9,276.7,3473.4,3474.6,773.6,483.7,861.2,1182.3,1432.3,584.3,-8.0,-38.0,-23.0,12064.0,9328.0,5438.0,2509.0,-229.0,112.0,60.0,11.0,-4.0,13.0,11790.0,9061.0,-3026.0,-6179.0,-115.0,-628.0,-167.0,1.0
2022-05-08 17:21:19.674414-07:00,879.7,1103.4,1297.2,1001.3,725.8,480.6,1716.7,1058.2,3468.6,3488.0,714.2,938.1,413.7,3491.7,956.0,869.6,3479.5,3473.4,366.9,578.6,412.9,514.7,274.4,271.4,3473.4,3474.6,787.7,475.8,861.2,1182.3,1438.7,568.2,67.0,38.0,34.0,12113.0,9257.0,5407.0,2609.0,-232.0,114.0,139.0,23.0,-20.0,-19.0,11745.0,8921.0,-3183.0,-6386.0,-75.0,-676.0,-119.0,1.0
2022-05-08 17:21:19.703356-07:00,879.7,1103.4,1286.4,1006.5,725.8,480.6,1788.7,1047.8,3468.6,3488.0,711.8,935.6,413.7,3491.7,1000.5,868.8,3478.3,3477.1,366.9,578.6,412.1,508.3,274.4,271.4,3467.4,3481.9,787.7,475.8,857.9,1185.9,1438.7,568.2,62.0,-2.0,146.0,12164.0,9002.0,5605.0,2832.0,-828.0,1115.0,-300.0,0.0,19.0,12.0,11677.0,8764.0,-3324.0,-6651.0,-333.0,-802.0,-309.0,1.0
2022-05-08 17:21:19.763022-07:00,883.1,1095.6,1286.4,1006.5,720.0,486.1,1788.7,1047.8,3460.1,3475.9,711.8,935.6,419.2,3495.3,1000.5,868.8,3478.3,3477.1,369.3,581.8,412.1,508.3,276.0,275.2,3467.4,3481.9,799.4,479.8,857.9,1185.9,1494.9,570.6,-56.0,-2.0,17.0,12088.0,8667.0,6098.0,3163.0,-690.0,1451.0,-197.0,19.0,20.0,79.0,11603.0,8665.0,-3407.0,-6864.0,-63.0,-552.0,-350.0,1.0
2022-05-08 17:21:19.792929-07:00,883.1,1095.6,1276.5,993.6,720.0,486.1,1754.1,1323.2,3460.1,3475.9,738.9,943.2,419.2,3506.3,1214.2,873.0,3477.1,3481.9,380.2,581.8,415.3,517.1,276.0,275.2,3475.9,3480.7,782.7,479.8,855.3,1199.1,1494.9,570.6,-47.0,-21.0,62.0,11984.0,8409.0,6462.0,3516.0,-5.0,1056.0,-27.0,52.0,-54.0,87.0,11503.0,8594.0,-3495.0,-7074.0,312.0,-232.0,-179.0,1.0
2022-05-08 17:21:19.912850-07:00,888.2,1061.7,1280.1,993.6,722.5,486.1,1754.1,1323.2,3474.6,3471.0,798.5,943.2,417.6,3506.3,1214.2,873.0,3477.1,3481.9,380.2,587.5,415.3,513.1,272.1,269.9,3475.9,3480.7,782.7,482.2,855.3,1251.5,1760.8,577.0,9.0,-10.0,-41.0,11877.0,8344.0,6662.0,3656.0,-234.0,419.0,-11.0,7.0,-29.0,32.0,11367.0,8690.0,-3570.0,-7139.0,183.0,-179.0,-175.0,1.0
2022-05-08 17:21:19.943634-07:00,888.2,1061.7,1280.1,991.0,722.5,489.3,1764.6,1707.2,3474.6,3471.0,798.5,943.2,417.6,3499.0,1270.3,906.7,3477.1,3474.6,380.9,587.5,412.1,513.1,272.1,269.9,3477.1,3475.9,785.2,482.2,888.2,1251.5,1760.8,577.0,11.0,-48.0,21.0,11832.0,8335.0,6750.0,3663.0,442.0,84.0,-123.0,45.0,-12.0,18.0,11248.0,8764.0,-3632.0,-7205.0,474.0,-56.0,-191.0,1.0
2022-05-08 17:21:19.945127-07:00,883.9,1047.0,1275.6,991.0,727.4,489.3,1764.6,1707.2,3474.6,3480.7,852.0,943.2,416.1,3499.0,1270.3,906.7,3477.1,3474.6,380.9,589.1,412.1,513.9,277.5,271.4,3477.1,3475.9,785.2,484.5,888.2,1279.2,1864.5,614.9,13.0,57.0,16.0,11754.0,8445.0,6825.0,3520.0,405.0,-49.0,-229.0,27.0,76.0,14.0,11130.0,8872.0,-3675.0,-7235.0,173.0,-64.0,-157.0,1.0
2022-05-08 17:21:20.003086-07:00,883.9,1047.0,1275.6,994.5,727.4,486.1,1739.7,1689.1,3474.6,3480.7,852.0,950.9,416.1,3496.6,1248.8,944.9,3488.0,3472.2,382.5,589.1,412.1,513.9,277.5,271.4,3483.2,3480.7,776.9,484.5,1031.4,1279.2,1864.5,614.9,-38.0,48.0,16.0,11669.0,8557.0,6890.0,3402.0,478.0,-18.0,-33.0,3.0,71.0,45.0,11036.0,8946.0,-3680.0,-7284.0,284.0,31.0,-289.0,1.0
2022-05-08 17:21:20.063063-07:00,886.5,1039.2,1276.5,994.5,720.8,486.1,1739.7,1689.1,3481.9,3466.1,842.8,950.9,420.8,3496.6,1248.8,944.9,3488.0,3472.2,382.5,581.8,412.1,508.3,276.0,272.9,3483.2,3480.7,776.9,490.1,1031.4,1295.4,1809.0,619.7,-21.0,148.0,-9.0,11585.0,8734.0,6869.0,3281.0,490.0,-316.0,17.0,-15.0,68.0,4.0,10916.0,9065.0,-3629.0,-7345.0,197.0,34.0,-449.0,1.0
2022-05-08 17:21:20.092897-07:00,886.5,1039.2,1276.5,995.3,720.0,483.0,1719.6,1632.2,3481.9,3466.1,842.8,944.9,413.7,3496.6,1228.4,949.2,3477.1,3474.6,386.4,587.5,411.4,508.3,276.0,272.9,3483.2,3473.4,772.8,492.5,980.7,1295.4,1809.0,619.7,-2.0,126.0,21.0,11560.0,8773.0,6936.0,3120.0,68.0,99.0,-425.0,23.0,101.0,15.0,10799.0,9120.0,-3519.0,-7500.0,-64.0,-56.0,-647.0,1.0
2022-05-08 17:21:20.183548-07:00,889.0,1034.9,1279.2,996.2,720.0,483.0,1719.6,1632.2,3475.9,3471.0,835.2,945.8,413.7,3496.6,1228.4,949.2,3477.1,3474.6,386.4,587.5,414.5,509.9,275.2,275.2,3483.2,3473.4,772.8,492.5,965.4,1296.3,1784.9,618.1,-22.0,68.0,11.0,11533.0,8761.0,7032.0,3035.0,222.0,14.0,-99.0,27.0,68.0,7.0,10641.0,9202.0,-3350.0,-7701.0,152.0,47.0,-819.0,1.0
2022-05-08 17:21:20.213040-07:00,889.0,1034.9,1279.2,996.2,726.6,479.8,1721.5,1596.4,3475.9,3471.0,835.2,945.8,420.0,3502.7,1214.2,951.7,3477.1,3479.5,378.6,590.7,414.5,509.9,275.2,275.2,3483.2,3472.2,760.4,491.7,965.4,1296.3,1784.9,618.1,38.0,12.0,17.0,11485.0,8777.0,7114.0,2980.0,122.0,158.0,-230.0,48.0,-3.0,-1.0,10451.0,9320.0,-3157.0,-7899.0,53.0,114.0,-773.0,1.0
2022-05-08 17:21:20.242950-07:00,889.0,1032.3,1288.2,995.3,726.6,479.8,1721.5,1596.4,3473.4,3472.2,821.9,952.6,420.0,3502.7,1214.2,951.7,3477.1,3479.5,378.6,590.7,417.6,512.3,274.4,273.7,3483.2,3472.2,760.4,491.7,956.8,1286.4,1761.8,609.2,26.0,-96.0,6.0,11433.0,8799.0,7199.0,2910.0,300.0,13.0,-108.0,52.0,-68.0,3.0,10278.0,9433.0,-2963.0,-8065.0,209.0,123.0,-711.0,1.0
2022-05-08 17:21:20.303086-07:00,889.0,1032.3,1288.2,995.3,748.8,489.3,1700.5,1558.1,3473.4,3472.2,821.9,952.6,417.6,3492.9,1202.7,950.0,3483.2,3475.9,380.9,593.1,417.6,512.3,274.4,273.7,3483.2,3477.1,762.0,479.8,956.8,1286.4,1761.8,609.2,58.0,-63.0,-15.0,11356.0,8862.0,7269.0,2846.0,181.0,176.0,-113.0,27.0,-51.0,-12.0,10099.0,9551.0,-2833.0,-8198.0,146.0,50.0,-554.0,1.0
2022-05-08 17:21:20.363165-07:00,880.6,1023.7,1283.7,997.9,748.8,489.3,1700.5,1558.1,3472.2,3471.0,816.0,953.4,417.6,3492.9,1202.7,950.0,3483.2,3475.9,380.9,593.1,417.6,518.7,273.7,276.0,3483.2,3477.1,762.0,479.8,944.9,1278.3,1757.9,606.0,6.0,-123.0,-29.0,11342.0,8863.0,7296.0,2831.0,60.0,-61.0,32.0,16.0,-84.0,-7.0,9985.0,9614.0,-2724.0,-8300.0,101.0,16.0,-386.0,1.0
2022-05-08 17:21:20.392951-07:00,884.8,1023.7,1283.7,997.9,736.5,479.0,1689.1,1540.3,3475.9,3471.0,816.0,953.4,415.3,3481.9,1200.0,942.4,3481.9,3488.0,380.9,595.5,417.6,518.7,273.7,275.2,3472.2,3474.6,731.5,476.6,944.9,1278.3,1757.9,602.8,40.0,-95.0,-23.0,11321.0,8918.0,7266.0,2819.0,116.0,-14.0,69.0,5.0,-103.0,-35.0,9883.0,9674.0,-2681.0,-8366.0,138.0,-1.0,-225.0,1.0
2022-05-08 17:21:20.453104-07:00,884.8,1010.8,1293.6,993.6,736.5,479.0,1689.1,1526.4,3475.9,3471.0,814.4,944.9,415.3,3481.9,1200.0,950.9,3485.6,3488.0,380.9,595.5,412.9,511.5,268.3,275.2,3483.2,3474.6,731.5,476.6,943.2,1285.5,1780.1,602.8,-12.0,-58.0,-28.0,11301.0,8940.0,7277.0,2801.0,-2.0,-79.0,-72.0,6.0,-54.0,11.0,9839.0,9690.0,-2663.0,-8405.0,-20.0,-38.0,-78.0,1.0
2022-05-08 17:21:20.513057-07:00,883.9,1010.8,1293.6,993.6,738.9,477.4,1667.2,1526.4,3473.4,3471.0,814.4,944.9,418.4,3499.0,1194.7,950.9,3485.6,3472.2,381.7,592.3,412.9,511.5,268.3,277.5,3483.2,3478.3,765.3,480.6,943.2,1285.5,1780.1,599.6,10.0,-81.0,7.0,11337.0,8916.0,7264.0,2765.0,-26.0,-54.0,-10.0,19.0,-45.0,0.0,9847.0,9662.0,-2662.0,-8428.0,-26.0,-54.0,20.0,1.0
2022-05-08 17:21:20.543056-07:00,883.9,1011.6,1284.6,994.5,738.9,477.4,1667.2,1512.5,3473.4,3472.2,809.4,948.3,418.4,3499.0,1194.7,954.3,3483.2,3472.2,381.7,592.3,417.6,513.1,271.4,277.5,3481.9,3478.3,765.3,480.6,933.9,1277.4,1751.2,599.6,-15.0,-25.0,9.0,11338.0,8931.0,7244.0,2765.0,33.0,-81.0,75.0,13.0,-10.0,24.0,9853.0,9654.0,-2691.0,-8421.0,39.0,-11.0,81.0,1.0
2022-05-08 17:21:20.603053-07:00,881.4,1011.6,1284.6,994.5,733.2,478.2,1670.1,1512.5,3479.5,3472.2,809.4,948.3,416.1,3502.7,1183.2,954.3,3483.2,3467.4,376.3,593.9,417.6,513.1,271.4,268.3,3481.9,3485.6,753.8,475.0,933.9,1277.4,1751.2,597.9,15.0,19.0,15.0,11348.0,8947.0,7210.0,2763.0,-9.0,-7.0,22.0,9.0,23.0,0.0,9873.0,9646.0,-2720.0,-8397.0,8.0,-18.0,89.0,1.0
2022-05-08 17:21:20.662960-07:00,881.4,1005.6,1296.3,993.6,733.2,478.2,1670.1,1500.4,3479.5,3469.8,806.9,953.4,416.1,3502.7,1183.2,945.8,3484.4,3467.4,376.3,593.9,412.1,514.7,275.2,268.3,3484.4,3485.6,753.8,475.0,923.7,1278.3,1737.8,597.9,-18.0,26.0,10.0,11342.0,8947.0,7211.0,2785.0,5.0,39.0,27.0,6.0,17.0,33.0,9883.0,9643.0,-2741.0,-8383.0,14.0,17.0,42.0,1.0
2022-05-08 17:21:20.692871-07:00,882.3,1010.8,1296.3,993.6,731.5,472.7,1655.8,1500.4,3473.4,3473.4,806.9,953.4,416.8,3491.7,1183.2,945.8,3484.4,3469.8,380.9,588.3,412.1,514.7,274.4,269.1,3484.4,3488.0,758.7,486.9,923.7,1278.3,1739.7,588.3,-2.0,33.0,-2.0,11333.0,8956.0,7215.0,2779.0,57.0,-37.0,-43.0,4.0,21.0,12.0,9893.0,9646.0,-2736.0,-8370.0,-8.0,37.0,-6.0,1.0
2022-05-08 17:21:20.783741-07:00,882.3,1010.8,1296.3,993.6,731.5,472.7,1650.2,1481.9,3473.4,3473.4,812.7,947.5,416.8,3491.7,1177.9,937.3,3483.2,3474.6,380.9,588.3,413.7,517.1,274.4,269.1,3477.1,3477.1,758.7,486.9,924.5,1280.1,1739.7,588.3,10.0,-2.0,5.0,11334.0,8947.0,7231.0,2762.0,-35.0,99.0,-100.0,7.0,0.0,-3.0,9898.0,9640.0,-2720.0,-8374.0,-57.0,12.0,-18.0,1.0
2022-05-08 17:21:20.785036-07:00,885.6,1009.9,1296.3,993.6,724.9,476.6,1650.2,1481.9,3474.6,3474.6,812.7,947.5,416.8,3501.4,1177.9,937.3,3483.2,3474.6,380.2,585.1,413.7,517.1,270.6,272.1,3477.1,3477.1,755.4,475.8,924.5,1280.1,1741.6,590.7,-2.0,-33.0,-8.0,11329.0,8925.0,7268.0,2761.0,41.0,6.0,6.0,14.0,-13.0,7.0,9910.0,9641.0,-2702.0,-8366.0,-8.0,56.0,7.0,1.0
2022-05-08 17:21:20.843099-07:00,885.6,1009.9,1290.0,983.3,724.9,476.6,1638.8,1476.4,3474.6,3474.6,807.7,951.7,416.8,3501.4,1177.9,944.1,3475.9,3473.4,380.2,585.1,416.8,518.7,270.6,272.1,3479.5,3477.1,755.4,475.8,920.3,1268.5,1741.6,590.7,16.0,-14.0,-5.0,11321.0,8935.0,7268.0,2762.0,-32.0,39.0,-10.0,12.0,-19.0,-8.0,9919.0,9643.0,-2701.0,-8353.0,-21.0,5.0,41.0,1.0
2022-05-08 17:21:20.903203-07:00,878.0,1005.6,1290.0,983.3,726.6,474.3,1638.8,1476.4,3468.6,3477.1,807.7,951.7,414.5,3497.8,1177.9,944.1,3475.9,3473.4,377.8,593.1,416.8,518.7,271.4,269.1,3479.5,3477.1,758.7,473.5,920.3,1268.5,1733.9,587.5,0.0,0.0,-8.0,11319.0,8921.0,7284.0,2770.0,17.0,25.0,-7.0,9.0,7.0,5.0,9932.0,9639.0,-2706.0,-8339.0,-2.0,16.0,40.0,1.0
2022-05-08 17:21:20.962877-07:00,878.0,1005.6,1283.7,990.2,726.6,474.3,1655.8,1480.1,3468.6,3477.1,799.4,947.5,414.5,3497.8,1179.7,941.5,3474.6,3479.5,377.8,593.1,416.1,509.9,271.4,269.1,3467.4,3477.1,758.7,473.5,924.5,1274.7,1733.9,587.5,6.0,18.0,-15.0,11309.0,8931.0,7288.0,2769.0,36.0,-1.0,4.0,2.0,11.0,-1.0,9937.0,9641.0,-2713.0,-8330.0,6.0,6.0,13.0,1.0
2022-05-08 17:21:20.993456-07:00,878.0,996.2,1281.0,990.2,727.4,473.5,1655.8,1480.1,3469.8,3479.5,800.2,947.5,416.8,3495.3,1179.7,941.5,3474.6,3479.5,380.2,593.9,416.1,512.3,269.9,273.7,3467.4,3477.1,752.1,475.8,924.5,1268.5,1722.4,587.5,8.0,-3.0,-6.0,11308.0,8937.0,7285.0,2761.0,6.0,-12.0,-8.0,2.0,0.0,-1.0,9939.0,9637.0,-2713.0,-8332.0,-8.0,-19.0,-1.0,1.0
2022-05-08 17:21:21.053138-07:00,878.0,996.2,1281.0,997.9,727.4,476.6,1634.1,1462.6,3469.8,3479.5,800.2,962.8,416.8,3503.9,1163.8,939.8,3464.9,3469.8,379.4,593.9,410.6,512.3,269.9,273.7,3475.9,3477.1,749.6,475.8,920.3,1268.5,1722.4,587.5,-6.0,2.0,-1.0,11305.0,8942.0,7287.0,2751.0,13.0,-38.0,-23.0,10.0,10.0,16.0,9942.0,9632.0,-2713.0,-8334.0,-26.0,4.0,1.0,1.0
2022-05-08 17:21:21.083065-07:00,891.5,1003.9,1283.7,997.9,725.8,476.6,1634.1,1462.6,3478.3,3469.8,797.7,962.8,418.4,3503.9,1163.8,939.8,3464.9,3469.8,379.4,588.3,410.6,516.3,266.8,268.3,3475.9,3477.1,749.6,475.0,920.3,1276.5,1726.3,597.1,4.0,-16.0,6.0,11313.0,8940.0,7281.0,2743.0,-9.0,18.0,13.0,12.0,-6.0,3.0,9947.0,9625.0,-2711.0,-8336.0,-15.0,-2.0,9.0,1.0
2022-05-08 17:21:21.173256-07:00,891.5,1003.9,1283.7,991.9,725.8,475.0,1617.1,1460.8,3478.3,3469.8,797.7,951.7,418.4,3497.8,1170.0,938.1,3488.0,3478.3,378.6,588.3,416.1,516.3,266.8,268.3,3480.7,3477.1,749.6,475.0,911.8,1276.5,1726.3,597.1,-4.0,-15.0,0.0,11312.0,8937.0,7283.0,2751.0,-14.0,-11.0,-3.0,10.0,-8.0,10.0,9953.0,9622.0,-2716.0,-8332.0,-9.0,6.0,21.0,1.0
2022-05-08 17:21:21.203236-07:00,882.3,995.3,1280.1,991.9,721.6,475.0,1617.1,1460.8,3478.3,3467.4,798.5,951.7,420.0,3497.8,1170.0,938.1,3488.0,3478.3,378.6,589.1,416.1,513.1,267.6,271.4,3480.7,3477.1,749.6,477.4,911.8,1267.6,1722.4,586.7,13.0,-10.0,-2.0,11315.0,8939.0,7275.0,2753.0,0.0,7.0,24.0,8.0,-6.0,-6.0,9960.0,9619.0,-2721.0,-8325.0,7.0,3.0,35.0,1.0
2022-05-08 17:21:21.232996-07:00,882.3,995.3,1280.1,1001.3,721.6,477.4,1613.4,1461.7,3478.3,3467.4,798.5,944.9,420.0,3499.0,1165.6,930.5,3481.9,3474.6,377.8,589.1,417.6,513.1,267.6,271.4,3474.6,3479.5,752.1,477.4,912.7,1267.6,1722.4,586.7,2.0,9.0,-10.0,11308.0,8950.0,7272.0,2757.0,14.0,2.0,29.0,5.0,8.0,4.0,9966.0,9618.0,-2733.0,-8315.0,5.0,-1.0,36.0,1.0
2022-05-08 17:21:21.323096-07:00,878.9,998.7,1273.9,989.3,717.5,477.4,1613.4,1461.7,3474.6,3473.4,791.0,949.2,416.8,3499.0,1165.6,930.5,3481.9,3474.6,377.8,593.9,416.1,510.7,269.9,267.6,3474.6,3479.5,752.1,472.7,911.0,1258.7,1733.0,588.3,10.0,-2.0,-3.0,11310.0,8953.0,7262.0,2761.0,-1.0,-31.0,9.0,4.0,-2.0,-6.0,9976.0,9613.0,-2740.0,-8306.0,-6.0,0.0,34.0,1.0
2022-05-08 17:21:21.382925-07:00,878.9,998.7,1273.9,989.3,719.2,475.0,1627.5,1449.7,3474.6,3473.4,791.0,949.2,415.3,3497.8,1163.8,937.3,3474.6,3478.3,376.3,588.3,416.1,510.7,269.9,267.6,3477.1,3477.1,749.6,478.2,911.0,1258.7,1733.0,588.3,2.0,13.0,-7.0,11309.0,8959.0,7259.0,2756.0,8.0,-6.0,-7.0,7.0,11.0,0.0,9982.0,9611.0,-2749.0,-8299.0,-4.0,-14.0,21.0,1.0
2022-05-08 17:21:21.384430-07:00,882.3,999.6,1277.4,992.7,719.2,475.0,1627.5,1449.7,3466.1,3466.1,792.7,950.9,415.3,3497.8,1163.8,937.3,3474.6,3478.3,376.3,588.3,412.9,508.3,272.1,271.4,3477.1,3477.1,749.6,478.2,904.2,1258.7,1718.6,585.9,5.0,-5.0,0.0,11316.0,8955.0,7256.0,2747.0,0.0,-37.0,-27.0,8.0,-1.0,0.0,9986.0,9607.0,-2755.0,-8296.0,-4.0,-7.0,14.0,1.0
2022-05-08 17:21:21.443053-07:00,882.3,999.6,1277.4,992.7,722.5,475.8,1615.2,1454.3,3466.1,3466.1,792.7,950.9,419.2,3490.5,1160.3,932.2,3486.8,3477.1,378.6,590.7,412.9,508.3,272.1,271.4,3488.0,3475.9,758.7,476.6,904.2,1258.7,1718.6,585.9,-1.0,-11.0,0.0,11321.0,8951.0,7258.0,2734.0,11.0,-4.0,-27.0,9.0,-4.0,9.0,9989.0,9604.0,-2761.0,-8294.0,4.0,2.0,17.0,1.0
2022-05-08 17:21:21.532943-07:00,878.0,995.3,1277.4,993.6,722.5,475.8,1615.2,1454.3,3474.6,3471.0,794.4,945.8,419.2,3490.5,1160.3,932.2,3486.8,3477.1,378.6,590.7,416.8,513.1,265.3,269.1,3488.0,3475.9,758.7,476.6,902.5,1259.6,1714.8,585.9,5.0,-7.0,-5.0,11320.0,8957.0,7258.0,2718.0,22.0,-33.0,-15.0,8.0,-4.0,1.0,9995.0,9601.0,-2767.0,-8289.0,-20.0,6.0,33.0,1.0
2022-05-08 17:21:21.534250-07:00,878.0,995.3,1277.4,993.6,720.0,467.1,1616.2,1442.4,3474.6,3471.0,794.4,945.8,414.5,3486.8,1163.0,937.3,3492.9,3477.1,373.2,588.3,416.8,513.1,265.3,269.1,3480.7,3488.0,743.9,476.6,902.5,1259.6,1714.8,585.9,2.0,-12.0,3.0,11324.0,8955.0,7258.0,2706.0,5.0,-3.0,-24.0,9.0,-7.0,2.0,10008.0,9593.0,-2773.0,-8280.0,-12.0,5.0,49.0,1.0
2022-05-08 17:21:21.623306-07:00,882.3,997.9,1287.3,989.3,720.0,467.1,1616.2,1454.3,3478.3,3477.1,798.5,955.1,414.5,3486.8,1163.0,935.6,3478.3,3477.1,373.2,588.3,413.7,509.9,272.9,270.6,3483.2,3488.0,743.9,476.6,903.4,1260.4,1717.7,585.9,-4.0,-10.0,-6.0,11330.0,8946.0,7262.0,2701.0,-44.0,-17.0,-28.0,2.0,0.0,8.0,10031.0,9577.0,-2777.0,-8270.0,-68.0,9.0,55.0,1.0
2022-05-08 17:21:21.683128-07:00,885.6,997.9,1287.3,989.3,724.1,479.0,1609.6,1454.3,3475.9,3477.1,798.5,955.1,420.8,3496.6,1160.3,935.6,3478.3,3471.0,380.9,588.3,413.7,509.9,272.9,268.3,3483.2,3488.0,746.3,476.6,903.4,1260.4,1717.7,581.0,12.0,-20.0,-1.0,11342.0,8943.0,7250.0,2694.0,23.0,-35.0,20.0,9.0,-13.0,-5.0,10053.0,9564.0,-2786.0,-8255.0,1.0,5.0,65.0,1.0
2022-05-08 17:21:21.685892-07:00,885.6,993.6,1268.5,992.7,724.1,479.0,1609.6,1441.5,3475.9,3467.4,797.7,945.8,420.8,3496.6,1160.3,933.0,3471.0,3471.0,380.9,588.3,417.6,509.9,269.1,268.3,3481.9,3488.0,746.3,476.6,905.9,1258.7,1711.0,581.0,3.0,-11.0,-2.0,11326.0,8967.0,7249.0,2685.0,69.0,-1.0,17.0,7.0,5.0,8.0,10076.0,9559.0,-2798.0,-8228.0,-23.0,36.0,89.0,1.0
2022-05-08 17:21:21.743049-07:00,877.2,993.6,1268.5,992.7,720.8,475.8,1604.9,1441.5,3474.6,3467.4,797.7,945.8,415.3,3494.1,1155.0,933.0,3471.0,3477.1,377.8,589.1,417.6,509.9,269.1,265.3,3481.9,3480.7,748.0,474.3,905.9,1258.7,1711.0,581.8,15.0,14.0,-10.0,11310.0,8999.0,7237.0,2676.0,59.0,-47.0,42.0,6.0,9.0,-12.0,10097.0,9558.0,-2814.0,-8198.0,22.0,20.0,84.0,1.0
2022-05-08 17:21:21.803822-07:00,877.2,991.0,1281.9,989.3,720.8,475.8,1604.9,1432.3,3474.6,3477.1,786.1,946.6,415.3,3494.1,1155.0,932.2,3474.6,3477.1,377.8,589.1,412.9,513.1,264.5,265.3,3474.6,3480.7,748.0,474.3,905.9,1262.2,1709.1,581.8,-5.0,-7.0,0.0,11314.0,8997.0,7231.0,2685.0,-57.0,24.0,-3.0,8.0,8.0,16.0,10114.0,9551.0,-2837.0,-8178.0,-18.0,-10.0,72.0,1.0
2022-05-08 17:21:21.832972-07:00,879.7,991.0,1281.9,989.3,716.7,473.5,1599.3,1432.3,3463.7,3477.1,786.1,946.6,417.6,3500.2,1158.6,932.2,3474.6,3469.8,380.9,591.5,412.9,513.1,264.5,264.5,3474.6,3479.5,748.0,486.1,905.9,1262.2,1709.1,585.9,7.0,-3.0,-5.0,11315.0,9001.0,7224.0,2681.0,53.0,-52.0,8.0,11.0,-10.0,3.0,10133.0,9548.0,-2848.0,-8154.0,10.0,42.0,75.0,1.0
2022-05-08 17:21:21.892941-07:00,879.7,993.6,1282.8,982.5,716.7,473.5,1606.8,1433.2,3463.7,3472.2,784.4,946.6,417.6,3500.2,1157.7,933.9,3485.6,3483.2,380.9,591.5,413.7,513.9,270.6,264.5,3480.7,3481.9,748.0,486.1,903.4,1260.4,1705.3,585.9,7.0,-23.0,-8.0,11320.0,9014.0,7219.0,2631.0,72.0,-107.0,-124.0,8.0,-51.0,4.0,10162.0,9547.0,-2853.0,-8117.0,-47.0,60.0,114.0,1.0
2022-05-08 17:21:21.953092-07:00,882.3,995.3,1282.8,982.5,715.9,475.0,1606.8,1433.2,3478.3,3479.5,784.4,946.6,413.7,3502.7,1157.7,933.9,3485.6,3483.2,375.5,590.7,413.7,513.9,269.1,264.5,3480.7,3481.9,745.5,473.5,903.4,1260.4,1697.6,583.5,-3.0,-116.0,-8.0,11333.0,9038.0,7216.0,2498.0,259.0,-273.0,-190.0,12.0,-67.0,1.0,10217.0,9544.0,-2860.0,-8049.0,14.0,128.0,217.0,1.0
2022-05-08 17:21:21.983344-07:00,882.3,995.3,1277.4,989.3,715.9,475.0,1605.8,1439.6,3478.3,3479.5,787.7,954.3,413.7,3502.7,1153.3,927.9,3479.5,3473.4,375.5,590.7,410.6,509.9,269.1,264.5,3479.5,3469.8,745.5,473.5,906.7,1260.4,1697.6,583.5,30.0,-159.0,21.0,11324.0,9146.0,7153.0,2322.0,306.0,-373.0,-26.0,35.0,-154.0,7.0,10267.0,9569.0,-2934.0,-7929.0,136.0,84.0,419.0,1.0
2022-05-08 17:21:22.073613-07:00,877.2,997.9,1277.4,989.3,718.4,475.0,1605.8,1439.6,3479.5,3478.3,787.7,954.3,417.6,3503.9,1153.3,927.9,3479.5,3473.4,375.5,588.3,410.6,509.9,272.1,266.0,3479.5,3469.8,748.0,475.8,906.7,1260.4,1702.4,575.4,10.0,-247.0,71.0,11321.0,9261.0,7038.0,2232.0,310.0,-299.0,323.0,30.0,-139.0,38.0,10345.0,9609.0,-3093.0,-7714.0,366.0,180.0,713.0,1.0
2022-05-08 17:21:22.162976-07:00,877.2,997.9,1286.4,990.2,718.4,475.0,1641.6,1439.6,3479.5,3478.3,777.8,950.0,417.6,3503.9,1158.6,927.9,3481.9,3480.7,375.5,588.3,413.7,509.9,272.1,266.0,3478.3,3481.9,748.0,475.8,917.7,1252.4,1702.4,575.4,52.0,-81.0,48.0,11167.0,9605.0,6815.0,2246.0,889.0,-286.0,860.0,61.0,-57.0,15.0,10388.0,9753.0,-3352.0,-7360.0,768.0,343.0,932.0,1.0
2022-05-08 17:21:22.164288-07:00,886.5,984.2,1286.4,990.2,720.8,477.4,1641.6,1439.6,3467.4,3467.4,777.8,950.0,419.2,3495.3,1158.6,927.9,3481.9,3480.7,376.3,588.3,413.7,509.9,266.8,264.5,3478.3,3481.9,748.8,476.6,917.7,1252.4,1699.5,580.2,44.0,181.0,-20.0,10988.0,9956.0,6574.0,2311.0,319.0,-187.0,719.0,47.0,143.0,-7.0,10458.0,9881.0,-3605.0,-6960.0,327.0,295.0,903.0,1.0
2022-05-08 17:21:22.192983-07:00,886.5,984.2,1325.0,991.9,720.8,478.2,1689.1,1414.0,3467.4,3467.4,774.5,950.9,419.2,3488.0,1170.9,922.0,3477.1,3478.3,379.4,588.3,412.1,514.7,266.8,264.5,3475.9,3486.8,744.7,476.6,912.7,1248.8,1699.5,580.2,-23.0,258.0,-61.0,10999.0,10060.0,6339.0,2467.0,-198.0,-239.0,658.0,7.0,173.0,-1.0,10580.0,9888.0,-3735.0,-6692.0,26.0,251.0,568.0,1.0
2022-05-08 17:21:22.253273-07:00,883.9,987.6,1324.1,991.9,717.5,478.2,1689.1,1414.0,3468.6,3478.3,762.0,950.9,416.8,3488.0,1170.9,922.0,3477.1,3478.3,379.4,589.1,412.1,510.7,264.5,266.8,3475.9,3486.8,744.7,471.1,912.7,1248.8,1675.7,579.4,-30.0,341.0,-115.0,11043.0,10108.0,6154.0,2537.0,-80.0,-251.0,140.0,-40.0,223.0,-64.0,10639.0,9903.0,-3764.0,-6558.0,-20.0,99.0,56.0,1.0
2022-05-08 17:21:22.283091-07:00,883.9,987.6,1324.1,991.0,717.5,477.4,1671.9,1419.5,3468.6,3478.3,762.0,941.5,416.8,3497.8,1146.3,922.0,3477.1,3478.3,377.0,589.1,416.1,510.7,264.5,266.8,3485.6,3477.1,748.0,471.1,900.8,1248.8,1675.7,579.4,43.0,-97.0,4.0,11100.0,10099.0,6096.0,2468.0,-62.0,-200.0,-9.0,23.0,-65.0,-28.0,10659.0,9900.0,-3720.0,-6555.0,-80.0,44.0,-21.0,1.0
2022-05-08 17:21:22.343028-07:00,883.9,983.3,1330.5,991.0,718.4,477.4,1671.9,1419.5,3467.4,3477.1,752.1,941.5,419.2,3497.8,1146.3,922.0,3477.1,3478.3,377.0,589.1,416.1,515.5,263.7,268.3,3485.6,3477.1,748.0,473.5,900.8,1246.2,1672.9,577.8,39.0,-44.0,-1.0,11187.0,10034.0,6009.0,2552.0,-561.0,1.0,242.0,23.0,-24.0,-20.0,10704.0,9844.0,-3731.0,-6559.0,-231.0,-121.0,122.0,1.0
2022-05-08 17:21:22.433679-07:00,883.9,983.3,1330.5,994.5,718.4,475.8,1656.8,1425.9,3467.4,3477.1,752.1,943.2,419.2,3500.2,1147.1,916.9,3477.1,3475.9,373.2,589.1,413.7,515.5,263.7,268.3,3481.9,3477.1,746.3,473.5,895.7,1246.2,1672.9,577.8,-12.0,72.0,-24.0,11343.0,9885.0,5920.0,2650.0,-344.0,-173.0,-49.0,2.0,59.0,-5.0,10801.0,9720.0,-3723.0,-6592.0,-306.0,-64.0,50.0,1.0
2022-05-08 17:21:22.435045-07:00,884.8,984.2,1327.8,994.5,717.5,475.8,1656.8,1425.9,3472.2,3471.0,748.8,943.2,416.8,3500.2,1147.1,916.9,3477.1,3475.9,373.2,587.5,413.7,518.7,265.3,269.9,3481.9,3477.1,746.3,469.5,895.7,1246.2,1658.7,578.6,30.0,-56.0,33.0,11410.0,9836.0,5873.0,2648.0,-271.0,-71.0,37.0,21.0,-43.0,-1.0,10841.0,9661.0,-3706.0,-6621.0,-183.0,-45.0,14.0,1.0
2022-05-08 17:21:22.493442-07:00,884.8,984.2,1327.8,996.2,719.2,473.5,1634.1,1460.8,3472.2,3471.0,748.8,941.5,420.0,3506.3,1147.1,918.6,3483.2,3478.3,373.9,587.5,416.1,518.7,265.3,269.9,3467.4,3467.4,746.3,474.3,916.0,1246.2,1658.7,578.6,-2.0,26.0,-17.0,11493.0,9772.0,5817.0,2650.0,-271.0,-186.0,-19.0,-4.0,9.0,-14.0,10899.0,9600.0,-3676.0,-6631.0,-295.0,38.0,47.0,1.0
2022-05-08 17:21:22.583149-07:00,889.8,987.6,1326.8,997.9,719.2,473.5,1634.1,1460.8,3469.8,3478.3,739.7,941.5,420.0,3506.3,1147.1,918.6,3483.2,3478.3,373.9,587.5,415.3,511.5,263.7,265.3,3467.4,3467.4,746.3,474.3,1000.5,1242.6,1658.7,581.8,16.0,-17.0,-8.0,11598.0,9664.0,5788.0,2651.0,-333.0,-41.0,-136.0,-14.0,-20.0,-28.0,10975.0,9512.0,-3639.0,-6653.0,-285.0,-46.0,25.0,1.0
2022-05-08 17:21:22.584877-07:00,889.8,987.6,1326.8,997.9,716.7,474.3,1626.5,1488.4,3469.8,3478.3,739.7,941.5,412.9,3500.2,1132.2,918.6,3477.1,3477.1,374.7,587.5,415.3,511.5,263.7,265.3,3481.9,3480.7,743.9,472.7,1000.5,1242.6,1658.7,581.8,-25.0,2.0,-11.0,11661.0,9597.0,5780.0,2636.0,-123.0,-117.0,-33.0,-3.0,24.0,12.0,11050.0,9425.0,-3601.0,-6674.0,-260.0,29.0,29.0,1.0
2022-05-08 17:21:22.704074-07:00,883.1,990.2,1323.2,985.9,716.7,474.3,1626.5,1488.4,3477.1,3473.4,739.7,938.1,412.9,3500.2,1132.2,918.6,3477.1,3477.1,374.7,587.5,412.1,509.9,264.5,263.7,3481.9,3480.7,743.9,472.7,994.5,1236.4,1637.9,589.1,7.0,35.0,39.0,11715.0,9567.0,5724.0,2625.0,-280.0,-153.0,40.0,14.0,18.0,20.0,11127.0,9347.0,-3550.0,-6681.0,-274.0,45.0,22.0,1.0
2022-05-08 17:21:22.705110-07:00,883.1,990.2,1323.2,985.9,715.1,482.2,1626.5,1535.7,3477.1,3473.4,739.7,938.1,416.1,3491.7,1122.6,916.0,3485.6,3481.9,373.2,587.5,412.1,509.9,264.5,263.7,3479.5,3485.6,738.9,477.4,994.5,1236.4,1637.9,589.1,21.0,-42.0,110.0,11812.0,9477.0,5662.0,2654.0,-167.0,-39.0,10.0,41.0,-61.0,44.0,11207.0,9282.0,-3490.0,-6673.0,-136.0,221.0,72.0,1.0
2022-05-08 17:21:22.763082-07:00,878.0,985.9,1321.4,992.7,715.1,482.2,1626.5,1535.7,3469.8,3475.9,738.1,933.9,416.1,3491.7,1122.6,916.0,3485.6,3481.9,373.2,587.5,417.6,509.1,265.3,265.3,3479.5,3485.6,738.9,477.4,963.7,1228.4,1635.0,603.6,-32.0,0.0,59.0,11811.0,9490.0,5632.0,2676.0,107.0,-144.0,205.0,21.0,20.0,83.0,11252.0,9328.0,-3411.0,-6571.0,97.0,452.0,88.0,1.0
2022-05-08 17:21:22.792955-07:00,892.4,985.9,1321.4,992.7,721.6,471.1,1604.0,1477.3,3475.9,3475.9,738.1,933.9,416.1,3491.7,1111.2,898.3,3468.6,3481.9,371.6,586.7,417.6,509.1,265.3,264.5,3478.3,3474.6,749.6,469.5,963.7,1228.4,1635.0,595.5,37.0,-61.0,52.0,11876.0,9520.0,5451.0,2657.0,-1.0,-561.0,213.0,19.0,-46.0,-16.0,11317.0,9405.0,-3292.0,-6408.0,-50.0,588.0,194.0,1.0
2022-05-08 17:21:22.853321-07:00,892.4,997.0,1309.7,994.5,721.6,471.1,1604.0,1425.0,3475.9,3472.2,739.7,932.2,416.1,3491.7,1111.2,901.7,3475.9,3481.9,371.6,586.7,412.1,517.1,264.5,264.5,3481.9,3474.6,749.6,469.5,950.0,1217.7,1625.6,595.5,21.0,30.0,57.0,11932.0,9576.0,5271.0,2561.0,33.0,-417.0,-55.0,6.0,39.0,12.0,11423.0,9466.0,-3140.0,-6203.0,-106.0,704.0,179.0,1.0
2022-05-08 17:21:22.943073-07:00,888.2,997.0,1309.7,994.5,715.1,473.5,1657.7,1425.0,3473.4,3472.2,739.7,932.2,416.1,3490.5,1130.5,901.7,3475.9,3481.9,368.5,583.5,412.1,517.1,264.5,263.7,3481.9,3480.7,749.6,467.1,950.0,1217.7,1625.6,592.3,15.0,-43.0,53.0,11925.0,9629.0,5236.0,2469.0,248.0,7.0,-107.0,-4.0,-49.0,23.0,11512.0,9558.0,-2971.0,-5978.0,130.0,724.0,175.0,1.0
2022-05-08 17:21:22.944428-07:00,888.2,1093.8,1326.8,986.7,715.1,473.5,1657.7,1338.6,3473.4,3472.2,737.3,933.0,416.1,3490.5,1130.5,896.6,3478.3,3481.9,368.5,583.5,414.5,516.3,263.7,263.7,3488.0,3480.7,749.6,467.1,939.8,1200.0,1577.7,592.3,5.0,-30.0,30.0,11775.0,9780.0,5316.0,2424.0,469.0,196.0,10.0,-12.0,-41.0,21.0,11526.0,9746.0,-2837.0,-5705.0,412.0,807.0,184.0,1.0
2022-05-08 17:21:23.003093-07:00,883.1,1093.8,1326.8,986.7,714.2,476.6,1754.1,1338.6,3477.1,3472.2,737.3,933.0,414.5,3497.8,1059.9,896.6,3478.3,3474.6,375.5,585.1,414.5,516.3,263.7,269.1,3488.0,3483.2,757.9,485.3,939.8,1200.0,1577.7,588.3,-22.0,-31.0,-1.0,11665.0,9840.0,5425.0,2470.0,185.0,507.0,-6.0,-42.0,12.0,-52.0,11550.0,9927.0,-2681.0,-5414.0,182.0,803.0,231.0,1.0
2022-05-08 17:21:23.063613-07:00,883.1,1132.2,1335.9,983.3,714.2,476.6,1754.1,1280.1,3477.1,3483.2,731.5,933.9,414.5,3497.8,1059.9,888.2,3474.6,3474.6,375.5,585.1,417.6,517.9,264.5,269.1,3483.2,3483.2,757.9,485.3,926.2,1194.7,1534.8,588.3,-25.0,32.0,-77.0,11465.0,9928.0,5642.0,2569.0,735.0,795.0,-42.0,-44.0,23.0,-99.0,11535.0,10136.0,-2539.0,-5116.0,598.0,781.0,159.0,1.0
2022-05-08 17:21:23.093034-07:00,886.5,1137.5,1335.9,983.3,715.9,476.6,1780.1,1280.1,3483.2,3477.1,731.5,933.9,416.1,3500.2,1033.2,888.2,3474.6,3477.1,368.5,588.3,417.6,517.9,267.6,269.1,3483.2,3473.4,763.7,467.1,926.2,1194.7,1504.1,582.6,10.0,10.0,-132.0,11196.0,10006.0,5981.0,2680.0,108.0,860.0,-224.0,-2.0,23.0,-72.0,11436.0,10381.0,-2429.0,-4897.0,297.0,523.0,4.0,1.0
2022-05-08 17:21:23.153111-07:00,886.5,1137.5,1326.8,994.5,715.9,476.6,1743.5,1272.1,3483.2,3477.1,724.1,933.9,416.1,3500.2,1011.6,881.4,3467.4,3475.9,368.5,588.3,410.6,517.9,267.6,269.1,3472.2,3478.3,763.7,467.1,916.0,1182.3,1504.1,582.6,-21.0,-13.0,-136.0,11081.0,9954.0,6222.0,2802.0,168.0,303.0,9.0,-2.0,15.0,-44.0,11433.0,10461.0,-2330.0,-4780.0,146.0,303.0,24.0,1.0
2022-05-08 17:21:23.183429-07:00,874.7,1124.4,1326.8,994.5,708.5,479.8,1743.5,1272.1,3483.2,3471.0,724.1,933.9,417.6,3494.1,1011.6,881.4,3467.4,3475.9,373.9,586.7,410.6,517.9,266.0,266.8,3472.2,3478.3,768.7,464.8,916.0,1182.3,1488.4,585.1,8.0,-11.0,-101.0,11033.0,9972.0,6266.0,2830.0,39.0,-1.0,8.0,-5.0,3.0,-62.0,11416.0,10512.0,-2303.0,-4724.0,45.0,29.0,16.0,1.0
2022-05-08 17:21:23.273797-07:00,874.7,1124.4,1319.6,989.3,708.5,479.8,1715.8,1229.3,3483.2,3471.0,722.5,936.4,417.6,3494.1,992.7,877.2,3473.4,3474.6,373.9,586.7,413.7,518.7,266.0,266.8,3475.9,3483.2,768.7,464.8,915.2,1183.2,1488.4,585.1,0.0,-10.0,-21.0,11031.0,9990.0,6250.0,2813.0,43.0,-110.0,39.0,-3.0,5.0,-7.0,11411.0,10503.0,-2330.0,-4742.0,6.0,-110.0,14.0,1.0
2022-05-08 17:21:23.274784-07:00,878.9,1118.2,1319.6,989.3,708.5,473.5,1715.8,1229.3,3474.6,3474.6,722.5,936.4,415.3,3486.8,992.7,877.2,3473.4,3474.6,371.6,591.5,413.7,518.7,265.3,259.2,3475.9,3483.2,758.7,465.6,915.2,1183.2,1481.0,568.2,-5.0,1.0,1.0,11043.0,10017.0,6197.0,2785.0,51.0,-165.0,47.0,-5.0,0.0,11.0,11408.0,10486.0,-2369.0,-4769.0,9.0,-106.0,23.0,1.0
2022-05-08 17:21:23.333035-07:00,878.9,1118.2,1318.7,986.7,708.5,473.5,1707.2,1222.2,3474.6,3474.6,725.8,938.1,415.3,3486.8,987.6,873.0,3475.9,3475.9,371.6,591.5,411.4,520.3,265.3,259.2,3479.5,3477.1,758.7,465.6,912.7,1182.3,1481.0,568.2,6.0,9.0,48.0,11051.0,10049.0,6151.0,2739.0,58.0,-115.0,-2.0,0.0,4.0,13.0,11403.0,10476.0,-2402.0,-4785.0,7.0,-63.0,20.0,1.0
2022-05-08 17:21:23.393034-07:00,878.0,1110.4,1314.2,986.7,707.7,474.3,1707.2,1222.2,3468.6,3475.9,715.9,938.1,415.3,3496.6,987.6,873.0,3475.9,3475.9,369.3,587.5,411.4,518.7,263.7,266.0,3479.5,3477.1,752.9,464.8,912.7,1178.8,1478.3,572.2,4.0,2.0,20.0,11031.0,10078.0,6149.0,2718.0,112.0,20.0,-2.0,8.0,-1.0,18.0,11389.0,10487.0,-2418.0,-4787.0,86.0,1.0,-5.0,1.0
2022-05-08 17:21:23.453276-07:00,878.0,1110.4,1314.2,989.3,707.7,471.9,1697.6,1202.7,3468.6,3475.9,715.9,932.2,415.3,3497.8,980.7,879.7,3479.5,3475.9,376.3,587.5,412.1,518.7,263.7,266.0,3488.0,3480.7,748.8,464.8,902.5,1178.8,1478.3,572.2,2.0,-4.0,-5.0,11015.0,10092.0,6156.0,2713.0,38.0,6.0,-2.0,0.0,-8.0,-9.0,11374.0,10505.0,-2423.0,-4781.0,33.0,17.0,3.0,1.0
2022-05-08 17:21:23.483502-07:00,878.9,1113.9,1299.8,989.3,709.3,471.9,1697.6,1202.7,3479.5,3469.8,711.8,932.2,416.1,3497.8,980.7,879.7,3479.5,3475.9,376.3,585.1,412.1,520.3,266.0,263.7,3488.0,3480.7,748.8,464.0,902.5,1172.6,1467.2,573.8,4.0,0.0,-1.0,10989.0,10117.0,6169.0,2697.0,106.0,34.0,-16.0,-1.0,2.0,-14.0,11355.0,10529.0,-2424.0,-4771.0,87.0,19.0,-13.0,1.0
2022-05-08 17:21:23.573992-07:00,878.9,1113.9,1299.8,991.9,709.3,468.7,1689.1,1191.2,3479.5,3469.8,711.8,932.2,416.1,3497.8,976.5,873.8,3484.4,3472.2,370.0,585.1,407.5,520.3,266.0,263.7,3469.8,3473.4,747.2,464.0,903.4,1172.6,1467.2,573.8,-12.0,-12.0,-11.0,10971.0,10124.0,6189.0,2697.0,-4.0,18.0,-27.0,-1.0,-5.0,6.0,11345.0,10541.0,-2424.0,-4768.0,-8.0,17.0,-6.0,1.0
2022-05-08 17:21:23.603012-07:00,881.4,1111.2,1309.7,991.9,715.1,468.7,1689.1,1191.2,3479.5,3471.0,715.9,932.2,417.6,3497.8,976.5,873.8,3484.4,3472.2,370.0,589.9,407.5,517.9,263.7,262.2,3469.8,3473.4,747.2,465.6,903.4,1169.1,1462.6,572.2,0.0,-4.0,-4.0,10958.0,10136.0,6195.0,2687.0,70.0,22.0,-3.0,-6.0,1.0,-11.0,11339.0,10550.0,-2422.0,-4763.0,43.0,1.0,3.0,1.0
2022-05-08 17:21:23.633121-07:00,881.4,1111.2,1309.7,991.0,715.1,471.9,1696.7,1192.0,3479.5,3471.0,715.9,945.8,417.6,3494.1,977.3,871.3,3488.0,3473.4,375.5,589.9,412.9,517.9,263.7,262.2,3472.2,3468.6,746.3,465.6,897.4,1169.1,1462.6,572.2,0.0,-15.0,-9.0,10952.0,10141.0,6200.0,2688.0,-8.0,-17.0,13.0,-4.0,0.0,1.0,11340.0,10549.0,-2423.0,-4762.0,-16.0,-7.0,14.0,1.0
2022-05-08 17:21:23.693089-07:00,882.3,1107.8,1300.7,986.7,704.4,471.9,1696.7,1192.0,3473.4,3474.6,720.0,939.0,410.6,3494.1,977.3,871.3,3488.0,3473.4,375.5,586.7,414.5,521.0,266.0,266.0,3472.2,3468.6,746.3,464.8,891.5,1175.3,1455.2,572.2,0.0,3.0,-14.0,10950.0,10148.0,6192.0,2685.0,11.0,-28.0,11.0,0.0,4.0,0.0,11342.0,10546.0,-2429.0,-4762.0,-10.0,-21.0,9.0,1.0
2022-05-08 17:21:23.723152-07:00,882.3,1107.8,1300.7,986.7,703.6,468.7,1686.2,1182.3,3473.4,3474.6,720.0,939.0,413.7,3494.1,973.9,870.5,3474.6,3481.9,373.2,589.1,414.5,521.0,266.0,266.0,3488.0,3480.7,741.4,461.6,891.5,1175.3,1455.2,572.2,6.0,-15.0,-7.0,10959.0,10149.0,6178.0,2678.0,-23.0,-39.0,20.0,6.0,-6.0,-5.0,11347.0,10533.0,-2437.0,-4774.0,-33.0,-49.0,8.0,1.0
2022-05-08 17:21:23.843572-07:00,876.4,1097.3,1304.3,990.2,703.6,468.7,1686.2,1182.3,3472.2,3478.3,714.2,936.4,413.7,3494.1,973.9,870.5,3474.6,3481.9,373.2,589.1,416.1,520.3,270.6,266.8,3488.0,3480.7,741.4,461.6,896.6,1165.6,1445.1,566.6,0.0,5.0,-5.0,10970.0,10152.0,6157.0,2670.0,-33.0,-70.0,10.0,5.0,5.0,2.0,11352.0,10521.0,-2449.0,-4783.0,-43.0,-43.0,6.0,1.0
2022-05-08 17:21:23.873775-07:00,876.4,1097.3,1304.3,990.2,711.0,474.3,1675.7,1172.6,3472.2,3478.3,714.2,936.4,416.8,3501.4,967.9,867.9,3474.6,3478.3,370.0,585.9,416.1,520.3,270.6,266.8,3472.2,3477.1,737.3,464.0,896.6,1165.6,1445.1,566.6,6.0,-1.0,8.0,10984.0,10152.0,6136.0,2656.0,2.0,-48.0,6.0,3.0,2.0,0.0,11359.0,10506.0,-2456.0,-4796.0,-10.0,-22.0,6.0,1.0
2022-05-08 17:21:23.903843-07:00,876.4,1097.3,1311.5,994.5,711.0,474.3,1675.7,1172.6,3475.9,3479.5,714.2,941.5,416.8,3501.4,967.9,867.9,3474.6,3478.3,370.0,585.9,415.3,518.7,267.6,267.6,3472.2,3477.1,737.3,464.0,890.7,1171.8,1452.5,571.4,-5.0,-5.0,-2.0,10991.0,10153.0,6126.0,2650.0,-13.0,-43.0,15.0,1.0,0.0,7.0,11362.0,10497.0,-2463.0,-4805.0,-25.0,-29.0,3.0,1.0
2022-05-08 17:21:23.932991-07:00,876.4,1097.3,1311.5,994.5,709.3,471.1,1669.1,1168.2,3475.9,3479.5,714.2,941.5,410.6,3486.8,968.8,867.9,3473.4,3478.3,370.8,589.1,415.3,518.7,267.6,267.6,3479.5,3477.1,738.9,467.9,890.7,1171.8,1452.5,571.4,1.0,0.0,7.0,11001.0,10155.0,6108.0,2641.0,1.0,-41.0,0.0,0.0,-4.0,-2.0,11366.0,10487.0,-2468.0,-4814.0,-11.0,-28.0,0.0,1.0
2022-05-08 17:21:24.023269-07:00,878.9,1095.6,1299.0,994.5,709.3,471.1,1669.1,1155.9,3477.1,3478.3,709.3,938.1,410.6,3486.8,968.8,864.6,3478.3,3478.3,370.8,589.1,412.9,517.9,267.6,262.2,3480.7,3477.1,738.9,467.9,888.2,1176.2,1449.7,568.2,2.0,-11.0,8.0,11003.0,10157.0,6104.0,2636.0,23.0,3.0,-9.0,0.0,-7.0,9.0,11368.0,10481.0,-2474.0,-4820.0,2.0,-10.0,-1.0,1.0
2022-05-08 17:21:24.113029-07:00,878.0,1095.6,1299.0,994.5,706.9,467.9,1662.5,1155.9,3481.9,3478.3,709.3,938.1,414.5,3497.8,965.4,864.6,3478.3,3483.2,371.6,587.5,412.9,517.9,267.6,269.1,3480.7,3481.9,738.1,467.9,888.2,1176.2,1449.7,568.2,5.0,-5.0,1.0,11001.0,10161.0,6102.0,2634.0,11.0,2.0,8.0,3.0,-5.0,-4.0,11367.0,10481.0,-2474.0,-4821.0,12.0,2.0,6.0,1.0
2022-05-08 17:21:24.114307-07:00,878.0,1099.0,1299.0,989.3,706.9,467.9,1662.5,1155.0,3481.9,3480.7,705.2,928.8,414.5,3497.8,965.4,866.3,3483.2,3483.2,371.6,587.5,412.1,517.1,269.1,269.1,3480.7,3481.9,738.1,467.9,887.3,1169.1,1440.5,568.2,5.0,3.0,-4.0,10993.0,10167.0,6108.0,2631.0,27.0,24.0,-16.0,5.0,3.0,1.0,11363.0,10486.0,-2476.0,-4820.0,17.0,0.0,-8.0,1.0
2022-05-08 17:21:24.142971-07:00,873.0,1099.0,1299.0,989.3,706.0,471.9,1653.0,1155.0,3467.4,3480.7,705.2,928.8,412.9,3496.6,967.1,866.3,3483.2,3473.4,373.9,585.9,412.1,517.1,269.1,268.3,3480.7,3479.5,735.6,464.8,887.3,1169.1,1440.5,565.8,3.0,-7.0,-2.0,10989.0,10170.0,6111.0,2627.0,16.0,-8.0,-7.0,0.0,-4.0,-5.0,11360.0,10490.0,-2476.0,-4818.0,12.0,10.0,-5.0,1.0
2022-05-08 17:21:24.172781-07:00,873.0,1093.8,1301.6,985.0,706.0,471.9,1653.0,1152.4,3467.4,3467.4,706.0,928.8,412.9,3496.6,967.1,860.4,3477.1,3473.4,373.9,585.9,410.6,517.1,266.0,268.3,3483.2,3479.5,735.6,464.8,878.9,1159.4,1459.8,565.8,1.0,-1.0,-11.0,10982.0,10177.0,6114.0,2622.0,34.0,-3.0,-6.0,0.0,0.0,-7.0,11358.0,10493.0,-2475.0,-4817.0,22.0,-3.0,-2.0,1.0
2022-05-08 17:21:24.233050-07:00,880.6,1093.8,1301.6,985.0,704.4,472.7,1650.2,1152.4,3474.6,3467.4,706.0,928.8,416.1,3491.7,963.7,860.4,3477.1,3483.2,372.4,586.7,410.6,517.1,266.0,262.2,3483.2,3467.4,735.6,457.7,878.9,1159.4,1459.8,562.6,0.0,-5.0,-19.0,10978.0,10186.0,6111.0,2613.0,15.0,-26.0,3.0,-5.0,0.0,-14.0,11353.0,10497.0,-2480.0,-4818.0,3.0,-30.0,-1.0,1.0
2022-05-08 17:21:24.413032-07:00,880.6,1092.9,1298.1,981.6,704.4,472.7,1644.5,1151.5,3474.6,3480.7,705.2,938.1,416.1,3491.7,961.1,867.1,3483.2,3477.1,372.4,586.7,414.5,521.0,266.8,262.2,3483.2,3481.9,735.6,457.7,883.1,1159.4,1441.5,562.6,-2.0,-2.0,-14.0,10986.0,10189.0,6096.0,2598.0,-23.0,-80.0,7.0,-2.0,1.0,-9.0,11352.0,10489.0,-2491.0,-4831.0,-30.0,-55.0,-7.0,1.0
2022-05-08 17:21:24.415539-07:00,873.8,1095.6,1298.1,981.6,709.3,468.7,1644.5,1151.5,3472.2,3480.7,705.2,938.1,414.5,3502.7,961.1,867.1,3483.2,3477.1,372.4,589.1,414.5,521.0,263.7,265.3,3483.2,3481.9,735.6,465.6,883.1,1159.4,1435.0,562.6,7.0,-3.0,0.0,11001.0,10193.0,6071.0,2580.0,-11.0,-100.0,18.0,0.0,0.0,-8.0,11356.0,10473.0,-2505.0,-4849.0,-34.0,-67.0,0.0,1.0
2022-05-08 17:21:24.416425-07:00,873.8,1095.6,1303.4,997.0,709.3,468.7,1638.8,1143.6,3472.2,3480.7,706.0,935.6,414.5,3502.7,960.2,865.4,3480.7,3473.4,372.4,589.1,416.1,519.5,263.7,265.3,3474.6,3478.3,735.6,465.6,882.3,1155.0,1435.0,562.6,3.0,-6.0,28.0,11022.0,10193.0,6041.0,2565.0,-9.0,-45.0,6.0,1.0,-7.0,16.0,11364.0,10453.0,-2518.0,-4868.0,-34.0,-38.0,3.0,1.0
2022-05-08 17:21:24.443609-07:00,873.8,1098.2,1303.4,997.0,712.6,474.3,1638.8,1143.6,3463.7,3471.0,706.0,935.6,416.1,3495.3,960.2,865.4,3480.7,3473.4,370.0,589.1,416.1,519.5,274.4,261.4,3474.6,3478.3,738.9,468.7,882.3,1155.0,1429.5,549.8,3.0,7.0,26.0,11021.0,10196.0,6037.0,2561.0,31.0,23.0,-17.0,3.0,2.0,14.0,11360.0,10456.0,-2521.0,-4869.0,25.0,13.0,1.0,1.0
2022-05-08 17:21:24.473140-07:00,873.8,1098.2,1299.8,986.7,712.6,474.3,1641.6,1146.3,3463.7,3471.0,704.4,932.2,416.1,3495.3,956.8,860.4,3467.4,3471.0,370.0,589.1,415.3,517.9,274.4,261.4,3471.0,3480.7,738.9,468.7,876.4,1160.3,1429.5,549.8,-1.0,-8.0,-12.0,11011.0,10197.0,6052.0,2566.0,49.0,46.0,-5.0,-3.0,1.0,-13.0,11355.0,10468.0,-2514.0,-4857.0,35.0,41.0,4.0,1.0
2022-05-08 17:21:24.533142-07:00,863.7,1094.7,1291.8,986.7,701.1,466.4,1641.6,1146.3,3473.4,3472.2,706.0,932.2,414.5,3497.8,956.8,860.4,3467.4,3471.0,371.6,585.9,415.3,520.3,267.6,262.2,3471.0,3480.7,734.0,469.5,876.4,1161.2,1436.0,553.8,7.0,2.0,-48.0,10995.0,10206.0,6066.0,2566.0,-9.0,-5.0,-16.0,1.0,7.0,-36.0,11346.0,10482.0,-2513.0,-4849.0,1.0,-7.0,1.0,1.0
2022-05-08 17:21:24.593600-07:00,863.7,1094.7,1291.8,989.3,701.1,468.7,1635.0,1140.1,3473.4,3472.2,706.0,937.3,414.5,3497.8,958.5,862.9,3479.5,3475.9,373.9,585.9,413.7,520.3,267.6,262.2,3484.4,3483.2,728.2,469.5,882.3,1161.2,1436.0,553.8,-5.0,2.0,-95.0,11019.0,10188.0,6055.0,2560.0,-158.0,-129.0,-31.0,-14.0,9.0,-60.0,11344.0,10472.0,-2525.0,-4870.0,-146.0,-123.0,-19.0,1.0
2022-05-08 17:21:24.623292-07:00,873.0,1092.1,1292.7,989.3,707.7,468.7,1635.0,1140.1,3467.4,3475.9,700.3,937.3,417.6,3497.8,958.5,862.9,3479.5,3475.9,373.9,587.5,413.7,518.7,263.0,263.0,3484.4,3483.2,728.2,463.2,882.3,1156.8,1446.0,564.2,-20.0,-12.0,-130.0,11104.0,10146.0,5987.0,2517.0,-272.0,-391.0,-40.0,-22.0,16.0,-83.0,11335.0,10429.0,-2563.0,-4961.0,-283.0,-375.0,-73.0,1.0
2022-05-08 17:21:24.683478-07:00,873.0,1092.1,1292.7,994.5,707.7,473.5,1655.8,1169.1,3467.4,3475.9,700.3,939.0,417.6,3495.3,955.1,860.4,3474.6,3474.6,372.4,587.5,413.7,518.7,263.0,263.0,3478.3,3479.5,730.7,463.2,878.0,1156.8,1446.0,564.2,-18.0,-11.0,-110.0,11230.0,10104.0,5863.0,2418.0,-743.0,-714.0,13.0,-12.0,24.0,-54.0,11381.0,10256.0,-2644.0,-5172.0,-661.0,-679.0,-102.0,1.0
2022-05-08 17:21:24.743021-07:00,872.1,1088.6,1303.4,994.5,694.6,473.5,1655.8,1169.1,3475.9,3473.4,701.1,939.0,415.3,3495.3,955.1,860.4,3474.6,3474.6,372.4,589.1,413.7,517.1,264.5,263.7,3478.3,3479.5,730.7,462.4,878.0,1157.7,1424.1,570.6,25.0,-27.0,41.0,11526.0,9939.0,5587.0,2367.0,-464.0,-400.0,201.0,-6.0,3.0,-58.0,11492.0,9960.0,-2750.0,-5442.0,-507.0,-741.0,-89.0,1.0
2022-05-08 17:21:24.803176-07:00,872.1,1088.6,1303.4,983.3,694.6,475.8,1753.1,1113.9,3475.9,3473.4,701.1,932.2,415.3,3507.5,958.5,859.5,3479.5,3469.8,372.4,589.1,417.6,517.1,264.5,263.7,3483.2,3477.1,739.7,462.4,878.0,1157.7,1424.1,570.6,12.0,15.0,88.0,11608.0,9864.0,5500.0,2477.0,-342.0,384.0,145.0,1.0,-17.0,51.0,11475.0,9793.0,-2894.0,-5699.0,-215.0,-719.0,-194.0,1.0
2022-05-08 17:21:24.863087-07:00,874.7,1099.9,1299.8,990.2,711.0,475.8,1753.1,1113.9,3477.1,3467.4,703.6,936.4,419.2,3507.5,958.5,859.5,3479.5,3469.8,372.4,582.6,410.6,517.9,261.4,265.3,3483.2,3477.1,739.7,462.4,871.3,1156.8,1423.1,575.4,-25.0,-53.0,67.0,11639.0,9755.0,5552.0,2643.0,-173.0,63.0,143.0,26.0,-27.0,97.0,11456.0,9653.0,-3011.0,-5912.0,-122.0,-533.0,-101.0,1.0
2022-05-08 17:21:24.892995-07:00,874.7,1099.9,1299.8,990.2,703.6,471.1,1884.0,1056.5,3477.1,3467.4,703.6,936.4,409.0,3495.3,973.9,860.4,3477.1,3480.7,371.6,585.1,410.6,517.9,261.4,265.3,3474.6,3475.9,749.6,464.8,871.3,1156.8,1423.1,575.4,47.0,8.0,91.0,11662.0,9720.0,5516.0,2745.0,-227.0,239.0,140.0,41.0,-24.0,35.0,11416.0,9557.0,-3124.0,-6084.0,-66.0,-495.0,-131.0,1.0
2022-05-08 17:21:24.953052-07:00,879.7,1103.4,1303.4,993.6,703.6,471.1,1884.0,1056.5,3477.1,3480.7,695.4,933.0,409.0,3495.3,973.9,860.4,3477.1,3480.7,371.6,585.1,412.9,511.5,262.2,262.2,3474.6,3475.9,749.6,464.8,876.4,1154.2,1426.8,575.4,16.0,16.0,28.0,11662.0,9633.0,5588.0,2900.0,-208.0,479.0,67.0,22.0,2.0,2.0,11364.0,9472.0,-3223.0,-6261.0,-24.0,-505.0,-171.0,1.0
2022-05-08 17:21:25.012995-07:00,879.7,1103.4,1303.4,993.6,710.1,472.7,1791.6,1088.6,3477.1,3480.7,695.4,933.0,412.9,3502.7,979.9,866.3,3480.7,3483.2,368.5,592.3,412.9,511.5,262.2,262.2,3479.5,3477.1,758.7,463.2,876.4,1154.2,1426.8,575.4,26.0,7.0,65.0,11649.0,9525.0,5708.0,3073.0,-347.0,549.0,-44.0,16.0,-4.0,14.0,11294.0,9423.0,-3307.0,-6414.0,7.0,-356.0,-175.0,1.0
2022-05-08 17:21:25.042904-07:00,877.2,1067.7,1308.8,985.9,710.1,472.7,1791.6,1088.6,3457.6,3478.3,703.6,935.6,412.9,3502.7,979.9,866.3,3480.7,3483.2,368.5,592.3,417.6,514.7,258.4,262.2,3479.5,3477.1,758.7,463.2,870.5,1158.6,1453.4,569.8,-13.0,-34.0,13.0,11626.0,9374.0,5896.0,3261.0,-183.0,691.0,64.0,14.0,-7.0,31.0,11230.0,9403.0,-3365.0,-6525.0,174.0,-248.0,-144.0,1.0
2022-05-08 17:21:25.073841-07:00,877.2,1067.7,1308.8,985.9,699.5,477.4,1728.2,1211.5,3457.6,3478.3,703.6,935.6,415.3,3486.8,1080.8,864.6,3474.6,3477.1,366.9,586.7,417.6,514.7,258.4,262.2,3477.1,3480.7,752.1,460.8,870.5,1158.6,1453.4,569.8,46.0,4.0,15.0,11564.0,9278.0,6037.0,3489.0,-220.0,598.0,145.0,14.0,-23.0,-3.0,11153.0,9413.0,-3431.0,-6607.0,114.0,-233.0,-104.0,1.0
2022-05-08 17:21:25.162931-07:00,878.9,1048.7,1318.7,986.7,699.5,477.4,1728.2,1336.8,3474.6,3472.2,708.5,934.7,415.3,3486.8,1080.8,872.1,3478.3,3477.1,366.9,586.7,414.5,511.5,262.2,264.5,3475.9,3480.7,752.1,460.8,869.6,1164.7,1562.7,569.8,-55.0,25.0,6.0,11533.0,9120.0,6204.0,3709.0,-372.0,650.0,-15.0,38.0,-6.0,85.0,11109.0,9377.0,-3492.0,-6701.0,3.0,-265.0,-76.0,1.0
2022-05-08 17:21:25.192955-07:00,878.9,1048.7,1318.7,986.7,701.9,463.2,1791.6,1336.8,3478.3,3472.2,708.5,934.7,415.3,3507.5,1139.2,872.1,3478.3,3472.2,375.5,589.1,414.5,511.5,262.2,263.0,3475.9,3478.3,739.7,464.0,869.6,1164.7,1562.7,562.6,-9.0,-4.0,48.0,11579.0,8975.0,6234.0,3867.0,-339.0,124.0,108.0,1.0,-11.0,38.0,11099.0,9332.0,-3530.0,-6760.0,-2.0,-147.0,-24.0,1.0
2022-05-08 17:21:25.223242-07:00,878.9,1041.8,1307.9,982.5,701.9,463.2,1791.6,1556.2,3478.3,3474.6,724.1,930.5,415.3,3507.5,1139.2,881.4,3480.7,3472.2,375.5,589.1,415.3,513.1,266.0,263.0,3479.5,3478.3,739.7,464.0,864.6,1203.5,1696.7,562.6,-28.0,56.0,-105.0,11589.0,8902.0,6251.0,3977.0,-145.0,185.0,80.0,12.0,31.0,48.0,11067.0,9334.0,-3556.0,-6796.0,64.0,-97.0,-74.0,1.0
2022-05-08 17:21:25.283095-07:00,878.0,1041.8,1307.9,982.5,701.9,469.5,1886.9,1556.2,3475.9,3474.6,724.1,930.5,415.3,3496.6,1221.3,881.4,3480.7,3474.6,376.3,590.7,415.3,513.1,266.0,264.5,3479.5,3483.2,740.6,460.8,864.6,1203.5,1696.7,571.4,0.0,14.0,-10.0,11610.0,8863.0,6230.0,4033.0,-89.0,4.0,9.0,0.0,-15.0,0.0,11030.0,9329.0,-3588.0,-6845.0,35.0,-133.0,-67.0,1.0
2022-05-08 17:21:25.373322-07:00,878.0,1027.1,1294.5,990.2,701.9,469.5,1886.9,1681.4,3475.9,3480.7,757.9,940.7,415.3,3496.6,1221.3,896.6,3471.0,3474.6,376.3,590.7,409.8,516.3,263.0,264.5,3480.7,3483.2,740.6,460.8,939.8,1239.1,1749.3,571.4,28.0,0.0,14.0,11631.0,8846.0,6241.0,3995.0,69.0,-51.0,-130.0,-5.0,0.0,-23.0,10991.0,9343.0,-3612.0,-6877.0,115.0,-120.0,-85.0,1.0
2022-05-08 17:21:25.374608-07:00,879.7,1027.1,1294.5,990.2,704.4,471.1,1902.6,1681.4,3472.2,3480.7,757.9,940.7,417.6,3494.1,1222.2,896.6,3471.0,3475.9,375.5,590.7,409.8,516.3,263.0,261.4,3480.7,3480.7,736.5,460.8,939.8,1239.1,1749.3,610.8,-35.0,-39.0,15.0,11615.0,8825.0,6318.0,3965.0,45.0,178.0,-135.0,22.0,-25.0,42.0,10927.0,9372.0,-3650.0,-6920.0,227.0,-69.0,-76.0,1.0
2022-05-08 17:21:25.492918-07:00,879.7,1014.2,1306.1,995.3,704.4,471.1,1845.0,1654.9,3472.2,3475.9,786.9,944.1,417.6,3494.1,1212.4,922.8,3477.1,3480.7,375.5,590.7,415.3,512.3,258.4,261.4,3477.1,3484.4,736.5,460.8,962.8,1273.0,1796.5,610.8,-3.0,23.0,16.0,11571.0,8867.0,6376.0,3909.0,327.0,-63.0,-107.0,15.0,19.0,21.0,10840.0,9449.0,-3691.0,-6931.0,281.0,-34.0,-102.0,1.0
2022-05-08 17:21:25.494246-07:00,882.3,1016.8,1306.1,995.3,714.2,469.5,1845.0,1654.9,3478.3,3466.1,786.9,944.1,413.7,3497.8,1212.4,922.8,3477.1,3480.7,375.5,588.3,415.3,512.3,262.2,264.5,3477.1,3484.4,728.2,468.7,962.8,1273.0,1803.2,613.3,-53.0,78.0,33.0,11488.0,8949.0,6470.0,3808.0,430.0,231.0,-191.0,22.0,88.0,48.0,10756.0,9517.0,-3713.0,-6955.0,207.0,-3.0,-189.0,1.0
2022-05-08 17:21:25.553097-07:00,882.3,1016.8,1315.1,991.9,714.2,469.5,1825.5,1609.6,3478.3,3466.1,801.0,939.8,413.7,3497.8,1202.7,937.3,3474.6,3474.6,375.5,588.3,413.7,515.5,262.2,264.5,3481.9,3479.5,728.2,468.7,916.0,1290.9,1803.2,613.3,-33.0,125.0,-2.0,11332.0,9108.0,6580.0,3710.0,705.0,-15.0,20.0,23.0,113.0,46.0,10635.0,9638.0,-3689.0,-6989.0,358.0,82.0,-386.0,1.0
2022-05-08 17:21:25.582642-07:00,881.4,1009.9,1315.1,991.9,752.1,470.3,1825.5,1609.6,3468.6,3472.2,801.0,939.8,413.7,3497.8,1202.7,937.3,3474.6,3474.6,380.2,581.8,413.7,515.5,264.5,264.5,3481.9,3479.5,742.2,480.6,916.0,1290.9,1785.8,616.5,5.0,192.0,-18.0,11226.0,9281.0,6601.0,3563.0,349.0,-225.0,-120.0,12.0,128.0,0.0,10498.0,9755.0,-3591.0,-7083.0,37.0,-11.0,-603.0,1.0
2022-05-08 17:21:25.642807-07:00,881.4,1009.9,1316.0,991.0,752.1,470.3,1818.7,1559.0,3468.6,3472.2,798.5,939.0,413.7,3497.8,1183.2,933.0,3478.3,3474.6,380.2,581.8,407.5,509.9,264.5,264.5,3479.5,3473.4,742.2,480.6,894.9,1293.6,1785.8,616.5,44.0,96.0,5.0,11242.0,9295.0,6627.0,3426.0,22.0,-76.0,-265.0,25.0,103.0,-35.0,10360.0,9804.0,-3429.0,-7297.0,-24.0,-124.0,-809.0,1.0
2022-05-08 17:21:25.703544-07:00,878.9,1004.8,1316.0,991.0,758.7,474.3,1818.7,1559.0,3466.1,3467.4,798.5,939.0,415.3,3499.0,1183.2,933.0,3478.3,3474.6,373.2,590.7,407.5,509.9,262.2,260.7,3479.5,3473.4,737.3,482.2,894.9,1293.6,1776.2,617.3,6.0,-58.0,-8.0,11252.0,9270.0,6688.0,3339.0,184.0,-53.0,-257.0,6.0,-40.0,-8.0,10206.0,9860.0,-3230.0,-7525.0,7.0,25.0,-789.0,1.0
2022-05-08 17:21:25.733026-07:00,878.9,1004.8,1305.2,999.6,758.7,474.3,1810.0,1536.6,3466.1,3467.4,786.1,944.1,415.3,3496.6,1178.8,932.2,3473.4,3472.2,377.0,590.7,415.3,513.9,262.2,260.7,3467.4,3477.1,738.1,482.2,884.8,1296.3,1776.2,617.3,-13.0,-71.0,-22.0,11239.0,9283.0,6749.0,3225.0,-16.0,-45.0,-219.0,4.0,-68.0,4.0,10065.0,9900.0,-3038.0,-7738.0,-98.0,-49.0,-700.0,1.0
2022-05-08 17:21:25.793022-07:00,880.6,1002.2,1310.6,999.6,757.9,474.3,1810.0,1536.6,3478.3,3478.3,782.7,944.1,417.6,3496.6,1178.8,932.2,3473.4,3472.2,377.0,595.5,415.3,517.1,261.4,263.0,3467.4,3477.1,738.1,479.8,884.8,1285.5,1756.0,605.2,19.0,-147.0,10.0,11307.0,9203.0,6775.0,3163.0,-95.0,-69.0,-286.0,53.0,-124.0,5.0,9973.0,9896.0,-2880.0,-7921.0,-121.0,-70.0,-493.0,1.0
2022-05-08 17:21:25.823313-07:00,880.6,1002.2,1310.6,997.9,757.9,473.5,1803.2,1520.8,3478.3,3478.3,782.7,946.6,417.6,3495.3,1173.5,932.2,3483.2,3483.2,380.2,595.5,417.6,517.1,261.4,263.0,3475.9,3473.4,732.3,479.8,878.0,1285.5,1756.0,605.2,37.0,-90.0,4.0,11327.0,9186.0,6823.0,3034.0,176.0,-107.0,-224.0,48.0,-47.0,-16.0,9894.0,9911.0,-2772.0,-8040.0,-9.0,-31.0,-359.0,1.0
2022-05-08 17:21:25.883012-07:00,876.4,996.2,1306.1,997.9,763.7,473.5,1803.2,1520.8,3472.2,3474.6,774.5,946.6,419.2,3495.3,1173.5,932.2,3483.2,3483.2,380.2,595.5,417.6,509.9,259.2,259.9,3475.9,3473.4,732.3,480.6,878.0,1293.6,1774.3,596.3,56.0,-77.0,9.0,11328.0,9206.0,6833.0,2946.0,45.0,-107.0,-122.0,63.0,-74.0,-11.0,9833.0,9919.0,-2711.0,-8124.0,-30.0,-50.0,-225.0,1.0
2022-05-08 17:21:25.942989-07:00,876.4,996.2,1306.1,1000.5,763.7,470.3,1778.1,1513.4,3472.2,3474.6,774.5,946.6,419.2,3496.6,1167.4,925.4,3483.2,3475.9,372.4,595.5,414.5,509.9,259.2,259.9,3479.5,3478.3,729.0,480.6,878.9,1293.6,1774.3,596.3,19.0,-74.0,11.0,11355.0,9190.0,6834.0,2890.0,-31.0,-68.0,-85.0,28.0,-40.0,8.0,9820.0,9898.0,-2682.0,-8175.0,-62.0,-59.0,-82.0,1.0
2022-05-08 17:21:26.032949-07:00,875.5,1002.2,1302.5,1000.5,753.8,470.3,1778.1,1513.4,3478.3,3485.6,767.8,946.6,420.8,3496.6,1167.4,925.4,3483.2,3475.9,372.4,591.5,414.5,513.1,256.9,262.2,3479.5,3478.3,729.0,483.0,878.9,1276.5,1761.8,596.3,-10.0,-58.0,16.0,11379.0,9172.0,6818.0,2887.0,-59.0,-41.0,22.0,15.0,-39.0,28.0,9820.0,9876.0,-2684.0,-8201.0,-11.0,-42.0,9.0,1.0
2022-05-08 17:21:26.063230-07:00,875.5,1002.2,1302.5,988.5,758.7,467.1,1766.6,1494.9,3478.3,3485.6,767.8,938.1,420.8,3499.0,1166.5,933.9,3478.3,3469.8,373.2,595.5,416.1,513.1,256.9,262.2,3479.5,3475.9,734.0,478.2,870.5,1276.5,1761.8,596.3,-10.0,-12.0,19.0,11380.0,9188.0,6797.0,2885.0,56.0,-26.0,50.0,9.0,6.0,28.0,9821.0,9871.0,-2699.0,-8200.0,48.0,-1.0,32.0,1.0
2022-05-08 17:21:26.064502-07:00,878.9,996.2,1298.1,1002.2,758.7,467.1,1766.6,1494.9,3478.3,3481.9,768.7,936.4,420.8,3499.0,1166.5,933.9,3478.3,3469.8,373.2,595.5,416.1,518.7,261.4,260.7,3479.5,3475.9,734.0,478.2,859.5,1277.4,1740.6,597.1,7.0,28.0,9.0,11372.0,9210.0,6777.0,2892.0,-21.0,-7.0,39.0,13.0,11.0,16.0,9818.0,9875.0,-2717.0,-8194.0,-2.0,-27.0,23.0,1.0
2022-05-08 17:21:26.122621-07:00,878.9,996.2,1298.1,1002.2,760.4,471.9,1767.5,1490.3,3478.3,3481.9,768.7,936.4,420.8,3507.5,1160.3,926.2,3475.9,3478.3,372.4,591.5,416.1,518.7,261.4,260.7,3478.3,3475.9,729.9,475.8,859.5,1277.4,1740.6,597.1,-3.0,-8.0,20.0,11383.0,9195.0,6776.0,2899.0,-7.0,11.0,-4.0,12.0,-1.0,19.0,9828.0,9863.0,-2721.0,-8195.0,12.0,3.0,9.0,1.0
2022-05-08 17:21:26.182981-07:00,878.0,986.7,1286.4,992.7,760.4,471.9,1767.5,1490.3,3464.9,3472.2,765.3,946.6,420.8,3507.5,1160.3,926.2,3475.9,3478.3,372.4,591.5,416.8,513.1,264.5,262.2,3478.3,3475.9,729.9,475.8,865.4,1274.7,1734.9,597.1,-1.0,3.0,14.0,11375.0,9199.0,6781.0,2904.0,12.0,33.0,-1.0,18.0,-9.0,17.0,9830.0,9862.0,-2725.0,-8193.0,-7.0,13.0,3.0,1.0
2022-05-08 17:21:26.243106-07:00,878.0,986.7,1286.4,992.7,754.6,467.9,1748.3,1484.7,3464.9,3472.2,765.3,946.6,416.8,3483.2,1159.4,922.8,3475.9,3483.2,373.9,595.5,416.8,513.1,264.5,262.2,3483.2,3481.9,729.0,475.0,865.4,1274.7,1734.9,597.1,4.0,-3.0,8.0,11370.0,9200.0,6789.0,2901.0,25.0,15.0,-2.0,13.0,5.0,7.0,9836.0,9865.0,-2720.0,-8183.0,5.0,28.0,14.0,1.0
2022-05-08 17:21:26.272933-07:00,871.3,986.7,1293.6,994.5,754.6,467.9,1748.3,1484.7,3469.8,3467.4,762.0,942.4,416.8,3483.2,1159.4,922.8,3475.9,3483.2,373.9,595.5,416.1,513.1,262.2,259.9,3483.2,3481.9,729.0,475.0,862.1,1273.9,1742.6,589.1,0.0,-20.0,16.0,11360.0,9194.0,6807.0,2919.0,6.0,77.0,2.0,16.0,-15.0,23.0,9846.0,9866.0,-2721.0,-8171.0,-2.0,30.0,28.0,1.0
2022-05-08 17:21:26.333661-07:00,878.9,986.7,1293.6,994.5,756.3,473.5,1752.1,1475.5,3478.3,3467.4,762.0,942.4,412.1,3496.6,1151.5,923.7,3473.4,3472.2,373.2,595.5,416.1,513.1,262.2,259.9,3490.5,3485.6,729.9,473.5,862.1,1273.9,1742.6,589.1,0.0,0.0,0.0,11346.0,9196.0,6822.0,2929.0,16.0,42.0,27.0,10.0,7.0,7.0,9862.0,9868.0,-2720.0,-8148.0,1.0,50.0,44.0,1.0
2022-05-08 17:21:26.393038-07:00,878.9,984.2,1294.5,994.5,756.3,473.5,1752.1,1478.3,3478.3,3471.0,770.3,938.1,412.1,3496.6,1151.5,921.1,3475.9,3472.2,373.2,595.5,412.9,510.7,264.5,259.9,3481.9,3485.6,729.9,473.5,857.9,1273.9,1733.0,589.1,10.0,-3.0,-3.0,11339.0,9194.0,6825.0,2960.0,-24.0,62.0,36.0,10.0,-4.0,-4.0,9876.0,9872.0,-2724.0,-8126.0,-3.0,24.0,49.0,1.0
2022-05-08 17:21:26.423079-07:00,876.4,984.2,1294.5,994.5,751.3,466.4,1740.6,1478.3,3472.2,3471.0,770.3,938.1,420.0,3497.8,1149.8,921.1,3475.9,3477.1,374.7,594.7,412.9,510.7,264.5,259.2,3481.9,3483.2,724.1,480.6,857.9,1273.9,1733.0,591.5,-1.0,15.0,-13.0,11329.0,9197.0,6829.0,2977.0,4.0,8.0,21.0,1.0,10.0,-2.0,9885.0,9873.0,-2729.0,-8111.0,5.0,9.0,29.0,1.0
2022-05-08 17:21:26.483034-07:00,876.4,983.3,1290.0,997.0,751.3,466.4,1740.6,1463.5,3472.2,3474.6,763.7,942.4,420.0,3497.8,1149.8,916.9,3478.3,3477.1,374.7,594.7,413.7,509.1,261.4,259.2,3490.5,3483.2,724.1,480.6,875.5,1271.2,1735.8,591.5,12.0,13.0,-3.0,11327.0,9200.0,6826.0,2981.0,12.0,5.0,-7.0,5.0,6.0,-11.0,9887.0,9871.0,-2735.0,-8110.0,-6.0,-14.0,-2.0,1.0
