Time,P0,P1,P2,P3,P4,P5,P6,P7,P8,P9,P10,P11,P12,P13,P14,P15,P16,P17,P18,P19,P20,P21,P22,P23,P24,P25,P26,P27,P28,P29,P30,P31,ECG,AX0,AY0,AZ0,QW0,QX0,QY0,QZ0,GX0,GY0,GZ0,AX1,AY1,AZ1,QW1,QX1,QY1,QZ1,GX1,GY1,GZ1
2022-05-08 14:18:14.426896-07:00,707.7,805.2,852.0,1018.5,377.0,352.2,927.1,790.2,3469.8,3469.8,1404.9,875.5,644.0,3457.6,1361.2,945.8,3437.0,3438.2,409.0,362.3,363.8,366.2,292.1,255.3,3460.1,3462.5,546.6,469.5,484.5,983.3,753.8,433.3,3.0,-26.0,5.0,10144.0,-8601.0,7136.0,-6374.0,18.0,14.0,6.0,-2.0,4.0,3.0,10109.0,-12731.0,1639.0,1220.0,-6.0,2.0,-11.0,1.0
2022-05-08 14:18:14.546443-07:00,711.0,804.4,852.0,1018.5,371.6,356.8,927.1,790.2,3467.4,3472.2,1404.9,875.5,637.6,3474.6,1361.2,945.8,3437.0,3438.2,413.7,355.3,363.8,366.2,299.7,255.3,3460.1,3462.5,557.8,473.5,484.5,983.3,758.7,429.4,0.0,-27.0,3.0,10147.0,-8597.0,7135.0,-6377.0,4.0,13.0,-8.0,2.0,16.0,0.0,10107.0,-12732.0,1638.0,1219.0,-18.0,2.0,-2.0,1.0
2022-05-08 14:18:14.547405-07:00,711.0,804.4,862.1,1021.1,371.6,360.7,925.4,789.4,3467.4,3472.2,1407.6,870.5,637.6,3473.4,1345.8,945.8,3447.9,3449.1,412.1,355.3,363.8,366.2,299.7,255.3,3466.1,3456.4,556.2,473.5,482.2,979.0,758.7,429.4,-2.0,-28.0,-4.0,10148.0,-8591.0,7135.0,-6382.0,28.0,14.0,7.0,2.0,7.0,2.0,10104.0,-12735.0,1638.0,1218.0,8.0,-3.0,2.0,1.0
2022-05-08 14:18:15.627132-07:00,715.1,806.9,854.5,1020.2,373.2,360.0,925.4,792.7,3458.9,3461.3,1393.9,875.5,637.6,3461.3,1338.6,953.4,3449.1,3444.3,410.6,357.6,366.9,367.7,291.3,254.6,3466.1,3464.9,559.4,475.8,484.5,984.2,757.1,436.4,4.0,-27.0,4.0,10146.0,-8575.0,7147.0,-6394.0,15.0,46.0,18.0,8.0,12.0,0.0,10092.0,-12742.0,1657.0,1212.0,-25.0,27.0,16.0,1.0
2022-05-08 14:18:15.628972-07:00,715.1,806.9,854.5,1021.1,373.2,361.5,927.9,789.4,3458.9,3461.3,1393.9,885.6,637.6,3468.6,1339.5,946.6,3441.9,3435.8,412.1,357.6,372.4,367.7,291.3,254.6,3464.9,3452.8,557.0,475.8,479.8,984.2,757.1,436.4,-3.0,-28.0,-2.0,10146.0,-8525.0,7174.0,-6431.0,9.0,-11.0,-7.0,0.0,11.0,1.0,10092.0,-12736.0,1693.0,1235.0,12.0,-16.0,-8.0,1.0
2022-05-08 14:18:15.656676-07:00,710.1,808.5,850.3,1020.2,372.4,355.3,928.8,795.2,3462.5,3460.1,1372.1,880.6,645.7,3464.9,1330.5,949.2,3446.7,3438.2,412.9,359.2,370.8,367.7,296.7,259.9,3447.9,3455.2,557.0,471.9,486.9,984.2,758.7,432.5,-3.0,-24.0,2.0,10149.0,-8523.0,7171.0,-6432.0,16.0,10.0,-4.0,0.0,14.0,1.0,10096.0,-12732.0,1689.0,1240.0,16.0,-20.0,1.0,1.0
2022-05-08 14:18:15.776877-07:00,714.2,802.7,849.5,1019.4,377.0,352.2,933.0,787.7,3468.6,3466.1,1367.6,879.7,639.2,3472.2,1329.6,946.6,3440.7,3439.5,413.7,360.0,370.0,369.3,292.1,256.9,3463.7,3462.5,553.8,468.7,482.2,979.9,758.7,429.4,-1.0,-32.0,-6.0,10144.0,-8523.0,7168.0,-6442.0,8.0,-1.0,-4.0,1.0,14.0,1.0,10099.0,-12732.0,1679.0,1236.0,11.0,-14.0,-15.0,1.0
2022-05-08 14:18:15.779165-07:00,714.2,800.2,844.4,1023.7,370.8,351.4,924.5,783.6,3457.6,3462.5,1363.9,874.7,636.7,3464.9,1327.8,950.0,3450.4,3437.0,412.1,361.5,370.0,365.4,294.4,256.1,3457.6,3447.9,560.2,468.7,476.6,981.6,757.9,435.7,-2.0,-21.0,-7.0,10145.0,-8516.0,7167.0,-6452.0,8.0,23.0,4.0,-1.0,13.0,2.0,10096.0,-12738.0,1658.0,1226.0,-1.0,14.0,15.0,1.0
2022-05-08 14:18:15.781148-07:00,707.7,797.7,844.4,1023.7,373.9,352.2,921.1,783.6,3467.4,3466.1,1363.9,874.7,639.2,3467.4,1327.8,950.0,3450.4,3438.2,415.3,356.8,370.0,365.4,291.3,252.3,3457.6,3462.5,549.8,453.0,476.6,981.6,755.4,433.3,1.0,-26.0,-2.0,10143.0,-8513.0,7171.0,-6454.0,4.0,22.0,11.0,0.0,9.0,-2.0,10095.0,-12738.0,1663.0,1225.0,0.0,5.0,11.0,1.0
2022-05-08 14:18:17.696737-07:00,707.7,797.7,844.4,1019.4,373.9,352.2,927.1,783.6,3467.4,3466.1,1369.4,877.2,639.2,3467.4,1327.8,939.0,3433.4,3439.5,415.3,356.8,364.6,369.3,291.3,252.3,3445.5,3468.6,549.8,453.0,483.0,980.7,755.4,433.3,-1.0,-31.0,-9.0,10141.0,-8511.0,7175.0,-6456.0,-2.0,6.0,4.0,0.0,13.0,0.0,10095.0,-12738.0,1664.0,1226.0,2.0,0.0,8.0,1.0
2022-05-08 14:18:17.756309-07:00,707.7,797.7,844.4,1019.4,374.7,353.0,927.1,783.6,3468.6,3457.6,1369.4,877.2,636.7,3463.7,1327.8,939.0,3433.4,3439.5,417.6,364.6,364.6,369.3,290.5,253.1,3445.5,3468.6,557.8,469.5,483.0,980.7,755.4,438.0,-1.0,-30.0,-7.0,10141.0,-8511.0,7175.0,-6456.0,5.0,-2.0,5.0,1.0,15.0,-2.0,10095.0,-12738.0,1664.0,1226.0,8.0,-7.0,6.0,1.0
2022-05-08 14:18:17.757645-07:00,707.7,797.7,849.5,1019.4,374.7,353.0,926.2,790.2,3468.6,3457.6,1364.8,871.3,636.7,3463.7,1327.8,945.8,3441.9,3437.0,417.6,364.6,367.7,363.8,290.5,253.1,3458.9,3458.9,557.8,469.5,482.2,984.2,755.4,438.0,0.0,-26.0,-2.0,10142.0,-8510.0,7174.0,-6457.0,5.0,2.0,1.0,-1.0,12.0,0.0,10098.0,-12736.0,1664.0,1226.0,10.0,-9.0,6.0,1.0
2022-05-08 14:18:17.758386-07:00,711.0,806.0,849.5,1019.4,375.5,354.5,926.2,790.2,3461.3,3464.9,1364.8,871.3,634.3,3471.0,1327.8,945.8,3441.9,3437.0,420.8,359.2,367.7,363.8,295.1,257.6,3458.9,3458.9,557.0,466.4,482.2,984.2,757.9,438.8,-1.0,-26.0,0.0,10142.0,-8510.0,7174.0,-6457.0,6.0,8.0,2.0,2.0,11.0,2.0,10098.0,-12735.0,1664.0,1226.0,0.0,-3.0,5.0,1.0
2022-05-08 14:18:17.786219-07:00,711.0,806.0,847.8,1014.2,375.5,354.5,924.5,805.2,3461.3,3464.9,1353.1,878.0,634.3,3471.0,1325.0,953.4,3449.1,3449.1,420.8,359.2,366.9,364.6,295.1,257.6,3463.7,3462.5,557.0,466.4,479.8,979.0,757.9,438.8,0.0,-28.0,-5.0,10142.0,-8510.0,7174.0,-6457.0,-4.0,3.0,4.0,3.0,13.0,-2.0,10098.0,-12735.0,1664.0,1226.0,-8.0,4.0,1.0,1.0
2022-05-08 14:18:17.786983-07:00,711.0,806.0,847.8,1014.2,375.5,354.5,924.5,805.2,3461.3,3464.9,1353.1,878.0,634.3,3471.0,1325.0,953.4,3449.1,3449.1,420.8,359.2,366.9,364.6,295.1,257.6,3463.7,3462.5,557.0,466.4,479.8,979.0,757.9,438.8,0.0,-28.0,-5.0,10142.0,-8510.0,7174.0,-6457.0,-4.0,3.0,4.0,3.0,13.0,-2.0,10098.0,-12735.0,1664.0,1226.0,-8.0,4.0,1.0,1.0
2022-05-08 14:18:17.787940-07:00,708.5,803.5,862.9,1024.5,368.5,349.9,920.3,791.0,3463.7,3463.7,1351.2,875.5,639.2,3468.6,1322.3,944.9,3450.4,3450.4,409.8,360.0,363.8,364.6,289.0,252.3,3463.7,3464.9,553.8,460.0,483.7,993.6,787.7,433.3,-5.0,-24.0,-24.0,10128.0,-8524.0,7160.0,-6476.0,-19.0,6.0,4.0,-6.0,6.0,9.0,10134.0,-12714.0,1614.0,1224.0,28.0,-19.0,2.0,1.0
2022-05-08 14:18:17.846076-07:00,708.5,803.5,862.9,1024.5,371.6,355.3,941.5,791.0,3463.7,3463.7,1351.2,875.5,634.3,3473.4,1320.5,944.1,3433.4,3443.1,410.6,358.4,363.8,364.6,289.0,252.3,3460.1,3454.0,555.4,463.2,483.7,993.6,787.7,433.3,-9.0,-21.0,-16.0,10127.0,-8525.0,7157.0,-6479.0,23.0,-6.0,-9.0,5.0,10.0,11.0,10144.0,-12705.0,1616.0,1226.0,51.0,1.0,4.0,1.0
2022-05-08 14:18:17.876195-07:00,709.3,797.7,979.9,1032.3,371.6,355.3,941.5,791.0,3469.8,3461.3,1393.9,873.8,634.3,3473.4,1320.5,944.1,3433.4,3443.1,410.6,358.4,367.7,359.2,295.9,251.5,3460.1,3454.0,555.4,463.2,483.7,1012.5,944.9,435.7,1.0,-25.0,1.0,10130.0,-8515.0,7157.0,-6488.0,11.0,23.0,4.0,4.0,10.0,4.0,10161.0,-12691.0,1619.0,1228.0,42.0,-3.0,13.0,1.0
2022-05-08 14:18:18.356171-07:00,709.3,797.7,979.9,1032.3,372.4,356.8,923.7,784.4,3469.8,3461.3,1393.9,873.8,640.0,3466.1,1331.4,945.8,3443.1,3441.9,414.5,360.0,367.7,359.2,295.9,251.5,3461.3,3460.1,566.6,462.4,483.7,1012.5,944.9,435.7,0.0,-24.0,1.0,10132.0,-8503.0,7156.0,-6500.0,56.0,32.0,-11.0,-3.0,4.0,1.0,10171.0,-12682.0,1626.0,1231.0,29.0,1.0,20.0,1.0
2022-05-08 14:18:18.866227-07:00,709.3,796.0,1078.2,1028.0,372.4,356.8,923.7,793.5,3457.6,3467.4,1495.8,880.6,640.0,3466.1,1331.4,951.7,3449.1,3441.9,414.5,360.0,370.0,360.7,292.8,259.9,3468.6,3460.1,566.6,462.4,492.5,1044.4,1025.4,439.6,-2.0,-23.0,-7.0,10142.0,-8478.0,7153.0,-6522.0,42.0,26.0,-6.0,0.0,15.0,6.0,10197.0,-12659.0,1633.0,1239.0,62.0,-18.0,23.0,1.0
2022-05-08 14:18:18.867178-07:00,711.0,796.0,1078.2,1028.0,366.9,356.1,922.0,793.5,3457.6,3467.4,1495.8,880.6,638.4,3468.6,1376.6,951.7,3449.1,3447.9,409.0,361.5,370.0,360.7,292.8,254.6,3468.6,3466.1,569.0,475.0,492.5,1044.4,1025.4,437.2,0.0,-18.0,-7.0,10151.0,-8458.0,7134.0,-6555.0,143.0,28.0,-75.0,-5.0,16.0,-9.0,10224.0,-12636.0,1637.0,1248.0,110.0,-32.0,14.0,1.0
2022-05-08 14:18:18.868458-07:00,711.0,799.4,1170.9,1044.4,366.9,356.1,922.0,784.4,3457.6,3462.5,1796.5,912.7,638.4,3468.6,1376.6,952.6,3440.7,3447.9,409.0,361.5,364.6,363.1,297.4,254.6,3463.7,3466.1,569.0,475.0,488.5,1077.3,1074.7,437.2,-18.0,-37.0,3.0,10158.0,-8414.0,7105.0,-6632.0,204.0,91.0,-92.0,-4.0,21.0,24.0,10282.0,-12589.0,1627.0,1263.0,210.0,-76.0,6.0,1.0
2022-05-08 14:18:18.869745-07:00,709.3,799.4,1170.9,1044.4,376.3,358.4,923.7,784.4,3462.5,3462.5,1796.5,912.7,647.3,3460.1,1506.9,952.6,3440.7,3438.2,416.1,359.2,364.6,363.1,297.4,258.4,3463.7,3450.4,569.0,483.0,488.5,1077.3,1074.7,435.7,2.0,-39.0,-6.0,10156.0,-8393.0,7083.0,-6684.0,47.0,79.0,-71.0,3.0,1.0,-12.0,10350.0,-12532.0,1618.0,1285.0,154.0,-78.0,26.0,1.0
2022-05-08 14:18:18.956156-07:00,709.3,795.2,1223.9,1041.8,376.3,358.4,923.7,786.1,3462.5,3466.1,2110.8,933.9,647.3,3460.1,1506.9,969.6,3449.1,3438.2,416.1,359.2,365.4,365.4,296.7,258.4,3457.6,3450.4,569.0,483.0,486.1,1112.1,1083.4,435.7,0.0,-27.0,-11.0,10146.0,-8351.0,7081.0,-6754.0,137.0,135.0,-52.0,0.0,26.0,2.0,10430.0,-12464.0,1611.0,1299.0,239.0,-51.0,-9.0,1.0
2022-05-08 14:18:18.956933-07:00,709.3,795.2,1223.9,1041.8,376.3,358.4,923.7,786.1,3462.5,3466.1,2110.8,933.9,647.3,3460.1,1506.9,969.6,3449.1,3438.2,416.1,359.2,365.4,365.4,296.7,258.4,3457.6,3450.4,569.0,483.0,486.1,1112.1,1083.4,435.7,0.0,-27.0,-11.0,10146.0,-8351.0,7081.0,-6754.0,137.0,135.0,-52.0,0.0,26.0,2.0,10430.0,-12464.0,1611.0,1299.0,239.0,-51.0,-9.0,1.0
2022-05-08 14:18:18.957553-07:00,709.3,795.2,1223.9,1041.8,376.3,358.4,923.7,786.1,3462.5,3466.1,2110.8,933.9,647.3,3460.1,1506.9,969.6,3449.1,3438.2,416.1,359.2,365.4,365.4,296.7,258.4,3457.6,3450.4,569.0,483.0,486.1,1112.1,1083.4,435.7,0.0,-27.0,-11.0,10146.0,-8351.0,7081.0,-6754.0,137.0,135.0,-52.0,0.0,26.0,2.0,10430.0,-12464.0,1611.0,1299.0,239.0,-51.0,-9.0,1.0
2022-05-08 14:18:18.958392-07:00,717.5,805.2,1246.2,1171.8,373.9,371.6,944.9,863.7,3473.4,3471.0,2261.0,1072.1,765.3,3463.7,2187.1,1090.3,3439.5,3449.1,415.3,359.2,364.6,363.8,311.3,315.1,3457.6,3461.3,576.2,479.8,509.9,1216.8,1056.5,435.7,-12.0,-22.0,-16.0,10032.0,-7719.0,7451.0,-7258.0,91.0,80.0,20.0,0.0,20.0,12.0,10606.0,-12296.0,1787.0,1250.0,-35.0,43.0,66.0,1.0
2022-05-08 14:18:18.986124-07:00,717.5,805.2,1246.2,1171.8,376.3,366.2,984.2,886.5,3473.4,3471.0,2261.0,1072.1,773.6,3464.9,2189.1,1096.4,3437.0,3441.9,415.3,357.6,364.6,363.8,311.3,315.1,3457.6,3456.4,585.9,475.0,509.9,1216.8,1056.5,435.7,9.0,-32.0,3.0,10043.0,-7694.0,7447.0,-7273.0,63.0,39.0,13.0,-3.0,16.0,-24.0,10584.0,-12309.0,1815.0,1271.0,-83.0,-7.0,74.0,1.0
2022-05-08 14:18:19.015945-07:00,715.1,809.4,1228.4,1164.7,376.3,366.2,984.2,886.5,3467.4,3461.3,2226.0,1069.5,773.6,3464.9,2189.1,1096.4,3437.0,3441.9,415.3,357.6,370.8,365.4,313.6,311.3,3457.6,3456.4,585.9,475.0,508.3,1213.3,1043.5,434.9,6.0,-38.0,-11.0,10055.0,-7631.0,7466.0,-7304.0,103.0,123.0,71.0,9.0,4.0,4.0,10567.0,-12315.0,1853.0,1295.0,-79.0,105.0,84.0,1.0
2022-05-08 14:18:19.106720-07:00,715.1,809.4,1228.4,1164.7,374.7,360.0,1054.8,931.3,3467.4,3461.3,2226.0,1069.5,787.7,3463.7,2151.4,1107.8,3438.2,3446.7,414.5,357.6,370.8,365.4,313.6,311.3,3463.7,3455.2,580.2,478.2,508.3,1213.3,1043.5,434.9,22.0,-31.0,0.0,10060.0,-7607.0,7503.0,-7285.0,-84.0,73.0,122.0,18.0,38.0,-18.0,10528.0,-12338.0,1911.0,1307.0,-185.0,101.0,110.0,1.0
2022-05-08 14:18:19.166437-07:00,722.5,822.7,1210.6,1144.5,374.7,360.0,1054.8,931.3,3447.9,3460.1,2203.4,1077.3,787.7,3463.7,2151.4,1107.8,3438.2,3446.7,414.5,357.6,369.3,365.4,315.1,318.2,3463.7,3455.2,580.2,478.2,502.0,1221.3,1043.5,438.0,-15.0,-17.0,-2.0,10045.0,-7570.0,7570.0,-7274.0,-10.0,146.0,117.0,-10.0,18.0,25.0,10471.0,-12377.0,1988.0,1288.0,-89.0,169.0,99.0,1.0
2022-05-08 14:18:19.196040-07:00,722.5,822.7,1210.6,1144.5,387.9,358.4,1133.1,985.9,3447.9,3460.1,2203.4,1077.3,798.5,3462.5,2180.9,1118.2,3433.4,3441.9,415.3,361.5,369.3,365.4,315.1,318.2,3458.9,3457.6,602.0,476.6,502.0,1221.3,1043.5,438.0,0.0,-16.0,-23.0,10041.0,-7536.0,7615.0,-7270.0,-49.0,95.0,86.0,-1.0,21.0,-18.0,10435.0,-12399.0,2049.0,1273.0,-84.0,104.0,77.0,1.0
2022-05-08 14:18:19.436177-07:00,729.0,836.1,1200.0,1154.2,387.9,358.4,1133.1,985.9,3468.6,3462.5,2167.7,1095.6,798.5,3462.5,2180.9,1118.2,3433.4,3441.9,415.3,361.5,366.2,363.1,307.4,317.4,3458.9,3457.6,602.0,476.6,512.3,1207.1,1040.9,440.4,-2.0,-41.0,0.0,9992.0,-7565.0,7683.0,-7235.0,-190.0,67.0,27.0,-3.0,-9.0,15.0,10359.0,-12455.0,2110.0,1246.0,-195.0,195.0,65.0,1.0
2022-05-08 14:18:19.466061-07:00,731.5,836.1,1200.0,1154.2,390.3,364.6,1147.1,1007.3,3471.0,3462.5,2167.7,1095.6,833.6,3474.6,2182.0,1141.0,3454.0,3437.0,416.8,360.7,366.2,363.1,307.4,312.8,3458.9,3468.6,583.5,484.5,512.3,1207.1,1040.9,449.0,1.0,0.0,-36.0,9975.0,-7551.0,7730.0,-7223.0,42.0,87.0,74.0,4.0,12.0,-2.0,10338.0,-12467.0,2146.0,1234.0,65.0,56.0,44.0,1.0
2022-05-08 14:18:19.467057-07:00,731.5,868.8,1188.5,1155.0,390.3,364.6,1147.1,1003.9,3471.0,3473.4,2114.9,1105.1,833.6,3474.6,2182.0,1143.6,3441.9,3437.0,416.8,360.7,360.7,364.6,307.4,312.8,3457.6,3468.6,583.5,484.5,509.1,1204.4,1018.5,449.0,-1.0,-38.0,-9.0,9967.0,-7529.0,7765.0,-7219.0,-16.0,67.0,79.0,0.0,3.0,2.0,10329.0,-12472.0,2172.0,1215.0,15.0,91.0,18.0,1.0
2022-05-08 14:18:19.526869-07:00,734.8,868.8,1188.5,1155.0,382.5,361.5,1141.9,1003.9,3458.9,3473.4,2114.9,1105.1,822.7,3462.5,2174.8,1143.6,3441.9,3433.4,412.9,361.5,360.7,364.6,307.4,324.4,3457.6,3462.5,578.6,476.6,509.1,1204.4,1018.5,449.0,4.0,-31.0,2.0,9962.0,-7506.0,7802.0,-7210.0,-19.0,88.0,59.0,0.0,4.0,0.0,10331.0,-12468.0,2195.0,1195.0,4.0,52.0,4.0,1.0
2022-05-08 14:18:19.527626-07:00,734.8,864.6,1185.0,1139.2,382.5,361.5,1141.9,1000.5,3458.9,3460.1,2062.5,1101.7,822.7,3462.5,2174.8,1139.2,3435.8,3433.4,412.9,361.5,366.2,360.7,309.0,324.4,3463.7,3462.5,578.6,476.6,505.9,1203.5,1020.2,449.0,-5.0,-6.0,-2.0,9941.0,-7475.0,7849.0,-7219.0,-29.0,143.0,21.0,-4.0,9.0,24.0,10321.0,-12475.0,2215.0,1174.0,-46.0,94.0,0.0,1.0
2022-05-08 14:18:19.556119-07:00,724.9,864.6,1185.0,1139.2,384.8,360.7,1153.3,1000.5,3463.7,3460.1,2062.5,1101.7,836.9,3464.9,2150.4,1139.2,3435.8,3438.2,409.8,358.4,366.2,360.7,309.0,324.4,3463.7,3468.6,587.5,479.8,505.9,1203.5,1020.2,451.4,-5.0,-33.0,-19.0,9920.0,-7472.0,7870.0,-7230.0,6.0,-23.0,-34.0,4.0,4.0,3.0,10310.0,-12483.0,2223.0,1165.0,8.0,0.0,-4.0,1.0
2022-05-08 14:18:19.646802-07:00,724.9,871.3,1184.1,1134.9,384.8,360.7,1153.3,992.7,3463.7,3463.7,2052.4,1099.0,836.9,3464.9,2150.4,1134.9,3441.9,3438.2,409.8,358.4,363.1,363.8,309.0,324.4,3447.9,3468.6,587.5,479.8,505.9,1192.9,1004.8,451.4,13.0,-21.0,-14.0,9914.0,-7483.0,7865.0,-7232.0,4.0,30.0,4.0,0.0,9.0,0.0,10310.0,-12485.0,2221.0,1160.0,0.0,32.0,-11.0,1.0
2022-05-08 14:18:19.647804-07:00,726.6,867.9,1184.1,1134.9,387.2,361.5,1131.4,992.7,3475.9,3468.6,2052.4,1099.0,837.7,3462.5,2129.0,1134.9,3441.9,3435.8,409.0,358.4,363.1,363.8,309.0,315.9,3447.9,3463.7,573.8,478.2,505.9,1192.9,997.0,445.9,-3.0,-41.0,-3.0,9907.0,-7488.0,7866.0,-7236.0,11.0,2.0,-10.0,2.0,15.0,-22.0,10308.0,-12488.0,2215.0,1155.0,1.0,-5.0,-14.0,1.0
2022-05-08 14:18:19.649111-07:00,726.6,867.9,1178.8,1137.5,387.2,361.5,1120.0,994.5,3475.9,3468.6,2041.4,1102.5,837.7,3462.5,2128.0,1133.1,3444.3,3444.3,409.0,358.4,367.7,364.6,309.0,315.9,3462.5,3464.9,573.8,478.2,504.4,1193.8,997.0,445.9,7.0,-27.0,4.0,9900.0,-7486.0,7874.0,-7238.0,-25.0,59.0,27.0,-3.0,16.0,3.0,10302.0,-12493.0,2219.0,1147.0,-17.0,38.0,1.0,1.0
2022-05-08 14:18:19.676172-07:00,720.8,870.5,1178.8,1137.5,384.0,354.5,1120.0,994.5,3464.9,3473.4,2041.4,1102.5,831.1,3456.4,2128.0,1133.1,3444.3,3444.3,418.4,360.7,367.7,364.6,305.1,320.5,3462.5,3464.9,577.0,471.9,504.4,1193.8,1009.9,447.4,0.0,-17.0,-6.0,9888.0,-7484.0,7891.0,-7238.0,-9.0,3.0,-10.0,0.0,9.0,7.0,10292.0,-12501.0,2223.0,1139.0,-15.0,9.0,-3.0,1.0
2022-05-08 14:18:19.796229-07:00,720.8,870.5,1191.2,1127.9,384.0,354.5,1121.7,986.7,3464.9,3473.4,2024.4,1098.2,831.1,3456.4,2109.8,1133.1,3440.7,3434.6,418.4,360.7,364.6,363.8,305.1,320.5,3457.6,3464.9,577.0,471.9,498.8,1189.4,1009.9,447.4,8.0,-9.0,-6.0,9884.0,-7483.0,7893.0,-7241.0,8.0,30.0,-8.0,4.0,28.0,0.0,10291.0,-12502.0,2221.0,1138.0,-12.0,0.0,-15.0,1.0
2022-05-08 14:18:19.797240-07:00,722.5,870.5,1191.2,1127.9,384.8,357.6,1121.7,986.7,3473.4,3467.4,2024.4,1098.2,830.2,3463.7,2109.8,1133.1,3440.7,3434.6,415.3,360.7,364.6,363.8,300.5,315.1,3457.6,3464.9,586.7,475.8,498.8,1189.4,1003.9,441.2,0.0,-17.0,-14.0,9873.0,-7480.0,7899.0,-7254.0,6.0,34.0,-26.0,0.0,7.0,4.0,10286.0,-12508.0,2214.0,1132.0,-27.0,7.0,-29.0,1.0
2022-05-08 14:18:20.036072-07:00,722.5,870.5,1170.9,1127.0,384.8,357.6,1122.6,987.6,3473.4,3467.4,2012.4,1092.9,830.2,3463.7,2095.7,1127.9,3449.1,3434.6,415.3,360.7,370.0,365.4,300.5,315.1,3461.3,3457.6,586.7,475.8,499.6,1188.5,1003.9,441.2,-1.0,-23.0,-10.0,9865.0,-7480.0,7897.0,-7267.0,9.0,3.0,-31.0,0.0,14.0,0.0,10285.0,-12511.0,2204.0,1124.0,-8.0,2.0,-25.0,1.0
2022-05-08 14:18:20.037039-07:00,725.8,867.1,1170.9,1127.0,381.7,357.6,1122.6,987.6,3457.6,3467.4,2012.4,1092.9,825.2,3463.7,2095.7,1127.9,3449.1,3434.6,416.1,359.2,370.0,365.4,302.8,319.7,3461.3,3457.6,578.6,472.7,499.6,1188.5,1007.3,450.6,12.0,-34.0,-2.0,9862.0,-7488.0,7891.0,-7270.0,11.0,4.0,6.0,4.0,7.0,-7.0,10285.0,-12513.0,2200.0,1121.0,6.0,-9.0,-9.0,1.0
2022-05-08 14:18:20.038162-07:00,725.8,867.1,1170.9,1127.9,381.7,349.9,1114.7,984.2,3457.6,3467.4,1993.5,1086.0,825.2,3468.6,2081.6,1127.9,3440.7,3438.2,414.5,359.2,373.9,360.7,302.8,319.7,3466.1,3460.1,574.6,472.7,491.7,1192.9,1007.3,450.6,5.0,-18.0,-6.0,9859.0,-7486.0,7893.0,-7272.0,0.0,3.0,0.0,3.0,9.0,-1.0,10285.0,-12513.0,2200.0,1121.0,-7.0,-1.0,-8.0,1.0
2022-05-08 14:18:20.039437-07:00,720.8,857.9,1167.4,1127.9,378.6,349.9,1114.7,984.2,3456.4,3457.6,1990.5,1086.0,821.9,3468.6,2081.6,1127.9,3440.7,3438.2,414.5,363.1,373.9,366.2,305.9,317.4,3466.1,3460.1,574.6,471.1,491.7,1187.6,1000.5,445.1,1.0,-10.0,-4.0,9858.0,-7488.0,7893.0,-7272.0,-5.0,15.0,2.0,-6.0,17.0,3.0,10283.0,-12514.0,2199.0,1119.0,-5.0,4.0,-8.0,1.0
2022-05-08 14:18:20.041270-07:00,720.8,857.9,1167.4,1132.2,378.6,356.1,1113.0,985.0,3456.4,3457.6,1990.5,1083.4,821.9,3473.4,2071.5,1121.7,3443.1,3440.7,412.9,363.1,368.5,366.2,305.9,317.4,3458.9,3457.6,573.8,471.1,493.2,1187.6,1000.5,445.1,3.0,-11.0,-7.0,9856.0,-7486.0,7896.0,-7274.0,1.0,-2.0,-11.0,5.0,14.0,5.0,10281.0,-12516.0,2198.0,1119.0,-7.0,-9.0,-9.0,1.0
2022-05-08 14:18:20.186828-07:00,717.5,866.3,1171.8,1132.2,384.0,356.1,1113.0,985.0,3467.4,3455.2,1982.6,1083.4,824.4,3473.4,2071.5,1121.7,3443.1,3440.7,412.9,357.6,368.5,365.4,298.2,312.8,3458.9,3457.6,573.8,469.5,493.2,1181.5,1001.3,449.0,9.0,-23.0,-7.0,9854.0,-7495.0,7887.0,-7277.0,13.0,-11.0,-17.0,2.0,14.0,-10.0,10282.0,-12517.0,2193.0,1116.0,10.0,-11.0,-17.0,1.0
2022-05-08 14:18:20.187787-07:00,717.5,866.3,1171.8,1118.2,384.0,355.3,1109.5,991.0,3467.4,3455.2,1982.6,1085.1,824.4,3457.6,2063.5,1115.6,3445.5,3444.3,412.9,357.6,371.6,365.4,298.2,312.8,3461.3,3458.9,576.2,469.5,502.8,1181.5,1001.3,449.0,5.0,-36.0,-3.0,9855.0,-7497.0,7884.0,-7277.0,-2.0,-9.0,19.0,2.0,8.0,-6.0,10282.0,-12517.0,2191.0,1114.0,-5.0,6.0,1.0,1.0
2022-05-08 14:18:20.189275-07:00,720.8,856.2,1163.8,1118.2,381.7,355.3,1109.5,991.0,3471.0,3464.9,1977.6,1085.1,822.7,3457.6,2063.5,1115.6,3445.5,3444.3,412.9,361.5,371.6,360.7,301.3,317.4,3461.3,3458.9,576.2,471.1,502.8,1177.9,1008.2,440.4,7.0,-10.0,-5.0,9857.0,-7498.0,7884.0,-7273.0,7.0,-1.0,-2.0,5.0,10.0,0.0,10280.0,-12518.0,2191.0,1114.0,-5.0,0.0,-4.0,1.0
2022-05-08 14:18:20.276215-07:00,720.8,856.2,1163.8,1117.4,380.2,353.0,1112.1,985.0,3471.0,3464.9,1977.6,1076.4,815.2,3468.6,2062.5,1118.2,3440.7,3438.2,417.6,360.0,368.5,360.7,301.3,317.4,3456.4,3463.7,573.0,467.9,490.9,1177.9,1008.2,440.4,1.0,-21.0,-2.0,9856.0,-7499.0,7884.0,-7273.0,5.0,-6.0,2.0,1.0,13.0,-5.0,10280.0,-12519.0,2189.0,1114.0,2.0,1.0,-8.0,1.0
2022-05-08 14:18:20.306129-07:00,725.8,859.5,1163.0,1120.0,380.2,353.0,1112.1,985.0,3457.6,3478.3,1971.7,1078.2,815.2,3468.6,2062.5,1118.2,3440.7,3438.2,417.6,360.0,367.7,367.7,305.9,311.3,3456.4,3463.7,573.0,467.9,495.6,1180.6,1002.2,439.6,3.0,-19.0,0.0,9856.0,-7501.0,7882.0,-7272.0,10.0,-1.0,-3.0,1.0,7.0,0.0,10281.0,-12519.0,2188.0,1114.0,3.0,-8.0,-9.0,1.0
2022-05-08 14:18:20.546289-07:00,725.8,859.5,1163.0,1120.0,373.2,347.6,1107.8,982.5,3457.6,3478.3,1971.7,1078.2,815.2,3461.3,2054.4,1117.4,3438.2,3450.4,414.5,356.8,367.7,367.7,305.9,311.3,3468.6,3456.4,571.4,469.5,495.6,1180.6,1002.2,439.6,-2.0,-16.0,-8.0,9856.0,-7502.0,7882.0,-7273.0,-4.0,-7.0,-8.0,0.0,11.0,2.0,10280.0,-12519.0,2188.0,1114.0,-9.0,2.0,-3.0,1.0
2022-05-08 14:18:20.606913-07:00,725.8,862.9,1153.3,1117.4,373.2,347.6,1107.8,982.5,3472.2,3467.4,1970.7,1077.3,815.2,3461.3,2054.4,1117.4,3438.2,3450.4,414.5,356.8,362.3,363.8,303.6,318.2,3468.6,3456.4,571.4,469.5,496.4,1182.3,991.0,445.9,6.0,-22.0,0.0,9857.0,-7504.0,7880.0,-7270.0,0.0,5.0,12.0,2.0,6.0,-3.0,10280.0,-12519.0,2188.0,1114.0,6.0,-3.0,0.0,1.0
2022-05-08 14:18:20.696185-07:00,725.8,862.9,1153.3,1117.4,376.3,353.0,1112.1,979.0,3472.2,3467.4,1970.7,1077.3,811.0,3468.6,2048.4,1114.7,3438.2,3437.0,414.5,356.8,362.3,363.8,303.6,318.2,3457.6,3455.2,570.6,467.9,496.4,1182.3,991.0,445.9,-1.0,-12.0,-3.0,9856.0,-7500.0,7885.0,-7271.0,8.0,8.0,0.0,7.0,14.0,3.0,10279.0,-12520.0,2188.0,1114.0,-2.0,-1.0,4.0,1.0
2022-05-08 14:18:20.786077-07:00,720.0,858.7,1159.4,1111.2,376.3,353.0,1112.1,979.0,3468.6,3469.8,1962.8,1070.3,811.0,3468.6,2048.4,1114.7,3438.2,3437.0,414.5,356.8,366.9,369.3,303.6,319.7,3457.6,3455.2,570.6,467.9,492.5,1173.5,997.9,441.9,-4.0,-21.0,-7.0,9853.0,-7499.0,7888.0,-7273.0,-4.0,11.0,3.0,0.0,4.0,5.0,10278.0,-12520.0,2188.0,1114.0,-8.0,9.0,5.0,1.0
2022-05-08 14:18:20.816786-07:00,720.0,858.7,1159.4,1111.2,373.2,353.7,1105.1,980.7,3468.6,3469.8,1962.8,1070.3,811.0,3467.4,2047.4,1108.6,3440.7,3447.9,409.8,357.6,366.9,369.3,303.6,319.7,3467.4,3452.8,566.6,468.7,492.5,1173.5,997.9,441.9,5.0,-16.0,-3.0,9852.0,-7496.0,7893.0,-7273.0,-2.0,21.0,11.0,5.0,15.0,2.0,10278.0,-12520.0,2191.0,1115.0,-6.0,8.0,9.0,1.0
2022-05-08 14:18:20.846796-07:00,715.1,857.0,1159.4,1119.1,373.2,353.7,1105.1,980.7,3455.2,3463.7,1958.8,1076.4,811.0,3467.4,2047.4,1110.4,3439.5,3447.9,409.8,357.6,363.8,364.6,298.2,319.0,3447.9,3452.8,566.6,468.7,493.2,1186.7,1000.5,442.7,0.0,-16.0,-6.0,9848.0,-7492.0,7899.0,-7276.0,-9.0,22.0,1.0,-6.0,10.0,-5.0,10277.0,-12520.0,2195.0,1115.0,-5.0,10.0,11.0,1.0
2022-05-08 14:18:20.847673-07:00,719.2,865.4,1157.7,1108.6,381.7,351.4,1105.1,972.2,3463.7,3462.5,1952.9,1067.7,804.4,3468.6,2048.4,1109.5,3439.5,3443.1,412.9,354.5,369.3,365.4,299.7,316.7,3464.9,3457.6,567.4,465.6,489.3,1178.8,1000.5,438.8,3.0,-15.0,-6.0,9848.0,-7486.0,7908.0,-7271.0,0.0,8.0,17.0,1.0,12.0,2.0,10276.0,-12519.0,2203.0,1121.0,0.0,-1.0,15.0,1.0
2022-05-08 14:18:20.848791-07:00,719.2,865.4,1157.7,1108.6,377.8,353.0,1102.5,972.2,3468.6,3462.5,1952.9,1067.7,810.2,3467.4,2030.4,1109.5,3439.5,3443.1,418.4,357.6,369.3,365.4,299.7,315.1,3464.9,3457.6,573.0,475.8,489.3,1178.8,1000.5,441.2,1.0,-19.0,-3.0,9849.0,-7484.0,7910.0,-7270.0,-5.0,3.0,11.0,-2.0,12.0,7.0,10276.0,-12519.0,2206.0,1124.0,2.0,8.0,10.0,1.0
2022-05-08 14:18:20.876111-07:00,723.3,860.4,1155.9,1113.9,376.3,354.5,1095.6,973.9,3469.8,3471.0,1947.9,1071.2,811.0,3463.7,2022.4,1111.2,3439.5,3437.0,417.6,360.7,369.3,365.4,301.3,315.1,3454.0,3455.2,571.4,475.0,490.1,1170.9,994.5,441.2,7.0,-26.0,-1.0,9847.0,-7475.0,7928.0,-7263.0,-39.0,11.0,25.0,1.0,3.0,3.0,10270.0,-12520.0,2220.0,1126.0,-22.0,21.0,20.0,1.0
2022-05-08 14:18:20.906738-07:00,723.3,856.2,1145.4,1113.9,376.3,354.5,1095.6,979.0,3469.8,3471.0,1941.0,1073.8,811.0,3463.7,2022.4,1111.2,3441.9,3445.5,417.6,360.7,370.8,366.2,297.4,315.1,3454.0,3462.5,571.4,475.0,493.2,1163.0,992.7,441.2,3.0,-10.0,-11.0,9846.0,-7473.0,7938.0,-7256.0,-5.0,9.0,13.0,4.0,15.0,-4.0,10267.0,-12521.0,2227.0,1128.0,0.0,5.0,11.0,1.0
2022-05-08 14:18:21.026252-07:00,719.2,854.5,1145.4,1113.9,378.6,353.7,1095.6,979.0,3467.4,3468.6,1941.0,1073.8,810.2,3461.3,2022.4,1111.2,3441.9,3445.5,410.6,356.8,370.8,366.2,297.4,312.8,3454.0,3462.5,575.4,461.6,493.2,1163.0,994.5,441.2,2.0,-26.0,-6.0,9846.0,-7473.0,7938.0,-7256.0,-1.0,3.0,5.0,-1.0,7.0,1.0,10267.0,-12521.0,2227.0,1128.0,2.0,3.0,3.0,1.0
2022-05-08 14:18:21.206279-07:00,719.2,854.5,1158.6,1113.9,378.6,353.7,1119.1,972.2,3467.4,3468.6,1955.8,1064.3,810.2,3461.3,2031.4,1105.1,3447.9,3443.1,410.6,356.8,368.5,363.1,297.4,312.8,3454.0,3460.1,575.4,461.6,499.6,1172.6,994.5,441.2,3.0,-15.0,-8.0,9845.0,-7472.0,7939.0,-7256.0,-6.0,0.0,6.0,1.0,15.0,-6.0,10267.0,-12521.0,2228.0,1129.0,-1.0,3.0,10.0,1.0
2022-05-08 14:18:21.208815-07:00,719.2,853.7,1158.6,1113.9,377.0,355.3,1119.1,972.2,3466.1,3474.6,1955.8,1064.3,808.5,3471.0,2031.4,1105.1,3447.9,3443.1,410.6,354.5,368.5,363.1,304.3,313.6,3454.0,3460.1,569.0,464.0,499.6,1172.6,987.6,447.4,1.0,-16.0,-14.0,9845.0,-7473.0,7938.0,-7256.0,8.0,-13.0,-13.0,0.0,10.0,3.0,10267.0,-12521.0,2228.0,1128.0,-4.0,1.0,-6.0,1.0
2022-05-08 14:18:21.266365-07:00,719.2,853.7,1152.4,1111.2,377.0,355.3,1099.0,989.3,3466.1,3474.6,1935.1,1067.7,808.5,3471.0,2031.4,1109.5,3449.1,3435.8,410.6,354.5,370.0,369.3,304.3,313.6,3458.9,3462.5,569.0,464.0,491.7,1170.9,987.6,447.4,-1.0,-23.0,-9.0,9847.0,-7473.0,7935.0,-7256.0,-2.0,1.0,4.0,2.0,9.0,0.0,10269.0,-12520.0,2228.0,1129.0,-4.0,-2.0,-2.0,1.0
2022-05-08 14:18:21.296233-07:00,718.4,857.0,1152.4,1111.2,376.3,351.4,1099.0,989.3,3468.6,3469.8,1935.1,1067.7,809.4,3464.9,2031.4,1109.5,3449.1,3435.8,409.0,357.6,370.0,369.3,303.6,314.4,3458.9,3462.5,569.8,456.9,491.7,1170.9,979.0,442.7,2.0,-17.0,-5.0,9847.0,-7472.0,7936.0,-7256.0,-1.0,16.0,6.0,-1.0,17.0,-5.0,10269.0,-12520.0,2228.0,1129.0,-6.0,1.0,2.0,1.0
2022-05-08 14:18:21.297744-07:00,718.4,857.0,1154.2,1113.9,376.3,351.4,1090.3,976.5,3468.6,3469.8,1948.9,1066.9,809.4,3464.9,2025.4,1110.4,3445.5,3440.7,409.0,357.6,370.8,366.9,303.6,314.4,3460.1,3457.6,569.8,456.9,496.4,1174.4,979.0,442.7,0.0,-15.0,-8.0,9846.0,-7471.0,7937.0,-7258.0,12.0,4.0,-1.0,1.0,5.0,2.0,10269.0,-12520.0,2228.0,1129.0,5.0,-1.0,2.0,1.0
2022-05-08 14:18:21.298463-07:00,715.1,852.8,1151.5,1113.9,379.4,351.4,1090.3,976.5,3468.6,3475.9,1942.0,1066.9,806.9,3467.4,2025.4,1110.4,3445.5,3440.7,413.7,357.6,370.8,366.2,302.0,313.6,3460.1,3457.6,565.8,464.8,496.4,1173.5,991.9,432.5,0.0,-18.0,-7.0,9846.0,-7471.0,7937.0,-7259.0,1.0,4.0,-10.0,0.0,16.0,-5.0,10269.0,-12520.0,2228.0,1129.0,-7.0,6.0,-6.0,1.0
2022-05-08 14:18:21.326736-07:00,715.1,852.8,1151.5,1113.9,379.4,355.3,1093.8,975.6,3468.6,3475.9,1942.0,1066.9,806.9,3475.9,2018.4,1106.9,3438.2,3438.2,419.2,357.6,371.6,366.2,302.0,313.6,3469.8,3455.2,570.6,464.8,496.4,1173.5,991.9,432.5,0.0,-32.0,-2.0,9845.0,-7469.0,7939.0,-7259.0,-9.0,9.0,15.0,-6.0,8.0,-3.0,10268.0,-12521.0,2228.0,1128.0,-9.0,5.0,5.0,1.0
2022-05-08 14:18:21.327753-07:00,718.4,851.1,1148.9,1113.9,380.2,355.3,1093.8,975.6,3462.5,3469.8,1950.9,1066.9,811.9,3475.9,2018.4,1106.9,3438.2,3438.2,419.2,357.6,371.6,363.1,298.2,311.3,3469.8,3455.2,570.6,461.6,496.4,1171.8,996.2,441.9,0.0,-12.0,-10.0,9847.0,-7467.0,7941.0,-7256.0,-5.0,7.0,-2.0,6.0,11.0,-4.0,10268.0,-12520.0,2229.0,1129.0,-14.0,4.0,-2.0,1.0
2022-05-08 14:18:21.356389-07:00,718.4,851.1,1148.9,1107.8,380.2,353.7,1097.3,975.6,3462.5,3469.8,1950.9,1065.1,811.9,3466.1,2014.4,1106.0,3445.5,3438.2,413.7,357.6,370.0,363.1,298.2,311.3,3452.8,3457.6,566.6,461.6,497.2,1171.8,996.2,441.9,-4.0,-24.0,-9.0,9847.0,-7467.0,7941.0,-7257.0,-4.0,-2.0,-1.0,-3.0,14.0,-4.0,10267.0,-12521.0,2229.0,1129.0,-7.0,-1.0,-10.0,1.0
2022-05-08 14:18:21.416233-07:00,715.9,854.5,1150.6,1107.8,373.9,353.7,1097.3,975.6,3469.8,3457.6,1941.0,1065.1,801.0,3466.1,2014.4,1106.0,3445.5,3438.2,413.7,356.1,370.0,365.4,296.7,311.3,3452.8,3457.6,566.6,460.8,497.2,1170.0,986.7,442.7,3.0,-20.0,-10.0,9847.0,-7467.0,7941.0,-7257.0,2.0,6.0,8.0,3.0,11.0,-3.0,10267.0,-12521.0,2228.0,1128.0,3.0,0.0,4.0,1.0
2022-05-08 14:18:21.476187-07:00,715.9,854.5,1150.6,1109.5,373.9,347.6,1092.9,970.5,3469.8,3457.6,1941.0,1057.3,801.0,3464.9,2012.4,1105.1,3445.5,3449.1,412.9,356.1,367.7,365.4,296.7,311.3,3461.3,3455.2,567.4,460.8,491.7,1170.0,986.7,442.7,3.0,-15.0,-9.0,9847.0,-7467.0,7941.0,-7257.0,-1.0,-6.0,6.0,5.0,19.0,-5.0,10267.0,-12521.0,2228.0,1128.0,4.0,-9.0,6.0,1.0
2022-05-08 14:18:21.506619-07:00,716.7,850.3,1150.6,1109.5,380.2,347.6,1092.9,970.5,3471.0,3466.1,1939.0,1057.3,803.5,3464.9,2012.4,1105.1,3445.5,3449.1,412.9,354.5,367.7,360.7,298.2,316.7,3461.3,3455.2,567.4,463.2,491.7,1169.1,987.6,436.4,-3.0,-18.0,-10.0,9846.0,-7467.0,7942.0,-7257.0,8.0,17.0,-3.0,0.0,17.0,-2.0,10267.0,-12521.0,2228.0,1128.0,-5.0,4.0,-5.0,1.0
2022-05-08 14:18:21.596837-07:00,716.7,850.3,1150.6,1107.8,374.7,342.1,1086.0,967.1,3471.0,3466.1,1939.0,1059.1,805.2,3468.6,2006.4,1105.1,3443.1,3444.3,412.1,360.7,366.9,360.7,298.2,316.7,3457.6,3460.1,565.8,460.8,492.5,1169.1,987.6,436.4,0.0,-26.0,-6.0,9846.0,-7466.0,7942.0,-7258.0,-4.0,4.0,9.0,2.0,9.0,-3.0,10267.0,-12522.0,2228.0,1128.0,2.0,7.0,9.0,1.0
2022-05-08 14:18:21.656700-07:00,715.1,852.8,1146.3,1105.1,374.7,342.1,1086.0,967.1,3460.1,3468.6,1934.1,1055.6,805.2,3468.6,2006.4,1105.1,3443.1,3444.3,412.1,360.7,371.6,363.8,292.8,312.0,3457.6,3460.1,565.8,460.8,484.5,1167.4,986.7,441.2,1.0,-14.0,-12.0,9846.0,-7465.0,7944.0,-7257.0,-3.0,8.0,1.0,2.0,16.0,-3.0,10267.0,-12522.0,2229.0,1129.0,-2.0,3.0,1.0,1.0
2022-05-08 14:18:21.986297-07:00,715.1,852.8,1146.3,1105.1,378.6,350.6,1088.6,970.5,3460.1,3468.6,1934.1,1055.6,799.4,3460.1,2008.4,1103.4,3438.2,3446.7,412.1,357.6,371.6,363.8,292.8,312.0,3467.4,3457.6,567.4,460.8,484.5,1167.4,986.7,441.2,0.0,-25.0,-7.0,9846.0,-7465.0,7944.0,-7257.0,6.0,1.0,4.0,3.0,12.0,-8.0,10267.0,-12522.0,2228.0,1130.0,6.0,-6.0,1.0,1.0
2022-05-08 14:18:22.046228-07:00,717.5,854.5,1150.6,1109.5,378.6,350.6,1088.6,970.5,3469.8,3457.6,1940.0,1059.1,799.4,3460.1,2008.4,1103.4,3438.2,3446.7,412.1,357.6,367.7,363.8,296.7,318.2,3467.4,3457.6,567.4,460.8,492.5,1166.5,986.7,438.8,0.0,-15.0,-9.0,9846.0,-7464.0,7944.0,-7256.0,-3.0,-3.0,-3.0,0.0,17.0,-2.0,10267.0,-12522.0,2228.0,1130.0,-8.0,4.0,-2.0,1.0
2022-05-08 14:18:22.076846-07:00,717.5,854.5,1150.6,1109.5,377.0,350.6,1090.3,965.4,3469.8,3457.6,1940.0,1059.1,800.2,3464.9,2004.5,1108.6,3440.7,3441.9,412.9,357.6,367.7,363.8,296.7,318.2,3455.2,3462.5,569.8,461.6,492.5,1166.5,986.7,438.8,0.0,-20.0,-10.0,9846.0,-7464.0,7944.0,-7256.0,2.0,9.0,5.0,5.0,1.0,-8.0,10267.0,-12522.0,2228.0,1130.0,0.0,-2.0,3.0,1.0
2022-05-08 14:18:22.106753-07:00,717.5,849.5,1145.4,1111.2,377.0,350.6,1090.3,965.4,3468.6,3467.4,1930.2,1058.2,800.2,3464.9,2004.5,1108.6,3440.7,3441.9,412.9,357.6,366.2,365.4,294.4,311.3,3455.2,3462.5,569.8,461.6,489.3,1163.8,988.5,445.9,2.0,-13.0,-11.0,9847.0,-7463.0,7943.0,-7257.0,10.0,-4.0,-6.0,0.0,20.0,-4.0,10267.0,-12522.0,2228.0,1130.0,5.0,-5.0,-5.0,1.0
2022-05-08 14:18:22.108127-07:00,719.2,849.5,1145.4,1111.2,377.0,348.3,1090.3,970.5,3472.2,3467.4,1930.2,1058.2,796.9,3457.6,2012.4,1104.3,3441.9,3449.1,413.7,357.6,366.2,365.4,294.4,308.2,3464.9,3466.1,561.8,457.7,489.3,1163.8,988.5,445.9,0.0,-24.0,-10.0,9847.0,-7463.0,7943.0,-7257.0,0.0,-2.0,2.0,0.0,8.0,4.0,10267.0,-12522.0,2228.0,1130.0,-4.0,4.0,-6.0,1.0
2022-05-08 14:18:22.136739-07:00,719.2,852.0,1140.1,1110.4,377.0,348.3,1090.3,968.8,3472.2,3473.4,1927.2,1058.2,796.9,3457.6,2012.4,1112.1,3443.1,3449.1,413.7,357.6,369.3,364.6,299.7,308.2,3467.4,3466.1,561.8,457.7,489.3,1165.6,983.3,445.9,2.0,-18.0,-8.0,9848.0,-7462.0,7943.0,-7258.0,-1.0,2.0,5.0,2.0,9.0,0.0,10267.0,-12522.0,2228.0,1130.0,-1.0,10.0,-3.0,1.0
2022-05-08 14:18:22.226604-07:00,717.5,848.6,1143.6,1107.8,378.6,346.8,1080.8,966.2,3458.9,3462.5,1927.2,1057.3,797.7,3464.9,1995.5,1106.0,3443.1,3440.7,412.9,360.7,369.3,367.7,292.8,308.2,3461.3,3452.8,559.4,459.3,489.3,1168.2,982.5,437.2,0.0,-19.0,-11.0,9847.0,-7463.0,7942.0,-7259.0,5.0,-1.0,-11.0,0.0,12.0,-6.0,10267.0,-12522.0,2228.0,1130.0,-1.0,-3.0,-7.0,1.0
2022-05-08 14:18:22.227506-07:00,717.5,848.6,1143.6,1107.8,378.6,346.8,1080.8,966.2,3458.9,3462.5,1927.2,1057.3,797.7,3464.9,1995.5,1106.0,3443.1,3440.7,412.9,360.7,369.3,367.7,292.8,308.2,3461.3,3452.8,559.4,459.3,489.3,1168.2,982.5,437.2,0.0,-19.0,-11.0,9847.0,-7463.0,7942.0,-7259.0,5.0,-1.0,-11.0,0.0,12.0,-6.0,10267.0,-12522.0,2228.0,1130.0,-1.0,-3.0,-7.0,1.0
2022-05-08 14:18:22.256283-07:00,711.8,846.1,1141.9,1106.9,377.0,352.2,1086.8,966.2,3460.1,3467.4,1928.2,1055.6,802.7,3467.4,2003.5,1102.5,3446.7,3445.5,407.5,359.2,365.4,368.5,296.7,308.2,3473.4,3468.6,568.2,460.0,474.3,1171.8,983.3,438.8,-1.0,-14.0,-8.0,9847.0,-7463.0,7940.0,-7261.0,0.0,-4.0,-9.0,2.0,11.0,3.0,10266.0,-12523.0,2225.0,1129.0,-3.0,0.0,-11.0,1.0
2022-05-08 14:18:22.316827-07:00,711.8,847.8,1142.7,1106.9,377.0,352.2,1088.6,961.1,3460.1,3474.6,1919.3,1052.2,802.7,3467.4,1999.5,1108.6,3445.5,3438.2,407.5,359.2,370.0,367.7,297.4,308.2,3460.1,3457.6,568.2,460.0,505.1,1160.3,983.3,438.8,1.0,-24.0,-6.0,9845.0,-7467.0,7934.0,-7266.0,9.0,-8.0,-22.0,2.0,21.0,-6.0,10267.0,-12524.0,2219.0,1125.0,3.0,-11.0,-18.0,1.0
2022-05-08 14:18:22.317687-07:00,712.6,848.6,1142.7,1106.9,372.4,353.0,1088.6,961.1,3466.1,3469.8,1919.3,1052.2,797.7,3467.4,1999.5,1108.6,3445.5,3438.2,416.1,356.1,370.0,367.7,296.7,316.7,3460.1,3457.6,566.6,461.6,505.1,1160.3,982.5,437.2,4.0,-29.0,-3.0,9846.0,-7465.0,7932.0,-7269.0,2.0,-4.0,2.0,2.0,4.0,-4.0,10268.0,-12524.0,2215.0,1122.0,-7.0,-5.0,-7.0,1.0
2022-05-08 14:18:22.376276-07:00,712.6,848.6,1143.6,1108.6,372.4,353.0,1079.9,967.9,3466.1,3469.8,1918.3,1055.6,797.7,3467.4,2000.5,1113.9,3443.1,3443.1,416.1,356.1,367.7,365.4,296.7,316.7,3457.6,3466.1,566.6,461.6,490.1,1166.5,982.5,437.2,2.0,-9.0,-9.0,9847.0,-7465.0,7933.0,-7268.0,3.0,5.0,-4.0,5.0,12.0,-3.0,10268.0,-12524.0,2215.0,1122.0,-3.0,0.0,-7.0,1.0
2022-05-08 14:18:22.377326-07:00,717.5,852.0,1143.6,1108.6,376.3,352.2,1079.9,967.9,3471.0,3466.1,1918.3,1055.6,795.2,3464.9,2000.5,1113.9,3443.1,3443.1,410.6,354.5,367.7,365.4,294.4,308.2,3457.6,3466.1,563.4,454.5,490.1,1166.5,985.0,439.6,-2.0,-26.0,-9.0,9845.0,-7466.0,7931.0,-7270.0,9.0,5.0,-5.0,0.0,10.0,-2.0,10268.0,-12525.0,2210.0,1118.0,4.0,-3.0,-13.0,1.0
2022-05-08 14:18:22.526824-07:00,717.5,852.0,1140.1,1104.3,376.3,352.2,1081.6,962.0,3471.0,3466.1,1922.3,1056.5,795.2,3464.9,1995.5,1097.3,3438.2,3445.5,410.6,354.5,370.0,367.7,294.4,308.2,3458.9,3460.1,563.4,454.5,493.2,1165.6,985.0,439.6,1.0,-12.0,-12.0,9845.0,-7466.0,7931.0,-7270.0,1.0,8.0,-1.0,5.0,14.0,-4.0,10268.0,-12525.0,2210.0,1117.0,-5.0,0.0,-6.0,1.0
2022-05-08 14:18:22.586869-07:00,716.7,850.3,1140.1,1104.3,377.8,349.9,1081.6,962.0,3463.7,3464.9,1922.3,1056.5,798.5,3458.9,1995.5,1097.3,3438.2,3445.5,411.4,357.6,370.0,367.7,291.3,309.0,3458.9,3460.1,566.6,464.8,493.2,1165.6,983.3,440.4,0.0,-12.0,-12.0,9842.0,-7470.0,7930.0,-7272.0,-12.0,-8.0,-27.0,2.0,16.0,2.0,10266.0,-12527.0,2207.0,1114.0,-12.0,1.0,-23.0,1.0
2022-05-08 14:18:22.588101-07:00,716.7,850.3,1144.5,1119.1,377.8,349.9,1084.2,963.7,3463.7,3464.9,1919.3,1048.7,798.5,3467.4,1992.5,1105.1,3440.7,3438.2,410.6,357.6,366.9,366.9,291.3,309.0,3463.7,3455.2,561.8,464.8,490.1,1170.0,983.3,440.4,-1.0,-19.0,-9.0,9836.0,-7476.0,7927.0,-7278.0,-1.0,8.0,-20.0,4.0,18.0,-3.0,10266.0,-12529.0,2199.0,1107.0,-10.0,4.0,-32.0,1.0
2022-05-08 14:18:22.589280-07:00,715.9,859.5,1149.8,1119.1,377.0,349.9,1084.2,963.7,3462.5,3468.6,1934.1,1048.7,796.0,3467.4,1992.5,1105.1,3440.7,3438.2,410.6,355.3,366.9,365.4,299.7,313.6,3463.7,3455.2,561.8,461.6,490.1,1159.4,985.9,444.3,-3.0,-16.0,-9.0,9826.0,-7485.0,7927.0,-7283.0,-11.0,7.0,-34.0,0.0,10.0,3.0,10262.0,-12535.0,2186.0,1098.0,0.0,-7.0,-35.0,1.0
2022-05-08 14:18:22.616225-07:00,715.9,859.5,1149.8,1149.8,377.0,349.1,1076.4,967.9,3462.5,3468.6,1934.1,1056.5,796.0,3466.1,2008.4,1102.5,3452.8,3440.7,416.1,355.3,370.8,365.4,299.7,313.6,3462.5,3466.1,563.4,461.6,486.9,1159.4,985.9,444.3,5.0,-17.0,-12.0,9818.0,-7494.0,7921.0,-7290.0,-17.0,5.0,-31.0,7.0,17.0,-3.0,10264.0,-12537.0,2171.0,1092.0,-3.0,-21.0,-38.0,1.0
2022-05-08 14:18:22.766199-07:00,725.8,853.7,1171.8,1149.8,378.6,349.1,1076.4,967.9,3466.1,3455.2,1979.6,1056.5,797.7,3466.1,2008.4,1102.5,3452.8,3440.7,416.1,353.7,370.8,363.1,301.3,313.6,3462.5,3466.1,563.4,457.7,486.9,1166.5,973.1,440.4,-8.0,-2.0,-22.0,9808.0,-7519.0,7910.0,-7290.0,-57.0,-85.0,-76.0,-6.0,-3.0,-4.0,10272.0,-12535.0,2144.0,1094.0,14.0,-76.0,-49.0,1.0
2022-05-08 14:18:23.096692-07:00,725.8,853.7,1171.8,1182.3,378.6,349.9,1073.8,962.0,3466.1,3455.2,1979.6,1055.6,797.7,3466.1,2042.4,1106.9,3445.5,3443.1,415.3,353.7,367.7,363.1,301.3,313.6,3457.6,3460.1,565.8,457.7,490.9,1166.5,973.1,440.4,8.0,-33.0,-26.0,9812.0,-7572.0,7860.0,-7284.0,20.0,-167.0,-87.0,11.0,2.0,-12.0,10299.0,-12520.0,2096.0,1110.0,74.0,-140.0,-66.0,1.0
2022-05-08 14:18:23.097773-07:00,727.4,838.6,1259.6,1182.3,384.8,349.9,1073.8,962.0,3468.6,3468.6,2190.1,1055.6,801.9,3466.1,2042.4,1106.9,3445.5,3443.1,415.3,356.8,367.7,363.8,298.2,315.1,3457.6,3460.1,565.8,463.2,490.9,1177.0,1045.2,441.9,-7.0,-36.0,-20.0,9837.0,-7611.0,7811.0,-7262.0,42.0,-142.0,-5.0,-17.0,15.0,-17.0,10333.0,-12498.0,2040.0,1136.0,96.0,-134.0,-36.0,1.0
2022-05-08 14:18:23.098736-07:00,727.4,838.6,1259.6,1170.0,384.8,349.1,1063.4,953.4,3468.6,3468.6,2190.1,1073.8,801.9,3468.6,2109.8,1099.9,3441.9,3444.3,410.6,356.8,368.5,363.8,298.2,315.1,3458.9,3460.1,565.8,463.2,493.2,1177.0,1045.2,441.9,2.0,-21.0,0.0,9877.0,-7614.0,7776.0,-7241.0,61.0,-132.0,36.0,8.0,4.0,10.0,10370.0,-12471.0,2005.0,1159.0,98.0,-102.0,-17.0,1.0
2022-05-08 14:18:23.100234-07:00,724.1,838.6,1300.7,1161.2,382.5,349.1,1063.4,953.4,3472.2,3471.0,2333.7,1085.1,807.7,3468.6,2109.8,1099.9,3441.9,3444.3,410.6,360.7,365.4,360.7,302.0,310.5,3458.9,3460.1,565.8,460.0,489.3,1181.5,1084.2,444.3,9.0,-1.0,-17.0,9924.0,-7640.0,7721.0,-7209.0,5.0,-222.0,-29.0,1.0,11.0,-2.0,10413.0,-12439.0,1967.0,1187.0,80.0,-136.0,-36.0,1.0
2022-05-08 14:18:23.216061-07:00,724.1,838.6,1300.7,1161.2,385.6,348.3,1053.0,943.2,3472.2,3471.0,2333.7,1085.1,832.7,3462.5,2206.5,1098.2,3445.5,3437.0,416.8,360.7,365.4,360.7,302.0,310.5,3458.9,3463.7,569.0,466.4,489.3,1181.5,1084.2,444.3,-2.0,8.0,-25.0,9959.0,-7700.0,7624.0,-7199.0,96.0,-286.0,-186.0,-1.0,9.0,3.0,10451.0,-12414.0,1896.0,1228.0,109.0,-238.0,-87.0,1.0
2022-05-08 14:18:23.246728-07:00,725.8,836.1,1330.5,1130.5,387.2,353.0,1034.9,933.0,3463.7,3472.2,2468.5,1053.9,843.6,3469.8,2154.4,1079.9,3437.0,3444.3,416.1,358.4,370.0,365.4,321.3,312.8,3460.1,3460.1,581.8,479.8,487.7,1163.0,1142.7,441.2,16.0,-12.0,0.0,10020.0,-8067.0,7178.0,-7172.0,-93.0,-24.0,-29.0,4.0,5.0,-5.0,10557.0,-12355.0,1605.0,1333.0,-21.0,15.0,15.0,1.0
2022-05-08 14:18:23.336790-07:00,723.3,836.1,1330.5,1130.5,384.0,348.3,1035.7,922.0,3463.7,3472.2,2468.5,1053.9,834.4,3468.6,2058.4,1060.8,3440.7,3440.7,418.4,360.7,370.0,365.4,321.3,308.2,3460.1,3447.9,565.8,482.2,487.7,1163.0,1142.7,435.7,-13.0,-19.0,-11.0,9997.0,-8096.0,7180.0,-7169.0,-80.0,-11.0,-49.0,-2.0,20.0,-5.0,10549.0,-12361.0,1609.0,1329.0,-25.0,21.0,-4.0,1.0
2022-05-08 14:18:23.696257-07:00,723.3,833.6,1288.2,1124.4,384.0,348.3,1035.7,911.8,3463.7,3467.4,2377.6,1051.3,834.4,3468.6,2058.4,1057.3,3444.3,3440.7,418.4,360.7,370.8,364.6,319.7,308.2,3463.7,3447.9,565.8,482.2,491.7,1148.0,1135.7,435.7,-2.0,-12.0,-18.0,9968.0,-8141.0,7187.0,-7151.0,-153.0,-52.0,-43.0,0.0,21.0,-9.0,10526.0,-12381.0,1614.0,1322.0,-101.0,19.0,-16.0,1.0
2022-05-08 14:18:23.697368-07:00,725.8,833.6,1288.2,1124.4,387.2,352.2,1029.7,911.8,3469.8,3467.4,2377.6,1051.3,826.0,3464.9,1974.6,1057.3,3444.3,3443.1,415.3,361.5,370.8,364.6,319.7,303.6,3463.7,3463.7,579.4,485.3,491.7,1148.0,1135.7,438.0,0.0,-16.0,-23.0,9941.0,-8201.0,7184.0,-7124.0,-106.0,-101.0,-60.0,3.0,8.0,0.0,10499.0,-12405.0,1614.0,1316.0,-65.0,8.0,-23.0,1.0
2022-05-08 14:18:23.727040-07:00,725.8,833.6,1287.3,1126.1,387.2,352.2,1029.7,913.5,3469.8,3462.5,2279.6,1034.0,826.0,3464.9,1974.6,1052.2,3445.5,3443.1,415.3,361.5,368.5,362.3,324.4,303.6,3464.9,3463.7,579.4,485.3,476.6,1137.5,1134.0,438.0,-6.0,-29.0,-5.0,9912.0,-8275.0,7173.0,-7089.0,-153.0,-97.0,-54.0,6.0,9.0,-3.0,10469.0,-12431.0,1608.0,1310.0,-110.0,12.0,-24.0,1.0
2022-05-08 14:18:23.876922-07:00,732.3,833.6,1287.3,1126.1,388.7,355.3,1034.0,913.5,3468.6,3462.5,2279.6,1034.0,811.9,3477.1,1904.6,1052.2,3445.5,3443.1,417.6,362.3,368.5,362.3,324.4,302.0,3464.9,3466.1,570.6,485.3,476.6,1137.5,1134.0,436.4,0.0,-16.0,-14.0,9889.0,-8364.0,7169.0,-7020.0,-257.0,-182.0,-12.0,0.0,9.0,-9.0,10410.0,-12481.0,1611.0,1305.0,-206.0,21.0,7.0,1.0
2022-05-08 14:18:24.206926-07:00,732.3,833.6,1228.4,1118.2,388.7,355.3,1034.0,909.3,3468.6,3464.9,2139.2,1017.6,811.9,3477.1,1904.6,1045.2,3445.5,3443.1,417.6,362.3,367.7,366.2,328.2,302.0,3462.5,3466.1,570.6,485.3,496.4,1118.2,1076.4,436.4,-1.0,-15.0,-12.0,9878.0,-8441.0,7162.0,-6951.0,-165.0,-183.0,5.0,3.0,7.0,-5.0,10350.0,-12531.0,1615.0,1298.0,-169.0,58.0,-8.0,1.0
2022-05-08 14:18:24.207950-07:00,734.8,833.6,1228.4,1118.2,387.9,357.6,1027.1,909.3,3478.3,3464.9,2139.2,1017.6,806.0,3462.5,1834.3,1045.2,3445.5,3447.9,416.1,361.5,367.7,366.2,333.6,302.0,3462.5,3462.5,572.2,502.0,496.4,1118.2,1016.8,435.7,-1.0,-7.0,-37.0,9874.0,-8548.0,7126.0,-6863.0,-216.0,-344.0,-66.0,11.0,4.0,-2.0,10283.0,-12586.0,1616.0,1290.0,-212.0,30.0,-7.0,1.0
2022-05-08 14:18:24.209144-07:00,764.5,893.2,1042.6,1110.4,381.7,389.5,1035.7,873.0,3462.5,3458.9,1649.2,1005.6,793.5,3471.0,1674.8,1034.0,3441.9,3445.5,416.1,357.6,365.4,366.2,351.4,298.2,3462.5,3449.1,618.9,569.8,498.8,1099.9,944.1,439.6,-11.0,-16.0,29.0,9755.0,-8778.0,7046.0,-6824.0,77.0,390.0,60.0,1.0,12.0,23.0,9867.0,-12920.0,1614.0,1250.0,-31.0,33.0,32.0,1.0
2022-05-08 14:18:24.211255-07:00,780.3,922.8,1042.6,1110.4,383.3,388.7,1035.7,873.0,3461.3,3462.5,1649.2,1005.6,785.2,3457.6,1674.8,1034.0,3441.9,3445.5,412.1,360.7,365.4,366.2,355.3,292.8,3462.5,3449.1,618.1,572.2,498.8,1099.9,921.1,429.4,-1.0,-16.0,10.0,9714.0,-8683.0,7137.0,-6909.0,49.0,358.0,37.0,0.0,7.0,0.0,9865.0,-12918.0,1637.0,1248.0,-13.0,49.0,52.0,1.0
2022-05-08 14:18:24.806899-07:00,779.4,920.3,995.3,1105.1,380.9,379.4,1022.8,856.2,3471.0,3457.6,1543.1,990.2,776.9,3468.6,1618.1,1021.9,3440.7,3451.6,413.7,359.2,370.8,366.9,346.8,296.7,3463.7,3452.8,606.0,565.8,498.0,1075.6,906.7,438.0,2.0,-23.0,-17.0,9641.0,-8623.0,7239.0,-6980.0,-11.0,-17.0,12.0,0.0,19.0,-18.0,9831.0,-12941.0,1672.0,1236.0,-14.0,-3.0,7.0,1.0
2022-05-08 14:18:24.808134-07:00,775.3,921.1,978.2,1096.4,383.3,378.6,1012.5,842.8,3466.1,3468.6,1485.6,979.0,766.2,3462.5,1599.3,1012.5,3435.8,3443.1,415.3,361.5,366.9,366.2,343.7,290.5,3451.6,3457.6,597.1,557.0,495.6,1072.9,893.2,438.0,1.0,-20.0,6.0,9599.0,-8506.0,7361.0,-7052.0,28.0,53.0,7.0,0.0,8.0,0.0,9835.0,-12934.0,1695.0,1244.0,0.0,-15.0,-3.0,1.0
2022-05-08 14:18:24.809742-07:00,774.5,913.5,966.2,1096.4,383.3,378.6,1012.5,842.8,3475.9,3468.6,1479.2,979.0,766.2,3462.5,1599.3,1012.5,3435.8,3443.1,415.3,361.5,369.3,366.9,342.9,296.7,3451.6,3457.6,597.1,557.0,490.9,1066.0,891.5,440.4,-1.0,-15.0,0.0,9594.0,-8502.0,7365.0,-7061.0,-6.0,7.0,-26.0,3.0,15.0,1.0,9838.0,-12932.0,1695.0,1244.0,-17.0,0.0,-5.0,1.0
2022-05-08 14:18:24.837151-07:00,774.5,913.5,966.2,1096.4,384.8,380.9,1012.5,848.6,3475.9,3468.6,1479.2,979.0,759.6,3468.6,1587.1,1014.2,3444.3,3446.7,412.1,361.5,369.3,366.9,342.9,296.7,3460.1,3463.7,602.0,548.2,490.9,1066.0,891.5,440.4,-1.0,-28.0,-2.0,9598.0,-8497.0,7358.0,-7070.0,21.0,6.0,8.0,2.0,0.0,-7.0,9843.0,-12929.0,1692.0,1243.0,13.0,-3.0,-11.0,1.0
2022-05-08 14:18:24.838161-07:00,778.6,913.5,970.5,1097.3,384.8,380.9,1012.5,848.6,3467.4,3468.6,1473.6,974.8,759.6,3468.6,1587.1,1014.2,3444.3,3446.7,412.1,361.5,368.5,365.4,340.6,294.4,3460.1,3463.7,602.0,548.2,491.7,1052.2,884.8,438.8,-4.0,-12.0,-5.0,9599.0,-8492.0,7358.0,-7073.0,2.0,2.0,0.0,0.0,19.0,4.0,9846.0,-12926.0,1691.0,1242.0,24.0,-7.0,0.0,1.0
2022-05-08 14:18:24.987054-07:00,769.5,905.0,960.2,1086.0,384.0,377.0,1009.0,839.4,3457.6,3464.9,1449.7,968.8,752.9,3466.1,1553.4,1000.5,3445.5,3440.7,416.8,363.1,367.7,363.1,334.4,290.5,3457.6,3467.4,594.7,549.0,491.7,1062.5,875.5,435.7,0.0,-16.0,0.0,9605.0,-8459.0,7340.0,-7123.0,13.0,-19.0,-20.0,2.0,14.0,0.0,9883.0,-12903.0,1653.0,1244.0,16.0,-14.0,-11.0,1.0
2022-05-08 14:18:24.989159-07:00,767.8,903.4,960.2,1086.0,387.2,374.7,1009.0,839.4,3464.9,3463.7,1449.7,968.8,751.3,3467.4,1553.4,1000.5,3445.5,3440.7,410.6,354.5,367.7,363.1,335.2,286.7,3457.6,3467.4,592.3,549.0,491.7,1062.5,867.9,432.5,6.0,-15.0,-1.0,9610.0,-8459.0,7326.0,-7130.0,5.0,13.0,-25.0,1.0,17.0,-8.0,9889.0,-12899.0,1647.0,1247.0,11.0,-17.0,-7.0,1.0
2022-05-08 14:18:25.465994-07:00,767.8,903.4,958.5,1083.4,387.2,374.7,999.6,836.1,3464.9,3463.7,1449.7,967.1,751.3,3467.4,1551.5,1007.3,3449.1,3449.1,410.6,354.5,366.9,363.1,335.2,286.7,3463.7,3466.1,592.3,549.0,495.6,1058.2,867.9,432.5,-8.0,-17.0,-3.0,9606.0,-8452.0,7327.0,-7144.0,-4.0,8.0,6.0,8.0,16.0,7.0,9892.0,-12896.0,1646.0,1248.0,-12.0,9.0,-2.0,1.0
2022-05-08 14:18:25.616821-07:00,770.3,905.0,958.5,1083.4,379.4,375.5,999.6,836.1,3466.1,3468.6,1449.7,967.1,752.1,3471.0,1551.5,1007.3,3449.1,3449.1,417.6,360.0,366.9,363.1,334.4,289.0,3463.7,3466.1,585.9,540.2,495.6,1058.2,874.7,436.4,3.0,-14.0,-5.0,9604.0,-8456.0,7329.0,-7141.0,9.0,-11.0,1.0,0.0,20.0,-3.0,9888.0,-12900.0,1647.0,1247.0,9.0,3.0,-1.0,1.0
2022-05-08 14:18:25.617740-07:00,770.3,905.0,960.2,1088.6,379.4,375.5,1006.5,836.1,3466.1,3468.6,1443.3,970.5,752.1,3466.1,1556.2,1003.9,3441.9,3447.9,412.1,360.0,363.8,363.1,334.4,289.0,3461.3,3460.1,592.3,540.2,489.3,1056.5,874.7,436.4,0.0,-27.0,-1.0,9605.0,-8457.0,7327.0,-7139.0,4.0,-14.0,5.0,2.0,5.0,-2.0,9888.0,-12900.0,1647.0,1247.0,7.0,-10.0,1.0,1.0
2022-05-08 14:18:25.619009-07:00,769.5,907.6,951.7,1088.6,379.4,375.5,1006.5,836.1,3464.9,3468.6,1439.6,970.5,748.8,3466.1,1556.2,1003.9,3441.9,3447.9,412.1,360.7,363.8,363.8,336.7,291.3,3461.3,3460.1,592.3,544.2,489.3,1058.2,872.1,438.0,0.0,-14.0,0.0,9608.0,-8453.0,7326.0,-7141.0,7.0,2.0,2.0,2.0,14.0,4.0,9894.0,-12895.0,1645.0,1249.0,10.0,-3.0,5.0,1.0
2022-05-08 14:18:25.620164-07:00,769.5,907.6,951.7,1084.2,379.4,375.5,1001.3,834.4,3464.9,3468.6,1439.6,965.4,748.8,3455.2,1552.5,1002.2,3447.9,3441.9,417.6,360.7,370.8,363.8,336.7,291.3,3463.7,3456.4,590.7,544.2,493.2,1058.2,872.1,438.0,-4.0,-27.0,0.0,9609.0,-8452.0,7327.0,-7140.0,-4.0,-10.0,16.0,0.0,3.0,-1.0,9893.0,-12896.0,1645.0,1249.0,-4.0,2.0,12.0,1.0
2022-05-08 14:18:25.916501-07:00,767.8,906.7,951.7,1084.2,377.8,375.5,1001.3,834.4,3472.2,3467.4,1438.7,965.4,751.3,3455.2,1552.5,1002.2,3447.9,3441.9,417.6,358.4,370.8,366.9,333.6,283.6,3463.7,3456.4,590.7,540.2,493.2,1063.4,863.7,439.6,5.0,-17.0,0.0,9612.0,-8450.0,7330.0,-7135.0,-2.0,14.0,9.0,3.0,14.0,-3.0,9893.0,-12895.0,1649.0,1253.0,8.0,-1.0,13.0,1.0
2022-05-08 14:18:25.917230-07:00,767.8,906.7,951.7,1084.2,377.8,375.5,1001.3,834.4,3472.2,3467.4,1438.7,965.4,751.3,3455.2,1552.5,1002.2,3447.9,3441.9,417.6,358.4,370.8,366.9,333.6,283.6,3463.7,3456.4,590.7,540.2,493.2,1063.4,863.7,439.6,5.0,-17.0,0.0,9612.0,-8450.0,7330.0,-7135.0,-2.0,14.0,9.0,3.0,14.0,-3.0,9893.0,-12895.0,1649.0,1253.0,8.0,-1.0,13.0,1.0
2022-05-08 14:18:25.917768-07:00,767.8,906.7,951.7,1084.2,377.8,375.5,1001.3,834.4,3472.2,3467.4,1438.7,965.4,751.3,3455.2,1552.5,1002.2,3447.9,3441.9,417.6,358.4,370.8,366.9,333.6,283.6,3463.7,3456.4,590.7,540.2,493.2,1063.4,863.7,439.6,5.0,-17.0,0.0,9612.0,-8450.0,7330.0,-7135.0,-2.0,14.0,9.0,3.0,14.0,-3.0,9893.0,-12895.0,1649.0,1253.0,8.0,-1.0,13.0,1.0
2022-05-08 14:18:25.919148-07:00,767.0,896.6,945.8,1079.9,380.2,366.9,1001.3,824.4,3469.8,3472.2,1430.5,962.0,749.6,3460.1,1536.6,1004.8,3450.4,3435.8,411.4,358.4,367.7,366.2,331.3,279.0,3456.4,3463.7,587.5,541.0,489.3,1056.5,857.0,442.7,-4.0,-21.0,-19.0,9616.0,-8432.0,7349.0,-7132.0,-4.0,-19.0,-1.0,0.0,13.0,-6.0,9903.0,-12883.0,1671.0,1268.0,4.0,-1.0,-2.0,1.0
2022-05-08 14:18:25.921534-07:00,766.2,897.4,947.5,1079.0,380.2,366.9,1001.3,831.1,3468.6,3471.0,1427.7,956.0,749.6,3460.1,1536.6,999.6,3447.9,3435.8,411.4,358.4,370.8,370.8,333.6,290.5,3471.0,3463.7,587.5,541.0,494.8,1052.2,860.4,429.4,-4.0,-24.0,-1.0,9619.0,-8434.0,7348.0,-7128.0,8.0,-3.0,12.0,1.0,9.0,-2.0,9904.0,-12882.0,1672.0,1270.0,7.0,-5.0,13.0,1.0
2022-05-08 14:18:26.425968-07:00,764.5,897.4,947.5,1079.0,378.6,368.5,996.2,831.1,3457.6,3471.0,1427.7,956.0,740.6,3462.5,1537.6,999.6,3447.9,3446.7,415.3,354.5,370.8,370.8,333.6,286.7,3471.0,3468.6,586.7,539.4,494.8,1052.2,860.4,437.2,3.0,-15.0,-1.0,9620.0,-8433.0,7348.0,-7126.0,9.0,16.0,1.0,0.0,13.0,-5.0,9905.0,-12881.0,1673.0,1270.0,8.0,-3.0,6.0,1.0
2022-05-08 14:18:26.427080-07:00,764.5,899.1,943.2,1080.8,378.6,368.5,996.2,826.9,3457.6,3457.6,1419.5,960.2,740.6,3462.5,1537.6,1000.5,3438.2,3446.7,415.3,354.5,370.0,364.6,334.4,286.7,3466.1,3468.6,586.7,539.4,494.8,1059.9,857.0,437.2,-2.0,-12.0,-7.0,9622.0,-8427.0,7350.0,-7130.0,5.0,2.0,4.0,2.0,13.0,2.0,9909.0,-12877.0,1673.0,1270.0,10.0,-2.0,2.0,1.0
2022-05-08 14:18:26.428550-07:00,767.0,897.4,942.4,1081.6,384.0,370.8,998.7,830.2,3455.2,3463.7,1422.2,960.2,744.7,3462.5,1540.3,999.6,3451.6,3447.9,415.3,362.3,369.3,366.9,332.9,285.2,3460.1,3457.6,589.1,537.8,486.1,1057.3,853.7,437.2,0.0,-13.0,-6.0,9622.0,-8426.0,7349.0,-7130.0,15.0,3.0,-11.0,0.0,13.0,-2.0,9911.0,-12876.0,1674.0,1270.0,19.0,-6.0,-4.0,1.0
2022-05-08 14:18:26.429778-07:00,767.0,902.5,944.9,1080.8,384.0,370.8,998.7,836.9,3455.2,3467.4,1421.3,956.8,744.7,3462.5,1540.3,1004.8,3443.1,3447.9,415.3,362.3,363.1,364.6,334.4,285.2,3461.3,3457.6,589.1,537.8,483.0,1047.8,854.5,437.2,-3.0,-22.0,-5.0,9621.0,-8427.0,7347.0,-7132.0,-7.0,-9.0,12.0,4.0,19.0,2.0,9910.0,-12877.0,1674.0,1270.0,-12.0,2.0,-6.0,1.0
2022-05-08 14:18:26.575922-07:00,762.9,899.1,944.9,1080.8,381.7,373.9,992.7,836.9,3462.5,3468.6,1421.3,956.8,743.0,3467.4,1535.7,1004.8,3443.1,3445.5,416.1,354.5,363.1,364.6,332.9,285.2,3461.3,3462.5,585.1,538.6,483.0,1047.8,849.5,434.1,1.0,-16.0,0.0,9623.0,-8425.0,7350.0,-7130.0,14.0,7.0,3.0,0.0,15.0,-3.0,9909.0,-12877.0,1673.0,1270.0,3.0,-4.0,7.0,1.0
2022-05-08 14:18:26.577355-07:00,762.9,899.1,937.3,1076.4,381.7,373.9,1001.3,826.9,3462.5,3468.6,1416.7,956.0,743.0,3467.4,1533.8,1005.6,3449.1,3449.1,416.1,354.5,369.3,365.4,332.9,285.2,3452.8,3462.5,585.1,538.6,487.7,1046.1,849.5,434.1,-4.0,-18.0,-4.0,9624.0,-8424.0,7349.0,-7131.0,-4.0,-6.0,0.0,0.0,12.0,3.0,9909.0,-12877.0,1673.0,1270.0,-9.0,3.0,0.0,1.0
2022-05-08 14:18:26.577942-07:00,762.9,899.1,937.3,1076.4,381.7,373.9,1001.3,826.9,3462.5,3468.6,1416.7,956.0,743.0,3467.4,1533.8,1005.6,3449.1,3449.1,416.1,354.5,369.3,365.4,332.9,285.2,3452.8,3462.5,585.1,538.6,487.7,1046.1,849.5,434.1,-4.0,-18.0,-4.0,9624.0,-8424.0,7349.0,-7131.0,-4.0,-6.0,0.0,0.0,12.0,3.0,9909.0,-12877.0,1673.0,1270.0,-9.0,3.0,0.0,1.0
2022-05-08 14:18:26.578764-07:00,766.2,894.9,939.8,1079.0,379.4,370.8,993.6,821.0,3468.6,3457.6,1419.5,955.1,734.0,3462.5,1528.3,997.0,3446.7,3437.0,409.0,361.5,370.8,368.5,335.2,285.9,3462.5,3457.6,585.1,538.6,490.1,1047.8,852.0,435.7,4.0,-15.0,-4.0,9614.0,-8430.0,7353.0,-7132.0,-15.0,8.0,5.0,3.0,9.0,1.0,9907.0,-12879.0,1673.0,1270.0,-12.0,5.0,4.0,1.0
2022-05-08 14:18:26.580692-07:00,766.2,894.9,939.8,1079.9,379.4,373.9,995.3,828.5,3468.6,3457.6,1419.5,949.2,734.0,3469.8,1519.9,995.3,3444.3,3446.7,415.3,361.5,370.8,368.5,335.2,285.9,3463.7,3450.4,581.8,538.6,486.1,1047.8,852.0,435.7,-6.0,-20.0,-2.0,9608.0,-8433.0,7359.0,-7130.0,-12.0,23.0,1.0,-4.0,8.0,4.0,9900.0,-12885.0,1673.0,1270.0,-9.0,6.0,-2.0,1.0
2022-05-08 14:18:27.026962-07:00,765.3,895.7,933.0,1079.9,380.2,373.9,995.3,828.5,3466.1,3464.9,1416.7,949.2,741.4,3469.8,1519.9,995.3,3444.3,3446.7,415.3,360.0,370.8,364.6,329.8,288.2,3463.7,3450.4,581.8,537.8,486.1,1049.6,858.7,434.1,2.0,-20.0,-5.0,9608.0,-8431.0,7363.0,-7130.0,5.0,6.0,10.0,0.0,6.0,-11.0,9900.0,-12885.0,1673.0,1270.0,3.0,-1.0,5.0,1.0
2022-05-08 14:18:27.029247-07:00,765.3,895.7,933.0,1077.3,380.2,366.9,992.7,824.4,3466.1,3464.9,1416.7,956.8,741.4,3472.2,1524.5,998.7,3440.7,3433.4,412.1,360.0,369.3,364.6,329.8,288.2,3462.5,3462.5,586.7,537.8,491.7,1049.6,858.7,434.1,0.0,-17.0,-10.0,9608.0,-8430.0,7362.0,-7130.0,1.0,-2.0,-6.0,1.0,16.0,-3.0,9899.0,-12885.0,1673.0,1270.0,-11.0,-2.0,-7.0,1.0
2022-05-08 14:18:27.030040-07:00,761.2,894.1,928.8,1074.7,383.3,366.9,992.7,824.4,3462.5,3471.0,1413.1,953.4,730.7,3472.2,1524.5,998.7,3440.7,3433.4,412.1,359.2,370.8,360.7,328.2,284.4,3462.5,3462.5,586.7,535.4,492.5,1040.9,852.0,432.5,-2.0,-23.0,-5.0,9611.0,-8433.0,7358.0,-7129.0,12.0,-11.0,-1.0,-1.0,13.0,0.0,9899.0,-12886.0,1669.0,1267.0,3.0,-7.0,-17.0,1.0
2022-05-08 14:18:27.206855-07:00,761.2,894.1,928.8,1074.7,380.2,369.3,999.6,830.2,3462.5,3471.0,1413.1,953.4,735.6,3468.6,1519.9,997.0,3445.5,3438.2,410.6,358.4,370.8,360.7,328.2,284.4,3457.6,3468.6,584.3,534.6,492.5,1040.9,852.0,432.5,3.0,-17.0,4.0,9613.0,-8433.0,7355.0,-7128.0,3.0,10.0,-5.0,5.0,13.0,-5.0,9900.0,-12886.0,1667.0,1266.0,0.0,-7.0,-4.0,1.0
2022-05-08 14:18:27.208290-07:00,762.0,892.4,933.0,1069.5,380.2,369.3,999.6,830.2,3458.9,3472.2,1412.2,951.7,735.6,3468.6,1519.9,997.0,3445.5,3438.2,410.6,358.4,368.5,364.6,333.6,282.1,3457.6,3468.6,584.3,534.6,485.3,1045.2,855.3,429.4,1.0,-25.0,-3.0,9610.0,-8431.0,7360.0,-7130.0,-16.0,13.0,-1.0,3.0,12.0,-2.0,9899.0,-12887.0,1667.0,1266.0,-15.0,3.0,-7.0,1.0
2022-05-08 14:18:27.208889-07:00,762.0,892.4,933.0,1069.5,380.2,369.3,999.6,830.2,3458.9,3472.2,1412.2,951.7,735.6,3468.6,1519.9,997.0,3445.5,3438.2,410.6,358.4,368.5,364.6,333.6,282.1,3457.6,3468.6,584.3,534.6,485.3,1045.2,855.3,429.4,1.0,-25.0,-3.0,9610.0,-8431.0,7360.0,-7130.0,-16.0,13.0,-1.0,3.0,12.0,-2.0,9899.0,-12887.0,1667.0,1266.0,-15.0,3.0,-7.0,1.0
2022-05-08 14:18:27.536937-07:00,763.7,885.6,927.9,1079.0,377.8,367.7,993.6,825.2,3464.9,3473.4,1408.5,950.0,732.3,3467.4,1522.7,996.2,3438.2,3444.3,412.1,360.7,374.7,366.2,335.2,283.6,3456.4,3468.6,581.8,538.6,486.1,1041.8,846.1,429.4,0.0,-19.0,-5.0,9611.0,-8430.0,7355.0,-7134.0,-3.0,7.0,-6.0,1.0,12.0,0.0,9898.0,-12890.0,1653.0,1260.0,-5.0,-6.0,-9.0,1.0
2022-05-08 14:18:27.686414-07:00,768.7,885.6,927.9,1079.0,380.2,370.0,985.9,825.2,3469.8,3473.4,1408.5,950.0,734.0,3468.6,1513.4,996.2,3438.2,3449.1,413.7,361.5,374.7,366.2,335.2,284.4,3456.4,3460.1,581.0,533.0,486.1,1041.8,846.1,437.2,3.0,-15.0,-5.0,9611.0,-8430.0,7355.0,-7134.0,4.0,-2.0,1.0,6.0,12.0,-5.0,9898.0,-12890.0,1653.0,1260.0,-4.0,-4.0,-4.0,1.0
2022-05-08 14:18:27.689157-07:00,768.7,891.5,929.6,1075.6,380.2,370.0,985.9,822.7,3469.8,3464.9,1408.5,944.1,734.0,3468.6,1513.4,995.3,3449.1,3449.1,413.7,361.5,370.8,365.4,332.1,284.4,3461.3,3460.1,581.0,533.0,486.1,1040.1,850.3,437.2,-1.0,-18.0,-5.0,9611.0,-8430.0,7354.0,-7135.0,8.0,-9.0,-3.0,1.0,10.0,0.0,9898.0,-12891.0,1646.0,1256.0,2.0,-7.0,-11.0,1.0
2022-05-08 14:18:27.690055-07:00,757.9,891.5,925.4,1077.3,380.9,365.4,991.9,821.0,3467.4,3474.6,1402.1,956.0,734.8,3467.4,1519.0,995.3,3433.4,3438.2,417.6,356.8,370.8,365.4,331.3,285.2,3451.6,3468.6,578.6,530.6,494.8,1044.4,847.0,435.7,8.0,-15.0,-5.0,9613.0,-8432.0,7352.0,-7133.0,-9.0,-13.0,-1.0,4.0,16.0,-6.0,9898.0,-12891.0,1645.0,1256.0,-9.0,1.0,-4.0,1.0
2022-05-08 14:18:27.690805-07:00,765.3,896.6,925.4,1077.3,380.2,366.2,991.0,821.0,3481.9,3466.1,1402.1,956.0,733.2,3457.6,1510.6,995.3,3433.4,3443.1,410.6,359.2,370.8,365.4,327.5,283.6,3451.6,3462.5,581.8,533.0,494.8,1044.4,837.7,437.2,2.0,-12.0,-5.0,9613.0,-8426.0,7353.0,-7139.0,20.0,17.0,5.0,4.0,15.0,0.0,9904.0,-12887.0,1645.0,1256.0,27.0,-11.0,-8.0,1.0
2022-05-08 14:18:27.694129-07:00,762.0,884.8,935.6,1077.3,377.8,371.6,989.3,824.4,3460.1,3462.5,1402.1,951.7,732.3,3460.1,1519.0,991.0,3449.1,3443.1,407.5,360.0,365.4,363.8,329.0,278.3,3460.1,3456.4,581.8,532.2,489.3,1041.8,841.9,434.1,1.0,-21.0,1.0,9607.0,-8434.0,7370.0,-7120.0,7.0,12.0,9.0,3.0,14.0,4.0,9883.0,-12902.0,1650.0,1257.0,-2.0,1.0,5.0,1.0
2022-05-08 14:18:27.926983-07:00,757.9,887.3,935.6,1077.3,377.8,370.8,989.3,824.4,3450.4,3467.4,1402.1,951.7,738.9,3467.4,1519.0,991.0,3449.1,3443.1,410.6,363.8,365.4,363.8,329.0,281.3,3460.1,3456.4,581.8,535.4,489.3,1041.8,846.1,430.2,11.0,-19.0,-3.0,9607.0,-8434.0,7373.0,-7116.0,-18.0,8.0,6.0,5.0,11.0,-6.0,9882.0,-12902.0,1653.0,1258.0,-11.0,8.0,14.0,1.0
2022-05-08 14:18:27.927968-07:00,761.2,899.1,967.1,1069.5,383.3,363.8,986.7,826.9,3478.3,3466.1,1436.0,951.7,734.0,3460.1,1512.5,995.3,3443.1,3445.5,414.5,358.4,365.4,363.8,329.0,279.8,3457.6,3473.4,582.6,531.4,487.7,1046.1,859.5,429.4,-2.0,-29.0,-35.0,9585.0,-8446.0,7386.0,-7119.0,-80.0,-5.0,-15.0,2.0,15.0,-9.0,9883.0,-12901.0,1661.0,1254.0,-11.0,30.0,10.0,1.0
2022-05-08 14:18:27.929410-07:00,761.2,899.1,967.1,1071.2,383.3,365.4,986.7,825.2,3478.3,3466.1,1436.0,950.9,734.0,3467.4,1536.6,992.7,3447.9,3446.7,414.5,358.4,368.5,363.8,329.0,279.8,3466.1,3467.4,587.5,531.4,486.1,1046.1,859.5,429.4,-15.0,-58.0,15.0,9573.0,-8428.0,7421.0,-7119.0,48.0,162.0,107.0,-8.0,-23.0,13.0,9879.0,-12902.0,1668.0,1256.0,52.0,4.0,32.0,1.0
2022-05-08 14:18:27.931337-07:00,762.9,889.0,1184.1,1071.2,380.9,365.4,986.7,825.2,3466.1,3466.1,1653.0,950.9,728.2,3467.4,1536.6,992.7,3447.9,3446.7,414.5,361.5,368.5,362.3,326.7,282.1,3466.1,3467.4,587.5,534.6,486.1,1073.8,1042.6,431.7,8.0,-14.0,-18.0,9580.0,-8358.0,7465.0,-7146.0,88.0,146.0,74.0,2.0,20.0,-11.0,9906.0,-12879.0,1688.0,1263.0,66.0,6.0,62.0,1.0
2022-05-08 14:18:28.076922-07:00,762.9,889.0,1184.1,1089.5,380.9,367.7,987.6,824.4,3466.1,3466.1,1653.0,963.7,728.2,3467.4,1658.7,1001.3,3451.6,3451.6,417.6,361.5,370.8,362.3,326.7,282.1,3473.4,3447.9,585.1,534.6,488.5,1073.8,1042.6,431.7,-10.0,-32.0,12.0,9586.0,-8274.0,7493.0,-7206.0,234.0,186.0,18.0,0.0,-3.0,16.0,9948.0,-12843.0,1700.0,1280.0,168.0,-56.0,48.0,1.0
2022-05-08 14:18:28.079163-07:00,765.3,885.6,1325.9,1097.3,377.8,368.5,997.9,830.2,3471.0,3475.9,2254.8,997.9,733.2,3454.0,1882.0,1006.5,3449.1,3446.7,413.7,361.5,373.2,366.9,329.0,287.5,3463.7,3457.6,589.9,530.6,490.1,1126.1,1149.8,438.0,6.0,-43.0,9.0,9652.0,-8115.0,7401.0,-7392.0,202.0,196.0,-55.0,2.0,19.0,-12.0,10109.0,-12712.0,1692.0,1329.0,137.0,-68.0,-15.0,1.0
2022-05-08 14:18:28.136990-07:00,754.6,886.5,1340.4,1102.5,381.7,368.5,997.9,830.2,3467.4,3461.3,2610.2,1039.2,736.5,3454.0,1882.0,1006.5,3449.1,3446.7,413.7,361.5,360.7,365.4,332.1,284.4,3463.7,3457.6,589.9,527.4,492.5,1207.1,1143.6,434.1,-30.0,2.0,-16.0,9644.0,-8043.0,7407.0,-7475.0,89.0,131.0,-45.0,-2.0,2.0,25.0,10150.0,-12680.0,1689.0,1334.0,26.0,16.0,13.0,1.0
2022-05-08 14:18:28.138870-07:00,754.6,886.5,1340.4,1102.5,384.0,383.3,1009.0,828.5,3467.4,3461.3,2610.2,1039.2,745.5,3467.4,2131.1,1021.1,3450.4,3449.1,409.8,364.6,360.7,365.4,332.1,284.4,3466.1,3464.9,597.9,534.6,492.5,1207.1,1143.6,434.1,28.0,-18.0,-18.0,9637.0,-8028.0,7383.0,-7524.0,132.0,78.0,-102.0,3.0,22.0,-17.0,10148.0,-12682.0,1689.0,1330.0,11.0,-9.0,-24.0,1.0
2022-05-08 14:18:28.166625-07:00,758.7,877.2,1329.6,1116.5,384.0,383.3,1009.0,828.5,3466.1,3467.4,2603.7,1066.9,745.5,3467.4,2131.1,1021.1,3450.4,3449.1,409.8,364.6,370.8,360.7,338.3,285.2,3466.1,3464.9,597.9,534.6,486.1,1209.7,1116.5,432.5,-2.0,-17.0,0.0,9622.0,-7975.0,7378.0,-7604.0,84.0,209.0,-30.0,0.0,10.0,15.0,10168.0,-12669.0,1671.0,1326.0,-6.0,3.0,-29.0,1.0
2022-05-08 14:18:28.256345-07:00,758.7,877.2,1329.6,1116.5,382.5,385.6,1002.2,831.1,3466.1,3467.4,2603.7,1066.9,738.1,3475.9,2229.1,1040.9,3447.9,3447.9,416.1,360.0,370.8,360.7,338.3,285.2,3463.7,3468.6,599.6,529.0,486.1,1209.7,1116.5,432.5,14.0,-20.0,-8.0,9600.0,-7919.0,7421.0,-7649.0,55.0,188.0,25.0,0.0,6.0,-13.0,10152.0,-12681.0,1682.0,1319.0,-33.0,42.0,17.0,1.0
2022-05-08 14:18:28.257534-07:00,754.6,882.3,1316.9,1136.6,382.5,385.6,1002.2,831.1,3464.9,3474.6,2535.8,1075.6,738.1,3475.9,2229.1,1040.9,3447.9,3447.9,416.1,360.0,368.5,364.6,336.7,285.2,3463.7,3468.6,599.6,529.0,493.2,1215.1,1099.9,438.0,-18.0,-13.0,-11.0,9565.0,-7845.0,7475.0,-7715.0,46.0,269.0,19.0,-8.0,10.0,7.0,10143.0,-12688.0,1694.0,1305.0,-31.0,69.0,6.0,1.0
2022-05-08 14:18:28.316310-07:00,754.6,882.3,1316.9,1136.6,383.3,383.3,1000.5,877.2,3464.9,3474.6,2535.8,1075.6,761.2,3469.8,2242.5,1048.7,3449.1,3440.7,409.8,359.2,368.5,364.6,336.7,285.2,3464.9,3447.9,596.3,526.6,493.2,1215.1,1099.9,438.0,17.0,-11.0,-35.0,9541.0,-7820.0,7528.0,-7719.0,-85.0,57.0,61.0,9.0,12.0,-16.0,10091.0,-12727.0,1727.0,1283.0,-197.0,112.0,31.0,1.0
2022-05-08 14:18:28.346369-07:00,750.5,867.1,1295.4,1157.7,383.3,383.3,1000.5,933.0,3462.5,3466.1,2464.2,1086.0,761.2,3469.8,2242.5,1062.5,3440.7,3440.7,409.8,359.2,370.8,359.2,333.6,299.0,3456.4,3447.9,596.3,526.6,498.0,1214.2,1076.4,435.7,-17.0,-47.0,15.0,9495.0,-7809.0,7615.0,-7702.0,-119.0,166.0,74.0,-7.0,-8.0,5.0,10008.0,-12790.0,1757.0,1266.0,-181.0,93.0,53.0,1.0
2022-05-08 14:18:28.406427-07:00,745.5,867.1,1295.4,1157.7,381.7,379.4,1024.5,933.0,3458.9,3466.1,2464.2,1086.0,759.6,3467.4,2240.4,1062.5,3440.7,3445.5,416.1,357.6,370.8,359.2,333.6,315.1,3456.4,3461.3,594.7,517.9,498.0,1214.2,1076.4,437.2,8.0,28.0,-32.0,9442.0,-7843.0,7668.0,-7679.0,-302.0,30.0,-26.0,-2.0,35.0,-15.0,9916.0,-12859.0,1789.0,1254.0,-391.0,150.0,33.0,1.0
2022-05-08 14:18:28.436486-07:00,745.5,869.6,1274.7,1170.9,381.7,379.4,1024.5,970.5,3458.9,3467.4,2410.3,1104.3,759.6,3467.4,2240.4,1062.5,3440.7,3445.5,416.1,357.6,367.7,366.2,329.8,315.1,3455.2,3461.3,594.7,517.9,496.4,1213.3,1073.8,437.2,-5.0,-69.0,28.0,9333.0,-7903.0,7793.0,-7625.0,-314.0,219.0,104.0,0.0,-18.0,17.0,9763.0,-12971.0,1832.0,1232.0,-302.0,149.0,74.0,1.0
2022-05-08 14:18:28.526317-07:00,740.6,869.6,1274.7,1170.9,377.8,377.0,1061.7,970.5,3478.3,3467.4,2410.3,1104.3,773.6,3471.0,2252.8,1062.5,3440.7,3441.9,417.6,358.4,367.7,366.2,329.8,327.5,3455.2,3454.0,590.7,519.5,496.4,1213.3,1073.8,437.2,6.0,-50.0,-37.0,9313.0,-7847.0,7885.0,-7612.0,103.0,132.0,214.0,15.0,26.0,21.0,9745.0,-12978.0,1884.0,1219.0,77.0,110.0,85.0,1.0
2022-05-08 14:18:28.556646-07:00,740.6,867.1,1253.3,1178.8,377.8,377.0,1061.7,1010.8,3478.3,3469.8,2365.1,1127.0,773.6,3471.0,2252.8,1078.2,3443.1,3441.9,417.6,358.4,373.2,360.7,329.8,327.5,3458.9,3454.0,590.7,519.5,496.4,1223.9,1067.7,437.2,3.0,-66.0,17.0,9289.0,-7794.0,7997.0,-7580.0,-80.0,242.0,213.0,-8.0,-14.0,2.0,9702.0,-13004.0,1936.0,1207.0,-38.0,64.0,66.0,1.0
2022-05-08 14:18:28.616858-07:00,734.8,867.1,1253.3,1178.8,371.6,374.7,1116.5,1010.8,3462.5,3469.8,2365.1,1127.0,791.9,3471.0,2229.1,1078.2,3443.1,3438.2,417.6,356.8,373.2,360.7,329.8,322.8,3458.9,3456.4,585.1,510.7,496.4,1223.9,1067.7,443.5,15.0,21.0,-20.0,9289.0,-7713.0,8078.0,-7577.0,3.0,160.0,103.0,18.0,-4.0,0.0,9733.0,-12972.0,2000.0,1198.0,18.0,64.0,57.0,1.0
2022-05-08 14:18:28.736897-07:00,734.8,870.5,1223.0,1197.4,371.6,374.7,1116.5,1028.0,3462.5,3473.4,2301.4,1134.9,791.9,3471.0,2229.1,1079.9,3443.1,3438.2,417.6,356.8,366.9,360.0,332.1,322.8,3463.7,3456.4,585.1,510.7,499.6,1230.2,1059.1,443.5,-4.0,-60.0,-16.0,9271.0,-7669.0,8161.0,-7554.0,-158.0,147.0,218.0,-9.0,22.0,-12.0,9715.0,-12979.0,2051.0,1174.0,71.0,151.0,108.0,1.0
2022-05-08 14:18:28.738400-07:00,737.3,859.5,1223.0,1197.4,376.3,370.0,1152.4,1028.0,3468.6,3462.5,2301.4,1134.9,793.5,3469.8,2194.2,1079.9,3443.1,3441.9,417.6,361.5,366.9,360.0,326.7,326.7,3463.7,3455.2,581.8,503.6,499.6,1230.2,1034.0,438.8,23.0,-6.0,4.0,9272.0,-7602.0,8264.0,-7508.0,-18.0,181.0,227.0,11.0,26.0,0.0,9710.0,-12977.0,2096.0,1164.0,92.0,97.0,98.0,1.0
2022-05-08 14:18:28.739346-07:00,737.3,859.5,1223.9,1202.7,376.3,370.0,1163.8,1034.9,3468.6,3462.5,2268.3,1148.9,793.5,3469.8,2209.6,1088.6,3443.1,3439.5,417.6,361.5,370.8,366.2,326.7,326.7,3463.7,3454.0,581.8,503.6,498.8,1231.9,1034.0,438.8,7.0,-28.0,1.0,9256.0,-7551.0,8350.0,-7484.0,-105.0,178.0,186.0,-5.0,14.0,-3.0,9703.0,-12975.0,2147.0,1150.0,-37.0,92.0,73.0,1.0
2022-05-08 14:18:28.886888-07:00,741.4,869.6,1223.9,1202.7,377.0,369.3,1163.8,1034.9,3466.1,3462.5,2268.3,1148.9,793.5,3467.4,2209.6,1088.6,3443.1,3439.5,415.3,355.3,370.8,366.2,328.2,323.6,3463.7,3454.0,581.0,503.6,498.8,1231.9,1047.0,449.0,-3.0,-35.0,9.0,9246.0,-7460.0,8453.0,-7472.0,46.0,234.0,226.0,0.0,21.0,9.0,9700.0,-12969.0,2192.0,1152.0,73.0,38.0,105.0,1.0
2022-05-08 14:18:28.888262-07:00,741.4,869.6,1224.8,1194.7,377.0,369.3,1171.8,1040.9,3466.1,3462.5,2226.0,1174.4,793.5,3467.4,2269.3,1117.4,3435.8,3445.5,415.3,355.3,367.7,363.1,328.2,323.6,3454.0,3463.7,581.0,503.6,497.2,1246.2,1047.0,449.0,4.0,-14.0,-14.0,9230.0,-7391.0,8534.0,-7468.0,-45.0,181.0,152.0,-2.0,32.0,3.0,9699.0,-12963.0,2233.0,1159.0,-3.0,57.0,66.0,1.0
2022-05-08 14:18:28.889235-07:00,745.5,874.7,1224.8,1194.7,379.4,368.5,1171.8,1040.9,3457.6,3471.0,2226.0,1174.4,811.0,3461.3,2269.3,1117.4,3435.8,3445.5,415.3,359.2,367.7,363.1,321.3,328.2,3454.0,3463.7,582.6,498.0,497.2,1246.2,1053.0,458.5,0.0,-43.0,-18.0,9222.0,-7339.0,8598.0,-7457.0,-8.0,118.0,140.0,-5.0,-3.0,-7.0,9708.0,-12950.0,2265.0,1158.0,81.0,2.0,66.0,1.0
2022-05-08 14:18:28.946380-07:00,745.5,874.7,1202.7,1177.9,379.4,368.5,1189.4,1042.6,3457.6,3471.0,2158.5,1207.1,811.0,3461.3,2261.0,1122.6,3447.9,3447.9,415.3,359.2,366.9,365.4,321.3,328.2,3464.9,3452.8,582.6,498.0,498.8,1235.5,1053.0,458.5,48.0,15.0,-15.0,9231.0,-7293.0,8645.0,-7437.0,-24.0,89.0,112.0,26.0,32.0,-21.0,9736.0,-12924.0,2290.0,1167.0,48.0,-18.0,32.0,1.0
2022-05-08 14:18:28.976585-07:00,761.2,900.0,1202.7,1177.9,373.9,366.9,1189.4,1042.6,3468.6,3473.4,2158.5,1207.1,852.0,3467.4,2261.0,1122.6,3447.9,3447.9,414.5,357.6,366.9,365.4,317.4,349.1,3464.9,3452.8,581.8,497.2,498.8,1235.5,1026.3,460.0,16.0,-13.0,-19.0,9231.0,-7297.0,8660.0,-7415.0,-31.0,-32.0,30.0,5.0,18.0,-7.0,9749.0,-12913.0,2296.0,1172.0,43.0,-12.0,6.0,1.0
2022-05-08 14:18:29.036385-07:00,761.2,900.0,1189.4,1174.4,373.9,366.2,1170.9,1040.1,3468.6,3473.4,2086.6,1208.0,852.0,3474.6,2214.7,1120.9,3439.5,3439.5,412.9,357.6,369.3,363.1,317.4,349.1,3456.4,3463.7,581.0,497.2,519.5,1212.4,1026.3,460.0,9.0,-11.0,-7.0,9240.0,-7293.0,8667.0,-7400.0,3.0,-3.0,51.0,4.0,14.0,0.0,9766.0,-12900.0,2294.0,1175.0,32.0,-27.0,5.0,1.0
2022-05-08 14:18:29.126584-07:00,774.5,903.4,1183.2,1174.4,377.0,366.2,1170.9,1040.1,3473.4,3463.7,2042.4,1208.0,862.9,3474.6,2214.7,1120.9,3439.5,3439.5,412.9,353.7,369.3,363.1,315.9,349.9,3456.4,3463.7,581.0,490.9,519.5,1201.8,1006.5,457.7,6.0,6.0,0.0,9249.0,-7275.0,8669.0,-7404.0,42.0,19.0,11.0,2.0,15.0,8.0,9779.0,-12891.0,2291.0,1180.0,31.0,-3.0,0.0,1.0
2022-05-08 14:18:29.128137-07:00,774.5,903.4,1183.2,1176.2,377.0,363.8,1167.4,1033.2,3473.4,3463.7,2042.4,1202.7,862.9,3473.4,2164.6,1107.8,3445.5,3441.9,417.6,353.7,373.9,363.1,315.9,349.9,3468.6,3467.4,571.4,490.9,525.8,1201.8,1006.5,457.7,1.0,-26.0,-6.0,9241.0,-7270.0,8671.0,-7416.0,2.0,32.0,-24.0,0.0,9.0,-1.0,9775.0,-12895.0,2286.0,1175.0,-15.0,12.0,-20.0,1.0
2022-05-08 14:18:29.216256-07:00,772.0,906.7,1175.3,1176.2,380.2,363.8,1167.4,1033.2,3467.4,3473.4,2020.4,1202.7,857.0,3473.4,2164.6,1107.8,3445.5,3441.9,417.6,360.7,373.9,366.9,318.2,356.8,3468.6,3467.4,571.4,493.2,525.8,1197.4,999.6,458.5,11.0,-13.0,-4.0,9233.0,-7268.0,8672.0,-7426.0,16.0,18.0,-25.0,1.0,11.0,1.0,9773.0,-12897.0,2282.0,1172.0,-7.0,5.0,-11.0,1.0
2022-05-08 14:18:29.246654-07:00,772.0,906.7,1175.3,1153.3,380.2,359.2,1168.2,1029.7,3467.4,3473.4,2020.4,1189.4,857.0,3468.6,2149.3,1105.1,3438.2,3438.2,412.9,360.7,366.9,366.9,318.2,356.8,3455.2,3462.5,573.0,493.2,526.6,1197.4,999.6,458.5,2.0,-20.0,-11.0,9224.0,-7279.0,8664.0,-7436.0,4.0,-14.0,-42.0,1.0,5.0,-4.0,9769.0,-12902.0,2276.0,1164.0,-4.0,4.0,-29.0,1.0
2022-05-08 14:18:29.276325-07:00,766.2,893.2,1171.8,1153.3,373.2,359.2,1168.2,1029.7,3469.8,3466.1,2006.4,1189.4,844.4,3468.6,2149.3,1105.1,3438.2,3438.2,412.9,355.3,366.9,362.3,309.0,349.1,3455.2,3462.5,573.0,491.7,526.6,1188.5,992.7,454.5,4.0,-23.0,-7.0,9219.0,-7287.0,8660.0,-7440.0,-18.0,8.0,-9.0,8.0,13.0,2.0,9764.0,-12908.0,2267.0,1159.0,-18.0,-1.0,-19.0,1.0
2022-05-08 14:18:29.336366-07:00,766.2,893.2,1171.8,1145.4,373.9,366.2,1157.7,1027.1,3469.8,3466.1,2006.4,1177.9,831.1,3457.6,2127.0,1104.3,3443.1,3443.1,414.5,356.1,372.4,362.3,309.0,349.1,3457.6,3460.1,564.2,486.9,521.8,1188.5,992.7,454.5,4.0,-16.0,-5.0,9213.0,-7293.0,8665.0,-7436.0,-30.0,1.0,-3.0,3.0,15.0,-5.0,9755.0,-12916.0,2264.0,1154.0,-20.0,13.0,-7.0,1.0
2022-05-08 14:18:29.396347-07:00,757.9,894.9,1171.8,1144.5,373.9,366.2,1157.7,1027.1,3469.8,3480.7,1996.5,1174.4,831.1,3457.6,2127.0,1104.3,3443.1,3443.1,414.5,356.1,369.3,366.2,312.0,346.8,3457.6,3460.1,564.2,486.9,515.5,1181.5,996.2,456.9,-3.0,-25.0,-9.0,9202.0,-7298.0,8676.0,-7431.0,-53.0,31.0,27.0,0.0,8.0,2.0,9738.0,-12930.0,2263.0,1148.0,-50.0,23.0,-19.0,1.0
2022-05-08 14:18:29.426547-07:00,757.9,894.9,1171.8,1144.5,372.4,366.2,1146.3,1025.4,3469.8,3480.7,1996.5,1174.4,831.1,3466.1,2124.0,1100.8,3446.7,3444.3,416.1,360.7,369.3,366.2,312.0,346.8,3464.9,3467.4,573.0,486.1,515.5,1181.5,996.2,456.9,-1.0,-15.0,-8.0,9194.0,-7297.0,8695.0,-7420.0,-10.0,-3.0,9.0,6.0,7.0,0.0,9729.0,-12936.0,2264.0,1148.0,5.0,9.0,7.0,1.0
2022-05-08 14:18:29.516314-07:00,763.7,881.4,1163.0,1144.5,372.4,366.2,1146.3,1025.4,3468.6,3464.9,1989.5,1175.3,831.1,3466.1,2124.0,1100.8,3446.7,3444.3,416.1,360.7,368.5,363.8,312.0,340.6,3464.9,3467.4,573.0,486.1,517.1,1185.9,979.9,455.3,16.0,-16.0,-1.0,9191.0,-7301.0,8693.0,-7423.0,-1.0,16.0,-12.0,3.0,26.0,-11.0,9725.0,-12939.0,2261.0,1146.0,-21.0,7.0,-21.0,1.0
2022-05-08 14:18:29.546429-07:00,763.7,881.4,1163.0,1144.5,375.5,354.5,1147.1,1025.4,3468.6,3464.9,1989.5,1175.3,831.9,3462.5,2104.8,1103.4,3449.1,3441.9,412.1,359.2,368.5,363.8,312.0,340.6,3466.1,3458.9,567.4,483.0,517.1,1185.9,979.9,455.3,-5.0,-31.0,-13.0,9186.0,-7303.0,8693.0,-7426.0,-4.0,-5.0,5.0,0.0,2.0,3.0,9725.0,-12940.0,2257.0,1143.0,1.0,0.0,-9.0,1.0
2022-05-08 14:18:29.576444-07:00,757.1,889.0,1162.1,1144.5,375.5,354.5,1147.1,1025.4,3461.3,3475.9,1982.6,1170.9,831.9,3462.5,2104.8,1103.4,3449.1,3441.9,412.1,359.2,371.6,369.3,308.2,342.1,3466.1,3458.9,567.4,483.0,511.5,1183.2,992.7,456.9,6.0,-6.0,-9.0,9190.0,-7306.0,8687.0,-7426.0,11.0,-16.0,-12.0,6.0,18.0,-1.0,9726.0,-12940.0,2257.0,1143.0,8.0,0.0,-7.0,1.0
2022-05-08 14:18:29.696326-07:00,757.1,889.0,1162.1,1144.5,370.8,360.7,1137.5,1017.6,3461.3,3475.9,1982.6,1170.9,830.2,3457.6,2094.7,1101.7,3446.7,3440.7,417.6,360.0,371.6,369.3,308.2,342.1,3452.8,3461.3,569.0,489.3,511.5,1183.2,992.7,456.9,1.0,-17.0,-13.0,9184.0,-7310.0,8684.0,-7433.0,-9.0,-3.0,-27.0,1.0,6.0,-1.0,9723.0,-12944.0,2250.0,1136.0,-21.0,10.0,-35.0,1.0
2022-05-08 14:18:29.697988-07:00,750.5,888.2,1163.8,1141.0,370.8,360.7,1137.5,1018.5,3480.7,3468.6,1976.6,1167.4,830.2,3457.6,2094.7,1099.9,3439.5,3440.7,417.6,360.0,375.5,364.6,308.2,341.4,3461.3,3461.3,569.0,489.3,509.9,1192.0,987.6,456.9,4.0,-18.0,-3.0,9184.0,-7315.0,8676.0,-7437.0,13.0,-13.0,-15.0,-2.0,16.0,-2.0,9723.0,-12946.0,2242.0,1131.0,7.0,-5.0,-18.0,1.0
2022-05-08 14:18:29.756139-07:00,754.6,888.2,1163.8,1141.0,370.8,361.5,1137.5,1018.5,3452.8,3468.6,1976.6,1167.4,821.9,3468.6,2086.6,1099.9,3439.5,3449.1,420.0,357.6,375.5,364.6,308.2,335.9,3461.3,3463.7,572.2,482.2,509.9,1192.0,987.6,453.7,4.0,-28.0,-5.0,9183.0,-7317.0,8670.0,-7444.0,10.0,-1.0,-10.0,10.0,7.0,0.0,9724.0,-12947.0,2235.0,1126.0,-7.0,-6.0,-21.0,1.0
2022-05-08 14:18:29.787569-07:00,754.6,886.5,1156.8,1135.7,370.8,361.5,1137.5,1015.9,3452.8,3479.5,1974.6,1163.8,821.9,3468.6,2086.6,1093.8,3444.3,3449.1,420.0,357.6,373.2,363.1,309.7,335.9,3457.6,3463.7,572.2,482.2,512.3,1178.8,1001.3,453.7,3.0,-24.0,-9.0,9184.0,-7321.0,8666.0,-7443.0,-4.0,-12.0,7.0,0.0,11.0,2.0,9722.0,-12949.0,2230.0,1122.0,-12.0,5.0,-14.0,1.0
2022-05-08 14:18:29.846286-07:00,753.8,886.5,1156.8,1135.7,371.6,360.0,1135.7,1015.9,3471.0,3479.5,1974.6,1163.8,823.5,3462.5,2088.6,1093.8,3444.3,3444.3,418.4,356.1,373.2,363.1,309.7,338.3,3457.6,3462.5,573.0,487.7,512.3,1178.8,1001.3,453.7,-3.0,-7.0,-9.0,9187.0,-7320.0,8664.0,-7443.0,7.0,-18.0,-2.0,5.0,17.0,8.0,9723.0,-12950.0,2226.0,1122.0,-2.0,-5.0,-11.0,1.0
2022-05-08 14:18:29.876397-07:00,753.8,891.5,1153.3,1136.6,371.6,360.0,1135.7,1016.8,3471.0,3468.6,1965.7,1177.0,823.5,3462.5,2088.6,1090.3,3438.2,3444.3,418.4,356.1,366.9,370.0,310.5,338.3,3467.4,3462.5,573.0,487.7,493.2,1178.8,989.3,453.7,1.0,-28.0,-4.0,9191.0,-7326.0,8659.0,-7437.0,-5.0,-26.0,0.0,4.0,7.0,-3.0,9723.0,-12950.0,2227.0,1121.0,-5.0,7.0,-1.0,1.0
2022-05-08 14:18:29.936304-07:00,753.8,891.5,1153.3,1136.6,370.8,361.5,1125.2,1016.8,3467.4,3468.6,1965.7,1177.0,817.7,3469.8,2076.5,1090.3,3438.2,3439.5,416.8,356.8,366.9,370.0,310.5,339.0,3467.4,3456.4,572.2,478.2,493.2,1178.8,989.3,449.8,0.0,-17.0,-2.0,9191.0,-7327.0,8658.0,-7437.0,-1.0,4.0,-1.0,14.0,65.0,-4.0,9743.0,-12933.0,2236.0,1120.0,184.0,25.0,60.0,1.0
2022-05-08 14:18:29.996709-07:00,753.8,885.6,1155.0,1140.1,370.8,361.5,1127.9,1000.5,3467.4,3467.4,1963.7,1163.8,817.7,3469.8,2075.5,1095.6,3441.9,3440.7,416.8,356.8,370.8,367.7,308.2,339.0,3468.6,3456.4,572.2,478.2,512.3,1178.8,982.5,449.8,6.0,-25.0,0.0,9194.0,-7327.0,8654.0,-7438.0,11.0,-4.0,5.0,-3.0,14.0,-2.0,9743.0,-12933.0,2234.0,1122.0,0.0,-7.0,9.0,1.0
2022-05-08 14:18:30.026648-07:00,744.7,889.0,1155.0,1140.1,377.0,357.6,1127.9,1000.5,3466.1,3464.9,1963.7,1163.8,817.7,3456.4,2075.5,1095.6,3441.9,3440.7,414.5,361.5,370.8,367.7,302.0,337.5,3468.6,3456.4,564.2,485.3,512.3,1178.8,999.6,449.8,4.0,-26.0,1.0,9196.0,-7323.0,8659.0,-7435.0,-8.0,24.0,31.0,5.0,8.0,0.0,9744.0,-12931.0,2238.0,1124.0,-11.0,9.0,12.0,1.0
2022-05-08 14:18:30.087193-07:00,744.7,889.0,1156.8,1136.6,377.0,357.6,1129.6,1012.5,3466.1,3464.9,1955.8,1163.0,817.7,3456.4,2085.6,1089.5,3444.3,3438.2,414.5,361.5,369.3,364.6,302.0,337.5,3458.9,3461.3,564.2,485.3,508.3,1170.9,999.6,449.8,1.0,-12.0,-9.0,9196.0,-7314.0,8667.0,-7433.0,-7.0,4.0,6.0,2.0,12.0,6.0,9743.0,-12931.0,2244.0,1129.0,1.0,0.0,20.0,1.0
2022-05-08 14:18:30.146327-07:00,747.2,893.2,1156.8,1136.6,367.7,362.3,1129.6,1012.5,3469.8,3463.7,1955.8,1163.0,819.4,3464.9,2085.6,1089.5,3444.3,3438.2,415.3,361.5,369.3,364.6,306.7,332.1,3458.9,3461.3,565.0,479.0,508.3,1170.9,982.5,453.0,3.0,-20.0,-7.0,9198.0,-7313.0,8668.0,-7432.0,-3.0,10.0,15.0,4.0,17.0,-10.0,9742.0,-12930.0,2249.0,1133.0,-1.0,-2.0,16.0,1.0
2022-05-08 14:18:30.176401-07:00,747.2,893.2,1156.8,1140.1,367.7,362.3,1133.1,1007.3,3469.8,3463.7,1951.9,1149.8,819.4,3464.9,2065.5,1090.3,3435.8,3444.3,415.3,361.5,366.9,365.4,306.7,332.1,3467.4,3463.7,565.0,479.0,506.7,1173.5,982.5,453.0,-1.0,-13.0,-13.0,9197.0,-7309.0,8672.0,-7431.0,-5.0,-7.0,3.0,6.0,15.0,7.0,9742.0,-12929.0,2254.0,1138.0,-5.0,-1.0,13.0,1.0
2022-05-08 14:18:30.236356-07:00,752.9,887.3,1156.8,1140.1,372.4,362.3,1133.1,1007.3,3467.4,3461.3,1951.9,1149.8,820.2,3468.6,2065.5,1090.3,3435.8,3444.3,414.5,358.4,366.9,365.4,308.2,334.4,3467.4,3463.7,567.4,479.8,506.7,1173.5,991.0,451.4,7.0,-21.0,-4.0,9197.0,-7305.0,8677.0,-7430.0,4.0,35.0,20.0,4.0,12.0,-3.0,9741.0,-12928.0,2259.0,1142.0,2.0,-4.0,17.0,1.0
2022-05-08 14:18:30.326323-07:00,752.9,887.3,1154.2,1128.7,372.4,362.3,1125.2,1010.8,3467.4,3461.3,1946.9,1158.6,820.2,3468.6,2051.4,1089.5,3439.5,3446.7,414.5,358.4,370.0,366.2,308.2,334.4,3458.9,3456.4,567.4,479.8,505.1,1170.9,991.0,451.4,-4.0,-14.0,-11.0,9194.0,-7296.0,8686.0,-7430.0,-14.0,3.0,5.0,0.0,11.0,6.0,9740.0,-12928.0,2265.0,1147.0,-10.0,8.0,19.0,1.0
2022-05-08 14:18:30.327491-07:00,748.8,881.4,1154.2,1128.7,373.2,353.0,1125.2,1010.8,3467.4,3473.4,1948.9,1158.6,813.5,3455.2,2051.4,1089.5,3439.5,3446.7,416.1,358.4,370.0,365.4,305.1,337.5,3458.9,3456.4,561.8,479.8,505.1,1164.7,986.7,452.2,12.0,-18.0,-1.0,9194.0,-7295.0,8689.0,-7429.0,-3.0,25.0,18.0,7.0,13.0,-6.0,9739.0,-12927.0,2272.0,1152.0,3.0,4.0,16.0,1.0
2022-05-08 14:18:30.447039-07:00,748.8,881.4,1154.2,1136.6,373.2,359.2,1127.9,1012.5,3467.4,3473.4,1948.9,1155.9,813.5,3468.6,2064.5,1093.8,3440.7,3443.1,416.8,358.4,366.9,365.4,305.1,337.5,3457.6,3464.9,565.8,479.8,509.1,1164.7,986.7,452.2,-2.0,-13.0,-12.0,9189.0,-7286.0,8699.0,-7433.0,-3.0,25.0,2.0,1.0,12.0,4.0,9738.0,-12927.0,2274.0,1154.0,-8.0,3.0,9.0,1.0
2022-05-08 14:18:30.448008-07:00,749.6,878.0,1144.5,1136.6,370.0,359.2,1127.9,1012.5,3471.0,3462.5,1943.0,1155.9,815.2,3468.6,2064.5,1093.8,3440.7,3443.1,416.8,356.8,366.9,367.7,306.7,336.7,3457.6,3464.9,565.8,478.2,509.1,1168.2,985.9,447.4,5.0,-26.0,-10.0,9187.0,-7284.0,8701.0,-7434.0,9.0,2.0,-1.0,1.0,10.0,-5.0,9738.0,-12926.0,2275.0,1154.0,2.0,3.0,7.0,1.0
2022-05-08 14:18:30.476797-07:00,749.6,878.0,1144.5,1136.6,370.0,354.5,1118.2,1009.0,3471.0,3462.5,1943.0,1152.4,815.2,3471.0,2056.4,1087.7,3438.2,3441.9,412.9,356.8,369.3,367.7,306.7,336.7,3464.9,3461.3,570.6,478.2,512.3,1168.2,985.9,447.4,8.0,-23.0,-5.0,9186.0,-7280.0,8705.0,-7434.0,-7.0,21.0,22.0,0.0,7.0,0.0,9739.0,-12926.0,2276.0,1155.0,-14.0,-1.0,6.0,1.0
2022-05-08 14:18:30.566690-07:00,750.5,886.5,1147.1,1136.6,372.4,354.5,1118.2,1009.0,3467.4,3469.8,1951.9,1152.4,813.5,3471.0,2056.4,1087.7,3438.2,3441.9,412.9,356.1,369.3,363.8,302.8,335.9,3464.9,3461.3,570.6,476.6,512.3,1166.5,991.0,450.6,1.0,-6.0,-13.0,9186.0,-7277.0,8709.0,-7434.0,1.0,-15.0,-9.0,3.0,21.0,2.0,9739.0,-12925.0,2278.0,1156.0,-2.0,2.0,6.0,1.0
2022-05-08 14:18:30.596342-07:00,750.5,886.5,1147.1,1123.5,372.4,360.0,1121.7,1009.9,3467.4,3469.8,1951.9,1149.8,813.5,3455.2,2057.4,1091.2,3443.1,3446.7,416.1,356.1,364.6,363.8,302.8,335.9,3450.4,3463.7,562.6,476.6,503.6,1166.5,991.0,450.6,0.0,-26.0,-4.0,9187.0,-7277.0,8709.0,-7433.0,-8.0,14.0,10.0,0.0,6.0,-1.0,9739.0,-12925.0,2278.0,1155.0,-5.0,2.0,-2.0,1.0
2022-05-08 14:18:30.626759-07:00,748.0,883.1,1151.5,1123.5,368.5,360.0,1121.7,1009.9,3457.6,3469.8,1940.0,1149.8,810.2,3455.2,2057.4,1091.2,3443.1,3446.7,416.1,353.0,364.6,360.0,304.3,334.4,3450.4,3463.7,562.6,476.6,503.6,1168.2,986.7,449.8,0.0,-11.0,-11.0,9186.0,-7275.0,8710.0,-7434.0,2.0,2.0,-10.0,4.0,15.0,0.0,9739.0,-12925.0,2279.0,1156.0,4.0,-7.0,8.0,1.0
2022-05-08 14:18:30.686352-07:00,748.0,883.1,1151.5,1133.1,370.8,356.1,1124.4,1010.8,3457.6,3469.8,1940.0,1148.9,818.5,3467.4,2051.4,1091.2,3446.7,3445.5,413.7,357.6,369.3,360.0,304.3,334.4,3468.6,3471.0,567.4,480.6,502.8,1168.2,986.7,449.8,8.0,-21.0,-7.0,9184.0,-7276.0,8710.0,-7435.0,-3.0,18.0,10.0,5.0,11.0,-2.0,9738.0,-12925.0,2280.0,1156.0,5.0,10.0,0.0,1.0
2022-05-08 14:18:30.746366-07:00,744.7,883.1,1141.9,1134.0,370.8,356.1,1124.4,1010.8,3469.8,3468.6,1937.1,1155.9,818.5,3467.4,2051.4,1091.2,3446.7,3445.5,413.7,357.6,365.4,366.2,300.5,333.6,3468.6,3471.0,567.4,480.6,506.7,1167.4,988.5,448.2,1.0,-20.0,-6.0,9181.0,-7271.0,8717.0,-7435.0,6.0,12.0,4.0,2.0,8.0,0.0,9737.0,-12926.0,2280.0,1156.0,-4.0,0.0,6.0,1.0
2022-05-08 14:18:30.806370-07:00,744.7,883.1,1141.9,1134.0,375.5,356.1,1116.5,1006.5,3469.8,3468.6,1937.1,1155.9,809.4,3464.9,2041.4,1083.4,3446.7,3454.0,412.9,360.0,365.4,366.2,300.5,333.6,3458.9,3468.6,576.2,477.4,506.7,1167.4,988.5,448.2,7.0,-20.0,-8.0,9181.0,-7271.0,8717.0,-7436.0,9.0,-3.0,1.0,4.0,20.0,-4.0,9737.0,-12926.0,2280.0,1156.0,-2.0,0.0,1.0,1.0
2022-05-08 14:18:30.836504-07:00,744.7,878.0,1139.2,1126.1,375.5,356.1,1116.5,1006.5,3463.7,3464.9,1952.9,1154.2,809.4,3464.9,2041.4,1083.4,3446.7,3454.0,412.9,360.0,370.8,365.4,304.3,333.6,3458.9,3468.6,576.2,477.4,505.9,1170.0,988.5,453.0,0.0,-25.0,-9.0,9181.0,-7271.0,8717.0,-7436.0,3.0,2.0,9.0,4.0,4.0,-1.0,9736.0,-12927.0,2280.0,1156.0,-9.0,0.0,2.0,1.0
2022-05-08 14:18:30.896291-07:00,744.7,878.0,1139.2,1126.1,365.4,357.6,1126.1,1001.3,3463.7,3464.9,1952.9,1154.2,811.9,3467.4,2044.4,1083.4,3440.7,3449.1,414.5,354.5,370.8,365.4,304.3,333.6,3452.8,3457.6,564.2,475.0,505.9,1170.0,988.5,453.0,2.0,-15.0,-4.0,9181.0,-7270.0,8717.0,-7437.0,6.0,17.0,-5.0,0.0,14.0,-1.0,9737.0,-12927.0,2280.0,1156.0,3.0,-1.0,-1.0,1.0
2022-05-08 14:18:30.956920-07:00,746.3,878.0,1148.9,1121.7,365.4,357.6,1126.1,1001.3,3466.1,3462.5,1927.2,1145.4,811.9,3467.4,2044.4,1083.4,3440.7,3449.1,414.5,354.5,366.9,363.8,304.3,332.9,3452.8,3457.6,564.2,475.0,502.0,1169.1,988.5,446.7,4.0,-24.0,-9.0,9180.0,-7268.0,8719.0,-7438.0,-3.0,1.0,3.0,2.0,9.0,-5.0,9737.0,-12927.0,2280.0,1156.0,-9.0,4.0,1.0,1.0
2022-05-08 14:18:30.986392-07:00,744.7,878.0,1148.9,1121.7,372.4,356.8,1116.5,1006.5,3468.6,3462.5,1927.2,1145.4,804.4,3467.4,2043.4,1083.4,3446.7,3445.5,412.1,356.1,366.9,363.8,304.3,328.2,3457.6,3460.1,565.8,475.8,502.0,1169.1,988.5,452.2,4.0,-14.0,-7.0,9180.0,-7268.0,8719.0,-7438.0,8.0,1.0,-5.0,3.0,10.0,0.0,9737.0,-12927.0,2280.0,1156.0,0.0,-3.0,2.0,1.0
2022-05-08 14:18:31.017262-07:00,744.7,878.0,1136.6,1127.9,372.4,356.8,1116.5,1001.3,3468.6,3478.3,1932.1,1146.3,804.4,3467.4,2043.4,1086.0,3454.0,3445.5,412.1,356.1,365.4,363.1,302.0,328.2,3468.6,3460.1,565.8,475.8,504.4,1165.6,983.3,452.2,4.0,-17.0,-10.0,9180.0,-7268.0,8718.0,-7439.0,-9.0,11.0,7.0,0.0,15.0,-10.0,9737.0,-12927.0,2280.0,1156.0,2.0,5.0,2.0,1.0
2022-05-08 14:18:31.106369-07:00,749.6,878.0,1136.6,1127.9,366.2,356.8,1120.9,1001.3,3468.6,3478.3,1932.1,1146.3,805.2,3464.9,2038.4,1086.0,3454.0,3449.1,409.8,360.7,365.4,363.1,302.0,329.8,3468.6,3469.8,567.4,476.6,504.4,1165.6,983.3,447.4,0.0,-19.0,-7.0,9179.0,-7268.0,8719.0,-7438.0,5.0,-9.0,3.0,-3.0,12.0,1.0,9735.0,-12928.0,2281.0,1155.0,8.0,-6.0,3.0,1.0
2022-05-08 14:18:31.166416-07:00,749.6,885.6,1145.4,1130.5,366.2,356.8,1120.9,1002.2,3468.6,3463.7,1931.1,1144.5,805.2,3464.9,2038.4,1085.1,3455.2,3449.1,409.8,360.7,373.2,366.2,307.4,329.8,3456.4,3469.8,567.4,476.6,505.1,1164.7,985.9,447.4,6.0,-14.0,-4.0,9179.0,-7267.0,8721.0,-7439.0,1.0,9.0,6.0,7.0,19.0,-2.0,9735.0,-12928.0,2278.0,1158.0,1.0,-4.0,0.0,1.0
2022-05-08 14:18:31.167889-07:00,747.2,885.6,1145.4,1130.5,373.9,353.0,1127.0,1002.2,3468.6,3463.7,1931.1,1144.5,811.9,3473.4,2034.4,1085.1,3455.2,3451.6,410.6,359.2,373.2,366.2,307.4,333.6,3456.4,3456.4,562.6,480.6,505.1,1164.7,985.9,452.2,-2.0,-25.0,-9.0,9178.0,-7266.0,8721.0,-7439.0,-3.0,6.0,5.0,-3.0,13.0,-3.0,9732.0,-12930.0,2280.0,1156.0,0.0,9.0,-4.0,1.0
2022-05-08 14:18:31.226454-07:00,747.2,879.7,1143.6,1125.2,373.9,353.0,1127.0,999.6,3468.6,3466.1,1932.1,1148.0,811.9,3473.4,2034.4,1084.2,3444.3,3451.6,410.6,359.2,367.7,369.3,303.6,333.6,3456.4,3456.4,562.6,480.6,507.5,1159.4,980.7,452.2,6.0,-17.0,-9.0,9178.0,-7264.0,8723.0,-7439.0,1.0,9.0,11.0,2.0,14.0,1.0,9732.0,-12930.0,2279.0,1157.0,4.0,-3.0,5.0,1.0
2022-05-08 14:18:31.286350-07:00,746.3,879.7,1143.6,1125.2,369.3,354.5,1119.1,999.6,3464.9,3466.1,1932.1,1148.0,806.0,3461.3,2039.4,1084.2,3444.3,3452.8,415.3,357.6,367.7,369.3,303.6,332.9,3456.4,3457.6,562.6,473.5,507.5,1159.4,980.7,449.8,8.0,-18.0,-7.0,9180.0,-7262.0,8725.0,-7436.0,-20.0,8.0,14.0,-1.0,18.0,-2.0,9731.0,-12930.0,2282.0,1156.0,-13.0,9.0,6.0,1.0
2022-05-08 14:18:31.346333-07:00,746.3,878.0,1145.4,1127.9,369.3,354.5,1126.1,1003.0,3464.9,3472.2,1925.2,1142.7,806.0,3461.3,2042.4,1085.1,3449.1,3441.9,415.3,357.6,370.0,367.7,305.9,332.9,3469.8,3457.6,562.6,473.5,524.2,1168.2,987.6,449.8,0.0,-13.0,-10.0,9180.0,-7260.0,8730.0,-7432.0,9.0,0.0,-5.0,3.0,9.0,0.0,9731.0,-12930.0,2282.0,1156.0,2.0,-3.0,-4.0,1.0
2022-05-08 14:18:31.376683-07:00,748.0,877.2,1145.4,1127.9,368.5,358.4,1126.1,1003.0,3457.6,3479.5,1925.2,1142.7,806.9,3463.7,2042.4,1085.1,3449.1,3441.9,412.1,360.0,370.0,367.7,300.5,332.1,3469.8,3457.6,566.6,473.5,524.2,1168.2,984.2,448.2,6.0,-22.0,-8.0,9181.0,-7259.0,8730.0,-7433.0,0.0,18.0,2.0,2.0,18.0,-5.0,9731.0,-12930.0,2282.0,1156.0,-6.0,2.0,0.0,1.0
2022-05-08 14:18:31.466361-07:00,748.0,877.2,1145.4,1129.6,368.5,358.4,1115.6,997.0,3457.6,3479.5,1929.2,1145.4,806.9,3463.7,2026.4,1076.4,3444.3,3441.9,412.1,360.0,370.8,365.4,300.5,332.1,3458.9,3461.3,566.6,473.5,498.8,1160.3,984.2,448.2,0.0,-9.0,-14.0,9176.0,-7256.0,8734.0,-7436.0,1.0,0.0,-8.0,2.0,11.0,0.0,9730.0,-12932.0,2282.0,1156.0,-3.0,7.0,2.0,1.0
2022-05-08 14:18:31.467838-07:00,746.3,873.0,1145.4,1129.6,370.8,353.0,1115.6,997.0,3457.6,3466.1,1929.2,1145.4,806.0,3469.8,2026.4,1076.4,3444.3,3441.9,417.6,360.0,370.8,365.4,304.3,326.7,3458.9,3461.3,564.2,477.4,498.8,1160.3,991.0,447.4,7.0,-16.0,-7.0,9173.0,-7260.0,8730.0,-7441.0,14.0,1.0,-32.0,0.0,20.0,-1.0,9730.0,-12932.0,2278.0,1156.0,12.0,-15.0,-15.0,1.0
2022-05-08 14:18:31.526954-07:00,746.3,873.0,1144.5,1132.2,370.8,353.0,1120.9,1004.8,3457.6,3466.1,1930.2,1149.8,806.0,3469.8,2032.4,1081.6,3451.6,3447.9,417.6,360.0,366.9,369.3,304.3,326.7,3462.5,3461.3,564.2,477.4,495.6,1162.1,991.0,447.4,6.0,-7.0,-8.0,9169.0,-7263.0,8719.0,-7456.0,15.0,11.0,-35.0,3.0,24.0,-1.0,9736.0,-12929.0,2269.0,1157.0,10.0,-10.0,-16.0,1.0
2022-05-08 14:18:31.586513-07:00,761.2,873.0,1144.5,1132.2,373.9,357.6,1120.9,1004.8,3463.7,3467.4,1930.2,1149.8,814.4,3466.1,2032.4,1081.6,3451.6,3447.9,414.5,360.0,366.9,369.3,302.0,336.7,3462.5,3461.3,566.6,475.8,495.6,1162.1,994.5,455.3,1.0,-23.0,-13.0,9161.0,-7271.0,8713.0,-7466.0,6.0,-8.0,-31.0,0.0,6.0,-6.0,9738.0,-12929.0,2262.0,1153.0,17.0,-7.0,-17.0,1.0
2022-05-08 14:18:31.616406-07:00,761.2,873.0,1141.0,1146.3,373.9,351.4,1117.4,995.3,3463.7,3467.4,1942.0,1146.3,814.4,3462.5,2028.4,1079.0,3435.8,3447.9,414.5,360.0,366.2,363.8,302.0,336.7,3458.9,3461.3,566.6,475.8,503.6,1162.1,994.5,455.3,8.0,-27.0,-7.0,9162.0,-7279.0,8703.0,-7468.0,13.0,-17.0,-12.0,2.0,19.0,-7.0,9743.0,-12927.0,2254.0,1153.0,21.0,-23.0,-13.0,1.0
2022-05-08 14:18:31.676391-07:00,772.8,874.7,1153.3,1146.3,375.5,351.4,1117.4,995.3,3464.9,3466.1,1956.8,1146.3,811.9,3462.5,2028.4,1079.0,3435.8,3447.9,412.9,357.6,366.2,360.7,304.3,329.8,3458.9,3461.3,561.8,472.7,503.6,1162.1,998.7,448.2,2.0,-23.0,-8.0,9165.0,-7281.0,8699.0,-7466.0,-9.0,-11.0,-7.0,0.0,13.0,-2.0,9744.0,-12927.0,2247.0,1153.0,-11.0,-3.0,-14.0,1.0
2022-05-08 14:18:31.736436-07:00,772.8,874.7,1153.3,1155.0,375.5,358.4,1115.6,1001.3,3464.9,3466.1,1956.8,1142.7,811.9,3469.8,2023.4,1079.9,3443.1,3437.0,414.5,357.6,369.3,360.7,304.3,329.8,3461.3,3463.7,565.0,472.7,503.6,1162.1,998.7,448.2,9.0,-21.0,-3.0,9168.0,-7285.0,8696.0,-7462.0,10.0,-21.0,-8.0,3.0,14.0,-4.0,9745.0,-12927.0,2244.0,1155.0,14.0,-13.0,-4.0,1.0
2022-05-08 14:18:31.766947-07:00,766.2,873.8,1155.9,1155.0,370.8,358.4,1115.6,1001.3,3468.6,3463.7,1949.9,1142.7,804.4,3469.8,2023.4,1079.9,3443.1,3437.0,414.5,357.6,369.3,366.9,303.6,326.7,3461.3,3463.7,565.0,479.8,503.6,1156.8,996.2,451.4,6.0,-22.0,-4.0,9169.0,-7284.0,8695.0,-7463.0,-2.0,-6.0,7.0,4.0,9.0,-1.0,9746.0,-12926.0,2241.0,1155.0,-1.0,-8.0,-4.0,1.0
2022-05-08 14:18:31.827133-07:00,766.2,873.8,1155.9,1149.8,370.8,354.5,1113.0,997.0,3468.6,3463.7,1949.9,1141.9,804.4,3464.9,2019.4,1075.6,3450.4,3441.9,415.3,357.6,366.2,366.9,303.6,326.7,3462.5,3452.8,559.4,479.8,491.7,1156.8,996.2,451.4,4.0,-20.0,-3.0,9169.0,-7284.0,8695.0,-7463.0,5.0,7.0,1.0,3.0,11.0,-2.0,9746.0,-12926.0,2241.0,1155.0,4.0,-8.0,-2.0,1.0
2022-05-08 14:18:31.916368-07:00,766.2,878.9,1144.5,1149.8,373.9,354.5,1113.0,997.0,3466.1,3467.4,1942.0,1141.9,803.5,3464.9,2019.4,1075.6,3450.4,3441.9,415.3,355.3,366.2,363.8,304.3,328.2,3462.5,3452.8,559.4,472.7,491.7,1164.7,994.5,442.7,3.0,-19.0,-7.0,9169.0,-7284.0,8695.0,-7463.0,-6.0,4.0,2.0,5.0,8.0,-4.0,9745.0,-12927.0,2241.0,1154.0,-10.0,3.0,-7.0,1.0
2022-05-08 14:18:31.917510-07:00,766.2,878.9,1144.5,1153.3,373.9,353.0,1106.9,993.6,3466.1,3467.4,1942.0,1134.9,803.5,3471.0,2009.4,1079.9,3451.6,3446.7,416.1,355.3,369.3,363.8,304.3,328.2,3462.5,3463.7,562.6,472.7,490.9,1164.7,994.5,442.7,4.0,-19.0,-7.0,9169.0,-7283.0,8696.0,-7465.0,15.0,5.0,4.0,-2.0,13.0,-1.0,9746.0,-12926.0,2241.0,1155.0,11.0,-10.0,2.0,1.0
2022-05-08 14:18:31.976588-07:00,768.7,859.5,1152.4,1149.8,368.5,353.0,1106.9,993.6,3462.5,3463.7,1942.0,1134.0,801.0,3471.0,2009.4,1079.9,3451.6,3446.7,416.1,353.0,370.8,366.9,305.1,322.1,3462.5,3463.7,562.6,468.7,490.9,1161.2,1004.8,445.9,6.0,-12.0,-10.0,9168.0,-7282.0,8694.0,-7468.0,3.0,-5.0,-14.0,1.0,10.0,0.0,9747.0,-12926.0,2238.0,1153.0,4.0,1.0,-16.0,1.0
2022-05-08 14:18:32.066854-07:00,768.7,859.5,1152.4,1149.8,371.6,353.0,1105.1,995.3,3462.5,3463.7,1942.0,1134.0,797.7,3466.1,2007.4,1074.7,3447.9,3444.3,416.1,354.5,370.8,366.9,305.1,322.1,3458.9,3457.6,564.2,472.7,490.9,1161.2,1004.8,445.9,-1.0,-19.0,-10.0,9167.0,-7283.0,8693.0,-7469.0,6.0,-4.0,-15.0,-1.0,13.0,0.0,9748.0,-12927.0,2231.0,1148.0,-2.0,-6.0,-20.0,1.0
2022-05-08 14:18:32.068374-07:00,767.8,872.1,1146.3,1148.0,371.6,353.0,1105.1,995.3,3475.9,3468.6,1953.9,1128.7,797.7,3466.1,2007.4,1074.7,3447.9,3444.3,416.1,354.5,377.0,365.4,304.3,327.5,3458.9,3457.6,564.2,472.7,493.2,1166.5,991.9,456.1,-2.0,-20.0,-18.0,9170.0,-7283.0,8688.0,-7472.0,10.0,-22.0,-6.0,5.0,7.0,5.0,9752.0,-12925.0,2225.0,1149.0,15.0,-9.0,-11.0,1.0
2022-05-08 14:18:32.156458-07:00,767.8,872.1,1146.3,1148.0,368.5,353.0,1104.3,990.2,3475.9,3468.6,1953.9,1128.7,799.4,3457.6,2006.4,1075.6,3439.5,3454.0,414.5,362.3,377.0,365.4,304.3,327.5,3461.3,3458.9,558.6,474.3,493.2,1166.5,991.9,456.1,12.0,-15.0,-3.0,9173.0,-7283.0,8684.0,-7472.0,1.0,-7.0,4.0,5.0,21.0,-8.0,9758.0,-12922.0,2217.0,1151.0,9.0,-15.0,-10.0,1.0
2022-05-08 14:18:32.216210-07:00,778.6,868.8,1167.4,1142.7,368.5,353.0,1104.3,990.2,3463.7,3468.6,1964.7,1143.6,799.4,3457.6,2006.4,1075.6,3439.5,3454.0,414.5,362.3,366.2,362.3,309.0,329.0,3461.3,3458.9,558.6,474.3,486.1,1169.1,986.7,442.7,-3.0,-20.0,-5.0,9172.0,-7283.0,8685.0,-7474.0,3.0,3.0,-12.0,-1.0,15.0,1.0,9759.0,-12923.0,2208.0,1150.0,4.0,-11.0,-15.0,1.0
2022-05-08 14:18:32.218899-07:00,778.6,868.8,1167.4,1142.7,369.3,356.8,1097.3,997.0,3463.7,3468.6,1964.7,1143.6,796.0,3469.8,2019.4,1082.5,3440.7,3444.3,413.7,363.1,366.2,362.3,309.0,329.0,3463.7,3456.4,562.6,472.7,486.1,1169.1,986.7,442.7,0.0,-23.0,-8.0,9171.0,-7284.0,8683.0,-7476.0,4.0,-9.0,4.0,4.0,3.0,1.0,9761.0,-12922.0,2205.0,1149.0,9.0,-1.0,-7.0,1.0
2022-05-08 14:18:32.306496-07:00,777.8,865.4,1167.4,1148.0,369.3,356.8,1097.3,997.0,3468.6,3464.9,1962.8,1133.1,796.0,3469.8,2019.4,1082.5,3440.7,3444.3,413.7,363.1,365.4,363.8,307.4,328.2,3463.7,3456.4,562.6,472.7,487.7,1162.1,993.6,445.1,1.0,-24.0,-10.0,9171.0,-7283.0,8686.0,-7472.0,-23.0,8.0,20.0,2.0,17.0,1.0,9758.0,-12925.0,2206.0,1146.0,-22.0,12.0,-7.0,1.0
2022-05-08 14:18:32.336419-07:00,771.1,865.4,1167.4,1148.0,369.3,352.2,1101.7,993.6,3468.6,3464.9,1962.8,1133.1,801.9,3463.7,2005.5,1062.5,3435.8,3449.1,415.3,356.1,365.4,363.8,307.4,324.4,3457.6,3464.9,564.2,474.3,487.7,1162.1,993.6,449.8,1.0,-14.0,-11.0,9172.0,-7283.0,8687.0,-7469.0,5.0,-11.0,-3.0,4.0,17.0,-1.0,9759.0,-12923.0,2207.0,1145.0,10.0,-4.0,3.0,1.0
2022-05-08 14:18:32.366993-07:00,771.1,867.9,1169.1,1144.5,369.3,352.2,1101.7,995.3,3468.6,3461.3,1961.8,1140.1,801.9,3463.7,2005.5,1070.3,3444.3,3449.1,415.3,356.1,366.9,369.3,302.8,324.4,3457.6,3464.9,564.2,474.3,487.7,1156.8,986.7,449.8,0.0,-25.0,-16.0,9175.0,-7283.0,8689.0,-7464.0,-22.0,-5.0,33.0,4.0,19.0,5.0,9756.0,-12926.0,2207.0,1141.0,-32.0,36.0,-19.0,1.0
2022-05-08 14:18:32.427029-07:00,771.1,867.9,1169.1,1144.5,369.3,354.5,1099.0,995.3,3463.7,3461.3,1961.8,1140.1,796.9,3471.0,1999.5,1070.3,3444.3,3437.0,412.1,359.2,366.9,369.3,302.8,323.6,3457.6,3464.9,565.8,476.6,487.7,1156.8,986.7,445.9,3.0,-12.0,-12.0,9182.0,-7287.0,8693.0,-7447.0,-17.0,-28.0,12.0,3.0,23.0,-4.0,9747.0,-12933.0,2211.0,1131.0,-15.0,3.0,-3.0,1.0
2022-05-08 14:18:32.486360-07:00,771.1,865.4,1198.2,1143.6,369.3,354.5,1099.0,992.7,3463.7,3463.7,1981.6,1141.0,796.9,3471.0,1999.5,1066.9,3445.5,3437.0,412.1,359.2,365.4,369.3,305.1,323.6,3468.6,3464.9,565.8,476.6,483.0,1163.0,994.5,445.9,2.0,-13.0,-17.0,9194.0,-7298.0,8670.0,-7448.0,49.0,-78.0,-45.0,2.0,9.0,-6.0,9751.0,-12931.0,2204.0,1133.0,32.0,-37.0,-12.0,1.0
2022-05-08 14:18:32.576992-07:00,769.5,865.4,1198.2,1143.6,373.9,356.8,1099.9,992.7,3468.6,3463.7,1981.6,1141.0,797.7,3467.4,2036.4,1066.9,3445.5,3441.9,413.7,356.1,365.4,369.3,305.1,328.2,3468.6,3467.4,562.6,472.7,483.0,1163.0,994.5,453.7,6.0,-26.0,-2.0,9210.0,-7302.0,8648.0,-7450.0,30.0,-33.0,2.0,6.0,9.0,-5.0,9766.0,-12921.0,2191.0,1143.0,35.0,-45.0,-7.0,1.0
2022-05-08 14:18:32.578031-07:00,769.5,862.9,1230.2,1141.9,373.9,356.8,1099.9,985.9,3468.6,3462.5,2080.6,1157.7,797.7,3467.4,2036.4,1064.3,3441.9,3441.9,413.7,356.1,366.2,363.8,307.4,328.2,3463.7,3467.4,562.6,472.7,488.5,1167.4,1034.0,453.7,2.0,-16.0,-20.0,9224.0,-7300.0,8632.0,-7453.0,47.0,-45.0,-13.0,7.0,13.0,7.0,9784.0,-12908.0,2179.0,1159.0,43.0,-60.0,-13.0,1.0
2022-05-08 14:18:32.636726-07:00,772.8,862.9,1230.2,1141.9,372.4,351.4,1097.3,985.9,3468.6,3478.3,2080.6,1157.7,807.7,3468.6,2123.0,1064.3,3441.9,3439.5,415.3,359.2,366.2,363.8,309.7,333.6,3463.7,3454.0,561.8,467.1,488.5,1167.4,1096.4,446.7,11.0,-29.0,-3.0,9236.0,-7307.0,8614.0,-7453.0,3.0,-12.0,3.0,0.0,9.0,-14.0,9798.0,-12900.0,2156.0,1178.0,17.0,-83.0,-15.0,1.0
2022-05-08 14:18:32.696485-07:00,772.8,862.9,1328.7,1131.4,372.4,351.4,1103.4,990.2,3468.6,3478.3,2387.1,1194.7,807.7,3468.6,2274.5,1059.1,3433.4,3449.1,415.3,359.2,366.2,363.1,309.7,333.6,3447.9,3461.3,561.8,467.1,490.1,1185.0,1096.4,446.7,2.0,-6.0,-20.0,9237.0,-7308.0,8613.0,-7451.0,-10.0,-26.0,-9.0,6.0,10.0,2.0,9810.0,-12893.0,2128.0,1203.0,23.0,-85.0,-15.0,1.0
2022-05-08 14:18:32.756548-07:00,770.3,862.1,1328.7,1131.4,368.5,353.7,1103.4,990.2,3468.6,3463.7,2387.1,1194.7,821.9,3466.1,2274.5,1059.1,3433.4,3449.1,412.9,360.0,366.2,363.1,322.8,337.5,3447.9,3461.3,561.8,478.2,490.1,1185.0,1140.1,447.4,7.0,-25.0,-14.0,9242.0,-7349.0,8581.0,-7442.0,-10.0,-134.0,-79.0,4.0,17.0,-1.0,9814.0,-12892.0,2099.0,1226.0,-7.0,-79.0,-26.0,1.0
2022-05-08 14:18:32.786548-07:00,770.3,862.1,1372.1,1129.6,368.5,353.7,1098.2,989.3,3468.6,3463.7,2578.8,1183.2,821.9,3466.1,2241.4,1053.0,3440.7,3439.5,412.9,360.0,370.8,361.5,322.8,337.5,3460.1,3451.6,561.8,478.2,486.1,1191.2,1140.1,447.4,-2.0,-17.0,0.0,9264.0,-7360.0,8540.0,-7451.0,121.0,-48.0,-31.0,4.0,18.0,0.0,9837.0,-12877.0,2064.0,1254.0,94.0,-124.0,-25.0,1.0
2022-05-08 14:18:32.816406-07:00,767.8,865.4,1372.1,1129.6,372.4,354.5,1098.2,989.3,3467.4,3468.6,2578.8,1183.2,817.7,3473.4,2241.4,1053.0,3440.7,3439.5,412.9,357.6,370.8,361.5,325.9,334.4,3460.1,3451.6,566.6,479.0,486.1,1191.2,1145.4,445.9,8.0,-14.0,-10.0,9296.0,-7351.0,8495.0,-7470.0,91.0,-67.0,-29.0,4.0,17.0,1.0,9875.0,-12852.0,2034.0,1276.0,75.0,-76.0,-19.0,1.0
2022-05-08 14:18:32.936465-07:00,767.8,865.4,1363.0,1134.0,372.4,354.5,1090.3,984.2,3467.4,3468.6,2611.3,1151.5,817.7,3473.4,2201.4,1046.1,3440.7,3451.6,412.9,357.6,366.9,360.7,325.9,334.4,3458.9,3455.2,566.6,479.0,490.1,1180.6,1145.4,445.9,-1.0,-8.0,0.0,9305.0,-7356.0,8470.0,-7483.0,32.0,-23.0,-42.0,5.0,13.0,2.0,9890.0,-12842.0,2011.0,1291.0,12.0,-59.0,-28.0,1.0
2022-05-08 14:18:32.938145-07:00,757.9,866.3,1363.0,1134.0,376.3,356.8,1090.3,984.2,3468.6,3460.1,2611.3,1151.5,819.4,3467.4,2201.4,1046.1,3440.7,3451.6,416.1,357.6,366.9,360.7,329.0,333.6,3458.9,3455.2,566.6,479.8,490.1,1180.6,1136.6,445.9,-5.0,-13.0,-16.0,9303.0,-7385.0,8441.0,-7490.0,-11.0,-117.0,-97.0,0.0,12.0,2.0,9889.0,-12846.0,1990.0,1295.0,-24.0,-26.0,-40.0,1.0
2022-05-08 14:18:32.966809-07:00,757.9,866.3,1359.4,1126.1,376.3,356.8,1084.2,974.8,3468.6,3460.1,2568.0,1135.7,819.4,3462.5,2167.7,1040.1,3449.1,3446.7,412.1,357.6,371.6,370.8,329.0,333.6,3462.5,3458.9,561.8,479.8,490.1,1176.2,1136.6,445.9,9.0,-35.0,-1.0,9312.0,-7417.0,8399.0,-7494.0,30.0,-42.0,-54.0,2.0,17.0,-14.0,9890.0,-12848.0,1963.0,1300.0,1.0,-73.0,-42.0,1.0
2022-05-08 14:18:33.026502-07:00,767.0,850.3,1338.6,1126.1,377.8,356.8,1084.2,974.8,3463.7,3474.6,2488.7,1135.7,813.5,3462.5,2167.7,1040.1,3449.1,3446.7,412.1,358.4,371.6,368.5,330.5,332.9,3462.5,3458.9,561.8,493.2,490.1,1166.5,1136.6,445.9,0.0,2.0,14.0,9316.0,-7414.0,8386.0,-7507.0,25.0,-5.0,-20.0,11.0,10.0,7.0,9899.0,-12844.0,1938.0,1312.0,14.0,-36.0,-15.0,1.0
2022-05-08 14:18:33.086392-07:00,767.0,850.3,1338.6,1119.1,377.8,357.6,1090.3,965.4,3463.7,3474.6,2488.7,1121.7,813.5,3468.6,2114.9,1041.8,3443.1,3440.7,413.7,358.4,367.7,368.5,330.5,332.9,3460.1,3458.9,565.0,493.2,486.9,1166.5,1136.6,445.9,-8.0,-1.0,-34.0,9320.0,-7436.0,8364.0,-7506.0,11.0,-124.0,-74.0,-4.0,16.0,2.0,9892.0,-12851.0,1929.0,1310.0,-14.0,-22.0,-33.0,1.0
2022-05-08 14:18:33.116431-07:00,764.5,852.8,1328.7,1119.1,377.0,357.6,1090.3,965.4,3466.1,3467.4,2397.6,1121.7,818.5,3468.6,2114.9,1041.8,3443.1,3440.7,413.7,358.4,367.7,363.1,331.3,328.2,3460.1,3458.9,565.0,494.8,486.9,1156.8,1148.0,445.1,0.0,-51.0,10.0,9334.0,-7488.0,8309.0,-7497.0,16.0,-102.0,-42.0,-4.0,16.0,-12.0,9884.0,-12860.0,1908.0,1312.0,-13.0,-27.0,-35.0,1.0
2022-05-08 14:18:33.176419-07:00,764.5,852.8,1328.7,1119.1,377.0,359.2,1077.3,966.2,3466.1,3467.4,2397.6,1114.7,818.5,3473.4,2045.4,1033.2,3438.2,3449.1,413.7,358.4,370.8,363.1,331.3,328.2,3447.9,3455.2,559.4,494.8,484.5,1156.8,1148.0,445.1,0.0,-18.0,-3.0,9347.0,-7487.0,8310.0,-7481.0,-23.0,-22.0,51.0,5.0,6.0,4.0,9886.0,-12860.0,1894.0,1311.0,-6.0,-12.0,-30.0,1.0
2022-05-08 14:18:33.236443-07:00,762.0,849.5,1320.5,1119.1,376.3,359.2,1077.3,966.2,3473.4,3461.3,2310.8,1114.7,802.7,3473.4,2045.4,1033.2,3438.2,3449.1,413.7,356.1,370.8,365.4,332.1,325.1,3447.9,3455.2,559.4,498.8,484.5,1142.7,1126.1,441.9,-8.0,-3.0,-13.0,9359.0,-7507.0,8295.0,-7462.0,15.0,-126.0,-38.0,-3.0,7.0,4.0,9884.0,-12863.0,1889.0,1310.0,-3.0,4.0,-10.0,1.0
2022-05-08 14:18:33.266778-07:00,762.0,849.5,1320.5,1120.0,378.6,357.6,1090.3,963.7,3473.4,3461.3,2310.8,1110.4,798.5,3475.9,1986.6,1026.3,3439.5,3449.1,416.1,356.1,363.1,365.4,332.1,325.1,3458.9,3463.7,559.4,496.4,485.3,1142.7,1126.1,441.9,11.0,-18.0,-1.0,9368.0,-7540.0,8256.0,-7460.0,27.0,-65.0,-56.0,2.0,4.0,-5.0,9879.0,-12869.0,1877.0,1302.0,-1.0,-7.0,-42.0,1.0
2022-05-08 14:18:33.326436-07:00,762.9,852.0,1277.4,1118.2,378.6,357.6,1090.3,963.7,3474.6,3457.6,2216.8,1096.4,798.5,3475.9,1986.6,1026.3,3439.5,3449.1,416.1,356.1,369.3,364.6,337.5,325.9,3458.9,3463.7,559.4,496.4,487.7,1133.1,1120.0,444.3,14.0,-22.0,-8.0,9365.0,-7567.0,8244.0,-7450.0,-94.0,-54.0,-20.0,11.0,9.0,-4.0,9864.0,-12884.0,1863.0,1288.0,-109.0,24.0,-41.0,1.0
2022-05-08 14:18:33.386430-07:00,762.9,852.0,1277.4,1118.2,380.2,354.5,1092.1,959.4,3474.6,3457.6,2216.8,1096.4,795.2,3467.4,1930.2,1021.9,3447.9,3451.6,417.6,362.3,369.3,364.6,337.5,325.9,3457.6,3458.9,561.0,505.1,487.7,1133.1,1120.0,444.3,4.0,-2.0,5.0,9362.0,-7606.0,8231.0,-7429.0,-24.0,-82.0,-63.0,-3.0,19.0,7.0,9831.0,-12912.0,1852.0,1277.0,-38.0,10.0,-16.0,1.0
2022-05-08 14:18:33.416443-07:00,767.0,848.6,1228.4,1111.2,380.2,354.5,1092.1,959.4,3467.4,3473.4,2118.9,1076.4,795.2,3467.4,1930.2,1021.9,3447.9,3451.6,417.6,362.3,373.9,362.3,336.7,324.4,3457.6,3458.9,561.0,505.1,488.5,1129.6,1105.1,447.4,2.0,-17.0,-27.0,9359.0,-7675.0,8180.0,-7418.0,-62.0,-179.0,-135.0,1.0,18.0,-7.0,9805.0,-12935.0,1841.0,1268.0,-86.0,4.0,-45.0,1.0
2022-05-08 14:18:33.476397-07:00,767.0,848.6,1228.4,1111.2,377.0,360.7,1084.2,956.8,3467.4,3473.4,2118.9,1076.4,784.4,3475.9,1879.1,1018.5,3454.0,3439.5,416.1,358.4,373.9,362.3,336.7,324.4,3463.7,3456.4,559.4,509.1,488.5,1129.6,1105.1,447.4,-3.0,-22.0,-2.0,9375.0,-7742.0,8108.0,-7408.0,37.0,-201.0,-123.0,2.0,17.0,-4.0,9796.0,-12944.0,1820.0,1266.0,3.0,-27.0,-33.0,1.0
2022-05-08 14:18:33.506664-07:00,781.1,849.5,1182.3,1111.2,377.0,360.7,1084.2,956.8,3471.0,3469.8,2005.5,1066.9,784.4,3475.9,1879.1,1018.5,3454.0,3439.5,416.1,358.4,370.8,361.5,336.7,319.0,3463.7,3456.4,559.4,509.1,490.9,1116.5,1047.0,445.1,8.0,-34.0,-3.0,9405.0,-7794.0,8030.0,-7401.0,58.0,-188.0,-85.0,-11.0,16.0,-6.0,9785.0,-12955.0,1796.0,1272.0,-66.0,-60.0,-64.0,1.0
2022-05-08 14:18:33.566996-07:00,784.4,849.5,1182.3,1111.2,375.5,360.7,1076.4,933.9,3464.9,3469.8,2005.5,1066.9,777.8,3473.4,1830.4,1016.8,3443.1,3438.2,412.9,353.0,370.8,361.5,336.7,319.7,3464.9,3461.3,569.8,508.3,490.9,1116.5,1047.0,441.9,18.0,-13.0,-33.0,9425.0,-7833.0,7976.0,-7391.0,-54.0,-152.0,-63.0,9.0,15.0,-5.0,9789.0,-12953.0,1786.0,1280.0,-56.0,-32.0,-19.0,1.0
2022-05-08 14:18:33.686480-07:00,784.4,855.3,1156.8,1099.9,375.5,360.7,1076.4,923.7,3464.9,3464.9,1908.5,1056.5,777.8,3473.4,1830.4,1013.3,3440.7,3438.2,412.9,353.0,366.9,364.6,339.8,319.7,3458.9,3461.3,569.8,508.3,496.4,1104.3,976.5,441.9,-6.0,6.0,-48.0,9445.0,-7952.0,7887.0,-7333.0,-135.0,-462.0,-183.0,5.0,12.0,-2.0,9760.0,-12976.0,1769.0,1285.0,-143.0,-29.0,-28.0,1.0
2022-05-08 14:18:33.806391-07:00,822.7,855.3,1156.8,1099.9,373.2,370.0,1074.7,923.7,3473.4,3464.9,1908.5,1056.5,778.6,3467.4,1787.8,1013.3,3440.7,3447.9,414.5,356.8,366.9,364.6,339.8,316.7,3458.9,3462.5,573.8,539.4,496.4,1104.3,976.5,446.7,-8.0,-29.0,-22.0,9479.0,-8075.0,7774.0,-7277.0,-62.0,-341.0,-95.0,-2.0,15.0,-11.0,9723.0,-13007.0,1745.0,1295.0,-47.0,-26.0,-15.0,1.0
2022-05-08 14:18:33.809277-07:00,822.7,891.5,1113.9,1112.1,373.2,370.0,1074.7,911.0,3473.4,3468.6,1799.4,1047.8,778.6,3467.4,1787.8,1012.5,3440.7,3447.9,414.5,356.8,366.9,367.7,346.8,316.7,3463.7,3462.5,573.8,539.4,493.2,1097.3,970.5,446.7,-43.0,-41.0,4.0,9479.0,-8122.0,7767.0,-7232.0,-113.0,-53.0,51.0,1.0,5.0,5.0,9696.0,-13028.0,1733.0,1302.0,-88.0,21.0,-2.0,1.0
2022-05-08 14:18:33.810254-07:00,844.4,891.5,1113.9,1112.1,375.5,376.3,1076.4,911.0,3462.5,3468.6,1799.4,1047.8,766.2,3468.6,1736.8,1012.5,3440.7,3435.8,412.1,356.1,366.9,367.7,346.8,312.8,3463.7,3460.1,585.1,556.2,493.2,1097.3,970.5,443.5,-23.0,-28.0,5.0,9452.0,-8099.0,7822.0,-7232.0,-18.0,172.0,64.0,0.0,-11.0,5.0,9651.0,-13061.0,1736.0,1300.0,-27.0,46.0,51.0,1.0
2022-05-08 14:18:33.811069-07:00,844.4,921.1,1055.6,1110.4,375.5,376.3,1076.4,900.8,3462.5,3478.3,1694.8,1036.6,766.2,3468.6,1736.8,1003.9,3444.3,3435.8,412.1,356.1,364.6,360.7,348.3,312.8,3461.3,3460.1,585.1,556.2,488.5,1092.9,945.8,443.5,-17.0,-6.0,1.0,9410.0,-8066.0,7880.0,-7261.0,-29.0,173.0,13.0,5.0,23.0,31.0,9637.0,-13069.0,1755.0,1296.0,-45.0,29.0,12.0,1.0
2022-05-08 14:18:33.897038-07:00,848.6,921.1,1055.6,1110.4,371.6,374.7,1070.3,900.8,3460.1,3478.3,1694.8,1036.6,770.3,3469.8,1691.9,1003.9,3444.3,3450.4,409.0,356.8,364.6,360.7,348.3,309.0,3461.3,3458.9,585.1,557.0,488.5,1092.9,945.8,434.9,-18.0,-5.0,-22.0,9392.0,-8040.0,7910.0,-7282.0,-3.0,67.0,7.0,2.0,12.0,6.0,9631.0,-13073.0,1766.0,1291.0,8.0,25.0,9.0,1.0
2022-05-08 14:18:33.956696-07:00,848.6,931.3,1039.2,1099.9,371.6,374.7,1063.4,893.2,3460.1,3468.6,1635.0,1030.6,770.3,3469.8,1655.8,1003.9,3441.9,3439.5,409.0,356.8,370.8,364.6,352.2,309.0,3468.6,3458.9,585.1,557.0,493.2,1089.5,911.0,434.9,12.0,-24.0,-25.0,9380.0,-8036.0,7916.0,-7294.0,53.0,38.0,-19.0,2.0,18.0,-21.0,9632.0,-13072.0,1768.0,1289.0,38.0,-19.0,-5.0,1.0
2022-05-08 14:18:33.958065-07:00,845.3,922.8,1039.2,1099.9,373.2,375.5,1063.4,893.2,3464.9,3469.8,1635.0,1030.6,768.7,3474.6,1655.8,1003.9,3441.9,3439.5,415.3,360.0,370.8,364.6,340.6,309.0,3468.6,3458.9,584.3,553.0,493.2,1089.5,898.3,442.7,-8.0,-27.0,-10.0,9378.0,-8018.0,7922.0,-7310.0,26.0,22.0,19.0,-3.0,11.0,0.0,9639.0,-13066.0,1763.0,1295.0,15.0,-16.0,-5.0,1.0
2022-05-08 14:18:34.046946-07:00,845.3,922.8,1024.5,1097.3,373.2,375.5,1065.1,881.4,3464.9,3469.8,1608.7,1026.3,768.7,3474.6,1637.9,1004.8,3445.5,3449.1,415.3,360.0,370.0,370.8,340.6,309.0,3463.7,3458.9,584.3,553.0,489.3,1076.4,898.3,442.7,9.0,-22.0,4.0,9375.0,-8015.0,7933.0,-7306.0,-13.0,38.0,10.0,8.0,9.0,-3.0,9637.0,-13068.0,1762.0,1298.0,-27.0,3.0,4.0,1.0
2022-05-08 14:18:34.076398-07:00,848.6,918.6,1024.5,1097.3,379.4,375.5,1065.1,881.4,3460.1,3466.1,1608.7,1026.3,752.9,3464.9,1637.9,1004.8,3445.5,3449.1,410.6,356.8,370.0,370.8,342.1,307.4,3463.7,3458.9,583.5,550.6,489.3,1076.4,895.7,439.6,-4.0,-18.0,-3.0,9367.0,-8003.0,7949.0,-7312.0,-12.0,32.0,14.0,7.0,9.0,12.0,9637.0,-13068.0,1762.0,1298.0,-1.0,0.0,2.0,1.0
2022-05-08 14:18:34.166293-07:00,848.6,918.6,1014.2,1092.1,379.4,375.5,1061.7,878.0,3460.1,3466.1,1586.1,1014.2,752.9,3464.9,1626.5,993.6,3435.8,3437.0,410.6,356.8,370.0,367.7,342.1,307.4,3462.5,3457.6,583.5,550.6,493.2,1075.6,895.7,439.6,9.0,-18.0,-23.0,9364.0,-8013.0,7946.0,-7308.0,-9.0,-13.0,-15.0,3.0,13.0,-17.0,9635.0,-13069.0,1763.0,1296.0,-18.0,8.0,-5.0,1.0
2022-05-08 14:18:34.286562-07:00,845.3,912.7,1014.2,1092.1,371.6,372.4,1061.7,878.0,3469.8,3473.4,1586.1,1014.2,759.6,3474.6,1626.5,993.6,3435.8,3437.0,417.6,356.8,370.0,367.7,336.7,305.9,3462.5,3457.6,580.2,548.2,493.2,1075.6,887.3,441.9,-12.0,-34.0,-4.0,9360.0,-8002.0,7959.0,-7311.0,12.0,35.0,54.0,-2.0,4.0,1.0,9635.0,-13071.0,1758.0,1295.0,15.0,-7.0,-7.0,1.0
2022-05-08 14:18:34.288525-07:00,845.3,912.7,1000.5,1098.2,371.6,372.4,1055.6,874.7,3469.8,3473.4,1562.7,1015.9,759.6,3471.0,1619.0,997.9,3441.9,3443.1,414.5,356.8,366.9,365.4,336.7,305.9,3468.6,3452.8,572.2,548.2,487.7,1072.1,887.3,441.9,-3.0,0.0,-10.0,9360.0,-8001.0,7965.0,-7306.0,-6.0,-18.0,-25.0,7.0,25.0,-3.0,9636.0,-13069.0,1759.0,1296.0,6.0,0.0,4.0,1.0
2022-05-08 14:18:34.346459-07:00,836.1,917.7,996.2,1098.2,375.5,372.4,1055.6,874.7,3471.0,3467.4,1559.0,1015.9,757.1,3471.0,1619.0,997.9,3441.9,3443.1,414.5,361.5,366.9,360.7,341.4,306.7,3468.6,3452.8,572.2,545.0,487.7,1072.9,883.1,442.7,-12.0,-28.0,-3.0,9353.0,-8003.0,7963.0,-7315.0,10.0,12.0,-5.0,-1.0,0.0,5.0,9636.0,-13070.0,1754.0,1294.0,0.0,-10.0,-23.0,1.0
2022-05-08 14:18:34.348133-07:00,836.1,917.7,996.2,1089.5,375.5,369.3,1048.7,876.4,3471.0,3467.4,1559.0,1005.6,757.1,3467.4,1609.6,997.9,3443.1,3443.1,410.6,361.5,373.2,360.7,341.4,306.7,3457.6,3452.8,574.6,545.0,490.9,1072.9,883.1,442.7,-10.0,-20.0,-10.0,9356.0,-8005.0,7959.0,-7312.0,2.0,-42.0,0.0,2.0,9.0,-2.0,9636.0,-13071.0,1750.0,1291.0,-11.0,3.0,-6.0,1.0
2022-05-08 14:18:34.376499-07:00,834.4,911.8,997.0,1089.5,377.0,369.3,1048.7,876.4,3467.4,3466.1,1555.3,1005.6,757.9,3467.4,1609.6,997.9,3443.1,3443.1,410.6,357.6,373.2,363.8,335.9,302.0,3457.6,3452.8,574.6,545.8,490.9,1062.5,880.6,438.8,0.0,-21.0,-14.0,9360.0,-8010.0,7949.0,-7312.0,39.0,-3.0,-10.0,1.0,9.0,0.0,9637.0,-13071.0,1745.0,1291.0,21.0,-19.0,-18.0,1.0
2022-05-08 14:18:34.436486-07:00,834.4,911.8,997.0,1089.5,377.0,368.5,1053.9,877.2,3467.4,3466.1,1555.3,1003.9,757.9,3473.4,1596.4,994.5,3449.1,3444.3,409.8,357.6,370.8,363.8,335.9,302.0,3466.1,3464.9,577.8,545.8,488.5,1062.5,880.6,438.8,0.0,-20.0,5.0,9368.0,-8003.0,7942.0,-7318.0,26.0,8.0,1.0,7.0,13.0,0.0,9646.0,-13066.0,1736.0,1290.0,13.0,-11.0,-16.0,1.0
2022-05-08 14:18:34.466915-07:00,831.1,910.1,984.2,1089.5,370.8,368.5,1053.9,877.2,3471.0,3468.6,1553.4,1003.9,753.8,3473.4,1596.4,994.5,3449.1,3444.3,409.8,359.2,370.8,362.3,335.9,305.1,3466.1,3464.9,577.8,541.0,488.5,1071.2,890.7,440.4,2.0,-20.0,-5.0,9370.0,-7998.0,7940.0,-7323.0,2.0,-11.0,-3.0,3.0,11.0,1.0,9645.0,-13067.0,1732.0,1288.0,-15.0,7.0,-5.0,1.0
2022-05-08 14:18:34.526335-07:00,831.1,910.1,984.2,1084.2,370.8,370.0,1050.4,864.6,3471.0,3468.6,1553.4,1003.0,753.8,3464.9,1589.9,989.3,3440.7,3439.5,414.5,359.2,366.9,362.3,335.9,305.1,3454.0,3463.7,579.4,541.0,487.7,1071.2,890.7,440.4,-1.0,-16.0,-8.0,9370.0,-8003.0,7935.0,-7322.0,6.0,-22.0,-22.0,6.0,14.0,2.0,9643.0,-13069.0,1733.0,1286.0,0.0,7.0,-8.0,1.0
2022-05-08 14:18:34.556442-07:00,831.9,907.6,982.5,1081.6,375.5,370.0,1050.4,864.6,3457.6,3466.1,1546.9,1000.5,752.1,3464.9,1589.9,989.3,3440.7,3439.5,414.5,360.7,369.3,360.0,335.9,301.3,3454.0,3463.7,579.4,542.6,490.9,1067.7,877.2,441.2,-4.0,-30.0,-13.0,9372.0,-8013.0,7926.0,-7319.0,14.0,-22.0,8.0,0.0,12.0,-6.0,9642.0,-13070.0,1727.0,1286.0,6.0,-18.0,-13.0,1.0
2022-05-08 14:18:34.616389-07:00,831.9,907.6,982.5,1081.6,374.7,370.8,1045.2,864.6,3457.6,3466.1,1546.9,1000.5,749.6,3467.4,1588.9,988.5,3449.1,3450.4,415.3,360.0,369.3,360.0,335.9,301.3,3468.6,3460.1,567.4,539.4,490.9,1067.7,877.2,441.2,-1.0,-4.0,-7.0,9378.0,-8008.0,7927.0,-7315.0,0.0,-7.0,3.0,9.0,12.0,1.0,9648.0,-13066.0,1724.0,1289.0,7.0,-6.0,-4.0,1.0
2022-05-08 14:18:34.676865-07:00,828.5,906.7,987.6,1080.8,374.7,370.8,1045.2,864.6,3474.6,3468.6,1543.1,1002.2,749.6,3467.4,1588.9,988.5,3449.1,3450.4,415.3,360.0,373.9,366.2,339.0,305.9,3468.6,3460.1,567.4,539.4,486.1,1062.5,874.7,437.2,-5.0,-19.0,-7.0,9375.0,-8013.0,7922.0,-7320.0,-10.0,-12.0,-19.0,3.0,11.0,2.0,9651.0,-13065.0,1719.0,1286.0,-8.0,-1.0,-17.0,1.0
2022-05-08 14:18:34.766273-07:00,828.5,906.7,987.6,1080.8,372.4,366.9,1040.9,866.3,3474.6,3468.6,1543.1,1002.2,752.9,3468.6,1584.2,991.9,3441.9,3445.5,413.7,357.6,373.9,366.2,339.0,305.9,3457.6,3463.7,572.2,533.0,486.1,1062.5,874.7,437.2,4.0,-17.0,-11.0,9376.0,-8018.0,7921.0,-7314.0,-19.0,-9.0,11.0,3.0,18.0,-6.0,9649.0,-13067.0,1714.0,1282.0,-10.0,-8.0,-12.0,1.0
2022-05-08 14:18:34.767740-07:00,825.2,898.3,979.0,1079.0,372.4,366.9,1040.9,866.3,3464.9,3463.7,1540.3,1001.3,752.9,3468.6,1584.2,991.9,3441.9,3445.5,413.7,357.6,366.2,364.6,332.9,299.0,3457.6,3463.7,572.2,533.0,488.5,1050.4,867.1,436.4,3.0,-31.0,-7.0,9377.0,-8016.0,7930.0,-7305.0,-7.0,21.0,37.0,1.0,5.0,-4.0,9648.0,-13068.0,1714.0,1282.0,10.0,-4.0,6.0,1.0
2022-05-08 14:18:34.886979-07:00,825.2,898.3,979.0,1079.0,375.5,365.4,1046.1,863.7,3464.9,3463.7,1540.3,1001.3,752.1,3463.7,1582.4,991.0,3443.1,3449.1,412.1,354.5,366.2,364.6,332.9,299.0,3457.6,3460.1,573.8,534.6,488.5,1050.4,867.1,436.4,-5.0,-7.0,-8.0,9378.0,-8017.0,7934.0,-7298.0,-18.0,-38.0,-6.0,4.0,18.0,6.0,9648.0,-13068.0,1714.0,1283.0,-15.0,7.0,-1.0,1.0
2022-05-08 14:18:34.888293-07:00,828.5,905.0,970.5,1079.0,375.5,365.4,1046.1,865.4,3457.6,3468.6,1537.6,998.7,752.1,3463.7,1582.4,990.2,3438.2,3449.1,412.1,354.5,366.9,366.9,337.5,299.0,3452.8,3460.1,573.8,534.6,481.4,1057.3,870.5,438.8,-7.0,-36.0,-2.0,9380.0,-8024.0,7929.0,-7294.0,10.0,-10.0,7.0,0.0,4.0,-1.0,9647.0,-13069.0,1714.0,1282.0,6.0,-9.0,-5.0,1.0
2022-05-08 14:18:34.916934-07:00,824.4,905.0,970.5,1079.0,369.3,366.9,1043.5,865.4,3467.4,3468.6,1537.6,998.7,745.5,3462.5,1572.1,990.2,3438.2,3449.1,413.7,358.4,366.9,366.9,337.5,303.6,3452.8,3457.6,570.6,532.2,481.4,1057.3,870.5,441.2,-6.0,-11.0,-5.0,9378.0,-8025.0,7933.0,-7291.0,-22.0,0.0,9.0,8.0,14.0,4.0,9647.0,-13069.0,1712.0,1284.0,-14.0,6.0,13.0,1.0
2022-05-08 14:18:34.976521-07:00,824.4,901.7,966.2,1077.3,369.3,366.9,1043.5,867.9,3467.4,3468.6,1535.7,986.7,745.5,3462.5,1572.1,991.0,3444.3,3449.1,413.7,358.4,366.9,362.3,329.8,303.6,3460.1,3457.6,570.6,532.2,484.5,1054.8,868.8,441.2,0.0,-20.0,-6.0,9376.0,-8026.0,7937.0,-7287.0,-16.0,4.0,13.0,2.0,6.0,0.0,9642.0,-13072.0,1717.0,1284.0,-18.0,8.0,11.0,1.0
2022-05-08 14:18:35.006534-07:00,824.4,901.7,966.2,1077.3,373.2,365.4,1044.4,867.9,3468.6,3468.6,1535.7,986.7,739.7,3467.4,1574.9,991.0,3444.3,3443.1,409.8,356.8,366.9,362.3,329.8,303.6,3460.1,3454.0,571.4,531.4,484.5,1054.8,868.8,438.0,-8.0,-12.0,-12.0,9373.0,-8023.0,7943.0,-7288.0,-6.0,-2.0,1.0,3.0,11.0,8.0,9640.0,-13073.0,1721.0,1285.0,-8.0,9.0,12.0,1.0
2022-05-08 14:18:35.066570-07:00,824.4,907.6,964.5,1075.6,373.2,365.4,1044.4,862.9,3468.6,3472.2,1531.0,996.2,739.7,3467.4,1574.9,987.6,3440.7,3443.1,409.8,356.8,368.5,365.4,337.5,303.6,3460.1,3454.0,571.4,531.4,484.5,1055.6,867.9,438.0,-4.0,-24.0,-9.0,9368.0,-8025.0,7948.0,-7288.0,1.0,5.0,8.0,2.0,10.0,1.0,9637.0,-13074.0,1725.0,1288.0,10.0,-4.0,16.0,1.0
2022-05-08 14:18:35.156537-07:00,828.5,907.6,964.5,1075.6,371.6,366.2,1040.9,862.9,3463.7,3472.2,1531.0,996.2,744.7,3472.2,1569.3,987.6,3440.7,3438.2,413.7,363.1,368.5,365.4,337.5,300.5,3460.1,3456.4,570.6,532.2,484.5,1055.6,867.9,444.3,-2.0,-13.0,-8.0,9369.0,-8022.0,7950.0,-7287.0,1.0,3.0,2.0,3.0,12.0,1.0,9640.0,-13071.0,1729.0,1291.0,9.0,-4.0,12.0,1.0
2022-05-08 14:18:35.157763-07:00,828.5,901.7,967.1,1075.6,371.6,366.2,1038.3,863.7,3463.7,3463.7,1523.6,991.0,744.7,3472.2,1569.3,985.0,3438.2,3438.2,413.7,363.1,370.0,364.6,332.1,300.5,3463.7,3456.4,570.6,532.2,487.7,1067.7,867.1,444.3,-2.0,-28.0,-1.0,9368.0,-8023.0,7951.0,-7287.0,5.0,14.0,9.0,2.0,9.0,0.0,9640.0,-13071.0,1730.0,1292.0,3.0,-2.0,11.0,1.0
2022-05-08 14:18:35.276606-07:00,825.2,900.0,967.1,1075.6,373.9,367.7,1038.3,863.7,3463.7,3472.2,1523.6,991.0,741.4,3471.0,1568.3,985.0,3438.2,3440.7,410.6,354.5,370.0,364.6,335.2,304.3,3463.7,3462.5,569.8,530.6,487.7,1067.7,865.4,439.6,3.0,-9.0,-12.0,9370.0,-8019.0,7951.0,-7288.0,-9.0,8.0,-4.0,6.0,19.0,-6.0,9643.0,-13068.0,1734.0,1294.0,-5.0,-1.0,15.0,1.0
2022-05-08 14:18:35.277806-07:00,825.2,900.0,963.7,1075.6,373.9,367.7,1035.7,858.7,3463.7,3472.2,1528.3,994.5,741.4,3471.0,1565.5,983.3,3437.0,3441.9,410.6,354.5,373.2,363.1,335.2,304.3,3468.6,3452.8,569.8,530.6,483.0,1054.8,865.4,439.6,-5.0,-15.0,-14.0,9368.0,-8016.0,7954.0,-7291.0,-10.0,6.0,9.0,2.0,15.0,0.0,9645.0,-13066.0,1736.0,1295.0,-7.0,6.0,12.0,1.0
2022-05-08 14:18:35.307188-07:00,828.5,894.9,963.7,1075.6,374.7,363.8,1035.7,858.7,3461.3,3469.8,1528.3,994.5,736.5,3467.4,1565.5,983.3,3437.0,3441.9,412.9,358.4,373.2,363.1,332.1,299.0,3468.6,3452.8,565.8,532.2,483.0,1054.8,862.1,445.1,-1.0,-14.0,-13.0,9367.0,-8015.0,7957.0,-7290.0,6.0,8.0,9.0,4.0,15.0,-3.0,9646.0,-13064.0,1740.0,1298.0,16.0,2.0,11.0,1.0
2022-05-08 14:18:35.396407-07:00,828.5,894.9,963.7,1070.3,374.7,363.8,1037.5,856.2,3461.3,3469.8,1523.6,991.9,736.5,3467.4,1561.8,979.0,3444.3,3438.2,412.9,358.4,370.8,368.5,332.1,299.0,3454.0,3458.9,565.8,532.2,486.1,1053.9,862.1,445.1,-6.0,-22.0,-2.0,9363.0,-8009.0,7962.0,-7295.0,19.0,39.0,4.0,3.0,6.0,6.0,9647.0,-13064.0,1742.0,1299.0,9.0,-3.0,8.0,1.0
2022-05-08 14:18:35.455970-07:00,816.9,896.6,963.7,1070.3,373.2,363.8,1037.5,856.2,3463.7,3462.5,1523.6,991.9,744.7,3468.6,1561.8,979.0,3444.3,3438.2,414.5,354.5,370.8,368.5,332.9,299.7,3454.0,3458.9,565.0,529.8,486.1,1053.9,861.2,444.3,-3.0,-13.0,-17.0,9365.0,-8006.0,7960.0,-7298.0,7.0,-19.0,-10.0,1.0,11.0,-12.0,9651.0,-13059.0,1746.0,1300.0,17.0,-1.0,11.0,1.0
2022-05-08 14:18:35.457027-07:00,816.9,896.6,957.7,1068.6,373.2,363.8,1033.2,865.4,3463.7,3462.5,1514.3,989.3,744.7,3468.6,1558.1,983.3,3444.3,3449.1,414.5,354.5,366.9,363.1,332.9,299.7,3460.1,3454.0,565.0,529.8,484.5,1051.3,861.2,444.3,3.0,-18.0,-4.0,9365.0,-8006.0,7955.0,-7304.0,15.0,26.0,-12.0,5.0,3.0,-3.0,9659.0,-13054.0,1746.0,1300.0,20.0,-7.0,-3.0,1.0
2022-05-08 14:18:35.576483-07:00,820.2,902.5,956.0,1068.6,373.2,366.2,1033.2,865.4,3452.8,3463.7,1522.7,989.3,741.4,3458.9,1558.1,983.3,3444.3,3449.1,414.5,361.5,366.9,367.7,334.4,299.0,3460.1,3454.0,568.2,525.8,484.5,1054.8,856.2,436.4,-8.0,-14.0,-8.0,9358.0,-8001.0,7955.0,-7318.0,10.0,20.0,-28.0,0.0,10.0,2.0,9662.0,-13052.0,1746.0,1300.0,-1.0,5.0,2.0,1.0
2022-05-08 14:18:35.606501-07:00,820.2,902.5,956.0,1072.1,373.2,363.8,1034.9,856.2,3452.8,3463.7,1522.7,991.9,741.4,3468.6,1562.7,986.7,3443.1,3438.2,414.5,361.5,370.8,367.7,334.4,299.0,3460.1,3455.2,572.2,525.8,487.7,1054.8,856.2,436.4,0.0,-22.0,-12.0,9354.0,-7998.0,7951.0,-7331.0,37.0,15.0,-17.0,2.0,11.0,-1.0,9666.0,-13048.0,1747.0,1299.0,29.0,-6.0,4.0,1.0
2022-05-08 14:18:35.607756-07:00,819.4,896.6,963.7,1072.1,374.7,363.8,1034.9,856.2,3464.9,3468.6,1512.5,991.9,736.5,3468.6,1562.7,986.7,3443.1,3438.2,414.5,358.4,370.8,363.8,335.9,299.0,3460.1,3455.2,572.2,524.2,487.7,1057.3,851.1,438.0,-1.0,-21.0,-10.0,9350.0,-8000.0,7950.0,-7335.0,-15.0,-2.0,5.0,2.0,8.0,-6.0,9667.0,-13048.0,1747.0,1299.0,-19.0,0.0,2.0,1.0
2022-05-08 14:18:35.666300-07:00,819.4,896.6,963.7,1074.7,374.7,367.7,1036.6,857.9,3464.9,3468.6,1512.5,987.6,736.5,3462.5,1560.9,985.0,3446.7,3441.9,418.4,358.4,370.0,363.8,335.9,299.0,3460.1,3461.3,563.4,524.2,484.5,1057.3,851.1,438.0,-7.0,-12.0,-15.0,9349.0,-8001.0,7951.0,-7335.0,8.0,-9.0,-8.0,1.0,16.0,2.0,9666.0,-13049.0,1747.0,1299.0,8.0,-3.0,2.0,1.0
2022-05-08 14:18:35.726353-07:00,821.9,895.7,957.7,1074.7,372.4,367.7,1036.6,857.9,3467.4,3463.7,1512.5,987.6,740.6,3462.5,1560.9,985.0,3446.7,3441.9,418.4,351.4,370.0,363.1,333.6,299.0,3460.1,3461.3,563.4,525.8,484.5,1050.4,855.3,439.6,2.0,-24.0,-2.0,9351.0,-8003.0,7949.0,-7332.0,-8.0,17.0,3.0,5.0,16.0,-5.0,9666.0,-13049.0,1747.0,1299.0,-1.0,-7.0,0.0,1.0
2022-05-08 14:18:35.756497-07:00,821.9,895.7,957.7,1073.8,372.4,360.7,1034.9,858.7,3467.4,3463.7,1512.5,985.9,740.6,3469.8,1553.4,984.2,3438.2,3449.1,415.3,351.4,367.7,363.1,333.6,299.0,3463.7,3457.6,568.2,525.8,484.5,1050.4,855.3,439.6,-3.0,-11.0,-10.0,9347.0,-8001.0,7954.0,-7335.0,-14.0,3.0,-3.0,4.0,19.0,1.0,9666.0,-13049.0,1746.0,1300.0,-11.0,8.0,5.0,1.0
2022-05-08 14:18:35.876121-07:00,817.7,895.7,955.1,1071.2,370.0,360.7,1034.9,858.7,3463.7,3466.1,1508.8,983.3,738.9,3469.8,1553.4,984.2,3438.2,3449.1,415.3,356.8,366.9,360.0,323.6,295.1,3463.7,3457.6,568.2,530.6,491.7,1056.5,853.7,432.5,1.0,-20.0,-7.0,9346.0,-8003.0,7954.0,-7333.0,10.0,6.0,-2.0,3.0,15.0,-6.0,9667.0,-13048.0,1746.0,1300.0,13.0,-5.0,0.0,1.0
2022-05-08 14:18:35.907263-07:00,817.7,895.7,955.1,1071.2,375.5,365.4,1037.5,862.1,3463.7,3466.1,1508.8,983.3,734.0,3466.1,1550.6,985.0,3445.5,3439.5,413.7,359.2,366.9,360.0,323.6,295.1,3454.0,3456.4,567.4,531.4,491.7,1056.5,853.7,432.5,-7.0,-19.0,-9.0,9343.0,-8000.0,7957.0,-7336.0,-6.0,25.0,-6.0,3.0,7.0,-2.0,9667.0,-13048.0,1746.0,1300.0,-8.0,4.0,1.0,1.0
2022-05-08 14:18:35.908838-07:00,821.9,899.1,960.2,1069.5,375.5,365.4,1037.5,862.1,3464.9,3468.6,1516.2,983.3,734.0,3466.1,1550.6,985.0,3445.5,3439.5,413.7,359.2,372.4,362.3,329.8,295.9,3454.0,3456.4,567.4,531.4,483.7,1047.0,851.1,438.8,6.0,-10.0,-8.0,9338.0,-7996.0,7963.0,-7340.0,-7.0,25.0,-5.0,3.0,18.0,-3.0,9667.0,-13047.0,1746.0,1300.0,10.0,-4.0,3.0,1.0
2022-05-08 14:18:36.026484-07:00,821.9,899.1,960.2,1069.5,369.3,360.7,1031.4,855.3,3464.9,3468.6,1516.2,983.3,733.2,3467.4,1552.5,980.7,3446.7,3443.1,420.0,358.4,372.4,362.3,329.8,295.9,3468.6,3463.7,561.8,529.0,483.7,1047.0,851.1,438.8,-5.0,-14.0,-13.0,9331.0,-7992.0,7968.0,-7350.0,26.0,33.0,-24.0,3.0,11.0,2.0,9670.0,-13046.0,1746.0,1300.0,18.0,-4.0,-8.0,1.0
2022-05-08 14:18:36.027722-07:00,821.9,897.4,956.8,1072.1,369.3,360.7,1031.4,855.3,3469.8,3467.4,1521.8,982.5,733.2,3467.4,1552.5,980.7,3446.7,3443.1,420.0,358.4,370.0,362.3,334.4,295.9,3468.6,3463.7,561.8,529.0,484.5,1048.7,869.6,434.9,-1.0,-21.0,-13.0,9327.0,-7988.0,7964.0,-7363.0,12.0,10.0,-14.0,3.0,9.0,-2.0,9671.0,-13045.0,1746.0,1299.0,4.0,0.0,-7.0,1.0
2022-05-08 14:18:36.056488-07:00,821.9,897.4,956.8,1072.1,370.0,363.1,1037.5,853.7,3469.8,3467.4,1521.8,982.5,735.6,3462.5,1553.4,983.3,3450.4,3443.1,413.7,359.2,370.0,362.3,334.4,295.9,3458.9,3466.1,566.6,527.4,484.5,1048.7,869.6,434.9,-1.0,-23.0,-4.0,9324.0,-7987.0,7966.0,-7366.0,16.0,10.0,1.0,4.0,11.0,2.0,9671.0,-13045.0,1746.0,1299.0,22.0,-8.0,4.0,1.0
2022-05-08 14:18:36.116350-07:00,820.2,891.5,952.6,1072.1,370.0,363.1,1037.5,853.7,3468.6,3464.9,1514.3,987.6,735.6,3462.5,1553.4,983.3,3450.4,3443.1,413.7,359.2,366.9,365.4,331.3,300.5,3458.9,3466.1,566.6,527.4,482.2,1034.9,857.9,434.9,0.0,-22.0,-4.0,9324.0,-7985.0,7966.0,-7367.0,8.0,9.0,5.0,2.0,10.0,-1.0,9671.0,-13045.0,1745.0,1300.0,3.0,-1.0,-1.0,1.0
2022-05-08 14:18:36.147088-07:00,825.2,891.5,952.6,1072.1,375.5,360.7,1029.7,851.1,3468.6,3464.9,1514.3,987.6,731.5,3467.4,1545.9,983.3,3449.1,3445.5,410.6,360.0,366.9,365.4,331.3,296.7,3463.7,3458.9,562.6,526.6,482.2,1034.9,857.9,435.7,0.0,-20.0,-2.0,9324.0,-7986.0,7966.0,-7367.0,1.0,8.0,-4.0,6.0,10.0,0.0,9671.0,-13045.0,1745.0,1300.0,-6.0,6.0,0.0,1.0
2022-05-08 14:18:36.206444-07:00,825.2,891.5,954.3,1068.6,375.5,360.7,1029.7,852.8,3468.6,3471.0,1519.0,979.9,731.5,3467.4,1545.9,983.3,3446.7,3445.5,410.6,360.0,368.5,373.9,332.1,296.7,3467.4,3458.9,562.6,526.6,481.4,1053.0,861.2,435.7,-4.0,-19.0,-10.0,9321.0,-7984.0,7969.0,-7369.0,6.0,11.0,1.0,2.0,10.0,-1.0,9671.0,-13045.0,1745.0,1300.0,2.0,3.0,2.0,1.0
2022-05-08 14:18:36.266407-07:00,820.2,891.5,954.3,1068.6,369.3,364.6,1030.6,852.8,3468.6,3471.0,1519.0,979.9,737.3,3471.0,1540.3,983.3,3446.7,3444.3,414.5,356.8,368.5,373.9,332.1,296.7,3467.4,3457.6,564.2,524.2,481.4,1053.0,861.2,436.4,-2.0,-26.0,-2.0,9319.0,-7986.0,7971.0,-7367.0,16.0,12.0,11.0,0.0,8.0,2.0,9669.0,-13047.0,1745.0,1300.0,1.0,-5.0,5.0,1.0
2022-05-08 14:18:36.296398-07:00,820.2,892.4,950.0,1070.3,369.3,364.6,1030.6,857.0,3468.6,3467.4,1509.7,985.0,737.3,3471.0,1540.3,978.2,3451.6,3444.3,414.5,356.8,369.3,363.1,329.8,296.7,3461.3,3457.6,564.2,524.2,483.7,1048.7,861.2,436.4,2.0,-9.0,-13.0,9321.0,-7981.0,7971.0,-7369.0,-17.0,6.0,-12.0,7.0,12.0,-3.0,9672.0,-13044.0,1745.0,1300.0,-15.0,1.0,-8.0,1.0
2022-05-08 14:18:36.356567-07:00,815.2,892.4,950.0,1070.3,370.0,364.6,1030.6,857.0,3457.6,3467.4,1509.7,985.0,733.2,3464.9,1545.0,978.2,3451.6,3443.1,414.5,354.5,369.3,363.1,329.8,297.4,3461.3,3452.8,565.8,521.8,483.7,1048.7,861.2,437.2,-4.0,-22.0,-9.0,9315.0,-7988.0,7973.0,-7368.0,-10.0,9.0,-6.0,3.0,14.0,-8.0,9667.0,-13049.0,1741.0,1297.0,-18.0,3.0,-13.0,1.0
2022-05-08 14:18:36.416976-07:00,815.2,892.4,950.0,1070.3,370.0,364.6,1030.6,849.5,3457.6,3473.4,1509.7,979.0,733.2,3464.9,1545.0,974.8,3446.7,3443.1,414.5,354.5,368.5,360.7,330.5,297.4,3463.7,3452.8,565.8,521.8,479.8,1050.4,857.9,437.2,1.0,-15.0,-13.0,9316.0,-7989.0,7974.0,-7366.0,-15.0,-16.0,8.0,2.0,15.0,-2.0,9665.0,-13050.0,1740.0,1297.0,-8.0,1.0,1.0,1.0
2022-05-08 14:18:36.446499-07:00,816.9,889.0,950.0,1070.3,372.4,361.5,1028.8,849.5,3468.6,3466.1,1509.7,979.0,728.2,3466.1,1543.1,974.8,3446.7,3449.1,416.1,354.5,368.5,360.7,329.8,299.7,3463.7,3463.7,569.8,521.8,479.8,1050.4,851.1,438.0,5.0,-17.0,-7.0,9315.0,-7993.0,7974.0,-7362.0,6.0,9.0,2.0,3.0,14.0,-6.0,9663.0,-13052.0,1739.0,1297.0,2.0,-6.0,-6.0,1.0
2022-05-08 14:18:36.506495-07:00,816.9,889.0,946.6,1065.1,372.4,361.5,1028.8,851.1,3468.6,3466.1,1508.8,984.2,728.2,3466.1,1535.7,981.6,3447.9,3440.7,416.1,354.5,366.2,363.8,329.8,299.7,3468.6,3468.6,569.8,521.8,486.9,1053.0,851.1,438.0,-7.0,-16.0,-7.0,9314.0,-7993.0,7975.0,-7362.0,-13.0,-10.0,-10.0,-2.0,11.0,3.0,9662.0,-13053.0,1737.0,1296.0,-12.0,1.0,-13.0,1.0
2022-05-08 14:18:36.566512-07:00,818.5,889.8,946.6,1065.1,373.9,369.3,1028.8,851.1,3466.1,3478.3,1508.8,984.2,734.0,3469.8,1535.7,981.6,3447.9,3440.7,415.3,357.6,366.2,363.8,329.8,302.8,3468.6,3468.6,560.2,520.3,486.9,1053.0,849.5,432.5,3.0,-20.0,-8.0,9314.0,-7995.0,7974.0,-7361.0,-2.0,11.0,3.0,1.0,10.0,-11.0,9660.0,-13056.0,1734.0,1294.0,-2.0,-5.0,-8.0,1.0
