Time,P0,P1,P2,P3,P4,P5,P6,P7,P8,P9,P10,P11,P12,P13,P14,P15,P16,P17,P18,P19,P20,P21,P22,P23,P24,P25,P26,P27,P28,P29,P30,P31,ECG,AX0,AY0,AZ0,QW0,QX0,QY0,QZ0,GX0,GY0,GZ0,AX1,AY1,AZ1,QW1,QX1,QY1,QZ1,GX1,GY1,GZ1
2022-05-08 14:30:45.725342-07:00,676.6,792.7,748.8,952.6,349.9,301.3,874.7,729.0,3467.4,3478.3,1025.4,823.5,573.8,3474.6,1099.0,871.3,3441.9,3435.8,402.8,346.8,363.1,354.5,269.9,250.0,3462.5,3457.6,484.5,408.2,435.7,932.2,694.6,404.3,-2.0,-8.0,0.0,10031.0,-2514.0,3760.0,-12139.0,4.0,-15.0,-34.0,-13.0,-9.0,7.0,14062.0,-6547.0,-1380.0,5092.0,-4.0,1.0,-27.0,1.0
2022-05-08 14:30:45.726583-07:00,676.6,792.7,748.8,952.6,353.7,302.0,887.3,729.9,3467.4,3478.3,1025.4,823.5,578.6,3475.9,1107.8,870.5,3452.8,3444.3,406.7,350.6,363.1,354.5,269.9,250.0,3457.6,3457.6,491.7,409.8,435.7,932.2,694.6,404.3,-2.0,-31.0,7.0,10024.0,-2522.0,3762.0,-12143.0,-9.0,6.0,-6.0,-11.0,-22.0,-7.0,14063.0,-6549.0,-1379.0,5086.0,-4.0,15.0,-6.0,1.0
2022-05-08 14:30:45.755543-07:00,678.2,786.1,747.2,953.4,353.7,302.0,887.3,729.9,3469.8,3462.5,1026.3,811.0,578.6,3475.9,1107.8,870.5,3452.8,3444.3,406.7,350.6,362.3,356.1,273.7,250.0,3457.6,3457.6,491.7,409.8,437.2,939.8,696.2,407.5,7.0,-14.0,-7.0,10024.0,-2515.0,3776.0,-12140.0,-12.0,41.0,13.0,-4.0,-7.0,-2.0,14062.0,-6553.0,-1369.0,5088.0,13.0,16.0,12.0,1.0
2022-05-08 14:30:45.785449-07:00,678.2,786.1,747.2,953.4,353.7,299.0,885.6,729.0,3469.8,3462.5,1026.3,811.0,573.8,3468.6,1104.3,873.0,3443.1,3451.6,411.4,350.6,362.3,356.1,273.7,250.0,3468.6,3469.8,493.2,405.1,437.2,939.8,696.2,407.5,8.0,5.0,-8.0,10026.0,-2507.0,3768.0,-12142.0,49.0,-30.0,3.0,8.0,7.0,4.0,14068.0,-6539.0,-1364.0,5091.0,53.0,-15.0,-4.0,1.0
2022-05-08 14:30:45.815999-07:00,679.9,783.6,753.8,952.6,353.7,299.0,885.6,729.0,3469.8,3467.4,1030.6,813.5,573.8,3468.6,1104.3,873.0,3443.1,3451.6,411.4,350.6,363.8,353.0,269.1,254.6,3468.6,3469.8,493.2,405.1,438.0,936.4,695.4,406.7,10.0,6.0,23.0,10031.0,-2512.0,3755.0,-12141.0,-5.0,-2.0,10.0,0.0,-5.0,17.0,14070.0,-6530.0,-1369.0,5093.0,-8.0,-13.0,1.0,1.0
2022-05-08 14:30:45.816536-07:00,679.9,783.6,753.8,952.6,353.7,299.0,885.6,729.0,3469.8,3467.4,1030.6,813.5,573.8,3468.6,1104.3,873.0,3443.1,3451.6,411.4,350.6,363.8,353.0,269.1,254.6,3468.6,3469.8,493.2,405.1,438.0,936.4,695.4,406.7,10.0,6.0,23.0,10031.0,-2512.0,3755.0,-12141.0,-5.0,-2.0,10.0,0.0,-5.0,17.0,14070.0,-6530.0,-1369.0,5093.0,-8.0,-13.0,1.0,1.0
2022-05-08 14:30:45.817287-07:00,675.0,788.6,748.8,945.8,355.3,295.9,886.5,724.9,3466.1,3475.9,1026.3,809.4,575.4,3469.8,1100.8,871.3,3444.3,3439.5,405.9,348.3,363.1,356.1,271.4,251.5,3457.6,3458.9,490.9,413.7,435.7,934.7,690.5,404.3,9.0,-7.0,-7.0,10016.0,-2515.0,3773.0,-12147.0,21.0,13.0,9.0,-5.0,-8.0,-5.0,14067.0,-6545.0,-1348.0,5090.0,29.0,6.0,10.0,1.0
2022-05-08 14:30:45.818892-07:00,669.3,785.2,748.0,956.8,342.1,302.0,888.2,730.7,3478.3,3466.1,1010.8,820.2,579.4,3466.1,1107.8,871.3,3446.7,3447.9,402.8,348.3,360.7,357.6,269.1,256.1,3455.2,3468.6,487.7,407.5,441.2,933.9,694.6,405.9,8.0,-5.0,-6.0,10019.0,-2505.0,3765.0,-12149.0,47.0,0.0,7.0,-2.0,1.0,-4.0,14072.0,-6532.0,-1346.0,5092.0,34.0,-20.0,-1.0,1.0
2022-05-08 14:30:45.875750-07:00,670.1,785.2,748.0,956.8,355.3,299.0,889.8,730.7,3478.3,3466.1,1010.8,820.2,573.0,3467.4,1106.0,871.3,3446.7,3443.1,405.9,349.1,360.7,357.6,269.1,256.1,3455.2,3468.6,489.3,403.5,441.2,933.9,694.6,409.0,2.0,1.0,2.0,10025.0,-2503.0,3745.0,-12151.0,33.0,-44.0,-6.0,-3.0,4.0,1.0,14077.0,-6516.0,-1351.0,5098.0,31.0,-29.0,-7.0,1.0
2022-05-08 14:30:45.906316-07:00,670.1,777.8,749.6,949.2,355.3,299.0,899.1,731.5,3478.3,3471.0,1028.8,815.2,573.0,3467.4,1107.8,872.1,3437.0,3446.7,405.9,349.1,362.3,354.5,266.8,256.1,3464.9,3458.9,489.3,403.5,444.3,934.7,693.8,409.0,6.0,-8.0,21.0,10027.0,-2501.0,3735.0,-12153.0,5.0,21.0,5.0,-6.0,-8.0,4.0,14079.0,-6510.0,-1353.0,5100.0,5.0,0.0,4.0,1.0
2022-05-08 14:30:45.966215-07:00,676.6,789.4,749.6,949.2,352.2,303.6,899.1,731.5,3477.1,3471.0,1028.8,815.2,575.4,3463.7,1107.8,872.1,3437.0,3446.7,404.3,347.6,362.3,354.5,272.1,256.1,3464.9,3458.9,486.1,409.8,444.3,934.7,692.9,409.0,0.0,4.0,-15.0,10024.0,-2483.0,3740.0,-12158.0,13.0,32.0,3.0,-6.0,4.0,-4.0,14082.0,-6504.0,-1347.0,5099.0,18.0,11.0,-3.0,1.0
2022-05-08 14:30:46.025537-07:00,676.6,789.4,753.8,945.8,352.2,303.6,905.0,739.7,3477.1,3471.0,1032.3,811.0,575.4,3463.7,1110.4,870.5,3454.0,3449.1,404.3,347.6,359.2,351.4,272.1,256.1,3468.6,3468.6,486.1,409.8,441.2,928.8,692.9,409.0,6.0,-8.0,-11.0,10026.0,-2486.0,3733.0,-12158.0,26.0,-37.0,-2.0,-1.0,-3.0,-8.0,14084.0,-6500.0,-1346.0,5100.0,18.0,-29.0,-13.0,1.0
2022-05-08 14:30:46.055674-07:00,666.0,781.1,753.8,945.8,352.2,302.8,905.0,739.7,3469.8,3474.6,1032.3,811.0,579.4,3466.1,1110.4,870.5,3454.0,3449.1,404.3,351.4,359.2,351.4,272.9,254.6,3468.6,3468.6,486.1,407.5,441.2,928.8,691.3,408.2,10.0,-11.0,10.0,10031.0,-2488.0,3721.0,-12156.0,22.0,-10.0,10.0,0.0,-13.0,-4.0,14087.0,-6490.0,-1356.0,5102.0,25.0,-27.0,-2.0,1.0
2022-05-08 14:30:46.115508-07:00,666.0,781.1,753.8,959.4,352.2,302.8,906.7,738.1,3469.8,3474.6,1030.6,816.0,579.4,3466.1,1100.8,875.5,3445.5,3445.5,404.3,351.4,361.5,358.4,272.9,254.6,3463.7,3457.6,486.1,407.5,438.0,933.0,691.3,408.2,9.0,-1.0,7.0,10038.0,-2474.0,3721.0,-12154.0,-1.0,39.0,34.0,0.0,-2.0,-3.0,14091.0,-6479.0,-1356.0,5106.0,4.0,6.0,16.0,1.0
2022-05-08 14:30:46.175383-07:00,673.3,777.8,753.8,959.4,351.4,299.0,906.7,738.1,3464.9,3473.4,1030.6,816.0,574.6,3478.3,1100.8,875.5,3445.5,3445.5,404.3,352.2,361.5,358.4,270.6,256.1,3463.7,3457.6,493.2,406.7,438.0,933.0,693.8,411.4,7.0,3.0,3.0,10043.0,-2466.0,3735.0,-12147.0,5.0,25.0,20.0,0.0,-4.0,5.0,14089.0,-6482.0,-1349.0,5110.0,11.0,9.0,9.0,1.0
2022-05-08 14:30:46.205543-07:00,673.3,777.8,743.0,949.2,351.4,302.8,902.5,739.7,3464.9,3473.4,1017.6,814.4,574.6,3467.4,1106.9,874.7,3449.1,3440.7,405.1,352.2,364.6,358.4,270.6,256.1,3469.8,3461.3,493.2,406.7,440.4,931.3,693.8,411.4,11.0,9.0,1.0,10042.0,-2455.0,3735.0,-12150.0,-6.0,27.0,-5.0,1.0,5.0,5.0,14092.0,-6476.0,-1348.0,5108.0,-10.0,7.0,-15.0,1.0
2022-05-08 14:30:46.265512-07:00,668.4,785.2,752.1,949.2,349.9,302.8,902.5,739.7,3469.8,3458.9,1021.9,814.4,576.2,3467.4,1106.9,874.7,3449.1,3440.7,405.1,346.8,364.6,349.9,272.1,256.9,3469.8,3461.3,493.2,405.9,440.4,938.1,695.4,411.4,0.0,1.0,-5.0,10039.0,-2445.0,3742.0,-12152.0,-3.0,23.0,-6.0,-10.0,-1.0,0.0,14094.0,-6476.0,-1351.0,5101.0,-9.0,7.0,-16.0,1.0
2022-05-08 14:30:46.325429-07:00,668.4,785.2,752.1,956.0,349.9,299.0,901.7,743.0,3469.8,3458.9,1021.9,820.2,576.2,3463.7,1109.5,871.3,3452.8,3446.7,403.5,346.8,357.6,349.9,272.1,256.9,3473.4,3455.2,492.5,405.9,435.7,938.1,695.4,411.4,-8.0,-13.0,-16.0,10034.0,-2447.0,3747.0,-12155.0,1.0,-27.0,-2.0,-17.0,-4.0,-5.0,14095.0,-6477.0,-1353.0,5097.0,-9.0,-12.0,-3.0,1.0
2022-05-08 14:30:46.385434-07:00,675.0,788.6,748.8,956.0,351.4,299.0,901.7,743.0,3467.4,3478.3,1025.4,820.2,574.6,3463.7,1109.5,871.3,3452.8,3446.7,403.5,348.3,357.6,356.8,271.4,256.1,3473.4,3455.2,492.5,404.3,435.7,935.6,696.2,404.3,1.0,-27.0,1.0,10036.0,-2462.0,3747.0,-12149.0,20.0,-33.0,35.0,-9.0,-14.0,-5.0,14091.0,-6481.0,-1359.0,5103.0,5.0,-30.0,14.0,1.0
2022-05-08 14:30:46.835403-07:00,675.0,788.6,748.8,956.8,351.4,300.5,910.1,739.7,3467.4,3478.3,1025.4,814.4,574.6,3466.1,1105.1,867.1,3443.1,3450.4,404.3,348.3,358.4,356.8,271.4,256.1,3462.5,3463.7,488.5,404.3,439.6,935.6,696.2,404.3,14.0,2.0,5.0,10052.0,-2465.0,3740.0,-12137.0,-13.0,-9.0,43.0,3.0,-1.0,2.0,14087.0,-6475.0,-1365.0,5119.0,1.0,-29.0,29.0,1.0
2022-05-08 14:30:46.836380-07:00,674.2,786.1,752.9,956.8,352.2,300.5,910.1,739.7,3473.4,3473.4,1031.4,814.4,575.4,3466.1,1105.1,867.1,3443.1,3450.4,404.3,352.2,358.4,354.5,266.8,257.6,3462.5,3463.7,488.5,409.8,439.6,933.0,688.9,405.1,5.0,11.0,4.0,10062.0,-2464.0,3742.0,-12129.0,1.0,-16.0,15.0,2.0,4.0,9.0,14085.0,-6471.0,-1369.0,5130.0,11.0,-22.0,11.0,1.0
2022-05-08 14:30:46.865027-07:00,674.2,786.1,752.9,954.3,352.2,304.3,905.0,739.7,3473.4,3473.4,1031.4,811.0,575.4,3475.9,1106.9,879.7,3443.1,3440.7,404.3,352.2,357.6,354.5,266.8,257.6,3468.6,3462.5,490.1,409.8,441.2,933.0,688.9,405.1,2.0,0.0,4.0,10066.0,-2472.0,3734.0,-12127.0,-3.0,-24.0,-9.0,-4.0,-9.0,3.0,14084.0,-6468.0,-1375.0,5133.0,-11.0,-19.0,-8.0,1.0
2022-05-08 14:30:46.896126-07:00,672.5,777.8,750.5,952.6,352.2,304.3,905.0,739.7,3474.6,3462.5,1023.7,813.5,573.8,3475.9,1106.9,879.7,3443.1,3440.7,404.3,344.5,360.0,355.3,267.6,256.1,3468.6,3462.5,490.1,411.4,438.8,928.8,688.9,399.6,9.0,-16.0,13.0,10065.0,-2478.0,3733.0,-12126.0,-27.0,7.0,13.0,0.0,-16.0,4.0,14083.0,-6469.0,-1379.0,5134.0,-14.0,5.0,5.0,1.0
2022-05-08 14:30:46.897078-07:00,672.5,777.8,750.5,952.6,351.4,307.4,908.4,735.6,3474.6,3462.5,1023.7,813.5,578.6,3477.1,1106.9,875.5,3443.1,3440.7,403.5,352.2,360.0,355.3,267.6,256.1,3456.4,3467.4,486.9,408.2,438.8,928.8,688.9,399.6,16.0,-3.0,-7.0,10066.0,-2479.0,3747.0,-12121.0,-32.0,24.0,23.0,5.0,-7.0,-5.0,14078.0,-6477.0,-1378.0,5138.0,-14.0,11.0,15.0,1.0
2022-05-08 14:30:46.898051-07:00,669.3,785.2,746.3,953.4,351.4,307.4,908.4,735.6,3461.3,3468.6,1017.6,816.9,578.6,3477.1,1106.9,875.5,3443.1,3440.7,403.5,352.2,359.2,354.5,275.2,256.1,3456.4,3467.4,486.9,408.2,437.2,933.0,693.8,409.8,6.0,-3.0,-4.0,10070.0,-2487.0,3760.0,-12112.0,0.0,-14.0,19.0,-5.0,-9.0,0.0,14071.0,-6487.0,-1383.0,5142.0,-17.0,-19.0,10.0,1.0
2022-05-08 14:30:46.898646-07:00,669.3,785.2,746.3,953.4,351.4,307.4,908.4,735.6,3461.3,3468.6,1017.6,816.9,578.6,3477.1,1106.9,875.5,3443.1,3440.7,403.5,352.2,359.2,354.5,275.2,256.1,3456.4,3467.4,486.9,408.2,437.2,933.0,693.8,409.8,6.0,-3.0,-4.0,10070.0,-2487.0,3760.0,-12112.0,0.0,-14.0,19.0,-5.0,-9.0,0.0,14071.0,-6487.0,-1383.0,5142.0,-17.0,-19.0,10.0,1.0
2022-05-08 14:30:46.900149-07:00,674.2,774.5,749.6,947.5,350.6,301.3,910.1,739.7,3469.8,3466.1,1021.1,812.7,576.2,3464.9,1106.0,872.1,3447.9,3451.6,403.5,348.3,358.4,351.4,269.9,256.1,3464.9,3468.6,488.5,407.5,439.6,934.7,691.3,408.2,17.0,-7.0,11.0,10071.0,-2480.0,3757.0,-12114.0,-7.0,4.0,-12.0,4.0,-9.0,5.0,14078.0,-6474.0,-1382.0,5139.0,-6.0,-3.0,-11.0,1.0
2022-05-08 14:30:46.956043-07:00,674.2,781.1,747.2,950.9,350.6,301.3,910.1,734.8,3469.8,3478.3,1025.4,811.0,576.2,3464.9,1106.0,869.6,3440.7,3451.6,403.5,348.3,367.7,355.3,268.3,256.1,3467.4,3468.6,488.5,407.5,442.7,937.3,693.8,408.2,7.0,-4.0,8.0,10069.0,-2478.0,3759.0,-12116.0,-14.0,40.0,9.0,-3.0,-6.0,5.0,14078.0,-6474.0,-1380.0,5139.0,-6.0,16.0,10.0,1.0
2022-05-08 14:30:47.015483-07:00,670.9,781.1,747.2,950.9,352.2,303.6,903.4,734.8,3473.4,3478.3,1025.4,811.0,578.6,3473.4,1105.1,869.6,3440.7,3455.2,402.8,350.6,367.7,355.3,268.3,253.1,3467.4,3466.1,484.5,377.8,442.7,937.3,693.8,402.8,-1.0,-1.0,-9.0,10065.0,-2475.0,3773.0,-12115.0,-15.0,6.0,-5.0,-10.0,0.0,-1.0,14076.0,-6484.0,-1375.0,5135.0,-18.0,17.0,1.0,1.0
2022-05-08 14:30:47.045610-07:00,670.9,777.8,744.7,954.3,352.2,303.6,903.4,733.2,3473.4,3475.9,1023.7,811.9,578.6,3473.4,1105.1,873.8,3438.2,3455.2,402.8,350.6,364.6,358.4,270.6,253.1,3462.5,3466.1,484.5,377.8,443.5,932.2,691.3,402.8,-5.0,-18.0,10.0,10062.0,-2477.0,3775.0,-12116.0,1.0,8.0,-4.0,-14.0,-13.0,6.0,14075.0,-6487.0,-1373.0,5135.0,4.0,6.0,2.0,1.0
2022-05-08 14:30:47.106217-07:00,668.4,777.8,744.7,954.3,353.0,303.6,905.0,733.2,3466.1,3475.9,1023.7,811.9,573.8,3479.5,1098.2,873.8,3438.2,3441.9,405.9,348.3,364.6,358.4,270.6,253.1,3462.5,3468.6,490.1,409.8,443.5,932.2,691.3,409.0,0.0,-12.0,-4.0,10063.0,-2472.0,3782.0,-12115.0,-11.0,20.0,14.0,-10.0,-11.0,-8.0,14073.0,-6489.0,-1368.0,5140.0,-1.0,10.0,15.0,1.0
2022-05-08 14:30:47.165336-07:00,668.4,785.2,746.3,949.2,353.0,303.6,905.0,743.9,3466.1,3468.6,1020.2,808.5,573.8,3479.5,1098.2,873.0,3441.9,3441.9,405.9,348.3,360.0,355.3,268.3,253.1,3461.3,3468.6,490.1,409.8,441.2,933.0,688.9,409.0,5.0,-6.0,-8.0,10065.0,-2471.0,3790.0,-12110.0,3.0,-19.0,10.0,-2.0,-6.0,-1.0,14071.0,-6491.0,-1367.0,5142.0,4.0,-11.0,4.0,1.0
2022-05-08 14:30:47.195303-07:00,670.1,775.3,746.3,949.2,350.6,304.3,904.2,743.9,3464.9,3474.6,1020.2,808.5,573.8,3473.4,1104.3,873.0,3441.9,3451.6,405.9,347.6,360.0,355.3,272.9,254.6,3461.3,3456.4,494.0,385.6,441.2,933.0,692.9,405.9,15.0,3.0,9.0,10069.0,-2478.0,3779.0,-12109.0,12.0,-36.0,9.0,5.0,-3.0,7.0,14073.0,-6483.0,-1373.0,5146.0,14.0,-21.0,-2.0,1.0
2022-05-08 14:30:47.255905-07:00,670.1,775.3,752.1,950.0,350.6,304.3,905.9,743.0,3464.9,3474.6,1014.2,815.2,573.8,3473.4,1104.3,868.8,3443.1,3451.6,405.9,347.6,358.4,348.3,272.9,254.6,3456.4,3463.7,494.0,385.6,441.2,925.4,692.9,405.9,15.0,3.0,18.0,10071.0,-2482.0,3772.0,-12109.0,-1.0,23.0,15.0,4.0,-3.0,6.0,14072.0,-6482.0,-1377.0,5148.0,0.0,6.0,10.0,1.0
2022-05-08 14:30:47.315390-07:00,668.4,776.9,752.1,950.0,353.0,305.9,905.9,743.0,3457.6,3467.4,1014.2,815.2,572.2,3473.4,1104.3,868.8,3443.1,3451.6,398.1,350.6,358.4,348.3,269.1,253.8,3456.4,3463.7,488.5,404.3,441.2,925.4,690.5,402.8,0.0,7.0,0.0,10068.0,-2471.0,3779.0,-12111.0,0.0,26.0,-7.0,-7.0,2.0,3.0,14072.0,-6484.0,-1371.0,5146.0,2.0,25.0,-1.0,1.0
2022-05-08 14:30:47.345602-07:00,668.4,776.9,748.0,952.6,353.0,305.9,903.4,738.1,3457.6,3467.4,1021.1,817.7,572.2,3473.4,1110.4,873.0,3438.2,3447.9,398.1,350.6,362.3,355.3,269.1,253.8,3458.9,3463.7,488.5,404.3,441.9,938.1,690.5,402.8,3.0,-1.0,0.0,10062.0,-2467.0,3782.0,-12116.0,-3.0,9.0,-22.0,-3.0,-1.0,3.0,14075.0,-6486.0,-1364.0,5139.0,-2.0,18.0,-20.0,1.0
2022-05-08 14:30:47.405681-07:00,665.2,771.1,748.0,952.6,348.3,305.9,903.4,738.1,3469.8,3468.6,1021.1,817.7,576.2,3478.3,1110.4,873.0,3438.2,3447.9,408.2,345.2,362.3,355.3,270.6,256.9,3458.9,3463.7,487.7,409.0,441.9,938.1,691.3,417.6,3.0,-9.0,1.0,10054.0,-2461.0,3787.0,-12122.0,-12.0,35.0,-10.0,-9.0,-6.0,2.0,14078.0,-6488.0,-1360.0,5129.0,-8.0,21.0,-5.0,1.0
2022-05-08 14:30:47.555592-07:00,665.2,771.1,750.5,951.7,348.3,305.9,908.4,734.8,3469.8,3468.6,1023.7,814.4,576.2,3478.3,1104.3,868.8,3449.1,3445.5,408.2,345.2,360.0,353.0,270.6,256.9,3460.1,3461.3,487.7,409.0,432.5,931.3,691.3,417.6,2.0,-7.0,-14.0,10051.0,-2455.0,3795.0,-12124.0,-14.0,-3.0,1.0,-10.0,0.0,-7.0,14078.0,-6491.0,-1352.0,5126.0,-9.0,9.0,-2.0,1.0
2022-05-08 14:30:47.646227-07:00,667.6,775.3,751.3,951.7,350.6,305.9,908.4,734.8,3468.6,3473.4,1023.7,814.4,574.6,3469.8,1104.3,868.8,3449.1,3445.5,403.5,346.8,360.0,353.0,274.4,256.1,3460.1,3461.3,486.9,407.5,432.5,933.0,692.9,409.8,8.0,-12.0,3.0,10051.0,-2461.0,3797.0,-12122.0,9.0,-12.0,6.0,-9.0,-11.0,0.0,14077.0,-6494.0,-1354.0,5125.0,7.0,-15.0,8.0,1.0
2022-05-08 14:30:47.647067-07:00,667.6,775.3,751.3,948.3,350.6,302.8,896.6,738.1,3468.6,3473.4,1023.7,811.0,574.6,3462.5,1105.1,873.0,3449.1,3449.1,405.1,346.8,362.3,353.0,274.4,256.1,3455.2,3473.4,493.2,407.5,436.4,933.0,692.9,409.8,10.0,-4.0,9.0,10053.0,-2462.0,3796.0,-12120.0,-7.0,6.0,13.0,-2.0,-5.0,-3.0,14078.0,-6490.0,-1354.0,5127.0,0.0,4.0,7.0,1.0
2022-05-08 14:30:47.648143-07:00,669.3,764.5,746.3,948.3,352.2,302.8,896.6,738.1,3475.9,3457.6,1019.4,811.0,577.0,3462.5,1105.1,873.0,3449.1,3449.1,405.1,349.9,362.3,351.4,272.1,260.7,3455.2,3473.4,493.2,409.0,436.4,930.5,687.2,411.4,8.0,0.0,-4.0,10056.0,-2460.0,3795.0,-12119.0,11.0,2.0,3.0,-4.0,0.0,0.0,14078.0,-6489.0,-1354.0,5128.0,13.0,-6.0,-1.0,1.0
2022-05-08 14:30:47.650003-07:00,669.3,764.5,746.3,950.9,352.2,301.3,909.3,740.6,3475.9,3457.6,1019.4,812.7,577.0,3469.8,1097.3,876.4,3446.7,3447.9,401.2,349.9,359.2,351.4,272.1,260.7,3458.9,3466.1,490.1,409.0,443.5,930.5,687.2,411.4,6.0,0.0,4.0,10056.0,-2457.0,3791.0,-12120.0,1.0,-4.0,2.0,-4.0,-6.0,1.0,14080.0,-6485.0,-1352.0,5128.0,2.0,-5.0,-1.0,1.0
2022-05-08 14:30:47.706150-07:00,667.6,778.6,749.6,950.9,351.4,301.3,909.3,740.6,3462.5,3463.7,1021.9,812.7,573.8,3469.8,1097.3,876.4,3446.7,3447.9,401.2,348.3,359.2,356.1,265.3,256.1,3458.9,3466.1,490.1,406.7,443.5,932.2,688.9,404.3,9.0,-9.0,6.0,10056.0,-2456.0,3792.0,-12120.0,0.0,10.0,-6.0,-6.0,-13.0,4.0,14080.0,-6486.0,-1353.0,5128.0,-6.0,3.0,-7.0,1.0
2022-05-08 14:30:47.765439-07:00,667.6,778.6,749.6,951.7,351.4,302.0,902.5,738.1,3462.5,3463.7,1021.9,817.7,573.8,3463.7,1097.3,869.6,3445.5,3438.2,397.3,348.3,361.5,356.1,265.3,256.1,3468.6,3455.2,490.1,406.7,438.8,932.2,688.9,404.3,12.0,-5.0,2.0,10055.0,-2453.0,3794.0,-12121.0,4.0,16.0,-8.0,-3.0,-5.0,-2.0,14080.0,-6486.0,-1353.0,5128.0,3.0,4.0,-3.0,1.0
2022-05-08 14:30:47.796214-07:00,669.3,775.3,744.7,951.7,350.6,302.0,902.5,738.1,3471.0,3466.1,1019.4,817.7,579.4,3463.7,1097.3,869.6,3445.5,3438.2,397.3,350.6,361.5,351.4,270.6,250.0,3468.6,3455.2,490.1,404.3,438.8,936.4,683.1,409.0,7.0,-5.0,-3.0,10054.0,-2451.0,3796.0,-12122.0,-10.0,-9.0,-5.0,-4.0,-5.0,-2.0,14080.0,-6485.0,-1352.0,5128.0,-3.0,3.0,-3.0,1.0
2022-05-08 14:30:47.855751-07:00,669.3,775.3,744.7,950.9,351.4,305.1,903.4,738.9,3471.0,3466.1,1019.4,816.9,577.8,3462.5,1097.3,873.0,3440.7,3449.1,399.6,350.6,359.2,351.4,270.6,250.0,3457.6,3455.2,489.3,409.0,437.2,936.4,683.1,409.0,4.0,-9.0,2.0,10053.0,-2453.0,3797.0,-12121.0,-4.0,7.0,6.0,-8.0,-9.0,4.0,14080.0,-6486.0,-1353.0,5128.0,-6.0,2.0,-2.0,1.0
2022-05-08 14:30:47.915461-07:00,670.1,771.1,752.1,949.2,351.4,305.1,903.4,738.9,3467.4,3464.9,1022.8,812.7,577.8,3462.5,1097.3,873.0,3440.7,3449.1,399.6,350.6,359.2,354.5,275.2,256.1,3457.6,3455.2,489.3,409.0,437.2,930.5,693.8,404.3,7.0,-5.0,-5.0,10055.0,-2450.0,3796.0,-12121.0,16.0,-4.0,14.0,-4.0,-4.0,-3.0,14080.0,-6485.0,-1352.0,5128.0,15.0,-2.0,9.0,1.0
2022-05-08 14:30:47.975425-07:00,670.1,771.1,752.1,949.2,350.6,299.0,905.9,738.1,3467.4,3464.9,1022.8,812.7,572.2,3462.5,1107.8,869.6,3455.2,3441.9,403.5,352.2,359.2,354.5,275.2,256.1,3457.6,3447.9,501.2,411.4,437.2,930.5,693.8,404.3,5.0,0.0,0.0,10057.0,-2450.0,3793.0,-12120.0,-3.0,-24.0,3.0,-2.0,-2.0,4.0,14081.0,-6484.0,-1351.0,5129.0,-6.0,-5.0,-1.0,1.0
2022-05-08 14:30:48.005731-07:00,678.2,775.3,750.5,954.3,350.6,299.0,905.9,738.1,3478.3,3467.4,1022.8,818.5,572.2,3462.5,1107.8,869.6,3455.2,3441.9,403.5,352.2,361.5,353.7,275.2,253.8,3457.6,3447.9,501.2,411.4,434.1,932.2,690.5,402.8,6.0,-4.0,15.0,10058.0,-2454.0,3790.0,-12119.0,4.0,3.0,1.0,-4.0,-7.0,8.0,14081.0,-6484.0,-1351.0,5129.0,2.0,-3.0,-2.0,1.0
2022-05-08 14:30:48.065518-07:00,678.2,775.3,750.5,954.3,347.6,299.0,903.4,737.3,3478.3,3467.4,1022.8,818.5,576.2,3463.7,1106.0,878.0,3438.2,3449.1,401.2,348.3,361.5,353.7,275.2,253.8,3447.9,3468.6,485.3,407.5,434.1,932.2,690.5,402.8,11.0,-5.0,1.0,10056.0,-2450.0,3798.0,-12120.0,-20.0,26.0,4.0,-4.0,-4.0,2.0,14080.0,-6485.0,-1351.0,5128.0,-12.0,11.0,-2.0,1.0
2022-05-08 14:30:48.095504-07:00,669.3,772.0,745.5,945.8,347.6,299.0,903.4,737.3,3463.7,3477.1,1023.7,815.2,576.2,3463.7,1106.0,878.0,3438.2,3449.1,401.2,348.3,361.5,350.6,272.9,255.3,3447.9,3468.6,485.3,407.5,441.2,922.8,692.9,409.0,2.0,-8.0,-5.0,10052.0,-2445.0,3810.0,-12120.0,-11.0,13.0,9.0,-7.0,-8.0,2.0,14081.0,-6486.0,-1348.0,5127.0,-6.0,7.0,5.0,1.0
2022-05-08 14:30:48.155668-07:00,669.3,772.0,745.5,945.8,350.6,304.3,907.6,741.4,3463.7,3477.1,1023.7,815.2,576.2,3466.1,1113.0,867.9,3443.1,3443.1,405.1,347.6,361.5,350.6,272.9,255.3,3467.4,3468.6,489.3,405.9,441.2,922.8,692.9,409.0,2.0,-2.0,-3.0,10052.0,-2444.0,3811.0,-12120.0,9.0,-1.0,-2.0,-8.0,-3.0,1.0,14081.0,-6486.0,-1348.0,5127.0,-1.0,-8.0,-3.0,1.0
2022-05-08 14:30:48.215553-07:00,673.3,772.8,748.0,952.6,350.6,304.3,907.6,742.2,3458.9,3473.4,1025.4,812.7,576.2,3466.1,1113.0,870.5,3446.7,3443.1,405.1,347.6,362.3,358.4,272.1,256.1,3456.4,3468.6,489.3,405.9,435.7,931.3,693.8,409.0,10.0,-8.0,6.0,10052.0,-2446.0,3809.0,-12120.0,0.0,0.0,9.0,-4.0,-11.0,0.0,14081.0,-6486.0,-1348.0,5127.0,4.0,-6.0,5.0,1.0
2022-05-08 14:30:48.245558-07:00,666.0,772.8,748.0,952.6,344.5,303.6,906.7,742.2,3472.2,3473.4,1025.4,812.7,574.6,3462.5,1104.3,870.5,3446.7,3444.3,404.3,348.3,362.3,358.4,272.1,256.9,3456.4,3467.4,483.7,411.4,435.7,931.3,693.8,408.2,7.0,-2.0,-2.0,10053.0,-2447.0,3810.0,-12119.0,-14.0,-11.0,5.0,-2.0,-6.0,0.0,14081.0,-6486.0,-1348.0,5127.0,-7.0,-4.0,0.0,1.0
2022-05-08 14:30:48.305317-07:00,666.0,772.0,748.0,950.9,344.5,303.6,906.7,738.9,3472.2,3471.0,1021.1,812.7,574.6,3462.5,1104.3,866.3,3441.9,3444.3,404.3,348.3,361.5,351.4,270.6,256.9,3457.6,3467.4,483.7,411.4,439.6,931.3,692.9,408.2,7.0,3.0,7.0,10056.0,-2445.0,3805.0,-12119.0,18.0,-9.0,18.0,-3.0,-2.0,8.0,14082.0,-6481.0,-1349.0,5129.0,-8.0,-4.0,6.0,1.0
2022-05-08 14:30:48.365241-07:00,677.4,772.0,748.0,950.9,346.8,302.0,907.6,738.9,3468.6,3471.0,1021.1,812.7,572.2,3467.4,1106.9,866.3,3441.9,3449.1,404.3,349.9,361.5,351.4,270.6,253.1,3457.6,3462.5,494.0,409.0,439.6,931.3,692.9,406.7,5.0,-10.0,7.0,10056.0,-2446.0,3813.0,-12116.0,11.0,15.0,1.0,-6.0,-5.0,8.0,14082.0,-6482.0,-1350.0,5129.0,26.0,-1.0,-1.0,1.0
2022-05-08 14:30:48.395503-07:00,677.4,773.6,743.9,957.7,346.8,302.0,907.6,736.5,3468.6,3463.7,1020.2,812.7,572.2,3467.4,1106.9,871.3,3449.1,3449.1,404.3,349.9,357.6,353.0,276.0,253.1,3452.8,3462.5,494.0,409.0,438.0,932.2,688.9,406.7,5.0,1.0,-1.0,10054.0,-2441.0,3812.0,-12119.0,-16.0,9.0,-13.0,-4.0,5.0,1.0,14083.0,-6480.0,-1350.0,5128.0,-15.0,3.0,-8.0,1.0
2022-05-08 14:30:48.455606-07:00,669.3,773.6,743.9,957.7,344.5,301.3,907.6,736.5,3461.3,3463.7,1020.2,812.7,572.2,3471.0,1102.5,871.3,3449.1,3452.8,406.7,351.4,357.6,353.0,276.0,257.6,3452.8,3463.7,486.1,411.4,438.0,932.2,688.9,407.5,7.0,-9.0,2.0,10053.0,-2442.0,3814.0,-12119.0,4.0,5.0,0.0,-6.0,-6.0,2.0,14082.0,-6481.0,-1350.0,5128.0,-4.0,4.0,0.0,1.0
2022-05-08 14:30:48.515438-07:00,669.3,776.9,746.3,947.5,344.5,301.3,903.4,742.2,3461.3,3467.4,1021.9,811.9,572.2,3471.0,1105.1,868.8,3454.0,3431.0,406.7,351.4,360.7,355.3,267.6,257.6,3457.6,3458.9,486.1,411.4,435.7,930.5,692.9,407.5,13.0,-10.0,-1.0,10053.0,-2442.0,3814.0,-12119.0,-5.0,-4.0,9.0,-7.0,-8.0,-4.0,14082.0,-6481.0,-1350.0,5128.0,-2.0,-5.0,3.0,1.0
2022-05-08 14:30:48.545585-07:00,669.3,767.8,746.3,947.5,361.5,304.3,903.4,742.2,3462.5,3471.0,1021.9,811.9,577.8,3463.7,1105.1,868.8,3454.0,3431.0,404.3,347.6,360.7,355.3,269.9,257.6,3457.6,3458.9,489.3,405.9,435.7,930.5,686.4,406.7,5.0,-2.0,9.0,10053.0,-2442.0,3814.0,-12119.0,-2.0,-1.0,5.0,-8.0,-4.0,3.0,14083.0,-6481.0,-1350.0,5128.0,2.0,0.0,4.0,1.0
2022-05-08 14:30:48.665529-07:00,669.3,767.8,744.7,951.7,361.5,304.3,901.7,737.3,3462.5,3471.0,1021.9,818.5,577.8,3463.7,1104.3,873.8,3444.3,3443.1,404.3,347.6,362.3,353.0,269.9,257.6,3461.3,3456.4,489.3,405.9,435.7,932.2,686.4,406.7,11.0,5.0,-1.0,10053.0,-2442.0,3814.0,-12119.0,0.0,5.0,3.0,0.0,5.0,0.0,14083.0,-6481.0,-1350.0,5128.0,-3.0,4.0,-1.0,1.0
2022-05-08 14:30:48.667215-07:00,673.3,766.2,744.7,951.7,353.7,304.3,901.7,737.3,3471.0,3466.1,1021.9,818.5,573.8,3464.9,1104.3,873.8,3444.3,3443.1,402.0,349.9,362.3,353.0,268.3,255.3,3461.3,3456.4,489.3,404.3,435.7,932.2,692.1,405.9,17.0,-6.0,2.0,10052.0,-2443.0,3816.0,-12118.0,4.0,-5.0,4.0,-1.0,-11.0,-3.0,14081.0,-6484.0,-1351.0,5127.0,7.0,-6.0,-5.0,1.0
2022-05-08 14:30:48.755538-07:00,673.3,766.2,748.8,948.3,353.7,304.3,901.7,738.1,3471.0,3466.1,1015.9,808.5,573.8,3464.9,1103.4,875.5,3439.5,3439.5,402.0,349.9,362.3,355.3,268.3,255.3,3456.4,3458.9,489.3,404.3,442.7,933.0,692.1,405.9,9.0,-8.0,3.0,10052.0,-2441.0,3815.0,-12119.0,-8.0,14.0,3.0,-7.0,-4.0,0.0,14081.0,-6484.0,-1351.0,5127.0,-5.0,5.0,0.0,1.0
2022-05-08 14:30:48.756651-07:00,666.0,774.5,748.8,948.3,352.2,299.0,901.7,738.1,3462.5,3464.9,1015.9,808.5,572.2,3461.3,1103.4,875.5,3439.5,3439.5,405.1,344.5,362.3,355.3,271.4,257.6,3456.4,3458.9,492.5,412.1,442.7,933.0,689.7,405.9,5.0,-9.0,-4.0,10051.0,-2440.0,3822.0,-12119.0,-7.0,8.0,3.0,-6.0,-4.0,-1.0,14081.0,-6484.0,-1351.0,5127.0,2.0,-3.0,2.0,1.0
2022-05-08 14:30:48.815461-07:00,666.0,774.5,743.9,950.0,352.2,299.0,902.5,745.5,3462.5,3464.9,1017.6,811.0,572.2,3461.3,1101.7,872.1,3438.2,3454.0,405.1,344.5,363.1,351.4,271.4,257.6,3460.1,3461.3,492.5,412.1,437.2,925.4,689.7,405.9,9.0,-6.0,4.0,10051.0,-2440.0,3822.0,-12119.0,-1.0,0.0,5.0,-5.0,-7.0,0.0,14081.0,-6484.0,-1351.0,5127.0,-1.0,-5.0,1.0,1.0
2022-05-08 14:30:48.845579-07:00,670.1,774.5,748.8,950.0,351.4,305.9,902.5,745.5,3467.4,3468.6,1017.6,811.0,577.8,3478.3,1101.7,872.1,3438.2,3454.0,403.5,351.4,363.1,356.1,270.6,257.6,3460.1,3461.3,486.1,412.1,437.2,929.6,687.2,398.1,9.0,-8.0,0.0,10051.0,-2440.0,3822.0,-12119.0,2.0,5.0,3.0,-7.0,-8.0,0.0,14081.0,-6484.0,-1351.0,5127.0,-1.0,3.0,-2.0,1.0
2022-05-08 14:30:48.906368-07:00,670.1,774.5,748.8,950.9,351.4,301.3,900.8,741.4,3467.4,3468.6,1017.6,811.0,577.8,3473.4,1096.4,873.0,3444.3,3449.1,408.2,351.4,361.5,356.1,270.6,257.6,3466.1,3455.2,491.7,412.1,437.2,929.6,687.2,398.1,9.0,1.0,-2.0,10051.0,-2440.0,3822.0,-12119.0,3.0,1.0,-2.0,-3.0,-5.0,4.0,14082.0,-6483.0,-1351.0,5127.0,-2.0,-1.0,-11.0,1.0
2022-05-08 14:30:48.965281-07:00,666.0,772.8,743.9,950.9,353.7,301.3,900.8,741.4,3458.9,3466.1,1021.1,811.0,580.2,3473.4,1096.4,873.0,3444.3,3449.1,408.2,348.3,361.5,351.4,269.1,256.1,3466.1,3455.2,491.7,408.2,437.2,934.7,688.0,406.7,11.0,4.0,4.0,10048.0,-2443.0,3819.0,-12121.0,2.0,0.0,-16.0,-4.0,-1.0,7.0,14084.0,-6483.0,-1354.0,5121.0,-1.0,-4.0,-19.0,1.0
2022-05-08 14:30:49.085206-07:00,666.0,772.8,743.9,951.7,353.7,301.3,903.4,734.8,3458.9,3466.1,1021.1,811.0,580.2,3467.4,1107.8,867.9,3444.3,3439.5,405.1,348.3,364.6,351.4,269.1,256.1,3463.7,3468.6,490.9,408.2,440.4,934.7,688.0,406.7,8.0,-12.0,4.0,10042.0,-2446.0,3826.0,-12123.0,-12.0,13.0,-14.0,-2.0,-9.0,1.0,14084.0,-6487.0,-1357.0,5112.0,-7.0,12.0,-18.0,1.0
2022-05-08 14:30:49.115550-07:00,662.7,771.1,749.6,951.7,346.8,301.3,903.4,734.8,3466.1,3468.6,1022.8,811.0,577.8,3467.4,1107.8,867.9,3444.3,3439.5,405.1,348.3,364.6,353.0,269.9,256.9,3463.7,3468.6,490.9,407.5,440.4,928.8,688.9,405.1,14.0,-12.0,-1.0,10039.0,-2445.0,3825.0,-12126.0,-6.0,6.0,-8.0,-6.0,0.0,-7.0,14086.0,-6488.0,-1356.0,5107.0,-9.0,4.0,-9.0,1.0
2022-05-08 14:30:49.116673-07:00,662.7,771.1,749.6,951.7,346.8,299.0,905.0,744.7,3466.1,3468.6,1022.8,810.2,577.8,3467.4,1099.0,874.7,3447.9,3445.5,408.2,348.3,364.6,353.0,269.9,256.9,3471.0,3466.1,486.9,407.5,437.2,928.8,688.9,405.1,16.0,-15.0,6.0,10039.0,-2438.0,3832.0,-12125.0,21.0,29.0,20.0,-4.0,-12.0,-5.0,14086.0,-6488.0,-1356.0,5107.0,16.0,5.0,8.0,1.0
2022-05-08 14:30:49.146131-07:00,670.1,772.0,743.0,950.0,351.4,299.0,905.0,744.7,3473.4,3475.9,1018.5,813.5,571.4,3467.4,1099.0,874.7,3447.9,3445.5,408.2,350.6,360.7,356.1,266.8,254.6,3471.0,3466.1,486.9,406.7,432.5,929.6,692.9,406.7,3.0,0.0,3.0,10042.0,-2429.0,3839.0,-12122.0,-15.0,18.0,15.0,-9.0,5.0,0.0,14087.0,-6486.0,-1355.0,5107.0,-12.0,10.0,2.0,1.0
2022-05-08 14:30:49.205546-07:00,670.1,772.0,743.0,950.0,348.3,307.4,904.2,740.6,3473.4,3475.9,1018.5,813.5,580.2,3469.8,1105.1,870.5,3446.7,3447.9,404.3,345.2,360.7,356.1,266.8,254.6,3460.1,3464.9,486.9,404.3,432.5,929.6,692.9,406.7,6.0,2.0,4.0,10045.0,-2419.0,3844.0,-12120.0,7.0,14.0,16.0,-9.0,-1.0,5.0,14088.0,-6484.0,-1354.0,5108.0,6.0,-4.0,2.0,1.0
2022-05-08 14:30:49.265594-07:00,671.7,772.0,748.8,952.6,348.3,307.4,904.2,740.6,3468.6,3461.3,1023.7,809.4,580.2,3469.8,1105.1,870.5,3446.7,3447.9,404.3,345.2,360.7,350.6,266.8,256.1,3460.1,3464.9,486.9,404.3,446.7,933.0,690.5,406.7,10.0,-3.0,3.0,10046.0,-2420.0,3844.0,-12119.0,-1.0,-1.0,7.0,-5.0,-4.0,3.0,14088.0,-6484.0,-1354.0,5108.0,-1.0,3.0,9.0,1.0
2022-05-08 14:30:49.295598-07:00,671.7,772.0,748.8,952.6,352.2,300.5,909.3,741.4,3468.6,3461.3,1023.7,809.4,580.2,3464.9,1104.3,873.8,3449.1,3454.0,407.5,348.3,360.7,350.6,266.8,256.1,3473.4,3462.5,483.7,412.9,446.7,933.0,690.5,406.7,8.0,-6.0,0.0,10046.0,-2420.0,3845.0,-12119.0,5.0,6.0,1.0,-7.0,-6.0,1.0,14088.0,-6484.0,-1354.0,5108.0,5.0,2.0,0.0,1.0
2022-05-08 14:30:49.355612-07:00,670.9,768.7,748.8,948.3,352.2,300.5,909.3,741.4,3466.1,3468.6,1014.2,818.5,580.2,3464.9,1104.3,873.8,3449.1,3454.0,407.5,348.3,360.0,351.4,266.8,254.6,3473.4,3462.5,483.7,412.9,442.7,932.2,693.8,406.7,10.0,-8.0,2.0,10045.0,-2422.0,3847.0,-12119.0,-7.0,-8.0,0.0,-9.0,-5.0,-1.0,14087.0,-6486.0,-1355.0,5107.0,-9.0,-5.0,4.0,1.0
2022-05-08 14:30:49.415494-07:00,670.9,768.7,748.8,948.3,352.2,302.0,903.4,738.9,3466.1,3468.6,1014.2,818.5,574.6,3480.7,1106.9,872.1,3443.1,3440.7,400.4,347.6,360.0,351.4,266.8,254.6,3462.5,3457.6,482.2,410.6,442.7,932.2,693.8,406.7,11.0,-6.0,4.0,10045.0,-2422.0,3847.0,-12119.0,3.0,4.0,5.0,-5.0,-1.0,1.0,14087.0,-6486.0,-1355.0,5107.0,0.0,1.0,7.0,1.0
2022-05-08 14:30:49.445600-07:00,667.6,774.5,748.0,953.4,352.2,302.0,903.4,738.9,3469.8,3467.4,1020.2,804.4,574.6,3480.7,1106.9,872.1,3443.1,3440.7,400.4,347.6,360.7,353.0,272.1,256.1,3462.5,3457.6,482.2,410.6,441.9,924.5,685.6,402.8,12.0,-1.0,-7.0,10048.0,-2419.0,3848.0,-12117.0,4.0,-3.0,13.0,-5.0,-4.0,-3.0,14087.0,-6485.0,-1354.0,5108.0,-3.0,-1.0,5.0,1.0
2022-05-08 14:30:49.505527-07:00,670.9,774.5,748.0,953.4,355.3,303.6,906.7,740.6,3474.6,3467.4,1020.2,804.4,581.0,3473.4,1099.9,872.1,3447.9,3449.1,405.9,346.8,360.7,353.0,272.1,258.4,3464.9,3455.2,488.5,410.6,441.9,924.5,685.6,406.7,10.0,-3.0,3.0,10048.0,-2421.0,3846.0,-12117.0,9.0,-14.0,7.0,-6.0,-2.0,0.0,14087.0,-6485.0,-1354.0,5108.0,4.0,-6.0,3.0,1.0
2022-05-08 14:30:49.565366-07:00,670.9,777.8,738.1,950.9,355.3,303.6,906.7,742.2,3474.6,3469.8,1016.8,812.7,581.0,3473.4,1099.9,867.9,3449.1,3449.1,405.9,346.8,360.7,351.4,271.4,258.4,3469.8,3455.2,488.5,410.6,435.7,935.6,684.0,406.7,11.0,-5.0,6.0,10049.0,-2420.0,3847.0,-12116.0,7.0,16.0,12.0,-7.0,-4.0,2.0,14087.0,-6485.0,-1354.0,5108.0,7.0,-2.0,8.0,1.0
2022-05-08 14:30:49.595505-07:00,667.6,777.8,738.1,950.9,349.1,304.3,898.3,742.2,3471.0,3469.8,1016.8,812.7,569.0,3467.4,1105.1,867.9,3449.1,3445.5,403.5,349.1,360.7,351.4,271.4,256.9,3469.8,3463.7,490.1,405.9,435.7,935.6,684.0,408.2,9.0,0.0,-1.0,10049.0,-2416.0,3850.0,-12116.0,-10.0,6.0,-1.0,-6.0,0.0,-4.0,14088.0,-6483.0,-1353.0,5108.0,-6.0,5.0,-2.0,1.0
2022-05-08 14:30:49.655627-07:00,667.6,771.1,738.1,954.3,349.1,304.3,898.3,742.2,3471.0,3478.3,1015.1,805.2,569.0,3467.4,1105.1,870.5,3444.3,3445.5,403.5,349.1,356.8,355.3,269.9,256.9,3462.5,3463.7,490.1,405.9,439.6,933.0,691.3,408.2,9.0,-7.0,9.0,10049.0,-2415.0,3849.0,-12116.0,15.0,8.0,-4.0,-7.0,-8.0,0.0,14088.0,-6483.0,-1353.0,5108.0,14.0,2.0,-2.0,1.0
2022-05-08 14:30:49.775655-07:00,669.3,771.1,738.1,954.3,353.7,305.9,900.8,742.2,3473.4,3478.3,1015.1,805.2,569.8,3469.8,1104.3,870.5,3444.3,3446.7,405.9,349.1,356.8,355.3,269.9,257.6,3462.5,3464.9,493.2,406.7,439.6,933.0,691.3,402.0,8.0,-6.0,-7.0,10049.0,-2414.0,3850.0,-12116.0,-18.0,0.0,-1.0,-8.0,-8.0,-3.0,14089.0,-6481.0,-1352.0,5109.0,-12.0,4.0,-1.0,1.0
2022-05-08 14:30:49.777326-07:00,669.3,764.5,744.7,953.4,353.7,305.9,900.8,741.4,3473.4,3473.4,1019.4,811.9,569.8,3469.8,1104.3,870.5,3443.1,3446.7,405.9,349.1,361.5,353.0,268.3,257.6,3468.6,3464.9,493.2,406.7,438.8,933.0,691.3,402.0,8.0,-1.0,4.0,10049.0,-2416.0,3852.0,-12116.0,-18.0,7.0,8.0,-7.0,-4.0,-3.0,14089.0,-6482.0,-1353.0,5109.0,-23.0,3.0,-3.0,1.0
2022-05-08 14:30:49.835489-07:00,670.9,772.0,744.7,953.4,348.3,301.3,905.9,741.4,3475.9,3471.0,1019.4,811.9,576.2,3468.6,1104.3,870.5,3443.1,3443.1,406.7,351.4,361.5,353.0,269.9,255.3,3468.6,3468.6,488.5,406.7,438.8,933.0,689.7,405.1,6.0,-8.0,6.0,10043.0,-2416.0,3888.0,-12108.0,-69.0,71.0,19.0,-13.0,-14.0,9.0,14081.0,-6502.0,-1353.0,5105.0,-46.0,29.0,15.0,1.0
2022-05-08 14:30:49.838666-07:00,670.9,772.0,748.8,955.1,348.3,301.3,905.0,737.3,3475.9,3471.0,1021.1,811.9,576.2,3468.6,1100.8,869.6,3438.2,3439.5,406.7,351.4,360.7,353.0,269.9,255.3,3457.6,3468.6,488.5,406.7,442.7,931.3,689.7,405.1,9.0,13.0,-26.0,10040.0,-2422.0,3942.0,-12093.0,-184.0,32.0,45.0,-11.0,17.0,-8.0,14069.0,-6531.0,-1348.0,5101.0,-167.0,34.0,11.0,1.0
2022-05-08 14:30:49.895609-07:00,670.1,778.6,748.8,955.1,352.2,299.7,905.0,737.3,3463.7,3468.6,1021.1,811.9,572.2,3467.4,1100.8,869.6,3438.2,3439.5,398.1,347.6,360.7,353.0,266.8,257.6,3457.6,3468.6,486.1,411.4,442.7,931.3,685.6,404.3,22.0,2.0,17.0,10041.0,-2515.0,4086.0,-12025.0,-618.0,61.0,136.0,0.0,0.0,-5.0,14016.0,-6651.0,-1369.0,5087.0,-521.0,85.0,31.0,1.0
2022-05-08 14:30:49.955566-07:00,670.1,778.6,744.7,951.7,352.2,299.7,899.1,739.7,3463.7,3468.6,1019.4,814.4,572.2,3467.4,1105.1,871.3,3446.7,3445.5,398.1,347.6,360.7,358.4,266.8,257.6,3456.4,3451.6,486.1,411.4,443.5,933.0,685.6,404.3,21.0,-18.0,38.0,10031.0,-2654.0,4441.0,-11876.0,-1058.0,302.0,303.0,-5.0,-3.0,-17.0,13892.0,-6915.0,-1405.0,5065.0,-925.0,158.0,126.0,1.0
2022-05-08 14:30:50.075503-07:00,670.9,775.3,744.7,951.7,356.1,302.0,899.1,739.7,3475.9,3461.3,1019.4,814.4,575.4,3471.0,1105.1,871.3,3446.7,3445.5,402.8,353.0,360.7,358.4,268.3,263.0,3456.4,3451.6,486.9,411.4,443.5,933.0,685.6,405.1,4.0,30.0,-10.0,9977.0,-2874.0,5053.0,-11623.0,-1838.0,475.0,386.0,-27.0,42.0,-32.0,13645.0,-7392.0,-1456.0,5049.0,-1501.0,255.0,222.0,1.0
2022-05-08 14:30:50.076745-07:00,670.9,775.3,750.5,955.1,356.1,302.0,897.4,740.6,3475.9,3461.3,1026.3,814.4,575.4,3471.0,1107.8,868.8,3439.5,3446.7,402.8,353.0,356.1,351.4,268.3,263.0,3461.3,3461.3,486.9,411.4,439.6,931.3,685.6,405.1,1.0,100.0,-81.0,9831.0,-3324.0,5912.0,-11216.0,-2892.0,320.0,312.0,1.0,185.0,-79.0,13205.0,-8151.0,-1557.0,5021.0,-2465.0,340.0,361.0,1.0
2022-05-08 14:30:50.105579-07:00,669.3,775.3,750.5,955.1,356.8,304.3,897.4,740.6,3472.2,3469.8,1026.3,814.4,572.2,3468.6,1107.8,868.8,3439.5,3446.7,405.1,347.6,356.1,351.4,268.3,256.1,3461.3,3461.3,494.8,403.5,439.6,931.3,692.1,408.2,6.0,-31.0,-16.0,9504.0,-4098.0,6940.0,-10637.0,-3373.0,166.0,-22.0,-41.0,-59.0,-65.0,12526.0,-9172.0,-1680.0,4959.0,-2956.0,439.0,441.0,1.0
2022-05-08 14:30:50.166132-07:00,669.3,775.3,747.2,953.4,356.8,303.6,894.1,735.6,3472.2,3469.8,1066.0,814.4,572.2,3460.1,1106.0,868.8,3439.5,3451.6,405.9,347.6,363.1,360.0,268.3,256.1,3458.9,3462.5,505.1,403.5,441.2,931.3,692.1,408.2,4.0,-90.0,18.0,9081.0,-4832.0,7828.0,-10067.0,-2957.0,174.0,-20.0,-11.0,-58.0,-26.0,11778.0,-10153.0,-1790.0,4840.0,-2688.0,486.0,418.0,1.0
2022-05-08 14:30:50.315917-07:00,669.3,762.9,744.7,953.4,346.8,303.6,894.1,735.6,3467.4,3467.4,1108.6,814.4,573.0,3460.1,1106.0,868.8,3439.5,3451.6,405.9,346.8,363.1,354.5,270.6,256.1,3458.9,3462.5,505.1,408.2,441.2,940.7,688.0,406.7,21.0,-17.0,-26.0,8665.0,-5493.0,8607.0,-9440.0,-3082.0,51.0,-52.0,-16.0,35.0,-69.0,11006.0,-11023.0,-1868.0,4722.0,-2744.0,400.0,460.0,1.0
2022-05-08 14:30:50.316836-07:00,669.3,762.9,744.7,952.6,346.8,302.0,885.6,734.8,3467.4,3467.4,1108.6,823.5,573.0,3461.3,1101.7,873.8,3444.3,3451.6,404.3,346.8,363.1,354.5,270.6,256.1,3468.6,3461.3,498.8,408.2,441.9,940.7,688.0,406.7,-7.0,-16.0,-6.0,8150.0,-6236.0,9349.0,-8702.0,-3103.0,-135.0,-137.0,-9.0,7.0,-29.0,10051.0,-11935.0,-2013.0,4573.0,-3037.0,354.0,406.0,1.0
2022-05-08 14:30:50.317955-07:00,668.4,762.9,750.5,952.6,353.7,302.0,885.6,734.8,3468.6,3472.2,1155.0,823.5,576.2,3461.3,1101.7,873.8,3444.3,3451.6,404.3,342.1,363.1,353.7,270.6,256.9,3468.6,3461.3,498.8,409.8,441.9,927.9,682.3,404.3,25.0,13.0,-19.0,7613.0,-7027.0,9972.0,-7852.0,-3491.0,-334.0,-245.0,-10.0,11.0,-23.0,8986.0,-12800.0,-2183.0,4368.0,-3381.0,380.0,329.0,1.0
2022-05-08 14:30:50.376199-07:00,668.4,762.9,750.5,949.2,353.7,306.7,891.5,732.3,3468.6,3472.2,1155.0,815.2,576.2,3467.4,1114.7,864.6,3441.9,3445.5,405.1,342.1,359.2,353.7,270.6,256.9,3460.1,3458.9,496.4,409.8,438.0,927.9,682.3,404.3,9.0,-63.0,47.0,6961.0,-7841.0,10528.0,-6904.0,-3344.0,-293.0,-285.0,-22.0,-69.0,-60.0,7768.0,-13629.0,-2397.0,4076.0,-3351.0,450.0,219.0,1.0
2022-05-08 14:30:50.405682-07:00,662.7,766.2,748.0,949.2,351.4,306.7,891.5,732.3,3471.0,3467.4,1172.6,815.2,580.2,3467.4,1114.7,864.6,3441.9,3445.5,405.1,346.8,359.2,353.7,275.2,258.4,3460.1,3458.9,496.4,408.2,438.0,931.3,706.0,411.4,4.0,-88.0,83.0,6344.0,-8446.0,10947.0,-6084.0,-2613.0,-116.0,-188.0,3.0,-82.0,57.0,6735.0,-14231.0,-2550.0,3750.0,-2486.0,474.0,93.0,1.0
2022-05-08 14:30:50.435595-07:00,662.7,766.2,748.0,945.8,350.6,305.1,886.5,729.9,3471.0,3467.4,1172.6,817.7,578.6,3464.9,1111.2,871.3,3449.1,3451.6,405.9,350.6,361.5,353.7,275.2,258.4,3462.5,3464.9,498.8,404.3,441.2,931.3,706.0,411.4,19.0,-25.0,49.0,5773.0,-8945.0,11258.0,-5325.0,-2720.0,-188.0,-251.0,-7.0,28.0,-13.0,5909.0,-14665.0,-2659.0,3375.0,-2239.0,670.0,53.0,1.0
2022-05-08 14:30:50.495288-07:00,666.0,762.0,748.8,948.3,350.6,305.1,886.5,729.9,3471.0,3473.4,1193.8,826.0,578.6,3464.9,1111.2,871.3,3449.1,3451.6,405.9,350.6,360.7,356.1,273.7,253.1,3462.5,3464.9,498.8,404.3,439.6,926.2,689.7,404.3,41.0,-121.0,84.0,5034.0,-9452.0,11573.0,-4453.0,-2861.0,75.0,-219.0,-8.0,-44.0,-3.0,4898.0,-15108.0,-2779.0,2912.0,-2810.0,609.0,27.0,1.0
2022-05-08 14:30:50.555703-07:00,666.0,762.0,748.8,948.3,353.0,299.0,892.4,732.3,3471.0,3473.4,1193.8,826.0,581.0,3474.6,1135.7,878.0,3438.2,3458.9,399.6,346.8,360.7,356.1,273.7,253.1,3463.7,3457.6,500.4,405.1,439.6,926.2,689.7,404.3,13.0,-134.0,70.0,4367.0,-9743.0,11838.0,-3784.0,-2048.0,258.0,2.0,-9.0,-90.0,27.0,4024.0,-15428.0,-2825.0,2501.0,-1918.0,629.0,143.0,1.0
2022-05-08 14:30:50.585690-07:00,670.1,764.5,745.5,953.4,353.0,299.0,892.4,732.3,3462.5,3468.6,1213.3,829.4,581.0,3474.6,1135.7,878.0,3438.2,3458.9,399.6,346.8,359.2,353.7,272.9,253.8,3463.7,3457.6,500.4,405.1,442.7,944.1,688.0,404.3,21.0,-119.0,59.0,3761.0,-9916.0,12065.0,-3224.0,-2025.0,356.0,78.0,7.0,-25.0,-44.0,3284.0,-15653.0,-2808.0,2179.0,-1867.0,544.0,274.0,1.0
2022-05-08 14:30:50.645622-07:00,670.1,764.5,745.5,953.4,345.2,302.8,891.5,725.8,3462.5,3468.6,1213.3,829.4,581.0,3469.8,1155.9,872.1,3440.7,3443.1,404.3,355.3,359.2,353.7,272.9,253.8,3467.4,3463.7,498.0,405.1,442.7,944.1,688.0,404.3,16.0,-95.0,46.0,3137.0,-9991.0,12287.0,-2794.0,-1599.0,618.0,177.0,0.0,3.0,13.0,2565.0,-15842.0,-2702.0,1890.0,-1660.0,382.0,467.0,1.0
2022-05-08 14:30:50.705629-07:00,664.4,764.5,749.6,951.7,345.2,302.8,891.5,725.8,3464.9,3475.9,1225.7,831.9,581.0,3469.8,1155.9,872.1,3440.7,3443.1,404.3,355.3,360.7,353.7,275.2,257.6,3467.4,3463.7,498.0,405.1,438.0,927.1,692.1,408.2,40.0,-85.0,-7.0,2466.0,-10001.0,12517.0,-2379.0,-1888.0,698.0,274.0,19.0,14.0,-71.0,1853.0,-15999.0,-2527.0,1630.0,-1881.0,431.0,596.0,1.0
2022-05-08 14:30:50.735877-07:00,664.4,764.5,749.6,951.7,352.2,299.0,898.3,728.2,3464.9,3475.9,1225.7,831.9,582.6,3466.1,1177.9,867.9,3446.7,3446.7,405.1,348.3,360.7,353.7,275.2,257.6,3467.4,3468.6,495.6,405.9,438.0,927.1,692.1,408.2,7.0,-95.0,-11.0,1907.0,-9959.0,12719.0,-1960.0,-1272.0,320.0,312.0,-17.0,-22.0,7.0,1186.0,-16117.0,-2317.0,1375.0,-1349.0,147.0,540.0,1.0
2022-05-08 14:30:50.855557-07:00,662.7,759.6,750.5,950.9,352.2,299.0,898.3,736.5,3467.4,3475.9,1233.7,831.1,582.6,3466.1,1177.9,878.0,3449.1,3446.7,405.1,348.3,357.6,354.5,273.7,256.1,3457.6,3468.6,495.6,405.9,436.4,923.7,696.2,405.9,33.0,-50.0,6.0,1614.0,-9893.0,12848.0,-1699.0,-692.0,162.0,245.0,3.0,-24.0,15.0,785.0,-16174.0,-2140.0,1285.0,-754.0,48.0,426.0,1.0
2022-05-08 14:30:50.856860-07:00,669.3,759.6,750.5,950.9,351.4,304.3,897.4,736.5,3468.6,3475.9,1233.7,831.1,583.5,3474.6,1199.1,878.0,3449.1,3444.3,402.0,348.3,357.6,354.5,273.7,251.5,3457.6,3452.8,498.0,408.2,436.4,923.7,696.2,402.8,43.0,-37.0,20.0,1436.0,-9826.0,12942.0,-1527.0,-490.0,147.0,242.0,24.0,34.0,0.0,523.0,-16205.0,-2013.0,1228.0,-522.0,84.0,295.0,1.0
2022-05-08 14:30:50.975419-07:00,669.3,757.1,749.6,945.8,351.4,304.3,897.4,724.9,3468.6,3472.2,1241.7,821.0,583.5,3474.6,1199.1,882.3,3446.7,3444.3,402.0,348.3,361.5,358.4,274.4,251.5,3461.3,3452.8,498.0,408.2,435.7,928.8,688.0,402.8,23.0,-25.0,7.0,1294.0,-9776.0,13006.0,-1429.0,-261.0,116.0,126.0,9.0,27.0,0.0,386.0,-16222.0,-1933.0,1180.0,-309.0,41.0,194.0,1.0
2022-05-08 14:30:50.977939-07:00,666.0,757.1,749.6,945.8,350.6,302.8,891.5,724.9,3467.4,3472.2,1241.7,821.0,581.8,3485.6,1202.7,882.3,3446.7,3451.6,404.3,346.8,361.5,358.4,274.4,258.4,3461.3,3461.3,492.5,406.7,435.7,928.8,688.0,398.1,16.0,-12.0,-37.0,1244.0,-9767.0,13023.0,-1371.0,-155.0,-49.0,-32.0,-7.0,19.0,-10.0,280.0,-16232.0,-1882.0,1160.0,-262.0,-73.0,53.0,1.0
2022-05-08 14:30:51.005624-07:00,666.0,760.4,752.1,948.3,350.6,302.8,891.5,729.0,3467.4,3467.4,1247.1,824.4,581.8,3485.6,1202.7,882.3,3444.3,3451.6,404.3,346.8,366.2,356.1,279.8,258.4,3463.7,3461.3,492.5,406.7,438.8,935.6,689.7,398.1,28.0,-50.0,18.0,1246.0,-9789.0,13014.0,-1302.0,-95.0,-122.0,-49.0,16.0,-8.0,8.0,188.0,-16232.0,-1877.0,1178.0,-130.0,-75.0,-22.0,1.0
2022-05-08 14:30:51.035701-07:00,670.1,760.4,752.1,948.3,351.4,306.7,889.0,729.0,3462.5,3467.4,1247.1,824.4,582.6,3466.1,1212.4,882.3,3444.3,3441.9,405.9,340.6,366.2,356.1,279.8,253.1,3463.7,3468.6,496.4,405.9,438.8,935.6,689.7,409.0,17.0,-75.0,21.0,1277.0,-9824.0,12988.0,-1275.0,14.0,-97.0,-98.0,0.0,-21.0,11.0,151.0,-16228.0,-1899.0,1207.0,-62.0,-95.0,-75.0,1.0
2022-05-08 14:30:51.125411-07:00,670.1,754.6,753.8,953.4,351.4,306.7,889.0,729.0,3462.5,3466.1,1248.0,827.7,582.6,3466.1,1212.4,878.9,3438.2,3441.9,405.9,340.6,357.6,354.5,273.7,253.1,3458.9,3468.6,496.4,405.9,436.4,930.5,688.9,409.0,10.0,-79.0,28.0,1357.0,-9841.0,12958.0,-1352.0,-12.0,-63.0,-8.0,-2.0,2.0,6.0,124.0,-16223.0,-1926.0,1238.0,-17.0,-30.0,-9.0,1.0
2022-05-08 14:30:51.515445-07:00,670.1,754.6,753.8,953.4,348.3,303.6,883.1,729.0,3469.8,3467.4,1248.0,827.7,585.1,3469.8,1199.1,878.9,3438.2,3441.9,406.7,344.5,357.6,354.5,273.7,250.0,3458.9,3464.9,494.8,405.9,436.4,930.5,689.7,411.4,14.0,-52.0,33.0,1416.0,-9826.0,12955.0,-1432.0,80.0,7.0,32.0,4.0,-7.0,8.0,132.0,-16222.0,-1923.0,1254.0,35.0,-36.0,17.0,1.0
2022-05-08 14:30:51.518118-07:00,670.1,754.6,748.0,949.2,348.3,303.6,883.1,723.3,3469.8,3467.4,1243.5,832.7,585.1,3469.8,1197.4,879.7,3444.3,3440.7,406.7,344.5,360.7,356.1,273.7,250.0,3462.5,3461.3,494.8,405.9,440.4,928.8,689.7,411.4,13.0,-37.0,14.0,1429.0,-9818.0,12956.0,-1466.0,83.0,12.0,15.0,1.0,4.0,9.0,148.0,-16222.0,-1918.0,1263.0,94.0,-12.0,-8.0,1.0
2022-05-08 14:30:51.519103-07:00,666.8,755.4,748.0,949.2,353.0,303.6,883.1,723.3,3475.9,3464.9,1243.5,832.7,585.9,3475.9,1197.4,879.7,3444.3,3440.7,408.2,347.6,360.7,356.1,271.4,255.3,3462.5,3461.3,490.9,408.2,440.4,928.8,685.6,402.8,19.0,-32.0,4.0,1469.0,-9809.0,12950.0,-1535.0,166.0,-7.0,8.0,7.0,3.0,0.0,190.0,-16219.0,-1925.0,1277.0,104.0,-40.0,-34.0,1.0
2022-05-08 14:30:51.519949-07:00,666.8,755.4,750.5,956.8,353.0,303.6,882.3,725.8,3475.9,3464.9,1243.5,831.9,585.9,3475.9,1195.6,871.3,3449.1,3455.2,408.2,347.6,363.1,354.5,271.4,255.3,3463.7,3456.4,490.9,408.2,441.9,931.3,685.6,402.8,21.0,-29.0,8.0,1519.0,-9810.0,12935.0,-1600.0,161.0,-26.0,-46.0,9.0,-9.0,-1.0,237.0,-16215.0,-1942.0,1296.0,100.0,-50.0,-62.0,1.0
2022-05-08 14:30:51.545513-07:00,664.4,754.6,750.5,956.8,352.2,305.1,882.3,725.8,3473.4,3466.1,1243.5,831.9,583.5,3469.8,1195.6,871.3,3449.1,3455.2,402.0,346.8,363.1,354.5,274.4,256.1,3463.7,3456.4,493.2,408.2,441.9,931.3,690.5,404.3,8.0,-18.0,20.0,1568.0,-9832.0,12903.0,-1677.0,181.0,-10.0,-102.0,-4.0,-3.0,14.0,274.0,-16208.0,-1977.0,1321.0,99.0,-28.0,-103.0,1.0
2022-05-08 14:30:51.546710-07:00,664.4,754.6,758.7,949.2,352.2,305.1,878.0,725.8,3473.4,3466.1,1249.7,832.7,583.5,3469.8,1203.5,876.4,3433.4,3443.1,402.0,346.8,361.5,353.7,274.4,256.1,3463.7,3457.6,493.2,408.2,437.2,931.3,690.5,404.3,-5.0,-50.0,4.0,1616.0,-9863.0,12867.0,-1728.0,140.0,-53.0,-100.0,-14.0,-15.0,6.0,307.0,-16200.0,-2025.0,1337.0,90.0,-18.0,-110.0,1.0
2022-05-08 14:30:51.547250-07:00,664.4,754.6,758.7,949.2,352.2,305.1,878.0,725.8,3473.4,3466.1,1249.7,832.7,583.5,3469.8,1203.5,876.4,3433.4,3443.1,402.0,346.8,361.5,353.7,274.4,256.1,3463.7,3457.6,493.2,408.2,437.2,931.3,690.5,404.3,-5.0,-50.0,4.0,1616.0,-9863.0,12867.0,-1728.0,140.0,-53.0,-100.0,-14.0,-15.0,6.0,307.0,-16200.0,-2025.0,1337.0,90.0,-18.0,-110.0,1.0
2022-05-08 14:30:51.605707-07:00,667.6,757.1,755.4,955.1,353.0,302.8,883.1,724.1,3468.6,3467.4,1242.6,824.4,579.4,3464.9,1202.7,876.4,3443.1,3438.2,400.4,350.6,364.6,356.1,273.7,255.3,3462.5,3457.6,487.7,409.0,438.8,929.6,685.6,403.5,11.0,-41.0,20.0,1826.0,-9877.0,12803.0,-1905.0,-8.0,-12.0,1.0,-2.0,-13.0,5.0,482.0,-16183.0,-2084.0,1405.0,-22.0,0.0,-2.0,1.0
2022-05-08 14:30:51.635941-07:00,662.7,748.8,746.3,955.1,353.7,302.8,883.1,724.1,3464.9,3463.7,1239.9,824.4,582.6,3464.9,1202.7,876.4,3443.1,3438.2,400.4,349.1,364.6,354.5,275.2,256.9,3462.5,3457.6,487.7,403.5,438.8,939.8,689.7,400.4,3.0,-35.0,16.0,1833.0,-9865.0,12807.0,-1932.0,28.0,31.0,27.0,5.0,-6.0,3.0,477.0,-16183.0,-2081.0,1405.0,-12.0,-10.0,8.0,1.0
2022-05-08 14:30:51.695587-07:00,662.7,748.8,746.3,952.6,353.7,301.3,886.5,721.6,3464.9,3463.7,1239.9,828.5,582.6,3462.5,1200.9,878.0,3441.9,3443.1,404.3,349.1,361.5,354.5,275.2,256.9,3462.5,3463.7,488.5,403.5,435.7,939.8,689.7,400.4,4.0,-15.0,1.0,1848.0,-9853.0,12810.0,-1960.0,50.0,-2.0,19.0,5.0,5.0,7.0,481.0,-16183.0,-2081.0,1411.0,14.0,-17.0,-4.0,1.0
2022-05-08 14:30:51.785275-07:00,661.9,751.3,751.3,952.6,352.2,301.3,886.5,721.6,3457.6,3464.9,1244.4,828.5,586.7,3462.5,1200.9,878.0,3441.9,3443.1,404.3,349.1,361.5,356.8,273.7,253.1,3462.5,3463.7,488.5,405.9,435.7,930.5,692.9,404.3,3.0,-19.0,8.0,1852.0,-9854.0,12808.0,-1968.0,20.0,-5.0,-20.0,0.0,-5.0,14.0,480.0,-16181.0,-2089.0,1415.0,-5.0,-14.0,-31.0,1.0
2022-05-08 14:30:51.787331-07:00,661.9,751.3,751.3,948.3,349.9,305.9,884.8,720.8,3457.6,3464.9,1244.4,827.7,574.6,3464.9,1205.3,877.2,3449.1,3449.1,406.7,347.6,363.8,356.8,273.7,253.1,3452.8,3460.1,493.2,403.5,438.0,930.5,692.9,404.3,1.0,-10.0,0.0,1870.0,-9862.0,12797.0,-1981.0,21.0,-32.0,-27.0,1.0,15.0,4.0,487.0,-16178.0,-2107.0,1425.0,12.0,-24.0,-44.0,1.0
2022-05-08 14:30:51.875554-07:00,661.1,754.6,749.6,950.9,349.9,305.9,884.8,720.8,3472.2,3475.9,1246.2,831.9,574.6,3464.9,1205.3,877.2,3449.1,3449.1,406.7,347.6,370.8,353.7,278.3,258.4,3452.8,3460.1,493.2,403.5,436.4,928.8,693.8,411.4,6.0,-30.0,12.0,1884.0,-9872.0,12786.0,-1989.0,36.0,-17.0,-35.0,1.0,-14.0,4.0,495.0,-16176.0,-2122.0,1427.0,29.0,-17.0,-37.0,1.0
2022-05-08 14:30:52.025590-07:00,661.1,754.6,749.6,950.9,350.6,302.8,882.3,720.8,3472.2,3475.9,1246.2,831.9,578.6,3457.6,1205.3,874.7,3446.7,3443.1,402.8,349.1,370.8,353.7,278.3,258.4,3464.9,3455.2,490.1,408.2,436.4,928.8,693.8,411.4,8.0,-18.0,8.0,1904.0,-9877.0,12774.0,-2017.0,17.0,-5.0,-18.0,8.0,0.0,4.0,512.0,-16173.0,-2135.0,1434.0,15.0,-7.0,-25.0,1.0
2022-05-08 14:30:52.086093-07:00,662.7,756.3,753.8,952.6,350.6,302.8,882.3,720.8,3467.4,3467.4,1248.0,830.2,578.6,3457.6,1205.3,874.7,3446.7,3443.1,402.8,349.1,363.1,350.6,268.3,250.0,3464.9,3455.2,490.1,408.2,441.9,933.0,685.6,405.9,5.0,-43.0,9.0,1913.0,-9877.0,12770.0,-2036.0,38.0,2.0,9.0,2.0,-20.0,1.0,521.0,-16173.0,-2138.0,1429.0,34.0,-2.0,-6.0,1.0
2022-05-08 14:30:52.087966-07:00,662.7,756.3,753.8,952.6,352.2,301.3,885.6,724.1,3467.4,3467.4,1248.0,830.2,586.7,3466.1,1200.9,874.7,3449.1,3445.5,404.3,355.3,363.1,350.6,268.3,250.0,3458.9,3463.7,497.2,411.4,441.9,933.0,685.6,405.9,7.0,-16.0,3.0,1939.0,-9872.0,12765.0,-2070.0,74.0,-6.0,12.0,4.0,6.0,0.0,541.0,-16171.0,-2136.0,1445.0,43.0,-32.0,-4.0,1.0
2022-05-08 14:30:52.089254-07:00,662.7,755.4,751.3,950.9,352.2,301.3,885.6,724.1,3468.6,3467.4,1246.2,828.5,586.7,3466.1,1200.9,874.7,3449.1,3445.5,404.3,355.3,363.1,353.7,272.9,254.6,3458.9,3463.7,497.2,411.4,441.2,925.4,689.7,409.0,11.0,-12.0,8.0,1948.0,-9870.0,12762.0,-2085.0,23.0,7.0,1.0,9.0,0.0,2.0,551.0,-16170.0,-2136.0,1448.0,31.0,4.0,-3.0,1.0
2022-05-08 14:30:52.090639-07:00,666.8,755.4,751.3,950.9,356.1,300.5,878.9,722.5,3472.2,3467.4,1246.2,828.5,581.8,3464.9,1205.3,878.9,3445.5,3452.8,405.9,346.8,363.1,353.7,272.9,253.8,3457.6,3463.7,486.1,408.2,441.2,925.4,689.7,402.8,-8.0,-24.0,7.0,1963.0,-9868.0,12758.0,-2107.0,86.0,-13.0,-12.0,-14.0,-14.0,9.0,563.0,-16169.0,-2139.0,1451.0,47.0,-36.0,-20.0,1.0
2022-05-08 14:30:52.145624-07:00,666.8,752.9,749.6,945.8,356.1,300.5,878.9,714.2,3472.2,3464.9,1244.4,827.7,581.8,3464.9,1205.3,875.5,3441.9,3452.8,405.9,346.8,364.6,354.5,278.3,253.8,3468.6,3463.7,486.1,408.2,439.6,924.5,688.0,402.8,-2.0,-9.0,5.0,1992.0,-9864.0,12753.0,-2130.0,52.0,-27.0,3.0,-2.0,6.0,1.0,585.0,-16166.0,-2144.0,1469.0,50.0,-13.0,-6.0,1.0
2022-05-08 14:30:52.175878-07:00,666.0,752.9,749.6,945.8,356.1,302.8,877.2,714.2,3464.9,3464.9,1244.4,827.7,582.6,3464.9,1198.2,875.5,3441.9,3449.1,403.5,349.1,364.6,354.5,278.3,253.1,3468.6,3452.8,486.1,403.5,439.6,924.5,688.0,405.1,0.0,-15.0,7.0,2016.0,-9860.0,12749.0,-2151.0,86.0,0.0,10.0,3.0,8.0,1.0,612.0,-16165.0,-2142.0,1475.0,77.0,-20.0,-6.0,1.0
2022-05-08 14:30:52.626247-07:00,666.0,762.0,752.9,955.1,356.1,302.8,877.2,723.3,3464.9,3467.4,1242.6,829.4,582.6,3464.9,1198.2,876.4,3454.0,3449.1,403.5,349.1,360.0,356.1,276.7,253.1,3463.7,3452.8,486.1,403.5,432.5,930.5,692.9,405.1,5.0,-15.0,0.0,2043.0,-9853.0,12744.0,-2186.0,107.0,-9.0,-5.0,1.0,-1.0,-1.0,653.0,-16163.0,-2140.0,1483.0,91.0,-14.0,-17.0,1.0
2022-05-08 14:30:52.685654-07:00,667.6,762.0,752.9,955.1,353.7,300.5,880.6,723.3,3464.9,3467.4,1242.6,829.4,602.0,3471.0,1209.7,876.4,3454.0,3447.9,401.2,349.9,360.0,356.1,276.7,259.9,3463.7,3457.6,493.2,408.2,432.5,930.5,692.9,407.5,8.0,-28.0,3.0,2075.0,-9851.0,12734.0,-2220.0,109.0,-27.0,-11.0,8.0,-20.0,15.0,685.0,-16160.0,-2146.0,1492.0,54.0,-35.0,-24.0,1.0
2022-05-08 14:30:52.687283-07:00,667.6,757.1,744.7,951.7,353.7,300.5,880.6,718.4,3464.9,3467.4,1243.5,823.5,602.0,3471.0,1209.7,878.0,3439.5,3447.9,401.2,349.9,367.7,354.5,275.2,259.9,3457.6,3457.6,493.2,408.2,435.7,928.8,691.3,407.5,0.0,-14.0,4.0,2102.0,-9844.0,12730.0,-2250.0,35.0,5.0,14.0,3.0,-2.0,2.0,710.0,-16157.0,-2149.0,1508.0,29.0,-2.0,1.0,1.0
2022-05-08 14:30:52.715790-07:00,663.6,757.1,744.7,951.7,356.8,302.8,877.2,718.4,3468.6,3467.4,1243.5,823.5,583.5,3467.4,1198.2,878.0,3439.5,3454.0,405.1,347.6,367.7,354.5,275.2,256.1,3457.6,3455.2,486.1,405.1,435.7,928.8,691.3,408.2,-1.0,-8.0,4.0,2112.0,-9835.0,12733.0,-2262.0,39.0,7.0,16.0,0.0,-2.0,4.0,723.0,-16156.0,-2147.0,1510.0,27.0,-12.0,4.0,1.0
2022-05-08 14:30:52.717020-07:00,663.6,757.9,753.8,956.8,356.8,302.8,878.0,715.1,3468.6,3466.1,1246.2,835.2,583.5,3467.4,1198.2,877.2,3439.5,3437.0,405.1,347.6,360.7,359.2,275.2,256.1,3457.6,3466.1,486.1,405.1,442.7,928.8,686.4,408.2,1.0,-7.0,5.0,2120.0,-9832.0,12732.0,-2273.0,38.0,4.0,4.0,6.0,1.0,6.0,730.0,-16156.0,-2149.0,1512.0,12.0,1.0,-18.0,1.0
2022-05-08 14:30:52.717718-07:00,663.6,751.3,748.0,953.4,350.6,299.0,897.4,722.5,3472.2,3464.9,1253.3,834.4,582.6,3464.9,1207.1,878.0,3444.3,3445.5,405.1,347.6,362.3,354.5,278.3,256.9,3456.4,3455.2,486.1,405.9,440.4,931.3,688.9,403.5,-12.0,-9.0,-8.0,2150.0,-9834.0,12710.0,-2359.0,-18.0,-13.0,26.0,-10.0,8.0,-1.0,733.0,-16151.0,-2176.0,1518.0,-28.0,-13.0,16.0,1.0
2022-05-08 14:30:52.745572-07:00,663.6,751.3,751.3,953.4,350.6,304.3,885.6,720.0,3472.2,3464.9,1248.0,831.1,582.6,3462.5,1202.7,873.8,3445.5,3447.9,400.4,347.6,364.6,354.5,278.3,256.9,3447.9,3457.6,487.7,405.9,434.9,927.1,688.9,403.5,8.0,0.0,5.0,2161.0,-9827.0,12715.0,-2349.0,1.0,-33.0,6.0,12.0,-2.0,4.0,728.0,-16151.0,-2171.0,1527.0,11.0,-29.0,12.0,1.0
2022-05-08 14:30:52.775671-07:00,660.3,755.4,749.6,953.4,348.3,304.3,885.6,720.0,3467.4,3473.4,1258.7,831.1,579.4,3462.5,1202.7,873.8,3445.5,3447.9,400.4,344.5,364.6,358.4,275.2,253.8,3447.9,3457.6,487.7,403.5,434.9,931.3,691.3,412.9,13.0,2.0,11.0,2171.0,-9827.0,12712.0,-2355.0,54.0,11.0,-6.0,9.0,7.0,5.0,735.0,-16150.0,-2170.0,1535.0,35.0,-5.0,-8.0,1.0
2022-05-08 14:30:52.835659-07:00,660.3,755.4,749.6,954.3,348.3,305.9,882.3,716.7,3467.4,3473.4,1258.7,831.9,579.4,3468.6,1196.5,872.1,3454.0,3431.0,401.2,344.5,360.0,358.4,275.2,253.8,3460.1,3456.4,487.7,403.5,439.6,931.3,691.3,412.9,0.0,-10.0,-12.0,2179.0,-9829.0,12707.0,-2372.0,21.0,-26.0,-20.0,3.0,-9.0,0.0,752.0,-16148.0,-2176.0,1537.0,44.0,9.0,-22.0,1.0
2022-05-08 14:30:52.895616-07:00,666.8,757.1,750.5,954.3,353.7,305.9,882.3,716.7,3467.4,3467.4,1252.4,831.9,581.0,3468.6,1196.5,872.1,3454.0,3431.0,401.2,351.4,360.0,352.2,275.2,254.6,3460.1,3456.4,487.7,402.8,439.6,933.0,691.3,409.0,2.0,-14.0,7.0,2201.0,-9837.0,12695.0,-2381.0,60.0,-24.0,-20.0,2.0,-1.0,-2.0,768.0,-16145.0,-2189.0,1547.0,48.0,-29.0,-32.0,1.0
2022-05-08 14:30:52.925505-07:00,666.8,757.1,750.5,951.7,353.7,299.0,876.4,720.0,3467.4,3467.4,1252.4,831.1,581.0,3457.6,1192.0,877.2,3437.0,3428.6,402.8,351.4,364.6,352.2,275.2,254.6,3456.4,3457.6,486.1,402.8,442.7,933.0,691.3,409.0,5.0,-13.0,5.0,2224.0,-9837.0,12686.0,-2406.0,79.0,10.0,-4.0,6.0,-4.0,0.0,795.0,-16142.0,-2197.0,1554.0,73.0,-1.0,-18.0,1.0
2022-05-08 14:30:52.986268-07:00,662.7,763.7,757.9,951.7,350.6,299.0,876.4,720.0,3458.9,3464.9,1252.4,831.1,580.2,3457.6,1192.0,877.2,3437.0,3428.6,402.8,348.3,364.6,352.2,272.1,251.5,3456.4,3457.6,486.1,403.5,442.7,931.3,682.3,405.9,-12.0,-20.0,-8.0,2236.0,-9830.0,12685.0,-2429.0,25.0,-6.0,25.0,-7.0,-14.0,6.0,816.0,-16141.0,-2200.0,1553.0,56.0,21.0,6.0,1.0
2022-05-08 14:30:53.135678-07:00,662.7,763.7,757.9,950.9,350.6,302.0,873.0,722.5,3458.9,3464.9,1252.4,833.6,580.2,3469.8,1191.2,876.4,3441.9,3438.2,402.0,348.3,367.7,352.2,272.1,251.5,3468.6,3456.4,489.3,403.5,442.7,931.3,682.3,405.9,8.0,-1.0,3.0,2253.0,-9823.0,12687.0,-2430.0,23.0,-28.0,22.0,14.0,2.0,4.0,828.0,-16140.0,-2199.0,1558.0,14.0,-20.0,-2.0,1.0
2022-05-08 14:30:53.137174-07:00,662.7,751.3,766.2,954.3,347.6,302.0,873.0,722.5,3474.6,3464.9,1247.1,833.6,584.3,3469.8,1191.2,876.4,3441.9,3438.2,402.0,347.6,360.7,356.8,274.4,253.1,3468.6,3456.4,489.3,404.3,440.4,928.8,693.8,402.8,8.0,0.0,-5.0,2265.0,-9818.0,12687.0,-2440.0,45.0,-17.0,-13.0,7.0,7.0,3.0,852.0,-16138.0,-2200.0,1561.0,69.0,1.0,-11.0,1.0
2022-05-08 14:30:53.138439-07:00,662.7,751.3,766.2,954.3,350.6,304.3,877.2,715.9,3474.6,3464.9,1247.1,833.6,585.9,3483.2,1200.9,877.2,3443.1,3440.7,403.5,346.0,360.7,356.8,274.4,253.1,3462.5,3462.5,489.3,404.3,440.4,928.8,693.8,402.8,11.0,-19.0,3.0,2281.0,-9823.0,12677.0,-2455.0,60.0,-20.0,-19.0,9.0,-17.0,9.0,874.0,-16135.0,-2209.0,1563.0,48.0,4.0,-30.0,1.0
2022-05-08 14:30:53.285695-07:00,661.9,756.3,771.1,948.3,350.6,304.3,877.2,715.9,3467.4,3471.0,1243.5,835.2,585.9,3483.2,1200.9,877.2,3443.1,3440.7,403.5,346.0,363.1,356.8,272.9,255.3,3462.5,3462.5,489.3,404.3,441.2,933.0,692.9,404.3,-11.0,-25.0,10.0,2305.0,-9824.0,12669.0,-2473.0,56.0,-18.0,1.0,-5.0,-8.0,0.0,894.0,-16133.0,-2216.0,1568.0,33.0,-18.0,-14.0,1.0
2022-05-08 14:30:53.287197-07:00,661.9,756.3,771.1,948.3,350.6,303.6,879.7,720.0,3467.4,3471.0,1243.5,835.2,585.1,3467.4,1203.5,875.5,3445.5,3445.5,405.9,348.3,363.1,356.8,272.9,255.3,3457.6,3456.4,493.2,411.4,441.2,933.0,692.9,404.3,-19.0,-2.0,0.0,2320.0,-9816.0,12670.0,-2487.0,-16.0,21.0,27.0,-17.0,2.0,7.0,904.0,-16132.0,-2213.0,1572.0,10.0,12.0,16.0,1.0
2022-05-08 14:30:53.288106-07:00,657.0,752.1,771.1,951.7,350.6,303.6,879.7,720.0,3472.2,3478.3,1246.2,835.2,585.1,3467.4,1203.5,875.5,3445.5,3445.5,405.9,348.3,360.0,356.1,278.3,259.2,3457.6,3456.4,493.2,411.4,438.0,933.0,684.0,405.9,4.0,-3.0,-1.0,2320.0,-9808.0,12677.0,-2484.0,9.0,7.0,6.0,6.0,0.0,-1.0,901.0,-16133.0,-2207.0,1573.0,-6.0,-14.0,10.0,1.0
2022-05-08 14:30:53.435436-07:00,657.0,752.1,771.1,951.7,353.0,305.9,876.4,720.0,3472.2,3478.3,1246.2,835.2,584.3,3468.6,1202.7,871.3,3434.6,3445.5,399.6,348.3,360.0,356.1,278.3,259.2,3460.1,3468.6,486.1,407.5,438.0,933.0,684.0,405.9,16.0,0.0,-3.0,2320.0,-9808.0,12676.0,-2485.0,9.0,-1.0,-11.0,19.0,0.0,-3.0,901.0,-16133.0,-2207.0,1575.0,7.0,3.0,-10.0,1.0
2022-05-08 14:30:53.436842-07:00,663.6,753.8,776.9,953.4,353.0,305.9,876.4,720.0,3461.3,3467.4,1254.2,834.4,584.3,3468.6,1202.7,878.0,3443.1,3445.5,399.6,348.3,360.7,355.3,278.3,256.9,3466.1,3468.6,486.1,407.5,439.6,928.8,688.9,404.3,-4.0,-14.0,0.0,2317.0,-9814.0,12672.0,-2486.0,2.0,-10.0,-16.0,0.0,-10.0,2.0,900.0,-16132.0,-2213.0,1574.0,13.0,8.0,-15.0,1.0
2022-05-08 14:30:53.437674-07:00,668.4,753.8,776.9,953.4,355.3,304.3,873.8,720.0,3464.9,3467.4,1254.2,834.4,580.2,3471.0,1197.4,878.0,3443.1,3444.3,405.9,349.1,360.7,355.3,278.3,251.5,3466.1,3462.5,483.0,406.7,439.6,928.8,688.9,405.1,4.0,-12.0,-1.0,2322.0,-9820.0,12666.0,-2489.0,-16.0,-9.0,-6.0,6.0,-7.0,1.0,905.0,-16131.0,-2221.0,1575.0,2.0,3.0,-10.0,1.0
2022-05-08 14:30:53.525412-07:00,668.4,758.7,771.1,951.7,355.3,304.3,873.8,719.2,3464.9,3467.4,1241.7,831.1,580.2,3471.0,1197.4,874.7,3438.2,3444.3,405.9,349.1,360.7,352.2,274.4,251.5,3468.6,3462.5,483.0,406.7,437.2,933.0,687.2,405.1,7.0,-12.0,5.0,2321.0,-9820.0,12665.0,-2491.0,-22.0,-1.0,11.0,9.0,-5.0,3.0,902.0,-16131.0,-2222.0,1576.0,-14.0,-4.0,3.0,1.0
2022-05-08 14:30:53.526890-07:00,663.6,758.7,771.1,951.7,345.2,303.6,874.7,719.2,3471.0,3467.4,1241.7,831.1,582.6,3463.7,1193.8,874.7,3438.2,3449.1,405.1,349.1,360.7,352.2,274.4,258.4,3468.6,3457.6,493.2,409.8,437.2,933.0,687.2,415.3,2.0,-2.0,0.0,2320.0,-9817.0,12668.0,-2488.0,-8.0,2.0,2.0,8.0,0.0,-1.0,897.0,-16131.0,-2223.0,1576.0,1.0,0.0,10.0,1.0
2022-05-08 14:30:53.586122-07:00,663.6,755.4,778.6,951.7,345.2,303.6,874.7,715.1,3471.0,3464.9,1248.0,835.2,582.6,3463.7,1193.8,877.2,3450.4,3449.1,405.1,349.1,363.8,352.2,268.3,258.4,3451.6,3457.6,493.2,409.8,441.2,932.2,686.4,415.3,-5.0,0.0,-5.0,2317.0,-9819.0,12669.0,-2484.0,-11.0,5.0,-7.0,0.0,1.0,1.0,893.0,-16131.0,-2222.0,1576.0,-11.0,3.0,-3.0,1.0
2022-05-08 14:30:53.675295-07:00,666.0,755.4,778.6,951.7,349.1,299.0,873.8,715.1,3472.2,3464.9,1248.0,835.2,584.3,3469.8,1194.7,877.2,3450.4,3439.5,406.7,349.9,363.8,352.2,268.3,253.8,3451.6,3466.1,486.1,409.0,441.2,932.2,686.4,398.1,7.0,-4.0,0.0,2321.0,-9819.0,12668.0,-2480.0,-10.0,-25.0,-7.0,8.0,1.0,-3.0,894.0,-16131.0,-2223.0,1579.0,-10.0,-23.0,-10.0,1.0
2022-05-08 14:30:53.765238-07:00,666.0,760.4,777.8,950.0,349.1,299.0,873.8,717.5,3472.2,3469.8,1244.4,831.1,584.3,3469.8,1194.7,878.0,3443.1,3439.5,406.7,349.9,360.7,359.2,268.3,253.8,3457.6,3466.1,486.1,409.0,442.7,934.7,684.0,398.1,3.0,-13.0,13.0,2326.0,-9819.0,12667.0,-2479.0,24.0,7.0,10.0,0.0,-6.0,3.0,895.0,-16131.0,-2223.0,1580.0,12.0,0.0,-1.0,1.0
2022-05-08 14:30:53.766378-07:00,666.8,756.3,777.8,950.0,351.4,301.3,878.9,717.5,3472.2,3464.9,1244.4,831.1,581.0,3468.6,1197.4,878.0,3443.1,3444.3,407.5,345.2,360.7,359.2,275.2,253.8,3457.6,3463.7,489.3,405.9,442.7,934.7,686.4,411.4,-7.0,-13.0,-2.0,2321.0,-9815.0,12670.0,-2487.0,-2.0,27.0,8.0,-8.0,-11.0,8.0,895.0,-16131.0,-2223.0,1577.0,7.0,23.0,9.0,1.0
2022-05-08 14:30:53.825592-07:00,666.8,756.3,777.8,950.0,351.4,301.3,874.7,714.2,3472.2,3464.9,1246.2,833.6,581.0,3468.6,1200.0,878.9,3443.1,3437.0,407.5,345.2,363.8,356.8,275.2,253.8,3467.4,3466.1,489.3,405.9,440.4,937.3,686.4,411.4,-1.0,-7.0,-7.0,2326.0,-9811.0,12671.0,-2493.0,12.0,-33.0,15.0,1.0,0.0,0.0,896.0,-16131.0,-2223.0,1579.0,7.0,-20.0,-3.0,1.0
2022-05-08 14:30:53.826750-07:00,662.7,758.7,777.8,950.0,349.1,299.0,874.7,714.2,3468.6,3466.1,1246.2,833.6,580.2,3468.6,1200.0,878.9,3443.1,3437.0,404.3,348.3,363.8,356.8,270.6,253.8,3467.4,3466.1,489.3,405.9,440.4,937.3,690.5,402.0,1.0,15.0,2.0,2333.0,-9809.0,12671.0,-2492.0,1.0,23.0,-2.0,5.0,21.0,-3.0,896.0,-16130.0,-2223.0,1584.0,3.0,-4.0,-5.0,1.0
2022-05-08 14:30:53.915586-07:00,662.7,758.7,779.4,951.7,349.1,299.0,876.4,720.8,3468.6,3466.1,1251.5,832.7,580.2,3468.6,1198.2,877.2,3443.1,3449.1,404.3,348.3,360.7,355.3,270.6,253.8,3455.2,3464.9,489.3,405.9,442.7,932.2,690.5,402.0,-9.0,-18.0,-5.0,2325.0,-9808.0,12672.0,-2498.0,32.0,-5.0,-13.0,-1.0,-15.0,2.0,903.0,-16130.0,-2223.0,1579.0,11.0,9.0,-14.0,1.0
2022-05-08 14:30:53.975525-07:00,673.3,758.7,779.4,951.7,352.2,301.3,876.4,720.8,3466.1,3469.8,1251.5,832.7,580.2,3471.0,1198.2,877.2,3443.1,3449.1,399.6,347.6,360.7,355.3,275.2,255.3,3455.2,3464.9,483.7,406.7,442.7,932.2,687.2,408.2,3.0,-8.0,1.0,2338.0,-9810.0,12668.0,-2501.0,-7.0,-21.0,-7.0,4.0,-1.0,-2.0,909.0,-16128.0,-2229.0,1585.0,5.0,-13.0,-10.0,1.0
2022-05-08 14:30:53.976705-07:00,673.3,758.7,777.8,956.0,352.2,301.3,883.1,717.5,3466.1,3469.8,1245.3,828.5,580.2,3471.0,1198.2,872.1,3439.5,3450.4,399.6,347.6,362.3,354.5,275.2,255.3,3466.1,3458.9,483.7,406.7,434.1,929.6,687.2,408.2,9.0,-11.0,6.0,2343.0,-9809.0,12667.0,-2506.0,29.0,10.0,-3.0,10.0,-9.0,3.0,913.0,-16128.0,-2230.0,1587.0,10.0,-6.0,-10.0,1.0
2022-05-08 14:30:54.095751-07:00,659.5,755.4,779.4,956.0,352.2,303.6,883.1,717.5,3467.4,3472.2,1248.8,828.5,579.4,3468.6,1198.2,872.1,3439.5,3450.4,401.2,345.2,362.3,356.1,271.4,253.1,3466.1,3458.9,486.1,408.2,434.1,932.2,688.0,402.8,2.0,-21.0,-2.0,2339.0,-9809.0,12667.0,-2507.0,-9.0,-10.0,6.0,-3.0,-25.0,-1.0,916.0,-16128.0,-2230.0,1583.0,-2.0,1.0,6.0,1.0
2022-05-08 14:30:54.096939-07:00,659.5,755.4,779.4,953.4,352.2,303.6,878.0,715.1,3467.4,3472.2,1248.8,830.2,579.4,3471.0,1194.7,874.7,3439.5,3438.2,405.9,345.2,365.4,356.1,271.4,253.1,3452.8,3458.9,485.3,408.2,438.8,932.2,688.0,402.8,14.0,4.0,10.0,2341.0,-9805.0,12669.0,-2510.0,-1.0,29.0,7.0,14.0,3.0,0.0,913.0,-16128.0,-2230.0,1585.0,-10.0,1.0,7.0,1.0
2022-05-08 14:30:54.125636-07:00,664.4,751.3,781.9,953.4,346.8,303.6,878.0,715.1,3467.4,3467.4,1248.8,830.2,579.4,3471.0,1194.7,874.7,3439.5,3438.2,405.9,346.0,365.4,358.4,273.7,256.1,3452.8,3458.9,485.3,404.3,438.8,931.3,684.0,403.5,-13.0,-6.0,-21.0,2325.0,-9805.0,12672.0,-2512.0,-14.0,4.0,-2.0,-7.0,0.0,-5.0,908.0,-16129.0,-2230.0,1577.0,-5.0,19.0,-8.0,1.0
2022-05-08 14:30:54.245821-07:00,664.4,751.3,781.9,953.4,346.8,301.3,876.4,720.0,3467.4,3467.4,1248.8,835.2,579.4,3456.4,1196.5,874.7,3441.9,3438.2,405.1,346.0,365.4,358.4,273.7,256.1,3460.1,3456.4,490.1,404.3,432.5,931.3,684.0,403.5,-6.0,4.0,-3.0,2333.0,-9807.0,12671.0,-2504.0,0.0,-47.0,-14.0,-6.0,1.0,-2.0,907.0,-16128.0,-2238.0,1583.0,0.0,-18.0,-20.0,1.0
2022-05-08 14:30:54.247535-07:00,665.2,754.6,776.1,953.4,351.4,301.3,876.4,720.0,3467.4,3468.6,1242.6,835.2,577.0,3456.4,1196.5,874.7,3441.9,3438.2,405.1,346.0,365.4,353.7,270.6,256.1,3460.1,3456.4,490.1,403.5,432.5,929.6,689.7,405.9,8.0,-7.0,12.0,2339.0,-9812.0,12666.0,-2500.0,1.0,11.0,-9.0,11.0,-2.0,0.0,914.0,-16126.0,-2243.0,1584.0,29.0,23.0,-10.0,1.0
2022-05-08 14:30:54.275640-07:00,665.2,754.6,776.1,945.8,351.4,305.9,873.8,719.2,3467.4,3468.6,1242.6,829.4,577.0,3478.3,1189.4,869.6,3449.1,3435.8,411.4,346.0,366.9,353.7,270.6,256.1,3454.0,3462.5,484.5,403.5,438.8,929.6,689.7,405.9,-1.0,-14.0,-1.0,2337.0,-9813.0,12665.0,-2504.0,-3.0,-6.0,-8.0,9.0,-6.0,3.0,915.0,-16126.0,-2246.0,1582.0,-21.0,-4.0,-9.0,1.0
2022-05-08 14:30:54.335726-07:00,662.7,756.3,778.6,945.8,350.6,305.9,873.8,719.2,3464.9,3469.8,1240.8,829.4,575.4,3478.3,1189.4,869.6,3449.1,3435.8,411.4,344.5,366.9,356.8,268.3,259.9,3454.0,3462.5,484.5,407.5,438.8,929.6,691.3,402.0,-4.0,-5.0,6.0,2336.0,-9813.0,12666.0,-2501.0,-6.0,-8.0,-2.0,0.0,4.0,0.0,914.0,-16126.0,-2247.0,1583.0,-2.0,-3.0,-7.0,1.0
2022-05-08 14:30:54.396237-07:00,662.7,756.3,778.6,945.8,348.3,303.6,872.1,717.5,3464.9,3469.8,1240.8,831.9,584.3,3467.4,1193.8,879.7,3449.1,3444.3,404.3,349.1,357.6,356.8,268.3,259.9,3461.3,3473.4,483.0,405.9,439.6,929.6,691.3,402.0,8.0,0.0,0.0,2335.0,-9813.0,12666.0,-2503.0,7.0,11.0,-4.0,14.0,7.0,1.0,915.0,-16126.0,-2247.0,1583.0,7.0,4.0,-6.0,1.0
2022-05-08 14:30:54.425956-07:00,664.4,752.1,769.5,949.2,348.3,303.6,872.1,717.5,3467.4,3469.8,1238.2,829.4,584.3,3467.4,1193.8,879.7,3449.1,3444.3,404.3,349.1,363.8,354.5,275.2,256.9,3461.3,3473.4,483.0,405.9,442.7,927.9,688.0,402.8,-4.0,-12.0,-14.0,2331.0,-9811.0,12666.0,-2512.0,8.0,12.0,-4.0,-2.0,-11.0,0.0,920.0,-16125.0,-2248.0,1582.0,-5.0,-10.0,-11.0,1.0
2022-05-08 14:30:54.546273-07:00,664.4,752.1,769.5,949.2,348.3,305.9,876.4,715.1,3467.4,3469.8,1238.2,829.4,581.8,3467.4,1195.6,876.4,3440.7,3447.9,403.5,347.6,363.8,354.5,275.2,256.9,3452.8,3461.3,484.5,406.7,442.7,927.9,688.0,402.8,6.0,-4.0,17.0,2337.0,-9813.0,12665.0,-2506.0,-11.0,-25.0,5.0,-2.0,-10.0,7.0,920.0,-16125.0,-2251.0,1585.0,-6.0,-9.0,-6.0,1.0
2022-05-08 14:30:54.547236-07:00,670.9,756.3,777.8,953.4,348.3,305.9,876.4,715.1,3478.3,3467.4,1271.2,832.7,581.8,3467.4,1195.6,876.4,3440.7,3447.9,403.5,347.6,366.2,351.4,275.2,258.4,3452.8,3461.3,484.5,406.7,438.8,928.8,692.1,409.0,-3.0,0.0,8.0,2333.0,-9814.0,12664.0,-2509.0,-7.0,29.0,-7.0,0.0,-15.0,8.0,923.0,-16125.0,-2251.0,1582.0,-15.0,17.0,-2.0,1.0
2022-05-08 14:30:54.575654-07:00,670.9,756.3,777.8,953.4,350.6,299.7,880.6,716.7,3478.3,3467.4,1271.2,832.7,576.2,3457.6,1188.5,874.7,3443.1,3446.7,405.1,347.6,366.2,351.4,275.2,258.4,3461.3,3468.6,486.9,409.8,438.8,928.8,692.1,409.0,5.0,-26.0,-20.0,2317.0,-9815.0,12666.0,-2514.0,-21.0,34.0,-2.0,11.0,-21.0,-8.0,927.0,-16126.0,-2250.0,1570.0,-9.0,-7.0,-6.0,1.0
2022-05-08 14:30:54.636311-07:00,659.5,753.8,778.6,955.1,350.6,299.7,880.6,716.7,3481.9,3473.4,1247.1,831.9,576.2,3457.6,1188.5,874.7,3443.1,3446.7,405.1,347.6,360.7,353.0,275.2,257.6,3461.3,3468.6,486.9,409.8,435.7,939.0,688.0,404.3,17.0,-8.0,10.0,2322.0,-9817.0,12664.0,-2511.0,-11.0,-36.0,3.0,20.0,-7.0,1.0,924.0,-16125.0,-2251.0,1575.0,-12.0,-12.0,-5.0,1.0
2022-05-08 14:30:54.695981-07:00,661.1,753.8,778.6,955.1,350.6,299.0,877.2,720.8,3471.0,3473.4,1247.1,831.9,581.8,3468.6,1198.2,879.7,3446.7,3446.7,405.1,346.0,360.7,353.0,275.2,258.4,3463.7,3468.6,482.2,404.3,435.7,939.0,688.0,402.8,-9.0,-13.0,-4.0,2325.0,-9816.0,12663.0,-2517.0,20.0,11.0,7.0,-3.0,-11.0,10.0,923.0,-16125.0,-2252.0,1579.0,-23.0,-31.0,-1.0,1.0
2022-05-08 14:30:54.726032-07:00,661.1,758.7,772.8,954.3,350.6,299.0,877.2,720.0,3471.0,3464.9,1238.2,828.5,581.8,3468.6,1198.2,873.8,3451.6,3446.7,405.1,346.0,354.5,351.4,275.2,258.4,3468.6,3468.6,482.2,404.3,443.5,927.1,692.9,402.8,-4.0,-46.0,13.0,2341.0,-9806.0,12664.0,-2533.0,104.0,16.0,40.0,-2.0,-27.0,22.0,944.0,-16123.0,-2248.0,1594.0,280.0,-62.0,12.0,1.0
2022-05-08 14:30:54.785959-07:00,662.7,758.7,772.8,954.3,351.4,300.5,877.2,720.0,3464.9,3464.9,1238.2,828.5,578.6,3471.0,1187.6,873.8,3451.6,3443.1,401.2,349.1,354.5,351.4,275.2,256.9,3468.6,3464.9,486.1,408.2,443.5,927.1,692.9,404.3,-13.0,41.0,-29.0,2481.0,-9741.0,12652.0,-2709.0,808.0,-4.0,109.0,-2.0,23.0,-2.0,1167.0,-16101.0,-2237.0,1683.0,790.0,-178.0,-67.0,1.0
2022-05-08 14:30:54.815785-07:00,662.7,752.9,774.5,956.8,351.4,300.5,877.2,720.0,3464.9,3462.5,1245.3,840.3,578.6,3471.0,1187.6,875.5,3438.2,3443.1,401.2,349.1,360.0,353.0,275.2,256.9,3456.4,3464.9,486.1,408.2,436.4,925.4,685.6,404.3,-41.0,-42.0,30.0,2755.0,-9664.0,12586.0,-3006.0,1111.0,-110.0,25.0,-48.0,-37.0,30.0,1554.0,-16052.0,-2245.0,1816.0,1397.0,-248.0,-156.0,1.0
2022-05-08 14:30:54.876473-07:00,667.6,752.9,774.5,956.8,350.6,299.0,871.3,720.0,3466.1,3462.5,1245.3,840.3,581.8,3467.4,1190.3,875.5,3438.2,3437.0,409.0,349.9,360.0,353.0,275.2,253.8,3456.4,3452.8,486.9,404.3,436.4,925.4,685.6,408.2,-9.0,3.0,-67.0,3171.0,-9550.0,12453.0,-3479.0,1532.0,-84.0,28.0,-3.0,42.0,-54.0,2135.0,-15960.0,-2267.0,2006.0,1472.0,-219.0,-155.0,1.0
2022-05-08 14:30:55.175642-07:00,667.6,752.1,778.6,951.7,350.6,299.0,871.3,711.0,3466.1,3462.5,1246.2,831.1,581.8,3467.4,1190.3,876.4,3445.5,3437.0,409.0,349.9,360.7,351.4,272.9,253.8,3445.5,3452.8,486.9,404.3,441.2,929.6,692.9,408.2,41.0,-75.0,-1.0,3573.0,-9438.0,12308.0,-3888.0,1399.0,-262.0,11.0,23.0,-49.0,4.0,2675.0,-15848.0,-2292.0,2204.0,1272.0,-389.0,-213.0,1.0
2022-05-08 14:30:55.178221-07:00,661.1,752.1,778.6,951.7,349.1,300.5,874.7,711.0,3460.1,3462.5,1246.2,831.1,575.4,3463.7,1198.2,876.4,3445.5,3444.3,405.9,346.0,360.7,351.4,272.9,253.8,3445.5,3455.2,486.1,408.2,441.2,929.6,692.9,405.9,4.0,27.0,-56.0,4104.0,-9279.0,12103.0,-4360.0,1959.0,-338.0,100.0,16.0,13.0,-17.0,3346.0,-15674.0,-2326.0,2481.0,1812.0,-498.0,-244.0,1.0
2022-05-08 14:30:55.179023-07:00,661.1,752.9,771.1,952.6,349.1,300.5,874.7,712.6,3460.1,3463.7,1241.7,826.9,575.4,3463.7,1208.9,871.3,3447.9,3444.3,405.9,346.0,364.6,355.3,274.4,253.8,3460.1,3464.9,486.1,408.2,441.9,933.0,689.7,405.9,10.0,-43.0,38.0,4633.0,-9129.0,11876.0,-4754.0,1311.0,-444.0,18.0,13.0,-30.0,20.0,3904.0,-15497.0,-2368.0,2727.0,1263.0,-376.0,-204.0,1.0
2022-05-08 14:30:55.205739-07:00,662.7,755.4,771.1,952.6,351.4,302.0,874.7,712.6,3457.6,3464.9,1241.7,826.9,581.8,3467.4,1208.9,871.3,3447.9,3444.3,403.5,347.6,364.6,355.3,271.4,253.1,3460.1,3464.9,493.2,402.8,441.9,933.0,687.2,402.8,-31.0,-84.0,23.0,5164.0,-8923.0,11624.0,-5201.0,2262.0,-228.0,148.0,-36.0,-39.0,23.0,4646.0,-15243.0,-2364.0,2987.0,2410.0,-428.0,-229.0,1.0
2022-05-08 14:30:55.207345-07:00,662.7,755.4,772.0,954.3,351.4,302.0,878.9,719.2,3457.6,3464.9,1241.7,831.9,581.8,3467.4,1194.7,882.3,3444.3,3449.1,403.5,347.6,365.4,355.3,271.4,253.1,3466.1,3458.9,493.2,402.8,440.4,925.4,687.2,402.8,-33.0,34.0,-23.0,5796.0,-8565.0,11293.0,-5826.0,1738.0,-269.0,138.0,-22.0,58.0,-15.0,5437.0,-14927.0,-2348.0,3246.0,1506.0,-263.0,-146.0,1.0
2022-05-08 14:30:55.325644-07:00,664.4,755.4,776.9,956.8,352.2,302.8,881.4,716.7,3460.1,3468.6,1239.9,829.4,579.4,3466.1,1192.0,876.4,3445.5,3439.5,401.2,349.9,360.0,355.3,274.4,256.9,3462.5,3468.6,486.1,405.9,438.8,926.2,687.2,399.6,-3.0,125.0,-93.0,6925.0,-7809.0,10576.0,-6902.0,2575.0,-201.0,239.0,31.0,175.0,-112.0,7108.0,-14101.0,-2246.0,3747.0,2196.0,-425.0,-258.0,1.0
2022-05-08 14:30:55.326814-07:00,663.6,751.3,776.9,956.8,352.2,305.9,881.4,716.7,3461.3,3462.5,1239.9,829.4,577.0,3463.7,1192.0,876.4,3445.5,3439.5,409.8,347.6,360.0,355.3,268.3,257.6,3462.5,3468.6,486.9,402.8,438.8,926.2,689.7,398.1,11.0,-101.0,15.0,7344.0,-7491.0,10249.0,-7304.0,1500.0,-154.0,113.0,17.0,-42.0,0.0,7718.0,-13737.0,-2197.0,3916.0,1628.0,-298.0,-172.0,1.0
2022-05-08 14:30:55.327770-07:00,663.6,751.3,771.1,950.0,352.2,304.3,875.5,719.2,3461.3,3462.5,1237.3,831.9,577.0,3473.4,1192.9,874.7,3440.7,3444.3,406.7,347.6,359.2,356.1,268.3,257.6,3456.4,3455.2,489.3,402.8,439.6,929.6,689.7,398.1,-13.0,32.0,-48.0,7818.0,-7042.0,9862.0,-7777.0,2370.0,-133.0,296.0,-9.0,27.0,21.0,8486.0,-13227.0,-2109.0,4125.0,2270.0,-383.0,-230.0,1.0
2022-05-08 14:30:55.385744-07:00,664.4,752.9,775.3,950.0,355.3,304.3,875.5,719.2,3463.7,3466.1,1223.9,831.9,588.3,3473.4,1192.9,874.7,3440.7,3444.3,406.7,349.1,359.2,353.7,273.7,250.0,3456.4,3455.2,489.3,406.7,439.6,930.5,698.7,408.2,-21.0,-2.0,-9.0,8290.0,-6640.0,9415.0,-8185.0,1538.0,-433.0,56.0,-21.0,8.0,-6.0,9104.0,-12758.0,-2071.0,4300.0,1368.0,-380.0,-228.0,1.0
2022-05-08 14:30:55.415773-07:00,664.4,752.9,775.3,948.3,355.3,302.0,875.5,717.5,3463.7,3466.1,1223.9,824.4,588.3,3478.3,1189.4,877.2,3446.7,3438.2,405.9,349.1,363.8,353.7,273.7,250.0,3457.6,3463.7,487.7,406.7,434.9,930.5,698.7,408.2,-13.0,-112.0,13.0,8687.0,-6365.0,8944.0,-8512.0,2252.0,-440.0,69.0,-13.0,-96.0,14.0,9734.0,-12235.0,-2021.0,4462.0,2433.0,-521.0,-319.0,1.0
2022-05-08 14:30:55.505587-07:00,666.0,754.6,775.3,948.3,353.7,302.0,875.5,717.5,3463.7,3473.4,1217.7,824.4,579.4,3478.3,1189.4,877.2,3446.7,3438.2,405.9,346.8,363.8,354.5,267.6,261.4,3457.6,3463.7,487.7,408.2,434.9,936.4,683.1,406.7,-2.0,76.0,-70.0,9259.0,-5786.0,8252.0,-9007.0,2384.0,-456.0,187.0,6.0,69.0,-54.0,10499.0,-11518.0,-1942.0,4667.0,1928.0,-398.0,-211.0,1.0
2022-05-08 14:30:55.595758-07:00,666.0,754.6,775.3,955.1,353.7,299.0,879.7,711.8,3463.7,3473.4,1217.7,826.9,579.4,3463.7,1185.9,878.9,3447.9,3446.7,406.7,346.8,360.0,354.5,267.6,261.4,3458.9,3461.3,486.9,408.2,439.6,936.4,683.1,406.7,-10.0,-89.0,27.0,9589.0,-5477.0,7760.0,-9289.0,1468.0,-323.0,-66.0,-19.0,-50.0,-3.0,10936.0,-11055.0,-1905.0,4796.0,1481.0,-308.0,-146.0,1.0
2022-05-08 14:30:55.597074-07:00,662.7,752.9,774.5,955.1,348.3,299.0,879.7,711.8,3464.9,3462.5,1200.0,826.9,574.6,3463.7,1185.9,878.9,3447.9,3446.7,406.7,348.3,360.0,356.8,278.3,256.9,3458.9,3461.3,486.9,407.5,439.6,933.0,692.9,406.7,-18.0,69.0,-73.0,9925.0,-5027.0,7174.0,-9654.0,2298.0,-372.0,30.0,-29.0,41.0,0.0,11484.0,-10427.0,-1835.0,4945.0,1940.0,-464.0,-217.0,1.0
2022-05-08 14:30:55.655864-07:00,662.7,752.9,774.5,950.9,348.3,302.0,875.5,714.2,3464.9,3462.5,1200.0,826.0,574.6,3474.6,1180.6,873.0,3449.1,3443.1,405.9,348.3,361.5,356.8,278.3,256.9,3462.5,3457.6,483.0,407.5,442.7,933.0,692.9,406.7,0.0,-87.0,0.0,10177.0,-4748.0,6643.0,-9909.0,1035.0,-403.0,-199.0,5.0,25.0,-5.0,11815.0,-10004.0,-1815.0,5048.0,879.0,-291.0,-91.0,1.0
2022-05-08 14:30:55.685555-07:00,662.7,757.9,777.8,954.3,353.7,302.0,875.5,714.2,3466.1,3462.5,1181.5,826.9,575.4,3474.6,1180.6,873.0,3449.1,3443.1,405.9,349.9,360.7,355.3,268.3,256.9,3462.5,3457.6,483.0,411.4,439.6,934.7,689.7,408.2,-53.0,-78.0,-41.0,10367.0,-4466.0,6165.0,-10150.0,1959.0,-286.0,-35.0,-27.0,-34.0,25.0,12078.0,-9624.0,-1805.0,5165.0,1880.0,-598.0,-151.0,1.0
2022-05-08 14:30:55.775635-07:00,662.7,757.9,777.8,954.3,360.7,299.0,867.9,710.1,3466.1,3462.5,1181.5,826.9,581.0,3473.4,1173.5,871.3,3446.7,3455.2,411.4,346.8,360.7,355.3,268.3,256.9,3452.8,3463.7,476.6,405.9,439.6,934.7,689.7,408.2,18.0,23.0,-60.0,10650.0,-4055.0,5544.0,-10384.0,1544.0,-463.0,-33.0,1.0,20.0,-56.0,12481.0,-8983.0,-1786.0,5364.0,1291.0,-600.0,-34.0,1.0
2022-05-08 14:30:55.778131-07:00,662.7,764.5,773.6,955.1,360.7,299.0,867.9,710.1,3463.7,3462.5,1166.5,819.4,581.0,3473.4,1173.5,871.3,3446.7,3455.2,411.4,346.8,360.7,352.2,272.9,253.1,3452.8,3463.7,476.6,405.9,440.4,933.9,692.1,406.7,16.0,-34.0,-60.0,10787.0,-3763.0,4966.0,-10641.0,1823.0,-423.0,-431.0,8.0,-51.0,-48.0,12774.0,-8438.0,-1814.0,5547.0,1635.0,-721.0,-199.0,1.0
2022-05-08 14:30:55.835844-07:00,662.7,764.5,773.6,955.1,353.0,302.8,871.3,714.2,3463.7,3462.5,1166.5,819.4,580.2,3471.0,1167.4,873.8,3438.2,3447.9,412.9,349.9,360.7,352.2,272.9,253.1,3456.4,3461.3,490.9,409.8,440.4,933.9,692.1,406.7,-1.0,-6.0,-79.0,10905.0,-3424.0,4205.0,-10959.0,1768.0,-753.0,-346.0,-21.0,49.0,-23.0,13131.0,-7772.0,-1875.0,5666.0,1383.0,-570.0,-220.0,1.0
2022-05-08 14:30:55.925684-07:00,666.8,757.9,775.3,954.3,353.0,302.8,871.3,714.2,3464.9,3473.4,1154.2,826.0,580.2,3471.0,1167.4,873.8,3438.2,3447.9,412.9,349.9,362.3,353.7,271.4,258.4,3456.4,3461.3,490.9,409.8,442.7,932.2,688.9,406.7,53.0,-107.0,1.0,11025.0,-3255.0,3560.0,-11118.0,1251.0,-614.0,-304.0,-3.0,-82.0,-46.0,13373.0,-7253.0,-1924.0,5769.0,1068.0,-526.0,-182.0,1.0
2022-05-08 14:30:55.927013-07:00,666.8,757.9,775.3,954.3,352.2,305.9,881.4,725.8,3464.9,3473.4,1154.2,826.0,577.0,3467.4,1156.8,873.8,3441.9,3443.1,408.2,353.0,362.3,353.7,271.4,258.4,3467.4,3468.6,489.3,404.3,442.7,932.2,688.9,406.7,52.0,-130.0,11.0,11084.0,-2987.0,3024.0,-11293.0,1471.0,-194.0,-242.0,8.0,-102.0,-60.0,13587.0,-6746.0,-1971.0,5868.0,1334.0,-560.0,-154.0,1.0
2022-05-08 14:30:55.985815-07:00,675.0,763.7,769.5,954.3,352.2,305.9,881.4,787.7,3469.8,3475.9,1154.2,828.5,577.0,3467.4,1156.8,867.9,3443.1,3443.1,408.2,353.0,359.2,354.5,278.3,256.9,3457.6,3468.6,489.3,404.3,443.5,939.8,692.1,405.9,-44.0,35.0,-45.0,11103.0,-2440.0,2442.0,-11544.0,2168.0,174.0,-471.0,-7.0,63.0,-12.0,13850.0,-6105.0,-1963.0,5958.0,1560.0,-488.0,-405.0,1.0
2022-05-08 14:30:56.045722-07:00,681.5,763.7,769.5,954.3,354.5,303.6,936.4,787.7,3463.7,3475.9,1154.2,828.5,575.4,3467.4,1157.7,867.9,3443.1,3445.5,403.5,352.2,359.2,354.5,278.3,256.9,3457.6,3464.9,485.3,406.7,443.5,939.8,692.1,412.1,-31.0,17.0,0.0,11083.0,-2014.0,2125.0,-11706.0,506.0,328.0,-99.0,-13.0,57.0,24.0,14013.0,-5690.0,-1954.0,5990.0,174.0,-110.0,-64.0,1.0
2022-05-08 14:30:56.075445-07:00,681.5,781.9,767.8,949.2,354.5,303.6,936.4,831.1,3463.7,3473.4,1133.1,825.2,575.4,3467.4,1157.7,875.5,3438.2,3445.5,403.5,352.2,360.7,364.6,273.7,256.9,3462.5,3464.9,485.3,406.7,440.4,934.7,690.5,412.1,-57.0,24.0,-40.0,11023.0,-1781.0,2087.0,-11806.0,710.0,364.0,-337.0,7.0,73.0,50.0,14069.0,-5539.0,-1959.0,5998.0,629.0,-170.0,-134.0,1.0
2022-05-08 14:30:56.135306-07:00,684.8,781.9,767.8,949.2,348.3,305.9,967.9,831.1,3478.3,3473.4,1133.1,825.2,572.2,3467.4,1151.5,875.5,3438.2,3449.1,402.8,352.2,360.7,364.6,273.7,253.8,3462.5,3457.6,489.3,407.5,440.4,934.7,690.5,411.4,-18.0,-4.0,-72.0,10964.0,-1582.0,1954.0,-11912.0,198.0,-1.0,-171.0,-11.0,0.0,5.0,14137.0,-5412.0,-1973.0,5951.0,49.0,-15.0,-175.0,1.0
2022-05-08 14:30:56.195612-07:00,684.8,801.0,769.5,956.8,348.3,305.9,967.9,844.4,3478.3,3464.9,1119.1,817.7,572.2,3467.4,1151.5,873.8,3447.9,3449.1,402.8,352.2,356.1,353.7,275.2,253.8,3469.8,3457.6,489.3,407.5,437.2,932.2,694.6,411.4,-10.0,-57.0,-50.0,10880.0,-1641.0,1881.0,-11993.0,113.0,-205.0,-382.0,-14.0,32.0,-11.0,14168.0,-5405.0,-2006.0,5870.0,62.0,-32.0,-263.0,1.0
2022-05-08 14:30:56.225715-07:00,682.3,801.0,769.5,956.8,350.6,298.2,990.2,844.4,3457.6,3464.9,1119.1,817.7,577.8,3464.9,1148.0,873.8,3447.9,3451.6,401.2,353.7,356.1,353.7,275.2,257.6,3469.8,3463.7,486.1,402.8,437.2,932.2,694.6,407.5,-2.0,-69.0,-28.0,10801.0,-1762.0,1822.0,-12056.0,-199.0,-293.0,-190.0,-4.0,-10.0,0.0,14187.0,-5426.0,-2064.0,5786.0,-221.0,-18.0,-180.0,1.0
2022-05-08 14:30:56.285602-07:00,682.3,813.5,767.8,945.8,350.6,298.2,984.2,833.6,3457.6,3464.9,1109.5,821.0,577.8,3464.9,1142.7,874.7,3454.0,3440.7,401.2,353.7,361.5,355.3,271.4,257.6,3461.3,3458.9,486.1,402.8,440.4,932.2,694.6,407.5,12.0,-155.0,27.0,10770.0,-1935.0,1831.0,-12056.0,-187.0,-232.0,-71.0,-16.0,-71.0,-2.0,14170.0,-5512.0,-2123.0,5725.0,-131.0,-18.0,-93.0,1.0
2022-05-08 14:30:56.315809-07:00,685.6,806.9,767.8,945.8,348.3,304.3,984.2,833.6,3463.7,3473.4,1109.5,821.0,577.8,3478.3,1142.7,874.7,3454.0,3440.7,403.5,353.7,361.5,355.3,268.3,255.3,3461.3,3458.9,486.1,407.5,440.4,932.2,695.4,408.2,4.0,-82.0,-20.0,10785.0,-1972.0,1821.0,-12038.0,-102.0,18.0,128.0,-15.0,-18.0,-27.0,14170.0,-5520.0,-2132.0,5713.0,-90.0,34.0,11.0,1.0
2022-05-08 14:30:56.375679-07:00,685.6,806.9,772.0,945.8,348.3,304.3,976.5,836.9,3463.7,3473.4,1104.3,825.2,577.8,3478.3,1143.6,869.6,3440.7,3449.1,403.5,353.7,354.5,355.3,268.3,255.3,3463.7,3455.2,486.1,407.5,443.5,933.0,695.4,408.2,-5.0,-62.0,-30.0,10808.0,-2011.0,1922.0,-11995.0,-207.0,51.0,80.0,-8.0,-1.0,-7.0,14139.0,-5609.0,-2134.0,5703.0,-164.0,43.0,24.0,1.0
2022-05-08 14:30:56.435824-07:00,679.9,802.7,772.0,945.8,353.0,304.3,976.5,836.9,3467.4,3466.1,1104.3,825.2,575.4,3466.1,1143.6,869.6,3440.7,3449.1,403.5,352.2,354.5,355.3,274.4,253.8,3463.7,3455.2,486.9,405.1,443.5,933.0,697.0,406.7,-7.0,-32.0,-47.0,10822.0,-2083.0,2001.0,-11957.0,-174.0,-82.0,86.0,-7.0,4.0,-23.0,14115.0,-5671.0,-2141.0,5699.0,-183.0,14.0,19.0,1.0
2022-05-08 14:30:56.465776-07:00,679.9,802.7,772.0,951.7,353.0,304.3,972.2,826.0,3467.4,3466.1,1106.0,818.5,575.4,3466.1,1134.9,869.6,3449.1,3443.1,403.5,352.2,363.1,350.6,274.4,253.8,3462.5,3463.7,486.9,405.1,442.7,933.0,697.0,406.7,0.0,-26.0,-27.0,10821.0,-2157.0,2044.0,-11938.0,-118.0,-58.0,-43.0,-4.0,-8.0,12.0,14092.0,-5732.0,-2167.0,5683.0,-115.0,-11.0,-48.0,1.0
2022-05-08 14:30:56.525429-07:00,680.7,802.7,772.0,951.7,354.5,305.1,972.2,826.0,3466.1,3468.6,1106.0,818.5,568.2,3474.6,1134.9,869.6,3449.1,3443.1,399.6,352.2,363.1,350.6,272.1,254.6,3462.5,3463.7,486.9,404.3,442.7,933.0,688.9,408.2,3.0,-30.0,-42.0,10806.0,-2223.0,2024.0,-11943.0,13.0,-173.0,-49.0,-4.0,18.0,-18.0,14095.0,-5735.0,-2193.0,5663.0,-29.0,-32.0,-70.0,1.0
2022-05-08 14:30:56.615684-07:00,680.7,802.7,770.3,960.2,354.5,305.1,972.2,827.7,3466.1,3468.6,1099.9,816.0,568.2,3474.6,1138.4,869.6,3441.9,3441.9,399.6,352.2,364.6,356.1,272.1,254.6,3464.9,3463.7,486.9,404.3,435.7,932.2,688.9,408.2,-2.0,-85.0,8.0,10785.0,-2309.0,2033.0,-11944.0,-149.0,-92.0,-71.0,-10.0,-55.0,0.0,14085.0,-5784.0,-2229.0,5624.0,-147.0,0.0,-85.0,1.0
2022-05-08 14:30:56.617083-07:00,683.1,803.5,769.5,960.2,350.6,302.8,972.2,827.7,3463.7,3468.6,1093.8,816.0,580.2,3467.4,1138.4,869.6,3441.9,3441.9,404.3,352.2,364.6,356.8,272.9,254.6,3464.9,3463.7,488.5,404.3,435.7,927.9,697.9,410.6,-2.0,-59.0,-3.0,10766.0,-2339.0,2033.0,-11955.0,-46.0,-2.0,-31.0,-9.0,-17.0,-5.0,14092.0,-5793.0,-2241.0,5593.0,-51.0,33.0,-50.0,1.0
2022-05-08 14:30:56.706359-07:00,683.1,803.5,769.5,951.7,350.6,301.3,966.2,819.4,3463.7,3468.6,1093.8,822.7,580.2,3461.3,1136.6,872.1,3444.3,3443.1,404.3,352.2,362.3,356.8,272.9,254.6,3461.3,3463.7,485.3,404.3,439.6,927.9,697.9,410.6,-8.0,-69.0,-11.0,10750.0,-2381.0,2100.0,-11950.0,-13.0,30.0,-10.0,-17.0,-15.0,0.0,14087.0,-5825.0,-2234.0,5573.0,0.0,38.0,-18.0,1.0
2022-05-08 14:30:56.735749-07:00,684.8,797.7,766.2,951.7,346.8,301.3,966.2,819.4,3469.8,3468.6,1095.6,822.7,578.6,3461.3,1136.6,872.1,3444.3,3443.1,404.3,345.2,362.3,358.4,270.6,256.1,3461.3,3463.7,485.3,404.3,439.6,935.6,689.7,409.0,-7.0,-52.0,-18.0,10748.0,-2387.0,2140.0,-11943.0,-34.0,51.0,19.0,-12.0,-16.0,-2.0,14088.0,-5834.0,-2219.0,5568.0,-25.0,41.0,3.0,1.0
2022-05-08 14:30:56.766211-07:00,684.8,797.7,766.2,953.4,346.8,302.8,967.1,822.7,3469.8,3468.6,1095.6,821.0,578.6,3468.6,1139.2,873.8,3445.5,3445.5,405.1,345.2,366.2,358.4,270.6,256.1,3461.3,3460.1,479.8,404.3,444.3,935.6,689.7,409.0,-6.0,-34.0,-40.0,10753.0,-2389.0,2175.0,-11932.0,69.0,35.0,32.0,-15.0,-2.0,-15.0,14091.0,-5830.0,-2208.0,5570.0,54.0,-9.0,3.0,1.0
2022-05-08 14:30:56.855859-07:00,680.7,800.2,764.5,953.4,353.7,302.8,967.1,822.7,3466.1,3463.7,1097.3,821.0,583.5,3468.6,1139.2,873.8,3445.5,3445.5,405.1,352.2,366.2,353.0,275.2,259.9,3461.3,3460.1,479.8,403.5,444.3,931.3,694.6,404.3,-4.0,-34.0,-28.0,10758.0,-2395.0,2179.0,-11926.0,59.0,-46.0,15.0,-16.0,-5.0,-6.0,14093.0,-5815.0,-2212.0,5578.0,45.0,-47.0,3.0,1.0
2022-05-08 14:30:56.885669-07:00,680.7,800.2,764.5,953.4,353.7,305.9,964.5,817.7,3466.1,3463.7,1097.3,818.5,583.5,3477.1,1140.1,868.8,3444.3,3450.4,411.4,352.2,360.7,353.0,275.2,259.9,3461.3,3466.1,483.7,403.5,439.6,931.3,694.6,404.3,-1.0,-25.0,-8.0,10774.0,-2405.0,2158.0,-11913.0,3.0,-58.0,52.0,-11.0,-7.0,-5.0,14093.0,-5798.0,-2222.0,5592.0,-12.0,-44.0,24.0,1.0
2022-05-08 14:30:56.916476-07:00,688.0,796.9,766.2,953.4,356.1,305.9,964.5,817.7,3464.9,3473.4,1092.1,818.5,577.0,3477.1,1140.1,868.8,3444.3,3450.4,411.4,349.9,360.7,354.5,271.4,259.9,3461.3,3466.1,483.7,406.7,439.6,931.3,692.1,407.5,2.0,-25.0,0.0,10783.0,-2403.0,2155.0,-11906.0,73.0,19.0,6.0,-4.0,-1.0,-7.0,14090.0,-5790.0,-2227.0,5605.0,73.0,-28.0,19.0,1.0
2022-05-08 14:30:57.005837-07:00,688.0,796.9,766.2,945.8,347.6,299.0,965.4,818.5,3464.9,3473.4,1092.1,821.0,576.2,3467.4,1134.0,866.3,3450.4,3447.9,405.1,348.3,357.6,354.5,271.4,259.9,3455.2,3468.6,486.1,405.9,437.2,931.3,692.1,407.5,-3.0,-11.0,-22.0,10780.0,-2405.0,2168.0,-11905.0,-131.0,3.0,5.0,-4.0,4.0,0.0,14089.0,-5789.0,-2224.0,5611.0,-124.0,40.0,16.0,1.0
2022-05-08 14:30:57.035763-07:00,682.3,797.7,767.8,953.4,347.6,299.0,965.4,818.5,3474.6,3467.4,1090.3,818.5,576.2,3467.4,1134.0,866.3,3450.4,3447.9,405.1,348.3,361.5,348.3,273.7,253.8,3455.2,3468.6,486.1,405.9,435.7,929.6,693.8,401.2,-3.0,-53.0,1.0,10773.0,-2446.0,2212.0,-11896.0,-60.0,7.0,10.0,-16.0,-21.0,-3.0,14069.0,-5844.0,-2227.0,5603.0,-36.0,6.0,18.0,1.0
2022-05-08 14:30:57.066241-07:00,682.3,797.7,767.8,953.4,353.7,302.8,956.0,821.9,3474.6,3467.4,1090.3,818.5,576.2,3464.9,1129.6,873.0,3449.1,3447.9,407.5,351.4,361.5,348.3,273.7,253.8,3461.3,3461.3,486.9,406.7,435.7,929.6,693.8,401.2,-1.0,-21.0,-16.0,10773.0,-2446.0,2231.0,-11892.0,-74.0,27.0,4.0,-6.0,-8.0,-2.0,14061.0,-5860.0,-2224.0,5608.0,-61.0,26.0,28.0,1.0
2022-05-08 14:30:57.155849-07:00,684.0,800.2,764.5,952.6,353.7,302.8,956.0,821.9,3467.4,3468.6,1090.3,817.7,576.2,3464.9,1129.6,873.0,3449.1,3447.9,407.5,351.4,357.6,356.1,272.9,258.4,3461.3,3461.3,486.9,406.7,438.0,936.4,696.2,404.3,0.0,-28.0,-26.0,10771.0,-2463.0,2269.0,-11883.0,-46.0,24.0,25.0,-15.0,-9.0,-21.0,14049.0,-5885.0,-2217.0,5612.0,-70.0,29.0,23.0,1.0
2022-05-08 14:30:57.215701-07:00,684.0,800.2,764.5,952.6,353.0,302.0,959.4,823.5,3467.4,3468.6,1090.3,817.7,573.0,3464.9,1130.5,873.8,3446.7,3444.3,405.9,345.2,357.6,356.1,272.9,258.4,3457.6,3461.3,485.3,405.9,438.0,936.4,696.2,404.3,0.0,-46.0,-16.0,10770.0,-2497.0,2318.0,-11868.0,-70.0,-9.0,31.0,-13.0,-22.0,-7.0,14032.0,-5923.0,-2218.0,5616.0,9.0,-21.0,23.0,1.0
2022-05-08 14:30:57.246381-07:00,682.3,794.4,770.3,953.4,353.0,302.0,959.4,823.5,3463.7,3469.8,1087.7,816.9,573.0,3464.9,1130.5,873.8,3446.7,3444.3,405.9,345.2,357.6,353.7,271.4,256.1,3457.6,3461.3,485.3,405.9,435.7,932.2,692.1,405.1,1.0,-3.0,-31.0,10778.0,-2500.0,2313.0,-11860.0,14.0,-24.0,20.0,-5.0,5.0,-11.0,14031.0,-5914.0,-2224.0,5624.0,-44.0,-20.0,-14.0,1.0
2022-05-08 14:30:57.305585-07:00,686.4,794.4,770.3,953.4,355.3,323.6,958.5,816.9,3469.8,3469.8,1087.7,816.9,574.6,3469.8,1125.2,875.5,3446.7,3441.9,404.3,353.7,357.6,353.7,271.4,254.6,3463.7,3457.6,479.0,404.3,435.7,932.2,692.1,406.7,4.0,-24.0,-20.0,10779.0,-2524.0,2324.0,-11852.0,-34.0,-19.0,-5.0,-3.0,-9.0,-5.0,14025.0,-5932.0,-2246.0,5613.0,-50.0,-31.0,-51.0,1.0
2022-05-08 14:30:57.307941-07:00,686.4,797.7,769.5,960.2,355.3,323.6,958.5,821.9,3469.8,3475.9,1090.3,819.4,574.6,3469.8,1125.2,875.5,3444.3,3441.9,404.3,353.7,364.6,353.0,281.3,254.6,3467.4,3457.6,479.0,404.3,441.2,925.4,692.9,406.7,-15.0,-21.0,1.0,10775.0,-2533.0,2305.0,-11858.0,66.0,-51.0,-38.0,-21.0,7.0,21.0,14035.0,-5913.0,-2264.0,5600.0,47.0,-35.0,-51.0,1.0
2022-05-08 14:30:57.395914-07:00,679.1,797.7,769.5,960.2,348.3,304.3,958.5,821.9,3460.1,3475.9,1090.3,819.4,569.8,3468.6,1138.4,875.5,3444.3,3449.1,404.3,352.2,364.6,353.0,281.3,256.9,3467.4,3457.6,485.3,402.8,441.2,925.4,692.9,404.3,-5.0,-19.0,7.0,10779.0,-2545.0,2293.0,-11854.0,2.0,-10.0,11.0,-9.0,0.0,0.0,14035.0,-5910.0,-2266.0,5604.0,5.0,9.0,-2.0,1.0
2022-05-08 14:30:57.426285-07:00,679.1,799.4,772.0,955.1,348.3,304.3,958.5,819.4,3460.1,3467.4,1088.6,818.5,569.8,3468.6,1138.4,871.3,3441.9,3449.1,404.3,352.2,362.3,357.6,274.4,256.9,3467.4,3457.6,485.3,402.8,438.8,942.4,696.2,404.3,1.0,-16.0,-10.0,10779.0,-2531.0,2302.0,-11856.0,24.0,59.0,-14.0,-1.0,-3.0,-4.0,14039.0,-5906.0,-2255.0,5602.0,26.0,21.0,-9.0,1.0
2022-05-08 14:30:57.456012-07:00,679.9,799.4,772.0,955.1,346.8,302.0,954.3,819.4,3469.8,3467.4,1088.6,818.5,575.4,3473.4,1134.0,871.3,3441.9,3443.1,408.2,348.3,362.3,357.6,274.4,257.6,3467.4,3466.1,484.5,405.1,438.8,942.4,696.2,411.4,-5.0,-19.0,-16.0,10775.0,-2526.0,2317.0,-11857.0,-6.0,-7.0,-7.0,-11.0,9.0,0.0,14040.0,-5910.0,-2246.0,5599.0,3.0,11.0,0.0,1.0
2022-05-08 14:30:57.515913-07:00,679.9,794.4,764.5,954.3,346.8,302.0,954.3,817.7,3469.8,3478.3,1091.2,812.7,575.4,3473.4,1134.0,874.7,3439.5,3443.1,408.2,348.3,360.7,356.1,272.9,257.6,3468.6,3466.1,484.5,405.1,440.4,936.4,696.2,411.4,0.0,-34.0,14.0,10779.0,-2540.0,2331.0,-11847.0,-55.0,14.0,30.0,-14.0,-15.0,0.0,14031.0,-5925.0,-2240.0,5608.0,-28.0,12.0,44.0,1.0
2022-05-08 14:30:57.575698-07:00,684.0,794.4,764.5,954.3,350.6,304.3,958.5,817.7,3467.4,3478.3,1091.2,812.7,574.6,3466.1,1127.0,874.7,3439.5,3447.9,405.9,350.6,360.7,356.1,272.9,259.9,3468.6,3468.6,483.0,404.3,440.4,936.4,696.2,404.3,3.0,-8.0,-28.0,10792.0,-2518.0,2352.0,-11836.0,36.0,65.0,59.0,4.0,10.0,-22.0,14027.0,-5919.0,-2227.0,5628.0,35.0,-11.0,40.0,1.0
2022-05-08 14:30:57.606086-07:00,684.0,788.6,766.2,953.4,350.6,304.3,945.8,816.0,3467.4,3467.4,1094.7,825.2,574.6,3466.1,1130.5,864.6,3443.1,3447.9,405.9,350.6,360.7,356.1,272.1,259.9,3468.6,3458.9,483.0,404.3,438.0,933.0,698.7,404.3,9.0,2.0,-37.0,10800.0,-2505.0,2366.0,-11829.0,-12.0,-10.0,9.0,7.0,5.0,-9.0,14025.0,-5920.0,-2232.0,5631.0,-20.0,-27.0,-19.0,1.0
2022-05-08 14:30:57.666288-07:00,682.3,799.4,766.2,953.4,348.3,302.8,945.8,816.0,3471.0,3478.3,1094.7,825.2,575.4,3464.9,1130.5,864.6,3443.1,3447.9,403.5,352.2,360.7,356.1,272.1,250.0,3468.6,3458.9,483.7,408.2,438.0,933.0,697.0,406.7,22.0,-25.0,22.0,10798.0,-2534.0,2349.0,-11828.0,-9.0,-74.0,-20.0,9.0,-17.0,9.0,14025.0,-5921.0,-2250.0,5621.0,-7.0,-17.0,-29.0,1.0
2022-05-08 14:30:57.725839-07:00,682.3,799.4,771.1,953.4,348.3,302.8,945.8,816.0,3471.0,3478.3,1084.2,818.5,575.4,3464.9,1136.6,869.6,3443.1,3444.3,403.5,352.2,363.8,356.1,272.1,250.0,3460.1,3464.9,483.7,408.2,442.7,929.6,697.0,406.7,-2.0,-11.0,14.0,10800.0,-2531.0,2350.0,-11827.0,-7.0,50.0,30.0,-20.0,-3.0,15.0,14026.0,-5924.0,-2247.0,5619.0,-19.0,28.0,24.0,1.0
2022-05-08 14:30:57.815719-07:00,683.1,792.7,771.1,953.4,352.2,305.9,945.8,816.0,3467.4,3472.2,1084.2,818.5,573.8,3463.7,1136.6,869.6,3443.1,3444.3,405.1,349.1,363.8,356.1,272.9,251.5,3460.1,3464.9,486.9,411.4,442.7,929.6,702.8,402.8,-24.0,-12.0,-15.0,10801.0,-2516.0,2367.0,-11826.0,34.0,32.0,-13.0,-34.0,-5.0,3.0,14028.0,-5921.0,-2234.0,5621.0,75.0,8.0,-8.0,1.0
2022-05-08 14:30:57.846333-07:00,683.1,792.7,772.8,951.7,352.2,305.9,945.8,814.4,3467.4,3472.2,1085.1,819.4,573.8,3463.7,1120.9,867.1,3454.0,3449.1,405.1,349.1,357.6,355.3,272.9,251.5,3472.2,3464.9,486.9,411.4,440.4,929.6,702.8,402.8,-3.0,-26.0,-11.0,10797.0,-2500.0,2342.0,-11837.0,78.0,-28.0,-32.0,-22.0,1.0,-9.0,14041.0,-5891.0,-2214.0,5628.0,72.0,-9.0,-9.0,1.0
2022-05-08 14:30:57.965745-07:00,679.9,795.2,772.8,951.7,349.9,302.8,945.8,814.4,3462.5,3468.6,1085.1,819.4,575.4,3466.1,1120.9,867.1,3454.0,3449.1,404.3,351.4,357.6,355.3,270.6,253.1,3472.2,3464.9,486.9,404.3,440.4,929.6,692.1,409.0,4.0,-32.0,-19.0,10796.0,-2495.0,2347.0,-11838.0,2.0,19.0,16.0,-3.0,-6.0,-15.0,14042.0,-5884.0,-2208.0,5635.0,15.0,-14.0,20.0,1.0
2022-05-08 14:30:57.967124-07:00,679.9,795.2,768.7,955.1,349.9,305.9,951.7,817.7,3462.5,3468.6,1082.5,817.7,575.4,3472.2,1124.4,869.6,3443.1,3445.5,403.5,351.4,354.5,353.0,270.6,253.1,3456.4,3468.6,486.9,404.3,442.7,931.3,692.1,409.0,3.0,-29.0,-13.0,10805.0,-2500.0,2359.0,-11827.0,0.0,-19.0,39.0,-2.0,-19.0,-6.0,14035.0,-5881.0,-2211.0,5654.0,16.0,-36.0,45.0,1.0
2022-05-08 14:30:57.968069-07:00,679.9,791.0,767.8,955.1,349.1,305.9,951.7,817.7,3478.3,3473.4,1082.5,817.7,576.2,3472.2,1124.4,869.6,3443.1,3445.5,403.5,349.1,354.5,352.2,268.3,256.9,3456.4,3468.6,486.9,405.9,442.7,930.5,693.8,407.5,6.0,-15.0,-1.0,10821.0,-2507.0,2351.0,-11812.0,15.0,-14.0,63.0,-4.0,-10.0,-7.0,14028.0,-5872.0,-2213.0,5680.0,0.0,-28.0,58.0,1.0
2022-05-08 14:30:58.025702-07:00,679.9,791.0,767.8,949.2,349.1,299.7,955.1,813.5,3478.3,3473.4,1082.5,816.0,576.2,3467.4,1125.2,875.5,3449.1,3447.9,404.3,349.1,360.7,352.2,268.3,256.9,3468.6,3462.5,491.7,405.9,438.8,930.5,693.8,407.5,8.0,-3.0,-27.0,10833.0,-2506.0,2369.0,-11798.0,9.0,32.0,32.0,4.0,-2.0,-13.0,14019.0,-5880.0,-2217.0,5692.0,7.0,-26.0,3.0,1.0
2022-05-08 14:30:58.085809-07:00,684.0,791.9,770.3,949.2,351.4,299.7,955.1,813.5,3462.5,3472.2,1083.4,816.0,577.8,3467.4,1125.2,875.5,3449.1,3447.9,404.3,349.9,360.7,358.4,275.2,254.6,3468.6,3462.5,491.7,402.8,438.8,925.4,701.1,405.1,7.0,0.0,-35.0,10836.0,-2516.0,2363.0,-11794.0,-35.0,-81.0,-12.0,5.0,7.0,-7.0,14018.0,-5883.0,-2247.0,5680.0,-67.0,-60.0,-65.0,1.0
2022-05-08 14:30:58.115811-07:00,684.0,791.9,770.3,947.5,351.4,304.3,956.0,804.4,3462.5,3472.2,1083.4,815.2,577.8,3467.4,1131.4,864.6,3450.4,3445.5,404.3,349.9,362.3,358.4,275.2,254.6,3457.6,3458.9,483.0,402.8,435.7,925.4,701.1,405.1,4.0,-36.0,20.0,10840.0,-2564.0,2333.0,-11786.0,1.0,-129.0,12.0,-9.0,-16.0,4.0,14014.0,-5886.0,-2285.0,5674.0,-17.0,-95.0,-22.0,1.0
2022-05-08 14:30:58.175753-07:00,681.5,796.0,764.5,947.5,348.3,304.3,956.0,804.4,3463.7,3469.8,1081.6,815.2,577.0,3467.4,1131.4,864.6,3450.4,3445.5,404.3,348.3,362.3,357.6,270.6,254.6,3457.6,3458.9,483.0,405.9,435.7,936.4,688.0,405.9,-9.0,-10.0,15.0,10859.0,-2572.0,2311.0,-11771.0,37.0,-30.0,51.0,-24.0,-3.0,10.0,14009.0,-5874.0,-2310.0,5688.0,15.0,-48.0,22.0,1.0
2022-05-08 14:30:58.235762-07:00,681.5,796.0,764.5,953.4,348.3,300.5,952.6,810.2,3463.7,3469.8,1081.6,816.9,577.0,3471.0,1128.7,867.9,3447.9,3451.6,402.8,348.3,360.0,357.6,270.6,254.6,3461.3,3457.6,479.0,405.9,438.8,936.4,688.0,405.9,-5.0,-4.0,12.0,10870.0,-2567.0,2314.0,-11762.0,-3.0,27.0,15.0,-13.0,-1.0,4.0,14003.0,-5874.0,-2305.0,5702.0,4.0,31.0,27.0,1.0
2022-05-08 14:30:58.355638-07:00,686.4,795.2,768.7,945.8,352.2,300.5,952.6,810.2,3462.5,3478.3,1077.3,820.2,573.8,3471.0,1128.7,867.9,3447.9,3451.6,402.8,355.3,362.3,355.3,269.9,254.6,3461.3,3457.6,479.0,404.3,444.3,930.5,699.5,404.3,-1.0,-1.0,-3.0,10862.0,-2552.0,2341.0,-11767.0,-36.0,84.0,-14.0,-8.0,4.0,2.0,14002.0,-5886.0,-2281.0,5703.0,-25.0,79.0,16.0,1.0
2022-05-08 14:30:58.385884-07:00,686.4,795.2,768.7,945.8,348.3,301.3,947.5,810.2,3462.5,3478.3,1077.3,820.2,589.9,3467.4,1129.6,864.6,3445.5,3445.5,408.2,347.6,362.3,355.3,269.9,254.6,3461.3,3452.8,486.9,406.7,444.3,930.5,699.5,404.3,8.0,-12.0,-16.0,10850.0,-2545.0,2375.0,-11773.0,-27.0,54.0,-27.0,0.0,-2.0,-10.0,14001.0,-5907.0,-2255.0,5695.0,3.0,57.0,5.0,1.0
2022-05-08 14:30:58.387824-07:00,682.3,793.5,767.0,951.7,348.3,301.3,947.5,810.2,3472.2,3474.6,1078.2,816.0,589.9,3467.4,1129.6,864.6,3445.5,3445.5,408.2,347.6,360.7,354.5,269.1,260.7,3461.3,3452.8,486.9,406.7,442.7,938.1,696.2,406.7,7.0,-20.0,-18.0,10840.0,-2544.0,2389.0,-11779.0,-16.0,10.0,-7.0,2.0,-8.0,-6.0,14003.0,-5913.0,-2238.0,5691.0,-7.0,23.0,23.0,1.0
2022-05-08 14:30:58.415716-07:00,682.3,793.5,767.0,951.7,352.2,304.3,947.5,818.5,3472.2,3474.6,1078.2,816.0,575.4,3469.8,1133.1,870.5,3447.9,3454.0,409.0,349.9,360.7,354.5,269.1,260.7,3468.6,3457.6,487.7,408.2,442.7,938.1,696.2,406.7,12.0,-18.0,-8.0,10839.0,-2551.0,2400.0,-11777.0,-24.0,23.0,19.0,6.0,-14.0,-10.0,13999.0,-5922.0,-2228.0,5695.0,-16.0,19.0,13.0,1.0
2022-05-08 14:30:58.476231-07:00,678.2,793.5,767.8,949.2,352.2,304.3,947.5,818.5,3468.6,3471.0,1076.4,821.0,575.4,3469.8,1133.1,870.5,3447.9,3454.0,409.0,349.9,360.7,348.3,269.9,255.3,3468.6,3457.6,487.7,408.2,440.4,932.2,697.0,410.6,12.0,-2.0,-19.0,10837.0,-2549.0,2409.0,-11776.0,28.0,18.0,-11.0,9.0,-1.0,-7.0,14001.0,-5923.0,-2228.0,5689.0,16.0,-1.0,-39.0,1.0
2022-05-08 14:30:58.565716-07:00,678.2,793.5,767.8,949.2,352.2,302.0,962.0,811.9,3468.6,3471.0,1076.4,821.0,572.2,3468.6,1134.9,873.8,3435.8,3444.3,402.0,350.6,360.7,348.3,269.9,255.3,3463.7,3457.6,483.0,402.8,440.4,932.2,697.0,410.6,-7.0,-3.0,-29.0,10835.0,-2553.0,2401.0,-11780.0,2.0,-56.0,-6.0,-11.0,5.0,3.0,14005.0,-5920.0,-2243.0,5675.0,-24.0,-37.0,-50.0,1.0
2022-05-08 14:30:58.567109-07:00,683.1,796.0,767.0,956.8,352.2,302.0,962.0,810.2,3468.6,3475.9,1079.0,818.5,572.2,3468.6,1134.9,869.6,3449.1,3444.3,402.0,350.6,357.6,352.2,271.4,250.0,3456.4,3457.6,483.0,402.8,440.4,936.4,692.9,408.2,0.0,-19.0,26.0,10841.0,-2582.0,2375.0,-11773.0,26.0,-87.0,-4.0,-4.0,-17.0,14.0,14005.0,-5915.0,-2272.0,5669.0,6.0,-59.0,-33.0,1.0
2022-05-08 14:30:58.626077-07:00,683.1,796.0,767.0,956.8,356.8,303.6,945.8,810.2,3460.1,3475.9,1079.0,818.5,572.2,3464.9,1125.2,869.6,3449.1,3443.1,402.8,349.9,357.6,352.2,271.4,254.6,3456.4,3458.9,485.3,409.0,440.4,936.4,692.9,410.6,0.0,-5.0,16.0,10845.0,-2586.0,2356.0,-11772.0,7.0,37.0,2.0,-9.0,-14.0,0.0,14008.0,-5906.0,-2280.0,5669.0,3.0,8.0,-9.0,1.0
2022-05-08 14:30:58.655874-07:00,683.1,791.0,766.2,947.5,356.8,303.6,945.8,815.2,3460.1,3469.8,1084.2,818.5,572.2,3464.9,1125.2,872.1,3449.1,3443.1,402.8,349.9,361.5,353.7,272.9,254.6,3466.1,3458.9,485.3,409.0,440.4,928.8,696.2,410.6,-2.0,3.0,-15.0,10839.0,-2569.0,2369.0,-11779.0,-21.0,39.0,-29.0,-8.0,0.0,0.0,14013.0,-5911.0,-2268.0,5656.0,-17.0,52.0,-22.0,1.0
2022-05-08 14:30:58.775601-07:00,682.3,791.0,766.2,947.5,348.3,299.0,950.0,815.2,3464.9,3469.8,1084.2,818.5,579.4,3469.8,1128.7,872.1,3449.1,3441.9,406.7,351.4,361.5,353.7,272.9,256.1,3466.1,3454.0,486.1,408.2,440.4,928.8,696.2,405.1,0.0,-23.0,2.0,10822.0,-2573.0,2386.0,-11790.0,-18.0,35.0,-22.0,-9.0,-3.0,1.0,14015.0,-5925.0,-2254.0,5642.0,-7.0,43.0,-7.0,1.0
2022-05-08 14:30:58.805899-07:00,682.3,784.4,766.2,945.8,348.3,299.0,950.0,808.5,3464.9,3472.2,1079.0,813.5,579.4,3469.8,1128.7,873.8,3440.7,3441.9,406.7,351.4,360.0,353.7,269.9,256.1,3464.9,3454.0,486.1,408.2,432.5,933.9,693.8,405.1,-2.0,-20.0,-13.0,10817.0,-2563.0,2405.0,-11793.0,30.0,48.0,20.0,-8.0,-5.0,-9.0,14016.0,-5927.0,-2237.0,5644.0,37.0,20.0,20.0,1.0
2022-05-08 14:30:58.807495-07:00,679.9,784.4,766.2,945.8,348.3,303.6,950.0,808.5,3463.7,3472.2,1079.0,813.5,571.4,3464.9,1121.7,873.8,3440.7,3450.4,407.5,351.4,360.0,353.7,269.9,254.6,3464.9,3466.1,479.0,406.7,432.5,933.9,693.8,404.3,0.0,-7.0,-27.0,10822.0,-2545.0,2414.0,-11791.0,4.0,5.0,6.0,-9.0,-5.0,-4.0,14017.0,-5923.0,-2230.0,5649.0,5.0,-1.0,-1.0,1.0
2022-05-08 14:30:58.955788-07:00,679.9,793.5,773.6,950.0,348.3,303.6,950.0,812.7,3463.7,3473.4,1086.8,817.7,571.4,3464.9,1121.7,873.0,3446.7,3450.4,407.5,351.4,357.6,351.4,271.4,254.6,3457.6,3466.1,479.0,406.7,438.0,935.6,693.8,404.3,6.0,-7.0,-20.0,10823.0,-2555.0,2406.0,-11789.0,-11.0,-55.0,-8.0,-8.0,-7.0,-12.0,14017.0,-5921.0,-2236.0,5648.0,-19.0,-25.0,-15.0,1.0
2022-05-08 14:30:59.016332-07:00,686.4,789.4,773.6,950.0,349.9,299.7,939.0,812.7,3461.3,3469.8,1086.8,817.7,575.4,3461.3,1124.4,873.0,3446.7,3445.5,402.0,346.0,357.6,351.4,272.9,253.1,3457.6,3457.6,484.5,403.5,438.0,935.6,697.9,411.4,7.0,-12.0,3.0,10823.0,-2574.0,2392.0,-11787.0,30.0,-37.0,8.0,-1.0,3.0,-4.0,14017.0,-5913.0,-2249.0,5650.0,26.0,-39.0,-7.0,1.0
2022-05-08 14:30:59.135741-07:00,686.4,789.4,762.9,950.0,349.9,299.7,946.6,820.2,3461.3,3469.8,1079.0,821.0,575.4,3461.3,1133.1,873.8,3444.3,3449.1,402.0,346.0,362.3,348.3,272.9,253.1,3461.3,3457.6,484.5,403.5,441.2,928.8,697.9,411.4,5.0,-3.0,-5.0,10832.0,-2578.0,2384.0,-11780.0,8.0,-20.0,30.0,-2.0,-2.0,-7.0,14015.0,-5910.0,-2260.0,5656.0,-4.0,-28.0,10.0,1.0
2022-05-08 14:30:59.138195-07:00,686.4,798.5,762.9,950.0,354.5,299.0,946.6,820.2,3458.9,3464.9,1079.0,821.0,575.4,3467.4,1133.1,873.8,3444.3,3449.1,398.1,345.2,362.3,348.3,273.7,254.6,3461.3,3457.6,483.7,404.3,441.2,928.8,693.8,417.6,1.0,-4.0,-6.0,10839.0,-2587.0,2376.0,-11773.0,-16.0,-55.0,-11.0,-11.0,-7.0,-4.0,14011.0,-5910.0,-2273.0,5660.0,-20.0,-32.0,-4.0,1.0
2022-05-08 14:30:59.256821-07:00,686.4,798.5,762.9,958.5,354.5,299.0,953.4,811.9,3458.9,3464.9,1072.1,817.7,575.4,3467.4,1116.5,864.6,3449.1,3438.2,398.1,345.2,360.0,358.4,273.7,254.6,3468.6,3464.9,483.7,404.3,441.9,930.5,693.8,417.6,6.0,-11.0,18.0,10838.0,-2608.0,2359.0,-11773.0,8.0,-31.0,-13.0,-10.0,-12.0,2.0,14010.0,-5906.0,-2281.0,5664.0,15.0,-10.0,6.0,1.0
2022-05-08 14:30:59.257987-07:00,676.6,791.9,762.9,958.5,352.2,301.3,953.4,811.9,3469.8,3464.9,1072.1,817.7,576.2,3462.5,1116.5,864.6,3449.1,3438.2,402.8,356.8,360.0,358.4,275.2,252.3,3468.6,3464.9,483.7,409.0,441.9,930.5,690.5,403.5,14.0,8.0,5.0,10838.0,-2606.0,2364.0,-11773.0,-43.0,50.0,14.0,9.0,-3.0,0.0,14007.0,-5914.0,-2269.0,5666.0,-34.0,50.0,29.0,1.0
2022-05-08 14:30:59.258934-07:00,676.6,791.9,770.3,952.6,352.2,301.3,942.4,806.9,3469.8,3464.9,1074.7,816.9,576.2,3462.5,1128.7,872.1,3440.7,3449.1,402.8,356.8,360.0,352.2,275.2,252.3,3461.3,3457.6,483.7,409.0,441.2,930.5,690.5,403.5,-1.0,-6.0,-21.0,10831.0,-2607.0,2397.0,-11773.0,-18.0,57.0,-16.0,-9.0,-3.0,-7.0,14002.0,-5939.0,-2253.0,5660.0,-14.0,45.0,-1.0,1.0
2022-05-08 14:30:59.285732-07:00,679.9,794.4,764.5,952.6,356.1,302.8,942.4,806.9,3472.2,3467.4,1092.1,816.9,574.6,3466.1,1128.7,872.1,3440.7,3449.1,405.1,350.6,360.0,351.4,268.3,255.3,3461.3,3457.6,483.7,409.0,441.2,935.6,694.6,407.5,0.0,-4.0,-15.0,10824.0,-2602.0,2405.0,-11778.0,-14.0,-8.0,-11.0,0.0,6.0,3.0,14005.0,-5943.0,-2248.0,5650.0,-16.0,14.0,-14.0,1.0
2022-05-08 14:30:59.287657-07:00,679.9,794.4,764.5,949.2,356.1,299.0,951.7,809.4,3472.2,3467.4,1092.1,817.7,574.6,3466.1,1126.1,869.6,3450.4,3447.9,401.2,350.6,364.6,351.4,268.3,255.3,3469.8,3464.9,480.6,409.0,439.6,935.6,694.6,407.5,-3.0,-25.0,14.0,10823.0,-2614.0,2407.0,-11776.0,5.0,5.0,21.0,-16.0,-11.0,13.0,14002.0,-5946.0,-2247.0,5654.0,11.0,-1.0,33.0,1.0
2022-05-08 14:30:59.345798-07:00,679.9,803.5,764.5,949.2,355.3,299.0,951.7,809.4,3462.5,3478.3,1069.5,817.7,577.0,3466.1,1126.1,869.6,3450.4,3447.9,401.2,348.3,364.6,360.7,269.1,254.6,3469.8,3464.9,480.6,411.4,439.6,927.1,696.2,408.2,5.0,-6.0,-10.0,10831.0,-2603.0,2414.0,-11770.0,18.0,53.0,23.0,-2.0,-5.0,-19.0,14001.0,-5941.0,-2233.0,5668.0,30.0,25.0,25.0,1.0
2022-05-08 14:30:59.405850-07:00,679.9,803.5,764.5,949.2,355.3,303.6,949.2,807.7,3462.5,3478.3,1069.5,819.4,577.0,3473.4,1127.9,873.8,3444.3,3447.9,404.3,348.3,359.2,360.7,269.1,254.6,3457.6,3451.6,481.4,411.4,438.0,927.1,696.2,408.2,5.0,0.0,-32.0,10829.0,-2589.0,2428.0,-11772.0,-47.0,10.0,-22.0,2.0,3.0,-10.0,14003.0,-5948.0,-2226.0,5658.0,-48.0,21.0,-29.0,1.0
2022-05-08 14:30:59.407391-07:00,677.4,791.9,767.0,949.2,354.5,303.6,949.2,807.7,3471.0,3464.9,1087.7,819.4,581.0,3473.4,1127.9,873.8,3444.3,3447.9,404.3,348.3,359.2,359.2,272.1,256.1,3457.6,3451.6,481.4,404.3,438.0,925.4,696.2,414.5,-2.0,-13.0,-13.0,10822.0,-2611.0,2428.0,-11773.0,20.0,-84.0,-6.0,-13.0,-3.0,2.0,14003.0,-5953.0,-2238.0,5648.0,-2.0,-56.0,-32.0,1.0
2022-05-08 14:30:59.496515-07:00,677.4,791.9,767.0,952.6,354.5,304.3,937.3,801.9,3471.0,3464.9,1087.7,817.7,581.0,3473.4,1131.4,872.1,3440.7,3433.4,402.8,348.3,360.7,359.2,272.1,256.1,3457.6,3452.8,482.2,404.3,438.8,925.4,696.2,414.5,0.0,-13.0,14.0,10832.0,-2632.0,2401.0,-11765.0,11.0,-70.0,30.0,-11.0,-10.0,9.0,14001.0,-5942.0,-2265.0,5653.0,3.0,-67.0,8.0,1.0
2022-05-08 14:30:59.497798-07:00,681.5,790.2,771.1,952.6,354.5,304.3,937.3,801.9,3468.6,3472.2,1079.0,817.7,576.2,3473.4,1131.4,872.1,3440.7,3433.4,402.8,347.6,360.7,353.7,271.4,253.8,3457.6,3452.8,482.2,409.8,438.8,925.4,699.5,414.5,1.0,-7.0,32.0,10847.0,-2637.0,2382.0,-11754.0,-1.0,4.0,47.0,-5.0,-10.0,10.0,13999.0,-5928.0,-2279.0,5668.0,5.0,4.0,57.0,1.0
2022-05-08 14:30:59.615816-07:00,681.5,790.2,771.1,951.7,353.0,300.5,945.8,810.2,3468.6,3472.2,1079.0,816.9,575.4,3468.6,1118.2,868.8,3438.2,3435.8,404.3,353.0,359.2,353.7,271.4,253.8,3457.6,3452.8,481.4,408.2,438.0,925.4,699.5,414.5,6.0,6.0,-6.0,10852.0,-2639.0,2421.0,-11741.0,-145.0,107.0,34.0,-4.0,6.0,-11.0,13983.0,-5960.0,-2259.0,5684.0,-116.0,79.0,66.0,1.0
2022-05-08 14:30:59.617741-07:00,679.1,784.4,766.2,951.7,353.0,300.5,945.8,810.2,3469.8,3467.4,1072.9,821.0,575.4,3468.6,1118.2,868.8,3438.2,3435.8,404.3,353.0,362.3,355.3,271.4,255.3,3457.6,3452.8,481.4,408.2,442.7,934.7,696.2,404.3,9.0,-2.0,-12.0,10843.0,-2647.0,2505.0,-11730.0,-197.0,115.0,32.0,5.0,0.0,-1.0,13958.0,-6023.0,-2244.0,5682.0,-171.0,62.0,35.0,1.0
2022-05-08 14:30:59.675765-07:00,679.1,784.4,766.2,951.7,352.2,300.5,948.3,806.0,3469.8,3467.4,1072.9,821.0,576.2,3467.4,1137.5,867.9,3444.3,3446.7,409.8,352.2,362.3,355.3,271.4,255.3,3469.8,3452.8,485.3,405.9,442.7,934.7,696.2,404.3,22.0,-5.0,14.0,10836.0,-2666.0,2598.0,-11711.0,-233.0,154.0,95.0,6.0,13.0,-16.0,13930.0,-6093.0,-2241.0,5678.0,-208.0,69.0,57.0,1.0
2022-05-08 14:30:59.706002-07:00,679.1,793.5,764.5,955.1,352.2,300.5,948.3,806.0,3466.1,3474.6,1077.3,816.0,576.2,3467.4,1137.5,867.9,3444.3,3446.7,409.8,352.2,359.2,355.3,264.5,256.9,3469.8,3452.8,485.3,405.9,434.9,931.3,692.1,404.3,7.0,-2.0,-3.0,10835.0,-2700.0,2787.0,-11661.0,-637.0,292.0,184.0,-1.0,0.0,-3.0,13874.0,-6232.0,-2231.0,5669.0,-466.0,182.0,84.0,1.0
2022-05-08 14:30:59.765836-07:00,679.1,793.5,764.5,955.1,353.0,300.5,950.0,806.9,3466.1,3474.6,1077.3,816.0,572.2,3469.8,1134.9,873.0,3435.8,3444.3,405.9,346.8,359.2,355.3,264.5,256.9,3463.7,3469.8,488.5,409.0,434.9,931.3,692.1,404.3,-4.0,-44.0,1.0,10837.0,-2796.0,3117.0,-11553.0,-797.0,284.0,378.0,-15.0,-12.0,-11.0,13787.0,-6446.0,-2211.0,5648.0,-485.0,202.0,146.0,1.0
2022-05-08 14:30:59.885750-07:00,676.6,788.6,764.5,950.0,353.0,300.5,950.0,806.9,3467.4,3474.6,1120.0,816.0,572.2,3469.8,1134.9,873.0,3435.8,3444.3,405.9,346.8,362.3,349.9,270.6,259.2,3463.7,3469.8,488.5,409.0,445.1,928.8,690.5,409.0,0.0,-52.0,14.0,10888.0,-2896.0,3509.0,-11366.0,-1045.0,461.0,616.0,-20.0,-40.0,-23.0,13678.0,-6675.0,-2166.0,5666.0,-593.0,261.0,329.0,1.0
2022-05-08 14:30:59.887684-07:00,676.6,788.6,764.5,950.0,352.2,303.6,944.1,802.7,3462.5,3474.6,1120.0,816.0,579.4,3473.4,1125.2,873.8,3445.5,3445.5,403.5,349.1,362.3,349.9,270.6,254.6,3466.1,3455.2,498.0,408.2,445.1,928.8,690.5,402.8,6.0,-20.0,-19.0,10925.0,-2999.0,4052.0,-11121.0,-1158.0,709.0,550.0,-34.0,-10.0,-71.0,13507.0,-7012.0,-2097.0,5694.0,-848.0,363.0,346.0,1.0
2022-05-08 14:30:59.915770-07:00,676.6,781.1,761.2,949.2,352.2,303.6,944.1,796.0,3462.5,3471.0,1160.3,821.0,579.4,3473.4,1125.2,871.3,3449.1,3445.5,403.5,349.1,366.2,355.3,281.3,254.6,3466.1,3455.2,498.0,408.2,438.0,930.5,690.5,402.8,-8.0,67.0,-89.0,10882.0,-3067.0,4637.0,-10914.0,-1404.0,712.0,347.0,-20.0,86.0,-62.0,13310.0,-7410.0,-2051.0,5671.0,-1032.0,385.0,246.0,1.0
2022-05-08 14:31:00.005871-07:00,679.9,781.1,761.2,949.2,350.6,304.3,927.9,796.0,3469.8,3471.0,1160.3,821.0,573.0,3467.4,1127.0,871.3,3449.1,3449.1,406.7,348.3,366.2,355.3,281.3,252.3,3466.1,3458.9,485.3,415.3,438.0,930.5,690.5,405.9,-5.0,20.0,-78.0,10711.0,-3390.0,5413.0,-10626.0,-2745.0,675.0,194.0,-23.0,-2.0,-69.0,12942.0,-8086.0,-2058.0,5597.0,-2141.0,566.0,418.0,1.0
2022-05-08 14:31:00.007364-07:00,679.9,781.1,763.7,946.6,350.6,304.3,927.9,793.5,3469.8,3468.6,1158.6,817.7,573.0,3467.4,1127.0,871.3,3449.1,3449.1,406.7,348.3,363.1,351.4,278.3,252.3,3461.3,3458.9,485.3,415.3,435.7,927.1,692.9,405.9,-8.0,-22.0,-30.0,10378.0,-3994.0,6380.0,-10201.0,-2703.0,470.0,103.0,-27.0,-19.0,-15.0,12355.0,-9015.0,-2136.0,5474.0,-2458.0,499.0,419.0,1.0
2022-05-08 14:31:00.066381-07:00,672.5,781.1,763.7,946.6,349.1,303.6,933.0,793.5,3460.1,3468.6,1158.6,817.7,576.2,3473.4,1127.9,871.3,3449.1,3446.7,398.1,350.6,363.1,351.4,278.3,251.5,3461.3,3460.1,495.6,414.5,435.7,927.1,692.9,405.1,-7.0,19.0,25.0,10047.0,-4569.0,7180.0,-9750.0,-2469.0,179.0,51.0,12.0,-5.0,40.0,11759.0,-9823.0,-2259.0,5345.0,-2248.0,351.0,271.0,1.0
2022-05-08 14:31:00.125728-07:00,672.5,772.8,762.0,949.2,349.1,303.6,933.0,785.2,3460.1,3457.6,1176.2,822.7,576.2,3473.4,1127.9,873.0,3445.5,3446.7,398.1,350.6,362.3,353.7,274.4,251.5,3454.0,3460.1,495.6,414.5,440.4,930.5,693.8,405.1,-4.0,-18.0,38.0,9702.0,-5208.0,7784.0,-9306.0,-2356.0,-121.0,-270.0,15.0,-18.0,54.0,11166.0,-10534.0,-2408.0,5195.0,-2173.0,277.0,173.0,1.0
2022-05-08 14:31:00.155973-07:00,677.4,772.8,762.0,949.2,349.9,306.7,927.9,785.2,3473.4,3457.6,1176.2,822.7,576.2,3467.4,1133.1,873.0,3445.5,3438.2,405.9,348.3,362.3,353.7,274.4,259.2,3454.0,3460.1,494.0,415.3,440.4,930.5,693.8,406.7,27.0,-117.0,76.0,9336.0,-5862.0,8276.0,-8855.0,-2200.0,-53.0,-140.0,10.0,-82.0,-46.0,10565.0,-11178.0,-2532.0,5046.0,-1900.0,297.0,233.0,1.0
2022-05-08 14:31:00.245978-07:00,677.4,771.1,760.4,951.7,349.9,306.7,919.4,784.4,3473.4,3478.3,1177.9,817.7,576.2,3467.4,1130.5,871.3,3440.7,3445.5,405.9,348.3,360.0,358.4,280.6,259.2,3460.1,3464.9,494.0,415.3,444.3,927.9,693.8,406.7,24.0,6.0,39.0,8996.0,-6305.0,8753.0,-8434.0,-1826.0,210.0,63.0,23.0,-35.0,-27.0,10017.0,-11716.0,-2598.0,4906.0,-1724.0,309.0,240.0,1.0
2022-05-08 14:31:00.247248-07:00,679.9,772.0,760.4,951.7,353.7,299.0,919.4,784.4,3469.8,3478.3,1177.9,817.7,577.0,3462.5,1130.5,871.3,3440.7,3445.5,404.3,346.8,360.0,358.4,281.3,250.8,3460.1,3464.9,503.6,410.6,444.3,927.9,692.1,411.4,-7.0,12.0,20.0,8596.0,-6722.0,9220.0,-8021.0,-2241.0,232.0,-161.0,6.0,21.0,-47.0,9376.0,-12299.0,-2685.0,4695.0,-2297.0,427.0,217.0,1.0
2022-05-08 14:31:00.306014-07:00,679.9,772.0,765.3,950.0,353.7,299.0,911.0,776.1,3469.8,3478.3,1202.7,822.7,577.0,3462.5,1127.9,873.8,3443.1,3440.7,404.3,346.8,360.7,354.5,281.3,250.8,3469.8,3460.1,503.6,410.6,436.4,928.8,692.1,411.4,16.0,-35.0,38.0,8063.0,-7248.0,9719.0,-7513.0,-2286.0,243.0,-165.0,-2.0,-41.0,-4.0,8632.0,-12908.0,-2771.0,4432.0,-2158.0,495.0,226.0,1.0
2022-05-08 14:31:00.366560-07:00,679.9,767.0,765.3,950.0,349.9,307.4,911.0,776.1,3460.1,3462.5,1202.7,822.7,574.6,3461.3,1127.9,873.8,3443.1,3440.7,405.9,345.2,360.7,354.5,279.0,255.3,3469.8,3460.1,505.9,414.5,436.4,928.8,689.7,415.3,20.0,33.0,0.0,7485.0,-7717.0,10203.0,-6983.0,-2584.0,342.0,-178.0,28.0,50.0,-80.0,7819.0,-13506.0,-2836.0,4103.0,-2752.0,683.0,186.0,1.0
2022-05-08 14:31:00.395730-07:00,679.9,767.0,764.5,953.4,349.9,307.4,917.7,777.8,3460.1,3462.5,1238.2,826.0,574.6,3461.3,1136.6,878.0,3458.9,3443.1,405.9,345.2,367.7,356.1,279.0,255.3,3456.4,3457.6,505.9,414.5,443.5,928.8,689.7,415.3,10.0,-24.0,45.0,6677.0,-8273.0,10773.0,-6273.0,-3212.0,511.0,-231.0,5.0,18.0,1.0,6779.0,-14163.0,-2933.0,3643.0,-2971.0,811.0,166.0,1.0
2022-05-08 14:31:00.456465-07:00,672.5,778.6,764.5,953.4,352.2,307.4,917.7,777.8,3471.0,3466.1,1238.2,826.0,573.8,3457.6,1136.6,878.0,3458.9,3443.1,404.3,350.6,367.7,356.1,276.7,253.1,3456.4,3457.6,504.4,412.1,443.5,928.8,692.1,407.5,-7.0,-15.0,0.0,5814.0,-8708.0,11304.0,-5570.0,-2725.0,637.0,-80.0,-17.0,-59.0,-9.0,5855.0,-14678.0,-2953.0,3160.0,-2517.0,878.0,175.0,1.0
2022-05-08 14:31:00.576382-07:00,672.5,778.6,763.7,944.9,352.2,308.2,924.5,778.6,3471.0,3466.1,1238.2,821.9,573.8,3468.6,1144.5,871.3,3445.5,3449.1,405.9,350.6,362.3,354.5,276.7,253.1,3462.5,3466.1,494.8,412.1,442.7,929.6,692.1,407.5,24.0,35.0,-29.0,4958.0,-9056.0,11754.0,-4867.0,-3019.0,543.0,-146.0,4.0,38.0,-62.0,4884.0,-15127.0,-2960.0,2647.0,-2808.0,883.0,164.0,1.0
2022-05-08 14:31:00.578688-07:00,673.3,767.0,763.7,944.9,351.4,308.2,924.5,778.6,3462.5,3467.4,1227.5,821.9,580.2,3468.6,1144.5,871.3,3445.5,3449.1,405.9,349.1,362.3,356.1,282.1,255.3,3462.5,3466.1,494.8,418.4,442.7,934.7,691.3,400.4,20.0,-12.0,-3.0,3953.0,-9442.0,12145.0,-4018.0,-3315.0,631.0,-277.0,7.0,2.0,-26.0,3939.0,-15464.0,-2990.0,2202.0,-3107.0,804.0,169.0,1.0
2022-05-08 14:31:00.635841-07:00,673.3,767.0,763.7,950.9,351.4,312.0,916.0,777.8,3462.5,3467.4,1227.5,826.9,580.2,3473.4,1139.2,867.9,3445.5,3440.7,404.3,349.1,367.7,356.1,282.1,255.3,3455.2,3462.5,501.2,418.4,437.2,934.7,691.3,400.4,26.0,-51.0,-85.0,2865.0,-9789.0,12442.0,-3095.0,-3612.0,567.0,-341.0,5.0,19.0,-88.0,2673.0,-15797.0,-3018.0,1628.0,-3398.0,653.0,178.0,1.0
2022-05-08 14:31:00.695858-07:00,673.3,772.0,764.5,950.9,351.4,312.0,916.0,777.8,3473.4,3471.0,1232.8,826.9,575.4,3473.4,1139.2,867.9,3445.5,3440.7,404.3,347.6,367.7,349.9,290.5,259.9,3455.2,3462.5,501.2,430.9,437.2,925.4,692.9,403.5,-27.0,-306.0,4.0,1828.0,-10049.0,12630.0,-2142.0,-2545.0,411.0,-93.0,-29.0,-161.0,21.0,1426.0,-15999.0,-3005.0,1179.0,-1771.0,338.0,302.0,1.0
2022-05-08 14:31:00.697625-07:00,673.3,772.0,764.5,956.8,351.4,308.2,918.6,766.2,3473.4,3471.0,1232.8,831.9,575.4,3468.6,1158.6,871.3,3446.7,3449.1,408.2,347.6,363.8,349.9,290.5,259.9,3454.0,3460.1,498.0,430.9,435.7,925.4,692.9,403.5,19.0,-12.0,-16.0,1387.0,-10044.0,12759.0,-1682.0,-1243.0,20.0,209.0,22.0,30.0,-17.0,881.0,-16066.0,-2910.0,1030.0,-1018.0,85.0,253.0,1.0
2022-05-08 14:31:00.756064-07:00,672.5,767.0,768.7,956.8,350.6,308.2,918.6,766.2,3469.8,3474.6,1227.5,831.9,578.6,3468.6,1158.6,871.3,3446.7,3449.1,408.2,344.5,363.8,355.3,291.3,257.6,3454.0,3460.1,498.0,441.9,435.7,934.7,702.8,410.6,25.0,-22.0,91.0,1147.0,-10016.0,12843.0,-1362.0,-498.0,67.0,190.0,8.0,33.0,85.0,586.0,-16096.0,-2842.0,969.0,-160.0,60.0,159.0,1.0
2022-05-08 14:31:00.815811-07:00,672.5,767.0,768.7,945.8,350.6,315.9,918.6,761.2,3469.8,3474.6,1227.5,826.9,578.6,3466.1,1171.8,878.9,3449.1,3438.2,402.8,344.5,362.3,355.3,291.3,257.6,3463.7,3458.9,495.6,441.9,438.8,934.7,702.8,410.6,14.0,0.0,-21.0,1083.0,-9954.0,12896.0,-1366.0,39.0,177.0,132.0,20.0,52.0,-38.0,557.0,-16106.0,-2796.0,954.0,-44.0,87.0,42.0,1.0
2022-05-08 14:31:00.846168-07:00,673.3,761.2,768.7,950.9,350.6,315.9,918.6,761.2,3473.4,3464.9,1233.7,826.9,582.6,3466.1,1171.8,878.9,3449.1,3438.2,402.8,346.0,364.6,358.4,288.2,256.1,3463.7,3458.9,495.6,439.6,440.4,934.7,690.5,405.9,0.0,-75.0,-19.0,1079.0,-9933.0,12909.0,-1406.0,155.0,-48.0,13.0,-6.0,9.0,-11.0,590.0,-16106.0,-2789.0,947.0,248.0,-86.0,-22.0,1.0
2022-05-08 14:31:01.026434-07:00,673.3,761.2,768.7,950.9,347.6,308.2,927.9,768.7,3473.4,3464.9,1233.7,826.9,579.4,3469.8,1172.6,874.7,3446.7,3444.3,409.0,349.1,364.6,358.4,288.2,256.1,3462.5,3455.2,502.0,439.6,440.4,934.7,690.5,405.9,14.0,-59.0,39.0,1194.0,-9935.0,12890.0,-1463.0,255.0,-157.0,-29.0,12.0,19.0,-1.0,680.0,-16097.0,-2802.0,1004.0,175.0,-78.0,-53.0,1.0
2022-05-08 14:31:01.028873-07:00,673.3,764.5,767.0,951.7,347.6,308.2,927.9,768.7,3462.5,3473.4,1226.6,827.7,579.4,3469.8,1172.6,874.7,3446.7,3444.3,409.0,349.1,365.4,358.4,288.2,253.1,3462.5,3455.2,502.0,439.6,439.6,925.4,691.3,404.3,5.0,-95.0,36.0,1268.0,-9943.0,12872.0,-1508.0,141.0,-9.0,-23.0,5.0,-4.0,0.0,732.0,-16091.0,-2817.0,1024.0,89.0,-4.0,-33.0,1.0
2022-05-08 14:31:01.029929-07:00,673.3,764.5,767.0,951.7,348.3,306.7,917.7,763.7,3462.5,3473.4,1226.6,827.7,582.6,3462.5,1167.4,877.2,3454.0,3444.3,404.3,349.1,365.4,358.4,288.2,253.1,3462.5,3457.6,502.8,437.2,439.6,925.4,691.3,404.3,4.0,-91.0,-1.0,1291.0,-9940.0,12868.0,-1540.0,61.0,-18.0,23.0,3.0,-6.0,-2.0,760.0,-16089.0,-2818.0,1032.0,60.0,-10.0,9.0,1.0
2022-05-08 14:31:01.175802-07:00,675.8,779.4,768.7,949.2,348.3,306.7,917.7,763.7,3472.2,3467.4,1233.7,830.2,582.6,3462.5,1167.4,877.2,3454.0,3444.3,404.3,349.1,365.4,353.7,285.2,255.3,3462.5,3457.6,502.8,437.2,438.8,930.5,685.6,408.2,20.0,-66.0,49.0,1329.0,-9927.0,12872.0,-1565.0,63.0,-11.0,45.0,16.0,10.0,15.0,770.0,-16089.0,-2804.0,1055.0,55.0,-32.0,51.0,1.0
2022-05-08 14:31:01.235795-07:00,675.8,779.4,768.7,949.2,348.3,311.3,913.5,752.1,3472.2,3467.4,1233.7,830.2,579.4,3472.2,1172.6,878.9,3439.5,3446.7,404.3,346.0,365.4,353.7,285.2,255.3,3457.6,3455.2,496.4,438.0,438.8,930.5,685.6,408.2,7.0,-38.0,0.0,1345.0,-9899.0,12884.0,-1626.0,96.0,86.0,62.0,13.0,48.0,-23.0,785.0,-16093.0,-2780.0,1052.0,30.0,-3.0,49.0,1.0
2022-05-08 14:31:01.237656-07:00,678.2,763.7,773.6,949.2,348.3,311.3,913.5,756.3,3467.4,3471.0,1226.6,833.6,579.4,3472.2,1172.6,878.9,3449.1,3446.7,404.3,346.0,366.2,348.3,286.7,257.6,3467.4,3455.2,496.4,438.0,437.2,931.3,691.3,405.9,7.0,-52.0,6.0,1344.0,-9876.0,12899.0,-1648.0,75.0,-6.0,49.0,4.0,11.0,6.0,808.0,-16095.0,-2760.0,1051.0,94.0,-35.0,30.0,1.0
2022-05-08 14:31:01.238886-07:00,677.4,763.7,773.6,949.2,355.3,310.5,915.2,756.3,3463.7,3471.0,1226.6,833.6,574.6,3467.4,1175.3,878.9,3449.1,3450.4,404.3,345.2,366.2,348.3,286.7,255.3,3467.4,3463.7,509.1,435.7,437.2,931.3,691.3,405.1,21.0,-40.0,32.0,1380.0,-9865.0,12901.0,-1669.0,20.0,-30.0,11.0,14.0,27.0,1.0,809.0,-16096.0,-2753.0,1059.0,1.0,-1.0,16.0,1.0
2022-05-08 14:31:01.295709-07:00,677.4,765.3,770.3,950.9,355.3,310.5,915.2,757.1,3463.7,3473.4,1231.9,823.5,574.6,3467.4,1175.3,875.5,3438.2,3450.4,404.3,345.2,360.0,354.5,289.0,255.3,3461.3,3463.7,509.1,435.7,434.9,932.2,687.2,405.1,2.0,-62.0,16.0,1391.0,-9859.0,12901.0,-1692.0,47.0,18.0,13.0,7.0,17.0,-3.0,816.0,-16097.0,-2751.0,1049.0,42.0,24.0,11.0,1.0
2022-05-08 14:31:01.297016-07:00,673.3,765.3,770.3,950.9,353.7,309.0,914.4,757.1,3474.6,3473.4,1231.9,823.5,580.2,3467.4,1171.8,875.5,3438.2,3446.7,402.8,344.5,360.0,354.5,289.0,256.9,3461.3,3456.4,498.0,433.3,434.9,932.2,687.2,404.3,0.0,-76.0,10.0,1432.0,-9852.0,12894.0,-1755.0,34.0,13.0,-5.0,-1.0,-8.0,-18.0,822.0,-16098.0,-2743.0,1050.0,-2.0,-18.0,17.0,1.0
2022-05-08 14:31:01.356605-07:00,673.3,766.2,775.3,952.6,353.7,309.0,914.4,758.7,3474.6,3463.7,1236.4,828.5,580.2,3467.4,1171.8,871.3,3450.4,3446.7,402.8,344.5,367.7,356.1,283.6,256.9,3471.0,3456.4,498.0,433.3,451.4,932.2,687.2,404.3,15.0,-43.0,26.0,1478.0,-9843.0,12887.0,-1819.0,75.0,-6.0,16.0,17.0,25.0,-9.0,818.0,-16097.0,-2740.0,1071.0,12.0,-24.0,12.0,1.0
2022-05-08 14:31:01.415786-07:00,670.9,766.2,775.3,952.6,353.0,309.7,911.0,758.7,3467.4,3463.7,1236.4,828.5,577.0,3477.1,1170.0,871.3,3450.4,3441.9,405.9,343.7,367.7,356.1,283.6,256.1,3471.0,3463.7,495.6,436.4,451.4,932.2,687.2,405.9,12.0,-30.0,8.0,1506.0,-9832.0,12885.0,-1865.0,52.0,11.0,12.0,16.0,32.0,-19.0,818.0,-16097.0,-2738.0,1075.0,1.0,-2.0,1.0,1.0
2022-05-08 14:31:01.505920-07:00,670.9,762.0,772.0,951.7,353.0,309.7,911.0,751.3,3467.4,3463.7,1228.4,826.9,577.0,3477.1,1170.0,879.7,3454.0,3441.9,405.9,343.7,366.2,353.0,290.5,256.1,3462.5,3463.7,495.6,436.4,438.0,930.5,693.8,405.9,2.0,-42.0,7.0,1516.0,-9830.0,12882.0,-1893.0,32.0,9.0,-2.0,4.0,5.0,-2.0,819.0,-16097.0,-2739.0,1072.0,40.0,1.0,-11.0,1.0
2022-05-08 14:31:01.537067-07:00,675.0,766.2,772.0,951.7,352.2,309.0,910.1,751.3,3479.5,3460.1,1228.4,826.9,581.0,3467.4,1173.5,879.7,3454.0,3444.3,403.5,349.9,366.2,353.0,285.2,253.8,3462.5,3461.3,499.6,432.5,438.0,930.5,690.5,402.8,4.0,-41.0,7.0,1550.0,-9831.0,12871.0,-1930.0,67.0,-28.0,-7.0,8.0,6.0,-1.0,835.0,-16094.0,-2748.0,1087.0,59.0,-22.0,-21.0,1.0
2022-05-08 14:31:01.565726-07:00,675.0,766.2,772.8,955.1,352.2,309.0,911.8,748.8,3479.5,3460.1,1232.8,826.0,581.0,3467.4,1168.2,874.7,3449.1,3443.1,403.5,349.9,366.9,357.6,285.2,253.8,3466.1,3463.7,499.6,432.5,439.6,932.2,690.5,402.8,5.0,-47.0,16.0,1583.0,-9833.0,12861.0,-1954.0,22.0,-43.0,-17.0,8.0,-3.0,6.0,848.0,-16091.0,-2755.0,1097.0,36.0,-28.0,-17.0,1.0
2022-05-08 14:31:01.595837-07:00,671.7,763.7,772.8,955.1,353.0,307.4,911.8,748.8,3467.4,3473.4,1232.8,826.0,575.4,3463.7,1168.2,874.7,3449.1,3443.1,402.8,346.8,366.9,357.6,287.5,253.8,3466.1,3463.7,493.2,433.3,439.6,932.2,692.1,405.1,12.0,-26.0,25.0,1623.0,-9836.0,12848.0,-1992.0,76.0,-10.0,-11.0,13.0,20.0,-2.0,860.0,-16089.0,-2756.0,1109.0,12.0,-28.0,6.0,1.0
2022-05-08 14:31:01.685961-07:00,671.7,763.7,772.0,951.7,353.0,307.4,910.1,752.1,3467.4,3473.4,1232.8,829.4,575.4,3463.7,1167.4,873.0,3461.3,3443.1,402.8,346.8,367.7,354.5,287.5,253.8,3473.4,3461.3,493.2,433.3,437.2,933.0,692.1,405.1,-1.0,-50.0,17.0,1635.0,-9826.0,12848.0,-2033.0,39.0,49.0,22.0,-4.0,-14.0,20.0,872.0,-16091.0,-2745.0,1099.0,33.0,-1.0,36.0,1.0
2022-05-08 14:31:01.715816-07:00,670.1,777.8,772.0,951.7,345.2,309.0,910.1,752.1,3457.6,3464.9,1232.8,829.4,579.4,3467.4,1167.4,873.0,3461.3,3443.1,401.2,346.8,367.7,354.5,289.0,256.9,3473.4,3461.3,489.3,432.5,437.2,933.0,693.8,401.2,-5.0,-28.0,-17.0,1645.0,-9807.0,12856.0,-2069.0,32.0,26.0,41.0,0.0,11.0,-11.0,884.0,-16094.0,-2724.0,1103.0,-1.0,-8.0,37.0,1.0
2022-05-08 14:31:01.745928-07:00,670.1,777.8,772.8,948.3,345.2,309.0,907.6,751.3,3457.6,3464.9,1232.8,829.4,579.4,3467.4,1163.8,873.0,3440.7,3445.5,401.2,346.8,367.7,353.0,289.0,256.9,3464.9,3468.6,489.3,432.5,439.6,936.4,693.8,401.2,12.0,-7.0,5.0,1662.0,-9796.0,12862.0,-2073.0,33.0,-48.0,29.0,14.0,17.0,-2.0,879.0,-16095.0,-2715.0,1119.0,13.0,-55.0,17.0,1.0
2022-05-08 14:31:01.806599-07:00,671.7,764.5,772.8,948.3,350.6,308.2,907.6,751.3,3462.5,3473.4,1232.8,829.4,580.2,3460.1,1163.8,873.0,3440.7,3445.5,406.7,352.2,367.7,353.0,288.2,258.4,3464.9,3468.6,496.4,435.7,439.6,936.4,689.7,406.7,9.0,-8.0,11.0,1668.0,-9790.0,12865.0,-2076.0,15.0,27.0,10.0,11.0,18.0,3.0,870.0,-16095.0,-2712.0,1123.0,11.0,3.0,-4.0,1.0
2022-05-08 14:31:01.866090-07:00,671.7,764.5,772.8,952.6,350.6,312.0,912.7,750.5,3462.5,3473.4,1227.5,831.9,580.2,3483.2,1163.8,879.7,3449.1,3445.5,404.3,352.2,358.4,355.3,288.2,258.4,3457.6,3463.7,496.4,435.7,440.4,928.8,689.7,406.7,-4.0,-29.0,-9.0,1670.0,-9791.0,12859.0,-2102.0,47.0,2.0,-31.0,5.0,7.0,-14.0,875.0,-16094.0,-2717.0,1123.0,22.0,-14.0,-26.0,1.0
2022-05-08 14:31:01.926589-07:00,667.6,760.4,771.1,952.6,349.1,312.0,912.7,750.5,3466.1,3468.6,1226.6,831.9,573.0,3483.2,1163.8,879.7,3449.1,3445.5,404.3,349.1,358.4,356.8,286.7,251.5,3457.6,3463.7,496.4,432.5,440.4,927.9,688.9,409.0,7.0,-20.0,12.0,1704.0,-9802.0,12844.0,-2116.0,71.0,-61.0,-30.0,8.0,11.0,0.0,891.0,-16090.0,-2731.0,1141.0,39.0,-54.0,-33.0,1.0
2022-05-08 14:31:01.955978-07:00,667.6,760.4,771.1,958.5,349.1,308.2,903.4,747.2,3466.1,3468.6,1226.6,830.2,573.0,3471.0,1167.4,875.5,3441.9,3449.1,405.9,349.1,366.9,356.8,286.7,251.5,3462.5,3457.6,494.0,432.5,439.6,927.9,688.9,409.0,4.0,-32.0,27.0,1730.0,-9808.0,12834.0,-2134.0,34.0,1.0,-18.0,9.0,2.0,2.0,900.0,-16087.0,-2742.0,1152.0,11.0,-9.0,-16.0,1.0
2022-05-08 14:31:02.015768-07:00,672.5,764.5,777.8,958.5,350.6,308.2,903.4,747.2,3462.5,3469.8,1223.9,830.2,575.4,3471.0,1167.4,875.5,3441.9,3449.1,405.9,347.6,366.9,353.0,286.7,255.3,3462.5,3457.6,494.0,437.2,439.6,932.2,697.9,405.9,9.0,-39.0,12.0,1738.0,-9810.0,12826.0,-2162.0,21.0,13.0,-21.0,14.0,-8.0,3.0,910.0,-16086.0,-2743.0,1146.0,-4.0,-2.0,4.0,1.0
2022-05-08 14:31:02.135519-07:00,672.5,764.5,777.8,949.2,350.6,306.7,911.8,748.0,3462.5,3469.8,1223.9,829.4,575.4,3471.0,1163.8,869.6,3449.1,3444.3,411.4,347.6,367.7,353.0,286.7,255.3,3447.9,3460.1,498.8,437.2,444.3,932.2,697.9,405.9,12.0,-30.0,2.0,1737.0,-9801.0,12828.0,-2191.0,-29.0,47.0,43.0,4.0,-1.0,-11.0,911.0,-16089.0,-2733.0,1134.0,-35.0,42.0,43.0,1.0
2022-05-08 14:31:02.137022-07:00,675.8,761.2,772.0,949.2,350.6,306.7,911.8,748.0,3475.9,3462.5,1235.5,829.4,576.2,3471.0,1163.8,869.6,3449.1,3444.3,411.4,346.8,367.7,355.3,287.5,253.8,3447.9,3460.1,498.8,436.4,444.3,933.0,690.5,405.1,-27.0,-20.0,-18.0,1731.0,-9782.0,12842.0,-2198.0,22.0,1.0,43.0,-18.0,1.0,-4.0,901.0,-16092.0,-2717.0,1131.0,-18.0,-54.0,21.0,1.0
2022-05-08 14:31:02.138890-07:00,675.8,761.2,772.0,945.8,353.7,307.4,905.0,751.3,3475.9,3462.5,1235.5,831.9,576.2,3473.4,1168.2,878.9,3439.5,3438.2,406.7,348.3,366.9,355.3,287.5,253.8,3472.2,3461.3,493.2,436.4,435.7,933.0,690.5,405.1,10.0,-1.0,20.0,1743.0,-9778.0,12847.0,-2178.0,-26.0,-51.0,18.0,18.0,27.0,-3.0,887.0,-16093.0,-2711.0,1150.0,-18.0,-41.0,13.0,1.0
2022-05-08 14:31:02.285388-07:00,675.8,762.9,772.8,955.1,353.7,307.4,905.0,751.3,3462.5,3468.6,1228.4,823.5,576.2,3473.4,1168.2,878.9,3439.5,3438.2,406.7,348.3,361.5,356.1,285.9,257.6,3472.2,3461.3,493.2,436.4,440.4,934.7,692.9,408.2,8.0,4.0,4.0,1740.0,-9771.0,12851.0,-2188.0,20.0,48.0,-6.0,0.0,6.0,-6.0,889.0,-16093.0,-2711.0,1142.0,22.0,25.0,-12.0,1.0
2022-05-08 14:31:02.316224-07:00,675.8,762.9,772.8,955.1,348.3,306.7,909.3,746.3,3462.5,3468.6,1228.4,823.5,577.8,3478.3,1163.8,875.5,3440.7,3445.5,405.1,347.6,361.5,356.1,285.9,257.6,3460.1,3463.7,491.7,438.0,440.4,934.7,692.9,408.2,-16.0,-13.0,-27.0,1747.0,-9782.0,12840.0,-2200.0,30.0,-58.0,-49.0,-8.0,3.0,-9.0,896.0,-16090.0,-2726.0,1146.0,20.0,-38.0,-51.0,1.0
2022-05-08 14:31:02.317162-07:00,673.3,762.9,771.1,950.0,348.3,306.7,909.3,746.3,3468.6,3460.1,1224.8,830.2,577.8,3478.3,1163.8,875.5,3440.7,3445.5,405.1,347.6,366.9,358.4,284.4,258.4,3460.1,3463.7,491.7,438.0,435.7,932.2,691.3,402.8,8.0,-13.0,29.0,1781.0,-9801.0,12821.0,-2196.0,45.0,-59.0,-38.0,16.0,19.0,5.0,906.0,-16084.0,-2750.0,1169.0,36.0,-45.0,-50.0,1.0
