Time,P0,P1,P2,P3,P4,P5,P6,P7,P8,P9,P10,P11,P12,P13,P14,P15,P16,P17,P18,P19,P20,P21,P22,P23,P24,P25,P26,P27,P28,P29,P30,P31,ECG,AX0,AY0,AZ0,QW0,QX0,QY0,QZ0,GX0,GY0,GZ0,AX1,AY1,AZ1,QW1,QX1,QY1,QZ1,GX1,GY1,GZ1
2022-05-08 14:28:07.846075-07:00,886.5,979.9,1481.9,1091.2,632.7,471.9,1418.6,1003.0,3480.7,3467.4,688.0,894.1,411.4,3499.0,806.9,802.7,3478.3,3484.4,410.6,655.4,477.4,552.2,245.4,242.4,3486.8,3483.2,579.4,460.8,696.2,1127.0,1415.8,434.9,5.0,4.0,-7.0,14750.0,2894.0,2779.0,5896.0,-14.0,-7.0,-2.0,4.0,15.0,-1.0,15865.0,3534.0,-698.0,1938.0,-22.0,-9.0,5.0,1.0
2022-05-08 14:28:07.935755-07:00,883.1,978.2,1478.3,1098.2,632.7,471.9,1418.6,1003.0,3478.3,3471.0,692.9,899.1,411.4,3499.0,806.9,802.7,3478.3,3484.4,410.6,655.4,479.8,550.6,243.2,244.7,3486.8,3483.2,579.4,460.8,691.3,1132.2,1422.2,436.4,14.0,9.0,5.0,14752.0,2893.0,2766.0,5899.0,9.0,-23.0,14.0,7.0,15.0,0.0,15866.0,3531.0,-699.0,1937.0,-6.0,-13.0,1.0,1.0
2022-05-08 14:28:07.936904-07:00,883.1,978.2,1478.3,1098.2,633.5,477.4,1416.7,998.7,3478.3,3471.0,692.9,899.1,410.6,3496.6,809.4,796.9,3477.1,3477.1,409.8,657.9,479.8,550.6,243.2,244.7,3480.7,3472.2,581.8,465.6,691.3,1132.2,1422.2,436.4,11.0,7.0,12.0,14755.0,2892.0,2757.0,5897.0,-10.0,6.0,-19.0,4.0,15.0,2.0,15866.0,3529.0,-701.0,1935.0,-14.0,2.0,-13.0,1.0
2022-05-08 14:28:07.965488-07:00,889.0,981.6,1481.9,1095.6,633.5,477.4,1416.7,998.7,3477.1,3474.6,679.9,899.1,410.6,3496.6,809.4,796.9,3477.1,3477.1,409.8,657.9,475.0,549.8,248.5,243.9,3480.7,3472.2,581.8,465.6,696.2,1130.5,1424.1,435.7,4.0,-10.0,-8.0,14756.0,2878.0,2767.0,5894.0,-34.0,25.0,-19.0,-1.0,-2.0,0.0,15869.0,3520.0,-702.0,1930.0,-13.0,11.0,-7.0,1.0
2022-05-08 14:28:08.056065-07:00,885.6,981.6,1481.9,1095.6,634.3,473.5,1416.7,1001.3,3467.4,3474.6,679.9,899.1,411.4,3491.7,809.4,798.5,3479.5,3474.6,408.2,653.0,475.0,549.8,248.5,243.9,3475.9,3478.3,580.2,464.0,696.2,1130.5,1424.1,435.7,7.0,-2.0,0.0,14757.0,2873.0,2769.0,5894.0,-9.0,-4.0,7.0,5.0,9.0,1.0,15870.0,3517.0,-701.0,1930.0,-10.0,4.0,3.0,1.0
2022-05-08 14:28:08.085446-07:00,885.6,979.9,1470.0,1105.1,634.3,473.5,1416.7,999.6,3467.4,3475.9,688.9,902.5,411.4,3491.7,809.4,800.2,3480.7,3474.6,408.2,653.0,478.2,550.6,247.7,243.9,3477.1,3478.3,580.2,464.0,697.9,1128.7,1426.8,435.7,10.0,1.0,11.0,14757.0,2868.0,2762.0,5899.0,-14.0,7.0,5.0,4.0,6.0,5.0,15871.0,3512.0,-702.0,1930.0,-4.0,3.0,6.0,1.0
2022-05-08 14:28:08.235290-07:00,881.4,979.9,1470.0,1105.1,631.9,474.3,1411.3,999.6,3479.5,3475.9,688.9,902.5,411.4,3492.9,806.0,800.2,3480.7,3467.4,404.3,660.3,478.2,550.6,247.7,249.2,3477.1,3483.2,574.6,467.1,697.9,1128.7,1426.8,434.9,11.0,0.0,-3.0,14756.0,2860.0,2773.0,5901.0,-19.0,32.0,-10.0,2.0,9.0,0.0,15872.0,3508.0,-697.0,1931.0,-17.0,21.0,-3.0,1.0
2022-05-08 14:28:08.266212-07:00,881.4,970.5,1478.3,1098.2,631.9,474.3,1411.3,993.6,3479.5,3474.6,691.3,897.4,411.4,3492.9,806.0,797.7,3478.3,3467.4,404.3,660.3,473.5,549.0,250.8,249.2,3483.2,3483.2,574.6,467.1,712.6,1125.2,1418.6,434.9,11.0,-9.0,-8.0,14757.0,2848.0,2779.0,5902.0,-21.0,6.0,2.0,7.0,8.0,-1.0,15874.0,3500.0,-692.0,1932.0,-4.0,7.0,2.0,1.0
2022-05-08 14:28:08.266859-07:00,878.0,970.5,1478.3,1098.2,635.1,475.8,1412.2,993.6,3469.8,3474.6,691.3,897.4,410.6,3500.2,811.0,797.7,3478.3,3485.6,405.9,657.9,473.5,549.0,250.8,243.2,3483.2,3479.5,575.4,461.6,712.6,1125.2,1418.6,432.5,2.0,5.0,10.0,14756.0,2848.0,2778.0,5904.0,-14.0,-3.0,-11.0,2.0,13.0,11.0,15874.0,3500.0,-692.0,1932.0,-8.0,8.0,-4.0,1.0
2022-05-08 14:28:08.355781-07:00,878.0,974.8,1475.5,1096.4,635.1,475.8,1412.2,995.3,3469.8,3477.1,684.8,902.5,410.6,3500.2,811.0,799.4,3478.3,3485.6,405.9,657.9,472.7,550.6,247.0,243.2,3474.6,3479.5,575.4,461.6,684.8,1127.9,1420.4,432.5,6.0,-14.0,-6.0,14757.0,2838.0,2782.0,5904.0,-19.0,23.0,-10.0,3.0,0.0,-1.0,15875.0,3493.0,-693.0,1932.0,-17.0,9.0,-3.0,1.0
2022-05-08 14:28:08.415940-07:00,882.3,982.5,1475.5,1096.4,637.6,476.6,1414.9,995.3,3475.9,3472.2,684.8,902.5,410.6,3495.3,810.2,799.4,3478.3,3478.3,405.9,658.7,472.7,550.6,245.4,247.0,3474.6,3492.9,577.8,463.2,684.8,1127.9,1418.6,430.9,13.0,3.0,-7.0,14757.0,2836.0,2786.0,5906.0,-9.0,1.0,10.0,3.0,8.0,2.0,15875.0,3492.0,-693.0,1932.0,-6.0,3.0,2.0,1.0
2022-05-08 14:28:08.417150-07:00,882.3,982.5,1477.3,1091.2,637.6,476.6,1412.2,997.9,3475.9,3472.2,686.4,903.4,410.6,3495.3,806.9,797.7,3477.1,3475.9,405.9,658.7,475.0,549.8,245.4,247.0,3479.5,3474.6,577.8,463.2,692.1,1130.5,1418.6,430.9,9.0,-2.0,7.0,14757.0,2831.0,2783.0,5907.0,-6.0,-3.0,-4.0,2.0,5.0,9.0,15876.0,3488.0,-693.0,1932.0,2.0,0.0,-5.0,1.0
2022-05-08 14:28:08.445375-07:00,873.0,980.7,1477.3,1091.2,635.1,472.7,1412.2,997.9,3484.4,3469.8,686.4,903.4,408.2,3501.4,806.9,797.7,3477.1,3475.9,404.3,658.7,475.0,549.8,243.9,245.4,3479.5,3474.6,574.6,460.0,692.1,1130.5,1416.7,439.6,6.0,2.0,0.0,14757.0,2829.0,2786.0,5908.0,-19.0,9.0,-5.0,8.0,2.0,3.0,15877.0,3486.0,-693.0,1932.0,-16.0,9.0,-6.0,1.0
2022-05-08 14:28:08.625423-07:00,873.0,980.7,1479.2,1099.9,635.1,472.7,1403.0,997.0,3484.4,3469.8,685.6,898.3,408.2,3501.4,806.0,798.5,3472.2,3474.6,404.3,658.7,478.2,549.8,243.9,245.4,3472.2,3481.9,574.6,460.0,706.9,1129.6,1416.7,439.6,12.0,4.0,1.0,14757.0,2831.0,2787.0,5906.0,-1.0,0.0,-1.0,4.0,10.0,2.0,15877.0,3486.0,-693.0,1930.0,-8.0,-3.0,-5.0,1.0
2022-05-08 14:28:08.626451-07:00,885.6,970.5,1479.2,1099.9,636.7,478.2,1403.0,997.0,3471.0,3480.7,685.6,898.3,415.3,3497.8,806.0,798.5,3472.2,3474.6,407.5,653.8,478.2,549.8,247.7,244.7,3472.2,3481.9,577.8,464.0,706.9,1129.6,1422.2,429.4,11.0,-1.0,-1.0,14757.0,2830.0,2788.0,5906.0,14.0,13.0,6.0,2.0,5.0,1.0,15877.0,3486.0,-693.0,1930.0,4.0,5.0,-3.0,1.0
2022-05-08 14:28:08.627715-07:00,885.6,970.5,1477.3,1090.3,636.7,478.2,1406.7,994.5,3471.0,3480.7,688.0,900.8,415.3,3497.8,804.4,800.2,3471.0,3477.1,407.5,653.8,479.0,546.6,247.7,244.7,3478.3,3475.9,577.8,464.0,697.0,1123.5,1422.2,429.4,13.0,-4.0,-1.0,14755.0,2830.0,2792.0,5909.0,17.0,7.0,12.0,6.0,4.0,2.0,15877.0,3487.0,-692.0,1930.0,13.0,10.0,1.0,1.0
2022-05-08 14:28:08.628705-07:00,889.0,969.6,1472.7,1090.3,635.9,474.3,1406.7,994.5,3478.3,3471.0,689.7,900.8,412.1,3496.6,804.4,800.2,3471.0,3477.1,405.1,656.2,479.0,551.4,248.5,245.4,3478.3,3475.9,573.8,461.6,697.0,1133.1,1421.3,432.5,13.0,-2.0,0.0,14754.0,2834.0,2794.0,5909.0,7.0,-1.0,4.0,6.0,9.0,6.0,15877.0,3488.0,-689.0,1931.0,7.0,8.0,3.0,1.0
2022-05-08 14:28:08.685184-07:00,889.0,969.6,1472.7,1096.4,635.9,473.5,1408.5,995.3,3478.3,3471.0,689.7,896.6,412.1,3494.1,810.2,800.2,3480.7,3483.2,404.3,656.2,472.7,551.4,248.5,245.4,3477.1,3479.5,572.2,461.6,688.9,1133.1,1421.3,432.5,6.0,3.0,-1.0,14753.0,2835.0,2801.0,5909.0,-12.0,25.0,-5.0,3.0,8.0,7.0,15877.0,3487.0,-689.0,1931.0,-18.0,6.0,-3.0,1.0
2022-05-08 14:28:08.805416-07:00,883.9,971.3,1473.6,1096.4,628.6,473.5,1408.5,995.3,3473.4,3471.0,682.3,896.6,410.6,3494.1,810.2,800.2,3480.7,3483.2,404.3,656.2,472.7,549.0,243.9,245.4,3477.1,3479.5,572.2,461.6,688.9,1129.6,1421.3,432.5,9.0,-1.0,-2.0,14752.0,2834.0,2806.0,5909.0,17.0,10.0,6.0,0.0,4.0,0.0,15877.0,3487.0,-689.0,1931.0,8.0,7.0,-3.0,1.0
2022-05-08 14:28:08.808549-07:00,883.9,971.3,1473.6,1096.4,628.6,476.6,1399.4,996.2,3473.4,3471.0,682.3,898.3,410.6,3501.4,809.4,797.7,3474.6,3483.2,405.9,656.2,470.3,549.0,243.9,245.4,3477.1,3477.1,580.2,461.6,697.0,1129.6,1421.3,432.5,8.0,4.0,5.0,14751.0,2835.0,2809.0,5909.0,2.0,9.0,3.0,2.0,7.0,5.0,15877.0,3487.0,-689.0,1931.0,-8.0,7.0,-4.0,1.0
2022-05-08 14:28:08.809234-07:00,884.8,968.8,1472.7,1096.4,630.3,476.6,1399.4,996.2,3471.0,3472.2,690.5,898.3,409.0,3501.4,809.4,797.7,3474.6,3483.2,405.9,660.3,470.3,550.6,246.2,246.2,3477.1,3477.1,580.2,460.0,697.0,1127.9,1423.1,434.1,10.0,-7.0,-2.0,14751.0,2832.0,2809.0,5910.0,-4.0,7.0,-3.0,1.0,7.0,2.0,15878.0,3484.0,-689.0,1931.0,3.0,-1.0,-5.0,1.0
2022-05-08 14:28:08.866153-07:00,884.8,968.8,1472.7,1090.3,630.3,472.7,1393.0,997.9,3471.0,3472.2,690.5,893.2,409.0,3502.7,804.4,800.2,3479.5,3475.9,409.0,660.3,477.4,550.6,246.2,246.2,3479.5,3479.5,577.8,460.0,695.4,1127.9,1423.1,434.1,8.0,8.0,-1.0,14750.0,2837.0,2812.0,5909.0,-9.0,-4.0,-3.0,2.0,12.0,7.0,15877.0,3485.0,-689.0,1931.0,-20.0,-5.0,-1.0,1.0
2022-05-08 14:28:08.985283-07:00,884.8,969.6,1477.3,1092.9,634.3,472.7,1393.0,997.9,3464.9,3472.2,686.4,900.8,410.6,3502.7,804.4,800.2,3479.5,3475.9,409.0,652.2,478.2,552.2,243.9,244.7,3479.5,3479.5,577.8,460.8,692.1,1125.2,1418.6,433.3,13.0,-7.0,0.0,14752.0,2832.0,2810.0,5908.0,13.0,6.0,7.0,3.0,4.0,0.0,15878.0,3482.0,-689.0,1931.0,10.0,3.0,-3.0,1.0
2022-05-08 14:28:08.986912-07:00,884.8,969.6,1477.3,1092.9,633.5,471.9,1396.7,994.5,3464.9,3472.2,686.4,900.8,408.2,3496.6,806.0,805.2,3478.3,3474.6,405.1,653.8,478.2,552.2,243.9,244.7,3478.3,3477.1,576.2,462.4,692.1,1125.2,1418.6,433.3,13.0,0.0,0.0,14751.0,2835.0,2811.0,5907.0,3.0,-4.0,1.0,4.0,9.0,6.0,15878.0,3483.0,-689.0,1931.0,-3.0,-1.0,-1.0,1.0
2022-05-08 14:28:09.015354-07:00,885.6,985.9,1474.6,1098.2,633.5,471.9,1396.7,994.5,3475.9,3467.4,684.8,896.6,408.2,3496.6,806.0,805.2,3478.3,3474.6,405.1,653.8,473.5,557.0,243.9,246.2,3478.3,3477.1,576.2,462.4,693.8,1121.7,1420.4,435.7,9.0,4.0,-3.0,14751.0,2835.0,2812.0,5907.0,-7.0,8.0,-7.0,0.0,15.0,0.0,15878.0,3483.0,-689.0,1931.0,-8.0,-4.0,-4.0,1.0
2022-05-08 14:28:09.165955-07:00,885.6,985.9,1474.6,1098.2,633.5,473.5,1410.3,997.9,3475.9,3467.4,684.8,896.6,408.2,3500.2,807.7,796.9,3473.4,3478.3,405.1,653.8,473.5,557.0,243.9,246.2,3480.7,3475.9,574.6,457.7,693.8,1121.7,1420.4,435.7,9.0,0.0,-1.0,14752.0,2832.0,2812.0,5905.0,-2.0,-5.0,-9.0,0.0,10.0,0.0,15879.0,3477.0,-690.0,1931.0,-8.0,-7.0,-7.0,1.0
2022-05-08 14:28:09.167252-07:00,877.2,969.6,1458.9,1093.8,633.5,473.5,1410.3,997.9,3478.3,3483.2,679.1,900.8,408.2,3500.2,807.7,796.9,3473.4,3478.3,405.1,653.8,477.4,549.8,247.0,243.9,3480.7,3475.9,574.6,457.7,695.4,1125.2,1423.1,436.4,13.0,1.0,2.0,14753.0,2832.0,2809.0,5905.0,-16.0,-4.0,3.0,5.0,9.0,4.0,15879.0,3476.0,-692.0,1930.0,-14.0,-10.0,2.0,1.0
2022-05-08 14:28:09.168774-07:00,877.2,969.6,1458.9,1093.8,632.7,473.5,1404.9,997.0,3478.3,3483.2,679.1,900.8,412.9,3505.1,806.9,801.9,3475.9,3475.9,406.7,656.2,477.4,549.8,247.0,243.9,3479.5,3481.9,575.4,464.8,695.4,1125.2,1423.1,436.4,5.0,-3.0,2.0,14753.0,2831.0,2809.0,5905.0,6.0,1.0,4.0,2.0,6.0,5.0,15880.0,3474.0,-692.0,1930.0,-1.0,-1.0,-5.0,1.0
2022-05-08 14:28:09.255270-07:00,882.3,967.9,1469.0,1089.5,632.7,473.5,1404.9,990.2,3468.6,3469.8,687.2,899.1,412.9,3505.1,806.9,796.9,3479.5,3475.9,406.7,656.2,474.3,550.6,243.9,242.4,3477.1,3481.9,575.4,464.8,699.5,1129.6,1418.6,438.8,12.0,3.0,-2.0,14755.0,2825.0,2806.0,5906.0,-36.0,-6.0,-1.0,6.0,10.0,3.0,15881.0,3467.0,-693.0,1930.0,-27.0,-12.0,4.0,1.0
2022-05-08 14:28:09.345705-07:00,886.5,967.9,1469.0,1089.5,635.1,477.4,1393.0,990.2,3474.6,3469.8,687.2,899.1,411.4,3495.3,809.4,796.9,3479.5,3469.8,406.7,655.4,474.3,550.6,243.9,246.2,3477.1,3481.9,579.4,462.4,699.5,1129.6,1418.6,436.4,9.0,12.0,-2.0,14754.0,2829.0,2807.0,5905.0,5.0,6.0,-1.0,1.0,13.0,4.0,15881.0,3470.0,-694.0,1930.0,2.0,-2.0,0.0,1.0
2022-05-08 14:28:09.346816-07:00,886.5,967.9,1481.9,1092.1,635.1,477.4,1393.0,992.7,3474.6,3475.9,690.5,895.7,411.4,3495.3,809.4,797.7,3479.5,3469.8,406.7,655.4,477.4,555.4,245.4,246.2,3485.6,3481.9,579.4,462.4,685.6,1130.5,1423.1,436.4,10.0,0.0,-4.0,14755.0,2825.0,2805.0,5906.0,-10.0,-12.0,-10.0,2.0,7.0,0.0,15882.0,3465.0,-697.0,1929.0,-10.0,-10.0,-6.0,1.0
2022-05-08 14:28:09.375402-07:00,883.1,967.9,1481.9,1092.1,635.1,476.6,1400.3,992.7,3467.4,3475.9,690.5,895.7,414.5,3494.1,811.9,797.7,3479.5,3483.2,409.0,656.2,477.4,555.4,245.4,246.2,3485.6,3478.3,581.0,474.3,685.6,1130.5,1423.1,436.4,11.0,-2.0,7.0,14756.0,2825.0,2802.0,5904.0,8.0,-8.0,-7.0,5.0,9.0,5.0,15882.0,3464.0,-698.0,1928.0,-1.0,1.0,-8.0,1.0
2022-05-08 14:28:09.525284-07:00,883.1,966.2,1478.3,1092.9,635.1,476.6,1400.3,992.7,3467.4,3475.9,683.1,894.1,414.5,3494.1,811.9,801.9,3467.4,3483.2,409.0,656.2,471.1,547.4,239.3,246.2,3481.9,3478.3,581.0,474.3,693.8,1130.5,1420.4,436.4,14.0,-7.0,2.0,14756.0,2826.0,2802.0,5904.0,6.0,10.0,-5.0,1.0,6.0,0.0,15882.0,3464.0,-698.0,1928.0,3.0,-6.0,-6.0,1.0
2022-05-08 14:28:09.555418-07:00,878.9,966.2,1478.3,1092.9,637.6,471.9,1403.0,992.7,3468.6,3472.2,683.1,894.1,409.0,3497.8,808.5,801.9,3467.4,3469.8,401.2,653.0,471.1,547.4,239.3,243.9,3481.9,3481.9,575.4,460.0,693.8,1130.5,1420.4,434.1,6.0,-4.0,0.0,14756.0,2826.0,2803.0,5904.0,12.0,-5.0,5.0,0.0,2.0,3.0,15882.0,3464.0,-699.0,1927.0,10.0,-7.0,-1.0,1.0
2022-05-08 14:28:09.556406-07:00,878.9,966.2,1469.0,1092.9,637.6,471.9,1398.5,997.0,3468.6,3472.2,685.6,902.5,409.0,3497.8,806.0,797.7,3488.0,3474.6,401.2,653.0,473.5,552.2,244.7,243.9,3477.1,3481.9,575.4,460.0,692.1,1126.1,1417.6,434.1,16.0,6.0,2.0,14754.0,2834.0,2805.0,5903.0,-8.0,-8.0,1.0,5.0,7.0,5.0,15881.0,3470.0,-698.0,1928.0,-5.0,-10.0,0.0,1.0
2022-05-08 14:28:09.558143-07:00,883.9,963.7,1469.0,1092.9,640.8,475.0,1398.5,997.0,3474.6,3478.3,685.6,902.5,412.1,3501.4,806.0,797.7,3488.0,3474.6,407.5,655.4,473.5,552.2,250.8,247.0,3477.1,3481.9,575.4,459.3,692.1,1126.1,1414.0,437.2,11.0,-3.0,3.0,14754.0,2831.0,2805.0,5904.0,19.0,6.0,-5.0,3.0,2.0,6.0,15881.0,3468.0,-701.0,1927.0,12.0,-5.0,-8.0,1.0
2022-05-08 14:28:09.645887-07:00,883.9,963.7,1476.4,1093.8,640.8,475.0,1394.8,997.0,3474.6,3478.3,685.6,896.6,412.1,3501.4,807.7,805.2,3474.6,3477.1,407.5,655.4,479.8,553.8,250.8,247.0,3475.9,3483.2,575.4,459.3,692.1,1128.7,1414.0,437.2,9.0,1.0,-2.0,14753.0,2836.0,2807.0,5903.0,4.0,-14.0,-1.0,2.0,4.0,5.0,15880.0,3471.0,-700.0,1927.0,0.0,-9.0,-5.0,1.0
2022-05-08 14:28:09.675384-07:00,881.4,967.1,1476.4,1093.8,633.5,475.0,1394.8,997.0,3472.2,3468.6,685.6,896.6,409.8,3496.6,807.7,805.2,3474.6,3477.1,410.6,651.4,479.8,553.8,246.2,243.2,3475.9,3483.2,579.4,458.5,692.1,1128.7,1414.9,433.3,15.0,-3.0,6.0,14754.0,2837.0,2804.0,5902.0,12.0,-2.0,-7.0,4.0,6.0,2.0,15880.0,3471.0,-702.0,1927.0,7.0,-9.0,-3.0,1.0
2022-05-08 14:28:09.736024-07:00,881.4,967.1,1470.0,1094.7,633.5,475.0,1396.7,989.3,3472.2,3468.6,687.2,891.5,409.8,3496.6,811.9,802.7,3484.4,3472.2,410.6,651.4,480.6,551.4,246.2,243.2,3478.3,3475.9,579.4,458.5,708.5,1131.4,1414.9,433.3,15.0,3.0,0.0,14753.0,2842.0,2807.0,5902.0,-4.0,8.0,2.0,6.0,11.0,4.0,15880.0,3473.0,-702.0,1927.0,4.0,4.0,-2.0,1.0
2022-05-08 14:28:09.795119-07:00,883.9,967.1,1473.6,1094.7,636.7,474.3,1396.7,989.3,3467.4,3473.4,688.9,891.5,410.6,3505.1,811.9,802.7,3484.4,3472.2,405.1,651.4,480.6,550.6,250.8,244.7,3478.3,3475.9,574.6,460.0,708.5,1127.9,1424.1,432.5,12.0,-1.0,-2.0,14753.0,2843.0,2808.0,5901.0,13.0,1.0,8.0,0.0,8.0,1.0,15880.0,3474.0,-702.0,1927.0,11.0,2.0,1.0,1.0
2022-05-08 14:28:09.825354-07:00,883.9,967.1,1473.6,1088.6,636.7,475.8,1399.4,991.9,3467.4,3473.4,688.9,893.2,410.6,3500.2,808.5,800.2,3480.7,3478.3,406.7,651.4,479.8,550.6,250.8,244.7,3485.6,3480.7,575.4,460.0,692.1,1127.9,1424.1,432.5,11.0,6.0,6.0,14750.0,2852.0,2807.0,5905.0,19.0,-10.0,16.0,5.0,10.0,5.0,15878.0,3481.0,-701.0,1927.0,15.0,-2.0,6.0,1.0
2022-05-08 14:28:09.916023-07:00,883.1,966.2,1468.1,1088.6,636.7,475.8,1399.4,991.9,3477.1,3473.4,684.0,893.2,408.2,3500.2,808.5,800.2,3480.7,3478.3,406.7,660.3,479.8,549.8,248.5,242.4,3485.6,3480.7,575.4,467.9,692.1,1127.0,1414.9,432.5,12.0,2.0,5.0,14750.0,2854.0,2804.0,5905.0,7.0,8.0,-3.0,5.0,7.0,2.0,15878.0,3481.0,-701.0,1927.0,-4.0,1.0,-2.0,1.0
2022-05-08 14:28:09.917025-07:00,883.1,966.2,1468.1,1100.8,636.7,476.6,1393.9,994.5,3477.1,3473.4,684.0,898.3,408.2,3505.1,804.4,798.5,3483.2,3483.2,409.0,660.3,475.8,549.8,248.5,242.4,3477.1,3484.4,574.6,467.9,694.6,1127.0,1414.9,432.5,14.0,-3.0,-3.0,14750.0,2854.0,2808.0,5904.0,13.0,5.0,-5.0,5.0,8.0,2.0,15878.0,3482.0,-701.0,1927.0,12.0,-1.0,-6.0,1.0
2022-05-08 14:28:10.095303-07:00,881.4,962.8,1468.1,1100.8,635.9,476.6,1393.9,994.5,3480.7,3478.3,685.6,898.3,412.1,3505.1,804.4,798.5,3483.2,3483.2,409.0,656.2,475.8,557.0,248.5,243.9,3477.1,3484.4,574.6,459.3,694.6,1131.4,1420.4,434.9,11.0,-2.0,0.0,14750.0,2856.0,2805.0,5903.0,4.0,-16.0,-2.0,1.0,3.0,4.0,15878.0,3483.0,-701.0,1927.0,-1.0,-2.0,-2.0,1.0
2022-05-08 14:28:10.126059-07:00,881.4,962.8,1468.1,1092.1,635.9,474.3,1393.0,989.3,3480.7,3478.3,685.6,898.3,412.1,3496.6,804.4,798.5,3472.2,3483.2,408.2,656.2,475.0,557.0,248.5,243.9,3474.6,3472.2,578.6,459.3,695.4,1131.4,1420.4,434.9,15.0,-4.0,4.0,14750.0,2857.0,2804.0,5903.0,2.0,-4.0,-3.0,7.0,11.0,8.0,15878.0,3483.0,-701.0,1927.0,3.0,6.0,-4.0,1.0
2022-05-08 14:28:10.127758-07:00,878.9,963.7,1469.0,1092.1,639.2,474.3,1393.0,989.3,3488.0,3471.0,685.6,898.3,410.6,3496.6,804.4,798.5,3472.2,3483.2,408.2,658.7,475.0,555.4,249.2,246.2,3474.6,3472.2,578.6,459.3,695.4,1126.1,1418.6,436.4,16.0,1.0,-1.0,14747.0,2867.0,2811.0,5904.0,26.0,14.0,15.0,8.0,20.0,4.0,15875.0,3494.0,-698.0,1928.0,21.0,9.0,2.0,1.0
2022-05-08 14:28:10.186100-07:00,878.9,963.7,1469.0,1105.1,633.5,474.3,1397.6,994.5,3488.0,3471.0,685.6,896.6,407.5,3497.8,806.0,795.2,3478.3,3473.4,409.0,653.8,473.5,555.4,249.2,246.2,3480.7,3477.1,574.6,457.7,690.5,1126.1,1418.6,436.4,12.0,1.0,1.0,14746.0,2866.0,2813.0,5905.0,-7.0,-4.0,1.0,0.0,1.0,4.0,15875.0,3496.0,-698.0,1928.0,-3.0,5.0,0.0,1.0
2022-05-08 14:28:10.186969-07:00,881.4,963.7,1470.9,1097.3,633.5,474.3,1397.6,994.5,3467.4,3478.3,688.0,897.4,407.5,3497.8,806.0,795.2,3478.3,3473.4,409.0,653.8,477.4,548.2,256.9,247.0,3480.7,3477.1,574.6,457.7,691.3,1140.1,1423.1,433.3,16.0,8.0,-1.0,14743.0,2873.0,2821.0,5904.0,33.0,22.0,3.0,8.0,16.0,6.0,15873.0,3502.0,-694.0,1929.0,16.0,15.0,-9.0,1.0
2022-05-08 14:28:10.275978-07:00,881.4,963.7,1470.9,1097.3,633.5,470.3,1391.2,1000.5,3467.4,3478.3,688.0,897.4,410.6,3497.8,806.9,798.5,3479.5,3473.4,406.7,652.2,477.4,548.2,256.9,247.0,3479.5,3488.0,576.2,459.3,691.3,1140.1,1423.1,433.3,14.0,-10.0,-4.0,14742.0,2872.0,2829.0,5903.0,11.0,13.0,-4.0,0.0,7.0,0.0,15874.0,3501.0,-689.0,1930.0,6.0,11.0,-5.0,1.0
2022-05-08 14:28:10.277699-07:00,883.9,965.4,1474.6,1090.3,633.5,470.3,1391.2,1000.5,3480.7,3478.3,689.7,898.3,410.6,3497.8,806.9,798.5,3479.5,3473.4,406.7,652.2,473.5,550.6,243.9,245.4,3479.5,3488.0,576.2,459.3,695.4,1132.2,1418.6,438.0,14.0,1.0,0.0,14740.0,2879.0,2834.0,5903.0,28.0,-2.0,7.0,1.0,2.0,-1.0,15872.0,3507.0,-688.0,1931.0,20.0,8.0,1.0,1.0
2022-05-08 14:28:10.305459-07:00,883.9,965.4,1474.6,1090.3,631.9,478.2,1393.9,993.6,3480.7,3478.3,689.7,898.3,409.8,3500.2,806.9,798.5,3477.1,3478.3,404.3,657.0,473.5,550.6,243.9,245.4,3474.6,3471.0,569.8,459.3,695.4,1132.2,1418.6,438.0,17.0,-1.0,8.0,14739.0,2883.0,2837.0,5902.0,-7.0,11.0,-13.0,5.0,9.0,4.0,15872.0,3508.0,-687.0,1931.0,-13.0,10.0,-8.0,1.0
2022-05-08 14:28:10.456119-07:00,882.3,962.0,1470.9,1096.4,631.9,478.2,1393.9,993.6,3477.1,3469.8,684.0,895.7,409.8,3500.2,806.9,798.5,3477.1,3478.3,404.3,657.0,476.6,551.4,240.9,247.7,3474.6,3471.0,569.8,459.3,694.6,1129.6,1419.5,439.6,13.0,3.0,-5.0,14737.0,2885.0,2851.0,5901.0,19.0,27.0,-10.0,0.0,2.0,-3.0,15872.0,3511.0,-680.0,1933.0,15.0,19.0,-4.0,1.0
2022-05-08 14:28:10.457160-07:00,874.7,962.0,1470.9,1096.4,635.1,474.3,1391.2,987.6,3477.1,3469.8,684.0,895.7,407.5,3499.0,806.0,800.2,3481.9,3488.0,411.4,657.0,476.6,551.4,240.9,245.4,3480.7,3481.9,575.4,464.0,694.6,1129.6,1419.5,432.5,11.0,1.0,0.0,14738.0,2880.0,2854.0,5899.0,-7.0,-1.0,-1.0,0.0,5.0,10.0,15872.0,3509.0,-679.0,1933.0,-5.0,2.0,-4.0,1.0
2022-05-08 14:28:10.458184-07:00,874.7,960.2,1472.7,1098.2,635.1,474.3,1391.2,991.9,3477.1,3464.9,685.6,899.1,407.5,3499.0,806.0,799.4,3472.2,3488.0,411.4,657.0,479.0,552.2,243.9,245.4,3477.1,3481.9,575.4,464.0,696.2,1128.7,1418.6,432.5,13.0,-6.0,7.0,14737.0,2884.0,2855.0,5898.0,34.0,2.0,2.0,5.0,4.0,5.0,15872.0,3510.0,-679.0,1933.0,23.0,4.0,-6.0,1.0
2022-05-08 14:28:10.575443-07:00,880.6,960.2,1472.7,1098.2,637.6,470.3,1401.2,991.9,3469.8,3464.9,685.6,899.1,412.9,3491.7,804.4,799.4,3472.2,3480.7,411.4,653.8,479.0,552.2,243.9,244.7,3477.1,3479.5,575.4,466.4,696.2,1128.7,1418.6,438.0,13.0,1.0,3.0,14736.0,2890.0,2858.0,5897.0,-1.0,10.0,-7.0,4.0,7.0,4.0,15871.0,3516.0,-677.0,1933.0,-7.0,9.0,-6.0,1.0
2022-05-08 14:28:10.577173-07:00,880.6,965.4,1464.4,1090.3,637.6,470.3,1401.2,997.9,3469.8,3471.0,684.8,896.6,412.9,3491.7,804.4,797.7,3479.5,3480.7,411.4,653.8,473.5,549.8,243.9,244.7,3473.4,3479.5,575.4,466.4,696.2,1125.2,1418.6,438.0,10.0,-4.0,-3.0,14734.0,2891.0,2865.0,5897.0,9.0,9.0,4.0,1.0,1.0,3.0,15871.0,3516.0,-675.0,1934.0,10.0,7.0,-2.0,1.0
2022-05-08 14:28:10.635321-07:00,885.6,965.4,1464.4,1090.3,632.7,471.9,1393.9,997.9,3473.4,3471.0,684.8,896.6,406.7,3507.5,811.9,797.7,3479.5,3479.5,406.7,658.7,473.5,549.8,243.9,243.9,3473.4,3483.2,579.4,462.4,696.2,1125.2,1418.6,436.4,17.0,0.0,-1.0,14732.0,2897.0,2868.0,5897.0,20.0,-1.0,4.0,0.0,14.0,4.0,15870.0,3520.0,-675.0,1934.0,8.0,3.0,1.0,1.0
2022-05-08 14:28:10.665521-07:00,885.6,963.7,1477.3,1098.2,632.7,471.9,1393.9,989.3,3473.4,3475.9,682.3,894.1,406.7,3507.5,811.9,797.7,3480.7,3479.5,406.7,658.7,477.4,553.8,244.7,243.9,3469.8,3483.2,579.4,462.4,687.2,1137.5,1416.7,436.4,13.0,2.0,2.0,14731.0,2902.0,2870.0,5896.0,19.0,9.0,4.0,5.0,12.0,6.0,15869.0,3523.0,-674.0,1934.0,8.0,8.0,-4.0,1.0
2022-05-08 14:28:10.756114-07:00,875.5,963.7,1477.3,1098.2,642.4,474.3,1388.5,989.3,3477.1,3478.3,682.3,894.1,412.1,3496.6,801.9,797.7,3480.7,3483.2,409.0,658.7,477.4,553.8,243.2,243.9,3469.8,3472.2,581.0,456.9,687.2,1137.5,1413.1,433.3,17.0,-2.0,-5.0,14732.0,2899.0,2869.0,5897.0,-2.0,6.0,-1.0,3.0,7.0,2.0,15870.0,3519.0,-673.0,1934.0,-4.0,7.0,-1.0,1.0
2022-05-08 14:28:10.845865-07:00,875.5,963.7,1471.8,1091.2,642.4,474.3,1389.4,991.0,3477.1,3478.3,688.0,899.1,412.1,3496.6,804.4,794.4,3477.1,3478.3,409.0,658.7,476.6,549.8,243.2,243.9,3475.9,3488.0,581.0,456.9,690.5,1132.2,1413.1,433.3,11.0,-6.0,2.0,14731.0,2901.0,2870.0,5897.0,9.0,-5.0,-4.0,1.0,9.0,0.0,15870.0,3519.0,-673.0,1934.0,5.0,1.0,-3.0,1.0
2022-05-08 14:28:10.846923-07:00,883.9,964.5,1471.8,1091.2,635.1,472.7,1389.4,991.0,3478.3,3467.4,688.0,899.1,415.3,3501.4,804.4,794.4,3477.1,3478.3,415.3,654.6,476.6,549.8,247.0,250.8,3475.9,3488.0,575.4,457.7,690.5,1132.2,1414.9,432.5,13.0,9.0,3.0,14731.0,2901.0,2870.0,5897.0,-22.0,4.0,-4.0,2.0,18.0,9.0,15870.0,3518.0,-673.0,1934.0,-19.0,-3.0,-3.0,1.0
2022-05-08 14:28:10.906059-07:00,883.9,964.5,1474.6,1096.4,635.1,472.7,1382.1,997.9,3478.3,3467.4,688.0,897.4,415.3,3501.4,809.4,798.5,3477.1,3478.3,415.3,654.6,474.3,547.4,247.0,250.8,3477.1,3480.7,575.4,457.7,690.5,1132.2,1414.9,432.5,19.0,-4.0,-3.0,14732.0,2897.0,2867.0,5897.0,6.0,-11.0,-1.0,2.0,6.0,-4.0,15872.0,3511.0,-674.0,1934.0,0.0,0.0,0.0,1.0
2022-05-08 14:28:10.906873-07:00,881.4,962.0,1474.6,1096.4,632.7,473.5,1382.1,997.9,3473.4,3469.8,688.0,897.4,407.5,3500.2,809.4,798.5,3477.1,3478.3,405.1,657.0,474.3,547.4,248.5,243.9,3477.1,3480.7,577.8,457.7,690.5,1132.2,1417.6,428.6,9.0,7.0,4.0,14732.0,2899.0,2867.0,5897.0,-9.0,-5.0,-3.0,-2.0,16.0,0.0,15872.0,3511.0,-674.0,1934.0,-8.0,-4.0,-2.0,1.0
2022-05-08 14:28:11.026054-07:00,881.4,962.0,1472.7,1090.3,632.7,477.4,1390.3,991.9,3473.4,3469.8,683.1,898.3,407.5,3491.7,803.5,791.0,3479.5,3479.5,405.1,657.0,475.0,551.4,248.5,243.9,3478.3,3469.8,577.8,457.7,692.1,1128.7,1417.6,428.6,22.0,-2.0,4.0,14733.0,2897.0,2866.0,5897.0,14.0,4.0,6.0,9.0,6.0,0.0,15872.0,3511.0,-674.0,1934.0,18.0,9.0,-3.0,1.0
2022-05-08 14:28:11.026927-07:00,878.0,958.5,1474.6,1090.3,636.7,477.4,1390.3,991.9,3471.0,3478.3,686.4,898.3,412.1,3491.7,803.5,791.0,3479.5,3479.5,403.5,660.3,475.0,549.0,245.4,242.4,3478.3,3469.8,575.4,457.7,692.1,1128.7,1418.6,434.1,12.0,-1.0,3.0,14731.0,2904.0,2871.0,5896.0,19.0,5.0,6.0,2.0,12.0,5.0,15870.0,3519.0,-670.0,1935.0,21.0,11.0,-1.0,1.0
2022-05-08 14:28:11.085392-07:00,878.0,958.5,1474.6,1090.3,636.7,474.3,1385.7,991.9,3471.0,3478.3,686.4,902.5,412.1,3497.8,809.4,799.4,3481.9,3477.1,406.7,660.3,476.6,549.0,245.4,242.4,3481.9,3474.6,575.4,457.7,695.4,1128.7,1418.6,434.1,11.0,-2.0,-3.0,14732.0,2896.0,2868.0,5898.0,-50.0,-5.0,3.0,-3.0,9.0,3.0,15872.0,3511.0,-671.0,1934.0,-44.0,-13.0,8.0,1.0
2022-05-08 14:28:11.205530-07:00,878.9,962.0,1462.6,1090.3,633.5,474.3,1385.7,991.9,3478.3,3473.4,689.7,902.5,411.4,3497.8,809.4,799.4,3481.9,3477.1,406.7,658.7,476.6,547.4,241.6,237.8,3481.9,3474.6,575.4,454.5,695.4,1126.1,1419.5,434.1,13.0,1.0,8.0,14734.0,2889.0,2863.0,5900.0,-6.0,-9.0,-4.0,4.0,7.0,3.0,15873.0,3505.0,-672.0,1934.0,-1.0,-4.0,-1.0,1.0
2022-05-08 14:28:11.235785-07:00,878.9,962.0,1462.6,1099.0,633.5,472.7,1393.9,989.3,3478.3,3473.4,689.7,902.5,411.4,3497.8,809.4,800.2,3479.5,3472.2,404.3,658.7,479.0,547.4,241.6,237.8,3488.0,3478.3,575.4,454.5,694.6,1126.1,1419.5,434.1,18.0,8.0,3.0,14733.0,2893.0,2865.0,5899.0,28.0,12.0,-1.0,3.0,15.0,5.0,15873.0,3507.0,-672.0,1934.0,22.0,8.0,-5.0,1.0
2022-05-08 14:28:11.236907-07:00,883.1,950.9,1466.3,1099.0,639.2,472.7,1393.9,989.3,3468.6,3475.9,685.6,902.5,414.5,3497.8,809.4,800.2,3479.5,3472.2,404.3,652.2,479.0,549.8,244.7,243.9,3488.0,3478.3,575.4,461.6,694.6,1131.4,1409.4,438.0,15.0,-12.0,0.0,14733.0,2886.0,2868.0,5901.0,-19.0,9.0,-5.0,4.0,-2.0,0.0,15874.0,3501.0,-672.0,1934.0,-28.0,-4.0,-1.0,1.0
2022-05-08 14:28:11.385370-07:00,883.1,950.9,1466.3,1092.1,637.6,474.3,1384.8,991.9,3468.6,3475.9,685.6,885.6,412.1,3500.2,803.5,801.9,3478.3,3479.5,405.9,652.2,473.5,549.8,244.7,243.9,3480.7,3478.3,577.0,458.5,693.8,1131.4,1409.4,438.0,20.0,6.0,3.0,14732.0,2893.0,2871.0,5900.0,23.0,-8.0,6.0,5.0,16.0,1.0,15873.0,3507.0,-672.0,1934.0,23.0,3.0,-2.0,1.0
2022-05-08 14:28:11.386529-07:00,874.7,962.0,1462.6,1096.4,637.6,474.3,1384.8,991.9,3479.5,3474.6,683.1,897.4,412.1,3500.2,803.5,801.9,3478.3,3479.5,405.9,652.2,473.5,546.6,247.7,245.4,3480.7,3478.3,577.0,458.5,693.8,1125.2,1420.4,434.9,16.0,1.0,6.0,14732.0,2893.0,2871.0,5900.0,2.0,9.0,7.0,5.0,14.0,3.0,15873.0,3507.0,-672.0,1934.0,-4.0,3.0,0.0,1.0
2022-05-08 14:28:11.387547-07:00,874.7,962.0,1462.6,1096.4,634.3,469.5,1377.5,991.0,3479.5,3474.6,683.1,897.4,410.6,3497.8,804.4,799.4,3479.5,3475.9,404.3,658.7,473.5,546.6,247.7,245.4,3472.2,3480.7,577.0,457.7,693.8,1125.2,1420.4,434.9,17.0,-10.0,-3.0,14732.0,2889.0,2871.0,5901.0,23.0,3.0,5.0,0.0,5.0,-3.0,15873.0,3506.0,-672.0,1934.0,11.0,4.0,-1.0,1.0
2022-05-08 14:28:11.415477-07:00,878.0,961.1,1471.8,1101.7,634.3,469.5,1377.5,991.0,3473.4,3481.9,684.0,894.9,410.6,3497.8,804.4,799.4,3479.5,3475.9,404.3,658.7,479.8,550.6,243.9,243.9,3472.2,3480.7,577.0,457.7,692.9,1131.4,1418.6,437.2,17.0,1.0,4.0,14729.0,2905.0,2878.0,5898.0,54.0,-1.0,7.0,3.0,13.0,2.0,15870.0,3522.0,-670.0,1935.0,45.0,3.0,-3.0,1.0
2022-05-08 14:28:11.475693-07:00,878.0,961.1,1471.8,1101.7,635.9,477.4,1382.1,990.2,3473.4,3481.9,684.0,894.9,410.6,3496.6,807.7,798.5,3478.3,3480.7,406.7,653.8,479.8,550.6,243.9,243.9,3474.6,3473.4,569.0,464.8,692.9,1131.4,1418.6,437.2,16.0,-7.0,0.0,14726.0,2914.0,2881.0,5898.0,29.0,9.0,6.0,3.0,8.0,1.0,15868.0,3528.0,-669.0,1935.0,17.0,5.0,-3.0,1.0
2022-05-08 14:28:11.595942-07:00,881.4,958.5,1490.3,1091.2,635.9,477.4,1382.1,990.2,3472.2,3480.7,689.7,899.1,410.6,3496.6,807.7,798.5,3478.3,3480.7,406.7,653.8,476.6,551.4,244.7,243.9,3474.6,3473.4,569.0,464.8,693.8,1143.6,1421.3,431.7,18.0,4.0,-3.0,14717.0,2942.0,2896.0,5899.0,43.0,8.0,19.0,3.0,9.0,0.0,15862.0,3558.0,-662.0,1934.0,60.0,6.0,-4.0,1.0
2022-05-08 14:28:11.716032-07:00,881.4,958.5,1490.3,1091.2,633.5,471.9,1382.1,988.5,3472.2,3480.7,689.7,899.1,411.4,3501.4,797.7,797.7,3475.9,3467.4,405.1,649.7,476.6,551.4,244.7,243.9,3471.0,3485.6,577.0,458.5,693.8,1143.6,1421.3,431.7,16.0,-17.0,6.0,14711.0,2964.0,2902.0,5902.0,125.0,5.0,24.0,4.0,-3.0,4.0,15856.0,3582.0,-658.0,1935.0,106.0,10.0,-9.0,1.0
2022-05-08 14:28:11.718322-07:00,880.6,958.5,1468.1,1095.6,633.5,471.9,1382.1,979.9,3473.4,3474.6,684.0,900.0,411.4,3501.4,797.7,793.5,3478.3,3467.4,405.1,649.7,476.6,543.4,253.1,246.2,3484.4,3485.6,577.0,458.5,692.9,1127.0,1418.6,432.5,29.0,-26.0,1.0,14691.0,3026.0,2926.0,5907.0,366.0,87.0,40.0,-4.0,-41.0,0.0,15838.0,3666.0,-637.0,1934.0,301.0,34.0,-26.0,1.0
2022-05-08 14:28:11.746264-07:00,883.9,958.5,1468.1,1095.6,639.2,475.0,1390.3,979.9,3477.1,3474.6,684.0,900.0,409.0,3495.3,807.7,793.5,3478.3,3484.4,402.8,651.4,476.6,543.4,253.1,245.4,3484.4,3484.4,573.8,454.5,692.9,1127.0,1418.6,434.1,20.0,-9.0,-1.0,14641.0,3175.0,3027.0,5902.0,451.0,100.0,69.0,2.0,0.0,6.0,15799.0,3843.0,-588.0,1924.0,456.0,57.0,-54.0,1.0
2022-05-08 14:28:11.747496-07:00,883.9,956.0,1470.9,1088.6,639.2,475.0,1390.3,990.2,3477.1,3475.9,684.0,897.4,409.0,3495.3,807.7,800.2,3481.9,3484.4,402.8,651.4,475.8,550.6,247.0,245.4,3462.5,3484.4,573.8,454.5,697.0,1126.1,1420.4,434.1,14.0,-29.0,-14.0,14577.0,3369.0,3133.0,5899.0,661.0,79.0,100.0,-2.0,-5.0,-7.0,15743.0,4079.0,-530.0,1918.0,689.0,61.0,-58.0,1.0
2022-05-08 14:28:11.748557-07:00,882.3,956.0,1470.9,1088.6,631.1,476.6,1390.3,990.2,3467.4,3475.9,684.0,897.4,411.4,3490.5,806.9,800.2,3481.9,3484.4,404.3,653.0,475.8,550.6,247.0,247.7,3462.5,3480.7,576.2,456.1,697.0,1126.1,1420.4,436.4,0.0,-49.0,-15.0,14471.0,3697.0,3278.0,5883.0,990.0,59.0,150.0,-9.0,-25.0,-5.0,15650.0,4436.0,-448.0,1910.0,1009.0,85.0,-71.0,1.0
2022-05-08 14:28:11.805850-07:00,882.3,956.0,1472.7,1082.5,631.1,476.6,1390.3,995.3,3467.4,3473.4,687.2,898.3,411.4,3490.5,806.9,794.4,3475.9,3484.4,404.3,653.0,477.4,549.8,246.2,247.7,3475.9,3480.7,576.2,456.1,690.5,1129.6,1408.5,436.4,25.0,104.0,15.0,14355.0,4055.0,3407.0,5858.0,551.0,-7.0,94.0,-2.0,86.0,8.0,15569.0,4714.0,-381.0,1918.0,352.0,54.0,22.0,1.0
2022-05-08 14:28:11.925511-07:00,881.4,956.0,1472.7,1082.5,635.9,479.8,1385.7,995.3,3471.0,3473.4,687.2,898.3,412.9,3496.6,807.7,794.4,3475.9,3475.9,409.0,655.4,477.4,549.8,246.2,243.9,3475.9,3479.5,580.2,458.5,690.5,1129.6,1408.5,434.1,27.0,21.0,21.0,14332.0,4132.0,3467.0,5826.0,209.0,124.0,-105.0,8.0,27.0,-8.0,15546.0,4788.0,-351.0,1926.0,166.0,62.0,-32.0,1.0
2022-05-08 14:28:11.928278-07:00,881.4,960.2,1475.5,1092.9,635.9,479.8,1412.2,997.9,3471.0,3473.4,685.6,900.0,412.9,3496.6,810.2,798.5,3477.1,3475.9,409.0,655.4,478.2,549.8,244.7,243.9,3484.4,3480.7,580.2,458.5,695.4,1128.7,1413.1,434.1,21.0,-28.0,-6.0,14291.0,4226.0,3598.0,5778.0,458.0,169.0,-78.0,-1.0,-3.0,-20.0,15513.0,4902.0,-302.0,1911.0,377.0,69.0,-69.0,1.0
2022-05-08 14:28:11.955443-07:00,881.4,970.5,1475.5,1092.9,630.3,471.9,1412.2,997.9,3477.1,3472.2,685.6,900.0,407.5,3510.0,810.2,798.5,3477.1,3475.9,404.3,655.4,478.2,549.8,243.9,243.2,3484.4,3480.7,577.0,457.7,695.4,1128.7,1422.2,436.4,7.0,-68.0,-8.0,14221.0,4408.0,3727.0,5733.0,610.0,64.0,35.0,3.0,-61.0,-4.0,15466.0,5054.0,-251.0,1904.0,644.0,95.0,-40.0,1.0
2022-05-08 14:28:12.015511-07:00,881.4,970.5,1477.3,1091.2,630.3,471.9,1407.6,999.6,3477.1,3472.2,688.9,894.9,407.5,3510.0,807.7,800.2,3481.9,3479.5,404.3,655.4,479.0,552.2,243.9,243.2,3472.2,3474.6,577.0,457.7,692.9,1131.4,1422.2,436.4,6.0,-152.0,4.0,14064.0,4831.0,3894.0,5669.0,1603.0,67.0,200.0,41.0,-121.0,-30.0,15329.0,5461.0,-138.0,1901.0,1677.0,107.0,-165.0,1.0
2022-05-08 14:28:12.075447-07:00,885.6,967.9,1477.3,1091.2,635.9,476.6,1407.6,999.6,3478.3,3480.7,688.9,894.9,410.6,3507.5,807.7,800.2,3481.9,3479.5,407.5,656.2,479.0,552.2,242.4,243.9,3472.2,3474.6,580.2,461.6,692.9,1131.4,1415.8,433.3,17.0,27.0,-1.0,13659.0,5737.0,4219.0,5582.0,2660.0,122.0,586.0,-9.0,56.0,-16.0,15000.0,6319.0,80.0,1868.0,2363.0,338.0,-87.0,1.0
2022-05-08 14:28:12.105474-07:00,885.6,967.9,1474.6,1096.4,635.9,476.6,1411.3,1006.5,3478.3,3480.7,692.9,898.3,410.6,3507.5,809.4,801.9,3478.3,3469.8,407.5,656.2,475.0,554.6,242.4,243.9,3478.3,3479.5,580.2,461.6,706.0,1130.5,1415.8,433.3,17.0,96.0,20.0,13232.0,6526.0,4520.0,5507.0,1827.0,142.0,165.0,12.0,21.0,0.0,14648.0,7084.0,321.0,1889.0,1592.0,338.0,-91.0,1.0
2022-05-08 14:28:12.165493-07:00,880.6,960.2,1482.9,1096.4,636.7,471.9,1411.3,1006.5,3468.6,3469.8,694.6,898.3,409.8,3499.0,809.4,801.9,3478.3,3469.8,405.9,653.0,475.0,549.8,245.4,243.2,3478.3,3479.5,590.7,461.6,706.0,1125.2,1414.9,430.9,37.0,-32.0,-8.0,12838.0,7209.0,4864.0,5290.0,2281.0,228.0,93.0,7.0,-14.0,-47.0,14311.0,7729.0,586.0,1881.0,2040.0,375.0,-259.0,1.0
2022-05-08 14:28:12.225328-07:00,880.6,960.2,1482.9,1096.4,636.7,475.0,1411.3,1015.1,3468.6,3469.8,694.6,900.0,409.8,3499.0,812.7,798.5,3477.1,3484.4,402.8,653.0,478.2,549.8,245.4,243.2,3479.5,3483.2,588.3,461.6,700.3,1125.2,1414.9,430.9,20.0,85.0,-20.0,12327.0,7962.0,5233.0,5071.0,2096.0,209.0,72.0,-3.0,20.0,-7.0,13890.0,8446.0,892.0,1836.0,1779.0,408.0,-253.0,1.0
2022-05-08 14:28:12.255563-07:00,881.4,967.9,1477.3,1096.4,639.2,475.0,1411.3,1015.1,3471.0,3469.8,692.9,900.0,412.1,3499.0,812.7,798.5,3477.1,3484.4,402.8,659.5,478.2,560.2,247.7,246.2,3479.5,3483.2,588.3,460.8,700.3,1132.2,1419.5,436.4,13.0,-107.0,7.0,11876.0,8562.0,5542.0,4836.0,2170.0,173.0,63.0,-1.0,-73.0,-36.0,13499.0,9030.0,1183.0,1808.0,2055.0,438.0,-242.0,1.0
2022-05-08 14:28:12.345335-07:00,881.4,967.9,1477.3,1086.8,639.2,475.8,1422.2,1015.1,3471.0,3469.8,692.9,903.4,412.1,3502.7,811.0,800.2,3483.2,3478.3,406.7,659.5,479.0,560.2,247.7,246.2,3484.4,3475.9,589.1,460.8,692.1,1132.2,1419.5,436.4,15.0,55.0,-3.0,11184.0,9386.0,5873.0,4558.0,2648.0,184.0,287.0,4.0,-4.0,-11.0,12924.0,9799.0,1521.0,1755.0,2347.0,506.0,-255.0,1.0
2022-05-08 14:28:12.346641-07:00,878.0,975.6,1469.0,1086.8,634.3,475.8,1422.2,1015.1,3467.4,3469.8,693.8,903.4,410.6,3502.7,811.0,800.2,3483.2,3478.3,406.7,654.6,479.0,559.4,245.4,245.4,3484.4,3475.9,589.1,454.5,692.1,1128.7,1433.2,434.1,24.0,-100.0,-17.0,10599.0,10026.0,6105.0,4280.0,2133.0,-9.0,141.0,-4.0,-58.0,-52.0,12409.0,10398.0,1816.0,1740.0,1784.0,479.0,-138.0,1.0
2022-05-08 14:28:12.406228-07:00,878.0,975.6,1469.0,1098.2,634.3,475.8,1426.8,1011.6,3467.4,3469.8,693.8,893.2,410.6,3496.6,820.2,801.9,3478.3,3475.9,403.5,654.6,480.6,559.4,245.4,245.4,3477.1,3477.1,584.3,454.5,697.0,1128.7,1433.2,434.1,27.0,16.0,-31.0,9880.0,10774.0,6303.0,3875.0,2739.0,-164.0,192.0,-3.0,5.0,-53.0,11824.0,11016.0,2069.0,1730.0,2125.0,415.0,-81.0,1.0
2022-05-08 14:28:12.465549-07:00,874.7,967.9,1479.2,1090.3,632.7,475.8,1426.8,1011.6,3478.3,3472.2,696.2,894.1,407.5,3496.6,820.2,801.9,3478.3,3475.9,403.5,654.6,473.5,566.6,249.2,244.7,3477.1,3477.1,584.3,461.6,694.6,1130.5,1415.8,430.9,23.0,7.0,-29.0,9231.0,11369.0,6466.0,3485.0,1944.0,-58.0,33.0,3.0,-75.0,-44.0,11283.0,11536.0,2277.0,1693.0,1573.0,260.0,-95.0,1.0
2022-05-08 14:28:12.495643-07:00,874.7,967.9,1479.2,1090.3,633.5,474.3,1420.4,1014.2,3478.3,3472.2,696.2,894.1,409.8,3502.7,816.9,796.0,3471.0,3478.3,403.5,659.5,473.5,566.6,249.2,244.7,3472.2,3481.9,584.3,462.4,694.6,1130.5,1415.8,430.9,44.0,-54.0,-10.0,8599.0,11888.0,6590.0,3120.0,2218.0,-96.0,181.0,26.0,-121.0,-50.0,10759.0,12000.0,2434.0,1660.0,1729.0,220.0,27.0,1.0
2022-05-08 14:28:12.555583-07:00,876.4,967.9,1478.3,1092.9,633.5,474.3,1420.4,1014.2,3480.7,3480.7,692.9,900.8,409.8,3502.7,816.9,796.0,3471.0,3478.3,403.5,659.5,477.4,573.0,239.3,243.9,3472.2,3481.9,584.3,462.4,692.1,1126.1,1417.6,433.3,38.0,43.0,-7.0,7861.0,12432.0,6682.0,2728.0,2187.0,-87.0,174.0,-8.0,-10.0,-54.0,10124.0,12523.0,2578.0,1577.0,1904.0,113.0,-52.0,1.0
2022-05-08 14:28:12.616300-07:00,876.4,967.9,1478.3,1092.9,633.5,474.3,1427.7,1003.9,3480.7,3480.7,692.9,900.8,413.7,3495.3,817.7,791.0,3467.4,3479.5,405.9,656.2,477.4,573.0,239.3,243.9,3485.6,3475.9,581.0,456.9,692.1,1126.1,1417.6,433.3,15.0,-95.0,37.0,7146.0,12873.0,6783.0,2377.0,2387.0,26.0,151.0,14.0,-37.0,-27.0,9472.0,13012.0,2700.0,1459.0,2133.0,106.0,-38.0,1.0
2022-05-08 14:28:12.645625-07:00,882.3,967.9,1481.9,1098.2,633.5,474.3,1427.7,1003.9,3475.9,3474.6,697.0,897.4,413.7,3495.3,817.7,791.0,3467.4,3479.5,405.9,656.2,479.0,576.2,248.5,249.2,3485.6,3475.9,581.0,456.9,696.2,1126.1,1428.6,435.7,32.0,57.0,0.0,6299.0,13352.0,6836.0,1939.0,2200.0,-171.0,228.0,31.0,15.0,-25.0,8769.0,13485.0,2808.0,1341.0,1775.0,77.0,-44.0,1.0
2022-05-08 14:28:12.705493-07:00,882.3,967.9,1481.9,1098.2,637.6,475.0,1423.1,1008.2,3475.9,3474.6,697.0,897.4,410.6,3500.2,822.7,805.2,3474.6,3472.2,409.0,656.2,479.0,576.2,248.5,249.2,3483.2,3477.1,572.2,459.3,696.2,1126.1,1428.6,435.7,42.0,-35.0,47.0,5585.0,13702.0,6853.0,1590.0,2002.0,92.0,142.0,0.0,-55.0,-36.0,8120.0,13878.0,2896.0,1224.0,1861.0,101.0,-27.0,1.0
2022-05-08 14:28:12.796221-07:00,876.4,965.4,1481.9,1093.8,637.6,475.0,1423.1,1011.6,3477.1,3472.2,699.5,896.6,410.6,3500.2,822.7,799.4,3475.9,3472.2,409.0,656.2,476.6,578.6,243.9,247.7,3471.0,3477.1,572.2,459.3,694.6,1130.5,1423.1,435.7,7.0,12.0,23.0,4755.0,14025.0,6891.0,1278.0,2208.0,128.0,226.0,-6.0,28.0,24.0,7386.0,14275.0,2978.0,1115.0,1921.0,146.0,19.0,1.0
2022-05-08 14:28:12.855417-07:00,880.6,965.4,1481.9,1093.8,636.7,474.3,1423.1,1011.6,3477.1,3472.2,699.5,896.6,412.9,3502.7,825.2,799.4,3475.9,3471.0,409.0,660.3,476.6,578.6,243.9,247.7,3471.0,3477.1,581.8,466.4,694.6,1130.5,1423.1,436.4,59.0,37.0,10.0,3986.0,14283.0,6898.0,990.0,1815.0,262.0,40.0,25.0,-74.0,-59.0,6689.0,14606.0,3053.0,1024.0,1759.0,127.0,-40.0,1.0
2022-05-08 14:28:12.975472-07:00,880.6,962.8,1487.5,1092.9,636.7,474.3,1423.1,1021.9,3477.1,3478.3,699.5,905.9,412.9,3502.7,825.2,797.7,3473.4,3471.0,409.0,660.3,478.2,581.8,246.2,247.7,3474.6,3477.1,581.8,466.4,689.7,1128.7,1415.8,436.4,8.0,74.0,2.0,3241.0,14426.0,7013.0,798.0,1714.0,371.0,-113.0,4.0,-11.0,9.0,5999.0,14885.0,3164.0,931.0,1621.0,199.0,-119.0,1.0
2022-05-08 14:28:12.977841-07:00,882.3,962.8,1487.5,1092.9,643.2,473.5,1424.1,1021.9,3467.4,3478.3,699.5,905.9,410.6,3496.6,821.0,797.7,3473.4,3479.5,409.8,659.5,478.2,581.8,246.2,241.6,3474.6,3478.3,582.6,474.3,689.7,1128.7,1415.8,437.2,26.0,37.0,-26.0,2676.0,14506.0,7102.0,647.0,1128.0,257.0,-109.0,3.0,-32.0,-21.0,5466.0,15067.0,3284.0,876.0,1160.0,188.0,-150.0,1.0
2022-05-08 14:28:12.979017-07:00,882.3,977.3,1498.6,1105.1,643.2,473.5,1424.1,1039.2,3467.4,3473.4,714.2,902.5,410.6,3496.6,821.0,799.4,3474.6,3479.5,409.8,659.5,476.6,581.8,244.7,241.6,3472.2,3478.3,582.6,474.3,691.3,1131.4,1415.8,437.2,28.0,43.0,18.0,2198.0,14536.0,7213.0,539.0,1013.0,360.0,-255.0,18.0,-53.0,-31.0,5007.0,15201.0,3407.0,822.0,1015.0,163.0,-215.0,1.0
2022-05-08 14:28:13.035454-07:00,882.3,977.3,1498.6,1105.1,626.2,475.8,1447.9,1039.2,3478.3,3473.4,714.2,902.5,411.4,3495.3,836.9,799.4,3474.6,3484.4,409.0,655.4,476.6,581.8,244.7,250.8,3472.2,3480.7,590.7,474.3,691.3,1131.4,1415.8,440.4,30.0,53.0,8.0,1776.0,14526.0,7349.0,499.0,884.0,422.0,-274.0,24.0,-57.0,-27.0,4617.0,15299.0,3533.0,758.0,933.0,108.0,-246.0,1.0
2022-05-08 14:28:13.095482-07:00,882.3,986.7,1500.4,1097.3,626.2,475.8,1466.3,1028.0,3478.3,3472.2,697.0,894.1,411.4,3495.3,839.4,798.5,3473.4,3471.0,409.0,655.4,477.4,569.8,244.7,250.8,3478.3,3477.1,590.7,474.3,692.1,1126.1,1411.3,440.4,-1.0,50.0,13.0,1447.0,14486.0,7499.0,515.0,504.0,378.0,-332.0,12.0,-76.0,4.0,4315.0,15358.0,3669.0,703.0,550.0,131.0,-273.0,1.0
2022-05-08 14:28:13.096734-07:00,885.6,990.2,1500.4,1097.3,633.5,475.8,1466.3,1028.0,3473.4,3472.2,697.0,894.1,413.7,3503.9,839.4,798.5,3473.4,3471.0,409.0,659.5,477.4,569.8,249.2,247.7,3478.3,3477.1,592.3,477.4,692.1,1126.1,1417.6,440.4,4.0,0.0,17.0,1233.0,14441.0,7622.0,529.0,416.0,250.0,-259.0,4.0,-89.0,-11.0,4108.0,15385.0,3796.0,675.0,526.0,119.0,-245.0,1.0
2022-05-08 14:28:13.155575-07:00,885.6,990.2,1497.7,1099.0,633.5,475.8,1457.1,1025.4,3473.4,3472.2,704.4,900.8,413.7,3503.9,843.6,806.0,3481.9,3475.9,409.0,659.5,478.2,571.4,249.2,247.7,3480.7,3483.2,592.3,477.4,697.0,1127.0,1417.6,440.4,18.0,33.0,25.0,1043.0,14407.0,7714.0,523.0,274.0,180.0,-192.0,-13.0,1.0,16.0,3940.0,15400.0,3913.0,658.0,286.0,116.0,-217.0,1.0
2022-05-08 14:28:13.215415-07:00,878.0,979.9,1497.7,1099.0,635.9,481.4,1457.1,1025.4,3473.4,3473.4,704.4,900.8,410.6,3490.5,843.6,806.0,3481.9,3475.9,406.7,654.6,478.2,571.4,243.9,246.2,3480.7,3483.2,589.1,476.6,697.0,1127.0,1418.6,438.0,29.0,-25.0,-18.0,984.0,14381.0,7768.0,558.0,82.0,161.0,-156.0,19.0,-111.0,-49.0,3866.0,15396.0,4001.0,669.0,108.0,83.0,-153.0,1.0
2022-05-08 14:28:13.246147-07:00,878.0,979.9,1494.0,1103.4,635.9,481.4,1447.0,1012.5,3473.4,3473.4,702.8,905.9,410.6,3490.5,841.9,802.7,3469.8,3475.9,406.7,654.6,480.6,572.2,243.9,246.2,3472.2,3475.9,589.1,476.6,697.9,1128.7,1418.6,438.0,7.0,14.0,-15.0,936.0,14357.0,7817.0,566.0,-54.0,-68.0,-39.0,22.0,-60.0,-9.0,3831.0,15394.0,4042.0,662.0,-45.0,-9.0,-49.0,1.0
2022-05-08 14:28:13.365376-07:00,880.6,984.2,1494.0,1103.4,633.5,474.3,1447.0,1012.5,3462.5,3477.1,702.8,905.9,412.1,3496.6,841.9,802.7,3469.8,3475.9,408.2,655.4,480.6,572.2,243.9,250.8,3472.2,3475.9,588.3,477.4,697.9,1128.7,1420.4,434.9,23.0,-6.0,34.0,952.0,14363.0,7807.0,537.0,81.0,-54.0,66.0,14.0,-84.0,-17.0,3828.0,15398.0,4033.0,652.0,59.0,-27.0,46.0,1.0
2022-05-08 14:28:13.395961-07:00,880.6,984.2,1499.5,1108.6,633.5,474.3,1450.6,1004.8,3462.5,3477.1,701.1,896.6,412.1,3502.7,841.9,797.7,3477.1,3472.2,408.2,655.4,483.0,569.0,243.9,250.8,3473.4,3478.3,587.5,477.4,698.7,1128.7,1420.4,434.9,-3.0,29.0,24.0,954.0,14379.0,7778.0,519.0,-18.0,-48.0,86.0,3.0,-54.0,0.0,3792.0,15412.0,4013.0,643.0,-31.0,-11.0,55.0,1.0
2022-05-08 14:28:13.455420-07:00,876.4,984.2,1492.1,1108.6,631.1,474.3,1450.6,1004.8,3478.3,3473.4,701.9,896.6,416.1,3502.7,841.9,797.7,3477.1,3472.2,408.2,656.2,483.0,573.8,250.8,247.0,3473.4,3478.3,587.5,476.6,698.7,1129.6,1424.1,438.0,11.0,43.0,22.0,975.0,14394.0,7749.0,509.0,-32.0,-21.0,33.0,9.0,-61.0,-3.0,3778.0,15419.0,3998.0,646.0,-25.0,1.0,27.0,1.0
2022-05-08 14:28:13.456586-07:00,876.4,984.2,1492.1,1099.0,631.1,473.5,1478.3,1004.8,3478.3,3473.4,701.9,897.4,416.1,3497.8,852.0,799.4,3480.7,3477.1,411.4,656.2,479.8,573.8,250.8,247.0,3488.0,3484.4,583.5,476.6,697.0,1129.6,1424.1,438.0,16.0,41.0,5.0,1006.0,14396.0,7740.0,528.0,16.0,-50.0,8.0,14.0,-46.0,-3.0,3756.0,15426.0,3994.0,648.0,5.0,-13.0,2.0,1.0
2022-05-08 14:28:13.545536-07:00,880.6,979.0,1491.2,1099.0,638.4,473.5,1478.3,1004.8,3477.1,3466.1,700.3,897.4,410.6,3497.8,852.0,799.4,3480.7,3477.1,411.4,657.9,479.8,565.0,243.9,242.4,3488.0,3484.4,583.5,479.8,697.0,1128.7,1418.6,439.6,15.0,35.0,25.0,1023.0,14396.0,7738.0,519.0,-4.0,-41.0,-16.0,11.0,-45.0,2.0,3724.0,15434.0,3994.0,642.0,-10.0,-7.0,-14.0,1.0
2022-05-08 14:28:13.547045-07:00,880.6,979.0,1491.2,1103.4,638.4,480.6,1447.9,993.6,3477.1,3466.1,700.3,897.4,410.6,3496.6,847.0,804.4,3480.7,3475.9,406.7,657.9,479.8,565.0,243.9,242.4,3478.3,3486.8,589.1,479.8,701.9,1128.7,1418.6,439.6,9.0,15.0,17.0,1038.0,14394.0,7740.0,521.0,-20.0,-7.0,16.0,5.0,-54.0,-1.0,3698.0,15439.0,3998.0,643.0,-22.0,-12.0,-1.0,1.0
2022-05-08 14:28:13.665550-07:00,875.5,973.1,1489.3,1103.4,640.8,480.6,1447.9,993.6,3472.2,3472.2,701.1,897.4,411.4,3496.6,847.0,804.4,3480.7,3475.9,406.7,657.0,479.8,566.6,243.9,247.0,3478.3,3486.8,589.1,482.2,701.9,1126.1,1424.1,435.7,10.0,4.0,8.0,1058.0,14398.0,7730.0,527.0,-37.0,-39.0,29.0,13.0,-62.0,-4.0,3681.0,15444.0,3994.0,638.0,-38.0,-22.0,20.0,1.0
2022-05-08 14:28:13.667306-07:00,875.5,973.1,1489.3,1110.4,635.9,479.8,1445.1,994.5,3472.2,3472.2,701.1,902.5,412.1,3502.7,841.1,802.7,3479.5,3479.5,404.3,654.6,478.2,566.6,243.9,247.0,3478.3,3477.1,587.5,479.0,696.2,1126.1,1424.1,435.7,11.0,42.0,10.0,1091.0,14404.0,7714.0,516.0,-120.0,-71.0,37.0,5.0,-27.0,-2.0,3677.0,15449.0,3982.0,633.0,-133.0,-19.0,18.0,1.0
2022-05-08 14:28:13.725499-07:00,871.3,980.7,1501.4,1098.2,635.9,479.8,1445.1,994.5,3473.4,3483.2,701.1,895.7,412.1,3502.7,841.1,802.7,3479.5,3479.5,404.3,654.6,478.2,567.4,247.7,243.9,3478.3,3477.1,587.5,479.0,696.2,1127.9,1414.9,439.6,8.0,-1.0,25.0,1169.0,14404.0,7701.0,537.0,-117.0,-35.0,19.0,6.0,-49.0,1.0,3722.0,15440.0,3970.0,641.0,-156.0,-20.0,21.0,1.0
2022-05-08 14:28:13.755422-07:00,871.3,980.7,1501.4,1098.2,635.1,475.0,1470.0,999.6,3473.4,3483.2,701.1,895.7,412.1,3500.2,845.3,801.9,3477.1,3479.5,407.5,657.9,478.2,567.4,247.7,243.9,3479.5,3484.4,585.1,481.4,696.2,1127.9,1414.9,439.6,8.0,26.0,16.0,1209.0,14409.0,7685.0,530.0,-26.0,-94.0,47.0,12.0,-31.0,7.0,3742.0,15439.0,3955.0,642.0,-54.0,-24.0,35.0,1.0
2022-05-08 14:28:13.815711-07:00,879.7,986.7,1490.3,1106.0,635.1,475.0,1470.0,999.6,3473.4,3483.2,700.3,898.3,412.1,3500.2,845.3,801.9,3477.1,3479.5,407.5,657.9,482.2,569.8,248.5,249.2,3479.5,3484.4,585.1,481.4,699.5,1140.1,1420.4,437.2,20.0,30.0,25.0,1250.0,14416.0,7667.0,530.0,-42.0,-27.0,34.0,9.0,-34.0,0.0,3759.0,15438.0,3942.0,647.0,-49.0,1.0,17.0,1.0
2022-05-08 14:28:13.845621-07:00,879.7,986.7,1490.3,1106.0,636.7,473.5,1448.8,997.0,3473.4,3483.2,700.3,898.3,406.7,3501.4,841.9,799.4,3474.6,3477.1,405.1,653.0,482.2,569.8,248.5,249.2,3478.3,3488.0,589.1,479.0,699.5,1140.1,1420.4,437.2,4.0,37.0,14.0,1263.0,14415.0,7666.0,549.0,-7.0,16.0,-18.0,2.0,-17.0,8.0,3749.0,15441.0,3941.0,648.0,-7.0,7.0,-3.0,1.0
2022-05-08 14:28:13.906084-07:00,882.3,984.2,1493.0,1108.6,636.7,473.5,1448.8,997.0,3475.9,3483.2,701.1,901.7,406.7,3501.4,841.9,799.4,3474.6,3477.1,405.1,653.0,480.6,562.6,248.5,250.0,3478.3,3488.0,589.1,479.0,699.5,1132.2,1417.6,440.4,7.0,-7.0,20.0,1289.0,14411.0,7667.0,565.0,-66.0,0.0,-10.0,3.0,-43.0,1.0,3761.0,15438.0,3941.0,655.0,-56.0,14.0,-5.0,1.0
2022-05-08 14:28:13.965435-07:00,881.4,984.2,1493.0,1108.6,630.3,475.0,1443.3,986.7,3471.0,3483.2,701.1,901.7,407.5,3501.4,837.7,803.5,3477.1,3481.9,405.1,654.6,480.6,562.6,248.5,249.2,3488.0,3485.6,585.1,480.6,699.5,1132.2,1417.6,439.6,3.0,19.0,15.0,1293.0,14410.0,7667.0,571.0,-21.0,16.0,-1.0,3.0,-33.0,11.0,3751.0,15440.0,3942.0,659.0,-10.0,13.0,4.0,1.0
2022-05-08 14:28:13.995696-07:00,881.4,975.6,1493.0,1106.0,630.3,475.0,1443.3,987.6,3471.0,3477.1,701.9,900.8,407.5,3501.4,837.7,801.9,3481.9,3481.9,405.1,654.6,478.2,565.8,246.2,249.2,3483.2,3485.6,585.1,480.6,695.4,1125.2,1420.4,439.6,11.0,23.0,12.0,1300.0,14410.0,7666.0,577.0,21.0,-9.0,10.0,6.0,-26.0,5.0,3742.0,15442.0,3941.0,660.0,20.0,0.0,10.0,1.0
2022-05-08 14:28:14.055428-07:00,882.3,975.6,1493.0,1106.0,640.8,478.2,1436.9,987.6,3469.8,3477.1,701.9,900.8,409.8,3507.5,836.9,801.9,3481.9,3472.2,409.0,657.0,478.2,565.8,246.2,244.7,3483.2,3481.9,589.9,475.8,695.4,1125.2,1420.4,436.4,20.0,25.0,15.0,1302.0,14413.0,7661.0,574.0,1.0,-19.0,24.0,15.0,-30.0,2.0,3734.0,15444.0,3940.0,661.0,-8.0,10.0,6.0,1.0
2022-05-08 14:28:14.116116-07:00,882.3,981.6,1500.4,1113.0,640.8,478.2,1436.9,985.9,3469.8,3478.3,701.1,897.4,409.8,3507.5,836.9,801.0,3483.2,3472.2,409.0,657.0,475.8,565.8,244.7,244.7,3473.4,3481.9,589.9,475.8,695.4,1128.7,1418.6,436.4,-3.0,24.0,14.0,1309.0,14413.0,7658.0,581.0,4.0,2.0,-4.0,0.0,-21.0,10.0,3723.0,15447.0,3941.0,665.0,8.0,8.0,1.0,1.0
2022-05-08 14:28:14.145946-07:00,878.0,981.6,1500.4,1113.0,631.9,475.0,1454.3,985.9,3473.4,3478.3,701.1,897.4,410.6,3507.5,840.3,801.0,3483.2,3474.6,405.9,654.6,475.8,565.8,244.7,247.7,3473.4,3478.3,589.1,478.2,695.4,1128.7,1418.6,438.8,10.0,10.0,11.0,1314.0,14412.0,7658.0,591.0,22.0,27.0,-2.0,5.0,-41.0,7.0,3715.0,15448.0,3942.0,669.0,11.0,13.0,-7.0,1.0
2022-05-08 14:28:14.205418-07:00,878.0,986.7,1489.3,1097.3,631.9,475.0,1454.3,986.7,3473.4,3478.3,702.8,904.2,410.6,3507.5,840.3,802.7,3488.0,3474.6,405.9,654.6,477.4,568.2,247.0,247.7,3474.6,3478.3,589.1,478.2,702.8,1129.6,1422.2,438.8,7.0,21.0,5.0,1306.0,14413.0,7659.0,590.0,12.0,-29.0,8.0,8.0,-25.0,6.0,3701.0,15451.0,3944.0,669.0,3.0,-7.0,-1.0,1.0
2022-05-08 14:28:14.235426-07:00,877.2,979.9,1489.3,1097.3,635.1,477.4,1439.6,986.7,3474.6,3473.4,702.8,904.2,411.4,3494.1,841.9,802.7,3488.0,3480.7,402.8,653.0,477.4,568.2,240.9,250.8,3474.6,3489.2,583.5,478.2,702.8,1129.6,1418.6,439.6,3.0,7.0,22.0,1323.0,14412.0,7657.0,586.0,2.0,-19.0,3.0,3.0,-35.0,-1.0,3701.0,15451.0,3944.0,670.0,-2.0,0.0,-5.0,1.0
2022-05-08 14:28:14.295845-07:00,877.2,979.9,1490.3,1099.0,635.1,477.4,1436.9,984.2,3474.6,3473.4,706.0,904.2,411.4,3494.1,844.4,799.4,3472.2,3478.3,402.8,653.0,479.8,566.6,240.9,250.8,3477.1,3483.2,583.5,478.2,706.0,1126.1,1418.6,439.6,2.0,17.0,10.0,1322.0,14413.0,7657.0,583.0,17.0,-17.0,-1.0,5.0,-25.0,11.0,3694.0,15453.0,3944.0,669.0,8.0,5.0,-2.0,1.0
2022-05-08 14:28:14.355492-07:00,876.4,983.3,1490.3,1099.0,635.9,477.4,1436.9,984.2,3467.4,3473.4,706.0,904.2,410.6,3503.9,844.4,799.4,3472.2,3478.3,405.9,664.4,479.8,566.6,244.7,247.0,3477.1,3483.2,589.1,481.4,706.0,1126.1,1417.6,435.7,7.0,21.0,17.0,1323.0,14413.0,7657.0,574.0,9.0,-22.0,-10.0,4.0,-23.0,-2.0,3680.0,15456.0,3945.0,667.0,11.0,2.0,-12.0,1.0
2022-05-08 14:28:14.385426-07:00,876.4,983.3,1494.0,1099.0,635.9,477.4,1437.8,986.7,3467.4,3473.4,702.8,905.0,410.6,3503.9,841.1,800.2,3477.1,3481.9,405.9,664.4,480.6,566.6,244.7,247.0,3472.2,3477.1,589.1,481.4,694.6,1131.4,1417.6,435.7,4.0,5.0,13.0,1326.0,14410.0,7661.0,580.0,4.0,13.0,-9.0,2.0,-25.0,5.0,3674.0,15455.0,3953.0,668.0,4.0,15.0,-14.0,1.0
2022-05-08 14:28:14.476140-07:00,874.7,981.6,1494.0,1099.0,635.9,475.0,1437.8,986.7,3468.6,3475.9,702.8,905.0,412.9,3497.8,841.1,800.2,3477.1,3481.9,405.9,654.6,480.6,566.6,247.0,246.2,3472.2,3477.1,588.3,477.4,694.6,1131.4,1419.5,434.9,4.0,17.0,8.0,1326.0,14407.0,7666.0,583.0,6.0,8.0,-15.0,3.0,-23.0,1.0,3667.0,15455.0,3962.0,664.0,6.0,6.0,-24.0,1.0
2022-05-08 14:28:14.505439-07:00,874.7,981.6,1490.3,1101.7,635.9,475.0,1430.5,986.7,3468.6,3475.9,702.8,896.6,412.9,3497.8,838.6,799.4,3478.3,3479.5,405.9,654.6,476.6,566.6,247.0,246.2,3477.1,3467.4,588.3,477.4,694.6,1132.2,1419.5,434.9,10.0,18.0,10.0,1318.0,14404.0,7674.0,579.0,23.0,-3.0,-20.0,7.0,-21.0,3.0,3650.0,15457.0,3971.0,661.0,21.0,11.0,-21.0,1.0
2022-05-08 14:28:14.535506-07:00,874.7,982.5,1481.0,1101.7,630.3,476.6,1430.5,986.7,3468.6,3477.1,701.9,896.6,408.2,3495.3,838.6,799.4,3478.3,3479.5,408.2,657.9,476.6,562.6,243.9,245.4,3477.1,3467.4,584.3,480.6,694.6,1133.1,1415.8,442.7,6.0,18.0,12.0,1319.0,14400.0,7681.0,575.0,2.0,-9.0,-18.0,8.0,-22.0,9.0,3643.0,15456.0,3980.0,658.0,-1.0,4.0,-23.0,1.0
2022-05-08 14:28:14.595489-07:00,874.7,982.5,1481.0,1101.7,630.3,473.5,1433.2,981.6,3468.6,3477.1,701.9,902.5,408.2,3503.9,838.6,805.2,3477.1,3484.4,403.5,657.9,476.6,562.6,243.9,245.4,3480.7,3479.5,589.1,480.6,693.8,1133.1,1415.8,442.7,2.0,3.0,7.0,1317.0,14398.0,7686.0,572.0,32.0,-7.0,-8.0,3.0,-24.0,3.0,3635.0,15457.0,3986.0,656.0,19.0,4.0,-9.0,1.0
2022-05-08 14:28:14.655462-07:00,879.7,982.5,1484.7,1101.7,636.7,473.5,1433.2,981.6,3467.4,3479.5,701.1,902.5,409.8,3503.9,838.6,805.2,3477.1,3484.4,403.5,654.6,476.6,567.4,242.4,246.2,3480.7,3479.5,589.1,479.8,693.8,1133.1,1425.0,434.9,3.0,4.0,9.0,1317.0,14399.0,7685.0,563.0,2.0,-23.0,11.0,7.0,-33.0,0.0,3626.0,15459.0,3986.0,655.0,-5.0,-1.0,1.0,1.0
2022-05-08 14:28:14.685951-07:00,879.7,982.5,1484.7,1105.1,636.7,479.8,1436.9,984.2,3467.4,3479.5,701.1,900.8,409.8,3494.1,839.4,797.7,3474.6,3479.5,404.3,654.6,479.8,567.4,242.4,246.2,3479.5,3478.3,585.1,479.8,697.0,1133.1,1425.0,434.9,2.0,10.0,11.0,1318.0,14404.0,7676.0,555.0,-13.0,-22.0,24.0,5.0,-18.0,6.0,3621.0,15460.0,3986.0,655.0,-11.0,-8.0,4.0,1.0
2022-05-08 14:28:14.745666-07:00,878.9,982.5,1482.9,1105.1,638.4,479.8,1436.9,984.2,3483.2,3475.9,699.5,900.8,412.9,3494.1,839.4,797.7,3474.6,3479.5,404.3,657.0,479.8,568.2,243.2,250.8,3479.5,3478.3,585.1,483.7,697.0,1141.0,1419.5,437.2,1.0,10.0,7.0,1330.0,14408.0,7666.0,550.0,-13.0,-28.0,25.0,2.0,-27.0,6.0,3623.0,15460.0,3985.0,653.0,-12.0,-19.0,8.0,1.0
2022-05-08 14:28:14.806033-07:00,878.9,982.5,1482.9,1105.1,638.4,473.5,1433.2,975.6,3483.2,3475.9,699.5,898.3,412.9,3505.1,840.3,802.7,3483.2,3473.4,405.9,657.0,483.7,568.2,243.2,250.8,3480.7,3480.7,584.3,483.7,694.6,1141.0,1419.5,437.2,6.0,22.0,17.0,1334.0,14414.0,7656.0,537.0,12.0,-31.0,20.0,7.0,-12.0,8.0,3619.0,15462.0,3983.0,644.0,-1.0,-16.0,8.0,1.0
2022-05-08 14:28:14.865499-07:00,878.0,987.6,1477.3,1101.7,635.9,473.5,1433.2,975.6,3475.9,3478.3,697.9,905.9,410.6,3505.1,840.3,802.7,3483.2,3473.4,405.9,659.5,475.8,562.6,244.7,243.9,3480.7,3480.7,584.3,480.6,693.8,1127.0,1415.8,438.8,0.0,3.0,15.0,1353.0,14415.0,7650.0,546.0,-36.0,3.0,9.0,1.0,-19.0,4.0,3633.0,15459.0,3980.0,648.0,-82.0,17.0,6.0,1.0
2022-05-08 14:28:14.925410-07:00,878.0,987.6,1477.3,1101.7,639.2,471.9,1441.5,979.0,3475.9,3478.3,697.9,905.9,407.5,3502.7,843.6,803.5,3484.4,3475.9,405.1,650.5,475.8,562.6,244.7,243.9,3488.0,3472.2,587.5,475.8,693.8,1127.0,1415.8,438.8,0.0,20.0,7.0,1360.0,14416.0,7647.0,545.0,-2.0,-19.0,10.0,1.0,-13.0,9.0,3648.0,15455.0,3980.0,652.0,-6.0,-15.0,-2.0,1.0
2022-05-08 14:28:14.955430-07:00,888.2,987.6,1481.0,1101.7,639.2,471.9,1441.5,979.0,3473.4,3475.9,700.3,900.8,407.5,3502.7,843.6,803.5,3484.4,3475.9,405.1,650.5,478.2,566.6,250.8,242.4,3488.0,3472.2,587.5,475.8,693.8,1134.0,1420.4,437.2,7.0,9.0,13.0,1367.0,14416.0,7646.0,540.0,10.0,-20.0,-5.0,6.0,-24.0,6.0,3650.0,15455.0,3980.0,647.0,8.0,-15.0,-11.0,1.0
2022-05-08 14:28:14.985414-07:00,888.2,987.6,1481.0,1101.7,636.7,475.8,1434.1,975.6,3473.4,3475.9,700.3,900.8,412.1,3496.6,837.7,801.9,3477.1,3478.3,401.2,658.7,478.2,566.6,250.8,242.4,3480.7,3486.8,581.0,479.8,693.8,1134.0,1420.4,437.2,1.0,12.0,14.0,1380.0,14414.0,7647.0,538.0,-61.0,-13.0,-22.0,4.0,-21.0,8.0,3652.0,15453.0,3985.0,644.0,-51.0,-5.0,-20.0,1.0
2022-05-08 14:28:15.046544-07:00,879.7,982.5,1480.1,1106.9,636.7,475.8,1434.1,975.6,3469.8,3483.2,697.9,898.3,412.1,3496.6,837.7,801.9,3477.1,3478.3,401.2,658.7,477.4,561.0,246.2,246.2,3480.7,3486.8,581.0,479.8,692.1,1125.2,1420.4,436.4,0.0,12.0,1.0,1413.0,14407.0,7655.0,544.0,-91.0,-27.0,-33.0,-1.0,-26.0,-1.0,3675.0,15446.0,3991.0,649.0,-77.0,-10.0,-14.0,1.0
2022-05-08 14:28:15.105551-07:00,879.7,982.5,1480.1,1106.9,636.7,475.0,1431.4,976.5,3469.8,3483.2,697.9,898.3,409.0,3496.6,838.6,802.7,3484.4,3473.4,404.3,656.2,477.4,561.0,246.2,246.2,3479.5,3477.1,585.9,486.9,692.1,1125.2,1420.4,436.4,2.0,19.0,10.0,1439.0,14400.0,7664.0,529.0,-16.0,-68.0,-30.0,4.0,-13.0,9.0,3692.0,15441.0,3995.0,644.0,-26.0,-22.0,-20.0,1.0
2022-05-08 14:28:15.135583-07:00,882.3,979.9,1478.3,1097.3,636.7,475.0,1431.4,973.9,3479.5,3472.2,699.5,900.0,409.0,3496.6,838.6,801.9,3483.2,3473.4,404.3,656.2,486.9,566.6,247.0,242.4,3477.1,3477.1,585.9,486.9,696.2,1128.7,1415.8,436.4,11.0,9.0,30.0,1449.0,14395.0,7671.0,522.0,25.0,19.0,-25.0,7.0,-28.0,11.0,3696.0,15438.0,4004.0,638.0,19.0,-2.0,-31.0,1.0
2022-05-08 14:28:15.196194-07:00,881.4,979.9,1478.3,1097.3,637.6,475.0,1427.7,973.9,3475.9,3472.2,699.5,900.0,414.5,3496.6,837.7,801.9,3483.2,3480.7,409.0,653.0,486.9,566.6,247.0,245.4,3477.1,3477.1,584.3,482.2,696.2,1128.7,1415.8,440.4,2.0,2.0,5.0,1437.0,14389.0,7684.0,526.0,2.0,8.0,-16.0,7.0,-17.0,4.0,3685.0,15437.0,4017.0,635.0,7.0,6.0,-24.0,1.0
2022-05-08 14:28:15.255437-07:00,881.4,988.5,1482.9,1093.8,637.6,475.0,1427.7,974.8,3475.9,3472.2,700.3,897.4,414.5,3496.6,837.7,801.0,3472.2,3480.7,409.0,653.0,480.6,562.6,249.2,245.4,3472.2,3477.1,584.3,482.2,697.9,1128.7,1417.6,440.4,1.0,2.0,3.0,1439.0,14388.0,7686.0,523.0,-14.0,-18.0,10.0,-2.0,-22.0,-1.0,3681.0,15438.0,4020.0,634.0,-2.0,-4.0,-2.0,1.0
2022-05-08 14:28:15.285430-07:00,875.5,988.5,1482.9,1093.8,639.2,473.5,1436.9,974.8,3478.3,3472.2,700.3,897.4,406.7,3495.3,845.3,801.0,3472.2,3472.2,408.2,657.9,480.6,562.6,249.2,244.7,3472.2,3483.2,587.5,478.2,697.9,1128.7,1417.6,438.8,0.0,11.0,13.0,1445.0,14388.0,7685.0,518.0,-7.0,-1.0,3.0,4.0,-19.0,7.0,3677.0,15439.0,4019.0,631.0,-8.0,-12.0,-3.0,1.0
2022-05-08 14:28:15.345630-07:00,875.5,984.2,1472.7,1094.7,639.2,473.5,1436.9,980.7,3478.3,3478.3,695.4,898.3,406.7,3495.3,845.3,802.7,3472.2,3472.2,408.2,657.9,481.4,565.0,245.4,244.7,3477.1,3483.2,587.5,478.2,696.2,1125.2,1426.8,438.8,-3.0,10.0,7.0,1446.0,14388.0,7684.0,518.0,32.0,-10.0,-1.0,2.0,-6.0,6.0,3676.0,15440.0,4019.0,630.0,24.0,-12.0,4.0,1.0
2022-05-08 14:28:15.405400-07:00,874.7,984.2,1472.7,1094.7,635.1,473.5,1432.3,980.7,3478.3,3478.3,695.4,898.3,408.2,3500.2,840.3,802.7,3472.2,3480.7,398.1,653.8,481.4,565.0,245.4,244.7,3477.1,3481.9,582.6,477.4,696.2,1125.2,1426.8,442.7,9.0,1.0,22.0,1452.0,14388.0,7684.0,514.0,2.0,0.0,-1.0,9.0,-26.0,8.0,3675.0,15440.0,4018.0,629.0,-8.0,-2.0,-5.0,1.0
2022-05-08 14:28:15.435524-07:00,874.7,982.5,1479.2,1105.1,635.1,473.5,1422.2,977.3,3478.3,3477.1,700.3,905.9,408.2,3500.2,840.3,801.9,3484.4,3478.3,398.1,653.8,478.2,564.2,247.0,244.7,3488.0,3481.9,582.6,477.4,697.9,1127.9,1419.5,442.7,-6.0,1.0,4.0,1452.0,14386.0,7687.0,522.0,-14.0,3.0,1.0,0.0,-19.0,5.0,3675.0,15440.0,4018.0,630.0,-10.0,-4.0,-5.0,1.0
2022-05-08 14:28:15.495630-07:00,875.5,987.6,1479.2,1105.1,631.9,476.6,1422.2,977.3,3471.0,3480.7,700.3,905.9,411.4,3500.2,840.3,801.9,3484.4,3478.3,405.1,656.2,478.2,564.2,246.2,247.7,3488.0,3481.9,580.2,477.4,697.9,1127.9,1416.7,438.0,1.0,5.0,16.0,1458.0,14386.0,7687.0,525.0,-10.0,11.0,5.0,0.0,-17.0,11.0,3676.0,15439.0,4018.0,630.0,-14.0,-3.0,0.0,1.0
2022-05-08 14:28:15.586073-07:00,875.5,987.6,1483.8,1096.4,631.9,476.6,1425.9,965.4,3471.0,3480.7,701.9,900.0,411.4,3500.2,836.1,801.9,3478.3,3480.7,405.1,656.2,474.3,565.0,246.2,247.7,3483.2,3480.7,580.2,477.4,693.8,1128.7,1416.7,438.0,2.0,17.0,5.0,1458.0,14386.0,7687.0,527.0,-6.0,-11.0,0.0,6.0,-8.0,5.0,3676.0,15440.0,4018.0,630.0,5.0,-10.0,0.0,1.0
2022-05-08 14:28:15.615448-07:00,882.3,986.7,1483.8,1096.4,633.5,475.8,1425.9,965.4,3483.2,3469.8,701.9,900.0,412.9,3502.7,836.1,801.9,3478.3,3480.7,410.6,656.2,474.3,565.0,246.2,245.4,3483.2,3480.7,585.1,476.6,693.8,1128.7,1419.5,437.2,0.0,2.0,13.0,1466.0,14385.0,7686.0,530.0,-4.0,-2.0,6.0,1.0,-17.0,10.0,3680.0,15439.0,4018.0,632.0,-8.0,3.0,2.0,1.0
2022-05-08 14:28:15.645567-07:00,882.3,986.7,1481.9,1103.4,633.5,475.8,1434.1,972.2,3483.2,3469.8,703.6,903.4,412.9,3502.7,847.0,802.7,3488.0,3480.7,410.6,656.2,479.0,565.8,246.2,245.4,3489.2,3483.2,585.1,476.6,692.9,1129.6,1419.5,437.2,-1.0,10.0,10.0,1468.0,14385.0,7686.0,531.0,-2.0,10.0,-1.0,0.0,-17.0,5.0,3679.0,15439.0,4018.0,631.0,-6.0,2.0,3.0,1.0
2022-05-08 14:28:15.705445-07:00,869.6,985.9,1481.9,1103.4,640.8,470.3,1434.1,972.2,3477.1,3468.6,703.6,903.4,405.9,3507.5,847.0,802.7,3488.0,3480.7,408.2,654.6,479.0,565.8,243.9,248.5,3489.2,3483.2,581.8,475.8,692.9,1129.6,1411.3,438.0,2.0,7.0,9.0,1469.0,14384.0,7687.0,534.0,-8.0,2.0,2.0,7.0,-18.0,4.0,3677.0,15439.0,4018.0,631.0,-8.0,-2.0,-1.0,1.0
2022-05-08 14:28:15.735579-07:00,869.6,985.9,1478.3,1099.9,640.8,477.4,1420.4,967.1,3477.1,3468.6,699.5,902.5,405.9,3497.8,838.6,799.4,3477.1,3475.9,404.3,654.6,480.6,563.4,243.9,248.5,3481.9,3479.5,585.9,475.8,697.0,1125.2,1411.3,438.0,3.0,12.0,13.0,1476.0,14384.0,7686.0,531.0,8.0,-32.0,5.0,5.0,-14.0,6.0,3678.0,15439.0,4018.0,632.0,3.0,-5.0,-3.0,1.0
2022-05-08 14:28:15.797580-07:00,878.9,980.7,1480.1,1099.9,642.4,477.4,1420.4,967.1,3472.2,3480.7,697.9,902.5,409.0,3497.8,838.6,799.4,3477.1,3475.9,404.3,660.3,480.6,569.8,247.7,246.2,3481.9,3479.5,585.9,473.5,697.0,1128.7,1418.6,434.1,0.0,8.0,19.0,1479.0,14384.0,7685.0,526.0,16.0,5.0,-2.0,-1.0,-18.0,14.0,3676.0,15440.0,4018.0,631.0,15.0,2.0,-5.0,1.0
2022-05-08 14:28:15.855479-07:00,878.9,980.7,1480.1,1098.2,642.4,480.6,1428.6,966.2,3472.2,3480.7,697.9,902.5,409.0,3492.9,841.9,801.0,3481.9,3488.0,411.4,660.3,477.4,569.8,247.7,246.2,3475.9,3481.9,584.3,473.5,706.0,1128.7,1418.6,434.1,-1.0,6.0,6.0,1476.0,14383.0,7688.0,532.0,-9.0,19.0,-21.0,-1.0,-15.0,8.0,3674.0,15439.0,4020.0,630.0,-2.0,-8.0,-12.0,1.0
2022-05-08 14:28:15.885695-07:00,878.0,980.7,1482.9,1098.2,632.7,480.6,1428.6,966.2,3475.9,3474.6,698.7,902.5,411.4,3492.9,841.9,801.0,3481.9,3488.0,411.4,661.1,477.4,566.6,246.2,248.5,3475.9,3481.9,584.3,477.4,706.0,1130.5,1423.1,438.8,4.0,4.0,15.0,1477.0,14382.0,7689.0,530.0,8.0,-14.0,3.0,2.0,-24.0,4.0,3672.0,15439.0,4022.0,629.0,3.0,1.0,-3.0,1.0
2022-05-08 14:28:15.945536-07:00,878.0,980.7,1482.9,1099.9,632.7,475.0,1426.8,970.5,3475.9,3474.6,698.7,897.4,411.4,3499.0,837.7,801.0,3488.0,3477.1,404.3,661.1,478.2,566.6,246.2,248.5,3490.5,3479.5,584.3,477.4,692.1,1130.5,1423.1,438.8,-3.0,2.0,10.0,1476.0,14382.0,7689.0,532.0,-12.0,14.0,4.0,-2.0,-12.0,7.0,3671.0,15440.0,4022.0,629.0,-12.0,-5.0,4.0,1.0
2022-05-08 14:28:16.005456-07:00,878.0,981.6,1469.0,1099.9,634.3,475.0,1426.8,970.5,3473.4,3474.6,701.1,897.4,410.6,3499.0,837.7,801.0,3488.0,3477.1,404.3,653.0,478.2,566.6,245.4,246.2,3490.5,3479.5,584.3,475.0,692.1,1130.5,1428.6,442.7,0.0,7.0,9.0,1481.0,14383.0,7687.0,541.0,-10.0,6.0,11.0,4.0,-19.0,12.0,3673.0,15439.0,4022.0,630.0,-3.0,-3.0,6.0,1.0
2022-05-08 14:28:16.095345-07:00,878.0,981.6,1469.0,1093.8,631.9,472.7,1431.4,968.8,3473.4,3474.6,701.1,905.9,409.8,3492.9,841.9,811.9,3478.3,3475.9,403.5,654.6,475.8,566.6,245.4,246.2,3477.1,3480.7,581.8,479.0,693.8,1130.5,1428.6,442.7,3.0,2.0,17.0,1485.0,14384.0,7683.0,544.0,-18.0,9.0,16.0,4.0,-17.0,9.0,3678.0,15438.0,4022.0,631.0,-14.0,6.0,0.0,1.0
2022-05-08 14:28:16.096286-07:00,874.7,982.5,1476.4,1097.3,631.9,472.7,1431.4,968.8,3472.2,3467.4,704.4,898.3,409.8,3492.9,841.9,811.9,3478.3,3475.9,403.5,654.6,479.0,564.2,246.2,247.7,3477.1,3480.7,581.8,479.0,690.5,1129.6,1421.3,441.2,0.0,11.0,8.0,1488.0,14386.0,7679.0,560.0,-43.0,35.0,8.0,1.0,-11.0,7.0,3683.0,15436.0,4024.0,634.0,-25.0,4.0,-10.0,1.0
2022-05-08 14:28:16.154973-07:00,874.7,982.5,1476.4,1097.3,633.5,472.7,1427.7,967.1,3472.2,3467.4,704.4,898.3,408.2,3502.7,845.3,801.0,3474.6,3479.5,404.3,656.2,479.0,564.2,246.2,247.7,3475.9,3478.3,585.1,478.2,690.5,1129.6,1421.3,441.2,0.0,18.0,6.0,1498.0,14382.0,7680.0,590.0,-38.0,58.0,-17.0,3.0,-7.0,6.0,3686.0,15435.0,4026.0,634.0,-3.0,0.0,-9.0,1.0
2022-05-08 14:28:16.215536-07:00,879.7,984.2,1477.3,1097.3,633.5,472.7,1427.7,967.1,3472.2,3473.4,701.9,900.0,408.2,3502.7,845.3,801.0,3474.6,3479.5,404.3,656.2,480.6,567.4,245.4,250.8,3475.9,3478.3,585.1,478.2,694.6,1127.9,1414.9,435.7,-1.0,-1.0,9.0,1499.0,14379.0,7686.0,604.0,-14.0,-1.0,-12.0,1.0,-21.0,11.0,3690.0,15433.0,4029.0,635.0,-12.0,3.0,-1.0,1.0
2022-05-08 14:28:16.305030-07:00,879.7,984.2,1477.3,1097.3,636.7,471.9,1426.8,971.3,3472.2,3473.4,701.9,900.0,404.3,3495.3,840.3,801.9,3480.7,3474.6,403.5,652.2,480.6,567.4,245.4,250.8,3477.1,3480.7,585.1,476.6,694.6,1127.9,1414.9,435.7,3.0,1.0,20.0,1505.0,14378.0,7686.0,605.0,-35.0,15.0,4.0,2.0,-16.0,9.0,3694.0,15432.0,4029.0,636.0,-33.0,5.0,0.0,1.0
2022-05-08 14:28:16.306617-07:00,869.6,982.5,1481.0,1099.0,636.7,471.9,1426.8,971.3,3475.9,3478.3,706.0,902.5,404.3,3495.3,840.3,801.9,3480.7,3474.6,403.5,652.2,478.2,566.6,243.2,245.4,3477.1,3480.7,585.1,476.6,692.1,1131.4,1417.6,434.9,-2.0,12.0,0.0,1509.0,14377.0,7686.0,622.0,-11.0,32.0,4.0,1.0,-9.0,5.0,3699.0,15431.0,4029.0,642.0,5.0,7.0,5.0,1.0
2022-05-08 14:28:16.365447-07:00,871.3,982.5,1481.0,1099.0,631.9,482.2,1430.5,962.8,3474.6,3478.3,706.0,902.5,414.5,3505.1,836.9,801.9,3479.5,3478.3,406.7,653.8,478.2,566.6,243.2,249.2,3475.9,3479.5,583.5,470.3,692.1,1131.4,1417.6,437.2,6.0,17.0,15.0,1504.0,14378.0,7686.0,618.0,30.0,-21.0,8.0,5.0,-9.0,8.0,3694.0,15432.0,4030.0,641.0,12.0,3.0,2.0,1.0
2022-05-08 14:28:16.395555-07:00,871.3,988.5,1472.7,1097.3,631.9,482.2,1430.5,960.2,3474.6,3475.9,706.0,899.1,414.5,3505.1,836.9,795.2,3477.1,3478.3,406.7,653.8,479.8,569.8,244.7,249.2,3483.2,3479.5,583.5,470.3,690.5,1130.5,1422.2,437.2,0.0,9.0,15.0,1498.0,14378.0,7687.0,619.0,20.0,25.0,-1.0,5.0,-12.0,9.0,3691.0,15433.0,4030.0,640.0,22.0,16.0,3.0,1.0
2022-05-08 14:28:16.455436-07:00,874.7,988.5,1472.7,1097.3,633.5,471.9,1422.2,960.2,3469.8,3475.9,706.0,899.1,407.5,3495.3,841.9,795.2,3477.1,3479.5,403.5,657.0,479.8,569.8,244.7,247.0,3483.2,3479.5,579.4,472.7,690.5,1130.5,1422.2,439.6,-10.0,2.0,8.0,1483.0,14379.0,7688.0,619.0,59.0,7.0,5.0,0.0,-11.0,12.0,3675.0,15436.0,4032.0,642.0,76.0,7.0,7.0,1.0
2022-05-08 14:28:16.485453-07:00,874.7,978.2,1470.9,1101.7,633.5,471.9,1422.2,962.8,3469.8,3467.4,700.3,900.0,407.5,3495.3,841.9,800.2,3475.9,3479.5,403.5,657.0,480.6,565.8,243.9,247.0,3481.9,3479.5,579.4,472.7,691.3,1128.7,1415.8,439.6,4.0,23.0,13.0,1440.0,14383.0,7689.0,597.0,114.0,11.0,-3.0,7.0,2.0,13.0,3630.0,15446.0,4034.0,632.0,76.0,10.0,-15.0,1.0
2022-05-08 14:28:16.575382-07:00,877.2,978.2,1470.9,1101.7,646.5,473.5,1417.6,962.8,3473.4,3467.4,700.3,900.0,407.5,3494.1,836.1,800.2,3475.9,3474.6,405.9,653.8,480.6,565.8,243.9,250.8,3481.9,3475.9,584.3,475.0,691.3,1128.7,1415.8,439.6,2.0,-3.0,4.0,1451.0,14379.0,7694.0,613.0,-86.0,26.0,-16.0,7.0,-35.0,0.0,3633.0,15443.0,4042.0,635.0,-73.0,2.0,-20.0,1.0
2022-05-08 14:28:16.604915-07:00,877.2,973.9,1472.7,1098.2,646.5,473.5,1417.6,964.5,3473.4,3474.6,698.7,898.3,407.5,3494.1,836.1,797.7,3480.7,3474.6,405.9,653.8,476.6,561.0,246.2,250.8,3480.7,3475.9,584.3,475.0,692.9,1128.7,1418.6,439.6,-1.0,32.0,-2.0,1495.0,14371.0,7699.0,645.0,-197.0,16.0,-16.0,-1.0,14.0,-2.0,3665.0,15436.0,4042.0,639.0,-146.0,-23.0,-8.0,1.0
2022-05-08 14:28:16.665495-07:00,873.8,984.2,1472.7,1098.2,637.6,480.6,1426.8,964.5,3472.2,3473.4,698.7,898.3,409.0,3502.7,837.7,797.7,3480.7,3472.2,404.3,660.3,476.6,561.0,250.8,243.2,3480.7,3469.8,581.8,478.2,692.9,1128.7,1417.6,438.0,16.0,72.0,-36.0,1699.0,14337.0,7708.0,777.0,-926.0,58.0,-82.0,5.0,-17.0,-27.0,3854.0,15389.0,4038.0,671.0,-778.0,-50.0,-26.0,1.0
2022-05-08 14:28:16.695518-07:00,873.8,984.2,1472.7,1098.2,637.6,480.6,1423.1,967.1,3472.2,3473.4,709.3,898.3,409.0,3502.7,832.7,801.0,3488.0,3474.6,404.3,660.3,481.4,565.0,250.8,243.2,3472.2,3475.9,581.8,478.2,692.9,1131.4,1417.6,438.0,-33.0,-36.0,-42.0,2133.0,14249.0,7734.0,1010.0,-1022.0,-116.0,-99.0,-10.0,1.0,18.0,4240.0,15288.0,4026.0,731.0,-882.0,-120.0,-16.0,1.0
2022-05-08 14:28:16.755446-07:00,869.6,982.5,1472.7,1098.2,633.5,471.9,1423.1,967.1,3471.0,3478.3,709.3,898.3,409.8,3496.6,832.7,801.0,3488.0,3474.6,404.3,656.2,481.4,565.0,245.4,241.6,3472.2,3475.9,585.1,477.4,692.9,1131.4,1416.7,439.6,-16.0,175.0,-39.0,2703.0,14156.0,7707.0,1154.0,-1957.0,-384.0,-132.0,-6.0,86.0,-6.0,4789.0,15131.0,3987.0,815.0,-1955.0,-123.0,-40.0,1.0
2022-05-08 14:28:16.845564-07:00,869.6,982.5,1474.6,1099.0,633.5,471.9,1426.8,967.9,3471.0,3478.3,711.8,901.7,409.8,3496.6,838.6,802.7,3480.7,3478.3,404.3,656.2,474.3,565.0,245.4,241.6,3472.2,3478.3,585.1,477.4,692.1,1129.6,1416.7,439.6,1.0,-155.0,26.0,3631.0,13935.0,7676.0,1462.0,-1680.0,-396.0,-186.0,-7.0,-82.0,11.0,5653.0,14831.0,3951.0,955.0,-1644.0,-210.0,-75.0,1.0
2022-05-08 14:28:16.848180-07:00,873.0,974.8,1474.6,1099.0,634.3,475.0,1426.8,967.9,3466.1,3472.2,711.8,901.7,404.3,3492.9,838.6,802.7,3480.7,3478.3,405.1,657.9,474.3,565.0,246.2,245.4,3472.2,3478.3,584.3,475.0,692.1,1129.6,1411.3,436.4,18.0,204.0,-51.0,4337.0,13751.0,7605.0,1638.0,-2446.0,-389.0,-137.0,22.0,115.0,30.0,6363.0,14552.0,3881.0,1061.0,-2291.0,-243.0,-23.0,1.0
2022-05-08 14:28:16.875561-07:00,873.0,974.8,1475.5,1096.4,634.3,475.0,1420.4,968.8,3466.1,3472.2,719.2,897.4,404.3,3492.9,831.1,804.4,3479.5,3471.0,405.1,657.9,480.6,565.8,246.2,245.4,3478.3,3475.9,584.3,475.0,704.4,1125.2,1411.3,436.4,19.0,-265.0,-4.0,5596.0,13314.0,7453.0,2077.0,-2804.0,-553.0,-204.0,7.0,-196.0,-35.0,7445.0,14050.0,3759.0,1207.0,-2460.0,-356.0,-45.0,1.0
2022-05-08 14:28:16.935917-07:00,873.8,977.3,1476.4,1096.4,640.8,472.7,1420.4,968.8,3472.2,3484.4,717.5,897.4,415.3,3497.8,831.1,804.4,3479.5,3471.0,403.5,655.4,480.6,565.0,245.4,244.7,3478.3,3475.9,582.6,471.9,704.4,1127.0,1417.6,438.8,43.0,278.0,46.0,6266.0,13060.0,7319.0,2248.0,-1937.0,-226.0,-75.0,40.0,187.0,25.0,8095.0,13713.0,3650.0,1239.0,-1823.0,-361.0,-58.0,1.0
2022-05-08 14:28:16.995517-07:00,873.8,977.3,1476.4,1102.5,640.8,472.7,1427.7,967.1,3472.2,3484.4,717.5,905.9,415.3,3500.2,833.6,800.2,3473.4,3469.8,409.0,655.4,479.8,565.0,245.4,244.7,3488.0,3483.2,581.8,471.9,694.6,1127.0,1417.6,438.8,-17.0,-37.0,-80.0,7673.0,12223.0,7162.0,2978.0,-5099.0,5.0,-589.0,-26.0,-109.0,-17.0,9332.0,12940.0,3475.0,1353.0,-4237.0,-526.0,-69.0,1.0
2022-05-08 14:28:17.025823-07:00,873.8,985.9,1475.5,1102.5,633.5,472.7,1427.7,967.1,3472.2,3467.4,719.2,905.9,411.4,3500.2,833.6,800.2,3473.4,3469.8,409.0,652.2,479.8,567.4,247.0,251.5,3488.0,3483.2,581.8,473.5,694.6,1127.9,1418.6,436.4,41.0,-140.0,8.0,8999.0,11255.0,6935.0,3563.0,-3096.0,-168.0,-336.0,0.0,-28.0,-36.0,10553.0,12030.0,3198.0,1456.0,-2740.0,-623.0,-37.0,1.0
2022-05-08 14:28:17.085474-07:00,873.8,985.9,1475.5,1095.6,633.5,474.3,1425.9,987.6,3472.2,3467.4,719.2,896.6,411.4,3503.9,823.5,801.9,3479.5,3485.6,406.7,652.2,476.6,567.4,247.0,251.5,3478.3,3477.1,591.5,473.5,697.0,1127.9,1418.6,436.4,-18.0,87.0,5.0,9740.0,10591.0,6762.0,3959.0,-3458.0,-56.0,-538.0,-5.0,41.0,61.0,11495.0,11210.0,2895.0,1501.0,-3125.0,-508.0,124.0,1.0
2022-05-08 14:28:17.145635-07:00,878.9,989.3,1471.8,1095.6,631.9,474.3,1425.9,987.6,3467.4,3483.2,705.2,896.6,412.1,3503.9,823.5,801.9,3479.5,3485.6,406.7,657.9,476.6,562.6,249.2,248.5,3478.3,3477.1,591.5,471.9,697.0,1128.7,1421.3,442.7,-5.0,-234.0,65.0,10709.0,9626.0,6527.0,4298.0,-2052.0,-251.0,-477.0,23.0,-136.0,25.0,12294.0,10384.0,2626.0,1604.0,-1960.0,-314.0,60.0,1.0
2022-05-08 14:28:17.205466-07:00,878.9,989.3,1471.8,1095.6,631.9,473.5,1426.8,1001.3,3467.4,3483.2,705.2,899.1,412.1,3496.6,831.1,806.0,3480.7,3477.1,405.9,657.9,477.4,562.6,249.2,248.5,3481.9,3479.5,589.1,471.9,696.2,1128.7,1421.3,442.7,16.0,78.0,23.0,11017.0,9314.0,6398.0,4402.0,-515.0,-76.0,163.0,32.0,52.0,59.0,12530.0,10120.0,2519.0,1630.0,-634.0,-113.0,77.0,1.0
2022-05-08 14:28:17.235533-07:00,876.4,988.5,1470.0,1093.8,645.7,473.5,1426.8,1001.3,3472.2,3473.4,706.0,897.4,412.1,3496.6,831.1,806.0,3480.7,3477.1,405.9,657.0,475.0,561.0,253.1,247.0,3481.9,3479.5,589.1,470.3,692.1,1127.0,1415.8,438.8,2.0,-30.0,-39.0,11322.0,9009.0,6190.0,4558.0,-1722.0,-457.0,-100.0,6.0,-60.0,11.0,12851.0,9738.0,2355.0,1707.0,-1447.0,-257.0,200.0,1.0
2022-05-08 14:28:17.325461-07:00,876.4,988.5,1470.0,1093.8,635.1,470.3,1426.8,1005.6,3472.2,3473.4,706.0,897.4,407.5,3492.9,828.5,799.4,3479.5,3474.6,405.9,657.9,475.0,561.0,253.1,247.0,3488.0,3481.9,592.3,471.1,692.1,1127.0,1415.8,438.8,27.0,0.0,-42.0,11737.0,8619.0,5878.0,4673.0,-1188.0,-400.0,118.0,0.0,-3.0,-2.0,13163.0,9343.0,2161.0,1794.0,-1097.0,-262.0,231.0,1.0
2022-05-08 14:28:17.327413-07:00,878.0,991.9,1475.5,1096.4,635.1,470.3,1426.8,1005.6,3479.5,3467.4,706.0,902.5,407.5,3492.9,828.5,799.4,3479.5,3474.6,405.9,657.9,480.6,563.4,251.5,250.8,3488.0,3481.9,592.3,471.1,692.9,1125.2,1414.9,435.7,-4.0,131.0,-78.0,12124.0,8213.0,5530.0,4839.0,-2119.0,-621.0,3.0,-4.0,78.0,36.0,13533.0,8836.0,1905.0,1895.0,-1885.0,-383.0,284.0,1.0
2022-05-08 14:28:17.415422-07:00,878.0,991.9,1475.5,1096.4,640.8,473.5,1425.0,1033.2,3479.5,3467.4,706.0,902.5,399.6,3486.8,819.4,796.9,3472.2,3481.9,410.6,655.4,480.6,563.4,251.5,250.8,3479.5,3477.1,590.7,468.7,692.9,1125.2,1414.9,435.7,-11.0,-60.0,-36.0,12719.0,7511.0,5019.0,5006.0,-1881.0,-622.0,-9.0,-12.0,-13.0,-18.0,13962.0,8186.0,1594.0,1985.0,-1545.0,-462.0,186.0,1.0
2022-05-08 14:28:17.475472-07:00,875.5,991.9,1472.7,1083.4,640.8,473.5,1425.0,1033.2,3473.4,3468.6,695.4,898.3,399.6,3486.8,819.4,796.9,3472.2,3481.9,410.6,655.4,474.3,563.4,252.3,247.0,3479.5,3477.1,590.7,468.7,690.5,1107.8,1421.3,435.7,3.0,111.0,-37.0,13096.0,6986.0,4587.0,5206.0,-2355.0,-325.0,282.0,5.0,113.0,4.0,14340.0,7559.0,1257.0,2022.0,-2204.0,-608.0,292.0,1.0
2022-05-08 14:28:17.476842-07:00,875.5,991.9,1472.7,1083.4,638.4,470.3,1440.5,1064.3,3473.4,3468.6,695.4,898.3,407.5,3484.4,817.7,801.0,3475.9,3477.1,412.9,658.7,474.3,563.4,252.3,247.0,3475.9,3471.0,601.2,472.7,690.5,1107.8,1421.3,435.7,4.0,-19.0,-79.0,13619.0,6142.0,3963.0,5433.0,-2530.0,-1059.0,-105.0,21.0,-60.0,3.0,14815.0,6595.0,887.0,2159.0,-2343.0,-338.0,312.0,1.0
2022-05-08 14:28:17.535624-07:00,878.0,981.6,1473.6,1094.7,638.4,470.3,1440.5,1191.2,3480.7,3478.3,699.5,894.9,407.5,3484.4,817.7,797.7,3479.5,3477.1,412.9,658.7,480.6,562.6,247.7,248.5,3481.9,3471.0,601.2,472.7,696.2,1110.4,1416.7,435.7,69.0,10.0,29.0,14023.0,5537.0,3326.0,5485.0,-1620.0,-599.0,64.0,30.0,-32.0,-31.0,15118.0,5882.0,623.0,2213.0,-1687.0,-274.0,106.0,1.0
2022-05-08 14:28:17.655428-07:00,878.0,981.6,1473.6,1094.7,636.7,475.8,1444.2,1191.2,3472.2,3478.3,699.5,894.9,409.0,3492.9,816.9,797.7,3479.5,3478.3,404.3,657.9,480.6,562.6,247.7,252.3,3481.9,3480.7,601.2,467.1,696.2,1110.4,1416.7,437.2,18.0,-16.0,69.0,14315.0,4954.0,2896.0,5531.0,-1634.0,-417.0,-305.0,43.0,-111.0,52.0,15362.0,5229.0,429.0,2220.0,-1564.0,-154.0,-10.0,1.0
2022-05-08 14:28:17.745601-07:00,878.0,969.6,1480.1,1100.8,636.7,475.8,1444.2,1221.3,3472.2,3469.8,696.2,905.0,409.0,3492.9,816.9,799.4,3474.6,3478.3,404.3,657.9,483.0,561.8,250.8,252.3,3474.6,3480.7,601.2,467.1,695.4,1130.5,1414.0,437.2,14.0,-29.0,16.0,14555.0,4434.0,2617.0,5484.0,-1237.0,-119.0,-184.0,24.0,-27.0,16.0,15535.0,4715.0,302.0,2187.0,-1173.0,-136.0,-54.0,1.0
2022-05-08 14:28:17.748782-07:00,883.1,969.6,1480.1,1100.8,636.7,481.4,1440.5,1221.3,3481.9,3469.8,696.2,905.0,409.0,3492.9,819.4,799.4,3474.6,3475.9,408.2,657.0,483.0,561.8,250.8,249.2,3474.6,3475.9,593.9,467.1,695.4,1130.5,1414.0,436.4,2.0,-29.0,-28.0,14711.0,3990.0,2417.0,5502.0,-1180.0,-206.0,-52.0,25.0,-77.0,26.0,15643.0,4357.0,221.0,2167.0,-1101.0,-102.0,6.0,1.0
2022-05-08 14:28:17.749720-07:00,883.1,977.3,1481.0,1099.9,636.7,481.4,1440.5,1203.5,3481.9,3467.4,694.6,900.8,409.0,3492.9,819.4,797.7,3480.7,3475.9,408.2,657.0,482.2,559.4,245.4,249.2,3475.9,3475.9,593.9,467.1,691.3,1129.6,1423.1,436.4,8.0,-68.0,-7.0,14839.0,3584.0,2176.0,5537.0,-883.0,-145.0,25.0,29.0,-113.0,5.0,15754.0,3942.0,112.0,2170.0,-806.0,-61.0,20.0,1.0
2022-05-08 14:28:17.835482-07:00,882.3,977.3,1481.0,1099.9,630.3,482.2,1442.4,1203.5,3480.7,3467.4,694.6,900.8,411.4,3500.2,811.0,797.7,3480.7,3477.1,405.1,658.7,482.2,559.4,245.4,249.2,3475.9,3484.4,594.7,471.1,691.3,1129.6,1423.1,435.7,16.0,26.0,9.0,14912.0,3326.0,2000.0,5567.0,-656.0,-118.0,-46.0,20.0,-31.0,17.0,15825.0,3648.0,46.0,2170.0,-677.0,-56.0,-17.0,1.0
2022-05-08 14:28:17.956087-07:00,882.3,976.5,1492.1,1090.3,630.3,482.2,1443.3,1185.9,3480.7,3479.5,696.2,896.6,411.4,3500.2,818.5,798.5,3478.3,3479.5,405.1,658.7,479.8,559.4,250.0,249.2,3477.1,3474.6,594.7,471.1,691.3,1130.5,1425.9,435.7,-10.0,7.0,-16.0,14981.0,3075.0,1900.0,5561.0,-501.0,21.0,-153.0,0.0,-49.0,15.0,15884.0,3389.0,-1.0,2155.0,-409.0,-15.0,-68.0,1.0
2022-05-08 14:28:17.957901-07:00,889.8,968.8,1492.1,1090.3,640.8,483.0,1443.3,1185.9,3467.4,3478.3,696.2,896.6,413.7,3497.8,818.5,798.5,3478.3,3479.5,408.2,658.7,479.8,559.4,249.2,249.2,3477.1,3474.6,590.7,474.3,691.3,1130.5,1423.1,432.5,-23.0,3.0,-52.0,15026.0,2946.0,1885.0,5516.0,-141.0,61.0,-144.0,-17.0,-28.0,0.0,15913.0,3277.0,-16.0,2116.0,-145.0,-31.0,-87.0,1.0
2022-05-08 14:28:17.958825-07:00,889.8,968.8,1504.1,1102.5,640.8,483.0,1438.7,1155.0,3467.4,3478.3,697.9,898.3,413.7,3497.8,813.5,800.2,3483.2,3483.2,408.2,658.7,479.8,559.4,249.2,249.2,3479.5,3483.2,590.7,474.3,693.8,1121.7,1423.1,432.5,-7.0,-29.0,-24.0,15048.0,2894.0,1883.0,5483.0,-1.0,-28.0,-62.0,0.0,-73.0,4.0,15926.0,3235.0,-34.0,2083.0,77.0,-45.0,-59.0,1.0
2022-05-08 14:28:18.225185-07:00,883.1,973.9,1504.1,1102.5,649.7,486.1,1438.7,1155.0,3473.4,3467.4,697.9,898.3,410.6,3491.7,813.5,800.2,3483.2,3483.2,405.9,658.7,479.8,559.4,245.4,246.2,3479.5,3483.2,590.7,467.1,693.8,1121.7,1422.2,429.4,7.0,11.0,1.0,15046.0,2934.0,1891.0,5466.0,39.0,-19.0,-23.0,25.0,-40.0,26.0,15921.0,3273.0,-41.0,2061.0,45.0,-37.0,-27.0,1.0
2022-05-08 14:28:18.226511-07:00,883.1,973.9,1502.3,1106.9,649.7,486.1,1433.2,1149.8,3473.4,3467.4,692.1,900.0,410.6,3491.7,814.4,797.7,3480.7,3484.4,405.9,658.7,484.5,565.8,245.4,246.2,3479.5,3469.8,590.7,467.1,699.5,1132.2,1422.2,429.4,3.0,6.0,-11.0,15046.0,2939.0,1900.0,5459.0,34.0,30.0,-9.0,17.0,-27.0,24.0,15923.0,3269.0,-62.0,2051.0,40.0,-32.0,-23.0,1.0
2022-05-08 14:28:18.227781-07:00,883.9,967.9,1502.3,1106.9,633.5,488.5,1433.2,1149.8,3473.4,3484.4,692.1,900.0,411.4,3502.7,814.4,797.7,3480.7,3484.4,402.8,657.9,484.5,565.8,247.0,246.2,3479.5,3469.8,593.9,474.3,699.5,1132.2,1425.0,438.0,7.0,-6.0,-21.0,15047.0,2939.0,1895.0,5458.0,-52.0,-20.0,11.0,22.0,-49.0,17.0,15925.0,3260.0,-95.0,2046.0,3.0,-62.0,-2.0,1.0
2022-05-08 14:28:18.228863-07:00,883.9,967.9,1507.8,1104.3,633.5,481.4,1434.1,1148.0,3473.4,3484.4,694.6,905.0,411.4,3494.1,811.9,805.2,3483.2,3479.5,411.4,657.9,483.7,564.2,247.0,246.2,3485.6,3479.5,589.9,474.3,692.1,1130.5,1425.0,438.0,-4.0,37.0,-7.0,15038.0,2986.0,1884.0,5462.0,133.0,-66.0,40.0,10.0,5.0,27.0,15920.0,3285.0,-126.0,2044.0,92.0,-58.0,-2.0,1.0
2022-05-08 14:28:18.230098-07:00,883.1,967.9,1503.2,1104.3,632.7,481.4,1434.1,1148.0,3474.6,3477.1,695.4,905.0,409.0,3494.1,811.9,805.2,3483.2,3479.5,411.4,656.2,483.7,562.6,247.7,248.5,3485.6,3479.5,589.9,467.1,692.1,1128.7,1426.8,438.0,5.0,15.0,23.0,15043.0,2979.0,1842.0,5466.0,-121.0,-42.0,7.0,13.0,-37.0,19.0,15922.0,3278.0,-157.0,2039.0,-69.0,-59.0,0.0,1.0
2022-05-08 14:28:18.316494-07:00,878.0,964.5,1507.8,1100.8,640.8,478.2,1435.0,1143.6,3481.9,3467.4,690.5,900.8,412.9,3500.2,815.2,798.5,3479.5,3480.7,402.8,655.4,486.9,563.4,242.4,250.8,3484.4,3477.1,589.9,467.9,699.5,1123.5,1423.1,434.1,6.0,0.0,1.0,15028.0,3026.0,1878.0,5470.0,-82.0,-22.0,23.0,15.0,-19.0,21.0,15912.0,3331.0,-173.0,2032.0,-46.0,-32.0,25.0,1.0
2022-05-08 14:28:18.405510-07:00,878.0,964.5,1507.8,1107.8,640.8,483.0,1425.0,1135.7,3481.9,3467.4,690.5,893.2,412.9,3494.1,811.0,799.4,3479.5,3478.3,405.9,655.4,479.8,563.4,242.4,250.8,3483.2,3475.9,587.5,467.9,685.6,1123.5,1423.1,434.1,7.0,20.0,-2.0,15023.0,3027.0,1883.0,5481.0,47.0,51.0,21.0,17.0,-19.0,14.0,15909.0,3343.0,-181.0,2034.0,52.0,-12.0,12.0,1.0
2022-05-08 14:28:18.407312-07:00,880.6,964.5,1517.1,1107.8,637.6,483.0,1425.0,1135.7,3467.4,3473.4,692.1,893.2,412.1,3494.1,811.0,799.4,3479.5,3478.3,405.9,654.6,479.8,565.0,244.7,252.3,3483.2,3475.9,587.5,471.9,685.6,1124.4,1425.0,442.7,3.0,-8.0,-9.0,15014.0,3030.0,1911.0,5495.0,102.0,77.0,43.0,17.0,-40.0,11.0,15906.0,3348.0,-195.0,2044.0,107.0,2.0,19.0,1.0
2022-05-08 14:28:18.555855-07:00,880.6,964.5,1517.1,1100.8,631.9,480.6,1431.4,1143.6,3467.4,3473.4,692.1,894.9,410.6,3505.1,807.7,799.4,3484.4,3485.6,405.9,657.0,483.0,565.0,244.7,252.3,3477.1,3477.1,592.3,471.1,697.9,1124.4,1425.0,442.7,1.0,12.0,-9.0,14997.0,3048.0,1935.0,5522.0,-17.0,24.0,59.0,13.0,-15.0,19.0,15901.0,3364.0,-203.0,2058.0,18.0,-5.0,35.0,1.0
2022-05-08 14:28:18.556813-07:00,881.4,970.5,1501.4,1102.5,631.9,480.6,1431.4,1143.6,3478.3,3471.0,691.3,897.4,410.6,3505.1,807.7,799.4,3484.4,3485.6,405.9,657.0,484.5,559.4,244.7,247.7,3477.1,3477.1,592.3,471.1,694.6,1128.7,1420.4,433.3,10.0,4.0,2.0,14990.0,3049.0,1939.0,5540.0,47.0,37.0,23.0,14.0,-22.0,7.0,15899.0,3365.0,-209.0,2071.0,62.0,15.0,15.0,1.0
2022-05-08 14:28:18.558315-07:00,881.4,970.5,1501.4,1102.5,639.2,480.6,1428.6,1134.9,3478.3,3471.0,691.3,897.4,410.6,3503.9,809.4,798.5,3479.5,3478.3,408.2,656.2,484.5,559.4,244.7,247.7,3488.0,3480.7,589.9,470.3,694.6,1128.7,1420.4,433.3,1.0,9.0,-15.0,14981.0,3062.0,1964.0,5547.0,45.0,38.0,4.0,7.0,-18.0,10.0,15897.0,3373.0,-207.0,2074.0,36.0,12.0,-5.0,1.0
2022-05-08 14:28:18.675745-07:00,883.9,985.0,1490.3,1106.0,639.2,480.6,1428.6,1134.9,3472.2,3475.9,688.0,897.4,410.6,3503.9,809.4,798.5,3479.5,3478.3,408.2,656.2,484.5,561.0,249.2,245.4,3488.0,3480.7,589.9,470.3,696.2,1126.1,1424.1,436.4,-10.0,5.0,-20.0,14975.0,3077.0,1985.0,5548.0,55.0,10.0,1.0,-1.0,-10.0,9.0,15895.0,3386.0,-204.0,2068.0,57.0,4.0,-20.0,1.0
2022-05-08 14:28:18.677555-07:00,883.9,985.0,1490.3,1106.0,635.9,480.6,1424.1,1134.9,3472.2,3475.9,688.0,897.4,417.6,3491.7,811.9,793.5,3467.4,3481.9,405.9,657.9,484.5,561.0,249.2,245.4,3484.4,3477.1,590.7,467.1,696.2,1126.1,1424.1,436.4,-6.0,19.0,-16.0,14971.0,3083.0,1996.0,5551.0,-28.0,-5.0,-10.0,7.0,-11.0,23.0,15896.0,3387.0,-206.0,2061.0,-28.0,-12.0,-11.0,1.0
2022-05-08 14:28:18.678755-07:00,878.0,966.2,1505.1,1105.1,635.9,480.6,1424.1,1134.9,3480.7,3473.4,690.5,898.3,417.6,3491.7,811.9,793.5,3467.4,3481.9,405.9,657.9,483.7,556.2,251.5,253.1,3484.4,3477.1,590.7,467.1,694.6,1121.7,1421.3,435.7,4.0,-8.0,-20.0,14975.0,3075.0,1990.0,5547.0,-3.0,-7.0,-9.0,7.0,-30.0,-1.0,15899.0,3377.0,-218.0,2054.0,23.0,-31.0,-14.0,1.0
2022-05-08 14:28:18.766163-07:00,880.6,966.2,1505.1,1105.1,635.1,479.0,1416.7,1134.9,3474.6,3473.4,690.5,898.3,414.5,3496.6,811.9,801.9,3477.1,3488.0,405.9,653.0,483.7,556.2,251.5,247.7,3481.9,3481.9,589.1,470.3,694.6,1121.7,1421.3,431.7,11.0,11.0,-3.0,14969.0,3107.0,1990.0,5545.0,60.0,-32.0,17.0,19.0,-12.0,18.0,15894.0,3398.0,-235.0,2050.0,56.0,-31.0,-3.0,1.0
2022-05-08 14:28:18.856113-07:00,880.6,970.5,1495.8,1101.7,635.1,479.0,1416.7,1130.5,3474.6,3474.6,686.4,899.1,414.5,3496.6,811.9,801.9,3479.5,3488.0,405.9,653.0,481.4,563.4,245.4,247.7,3480.7,3481.9,589.1,470.3,691.3,1128.7,1414.0,431.7,15.0,6.0,16.0,14969.0,3105.0,1980.0,5550.0,-36.0,19.0,6.0,24.0,-15.0,21.0,15895.0,3392.0,-254.0,2050.0,-8.0,-12.0,-2.0,1.0
2022-05-08 14:28:18.857108-07:00,881.4,970.5,1495.8,1101.7,635.1,475.0,1424.1,1130.5,3466.1,3474.6,686.4,899.1,407.5,3494.1,811.9,801.9,3479.5,3471.0,404.3,657.0,481.4,563.4,245.4,246.2,3480.7,3481.9,586.7,464.8,691.3,1128.7,1414.0,437.2,5.0,-2.0,-9.0,14962.0,3113.0,2010.0,5554.0,55.0,80.0,4.0,10.0,-17.0,6.0,15894.0,3397.0,-258.0,2053.0,48.0,15.0,0.0,1.0
2022-05-08 14:28:19.065732-07:00,881.4,967.9,1504.1,1103.4,635.1,475.0,1424.1,1122.6,3466.1,3471.0,685.6,900.8,407.5,3494.1,811.9,796.0,3480.7,3471.0,404.3,657.0,477.4,562.6,247.0,246.2,3472.2,3481.9,586.7,464.8,688.9,1128.7,1423.1,437.2,0.0,-2.0,-7.0,14952.0,3118.0,2037.0,5568.0,34.0,55.0,33.0,7.0,-22.0,7.0,15892.0,3403.0,-260.0,2060.0,38.0,3.0,17.0,1.0
2022-05-08 14:28:19.068530-07:00,878.0,967.9,1504.1,1103.4,635.1,479.8,1418.6,1122.6,3466.1,3471.0,685.6,900.8,407.5,3497.8,810.2,796.0,3480.7,3472.2,406.7,653.0,477.4,562.6,247.0,246.2,3472.2,3474.6,586.7,461.6,688.9,1128.7,1423.1,436.4,-4.0,8.0,-4.0,14938.0,3133.0,2079.0,5581.0,81.0,103.0,14.0,0.0,-14.0,9.0,15888.0,3416.0,-259.0,2063.0,64.0,6.0,-2.0,1.0
2022-05-08 14:28:19.069459-07:00,878.0,966.2,1501.4,1102.5,635.1,479.8,1418.6,1128.7,3466.1,3474.6,691.3,894.9,407.5,3497.8,810.2,798.5,3471.0,3472.2,406.7,653.0,480.6,561.0,248.5,246.2,3473.4,3474.6,586.7,461.6,696.2,1125.2,1420.4,436.4,-6.0,10.0,-12.0,14926.0,3141.0,2128.0,5592.0,14.0,78.0,12.0,3.0,-12.0,23.0,15885.0,3432.0,-256.0,2061.0,23.0,-4.0,-8.0,1.0
2022-05-08 14:28:19.125550-07:00,879.7,966.2,1501.4,1102.5,635.9,477.4,1421.3,1128.7,3471.0,3472.2,691.3,894.9,409.0,3492.9,811.0,798.5,3471.0,3477.1,406.7,658.7,480.6,561.0,248.5,245.4,3473.4,3489.2,585.9,465.6,696.2,1125.2,1414.9,436.4,10.0,-3.0,-10.0,14915.0,3166.0,2159.0,5593.0,129.0,52.0,4.0,14.0,-17.0,5.0,15881.0,3452.0,-256.0,2062.0,122.0,6.0,-11.0,1.0
2022-05-08 14:28:19.127223-07:00,879.7,966.2,1495.8,1105.1,635.9,477.4,1413.1,1127.0,3471.0,3472.2,696.2,900.8,409.0,3492.9,807.7,798.5,3480.7,3474.6,406.7,658.7,479.8,560.2,248.5,245.4,3467.4,3490.5,585.9,465.6,691.3,1123.5,1414.9,436.4,3.0,13.0,-3.0,14899.0,3219.0,2192.0,5594.0,106.0,20.0,1.0,3.0,-10.0,8.0,15871.0,3497.0,-251.0,2060.0,89.0,-3.0,-13.0,1.0
2022-05-08 14:28:19.128855-07:00,878.0,967.9,1495.8,1105.1,634.3,475.8,1413.1,1127.0,3473.4,3483.2,696.2,900.8,409.8,3496.6,807.7,798.5,3480.7,3474.6,405.9,654.6,479.8,560.2,247.7,237.8,3467.4,3490.5,589.9,467.9,691.3,1123.5,1419.5,432.5,9.0,-5.0,1.0,14892.0,3240.0,2213.0,5593.0,60.0,33.0,8.0,14.0,-25.0,13.0,15866.0,3522.0,-248.0,2058.0,84.0,31.0,-10.0,1.0
2022-05-08 14:28:19.336121-07:00,878.0,967.9,1496.7,1105.1,634.3,475.8,1418.6,1113.0,3473.4,3483.2,694.6,899.1,409.8,3496.6,811.0,796.9,3483.2,3481.9,405.9,654.6,481.4,558.6,247.7,237.8,3483.2,3478.3,589.9,467.9,696.2,1140.1,1419.5,432.5,8.0,20.0,-8.0,14877.0,3281.0,2245.0,5594.0,105.0,46.0,9.0,10.0,4.0,6.0,15859.0,3554.0,-232.0,2060.0,69.0,34.0,-8.0,1.0
2022-05-08 14:28:19.337766-07:00,878.0,970.5,1496.7,1105.1,633.5,481.4,1418.6,1113.0,3468.6,3469.8,694.6,899.1,409.8,3499.0,811.0,796.9,3483.2,3481.9,408.2,653.0,481.4,558.6,244.7,247.0,3483.2,3478.3,589.1,468.7,696.2,1140.1,1420.4,436.4,-1.0,2.0,-14.0,14872.0,3290.0,2266.0,5596.0,20.0,30.0,-9.0,0.0,-24.0,7.0,15856.0,3566.0,-219.0,2063.0,33.0,29.0,-12.0,1.0
2022-05-08 14:28:19.338880-07:00,878.0,970.5,1497.7,1097.3,633.5,481.4,1418.6,1106.0,3468.6,3469.8,690.5,894.9,409.8,3499.0,812.7,798.5,3479.5,3473.4,408.2,653.0,479.8,558.6,244.7,247.0,3477.1,3477.1,589.1,468.7,694.6,1125.2,1420.4,436.4,6.0,13.0,-15.0,14865.0,3325.0,2282.0,5587.0,134.0,-6.0,-4.0,0.0,0.0,5.0,15850.0,3597.0,-198.0,2058.0,102.0,19.0,-28.0,1.0
2022-05-08 14:28:19.339764-07:00,880.6,973.1,1494.9,1097.3,635.9,478.2,1418.6,1106.0,3472.2,3474.6,688.9,894.9,408.2,3492.9,812.7,798.5,3479.5,3473.4,408.2,653.8,479.8,557.8,247.0,240.9,3477.1,3477.1,581.8,463.2,694.6,1125.2,1421.3,434.9,10.0,6.0,-5.0,14859.0,3351.0,2292.0,5583.0,-6.0,0.0,-15.0,7.0,-15.0,3.0,15847.0,3615.0,-191.0,2048.0,-2.0,0.0,-18.0,1.0
2022-05-08 14:28:19.396122-07:00,880.6,973.1,1494.9,1101.7,635.9,479.0,1416.7,1093.8,3472.2,3474.6,688.9,899.1,408.2,3502.7,810.2,794.4,3474.6,3484.4,404.3,653.8,482.2,557.8,247.0,240.9,3477.1,3484.4,589.1,463.2,695.4,1125.2,1421.3,434.9,7.0,2.0,-14.0,14857.0,3365.0,2296.0,5577.0,78.0,-23.0,11.0,3.0,-10.0,2.0,15846.0,3624.0,-188.0,2041.0,59.0,10.0,-15.0,1.0
2022-05-08 14:28:19.516139-07:00,877.2,977.3,1491.2,1101.7,631.9,479.0,1416.7,1093.8,3469.8,3471.0,692.1,899.1,405.9,3502.7,810.2,794.4,3474.6,3484.4,404.3,653.0,482.2,561.0,244.7,243.9,3477.1,3484.4,589.1,464.0,695.4,1130.5,1412.2,434.1,8.0,1.0,7.0,14853.0,3387.0,2298.0,5574.0,59.0,10.0,8.0,10.0,0.0,9.0,15843.0,3641.0,-186.0,2039.0,54.0,6.0,-13.0,1.0
2022-05-08 14:28:19.785475-07:00,877.2,977.3,1491.2,1098.2,631.9,477.4,1413.1,1082.5,3469.8,3471.0,692.1,900.8,405.9,3491.7,807.7,797.7,3484.4,3480.7,403.5,653.0,480.6,561.0,244.7,243.9,3477.1,3477.1,581.8,464.0,689.7,1130.5,1412.2,434.1,4.0,-3.0,-5.0,14849.0,3395.0,2307.0,5575.0,-7.0,12.0,10.0,6.0,-9.0,8.0,15841.0,3649.0,-185.0,2040.0,5.0,8.0,0.0,1.0
2022-05-08 14:28:19.787490-07:00,878.9,973.1,1489.3,1098.2,634.3,477.4,1413.1,1082.5,3467.4,3474.6,688.9,900.8,413.7,3491.7,807.7,797.7,3484.4,3480.7,403.5,657.0,480.6,561.8,247.0,247.7,3477.1,3477.1,581.8,463.2,689.7,1128.7,1415.8,439.6,9.0,2.0,-7.0,14847.0,3396.0,2306.0,5581.0,-1.0,0.0,10.0,5.0,-12.0,5.0,15841.0,3649.0,-185.0,2040.0,10.0,5.0,8.0,1.0
2022-05-08 14:28:19.788483-07:00,878.9,973.1,1489.3,1100.8,634.3,471.9,1408.5,1069.5,3467.4,3474.6,688.9,893.2,413.7,3496.6,807.7,797.7,3479.5,3481.9,407.5,657.0,480.6,561.8,247.0,247.7,3488.0,3484.4,586.7,463.2,688.9,1128.7,1415.8,439.6,6.0,19.0,-3.0,14846.0,3395.0,2305.0,5585.0,-68.0,9.0,-19.0,6.0,-2.0,8.0,15842.0,3642.0,-187.0,2040.0,-45.0,-3.0,-4.0,1.0
2022-05-08 14:28:19.789409-07:00,880.6,969.6,1489.3,1106.9,635.1,471.9,1408.5,1069.5,3463.7,3464.9,691.3,900.0,413.7,3496.6,807.7,797.7,3479.5,3481.9,407.5,656.2,478.2,558.6,246.2,248.5,3488.0,3484.4,586.7,467.9,692.9,1126.1,1429.5,432.5,3.0,-2.0,-14.0,14851.0,3382.0,2301.0,5583.0,4.0,-11.0,6.0,1.0,-9.0,0.0,15845.0,3630.0,-189.0,2040.0,-6.0,-1.0,-3.0,1.0
2022-05-08 14:28:19.791519-07:00,880.6,969.6,1489.3,1106.9,631.9,476.6,1415.8,1065.1,3463.7,3464.9,691.3,900.0,409.0,3501.4,806.9,799.4,3479.5,3488.0,402.0,656.2,478.2,558.6,246.2,248.5,3477.1,3481.9,589.1,465.6,692.9,1126.1,1429.5,432.5,6.0,9.0,-6.0,14852.0,3383.0,2291.0,5581.0,-16.0,-26.0,-2.0,3.0,-4.0,9.0,15846.0,3624.0,-193.0,2040.0,-11.0,-15.0,-7.0,1.0
2022-05-08 14:28:19.966150-07:00,879.7,974.8,1494.0,1103.4,631.9,476.6,1415.8,1065.1,3477.1,3472.2,688.9,899.1,409.0,3501.4,806.9,799.4,3479.5,3488.0,402.0,656.2,479.8,557.8,247.7,248.5,3477.1,3481.9,589.1,465.6,694.6,1125.2,1418.6,442.7,0.0,4.0,-5.0,14855.0,3384.0,2280.0,5579.0,1.0,-14.0,-5.0,4.0,-12.0,9.0,15847.0,3619.0,-197.0,2040.0,-4.0,-7.0,-8.0,1.0
2022-05-08 14:28:19.966953-07:00,879.7,974.8,1494.0,1103.4,631.9,476.6,1415.8,1065.1,3477.1,3472.2,688.9,899.1,409.0,3501.4,806.9,799.4,3479.5,3488.0,402.0,656.2,479.8,557.8,247.7,248.5,3477.1,3481.9,589.1,465.6,694.6,1125.2,1418.6,442.7,0.0,4.0,-5.0,14855.0,3384.0,2280.0,5579.0,1.0,-14.0,-5.0,4.0,-12.0,9.0,15847.0,3619.0,-197.0,2040.0,-4.0,-7.0,-8.0,1.0
2022-05-08 14:28:19.967978-07:00,878.9,974.8,1486.6,1104.3,637.6,479.8,1400.3,1053.0,3483.2,3473.4,685.6,895.7,412.1,3499.0,808.5,794.4,3475.9,3475.9,401.2,656.2,482.2,558.6,244.7,245.4,3483.2,3485.6,580.2,465.6,693.8,1130.5,1424.1,435.7,2.0,-4.0,-6.0,14858.0,3392.0,2267.0,5571.0,37.0,-7.0,-5.0,1.0,-10.0,6.0,15848.0,3616.0,-204.0,2040.0,36.0,3.0,-6.0,1.0
2022-05-08 14:28:19.968945-07:00,873.8,980.7,1494.0,1105.1,637.6,479.8,1400.3,1053.0,3467.4,3480.7,688.0,900.8,412.1,3499.0,808.5,794.4,3475.9,3475.9,401.2,656.2,483.7,557.0,245.4,243.2,3483.2,3485.6,580.2,465.6,696.2,1128.7,1414.9,437.2,9.0,1.0,6.0,14856.0,3398.0,2269.0,5571.0,-20.0,9.0,-3.0,9.0,-11.0,8.0,15847.0,3619.0,-204.0,2040.0,-8.0,2.0,-3.0,1.0
2022-05-08 14:28:19.970155-07:00,875.5,980.7,1494.0,1105.1,633.5,473.5,1403.0,1053.9,3477.1,3480.7,688.0,900.8,408.2,3495.3,811.0,789.4,3472.2,3481.9,409.0,653.0,483.7,557.0,245.4,247.0,3477.1,3483.2,584.3,461.6,696.2,1128.7,1414.9,435.7,6.0,2.0,-13.0,14856.0,3398.0,2278.0,5567.0,9.0,13.0,-15.0,5.0,0.0,7.0,15847.0,3619.0,-202.0,2039.0,0.0,4.0,-7.0,1.0
2022-05-08 14:28:20.056136-07:00,875.5,972.2,1488.4,1099.9,633.5,473.5,1403.0,1047.8,3477.1,3474.6,687.2,900.0,408.2,3495.3,811.0,801.9,3488.0,3481.9,409.0,653.0,475.8,557.8,247.0,247.0,3486.8,3483.2,584.3,461.6,693.8,1127.0,1423.1,435.7,1.0,-6.0,-7.0,14856.0,3401.0,2278.0,5566.0,24.0,-14.0,4.0,3.0,-20.0,11.0,15847.0,3620.0,-202.0,2039.0,21.0,0.0,3.0,1.0
2022-05-08 14:28:20.175684-07:00,886.5,972.2,1488.4,1099.9,635.1,479.0,1402.1,1047.8,3478.3,3474.6,687.2,900.0,411.4,3502.7,813.5,801.9,3488.0,3477.1,408.2,658.7,475.8,557.8,247.0,247.0,3486.8,3484.4,578.6,460.8,693.8,1127.0,1423.1,431.7,6.0,11.0,7.0,14857.0,3406.0,2273.0,5563.0,-33.0,-5.0,-10.0,3.0,-6.0,15.0,15848.0,3617.0,-203.0,2039.0,-35.0,-2.0,-5.0,1.0
2022-05-08 14:28:20.235540-07:00,886.5,973.9,1475.5,1103.4,635.1,479.0,1402.1,1056.5,3478.3,3467.4,686.4,898.3,411.4,3502.7,813.5,798.5,3477.1,3477.1,408.2,658.7,479.0,554.6,250.8,247.0,3475.9,3484.4,578.6,460.8,689.7,1123.5,1414.0,431.7,7.0,-4.0,-17.0,14859.0,3404.0,2279.0,5557.0,30.0,17.0,-21.0,5.0,-5.0,-4.0,15849.0,3615.0,-199.0,2036.0,19.0,17.0,-11.0,1.0
2022-05-08 14:28:20.236829-07:00,875.5,973.9,1475.5,1103.4,633.5,483.0,1394.8,1056.5,3469.8,3467.4,686.4,898.3,404.3,3495.3,811.9,798.5,3477.1,3483.2,406.7,657.9,479.0,554.6,250.8,248.5,3475.9,3484.4,583.5,467.1,689.7,1123.5,1414.0,434.1,4.0,-2.0,-6.0,14857.0,3412.0,2282.0,5555.0,5.0,-24.0,14.0,6.0,-11.0,11.0,15848.0,3618.0,-198.0,2037.0,-3.0,-9.0,6.0,1.0
2022-05-08 14:28:20.326282-07:00,875.5,974.8,1485.6,1097.3,633.5,483.0,1394.8,1049.6,3469.8,3469.8,684.8,893.2,404.3,3495.3,811.9,801.9,3469.8,3483.2,406.7,657.9,483.7,556.2,249.2,248.5,3478.3,3484.4,583.5,467.1,699.5,1126.1,1415.8,434.1,14.0,4.0,4.0,14859.0,3417.0,2265.0,5554.0,5.0,-36.0,3.0,5.0,-4.0,0.0,15849.0,3614.0,-199.0,2037.0,1.0,-9.0,3.0,1.0
2022-05-08 14:28:20.327851-07:00,878.9,973.9,1485.6,1097.3,638.4,486.9,1398.5,1049.6,3471.0,3475.9,684.8,893.2,412.9,3500.2,811.9,801.9,3469.8,3483.2,405.9,660.3,483.7,556.2,243.9,250.8,3478.3,3472.2,583.5,467.1,699.5,1126.1,1414.9,435.7,5.0,5.0,-3.0,14859.0,3420.0,2268.0,5550.0,3.0,22.0,-14.0,6.0,-4.0,8.0,15849.0,3614.0,-199.0,2036.0,-2.0,3.0,-10.0,1.0
2022-05-08 14:28:20.505816-07:00,878.9,973.9,1481.9,1106.0,638.4,486.9,1407.6,1037.5,3471.0,3475.9,688.9,899.1,412.9,3500.2,811.0,793.5,3478.3,3474.6,405.9,660.3,479.8,557.8,243.9,250.8,3477.1,3480.7,583.5,467.1,691.3,1128.7,1414.9,435.7,8.0,-5.0,-12.0,14859.0,3417.0,2277.0,5549.0,0.0,10.0,-4.0,4.0,-19.0,3.0,15849.0,3614.0,-197.0,2037.0,7.0,11.0,0.0,1.0
2022-05-08 14:28:20.506784-07:00,869.6,973.9,1481.9,1106.0,635.1,488.5,1407.6,1037.5,3474.6,3480.7,688.9,899.1,409.0,3496.6,811.0,793.5,3478.3,3474.6,408.2,660.3,479.8,557.8,258.4,247.0,3477.1,3480.7,585.9,471.1,691.3,1128.7,1416.7,434.9,7.0,10.0,-6.0,14857.0,3424.0,2280.0,5548.0,-11.0,-1.0,-8.0,5.0,0.0,8.0,15848.0,3618.0,-196.0,2037.0,-23.0,-2.0,-6.0,1.0
2022-05-08 14:28:20.508013-07:00,869.6,973.9,1484.7,1095.6,635.1,488.5,1402.1,1049.6,3474.6,3480.7,686.4,895.7,409.0,3496.6,812.7,797.7,3488.0,3483.2,408.2,660.3,482.2,557.0,258.4,247.0,3483.2,3475.9,585.9,471.1,692.1,1130.5,1416.7,434.9,4.0,4.0,-11.0,14860.0,3420.0,2278.0,5543.0,12.0,-12.0,-10.0,0.0,-4.0,5.0,15850.0,3611.0,-196.0,2035.0,3.0,-6.0,-5.0,1.0
2022-05-08 14:28:20.509221-07:00,879.7,975.6,1484.7,1095.6,638.4,489.3,1402.1,1049.6,3481.9,3475.9,686.4,895.7,409.8,3507.5,812.7,797.7,3488.0,3483.2,402.8,656.2,482.2,557.0,248.5,242.4,3483.2,3475.9,583.5,467.1,692.1,1130.5,1417.6,441.9,6.0,2.0,2.0,14863.0,3422.0,2272.0,5538.0,-7.0,-9.0,-16.0,2.0,-6.0,7.0,15850.0,3610.0,-196.0,2035.0,4.0,-7.0,-12.0,1.0
2022-05-08 14:28:20.715399-07:00,879.7,975.6,1491.2,1096.4,638.4,489.3,1396.7,1047.0,3481.9,3475.9,687.2,894.9,409.8,3507.5,808.5,794.4,3477.1,3475.9,402.8,656.2,480.6,554.6,248.5,242.4,3479.5,3474.6,583.5,467.1,699.5,1131.4,1417.6,441.9,8.0,-2.0,-23.0,14864.0,3423.0,2273.0,5534.0,-18.0,-4.0,-8.0,1.0,-9.0,0.0,15851.0,3610.0,-198.0,2031.0,-24.0,-23.0,3.0,1.0
2022-05-08 14:28:20.716691-07:00,878.0,972.2,1488.4,1096.4,639.2,489.3,1396.7,1047.0,3488.0,3473.4,685.6,894.9,411.4,3497.8,808.5,794.4,3477.1,3475.9,405.9,657.9,480.6,558.6,247.7,248.5,3479.5,3474.6,581.8,471.1,699.5,1128.7,1419.5,432.5,17.0,14.0,-15.0,14866.0,3424.0,2255.0,5534.0,-20.0,-59.0,17.0,11.0,-5.0,-4.0,15852.0,3605.0,-215.0,2029.0,-30.0,-51.0,16.0,1.0
2022-05-08 14:28:20.717931-07:00,878.0,972.2,1488.4,1108.6,639.2,489.3,1401.2,1046.1,3488.0,3473.4,685.6,905.9,411.4,3507.5,807.7,802.7,3484.4,3485.6,406.7,657.9,483.0,558.6,247.7,248.5,3484.4,3479.5,586.7,471.1,697.9,1128.7,1419.5,432.5,12.0,8.0,20.0,14872.0,3419.0,2230.0,5532.0,-7.0,-42.0,13.0,10.0,-5.0,16.0,15853.0,3596.0,-235.0,2031.0,-10.0,-18.0,7.0,1.0
2022-05-08 14:28:20.719079-07:00,878.0,970.5,1492.1,1108.6,635.9,489.3,1401.2,1046.1,3472.2,3469.8,689.7,905.9,409.8,3507.5,807.7,802.7,3484.4,3485.6,406.7,657.0,483.0,560.2,247.7,249.2,3484.4,3479.5,586.7,464.8,697.9,1134.0,1406.7,432.5,1.0,-12.0,7.0,14873.0,3420.0,2226.0,5531.0,24.0,11.0,-4.0,-1.0,-10.0,6.0,15853.0,3595.0,-236.0,2031.0,32.0,17.0,-10.0,1.0
2022-05-08 14:28:20.720749-07:00,878.0,970.5,1492.1,1099.9,635.9,493.2,1402.1,1034.9,3472.2,3469.8,689.7,899.1,409.8,3494.1,806.0,797.7,3471.0,3478.3,411.4,657.0,479.0,560.2,247.7,249.2,3479.5,3474.6,581.8,464.8,697.9,1134.0,1406.7,432.5,6.0,0.0,4.0,14869.0,3420.0,2244.0,5533.0,-5.0,47.0,-11.0,0.0,-12.0,9.0,15852.0,3599.0,-223.0,2033.0,16.0,41.0,-13.0,1.0
2022-05-08 14:28:20.776296-07:00,877.2,979.0,1489.3,1099.9,634.3,493.2,1402.1,1034.9,3477.1,3471.0,685.6,899.1,410.6,3494.1,806.0,797.7,3471.0,3478.3,411.4,661.9,479.0,563.4,243.9,250.0,3479.5,3474.6,581.8,467.9,697.9,1131.4,1427.7,434.1,8.0,5.0,-24.0,14865.0,3427.0,2268.0,5529.0,33.0,30.0,-16.0,1.0,-10.0,-1.0,15851.0,3611.0,-203.0,2029.0,13.0,14.0,-17.0,1.0
2022-05-08 14:28:21.076364-07:00,877.2,979.0,1489.3,1092.9,634.3,494.8,1402.1,1040.1,3477.1,3471.0,685.6,898.3,410.6,3512.4,806.9,797.7,3479.5,3477.1,406.7,661.9,480.6,563.4,243.9,250.0,3480.7,3480.7,584.3,467.9,699.5,1131.4,1427.7,434.1,8.0,-2.0,-9.0,14866.0,3429.0,2269.0,5526.0,11.0,-21.0,-5.0,8.0,-7.0,8.0,15851.0,3614.0,-201.0,2022.0,10.0,-14.0,-14.0,1.0
2022-05-08 14:28:21.078932-07:00,885.6,968.8,1475.5,1120.9,635.9,494.8,1402.1,1040.1,3471.0,3472.2,687.2,902.5,417.6,3512.4,806.9,797.7,3479.5,3477.1,406.7,657.0,479.0,555.4,248.5,247.0,3480.7,3480.7,584.3,464.8,688.0,1127.9,1423.1,434.1,12.0,5.0,8.0,14869.0,3430.0,2261.0,5519.0,9.0,-6.0,-18.0,12.0,3.0,11.0,15852.0,3613.0,-204.0,2015.0,-1.0,-7.0,-19.0,1.0
2022-05-08 14:28:21.080338-07:00,885.6,968.8,1475.5,1120.9,636.7,494.0,1397.6,1039.2,3471.0,3472.2,687.2,902.5,414.5,3502.7,811.0,797.7,3479.5,3484.4,411.4,658.7,479.0,555.4,248.5,247.0,3477.1,3483.2,581.8,467.9,688.0,1127.9,1423.1,434.1,16.0,3.0,-1.0,14871.0,3429.0,2266.0,5514.0,-14.0,22.0,-9.0,10.0,0.0,3.0,15853.0,3614.0,-203.0,2007.0,-9.0,3.0,-11.0,1.0
2022-05-08 14:28:21.081400-07:00,882.3,971.3,1489.3,1097.3,636.7,494.0,1397.6,1039.2,3471.0,3477.1,688.0,900.0,414.5,3502.7,811.0,797.7,3479.5,3484.4,411.4,658.7,483.7,557.8,245.4,248.5,3477.1,3483.2,581.8,467.9,697.9,1120.9,1417.6,436.4,11.0,4.0,-7.0,14869.0,3428.0,2274.0,5515.0,34.0,14.0,9.0,5.0,6.0,8.0,15852.0,3615.0,-197.0,2009.0,22.0,18.0,-1.0,1.0
2022-05-08 14:28:21.105657-07:00,882.3,971.3,1489.3,1097.3,633.5,495.6,1398.5,1040.9,3471.0,3477.1,688.0,900.0,409.0,3505.1,810.2,799.4,3479.5,3478.3,411.4,655.4,483.7,557.8,245.4,248.5,3477.1,3477.1,581.8,465.6,697.9,1120.9,1417.6,436.4,7.0,-5.0,-5.0,14869.0,3422.0,2276.0,5520.0,-13.0,14.0,-3.0,3.0,-7.0,6.0,15853.0,3614.0,-197.0,2009.0,-7.0,1.0,4.0,1.0
2022-05-08 14:28:21.166422-07:00,878.0,975.6,1485.6,1101.7,638.4,494.8,1402.1,1031.4,3479.5,3481.9,685.6,895.7,414.5,3495.3,811.9,800.2,3479.5,3485.6,402.8,660.3,479.8,556.2,256.1,246.2,3481.9,3479.5,580.2,465.6,694.6,1124.4,1422.2,436.4,3.0,-3.0,-3.0,14875.0,3406.0,2257.0,5522.0,9.0,-23.0,7.0,2.0,-8.0,14.0,15856.0,3599.0,-220.0,2005.0,0.0,-28.0,0.0,1.0
2022-05-08 14:28:21.345687-07:00,877.2,975.6,1485.6,1101.7,637.6,489.3,1400.3,1031.4,3468.6,3481.9,685.6,895.7,409.0,3506.3,808.5,800.2,3479.5,3485.6,406.7,661.1,479.8,556.2,256.1,250.0,3481.9,3478.3,584.3,463.2,694.6,1124.4,1422.2,433.3,12.0,0.0,6.0,14880.0,3399.0,2237.0,5520.0,-65.0,-39.0,-11.0,10.0,-4.0,9.0,15859.0,3587.0,-236.0,2001.0,-51.0,-35.0,2.0,1.0
2022-05-08 14:28:21.348023-07:00,877.2,970.5,1477.3,1088.6,637.6,489.3,1400.3,1035.7,3468.6,3478.3,684.8,892.4,409.0,3506.3,808.5,797.7,3481.9,3485.6,406.7,661.1,485.3,552.2,250.8,250.0,3477.1,3478.3,584.3,463.2,693.8,1125.2,1421.3,433.3,14.0,-3.0,-3.0,14887.0,3382.0,2218.0,5519.0,-53.0,-11.0,-4.0,11.0,0.0,3.0,15862.0,3573.0,-249.0,1999.0,-31.0,-25.0,1.0,1.0
2022-05-08 14:28:21.349038-07:00,876.4,970.5,1477.3,1088.6,636.7,492.5,1397.6,1035.7,3474.6,3478.3,684.8,892.4,407.5,3494.1,813.5,797.7,3481.9,3483.2,406.7,656.2,485.3,552.2,250.8,248.5,3477.1,3488.0,580.2,467.1,693.8,1125.2,1421.3,436.4,6.0,-5.0,0.0,14891.0,3368.0,2204.0,5523.0,-51.0,-30.0,13.0,2.0,-9.0,7.0,15864.0,3562.0,-257.0,2000.0,-27.0,-12.0,12.0,1.0
2022-05-08 14:28:21.435575-07:00,876.4,970.5,1483.8,1095.6,636.7,492.5,1397.6,1031.4,3474.6,3478.3,680.7,893.2,407.5,3494.1,813.5,797.7,3480.7,3483.2,406.7,656.2,478.2,551.4,242.4,248.5,3472.2,3488.0,580.2,467.1,683.1,1128.7,1411.3,436.4,14.0,11.0,14.0,14892.0,3365.0,2197.0,5524.0,30.0,27.0,-4.0,6.0,-2.0,14.0,15864.0,3566.0,-257.0,2000.0,17.0,-3.0,0.0,1.0
2022-05-08 14:28:21.556185-07:00,873.8,970.5,1483.8,1095.6,640.8,494.8,1395.7,1031.4,3471.0,3478.3,680.7,893.2,412.9,3502.7,814.4,797.7,3480.7,3480.7,405.1,649.7,478.2,551.4,242.4,243.9,3472.2,3479.5,582.6,466.4,683.1,1128.7,1411.3,436.4,2.0,0.0,-13.0,14889.0,3363.0,2213.0,5527.0,-39.0,50.0,10.0,1.0,-4.0,4.0,15864.0,3566.0,-252.0,2000.0,-8.0,16.0,-7.0,1.0
2022-05-08 14:28:21.557312-07:00,873.8,959.4,1485.6,1099.9,640.8,494.8,1399.4,1037.5,3471.0,3480.7,688.0,894.9,412.9,3502.7,811.0,796.0,3492.9,3477.1,405.1,649.7,478.2,552.2,248.5,243.9,3488.0,3483.2,582.6,466.4,697.0,1127.0,1404.9,436.4,8.0,18.0,-20.0,14886.0,3357.0,2214.0,5539.0,16.0,-50.0,49.0,9.0,-3.0,6.0,15862.0,3572.0,-252.0,2003.0,17.0,-4.0,23.0,1.0
2022-05-08 14:28:21.558229-07:00,877.2,969.6,1485.6,1099.9,633.5,491.7,1399.4,1037.5,3472.2,3474.6,688.0,894.9,407.5,3501.4,811.0,796.0,3492.9,3477.1,404.3,654.6,478.2,552.2,246.2,245.4,3488.0,3483.2,581.0,474.3,697.0,1127.0,1411.3,436.4,23.0,18.0,18.0,14888.0,3362.0,2178.0,5544.0,-15.0,-45.0,-3.0,10.0,5.0,7.0,15862.0,3569.0,-258.0,2007.0,-7.0,-5.0,-6.0,1.0
2022-05-08 14:28:21.559689-07:00,877.2,969.6,1476.4,1097.3,633.5,491.7,1393.0,1035.7,3472.2,3474.6,686.4,891.5,407.5,3501.4,807.7,794.4,3484.4,3480.7,404.3,654.6,475.8,554.6,246.2,245.4,3485.6,3480.7,581.0,474.3,690.5,1126.1,1411.3,436.4,7.0,-1.0,-2.0,14892.0,3355.0,2175.0,5540.0,-28.0,42.0,-27.0,4.0,-2.0,4.0,15864.0,3563.0,-256.0,1999.0,-16.0,10.0,-21.0,1.0
2022-05-08 14:28:21.616252-07:00,867.9,981.6,1476.4,1097.3,635.1,492.5,1393.0,1035.7,3467.4,3477.1,686.4,891.5,411.4,3496.6,807.7,794.4,3484.4,3480.7,401.2,657.9,475.8,554.6,246.2,245.4,3485.6,3480.7,580.2,470.3,690.5,1126.1,1407.6,452.2,6.0,-6.0,-17.0,14893.0,3348.0,2184.0,5538.0,2.0,-14.0,-11.0,1.0,-8.0,0.0,15865.0,3563.0,-248.0,1996.0,11.0,11.0,-8.0,1.0
2022-05-08 14:28:21.826295-07:00,867.9,981.6,1490.3,1100.8,635.1,492.5,1393.0,1033.2,3467.4,3477.1,686.4,897.4,411.4,3496.6,804.4,798.5,3475.9,3483.2,401.2,657.9,478.2,557.8,246.2,245.4,3479.5,3481.9,580.2,470.3,691.3,1126.1,1407.6,452.2,9.0,10.0,7.0,14893.0,3353.0,2179.0,5535.0,14.0,1.0,-16.0,7.0,0.0,13.0,15864.0,3568.0,-245.0,1994.0,8.0,13.0,-14.0,1.0
2022-05-08 14:28:21.827970-07:00,876.4,967.1,1490.3,1100.8,634.3,494.0,1393.0,1033.2,3473.4,3473.4,686.4,897.4,409.8,3497.8,804.4,798.5,3475.9,3483.2,408.2,653.0,478.2,557.8,250.8,250.8,3479.5,3481.9,580.2,474.3,691.3,1126.1,1410.3,434.9,9.0,-8.0,-10.0,14896.0,3353.0,2179.0,5529.0,-8.0,4.0,-13.0,2.0,-8.0,-4.0,15865.0,3566.0,-240.0,1989.0,-3.0,5.0,-11.0,1.0
2022-05-08 14:28:21.829509-07:00,876.4,967.1,1496.7,1096.4,634.3,494.8,1396.7,1037.5,3473.4,3473.4,684.8,897.4,409.8,3496.6,812.7,798.5,3475.9,3483.2,412.9,653.0,479.0,553.0,250.8,250.8,3481.9,3481.9,582.6,474.3,698.7,1126.1,1410.3,434.9,9.0,-2.0,0.0,14895.0,3357.0,2180.0,5527.0,42.0,6.0,16.0,9.0,-5.0,9.0,15865.0,3569.0,-240.0,1988.0,26.0,6.0,2.0,1.0
2022-05-08 14:28:21.830645-07:00,878.9,966.2,1485.6,1096.4,635.9,494.8,1396.7,1037.5,3474.6,3475.9,686.4,897.4,412.1,3496.6,812.7,798.5,3475.9,3483.2,412.9,656.2,479.0,553.8,244.7,243.9,3481.9,3481.9,582.6,472.7,698.7,1129.6,1409.4,427.8,16.0,16.0,3.0,14891.0,3367.0,2186.0,5530.0,-3.0,47.0,-8.0,7.0,4.0,4.0,15863.0,3577.0,-237.0,1989.0,-5.0,14.0,-7.0,1.0
2022-05-08 14:28:21.885614-07:00,878.9,966.2,1485.6,1094.7,635.9,492.5,1394.8,1031.4,3474.6,3475.9,686.4,897.4,412.1,3501.4,806.9,794.4,3475.9,3477.1,404.3,656.2,480.6,553.8,244.7,243.9,3485.6,3477.1,583.5,472.7,694.6,1129.6,1409.4,427.8,16.0,-12.0,-14.0,14886.0,3374.0,2205.0,5532.0,105.0,37.0,-14.0,5.0,-15.0,-8.0,15862.0,3580.0,-228.0,1989.0,62.0,18.0,-10.0,1.0
2022-05-08 14:28:22.006092-07:00,878.0,966.2,1488.4,1094.7,635.1,492.5,1394.8,1031.4,3479.5,3471.0,686.4,897.4,408.2,3501.4,806.9,794.4,3475.9,3477.1,404.3,655.4,480.6,551.4,252.3,247.7,3485.6,3477.1,583.5,472.7,694.6,1124.4,1414.0,445.1,11.0,8.0,13.0,14874.0,3422.0,2248.0,5518.0,210.0,82.0,-47.0,6.0,-12.0,11.0,15854.0,3621.0,-212.0,1986.0,152.0,37.0,-21.0,1.0
2022-05-08 14:28:22.036185-07:00,878.0,966.2,1488.4,1099.0,635.1,492.5,1394.8,1040.1,3479.5,3471.0,686.4,893.2,408.2,3496.6,813.5,798.5,3472.2,3486.8,405.1,655.4,481.4,551.4,252.3,247.7,3479.5,3480.7,585.1,472.7,694.6,1124.4,1414.0,445.1,23.0,-87.0,15.0,14838.0,3556.0,2388.0,5471.0,1139.0,332.0,-180.0,0.0,-70.0,-8.0,15828.0,3740.0,-167.0,1976.0,779.0,124.0,-84.0,1.0
2022-05-08 14:28:22.037178-07:00,878.9,967.1,1484.7,1099.0,640.0,492.5,1394.8,1040.1,3474.6,3469.8,690.5,893.2,411.4,3496.6,813.5,798.5,3472.2,3486.8,405.1,655.4,481.4,553.0,250.0,248.5,3479.5,3480.7,585.1,467.1,694.6,1127.9,1417.6,436.4,-3.0,-185.0,-54.0,14624.0,4240.0,2848.0,5337.0,2592.0,538.0,60.0,-11.0,-50.0,-60.0,15669.0,4376.0,5.0,1937.0,2554.0,240.0,-193.0,1.0
2022-05-08 14:28:22.125606-07:00,878.9,967.1,1484.7,1100.8,640.0,494.0,1386.6,1035.7,3474.6,3469.8,690.5,900.8,405.9,3502.7,820.2,798.5,3475.9,3478.3,405.1,653.8,490.1,553.0,250.0,248.5,3478.3,3478.3,582.6,467.1,695.4,1127.9,1417.6,436.4,-16.0,-10.0,10.0,14191.0,5310.0,3347.0,5259.0,2860.0,238.0,326.0,-13.0,-11.0,31.0,15317.0,5488.0,269.0,1904.0,2786.0,296.0,-67.0,1.0
2022-05-08 14:28:22.128587-07:00,889.0,966.2,1485.6,1093.8,640.0,494.0,1386.6,1035.7,3477.1,3477.1,692.9,905.9,405.9,3502.7,820.2,798.5,3475.9,3478.3,405.1,653.8,482.2,557.0,247.0,245.4,3478.3,3478.3,582.6,467.1,694.6,1126.1,1411.3,434.9,42.0,88.0,18.0,13610.0,6574.0,3861.0,5008.0,3898.0,222.0,101.0,38.0,197.0,-90.0,14825.0,6688.0,609.0,1884.0,3118.0,510.0,-217.0,1.0
2022-05-08 14:28:22.185623-07:00,889.0,966.2,1485.6,1093.8,627.0,494.8,1393.9,1035.7,3477.1,3477.1,692.9,905.9,409.0,3497.8,819.4,800.2,3492.9,3488.0,406.7,653.0,482.2,557.0,247.0,245.4,3488.0,3480.7,581.8,467.1,694.6,1126.1,1411.3,434.9,48.0,160.0,2.0,13062.0,7439.0,4336.0,4867.0,1571.0,446.0,-80.0,38.0,64.0,15.0,14400.0,7542.0,903.0,1839.0,1448.0,327.0,-168.0,1.0
2022-05-08 14:28:22.245668-07:00,878.9,973.9,1481.0,1099.9,627.0,494.8,1393.9,1035.7,3467.4,3473.4,692.9,900.0,409.0,3497.8,819.4,800.2,3492.9,3488.0,406.7,653.0,479.0,556.2,246.2,247.7,3488.0,3480.7,581.8,467.1,692.1,1124.4,1419.5,433.3,6.0,-178.0,15.0,12742.0,7895.0,4687.0,4666.0,2165.0,272.0,-139.0,7.0,-117.0,-30.0,14108.0,8051.0,1139.0,1810.0,1827.0,370.0,-189.0,1.0
2022-05-08 14:28:22.275565-07:00,878.9,973.9,1481.0,1099.9,635.9,494.8,1405.8,1039.2,3467.4,3473.4,692.9,900.0,411.4,3503.9,820.2,797.7,3479.5,3479.5,409.8,650.5,479.0,556.2,246.2,247.7,3472.2,3475.9,578.6,471.1,692.1,1124.4,1419.5,433.3,41.0,179.0,-57.0,12243.0,8568.0,5025.0,4460.0,1290.0,291.0,-86.0,-5.0,103.0,-52.0,13738.0,8642.0,1381.0,1765.0,990.0,281.0,-120.0,1.0
2022-05-08 14:28:22.306012-07:00,880.6,967.1,1481.0,1096.4,635.9,494.8,1405.8,1039.2,3477.1,3483.2,694.6,896.6,411.4,3503.9,820.2,797.7,3479.5,3479.5,409.8,650.5,476.6,559.4,246.2,249.2,3472.2,3475.9,578.6,471.1,696.2,1131.4,1415.8,439.6,-7.0,-136.0,-20.0,12106.0,8711.0,5207.0,4345.0,924.0,87.0,-148.0,-36.0,-119.0,-53.0,13610.0,8824.0,1499.0,1758.0,700.0,185.0,-58.0,1.0
2022-05-08 14:28:22.366083-07:00,875.5,967.1,1481.0,1096.4,638.4,494.8,1401.2,1031.4,3478.3,3483.2,694.6,896.6,412.1,3496.6,820.2,798.5,3477.1,3483.2,404.3,655.4,476.6,559.4,246.2,245.4,3478.3,3484.4,585.1,471.9,696.2,1131.4,1415.8,438.0,23.0,63.0,-3.0,11732.0,9203.0,5401.0,4114.0,1723.0,5.0,-34.0,1.0,24.0,-64.0,13327.0,9227.0,1644.0,1726.0,1232.0,195.0,-98.0,1.0
2022-05-08 14:28:22.425575-07:00,875.5,961.1,1481.0,1098.2,638.4,494.8,1401.2,1031.4,3478.3,3474.6,692.1,895.7,412.1,3496.6,820.2,800.2,3486.8,3483.2,404.3,655.4,479.8,565.0,243.9,245.4,3475.9,3484.4,585.1,471.9,692.9,1127.9,1413.1,438.0,2.0,-56.0,-19.0,11446.0,9531.0,5591.0,3917.0,1008.0,70.0,-186.0,-6.0,-41.0,-41.0,13114.0,9514.0,1768.0,1678.0,867.0,135.0,-154.0,1.0
2022-05-08 14:28:22.485527-07:00,882.3,961.1,1481.0,1098.2,635.9,498.0,1393.0,1031.4,3467.4,3474.6,692.1,895.7,407.5,3496.6,816.0,800.2,3486.8,3480.7,407.5,657.0,479.8,565.0,243.9,247.0,3475.9,3491.7,577.8,477.4,692.9,1127.9,1413.1,434.9,22.0,-29.0,20.0,10974.0,10095.0,5747.0,3617.0,2311.0,-147.0,119.0,-7.0,-41.0,-29.0,12731.0,10006.0,1914.0,1603.0,1834.0,148.0,-93.0,1.0
2022-05-08 14:28:22.515696-07:00,882.3,962.8,1472.7,1096.4,635.9,498.0,1393.0,1030.6,3467.4,3474.6,690.5,894.9,407.5,3496.6,816.0,799.4,3488.0,3480.7,407.5,657.0,480.6,566.6,250.8,247.0,3474.6,3491.7,577.8,477.4,702.8,1132.2,1415.8,434.9,32.0,-36.0,72.0,10317.0,10778.0,5925.0,3273.0,2293.0,71.0,77.0,18.0,-32.0,-26.0,12189.0,10642.0,2089.0,1504.0,2013.0,215.0,-111.0,1.0
2022-05-08 14:28:22.576487-07:00,876.4,962.8,1472.7,1096.4,635.9,489.3,1394.8,1030.6,3472.2,3474.6,690.5,894.9,409.8,3494.1,816.9,799.4,3488.0,3480.7,408.2,653.0,480.6,566.6,250.8,245.4,3474.6,3488.0,582.6,465.6,702.8,1132.2,1415.8,432.5,29.0,-22.0,54.0,9563.0,11443.0,6114.0,2943.0,2590.0,89.0,184.0,38.0,-20.0,-21.0,11553.0,11304.0,2267.0,1424.0,2306.0,234.0,-88.0,1.0
2022-05-08 14:28:22.605780-07:00,876.4,963.7,1471.8,1082.5,635.9,489.3,1394.8,1031.4,3472.2,3479.5,691.3,891.5,409.8,3494.1,816.9,802.7,3478.3,3480.7,408.2,653.0,480.6,569.8,247.0,245.4,3479.5,3488.0,582.6,465.6,688.9,1128.7,1411.3,432.5,37.0,26.0,37.0,8713.0,12091.0,6290.0,2600.0,2556.0,188.0,124.0,-41.0,-37.0,-7.0,10837.0,11968.0,2425.0,1372.0,2217.0,302.0,86.0,1.0
2022-05-08 14:28:22.666156-07:00,879.7,970.5,1471.8,1082.5,635.9,494.0,1401.2,1031.4,3478.3,3479.5,691.3,891.5,412.9,3496.6,821.9,802.7,3478.3,3479.5,407.5,654.6,480.6,569.8,250.8,245.4,3479.5,3480.7,579.4,473.5,688.9,1128.7,1411.3,430.9,25.0,-37.0,15.0,7877.0,12636.0,6441.0,2285.0,2422.0,179.0,190.0,28.0,-31.0,-49.0,10108.0,12572.0,2552.0,1303.0,2212.0,184.0,61.0,1.0
2022-05-08 14:28:22.786123-07:00,879.7,970.5,1473.6,1092.1,635.9,494.0,1398.5,1034.0,3478.3,3479.5,688.9,899.1,412.9,3496.6,819.4,802.7,3479.5,3480.7,407.5,654.6,482.2,571.4,250.8,245.4,3475.9,3484.4,579.4,473.5,692.1,1126.1,1411.3,430.9,36.0,61.0,6.0,7089.0,13109.0,6511.0,1984.0,1962.0,133.0,165.0,-5.0,-31.0,-49.0,9430.0,13077.0,2633.0,1248.0,1745.0,141.0,62.0,1.0
2022-05-08 14:28:22.787183-07:00,873.0,962.8,1473.6,1092.1,637.6,494.8,1398.5,1034.0,3478.3,3478.3,688.9,899.1,409.0,3502.7,819.4,802.7,3479.5,3480.7,406.7,653.0,482.2,571.4,249.2,245.4,3475.9,3484.4,578.6,475.8,692.1,1126.1,1412.2,433.3,20.0,42.0,18.0,6315.0,13482.0,6624.0,1705.0,2223.0,214.0,50.0,10.0,-50.0,-23.0,8748.0,13531.0,2728.0,1172.0,2000.0,167.0,-6.0,1.0
2022-05-08 14:28:22.935559-07:00,873.0,962.8,1475.5,1099.0,637.6,494.8,1396.7,1017.6,3478.3,3478.3,685.6,903.4,409.0,3502.7,819.4,797.7,3483.2,3478.3,406.7,653.0,479.0,569.8,249.2,245.4,3475.9,3480.7,578.6,475.8,696.2,1125.2,1412.2,433.3,28.0,80.0,-7.0,5569.0,13800.0,6713.0,1387.0,1798.0,51.0,-14.0,21.0,-30.0,-58.0,8118.0,13902.0,2836.0,1105.0,1562.0,147.0,-64.0,1.0
2022-05-08 14:28:22.936851-07:00,871.3,966.2,1475.5,1099.0,637.6,490.9,1396.7,1017.6,3483.2,3472.2,685.6,903.4,412.1,3496.6,819.4,797.7,3483.2,3478.3,404.3,663.6,479.0,569.8,247.0,245.4,3475.9,3480.7,575.4,482.2,696.2,1125.2,1414.9,435.7,28.0,-46.0,56.0,4798.0,14050.0,6844.0,1084.0,2253.0,274.0,-130.0,24.0,-91.0,-30.0,7406.0,14279.0,2946.0,1009.0,2113.0,189.0,-59.0,1.0
2022-05-08 14:28:23.055482-07:00,871.3,966.2,1479.2,1096.4,637.6,490.9,1385.7,1021.1,3483.2,3472.2,690.5,899.1,412.1,3496.6,826.9,799.4,3480.7,3477.1,404.3,663.6,479.8,569.8,247.0,245.4,3483.2,3483.2,575.4,482.2,692.1,1133.1,1414.9,435.7,9.0,95.0,26.0,3935.0,14281.0,6956.0,786.0,1879.0,270.0,-29.0,13.0,41.0,2.0,6624.0,14641.0,3060.0,921.0,1812.0,222.0,-60.0,1.0
2022-05-08 14:28:23.116286-07:00,875.5,974.8,1478.3,1096.4,633.5,491.7,1385.7,1021.1,3478.3,3478.3,694.6,899.1,413.7,3496.6,826.9,799.4,3480.7,3477.1,406.7,660.3,479.8,573.0,247.0,246.2,3483.2,3483.2,581.8,483.0,692.1,1132.2,1431.4,437.2,30.0,30.0,13.0,3264.0,14430.0,7015.0,586.0,1533.0,285.0,-39.0,11.0,-45.0,-57.0,5965.0,14904.0,3159.0,867.0,1586.0,222.0,-58.0,1.0
2022-05-08 14:28:23.117419-07:00,875.5,974.8,1478.3,1093.8,633.5,497.2,1410.3,1016.8,3478.3,3478.3,694.6,894.9,413.7,3494.1,836.9,803.5,3485.6,3483.2,405.9,660.3,478.2,573.0,247.0,246.2,3481.9,3488.0,583.5,483.0,692.1,1132.2,1431.4,437.2,21.0,30.0,-24.0,2684.0,14506.0,7114.0,442.0,1281.0,363.0,-218.0,3.0,-93.0,-77.0,5399.0,15103.0,3245.0,809.0,1296.0,151.0,-91.0,1.0
2022-05-08 14:28:23.118402-07:00,869.6,969.6,1486.6,1093.8,635.1,497.2,1410.3,1016.8,3472.2,3488.0,695.4,894.9,411.4,3494.1,836.9,803.5,3485.6,3483.2,405.9,659.5,478.2,568.2,247.7,250.0,3481.9,3488.0,583.5,485.3,692.1,1133.1,1408.5,429.4,7.0,48.0,-11.0,2206.0,14526.0,7241.0,353.0,903.0,333.0,-250.0,5.0,-61.0,-36.0,5036.0,15217.0,3308.0,759.0,866.0,87.0,-118.0,1.0
2022-05-08 14:28:23.176208-07:00,869.6,969.6,1486.6,1097.3,635.1,495.6,1409.4,1013.3,3472.2,3488.0,695.4,891.5,411.4,3501.4,841.9,806.9,3481.9,3477.1,405.9,659.5,478.2,568.2,247.7,250.0,3488.0,3478.3,580.2,485.3,692.9,1133.1,1408.5,429.4,-16.0,33.0,-15.0,1887.0,14509.0,7367.0,318.0,613.0,241.0,-263.0,15.0,-34.0,-22.0,4737.0,15299.0,3385.0,700.0,571.0,54.0,-165.0,1.0
2022-05-08 14:28:23.178287-07:00,880.6,964.5,1487.5,1097.3,632.7,495.6,1409.4,1013.3,3477.1,3472.2,691.3,891.5,409.0,3501.4,841.9,806.9,3481.9,3477.1,405.9,663.6,478.2,565.0,243.9,249.2,3488.0,3478.3,580.2,499.6,692.9,1134.0,1404.9,436.4,-5.0,65.0,-5.0,1668.0,14494.0,7452.0,224.0,553.0,-38.0,-171.0,4.0,-8.0,-12.0,4511.0,15351.0,3465.0,649.0,562.0,23.0,-154.0,1.0
2022-05-08 14:28:23.295727-07:00,880.6,964.5,1487.5,1101.7,632.7,492.5,1414.9,1003.0,3477.1,3472.2,691.3,905.9,409.0,3507.5,837.7,801.9,3481.9,3488.0,408.2,663.6,483.0,565.0,243.9,249.2,3481.9,3475.9,589.1,499.6,693.8,1134.0,1404.9,436.4,28.0,20.0,46.0,1506.0,14479.0,7518.0,133.0,433.0,45.0,-177.0,8.0,-76.0,-7.0,4325.0,15390.0,3539.0,604.0,377.0,58.0,-150.0,1.0
2022-05-08 14:28:23.297347-07:00,875.5,967.1,1496.7,1106.9,639.2,492.5,1414.9,1003.0,3474.6,3471.0,695.4,898.3,412.1,3507.5,837.7,801.9,3481.9,3488.0,408.2,657.0,479.8,568.2,248.5,247.7,3481.9,3475.9,589.1,506.7,695.4,1135.7,1412.2,434.9,4.0,27.0,16.0,1365.0,14467.0,7568.0,95.0,190.0,67.0,-72.0,3.0,-54.0,1.0,4171.0,15418.0,3603.0,583.0,162.0,60.0,-78.0,1.0
2022-05-08 14:28:23.415644-07:00,875.5,967.1,1496.7,1106.9,630.3,494.0,1419.5,993.6,3474.6,3471.0,695.4,898.3,409.0,3496.6,844.4,797.7,3484.4,3483.2,403.5,657.9,479.8,568.2,248.5,247.7,3488.0,3477.1,582.6,510.7,695.4,1135.7,1412.2,434.9,5.0,-27.0,-4.0,1332.0,14466.0,7576.0,97.0,41.0,24.0,26.0,8.0,-88.0,-34.0,4134.0,15423.0,3625.0,589.0,45.0,13.0,18.0,1.0
2022-05-08 14:28:23.745751-07:00,874.7,967.9,1488.4,1101.7,630.3,494.0,1419.5,993.6,3479.5,3475.9,691.3,898.3,409.0,3496.6,844.4,797.7,3484.4,3483.2,403.5,657.9,473.5,557.8,252.3,250.8,3488.0,3477.1,582.6,510.7,699.5,1125.2,1418.6,435.7,3.0,15.0,6.0,1321.0,14481.0,7548.0,86.0,11.0,-60.0,121.0,1.0,-66.0,-20.0,4063.0,15446.0,3607.0,580.0,22.0,-33.0,85.0,1.0
2022-05-08 14:28:23.747045-07:00,874.7,967.9,1488.4,1101.7,632.7,494.8,1410.3,983.3,3479.5,3475.9,691.3,898.3,410.6,3500.2,838.6,802.7,3479.5,3477.1,409.0,660.3,473.5,557.8,252.3,250.8,3477.1,3477.1,580.2,513.9,699.5,1125.2,1418.6,435.7,9.0,62.0,28.0,1333.0,14507.0,7496.0,63.0,-52.0,-41.0,119.0,56.0,-91.0,-17.0,4027.0,15464.0,3572.0,580.0,-245.0,22.0,49.0,1.0
2022-05-08 14:28:23.748218-07:00,885.6,970.5,1490.3,1102.5,632.7,494.8,1410.3,983.3,3480.7,3473.4,690.5,900.8,410.6,3500.2,838.6,802.7,3479.5,3477.1,409.0,660.3,479.8,566.6,250.8,256.1,3477.1,3477.1,580.2,513.9,691.3,1114.7,1413.1,429.4,6.0,53.0,7.0,1361.0,14524.0,7458.0,76.0,39.0,-5.0,63.0,11.0,-28.0,-3.0,4050.0,15464.0,3544.0,586.0,72.0,-19.0,41.0,1.0
2022-05-08 14:28:23.749454-07:00,885.6,970.5,1490.3,1102.5,635.1,495.6,1403.0,980.7,3480.7,3473.4,690.5,900.8,404.3,3492.9,842.8,800.2,3478.3,3474.6,404.3,657.9,479.8,566.6,250.8,256.1,3477.1,3474.6,582.6,513.9,691.3,1114.7,1413.1,429.4,16.0,62.0,19.0,1375.0,14531.0,7442.0,73.0,5.0,-51.0,-4.0,10.0,-9.0,-3.0,4060.0,15462.0,3541.0,589.0,-4.0,-16.0,-10.0,1.0
2022-05-08 14:28:23.865612-07:00,878.0,966.2,1484.7,1097.3,635.1,495.6,1403.0,978.2,3472.2,3472.2,692.9,895.7,404.3,3492.9,842.8,801.9,3477.1,3474.6,404.3,657.9,476.6,567.4,250.8,247.0,3485.6,3474.6,582.6,513.9,696.2,1124.4,1412.2,434.9,4.0,6.0,30.0,1415.0,14526.0,7444.0,84.0,35.0,-2.0,-24.0,0.0,-57.0,-7.0,4068.0,15458.0,3550.0,588.0,40.0,0.0,-26.0,1.0
2022-05-08 14:28:23.866564-07:00,878.0,966.2,1484.7,1097.3,635.1,495.6,1403.0,978.2,3472.2,3472.2,692.9,895.7,404.3,3492.9,842.8,801.9,3477.1,3474.6,404.3,657.9,476.6,567.4,250.8,247.0,3485.6,3474.6,582.6,513.9,696.2,1124.4,1412.2,434.9,4.0,6.0,30.0,1415.0,14526.0,7444.0,84.0,35.0,-2.0,-24.0,0.0,-57.0,-7.0,4068.0,15458.0,3550.0,588.0,40.0,0.0,-26.0,1.0
2022-05-08 14:28:23.867544-07:00,871.3,967.1,1485.6,1093.8,637.6,494.8,1402.1,968.8,3475.9,3468.6,696.2,900.8,409.0,3500.2,841.1,801.0,3480.7,3475.9,401.2,654.6,481.4,562.6,250.0,247.0,3490.5,3475.9,578.6,509.9,692.9,1126.1,1408.5,433.3,7.0,40.0,13.0,1436.0,14521.0,7451.0,56.0,39.0,-8.0,-67.0,9.0,-28.0,0.0,3974.0,15472.0,3596.0,565.0,44.0,-2.0,-69.0,1.0
2022-05-08 14:28:23.895233-07:00,871.3,962.8,1477.3,1096.4,637.6,494.8,1403.0,968.8,3475.9,3478.3,696.2,905.9,409.0,3500.2,841.1,801.0,3467.4,3479.5,401.2,654.6,476.6,561.0,250.0,247.0,3478.3,3484.4,578.6,509.9,685.6,1130.5,1415.8,433.3,8.0,6.0,28.0,1450.0,14506.0,7477.0,55.0,-5.0,-19.0,-80.0,7.0,-45.0,3.0,3959.0,15468.0,3630.0,559.0,18.0,16.0,-80.0,1.0
2022-05-08 14:28:24.016439-07:00,874.7,967.9,1477.3,1096.4,635.1,494.0,1403.0,968.8,3475.9,3478.3,696.2,905.9,410.6,3503.9,841.1,801.0,3467.4,3479.5,404.3,660.3,476.6,561.0,250.0,249.2,3478.3,3484.4,582.6,517.1,685.6,1130.5,1410.3,439.6,-1.0,4.0,16.0,1446.0,14491.0,7507.0,49.0,-2.0,9.0,-68.0,0.0,-39.0,0.0,3936.0,15467.0,3663.0,558.0,-8.0,22.0,-60.0,1.0
2022-05-08 14:28:24.045725-07:00,874.7,967.9,1481.0,1098.2,635.1,494.0,1403.0,965.4,3475.9,3478.3,704.4,895.7,410.6,3503.9,841.9,803.5,3480.7,3474.6,404.3,660.3,483.7,555.4,250.0,249.2,3483.2,3480.7,582.6,517.1,697.9,1130.5,1410.3,439.6,9.0,0.0,15.0,1451.0,14482.0,7522.0,58.0,-46.0,31.0,-20.0,6.0,-48.0,-4.0,3920.0,15466.0,3681.0,561.0,-45.0,14.0,-27.0,1.0
2022-05-08 14:28:24.136191-07:00,875.5,962.8,1481.0,1098.2,636.7,493.2,1403.0,965.4,3471.0,3472.2,704.4,895.7,409.0,3496.6,841.9,803.5,3480.7,3474.6,403.5,661.9,483.7,555.4,250.0,245.4,3483.2,3480.7,580.2,513.9,697.9,1130.5,1412.2,432.5,0.0,13.0,-6.0,1459.0,14481.0,7523.0,68.0,14.0,-25.0,28.0,2.0,-27.0,-6.0,3904.0,15470.0,3683.0,560.0,-7.0,-17.0,19.0,1.0
2022-05-08 14:28:24.137207-07:00,875.5,962.8,1477.3,1097.3,636.7,493.2,1401.2,958.5,3471.0,3472.2,690.5,899.1,409.0,3496.6,845.3,803.5,3475.9,3474.6,403.5,661.9,477.4,562.6,250.0,245.4,3467.4,3480.7,580.2,513.9,694.6,1127.9,1412.2,432.5,5.0,22.0,26.0,1485.0,14488.0,7505.0,60.0,-42.0,-42.0,38.0,4.0,-31.0,3.0,3914.0,15470.0,3672.0,556.0,-48.0,-29.0,18.0,1.0
2022-05-08 14:28:24.165542-07:00,874.7,966.2,1477.3,1097.3,633.5,495.6,1401.2,958.5,3480.7,3477.1,690.5,899.1,411.4,3507.5,845.3,803.5,3475.9,3474.6,401.2,659.5,477.4,562.6,247.7,247.7,3467.4,3480.7,578.6,510.7,694.6,1127.9,1414.9,435.7,1.0,26.0,10.0,1512.0,14490.0,7496.0,65.0,-23.0,-24.0,15.0,0.0,-24.0,-1.0,3923.0,15469.0,3668.0,552.0,-17.0,-17.0,0.0,1.0
2022-05-08 14:28:24.285624-07:00,874.7,966.2,1480.1,1097.3,633.5,496.4,1403.0,959.4,3480.7,3477.1,692.1,902.5,411.4,3499.0,841.9,796.9,3485.6,3474.6,405.9,659.5,476.6,564.2,247.7,247.7,3486.8,3478.3,575.4,510.7,696.2,1131.4,1414.9,435.7,6.0,18.0,15.0,1514.0,14491.0,7494.0,49.0,60.0,-42.0,-10.0,10.0,-23.0,1.0,3909.0,15472.0,3671.0,544.0,43.0,-13.0,-18.0,1.0
2022-05-08 14:28:24.287055-07:00,875.5,967.1,1474.6,1097.3,634.3,496.4,1403.0,959.4,3478.3,3480.7,692.1,902.5,407.5,3499.0,841.9,796.9,3485.6,3474.6,405.9,660.3,476.6,564.2,246.2,249.2,3486.8,3478.3,575.4,509.1,696.2,1128.7,1416.7,430.9,4.0,11.0,15.0,1507.0,14491.0,7495.0,37.0,10.0,0.0,-18.0,1.0,-26.0,1.0,3890.0,15475.0,3681.0,537.0,-4.0,-7.0,-26.0,1.0
2022-05-08 14:28:24.288045-07:00,875.5,967.1,1474.6,1096.4,634.3,492.5,1396.7,962.8,3478.3,3480.7,692.1,903.4,407.5,3507.5,841.1,805.2,3475.9,3473.4,407.5,660.3,477.4,564.2,246.2,249.2,3480.7,3483.2,581.0,509.1,695.4,1128.7,1416.7,430.9,0.0,8.0,10.0,1516.0,14487.0,7501.0,39.0,-26.0,-19.0,-11.0,2.0,-27.0,1.0,3890.0,15473.0,3689.0,529.0,-23.0,-20.0,-16.0,1.0
2022-05-08 14:28:24.315688-07:00,877.2,965.4,1474.6,1096.4,634.3,492.5,1396.7,962.8,3475.9,3471.0,688.9,903.4,410.6,3507.5,841.1,805.2,3475.9,3473.4,407.5,656.2,477.4,562.6,248.5,248.5,3480.7,3483.2,581.0,512.3,695.4,1125.2,1430.5,433.3,4.0,9.0,28.0,1533.0,14486.0,7500.0,37.0,-20.0,-17.0,8.0,5.0,-28.0,10.0,3893.0,15472.0,3691.0,522.0,-19.0,-12.0,-4.0,1.0
2022-05-08 14:28:24.465601-07:00,877.2,965.4,1474.6,1097.3,634.3,495.6,1398.5,960.2,3475.9,3471.0,688.9,900.0,410.6,3501.4,843.6,801.9,3484.4,3477.1,411.4,656.2,479.8,562.6,248.5,248.5,3481.9,3478.3,589.1,512.3,697.0,1125.2,1430.5,433.3,-2.0,22.0,17.0,1543.0,14484.0,7502.0,45.0,-20.0,25.0,-15.0,1.0,-17.0,13.0,3891.0,15473.0,3691.0,524.0,-16.0,11.0,-8.0,1.0
2022-05-08 14:28:24.468301-07:00,873.8,968.8,1473.6,1097.3,636.7,495.6,1398.5,960.2,3474.6,3468.6,693.8,900.0,404.3,3501.4,843.6,801.9,3484.4,3477.1,411.4,655.4,479.8,562.6,249.2,250.8,3481.9,3478.3,589.1,506.7,697.0,1129.6,1413.1,438.0,1.0,17.0,-6.0,1546.0,14479.0,7510.0,58.0,-1.0,23.0,-30.0,6.0,-24.0,4.0,3887.0,15472.0,3697.0,529.0,2.0,17.0,-26.0,1.0
2022-05-08 14:28:24.469236-07:00,873.8,968.8,1473.6,1092.9,633.5,494.0,1398.5,960.2,3474.6,3468.6,693.8,901.7,410.6,3503.9,831.1,797.7,3473.4,3480.7,400.4,653.8,478.2,562.6,249.2,250.8,3477.1,3484.4,575.4,508.3,699.5,1129.6,1413.1,438.0,1.0,6.0,4.0,1551.0,14473.0,7521.0,59.0,-16.0,-15.0,-30.0,4.0,-23.0,-2.0,3883.0,15470.0,3710.0,528.0,-16.0,-3.0,-36.0,1.0
2022-05-08 14:28:24.615705-07:00,883.1,966.2,1477.3,1101.7,633.5,494.0,1398.5,960.2,3467.4,3479.5,692.1,899.1,410.6,3503.9,831.1,797.7,3473.4,3480.7,400.4,653.8,479.8,558.6,250.0,245.4,3477.1,3484.4,575.4,508.3,692.1,1124.4,1411.3,428.6,3.0,11.0,19.0,1555.0,14468.0,7530.0,49.0,-2.0,-30.0,-23.0,4.0,-23.0,8.0,3876.0,15468.0,3724.0,523.0,-20.0,-13.0,-23.0,1.0
2022-05-08 14:28:24.618345-07:00,883.1,966.2,1477.3,1101.7,634.3,489.3,1396.7,964.5,3467.4,3479.5,692.1,899.1,408.2,3497.8,839.4,801.9,3483.2,3480.7,405.1,665.2,479.8,558.6,250.0,245.4,3483.2,3469.8,576.2,511.5,692.1,1124.4,1411.3,428.6,2.0,10.0,4.0,1564.0,14465.0,7533.0,44.0,14.0,-12.0,-8.0,3.0,-19.0,0.0,3876.0,15467.0,3730.0,521.0,1.0,-7.0,-11.0,1.0
2022-05-08 14:28:24.619261-07:00,877.2,963.7,1472.7,1097.3,634.3,489.3,1396.7,964.5,3478.3,3478.3,690.5,897.4,408.2,3497.8,839.4,801.9,3483.2,3480.7,405.1,665.2,479.0,561.0,247.0,247.7,3483.2,3469.8,576.2,511.5,694.6,1126.1,1411.3,438.0,0.0,4.0,10.0,1575.0,14465.0,7532.0,40.0,-6.0,-17.0,3.0,4.0,-25.0,-1.0,3879.0,15466.0,3733.0,519.0,-11.0,-10.0,-10.0,1.0
2022-05-08 14:28:24.735656-07:00,877.2,963.7,1472.7,1097.3,642.4,492.5,1393.0,957.7,3478.3,3478.3,690.5,897.4,411.4,3499.0,836.9,801.9,3481.9,3484.4,408.2,661.1,479.0,561.0,247.0,247.7,3474.6,3483.2,582.6,508.3,694.6,1126.1,1411.3,438.0,2.0,14.0,14.0,1583.0,14464.0,7532.0,40.0,-10.0,-13.0,-11.0,4.0,-17.0,12.0,3877.0,15465.0,3737.0,517.0,-18.0,-7.0,-9.0,1.0
