Time,P0,P1,P2,P3,P4,P5,P6,P7,P8,P9,P10,P11,P12,P13,P14,P15,P16,P17,P18,P19,P20,P21,P22,P23,P24,P25,P26,P27,P28,P29,P30,P31,ECG,AX0,AY0,AZ0,QW0,QX0,QY0,QZ0,GX0,GY0,GZ0,AX1,AY1,AZ1,QW1,QX1,QY1,QZ1,GX1,GY1,GZ1
2022-05-08 18:28:42.912127-07:00,879.7,909.3,1594.6,1238.2,593.1,542.6,1206.2,1094.7,3478.3,3479.5,870.5,1135.7,441.2,3497.8,791.9,835.2,3485.6,3478.3,394.2,610.8,409.8,597.9,253.8,250.0,3483.2,3481.9,606.0,485.3,702.8,1084.2,1278.3,467.1,0.0,-1.0,-1.0,16016.0,1505.0,3110.0,0.0,-1.0,1.0,0.0,0.0,1.0,21.0,16318.0,1457.0,-170.0,0.0,2.0,0.0,-2.0,1.0
2022-05-08 18:28:42.942474-07:00,879.7,909.3,1594.6,1238.2,595.5,541.0,1206.2,1090.3,3478.3,3479.5,870.5,1135.7,435.7,3490.5,782.7,837.7,3481.9,3477.1,392.6,614.1,409.8,597.9,253.8,250.0,3479.5,3485.6,601.2,486.9,702.8,1084.2,1278.3,467.1,0.0,0.0,0.0,16016.0,1505.0,3110.0,0.0,-1.0,-2.0,-1.0,0.0,2.0,22.0,16318.0,1457.0,-170.0,0.0,-3.0,-2.0,0.0,1.0
2022-05-08 18:28:43.002780-07:00,883.9,902.5,1596.4,1231.9,595.5,541.0,1206.2,1090.3,3477.1,3467.4,873.0,1143.6,435.7,3490.5,782.7,837.7,3481.9,3477.1,392.6,614.1,404.3,606.0,253.1,256.1,3479.5,3485.6,601.2,486.9,702.8,1091.2,1281.0,466.4,1.0,2.0,-1.0,16016.0,1505.0,3110.0,0.0,-2.0,-2.0,1.0,2.0,1.0,21.0,16318.0,1457.0,-170.0,0.0,1.0,-2.0,0.0,1.0
2022-05-08 18:28:43.062087-07:00,881.4,902.5,1596.4,1231.9,590.7,543.4,1202.7,1099.9,3488.0,3467.4,873.0,1143.6,438.0,3501.4,781.1,831.1,3484.4,3472.2,393.4,614.9,404.3,606.0,253.1,254.6,3478.3,3488.0,614.9,490.1,702.8,1091.2,1281.0,471.1,-1.0,0.0,-3.0,16016.0,1505.0,3110.0,0.0,1.0,-3.0,-1.0,0.0,1.0,23.0,16318.0,1457.0,-170.0,0.0,-1.0,1.0,-2.0,1.0
2022-05-08 18:28:43.092648-07:00,881.4,909.3,1596.4,1231.0,590.7,543.4,1202.7,1100.8,3488.0,3474.6,872.1,1137.5,438.0,3501.4,781.1,836.1,3477.1,3472.2,393.4,614.9,402.8,601.2,253.1,254.6,3485.6,3488.0,614.9,490.1,703.6,1088.6,1273.9,471.1,-1.0,-1.0,-2.0,16016.0,1505.0,3110.0,0.0,0.0,2.0,1.0,0.0,2.0,20.0,16318.0,1457.0,-170.0,0.0,2.0,-1.0,-1.0,1.0
2022-05-08 18:28:43.212378-07:00,883.9,909.3,1596.4,1231.0,589.1,542.6,1202.7,1100.8,3474.6,3474.6,872.1,1137.5,438.8,3497.8,783.6,836.1,3477.1,3474.6,393.4,615.7,402.8,601.2,253.1,251.5,3485.6,3484.4,606.0,483.7,703.6,1088.6,1273.9,467.1,-1.0,0.0,-1.0,16016.0,1505.0,3110.0,0.0,-3.0,1.0,0.0,0.0,3.0,25.0,16318.0,1457.0,-170.0,0.0,0.0,1.0,-3.0,1.0
2022-05-08 18:28:43.213561-07:00,883.9,907.6,1599.3,1233.7,589.1,542.6,1202.7,1092.9,3474.6,3480.7,868.8,1134.9,438.8,3497.8,783.6,838.6,3479.5,3474.6,393.4,615.7,407.5,606.8,257.6,251.5,3485.6,3484.4,606.0,483.7,701.9,1088.6,1280.1,467.1,0.0,0.0,-1.0,16016.0,1505.0,3110.0,0.0,1.0,0.0,2.0,2.0,1.0,23.0,16318.0,1457.0,-170.0,0.0,1.0,-5.0,-1.0,1.0
2022-05-08 18:28:43.242310-07:00,885.6,907.6,1599.3,1233.7,591.5,542.6,1207.1,1092.9,3472.2,3480.7,868.8,1134.9,438.0,3499.0,785.2,838.6,3479.5,3488.0,392.6,613.3,407.5,606.8,257.6,251.5,3485.6,3484.4,608.4,481.4,701.9,1088.6,1280.1,467.1,0.0,-1.0,-3.0,16016.0,1505.0,3110.0,0.0,0.0,-1.0,1.0,2.0,1.0,21.0,16318.0,1457.0,-170.0,0.0,-3.0,2.0,-1.0,1.0
2022-05-08 18:28:43.302345-07:00,885.6,908.4,1592.7,1231.9,591.5,542.6,1207.1,1095.6,3472.2,3474.6,865.4,1142.7,438.0,3499.0,785.2,835.2,3479.5,3488.0,392.6,613.3,407.5,601.2,258.4,251.5,3477.1,3484.4,608.4,481.4,701.9,1089.5,1281.9,467.1,0.0,0.0,-1.0,16016.0,1505.0,3110.0,0.0,0.0,2.0,1.0,0.0,1.0,22.0,16318.0,1457.0,-170.0,0.0,-5.0,0.0,-2.0,1.0
2022-05-08 18:28:43.332185-07:00,883.1,905.0,1592.7,1231.9,593.1,545.0,1205.3,1095.6,3479.5,3480.7,865.4,1142.7,441.2,3507.5,787.7,835.2,3479.5,3480.7,393.4,612.5,407.5,601.2,256.9,255.3,3477.1,3481.9,609.2,483.0,701.9,1089.5,1285.5,468.7,0.0,0.0,0.0,16016.0,1505.0,3110.0,0.0,-3.0,-1.0,-2.0,0.0,1.0,23.0,16318.0,1457.0,-170.0,0.0,-3.0,1.0,-1.0,1.0
2022-05-08 18:28:43.482095-07:00,883.1,905.0,1598.3,1235.5,593.1,545.0,1208.9,1094.7,3479.5,3480.7,870.5,1140.1,441.2,3507.5,785.2,834.4,3483.2,3483.2,393.4,612.5,402.8,601.2,256.9,255.3,3488.0,3477.1,609.2,483.0,704.4,1087.7,1285.5,468.7,0.0,0.0,-1.0,16016.0,1505.0,3110.0,0.0,1.0,0.0,1.0,1.0,1.0,21.0,16318.0,1457.0,-170.0,0.0,2.0,1.0,2.0,1.0
2022-05-08 18:28:43.512027-07:00,883.1,900.8,1598.3,1235.5,593.1,540.2,1208.9,1094.7,3471.0,3484.4,870.5,1140.1,437.2,3494.1,785.2,834.4,3483.2,3483.2,390.3,614.9,402.8,601.2,246.2,255.3,3488.0,3477.1,608.4,484.5,704.4,1087.7,1278.3,467.1,1.0,-2.0,-1.0,16016.0,1505.0,3110.0,0.0,0.0,3.0,-1.0,0.0,3.0,22.0,16318.0,1457.0,-170.0,0.0,-1.0,-2.0,0.0,1.0
2022-05-08 18:28:43.541761-07:00,883.1,900.8,1597.4,1239.1,593.1,540.2,1202.7,1095.6,3471.0,3484.4,871.3,1139.2,437.2,3494.1,784.4,835.2,3483.2,3485.6,390.3,614.9,409.8,606.8,246.2,255.3,3483.2,3480.7,608.4,484.5,703.6,1092.9,1278.3,467.1,0.0,0.0,-2.0,16016.0,1505.0,3110.0,0.0,1.0,-1.0,0.0,2.0,0.0,20.0,16318.0,1457.0,-170.0,0.0,-1.0,1.0,-1.0,1.0
2022-05-08 18:28:43.571727-07:00,879.7,901.7,1597.4,1239.1,591.5,541.0,1202.7,1095.6,3478.3,3483.2,871.3,1139.2,432.5,3496.6,784.4,835.2,3483.2,3485.6,395.0,612.5,409.8,606.8,254.6,250.8,3483.2,3480.7,608.4,487.7,703.6,1092.9,1281.0,484.5,0.0,1.0,-1.0,16016.0,1505.0,3110.0,0.0,-2.0,-1.0,0.0,0.0,2.0,21.0,16318.0,1457.0,-170.0,0.0,1.0,-1.0,0.0,1.0
2022-05-08 18:28:43.631690-07:00,879.7,901.7,1597.4,1231.0,591.5,541.0,1204.4,1098.2,3478.3,3483.2,863.7,1138.4,432.5,3496.6,783.6,834.4,3478.3,3474.6,395.0,612.5,405.9,608.4,254.6,250.8,3481.9,3485.6,608.4,487.7,703.6,1086.0,1281.0,484.5,-1.0,0.0,-2.0,16016.0,1505.0,3110.0,0.0,-1.0,3.0,-1.0,0.0,3.0,26.0,16318.0,1457.0,-170.0,0.0,-3.0,-1.0,-1.0,1.0
2022-05-08 18:28:43.661854-07:00,881.4,902.5,1596.4,1231.0,586.7,538.6,1204.4,1098.2,3479.5,3474.6,871.3,1138.4,438.8,3491.7,783.6,834.4,3478.3,3474.6,393.4,610.8,405.9,597.9,253.1,253.8,3481.9,3485.6,607.6,484.5,703.6,1082.5,1281.0,467.1,0.0,0.0,-4.0,16016.0,1505.0,3110.0,0.0,-1.0,2.0,0.0,0.0,2.0,21.0,16318.0,1457.0,-170.0,0.0,-1.0,0.0,0.0,1.0
2022-05-08 18:28:43.781693-07:00,881.4,902.5,1596.4,1233.7,586.7,540.2,1203.5,1097.3,3479.5,3474.6,871.3,1132.2,438.8,3496.6,788.6,838.6,3469.8,3469.8,398.9,610.8,411.4,597.9,253.1,253.8,3477.1,3472.2,604.4,484.5,703.6,1082.5,1281.0,467.1,0.0,0.0,-1.0,16016.0,1505.0,3110.0,0.0,-1.0,0.0,0.0,3.0,3.0,23.0,16318.0,1457.0,-170.0,0.0,0.0,3.0,-1.0,1.0
2022-05-08 18:28:43.782763-07:00,884.8,903.4,1596.4,1233.7,590.7,540.2,1203.5,1097.3,3477.1,3483.2,870.5,1132.2,439.6,3496.6,788.6,838.6,3469.8,3469.8,398.9,613.3,411.4,602.0,254.6,256.9,3477.1,3472.2,604.4,486.9,703.6,1086.8,1278.3,465.6,1.0,-2.0,0.0,16016.0,1505.0,3110.0,0.0,-1.0,-2.0,1.0,0.0,0.0,23.0,16318.0,1457.0,-170.0,0.0,-1.0,-2.0,-1.0,1.0
2022-05-08 18:28:43.784209-07:00,884.8,903.4,1596.4,1229.3,590.7,538.6,1203.5,1093.8,3477.1,3483.2,870.5,1139.2,439.6,3502.7,783.6,834.4,3477.1,3477.1,392.6,613.3,409.0,602.0,254.6,256.9,3479.5,3485.6,610.0,486.9,702.8,1086.8,1278.3,465.6,-1.0,0.0,-2.0,16016.0,1505.0,3110.0,0.0,0.0,-3.0,0.0,0.0,3.0,24.0,16318.0,1457.0,-170.0,0.0,-2.0,5.0,1.0,1.0
2022-05-08 18:28:43.841686-07:00,883.9,902.5,1598.3,1229.3,591.5,538.6,1203.5,1093.8,3477.1,3474.6,867.9,1139.2,439.6,3502.7,783.6,834.4,3477.1,3477.1,392.6,614.9,409.0,601.2,253.1,248.5,3479.5,3485.6,610.0,484.5,702.8,1086.0,1281.0,474.3,0.0,-1.0,-3.0,16016.0,1505.0,3110.0,0.0,1.0,-4.0,1.0,0.0,1.0,22.0,16318.0,1457.0,-170.0,0.0,-3.0,3.0,1.0,1.0
2022-05-08 18:28:43.931674-07:00,883.9,902.5,1598.3,1231.9,593.9,544.2,1205.3,1092.9,3477.1,3474.6,867.9,1140.1,438.0,3492.9,783.6,836.9,3479.5,3478.3,393.4,613.3,411.4,601.2,253.1,248.5,3486.8,3481.9,604.4,486.1,703.6,1086.0,1281.0,474.3,0.0,2.0,0.0,16016.0,1505.0,3110.0,0.0,1.0,1.0,-1.0,0.0,3.0,22.0,16318.0,1457.0,-170.0,0.0,-4.0,1.0,-2.0,1.0
2022-05-08 18:28:43.932889-07:00,882.3,905.9,1595.5,1229.3,593.9,544.2,1205.3,1092.9,3475.9,3479.5,869.6,1136.6,438.0,3492.9,783.6,836.9,3479.5,3478.3,393.4,613.3,405.9,602.8,253.1,256.1,3486.8,3481.9,604.4,486.1,701.9,1086.8,1281.9,470.3,-1.0,0.0,-4.0,16016.0,1505.0,3110.0,0.0,-2.0,1.0,1.0,0.0,1.0,22.0,16318.0,1457.0,-170.0,0.0,0.0,0.0,-1.0,1.0
2022-05-08 18:28:44.172158-07:00,882.3,905.9,1595.5,1229.3,589.1,538.6,1208.9,1096.4,3475.9,3479.5,869.6,1136.6,432.5,3505.1,787.7,832.7,3485.6,3477.1,395.0,616.5,405.9,602.8,253.1,256.1,3478.3,3478.3,609.2,488.5,701.9,1086.8,1281.9,470.3,0.0,0.0,-1.0,16016.0,1505.0,3110.0,0.0,1.0,1.0,0.0,0.0,2.0,21.0,16318.0,1457.0,-170.0,0.0,-1.0,1.0,2.0,1.0
2022-05-08 18:28:44.173532-07:00,883.1,907.6,1594.6,1231.0,589.1,538.6,1208.9,1096.4,3473.4,3480.7,865.4,1136.6,432.5,3505.1,787.7,832.7,3485.6,3477.1,395.0,616.5,411.4,601.2,255.3,253.8,3478.3,3478.3,609.2,488.5,698.7,1087.7,1280.1,467.1,0.0,-1.0,0.0,16016.0,1505.0,3110.0,0.0,1.0,-1.0,-1.0,0.0,1.0,22.0,16318.0,1457.0,-170.0,0.0,0.0,-2.0,-1.0,1.0
2022-05-08 18:28:44.174301-07:00,883.1,907.6,1594.6,1231.0,588.3,539.4,1202.7,1095.6,3473.4,3480.7,865.4,1136.6,432.5,3495.3,786.9,836.1,3479.5,3480.7,392.6,616.5,411.4,601.2,255.3,253.8,3488.0,3480.7,609.2,486.1,698.7,1087.7,1280.1,467.1,0.0,-1.0,-4.0,16016.0,1505.0,3110.0,0.0,-1.0,-3.0,2.0,1.0,1.0,24.0,16318.0,1457.0,-170.0,0.0,0.0,1.0,-1.0,1.0
2022-05-08 18:28:44.175599-07:00,885.6,908.4,1594.6,1231.9,588.3,539.4,1202.7,1095.6,3480.7,3478.3,873.0,1139.2,432.5,3495.3,786.9,836.1,3479.5,3480.7,392.6,616.5,408.2,600.4,255.3,258.4,3488.0,3480.7,609.2,486.1,698.7,1084.2,1281.9,468.7,1.0,1.0,0.0,16016.0,1505.0,3110.0,0.0,0.0,-3.0,1.0,-1.0,0.0,22.0,16318.0,1457.0,-170.0,0.0,0.0,-1.0,1.0,1.0
2022-05-08 18:28:44.177265-07:00,885.6,908.4,1594.6,1231.9,585.9,541.0,1205.3,1098.2,3477.1,3478.3,873.0,1139.2,435.7,3507.5,783.6,836.9,3483.2,3485.6,393.4,611.7,408.2,600.4,255.3,256.1,3475.9,3483.2,605.2,487.7,698.7,1084.2,1281.9,467.9,-1.0,0.0,-2.0,16016.0,1505.0,3110.0,0.0,-2.0,0.0,-1.0,3.0,1.0,22.0,16318.0,1457.0,-170.0,0.0,-1.0,-5.0,0.0,1.0
2022-05-08 18:28:44.231724-07:00,885.6,907.6,1591.7,1232.8,585.9,541.0,1205.3,1096.4,3477.1,3472.2,868.8,1136.6,435.7,3507.5,783.6,838.6,3485.6,3485.6,393.4,611.7,408.2,606.0,256.1,256.1,3489.2,3483.2,605.2,487.7,703.6,1089.5,1280.1,467.9,1.0,0.0,0.0,16016.0,1505.0,3110.0,0.0,1.0,-2.0,0.0,0.0,1.0,21.0,16318.0,1457.0,-170.0,0.0,0.0,1.0,-2.0,1.0
2022-05-08 18:28:44.292582-07:00,882.3,907.6,1591.7,1232.8,590.7,544.2,1203.5,1096.4,3469.8,3472.2,868.8,1136.6,438.8,3500.2,783.6,838.6,3485.6,3479.5,391.8,610.8,408.2,606.0,256.1,257.6,3489.2,3480.7,606.8,486.9,703.6,1089.5,1280.1,469.5,0.0,1.0,-2.0,16016.0,1505.0,3110.0,0.0,0.0,3.0,0.0,1.0,1.0,23.0,16318.0,1457.0,-170.0,0.0,0.0,-2.0,1.0,1.0
2022-05-08 18:28:44.352037-07:00,882.3,905.9,1598.3,1234.6,590.7,544.2,1203.5,1094.7,3469.8,3467.4,873.0,1130.5,438.8,3500.2,783.6,836.1,3479.5,3479.5,391.8,610.8,408.2,604.4,253.8,257.6,3483.2,3480.7,606.8,486.9,701.1,1087.7,1281.0,469.5,0.0,1.0,0.0,16016.0,1505.0,3110.0,0.0,-1.0,2.0,0.0,1.0,3.0,25.0,16318.0,1457.0,-170.0,0.0,5.0,-2.0,-2.0,1.0
2022-05-08 18:28:44.381659-07:00,881.4,905.9,1598.3,1234.6,592.3,540.2,1210.6,1094.7,3473.4,3467.4,873.0,1130.5,438.0,3507.5,782.7,836.1,3479.5,3486.8,393.4,618.1,408.2,604.4,253.8,253.8,3483.2,3483.2,609.2,496.4,701.1,1087.7,1281.0,471.1,0.0,2.0,-4.0,16016.0,1505.0,3110.0,0.0,-1.0,0.0,-2.0,0.0,1.0,25.0,16318.0,1457.0,-170.0,0.0,-1.0,-4.0,0.0,1.0
2022-05-08 18:28:44.441684-07:00,881.4,909.3,1591.7,1233.7,592.3,540.2,1210.6,1093.8,3473.4,3475.9,868.8,1136.6,438.0,3507.5,782.7,836.1,3481.9,3486.8,393.4,618.1,406.7,600.4,258.4,253.8,3478.3,3483.2,609.2,496.4,702.8,1084.2,1285.5,471.1,0.0,0.0,0.0,16016.0,1505.0,3110.0,0.0,3.0,-1.0,-2.0,1.0,2.0,26.0,16318.0,1457.0,-170.0,0.0,-2.0,1.0,0.0,1.0
2022-05-08 18:28:44.502097-07:00,885.6,905.0,1591.7,1233.7,588.3,538.6,1203.5,1093.8,3478.3,3477.1,868.8,1136.6,438.0,3495.3,782.7,836.1,3481.9,3485.6,391.8,612.5,406.7,600.4,254.6,253.8,3478.3,3478.3,606.8,483.0,702.8,1084.2,1281.0,471.1,-1.0,0.0,-1.0,16016.0,1505.0,3110.0,0.0,1.0,2.0,2.0,0.0,1.0,23.0,16318.0,1457.0,-170.0,0.0,1.0,-1.0,2.0,1.0
2022-05-08 18:28:44.532164-07:00,885.6,905.0,1604.9,1231.0,588.3,538.6,1210.6,1098.2,3478.3,3477.1,864.6,1140.1,438.0,3495.3,785.2,836.9,3488.0,3477.1,391.8,612.5,405.9,606.8,254.6,253.8,3484.4,3481.9,606.8,483.0,702.8,1087.7,1281.0,471.1,0.0,-2.0,-1.0,16016.0,1505.0,3110.0,0.0,1.0,0.0,2.0,0.0,1.0,22.0,16318.0,1457.0,-170.0,0.0,1.0,-1.0,2.0,1.0
2022-05-08 18:28:44.651822-07:00,880.6,901.7,1604.9,1231.0,590.7,540.2,1210.6,1098.2,3471.0,3474.6,864.6,1140.1,437.2,3499.0,785.2,836.9,3488.0,3477.1,391.8,616.5,405.9,606.8,252.3,250.0,3484.4,3481.9,605.2,483.0,702.8,1087.7,1279.2,471.9,0.0,-2.0,-1.0,16016.0,1505.0,3110.0,0.0,2.0,1.0,0.0,1.0,2.0,21.0,16318.0,1457.0,-170.0,0.0,-2.0,-3.0,1.0,1.0
2022-05-08 18:28:44.652894-07:00,880.6,901.7,1595.5,1230.2,590.7,540.2,1207.1,1099.0,3471.0,3474.6,870.5,1139.2,437.2,3499.0,783.6,834.4,3468.6,3478.3,391.8,616.5,412.9,605.2,252.3,250.0,3475.9,3485.6,605.2,483.0,706.0,1091.2,1279.2,471.9,0.0,1.0,0.0,16016.0,1505.0,3110.0,0.0,1.0,3.0,0.0,2.0,2.0,22.0,16318.0,1457.0,-170.0,0.0,3.0,1.0,1.0,1.0
2022-05-08 18:28:44.681679-07:00,882.3,905.0,1595.5,1230.2,590.7,542.6,1207.1,1099.0,3478.3,3474.6,870.5,1139.2,434.1,3499.0,783.6,834.4,3468.6,3478.3,391.8,618.1,412.9,605.2,252.3,256.9,3475.9,3485.6,605.2,488.5,706.0,1091.2,1279.2,470.3,0.0,-1.0,-2.0,16016.0,1505.0,3110.0,0.0,-1.0,2.0,0.0,3.0,2.0,22.0,16318.0,1457.0,-170.0,0.0,0.0,-3.0,1.0,1.0
2022-05-08 18:28:44.772036-07:00,882.3,905.0,1594.6,1231.0,590.7,542.6,1205.3,1097.3,3478.3,3474.6,870.5,1136.6,434.1,3499.0,786.1,833.6,3483.2,3481.9,391.8,618.1,409.0,604.4,252.3,256.9,3481.9,3480.7,605.2,488.5,702.8,1086.8,1279.2,470.3,0.0,2.0,-2.0,16016.0,1505.0,3110.0,0.0,1.0,5.0,-1.0,0.0,2.0,25.0,16318.0,1457.0,-170.0,0.0,1.0,3.0,1.0,1.0
2022-05-08 18:28:44.773134-07:00,883.1,905.0,1593.6,1231.0,593.9,538.6,1205.3,1097.3,3467.4,3477.1,867.1,1136.6,437.2,3507.5,786.1,833.6,3483.2,3481.9,391.8,616.5,409.0,599.6,257.6,254.6,3481.9,3480.7,606.8,490.1,702.8,1089.5,1282.8,458.5,0.0,0.0,-5.0,16016.0,1505.0,3110.0,0.0,0.0,3.0,2.0,-1.0,2.0,25.0,16318.0,1457.0,-170.0,0.0,1.0,-2.0,2.0,1.0
2022-05-08 18:28:44.831862-07:00,883.1,905.0,1593.6,1235.5,593.9,541.8,1203.5,1092.1,3467.4,3477.1,867.1,1136.6,437.2,3502.7,785.2,832.7,3475.9,3483.2,395.0,616.5,411.4,599.6,257.6,254.6,3485.6,3483.2,611.7,490.1,697.9,1089.5,1282.8,458.5,1.0,1.0,-5.0,16016.0,1505.0,3110.0,0.0,0.0,2.0,-1.0,1.0,2.0,24.0,16318.0,1457.0,-170.0,0.0,1.0,3.0,0.0,1.0
2022-05-08 18:28:44.891661-07:00,878.0,907.6,1595.5,1235.5,593.1,541.8,1203.5,1092.1,3472.2,3474.6,872.1,1136.6,438.8,3502.7,785.2,832.7,3475.9,3483.2,395.0,618.1,411.4,606.0,256.9,251.5,3485.6,3483.2,611.7,486.9,697.9,1086.8,1284.6,466.4,0.0,0.0,1.0,16016.0,1505.0,3110.0,0.0,0.0,1.0,2.0,0.0,0.0,23.0,16318.0,1457.0,-170.0,0.0,1.0,2.0,-1.0,1.0
2022-05-08 18:28:44.952279-07:00,878.0,907.6,1595.5,1232.8,593.1,537.0,1203.5,1096.4,3472.2,3474.6,872.1,1140.1,438.8,3501.4,783.6,836.1,3479.5,3475.9,391.8,618.1,405.9,606.0,256.9,251.5,3478.3,3475.9,609.2,486.9,698.7,1086.8,1284.6,466.4,0.0,0.0,-3.0,16016.0,1505.0,3110.0,0.0,2.0,-1.0,1.0,0.0,0.0,21.0,16318.0,1457.0,-170.0,0.0,0.0,6.0,0.0,1.0
2022-05-08 18:28:45.041825-07:00,884.8,905.0,1594.6,1232.8,590.7,537.0,1203.5,1096.4,3474.6,3479.5,867.1,1140.1,438.0,3501.4,783.6,836.1,3479.5,3475.9,391.8,611.7,405.9,601.2,251.5,250.0,3478.3,3475.9,609.2,490.1,698.7,1085.1,1279.2,471.1,0.0,0.0,-2.0,16016.0,1505.0,3110.0,0.0,-3.0,2.0,-1.0,0.0,3.0,24.0,16318.0,1457.0,-170.0,0.0,-1.0,2.0,-1.0,1.0
2022-05-08 18:28:45.043172-07:00,884.8,905.0,1594.6,1232.8,590.7,542.6,1203.5,1094.7,3474.6,3479.5,867.1,1134.9,438.0,3495.3,783.6,835.2,3478.3,3486.8,391.8,611.7,405.9,601.2,251.5,250.0,3472.2,3478.3,606.0,490.1,701.9,1085.1,1279.2,471.1,-1.0,1.0,-1.0,16016.0,1505.0,3110.0,0.0,-1.0,1.0,-2.0,0.0,1.0,22.0,16318.0,1457.0,-170.0,0.0,-1.0,0.0,-1.0,1.0
2022-05-08 18:28:45.072108-07:00,880.6,905.0,1597.4,1233.7,591.5,542.6,1203.5,1094.7,3481.9,3467.4,870.5,1140.1,432.5,3495.3,783.6,835.2,3478.3,3486.8,391.8,618.1,409.0,600.4,252.3,254.6,3472.2,3478.3,606.0,483.0,702.8,1086.8,1281.0,467.1,0.0,1.0,-2.0,16016.0,1505.0,3110.0,0.0,-1.0,-2.0,1.0,1.0,1.0,22.0,16318.0,1457.0,-170.0,0.0,1.0,-1.0,0.0,1.0
2022-05-08 18:28:45.132014-07:00,880.6,905.0,1597.4,1233.7,585.1,538.6,1201.8,1098.2,3481.9,3467.4,870.5,1140.1,438.0,3500.2,785.2,838.6,3488.0,3478.3,391.1,610.0,409.0,600.4,252.3,254.6,3488.0,3478.3,607.6,486.9,702.8,1086.8,1281.0,467.1,0.0,-1.0,-3.0,16016.0,1505.0,3110.0,0.0,0.0,-3.0,-1.0,0.0,3.0,23.0,16318.0,1457.0,-170.0,0.0,-1.0,0.0,-1.0,1.0
2022-05-08 18:28:45.192297-07:00,881.4,907.6,1594.6,1228.4,585.1,538.6,1201.8,1098.2,3478.3,3467.4,867.9,1134.0,438.0,3500.2,785.2,838.6,3488.0,3478.3,391.1,610.0,405.9,597.1,253.8,253.1,3488.0,3478.3,607.6,486.9,706.0,1083.4,1281.9,470.3,0.0,0.0,-1.0,16016.0,1505.0,3110.0,0.0,-3.0,0.0,0.0,1.0,2.0,22.0,16318.0,1457.0,-170.0,0.0,-2.0,3.0,-1.0,1.0
2022-05-08 18:28:45.222402-07:00,881.4,907.6,1594.6,1228.4,586.7,538.6,1203.5,1096.4,3478.3,3467.4,867.9,1134.0,435.7,3501.4,786.1,833.6,3488.0,3489.2,388.7,618.1,405.9,597.1,253.8,253.1,3485.6,3480.7,606.0,486.9,706.0,1083.4,1281.9,470.3,0.0,0.0,0.0,16016.0,1505.0,3110.0,0.0,0.0,3.0,3.0,1.0,1.0,22.0,16318.0,1457.0,-170.0,0.0,0.0,4.0,0.0,1.0
2022-05-08 18:28:45.342926-07:00,884.8,901.7,1588.0,1235.5,586.7,538.6,1203.5,1096.4,3480.7,3474.6,870.5,1130.5,435.7,3501.4,786.1,833.6,3488.0,3489.2,388.7,618.1,407.5,605.2,256.9,255.3,3485.6,3480.7,606.0,486.9,701.9,1090.3,1278.3,469.5,0.0,-2.0,0.0,16016.0,1505.0,3110.0,0.0,0.0,1.0,1.0,1.0,1.0,23.0,16318.0,1457.0,-170.0,0.0,-1.0,0.0,2.0,1.0
2022-05-08 18:28:45.343956-07:00,884.8,901.7,1588.0,1235.5,586.7,541.0,1200.9,1094.7,3480.7,3474.6,870.5,1130.5,440.4,3495.3,782.7,836.1,3481.9,3477.1,385.6,614.9,407.5,605.2,256.9,255.3,3481.9,3483.2,606.8,486.1,701.9,1090.3,1278.3,469.5,0.0,-1.0,-2.0,16016.0,1505.0,3110.0,0.0,-1.0,-2.0,-1.0,0.0,3.0,25.0,16318.0,1457.0,-170.0,0.0,-1.0,0.0,0.0,1.0
2022-05-08 18:28:45.402050-07:00,889.0,905.9,1595.5,1233.7,586.7,541.0,1200.9,1092.9,3473.4,3478.3,868.8,1134.9,440.4,3495.3,782.7,836.1,3479.5,3477.1,385.6,614.9,408.2,606.0,258.4,251.5,3486.8,3483.2,606.8,486.1,698.7,1089.5,1281.9,467.1,0.0,-1.0,-2.0,16016.0,1505.0,3110.0,0.0,1.0,1.0,-1.0,1.0,3.0,22.0,16318.0,1457.0,-170.0,0.0,-2.0,2.0,0.0,1.0
2022-05-08 18:28:45.551864-07:00,883.1,905.9,1595.5,1233.7,591.5,540.2,1201.8,1092.9,3471.0,3478.3,868.8,1134.9,436.4,3486.8,781.1,836.1,3479.5,3479.5,395.7,611.7,408.2,606.0,258.4,253.1,3486.8,3479.5,605.2,482.2,698.7,1089.5,1281.9,473.5,0.0,0.0,-4.0,16016.0,1505.0,3110.0,0.0,0.0,1.0,0.0,1.0,3.0,22.0,16318.0,1457.0,-170.0,0.0,1.0,1.0,0.0,1.0
2022-05-08 18:28:45.553000-07:00,883.1,901.7,1597.4,1231.9,591.5,540.2,1201.8,1099.9,3471.0,3481.9,868.8,1132.2,436.4,3486.8,781.1,834.4,3480.7,3479.5,395.7,611.7,407.5,602.8,253.8,253.1,3477.1,3479.5,605.2,482.2,701.1,1089.5,1279.2,473.5,0.0,1.0,-4.0,16016.0,1505.0,3110.0,0.0,1.0,0.0,0.0,0.0,2.0,21.0,16318.0,1457.0,-170.0,0.0,2.0,3.0,0.0,1.0
2022-05-08 18:28:45.554077-07:00,885.6,901.7,1597.4,1231.9,593.1,537.8,1200.0,1099.9,3473.4,3481.9,868.8,1132.2,438.8,3496.6,784.4,834.4,3480.7,3485.6,389.5,607.6,407.5,602.8,253.8,253.8,3477.1,3486.8,606.0,480.6,701.1,1089.5,1279.2,471.1,-1.0,0.0,-2.0,16016.0,1505.0,3110.0,0.0,1.0,1.0,-1.0,0.0,3.0,21.0,16318.0,1457.0,-170.0,0.0,2.0,5.0,1.0,1.0
2022-05-08 18:28:45.582046-07:00,885.6,901.7,1588.0,1230.2,593.1,537.8,1200.0,1091.2,3473.4,3469.8,872.1,1134.9,438.8,3496.6,784.4,835.2,3480.7,3485.6,389.5,607.6,404.3,606.8,255.3,253.8,3481.9,3486.8,606.0,480.6,699.5,1089.5,1279.2,471.1,0.0,0.0,0.0,16016.0,1505.0,3110.0,0.0,4.0,0.0,1.0,1.0,3.0,21.0,16318.0,1457.0,-170.0,0.0,1.0,1.0,-1.0,1.0
2022-05-08 18:28:45.672101-07:00,885.6,902.5,1588.0,1230.2,591.5,544.2,1202.7,1091.2,3475.9,3478.3,872.1,1134.9,440.4,3503.9,777.8,835.2,3480.7,3477.1,391.8,615.7,404.3,606.8,251.5,256.9,3481.9,3483.2,604.4,483.0,699.5,1089.5,1278.3,468.7,0.0,2.0,-1.0,16016.0,1505.0,3110.0,0.0,-2.0,-1.0,0.0,0.0,2.0,22.0,16318.0,1457.0,-170.0,0.0,1.0,1.0,1.0,1.0
2022-05-08 18:28:45.673398-07:00,885.6,902.5,1593.6,1229.3,591.5,544.2,1204.4,1098.2,3475.9,3478.3,864.6,1133.1,440.4,3503.9,782.7,833.6,3473.4,3485.6,391.8,615.7,409.0,605.2,251.5,256.9,3473.4,3477.1,604.4,483.0,704.4,1085.1,1278.3,468.7,-2.0,0.0,0.0,16016.0,1505.0,3110.0,0.0,1.0,1.0,1.0,0.0,4.0,21.0,16318.0,1457.0,-170.0,0.0,0.0,-3.0,0.0,1.0
2022-05-08 18:28:45.732548-07:00,884.8,905.9,1593.6,1229.3,588.3,540.2,1204.4,1098.2,3466.1,3477.1,864.6,1133.1,434.9,3499.0,782.7,833.6,3473.4,3485.6,391.8,612.5,409.0,605.2,254.6,250.0,3473.4,3477.1,608.4,484.5,704.4,1085.1,1280.1,463.2,0.0,0.0,0.0,16016.0,1505.0,3110.0,0.0,0.0,-2.0,0.0,1.0,2.0,21.0,16318.0,1457.0,-170.0,0.0,0.0,2.0,1.0,1.0
2022-05-08 18:28:45.792294-07:00,884.8,905.9,1598.3,1233.7,588.3,540.2,1207.1,1092.9,3466.1,3477.1,870.5,1137.5,434.9,3499.0,777.8,833.6,3473.4,3480.7,391.8,612.5,408.2,603.6,254.6,250.0,3469.8,3477.1,608.4,484.5,697.0,1085.1,1280.1,463.2,-1.0,1.0,0.0,16016.0,1505.0,3110.0,0.0,1.0,2.0,1.0,0.0,1.0,23.0,16318.0,1457.0,-170.0,0.0,2.0,-2.0,1.0,1.0
2022-05-08 18:28:45.822186-07:00,878.0,905.9,1598.3,1233.7,585.9,541.8,1207.1,1092.9,3475.9,3477.1,870.5,1137.5,437.2,3503.9,777.8,833.6,3473.4,3480.7,390.3,614.9,408.2,603.6,253.1,253.1,3469.8,3477.1,608.4,483.0,697.0,1085.1,1281.0,465.6,0.0,0.0,-1.0,16016.0,1505.0,3110.0,0.0,0.0,0.0,1.0,1.0,1.0,22.0,16318.0,1457.0,-170.0,0.0,2.0,-2.0,0.0,1.0
2022-05-08 18:28:45.911837-07:00,878.0,905.9,1592.7,1231.0,585.9,541.8,1202.7,1089.5,3475.9,3477.1,868.8,1137.5,437.2,3503.9,785.2,833.6,3477.1,3478.3,390.3,614.9,404.3,604.4,253.1,253.1,3481.9,3483.2,608.4,483.0,698.7,1087.7,1281.0,465.6,0.0,0.0,0.0,16016.0,1505.0,3110.0,0.0,0.0,1.0,-3.0,0.0,1.0,22.0,16318.0,1457.0,-170.0,0.0,3.0,1.0,-1.0,1.0
2022-05-08 18:28:45.942236-07:00,881.4,904.2,1596.4,1231.0,589.1,537.8,1202.7,1089.5,3468.6,3467.4,863.7,1137.5,438.0,3494.1,785.2,833.6,3477.1,3478.3,391.1,616.5,404.3,602.8,253.8,251.5,3481.9,3483.2,608.4,483.7,698.7,1083.4,1282.8,469.5,0.0,0.0,-2.0,16016.0,1505.0,3110.0,0.0,-1.0,-2.0,-1.0,3.0,3.0,20.0,16318.0,1457.0,-170.0,0.0,0.0,0.0,0.0,1.0
2022-05-08 18:28:45.972279-07:00,881.4,904.2,1596.4,1231.9,589.1,538.6,1197.4,1092.1,3468.6,3467.4,863.7,1132.2,438.0,3499.0,783.6,833.6,3481.9,3479.5,394.2,616.5,405.1,602.8,253.8,251.5,3486.8,3480.7,606.0,483.7,702.8,1083.4,1282.8,469.5,0.0,1.0,0.0,16016.0,1505.0,3110.0,0.0,-2.0,0.0,1.0,1.0,3.0,23.0,16318.0,1457.0,-170.0,0.0,0.0,-4.0,1.0,1.0
2022-05-08 18:28:46.032020-07:00,885.6,907.6,1589.9,1231.9,588.3,538.6,1197.4,1092.1,3473.4,3474.6,869.6,1132.2,439.6,3499.0,783.6,833.6,3481.9,3479.5,394.2,612.5,405.1,601.2,253.8,254.6,3486.8,3480.7,606.0,483.0,702.8,1085.1,1278.3,471.1,0.0,0.0,0.0,16016.0,1505.0,3110.0,0.0,1.0,0.0,-1.0,0.0,2.0,26.0,16318.0,1457.0,-170.0,0.0,-1.0,-5.0,0.0,1.0
2022-05-08 18:28:46.092350-07:00,885.6,907.6,1589.9,1231.0,588.3,541.8,1204.4,1094.7,3473.4,3474.6,869.6,1138.4,439.6,3496.6,783.6,836.1,3477.1,3478.3,395.7,612.5,409.0,601.2,253.8,254.6,3481.9,3474.6,601.2,483.0,700.3,1085.1,1278.3,471.1,-1.0,1.0,-2.0,16016.0,1505.0,3110.0,0.0,-1.0,1.0,-2.0,1.0,2.0,23.0,16318.0,1457.0,-170.0,0.0,-3.0,-1.0,1.0,1.0
2022-05-08 18:28:46.122249-07:00,884.8,905.0,1593.6,1231.0,587.5,541.8,1204.4,1094.7,3478.3,3473.4,867.1,1138.4,435.7,3496.6,783.6,836.1,3477.1,3478.3,395.7,614.9,409.0,605.2,250.0,251.5,3481.9,3474.6,601.2,490.1,700.3,1090.3,1281.0,468.7,2.0,-1.0,0.0,16016.0,1505.0,3110.0,0.0,0.0,-4.0,0.0,0.0,2.0,23.0,16318.0,1457.0,-170.0,0.0,0.0,-1.0,0.0,1.0
2022-05-08 18:28:46.212707-07:00,884.8,905.0,1593.6,1223.9,587.5,541.0,1201.8,1095.6,3478.3,3473.4,867.1,1138.4,435.7,3501.4,782.7,838.6,3481.9,3478.3,397.3,614.9,408.2,605.2,250.0,251.5,3488.0,3474.6,609.2,490.1,704.4,1090.3,1281.0,468.7,0.0,-1.0,0.0,16016.0,1505.0,3110.0,0.0,2.0,1.0,0.0,1.0,1.0,21.0,16318.0,1457.0,-170.0,0.0,0.0,0.0,2.0,1.0
2022-05-08 18:28:46.242165-07:00,882.3,905.0,1597.4,1232.8,593.9,541.0,1201.8,1095.6,3477.1,3483.2,865.4,1133.1,440.4,3501.4,782.7,838.6,3481.9,3478.3,397.3,614.1,409.0,605.2,250.0,254.6,3488.0,3474.6,609.2,489.3,702.8,1089.5,1278.3,472.7,1.0,0.0,0.0,16016.0,1505.0,3110.0,0.0,-2.0,1.0,1.0,0.0,1.0,23.0,16318.0,1457.0,-170.0,0.0,-1.0,2.0,-1.0,1.0
2022-05-08 18:28:46.272197-07:00,882.3,905.0,1597.4,1232.8,587.5,540.2,1205.3,1093.8,3477.1,3483.2,865.4,1133.1,437.2,3499.0,786.1,831.1,3474.6,3483.2,395.0,610.8,409.0,605.2,250.0,254.6,3474.6,3475.9,606.8,483.7,702.8,1089.5,1278.3,472.7,0.0,0.0,-1.0,16016.0,1505.0,3110.0,0.0,-1.0,-3.0,0.0,1.0,3.0,23.0,16318.0,1457.0,-170.0,0.0,0.0,0.0,-1.0,1.0
2022-05-08 18:28:46.331755-07:00,880.6,903.4,1589.9,1231.0,587.5,540.2,1205.3,1093.8,3478.3,3478.3,868.8,1135.7,437.2,3499.0,786.1,831.1,3474.6,3483.2,395.0,610.8,410.6,603.6,251.5,253.8,3474.6,3475.9,606.8,483.7,701.1,1086.8,1281.9,467.1,0.0,1.0,-5.0,16016.0,1505.0,3110.0,0.0,0.0,-4.0,0.0,1.0,3.0,21.0,16318.0,1457.0,-170.0,0.0,-2.0,5.0,0.0,1.0
2022-05-08 18:28:46.392642-07:00,880.6,903.4,1589.9,1231.0,593.1,537.0,1200.9,1090.3,3478.3,3478.3,868.8,1135.7,437.2,3496.6,781.1,831.9,3477.1,3479.5,392.6,612.5,410.6,603.6,251.5,253.8,3475.9,3478.3,604.4,485.3,701.1,1086.8,1281.9,467.1,0.0,0.0,-3.0,16016.0,1505.0,3110.0,0.0,-4.0,1.0,-1.0,1.0,2.0,21.0,16318.0,1457.0,-170.0,0.0,4.0,1.0,0.0,1.0
2022-05-08 18:28:46.422194-07:00,883.1,901.7,1595.5,1231.9,593.1,537.0,1200.9,1090.3,3474.6,3480.7,869.6,1138.4,437.2,3496.6,781.1,831.9,3477.1,3479.5,392.6,612.5,407.5,604.4,253.1,253.1,3475.9,3478.3,604.4,485.3,706.0,1094.7,1281.9,468.7,1.0,-1.0,0.0,16016.0,1505.0,3110.0,0.0,-2.0,1.0,0.0,0.0,0.0,21.0,16318.0,1457.0,-170.0,0.0,0.0,-1.0,-1.0,1.0
2022-05-08 18:28:46.481783-07:00,883.1,901.7,1595.5,1231.9,589.1,543.4,1196.5,1093.8,3474.6,3480.7,869.6,1138.4,438.0,3505.1,783.6,836.1,3481.9,3481.9,395.7,614.9,407.5,604.4,253.1,253.1,3478.3,3485.6,610.0,484.5,706.0,1094.7,1281.9,468.7,0.0,0.0,-1.0,16016.0,1505.0,3110.0,0.0,3.0,3.0,-1.0,2.0,3.0,23.0,16318.0,1457.0,-170.0,0.0,1.0,1.0,0.0,1.0
2022-05-08 18:28:46.572092-07:00,881.4,901.7,1588.9,1233.7,589.1,543.4,1196.5,1092.1,3477.1,3473.4,868.8,1134.0,438.0,3505.1,783.6,833.6,3477.1,3481.9,395.7,614.9,402.8,606.0,253.1,255.3,3477.1,3485.6,610.0,484.5,700.3,1090.3,1277.4,469.5,-1.0,-2.0,0.0,16016.0,1505.0,3110.0,0.0,-2.0,1.0,-2.0,-1.0,0.0,21.0,16318.0,1457.0,-170.0,0.0,3.0,1.0,0.0,1.0
2022-05-08 18:28:46.573218-07:00,885.6,901.7,1588.9,1233.7,587.5,543.4,1206.2,1092.1,3469.8,3473.4,868.8,1134.0,436.4,3491.7,780.3,833.6,3477.1,3479.5,398.9,612.5,402.8,606.0,253.1,248.5,3477.1,3467.4,604.4,489.3,700.3,1090.3,1277.4,469.5,1.0,0.0,0.0,16016.0,1505.0,3110.0,0.0,0.0,0.0,1.0,0.0,2.0,24.0,16318.0,1457.0,-170.0,0.0,-2.0,3.0,-1.0,1.0
2022-05-08 18:28:46.631778-07:00,885.6,904.2,1592.7,1235.5,587.5,543.4,1206.2,1090.3,3469.8,3477.1,865.4,1134.0,436.4,3491.7,780.3,831.1,3472.2,3479.5,398.9,612.5,408.2,599.6,250.8,248.5,3480.7,3467.4,604.4,489.3,689.7,1086.8,1276.5,469.5,0.0,1.0,-1.0,16016.0,1505.0,3110.0,0.0,-1.0,0.0,1.0,1.0,1.0,23.0,16318.0,1457.0,-170.0,0.0,-2.0,-1.0,-1.0,1.0
2022-05-08 18:28:46.782346-07:00,880.6,904.2,1592.7,1235.5,586.7,537.0,1202.7,1090.3,3477.1,3477.1,865.4,1134.0,435.7,3500.2,783.6,831.1,3472.2,3481.9,391.8,618.1,408.2,599.6,250.8,253.1,3480.7,3483.2,606.8,486.1,689.7,1086.8,1276.5,467.1,0.0,0.0,-1.0,16016.0,1505.0,3110.0,0.0,2.0,1.0,1.0,0.0,2.0,23.0,16318.0,1457.0,-170.0,0.0,0.0,-2.0,-1.0,1.0
2022-05-08 18:28:46.811813-07:00,880.6,905.0,1597.4,1231.9,586.7,537.0,1202.7,1093.8,3477.1,3472.2,865.4,1133.1,435.7,3500.2,783.6,836.1,3483.2,3481.9,391.8,618.1,408.2,601.2,253.8,253.1,3478.3,3483.2,606.8,486.1,695.4,1079.9,1273.9,467.1,0.0,1.0,0.0,16016.0,1505.0,3110.0,0.0,1.0,-2.0,2.0,1.0,3.0,24.0,16318.0,1457.0,-170.0,0.0,2.0,1.0,1.0,1.0
2022-05-08 18:28:46.842554-07:00,879.7,905.0,1597.4,1231.9,586.7,537.0,1208.9,1093.8,3480.7,3472.2,865.4,1133.1,438.0,3507.5,782.7,836.1,3483.2,3473.4,392.6,613.3,408.2,601.2,253.8,253.8,3478.3,3467.4,606.0,486.9,695.4,1079.9,1273.9,470.3,0.0,0.0,0.0,16016.0,1505.0,3110.0,0.0,0.0,-2.0,0.0,0.0,2.0,22.0,16318.0,1457.0,-170.0,0.0,0.0,-1.0,0.0,1.0
2022-05-08 18:28:46.902415-07:00,879.7,907.6,1590.8,1228.4,586.7,537.0,1204.4,1096.4,3480.7,3471.0,867.1,1134.9,438.0,3507.5,781.1,831.1,3477.1,3478.3,392.6,613.3,402.8,602.0,256.9,253.8,3479.5,3471.0,606.0,486.9,700.3,1088.6,1282.8,470.3,0.0,0.0,0.0,16016.0,1505.0,3110.0,0.0,1.0,1.0,-3.0,1.0,3.0,24.0,16318.0,1457.0,-170.0,0.0,0.0,4.0,-1.0,1.0
2022-05-08 18:28:46.903401-07:00,880.6,908.4,1590.8,1228.4,587.5,539.4,1204.4,1096.4,3483.2,3467.4,867.1,1134.9,437.2,3499.0,781.1,831.1,3477.1,3478.3,393.4,613.3,402.8,602.0,256.9,253.1,3479.5,3471.0,606.0,484.5,700.3,1088.6,1282.8,471.1,0.0,0.0,-1.0,16016.0,1505.0,3110.0,0.0,0.0,2.0,1.0,0.0,2.0,23.0,16318.0,1457.0,-170.0,0.0,-2.0,1.0,1.0,1.0
2022-05-08 18:28:46.961724-07:00,880.6,908.4,1593.6,1228.4,587.5,539.4,1203.5,1093.8,3483.2,3467.4,868.8,1136.6,437.2,3499.0,785.2,837.7,3472.2,3475.9,393.4,613.3,409.8,604.4,256.9,253.1,3480.7,3480.7,606.0,484.5,704.4,1094.7,1282.8,471.1,0.0,0.0,0.0,16016.0,1505.0,3110.0,0.0,-1.0,1.0,2.0,-1.0,1.0,22.0,16318.0,1457.0,-170.0,0.0,-4.0,0.0,-1.0,1.0
2022-05-08 18:28:46.992634-07:00,881.4,901.7,1593.6,1228.4,591.5,537.0,1203.5,1093.8,3473.4,3478.3,868.8,1136.6,441.2,3494.1,785.2,837.7,3472.2,3475.9,393.4,614.9,409.8,604.4,251.5,253.1,3480.7,3480.7,608.4,487.7,704.4,1094.7,1281.9,469.5,-1.0,0.0,-1.0,16016.0,1505.0,3110.0,0.0,0.0,0.0,1.0,0.0,1.0,23.0,16318.0,1457.0,-170.0,0.0,-1.0,2.0,0.0,1.0
2022-05-08 18:28:47.051826-07:00,881.4,901.7,1595.5,1231.9,591.5,537.0,1203.5,1092.9,3473.4,3478.3,866.3,1133.1,441.2,3494.1,785.2,832.7,3480.7,3472.2,393.4,614.9,405.1,601.2,251.5,253.1,3475.9,3473.4,608.4,487.7,703.6,1085.1,1281.9,469.5,-1.0,0.0,-4.0,16016.0,1505.0,3110.0,0.0,0.0,3.0,1.0,0.0,2.0,23.0,16318.0,1457.0,-170.0,0.0,0.0,2.0,2.0,1.0
2022-05-08 18:28:47.111929-07:00,881.4,909.3,1595.5,1231.9,591.5,537.0,1203.5,1092.9,3472.2,3480.7,866.3,1133.1,439.6,3500.2,785.2,832.7,3480.7,3472.2,396.5,616.5,405.1,601.2,257.6,253.8,3475.9,3473.4,606.0,486.1,703.6,1085.1,1281.0,471.1,1.0,1.0,0.0,16016.0,1505.0,3110.0,0.0,-1.0,2.0,0.0,2.0,3.0,22.0,16318.0,1457.0,-170.0,0.0,-1.0,-5.0,0.0,1.0
2022-05-08 18:28:47.113090-07:00,881.4,909.3,1590.8,1223.9,591.5,540.2,1202.7,1096.4,3472.2,3480.7,867.1,1135.7,439.6,3501.4,782.7,831.9,3480.7,3480.7,396.5,616.5,403.5,601.2,257.6,253.8,3479.5,3478.3,608.4,486.1,706.0,1091.2,1281.0,471.1,0.0,0.0,-1.0,16016.0,1505.0,3110.0,0.0,-3.0,1.0,0.0,1.0,2.0,25.0,16318.0,1457.0,-170.0,0.0,1.0,-1.0,1.0,1.0
2022-05-08 18:28:47.172207-07:00,883.1,909.3,1592.7,1223.9,589.1,540.2,1202.7,1096.4,3475.9,3475.9,870.5,1135.7,435.7,3501.4,782.7,831.9,3480.7,3480.7,396.5,610.8,403.5,604.4,256.9,251.5,3479.5,3478.3,608.4,482.2,706.0,1092.9,1282.8,471.9,-1.0,0.0,0.0,16016.0,1505.0,3110.0,0.0,0.0,-1.0,0.0,0.0,0.0,23.0,16318.0,1457.0,-170.0,0.0,-2.0,-1.0,-2.0,1.0
2022-05-08 18:28:47.231690-07:00,883.1,909.3,1592.7,1230.2,589.1,538.6,1203.5,1090.3,3475.9,3475.9,870.5,1140.1,435.7,3496.6,785.2,834.4,3479.5,3475.9,393.4,610.8,406.7,604.4,256.9,251.5,3479.5,3479.5,601.2,482.2,700.3,1092.9,1282.8,471.9,0.0,0.0,-4.0,16016.0,1505.0,3110.0,0.0,0.0,1.0,0.0,0.0,1.0,21.0,16318.0,1457.0,-170.0,0.0,-3.0,2.0,-3.0,1.0
2022-05-08 18:28:47.262735-07:00,878.9,900.8,1590.8,1230.2,590.7,538.6,1203.5,1090.3,3471.0,3479.5,870.5,1140.1,436.4,3496.6,785.2,834.4,3479.5,3475.9,393.4,610.8,406.7,606.8,253.1,251.5,3479.5,3479.5,601.2,485.3,700.3,1087.7,1271.2,468.7,0.0,-1.0,-1.0,16016.0,1505.0,3110.0,0.0,-2.0,3.0,0.0,1.0,2.0,23.0,16318.0,1457.0,-170.0,0.0,-5.0,0.0,0.0,1.0
2022-05-08 18:28:47.321864-07:00,878.9,900.8,1590.8,1235.5,590.7,537.0,1195.6,1093.8,3471.0,3479.5,870.5,1135.7,436.4,3501.4,785.2,834.4,3480.7,3489.2,393.4,610.8,402.0,606.8,253.1,251.5,3480.7,3480.7,606.8,485.3,702.8,1087.7,1271.2,468.7,1.0,-1.0,-2.0,16016.0,1505.0,3110.0,0.0,0.0,3.0,-3.0,1.0,0.0,23.0,16318.0,1457.0,-170.0,0.0,1.0,-2.0,1.0,1.0
2022-05-08 18:28:47.411880-07:00,885.6,904.2,1591.7,1235.5,589.1,537.0,1195.6,1093.8,3480.7,3475.9,870.5,1135.7,439.6,3501.4,785.2,834.4,3480.7,3489.2,393.4,609.2,402.0,602.0,258.4,250.0,3480.7,3480.7,606.8,485.3,702.8,1088.6,1286.4,469.5,0.0,0.0,0.0,16016.0,1505.0,3110.0,0.0,0.0,-2.0,1.0,0.0,0.0,24.0,16318.0,1457.0,-170.0,0.0,-2.0,1.0,0.0,1.0
2022-05-08 18:28:47.413041-07:00,885.6,904.2,1591.7,1239.1,593.9,540.2,1206.2,1092.1,3480.7,3475.9,870.5,1134.9,436.4,3512.4,780.3,836.9,3480.7,3483.2,395.0,613.3,409.0,602.0,258.4,250.0,3474.6,3481.9,608.4,486.9,698.7,1088.6,1286.4,469.5,1.0,1.0,-1.0,16016.0,1505.0,3110.0,0.0,-1.0,2.0,-1.0,0.0,1.0,25.0,16318.0,1457.0,-170.0,0.0,-1.0,1.0,-2.0,1.0
2022-05-08 18:28:47.471999-07:00,881.4,905.9,1593.6,1231.9,593.9,540.2,1206.2,1092.1,3471.0,3480.7,868.8,1133.1,436.4,3512.4,780.3,836.9,3480.7,3483.2,395.0,613.3,407.5,600.4,254.6,251.5,3474.6,3481.9,608.4,486.9,703.6,1081.6,1280.1,468.7,0.0,-1.0,0.0,16016.0,1505.0,3110.0,0.0,-1.0,-4.0,-1.0,1.0,1.0,22.0,16318.0,1457.0,-170.0,0.0,0.0,4.0,0.0,1.0
2022-05-08 18:28:47.532061-07:00,881.4,905.9,1593.6,1231.9,590.7,537.0,1200.9,1091.2,3471.0,3480.7,868.8,1133.1,438.0,3501.4,782.7,834.4,3485.6,3484.4,393.4,612.5,407.5,600.4,254.6,251.5,3477.1,3485.6,606.8,486.9,703.6,1081.6,1280.1,468.7,1.0,0.0,-2.0,16016.0,1505.0,3110.0,0.0,-1.0,-2.0,1.0,0.0,1.0,25.0,16318.0,1457.0,-170.0,0.0,1.0,-2.0,0.0,1.0
2022-05-08 18:28:47.561882-07:00,882.3,902.5,1596.4,1229.3,590.7,537.0,1200.9,1091.2,3483.2,3483.2,868.8,1128.7,438.0,3501.4,782.7,834.4,3485.6,3484.4,393.4,612.5,408.2,597.9,254.6,250.8,3477.1,3485.6,606.8,486.9,702.8,1081.6,1279.2,471.1,0.0,0.0,-1.0,16016.0,1505.0,3110.0,0.0,-2.0,0.0,-1.0,1.0,3.0,25.0,16318.0,1457.0,-170.0,0.0,-1.0,-3.0,-1.0,1.0
2022-05-08 18:28:47.651740-07:00,882.3,902.5,1596.4,1229.3,589.1,541.8,1198.2,1094.7,3483.2,3483.2,868.8,1128.7,434.9,3491.7,785.2,836.1,3473.4,3472.2,391.8,618.9,408.2,597.9,254.6,250.8,3483.2,3483.2,605.2,486.9,702.8,1081.6,1279.2,471.1,0.0,0.0,0.0,16016.0,1505.0,3110.0,0.0,0.0,0.0,-1.0,1.0,3.0,24.0,16318.0,1457.0,-170.0,0.0,3.0,-4.0,0.0,1.0
2022-05-08 18:28:47.681912-07:00,882.3,902.5,1597.4,1230.2,589.1,541.8,1198.2,1094.7,3473.4,3467.4,861.2,1141.9,434.9,3491.7,785.2,836.1,3473.4,3472.2,391.8,618.9,407.5,604.4,253.1,256.9,3483.2,3483.2,605.2,486.9,701.9,1086.0,1280.1,465.6,-1.0,0.0,-2.0,16016.0,1505.0,3110.0,0.0,-2.0,-2.0,-2.0,0.0,3.0,25.0,16318.0,1457.0,-170.0,0.0,0.0,-1.0,1.0,1.0
2022-05-08 18:28:47.771771-07:00,881.4,902.5,1597.4,1230.2,592.3,536.2,1200.0,1092.1,3480.7,3467.4,861.2,1141.9,438.0,3497.8,781.1,831.1,3483.2,3478.3,398.9,614.9,407.5,604.4,253.1,253.1,3480.7,3472.2,606.8,486.1,701.9,1086.0,1280.1,470.3,-1.0,1.0,-3.0,16016.0,1505.0,3110.0,0.0,0.0,-1.0,0.0,1.0,1.0,20.0,16318.0,1457.0,-170.0,0.0,1.0,-1.0,0.0,1.0
2022-05-08 18:28:47.831871-07:00,881.4,903.4,1586.1,1231.9,592.3,536.2,1200.0,1092.1,3480.7,3469.8,864.6,1130.5,438.0,3497.8,781.1,836.9,3477.1,3478.3,398.9,614.9,404.3,606.0,253.8,253.1,3483.2,3472.2,606.8,486.1,698.7,1089.5,1277.4,470.3,0.0,0.0,-2.0,16016.0,1505.0,3110.0,0.0,-1.0,-1.0,2.0,0.0,2.0,22.0,16318.0,1457.0,-170.0,0.0,0.0,-1.0,0.0,1.0
2022-05-08 18:28:47.922276-07:00,882.3,903.4,1586.1,1231.9,586.7,533.8,1201.8,1092.1,3479.5,3469.8,864.6,1130.5,436.4,3492.9,787.7,836.9,3477.1,3480.7,391.8,610.8,404.3,606.0,253.8,254.6,3483.2,3480.7,605.2,483.0,698.7,1089.5,1277.4,465.6,1.0,0.0,-1.0,16016.0,1505.0,3110.0,0.0,3.0,-3.0,0.0,1.0,1.0,22.0,16318.0,1457.0,-170.0,0.0,0.0,-4.0,1.0,1.0
2022-05-08 18:28:47.923601-07:00,882.3,901.7,1593.6,1228.4,586.7,533.8,1201.8,1095.6,3479.5,3462.5,872.1,1134.0,436.4,3492.9,787.7,831.1,3477.1,3480.7,391.8,610.8,409.0,597.9,250.0,254.6,3485.6,3480.7,605.2,483.0,698.7,1089.5,1276.5,465.6,0.0,0.0,0.0,16016.0,1505.0,3110.0,0.0,1.0,0.0,0.0,1.0,0.0,25.0,16318.0,1457.0,-170.0,0.0,-2.0,-1.0,0.0,1.0
2022-05-08 18:28:47.924644-07:00,881.4,901.7,1593.6,1228.4,592.3,542.6,1207.1,1095.6,3475.9,3462.5,872.1,1134.0,436.4,3505.1,783.6,831.1,3477.1,3477.1,391.8,610.8,409.0,597.9,250.0,253.1,3485.6,3483.2,606.0,491.7,698.7,1089.5,1276.5,467.1,0.0,0.0,1.0,16016.0,1505.0,3110.0,0.0,-1.0,-2.0,0.0,2.0,1.0,23.0,16318.0,1457.0,-170.0,0.0,-2.0,3.0,0.0,1.0
2022-05-08 18:28:47.982009-07:00,881.4,909.3,1593.6,1231.9,592.3,542.6,1207.1,1092.1,3475.9,3474.6,867.9,1136.6,436.4,3505.1,783.6,834.4,3488.0,3477.1,391.8,610.8,403.5,601.2,253.8,253.1,3474.6,3483.2,606.0,491.7,699.5,1090.3,1280.1,467.1,0.0,-1.0,-4.0,16016.0,1505.0,3110.0,0.0,0.0,2.0,-1.0,0.0,3.0,24.0,16318.0,1457.0,-170.0,0.0,-1.0,2.0,1.0,1.0
2022-05-08 18:28:48.013000-07:00,878.0,906.7,1593.6,1231.9,587.5,537.0,1200.0,1092.1,3471.0,3479.5,867.9,1136.6,438.0,3501.4,781.1,834.4,3488.0,3474.6,391.8,614.1,403.5,601.2,251.5,254.6,3474.6,3478.3,605.2,486.9,699.5,1090.3,1283.7,468.7,-3.0,0.0,-3.0,16016.0,1505.0,3110.0,0.0,-1.0,0.0,0.0,0.0,0.0,26.0,16318.0,1457.0,-170.0,0.0,-1.0,5.0,1.0,1.0
2022-05-08 18:28:48.102126-07:00,878.0,906.7,1590.8,1229.3,587.5,537.0,1195.6,1093.8,3471.0,3479.5,869.6,1136.6,438.0,3501.4,781.1,836.1,3471.0,3483.2,391.8,614.1,410.6,606.0,251.5,254.6,3478.3,3484.4,605.2,486.9,702.8,1085.1,1283.7,468.7,1.0,0.0,-3.0,16016.0,1505.0,3110.0,0.0,0.0,-1.0,0.0,0.0,1.0,26.0,16318.0,1457.0,-170.0,0.0,2.0,1.0,0.0,1.0
2022-05-08 18:28:48.132069-07:00,886.5,905.0,1590.8,1229.3,585.9,539.4,1195.6,1093.8,3479.5,3478.3,869.6,1136.6,435.7,3492.9,781.1,836.1,3471.0,3483.2,391.1,615.7,410.6,606.0,255.3,250.0,3478.3,3484.4,605.2,487.7,702.8,1085.1,1277.4,472.7,0.0,0.0,0.0,16016.0,1505.0,3110.0,0.0,-1.0,2.0,1.0,2.0,3.0,22.0,16318.0,1457.0,-170.0,0.0,1.0,1.0,1.0,1.0
2022-05-08 18:28:48.192373-07:00,886.5,905.0,1595.5,1233.7,585.9,539.4,1194.7,1099.0,3479.5,3478.3,866.3,1134.9,435.7,3492.9,781.1,838.6,3481.9,3483.2,391.1,615.7,402.8,606.0,255.3,250.0,3474.6,3481.9,605.2,487.7,698.7,1082.5,1277.4,472.7,2.0,0.0,0.0,16016.0,1505.0,3110.0,0.0,0.0,1.0,-1.0,1.0,2.0,24.0,16318.0,1457.0,-170.0,0.0,2.0,-2.0,1.0,1.0
2022-05-08 18:28:48.221912-07:00,878.0,904.2,1595.5,1233.7,588.3,537.0,1194.7,1099.0,3478.3,3477.1,866.3,1134.9,434.1,3507.5,781.1,838.6,3481.9,3483.2,391.1,615.7,402.8,606.0,253.1,253.8,3474.6,3481.9,611.7,486.9,698.7,1082.5,1275.6,467.1,0.0,0.0,-3.0,16016.0,1505.0,3110.0,0.0,-3.0,1.0,1.0,0.0,2.0,22.0,16318.0,1457.0,-170.0,0.0,4.0,-2.0,1.0,1.0
2022-05-08 18:28:48.282212-07:00,878.0,904.2,1594.6,1229.3,588.3,537.0,1201.8,1093.8,3478.3,3477.1,867.1,1136.6,434.1,3507.5,779.4,833.6,3467.4,3471.0,391.1,615.7,408.2,599.6,253.1,253.8,3484.4,3480.7,611.7,486.9,702.8,1091.2,1275.6,467.1,1.0,0.0,0.0,16016.0,1505.0,3110.0,0.0,1.0,-1.0,-1.0,0.0,2.0,21.0,16318.0,1457.0,-170.0,0.0,0.0,2.0,0.0,1.0
2022-05-08 18:28:48.312526-07:00,880.6,900.8,1592.7,1229.3,589.1,533.8,1201.8,1093.8,3475.9,3472.2,867.9,1136.6,432.5,3497.8,779.4,833.6,3467.4,3471.0,391.1,611.7,408.2,602.0,253.8,255.3,3484.4,3480.7,609.2,490.1,702.8,1085.1,1277.4,470.3,1.0,1.0,-2.0,16016.0,1505.0,3110.0,0.0,-2.0,1.0,0.0,0.0,0.0,22.0,16318.0,1457.0,-170.0,0.0,1.0,-4.0,1.0,1.0
2022-05-08 18:28:48.372170-07:00,880.6,900.8,1592.7,1229.3,589.1,551.4,1200.9,1092.1,3475.9,3472.2,867.9,1132.2,432.5,3505.1,783.6,831.1,3473.4,3481.9,391.8,611.7,409.0,602.0,253.8,255.3,3480.7,3484.4,608.4,490.1,699.5,1085.1,1277.4,470.3,0.0,-1.0,1.0,16016.0,1505.0,3110.0,0.0,1.0,-3.0,0.0,1.0,0.0,23.0,16318.0,1457.0,-170.0,0.0,-1.0,-2.0,0.0,1.0
2022-05-08 18:28:48.432240-07:00,883.1,906.7,1591.7,1229.3,586.7,551.4,1200.9,1092.1,3475.9,3478.3,863.7,1132.2,439.6,3505.1,783.6,831.1,3473.4,3481.9,391.8,614.1,409.0,602.8,256.1,255.3,3480.7,3484.4,608.4,486.9,699.5,1086.8,1286.4,471.1,0.0,0.0,-2.0,16016.0,1505.0,3110.0,0.0,3.0,-2.0,0.0,1.0,1.0,24.0,16318.0,1457.0,-170.0,0.0,1.0,-1.0,-1.0,1.0
2022-05-08 18:28:48.522324-07:00,883.1,906.7,1591.7,1230.2,586.7,539.4,1200.9,1092.9,3475.9,3478.3,863.7,1138.4,439.6,3507.5,781.9,827.7,3480.7,3480.7,388.7,614.1,410.6,602.8,256.1,255.3,3483.2,3473.4,606.8,486.9,702.8,1086.8,1286.4,471.1,0.0,0.0,0.0,16016.0,1505.0,3110.0,0.0,0.0,0.0,2.0,2.0,3.0,25.0,16318.0,1457.0,-170.0,0.0,0.0,-2.0,-1.0,1.0
2022-05-08 18:28:48.552170-07:00,883.1,904.2,1589.9,1230.2,591.5,539.4,1200.9,1092.9,3477.1,3483.2,864.6,1138.4,435.7,3507.5,781.9,827.7,3480.7,3480.7,388.7,614.9,410.6,602.8,253.1,253.1,3483.2,3473.4,606.8,487.7,702.8,1083.4,1278.3,471.9,0.0,1.0,0.0,16016.0,1505.0,3110.0,0.0,-2.0,-1.0,2.0,2.0,3.0,23.0,16318.0,1457.0,-170.0,0.0,0.0,-1.0,-1.0,1.0
2022-05-08 18:28:48.582177-07:00,883.1,904.2,1589.9,1230.2,587.5,541.0,1203.5,1094.7,3477.1,3483.2,864.6,1140.1,440.4,3491.7,783.6,833.6,3481.9,3472.2,390.3,615.7,408.2,602.8,253.1,253.1,3479.5,3474.6,601.2,487.7,700.3,1083.4,1278.3,471.9,-1.0,0.0,-3.0,16016.0,1505.0,3110.0,0.0,0.0,-2.0,2.0,2.0,2.0,24.0,16318.0,1457.0,-170.0,0.0,0.0,2.0,-1.0,1.0
2022-05-08 18:28:48.612238-07:00,879.7,905.0,1593.6,1231.0,587.5,541.0,1203.5,1094.7,3467.4,3474.6,868.8,1130.5,440.4,3491.7,783.6,833.6,3481.9,3472.2,390.3,615.7,408.2,601.2,251.5,253.8,3479.5,3474.6,601.2,487.7,700.3,1091.2,1281.0,471.1,0.0,0.0,0.0,16016.0,1505.0,3110.0,0.0,-1.0,-2.0,0.0,1.0,3.0,21.0,16318.0,1457.0,-170.0,0.0,0.0,-3.0,1.0,1.0
2022-05-08 18:28:48.672298-07:00,879.7,905.0,1593.6,1231.0,589.9,537.0,1204.4,1094.7,3467.4,3474.6,868.8,1130.5,438.0,3500.2,785.2,832.7,3478.3,3480.7,391.8,612.5,408.2,601.2,251.5,253.8,3488.0,3488.0,601.2,485.3,700.3,1091.2,1281.0,471.1,-1.0,0.0,-1.0,16016.0,1505.0,3110.0,0.0,1.0,-2.0,1.0,1.0,2.0,22.0,16318.0,1457.0,-170.0,0.0,-2.0,2.0,1.0,1.0
2022-05-08 18:28:48.732208-07:00,887.3,903.4,1585.2,1230.2,589.9,537.0,1204.4,1094.7,3479.5,3475.9,865.4,1134.9,438.0,3500.2,785.2,832.7,3478.3,3480.7,391.8,612.5,404.3,600.4,253.8,253.1,3488.0,3488.0,601.2,485.3,697.0,1087.7,1277.4,469.5,1.0,-1.0,0.0,16016.0,1505.0,3110.0,0.0,0.0,-2.0,-2.0,0.0,0.0,22.0,16318.0,1457.0,-170.0,0.0,-1.0,0.0,-1.0,1.0
2022-05-08 18:28:48.762470-07:00,887.3,903.4,1585.2,1230.2,590.7,541.0,1201.8,1089.5,3479.5,3475.9,865.4,1134.9,435.7,3491.7,786.9,835.2,3488.0,3478.3,391.1,613.3,404.3,600.4,253.8,253.1,3481.9,3481.9,604.4,485.3,697.0,1087.7,1277.4,469.5,2.0,-1.0,-1.0,16016.0,1505.0,3110.0,0.0,2.0,3.0,0.0,0.0,1.0,22.0,16318.0,1457.0,-170.0,0.0,-1.0,2.0,1.0,1.0
2022-05-08 18:28:48.852267-07:00,881.4,905.0,1589.9,1229.3,590.7,541.0,1201.8,1089.5,3479.5,3484.4,866.3,1133.1,435.7,3491.7,786.9,835.2,3488.0,3478.3,391.1,613.3,407.5,599.6,252.3,254.6,3481.9,3481.9,604.4,485.3,697.9,1074.7,1279.2,473.5,0.0,0.0,0.0,16016.0,1505.0,3110.0,0.0,2.0,0.0,-1.0,0.0,1.0,21.0,16318.0,1457.0,-170.0,0.0,1.0,1.0,2.0,1.0
2022-05-08 18:28:48.912291-07:00,879.7,905.0,1589.9,1229.3,592.3,541.0,1200.0,1089.5,3474.6,3484.4,866.3,1133.1,435.7,3507.5,785.2,831.1,3485.6,3488.0,394.2,612.5,407.5,599.6,252.3,256.9,3483.2,3483.2,606.0,482.2,697.9,1074.7,1279.2,474.3,0.0,2.0,-2.0,16016.0,1505.0,3110.0,0.0,0.0,3.0,2.0,2.0,3.0,24.0,16318.0,1457.0,-170.0,0.0,-1.0,0.0,2.0,1.0
2022-05-08 18:28:48.913556-07:00,879.7,905.9,1588.0,1231.9,592.3,541.0,1200.0,1092.1,3474.6,3473.4,868.8,1133.1,435.7,3507.5,785.2,830.2,3477.1,3488.0,394.2,612.5,407.5,605.2,250.0,256.9,3483.2,3483.2,606.0,482.2,699.5,1086.8,1273.9,474.3,0.0,1.0,0.0,16016.0,1505.0,3110.0,0.0,-2.0,-2.0,0.0,1.0,2.0,24.0,16318.0,1457.0,-170.0,0.0,-2.0,-2.0,1.0,1.0
2022-05-08 18:28:49.062381-07:00,878.0,905.9,1588.0,1231.9,590.7,541.0,1198.2,1092.1,3467.4,3473.4,868.8,1133.1,434.1,3496.6,779.4,830.2,3477.1,3478.3,391.1,612.5,407.5,605.2,250.0,253.1,3483.2,3481.9,608.4,479.8,699.5,1086.8,1273.9,467.9,-1.0,2.0,1.0,16016.0,1505.0,3110.0,0.0,-3.0,2.0,0.0,0.0,3.0,23.0,16318.0,1457.0,-170.0,0.0,2.0,-4.0,0.0,1.0
2022-05-08 18:28:49.063551-07:00,878.0,898.3,1597.4,1230.2,590.7,541.0,1198.2,1090.3,3467.4,3479.5,864.6,1125.2,434.1,3496.6,779.4,831.1,3478.3,3478.3,391.1,612.5,403.5,598.7,254.6,253.1,3475.9,3481.9,608.4,479.8,702.8,1083.4,1278.3,467.9,0.0,1.0,0.0,16016.0,1505.0,3110.0,0.0,1.0,-3.0,0.0,0.0,3.0,24.0,16318.0,1457.0,-170.0,0.0,-1.0,-1.0,0.0,1.0
2022-05-08 18:28:49.064874-07:00,883.1,898.3,1597.4,1230.2,589.9,537.8,1202.7,1090.3,3479.5,3479.5,864.6,1125.2,434.1,3496.6,778.6,831.1,3478.3,3477.1,390.3,610.0,403.5,598.7,254.6,248.5,3475.9,3483.2,607.6,490.1,702.8,1083.4,1278.3,468.7,1.0,1.0,0.0,16016.0,1505.0,3110.0,0.0,-1.0,-4.0,0.0,0.0,1.0,23.0,16318.0,1457.0,-170.0,0.0,1.0,1.0,1.0,1.0
2022-05-08 18:28:49.182050-07:00,883.1,899.1,1589.9,1228.4,589.9,537.8,1202.7,1093.8,3479.5,3469.8,862.9,1131.4,434.1,3496.6,778.6,835.2,3488.0,3477.1,390.3,610.0,408.2,601.2,251.5,248.5,3488.0,3483.2,607.6,490.1,701.1,1084.2,1280.1,468.7,-1.0,0.0,-6.0,16016.0,1505.0,3110.0,0.0,-1.0,1.0,0.0,0.0,3.0,21.0,16318.0,1457.0,-170.0,0.0,2.0,-4.0,-1.0,1.0
2022-05-08 18:28:49.183135-07:00,883.9,905.9,1589.9,1228.4,588.3,541.0,1202.7,1093.8,3472.2,3478.3,862.9,1131.4,434.1,3492.9,784.4,835.2,3488.0,3486.8,394.2,618.1,408.2,601.2,252.3,255.3,3488.0,3474.6,608.4,483.7,701.1,1084.2,1281.9,465.6,0.0,0.0,0.0,16016.0,1505.0,3110.0,0.0,-1.0,0.0,-2.0,0.0,3.0,24.0,16318.0,1457.0,-170.0,0.0,0.0,2.0,0.0,1.0
2022-05-08 18:28:49.211957-07:00,883.9,905.9,1593.6,1230.2,588.3,541.0,1203.5,1091.2,3472.2,3478.3,867.1,1134.0,434.1,3492.9,781.9,831.1,3477.1,3469.8,394.2,618.1,404.3,605.2,252.3,255.3,3488.0,3485.6,608.4,483.7,701.9,1091.2,1281.9,465.6,0.0,0.0,-2.0,16016.0,1505.0,3110.0,0.0,-3.0,-1.0,-1.0,0.0,3.0,24.0,16318.0,1457.0,-170.0,0.0,0.0,0.0,-1.0,1.0
2022-05-08 18:28:49.272032-07:00,880.6,902.5,1593.6,1230.2,588.3,539.4,1203.5,1091.2,3478.3,3477.1,867.1,1134.0,439.6,3492.9,781.9,831.1,3477.1,3469.8,393.4,610.8,404.3,605.2,253.1,256.9,3488.0,3485.6,607.6,484.5,701.9,1091.2,1277.4,465.6,0.0,2.0,0.0,16016.0,1505.0,3110.0,0.0,-2.0,-2.0,1.0,0.0,1.0,21.0,16318.0,1457.0,-170.0,0.0,-1.0,-2.0,0.0,1.0
2022-05-08 18:28:49.331974-07:00,880.6,902.5,1591.7,1230.2,588.3,539.4,1203.5,1090.3,3478.3,3477.1,867.1,1137.5,439.6,3492.9,781.9,831.9,3477.1,3483.2,393.4,610.8,407.5,605.2,253.1,256.9,3477.1,3480.7,607.6,484.5,698.7,1089.5,1277.4,465.6,0.0,1.0,-1.0,16016.0,1505.0,3110.0,0.0,-2.0,-1.0,-1.0,1.0,2.0,23.0,16318.0,1457.0,-170.0,0.0,0.0,-3.0,0.0,1.0
2022-05-08 18:28:49.391873-07:00,886.5,906.7,1591.7,1230.2,589.1,541.0,1203.5,1090.3,3477.1,3467.4,867.1,1137.5,436.4,3502.7,781.9,831.9,3477.1,3483.2,393.4,618.1,407.5,605.2,256.9,249.2,3477.1,3480.7,606.8,482.2,698.7,1089.5,1277.4,469.5,0.0,0.0,-2.0,16016.0,1505.0,3110.0,0.0,-1.0,-2.0,0.0,1.0,1.0,22.0,16318.0,1457.0,-170.0,0.0,-1.0,2.0,0.0,1.0
2022-05-08 18:28:49.422353-07:00,886.5,906.7,1592.7,1230.2,589.1,541.0,1199.1,1098.2,3477.1,3467.4,863.7,1130.5,436.4,3502.7,780.3,837.7,3479.5,3480.7,393.4,618.1,408.2,604.4,256.9,249.2,3481.9,3478.3,606.8,482.2,701.1,1086.0,1277.4,469.5,0.0,2.0,-3.0,16016.0,1505.0,3110.0,0.0,3.0,2.0,-2.0,0.0,1.0,23.0,16318.0,1457.0,-170.0,0.0,4.0,0.0,1.0,1.0
2022-05-08 18:28:49.451962-07:00,882.3,902.5,1588.9,1230.2,588.3,537.0,1199.1,1098.2,3478.3,3478.3,867.9,1130.5,436.4,3500.2,780.3,837.7,3479.5,3480.7,391.8,610.8,408.2,603.6,256.9,253.8,3481.9,3478.3,609.2,487.7,701.1,1086.0,1279.2,465.6,0.0,0.0,-2.0,16016.0,1505.0,3110.0,0.0,1.0,-1.0,1.0,0.0,2.0,20.0,16318.0,1457.0,-170.0,0.0,0.0,2.0,2.0,1.0
2022-05-08 18:28:49.512473-07:00,882.3,902.5,1588.9,1228.4,588.3,542.6,1203.5,1086.8,3478.3,3478.3,867.9,1136.6,436.4,3503.9,781.9,835.2,3481.9,3481.9,391.8,610.8,410.6,603.6,256.9,253.8,3483.2,3472.2,606.8,487.7,704.4,1086.0,1279.2,465.6,0.0,0.0,0.0,16016.0,1505.0,3110.0,0.0,2.0,2.0,-2.0,0.0,2.0,25.0,16318.0,1457.0,-170.0,0.0,0.0,-2.0,0.0,1.0
2022-05-08 18:28:49.571851-07:00,881.4,901.7,1590.8,1228.4,594.7,542.6,1203.5,1086.8,3468.6,3480.7,867.9,1136.6,433.3,3503.9,781.9,835.2,3481.9,3481.9,391.8,610.8,410.6,606.8,253.8,256.9,3483.2,3472.2,606.8,487.7,704.4,1085.1,1279.2,467.1,0.0,0.0,-2.0,16016.0,1505.0,3110.0,0.0,0.0,1.0,-1.0,0.0,2.0,25.0,16318.0,1457.0,-170.0,0.0,-1.0,-1.0,-2.0,1.0
2022-05-08 18:28:49.601933-07:00,881.4,901.7,1590.8,1231.9,594.7,541.0,1203.5,1092.1,3468.6,3480.7,867.9,1134.9,433.3,3494.1,778.6,832.7,3478.3,3481.9,391.8,610.8,408.2,606.8,253.8,256.9,3483.2,3483.2,607.6,487.7,697.0,1085.1,1279.2,467.1,0.0,0.0,-1.0,16016.0,1505.0,3110.0,0.0,-1.0,-2.0,1.0,2.0,3.0,23.0,16318.0,1457.0,-170.0,0.0,1.0,-1.0,0.0,1.0
2022-05-08 18:28:49.663339-07:00,885.6,900.0,1591.7,1231.9,581.8,541.0,1203.5,1092.1,3467.4,3474.6,864.6,1134.9,442.7,3494.1,778.6,832.7,3478.3,3481.9,391.8,614.1,408.2,606.8,253.8,256.9,3483.2,3483.2,607.6,484.5,697.0,1086.8,1281.9,471.1,0.0,-1.0,-3.0,16016.0,1505.0,3110.0,0.0,2.0,2.0,0.0,0.0,3.0,22.0,16318.0,1457.0,-170.0,0.0,0.0,2.0,-1.0,1.0
2022-05-08 18:28:49.722280-07:00,885.6,900.0,1591.7,1229.3,581.8,539.4,1203.5,1092.9,3467.4,3474.6,864.6,1137.5,442.7,3507.5,784.4,834.4,3488.0,3485.6,392.6,614.1,407.5,606.8,253.8,256.9,3484.4,3479.5,610.0,484.5,697.9,1086.8,1281.9,471.1,0.0,0.0,-3.0,16016.0,1505.0,3110.0,0.0,1.0,4.0,1.0,1.0,2.0,24.0,16318.0,1457.0,-170.0,0.0,0.0,-2.0,0.0,1.0
2022-05-08 18:28:49.812011-07:00,881.4,905.9,1591.7,1233.7,589.1,539.4,1203.5,1092.9,3479.5,3478.3,870.5,1134.0,438.8,3507.5,784.4,834.4,3488.0,3485.6,392.6,614.1,406.7,601.2,254.6,252.3,3484.4,3479.5,610.0,484.5,700.3,1086.8,1281.9,470.3,0.0,0.0,0.0,16016.0,1505.0,3110.0,0.0,-1.0,0.0,2.0,1.0,0.0,23.0,16318.0,1457.0,-170.0,0.0,-1.0,0.0,1.0,1.0
2022-05-08 18:28:49.842051-07:00,881.4,905.9,1591.7,1233.7,590.7,542.6,1200.9,1093.8,3479.5,3478.3,870.5,1134.0,438.8,3496.6,782.7,835.2,3477.1,3483.2,393.4,611.7,406.7,601.2,254.6,252.3,3475.9,3478.3,601.2,486.1,700.3,1086.8,1281.9,470.3,0.0,0.0,0.0,16016.0,1505.0,3110.0,0.0,-1.0,2.0,1.0,0.0,0.0,24.0,16318.0,1457.0,-170.0,0.0,0.0,-6.0,0.0,1.0
2022-05-08 18:28:49.871848-07:00,882.3,910.1,1588.9,1235.5,590.7,542.6,1200.9,1093.8,3475.9,3484.4,864.6,1135.7,438.8,3496.6,782.7,835.2,3477.1,3483.2,393.4,611.7,408.2,605.2,253.1,256.9,3475.9,3478.3,601.2,486.1,697.9,1095.6,1277.4,467.1,0.0,0.0,0.0,16016.0,1505.0,3110.0,0.0,0.0,1.0,0.0,0.0,1.0,22.0,16318.0,1457.0,-170.0,0.0,0.0,-2.0,-1.0,1.0
2022-05-08 18:28:49.902034-07:00,882.3,910.1,1588.9,1235.5,588.3,539.4,1201.8,1088.6,3475.9,3484.4,864.6,1135.7,434.9,3507.5,781.1,833.6,3475.9,3483.2,391.8,612.5,408.2,605.2,253.1,256.9,3481.9,3485.6,607.6,486.9,697.9,1095.6,1277.4,467.1,-1.0,2.0,-1.0,16016.0,1505.0,3110.0,0.0,0.0,-4.0,0.0,1.0,2.0,22.0,16318.0,1457.0,-170.0,0.0,1.0,-1.0,0.0,1.0
2022-05-08 18:28:50.111861-07:00,885.6,903.4,1588.0,1233.7,588.3,539.4,1201.8,1088.6,3475.9,3477.1,863.7,1134.0,434.9,3507.5,781.1,833.6,3475.9,3483.2,391.8,612.5,404.3,600.4,256.9,253.8,3481.9,3485.6,607.6,486.9,702.8,1080.8,1281.0,467.9,0.0,3.0,-1.0,16016.0,1505.0,3110.0,0.0,-1.0,1.0,0.0,1.0,4.0,23.0,16318.0,1457.0,-170.0,0.0,-2.0,-1.0,1.0,1.0
2022-05-08 18:28:50.114148-07:00,885.6,903.4,1588.0,1233.7,585.9,544.2,1196.5,1101.7,3475.9,3477.1,863.7,1134.0,438.0,3499.0,783.6,838.6,3479.5,3483.2,393.4,614.9,404.3,600.4,256.9,253.8,3486.8,3475.9,604.4,489.3,702.8,1080.8,1281.0,467.9,0.0,0.0,-2.0,16016.0,1505.0,3110.0,0.0,1.0,4.0,-1.0,0.0,3.0,24.0,16318.0,1457.0,-170.0,0.0,-1.0,2.0,0.0,1.0
2022-05-08 18:28:50.115312-07:00,882.3,901.7,1587.1,1227.5,585.9,544.2,1196.5,1096.4,3473.4,3472.2,866.3,1140.1,438.0,3499.0,783.6,836.1,3483.2,3483.2,393.4,614.9,409.8,605.2,255.3,255.3,3479.5,3475.9,604.4,489.3,699.5,1084.2,1276.5,471.1,1.0,0.0,-2.0,16016.0,1505.0,3110.0,0.0,-2.0,0.0,-1.0,0.0,3.0,22.0,16318.0,1457.0,-170.0,0.0,0.0,-2.0,0.0,1.0
2022-05-08 18:28:50.142839-07:00,878.0,901.7,1587.1,1227.5,587.5,539.4,1200.0,1096.4,3473.4,3472.2,866.3,1140.1,442.7,3500.2,781.9,836.1,3483.2,3479.5,395.7,612.5,409.8,605.2,255.3,254.6,3479.5,3484.4,604.4,486.1,699.5,1084.2,1276.5,470.3,0.0,0.0,-3.0,16016.0,1505.0,3110.0,0.0,0.0,-1.0,0.0,2.0,3.0,24.0,16318.0,1457.0,-170.0,0.0,-1.0,0.0,-1.0,1.0
2022-05-08 18:28:50.172355-07:00,878.0,905.9,1590.8,1228.4,587.5,539.4,1200.0,1090.3,3473.4,3474.6,867.1,1133.1,442.7,3500.2,781.9,836.9,3479.5,3479.5,395.7,612.5,411.4,605.2,251.5,254.6,3478.3,3484.4,604.4,486.1,701.1,1083.4,1280.1,470.3,0.0,-2.0,-2.0,16016.0,1505.0,3110.0,0.0,0.0,1.0,1.0,0.0,1.0,24.0,16318.0,1457.0,-170.0,0.0,-1.0,1.0,-1.0,1.0
2022-05-08 18:28:50.201994-07:00,881.4,905.9,1590.8,1228.4,589.1,540.2,1198.2,1090.3,3467.4,3474.6,867.1,1133.1,434.1,3505.1,781.9,836.9,3479.5,3484.4,395.0,611.7,411.4,605.2,251.5,253.1,3478.3,3483.2,606.0,483.7,701.1,1083.4,1280.1,469.5,0.0,0.0,-2.0,16016.0,1505.0,3110.0,0.0,0.0,1.0,-1.0,0.0,2.0,25.0,16318.0,1457.0,-170.0,0.0,0.0,0.0,1.0,1.0
2022-05-08 18:28:50.292001-07:00,881.4,905.9,1587.1,1226.6,589.1,540.2,1198.2,1090.3,3467.4,3481.9,864.6,1134.9,434.1,3505.1,781.9,833.6,3474.6,3484.4,395.0,611.7,404.3,602.0,256.9,253.1,3474.6,3483.2,606.0,483.7,699.5,1084.2,1275.6,469.5,0.0,0.0,0.0,16016.0,1505.0,3110.0,0.0,-2.0,-2.0,2.0,0.0,1.0,25.0,16318.0,1457.0,-170.0,0.0,0.0,0.0,-1.0,1.0
2022-05-08 18:28:50.321985-07:00,880.6,905.9,1587.1,1226.6,586.7,541.0,1198.2,1090.3,3473.4,3481.9,864.6,1134.9,435.7,3492.9,780.3,833.6,3474.6,3479.5,396.5,615.7,404.3,602.0,256.9,254.6,3474.6,3478.3,604.4,481.4,699.5,1084.2,1275.6,470.3,0.0,0.0,-2.0,16016.0,1505.0,3110.0,0.0,-2.0,0.0,0.0,0.0,2.0,21.0,16318.0,1457.0,-170.0,0.0,0.0,0.0,0.0,1.0
2022-05-08 18:28:50.382186-07:00,880.6,905.0,1595.5,1227.5,586.7,541.0,1200.0,1093.8,3473.4,3478.3,865.4,1130.5,435.7,3492.9,782.7,831.1,3474.6,3483.2,396.5,615.7,405.9,605.2,253.1,254.6,3478.3,3488.0,604.4,481.4,701.1,1088.6,1281.0,470.3,-1.0,1.0,-1.0,16016.0,1505.0,3110.0,0.0,0.0,0.0,0.0,1.0,1.0,24.0,16318.0,1457.0,-170.0,0.0,1.0,0.0,-1.0,1.0
2022-05-08 18:28:50.471842-07:00,884.8,897.4,1595.5,1227.5,585.9,540.2,1200.0,1093.8,3472.2,3475.9,865.4,1130.5,435.7,3503.9,782.7,831.1,3474.6,3483.2,389.5,611.7,405.9,605.2,253.8,255.3,3478.3,3488.0,606.0,485.3,701.1,1088.6,1280.1,467.9,0.0,-1.0,-2.0,16016.0,1505.0,3110.0,0.0,-1.0,1.0,0.0,1.0,2.0,23.0,16318.0,1457.0,-170.0,0.0,-2.0,1.0,1.0,1.0
2022-05-08 18:28:50.652145-07:00,884.8,897.4,1592.7,1229.3,585.9,540.2,1203.5,1092.1,3472.2,3475.9,863.7,1136.6,435.7,3503.9,785.2,833.6,3478.3,3477.1,389.5,611.7,402.8,603.6,253.8,255.3,3490.5,3485.6,606.0,485.3,699.5,1083.4,1280.1,467.9,0.0,-1.0,0.0,16016.0,1505.0,3110.0,0.0,1.0,0.0,1.0,1.0,1.0,23.0,16318.0,1457.0,-170.0,0.0,-2.0,-4.0,1.0,1.0
2022-05-08 18:28:50.653350-07:00,884.8,905.9,1592.7,1229.3,589.1,541.0,1203.5,1092.1,3466.1,3472.2,863.7,1136.6,436.4,3497.8,785.2,833.6,3478.3,3477.1,391.8,614.9,402.8,603.6,249.2,253.8,3490.5,3485.6,606.8,482.2,699.5,1083.4,1281.0,463.2,0.0,1.0,-1.0,16016.0,1505.0,3110.0,0.0,-2.0,1.0,0.0,-1.0,3.0,25.0,16318.0,1457.0,-170.0,0.0,-1.0,0.0,-1.0,1.0
2022-05-08 18:28:50.772173-07:00,884.8,905.9,1588.0,1225.7,589.1,541.0,1202.7,1088.6,3466.1,3472.2,865.4,1133.1,436.4,3497.8,781.9,833.6,3478.3,3471.0,391.8,614.9,407.5,602.8,249.2,253.8,3468.6,3473.4,606.8,482.2,699.5,1085.1,1281.0,463.2,0.0,0.0,-1.0,16016.0,1505.0,3110.0,0.0,-1.0,-1.0,0.0,1.0,2.0,23.0,16318.0,1457.0,-170.0,0.0,1.0,1.0,1.0,1.0
2022-05-08 18:28:50.773353-07:00,884.8,901.7,1588.0,1225.7,585.1,541.8,1202.7,1088.6,3471.0,3475.9,865.4,1133.1,434.9,3495.3,781.9,833.6,3478.3,3471.0,388.7,616.5,407.5,602.8,250.0,250.8,3468.6,3473.4,606.8,484.5,699.5,1085.1,1277.4,467.9,0.0,0.0,-3.0,16016.0,1505.0,3110.0,0.0,2.0,-2.0,1.0,0.0,0.0,20.0,16318.0,1457.0,-170.0,0.0,-2.0,-2.0,-2.0,1.0
2022-05-08 18:28:50.774219-07:00,884.8,901.7,1595.5,1232.8,585.1,541.0,1202.7,1092.9,3471.0,3475.9,864.6,1132.2,434.9,3495.3,784.4,833.6,3481.9,3477.1,396.5,616.5,408.2,602.8,250.0,250.8,3478.3,3481.9,610.0,484.5,698.7,1081.6,1277.4,467.9,0.0,2.0,0.0,16016.0,1505.0,3110.0,0.0,0.0,1.0,-2.0,0.0,0.0,23.0,16318.0,1457.0,-170.0,0.0,0.0,0.0,-2.0,1.0
2022-05-08 18:28:50.802027-07:00,885.6,901.7,1589.9,1232.8,589.1,541.0,1202.7,1092.9,3472.2,3467.4,865.4,1132.2,434.1,3495.3,784.4,833.6,3481.9,3477.1,396.5,609.2,408.2,602.8,249.2,253.1,3478.3,3481.9,610.0,485.3,698.7,1085.1,1283.7,466.4,0.0,-1.0,-1.0,16016.0,1505.0,3110.0,0.0,-1.0,0.0,0.0,1.0,2.0,22.0,16318.0,1457.0,-170.0,0.0,-2.0,-3.0,0.0,1.0
2022-05-08 18:28:50.831904-07:00,885.6,901.7,1589.9,1232.8,589.1,539.4,1200.0,1091.2,3472.2,3467.4,865.4,1132.2,434.1,3500.2,784.4,834.4,3478.3,3474.6,395.0,609.2,403.5,602.8,249.2,253.1,3472.2,3488.0,606.8,485.3,706.0,1085.1,1283.7,466.4,0.0,0.0,0.0,16016.0,1505.0,3110.0,0.0,1.0,-2.0,2.0,0.0,3.0,21.0,16318.0,1457.0,-170.0,0.0,-2.0,1.0,0.0,1.0
2022-05-08 18:28:50.892796-07:00,877.2,899.1,1592.7,1232.8,587.5,539.4,1200.0,1091.2,3467.4,3472.2,866.3,1132.2,435.7,3500.2,784.4,834.4,3478.3,3474.6,395.0,614.1,403.5,602.8,253.8,251.5,3472.2,3488.0,606.8,483.7,706.0,1083.4,1281.9,466.4,-1.0,1.0,0.0,16016.0,1505.0,3110.0,0.0,1.0,1.0,0.0,2.0,2.0,21.0,16318.0,1457.0,-170.0,0.0,-2.0,-1.0,0.0,1.0
2022-05-08 18:28:51.013228-07:00,877.2,899.1,1592.7,1226.6,587.5,535.4,1203.5,1092.9,3467.4,3472.2,866.3,1134.9,435.7,3496.6,781.1,827.7,3477.1,3471.0,391.8,614.1,402.8,602.8,253.8,251.5,3484.4,3477.1,605.2,483.7,701.1,1083.4,1281.9,466.4,-1.0,0.0,0.0,16016.0,1505.0,3110.0,0.0,-1.0,5.0,2.0,0.0,3.0,24.0,16318.0,1457.0,-170.0,0.0,0.0,-2.0,1.0,1.0
2022-05-08 18:28:51.014781-07:00,880.6,900.8,1595.5,1226.6,588.3,535.4,1203.5,1092.9,3467.4,3467.4,865.4,1134.9,435.7,3496.6,781.1,827.7,3477.1,3471.0,391.8,609.2,402.8,605.2,251.5,250.0,3484.4,3477.1,605.2,486.1,701.1,1089.5,1279.2,467.9,1.0,0.0,0.0,16016.0,1505.0,3110.0,0.0,-1.0,0.0,1.0,0.0,2.0,22.0,16318.0,1457.0,-170.0,0.0,0.0,-2.0,-1.0,1.0
2022-05-08 18:28:51.015976-07:00,880.6,900.8,1595.5,1229.3,587.5,539.4,1192.0,1088.6,3467.4,3467.4,865.4,1130.5,436.4,3495.3,784.4,831.1,3472.2,3478.3,391.8,611.7,405.9,605.2,251.5,250.0,3478.3,3477.1,606.0,488.5,700.3,1089.5,1279.2,467.9,0.0,0.0,-1.0,16016.0,1505.0,3110.0,0.0,-2.0,-2.0,-1.0,-1.0,2.0,22.0,16318.0,1457.0,-170.0,0.0,3.0,-2.0,-1.0,1.0
2022-05-08 18:28:51.102483-07:00,885.6,906.7,1587.1,1231.0,587.5,539.4,1192.0,1088.6,3475.9,3475.9,865.4,1133.1,436.4,3495.3,784.4,831.1,3472.2,3478.3,391.8,611.7,408.2,606.8,253.8,250.0,3478.3,3477.1,606.0,488.5,697.9,1087.7,1281.0,467.1,0.0,0.0,-1.0,16016.0,1505.0,3110.0,0.0,-1.0,1.0,-1.0,0.0,2.0,23.0,16318.0,1457.0,-170.0,0.0,1.0,0.0,2.0,1.0
2022-05-08 18:28:51.131956-07:00,885.6,906.7,1587.1,1231.0,586.7,541.8,1198.2,1092.1,3475.9,3475.9,865.4,1133.1,435.7,3494.1,781.1,834.4,3481.9,3477.1,391.1,612.5,408.2,606.8,253.8,250.0,3485.6,3478.3,606.0,486.9,697.9,1087.7,1281.0,467.1,-1.0,0.0,-2.0,16016.0,1505.0,3110.0,0.0,0.0,0.0,-1.0,0.0,1.0,25.0,16318.0,1457.0,-170.0,0.0,0.0,-1.0,1.0,1.0
2022-05-08 18:28:51.133089-07:00,882.3,906.7,1590.8,1224.8,586.7,541.8,1198.2,1092.1,3477.1,3474.6,866.3,1130.5,435.7,3494.1,781.1,834.4,3481.9,3477.1,391.1,612.5,405.1,598.7,249.2,255.3,3485.6,3478.3,606.0,486.9,696.2,1082.5,1278.3,470.3,0.0,0.0,1.0,16016.0,1505.0,3110.0,0.0,0.0,-1.0,0.0,-1.0,0.0,24.0,16318.0,1457.0,-170.0,0.0,-2.0,-3.0,-1.0,1.0
2022-05-08 18:28:51.193024-07:00,882.3,906.7,1590.8,1224.8,589.1,537.0,1199.1,1088.6,3477.1,3474.6,866.3,1130.5,435.7,3494.1,782.7,827.7,3478.3,3474.6,391.1,612.5,405.1,598.7,249.2,255.3,3483.2,3477.1,605.2,479.8,696.2,1082.5,1278.3,470.3,0.0,0.0,-2.0,16016.0,1505.0,3110.0,0.0,-2.0,1.0,1.0,1.0,3.0,21.0,16318.0,1457.0,-170.0,0.0,1.0,-2.0,1.0,1.0
2022-05-08 18:28:51.313086-07:00,881.4,902.5,1587.1,1223.9,589.1,537.0,1199.1,1088.6,3469.8,3467.4,866.3,1133.1,435.7,3494.1,782.7,827.7,3478.3,3474.6,391.1,612.5,412.9,598.7,250.0,250.0,3483.2,3477.1,605.2,479.8,698.7,1082.5,1278.3,466.4,0.0,0.0,0.0,16016.0,1505.0,3110.0,0.0,0.0,0.0,-1.0,0.0,2.0,24.0,16318.0,1457.0,-170.0,0.0,0.0,-2.0,-1.0,1.0
2022-05-08 18:28:51.313966-07:00,882.3,902.5,1587.1,1223.9,589.1,540.2,1201.8,1094.7,3478.3,3467.4,866.3,1133.1,438.0,3499.0,782.7,834.4,3488.0,3481.9,391.8,614.1,412.9,598.7,250.0,250.8,3480.7,3486.8,605.2,483.7,698.7,1082.5,1278.3,471.9,0.0,0.0,-1.0,16016.0,1505.0,3110.0,0.0,-3.0,-1.0,1.0,1.0,1.0,21.0,16318.0,1457.0,-170.0,0.0,-1.0,2.0,0.0,1.0
2022-05-08 18:28:51.343219-07:00,882.3,904.2,1589.9,1227.5,589.1,540.2,1201.8,1090.3,3478.3,3483.2,865.4,1133.1,438.0,3499.0,782.7,830.2,3477.1,3481.9,391.8,614.1,406.7,602.0,253.1,250.8,3484.4,3486.8,605.2,483.7,703.6,1086.0,1278.3,471.9,-2.0,0.0,0.0,16016.0,1505.0,3110.0,0.0,0.0,-2.0,0.0,0.0,2.0,22.0,16318.0,1457.0,-170.0,0.0,1.0,-1.0,0.0,1.0
2022-05-08 18:28:51.402232-07:00,879.7,904.2,1589.9,1227.5,590.7,534.6,1198.2,1090.3,3475.9,3483.2,865.4,1133.1,435.7,3499.0,786.1,830.2,3477.1,3477.1,395.7,611.7,406.7,602.0,253.1,250.0,3484.4,3485.6,601.2,496.4,703.6,1086.0,1278.3,467.1,0.0,1.0,-2.0,16016.0,1505.0,3110.0,0.0,-2.0,2.0,0.0,0.0,2.0,23.0,16318.0,1457.0,-170.0,0.0,2.0,0.0,1.0,1.0
2022-05-08 18:28:51.403893-07:00,879.7,901.7,1589.9,1226.6,590.7,534.6,1198.2,1092.1,3475.9,3473.4,867.1,1136.6,435.7,3499.0,786.1,831.9,3483.2,3477.1,395.7,611.7,409.8,603.6,249.2,250.0,3483.2,3485.6,601.2,496.4,696.2,1086.0,1278.3,467.1,0.0,1.0,0.0,16016.0,1505.0,3110.0,0.0,1.0,0.0,0.0,0.0,3.0,26.0,16318.0,1457.0,-170.0,0.0,1.0,1.0,0.0,1.0
2022-05-08 18:28:51.462582-07:00,879.7,901.7,1589.9,1226.6,593.1,537.8,1198.2,1092.1,3477.1,3473.4,867.1,1136.6,430.2,3496.6,781.9,831.9,3483.2,3474.6,392.6,614.1,409.8,603.6,249.2,253.8,3483.2,3488.0,604.4,485.3,696.2,1086.0,1278.3,467.1,1.0,1.0,0.0,16016.0,1505.0,3110.0,0.0,0.0,3.0,0.0,0.0,1.0,25.0,16318.0,1457.0,-170.0,0.0,1.0,-2.0,-1.0,1.0
2022-05-08 18:28:51.522286-07:00,879.7,898.3,1594.6,1234.6,593.1,537.8,1198.2,1090.3,3477.1,3478.3,864.6,1137.5,430.2,3496.6,781.9,836.9,3486.8,3474.6,392.6,614.1,402.8,602.8,258.4,253.8,3477.1,3488.0,604.4,485.3,698.7,1087.7,1280.1,467.1,0.0,0.0,-1.0,16016.0,1505.0,3110.0,0.0,1.0,-2.0,0.0,0.0,2.0,21.0,16318.0,1457.0,-170.0,0.0,0.0,-1.0,-1.0,1.0
2022-05-08 18:28:51.552448-07:00,881.4,900.8,1594.6,1234.6,589.1,541.0,1198.2,1090.3,3475.9,3472.2,864.6,1137.5,434.9,3494.1,777.8,836.9,3486.8,3474.6,393.4,615.7,402.8,602.8,253.1,255.3,3477.1,3480.7,606.0,483.0,698.7,1087.7,1273.9,467.9,-1.0,0.0,-2.0,16016.0,1505.0,3110.0,0.0,0.0,1.0,2.0,2.0,4.0,21.0,16318.0,1457.0,-170.0,0.0,2.0,-2.0,-1.0,1.0
2022-05-08 18:28:51.613041-07:00,881.4,900.8,1593.6,1228.4,589.1,541.0,1206.2,1092.1,3475.9,3472.2,862.9,1135.7,434.9,3494.1,782.7,830.2,3483.2,3477.1,393.4,615.7,403.5,603.6,253.1,255.3,3475.9,3475.9,606.0,483.0,706.0,1084.2,1273.9,467.9,0.0,0.0,-2.0,16016.0,1505.0,3110.0,0.0,1.0,1.0,-1.0,1.0,2.0,20.0,16318.0,1457.0,-170.0,0.0,0.0,-2.0,0.0,1.0
2022-05-08 18:28:51.672308-07:00,883.9,905.0,1593.6,1228.4,588.3,540.2,1206.2,1092.1,3477.1,3480.7,862.9,1135.7,434.1,3502.7,782.7,830.2,3483.2,3477.1,394.2,618.1,403.5,603.6,253.8,254.6,3475.9,3475.9,601.2,488.5,706.0,1084.2,1277.4,469.5,0.0,1.0,-3.0,16016.0,1505.0,3110.0,0.0,0.0,3.0,-3.0,0.0,3.0,23.0,16318.0,1457.0,-170.0,0.0,-1.0,-1.0,-1.0,1.0
2022-05-08 18:28:51.702371-07:00,883.9,905.0,1588.9,1227.5,588.3,540.2,1195.6,1098.2,3477.1,3480.7,864.6,1134.9,434.1,3502.7,784.4,833.6,3477.1,3477.1,394.2,618.1,405.1,603.6,253.8,254.6,3477.1,3481.9,601.2,488.5,702.8,1084.2,1277.4,469.5,0.0,-1.0,-1.0,16016.0,1505.0,3110.0,0.0,1.0,-2.0,0.0,1.0,4.0,24.0,16318.0,1457.0,-170.0,0.0,-2.0,1.0,0.0,1.0
2022-05-08 18:28:51.762318-07:00,880.6,902.5,1588.9,1227.5,591.5,545.8,1195.6,1098.2,3477.1,3475.9,864.6,1134.9,436.4,3490.5,784.4,833.6,3477.1,3477.1,393.4,613.3,405.1,603.6,256.9,250.0,3477.1,3481.9,603.6,490.1,702.8,1084.2,1273.9,474.3,0.0,0.0,-1.0,16016.0,1505.0,3110.0,0.0,4.0,-2.0,1.0,0.0,1.0,24.0,16318.0,1457.0,-170.0,0.0,-2.0,-3.0,-1.0,1.0
2022-05-08 18:28:51.822334-07:00,880.6,902.5,1586.1,1228.4,591.5,545.8,1199.1,1092.1,3477.1,3475.9,862.9,1132.2,436.4,3490.5,780.3,829.4,3485.6,3480.7,393.4,613.3,406.7,601.2,256.9,250.0,3475.9,3480.7,603.6,490.1,700.3,1084.2,1273.9,474.3,0.0,0.0,-2.0,16016.0,1505.0,3110.0,0.0,1.0,4.0,-1.0,0.0,2.0,22.0,16318.0,1457.0,-170.0,0.0,-2.0,-1.0,-1.0,1.0
2022-05-08 18:28:51.882265-07:00,878.0,903.4,1588.0,1228.4,588.3,536.2,1199.1,1092.1,3475.9,3480.7,868.8,1132.2,442.7,3499.0,780.3,829.4,3485.6,3480.7,394.2,615.7,406.7,602.8,254.6,251.5,3475.9,3480.7,605.2,482.2,700.3,1085.1,1277.4,467.1,0.0,0.0,-1.0,16016.0,1505.0,3110.0,0.0,0.0,2.0,1.0,2.0,1.0,21.0,16318.0,1457.0,-170.0,0.0,1.0,2.0,-1.0,1.0
2022-05-08 18:28:51.912345-07:00,878.0,903.4,1588.0,1227.5,588.3,533.8,1197.4,1092.1,3475.9,3480.7,868.8,1134.0,442.7,3496.6,780.3,831.9,3488.0,3468.6,393.4,615.7,404.3,602.8,254.6,251.5,3490.5,3472.2,608.4,482.2,698.7,1085.1,1277.4,467.1,0.0,1.0,-2.0,16016.0,1505.0,3110.0,0.0,0.0,1.0,0.0,2.0,2.0,22.0,16318.0,1457.0,-170.0,0.0,2.0,-1.0,1.0,1.0
2022-05-08 18:28:51.942538-07:00,882.3,906.7,1588.9,1227.5,585.1,533.8,1197.4,1092.1,3478.3,3477.1,864.6,1134.0,435.7,3496.6,780.3,831.9,3488.0,3468.6,393.4,610.8,404.3,599.6,250.0,253.8,3490.5,3472.2,608.4,486.9,698.7,1084.2,1281.9,467.9,0.0,0.0,0.0,16016.0,1505.0,3110.0,0.0,1.0,3.0,0.0,0.0,3.0,22.0,16318.0,1457.0,-170.0,0.0,0.0,-4.0,-2.0,1.0
2022-05-08 18:28:52.032323-07:00,882.3,906.7,1588.9,1223.9,585.1,541.0,1195.6,1093.8,3478.3,3477.1,864.6,1127.9,435.7,3507.5,785.2,832.7,3478.3,3484.4,388.7,610.8,405.1,599.6,250.0,253.8,3479.5,3472.2,604.4,486.9,701.1,1084.2,1281.9,467.9,0.0,-1.0,-2.0,16016.0,1505.0,3110.0,0.0,-2.0,2.0,-1.0,0.0,0.0,25.0,16318.0,1457.0,-170.0,0.0,1.0,0.0,0.0,1.0
2022-05-08 18:28:52.062432-07:00,885.6,903.4,1585.2,1223.9,588.3,541.0,1195.6,1093.8,3474.6,3483.2,872.1,1127.9,435.7,3507.5,785.2,832.7,3478.3,3484.4,388.7,612.5,405.1,604.4,250.0,253.1,3479.5,3472.2,604.4,484.5,701.1,1086.0,1277.4,468.7,0.0,-1.0,-2.0,16016.0,1505.0,3110.0,0.0,-1.0,-1.0,1.0,1.0,0.0,23.0,16318.0,1457.0,-170.0,0.0,2.0,1.0,-1.0,1.0
2022-05-08 18:28:52.122269-07:00,885.6,903.4,1585.2,1229.3,589.1,540.2,1203.5,1095.6,3474.6,3483.2,872.1,1133.1,438.0,3506.3,781.1,830.2,3479.5,3485.6,393.4,612.5,409.0,604.4,250.0,253.1,3475.9,3486.8,604.4,485.3,701.9,1086.0,1277.4,468.7,-2.0,0.0,-2.0,16016.0,1505.0,3110.0,0.0,0.0,-1.0,-3.0,0.0,1.0,24.0,16318.0,1457.0,-170.0,0.0,-1.0,0.0,-1.0,1.0
2022-05-08 18:28:52.182240-07:00,878.0,900.8,1588.9,1231.0,589.1,540.2,1203.5,1095.6,3477.1,3474.6,867.1,1133.1,438.0,3506.3,781.1,830.2,3479.5,3485.6,393.4,612.5,405.9,601.2,252.3,253.8,3475.9,3486.8,604.4,485.3,697.9,1083.4,1281.9,471.1,0.0,-2.0,-2.0,16016.0,1505.0,3110.0,0.0,0.0,-1.0,0.0,0.0,2.0,25.0,16318.0,1457.0,-170.0,0.0,0.0,1.0,-1.0,1.0
2022-05-08 18:28:52.362937-07:00,878.0,900.8,1588.9,1231.0,590.7,541.0,1200.9,1091.2,3477.1,3474.6,867.1,1133.1,435.7,3500.2,785.2,831.1,3483.2,3492.9,395.0,610.8,405.9,601.2,252.3,253.8,3474.6,3479.5,606.8,486.9,697.9,1083.4,1281.9,471.1,0.0,1.0,-2.0,16016.0,1505.0,3110.0,0.0,0.0,-1.0,-3.0,0.0,0.0,25.0,16318.0,1457.0,-170.0,0.0,1.0,0.0,0.0,1.0
2022-05-08 18:28:52.363790-07:00,883.1,905.9,1590.8,1231.9,590.7,541.0,1200.9,1091.2,3475.9,3472.2,864.6,1134.9,435.7,3500.2,785.2,831.1,3483.2,3492.9,395.0,610.8,408.2,604.4,255.3,254.6,3474.6,3479.5,606.8,486.9,700.3,1107.8,1277.4,471.1,0.0,2.0,0.0,16016.0,1505.0,3110.0,0.0,-1.0,1.0,0.0,-1.0,3.0,21.0,16318.0,1457.0,-170.0,0.0,0.0,0.0,-1.0,1.0
2022-05-08 18:28:52.422545-07:00,883.1,905.9,1590.8,1231.9,593.1,538.6,1196.5,1091.2,3475.9,3472.2,864.6,1134.9,435.7,3503.9,783.6,830.2,3478.3,3480.7,395.7,613.3,408.2,604.4,255.3,254.6,3477.1,3478.3,610.8,486.9,700.3,1107.8,1277.4,471.1,0.0,-1.0,2.0,16016.0,1505.0,3110.0,0.0,0.0,1.0,0.0,2.0,1.0,22.0,16318.0,1457.0,-170.0,0.0,0.0,-5.0,0.0,1.0
2022-05-08 18:28:52.542986-07:00,881.4,906.7,1591.7,1229.3,593.1,538.6,1196.5,1091.2,3475.9,3473.4,866.3,1128.7,435.7,3503.9,783.6,830.2,3478.3,3480.7,395.7,613.3,408.2,603.6,254.6,253.8,3477.1,3478.3,610.8,486.9,699.5,1085.1,1279.2,469.5,0.0,-1.0,-1.0,16016.0,1505.0,3110.0,0.0,-3.0,-1.0,1.0,1.0,2.0,22.0,16318.0,1457.0,-170.0,0.0,0.0,-3.0,-1.0,1.0
2022-05-08 18:28:52.544152-07:00,883.1,906.7,1591.7,1229.3,589.1,537.0,1202.7,1085.1,3475.9,3473.4,866.3,1128.7,434.1,3495.3,781.9,832.7,3479.5,3480.7,392.6,614.9,408.2,603.6,254.6,253.8,3483.2,3475.9,608.4,486.9,699.5,1085.1,1279.2,469.5,0.0,1.0,-2.0,16016.0,1505.0,3110.0,0.0,0.0,1.0,0.0,0.0,1.0,23.0,16318.0,1457.0,-170.0,0.0,3.0,2.0,-1.0,1.0
2022-05-08 18:28:52.545082-07:00,883.1,906.7,1591.7,1231.0,589.1,537.0,1202.7,1089.5,3474.6,3474.6,864.6,1129.6,434.1,3495.3,781.9,835.2,3478.3,3480.7,392.6,614.9,404.3,597.9,250.8,255.3,3474.6,3475.9,608.4,486.9,699.5,1083.4,1275.6,467.9,0.0,0.0,-3.0,16016.0,1505.0,3110.0,0.0,0.0,2.0,0.0,0.0,2.0,22.0,16318.0,1457.0,-170.0,0.0,1.0,2.0,0.0,1.0
2022-05-08 18:28:52.546956-07:00,879.7,906.7,1591.7,1231.0,585.1,536.2,1193.8,1089.5,3473.4,3474.6,864.6,1129.6,433.3,3497.8,781.9,835.2,3478.3,3483.2,394.2,609.2,404.3,597.9,250.8,253.1,3474.6,3481.9,606.8,481.4,699.5,1083.4,1275.6,467.1,0.0,0.0,-3.0,16016.0,1505.0,3110.0,0.0,0.0,-4.0,-1.0,1.0,3.0,22.0,16318.0,1457.0,-170.0,0.0,1.0,4.0,0.0,1.0
2022-05-08 18:28:52.602460-07:00,879.7,901.7,1586.1,1231.9,585.1,536.2,1193.8,1092.1,3473.4,3483.2,862.1,1133.1,433.3,3497.8,781.9,833.6,3481.9,3483.2,394.2,609.2,407.5,602.8,253.1,253.1,3479.5,3481.9,606.8,481.4,698.7,1087.7,1281.9,467.1,0.0,0.0,-2.0,16016.0,1505.0,3110.0,0.0,0.0,2.0,0.0,0.0,2.0,24.0,16318.0,1457.0,-170.0,0.0,2.0,-1.0,2.0,1.0
2022-05-08 18:28:52.603871-07:00,877.2,901.7,1586.1,1231.9,584.3,540.2,1203.5,1092.1,3475.9,3483.2,862.1,1133.1,434.1,3486.8,784.4,833.6,3481.9,3475.9,395.7,614.9,407.5,602.8,253.1,252.3,3479.5,3478.3,602.8,483.0,698.7,1087.7,1281.9,464.8,0.0,-1.0,-3.0,16016.0,1505.0,3110.0,0.0,-3.0,2.0,1.0,2.0,2.0,19.0,16318.0,1457.0,-170.0,0.0,-1.0,0.0,-2.0,1.0
2022-05-08 18:28:52.722157-07:00,877.2,911.0,1587.1,1228.4,584.3,540.2,1203.5,1093.8,3475.9,3471.0,865.4,1131.4,434.1,3486.8,784.4,836.9,3478.3,3475.9,395.7,614.9,408.2,602.0,254.6,252.3,3475.9,3478.3,602.8,483.0,700.3,1084.2,1279.2,464.8,0.0,-1.0,-2.0,16016.0,1505.0,3110.0,0.0,-3.0,0.0,0.0,0.0,2.0,23.0,16318.0,1457.0,-170.0,0.0,2.0,2.0,1.0,1.0
2022-05-08 18:28:52.723432-07:00,878.0,901.7,1587.1,1228.4,581.8,539.4,1202.7,1093.8,3478.3,3473.4,865.4,1131.4,434.9,3486.8,782.7,836.9,3478.3,3480.7,394.2,611.7,408.2,602.0,252.3,253.8,3475.9,3478.3,601.2,484.5,700.3,1084.2,1275.6,468.7,0.0,0.0,0.0,16016.0,1505.0,3110.0,0.0,-4.0,0.0,0.0,0.0,3.0,21.0,16318.0,1457.0,-170.0,0.0,1.0,2.0,1.0,1.0
2022-05-08 18:28:52.752554-07:00,878.0,901.7,1589.9,1230.2,581.8,539.4,1201.8,1092.1,3478.3,3473.4,861.2,1134.9,434.9,3486.8,781.1,833.6,3477.1,3473.4,394.2,611.7,408.2,600.4,252.3,253.8,3483.2,3474.6,601.2,484.5,698.7,1082.5,1275.6,468.7,0.0,2.0,0.0,16016.0,1505.0,3110.0,0.0,-1.0,0.0,0.0,1.0,2.0,24.0,16318.0,1457.0,-170.0,0.0,0.0,4.0,0.0,1.0
2022-05-08 18:28:52.812031-07:00,878.0,906.7,1589.9,1230.2,586.7,537.0,1201.8,1092.1,3464.9,3477.1,861.2,1134.9,433.3,3495.3,781.1,833.6,3477.1,3473.4,395.0,611.7,408.2,600.4,250.8,247.0,3483.2,3474.6,608.4,484.5,698.7,1082.5,1275.6,464.8,1.0,0.0,-2.0,16016.0,1505.0,3110.0,0.0,-2.0,2.0,0.0,0.0,2.0,21.0,16318.0,1457.0,-170.0,0.0,0.0,3.0,0.0,1.0
2022-05-08 18:28:52.871917-07:00,878.0,906.7,1589.9,1229.3,586.7,537.0,1196.5,1090.3,3464.9,3477.1,867.1,1132.2,433.3,3495.3,783.6,831.1,3480.7,3481.9,395.0,611.7,406.7,602.0,250.8,247.0,3480.7,3475.9,608.4,484.5,701.9,1084.2,1275.6,464.8,0.0,0.0,0.0,16016.0,1505.0,3110.0,0.0,-1.0,0.0,2.0,0.0,2.0,22.0,16318.0,1457.0,-170.0,0.0,1.0,-2.0,-1.0,1.0
2022-05-08 18:28:52.902024-07:00,885.6,901.7,1589.9,1229.3,589.1,538.6,1196.5,1090.3,3467.4,3477.1,867.1,1132.2,435.7,3495.3,783.6,831.1,3480.7,3481.9,395.7,613.3,406.7,602.0,252.3,252.3,3480.7,3475.9,609.2,485.3,701.9,1084.2,1273.9,468.7,0.0,3.0,0.0,16016.0,1505.0,3110.0,0.0,0.0,-3.0,0.0,0.0,0.0,24.0,16318.0,1457.0,-170.0,0.0,2.0,-5.0,1.0,1.0
2022-05-08 18:28:53.052175-07:00,885.6,901.7,1587.1,1226.6,589.1,538.6,1199.1,1092.9,3467.4,3477.1,863.7,1136.6,435.7,3495.3,781.9,830.2,3483.2,3483.2,395.7,613.3,405.9,601.2,252.3,252.3,3477.1,3474.6,609.2,485.3,700.3,1086.8,1273.9,468.7,0.0,0.0,0.0,16016.0,1505.0,3110.0,0.0,2.0,-3.0,0.0,0.0,1.0,24.0,16318.0,1457.0,-170.0,0.0,-2.0,2.0,0.0,1.0
2022-05-08 18:28:53.053686-07:00,883.9,898.3,1581.4,1226.6,586.7,537.0,1199.1,1092.9,3478.3,3474.6,865.4,1136.6,434.1,3501.4,781.9,830.2,3483.2,3483.2,391.1,611.7,405.9,602.0,250.8,251.5,3477.1,3474.6,605.2,489.3,700.3,1084.2,1273.9,466.4,0.0,1.0,0.0,16016.0,1505.0,3110.0,0.0,-1.0,0.0,-1.0,0.0,2.0,21.0,16318.0,1457.0,-170.0,0.0,0.0,-1.0,1.0,1.0
2022-05-08 18:28:53.054638-07:00,883.9,898.3,1581.4,1229.3,586.7,542.6,1199.1,1093.8,3478.3,3474.6,865.4,1138.4,434.1,3495.3,785.2,835.2,3475.9,3477.1,391.1,611.7,404.3,602.0,250.8,251.5,3488.0,3475.9,603.6,489.3,700.3,1084.2,1273.9,466.4,0.0,0.0,-1.0,16016.0,1505.0,3110.0,0.0,2.0,2.0,3.0,0.0,2.0,26.0,16318.0,1457.0,-170.0,0.0,1.0,3.0,0.0,1.0
2022-05-08 18:28:53.111878-07:00,882.3,902.5,1589.9,1229.3,589.9,542.6,1199.1,1093.8,3474.6,3475.9,868.8,1138.4,432.5,3495.3,785.2,835.2,3475.9,3477.1,391.1,611.7,404.3,602.8,251.5,250.0,3488.0,3475.9,603.6,485.3,700.3,1083.4,1276.5,470.3,0.0,-1.0,0.0,16016.0,1505.0,3110.0,0.0,2.0,-2.0,0.0,0.0,2.0,23.0,16318.0,1457.0,-170.0,0.0,2.0,-1.0,1.0,1.0
2022-05-08 18:28:53.142040-07:00,882.3,902.5,1589.9,1230.2,589.9,535.4,1195.6,1092.9,3474.6,3475.9,868.8,1134.9,432.5,3500.2,779.4,833.6,3477.1,3479.5,395.7,611.7,411.4,602.8,251.5,250.0,3480.7,3488.0,604.4,485.3,698.7,1083.4,1276.5,470.3,0.0,0.0,0.0,16016.0,1505.0,3110.0,0.0,0.0,-3.0,3.0,0.0,3.0,24.0,16318.0,1457.0,-170.0,0.0,0.0,-1.0,0.0,1.0
2022-05-08 18:28:53.202384-07:00,885.6,900.0,1589.9,1230.2,586.7,535.4,1195.6,1092.9,3479.5,3480.7,869.6,1134.9,435.7,3500.2,779.4,833.6,3477.1,3479.5,395.7,610.8,411.4,600.4,249.2,256.9,3480.7,3488.0,604.4,482.2,698.7,1086.0,1276.5,467.9,0.0,1.0,-1.0,16016.0,1505.0,3110.0,0.0,0.0,1.0,0.0,0.0,1.0,22.0,16318.0,1457.0,-170.0,0.0,-1.0,-2.0,-3.0,1.0
2022-05-08 18:28:53.262032-07:00,885.6,900.0,1589.9,1223.9,586.7,538.6,1200.0,1089.5,3479.5,3480.7,869.6,1130.5,435.7,3496.6,785.2,831.9,3480.7,3477.1,391.1,610.8,408.2,600.4,249.2,256.9,3479.5,3477.1,604.4,482.2,697.9,1086.0,1276.5,467.9,-1.0,0.0,-1.0,16016.0,1505.0,3110.0,0.0,1.0,5.0,-3.0,0.0,1.0,25.0,16318.0,1457.0,-170.0,0.0,-1.0,2.0,-1.0,1.0
2022-05-08 18:28:53.292155-07:00,881.4,900.8,1587.1,1225.7,589.9,538.6,1200.0,1089.5,3480.7,3472.2,868.8,1125.2,438.0,3496.6,785.2,831.9,3480.7,3477.1,391.1,613.3,409.0,603.6,256.9,250.0,3479.5,3477.1,604.4,486.9,701.9,1087.7,1274.7,467.1,0.0,0.0,-2.0,16016.0,1505.0,3110.0,0.0,0.0,1.0,0.0,-1.0,3.0,25.0,16318.0,1457.0,-170.0,0.0,-1.0,-1.0,-2.0,1.0
2022-05-08 18:28:53.352375-07:00,881.4,900.8,1587.1,1225.7,591.5,539.4,1200.0,1087.7,3480.7,3472.2,868.8,1125.2,431.7,3496.6,781.9,831.9,3474.6,3472.2,394.2,614.1,409.0,603.6,256.9,250.0,3483.2,3478.3,602.8,486.9,701.9,1087.7,1274.7,467.1,0.0,0.0,-1.0,16016.0,1505.0,3110.0,0.0,1.0,2.0,1.0,0.0,1.0,21.0,16318.0,1457.0,-170.0,0.0,-2.0,-1.0,-4.0,1.0
2022-05-08 18:28:53.412101-07:00,877.2,905.9,1584.2,1223.9,591.5,539.4,1200.0,1087.7,3478.3,3474.6,861.2,1132.2,431.7,3496.6,781.9,831.9,3474.6,3472.2,394.2,614.1,407.5,600.4,250.0,255.3,3483.2,3478.3,602.8,486.9,697.0,1081.6,1278.3,471.9,-1.0,2.0,0.0,16016.0,1505.0,3110.0,0.0,2.0,-1.0,0.0,2.0,3.0,23.0,16318.0,1457.0,-170.0,0.0,-1.0,-1.0,2.0,1.0
2022-05-08 18:28:53.472299-07:00,877.2,905.9,1584.2,1223.9,588.3,536.2,1196.5,1089.5,3478.3,3474.6,861.2,1132.2,434.9,3486.8,781.1,833.6,3475.9,3477.1,393.4,612.5,407.5,600.4,250.0,255.3,3467.4,3488.0,606.0,482.2,697.0,1081.6,1278.3,471.9,0.0,-1.0,-4.0,16016.0,1505.0,3110.0,0.0,0.0,-2.0,1.0,2.0,0.0,23.0,16318.0,1457.0,-170.0,0.0,2.0,-3.0,0.0,1.0
2022-05-08 18:28:53.502265-07:00,877.2,900.8,1593.6,1233.7,588.3,536.2,1196.5,1089.5,3473.4,3473.4,867.9,1136.6,434.9,3486.8,781.1,833.6,3475.9,3477.1,393.4,612.5,403.5,606.8,253.1,253.8,3467.4,3488.0,606.0,482.2,700.3,1086.0,1276.5,467.9,0.0,1.0,0.0,16016.0,1505.0,3110.0,0.0,1.0,-2.0,0.0,0.0,2.0,21.0,16318.0,1457.0,-170.0,0.0,0.0,0.0,0.0,1.0
2022-05-08 18:28:53.681939-07:00,877.2,900.8,1593.6,1233.7,589.1,544.2,1192.9,1092.9,3473.4,3473.4,867.9,1136.6,436.4,3494.1,786.1,831.9,3475.9,3475.9,393.4,612.5,403.5,606.8,253.1,253.8,3479.5,3478.3,602.8,481.4,700.3,1086.0,1276.5,467.9,0.0,2.0,-2.0,16016.0,1505.0,3110.0,0.0,-1.0,-3.0,0.0,1.0,1.0,23.0,16318.0,1457.0,-170.0,0.0,0.0,5.0,0.0,1.0
2022-05-08 18:28:53.712000-07:00,880.6,900.8,1589.9,1227.5,589.1,544.2,1192.9,1090.3,3480.7,3474.6,863.7,1134.9,436.4,3494.1,786.1,834.4,3478.3,3475.9,393.4,612.5,407.5,597.9,250.8,250.8,3474.6,3478.3,602.8,481.4,701.1,1082.5,1269.4,466.4,-1.0,-2.0,0.0,16016.0,1505.0,3110.0,0.0,0.0,-3.0,-1.0,1.0,-1.0,21.0,16318.0,1457.0,-170.0,0.0,2.0,1.0,1.0,1.0
2022-05-08 18:28:53.742971-07:00,883.9,900.8,1589.9,1227.5,585.9,537.8,1200.0,1090.3,3477.1,3474.6,863.7,1134.9,442.7,3499.0,781.1,834.4,3478.3,3478.3,392.6,608.4,407.5,597.9,250.8,250.0,3474.6,3484.4,604.4,488.5,701.1,1082.5,1269.4,466.4,0.0,0.0,-2.0,16016.0,1505.0,3110.0,0.0,1.0,0.0,-1.0,1.0,3.0,23.0,16318.0,1457.0,-170.0,0.0,1.0,0.0,-1.0,1.0
2022-05-08 18:28:53.744007-07:00,883.9,903.4,1589.9,1228.4,585.9,537.8,1200.0,1088.6,3477.1,3477.1,861.2,1125.2,442.7,3499.0,781.1,831.1,3480.7,3478.3,392.6,608.4,406.7,602.0,256.9,250.0,3475.9,3484.4,604.4,488.5,700.3,1081.6,1276.5,466.4,1.0,0.0,-2.0,16016.0,1505.0,3110.0,0.0,0.0,-3.0,2.0,0.0,2.0,21.0,16318.0,1457.0,-170.0,0.0,2.0,-1.0,1.0,1.0
2022-05-08 18:28:53.745120-07:00,879.7,903.4,1589.9,1228.4,589.9,541.0,1199.1,1088.6,3478.3,3477.1,861.2,1125.2,434.9,3491.7,774.5,831.1,3480.7,3478.3,390.3,610.8,406.7,602.0,256.9,253.1,3475.9,3469.8,609.2,479.8,700.3,1081.6,1276.5,465.6,0.0,0.0,-3.0,16016.0,1505.0,3110.0,0.0,0.0,-2.0,0.0,0.0,2.0,24.0,16318.0,1457.0,-170.0,0.0,1.0,-2.0,1.0,1.0
2022-05-08 18:28:53.802292-07:00,879.7,906.7,1586.1,1223.9,589.9,541.0,1199.1,1088.6,3478.3,3477.1,866.3,1133.1,434.9,3491.7,774.5,830.2,3477.1,3478.3,390.3,610.8,408.2,605.2,250.8,253.1,3481.9,3469.8,609.2,479.8,705.2,1086.0,1281.9,465.6,-2.0,-1.0,-2.0,16016.0,1505.0,3110.0,0.0,-2.0,-3.0,1.0,1.0,1.0,21.0,16318.0,1457.0,-170.0,0.0,-1.0,1.0,0.0,1.0
2022-05-08 18:28:53.862272-07:00,878.0,906.7,1586.1,1223.9,591.5,537.0,1201.8,1088.6,3480.7,3477.1,866.3,1133.1,433.3,3497.8,779.4,830.2,3477.1,3477.1,394.2,611.7,408.2,605.2,250.8,253.1,3481.9,3472.2,609.2,483.0,705.2,1086.0,1281.9,467.9,0.0,0.0,-2.0,16016.0,1505.0,3110.0,0.0,0.0,1.0,2.0,0.0,1.0,22.0,16318.0,1457.0,-170.0,0.0,0.0,5.0,0.0,1.0
2022-05-08 18:28:53.892929-07:00,878.0,906.7,1588.9,1229.3,591.5,537.0,1200.0,1087.7,3480.7,3474.6,864.6,1134.9,433.3,3497.8,781.9,830.2,3485.6,3480.7,394.2,611.7,406.7,602.8,252.3,253.1,3478.3,3474.6,609.2,483.0,700.3,1083.4,1276.5,467.9,0.0,0.0,-1.0,16016.0,1505.0,3110.0,0.0,2.0,0.0,1.0,0.0,1.0,25.0,16318.0,1457.0,-170.0,0.0,1.0,3.0,-2.0,1.0
2022-05-08 18:28:53.952064-07:00,881.4,906.7,1588.9,1229.3,585.1,543.4,1200.0,1087.7,3483.2,3475.9,864.6,1134.9,437.2,3503.9,781.9,830.2,3485.6,3480.7,391.8,616.5,406.7,602.8,253.1,255.3,3478.3,3474.6,606.8,484.5,700.3,1083.4,1275.6,468.7,0.0,0.0,0.0,16016.0,1505.0,3110.0,0.0,1.0,0.0,-1.0,0.0,2.0,23.0,16318.0,1457.0,-170.0,0.0,-2.0,1.0,-3.0,1.0
2022-05-08 18:28:54.223016-07:00,881.4,906.7,1585.2,1233.7,585.1,543.4,1197.4,1088.6,3483.2,3475.9,867.1,1132.2,437.2,3503.9,780.3,831.1,3483.2,3484.4,391.8,616.5,402.8,606.8,253.1,255.3,3486.8,3478.3,606.8,484.5,698.7,1091.2,1275.6,468.7,0.0,0.0,0.0,16016.0,1505.0,3110.0,0.0,0.0,2.0,0.0,0.0,0.0,22.0,16318.0,1457.0,-170.0,0.0,2.0,0.0,0.0,1.0
2022-05-08 18:28:54.372913-07:00,883.1,901.7,1585.2,1233.7,590.7,535.4,1197.4,1088.6,3474.6,3480.7,867.1,1132.2,436.4,3495.3,780.3,831.1,3483.2,3484.4,392.6,612.5,402.8,606.8,253.8,250.0,3486.8,3478.3,607.6,482.2,698.7,1091.2,1276.5,464.0,0.0,0.0,-4.0,16016.0,1505.0,3110.0,0.0,0.0,-2.0,0.0,1.0,3.0,24.0,16318.0,1457.0,-170.0,0.0,0.0,-3.0,1.0,1.0
2022-05-08 18:28:54.432341-07:00,883.1,901.7,1590.8,1233.7,590.7,535.4,1195.6,1098.2,3474.6,3480.7,867.9,1132.2,436.4,3495.3,781.1,829.4,3477.1,3472.2,392.6,612.5,404.3,602.0,253.8,250.0,3478.3,3474.6,607.6,482.2,704.4,1084.2,1276.5,464.0,0.0,0.0,-1.0,16016.0,1505.0,3110.0,0.0,0.0,-1.0,3.0,0.0,2.0,22.0,16318.0,1457.0,-170.0,0.0,0.0,-1.0,-2.0,1.0
2022-05-08 18:28:54.433719-07:00,878.9,901.7,1590.8,1233.7,584.3,537.0,1195.6,1098.2,3466.1,3471.0,867.9,1132.2,434.9,3495.3,781.1,829.4,3477.1,3472.2,390.3,611.7,404.3,602.0,252.3,249.2,3478.3,3474.6,610.0,479.8,704.4,1084.2,1281.9,466.4,0.0,2.0,-3.0,16016.0,1505.0,3110.0,0.0,2.0,-1.0,2.0,1.0,1.0,22.0,16318.0,1457.0,-170.0,0.0,-1.0,2.0,2.0,1.0
2022-05-08 18:28:54.434676-07:00,878.9,901.7,1585.2,1228.4,584.3,537.0,1195.6,1087.7,3466.1,3471.0,865.4,1134.0,434.9,3492.9,776.1,831.1,3481.9,3472.2,391.1,611.7,400.4,599.6,252.3,249.2,3480.7,3483.2,597.9,479.8,701.9,1087.7,1281.9,466.4,0.0,0.0,-1.0,16016.0,1505.0,3110.0,0.0,1.0,0.0,0.0,3.0,3.0,23.0,16318.0,1457.0,-170.0,0.0,-1.0,-1.0,0.0,1.0
2022-05-08 18:28:54.435269-07:00,878.9,901.7,1585.2,1228.4,584.3,537.0,1195.6,1087.7,3466.1,3471.0,865.4,1134.0,434.9,3492.9,776.1,831.1,3481.9,3472.2,391.1,611.7,400.4,599.6,252.3,249.2,3480.7,3483.2,597.9,479.8,701.9,1087.7,1281.9,466.4,0.0,0.0,-1.0,16016.0,1505.0,3110.0,0.0,1.0,0.0,0.0,3.0,3.0,23.0,16318.0,1457.0,-170.0,0.0,-1.0,-1.0,0.0,1.0
2022-05-08 18:28:54.436367-07:00,878.0,903.4,1582.4,1227.5,581.8,541.8,1195.6,1088.6,3471.0,3478.3,862.1,1134.0,430.9,3499.0,786.9,834.4,3477.1,3483.2,395.7,609.2,408.2,600.4,254.6,249.2,3483.2,3483.2,601.2,485.3,700.3,1083.4,1281.9,466.4,2.0,0.0,0.0,16016.0,1505.0,3110.0,0.0,1.0,2.0,0.0,1.0,0.0,24.0,16318.0,1457.0,-170.0,0.0,1.0,2.0,-2.0,1.0
2022-05-08 18:28:54.461961-07:00,878.0,903.4,1582.4,1227.5,581.8,541.8,1195.6,1088.6,3471.0,3478.3,862.1,1134.0,430.9,3499.0,786.9,834.4,3477.1,3483.2,395.7,609.2,408.2,600.4,254.6,249.2,3483.2,3483.2,601.2,485.3,700.3,1083.4,1281.9,466.4,2.0,0.0,0.0,16016.0,1505.0,3110.0,0.0,1.0,2.0,0.0,1.0,0.0,24.0,16318.0,1457.0,-170.0,0.0,1.0,2.0,-2.0,1.0
2022-05-08 18:28:54.463433-07:00,878.9,905.9,1581.4,1231.0,588.3,537.8,1195.6,1093.8,3483.2,3474.6,862.9,1131.4,435.7,3499.0,784.4,835.2,3477.1,3477.1,391.8,611.7,407.5,602.0,247.0,250.0,3484.4,3477.1,604.4,479.8,700.3,1091.2,1278.3,469.5,0.0,0.0,-1.0,16016.0,1505.0,3110.0,0.0,-1.0,-1.0,1.0,1.0,3.0,25.0,16318.0,1457.0,-170.0,0.0,-1.0,1.0,0.0,1.0
2022-05-08 18:28:54.522447-07:00,878.9,905.9,1581.4,1226.6,589.1,539.4,1198.2,1087.7,3483.2,3474.6,862.9,1130.5,438.8,3500.2,781.1,830.2,3478.3,3481.9,393.4,612.5,405.1,602.0,247.0,250.0,3474.6,3479.5,605.2,483.7,700.3,1091.2,1278.3,469.5,0.0,0.0,-2.0,16016.0,1505.0,3110.0,0.0,0.0,0.0,-2.0,0.0,0.0,21.0,16318.0,1457.0,-170.0,0.0,-2.0,-1.0,0.0,1.0
2022-05-08 18:28:54.552311-07:00,878.9,902.5,1582.4,1226.6,589.1,539.4,1198.2,1087.7,3472.2,3477.1,861.2,1131.4,438.8,3500.2,781.1,830.2,3478.3,3481.9,393.4,612.5,405.9,599.6,252.3,248.5,3474.6,3479.5,605.2,483.7,701.9,1087.7,1281.9,466.4,1.0,0.0,-1.0,16016.0,1505.0,3110.0,0.0,-1.0,0.0,1.0,1.0,3.0,21.0,16318.0,1457.0,-170.0,0.0,2.0,-1.0,0.0,1.0
2022-05-08 18:28:54.612488-07:00,878.9,902.5,1582.4,1226.6,590.7,533.8,1203.5,1094.7,3472.2,3477.1,861.2,1131.4,432.5,3503.9,781.1,830.2,3481.9,3477.1,392.6,606.8,405.9,599.6,252.3,248.5,3488.0,3477.1,604.4,483.7,701.9,1087.7,1281.9,466.4,0.0,0.0,-3.0,16016.0,1505.0,3110.0,0.0,1.0,0.0,-2.0,2.0,2.0,25.0,16318.0,1457.0,-170.0,0.0,-2.0,0.0,-2.0,1.0
2022-05-08 18:28:54.642966-07:00,879.7,902.5,1585.2,1227.5,590.7,533.8,1203.5,1094.7,3471.0,3474.6,857.9,1133.1,432.5,3503.9,781.1,830.2,3481.9,3477.1,392.6,606.8,404.3,604.4,256.9,254.6,3488.0,3477.1,604.4,483.7,701.1,1082.5,1275.6,464.8,0.0,2.0,0.0,16016.0,1505.0,3110.0,0.0,-1.0,-4.0,0.0,-1.0,3.0,22.0,16318.0,1457.0,-170.0,0.0,-3.0,-1.0,0.0,1.0
2022-05-08 18:28:54.702416-07:00,879.7,902.5,1585.2,1227.5,588.3,537.0,1198.2,1089.5,3471.0,3474.6,857.9,1133.1,432.5,3492.9,784.4,827.7,3478.3,3477.1,395.7,614.9,404.3,604.4,256.9,254.6,3483.2,3481.9,605.2,486.9,701.1,1082.5,1275.6,464.8,0.0,0.0,-1.0,16016.0,1505.0,3110.0,0.0,-1.0,-1.0,0.0,1.0,1.0,21.0,16318.0,1457.0,-170.0,0.0,0.0,2.0,-1.0,1.0
2022-05-08 18:28:54.792557-07:00,881.4,902.5,1588.0,1227.5,588.3,537.0,1198.2,1089.5,3480.7,3478.3,862.1,1129.6,432.5,3492.9,784.4,827.7,3478.3,3477.1,395.7,614.9,405.1,599.6,250.0,253.8,3483.2,3481.9,605.2,486.9,699.5,1086.8,1276.5,460.8,-1.0,0.0,0.0,16016.0,1505.0,3110.0,0.0,0.0,4.0,1.0,0.0,0.0,24.0,16318.0,1457.0,-170.0,0.0,-1.0,-3.0,0.0,1.0
2022-05-08 18:28:54.912574-07:00,888.2,902.5,1588.0,1227.5,587.5,536.2,1196.5,1089.5,3467.4,3478.3,862.1,1129.6,435.7,3497.8,776.9,834.4,3477.1,3480.7,388.7,614.9,405.1,599.6,250.0,256.9,3486.8,3479.5,605.2,485.3,699.5,1086.8,1276.5,470.3,0.0,1.0,0.0,16016.0,1505.0,3110.0,0.0,-3.0,0.0,-1.0,0.0,0.0,23.0,16318.0,1457.0,-170.0,0.0,1.0,0.0,2.0,1.0
2022-05-08 18:28:54.943305-07:00,888.2,904.2,1585.2,1227.5,587.5,536.2,1196.5,1089.5,3467.4,3481.9,864.6,1138.4,435.7,3497.8,776.9,832.7,3488.0,3480.7,388.7,614.9,406.7,602.8,249.2,256.9,3479.5,3479.5,605.2,485.3,698.7,1085.1,1278.3,470.3,1.0,0.0,-2.0,16016.0,1505.0,3110.0,0.0,-1.0,0.0,0.0,2.0,3.0,22.0,16318.0,1457.0,-170.0,0.0,-1.0,-1.0,0.0,1.0
2022-05-08 18:28:54.944665-07:00,887.3,904.2,1585.2,1227.5,585.1,541.0,1199.1,1089.5,3478.3,3481.9,864.6,1138.4,435.7,3494.1,781.9,832.7,3488.0,3477.1,393.4,611.7,406.7,602.8,249.2,250.8,3479.5,3488.0,604.4,502.8,698.7,1085.1,1278.3,471.1,0.0,-1.0,0.0,16016.0,1505.0,3110.0,0.0,-1.0,-1.0,-1.0,0.0,3.0,24.0,16318.0,1457.0,-170.0,0.0,-3.0,3.0,0.0,1.0
2022-05-08 18:28:54.945996-07:00,887.3,899.1,1589.9,1225.7,585.1,541.0,1199.1,1090.3,3478.3,3481.9,865.4,1131.4,435.7,3494.1,781.9,830.2,3478.3,3477.1,393.4,611.7,408.2,599.6,253.1,250.8,3478.3,3488.0,604.4,502.8,701.1,1084.2,1273.9,471.1,-2.0,0.0,-1.0,16016.0,1505.0,3110.0,0.0,2.0,-1.0,1.0,2.0,3.0,23.0,16318.0,1457.0,-170.0,0.0,1.0,0.0,0.0,1.0
2022-05-08 18:28:55.002408-07:00,878.0,899.1,1589.9,1225.7,594.7,534.6,1192.0,1090.3,3467.4,3481.9,865.4,1131.4,434.1,3491.7,778.6,830.2,3478.3,3475.9,393.4,609.2,408.2,599.6,253.1,253.1,3478.3,3477.1,599.6,471.1,701.1,1084.2,1273.9,467.1,0.0,0.0,-1.0,16016.0,1505.0,3110.0,0.0,0.0,1.0,2.0,0.0,2.0,21.0,16318.0,1457.0,-170.0,0.0,-1.0,2.0,-2.0,1.0
2022-05-08 18:28:55.032536-07:00,878.0,903.4,1585.2,1221.3,594.7,534.6,1192.0,1092.1,3467.4,3472.2,865.4,1133.1,434.1,3491.7,778.6,833.6,3474.6,3475.9,393.4,609.2,405.1,602.8,251.5,253.1,3485.6,3477.1,599.6,471.1,698.7,1083.4,1278.3,467.1,0.0,0.0,-2.0,16016.0,1505.0,3110.0,0.0,1.0,2.0,0.0,0.0,3.0,24.0,16318.0,1457.0,-170.0,0.0,2.0,0.0,-1.0,1.0
2022-05-08 18:28:55.092485-07:00,880.6,903.4,1585.2,1221.3,585.1,537.8,1197.4,1092.1,3471.0,3471.0,865.4,1133.1,435.7,3494.1,783.6,833.6,3474.6,3488.0,393.4,614.9,405.1,602.8,253.1,249.2,3485.6,3477.1,602.8,480.6,698.7,1083.4,1273.9,464.8,1.0,-1.0,-3.0,16016.0,1505.0,3110.0,0.0,1.0,-1.0,1.0,1.0,3.0,23.0,16318.0,1457.0,-170.0,0.0,1.0,0.0,-1.0,1.0
2022-05-08 18:28:55.212821-07:00,880.6,903.4,1591.7,1226.6,585.1,537.8,1192.9,1091.2,3471.0,3471.0,865.4,1128.7,435.7,3494.1,785.2,831.1,3477.1,3475.9,393.4,614.9,404.3,602.0,253.1,249.2,3480.7,3478.3,602.8,480.6,695.4,1091.2,1273.9,464.8,0.0,1.0,0.0,16016.0,1505.0,3110.0,0.0,0.0,-1.0,-2.0,0.0,2.0,24.0,16318.0,1457.0,-170.0,0.0,1.0,-1.0,-1.0,1.0
2022-05-08 18:28:55.213837-07:00,879.7,902.5,1591.7,1226.6,586.7,539.4,1192.9,1091.2,3478.3,3477.1,865.4,1128.7,439.6,3491.7,785.2,831.1,3477.1,3475.9,393.4,611.7,404.3,602.0,255.3,256.9,3480.7,3478.3,603.6,485.3,695.4,1091.2,1280.1,464.8,0.0,0.0,-2.0,16016.0,1505.0,3110.0,0.0,1.0,1.0,-1.0,0.0,3.0,23.0,16318.0,1457.0,-170.0,0.0,1.0,1.0,-1.0,1.0
2022-05-08 18:28:55.242453-07:00,879.7,902.5,1587.1,1228.4,586.7,539.4,1195.6,1092.9,3478.3,3477.1,865.4,1127.9,439.6,3491.7,780.3,836.1,3488.0,3479.5,393.4,611.7,402.8,601.2,255.3,256.9,3481.9,3481.9,603.6,485.3,697.0,1086.8,1280.1,464.8,0.0,0.0,-3.0,16016.0,1505.0,3110.0,0.0,0.0,1.0,1.0,0.0,2.0,23.0,16318.0,1457.0,-170.0,0.0,1.0,-2.0,0.0,1.0
2022-05-08 18:28:55.331990-07:00,877.2,901.7,1587.1,1228.4,590.7,545.8,1195.6,1092.9,3464.9,3472.2,865.4,1127.9,434.9,3503.9,780.3,836.1,3488.0,3479.5,391.8,613.3,402.8,601.2,251.5,256.9,3481.9,3481.9,605.2,484.5,697.0,1086.8,1277.4,465.6,0.0,0.0,-2.0,16016.0,1505.0,3110.0,0.0,0.0,-2.0,0.0,1.0,1.0,24.0,16318.0,1457.0,-170.0,0.0,1.0,2.0,0.0,1.0
2022-05-08 18:28:55.333212-07:00,877.2,901.7,1594.6,1223.9,590.7,545.8,1195.6,1089.5,3464.9,3472.2,867.1,1131.4,434.9,3503.9,781.9,828.5,3477.1,3475.9,391.8,613.3,407.5,603.6,251.5,256.9,3472.2,3485.6,605.2,484.5,701.9,1091.2,1277.4,465.6,1.0,2.0,-1.0,16016.0,1505.0,3110.0,0.0,2.0,3.0,-1.0,0.0,2.0,23.0,16318.0,1457.0,-170.0,0.0,0.0,-2.0,-2.0,1.0
2022-05-08 18:28:55.452932-07:00,880.6,899.1,1585.2,1223.9,590.7,536.2,1195.6,1089.5,3473.4,3472.2,864.6,1131.4,434.9,3507.5,781.9,828.5,3477.1,3475.9,391.8,614.9,407.5,605.2,255.3,249.2,3472.2,3485.6,601.2,479.8,701.9,1086.8,1276.5,470.3,0.0,1.0,-3.0,16016.0,1505.0,3110.0,0.0,1.0,-1.0,0.0,1.0,0.0,22.0,16318.0,1457.0,-170.0,0.0,0.0,3.0,0.0,1.0
2022-05-08 18:28:55.453948-07:00,880.6,899.1,1585.2,1225.7,590.7,536.2,1203.5,1088.6,3473.4,3472.2,864.6,1131.4,434.9,3492.9,782.7,830.2,3485.6,3477.1,394.2,614.9,406.7,605.2,255.3,249.2,3484.4,3484.4,606.0,479.8,697.0,1086.8,1276.5,470.3,0.0,-2.0,0.0,16016.0,1505.0,3110.0,0.0,-1.0,-2.0,1.0,0.0,0.0,25.0,16318.0,1457.0,-170.0,0.0,-1.0,-2.0,0.0,1.0
2022-05-08 18:28:55.482241-07:00,879.7,898.3,1585.2,1225.7,589.1,536.2,1203.5,1088.6,3480.7,3479.5,867.1,1131.4,438.0,3492.9,782.7,830.2,3485.6,3477.1,394.2,612.5,406.7,606.0,250.0,250.0,3484.4,3484.4,606.0,486.9,697.0,1086.0,1277.4,469.5,0.0,0.0,-2.0,16016.0,1505.0,3110.0,0.0,0.0,2.0,-2.0,1.0,3.0,23.0,16318.0,1457.0,-170.0,0.0,-1.0,-1.0,0.0,1.0
2022-05-08 18:28:55.602568-07:00,879.7,898.3,1585.2,1226.6,589.1,538.6,1200.0,1092.9,3480.7,3479.5,867.1,1129.6,438.0,3496.6,781.9,832.7,3488.0,3478.3,391.8,612.5,405.9,606.0,250.0,250.0,3480.7,3479.5,601.2,486.9,700.3,1086.0,1277.4,469.5,0.0,0.0,-3.0,16016.0,1505.0,3110.0,0.0,0.0,-3.0,1.0,0.0,2.0,21.0,16318.0,1457.0,-170.0,0.0,-4.0,2.0,0.0,1.0
2022-05-08 18:28:55.604053-07:00,878.9,901.7,1589.9,1226.6,586.7,538.6,1200.0,1092.9,3477.1,3473.4,863.7,1129.6,434.1,3496.6,781.9,832.7,3488.0,3478.3,391.8,614.9,405.9,601.2,252.3,251.5,3480.7,3479.5,601.2,483.0,700.3,1087.7,1273.0,471.1,-1.0,0.0,-2.0,16016.0,1505.0,3110.0,0.0,0.0,5.0,-1.0,1.0,1.0,23.0,16318.0,1457.0,-170.0,0.0,0.0,-2.0,-1.0,1.0
2022-05-08 18:28:55.692227-07:00,878.9,901.7,1589.9,1226.6,586.7,540.2,1199.1,1092.1,3477.1,3473.4,863.7,1133.1,434.1,3491.7,782.7,835.2,3483.2,3477.1,391.8,614.9,408.2,601.2,252.3,251.5,3489.2,3477.1,606.0,483.0,697.0,1087.7,1273.0,471.1,0.0,0.0,-3.0,16016.0,1505.0,3110.0,0.0,-1.0,1.0,1.0,1.0,3.0,23.0,16318.0,1457.0,-170.0,0.0,0.0,0.0,1.0,1.0
2022-05-08 18:28:55.693316-07:00,878.9,898.3,1589.9,1223.9,589.1,540.2,1199.1,1092.1,3472.2,3471.0,861.2,1128.7,434.9,3491.7,782.7,835.2,3483.2,3477.1,391.8,612.5,405.1,602.0,253.8,249.2,3489.2,3477.1,606.0,483.7,701.1,1081.6,1276.5,467.1,0.0,0.0,-3.0,16016.0,1505.0,3110.0,0.0,0.0,0.0,0.0,0.0,0.0,24.0,16318.0,1457.0,-170.0,0.0,0.0,-1.0,1.0,1.0
2022-05-08 18:28:55.752398-07:00,878.9,898.3,1589.9,1223.9,587.5,541.8,1195.6,1088.6,3472.2,3471.0,861.2,1128.7,434.9,3494.1,777.8,830.2,3475.9,3479.5,393.4,609.2,405.1,602.0,253.8,249.2,3485.6,3477.1,604.4,487.7,701.1,1081.6,1276.5,467.1,-1.0,1.0,-3.0,16016.0,1505.0,3110.0,0.0,-1.0,-1.0,1.0,3.0,1.0,22.0,16318.0,1457.0,-170.0,0.0,0.0,0.0,1.0,1.0
2022-05-08 18:28:55.782366-07:00,880.6,902.5,1584.2,1223.9,587.5,541.8,1195.6,1088.6,3474.6,3472.2,862.9,1132.2,434.9,3494.1,777.8,830.2,3475.9,3479.5,393.4,609.2,404.3,605.2,253.1,249.2,3485.6,3477.1,604.4,487.7,699.5,1091.2,1275.6,465.6,0.0,0.0,-1.0,16016.0,1505.0,3110.0,0.0,2.0,-3.0,3.0,0.0,1.0,23.0,16318.0,1457.0,-170.0,0.0,-3.0,1.0,1.0,1.0
2022-05-08 18:28:55.932049-07:00,880.6,902.5,1584.2,1223.9,589.1,537.8,1198.2,1090.3,3474.6,3472.2,862.9,1132.2,435.7,3500.2,782.7,831.1,3477.1,3481.9,395.0,618.9,404.3,605.2,253.1,249.2,3477.1,3481.9,605.2,486.9,699.5,1091.2,1275.6,465.6,0.0,-2.0,-3.0,16016.0,1505.0,3110.0,0.0,-2.0,1.0,1.0,1.0,2.0,23.0,16318.0,1457.0,-170.0,0.0,-4.0,-1.0,0.0,1.0
2022-05-08 18:28:55.933514-07:00,883.1,898.3,1586.1,1229.3,589.1,537.8,1198.2,1090.3,3468.6,3481.9,865.4,1133.1,435.7,3500.2,782.7,831.1,3477.1,3481.9,395.0,618.9,409.0,602.0,252.3,253.1,3477.1,3481.9,605.2,486.9,698.7,1089.5,1276.5,468.7,-1.0,0.0,-1.0,16016.0,1505.0,3110.0,0.0,0.0,1.0,2.0,1.0,1.0,24.0,16318.0,1457.0,-170.0,0.0,1.0,-3.0,1.0,1.0
2022-05-08 18:28:55.935206-07:00,883.1,898.3,1586.1,1229.3,586.7,538.6,1195.6,1094.7,3468.6,3481.9,865.4,1133.1,434.1,3507.5,779.4,831.1,3480.7,3472.2,392.6,614.1,409.0,602.0,252.3,253.1,3492.9,3478.3,616.5,489.3,698.7,1089.5,1276.5,468.7,0.0,2.0,0.0,16016.0,1505.0,3110.0,0.0,1.0,0.0,0.0,1.0,0.0,23.0,16318.0,1457.0,-170.0,0.0,0.0,2.0,-1.0,1.0
2022-05-08 18:28:55.992946-07:00,884.8,907.6,1585.2,1231.9,586.7,538.6,1195.6,1089.5,3480.7,3467.4,866.3,1134.0,434.1,3507.5,779.4,835.2,3479.5,3472.2,392.6,614.1,406.7,599.6,251.5,253.8,3474.6,3478.3,616.5,489.3,699.5,1083.4,1277.4,462.4,1.0,0.0,0.0,16016.0,1505.0,3110.0,0.0,0.0,-1.0,-2.0,1.0,2.0,21.0,16318.0,1457.0,-170.0,0.0,-1.0,1.0,0.0,1.0
2022-05-08 18:28:56.052242-07:00,879.7,907.6,1585.2,1231.9,585.9,544.2,1200.9,1089.5,3471.0,3467.4,866.3,1134.0,437.2,3497.8,781.1,835.2,3479.5,3479.5,396.5,607.6,406.7,599.6,251.5,256.9,3474.6,3480.7,603.6,486.9,699.5,1083.4,1277.4,463.2,0.0,2.0,-1.0,16016.0,1505.0,3110.0,0.0,-3.0,0.0,2.0,1.0,2.0,19.0,16318.0,1457.0,-170.0,0.0,-1.0,2.0,-1.0,1.0
2022-05-08 18:28:56.082062-07:00,879.7,904.2,1589.9,1228.4,585.9,544.2,1200.9,1089.5,3471.0,3479.5,861.2,1134.0,437.2,3497.8,781.1,833.6,3475.9,3479.5,396.5,607.6,408.2,602.0,252.3,256.9,3478.3,3480.7,603.6,486.9,699.5,1082.5,1275.6,463.2,0.0,0.0,0.0,16016.0,1505.0,3110.0,0.0,0.0,1.0,-2.0,0.0,3.0,23.0,16318.0,1457.0,-170.0,0.0,3.0,0.0,0.0,1.0
2022-05-08 18:28:56.202581-07:00,879.7,904.2,1589.9,1228.4,585.1,537.8,1195.6,1089.5,3481.9,3479.5,861.2,1134.0,435.7,3496.6,785.2,833.6,3475.9,3480.7,390.3,618.1,408.2,602.0,252.3,253.1,3478.3,3488.0,606.0,482.2,699.5,1082.5,1275.6,464.0,-1.0,0.0,-1.0,16016.0,1505.0,3110.0,0.0,2.0,0.0,0.0,1.0,3.0,22.0,16318.0,1457.0,-170.0,0.0,0.0,1.0,0.0,1.0
2022-05-08 18:28:56.292271-07:00,879.7,900.8,1589.9,1226.6,585.1,537.8,1195.6,1089.5,3481.9,3469.8,863.7,1129.6,435.7,3496.6,785.2,834.4,3479.5,3480.7,390.3,618.1,409.0,602.8,253.8,253.1,3478.3,3488.0,606.0,482.2,717.5,1081.6,1275.6,464.0,0.0,0.0,-2.0,16016.0,1505.0,3110.0,0.0,0.0,-1.0,1.0,1.0,1.0,26.0,16318.0,1457.0,-170.0,0.0,1.0,1.0,0.0,1.0
2022-05-08 18:28:56.293539-07:00,879.7,900.8,1589.9,1226.6,589.1,537.0,1195.6,1089.5,3477.1,3469.8,863.7,1129.6,435.7,3497.8,782.7,834.4,3479.5,3475.9,392.6,607.6,409.0,602.8,253.8,253.1,3478.3,3477.1,603.6,486.9,717.5,1081.6,1275.6,464.0,0.0,0.0,-3.0,16016.0,1505.0,3110.0,0.0,1.0,2.0,-2.0,1.0,0.0,21.0,16318.0,1457.0,-170.0,0.0,0.0,-1.0,0.0,1.0
2022-05-08 18:28:56.353033-07:00,879.7,909.3,1584.2,1225.7,589.1,537.0,1199.1,1090.3,3477.1,3475.9,862.9,1129.6,435.7,3497.8,781.1,833.6,3472.2,3478.3,392.6,607.6,409.0,603.6,250.8,253.1,3474.6,3485.6,603.6,486.9,697.0,1083.4,1279.2,464.0,1.0,2.0,0.0,16016.0,1505.0,3110.0,0.0,-1.0,1.0,0.0,0.0,3.0,21.0,16318.0,1457.0,-170.0,0.0,2.0,-1.0,2.0,1.0
2022-05-08 18:28:56.353988-07:00,879.7,905.9,1584.2,1225.7,585.1,539.4,1199.1,1090.3,3480.7,3471.0,862.9,1129.6,433.3,3501.4,781.1,833.6,3472.2,3478.3,389.5,614.1,409.0,603.6,253.1,253.8,3474.6,3485.6,600.4,482.2,697.0,1083.4,1273.9,466.4,0.0,0.0,0.0,16016.0,1505.0,3110.0,0.0,1.0,4.0,-1.0,0.0,2.0,21.0,16318.0,1457.0,-170.0,0.0,1.0,1.0,2.0,1.0
2022-05-08 18:28:56.502064-07:00,879.7,905.9,1582.4,1223.9,585.1,539.4,1192.0,1093.8,3480.7,3471.0,861.2,1127.9,433.3,3501.4,785.2,829.4,3467.4,3478.3,389.5,614.1,407.5,601.2,253.1,253.8,3462.5,3483.2,600.4,482.2,698.7,1082.5,1273.9,466.4,0.0,-1.0,0.0,16016.0,1505.0,3110.0,0.0,-1.0,0.0,-1.0,1.0,3.0,24.0,16318.0,1457.0,-170.0,0.0,0.0,-4.0,1.0,1.0
2022-05-08 18:28:56.532045-07:00,882.3,905.9,1582.4,1223.9,583.5,537.8,1192.0,1093.8,3467.4,3479.5,861.2,1127.9,436.4,3500.2,785.2,829.4,3467.4,3478.3,392.6,612.5,407.5,601.2,252.3,250.8,3462.5,3483.2,603.6,481.4,698.7,1082.5,1276.5,464.0,0.0,-1.0,0.0,16016.0,1505.0,3110.0,0.0,0.0,-2.0,0.0,0.0,0.0,22.0,16318.0,1457.0,-170.0,0.0,1.0,-3.0,0.0,1.0
2022-05-08 18:28:56.533533-07:00,882.3,905.9,1588.9,1222.2,583.5,537.8,1195.6,1087.7,3467.4,3479.5,862.1,1128.7,436.4,3500.2,783.6,827.7,3477.1,3474.6,392.6,612.5,405.9,601.2,252.3,250.8,3481.9,3479.5,603.6,481.4,699.5,1079.0,1276.5,464.0,0.0,-1.0,0.0,16016.0,1505.0,3110.0,0.0,0.0,-3.0,0.0,0.0,0.0,23.0,16318.0,1457.0,-170.0,0.0,-1.0,7.0,-1.0,1.0
2022-05-08 18:28:56.535131-07:00,880.6,902.5,1588.9,1222.2,589.1,538.6,1195.6,1087.7,3472.2,3478.3,862.1,1128.7,436.4,3484.4,783.6,827.7,3477.1,3474.6,390.3,613.3,405.9,601.2,247.0,250.0,3481.9,3479.5,606.8,486.9,699.5,1079.0,1275.6,483.0,0.0,-1.0,-2.0,16016.0,1505.0,3110.0,0.0,0.0,-2.0,3.0,1.0,4.0,21.0,16318.0,1457.0,-170.0,0.0,-1.0,2.0,2.0,1.0
2022-05-08 18:28:56.592132-07:00,880.6,902.5,1585.2,1228.4,589.1,537.0,1200.0,1090.3,3472.2,3478.3,865.4,1132.2,436.4,3492.9,779.4,831.9,3485.6,3478.3,393.4,613.3,403.5,600.4,247.0,250.0,3480.7,3475.9,606.0,486.9,698.7,1083.4,1275.6,483.0,0.0,0.0,0.0,16016.0,1505.0,3110.0,0.0,2.0,-2.0,1.0,0.0,2.0,23.0,16318.0,1457.0,-170.0,0.0,-2.0,1.0,-1.0,1.0
2022-05-08 18:28:56.652137-07:00,882.3,901.7,1581.4,1228.4,586.7,537.0,1200.0,1090.3,3477.1,3475.9,868.8,1132.2,435.7,3492.9,779.4,831.9,3485.6,3478.3,393.4,614.9,403.5,600.4,248.5,251.5,3480.7,3475.9,606.0,483.7,698.7,1083.4,1274.7,468.7,0.0,-1.0,-2.0,16016.0,1505.0,3110.0,0.0,1.0,1.0,2.0,0.0,2.0,21.0,16318.0,1457.0,-170.0,0.0,0.0,0.0,1.0,1.0
2022-05-08 18:28:56.682052-07:00,882.3,901.7,1581.4,1229.3,586.7,541.0,1200.9,1092.1,3477.1,3475.9,868.8,1128.7,435.7,3497.8,782.7,831.9,3483.2,3481.9,396.5,614.9,406.7,600.4,248.5,251.5,3480.7,3475.9,605.2,483.7,697.0,1083.4,1274.7,468.7,-1.0,0.0,-3.0,16016.0,1505.0,3110.0,0.0,-3.0,2.0,1.0,1.0,1.0,24.0,16318.0,1457.0,-170.0,0.0,1.0,3.0,0.0,1.0
2022-05-08 18:28:56.742370-07:00,878.9,909.3,1589.9,1229.3,581.8,541.0,1200.9,1092.1,3474.6,3478.3,862.1,1128.7,434.9,3497.8,782.7,831.9,3483.2,3481.9,396.5,611.7,406.7,602.0,250.8,250.0,3480.7,3475.9,605.2,483.7,697.0,1085.1,1278.3,466.4,0.0,0.0,-1.0,16016.0,1505.0,3110.0,0.0,4.0,-1.0,-2.0,2.0,1.0,22.0,16318.0,1457.0,-170.0,0.0,2.0,-1.0,1.0,1.0
2022-05-08 18:28:56.801993-07:00,878.9,909.3,1589.9,1223.9,581.8,538.6,1201.8,1087.7,3474.6,3478.3,862.1,1128.7,434.9,3492.9,776.9,826.9,3468.6,3481.9,390.3,611.7,405.9,602.0,250.8,250.0,3480.7,3474.6,602.8,483.7,697.0,1085.1,1278.3,466.4,-1.0,0.0,-2.0,16016.0,1505.0,3110.0,0.0,-1.0,-1.0,1.0,-1.0,2.0,26.0,16318.0,1457.0,-170.0,0.0,-1.0,1.0,-1.0,1.0
2022-05-08 18:28:56.832306-07:00,880.6,905.0,1585.2,1223.9,592.3,538.6,1201.8,1087.7,3474.6,3473.4,862.9,1132.2,438.0,3492.9,776.9,826.9,3468.6,3481.9,390.3,614.9,402.8,601.2,253.1,252.3,3480.7,3474.6,602.8,483.7,695.4,1083.4,1275.6,465.6,0.0,-1.0,1.0,16016.0,1505.0,3110.0,0.0,0.0,-3.0,0.0,0.0,0.0,24.0,16318.0,1457.0,-170.0,0.0,2.0,0.0,1.0,1.0
2022-05-08 18:28:56.923218-07:00,880.6,905.0,1585.2,1223.9,585.1,541.0,1195.6,1089.5,3474.6,3473.4,862.9,1132.2,435.7,3500.2,777.8,834.4,3475.9,3477.1,391.8,613.3,402.8,601.2,253.1,252.3,3488.0,3466.1,603.6,480.6,695.4,1083.4,1275.6,465.6,0.0,2.0,-2.0,16016.0,1505.0,3110.0,0.0,3.0,2.0,0.0,0.0,3.0,22.0,16318.0,1457.0,-170.0,0.0,1.0,1.0,1.0,1.0
2022-05-08 18:28:56.924561-07:00,883.1,904.2,1585.2,1228.4,585.1,541.0,1195.6,1089.5,3478.3,3475.9,863.7,1133.1,435.7,3500.2,777.8,834.4,3475.9,3477.1,391.8,613.3,409.8,594.7,251.5,256.9,3488.0,3466.1,603.6,480.6,700.3,1086.8,1278.3,467.1,0.0,0.0,-1.0,16016.0,1505.0,3110.0,0.0,0.0,0.0,-1.0,1.0,2.0,24.0,16318.0,1457.0,-170.0,0.0,2.0,0.0,1.0,1.0
2022-05-08 18:28:57.072031-07:00,883.1,904.2,1585.2,1228.4,585.1,535.4,1194.7,1092.9,3478.3,3475.9,863.7,1133.1,436.4,3500.2,777.8,831.9,3478.3,3485.6,388.7,609.2,409.8,594.7,251.5,256.9,3478.3,3475.9,604.4,483.0,700.3,1086.8,1278.3,467.1,0.0,1.0,-1.0,16016.0,1505.0,3110.0,0.0,2.0,-2.0,0.0,0.0,1.0,22.0,16318.0,1457.0,-170.0,0.0,0.0,2.0,1.0,1.0
2022-05-08 18:28:57.073439-07:00,876.4,903.4,1589.9,1227.5,585.1,535.4,1194.7,1092.9,3477.1,3480.7,861.2,1134.0,436.4,3500.2,777.8,831.9,3478.3,3485.6,388.7,609.2,408.2,608.4,253.1,250.0,3478.3,3475.9,604.4,483.0,697.0,1072.9,1273.0,469.5,1.0,-1.0,-2.0,16016.0,1505.0,3110.0,0.0,1.0,-2.0,-1.0,0.0,-1.0,23.0,16318.0,1457.0,-170.0,0.0,0.0,-1.0,2.0,1.0
2022-05-08 18:28:57.075196-07:00,876.4,903.4,1589.9,1227.5,583.5,541.0,1192.0,1089.5,3477.1,3480.7,861.2,1134.0,435.7,3491.7,780.3,831.9,3474.6,3475.9,392.6,614.9,408.2,608.4,253.1,250.0,3475.9,3474.6,606.0,486.9,697.0,1072.9,1273.0,469.5,0.0,0.0,0.0,16016.0,1505.0,3110.0,0.0,-2.0,-2.0,0.0,0.0,3.0,22.0,16318.0,1457.0,-170.0,0.0,-3.0,-1.0,-1.0,1.0
2022-05-08 18:28:57.132177-07:00,880.6,901.7,1588.0,1227.5,583.5,541.0,1192.0,1091.2,3472.2,3475.9,866.3,1127.0,435.7,3491.7,780.3,829.4,3484.4,3475.9,392.6,614.9,407.5,602.0,251.5,252.3,3483.2,3474.6,606.0,486.9,696.2,1079.9,1275.6,469.5,0.0,0.0,-1.0,16016.0,1505.0,3110.0,0.0,-2.0,-4.0,3.0,1.0,2.0,24.0,16318.0,1457.0,-170.0,0.0,0.0,-5.0,1.0,1.0
2022-05-08 18:28:57.192456-07:00,882.3,901.7,1588.0,1227.5,581.8,539.4,1195.6,1091.2,3473.4,3475.9,866.3,1127.0,434.1,3494.1,783.6,829.4,3484.4,3473.4,391.1,610.8,407.5,602.0,251.5,247.0,3483.2,3475.9,603.6,483.0,696.2,1079.9,1275.6,465.6,0.0,1.0,-1.0,16016.0,1505.0,3110.0,0.0,2.0,2.0,1.0,0.0,0.0,23.0,16318.0,1457.0,-170.0,0.0,1.0,0.0,1.0,1.0
2022-05-08 18:28:57.222453-07:00,882.3,902.5,1586.1,1231.9,581.8,539.4,1195.6,1086.8,3473.4,3471.0,865.4,1133.1,434.1,3494.1,783.6,831.9,3477.1,3473.4,391.1,610.8,402.8,602.8,253.1,247.0,3484.4,3475.9,603.6,483.0,700.3,1087.7,1279.2,465.6,0.0,0.0,0.0,16016.0,1505.0,3110.0,0.0,0.0,-1.0,0.0,0.0,1.0,23.0,16318.0,1457.0,-170.0,0.0,-1.0,-1.0,-1.0,1.0
2022-05-08 18:28:57.282420-07:00,880.6,902.5,1586.1,1231.9,589.1,540.2,1196.5,1086.8,3483.2,3471.0,865.4,1133.1,433.3,3496.6,785.2,831.9,3477.1,3480.7,395.0,609.2,402.8,602.8,253.1,250.8,3484.4,3474.6,605.2,479.8,700.3,1087.7,1279.2,470.3,0.0,0.0,-1.0,16016.0,1505.0,3110.0,0.0,0.0,1.0,0.0,0.0,2.0,22.0,16318.0,1457.0,-170.0,0.0,0.0,-1.0,0.0,1.0
2022-05-08 18:28:57.342441-07:00,880.6,901.7,1584.2,1220.4,589.1,540.2,1196.5,1094.7,3483.2,3481.9,862.9,1129.6,433.3,3496.6,785.2,831.1,3481.9,3480.7,395.0,609.2,404.3,602.0,252.3,250.8,3478.3,3474.6,605.2,479.8,693.8,1084.2,1272.1,470.3,0.0,-1.0,-3.0,16016.0,1505.0,3110.0,0.0,0.0,-1.0,1.0,-1.0,1.0,24.0,16318.0,1457.0,-170.0,0.0,0.0,-2.0,-1.0,1.0
2022-05-08 18:28:57.372507-07:00,878.9,901.7,1584.2,1220.4,585.9,536.2,1195.6,1094.7,3475.9,3481.9,862.9,1129.6,429.4,3497.8,780.3,831.1,3481.9,3480.7,390.3,609.2,404.3,602.0,252.3,256.9,3478.3,3479.5,606.8,486.9,693.8,1084.2,1272.1,465.6,0.0,0.0,-2.0,16016.0,1505.0,3110.0,0.0,-1.0,-2.0,0.0,1.0,3.0,24.0,16318.0,1457.0,-170.0,0.0,-2.0,3.0,0.0,1.0
2022-05-08 18:28:57.432549-07:00,878.9,905.9,1582.4,1230.2,585.9,536.2,1194.7,1091.2,3475.9,3479.5,862.9,1126.1,429.4,3497.8,777.8,831.1,3488.0,3474.6,390.3,609.2,407.5,601.2,251.5,256.9,3480.7,3483.2,606.8,486.9,697.0,1081.6,1276.5,465.6,0.0,0.0,-3.0,16016.0,1505.0,3110.0,0.0,-1.0,-6.0,1.0,0.0,1.0,26.0,16318.0,1457.0,-170.0,0.0,0.0,2.0,-1.0,1.0
2022-05-08 18:28:57.492782-07:00,882.3,908.4,1582.4,1230.2,584.3,539.4,1194.7,1091.2,3484.4,3472.2,862.9,1126.1,432.5,3499.0,777.8,831.1,3488.0,3474.6,395.7,613.3,407.5,601.2,254.6,255.3,3480.7,3483.2,601.2,482.2,697.0,1081.6,1272.1,464.0,0.0,0.0,-3.0,16016.0,1505.0,3110.0,0.0,-2.0,0.0,-1.0,1.0,1.0,21.0,16318.0,1457.0,-170.0,0.0,0.0,0.0,0.0,1.0
2022-05-08 18:28:57.522753-07:00,882.3,908.4,1580.5,1223.9,584.3,539.4,1198.2,1090.3,3484.4,3472.2,862.1,1127.0,432.5,3499.0,781.9,828.5,3478.3,3481.9,395.7,613.3,409.0,599.6,254.6,255.3,3480.7,3475.9,601.2,482.2,697.0,1085.1,1272.1,464.0,-1.0,0.0,2.0,16016.0,1505.0,3110.0,0.0,0.0,-1.0,0.0,0.0,0.0,25.0,16318.0,1457.0,-170.0,0.0,1.0,2.0,-2.0,1.0
2022-05-08 18:28:57.582385-07:00,874.7,903.4,1580.5,1223.9,589.1,542.6,1198.2,1090.3,3473.4,3473.4,862.1,1127.0,437.2,3491.7,781.9,828.5,3478.3,3481.9,396.5,614.1,409.0,599.6,252.3,252.3,3480.7,3475.9,605.2,481.4,697.0,1085.1,1277.4,465.6,0.0,0.0,0.0,16016.0,1505.0,3110.0,0.0,0.0,3.0,-2.0,0.0,3.0,19.0,16318.0,1457.0,-170.0,0.0,4.0,-1.0,0.0,1.0
2022-05-08 18:28:57.642333-07:00,874.7,903.4,1587.1,1227.5,589.1,542.6,1197.4,1098.2,3473.4,3473.4,861.2,1129.6,437.2,3491.7,780.3,831.1,3473.4,3480.7,396.5,614.1,411.4,601.2,252.3,252.3,3488.0,3481.9,605.2,481.4,696.2,1083.4,1277.4,465.6,-1.0,0.0,-1.0,16016.0,1505.0,3110.0,0.0,-1.0,-3.0,0.0,0.0,1.0,22.0,16318.0,1457.0,-170.0,0.0,1.0,0.0,1.0,1.0
2022-05-08 18:28:57.672504-07:00,882.3,900.8,1587.1,1227.5,587.5,539.4,1197.4,1098.2,3481.9,3472.2,861.2,1129.6,434.1,3497.8,780.3,831.1,3473.4,3480.7,390.3,610.0,411.4,601.2,255.3,253.1,3488.0,3481.9,599.6,485.3,696.2,1083.4,1277.4,463.2,0.0,0.0,0.0,16016.0,1505.0,3110.0,0.0,0.0,-2.0,-1.0,0.0,0.0,25.0,16318.0,1457.0,-170.0,0.0,1.0,2.0,0.0,1.0
2022-05-08 18:28:57.732450-07:00,882.3,900.8,1581.4,1229.3,587.5,537.0,1192.0,1090.3,3481.9,3472.2,862.1,1133.1,434.1,3492.9,779.4,830.2,3477.1,3478.3,391.8,610.0,409.8,602.8,255.3,253.1,3477.1,3478.3,608.4,485.3,697.0,1086.0,1277.4,463.2,0.0,0.0,-2.0,16016.0,1505.0,3110.0,0.0,-1.0,-2.0,-1.0,0.0,3.0,24.0,16318.0,1457.0,-170.0,0.0,0.0,2.0,1.0,1.0
2022-05-08 18:28:57.792357-07:00,877.2,902.5,1585.2,1229.3,589.1,537.0,1192.0,1090.3,3477.1,3485.6,861.2,1133.1,436.4,3492.9,779.4,830.2,3477.1,3478.3,391.8,609.2,409.8,601.2,253.8,254.6,3477.1,3478.3,608.4,483.7,697.0,1082.5,1278.3,465.6,0.0,0.0,-1.0,16016.0,1505.0,3110.0,0.0,-2.0,0.0,-1.0,0.0,2.0,22.0,16318.0,1457.0,-170.0,0.0,-2.0,-2.0,-1.0,1.0
2022-05-08 18:28:57.822504-07:00,877.2,902.5,1585.2,1227.5,589.1,537.0,1201.8,1092.1,3477.1,3485.6,861.2,1128.7,436.4,3502.7,781.1,833.6,3483.2,3488.0,392.6,609.2,405.9,601.2,253.8,254.6,3477.1,3484.4,606.8,483.7,702.8,1082.5,1278.3,465.6,1.0,0.0,-3.0,16016.0,1505.0,3110.0,0.0,-2.0,-2.0,-1.0,0.0,1.0,23.0,16318.0,1457.0,-170.0,0.0,2.0,1.0,0.0,1.0
2022-05-08 18:28:57.882709-07:00,879.7,900.0,1587.1,1227.5,586.7,537.0,1201.8,1092.1,3475.9,3473.4,864.6,1128.7,437.2,3502.7,781.1,833.6,3483.2,3488.0,392.6,614.9,405.9,600.4,253.1,251.5,3477.1,3484.4,606.8,488.5,702.8,1086.0,1273.0,467.1,0.0,0.0,-2.0,16016.0,1505.0,3110.0,0.0,0.0,1.0,1.0,-1.0,0.0,24.0,16318.0,1457.0,-170.0,0.0,1.0,-2.0,2.0,1.0
2022-05-08 18:28:57.942412-07:00,879.7,900.0,1587.1,1225.7,586.7,539.4,1200.0,1093.8,3475.9,3473.4,864.6,1133.1,437.2,3502.7,781.9,831.1,3481.9,3478.3,391.8,614.9,407.5,600.4,253.1,251.5,3479.5,3475.9,609.2,488.5,703.6,1086.0,1273.0,467.1,0.0,0.0,-2.0,16016.0,1505.0,3110.0,0.0,1.0,-1.0,0.0,0.0,1.0,21.0,16318.0,1457.0,-170.0,0.0,1.0,-2.0,-1.0,1.0
2022-05-08 18:28:58.002393-07:00,878.9,902.5,1581.4,1225.7,585.1,539.4,1200.0,1093.8,3472.2,3474.6,861.2,1133.1,435.7,3502.7,781.9,831.1,3481.9,3478.3,391.8,608.4,407.5,602.0,248.5,251.5,3479.5,3475.9,609.2,487.7,703.6,1084.2,1270.3,467.9,1.0,1.0,0.0,16016.0,1505.0,3110.0,0.0,0.0,-1.0,-2.0,0.0,1.0,25.0,16318.0,1457.0,-170.0,0.0,-1.0,-2.0,0.0,1.0
2022-05-08 18:28:58.032465-07:00,878.9,902.5,1581.4,1225.7,582.6,538.6,1195.6,1091.2,3472.2,3474.6,861.2,1128.7,434.1,3496.6,780.3,833.6,3478.3,3479.5,394.2,612.5,405.9,602.0,248.5,251.5,3477.1,3490.5,600.4,482.2,696.2,1084.2,1270.3,467.9,0.0,1.0,-2.0,16016.0,1505.0,3110.0,0.0,2.0,1.0,0.0,0.0,3.0,24.0,16318.0,1457.0,-170.0,0.0,0.0,-2.0,1.0,1.0
2022-05-08 18:28:58.092505-07:00,878.9,898.3,1588.0,1231.9,582.6,538.6,1195.6,1091.2,3467.4,3468.6,865.4,1131.4,434.1,3496.6,780.3,833.6,3478.3,3479.5,394.2,612.5,407.5,600.4,254.6,251.5,3477.1,3490.5,600.4,482.2,696.2,1085.1,1274.7,467.1,0.0,0.0,-1.0,16016.0,1505.0,3110.0,0.0,0.0,-1.0,-1.0,0.0,2.0,23.0,16318.0,1457.0,-170.0,0.0,1.0,0.0,1.0,1.0
2022-05-08 18:28:58.154505-07:00,878.9,898.3,1588.0,1231.9,584.3,540.2,1196.5,1089.5,3467.4,3468.6,865.4,1131.4,438.8,3503.9,785.2,830.2,3479.5,3478.3,393.4,606.0,407.5,600.4,254.6,251.5,3488.0,3483.2,606.0,483.7,696.2,1085.1,1274.7,467.1,0.0,1.0,-3.0,16016.0,1505.0,3110.0,0.0,-1.0,3.0,-1.0,-1.0,1.0,23.0,16318.0,1457.0,-170.0,0.0,0.0,-1.0,1.0,1.0
2022-05-08 18:28:58.182204-07:00,879.7,901.7,1582.4,1227.5,584.3,540.2,1196.5,1089.5,3478.3,3479.5,862.1,1130.5,438.8,3503.9,785.2,830.2,3479.5,3478.3,393.4,606.0,404.3,605.2,250.0,253.8,3488.0,3483.2,606.0,483.7,700.3,1081.6,1275.6,467.1,0.0,0.0,-1.0,16016.0,1505.0,3110.0,0.0,1.0,0.0,-1.0,4.0,0.0,21.0,16318.0,1457.0,-170.0,0.0,0.0,1.0,0.0,1.0
2022-05-08 18:28:58.242240-07:00,879.7,901.7,1582.4,1227.5,586.7,541.8,1201.8,1092.9,3478.3,3479.5,862.1,1130.5,435.7,3490.5,781.9,827.7,3483.2,3477.1,391.1,611.7,404.3,605.2,250.0,253.8,3484.4,3477.1,605.2,479.8,700.3,1081.6,1275.6,467.1,0.0,0.0,0.0,16016.0,1505.0,3110.0,0.0,0.0,-1.0,2.0,0.0,3.0,24.0,16318.0,1457.0,-170.0,0.0,-2.0,-2.0,-1.0,1.0
2022-05-08 18:28:58.272366-07:00,879.7,905.9,1584.2,1227.5,586.7,541.8,1201.8,1092.9,3475.9,3471.0,860.4,1125.2,435.7,3490.5,781.9,827.7,3483.2,3477.1,391.1,611.7,404.3,594.7,254.6,253.8,3484.4,3477.1,605.2,479.8,700.3,1085.1,1273.9,466.4,1.0,0.0,-2.0,16016.0,1505.0,3110.0,0.0,3.0,3.0,-3.0,0.0,2.0,25.0,16318.0,1457.0,-170.0,0.0,-3.0,-4.0,1.0,1.0
2022-05-08 18:28:58.362087-07:00,881.4,905.9,1584.2,1227.5,587.5,541.0,1195.6,1095.6,3469.8,3471.0,860.4,1125.2,436.4,3497.8,781.1,831.9,3478.3,3479.5,388.7,614.1,404.3,594.7,254.6,253.8,3477.1,3478.3,597.1,481.4,700.3,1085.1,1273.9,464.0,0.0,1.0,-3.0,16016.0,1505.0,3110.0,0.0,3.0,0.0,1.0,0.0,2.0,22.0,16318.0,1457.0,-170.0,0.0,0.0,0.0,0.0,1.0
2022-05-08 18:28:58.391962-07:00,881.4,900.0,1583.3,1231.9,587.5,541.0,1195.6,1089.5,3469.8,3473.4,868.8,1133.1,436.4,3497.8,781.1,828.5,3472.2,3479.5,388.7,614.1,401.2,602.0,250.0,253.8,3489.2,3478.3,597.1,481.4,696.2,1079.9,1278.3,464.0,0.0,2.0,0.0,16016.0,1505.0,3110.0,0.0,1.0,4.0,0.0,0.0,3.0,22.0,16318.0,1457.0,-170.0,0.0,0.0,0.0,-2.0,1.0
2022-05-08 18:28:58.422316-07:00,878.0,900.0,1583.3,1231.9,588.3,540.2,1193.8,1089.5,3474.6,3473.4,868.8,1133.1,434.9,3496.6,778.6,828.5,3472.2,3475.9,395.7,611.7,401.2,602.0,250.0,256.9,3489.2,3472.2,606.0,473.5,696.2,1079.9,1278.3,471.9,0.0,0.0,0.0,16016.0,1505.0,3110.0,0.0,-2.0,0.0,2.0,2.0,1.0,27.0,16318.0,1457.0,-170.0,0.0,3.0,0.0,2.0,1.0
2022-05-08 18:28:58.482151-07:00,878.0,899.1,1582.4,1223.9,588.3,540.2,1193.8,1094.7,3474.6,3472.2,863.7,1130.5,434.9,3496.6,778.6,831.1,3484.4,3475.9,395.7,611.7,403.5,603.6,250.0,256.9,3488.0,3472.2,606.0,473.5,699.5,1081.6,1273.9,471.9,-2.0,1.0,0.0,16016.0,1505.0,3110.0,0.0,-1.0,-4.0,1.0,0.0,1.0,22.0,16318.0,1457.0,-170.0,0.0,3.0,1.0,0.0,1.0
2022-05-08 18:28:58.542916-07:00,880.6,899.1,1582.4,1223.9,585.1,533.8,1201.8,1094.7,3477.1,3472.2,863.7,1130.5,432.5,3497.8,779.4,831.1,3484.4,3475.9,392.6,610.0,403.5,603.6,250.0,253.1,3488.0,3478.3,608.4,470.3,699.5,1081.6,1273.9,469.5,0.0,0.0,-2.0,16016.0,1505.0,3110.0,0.0,-2.0,0.0,0.0,-1.0,1.0,23.0,16318.0,1457.0,-170.0,0.0,2.0,2.0,0.0,1.0
2022-05-08 18:28:58.572208-07:00,880.6,902.5,1583.3,1222.2,585.1,533.8,1201.8,1091.2,3477.1,3469.8,862.1,1136.6,432.5,3497.8,779.4,831.9,3474.6,3475.9,392.6,610.0,411.4,605.2,253.1,253.1,3479.5,3478.3,608.4,470.3,697.9,1083.4,1274.7,469.5,0.0,1.0,0.0,16016.0,1505.0,3110.0,0.0,0.0,-1.0,0.0,0.0,2.0,25.0,16318.0,1457.0,-170.0,0.0,2.0,3.0,-1.0,1.0
2022-05-08 18:28:58.631942-07:00,883.1,900.0,1583.3,1222.2,586.7,534.6,1200.0,1091.2,3472.2,3480.7,862.1,1136.6,435.7,3499.0,781.1,831.9,3474.6,3478.3,395.0,612.5,411.4,605.2,252.3,250.8,3479.5,3478.3,602.8,491.7,697.9,1083.4,1275.6,466.4,0.0,0.0,0.0,16016.0,1505.0,3110.0,0.0,0.0,2.0,1.0,0.0,0.0,27.0,16318.0,1457.0,-170.0,0.0,0.0,-1.0,0.0,1.0
2022-05-08 18:28:58.692034-07:00,883.1,900.0,1584.2,1229.3,586.7,534.6,1199.1,1092.1,3472.2,3480.7,861.2,1133.1,435.7,3499.0,781.1,828.5,3479.5,3472.2,395.0,612.5,404.3,600.4,252.3,250.8,3488.0,3475.9,602.8,491.7,693.8,1086.8,1275.6,466.4,0.0,0.0,0.0,16016.0,1505.0,3110.0,0.0,1.0,-2.0,0.0,2.0,3.0,22.0,16318.0,1457.0,-170.0,0.0,2.0,-6.0,-2.0,1.0
2022-05-08 18:28:58.722422-07:00,882.3,902.5,1584.2,1229.3,582.6,538.6,1199.1,1092.1,3471.0,3477.1,861.2,1133.1,433.3,3488.0,781.1,828.5,3479.5,3472.2,391.8,607.6,404.3,600.4,252.3,254.6,3488.0,3475.9,601.2,487.7,693.8,1086.8,1278.3,468.7,0.0,-1.0,-2.0,16016.0,1505.0,3110.0,0.0,-1.0,1.0,0.0,2.0,1.0,21.0,16318.0,1457.0,-170.0,0.0,2.0,-6.0,2.0,1.0
2022-05-08 18:28:58.782033-07:00,882.3,902.5,1590.8,1223.0,582.6,538.6,1197.4,1089.5,3471.0,3477.1,867.1,1125.2,433.3,3488.0,779.4,829.4,3475.9,3467.4,391.8,607.6,406.7,597.9,252.3,254.6,3479.5,3478.3,601.2,487.7,699.5,1087.7,1278.3,468.7,0.0,0.0,-1.0,16016.0,1505.0,3110.0,0.0,-1.0,0.0,0.0,2.0,1.0,21.0,16318.0,1457.0,-170.0,0.0,-2.0,-2.0,1.0,1.0
2022-05-08 18:28:58.872351-07:00,881.4,900.8,1590.8,1223.0,585.1,537.8,1197.4,1089.5,3468.6,3467.4,867.1,1125.2,436.4,3494.1,779.4,829.4,3475.9,3467.4,393.4,609.2,406.7,597.9,256.9,252.3,3479.5,3478.3,605.2,479.8,699.5,1087.7,1277.4,464.8,0.0,3.0,-1.0,16016.0,1505.0,3110.0,0.0,1.0,-2.0,3.0,-1.0,1.0,23.0,16318.0,1457.0,-170.0,0.0,1.0,-2.0,0.0,1.0
2022-05-08 18:28:58.873707-07:00,881.4,900.8,1582.4,1231.0,585.1,537.8,1196.5,1089.5,3468.6,3467.4,859.5,1125.2,436.4,3494.1,780.3,826.0,3478.3,3483.2,393.4,609.2,406.7,602.0,256.9,252.3,3480.7,3480.7,605.2,479.8,695.4,1084.2,1277.4,464.8,0.0,0.0,-2.0,16016.0,1505.0,3110.0,0.0,-1.0,0.0,1.0,0.0,0.0,22.0,16318.0,1457.0,-170.0,0.0,1.0,0.0,1.0,1.0
2022-05-08 18:28:58.962388-07:00,879.7,897.4,1581.4,1231.0,585.9,536.2,1196.5,1089.5,3473.4,3462.5,864.6,1125.2,439.6,3497.8,780.3,826.0,3478.3,3483.2,394.2,610.8,406.7,605.2,248.5,250.8,3480.7,3480.7,602.8,488.5,695.4,1084.2,1275.6,449.8,0.0,0.0,-1.0,16016.0,1505.0,3110.0,0.0,-1.0,-2.0,-1.0,0.0,2.0,24.0,16318.0,1457.0,-170.0,0.0,-1.0,-3.0,-1.0,1.0
2022-05-08 18:28:58.992347-07:00,879.7,897.4,1581.4,1229.3,585.9,537.0,1198.2,1088.6,3473.4,3462.5,864.6,1131.4,439.6,3497.8,779.4,831.9,3478.3,3480.7,395.7,610.8,405.9,605.2,248.5,250.8,3475.9,3474.6,608.4,488.5,700.3,1084.2,1275.6,449.8,0.0,0.0,-4.0,16016.0,1505.0,3110.0,0.0,0.0,3.0,1.0,0.0,1.0,23.0,16318.0,1457.0,-170.0,0.0,1.0,1.0,-1.0,1.0
2022-05-08 18:28:59.022850-07:00,882.3,902.5,1585.2,1229.3,591.5,537.0,1198.2,1088.6,3477.1,3467.4,863.7,1131.4,436.4,3497.8,779.4,831.9,3478.3,3480.7,395.7,614.9,405.9,603.6,254.6,250.8,3475.9,3474.6,608.4,484.5,700.3,1090.3,1271.2,466.4,1.0,1.0,0.0,16016.0,1505.0,3110.0,0.0,0.0,-3.0,0.0,1.0,2.0,24.0,16318.0,1457.0,-170.0,0.0,0.0,2.0,0.0,1.0
2022-05-08 18:28:59.142282-07:00,882.3,902.5,1585.2,1223.9,591.5,537.0,1192.9,1086.0,3477.1,3467.4,863.7,1126.1,436.4,3497.8,780.3,829.4,3472.2,3479.5,395.7,614.9,406.7,603.6,254.6,250.8,3477.1,3481.9,605.2,484.5,697.9,1090.3,1271.2,466.4,0.0,0.0,-2.0,16016.0,1505.0,3110.0,0.0,-1.0,2.0,0.0,0.0,0.0,21.0,16318.0,1457.0,-170.0,0.0,1.0,1.0,-1.0,1.0
2022-05-08 18:28:59.172946-07:00,878.0,900.0,1581.4,1223.9,587.5,537.0,1192.9,1086.0,3466.1,3469.8,861.2,1126.1,434.9,3497.8,780.3,829.4,3472.2,3479.5,395.7,611.7,406.7,602.0,253.1,253.8,3477.1,3481.9,605.2,479.8,697.9,1084.2,1273.0,464.0,2.0,1.0,-1.0,16016.0,1505.0,3110.0,0.0,-1.0,-3.0,0.0,0.0,3.0,24.0,16318.0,1457.0,-170.0,0.0,-4.0,1.0,0.0,1.0
2022-05-08 18:28:59.174105-07:00,878.0,900.0,1581.4,1223.0,587.5,537.0,1199.1,1091.2,3466.1,3469.8,861.2,1127.9,434.9,3507.5,779.4,831.9,3483.2,3477.1,392.6,611.7,405.1,602.0,253.1,253.8,3479.5,3490.5,606.8,479.8,697.9,1084.2,1273.0,464.0,-2.0,1.0,-2.0,16016.0,1505.0,3110.0,0.0,-4.0,2.0,0.0,1.0,2.0,26.0,16318.0,1457.0,-170.0,0.0,3.0,1.0,0.0,1.0
2022-05-08 18:28:59.262415-07:00,876.4,900.8,1588.0,1223.0,593.1,537.0,1199.1,1091.2,3469.8,3473.4,862.9,1125.2,439.6,3507.5,779.4,831.9,3483.2,3477.1,392.6,612.5,406.7,602.0,253.1,252.3,3479.5,3490.5,606.8,490.9,702.8,1087.7,1273.0,466.4,0.0,-1.0,0.0,16016.0,1505.0,3110.0,0.0,2.0,-4.0,1.0,0.0,0.0,23.0,16318.0,1457.0,-170.0,0.0,0.0,0.0,1.0,1.0
2022-05-08 18:28:59.292215-07:00,876.4,900.8,1588.0,1223.0,589.1,541.8,1195.6,1090.3,3469.8,3473.4,862.9,1125.2,435.7,3497.8,778.6,829.4,3471.0,3479.5,391.8,610.0,406.7,602.0,253.1,252.3,3481.9,3469.8,606.8,484.5,702.8,1087.7,1273.0,466.4,0.0,1.0,0.0,16016.0,1505.0,3110.0,0.0,-1.0,-2.0,0.0,1.0,1.0,21.0,16318.0,1457.0,-170.0,0.0,0.0,-3.0,1.0,1.0
2022-05-08 18:28:59.322255-07:00,877.2,902.5,1579.6,1227.5,589.1,541.8,1195.6,1090.3,3483.2,3471.0,863.7,1134.0,435.7,3497.8,778.6,829.4,3471.0,3479.5,391.8,610.0,405.1,606.8,253.1,253.8,3481.9,3469.8,606.8,484.5,698.7,1085.1,1273.9,468.7,0.0,-1.0,-1.0,16016.0,1505.0,3110.0,0.0,-1.0,-2.0,-2.0,2.0,2.0,27.0,16318.0,1457.0,-170.0,0.0,-1.0,-3.0,1.0,1.0
2022-05-08 18:28:59.412322-07:00,877.2,902.5,1579.6,1227.5,592.3,540.2,1198.2,1091.2,3483.2,3471.0,863.7,1134.0,438.0,3497.8,777.8,835.2,3478.3,3477.1,391.8,609.2,405.1,606.8,253.1,253.8,3490.5,3480.7,605.2,481.4,698.7,1085.1,1273.9,468.7,0.0,0.0,-2.0,16016.0,1505.0,3110.0,0.0,0.0,1.0,-1.0,1.0,1.0,22.0,16318.0,1457.0,-170.0,0.0,0.0,-2.0,2.0,1.0
2022-05-08 18:28:59.442658-07:00,878.0,898.3,1586.1,1228.4,592.3,540.2,1198.2,1091.2,3472.2,3472.2,867.9,1133.1,438.0,3497.8,777.8,835.2,3478.3,3477.1,391.8,609.2,403.5,603.6,253.1,249.2,3490.5,3480.7,605.2,481.4,698.7,1082.5,1275.6,467.1,0.0,1.0,-1.0,16016.0,1505.0,3110.0,0.0,-1.0,3.0,1.0,1.0,2.0,24.0,16318.0,1457.0,-170.0,0.0,0.0,0.0,1.0,1.0
2022-05-08 18:28:59.472442-07:00,878.0,898.3,1586.1,1228.4,585.1,537.0,1200.0,1089.5,3472.2,3472.2,867.9,1133.1,433.3,3505.1,783.6,838.6,3488.0,3481.9,388.7,610.0,403.5,603.6,253.1,249.2,3467.4,3480.7,605.2,483.0,698.7,1082.5,1275.6,467.1,0.0,0.0,0.0,16016.0,1505.0,3110.0,0.0,-1.0,0.0,0.0,0.0,2.0,21.0,16318.0,1457.0,-170.0,0.0,0.0,-2.0,2.0,1.0
2022-05-08 18:28:59.593008-07:00,878.9,900.0,1581.4,1223.0,585.1,537.0,1200.0,1090.3,3478.3,3468.6,861.2,1128.7,433.3,3505.1,783.6,831.9,3478.3,3481.9,388.7,610.0,407.5,603.6,250.0,250.0,3480.7,3480.7,605.2,483.0,695.4,1086.0,1276.5,467.1,0.0,0.0,-4.0,16016.0,1505.0,3110.0,0.0,-2.0,0.0,2.0,0.0,3.0,20.0,16318.0,1457.0,-170.0,0.0,0.0,-3.0,1.0,1.0
2022-05-08 18:28:59.594149-07:00,879.7,900.0,1581.4,1223.0,583.5,537.0,1194.7,1090.3,3478.3,3468.6,861.2,1128.7,430.9,3494.1,776.9,831.9,3478.3,3480.7,390.3,612.5,407.5,603.6,250.0,256.9,3480.7,3480.7,601.2,484.5,695.4,1086.0,1276.5,465.6,1.0,0.0,-4.0,16016.0,1505.0,3110.0,0.0,-2.0,1.0,0.0,0.0,3.0,23.0,16318.0,1457.0,-170.0,0.0,-1.0,1.0,0.0,1.0
2022-05-08 18:28:59.622592-07:00,879.7,905.9,1585.2,1223.9,583.5,537.0,1194.7,1088.6,3478.3,3478.3,864.6,1133.1,430.9,3494.1,776.9,831.9,3479.5,3480.7,390.3,612.5,402.0,597.9,255.3,256.9,3475.9,3480.7,601.2,484.5,719.2,1084.2,1273.9,465.6,0.0,2.0,-1.0,16016.0,1505.0,3110.0,0.0,2.0,2.0,1.0,2.0,1.0,24.0,16318.0,1457.0,-170.0,0.0,2.0,0.0,-1.0,1.0
2022-05-08 18:28:59.682149-07:00,881.4,905.9,1585.2,1223.9,592.3,537.0,1200.0,1088.6,3469.8,3478.3,864.6,1133.1,430.9,3496.6,774.5,831.9,3479.5,3484.4,390.3,610.8,402.0,597.9,255.3,250.0,3475.9,3483.2,608.4,481.4,719.2,1084.2,1273.9,469.5,0.0,0.0,-3.0,16016.0,1505.0,3110.0,0.0,-2.0,-1.0,-2.0,1.0,2.0,24.0,16318.0,1457.0,-170.0,0.0,1.0,1.0,-2.0,1.0
2022-05-08 18:28:59.742415-07:00,881.4,899.1,1586.1,1228.4,592.3,537.0,1200.0,1087.7,3469.8,3473.4,865.4,1129.6,430.9,3496.6,774.5,832.7,3488.0,3484.4,390.3,610.8,403.5,606.8,255.3,250.0,3481.9,3483.2,608.4,481.4,693.8,1086.8,1275.6,469.5,0.0,0.0,-1.0,16016.0,1505.0,3110.0,0.0,1.0,2.0,-1.0,1.0,1.0,22.0,16318.0,1457.0,-170.0,0.0,-1.0,0.0,-1.0,1.0
2022-05-08 18:28:59.772049-07:00,881.4,899.1,1586.1,1228.4,585.9,545.8,1194.7,1087.7,3474.6,3473.4,865.4,1129.6,436.4,3497.8,783.6,832.7,3488.0,3481.9,394.2,614.9,403.5,606.8,255.3,256.9,3481.9,3477.1,601.2,490.9,693.8,1086.8,1275.6,464.0,0.0,-2.0,0.0,16016.0,1505.0,3110.0,0.0,0.0,3.0,-1.0,0.0,0.0,21.0,16318.0,1457.0,-170.0,0.0,2.0,-1.0,0.0,1.0
2022-05-08 18:28:59.832240-07:00,881.4,900.8,1579.6,1224.8,585.9,545.8,1197.4,1088.6,3474.6,3475.9,863.7,1134.0,436.4,3497.8,785.2,830.2,3483.2,3481.9,394.2,614.9,409.0,600.4,252.3,256.9,3477.1,3480.7,601.2,490.9,701.1,1086.0,1276.5,464.0,0.0,0.0,-1.0,16016.0,1505.0,3110.0,0.0,-2.0,2.0,-1.0,0.0,2.0,21.0,16318.0,1457.0,-170.0,0.0,2.0,-1.0,0.0,1.0
2022-05-08 18:28:59.892228-07:00,876.4,898.3,1579.6,1224.8,584.3,538.6,1197.4,1088.6,3473.4,3472.2,863.7,1134.0,431.7,3496.6,785.2,830.2,3483.2,3481.9,394.2,611.7,409.0,600.4,254.6,251.5,3477.1,3480.7,603.6,483.7,701.1,1086.0,1275.6,465.6,-2.0,1.0,-3.0,16016.0,1505.0,3110.0,0.0,-1.0,-2.0,1.0,2.0,2.0,21.0,16318.0,1457.0,-170.0,0.0,0.0,-4.0,-1.0,1.0
2022-05-08 18:28:59.922621-07:00,876.4,898.3,1589.9,1224.8,584.3,538.6,1194.7,1085.1,3473.4,3472.2,867.1,1128.7,431.7,3496.6,778.6,831.9,3477.1,3481.9,394.2,611.7,405.9,603.6,254.6,251.5,3477.1,3483.2,603.6,483.7,697.0,1086.0,1275.6,465.6,0.0,-1.0,-1.0,16016.0,1505.0,3110.0,0.0,-1.0,3.0,-1.0,0.0,2.0,25.0,16318.0,1457.0,-170.0,0.0,0.0,0.0,0.0,1.0
2022-05-08 18:28:59.983006-07:00,880.6,903.4,1589.9,1224.8,585.1,535.4,1194.7,1085.1,3480.7,3478.3,867.1,1128.7,439.6,3492.9,778.6,831.9,3477.1,3481.9,391.1,610.0,405.9,603.6,251.5,250.8,3477.1,3483.2,602.8,487.7,697.0,1086.0,1275.6,467.1,0.0,0.0,-1.0,16016.0,1505.0,3110.0,0.0,-2.0,2.0,2.0,0.0,2.0,24.0,16318.0,1457.0,-170.0,0.0,0.0,0.0,0.0,1.0
