Time,P0,P1,P2,P3,P4,P5,P6,P7,P8,P9,P10,P11,P12,P13,P14,P15,P16,P17,P18,P19,P20,P21,P22,P23,P24,P25,P26,P27,P28,P29,P30,P31,ECG,AX0,AY0,AZ0,QW0,QX0,QY0,QZ0,GX0,GY0,GZ0,AX1,AY1,AZ1,QW1,QX1,QY1,QZ1,GX1,GY1,GZ1
2022-05-08 18:25:10.978127-07:00,815.2,985.9,1254.2,933.0,703.6,452.2,1449.7,797.7,3478.3,3474.6,599.6,855.3,405.9,3492.9,789.4,719.2,3481.9,3467.4,392.6,545.8,399.6,491.7,233.3,225.7,3478.3,3479.5,556.2,437.2,749.6,986.7,1262.2,494.8,-14.0,-4.0,-2.0,10430.0,11138.0,5212.0,2907.0,-23.0,-13.0,12.0,-6.0,1.0,-17.0,11994.0,10943.0,2160.0,405.0,-14.0,-9.0,9.0,1.0
2022-05-08 18:25:10.979638-07:00,816.9,985.9,1254.2,933.0,705.2,449.8,1465.4,797.7,3467.4,3474.6,599.6,855.3,405.9,3492.9,795.2,719.2,3481.9,3481.9,391.8,547.4,399.6,491.7,233.3,240.1,3478.3,3481.9,569.8,433.3,749.6,986.7,1262.2,488.5,-1.0,0.0,4.0,10441.0,11133.0,5199.0,2908.0,-7.0,-29.0,11.0,9.0,3.0,-16.0,12001.0,10936.0,2153.0,404.0,-13.0,-18.0,8.0,1.0
2022-05-08 18:25:11.038050-07:00,816.9,991.0,1253.3,929.6,705.2,449.8,1465.4,796.9,3467.4,3473.4,597.9,851.1,405.9,3492.9,795.2,716.7,3469.8,3481.9,391.8,547.4,393.4,486.1,229.5,240.1,3473.4,3481.9,569.8,433.3,754.6,984.2,1264.0,488.5,-5.0,-1.0,4.0,10448.0,11131.0,5190.0,2904.0,-28.0,-20.0,11.0,7.0,5.0,-15.0,12008.0,10931.0,2145.0,400.0,-29.0,-20.0,10.0,1.0
2022-05-08 18:25:11.068549-07:00,815.2,985.9,1253.3,929.6,701.9,448.2,1447.9,796.9,3474.6,3472.2,597.9,851.1,407.5,3500.2,785.2,716.7,3469.8,3473.4,391.8,546.6,393.4,486.1,230.2,232.5,3473.4,3479.5,565.0,434.1,754.6,984.2,1260.4,490.9,-8.0,3.0,2.0,10456.0,11127.0,5183.0,2903.0,-16.0,-19.0,5.0,4.0,0.0,-14.0,12015.0,10924.0,2139.0,397.0,-18.0,-12.0,8.0,1.0
2022-05-08 18:25:11.158080-07:00,815.2,985.9,1253.3,948.3,701.9,448.2,1452.5,805.2,3474.6,3472.2,597.1,856.2,407.5,3500.2,790.2,718.4,3477.1,3474.6,391.8,546.6,402.0,484.5,230.2,232.5,3479.5,3472.2,565.0,434.1,749.6,989.3,1260.4,490.9,-6.0,-2.0,5.0,10461.0,11125.0,5179.0,2900.0,-9.0,-9.0,2.0,6.0,3.0,-13.0,12021.0,10919.0,2134.0,394.0,-19.0,-11.0,6.0,1.0
2022-05-08 18:25:11.188190-07:00,816.0,987.6,1253.3,948.3,703.6,455.3,1452.5,805.2,3478.3,3472.2,597.1,856.2,404.3,3486.8,790.2,718.4,3477.1,3474.6,391.1,549.8,402.0,484.5,225.7,227.2,3479.5,3472.2,562.6,436.4,749.6,989.3,1259.6,506.7,-10.0,-4.0,7.0,10466.0,11122.0,5176.0,2901.0,-15.0,-9.0,-2.0,0.0,0.0,-15.0,12027.0,10913.0,2132.0,395.0,-20.0,-11.0,7.0,1.0
2022-05-08 18:25:11.218472-07:00,816.0,987.6,1250.6,933.0,703.6,455.3,1454.3,806.0,3478.3,3472.2,596.3,852.0,404.3,3486.8,786.9,713.4,3467.4,3483.2,391.1,549.8,398.1,486.1,225.7,227.2,3471.0,3477.1,562.6,436.4,751.3,991.0,1259.6,506.7,-10.0,0.0,6.0,10468.0,11120.0,5176.0,2902.0,-14.0,4.0,-1.0,1.0,7.0,-9.0,12032.0,10908.0,2131.0,395.0,-20.0,-1.0,9.0,1.0
2022-05-08 18:25:11.278132-07:00,815.2,985.0,1250.6,933.0,701.9,449.8,1454.3,806.0,3471.0,3480.7,596.3,852.0,403.5,3495.3,786.9,713.4,3467.4,3483.2,392.6,552.2,398.1,486.1,233.3,231.7,3471.0,3477.1,567.4,433.3,751.3,991.0,1267.6,490.1,-11.0,-4.0,8.0,10470.0,11118.0,5176.0,2903.0,-11.0,10.0,-4.0,5.0,1.0,-8.0,12037.0,10902.0,2131.0,396.0,-17.0,-1.0,7.0,1.0
2022-05-08 18:25:11.338089-07:00,815.2,985.0,1254.2,928.8,701.9,449.8,1455.2,799.4,3471.0,3480.7,605.2,855.3,403.5,3495.3,788.6,711.8,3480.7,3475.9,392.6,552.2,400.4,493.2,233.3,231.7,3472.2,3467.4,567.4,433.3,745.5,985.9,1267.6,490.1,-12.0,3.0,8.0,10470.0,11116.0,5177.0,2905.0,0.0,14.0,2.0,0.0,4.0,-10.0,12038.0,10901.0,2131.0,396.0,-4.0,10.0,5.0,1.0
2022-05-08 18:25:11.398025-07:00,819.4,987.6,1253.3,928.8,704.4,454.5,1455.2,799.4,3467.4,3478.3,602.0,855.3,405.1,3497.8,788.6,711.8,3480.7,3475.9,391.1,547.4,400.4,494.0,230.2,231.7,3472.2,3467.4,563.4,434.9,745.5,986.7,1264.0,489.3,-17.0,-2.0,7.0,10465.0,11117.0,5183.0,2910.0,11.0,24.0,-5.0,0.0,4.0,-6.0,12037.0,10901.0,2133.0,398.0,5.0,10.0,-3.0,1.0
2022-05-08 18:25:11.428296-07:00,819.4,987.6,1253.3,924.5,704.4,452.2,1454.3,798.5,3467.4,3478.3,602.0,858.7,405.1,3499.0,787.7,718.4,3478.3,3478.3,390.3,547.4,398.1,494.0,230.2,231.7,3480.7,3483.2,562.6,434.9,753.8,986.7,1264.0,489.3,-12.0,4.0,5.0,10459.0,11120.0,5187.0,2911.0,37.0,8.0,4.0,0.0,3.0,-15.0,12032.0,10906.0,2134.0,398.0,21.0,6.0,-1.0,1.0
2022-05-08 18:25:11.488044-07:00,815.2,983.3,1257.8,924.5,705.2,452.2,1454.3,798.5,3467.4,3488.0,597.9,858.7,401.2,3499.0,787.7,718.4,3478.3,3478.3,390.3,552.2,398.1,485.3,225.7,229.5,3480.7,3483.2,562.6,441.2,753.8,985.0,1260.4,491.7,-13.0,-8.0,6.0,10452.0,11126.0,5189.0,2909.0,18.0,6.0,-5.0,-2.0,1.0,-14.0,12029.0,10910.0,2135.0,397.0,20.0,-3.0,-5.0,1.0
2022-05-08 18:25:11.518526-07:00,815.2,983.3,1257.8,929.6,705.2,449.8,1447.0,801.0,3467.4,3488.0,597.9,852.8,401.2,3497.8,788.6,718.4,3480.7,3471.0,391.8,552.2,395.0,485.3,225.7,229.5,3486.8,3484.4,570.6,441.2,750.5,985.0,1260.4,491.7,-11.0,0.0,5.0,10446.0,11132.0,5192.0,2907.0,12.0,5.0,1.0,0.0,1.0,-13.0,12023.0,10916.0,2135.0,395.0,20.0,3.0,-5.0,1.0
2022-05-08 18:25:11.577975-07:00,818.5,985.9,1253.3,929.6,701.1,449.8,1447.0,801.0,3471.0,3475.9,602.0,852.8,409.0,3497.8,788.6,718.4,3480.7,3471.0,391.8,546.6,395.0,490.1,229.5,233.3,3486.8,3484.4,570.6,434.9,750.5,990.2,1260.4,486.1,-10.0,-1.0,3.0,10437.0,11138.0,5197.0,2907.0,24.0,9.0,-6.0,1.0,1.0,-15.0,12017.0,10923.0,2136.0,394.0,14.0,0.0,-5.0,1.0
2022-05-08 18:25:11.638149-07:00,818.5,985.9,1253.3,926.2,701.1,450.6,1450.6,805.2,3471.0,3475.9,602.0,854.5,409.0,3494.1,785.2,719.2,3467.4,3474.6,389.5,546.6,399.6,490.1,229.5,233.3,3481.9,3472.2,565.8,434.9,750.5,990.2,1260.4,486.1,-13.0,0.0,-2.0,10434.0,11139.0,5199.0,2908.0,12.0,-2.0,3.0,-2.0,1.0,-18.0,12015.0,10926.0,2136.0,393.0,10.0,-7.0,-5.0,1.0
2022-05-08 18:25:11.668387-07:00,817.7,983.3,1245.3,933.0,706.9,450.6,1450.6,805.2,3473.4,3467.4,594.7,857.9,404.3,3494.1,785.2,719.2,3467.4,3474.6,389.5,548.2,405.1,491.7,224.2,228.7,3481.9,3472.2,565.8,434.1,752.9,989.3,1267.6,490.9,-13.0,-4.0,0.0,10433.0,11140.0,5199.0,2907.0,-5.0,-2.0,2.0,-1.0,3.0,-14.0,12014.0,10927.0,2133.0,391.0,-7.0,-9.0,3.0,1.0
2022-05-08 18:25:11.728714-07:00,817.7,983.3,1245.3,933.0,705.2,448.2,1450.6,798.5,3473.4,3467.4,594.7,857.9,403.5,3495.3,786.1,720.8,3483.2,3484.4,394.2,543.4,405.1,491.7,224.2,228.7,3477.1,3477.1,561.0,433.3,752.9,989.3,1267.6,490.9,-8.0,0.0,4.0,10434.0,11141.0,5197.0,2905.0,-5.0,-15.0,6.0,3.0,4.0,-16.0,12014.0,10927.0,2132.0,389.0,-4.0,-7.0,4.0,1.0
2022-05-08 18:25:11.788156-07:00,823.5,984.2,1259.6,923.7,705.2,448.2,1450.6,798.5,3469.8,3475.9,599.6,850.3,403.5,3495.3,786.1,720.8,3483.2,3484.4,394.2,543.4,398.9,489.3,230.2,230.2,3477.1,3477.1,561.0,433.3,748.0,987.6,1273.9,490.9,-7.0,-3.0,6.0,10437.0,11139.0,5195.0,2904.0,-12.0,-2.0,1.0,4.0,0.0,-18.0,12016.0,10925.0,2132.0,390.0,-11.0,-2.0,7.0,1.0
2022-05-08 18:25:11.818374-07:00,823.5,984.2,1259.6,923.7,715.1,449.0,1447.0,802.7,3469.8,3475.9,599.6,850.3,411.4,3491.7,786.9,711.0,3480.7,3474.6,387.2,547.4,398.9,489.3,230.2,230.2,3478.3,3477.1,565.8,436.4,748.0,987.6,1273.9,490.9,-7.0,0.0,2.0,10439.0,11137.0,5194.0,2906.0,-20.0,1.0,5.0,4.0,4.0,-19.0,12020.0,10921.0,2131.0,392.0,-24.0,-8.0,10.0,1.0
2022-05-08 18:25:11.878085-07:00,811.9,984.2,1253.3,932.2,715.1,449.0,1447.0,802.7,3467.4,3471.0,594.7,852.8,411.4,3491.7,786.9,711.0,3480.7,3474.6,387.2,547.4,399.6,479.8,230.2,232.5,3478.3,3477.1,565.8,436.4,754.6,975.6,1262.2,486.9,-16.0,-1.0,2.0,10446.0,11131.0,5192.0,2909.0,-18.0,-6.0,3.0,-6.0,4.0,-15.0,12027.0,10914.0,2129.0,395.0,-23.0,-7.0,11.0,1.0
2022-05-08 18:25:11.938223-07:00,818.5,984.2,1253.3,932.2,706.9,448.2,1453.4,796.9,3474.6,3471.0,594.7,852.8,408.2,3495.3,786.1,719.2,3488.0,3486.8,393.4,547.4,399.6,479.8,230.2,232.5,3477.1,3479.5,569.0,436.4,754.6,975.6,1262.2,489.3,-14.0,-1.0,3.0,10456.0,11124.0,5188.0,2911.0,-27.0,-23.0,3.0,3.0,5.0,-12.0,12036.0,10904.0,2125.0,394.0,-31.0,-10.0,8.0,1.0
2022-05-08 18:25:11.968275-07:00,818.5,984.2,1253.3,923.7,706.9,448.2,1453.4,801.9,3474.6,3469.8,602.8,852.0,408.2,3495.3,786.1,720.0,3479.5,3486.8,393.4,547.4,402.0,483.0,229.5,232.5,3478.3,3479.5,569.0,436.4,749.6,985.9,1257.8,489.3,-13.0,1.0,16.0,10464.0,11117.0,5185.0,2912.0,-21.0,-1.0,0.0,5.0,2.0,-5.0,12044.0,10896.0,2123.0,394.0,-19.0,-1.0,5.0,1.0
2022-05-08 18:25:12.057966-07:00,814.4,984.2,1253.3,923.7,707.7,449.8,1460.8,801.9,3467.4,3469.8,602.8,852.0,405.9,3485.6,782.7,720.0,3479.5,3474.6,391.1,550.6,402.0,483.0,229.5,231.0,3478.3,3478.3,566.6,429.4,749.6,985.9,1257.8,501.2,-15.0,-5.0,16.0,10465.0,11114.0,5188.0,2913.0,14.0,24.0,-5.0,2.0,1.0,-7.0,12044.0,10896.0,2125.0,395.0,11.0,14.0,0.0,1.0
2022-05-08 18:25:12.088798-07:00,814.4,987.6,1246.2,932.2,707.7,449.8,1460.8,805.2,3467.4,3467.4,597.9,850.3,405.9,3485.6,782.7,719.2,3472.2,3474.6,391.1,550.6,398.1,490.1,229.5,231.0,3477.1,3478.3,566.6,429.4,755.4,989.3,1261.3,501.2,-16.0,2.0,1.0,10456.0,11116.0,5200.0,2916.0,36.0,19.0,2.0,-2.0,6.0,-13.0,12036.0,10903.0,2130.0,399.0,34.0,16.0,-8.0,1.0
2022-05-08 18:25:12.118446-07:00,811.0,987.6,1246.2,932.2,697.9,447.4,1459.8,805.2,3469.8,3467.4,597.9,850.3,405.9,3489.2,791.9,719.2,3472.2,3475.9,393.4,546.6,398.1,490.1,229.5,226.4,3477.1,3483.2,566.6,434.9,755.4,989.3,1261.3,486.1,-16.0,-9.0,-6.0,10446.0,11122.0,5209.0,2914.0,26.0,15.0,6.0,-3.0,4.0,-18.0,12026.0,10913.0,2132.0,398.0,22.0,-2.0,0.0,1.0
2022-05-08 18:25:12.208062-07:00,811.0,985.9,1249.7,925.4,697.9,447.4,1459.8,801.9,3469.8,3475.9,598.7,857.0,405.9,3489.2,791.9,715.1,3469.8,3475.9,393.4,546.6,398.9,488.5,230.2,226.4,3480.7,3483.2,566.6,434.9,732.3,987.6,1259.6,486.1,-11.0,0.0,-4.0,10441.0,11128.0,5208.0,2907.0,16.0,-10.0,2.0,-1.0,4.0,-14.0,12018.0,10923.0,2130.0,393.0,12.0,-20.0,-2.0,1.0
2022-05-08 18:25:12.209205-07:00,815.2,985.0,1249.7,925.4,704.4,448.2,1455.2,801.9,3474.6,3474.6,598.7,857.0,405.9,3486.8,783.6,715.1,3469.8,3478.3,391.8,545.8,398.9,488.5,232.5,232.5,3480.7,3472.2,565.8,427.8,732.3,987.6,1255.1,494.8,-10.0,0.0,3.0,10443.0,11131.0,5204.0,2899.0,-4.0,-25.0,6.0,0.0,2.0,-12.0,12018.0,10925.0,2123.0,386.0,-4.0,-25.0,3.0,1.0
2022-05-08 18:25:12.268342-07:00,815.2,985.0,1255.1,928.8,704.4,448.2,1453.4,803.5,3474.6,3474.6,597.9,851.1,405.9,3486.8,785.2,711.0,3478.3,3477.1,391.8,545.8,398.1,490.1,232.5,232.5,3472.2,3479.5,565.8,427.8,752.1,986.7,1255.1,494.8,-8.0,-2.0,8.0,10449.0,11131.0,5198.0,2891.0,-4.0,-24.0,8.0,3.0,3.0,-9.0,12018.0,10926.0,2117.0,381.0,-5.0,-11.0,5.0,1.0
2022-05-08 18:25:12.327991-07:00,816.0,991.9,1255.1,928.8,705.2,451.4,1453.4,803.5,3473.4,3474.6,597.9,851.1,409.8,3491.7,785.2,711.0,3478.3,3477.1,390.3,549.8,398.1,490.1,229.5,224.9,3472.2,3479.5,564.2,430.9,752.1,986.7,1264.9,495.6,-8.0,-2.0,7.0,10451.0,11130.0,5196.0,2888.0,-4.0,-13.0,1.0,1.0,4.0,-12.0,12018.0,10926.0,2117.0,380.0,-7.0,-12.0,2.0,1.0
2022-05-08 18:25:12.358544-07:00,816.0,991.9,1248.8,923.7,705.2,451.4,1450.6,798.5,3473.4,3474.6,602.0,847.8,409.8,3491.7,790.2,715.9,3472.2,3479.5,390.3,549.8,398.1,489.3,229.5,224.9,3475.9,3473.4,564.2,430.9,751.3,985.0,1264.9,495.6,-12.0,-3.0,4.0,10455.0,11126.0,5195.0,2887.0,-16.0,0.0,5.0,1.0,1.0,-15.0,12020.0,10924.0,2116.0,381.0,-10.0,-3.0,7.0,1.0
2022-05-08 18:25:12.448090-07:00,812.7,988.5,1248.8,923.7,703.6,449.8,1450.6,798.5,3468.6,3478.3,602.0,847.8,406.7,3486.8,790.2,715.9,3472.2,3479.5,392.6,549.0,398.1,489.3,232.5,229.5,3475.9,3473.4,565.0,434.9,751.3,985.0,1264.0,490.9,-9.0,0.0,3.0,10456.0,11125.0,5195.0,2887.0,-1.0,-6.0,0.0,1.0,3.0,-15.0,12018.0,10926.0,2117.0,381.0,-8.0,-8.0,2.0,1.0
2022-05-08 18:25:12.508058-07:00,812.7,988.5,1245.3,929.6,703.6,449.8,1436.9,791.0,3468.6,3478.3,598.7,851.1,406.7,3486.8,785.2,716.7,3478.3,3480.7,392.6,549.0,405.1,487.7,232.5,229.5,3483.2,3467.4,565.0,434.9,748.0,982.5,1264.0,490.9,-13.0,-1.0,3.0,10460.0,11123.0,5194.0,2887.0,-12.0,-14.0,10.0,-3.0,5.0,-9.0,12021.0,10924.0,2113.0,378.0,-14.0,-11.0,6.0,1.0
2022-05-08 18:25:12.509574-07:00,813.5,982.5,1248.8,929.6,706.0,452.2,1436.9,791.0,3479.5,3473.4,599.6,851.1,404.3,3495.3,785.2,716.7,3478.3,3480.7,388.7,550.6,405.1,484.5,227.9,232.5,3483.2,3467.4,564.2,432.5,748.0,986.7,1261.3,490.1,-8.0,-2.0,7.0,10468.0,11119.0,5188.0,2883.0,-16.0,-18.0,3.0,5.0,1.0,-10.0,12024.0,10921.0,2109.0,376.0,-16.0,-18.0,6.0,1.0
2022-05-08 18:25:12.568376-07:00,813.5,982.5,1248.8,928.8,706.0,450.6,1455.2,799.4,3479.5,3473.4,599.6,847.8,404.3,3496.6,786.9,717.5,3480.7,3480.7,388.7,550.6,402.8,484.5,227.9,232.5,3475.9,3480.7,559.4,432.5,754.6,986.7,1261.3,490.1,-9.0,0.0,10.0,10473.0,11118.0,5181.0,2882.0,-13.0,-9.0,12.0,2.0,4.0,-9.0,12029.0,10917.0,2103.0,372.0,-16.0,-17.0,6.0,1.0
2022-05-08 18:25:12.657950-07:00,813.5,983.3,1245.3,928.8,699.5,450.6,1455.2,799.4,3478.3,3477.1,612.5,847.8,405.9,3496.6,786.9,717.5,3480.7,3480.7,388.7,548.2,402.8,486.1,230.2,231.0,3475.9,3480.7,559.4,427.8,754.6,990.2,1257.8,487.7,-5.0,23.0,9.0,10480.0,11114.0,5174.0,2886.0,-42.0,-10.0,29.0,-2.0,19.0,0.0,12037.0,10909.0,2097.0,369.0,-60.0,-18.0,-6.0,1.0
2022-05-08 18:25:12.659621-07:00,813.5,983.3,1245.3,928.8,699.5,450.6,1461.7,796.9,3478.3,3477.1,612.5,852.0,405.9,3496.6,784.4,714.2,3478.3,3477.1,391.1,548.2,400.4,486.1,230.2,231.0,3472.2,3475.9,567.4,427.8,751.3,990.2,1257.8,487.7,-9.0,-26.0,11.0,10517.0,11079.0,5164.0,2899.0,-20.0,-10.0,0.0,0.0,-10.0,-14.0,12055.0,10890.0,2094.0,364.0,-4.0,-12.0,-8.0,1.0
2022-05-08 18:25:12.718405-07:00,815.2,985.0,1253.3,928.8,703.6,450.6,1461.7,796.9,3488.0,3478.3,594.7,852.0,407.5,3496.6,784.4,714.2,3478.3,3477.1,391.1,545.8,400.4,490.9,227.9,227.9,3472.2,3475.9,567.4,428.6,751.3,987.6,1266.7,496.4,-8.0,13.0,6.0,10526.0,11075.0,5154.0,2903.0,-145.0,-16.0,2.0,1.0,7.0,-9.0,12069.0,10875.0,2090.0,362.0,-88.0,-17.0,-5.0,1.0
2022-05-08 18:25:12.778122-07:00,815.2,985.0,1253.3,927.1,703.6,455.3,1460.8,805.2,3488.0,3478.3,594.7,848.6,407.5,3500.2,784.4,712.6,3483.2,3480.7,395.7,545.8,400.4,490.9,227.9,227.9,3478.3,3474.6,565.8,428.6,754.6,987.6,1266.7,496.4,-13.0,12.0,9.0,10559.0,11046.0,5143.0,2910.0,37.0,-36.0,-17.0,-2.0,4.0,-8.0,12074.0,10870.0,2092.0,360.0,30.0,9.0,-15.0,1.0
2022-05-08 18:25:12.837863-07:00,816.9,984.2,1249.7,939.8,705.2,455.3,1460.8,805.2,3474.6,3475.9,595.5,855.3,409.8,3500.2,784.4,712.6,3483.2,3480.7,395.7,548.2,394.2,493.2,230.2,238.6,3478.3,3474.6,565.8,434.1,743.0,986.7,1264.9,494.8,-6.0,-4.0,16.0,10567.0,11043.0,5145.0,2890.0,-47.0,-8.0,-37.0,6.0,1.0,-20.0,12074.0,10869.0,2095.0,359.0,-36.0,5.0,-11.0,1.0
2022-05-08 18:25:12.868327-07:00,816.9,984.2,1249.7,939.8,701.1,449.8,1465.4,796.0,3474.6,3475.9,595.5,855.3,404.3,3502.7,784.4,719.2,3473.4,3480.7,392.6,549.8,394.2,493.2,230.2,238.6,3467.4,3478.3,565.8,438.0,743.0,986.7,1264.9,494.8,-9.0,-2.0,2.0,10574.0,11039.0,5147.0,2877.0,4.0,-14.0,-16.0,-1.0,2.0,-14.0,12073.0,10870.0,2096.0,359.0,7.0,0.0,4.0,1.0
2022-05-08 18:25:12.928699-07:00,814.4,985.0,1247.1,928.8,701.1,449.8,1465.4,796.0,3483.2,3474.6,594.7,858.7,404.3,3502.7,784.4,719.2,3473.4,3480.7,392.6,549.8,402.0,493.2,234.0,233.3,3467.4,3478.3,565.8,438.0,750.5,984.2,1260.4,493.2,-10.0,-1.0,5.0,10570.0,11043.0,5150.0,2871.0,26.0,-4.0,13.0,0.0,4.0,-4.0,12068.0,10875.0,2096.0,358.0,20.0,2.0,7.0,1.0
2022-05-08 18:25:13.018437-07:00,814.4,985.0,1247.1,928.8,702.8,453.0,1458.0,798.5,3483.2,3474.6,594.7,858.7,406.7,3495.3,787.7,715.9,3478.3,3477.1,393.4,545.8,402.0,493.2,234.0,233.3,3483.2,3484.4,568.2,434.1,750.5,984.2,1260.4,493.2,-11.0,-1.0,3.0,10571.0,11042.0,5151.0,2870.0,36.0,-1.0,3.0,4.0,2.0,-11.0,12069.0,10874.0,2096.0,359.0,17.0,4.0,0.0,1.0
2022-05-08 18:25:13.020979-07:00,810.2,990.2,1248.8,928.8,702.8,453.0,1458.0,798.5,3472.2,3480.7,602.0,849.5,406.7,3495.3,787.7,715.9,3478.3,3477.1,393.4,545.8,402.0,489.3,231.0,235.5,3483.2,3484.4,568.2,434.1,752.1,985.0,1256.0,494.0,-10.0,-13.0,3.0,10570.0,11041.0,5153.0,2870.0,-5.0,13.0,9.0,1.0,-1.0,-10.0,12068.0,10876.0,2097.0,359.0,-10.0,1.0,6.0,1.0
2022-05-08 18:25:13.078181-07:00,810.2,990.2,1248.8,928.8,700.3,450.6,1467.2,795.2,3472.2,3480.7,602.0,849.5,405.1,3497.8,791.0,713.4,3480.7,3474.6,393.4,545.8,402.0,489.3,231.0,235.5,3481.9,3478.3,572.2,431.7,752.1,985.0,1256.0,494.0,-10.0,0.0,0.0,10570.0,11041.0,5155.0,2871.0,11.0,-1.0,-9.0,-1.0,6.0,-13.0,12067.0,10876.0,2097.0,359.0,4.0,0.0,-2.0,1.0
2022-05-08 18:25:13.108027-07:00,814.4,991.0,1255.1,929.6,700.3,450.6,1467.2,801.9,3469.8,3471.0,601.2,852.0,405.1,3497.8,791.0,725.8,3477.1,3474.6,393.4,545.8,398.9,486.9,228.7,231.7,3478.3,3478.3,572.2,431.7,749.6,981.6,1258.7,493.2,-14.0,-2.0,0.0,10568.0,11041.0,5158.0,2872.0,7.0,9.0,19.0,1.0,-3.0,-7.0,12067.0,10877.0,2097.0,359.0,-2.0,-2.0,9.0,1.0
2022-05-08 18:25:13.197972-07:00,816.0,991.0,1255.1,929.6,698.7,452.2,1460.8,801.9,3467.4,3471.0,601.2,852.0,404.3,3484.4,790.2,725.8,3477.1,3475.9,389.5,541.8,398.9,486.9,228.7,225.7,3478.3,3483.2,566.6,434.9,749.6,981.6,1258.7,490.9,-8.0,-10.0,4.0,10570.0,11040.0,5157.0,2873.0,7.0,-3.0,-10.0,3.0,4.0,-8.0,12066.0,10877.0,2097.0,359.0,-3.0,-2.0,-4.0,1.0
2022-05-08 18:25:13.227994-07:00,816.0,990.2,1252.4,935.6,698.7,452.2,1460.8,801.9,3467.4,3477.1,601.2,855.3,404.3,3484.4,790.2,720.8,3479.5,3475.9,389.5,541.8,394.2,493.2,227.9,225.7,3479.5,3483.2,566.6,434.9,743.0,988.5,1250.6,490.9,-11.0,3.0,1.0,10567.0,11042.0,5159.0,2871.0,6.0,7.0,4.0,-3.0,6.0,-11.0,12065.0,10878.0,2097.0,359.0,-4.0,1.0,5.0,1.0
2022-05-08 18:25:13.258527-07:00,821.0,990.2,1252.4,935.6,706.0,453.0,1444.2,801.9,3479.5,3477.1,601.2,855.3,405.9,3494.1,782.7,720.8,3479.5,3474.6,391.8,549.0,394.2,493.2,227.9,225.7,3479.5,3472.2,569.8,430.2,743.0,988.5,1250.6,489.3,-15.0,8.0,4.0,10561.0,11048.0,5160.0,2868.0,40.0,7.0,5.0,1.0,10.0,-7.0,12062.0,10882.0,2097.0,358.0,23.0,6.0,7.0,1.0
2022-05-08 18:25:13.318269-07:00,821.0,982.5,1256.9,933.0,706.0,453.0,1444.2,798.5,3479.5,3474.6,595.5,852.8,405.9,3494.1,782.7,711.8,3483.2,3474.6,391.8,549.0,398.9,490.1,228.7,225.7,3483.2,3472.2,569.8,430.2,744.7,988.5,1261.3,489.3,-8.0,-2.0,5.0,10560.0,11049.0,5160.0,2867.0,-15.0,7.0,-1.0,1.0,0.0,-9.0,12061.0,10883.0,2097.0,358.0,-17.0,-4.0,-2.0,1.0
2022-05-08 18:25:13.408019-07:00,814.4,982.5,1256.9,933.0,701.1,450.6,1453.4,798.5,3469.8,3474.6,595.5,852.8,411.4,3497.8,784.4,711.8,3483.2,3481.9,392.6,549.0,398.9,490.1,228.7,232.5,3483.2,3484.4,566.6,435.7,744.7,988.5,1261.3,490.9,-13.0,-2.0,5.0,10563.0,11046.0,5157.0,2871.0,-6.0,-4.0,3.0,0.0,0.0,-12.0,12063.0,10881.0,2097.0,358.0,-7.0,-3.0,5.0,1.0
2022-05-08 18:25:13.409522-07:00,814.4,985.0,1261.3,926.2,701.1,450.6,1466.3,798.5,3469.8,3467.4,597.9,851.1,411.4,3497.8,787.7,719.2,3478.3,3475.9,392.6,549.0,398.9,487.7,227.9,232.5,3478.3,3483.2,566.6,435.7,752.9,985.9,1256.9,490.9,-7.0,-4.0,6.0,10560.0,11051.0,5157.0,2867.0,0.0,-9.0,-5.0,0.0,2.0,-8.0,12060.0,10884.0,2097.0,357.0,7.0,0.0,0.0,1.0
2022-05-08 18:25:13.468261-07:00,817.7,983.3,1261.3,926.2,706.0,448.2,1466.3,798.5,3474.6,3472.2,597.9,851.1,409.8,3486.8,787.7,719.2,3478.3,3475.9,394.2,547.4,398.9,487.7,231.7,226.4,3478.3,3483.2,569.8,430.9,752.9,985.9,1263.1,488.5,-12.0,2.0,2.0,10561.0,11049.0,5157.0,2868.0,-22.0,2.0,-4.0,0.0,2.0,-12.0,12061.0,10883.0,2097.0,357.0,-15.0,-1.0,-1.0,1.0
2022-05-08 18:25:13.527974-07:00,817.7,983.3,1248.8,927.9,706.0,448.2,1456.2,800.2,3474.6,3472.2,597.9,856.2,409.8,3486.8,785.2,719.2,3479.5,3472.2,394.2,547.4,398.9,490.9,231.7,226.4,3477.1,3484.4,569.8,430.9,748.0,985.9,1263.1,488.5,-11.0,0.0,3.0,10561.0,11049.0,5157.0,2868.0,19.0,3.0,5.0,0.0,2.0,-9.0,12063.0,10881.0,2097.0,358.0,8.0,-1.0,4.0,1.0
2022-05-08 18:25:13.558680-07:00,828.5,985.0,1248.8,927.9,701.1,454.5,1456.2,800.2,3467.4,3478.3,597.9,856.2,409.0,3507.5,785.2,719.2,3479.5,3472.2,389.5,547.4,398.9,490.9,231.0,231.0,3477.1,3484.4,566.6,432.5,748.0,985.9,1257.8,494.0,-9.0,0.0,2.0,10561.0,11049.0,5157.0,2868.0,-10.0,3.0,4.0,0.0,0.0,-12.0,12063.0,10881.0,2097.0,358.0,-7.0,-3.0,-2.0,1.0
2022-05-08 18:25:13.618874-07:00,828.5,985.0,1249.7,928.8,701.1,454.5,1444.2,795.2,3467.4,3478.3,599.6,851.1,409.0,3507.5,791.9,719.2,3481.9,3485.6,389.5,547.4,398.9,490.9,231.0,231.0,3484.4,3478.3,566.6,432.5,749.6,987.6,1257.8,494.0,-8.0,0.0,1.0,10563.0,11048.0,5156.0,2869.0,17.0,-1.0,4.0,0.0,3.0,-11.0,12065.0,10879.0,2097.0,358.0,7.0,-1.0,1.0,1.0
2022-05-08 18:25:13.678080-07:00,816.9,987.6,1249.7,928.8,700.3,453.7,1444.2,795.2,3471.0,3477.1,599.6,851.1,405.9,3491.7,791.9,719.2,3481.9,3485.6,395.7,551.4,398.9,490.9,231.0,225.7,3484.4,3478.3,570.6,434.1,749.6,987.6,1260.4,477.4,-6.0,-5.0,2.0,10562.0,11048.0,5156.0,2869.0,7.0,5.0,2.0,3.0,3.0,-12.0,12065.0,10879.0,2097.0,358.0,2.0,-5.0,2.0,1.0
2022-05-08 18:25:13.708045-07:00,816.9,987.6,1248.8,925.4,700.3,448.2,1454.3,795.2,3471.0,3477.1,597.9,855.3,405.9,3497.8,787.7,715.9,3479.5,3477.1,390.3,551.4,398.9,486.9,231.0,225.7,3480.7,3485.6,566.6,434.1,752.9,987.6,1260.4,477.4,-9.0,-2.0,1.0,10564.0,11046.0,5156.0,2870.0,-19.0,-4.0,-6.0,-1.0,4.0,-12.0,12067.0,10876.0,2096.0,359.0,-16.0,-2.0,1.0,1.0
2022-05-08 18:25:13.768209-07:00,813.5,988.5,1248.0,925.4,702.8,448.2,1454.3,795.2,3472.2,3477.1,596.3,855.3,404.3,3497.8,787.7,715.9,3479.5,3477.1,390.3,545.8,398.9,486.1,225.7,233.3,3480.7,3485.6,566.6,432.5,752.9,985.0,1258.7,490.1,-11.0,-2.0,2.0,10565.0,11046.0,5154.0,2871.0,-10.0,-7.0,12.0,-1.0,6.0,-13.0,12069.0,10875.0,2096.0,359.0,-10.0,-9.0,4.0,1.0
2022-05-08 18:25:13.827972-07:00,813.5,988.5,1248.0,939.0,702.8,451.4,1456.2,796.9,3472.2,3477.1,596.3,853.7,404.3,3497.8,786.9,715.9,3473.4,3468.6,385.6,545.8,399.6,486.1,225.7,233.3,3472.2,3477.1,567.4,432.5,749.6,985.0,1258.7,490.1,-12.0,0.0,-4.0,10574.0,11040.0,5147.0,2873.0,-46.0,-22.0,2.0,0.0,7.0,-17.0,12076.0,10867.0,2092.0,357.0,-42.0,-19.0,-3.0,1.0
2022-05-08 18:25:13.858510-07:00,813.5,983.3,1247.1,939.0,701.1,451.4,1456.2,796.9,3475.9,3475.9,598.7,853.7,409.0,3497.8,786.9,715.9,3473.4,3468.6,385.6,548.2,399.6,493.2,231.7,232.5,3472.2,3477.1,567.4,431.7,749.6,986.7,1259.6,489.3,-8.0,51.0,-39.0,10625.0,10999.0,5128.0,2874.0,-305.0,-85.0,-62.0,0.0,34.0,-9.0,12121.0,10820.0,2078.0,356.0,-314.0,-55.0,17.0,1.0
2022-05-08 18:25:13.978559-07:00,813.5,983.3,1247.1,934.7,701.1,460.0,1454.3,806.9,3475.9,3475.9,598.7,852.8,409.0,3499.0,788.6,720.8,3485.6,3478.3,391.1,548.2,398.9,493.2,231.7,232.5,3478.3,3479.5,569.0,431.7,752.9,986.7,1259.6,489.3,-28.0,108.0,-102.0,10870.0,10786.0,5075.0,2863.0,-1060.0,-277.0,-321.0,-23.0,35.0,-31.0,12320.0,10601.0,2038.0,370.0,-1041.0,-152.0,9.0,1.0
2022-05-08 18:25:14.008000-07:00,816.9,986.7,1252.4,934.7,700.3,460.0,1454.3,806.9,3467.4,3478.3,597.1,852.8,408.2,3499.0,788.6,720.8,3485.6,3478.3,391.1,552.2,398.9,493.2,224.9,227.2,3478.3,3479.5,569.0,436.4,752.9,989.3,1261.3,490.1,-29.0,12.0,-124.0,11347.0,10373.0,4943.0,2770.0,-1492.0,-737.0,-451.0,-6.0,17.0,-31.0,12680.0,10186.0,1938.0,363.0,-1390.0,-327.0,6.0,1.0
2022-05-08 18:25:14.011356-07:00,816.9,986.7,1252.4,937.3,701.9,456.9,1510.6,806.9,3467.4,3478.3,597.1,854.5,411.4,3502.7,785.2,720.0,3478.3,3478.3,388.7,543.4,402.0,493.2,224.9,227.2,3477.1,3472.2,585.9,442.7,753.8,989.3,1261.3,490.1,-33.0,-36.0,-81.0,11939.0,9870.0,4656.0,2606.0,-1598.0,-987.0,-398.0,-30.0,-6.0,-46.0,13120.0,9646.0,1770.0,353.0,-1594.0,-449.0,50.0,1.0
2022-05-08 18:25:14.068251-07:00,813.5,1013.3,1290.0,925.4,701.9,456.9,1510.6,806.9,3474.6,3474.6,602.0,854.5,411.4,3502.7,785.2,720.0,3478.3,3478.3,388.7,543.4,398.1,490.1,232.5,234.0,3477.1,3472.2,585.9,442.7,752.1,988.5,1259.6,494.8,-26.0,-48.0,-43.0,12453.0,9431.0,4314.0,2408.0,-1285.0,-1016.0,-263.0,-34.0,-4.0,-35.0,13503.0,9140.0,1572.0,299.0,-1290.0,-545.0,5.0,1.0
2022-05-08 18:25:14.128154-07:00,813.5,1013.3,1290.0,925.4,701.9,455.3,1549.7,809.4,3474.6,3474.6,602.0,854.5,402.8,3489.2,783.6,719.2,3475.9,3481.9,393.4,550.6,398.1,490.1,232.5,234.0,3481.9,3469.8,587.5,439.6,752.1,988.5,1259.6,494.8,-30.0,-53.0,20.0,12840.0,9082.0,3981.0,2288.0,-1090.0,-758.0,-37.0,-35.0,-8.0,-2.0,13791.0,8738.0,1358.0,207.0,-1079.0,-581.0,-6.0,1.0
2022-05-08 18:25:14.158846-07:00,818.5,1029.7,1293.6,924.5,701.9,455.3,1549.7,809.4,3467.4,3472.2,604.4,852.0,402.8,3489.2,783.6,719.2,3475.9,3481.9,393.4,550.6,396.5,491.7,232.5,229.5,3481.9,3469.8,587.5,439.6,748.8,991.0,1268.5,490.9,-32.0,-40.0,24.0,13182.0,8709.0,3707.0,2251.0,-1215.0,-561.0,-10.0,3.0,-17.0,6.0,14063.0,8327.0,1140.0,98.0,-1100.0,-584.0,-34.0,1.0
2022-05-08 18:25:14.218350-07:00,818.5,1029.7,1293.6,924.5,699.5,450.6,1590.8,828.5,3467.4,3472.2,604.4,852.0,405.9,3486.8,784.4,715.9,3478.3,3474.6,390.3,550.6,396.5,491.7,232.5,229.5,3477.1,3475.9,581.8,438.0,748.8,991.0,1268.5,490.9,47.0,-19.0,56.0,13495.0,8291.0,3472.0,2348.0,-1405.0,-10.0,315.0,35.0,40.0,-77.0,14282.0,7977.0,912.0,-41.0,-824.0,-738.0,-129.0,1.0
2022-05-08 18:25:14.278058-07:00,817.7,1032.3,1290.0,933.9,699.5,450.6,1590.8,828.5,3473.4,3471.0,602.0,849.5,405.9,3486.8,784.4,715.9,3478.3,3474.6,390.3,550.6,401.2,499.6,234.0,229.5,3477.1,3475.9,581.8,438.0,748.8,987.6,1304.3,489.3,-41.0,11.0,24.0,13768.0,7751.0,3414.0,2671.0,-1501.0,266.0,175.0,-27.0,-135.0,102.0,14426.0,7731.0,710.0,-190.0,-1113.0,-644.0,-24.0,1.0
2022-05-08 18:25:14.308136-07:00,889.0,1032.3,1290.0,933.9,701.9,450.6,1633.1,811.0,3471.0,3471.0,602.0,849.5,408.2,3497.8,795.2,711.8,3467.4,3483.2,386.4,553.8,401.2,499.6,234.0,230.2,3466.1,3478.3,578.6,442.7,748.8,987.6,1304.3,489.3,12.0,-11.0,40.0,13981.0,7355.0,3356.0,2758.0,-857.0,53.0,-45.0,11.0,39.0,-30.0,14600.0,7409.0,515.0,-325.0,-565.0,-516.0,-139.0,1.0
2022-05-08 18:25:14.368373-07:00,889.0,1001.3,1293.6,929.6,701.9,450.6,1633.1,826.0,3471.0,3477.1,600.4,852.0,408.2,3497.8,795.2,720.0,3480.7,3483.2,386.4,553.8,398.9,496.4,231.0,230.2,3480.7,3478.3,578.6,442.7,752.1,1000.5,1411.3,489.3,14.0,-52.0,17.0,14135.0,6964.0,3374.0,2960.0,-1133.0,439.0,222.0,32.0,-17.0,-4.0,14736.0,7140.0,324.0,-461.0,-890.0,-509.0,44.0,1.0
2022-05-08 18:25:14.488147-07:00,831.1,1001.3,1293.6,929.6,706.0,448.2,1634.1,826.0,3473.4,3477.1,600.4,852.0,408.2,3492.9,816.0,720.0,3480.7,3485.6,391.1,552.2,398.9,496.4,231.0,231.7,3480.7,3467.4,578.6,442.7,752.1,1000.5,1411.3,485.3,-22.0,10.0,34.0,14269.0,6628.0,3358.0,3100.0,-625.0,-5.0,-74.0,39.0,-25.0,43.0,14880.0,6836.0,160.0,-509.0,-525.0,-284.0,22.0,1.0
2022-05-08 18:25:14.518969-07:00,831.1,985.0,1298.1,934.7,706.0,448.2,1634.1,816.9,3473.4,3469.8,608.4,852.8,408.2,3492.9,816.0,720.8,3472.2,3485.6,391.1,552.2,398.1,498.0,228.7,231.7,3472.2,3467.4,578.6,442.7,751.3,1008.2,1592.7,485.3,44.0,29.0,24.0,14367.0,6390.0,3369.0,3140.0,-637.0,284.0,-5.0,25.0,69.0,-66.0,14964.0,6646.0,57.0,-572.0,-489.0,-297.0,-21.0,1.0
2022-05-08 18:25:14.520288-07:00,837.7,985.0,1298.1,934.7,707.7,447.4,1653.9,816.9,3475.9,3469.8,608.4,852.8,401.2,3491.7,850.3,720.8,3472.2,3472.2,388.7,550.6,398.1,498.0,228.7,233.3,3472.2,3477.1,569.0,434.9,751.3,1008.2,1592.7,489.3,7.0,4.0,28.0,14441.0,6088.0,3477.0,3277.0,-561.0,413.0,-62.0,-11.0,44.0,31.0,15063.0,6418.0,-42.0,-608.0,-259.0,-92.0,21.0,1.0
2022-05-08 18:25:14.668432-07:00,837.7,985.0,1302.5,933.0,707.7,447.4,1640.7,814.4,3475.9,3478.3,597.1,853.7,401.2,3491.7,913.5,729.0,3475.9,3469.8,388.7,550.6,399.6,497.2,230.2,233.3,3483.2,3486.8,569.0,434.9,788.6,1008.2,1701.4,489.3,-1.0,37.0,-13.0,14464.0,5954.0,3581.0,3310.0,-181.0,358.0,-28.0,4.0,29.0,-20.0,15084.0,6363.0,-66.0,-653.0,45.0,-76.0,-86.0,1.0
2022-05-08 18:25:14.669695-07:00,836.9,977.3,1302.5,933.0,706.0,447.4,1640.7,814.4,3464.9,3474.6,597.1,853.7,400.4,3499.0,913.5,729.0,3475.9,3469.8,388.7,552.2,399.6,497.2,228.7,231.0,3483.2,3486.8,576.2,433.3,788.6,1008.2,1731.1,508.3,-14.0,-24.0,26.0,14469.0,5807.0,3737.0,3374.0,-195.0,440.0,-129.0,12.0,-24.0,2.0,15088.0,6348.0,-77.0,-691.0,-25.0,-17.0,-61.0,1.0
2022-05-08 18:25:14.670864-07:00,836.9,977.3,1294.5,943.2,706.0,447.4,1621.8,811.0,3464.9,3474.6,601.2,858.7,400.4,3499.0,928.8,731.5,3488.0,3478.3,388.7,552.2,402.0,496.4,228.7,231.0,3477.1,3478.3,576.2,433.3,945.8,1025.4,1731.1,508.3,-16.0,-21.0,-70.0,14367.0,5862.0,3994.0,3424.0,685.0,574.0,87.0,38.0,-28.0,41.0,15049.0,6439.0,-35.0,-712.0,789.0,194.0,-207.0,1.0
2022-05-08 18:25:14.727946-07:00,833.6,982.5,1294.5,943.2,709.3,447.4,1621.8,811.0,3472.2,3474.6,601.2,858.7,411.4,3499.0,928.8,731.5,3488.0,3478.3,389.5,552.2,402.0,496.4,229.5,230.2,3477.1,3478.3,575.4,434.1,945.8,1025.4,1706.2,509.9,6.0,34.0,-47.0,14157.0,6153.0,4249.0,3478.0,923.0,669.0,185.0,-5.0,7.0,-37.0,14887.0,6802.0,78.0,-743.0,767.0,242.0,-160.0,1.0
2022-05-08 18:25:14.757979-07:00,833.6,982.5,1305.2,937.3,709.3,447.4,1591.7,826.9,3472.2,3474.6,599.6,852.0,411.4,3499.0,927.1,724.9,3477.1,3477.1,389.5,552.2,400.4,492.5,229.5,230.2,3483.2,3477.1,575.4,434.1,959.4,1025.4,1706.2,509.9,-72.0,-89.0,-6.0,13973.0,6357.0,4491.0,3551.0,755.0,254.0,208.0,5.0,-41.0,37.0,14776.0,7036.0,163.0,-753.0,859.0,209.0,-149.0,1.0
2022-05-08 18:25:14.878540-07:00,836.9,986.7,1305.2,937.3,724.1,452.2,1591.7,826.9,3473.4,3480.7,599.6,852.0,406.7,3490.5,927.1,724.9,3477.1,3477.1,395.7,558.6,400.4,492.5,231.0,233.3,3483.2,3477.1,581.0,432.5,959.4,1025.4,1659.6,500.4,65.0,70.0,37.0,13657.0,6880.0,4682.0,3559.0,1932.0,650.0,443.0,-7.0,77.0,-71.0,14517.0,7550.0,300.0,-774.0,1696.0,448.0,-261.0,1.0
2022-05-08 18:25:14.879536-07:00,836.9,986.7,1297.2,951.7,724.1,445.1,1562.7,841.1,3473.4,3480.7,601.2,853.7,406.7,3495.3,927.9,732.3,3472.2,3477.1,391.8,558.6,400.4,490.9,231.0,233.3,3478.3,3473.4,584.3,432.5,932.2,1071.2,1659.6,500.4,-103.0,22.0,-234.0,13258.0,7365.0,5014.0,3642.0,605.0,181.0,153.0,32.0,-19.0,72.0,14279.0,7984.0,456.0,-759.0,561.0,325.0,-15.0,1.0
2022-05-08 18:25:14.908092-07:00,836.1,984.2,1290.0,951.7,729.0,445.1,1562.7,841.1,3478.3,3467.4,597.9,853.7,406.7,3495.3,927.9,732.3,3472.2,3477.1,391.8,550.6,400.4,498.0,232.5,231.7,3478.3,3473.4,584.3,445.9,932.2,1053.0,1615.2,509.1,-41.0,-116.0,-228.0,13188.0,7671.0,4787.0,3572.0,933.0,-1428.0,729.0,-69.0,-49.0,-96.0,14218.0,8096.0,496.0,-695.0,438.0,71.0,144.0,1.0
2022-05-08 18:25:15.028686-07:00,836.1,984.2,1290.0,943.2,729.0,452.2,1542.2,902.5,3478.3,3467.4,597.9,849.5,406.7,3496.6,905.0,727.4,3481.9,3477.1,391.1,550.6,399.6,498.0,232.5,231.7,3474.6,3478.3,582.6,445.9,901.7,1053.0,1615.2,509.1,72.0,123.0,114.0,13064.0,8183.0,4432.0,3340.0,1049.0,-344.0,-319.0,34.0,5.0,-30.0,14056.0,8373.0,479.0,-725.0,814.0,-23.0,-247.0,1.0
2022-05-08 18:25:15.029564-07:00,1042.6,975.6,1324.1,943.2,727.4,452.2,1542.2,902.5,3471.0,3474.6,597.9,849.5,404.3,3496.6,905.0,727.4,3481.9,3477.1,391.1,551.4,399.6,492.5,231.7,234.0,3474.6,3478.3,582.6,450.6,901.7,1040.1,1487.5,496.4,1.0,-122.0,82.0,12782.0,8691.0,4532.0,3001.0,2277.0,-285.0,-163.0,4.0,-108.0,62.0,13731.0,8876.0,635.0,-850.0,1770.0,400.0,-485.0,1.0
2022-05-08 18:25:15.057957-07:00,1042.6,975.6,1324.1,956.8,727.4,455.3,1509.7,884.8,3471.0,3474.6,597.9,852.8,404.3,3501.4,894.1,718.4,3473.4,3472.2,392.6,551.4,398.1,492.5,231.7,234.0,3481.9,3467.4,580.2,450.6,892.4,1040.1,1487.5,496.4,-39.0,-97.0,127.0,12228.0,9535.0,4636.0,2552.0,3080.0,-380.0,-34.0,0.0,-51.0,32.0,13227.0,9583.0,915.0,-902.0,2147.0,730.0,-450.0,1.0
2022-05-08 18:25:15.118281-07:00,1042.6,971.3,1491.2,956.8,731.5,455.3,1509.7,884.8,3474.6,3471.0,594.7,852.8,411.4,3501.4,894.1,718.4,3473.4,3472.2,392.6,554.6,398.1,497.2,225.7,232.5,3481.9,3467.4,580.2,445.1,892.4,1035.7,1456.2,505.9,2.0,32.0,90.0,11380.0,10578.0,4754.0,2104.0,2973.0,-1.0,6.0,11.0,15.0,47.0,12520.0,10457.0,1233.0,-905.0,2464.0,796.0,-356.0,1.0
2022-05-08 18:25:15.207914-07:00,1042.6,971.3,1491.2,975.6,744.7,471.9,1495.8,902.5,3474.6,3471.0,594.7,850.3,409.0,3499.0,892.4,723.3,3474.6,3478.3,393.4,552.2,402.0,497.2,225.7,232.5,3480.7,3479.5,602.0,445.1,875.5,1035.7,1456.2,505.9,38.0,17.0,-36.0,10557.0,11416.0,4864.0,1733.0,2360.0,-62.0,44.0,6.0,54.0,-79.0,11859.0,11172.0,1512.0,-840.0,2006.0,765.0,-236.0,1.0
2022-05-08 18:25:15.210525-07:00,1042.6,959.4,1579.6,979.9,744.7,471.9,1495.8,902.5,3478.3,3473.4,596.3,844.4,409.0,3499.0,892.4,723.3,3474.6,3478.3,393.4,552.2,398.9,497.2,232.5,231.0,3480.7,3479.5,602.0,445.1,866.3,1028.8,1426.8,495.6,-31.0,-29.0,-46.0,9914.0,11952.0,4988.0,1558.0,1578.0,355.0,148.0,-9.0,-11.0,-30.0,11325.0,11688.0,1708.0,-803.0,1431.0,468.0,-167.0,1.0
2022-05-08 18:25:15.268286-07:00,1042.6,959.4,1579.6,979.9,748.8,475.0,1492.1,905.0,3478.3,3473.4,596.3,844.4,404.3,3497.8,874.7,720.8,3467.4,3473.4,393.4,553.0,398.9,497.2,232.5,231.0,3479.5,3474.6,618.1,445.1,866.3,1028.8,1426.8,495.6,20.0,4.0,-73.0,9531.0,12247.0,5031.0,1512.0,426.0,81.0,51.0,-26.0,-7.0,-112.0,11035.0,11948.0,1825.0,-761.0,476.0,231.0,-80.0,1.0
2022-05-08 18:25:15.298172-07:00,1063.4,966.2,1588.9,1003.9,748.8,475.0,1492.1,905.0,3467.4,3469.8,595.5,851.1,404.3,3497.8,874.7,720.8,3467.4,3473.4,393.4,553.0,398.1,490.9,231.7,231.7,3479.5,3474.6,618.1,445.1,857.9,1025.4,1402.1,499.6,-55.0,-3.0,-67.0,9391.0,12329.0,5086.0,1537.0,136.0,99.0,71.0,-22.0,25.0,-30.0,10954.0,12016.0,1873.0,-747.0,125.0,58.0,-24.0,1.0
2022-05-08 18:25:15.418438-07:00,1063.4,966.2,1588.9,1003.9,753.8,505.9,1493.0,900.0,3467.4,3469.8,595.5,851.1,406.7,3490.5,883.1,732.3,3477.1,3480.7,395.7,548.2,398.1,490.9,231.7,231.7,3472.2,3479.5,644.0,455.3,857.9,1025.4,1402.1,499.6,-7.0,23.0,-41.0,9421.0,12296.0,5093.0,1593.0,-491.0,121.0,-34.0,-18.0,47.0,-63.0,11030.0,11948.0,1862.0,-747.0,-587.0,-143.0,28.0,1.0
2022-05-08 18:25:15.419743-07:00,1054.8,960.2,1556.2,1017.6,753.8,505.9,1493.0,900.0,3468.6,3471.0,600.4,860.4,406.7,3490.5,883.1,732.3,3477.1,3480.7,395.7,548.2,398.9,492.5,235.5,236.3,3472.2,3479.5,644.0,455.3,851.1,1019.4,1376.6,492.5,-19.0,-36.0,3.0,9580.0,12160.0,5090.0,1699.0,-141.0,85.0,129.0,12.0,-46.0,-10.0,11197.0,11800.0,1802.0,-760.0,-196.0,-142.0,70.0,1.0
2022-05-08 18:25:15.448143-07:00,1010.8,960.2,1556.2,1017.6,786.1,537.0,1461.7,899.1,3478.3,3471.0,600.4,860.4,407.5,3499.0,902.5,728.2,3473.4,3480.7,398.9,550.6,398.9,492.5,235.5,240.1,3484.4,3471.0,682.3,474.3,851.1,1019.4,1376.6,499.6,-22.0,9.0,18.0,9610.0,12143.0,5054.0,1758.0,-376.0,-26.0,84.0,3.0,9.0,20.0,11276.0,11731.0,1749.0,-778.0,-399.0,-152.0,52.0,1.0
2022-05-08 18:25:15.508399-07:00,1010.8,960.2,1522.7,1021.1,786.1,537.0,1461.7,890.7,3478.3,3472.2,595.5,854.5,407.5,3499.0,902.5,729.9,3467.4,3480.7,398.9,550.6,398.1,496.4,245.4,240.1,3469.8,3471.0,682.3,474.3,847.8,1017.6,1372.1,499.6,-17.0,43.0,35.0,9728.0,12066.0,4998.0,1805.0,-140.0,-28.0,45.0,3.0,-1.0,0.0,11386.0,11632.0,1702.0,-778.0,-147.0,-71.0,44.0,1.0
2022-05-08 18:25:15.569022-07:00,850.3,960.2,1522.7,1021.1,819.4,560.2,1447.9,890.7,3477.1,3472.2,595.5,854.5,404.3,3486.8,992.7,729.9,3467.4,3471.0,395.0,550.6,398.1,496.4,245.4,256.1,3469.8,3469.8,706.0,507.5,847.8,1017.6,1372.1,494.0,-10.0,44.0,5.0,9750.0,12063.0,4971.0,1772.0,-6.0,-276.0,37.0,13.0,6.0,12.0,11400.0,11618.0,1699.0,-781.0,36.0,38.0,7.0,1.0
2022-05-08 18:25:15.598081-07:00,850.3,959.4,1490.3,1017.6,819.4,560.2,1447.9,884.8,3477.1,3473.4,596.3,851.1,404.3,3486.8,992.7,745.5,3477.1,3471.0,395.0,550.6,399.6,493.2,258.4,256.1,3483.2,3469.8,706.0,507.5,842.8,1014.2,1353.1,494.0,17.0,-2.0,48.0,9789.0,12084.0,4880.0,1661.0,152.0,-349.0,-83.0,-18.0,5.0,-69.0,11409.0,11610.0,1708.0,-749.0,106.0,75.0,-11.0,1.0
2022-05-08 18:25:15.658700-07:00,831.1,959.4,1490.3,1017.6,821.0,573.0,1453.4,884.8,3478.3,3473.4,596.3,851.1,405.9,3494.1,1038.3,745.5,3477.1,3483.2,395.0,554.6,399.6,493.2,258.4,257.6,3483.2,3477.1,695.4,524.2,842.8,1014.2,1353.1,499.6,-21.0,-51.0,108.0,9604.0,12181.0,5022.0,1615.0,708.0,655.0,-172.0,11.0,21.0,18.0,11279.0,11729.0,1758.0,-739.0,640.0,162.0,-64.0,1.0
2022-05-08 18:25:15.718147-07:00,831.1,962.0,1491.2,1012.5,821.0,573.0,1453.4,900.0,3478.3,3477.1,594.7,851.1,405.9,3494.1,1038.3,737.3,3485.6,3483.2,395.0,554.6,395.0,498.0,256.9,257.6,3475.9,3477.1,695.4,524.2,834.4,1015.9,1344.9,499.6,6.0,3.0,9.0,9340.0,12321.0,5143.0,1721.0,428.0,203.0,170.0,-5.0,15.0,-6.0,11119.0,11876.0,1802.0,-725.0,281.0,182.0,-30.0,1.0
2022-05-08 18:25:15.748126-07:00,835.2,984.2,1491.2,1012.5,828.5,611.7,1437.8,900.0,3467.4,3483.2,594.7,851.1,403.5,3499.0,990.2,737.3,3485.6,3472.2,391.8,551.4,395.0,498.0,253.1,256.1,3475.9,3467.4,682.3,528.2,834.4,1015.9,1335.0,502.8,-46.0,-39.0,-24.0,9098.0,12437.0,5268.0,1800.0,778.0,728.0,-27.0,4.0,-7.0,5.0,10980.0,11996.0,1870.0,-699.0,735.0,192.0,-76.0,1.0
2022-05-08 18:25:15.808060-07:00,835.2,984.2,1509.7,1006.5,828.5,611.7,1418.6,910.1,3467.4,3483.2,634.3,849.5,403.5,3499.0,948.3,725.8,3473.4,3480.7,391.8,551.4,398.9,493.2,253.1,256.1,3477.1,3471.0,682.3,528.2,831.9,1021.1,1335.0,502.8,53.0,-31.0,-47.0,8820.0,12614.0,5297.0,1860.0,383.0,-22.0,329.0,0.0,-36.0,-122.0,10776.0,12171.0,1927.0,-687.0,164.0,97.0,-6.0,1.0
2022-05-08 18:25:15.868335-07:00,838.6,986.7,1509.7,1006.5,828.5,622.2,1418.6,910.1,3478.3,3472.2,634.3,849.5,406.7,3494.1,948.3,725.8,3473.4,3480.7,395.0,552.2,398.9,493.2,253.1,250.0,3477.1,3471.0,667.6,521.0,831.9,1021.1,1331.4,502.8,-26.0,60.0,-55.0,8611.0,12776.0,5257.0,1846.0,662.0,-56.0,228.0,2.0,99.0,-12.0,10657.0,12271.0,1957.0,-678.0,382.0,137.0,-57.0,1.0
2022-05-08 18:25:15.898535-07:00,838.6,986.7,1545.0,1025.4,828.5,622.2,1545.9,969.6,3478.3,3472.2,646.5,877.2,406.7,3494.1,911.8,728.2,3472.2,3472.2,395.0,552.2,398.9,494.0,253.1,250.0,3479.5,3488.0,667.6,521.0,828.5,1021.1,1331.4,502.8,-76.0,-13.0,-33.0,8600.0,12811.0,5193.0,1841.0,-218.0,30.0,-42.0,-19.0,-24.0,-83.0,10645.0,12279.0,1970.0,-682.0,-328.0,-20.0,20.0,1.0
2022-05-08 18:25:15.958035-07:00,831.9,1021.9,1545.0,1025.4,826.0,614.1,1545.9,969.6,3472.2,3478.3,646.5,877.2,403.5,3496.6,911.8,728.2,3472.2,3472.2,399.6,555.4,398.9,494.0,257.6,253.8,3479.5,3488.0,673.3,513.9,828.5,1021.1,1324.1,499.6,-5.0,16.0,9.0,8573.0,12841.0,5184.0,1782.0,204.0,-229.0,32.0,-1.0,27.0,-16.0,10676.0,12253.0,1965.0,-679.0,-15.0,-41.0,15.0,1.0
2022-05-08 18:25:16.018136-07:00,831.9,1021.9,1532.0,1052.2,826.0,614.1,1550.6,960.2,3472.2,3478.3,649.7,861.2,403.5,3496.6,905.0,724.9,3475.9,3478.3,399.6,555.4,405.1,494.0,257.6,253.8,3471.0,3472.2,673.3,513.9,831.9,1011.6,1324.1,499.6,-11.0,-33.0,7.0,8634.0,12834.0,5115.0,1737.0,-203.0,-207.0,31.0,-9.0,-23.0,-23.0,10760.0,12184.0,1933.0,-681.0,-371.0,-89.0,64.0,1.0
2022-05-08 18:25:16.048448-07:00,831.9,997.0,1486.6,1052.2,826.0,626.2,1550.6,960.2,3488.0,3472.2,658.7,861.2,405.1,3488.0,905.0,724.9,3475.9,3478.3,392.6,551.4,405.1,494.0,251.5,247.0,3471.0,3472.2,683.1,507.5,831.9,1010.8,1325.0,496.4,-34.0,19.0,31.0,8624.0,12859.0,5096.0,1654.0,144.0,-163.0,-96.0,6.0,-8.0,29.0,10816.0,12139.0,1906.0,-675.0,-51.0,-15.0,21.0,1.0
2022-05-08 18:25:16.108381-07:00,831.9,997.0,1486.6,1063.4,826.0,661.1,1470.9,936.4,3488.0,3472.2,658.7,857.9,405.1,3500.2,899.1,729.0,3479.5,3474.6,391.8,551.4,402.0,494.0,251.5,247.0,3474.6,3483.2,699.5,507.5,820.2,1010.8,1325.0,496.4,6.0,-49.0,83.0,8609.0,12888.0,5073.0,1575.0,160.0,-10.0,52.0,7.0,-24.0,-16.0,10867.0,12094.0,1910.0,-658.0,0.0,7.0,3.0,1.0
2022-05-08 18:25:16.168369-07:00,836.9,991.0,1437.8,1063.4,818.5,661.1,1470.9,936.4,3474.6,3477.1,665.2,857.9,406.7,3500.2,899.1,729.0,3479.5,3474.6,391.8,554.6,402.0,499.6,243.9,253.8,3474.6,3483.2,699.5,499.6,820.2,1019.4,1331.4,500.4,-14.0,20.0,78.0,8510.0,12898.0,5175.0,1696.0,93.0,697.0,-64.0,4.0,-29.0,58.0,10832.0,12125.0,1913.0,-654.0,164.0,26.0,-11.0,1.0
2022-05-08 18:25:16.258109-07:00,836.9,991.0,1437.8,1047.8,818.5,645.7,1426.8,926.2,3474.6,3477.1,665.2,865.4,406.7,3492.9,893.2,726.6,3472.2,3474.6,398.9,554.6,405.9,499.6,243.9,253.8,3478.3,3472.2,679.9,499.6,847.0,1019.4,1331.4,500.4,-24.0,37.0,-33.0,8487.0,12819.0,5342.0,1882.0,-389.0,369.0,-207.0,32.0,0.0,-1.0,10841.0,12113.0,1946.0,-632.0,-257.0,85.0,-45.0,1.0
2022-05-08 18:25:16.259287-07:00,831.9,991.0,1436.0,1047.8,799.4,645.7,1426.8,926.2,3468.6,3472.2,676.6,865.4,406.7,3492.9,893.2,726.6,3472.2,3474.6,398.9,555.4,405.9,491.7,256.9,246.2,3478.3,3472.2,679.9,499.6,847.0,1015.1,1341.3,501.2,-14.0,-15.0,0.0,8543.0,12714.0,5465.0,1983.0,-140.0,351.0,-151.0,-6.0,7.0,-19.0,10876.0,12076.0,1985.0,-618.0,-9.0,63.0,-46.0,1.0
2022-05-08 18:25:16.318362-07:00,831.9,991.0,1436.0,1065.1,799.4,644.9,1384.8,965.4,3468.6,3472.2,676.6,857.9,406.7,3497.8,884.8,723.3,3479.5,3471.0,394.2,555.4,404.3,491.7,256.9,246.2,3479.5,3478.3,686.4,499.6,868.8,1015.1,1341.3,501.2,-4.0,0.0,-45.0,8599.0,12640.0,5520.0,2059.0,-368.0,72.0,-70.0,11.0,-4.0,-54.0,10897.0,12054.0,2007.0,-602.0,-118.0,28.0,2.0,1.0
2022-05-08 18:25:16.348115-07:00,828.5,994.5,1539.4,1078.2,809.4,644.9,1384.8,965.4,3473.4,3467.4,684.8,859.5,411.4,3497.8,884.8,723.3,3479.5,3471.0,394.2,549.8,400.4,492.5,253.1,249.2,3479.5,3478.3,686.4,500.4,866.3,1011.6,1332.3,498.8,9.0,11.0,-12.0,8784.0,12501.0,5519.0,2129.0,-684.0,-26.0,-30.0,16.0,9.0,-29.0,10906.0,12047.0,2000.0,-610.0,23.0,-73.0,-4.0,1.0
2022-05-08 18:25:16.408038-07:00,828.5,994.5,1539.4,1078.2,906.7,638.4,1363.9,950.0,3473.4,3467.4,684.8,859.5,407.5,3501.4,880.6,724.1,3467.4,3478.3,384.8,548.2,400.4,492.5,253.1,249.2,3473.4,3473.4,671.7,552.2,866.3,1011.6,1332.3,498.8,-19.0,-88.0,-9.0,9069.0,12322.0,5420.0,2233.0,-623.0,-253.0,189.0,-5.0,-42.0,-55.0,10938.0,12024.0,1954.0,-634.0,-29.0,-121.0,69.0,1.0
2022-05-08 18:25:16.498090-07:00,827.7,980.7,1642.6,1069.5,906.7,638.4,1363.9,950.0,3467.4,3468.6,679.1,862.9,407.5,3501.4,880.6,724.1,3467.4,3478.3,384.8,548.2,397.3,494.8,247.0,250.8,3473.4,3473.4,671.7,552.2,847.0,1003.9,1330.5,497.2,-30.0,13.0,17.0,9135.0,12321.0,5320.0,2209.0,75.0,-247.0,61.0,-10.0,22.0,11.0,10881.0,12079.0,1925.0,-654.0,207.0,-35.0,10.0,1.0
2022-05-08 18:25:16.499762-07:00,827.7,980.7,1642.6,1069.5,901.7,614.9,1361.2,928.8,3467.4,3468.6,679.1,862.9,406.7,3495.3,867.9,725.8,3473.4,3477.1,395.0,549.8,397.3,494.8,247.0,250.8,3474.6,3478.3,665.2,569.8,847.0,1003.9,1330.5,497.2,21.0,18.0,7.0,9126.0,12383.0,5229.0,2118.0,167.0,-265.0,79.0,-1.0,25.0,-28.0,10848.0,12113.0,1897.0,-655.0,71.0,-42.0,66.0,1.0
2022-05-08 18:25:16.588015-07:00,826.0,964.5,1648.3,1068.6,901.7,614.9,1361.2,928.8,3471.0,3463.7,912.7,877.2,406.7,3495.3,867.9,725.8,3473.4,3477.1,395.0,549.8,400.4,490.9,247.0,248.5,3474.6,3478.3,665.2,569.8,839.4,1007.3,1335.0,486.1,-82.0,-21.0,2.0,9151.0,12389.0,5186.0,2074.0,-301.0,-69.0,11.0,12.0,-4.0,29.0,10858.0,12107.0,1875.0,-654.0,-169.0,-34.0,43.0,1.0
2022-05-08 18:25:16.618170-07:00,826.0,964.5,1648.3,1068.6,899.1,611.7,1364.8,921.1,3471.0,3463.7,912.7,877.2,429.4,3500.2,1038.3,748.8,3488.0,3477.1,395.7,554.6,400.4,490.9,247.0,248.5,3481.9,3467.4,662.7,599.6,839.4,1007.3,1335.0,486.1,57.0,46.0,-23.0,9246.0,12367.0,5091.0,2022.0,-189.0,-213.0,-42.0,6.0,-42.0,-77.0,10908.0,12066.0,1853.0,-656.0,-164.0,-90.0,18.0,1.0
2022-05-08 18:25:16.648150-07:00,1263.1,957.7,1624.7,1062.5,899.1,611.7,1364.8,891.5,3475.9,3474.6,1092.1,940.7,429.4,3500.2,1038.3,893.2,3475.9,3477.1,395.7,554.6,401.2,495.6,255.3,252.3,3474.6,3467.4,662.7,599.6,833.6,1009.0,1356.7,490.9,-31.0,-50.0,22.0,9382.0,12250.0,5117.0,2043.0,-363.0,-4.0,-33.0,-8.0,-36.0,18.0,10964.0,12018.0,1828.0,-666.0,-137.0,-62.0,37.0,1.0
2022-05-08 18:25:16.708009-07:00,1072.9,957.7,1624.7,1062.5,879.7,615.7,1348.5,891.5,3469.8,3474.6,1092.1,940.7,435.7,3500.2,1318.7,893.2,3475.9,3472.2,395.0,550.6,401.2,495.6,255.3,312.0,3474.6,3477.1,657.9,623.0,833.6,1009.0,1356.7,494.0,-11.0,-20.0,24.0,9514.0,12155.0,5090.0,2065.0,-272.0,-138.0,-37.0,2.0,-19.0,-38.0,11024.0,11966.0,1806.0,-673.0,-172.0,-72.0,0.0,1.0
2022-05-08 18:25:16.768242-07:00,1072.9,952.6,1604.0,1079.9,879.7,615.7,1348.5,890.7,3469.8,3467.4,1101.7,986.7,435.7,3500.2,1318.7,961.1,3474.6,3472.2,395.0,550.6,402.0,494.8,316.7,312.0,3480.7,3477.1,657.9,623.0,833.6,1013.3,1346.7,494.0,-23.0,-55.0,49.0,9563.0,12102.0,5108.0,2105.0,-87.0,160.0,-8.0,3.0,-29.0,6.0,11041.0,11952.0,1793.0,-679.0,5.0,3.0,32.0,1.0
2022-05-08 18:25:16.798098-07:00,985.0,952.6,1604.0,1079.9,870.5,604.4,1344.0,890.7,3475.9,3467.4,1101.7,986.7,441.2,3490.5,1297.2,961.1,3474.6,3478.3,392.6,553.0,402.0,494.8,316.7,313.6,3480.7,3475.9,655.4,611.7,833.6,1013.3,1346.7,494.8,-36.0,26.0,19.0,9571.0,12073.0,5150.0,2134.0,-153.0,48.0,-84.0,-1.0,22.0,16.0,11053.0,11941.0,1800.0,-672.0,-97.0,15.0,-17.0,1.0
2022-05-08 18:25:16.858062-07:00,985.0,944.9,1622.8,1095.6,870.5,604.4,1344.0,885.6,3475.9,3481.9,1099.0,990.2,441.2,3490.5,1297.2,944.1,3472.2,3478.3,392.6,553.0,397.3,493.2,308.2,313.6,3475.9,3475.9,655.4,611.7,837.7,1002.2,1340.4,494.8,-2.0,-48.0,47.0,9655.0,11976.0,5189.0,2205.0,-411.0,294.0,-73.0,-1.0,-48.0,-27.0,11121.0,11877.0,1805.0,-660.0,-293.0,11.0,21.0,1.0
2022-05-08 18:25:16.948110-07:00,955.1,944.9,1622.8,1095.6,859.5,597.9,1320.5,885.6,3471.0,3481.9,1099.0,990.2,434.1,3502.7,1278.3,944.1,3472.2,3477.1,397.3,553.8,397.3,493.2,308.2,306.7,3475.9,3477.1,656.2,585.1,837.7,1002.2,1340.4,490.1,-1.0,305.0,-89.0,9845.0,11705.0,5342.0,2444.0,-1657.0,642.0,-409.0,-6.0,144.0,-26.0,11414.0,11602.0,1771.0,-646.0,-1894.0,-306.0,62.0,1.0
2022-05-08 18:25:16.951154-07:00,955.1,948.3,1712.9,1063.4,859.5,597.9,1314.2,925.4,3471.0,3475.9,1090.3,970.5,434.1,3502.7,1273.9,911.0,3475.9,3475.9,397.3,553.8,400.4,489.3,310.5,306.7,3478.3,3478.3,656.2,585.1,823.5,1007.3,1324.1,490.1,-22.0,-66.0,-108.0,10531.0,10972.0,5456.0,2717.0,-3155.0,239.0,-827.0,-11.0,-21.0,-77.0,12265.0,10724.0,1615.0,-615.0,-2886.0,-557.0,201.0,1.0
2022-05-08 18:25:17.008030-07:00,924.5,944.1,1712.9,1063.4,850.3,595.5,1314.2,925.4,3466.1,3469.8,1090.3,970.5,428.6,3488.0,1273.9,911.0,3475.9,3475.9,391.1,549.8,400.4,489.3,311.3,312.0,3478.3,3478.3,654.6,576.2,823.5,1007.3,1329.6,490.1,-14.0,-63.0,-120.0,11440.0,9950.0,5449.0,2980.0,-3248.0,-181.0,-649.0,-15.0,-22.0,-80.0,13066.0,9770.0,1386.0,-582.0,-2922.0,-664.0,302.0,1.0
2022-05-08 18:25:17.038265-07:00,924.5,944.1,1832.3,1063.4,850.3,595.5,1306.1,1039.2,3466.1,3469.8,1074.7,965.4,428.6,3488.0,1268.5,878.9,3475.9,3467.4,391.1,549.8,399.6,492.5,311.3,312.0,3477.1,3473.4,654.6,576.2,819.4,1003.9,1329.6,490.1,-45.0,-107.0,-82.0,12324.0,8903.0,5243.0,3132.0,-2759.0,-607.0,-527.0,-25.0,-26.0,-29.0,13747.0,8827.0,1115.0,-551.0,-2374.0,-660.0,283.0,1.0
2022-05-08 18:25:17.098113-07:00,838.6,941.5,1832.3,1063.4,844.4,585.1,1306.1,1039.2,3479.5,3467.4,1074.7,965.4,427.0,3489.2,1268.5,878.9,3475.9,3467.4,388.7,549.0,399.6,492.5,310.5,311.3,3477.1,3473.4,657.0,565.8,819.4,1003.9,1355.8,487.7,-82.0,-63.0,-14.0,12983.0,8137.0,4878.0,3146.0,-1806.0,-1034.0,-273.0,-28.0,7.0,22.0,14203.0,8103.0,854.0,-555.0,-1786.0,-615.0,199.0,1.0
2022-05-08 18:25:17.158143-07:00,838.6,941.5,1826.5,1061.7,844.4,585.1,1296.3,1034.9,3479.5,3467.4,1122.6,962.8,427.0,3489.2,1232.8,877.2,3478.3,3473.4,388.7,549.0,399.6,490.9,310.5,311.3,3471.0,3475.9,657.0,565.8,821.9,1015.1,1355.8,487.7,48.0,55.0,6.0,13470.0,7654.0,4386.0,3028.0,-1547.0,-1057.0,-218.0,-30.0,-2.0,-76.0,14594.0,7401.0,612.0,-551.0,-1879.0,-577.0,228.0,1.0
2022-05-08 18:25:17.188588-07:00,831.1,935.6,1826.5,1061.7,838.6,589.1,1296.3,1034.9,3471.0,3474.6,1122.6,962.8,427.8,3486.8,1232.8,877.2,3478.3,3473.4,397.3,552.2,399.6,490.9,323.6,330.5,3471.0,3475.9,647.3,560.2,821.9,1015.1,1450.6,492.5,-34.0,-79.0,13.0,13886.0,7146.0,4013.0,2903.0,-1113.0,-830.0,-320.0,-15.0,0.0,-24.0,14821.0,6944.0,457.0,-584.0,-841.0,-507.0,-8.0,1.0
2022-05-08 18:25:17.248209-07:00,831.1,935.6,1856.7,1070.3,838.6,580.2,1299.8,1012.5,3471.0,3474.6,1066.0,953.4,427.8,3491.7,1320.5,867.1,3480.7,3473.4,391.8,552.2,403.5,496.4,323.6,330.5,3479.5,3479.5,652.2,560.2,847.0,1040.9,1450.6,492.5,-58.0,-207.0,6.0,14101.0,6921.0,3715.0,2811.0,119.0,-509.0,360.0,0.0,-63.0,-34.0,14918.0,6735.0,296.0,-655.0,12.0,-336.0,93.0,1.0
2022-05-08 18:25:17.368798-07:00,825.2,936.4,1844.0,1070.3,832.7,580.2,1299.8,1012.5,3467.4,3469.8,996.2,953.4,426.2,3491.7,1320.5,867.1,3480.7,3473.4,391.8,549.8,403.5,496.4,321.3,319.7,3479.5,3479.5,652.2,568.2,847.0,1026.3,1371.2,494.0,-10.0,183.0,128.0,14091.0,7039.0,3485.0,2863.0,-128.0,-265.0,121.0,65.0,146.0,120.0,14918.0,6741.0,140.0,-649.0,-250.0,-264.0,117.0,1.0
2022-05-08 18:25:17.369766-07:00,825.2,936.4,1844.0,1064.3,832.7,577.0,1317.8,966.2,3467.4,3469.8,996.2,944.1,426.2,3495.3,1114.7,855.3,3469.8,3474.6,391.8,549.8,398.1,496.4,321.3,319.7,3473.4,3478.3,647.3,568.2,838.6,1026.3,1371.2,494.0,43.0,-77.0,69.0,14163.0,6950.0,3350.0,2885.0,100.0,-89.0,82.0,49.0,-9.0,-12.0,14942.0,6688.0,52.0,-677.0,185.0,-54.0,-39.0,1.0
2022-05-08 18:25:17.398473-07:00,830.2,939.8,1818.7,1064.3,829.4,577.0,1317.8,966.2,3471.0,3474.6,899.1,944.1,427.0,3495.3,1114.7,855.3,3469.8,3474.6,391.8,553.0,398.1,495.6,315.9,319.7,3473.4,3478.3,647.3,566.6,838.6,1024.5,1353.1,492.5,-63.0,-50.0,-50.0,14119.0,7040.0,3290.0,2951.0,-63.0,-172.0,484.0,-19.0,7.0,4.0,14918.0,6740.0,18.0,-686.0,-121.0,-145.0,121.0,1.0
2022-05-08 18:25:17.489323-07:00,830.2,939.8,1818.7,1058.2,829.4,573.0,1295.4,962.0,3471.0,3474.6,899.1,935.6,427.0,3491.7,1063.4,847.8,3474.6,3478.3,391.8,553.0,398.1,495.6,315.9,319.7,3478.3,3488.0,647.3,566.6,817.7,1024.5,1353.1,492.5,-24.0,82.0,82.0,14157.0,6989.0,3127.0,3066.0,-358.0,-109.0,18.0,-16.0,41.0,-1.0,14956.0,6656.0,-51.0,-658.0,-83.0,-42.0,55.0,1.0
2022-05-08 18:25:17.490214-07:00,836.9,926.2,1828.4,1058.2,815.2,573.0,1295.4,962.0,3475.9,3474.6,868.8,935.6,424.7,3491.7,1063.4,847.8,3474.6,3478.3,391.8,551.4,398.1,492.5,316.7,311.3,3478.3,3488.0,647.3,575.4,817.7,1017.6,1344.9,493.2,-46.0,-40.0,-77.0,14171.0,6923.0,3146.0,3129.0,-66.0,188.0,179.0,-4.0,-14.0,-2.0,14961.0,6647.0,-63.0,-643.0,-28.0,-36.0,61.0,1.0
2022-05-08 18:25:17.548678-07:00,836.9,926.2,1828.4,1049.6,815.2,573.0,1307.0,1003.0,3475.9,3474.6,868.8,925.4,421.5,3502.7,1028.0,842.8,3483.2,3479.5,391.8,554.6,400.4,492.5,316.7,311.3,3475.9,3483.2,644.0,581.8,820.2,1017.6,1344.9,493.2,-22.0,76.0,-3.0,14169.0,6919.0,3082.0,3209.0,-80.0,-261.0,198.0,-17.0,34.0,-8.0,14975.0,6617.0,-110.0,-619.0,-124.0,-92.0,137.0,1.0
2022-05-08 18:25:17.608045-07:00,831.9,925.4,1845.9,1047.8,815.2,573.0,1307.0,1003.0,3478.3,3475.9,846.1,927.1,421.5,3502.7,1028.0,842.8,3483.2,3479.5,391.8,554.6,398.9,496.4,314.4,309.7,3475.9,3483.2,644.0,581.8,819.4,1012.5,1338.6,496.4,-32.0,-73.0,21.0,14225.0,6851.0,2986.0,3199.0,-300.0,-123.0,-109.0,13.0,-5.0,14.0,15018.0,6520.0,-157.0,-608.0,-247.0,-83.0,20.0,1.0
2022-05-08 18:25:17.668170-07:00,831.9,925.4,1845.9,1047.8,811.0,568.2,1307.9,990.2,3478.3,3475.9,846.1,927.1,427.0,3494.1,968.8,838.6,3484.4,3472.2,394.2,550.6,398.9,496.4,314.4,309.7,3480.7,3479.5,640.0,577.8,819.4,1012.5,1338.6,496.4,1.0,4.0,11.0,14226.0,6894.0,2923.0,3159.0,180.0,-160.0,60.0,-4.0,30.0,-35.0,15005.0,6548.0,-167.0,-613.0,63.0,-8.0,1.0,1.0
2022-05-08 18:25:17.698091-07:00,869.6,924.5,1805.2,1047.0,811.0,568.2,1307.9,990.2,3475.9,3473.4,832.7,923.7,427.0,3494.1,968.8,838.6,3484.4,3472.2,394.2,550.6,402.0,499.6,312.0,315.1,3480.7,3479.5,640.0,577.8,819.4,1014.2,1335.9,493.2,-10.0,79.0,-13.0,14222.0,6890.0,2875.0,3230.0,-132.0,0.0,240.0,-13.0,19.0,-14.0,15021.0,6514.0,-184.0,-586.0,-183.0,-34.0,106.0,1.0
2022-05-08 18:25:17.758089-07:00,869.6,924.5,1805.2,1047.0,815.2,573.0,1312.4,1013.3,3475.9,3473.4,832.7,923.7,423.1,3494.1,948.3,827.7,3479.5,3480.7,390.3,551.4,402.0,499.6,312.0,315.1,3475.9,3474.6,640.0,577.8,819.4,1014.2,1335.9,493.2,-10.0,-17.0,-14.0,14280.0,6777.0,2833.0,3251.0,-307.0,-53.0,-100.0,7.0,-17.0,-35.0,15055.0,6435.0,-204.0,-572.0,-13.0,-14.0,27.0,1.0
2022-05-08 18:25:17.847937-07:00,864.6,921.1,1799.4,1046.1,815.2,573.0,1312.4,1021.1,3475.9,3475.9,817.7,918.6,423.1,3494.1,948.3,825.2,3479.5,3480.7,390.3,551.4,397.3,499.6,305.1,312.8,3475.9,3474.6,640.0,577.8,813.5,1012.5,1335.0,493.2,-20.0,-31.0,-15.0,14299.0,6745.0,2828.0,3237.0,-41.0,1.0,-28.0,-1.0,0.0,0.0,15063.0,6415.0,-211.0,-579.0,-26.0,-18.0,-7.0,1.0
2022-05-08 18:25:17.849607-07:00,871.3,921.1,1799.4,1046.1,811.0,562.6,1306.1,1021.1,3477.1,3475.9,817.7,918.6,423.9,3499.0,927.1,825.2,3479.5,3478.3,393.4,551.4,397.3,499.6,305.1,309.7,3475.9,3483.2,642.4,574.6,813.5,1012.5,1335.0,494.0,-15.0,12.0,16.0,14302.0,6749.0,2810.0,3232.0,-5.0,-83.0,36.0,-3.0,0.0,-1.0,15062.0,6418.0,-218.0,-583.0,32.0,-14.0,-10.0,1.0
2022-05-08 18:25:17.908095-07:00,871.3,920.3,1793.6,1044.4,811.0,562.6,1306.1,1027.1,3477.1,3472.2,820.2,924.5,423.9,3499.0,927.1,821.9,3474.6,3478.3,393.4,551.4,396.5,496.4,305.1,309.7,3478.3,3483.2,642.4,574.6,821.0,1016.8,1339.5,494.0,-24.0,8.0,-7.0,14304.0,6750.0,2802.0,3226.0,30.0,3.0,-12.0,0.0,0.0,-4.0,15047.0,6452.0,-209.0,-586.0,90.0,27.0,-17.0,1.0
2022-05-08 18:25:17.938304-07:00,867.9,920.3,1793.6,1044.4,809.4,563.4,1292.7,1027.1,3483.2,3472.2,820.2,924.5,425.5,3494.1,923.7,821.9,3474.6,3466.1,394.2,548.2,396.5,496.4,305.1,302.0,3478.3,3475.9,635.1,573.0,821.0,1016.8,1339.5,498.0,-17.0,7.0,3.0,14293.0,6771.0,2812.0,3223.0,33.0,28.0,14.0,-6.0,15.0,-19.0,15031.0,6490.0,-197.0,-592.0,24.0,14.0,-12.0,1.0
2022-05-08 18:25:17.998958-07:00,867.9,925.4,1791.6,1049.6,809.4,563.4,1292.7,1028.8,3483.2,3467.4,820.2,918.6,425.5,3494.1,923.7,822.7,3473.4,3466.1,394.2,548.2,400.4,486.1,305.9,302.0,3474.6,3475.9,635.1,573.0,813.5,1020.2,1335.0,498.0,-23.0,0.0,-17.0,14288.0,6772.0,2836.0,3226.0,40.0,35.0,9.0,-11.0,8.0,-12.0,15024.0,6505.0,-191.0,-596.0,35.0,-2.0,-4.0,1.0
2022-05-08 18:25:18.058233-07:00,847.8,925.4,1791.6,1049.6,810.2,563.4,1285.5,1028.8,3467.4,3467.4,820.2,918.6,425.5,3495.3,916.9,822.7,3473.4,3481.9,388.7,551.4,400.4,486.1,305.9,302.0,3474.6,3479.5,636.7,561.8,813.5,1020.2,1335.0,492.5,-4.0,9.0,12.0,14281.0,6784.0,2847.0,3216.0,65.0,-2.0,-41.0,2.0,8.0,-8.0,15013.0,6532.0,-183.0,-597.0,134.0,31.0,-42.0,1.0
2022-05-08 18:25:18.088613-07:00,847.8,929.6,1788.7,1046.1,810.2,563.4,1281.9,1027.1,3467.4,3474.6,811.9,919.4,425.5,3495.3,916.0,820.2,3467.4,3481.9,388.7,551.4,398.1,495.6,305.9,302.0,3477.1,3477.1,636.7,561.8,804.4,1015.1,1332.3,492.5,-17.0,-8.0,2.0,14253.0,6825.0,2897.0,3212.0,148.0,127.0,-8.0,0.0,6.0,1.0,14982.0,6601.0,-155.0,-607.0,150.0,69.0,-42.0,1.0
2022-05-08 18:25:18.208735-07:00,851.1,927.9,1788.7,1046.1,800.2,561.0,1281.9,1027.1,3480.7,3469.8,811.9,919.4,423.1,3489.2,916.0,820.2,3467.4,3481.9,392.6,549.0,398.1,495.6,305.9,299.7,3477.1,3477.1,640.8,557.0,804.4,1015.1,1338.6,489.3,10.0,-9.0,53.0,14233.0,6846.0,2939.0,3219.0,151.0,78.0,-12.0,29.0,-13.0,23.0,14960.0,6652.0,-115.0,-599.0,188.0,152.0,-39.0,1.0
2022-05-08 18:25:18.209647-07:00,851.1,927.9,1785.8,1042.6,800.2,561.0,1275.6,1043.5,3480.7,3469.8,812.7,922.8,423.1,3489.2,922.8,817.7,3481.9,3478.3,392.6,549.0,398.9,495.6,305.9,299.7,3479.5,3473.4,640.8,557.0,807.7,1016.8,1338.6,489.3,52.0,11.0,73.0,14152.0,6960.0,3052.0,3224.0,453.0,372.0,-22.0,49.0,13.0,-14.0,14892.0,6805.0,-21.0,-590.0,493.0,274.0,-116.0,1.0
2022-05-08 18:25:18.238353-07:00,873.0,929.6,1785.8,1042.6,801.9,550.6,1275.6,1043.5,3473.4,3469.8,812.7,922.8,423.9,3494.1,922.8,817.7,3481.9,3478.3,395.0,553.8,398.9,495.6,301.3,302.8,3479.5,3473.4,634.3,558.6,807.7,1016.8,1393.0,499.6,47.0,-23.0,75.0,14015.0,7091.0,3346.0,3244.0,568.0,766.0,-186.0,53.0,-12.0,-10.0,14787.0,7030.0,132.0,-574.0,620.0,438.0,-122.0,1.0
2022-05-08 18:25:18.298213-07:00,873.0,929.6,1950.9,1056.5,801.9,550.6,1265.8,1094.7,3473.4,3469.8,804.4,922.8,423.9,3494.1,998.7,814.4,3477.1,3477.1,395.0,553.8,400.4,495.6,301.3,302.8,3471.0,3480.7,634.3,558.6,810.2,1016.8,1393.0,499.6,63.0,-26.0,18.0,13835.0,7273.0,3744.0,3179.0,885.0,667.0,-484.0,35.0,-7.0,3.0,14672.0,7266.0,334.0,-513.0,618.0,597.0,-133.0,1.0
2022-05-08 18:25:18.388811-07:00,875.5,931.3,1950.9,1056.5,810.2,557.0,1265.8,1094.7,3474.6,3473.4,804.4,922.8,420.0,3491.7,998.7,814.4,3477.1,3477.1,391.1,553.8,400.4,495.6,300.5,299.7,3471.0,3480.7,640.0,565.0,810.2,1016.8,1441.5,490.9,-38.0,-85.0,12.0,13625.0,7462.0,4179.0,3104.0,830.0,824.0,-267.0,18.0,2.0,9.0,14526.0,7543.0,580.0,-446.0,808.0,630.0,-99.0,1.0
2022-05-08 18:25:18.389788-07:00,875.5,931.3,2160.5,1047.8,810.2,574.6,1302.5,1099.0,3474.6,3473.4,818.5,924.5,420.0,3497.8,1014.2,809.4,3477.1,3478.3,392.6,553.8,402.0,490.9,300.5,299.7,3467.4,3478.3,652.2,565.0,809.4,1013.3,1441.5,490.9,-63.0,-166.0,18.0,13322.0,7830.0,4484.0,3087.0,1460.0,386.0,211.0,19.0,-58.0,63.0,14315.0,7920.0,842.0,-305.0,1126.0,820.0,125.0,1.0
2022-05-08 18:25:18.448171-07:00,867.1,957.7,2164.6,1047.8,797.7,574.6,1302.5,1099.0,3464.9,3473.4,820.2,924.5,423.9,3497.8,1014.2,809.4,3477.1,3478.3,392.6,548.2,402.0,493.2,302.8,301.3,3467.4,3478.3,652.2,565.8,809.4,1014.2,1373.9,495.6,-30.0,-111.0,24.0,12870.0,8539.0,4516.0,3080.0,2061.0,-49.0,803.0,18.0,-69.0,8.0,13990.0,8453.0,1118.0,-66.0,1696.0,982.0,280.0,1.0
2022-05-08 18:25:18.508442-07:00,867.1,957.7,2164.6,1045.2,797.7,577.8,1396.7,1086.0,3464.9,3473.4,820.2,913.5,423.9,3494.1,945.8,814.4,3483.2,3483.2,389.5,548.2,397.3,493.2,302.8,301.3,3488.0,3478.3,687.2,565.8,799.4,1014.2,1373.9,495.6,-213.0,48.0,-67.0,12219.0,9424.0,4557.0,3091.0,2497.0,272.0,690.0,-221.0,7.0,-28.0,13585.0,9056.0,1370.0,114.0,2332.0,929.0,26.0,1.0
2022-05-08 18:25:18.598140-07:00,863.7,1019.4,2082.6,1045.2,796.0,577.8,1396.7,1086.0,3467.4,3474.6,811.0,913.5,421.5,3494.1,945.8,814.4,3483.2,3483.2,389.5,548.2,397.3,490.9,295.9,301.3,3488.0,3478.3,687.2,561.0,799.4,1014.2,1325.0,501.2,-68.0,50.0,-181.0,11574.0,10225.0,4614.0,2943.0,1849.0,-454.0,523.0,-54.0,91.0,-21.0,12994.0,9830.0,1692.0,283.0,1549.0,858.0,191.0,1.0
2022-05-08 18:25:18.599352-07:00,863.7,1019.4,2082.6,1035.7,796.0,577.8,1482.9,1077.3,3467.4,3474.6,811.0,916.9,421.5,3496.6,922.8,813.5,3477.1,3472.2,392.6,548.2,400.4,490.9,295.9,301.3,3479.5,3467.4,673.3,561.0,791.0,1014.2,1325.0,501.2,123.0,39.0,-74.0,11222.0,10696.0,4480.0,2833.0,1182.0,25.0,389.0,-4.0,54.0,-214.0,12639.0,10241.0,1887.0,500.0,1014.0,501.0,245.0,1.0
2022-05-08 18:25:18.658095-07:00,859.5,1103.4,2039.4,1035.7,793.5,577.8,1482.9,1077.3,3469.8,3475.9,818.5,916.9,419.2,3496.6,922.8,813.5,3477.1,3472.2,392.6,553.0,400.4,490.9,301.3,302.0,3479.5,3467.4,673.3,560.2,791.0,1007.3,1303.4,490.9,-58.0,99.0,-107.0,10936.0,10983.0,4516.0,2797.0,584.0,-137.0,37.0,11.0,-1.0,-47.0,12345.0,10564.0,2024.0,602.0,505.0,420.0,15.0,1.0
2022-05-08 18:25:18.747611-07:00,859.5,1103.4,2039.4,1037.5,789.4,575.4,1778.1,1047.8,3469.8,3475.9,818.5,926.2,419.2,3495.3,900.8,805.2,3479.5,3472.2,388.7,553.8,399.6,490.9,301.3,302.0,3473.4,3473.4,667.6,557.0,798.5,1007.3,1303.4,490.9,-46.0,-31.0,-103.0,10938.0,11018.0,4467.0,2727.0,-192.0,-129.0,-1.0,-91.0,17.0,-129.0,12255.0,10645.0,2122.0,658.0,-129.0,41.0,-17.0,1.0
2022-05-08 18:25:18.808055-07:00,844.4,1137.5,2023.4,1032.3,789.4,575.4,1778.1,1047.8,3468.6,3480.7,811.0,916.0,419.2,3495.3,900.8,805.2,3479.5,3472.2,388.7,553.8,394.2,496.4,299.7,294.4,3473.4,3473.4,667.6,557.0,791.0,1005.6,1295.4,491.7,-145.0,44.0,-33.0,10958.0,11004.0,4447.0,2738.0,-6.0,-20.0,6.0,-150.0,0.0,-37.0,12291.0,10602.0,2127.0,661.0,-69.0,-14.0,-51.0,1.0
2022-05-08 18:25:18.809324-07:00,844.4,1137.5,2023.4,1032.3,786.9,569.8,1857.6,1015.1,3468.6,3480.7,811.0,916.0,420.8,3492.9,896.6,806.9,3474.6,3478.3,395.7,550.6,394.2,496.4,299.7,294.4,3474.6,3469.8,677.4,553.0,791.0,1005.6,1295.4,491.7,-28.0,-42.0,21.0,10974.0,10979.0,4483.0,2714.0,-59.0,41.0,-108.0,-16.0,-24.0,2.0,12300.0,10596.0,2108.0,654.0,-7.0,-11.0,59.0,1.0
2022-05-08 18:25:18.838315-07:00,837.7,1128.7,2010.4,1028.8,786.9,569.8,1857.6,1015.1,3460.1,3467.4,811.9,916.9,420.8,3492.9,896.6,806.9,3474.6,3478.3,395.7,550.6,401.2,489.3,312.0,294.4,3474.6,3469.8,677.4,553.0,786.1,1006.5,1293.6,486.1,-7.0,0.0,18.0,11001.0,10956.0,4465.0,2728.0,-85.0,-50.0,74.0,2.0,14.0,0.0,12314.0,10582.0,2087.0,680.0,-43.0,14.0,62.0,1.0
2022-05-08 18:25:18.958142-07:00,837.7,1128.7,2010.4,1028.8,784.4,569.8,1810.0,997.9,3460.1,3467.4,811.9,916.9,420.8,3491.7,895.7,804.4,3477.1,3477.1,393.4,551.4,401.2,489.3,312.0,294.4,3484.4,3474.6,665.2,546.6,786.1,1006.5,1293.6,486.1,2.0,5.0,7.0,11055.0,10909.0,4439.0,2741.0,-215.0,6.0,-30.0,-11.0,11.0,-36.0,12339.0,10553.0,2081.0,699.0,-173.0,13.0,9.0,1.0
2022-05-08 18:25:18.960405-07:00,844.4,1116.5,1977.6,1028.0,784.4,569.8,1810.0,997.9,3480.7,3467.4,804.4,918.6,420.8,3491.7,895.7,804.4,3477.1,3477.1,393.4,551.4,398.9,489.3,299.0,298.2,3484.4,3474.6,665.2,546.6,786.1,1002.2,1288.2,497.2,-18.0,10.0,-10.0,11110.0,10842.0,4447.0,2770.0,-216.0,43.0,-33.0,-16.0,3.0,-12.0,12382.0,10502.0,2080.0,706.0,-195.0,-18.0,4.0,1.0
2022-05-08 18:25:18.988585-07:00,837.7,1116.5,1977.6,1028.0,783.6,571.4,1766.6,994.5,3472.2,3467.4,804.4,918.6,420.0,3492.9,883.1,805.2,3477.1,3473.4,387.2,559.4,398.9,489.3,299.0,299.7,3475.9,3473.4,655.4,549.8,786.1,1002.2,1288.2,493.2,-12.0,-5.0,-13.0,11150.0,10797.0,4453.0,2774.0,-146.0,1.0,-43.0,-16.0,0.0,-14.0,12427.0,10450.0,2072.0,708.0,-140.0,-23.0,1.0,1.0
2022-05-08 18:25:19.048107-07:00,837.7,1113.9,1958.8,1025.4,783.6,571.4,1766.6,983.3,3472.2,3478.3,800.2,914.4,420.0,3492.9,883.1,801.0,3474.6,3473.4,387.2,559.4,399.6,491.7,299.7,299.7,3477.1,3473.4,655.4,549.8,787.7,1002.2,1277.4,493.2,-15.0,-2.0,-4.0,11212.0,10738.0,4439.0,2779.0,-266.0,-48.0,8.0,-19.0,13.0,-17.0,12476.0,10394.0,2060.0,708.0,-236.0,-45.0,21.0,1.0
2022-05-08 18:25:19.108398-07:00,837.7,1113.9,1958.8,1025.4,780.3,564.2,1742.6,983.3,3464.9,3478.3,800.2,914.4,420.8,3497.8,881.4,801.0,3474.6,3475.9,395.0,546.6,399.6,491.7,299.7,289.0,3477.1,3479.5,653.0,545.0,787.7,1002.2,1277.4,486.1,-20.0,-4.0,-17.0,11313.0,10642.0,4397.0,2803.0,-389.0,-94.0,11.0,-17.0,0.0,-22.0,12561.0,10297.0,2031.0,708.0,-378.0,-97.0,20.0,1.0
2022-05-08 18:25:19.168232-07:00,837.7,1105.1,1958.8,1020.2,780.3,564.2,1742.6,982.5,3464.9,3473.4,801.0,907.6,420.8,3497.8,881.4,799.4,3467.4,3475.9,395.0,546.6,402.0,491.7,298.2,289.0,3473.4,3479.5,653.0,545.0,791.9,1005.6,1275.6,486.1,-30.0,-20.0,6.0,11403.0,10568.0,4336.0,2814.0,-182.0,-136.0,127.0,-5.0,8.0,1.0,12636.0,10214.0,1990.0,695.0,-203.0,-119.0,22.0,1.0
2022-05-08 18:25:19.198009-07:00,838.6,1105.1,1958.8,1020.2,777.8,564.2,1733.0,982.5,3478.3,3473.4,801.0,907.6,420.0,3492.9,883.9,799.4,3467.4,3477.1,392.6,549.8,402.0,491.7,298.2,298.2,3473.4,3471.0,654.6,550.6,791.9,1005.6,1275.6,492.5,-20.0,-6.0,-21.0,11487.0,10527.0,4195.0,2843.0,-352.0,-400.0,240.0,0.0,-22.0,-11.0,12697.0,10146.0,1947.0,694.0,-317.0,-90.0,63.0,1.0
2022-05-08 18:25:19.258049-07:00,838.6,1092.9,1943.0,1020.2,777.8,564.2,1733.0,973.9,3478.3,3467.4,800.2,910.1,420.0,3492.9,883.9,804.4,3479.5,3477.1,392.6,549.8,398.9,488.5,300.5,298.2,3475.9,3471.0,654.6,550.6,783.6,1002.2,1289.1,492.5,11.0,35.0,15.0,11563.0,10522.0,4015.0,2808.0,-59.0,-244.0,60.0,-8.0,21.0,-37.0,12733.0,10108.0,1912.0,692.0,-102.0,-103.0,9.0,1.0
2022-05-08 18:25:19.318222-07:00,839.4,1078.2,1943.0,1020.2,777.8,564.2,1715.8,973.9,3471.0,3478.3,800.2,910.1,416.8,3494.1,879.7,804.4,3479.5,3484.4,388.7,550.6,398.9,488.5,300.5,296.7,3475.9,3483.2,649.7,545.0,783.6,1002.2,1282.8,490.1,-11.0,-25.0,41.0,11621.0,10489.0,3953.0,2783.0,-128.0,-100.0,-1.0,-3.0,-16.0,9.0,12773.0,10064.0,1882.0,677.0,-100.0,-42.0,1.0,1.0
2022-05-08 18:25:19.348057-07:00,839.4,1078.2,1935.1,1019.4,777.8,564.2,1705.3,973.1,3471.0,3478.3,797.7,922.0,416.8,3494.1,881.4,806.9,3478.3,3477.1,388.7,550.6,397.3,491.7,300.5,296.7,3477.1,3472.2,649.7,545.0,781.9,1002.2,1282.8,490.1,-5.0,10.0,25.0,11635.0,10487.0,3929.0,2764.0,28.0,3.0,-6.0,-9.0,12.0,-27.0,12773.0,10064.0,1883.0,676.0,47.0,23.0,-1.0,1.0
2022-05-08 18:25:19.408175-07:00,834.4,1073.8,1935.1,1019.4,777.8,560.2,1705.3,973.1,3475.9,3480.7,797.7,922.0,416.8,3497.8,881.4,806.9,3478.3,3477.1,389.5,555.4,397.3,491.7,292.1,299.7,3477.1,3472.2,646.5,547.4,781.9,1002.2,1279.2,505.1,-21.0,0.0,0.0,11636.0,10479.0,3945.0,2771.0,-39.0,39.0,-17.0,-16.0,8.0,-19.0,12762.0,10074.0,1898.0,681.0,11.0,36.0,-3.0,1.0
2022-05-08 18:25:19.498250-07:00,834.4,1073.8,1927.2,1016.8,777.8,560.2,1695.7,969.6,3475.9,3480.7,795.2,911.0,416.8,3497.8,874.7,801.0,3473.4,3480.7,389.5,555.4,399.6,492.5,292.1,299.7,3468.6,3478.3,646.5,547.4,779.4,1005.6,1279.2,505.1,-14.0,-5.0,-7.0,11639.0,10472.0,3955.0,2772.0,24.0,12.0,1.0,-15.0,0.0,-32.0,12753.0,10083.0,1911.0,680.0,18.0,6.0,0.0,1.0
2022-05-08 18:25:19.499688-07:00,841.9,1072.1,1927.2,1016.8,793.5,563.4,1695.7,969.6,3475.9,3479.5,795.2,911.0,415.3,3496.6,874.7,801.0,3473.4,3480.7,391.8,551.4,399.6,492.5,297.4,292.8,3468.6,3478.3,648.9,543.4,779.4,1005.6,1281.9,487.7,-16.0,-6.0,0.0,11641.0,10467.0,3959.0,2774.0,-82.0,-2.0,15.0,-13.0,8.0,-17.0,12754.0,10083.0,1913.0,675.0,-41.0,-16.0,0.0,1.0
2022-05-08 18:25:19.588376-07:00,841.9,1072.1,1928.2,1013.3,793.5,563.4,1683.3,968.8,3475.9,3479.5,795.2,908.4,415.3,3496.6,878.9,798.5,3474.6,3472.2,391.8,551.4,402.0,490.1,297.4,292.8,3484.4,3469.8,648.9,543.4,785.2,1004.8,1281.9,487.7,-3.0,-2.0,5.0,11660.0,10451.0,3942.0,2778.0,-18.0,-23.0,15.0,-12.0,4.0,-29.0,12764.0,10071.0,1908.0,670.0,-36.0,-28.0,5.0,1.0
2022-05-08 18:25:19.590059-07:00,838.6,1066.9,1915.4,1013.3,778.6,561.0,1683.3,968.8,3478.3,3467.4,793.5,908.4,416.8,3499.0,878.9,798.5,3474.6,3472.2,391.8,550.6,402.0,493.2,295.9,293.6,3484.4,3469.8,643.2,541.0,785.2,998.7,1273.9,490.9,-10.0,-6.0,11.0,11664.0,10450.0,3935.0,2777.0,-44.0,-23.0,35.0,-6.0,10.0,-12.0,12770.0,10065.0,1901.0,662.0,-23.0,-20.0,-2.0,1.0
2022-05-08 18:25:19.648088-07:00,838.6,1066.9,1915.4,1018.5,778.6,563.4,1677.6,971.3,3478.3,3467.4,793.5,910.1,416.8,3491.7,873.0,799.4,3475.9,3478.3,394.2,550.6,398.1,493.2,295.9,293.6,3478.3,3477.1,646.5,541.0,781.9,998.7,1273.9,490.9,-20.0,-6.0,-10.0,11697.0,10420.0,3898.0,2799.0,-220.0,-101.0,116.0,-14.0,1.0,0.0,12793.0,10037.0,1897.0,664.0,-160.0,-19.0,15.0,1.0
2022-05-08 18:25:19.708127-07:00,841.9,1071.2,1906.6,1018.5,772.0,563.4,1677.6,971.3,3471.0,3468.6,795.2,910.1,423.9,3491.7,873.0,799.4,3475.9,3478.3,394.2,549.8,398.1,491.7,293.6,292.8,3478.3,3477.1,646.5,541.8,781.9,999.6,1273.9,490.1,-33.0,12.0,-13.0,11765.0,10373.0,3802.0,2822.0,-294.0,-204.0,204.0,-24.0,6.0,-8.0,12828.0,9993.0,1887.0,664.0,-142.0,-32.0,11.0,1.0
2022-05-08 18:25:19.738337-07:00,841.9,1071.2,1906.6,1019.4,772.0,557.0,1674.8,1016.8,3471.0,3468.6,795.2,912.7,423.9,3499.0,874.7,799.4,3472.2,3478.3,392.6,549.8,403.5,491.7,293.6,292.8,3479.5,3478.3,654.6,541.8,796.9,999.6,1273.9,490.1,-31.0,112.0,4.0,11901.0,10231.0,3711.0,2888.0,-946.0,184.0,-141.0,-45.0,39.0,-26.0,12934.0,9868.0,1839.0,615.0,-617.0,-309.0,-157.0,1.0
2022-05-08 18:25:19.798100-07:00,841.1,1089.5,1918.3,1019.4,779.4,557.0,1674.8,1016.8,3467.4,3473.4,801.0,912.7,420.8,3499.0,874.7,799.4,3472.2,3478.3,392.6,552.2,403.5,494.8,295.1,297.4,3479.5,3478.3,654.6,537.0,796.9,1008.2,1325.9,490.1,-88.0,-29.0,-164.0,12238.0,9793.0,3708.0,3004.0,-1823.0,-8.0,-11.0,-62.0,36.0,-53.0,13232.0,9491.0,1732.0,514.0,-1479.0,-499.0,-76.0,1.0
2022-05-08 18:25:19.828192-07:00,841.1,1089.5,1918.3,1016.8,779.4,560.2,1738.7,1175.3,3467.4,3473.4,801.0,908.4,420.8,3507.5,910.1,801.9,3475.9,3474.6,388.7,552.2,399.6,494.8,295.1,297.4,3483.2,3485.6,646.5,537.0,786.9,1008.2,1325.9,490.1,-13.0,120.0,-119.0,12819.0,9078.0,3410.0,3176.0,-2672.0,-562.0,76.0,-21.0,38.0,-7.0,13733.0,8804.0,1452.0,467.0,-2451.0,-621.0,163.0,1.0
2022-05-08 18:25:19.918138-07:00,836.1,1040.1,1912.4,1011.6,777.8,560.2,1738.7,1175.3,3480.7,3466.1,798.5,910.1,416.8,3507.5,910.1,801.9,3475.9,3474.6,388.7,550.6,401.2,496.4,295.1,289.0,3483.2,3485.6,646.5,542.6,790.2,1007.3,1459.8,486.9,-53.0,107.0,26.0,13538.0,8115.0,2991.0,3218.0,-2813.0,-499.0,-295.0,-70.0,105.0,-4.0,14301.0,7899.0,1176.0,387.0,-2372.0,-702.0,-175.0,1.0
2022-05-08 18:25:19.948100-07:00,836.1,1040.1,1912.4,1011.6,776.9,557.0,1749.3,1163.8,3480.7,3466.1,798.5,910.1,423.9,3496.6,940.7,801.9,3467.4,3473.4,391.8,549.8,401.2,496.4,295.1,289.0,3477.1,3474.6,640.0,540.2,790.2,1007.3,1459.8,486.9,-83.0,7.0,-36.0,14063.0,7282.0,2742.0,3178.0,-1959.0,-324.0,-389.0,-81.0,5.0,-2.0,14719.0,7129.0,965.0,178.0,-1906.0,-670.0,-408.0,1.0
2022-05-08 18:25:20.008388-07:00,1742.6,1021.9,1909.5,1016.8,776.9,557.0,1749.3,1163.8,3471.0,3473.4,791.9,916.0,423.9,3496.6,940.7,801.9,3467.4,3473.4,391.8,549.8,402.0,495.6,290.5,291.3,3477.1,3474.6,640.0,540.2,788.6,1022.8,1583.3,489.3,-35.0,-132.0,-32.0,14481.0,6498.0,2535.0,3174.0,-2134.0,-101.0,-225.0,-36.0,-107.0,-66.0,15000.0,6543.0,790.0,-5.0,-1897.0,-700.0,-291.0,1.0
2022-05-08 18:25:20.038741-07:00,1742.6,1021.9,1909.5,1016.8,782.7,553.8,1743.5,1149.8,3471.0,3473.4,791.9,916.0,418.4,3499.0,981.6,815.2,3479.5,3475.9,390.3,552.2,402.0,495.6,290.5,291.3,3484.4,3477.1,638.4,539.4,788.6,1022.8,1583.3,489.3,-44.0,-170.0,-76.0,14785.0,5839.0,2382.0,3172.0,-1365.0,-246.0,-210.0,-26.0,-130.0,-34.0,15281.0,5879.0,577.0,-157.0,-1208.0,-627.0,-162.0,1.0
2022-05-08 18:25:20.098086-07:00,1059.1,1003.0,1929.2,1016.8,782.7,553.8,1743.5,1149.8,3464.9,3478.3,795.2,911.8,418.4,3499.0,981.6,815.2,3479.5,3475.9,390.3,552.2,401.2,491.7,294.4,286.7,3484.4,3477.1,638.4,539.4,788.6,1065.1,1694.8,485.3,85.0,-13.0,56.0,14982.0,5442.0,2157.0,3115.0,-1084.0,-388.0,-182.0,77.0,-3.0,-58.0,15448.0,5440.0,345.0,-299.0,-1061.0,-609.0,-130.0,1.0
2022-05-08 18:25:20.128237-07:00,884.8,1003.0,1929.2,1016.8,775.3,553.0,1699.5,1127.0,3475.9,3478.3,795.2,911.8,419.2,3495.3,994.5,810.2,3474.6,3473.4,391.8,549.8,401.2,491.7,294.4,292.8,3477.1,3478.3,631.1,537.8,788.6,1065.1,1694.8,490.9,31.0,-71.0,106.0,15106.0,5137.0,2159.0,3034.0,-310.0,347.0,-286.0,77.0,14.0,25.0,15553.0,5130.0,185.0,-424.0,-186.0,-291.0,-204.0,1.0
2022-05-08 18:25:20.188526-07:00,884.8,1006.5,1919.3,1018.5,775.3,553.0,1699.5,1110.4,3475.9,3477.1,794.4,915.2,419.2,3495.3,994.5,816.9,3472.2,3473.4,391.8,549.8,399.6,492.5,290.5,292.8,3479.5,3478.3,631.1,537.8,788.6,1066.0,1729.1,490.9,47.0,19.0,-50.0,15109.0,5050.0,2308.0,3053.0,-227.0,316.0,-55.0,55.0,32.0,-47.0,15576.0,5054.0,118.0,-513.0,-374.0,-190.0,-60.0,1.0
2022-05-08 18:25:20.248168-07:00,840.3,1006.5,1919.3,1018.5,778.6,550.6,1652.0,1110.4,3475.9,3477.1,794.4,915.2,418.4,3491.7,1063.4,816.9,3472.2,3472.2,390.3,549.8,399.6,492.5,290.5,289.0,3479.5,3477.1,630.3,527.4,788.6,1066.0,1729.1,486.9,-19.0,-55.0,-25.0,15155.0,4867.0,2415.0,3041.0,-209.0,241.0,-263.0,7.0,-10.0,-3.0,15631.0,4880.0,64.0,-540.0,-169.0,-92.0,-36.0,1.0
2022-05-08 18:25:20.278179-07:00,840.3,993.6,1898.7,1009.0,778.6,550.6,1652.0,1086.8,3475.9,3467.4,794.4,911.0,418.4,3491.7,1063.4,820.2,3478.3,3472.2,390.3,549.8,401.2,494.0,292.8,289.0,3480.7,3477.1,630.3,527.4,784.4,1073.8,1760.8,486.9,-17.0,1.0,0.0,15153.0,4868.0,2472.0,3002.0,62.0,0.0,-64.0,-21.0,1.0,-27.0,15634.0,4868.0,21.0,-568.0,-18.0,-149.0,-11.0,1.0
2022-05-08 18:25:20.368052-07:00,3502.7,993.6,1898.7,1009.0,773.6,542.6,1627.5,1086.8,3467.4,3467.4,794.4,911.0,417.6,3497.8,1101.7,820.2,3478.3,3478.3,387.9,549.0,401.2,494.0,292.8,285.9,3480.7,3483.2,635.1,531.4,784.4,1073.8,1760.8,496.4,-18.0,-47.0,63.0,15159.0,4841.0,2523.0,2975.0,35.0,105.0,-113.0,0.0,-34.0,0.0,15617.0,4917.0,-48.0,-608.0,269.0,-193.0,-42.0,1.0
2022-05-08 18:25:20.398159-07:00,3502.7,988.5,1885.0,1013.3,773.6,542.6,1627.5,1077.3,3467.4,3474.6,787.7,912.7,417.6,3497.8,1101.7,828.5,3474.6,3478.3,387.9,549.0,397.3,495.6,289.0,285.9,3481.9,3483.2,635.1,531.4,798.5,1072.1,1803.2,496.4,-41.0,46.0,32.0,15128.0,4952.0,2583.0,2898.0,388.0,-173.0,-186.0,-7.0,48.0,48.0,15562.0,5084.0,-62.0,-632.0,531.0,53.0,-67.0,1.0
2022-05-08 18:25:20.428261-07:00,847.8,976.5,1885.0,1013.3,869.6,546.6,1587.1,1077.3,3473.4,3474.6,787.7,912.7,417.6,3497.8,1162.1,828.5,3474.6,3479.5,393.4,553.0,397.3,495.6,292.1,293.6,3481.9,3477.1,631.9,531.4,798.5,1072.1,1844.0,573.0,10.0,-50.0,-29.0,15089.0,5089.0,2621.0,2827.0,307.0,121.0,-44.0,15.0,9.0,-38.0,15487.0,5304.0,-46.0,-675.0,477.0,27.0,-95.0,1.0
2022-05-08 18:25:20.488531-07:00,847.8,976.5,1869.3,1026.3,869.6,546.6,1565.5,1090.3,3473.4,3474.6,785.2,908.4,417.6,3497.8,1168.2,831.1,3474.6,3467.4,393.4,553.0,398.1,493.2,292.1,293.6,3483.2,3472.2,631.9,531.4,797.7,1059.9,1844.0,573.0,34.0,25.0,-1.0,15029.0,5212.0,2713.0,2837.0,356.0,244.0,43.0,28.0,11.0,-29.0,15425.0,5484.0,-13.0,-660.0,446.0,98.0,45.0,1.0
2022-05-08 18:25:20.548069-07:00,1929.2,969.6,1869.3,1026.3,936.4,548.2,1565.5,1090.3,3469.8,3475.9,785.2,908.4,416.8,3492.9,1168.2,831.1,3474.6,3467.4,389.5,550.6,398.1,493.2,285.9,287.5,3483.2,3472.2,631.1,526.6,797.7,1059.9,1810.0,561.0,32.0,-40.0,139.0,14936.0,5356.0,2937.0,2836.0,806.0,611.0,-4.0,43.0,45.0,22.0,15339.0,5722.0,35.0,-639.0,808.0,199.0,-56.0,1.0
2022-05-08 18:25:20.578542-07:00,1929.2,969.6,1843.0,1029.7,936.4,548.2,1549.7,1104.3,3469.8,3475.9,771.1,912.7,416.8,3492.9,1172.6,836.1,3467.4,3488.0,389.5,550.6,398.9,492.5,285.9,287.5,3473.4,3477.1,631.1,526.6,798.5,1059.1,1810.0,561.0,65.0,4.0,141.0,14651.0,5817.0,3382.0,2917.0,1519.0,1175.0,85.0,57.0,-23.0,16.0,15128.0,6254.0,169.0,-650.0,1531.0,448.0,-201.0,1.0
2022-05-08 18:25:20.637945-07:00,1791.6,970.5,1843.0,1029.7,926.2,551.4,1549.7,1104.3,3472.2,3471.0,771.1,912.7,415.3,3507.5,1172.6,836.1,3467.4,3488.0,388.7,552.2,398.9,492.5,287.5,287.5,3473.4,3477.1,627.0,528.2,798.5,1059.1,1794.5,545.0,41.0,-160.0,129.0,14036.0,6727.0,4125.0,3025.0,3505.0,1764.0,552.0,48.0,-14.0,17.0,14678.0,7233.0,474.0,-664.0,3261.0,930.0,-405.0,1.0
2022-05-08 18:25:20.698107-07:00,1791.6,970.5,1829.4,1027.1,926.2,551.4,1533.8,1101.7,3472.2,3471.0,775.3,911.0,415.3,3507.5,1155.9,836.1,3480.7,3483.2,388.7,552.2,398.9,494.0,287.5,287.5,3477.1,3477.1,627.0,528.2,791.9,1056.5,1794.5,545.0,37.0,-108.0,-75.0,13027.0,8032.0,4968.0,3090.0,3998.0,1714.0,470.0,-6.0,-37.0,-68.0,13871.0,8640.0,954.0,-684.0,3781.0,1328.0,-572.0,1.0
2022-05-08 18:25:20.728243-07:00,873.8,962.8,1816.8,1027.1,927.1,545.8,1533.8,1101.7,3478.3,3475.9,777.8,911.0,423.9,3495.3,1155.9,836.1,3480.7,3483.2,394.2,550.6,398.9,491.7,285.9,290.5,3477.1,3477.1,623.0,526.6,791.9,1053.0,1757.9,541.8,20.0,-48.0,-124.0,11879.0,9232.0,5697.0,3105.0,3519.0,1557.0,562.0,-12.0,-19.0,-35.0,12917.0,9946.0,1484.0,-676.0,3494.0,1233.0,-507.0,1.0
2022-05-08 18:25:20.788570-07:00,873.8,962.8,1816.8,1028.8,927.1,550.6,1525.5,1079.0,3478.3,3475.9,777.8,912.7,423.9,3507.5,1134.0,824.4,3479.5,3474.6,390.3,550.6,403.5,491.7,285.9,290.5,3472.2,3477.1,625.4,526.6,788.6,1053.0,1757.9,541.8,-59.0,59.0,-107.0,10923.0,10056.0,6185.0,3122.0,2267.0,998.0,446.0,-68.0,53.0,22.0,12092.0,10874.0,1893.0,-628.0,2317.0,964.0,-272.0,1.0
2022-05-08 18:25:20.848164-07:00,858.7,963.7,1798.4,1028.8,962.8,550.6,1525.5,1079.0,3462.5,3474.6,777.8,912.7,416.8,3507.5,1134.0,824.4,3479.5,3474.6,390.3,548.2,403.5,494.8,286.7,280.6,3472.2,3477.1,625.4,525.0,788.6,1048.7,1735.8,546.6,-55.0,69.0,-74.0,10429.0,10410.0,6413.0,3189.0,689.0,574.0,251.0,-61.0,23.0,-32.0,11662.0,11296.0,2135.0,-526.0,729.0,569.0,-49.0,1.0
2022-05-08 18:25:20.877943-07:00,858.7,963.7,1798.4,1016.8,962.8,547.4,1531.0,1071.2,3462.5,3474.6,777.8,905.9,416.8,3488.0,1129.6,829.4,3479.5,3483.2,396.5,548.2,398.1,494.8,286.7,280.6,3475.9,3478.3,627.0,525.0,794.4,1048.7,1735.8,546.6,-20.0,0.0,-90.0,10254.0,10510.0,6474.0,3305.0,206.0,264.0,239.0,-59.0,-21.0,-65.0,11505.0,11436.0,2255.0,-431.0,350.0,331.0,13.0,1.0
2022-05-08 18:25:20.968670-07:00,2502.6,968.8,1797.4,1016.8,953.4,547.4,1531.0,1071.2,3477.1,3471.0,777.8,905.9,420.0,3488.0,1129.6,829.4,3479.5,3483.2,396.5,553.8,398.1,490.9,282.9,288.2,3475.9,3478.3,627.0,517.9,794.4,1047.0,1708.1,534.6,-13.0,67.0,-86.0,10179.0,10525.0,6514.0,3410.0,-169.0,266.0,56.0,-47.0,21.0,-62.0,11433.0,11498.0,2319.0,-378.0,-2.0,127.0,-10.0,1.0
2022-05-08 18:25:20.997679-07:00,2502.6,968.8,1797.4,1014.2,953.4,545.8,1501.4,1040.9,3477.1,3471.0,777.8,909.3,420.0,3492.9,1130.5,825.2,3471.0,3471.0,391.8,553.8,398.9,490.9,282.9,288.2,3471.0,3474.6,623.8,517.9,779.4,1047.0,1708.1,534.6,-18.0,-30.0,-75.0,10279.0,10389.0,6523.0,3508.0,-486.0,20.0,-67.0,-13.0,-19.0,-42.0,11512.0,11418.0,2326.0,-358.0,-390.0,-54.0,35.0,1.0
2022-05-08 18:25:21.028058-07:00,2321.2,959.4,1791.6,1013.3,920.3,545.8,1501.4,1040.9,3471.0,3478.3,780.3,911.0,420.8,3492.9,1130.5,825.2,3471.0,3471.0,391.8,550.6,395.7,490.1,287.5,286.7,3471.0,3474.6,623.8,521.8,777.8,1042.6,1709.1,534.6,-5.0,-28.0,-36.0,10365.0,10320.0,6479.0,3540.0,-158.0,-68.0,56.0,-14.0,-2.0,-33.0,11587.0,11348.0,2293.0,-353.0,-128.0,-88.0,45.0,1.0
2022-05-08 18:25:21.088258-07:00,2321.2,959.4,1791.6,1013.3,911.0,544.2,1492.1,1031.4,3471.0,3478.3,780.3,911.0,414.5,3499.0,1118.2,824.4,3475.9,3473.4,393.4,549.0,395.7,490.1,287.5,286.7,3472.2,3479.5,619.7,521.0,777.8,1042.6,1709.1,534.6,-3.0,17.0,0.0,10462.0,10261.0,6413.0,3544.0,-352.0,-158.0,-63.0,-15.0,15.0,-22.0,11665.0,11279.0,2241.0,-355.0,-326.0,-139.0,60.0,1.0
2022-05-08 18:25:21.179229-07:00,868.8,959.4,1777.2,1007.3,911.0,544.2,1492.1,1031.4,3472.2,3467.4,771.1,910.1,414.5,3499.0,1118.2,824.4,3475.9,3473.4,393.4,549.0,398.9,490.9,286.7,288.2,3472.2,3479.5,619.7,521.0,774.5,1042.6,1693.8,529.8,-31.0,-17.0,12.0,10566.0,10182.0,6370.0,3543.0,-206.0,-138.0,-41.0,-6.0,-8.0,18.0,11760.0,11189.0,2193.0,-359.0,-241.0,-94.0,39.0,1.0
2022-05-08 18:25:21.180346-07:00,868.8,959.4,1777.2,1007.3,901.7,539.4,1481.9,1031.4,3472.2,3467.4,771.1,910.1,417.6,3490.5,1107.8,817.7,3483.2,3479.5,385.6,552.2,398.9,490.9,286.7,288.2,3480.7,3472.2,614.1,524.2,774.5,1042.6,1693.8,529.8,-16.0,-15.0,27.0,10653.0,10124.0,6324.0,3529.0,-186.0,-119.0,-27.0,-2.0,4.0,7.0,11830.0,11122.0,2159.0,-362.0,-196.0,-73.0,29.0,1.0
2022-05-08 18:25:21.238327-07:00,852.0,958.5,1777.2,1012.5,901.7,539.4,1481.9,1031.4,3479.5,3477.1,773.6,911.0,417.6,3490.5,1107.8,817.7,3483.2,3479.5,385.6,552.2,395.0,492.5,288.2,289.0,3480.7,3472.2,614.1,524.2,778.6,1046.1,1693.8,531.4,-17.0,-14.0,30.0,10715.0,10067.0,6303.0,3543.0,-184.0,-5.0,-19.0,1.0,-10.0,12.0,11886.0,11066.0,2137.0,-356.0,-182.0,-25.0,29.0,1.0
2022-05-08 18:25:21.328123-07:00,852.0,958.5,1777.2,1012.5,894.1,538.6,1471.8,1021.1,3479.5,3477.1,773.6,911.0,419.2,3492.9,1109.5,820.2,3477.1,3474.6,390.3,549.0,395.0,492.5,288.2,289.0,3479.5,3485.6,619.7,523.4,778.6,1046.1,1693.8,531.4,-8.0,-9.0,3.0,10756.0,10018.0,6297.0,3568.0,-150.0,29.0,-19.0,-4.0,-5.0,-8.0,11931.0,11020.0,2129.0,-343.0,-139.0,-13.0,19.0,1.0
2022-05-08 18:25:21.329421-07:00,849.5,958.5,1770.4,1011.6,894.1,538.6,1471.8,1020.2,3475.9,3462.5,772.8,902.5,419.2,3492.9,1109.5,818.5,3479.5,3474.6,390.3,549.0,402.8,493.2,283.6,284.4,3478.3,3485.6,619.7,523.4,771.1,1061.7,1688.1,528.2,-14.0,1.0,-2.0,10766.0,9990.0,6309.0,3595.0,-55.0,84.0,11.0,-7.0,-4.0,-2.0,11947.0,11003.0,2127.0,-341.0,-33.0,-8.0,7.0,1.0
2022-05-08 18:25:21.388946-07:00,852.0,958.5,1770.4,1011.6,889.0,535.4,1465.4,1020.2,3472.2,3462.5,772.8,902.5,417.6,3505.1,1112.1,818.5,3479.5,3478.3,388.7,549.8,402.8,493.2,283.6,286.7,3478.3,3474.6,618.1,524.2,771.1,1061.7,1688.1,531.4,-13.0,-5.0,-5.0,10776.0,9967.0,6313.0,3621.0,-127.0,33.0,24.0,-4.0,0.0,-5.0,11963.0,10986.0,2123.0,-337.0,-101.0,-12.0,26.0,1.0
2022-05-08 18:25:21.448083-07:00,852.0,948.3,1774.3,1021.9,889.0,535.4,1465.4,1018.5,3472.2,3468.6,773.6,906.7,417.6,3505.1,1112.1,822.7,3483.2,3478.3,388.7,549.8,395.0,489.3,285.9,286.7,3483.2,3474.6,618.1,524.2,767.8,1039.2,1673.8,531.4,-10.0,3.0,-21.0,10817.0,9923.0,6297.0,3650.0,-219.0,-44.0,-24.0,-8.0,0.0,-14.0,12006.0,10942.0,2109.0,-327.0,-204.0,-43.0,31.0,1.0
2022-05-08 18:25:21.478144-07:00,845.3,948.3,1774.3,1021.9,881.4,540.2,1462.6,1018.5,3479.5,3468.6,773.6,906.7,424.7,3497.8,1103.4,822.7,3483.2,3477.1,394.2,549.0,395.0,489.3,285.9,289.0,3483.2,3475.9,619.7,525.0,767.8,1039.2,1673.8,533.0,-10.0,-29.0,-5.0,10878.0,9862.0,6282.0,3659.0,-123.0,-40.0,-39.0,-4.0,-11.0,-15.0,12057.0,10890.0,2089.0,-328.0,-123.0,-54.0,9.0,1.0
2022-05-08 18:25:21.538766-07:00,845.3,950.0,1762.7,1020.2,881.4,540.2,1462.6,1005.6,3479.5,3469.8,775.3,911.0,424.7,3497.8,1103.4,820.2,3481.9,3477.1,394.2,549.0,398.9,494.0,288.2,289.0,3485.6,3475.9,619.7,525.0,780.3,1037.5,1673.8,533.0,-10.0,18.0,0.0,10907.0,9845.0,6261.0,3654.0,-122.0,-67.0,-10.0,-5.0,10.0,-4.0,12083.0,10864.0,2074.0,-335.0,-115.0,-52.0,19.0,1.0
2022-05-08 18:25:21.598078-07:00,843.6,950.0,1762.7,1020.2,875.5,535.4,1463.5,1005.6,3478.3,3469.8,775.3,911.0,420.0,3491.7,1105.1,820.2,3481.9,3472.2,394.2,549.0,398.9,494.0,288.2,285.9,3485.6,3484.4,623.0,524.2,780.3,1037.5,1673.8,527.4,-2.0,-3.0,15.0,10966.0,9797.0,6233.0,3655.0,-175.0,-41.0,-46.0,2.0,-7.0,-4.0,12134.0,10811.0,2051.0,-334.0,-186.0,-49.0,26.0,1.0
2022-05-08 18:25:21.628301-07:00,843.6,952.6,1762.7,1007.3,875.5,535.4,1455.2,1011.6,3478.3,3480.7,772.8,905.0,420.0,3491.7,1090.3,821.9,3471.0,3477.1,394.2,549.0,400.4,496.4,288.2,285.9,3472.2,3474.6,623.0,524.2,772.8,1037.5,1660.6,527.4,-16.0,-30.0,21.0,10999.0,9761.0,6230.0,3654.0,72.0,-9.0,11.0,0.0,-5.0,4.0,12167.0,10777.0,2040.0,-332.0,46.0,13.0,-7.0,1.0
2022-05-08 18:25:21.718806-07:00,839.4,942.4,1762.7,1007.3,878.0,538.6,1455.2,1011.6,3468.6,3481.9,772.8,905.0,410.6,3486.8,1090.3,821.9,3471.0,3477.1,388.7,550.6,400.4,496.4,291.3,284.4,3472.2,3474.6,614.1,517.9,772.8,1037.5,1659.6,523.4,-13.0,-3.0,8.0,10989.0,9772.0,6232.0,3656.0,-33.0,37.0,16.0,-6.0,-1.0,-6.0,12163.0,10781.0,2039.0,-331.0,-22.0,1.0,13.0,1.0
2022-05-08 18:25:21.748158-07:00,839.4,942.4,1759.8,1015.1,878.0,538.6,1454.3,1017.6,3468.6,3481.9,778.6,908.4,410.6,3486.8,1090.3,818.5,3474.6,3479.5,388.7,550.6,396.5,493.2,291.3,284.4,3479.5,3480.7,614.1,517.9,767.0,1040.1,1659.6,523.4,-12.0,4.0,5.0,10987.0,9764.0,6239.0,3670.0,4.0,37.0,-11.0,-2.0,0.0,-4.0,12165.0,10778.0,2041.0,-327.0,7.0,16.0,-7.0,1.0
2022-05-08 18:25:21.808144-07:00,852.0,947.5,1759.8,1015.1,873.8,536.2,1454.3,1017.6,3474.6,3467.4,778.6,908.4,415.3,3496.6,1090.3,818.5,3474.6,3479.5,388.7,547.4,396.5,493.2,285.9,285.9,3479.5,3480.7,610.0,521.0,767.0,1040.1,1659.6,531.4,-11.0,-9.0,-8.0,10975.0,9768.0,6255.0,3667.0,38.0,19.0,3.0,-9.0,0.0,-14.0,12158.0,10785.0,2049.0,-325.0,15.0,10.0,-2.0,1.0
2022-05-08 18:25:21.838171-07:00,852.0,947.5,1750.2,1000.5,873.8,536.2,1453.4,1009.0,3474.6,3467.4,772.0,904.2,415.3,3496.6,1098.2,819.4,3475.9,3480.7,388.7,547.4,396.5,492.5,285.9,285.9,3483.2,3484.4,610.0,521.0,759.6,1033.2,1659.6,531.4,-12.0,-10.0,0.0,10972.0,9769.0,6260.0,3666.0,8.0,-16.0,12.0,-2.0,-6.0,-5.0,12157.0,10785.0,2051.0,-325.0,-6.0,7.0,3.0,1.0
2022-05-08 18:25:21.958415-07:00,843.6,935.6,1750.2,1000.5,872.1,541.0,1453.4,1009.0,3473.4,3472.2,772.0,904.2,418.4,3496.6,1098.2,819.4,3475.9,3480.7,388.7,551.4,396.5,492.5,280.6,282.1,3483.2,3484.4,614.1,522.6,759.6,1033.2,1639.8,526.6,-6.0,-3.0,0.0,10970.0,9776.0,6254.0,3660.0,-21.0,-11.0,-9.0,-3.0,-2.0,-13.0,12157.0,10785.0,2053.0,-325.0,-21.0,-3.0,0.0,1.0
2022-05-08 18:25:21.959652-07:00,843.6,935.6,1771.4,1008.2,872.1,537.0,1440.5,1006.5,3473.4,3472.2,767.8,905.0,418.4,3492.9,1093.8,820.2,3479.5,3477.1,392.6,551.4,398.9,492.5,280.6,282.1,3474.6,3484.4,616.5,522.6,769.5,1031.4,1639.8,526.6,-14.0,1.0,3.0,10970.0,9777.0,6255.0,3658.0,62.0,0.0,-2.0,-5.0,4.0,-3.0,12154.0,10788.0,2056.0,-325.0,30.0,21.0,-12.0,1.0
2022-05-08 18:25:21.988178-07:00,846.1,947.5,1756.0,1008.2,868.8,537.0,1440.5,1006.5,3474.6,3474.6,775.3,905.0,416.8,3492.9,1093.8,820.2,3479.5,3477.1,392.6,547.4,398.9,490.9,285.2,284.4,3474.6,3484.4,616.5,523.4,769.5,1034.9,1645.4,526.6,-12.0,-8.0,0.0,10962.0,9787.0,6259.0,3648.0,-2.0,3.0,-2.0,-6.0,-3.0,-8.0,12149.0,10793.0,2061.0,-325.0,-3.0,3.0,1.0,1.0
2022-05-08 18:25:22.048119-07:00,846.1,947.5,1756.0,1011.6,868.8,536.2,1444.2,1007.3,3474.6,3474.6,775.3,914.4,416.8,3496.6,1086.8,816.9,3472.2,3471.0,395.7,547.4,400.4,490.9,285.2,284.4,3473.4,3480.7,615.7,523.4,765.3,1034.9,1645.4,526.6,-10.0,-5.0,6.0,10961.0,9785.0,6263.0,3650.0,-11.0,20.0,3.0,-6.0,1.0,-2.0,12149.0,10793.0,2062.0,-326.0,-6.0,0.0,4.0,1.0
2022-05-08 18:25:22.078282-07:00,847.0,940.7,1747.3,1011.6,863.7,536.2,1444.2,1007.3,3477.1,3467.4,768.7,914.4,415.3,3496.6,1086.8,816.9,3472.2,3471.0,395.7,544.2,400.4,494.0,291.3,285.9,3473.4,3480.7,615.7,521.0,765.3,1040.1,1651.1,525.8,-10.0,-1.0,-2.0,10959.0,9783.0,6267.0,3652.0,13.0,4.0,11.0,-7.0,0.0,-10.0,12148.0,10793.0,2064.0,-324.0,2.0,10.0,1.0,1.0
2022-05-08 18:25:22.168648-07:00,847.0,940.7,1747.3,1012.5,863.7,537.8,1437.8,1004.8,3477.1,3467.4,768.7,911.8,415.3,3497.8,1088.6,820.2,3474.6,3475.9,390.3,544.2,398.1,494.0,291.3,285.9,3485.6,3475.9,616.5,521.0,762.9,1040.1,1651.1,525.8,-4.0,-6.0,-6.0,10957.0,9785.0,6268.0,3652.0,1.0,-2.0,-3.0,-7.0,-1.0,-16.0,12147.0,10795.0,2066.0,-324.0,-2.0,-7.0,1.0,1.0
2022-05-08 18:25:22.170181-07:00,837.7,944.9,1748.3,1012.5,867.1,537.8,1437.8,1004.8,3475.9,3478.3,769.5,911.8,420.8,3497.8,1088.6,820.2,3474.6,3475.9,390.3,546.6,398.1,494.8,284.4,284.4,3485.6,3475.9,616.5,521.0,762.9,1033.2,1660.6,527.4,-6.0,9.0,-4.0,10961.0,9780.0,6268.0,3654.0,-29.0,-3.0,5.0,-8.0,0.0,-8.0,12149.0,10793.0,2062.0,-329.0,-31.0,-22.0,9.0,1.0
2022-05-08 18:25:22.228328-07:00,837.7,944.9,1748.3,1003.9,862.9,530.6,1436.9,1001.3,3475.9,3478.3,769.5,909.3,416.8,3496.6,1083.4,816.0,3473.4,3474.6,388.7,546.6,398.9,494.8,284.4,284.4,3481.9,3475.9,618.1,521.0,763.7,1033.2,1660.6,527.4,-2.0,3.0,-6.0,10989.0,9749.0,6266.0,3658.0,-140.0,-21.0,-57.0,-3.0,0.0,-6.0,12181.0,10758.0,2051.0,-328.0,-163.0,-34.0,16.0,1.0
2022-05-08 18:25:22.318676-07:00,842.8,940.7,1749.3,1008.2,862.9,530.6,1436.9,1001.3,3478.3,3471.0,774.5,905.0,416.8,3496.6,1083.4,816.0,3473.4,3474.6,388.7,546.6,398.9,490.9,285.9,283.6,3481.9,3475.9,618.1,521.0,767.8,1033.2,1646.4,526.6,-8.0,-1.0,-14.0,11055.0,9678.0,6260.0,3659.0,-260.0,-38.0,-107.0,-8.0,3.0,-12.0,12252.0,10681.0,2032.0,-325.0,-289.0,-68.0,21.0,1.0
2022-05-08 18:25:22.320276-07:00,842.8,940.7,1749.3,1008.2,861.2,534.6,1436.9,1005.6,3478.3,3471.0,774.5,905.0,416.8,3496.6,1088.6,821.9,3478.3,3478.3,392.6,549.8,398.9,490.9,285.9,283.6,3474.6,3478.3,611.7,523.4,767.8,1033.2,1646.4,526.6,-8.0,0.0,-12.0,11144.0,9581.0,6250.0,3657.0,-303.0,-56.0,-125.0,-5.0,-1.0,-4.0,12340.0,10586.0,2000.0,-328.0,-321.0,-108.0,25.0,1.0
2022-05-08 18:25:22.378762-07:00,839.4,937.3,1736.8,1015.1,861.2,534.6,1436.9,1005.6,3474.6,3472.2,764.5,905.0,416.8,3496.6,1088.6,821.9,3478.3,3478.3,392.6,549.8,396.5,489.3,287.5,282.1,3474.6,3478.3,611.7,523.4,757.1,1034.9,1645.4,522.6,-10.0,-9.0,2.0,11243.0,9485.0,6224.0,3649.0,-245.0,-104.0,-87.0,-5.0,-6.0,-7.0,12422.0,10497.0,1962.0,-336.0,-216.0,-91.0,15.0,1.0
2022-05-08 18:25:22.438362-07:00,839.4,937.3,1736.8,1015.1,857.9,534.6,1432.3,1001.3,3474.6,3472.2,764.5,905.0,419.2,3489.2,1084.2,814.4,3472.2,3471.0,388.7,548.2,396.5,489.3,287.5,282.1,3485.6,3478.3,612.5,519.5,757.1,1034.9,1645.4,522.6,-10.0,0.0,10.0,11305.0,9433.0,6204.0,3627.0,-133.0,-74.0,-85.0,2.0,-1.0,-1.0,12470.0,10444.0,1937.0,-349.0,-177.0,-76.0,1.0,1.0
2022-05-08 18:25:22.528146-07:00,834.4,938.1,1747.3,1007.3,857.9,534.6,1432.3,997.0,3471.0,3472.2,772.0,906.7,419.2,3489.2,1084.2,815.2,3485.6,3471.0,388.7,548.2,395.0,486.1,287.5,280.6,3481.9,3478.3,612.5,519.5,765.3,1035.7,1641.6,520.3,-12.0,-18.0,15.0,11381.0,9360.0,6183.0,3616.0,-240.0,-82.0,-76.0,-7.0,-11.0,-3.0,12537.0,10368.0,1906.0,-356.0,-200.0,-76.0,18.0,1.0
2022-05-08 18:25:22.530777-07:00,841.9,938.1,1747.3,1007.3,857.9,537.8,1427.7,997.0,3472.2,3472.2,772.0,906.7,413.7,3503.9,1086.0,815.2,3485.6,3477.1,389.5,547.4,395.0,486.1,287.5,287.5,3481.9,3472.2,614.1,525.0,765.3,1035.7,1641.6,524.2,-13.0,-10.0,5.0,11421.0,9325.0,6169.0,3605.0,-24.0,-29.0,-19.0,-3.0,-5.0,-4.0,12557.0,10346.0,1891.0,-365.0,-31.0,-39.0,2.0,1.0
2022-05-08 18:25:22.588145-07:00,841.9,939.8,1741.6,1010.8,857.9,537.8,1427.7,997.9,3472.2,3462.5,772.0,905.0,413.7,3503.9,1086.0,812.7,3477.1,3477.1,389.5,547.4,404.3,492.5,283.6,287.5,3474.6,3472.2,614.1,525.0,765.3,1032.3,1638.8,524.2,-1.0,40.0,-16.0,11455.0,9293.0,6151.0,3608.0,-216.0,-46.0,-53.0,-8.0,17.0,-22.0,12603.0,10295.0,1864.0,-369.0,-290.0,-103.0,36.0,1.0
2022-05-08 18:25:22.618195-07:00,845.3,939.8,1741.6,1010.8,851.1,532.2,1432.3,997.9,3467.4,3462.5,772.0,905.0,412.9,3499.0,1082.5,812.7,3477.1,3480.7,389.5,552.2,404.3,492.5,283.6,280.6,3474.6,3481.9,612.5,518.7,765.3,1032.3,1638.8,522.6,-12.0,-15.0,-24.0,11587.0,9141.0,6128.0,3615.0,-552.0,-87.0,-217.0,-5.0,-2.0,-24.0,12734.0,10143.0,1809.0,-373.0,-519.0,-162.0,42.0,1.0
2022-05-08 18:25:22.708304-07:00,845.3,939.0,1738.7,1000.5,851.1,532.2,1432.3,997.0,3467.4,3472.2,768.7,905.9,412.9,3499.0,1082.5,813.5,3467.4,3480.7,389.5,552.2,398.9,491.7,280.6,280.6,3472.2,3481.9,612.5,518.7,758.7,1034.9,1634.1,522.6,-9.0,0.0,-17.0,11728.0,8996.0,6086.0,3594.0,-356.0,-173.0,-145.0,-11.0,6.0,-20.0,12845.0,10011.0,1752.0,-389.0,-413.0,-178.0,36.0,1.0
2022-05-08 18:25:22.738369-07:00,845.3,939.0,1738.7,1000.5,843.6,533.0,1427.7,997.0,3475.9,3472.2,768.7,905.9,416.1,3494.1,1079.0,813.5,3467.4,3477.1,390.3,549.8,398.9,491.7,280.6,282.1,3472.2,3477.1,610.8,519.5,758.7,1034.9,1634.1,521.0,-16.0,42.0,-45.0,11908.0,8811.0,6016.0,3578.0,-791.0,-221.0,-243.0,-32.0,22.0,-22.0,13033.0,9782.0,1657.0,-406.0,-924.0,-347.0,92.0,1.0
2022-05-08 18:25:22.768224-07:00,845.3,936.4,1741.6,999.6,843.6,533.0,1430.5,1001.3,3475.9,3472.2,772.0,905.9,416.1,3494.1,1084.2,811.0,3478.3,3475.9,390.3,549.8,393.4,491.7,285.2,282.1,3473.4,3471.0,610.8,519.5,764.5,1032.3,1635.0,521.0,-52.0,24.0,-33.0,12246.0,8441.0,5877.0,3561.0,-1216.0,-472.0,-394.0,-32.0,29.0,5.0,13274.0,9472.0,1521.0,-430.0,-1215.0,-444.0,108.0,1.0
2022-05-08 18:25:22.828748-07:00,836.9,936.4,1741.6,999.6,849.5,538.6,1430.5,1001.3,3478.3,3462.5,772.0,905.9,413.7,3488.0,1084.2,811.0,3478.3,3475.9,390.3,549.0,393.4,491.7,287.5,284.4,3473.4,3471.0,610.0,517.9,764.5,1032.3,1630.3,521.0,-135.0,97.0,-94.0,12679.0,7995.0,5589.0,3540.0,-1686.0,-864.0,-132.0,-76.0,149.0,64.0,13637.0,8969.0,1347.0,-450.0,-1799.0,-557.0,124.0,1.0
2022-05-08 18:25:22.889472-07:00,836.9,936.4,1735.8,1004.8,849.5,538.6,1431.4,997.0,3478.3,3462.5,772.0,910.1,413.7,3488.0,1086.0,811.0,3474.6,3474.6,390.3,549.0,402.0,490.1,287.5,284.4,3477.1,3477.1,610.0,517.9,766.2,1024.5,1630.3,521.0,-62.0,13.0,-58.0,13280.0,7365.0,5006.0,3576.0,-2311.0,-1220.0,-108.0,-80.0,59.0,-18.0,14108.0,8240.0,1120.0,-490.0,-2173.0,-642.0,85.0,1.0
2022-05-08 18:25:22.948132-07:00,841.9,931.3,1735.8,1004.8,850.3,533.8,1431.4,997.0,3477.1,3478.3,772.0,910.1,416.1,3494.1,1086.0,811.0,3474.6,3474.6,390.3,551.4,402.0,490.1,282.1,284.4,3477.1,3477.1,615.7,520.3,766.2,1024.5,1632.2,521.8,-104.0,-25.0,-77.0,13885.0,6673.0,4287.0,3568.0,-2248.0,-1717.0,-13.0,-89.0,-21.0,17.0,14594.0,7372.0,906.0,-533.0,-2212.0,-693.0,32.0,1.0
2022-05-08 18:25:22.978217-07:00,841.9,931.3,1733.0,1007.3,850.3,533.8,1428.6,1003.0,3477.1,3478.3,764.5,909.3,416.1,3494.1,1072.1,811.9,3467.4,3475.9,390.3,551.4,398.9,491.7,282.1,284.4,3478.3,3480.7,615.7,520.3,759.6,1032.3,1632.2,521.8,52.0,-107.0,4.0,14446.0,5959.0,3515.0,3447.0,-2139.0,-1275.0,-419.0,-33.0,-78.0,-92.0,15011.0,6501.0,670.0,-617.0,-1879.0,-634.0,-101.0,1.0
2022-05-08 18:25:23.038329-07:00,838.6,927.9,1733.0,1007.3,855.3,533.8,1428.6,1003.0,3479.5,3480.7,764.5,909.3,419.2,3490.5,1072.1,811.9,3467.4,3475.9,392.6,553.8,398.9,491.7,283.6,287.5,3478.3,3480.7,611.7,520.3,759.6,1032.3,1628.4,523.4,-117.0,-148.0,-63.0,14812.0,5417.0,2967.0,3301.0,-1305.0,-1442.0,-118.0,-28.0,1.0,99.0,15271.0,5870.0,500.0,-735.0,-1244.0,-524.0,-97.0,1.0
2022-05-08 18:25:23.068181-07:00,838.6,927.9,1743.5,1018.5,855.3,537.8,1419.5,1002.2,3479.5,3480.7,769.5,912.7,419.2,3494.1,1070.3,813.5,3478.3,3483.2,391.1,553.8,402.0,495.6,283.6,287.5,3480.7,3488.0,612.5,520.3,762.0,1042.6,1628.4,523.4,151.0,-12.0,98.0,15087.0,5036.0,2332.0,3164.0,-1238.0,-910.0,-194.0,96.0,30.0,-81.0,15446.0,5391.0,340.0,-821.0,-1101.0,-396.0,-90.0,1.0
2022-05-08 18:25:23.368677-07:00,855.3,932.2,1743.5,1018.5,855.3,537.8,1419.5,1002.2,3478.3,3475.9,762.0,912.7,416.1,3494.1,1070.3,813.5,3478.3,3483.2,391.1,550.6,402.0,494.8,289.0,283.6,3480.7,3488.0,612.5,519.5,762.0,1039.2,1636.0,533.0,1.0,-95.0,14.0,15301.0,4545.0,2009.0,3102.0,-1356.0,-687.0,-85.0,65.0,-38.0,45.0,15606.0,4906.0,234.0,-881.0,-1045.0,-242.0,23.0,1.0
2022-05-08 18:25:23.370068-07:00,855.3,932.2,1743.5,1009.0,855.3,533.0,1421.3,1000.5,3478.3,3475.9,762.0,905.0,416.1,3497.8,1060.8,808.5,3484.4,3472.2,388.7,550.6,399.6,494.8,289.0,283.6,3478.3,3485.6,612.5,519.5,753.8,1039.2,1636.0,533.0,87.0,-88.0,36.0,15425.0,4265.0,1672.0,3087.0,-412.0,-374.0,92.0,62.0,-26.0,-72.0,15695.0,4611.0,165.0,-895.0,-365.0,-135.0,16.0,1.0
2022-05-08 18:25:23.371326-07:00,2148.3,926.2,1735.8,1009.0,841.1,533.0,1421.3,1000.5,3472.2,3469.8,752.9,905.0,418.4,3497.8,1060.8,808.5,3484.4,3472.2,388.7,553.8,399.6,495.6,283.6,280.6,3478.3,3485.6,612.5,520.3,753.8,1024.5,1640.7,525.8,10.0,2.0,-36.0,15506.0,4012.0,1490.0,3114.0,-916.0,-332.0,86.0,21.0,30.0,-2.0,15764.0,4377.0,119.0,-882.0,-730.0,-111.0,152.0,1.0
2022-05-08 18:25:23.373193-07:00,2148.3,926.2,1735.8,1013.3,841.1,537.8,1417.6,998.7,3472.2,3469.8,752.9,910.1,418.4,3496.6,1053.0,813.5,3479.5,3481.9,392.6,553.8,398.1,495.6,283.6,280.6,3478.3,3479.5,607.6,520.3,757.9,1024.5,1640.7,525.8,23.0,49.0,13.0,15521.0,3980.0,1386.0,3128.0,-76.0,-181.0,14.0,13.0,30.0,-10.0,15789.0,4289.0,116.0,-852.0,-64.0,52.0,28.0,1.0
2022-05-08 18:25:23.578773-07:00,1931.1,921.1,1735.8,1013.3,873.0,537.8,1417.6,998.7,3472.2,3472.2,754.6,910.1,417.6,3496.6,1053.0,813.5,3479.5,3481.9,392.6,553.8,398.1,496.4,279.0,282.1,3478.3,3479.5,607.6,517.1,757.9,1031.4,1635.0,557.0,-46.0,-53.0,-37.0,15537.0,3924.0,1337.0,3137.0,-144.0,-169.0,129.0,-25.0,-17.0,0.0,15803.0,4240.0,134.0,-829.0,-134.0,50.0,59.0,1.0
2022-05-08 18:25:23.608767-07:00,927.1,923.7,1731.1,1011.6,863.7,533.0,1410.3,1001.3,3478.3,3472.2,762.9,902.5,417.6,3497.8,1047.8,808.5,3478.3,3474.6,391.8,550.6,403.5,500.4,282.1,276.0,3480.7,3477.1,618.1,521.8,806.0,1037.5,1620.9,566.6,-11.0,26.0,-22.0,15567.0,3808.0,1139.0,3209.0,-457.0,-119.0,5.0,3.0,-16.0,-25.0,15841.0,4106.0,136.0,-780.0,-355.0,-19.0,42.0,1.0
2022-05-08 18:25:23.788406-07:00,927.1,923.7,1731.1,1011.6,861.2,532.2,1417.6,1004.8,3478.3,3472.2,762.9,902.5,416.1,3500.2,1032.3,811.0,3481.9,3478.3,394.2,553.0,403.5,500.4,282.1,276.0,3484.4,3481.9,611.7,520.3,806.0,1037.5,1620.9,566.6,-11.0,-26.0,-42.0,15592.0,3730.0,1082.0,3203.0,23.0,-87.0,-26.0,-1.0,-6.0,-21.0,15854.0,4056.0,131.0,-781.0,54.0,-7.0,-16.0,1.0
2022-05-08 18:25:23.789715-07:00,844.4,922.0,1736.8,1015.1,861.2,532.2,1417.6,1004.8,3474.6,3477.1,742.2,909.3,416.1,3500.2,1032.3,811.0,3481.9,3478.3,394.2,553.0,403.5,499.6,283.6,284.4,3484.4,3481.9,611.7,520.3,802.7,1031.4,1614.3,580.2,39.0,26.0,25.0,15593.0,3746.0,1046.0,3188.0,-62.0,12.0,-55.0,22.0,9.0,-10.0,15852.0,4064.0,125.0,-775.0,-15.0,4.0,23.0,1.0
2022-05-08 18:25:23.790662-07:00,844.4,922.0,1736.8,1015.1,883.9,530.6,1425.9,1034.0,3474.6,3477.1,742.2,909.3,416.8,3497.8,1035.7,808.5,3484.4,3479.5,391.1,553.8,403.5,499.6,283.6,284.4,3481.9,3474.6,620.5,519.5,802.7,1031.4,1614.3,580.2,1.0,3.0,4.0,15592.0,3748.0,1062.0,3185.0,40.0,39.0,33.0,9.0,4.0,-15.0,15850.0,4078.0,141.0,-758.0,52.0,52.0,38.0,1.0
2022-05-08 18:25:23.791665-07:00,833.6,918.6,1743.5,1003.9,883.9,530.6,1425.9,1034.0,3472.2,3467.4,750.5,909.3,416.8,3497.8,1035.7,808.5,3484.4,3479.5,391.1,553.8,403.5,501.2,279.0,287.5,3481.9,3474.6,620.5,519.5,801.9,1030.6,1605.8,598.7,7.0,2.0,-8.0,15585.0,3746.0,1092.0,3211.0,-40.0,80.0,2.0,14.0,-6.0,-6.0,15849.0,4084.0,157.0,-735.0,-49.0,70.0,58.0,1.0
2022-05-08 18:25:23.848134-07:00,841.9,918.6,1743.5,1003.9,893.2,530.6,1425.9,1036.6,3469.8,3467.4,750.5,909.3,409.8,3497.8,1028.0,807.7,3478.3,3472.2,391.1,553.8,403.5,501.2,279.0,287.5,3475.9,3473.4,624.6,520.3,801.9,1030.6,1605.8,593.9,9.0,6.0,22.0,15578.0,3756.0,1146.0,3217.0,116.0,197.0,36.0,8.0,37.0,1.0,15843.0,4111.0,191.0,-707.0,130.0,100.0,25.0,1.0
2022-05-08 18:25:23.849411-07:00,841.9,914.4,1739.7,1009.9,893.2,530.6,1425.9,1028.0,3469.8,3471.0,747.2,909.3,409.8,3497.8,1028.0,811.9,3468.6,3472.2,391.1,553.8,407.5,498.8,283.6,287.5,3480.7,3473.4,624.6,520.3,810.2,1037.5,1604.0,593.9,5.0,-8.0,26.0,15566.0,3748.0,1225.0,3253.0,-57.0,173.0,49.0,16.0,9.0,34.0,15838.0,4132.0,248.0,-672.0,11.0,170.0,59.0,1.0
2022-05-08 18:25:23.850440-07:00,841.9,914.4,1739.7,1009.9,893.2,530.6,1425.9,1028.0,3469.8,3471.0,747.2,909.3,409.8,3497.8,1028.0,811.9,3468.6,3472.2,391.1,553.8,407.5,498.8,283.6,287.5,3480.7,3473.4,624.6,520.3,810.2,1037.5,1604.0,593.9,5.0,-8.0,26.0,15566.0,3748.0,1225.0,3253.0,-57.0,173.0,49.0,16.0,9.0,34.0,15838.0,4132.0,248.0,-672.0,11.0,170.0,59.0,1.0
2022-05-08 18:25:23.877876-07:00,826.0,919.4,1745.4,1002.2,866.3,527.4,1406.7,1017.6,3466.1,3472.2,748.8,906.7,416.1,3503.9,1028.8,808.5,3477.1,3477.1,393.4,548.2,399.6,494.0,283.6,287.5,3480.7,3478.3,612.5,519.5,806.0,1035.7,1600.2,589.9,74.0,-346.0,-20.0,15062.0,4813.0,2436.0,3533.0,3327.0,1304.0,415.0,137.0,-218.0,23.0,15448.0,5385.0,843.0,-309.0,2755.0,1063.0,313.0,1.0
2022-05-08 18:25:23.968024-07:00,826.0,933.9,1769.5,1005.6,866.3,527.4,1406.7,1005.6,3466.1,3474.6,739.7,906.7,416.1,3503.9,1028.8,810.2,3474.6,3477.1,393.4,548.2,402.0,494.0,282.1,287.5,3478.3,3478.3,612.5,519.5,797.7,1029.7,1612.4,589.9,112.0,-414.0,-153.0,14242.0,6496.0,3293.0,3546.0,6341.0,1321.0,606.0,49.0,-184.0,-202.0,14719.0,7079.0,1295.0,-63.0,5143.0,1466.0,421.0,1.0
2022-05-08 18:25:24.058141-07:00,821.0,972.2,1769.5,1005.6,853.7,543.4,1426.8,1005.6,3479.5,3469.8,739.7,906.7,410.6,3486.8,1033.2,810.2,3474.6,3469.8,391.8,551.4,402.0,494.0,283.6,284.4,3478.3,3473.4,618.1,523.4,797.7,1029.7,1649.2,569.0,2.0,-108.0,-206.0,12680.0,8815.0,4252.0,3443.0,6220.0,1299.0,855.0,0.0,-59.0,-94.0,13454.0,9179.0,1771.0,194.0,5169.0,1554.0,467.0,1.0
2022-05-08 18:25:24.148769-07:00,821.0,972.2,1765.6,1005.6,853.7,543.4,1497.7,991.9,3479.5,3469.8,743.0,912.7,410.6,3486.8,1030.6,802.7,3488.0,3474.6,391.8,551.4,402.0,492.5,283.6,284.4,3474.6,3478.3,618.1,523.4,798.5,1028.0,1649.2,569.0,-6.0,167.0,-206.0,11086.0,10478.0,4923.0,3394.0,4114.0,1361.0,821.0,-80.0,212.0,-140.0,12223.0,10674.0,2199.0,505.0,3773.0,1378.0,418.0,1.0
2022-05-08 18:25:24.358914-07:00,840.3,1098.2,1765.6,1005.6,844.4,540.2,1497.7,991.9,3473.4,3474.6,743.0,912.7,418.4,3517.3,1030.6,802.7,3488.0,3474.6,393.4,553.0,402.0,492.5,283.6,287.5,3474.6,3478.3,651.4,525.8,798.5,1028.0,1553.4,565.0,-216.0,579.0,-385.0,9870.0,11406.0,5326.0,3544.0,1731.0,499.0,610.0,-214.0,442.0,-70.0,11320.0,11551.0,2512.0,734.0,2065.0,911.0,80.0,1.0
2022-05-08 18:25:24.360245-07:00,840.3,1098.2,1749.3,1000.5,844.4,540.2,1726.3,986.7,3473.4,3474.6,754.6,910.1,418.4,3517.3,973.1,797.7,3475.9,3483.2,393.4,553.0,403.5,489.3,283.6,287.5,3475.9,3485.6,651.4,525.8,793.5,1029.7,1553.4,565.0,6.0,-9.0,-170.0,9448.0,11709.0,5482.0,3465.0,928.0,216.0,-304.0,-72.0,48.0,-187.0,10867.0,11926.0,2734.0,789.0,1028.0,329.0,-125.0,1.0
2022-05-08 18:25:24.361239-07:00,831.1,1121.7,1749.3,1000.5,844.4,537.8,1726.3,986.7,3475.9,3469.8,754.6,910.1,418.4,3502.7,973.1,797.7,3475.9,3483.2,390.3,546.6,403.5,489.3,285.2,282.1,3475.9,3485.6,653.0,523.4,793.5,1029.7,1488.4,564.2,-74.0,-52.0,-88.0,9234.0,11830.0,5600.0,3445.0,338.0,87.0,182.0,-48.0,5.0,-23.0,10675.0,12083.0,2803.0,788.0,234.0,103.0,55.0,1.0
2022-05-08 18:25:24.363255-07:00,831.1,1121.7,1737.8,1003.9,844.4,537.8,1756.0,980.7,3475.9,3469.8,748.0,911.0,418.4,3502.7,957.7,791.9,3477.1,3475.9,390.3,546.6,400.4,491.7,285.2,282.1,3472.2,3474.6,653.0,523.4,795.2,1021.9,1488.4,564.2,-59.0,-6.0,-74.0,9286.0,11831.0,5481.0,3490.0,-228.0,-221.0,122.0,-102.0,-65.0,-96.0,10691.0,12069.0,2800.0,800.0,-32.0,-76.0,-37.0,1.0
2022-05-08 18:25:24.508748-07:00,836.1,1128.7,1731.1,1003.9,835.2,539.4,1756.0,980.7,3483.2,3467.4,744.7,911.0,416.1,3497.8,957.7,791.9,3477.1,3475.9,391.8,552.2,400.4,493.2,286.7,289.8,3472.2,3474.6,639.2,521.0,795.2,1012.5,1461.7,562.6,-43.0,0.0,8.0,9289.0,11856.0,5469.0,3418.0,178.0,-150.0,-55.0,-27.0,-8.0,10.0,10680.0,12085.0,2790.0,740.0,61.0,-158.0,-68.0,1.0
2022-05-08 18:25:24.509546-07:00,836.1,1128.7,1731.1,1003.9,835.2,539.4,1756.0,980.7,3483.2,3467.4,744.7,911.0,416.1,3497.8,957.7,791.9,3477.1,3475.9,391.8,552.2,400.4,493.2,286.7,289.8,3472.2,3474.6,639.2,521.0,795.2,1012.5,1461.7,562.6,-43.0,0.0,8.0,9289.0,11856.0,5469.0,3418.0,178.0,-150.0,-55.0,-27.0,-8.0,10.0,10680.0,12085.0,2790.0,740.0,61.0,-158.0,-68.0,1.0
2022-05-08 18:25:24.510530-07:00,833.6,1114.7,1722.4,996.2,834.4,539.4,1685.3,965.4,3478.3,3477.1,747.2,905.0,416.1,3497.8,932.2,791.9,3481.9,3483.2,392.6,550.6,401.2,491.7,289.8,286.7,3483.2,3474.6,631.9,523.4,787.7,1015.9,1449.7,563.4,-29.0,46.0,38.0,9477.0,11800.0,5328.0,3315.0,-40.0,-37.0,4.0,-23.0,30.0,17.0,10839.0,11967.0,2703.0,668.0,-81.0,3.0,-3.0,1.0
2022-05-08 18:25:24.511399-07:00,831.9,1114.7,1722.4,996.2,828.5,539.4,1685.3,965.4,3479.5,3475.9,751.3,905.0,416.8,3497.8,932.2,791.9,3481.9,3483.2,392.6,550.6,401.2,490.1,282.9,290.5,3483.2,3474.6,631.9,525.0,787.7,1014.2,1433.2,561.0,-16.0,-32.0,-18.0,9555.0,11739.0,5314.0,3332.0,-249.0,-18.0,-56.0,-19.0,-20.0,-27.0,10898.0,11913.0,2700.0,682.0,-179.0,4.0,9.0,1.0
2022-05-08 18:25:24.598641-07:00,831.9,1114.7,1722.4,994.5,824.4,531.4,1665.3,964.5,3479.5,3475.9,751.3,904.2,415.3,3492.9,932.2,788.6,3475.9,3473.4,390.3,552.2,396.5,490.1,282.9,290.5,3471.0,3478.3,632.7,524.2,777.8,1014.2,1433.2,561.0,-5.0,0.0,3.0,9561.0,11738.0,5315.0,3316.0,98.0,-36.0,-1.0,-4.0,11.0,-15.0,10908.0,11904.0,2698.0,683.0,45.0,-20.0,14.0,1.0
2022-05-08 18:25:24.628177-07:00,825.2,1112.1,1702.4,991.0,824.4,531.4,1665.3,964.5,3469.8,3478.3,743.9,901.7,415.3,3492.9,932.2,788.6,3475.9,3473.4,390.3,552.2,401.2,491.7,289.0,287.5,3471.0,3478.3,632.7,524.2,785.2,1015.1,1433.2,557.8,3.0,17.0,-11.0,9587.0,11731.0,5290.0,3305.0,-197.0,-78.0,10.0,-7.0,11.0,-23.0,10926.0,11892.0,2681.0,681.0,-173.0,-58.0,24.0,1.0
2022-05-08 18:25:24.658117-07:00,825.2,1112.1,1702.4,991.0,824.4,540.2,1660.6,960.2,3469.8,3478.3,743.9,901.7,410.6,3494.1,928.8,788.6,3478.3,3481.9,391.8,549.8,401.2,491.7,289.0,287.5,3480.7,3475.9,636.7,524.2,785.2,1015.1,1433.2,557.8,-11.0,-14.0,5.0,9692.0,11667.0,5239.0,3309.0,-251.0,-123.0,-15.0,-16.0,-18.0,-25.0,11007.0,11823.0,2652.0,678.0,-270.0,-86.0,26.0,1.0
2022-05-08 18:25:24.778318-07:00,829.4,1107.8,1698.6,997.0,824.4,540.2,1660.6,960.2,3473.4,3467.4,740.6,903.4,410.6,3494.1,928.8,788.6,3478.3,3481.9,391.8,549.8,398.9,489.3,287.5,290.5,3480.7,3475.9,636.7,524.2,784.4,1025.4,1427.7,550.6,-14.0,9.0,29.0,9738.0,11652.0,5201.0,3285.0,-9.0,-135.0,0.0,-14.0,2.0,2.0,11052.0,11789.0,2621.0,667.0,-51.0,-63.0,22.0,1.0
2022-05-08 18:25:24.780198-07:00,829.4,1107.8,1698.6,997.0,821.0,529.0,1652.0,956.8,3473.4,3467.4,740.6,903.4,416.1,3490.5,924.5,790.2,3472.2,3484.4,392.6,549.0,398.9,489.3,287.5,290.5,3479.5,3488.0,630.3,520.3,784.4,1025.4,1427.7,550.6,-3.0,0.0,39.0,9773.0,11643.0,5169.0,3263.0,-99.0,-48.0,12.0,-9.0,-5.0,7.0,11069.0,11777.0,2601.0,658.0,-84.0,-47.0,15.0,1.0
2022-05-08 18:25:24.781213-07:00,832.7,1100.8,1703.3,985.9,821.0,529.0,1652.0,956.8,3471.0,3468.6,745.5,905.0,416.1,3490.5,924.5,790.2,3472.2,3484.4,392.6,549.0,398.1,489.3,280.6,293.6,3479.5,3488.0,630.3,520.3,781.9,1011.6,1412.2,549.8,-9.0,3.0,16.0,9821.0,11612.0,5144.0,3268.0,-59.0,-52.0,-9.0,-16.0,-7.0,-13.0,11102.0,11749.0,2587.0,660.0,-64.0,-9.0,12.0,1.0
2022-05-08 18:25:24.808267-07:00,828.5,1100.8,1703.3,985.9,820.2,533.0,1642.6,955.1,3484.4,3468.6,745.5,905.0,418.4,3506.3,918.6,788.6,3472.2,3477.1,397.3,552.2,398.1,489.3,280.6,287.5,3477.1,3483.2,636.7,521.0,781.9,1011.6,1412.2,549.8,-6.0,7.0,18.0,9824.0,11612.0,5146.0,3255.0,-20.0,-5.0,-12.0,-12.0,0.0,-5.0,11104.0,11748.0,2589.0,658.0,-19.0,-1.0,5.0,1.0
2022-05-08 18:25:24.868144-07:00,828.5,1113.0,1704.3,986.7,820.2,533.0,1642.6,952.6,3484.4,3473.4,748.0,905.9,418.4,3506.3,918.6,787.7,3479.5,3477.1,397.3,552.2,401.2,490.1,286.7,287.5,3474.6,3483.2,636.7,521.0,785.2,1011.6,1414.9,549.8,-10.0,1.0,9.0,9846.0,11594.0,5141.0,3261.0,-63.0,-15.0,3.0,-16.0,-2.0,-11.0,11121.0,11731.0,2590.0,660.0,-65.0,-5.0,5.0,1.0
2022-05-08 18:25:24.929102-07:00,827.7,1113.0,1704.3,986.7,821.0,537.0,1633.1,952.6,3467.4,3473.4,748.0,905.9,422.3,3507.5,916.9,787.7,3479.5,3481.9,391.8,546.6,401.2,490.1,286.7,287.5,3474.6,3469.8,630.3,522.6,785.2,1011.6,1414.9,550.6,-15.0,2.0,8.0,9870.0,11576.0,5135.0,3262.0,-54.0,-23.0,-20.0,-12.0,0.0,-4.0,11142.0,11711.0,2589.0,659.0,-66.0,-14.0,8.0,1.0
2022-05-08 18:25:25.048279-07:00,827.7,1093.8,1698.6,993.6,821.0,537.0,1633.1,955.1,3467.4,3469.8,744.7,909.3,422.3,3507.5,916.9,786.9,3477.1,3481.9,391.8,546.6,402.8,488.5,290.5,287.5,3486.8,3469.8,630.3,522.6,776.9,1013.3,1401.2,550.6,-10.0,-6.0,14.0,9892.0,11566.0,5122.0,3252.0,-36.0,-33.0,7.0,-13.0,-1.0,-7.0,11159.0,11696.0,2587.0,656.0,-46.0,-19.0,9.0,1.0
2022-05-08 18:25:25.050355-07:00,834.4,1093.8,1698.6,993.6,811.0,537.8,1629.4,955.1,3469.8,3469.8,744.7,909.3,413.7,3489.2,918.6,786.9,3477.1,3472.2,391.1,550.6,402.8,488.5,290.5,283.6,3486.8,3478.3,631.1,528.2,776.9,1013.3,1401.2,551.4,-11.0,2.0,15.0,9915.0,11552.0,5113.0,3248.0,-62.0,-18.0,-23.0,-11.0,0.0,-4.0,11176.0,11681.0,2580.0,655.0,-64.0,-20.0,3.0,1.0
2022-05-08 18:25:25.078219-07:00,834.4,1103.4,1685.3,976.5,811.0,537.8,1629.4,945.8,3469.8,3471.0,738.1,905.9,413.7,3489.2,918.6,786.1,3479.5,3472.2,391.1,550.6,398.9,491.7,283.6,283.6,3477.1,3478.3,631.1,528.2,771.1,1003.9,1403.0,551.4,-11.0,1.0,10.0,9938.0,11537.0,5103.0,3245.0,-50.0,-38.0,4.0,-14.0,1.0,-10.0,11193.0,11666.0,2575.0,653.0,-45.0,-9.0,10.0,1.0
2022-05-08 18:25:25.108185-07:00,831.9,1100.8,1685.3,976.5,819.4,528.2,1619.0,945.8,3472.2,3477.1,738.1,905.9,415.3,3492.9,916.9,786.1,3479.5,3481.9,393.4,545.0,398.9,491.7,279.8,283.6,3477.1,3467.4,627.8,515.5,771.1,1003.9,1401.2,550.6,-8.0,-3.0,21.0,9945.0,11532.0,5100.0,3243.0,-2.0,19.0,-4.0,-14.0,2.0,2.0,11196.0,11663.0,2577.0,652.0,-3.0,-1.0,-4.0,1.0
2022-05-08 18:25:25.168263-07:00,831.9,1100.8,1685.3,989.3,819.4,528.2,1611.5,946.6,3472.2,3477.1,743.0,910.1,415.3,3492.9,918.6,781.1,3481.9,3481.9,393.4,545.0,398.1,490.1,279.8,283.6,3477.1,3479.5,627.8,515.5,781.1,1009.0,1401.2,550.6,-12.0,11.0,11.0,9948.0,11527.0,5103.0,3248.0,-14.0,0.0,-6.0,-12.0,3.0,-2.0,11196.0,11663.0,2579.0,652.0,-5.0,7.0,-5.0,1.0
2022-05-08 18:25:25.288534-07:00,821.9,1107.8,1685.3,989.3,814.4,529.8,1611.5,946.6,3474.6,3474.6,743.0,910.1,410.6,3486.8,918.6,781.1,3481.9,3481.9,394.2,553.8,398.1,490.1,288.2,289.0,3477.1,3479.5,628.6,517.1,781.1,1009.0,1399.4,547.4,-8.0,-7.0,6.0,9948.0,11526.0,5111.0,3240.0,18.0,9.0,-11.0,-12.0,-5.0,-12.0,11190.0,11666.0,2586.0,652.0,14.0,14.0,-5.0,1.0
2022-05-08 18:25:25.289826-07:00,821.9,1107.8,1689.1,987.6,814.4,529.8,1610.5,942.4,3474.6,3474.6,743.0,907.6,410.6,3486.8,916.9,782.7,3473.4,3473.4,394.2,553.8,398.9,488.5,288.2,289.0,3474.6,3472.2,628.6,517.1,772.0,1011.6,1399.4,547.4,-9.0,6.0,1.0,9950.0,11525.0,5109.0,3239.0,-13.0,-24.0,0.0,-15.0,0.0,-17.0,11189.0,11667.0,2588.0,650.0,-10.0,1.0,0.0,1.0
2022-05-08 18:25:25.318773-07:00,830.2,1096.4,1689.1,987.6,808.5,531.4,1610.5,942.4,3472.2,3474.6,743.0,907.6,416.1,3497.8,916.9,782.7,3473.4,3473.4,387.9,550.6,398.9,488.5,285.2,285.9,3474.6,3472.2,627.8,517.1,772.0,1011.6,1397.6,546.6,-11.0,-2.0,4.0,9960.0,11519.0,5106.0,3239.0,-47.0,-5.0,6.0,-13.0,0.0,-7.0,11192.0,11664.0,2590.0,648.0,-28.0,-12.0,3.0,1.0
2022-05-08 18:25:25.378914-07:00,830.2,1096.4,1687.2,988.5,808.5,531.4,1611.5,935.6,3472.2,3474.6,739.7,904.2,416.1,3497.8,912.7,781.9,3478.3,3477.1,387.9,550.6,396.5,486.1,285.2,285.9,3473.4,3475.9,627.8,517.1,772.8,1004.8,1397.6,546.6,-10.0,8.0,9.0,9968.0,11517.0,5097.0,3234.0,-8.0,-43.0,-7.0,-10.0,4.0,-6.0,11198.0,11659.0,2587.0,643.0,-19.0,-14.0,6.0,1.0
2022-05-08 18:25:25.408220-07:00,831.1,1090.3,1686.2,988.5,806.0,532.2,1611.5,935.6,3474.6,3475.9,743.9,904.2,417.6,3496.6,912.7,781.9,3478.3,3477.1,390.3,549.8,396.5,491.7,280.6,285.9,3473.4,3475.9,629.5,517.9,772.8,1009.9,1396.7,543.4,-9.0,1.0,12.0,9977.0,11518.0,5088.0,3217.0,4.0,-39.0,-1.0,-12.0,2.0,-5.0,11199.0,11658.0,2587.0,641.0,-5.0,-10.0,5.0,1.0
2022-05-08 18:25:25.469208-07:00,831.1,1090.3,1686.2,985.0,806.0,534.6,1597.4,941.5,3474.6,3475.9,743.9,908.4,417.6,3496.6,911.8,781.1,3478.3,3477.1,390.3,549.8,401.2,491.7,280.6,285.9,3485.6,3474.6,623.8,517.9,780.3,1009.9,1396.7,543.4,-11.0,-3.0,9.0,9992.0,11508.0,5079.0,3220.0,-39.0,0.0,15.0,-11.0,-6.0,-1.0,11209.0,11650.0,2583.0,636.0,-32.0,-11.0,9.0,1.0
2022-05-08 18:25:25.558210-07:00,824.4,1093.8,1682.4,985.0,815.2,534.6,1597.4,941.5,3479.5,3466.1,736.5,908.4,420.8,3496.6,911.8,781.1,3478.3,3477.1,390.3,550.6,401.2,493.2,281.3,284.4,3485.6,3474.6,623.8,524.2,780.3,1000.5,1388.5,548.2,-8.0,2.0,7.0,9995.0,11508.0,5074.0,3218.0,15.0,-15.0,-7.0,-8.0,5.0,0.0,11211.0,11648.0,2583.0,636.0,1.0,-8.0,5.0,1.0
2022-05-08 18:25:25.618052-07:00,824.4,1093.8,1682.4,984.2,815.2,530.6,1596.4,932.2,3479.5,3466.1,736.5,904.2,420.8,3486.8,905.9,789.4,3472.2,3473.4,391.8,550.6,400.4,493.2,281.3,284.4,3472.2,3477.1,623.0,524.2,771.1,1000.5,1388.5,548.2,-7.0,-1.0,5.0,10004.0,11506.0,5065.0,3211.0,-41.0,-28.0,-1.0,-14.0,3.0,-11.0,11215.0,11644.0,2582.0,634.0,-40.0,-18.0,5.0,1.0
2022-05-08 18:25:25.648820-07:00,824.4,1089.5,1683.3,984.2,803.5,530.6,1596.4,932.2,3478.3,3467.4,745.5,904.2,410.6,3486.8,905.9,789.4,3472.2,3473.4,391.8,549.8,400.4,490.1,283.6,285.9,3472.2,3477.1,623.0,517.1,771.1,1005.6,1401.2,547.4,-10.0,12.0,-1.0,10026.0,11492.0,5051.0,3215.0,-160.0,-29.0,20.0,-13.0,6.0,-14.0,11247.0,11617.0,2570.0,633.0,-175.0,-48.0,19.0,1.0
2022-05-08 18:25:25.678755-07:00,824.4,1089.5,1683.3,990.2,803.5,533.8,1603.0,938.1,3478.3,3467.4,745.5,902.5,410.6,3489.2,914.4,786.9,3474.6,3478.3,391.8,549.8,399.6,490.1,283.6,285.9,3477.1,3477.1,627.0,517.1,775.3,1005.6,1401.2,547.4,3.0,112.0,-34.0,10145.0,11392.0,5020.0,3245.0,-834.0,-34.0,-199.0,-16.0,46.0,-37.0,11360.0,11511.0,2542.0,648.0,-917.0,-122.0,18.0,1.0
2022-05-08 18:25:25.708312-07:00,836.9,1092.1,1684.3,979.9,799.4,533.8,1603.0,938.1,3469.8,3471.0,739.7,904.2,418.4,3489.2,914.4,786.9,3474.6,3478.3,391.8,549.8,398.1,489.3,287.5,293.6,3477.1,3477.1,627.0,516.3,775.3,1006.5,1389.4,537.0,-50.0,79.0,-120.0,10586.0,10956.0,5031.0,3322.0,-2316.0,-28.0,-680.0,-54.0,46.0,-45.0,11813.0,11065.0,2453.0,672.0,-2323.0,-400.0,-49.0,1.0
2022-05-08 18:25:25.768352-07:00,836.9,1092.1,1684.3,979.9,808.5,537.8,1623.7,973.9,3469.8,3471.0,739.7,904.2,412.1,3494.1,911.0,786.1,3481.9,3479.5,392.6,553.8,398.1,489.3,287.5,293.6,3475.9,3488.0,632.7,522.6,775.3,1006.5,1389.4,537.0,-62.0,-86.0,-173.0,11411.0,10109.0,4913.0,3452.0,-2922.0,-355.0,-388.0,-62.0,-9.0,-90.0,12569.0,10246.0,2243.0,669.0,-2590.0,-826.0,-5.0,1.0
2022-05-08 18:25:25.828774-07:00,835.2,1132.2,1694.8,984.2,808.5,537.8,1623.7,973.9,3475.9,3471.0,738.9,904.2,412.1,3494.1,911.0,786.1,3481.9,3479.5,392.6,553.8,398.9,488.5,284.4,284.4,3475.9,3488.0,632.7,522.6,774.5,1011.6,1442.4,544.2,-22.0,107.0,-109.0,12224.0,9225.0,4589.0,3583.0,-2710.0,-622.0,-402.0,-14.0,89.0,-51.0,13267.0,9415.0,1863.0,540.0,-2304.0,-1199.0,-122.0,1.0
2022-05-08 18:25:25.858161-07:00,835.2,1132.2,1694.8,984.2,802.7,531.4,1722.4,1053.0,3475.9,3471.0,738.9,904.2,418.4,3492.9,915.2,781.1,3477.1,3478.3,391.8,557.0,398.9,488.5,284.4,284.4,3473.4,3475.9,623.8,523.4,774.5,1011.6,1442.4,544.2,-52.0,82.0,-62.0,13041.0,8288.0,4161.0,3516.0,-3087.0,-1185.0,-776.0,-59.0,76.0,10.0,13915.0,8518.0,1464.0,309.0,-2744.0,-1116.0,-288.0,1.0
2022-05-08 18:25:25.918372-07:00,839.4,1095.6,1718.6,986.7,802.7,531.4,1722.4,1053.0,3475.9,3474.6,736.5,906.7,418.4,3492.9,915.2,781.1,3477.1,3478.3,391.8,557.0,402.8,492.5,282.1,282.9,3473.4,3475.9,623.8,523.4,772.8,1013.3,1463.5,540.2,-40.0,-146.0,-19.0,13869.0,7187.0,3622.0,3366.0,-3062.0,-948.0,-509.0,-59.0,-61.0,-38.0,14551.0,7449.0,1104.0,65.0,-2831.0,-1045.0,-259.0,1.0
2022-05-08 18:25:25.977972-07:00,839.4,1095.6,1718.6,986.7,806.0,529.8,1741.6,1042.6,3475.9,3474.6,736.5,906.7,416.1,3491.7,917.7,777.8,3477.1,3483.2,395.7,550.6,402.8,492.5,282.1,282.9,3483.2,3480.7,617.3,524.2,772.8,1013.3,1463.5,540.2,-3.0,-198.0,46.0,14458.0,6199.0,3163.0,3314.0,-2016.0,-567.0,-359.0,19.0,-141.0,-24.0,15046.0,6437.0,775.0,-127.0,-1977.0,-754.0,-150.0,1.0
2022-05-08 18:25:26.008622-07:00,834.4,1059.9,1735.8,979.9,806.0,529.8,1741.6,1021.9,3477.1,3467.4,738.1,905.9,416.1,3491.7,917.7,782.7,3477.1,3483.2,395.7,550.6,402.0,493.2,279.8,283.6,3486.8,3480.7,617.3,524.2,772.0,1021.9,1525.5,542.6,43.0,-69.0,59.0,14784.0,5572.0,2878.0,3249.0,-1332.0,-353.0,-210.0,49.0,-44.0,2.0,15319.0,5781.0,534.0,-265.0,-1279.0,-615.0,-154.0,1.0
2022-05-08 18:25:26.068292-07:00,1315.1,1059.9,1735.8,979.9,805.2,525.8,1733.9,1021.9,3478.3,3467.4,738.1,905.9,413.7,3502.7,922.8,782.7,3477.1,3478.3,388.7,548.2,402.0,493.2,279.8,285.2,3486.8,3488.0,619.7,519.5,772.0,1021.9,1525.5,541.8,43.0,-48.0,55.0,14990.0,5104.0,2705.0,3218.0,-939.0,-103.0,-246.0,20.0,-5.0,-15.0,15488.0,5319.0,344.0,-389.0,-971.0,-492.0,-158.0,1.0
2022-05-08 18:25:26.128133-07:00,1315.1,1031.4,1733.0,985.0,805.2,525.8,1733.9,1009.0,3478.3,3478.3,729.9,898.3,413.7,3502.7,922.8,783.6,3488.0,3478.3,388.7,548.2,402.0,493.2,285.9,285.2,3477.1,3488.0,619.7,519.5,762.0,1026.3,1598.3,541.8,17.0,-42.0,30.0,15101.0,4774.0,2700.0,3214.0,-609.0,326.0,-44.0,33.0,-29.0,-12.0,15582.0,5036.0,208.0,-503.0,-591.0,-383.0,-160.0,1.0
2022-05-08 18:25:26.158175-07:00,831.9,1031.4,1733.0,985.0,811.9,524.2,1692.9,1009.0,3472.2,3478.3,729.9,898.3,414.5,3495.3,942.4,783.6,3488.0,3483.2,392.6,552.2,402.0,493.2,285.9,281.3,3477.1,3473.4,617.3,512.3,762.0,1026.3,1598.3,540.2,13.0,-22.0,-15.0,15157.0,4532.0,2761.0,3248.0,-396.0,51.0,-238.0,19.0,-39.0,-1.0,15650.0,4814.0,110.0,-575.0,-452.0,-235.0,-68.0,1.0
2022-05-08 18:25:26.278825-07:00,831.9,1014.2,1726.3,979.9,811.9,524.2,1692.9,1002.2,3472.2,3478.3,736.5,918.6,414.5,3495.3,942.4,787.7,3475.9,3483.2,392.6,552.2,401.2,495.6,278.3,281.3,3477.1,3473.4,617.3,512.3,771.1,1042.6,1721.5,540.2,23.0,-22.0,-10.0,15190.0,4423.0,2825.0,3187.0,-6.0,368.0,-87.0,8.0,9.0,-55.0,15673.0,4731.0,38.0,-643.0,-29.0,-237.0,-116.0,1.0
2022-05-08 18:25:26.281300-07:00,852.0,1014.2,1726.3,979.9,811.9,526.6,1653.9,1002.2,3475.9,3478.3,736.5,918.6,416.8,3502.7,1009.9,787.7,3475.9,3475.9,388.7,546.6,401.2,495.6,278.3,283.6,3477.1,3475.9,610.8,489.3,771.1,1042.6,1721.5,542.6,-16.0,-26.0,-25.0,15156.0,4381.0,3017.0,3229.0,33.0,519.0,10.0,-16.0,82.0,4.0,15667.0,4743.0,-49.0,-702.0,36.0,-254.0,-63.0,1.0
2022-05-08 18:25:26.308254-07:00,852.0,1007.3,1721.5,991.0,811.9,526.6,1631.3,995.3,3475.9,3477.1,742.2,900.0,416.8,3502.7,1076.4,796.9,3477.1,3477.1,388.7,546.6,400.4,496.4,283.6,283.6,3472.2,3486.8,610.8,489.3,776.9,1056.5,1777.2,542.6,6.0,21.0,15.0,15120.0,4406.0,3140.0,3250.0,222.0,72.0,-57.0,11.0,85.0,0.0,15639.0,4828.0,-113.0,-732.0,362.0,-88.0,-54.0,1.0
2022-05-08 18:25:26.368159-07:00,840.3,1000.5,1721.5,991.0,823.5,525.0,1631.3,995.3,3475.9,3475.9,742.2,900.0,420.8,3494.1,1076.4,796.9,3477.1,3477.1,392.6,549.8,400.4,496.4,282.1,278.3,3472.2,3486.8,615.7,513.9,776.9,1056.5,1825.5,561.0,-35.0,0.0,14.0,15060.0,4550.0,3240.0,3227.0,461.0,290.0,4.0,32.0,-28.0,77.0,15565.0,5055.0,-142.0,-776.0,599.0,-44.0,-100.0,1.0
2022-05-08 18:25:26.428150-07:00,840.3,1000.5,1718.6,991.9,823.5,525.0,1608.7,1013.3,3475.9,3475.9,724.9,905.0,420.8,3494.1,1104.3,803.5,3467.4,3472.2,392.6,549.8,398.9,495.6,282.1,278.3,3479.5,3478.3,615.7,513.9,798.5,1048.7,1825.5,561.0,14.0,-44.0,45.0,15005.0,4666.0,3346.0,3213.0,282.0,176.0,-39.0,20.0,18.0,-16.0,15494.0,5264.0,-132.0,-808.0,418.0,37.0,-71.0,1.0
2022-05-08 18:25:26.458181-07:00,835.2,992.7,1718.6,991.9,826.9,525.8,1608.7,1013.3,3472.2,3469.8,724.9,905.0,417.6,3497.8,1104.3,803.5,3467.4,3472.2,392.6,553.0,398.9,495.6,281.3,282.9,3479.5,3478.3,610.0,513.9,798.5,1048.7,1817.8,575.4,-16.0,-43.0,93.0,14907.0,4824.0,3547.0,3217.0,729.0,576.0,39.0,30.0,7.0,27.0,15403.0,5523.0,-104.0,-824.0,841.0,136.0,-89.0,1.0
2022-05-08 18:25:26.518687-07:00,835.2,992.7,1696.7,1016.8,826.9,525.8,1601.1,986.7,3472.2,3469.8,731.5,903.4,417.6,3497.8,1104.3,815.2,3477.1,3473.4,392.6,553.0,398.1,495.6,281.3,282.9,3479.5,3479.5,610.0,513.9,773.6,1049.6,1817.8,575.4,44.0,86.0,138.0,14707.0,5126.0,3899.0,3266.0,931.0,891.0,-11.0,7.0,33.0,32.0,15254.0,5919.0,-23.0,-835.0,932.0,276.0,-137.0,1.0
2022-05-08 18:25:26.578143-07:00,833.6,988.5,1696.7,1016.8,842.8,521.8,1601.1,986.7,3473.4,3483.2,731.5,903.4,416.8,3495.3,1104.3,815.2,3477.1,3473.4,390.3,552.2,398.1,495.6,283.6,280.6,3479.5,3479.5,607.6,513.1,773.6,1049.6,1791.6,570.6,-30.0,-88.0,61.0,14436.0,5449.0,4473.0,3215.0,1475.0,1212.0,-279.0,27.0,-19.0,72.0,15077.0,6351.0,159.0,-867.0,1280.0,543.0,-330.0,1.0
2022-05-08 18:25:26.609330-07:00,833.6,988.5,1690.0,993.6,842.8,521.0,1561.8,971.3,3473.4,3483.2,725.8,905.0,416.8,3502.7,1105.1,811.0,3478.3,3477.1,390.3,552.2,403.5,492.5,283.6,280.6,3478.3,3469.8,610.0,513.1,765.3,1042.6,1791.6,570.6,24.0,-44.0,-2.0,13969.0,6128.0,5127.0,3079.0,2398.0,1300.0,33.0,9.0,25.0,-20.0,14735.0,7087.0,459.0,-934.0,2090.0,726.0,-461.0,1.0
2022-05-08 18:25:26.667963-07:00,829.4,979.9,1692.9,993.6,847.0,521.0,1561.8,971.3,3473.4,3480.7,729.9,905.0,419.2,3502.7,1105.1,811.0,3478.3,3477.1,390.3,553.8,403.5,486.1,280.6,281.3,3478.3,3469.8,610.0,513.9,765.3,1040.1,1776.2,559.4,68.0,-55.0,-31.0,13402.0,6839.0,5725.0,3046.0,2027.0,1145.0,232.0,53.0,3.0,-40.0,14331.0,7844.0,765.0,-970.0,1844.0,735.0,-352.0,1.0
2022-05-08 18:25:26.728175-07:00,829.4,979.9,1692.9,989.3,847.0,521.8,1530.1,967.9,3473.4,3480.7,729.9,906.7,419.2,3499.0,1095.6,807.7,3477.1,3475.9,398.9,553.8,402.8,486.1,280.6,281.3,3474.6,3488.0,607.6,513.9,770.3,1040.1,1776.2,559.4,66.0,-10.0,-49.0,12858.0,7440.0,6192.0,3068.0,1736.0,1076.0,333.0,38.0,16.0,-67.0,13932.0,8505.0,1038.0,-968.0,1667.0,663.0,-242.0,1.0
2022-05-08 18:25:26.758208-07:00,841.9,985.0,1684.3,989.3,867.9,521.8,1530.1,967.9,3480.7,3479.5,727.4,906.7,418.4,3499.0,1095.6,807.7,3477.1,3475.9,398.9,553.8,402.8,493.2,293.6,279.8,3474.6,3488.0,607.6,510.7,770.3,1054.8,1765.6,565.0,-46.0,-37.0,-91.0,12397.0,7869.0,6545.0,3160.0,1112.0,765.0,351.0,-11.0,-8.0,-1.0,13610.0,8988.0,1242.0,-930.0,1070.0,521.0,-87.0,1.0
2022-05-08 18:25:26.818284-07:00,841.9,985.0,1684.3,994.5,867.9,520.3,1525.5,967.1,3480.7,3479.5,727.4,901.7,418.4,3491.7,1092.9,811.9,3485.6,3488.0,398.9,553.8,395.0,493.2,293.6,279.8,3478.3,3477.1,608.4,510.7,761.2,1054.8,1765.6,565.0,-9.0,-27.0,-55.0,12074.0,8208.0,6700.0,3224.0,908.0,407.0,428.0,-62.0,-16.0,-47.0,13361.0,9339.0,1399.0,-859.0,937.0,442.0,-16.0,1.0
2022-05-08 18:25:26.878201-07:00,842.8,980.7,1677.6,994.5,861.2,520.3,1525.5,967.1,3473.4,3475.9,731.5,901.7,416.8,3491.7,1092.9,811.9,3485.6,3488.0,398.9,552.2,395.0,491.7,276.7,277.5,3478.3,3477.1,608.4,511.5,761.2,1040.9,1757.9,573.8,-36.0,35.0,-70.0,11762.0,8524.0,6821.0,3302.0,805.0,496.0,415.0,-71.0,30.0,-45.0,13108.0,9677.0,1525.0,-804.0,865.0,355.0,-20.0,1.0
2022-05-08 18:25:26.908258-07:00,842.8,980.7,1677.6,995.3,851.1,521.8,1495.8,953.4,3473.4,3475.9,731.5,903.4,416.1,3491.7,1095.6,804.4,3483.2,3477.1,395.0,557.0,398.9,491.7,276.7,277.5,3488.0,3488.0,608.4,509.9,760.4,1040.9,1757.9,573.8,-53.0,15.0,-78.0,11537.0,8713.0,6917.0,3402.0,394.0,294.0,279.0,-75.0,-7.0,-35.0,12936.0,9895.0,1619.0,-755.0,458.0,262.0,29.0,1.0
2022-05-08 18:25:26.968718-07:00,842.8,966.2,1669.1,993.6,851.1,521.8,1495.8,953.4,3475.9,3473.4,729.9,905.9,416.1,3491.7,1095.6,804.4,3483.2,3477.1,395.0,557.0,401.2,490.9,278.3,281.3,3488.0,3488.0,608.4,509.9,754.6,1032.3,1746.4,560.2,-86.0,22.0,-96.0,11429.0,8774.0,6983.0,3474.0,71.0,237.0,91.0,-112.0,8.0,-16.0,12876.0,9970.0,1657.0,-716.0,89.0,76.0,33.0,1.0
2022-05-08 18:25:27.028293-07:00,842.8,966.2,1669.1,993.6,844.4,524.2,1486.6,942.4,3475.9,3473.4,729.9,905.9,415.3,3489.2,1089.5,807.7,3480.7,3481.9,394.2,548.2,401.2,490.9,278.3,281.3,3477.1,3478.3,616.5,509.9,754.6,1032.3,1746.4,560.2,30.0,-5.0,-40.0,11397.0,8800.0,6984.0,3512.0,10.0,-18.0,93.0,10.0,-16.0,-49.0,12853.0,10000.0,1659.0,-695.0,-14.0,-25.0,73.0,1.0
2022-05-08 18:25:27.057862-07:00,844.4,967.9,1660.6,993.6,844.4,524.2,1486.6,942.4,3467.4,3481.9,732.3,905.9,415.3,3489.2,1089.5,807.7,3480.7,3481.9,394.2,548.2,400.4,487.7,287.5,284.4,3477.1,3478.3,616.5,509.9,759.6,1036.6,1763.7,563.4,1.0,50.0,-28.0,11427.0,8789.0,6938.0,3533.0,-167.0,-105.0,68.0,-6.0,41.0,-36.0,12878.0,9976.0,1617.0,-681.0,-187.0,-118.0,75.0,1.0
2022-05-08 18:25:27.147881-07:00,844.4,967.9,1660.6,993.6,827.7,521.8,1475.5,942.4,3467.4,3481.9,732.3,905.9,414.5,3500.2,1086.0,811.0,3477.1,3479.5,394.2,549.8,400.4,487.7,287.5,284.4,3483.2,3477.1,606.0,511.5,759.6,1036.6,1763.7,563.4,-14.0,-6.0,2.0,11506.0,8730.0,6873.0,3550.0,-211.0,-156.0,-15.0,-12.0,-5.0,-2.0,12939.0,9905.0,1562.0,-687.0,-134.0,-113.0,30.0,1.0
2022-05-08 18:25:27.178261-07:00,838.6,964.5,1665.3,990.2,827.7,521.8,1475.5,942.4,3473.4,3472.2,734.8,905.9,414.5,3500.2,1086.0,811.0,3477.1,3479.5,394.2,549.8,397.3,491.7,278.3,285.2,3483.2,3477.1,606.0,511.5,756.3,1035.7,1745.4,553.0,-11.0,7.0,39.0,11537.0,8728.0,6834.0,3526.0,41.0,-79.0,-10.0,5.0,9.0,10.0,12956.0,9886.0,1531.0,-705.0,-21.0,-57.0,-11.0,1.0
2022-05-08 18:25:27.208238-07:00,830.2,964.5,1665.3,990.2,828.5,524.2,1468.1,941.5,3474.6,3472.2,734.8,905.9,418.4,3497.8,1080.8,807.7,3485.6,3484.4,398.9,553.0,397.3,491.7,278.3,276.0,3485.6,3472.2,601.2,512.3,756.3,1035.7,1745.4,557.0,-9.0,-8.0,32.0,11567.0,8706.0,6819.0,3514.0,-91.0,-44.0,-27.0,8.0,-5.0,12.0,12976.0,9862.0,1514.0,-711.0,-95.0,-14.0,18.0,1.0
2022-05-08 18:25:27.268741-07:00,830.2,961.1,1653.9,991.9,828.5,524.2,1468.1,939.0,3474.6,3473.4,736.5,904.2,418.4,3497.8,1080.8,801.0,3474.6,3484.4,398.9,553.0,400.4,493.2,274.4,276.0,3483.2,3472.2,601.2,512.3,759.6,1037.5,1729.1,557.0,-8.0,-3.0,12.0,11586.0,8682.0,6818.0,3511.0,20.0,34.0,-27.0,-6.0,0.0,-14.0,12988.0,9847.0,1514.0,-705.0,6.0,22.0,-10.0,1.0
