Time,P0,P1,P2,P3,P4,P5,P6,P7,P8,P9,P10,P11,P12,P13,P14,P15,P16,P17,P18,P19,P20,P21,P22,P23,P24,P25,P26,P27,P28,P29,P30,P31,ECG,AX0,AY0,AZ0,QW0,QX0,QY0,QZ0,GX0,GY0,GZ0,AX1,AY1,AZ1,QW1,QX1,QY1,QZ1,GX1,GY1,GZ1
2022-05-08 17:21:10.321135-07:00,698.7,771.1,684.0,1028.0,377.8,292.8,907.6,743.0,3447.9,3461.3,1106.0,757.9,585.1,3467.4,1057.3,857.9,3432.2,3446.7,387.9,309.0,328.2,321.3,272.9,275.2,3458.9,3463.7,493.2,408.2,482.2,845.3,671.7,442.7,0.0,-7.0,4.0,11995.0,-10990.0,1937.0,-147.0,4.0,-12.0,-8.0,8.0,-4.0,1.0,7992.0,-11151.0,-5871.0,6763.0,-1.0,0.0,-16.0,1.0
2022-05-08 17:21:10.322412-07:00,709.3,757.9,684.0,1028.0,371.6,299.7,907.6,743.0,3457.6,3455.2,1106.0,757.9,585.1,3464.9,1057.3,857.9,3432.2,3446.7,392.6,311.3,328.2,321.3,276.7,268.3,3458.9,3463.7,493.2,406.7,482.2,845.3,675.0,434.9,4.0,-1.0,9.0,11995.0,-10991.0,1933.0,-143.0,8.0,-8.0,-6.0,7.0,-4.0,2.0,7994.0,-11150.0,-5874.0,6761.0,10.0,-2.0,-10.0,1.0
2022-05-08 17:21:10.380838-07:00,709.3,757.9,685.6,1025.4,371.6,299.7,900.8,736.5,3457.6,3455.2,1112.1,754.6,585.1,3464.9,1061.7,862.9,3433.4,3446.7,392.6,311.3,323.6,327.5,276.7,268.3,3450.4,3457.6,493.2,406.7,477.4,844.4,675.0,434.9,0.0,-8.0,7.0,11996.0,-10991.0,1928.0,-147.0,-9.0,-6.0,-19.0,5.0,-5.0,5.0,7997.0,-11147.0,-5877.0,6759.0,-4.0,6.0,-12.0,1.0
2022-05-08 17:21:10.440607-07:00,697.9,775.3,685.6,1025.4,375.5,299.7,900.8,736.5,3467.4,3469.8,1112.1,754.6,582.6,3473.4,1061.7,862.9,3433.4,3446.7,390.3,312.0,323.6,327.5,273.7,272.1,3450.4,3457.6,493.2,409.8,477.4,844.4,669.3,430.9,1.0,2.0,2.0,11996.0,-10990.0,1926.0,-150.0,6.0,3.0,-17.0,9.0,0.0,6.0,8000.0,-11145.0,-5879.0,6758.0,-2.0,10.0,-19.0,1.0
2022-05-08 17:21:10.470250-07:00,697.9,775.3,685.6,1026.3,375.5,296.7,905.9,729.9,3467.4,3469.8,1105.1,753.8,582.6,3460.1,1057.3,862.1,3447.9,3449.1,390.3,312.0,329.8,325.9,273.7,272.1,3457.6,3461.3,485.3,409.8,476.6,845.3,669.3,430.9,-2.0,0.0,5.0,11997.0,-10991.0,1921.0,-152.0,-1.0,-15.0,-5.0,3.0,1.0,3.0,8004.0,-11144.0,-5882.0,6752.0,-4.0,15.0,-16.0,1.0
2022-05-08 17:21:10.531146-07:00,700.3,769.5,683.1,1026.3,373.2,296.7,905.9,729.9,3463.7,3467.4,1111.2,753.8,581.8,3460.1,1057.3,862.1,3447.9,3449.1,390.3,309.7,329.8,320.5,273.7,270.6,3457.6,3461.3,485.3,404.3,476.6,845.3,675.0,432.5,-10.0,-11.0,19.0,12001.0,-10987.0,1914.0,-147.0,25.0,-27.0,2.0,6.0,-8.0,27.0,8012.0,-11149.0,-5877.0,6739.0,10.0,56.0,-3.0,1.0
2022-05-08 17:21:10.590265-07:00,700.3,769.5,683.1,1024.5,373.2,296.7,912.7,724.9,3463.7,3467.4,1111.2,757.1,581.8,3469.8,1062.5,867.1,3443.1,3432.2,387.9,309.7,323.6,320.5,273.7,270.6,3452.8,3457.6,491.7,404.3,478.2,845.3,675.0,432.5,7.0,7.0,8.0,12022.0,-10966.0,1909.0,-125.0,31.0,-47.0,49.0,8.0,-2.0,3.0,8028.0,-11163.0,-5849.0,6720.0,-18.0,97.0,26.0,1.0
2022-05-08 17:21:10.650377-07:00,700.3,769.5,676.6,1024.5,370.8,296.7,912.7,724.9,3466.1,3454.0,1112.1,757.1,581.8,3469.8,1062.5,867.1,3443.1,3432.2,387.9,309.7,323.6,319.0,270.6,273.7,3452.8,3457.6,491.7,410.6,478.2,845.3,670.9,438.8,7.0,-9.0,1.0,12009.0,-10980.0,1908.0,-104.0,-60.0,-28.0,22.0,8.0,0.0,0.0,8020.0,-11200.0,-5831.0,6683.0,-55.0,107.0,16.0,1.0
2022-05-08 17:21:10.680639-07:00,700.3,769.5,676.6,1028.0,370.8,299.7,902.5,728.2,3466.1,3454.0,1112.1,752.1,581.8,3473.4,1066.0,863.7,3443.1,3428.6,384.8,309.7,325.1,319.0,270.6,273.7,3460.1,3452.8,493.2,410.6,481.4,845.3,670.9,438.8,13.0,-2.0,-8.0,11999.0,-10992.0,1904.0,-82.0,-31.0,-26.0,25.0,7.0,0.0,-15.0,8020.0,-11227.0,-5813.0,6654.0,-33.0,71.0,17.0,1.0
2022-05-08 17:21:10.741193-07:00,702.8,771.1,682.3,1028.0,373.9,299.7,902.5,728.2,3466.1,3462.5,1112.1,752.1,581.0,3473.4,1066.0,863.7,3443.1,3428.6,384.8,312.0,325.1,321.3,275.2,272.1,3460.1,3452.8,493.2,409.0,481.4,841.9,676.6,433.3,0.0,-7.0,-11.0,11993.0,-11001.0,1893.0,-66.0,-14.0,-78.0,3.0,5.0,0.0,-12.0,8019.0,-11240.0,-5806.0,6639.0,-7.0,27.0,6.0,1.0
2022-05-08 17:21:10.770215-07:00,702.8,771.1,682.3,1030.6,372.4,294.4,898.3,728.2,3466.1,3462.5,1112.1,755.4,582.6,3466.1,1060.8,862.9,3440.7,3443.1,391.8,309.7,329.8,321.3,275.2,272.1,3468.6,3447.9,490.1,409.8,480.6,841.9,676.6,433.3,1.0,0.0,-6.0,11998.0,-11001.0,1864.0,-40.0,7.0,-93.0,-4.0,8.0,-2.0,4.0,8025.0,-11235.0,-5807.0,6640.0,22.0,-16.0,-24.0,1.0
2022-05-08 17:21:10.830734-07:00,692.1,770.3,679.1,1028.0,372.4,294.4,898.3,728.2,3456.4,3462.5,1115.6,753.8,582.6,3466.1,1060.8,862.9,3440.7,3443.1,391.8,309.7,328.2,324.4,272.1,275.2,3468.6,3447.9,490.1,409.8,483.7,850.3,670.9,436.4,2.0,2.0,7.0,12006.0,-11000.0,1816.0,5.0,7.0,-175.0,9.0,1.0,2.0,-8.0,8035.0,-11224.0,-5816.0,6639.0,15.0,-16.0,-44.0,1.0
2022-05-08 17:21:10.891137-07:00,692.1,770.3,679.1,1028.0,373.9,300.5,901.7,732.3,3456.4,3462.5,1115.6,753.8,589.9,3462.5,1059.9,862.9,3443.1,3435.8,387.9,310.5,328.2,324.4,272.1,275.2,3468.6,3466.1,490.9,411.4,483.7,850.3,670.9,436.4,0.0,8.0,7.0,12023.0,-10990.0,1761.0,40.0,35.0,-161.0,-46.0,17.0,-1.0,6.0,8054.0,-11206.0,-5829.0,6635.0,35.0,4.0,-58.0,1.0
2022-05-08 17:21:10.950315-07:00,692.1,775.3,680.7,1028.0,373.9,300.5,901.7,732.3,3471.0,3466.1,1109.5,751.3,589.9,3462.5,1059.9,862.9,3443.1,3435.8,387.9,310.5,329.0,324.4,271.4,269.9,3468.6,3466.1,490.9,411.4,476.6,840.3,672.5,431.7,11.0,-2.0,6.0,12036.0,-10986.0,1698.0,64.0,29.0,-113.0,-63.0,7.0,-3.0,-4.0,8076.0,-11187.0,-5841.0,6628.0,40.0,-6.0,-60.0,1.0
2022-05-08 17:21:10.980787-07:00,692.1,775.3,680.7,1028.0,375.5,307.4,896.6,727.4,3471.0,3466.1,1109.5,751.3,581.8,3458.9,1063.4,862.9,3439.5,3454.0,387.9,316.7,329.0,324.4,271.4,269.9,3464.9,3462.5,518.7,407.5,476.6,840.3,672.5,431.7,-2.0,-16.0,7.0,12049.0,-10976.0,1662.0,63.0,32.0,-48.0,-37.0,3.0,-10.0,2.0,8093.0,-11172.0,-5850.0,6625.0,21.0,1.0,-30.0,1.0
2022-05-08 17:21:11.040678-07:00,699.5,782.7,687.2,1027.1,375.5,307.4,896.6,727.4,3462.5,3478.3,1106.9,754.6,581.8,3458.9,1063.4,862.9,3439.5,3454.0,387.9,316.7,330.5,321.3,272.9,269.1,3464.9,3462.5,518.7,407.5,479.8,854.5,672.5,426.2,5.0,-14.0,8.0,12055.0,-10972.0,1648.0,68.0,7.0,-15.0,-3.0,8.0,-6.0,4.0,8099.0,-11171.0,-5849.0,6622.0,15.0,13.0,6.0,1.0
2022-05-08 17:21:11.070420-07:00,699.5,782.7,687.2,1027.1,380.2,294.4,902.5,725.8,3462.5,3478.3,1106.9,754.6,582.6,3460.1,1055.6,867.9,3447.9,3440.7,391.1,313.6,330.5,321.3,272.9,269.1,3455.2,3457.6,486.1,412.1,479.8,854.5,672.5,426.2,0.0,-3.0,3.0,12053.0,-10975.0,1642.0,82.0,-28.0,-40.0,18.0,5.0,-4.0,2.0,8106.0,-11170.0,-5843.0,6619.0,15.0,18.0,8.0,1.0
2022-05-08 17:21:11.220561-07:00,692.9,778.6,679.1,1028.8,380.2,294.4,902.5,724.1,3466.1,3469.8,1113.9,754.6,582.6,3460.1,1055.6,861.2,3435.8,3440.7,391.1,313.6,329.0,321.3,273.7,270.6,3452.8,3457.6,486.1,412.1,477.4,840.3,675.0,432.5,4.0,6.0,-2.0,12053.0,-10976.0,1636.0,96.0,-7.0,-36.0,4.0,4.0,0.0,-2.0,8115.0,-11167.0,-5837.0,6619.0,14.0,7.0,-11.0,1.0
2022-05-08 17:21:11.221637-07:00,697.0,778.6,679.1,1028.8,391.1,301.3,906.7,724.1,3462.5,3469.8,1113.9,754.6,594.7,3466.1,1054.8,861.2,3435.8,3445.5,385.6,309.7,329.0,321.3,273.7,269.9,3452.8,3457.6,494.0,410.6,477.4,840.3,675.0,432.5,-7.0,-8.0,0.0,12056.0,-10975.0,1624.0,107.0,13.0,-54.0,6.0,4.0,-7.0,7.0,8124.0,-11160.0,-5837.0,6619.0,26.0,-2.0,-14.0,1.0
2022-05-08 17:21:11.251014-07:00,697.0,768.7,682.3,1038.3,391.1,301.3,906.7,726.6,3462.5,3467.4,1135.7,750.5,594.7,3466.1,1054.8,862.9,3443.1,3445.5,385.6,309.7,324.4,320.5,274.4,269.9,3460.1,3457.6,494.0,410.6,486.1,847.0,676.6,432.5,0.0,-7.0,9.0,12064.0,-10969.0,1597.0,138.0,17.0,-100.0,27.0,9.0,0.0,3.0,8135.0,-11151.0,-5837.0,6620.0,39.0,7.0,-17.0,1.0
2022-05-08 17:21:11.280401-07:00,696.2,768.7,682.3,1038.3,371.6,294.4,900.8,726.6,3468.6,3467.4,1135.7,750.5,579.4,3464.9,1062.5,862.9,3443.1,3440.7,390.3,312.8,324.4,320.5,274.4,268.3,3460.1,3463.7,492.5,399.6,486.1,847.0,676.6,435.7,3.0,15.0,-1.0,12080.0,-10955.0,1573.0,178.0,58.0,-92.0,21.0,7.0,2.0,3.0,8156.0,-11136.0,-5833.0,6624.0,57.0,4.0,-30.0,1.0
2022-05-08 17:21:11.370370-07:00,696.2,772.0,681.5,1028.0,371.6,294.4,900.8,725.8,3468.6,3468.6,1123.5,755.4,579.4,3464.9,1062.5,862.1,3440.7,3440.7,390.3,312.8,325.1,323.6,275.2,268.3,3471.0,3463.7,492.5,399.6,482.2,841.9,675.8,435.7,7.0,-17.0,-3.0,12097.0,-10939.0,1541.0,212.0,29.0,-122.0,34.0,7.0,-3.0,-12.0,8168.0,-11126.0,-5842.0,6618.0,1.0,-16.0,-44.0,1.0
2022-05-08 17:21:11.373291-07:00,696.2,772.0,681.5,1028.0,376.3,299.7,898.3,725.8,3464.9,3468.6,1123.5,755.4,582.6,3468.6,1053.0,862.1,3440.7,3438.2,391.1,313.6,325.1,323.6,275.2,271.4,3471.0,3461.3,492.5,409.8,482.2,841.9,675.8,438.8,7.0,-7.0,9.0,12101.0,-10933.0,1548.0,260.0,10.0,-28.0,110.0,9.0,-7.0,5.0,8172.0,-11115.0,-5853.0,6622.0,29.0,-35.0,-15.0,1.0
2022-05-08 17:21:11.430190-07:00,696.2,768.7,684.0,1023.7,376.3,299.7,900.0,720.8,3464.9,3462.5,1124.4,754.6,582.6,3468.6,1063.4,865.4,3443.1,3444.3,391.1,313.6,326.7,319.0,275.2,271.4,3462.5,3457.6,492.5,409.8,480.6,843.6,675.8,438.8,0.0,0.0,19.0,12108.0,-10921.0,1575.0,285.0,23.0,29.0,59.0,6.0,-4.0,12.0,8176.0,-11103.0,-5857.0,6635.0,17.0,-15.0,10.0,1.0
2022-05-08 17:21:11.490627-07:00,697.9,763.7,684.0,1023.7,375.5,292.8,900.0,720.8,3467.4,3469.8,1124.4,754.6,581.8,3460.1,1063.4,865.4,3443.1,3444.3,386.4,311.3,326.7,319.0,272.9,275.2,3462.5,3457.6,490.9,407.5,480.6,843.6,677.4,435.7,3.0,3.0,9.0,12111.0,-10915.0,1596.0,278.0,5.0,51.0,7.0,12.0,2.0,6.0,8174.0,-11106.0,-5852.0,6635.0,-27.0,34.0,10.0,1.0
2022-05-08 17:21:11.550413-07:00,697.9,763.7,682.3,1027.1,375.5,292.8,893.2,733.2,3467.4,3469.8,1125.2,755.4,581.8,3460.1,1063.4,865.4,3439.5,3449.1,386.4,311.3,329.8,324.4,272.9,275.2,3461.3,3457.6,490.9,407.5,479.0,852.0,677.4,435.7,3.0,-3.0,-2.0,12101.0,-10924.0,1615.0,263.0,-24.0,65.0,-5.0,5.0,-2.0,0.0,8167.0,-11120.0,-5851.0,6621.0,-32.0,17.0,4.0,1.0
2022-05-08 17:21:11.580399-07:00,709.3,768.7,682.3,1027.1,370.8,298.2,893.2,733.2,3468.6,3460.1,1125.2,755.4,581.8,3467.4,1063.4,865.4,3439.5,3449.1,392.6,308.2,329.8,324.4,274.4,269.9,3461.3,3457.6,490.9,407.5,479.0,852.0,668.4,447.4,0.0,-7.0,-7.0,12097.0,-10926.0,1628.0,249.0,-3.0,17.0,7.0,5.0,-5.0,-1.0,8163.0,-11128.0,-5850.0,6614.0,-5.0,12.0,12.0,1.0
2022-05-08 17:21:11.670387-07:00,709.3,768.7,678.2,1024.5,370.8,298.2,904.2,716.7,3468.6,3460.1,1117.4,756.3,581.8,3467.4,1058.2,873.0,3447.9,3444.3,392.6,308.2,329.8,321.3,274.4,269.9,3450.4,3460.1,490.9,407.5,482.2,845.3,668.4,447.4,-1.0,-2.0,-3.0,12098.0,-10925.0,1630.0,248.0,12.0,0.0,-8.0,5.0,2.0,5.0,8162.0,-11129.0,-5849.0,6614.0,2.0,-3.0,3.0,1.0
2022-05-08 17:21:11.672235-07:00,701.9,763.7,678.2,1024.5,373.9,295.9,904.2,716.7,3457.6,3475.9,1117.4,756.3,584.3,3462.5,1058.2,873.0,3447.9,3444.3,388.7,310.5,329.8,321.3,279.0,269.9,3450.4,3460.1,490.1,405.1,482.2,845.3,676.6,428.6,1.0,-12.0,3.0,12097.0,-10927.0,1629.0,249.0,-10.0,1.0,8.0,8.0,-7.0,8.0,8161.0,-11128.0,-5850.0,6616.0,1.0,-4.0,5.0,1.0
2022-05-08 17:21:11.730988-07:00,701.9,763.7,684.0,1025.4,373.9,293.6,897.4,718.4,3457.6,3475.9,1128.7,751.3,584.3,3457.6,1057.3,865.4,3445.5,3447.9,385.6,310.5,332.9,322.8,279.0,269.9,3458.9,3457.6,490.1,405.1,473.5,845.3,676.6,428.6,0.0,3.0,0.0,12097.0,-10926.0,1631.0,252.0,-2.0,4.0,-4.0,5.0,0.0,2.0,8161.0,-11128.0,-5850.0,6616.0,-1.0,-4.0,5.0,1.0
2022-05-08 17:21:11.850450-07:00,696.2,761.2,674.2,1025.4,371.6,293.6,897.4,718.4,3473.4,3467.4,1126.1,751.3,580.2,3457.6,1057.3,865.4,3445.5,3447.9,385.6,315.1,332.9,320.5,274.4,269.1,3458.9,3457.6,490.1,406.7,473.5,834.4,674.2,429.4,0.0,-9.0,1.0,12096.0,-10927.0,1634.0,245.0,5.0,20.0,8.0,8.0,0.0,5.0,8162.0,-11128.0,-5850.0,6616.0,-2.0,10.0,5.0,1.0
2022-05-08 17:21:11.851366-07:00,696.2,761.2,674.2,1028.8,371.6,297.4,885.6,718.4,3473.4,3467.4,1126.1,762.0,580.2,3473.4,1055.6,866.3,3449.1,3439.5,398.9,315.1,331.3,320.5,274.4,269.1,3461.3,3460.1,483.0,406.7,479.0,834.4,674.2,429.4,0.0,-4.0,0.0,12093.0,-10929.0,1639.0,243.0,-6.0,7.0,5.0,9.0,-5.0,2.0,8160.0,-11132.0,-5849.0,6612.0,-6.0,15.0,9.0,1.0
2022-05-08 17:21:11.880501-07:00,696.2,760.4,678.2,1028.8,373.9,297.4,885.6,718.4,3452.8,3460.1,1122.6,762.0,584.3,3473.4,1055.6,866.3,3449.1,3439.5,398.9,311.3,331.3,322.8,272.1,273.7,3461.3,3460.1,483.0,409.8,479.0,837.7,678.2,436.4,5.0,0.0,-2.0,12094.0,-10928.0,1639.0,243.0,12.0,9.0,-8.0,7.0,1.0,4.0,8160.0,-11133.0,-5846.0,6613.0,12.0,-8.0,6.0,1.0
2022-05-08 17:21:11.940629-07:00,696.2,760.4,678.2,1025.4,373.9,296.7,899.1,716.7,3452.8,3460.1,1122.6,755.4,584.3,3464.9,1058.2,865.4,3441.9,3439.5,385.6,311.3,331.3,322.8,272.1,273.7,3461.3,3454.0,488.5,409.8,479.0,837.7,678.2,436.4,4.0,-4.0,0.0,12095.0,-10927.0,1637.0,245.0,12.0,-15.0,2.0,5.0,-4.0,-1.0,8161.0,-11132.0,-5845.0,6614.0,7.0,-2.0,0.0,1.0
2022-05-08 17:21:11.999926-07:00,696.2,767.0,683.1,1025.4,377.0,296.7,899.1,716.7,3461.3,3462.5,1127.9,755.4,583.5,3464.9,1058.2,865.4,3441.9,3439.5,385.6,312.8,331.3,323.6,272.9,272.1,3461.3,3454.0,488.5,408.2,479.0,844.4,675.0,432.5,3.0,-7.0,3.0,12097.0,-10925.0,1638.0,247.0,-7.0,3.0,15.0,7.0,-3.0,5.0,8161.0,-11132.0,-5845.0,6615.0,3.0,-8.0,3.0,1.0
2022-05-08 17:21:12.059956-07:00,696.2,767.0,683.1,1026.3,377.0,307.4,891.5,716.7,3461.3,3462.5,1127.9,758.7,583.5,3464.9,1054.8,862.1,3449.1,3440.7,398.9,312.8,331.3,323.6,272.9,272.1,3447.9,3456.4,492.5,408.2,481.4,844.4,675.0,432.5,0.0,2.0,0.0,12097.0,-10924.0,1641.0,248.0,0.0,5.0,-4.0,7.0,0.0,7.0,8161.0,-11132.0,-5845.0,6615.0,-2.0,5.0,1.0,1.0
2022-05-08 17:21:12.061601-07:00,696.2,762.9,680.7,1031.4,370.0,307.4,891.5,716.7,3468.6,3458.9,1127.0,755.4,584.3,3464.9,1054.8,862.1,3449.1,3440.7,398.9,305.1,324.4,319.7,270.6,268.3,3447.9,3456.4,492.5,404.3,479.8,837.7,671.7,436.4,3.0,-9.0,0.0,12097.0,-10924.0,1642.0,250.0,3.0,1.0,13.0,8.0,-1.0,4.0,8161.0,-11132.0,-5845.0,6614.0,4.0,3.0,8.0,1.0
2022-05-08 17:21:12.149986-07:00,696.2,762.9,680.7,1031.4,371.6,297.4,894.1,716.7,3468.6,3458.9,1127.0,755.4,581.8,3467.4,1054.8,862.9,3449.1,3437.0,389.5,316.7,324.4,319.7,270.6,268.3,3467.4,3468.6,490.1,411.4,479.8,837.7,671.7,436.4,1.0,-6.0,-2.0,12097.0,-10924.0,1648.0,254.0,-13.0,10.0,20.0,4.0,-5.0,6.0,8164.0,-11130.0,-5844.0,6616.0,13.0,-10.0,-1.0,1.0
2022-05-08 17:21:12.240890-07:00,698.7,769.5,686.4,1029.7,371.6,297.4,894.1,716.7,3457.6,3468.6,1126.1,756.3,581.8,3467.4,1054.8,862.9,3449.1,3437.0,389.5,316.7,328.2,321.3,275.2,273.7,3467.4,3468.6,490.1,411.4,472.7,836.1,670.9,431.7,-1.0,5.0,0.0,12101.0,-10918.0,1652.0,256.0,13.0,9.0,-4.0,7.0,0.0,11.0,8167.0,-11122.0,-5844.0,6624.0,10.0,-17.0,-6.0,1.0
2022-05-08 17:21:12.271067-07:00,698.7,769.5,686.4,1029.7,370.8,309.7,892.4,709.3,3457.6,3468.6,1126.1,756.3,583.5,3457.6,1055.6,867.1,3443.1,3439.5,392.6,306.7,328.2,321.3,275.2,273.7,3462.5,3457.6,480.6,404.3,472.7,836.1,670.9,431.7,5.0,0.0,3.0,12101.0,-10918.0,1652.0,257.0,2.0,-1.0,8.0,7.0,-4.0,3.0,8166.0,-11122.0,-5845.0,6625.0,-6.0,4.0,2.0,1.0
2022-05-08 17:21:12.273110-07:00,699.5,758.7,679.9,1023.7,370.8,309.7,892.4,709.3,3478.3,3466.1,1129.6,752.1,583.5,3457.6,1055.6,867.1,3443.1,3439.5,392.6,306.7,325.1,320.5,276.0,268.3,3462.5,3457.6,480.6,404.3,483.7,819.4,669.3,426.2,0.0,-1.0,0.0,12100.0,-10919.0,1652.0,258.0,-11.0,2.0,-2.0,8.0,-1.0,4.0,8166.0,-11122.0,-5845.0,6625.0,-2.0,2.0,5.0,1.0
2022-05-08 17:21:12.330590-07:00,699.5,758.7,679.9,1023.7,377.8,296.7,892.4,714.2,3478.3,3466.1,1129.6,752.1,581.0,3457.6,1053.9,857.9,3445.5,3444.3,391.8,310.5,325.1,320.5,276.0,268.3,3461.3,3460.1,482.2,406.7,483.7,819.4,669.3,426.2,1.0,6.0,-3.0,12103.0,-10915.0,1652.0,257.0,11.0,3.0,-1.0,8.0,0.0,4.0,8169.0,-11120.0,-5843.0,6627.0,6.0,1.0,-3.0,1.0
2022-05-08 17:21:12.360691-07:00,692.1,764.5,685.6,1026.3,377.8,296.7,892.4,722.5,3468.6,3463.7,1125.2,749.6,581.0,3457.6,1053.9,867.1,3449.1,3444.3,391.8,310.5,329.0,319.7,275.2,272.1,3455.2,3460.1,482.2,406.7,479.8,838.6,666.8,432.5,0.0,-7.0,3.0,12102.0,-10917.0,1652.0,257.0,1.0,4.0,-3.0,7.0,-1.0,8.0,8169.0,-11120.0,-5843.0,6626.0,1.0,0.0,0.0,1.0
2022-05-08 17:21:12.420680-07:00,690.5,764.5,685.6,1026.3,371.6,294.4,894.9,722.5,3464.9,3463.7,1125.2,749.6,583.5,3462.5,1055.6,867.1,3449.1,3454.0,392.6,312.0,329.0,319.7,275.2,270.6,3455.2,3458.9,487.7,401.2,479.8,838.6,666.8,429.4,5.0,-5.0,-3.0,12107.0,-10912.0,1651.0,257.0,14.0,-7.0,0.0,8.0,-2.0,-1.0,8172.0,-11118.0,-5841.0,6628.0,14.0,0.0,7.0,1.0
2022-05-08 17:21:12.510435-07:00,690.5,762.0,685.6,1028.0,371.6,294.4,894.9,711.0,3464.9,3456.4,1116.5,753.8,583.5,3462.5,1055.6,865.4,3444.3,3454.0,392.6,312.0,325.1,324.4,271.4,270.6,3461.3,3458.9,487.7,401.2,474.3,845.3,676.6,429.4,0.0,5.0,-4.0,12109.0,-10910.0,1647.0,261.0,-10.0,-22.0,8.0,5.0,0.0,1.0,8175.0,-11115.0,-5838.0,6632.0,8.0,-8.0,2.0,1.0
2022-05-08 17:21:12.511754-07:00,695.4,762.0,685.6,1028.0,375.5,299.7,883.9,711.0,3469.8,3456.4,1116.5,753.8,578.6,3466.1,1060.8,865.4,3444.3,3438.2,387.9,309.7,325.1,324.4,271.4,269.9,3461.3,3463.7,485.3,397.3,474.3,845.3,676.6,434.1,3.0,0.0,3.0,12112.0,-10907.0,1641.0,267.0,41.0,-10.0,3.0,8.0,-2.0,3.0,8179.0,-11112.0,-5833.0,6637.0,38.0,-12.0,12.0,1.0
2022-05-08 17:21:12.600473-07:00,695.4,768.7,679.1,1024.5,375.5,299.7,883.9,711.8,3469.8,3468.6,1126.1,751.3,578.6,3466.1,1060.8,859.5,3439.5,3438.2,387.9,309.7,332.1,322.8,274.4,269.9,3454.0,3463.7,485.3,397.3,489.3,844.4,666.0,434.1,-1.0,-7.0,1.0,12113.0,-10907.0,1641.0,267.0,-7.0,-9.0,8.0,5.0,-3.0,11.0,8180.0,-11110.0,-5833.0,6638.0,-1.0,0.0,1.0,1.0
2022-05-08 17:21:12.630177-07:00,703.6,768.7,679.1,1024.5,372.4,297.4,888.2,711.8,3467.4,3468.6,1126.1,751.3,586.7,3466.1,1063.4,859.5,3439.5,3438.2,390.3,310.5,332.1,322.8,274.4,275.2,3454.0,3468.6,478.2,408.2,489.3,844.4,666.0,426.2,0.0,-6.0,-1.0,12113.0,-10907.0,1640.0,270.0,5.0,0.0,-2.0,7.0,-2.0,10.0,8180.0,-11110.0,-5833.0,6638.0,11.0,-8.0,2.0,1.0
2022-05-08 17:21:12.749987-07:00,703.6,759.6,676.6,1026.3,372.4,297.4,891.5,715.1,3467.4,3463.7,1127.0,753.8,586.7,3466.1,1059.1,857.9,3440.7,3460.1,390.3,310.5,328.2,324.4,271.4,275.2,3456.4,3451.6,478.2,408.2,479.0,843.6,670.9,426.2,0.0,-4.0,-4.0,12116.0,-10903.0,1637.0,272.0,8.0,-16.0,0.0,5.0,1.0,4.0,8185.0,-11106.0,-5830.0,6641.0,15.0,1.0,-1.0,1.0
2022-05-08 17:21:12.750970-07:00,690.5,756.3,676.6,1026.3,373.9,297.4,891.5,715.1,3463.7,3463.7,1127.0,753.8,590.7,3466.1,1059.1,857.9,3440.7,3460.1,392.6,315.1,328.2,324.4,271.4,268.3,3456.4,3451.6,490.1,406.7,479.0,843.6,666.8,427.0,4.0,-2.0,0.0,12117.0,-10903.0,1632.0,281.0,5.0,-25.0,13.0,7.0,-3.0,0.0,8187.0,-11104.0,-5828.0,6643.0,20.0,-9.0,12.0,1.0
2022-05-08 17:21:12.780411-07:00,690.5,756.3,679.1,1026.3,373.9,297.4,892.4,708.5,3463.7,3463.7,1118.2,750.5,590.7,3466.1,1055.6,871.3,3439.5,3439.5,392.6,315.1,329.8,322.1,271.4,268.3,3443.1,3462.5,490.1,406.7,475.8,846.1,666.8,427.0,-7.0,0.0,2.0,12118.0,-10902.0,1629.0,283.0,-13.0,-17.0,-18.0,7.0,0.0,16.0,8193.0,-11098.0,-5825.0,6650.0,11.0,-2.0,-1.0,1.0
2022-05-08 17:21:12.870232-07:00,695.4,761.2,679.1,1026.3,377.0,301.3,892.4,708.5,3457.6,3468.6,1118.2,750.5,578.6,3464.9,1055.6,871.3,3439.5,3439.5,388.7,312.0,329.8,322.1,268.3,269.9,3443.1,3462.5,484.5,403.5,475.8,846.1,667.6,438.0,-20.0,-35.0,10.0,12113.0,-10910.0,1612.0,295.0,-41.0,-106.0,7.0,6.0,-25.0,20.0,8198.0,-11095.0,-5819.0,6653.0,80.0,16.0,44.0,1.0
2022-05-08 17:21:12.960312-07:00,695.4,761.2,678.2,1030.6,377.0,301.3,894.9,719.2,3457.6,3468.6,1129.6,755.4,578.6,3464.9,1061.7,865.4,3441.9,3449.1,388.7,312.0,330.5,320.5,268.3,269.9,3454.0,3458.9,484.5,403.5,477.4,836.9,667.6,438.0,-31.0,73.0,-11.0,12159.0,-10868.0,1533.0,355.0,220.0,-437.0,-47.0,13.0,34.0,17.0,8251.0,-11069.0,-5753.0,6689.0,230.0,86.0,35.0,1.0
2022-05-08 17:21:12.961412-07:00,696.2,752.9,678.2,1030.6,371.6,293.6,894.9,719.2,3469.8,3464.9,1129.6,755.4,575.4,3466.1,1061.7,865.4,3441.9,3449.1,390.3,309.0,330.5,320.5,273.7,267.6,3454.0,3458.9,484.5,404.3,477.4,836.9,702.8,426.2,52.0,7.0,-18.0,12212.0,-10829.0,1332.0,492.0,245.0,-540.0,-46.0,0.0,-4.0,-41.0,8331.0,-11043.0,-5696.0,6682.0,354.0,0.0,-98.0,1.0
2022-05-08 17:21:12.962753-07:00,696.2,752.9,696.2,1025.4,371.6,293.6,891.5,710.1,3469.8,3464.9,1173.5,758.7,575.4,3466.1,1066.9,863.7,3431.0,3446.7,390.3,309.0,329.0,322.1,273.7,267.6,3454.0,3468.6,484.5,404.3,475.0,846.1,702.8,426.2,-14.0,85.0,5.0,12353.0,-10683.0,1167.0,595.0,453.0,-501.0,-90.0,11.0,31.0,45.0,8482.0,-10927.0,-5662.0,6712.0,363.0,102.0,-209.0,1.0
2022-05-08 17:21:13.021329-07:00,696.2,762.0,701.9,1025.4,373.2,299.7,891.5,710.1,3466.1,3457.6,1222.2,758.7,581.8,3457.6,1066.9,863.7,3431.0,3446.7,389.5,309.7,329.0,322.1,270.6,272.9,3454.0,3468.6,493.2,404.3,475.0,851.1,762.9,426.2,38.0,45.0,-3.0,12423.0,-10618.0,934.0,694.0,-170.0,-649.0,-283.0,5.0,17.0,0.0,8607.0,-10879.0,-5666.0,6625.0,-23.0,257.0,-316.0,1.0
2022-05-08 17:21:13.110848-07:00,696.2,762.0,701.9,1029.7,373.2,302.8,891.5,721.6,3466.1,3457.6,1222.2,758.7,581.8,3468.6,1053.9,868.8,3447.9,3438.2,392.6,309.7,326.7,322.1,270.6,272.9,3460.1,3450.4,493.2,404.3,483.7,851.1,762.9,426.2,1.0,-53.0,50.0,12364.0,-10702.0,720.0,729.0,-182.0,-39.0,-147.0,1.0,-19.0,2.0,8660.0,-10882.0,-5749.0,6479.0,-132.0,98.0,-329.0,1.0
2022-05-08 17:21:13.112235-07:00,692.1,765.3,699.5,1029.7,375.5,302.8,891.5,721.6,3467.4,3467.4,1234.6,758.7,589.9,3468.6,1053.9,868.8,3447.9,3438.2,392.6,309.7,326.7,322.1,271.4,275.2,3460.1,3450.4,493.2,410.6,483.7,856.2,752.9,437.2,13.0,4.0,-16.0,12296.0,-10784.0,701.0,676.0,-464.0,192.0,-158.0,-12.0,-5.0,-33.0,8652.0,-10904.0,-5840.0,6371.0,-405.0,16.0,-243.0,1.0
2022-05-08 17:21:13.170969-07:00,692.1,765.3,699.5,1028.8,375.5,302.8,903.4,718.4,3467.4,3467.4,1234.6,757.9,589.9,3462.5,1070.3,864.6,3438.2,3445.5,392.6,309.7,329.0,322.1,271.4,275.2,3461.3,3457.6,494.8,410.6,479.8,856.2,752.9,437.2,-10.0,-45.0,-25.0,12188.0,-10909.0,759.0,547.0,-31.0,390.0,-106.0,-6.0,-7.0,14.0,8581.0,-10939.0,-5948.0,6305.0,-158.0,-108.0,-100.0,1.0
2022-05-08 17:21:13.230255-07:00,685.6,764.5,710.1,1028.8,375.5,302.8,903.4,718.4,3463.7,3467.4,1279.2,757.9,581.0,3462.5,1070.3,864.6,3438.2,3445.5,392.6,305.1,329.0,324.4,272.1,269.1,3461.3,3457.6,494.8,407.5,479.8,878.9,824.4,430.9,-7.0,14.0,-34.0,12207.0,-10890.0,791.0,456.0,33.0,-65.0,-90.0,15.0,15.0,-35.0,8583.0,-10904.0,-5990.0,6323.0,18.0,-158.0,-88.0,1.0
2022-05-08 17:21:13.260758-07:00,685.6,764.5,710.1,1032.3,375.5,301.3,901.7,717.5,3463.7,3467.4,1279.2,757.9,581.0,3472.2,1090.3,867.1,3443.1,3438.2,385.6,305.1,330.5,324.4,272.1,269.1,3468.6,3461.3,494.0,407.5,483.7,878.9,824.4,430.9,8.0,-62.0,53.0,12180.0,-10922.0,775.0,429.0,-39.0,196.0,13.0,2.0,-39.0,23.0,8542.0,-10886.0,-6069.0,6335.0,-135.0,-130.0,-41.0,1.0
2022-05-08 17:21:13.320881-07:00,692.1,776.1,749.6,1028.0,372.4,301.3,901.7,717.5,3467.4,3467.4,1296.3,759.6,585.1,3472.2,1090.3,867.1,3443.1,3438.2,385.6,311.3,326.7,319.7,273.7,273.7,3468.6,3461.3,494.0,406.7,479.8,922.8,861.2,436.4,22.0,-46.0,56.0,12177.0,-10922.0,858.0,374.0,128.0,253.0,62.0,20.0,-1.0,11.0,8521.0,-10846.0,-6106.0,6396.0,193.0,-294.0,1.0,1.0
2022-05-08 17:21:13.410320-07:00,692.1,776.1,749.6,1028.0,371.6,295.1,900.8,718.4,3467.4,3467.4,1296.3,759.6,591.5,3467.4,1167.4,869.6,3439.5,3444.3,389.5,314.4,326.7,319.7,273.7,273.7,3458.9,3455.2,492.5,398.9,479.8,922.8,861.2,436.4,-30.0,35.0,-121.0,12284.0,-10794.0,970.0,318.0,329.0,206.0,44.0,10.0,50.0,-53.0,8559.0,-10728.0,-6120.0,6530.0,190.0,-260.0,-9.0,1.0
2022-05-08 17:21:13.471253-07:00,693.8,789.4,796.9,1030.6,371.6,295.1,900.8,718.4,3468.6,3468.6,1299.0,764.5,591.5,3467.4,1167.4,869.6,3439.5,3444.3,389.5,314.4,328.2,318.2,272.9,272.1,3458.9,3455.2,492.5,398.9,486.1,955.1,879.7,436.4,19.0,-44.0,3.0,12335.0,-10726.0,1088.0,257.0,268.0,412.0,209.0,-15.0,-18.0,16.0,8522.0,-10668.0,-6160.0,6638.0,118.0,-324.0,121.0,1.0
2022-05-08 17:21:13.473360-07:00,693.8,789.4,796.9,1030.6,377.8,296.7,889.0,711.8,3468.6,3468.6,1299.0,764.5,586.7,3457.6,1228.4,878.9,3439.5,3444.3,391.1,316.7,328.2,318.2,272.9,272.1,3450.4,3462.5,512.3,410.6,486.1,955.1,879.7,436.4,-7.0,-32.0,-9.0,12391.0,-10636.0,1319.0,199.0,108.0,489.0,253.0,9.0,-13.0,-1.0,8477.0,-10668.0,-6131.0,6721.0,-107.0,-110.0,197.0,1.0
2022-05-08 17:21:13.530244-07:00,690.5,796.0,800.2,1047.0,377.8,296.7,889.0,711.8,3457.6,3464.9,1291.8,770.3,586.7,3457.6,1228.4,878.9,3439.5,3444.3,391.1,316.7,326.7,319.0,275.2,271.4,3450.4,3462.5,512.3,410.6,515.5,953.4,871.3,462.4,-5.0,-27.0,-58.0,12399.0,-10595.0,1560.0,137.0,95.0,493.0,274.0,12.0,-14.0,-5.0,8381.0,-10687.0,-6116.0,6826.0,-63.0,-192.0,259.0,1.0
2022-05-08 17:21:13.560745-07:00,690.5,796.0,800.2,1047.0,395.7,296.7,894.1,723.3,3457.6,3464.9,1291.8,770.3,580.2,3464.9,1224.8,879.7,3440.7,3449.1,389.5,313.6,326.7,319.0,275.2,271.4,3462.5,3460.1,504.4,404.3,515.5,953.4,871.3,462.4,5.0,10.0,10.0,12401.0,-10559.0,1772.0,100.0,177.0,378.0,234.0,-3.0,-5.0,12.0,8290.0,-10666.0,-6123.0,6960.0,79.0,-362.0,204.0,1.0
2022-05-08 17:21:13.620820-07:00,695.4,796.9,796.9,1045.2,395.7,296.7,894.1,723.3,3469.8,3460.1,1289.1,765.3,580.2,3464.9,1224.8,879.7,3440.7,3449.1,389.5,313.6,327.5,324.4,278.3,272.1,3462.5,3460.1,504.4,404.3,515.5,928.8,860.4,475.8,-22.0,-28.0,19.0,12412.0,-10515.0,1951.0,56.0,-54.0,368.0,190.0,1.0,-23.0,31.0,8190.0,-10655.0,-6149.0,7072.0,-170.0,-245.0,209.0,1.0
2022-05-08 17:21:13.710369-07:00,694.6,796.9,796.9,1045.2,391.8,298.2,891.5,717.5,3468.6,3460.1,1289.1,765.3,582.6,3462.5,1206.2,877.2,3445.5,3443.1,398.9,312.8,327.5,324.4,278.3,272.1,3468.6,3466.1,502.0,409.0,515.5,928.8,860.4,480.6,9.0,-86.0,34.0,12355.0,-10546.0,2136.0,30.0,-246.0,456.0,235.0,-5.0,-63.0,-18.0,8033.0,-10709.0,-6150.0,7170.0,-256.0,-237.0,402.0,1.0
2022-05-08 17:21:13.711581-07:00,694.6,795.2,796.9,1061.7,391.8,298.2,891.5,720.8,3468.6,3469.8,1284.6,762.9,582.6,3462.5,1206.2,874.7,3454.0,3443.1,398.9,312.8,328.2,320.5,278.3,272.1,3455.2,3466.1,502.0,409.0,521.8,916.0,852.8,480.6,-2.0,-79.0,41.0,12246.0,-10624.0,2370.0,-20.0,-393.0,540.0,273.0,51.0,-55.0,33.0,7829.0,-10807.0,-6107.0,7284.0,-352.0,-103.0,581.0,1.0
2022-05-08 17:21:13.771664-07:00,692.1,795.2,796.9,1061.7,398.9,296.7,886.5,720.8,3467.4,3469.8,1284.6,762.9,581.0,3463.7,1203.5,874.7,3454.0,3443.1,389.5,310.5,328.2,320.5,278.3,268.3,3455.2,3451.6,498.0,408.2,521.8,916.0,852.8,475.0,24.0,-78.0,49.0,12102.0,-10732.0,2604.0,-29.0,-457.0,408.0,456.0,39.0,-63.0,37.0,7668.0,-10913.0,-6029.0,7363.0,-224.0,-85.0,751.0,1.0
2022-05-08 17:21:13.860826-07:00,692.1,786.1,787.7,1047.0,398.9,296.7,886.5,732.3,3467.4,3472.2,1272.1,759.6,581.0,3463.7,1203.5,878.0,3444.3,3443.1,389.5,310.5,328.2,321.3,279.0,268.3,3456.4,3451.6,498.0,408.2,522.6,908.4,845.3,475.0,44.0,0.0,25.0,11998.0,-10783.0,2867.0,6.0,-90.0,567.0,470.0,42.0,6.0,0.0,7425.0,-11019.0,-5818.0,7618.0,72.0,-278.0,791.0,1.0
2022-05-08 17:21:13.862195-07:00,690.5,786.1,787.7,1047.0,398.1,299.0,886.5,732.3,3474.6,3472.2,1272.1,759.6,587.5,3462.5,1197.4,878.0,3444.3,3438.2,390.3,315.1,328.2,321.3,279.0,272.1,3456.4,3461.3,499.6,406.7,522.6,908.4,845.3,479.0,12.0,68.0,10.0,11932.0,-10770.0,3175.0,20.0,-117.0,460.0,475.0,18.0,24.0,24.0,7269.0,-11075.0,-5627.0,7827.0,57.0,-168.0,675.0,1.0
2022-05-08 17:21:13.980273-07:00,690.5,777.8,790.2,1054.8,398.1,299.0,886.5,724.1,3474.6,3467.4,1276.5,762.9,587.5,3462.5,1197.4,871.3,3451.6,3438.2,390.3,315.1,323.6,322.8,273.7,272.1,3463.7,3461.3,499.6,406.7,514.7,911.0,845.3,479.0,13.0,67.0,9.0,11859.0,-10766.0,3449.0,13.0,-7.0,579.0,325.0,17.0,32.0,27.0,7162.0,-11113.0,-5500.0,7961.0,106.0,-168.0,505.0,1.0
2022-05-08 17:21:13.981389-07:00,692.9,781.9,790.2,1054.8,408.2,299.7,880.6,724.1,3468.6,3464.9,1276.5,762.9,584.3,3466.1,1191.2,871.3,3451.6,3445.5,392.6,310.5,323.6,322.8,277.5,267.6,3463.7,3457.6,492.5,405.9,514.7,911.0,836.9,471.9,-31.0,171.0,-14.0,11827.0,-10723.0,3684.0,-41.0,11.0,133.0,145.0,42.0,93.0,135.0,7108.0,-11126.0,-5409.0,8055.0,73.0,-95.0,100.0,1.0
2022-05-08 17:21:14.011116-07:00,692.9,781.9,784.4,1047.0,408.2,299.7,884.8,720.8,3468.6,3464.9,1272.1,768.7,584.3,3466.1,1185.9,879.7,3450.4,3438.2,392.6,310.5,329.0,322.8,277.5,267.6,3468.6,3466.1,492.5,405.9,518.7,907.6,836.9,471.9,31.0,74.0,12.0,11834.0,-10707.0,3707.0,-44.0,114.0,69.0,-82.0,9.0,63.0,-12.0,7113.0,-11095.0,-5399.0,8099.0,97.0,-10.0,-69.0,1.0
2022-05-08 17:21:14.099982-07:00,693.8,774.5,784.4,1047.0,389.5,298.2,884.8,720.8,3454.0,3464.9,1272.1,768.7,586.7,3464.9,1185.9,879.7,3450.4,3438.2,394.2,311.3,329.0,322.8,281.3,267.6,3468.6,3466.1,499.6,403.5,518.7,907.6,833.6,479.0,-50.0,-57.0,-31.0,11840.0,-10704.0,3695.0,-117.0,-63.0,5.0,-180.0,-43.0,-39.0,6.0,7141.0,-11103.0,-5406.0,8058.0,-52.0,74.0,-46.0,1.0
2022-05-08 17:21:14.520111-07:00,693.8,774.5,785.2,1049.6,389.5,298.2,878.0,730.7,3454.0,3464.9,1267.6,744.7,586.7,3464.9,1182.3,876.4,3437.0,3440.7,394.2,311.3,331.3,324.4,281.3,267.6,3450.4,3463.7,499.6,403.5,515.5,902.5,833.6,479.0,7.0,-13.0,-16.0,11835.0,-10720.0,3664.0,-133.0,51.0,33.0,66.0,-16.0,-9.0,-30.0,7150.0,-11104.0,-5399.0,8054.0,69.0,-13.0,46.0,1.0
2022-05-08 17:21:14.730151-07:00,690.5,772.8,785.2,1049.6,389.5,294.4,878.0,730.7,3456.4,3466.1,1267.6,744.7,585.1,3462.5,1182.3,876.4,3437.0,3440.7,394.2,311.3,331.3,324.4,273.7,269.1,3450.4,3463.7,492.5,411.4,515.5,902.5,832.7,467.9,18.0,21.0,-10.0,11831.0,-10713.0,3698.0,-139.0,-38.0,81.0,5.0,15.0,6.0,-2.0,7154.0,-11117.0,-5377.0,8047.0,-30.0,78.0,10.0,1.0
2022-05-08 17:21:14.731151-07:00,690.5,772.8,777.8,1048.7,389.5,294.4,878.0,717.5,3456.4,3466.1,1266.7,765.3,585.1,3462.5,1179.7,873.8,3444.3,3445.5,394.2,311.3,332.1,321.3,273.7,269.1,3460.1,3452.8,492.5,411.4,511.5,911.0,832.7,467.9,11.0,-28.0,1.0,11826.0,-10718.0,3697.0,-161.0,17.0,-13.0,-27.0,8.0,-12.0,-3.0,7164.0,-11124.0,-5378.0,8027.0,29.0,7.0,-32.0,1.0
2022-05-08 17:21:14.732206-07:00,692.1,775.3,777.8,1048.7,392.6,289.8,878.0,717.5,3467.4,3463.7,1266.7,765.3,584.3,3468.6,1179.7,873.8,3444.3,3445.5,390.3,311.3,332.1,321.3,278.3,269.9,3460.1,3452.8,494.8,408.2,511.5,911.0,837.7,471.1,3.0,-17.0,11.0,11835.0,-10711.0,3689.0,-150.0,-22.0,-28.0,17.0,0.0,-11.0,-1.0,7174.0,-11119.0,-5380.0,8024.0,-21.0,13.0,-2.0,1.0
2022-05-08 17:21:15.000225-07:00,692.1,775.3,774.5,1059.9,392.6,295.9,874.7,717.5,3467.4,3463.7,1261.3,764.5,584.3,3469.8,1170.0,869.6,3441.9,3449.1,395.7,311.3,330.5,322.8,278.3,269.9,3452.8,3457.6,492.5,408.2,510.7,902.5,837.7,471.1,-7.0,25.0,16.0,11832.0,-10714.0,3692.0,-144.0,2.0,-9.0,7.0,-3.0,14.0,28.0,7175.0,-11120.0,-5379.0,8022.0,9.0,13.0,-7.0,1.0
2022-05-08 17:21:15.001186-07:00,692.9,777.8,779.4,1059.9,391.1,295.9,874.7,717.5,3468.6,3456.4,1257.8,764.5,588.3,3469.8,1170.0,869.6,3441.9,3449.1,395.7,313.6,330.5,319.7,274.4,269.9,3452.8,3457.6,492.5,402.8,510.7,900.0,824.4,471.1,-6.0,3.0,5.0,11829.0,-10722.0,3680.0,-94.0,-42.0,-33.0,12.0,1.0,0.0,14.0,7183.0,-11119.0,-5374.0,8021.0,-16.0,12.0,4.0,1.0
2022-05-08 17:21:15.090049-07:00,685.6,772.0,776.1,1050.4,387.2,293.6,873.8,723.3,3466.1,3464.9,1257.8,759.6,586.7,3468.6,1170.9,871.3,3444.3,3438.2,388.7,314.4,325.9,320.5,270.6,268.3,3456.4,3450.4,498.8,405.1,505.1,903.4,834.4,471.1,5.0,-14.0,13.0,11833.0,-10727.0,3651.0,-39.0,4.0,-56.0,13.0,3.0,-6.0,1.0,7192.0,-11110.0,-5369.0,8028.0,30.0,-38.0,5.0,1.0
2022-05-08 17:21:15.092368-07:00,690.5,767.0,774.5,1050.4,384.8,309.0,874.7,711.0,3464.9,3474.6,1250.6,765.3,582.6,3457.6,1170.0,872.1,3445.5,3443.1,385.6,315.1,331.3,315.9,271.4,268.3,3452.8,3455.2,483.0,405.1,515.5,922.0,827.7,469.5,2.0,-8.0,10.0,11844.0,-10717.0,3648.0,-25.0,18.0,-20.0,26.0,8.0,0.0,-1.0,7198.0,-11098.0,-5368.0,8040.0,29.0,-18.0,6.0,1.0
2022-05-08 17:21:15.093175-07:00,686.4,772.8,771.1,1049.6,384.8,309.0,874.7,711.0,3475.9,3455.2,1262.2,764.5,582.6,3457.6,1170.0,872.1,3445.5,3443.1,385.6,315.1,327.5,319.0,275.2,275.2,3452.8,3455.2,483.0,405.1,514.7,902.5,828.5,465.6,2.0,1.0,1.0,11854.0,-10706.0,3649.0,-8.0,41.0,-48.0,40.0,-2.0,-1.0,9.0,7210.0,-11085.0,-5361.0,8052.0,71.0,-57.0,2.0,1.0
2022-05-08 17:21:15.840512-07:00,686.4,772.8,771.1,1049.6,384.8,312.0,881.4,714.2,3475.9,3455.2,1262.2,764.5,585.1,3457.6,1175.3,868.8,3438.2,3437.0,393.4,311.3,327.5,319.0,275.2,275.2,3462.5,3458.9,485.3,402.8,514.7,902.5,828.5,465.6,0.0,-6.0,8.0,11870.0,-10689.0,3643.0,8.0,29.0,-34.0,23.0,3.0,1.0,3.0,7216.0,-11067.0,-5361.0,8071.0,19.0,-27.0,1.0,1.0
2022-05-08 17:21:15.900175-07:00,694.6,768.7,781.9,1059.9,389.5,300.5,878.0,717.5,3462.5,3457.6,1257.8,757.9,585.9,3460.1,1169.1,873.0,3446.7,3444.3,394.2,311.3,326.7,324.4,276.7,272.1,3468.6,3452.8,486.1,404.3,510.7,893.2,829.4,465.6,3.0,6.0,12.0,11886.0,-10672.0,3643.0,41.0,14.0,-31.0,32.0,0.0,-1.0,14.0,7223.0,-11050.0,-5361.0,8088.0,30.0,-13.0,3.0,1.0
2022-05-08 17:21:16.080149-07:00,692.9,768.7,781.9,1059.9,384.0,299.7,871.3,717.5,3462.5,3457.6,1257.8,757.9,581.8,3462.5,1170.0,873.0,3446.7,3439.5,387.9,315.1,326.7,324.4,276.7,270.6,3468.6,3451.6,487.7,400.4,510.7,893.2,829.4,467.1,-2.0,-7.0,6.0,11888.0,-10670.0,3640.0,48.0,8.0,-5.0,2.0,7.0,-5.0,6.0,7226.0,-11046.0,-5359.0,8092.0,14.0,1.0,1.0,1.0
2022-05-08 17:21:16.110833-07:00,692.9,764.5,772.8,1047.0,384.0,299.7,871.3,713.4,3462.5,3463.7,1252.4,762.0,581.8,3462.5,1170.0,874.7,3438.2,3439.5,387.9,315.1,326.7,321.3,272.1,270.6,3461.3,3451.6,487.7,400.4,504.4,899.1,826.0,467.1,-4.0,0.0,2.0,11897.0,-10662.0,3636.0,49.0,32.0,-24.0,5.0,1.0,0.0,7.0,7236.0,-11039.0,-5352.0,8097.0,43.0,-8.0,-3.0,1.0
2022-05-08 17:21:16.201091-07:00,687.2,764.5,772.8,1047.0,383.3,299.7,871.3,713.4,3466.1,3463.7,1252.4,762.0,586.7,3469.8,1163.8,874.7,3438.2,3444.3,390.3,315.1,326.7,321.3,272.1,268.3,3461.3,3447.9,488.5,401.2,504.4,899.1,826.0,464.8,-1.0,-7.0,3.0,11906.0,-10654.0,3628.0,59.0,22.0,-21.0,30.0,-1.0,-9.0,1.0,7246.0,-11032.0,-5345.0,8103.0,28.0,11.0,7.0,1.0
2022-05-08 17:21:16.201992-07:00,687.2,764.5,772.8,1047.0,383.3,299.7,871.3,713.4,3466.1,3463.7,1252.4,762.0,586.7,3469.8,1163.8,874.7,3438.2,3444.3,390.3,315.1,326.7,321.3,272.1,268.3,3461.3,3447.9,488.5,401.2,504.4,899.1,826.0,464.8,-1.0,-7.0,3.0,11906.0,-10654.0,3628.0,59.0,22.0,-21.0,30.0,-1.0,-9.0,1.0,7246.0,-11032.0,-5345.0,8103.0,28.0,11.0,7.0,1.0
2022-05-08 17:21:16.203559-07:00,691.3,763.7,776.1,1047.8,381.7,298.2,871.3,711.0,3458.9,3461.3,1257.8,764.5,587.5,3467.4,1164.7,873.0,3444.3,3449.1,385.6,318.2,328.2,323.6,273.7,271.4,3457.6,3461.3,483.0,405.9,510.7,897.4,819.4,462.4,-10.0,-5.0,7.0,11991.0,-10565.0,3609.0,106.0,17.0,8.0,13.0,-4.0,-2.0,12.0,7336.0,-10962.0,-5284.0,8156.0,17.0,18.0,2.0,1.0
2022-05-08 17:21:16.204794-07:00,689.7,759.6,771.1,1052.2,377.8,292.8,870.5,712.6,3457.6,3471.0,1256.0,758.7,583.5,3462.5,1160.3,869.6,3440.7,3433.4,388.7,309.7,323.6,322.1,275.2,268.3,3460.1,3461.3,488.5,400.4,505.9,894.1,807.7,460.8,0.0,-1.0,6.0,11992.0,-10564.0,3610.0,107.0,3.0,7.0,-5.0,4.0,-1.0,2.0,7340.0,-10964.0,-5280.0,8153.0,3.0,-1.0,-1.0,1.0
2022-05-08 17:21:16.205454-07:00,689.7,759.6,771.1,1052.2,377.8,292.8,870.5,712.6,3457.6,3471.0,1256.0,758.7,583.5,3462.5,1160.3,869.6,3440.7,3433.4,388.7,309.7,323.6,322.1,275.2,268.3,3460.1,3461.3,488.5,400.4,505.9,894.1,807.7,460.8,0.0,-1.0,6.0,11992.0,-10564.0,3610.0,107.0,3.0,7.0,-5.0,4.0,-1.0,2.0,7340.0,-10964.0,-5280.0,8153.0,3.0,-1.0,-1.0,1.0
2022-05-08 17:21:16.206038-07:00,689.7,759.6,771.1,1052.2,377.8,292.8,870.5,712.6,3457.6,3471.0,1256.0,758.7,583.5,3462.5,1160.3,869.6,3440.7,3433.4,388.7,309.7,323.6,322.1,275.2,268.3,3460.1,3461.3,488.5,400.4,505.9,894.1,807.7,460.8,0.0,-1.0,6.0,11992.0,-10564.0,3610.0,107.0,3.0,7.0,-5.0,4.0,-1.0,2.0,7340.0,-10964.0,-5280.0,8153.0,3.0,-1.0,-1.0,1.0
2022-05-08 17:21:16.291244-07:00,687.2,766.2,773.6,1041.8,389.5,292.1,876.4,711.0,3468.6,3466.1,1249.7,757.9,589.1,3447.9,1161.2,867.9,3444.3,3439.5,392.6,313.6,329.0,323.6,277.5,272.9,3457.6,3456.4,492.5,406.7,505.1,907.6,813.5,463.2,20.0,49.0,-8.0,12036.0,-10573.0,3431.0,23.0,80.0,-244.0,-277.0,28.0,32.0,17.0,7451.0,-10949.0,-5357.0,8021.0,43.0,56.0,-303.0,1.0
2022-05-08 17:21:16.292141-07:00,687.2,761.2,771.1,1046.1,384.8,295.1,865.4,705.2,3468.6,3464.9,1248.8,765.3,584.3,3463.7,1166.5,873.8,3451.6,3449.1,390.3,318.2,325.9,320.5,277.5,272.1,3462.5,3458.9,493.2,402.0,505.1,894.9,816.9,462.4,1.0,3.0,-11.0,12219.0,-10476.0,3061.0,-99.0,310.0,-307.0,-438.0,-7.0,9.0,-6.0,7694.0,-10793.0,-5566.0,7860.0,97.0,-56.0,-637.0,1.0
2022-05-08 17:21:16.320351-07:00,687.2,764.5,777.8,1057.3,384.8,295.1,865.4,709.3,3468.6,3478.3,1253.3,762.9,584.3,3463.7,1166.5,872.1,3439.5,3449.1,390.3,318.2,328.2,322.1,275.2,272.1,3468.6,3458.9,493.2,402.0,505.9,896.6,815.2,462.4,-31.0,-5.0,-8.0,12324.0,-10409.0,2861.0,-176.0,288.0,-280.0,-371.0,-21.0,-3.0,9.0,7847.0,-10673.0,-5732.0,7752.0,78.0,-13.0,-617.0,1.0
2022-05-08 17:21:16.350239-07:00,689.7,764.5,777.8,1057.3,382.5,297.4,870.5,709.3,3468.6,3478.3,1253.3,762.9,581.8,3474.6,1156.8,872.1,3439.5,3443.1,392.6,312.0,328.2,322.1,275.2,272.1,3468.6,3452.8,490.1,412.1,505.9,896.6,815.2,460.8,-26.0,-7.0,4.0,12395.0,-10374.0,2670.0,-246.0,148.0,-217.0,-419.0,-6.0,-3.0,7.0,7977.0,-10574.0,-5888.0,7637.0,-29.0,40.0,-557.0,1.0
2022-05-08 17:21:16.470370-07:00,689.7,764.5,782.7,1058.2,382.5,297.4,870.5,705.2,3468.6,3457.6,1249.7,762.0,581.8,3474.6,1156.8,873.0,3446.7,3443.1,392.6,312.0,326.7,322.8,277.5,272.1,3456.4,3452.8,490.1,412.1,502.0,898.3,815.2,460.8,-9.0,-81.0,12.0,12429.0,-10373.0,2499.0,-321.0,79.0,-160.0,-317.0,-5.0,-35.0,-1.0,8073.0,-10515.0,-6033.0,7504.0,3.0,57.0,-437.0,1.0
2022-05-08 17:21:16.500002-07:00,688.0,764.5,782.7,1058.2,387.2,298.2,867.9,705.2,3467.4,3457.6,1249.7,762.0,589.1,3471.0,1151.5,873.0,3446.7,3444.3,392.6,313.6,326.7,322.8,277.5,273.7,3456.4,3456.4,486.1,402.8,502.0,898.3,815.2,461.6,-4.0,-22.0,6.0,12488.0,-10326.0,2396.0,-357.0,237.0,-166.0,-145.0,21.0,-12.0,7.0,8182.0,-10433.0,-6120.0,7429.0,149.0,0.0,-360.0,1.0
2022-05-08 17:21:16.501376-07:00,688.0,772.8,781.9,1049.6,387.2,298.2,867.9,706.0,3467.4,3469.8,1249.7,762.0,589.1,3471.0,1151.5,870.5,3444.3,3444.3,392.6,313.6,332.1,318.2,274.4,273.7,3461.3,3456.4,486.1,402.8,505.1,894.1,819.4,461.6,11.0,-17.0,19.0,12553.0,-10275.0,2268.0,-375.0,150.0,-231.0,-227.0,25.0,-13.0,5.0,8288.0,-10356.0,-6187.0,7362.0,90.0,70.0,-333.0,1.0
2022-05-08 17:21:16.590508-07:00,689.7,769.5,781.9,1049.6,390.3,292.1,868.8,706.0,3473.4,3468.6,1249.7,762.0,582.6,3472.2,1147.1,870.5,3444.3,3440.7,392.6,310.5,332.1,318.2,272.1,268.3,3461.3,3462.5,486.1,408.2,505.1,894.1,810.2,460.0,56.0,-12.0,13.0,12565.0,-10285.0,2147.0,-400.0,-73.0,-147.0,-209.0,12.0,-15.0,35.0,8363.0,-10330.0,-6252.0,7260.0,-12.0,96.0,-264.0,1.0
2022-05-08 17:21:16.860183-07:00,689.7,769.5,772.8,1047.8,390.3,292.1,864.6,705.2,3473.4,3468.6,1243.5,757.9,582.6,3472.2,1146.3,864.6,3445.5,3443.1,392.6,310.5,330.5,320.5,272.1,268.3,3471.0,3466.1,486.1,408.2,509.1,894.9,810.2,460.0,13.0,-43.0,12.0,12577.0,-10288.0,2062.0,-405.0,67.0,-133.0,-69.0,14.0,-26.0,6.0,8438.0,-10304.0,-6280.0,7185.0,68.0,125.0,-182.0,1.0
2022-05-08 17:21:16.861514-07:00,697.0,762.9,772.8,1047.8,389.5,296.7,864.6,705.2,3457.6,3468.6,1243.5,757.9,580.2,3471.0,1146.3,864.6,3445.5,3443.1,384.8,308.2,330.5,320.5,276.7,276.7,3471.0,3466.1,485.3,399.6,509.1,894.9,818.5,461.6,-6.0,-18.0,-4.0,12592.0,-10286.0,1985.0,-367.0,34.0,-267.0,-41.0,16.0,-13.0,8.0,8504.0,-10291.0,-6277.0,7129.0,117.0,108.0,-92.0,1.0
2022-05-08 17:21:16.953454-07:00,697.0,762.9,777.8,1050.4,389.5,296.7,864.6,702.8,3457.6,3468.6,1244.4,762.9,580.2,3471.0,1143.6,865.4,3447.9,3440.7,384.8,308.2,323.6,318.2,276.7,276.7,3449.1,3450.4,485.3,399.6,505.9,887.3,818.5,461.6,-5.0,-14.0,33.0,12621.0,-10270.0,1887.0,-325.0,16.0,-158.0,-59.0,10.0,4.0,-2.0,8573.0,-10258.0,-6257.0,7110.0,55.0,111.0,-73.0,1.0
2022-05-08 17:21:16.954298-07:00,697.9,768.7,777.8,1050.4,389.5,292.8,864.6,702.8,3478.3,3471.0,1244.4,762.9,586.7,3462.5,1143.6,865.4,3447.9,3440.7,393.4,312.0,323.6,318.2,273.7,271.4,3449.1,3450.4,493.2,402.8,505.9,887.3,833.6,457.7,-49.0,12.0,-46.0,12647.0,-10258.0,1789.0,-274.0,53.0,-420.0,-72.0,-15.0,30.0,-11.0,8630.0,-10254.0,-6222.0,7079.0,139.0,143.0,-49.0,1.0
2022-05-08 17:21:17.040570-07:00,697.9,768.7,773.6,1036.6,389.5,292.8,866.3,722.5,3478.3,3471.0,1253.3,761.2,586.7,3462.5,1146.3,872.1,3449.1,3441.9,393.4,312.0,329.0,315.9,273.7,271.4,3460.1,3462.5,493.2,402.8,505.1,894.9,833.6,457.7,-16.0,13.0,6.0,12683.0,-10240.0,1636.0,-195.0,55.0,-372.0,-89.0,36.0,-16.0,69.0,8698.0,-10255.0,-6170.0,7038.0,44.0,267.0,-28.0,1.0
2022-05-08 17:21:17.041743-07:00,689.7,770.3,773.6,1036.6,393.4,296.7,866.3,722.5,3458.9,3471.0,1253.3,761.2,585.9,3473.4,1146.3,872.1,3449.1,3441.9,392.6,312.8,329.0,315.9,276.7,269.9,3460.1,3462.5,493.2,405.1,505.1,894.9,830.2,474.3,18.0,43.0,11.0,12691.0,-10273.0,1356.0,-77.0,-202.0,-855.0,-302.0,30.0,22.0,16.0,8767.0,-10350.0,-6053.0,6914.0,-99.0,627.0,38.0,1.0
2022-05-08 17:21:17.042325-07:00,689.7,770.3,773.6,1036.6,393.4,296.7,866.3,722.5,3458.9,3471.0,1253.3,761.2,585.9,3473.4,1146.3,872.1,3449.1,3441.9,392.6,312.8,329.0,315.9,276.7,269.9,3460.1,3462.5,493.2,405.1,505.1,894.9,830.2,474.3,18.0,43.0,11.0,12691.0,-10273.0,1356.0,-77.0,-202.0,-855.0,-302.0,30.0,22.0,16.0,8767.0,-10350.0,-6053.0,6914.0,-99.0,627.0,38.0,1.0
2022-05-08 17:21:17.043077-07:00,687.2,763.7,737.3,1031.4,393.4,298.2,870.5,726.6,3472.2,3473.4,1248.0,762.0,585.9,3463.7,1131.4,872.1,3438.2,3446.7,389.5,313.6,329.8,323.6,278.3,269.9,3463.7,3460.1,486.9,406.7,498.8,887.3,796.0,460.0,-3.0,-1.0,23.0,12479.0,-10576.0,905.0,172.0,-581.0,-156.0,88.0,16.0,-3.0,26.0,8812.0,-10749.0,-5778.0,6470.0,-486.0,736.0,113.0,1.0
2022-05-08 17:21:17.044145-07:00,687.2,763.7,737.3,1034.0,393.4,297.4,868.8,732.3,3472.2,3473.4,1248.0,763.7,585.9,3463.7,1125.2,872.1,3454.0,3437.0,389.5,313.6,331.3,323.6,278.3,269.9,3457.6,3454.0,497.2,406.7,498.0,887.3,796.0,460.0,42.0,-13.0,19.0,12282.0,-10802.0,925.0,218.0,-612.0,205.0,92.0,-28.0,27.0,-67.0,8731.0,-11002.0,-5684.0,6233.0,-543.0,548.0,122.0,1.0
2022-05-08 17:21:17.071154-07:00,692.1,782.7,731.5,1034.0,398.9,297.4,868.8,732.3,3462.5,3455.2,1232.8,763.7,587.5,3463.7,1125.2,872.1,3454.0,3437.0,389.5,310.5,331.3,320.5,278.3,269.9,3457.6,3454.0,497.2,406.7,498.0,885.6,772.0,452.2,-64.0,-22.0,-53.0,12066.0,-11020.0,1183.0,127.0,-888.0,877.0,288.0,-47.0,28.0,-84.0,8550.0,-11250.0,-5699.0,6025.0,-969.0,296.0,103.0,1.0
2022-05-08 17:21:17.130475-07:00,692.1,782.7,731.5,1036.6,398.9,296.7,889.8,741.4,3462.5,3455.2,1232.8,762.0,587.5,3462.5,1116.5,868.8,3438.2,3443.1,389.5,310.5,336.7,320.5,278.3,269.9,3457.6,3452.8,499.6,406.7,498.8,885.6,772.0,452.2,1.0,12.0,-26.0,11754.0,-11304.0,1586.0,-24.0,-816.0,970.0,292.0,29.0,26.0,-26.0,8261.0,-11498.0,-5778.0,5883.0,-774.0,119.0,213.0,1.0
2022-05-08 17:21:17.160249-07:00,695.4,806.0,733.2,1036.6,388.7,296.7,889.8,741.4,3461.3,3466.1,1224.8,762.0,588.3,3462.5,1116.5,868.8,3438.2,3443.1,389.5,313.6,336.7,327.5,276.7,268.3,3457.6,3452.8,499.6,417.6,498.8,882.3,743.0,455.3,5.0,50.0,-35.0,11557.0,-11445.0,1954.0,-266.0,-353.0,1110.0,74.0,29.0,68.0,-28.0,8040.0,-11667.0,-5794.0,5841.0,-687.0,15.0,242.0,1.0
2022-05-08 17:21:17.220949-07:00,695.4,806.0,733.2,1033.2,383.3,296.7,906.7,757.1,3461.3,3466.1,1224.8,760.4,588.3,3463.7,1115.6,865.4,3451.6,3444.3,394.2,315.1,332.9,327.5,276.7,268.3,3467.4,3458.9,495.6,416.1,498.0,882.3,743.0,455.3,-35.0,-37.0,-38.0,11374.0,-11564.0,2250.0,-520.0,-251.0,729.0,50.0,-4.0,-10.0,32.0,7827.0,-11850.0,-5782.0,5772.0,-351.0,57.0,288.0,1.0
2022-05-08 17:21:17.280500-07:00,696.2,786.9,724.9,1031.4,383.3,296.7,906.7,757.1,3461.3,3464.9,1202.7,754.6,588.3,3463.7,1115.6,865.4,3451.6,3444.3,394.2,315.1,332.9,329.0,274.4,269.9,3467.4,3458.9,495.6,416.1,492.5,874.7,708.5,453.0,-6.0,24.0,-44.0,11388.0,-11501.0,2430.0,-750.0,503.0,618.0,-157.0,12.0,-5.0,-5.0,7817.0,-11836.0,-5702.0,5893.0,376.0,-217.0,241.0,1.0
2022-05-08 17:21:17.310413-07:00,696.2,786.9,724.9,1031.4,386.4,297.4,905.9,772.0,3461.3,3464.9,1202.7,754.6,581.8,3467.4,1116.5,866.3,3443.1,3450.4,391.1,315.1,332.9,329.0,274.4,269.9,3460.1,3468.6,490.1,409.8,492.5,874.7,708.5,453.0,-47.0,9.0,-67.0,11401.0,-11476.0,2443.0,-884.0,-350.0,-47.0,-147.0,2.0,32.0,16.0,7749.0,-11859.0,-5687.0,5951.0,-355.0,-60.0,141.0,1.0
2022-05-08 17:21:17.400460-07:00,699.5,791.9,718.4,1034.0,386.4,297.4,905.9,772.0,3458.9,3464.9,1187.6,756.3,581.8,3467.4,1116.5,866.3,3443.1,3450.4,391.1,315.1,332.1,322.8,281.3,266.8,3460.1,3468.6,490.1,409.8,494.8,883.1,716.7,448.2,47.0,0.0,-2.0,11355.0,-11541.0,2382.0,-790.0,95.0,-240.0,127.0,46.0,92.0,-53.0,7704.0,-11862.0,-5659.0,6030.0,363.0,-145.0,166.0,1.0
2022-05-08 17:21:17.401625-07:00,699.5,791.9,718.4,1034.0,386.4,295.9,894.1,765.3,3458.9,3464.9,1187.6,756.3,586.7,3452.8,1111.2,870.5,3446.7,3449.1,392.6,313.6,332.1,322.8,281.3,266.8,3449.1,3463.7,497.2,414.5,494.8,883.1,716.7,448.2,26.0,68.0,-20.0,11403.0,-11504.0,2355.0,-718.0,45.0,-198.0,13.0,42.0,30.0,13.0,7706.0,-11824.0,-5671.0,6090.0,16.0,-147.0,-85.0,1.0
2022-05-08 17:21:17.460486-07:00,696.2,777.8,720.0,1035.7,386.4,295.9,894.1,765.3,3471.0,3471.0,1181.5,756.3,586.7,3452.8,1111.2,870.5,3446.7,3449.1,392.6,313.6,332.1,321.3,277.5,268.3,3449.1,3463.7,497.2,414.5,495.6,869.6,709.3,456.1,0.0,-32.0,27.0,11432.0,-11500.0,2254.0,-654.0,54.0,-288.0,-60.0,13.0,0.0,8.0,7716.0,-11777.0,-5731.0,6111.0,58.0,-122.0,-134.0,1.0
2022-05-08 17:21:17.550529-07:00,696.2,777.8,720.0,1035.7,386.4,298.2,883.9,762.9,3471.0,3471.0,1181.5,756.3,580.2,3471.0,1106.9,872.1,3444.3,3438.2,393.4,312.8,332.1,321.3,277.5,268.3,3457.6,3463.7,489.3,409.0,495.6,869.6,709.3,456.1,-5.0,-32.0,49.0,11477.0,-11470.0,2194.0,-575.0,139.0,-187.0,110.0,2.0,-17.0,8.0,7749.0,-11719.0,-5770.0,6145.0,179.0,-116.0,-43.0,1.0
2022-05-08 17:21:17.551786-07:00,692.9,780.3,720.0,1039.2,386.4,298.2,883.9,757.9,3472.2,3468.6,1183.2,758.7,580.2,3471.0,1106.9,866.3,3444.3,3438.2,393.4,312.8,331.3,322.8,272.9,269.1,3456.4,3463.7,489.3,409.0,494.8,883.9,703.6,456.1,-37.0,9.0,26.0,11518.0,-11433.0,2186.0,-527.0,12.0,-71.0,49.0,-18.0,5.0,18.0,7779.0,-11676.0,-5772.0,6187.0,-8.0,-28.0,4.0,1.0
2022-05-08 17:21:17.641232-07:00,690.5,780.3,720.0,1039.2,390.3,295.1,889.0,757.9,3471.0,3468.6,1183.2,758.7,581.0,3464.9,1104.3,866.3,3444.3,3446.7,389.5,312.0,331.3,322.8,272.9,273.7,3456.4,3457.6,496.4,405.1,494.8,883.9,703.6,448.2,-17.0,-3.0,28.0,11513.0,-11437.0,2199.0,-505.0,-13.0,38.0,36.0,-4.0,1.0,19.0,7766.0,-11681.0,-5767.0,6197.0,2.0,4.0,42.0,1.0
2022-05-08 17:21:17.642313-07:00,690.5,776.9,715.1,1042.6,390.3,295.1,889.0,758.7,3471.0,3466.1,1176.2,757.1,581.0,3464.9,1104.3,867.1,3438.2,3446.7,389.5,312.0,330.5,322.8,279.0,273.7,3455.2,3457.6,496.4,405.1,488.5,871.3,705.2,448.2,3.0,6.0,0.0,11506.0,-11439.0,2219.0,-520.0,-27.0,63.0,-27.0,19.0,-3.0,6.0,7762.0,-11691.0,-5755.0,6195.0,-36.0,43.0,18.0,1.0
2022-05-08 17:21:17.700529-07:00,692.9,776.9,715.1,1042.6,395.7,292.8,890.7,758.7,3466.1,3466.1,1176.2,757.1,579.4,3473.4,1109.5,867.1,3438.2,3449.1,388.7,309.7,330.5,322.8,279.0,265.3,3455.2,3456.4,490.9,406.7,488.5,871.3,705.2,449.8,12.0,-18.0,-11.0,11500.0,-11444.0,2225.0,-532.0,-13.0,32.0,21.0,23.0,-2.0,-5.0,7760.0,-11703.0,-5749.0,6181.0,-12.0,21.0,16.0,1.0
2022-05-08 17:21:17.850514-07:00,692.9,781.1,710.1,1028.0,395.7,292.8,890.7,757.9,3466.1,3473.4,1167.4,756.3,579.4,3473.4,1109.5,864.6,3449.1,3449.1,388.7,309.7,329.8,325.1,277.5,265.3,3463.7,3456.4,490.9,406.7,486.1,869.6,699.5,449.8,6.0,-12.0,-7.0,11498.0,-11443.0,2240.0,-525.0,12.0,-30.0,48.0,12.0,-4.0,-6.0,7762.0,-11705.0,-5743.0,6181.0,34.0,-16.0,20.0,1.0
2022-05-08 17:21:17.851958-07:00,693.8,781.1,710.1,1028.0,384.8,298.2,884.8,757.9,3464.9,3473.4,1167.4,756.3,587.5,3466.1,1106.0,864.6,3449.1,3440.7,389.5,308.2,329.8,325.1,277.5,269.9,3463.7,3467.4,488.5,411.4,486.1,869.6,699.5,453.0,-4.0,-8.0,0.0,11509.0,-11433.0,2241.0,-503.0,45.0,-39.0,46.0,9.0,0.0,-1.0,7768.0,-11693.0,-5739.0,6200.0,50.0,-50.0,15.0,1.0
2022-05-08 17:21:17.853672-07:00,693.8,778.6,713.4,1029.7,384.8,298.2,885.6,755.4,3464.9,3468.6,1174.4,749.6,587.5,3466.1,1098.2,868.8,3445.5,3443.1,389.5,308.2,332.1,322.8,281.3,269.9,3463.7,3478.3,488.5,411.4,495.6,868.8,702.8,453.0,-6.0,13.0,2.0,11527.0,-11415.0,2245.0,-482.0,22.0,-24.0,34.0,8.0,8.0,9.0,7778.0,-11676.0,-5733.0,6224.0,37.0,-33.0,13.0,1.0
2022-05-08 17:21:17.940565-07:00,699.5,776.9,713.4,1029.7,384.0,296.7,885.6,755.4,3457.6,3468.6,1174.4,749.6,583.5,3467.4,1098.2,868.8,3445.5,3443.1,390.3,309.0,332.1,322.8,275.2,272.1,3463.7,3478.3,486.1,411.4,495.6,868.8,692.1,446.7,-8.0,7.0,14.0,11534.0,-11407.0,2248.0,-466.0,40.0,-15.0,22.0,5.0,4.0,13.0,7784.0,-11666.0,-5733.0,6235.0,41.0,-15.0,2.0,1.0
2022-05-08 17:21:17.942232-07:00,699.5,776.9,711.8,1034.9,384.0,296.7,885.6,754.6,3457.6,3468.6,1167.4,759.6,583.5,3467.4,1106.0,867.1,3439.5,3444.3,390.3,309.0,329.8,323.6,275.2,272.1,3450.4,3454.0,486.1,411.4,492.5,867.9,692.1,446.7,0.0,-3.0,6.0,11553.0,-11389.0,2248.0,-463.0,73.0,-4.0,-12.0,8.0,0.0,8.0,7802.0,-11650.0,-5726.0,6249.0,72.0,-12.0,-9.0,1.0
2022-05-08 17:21:18.090790-07:00,707.7,774.5,711.8,1034.9,384.0,298.2,885.6,754.6,3457.6,3473.4,1167.4,759.6,586.7,3466.1,1106.0,867.1,3439.5,3444.3,393.4,310.5,329.8,323.6,274.4,272.9,3450.4,3454.0,490.1,408.2,492.5,867.9,701.1,449.0,1.0,-5.0,-3.0,11567.0,-11375.0,2242.0,-463.0,29.0,-15.0,5.0,10.0,0.0,2.0,7818.0,-11639.0,-5725.0,6252.0,28.0,-3.0,-17.0,1.0
2022-05-08 17:21:18.091908-07:00,707.7,774.5,715.9,1038.3,384.0,298.2,887.3,757.1,3457.6,3473.4,1177.0,753.8,586.7,3466.1,1098.2,862.9,3438.2,3441.9,393.4,310.5,329.0,320.5,274.4,272.9,3452.8,3456.4,490.1,408.2,494.0,872.1,701.1,449.0,1.0,-2.0,5.0,11581.0,-11362.0,2236.0,-458.0,41.0,-18.0,15.0,10.0,4.0,1.0,7834.0,-11624.0,-5727.0,6257.0,46.0,-11.0,-23.0,1.0
2022-05-08 17:21:18.092903-07:00,692.1,774.5,715.9,1038.3,384.0,292.8,887.3,757.1,3457.6,3464.9,1177.0,753.8,581.8,3462.5,1098.2,862.9,3438.2,3441.9,391.1,314.4,329.0,320.5,273.7,267.6,3452.8,3456.4,486.9,406.7,494.0,872.1,698.7,453.0,-12.0,-4.0,2.0,11595.0,-11350.0,2231.0,-452.0,28.0,-35.0,-3.0,-1.0,1.0,10.0,7849.0,-11610.0,-5730.0,6261.0,31.0,-18.0,-22.0,1.0
2022-05-08 17:21:18.181098-07:00,692.1,774.5,707.7,1035.7,384.0,292.8,882.3,762.0,3457.6,3464.9,1167.4,751.3,581.8,3462.5,1096.4,864.6,3441.9,3438.2,391.1,314.4,329.8,327.5,273.7,267.6,3463.7,3447.9,486.9,406.7,494.8,863.7,698.7,453.0,-2.0,-9.0,8.0,11603.0,-11344.0,2220.0,-440.0,14.0,-28.0,27.0,7.0,0.0,0.0,7856.0,-11601.0,-5731.0,6269.0,27.0,-18.0,4.0,1.0
2022-05-08 17:21:18.240746-07:00,692.1,773.6,711.8,1035.7,382.5,295.9,882.3,762.0,3468.6,3466.1,1171.8,751.3,585.9,3467.4,1096.4,864.6,3441.9,3438.2,385.6,309.7,329.8,322.8,273.7,275.2,3463.7,3447.9,490.1,409.0,494.8,863.7,697.0,452.2,-7.0,2.0,6.0,11607.0,-11339.0,2225.0,-430.0,-17.0,0.0,9.0,6.0,0.0,12.0,7858.0,-11597.0,-5732.0,6272.0,-12.0,8.0,2.0,1.0
2022-05-08 17:21:18.242178-07:00,692.1,773.6,711.8,1021.1,382.5,298.2,881.4,751.3,3468.6,3466.1,1171.8,756.3,585.9,3473.4,1097.3,863.7,3447.9,3435.8,393.4,309.7,330.5,322.8,273.7,275.2,3460.1,3447.9,483.7,409.0,492.5,863.7,697.0,452.2,-3.0,-5.0,1.0,11602.0,-11343.0,2228.0,-425.0,-7.0,-6.0,10.0,8.0,1.0,2.0,7858.0,-11596.0,-5733.0,6272.0,-1.0,-13.0,4.0,1.0
2022-05-08 17:21:18.330491-07:00,697.9,779.4,714.2,1021.1,381.7,298.2,881.4,751.3,3464.9,3461.3,1167.4,756.3,581.0,3473.4,1097.3,863.7,3447.9,3435.8,393.4,310.5,330.5,324.4,268.3,272.1,3460.1,3447.9,483.7,405.9,492.5,870.5,684.8,447.4,-2.0,-7.0,5.0,11602.0,-11345.0,2226.0,-421.0,12.0,-15.0,0.0,8.0,0.0,7.0,7857.0,-11592.0,-5737.0,6278.0,17.0,-21.0,-3.0,1.0
2022-05-08 17:21:18.360370-07:00,697.9,779.4,714.2,1026.3,381.7,294.4,878.0,743.0,3464.9,3461.3,1167.4,757.1,581.0,3463.7,1092.1,863.7,3444.3,3434.6,392.6,310.5,329.0,324.4,268.3,272.1,3464.9,3455.2,483.7,405.9,491.7,870.5,684.8,447.4,-6.0,-11.0,-3.0,11604.0,-11344.0,2219.0,-415.0,-34.0,-30.0,-11.0,9.0,2.0,4.0,7857.0,-11588.0,-5744.0,6280.0,-24.0,-14.0,-15.0,1.0
2022-05-08 17:21:18.391055-07:00,696.2,776.1,713.4,1026.3,382.5,294.4,878.0,743.0,3466.1,3457.6,1166.5,757.1,581.8,3463.7,1092.1,863.7,3444.3,3434.6,392.6,312.0,329.0,325.9,274.4,275.2,3464.9,3455.2,483.7,409.0,491.7,863.7,689.7,440.4,-1.0,9.0,-3.0,11601.0,-11350.0,2206.0,-403.0,-4.0,-32.0,-5.0,10.0,6.0,0.0,7856.0,-11581.0,-5753.0,6285.0,7.0,-24.0,-21.0,1.0
2022-05-08 17:21:18.511245-07:00,696.2,776.1,713.4,1025.4,382.5,297.4,892.4,752.1,3466.1,3457.6,1166.5,753.8,581.8,3474.6,1115.6,867.1,3437.0,3434.6,389.5,312.0,331.3,325.9,274.4,275.2,3468.6,3462.5,483.0,409.0,494.8,863.7,689.7,440.4,-8.0,-2.0,1.0,11601.0,-11353.0,2191.0,-398.0,2.0,-33.0,-21.0,8.0,4.0,5.0,7855.0,-11572.0,-5769.0,6287.0,2.0,-33.0,-34.0,1.0
2022-05-08 17:21:18.512154-07:00,688.9,778.6,712.6,1030.6,384.0,297.4,892.4,752.1,3467.4,3457.6,1166.5,751.3,587.5,3474.6,1115.6,867.1,3437.0,3434.6,389.5,310.5,329.8,324.4,276.0,269.9,3468.6,3462.5,483.0,408.2,492.5,870.5,692.1,445.9,-3.0,-5.0,2.0,11600.0,-11358.0,2172.0,-390.0,-26.0,-47.0,-22.0,8.0,1.0,3.0,7853.0,-11564.0,-5790.0,6287.0,-27.0,-29.0,-43.0,1.0
2022-05-08 17:21:18.540889-07:00,688.9,778.6,712.6,1030.6,384.8,296.7,882.3,750.5,3467.4,3457.6,1166.5,751.3,580.2,3467.4,1097.3,868.8,3447.9,3449.1,390.3,305.1,329.8,324.4,276.0,269.9,3460.1,3468.6,480.6,404.3,492.5,870.5,692.1,445.9,-4.0,0.0,5.0,11603.0,-11359.0,2154.0,-378.0,16.0,-35.0,-1.0,9.0,7.0,4.0,7858.0,-11550.0,-5809.0,6289.0,20.0,-32.0,-42.0,1.0
2022-05-08 17:21:18.601084-07:00,692.9,770.3,702.8,1029.7,384.8,296.7,882.3,750.5,3464.9,3466.1,1169.1,754.6,580.2,3467.4,1097.3,868.8,3447.9,3449.1,390.3,305.1,333.6,324.4,273.7,267.6,3460.1,3468.6,480.6,404.3,495.6,854.5,696.2,443.5,-1.0,2.0,1.0,11608.0,-11357.0,2141.0,-365.0,14.0,-57.0,-8.0,6.0,7.0,2.0,7868.0,-11534.0,-5822.0,6294.0,32.0,-26.0,-32.0,1.0
2022-05-08 17:21:18.691269-07:00,692.9,770.3,702.8,1029.7,377.8,294.4,880.6,748.8,3464.9,3466.1,1169.1,754.6,585.1,3458.9,1098.2,866.3,3443.1,3437.0,385.6,316.7,333.6,324.4,273.7,267.6,3455.2,3463.7,497.2,405.9,495.6,854.5,696.2,443.5,-12.0,-7.0,13.0,11614.0,-11354.0,2126.0,-355.0,16.0,-27.0,-7.0,4.0,0.0,13.0,7876.0,-11523.0,-5830.0,6296.0,24.0,-8.0,-22.0,1.0
2022-05-08 17:21:18.750609-07:00,694.6,772.8,704.4,1033.2,377.8,294.4,880.6,748.8,3469.8,3469.8,1165.6,752.1,585.1,3458.9,1098.2,866.3,3443.1,3437.0,385.6,316.7,328.2,320.5,272.1,270.6,3455.2,3463.7,497.2,405.9,486.1,868.8,685.6,446.7,-11.0,-5.0,7.0,11619.0,-11350.0,2121.0,-349.0,-13.0,-7.0,17.0,8.0,-1.0,12.0,7881.0,-11521.0,-5830.0,6294.0,-3.0,20.0,-6.0,1.0
2022-05-08 17:21:18.752379-07:00,694.6,772.8,704.4,1033.2,380.9,296.7,879.7,750.5,3469.8,3469.8,1165.6,752.1,585.1,3466.1,1092.9,865.4,3438.2,3443.1,391.8,309.0,328.2,320.5,272.1,270.6,3462.5,3457.6,495.6,411.4,486.1,868.8,685.6,446.7,1.0,5.0,-1.0,11616.0,-11353.0,2125.0,-344.0,-4.0,-4.0,4.0,7.0,8.0,1.0,7884.0,-11522.0,-5827.0,6291.0,0.0,9.0,-6.0,1.0
2022-05-08 17:21:18.810475-07:00,692.1,767.8,708.5,1033.2,380.9,296.7,879.7,750.5,3469.8,3462.5,1167.4,752.9,585.1,3466.1,1092.9,865.4,3438.2,3443.1,391.8,309.0,336.7,320.5,273.7,270.6,3462.5,3457.6,495.6,411.4,486.9,865.4,685.6,441.9,2.0,-1.0,-2.0,11611.0,-11358.0,2122.0,-341.0,11.0,-15.0,7.0,12.0,1.0,0.0,7883.0,-11522.0,-5830.0,6288.0,19.0,-9.0,-15.0,1.0
2022-05-08 17:21:18.990651-07:00,692.1,767.8,708.5,1033.2,379.4,298.2,878.0,744.7,3478.3,3462.5,1167.4,752.9,582.6,3468.6,1086.0,863.7,3440.7,3449.1,392.6,314.4,336.7,320.5,273.7,270.6,3468.6,3452.8,483.7,406.7,486.9,865.4,685.6,444.3,-2.0,-6.0,-8.0,11617.0,-11354.0,2110.0,-336.0,-20.0,-58.0,-27.0,6.0,0.0,-1.0,7890.0,-11512.0,-5838.0,6290.0,-6.0,-21.0,-36.0,1.0
2022-05-08 17:21:19.050259-07:00,692.1,767.8,701.9,1030.6,379.4,298.2,878.0,748.8,3478.3,3473.4,1171.8,752.9,582.6,3468.6,1086.0,868.8,3444.3,3449.1,392.6,314.4,331.3,325.9,270.6,270.6,3461.3,3452.8,483.7,406.7,486.1,861.2,688.0,444.3,-2.0,-2.0,10.0,11623.0,-11353.0,2090.0,-325.0,28.0,-41.0,-12.0,11.0,-4.0,4.0,7897.0,-11497.0,-5851.0,6297.0,40.0,-39.0,-29.0,1.0
2022-05-08 17:21:19.051717-07:00,697.0,767.8,701.9,1030.6,377.8,295.1,885.6,748.8,3466.1,3473.4,1171.8,752.9,579.4,3463.7,1097.3,868.8,3444.3,3449.1,388.7,307.4,331.3,325.9,270.6,271.4,3461.3,3463.7,481.4,410.6,486.1,861.2,688.0,443.5,-5.0,-13.0,9.0,11627.0,-11351.0,2073.0,-315.0,-2.0,-48.0,13.0,9.0,0.0,13.0,7902.0,-11485.0,-5863.0,6302.0,20.0,-22.0,-21.0,1.0
2022-05-08 17:21:19.081071-07:00,697.0,767.8,705.2,1039.2,377.8,295.1,885.6,748.8,3466.1,3469.8,1161.2,757.1,579.4,3463.7,1097.3,863.7,3439.5,3449.1,388.7,307.4,326.7,322.1,273.7,271.4,3457.6,3463.7,481.4,410.6,486.9,859.5,690.5,443.5,-7.0,-2.0,17.0,11625.0,-11355.0,2066.0,-298.0,-37.0,-24.0,0.0,6.0,-4.0,13.0,7906.0,-11478.0,-5870.0,6303.0,-14.0,-5.0,-20.0,1.0
2022-05-08 17:21:19.081966-07:00,692.9,767.8,705.2,1039.2,382.5,299.7,885.6,748.8,3458.9,3469.8,1161.2,757.1,583.5,3461.3,1099.0,863.7,3439.5,3441.9,385.6,311.3,326.7,322.1,273.7,269.9,3457.6,3467.4,483.7,404.3,486.9,859.5,690.5,443.5,-8.0,-2.0,2.0,11623.0,-11359.0,2059.0,-291.0,17.0,-11.0,5.0,7.0,1.0,5.0,7911.0,-11474.0,-5874.0,6301.0,21.0,4.0,-15.0,1.0
2022-05-08 17:21:19.200304-07:00,692.9,764.5,703.6,1031.4,382.5,299.7,885.6,747.2,3458.9,3467.4,1170.0,754.6,583.5,3461.3,1099.0,862.9,3451.6,3441.9,385.6,311.3,323.6,322.1,276.0,269.9,3463.7,3467.4,483.7,404.3,502.0,863.7,688.9,443.5,-4.0,-1.0,-3.0,11624.0,-11358.0,2055.0,-286.0,-12.0,-10.0,-9.0,7.0,1.0,6.0,7913.0,-11472.0,-5878.0,6298.0,-12.0,2.0,-19.0,1.0
2022-05-08 17:21:19.203400-07:00,701.1,767.0,703.6,1031.4,386.4,292.8,875.5,747.2,3458.9,3468.6,1170.0,754.6,583.5,3478.3,1095.6,862.9,3451.6,3438.2,388.7,313.6,323.6,322.1,274.4,270.6,3463.7,3460.1,487.7,414.5,502.0,863.7,688.9,446.7,2.0,0.0,0.0,11623.0,-11360.0,2050.0,-281.0,22.0,-29.0,3.0,6.0,4.0,1.0,7917.0,-11468.0,-5883.0,6294.0,29.0,-8.0,-18.0,1.0
2022-05-08 17:21:19.204277-07:00,701.1,767.0,711.0,1029.7,386.4,292.8,872.1,736.5,3458.9,3468.6,1169.1,754.6,583.5,3478.3,1091.2,865.4,3438.2,3451.6,388.7,313.6,326.7,319.0,274.4,270.6,3457.6,3457.6,487.7,414.5,486.1,867.1,688.9,446.7,-5.0,-1.0,3.0,11630.0,-11355.0,2043.0,-276.0,21.0,-19.0,-9.0,11.0,6.0,8.0,7920.0,-11462.0,-5889.0,6297.0,18.0,-18.0,-12.0,1.0
2022-05-08 17:21:19.350820-07:00,694.6,765.3,711.0,1029.7,380.9,302.8,872.1,736.5,3447.9,3466.1,1169.1,754.6,582.6,3477.1,1091.2,865.4,3438.2,3451.6,391.8,309.7,326.7,319.0,277.5,269.9,3457.6,3457.6,481.4,406.7,486.1,867.1,687.2,435.7,6.0,-3.0,-1.0,11634.0,-11352.0,2037.0,-272.0,-1.0,-25.0,3.0,19.0,2.0,5.0,7923.0,-11459.0,-5893.0,6296.0,6.0,-2.0,-8.0,1.0
2022-05-08 17:21:19.353190-07:00,694.6,765.3,705.2,1028.8,380.9,302.8,885.6,752.1,3447.9,3466.1,1161.2,752.1,582.6,3477.1,1096.4,864.6,3445.5,3437.0,391.8,309.7,329.8,324.4,277.5,269.9,3461.3,3458.9,481.4,406.7,493.2,861.2,687.2,435.7,6.0,9.0,-9.0,11644.0,-11345.0,2019.0,-260.0,32.0,-76.0,-24.0,28.0,2.0,23.0,7937.0,-11448.0,-5896.0,6294.0,37.0,-4.0,-35.0,1.0
2022-05-08 17:21:19.354425-07:00,688.0,765.3,705.2,1028.8,380.9,296.7,885.6,752.1,3456.4,3462.5,1161.2,752.1,584.3,3466.1,1096.4,864.6,3445.5,3437.0,388.7,312.8,329.8,324.4,274.4,269.9,3461.3,3458.9,483.0,408.2,493.2,861.2,684.0,445.9,-25.0,7.0,-13.0,11665.0,-11340.0,1929.0,-201.0,15.0,-408.0,-60.0,71.0,-1.0,59.0,7975.0,-11412.0,-5917.0,6291.0,106.0,-24.0,-141.0,1.0
2022-05-08 17:21:19.440691-07:00,688.0,765.3,706.9,1029.7,380.9,296.7,878.9,738.1,3456.4,3462.5,1159.4,750.5,584.3,3466.1,1093.8,875.5,3437.0,3449.1,388.7,312.8,328.2,327.5,274.4,269.9,3462.5,3451.6,483.0,408.2,490.1,860.4,684.0,445.9,-10.0,21.0,-56.0,11711.0,-11339.0,1649.0,-8.0,83.0,-1016.0,-201.0,2.0,0.0,5.0,8059.0,-11371.0,-5909.0,6267.0,311.0,29.0,-154.0,1.0
2022-05-08 17:21:19.441872-07:00,698.7,760.4,706.9,1029.7,382.5,297.4,878.9,738.1,3455.2,3467.4,1159.4,750.5,585.9,3469.8,1093.8,875.5,3437.0,3449.1,385.6,312.8,328.2,327.5,275.2,272.1,3462.5,3451.6,483.7,409.0,490.1,860.4,698.7,446.7,-47.0,27.0,-6.0,11831.0,-11270.0,1179.0,235.0,245.0,-1218.0,-357.0,-48.0,94.0,-58.0,8210.0,-11273.0,-5892.0,6263.0,394.0,36.0,-239.0,1.0
2022-05-08 17:21:19.500125-07:00,698.7,760.4,718.4,1028.8,382.5,298.2,883.9,737.3,3455.2,3467.4,1179.7,755.4,585.9,3462.5,1098.2,861.2,3452.8,3443.1,392.6,312.8,334.4,320.5,275.2,272.1,3467.4,3461.3,478.2,409.0,484.5,864.6,698.7,446.7,32.0,-31.0,20.0,11932.0,-11189.0,822.0,429.0,445.0,-661.0,-135.0,-65.0,11.0,-64.0,8382.0,-11103.0,-5922.0,6311.0,699.0,-390.0,-310.0,1.0
2022-05-08 17:21:19.590595-07:00,687.2,768.7,721.6,1028.8,381.7,298.2,883.9,737.3,3469.8,3458.9,1200.9,755.4,583.5,3462.5,1098.2,861.2,3452.8,3443.1,392.6,314.4,334.4,322.8,271.4,271.4,3467.4,3461.3,478.2,408.2,484.5,862.9,758.7,441.9,-7.0,1.0,3.0,12135.0,-10974.0,764.0,424.0,718.0,77.0,-121.0,-22.0,5.0,20.0,8570.0,-10812.0,-5964.0,6522.0,619.0,-474.0,-200.0,1.0
2022-05-08 17:21:19.620326-07:00,687.2,768.7,721.6,1029.7,381.7,295.9,884.8,724.9,3469.8,3458.9,1200.9,755.4,583.5,3479.5,1092.1,865.4,3433.4,3438.2,391.1,314.4,336.7,322.8,271.4,271.4,3457.6,3456.4,487.7,408.2,489.3,862.9,758.7,441.9,29.0,-76.0,55.0,12300.0,-10787.0,802.0,386.0,507.0,151.0,151.0,19.0,-20.0,-19.0,8664.0,-10617.0,-6003.0,6679.0,349.0,-345.0,-65.0,1.0
2022-05-08 17:21:19.740275-07:00,687.2,765.3,724.9,1029.7,384.0,295.9,884.8,724.9,3466.1,3466.1,1242.6,755.4,585.9,3479.5,1092.1,865.4,3433.4,3438.2,391.1,306.7,336.7,323.6,272.1,272.9,3457.6,3456.4,487.7,404.3,489.3,878.0,816.0,442.7,-18.0,37.0,17.0,12391.0,-10669.0,978.0,314.0,128.0,468.0,41.0,36.0,28.0,23.0,8648.0,-10560.0,-6064.0,6736.0,-216.0,-141.0,-60.0,1.0
2022-05-08 17:21:19.741472-07:00,687.2,765.3,724.9,1035.7,384.0,300.5,876.4,723.3,3466.1,3466.1,1242.6,755.4,585.9,3468.6,1110.4,865.4,3444.3,3435.8,390.3,306.7,330.5,323.6,272.1,272.9,3452.8,3457.6,493.2,404.3,490.1,878.0,816.0,442.7,22.0,3.0,11.0,12312.0,-10750.0,1118.0,203.0,-278.0,455.0,13.0,25.0,18.0,-16.0,8534.0,-10622.0,-6155.0,6700.0,-356.0,-100.0,-18.0,1.0
2022-05-08 17:21:19.742650-07:00,688.9,762.9,754.6,1035.7,380.9,300.5,876.4,723.3,3466.1,3462.5,1321.4,755.4,590.7,3468.6,1110.4,865.4,3444.3,3435.8,390.3,315.1,330.5,319.7,275.2,269.9,3452.8,3457.6,493.2,409.8,490.1,895.7,862.9,442.7,12.0,-3.0,44.0,12222.0,-10834.0,1302.0,48.0,-336.0,612.0,-22.0,19.0,9.0,23.0,8400.0,-10711.0,-6247.0,6643.0,-541.0,-47.0,27.0,1.0
2022-05-08 17:21:19.800094-07:00,688.9,762.9,754.6,1033.2,384.8,300.5,870.5,725.8,3466.1,3462.5,1321.4,762.0,585.9,3467.4,1145.4,867.1,3443.1,3438.2,388.7,312.0,328.2,319.7,275.2,269.9,3469.8,3456.4,491.7,416.1,489.3,895.7,862.9,442.7,-12.0,-2.0,-12.0,12122.0,-10920.0,1492.0,-133.0,33.0,471.0,15.0,-30.0,-6.0,65.0,8306.0,-10766.0,-6296.0,6627.0,-43.0,-143.0,44.0,1.0
2022-05-08 17:21:19.891178-07:00,692.9,774.5,762.9,1027.1,384.8,300.5,870.5,725.8,3468.6,3447.9,1348.5,764.5,585.9,3467.4,1145.4,867.1,3443.1,3438.2,388.7,312.0,330.5,323.6,272.9,273.7,3469.8,3456.4,491.7,416.1,491.7,913.5,883.1,441.9,21.0,13.0,-8.0,12118.0,-10901.0,1650.0,-211.0,52.0,377.0,153.0,-2.0,-3.0,-43.0,8262.0,-10771.0,-6310.0,6658.0,-79.0,-182.0,73.0,1.0
2022-05-08 17:21:19.892252-07:00,692.9,774.5,762.9,1027.1,395.7,294.4,870.5,717.5,3468.6,3447.9,1348.5,764.5,589.1,3457.6,1188.5,872.1,3446.7,3444.3,394.2,312.0,330.5,323.6,272.9,273.7,3457.6,3460.1,494.0,407.5,491.7,913.5,883.1,441.9,10.0,-49.0,-6.0,12089.0,-10908.0,1802.0,-267.0,-92.0,309.0,144.0,23.0,-5.0,-26.0,8175.0,-10799.0,-6350.0,6683.0,-173.0,-195.0,108.0,1.0
2022-05-08 17:21:19.951163-07:00,682.3,778.6,770.3,1026.3,395.7,294.4,870.5,717.5,3469.8,3460.1,1334.1,767.0,589.1,3457.6,1188.5,872.1,3446.7,3444.3,394.2,312.0,323.6,320.5,272.9,269.1,3457.6,3460.1,494.0,407.5,496.4,908.4,864.6,476.6,1.0,-40.0,-10.0,12062.0,-10907.0,1965.0,-321.0,-9.0,369.0,136.0,9.0,-7.0,-8.0,8073.0,-10812.0,-6394.0,6743.0,-89.0,-292.0,159.0,1.0
2022-05-08 17:21:19.980218-07:00,682.3,778.6,770.3,1026.3,397.3,299.7,868.8,716.7,3469.8,3460.1,1334.1,767.0,584.3,3457.6,1199.1,871.3,3443.1,3438.2,388.7,315.1,323.6,320.5,272.9,269.1,3467.4,3468.6,495.6,405.1,496.4,908.4,864.6,476.6,-4.0,-33.0,0.0,12048.0,-10892.0,2125.0,-375.0,5.0,334.0,187.0,27.0,-29.0,19.0,7971.0,-10802.0,-6425.0,6851.0,-73.0,-283.0,233.0,1.0
2022-05-08 17:21:20.130426-07:00,688.9,776.9,767.8,1021.1,397.3,299.7,868.8,716.7,3462.5,3457.6,1335.0,764.5,584.3,3457.6,1199.1,871.3,3443.1,3438.2,388.7,315.1,330.5,324.4,278.3,271.4,3467.4,3468.6,495.6,405.1,509.1,918.6,851.1,494.8,5.0,-68.0,12.0,12028.0,-10885.0,2266.0,-390.0,-5.0,240.0,212.0,12.0,-35.0,-2.0,7862.0,-10794.0,-6429.0,6984.0,31.0,-371.0,325.0,1.0
2022-05-08 17:21:20.132899-07:00,688.9,776.9,767.8,1021.1,398.9,295.9,861.2,726.6,3462.5,3457.6,1335.0,764.5,582.6,3461.3,1200.9,873.8,3443.1,3438.2,384.0,305.1,330.5,324.4,278.3,271.4,3456.4,3457.6,485.3,404.3,509.1,918.6,851.1,494.8,-8.0,-37.0,10.0,12018.0,-10861.0,2429.0,-393.0,-72.0,321.0,260.0,12.0,-34.0,-15.0,7726.0,-10785.0,-6403.0,7172.0,-133.0,-323.0,483.0,1.0
2022-05-08 17:21:20.133762-07:00,697.0,776.9,759.6,1040.1,398.9,295.9,861.2,727.4,3469.8,3463.7,1324.1,768.7,582.6,3461.3,1200.9,867.9,3440.7,3438.2,384.0,305.1,328.2,321.3,276.0,269.1,3454.0,3457.6,485.3,404.3,515.5,916.9,852.0,507.5,31.0,-68.0,34.0,11916.0,-10930.0,2614.0,-390.0,-400.0,371.0,278.0,16.0,-34.0,-19.0,7518.0,-10871.0,-6362.0,7299.0,-324.0,-205.0,546.0,1.0
2022-05-08 17:21:20.190984-07:00,689.7,776.9,759.6,1040.1,402.0,296.7,868.8,727.4,3463.7,3463.7,1324.1,768.7,586.7,3473.4,1185.9,867.9,3440.7,3444.3,388.7,313.6,328.2,321.3,276.0,266.8,3454.0,3462.5,491.7,397.3,515.5,916.9,852.0,512.3,-24.0,-56.0,26.0,11783.0,-11009.0,2869.0,-421.0,-338.0,569.0,366.0,15.0,-43.0,35.0,7290.0,-10980.0,-6281.0,7435.0,-233.0,-252.0,674.0,1.0
2022-05-08 17:21:20.250846-07:00,689.7,774.5,762.9,1040.9,402.0,296.7,868.8,734.8,3463.7,3463.7,1317.8,765.3,586.7,3473.4,1185.9,870.5,3433.4,3444.3,388.7,313.6,325.9,318.2,274.4,266.8,3458.9,3462.5,491.7,397.3,511.5,917.7,852.0,512.3,6.0,-10.0,32.0,11672.0,-11048.0,3156.0,-410.0,-210.0,485.0,513.0,29.0,-10.0,16.0,7076.0,-11058.0,-6142.0,7639.0,2.0,-307.0,726.0,1.0
2022-05-08 17:21:20.311056-07:00,684.0,774.5,762.9,1040.9,399.6,292.8,866.3,734.8,3475.9,3463.7,1317.8,765.3,589.1,3462.5,1173.5,870.5,3433.4,3443.1,391.1,309.0,325.9,318.2,274.4,273.7,3458.9,3468.6,486.9,405.1,511.5,917.7,852.0,507.5,-3.0,72.0,8.0,11561.0,-11079.0,3447.0,-371.0,-366.0,438.0,434.0,19.0,34.0,20.0,6891.0,-11151.0,-6000.0,7785.0,-184.0,-77.0,594.0,1.0
2022-05-08 17:21:20.400115-07:00,684.0,771.1,766.2,1046.1,399.6,292.8,866.3,716.7,3475.9,3462.5,1307.9,766.2,589.1,3462.5,1173.5,867.1,3446.7,3443.1,391.1,309.0,329.0,320.5,271.4,273.7,3446.7,3468.6,486.9,405.1,506.7,915.2,841.9,507.5,-14.0,54.0,9.0,11418.0,-11157.0,3669.0,-365.0,-336.0,399.0,232.0,20.0,38.0,61.0,6730.0,-11257.0,-5895.0,7852.0,-170.0,4.0,433.0,1.0
2022-05-08 17:21:20.550582-07:00,684.8,771.1,766.2,1046.1,388.7,295.1,868.8,716.7,3466.1,3462.5,1307.9,766.2,583.5,3467.4,1170.9,867.1,3446.7,3440.7,392.6,316.7,329.0,320.5,271.4,269.9,3446.7,3457.6,483.7,407.5,506.7,915.2,841.9,501.2,8.0,84.0,-4.0,11325.0,-11199.0,3828.0,-359.0,-168.0,237.0,200.0,18.0,56.0,24.0,6650.0,-11318.0,-5807.0,7899.0,-66.0,18.0,260.0,1.0
2022-05-08 17:21:20.552434-07:00,684.8,775.3,762.9,1036.6,388.7,295.1,861.2,720.8,3466.1,3456.4,1300.7,761.2,583.5,3467.4,1168.2,873.8,3440.7,3447.9,392.6,316.7,325.9,319.7,272.9,269.9,3460.1,3466.1,483.7,407.5,502.8,924.5,841.9,501.2,-19.0,81.0,1.0,11276.0,-11220.0,3907.0,-371.0,-52.0,109.0,18.0,19.0,43.0,46.0,6613.0,-11339.0,-5780.0,7919.0,-26.0,-30.0,41.0,1.0
2022-05-08 17:21:20.670537-07:00,688.0,768.7,762.9,1036.6,390.3,296.7,861.2,720.8,3463.7,3472.2,1300.7,761.2,589.1,3478.3,1168.2,873.8,3440.7,3447.9,392.6,319.0,325.9,319.7,274.4,272.9,3460.1,3466.1,486.1,401.2,502.8,924.5,834.4,498.8,2.0,-31.0,-9.0,11286.0,-11210.0,3903.0,-393.0,74.0,15.0,-51.0,-13.0,-6.0,-31.0,6623.0,-11323.0,-5779.0,7935.0,48.0,-30.0,-16.0,1.0
2022-05-08 17:21:20.671895-07:00,688.0,768.7,770.3,1039.2,390.3,296.7,858.7,718.4,3463.7,3472.2,1292.7,762.9,589.1,3478.3,1170.0,871.3,3428.6,3433.4,392.6,319.0,331.3,323.6,274.4,272.9,3458.9,3460.1,486.1,401.2,505.9,913.5,834.4,498.8,-11.0,-1.0,-8.0,11277.0,-11208.0,3933.0,-409.0,-58.0,80.0,62.0,3.0,-17.0,-4.0,6615.0,-11338.0,-5767.0,7929.0,-35.0,51.0,54.0,1.0
2022-05-08 17:21:20.672978-07:00,701.1,768.7,770.3,1039.2,388.7,296.7,858.7,718.4,3464.9,3464.9,1292.7,762.9,584.3,3471.0,1170.0,871.3,3428.6,3433.4,392.6,314.4,331.3,323.6,273.7,269.1,3458.9,3460.1,484.5,398.1,505.9,913.5,835.2,499.6,3.0,21.0,0.0,11265.0,-11214.0,3953.0,-401.0,13.0,10.0,16.0,20.0,19.0,9.0,6613.0,-11345.0,-5755.0,7930.0,31.0,-6.0,2.0,1.0
2022-05-08 17:21:20.731152-07:00,701.1,768.7,762.9,1035.7,388.7,296.7,861.2,715.1,3464.9,3464.9,1296.3,767.0,584.3,3471.0,1160.3,864.6,3441.9,3435.8,392.6,314.4,335.2,321.3,273.7,269.1,3468.6,3458.9,484.5,398.1,505.1,916.0,835.2,499.6,-6.0,-16.0,-12.0,11283.0,-11196.0,3952.0,-405.0,32.0,-6.0,-6.0,-2.0,-19.0,-6.0,6628.0,-11334.0,-5755.0,7933.0,6.0,17.0,-18.0,1.0
2022-05-08 17:21:20.732088-07:00,689.7,767.0,762.9,1035.7,394.2,295.1,861.2,715.1,3461.3,3468.6,1296.3,767.0,587.5,3467.4,1160.3,864.6,3441.9,3435.8,390.3,313.6,335.2,321.3,272.9,269.1,3468.6,3458.9,479.0,398.1,505.1,916.0,831.1,498.8,-5.0,-11.0,-2.0,11278.0,-11200.0,3955.0,-389.0,-30.0,-31.0,56.0,11.0,-7.0,5.0,6626.0,-11336.0,-5753.0,7932.0,5.0,-1.0,15.0,1.0
2022-05-08 17:21:20.940531-07:00,689.7,767.0,758.7,1039.2,394.2,295.1,866.3,732.3,3461.3,3468.6,1290.0,759.6,587.5,3467.4,1169.1,873.8,3439.5,3437.0,390.3,313.6,332.1,322.8,272.9,269.1,3449.1,3464.9,479.0,398.1,507.5,914.4,831.1,498.8,-16.0,28.0,-4.0,11292.0,-11190.0,3946.0,-368.0,48.0,-84.0,-18.0,11.0,4.0,20.0,6635.0,-11318.0,-5755.0,7950.0,48.0,-47.0,-33.0,1.0
2022-05-08 17:21:20.969707-07:00,685.6,762.9,767.8,1039.2,387.2,295.1,866.3,732.3,3456.4,3463.7,1282.8,759.6,585.9,3468.6,1169.1,873.8,3439.5,3437.0,390.3,318.2,332.1,319.0,273.7,268.3,3449.1,3464.9,486.9,405.9,507.5,919.4,828.5,493.2,-2.0,-25.0,3.0,11320.0,-11170.0,3923.0,-353.0,48.0,-38.0,33.0,4.0,-23.0,-6.0,6654.0,-11295.0,-5758.0,7964.0,32.0,-17.0,-13.0,1.0
2022-05-08 17:21:21.000722-07:00,685.6,762.9,767.8,1040.1,387.2,290.5,851.1,717.5,3456.4,3463.7,1282.8,768.7,585.9,3467.4,1184.1,867.9,3443.1,3439.5,390.3,318.2,332.1,319.0,273.7,268.3,3452.8,3461.3,485.3,405.9,505.9,919.4,828.5,493.2,-8.0,15.0,13.0,11327.0,-11165.0,3921.0,-331.0,1.0,-51.0,23.0,13.0,-1.0,15.0,6660.0,-11289.0,-5757.0,7968.0,16.0,-14.0,-8.0,1.0
2022-05-08 17:21:21.002880-07:00,686.4,758.7,758.7,1040.1,385.6,290.5,851.1,717.5,3462.5,3466.1,1287.3,768.7,583.5,3467.4,1184.1,867.9,3443.1,3439.5,390.3,312.0,332.1,314.4,268.3,272.1,3452.8,3461.3,485.3,400.4,505.9,914.4,823.5,494.8,-1.0,-14.0,17.0,11343.0,-11154.0,3907.0,-316.0,51.0,-29.0,27.0,11.0,-15.0,3.0,6675.0,-11276.0,-5758.0,7975.0,42.0,-13.0,-12.0,1.0
2022-05-08 17:21:21.003957-07:00,686.4,758.7,758.7,1037.5,385.6,291.3,867.1,724.1,3462.5,3466.1,1287.3,761.2,583.5,3463.7,1165.6,878.9,3440.7,3431.0,393.4,312.0,330.5,314.4,268.3,272.1,3452.8,3450.4,486.1,400.4,500.4,914.4,823.5,494.8,-9.0,0.0,14.0,11348.0,-11147.0,3913.0,-309.0,-25.0,15.0,16.0,7.0,-7.0,18.0,6682.0,-11276.0,-5754.0,7970.0,-13.0,36.0,5.0,1.0
2022-05-08 17:21:21.091096-07:00,685.6,772.8,757.1,1037.5,386.4,291.3,867.1,724.1,3456.4,3452.8,1287.3,761.2,581.8,3463.7,1165.6,878.9,3440.7,3431.0,393.4,316.7,330.5,315.9,275.2,266.8,3452.8,3450.4,486.1,398.1,500.4,919.4,821.0,490.9,-5.0,10.0,9.0,11351.0,-11145.0,3911.0,-303.0,21.0,-29.0,-10.0,3.0,-1.0,6.0,6690.0,-11275.0,-5750.0,7969.0,23.0,13.0,-9.0,1.0
2022-05-08 17:21:21.240325-07:00,685.6,772.8,757.1,1037.5,386.4,292.8,851.1,711.8,3456.4,3452.8,1287.3,757.9,581.8,3464.9,1156.8,870.5,3445.5,3437.0,391.1,316.7,323.6,315.9,275.2,266.8,3463.7,3450.4,482.2,398.1,501.2,919.4,821.0,490.9,-6.0,-20.0,2.0,11351.0,-11144.0,3913.0,-311.0,-15.0,46.0,6.0,8.0,-14.0,2.0,6696.0,-11279.0,-5744.0,7961.0,-24.0,43.0,9.0,1.0
2022-05-08 17:21:21.270782-07:00,685.6,757.9,766.2,1037.5,387.9,292.8,851.1,711.8,3475.9,3471.0,1276.5,757.9,585.9,3464.9,1156.8,870.5,3445.5,3437.0,391.1,311.3,323.6,319.0,276.7,270.6,3463.7,3450.4,482.2,399.6,501.2,919.4,831.9,498.0,-2.0,5.0,0.0,11344.0,-11148.0,3920.0,-313.0,-5.0,-2.0,-6.0,9.0,-2.0,4.0,6696.0,-11288.0,-5740.0,7951.0,1.0,20.0,0.0,1.0
2022-05-08 17:21:21.421005-07:00,685.6,757.9,766.2,1042.6,392.6,295.9,860.4,711.8,3475.9,3471.0,1276.5,761.2,580.2,3462.5,1168.2,867.9,3438.2,3444.3,392.6,313.6,329.0,319.0,276.7,270.6,3458.9,3460.1,483.7,398.9,499.6,919.4,831.9,498.0,5.0,-11.0,-2.0,11349.0,-11145.0,3913.0,-314.0,7.0,1.0,4.0,4.0,-10.0,-10.0,6699.0,-11288.0,-5738.0,7951.0,-2.0,8.0,1.0,1.0
2022-05-08 17:21:21.422213-07:00,683.1,760.4,762.0,1034.9,392.6,295.9,860.4,711.8,3463.7,3469.8,1282.8,757.9,580.2,3462.5,1168.2,867.9,3438.2,3444.3,392.6,313.6,327.5,319.7,274.4,269.9,3458.9,3460.1,483.7,398.9,504.4,909.3,829.4,495.6,-8.0,0.0,2.0,11343.0,-11149.0,3922.0,-309.0,-24.0,-1.0,20.0,8.0,-2.0,13.0,6699.0,-11292.0,-5739.0,7945.0,-3.0,13.0,4.0,1.0
2022-05-08 17:21:21.423452-07:00,683.1,760.4,762.0,1034.9,384.8,295.1,857.9,718.4,3463.7,3469.8,1282.8,757.9,585.9,3468.6,1166.5,869.6,3444.3,3445.5,387.9,314.4,327.5,319.7,274.4,269.9,3458.9,3468.6,488.5,397.3,504.4,909.3,829.4,495.6,2.0,-8.0,3.0,11352.0,-11143.0,3912.0,-307.0,42.0,-26.0,-19.0,2.0,0.0,-3.0,6707.0,-11287.0,-5737.0,7946.0,32.0,-20.0,-14.0,1.0
2022-05-08 17:21:21.424450-07:00,688.0,759.6,762.0,1035.7,384.8,295.1,857.9,718.4,3467.4,3469.8,1280.1,764.5,585.9,3468.6,1166.5,869.6,3444.3,3445.5,387.9,314.4,329.0,320.5,271.4,269.9,3458.9,3468.6,488.5,397.3,498.8,904.2,823.5,499.6,-2.0,-3.0,7.0,11357.0,-11137.0,3915.0,-309.0,-3.0,19.0,10.0,10.0,-1.0,2.0,6711.0,-11284.0,-5735.0,7948.0,-11.0,23.0,2.0,1.0
2022-05-08 17:21:21.510535-07:00,688.0,759.6,762.0,1035.7,391.1,295.1,860.4,715.1,3467.4,3469.8,1280.1,764.5,582.6,3466.1,1165.6,873.0,3437.0,3444.3,382.5,313.6,329.0,320.5,271.4,269.9,3461.3,3458.9,486.9,398.1,498.8,904.2,823.5,499.6,-3.0,0.0,7.0,11355.0,-11139.0,3916.0,-308.0,4.0,-17.0,-5.0,9.0,-1.0,8.0,6714.0,-11288.0,-5734.0,7941.0,3.0,6.0,-4.0,1.0
2022-05-08 17:21:21.511582-07:00,688.0,759.6,762.0,1035.7,391.1,295.1,860.4,715.1,3467.4,3469.8,1280.1,764.5,582.6,3466.1,1165.6,873.0,3437.0,3444.3,382.5,313.6,329.0,320.5,271.4,269.9,3461.3,3458.9,486.9,398.1,498.8,904.2,823.5,499.6,-3.0,0.0,7.0,11355.0,-11139.0,3916.0,-308.0,4.0,-17.0,-5.0,9.0,-1.0,8.0,6714.0,-11288.0,-5734.0,7941.0,3.0,6.0,-4.0,1.0
2022-05-08 17:21:21.630077-07:00,684.8,757.9,757.1,1042.6,394.2,293.6,854.5,715.1,3462.5,3468.6,1279.2,765.3,585.1,3464.9,1165.6,867.9,3451.6,3443.1,387.9,312.8,336.7,317.4,266.8,272.9,3447.9,3462.5,482.2,398.9,502.0,906.7,817.7,499.6,2.0,-5.0,5.0,11363.0,-11135.0,3904.0,-307.0,6.0,3.0,-10.0,9.0,-4.0,3.0,6723.0,-11286.0,-5737.0,7935.0,-2.0,8.0,-12.0,1.0
2022-05-08 17:21:21.631173-07:00,688.0,757.9,757.1,1042.6,391.1,289.8,862.9,715.1,3464.9,3468.6,1279.2,765.3,585.1,3468.6,1153.3,867.9,3451.6,3438.2,391.8,315.9,336.7,317.4,266.8,262.2,3447.9,3450.4,484.5,408.2,502.0,906.7,817.7,499.6,-11.0,0.0,2.0,11367.0,-11132.0,3902.0,-314.0,10.0,-3.0,-18.0,5.0,-9.0,11.0,6728.0,-11283.0,-5742.0,7930.0,6.0,15.0,-16.0,1.0
2022-05-08 17:21:21.632420-07:00,688.0,762.0,757.9,1039.2,391.1,289.8,862.9,712.6,3464.9,3467.4,1275.6,761.2,585.1,3468.6,1153.3,871.3,3446.7,3438.2,391.8,315.9,331.3,324.4,273.7,262.2,3472.2,3450.4,484.5,408.2,506.7,905.0,822.7,499.6,2.0,1.0,3.0,11370.0,-11131.0,3894.0,-317.0,6.0,-8.0,-21.0,10.0,1.0,-3.0,6735.0,-11283.0,-5745.0,7922.0,-2.0,21.0,-20.0,1.0
2022-05-08 17:21:21.634121-07:00,683.1,762.0,757.9,1039.2,384.8,292.8,859.5,712.6,3469.8,3467.4,1275.6,761.2,578.6,3467.4,1163.8,871.3,3446.7,3439.5,395.7,309.7,331.3,324.4,273.7,269.1,3472.2,3458.9,483.7,396.5,506.7,905.0,822.7,490.1,-1.0,-4.0,5.0,11370.0,-11132.0,3890.0,-321.0,8.0,0.0,-10.0,9.0,-2.0,2.0,6742.0,-11285.0,-5747.0,7911.0,0.0,10.0,-16.0,1.0
2022-05-08 17:21:21.781407-07:00,683.1,762.9,757.9,1037.5,384.8,292.8,859.5,709.3,3469.8,3460.1,1281.0,762.0,578.6,3467.4,1163.8,868.8,3441.9,3439.5,395.7,309.7,331.3,317.4,269.9,269.1,3463.7,3458.9,483.7,396.5,499.6,907.6,823.5,490.1,5.0,2.0,7.0,11374.0,-11129.0,3887.0,-325.0,10.0,2.0,-15.0,10.0,0.0,-1.0,6750.0,-11286.0,-5750.0,7902.0,-4.0,20.0,-23.0,1.0
2022-05-08 17:21:21.782981-07:00,679.9,762.9,757.9,1037.5,383.3,289.8,854.5,709.3,3463.7,3460.1,1281.0,762.0,579.4,3468.6,1163.0,868.8,3441.9,3445.5,390.3,311.3,331.3,317.4,269.9,269.1,3463.7,3462.5,483.7,394.2,499.6,907.6,823.5,493.2,-6.0,-11.0,2.0,11377.0,-11129.0,3877.0,-336.0,17.0,-15.0,-36.0,5.0,-5.0,6.0,6761.0,-11287.0,-5758.0,7886.0,2.0,20.0,-41.0,1.0
2022-05-08 17:21:21.785293-07:00,679.9,758.7,754.6,1040.9,383.3,289.8,851.1,724.1,3463.7,3468.6,1273.9,761.2,579.4,3468.6,1160.3,870.5,3438.2,3449.1,390.3,311.3,328.2,320.5,269.9,269.1,3457.6,3457.6,483.7,394.2,495.6,909.3,816.9,493.2,-1.0,-5.0,7.0,11386.0,-11124.0,3865.0,-339.0,19.0,-7.0,-14.0,10.0,-8.0,2.0,6772.0,-11280.0,-5766.0,7880.0,2.0,6.0,-27.0,1.0
2022-05-08 17:21:22.080615-07:00,684.8,758.7,754.6,1040.9,384.0,295.1,851.1,724.1,3461.3,3463.7,1273.9,761.2,581.8,3460.1,1160.3,870.5,3438.2,3449.1,394.2,311.3,328.2,320.5,272.1,270.6,3457.6,3457.6,478.2,399.6,495.6,909.3,827.7,486.1,-3.0,0.0,6.0,11388.0,-11125.0,3856.0,-339.0,3.0,-23.0,-14.0,11.0,2.0,9.0,6779.0,-11280.0,-5772.0,7869.0,-5.0,18.0,-22.0,1.0
2022-05-08 17:21:22.230072-07:00,684.8,758.7,757.9,1038.3,384.0,295.1,853.7,711.0,3461.3,3463.7,1278.3,763.7,581.8,3460.1,1161.2,870.5,3449.1,3449.1,394.2,311.3,329.8,324.4,272.1,270.6,3457.6,3463.7,478.2,399.6,495.6,909.3,827.7,486.1,3.0,51.0,1.0,11394.0,-11128.0,3828.0,-335.0,14.0,-67.0,-64.0,15.0,31.0,13.0,6795.0,-11284.0,-5782.0,7843.0,-10.0,73.0,-89.0,1.0
2022-05-08 17:21:22.231279-07:00,696.2,765.3,757.9,1038.3,385.6,292.1,853.7,711.0,3457.6,3466.1,1278.3,763.7,585.1,3462.5,1161.2,870.5,3449.1,3449.1,393.4,312.8,329.8,324.4,268.3,273.7,3457.6,3463.7,479.8,398.9,495.6,909.3,817.7,492.5,19.0,72.0,-16.0,11416.0,-11124.0,3773.0,-361.0,106.0,-62.0,-177.0,26.0,40.0,1.0,6840.0,-11276.0,-5820.0,7787.0,3.0,80.0,-239.0,1.0
2022-05-08 17:21:22.261046-07:00,696.2,765.3,760.4,1044.4,385.6,292.1,859.5,719.2,3457.6,3466.1,1274.7,763.7,585.1,3462.5,1157.7,872.1,3443.1,3440.7,393.4,312.8,323.6,321.3,268.3,273.7,3455.2,3461.3,479.8,398.9,501.2,906.7,817.7,492.5,25.0,47.0,-3.0,11476.0,-11102.0,3649.0,-415.0,230.0,-196.0,-306.0,12.0,55.0,0.0,6933.0,-11227.0,-5909.0,7707.0,76.0,27.0,-426.0,1.0
2022-05-08 17:21:22.262161-07:00,688.0,758.7,760.4,1044.4,384.0,291.3,859.5,719.2,3457.6,3466.1,1274.7,763.7,589.1,3473.4,1157.7,872.1,3443.1,3440.7,392.6,318.2,323.6,321.3,272.9,267.6,3455.2,3461.3,479.8,401.2,501.2,906.7,828.5,483.0,-11.0,42.0,-13.0,11558.0,-11068.0,3479.0,-491.0,184.0,-232.0,-435.0,6.0,9.0,7.0,7051.0,-11153.0,-6046.0,7600.0,-57.0,79.0,-553.0,1.0
2022-05-08 17:21:22.263090-07:00,686.4,757.1,757.9,1034.0,384.8,293.6,855.3,708.5,3472.2,3467.4,1280.1,762.0,584.3,3460.1,1161.2,867.1,3451.6,3443.1,390.3,315.9,329.8,322.8,273.7,272.1,3468.6,3460.1,481.4,399.6,492.5,911.0,828.5,492.5,25.0,-18.0,11.0,11688.0,-11045.0,3057.0,-689.0,227.0,-175.0,-468.0,16.0,-4.0,-16.0,7250.0,-11017.0,-6366.0,7347.0,-22.0,39.0,-521.0,1.0
2022-05-08 17:21:22.380419-07:00,688.0,776.1,766.2,1040.9,384.0,292.1,862.1,709.3,3464.9,3461.3,1273.0,768.7,587.5,3461.3,1148.9,867.9,3449.1,3438.2,387.9,311.3,331.3,320.5,273.7,271.4,3460.1,3460.1,476.6,400.4,498.8,906.7,817.7,494.0,-5.0,30.0,10.0,11920.0,-10890.0,2645.0,-873.0,123.0,-133.0,-265.0,8.0,9.0,11.0,7510.0,-10768.0,-6656.0,7196.0,-20.0,42.0,-318.0,1.0
2022-05-08 17:21:22.440556-07:00,688.0,752.9,764.5,1040.9,385.6,292.1,862.1,709.3,3462.5,3464.9,1273.0,768.7,587.5,3461.3,1148.9,867.9,3449.1,3438.2,387.9,311.3,331.3,319.7,267.6,269.9,3460.1,3460.1,476.6,401.2,498.8,906.7,816.0,486.9,64.0,65.0,88.0,11962.0,-10869.0,2527.0,-919.0,179.0,-147.0,-198.0,3.0,13.0,0.0,7581.0,-10716.0,-6736.0,7124.0,108.0,-15.0,-297.0,1.0
2022-05-08 17:21:22.443012-07:00,688.0,752.9,764.5,1028.0,385.6,292.8,853.7,710.1,3462.5,3464.9,1273.0,761.2,587.5,3468.6,1147.1,871.3,3445.5,3449.1,393.4,311.3,332.1,319.7,267.6,269.9,3458.9,3447.9,484.5,401.2,499.6,906.7,816.0,486.9,-24.0,-71.0,19.0,11940.0,-10908.0,2436.0,-972.0,-143.0,-28.0,-259.0,-6.0,-20.0,21.0,7632.0,-10704.0,-6802.0,7025.0,-218.0,207.0,-231.0,1.0
2022-05-08 17:21:22.443913-07:00,686.4,757.1,768.7,1028.0,386.4,292.8,853.7,710.1,3462.5,3467.4,1274.7,761.2,583.5,3468.6,1147.1,871.3,3445.5,3449.1,393.4,315.1,332.1,320.5,278.3,275.2,3458.9,3447.9,484.5,398.1,499.6,902.5,831.9,482.2,-9.0,-58.0,13.0,11902.0,-10967.0,2352.0,-990.0,-102.0,-171.0,-118.0,29.0,-37.0,22.0,7663.0,-10740.0,-6846.0,6892.0,8.0,216.0,-155.0,1.0
2022-05-08 17:21:22.530466-07:00,686.4,757.1,768.7,1034.9,385.6,305.1,852.8,712.6,3462.5,3467.4,1274.7,757.9,582.6,3455.2,1143.6,869.6,3440.7,3438.2,389.5,313.6,326.7,320.5,278.3,275.2,3452.8,3461.3,480.6,400.4,494.8,902.5,831.9,482.2,5.0,32.0,13.0,11905.0,-10991.0,2242.0,-938.0,-36.0,-292.0,-104.0,2.0,26.0,-1.0,7764.0,-10726.0,-6827.0,6819.0,102.0,208.0,-146.0,1.0
2022-05-08 17:21:22.531807-07:00,690.5,762.0,761.2,1037.5,385.6,305.1,852.8,712.6,3457.6,3467.4,1270.3,764.5,582.6,3455.2,1143.6,869.6,3440.7,3438.2,389.5,313.6,329.0,325.1,276.7,275.2,3452.8,3461.3,480.6,400.4,497.2,899.1,819.4,491.7,-15.0,1.0,4.0,11884.0,-11033.0,2153.0,-923.0,-115.0,-132.0,-154.0,15.0,14.0,11.0,7834.0,-10727.0,-6822.0,6741.0,-67.0,211.0,-130.0,1.0
2022-05-08 17:21:22.590417-07:00,690.5,762.0,761.2,1037.5,392.6,292.8,854.5,732.3,3457.6,3467.4,1270.3,764.5,581.8,3464.9,1144.5,873.8,3450.4,3444.3,390.3,309.7,329.0,325.1,276.7,275.2,3457.6,3460.1,471.1,396.5,497.2,899.1,819.4,491.7,10.0,-31.0,0.0,11850.0,-11095.0,2043.0,-857.0,-149.0,-324.0,-10.0,25.0,-10.0,-21.0,7892.0,-10741.0,-6806.0,6668.0,10.0,169.0,-66.0,1.0
2022-05-08 17:21:22.710780-07:00,687.2,757.9,737.3,1027.1,392.6,292.8,854.5,732.3,3469.8,3471.0,1273.0,759.6,581.8,3464.9,1144.5,873.8,3450.4,3444.3,390.3,309.7,330.5,312.8,274.4,272.1,3457.6,3460.1,471.1,396.5,494.0,894.1,823.5,495.6,6.0,-2.0,27.0,11831.0,-11131.0,1978.0,-801.0,-214.0,-177.0,-39.0,19.0,-13.0,0.0,7907.0,-10785.0,-6798.0,6588.0,-321.0,271.0,-12.0,1.0
2022-05-08 17:21:22.711812-07:00,687.2,757.9,737.3,1027.1,389.5,291.3,862.9,743.0,3469.8,3471.0,1273.0,759.6,594.7,3471.0,1139.2,865.4,3437.0,3449.1,388.7,308.2,330.5,312.8,274.4,272.1,3446.7,3466.1,470.3,398.1,494.0,894.1,823.5,495.6,-22.0,-61.0,48.0,11747.0,-11234.0,1919.0,-742.0,-440.0,-204.0,46.0,-5.0,-16.0,11.0,7857.0,-10920.0,-6782.0,6438.0,-321.0,353.0,125.0,1.0
2022-05-08 17:21:22.770274-07:00,688.9,752.9,738.1,1034.9,389.5,291.3,862.9,743.0,3463.7,3461.3,1282.8,766.2,594.7,3471.0,1139.2,865.4,3437.0,3449.1,388.7,308.2,330.5,320.5,272.9,269.9,3446.7,3466.1,470.3,398.1,490.9,891.5,816.0,483.0,7.0,4.0,46.0,11622.0,-11357.0,1980.0,-683.0,-483.0,349.0,196.0,4.0,0.0,11.0,7764.0,-11110.0,-6735.0,6274.0,-617.0,407.0,173.0,1.0
2022-05-08 17:21:22.771620-07:00,694.6,752.9,738.1,1034.9,385.6,298.2,883.9,769.5,3466.1,3461.3,1282.8,766.2,586.7,3456.4,1125.2,870.5,3439.5,3441.9,384.8,308.2,330.5,320.5,272.9,272.1,3460.1,3461.3,483.7,401.2,490.9,891.5,816.0,476.6,-16.0,-28.0,9.0,11433.0,-11510.0,2171.0,-721.0,-560.0,518.0,220.0,-6.0,18.0,35.0,7603.0,-11343.0,-6690.0,6100.0,-560.0,262.0,290.0,1.0
2022-05-08 17:21:22.830847-07:00,694.6,766.2,739.7,1021.1,385.6,298.2,883.9,783.6,3466.1,3469.8,1273.9,758.7,586.7,3456.4,1125.2,865.4,3438.2,3441.9,384.8,308.2,332.1,319.0,273.7,272.1,3452.8,3461.3,483.7,401.2,483.0,895.7,812.7,476.6,-37.0,-68.0,-16.0,11267.0,-11619.0,2423.0,-791.0,-132.0,543.0,311.0,-17.0,-21.0,8.0,7484.0,-11521.0,-6605.0,6005.0,-127.0,222.0,337.0,1.0
2022-05-08 17:21:22.950693-07:00,690.5,766.2,739.7,1021.1,387.9,294.4,912.7,783.6,3471.0,3469.8,1273.9,758.7,579.4,3460.1,1121.7,865.4,3438.2,3435.8,393.4,308.2,332.1,319.0,273.7,272.1,3452.8,3463.7,490.9,403.5,483.0,895.7,812.7,474.3,37.0,42.0,-53.0,11270.0,-11556.0,2673.0,-854.0,263.0,530.0,277.0,13.0,39.0,-37.0,7514.0,-11557.0,-6451.0,6065.0,259.0,60.0,281.0,1.0
2022-05-08 17:21:22.951856-07:00,690.5,779.4,729.9,1028.0,387.9,294.4,912.7,790.2,3471.0,3466.1,1269.4,759.6,579.4,3460.1,1121.7,867.1,3437.0,3435.8,393.4,308.2,326.7,317.4,276.7,272.1,3460.1,3463.7,490.9,403.5,497.2,883.1,777.8,474.3,-33.0,-38.0,-27.0,11297.0,-11475.0,2869.0,-953.0,211.0,295.0,151.0,3.0,-22.0,24.0,7547.0,-11567.0,-6329.0,6135.0,303.0,22.0,247.0,1.0
2022-05-08 17:21:22.980897-07:00,693.8,779.4,729.9,1028.0,389.5,292.8,913.5,790.2,3466.1,3466.1,1269.4,759.6,581.0,3462.5,1143.6,867.1,3437.0,3443.1,391.1,311.3,326.7,317.4,276.7,273.7,3460.1,3461.3,485.3,412.1,497.2,883.1,777.8,474.3,-14.0,42.0,-61.0,11441.0,-11303.0,2972.0,-977.0,901.0,2.0,290.0,-7.0,55.0,-33.0,7709.0,-11440.0,-6169.0,6330.0,857.0,-164.0,186.0,1.0
2022-05-08 17:21:23.100050-07:00,693.8,785.2,737.3,1034.0,389.5,292.8,913.5,794.4,3466.1,3474.6,1254.2,759.6,581.0,3462.5,1143.6,861.2,3450.4,3443.1,391.1,311.3,330.5,318.2,277.5,273.7,3461.3,3461.3,485.3,412.1,492.5,879.7,751.3,474.3,10.0,83.0,-22.0,11622.0,-11116.0,2985.0,-948.0,-128.0,-115.0,-65.0,3.0,22.0,-14.0,7759.0,-11404.0,-6095.0,6406.0,-193.0,60.0,84.0,1.0
2022-05-08 17:21:23.101200-07:00,692.1,785.2,737.3,1034.0,378.6,302.8,916.9,794.4,3464.9,3474.6,1254.2,759.6,581.0,3467.4,1119.1,861.2,3450.4,3447.9,385.6,315.1,330.5,318.2,277.5,271.4,3461.3,3464.9,490.9,404.3,492.5,879.7,751.3,470.3,-10.0,-38.0,47.0,11559.0,-11199.0,2913.0,-962.0,-25.0,-32.0,-209.0,5.0,-7.0,39.0,7698.0,-11463.0,-6103.0,6367.0,-23.0,17.0,43.0,1.0
2022-05-08 17:21:23.190720-07:00,692.1,777.8,725.8,1021.9,378.6,302.8,912.7,796.0,3464.9,3466.1,1233.7,757.9,581.0,3467.4,1109.5,867.9,3447.9,3443.1,385.6,315.1,332.1,320.5,271.4,271.4,3461.3,3466.1,490.9,404.3,513.1,875.5,739.7,470.3,9.0,-19.0,1.0,11603.0,-11166.0,2854.0,-993.0,230.0,-108.0,2.0,12.0,9.0,-7.0,7736.0,-11438.0,-6061.0,6405.0,186.0,-11.0,71.0,1.0
2022-05-08 17:21:23.193060-07:00,701.1,779.4,725.8,1021.9,385.6,298.2,912.7,796.0,3462.5,3460.1,1233.7,757.9,581.8,3467.4,1109.5,867.9,3447.9,3443.1,391.8,309.0,332.1,320.5,276.0,265.3,3461.3,3466.1,493.2,403.5,513.1,875.5,726.6,463.2,21.0,-7.0,-6.0,11643.0,-11130.0,2834.0,-984.0,-91.0,-13.0,-38.0,23.0,-3.0,-13.0,7731.0,-11447.0,-6035.0,6420.0,-98.0,22.0,65.0,1.0
2022-05-08 17:21:23.221188-07:00,701.1,779.4,729.0,1031.4,385.6,298.2,907.6,803.5,3462.5,3460.1,1227.5,760.4,581.8,3467.4,1108.6,864.6,3435.8,3440.7,391.8,309.0,332.9,318.2,276.0,265.3,3451.6,3469.8,493.2,403.5,494.8,872.1,726.6,463.2,9.0,-33.0,13.0,11614.0,-11164.0,2819.0,-987.0,-54.0,6.0,26.0,21.0,2.0,-3.0,7700.0,-11474.0,-6035.0,6410.0,-36.0,-1.0,70.0,1.0
2022-05-08 17:21:23.280467-07:00,697.9,782.7,729.0,1031.4,387.2,294.4,907.6,803.5,3467.4,3471.0,1227.5,760.4,581.0,3475.9,1108.6,864.6,3435.8,3440.7,387.2,312.0,332.9,318.2,275.2,270.6,3451.6,3469.8,488.5,407.5,494.8,872.1,729.0,471.9,15.0,4.0,8.0,11608.0,-11167.0,2839.0,-965.0,-5.0,1.0,83.0,22.0,4.0,-6.0,7696.0,-11479.0,-6016.0,6422.0,25.0,-12.0,61.0,1.0
2022-05-08 17:21:23.400884-07:00,697.9,782.7,724.1,1032.3,387.2,294.4,909.3,792.7,3467.4,3471.0,1205.3,755.4,581.0,3475.9,1103.4,862.9,3438.2,3444.3,387.2,312.0,337.5,320.5,275.2,270.6,3457.6,3457.6,488.5,407.5,487.7,870.5,729.0,471.9,8.0,-5.0,13.0,11605.0,-11167.0,2859.0,-946.0,-45.0,16.0,61.0,12.0,3.0,-3.0,7691.0,-11484.0,-6004.0,6430.0,-6.0,10.0,39.0,1.0
2022-05-08 17:21:23.430991-07:00,692.1,775.3,724.1,1032.3,383.3,299.7,909.3,792.7,3468.6,3457.6,1205.3,755.4,589.1,3464.9,1103.4,862.9,3438.2,3444.3,391.1,311.3,337.5,320.5,271.4,265.3,3457.6,3457.6,490.1,402.8,487.7,870.5,720.0,472.7,-7.0,6.0,5.0,11597.0,-11169.0,2889.0,-932.0,-37.0,15.0,70.0,8.0,9.0,10.0,7689.0,-11493.0,-5988.0,6431.0,-6.0,29.0,39.0,1.0
2022-05-08 17:21:23.432450-07:00,692.1,775.3,720.8,1027.1,383.3,295.1,905.0,786.1,3468.6,3457.6,1203.5,755.4,589.1,3468.6,1106.9,870.5,3443.1,3450.4,391.8,311.3,336.7,322.1,271.4,265.3,3467.4,3464.9,486.1,402.8,490.1,868.8,720.0,472.7,-4.0,23.0,-13.0,11592.0,-11170.0,2910.0,-912.0,10.0,-19.0,49.0,8.0,14.0,9.0,7698.0,-11495.0,-5977.0,6427.0,23.0,25.0,-11.0,1.0
2022-05-08 17:21:23.490553-07:00,701.1,770.3,716.7,1027.1,386.4,295.1,905.0,786.1,3469.8,3475.9,1197.4,755.4,581.0,3468.6,1106.9,870.5,3443.1,3450.4,391.8,311.3,336.7,319.0,271.4,270.6,3467.4,3464.9,486.1,404.3,490.1,868.8,720.8,464.0,-8.0,0.0,-11.0,11587.0,-11178.0,2908.0,-891.0,-70.0,-16.0,12.0,-3.0,8.0,-8.0,7695.0,-11498.0,-5992.0,6411.0,-57.0,2.0,-41.0,1.0
2022-05-08 17:21:23.520967-07:00,701.1,770.3,716.7,1028.0,386.4,295.9,898.3,786.1,3469.8,3475.9,1197.4,751.3,581.0,3466.1,1097.3,866.3,3449.1,3437.0,393.4,311.3,329.8,319.0,271.4,270.6,3455.2,3455.2,484.5,404.3,490.1,868.8,720.8,464.0,-8.0,-11.0,-1.0,11579.0,-11189.0,2899.0,-880.0,51.0,-54.0,-8.0,-2.0,0.0,0.0,7696.0,-11491.0,-6005.0,6411.0,47.0,-41.0,-26.0,1.0
2022-05-08 17:21:23.791138-07:00,695.4,776.9,717.5,1028.0,386.4,295.9,898.3,786.1,3471.0,3458.9,1195.6,751.3,585.1,3466.1,1097.3,866.3,3449.1,3437.0,393.4,311.3,329.8,317.4,275.2,271.4,3455.2,3455.2,484.5,405.1,490.1,864.6,726.6,471.1,-8.0,-14.0,6.0,11594.0,-11178.0,2885.0,-864.0,1.0,-39.0,39.0,-1.0,3.0,0.0,7702.0,-11475.0,-6010.0,6427.0,12.0,-30.0,14.0,1.0
2022-05-08 17:21:23.792757-07:00,695.4,776.9,717.5,1029.7,386.4,298.2,912.7,784.4,3471.0,3458.9,1195.6,758.7,585.1,3468.6,1092.9,868.8,3443.1,3438.2,390.3,311.3,333.6,317.4,275.2,271.4,3455.2,3457.6,486.9,405.1,488.5,864.6,726.6,471.1,0.0,0.0,16.0,11596.0,-11176.0,2890.0,-843.0,-24.0,-5.0,25.0,8.0,2.0,4.0,7695.0,-11474.0,-6008.0,6441.0,-13.0,-24.0,34.0,1.0
2022-05-08 17:21:23.793861-07:00,690.5,775.3,719.2,1029.7,383.3,298.2,912.7,784.4,3474.6,3471.0,1193.8,758.7,581.8,3468.6,1092.9,868.8,3443.1,3438.2,390.3,312.0,333.6,322.8,268.3,268.3,3455.2,3457.6,486.9,405.1,488.5,869.6,711.0,464.8,9.0,4.0,2.0,11586.0,-11185.0,2898.0,-836.0,-80.0,-7.0,23.0,10.0,5.0,0.0,7680.0,-11482.0,-6007.0,6444.0,-64.0,8.0,14.0,1.0
2022-05-08 17:21:23.820405-07:00,690.5,775.3,719.2,1020.2,383.3,294.4,902.5,785.2,3474.6,3471.0,1193.8,755.4,581.8,3462.5,1094.7,866.3,3440.7,3449.1,387.2,312.0,328.2,322.8,268.3,268.3,3463.7,3455.2,479.8,405.1,484.5,869.6,711.0,464.8,0.0,2.0,0.0,11571.0,-11198.0,2909.0,-827.0,4.0,6.0,29.0,10.0,6.0,-1.0,7668.0,-11488.0,-6013.0,6443.0,3.0,-21.0,1.0,1.0
2022-05-08 17:21:23.821741-07:00,697.0,781.9,716.7,1027.1,385.6,294.4,902.5,785.2,3472.2,3461.3,1202.7,758.7,579.4,3462.5,1094.7,866.3,3440.7,3449.1,387.2,311.3,333.6,318.2,276.0,269.9,3463.7,3455.2,479.8,400.4,486.1,868.8,723.3,463.2,5.0,6.0,5.0,11572.0,-11196.0,2913.0,-823.0,24.0,-10.0,-20.0,14.0,0.0,6.0,7669.0,-11480.0,-6022.0,6447.0,21.0,-30.0,-27.0,1.0
2022-05-08 17:21:23.822602-07:00,697.0,781.9,716.7,1027.1,385.6,294.4,902.5,785.2,3472.2,3461.3,1202.7,758.7,579.4,3462.5,1094.7,866.3,3440.7,3449.1,387.2,311.3,333.6,318.2,276.0,269.9,3463.7,3455.2,479.8,400.4,486.1,868.8,723.3,463.2,5.0,6.0,5.0,11572.0,-11196.0,2913.0,-823.0,24.0,-10.0,-20.0,14.0,0.0,6.0,7669.0,-11480.0,-6022.0,6447.0,21.0,-30.0,-27.0,1.0
2022-05-08 17:21:23.880983-07:00,695.4,771.1,730.7,1025.4,387.2,299.0,899.1,786.9,3460.1,3468.6,1185.0,758.7,578.6,3458.9,1092.9,865.4,3452.8,3438.2,385.6,309.7,333.6,320.5,275.2,270.6,3455.2,3455.2,480.6,404.3,490.1,875.5,705.2,461.6,-12.0,-13.0,9.0,11588.0,-11192.0,2873.0,-804.0,-7.0,-69.0,16.0,6.0,-5.0,12.0,7685.0,-11449.0,-6052.0,6455.0,13.0,-29.0,-29.0,1.0
2022-05-08 17:21:23.940465-07:00,695.4,771.1,730.7,1025.4,384.0,297.4,891.5,782.7,3460.1,3468.6,1185.0,758.7,585.1,3460.1,1089.5,866.3,3441.9,3444.3,394.2,310.5,333.6,320.5,275.2,270.6,3460.1,3458.9,485.3,403.5,490.1,875.5,705.2,461.6,11.0,3.0,11.0,11597.0,-11190.0,2851.0,-774.0,15.0,-93.0,6.0,8.0,5.0,0.0,7698.0,-11433.0,-6058.0,6463.0,45.0,-22.0,-27.0,1.0
2022-05-08 17:21:23.970567-07:00,700.3,769.5,720.0,1023.7,384.0,297.4,891.5,782.7,3468.6,3466.1,1196.5,758.7,585.1,3460.1,1089.5,866.3,3441.9,3444.3,394.2,310.5,326.7,325.1,272.9,271.4,3460.1,3458.9,485.3,403.5,488.5,865.4,708.5,461.6,0.0,-1.0,9.0,11610.0,-11184.0,2823.0,-769.0,18.0,-40.0,-53.0,4.0,6.0,3.0,7713.0,-11416.0,-6070.0,6463.0,8.0,-11.0,-50.0,1.0
2022-05-08 17:21:24.061342-07:00,700.3,769.5,720.0,1023.7,380.9,297.4,899.1,776.9,3468.6,3466.1,1196.5,758.7,581.8,3467.4,1099.9,864.6,3446.7,3447.9,389.5,309.7,326.7,325.1,272.9,271.4,3468.6,3457.6,485.3,399.6,488.5,865.4,708.5,461.6,-11.0,-18.0,11.0,11614.0,-11184.0,2807.0,-774.0,14.0,-20.0,-16.0,0.0,-4.0,7.0,7722.0,-11407.0,-6080.0,6458.0,21.0,4.0,-21.0,1.0
2022-05-08 17:21:24.090492-07:00,690.5,772.0,705.2,1030.6,380.9,297.4,899.1,776.9,3468.6,3467.4,1185.0,758.7,581.8,3467.4,1099.9,864.6,3446.7,3447.9,389.5,309.7,332.9,324.4,278.3,271.4,3468.6,3457.6,485.3,399.6,486.9,861.2,709.3,457.7,-7.0,-4.0,4.0,11617.0,-11181.0,2808.0,-775.0,-8.0,22.0,-6.0,0.0,4.0,5.0,7728.0,-11406.0,-6077.0,6457.0,-3.0,20.0,-3.0,1.0
2022-05-08 17:21:24.120912-07:00,697.0,772.0,705.2,1030.6,380.2,295.9,899.1,781.1,3468.6,3467.4,1185.0,758.7,577.8,3471.0,1086.8,865.4,3439.5,3440.7,395.7,308.2,332.9,324.4,278.3,269.1,3446.7,3457.6,481.4,402.0,486.9,861.2,709.3,464.0,1.0,3.0,-2.0,11614.0,-11181.0,2815.0,-782.0,0.0,24.0,5.0,11.0,7.0,0.0,7731.0,-11409.0,-6073.0,6450.0,7.0,20.0,-2.0,1.0
2022-05-08 17:21:24.210115-07:00,697.0,770.3,716.7,1031.4,380.2,295.9,899.1,779.4,3468.6,3474.6,1189.4,754.6,577.8,3471.0,1086.8,866.3,3446.7,3440.7,395.7,308.2,338.3,317.4,272.9,269.1,3466.1,3457.6,481.4,402.0,492.5,867.9,706.9,464.0,5.0,-3.0,-8.0,11609.0,-11187.0,2812.0,-776.0,-26.0,-41.0,3.0,7.0,6.0,-1.0,7736.0,-11410.0,-6076.0,6440.0,1.0,7.0,-21.0,1.0
2022-05-08 17:21:24.241012-07:00,699.5,770.3,716.7,1031.4,395.7,302.8,893.2,779.4,3467.4,3474.6,1189.4,754.6,581.8,3460.1,1097.3,866.3,3446.7,3441.9,382.5,312.0,338.3,317.4,272.9,272.1,3466.1,3468.6,472.7,406.7,492.5,867.9,706.9,460.8,0.0,3.0,-2.0,11612.0,-11189.0,2797.0,-762.0,21.0,-42.0,-2.0,6.0,-2.0,-1.0,7747.0,-11396.0,-6086.0,6442.0,40.0,-26.0,-41.0,1.0
2022-05-08 17:21:24.300518-07:00,699.5,770.3,719.2,1019.4,395.7,302.8,893.2,774.5,3467.4,3468.6,1177.9,751.3,581.8,3460.1,1097.3,867.9,3447.9,3441.9,382.5,312.0,334.4,317.4,273.7,272.1,3463.7,3468.6,472.7,406.7,483.0,859.5,705.2,460.8,5.0,2.0,0.0,11628.0,-11180.0,2767.0,-760.0,59.0,-56.0,-51.0,9.0,13.0,-6.0,7768.0,-11371.0,-6101.0,6447.0,53.0,-31.0,-65.0,1.0
2022-05-08 17:21:24.330491-07:00,699.5,770.3,719.2,1019.4,383.3,292.8,893.2,774.5,3457.6,3468.6,1177.9,751.3,581.8,3468.6,1092.1,867.9,3447.9,3454.0,390.3,312.0,334.4,317.4,273.7,272.1,3463.7,3461.3,481.4,402.0,483.0,859.5,705.2,452.2,-8.0,-4.0,16.0,11635.0,-11177.0,2744.0,-766.0,9.0,-27.0,-29.0,5.0,0.0,11.0,7780.0,-11357.0,-6122.0,6438.0,2.0,0.0,-61.0,1.0
2022-05-08 17:21:24.480898-07:00,699.5,768.7,715.9,1025.4,383.3,292.8,893.2,767.0,3457.6,3473.4,1186.7,750.5,581.8,3468.6,1092.1,863.7,3446.7,3454.0,390.3,312.0,336.7,317.4,266.8,272.1,3456.4,3461.3,481.4,402.0,486.9,863.7,707.7,452.2,-16.0,0.0,6.0,11642.0,-11173.0,2732.0,-771.0,37.0,2.0,-22.0,1.0,2.0,14.0,7796.0,-11346.0,-6133.0,6428.0,24.0,14.0,-51.0,1.0
2022-05-08 17:21:24.482509-07:00,696.2,761.2,715.9,1025.4,377.8,294.4,892.4,767.0,3457.6,3466.1,1186.7,750.5,585.1,3468.6,1086.8,863.7,3446.7,3438.2,390.3,311.3,336.7,317.4,276.0,262.2,3456.4,3456.4,479.8,390.3,486.9,863.7,707.7,451.4,-6.0,-14.0,6.0,11642.0,-11175.0,2724.0,-779.0,-23.0,-2.0,-33.0,5.0,0.0,7.0,7804.0,-11347.0,-6138.0,6410.0,-17.0,36.0,-22.0,1.0
2022-05-08 17:21:24.483484-07:00,696.2,761.2,713.4,1028.8,377.8,294.4,893.2,767.8,3457.6,3466.1,1185.0,749.6,585.1,3468.6,1090.3,862.1,3439.5,3440.7,390.3,311.3,336.7,315.9,276.0,262.2,3458.9,3457.6,479.8,390.3,486.9,865.4,707.7,451.4,-3.0,-15.0,-5.0,11629.0,-11189.0,2720.0,-774.0,-79.0,-30.0,17.0,11.0,-1.0,6.0,7804.0,-11357.0,-6137.0,6395.0,-27.0,26.0,-4.0,1.0
2022-05-08 17:21:24.570693-07:00,696.2,760.4,713.4,1028.8,384.8,301.3,893.2,767.8,3455.2,3462.5,1185.0,749.6,578.6,3472.2,1090.3,862.1,3439.5,3440.7,389.5,309.7,336.7,315.9,271.4,272.1,3458.9,3457.6,485.3,398.1,486.9,865.4,709.3,452.2,-10.0,24.0,-44.0,11619.0,-11208.0,2697.0,-735.0,-76.0,-161.0,5.0,19.0,21.0,6.0,7806.0,-11359.0,-6142.0,6385.0,-42.0,20.0,-50.0,1.0
2022-05-08 17:21:24.573686-07:00,696.2,760.4,711.8,1023.7,384.8,301.3,899.1,750.5,3455.2,3462.5,1177.9,749.6,578.6,3472.2,1092.1,859.5,3439.5,3444.3,389.5,309.7,333.6,324.4,271.4,272.1,3454.0,3468.6,485.3,398.1,481.4,867.1,709.3,452.2,24.0,49.0,-53.0,11588.0,-11279.0,2564.0,-611.0,-291.0,-569.0,-80.0,36.0,30.0,-22.0,7788.0,-11375.0,-6189.0,6331.0,-218.0,34.0,-135.0,1.0
2022-05-08 17:21:24.660505-07:00,695.4,775.3,711.8,1023.7,383.3,297.4,899.1,750.5,3462.5,3471.0,1177.9,749.6,587.5,3463.7,1092.1,859.5,3439.5,3444.3,390.3,310.5,333.6,324.4,275.2,266.8,3454.0,3468.6,481.4,401.2,481.4,867.1,722.5,456.1,5.0,-4.0,-49.0,11507.0,-11430.0,2283.0,-424.0,-419.0,-883.0,-261.0,-86.0,-101.0,72.0,7782.0,-11386.0,-6270.0,6238.0,-164.0,136.0,-265.0,1.0
2022-05-08 17:21:24.720505-07:00,695.4,775.3,715.9,1032.3,383.3,297.4,896.6,752.1,3462.5,3471.0,1190.3,753.8,587.5,3463.7,1085.1,871.3,3443.1,3451.6,390.3,310.5,329.8,322.1,275.2,266.8,3460.1,3469.8,481.4,401.2,483.0,865.4,722.5,456.1,-31.0,38.0,-12.0,11541.0,-11471.0,1905.0,-191.0,220.0,-970.0,-243.0,-22.0,29.0,-12.0,7855.0,-11319.0,-6330.0,6209.0,272.0,-44.0,-371.0,1.0
2022-05-08 17:21:24.721845-07:00,692.1,758.7,715.9,1032.3,383.3,314.4,896.6,752.1,3460.1,3473.4,1190.3,753.8,583.5,3462.5,1085.1,871.3,3443.1,3451.6,391.1,315.1,329.8,322.1,273.7,267.6,3460.1,3469.8,487.7,411.4,483.0,865.4,796.9,453.7,38.0,56.0,20.0,11566.0,-11506.0,1509.0,-39.0,-531.0,-776.0,-581.0,-18.0,94.0,-75.0,7940.0,-11225.0,-6448.0,6150.0,-386.0,-49.0,-500.0,1.0
2022-05-08 17:21:24.810415-07:00,692.1,758.7,718.4,1031.4,383.3,315.1,889.0,748.0,3460.1,3473.4,1189.4,760.4,583.5,3472.2,1098.2,864.6,3433.4,3439.5,390.3,315.1,333.6,324.4,273.7,267.6,3464.9,3463.7,493.2,411.4,490.9,881.4,796.9,453.7,-81.0,-107.0,18.0,11353.0,-11750.0,1206.0,-143.0,-589.0,1.0,-694.0,-11.0,-13.0,72.0,7844.0,-11260.0,-6694.0,5941.0,-375.0,-30.0,-498.0,1.0
2022-05-08 17:21:24.870476-07:00,692.1,763.7,735.6,1031.4,386.4,315.1,889.0,748.0,3475.9,3463.7,1189.4,760.4,580.2,3472.2,1098.2,864.6,3433.4,3439.5,390.3,309.7,333.6,323.6,275.2,268.3,3464.9,3463.7,493.2,423.9,490.9,903.4,847.8,449.8,4.0,-73.0,36.0,11220.0,-11891.0,1044.0,-213.0,-474.0,-144.0,-261.0,-58.0,-24.0,42.0,7805.0,-11306.0,-6836.0,5741.0,-374.0,40.0,-255.0,1.0
2022-05-08 17:21:24.900014-07:00,692.1,763.7,735.6,1021.1,386.4,317.4,877.2,734.8,3475.9,3463.7,1189.4,758.7,580.2,3468.6,1084.2,862.9,3443.1,3444.3,391.1,309.7,334.4,323.6,275.2,268.3,3454.0,3454.0,491.7,423.9,482.2,903.4,847.8,449.8,-2.0,-72.0,65.0,11041.0,-12057.0,1030.0,-287.0,-581.0,346.0,-99.0,24.0,-54.0,29.0,7709.0,-11376.0,-6940.0,5607.0,-583.0,181.0,-59.0,1.0
2022-05-08 17:21:24.990798-07:00,694.6,761.2,766.2,1021.1,383.3,317.4,877.2,734.8,3478.3,3457.6,1191.2,758.7,585.9,3468.6,1084.2,862.9,3443.1,3444.3,391.1,309.7,334.4,325.1,271.4,272.9,3454.0,3454.0,491.7,426.2,482.2,921.1,857.0,458.5,-2.0,0.0,-31.0,10862.0,-12211.0,1089.0,-381.0,-545.0,86.0,-97.0,19.0,-1.0,41.0,7584.0,-11494.0,-6998.0,5463.0,-390.0,0.0,-27.0,1.0
2022-05-08 17:21:24.992002-07:00,694.6,761.2,766.2,1028.8,383.3,319.7,873.0,736.5,3478.3,3457.6,1191.2,754.6,585.9,3466.1,1101.7,868.8,3449.1,3451.6,385.6,309.7,332.9,325.1,271.4,272.9,3457.6,3469.8,491.7,426.2,488.5,921.1,857.0,458.5,7.0,23.0,-12.0,10731.0,-12327.0,1068.0,-419.0,-253.0,135.0,-109.0,15.0,-3.0,21.0,7477.0,-11542.0,-7073.0,5410.0,-297.0,33.0,-83.0,1.0
2022-05-08 17:21:25.020918-07:00,692.1,759.6,787.7,1028.8,384.8,319.7,873.0,736.5,3463.7,3463.7,1192.9,754.6,584.3,3466.1,1101.7,868.8,3449.1,3451.6,385.6,310.5,332.9,328.2,269.9,268.3,3457.6,3469.8,491.7,422.3,488.5,942.4,864.6,451.4,-5.0,-26.0,10.0,10650.0,-12398.0,1033.0,-481.0,-242.0,24.0,-181.0,5.0,14.0,-21.0,7411.0,-11561.0,-7152.0,5357.0,-228.0,-85.0,-131.0,1.0
2022-05-08 17:21:25.080713-07:00,692.1,759.6,787.7,1023.7,386.4,313.6,869.6,726.6,3463.7,3463.7,1192.9,753.8,583.5,3462.5,1128.7,863.7,3449.1,3446.7,389.5,307.4,329.0,328.2,269.9,268.3,3458.9,3447.9,486.1,420.0,486.1,942.4,864.6,451.4,-33.0,-21.0,3.0,10604.0,-12436.0,1020.0,-540.0,-5.0,55.0,-75.0,-16.0,-16.0,55.0,7376.0,-11573.0,-7210.0,5302.0,-93.0,62.0,-104.0,1.0
2022-05-08 17:21:25.140705-07:00,688.0,768.7,821.0,1032.3,386.4,313.6,869.6,726.6,3469.8,3468.6,1185.9,755.4,583.5,3462.5,1128.7,863.7,3449.1,3446.7,389.5,307.4,334.4,322.1,268.3,270.6,3458.9,3447.9,486.1,420.0,483.7,967.1,878.9,452.2,39.0,8.0,2.0,10618.0,-12427.0,975.0,-550.0,48.0,-66.0,-105.0,12.0,37.0,-27.0,7385.0,-11543.0,-7248.0,5305.0,2.0,-23.0,-114.0,1.0
2022-05-08 17:21:25.170552-07:00,688.0,768.7,821.0,1032.3,384.0,305.1,866.3,737.3,3469.8,3468.6,1185.9,755.4,585.1,3457.6,1146.3,863.7,3445.5,3447.9,385.6,317.4,334.4,322.1,268.3,270.6,3464.9,3468.6,493.2,423.1,483.7,967.1,878.9,452.2,5.0,-10.0,50.0,10628.0,-12417.0,978.0,-589.0,25.0,95.0,-29.0,21.0,-4.0,8.0,7392.0,-11548.0,-7273.0,5247.0,-64.0,32.0,-74.0,1.0
2022-05-08 17:21:25.230670-07:00,689.7,754.6,811.0,1031.4,384.0,305.1,866.3,737.3,3461.3,3460.1,1189.4,755.4,585.1,3457.6,1146.3,863.7,3445.5,3447.9,385.6,317.4,327.5,325.9,269.1,277.5,3464.9,3468.6,493.2,423.1,490.1,977.3,867.9,455.3,-9.0,-53.0,25.0,10630.0,-12409.0,1032.0,-642.0,101.0,224.0,66.0,20.0,-16.0,0.0,7388.0,-11557.0,-7279.0,5225.0,30.0,-51.0,31.0,1.0
2022-05-08 17:21:25.350612-07:00,689.7,754.6,811.0,1031.4,383.3,304.3,865.4,727.4,3461.3,3460.1,1189.4,755.4,585.1,3473.4,1166.5,857.9,3446.7,3441.9,391.1,315.1,327.5,325.9,269.1,277.5,3460.1,3458.9,494.8,420.8,490.1,977.3,867.9,455.3,26.0,-35.0,-21.0,10694.0,-12340.0,1154.0,-690.0,304.0,264.0,211.0,3.0,0.0,-18.0,7388.0,-11534.0,-7257.0,5306.0,204.0,-200.0,140.0,1.0
2022-05-08 17:21:25.352362-07:00,689.7,767.8,814.4,1028.0,383.3,304.3,865.4,727.4,3468.6,3471.0,1186.7,754.6,585.1,3473.4,1166.5,857.9,3446.7,3441.9,391.1,315.1,328.2,319.7,274.4,289.8,3460.1,3458.9,494.8,420.8,494.0,979.9,887.3,455.3,0.0,-11.0,-4.0,10795.0,-12232.0,1313.0,-736.0,222.0,311.0,193.0,0.0,1.0,17.0,7399.0,-11496.0,-7222.0,5419.0,74.0,0.0,128.0,1.0
2022-05-08 17:21:25.410536-07:00,689.7,767.8,814.4,1028.0,398.9,315.9,861.2,724.9,3468.6,3471.0,1186.7,754.6,582.6,3471.0,1224.8,871.3,3449.1,3449.1,391.8,310.5,328.2,319.7,274.4,289.8,3460.1,3464.9,497.2,414.5,494.0,979.9,887.3,455.3,56.0,-69.0,31.0,10857.0,-12158.0,1465.0,-768.0,191.0,276.0,281.0,12.0,-32.0,-30.0,7392.0,-11491.0,-7183.0,5491.0,119.0,-130.0,174.0,1.0
2022-05-08 17:21:25.412389-07:00,685.6,775.3,797.7,1024.5,398.9,315.9,861.2,730.7,3464.9,3467.4,1178.8,752.1,582.6,3471.0,1224.8,875.5,3449.1,3449.1,391.8,310.5,332.1,319.7,276.0,293.6,3457.6,3464.9,497.2,414.5,498.8,974.8,878.9,480.6,-4.0,-24.0,-6.0,10936.0,-12059.0,1661.0,-818.0,180.0,353.0,246.0,2.0,-16.0,14.0,7345.0,-11490.0,-7147.0,5603.0,-3.0,-200.0,249.0,1.0
2022-05-08 17:21:25.560432-07:00,688.0,775.3,797.7,1024.5,409.8,302.0,861.2,730.7,3472.2,3467.4,1178.8,752.1,583.5,3471.0,1212.4,875.5,3449.1,3449.1,395.7,312.0,332.1,319.7,276.0,292.1,3457.6,3446.7,488.5,407.5,498.8,974.8,878.9,479.8,42.0,-22.0,17.0,10953.0,-12019.0,1808.0,-863.0,41.0,354.0,167.0,15.0,4.0,-67.0,7229.0,-11507.0,-7126.0,5743.0,-75.0,-400.0,309.0,1.0
2022-05-08 17:21:25.680441-07:00,688.0,773.6,795.2,1045.2,409.8,302.0,861.2,724.9,3472.2,3471.0,1181.5,748.0,583.5,3471.0,1212.4,872.1,3439.5,3449.1,395.7,312.0,323.6,317.4,271.4,292.1,3457.6,3446.7,488.5,407.5,490.9,962.8,862.1,479.8,-51.0,-114.0,-14.0,10892.0,-12037.0,1988.0,-976.0,-318.0,438.0,93.0,13.0,-46.0,8.0,7039.0,-11582.0,-7107.0,5851.0,-405.0,-201.0,417.0,1.0
2022-05-08 17:21:26.280076-07:00,685.6,773.6,795.2,1045.2,405.9,305.9,861.2,724.9,3467.4,3471.0,1181.5,748.0,581.8,3467.4,1195.6,872.1,3439.5,3443.1,388.7,303.6,323.6,317.4,271.4,287.5,3457.6,3455.2,490.9,411.4,490.9,962.8,862.1,483.7,33.0,-60.0,17.0,10764.0,-12125.0,2143.0,-974.0,-399.0,257.0,316.0,13.0,-32.0,-68.0,6753.0,-11679.0,-7073.0,6034.0,-333.0,-607.0,655.0,1.0
2022-05-08 17:21:27.450560-07:00,685.6,778.6,791.9,1028.8,405.9,305.9,861.2,722.5,3467.4,3462.5,1179.7,756.3,581.8,3467.4,1195.6,871.3,3443.1,3443.1,388.7,303.6,331.3,316.7,275.2,287.5,3467.4,3455.2,490.9,411.4,494.0,952.6,848.6,483.7,-3.0,-25.0,-20.0,10588.0,-12239.0,2361.0,-986.0,-569.0,403.0,258.0,4.0,-8.0,0.0,6421.0,-11829.0,-6991.0,6198.0,-457.0,-371.0,731.0,1.0
2022-05-08 17:21:27.452042-07:00,688.9,778.6,791.9,1028.8,396.5,299.0,867.9,722.5,3464.9,3462.5,1179.7,756.3,581.8,3466.1,1190.3,871.3,3443.1,3446.7,385.6,313.6,331.3,316.7,275.2,280.6,3467.4,3466.1,488.5,408.2,494.0,952.6,848.6,478.2,-9.0,0.0,-13.0,10421.0,-12339.0,2573.0,-985.0,-410.0,326.0,366.0,4.0,2.0,2.0,6123.0,-11945.0,-6890.0,6387.0,-279.0,-398.0,708.0,1.0
2022-05-08 17:21:27.453269-07:00,688.9,768.7,791.9,1033.2,396.5,299.0,863.7,717.5,3464.9,3463.7,1177.9,752.9,581.8,3466.1,1190.3,866.3,3447.9,3446.7,385.6,313.6,323.6,320.5,274.4,280.6,3463.7,3466.1,488.5,408.2,499.6,941.5,844.4,478.2,-44.0,63.0,12.0,10282.0,-12412.0,2790.0,-942.0,-391.0,266.0,384.0,-9.0,42.0,53.0,5889.0,-12040.0,-6774.0,6549.0,-166.0,-215.0,595.0,1.0
2022-05-08 17:21:27.454211-07:00,687.2,766.2,791.9,1033.2,395.0,304.3,863.7,717.5,3462.5,3467.4,1177.9,752.9,580.2,3475.9,1185.9,866.3,3447.9,3441.9,392.6,310.5,323.6,320.5,272.1,285.9,3463.7,3468.6,485.3,406.7,499.6,941.5,841.9,476.6,-9.0,47.0,30.0,10181.0,-12460.0,2958.0,-887.0,-193.0,164.0,308.0,15.0,22.0,34.0,5751.0,-12089.0,-6692.0,6665.0,-11.0,-279.0,433.0,1.0
2022-05-08 17:21:27.510632-07:00,687.2,766.2,784.4,1037.5,395.0,304.3,857.0,727.4,3462.5,3467.4,1161.2,758.7,580.2,3475.9,1177.0,863.7,3445.5,3446.7,392.6,310.5,323.6,320.5,272.1,285.9,3458.9,3456.4,485.3,406.7,494.0,940.7,841.9,476.6,0.0,-9.0,3.0,10273.0,-12321.0,3247.0,-735.0,42.0,-3.0,19.0,2.0,-4.0,3.0,5800.0,-12047.0,-6476.0,6908.0,52.0,4.0,-19.0,1.0
2022-05-08 17:21:27.511782-07:00,687.2,766.2,784.4,1037.5,395.0,304.3,857.0,727.4,3462.5,3467.4,1161.2,758.7,580.2,3475.9,1177.0,863.7,3445.5,3446.7,392.6,310.5,323.6,320.5,272.1,285.9,3458.9,3456.4,485.3,406.7,494.0,940.7,841.9,476.6,0.0,-9.0,3.0,10273.0,-12321.0,3247.0,-735.0,42.0,-3.0,19.0,2.0,-4.0,3.0,5800.0,-12047.0,-6476.0,6908.0,52.0,4.0,-19.0,1.0
2022-05-08 17:21:27.512773-07:00,688.0,757.9,781.9,1034.9,384.8,300.5,838.6,709.3,3473.4,3458.9,1169.1,756.3,580.2,3473.4,1161.2,863.7,3440.7,3441.9,390.3,316.7,327.5,322.1,266.8,285.9,3468.6,3454.0,483.7,403.5,484.5,928.8,835.2,468.7,-1.0,-36.0,7.0,10562.0,-12255.0,2469.0,-785.0,157.0,-162.0,-248.0,-8.0,-5.0,14.0,6437.0,-11809.0,-6828.0,6398.0,107.0,153.0,-301.0,1.0
2022-05-08 17:21:27.630612-07:00,688.0,757.9,781.9,1034.0,384.8,295.9,836.1,711.0,3473.4,3458.9,1169.1,753.8,580.2,3474.6,1157.7,862.1,3447.9,3449.1,391.1,316.7,323.6,322.1,266.8,285.9,3452.8,3454.0,481.4,403.5,490.1,928.8,835.2,468.7,28.0,4.0,1.0,10608.0,-12233.0,2374.0,-792.0,84.0,-144.0,-192.0,24.0,8.0,-32.0,6541.0,-11767.0,-6876.0,6317.0,33.0,171.0,-281.0,1.0
2022-05-08 17:21:27.631966-07:00,687.2,755.4,781.9,1034.0,388.7,295.9,836.1,711.0,3462.5,3467.4,1170.9,753.8,580.2,3474.6,1157.7,862.1,3447.9,3449.1,391.1,310.5,323.6,313.6,275.2,277.5,3452.8,3454.0,481.4,398.1,490.1,927.1,822.7,469.5,12.0,-19.0,8.0,10606.0,-12253.0,2268.0,-819.0,-110.0,-80.0,-268.0,5.0,-5.0,-12.0,6604.0,-11781.0,-6932.0,6162.0,-160.0,287.0,-276.0,1.0
2022-05-08 17:21:27.750102-07:00,687.2,755.4,781.9,1034.9,388.7,298.2,849.5,708.5,3462.5,3467.4,1170.9,752.1,580.2,3460.1,1156.8,864.6,3441.9,3427.4,392.6,310.5,324.4,313.6,275.2,277.5,3464.9,3451.6,496.4,398.1,482.2,927.1,822.7,469.5,11.0,-66.0,3.0,10580.0,-12289.0,2179.0,-860.0,49.0,-28.0,-138.0,15.0,-28.0,-5.0,6654.0,-11792.0,-6981.0,6032.0,-8.0,155.0,-199.0,1.0
2022-05-08 17:21:27.751451-07:00,686.4,760.4,776.9,1034.0,391.8,298.2,849.5,708.5,3468.6,3473.4,1170.0,754.6,581.8,3460.1,1156.8,864.6,3441.9,3427.4,392.6,312.0,329.0,322.1,274.4,285.9,3464.9,3451.6,496.4,405.1,485.3,924.5,837.7,465.6,9.0,2.0,-4.0,10612.0,-12268.0,2134.0,-876.0,64.0,-63.0,-57.0,12.0,10.0,-13.0,6715.0,-11763.0,-7006.0,5990.0,54.0,78.0,-150.0,1.0
2022-05-08 17:21:27.780787-07:00,686.4,760.4,776.9,1034.0,392.6,311.3,847.8,709.3,3468.6,3473.4,1170.0,754.6,580.2,3468.6,1156.8,867.9,3438.2,3449.1,382.5,311.3,329.0,322.1,274.4,285.9,3460.1,3461.3,489.3,402.8,485.3,924.5,837.7,465.6,0.0,-19.0,-4.0,10620.0,-12269.0,2090.0,-875.0,4.0,-93.0,-74.0,3.0,-8.0,0.0,6760.0,-11760.0,-7032.0,5916.0,-24.0,147.0,-161.0,1.0
2022-05-08 17:21:27.810821-07:00,690.5,755.4,789.4,1035.7,392.6,311.3,847.8,709.3,3468.6,3462.5,1164.7,758.7,580.2,3468.6,1156.8,867.9,3438.2,3449.1,382.5,311.3,322.8,319.7,276.7,282.1,3460.1,3461.3,489.3,402.8,486.9,922.8,841.9,464.8,-2.0,3.0,3.0,10642.0,-12257.0,2047.0,-866.0,112.0,-60.0,-35.0,-1.0,15.0,0.0,6812.0,-11736.0,-7055.0,5876.0,76.0,53.0,-135.0,1.0
2022-05-08 17:21:27.871025-07:00,690.5,755.4,789.4,1035.7,391.1,295.9,837.7,702.8,3468.6,3462.5,1164.7,758.7,578.6,3457.6,1159.4,864.6,3440.7,3444.3,387.2,309.0,322.8,319.7,276.7,282.1,3461.3,3457.6,486.9,401.2,486.9,922.8,841.9,464.8,-3.0,-17.0,6.0,10674.0,-12234.0,2018.0,-869.0,75.0,-25.0,-36.0,2.0,-1.0,-7.0,6852.0,-11710.0,-7080.0,5852.0,42.0,14.0,-113.0,1.0
2022-05-08 17:21:27.900923-07:00,683.1,749.6,773.6,1037.5,391.1,295.9,837.7,702.8,3469.8,3468.6,1162.1,750.5,578.6,3457.6,1159.4,864.6,3440.7,3444.3,387.2,309.0,326.7,318.2,272.1,281.3,3461.3,3457.6,486.9,401.2,486.1,933.0,833.6,465.6,-6.0,-19.0,15.0,10693.0,-12220.0,2000.0,-872.0,26.0,-29.0,-21.0,7.0,-4.0,0.0,6879.0,-11696.0,-7096.0,5828.0,11.0,45.0,-64.0,1.0
2022-05-08 17:21:27.961051-07:00,683.1,749.6,773.6,1037.5,385.6,295.1,837.7,705.2,3469.8,3468.6,1162.1,750.5,581.8,3464.9,1164.7,867.9,3438.2,3438.2,387.9,312.8,326.7,318.2,272.1,281.3,3466.1,3466.1,481.4,404.3,486.1,933.0,833.6,465.6,4.0,-16.0,6.0,10705.0,-12212.0,1988.0,-871.0,34.0,-9.0,-12.0,1.0,-2.0,2.0,6894.0,-11689.0,-7100.0,5819.0,33.0,2.0,-21.0,1.0
2022-05-08 17:21:28.110432-07:00,684.8,748.0,785.2,1034.0,385.6,295.1,837.7,710.1,3478.3,3461.3,1159.4,752.1,581.8,3464.9,1164.7,867.1,3447.9,3438.2,387.9,312.8,326.7,317.4,275.2,285.9,3457.6,3466.1,481.4,404.3,483.7,922.8,830.2,466.4,-6.0,-10.0,1.0,10712.0,-12205.0,1990.0,-877.0,7.0,16.0,7.0,0.0,-3.0,10.0,6899.0,-11686.0,-7099.0,5819.0,-7.0,8.0,-4.0,1.0
2022-05-08 17:21:28.200161-07:00,683.1,748.0,785.2,1034.0,387.9,297.4,842.8,710.1,3463.7,3461.3,1159.4,752.1,582.6,3467.4,1161.2,867.1,3447.9,3447.9,391.8,312.8,326.7,317.4,275.2,283.6,3457.6,3458.9,481.4,402.8,483.7,922.8,830.2,465.6,-9.0,0.0,1.0,10712.0,-12205.0,1992.0,-874.0,-8.0,-6.0,3.0,0.0,7.0,5.0,6899.0,-11689.0,-7099.0,5816.0,-16.0,22.0,-4.0,1.0
2022-05-08 17:21:28.201395-07:00,683.1,757.1,778.6,1032.3,387.9,297.4,842.8,705.2,3463.7,3473.4,1161.2,753.8,582.6,3467.4,1161.2,872.1,3446.7,3447.9,391.8,312.8,327.5,325.1,273.7,283.6,3457.6,3458.9,481.4,402.8,481.4,927.1,833.6,465.6,1.0,9.0,6.0,10721.0,-12197.0,1991.0,-875.0,39.0,6.0,-2.0,0.0,17.0,2.0,6904.0,-11684.0,-7101.0,5815.0,13.0,13.0,-32.0,1.0
2022-05-08 17:21:28.203259-07:00,688.9,757.1,778.6,1032.3,388.7,297.4,841.9,705.2,3460.1,3473.4,1161.2,753.8,582.6,3473.4,1163.0,872.1,3446.7,3449.1,390.3,304.3,327.5,325.1,273.7,280.6,3457.6,3468.6,483.7,398.1,481.4,927.1,833.6,467.1,-8.0,14.0,-7.0,10736.0,-12183.0,1988.0,-881.0,55.0,-42.0,-33.0,6.0,13.0,8.0,6927.0,-11668.0,-7114.0,5805.0,35.0,25.0,-85.0,1.0
2022-05-08 17:21:28.321401-07:00,688.9,753.8,777.8,1041.8,388.7,297.4,841.9,711.0,3460.1,3468.6,1160.3,753.8,582.6,3473.4,1163.0,863.7,3446.7,3449.1,390.3,304.3,328.2,320.5,272.9,280.6,3456.4,3468.6,483.7,398.1,476.6,928.8,841.1,467.1,-4.0,41.0,0.0,10770.0,-12159.0,1956.0,-874.0,117.0,-105.0,-66.0,6.0,28.0,14.0,6976.0,-11632.0,-7135.0,5793.0,96.0,42.0,-156.0,1.0
2022-05-08 17:21:28.322999-07:00,685.6,753.8,777.8,1041.8,394.2,298.2,843.6,711.0,3469.8,3468.6,1160.3,753.8,576.2,3468.6,1156.8,863.7,3446.7,3438.2,391.1,308.2,328.2,320.5,272.9,282.1,3456.4,3468.6,481.4,400.4,476.6,928.8,841.1,467.9,12.0,17.0,-3.0,10823.0,-12120.0,1900.0,-891.0,209.0,-6.0,-152.0,5.0,15.0,1.0,7055.0,-11576.0,-7173.0,5763.0,139.0,46.0,-241.0,1.0
2022-05-08 17:21:28.323909-07:00,685.6,749.6,779.4,1037.5,394.2,298.2,843.6,703.6,3469.8,3464.9,1162.1,752.9,576.2,3468.6,1156.8,864.6,3438.2,3438.2,391.1,308.2,322.8,319.0,274.4,282.1,3447.9,3468.6,481.4,400.4,484.5,925.4,838.6,467.9,16.0,-3.0,-7.0,10887.0,-12070.0,1833.0,-930.0,177.0,-112.0,-142.0,20.0,15.0,-3.0,7155.0,-11507.0,-7218.0,5722.0,154.0,80.0,-273.0,1.0
2022-05-08 17:21:28.500454-07:00,685.6,743.9,779.4,1037.5,385.6,299.0,844.4,703.6,3468.6,3463.7,1162.1,752.9,583.5,3473.4,1155.9,864.6,3438.2,3444.3,392.6,312.8,322.8,319.0,271.4,282.1,3447.9,3452.8,483.0,402.8,484.5,925.4,829.4,464.8,5.0,-125.0,92.0,10898.0,-12071.0,1752.0,-946.0,-45.0,-42.0,-134.0,71.0,-29.0,-16.0,7217.0,-11476.0,-7261.0,5651.0,-32.0,176.0,-237.0,1.0
2022-05-08 17:21:28.503533-07:00,685.6,743.9,776.1,1035.7,385.6,299.0,845.3,706.0,3468.6,3463.7,1163.8,751.3,583.5,3473.4,1157.7,865.4,3449.1,3444.3,392.6,312.8,327.5,319.0,271.4,282.1,3455.2,3461.3,483.0,402.8,486.1,931.3,829.4,464.8,31.0,2.0,35.0,10884.0,-12086.0,1713.0,-974.0,-94.0,48.0,-123.0,17.0,-7.0,18.0,7271.0,-11473.0,-7283.0,5559.0,-74.0,194.0,-110.0,1.0
2022-05-08 17:21:28.504704-07:00,692.9,748.8,776.1,1035.7,393.4,301.3,845.3,706.0,3466.1,3457.6,1163.8,751.3,585.9,3460.1,1157.7,865.4,3449.1,3444.3,392.6,308.2,327.5,319.0,271.4,297.4,3455.2,3461.3,482.2,408.2,486.1,931.3,829.4,464.0,0.0,-34.0,-25.0,10845.0,-12120.0,1703.0,-1008.0,-133.0,-41.0,-53.0,3.0,-12.0,-1.0,7298.0,-11497.0,-7290.0,5464.0,-67.0,131.0,-81.0,1.0
2022-05-08 17:21:28.505620-07:00,692.9,748.8,783.6,1028.0,393.4,301.3,847.0,731.5,3466.1,3457.6,1163.0,752.1,585.9,3460.1,1154.2,862.9,3443.1,3443.1,392.6,308.2,327.5,324.4,271.4,297.4,3454.0,3463.7,482.2,408.2,482.2,929.6,829.4,464.0,-4.0,-28.0,12.0,10801.0,-12168.0,1656.0,-990.0,-137.0,-153.0,-72.0,-8.0,1.0,15.0,7305.0,-11509.0,-7307.0,5406.0,-81.0,70.0,-66.0,1.0
2022-05-08 17:21:28.620408-07:00,688.0,744.7,783.6,1028.0,398.1,295.9,847.0,731.5,3464.9,3475.9,1163.0,752.1,579.4,3466.1,1154.2,862.9,3443.1,3443.1,391.8,308.2,327.5,324.4,275.2,288.2,3454.0,3463.7,485.3,402.0,482.2,929.6,867.1,460.0,2.0,-26.0,16.0,10771.0,-12205.0,1597.0,-950.0,-95.0,-109.0,-35.0,7.0,4.0,3.0,7307.0,-11521.0,-7319.0,5362.0,-70.0,88.0,-41.0,1.0
2022-05-08 17:21:28.622931-07:00,688.0,744.7,776.1,1034.0,398.1,295.9,855.3,734.0,3464.9,3475.9,1163.0,756.3,579.4,3466.1,1154.2,860.4,3439.5,3450.4,391.8,308.2,323.6,317.4,275.2,288.2,3461.3,3464.9,485.3,402.0,482.2,918.6,867.1,460.0,-5.0,-15.0,11.0,10742.0,-12237.0,1562.0,-923.0,-161.0,-63.0,-21.0,9.0,0.0,1.0,7295.0,-11550.0,-7326.0,5306.0,-242.0,130.0,-18.0,1.0
2022-05-08 17:21:28.650900-07:00,696.2,755.4,776.1,1034.0,399.6,297.4,855.3,734.0,3464.9,3473.4,1163.0,756.3,585.9,3468.6,1154.2,860.4,3439.5,3450.4,386.4,310.5,323.6,317.4,270.6,292.1,3461.3,3464.9,480.6,405.9,482.2,918.6,857.9,456.9,-19.0,-47.0,27.0,10683.0,-12291.0,1560.0,-903.0,-282.0,21.0,49.0,-16.0,-29.0,7.0,7237.0,-11628.0,-7328.0,5211.0,-242.0,144.0,105.0,1.0
2022-05-08 17:21:28.741087-07:00,696.2,755.4,775.3,1030.6,399.6,295.9,861.2,741.4,3464.9,3473.4,1158.6,753.8,585.9,3471.0,1143.6,862.1,3450.4,3444.3,391.1,310.5,328.2,319.7,270.6,292.1,3463.7,3461.3,486.9,405.9,483.7,911.8,857.9,456.9,-2.0,-20.0,34.0,10604.0,-12354.0,1609.0,-884.0,-268.0,164.0,137.0,-1.0,-15.0,-1.0,7168.0,-11724.0,-7295.0,5137.0,-270.0,145.0,183.0,1.0
2022-05-08 17:21:28.770041-07:00,686.4,755.4,759.6,1030.6,402.0,295.9,861.2,741.4,3468.6,3445.5,1169.1,753.8,586.7,3471.0,1143.6,862.1,3450.4,3444.3,391.1,310.5,328.2,320.5,270.6,291.3,3463.7,3461.3,486.9,405.1,483.7,918.6,849.5,457.7,-14.0,-10.0,21.0,10516.0,-12413.0,1722.0,-906.0,-315.0,296.0,136.0,-32.0,-17.0,6.0,7080.0,-11835.0,-7244.0,5075.0,-284.0,118.0,219.0,1.0
2022-05-08 17:21:28.920495-07:00,686.4,755.4,759.6,1031.4,402.0,295.9,861.2,752.1,3468.6,3445.5,1169.1,758.7,586.7,3467.4,1135.7,862.9,3445.5,3445.5,390.3,310.5,331.3,320.5,270.6,291.3,3456.4,3461.3,479.8,405.1,486.9,918.6,849.5,457.7,7.0,-2.0,1.0,10428.0,-12456.0,1887.0,-983.0,-173.0,553.0,166.0,-1.0,20.0,-17.0,6981.0,-11955.0,-7189.0,5009.0,-361.0,141.0,222.0,1.0
2022-05-08 17:21:29.010409-07:00,689.7,764.5,752.9,1031.4,398.1,295.9,861.2,752.1,3468.6,3463.7,1183.2,758.7,584.3,3467.4,1135.7,862.9,3445.5,3445.5,390.3,311.3,331.3,321.3,271.4,283.6,3456.4,3461.3,479.8,402.8,486.9,919.4,826.9,455.3,-30.0,-86.0,5.0,10303.0,-12513.0,2110.0,-1130.0,-270.0,597.0,151.0,-20.0,-37.0,12.0,6826.0,-12107.0,-7133.0,4939.0,-295.0,85.0,372.0,1.0
2022-05-08 17:21:29.013740-07:00,689.7,764.5,752.9,1027.1,398.1,300.5,869.6,762.0,3468.6,3463.7,1183.2,751.3,584.3,3467.4,1140.1,866.3,3451.6,3440.7,385.6,311.3,327.5,321.3,271.4,283.6,3458.9,3452.8,483.0,402.8,486.1,919.4,826.9,455.3,13.0,-16.0,-27.0,10228.0,-12518.0,2343.0,-1276.0,13.0,646.0,241.0,12.0,9.0,-7.0,6735.0,-12207.0,-7013.0,4988.0,-69.0,-28.0,421.0,1.0
2022-05-08 17:21:29.014646-07:00,687.2,767.0,755.4,1027.1,398.9,300.5,869.6,762.0,3467.4,3461.3,1185.9,751.3,581.0,3467.4,1140.1,866.3,3451.6,3440.7,385.6,315.1,327.5,320.5,275.2,283.6,3458.9,3452.8,483.0,402.8,486.1,912.7,823.5,452.2,-7.0,6.0,-20.0,10183.0,-12493.0,2587.0,-1405.0,-222.0,470.0,175.0,15.0,-9.0,6.0,6624.0,-12306.0,-6915.0,5031.0,-239.0,-12.0,376.0,1.0
2022-05-08 17:21:29.015511-07:00,687.2,767.0,755.4,1026.3,396.5,296.7,887.3,775.3,3467.4,3461.3,1185.9,748.0,585.9,3472.2,1133.1,862.9,3449.1,3451.6,386.4,307.4,333.6,320.5,275.2,283.6,3464.9,3462.5,479.8,402.8,482.2,912.7,823.5,452.2,-4.0,12.0,-43.0,10131.0,-12494.0,2742.0,-1481.0,92.0,239.0,184.0,5.0,23.0,6.0,6558.0,-12354.0,-6815.0,5134.0,105.0,-141.0,349.0,1.0
2022-05-08 17:21:29.130176-07:00,687.2,764.5,748.8,1028.8,396.5,296.7,887.3,775.3,3472.2,3462.5,1186.7,754.6,585.9,3472.2,1133.1,862.9,3449.1,3451.6,386.4,307.4,331.3,322.1,271.4,287.5,3464.9,3462.5,479.8,402.8,481.4,907.6,810.2,452.2,-2.0,49.0,-22.0,10111.0,-12490.0,2831.0,-1476.0,-279.0,-7.0,58.0,16.0,25.0,2.0,6472.0,-12413.0,-6742.0,5199.0,-213.0,-42.0,278.0,1.0
2022-05-08 17:21:29.131227-07:00,687.2,764.5,748.8,1028.8,391.8,312.0,889.0,775.3,3472.2,3462.5,1186.7,754.6,580.2,3457.6,1134.9,873.0,3446.7,3441.9,387.2,314.4,331.3,322.1,271.4,287.5,3455.2,3449.1,484.5,405.9,481.4,907.6,810.2,452.2,17.0,-15.0,-14.0,10022.0,-12563.0,2848.0,-1431.0,-180.0,-32.0,110.0,6.0,24.0,-18.0,6374.0,-12480.0,-6691.0,5225.0,-85.0,-54.0,233.0,1.0
2022-05-08 17:21:29.161100-07:00,689.7,757.9,755.4,1025.4,391.8,312.0,889.0,775.3,3467.4,3457.6,1189.4,755.4,580.2,3457.6,1134.9,873.0,3446.7,3441.9,387.2,314.4,330.5,322.8,268.3,286.7,3455.2,3449.1,484.5,405.9,479.8,905.9,802.7,453.7,-8.0,30.0,17.0,9982.0,-12590.0,2901.0,-1373.0,-83.0,-53.0,163.0,15.0,13.0,25.0,6322.0,-12515.0,-6640.0,5269.0,12.0,-50.0,176.0,1.0
2022-05-08 17:21:29.250577-07:00,689.7,757.9,755.4,1025.4,395.0,299.0,885.6,771.1,3467.4,3457.6,1189.4,755.4,583.5,3473.4,1130.5,864.6,3439.5,3438.2,389.5,309.7,330.5,322.8,268.3,286.7,3454.0,3462.5,480.6,402.8,479.8,905.9,802.7,453.7,14.0,34.0,4.0,9971.0,-12595.0,2935.0,-1325.0,-83.0,23.0,73.0,11.0,28.0,-3.0,6300.0,-12531.0,-6602.0,5303.0,-42.0,-19.0,100.0,1.0
2022-05-08 17:21:29.252830-07:00,689.7,765.3,744.7,1020.2,395.0,299.0,885.6,771.1,3466.1,3468.6,1190.3,755.4,583.5,3473.4,1130.5,864.6,3439.5,3438.2,389.5,309.7,326.7,321.3,268.3,288.2,3454.0,3462.5,480.6,402.8,486.9,910.1,796.9,448.2,11.0,14.0,-13.0,9948.0,-12607.0,2964.0,-1320.0,0.0,23.0,34.0,9.0,16.0,-8.0,6287.0,-12545.0,-6582.0,5312.0,23.0,0.0,50.0,1.0
2022-05-08 17:21:29.341124-07:00,689.7,765.3,744.7,1020.2,394.2,295.9,884.8,765.3,3466.1,3468.6,1190.3,755.4,585.9,3462.5,1132.2,861.2,3438.2,3449.1,384.8,309.7,326.7,321.3,268.3,288.2,3457.6,3462.5,476.6,402.0,486.9,910.1,796.9,448.2,15.0,5.0,-11.0,9941.0,-12610.0,2972.0,-1324.0,-20.0,19.0,3.0,9.0,15.0,-17.0,6286.0,-12551.0,-6575.0,5307.0,-11.0,26.0,5.0,1.0
2022-05-08 17:21:29.370538-07:00,688.0,761.2,744.7,1025.4,394.2,295.9,884.8,765.3,3469.8,3479.5,1188.5,750.5,585.9,3462.5,1132.2,864.6,3446.7,3449.1,384.8,309.7,331.3,316.7,271.4,283.6,3460.1,3462.5,476.6,402.0,483.7,904.2,797.7,449.8,6.0,5.0,-10.0,9929.0,-12618.0,2977.0,-1327.0,-32.0,2.0,-5.0,7.0,9.0,-9.0,6284.0,-12558.0,-6574.0,5294.0,-23.0,23.0,2.0,1.0
2022-05-08 17:21:29.430609-07:00,693.8,761.2,744.7,1025.4,395.0,301.3,890.7,765.3,3467.4,3479.5,1188.5,750.5,582.6,3471.0,1131.4,864.6,3446.7,3443.1,394.2,307.4,331.3,316.7,271.4,287.5,3460.1,3472.2,476.6,408.2,483.7,904.2,797.7,450.6,0.0,2.0,-5.0,9920.0,-12626.0,2974.0,-1333.0,1.0,18.0,-24.0,9.0,5.0,4.0,6287.0,-12561.0,-6576.0,5281.0,16.0,23.0,-28.0,1.0
2022-05-08 17:21:29.460536-07:00,693.8,754.6,747.2,1032.3,395.0,301.3,890.7,770.3,3467.4,3463.7,1188.5,755.4,582.6,3471.0,1131.4,866.3,3446.7,3443.1,394.2,307.4,326.7,322.1,271.4,287.5,3461.3,3472.2,476.6,408.2,490.1,902.5,791.9,450.6,0.0,-4.0,-7.0,9922.0,-12625.0,2964.0,-1344.0,2.0,-4.0,-37.0,0.0,2.0,2.0,6298.0,-12553.0,-6589.0,5271.0,7.0,-2.0,-60.0,1.0
2022-05-08 17:21:29.521021-07:00,686.4,754.6,747.2,1032.3,396.5,297.4,881.4,770.3,3464.9,3463.7,1188.5,755.4,581.0,3468.6,1133.1,866.3,3446.7,3438.2,392.6,309.7,326.7,322.1,271.4,290.5,3461.3,3460.1,476.6,404.3,490.1,902.5,791.9,449.0,-6.0,7.0,-7.0,9937.0,-12618.0,2939.0,-1352.0,63.0,-41.0,-62.0,3.0,12.0,2.0,6320.0,-12531.0,-6610.0,5269.0,28.0,-9.0,-81.0,1.0
2022-05-08 17:21:29.550637-07:00,686.4,757.9,748.8,1028.8,396.5,297.4,881.4,764.5,3464.9,3462.5,1185.0,755.4,581.0,3468.6,1133.1,860.4,3444.3,3438.2,392.6,309.7,331.3,319.7,265.3,290.5,3456.4,3460.1,476.6,404.3,475.8,898.3,791.9,449.0,-8.0,1.0,-5.0,9953.0,-12613.0,2904.0,-1357.0,43.0,-24.0,-55.0,1.0,2.0,12.0,6335.0,-12515.0,-6632.0,5264.0,21.0,-6.0,-95.0,1.0
