Time,P0,P1,P2,P3,P4,P5,P6,P7,P8,P9,P10,P11,P12,P13,P14,P15,P16,P17,P18,P19,P20,P21,P22,P23,P24,P25,P26,P27,P28,P29,P30,P31,ECG,AX0,AY0,AZ0,QW0,QX0,QY0,QZ0,GX0,GY0,GZ0,AX1,AY1,AZ1,QW1,QX1,QY1,QZ1,GX1,GY1,GZ1
2022-05-13 15:01:01.196247-07:00,1861.5,549.0,1059.9,1286.4,878.0,1102.5,1179.7,1239.1,3443.1,3439.5,1493.0,1291.8,1288.2,3449.1,971.3,1397.6,3431.0,3438.2,692.1,1360.3,918.6,584.3,1227.5,1653.9,3437.0,3449.1,653.8,890.7,1240.8,1315.1,1147.1,968.8,-9.0,8.0,-2.0,5433.0,7303.0,-11110.0,-7883.0,32.0,43.0,-44.0,-4.0,-2.0,8.0,8603.0,7722.0,9057.0,7263.0,21.0,45.0,-23.0,1.0
2022-05-13 15:01:01.468413-07:00,1875.2,549.8,1054.8,1281.9,888.2,1099.0,1174.4,1230.2,3439.5,3432.2,1488.4,1292.7,1291.8,3447.9,982.5,1389.4,3437.0,3438.2,695.4,1356.7,921.1,585.9,1230.2,1648.3,3437.0,3440.7,647.3,885.6,1231.0,1326.8,1141.9,961.1,7.0,1.0,8.0,5417.0,7300.0,-11122.0,-7880.0,-6.0,-9.0,10.0,8.0,-4.0,9.0,8606.0,7726.0,9063.0,7249.0,1.0,-9.0,3.0,1.0
2022-05-13 15:01:01.468957-07:00,1855.7,546.6,1054.8,1281.9,885.6,1098.2,1174.4,1230.2,3444.3,3433.4,1488.4,1292.7,1290.0,3440.7,982.5,1389.4,3437.0,3438.2,692.1,1361.2,921.1,585.9,1223.9,1649.2,3437.0,3440.7,648.9,892.4,1231.0,1326.8,1139.2,965.4,3.0,12.0,11.0,5419.0,7298.0,-11123.0,-7879.0,-5.0,-10.0,6.0,4.0,0.0,16.0,8607.0,7725.0,9061.0,7251.0,-9.0,1.0,2.0,1.0
2022-05-13 15:01:01.470471-07:00,1855.7,546.6,1055.6,1292.7,885.6,1098.2,1179.7,1235.5,3444.3,3433.4,1490.3,1292.7,1290.0,3440.7,978.2,1393.0,3439.5,3434.6,692.1,1361.2,919.4,585.1,1223.9,1649.2,3439.5,3438.2,648.9,892.4,1232.8,1318.7,1139.2,965.4,1.0,6.0,10.0,5421.0,7295.0,-11121.0,-7884.0,-2.0,12.0,-4.0,1.0,-4.0,14.0,8610.0,7722.0,9057.0,7255.0,-2.0,14.0,0.0,1.0
2022-05-13 15:01:01.601417-07:00,1845.0,553.0,1056.5,1285.5,885.6,1102.5,1181.5,1244.4,3437.0,3433.4,1491.2,1291.8,1286.4,3438.2,974.8,1399.4,3433.4,3432.2,698.7,1360.3,916.9,585.9,1228.4,1653.9,3439.5,3441.9,653.8,889.0,1239.1,1321.4,1140.1,966.2,-11.0,10.0,-2.0,5431.0,7306.0,-11111.0,-7881.0,-5.0,-12.0,-4.0,-10.0,1.0,10.0,8606.0,7713.0,9059.0,7267.0,7.0,-9.0,-5.0,1.0
2022-05-13 15:01:01.963291-07:00,1845.0,553.0,1056.5,1283.7,885.6,1104.3,1182.3,1241.7,3437.0,3433.4,1491.2,1298.1,1286.4,3440.7,970.5,1394.8,3444.3,3429.8,695.4,1360.3,911.8,585.9,1228.4,1653.9,3443.1,3439.5,648.9,889.0,1239.1,1321.4,1140.1,966.2,-3.0,0.0,3.0,5426.0,7305.0,-11113.0,-7882.0,12.0,-4.0,6.0,-5.0,-4.0,6.0,8606.0,7714.0,9061.0,7264.0,16.0,-6.0,-2.0,1.0
2022-05-13 15:01:01.964593-07:00,1845.0,553.0,1056.5,1283.7,885.6,1104.3,1182.3,1241.7,3437.0,3433.4,1491.2,1298.1,1286.4,3440.7,970.5,1394.8,3444.3,3429.8,695.4,1360.3,911.8,585.9,1228.4,1653.9,3443.1,3439.5,648.9,889.0,1239.1,1321.4,1140.1,966.2,-3.0,0.0,3.0,5426.0,7305.0,-11113.0,-7882.0,12.0,-4.0,6.0,-5.0,-4.0,6.0,8606.0,7714.0,9061.0,7264.0,16.0,-6.0,-2.0,1.0
2022-05-13 15:01:02.142719-07:00,1856.7,545.0,1059.9,1287.3,880.6,1105.1,1176.2,1240.8,3444.3,3438.2,1487.5,1298.1,1294.5,3441.9,977.3,1397.6,3428.6,3433.4,694.6,1358.5,921.1,583.5,1231.0,1654.9,3449.1,3443.1,639.2,889.8,1231.0,1316.0,1141.9,963.7,0.0,1.0,-4.0,5431.0,7301.0,-11114.0,-7882.0,-9.0,14.0,-2.0,2.0,1.0,5.0,8605.0,7710.0,9060.0,7272.0,1.0,12.0,-1.0,1.0
2022-05-13 15:01:02.143375-07:00,1856.7,545.0,1059.9,1287.3,887.3,1094.7,1170.9,1249.7,3444.3,3438.2,1487.5,1298.1,1296.3,3450.4,966.2,1399.4,3435.8,3444.3,692.1,1360.3,921.1,583.5,1231.0,1654.9,3444.3,3451.6,644.0,892.4,1231.0,1316.0,1141.9,963.7,-1.0,6.0,-6.0,5431.0,7302.0,-11113.0,-7881.0,12.0,-16.0,2.0,0.0,2.0,2.0,8605.0,7709.0,9060.0,7272.0,5.0,-4.0,-3.0,1.0
2022-05-13 15:01:02.145800-07:00,1859.6,545.0,1055.6,1289.1,887.3,1094.7,1170.9,1249.7,3443.1,3443.1,1492.1,1296.3,1296.3,3450.4,966.2,1399.4,3435.8,3444.3,692.1,1360.3,921.1,585.9,1233.7,1651.1,3444.3,3451.6,644.0,892.4,1236.4,1329.6,1141.0,969.6,-1.0,0.0,3.0,5426.0,7298.0,-11116.0,-7884.0,-6.0,-20.0,4.0,0.0,-1.0,11.0,8607.0,7711.0,9058.0,7271.0,-6.0,-7.0,-3.0,1.0
2022-05-13 15:01:02.146162-07:00,1850.8,545.0,1055.6,1289.1,894.1,1098.2,1177.0,1240.8,3444.3,3443.1,1492.1,1296.3,1290.9,3444.3,974.8,1400.3,3434.6,3439.5,693.8,1363.0,921.1,585.9,1233.7,1651.1,3443.1,3446.7,648.9,889.0,1236.4,1329.6,1141.0,966.2,0.0,4.0,5.0,5427.0,7297.0,-11115.0,-7886.0,8.0,-1.0,1.0,4.0,-3.0,8.0,8605.0,7708.0,9059.0,7274.0,7.0,3.0,-3.0,1.0
2022-05-13 15:01:02.186352-07:00,1854.7,545.8,1057.3,1287.3,881.4,1099.0,1177.9,1240.8,3445.5,3432.2,1493.0,1291.8,1297.2,3441.9,972.2,1397.6,3445.5,3445.5,701.1,1363.9,924.5,584.3,1229.3,1643.5,3437.0,3444.3,646.5,889.8,1230.2,1325.9,1141.0,967.9,4.0,1.0,1.0,5427.0,7297.0,-11115.0,-7886.0,9.0,1.0,3.0,5.0,-2.0,10.0,8604.0,7709.0,9060.0,7273.0,9.0,3.0,0.0,1.0
2022-05-13 15:01:02.189146-07:00,1863.5,553.8,1057.3,1287.3,878.0,1092.9,1177.9,1240.8,3438.2,3444.3,1493.0,1291.8,1287.3,3438.2,972.2,1397.6,3445.5,3445.5,699.5,1351.2,924.5,584.3,1231.9,1654.9,3437.0,3444.3,648.1,889.0,1230.2,1325.9,1134.9,963.7,3.0,8.0,1.0,5427.0,7297.0,-11115.0,-7886.0,1.0,-1.0,6.0,2.0,1.0,8.0,8604.0,7709.0,9060.0,7273.0,4.0,4.0,3.0,1.0
2022-05-13 15:01:02.231333-07:00,1859.6,545.8,1052.2,1290.9,882.3,1101.7,1177.0,1241.7,3439.5,3438.2,1490.3,1295.4,1303.4,3440.7,972.2,1394.8,3439.5,3439.5,695.4,1356.7,917.7,589.1,1231.9,1644.5,3446.7,3444.3,644.9,890.7,1234.6,1321.4,1143.6,967.1,-3.0,5.0,1.0,5427.0,7297.0,-11115.0,-7886.0,9.0,-3.0,2.0,-2.0,1.0,13.0,8603.0,7711.0,9061.0,7272.0,13.0,3.0,-4.0,1.0
2022-05-13 15:01:02.321503-07:00,1859.6,545.8,1063.4,1282.8,882.3,1097.3,1180.6,1240.8,3439.5,3438.2,1490.3,1291.8,1303.4,3438.2,969.6,1399.4,3435.8,3428.6,700.3,1356.7,924.5,583.5,1231.9,1644.5,3441.9,3443.1,645.7,890.7,1239.1,1322.3,1143.6,967.1,0.0,-4.0,6.0,5424.0,7299.0,-11118.0,-7882.0,8.0,7.0,-2.0,1.0,-4.0,10.0,8599.0,7712.0,9064.0,7270.0,5.0,11.0,-1.0,1.0
2022-05-13 15:01:02.323681-07:00,1858.6,553.0,1057.3,1282.8,889.0,1097.3,1180.6,1240.8,3437.0,3440.7,1488.4,1291.8,1291.8,3438.2,969.6,1399.4,3435.8,3428.6,700.3,1358.5,924.5,585.9,1231.0,1653.9,3441.9,3443.1,645.7,891.5,1239.1,1334.1,1138.4,969.6,4.0,6.0,-5.0,5428.0,7301.0,-11118.0,-7877.0,7.0,10.0,5.0,3.0,0.0,4.0,8596.0,7712.0,9067.0,7271.0,8.0,7.0,3.0,1.0
2022-05-13 15:01:02.593271-07:00,1858.6,553.0,1057.3,1288.2,889.0,1097.3,1184.1,1231.0,3437.0,3440.7,1488.4,1297.2,1291.8,3438.2,969.6,1397.6,3443.1,3449.1,697.9,1358.5,919.4,585.9,1231.0,1653.9,3445.5,3444.3,650.5,891.5,1231.0,1334.1,1138.4,969.6,3.0,1.0,-3.0,5428.0,7302.0,-11118.0,-7877.0,0.0,-1.0,7.0,4.0,2.0,5.0,8596.0,7711.0,9067.0,7271.0,7.0,3.0,3.0,1.0
2022-05-13 15:01:02.638038-07:00,1855.7,543.4,1054.8,1288.2,881.4,1097.3,1184.1,1231.0,3438.2,3439.5,1484.7,1297.2,1299.8,3438.2,969.6,1397.6,3443.1,3449.1,697.9,1360.3,919.4,579.4,1225.7,1654.9,3445.5,3444.3,650.5,890.7,1231.0,1325.9,1149.8,964.5,-1.0,5.0,6.0,5428.0,7302.0,-11118.0,-7877.0,2.0,-8.0,5.0,1.0,0.0,14.0,8596.0,7711.0,9067.0,7271.0,2.0,-6.0,2.0,1.0
2022-05-13 15:01:02.728146-07:00,1855.7,543.4,1054.8,1284.6,881.4,1098.2,1174.4,1242.6,3438.2,3439.5,1484.7,1294.5,1299.8,3439.5,972.2,1397.6,3438.2,3439.5,698.7,1360.3,923.7,579.4,1225.7,1654.9,3438.2,3440.7,646.5,890.7,1239.1,1325.9,1149.8,964.5,0.0,3.0,4.0,5428.0,7301.0,-11118.0,-7877.0,6.0,-3.0,4.0,3.0,-3.0,13.0,8595.0,7712.0,9067.0,7271.0,9.0,5.0,1.0,1.0
2022-05-13 15:01:02.728600-07:00,1851.8,549.8,1062.5,1287.3,877.2,1098.2,1174.4,1242.6,3440.7,3440.7,1483.8,1293.6,1297.2,3439.5,972.2,1397.6,3438.2,3439.5,698.7,1364.8,912.7,585.9,1231.0,1653.0,3438.2,3440.7,646.5,891.5,1233.7,1313.3,1139.2,971.3,-2.0,3.0,2.0,5429.0,7304.0,-11118.0,-7873.0,9.0,15.0,4.0,2.0,-1.0,9.0,8590.0,7713.0,9072.0,7270.0,12.0,11.0,-1.0,1.0
2022-05-13 15:01:02.729762-07:00,1851.8,549.8,1062.5,1287.3,891.5,1098.2,1179.7,1239.9,3440.7,3440.7,1483.8,1293.6,1290.0,3449.1,973.1,1401.2,3434.6,3444.3,699.5,1364.8,912.7,585.9,1231.0,1653.0,3441.9,3441.9,653.8,884.8,1233.7,1313.3,1139.2,971.3,1.0,1.0,-4.0,5430.0,7308.0,-11119.0,-7869.0,11.0,10.0,1.0,3.0,0.0,8.0,8585.0,7713.0,9077.0,7269.0,10.0,7.0,-1.0,1.0
2022-05-13 15:01:02.731219-07:00,1851.8,545.0,1063.4,1292.7,886.5,1102.5,1183.2,1237.3,3444.3,3441.9,1490.3,1295.4,1292.7,3443.1,973.1,1396.7,3439.5,3438.2,699.5,1360.3,922.0,585.1,1231.9,1653.0,3440.7,3438.2,655.4,888.2,1230.2,1325.0,1138.4,966.2,3.0,4.0,0.0,5431.0,7307.0,-11119.0,-7868.0,-6.0,-5.0,3.0,4.0,-1.0,13.0,8584.0,7714.0,9078.0,7268.0,0.0,-2.0,1.0,1.0
2022-05-13 15:01:02.906392-07:00,1856.7,549.8,1055.6,1293.6,886.5,1102.5,1183.2,1237.3,3441.9,3440.7,1490.3,1299.8,1292.7,3443.1,973.1,1396.7,3439.5,3438.2,699.5,1360.3,921.1,584.3,1231.9,1652.0,3440.7,3438.2,655.4,888.2,1235.5,1332.3,1137.5,966.2,4.0,3.0,6.0,5430.0,7307.0,-11120.0,-7869.0,2.0,-4.0,-4.0,4.0,-4.0,9.0,8584.0,7714.0,9078.0,7268.0,4.0,0.0,-4.0,1.0
2022-05-13 15:01:02.907402-07:00,1856.7,549.8,1055.6,1293.6,886.5,1102.5,1183.2,1237.3,3441.9,3440.7,1490.3,1299.8,1292.7,3443.1,973.1,1396.7,3439.5,3438.2,699.5,1360.3,921.1,584.3,1231.9,1652.0,3440.7,3438.2,655.4,888.2,1235.5,1332.3,1137.5,966.2,4.0,3.0,6.0,5430.0,7307.0,-11120.0,-7869.0,2.0,-4.0,-4.0,4.0,-4.0,9.0,8584.0,7714.0,9078.0,7268.0,4.0,0.0,-4.0,1.0
2022-05-13 15:01:02.951483-07:00,1852.8,546.6,1061.7,1291.8,883.9,1099.9,1172.6,1230.2,3443.1,3447.9,1487.5,1295.4,1297.2,3439.5,971.3,1395.7,3438.2,3439.5,695.4,1356.7,920.3,580.2,1229.3,1653.0,3438.2,3444.3,652.2,884.8,1239.1,1317.8,1141.0,973.9,1.0,0.0,0.0,5430.0,7307.0,-11120.0,-7868.0,7.0,10.0,-2.0,-1.0,-2.0,7.0,8584.0,7714.0,9078.0,7268.0,7.0,4.0,-5.0,1.0
2022-05-13 15:01:03.131646-07:00,1857.6,546.6,1061.7,1291.8,881.4,1103.4,1181.5,1230.2,3435.8,3447.9,1487.5,1295.4,1289.1,3441.9,972.2,1395.7,3438.2,3445.5,692.1,1354.9,920.3,580.2,1229.3,1653.9,3438.2,3444.3,643.2,890.7,1239.1,1317.8,1141.0,967.1,0.0,5.0,-2.0,5430.0,7307.0,-11120.0,-7868.0,-2.0,-3.0,-3.0,1.0,-1.0,4.0,8584.0,7715.0,9078.0,7268.0,3.0,2.0,-5.0,1.0
2022-05-13 15:01:03.132842-07:00,1857.6,550.6,1058.2,1288.2,881.4,1103.4,1181.5,1246.2,3435.8,3446.7,1491.2,1294.5,1289.1,3441.9,972.2,1395.7,3433.4,3445.5,692.1,1354.9,922.0,581.8,1228.4,1653.9,3446.7,3444.3,643.2,890.7,1231.0,1325.0,1137.5,967.1,2.0,2.0,-3.0,5429.0,7306.0,-11121.0,-7869.0,2.0,-13.0,-1.0,4.0,1.0,6.0,8584.0,7715.0,9078.0,7268.0,1.0,-5.0,-5.0,1.0
2022-05-13 15:01:03.177525-07:00,1857.6,550.6,1058.2,1288.2,886.5,1100.8,1176.2,1246.2,3438.2,3446.7,1491.2,1294.5,1307.9,3437.0,976.5,1395.7,3433.4,3435.8,694.6,1354.9,922.0,581.8,1228.4,1653.0,3446.7,3445.5,645.7,889.8,1231.0,1325.0,1137.5,969.6,0.0,0.0,1.0,5430.0,7306.0,-11120.0,-7870.0,-5.0,-8.0,-1.0,1.0,-2.0,9.0,8584.0,7715.0,9078.0,7268.0,-6.0,-5.0,-3.0,1.0
2022-05-13 15:01:03.222499-07:00,1857.6,545.8,1056.5,1288.2,886.5,1100.8,1176.2,1237.3,3438.2,3435.8,1507.8,1290.9,1307.9,3437.0,976.5,1394.8,3434.6,3435.8,694.6,1354.9,921.1,583.5,1231.0,1653.0,3432.2,3445.5,645.7,889.8,1229.3,1325.9,1137.5,969.6,-1.0,5.0,2.0,5428.0,7305.0,-11120.0,-7871.0,-8.0,-2.0,0.0,0.0,0.0,14.0,8584.0,7715.0,9078.0,7268.0,-3.0,-4.0,-2.0,1.0
2022-05-13 15:01:03.446481-07:00,1861.5,553.0,1056.5,1288.2,880.6,1096.4,1173.5,1237.3,3441.9,3437.0,1507.8,1290.9,1291.8,3439.5,977.3,1394.8,3434.6,3437.0,699.5,1364.8,921.1,583.5,1227.5,1649.2,3432.2,3443.1,648.9,890.7,1229.3,1325.9,1147.1,970.5,0.0,2.0,2.0,5428.0,7305.0,-11120.0,-7871.0,-5.0,-3.0,2.0,0.0,-1.0,10.0,8584.0,7715.0,9078.0,7268.0,-1.0,-3.0,-3.0,1.0
2022-05-13 15:01:03.491531-07:00,1861.5,553.0,1055.6,1288.2,880.6,1096.4,1176.2,1239.9,3441.9,3437.0,1494.0,1290.9,1291.8,3439.5,974.8,1398.5,3435.8,3431.0,699.5,1364.8,918.6,578.6,1227.5,1649.2,3450.4,3440.7,648.9,890.7,1239.9,1324.1,1147.1,970.5,-1.0,-1.0,-1.0,5429.0,7305.0,-11119.0,-7871.0,-8.0,4.0,3.0,1.0,-6.0,7.0,8584.0,7715.0,9078.0,7268.0,0.0,0.0,1.0,1.0
2022-05-13 15:01:03.493015-07:00,1864.5,545.8,1048.7,1292.7,883.1,1098.2,1174.4,1239.1,3437.0,3444.3,1481.0,1291.8,1292.7,3434.6,967.1,1389.4,3429.8,3434.6,701.1,1358.5,918.6,585.1,1227.5,1654.9,3433.4,3441.9,646.5,891.5,1234.6,1325.0,1137.5,962.8,1.0,6.0,-2.0,5429.0,7304.0,-11120.0,-7872.0,-7.0,-9.0,0.0,5.0,-2.0,9.0,8584.0,7715.0,9078.0,7268.0,1.0,-3.0,0.0,1.0
2022-05-13 15:01:03.811945-07:00,1859.6,557.0,1048.7,1292.7,887.3,1099.9,1174.4,1239.1,3439.5,3440.7,1481.0,1291.8,1289.1,3445.5,967.1,1389.4,3429.8,3434.6,698.7,1382.1,918.6,585.1,1230.2,1650.2,3433.4,3441.9,653.8,891.5,1234.6,1325.0,1144.5,953.4,3.0,3.0,2.0,5426.0,7302.0,-11121.0,-7875.0,-2.0,-13.0,4.0,3.0,0.0,8.0,8584.0,7715.0,9078.0,7268.0,-2.0,-4.0,-1.0,1.0
2022-05-13 15:01:03.852994-07:00,1859.6,557.0,1059.9,1289.1,887.3,1099.0,1173.5,1231.0,3439.5,3440.7,1488.4,1297.2,1289.1,3440.7,977.3,1395.7,3435.8,3439.5,694.6,1382.1,924.5,581.8,1230.2,1650.2,3440.7,3449.1,649.7,891.5,1233.7,1326.8,1144.5,953.4,0.0,5.0,1.0,5424.0,7301.0,-11122.0,-7876.0,-5.0,-3.0,0.0,0.0,-2.0,12.0,8584.0,7715.0,9078.0,7268.0,-1.0,-5.0,-1.0,1.0
2022-05-13 15:01:03.854511-07:00,1858.6,557.0,1062.5,1290.9,879.7,1106.9,1177.0,1239.1,3439.5,3444.3,1494.9,1295.4,1297.2,3439.5,972.2,1393.9,3440.7,3428.6,699.5,1357.6,922.8,583.5,1227.5,1652.0,3451.6,3440.7,644.0,893.2,1236.4,1321.4,1158.6,965.4,0.0,0.0,8.0,5421.0,7301.0,-11124.0,-7874.0,5.0,3.0,5.0,0.0,-4.0,13.0,8584.0,7714.0,9079.0,7267.0,6.0,4.0,-1.0,1.0
2022-05-13 15:01:03.856150-07:00,1865.4,550.6,1055.6,1290.9,878.0,1106.9,1177.0,1239.1,3444.3,3445.5,1489.3,1295.4,1298.1,3439.5,972.2,1393.9,3440.7,3428.6,699.5,1368.5,922.8,575.4,1229.3,1654.9,3451.6,3440.7,644.0,889.8,1236.4,1324.1,1144.5,962.8,0.0,7.0,-2.0,5421.0,7301.0,-11124.0,-7874.0,1.0,6.0,-3.0,4.0,-3.0,9.0,8584.0,7714.0,9079.0,7267.0,7.0,7.0,-5.0,1.0
2022-05-13 15:01:03.856381-07:00,1865.4,550.6,1055.6,1290.9,878.0,1106.9,1177.0,1239.1,3444.3,3445.5,1489.3,1295.4,1298.1,3439.5,972.2,1393.9,3440.7,3428.6,699.5,1368.5,922.8,575.4,1229.3,1654.9,3451.6,3440.7,644.0,889.8,1236.4,1324.1,1144.5,962.8,0.0,7.0,-2.0,5421.0,7301.0,-11124.0,-7874.0,1.0,6.0,-3.0,4.0,-3.0,9.0,8584.0,7714.0,9079.0,7267.0,7.0,7.0,-5.0,1.0
2022-05-13 15:01:03.942057-07:00,1856.7,546.6,1048.7,1296.3,876.4,1098.2,1177.0,1240.8,3440.7,3444.3,1481.0,1297.2,1296.3,3438.2,977.3,1396.7,3433.4,3435.8,697.9,1358.5,922.8,589.1,1233.7,1649.2,3441.9,3450.4,648.1,894.1,1236.4,1324.1,1141.9,962.8,1.0,4.0,3.0,5416.0,7296.0,-11125.0,-7880.0,-1.0,-11.0,1.0,3.0,-1.0,9.0,8589.0,7716.0,9074.0,7265.0,-1.0,-11.0,5.0,1.0
2022-05-13 15:01:04.166996-07:00,1856.7,545.0,1059.1,1290.0,876.4,1098.2,1177.0,1235.5,3440.7,3449.1,1487.5,1293.6,1296.3,3438.2,977.3,1391.2,3432.2,3435.8,697.9,1358.5,918.6,581.0,1229.3,1649.2,3433.4,3450.4,648.1,894.1,1233.7,1327.8,1147.1,962.8,0.0,7.0,5.0,5414.0,7295.0,-11126.0,-7882.0,-12.0,2.0,0.0,0.0,1.0,14.0,8589.0,7716.0,9074.0,7265.0,-6.0,-4.0,1.0,1.0
2022-05-13 15:01:04.753947-07:00,1857.6,545.0,1059.1,1290.0,887.3,1093.8,1167.4,1235.5,3438.2,3449.1,1487.5,1293.6,1291.8,3449.1,980.7,1391.2,3432.2,3439.5,695.4,1361.2,918.6,581.0,1229.3,1656.8,3433.4,3440.7,654.6,893.2,1233.7,1327.8,1147.1,966.2,0.0,0.0,2.0,5415.0,7294.0,-11125.0,-7882.0,0.0,4.0,-3.0,3.0,0.0,10.0,8589.0,7716.0,9074.0,7265.0,0.0,4.0,2.0,1.0
2022-05-13 15:01:04.798823-07:00,1857.6,544.2,1056.5,1275.6,887.3,1093.8,1167.4,1241.7,3438.2,3438.2,1490.3,1291.8,1291.8,3449.1,980.7,1394.8,3439.5,3439.5,695.4,1361.2,923.7,581.0,1233.7,1656.8,3438.2,3440.7,654.6,893.2,1239.1,1328.7,1140.1,966.2,3.0,3.0,2.0,5415.0,7294.0,-11125.0,-7882.0,1.0,8.0,0.0,3.0,-1.0,7.0,8589.0,7716.0,9074.0,7265.0,-3.0,2.0,2.0,1.0
2022-05-13 15:01:04.799823-07:00,1848.9,543.4,1056.5,1275.6,882.3,1097.3,1174.4,1241.7,3431.0,3438.2,1490.3,1291.8,1289.1,3443.1,973.1,1394.8,3439.5,3437.0,696.2,1357.6,923.7,581.0,1231.9,1650.2,3438.2,3439.5,646.5,905.0,1239.1,1328.7,1155.0,962.0,-2.0,10.0,3.0,5413.0,7295.0,-11127.0,-7880.0,13.0,-8.0,-1.0,-5.0,-3.0,10.0,8589.0,7716.0,9074.0,7265.0,6.0,-2.0,-5.0,1.0
2022-05-13 15:01:04.800937-07:00,1848.9,543.4,1051.3,1288.2,882.3,1097.3,1174.4,1248.8,3431.0,3438.2,1493.0,1299.8,1289.1,3443.1,973.1,1395.7,3443.1,3446.7,696.2,1357.6,916.0,584.3,1231.9,1650.2,3437.0,3449.1,646.5,905.0,1235.5,1315.1,1155.0,962.0,0.0,0.0,4.0,5412.0,7296.0,-11128.0,-7879.0,2.0,5.0,0.0,0.0,-1.0,8.0,8589.0,7716.0,9074.0,7265.0,-1.0,4.0,-1.0,1.0
2022-05-13 15:01:04.801198-07:00,1848.9,543.4,1051.3,1288.2,882.3,1097.3,1174.4,1248.8,3431.0,3438.2,1493.0,1299.8,1289.1,3443.1,973.1,1395.7,3443.1,3446.7,696.2,1357.6,916.0,584.3,1231.9,1650.2,3437.0,3449.1,646.5,905.0,1235.5,1315.1,1155.0,962.0,0.0,0.0,4.0,5412.0,7296.0,-11128.0,-7879.0,2.0,5.0,0.0,0.0,-1.0,8.0,8589.0,7716.0,9074.0,7265.0,-1.0,4.0,-1.0,1.0
2022-05-13 15:01:04.801424-07:00,1848.9,543.4,1051.3,1288.2,882.3,1097.3,1174.4,1248.8,3431.0,3438.2,1493.0,1299.8,1289.1,3443.1,973.1,1395.7,3443.1,3446.7,696.2,1357.6,916.0,584.3,1231.9,1650.2,3437.0,3449.1,646.5,905.0,1235.5,1315.1,1155.0,962.0,0.0,0.0,4.0,5412.0,7296.0,-11128.0,-7879.0,2.0,5.0,0.0,0.0,-1.0,8.0,8589.0,7716.0,9074.0,7265.0,-1.0,4.0,-1.0,1.0
2022-05-13 15:01:04.843864-07:00,1978.6,543.4,1064.3,1286.4,885.6,1119.1,1400.3,1380.3,3444.3,3445.5,1458.9,1290.9,1290.9,3450.4,978.2,1396.7,3434.6,3441.9,724.9,1571.1,1028.0,647.3,1264.9,1653.0,3439.5,3454.0,708.5,913.5,1239.1,1317.8,1135.7,967.9,-32.0,28.0,-62.0,9445.0,3867.0,-11740.0,-5142.0,9.0,104.0,88.0,2.0,-4.0,0.0,6855.0,8931.0,9533.0,7127.0,25.0,-47.0,-45.0,1.0
2022-05-13 15:01:04.888149-07:00,1974.6,547.4,1061.7,1282.8,885.6,1119.1,1400.3,1393.9,3431.0,3438.2,1471.8,1288.2,1290.9,3450.4,978.2,1398.5,3438.2,3441.9,724.9,1571.1,1035.7,655.4,1267.6,1645.4,3443.1,3454.0,708.5,913.5,1233.7,1316.9,1137.5,958.5,-22.0,26.0,-12.0,9437.0,3849.0,-11748.0,-5153.0,-9.0,-97.0,-12.0,4.0,-19.0,15.0,6865.0,8946.0,9542.0,7086.0,91.0,-76.0,-37.0,1.0
2022-05-13 15:01:04.978291-07:00,1970.7,547.4,1061.7,1282.8,889.8,1113.0,1404.9,1393.9,3441.9,3438.2,1471.8,1288.2,1298.1,3438.2,974.8,1398.5,3438.2,3435.8,726.6,1562.7,1035.7,655.4,1267.6,1652.0,3443.1,3440.7,701.1,912.7,1233.7,1316.9,1137.5,961.1,-34.0,61.0,3.0,9445.0,3834.0,-11757.0,-5128.0,6.0,77.0,102.0,-23.0,3.0,29.0,6869.0,8954.0,9542.0,7073.0,-47.0,-16.0,26.0,1.0
2022-05-13 15:01:05.069127-07:00,1970.7,548.2,1057.3,1290.9,889.8,1113.0,1404.9,1390.3,3441.9,3440.7,1467.2,1289.1,1298.1,3438.2,974.8,1397.6,3439.5,3435.8,726.6,1562.7,1035.7,660.3,1261.3,1652.0,3441.9,3440.7,701.1,912.7,1231.9,1319.6,1140.1,961.1,-43.0,34.0,-21.0,9467.0,3841.0,-11732.0,-5140.0,37.0,29.0,-44.0,-10.0,-7.0,38.0,6889.0,8943.0,9528.0,7086.0,56.0,0.0,-24.0,1.0
2022-05-13 15:01:05.158617-07:00,1979.6,548.2,1057.3,1290.9,886.5,1124.4,1395.7,1390.3,3445.5,3440.7,1467.2,1289.1,1298.1,3438.2,975.6,1397.6,3439.5,3438.2,721.6,1557.1,1035.7,660.3,1261.3,1658.7,3441.9,3449.1,695.4,906.7,1231.9,1319.6,1140.1,967.1,-1.0,24.0,-8.0,9433.0,3888.0,-11753.0,-5119.0,183.0,12.0,-4.0,6.0,-10.0,-13.0,6866.0,8951.0,9564.0,7050.0,128.0,20.0,-37.0,1.0
2022-05-13 15:01:05.159174-07:00,1979.6,553.0,1066.9,1289.1,886.5,1124.4,1395.7,1373.9,3445.5,3440.7,1460.8,1289.1,1298.1,3438.2,975.6,1395.7,3437.0,3438.2,721.6,1557.1,1028.8,657.9,1260.4,1658.7,3438.2,3449.1,695.4,906.7,1230.2,1316.0,1138.4,967.1,-15.0,3.0,-11.0,9449.0,3921.0,-11735.0,-5107.0,-39.0,114.0,-42.0,13.0,-10.0,-3.0,6869.0,8941.0,9566.0,7057.0,-95.0,17.0,-3.0,1.0
2022-05-13 15:01:05.159525-07:00,1975.6,553.0,1066.9,1289.1,888.2,1106.0,1395.7,1373.9,3445.5,3440.7,1460.8,1289.1,1290.0,3434.6,973.9,1395.7,3437.0,3433.4,727.4,1544.1,1028.8,657.9,1260.4,1657.7,3438.2,3446.7,699.5,906.7,1230.2,1316.0,1138.4,967.1,-15.0,-1.0,-14.0,9449.0,3961.0,-11723.0,-5102.0,85.0,9.0,-15.0,-3.0,2.0,8.0,6873.0,8931.0,9569.0,7063.0,49.0,22.0,-24.0,1.0
2022-05-13 15:01:05.247065-07:00,1975.6,552.2,1059.9,1285.5,888.2,1106.0,1390.3,1386.6,3445.5,3434.6,1461.7,1289.1,1290.0,3434.6,970.5,1397.6,3433.4,3432.2,727.4,1544.1,1025.4,646.5,1256.9,1657.7,3449.1,3443.1,699.5,906.7,1237.3,1316.0,1135.7,967.1,-10.0,21.0,-21.0,9425.0,3964.0,-11750.0,-5082.0,-3.0,-75.0,33.0,4.0,7.0,-12.0,6859.0,8936.0,9580.0,7054.0,12.0,9.0,7.0,1.0
2022-05-13 15:01:05.339757-07:00,1972.7,545.8,1059.9,1285.5,884.8,1108.6,1390.3,1386.6,3449.1,3443.1,1461.7,1289.1,1297.2,3438.2,970.5,1397.6,3433.4,3432.2,715.9,1553.4,1025.4,646.5,1251.5,1653.0,3449.1,3443.1,694.6,906.7,1237.3,1316.0,1133.1,966.2,-5.0,11.0,-6.0,9434.0,3958.0,-11744.0,-5083.0,-14.0,76.0,-10.0,1.0,3.0,-1.0,6864.0,8933.0,9577.0,7058.0,-47.0,8.0,8.0,1.0
2022-05-13 15:01:05.520789-07:00,1972.7,545.8,1054.8,1290.0,884.8,1108.6,1393.9,1372.1,3449.1,3443.1,1463.5,1283.7,1297.2,3438.2,969.6,1397.6,3440.7,3439.5,715.9,1553.4,1023.7,648.1,1251.5,1653.0,3449.1,3444.3,694.6,906.7,1231.0,1321.4,1133.1,966.2,-19.0,13.0,-21.0,9434.0,3983.0,-11742.0,-5068.0,89.0,-21.0,1.0,0.0,4.0,11.0,6869.0,8927.0,9570.0,7068.0,15.0,6.0,-5.0,1.0
2022-05-13 15:01:05.521870-07:00,1968.7,537.0,1054.8,1290.0,878.0,1107.8,1393.9,1372.1,3429.8,3441.9,1463.5,1283.7,1299.8,3444.3,969.6,1397.6,3440.7,3439.5,726.6,1559.9,1023.7,648.1,1256.0,1644.5,3449.1,3444.3,694.6,898.3,1231.0,1321.4,1133.1,957.7,0.0,23.0,-10.0,9416.0,3992.0,-11761.0,-5051.0,6.0,-8.0,-3.0,1.0,1.0,-7.0,6859.0,8934.0,9578.0,7059.0,6.0,-5.0,-2.0,1.0
2022-05-13 15:01:05.522912-07:00,1968.7,537.0,1064.3,1290.0,878.0,1107.8,1383.9,1377.5,3429.8,3441.9,1459.8,1289.1,1299.8,3444.3,969.6,1394.8,3433.4,3434.6,726.6,1559.9,1028.0,649.7,1256.0,1644.5,3440.7,3446.7,694.6,898.3,1236.4,1322.3,1133.1,957.7,-12.0,9.0,-8.0,9434.0,4003.0,-11737.0,-5065.0,-26.0,77.0,-38.0,1.0,0.0,16.0,6871.0,8925.0,9569.0,7071.0,-51.0,1.0,-5.0,1.0
2022-05-13 15:01:05.523920-07:00,1968.7,546.6,1059.9,1290.0,878.9,1108.6,1383.9,1377.5,3439.5,3432.2,1458.9,1289.1,1291.8,3440.7,969.6,1394.8,3433.4,3434.6,720.8,1553.4,1028.0,653.8,1254.2,1656.8,3440.7,3446.7,695.4,900.0,1236.4,1317.8,1131.4,967.9,-18.0,24.0,-17.0,9434.0,4021.0,-11736.0,-5052.0,54.0,-12.0,18.0,-2.0,7.0,12.0,6866.0,8926.0,9573.0,7070.0,36.0,8.0,-9.0,1.0
2022-05-13 15:01:05.609094-07:00,1968.7,546.6,1059.9,1281.9,878.9,1106.0,1389.4,1375.7,3439.5,3432.2,1458.9,1289.1,1291.8,3446.7,975.6,1396.7,3439.5,3439.5,718.4,1553.4,1024.5,653.8,1254.2,1656.8,3445.5,3444.3,694.6,900.0,1235.5,1317.8,1131.4,967.9,-7.0,18.0,-20.0,9419.0,4033.0,-11743.0,-5055.0,-5.0,-24.0,-41.0,0.0,6.0,-3.0,6866.0,8925.0,9575.0,7069.0,-32.0,-5.0,-10.0,1.0
2022-05-13 15:01:05.609787-07:00,1968.7,546.6,1059.9,1281.9,878.9,1106.0,1389.4,1375.7,3439.5,3432.2,1458.9,1289.1,1291.8,3446.7,975.6,1396.7,3439.5,3439.5,718.4,1553.4,1024.5,653.8,1254.2,1656.8,3445.5,3444.3,694.6,900.0,1235.5,1317.8,1131.4,967.9,-7.0,18.0,-20.0,9419.0,4033.0,-11743.0,-5055.0,-5.0,-24.0,-41.0,0.0,6.0,-3.0,6866.0,8925.0,9575.0,7069.0,-32.0,-5.0,-10.0,1.0
2022-05-13 15:01:05.654130-07:00,1967.7,545.8,1056.5,1282.8,882.3,1106.9,1373.9,1383.0,3438.2,3437.0,1458.0,1289.1,1297.2,3435.8,965.4,1395.7,3439.5,3440.7,720.8,1554.3,1026.3,646.5,1249.7,1655.8,3440.7,3443.1,701.1,905.9,1245.3,1319.6,1134.9,967.9,-11.0,8.0,-15.0,9420.0,4006.0,-11737.0,-5087.0,-39.0,-31.0,13.0,-3.0,-6.0,5.0,6877.0,8919.0,9558.0,7087.0,-23.0,-12.0,14.0,1.0
2022-05-13 15:01:05.832226-07:00,1966.7,553.8,1061.7,1282.8,884.8,1106.9,1373.9,1383.0,3431.0,3443.1,1451.6,1289.1,1297.2,3435.8,965.4,1395.7,3439.5,3440.7,720.8,1554.3,1026.3,653.0,1248.8,1645.4,3440.7,3443.1,701.1,905.9,1245.3,1318.7,1141.0,967.1,1.0,17.0,4.0,9407.0,3995.0,-11750.0,-5090.0,-23.0,-35.0,18.0,-2.0,2.0,-2.0,6879.0,8923.0,9553.0,7088.0,2.0,-13.0,10.0,1.0
2022-05-13 15:01:05.877382-07:00,1966.7,553.8,1061.7,1289.1,881.4,1105.1,1383.9,1363.9,3431.0,3443.1,1451.6,1289.1,1294.5,3437.0,970.5,1393.0,3438.2,3437.0,720.0,1545.9,1024.5,653.0,1248.8,1645.4,3443.1,3444.3,696.2,903.4,1235.5,1318.7,1141.0,967.1,-12.0,23.0,-5.0,9410.0,3987.0,-11747.0,-5099.0,-18.0,-10.0,-12.0,2.0,3.0,13.0,6880.0,8924.0,9548.0,7093.0,-16.0,-8.0,7.0,1.0
2022-05-13 15:01:05.923110-07:00,1956.8,549.0,1058.2,1285.5,881.4,1105.1,1383.9,1363.9,3440.7,3450.4,1463.5,1284.6,1294.5,3437.0,970.5,1393.0,3438.2,3437.0,720.0,1545.9,1022.8,650.5,1267.6,1653.0,3443.1,3444.3,696.2,903.4,1229.3,1319.6,1130.5,962.8,-8.0,13.0,-1.0,9394.0,3993.0,-11762.0,-5089.0,59.0,-25.0,20.0,-3.0,0.0,1.0,6876.0,8927.0,9551.0,7089.0,41.0,9.0,-4.0,1.0
2022-05-13 15:01:05.926839-07:00,1956.8,549.0,1058.2,1285.5,878.0,1104.3,1370.3,1367.6,3440.7,3450.4,1463.5,1284.6,1298.1,3439.5,970.5,1393.0,3441.9,3435.8,716.7,1556.2,1022.8,650.5,1267.6,1653.0,3439.5,3438.2,684.8,897.4,1229.3,1319.6,1130.5,962.8,0.0,21.0,-10.0,9388.0,4002.0,-11767.0,-5082.0,17.0,6.0,-16.0,1.0,7.0,-1.0,6872.0,8930.0,9554.0,7084.0,-1.0,2.0,-7.0,1.0
2022-05-13 15:01:05.971173-07:00,1963.7,548.2,1049.6,1283.7,878.0,1104.3,1370.3,1367.6,3444.3,3434.6,1450.6,1290.0,1298.1,3439.5,970.5,1393.0,3441.9,3435.8,716.7,1556.2,1031.4,646.5,1254.2,1670.1,3439.5,3438.2,684.8,897.4,1232.8,1344.0,1135.7,964.5,-10.0,1.0,-8.0,9379.0,4013.0,-11768.0,-5086.0,34.0,-19.0,-8.0,0.0,-3.0,7.0,6871.0,8930.0,9555.0,7083.0,24.0,-3.0,-6.0,1.0
2022-05-13 15:01:05.972285-07:00,1963.7,548.2,1049.6,1283.7,899.1,1099.0,1374.8,1371.2,3444.3,3434.6,1450.6,1290.0,1291.8,3437.0,966.2,1393.9,3434.6,3431.0,715.1,1548.7,1031.4,646.5,1254.2,1670.1,3449.1,3446.7,701.9,900.8,1232.8,1344.0,1135.7,964.5,-3.0,11.0,-9.0,9368.0,4019.0,-11779.0,-5076.0,28.0,-22.0,7.0,0.0,4.0,-2.0,6866.0,8934.0,9560.0,7077.0,20.0,-5.0,-1.0,1.0
2022-05-13 15:01:06.058323-07:00,1968.7,543.4,1058.2,1288.2,899.1,1099.0,1374.8,1371.2,3439.5,3449.1,1443.3,1284.6,1291.8,3437.0,966.2,1393.9,3434.6,3431.0,715.1,1548.7,1021.9,653.0,1247.1,1653.0,3449.1,3446.7,701.9,900.8,1236.4,1313.3,1132.2,968.8,-6.0,5.0,-4.0,9365.0,4023.0,-11776.0,-5086.0,-35.0,1.0,-32.0,0.0,-4.0,3.0,6868.0,8935.0,9558.0,7077.0,-19.0,-12.0,-8.0,1.0
2022-05-13 15:01:06.059998-07:00,1967.7,543.4,1058.2,1288.2,881.4,1116.5,1374.8,1360.3,3433.4,3449.1,1443.3,1284.6,1293.6,3444.3,967.9,1391.2,3438.2,3439.5,718.4,1547.8,1021.9,653.0,1247.1,1651.1,3438.2,3449.1,692.9,899.1,1236.4,1313.3,1132.2,966.2,-3.0,17.0,-6.0,9357.0,4009.0,-11775.0,-5113.0,-120.0,-58.0,-5.0,-2.0,9.0,1.0,6872.0,8933.0,9555.0,7080.0,-25.0,-13.0,2.0,1.0
2022-05-13 15:01:06.061403-07:00,1967.7,549.0,1066.0,1286.4,881.4,1116.5,1374.8,1369.4,3433.4,3438.2,1456.2,1289.1,1293.6,3444.3,967.9,1395.7,3440.7,3439.5,718.4,1547.8,1021.1,650.5,1258.7,1651.1,3440.7,3449.1,692.9,899.1,1231.9,1322.3,1140.1,966.2,-8.0,1.0,13.0,9371.0,3944.0,-11756.0,-5183.0,-204.0,-11.0,40.0,-3.0,-5.0,8.0,6884.0,8927.0,9546.0,7087.0,-26.0,1.0,10.0,1.0
2022-05-13 15:01:06.149224-07:00,1974.6,549.0,1066.0,1286.4,885.6,1101.7,1373.0,1369.4,3444.3,3438.2,1456.2,1289.1,1298.1,3433.4,969.6,1395.7,3440.7,3444.3,720.0,1550.6,1021.1,650.5,1258.7,1644.5,3440.7,3441.9,691.3,901.7,1231.9,1322.3,1140.1,968.8,-10.0,32.0,-15.0,9368.0,3941.0,-11764.0,-5173.0,85.0,-41.0,-14.0,-6.0,6.0,12.0,6883.0,8929.0,9545.0,7087.0,23.0,0.0,-11.0,1.0
2022-05-13 15:01:06.194607-07:00,1974.6,548.2,1053.0,1293.6,885.6,1101.7,1373.0,1372.1,3444.3,3449.1,1459.8,1287.3,1298.1,3433.4,969.6,1393.9,3437.0,3444.3,720.0,1550.6,1022.8,650.5,1257.8,1644.5,3447.9,3441.9,691.3,901.7,1239.9,1321.4,1134.0,968.8,-10.0,-1.0,0.0,9343.0,3960.0,-11783.0,-5159.0,78.0,-21.0,1.0,0.0,-4.0,0.0,6878.0,8930.0,9555.0,7077.0,27.0,9.0,-7.0,1.0
2022-05-13 15:01:06.196939-07:00,1959.8,548.2,1053.0,1293.6,878.0,1107.8,1368.5,1372.1,3435.8,3449.1,1459.8,1287.3,1303.4,3444.3,963.7,1393.9,3437.0,3437.0,712.6,1529.2,1022.8,650.5,1257.8,1653.9,3447.9,3439.5,685.6,900.0,1239.9,1321.4,1134.0,961.1,-10.0,28.0,-17.0,9340.0,3973.0,-11793.0,-5132.0,45.0,15.0,17.0,-1.0,0.0,6.0,6872.0,8931.0,9560.0,7075.0,1.0,5.0,4.0,1.0
2022-05-13 15:01:06.417190-07:00,1959.8,551.4,1047.8,1287.3,878.0,1107.8,1373.0,1368.5,3435.8,3441.9,1454.3,1281.0,1303.4,3444.3,967.1,1395.7,3437.0,3437.0,712.6,1529.2,1028.8,648.1,1264.9,1653.9,3443.1,3449.1,685.6,900.0,1234.6,1315.1,1136.6,961.1,-9.0,1.0,-3.0,9337.0,3980.0,-11794.0,-5130.0,27.0,3.0,-17.0,-4.0,-6.0,5.0,6872.0,8931.0,9560.0,7075.0,5.0,0.0,-7.0,1.0
2022-05-13 15:01:06.508712-07:00,1955.8,550.6,1047.8,1287.3,878.9,1106.0,1373.0,1368.5,3438.2,3441.9,1454.3,1281.0,1294.5,3434.6,967.1,1395.7,3437.0,3437.0,717.5,1536.6,1028.8,648.1,1261.3,1654.9,3443.1,3449.1,681.5,900.8,1234.6,1315.1,1136.6,967.9,-8.0,-9.0,5.0,9335.0,3994.0,-11792.0,-5127.0,70.0,20.0,1.0,0.0,-7.0,6.0,6872.0,8931.0,9560.0,7075.0,23.0,16.0,-5.0,1.0
2022-05-13 15:01:06.510947-07:00,1955.8,550.6,1057.3,1286.4,878.9,1106.0,1373.9,1368.5,3438.2,3441.9,1448.8,1287.3,1294.5,3434.6,969.6,1385.7,3435.8,3426.2,717.5,1536.6,1022.8,649.7,1261.3,1654.9,3444.3,3439.5,681.5,900.8,1239.1,1322.3,1136.6,967.9,-6.0,12.0,-13.0,9329.0,4013.0,-11801.0,-5102.0,9.0,-10.0,0.0,-7.0,1.0,-5.0,6862.0,8934.0,9567.0,7071.0,12.0,3.0,-2.0,1.0
2022-05-13 15:01:06.703150-07:00,1963.7,541.8,1057.3,1286.4,887.3,1104.3,1373.9,1368.5,3438.2,3439.5,1448.8,1287.3,1298.1,3440.7,969.6,1385.7,3435.8,3426.2,722.5,1542.2,1022.8,649.7,1262.2,1652.0,3444.3,3439.5,695.4,900.8,1239.1,1322.3,1126.1,961.1,-7.0,-1.0,-12.0,9322.0,4015.0,-11803.0,-5108.0,2.0,0.0,-4.0,-4.0,-9.0,-3.0,6861.0,8935.0,9568.0,7070.0,1.0,-7.0,0.0,1.0
2022-05-13 15:01:06.705415-07:00,1963.7,541.8,1059.1,1283.7,887.3,1104.3,1375.7,1373.0,3438.2,3439.5,1451.6,1288.2,1298.1,3440.7,965.4,1384.8,3440.7,3437.0,722.5,1542.2,1019.4,651.4,1262.2,1652.0,3440.7,3444.3,695.4,900.8,1237.3,1316.0,1126.1,961.1,-7.0,13.0,-10.0,9316.0,4019.0,-11812.0,-5097.0,18.0,-23.0,21.0,-2.0,0.0,1.0,6858.0,8937.0,9570.0,7067.0,14.0,-12.0,8.0,1.0
2022-05-13 15:01:06.708883-07:00,1965.7,545.8,1059.1,1283.7,879.7,1117.4,1375.7,1373.0,3439.5,3438.2,1451.6,1288.2,1296.3,3438.2,965.4,1384.8,3440.7,3437.0,716.7,1546.9,1019.4,651.4,1262.2,1653.9,3440.7,3444.3,688.0,903.4,1237.3,1316.0,1128.7,971.3,-1.0,0.0,10.0,9306.0,4018.0,-11821.0,-5095.0,48.0,-7.0,8.0,3.0,0.0,4.0,6857.0,8942.0,9572.0,7060.0,24.0,0.0,1.0,1.0
2022-05-13 15:01:06.710065-07:00,1965.7,545.8,1050.4,1290.0,879.7,1106.0,1372.1,1368.5,3439.5,3438.2,1448.8,1288.2,1296.3,3449.1,965.4,1393.9,3428.6,3433.4,723.3,1546.9,1025.4,648.1,1262.2,1653.9,3443.1,3443.1,692.9,903.4,1239.1,1321.4,1128.7,971.3,-3.0,4.0,4.0,9307.0,4029.0,-11822.0,-5082.0,42.0,14.0,-2.0,-3.0,1.0,6.0,6854.0,8945.0,9574.0,7056.0,13.0,5.0,-3.0,1.0
2022-05-13 15:01:06.710959-07:00,1948.9,549.0,1059.1,1290.0,880.6,1106.0,1372.1,1368.5,3439.5,3439.5,1457.1,1288.2,1298.1,3449.1,965.4,1393.9,3428.6,3433.4,723.3,1541.3,1025.4,647.3,1264.9,1653.0,3443.1,3443.1,692.9,894.9,1239.1,1319.6,1133.1,967.1,-4.0,19.0,-7.0,9307.0,4038.0,-11823.0,-5071.0,-36.0,18.0,-17.0,-2.0,3.0,-1.0,6849.0,8945.0,9578.0,7056.0,-11.0,4.0,-3.0,1.0
2022-05-13 15:01:06.711717-07:00,1948.9,549.0,1059.1,1285.5,880.6,1096.4,1375.7,1373.9,3439.5,3439.5,1457.1,1284.6,1298.1,3443.1,962.8,1393.9,3439.5,3439.5,724.9,1541.3,1021.1,647.3,1264.9,1653.0,3438.2,3441.9,689.7,894.9,1236.4,1319.6,1133.1,967.1,-2.0,7.0,0.0,9317.0,4035.0,-11807.0,-5094.0,-93.0,16.0,-33.0,0.0,-6.0,1.0,6852.0,8943.0,9575.0,7059.0,-18.0,1.0,-3.0,1.0
2022-05-13 15:01:06.712450-07:00,1947.9,551.4,1055.6,1285.5,887.3,1096.4,1375.7,1373.9,3437.0,3439.5,1447.9,1284.6,1296.3,3443.1,962.8,1393.9,3439.5,3439.5,724.9,1541.3,1021.1,648.1,1259.6,1654.9,3438.2,3441.9,689.7,900.0,1236.4,1319.6,1147.1,967.1,-11.0,10.0,-13.0,9319.0,4038.0,-11800.0,-5103.0,59.0,-19.0,15.0,-4.0,-1.0,5.0,6852.0,8942.0,9575.0,7060.0,27.0,8.0,-3.0,1.0
2022-05-13 15:01:06.834820-07:00,1947.9,551.4,1055.6,1292.7,887.3,1110.4,1372.1,1366.6,3437.0,3439.5,1447.9,1283.7,1296.3,3432.2,964.5,1394.8,3441.9,3440.7,724.1,1541.3,1020.2,648.1,1259.6,1654.9,3449.1,3443.1,692.9,900.0,1227.5,1319.6,1147.1,967.1,-3.0,9.0,-6.0,9303.0,4044.0,-11816.0,-5091.0,14.0,-31.0,-11.0,-3.0,1.0,-2.0,6846.0,8947.0,9580.0,7053.0,16.0,-8.0,-6.0,1.0
2022-05-13 15:01:06.836474-07:00,1972.7,550.6,1066.9,1285.5,882.3,1110.4,1372.1,1366.6,3438.2,3437.0,1456.2,1284.6,1304.3,3432.2,964.5,1394.8,3441.9,3440.7,724.1,1544.1,1023.7,648.9,1258.7,1652.0,3449.1,3443.1,692.9,899.1,1231.0,1325.0,1149.8,961.1,-7.0,4.0,2.0,9299.0,4043.0,-11817.0,-5096.0,-9.0,7.0,3.0,0.0,-3.0,5.0,6845.0,8949.0,9580.0,7051.0,1.0,-4.0,2.0,1.0
2022-05-13 15:01:06.869346-07:00,1972.7,550.6,1066.9,1285.5,886.5,1097.3,1370.3,1375.7,3438.2,3437.0,1456.2,1284.6,1299.0,3449.1,965.4,1400.3,3446.7,3441.9,711.8,1540.3,1023.7,648.9,1258.7,1652.0,3441.9,3434.6,686.4,905.9,1231.0,1325.0,1149.8,961.1,-4.0,5.0,-1.0,9297.0,4047.0,-11817.0,-5096.0,20.0,-9.0,-9.0,-3.0,0.0,2.0,6845.0,8949.0,9580.0,7051.0,7.0,-1.0,-3.0,1.0
2022-05-13 15:01:06.912176-07:00,1949.9,545.8,1055.6,1282.8,886.5,1097.3,1370.3,1375.7,3454.0,3433.4,1448.8,1286.4,1299.0,3449.1,965.4,1400.3,3446.7,3441.9,711.8,1540.3,1018.5,647.3,1261.3,1655.8,3441.9,3434.6,686.4,905.9,1230.2,1325.0,1131.4,968.8,-11.0,34.0,-19.0,9285.0,4058.0,-11824.0,-5094.0,40.0,-51.0,-58.0,0.0,-5.0,1.0,6846.0,8949.0,9581.0,7049.0,-27.0,-16.0,-19.0,1.0
2022-05-13 15:01:07.048624-07:00,1949.9,545.8,1055.6,1282.8,880.6,1115.6,1372.1,1366.6,3454.0,3433.4,1448.8,1286.4,1296.3,3437.0,972.2,1400.3,3444.3,3435.8,715.1,1539.4,1018.5,647.3,1261.3,1655.8,3450.4,3441.9,679.1,897.4,1230.2,1325.0,1131.4,968.8,-7.0,172.0,-100.0,9198.0,4137.0,-11842.0,-5146.0,199.0,-415.0,-758.0,0.0,20.0,-12.0,6897.0,8927.0,9555.0,7063.0,-354.0,-167.0,-93.0,1.0
2022-05-13 15:01:07.049933-07:00,1949.9,549.0,1054.8,1279.2,880.6,1115.6,1372.1,1366.6,3444.3,3440.7,1456.2,1282.8,1296.3,3437.0,972.2,1400.3,3444.3,3435.8,715.1,1539.4,1015.9,648.1,1258.7,1655.8,3450.4,3441.9,679.1,897.4,1240.8,1320.5,1134.9,965.4,2.0,36.0,-24.0,8842.0,4470.0,-11879.0,-5398.0,339.0,-597.0,-1382.0,14.0,-85.0,-41.0,7077.0,8859.0,9478.0,7074.0,-282.0,-300.0,-259.0,1.0
2022-05-13 15:01:07.051012-07:00,1970.7,549.0,1054.8,1279.2,892.4,1115.6,1345.8,1360.3,3438.2,3440.7,1456.2,1282.8,1296.3,3439.5,959.4,1393.0,3439.5,3432.2,716.7,1532.9,1015.9,648.1,1258.7,1650.2,3444.3,3443.1,687.2,899.1,1240.8,1320.5,1134.9,967.1,71.0,217.0,-70.0,8249.0,5201.0,-11914.0,-5604.0,1507.0,-666.0,-2395.0,4.0,49.0,5.0,7268.0,8781.0,9490.0,6960.0,-145.0,-256.0,-657.0,1.0
2022-05-13 15:01:07.184088-07:00,1970.7,554.6,1061.7,1284.6,892.4,1115.6,1345.8,1358.5,3438.2,3439.5,1470.9,1290.9,1296.3,3439.5,959.4,1400.3,3428.6,3432.2,716.7,1532.9,1001.3,660.3,1256.9,1650.2,3439.5,3443.1,687.2,899.1,1239.1,1315.1,1125.2,967.1,76.0,92.0,14.0,7260.0,6321.0,-11887.0,-5871.0,1216.0,-1082.0,-3324.0,-15.0,29.0,-3.0,7567.0,8549.0,9518.0,6892.0,-1074.0,-207.0,-713.0,1.0
2022-05-13 15:01:07.186138-07:00,1969.7,554.6,1061.7,1284.6,887.3,1140.1,1345.8,1358.5,3449.1,3439.5,1470.9,1290.9,1290.9,3440.7,984.2,1400.3,3428.6,3432.2,717.5,1521.8,1001.3,660.3,1256.9,1653.0,3439.5,3435.8,692.9,894.1,1239.1,1315.1,1125.2,965.4,23.0,-247.0,65.0,6351.0,7269.0,-11543.0,-6483.0,124.0,-823.0,-2949.0,6.0,-38.0,33.0,7976.0,8190.0,9430.0,6987.0,-801.0,-143.0,-516.0,1.0
2022-05-13 15:01:07.187230-07:00,1969.7,543.4,1056.5,1297.2,887.3,1140.1,1345.8,1342.2,3449.1,3443.1,1473.6,1290.9,1290.9,3440.7,984.2,1401.2,3431.0,3432.2,717.5,1521.8,993.6,648.9,1249.7,1653.0,3438.2,3435.8,692.9,894.1,1223.9,1322.3,1140.1,965.4,-8.0,-155.0,75.0,5691.0,7738.0,-11359.0,-6866.0,676.0,-929.0,-1191.0,-22.0,0.0,11.0,8154.0,8016.0,9418.0,6999.0,-9.0,3.0,-257.0,1.0
2022-05-13 15:01:07.273849-07:00,1965.7,543.4,1056.5,1297.2,878.0,1141.9,1342.2,1342.2,3439.5,3443.1,1473.6,1290.9,1299.0,3441.9,981.6,1401.2,3431.0,3439.5,719.2,1509.7,993.6,648.9,1249.7,1649.2,3438.2,3449.1,686.4,903.4,1223.9,1322.3,1140.1,964.5,26.0,97.0,59.0,5239.0,7875.0,-11477.0,-6873.0,469.0,-471.0,-383.0,-17.0,76.0,9.0,8158.0,8016.0,9465.0,6931.0,-100.0,-31.0,-99.0,1.0
2022-05-13 15:01:07.276087-07:00,1965.7,543.4,1056.5,1291.8,878.0,1141.9,1342.2,1341.3,3439.5,3437.0,1485.6,1291.8,1299.0,3441.9,981.6,1402.1,3437.0,3439.5,719.2,1509.7,988.5,640.8,1239.9,1649.2,3441.9,3449.1,686.4,903.4,1231.9,1309.7,1140.1,964.5,0.0,-38.0,67.0,5061.0,7966.0,-11424.0,-6989.0,-147.0,-227.0,-489.0,-5.0,4.0,36.0,8223.0,7951.0,9446.0,6956.0,-183.0,-7.0,-104.0,1.0
2022-05-13 15:01:07.589133-07:00,1953.9,540.2,1056.5,1291.8,884.8,1134.9,1325.9,1341.3,3438.2,3439.5,1485.6,1291.8,1298.1,3443.1,985.0,1402.1,3437.0,3434.6,715.1,1494.9,988.5,640.8,1245.3,1653.0,3441.9,3439.5,681.5,896.6,1231.9,1309.7,1134.9,963.7,18.0,-55.0,57.0,4981.0,8000.0,-11418.0,-7017.0,216.0,-24.0,104.0,0.0,-37.0,7.0,8216.0,7951.0,9466.0,6936.0,164.0,20.0,10.0,1.0
2022-05-13 15:01:07.593008-07:00,1953.9,540.2,1060.8,1281.9,884.8,1134.9,1321.4,1333.2,3438.2,3439.5,1488.4,1295.4,1298.1,3443.1,988.5,1404.9,3435.8,3440.7,715.1,1494.9,989.3,636.7,1245.3,1653.0,3449.1,3445.5,681.5,896.6,1236.4,1321.4,1134.9,963.7,9.0,89.0,-20.0,5016.0,7975.0,-11482.0,-6918.0,93.0,128.0,153.0,-6.0,8.0,13.0,8161.0,7997.0,9488.0,6918.0,99.0,52.0,66.0,1.0
2022-05-13 15:01:07.594201-07:00,1959.8,550.6,1060.8,1281.9,882.3,1134.9,1321.4,1333.2,3439.5,3433.4,1488.4,1295.4,1295.4,3437.0,988.5,1404.9,3435.8,3440.7,711.8,1482.9,989.3,636.7,1244.4,1651.1,3449.1,3445.5,679.1,899.1,1236.4,1321.4,1136.6,950.9,26.0,-48.0,29.0,5001.0,8007.0,-11486.0,-6882.0,78.0,39.0,-69.0,0.0,0.0,-13.0,8133.0,7999.0,9518.0,6908.0,78.0,45.0,-47.0,1.0
2022-05-13 15:01:07.595305-07:00,1959.8,550.6,1060.8,1281.0,882.3,1134.9,1304.3,1324.1,3439.5,3433.4,1491.2,1290.0,1295.4,3437.0,982.5,1404.0,3438.2,3441.9,711.8,1482.9,983.3,635.1,1244.4,1651.1,3441.9,3449.1,679.1,899.1,1231.0,1318.7,1136.6,950.9,6.0,14.0,-19.0,5019.0,8008.0,-11510.0,-6828.0,140.0,34.0,144.0,-4.0,-13.0,3.0,8106.0,8018.0,9539.0,6889.0,104.0,11.0,44.0,1.0
2022-05-13 15:01:07.813912-07:00,1948.9,545.0,1060.8,1281.0,881.4,1137.5,1304.3,1324.1,3438.2,3438.2,1491.2,1290.0,1296.3,3441.9,982.5,1404.0,3438.2,3441.9,704.4,1484.7,983.3,635.1,1236.4,1654.9,3441.9,3449.1,676.6,894.9,1231.0,1318.7,1134.9,967.1,15.0,50.0,3.0,4991.0,8014.0,-11534.0,-6803.0,32.0,-49.0,-98.0,-6.0,15.0,8.0,8081.0,8042.0,9554.0,6868.0,59.0,8.0,-23.0,1.0
2022-05-13 15:01:07.903707-07:00,1944.0,545.0,1062.5,1281.0,892.4,1132.2,1293.6,1321.4,3440.7,3449.1,1473.6,1296.3,1295.4,3449.1,981.6,1394.8,3434.6,3438.2,708.5,1479.2,980.7,635.1,1241.7,1652.0,3444.3,3445.5,676.6,894.1,1235.5,1323.2,1141.0,964.5,2.0,25.0,3.0,4964.0,8010.0,-11567.0,-6771.0,114.0,-17.0,66.0,-16.0,3.0,5.0,8066.0,8060.0,9571.0,6841.0,94.0,8.0,23.0,1.0
2022-05-13 15:01:07.904870-07:00,1944.0,545.0,1062.5,1281.0,892.4,1131.4,1303.4,1319.6,3440.7,3449.1,1473.6,1297.2,1295.4,3439.5,981.6,1395.7,3440.7,3444.3,713.4,1479.2,974.8,635.1,1241.7,1652.0,3446.7,3444.3,670.9,894.1,1239.1,1323.2,1141.0,964.5,12.0,7.0,16.0,4941.0,8010.0,-11596.0,-6737.0,70.0,-9.0,35.0,-2.0,-1.0,3.0,8040.0,8083.0,9592.0,6815.0,94.0,0.0,-6.0,1.0
2022-05-13 15:01:07.905956-07:00,1943.0,543.4,1052.2,1281.0,884.8,1131.4,1303.4,1319.6,3440.7,3438.2,1479.2,1297.2,1294.5,3439.5,981.6,1395.7,3440.7,3444.3,713.4,1470.0,974.8,634.3,1239.1,1651.1,3446.7,3444.3,670.9,894.1,1239.1,1323.2,1136.6,963.7,14.0,-3.0,11.0,4952.0,7988.0,-11614.0,-6725.0,-5.0,-11.0,94.0,-5.0,4.0,0.0,8028.0,8096.0,9596.0,6808.0,26.0,-7.0,28.0,1.0
2022-05-13 15:01:07.949050-07:00,1943.0,543.4,1052.2,1281.0,884.8,1134.9,1296.3,1320.5,3440.7,3438.2,1479.2,1294.5,1294.5,3444.3,983.3,1399.4,3434.6,3429.8,707.7,1470.0,974.8,634.3,1239.1,1651.1,3440.7,3433.4,674.2,894.1,1229.3,1323.2,1136.6,963.7,13.0,24.0,3.0,4965.0,7969.0,-11625.0,-6719.0,15.0,-11.0,8.0,-4.0,4.0,6.0,8023.0,8109.0,9591.0,6806.0,12.0,-12.0,13.0,1.0
2022-05-13 15:01:07.949820-07:00,1943.0,543.4,1052.2,1281.0,884.8,1134.9,1296.3,1320.5,3440.7,3438.2,1479.2,1294.5,1294.5,3444.3,983.3,1399.4,3434.6,3429.8,707.7,1470.0,974.8,634.3,1239.1,1651.1,3440.7,3433.4,674.2,894.1,1229.3,1323.2,1136.6,963.7,13.0,24.0,3.0,4965.0,7969.0,-11625.0,-6719.0,15.0,-11.0,8.0,-4.0,4.0,6.0,8023.0,8109.0,9591.0,6806.0,12.0,-12.0,13.0,1.0
2022-05-13 15:01:08.037342-07:00,1945.0,537.0,1056.5,1288.2,883.9,1122.6,1290.0,1321.4,3440.7,3428.6,1478.3,1298.1,1298.1,3439.5,980.7,1404.0,3437.0,3432.2,706.9,1467.2,973.9,627.8,1239.1,1649.2,3446.7,3435.8,673.3,896.6,1236.4,1316.9,1126.1,964.5,5.0,8.0,17.0,4965.0,7947.0,-11641.0,-6717.0,-22.0,8.0,68.0,-6.0,2.0,10.0,8017.0,8117.0,9593.0,6800.0,11.0,-3.0,24.0,1.0
2022-05-13 15:01:08.039123-07:00,1945.0,537.0,1056.5,1288.2,883.9,1122.6,1290.0,1321.4,3440.7,3428.6,1478.3,1298.1,1298.1,3439.5,980.7,1404.0,3437.0,3432.2,706.9,1467.2,973.9,627.8,1239.1,1649.2,3446.7,3435.8,673.3,896.6,1236.4,1316.9,1126.1,964.5,5.0,8.0,17.0,4965.0,7947.0,-11641.0,-6717.0,-22.0,8.0,68.0,-6.0,2.0,10.0,8017.0,8117.0,9593.0,6800.0,11.0,-3.0,24.0,1.0
2022-05-13 15:01:08.149469-07:00,1946.9,538.6,1058.2,1294.5,885.6,1129.6,1281.0,1314.2,3449.1,3444.3,1482.9,1294.5,1296.3,3446.7,978.2,1394.8,3435.8,3434.6,720.8,1470.9,973.1,624.6,1243.5,1647.3,3443.1,3444.3,673.3,894.9,1235.5,1316.0,1132.2,967.9,16.0,18.0,12.0,4964.0,7902.0,-11683.0,-6697.0,51.0,-20.0,30.0,-4.0,-1.0,0.0,7996.0,8140.0,9602.0,6786.0,65.0,-2.0,-1.0,1.0
2022-05-13 15:01:08.175122-07:00,1935.1,546.6,1059.9,1288.2,885.6,1129.6,1281.0,1314.2,3444.3,3437.0,1480.1,1292.7,1296.3,3446.7,978.2,1394.8,3435.8,3434.6,720.8,1470.9,967.9,631.1,1232.8,1654.9,3443.1,3444.3,673.3,894.9,1232.8,1313.3,1135.7,962.0,3.0,5.0,13.0,4963.0,7902.0,-11688.0,-6690.0,22.0,-4.0,1.0,-9.0,-4.0,12.0,7989.0,8147.0,9608.0,6777.0,18.0,8.0,4.0,1.0
2022-05-13 15:01:08.489629-07:00,1935.1,546.6,1059.9,1288.2,880.6,1125.2,1283.7,1317.8,3444.3,3437.0,1480.1,1292.7,1286.4,3446.7,979.0,1396.7,3435.8,3437.0,710.1,1465.4,967.9,631.1,1232.8,1654.9,3447.9,3451.6,685.6,895.7,1232.8,1313.3,1135.7,962.0,13.0,6.0,14.0,4956.0,7901.0,-11697.0,-6681.0,42.0,-1.0,8.0,-7.0,4.0,-1.0,7983.0,8153.0,9613.0,6770.0,37.0,6.0,0.0,1.0
2022-05-13 15:01:08.848125-07:00,1934.1,539.4,1064.3,1290.9,880.6,1125.2,1283.7,1316.0,3438.2,3443.1,1478.3,1290.9,1286.4,3446.7,979.0,1401.2,3441.9,3437.0,710.1,1465.4,970.5,627.8,1236.4,1657.7,3438.2,3451.6,685.6,895.7,1239.1,1312.4,1140.1,959.4,11.0,-1.0,8.0,4958.0,7902.0,-11699.0,-6673.0,27.0,10.0,11.0,-5.0,0.0,0.0,7978.0,8157.0,9617.0,6765.0,9.0,3.0,7.0,1.0
2022-05-13 15:01:08.849206-07:00,1947.9,539.4,1064.3,1290.9,878.0,1130.5,1273.9,1316.0,3439.5,3443.1,1478.3,1290.9,1293.6,3440.7,983.3,1401.2,3441.9,3440.7,705.2,1463.5,970.5,627.8,1236.4,1653.9,3438.2,3439.5,670.9,895.7,1239.1,1312.4,1140.1,968.8,5.0,9.0,10.0,4963.0,7898.0,-11701.0,-6673.0,-11.0,-8.0,6.0,-7.0,-1.0,4.0,7977.0,8159.0,9616.0,6765.0,-2.0,-5.0,7.0,1.0
2022-05-13 15:01:08.939167-07:00,1947.9,537.0,1056.5,1287.3,878.0,1130.5,1273.9,1311.5,3439.5,3441.9,1482.9,1285.5,1293.6,3440.7,983.3,1394.8,3439.5,3440.7,705.2,1463.5,965.4,628.6,1238.2,1653.9,3437.0,3439.5,670.9,895.7,1228.4,1325.0,1134.0,968.8,7.0,7.0,14.0,4963.0,7896.0,-11701.0,-6675.0,1.0,1.0,5.0,-5.0,-2.0,5.0,7977.0,8159.0,9617.0,6764.0,10.0,-1.0,3.0,1.0
2022-05-13 15:01:09.073909-07:00,1936.1,537.0,1056.5,1287.3,878.9,1133.1,1286.4,1311.5,3437.0,3441.9,1482.9,1285.5,1288.2,3441.9,978.2,1394.8,3439.5,3432.2,711.8,1464.4,965.4,628.6,1238.2,1641.6,3437.0,3439.5,673.3,884.8,1228.4,1325.0,1134.0,971.3,6.0,2.0,12.0,4966.0,7891.0,-11705.0,-6671.0,22.0,0.0,29.0,-3.0,-5.0,5.0,7975.0,8161.0,9618.0,6763.0,20.0,1.0,6.0,1.0
2022-05-13 15:01:09.164732-07:00,1928.2,545.0,1053.0,1285.5,878.0,1133.1,1264.9,1300.7,3440.7,3435.8,1471.8,1294.5,1297.2,3438.2,980.7,1404.0,3437.0,3433.4,711.0,1459.8,967.9,623.0,1235.5,1645.4,3444.3,3435.8,668.4,896.6,1231.0,1321.4,1127.0,944.9,10.0,3.0,7.0,4950.0,7852.0,-11773.0,-6609.0,4.0,-21.0,-2.0,-2.0,0.0,0.0,7923.0,8209.0,9661.0,6704.0,3.0,-7.0,-4.0,1.0
2022-05-13 15:01:09.254942-07:00,1937.1,543.4,1059.1,1290.9,882.3,1122.6,1274.7,1299.0,3439.5,3441.9,1471.8,1288.2,1293.6,3437.0,978.2,1394.8,3440.7,3444.3,704.4,1452.5,962.8,624.6,1230.2,1656.8,3440.7,3441.9,665.2,899.1,1235.5,1325.0,1136.6,967.9,10.0,2.0,6.0,4947.0,7838.0,-11774.0,-6626.0,0.0,-1.0,-2.0,-6.0,4.0,-2.0,7927.0,8209.0,9658.0,6704.0,2.0,2.0,-2.0,1.0
2022-05-13 15:01:09.255710-07:00,1937.1,543.4,1059.1,1290.9,882.3,1122.6,1274.7,1299.0,3439.5,3441.9,1471.8,1288.2,1293.6,3437.0,978.2,1394.8,3440.7,3444.3,704.4,1452.5,962.8,624.6,1230.2,1656.8,3440.7,3441.9,665.2,899.1,1235.5,1325.0,1136.6,967.9,10.0,2.0,6.0,4947.0,7838.0,-11774.0,-6626.0,0.0,-1.0,-2.0,-6.0,4.0,-2.0,7927.0,8209.0,9658.0,6704.0,2.0,2.0,-2.0,1.0
2022-05-13 15:01:09.257131-07:00,1925.2,542.6,1062.5,1280.1,889.0,1120.9,1264.9,1302.5,3444.3,3446.7,1466.3,1296.3,1293.6,3439.5,994.5,1402.1,3428.6,3443.1,706.0,1449.7,962.0,618.1,1238.2,1649.2,3438.2,3450.4,662.7,887.3,1231.9,1312.4,1142.7,966.2,8.0,7.0,11.0,4957.0,7823.0,-11768.0,-6648.0,-11.0,3.0,-9.0,-4.0,0.0,4.0,7938.0,8203.0,9648.0,6712.0,-12.0,0.0,-1.0,1.0
2022-05-13 15:01:09.388736-07:00,1928.2,541.8,1059.9,1287.3,889.0,1120.9,1264.9,1302.5,3439.5,3450.4,1473.6,1287.3,1293.6,3439.5,994.5,1402.1,3428.6,3443.1,706.0,1449.7,964.5,620.5,1237.3,1664.4,3438.2,3450.4,662.7,887.3,1234.6,1307.0,1135.7,966.2,7.0,3.0,7.0,4958.0,7822.0,-11766.0,-6649.0,0.0,-3.0,0.0,-4.0,-2.0,9.0,7939.0,8202.0,9647.0,6713.0,-2.0,-1.0,0.0,1.0
2022-05-13 15:01:09.390035-07:00,1930.2,541.8,1059.9,1287.3,883.1,1134.0,1265.8,1302.5,3444.3,3450.4,1473.6,1287.3,1296.3,3438.2,981.6,1402.1,3445.5,3440.7,706.0,1454.3,964.5,620.5,1237.3,1649.2,3440.7,3437.0,666.8,896.6,1234.6,1307.0,1135.7,967.1,9.0,9.0,5.0,4958.0,7823.0,-11769.0,-6645.0,18.0,-4.0,-8.0,-6.0,6.0,0.0,7937.0,8204.0,9649.0,6710.0,2.0,4.0,-3.0,1.0
2022-05-13 15:01:09.436025-07:00,1928.2,542.6,1058.2,1276.5,888.2,1139.2,1263.1,1295.4,3439.5,3441.9,1476.4,1287.3,1288.2,3437.0,982.5,1399.4,3441.9,3439.5,707.7,1449.7,960.2,621.4,1236.4,1654.9,3444.3,3444.3,670.1,894.9,1232.8,1316.9,1132.2,966.2,5.0,-7.0,7.0,4963.0,7820.0,-11764.0,-6652.0,-32.0,6.0,11.0,-9.0,-2.0,2.0,7940.0,8202.0,9647.0,6712.0,-14.0,-13.0,8.0,1.0
2022-05-13 15:01:09.658990-07:00,1928.2,545.0,1061.7,1282.8,888.2,1139.2,1263.1,1291.8,3439.5,3445.5,1481.9,1286.4,1288.2,3437.0,982.5,1397.6,3428.6,3439.5,707.7,1449.7,957.7,625.4,1235.5,1654.9,3440.7,3444.3,670.1,894.9,1223.9,1320.5,1132.2,966.2,3.0,12.0,-2.0,4964.0,7814.0,-11770.0,-6649.0,28.0,-21.0,13.0,-4.0,-1.0,2.0,7941.0,8207.0,9646.0,6707.0,20.0,-14.0,1.0,1.0
2022-05-13 15:01:09.660243-07:00,1931.1,545.0,1061.7,1282.8,883.9,1127.0,1266.7,1291.8,3449.1,3445.5,1481.9,1286.4,1287.3,3438.2,973.1,1397.6,3428.6,3435.8,701.1,1451.6,957.7,625.4,1235.5,1647.3,3440.7,3440.7,670.1,894.9,1223.9,1320.5,1132.2,968.8,5.0,0.0,15.0,4955.0,7809.0,-11774.0,-6655.0,-24.0,-21.0,-2.0,-2.0,-4.0,3.0,7946.0,8208.0,9642.0,6705.0,-20.0,-12.0,4.0,1.0
2022-05-13 15:01:09.703229-07:00,1931.1,545.0,1053.0,1288.2,883.9,1127.0,1265.8,1308.8,3449.1,3449.1,1471.8,1283.7,1287.3,3438.2,979.9,1396.7,3433.4,3437.0,701.1,1451.6,962.0,623.8,1232.8,1647.3,3443.1,3438.2,670.1,894.9,1226.6,1319.6,1134.9,968.8,3.0,9.0,13.0,4959.0,7804.0,-11772.0,-6661.0,0.0,-7.0,9.0,-4.0,-8.0,12.0,7950.0,8208.0,9639.0,6705.0,3.0,-4.0,0.0,1.0
2022-05-13 15:01:09.704450-07:00,1928.2,549.8,1053.0,1288.2,885.6,1133.1,1265.8,1308.8,3439.5,3441.9,1471.8,1283.7,1290.0,3441.9,979.9,1396.7,3433.4,3437.0,698.7,1449.7,962.0,623.8,1236.4,1653.9,3443.1,3438.2,670.9,892.4,1226.6,1319.6,1127.0,971.3,4.0,4.0,11.0,4956.0,7805.0,-11774.0,-6657.0,1.0,8.0,-6.0,-7.0,-4.0,4.0,7948.0,8210.0,9640.0,6703.0,-4.0,6.0,0.0,1.0
2022-05-13 15:01:09.751718-07:00,1928.2,549.8,1059.1,1290.0,885.6,1133.1,1269.4,1296.3,3439.5,3441.9,1476.4,1292.7,1290.0,3441.9,969.6,1399.4,3429.8,3444.3,698.7,1449.7,963.7,624.6,1236.4,1653.9,3434.6,3437.0,670.9,892.4,1223.9,1321.4,1127.0,971.3,3.0,-1.0,3.0,4959.0,7807.0,-11773.0,-6655.0,5.0,7.0,8.0,-8.0,-3.0,1.0,7948.0,8210.0,9640.0,6703.0,10.0,-2.0,3.0,1.0
2022-05-13 15:01:09.752940-07:00,1937.1,539.4,1059.1,1290.0,879.7,1118.2,1269.4,1296.3,3437.0,3438.2,1476.4,1292.7,1290.0,3437.0,969.6,1399.4,3429.8,3444.3,703.6,1449.7,963.7,624.6,1234.6,1659.6,3434.6,3437.0,673.3,890.7,1223.9,1321.4,1134.0,955.1,5.0,23.0,-1.0,4958.0,7796.0,-11791.0,-6637.0,-8.0,-29.0,9.0,-6.0,12.0,5.0,7940.0,8229.0,9644.0,6683.0,0.0,-21.0,4.0,1.0
2022-05-13 15:01:09.753998-07:00,1918.3,550.6,1054.8,1286.4,883.9,1121.7,1267.6,1301.6,3439.5,3434.6,1466.3,1292.7,1296.3,3439.5,979.9,1401.2,3431.0,3439.5,712.6,1444.2,960.2,623.0,1232.8,1653.0,3440.7,3437.0,670.1,889.8,1234.6,1324.1,1143.6,957.7,5.0,-7.0,20.0,4952.0,7789.0,-11790.0,-6651.0,1.0,-16.0,0.0,-5.0,-4.0,6.0,7949.0,8228.0,9637.0,6684.0,-2.0,-10.0,-4.0,1.0
2022-05-13 15:01:09.794145-07:00,1918.3,550.6,1055.6,1284.6,883.9,1120.9,1263.1,1297.2,3439.5,3434.6,1470.0,1289.1,1296.3,3443.1,984.2,1400.3,3435.8,3434.6,710.1,1444.2,957.7,623.0,1232.8,1653.0,3444.3,3434.6,670.9,889.8,1231.0,1313.3,1143.6,957.7,3.0,7.0,8.0,4953.0,7786.0,-11794.0,-6647.0,-1.0,-4.0,12.0,-5.0,-1.0,11.0,7949.0,8229.0,9637.0,6683.0,1.0,-3.0,6.0,1.0
2022-05-13 15:01:10.019490-07:00,1922.3,541.0,1059.9,1284.6,885.6,1120.9,1263.1,1297.2,3451.6,3435.8,1463.5,1289.1,1291.8,3443.1,984.2,1400.3,3435.8,3434.6,710.1,1456.2,957.7,619.7,1227.5,1651.1,3444.3,3434.6,670.9,894.9,1231.0,1317.8,1129.6,964.5,9.0,0.0,13.0,4947.0,7788.0,-11797.0,-6643.0,17.0,-4.0,-13.0,-4.0,3.0,8.0,7948.0,8230.0,9638.0,6682.0,8.0,6.0,-6.0,1.0
2022-05-13 15:01:10.020694-07:00,1922.3,541.0,1059.9,1285.5,885.6,1125.2,1267.6,1300.7,3451.6,3435.8,1463.5,1290.0,1291.8,3439.5,979.0,1395.7,3437.0,3433.4,705.2,1456.2,963.7,619.7,1227.5,1651.1,3443.1,3438.2,666.0,894.9,1230.2,1317.8,1129.6,964.5,19.0,-65.0,47.0,5000.0,7762.0,-11790.0,-6647.0,-277.0,188.0,201.0,2.0,10.0,-11.0,7957.0,8229.0,9627.0,6688.0,-46.0,-55.0,47.0,1.0
2022-05-13 15:01:10.064126-07:00,1924.3,543.4,1050.4,1285.5,882.3,1125.2,1267.6,1300.7,3438.2,3439.5,1461.7,1290.0,1293.6,3439.5,979.0,1395.7,3437.0,3433.4,705.2,1444.2,963.7,621.4,1231.0,1646.4,3443.1,3438.2,666.0,892.4,1230.2,1315.1,1132.2,967.9,0.0,-84.0,64.0,5272.0,7649.0,-11757.0,-6625.0,-448.0,509.0,673.0,-18.0,27.0,17.0,7957.0,8268.0,9578.0,6711.0,52.0,-88.0,197.0,1.0
2022-05-13 15:01:10.065733-07:00,1924.3,543.4,1050.4,1289.1,882.3,1126.1,1270.3,1297.2,3438.2,3439.5,1461.7,1283.7,1293.6,3439.5,977.3,1414.0,3438.2,3439.5,703.6,1444.2,963.7,621.4,1231.0,1646.4,3449.1,3437.0,671.7,892.4,1231.9,1315.1,1132.2,967.9,53.0,-183.0,131.0,5818.0,7300.0,-11808.0,-6470.0,-574.0,821.0,1785.0,-16.0,-25.0,-14.0,7871.0,8402.0,9536.0,6704.0,396.0,-24.0,386.0,1.0
2022-05-13 15:01:10.068300-07:00,1922.3,545.0,1052.2,1280.1,880.6,1126.1,1270.3,1297.2,3441.9,3434.6,1457.1,1281.0,1290.0,3439.5,977.3,1414.0,3438.2,3439.5,703.6,1457.1,967.9,617.3,1229.3,1651.1,3449.1,3437.0,671.7,899.1,1240.8,1318.7,1113.0,967.1,122.0,-119.0,148.0,6872.0,6518.0,-11912.0,-6070.0,-1242.0,1855.0,3196.0,-19.0,-76.0,-45.0,7655.0,8617.0,9490.0,6748.0,317.0,215.0,749.0,1.0
2022-05-13 15:01:10.069449-07:00,1922.3,545.0,1052.2,1280.1,883.1,1114.7,1345.8,1347.6,3441.9,3434.6,1457.1,1281.0,1288.2,3440.7,969.6,1393.0,3435.8,3440.7,710.1,1512.5,967.9,617.3,1229.3,1651.1,3438.2,3446.7,666.0,895.7,1240.8,1318.7,1113.0,967.1,4.0,163.0,-115.0,8276.0,5378.0,-11812.0,-5611.0,-2112.0,1514.0,3459.0,22.0,21.0,130.0,7391.0,8797.0,9385.0,6953.0,21.0,314.0,857.0,1.0
2022-05-13 15:01:10.153666-07:00,1949.9,546.6,1059.1,1287.3,883.1,1114.7,1345.8,1347.6,3438.2,3439.5,1452.5,1290.0,1288.2,3440.7,969.6,1393.0,3435.8,3440.7,710.1,1512.5,1022.8,647.3,1246.2,1654.9,3438.2,3446.7,666.0,895.7,1229.3,1318.7,1133.1,962.8,25.0,131.0,-128.0,9031.0,4274.0,-11830.0,-5352.0,-349.0,-30.0,2075.0,49.0,-59.0,-41.0,7081.0,8974.0,9402.0,7024.0,908.0,322.0,385.0,1.0
2022-05-13 15:01:10.242321-07:00,1949.9,546.6,1059.1,1287.3,888.2,1100.8,1367.6,1361.2,3438.2,3439.5,1452.5,1290.0,1293.6,3438.2,970.5,1390.3,3437.0,3439.5,711.8,1579.6,1022.8,647.3,1246.2,1654.9,3447.9,3433.4,709.3,910.1,1229.3,1318.7,1133.1,962.8,74.0,225.0,-65.0,9004.0,4100.0,-12071.0,-4983.0,654.0,-233.0,258.0,-33.0,113.0,-97.0,6792.0,9137.0,9602.0,6829.0,654.0,77.0,-82.0,1.0
2022-05-13 15:01:10.468392-07:00,1976.6,555.4,1055.6,1290.0,888.2,1100.8,1367.6,1361.2,3439.5,3441.9,1446.0,1279.2,1293.6,3438.2,970.5,1390.3,3437.0,3439.5,711.8,1579.6,1028.8,657.0,1256.0,1653.9,3447.9,3433.4,709.3,910.1,1232.8,1325.9,1124.4,967.1,-38.0,-68.0,1.0,9051.0,4094.0,-12059.0,-4932.0,-209.0,276.0,130.0,0.0,-67.0,9.0,6776.0,9139.0,9626.0,6808.0,-102.0,-1.0,34.0,1.0
2022-05-13 15:01:10.473032-07:00,1976.6,555.4,1055.6,1290.0,885.6,1110.4,1378.5,1375.7,3439.5,3441.9,1446.0,1279.2,1296.3,3437.0,961.1,1396.7,3445.5,3438.2,716.7,1574.9,1028.8,657.0,1256.0,1653.9,3441.9,3449.1,696.2,915.2,1232.8,1325.9,1124.4,967.1,-20.0,60.0,-36.0,9144.0,4037.0,-12052.0,-4823.0,178.0,42.0,313.0,11.0,17.0,33.0,6736.0,9166.0,9627.0,6809.0,217.0,42.0,59.0,1.0
2022-05-13 15:01:10.513674-07:00,1972.7,546.6,1053.0,1286.4,885.6,1110.4,1378.5,1360.3,3450.4,3444.3,1452.5,1284.6,1296.3,3437.0,961.1,1393.0,3435.8,3438.2,716.7,1574.9,1035.7,663.6,1292.7,1653.9,3438.2,3449.1,696.2,915.2,1239.9,1311.5,1129.6,962.0,25.0,37.0,16.0,9138.0,3998.0,-12096.0,-4758.0,-3.0,14.0,108.0,-2.0,8.0,-27.0,6691.0,9188.0,9660.0,6777.0,66.0,25.0,-13.0,1.0
2022-05-13 15:01:10.514958-07:00,1959.8,546.6,1053.0,1286.4,881.4,1101.7,1376.6,1360.3,3438.2,3444.3,1452.5,1284.6,1290.0,3437.0,966.2,1393.0,3435.8,3439.5,720.8,1575.8,1035.7,663.6,1292.7,1649.2,3438.2,3435.8,696.2,919.4,1239.9,1311.5,1129.6,970.5,-32.0,-2.0,-11.0,9228.0,4009.0,-12024.0,-4759.0,-64.0,342.0,-42.0,-10.0,-25.0,32.0,6725.0,9157.0,9635.0,6821.0,-208.0,19.0,3.0,1.0
2022-05-13 15:01:10.516035-07:00,1959.8,543.4,1061.7,1296.3,881.4,1101.7,1376.6,1375.7,3438.2,3437.0,1452.5,1277.4,1290.0,3437.0,966.2,1393.0,3439.5,3439.5,720.8,1575.8,1027.1,664.4,1323.2,1649.2,3438.2,3435.8,696.2,919.4,1233.7,1315.1,1134.0,970.5,-11.0,24.0,-31.0,9245.0,4029.0,-12012.0,-4738.0,50.0,-80.0,30.0,-13.0,8.0,1.0,6720.0,9148.0,9643.0,6827.0,84.0,20.0,-16.0,1.0
2022-05-13 15:01:10.558442-07:00,1954.8,551.4,1052.2,1283.7,888.2,1108.6,1372.1,1362.1,3435.8,3440.7,1442.4,1281.0,1286.4,3444.3,967.9,1392.1,3428.6,3435.8,720.0,1569.3,1033.2,659.5,1316.0,1656.8,3445.5,3440.7,702.8,911.8,1234.6,1322.3,1133.1,965.4,-18.0,0.0,-24.0,9256.0,4039.0,-11992.0,-4759.0,29.0,-50.0,-36.0,-5.0,-1.0,10.0,6748.0,9131.0,9622.0,6852.0,13.0,-10.0,-14.0,1.0
2022-05-13 15:01:10.682607-07:00,1961.8,546.6,1052.2,1283.7,889.8,1111.2,1367.6,1362.1,3443.1,3444.3,1442.4,1281.0,1296.3,3440.7,962.0,1392.1,3428.6,3441.9,724.1,1559.9,1033.2,659.5,1315.1,1651.1,3445.5,3437.0,701.1,911.0,1234.6,1322.3,1133.1,960.2,8.0,6.0,10.0,9234.0,4036.0,-12010.0,-4759.0,-4.0,-15.0,24.0,0.0,-1.0,-4.0,6741.0,9138.0,9630.0,6839.0,14.0,-3.0,-2.0,1.0
2022-05-13 15:01:10.684442-07:00,1961.8,546.6,1055.6,1283.7,889.8,1111.2,1370.3,1362.1,3443.1,3444.3,1447.9,1285.5,1296.3,3440.7,967.9,1393.9,3428.6,3441.9,724.1,1559.9,1034.9,657.9,1315.1,1651.1,3450.4,3441.9,701.1,911.0,1234.6,1313.3,1133.1,960.2,-10.0,21.0,-7.0,9251.0,4053.0,-11993.0,-4755.0,20.0,58.0,-41.0,-6.0,7.0,11.0,6746.0,9131.0,9626.0,6847.0,-38.0,9.0,-9.0,1.0
2022-05-13 15:01:10.693905-07:00,1962.8,541.8,1055.6,1283.7,882.3,1098.2,1370.3,1362.1,3439.5,3439.5,1447.9,1285.5,1293.6,3432.2,967.9,1393.9,3428.6,3441.9,716.7,1559.9,1034.9,657.9,1313.3,1649.2,3450.4,3441.9,701.1,910.1,1234.6,1313.3,1134.0,961.1,-10.0,3.0,-7.0,9242.0,4073.0,-11995.0,-4749.0,40.0,-6.0,2.0,-7.0,-1.0,-5.0,6745.0,9129.0,9632.0,6844.0,26.0,12.0,-11.0,1.0
2022-05-13 15:01:10.737229-07:00,1962.8,541.8,1047.0,1283.7,882.3,1098.2,1353.1,1361.2,3439.5,3439.5,1447.0,1285.5,1293.6,3432.2,975.6,1393.0,3435.8,3438.2,716.7,1559.9,1027.1,657.0,1313.3,1649.2,3435.8,3449.1,701.1,910.1,1235.5,1317.8,1134.0,961.1,-14.0,23.0,-24.0,9249.0,4080.0,-11991.0,-4739.0,-6.0,36.0,-10.0,-7.0,-2.0,0.0,6744.0,9127.0,9633.0,6847.0,-28.0,2.0,3.0,1.0
2022-05-13 15:01:10.782096-07:00,1948.9,545.8,1047.0,1283.7,891.5,1102.5,1353.1,1361.2,3438.2,3438.2,1447.0,1285.5,1296.3,3447.9,975.6,1393.0,3435.8,3438.2,720.8,1560.9,1027.1,657.0,1320.5,1647.3,3435.8,3449.1,698.7,910.1,1235.5,1317.8,1134.9,963.7,-11.0,7.0,-4.0,9234.0,4093.0,-12000.0,-4735.0,46.0,-26.0,18.0,-10.0,0.0,1.0,6741.0,9129.0,9635.0,6844.0,30.0,1.0,-2.0,1.0
2022-05-13 15:01:10.827113-07:00,1948.9,545.8,1047.0,1287.3,891.5,1100.8,1366.6,1357.6,3438.2,3438.2,1448.8,1285.5,1296.3,3440.7,965.4,1392.1,3441.9,3433.4,718.4,1560.9,1032.3,657.9,1320.5,1647.3,3446.7,3443.1,692.1,910.1,1239.1,1304.3,1134.9,963.7,-3.0,22.0,-9.0,9223.0,4095.0,-12012.0,-4724.0,26.0,-27.0,8.0,-8.0,6.0,0.0,6736.0,9132.0,9638.0,6839.0,17.0,-1.0,-1.0,1.0
2022-05-13 15:01:11.008830-07:00,1952.9,543.4,1052.2,1287.3,873.8,1100.8,1366.6,1357.6,3443.1,3440.7,1444.2,1285.5,1298.1,3440.7,965.4,1392.1,3441.9,3433.4,718.4,1556.2,1032.3,662.7,1334.1,1669.1,3446.7,3443.1,692.1,910.1,1239.1,1317.8,1124.4,963.7,-9.0,1.0,5.0,9217.0,4106.0,-12015.0,-4718.0,36.0,30.0,-4.0,-6.0,-2.0,0.0,6734.0,9133.0,9640.0,6837.0,1.0,5.0,-2.0,1.0
2022-05-13 15:01:11.010023-07:00,1952.9,543.4,1052.2,1283.7,873.8,1099.0,1359.4,1363.0,3443.1,3440.7,1444.2,1284.6,1298.1,3444.3,959.4,1389.4,3438.2,3438.2,719.2,1556.2,1019.4,662.7,1334.1,1669.1,3447.9,3446.7,690.5,910.1,1239.9,1317.8,1124.4,963.7,-6.0,15.0,-13.0,9228.0,4116.0,-12008.0,-4705.0,10.0,40.0,1.0,-2.0,-3.0,1.0,6733.0,9131.0,9640.0,6840.0,-10.0,9.0,4.0,1.0
2022-05-13 15:01:11.054113-07:00,1949.9,550.6,1058.2,1283.7,893.2,1099.0,1359.4,1363.0,3435.8,3440.7,1448.8,1284.6,1297.2,3444.3,959.4,1389.4,3438.2,3438.2,719.2,1563.7,1019.4,657.9,1335.0,1649.2,3447.9,3446.7,690.5,911.0,1239.9,1322.3,1137.5,962.8,-8.0,-5.0,-6.0,9230.0,4123.0,-12004.0,-4705.0,5.0,12.0,1.0,-3.0,-4.0,0.0,6733.0,9131.0,9640.0,6840.0,5.0,6.0,0.0,1.0
2022-05-13 15:01:11.055471-07:00,1949.9,550.6,1058.2,1281.9,893.2,1107.8,1361.2,1352.1,3435.8,3440.7,1448.8,1285.5,1297.2,3438.2,962.0,1390.3,3438.2,3433.4,720.0,1563.7,1027.1,657.9,1335.0,1649.2,3449.1,3437.0,702.8,911.0,1236.4,1322.3,1137.5,962.8,-5.0,17.0,-9.0,9230.0,4125.0,-12010.0,-4690.0,18.0,-7.0,22.0,-6.0,3.0,0.0,6727.0,9132.0,9645.0,6838.0,11.0,10.0,5.0,1.0
2022-05-13 15:01:11.097653-07:00,1951.9,543.4,1059.9,1281.9,880.6,1107.8,1361.2,1352.1,3449.1,3437.0,1443.3,1285.5,1288.2,3438.2,962.0,1390.3,3438.2,3433.4,720.0,1560.9,1027.1,660.3,1329.6,1653.0,3449.1,3437.0,702.8,913.5,1236.4,1317.8,1131.4,965.4,-12.0,13.0,-11.0,9224.0,4129.0,-12013.0,-4690.0,30.0,-26.0,-16.0,-10.0,-3.0,-1.0,6727.0,9132.0,9645.0,6838.0,5.0,-2.0,-3.0,1.0
2022-05-13 15:01:11.142057-07:00,1951.9,543.4,1059.9,1281.9,877.2,1106.9,1368.5,1355.8,3449.1,3437.0,1443.3,1280.1,1296.3,3444.3,965.4,1393.0,3433.4,3433.4,725.8,1557.1,1025.4,660.3,1329.6,1653.0,3439.5,3438.2,697.9,914.4,1242.6,1317.8,1131.4,965.4,-9.0,0.0,-2.0,9206.0,4133.0,-12025.0,-4689.0,12.0,-29.0,14.0,-6.0,-11.0,-2.0,6727.0,9133.0,9645.0,6838.0,9.0,1.0,8.0,1.0
2022-05-13 15:01:11.278591-07:00,1955.8,551.4,1048.7,1283.7,877.2,1106.9,1368.5,1355.8,3440.7,3433.4,1448.8,1281.9,1296.3,3444.3,965.4,1393.0,3433.4,3433.4,725.8,1557.1,1028.8,660.3,1333.2,1653.9,3439.5,3438.2,697.9,914.4,1230.2,1325.0,1125.2,966.2,-7.0,23.0,-9.0,9209.0,4127.0,-12028.0,-4682.0,-3.0,24.0,17.0,-8.0,1.0,1.0,6724.0,9136.0,9643.0,6839.0,-4.0,3.0,13.0,1.0
2022-05-13 15:01:11.279829-07:00,1955.8,551.4,1048.7,1283.7,886.5,1096.4,1351.2,1363.9,3440.7,3433.4,1448.8,1281.9,1293.6,3431.0,955.1,1395.7,3433.4,3434.6,712.6,1550.6,1028.8,660.3,1333.2,1653.9,3447.9,3438.2,693.8,907.6,1230.2,1325.0,1125.2,966.2,-10.0,8.0,-3.0,9205.0,4130.0,-12031.0,-4681.0,44.0,-51.0,-3.0,-5.0,0.0,4.0,6721.0,9138.0,9645.0,6837.0,31.0,1.0,-7.0,1.0
2022-05-13 15:01:11.280910-07:00,1949.9,537.0,1047.0,1286.4,886.5,1096.4,1351.2,1363.9,3443.1,3450.4,1437.8,1281.0,1293.6,3431.0,955.1,1395.7,3433.4,3434.6,712.6,1550.6,1021.1,655.4,1335.0,1654.9,3447.9,3438.2,693.8,907.6,1223.9,1316.9,1133.1,962.8,-4.0,4.0,1.0,9192.0,4132.0,-12042.0,-4674.0,21.0,11.0,8.0,-3.0,-4.0,-5.0,6718.0,9140.0,9647.0,6834.0,2.0,12.0,3.0,1.0
2022-05-13 15:01:11.322512-07:00,1949.9,537.0,1047.0,1286.4,878.0,1097.3,1360.3,1354.0,3443.1,3450.4,1437.8,1281.0,1291.8,3434.6,959.4,1397.6,3433.4,3449.1,722.5,1550.6,1021.1,655.4,1335.0,1654.9,3434.6,3439.5,690.5,910.1,1223.9,1316.9,1133.1,962.8,-4.0,6.0,-7.0,9192.0,4139.0,-12043.0,-4667.0,1.0,-1.0,8.0,-6.0,0.0,-2.0,6717.0,9139.0,9648.0,6835.0,5.0,5.0,0.0,1.0
2022-05-13 15:01:11.369169-07:00,1946.9,541.8,1048.7,1285.5,878.0,1097.3,1360.3,1357.6,3438.2,3427.4,1443.3,1281.0,1291.8,3434.6,959.4,1392.1,3440.7,3449.1,722.5,1550.6,1021.9,655.4,1335.0,1653.0,3444.3,3439.5,690.5,910.1,1231.9,1307.0,1127.0,959.4,-1.0,11.0,-3.0,9190.0,4141.0,-12043.0,-4668.0,6.0,3.0,-7.0,-7.0,2.0,-4.0,6717.0,9140.0,9648.0,6834.0,-2.0,6.0,-1.0,1.0
2022-05-13 15:01:11.413464-07:00,1947.9,541.8,1048.7,1285.5,879.7,1097.3,1370.3,1357.6,3444.3,3427.4,1443.3,1281.0,1296.3,3438.2,960.2,1392.1,3440.7,3439.5,714.2,1556.2,1021.9,655.4,1335.0,1654.9,3444.3,3438.2,697.9,911.0,1231.9,1307.0,1127.0,962.8,-4.0,2.0,0.0,9188.0,4147.0,-12043.0,-4667.0,17.0,-8.0,-6.0,-7.0,0.0,3.0,6717.0,9139.0,9648.0,6835.0,7.0,3.0,-1.0,1.0
2022-05-13 15:01:11.502012-07:00,1947.9,541.0,1048.7,1286.4,879.7,1097.3,1370.3,1358.5,3444.3,3440.7,1439.6,1284.6,1296.3,3438.2,960.2,1390.3,3441.9,3439.5,714.2,1556.2,1025.4,654.6,1335.0,1654.9,3444.3,3438.2,697.9,911.0,1239.9,1311.5,1132.2,962.8,-2.0,14.0,0.0,9185.0,4152.0,-12047.0,-4660.0,24.0,1.0,2.0,-4.0,3.0,2.0,6713.0,9142.0,9650.0,6831.0,13.0,8.0,-2.0,1.0
2022-05-13 15:01:11.684088-07:00,1939.0,541.0,1048.7,1286.4,878.0,1097.3,1362.1,1358.5,3431.0,3440.7,1439.6,1284.6,1280.1,3440.7,963.7,1390.3,3441.9,3434.6,718.4,1551.5,1025.4,654.6,1335.0,1652.0,3444.3,3451.6,695.4,911.0,1239.9,1311.5,1132.2,963.7,-12.0,4.0,-13.0,9186.0,4158.0,-12046.0,-4655.0,14.0,19.0,-7.0,-12.0,-2.0,1.0,6712.0,9141.0,9651.0,6832.0,1.0,6.0,-2.0,1.0
2022-05-13 15:01:11.685810-07:00,1939.0,536.2,1053.0,1304.3,878.0,1097.3,1362.1,1360.3,3431.0,3437.0,1439.6,1278.3,1280.1,3440.7,963.7,1388.5,3434.6,3434.6,718.4,1551.5,1023.7,657.9,1331.4,1652.0,3432.2,3451.6,695.4,911.0,1231.9,1312.4,1123.5,963.7,-5.0,13.0,-16.0,9183.0,4163.0,-12049.0,-4646.0,9.0,-2.0,14.0,-7.0,0.0,-8.0,6709.0,9143.0,9653.0,6830.0,5.0,-1.0,4.0,1.0
2022-05-13 15:01:11.686891-07:00,1943.0,536.2,1053.0,1304.3,884.8,1096.4,1350.3,1360.3,3439.5,3437.0,1439.6,1278.3,1296.3,3441.9,960.2,1388.5,3434.6,3440.7,720.8,1556.2,1023.7,657.9,1331.4,1654.9,3432.2,3437.0,690.5,920.3,1231.9,1312.4,1123.5,962.0,-10.0,6.0,-5.0,9179.0,4162.0,-12051.0,-4650.0,-6.0,-26.0,-8.0,-6.0,0.0,0.0,6711.0,9144.0,9652.0,6828.0,-2.0,-11.0,1.0,1.0
2022-05-13 15:01:11.687973-07:00,1943.0,542.6,1052.2,1288.2,884.8,1096.4,1354.9,1344.0,3439.5,3449.1,1442.4,1285.5,1296.3,3441.9,962.8,1387.5,3445.5,3449.1,720.8,1556.2,1022.8,655.4,1329.6,1654.9,3444.3,3444.3,690.5,920.3,1231.0,1320.5,1124.4,962.0,-9.0,7.0,-3.0,9162.0,4164.0,-12062.0,-4657.0,35.0,-70.0,-11.0,-3.0,-6.0,4.0,6711.0,9146.0,9652.0,6825.0,22.0,-9.0,-3.0,1.0
2022-05-13 15:01:11.728733-07:00,1945.0,539.4,1052.2,1288.2,892.4,1105.1,1354.9,1344.0,3439.5,3444.3,1442.4,1285.5,1292.7,3434.6,962.8,1387.5,3445.5,3449.1,719.2,1552.5,1022.8,655.4,1330.5,1652.0,3444.3,3444.3,693.8,907.6,1231.0,1320.5,1134.0,971.3,1.0,8.0,4.0,9131.0,4171.0,-12086.0,-4647.0,44.0,-45.0,11.0,-7.0,0.0,-1.0,6703.0,9154.0,9658.0,6814.0,22.0,-2.0,4.0,1.0
2022-05-13 15:01:11.772121-07:00,1945.0,539.4,1053.9,1285.5,892.4,1105.1,1359.4,1357.6,3439.5,3444.3,1443.3,1280.1,1292.7,3434.6,957.7,1388.5,3433.4,3437.0,719.2,1552.5,1017.6,653.0,1330.5,1652.0,3433.4,3434.6,693.8,907.6,1231.9,1313.3,1134.0,971.3,-2.0,18.0,2.0,9129.0,4170.0,-12090.0,-4642.0,-13.0,29.0,-6.0,-1.0,2.0,2.0,6703.0,9153.0,9658.0,6815.0,-23.0,8.0,3.0,1.0
2022-05-13 15:01:11.816982-07:00,1942.0,541.0,1053.9,1285.5,884.8,1102.5,1359.4,1357.6,3428.6,3438.2,1443.3,1280.1,1287.3,3435.8,957.7,1388.5,3433.4,3437.0,711.8,1547.8,1017.6,653.0,1331.4,1649.2,3433.4,3434.6,696.2,916.0,1231.9,1313.3,1127.0,961.1,-6.0,0.0,-4.0,9135.0,4176.0,-12083.0,-4643.0,30.0,4.0,-3.0,-6.0,-4.0,5.0,6706.0,9151.0,9656.0,6818.0,13.0,10.0,-4.0,1.0
2022-05-13 15:01:11.864006-07:00,1942.0,541.0,1038.3,1281.0,884.8,1102.5,1354.0,1368.5,3428.6,3438.2,1438.7,1284.6,1287.3,3435.8,962.0,1400.3,3439.5,3435.8,711.8,1547.8,1019.4,653.8,1331.4,1649.2,3446.7,3440.7,696.2,916.0,1228.4,1311.5,1127.0,961.1,-5.0,17.0,-1.0,9133.0,4181.0,-12086.0,-4634.0,5.0,13.0,10.0,-9.0,0.0,-8.0,6703.0,9152.0,9658.0,6817.0,-15.0,2.0,0.0,1.0
2022-05-13 15:01:11.909183-07:00,1935.1,547.4,1048.7,1281.0,881.4,1104.3,1354.0,1368.5,3435.8,3449.1,1445.1,1284.6,1296.3,3443.1,962.0,1400.3,3439.5,3435.8,719.2,1549.7,1019.4,653.0,1330.5,1649.2,3446.7,3440.7,690.5,915.2,1228.4,1317.8,1124.4,960.2,-5.0,5.0,-8.0,9142.0,4185.0,-12077.0,-4638.0,1.0,12.0,-22.0,-4.0,0.0,-1.0,6707.0,9149.0,9656.0,6820.0,-6.0,2.0,-7.0,1.0
2022-05-13 15:01:12.000298-07:00,1935.1,547.4,1048.7,1284.6,881.4,1096.4,1350.3,1342.2,3435.8,3449.1,1445.1,1284.6,1296.3,3434.6,957.7,1395.7,3438.2,3438.2,715.9,1549.7,1016.8,653.0,1330.5,1649.2,3441.9,3441.9,696.2,915.2,1232.8,1317.8,1124.4,960.2,-4.0,15.0,-8.0,9138.0,4187.0,-12079.0,-4638.0,10.0,-20.0,3.0,-8.0,0.0,-4.0,6707.0,9149.0,9656.0,6820.0,0.0,-7.0,0.0,1.0
2022-05-13 15:01:12.088244-07:00,1933.1,545.8,1044.4,1284.6,880.6,1096.4,1350.3,1342.2,3444.3,3441.9,1443.3,1284.6,1293.6,3434.6,957.7,1395.7,3438.2,3438.2,715.9,1548.7,1016.8,652.2,1326.8,1650.2,3441.9,3441.9,696.2,913.5,1232.8,1325.9,1141.0,967.9,-6.0,10.0,-1.0,9130.0,4187.0,-12082.0,-4645.0,-20.0,-19.0,-32.0,-9.0,0.0,-2.0,6711.0,9150.0,9653.0,6819.0,-15.0,-14.0,-3.0,1.0
2022-05-13 15:01:12.089562-07:00,1933.1,545.8,1044.4,1281.0,880.6,1098.2,1345.8,1354.0,3444.3,3441.9,1443.3,1281.9,1293.6,3443.1,967.1,1389.4,3434.6,3439.5,714.2,1548.7,1015.1,652.2,1326.8,1650.2,3441.9,3439.5,693.8,913.5,1239.1,1325.9,1141.0,967.9,-8.0,5.0,-1.0,9125.0,4187.0,-12082.0,-4656.0,-6.0,-14.0,4.0,-3.0,-4.0,7.0,6718.0,9149.0,9648.0,6820.0,-3.0,-9.0,6.0,1.0
2022-05-13 15:01:12.132042-07:00,1944.0,541.8,1050.4,1281.0,883.9,1098.2,1345.8,1354.0,3441.9,3433.4,1445.1,1281.9,1287.3,3443.1,967.1,1389.4,3434.6,3439.5,714.2,1542.2,1015.1,657.0,1323.2,1652.0,3441.9,3439.5,693.8,909.3,1239.1,1323.2,1127.9,967.1,-4.0,19.0,5.0,9118.0,4184.0,-12090.0,-4651.0,16.0,-7.0,13.0,-6.0,-1.0,0.0,6717.0,9150.0,9649.0,6819.0,-6.0,-3.0,3.0,1.0
2022-05-13 15:01:12.224352-07:00,1944.0,541.8,1050.4,1290.0,883.9,1098.2,1351.2,1358.5,3441.9,3433.4,1445.1,1286.4,1287.3,3440.7,957.7,1389.4,3433.4,3437.0,718.4,1542.2,1017.6,657.0,1323.2,1652.0,3440.7,3431.0,685.6,909.3,1239.1,1323.2,1127.9,967.1,-12.0,6.0,-5.0,9121.0,4189.0,-12085.0,-4653.0,-5.0,25.0,-16.0,-11.0,-1.0,2.0,6721.0,9147.0,9646.0,6823.0,-18.0,0.0,-5.0,1.0
2022-05-13 15:01:12.269753-07:00,1943.0,544.2,1047.8,1285.5,880.6,1098.2,1351.2,1358.5,3449.1,3438.2,1440.5,1281.0,1286.4,3440.7,957.7,1389.4,3433.4,3437.0,718.4,1541.3,1017.6,651.4,1322.3,1653.9,3440.7,3431.0,685.6,911.0,1239.9,1312.4,1130.5,964.5,-7.0,11.0,-9.0,9124.0,4189.0,-12084.0,-4651.0,8.0,1.0,12.0,-10.0,-3.0,-3.0,6722.0,9146.0,9645.0,6824.0,1.0,2.0,5.0,1.0
2022-05-13 15:01:12.314927-07:00,1943.0,544.2,1047.8,1285.5,883.9,1098.2,1349.4,1356.7,3449.1,3438.2,1440.5,1281.0,1288.2,3433.4,962.0,1392.1,3439.5,3435.8,713.4,1552.5,1017.6,651.4,1322.3,1653.9,3445.5,3443.1,693.8,912.7,1239.9,1312.4,1130.5,964.5,-5.0,8.0,-7.0,9124.0,4188.0,-12084.0,-4651.0,-2.0,-2.0,-2.0,-5.0,-3.0,-1.0,6722.0,9146.0,9645.0,6824.0,-11.0,-8.0,0.0,1.0
2022-05-13 15:01:12.357928-07:00,1939.0,540.2,1051.3,1289.1,883.9,1098.2,1349.4,1356.7,3440.7,3439.5,1433.2,1283.7,1288.2,3433.4,962.0,1392.1,3439.5,3435.8,713.4,1552.5,1020.2,652.2,1324.1,1649.2,3445.5,3443.1,693.8,912.7,1240.8,1318.7,1130.5,968.8,-4.0,3.0,0.0,9122.0,4187.0,-12084.0,-4655.0,5.0,-17.0,6.0,-6.0,-3.0,1.0,6724.0,9146.0,9644.0,6824.0,7.0,-5.0,5.0,1.0
2022-05-13 15:01:12.359742-07:00,1939.0,540.2,1051.3,1289.1,883.1,1102.5,1347.6,1347.6,3440.7,3439.5,1433.2,1283.7,1297.2,3446.7,958.5,1382.1,3433.4,3428.6,720.8,1538.5,1020.2,652.2,1324.1,1649.2,3439.5,3444.3,701.1,912.7,1240.8,1318.7,1130.5,968.8,-3.0,5.0,1.0,9122.0,4183.0,-12086.0,-4655.0,-11.0,1.0,-8.0,-6.0,-1.0,1.0,6725.0,9146.0,9643.0,6825.0,-10.0,-6.0,2.0,1.0
2022-05-13 15:01:12.447111-07:00,1932.1,539.4,1040.1,1281.0,883.1,1102.5,1347.6,1347.6,3446.7,3444.3,1429.5,1282.8,1297.2,3446.7,958.5,1382.1,3433.4,3428.6,720.8,1538.5,1010.8,649.7,1331.4,1652.0,3439.5,3444.3,701.1,912.7,1231.0,1312.4,1128.7,958.5,-5.0,4.0,2.0,9121.0,4184.0,-12086.0,-4653.0,6.0,0.0,-3.0,-9.0,0.0,-1.0,6725.0,9145.0,9643.0,6825.0,4.0,3.0,1.0,1.0
2022-05-13 15:01:12.493165-07:00,1941.0,539.4,1040.1,1281.0,881.4,1109.5,1355.8,1350.3,3445.5,3444.3,1429.5,1282.8,1291.8,3444.3,961.1,1387.5,3433.4,3438.2,714.2,1537.6,1010.8,649.7,1331.4,1657.7,3443.1,3443.1,691.3,914.4,1231.0,1312.4,1128.7,971.3,-5.0,14.0,-4.0,9128.0,4181.0,-12082.0,-4654.0,-14.0,20.0,1.0,-6.0,-4.0,0.0,6728.0,9144.0,9639.0,6829.0,-19.0,4.0,3.0,1.0
2022-05-13 15:01:12.673640-07:00,1941.0,537.0,1045.2,1291.8,881.4,1109.5,1355.8,1344.0,3445.5,3449.1,1434.1,1283.7,1291.8,3444.3,961.1,1391.2,3437.0,3438.2,714.2,1537.6,1014.2,648.9,1323.2,1657.7,3441.9,3443.1,691.3,914.4,1235.5,1312.4,1129.6,971.3,-4.0,12.0,-2.0,9131.0,4183.0,-12075.0,-4664.0,-48.0,21.0,-36.0,-8.0,-3.0,-7.0,6735.0,9139.0,9634.0,6837.0,-81.0,-17.0,-3.0,1.0
2022-05-13 15:01:12.674930-07:00,1933.1,537.0,1045.2,1291.8,882.3,1099.9,1349.4,1344.0,3449.1,3449.1,1434.1,1283.7,1290.9,3444.3,960.2,1391.2,3437.0,3439.5,715.1,1542.2,1014.2,648.9,1323.2,1649.2,3441.9,3445.5,692.9,913.5,1235.5,1312.4,1129.6,962.8,-17.0,0.0,-10.0,9144.0,4188.0,-12056.0,-4684.0,3.0,11.0,13.0,-9.0,-10.0,9.0,6756.0,9127.0,9619.0,6855.0,-10.0,-1.0,6.0,1.0
2022-05-13 15:01:12.676038-07:00,1933.1,549.8,1047.8,1281.0,882.3,1099.9,1349.4,1354.9,3449.1,3446.7,1445.1,1280.1,1290.9,3444.3,960.2,1389.4,3443.1,3439.5,715.1,1542.2,1024.5,652.2,1318.7,1649.2,3441.9,3445.5,692.9,913.5,1235.5,1317.8,1127.9,962.8,2.0,17.0,0.0,9140.0,4183.0,-12061.0,-4683.0,-1.0,-16.0,-4.0,-6.0,2.0,-4.0,6755.0,9128.0,9619.0,6853.0,-1.0,-8.0,0.0,1.0
2022-05-13 15:01:12.717914-07:00,1936.1,549.8,1047.8,1281.0,877.2,1095.6,1340.4,1354.9,3449.1,3446.7,1445.1,1280.1,1296.3,3440.7,962.8,1389.4,3443.1,3433.4,715.1,1541.3,1024.5,652.2,1318.7,1655.8,3441.9,3449.1,692.9,899.1,1235.5,1317.8,1127.9,964.5,-10.0,-9.0,1.0,9145.0,4185.0,-12054.0,-4689.0,4.0,21.0,8.0,-3.0,-9.0,7.0,6759.0,9125.0,9616.0,6857.0,-5.0,1.0,4.0,1.0
2022-05-13 15:01:12.719326-07:00,1936.1,541.0,1050.4,1286.4,877.2,1095.6,1349.4,1354.0,3449.1,3444.3,1439.6,1297.2,1296.3,3440.7,956.0,1386.6,3434.6,3432.2,715.1,1541.3,1007.3,652.2,1320.5,1655.8,3438.2,3444.3,692.9,899.1,1237.3,1314.2,1129.6,964.5,0.0,9.0,-1.0,9145.0,4183.0,-12057.0,-4683.0,24.0,-8.0,8.0,-3.0,1.0,-5.0,6757.0,9126.0,9618.0,6855.0,16.0,3.0,-2.0,1.0
2022-05-13 15:01:12.761221-07:00,1934.1,543.4,1050.4,1286.4,887.3,1092.1,1349.4,1354.0,3435.8,3444.3,1439.6,1297.2,1293.6,3449.1,956.0,1386.6,3434.6,3432.2,715.1,1539.4,1007.3,652.2,1320.5,1651.1,3438.2,3444.3,692.9,905.9,1237.3,1314.2,1122.6,965.4,0.0,11.0,-2.0,9145.0,4186.0,-12055.0,-4687.0,-23.0,13.0,-22.0,-12.0,2.0,-4.0,6758.0,9126.0,9617.0,6856.0,-27.0,-7.0,-4.0,1.0
2022-05-13 15:01:12.809114-07:00,1934.1,543.4,1053.0,1283.7,887.3,1092.1,1354.0,1345.8,3435.8,3444.3,1440.5,1282.8,1293.6,3449.1,956.0,1385.7,3433.4,3432.2,715.1,1539.4,1015.9,653.8,1320.5,1651.1,3443.1,3439.5,692.9,905.9,1233.7,1316.0,1122.6,965.4,18.0,59.0,-16.0,9155.0,4194.0,-12033.0,-4717.0,-149.0,68.0,-128.0,-10.0,22.0,-36.0,6773.0,9115.0,9606.0,6871.0,-253.0,-23.0,-2.0,1.0
2022-05-13 15:01:12.853510-07:00,1928.2,543.4,1053.0,1283.7,879.7,1095.6,1354.0,1345.8,3434.6,3438.2,1440.5,1282.8,1293.6,3434.6,956.0,1385.7,3433.4,3432.2,718.4,1540.3,1015.9,653.8,1325.0,1652.0,3443.1,3439.5,686.4,910.1,1233.7,1316.0,1126.1,968.8,20.0,144.0,-84.0,9216.0,4265.0,-11861.0,-4963.0,-651.0,245.0,-850.0,-11.0,37.0,-11.0,6927.0,9021.0,9493.0,6997.0,-1055.0,-133.0,-40.0,1.0
2022-05-13 15:01:13.034190-07:00,1928.2,543.4,1053.9,1284.6,879.7,1095.6,1348.5,1343.1,3434.6,3438.2,1437.8,1280.1,1293.6,3434.6,960.2,1399.4,3431.0,3429.8,718.4,1540.3,1012.5,653.8,1325.0,1652.0,3444.3,3435.8,686.4,910.1,1239.9,1315.1,1126.1,968.8,-1.0,17.0,-43.0,9083.0,4547.0,-11645.0,-5446.0,-202.0,-208.0,-1484.0,-7.0,-41.0,7.0,7253.0,8837.0,9277.0,7189.0,-769.0,-279.0,-211.0,1.0
2022-05-13 15:01:13.035406-07:00,1937.1,545.8,1053.9,1284.6,885.6,1099.9,1348.5,1343.1,3435.8,3438.2,1437.8,1280.1,1296.3,3438.2,960.2,1399.4,3431.0,3429.8,713.4,1536.6,1012.5,653.8,1302.5,1655.8,3444.3,3435.8,689.7,913.5,1239.9,1315.1,1125.2,962.0,-4.0,39.0,-11.0,8693.0,5079.0,-11592.0,-5719.0,683.0,-461.0,-1621.0,8.0,11.0,46.0,7479.0,8728.0,9191.0,7199.0,-302.0,-210.0,-312.0,1.0
2022-05-13 15:01:13.036571-07:00,1937.1,545.8,1051.3,1284.6,885.6,1110.4,1334.1,1344.9,3435.8,3438.2,1438.7,1281.0,1296.3,3443.1,963.7,1393.9,3431.0,3434.6,715.1,1536.6,1007.3,661.9,1302.5,1655.8,3435.8,3447.9,684.8,913.5,1231.0,1323.2,1125.2,962.0,25.0,87.0,-47.0,8091.0,5649.0,-11583.0,-6074.0,510.0,-946.0,-2058.0,-4.0,5.0,11.0,7691.0,8599.0,9150.0,7184.0,-476.0,-197.0,-454.0,1.0
2022-05-13 15:01:13.077204-07:00,1946.9,544.2,1063.4,1284.6,884.8,1110.4,1334.1,1344.9,3437.0,3438.2,1449.7,1281.0,1299.8,3443.1,963.7,1393.9,3431.0,3434.6,715.1,1532.9,1007.3,656.2,1290.0,1649.2,3435.8,3447.9,684.8,908.4,1231.0,1309.7,1130.5,970.5,75.0,-48.0,34.0,7301.0,6307.0,-11579.0,-6424.0,991.0,-948.0,-2117.0,-6.0,-61.0,-23.0,7913.0,8439.0,9150.0,7133.0,-191.0,-148.0,-503.0,1.0
2022-05-13 15:01:13.124748-07:00,1946.9,544.2,1063.4,1286.4,884.8,1129.6,1326.8,1343.1,3437.0,3438.2,1449.7,1281.0,1299.8,3437.0,969.6,1399.4,3428.6,3437.0,701.1,1532.9,1005.6,656.2,1290.0,1649.2,3447.9,3435.8,692.9,908.4,1229.3,1309.7,1130.5,970.5,39.0,-46.0,80.0,6540.0,6918.0,-11583.0,-6606.0,904.0,-750.0,-1624.0,-5.0,3.0,7.0,8053.0,8318.0,9213.0,7037.0,-77.0,-70.0,-412.0,1.0
2022-05-13 15:01:13.258344-07:00,1961.8,544.2,1056.5,1286.4,878.9,1129.6,1326.8,1343.1,3445.5,3433.4,1463.5,1281.0,1296.3,3437.0,969.6,1399.4,3428.6,3437.0,701.1,1516.2,1005.6,649.7,1288.2,1648.3,3447.9,3435.8,692.9,906.7,1229.3,1323.2,1131.4,964.5,22.0,32.0,35.0,5959.0,7375.0,-11542.0,-6731.0,664.0,-561.0,-1387.0,-34.0,72.0,29.0,8161.0,8205.0,9255.0,6990.0,-120.0,7.0,-326.0,1.0
2022-05-13 15:01:13.263062-07:00,1961.8,544.2,1056.5,1285.5,878.9,1120.0,1309.7,1331.4,3445.5,3433.4,1463.5,1290.0,1296.3,3426.2,973.9,1404.0,3434.6,3439.5,709.3,1516.2,997.0,649.7,1288.2,1648.3,3438.2,3438.2,687.2,906.7,1233.7,1323.2,1131.4,964.5,18.0,-73.0,85.0,5585.0,7718.0,-11414.0,-6884.0,133.0,-189.0,-1034.0,10.0,-50.0,28.0,8249.0,8100.0,9286.0,6968.0,-251.0,31.0,-222.0,1.0
2022-05-13 15:01:13.264351-07:00,1947.9,541.0,1055.6,1296.3,881.4,1120.0,1309.7,1331.4,3443.1,3433.4,1485.6,1296.3,1291.8,3426.2,973.9,1404.0,3434.6,3439.5,709.3,1509.7,986.7,648.1,1281.0,1653.9,3438.2,3438.2,687.2,898.3,1232.8,1320.5,1139.2,967.9,16.0,-50.0,51.0,5362.0,7941.0,-11319.0,-6964.0,197.0,-94.0,-524.0,-11.0,-2.0,-3.0,8306.0,8007.0,9303.0,6985.0,-44.0,65.0,-108.0,1.0
2022-05-13 15:01:13.304003-07:00,1947.9,541.0,1055.6,1296.3,883.1,1127.0,1318.7,1335.9,3443.1,3433.4,1485.6,1296.3,1296.3,3441.9,978.2,1396.7,3438.2,3428.6,712.6,1496.7,986.7,648.1,1281.0,1653.9,3440.7,3446.7,686.4,904.2,1232.8,1320.5,1139.2,967.9,5.0,-42.0,21.0,5299.0,8054.0,-11277.0,-6951.0,140.0,91.0,-160.0,-13.0,9.0,6.0,8305.0,7976.0,9330.0,6985.0,35.0,58.0,-24.0,1.0
2022-05-13 15:01:13.573559-07:00,1943.0,544.2,1059.9,1292.7,883.1,1127.0,1318.7,1335.9,3437.0,3449.1,1501.4,1295.4,1296.3,3441.9,978.2,1396.7,3438.2,3428.6,712.6,1496.7,979.0,644.0,1292.7,1653.0,3440.7,3446.7,686.4,904.2,1229.3,1322.3,1139.2,962.8,1.0,-38.0,2.0,5310.0,8070.0,-11275.0,-6927.0,-39.0,45.0,95.0,-9.0,-28.0,1.0,8288.0,7978.0,9344.0,6985.0,-1.0,10.0,47.0,1.0
2022-05-13 15:01:13.574954-07:00,1943.0,544.2,1059.9,1292.7,878.0,1128.7,1310.6,1324.1,3437.0,3449.1,1501.4,1295.4,1296.3,3439.5,980.7,1396.7,3441.9,3441.9,708.5,1487.5,979.0,644.0,1292.7,1653.0,3438.2,3449.1,679.1,902.5,1229.3,1322.3,1139.2,962.8,17.0,35.0,-17.0,5317.0,8032.0,-11313.0,-6905.0,80.0,-58.0,87.0,-17.0,9.0,-20.0,8275.0,7995.0,9339.0,6988.0,55.0,-15.0,21.0,1.0
2022-05-13 15:01:13.710102-07:00,1944.0,539.4,1066.0,1283.7,878.0,1128.7,1310.6,1324.1,3438.2,3438.2,1484.7,1288.2,1296.3,3439.5,980.7,1396.7,3441.9,3441.9,708.5,1487.5,979.9,640.8,1284.6,1652.0,3438.2,3449.1,679.1,902.5,1235.5,1317.8,1144.5,968.8,13.0,7.0,12.0,5313.0,8022.0,-11317.0,-6912.0,-105.0,-10.0,-7.0,-6.0,-16.0,8.0,8281.0,7999.0,9332.0,6985.0,-72.0,-34.0,11.0,1.0
2022-05-13 15:01:13.754361-07:00,1944.0,539.4,1066.0,1283.7,878.0,1113.0,1308.8,1330.5,3438.2,3438.2,1484.7,1288.2,1290.9,3444.3,977.3,1400.3,3432.2,3444.3,712.6,1478.3,979.9,640.8,1284.6,1652.0,3443.1,3441.9,676.6,905.9,1235.5,1317.8,1144.5,968.8,11.0,4.0,16.0,5318.0,7997.0,-11322.0,-6929.0,72.0,-81.0,77.0,-7.0,-5.0,9.0,8288.0,8005.0,9320.0,6987.0,64.0,-13.0,15.0,1.0
2022-05-13 15:01:13.889139-07:00,1944.0,545.0,1058.2,1283.7,878.0,1113.0,1308.8,1324.1,3441.9,3441.9,1476.4,1296.3,1290.9,3444.3,977.3,1400.3,3432.2,3444.3,712.6,1478.3,979.0,638.4,1277.4,1657.7,3441.9,3441.9,676.6,905.9,1235.5,1320.5,1137.5,967.1,20.0,29.0,25.0,5287.0,7976.0,-11356.0,-6921.0,10.0,-59.0,-2.0,-3.0,4.0,4.0,8278.0,8018.0,9326.0,6975.0,16.0,-7.0,0.0,1.0
2022-05-13 15:01:13.889967-07:00,1944.0,545.0,1058.2,1283.7,878.0,1113.0,1308.8,1324.1,3441.9,3441.9,1476.4,1296.3,1290.9,3444.3,977.3,1400.3,3432.2,3444.3,712.6,1478.3,979.0,638.4,1277.4,1657.7,3441.9,3441.9,676.6,905.9,1235.5,1320.5,1137.5,967.1,20.0,29.0,25.0,5287.0,7976.0,-11356.0,-6921.0,10.0,-59.0,-2.0,-3.0,4.0,4.0,8278.0,8018.0,9326.0,6975.0,16.0,-7.0,0.0,1.0
2022-05-13 15:01:13.891108-07:00,1940.0,543.4,1057.3,1280.1,894.9,1117.4,1300.7,1325.9,3435.8,3437.0,1486.6,1288.2,1294.5,3428.6,979.9,1397.6,3439.5,3440.7,711.0,1481.9,973.9,635.1,1287.3,1655.8,3450.4,3438.2,683.1,890.7,1231.9,1319.6,1135.7,960.2,15.0,16.0,7.0,5207.0,7970.0,-11396.0,-6922.0,64.0,-116.0,-32.0,-12.0,13.0,-7.0,8263.0,8027.0,9345.0,6956.0,45.0,9.0,-15.0,1.0
2022-05-13 15:01:13.934070-07:00,1940.0,544.2,1053.9,1288.2,886.5,1120.9,1303.4,1318.7,3439.5,3435.8,1482.9,1292.7,1293.6,3445.5,973.1,1398.5,3439.5,3437.0,709.3,1470.0,967.9,633.5,1283.7,1654.9,3450.4,3444.3,678.2,901.7,1231.0,1315.1,1134.0,968.8,-8.0,20.0,-5.0,5313.0,7905.0,-11353.0,-6989.0,-31.0,-9.0,38.0,-12.0,-1.0,21.0,8302.0,8011.0,9282.0,7013.0,-80.0,-1.0,34.0,1.0
2022-05-13 15:01:13.935277-07:00,1940.0,543.4,1053.9,1288.2,883.9,1120.0,1296.3,1318.7,3440.7,3434.6,1482.9,1292.7,1288.2,3446.7,980.7,1398.5,3439.5,3434.6,709.3,1462.6,967.9,633.5,1281.0,1655.8,3450.4,3443.1,677.4,902.5,1231.0,1315.1,1134.9,967.1,18.0,3.0,27.0,5290.0,7907.0,-11363.0,-6985.0,35.0,-9.0,-51.0,-1.0,-7.0,1.0,8300.0,8013.0,9289.0,7005.0,23.0,9.0,-28.0,1.0
2022-05-13 15:01:13.936005-07:00,1940.0,543.4,1053.9,1288.2,883.9,1120.0,1296.3,1318.7,3440.7,3434.6,1482.9,1292.7,1288.2,3446.7,980.7,1398.5,3439.5,3434.6,709.3,1462.6,967.9,633.5,1281.0,1655.8,3450.4,3443.1,677.4,902.5,1231.0,1315.1,1134.9,967.1,18.0,3.0,27.0,5290.0,7907.0,-11363.0,-6985.0,35.0,-9.0,-51.0,-1.0,-7.0,1.0,8300.0,8013.0,9289.0,7005.0,23.0,9.0,-28.0,1.0
2022-05-13 15:01:13.977138-07:00,1926.2,540.2,1053.9,1289.1,881.4,1119.1,1296.3,1309.7,3433.4,3428.6,1479.2,1288.2,1290.0,3440.7,975.6,1393.0,3434.6,3428.6,705.2,1474.6,980.7,632.7,1275.6,1652.0,3449.1,3441.9,677.4,894.9,1235.5,1321.4,1128.7,959.4,4.0,-24.0,17.0,5287.0,7923.0,-11368.0,-6962.0,1.0,16.0,21.0,-8.0,-27.0,8.0,8285.0,8022.0,9300.0,6997.0,-2.0,0.0,10.0,1.0
2022-05-13 15:01:14.024649-07:00,1922.3,537.0,1053.9,1289.1,881.4,1121.7,1296.3,1309.7,3438.2,3440.7,1479.2,1288.2,1287.3,3435.8,975.6,1393.0,3434.6,3428.6,708.5,1470.0,980.7,632.7,1273.0,1641.6,3449.1,3441.9,678.2,899.1,1235.5,1321.4,1140.1,961.1,10.0,32.0,5.0,5279.0,7918.0,-11384.0,-6949.0,51.0,-42.0,-2.0,-13.0,8.0,-2.0,8276.0,8031.0,9306.0,6989.0,42.0,-4.0,-5.0,1.0
2022-05-13 15:01:14.113314-07:00,1922.3,537.0,1051.3,1282.8,881.4,1114.7,1292.7,1314.2,3438.2,3440.7,1476.4,1288.2,1287.3,3445.5,979.9,1390.3,3437.0,3435.8,709.3,1470.0,973.9,634.3,1273.0,1641.6,3439.5,3438.2,679.9,899.1,1236.4,1320.5,1140.1,961.1,6.0,-10.0,26.0,5274.0,7919.0,-11381.0,-6955.0,-74.0,38.0,9.0,-12.0,-6.0,6.0,8277.0,8030.0,9305.0,6991.0,-33.0,-6.0,6.0,1.0
2022-05-13 15:01:14.115556-07:00,1940.0,542.6,1056.5,1282.8,881.4,1114.7,1292.7,1314.2,3445.5,3441.9,1480.1,1288.2,1288.2,3445.5,979.9,1390.3,3437.0,3435.8,709.3,1469.0,973.9,635.1,1281.9,1647.3,3439.5,3438.2,679.9,894.9,1236.4,1322.3,1136.6,960.2,10.0,8.0,12.0,5316.0,7901.0,-11368.0,-6965.0,-75.0,50.0,60.0,-9.0,-14.0,0.0,8278.0,8031.0,9292.0,7005.0,-21.0,-2.0,35.0,1.0
2022-05-13 15:01:14.248572-07:00,1940.0,542.6,1056.5,1289.1,881.4,1119.1,1293.6,1315.1,3445.5,3441.9,1480.1,1290.9,1288.2,3437.0,969.6,1406.7,3441.9,3434.6,705.2,1469.0,971.3,635.1,1281.9,1647.3,3434.6,3433.4,675.8,894.9,1236.4,1322.3,1136.6,960.2,12.0,29.0,5.0,5333.0,7898.0,-11363.0,-6965.0,11.0,-14.0,-41.0,-7.0,-1.0,2.0,8275.0,8031.0,9292.0,7009.0,5.0,10.0,-14.0,1.0
2022-05-13 15:01:14.250427-07:00,1932.1,538.6,1056.5,1289.1,878.0,1119.1,1293.6,1315.1,3426.2,3441.9,1474.6,1290.9,1288.2,3437.0,969.6,1406.7,3441.9,3434.6,705.2,1464.4,971.3,630.3,1276.5,1649.2,3434.6,3433.4,675.8,898.3,1236.4,1320.5,1134.0,967.1,8.0,-19.0,19.0,5326.0,7908.0,-11357.0,-6967.0,2.0,25.0,14.0,-8.0,-15.0,1.0,8277.0,8028.0,9295.0,7007.0,8.0,7.0,4.0,1.0
2022-05-13 15:01:14.251648-07:00,1932.1,538.6,1056.5,1290.9,878.0,1120.9,1286.4,1309.7,3426.2,3441.9,1474.6,1289.1,1288.2,3435.8,966.2,1401.2,3445.5,3433.4,705.2,1464.4,972.2,630.3,1276.5,1649.2,3441.9,3443.1,674.2,898.3,1235.5,1320.5,1134.0,967.1,8.0,21.0,-1.0,5337.0,7903.0,-11362.0,-6957.0,30.0,-4.0,14.0,-14.0,8.0,0.0,8270.0,8035.0,9296.0,7004.0,23.0,4.0,6.0,1.0
2022-05-13 15:01:14.338299-07:00,1922.3,542.6,1052.2,1290.9,882.3,1120.9,1286.4,1309.7,3449.1,3437.0,1480.1,1289.1,1292.7,3435.8,966.2,1401.2,3445.5,3433.4,705.2,1461.7,972.2,630.3,1275.6,1651.1,3441.9,3443.1,674.2,898.3,1235.5,1322.3,1131.4,963.7,16.0,3.0,14.0,5329.0,7908.0,-11363.0,-6955.0,1.0,-5.0,-38.0,-8.0,-3.0,-1.0,8271.0,8034.0,9299.0,7001.0,-13.0,-2.0,-12.0,1.0
2022-05-13 15:01:14.473772-07:00,1922.3,542.6,1052.2,1282.8,877.2,1118.2,1288.2,1314.2,3449.1,3437.0,1480.1,1284.6,1289.1,3441.9,973.1,1389.4,3438.2,3432.2,709.3,1465.4,962.8,630.3,1275.6,1651.1,3434.6,3444.3,670.1,898.3,1233.7,1322.3,1131.4,963.7,10.0,1.0,11.0,5337.0,7908.0,-11359.0,-6957.0,-13.0,19.0,39.0,-10.0,-7.0,1.0,8271.0,8035.0,9296.0,7004.0,7.0,-4.0,21.0,1.0
2022-05-13 15:01:14.475324-07:00,1926.2,545.0,1056.5,1285.5,877.2,1118.2,1288.2,1314.2,3438.2,3441.9,1472.7,1285.5,1289.1,3441.9,973.1,1389.4,3438.2,3432.2,709.3,1465.4,967.1,627.8,1273.0,1649.2,3434.6,3444.3,670.1,898.3,1233.7,1319.6,1134.9,967.1,11.0,19.0,9.0,5354.0,7899.0,-11357.0,-6956.0,-51.0,17.0,2.0,-6.0,-3.0,2.0,8269.0,8037.0,9292.0,7009.0,-21.0,-7.0,5.0,1.0
2022-05-13 15:01:14.477628-07:00,1926.2,545.0,1056.5,1285.5,883.1,1112.1,1285.5,1310.6,3438.2,3441.9,1472.7,1285.5,1295.4,3444.3,974.8,1395.7,3437.0,3441.9,707.7,1457.1,967.1,627.8,1273.0,1649.2,3441.9,3444.3,674.2,897.4,1233.7,1319.6,1134.9,967.1,6.0,-5.0,13.0,5364.0,7902.0,-11343.0,-6968.0,4.0,4.0,-14.0,-10.0,-8.0,7.0,8274.0,8032.0,9288.0,7014.0,-5.0,5.0,-8.0,1.0
2022-05-13 15:01:14.608377-07:00,1928.2,542.6,1053.9,1281.0,883.1,1112.1,1285.5,1310.6,3438.2,3439.5,1478.3,1288.2,1295.4,3444.3,974.8,1395.7,3437.0,3441.9,707.7,1457.1,966.2,627.0,1273.9,1649.2,3441.9,3444.3,674.2,897.4,1236.4,1318.7,1134.9,963.7,9.0,8.0,9.0,5365.0,7901.0,-11348.0,-6960.0,2.0,12.0,13.0,-13.0,-3.0,-1.0,8272.0,8034.0,9290.0,7011.0,0.0,-3.0,5.0,1.0
2022-05-13 15:01:14.609678-07:00,1928.2,542.6,1053.9,1281.0,888.2,1118.2,1278.3,1316.9,3438.2,3439.5,1478.3,1288.2,1305.2,3439.5,973.9,1403.0,3433.4,3432.2,708.5,1458.0,966.2,627.0,1273.9,1649.2,3437.0,3438.2,673.3,899.1,1236.4,1318.7,1134.9,963.7,7.0,13.0,0.0,5360.0,7904.0,-11350.0,-6958.0,46.0,-33.0,-14.0,-13.0,2.0,-1.0,8271.0,8035.0,9292.0,7010.0,24.0,1.0,-12.0,1.0
2022-05-13 15:01:14.699228-07:00,1928.2,543.4,1063.4,1282.8,888.2,1118.2,1278.3,1306.1,3443.1,3444.3,1479.2,1292.7,1305.2,3439.5,973.9,1396.7,3440.7,3432.2,708.5,1458.0,963.7,632.7,1276.5,1654.9,3438.2,3438.2,673.3,899.1,1239.9,1307.9,1138.4,966.2,6.0,-9.0,15.0,5353.0,7902.0,-11352.0,-6963.0,-37.0,-2.0,11.0,-13.0,-8.0,3.0,8271.0,8036.0,9293.0,7006.0,-16.0,-14.0,3.0,1.0
2022-05-13 15:01:14.700885-07:00,1927.2,543.4,1063.4,1282.8,882.3,1119.1,1285.5,1306.1,3435.8,3444.3,1479.2,1292.7,1288.2,3451.6,977.3,1396.7,3440.7,3439.5,708.5,1457.1,963.7,632.7,1276.5,1648.3,3438.2,3440.7,669.3,905.9,1239.9,1307.9,1138.4,958.5,8.0,16.0,7.0,5365.0,7886.0,-11356.0,-6965.0,-2.0,-10.0,38.0,-11.0,0.0,1.0,8274.0,8040.0,9285.0,7009.0,12.0,-11.0,14.0,1.0
2022-05-13 15:01:14.702033-07:00,1927.2,544.2,1051.3,1290.9,882.3,1119.1,1285.5,1315.1,3435.8,3443.1,1479.2,1285.5,1288.2,3451.6,977.3,1400.3,3441.9,3439.5,708.5,1457.1,965.4,632.7,1274.7,1648.3,3454.0,3440.7,669.3,905.9,1229.3,1316.9,1136.6,958.5,7.0,5.0,15.0,5370.0,7882.0,-11355.0,-6967.0,-26.0,0.0,-11.0,-15.0,0.0,2.0,8273.0,8041.0,9285.0,7008.0,-11.0,-5.0,-2.0,1.0
2022-05-13 15:01:14.924213-07:00,1918.3,544.2,1051.3,1290.9,889.0,1114.7,1293.6,1315.1,3434.6,3443.1,1479.2,1285.5,1292.7,3433.4,979.9,1400.3,3441.9,3441.9,705.2,1457.1,965.4,632.7,1274.7,1647.3,3454.0,3444.3,674.2,894.1,1229.3,1316.9,1136.6,959.4,6.0,-3.0,12.0,5393.0,7875.0,-11345.0,-6973.0,-60.0,43.0,41.0,-11.0,-3.0,1.0,8275.0,8040.0,9280.0,7013.0,-15.0,-11.0,20.0,1.0
2022-05-13 15:01:15.013530-07:00,1918.3,541.0,1062.5,1290.9,889.0,1114.7,1293.6,1307.0,3434.6,3439.5,1479.2,1289.1,1292.7,3433.4,979.9,1401.2,3438.2,3441.9,705.2,1457.1,966.2,623.8,1272.1,1647.3,3438.2,3444.3,674.2,894.1,1230.2,1317.8,1132.2,959.4,8.0,21.0,2.0,5420.0,7860.0,-11343.0,-6973.0,3.0,10.0,33.0,-11.0,-4.0,4.0,8274.0,8043.0,9273.0,7020.0,6.0,0.0,14.0,1.0
2022-05-13 15:01:15.015606-07:00,1915.4,544.2,1062.5,1290.9,891.5,1114.7,1277.4,1307.0,3441.9,3433.4,1479.2,1289.1,1299.8,3433.4,975.6,1401.2,3438.2,3438.2,710.1,1455.2,966.2,623.8,1275.6,1655.8,3438.2,3439.5,672.5,892.4,1230.2,1317.8,1140.1,967.9,8.0,0.0,11.0,5417.0,7861.0,-11344.0,-6972.0,-19.0,-2.0,-22.0,-10.0,0.0,-4.0,8273.0,8045.0,9275.0,7018.0,-7.0,-8.0,-8.0,1.0
2022-05-13 15:01:15.016748-07:00,1915.4,544.2,1052.2,1277.4,891.5,1114.7,1285.5,1308.8,3441.9,3433.4,1473.6,1288.2,1299.8,3433.4,978.2,1397.6,3438.2,3437.0,710.1,1455.2,967.9,623.8,1275.6,1655.8,3439.5,3441.9,672.5,892.4,1239.1,1321.4,1140.1,967.9,6.0,8.0,5.0,5422.0,7856.0,-11343.0,-6975.0,13.0,-7.0,28.0,-12.0,0.0,-2.0,8275.0,8043.0,9273.0,7020.0,13.0,-6.0,9.0,1.0
2022-05-13 15:01:15.017859-07:00,1921.3,550.6,1052.2,1277.4,878.0,1115.6,1285.5,1308.8,3444.3,3440.7,1473.6,1288.2,1297.2,3443.1,978.2,1397.6,3438.2,3437.0,699.5,1455.2,967.9,623.8,1274.7,1647.3,3439.5,3441.9,676.6,901.7,1239.1,1321.4,1132.2,961.1,8.0,9.0,9.0,5426.0,7851.0,-11347.0,-6972.0,3.0,-5.0,6.0,-12.0,0.0,1.0,8273.0,8044.0,9274.0,7019.0,3.0,-5.0,3.0,1.0
2022-05-13 15:01:15.103327-07:00,1921.3,550.6,1058.2,1281.0,878.0,1115.6,1276.5,1305.2,3444.3,3440.7,1469.0,1286.4,1297.2,3443.1,991.9,1404.9,3439.5,3438.2,699.5,1455.2,962.8,628.6,1274.7,1647.3,3444.3,3444.3,676.6,901.7,1233.7,1315.1,1132.2,961.1,3.0,-2.0,13.0,5430.0,7849.0,-11345.0,-6975.0,-7.0,11.0,7.0,-11.0,-10.0,5.0,8274.0,8044.0,9274.0,7020.0,-9.0,-6.0,5.0,1.0
2022-05-13 15:01:15.105238-07:00,1919.3,545.8,1058.2,1281.0,883.9,1117.4,1276.5,1305.2,3443.1,3438.2,1469.0,1286.4,1300.7,3446.7,991.9,1404.9,3439.5,3438.2,706.0,1451.6,962.8,628.6,1270.3,1653.9,3444.3,3444.3,672.5,895.7,1233.7,1315.1,1130.5,967.9,9.0,13.0,5.0,5422.0,7851.0,-11351.0,-6968.0,47.0,-14.0,-5.0,-12.0,1.0,0.0,8270.0,8047.0,9278.0,7014.0,28.0,7.0,-10.0,1.0
2022-05-13 15:01:15.193845-07:00,1919.3,545.8,1051.3,1284.6,883.9,1117.4,1282.8,1307.0,3443.1,3438.2,1473.6,1283.7,1300.7,3446.7,974.8,1392.1,3439.5,3440.7,706.0,1451.6,965.4,627.0,1270.3,1653.9,3431.0,3449.1,672.5,895.7,1229.3,1316.9,1130.5,967.9,3.0,-3.0,9.0,5420.0,7855.0,-11350.0,-6966.0,-8.0,14.0,-4.0,-11.0,-12.0,2.0,8269.0,8049.0,9279.0,7012.0,-8.0,1.0,3.0,1.0
2022-05-13 15:01:15.284243-07:00,1926.2,550.6,1050.4,1284.6,878.0,1115.6,1282.8,1307.0,3444.3,3434.6,1475.5,1283.7,1289.1,3445.5,974.8,1392.1,3439.5,3440.7,704.4,1451.6,965.4,627.8,1280.1,1654.9,3431.0,3449.1,674.2,894.1,1229.3,1316.9,1130.5,979.0,10.0,13.0,0.0,5417.0,7855.0,-11354.0,-6963.0,19.0,-11.0,-1.0,-13.0,1.0,-4.0,8266.0,8051.0,9281.0,7010.0,12.0,-5.0,-2.0,1.0
2022-05-13 15:01:15.376137-07:00,1926.2,550.6,1050.4,1299.0,878.0,1122.6,1276.5,1308.8,3444.3,3434.6,1475.5,1290.9,1289.1,3438.2,980.7,1401.2,3438.2,3439.5,704.4,1451.6,969.6,627.8,1280.1,1654.9,3441.9,3446.7,667.6,894.1,1229.3,1316.9,1130.5,979.0,3.0,-2.0,8.0,5414.0,7856.0,-11354.0,-6964.0,8.0,-16.0,-5.0,-13.0,-2.0,1.0,8266.0,8051.0,9281.0,7010.0,-1.0,-4.0,-3.0,1.0
2022-05-13 15:01:15.377407-07:00,1922.3,549.0,1061.7,1299.0,880.6,1122.6,1276.5,1308.8,3435.8,3439.5,1485.6,1290.9,1303.4,3438.2,980.7,1401.2,3438.2,3439.5,704.4,1459.8,969.6,614.1,1269.4,1648.3,3441.9,3446.7,667.6,891.5,1229.3,1317.8,1126.1,962.0,4.0,11.0,12.0,5412.0,7854.0,-11355.0,-6966.0,5.0,-10.0,0.0,-13.0,0.0,1.0,8267.0,8052.0,9281.0,7009.0,4.0,-5.0,-1.0,1.0
2022-05-13 15:01:15.378582-07:00,1922.3,549.0,1061.7,1285.5,880.6,1130.5,1273.9,1312.4,3435.8,3439.5,1485.6,1287.3,1303.4,3435.8,973.9,1395.7,3435.8,3434.6,706.0,1459.8,962.8,614.1,1269.4,1648.3,3449.1,3433.4,675.0,891.5,1231.0,1317.8,1126.1,962.0,6.0,2.0,17.0,5412.0,7851.0,-11355.0,-6969.0,3.0,2.0,-2.0,-12.0,-1.0,4.0,8267.0,8052.0,9281.0,7009.0,0.0,2.0,-1.0,1.0
2022-05-13 15:01:15.379698-07:00,1922.3,541.8,1055.6,1285.5,878.9,1130.5,1273.9,1312.4,3449.1,3435.8,1477.3,1287.3,1292.7,3435.8,973.9,1395.7,3435.8,3434.6,706.0,1455.2,962.8,623.8,1262.2,1657.7,3449.1,3433.4,675.0,900.8,1231.0,1315.1,1136.6,967.9,5.0,8.0,6.0,5414.0,7853.0,-11355.0,-6966.0,19.0,16.0,3.0,-15.0,0.0,-3.0,8264.0,8052.0,9283.0,7009.0,11.0,14.0,2.0,1.0
2022-05-13 15:01:15.554296-07:00,1922.3,541.8,1055.6,1284.6,883.1,1124.4,1279.2,1306.1,3449.1,3435.8,1477.3,1285.5,1289.1,3438.2,989.3,1394.8,3435.8,3437.0,701.9,1450.6,964.5,623.8,1262.2,1657.7,3443.1,3443.1,670.1,899.1,1233.7,1315.1,1136.6,967.9,5.0,2.0,1.0,5414.0,7855.0,-11355.0,-6962.0,9.0,-4.0,-6.0,-13.0,-2.0,-3.0,8263.0,8052.0,9284.0,7009.0,3.0,1.0,-5.0,1.0
2022-05-13 15:01:15.556107-07:00,1918.3,543.4,1052.2,1285.5,883.1,1124.4,1279.2,1306.1,3440.7,3435.8,1474.6,1288.2,1289.1,3438.2,989.3,1394.8,3435.8,3437.0,701.9,1450.6,959.4,624.6,1273.9,1641.6,3443.1,3443.1,670.1,899.1,1231.0,1315.1,1135.7,967.1,7.0,0.0,1.0,5411.0,7857.0,-11358.0,-6959.0,15.0,-12.0,-1.0,-8.0,-9.0,-2.0,8261.0,8054.0,9286.0,7007.0,13.0,-4.0,-2.0,1.0
2022-05-13 15:01:15.557284-07:00,1918.3,543.4,1052.2,1285.5,883.1,1111.2,1277.4,1310.6,3440.7,3435.8,1474.6,1288.2,1289.1,3438.2,972.2,1400.3,3437.0,3431.0,702.8,1456.2,959.4,624.6,1273.9,1641.6,3445.5,3438.2,659.5,912.7,1231.0,1315.1,1135.7,967.1,6.0,4.0,13.0,5405.0,7855.0,-11361.0,-6960.0,3.0,-11.0,-1.0,-12.0,-6.0,1.0,8261.0,8054.0,9286.0,7007.0,-5.0,-7.0,-1.0,1.0
2022-05-13 15:01:15.558414-07:00,1920.3,541.8,1053.9,1291.8,883.1,1111.2,1277.4,1310.6,3439.5,3441.9,1474.6,1292.7,1289.1,3438.2,972.2,1400.3,3437.0,3431.0,702.8,1456.2,962.8,623.8,1276.5,1652.0,3445.5,3438.2,659.5,912.7,1239.1,1324.1,1137.5,965.4,3.0,4.0,7.0,5405.0,7854.0,-11361.0,-6961.0,0.0,-12.0,-1.0,-15.0,-3.0,0.0,8261.0,8054.0,9286.0,7007.0,5.0,0.0,-1.0,1.0
2022-05-13 15:01:15.599050-07:00,1920.3,541.8,1053.9,1291.8,878.9,1113.0,1267.6,1310.6,3439.5,3441.9,1474.6,1292.7,1290.9,3446.7,973.9,1396.7,3433.4,3433.4,701.9,1451.6,962.8,623.8,1276.5,1652.0,3445.5,3439.5,661.9,897.4,1239.1,1324.1,1137.5,965.4,4.0,4.0,5.0,5408.0,7852.0,-11358.0,-6966.0,-26.0,0.0,7.0,-14.0,-6.0,0.0,8261.0,8054.0,9286.0,7007.0,-6.0,-1.0,6.0,1.0
2022-05-13 15:01:15.688822-07:00,1918.3,541.0,1057.3,1279.2,878.9,1113.0,1267.6,1310.6,3438.2,3443.1,1478.3,1286.4,1290.9,3446.7,973.9,1396.7,3433.4,3433.4,701.9,1451.6,963.7,624.6,1273.9,1651.1,3445.5,3439.5,661.9,897.4,1231.9,1316.9,1132.2,964.5,2.0,9.0,1.0,5410.0,7850.0,-11355.0,-6971.0,-6.0,-10.0,-11.0,-15.0,-1.0,-2.0,8261.0,8054.0,9286.0,7006.0,-4.0,-3.0,-6.0,1.0
2022-05-13 15:01:15.913418-07:00,1914.4,541.0,1057.3,1279.2,885.6,1113.0,1275.6,1299.0,3449.1,3443.1,1478.3,1286.4,1287.3,3443.1,977.3,1396.7,3434.6,3446.7,707.7,1448.8,963.7,624.6,1273.9,1654.9,3438.2,3445.5,675.0,891.5,1231.9,1316.9,1132.2,965.4,6.0,-2.0,11.0,5403.0,7847.0,-11358.0,-6976.0,-2.0,-25.0,4.0,-13.0,-8.0,0.0,8262.0,8054.0,9285.0,7007.0,-9.0,-7.0,0.0,1.0
2022-05-13 15:01:15.915169-07:00,1914.4,537.8,1052.2,1279.2,885.6,1113.0,1275.6,1310.6,3449.1,3444.3,1478.3,1289.1,1287.3,3443.1,977.3,1407.6,3435.8,3446.7,707.7,1448.8,962.0,627.8,1282.8,1654.9,3435.8,3445.5,675.0,891.5,1234.6,1321.4,1137.5,965.4,7.0,11.0,10.0,5402.0,7843.0,-11361.0,-6977.0,-10.0,5.0,1.0,-12.0,0.0,2.0,8262.0,8054.0,9285.0,7007.0,-8.0,-2.0,3.0,1.0
2022-05-13 15:01:16.139310-07:00,1911.5,537.8,1052.2,1279.2,883.9,1113.9,1274.7,1310.6,3444.3,3444.3,1478.3,1289.1,1290.0,3437.0,975.6,1407.6,3435.8,3435.8,706.9,1447.0,962.0,627.8,1282.8,1653.0,3435.8,3444.3,670.1,894.9,1234.6,1321.4,1137.5,962.8,5.0,-1.0,6.0,5403.0,7841.0,-11359.0,-6980.0,14.0,-13.0,-4.0,-16.0,-8.0,3.0,8263.0,8053.0,9284.0,7008.0,8.0,6.0,0.0,1.0
2022-05-13 15:01:16.140566-07:00,1911.5,546.6,1055.6,1298.1,883.9,1113.9,1274.7,1299.8,3444.3,3435.8,1471.8,1292.7,1290.0,3437.0,975.6,1400.3,3439.5,3435.8,706.9,1447.0,968.8,625.4,1272.1,1653.0,3444.3,3444.3,670.1,894.9,1228.4,1325.0,1133.1,962.8,4.0,2.0,5.0,5398.0,7840.0,-11362.0,-6980.0,-26.0,-7.0,8.0,-15.0,0.0,-4.0,8263.0,8052.0,9284.0,7009.0,-14.0,-7.0,9.0,1.0
2022-05-13 15:01:16.141795-07:00,1928.2,546.6,1055.6,1298.1,889.0,1113.0,1279.2,1299.8,3440.7,3435.8,1471.8,1292.7,1287.3,3440.7,976.5,1400.3,3439.5,3439.5,701.9,1448.8,968.8,625.4,1272.1,1651.1,3444.3,3450.4,670.1,891.5,1228.4,1325.0,1133.1,962.8,4.0,4.0,6.0,5413.0,7825.0,-11362.0,-6986.0,-15.0,4.0,43.0,-13.0,-14.0,5.0,8263.0,8054.0,9278.0,7016.0,-8.0,-4.0,18.0,1.0
2022-05-13 15:01:16.143097-07:00,1928.2,541.0,1053.9,1290.0,889.0,1113.0,1276.5,1300.7,3440.7,3440.7,1467.2,1289.1,1287.3,3440.7,977.3,1399.4,3428.6,3440.7,701.9,1448.8,960.2,622.2,1271.2,1651.1,3435.8,3438.2,670.1,891.5,1231.9,1322.3,1127.0,962.8,3.0,13.0,9.0,5416.0,7819.0,-11366.0,-6984.0,-19.0,-4.0,-8.0,-18.0,0.0,0.0,8263.0,8054.0,9276.0,7017.0,-19.0,0.0,4.0,1.0
2022-05-13 15:01:16.276143-07:00,2.0,0.0,8.0,5422.0,7815.0,-11360.0,-6993.0,-27.0,0.0,12.0,-11.0,-5.0,2.0,8267.0,8050.0,9273.0,7022.0,-20.0,3.0,8.0,1.0,20.0,-18.0,50.0,5509.0,7751.0,-11319.0,-7062.0,-122.0,116.0,269.0,-26.0,9.0,-10.0,8303.0,8030.0,9208.0,7087.0,-3.0,-27.0,79.0,1.0,-23.0,1.0,10.0,8310.0,8071.0,9113.0,7155.0,-230.0,-97.0,353.0,1.0
2022-05-13 15:01:16.277250-07:00,1924.3,542.6,1052.2,1278.3,878.0,1118.2,1276.5,1302.5,3440.7,3438.2,1469.0,1288.2,1288.2,3433.4,979.9,1394.8,3437.0,3444.3,698.7,1454.3,959.4,627.0,1266.7,1649.2,3438.2,3444.3,668.4,897.4,1231.0,1316.9,1132.2,984.2,-6.0,-139.0,74.0,5790.0,7589.0,-11296.0,-7051.0,-1001.0,606.0,1025.0,-37.0,-33.0,15.0,8220.0,8184.0,9002.0,7270.0,236.0,81.0,585.0,1.0
2022-05-13 15:01:16.278358-07:00,1924.3,542.6,1052.2,1290.0,878.0,1117.4,1280.1,1302.5,3440.7,3438.2,1469.0,1282.8,1288.2,3439.5,978.2,1395.7,3435.8,3435.8,699.5,1454.3,956.0,627.0,1266.7,1649.2,3438.2,3439.5,676.6,897.4,1235.5,1316.9,1132.2,984.2,25.0,-184.0,97.0,6513.0,7085.0,-11266.0,-6992.0,-1093.0,921.0,2394.0,-22.0,-28.0,54.0,7932.0,8396.0,8993.0,7359.0,517.0,323.0,717.0,1.0
2022-05-13 15:01:16.317163-07:00,1919.3,548.2,1056.5,1290.0,885.6,1117.4,1280.1,1302.5,3445.5,3439.5,1464.4,1282.8,1294.5,3439.5,978.2,1395.7,3435.8,3435.8,699.5,1462.6,956.0,624.6,1271.2,1650.2,3438.2,3439.5,676.6,902.5,1235.5,1321.4,1139.2,959.4,82.0,7.0,46.0,7507.0,6217.0,-11392.0,-6606.0,-973.0,1005.0,3255.0,4.0,-8.0,0.0,7621.0,8600.0,9022.0,7416.0,428.0,226.0,498.0,1.0
2022-05-13 15:01:16.363541-07:00,1919.3,548.2,1056.5,1281.0,885.6,1109.5,1314.2,1326.8,3445.5,3439.5,1464.4,1285.5,1294.5,3449.1,967.9,1393.9,3435.8,3435.8,710.1,1462.6,981.6,624.6,1271.2,1650.2,3435.8,3435.8,667.6,902.5,1235.5,1321.4,1139.2,959.4,67.0,234.0,-61.0,8451.0,5228.0,-11493.0,-6130.0,-1103.0,631.0,2431.0,20.0,-31.0,-49.0,7460.0,8678.0,9066.0,7436.0,329.0,171.0,86.0,1.0
2022-05-13 15:01:16.407374-07:00,1935.1,549.8,1047.0,1281.0,880.6,1109.5,1314.2,1326.8,3440.7,3445.5,1456.2,1285.5,1286.4,3449.1,967.9,1393.9,3435.8,3435.8,710.1,1520.8,981.6,647.3,1270.3,1649.2,3435.8,3435.8,667.6,895.7,1235.5,1320.5,1114.7,959.4,67.0,94.0,-42.0,9028.0,4481.0,-11434.0,-6010.0,-840.0,342.0,1017.0,-20.0,-3.0,-11.0,7267.0,8774.0,9213.0,7333.0,695.0,185.0,60.0,1.0
2022-05-13 15:01:16.451997-07:00,1935.1,549.8,1047.0,1279.2,880.6,1094.7,1344.0,1355.8,3440.7,3445.5,1456.2,1283.7,1286.4,3440.7,958.5,1397.6,3437.0,3435.8,716.7,1520.8,1013.3,647.3,1270.3,1649.2,3438.2,3433.4,669.3,895.7,1231.0,1320.5,1114.7,959.4,-45.0,-16.0,-60.0,9259.0,4295.0,-11455.0,-5748.0,768.0,379.0,779.0,-26.0,60.0,-33.0,7115.0,8858.0,9309.0,7260.0,284.0,61.0,43.0,1.0
2022-05-13 15:01:16.499025-07:00,1973.7,541.8,1055.6,1281.9,879.7,1094.7,1344.0,1355.8,3437.0,3440.7,1447.0,1283.7,1289.1,3440.7,958.5,1397.6,3437.0,3435.8,716.7,1560.9,1025.4,652.2,1289.1,1653.0,3438.2,3433.4,669.3,898.3,1228.4,1313.3,1129.6,962.8,31.0,119.0,-61.0,9350.0,4261.0,-11568.0,-5389.0,66.0,-83.0,395.0,-9.0,12.0,-35.0,7076.0,8879.0,9334.0,7239.0,-9.0,15.0,3.0,1.0
2022-05-13 15:01:16.547600-07:00,1973.7,541.8,1055.6,1281.9,878.0,1101.7,1368.5,1354.0,3437.0,3440.7,1447.0,1283.7,1299.8,3434.6,961.1,1392.1,3437.0,3437.0,712.6,1562.7,1025.4,652.2,1289.1,1653.0,3441.9,3438.2,669.3,898.3,1228.4,1313.3,1129.6,962.8,16.0,52.0,-4.0,9389.0,4189.0,-11597.0,-5315.0,37.0,195.0,84.0,-11.0,-6.0,25.0,7095.0,8863.0,9319.0,7259.0,-26.0,5.0,-7.0,1.0
2022-05-13 15:01:16.671237-07:00,1963.7,543.4,1048.7,1289.1,878.0,1101.7,1368.5,1354.0,3438.2,3438.2,1439.6,1283.7,1299.8,3434.6,961.1,1392.1,3437.0,3437.0,712.6,1562.7,1021.9,648.9,1285.5,1653.9,3441.9,3438.2,669.3,898.3,1233.7,1311.5,1129.6,962.8,-32.0,3.0,-14.0,9458.0,4213.0,-11544.0,-5289.0,17.0,132.0,-34.0,-17.0,-5.0,4.0,7072.0,8872.0,9338.0,7247.0,75.0,35.0,12.0,1.0
2022-05-13 15:01:16.692586-07:00,1963.7,543.4,1048.7,1289.1,882.3,1098.2,1364.8,1355.8,3438.2,3438.2,1439.6,1283.7,1289.1,3439.5,961.1,1385.7,3432.2,3440.7,717.5,1551.5,1021.9,648.9,1285.5,1653.9,3438.2,3440.7,672.5,895.7,1233.7,1311.5,1129.6,962.8,-12.0,7.0,-5.0,9474.0,4222.0,-11539.0,-5263.0,61.0,14.0,99.0,-8.0,-1.0,-7.0,7066.0,8868.0,9339.0,7256.0,-20.0,17.0,1.0,1.0
2022-05-13 15:01:16.796442-07:00,1948.9,543.4,1054.8,1286.4,882.3,1098.2,1364.8,1355.8,3432.2,3440.7,1437.8,1281.9,1289.1,3439.5,961.1,1385.7,3432.2,3440.7,717.5,1551.5,1021.1,653.8,1281.9,1650.2,3438.2,3440.7,672.5,895.7,1229.3,1309.7,1130.5,966.2,0.0,24.0,-20.0,9493.0,4217.0,-11540.0,-5232.0,34.0,42.0,-19.0,-19.0,-3.0,-3.0,7060.0,8870.0,9352.0,7243.0,58.0,4.0,-8.0,1.0
2022-05-13 15:01:16.798522-07:00,1959.8,543.4,1054.8,1286.4,889.0,1090.3,1368.5,1352.1,3437.0,3440.7,1437.8,1281.9,1288.2,3439.5,956.8,1393.9,3439.5,3432.2,711.8,1544.1,1021.1,653.8,1281.9,1650.2,3446.7,3449.1,667.6,893.2,1229.3,1309.7,1130.5,966.2,-19.0,9.0,-21.0,9484.0,4247.0,-11546.0,-5209.0,99.0,-10.0,-13.0,-10.0,5.0,-12.0,7054.0,8874.0,9359.0,7234.0,16.0,-6.0,5.0,1.0
2022-05-13 15:01:16.858185-07:00,1959.8,540.2,1053.9,1281.0,889.0,1090.3,1368.5,1361.2,3437.0,3444.3,1442.4,1282.8,1288.2,3439.5,956.8,1383.0,3444.3,3432.2,711.8,1544.1,1021.1,653.8,1281.0,1650.2,3433.4,3449.1,667.6,893.2,1236.4,1316.9,1127.0,966.2,2.0,14.0,-5.0,9467.0,4254.0,-11562.0,-5198.0,17.0,-31.0,18.0,-15.0,-2.0,8.0,7057.0,8874.0,9360.0,7232.0,-8.0,-5.0,3.0,1.0
2022-05-13 15:01:16.859448-07:00,1961.8,540.2,1053.9,1281.0,884.8,1091.2,1363.0,1361.2,3434.6,3444.3,1442.4,1282.8,1291.8,3432.2,967.1,1383.0,3444.3,3446.7,723.3,1546.9,1021.1,653.8,1281.0,1653.0,3433.4,3445.5,673.3,897.4,1236.4,1316.9,1127.0,965.4,-16.0,16.0,-7.0,9468.0,4256.0,-11562.0,-5197.0,13.0,13.0,-7.0,-6.0,1.0,-5.0,7055.0,8875.0,9362.0,7228.0,19.0,3.0,-6.0,1.0
2022-05-13 15:01:16.903538-07:00,1961.8,537.0,1051.3,1281.0,884.8,1091.2,1363.0,1356.7,3434.6,3444.3,1438.7,1278.3,1291.8,3432.2,967.1,1388.5,3435.8,3446.7,723.3,1546.9,1022.8,646.5,1280.1,1653.0,3440.7,3445.5,673.3,897.4,1231.0,1319.6,1125.2,965.4,-2.0,0.0,7.0,9452.0,4268.0,-11572.0,-5193.0,39.0,-31.0,-8.0,-10.0,1.0,-1.0,7061.0,8870.0,9358.0,7233.0,-54.0,-2.0,-3.0,1.0
2022-05-13 15:01:17.083591-07:00,1959.8,537.0,1051.3,1281.0,887.3,1090.3,1356.7,1356.7,3438.2,3444.3,1438.7,1278.3,1285.5,3435.8,956.8,1388.5,3435.8,3437.0,726.6,1547.8,1022.8,646.5,1280.1,1649.2,3440.7,3438.2,670.1,893.2,1231.0,1319.6,1125.2,974.8,-3.0,21.0,-8.0,9460.0,4266.0,-11565.0,-5196.0,-67.0,40.0,-17.0,-9.0,-2.0,-3.0,7069.0,8862.0,9360.0,7233.0,17.0,-4.0,-27.0,1.0
2022-05-13 15:01:17.084834-07:00,1959.8,540.2,1047.0,1278.3,887.3,1090.3,1356.7,1355.8,3438.2,3435.8,1436.9,1279.2,1285.5,3435.8,956.8,1387.5,3435.8,3437.0,726.6,1547.8,1018.5,643.2,1277.4,1649.2,3433.4,3438.2,670.1,893.2,1228.4,1311.5,1125.2,974.8,-4.0,-5.0,0.0,9456.0,4286.0,-11554.0,-5212.0,57.0,-13.0,-67.0,-10.0,-3.0,-4.0,7066.0,8862.0,9367.0,7227.0,-8.0,1.0,9.0,1.0
2022-05-13 15:01:17.085932-07:00,1951.9,544.2,1047.0,1278.3,878.0,1092.9,1353.1,1355.8,3438.2,3437.0,1436.9,1279.2,1290.9,3449.1,957.7,1387.5,3435.8,3432.2,717.5,1538.5,1018.5,643.2,1285.5,1651.1,3433.4,3438.2,672.5,889.8,1228.4,1311.5,1123.5,958.5,-3.0,14.0,-21.0,9452.0,4300.0,-11560.0,-5193.0,19.0,23.0,34.0,-14.0,0.0,-7.0,7071.0,8861.0,9365.0,7227.0,-14.0,-11.0,-6.0,1.0
2022-05-13 15:01:17.353464-07:00,1951.9,544.2,1045.2,1285.5,878.0,1092.9,1356.7,1345.8,3438.2,3437.0,1440.5,1281.0,1290.9,3449.1,960.2,1387.5,3438.2,3439.5,717.5,1538.5,1018.5,648.9,1285.5,1651.1,3443.1,3438.2,672.5,889.8,1231.0,1309.7,1123.5,958.5,-7.0,16.0,-15.0,9449.0,4301.0,-11560.0,-5197.0,-7.0,-9.0,-23.0,-11.0,-6.0,3.0,7077.0,8862.0,9361.0,7223.0,0.0,-13.0,1.0,1.0
2022-05-13 15:01:17.354665-07:00,1947.9,547.4,1045.2,1285.5,882.3,1089.5,1356.7,1345.8,3431.0,3443.1,1440.5,1281.0,1291.8,3454.0,960.2,1387.5,3438.2,3439.5,720.8,1540.3,1018.5,648.9,1283.7,1657.7,3443.1,3438.2,670.1,891.5,1231.0,1309.7,1125.2,967.1,-12.0,7.0,-1.0,9440.0,4308.0,-11561.0,-5205.0,5.0,-13.0,-3.0,-8.0,0.0,1.0,7082.0,8863.0,9359.0,7221.0,-8.0,-15.0,-4.0,1.0
2022-05-13 15:01:17.355771-07:00,1947.9,547.4,1049.6,1281.9,882.3,1089.5,1357.6,1356.7,3431.0,3443.1,1442.4,1281.9,1291.8,3454.0,954.3,1385.7,3427.4,3433.4,720.8,1540.3,1015.9,640.0,1283.7,1657.7,3438.2,3438.2,670.1,891.5,1231.0,1317.8,1125.2,967.1,-6.0,10.0,0.0,9435.0,4303.0,-11563.0,-5215.0,-37.0,-23.0,-12.0,-13.0,-2.0,3.0,7085.0,8863.0,9359.0,7219.0,-11.0,-7.0,-6.0,1.0
2022-05-13 15:01:17.356886-07:00,1947.9,545.8,1049.6,1281.9,879.7,1092.9,1357.6,1356.7,3440.7,3444.3,1442.4,1281.9,1296.3,3440.7,954.3,1385.7,3427.4,3433.4,717.5,1543.1,1015.9,640.0,1276.5,1649.2,3438.2,3438.2,667.6,901.7,1231.0,1317.8,1124.4,955.1,-8.0,13.0,-8.0,9430.0,4307.0,-11561.0,-5225.0,-4.0,-5.0,-23.0,-14.0,-7.0,0.0,7086.0,8861.0,9359.0,7218.0,-1.0,6.0,3.0,1.0
2022-05-13 15:01:17.397636-07:00,1947.9,545.8,1047.8,1281.9,879.7,1092.1,1354.0,1347.6,3440.7,3444.3,1436.0,1282.8,1296.3,3440.7,952.6,1393.9,3433.4,3434.6,720.0,1543.1,1013.3,647.3,1276.5,1649.2,3438.2,3439.5,670.9,901.7,1231.0,1317.8,1124.4,955.1,-8.0,7.0,-5.0,9428.0,4315.0,-11560.0,-5225.0,20.0,17.0,2.0,-11.0,-4.0,-3.0,7089.0,8861.0,9360.0,7215.0,7.0,-9.0,3.0,1.0
2022-05-13 15:01:17.400598-07:00,1945.9,540.2,1049.6,1281.9,879.7,1092.1,1354.0,1347.6,3437.0,3441.9,1436.9,1282.8,1288.2,3440.7,952.6,1393.9,3433.4,3434.6,720.0,1556.2,1013.3,640.8,1277.4,1655.8,3438.2,3439.5,670.9,891.5,1231.0,1317.8,1126.1,967.1,-3.0,12.0,-1.0,9424.0,4321.0,-11561.0,-5224.0,7.0,-16.0,3.0,-11.0,-2.0,0.0,7090.0,8860.0,9361.0,7215.0,-17.0,-4.0,5.0,1.0
2022-05-13 15:01:17.533289-07:00,1943.0,544.2,1045.2,1281.0,889.0,1092.9,1358.5,1344.9,3441.9,3438.2,1440.5,1281.0,1297.2,3441.9,953.4,1383.9,3439.5,3428.6,705.2,1531.0,1010.8,639.2,1274.7,1659.6,3445.5,3435.8,663.6,888.2,1233.7,1311.5,1127.9,965.4,-4.0,7.0,-4.0,9423.0,4321.0,-11562.0,-5225.0,-7.0,5.0,2.0,-13.0,-1.0,0.0,7091.0,8859.0,9360.0,7215.0,6.0,-4.0,0.0,1.0
2022-05-13 15:01:17.534162-07:00,1943.0,544.2,1045.2,1289.1,889.0,1091.2,1354.9,1348.5,3441.9,3438.2,1440.5,1284.6,1297.2,3435.8,963.7,1387.5,3437.0,3429.8,712.6,1531.0,1013.3,639.2,1274.7,1659.6,3437.0,3438.2,661.1,888.2,1235.5,1311.5,1127.9,965.4,-3.0,11.0,-1.0,9423.0,4324.0,-11561.0,-5223.0,8.0,-8.0,1.0,-9.0,-1.0,0.0,7093.0,8858.0,9360.0,7215.0,-10.0,2.0,-1.0,1.0
2022-05-13 15:01:17.534624-07:00,1941.0,549.0,1050.4,1286.4,877.2,1091.2,1354.9,1348.5,3446.7,3431.0,1436.0,1281.9,1304.3,3435.8,963.7,1387.5,3437.0,3429.8,712.6,1545.0,1010.8,644.0,1273.9,1652.0,3437.0,3438.2,661.1,891.5,1239.1,1314.2,1130.5,966.2,-7.0,7.0,-1.0,9423.0,4325.0,-11561.0,-5224.0,-2.0,9.0,-4.0,-12.0,-3.0,4.0,7094.0,8856.0,9360.0,7215.0,6.0,1.0,-4.0,1.0
2022-05-13 15:01:17.626068-07:00,1941.0,549.0,1050.4,1286.4,880.6,1092.9,1355.8,1354.9,3446.7,3431.0,1436.0,1281.9,1296.3,3439.5,958.5,1391.2,3434.6,3433.4,710.1,1536.6,1010.8,644.0,1273.9,1652.0,3444.3,3434.6,661.1,891.5,1239.1,1314.2,1130.5,966.2,-10.0,9.0,-3.0,9420.0,4330.0,-11562.0,-5221.0,14.0,-6.0,-3.0,-16.0,9.0,26.0,7097.0,8853.0,9362.0,7215.0,-7.0,20.0,-16.0,1.0
2022-05-13 15:01:17.667093-07:00,1943.0,541.0,1047.0,1283.7,880.6,1092.9,1355.8,1354.9,3435.8,3440.7,1432.3,1281.9,1296.3,3439.5,958.5,1391.2,3434.6,3433.4,710.1,1536.6,1021.9,635.9,1277.4,1655.8,3444.3,3434.6,661.1,891.5,1239.9,1309.7,1127.9,966.2,-14.0,29.0,10.0,9409.0,4334.0,-11565.0,-5232.0,3.0,-45.0,-22.0,-1.0,-6.0,12.0,7093.0,8836.0,9377.0,7220.0,9.0,80.0,-29.0,1.0
2022-05-13 15:01:17.712080-07:00,1943.0,541.0,1047.0,1283.7,885.6,1087.7,1357.6,1354.9,3435.8,3440.7,1432.3,1281.9,1297.2,3439.5,960.2,1384.8,3438.2,3439.5,712.6,1530.1,1021.9,635.9,1277.4,1655.8,3445.5,3446.7,663.6,893.2,1239.9,1309.7,1127.9,966.2,-1.0,8.0,43.0,9405.0,4363.0,-11564.0,-5217.0,95.0,104.0,-36.0,-6.0,-5.0,-14.0,7075.0,8813.0,9399.0,7236.0,7.0,87.0,-13.0,1.0
2022-05-13 15:01:17.848593-07:00,1948.9,542.6,1043.5,1282.8,885.6,1087.7,1357.6,1354.9,3440.7,3435.8,1425.0,1281.9,1297.2,3439.5,960.2,1384.8,3438.2,3439.5,712.6,1530.1,1007.3,640.8,1270.3,1649.2,3445.5,3446.7,663.6,893.2,1228.4,1328.7,1127.0,965.4,-3.0,-5.0,-29.0,9430.0,4414.0,-11539.0,-5184.0,84.0,124.0,-24.0,-18.0,-2.0,-40.0,7057.0,8803.0,9421.0,7237.0,0.0,16.0,1.0,1.0
2022-05-13 15:01:17.850353-07:00,1948.9,542.6,1043.5,1282.8,883.9,1083.4,1355.8,1353.1,3440.7,3435.8,1425.0,1281.9,1294.5,3444.3,955.1,1388.5,3435.8,3441.9,711.8,1537.6,1007.3,640.8,1270.3,1649.2,3444.3,3440.7,661.1,894.9,1228.4,1328.7,1127.0,965.4,0.0,-8.0,-59.0,9442.0,4438.0,-11529.0,-5164.0,25.0,26.0,7.0,-15.0,-2.0,-24.0,7059.0,8808.0,9424.0,7225.0,-50.0,-52.0,20.0,1.0
2022-05-13 15:01:17.851482-07:00,1944.0,533.8,1052.2,1287.3,883.9,1083.4,1355.8,1348.5,3443.1,3439.5,1436.9,1276.5,1294.5,3444.3,955.1,1388.5,3435.8,3441.9,711.8,1537.6,1013.3,638.4,1276.5,1653.0,3440.7,3440.7,661.1,894.9,1236.4,1316.0,1136.6,967.9,-5.0,10.0,-36.0,9423.0,4431.0,-11543.0,-5172.0,-71.0,-52.0,-2.0,-14.0,-2.0,4.0,7090.0,8811.0,9396.0,7228.0,-91.0,-66.0,20.0,1.0
2022-05-13 15:01:17.892034-07:00,1941.0,533.8,1052.2,1287.3,886.5,1086.0,1354.0,1348.5,3443.1,3439.5,1436.9,1276.5,1285.5,3438.2,960.2,1388.5,3435.8,3439.5,715.1,1536.6,1013.3,638.4,1276.5,1657.7,3440.7,3444.3,673.3,903.4,1236.4,1316.0,1136.6,966.2,-7.0,2.0,10.0,9416.0,4401.0,-11542.0,-5215.0,-116.0,-29.0,-8.0,-3.0,0.0,26.0,7119.0,8811.0,9366.0,7239.0,-46.0,-28.0,15.0,1.0
2022-05-13 15:01:17.983723-07:00,1941.0,545.8,1053.0,1287.3,886.5,1086.0,1354.0,1349.4,3443.1,3439.5,1436.9,1281.9,1285.5,3438.2,960.2,1378.5,3433.4,3439.5,715.1,1536.6,1005.6,637.6,1279.2,1657.7,3434.6,3444.3,673.3,903.4,1230.2,1319.6,1126.1,966.2,-12.0,7.0,25.0,9421.0,4381.0,-11531.0,-5248.0,-57.0,-13.0,-10.0,0.0,4.0,12.0,7129.0,8808.0,9356.0,7246.0,-31.0,11.0,2.0,1.0
2022-05-13 15:01:17.984949-07:00,1941.0,545.8,1053.0,1287.3,878.0,1092.1,1356.7,1349.4,3433.4,3439.5,1436.9,1281.9,1288.2,3438.2,959.4,1378.5,3433.4,3439.5,716.7,1532.9,1005.6,637.6,1279.2,1650.2,3434.6,3435.8,665.2,903.4,1230.2,1319.6,1126.1,967.1,-1.0,11.0,20.0,9432.0,4382.0,-11517.0,-5255.0,-13.0,44.0,-12.0,-6.0,-6.0,5.0,7130.0,8799.0,9355.0,7256.0,8.0,23.0,-4.0,1.0
2022-05-13 15:01:18.162381-07:00,1941.0,550.6,1048.7,1289.1,878.0,1092.1,1356.7,1347.6,3433.4,3435.8,1430.5,1274.7,1288.2,3438.2,959.4,1382.1,3440.7,3439.5,716.7,1532.9,1004.8,633.5,1281.0,1650.2,3439.5,3435.8,665.2,903.4,1234.6,1315.1,1128.7,967.1,-7.0,-1.0,-3.0,9446.0,4395.0,-11503.0,-5251.0,32.0,37.0,-3.0,-9.0,3.0,-11.0,7122.0,8799.0,9363.0,7255.0,9.0,6.0,-8.0,1.0
2022-05-13 15:01:18.207298-07:00,1944.0,539.4,1048.7,1289.1,888.2,1089.5,1346.7,1347.6,3437.0,3440.7,1430.5,1274.7,1290.0,3444.3,959.4,1382.1,3440.7,3435.8,716.7,1527.3,1004.8,633.5,1273.9,1650.2,3439.5,3443.1,667.6,895.7,1234.6,1315.1,1125.2,965.4,-2.0,13.0,-20.0,9440.0,4407.0,-11509.0,-5238.0,14.0,1.0,-5.0,-11.0,0.0,1.0,7122.0,8800.0,9364.0,7252.0,-5.0,-10.0,4.0,1.0
2022-05-13 15:01:18.297152-07:00,1944.0,539.4,1047.0,1278.3,888.2,1089.5,1342.2,1355.8,3437.0,3440.7,1433.2,1281.9,1290.0,3444.3,953.4,1391.2,3431.0,3444.3,716.7,1527.3,1012.5,640.0,1273.9,1650.2,3438.2,3438.2,667.6,895.7,1231.0,1316.0,1125.2,965.4,-9.0,4.0,-12.0,9437.0,4408.0,-11510.0,-5240.0,-10.0,-3.0,1.0,-9.0,3.0,4.0,7124.0,8803.0,9364.0,7246.0,19.0,-11.0,3.0,1.0
2022-05-13 15:01:18.345448-07:00,1927.2,538.6,1047.0,1278.3,888.2,1089.5,1342.2,1355.8,3435.8,3437.0,1433.2,1281.9,1292.7,3446.7,953.4,1391.2,3431.0,3444.3,719.2,1531.0,1012.5,640.0,1277.4,1650.2,3438.2,3438.2,668.4,886.5,1231.0,1316.0,1127.0,966.2,-3.0,12.0,-4.0,9429.0,4401.0,-11519.0,-5240.0,7.0,-33.0,17.0,-6.0,-4.0,4.0,7126.0,8805.0,9364.0,7242.0,-1.0,-7.0,-2.0,1.0
2022-05-13 15:01:18.389193-07:00,1927.2,538.6,1047.0,1281.9,888.2,1089.5,1348.5,1342.2,3435.8,3437.0,1441.5,1279.2,1292.7,3446.7,956.0,1382.1,3433.4,3433.4,719.2,1531.0,1019.4,641.6,1277.4,1650.2,3434.6,3438.2,668.4,886.5,1234.6,1315.1,1127.0,966.2,-6.0,5.0,8.0,9423.0,4400.0,-11523.0,-5244.0,4.0,-4.0,-7.0,-7.0,0.0,3.0,7127.0,8805.0,9364.0,7241.0,7.0,5.0,1.0,1.0
2022-05-13 15:01:18.390995-07:00,1940.0,541.8,1047.0,1281.9,882.3,1095.6,1348.5,1342.2,3433.4,3445.5,1441.5,1279.2,1293.6,3433.4,956.0,1382.1,3433.4,3433.4,717.5,1529.2,1019.4,641.6,1274.7,1650.2,3434.6,3438.2,663.6,894.1,1234.6,1315.1,1118.2,962.0,-5.0,8.0,0.0,9426.0,4402.0,-11520.0,-5243.0,13.0,12.0,6.0,-11.0,0.0,-5.0,7127.0,8804.0,9364.0,7241.0,4.0,1.0,1.0,1.0
2022-05-13 15:01:18.392148-07:00,1940.0,541.8,1047.0,1287.3,882.3,1086.8,1345.8,1345.8,3433.4,3445.5,1437.8,1281.9,1293.6,3435.8,964.5,1391.2,3438.2,3437.0,714.2,1529.2,1002.2,640.0,1274.7,1650.2,3439.5,3437.0,661.9,894.1,1242.6,1324.1,1118.2,962.0,-5.0,5.0,-7.0,9422.0,4406.0,-11523.0,-5240.0,11.0,-12.0,-8.0,-5.0,-4.0,1.0,7130.0,8802.0,9363.0,7243.0,-12.0,-4.0,3.0,1.0
2022-05-13 15:01:18.433465-07:00,1936.1,548.2,1059.9,1287.3,878.0,1086.8,1345.8,1345.8,3439.5,3439.5,1429.5,1281.9,1288.2,3435.8,964.5,1391.2,3438.2,3437.0,714.2,1521.8,1002.2,638.4,1275.6,1649.2,3439.5,3437.0,661.9,894.1,1242.6,1309.7,1123.5,968.8,-8.0,4.0,-2.0,9422.0,4406.0,-11521.0,-5246.0,-15.0,2.0,-10.0,-8.0,-4.0,3.0,7131.0,8801.0,9363.0,7243.0,10.0,2.0,3.0,1.0
2022-05-13 15:01:18.435306-07:00,1936.1,548.2,1059.9,1284.6,878.0,1087.7,1350.3,1346.7,3439.5,3439.5,1429.5,1281.0,1288.2,3434.6,955.1,1385.7,3438.2,3433.4,710.1,1521.8,1015.1,638.4,1275.6,1649.2,3445.5,3439.5,666.8,894.1,1229.3,1309.7,1123.5,968.8,-7.0,8.0,3.0,9417.0,4406.0,-11524.0,-5248.0,11.0,-13.0,8.0,-10.0,0.0,2.0,7131.0,8801.0,9364.0,7241.0,-2.0,10.0,3.0,1.0
2022-05-13 15:01:18.523619-07:00,1939.0,541.0,1045.2,1284.6,879.7,1087.7,1350.3,1346.7,3446.7,3438.2,1436.0,1281.0,1296.3,3434.6,955.1,1385.7,3438.2,3433.4,710.1,1534.8,1015.1,640.0,1274.7,1655.8,3445.5,3439.5,666.8,897.4,1229.3,1311.5,1137.5,967.1,-4.0,10.0,1.0,9418.0,4408.0,-11524.0,-5246.0,0.0,18.0,4.0,-8.0,-1.0,-3.0,7131.0,8800.0,9365.0,7242.0,4.0,5.0,-1.0,1.0
2022-05-13 15:01:18.659986-07:00,1939.0,541.0,1045.2,1279.2,879.7,1078.2,1348.5,1348.5,3446.7,3438.2,1436.0,1292.7,1296.3,3443.1,951.7,1387.5,3444.3,3439.5,714.2,1534.8,1003.0,640.0,1274.7,1655.8,3438.2,3444.3,668.4,897.4,1239.1,1311.5,1137.5,967.1,-3.0,3.0,-6.0,9417.0,4414.0,-11524.0,-5241.0,19.0,3.0,-3.0,-4.0,-6.0,-3.0,7131.0,8800.0,9366.0,7241.0,0.0,3.0,10.0,1.0
2022-05-13 15:01:18.661847-07:00,1937.1,546.6,1051.3,1279.2,882.3,1078.2,1348.5,1348.5,3440.7,3440.7,1443.3,1292.7,1292.7,3443.1,951.7,1387.5,3444.3,3439.5,714.2,1530.1,1003.0,636.7,1275.6,1653.9,3438.2,3444.3,668.4,896.6,1239.1,1311.5,1119.1,964.5,-5.0,6.0,-8.0,9419.0,4414.0,-11524.0,-5238.0,3.0,7.0,18.0,-3.0,0.0,3.0,7131.0,8800.0,9366.0,7241.0,1.0,-11.0,4.0,1.0
2022-05-13 15:01:18.663010-07:00,1937.1,546.6,1051.3,1281.0,878.0,1098.2,1336.8,1345.8,3440.7,3440.7,1443.3,1283.7,1296.3,3438.2,957.7,1386.6,3439.5,3432.2,711.8,1528.3,1007.3,636.7,1275.6,1653.9,3447.9,3441.9,667.6,893.2,1232.8,1311.5,1119.1,964.5,-1.0,8.0,0.0,9417.0,4411.0,-11527.0,-5237.0,3.0,-16.0,-4.0,-6.0,-3.0,1.0,7131.0,8800.0,9366.0,7240.0,-2.0,2.0,9.0,1.0
2022-05-13 15:01:18.749150-07:00,1942.0,547.4,1052.2,1283.7,878.0,1098.2,1336.8,1345.8,3431.0,3441.9,1425.9,1274.7,1296.3,3438.2,957.7,1386.6,3439.5,3432.2,711.8,1528.3,1003.9,632.7,1273.9,1653.0,3447.9,3441.9,667.6,893.2,1226.6,1309.7,1124.4,966.2,-8.0,6.0,3.0,9415.0,4409.0,-11529.0,-5238.0,-3.0,-1.0,13.0,-8.0,0.0,0.0,7132.0,8800.0,9366.0,7240.0,2.0,6.0,2.0,1.0
2022-05-13 15:01:18.750401-07:00,1942.0,547.4,1052.2,1283.7,877.2,1092.9,1344.9,1346.7,3431.0,3441.9,1425.9,1274.7,1286.4,3428.6,956.0,1385.7,3437.0,3446.7,705.2,1523.6,1003.9,632.7,1273.9,1653.0,3443.1,3443.1,661.1,899.1,1226.6,1309.7,1124.4,966.2,-5.0,7.0,-2.0,9414.0,4411.0,-11529.0,-5238.0,18.0,-6.0,-10.0,-6.0,-3.0,0.0,7132.0,8800.0,9367.0,7239.0,8.0,-3.0,7.0,1.0
2022-05-13 15:01:18.974564-07:00,1942.0,539.4,1037.5,1284.6,877.2,1092.9,1344.9,1346.7,3438.2,3445.5,1431.4,1273.9,1286.4,3428.6,956.0,1385.7,3437.0,3446.7,705.2,1523.6,1009.9,634.3,1274.7,1646.4,3443.1,3443.1,661.1,899.1,1225.7,1323.2,1122.6,964.5,-9.0,3.0,-6.0,9411.0,4416.0,-11531.0,-5235.0,-1.0,-10.0,7.0,-7.0,-3.0,0.0,7129.0,8802.0,9369.0,7235.0,18.0,0.0,0.0,1.0
2022-05-13 15:01:19.021102-07:00,1942.0,539.4,1037.5,1284.6,878.9,1086.8,1343.1,1354.0,3438.2,3445.5,1431.4,1273.9,1289.1,3433.4,957.7,1380.3,3432.2,3438.2,714.2,1519.0,1009.9,634.3,1274.7,1646.4,3438.2,3449.1,662.7,892.4,1225.7,1323.2,1122.6,964.5,-10.0,11.0,-7.0,9404.0,4416.0,-11537.0,-5234.0,17.0,-23.0,1.0,-5.0,-5.0,2.0,7129.0,8802.0,9370.0,7235.0,-12.0,-6.0,0.0,1.0
2022-05-13 15:01:19.022333-07:00,1935.1,538.6,1044.4,1290.0,878.9,1086.8,1343.1,1344.9,3440.7,3438.2,1433.2,1280.1,1289.1,3433.4,957.7,1383.0,3439.5,3438.2,714.2,1519.0,1008.2,646.5,1274.7,1649.2,3445.5,3449.1,662.7,892.4,1233.7,1320.5,1118.2,967.1,-7.0,5.0,-3.0,9396.0,4418.0,-11541.0,-5236.0,10.0,-14.0,-20.0,-6.0,-1.0,-5.0,7134.0,8800.0,9366.0,7237.0,-43.0,-15.0,-7.0,1.0
2022-05-13 15:01:19.023473-07:00,1937.1,538.6,1044.4,1290.0,880.6,1088.6,1349.4,1344.9,3439.5,3438.2,1433.2,1280.1,1291.8,3439.5,956.0,1383.0,3439.5,3432.2,724.9,1521.8,1008.2,646.5,1274.7,1650.2,3445.5,3450.4,666.0,892.4,1233.7,1320.5,1118.2,963.7,3.0,13.0,1.0,9376.0,4430.0,-11547.0,-5249.0,18.0,-42.0,-73.0,-2.0,2.0,6.0,7154.0,8790.0,9351.0,7248.0,-89.0,-28.0,-17.0,1.0
2022-05-13 15:01:19.024585-07:00,1937.1,537.8,1056.5,1270.3,880.6,1088.6,1349.4,1349.4,3439.5,3432.2,1432.3,1280.1,1291.8,3439.5,956.0,1390.3,3437.0,3432.2,724.9,1521.8,1003.9,638.4,1277.4,1650.2,3446.7,3450.4,666.0,892.4,1232.8,1310.6,1124.4,963.7,-12.0,60.0,-39.0,9335.0,4475.0,-11553.0,-5272.0,155.0,-150.0,-303.0,0.0,-13.0,-31.0,7206.0,8773.0,9336.0,7237.0,-21.0,-152.0,-170.0,1.0
2022-05-13 15:01:19.063714-07:00,1939.0,537.8,1056.5,1270.3,881.4,1087.7,1340.4,1349.4,3440.7,3432.2,1432.3,1280.1,1291.8,3449.1,956.0,1390.3,3437.0,3439.5,715.9,1522.7,1003.9,638.4,1277.4,1653.0,3446.7,3438.2,673.3,889.8,1232.8,1310.6,1124.4,957.7,31.0,113.0,-43.0,9134.0,4693.0,-11590.0,-5354.0,768.0,-410.0,-1159.0,0.0,-8.0,14.0,7295.0,8749.0,9376.0,7125.0,89.0,-215.0,-399.0,1.0
2022-05-13 15:01:19.244097-07:00,1939.0,551.4,1046.1,1282.8,881.4,1087.7,1340.4,1339.5,3440.7,3452.8,1437.8,1283.7,1291.8,3449.1,956.0,1384.8,3431.0,3439.5,715.9,1522.7,1003.9,644.0,1276.5,1653.0,3449.1,3438.2,673.3,889.8,1226.6,1316.9,1123.5,957.7,29.0,114.0,-42.0,8623.0,5356.0,-11649.0,-5448.0,1416.0,-638.0,-2072.0,-21.0,40.0,-41.0,7451.0,8642.0,9448.0,6998.0,-273.0,-166.0,-553.0,1.0
2022-05-13 15:01:19.245375-07:00,1952.9,537.0,1046.1,1282.8,898.3,1092.9,1334.1,1339.5,3446.7,3435.8,1437.8,1283.7,1295.4,3434.6,955.1,1384.8,3431.0,3439.5,715.9,1514.3,1003.9,644.0,1274.7,1650.2,3449.1,3449.1,664.4,885.6,1226.6,1316.9,1133.1,965.4,59.0,54.0,-2.0,7860.0,6233.0,-11652.0,-5659.0,972.0,-780.0,-2495.0,-15.0,28.0,-7.0,7735.0,8403.0,9409.0,7033.0,-889.0,-127.0,-488.0,1.0
2022-05-13 15:01:19.469192-07:00,1952.9,537.0,1048.7,1277.4,898.3,1092.9,1329.6,1338.6,3446.7,3435.8,1443.3,1272.1,1295.4,3434.6,963.7,1390.3,3434.6,3433.4,715.9,1514.3,997.0,648.9,1274.7,1650.2,3446.7,3443.1,664.4,885.6,1231.9,1322.3,1133.1,965.4,54.0,-43.0,23.0,7149.0,7026.0,-11454.0,-6063.0,419.0,-594.0,-2434.0,1.0,-68.0,28.0,8057.0,8119.0,9280.0,7176.0,-1067.0,-127.0,-323.0,1.0
2022-05-13 15:01:19.470504-07:00,1948.9,541.0,1048.7,1277.4,883.1,1097.3,1329.6,1338.6,3438.2,3439.5,1443.3,1272.1,1290.0,3445.5,963.7,1390.3,3434.6,3433.4,711.0,1508.8,997.0,648.9,1271.2,1653.9,3446.7,3443.1,663.6,894.1,1231.9,1322.3,1133.1,966.2,-1.0,-134.0,2.0,6626.0,7558.0,-11172.0,-6526.0,-106.0,-564.0,-1784.0,0.0,-52.0,8.0,8299.0,7893.0,9162.0,7302.0,-636.0,-90.0,-204.0,1.0
2022-05-13 15:01:19.471614-07:00,1948.9,541.0,1045.2,1283.7,883.1,1097.3,1319.6,1329.6,3438.2,3439.5,1448.8,1280.1,1290.0,3445.5,968.8,1394.8,3441.9,3434.6,711.0,1508.8,986.7,641.6,1271.2,1653.9,3435.8,3446.7,663.6,894.1,1232.8,1321.4,1133.1,966.2,22.0,-80.0,40.0,6196.0,7849.0,-10996.0,-6894.0,-61.0,-620.0,-1107.0,-6.0,16.0,19.0,8460.0,7744.0,9081.0,7377.0,-436.0,-55.0,-182.0,1.0
2022-05-13 15:01:19.472712-07:00,1942.0,544.2,1045.2,1283.7,880.6,1104.3,1319.6,1329.6,3437.0,3443.1,1448.8,1280.1,1290.9,3439.5,968.8,1394.8,3441.9,3434.6,715.9,1492.1,986.7,641.6,1269.4,1650.2,3435.8,3446.7,666.8,898.3,1232.8,1321.4,1123.5,962.0,27.0,37.0,40.0,5835.0,8031.0,-10893.0,-7158.0,66.0,-565.0,-924.0,-3.0,-26.0,7.0,8587.0,7626.0,9023.0,7424.0,-359.0,-56.0,-140.0,1.0
2022-05-13 15:01:19.604309-07:00,1942.0,544.2,1058.2,1273.9,880.6,1104.3,1306.1,1332.3,3437.0,3443.1,1454.3,1281.0,1290.9,3439.5,962.8,1398.5,3433.4,3435.8,715.9,1492.1,979.0,640.8,1269.4,1650.2,3438.2,3440.7,666.8,898.3,1233.7,1318.7,1123.5,962.0,15.0,-85.0,76.0,5575.0,8159.0,-10776.0,-7393.0,-133.0,-351.0,-612.0,-3.0,-26.0,7.0,8587.0,7626.0,9023.0,7424.0,-359.0,-56.0,-140.0,1.0
2022-05-13 15:01:19.605203-07:00,1942.0,544.2,1058.2,1273.9,880.6,1104.3,1306.1,1332.3,3437.0,3443.1,1454.3,1281.0,1290.9,3439.5,962.8,1398.5,3433.4,3435.8,715.9,1492.1,979.0,640.8,1269.4,1650.2,3438.2,3440.7,666.8,898.3,1233.7,1318.7,1123.5,962.0,15.0,-85.0,76.0,5575.0,8159.0,-10776.0,-7393.0,-133.0,-351.0,-612.0,-13.0,-9.0,27.0,8670.0,7544.0,8992.0,7451.0,25.0,7.0,26.0,1.0
2022-05-13 15:01:19.606341-07:00,1937.1,545.8,1046.1,1281.0,880.6,1104.3,1314.2,1327.8,3450.4,3439.5,1452.5,1275.6,1299.8,3438.2,962.8,1397.6,3438.2,3441.9,711.0,1486.6,976.5,632.7,1259.6,1647.3,3445.5,3437.0,666.8,894.9,1233.7,1315.1,1125.2,958.5,-9.0,9.0,-3.0,5344.0,8252.0,-10723.0,-7536.0,55.0,32.0,72.0,-1.0,9.0,-16.0,8635.0,7574.0,9026.0,7418.0,177.0,17.0,-20.0,1.0
2022-05-13 15:01:19.607453-07:00,1937.1,545.8,1046.1,1281.0,880.6,1112.1,1311.5,1317.8,3450.4,3439.5,1452.5,1284.6,1299.8,3440.7,964.5,1393.0,3440.7,3439.5,705.2,1486.6,973.1,632.7,1259.6,1647.3,3438.2,3445.5,665.2,894.9,1231.0,1315.1,1125.2,958.5,36.0,20.0,20.0,5300.0,8254.0,-10779.0,-7486.0,199.0,-24.0,9.0,-5.0,-9.0,9.0,8614.0,7592.0,9050.0,7395.0,59.0,11.0,3.0,1.0
2022-05-13 15:01:19.647147-07:00,1936.1,545.8,1045.2,1281.0,880.6,1112.1,1311.5,1317.8,3434.6,3428.6,1455.2,1284.6,1290.0,3440.7,964.5,1393.0,3440.7,3439.5,705.2,1479.2,973.1,631.1,1257.8,1645.4,3438.2,3445.5,665.2,898.3,1231.0,1314.2,1131.4,969.6,7.0,-4.0,0.0,5289.0,8271.0,-10796.0,-7450.0,62.0,9.0,32.0,-15.0,10.0,-9.0,8600.0,7609.0,9063.0,7378.0,95.0,-12.0,4.0,1.0
2022-05-13 15:01:19.692939-07:00,1936.1,545.8,1045.2,1281.0,876.4,1108.6,1306.1,1318.7,3434.6,3428.6,1455.2,1282.8,1294.5,3435.8,965.4,1400.3,3438.2,3437.0,709.3,1471.8,968.8,631.1,1257.8,1645.4,3440.7,3434.6,666.0,889.8,1234.6,1314.2,1131.4,969.6,18.0,13.0,14.0,5274.0,8257.0,-10827.0,-7431.0,88.0,-39.0,53.0,-6.0,-9.0,15.0,8582.0,7633.0,9079.0,7354.0,75.0,-13.0,18.0,1.0
2022-05-13 15:01:19.737213-07:00,1932.1,544.2,1054.8,1279.2,876.4,1108.6,1306.1,1318.7,3433.4,3449.1,1451.6,1288.2,1294.5,3435.8,965.4,1400.3,3438.2,3437.0,709.3,1471.8,974.8,623.8,1266.7,1652.0,3440.7,3434.6,666.0,889.8,1236.4,1309.7,1136.6,971.3,5.0,0.0,14.0,5274.0,8243.0,-10856.0,-7403.0,52.0,-6.0,81.0,-8.0,2.0,-1.0,8573.0,7646.0,9087.0,7342.0,53.0,-2.0,-3.0,1.0
2022-05-13 15:01:19.784013-07:00,1932.1,544.2,1054.8,1279.2,880.6,1095.6,1300.7,1336.8,3433.4,3449.1,1451.6,1288.2,1290.0,3433.4,966.2,1389.4,3435.8,3440.7,703.6,1464.4,974.8,623.8,1266.7,1652.0,3440.7,3446.7,658.7,897.4,1236.4,1309.7,1136.6,971.3,13.0,6.0,6.0,5265.0,8217.0,-10885.0,-7397.0,61.0,-86.0,43.0,-6.0,2.0,-3.0,8555.0,7668.0,9105.0,7318.0,108.0,-15.0,10.0,1.0
