Time,P0,P1,P2,P3,P4,P5,P6,P7,P8,P9,P10,P11,P12,P13,P14,P15,P16,P17,P18,P19,P20,P21,P22,P23,P24,P25,P26,P27,P28,P29,P30,P31,ECG,AX0,AY0,AZ0,QW0,QX0,QY0,QZ0,GX0,GY0,GZ0,AX1,AY1,AZ1,QW1,QX1,QY1,QZ1,GX1,GY1,GZ1
2022-05-13 14:04:14.430843-07:00,2133.1,561.0,1168.2,1367.6,933.9,1191.2,1471.8,1451.6,3438.2,3438.2,1669.1,1394.8,1394.8,3437.0,1118.2,1499.5,3435.8,3439.5,798.5,1564.6,1069.5,615.7,1332.3,1711.0,3439.5,3440.7,686.4,936.4,1288.2,1443.3,1254.2,1197.4,-7.0,-87.0,26.0,9629.0,12559.0,-3823.0,-1836.0,-9.0,-6.0,17.0,7.0,-63.0,2.0,11218.0,11882.0,897.0,-789.0,-4.0,-8.0,8.0,1.0
2022-05-13 14:04:14.521987-07:00,2138.2,564.2,1166.5,1367.6,933.9,1191.2,1471.8,1451.6,3449.1,3439.5,1663.4,1398.5,1389.4,3437.0,1118.2,1499.5,3435.8,3439.5,798.5,1560.9,1069.5,618.9,1340.4,1723.4,3439.5,3440.7,686.4,936.4,1287.3,1437.8,1267.6,1203.5,-11.0,-51.0,20.0,9631.0,12556.0,-3832.0,-1829.0,11.0,-11.0,-1.0,12.0,-55.0,12.0,11218.0,11882.0,895.0,-787.0,9.0,-6.0,2.0,1.0
2022-05-13 14:04:14.565639-07:00,2138.2,564.2,1166.5,1367.6,933.0,1183.2,1466.3,1456.2,3449.1,3439.5,1663.4,1398.5,1391.2,3440.7,1119.1,1494.9,3433.4,3437.0,795.2,1559.9,1069.5,618.9,1340.4,1723.4,3446.7,3458.9,683.1,927.1,1287.3,1437.8,1267.6,1203.5,-12.0,-74.0,28.0,9621.0,12561.0,-3834.0,-1843.0,-1.0,-30.0,-9.0,5.0,-60.0,7.0,11218.0,11881.0,897.0,-789.0,2.0,-8.0,-4.0,1.0
2022-05-13 14:04:14.610676-07:00,2135.1,552.2,1177.0,1369.4,933.0,1183.2,1466.3,1456.2,3440.7,3446.7,1672.9,1393.0,1391.2,3440.7,1119.1,1494.9,3433.4,3437.0,795.2,1559.9,1076.4,623.0,1338.6,1719.6,3446.7,3458.9,683.1,927.1,1288.2,1441.5,1254.2,1208.0,-10.0,-63.0,25.0,9623.0,12557.0,-3842.0,-1843.0,14.0,7.0,29.0,11.0,-56.0,8.0,11217.0,11883.0,895.0,-787.0,16.0,1.0,10.0,1.0
2022-05-13 14:04:14.655503-07:00,2135.1,552.2,1177.0,1369.4,935.6,1191.2,1468.1,1448.8,3440.7,3446.7,1672.9,1393.0,1396.7,3441.9,1114.7,1490.3,3441.9,3441.9,799.4,1561.8,1076.4,623.0,1338.6,1719.6,3440.7,3449.1,684.0,928.8,1288.2,1441.5,1254.2,1208.0,-15.0,-62.0,16.0,9615.0,12562.0,-3845.0,-1843.0,34.0,-29.0,-31.0,6.0,-55.0,6.0,11211.0,11888.0,896.0,-789.0,12.0,1.0,-12.0,1.0
2022-05-13 14:04:14.700523-07:00,2135.1,557.8,1171.8,1371.2,935.6,1191.2,1468.1,1448.8,3446.7,3440.7,1664.4,1402.1,1396.7,3441.9,1114.7,1490.3,3441.9,3441.9,799.4,1561.8,1075.6,624.6,1338.6,1715.8,3440.7,3449.1,684.0,928.8,1288.2,1441.5,1251.5,1201.8,-10.0,-73.0,21.0,9599.0,12573.0,-3845.0,-1856.0,2.0,-17.0,-8.0,2.0,-55.0,2.0,11207.0,11891.0,898.0,-791.0,2.0,-7.0,-2.0,1.0
2022-05-13 14:04:14.745564-07:00,2133.1,557.8,1171.8,1371.2,932.2,1186.7,1469.0,1441.5,3444.3,3440.7,1664.4,1402.1,1393.9,3438.2,1113.0,1494.0,3438.2,3435.8,795.2,1557.1,1075.6,624.6,1338.6,1717.7,3435.8,3443.1,684.8,932.2,1288.2,1441.5,1251.5,1202.7,-5.0,-69.0,28.0,9604.0,12568.0,-3848.0,-1857.0,-14.0,-1.0,27.0,17.0,-62.0,5.0,11209.0,11890.0,892.0,-791.0,-3.0,-15.0,15.0,1.0
2022-05-13 14:04:14.790421-07:00,2133.1,560.2,1166.5,1373.0,932.2,1186.7,1469.0,1448.8,3444.3,3439.5,1660.6,1398.5,1393.9,3438.2,1113.0,1498.6,3440.7,3435.8,795.2,1557.1,1077.3,621.4,1340.4,1717.7,3445.5,3443.1,684.8,932.2,1296.3,1434.1,1260.4,1202.7,-15.0,-56.0,26.0,9604.0,12568.0,-3849.0,-1855.0,4.0,-3.0,-23.0,7.0,-51.0,12.0,11210.0,11889.0,891.0,-792.0,-7.0,-3.0,-7.0,1.0
2022-05-13 14:04:14.880399-07:00,2136.1,560.2,1166.5,1373.0,932.2,1186.7,1458.9,1448.8,3443.1,3439.5,1660.6,1398.5,1391.2,3441.9,1113.0,1498.6,3440.7,3439.5,798.5,1554.3,1077.3,621.4,1340.4,1712.9,3445.5,3444.3,686.4,927.1,1296.3,1434.1,1260.4,1200.9,-18.0,-78.0,25.0,9604.0,12569.0,-3844.0,-1860.0,8.0,2.0,15.0,7.0,-70.0,11.0,11210.0,11889.0,892.0,-792.0,11.0,6.0,0.0,1.0
2022-05-13 14:04:14.881641-07:00,2136.1,549.8,1171.8,1372.1,932.2,1186.7,1458.9,1443.3,3443.1,3435.8,1653.0,1391.2,1391.2,3441.9,1113.0,1496.7,3439.5,3439.5,798.5,1554.3,1070.3,618.1,1346.7,1712.9,3441.9,3444.3,686.4,927.1,1285.5,1436.0,1250.6,1200.9,-9.0,-59.0,19.0,9596.0,12575.0,-3847.0,-1856.0,2.0,14.0,-21.0,8.0,-51.0,1.0,11205.0,11894.0,892.0,-792.0,-1.0,10.0,-7.0,1.0
2022-05-13 14:04:14.970353-07:00,2132.1,549.8,1171.8,1372.1,938.1,1185.0,1454.3,1443.3,3444.3,3435.8,1653.0,1391.2,1389.4,3441.9,1117.4,1496.7,3439.5,3434.6,794.4,1551.5,1070.3,618.1,1346.7,1712.9,3441.9,3435.8,680.7,935.6,1285.5,1436.0,1250.6,1201.8,-11.0,-77.0,18.0,9595.0,12577.0,-3840.0,-1858.0,19.0,-8.0,-2.0,12.0,-63.0,0.0,11206.0,11893.0,892.0,-792.0,9.0,0.0,0.0,1.0
2022-05-13 14:04:15.015070-07:00,2132.1,549.8,1168.2,1379.4,938.1,1185.0,1454.3,1443.3,3444.3,3441.9,1676.7,1397.6,1389.4,3441.9,1117.4,1492.1,3431.0,3434.6,794.4,1551.5,1070.3,623.8,1346.7,1712.9,3451.6,3435.8,680.7,935.6,1281.0,1443.3,1253.3,1201.8,-13.0,-68.0,22.0,9592.0,12578.0,-3842.0,-1860.0,-21.0,-16.0,-1.0,6.0,-55.0,3.0,11208.0,11891.0,890.0,-794.0,-15.0,-13.0,4.0,1.0
2022-05-13 14:04:15.060580-07:00,2134.1,551.4,1168.2,1379.4,931.3,1186.7,1459.8,1443.3,3445.5,3443.1,1676.7,1397.6,1392.1,3445.5,1115.6,1492.1,3431.0,3434.6,796.9,1559.9,1070.3,623.8,1339.5,1721.5,3451.6,3433.4,682.3,934.7,1281.0,1443.3,1253.3,1203.5,-12.0,-64.0,28.0,9595.0,12574.0,-3845.0,-1868.0,11.0,-12.0,0.0,10.0,-58.0,10.0,11209.0,11890.0,889.0,-796.0,9.0,-3.0,2.0,1.0
2022-05-13 14:04:15.103479-07:00,2134.1,551.4,1162.1,1373.9,931.3,1186.7,1462.6,1440.5,3445.5,3443.1,1667.2,1392.1,1392.1,3445.5,1121.7,1499.5,3444.3,3449.1,796.9,1559.9,1064.3,620.5,1339.5,1721.5,3447.9,3445.5,682.3,934.7,1281.9,1442.4,1253.3,1203.5,-14.0,-70.0,29.0,9595.0,12575.0,-3842.0,-1871.0,-10.0,10.0,-12.0,10.0,-58.0,11.0,11210.0,11889.0,889.0,-796.0,-10.0,0.0,-2.0,1.0
2022-05-13 14:04:15.195053-07:00,2128.0,549.8,1162.1,1373.9,932.2,1181.5,1462.6,1440.5,3435.8,3439.5,1667.2,1392.1,1386.6,3446.7,1121.7,1499.5,3444.3,3449.1,796.0,1558.1,1064.3,620.5,1340.4,1713.8,3447.9,3445.5,685.6,928.8,1281.9,1442.4,1252.4,1204.4,-10.0,-71.0,21.0,9596.0,12574.0,-3839.0,-1869.0,1.0,6.0,13.0,11.0,-62.0,5.0,11210.0,11889.0,889.0,-796.0,5.0,2.0,4.0,1.0
2022-05-13 14:04:15.196488-07:00,2128.0,549.8,1167.4,1376.6,932.2,1181.5,1456.2,1434.1,3435.8,3439.5,1669.1,1393.0,1386.6,3446.7,1113.0,1496.7,3432.2,3433.4,796.0,1558.1,1071.2,618.9,1340.4,1713.8,3440.7,3447.9,685.6,928.8,1280.1,1439.6,1252.4,1204.4,-7.0,-61.0,15.0,9595.0,12575.0,-3841.0,-1866.0,6.0,1.0,-12.0,12.0,-58.0,-1.0,11209.0,11890.0,889.0,-796.0,2.0,-1.0,-4.0,1.0
2022-05-13 14:04:15.285657-07:00,2136.1,553.8,1167.4,1376.6,946.6,1188.5,1456.2,1434.1,3438.2,3444.3,1669.1,1393.0,1387.5,3440.7,1113.0,1496.7,3432.2,3433.4,784.4,1558.1,1071.2,618.9,1337.7,1711.0,3440.7,3447.9,679.1,925.4,1280.1,1439.6,1245.3,1208.9,-13.0,-77.0,24.0,9594.0,12576.0,-3838.0,-1873.0,3.0,-20.0,-15.0,9.0,-58.0,5.0,11209.0,11890.0,888.0,-797.0,-3.0,-13.0,-1.0,1.0
2022-05-13 14:04:15.287148-07:00,2136.1,553.8,1170.0,1374.8,946.6,1180.6,1446.0,1436.9,3438.2,3444.3,1661.5,1397.6,1387.5,3441.9,1107.8,1500.4,3433.4,3441.9,791.0,1558.1,1065.1,616.5,1337.7,1711.0,3437.0,3452.8,680.7,925.4,1286.4,1435.0,1245.3,1208.9,-11.0,-65.0,29.0,9596.0,12572.0,-3842.0,-1875.0,-24.0,-1.0,13.0,11.0,-60.0,7.0,11211.0,11888.0,886.0,-800.0,-11.0,-9.0,4.0,1.0
2022-05-13 14:04:15.421388-07:00,2119.9,549.8,1162.1,1374.8,930.5,1180.6,1446.0,1436.9,3431.0,3428.6,1665.3,1397.6,1395.7,3441.9,1107.8,1500.4,3433.4,3441.9,791.0,1554.3,1065.1,618.9,1339.5,1718.6,3437.0,3452.8,680.7,934.7,1286.4,1438.7,1249.7,1199.1,-14.0,-64.0,23.0,9595.0,12575.0,-3838.0,-1874.0,20.0,10.0,-18.0,8.0,-58.0,10.0,11211.0,11888.0,885.0,-800.0,3.0,8.0,-6.0,1.0
2022-05-13 14:04:15.466007-07:00,2119.9,549.8,1162.1,1368.5,930.5,1183.2,1447.9,1436.9,3431.0,3428.6,1665.3,1389.4,1395.7,3444.3,1106.0,1492.1,3435.8,3438.2,794.4,1554.3,1073.8,618.9,1339.5,1718.6,3449.1,3432.2,678.2,934.7,1284.6,1438.7,1249.7,1199.1,-12.0,-71.0,17.0,9591.0,12578.0,-3835.0,-1876.0,17.0,-5.0,2.0,8.0,-58.0,1.0,11210.0,11889.0,885.0,-800.0,11.0,2.0,2.0,1.0
2022-05-13 14:04:15.467084-07:00,2126.0,553.8,1163.8,1368.5,930.5,1183.2,1447.9,1436.9,3431.0,3439.5,1662.5,1389.4,1391.2,3444.3,1106.0,1492.1,3435.8,3438.2,794.4,1555.3,1073.8,619.7,1329.6,1710.0,3449.1,3432.2,678.2,927.9,1284.6,1438.7,1243.5,1208.0,-10.0,-63.0,20.0,9588.0,12580.0,-3839.0,-1875.0,-3.0,-12.0,7.0,6.0,-57.0,1.0,11209.0,11890.0,884.0,-801.0,-4.0,-10.0,3.0,1.0
2022-05-13 14:04:15.510375-07:00,2126.0,553.8,1163.8,1364.8,930.5,1184.1,1458.0,1442.4,3431.0,3439.5,1662.5,1394.8,1391.2,3437.0,1107.8,1497.7,3435.8,3449.1,798.5,1555.3,1067.7,619.7,1329.6,1710.0,3449.1,3449.1,687.2,927.9,1282.8,1438.7,1243.5,1208.0,-17.0,-71.0,24.0,9589.0,12579.0,-3840.0,-1877.0,-7.0,-6.0,-4.0,6.0,-62.0,9.0,11210.0,11889.0,882.0,-803.0,-7.0,-6.0,-1.0,1.0
2022-05-13 14:04:15.555458-07:00,2129.0,553.0,1159.4,1364.8,933.0,1184.1,1458.0,1442.4,3441.9,3438.2,1666.3,1394.8,1396.7,3437.0,1107.8,1497.7,3435.8,3449.1,798.5,1557.1,1067.7,620.5,1336.8,1714.8,3449.1,3449.1,687.2,925.4,1282.8,1432.3,1253.3,1205.3,-10.0,-72.0,26.0,9588.0,12578.0,-3842.0,-1880.0,-3.0,1.0,2.0,12.0,-56.0,5.0,11210.0,11889.0,882.0,-803.0,-2.0,-2.0,5.0,1.0
2022-05-13 14:04:15.599905-07:00,2129.0,553.0,1159.4,1367.6,933.9,1187.6,1449.7,1436.0,3441.9,3438.2,1666.3,1401.2,1396.7,3446.7,1111.2,1496.7,3434.6,3432.2,800.2,1557.1,1069.5,620.5,1336.8,1714.8,3444.3,3438.2,684.0,931.3,1285.5,1432.3,1253.3,1205.3,-11.0,-58.0,26.0,9585.0,12580.0,-3844.0,-1881.0,23.0,-12.0,1.0,6.0,-55.0,3.0,11208.0,11890.0,882.0,-803.0,16.0,-4.0,-2.0,1.0
2022-05-13 14:04:15.645545-07:00,2129.0,554.6,1161.2,1371.2,933.9,1187.6,1449.7,1436.0,3438.2,3438.2,1654.9,1389.4,1396.7,3446.7,1111.2,1496.7,3434.6,3432.2,800.2,1557.1,1069.5,617.3,1344.0,1716.7,3444.3,3438.2,684.0,931.3,1289.1,1434.1,1250.6,1210.6,-18.0,-71.0,28.0,9579.0,12585.0,-3841.0,-1884.0,8.0,-5.0,-16.0,4.0,-59.0,12.0,11207.0,11891.0,883.0,-805.0,-4.0,4.0,-7.0,1.0
2022-05-13 14:04:15.690507-07:00,2129.0,554.6,1161.2,1371.2,936.4,1189.4,1451.6,1431.4,3438.2,3438.2,1654.9,1389.4,1397.6,3434.6,1112.1,1502.3,3441.9,3434.6,787.7,1555.3,1069.5,617.3,1344.0,1716.7,3438.2,3438.2,674.2,933.0,1289.1,1434.1,1250.6,1210.6,-10.0,-65.0,19.0,9580.0,12585.0,-3840.0,-1881.0,0.0,15.0,13.0,9.0,-61.0,2.0,11207.0,11891.0,884.0,-804.0,6.0,8.0,4.0,1.0
2022-05-13 14:04:15.824790-07:00,2127.0,553.8,1166.5,1383.0,936.4,1189.4,1451.6,1431.4,3446.7,3446.7,1669.1,1395.7,1397.6,3434.6,1112.1,1502.3,3441.9,3434.6,787.7,1555.3,1067.7,621.4,1343.1,1713.8,3438.2,3438.2,674.2,933.0,1284.6,1437.8,1245.3,1201.8,-7.0,-68.0,19.0,9579.0,12586.0,-3840.0,-1880.0,0.0,-9.0,-12.0,12.0,-57.0,-2.0,11207.0,11891.0,884.0,-804.0,-9.0,-3.0,-2.0,1.0
2022-05-13 14:04:15.827844-07:00,2127.0,553.8,1166.5,1383.0,935.6,1188.5,1447.0,1429.5,3446.7,3446.7,1669.1,1395.7,1395.7,3431.0,1106.0,1496.7,3433.4,3446.7,792.7,1556.2,1067.7,621.4,1343.1,1713.8,3438.2,3441.9,692.1,930.5,1284.6,1437.8,1245.3,1201.8,-12.0,-67.0,23.0,9571.0,12590.0,-3840.0,-1891.0,38.0,-37.0,-15.0,5.0,-56.0,2.0,11206.0,11892.0,884.0,-805.0,14.0,-9.0,-5.0,1.0
2022-05-13 14:04:15.828881-07:00,2128.0,550.6,1155.9,1371.2,935.6,1188.5,1447.0,1436.0,3446.7,3445.5,1661.5,1393.0,1395.7,3431.0,1106.0,1500.4,3434.6,3446.7,792.7,1556.2,1071.2,620.5,1336.8,1716.7,3445.5,3441.9,692.1,930.5,1290.9,1433.2,1250.6,1202.7,-16.0,-75.0,34.0,9572.0,12588.0,-3844.0,-1897.0,-39.0,1.0,15.0,2.0,-59.0,12.0,11209.0,11890.0,880.0,-808.0,-13.0,-12.0,10.0,1.0
2022-05-13 14:04:15.915601-07:00,2125.0,550.6,1155.9,1371.2,936.4,1192.9,1447.9,1436.0,3440.7,3445.5,1661.5,1393.0,1393.9,3441.9,1110.4,1500.4,3434.6,3438.2,791.9,1551.5,1071.2,620.5,1336.8,1711.0,3445.5,3445.5,689.7,931.3,1290.9,1433.2,1250.6,1210.6,-11.0,-51.0,25.0,9571.0,12588.0,-3847.0,-1888.0,37.0,9.0,2.0,11.0,-56.0,11.0,11204.0,11894.0,879.0,-808.0,24.0,4.0,-5.0,1.0
2022-05-13 14:04:16.004948-07:00,2125.0,552.2,1169.1,1365.7,936.4,1192.9,1447.9,1441.5,3440.7,3435.8,1663.4,1388.5,1393.9,3441.9,1110.4,1494.9,3439.5,3438.2,791.9,1551.5,1068.6,621.4,1339.5,1711.0,3440.7,3445.5,689.7,931.3,1289.1,1429.5,1250.6,1210.6,-13.0,-85.0,22.0,9569.0,12591.0,-3843.0,-1890.0,-15.0,12.0,-8.0,9.0,-63.0,0.0,11204.0,11894.0,879.0,-809.0,-5.0,4.0,0.0,1.0
2022-05-13 14:04:16.005992-07:00,2126.0,552.2,1169.1,1365.7,936.4,1196.5,1442.4,1441.5,3441.9,3435.8,1663.4,1388.5,1387.5,3443.1,1107.8,1494.9,3439.5,3433.4,791.9,1554.3,1068.6,621.4,1339.5,1710.0,3440.7,3438.2,682.3,932.2,1289.1,1429.5,1250.6,1204.4,-6.0,-58.0,16.0,9570.0,12589.0,-3849.0,-1884.0,1.0,-5.0,24.0,10.0,-55.0,-1.0,11203.0,11896.0,879.0,-808.0,3.0,-3.0,8.0,1.0
2022-05-13 14:04:16.050627-07:00,2126.0,552.2,1178.8,1372.1,936.4,1196.5,1442.4,1437.8,3441.9,3447.9,1663.4,1391.2,1387.5,3443.1,1107.8,1496.7,3441.9,3433.4,791.9,1554.3,1070.3,618.1,1336.8,1710.0,3440.7,3438.2,682.3,932.2,1296.3,1440.5,1250.6,1204.4,-12.0,-71.0,23.0,9572.0,12586.0,-3852.0,-1889.0,-9.0,-22.0,-4.0,10.0,-63.0,6.0,11206.0,11893.0,877.0,-809.0,-5.0,-7.0,-2.0,1.0
2022-05-13 14:04:16.095453-07:00,2118.9,552.2,1178.8,1372.1,936.4,1180.6,1435.0,1437.8,3449.1,3447.9,1663.4,1391.2,1396.7,3444.3,1106.0,1496.7,3441.9,3438.2,788.6,1541.3,1070.3,618.1,1336.8,1713.8,3440.7,3447.9,679.1,922.8,1296.3,1440.5,1250.6,1202.7,-13.0,-69.0,34.0,9571.0,12585.0,-3855.0,-1892.0,-10.0,-4.0,2.0,10.0,-61.0,7.0,11206.0,11892.0,878.0,-809.0,-11.0,-5.0,5.0,1.0
2022-05-13 14:04:16.139724-07:00,2118.9,551.4,1174.4,1373.0,936.4,1180.6,1443.3,1429.5,3449.1,3445.5,1666.3,1393.9,1396.7,3444.3,1111.2,1492.1,3423.7,3438.2,788.6,1541.3,1066.0,626.2,1338.6,1713.8,3449.1,3443.1,679.1,922.8,1279.2,1434.1,1238.2,1202.7,-13.0,-62.0,29.0,9570.0,12586.0,-3854.0,-1890.0,23.0,7.0,-1.0,7.0,-59.0,9.0,11205.0,11893.0,877.0,-809.0,15.0,9.0,-4.0,1.0
2022-05-13 14:04:16.185367-07:00,2131.1,552.2,1174.4,1373.0,940.7,1200.0,1443.3,1429.5,3438.2,3441.9,1666.3,1393.9,1396.7,3443.1,1111.2,1492.1,3423.7,3438.2,792.7,1557.1,1066.0,626.2,1333.2,1718.6,3449.1,3443.1,673.3,933.0,1279.2,1434.1,1239.9,1204.4,-16.0,-72.0,23.0,9564.0,12594.0,-3846.0,-1889.0,10.0,13.0,-18.0,6.0,-63.0,4.0,11203.0,11896.0,879.0,-809.0,5.0,9.0,-6.0,1.0
2022-05-13 14:04:16.232016-07:00,2131.1,552.2,1162.1,1366.6,940.7,1200.0,1440.5,1422.2,3438.2,3441.9,1665.3,1393.9,1396.7,3443.1,1111.2,1481.0,3434.6,3434.6,792.7,1557.1,1067.7,621.4,1333.2,1718.6,3441.9,3440.7,673.3,933.0,1287.3,1437.8,1239.9,1204.4,-11.0,-72.0,18.0,9565.0,12594.0,-3845.0,-1885.0,-4.0,10.0,16.0,7.0,-57.0,-1.0,11203.0,11896.0,879.0,-809.0,2.0,-4.0,6.0,1.0
2022-05-13 14:04:16.321828-07:00,2124.0,551.4,1162.1,1366.6,937.3,1181.5,1440.5,1422.2,3449.1,3437.0,1665.3,1393.9,1410.3,3444.3,1111.2,1481.0,3434.6,3434.6,794.4,1544.1,1067.7,621.4,1332.3,1716.7,3441.9,3440.7,680.7,928.8,1287.3,1437.8,1243.5,1208.9,-14.0,-65.0,16.0,9565.0,12593.0,-3847.0,-1884.0,1.0,-10.0,-9.0,5.0,-57.0,3.0,11203.0,11896.0,879.0,-809.0,0.0,-7.0,-2.0,1.0
2022-05-13 14:04:16.365715-07:00,2124.0,551.4,1163.8,1372.1,937.3,1181.5,1432.3,1431.4,3449.1,3437.0,1672.9,1393.9,1410.3,3444.3,1107.8,1491.2,3432.2,3435.8,794.4,1544.1,1065.1,622.2,1332.3,1716.7,3445.5,3439.5,680.7,928.8,1288.2,1436.0,1243.5,1208.9,-11.0,-74.0,35.0,9567.0,12590.0,-3849.0,-1893.0,-22.0,-14.0,-1.0,10.0,-59.0,12.0,11204.0,11894.0,879.0,-809.0,-19.0,-11.0,5.0,1.0
2022-05-13 14:04:16.410656-07:00,2113.9,560.2,1163.0,1372.1,933.9,1185.9,1432.3,1431.4,3441.9,3435.8,1660.6,1393.9,1395.7,3441.9,1107.8,1491.2,3432.2,3435.8,790.2,1552.5,1065.1,623.8,1332.3,1716.7,3445.5,3439.5,683.1,928.8,1288.2,1437.8,1249.7,1207.1,-12.0,-62.0,38.0,9567.0,12590.0,-3850.0,-1888.0,33.0,20.0,5.0,13.0,-59.0,14.0,11202.0,11896.0,882.0,-806.0,28.0,27.0,-3.0,1.0
2022-05-13 14:04:16.454234-07:00,2113.9,560.2,1163.0,1364.8,933.9,1186.7,1438.7,1426.8,3441.9,3435.8,1660.6,1401.2,1395.7,3445.5,1110.4,1495.8,3426.2,3441.9,798.5,1552.5,1059.9,623.8,1332.3,1716.7,3444.3,3445.5,684.0,928.8,1289.1,1437.8,1249.7,1207.1,-14.0,-71.0,21.0,9562.0,12599.0,-3839.0,-1882.0,1.0,30.0,-25.0,3.0,-59.0,7.0,11200.0,11898.0,890.0,-801.0,-11.0,18.0,-8.0,1.0
2022-05-13 14:04:16.500607-07:00,2118.9,551.4,1160.3,1364.8,935.6,1186.7,1438.7,1426.8,3439.5,3437.0,1659.6,1401.2,1393.0,3445.5,1110.4,1495.8,3426.2,3441.9,798.5,1547.8,1059.9,618.9,1338.6,1713.8,3444.3,3445.5,684.0,933.9,1289.1,1437.8,1245.3,1202.7,-13.0,-76.0,12.0,9562.0,12601.0,-3834.0,-1877.0,20.0,3.0,9.0,6.0,-63.0,-3.0,11199.0,11899.0,893.0,-798.0,24.0,13.0,-2.0,1.0
2022-05-13 14:04:16.545541-07:00,2118.9,551.4,1160.3,1363.9,935.6,1183.2,1441.5,1438.7,3439.5,3437.0,1659.6,1390.3,1393.0,3444.3,1103.4,1491.2,3433.4,3428.6,794.4,1547.8,1069.5,618.9,1338.6,1713.8,3433.4,3441.9,683.1,933.9,1292.7,1437.8,1245.3,1202.7,-11.0,-67.0,16.0,9556.0,12606.0,-3834.0,-1876.0,1.0,3.0,-11.0,7.0,-59.0,0.0,11195.0,11903.0,894.0,-798.0,-11.0,-3.0,-5.0,1.0
2022-05-13 14:04:16.590497-07:00,2133.1,561.0,1165.6,1363.9,932.2,1183.2,1441.5,1438.7,3441.9,3439.5,1661.5,1390.3,1393.0,3444.3,1103.4,1491.2,3433.4,3428.6,794.4,1553.4,1069.5,622.2,1336.8,1716.7,3433.4,3441.9,683.1,930.5,1292.7,1427.7,1263.1,1210.6,-15.0,-74.0,18.0,9558.0,12603.0,-3834.0,-1880.0,-13.0,-22.0,9.0,7.0,-60.0,6.0,11199.0,11899.0,892.0,-800.0,-5.0,-19.0,9.0,1.0
2022-05-13 14:04:16.635576-07:00,2133.1,561.0,1165.6,1370.3,932.2,1185.9,1436.9,1433.2,3441.9,3439.5,1661.5,1394.8,1393.0,3450.4,1108.6,1497.7,3440.7,3433.4,791.0,1553.4,1084.2,622.2,1336.8,1716.7,3444.3,3437.0,683.1,930.5,1287.3,1427.7,1263.1,1210.6,-9.0,-61.0,34.0,9558.0,12600.0,-3843.0,-1886.0,-10.0,-12.0,4.0,11.0,-58.0,5.0,11199.0,11898.0,886.0,-806.0,-10.0,-11.0,1.0,1.0
2022-05-13 14:04:16.680296-07:00,2125.0,549.0,1164.7,1367.6,933.0,1185.9,1436.9,1433.2,3438.2,3446.7,1663.4,1398.5,1390.3,3450.4,1108.6,1497.7,3440.7,3433.4,791.0,1545.9,1072.1,620.5,1341.3,1718.6,3444.3,3437.0,683.1,927.1,1288.2,1432.3,1249.7,1208.0,-13.0,-69.0,34.0,9558.0,12601.0,-3840.0,-1888.0,6.0,3.0,-10.0,7.0,-55.0,8.0,11200.0,11898.0,886.0,-806.0,-3.0,1.0,-4.0,1.0
2022-05-13 14:04:16.741636-07:00,2125.0,549.0,1164.7,1367.6,929.6,1195.6,1438.7,1428.6,3438.2,3446.7,1663.4,1398.5,1389.4,3434.6,1112.1,1496.7,3437.0,3449.1,792.7,1552.5,1072.1,620.5,1341.3,1718.6,3438.2,3440.7,674.2,927.1,1288.2,1432.3,1249.7,1208.0,-10.0,-67.0,23.0,9559.0,12600.0,-3841.0,-1884.0,-6.0,11.0,15.0,7.0,-57.0,7.0,11200.0,11898.0,886.0,-806.0,-6.0,3.0,5.0,1.0
2022-05-13 14:04:16.845896-07:00,2120.9,557.8,1165.6,1368.5,929.6,1195.6,1438.7,1428.6,3441.9,3438.2,1661.5,1390.3,1389.4,3434.6,1112.1,1496.7,3437.0,3449.1,792.7,1552.5,1072.1,617.3,1331.4,1712.9,3438.2,3440.7,674.2,927.1,1281.9,1434.1,1238.2,1203.5,-15.0,-68.0,26.0,9560.0,12600.0,-3840.0,-1880.0,-7.0,12.0,-3.0,8.0,-62.0,4.0,11200.0,11898.0,886.0,-806.0,-7.0,7.0,-1.0,1.0
2022-05-13 14:04:16.867557-07:00,2120.9,557.8,1165.6,1368.5,929.6,1187.6,1433.2,1429.5,3441.9,3438.2,1661.5,1390.3,1393.9,3447.9,1112.1,1496.7,3445.5,3446.7,792.7,1550.6,1072.1,617.3,1331.4,1712.9,3443.1,3444.3,685.6,931.3,1281.9,1434.1,1238.2,1203.5,-15.0,-67.0,13.0,9561.0,12601.0,-3836.0,-1875.0,12.0,10.0,-1.0,5.0,-57.0,2.0,11199.0,11899.0,888.0,-804.0,11.0,10.0,0.0,1.0
2022-05-13 14:04:16.977108-07:00,2119.9,557.0,1162.1,1367.6,929.6,1187.6,1433.2,1429.5,3437.0,3438.2,1656.8,1393.9,1393.9,3447.9,1112.1,1496.7,3445.5,3446.7,792.7,1550.6,1069.5,619.7,1333.2,1709.1,3443.1,3444.3,685.6,931.3,1289.1,1427.7,1247.1,1202.7,-7.0,-69.0,23.0,9559.0,12602.0,-3839.0,-1877.0,-11.0,-14.0,-1.0,10.0,-59.0,0.0,11198.0,11899.0,889.0,-803.0,-9.0,-9.0,1.0,1.0
2022-05-13 14:04:16.979264-07:00,2122.0,557.0,1162.1,1367.6,932.2,1185.0,1434.1,1429.5,3434.6,3438.2,1656.8,1393.9,1396.7,3433.4,1109.5,1500.4,3435.8,3434.6,794.4,1567.4,1069.5,619.7,1333.2,1712.9,3441.9,3444.3,679.9,926.2,1289.1,1427.7,1247.1,1204.4,-11.0,-66.0,30.0,9560.0,12601.0,-3839.0,-1878.0,13.0,-9.0,0.0,11.0,-59.0,9.0,11199.0,11899.0,888.0,-804.0,7.0,0.0,0.0,1.0
2022-05-13 14:04:16.994760-07:00,2122.0,553.8,1166.5,1367.6,932.2,1185.0,1434.1,1426.8,3434.6,3444.3,1664.4,1393.9,1396.7,3433.4,1109.5,1494.0,3438.2,3434.6,794.4,1567.4,1065.1,621.4,1332.3,1712.9,3447.9,3444.3,679.9,926.2,1299.8,1435.0,1248.8,1204.4,-15.0,-69.0,27.0,9559.0,12602.0,-3838.0,-1876.0,2.0,14.0,0.0,8.0,-60.0,7.0,11198.0,11900.0,888.0,-804.0,2.0,0.0,2.0,1.0
2022-05-13 14:04:17.085432-07:00,2120.9,553.8,1166.5,1367.6,943.2,1192.9,1432.3,1426.8,3443.1,3444.3,1664.4,1393.9,1397.6,3438.2,1108.6,1494.0,3438.2,3435.8,790.2,1545.9,1065.1,621.4,1332.3,1712.9,3447.9,3441.9,687.2,924.5,1299.8,1435.0,1248.8,1205.3,-13.0,-62.0,23.0,9560.0,12602.0,-3838.0,-1874.0,14.0,7.0,6.0,7.0,-57.0,5.0,11197.0,11901.0,887.0,-805.0,8.0,1.0,0.0,1.0
2022-05-13 14:04:17.129879-07:00,2120.9,553.8,1163.0,1369.4,943.2,1192.9,1432.3,1426.8,3443.1,3440.7,1658.7,1401.2,1397.6,3438.2,1108.6,1495.8,3446.7,3435.8,790.2,1545.9,1063.4,618.9,1337.7,1712.9,3449.1,3441.9,687.2,924.5,1289.1,1441.5,1240.8,1205.3,-11.0,-76.0,23.0,9557.0,12604.0,-3837.0,-1874.0,-6.0,-1.0,-10.0,7.0,-60.0,0.0,11197.0,11901.0,887.0,-805.0,-6.0,-6.0,-1.0,1.0
2022-05-13 14:04:17.131503-07:00,2114.9,553.8,1163.0,1369.4,928.8,1187.6,1425.9,1426.8,3434.6,3440.7,1658.7,1401.2,1389.4,3447.9,1107.8,1495.8,3446.7,3445.5,796.0,1542.2,1063.4,618.9,1337.7,1718.6,3449.1,3438.2,686.4,944.1,1289.1,1441.5,1240.8,1204.4,-13.0,-69.0,20.0,9558.0,12603.0,-3838.0,-1874.0,-23.0,-7.0,15.0,4.0,-61.0,3.0,11198.0,11900.0,886.0,-804.0,-19.0,-14.0,11.0,1.0
2022-05-13 14:04:17.175989-07:00,2114.9,559.4,1163.0,1372.1,928.8,1187.6,1425.9,1428.6,3434.6,3446.7,1665.3,1397.6,1389.4,3447.9,1107.8,1492.1,3443.1,3445.5,796.0,1542.2,1060.8,619.7,1340.4,1718.6,3449.1,3438.2,686.4,944.1,1289.1,1435.0,1247.1,1204.4,-8.0,-68.0,28.0,9570.0,12593.0,-3843.0,-1873.0,-40.0,5.0,19.0,11.0,-62.0,7.0,11206.0,11893.0,879.0,-805.0,-26.0,-6.0,12.0,1.0
2022-05-13 14:04:17.221239-07:00,2126.0,551.4,1163.0,1372.1,937.3,1177.0,1440.5,1428.6,3449.1,3441.9,1665.3,1397.6,1397.6,3435.8,1097.3,1492.1,3443.1,3438.2,791.9,1552.5,1060.8,619.7,1335.9,1716.7,3449.1,3443.1,673.3,928.8,1289.1,1435.0,1249.7,1208.0,-10.0,-52.0,30.0,9581.0,12584.0,-3843.0,-1875.0,-41.0,-1.0,-30.0,8.0,-46.0,5.0,11216.0,11883.0,878.0,-803.0,-61.0,-3.0,-5.0,1.0
2022-05-13 14:04:17.310576-07:00,2126.0,551.4,1163.0,1379.4,937.3,1177.0,1424.1,1435.0,3449.1,3441.9,1660.6,1392.1,1397.6,3435.8,1107.8,1497.7,3437.0,3440.7,791.9,1552.5,1063.4,617.3,1335.9,1716.7,3446.7,3441.9,673.3,928.8,1281.0,1428.6,1249.7,1208.0,-16.0,-93.0,34.0,9594.0,12576.0,-3832.0,-1886.0,41.0,0.0,19.0,8.0,-68.0,10.0,11230.0,11870.0,879.0,-802.0,31.0,10.0,0.0,1.0
2022-05-13 14:04:17.355751-07:00,2122.0,558.6,1163.0,1379.4,934.7,1179.7,1424.1,1435.0,3439.5,3446.7,1660.6,1392.1,1392.1,3443.1,1107.8,1497.7,3437.0,3440.7,792.7,1546.9,1063.4,617.3,1335.0,1714.8,3446.7,3441.9,684.8,923.7,1281.0,1428.6,1241.7,1201.8,-10.0,-49.0,23.0,9583.0,12583.0,-3839.0,-1876.0,-20.0,15.0,-5.0,11.0,-50.0,1.0,11222.0,11878.0,880.0,-801.0,-8.0,3.0,2.0,1.0
2022-05-13 14:04:17.446248-07:00,2122.0,558.6,1167.4,1372.1,934.7,1179.7,1431.4,1426.8,3439.5,3446.7,1658.7,1394.8,1392.1,3443.1,1107.8,1491.2,3438.2,3437.0,792.7,1546.9,1065.1,617.3,1335.0,1714.8,3443.1,3449.1,684.8,923.7,1284.6,1432.3,1241.7,1201.8,-12.0,-72.0,19.0,9583.0,12584.0,-3834.0,-1878.0,20.0,-13.0,-7.0,8.0,-58.0,4.0,11222.0,11878.0,880.0,-801.0,12.0,-2.0,-3.0,1.0
2022-05-13 14:04:17.536744-07:00,2109.8,558.6,1167.4,1372.1,931.3,1178.8,1431.4,1426.8,3441.9,3447.9,1658.7,1394.8,1394.8,3449.1,1107.8,1491.2,3438.2,3437.0,788.6,1546.9,1065.1,617.3,1338.6,1711.9,3443.1,3449.1,693.8,933.0,1284.6,1432.3,1245.3,1201.8,-14.0,-72.0,23.0,9583.0,12583.0,-3838.0,-1881.0,-19.0,-14.0,19.0,2.0,-60.0,4.0,11221.0,11878.0,878.0,-804.0,-9.0,-15.0,9.0,1.0
2022-05-13 14:04:17.537838-07:00,2109.8,558.6,1160.3,1367.6,931.3,1185.0,1425.9,1435.0,3441.9,3447.9,1660.6,1391.2,1394.8,3444.3,1107.8,1492.1,3438.2,3439.5,784.4,1546.9,1067.7,619.7,1338.6,1711.9,3435.8,3449.1,682.3,933.0,1289.1,1436.0,1245.3,1201.8,-16.0,-57.0,29.0,9582.0,12581.0,-3844.0,-1884.0,12.0,-12.0,-16.0,7.0,-57.0,10.0,11222.0,11878.0,875.0,-807.0,5.0,-3.0,-7.0,1.0
2022-05-13 14:04:17.538903-07:00,2113.9,559.4,1156.8,1367.6,934.7,1185.0,1425.9,1435.0,3438.2,3439.5,1660.6,1391.2,1397.6,3444.3,1107.8,1492.1,3438.2,3439.5,784.4,1550.6,1067.7,619.7,1335.0,1711.0,3435.8,3449.1,682.3,929.6,1289.1,1435.0,1243.5,1199.1,-9.0,-75.0,38.0,9579.0,12584.0,-3841.0,-1889.0,0.0,10.0,1.0,8.0,-58.0,7.0,11222.0,11878.0,875.0,-807.0,3.0,1.0,-1.0,1.0
2022-05-13 14:04:17.578852-07:00,2113.9,559.4,1156.8,1367.6,934.7,1174.4,1428.6,1446.0,3438.2,3439.5,1660.6,1395.7,1397.6,3433.4,1106.9,1493.0,3435.8,3437.0,782.7,1550.6,1062.5,619.7,1335.0,1711.0,3444.3,3444.3,687.2,929.6,1285.5,1435.0,1243.5,1199.1,-12.0,-70.0,27.0,9583.0,12582.0,-3841.0,-1880.0,14.0,13.0,14.0,10.0,-63.0,7.0,11222.0,11878.0,874.0,-807.0,11.0,1.0,5.0,1.0
2022-05-13 14:04:17.671396-07:00,2119.9,549.0,1161.2,1367.6,937.3,1174.4,1428.6,1446.0,3443.1,3441.9,1666.3,1395.7,1394.8,3433.4,1106.9,1493.0,3435.8,3437.0,782.7,1543.1,1062.5,617.3,1333.2,1713.8,3444.3,3444.3,687.2,924.5,1285.5,1436.0,1249.7,1207.1,-9.0,-60.0,20.0,9577.0,12587.0,-3841.0,-1879.0,-7.0,-4.0,-23.0,7.0,-56.0,3.0,11218.0,11882.0,874.0,-807.0,-13.0,-3.0,-7.0,1.0
2022-05-13 14:04:17.672965-07:00,2119.9,549.0,1161.2,1363.9,937.3,1183.2,1414.9,1425.0,3443.1,3441.9,1666.3,1392.1,1394.8,3435.8,1104.3,1491.2,3439.5,3423.7,787.7,1543.1,1070.3,617.3,1333.2,1713.8,3440.7,3441.9,674.2,924.5,1286.4,1436.0,1249.7,1207.1,-15.0,-77.0,22.0,9577.0,12587.0,-3839.0,-1881.0,13.0,-11.0,17.0,7.0,-65.0,7.0,11219.0,11880.0,873.0,-807.0,12.0,-6.0,4.0,1.0
2022-05-13 14:04:17.716114-07:00,2104.8,549.0,1159.4,1363.9,933.0,1183.2,1414.9,1425.0,3439.5,3432.2,1666.3,1392.1,1397.6,3435.8,1104.3,1491.2,3439.5,3423.7,787.7,1545.9,1070.3,616.5,1337.7,1718.6,3440.7,3441.9,674.2,928.8,1286.4,1436.0,1246.2,1199.1,-8.0,-56.0,30.0,9568.0,12591.0,-3847.0,-1886.0,3.0,-19.0,-26.0,10.0,-56.0,3.0,11216.0,11884.0,873.0,-808.0,-5.0,-5.0,-9.0,1.0
2022-05-13 14:04:17.850128-07:00,2104.8,549.0,1159.4,1364.8,925.4,1179.7,1418.6,1421.3,3439.5,3432.2,1666.3,1393.9,1393.0,3440.7,1103.4,1493.0,3439.5,3432.2,792.7,1546.9,1062.5,616.5,1337.7,1718.6,3446.7,3437.0,683.1,925.4,1286.4,1436.0,1246.2,1199.1,-14.0,-71.0,30.0,9564.0,12594.0,-3844.0,-1893.0,20.0,-9.0,-3.0,7.0,-59.0,11.0,11215.0,11885.0,873.0,-808.0,11.0,4.0,2.0,1.0
2022-05-13 14:04:17.852329-07:00,2114.9,553.8,1165.6,1370.3,925.4,1179.7,1418.6,1421.3,3446.7,3433.4,1669.1,1385.7,1393.0,3440.7,1103.4,1493.0,3439.5,3432.2,792.7,1546.9,1062.5,624.6,1339.5,1712.9,3446.7,3437.0,683.1,925.4,1287.3,1436.0,1239.9,1201.8,-13.0,-65.0,27.0,9564.0,12594.0,-3847.0,-1890.0,-8.0,7.0,11.0,7.0,-56.0,6.0,11214.0,11885.0,873.0,-808.0,3.0,-2.0,7.0,1.0
2022-05-13 14:04:17.895768-07:00,2114.9,553.8,1165.6,1370.3,934.7,1178.8,1422.2,1420.4,3446.7,3433.4,1669.1,1385.7,1390.3,3439.5,1100.8,1484.7,3441.9,3446.7,795.2,1545.9,1062.5,624.6,1339.5,1712.9,3443.1,3445.5,677.4,925.4,1287.3,1436.0,1239.9,1201.8,-9.0,-68.0,25.0,9564.0,12594.0,-3847.0,-1890.0,1.0,6.0,5.0,8.0,-59.0,2.0,11214.0,11885.0,873.0,-808.0,1.0,-1.0,2.0,1.0
2022-05-13 14:04:17.940737-07:00,2124.0,556.2,1163.0,1364.8,934.7,1178.8,1422.2,1420.4,3444.3,3449.1,1654.9,1393.9,1390.3,3439.5,1100.8,1484.7,3441.9,3446.7,795.2,1545.9,1068.6,618.1,1334.1,1714.8,3443.1,3445.5,677.4,925.4,1289.1,1427.7,1248.0,1199.1,-10.0,-64.0,31.0,9564.0,12594.0,-3847.0,-1890.0,2.0,-5.0,-2.0,5.0,-59.0,1.0,11214.0,11885.0,873.0,-808.0,3.0,-4.0,1.0,1.0
2022-05-13 14:04:18.075278-07:00,2124.0,556.2,1163.0,1364.8,933.9,1192.9,1431.4,1426.8,3444.3,3449.1,1654.9,1393.9,1389.4,3435.8,1099.0,1489.3,3441.9,3433.4,793.5,1552.5,1068.6,618.1,1334.1,1714.8,3434.6,3433.4,679.9,925.4,1289.1,1427.7,1248.0,1199.1,-14.0,-71.0,29.0,9564.0,12594.0,-3847.0,-1890.0,-1.0,-2.0,2.0,5.0,-59.0,10.0,11214.0,11885.0,873.0,-808.0,-2.0,-7.0,2.0,1.0
2022-05-13 14:04:18.078804-07:00,2116.9,555.4,1174.4,1369.4,933.9,1192.9,1431.4,1418.6,3438.2,3445.5,1662.5,1393.0,1389.4,3435.8,1099.0,1492.1,3440.7,3433.4,793.5,1552.5,1067.7,617.3,1335.0,1715.8,3449.1,3433.4,679.9,925.4,1291.8,1431.4,1239.9,1201.8,-18.0,-66.0,31.0,9564.0,12593.0,-3850.0,-1887.0,-6.0,-1.0,15.0,3.0,-59.0,12.0,11214.0,11885.0,873.0,-808.0,-2.0,-7.0,5.0,1.0
2022-05-13 14:04:18.079923-07:00,2117.9,555.4,1174.4,1369.4,939.8,1189.4,1425.9,1418.6,3445.5,3445.5,1662.5,1393.0,1392.1,3449.1,1104.3,1492.1,3440.7,3440.7,793.5,1547.8,1067.7,617.3,1335.0,1718.6,3449.1,3439.5,682.3,922.0,1291.8,1431.4,1239.9,1204.4,-9.0,-68.0,31.0,9561.0,12595.0,-3850.0,-1888.0,13.0,-2.0,-13.0,9.0,-56.0,4.0,11214.0,11885.0,873.0,-808.0,6.0,5.0,-6.0,1.0
2022-05-13 14:04:18.120582-07:00,2117.9,551.4,1163.0,1375.7,939.8,1189.4,1425.9,1420.4,3445.5,3437.0,1662.5,1392.1,1392.1,3449.1,1104.3,1493.0,3438.2,3440.7,793.5,1547.8,1066.9,619.7,1336.8,1718.6,3441.9,3439.5,682.3,922.0,1291.8,1431.4,1249.7,1204.4,-10.0,-73.0,26.0,9562.0,12596.0,-3847.0,-1884.0,-7.0,12.0,10.0,9.0,-62.0,2.0,11214.0,11885.0,873.0,-808.0,-1.0,4.0,5.0,1.0
2022-05-13 14:04:18.211596-07:00,2118.9,551.4,1163.0,1375.7,930.5,1185.0,1417.6,1420.4,3443.1,3437.0,1662.5,1392.1,1386.6,3438.2,1122.6,1493.0,3438.2,3437.0,787.7,1547.8,1066.9,619.7,1336.8,1711.0,3441.9,3437.0,682.3,933.0,1291.8,1431.4,1249.7,1195.6,-9.0,-59.0,23.0,9559.0,12597.0,-3850.0,-1885.0,5.0,-15.0,-11.0,9.0,-53.0,2.0,11214.0,11885.0,873.0,-808.0,0.0,-7.0,-1.0,1.0
2022-05-13 14:04:18.255401-07:00,2118.9,551.4,1163.8,1368.5,930.5,1185.0,1417.6,1426.8,3443.1,3444.3,1658.7,1397.6,1386.6,3438.2,1122.6,1496.7,3437.0,3437.0,787.7,1547.8,1066.9,621.4,1339.5,1711.0,3449.1,3437.0,682.3,933.0,1292.7,1429.5,1246.2,1195.6,-18.0,-71.0,31.0,9561.0,12595.0,-3849.0,-1890.0,-8.0,-2.0,10.0,3.0,-60.0,11.0,11217.0,11883.0,871.0,-810.0,-11.0,-12.0,3.0,1.0
2022-05-13 14:04:18.300621-07:00,2114.9,551.4,1163.8,1368.5,936.4,1180.6,1425.0,1426.8,3437.0,3444.3,1658.7,1397.6,1393.0,3441.9,1102.5,1496.7,3437.0,3444.3,792.7,1547.8,1066.9,621.4,1339.5,1714.8,3449.1,3440.7,675.8,922.8,1292.7,1429.5,1246.2,1204.4,-16.0,-59.0,29.0,9561.0,12594.0,-3852.0,-1887.0,3.0,2.0,-3.0,6.0,-55.0,10.0,11217.0,11883.0,871.0,-810.0,5.0,2.0,-1.0,1.0
2022-05-13 14:04:18.390138-07:00,2114.9,552.2,1159.4,1371.2,936.4,1180.6,1426.8,1418.6,3437.0,3443.1,1663.4,1394.8,1393.0,3441.9,1104.3,1491.2,3432.2,3434.6,792.7,1547.8,1062.5,622.2,1337.7,1714.8,3443.1,3451.6,675.8,922.8,1288.2,1434.1,1244.4,1204.4,-15.0,-76.0,30.0,9557.0,12598.0,-3848.0,-1889.0,4.0,12.0,-9.0,9.0,-59.0,4.0,11217.0,11882.0,872.0,-811.0,4.0,4.0,-7.0,1.0
2022-05-13 14:04:18.391478-07:00,2109.8,552.2,1159.4,1371.2,937.3,1184.1,1426.8,1418.6,3438.2,3444.3,1663.4,1394.8,1390.3,3446.7,1104.3,1491.2,3432.2,3434.6,786.1,1548.7,1062.5,622.2,1336.8,1702.4,3443.1,3451.6,679.9,924.5,1288.2,1434.1,1242.6,1199.1,-13.0,-63.0,20.0,9559.0,12598.0,-3849.0,-1883.0,11.0,0.0,15.0,7.0,-60.0,2.0,11217.0,11882.0,872.0,-811.0,9.0,-2.0,6.0,1.0
2022-05-13 14:04:18.480166-07:00,2109.8,552.2,1163.8,1371.2,937.3,1184.1,1428.6,1417.6,3438.2,3444.3,1661.5,1388.5,1390.3,3446.7,1101.7,1488.4,3423.7,3439.5,786.1,1548.7,1061.7,620.5,1336.8,1702.4,3444.3,3441.9,679.9,924.5,1288.2,1436.0,1242.6,1199.1,-11.0,-70.0,27.0,9557.0,12599.0,-3849.0,-1886.0,-10.0,-5.0,-14.0,8.0,-57.0,1.0,11217.0,11882.0,872.0,-811.0,-7.0,-5.0,-3.0,1.0
2022-05-13 14:04:18.481302-07:00,2120.9,546.6,1163.8,1371.2,939.8,1187.6,1428.6,1417.6,3439.5,3443.1,1661.5,1388.5,1392.1,3438.2,1101.7,1488.4,3423.7,3439.5,789.4,1545.9,1061.7,620.5,1336.8,1711.0,3444.3,3441.9,684.8,927.1,1288.2,1436.0,1243.5,1185.9,-15.0,-70.0,25.0,9556.0,12599.0,-3850.0,-1888.0,12.0,-17.0,8.0,10.0,-59.0,4.0,11217.0,11882.0,872.0,-811.0,6.0,-6.0,1.0,1.0
2022-05-13 14:04:18.525861-07:00,2120.9,546.6,1161.2,1362.1,939.8,1187.6,1426.8,1412.2,3439.5,3443.1,1657.7,1389.4,1392.1,3438.2,1104.3,1501.4,3433.4,3446.7,789.4,1545.9,1062.5,624.6,1336.8,1711.0,3439.5,3445.5,684.8,927.1,1283.7,1434.1,1243.5,1185.9,-9.0,-66.0,35.0,9554.0,12599.0,-3853.0,-1892.0,-7.0,-1.0,-4.0,8.0,-60.0,4.0,11217.0,11882.0,872.0,-812.0,-5.0,-7.0,3.0,1.0
2022-05-13 14:04:18.613742-07:00,2127.0,549.8,1160.3,1362.1,930.5,1178.8,1426.8,1412.2,3438.2,3440.7,1657.7,1389.4,1395.7,3439.5,1104.3,1501.4,3433.4,3446.7,791.0,1543.1,1062.5,616.5,1335.9,1711.9,3439.5,3445.5,680.7,927.1,1283.7,1434.1,1242.6,1197.4,-15.0,-64.0,28.0,9553.0,12599.0,-3853.0,-1892.0,3.0,8.0,-1.0,6.0,-60.0,5.0,11217.0,11882.0,872.0,-812.0,2.0,-1.0,0.0,1.0
2022-05-13 14:04:18.661761-07:00,2127.0,549.8,1160.3,1367.6,930.5,1181.5,1430.5,1419.5,3438.2,3440.7,1657.7,1393.0,1395.7,3434.6,1103.4,1494.0,3435.8,3432.2,791.9,1543.1,1066.0,616.5,1335.9,1711.9,3444.3,3444.3,680.7,927.1,1296.3,1434.1,1242.6,1197.4,-14.0,-69.0,22.0,9553.0,12599.0,-3853.0,-1892.0,4.0,-6.0,5.0,4.0,-58.0,1.0,11217.0,11882.0,872.0,-812.0,5.0,-5.0,0.0,1.0
2022-05-13 14:04:18.663288-07:00,2119.9,555.4,1162.1,1367.6,933.9,1181.5,1430.5,1419.5,3433.4,3440.7,1656.8,1393.0,1395.7,3434.6,1103.4,1494.0,3435.8,3432.2,791.9,1546.9,1066.0,618.1,1336.8,1716.7,3444.3,3444.3,680.7,933.0,1296.3,1434.1,1242.6,1199.1,-14.0,-67.0,25.0,9554.0,12599.0,-3853.0,-1892.0,-4.0,-9.0,-3.0,8.0,-60.0,3.0,11217.0,11882.0,871.0,-812.0,-6.0,-11.0,-1.0,1.0
2022-05-13 14:04:18.751329-07:00,2119.9,555.4,1162.1,1365.7,933.9,1195.6,1419.5,1408.5,3433.4,3440.7,1656.8,1393.9,1395.7,3437.0,1106.0,1493.0,3434.6,3427.4,793.5,1546.9,1076.4,618.1,1336.8,1716.7,3443.1,3435.8,674.2,933.0,1285.5,1434.1,1242.6,1199.1,-10.0,-73.0,36.0,9553.0,12599.0,-3854.0,-1894.0,-6.0,2.0,1.0,10.0,-60.0,5.0,11217.0,11882.0,871.0,-812.0,-5.0,-5.0,2.0,1.0
2022-05-13 14:04:18.796072-07:00,2111.8,555.4,1158.6,1365.7,930.5,1195.6,1419.5,1408.5,3438.2,3441.9,1663.4,1393.9,1393.0,3437.0,1106.0,1493.0,3434.6,3427.4,793.5,1548.7,1076.4,621.4,1336.8,1714.8,3443.1,3435.8,674.2,930.5,1285.5,1438.7,1244.4,1208.0,-14.0,-60.0,27.0,9553.0,12598.0,-3857.0,-1893.0,7.0,-14.0,8.0,5.0,-58.0,5.0,11217.0,11882.0,871.0,-812.0,8.0,-3.0,2.0,1.0
2022-05-13 14:04:18.840683-07:00,2111.8,555.4,1158.6,1362.1,930.5,1178.8,1417.6,1422.2,3438.2,3441.9,1663.4,1387.5,1393.0,3440.7,1103.4,1495.8,3449.1,3433.4,788.6,1548.7,1063.4,621.4,1336.8,1714.8,3443.1,3446.7,679.1,930.5,1287.3,1438.7,1244.4,1208.0,-17.0,-71.0,35.0,9553.0,12599.0,-3854.0,-1895.0,6.0,-5.0,-14.0,8.0,-63.0,6.0,11217.0,11883.0,871.0,-812.0,-1.0,3.0,-6.0,1.0
2022-05-13 14:04:18.885424-07:00,2104.8,556.2,1170.0,1365.7,933.9,1178.8,1417.6,1422.2,3437.0,3435.8,1665.3,1389.4,1393.9,3440.7,1103.4,1495.8,3449.1,3433.4,788.6,1540.3,1060.8,618.9,1336.8,1709.1,3443.1,3446.7,679.1,933.0,1284.6,1434.1,1229.3,1204.4,-14.0,-74.0,26.0,9552.0,12601.0,-3852.0,-1891.0,1.0,21.0,12.0,11.0,-60.0,3.0,11217.0,11883.0,872.0,-812.0,6.0,12.0,2.0,1.0
2022-05-13 14:04:18.931517-07:00,2104.8,556.2,1170.0,1365.7,934.7,1173.5,1429.5,1424.1,3437.0,3435.8,1665.3,1389.4,1391.2,3438.2,1104.3,1492.1,3441.9,3441.9,790.2,1545.9,1060.8,618.9,1336.8,1709.1,3443.1,3437.0,678.2,927.9,1284.6,1434.1,1229.3,1204.4,-11.0,-61.0,17.0,9552.0,12601.0,-3853.0,-1887.0,11.0,-8.0,-8.0,8.0,-59.0,4.0,11217.0,11883.0,872.0,-812.0,3.0,-2.0,-4.0,1.0
2022-05-13 14:04:18.973740-07:00,2116.9,557.0,1165.6,1366.6,934.7,1173.5,1429.5,1424.1,3441.9,3433.4,1655.8,1389.4,1391.2,3438.2,1104.3,1492.1,3441.9,3441.9,790.2,1545.9,1062.5,620.5,1341.3,1716.7,3443.1,3437.0,678.2,927.9,1290.0,1430.5,1246.2,1205.3,-14.0,-74.0,28.0,9551.0,12601.0,-3852.0,-1895.0,-13.0,-8.0,-1.0,4.0,-61.0,4.0,11218.0,11882.0,870.0,-813.0,-12.0,-10.0,-1.0,1.0
2022-05-13 14:04:19.111033-07:00,2116.9,557.0,1165.6,1366.6,932.2,1183.2,1427.7,1417.6,3441.9,3433.4,1655.8,1389.4,1392.1,3444.3,1101.7,1496.7,3439.5,3438.2,791.9,1548.7,1062.5,620.5,1341.3,1716.7,3444.3,3445.5,672.5,941.5,1290.0,1430.5,1246.2,1205.3,-14.0,-57.0,29.0,9552.0,12599.0,-3856.0,-1893.0,7.0,-5.0,4.0,8.0,-55.0,11.0,11218.0,11881.0,870.0,-814.0,6.0,-5.0,4.0,1.0
2022-05-13 14:04:19.112813-07:00,2108.8,553.8,1158.6,1368.5,932.2,1183.2,1427.7,1417.6,3444.3,3439.5,1658.7,1390.3,1392.1,3444.3,1101.7,1496.7,3439.5,3438.2,791.9,1548.7,1061.7,618.1,1335.9,1715.8,3444.3,3445.5,672.5,941.5,1289.1,1429.5,1239.9,1195.6,-12.0,-74.0,35.0,9552.0,12601.0,-3852.0,-1896.0,3.0,-3.0,-10.0,8.0,-60.0,8.0,11218.0,11881.0,870.0,-814.0,-5.0,-1.0,-6.0,1.0
2022-05-13 14:04:19.335999-07:00,2112.8,553.8,1158.6,1368.5,933.0,1188.5,1418.6,1421.3,3437.0,3439.5,1658.7,1390.3,1391.2,3435.8,1104.3,1490.3,3428.6,3439.5,787.7,1541.3,1061.7,618.1,1335.9,1710.0,3438.2,3438.2,687.2,929.6,1289.1,1429.5,1239.9,1206.2,-13.0,-69.0,24.0,9552.0,12600.0,-3854.0,-1894.0,-1.0,6.0,12.0,6.0,-61.0,4.0,11218.0,11881.0,870.0,-814.0,4.0,-1.0,7.0,1.0
2022-05-13 14:04:19.337709-07:00,2112.8,545.0,1157.7,1370.3,933.0,1188.5,1418.6,1427.7,3437.0,3443.1,1662.5,1390.3,1391.2,3435.8,1104.3,1494.9,3437.0,3439.5,787.7,1541.3,1059.1,620.5,1335.9,1710.0,3447.9,3438.2,687.2,929.6,1281.9,1431.4,1239.1,1206.2,-13.0,-61.0,23.0,9552.0,12600.0,-3854.0,-1894.0,1.0,-7.0,-11.0,8.0,-61.0,0.0,11218.0,11881.0,870.0,-814.0,-1.0,-4.0,-3.0,1.0
2022-05-13 14:04:19.338803-07:00,2122.0,545.0,1157.7,1370.3,927.1,1188.5,1425.9,1427.7,3451.6,3443.1,1662.5,1390.3,1383.9,3450.4,1109.5,1494.9,3437.0,3443.1,792.7,1540.3,1059.1,620.5,1335.9,1718.6,3447.9,3454.0,679.9,931.3,1281.9,1431.4,1239.1,1208.9,-14.0,-66.0,26.0,9551.0,12601.0,-3853.0,-1896.0,12.0,-13.0,2.0,6.0,-58.0,6.0,11218.0,11881.0,870.0,-814.0,7.0,-7.0,1.0,1.0
2022-05-13 14:04:19.339872-07:00,2122.0,554.6,1165.6,1372.1,927.1,1188.5,1425.9,1424.1,3451.6,3449.1,1665.3,1393.0,1383.9,3450.4,1109.5,1500.4,3441.9,3443.1,792.7,1540.3,1060.8,619.7,1335.0,1718.6,3444.3,3454.0,679.9,931.3,1289.1,1429.5,1240.8,1208.9,-14.0,-64.0,30.0,9548.0,12601.0,-3857.0,-1901.0,3.0,-14.0,-10.0,9.0,-62.0,12.0,11218.0,11881.0,869.0,-814.0,0.0,-7.0,-3.0,1.0
2022-05-13 14:04:19.380696-07:00,2115.9,554.6,1165.6,1372.1,931.3,1177.0,1417.6,1424.1,3450.4,3449.1,1665.3,1393.0,1383.9,3439.5,1100.8,1500.4,3441.9,3437.0,786.9,1540.3,1060.8,619.7,1335.0,1714.8,3444.3,3444.3,679.1,930.5,1289.1,1429.5,1240.8,1204.4,-30.0,-74.0,41.0,9553.0,12599.0,-3847.0,-1906.0,12.0,45.0,19.0,8.0,-72.0,3.0,11218.0,11881.0,869.0,-814.0,8.0,7.0,5.0,1.0
2022-05-13 14:04:19.381486-07:00,2115.9,554.6,1165.6,1372.1,931.3,1177.0,1417.6,1424.1,3450.4,3449.1,1665.3,1393.0,1383.9,3439.5,1100.8,1500.4,3441.9,3437.0,786.9,1540.3,1060.8,619.7,1335.0,1714.8,3444.3,3444.3,679.1,930.5,1289.1,1429.5,1240.8,1204.4,-30.0,-74.0,41.0,9553.0,12599.0,-3847.0,-1906.0,12.0,45.0,19.0,8.0,-72.0,3.0,11218.0,11881.0,869.0,-814.0,8.0,7.0,5.0,1.0
2022-05-13 14:04:19.425719-07:00,2112.8,552.2,1163.0,1371.2,937.3,1185.9,1420.4,1422.2,3439.5,3438.2,1664.4,1393.0,1393.0,3445.5,1170.0,1513.4,3429.8,3447.9,790.2,1540.3,1059.9,614.1,1369.4,1712.9,3437.0,3446.7,686.4,933.0,1292.7,1461.7,1500.4,1198.2,-78.0,-42.0,36.0,9523.0,12610.0,-3880.0,-1923.0,-106.0,-82.0,2.0,20.0,-63.0,32.0,11210.0,11888.0,871.0,-820.0,-55.0,15.0,-10.0,1.0
2022-05-13 14:04:19.470360-07:00,2112.8,552.2,1296.3,1416.7,937.3,1185.9,1417.6,1430.5,3439.5,3438.2,1728.2,1406.7,1393.0,3445.5,1449.7,1661.5,3444.3,3437.0,790.2,1540.3,1066.0,624.6,1369.4,1712.9,3441.9,3441.9,686.4,933.0,1287.3,1634.1,1500.4,1198.2,38.0,-56.0,10.0,9497.0,12595.0,-3949.0,-2004.0,81.0,-264.0,-25.0,0.0,-47.0,-40.0,11211.0,11887.0,870.0,-832.0,17.0,-57.0,-20.0,1.0
2022-05-13 14:04:19.516237-07:00,2142.2,550.6,1296.3,1416.7,944.9,1209.7,1417.6,1430.5,3438.2,3439.5,1728.2,1406.7,1400.3,3445.5,1449.7,1661.5,3444.3,3437.0,794.4,1540.3,1066.0,624.6,1414.9,1731.1,3441.9,3441.9,688.9,938.1,1287.3,1634.1,1733.0,1199.1,-75.0,-83.0,70.0,9494.0,12577.0,-3978.0,-2070.0,-90.0,-124.0,43.0,6.0,-68.0,37.0,11226.0,11873.0,856.0,-848.0,-36.0,-31.0,6.0,1.0
2022-05-13 14:04:19.561300-07:00,2142.2,550.6,1541.3,1506.0,944.9,1209.7,1428.6,1422.2,3438.2,3439.5,1980.6,1448.8,1400.3,3445.5,1607.7,1794.5,3428.6,3439.5,794.4,1540.3,1069.5,619.7,1414.9,1731.1,3449.1,3454.0,688.9,938.1,1290.9,1797.4,1733.0,1199.1,26.0,-29.0,5.0,9456.0,12564.0,-4071.0,-2142.0,152.0,-389.0,18.0,5.0,-41.0,-24.0,11209.0,11888.0,856.0,-857.0,93.0,-33.0,-34.0,1.0
2022-05-13 14:04:19.785894-07:00,2213.7,557.0,1541.3,1506.0,944.1,1252.4,1428.6,1422.2,3438.2,3440.7,1980.6,1448.8,1414.0,3447.9,1607.7,1794.5,3428.6,3439.5,794.4,1545.0,1069.5,619.7,1443.3,1742.6,3449.1,3454.0,692.9,943.2,1290.9,1797.4,1845.0,1207.1,-46.0,-89.0,76.0,9431.0,12555.0,-4104.0,-2240.0,-206.0,-93.0,-101.0,12.0,-72.0,22.0,11225.0,11872.0,855.0,-880.0,-109.0,-27.0,-24.0,1.0
2022-05-13 14:04:19.789654-07:00,2213.7,557.0,1665.3,1568.3,944.1,1283.7,1425.0,1430.5,3438.2,3440.7,2155.5,1492.1,1414.0,3444.3,1663.4,1877.2,3435.8,3439.5,797.7,1545.0,1062.5,622.2,1443.3,1742.6,3445.5,3440.7,706.9,943.2,1291.8,1903.6,1845.0,1207.1,18.0,-73.0,10.0,9446.0,12522.0,-4128.0,-2313.0,36.0,-203.0,24.0,0.0,-52.0,-13.0,11232.0,11864.0,859.0,-884.0,31.0,-14.0,-12.0,1.0
2022-05-13 14:04:19.790834-07:00,2300.4,553.0,1740.6,1568.3,961.1,1283.7,1425.0,1430.5,3443.1,3449.1,2305.6,1492.1,1432.3,3444.3,1663.4,1877.2,3435.8,3439.5,797.7,1556.2,1062.5,618.9,1461.7,1764.6,3445.5,3440.7,706.9,945.8,1291.8,1955.8,1887.9,1204.4,-30.0,-64.0,34.0,9459.0,12491.0,-4161.0,-2370.0,-228.0,-166.0,1.0,13.0,-67.0,5.0,11246.0,11851.0,853.0,-890.0,-86.0,-13.0,-1.0,1.0
2022-05-13 14:04:19.791903-07:00,2300.4,553.0,1740.6,1619.0,961.1,1303.4,1434.1,1443.3,3443.1,3449.1,2305.6,1548.7,1432.3,3445.5,1692.9,1924.3,3439.5,3428.6,811.0,1556.2,1073.8,618.9,1461.7,1764.6,3444.3,3438.2,720.8,945.8,1299.8,1955.8,1887.9,1204.4,0.0,-52.0,36.0,9478.0,12446.0,-4204.0,-2452.0,-72.0,-190.0,0.0,-2.0,-38.0,-14.0,11255.0,11842.0,854.0,-900.0,-28.0,-26.0,-18.0,1.0
2022-05-13 14:04:19.831375-07:00,2452.6,556.2,1793.6,1619.0,956.8,1303.4,1434.1,1443.3,3440.7,3441.9,2361.9,1548.7,1452.5,3445.5,1692.9,1924.3,3439.5,3428.6,811.0,1553.4,1073.8,624.6,1470.0,1782.0,3444.3,3438.2,720.8,955.1,1299.8,1993.5,1914.4,1204.4,-12.0,-80.0,30.0,9515.0,12397.0,-4225.0,-2522.0,-195.0,-117.0,-34.0,7.0,-67.0,16.0,11273.0,11823.0,857.0,-909.0,-60.0,-7.0,-27.0,1.0
2022-05-13 14:04:19.969331-07:00,2452.6,556.2,1793.6,1661.5,956.8,1319.6,1432.3,1438.7,3440.7,3441.9,2361.9,1573.0,1452.5,3444.3,1685.3,1944.0,3439.5,3439.5,802.7,1553.4,1076.4,624.6,1470.0,1782.0,3438.2,3439.5,730.7,955.1,1292.7,1993.5,1914.4,1204.4,4.0,-110.0,26.0,9546.0,12345.0,-4267.0,-2588.0,-49.0,-219.0,100.0,10.0,-65.0,7.0,11275.0,11821.0,855.0,-916.0,20.0,-24.0,7.0,1.0
2022-05-13 14:04:19.970410-07:00,2649.3,561.8,1808.1,1661.5,956.8,1319.6,1432.3,1438.7,3443.1,3440.7,2364.0,1573.0,1468.1,3444.3,1685.3,1944.0,3439.5,3439.5,802.7,1560.9,1076.4,623.0,1467.2,1790.7,3438.2,3439.5,730.7,962.0,1292.7,2003.5,1911.5,1199.1,18.0,-27.0,40.0,9543.0,12295.0,-4369.0,-2665.0,-188.0,-318.0,58.0,16.0,-60.0,-25.0,11273.0,11823.0,839.0,-933.0,-39.0,-56.0,-3.0,1.0
2022-05-13 14:04:19.971462-07:00,2649.3,561.8,1808.1,1699.5,961.1,1335.0,1422.2,1432.3,3443.1,3440.7,2364.0,1593.6,1470.9,3437.0,1645.4,1952.9,3438.2,3439.5,806.9,1561.8,1078.2,623.0,1467.2,1790.7,3440.7,3449.1,738.9,972.2,1303.4,2003.5,1911.5,1199.1,-15.0,-96.0,38.0,9564.0,12238.0,-4425.0,-2760.0,-58.0,-201.0,8.0,2.0,-65.0,16.0,11284.0,11812.0,837.0,-949.0,-5.0,-31.0,-20.0,1.0
2022-05-13 14:04:20.011979-07:00,2739.2,562.6,1816.8,1700.5,961.1,1335.0,1422.2,1432.3,3435.8,3439.5,2367.2,1604.9,1470.9,3437.0,1645.4,1952.9,3438.2,3439.5,806.9,1561.8,1076.4,624.6,1451.6,1799.4,3440.7,3449.1,738.9,972.2,1303.4,1993.5,1889.9,1210.6,-40.0,-74.0,31.0,9559.0,12200.0,-4498.0,-2824.0,-113.0,-379.0,174.0,19.0,-76.0,14.0,11283.0,11812.0,819.0,-961.0,16.0,-58.0,36.0,1.0
2022-05-13 14:04:20.101406-07:00,2739.2,562.6,1816.8,1700.5,951.7,1323.2,1434.1,1427.7,3435.8,3439.5,2367.2,1604.9,1470.9,3433.4,1641.6,1952.9,3431.0,3433.4,806.0,1563.7,1076.4,624.6,1451.6,1799.4,3439.5,3449.1,745.5,974.8,1303.4,1993.5,1889.9,1210.6,20.0,-48.0,42.0,9553.0,12139.0,-4620.0,-2912.0,-155.0,-205.0,55.0,10.0,-38.0,-3.0,11292.0,11804.0,791.0,-981.0,-73.0,-74.0,14.0,1.0
2022-05-13 14:04:20.143859-07:00,2735.9,565.0,1811.0,1711.0,951.7,1323.2,1434.1,1427.7,3439.5,3433.4,2370.3,1619.0,1470.9,3433.4,1641.6,1952.9,3431.0,3433.4,806.0,1563.7,1083.4,622.2,1458.9,1811.9,3439.5,3449.1,745.5,974.8,1300.7,1991.5,1881.1,1207.1,-32.0,-86.0,23.0,9583.0,12071.0,-4686.0,-2987.0,-67.0,-321.0,99.0,7.0,-72.0,16.0,11315.0,11782.0,769.0,-994.0,-35.0,-63.0,8.0,1.0
2022-05-13 14:04:20.235402-07:00,2735.9,565.0,1811.0,1711.0,955.1,1338.6,1425.9,1426.8,3439.5,3433.4,2370.3,1619.0,1474.6,3435.8,1622.8,1955.8,3441.9,3440.7,811.0,1574.9,1083.4,622.2,1458.9,1811.9,3444.3,3447.9,752.1,977.3,1300.7,1991.5,1881.1,1207.1,20.0,-32.0,41.0,9565.0,12020.0,-4798.0,-3072.0,-50.0,-280.0,54.0,0.0,-42.0,-7.0,11317.0,11781.0,750.0,-1012.0,-17.0,-46.0,-18.0,1.0
2022-05-13 14:04:20.236526-07:00,2652.6,565.8,1805.2,1717.7,955.1,1338.6,1425.9,1447.0,3434.6,3443.1,2399.7,1643.5,1474.6,3435.8,1622.8,1958.8,3443.1,3440.7,811.0,1574.9,1090.3,628.6,1470.9,1817.8,3444.3,3447.9,752.1,977.3,1326.8,1983.6,1876.2,1206.2,-17.0,-87.0,30.0,9583.0,11970.0,-4839.0,-3149.0,-154.0,-200.0,20.0,12.0,-77.0,19.0,11334.0,11763.0,747.0,-1031.0,-55.0,-53.0,-12.0,1.0
2022-05-13 14:04:20.325077-07:00,2494.0,565.8,1805.2,1717.7,961.1,1331.4,1470.9,1447.0,3438.2,3443.1,2399.7,1643.5,1495.8,3435.8,1592.7,1958.8,3443.1,3438.2,821.9,1582.4,1090.3,628.6,1470.9,1848.9,3444.3,3454.0,749.6,979.9,1326.8,1983.6,1876.2,1201.8,27.0,-57.0,25.0,9595.0,11908.0,-4911.0,-3233.0,-110.0,-290.0,64.0,12.0,-80.0,-9.0,11352.0,11744.0,733.0,-1054.0,-35.0,-71.0,0.0,1.0
2022-05-13 14:04:20.326195-07:00,2494.0,612.5,1789.7,1711.9,961.1,1331.4,1470.9,1502.3,3438.2,3439.5,2403.9,1657.7,1495.8,3435.8,1592.7,1963.7,3439.5,3438.2,821.9,1582.4,1091.2,627.0,1474.6,1848.9,3447.9,3454.0,749.6,979.9,1387.5,1964.7,1846.9,1201.8,24.0,-69.0,49.0,9587.0,11882.0,-4949.0,-3295.0,9.0,-123.0,-23.0,-2.0,-43.0,-1.0,11354.0,11740.0,735.0,-1077.0,-2.0,-18.0,-37.0,1.0
2022-05-13 14:04:20.370605-07:00,2368.2,612.5,1789.7,1711.9,973.9,1332.3,1539.4,1502.3,3444.3,3439.5,2403.9,1657.7,1510.6,3444.3,1579.6,1963.7,3439.5,3444.3,827.7,1586.1,1091.2,627.0,1474.6,1849.8,3447.9,3444.3,753.8,975.6,1387.5,1964.7,1846.9,1205.3,-5.0,-82.0,35.0,9588.0,11865.0,-4967.0,-3326.0,-60.0,-115.0,-1.0,2.0,-68.0,12.0,11352.0,11740.0,736.0,-1092.0,-21.0,-37.0,-23.0,1.0
2022-05-13 14:04:20.415359-07:00,2368.2,627.8,1774.3,1711.9,973.9,1332.3,1539.4,1547.8,3444.3,3438.2,2399.7,1651.1,1510.6,3444.3,1579.6,1948.9,3441.9,3444.3,827.7,1586.1,1089.5,633.5,1470.9,1849.8,3443.1,3444.3,753.8,975.6,1382.1,1955.8,1842.0,1205.3,8.0,-68.0,45.0,9599.0,11840.0,-4987.0,-3351.0,-3.0,-4.0,24.0,13.0,-66.0,-6.0,11356.0,11736.0,729.0,-1100.0,18.0,-10.0,13.0,1.0
2022-05-13 14:04:20.550503-07:00,2314.9,627.8,1774.3,1711.9,971.3,1331.4,1611.5,1547.8,3443.1,3438.2,2399.7,1651.1,1521.8,3441.9,1562.7,1948.9,3441.9,3439.5,837.7,1584.2,1089.5,633.5,1470.9,1898.7,3443.1,3445.5,757.9,978.2,1382.1,1955.8,1842.0,1202.7,2.0,-70.0,32.0,9606.0,11835.0,-4995.0,-3340.0,-2.0,-34.0,55.0,9.0,-66.0,13.0,11349.0,11744.0,726.0,-1097.0,25.0,-19.0,23.0,1.0
2022-05-13 14:04:20.551693-07:00,2314.9,623.0,1758.9,1707.2,971.3,1331.4,1619.0,1560.9,3443.1,3451.6,2355.6,1637.9,1521.8,3441.9,1549.7,1942.0,3432.2,3435.8,837.7,1584.2,1087.7,634.3,1465.4,1898.7,3438.2,3445.5,757.9,978.2,1373.0,1949.9,1832.3,1202.7,-18.0,-106.0,38.0,9603.0,11840.0,-4995.0,-3328.0,76.0,96.0,-6.0,9.0,-76.0,11.0,11336.0,11756.0,727.0,-1094.0,74.0,45.0,6.0,1.0
2022-05-13 14:04:20.694463-07:00,2254.8,617.3,1758.9,1707.2,980.7,1330.5,1619.0,1560.9,3440.7,3454.0,2355.6,1637.9,1518.0,3449.1,1549.7,1942.0,3432.2,3435.8,841.1,1593.6,1087.7,634.3,1455.2,1893.8,3438.2,3445.5,756.3,973.9,1373.0,1949.9,1822.6,1208.9,12.0,-13.0,11.0,9585.0,11850.0,-5026.0,-3298.0,22.0,-82.0,121.0,5.0,-13.0,2.0,11312.0,11781.0,717.0,-1082.0,41.0,-32.0,51.0,1.0
2022-05-13 14:04:20.729830-07:00,2254.8,617.3,1752.1,1709.1,980.7,1330.5,1608.7,1564.6,3440.7,3454.0,2337.9,1634.1,1518.0,3449.1,1541.3,1927.2,3428.6,3428.6,841.1,1593.6,1089.5,627.8,1455.2,1893.8,3437.0,3449.1,756.3,973.9,1367.6,1942.0,1822.6,1208.9,-23.0,-96.0,29.0,9589.0,11844.0,-5032.0,-3300.0,21.0,43.0,-38.0,4.0,-67.0,16.0,11312.0,11781.0,715.0,-1083.0,18.0,23.0,-23.0,1.0
2022-05-13 14:04:20.835485-07:00,2234.2,620.5,1752.1,1709.1,966.2,1332.3,1608.7,1564.6,3444.3,3449.1,2337.9,1634.1,1506.9,3428.6,1541.3,1927.2,3428.6,3428.6,838.6,1580.5,1089.5,627.8,1458.0,1887.9,3437.0,3449.1,763.7,966.2,1367.6,1942.0,1818.7,1207.1,2.0,-72.0,35.0,9571.0,11857.0,-5039.0,-3295.0,37.0,-34.0,15.0,9.0,-63.0,-7.0,11296.0,11796.0,717.0,-1086.0,33.0,-10.0,6.0,1.0
2022-05-13 14:04:20.836557-07:00,2234.2,620.5,1736.8,1710.0,966.2,1332.3,1604.0,1556.2,3444.3,3449.1,2325.4,1639.8,1506.9,3428.6,1532.9,1927.2,3433.4,3445.5,838.6,1580.5,1086.0,631.9,1458.0,1887.9,3443.1,3440.7,763.7,966.2,1364.8,1935.1,1818.7,1207.1,-11.0,-78.0,24.0,9579.0,11855.0,-5035.0,-3285.0,-1.0,47.0,23.0,2.0,-58.0,17.0,11297.0,11795.0,715.0,-1081.0,4.0,6.0,23.0,1.0
2022-05-13 14:04:20.837622-07:00,2197.3,621.4,1736.8,1710.0,967.9,1330.5,1604.0,1556.2,3439.5,3437.0,2313.9,1639.8,1506.9,3438.2,1532.9,1927.2,3433.4,3445.5,848.6,1589.9,1086.0,629.5,1446.0,1884.0,3443.1,3440.7,754.6,971.3,1364.8,1930.2,1810.0,1201.8,6.0,-47.0,28.0,9572.0,11855.0,-5057.0,-3270.0,29.0,-24.0,46.0,13.0,-57.0,-3.0,11290.0,11803.0,704.0,-1076.0,27.0,-13.0,19.0,1.0
2022-05-13 14:04:21.045352-07:00,2197.3,621.4,1736.8,1697.6,967.9,1330.5,1597.4,1547.8,3439.5,3437.0,2313.9,1635.0,1506.9,3435.8,1521.8,1921.3,3438.2,3432.2,836.9,1589.9,1094.7,629.5,1446.0,1884.0,3440.7,3449.1,749.6,971.3,1352.1,1930.2,1810.0,1201.8,-4.0,-77.0,32.0,9568.0,11859.0,-5057.0,-3268.0,14.0,9.0,-1.0,5.0,-64.0,14.0,11289.0,11805.0,703.0,-1076.0,12.0,1.0,2.0,1.0
2022-05-13 14:04:21.046509-07:00,2199.3,627.8,1733.0,1697.6,984.2,1330.5,1597.4,1547.8,3445.5,3439.5,2306.6,1635.0,1505.1,3435.8,1521.8,1921.3,3438.2,3432.2,836.9,1576.8,1094.7,630.3,1442.4,1882.0,3440.7,3449.1,749.6,963.7,1352.1,1928.2,1808.1,1206.2,-2.0,-58.0,29.0,9564.0,11862.0,-5060.0,-3264.0,21.0,-20.0,16.0,6.0,-61.0,0.0,11283.0,11810.0,702.0,-1077.0,28.0,-18.0,8.0,1.0
2022-05-13 14:04:21.047580-07:00,2199.3,627.8,1733.0,1695.7,984.2,1325.0,1590.8,1545.0,3445.5,3439.5,2306.6,1622.8,1505.1,3449.1,1528.3,1925.2,3437.0,3440.7,836.1,1576.8,1087.7,630.3,1442.4,1882.0,3443.1,3443.1,754.6,963.7,1345.8,1928.2,1808.1,1206.2,-7.0,-81.0,32.0,9560.0,11866.0,-5059.0,-3265.0,12.0,20.0,-6.0,6.0,-64.0,10.0,11280.0,11812.0,703.0,-1079.0,8.0,8.0,2.0,1.0
2022-05-13 14:04:21.049171-07:00,2180.9,618.9,1726.3,1695.7,969.6,1325.0,1590.8,1545.0,3441.9,3439.5,2290.0,1622.8,1506.9,3449.1,1528.3,1925.2,3437.0,3440.7,836.1,1591.7,1087.7,627.0,1446.0,1873.2,3443.1,3443.1,754.6,963.7,1345.8,1919.3,1800.3,1206.2,-3.0,-65.0,22.0,9558.0,11866.0,-5064.0,-3261.0,8.0,-27.0,27.0,5.0,-57.0,0.0,11276.0,11816.0,700.0,-1078.0,20.0,-12.0,12.0,1.0
2022-05-13 14:04:21.225376-07:00,2180.9,618.9,1726.3,1698.6,969.6,1325.9,1595.5,1546.9,3441.9,3439.5,2290.0,1625.6,1506.9,3439.5,1514.3,1920.3,3437.0,3439.5,839.4,1591.7,1087.7,627.0,1446.0,1873.2,3451.6,3435.8,757.9,963.7,1344.0,1919.3,1800.3,1206.2,-8.0,-67.0,24.0,9557.0,11865.0,-5069.0,-3262.0,14.0,-4.0,-8.0,5.0,-56.0,5.0,11275.0,11817.0,698.0,-1081.0,8.0,-9.0,-4.0,1.0
2022-05-13 14:04:21.226474-07:00,2186.0,616.5,1717.7,1698.6,966.2,1325.9,1595.5,1546.9,3433.4,3444.3,2296.2,1625.6,1512.5,3439.5,1514.3,1920.3,3437.0,3439.5,839.4,1586.1,1085.1,630.3,1436.0,1871.3,3451.6,3435.8,757.9,962.8,1354.0,1923.3,1793.6,1209.7,-3.0,-71.0,29.0,9549.0,11868.0,-5074.0,-3264.0,31.0,-15.0,8.0,5.0,-60.0,3.0,11269.0,11824.0,697.0,-1082.0,31.0,-6.0,-1.0,1.0
2022-05-13 14:04:21.269978-07:00,2186.0,616.5,1717.7,1698.6,973.1,1325.9,1588.0,1528.3,3433.4,3444.3,2296.2,1625.6,1503.2,3445.5,1514.3,1915.4,3440.7,3439.5,838.6,1584.2,1085.1,630.3,1436.0,1871.3,3446.7,3443.1,752.1,960.2,1354.0,1923.3,1793.6,1209.7,-8.0,-71.0,24.0,9541.0,11876.0,-5074.0,-3257.0,31.0,15.0,0.0,6.0,-57.0,8.0,11259.0,11832.0,698.0,-1081.0,28.0,14.0,-4.0,1.0
2022-05-13 14:04:21.315297-07:00,2167.7,622.2,1722.4,1693.8,973.1,1325.9,1588.0,1528.3,3438.2,3435.8,2290.0,1626.5,1503.2,3445.5,1514.3,1915.4,3440.7,3439.5,838.6,1584.2,1084.2,625.4,1434.1,1871.3,3446.7,3443.1,752.1,960.2,1350.3,1876.2,1797.4,1203.5,0.0,-71.0,26.0,9533.0,11880.0,-5079.0,-3258.0,19.0,-22.0,4.0,8.0,-62.0,-3.0,11253.0,11838.0,697.0,-1082.0,13.0,-8.0,3.0,1.0
2022-05-13 14:04:21.316421-07:00,2167.7,622.2,1722.4,1693.8,967.1,1316.0,1581.4,1545.0,3438.2,3435.8,2290.0,1626.5,1506.0,3439.5,1508.8,1911.5,3433.4,3435.8,831.1,1581.4,1084.2,625.4,1434.1,1871.3,3449.1,3443.1,753.8,962.0,1350.3,1876.2,1797.4,1203.5,-12.0,-71.0,26.0,9526.0,11886.0,-5081.0,-3256.0,33.0,3.0,9.0,3.0,-55.0,12.0,11246.0,11845.0,697.0,-1083.0,38.0,0.0,1.0,1.0
2022-05-13 14:04:21.317119-07:00,2167.7,622.2,1722.4,1693.8,967.1,1316.0,1581.4,1545.0,3438.2,3435.8,2290.0,1626.5,1506.0,3439.5,1508.8,1911.5,3433.4,3435.8,831.1,1581.4,1084.2,625.4,1434.1,1871.3,3449.1,3443.1,753.8,962.0,1350.3,1876.2,1797.4,1203.5,-12.0,-71.0,26.0,9526.0,11886.0,-5081.0,-3256.0,33.0,3.0,9.0,3.0,-55.0,12.0,11246.0,11845.0,697.0,-1083.0,38.0,0.0,1.0,1.0
2022-05-13 14:04:21.360898-07:00,2172.8,611.7,1728.2,1698.6,969.6,1319.6,1583.3,1538.5,3440.7,3438.2,2283.8,1625.6,1507.8,3443.1,1519.0,1911.5,3438.2,3437.0,834.4,1575.8,1083.4,628.6,1436.9,1862.5,3444.3,3444.3,752.1,962.8,1342.2,1903.6,1794.5,1213.3,-17.0,-77.0,27.0,9505.0,11900.0,-5090.0,-3251.0,35.0,30.0,-2.0,4.0,-54.0,20.0,11225.0,11865.0,699.0,-1082.0,26.0,18.0,3.0,1.0
2022-05-13 14:04:21.362861-07:00,2172.8,616.5,1714.8,1698.6,969.6,1319.6,1583.3,1534.8,3440.7,3449.1,2277.6,1622.8,1507.8,3443.1,1519.0,1905.6,3439.5,3437.0,834.4,1575.8,1079.9,628.6,1434.1,1862.5,3445.5,3444.3,752.1,962.8,1336.8,1907.5,1791.6,1213.3,-2.0,-60.0,21.0,9499.0,11903.0,-5098.0,-3245.0,30.0,-12.0,17.0,5.0,-53.0,-1.0,11218.0,11871.0,697.0,-1083.0,26.0,-10.0,9.0,1.0
2022-05-13 14:04:21.451761-07:00,2159.5,616.5,1714.8,1698.6,967.1,1320.5,1572.1,1534.8,3445.5,3449.1,2277.6,1622.8,1499.5,3440.7,1511.5,1905.6,3439.5,3433.4,836.9,1577.7,1079.9,628.6,1434.1,1867.4,3445.5,3443.1,757.1,956.8,1336.8,1907.5,1791.6,1200.0,-5.0,-75.0,30.0,9496.0,11907.0,-5095.0,-3244.0,9.0,21.0,-17.0,5.0,-62.0,2.0,11217.0,11872.0,697.0,-1083.0,1.0,4.0,-4.0,1.0
2022-05-13 14:04:21.494755-07:00,2159.5,610.0,1711.0,1693.8,967.1,1320.5,1572.1,1529.2,3445.5,3444.3,2275.5,1619.9,1499.5,3440.7,1511.5,1900.7,3440.7,3433.4,836.9,1577.7,1083.4,622.2,1433.2,1867.4,3450.4,3443.1,757.1,956.8,1344.0,1915.4,1793.6,1200.0,2.0,-69.0,29.0,9492.0,11908.0,-5098.0,-3247.0,10.0,-15.0,-1.0,7.0,-58.0,-3.0,11214.0,11875.0,696.0,-1085.0,9.0,-6.0,-1.0,1.0
2022-05-13 14:04:21.632763-07:00,2155.5,610.0,1711.0,1693.8,973.1,1324.1,1577.7,1529.2,3432.2,3444.3,2275.5,1619.9,1494.0,3449.1,1513.4,1900.7,3440.7,3438.2,831.9,1580.5,1083.4,622.2,1433.2,1869.3,3450.4,3451.6,752.1,961.1,1344.0,1915.4,1793.6,1208.9,-9.0,-67.0,21.0,9490.0,11909.0,-5101.0,-3244.0,19.0,-11.0,18.0,7.0,-55.0,10.0,11212.0,11877.0,696.0,-1085.0,18.0,-8.0,7.0,1.0
2022-05-13 14:04:21.633915-07:00,2155.5,614.9,1709.1,1693.8,973.1,1324.1,1577.7,1543.1,3432.2,3444.3,2269.3,1619.0,1494.0,3449.1,1513.4,1900.7,3435.8,3438.2,831.9,1580.5,1086.8,634.3,1428.6,1869.3,3438.2,3451.6,752.1,961.1,1343.1,1911.5,1803.2,1208.9,-4.0,-73.0,27.0,9487.0,11907.0,-5109.0,-3250.0,4.0,-10.0,-5.0,4.0,-64.0,0.0,11210.0,11879.0,692.0,-1088.0,4.0,-6.0,-3.0,1.0
2022-05-13 14:04:21.634982-07:00,2160.5,601.2,1709.1,1693.8,968.8,1319.6,1587.1,1543.1,3444.3,3441.9,2269.3,1619.0,1499.5,3441.9,1507.8,1900.7,3435.8,3433.4,831.1,1582.4,1086.8,634.3,1435.0,1856.7,3438.2,3438.2,752.1,954.3,1343.1,1911.5,1789.7,1208.0,-9.0,-74.0,26.0,9488.0,11909.0,-5106.0,-3245.0,9.0,15.0,9.0,7.0,-56.0,10.0,11209.0,11880.0,692.0,-1088.0,11.0,0.0,8.0,1.0
2022-05-13 14:04:21.675678-07:00,2160.5,601.2,1714.8,1691.9,968.8,1319.6,1580.5,1533.8,3444.3,3441.9,2255.9,1619.9,1499.5,3441.9,1505.1,1898.7,3433.4,3444.3,831.1,1582.4,1079.0,627.8,1435.0,1856.7,3443.1,3441.9,752.1,954.3,1338.6,1898.7,1789.7,1208.0,-1.0,-68.0,29.0,9487.0,11909.0,-5108.0,-3241.0,16.0,14.0,-3.0,4.0,-55.0,0.0,11207.0,11882.0,691.0,-1088.0,7.0,5.0,1.0,1.0
2022-05-13 14:04:21.855556-07:00,2150.4,608.4,1714.8,1691.9,965.4,1318.7,1580.5,1533.8,3434.6,3449.1,2255.9,1619.9,1497.7,3444.3,1505.1,1898.7,3433.4,3444.3,834.4,1581.4,1079.0,627.8,1427.7,1856.7,3443.1,3441.9,748.0,956.0,1338.6,1898.7,1782.0,1207.1,-12.0,-69.0,19.0,9486.0,11913.0,-5105.0,-3237.0,15.0,-6.0,3.0,2.0,-57.0,10.0,11206.0,11883.0,692.0,-1087.0,14.0,-1.0,-1.0,1.0
2022-05-13 14:04:21.858927-07:00,2150.4,608.4,1716.7,1687.2,965.4,1318.7,1568.3,1543.1,3434.6,3449.1,2267.2,1618.1,1497.7,3444.3,1507.8,1901.6,3433.4,3444.3,834.4,1581.4,1086.0,630.3,1427.7,1856.7,3439.5,3440.7,748.0,956.0,1341.3,1897.7,1782.0,1207.1,0.0,-71.0,30.0,9479.0,11918.0,-5107.0,-3235.0,21.0,21.0,-10.0,5.0,-61.0,-5.0,11202.0,11887.0,692.0,-1087.0,10.0,14.0,-7.0,1.0
2022-05-13 14:04:21.900885-07:00,2163.6,612.5,1716.7,1687.2,970.5,1316.0,1568.3,1543.1,3441.9,3449.1,2267.2,1618.1,1494.9,3447.9,1507.8,1901.6,3433.4,3444.3,835.2,1579.6,1086.0,630.3,1430.5,1857.6,3439.5,3440.7,752.1,950.0,1341.3,1897.7,1781.0,1202.7,-8.0,-75.0,12.0,9475.0,11926.0,-5103.0,-3225.0,21.0,4.0,10.0,5.0,-57.0,0.0,11196.0,11892.0,693.0,-1085.0,22.0,5.0,5.0,1.0
2022-05-13 14:04:21.902055-07:00,2163.6,612.5,1703.3,1684.3,970.5,1318.7,1573.9,1541.3,3441.9,3449.1,2253.8,1611.5,1494.9,3440.7,1505.1,1894.8,3434.6,3433.4,826.9,1579.6,1083.4,631.9,1430.5,1857.6,3446.7,3440.7,750.5,950.0,1338.6,1903.6,1781.0,1202.7,-9.0,-72.0,21.0,9469.0,11930.0,-5106.0,-3222.0,7.0,9.0,-3.0,4.0,-56.0,0.0,11193.0,11895.0,693.0,-1086.0,1.0,-7.0,0.0,1.0
2022-05-13 14:04:21.991050-07:00,2156.5,608.4,1711.0,1684.3,967.1,1318.7,1573.9,1541.3,3439.5,3449.1,2257.9,1611.5,1491.2,3440.7,1505.1,1894.8,3434.6,3433.4,826.9,1576.8,1083.4,630.3,1426.8,1866.4,3446.7,3440.7,750.5,948.3,1338.6,1902.6,1776.2,1206.2,-10.0,-68.0,29.0,9467.0,11932.0,-5106.0,-3221.0,15.0,-1.0,6.0,5.0,-58.0,4.0,11193.0,11895.0,692.0,-1086.0,9.0,-9.0,0.0,1.0
2022-05-13 14:04:21.992652-07:00,2156.5,608.4,1711.0,1683.3,967.1,1316.9,1567.4,1530.1,3439.5,3449.1,2257.9,1617.1,1491.2,3440.7,1502.3,1888.9,3441.9,3441.9,831.1,1576.8,1081.6,630.3,1426.8,1866.4,3437.0,3444.3,748.8,948.3,1336.8,1902.6,1776.2,1206.2,-2.0,-66.0,29.0,9464.0,11933.0,-5109.0,-3222.0,-1.0,-7.0,-10.0,8.0,-62.0,2.0,11192.0,11896.0,692.0,-1086.0,1.0,0.0,-7.0,1.0
2022-05-13 14:04:22.170601-07:00,2144.3,610.8,1701.4,1683.3,967.1,1316.9,1567.4,1530.1,3444.3,3434.6,2256.9,1617.1,1500.4,3440.7,1502.3,1888.9,3441.9,3441.9,831.1,1580.5,1081.6,622.2,1422.2,1851.8,3437.0,3444.3,748.8,960.2,1336.8,1895.8,1767.5,1204.4,-8.0,-71.0,25.0,9462.0,11935.0,-5109.0,-3222.0,14.0,2.0,4.0,9.0,-60.0,1.0,11189.0,11899.0,692.0,-1087.0,11.0,5.0,-1.0,1.0
2022-05-13 14:04:22.171791-07:00,2144.3,610.8,1701.4,1688.1,967.1,1313.3,1559.0,1537.6,3444.3,3434.6,2256.9,1622.8,1500.4,3435.8,1497.7,1890.9,3444.3,3431.0,827.7,1580.5,1084.2,622.2,1422.2,1851.8,3449.1,3438.2,754.6,960.2,1335.0,1895.8,1767.5,1204.4,-5.0,-72.0,26.0,9460.0,11935.0,-5110.0,-3223.0,8.0,-6.0,0.0,3.0,-60.0,1.0,11188.0,11900.0,692.0,-1087.0,12.0,-3.0,-1.0,1.0
2022-05-13 14:04:22.172878-07:00,2140.2,610.0,1709.1,1688.1,972.2,1313.3,1559.0,1537.6,3443.1,3438.2,2244.5,1622.8,1492.1,3435.8,1497.7,1890.9,3444.3,3431.0,827.7,1570.2,1084.2,628.6,1418.6,1855.7,3449.1,3438.2,754.6,942.4,1335.0,1902.6,1774.3,1206.2,-4.0,-70.0,23.0,9456.0,11938.0,-5111.0,-3222.0,11.0,9.0,-6.0,5.0,-57.0,-3.0,11184.0,11903.0,692.0,-1087.0,8.0,2.0,-3.0,1.0
2022-05-13 14:04:22.305932-07:00,2140.2,610.0,1709.1,1680.5,962.8,1309.7,1566.5,1530.1,3443.1,3438.2,2244.5,1617.1,1500.4,3443.1,1499.5,1889.9,3437.0,3444.3,827.7,1573.0,1087.7,628.6,1418.6,1855.7,3449.1,3444.3,748.0,945.8,1323.2,1902.6,1774.3,1206.2,-3.0,-68.0,28.0,9450.0,11942.0,-5114.0,-3221.0,24.0,-13.0,-2.0,7.0,-57.0,0.0,11181.0,11906.0,691.0,-1087.0,17.0,5.0,-5.0,1.0
2022-05-13 14:04:22.308330-07:00,2134.1,602.0,1702.4,1676.7,962.8,1309.7,1566.5,1530.1,3444.3,3439.5,2248.7,1607.7,1500.4,3443.1,1499.5,1889.9,3437.0,3444.3,827.7,1573.0,1079.0,628.6,1426.8,1853.7,3449.1,3444.3,748.0,945.8,1323.2,1894.8,1773.3,1205.3,0.0,-72.0,31.0,9443.0,11946.0,-5118.0,-3221.0,16.0,18.0,-3.0,7.0,-58.0,0.0,11177.0,11910.0,691.0,-1087.0,10.0,7.0,-2.0,1.0
2022-05-13 14:04:22.441342-07:00,2134.1,602.0,1702.4,1676.7,967.1,1311.5,1559.0,1527.3,3444.3,3439.5,2248.7,1607.7,1490.3,3441.9,1506.0,1891.8,3438.2,3435.8,832.7,1572.1,1079.0,628.6,1426.8,1853.7,3437.0,3435.8,746.3,951.7,1323.2,1894.8,1773.3,1205.3,-8.0,-70.0,20.0,9438.0,11952.0,-5118.0,-3213.0,36.0,-11.0,9.0,5.0,-59.0,-2.0,11171.0,11916.0,692.0,-1085.0,29.0,0.0,0.0,1.0
2022-05-13 14:04:22.442971-07:00,2130.1,614.1,1704.3,1688.1,967.1,1311.5,1559.0,1527.3,3444.3,3440.7,2239.4,1604.0,1490.3,3441.9,1506.0,1891.8,3438.2,3435.8,832.7,1572.1,1079.9,623.8,1422.2,1868.4,3437.0,3435.8,746.3,951.7,1325.0,1890.9,1780.1,1208.9,-5.0,-73.0,26.0,9430.0,11957.0,-5121.0,-3211.0,16.0,5.0,-9.0,4.0,-61.0,-1.0,11165.0,11921.0,692.0,-1086.0,11.0,7.0,-4.0,1.0
2022-05-13 14:04:22.444067-07:00,2130.1,614.1,1704.3,1688.1,973.9,1307.0,1567.4,1530.1,3444.3,3440.7,2239.4,1604.0,1491.2,3441.9,1498.6,1897.7,3441.9,3437.0,833.6,1569.3,1079.9,623.8,1422.2,1868.4,3439.5,3446.7,748.0,950.0,1325.0,1890.9,1780.1,1208.9,-5.0,-67.0,19.0,9421.0,11962.0,-5128.0,-3208.0,24.0,-31.0,18.0,4.0,-59.0,4.0,11157.0,11929.0,690.0,-1087.0,28.0,-15.0,6.0,1.0
2022-05-13 14:04:22.445127-07:00,2125.0,608.4,1705.3,1684.3,973.9,1307.0,1567.4,1529.2,3444.3,3441.9,2247.6,1613.4,1491.2,3441.9,1498.6,1894.8,3449.1,3437.0,833.6,1569.3,1084.2,629.5,1422.2,1840.1,3449.1,3446.7,748.0,950.0,1325.0,1893.8,1769.5,1206.2,-10.0,-71.0,28.0,9417.0,11962.0,-5133.0,-3211.0,7.0,-2.0,5.0,4.0,-59.0,1.0,11155.0,11930.0,689.0,-1089.0,8.0,1.0,-2.0,1.0
2022-05-13 14:04:22.576791-07:00,2126.0,608.4,1705.3,1684.3,959.4,1317.8,1561.8,1529.2,3435.8,3441.9,2247.6,1613.4,1493.0,3445.5,1494.9,1894.8,3449.1,3438.2,831.9,1569.3,1084.2,629.5,1422.2,1842.0,3449.1,3438.2,753.8,950.0,1325.0,1893.8,1769.5,1210.6,-3.0,-70.0,30.0,9413.0,11966.0,-5134.0,-3209.0,15.0,5.0,-3.0,5.0,-61.0,2.0,11151.0,11935.0,688.0,-1089.0,16.0,3.0,-4.0,1.0
2022-05-13 14:04:22.577898-07:00,2126.0,603.6,1702.4,1691.9,959.4,1317.8,1561.8,1524.5,3435.8,3435.8,2250.7,1590.8,1493.0,3445.5,1494.9,1884.0,3441.9,3438.2,831.9,1569.3,1081.6,631.1,1420.4,1842.0,3438.2,3438.2,753.8,950.0,1339.5,1900.7,1775.2,1210.6,-8.0,-69.0,20.0,9409.0,11970.0,-5134.0,-3205.0,13.0,1.0,-4.0,2.0,-60.0,-1.0,11148.0,11937.0,689.0,-1088.0,7.0,4.0,-4.0,1.0
2022-05-13 14:04:22.578968-07:00,2118.9,603.6,1702.4,1691.9,967.1,1314.2,1558.1,1524.5,3441.9,3435.8,2250.7,1590.8,1484.7,3437.0,1494.0,1884.0,3441.9,3439.5,824.4,1570.2,1081.6,631.1,1420.4,1847.9,3438.2,3445.5,745.5,942.4,1339.5,1900.7,1775.2,1202.7,-7.0,-72.0,19.0,9407.0,11971.0,-5134.0,-3204.0,-1.0,-5.0,1.0,3.0,-59.0,-3.0,11147.0,11938.0,689.0,-1088.0,3.0,-1.0,-4.0,1.0
2022-05-13 14:04:22.618785-07:00,2118.9,601.2,1692.9,1684.3,967.1,1314.2,1558.1,1526.4,3441.9,3438.2,2241.4,1610.5,1484.7,3437.0,1494.0,1881.1,3433.4,3439.5,824.4,1570.2,1082.5,632.7,1423.1,1847.9,3435.8,3445.5,745.5,942.4,1325.9,1890.9,1770.4,1202.7,-7.0,-68.0,22.0,9410.0,11969.0,-5133.0,-3205.0,-14.0,-6.0,8.0,-1.0,-56.0,4.0,11148.0,11937.0,688.0,-1089.0,-13.0,-3.0,6.0,1.0
2022-05-13 14:04:22.711282-07:00,2131.1,601.2,1692.9,1684.3,962.8,1306.1,1562.7,1526.4,3449.1,3438.2,2241.4,1610.5,1487.5,3433.4,1495.8,1881.1,3433.4,3444.3,827.7,1572.1,1082.5,632.7,1423.1,1849.8,3435.8,3449.1,746.3,949.2,1325.9,1890.9,1770.4,1207.1,-6.0,-64.0,28.0,9407.0,11969.0,-5137.0,-3208.0,14.0,-15.0,1.0,2.0,-56.0,0.0,11148.0,11937.0,688.0,-1090.0,13.0,-10.0,0.0,1.0
2022-05-13 14:04:22.800403-07:00,2131.1,602.0,1691.0,1679.5,962.8,1306.1,1555.3,1521.8,3449.1,3444.3,2243.5,1608.7,1487.5,3433.4,1493.0,1886.0,3431.0,3439.5,827.7,1572.1,1082.5,628.6,1426.8,1849.8,3434.6,3449.1,746.3,949.2,1325.9,1891.8,1764.6,1207.1,-12.0,-76.0,24.0,9407.0,11969.0,-5137.0,-3209.0,9.0,4.0,6.0,3.0,-62.0,11.0,11147.0,11938.0,686.0,-1091.0,7.0,3.0,1.0,1.0
2022-05-13 14:04:22.802078-07:00,2110.8,606.0,1691.0,1679.5,962.0,1309.7,1555.3,1521.8,3438.2,3444.3,2243.5,1608.7,1484.7,3443.1,1493.0,1886.0,3431.0,3439.5,826.0,1570.2,1082.5,628.6,1417.6,1845.0,3434.6,3449.1,748.0,945.8,1325.9,1891.8,1767.5,1202.7,-3.0,-73.0,25.0,9405.0,11970.0,-5140.0,-3208.0,1.0,10.0,1.0,5.0,-61.0,-1.0,11145.0,11940.0,685.0,-1092.0,-1.0,5.0,1.0,1.0
2022-05-13 14:04:22.803164-07:00,2110.8,606.0,1688.1,1673.8,962.0,1309.7,1556.2,1523.6,3438.2,3444.3,2239.4,1610.5,1484.7,3443.1,1495.8,1885.0,3435.8,3438.2,826.0,1570.2,1079.9,627.0,1417.6,1845.0,3443.1,3449.1,748.0,945.8,1320.5,1887.9,1767.5,1202.7,-7.0,-67.0,19.0,9404.0,11971.0,-5139.0,-3205.0,12.0,7.0,-3.0,5.0,-57.0,0.0,11145.0,11940.0,685.0,-1092.0,6.0,2.0,-2.0,1.0
2022-05-13 14:04:22.845638-07:00,2122.0,605.2,1688.1,1673.8,971.3,1316.9,1556.2,1523.6,3435.8,3438.2,2239.4,1610.5,1481.9,3432.2,1495.8,1885.0,3435.8,3438.2,829.4,1579.6,1079.9,627.0,1414.9,1844.0,3443.1,3449.1,750.5,943.2,1320.5,1887.9,1770.4,1206.2,-1.0,-71.0,30.0,9402.0,11972.0,-5141.0,-3208.0,4.0,-18.0,4.0,10.0,-60.0,-4.0,11145.0,11940.0,685.0,-1093.0,6.0,-10.0,1.0,1.0
2022-05-13 14:04:22.981265-07:00,2122.0,605.2,1687.2,1676.7,971.3,1316.9,1563.7,1517.1,3435.8,3438.2,2233.2,1607.7,1481.9,3432.2,1495.8,1881.1,3433.4,3441.9,829.4,1579.6,1083.4,623.8,1414.9,1844.0,3439.5,3438.2,750.5,943.2,1321.4,1895.8,1770.4,1206.2,-5.0,-71.0,26.0,9403.0,11972.0,-5140.0,-3206.0,5.0,11.0,-4.0,6.0,-61.0,5.0,11145.0,11940.0,684.0,-1093.0,0.0,5.0,-1.0,1.0
2022-05-13 14:04:23.024918-07:00,2124.0,602.0,1695.7,1676.7,963.7,1317.8,1563.7,1517.1,3434.6,3431.0,2226.0,1607.7,1487.5,3449.1,1495.8,1881.1,3433.4,3441.9,824.4,1573.9,1083.4,627.0,1414.9,1843.0,3439.5,3438.2,748.8,949.2,1321.4,1887.9,1768.5,1200.9,-5.0,-72.0,33.0,9404.0,11977.0,-5132.0,-3195.0,18.0,50.0,-10.0,3.0,-66.0,0.0,11145.0,11940.0,685.0,-1092.0,1.0,8.0,4.0,1.0
2022-05-13 14:04:23.026110-07:00,2124.0,602.0,1695.7,1674.8,963.7,1311.5,1536.6,1540.3,3434.6,3431.0,2226.0,1606.8,1487.5,3443.1,1500.4,1890.9,3437.0,3431.0,828.5,1573.9,1080.8,627.0,1414.9,1843.0,3451.6,3439.5,747.2,949.2,1332.3,1887.9,1768.5,1200.9,-13.0,-64.0,12.0,9408.0,11982.0,-5122.0,-3182.0,12.0,6.0,5.0,2.0,-62.0,-1.0,11145.0,11941.0,686.0,-1090.0,9.0,-3.0,3.0,1.0
2022-05-13 14:04:23.250503-07:00,2160.5,607.6,1694.8,1674.8,963.7,1311.5,1536.6,1540.3,3447.9,3439.5,2240.4,1606.8,1489.3,3443.1,1500.4,1890.9,3437.0,3431.0,828.5,1576.8,1080.8,627.0,1411.3,1881.1,3451.6,3439.5,747.2,950.0,1332.3,1889.9,1760.8,1199.1,-6.0,-73.0,25.0,9400.0,11988.0,-5124.0,-3181.0,16.0,9.0,-12.0,6.0,-65.0,-6.0,11139.0,11946.0,686.0,-1090.0,12.0,5.0,-7.0,1.0
2022-05-13 14:04:23.253315-07:00,2160.5,607.6,1694.8,1675.7,963.7,1311.5,1556.2,1525.5,3447.9,3439.5,2240.4,1612.4,1489.3,3435.8,1492.1,1877.2,3441.9,3433.4,836.9,1576.8,1077.3,627.0,1411.3,1881.1,3433.4,3428.6,749.6,950.0,1334.1,1889.9,1760.8,1199.1,-6.0,-67.0,17.0,9396.0,11990.0,-5126.0,-3178.0,12.0,-7.0,12.0,2.0,-59.0,-2.0,11135.0,11949.0,685.0,-1090.0,7.0,-4.0,7.0,1.0
2022-05-13 14:04:23.341691-07:00,2153.4,614.9,1699.5,1675.7,973.1,1311.5,1556.2,1525.5,3440.7,3437.0,2242.5,1612.4,1484.7,3435.8,1492.1,1877.2,3441.9,3433.4,836.9,1569.3,1077.3,627.0,1415.8,1873.2,3433.4,3428.6,749.6,950.0,1334.1,1888.9,1766.6,1205.3,-10.0,-65.0,29.0,9396.0,11990.0,-5128.0,-3178.0,1.0,3.0,-1.0,1.0,-62.0,0.0,11134.0,11950.0,685.0,-1091.0,-8.0,-6.0,0.0,1.0
2022-05-13 14:04:23.342910-07:00,2153.4,614.9,1699.5,1672.9,973.1,1317.8,1548.7,1521.8,3440.7,3437.0,2242.5,1609.6,1484.7,3440.7,1488.4,1886.0,3435.8,3434.6,827.7,1569.3,1082.5,627.0,1415.8,1873.2,3440.7,3441.9,742.2,950.0,1322.3,1888.9,1766.6,1205.3,-8.0,-74.0,31.0,9399.0,11988.0,-5126.0,-3178.0,-16.0,12.0,-7.0,4.0,-59.0,3.0,11136.0,11948.0,685.0,-1091.0,-17.0,1.0,-3.0,1.0
2022-05-13 14:04:23.343997-07:00,2141.2,607.6,1693.8,1676.7,967.9,1317.8,1548.7,1521.8,3449.1,3437.0,2230.1,1601.1,1485.6,3440.7,1488.4,1886.0,3435.8,3434.6,827.7,1574.9,1079.0,627.0,1426.8,1877.2,3440.7,3441.9,742.2,940.7,1329.6,1880.1,1774.3,1202.7,-10.0,-64.0,22.0,9401.0,11988.0,-5124.0,-3176.0,-3.0,19.0,-4.0,4.0,-57.0,-3.0,11137.0,11947.0,685.0,-1091.0,-7.0,6.0,0.0,1.0
2022-05-13 14:04:23.345070-07:00,2141.2,607.6,1693.8,1676.7,966.2,1302.5,1548.7,1524.5,3449.1,3437.0,2230.1,1601.1,1483.8,3429.8,1502.3,1879.1,3449.1,3431.0,825.2,1566.5,1079.0,627.0,1426.8,1877.2,3446.7,3433.4,742.2,950.0,1329.6,1880.1,1774.3,1202.7,-2.0,-77.0,23.0,9404.0,11984.0,-5125.0,-3181.0,3.0,-27.0,5.0,6.0,-62.0,-3.0,11139.0,11946.0,684.0,-1092.0,8.0,-14.0,0.0,1.0
2022-05-13 14:04:23.520823-07:00,2160.5,601.2,1685.3,1672.9,966.2,1302.5,1548.7,1524.5,3438.2,3437.0,2218.8,1606.8,1483.8,3429.8,1502.3,1879.1,3449.1,3431.0,825.2,1566.5,1077.3,623.0,1413.1,1887.9,3446.7,3433.4,742.2,950.0,1326.8,1880.1,1759.8,1200.9,-8.0,-69.0,25.0,9404.0,11982.0,-5128.0,-3184.0,-21.0,-6.0,10.0,5.0,-57.0,4.0,11139.0,11946.0,683.0,-1093.0,-16.0,-11.0,9.0,1.0
2022-05-13 14:04:23.835891-07:00,2160.5,601.2,1685.3,1672.9,968.8,1314.2,1551.5,1521.8,3438.2,3437.0,2218.8,1606.8,1481.9,3437.0,1494.9,1879.1,3437.0,3427.4,825.2,1573.9,1077.3,623.0,1413.1,1887.9,3444.3,3443.1,745.5,948.3,1326.8,1880.1,1759.8,1200.9,-4.0,-63.0,28.0,9405.0,11977.0,-5135.0,-3189.0,5.0,-22.0,-2.0,3.0,-55.0,-2.0,11141.0,11943.0,680.0,-1097.0,3.0,-6.0,-5.0,1.0
2022-05-13 14:04:23.924852-07:00,2142.2,604.4,1691.9,1673.8,968.8,1314.2,1551.5,1521.8,3440.7,3445.5,2236.3,1605.8,1481.9,3437.0,1494.9,1879.1,3437.0,3427.4,825.2,1573.9,1084.2,625.4,1413.1,1878.1,3444.3,3443.1,745.5,948.3,1331.4,1876.2,1759.8,1206.2,-14.0,-76.0,33.0,9406.0,11978.0,-5131.0,-3186.0,4.0,16.0,0.0,3.0,-60.0,15.0,11141.0,11943.0,680.0,-1097.0,3.0,7.0,2.0,1.0
2022-05-13 14:04:24.016083-07:00,2145.3,604.4,1691.9,1673.8,962.0,1324.1,1542.2,1513.4,3434.6,3445.5,2236.3,1605.8,1485.6,3435.8,1496.7,1876.2,3434.6,3441.9,831.9,1575.8,1084.2,625.4,1413.1,1868.4,3449.1,3454.0,738.1,944.9,1331.4,1876.2,1759.8,1203.5,-4.0,-64.0,20.0,9403.0,11980.0,-5134.0,-3187.0,-4.0,-11.0,5.0,6.0,-63.0,-6.0,11139.0,11945.0,679.0,-1097.0,1.0,-4.0,3.0,1.0
2022-05-13 14:04:24.017245-07:00,2145.3,604.4,1692.9,1667.2,962.0,1324.1,1542.2,1517.1,3434.6,3438.2,2220.9,1604.9,1485.6,3435.8,1496.7,1867.4,3428.6,3441.9,831.9,1575.8,1079.0,627.0,1411.3,1868.4,3433.4,3454.0,738.1,944.9,1320.5,1884.0,1761.8,1203.5,-9.0,-72.0,20.0,9400.0,11983.0,-5133.0,-3182.0,17.0,16.0,1.0,4.0,-56.0,1.0,11138.0,11947.0,680.0,-1096.0,4.0,3.0,2.0,1.0
2022-05-13 14:04:24.018347-07:00,2135.1,604.4,1692.9,1667.2,966.2,1301.6,1545.9,1517.1,3449.1,3438.2,2220.9,1604.9,1477.3,3441.9,1491.2,1867.4,3428.6,3435.8,821.0,1568.3,1079.0,627.0,1411.3,1862.5,3433.4,3433.4,747.2,947.5,1320.5,1884.0,1761.8,1204.4,-3.0,-65.0,22.0,9399.0,11982.0,-5135.0,-3184.0,-1.0,-20.0,2.0,5.0,-60.0,-6.0,11138.0,11946.0,679.0,-1098.0,-5.0,-15.0,0.0,1.0
2022-05-13 14:04:24.060678-07:00,2135.1,602.8,1695.7,1664.4,966.2,1301.6,1545.9,1525.5,3449.1,3428.6,2207.5,1602.1,1477.3,3441.9,1491.2,1878.1,3433.4,3435.8,821.0,1568.3,1080.8,626.2,1416.7,1862.5,3444.3,3433.4,747.2,947.5,1324.1,1875.2,1756.0,1204.4,-42.0,-62.0,28.0,9489.0,12130.0,-4812.0,-2844.0,60.0,755.0,-98.0,-8.0,-50.0,22.0,11163.0,11926.0,719.0,-1046.0,-30.0,73.0,20.0,1.0
2022-05-13 14:04:24.106345-07:00,2937.1,634.3,1802.3,1686.2,949.2,1321.4,1573.0,1532.0,3440.7,3444.3,2253.8,1617.1,1477.3,3444.3,1641.6,1917.4,3437.0,3443.1,821.9,1573.9,1082.5,627.0,1438.7,1865.4,3435.8,3443.1,745.5,962.8,1407.6,1899.7,1934.1,1195.6,-40.0,-61.0,20.0,9482.0,12283.0,-4574.0,-2594.0,107.0,206.0,-59.0,8.0,-62.0,0.0,11115.0,11970.0,756.0,-1020.0,52.0,41.0,-21.0,1.0
2022-05-13 14:04:24.107053-07:00,2937.1,634.3,1802.3,1686.2,949.2,1321.4,1573.0,1532.0,3440.7,3444.3,2253.8,1617.1,1477.3,3444.3,1641.6,1917.4,3437.0,3443.1,821.9,1573.9,1082.5,627.0,1438.7,1865.4,3435.8,3443.1,745.5,962.8,1407.6,1899.7,1934.1,1195.6,-40.0,-61.0,20.0,9482.0,12283.0,-4574.0,-2594.0,107.0,206.0,-59.0,8.0,-62.0,0.0,11115.0,11970.0,756.0,-1020.0,52.0,41.0,-21.0,1.0
2022-05-13 14:04:24.195099-07:00,3112.5,627.8,1876.2,1679.5,967.1,1328.7,1548.7,1509.7,3440.7,3441.9,2324.3,1609.6,1477.3,3446.7,1709.1,1914.4,3439.5,3437.0,818.5,1569.3,1080.8,628.6,1436.9,1861.5,3437.0,3444.3,738.9,979.9,1392.1,1941.0,1971.7,1202.7,-7.0,-66.0,29.0,9388.0,12401.0,-4479.0,-2541.0,63.0,120.0,-132.0,3.0,-57.0,5.0,11060.0,12018.0,790.0,-1035.0,7.0,-9.0,-23.0,1.0
2022-05-13 14:04:24.197962-07:00,3112.5,627.8,1876.2,1676.7,967.1,1316.9,1541.3,1515.3,3440.7,3441.9,2324.3,1615.2,1477.3,3438.2,1811.9,1943.0,3444.3,3429.8,815.2,1569.3,1081.6,628.6,1436.9,1861.5,3441.9,3440.7,736.5,979.9,1384.8,1941.0,1971.7,1202.7,-24.0,-74.0,25.0,9361.0,12441.0,-4428.0,-2534.0,96.0,18.0,-70.0,9.0,-60.0,15.0,11051.0,12024.0,791.0,-1047.0,34.0,-12.0,-15.0,1.0
2022-05-13 14:04:24.199143-07:00,3187.0,620.5,1838.2,1676.7,954.3,1316.9,1541.3,1515.3,3432.2,3441.9,2341.0,1615.2,1479.2,3438.2,1811.9,1943.0,3444.3,3429.8,815.2,1568.3,1081.6,626.2,1428.6,1857.6,3441.9,3440.7,736.5,986.7,1384.8,1948.9,1967.7,1203.5,-5.0,-56.0,12.0,9320.0,12472.0,-4416.0,-2550.0,85.0,-49.0,-107.0,5.0,-49.0,6.0,11041.0,12033.0,791.0,-1058.0,15.0,-18.0,-23.0,1.0
2022-05-13 14:04:24.375622-07:00,3187.0,620.5,1838.2,1672.9,954.3,1313.3,1545.0,1510.6,3432.2,3441.9,2341.0,1614.3,1479.2,3443.1,1853.7,1933.1,3437.0,3449.1,819.4,1568.3,1075.6,626.2,1428.6,1857.6,3444.3,3443.1,734.0,986.7,1386.6,1948.9,1967.7,1203.5,-6.0,-76.0,15.0,9289.0,12487.0,-4409.0,-2604.0,3.0,-140.0,-81.0,3.0,-64.0,-9.0,11047.0,12026.0,788.0,-1073.0,-32.0,-43.0,-11.0,1.0
2022-05-13 14:04:24.376929-07:00,3184.7,624.6,1748.3,1672.9,954.3,1313.3,1545.0,1510.6,3441.9,3439.5,2324.3,1614.3,1482.9,3443.1,1853.7,1933.1,3437.0,3449.1,819.4,1568.3,1075.6,623.8,1427.7,1847.9,3444.3,3443.1,734.0,1009.0,1386.6,1904.6,1930.2,1202.7,-20.0,-85.0,24.0,9269.0,12489.0,-4412.0,-2662.0,-4.0,-101.0,-61.0,8.0,-74.0,9.0,11057.0,12016.0,780.0,-1087.0,-34.0,-40.0,-8.0,1.0
2022-05-13 14:04:24.379019-07:00,3184.7,624.6,1748.3,1644.5,953.4,1316.0,1552.5,1510.6,3441.9,3439.5,2324.3,1588.0,1482.9,3433.4,1810.0,1908.5,3443.1,3438.2,815.2,1555.3,1078.2,623.8,1427.7,1847.9,3441.9,3428.6,729.0,1029.7,1380.3,1904.6,1930.2,1202.7,1.0,-67.0,15.0,9253.0,12483.0,-4426.0,-2723.0,36.0,-140.0,-64.0,8.0,-66.0,-3.0,11062.0,12011.0,776.0,-1096.0,5.0,-7.0,-15.0,1.0
2022-05-13 14:04:24.418929-07:00,3120.6,626.2,1661.5,1620.9,953.4,1316.0,1552.5,1510.6,3439.5,3438.2,2273.4,1569.3,1482.9,3433.4,1810.0,1908.5,3443.1,3438.2,815.2,1555.3,1074.7,626.2,1424.1,1852.8,3441.9,3428.6,729.0,1029.7,1383.0,1838.2,1828.4,1202.7,-8.0,-58.0,29.0,9205.0,12504.0,-4429.0,-2783.0,123.0,-162.0,-117.0,5.0,-54.0,4.0,11056.0,12015.0,785.0,-1108.0,6.0,-12.0,-33.0,1.0
2022-05-13 14:04:24.466648-07:00,3120.6,626.2,1661.5,1620.9,947.5,1303.4,1556.2,1519.9,3439.5,3438.2,2273.4,1569.3,1474.6,3432.2,1711.0,1860.6,3433.4,3424.9,811.0,1567.4,1074.7,626.2,1424.1,1852.8,3446.7,3441.9,725.8,1038.3,1383.0,1838.2,1828.4,1202.7,-18.0,-78.0,39.0,9163.0,12520.0,-4431.0,-2843.0,-28.0,-94.0,-50.0,5.0,-60.0,13.0,11065.0,12006.0,790.0,-1117.0,-41.0,-8.0,-16.0,1.0
2022-05-13 14:04:24.600502-07:00,3074.3,620.5,1606.8,1606.8,947.5,1303.4,1556.2,1519.9,3443.1,3443.1,2194.2,1553.4,1474.6,3432.2,1711.0,1860.6,3433.4,3424.9,811.0,1567.4,1075.6,629.5,1419.5,1846.9,3446.7,3441.9,725.8,1038.3,1375.7,1797.4,1736.8,1205.3,5.0,-52.0,20.0,9151.0,12512.0,-4441.0,-2902.0,-4.0,-134.0,-114.0,5.0,-50.0,-15.0,11075.0,11996.0,793.0,-1123.0,-36.0,-14.0,-28.0,1.0
2022-05-13 14:04:24.602372-07:00,3074.3,620.5,1606.8,1606.8,950.0,1312.4,1542.2,1510.6,3443.1,3443.1,2194.2,1553.4,1470.0,3439.5,1629.4,1815.8,3441.9,3439.5,812.7,1566.5,1075.6,629.5,1419.5,1846.9,3446.7,3433.4,720.8,1042.6,1375.7,1797.4,1736.8,1205.3,-14.0,-85.0,51.0,9134.0,12521.0,-4415.0,-2958.0,-27.0,24.0,-96.0,1.0,-70.0,10.0,11093.0,11977.0,796.0,-1136.0,-88.0,-21.0,-9.0,1.0
2022-05-13 14:04:24.603505-07:00,3038.6,619.7,1573.0,1583.3,950.0,1312.4,1542.2,1509.7,3441.9,3443.1,2174.8,1544.1,1470.0,3439.5,1629.4,1789.7,3439.5,3439.5,812.7,1566.5,1079.0,627.0,1413.1,1835.2,3446.7,3433.4,720.8,1042.6,1372.1,1743.5,1683.3,1200.0,-16.0,-83.0,25.0,9152.0,12513.0,-4390.0,-2971.0,9.0,-25.0,28.0,3.0,-69.0,7.0,11112.0,11960.0,796.0,-1136.0,-11.0,-1.0,13.0,1.0
2022-05-13 14:04:24.645809-07:00,2987.1,619.7,1573.0,1583.3,953.4,1310.6,1537.6,1509.7,3440.7,3443.1,2174.8,1544.1,1462.6,3438.2,1558.1,1789.7,3439.5,3446.7,816.0,1569.3,1079.0,627.0,1413.1,1834.3,3446.7,3449.1,730.7,1043.5,1372.1,1743.5,1683.3,1210.6,16.0,-55.0,37.0,9138.0,12518.0,-4403.0,-2976.0,18.0,41.0,-43.0,11.0,-49.0,-7.0,11108.0,11964.0,796.0,-1136.0,-20.0,-8.0,6.0,1.0
2022-05-13 14:04:24.735424-07:00,2987.1,616.5,1538.5,1578.6,953.4,1310.6,1537.6,1504.1,3440.7,3438.2,2135.1,1535.7,1462.6,3438.2,1558.1,1770.4,3435.8,3446.7,816.0,1569.3,1077.3,621.4,1404.0,1834.3,3435.8,3449.1,730.7,1043.5,1389.4,1715.8,1642.6,1210.6,-23.0,-67.0,36.0,9151.0,12526.0,-4356.0,-2970.0,-62.0,106.0,-100.0,-1.0,-56.0,15.0,11130.0,11944.0,795.0,-1133.0,-77.0,-6.0,-3.0,1.0
2022-05-13 14:04:24.780795-07:00,2986.0,616.5,1538.5,1578.6,956.0,1312.4,1525.5,1504.1,3434.6,3438.2,2135.1,1535.7,1458.9,3439.5,1517.1,1770.4,3435.8,3444.3,808.5,1568.3,1077.3,621.4,1404.0,1834.3,3435.8,3444.3,714.2,1051.3,1389.4,1715.8,1642.6,1206.2,-8.0,-88.0,24.0,9168.0,12527.0,-4325.0,-2959.0,26.0,27.0,45.0,7.0,-76.0,-1.0,11139.0,11935.0,796.0,-1132.0,6.0,4.0,13.0,1.0
2022-05-13 14:04:24.823814-07:00,2986.0,614.9,1504.1,1570.2,956.0,1312.4,1525.5,1484.7,3434.6,3441.9,2120.9,1535.7,1458.9,3439.5,1517.1,1751.2,3439.5,3444.3,808.5,1568.3,1079.9,628.6,1400.3,1834.3,3449.1,3444.3,714.2,1051.3,1383.9,1700.5,1614.3,1206.2,-15.0,-54.0,32.0,9173.0,12535.0,-4307.0,-2935.0,0.0,113.0,-82.0,2.0,-52.0,4.0,11143.0,11931.0,798.0,-1130.0,-37.0,12.0,-9.0,1.0
2022-05-13 14:04:24.870564-07:00,2951.8,614.9,1504.1,1570.2,954.3,1307.9,1516.2,1484.7,3441.9,3441.9,2120.9,1535.7,1459.8,3443.1,1478.3,1751.2,3439.5,3435.8,808.5,1566.5,1079.9,628.6,1400.3,1819.7,3449.1,3440.7,722.5,1047.0,1383.9,1700.5,1614.3,1199.1,-18.0,-101.0,29.0,9174.0,12550.0,-4268.0,-2926.0,27.0,14.0,6.0,8.0,-75.0,3.0,11146.0,11928.0,805.0,-1128.0,20.0,13.0,1.0,1.0
2022-05-13 14:04:24.916599-07:00,2951.8,615.7,1473.6,1555.3,954.3,1307.9,1522.7,1500.4,3441.9,3444.3,2104.8,1526.4,1459.8,3443.1,1440.5,1745.4,3437.0,3433.4,808.5,1566.5,1078.2,628.6,1405.8,1819.7,3443.1,3447.9,722.5,1047.0,1367.6,1694.8,1588.0,1199.1,-1.0,-58.0,13.0,9164.0,12560.0,-4275.0,-2903.0,36.0,78.0,6.0,0.0,-56.0,-2.0,11137.0,11937.0,800.0,-1123.0,14.0,-2.0,22.0,1.0
2022-05-13 14:04:24.960575-07:00,2921.2,614.1,1473.6,1555.3,945.8,1299.0,1522.7,1500.4,3439.5,3446.7,2104.8,1526.4,1457.1,3441.9,1440.5,1745.4,3437.0,3433.4,806.9,1559.9,1078.2,628.6,1398.5,1818.7,3443.1,3447.9,722.5,1047.0,1367.6,1694.8,1567.4,1195.6,-23.0,-69.0,29.0,9159.0,12574.0,-4254.0,-2889.0,30.0,-38.0,-35.0,8.0,-57.0,21.0,11134.0,11941.0,799.0,-1123.0,4.0,-2.0,-9.0,1.0
2022-05-13 14:04:25.095309-07:00,2921.2,614.1,1439.6,1552.5,945.8,1299.0,1511.5,1482.9,3439.5,3446.7,2072.5,1522.7,1457.1,3441.9,1422.2,1729.1,3435.8,3438.2,806.9,1559.9,1075.6,622.2,1398.5,1818.7,3445.5,3447.9,722.5,1047.0,1367.6,1676.7,1567.4,1195.6,10.0,-66.0,23.0,9143.0,12579.0,-4264.0,-2906.0,3.0,23.0,0.0,5.0,-57.0,-12.0,11134.0,11941.0,799.0,-1124.0,-4.0,-13.0,3.0,1.0
2022-05-13 14:04:25.141054-07:00,2903.2,614.1,1439.6,1552.5,956.8,1299.8,1511.5,1482.9,3449.1,3439.5,2072.5,1522.7,1457.1,3437.0,1422.2,1729.1,3435.8,3438.2,808.5,1565.5,1075.6,622.2,1396.7,1830.4,3445.5,3447.9,725.8,1045.2,1367.6,1676.7,1556.2,1205.3,-29.0,-73.0,42.0,9159.0,12576.0,-4245.0,-2894.0,-24.0,55.0,-6.0,12.0,-60.0,26.0,11140.0,11935.0,798.0,-1126.0,-8.0,1.0,2.0,1.0
2022-05-13 14:04:25.142273-07:00,2903.2,614.1,1432.3,1544.1,956.8,1299.8,1514.3,1481.9,3449.1,3439.5,2063.5,1514.3,1457.1,3437.0,1407.6,1716.7,3438.2,3444.3,808.5,1565.5,1070.3,627.8,1396.7,1830.4,3434.6,3443.1,725.8,1045.2,1369.4,1674.8,1556.2,1205.3,-6.0,-78.0,-4.0,9139.0,12575.0,-4278.0,-2912.0,46.0,-204.0,57.0,6.0,-59.0,-12.0,11131.0,11943.0,798.0,-1125.0,37.0,-3.0,1.0,1.0
2022-05-13 14:04:25.143425-07:00,2880.6,616.5,1434.1,1544.1,945.8,1310.6,1514.3,1481.9,3449.1,3439.5,2059.4,1514.3,1447.9,3449.1,1407.6,1716.7,3438.2,3444.3,806.0,1574.9,1070.3,625.4,1401.2,1812.9,3434.6,3443.1,719.2,1049.6,1369.4,1656.8,1546.9,1207.1,-3.0,-74.0,18.0,9124.0,12547.0,-4355.0,-2965.0,-62.0,-186.0,82.0,0.0,-61.0,-8.0,11134.0,11940.0,788.0,-1135.0,-29.0,-52.0,11.0,1.0
2022-05-13 14:04:25.276074-07:00,2880.6,616.5,1434.1,1528.3,945.8,1297.2,1511.5,1485.6,3449.1,3439.5,2059.4,1519.0,1447.9,3440.7,1398.5,1708.1,3437.0,3446.7,809.4,1574.9,1077.3,625.4,1401.2,1812.9,3440.7,3440.7,719.2,1049.6,1363.9,1656.8,1546.9,1207.1,1.0,-51.0,35.0,9128.0,12515.0,-4412.0,-3004.0,20.0,-125.0,49.0,7.0,-54.0,-3.0,11142.0,11932.0,773.0,-1145.0,-3.0,-35.0,9.0,1.0
2022-05-13 14:04:25.320187-07:00,2855.9,618.9,1414.0,1528.3,952.6,1297.2,1511.5,1485.6,3440.7,3441.9,2050.4,1519.0,1450.6,3440.7,1398.5,1708.1,3437.0,3446.7,809.4,1573.0,1077.3,627.8,1391.2,1818.7,3440.7,3440.7,719.2,1041.8,1363.9,1657.7,1536.6,1204.4,-12.0,-85.0,49.0,9122.0,12515.0,-4415.0,-3017.0,-13.0,20.0,-34.0,11.0,-65.0,20.0,11146.0,11928.0,770.0,-1150.0,-14.0,0.0,-9.0,1.0
2022-05-13 14:04:25.321424-07:00,2855.9,618.9,1414.0,1525.5,952.6,1299.8,1506.9,1480.1,3440.7,3441.9,2050.4,1516.2,1450.6,3437.0,1384.8,1711.9,3444.3,3440.7,803.5,1573.0,1072.1,627.8,1391.2,1818.7,3443.1,3449.1,716.7,1041.8,1357.6,1657.7,1536.6,1204.4,0.0,-57.0,37.0,9115.0,12525.0,-4413.0,-3001.0,70.0,45.0,27.0,11.0,-57.0,7.0,11140.0,11934.0,773.0,-1146.0,41.0,26.0,1.0,1.0
2022-05-13 14:04:25.365735-07:00,2832.5,621.4,1401.2,1525.5,948.3,1299.8,1506.9,1480.1,3429.8,3434.6,2036.4,1516.2,1455.2,3437.0,1384.8,1711.9,3444.3,3440.7,803.5,1565.5,1072.1,626.2,1397.6,1811.9,3443.1,3449.1,716.7,1042.6,1357.6,1652.0,1545.0,1209.7,-14.0,-72.0,21.0,9114.0,12540.0,-4392.0,-2970.0,21.0,101.0,-31.0,3.0,-61.0,12.0,11132.0,11942.0,782.0,-1138.0,16.0,35.0,-12.0,1.0
2022-05-13 14:04:25.411231-07:00,2832.5,621.4,1401.2,1526.4,948.3,1296.3,1501.4,1486.6,3429.8,3434.6,2036.4,1511.5,1455.2,3443.1,1383.0,1711.0,3435.8,3432.2,803.5,1565.5,1069.5,626.2,1397.6,1811.9,3441.9,3428.6,710.1,1042.6,1361.2,1652.0,1545.0,1209.7,-10.0,-71.0,6.0,9097.0,12563.0,-4375.0,-2953.0,71.0,28.0,-17.0,0.0,-55.0,-6.0,11119.0,11954.0,797.0,-1131.0,39.0,30.0,-12.0,1.0
2022-05-13 14:04:25.500949-07:00,2823.5,608.4,1393.0,1533.8,945.8,1296.3,1501.4,1486.6,3441.9,3433.4,2032.4,1510.6,1447.0,3443.1,1383.0,1711.0,3435.8,3432.2,803.5,1559.0,1076.4,622.2,1385.7,1811.0,3441.9,3428.6,710.1,1046.1,1356.7,1645.4,1522.7,1202.7,-7.0,-74.0,12.0,9084.0,12575.0,-4369.0,-2949.0,17.0,9.0,-11.0,6.0,-54.0,-7.0,11112.0,11960.0,800.0,-1130.0,7.0,-5.0,-4.0,1.0
2022-05-13 14:04:25.502169-07:00,2823.5,608.4,1393.0,1533.8,946.6,1292.7,1499.5,1486.6,3441.9,3433.4,2032.4,1510.6,1451.6,3447.9,1378.5,1700.5,3434.6,3439.5,803.5,1563.7,1076.4,622.2,1385.7,1811.0,3439.5,3440.7,710.1,1034.9,1356.7,1645.4,1522.7,1202.7,-9.0,-69.0,25.0,9079.0,12574.0,-4377.0,-2954.0,-21.0,-43.0,22.0,5.0,-53.0,3.0,11112.0,11959.0,798.0,-1133.0,-15.0,-23.0,6.0,1.0
2022-05-13 14:04:25.545390-07:00,2815.7,619.7,1397.6,1524.5,946.6,1292.7,1499.5,1486.6,3438.2,3433.4,2023.4,1509.7,1451.6,3447.9,1378.5,1700.5,3434.6,3439.5,803.5,1563.7,1071.2,623.0,1394.8,1806.1,3439.5,3440.7,710.1,1034.9,1354.9,1650.2,1514.3,1206.2,-12.0,-58.0,35.0,9082.0,12565.0,-4389.0,-2966.0,14.0,-34.0,0.0,4.0,-61.0,11.0,11115.0,11956.0,793.0,-1140.0,3.0,-11.0,-4.0,1.0
2022-05-13 14:04:25.815788-07:00,2815.7,619.7,1397.6,1524.5,943.2,1290.0,1491.2,1481.9,3438.2,3433.4,2023.4,1509.7,1442.4,3435.8,1371.2,1700.5,3441.9,3439.5,798.5,1555.3,1071.2,623.0,1394.8,1806.1,3441.9,3439.5,715.9,1039.2,1354.9,1650.2,1514.3,1206.2,0.0,-72.0,35.0,9070.0,12570.0,-4392.0,-2980.0,30.0,-27.0,-22.0,9.0,-58.0,3.0,11115.0,11957.0,795.0,-1142.0,13.0,7.0,-11.0,1.0
2022-05-13 14:04:25.816975-07:00,2805.7,612.5,1385.7,1520.8,943.2,1290.0,1491.2,1481.9,3439.5,3443.1,2030.4,1504.1,1442.4,3435.8,1371.2,1700.5,3441.9,3439.5,798.5,1555.3,1075.6,627.8,1394.8,1806.1,3441.9,3439.5,715.9,1039.2,1350.3,1643.5,1514.3,1206.2,-8.0,-72.0,17.0,9067.0,12575.0,-4387.0,-2975.0,-10.0,23.0,10.0,9.0,-66.0,2.0,11114.0,11957.0,795.0,-1142.0,-1.0,4.0,5.0,1.0
2022-05-13 14:04:25.818100-07:00,2791.2,612.5,1385.7,1520.8,946.6,1281.0,1492.1,1473.6,3441.9,3443.1,2030.4,1504.1,1443.3,3444.3,1370.3,1697.6,3439.5,3446.7,801.9,1551.5,1075.6,627.8,1394.8,1806.1,3445.5,3441.9,699.5,1035.7,1350.3,1643.5,1514.3,1200.0,-5.0,-62.0,21.0,9061.0,12577.0,-4390.0,-2979.0,29.0,-29.0,-10.0,5.0,-61.0,-4.0,11111.0,11960.0,796.0,-1143.0,11.0,-5.0,-7.0,1.0
2022-05-13 14:04:25.819226-07:00,2791.2,610.0,1393.9,1522.7,946.6,1281.0,1492.1,1477.3,3441.9,3449.1,2025.4,1502.3,1443.3,3444.3,1370.3,1692.9,3428.6,3446.7,801.9,1551.5,1066.0,623.0,1391.2,1806.1,3438.2,3441.9,699.5,1035.7,1357.6,1645.4,1516.2,1200.0,-9.0,-76.0,30.0,9056.0,12580.0,-4387.0,-2987.0,-12.0,0.0,-16.0,4.0,-69.0,6.0,11111.0,11960.0,796.0,-1143.0,-12.0,1.0,-2.0,1.0
2022-05-13 14:04:25.906241-07:00,2795.7,610.0,1393.9,1522.7,946.6,1273.9,1496.7,1477.3,3451.6,3449.1,2025.4,1502.3,1448.8,3438.2,1363.0,1692.9,3428.6,3444.3,805.2,1570.2,1066.0,623.0,1391.2,1802.3,3438.2,3446.7,715.1,1042.6,1357.6,1645.4,1516.2,1202.7,-9.0,-63.0,24.0,9047.0,12586.0,-4384.0,-2991.0,34.0,-14.0,-15.0,4.0,-57.0,1.0,11108.0,11963.0,796.0,-1144.0,18.0,4.0,-6.0,1.0
2022-05-13 14:04:25.907428-07:00,2795.7,614.9,1383.0,1514.3,946.6,1273.9,1496.7,1474.6,3451.6,3445.5,2006.4,1504.1,1448.8,3438.2,1363.0,1691.0,3440.7,3444.3,805.2,1570.2,1068.6,623.8,1393.0,1802.3,3443.1,3446.7,715.1,1042.6,1359.4,1642.6,1506.0,1202.7,-9.0,-77.0,33.0,9046.0,12587.0,-4381.0,-2994.0,-24.0,8.0,8.0,4.0,-57.0,5.0,11108.0,11963.0,796.0,-1144.0,-12.0,-1.0,4.0,1.0
2022-05-13 14:04:25.908547-07:00,2790.1,614.9,1383.0,1514.3,944.9,1277.4,1491.2,1474.6,3449.1,3445.5,2006.4,1504.1,1451.6,3431.0,1360.3,1691.0,3440.7,3438.2,801.9,1560.9,1068.6,623.8,1393.0,1806.1,3443.1,3449.1,706.9,1033.2,1359.4,1642.6,1506.0,1206.2,-10.0,-63.0,20.0,9059.0,12581.0,-4380.0,-2984.0,-4.0,27.0,14.0,4.0,-59.0,3.0,11109.0,11962.0,796.0,-1143.0,10.0,4.0,2.0,1.0
2022-05-13 14:04:25.950883-07:00,2790.1,606.0,1382.1,1515.3,944.9,1277.4,1491.2,1485.6,3449.1,3443.1,2003.5,1495.8,1451.6,3431.0,1360.3,1690.0,3433.4,3438.2,801.9,1560.9,1070.3,627.0,1388.5,1806.1,3443.1,3449.1,706.9,1033.2,1355.8,1636.0,1506.0,1206.2,-6.0,-69.0,25.0,9050.0,12589.0,-4374.0,-2986.0,14.0,6.0,-39.0,6.0,-57.0,1.0,11106.0,11964.0,799.0,-1144.0,-5.0,4.0,-12.0,1.0
2022-05-13 14:04:26.040370-07:00,2792.3,612.5,1382.1,1515.3,939.0,1281.9,1488.4,1485.6,3443.1,3439.5,2003.5,1495.8,1441.5,3444.3,1360.3,1690.0,3433.4,3433.4,801.9,1556.2,1070.3,627.0,1383.9,1810.0,3443.1,3440.7,707.7,1029.7,1355.8,1636.0,1507.8,1208.0,-6.0,-72.0,28.0,9042.0,12596.0,-4368.0,-2989.0,39.0,-5.0,-5.0,6.0,-59.0,-1.0,11103.0,11967.0,800.0,-1145.0,18.0,3.0,-1.0,1.0
2022-05-13 14:04:26.042299-07:00,2792.3,612.5,1382.1,1514.3,939.0,1281.9,1484.7,1470.0,3443.1,3439.5,2001.5,1501.4,1441.5,3444.3,1357.6,1692.9,3435.8,3437.0,801.9,1556.2,1068.6,627.8,1383.9,1810.0,3444.3,3439.5,707.7,1029.7,1354.0,1639.8,1507.8,1208.0,-8.0,-67.0,27.0,9036.0,12603.0,-4361.0,-2989.0,-4.0,14.0,-31.0,3.0,-60.0,10.0,11102.0,11968.0,800.0,-1145.0,-12.0,3.0,-5.0,1.0
2022-05-13 14:04:26.221024-07:00,2760.2,607.6,1382.1,1514.3,943.2,1276.5,1484.7,1470.0,3428.6,3435.8,2001.5,1501.4,1442.4,3435.8,1357.6,1692.9,3435.8,3437.0,800.2,1550.6,1068.6,627.8,1390.3,1801.3,3444.3,3439.5,711.8,1023.7,1354.0,1639.8,1504.1,1209.7,-8.0,-75.0,22.0,9033.0,12606.0,-4356.0,-2991.0,30.0,9.0,-3.0,4.0,-68.0,4.0,11102.0,11968.0,800.0,-1146.0,22.0,6.0,-3.0,1.0
2022-05-13 14:04:26.310019-07:00,2760.2,607.6,1377.5,1519.0,943.2,1276.5,1484.7,1458.0,3428.6,3435.8,2004.5,1500.4,1442.4,3435.8,1351.2,1681.4,3432.2,3445.5,800.2,1550.6,1073.8,631.1,1390.3,1801.3,3431.0,3433.4,711.8,1023.7,1352.1,1638.8,1504.1,1209.7,-8.0,-61.0,23.0,9028.0,12612.0,-4355.0,-2986.0,-19.0,26.0,-6.0,2.0,-52.0,-1.0,11100.0,11970.0,800.0,-1146.0,-19.0,0.0,5.0,1.0
2022-05-13 14:04:26.356547-07:00,2759.1,610.8,1377.5,1519.0,946.6,1276.5,1484.7,1458.0,3444.3,3434.6,2004.5,1500.4,1439.6,3435.8,1351.2,1681.4,3432.2,3445.5,801.9,1550.6,1073.8,631.1,1391.2,1807.1,3431.0,3433.4,713.4,1031.4,1352.1,1638.8,1497.7,1202.7,-4.0,-71.0,24.0,9029.0,12611.0,-4353.0,-2985.0,35.0,-16.0,-5.0,9.0,-63.0,0.0,11100.0,11969.0,800.0,-1146.0,18.0,1.0,-3.0,1.0
2022-05-13 14:04:26.491631-07:00,2759.1,610.8,1376.6,1509.7,946.6,1284.6,1481.9,1478.3,3444.3,3434.6,1999.5,1504.1,1439.6,3449.1,1345.8,1684.3,3441.9,3437.0,800.2,1550.6,1080.8,634.3,1391.2,1807.1,3445.5,3450.4,708.5,1031.4,1355.8,1635.0,1497.7,1202.7,-11.0,-74.0,31.0,9027.0,12616.0,-4345.0,-2986.0,-16.0,12.0,-16.0,0.0,-60.0,9.0,11101.0,11969.0,800.0,-1146.0,-14.0,1.0,-4.0,1.0
2022-05-13 14:04:26.581204-07:00,2759.1,610.0,1370.3,1509.7,939.8,1284.6,1481.9,1478.3,3437.0,3439.5,1993.5,1504.1,1441.5,3449.1,1345.8,1684.3,3441.9,3437.0,800.2,1548.7,1080.8,625.4,1395.7,1793.6,3445.5,3450.4,708.5,1031.4,1355.8,1632.2,1492.1,1195.6,-14.0,-61.0,23.0,9024.0,12620.0,-4341.0,-2980.0,39.0,20.0,-6.0,-3.0,-58.0,3.0,11098.0,11971.0,802.0,-1143.0,21.0,19.0,-5.0,1.0
2022-05-13 14:04:26.626248-07:00,2759.1,610.0,1370.3,1513.4,939.8,1278.3,1485.6,1467.2,3437.0,3439.5,1993.5,1492.1,1441.5,3440.7,1344.9,1681.4,3437.0,3434.6,799.4,1548.7,1070.3,625.4,1395.7,1793.6,3438.2,3441.9,705.2,1031.4,1355.8,1632.2,1492.1,1195.6,0.0,-75.0,26.0,9014.0,12630.0,-4336.0,-2979.0,10.0,17.0,-13.0,6.0,-61.0,-8.0,11094.0,11976.0,806.0,-1139.0,-3.0,8.0,0.0,1.0
2022-05-13 14:04:26.627524-07:00,2763.5,614.1,1370.3,1513.4,953.4,1278.3,1485.6,1467.2,3435.8,3438.2,1990.5,1492.1,1440.5,3440.7,1344.9,1681.4,3437.0,3434.6,799.4,1550.6,1070.3,622.2,1383.9,1807.1,3438.2,3441.9,705.2,1025.4,1355.8,1632.2,1487.5,1201.8,-9.0,-72.0,12.0,9020.0,12629.0,-4331.0,-2968.0,-4.0,12.0,22.0,6.0,-65.0,3.0,11094.0,11976.0,803.0,-1137.0,0.0,0.0,11.0,1.0
2022-05-13 14:04:26.628643-07:00,2763.5,614.1,1370.3,1506.0,953.4,1281.9,1481.0,1479.2,3435.8,3438.2,1990.5,1495.8,1440.5,3435.8,1341.3,1682.4,3433.4,3438.2,799.4,1550.6,1065.1,622.2,1383.9,1807.1,3438.2,3439.5,713.4,1025.4,1353.1,1632.2,1487.5,1201.8,-4.0,-64.0,25.0,9011.0,12633.0,-4335.0,-2976.0,22.0,-34.0,-25.0,4.0,-52.0,-1.0,11093.0,11977.0,803.0,-1137.0,-1.0,-7.0,-5.0,1.0
2022-05-13 14:04:26.840211-07:00,2740.3,605.2,1363.9,1506.9,943.2,1273.9,1475.5,1468.1,3440.7,3441.9,1984.6,1494.0,1445.1,3440.7,1331.4,1674.8,3437.0,3433.4,801.9,1554.3,1069.5,619.7,1383.0,1797.4,3435.8,3449.1,706.0,1024.5,1349.4,1626.5,1488.4,1206.2,-8.0,-54.0,26.0,9011.0,12631.0,-4340.0,-2976.0,40.0,1.0,-6.0,5.0,-58.0,6.0,11091.0,11979.0,800.0,-1134.0,23.0,8.0,-7.0,1.0
2022-05-13 14:04:26.841830-07:00,2738.1,610.0,1364.8,1499.5,946.6,1278.3,1494.9,1470.9,3437.0,3428.6,1985.6,1495.8,1436.9,3427.4,1338.6,1681.4,3443.1,3434.6,801.0,1552.5,1063.4,622.2,1388.5,1796.5,3443.1,3440.7,704.4,1021.9,1351.2,1629.4,1496.7,1202.7,-7.0,-65.0,18.0,9003.0,12641.0,-4332.0,-2967.0,14.0,26.0,2.0,2.0,-58.0,0.0,11088.0,11982.0,804.0,-1133.0,7.0,6.0,6.0,1.0
2022-05-13 14:04:26.842993-07:00,2739.2,606.8,1360.3,1498.6,946.6,1278.3,1494.9,1470.9,3443.1,3445.5,1974.6,1494.0,1436.9,3427.4,1338.6,1681.4,3443.1,3434.6,801.0,1552.5,1067.7,620.5,1385.7,1792.6,3443.1,3440.7,704.4,1021.9,1350.3,1641.6,1490.3,1210.6,-7.0,-73.0,17.0,8999.0,12646.0,-4330.0,-2962.0,11.0,-8.0,-6.0,3.0,-59.0,-1.0,11085.0,11984.0,804.0,-1133.0,1.0,-1.0,-1.0,1.0
2022-05-13 14:04:26.844246-07:00,2739.2,606.8,1360.3,1498.6,944.9,1267.6,1482.9,1470.9,3443.1,3445.5,1974.6,1494.0,1434.1,3439.5,1338.6,1677.6,3441.9,3449.1,796.0,1544.1,1067.7,620.5,1385.7,1792.6,3438.2,3446.7,707.7,1024.5,1350.3,1641.6,1490.3,1210.6,-11.0,-66.0,26.0,9001.0,12645.0,-4330.0,-2962.0,-1.0,-3.0,6.0,2.0,-56.0,3.0,11086.0,11983.0,802.0,-1135.0,-2.0,-10.0,1.0,1.0
2022-05-13 14:04:26.861194-07:00,2733.7,610.8,1360.3,1503.2,944.9,1267.6,1482.9,1467.2,3443.1,3450.4,1985.6,1498.6,1434.1,3439.5,1338.6,1671.9,3435.8,3449.1,796.0,1544.1,1070.3,627.8,1390.3,1798.4,3439.5,3446.7,707.7,1024.5,1349.4,1627.5,1489.3,1202.7,-8.0,-67.0,31.0,9001.0,12645.0,-4330.0,-2962.0,-3.0,6.0,-3.0,5.0,-62.0,4.0,11086.0,11983.0,802.0,-1135.0,-3.0,-1.0,1.0,1.0
2022-05-13 14:04:26.965348-07:00,2731.5,610.8,1360.3,1503.2,939.0,1261.3,1479.2,1467.2,3447.9,3450.4,1985.6,1498.6,1438.7,3435.8,1340.4,1671.9,3435.8,3438.2,798.5,1551.5,1070.3,627.8,1390.3,1796.5,3439.5,3438.2,709.3,1019.4,1349.4,1627.5,1489.3,1203.5,-2.0,-62.0,26.0,8997.0,12648.0,-4331.0,-2961.0,12.0,7.0,-9.0,4.0,-53.0,0.0,11086.0,11984.0,802.0,-1135.0,4.0,-1.0,-3.0,1.0
2022-05-13 14:04:26.967050-07:00,2731.5,614.9,1363.0,1507.8,939.0,1261.3,1479.2,1467.2,3447.9,3435.8,1970.7,1492.1,1438.7,3435.8,1340.4,1676.7,3438.2,3438.2,798.5,1551.5,1070.3,625.4,1390.3,1796.5,3445.5,3438.2,709.3,1019.4,1338.6,1626.5,1487.5,1203.5,-9.0,-75.0,23.0,9001.0,12646.0,-4328.0,-2960.0,-3.0,2.0,10.0,6.0,-65.0,2.0,11087.0,11983.0,802.0,-1135.0,0.0,0.0,5.0,1.0
2022-05-13 14:04:26.986826-07:00,2726.0,614.9,1363.0,1507.8,939.0,1265.8,1476.4,1467.2,3438.2,3435.8,1970.7,1492.1,1435.0,3440.7,1342.2,1676.7,3438.2,3440.7,796.9,1550.6,1070.3,625.4,1390.3,1799.4,3445.5,3443.1,713.4,1025.4,1338.6,1626.5,1487.5,1200.9,-5.0,-62.0,26.0,8996.0,12649.0,-4329.0,-2959.0,-9.0,0.0,-14.0,4.0,-56.0,0.0,11086.0,11983.0,802.0,-1135.0,-5.0,-2.0,-7.0,1.0
2022-05-13 14:04:27.030979-07:00,2726.0,608.4,1360.3,1494.9,939.0,1265.8,1476.4,1459.8,3438.2,3441.9,1983.6,1493.0,1435.0,3440.7,1342.2,1668.2,3437.0,3440.7,796.9,1550.6,1062.5,622.2,1384.8,1799.4,3444.3,3443.1,713.4,1025.4,1338.6,1619.0,1485.6,1200.9,-8.0,-71.0,28.0,8997.0,12649.0,-4327.0,-2961.0,18.0,5.0,4.0,0.0,-62.0,0.0,11086.0,11983.0,802.0,-1135.0,7.0,-1.0,1.0,1.0
2022-05-13 14:04:27.032224-07:00,2721.6,608.4,1360.3,1494.9,944.9,1268.5,1469.0,1459.8,3437.0,3441.9,1983.6,1493.0,1437.8,3440.7,1335.9,1668.2,3437.0,3435.8,798.5,1552.5,1062.5,622.2,1384.8,1803.2,3444.3,3438.2,706.9,1019.4,1338.6,1619.0,1485.6,1201.8,-11.0,-64.0,24.0,8996.0,12650.0,-4328.0,-2960.0,-1.0,-2.0,-3.0,0.0,-57.0,0.0,11086.0,11983.0,802.0,-1135.0,-3.0,-4.0,-3.0,1.0
2022-05-13 14:04:27.165614-07:00,2721.6,609.2,1358.5,1501.4,944.9,1268.5,1474.6,1474.6,3437.0,3439.5,1966.7,1492.1,1437.8,3440.7,1335.9,1674.8,3431.0,3438.2,798.5,1552.5,1068.6,617.3,1383.0,1803.2,3438.2,3443.1,706.9,1019.4,1346.7,1611.5,1480.1,1201.8,-11.0,-69.0,27.0,8995.0,12651.0,-4327.0,-2959.0,16.0,0.0,-3.0,1.0,-59.0,0.0,11086.0,11983.0,802.0,-1135.0,1.0,-1.0,-3.0,1.0
2022-05-13 14:04:27.166810-07:00,2709.5,608.4,1358.5,1501.4,949.2,1273.9,1474.6,1474.6,3439.5,3444.3,1966.7,1492.1,1441.5,3444.3,1335.9,1674.8,3431.0,3438.2,795.2,1545.9,1068.6,617.3,1381.2,1793.6,3438.2,3443.1,704.4,1020.2,1346.7,1611.5,1485.6,1199.1,-4.0,-67.0,25.0,8993.0,12652.0,-4328.0,-2958.0,-8.0,2.0,-10.0,5.0,-55.0,-1.0,11087.0,11983.0,802.0,-1135.0,-10.0,-3.0,-2.0,1.0
2022-05-13 14:04:27.210795-07:00,2709.5,608.4,1352.1,1504.1,949.2,1273.9,1472.7,1470.9,3439.5,3444.3,1978.6,1482.9,1441.5,3444.3,1327.8,1671.0,3444.3,3435.8,795.2,1545.9,1070.3,624.6,1381.2,1793.6,3441.9,3435.8,704.4,1020.2,1352.1,1625.6,1485.6,1199.1,-3.0,-70.0,26.0,8994.0,12652.0,-4327.0,-2959.0,-13.0,-5.0,5.0,6.0,-59.0,-3.0,11088.0,11981.0,801.0,-1136.0,-9.0,-11.0,4.0,1.0
2022-05-13 14:04:27.435690-07:00,2706.2,610.0,1352.1,1504.1,939.8,1278.3,1472.7,1470.9,3434.6,3445.5,1978.6,1482.9,1437.8,3447.9,1327.8,1671.0,3444.3,3435.8,793.5,1544.1,1070.3,624.6,1386.6,1795.5,3441.9,3435.8,708.5,1015.9,1352.1,1625.6,1470.0,1196.5,-10.0,-65.0,27.0,8995.0,12650.0,-4328.0,-2962.0,5.0,-13.0,-4.0,2.0,-58.0,2.0,11089.0,11981.0,800.0,-1137.0,-3.0,-5.0,-2.0,1.0
2022-05-13 14:04:27.571205-07:00,2706.2,610.0,1362.1,1496.7,939.8,1278.3,1473.6,1465.4,3434.6,3445.5,1971.7,1495.8,1437.8,3447.9,1332.3,1668.2,3439.5,3440.7,793.5,1544.1,1065.1,622.2,1386.6,1795.5,3435.8,3440.7,708.5,1015.9,1349.4,1612.4,1470.0,1196.5,-11.0,-70.0,30.0,8994.0,12650.0,-4329.0,-2963.0,-5.0,9.0,-3.0,3.0,-59.0,4.0,11089.0,11981.0,800.0,-1137.0,-5.0,-6.0,-2.0,1.0
2022-05-13 14:04:27.572412-07:00,2712.8,606.8,1351.2,1496.7,945.8,1266.7,1473.6,1465.4,3438.2,3443.1,1975.6,1495.8,1434.1,3438.2,1332.3,1668.2,3439.5,3440.7,794.4,1541.3,1065.1,622.2,1385.7,1795.5,3435.8,3440.7,709.3,1020.2,1349.4,1617.1,1476.4,1198.2,-7.0,-66.0,27.0,8994.0,12650.0,-4329.0,-2963.0,1.0,-13.0,-4.0,3.0,-60.0,1.0,11089.0,11981.0,800.0,-1137.0,1.0,-6.0,-3.0,1.0
2022-05-13 14:04:27.573655-07:00,2712.8,606.8,1351.2,1500.4,945.8,1266.7,1475.5,1470.9,3438.2,3443.1,1975.6,1493.0,1434.1,3444.3,1326.8,1664.4,3435.8,3434.6,798.5,1541.3,1065.1,622.2,1385.7,1795.5,3435.8,3438.2,706.0,1020.2,1345.8,1617.1,1476.4,1198.2,-11.0,-73.0,28.0,8999.0,12647.0,-4328.0,-2965.0,-15.0,2.0,7.0,3.0,-66.0,4.0,11091.0,11979.0,801.0,-1137.0,-7.0,-8.0,5.0,1.0
2022-05-13 14:04:27.574924-07:00,2701.8,607.6,1352.1,1500.4,944.9,1266.7,1475.5,1470.9,3446.7,3440.7,1970.7,1493.0,1439.6,3444.3,1326.8,1664.4,3435.8,3434.6,798.5,1554.3,1065.1,625.4,1384.8,1795.5,3435.8,3438.2,706.0,1019.4,1345.8,1612.4,1476.4,1207.1,-10.0,-64.0,23.0,8992.0,12651.0,-4330.0,-2964.0,15.0,-13.0,-7.0,1.0,-53.0,2.0,11089.0,11981.0,800.0,-1137.0,7.0,-3.0,-6.0,1.0
2022-05-13 14:04:27.706221-07:00,2701.8,607.6,1352.1,1497.7,944.9,1273.0,1470.9,1463.5,3446.7,3440.7,1970.7,1490.3,1439.6,3451.6,1325.9,1670.1,3450.4,3433.4,801.0,1554.3,1067.7,625.4,1384.8,1795.5,3434.6,3454.0,712.6,1019.4,1351.2,1612.4,1476.4,1207.1,-9.0,-74.0,26.0,8994.0,12649.0,-4330.0,-2965.0,6.0,10.0,11.0,2.0,-64.0,7.0,11090.0,11980.0,800.0,-1137.0,9.0,1.0,4.0,1.0
2022-05-13 14:04:27.707419-07:00,2704.0,601.2,1354.9,1497.7,949.2,1272.1,1466.3,1460.8,3438.2,3438.2,1963.7,1483.8,1433.2,3439.5,1324.1,1671.0,3432.2,3432.2,795.2,1548.7,1061.7,623.0,1382.1,1795.5,3443.1,3447.9,710.1,1018.5,1344.0,1612.4,1479.2,1206.2,-11.0,-69.0,25.0,8988.0,12654.0,-4328.0,-2965.0,2.0,0.0,-19.0,-1.0,-59.0,4.0,11087.0,11983.0,800.0,-1137.0,-2.0,0.0,-6.0,1.0
2022-05-13 14:04:27.708722-07:00,2704.0,601.2,1354.9,1497.7,939.8,1264.9,1455.2,1463.5,3438.2,3438.2,1963.7,1483.8,1436.0,3428.6,1324.1,1672.9,3438.2,3439.5,798.5,1548.7,1061.7,623.0,1382.1,1795.5,3445.5,3437.0,709.3,1020.2,1344.0,1612.4,1479.2,1206.2,-9.0,-70.0,25.0,8988.0,12654.0,-4328.0,-2965.0,-6.0,-1.0,17.0,1.0,-60.0,1.0,11087.0,11983.0,800.0,-1137.0,-1.0,-6.0,7.0,1.0
2022-05-13 14:04:27.750763-07:00,2697.4,608.4,1353.1,1493.0,939.8,1264.9,1455.2,1463.5,3450.4,3438.2,1967.7,1486.6,1436.0,3428.6,1324.1,1672.9,3438.2,3439.5,798.5,1548.7,1070.3,627.0,1382.1,1802.3,3445.5,3437.0,709.3,1020.2,1345.8,1609.6,1470.9,1203.5,-5.0,-68.0,27.0,8989.0,12652.0,-4330.0,-2967.0,0.0,-21.0,-8.0,6.0,-62.0,4.0,11088.0,11982.0,800.0,-1137.0,2.0,-5.0,-2.0,1.0
2022-05-13 14:04:27.795853-07:00,2697.4,608.4,1353.1,1493.0,940.7,1274.7,1472.7,1461.7,3450.4,3438.2,1967.7,1486.6,1436.0,3449.1,1321.4,1669.1,3441.9,3441.9,796.0,1559.0,1070.3,627.0,1382.1,1802.3,3438.2,3435.8,705.2,1026.3,1345.8,1609.6,1470.9,1203.5,-11.0,-72.0,36.0,8986.0,12653.0,-4332.0,-2971.0,-17.0,2.0,-1.0,3.0,-60.0,6.0,11089.0,11981.0,800.0,-1138.0,-15.0,-11.0,1.0,1.0
2022-05-13 14:04:27.886341-07:00,2686.4,604.4,1353.1,1497.7,940.7,1274.7,1472.7,1461.7,3438.2,3454.0,1963.7,1484.7,1436.0,3449.1,1321.4,1669.1,3441.9,3441.9,796.0,1559.0,1066.9,625.4,1383.9,1790.7,3438.2,3435.8,705.2,1026.3,1344.9,1604.0,1479.2,1207.1,-15.0,-55.0,29.0,8987.0,12652.0,-4334.0,-2969.0,25.0,-2.0,5.0,0.0,-55.0,11.0,11088.0,11982.0,800.0,-1138.0,18.0,2.0,-3.0,1.0
2022-05-13 14:04:27.888087-07:00,2678.8,604.4,1353.1,1497.7,943.2,1263.1,1469.0,1456.2,3449.1,3454.0,1963.7,1484.7,1434.1,3440.7,1327.8,1668.2,3438.2,3439.5,801.0,1547.8,1066.9,625.4,1383.9,1795.5,3445.5,3441.9,706.9,1019.4,1344.9,1604.0,1479.2,1204.4,-10.0,-82.0,30.0,8983.0,12656.0,-4329.0,-2970.0,-4.0,13.0,-17.0,3.0,-68.0,4.0,11087.0,11983.0,801.0,-1139.0,-4.0,8.0,-6.0,1.0
2022-05-13 14:04:27.931499-07:00,2678.8,605.2,1355.8,1488.4,943.2,1263.1,1469.0,1458.0,3449.1,3435.8,1960.8,1482.9,1434.1,3440.7,1327.8,1668.2,3440.7,3439.5,801.0,1547.8,1072.1,622.2,1380.3,1795.5,3447.9,3441.9,706.9,1019.4,1350.3,1610.5,1470.0,1204.4,-7.0,-63.0,20.0,8972.0,12664.0,-4330.0,-2966.0,28.0,0.0,-1.0,3.0,-54.0,-2.0,11083.0,11986.0,802.0,-1137.0,12.0,3.0,-3.0,1.0
2022-05-13 14:04:28.111422-07:00,2686.4,605.2,1355.8,1488.4,946.6,1258.7,1469.0,1458.0,3440.7,3435.8,1960.8,1482.9,1441.5,3438.2,1325.9,1668.2,3440.7,3443.1,792.7,1535.7,1072.1,622.2,1380.3,1795.5,3447.9,3438.2,706.0,1018.5,1350.3,1610.5,1470.0,1206.2,-12.0,-73.0,25.0,8978.0,12660.0,-4329.0,-2968.0,-19.0,-5.0,4.0,0.0,-60.0,1.0,11085.0,11984.0,802.0,-1138.0,-10.0,-9.0,5.0,1.0
2022-05-13 14:04:28.112614-07:00,2686.4,606.0,1350.3,1487.5,946.6,1258.7,1469.0,1463.5,3440.7,3441.9,1963.7,1489.3,1441.5,3438.2,1325.9,1664.4,3444.3,3443.1,792.7,1535.7,1064.3,619.7,1382.1,1795.5,3449.1,3438.2,706.0,1018.5,1346.7,1611.5,1474.6,1206.2,-11.0,-64.0,30.0,8977.0,12660.0,-4331.0,-2972.0,-3.0,-15.0,-5.0,0.0,-55.0,3.0,11085.0,11984.0,802.0,-1138.0,-4.0,-5.0,1.0,1.0
2022-05-13 14:04:28.114703-07:00,2687.5,606.0,1350.3,1487.5,940.7,1276.5,1468.1,1463.5,3440.7,3441.9,1963.7,1489.3,1436.0,3440.7,1320.5,1664.4,3444.3,3444.3,795.2,1545.9,1064.3,619.7,1382.1,1799.4,3449.1,3449.1,711.8,1018.5,1346.7,1611.5,1474.6,1206.2,-9.0,-65.0,31.0,8979.0,12658.0,-4331.0,-2972.0,-6.0,4.0,11.0,2.0,-59.0,6.0,11086.0,11983.0,802.0,-1138.0,-2.0,0.0,6.0,1.0
2022-05-13 14:04:28.155758-07:00,2687.5,602.8,1347.6,1501.4,940.7,1276.5,1468.1,1449.7,3440.7,3439.5,1959.8,1487.5,1436.0,3440.7,1320.5,1659.6,3446.7,3444.3,795.2,1545.9,1067.7,617.3,1397.6,1799.4,3438.2,3449.1,711.8,1018.5,1339.5,1613.4,1469.0,1206.2,-8.0,-59.0,24.0,8979.0,12658.0,-4331.0,-2972.0,9.0,1.0,-15.0,5.0,-60.0,3.0,11086.0,11983.0,802.0,-1138.0,7.0,3.0,-6.0,1.0
2022-05-13 14:04:28.245363-07:00,2682.1,602.0,1347.6,1501.4,950.0,1264.9,1460.8,1449.7,3438.2,3443.1,1959.8,1487.5,1441.5,3449.1,1316.0,1659.6,3446.7,3437.0,798.5,1546.9,1067.7,617.3,1384.8,1795.5,3438.2,3435.8,705.2,1023.7,1339.5,1613.4,1471.8,1202.7,-9.0,-75.0,29.0,8979.0,12658.0,-4329.0,-2973.0,-10.0,9.0,6.0,0.0,-58.0,3.0,11086.0,11983.0,802.0,-1138.0,-1.0,-1.0,2.0,1.0
2022-05-13 14:04:28.247702-07:00,2682.1,602.0,1341.3,1484.7,950.0,1264.9,1470.9,1462.6,3438.2,3443.1,1949.9,1490.3,1441.5,3449.1,1316.9,1668.2,3432.2,3437.0,798.5,1546.9,1066.9,620.5,1384.8,1795.5,3441.9,3445.5,705.2,1023.7,1344.9,1618.1,1471.8,1202.7,-7.0,-58.0,23.0,8977.0,12660.0,-4331.0,-2969.0,22.0,-3.0,-6.0,4.0,-56.0,1.0,11086.0,11984.0,801.0,-1138.0,13.0,1.0,-3.0,1.0
2022-05-13 14:04:28.290164-07:00,2664.6,606.8,1341.3,1484.7,950.9,1274.7,1470.9,1462.6,3439.5,3440.7,1949.9,1490.3,1434.1,3443.1,1316.9,1668.2,3432.2,3437.0,798.5,1554.3,1066.9,620.5,1381.2,1789.7,3441.9,3445.5,704.4,1023.7,1344.9,1618.1,1470.9,1203.5,-10.0,-80.0,32.0,8974.0,12660.0,-4331.0,-2975.0,-9.0,-11.0,5.0,2.0,-58.0,3.0,11085.0,11984.0,801.0,-1139.0,-6.0,-9.0,2.0,1.0
2022-05-13 14:04:28.335494-07:00,2664.6,606.8,1341.3,1483.8,950.9,1274.7,1468.1,1456.2,3439.5,3440.7,1957.8,1481.9,1434.1,3443.1,1319.6,1662.5,3435.8,3437.0,798.5,1554.3,1066.9,617.3,1381.2,1789.7,3445.5,3443.1,704.4,1023.7,1335.0,1609.6,1470.9,1203.5,-13.0,-59.0,31.0,8976.0,12658.0,-4338.0,-2971.0,0.0,6.0,12.0,0.0,-57.0,3.0,11085.0,11984.0,799.0,-1138.0,8.0,-2.0,7.0,1.0
2022-05-13 14:04:28.651026-07:00,2670.0,612.5,1341.3,1483.8,941.5,1264.0,1468.1,1456.2,3439.5,3439.5,1957.8,1481.9,1431.4,3447.9,1319.6,1662.5,3435.8,3437.0,791.9,1544.1,1066.9,617.3,1387.5,1803.2,3445.5,3443.1,705.2,1017.6,1335.0,1609.6,1467.2,1204.4,-11.0,-69.0,28.0,8973.0,12660.0,-4335.0,-2973.0,8.0,-2.0,-14.0,2.0,-58.0,3.0,11085.0,11984.0,799.0,-1138.0,0.0,0.0,-5.0,1.0
2022-05-13 14:04:28.695961-07:00,2670.0,612.5,1341.3,1484.7,941.5,1273.0,1463.5,1459.8,3439.5,3439.5,1959.8,1480.1,1431.4,3438.2,1318.7,1664.4,3433.4,3440.7,797.7,1544.1,1064.3,622.2,1387.5,1803.2,3435.8,3439.5,706.9,1017.6,1340.4,1606.8,1467.2,1204.4,-11.0,-74.0,27.0,8974.0,12660.0,-4337.0,-2971.0,0.0,3.0,16.0,2.0,-60.0,1.0,11085.0,11984.0,799.0,-1138.0,2.0,-1.0,7.0,1.0
2022-05-13 14:04:28.698428-07:00,2671.1,606.0,1338.6,1484.7,946.6,1273.0,1463.5,1459.8,3443.1,3445.5,1952.9,1480.1,1432.3,3438.2,1318.7,1664.4,3433.4,3440.7,797.7,1544.1,1064.3,620.5,1381.2,1791.6,3435.8,3439.5,706.9,1016.8,1340.4,1607.7,1460.8,1200.9,-11.0,-64.0,21.0,8974.0,12659.0,-4339.0,-2970.0,7.0,3.0,-2.0,1.0,-59.0,2.0,11085.0,11984.0,799.0,-1138.0,3.0,-3.0,1.0,1.0
2022-05-13 14:04:28.699692-07:00,2671.1,606.0,1338.6,1507.8,946.6,1269.4,1465.4,1450.6,3443.1,3445.5,1952.9,1481.9,1432.3,3444.3,1317.8,1655.8,3433.4,3435.8,791.9,1544.1,1066.9,620.5,1381.2,1791.6,3439.5,3440.7,706.0,1016.8,1335.9,1607.7,1460.8,1200.9,-7.0,-71.0,31.0,8973.0,12658.0,-4341.0,-2973.0,-1.0,-11.0,-5.0,4.0,-60.0,0.0,11085.0,11984.0,799.0,-1138.0,-1.0,-6.0,0.0,1.0
2022-05-13 14:04:28.700870-07:00,2675.5,610.0,1337.7,1507.8,944.9,1269.4,1465.4,1450.6,3437.0,3441.9,1954.8,1481.9,1438.7,3444.3,1317.8,1655.8,3433.4,3435.8,791.9,1545.0,1066.9,622.2,1387.5,1793.6,3439.5,3440.7,706.0,1016.8,1335.9,1607.7,1463.5,1203.5,-12.0,-72.0,27.0,8974.0,12658.0,-4343.0,-2971.0,2.0,-2.0,18.0,2.0,-60.0,7.0,11085.0,11984.0,799.0,-1138.0,0.0,-10.0,9.0,1.0
2022-05-13 14:04:28.830265-07:00,2675.5,610.0,1337.7,1486.6,944.9,1257.8,1465.4,1461.7,3437.0,3441.9,1954.8,1485.6,1438.7,3443.1,1324.1,1656.8,3429.8,3428.6,792.7,1545.0,1061.7,622.2,1387.5,1793.6,3435.8,3439.5,706.0,1016.8,1350.3,1607.7,1463.5,1203.5,-8.0,-68.0,29.0,8969.0,12659.0,-4350.0,-2970.0,16.0,-5.0,-4.0,1.0,-59.0,4.0,11083.0,11986.0,797.0,-1140.0,9.0,2.0,-1.0,1.0
2022-05-13 14:04:28.833122-07:00,2664.6,604.4,1338.6,1496.7,944.9,1260.4,1465.4,1459.8,3438.2,3439.5,1947.9,1481.9,1436.9,3438.2,1315.1,1655.8,3438.2,3443.1,800.2,1547.8,1065.1,623.0,1386.6,1793.6,3438.2,3445.5,704.4,1014.2,1341.3,1612.4,1462.6,1205.3,-9.0,-71.0,23.0,8970.0,12661.0,-4347.0,-2965.0,-2.0,13.0,11.0,3.0,-63.0,1.0,11083.0,11986.0,797.0,-1140.0,2.0,6.0,5.0,1.0
2022-05-13 14:04:28.834283-07:00,2664.6,601.2,1334.1,1494.0,944.9,1260.4,1465.4,1459.8,3439.5,3437.0,1951.9,1480.1,1436.9,3438.2,1315.1,1655.8,3438.2,3443.1,800.2,1547.8,1067.7,618.9,1389.4,1786.8,3438.2,3445.5,704.4,1014.2,1340.4,1605.8,1459.8,1208.9,-7.0,-61.0,27.0,8965.0,12663.0,-4348.0,-2967.0,6.0,-10.0,-13.0,2.0,-52.0,-1.0,11083.0,11986.0,797.0,-1140.0,-1.0,-4.0,0.0,1.0
2022-05-13 14:04:28.835417-07:00,2664.6,601.2,1334.1,1494.0,937.3,1261.3,1457.1,1458.0,3439.5,3437.0,1951.9,1480.1,1435.0,3433.4,1317.8,1667.2,3441.9,3428.6,791.0,1547.8,1067.7,618.9,1389.4,1786.8,3449.1,3439.5,704.4,1011.6,1340.4,1605.8,1459.8,1208.9,-12.0,-78.0,32.0,8969.0,12660.0,-4347.0,-2968.0,3.0,2.0,17.0,0.0,-60.0,2.0,11086.0,11984.0,796.0,-1140.0,4.0,-5.0,12.0,1.0
2022-05-13 14:04:28.876283-07:00,2658.0,606.0,1344.0,1484.7,937.3,1261.3,1457.1,1458.0,3444.3,3443.1,1952.9,1481.0,1435.0,3433.4,1317.8,1667.2,3441.9,3428.6,791.0,1547.8,1064.3,627.8,1385.7,1781.0,3449.1,3439.5,704.4,1011.6,1335.0,1604.9,1459.8,1201.8,-12.0,-62.0,28.0,8967.0,12661.0,-4349.0,-2966.0,4.0,-1.0,-10.0,2.0,-56.0,3.0,11084.0,11985.0,794.0,-1139.0,2.0,1.0,-4.0,1.0
2022-05-13 14:04:29.011220-07:00,2658.0,606.0,1344.0,1484.7,939.8,1259.6,1463.5,1456.2,3444.3,3443.1,1952.9,1481.0,1429.5,3435.8,1314.2,1658.7,3433.4,3433.4,798.5,1542.2,1064.3,627.8,1385.7,1781.0,3429.8,3438.2,713.4,1024.5,1335.0,1604.9,1459.8,1201.8,-9.0,-70.0,32.0,8967.0,12662.0,-4349.0,-2966.0,9.0,-2.0,6.0,5.0,-60.0,4.0,11084.0,11985.0,794.0,-1139.0,7.0,0.0,4.0,1.0
2022-05-13 14:04:29.014117-07:00,2660.2,606.0,1344.9,1489.3,939.8,1259.6,1463.5,1458.9,3444.3,3439.5,1944.0,1482.9,1429.5,3435.8,1314.2,1669.1,3439.5,3433.4,798.5,1542.2,1060.8,625.4,1383.9,1789.7,3449.1,3438.2,713.4,1024.5,1337.7,1609.6,1458.0,1199.1,-8.0,-65.0,29.0,8967.0,12662.0,-4349.0,-2965.0,-7.0,10.0,7.0,1.0,-61.0,-3.0,11084.0,11985.0,794.0,-1139.0,2.0,-3.0,4.0,1.0
2022-05-13 14:04:29.055708-07:00,2652.6,606.0,1344.9,1489.3,947.5,1256.0,1453.4,1458.9,3441.9,3439.5,1944.0,1482.9,1434.1,3444.3,1311.5,1669.1,3439.5,3441.9,791.9,1542.2,1060.8,625.4,1383.9,1787.8,3449.1,3438.2,700.3,1009.9,1337.7,1609.6,1458.0,1207.1,-9.0,-65.0,23.0,8967.0,12664.0,-4347.0,-2961.0,18.0,4.0,7.0,3.0,-58.0,1.0,11082.0,11988.0,794.0,-1139.0,12.0,-1.0,3.0,1.0
2022-05-13 14:04:29.235958-07:00,2652.6,604.4,1348.5,1494.9,947.5,1256.0,1453.4,1463.5,3441.9,3440.7,1945.0,1475.5,1434.1,3444.3,1311.5,1655.8,3432.2,3441.9,791.9,1542.2,1060.8,625.4,1383.9,1787.8,3443.1,3438.2,700.3,1009.9,1339.5,1607.7,1459.8,1207.1,-12.0,-69.0,27.0,8966.0,12664.0,-4347.0,-2961.0,5.0,1.0,7.0,4.0,-57.0,3.0,11081.0,11988.0,794.0,-1139.0,12.0,-2.0,2.0,1.0
2022-05-13 14:04:29.237246-07:00,2650.4,604.4,1348.5,1494.9,939.8,1264.9,1464.4,1463.5,3446.7,3440.7,1945.0,1475.5,1436.0,3439.5,1319.6,1655.8,3432.2,3440.7,791.0,1544.1,1060.8,625.4,1383.9,1786.8,3443.1,3451.6,707.7,1016.8,1339.5,1607.7,1459.8,1200.0,-11.0,-72.0,26.0,8967.0,12664.0,-4347.0,-2962.0,-14.0,-1.0,25.0,7.0,-59.0,4.0,11080.0,11990.0,794.0,-1139.0,6.0,-1.0,4.0,1.0
2022-05-13 14:04:29.238373-07:00,2650.4,610.8,1367.6,1494.0,939.8,1264.9,1464.4,1451.6,3446.7,3439.5,1951.9,1481.9,1436.0,3439.5,1319.6,1673.8,3449.1,3440.7,791.0,1544.1,1064.3,624.6,1400.3,1786.8,3447.9,3451.6,707.7,1016.8,1345.8,1638.8,1502.3,1200.0,-32.0,-75.0,5.0,8967.0,12653.0,-4370.0,-2971.0,1.0,-171.0,90.0,4.0,-62.0,11.0,11076.0,11993.0,794.0,-1139.0,33.0,-7.0,-2.0,1.0
2022-05-13 14:04:29.281312-07:00,2652.6,610.8,1367.6,1494.0,950.0,1269.4,1458.0,1451.6,3437.0,3439.5,1951.9,1481.9,1426.8,3449.1,1353.1,1673.8,3449.1,3431.0,789.4,1540.3,1064.3,624.6,1400.3,1794.5,3447.9,3445.5,709.3,1023.7,1345.8,1638.8,1502.3,1208.0,-14.0,-60.0,6.0,8913.0,12637.0,-4476.0,-3045.0,52.0,-416.0,102.0,-3.0,-52.0,-15.0,11065.0,12003.0,787.0,-1146.0,14.0,-45.0,-5.0,1.0
2022-05-13 14:04:29.460905-07:00,2652.6,602.8,1367.6,1488.4,950.0,1269.4,1463.5,1457.1,3437.0,3443.1,1960.8,1483.8,1426.8,3449.1,1451.6,1691.0,3439.5,3437.0,789.4,1540.3,1066.9,630.3,1438.7,1794.5,3443.1,3449.1,709.3,1023.7,1339.5,1652.0,1549.7,1208.0,-33.0,-75.0,42.0,8867.0,12594.0,-4603.0,-3166.0,-14.0,-425.0,102.0,0.0,-65.0,6.0,11070.0,11997.0,769.0,-1165.0,-13.0,-67.0,7.0,1.0
2022-05-13 14:04:29.462101-07:00,2684.3,612.5,1367.6,1488.4,945.8,1263.1,1463.5,1457.1,3432.2,3444.3,1960.8,1483.8,1428.6,3441.9,1451.6,1691.0,3439.5,3437.0,795.2,1539.4,1066.9,630.3,1450.6,1783.9,3443.1,3449.1,710.1,1017.6,1339.5,1652.0,1662.5,1207.1,59.0,-46.0,-11.0,8804.0,12537.0,-4771.0,-3313.0,7.0,-575.0,92.0,1.0,-46.0,-41.0,11075.0,11992.0,744.0,-1193.0,-79.0,-139.0,2.0,1.0
2022-05-13 14:04:29.464514-07:00,2684.3,612.5,1456.2,1499.5,945.8,1263.1,1468.1,1462.6,3432.2,3444.3,1990.5,1479.2,1428.6,3441.9,1528.3,1722.4,3433.4,3441.9,795.2,1539.4,1066.9,623.0,1450.6,1783.9,3444.3,3443.1,710.1,1017.6,1336.8,1714.8,1662.5,1207.1,-6.0,-68.0,103.0,8795.0,12475.0,-4854.0,-3450.0,-200.0,-122.0,-39.0,1.0,-66.0,25.0,11118.0,11950.0,710.0,-1231.0,-121.0,-70.0,5.0,1.0
2022-05-13 14:04:29.465793-07:00,2668.9,608.4,1456.2,1499.5,944.9,1259.6,1468.1,1462.6,3434.6,3433.4,1990.5,1479.2,1435.0,3445.5,1528.3,1722.4,3433.4,3441.9,791.0,1545.0,1066.9,623.0,1456.2,1794.5,3444.3,3443.1,719.2,1013.3,1336.8,1714.8,1775.2,1195.6,27.0,-58.0,47.0,8812.0,12441.0,-4879.0,-3494.0,88.0,-129.0,83.0,16.0,-63.0,17.0,11130.0,11939.0,697.0,-1240.0,44.0,-10.0,11.0,1.0
2022-05-13 14:04:29.505764-07:00,2668.9,608.4,1575.8,1550.6,944.9,1259.6,1469.0,1467.2,3434.6,3433.4,2013.4,1483.8,1435.0,3445.5,1596.4,1761.8,3439.5,3440.7,791.0,1545.0,1071.2,617.3,1456.2,1794.5,3440.7,3443.1,719.2,1013.3,1336.8,1771.4,1775.2,1195.6,-10.0,-49.0,78.0,8802.0,12440.0,-4898.0,-3494.0,-98.0,126.0,-42.0,0.0,-64.0,17.0,11130.0,11939.0,698.0,-1238.0,-40.0,45.0,-6.0,1.0
2022-05-13 14:04:29.595121-07:00,2668.9,610.8,1724.4,1550.6,951.7,1270.3,1469.0,1467.2,3443.1,3438.2,2035.4,1483.8,1423.1,3437.0,1596.4,1761.8,3439.5,3440.7,791.0,1545.0,1071.2,620.5,1460.8,1786.8,3440.7,3443.1,714.2,1009.0,1336.8,1908.5,1890.9,1193.8,11.0,-72.0,6.0,8830.0,12443.0,-4856.0,-3471.0,91.0,22.0,-17.0,16.0,-58.0,0.0,11128.0,11941.0,718.0,-1223.0,66.0,54.0,-24.0,1.0
2022-05-13 14:04:29.596744-07:00,2668.9,610.8,1724.4,1619.9,951.7,1291.8,1457.1,1462.6,3443.1,3438.2,2035.4,1488.4,1423.1,3440.7,1672.9,1826.5,3446.7,3433.4,796.9,1545.0,1066.9,620.5,1460.8,1786.8,3443.1,3440.7,720.8,1009.0,1343.1,1908.5,1890.9,1193.8,-17.0,-72.0,22.0,8814.0,12465.0,-4839.0,-3457.0,-70.0,97.0,-52.0,-7.0,-64.0,-2.0,11117.0,11951.0,734.0,-1218.0,-22.0,25.0,-17.0,1.0
2022-05-13 14:04:29.641602-07:00,2665.7,613.3,1830.4,1619.9,956.0,1291.8,1457.1,1462.6,3435.8,3449.1,2082.6,1488.4,1431.4,3440.7,1672.9,1826.5,3446.7,3433.4,796.9,1543.1,1066.9,623.0,1481.9,1799.4,3443.1,3440.7,720.8,1015.1,1343.1,1986.6,1950.9,1206.2,-5.0,-68.0,15.0,8838.0,12461.0,-4810.0,-3452.0,6.0,4.0,-12.0,1.0,-60.0,-5.0,11123.0,11945.0,737.0,-1218.0,-2.0,5.0,-10.0,1.0
2022-05-13 14:04:29.685963-07:00,2665.7,613.3,1830.4,1668.2,956.0,1303.4,1470.9,1469.0,3435.8,3449.1,2082.6,1495.8,1431.4,3441.9,1717.7,1886.9,3434.6,3432.2,794.4,1543.1,1064.3,623.0,1481.9,1799.4,3441.9,3438.2,716.7,1015.1,1337.7,1986.6,1950.9,1206.2,-14.0,-60.0,39.0,8839.0,12465.0,-4794.0,-3456.0,-76.0,63.0,-42.0,-13.0,-56.0,3.0,11126.0,11942.0,740.0,-1223.0,-48.0,-14.0,-7.0,1.0
2022-05-13 14:04:29.776013-07:00,2684.3,609.2,1878.1,1668.2,962.0,1303.4,1470.9,1469.0,3434.6,3439.5,2164.6,1495.8,1426.8,3441.9,1717.7,1886.9,3434.6,3432.2,794.4,1545.0,1064.3,621.4,1492.1,1806.1,3441.9,3438.2,716.7,997.9,1337.7,2017.4,1962.8,1202.7,-6.0,-73.0,28.0,8866.0,12452.0,-4776.0,-3461.0,-30.0,-93.0,73.0,4.0,-64.0,16.0,11138.0,11931.0,741.0,-1223.0,-12.0,4.0,-1.0,1.0
2022-05-13 14:04:29.777624-07:00,2684.3,609.2,1878.1,1691.0,962.0,1316.9,1451.6,1453.4,3434.6,3439.5,2164.6,1522.7,1426.8,3445.5,1742.6,1945.0,3439.5,3434.6,799.4,1545.0,1063.4,621.4,1492.1,1806.1,3449.1,3433.4,723.3,997.9,1336.8,2017.4,1962.8,1202.7,23.0,-24.0,79.0,8860.0,12438.0,-4808.0,-3482.0,-32.0,-14.0,-19.0,5.0,-41.0,-28.0,11131.0,11936.0,738.0,-1232.0,-8.0,-19.0,-20.0,1.0
2022-05-13 14:04:29.955759-07:00,2766.8,614.1,1884.0,1706.2,957.7,1316.9,1451.6,1453.4,3440.7,3433.4,2254.8,1547.8,1435.0,3445.5,1742.6,1945.0,3439.5,3434.6,799.4,1547.8,1071.2,621.4,1488.4,1827.5,3449.1,3433.4,723.3,998.7,1341.3,1999.5,1939.0,1201.8,-37.0,-109.0,38.0,8914.0,12420.0,-4750.0,-3485.0,-104.0,63.0,-37.0,4.0,-64.0,34.0,11151.0,11917.0,759.0,-1227.0,-41.0,65.0,-28.0,1.0
2022-05-13 14:04:29.956980-07:00,2766.8,614.1,1884.0,1706.2,959.4,1332.3,1440.5,1460.8,3440.7,3433.4,2254.8,1547.8,1441.5,3433.4,1717.7,1962.8,3437.0,3433.4,809.4,1553.4,1071.2,621.4,1488.4,1827.5,3440.7,3445.5,737.3,997.0,1341.3,1999.5,1939.0,1201.8,18.0,-39.0,41.0,8923.0,12400.0,-4785.0,-3487.0,-13.0,-51.0,84.0,1.0,-43.0,-22.0,11128.0,11938.0,775.0,-1215.0,79.0,42.0,-4.0,1.0
2022-05-13 14:04:29.958116-07:00,2916.7,606.0,1867.4,1702.4,959.4,1332.3,1440.5,1460.8,3438.2,3438.2,2302.5,1568.3,1441.5,3433.4,1717.7,1962.8,3437.0,3433.4,809.4,1553.4,1068.6,622.2,1467.2,1844.0,3440.7,3445.5,737.3,997.0,1339.5,1993.5,1915.4,1207.1,-13.0,-124.0,23.0,9000.0,12354.0,-4777.0,-3462.0,-268.0,109.0,141.0,8.0,-112.0,28.0,11137.0,11931.0,778.0,-1202.0,-61.0,26.0,47.0,1.0
2022-05-13 14:04:30.000740-07:00,2916.7,606.0,1867.4,1702.4,957.7,1316.9,1460.8,1447.0,3438.2,3438.2,2302.5,1568.3,1444.2,3438.2,1691.0,1945.0,3449.1,3435.8,811.9,1556.2,1068.6,622.2,1467.2,1844.0,3441.9,3441.9,738.1,984.2,1339.5,1993.5,1915.4,1207.1,3.0,-20.0,-1.0,9010.0,12337.0,-4818.0,-3441.0,104.0,-134.0,96.0,0.0,-27.0,-20.0,11123.0,11946.0,780.0,-1184.0,117.0,31.0,2.0,1.0
2022-05-13 14:04:30.043815-07:00,2873.9,612.5,1838.2,1666.3,957.7,1316.9,1460.8,1447.0,3438.2,3432.2,2312.9,1597.4,1444.2,3438.2,1691.0,1945.0,3449.1,3435.8,811.9,1556.2,1065.1,624.6,1456.2,1847.9,3441.9,3441.9,738.1,984.2,1340.4,1976.6,1906.6,1207.1,-14.0,-101.0,29.0,8994.0,12319.0,-4864.0,-3483.0,-38.0,-131.0,1.0,-5.0,-64.0,-9.0,11111.0,11956.0,787.0,-1190.0,2.0,-13.0,-22.0,1.0
2022-05-13 14:04:30.225523-07:00,2762.4,612.5,1838.2,1666.3,962.0,1334.1,1451.6,1440.5,3444.3,3432.2,2312.9,1597.4,1451.6,3441.9,1659.6,1946.9,3435.8,3446.7,818.5,1552.5,1065.1,624.6,1456.2,1852.8,3444.3,3440.7,750.5,989.3,1340.4,1976.6,1906.6,1202.7,-3.0,-68.0,26.0,9001.0,12278.0,-4931.0,-3515.0,-76.0,-230.0,209.0,3.0,-74.0,0.0,11110.0,11957.0,772.0,-1195.0,21.0,-65.0,49.0,1.0
2022-05-13 14:04:30.226791-07:00,2762.4,599.6,1812.9,1709.1,962.0,1334.1,1451.6,1447.9,3444.3,3438.2,2345.2,1621.8,1451.6,3441.9,1659.6,1952.9,3438.2,3446.7,818.5,1552.5,1066.9,622.2,1449.7,1852.8,3443.1,3440.7,750.5,989.3,1335.0,1976.6,1887.9,1202.7,-9.0,-75.0,44.0,9013.0,12224.0,-5009.0,-3562.0,-95.0,-76.0,27.0,6.0,-54.0,2.0,11115.0,11953.0,750.0,-1203.0,-37.0,-21.0,-8.0,1.0
2022-05-13 14:04:30.315063-07:00,2551.9,599.6,1812.9,1709.1,963.7,1332.3,1460.8,1447.9,3438.2,3438.2,2345.2,1621.8,1481.9,3441.9,1628.4,1952.9,3438.2,3441.9,817.7,1574.9,1066.9,622.2,1449.7,1852.8,3443.1,3451.6,748.8,987.6,1335.0,1976.6,1887.9,1200.9,-12.0,-71.0,27.0,9022.0,12202.0,-5038.0,-3574.0,-15.0,-122.0,103.0,9.0,-92.0,21.0,11114.0,11954.0,748.0,-1202.0,38.0,6.0,19.0,1.0
2022-05-13 14:04:30.361006-07:00,2551.9,608.4,1786.8,1691.0,963.7,1332.3,1460.8,1452.5,3438.2,3441.9,2366.1,1630.3,1481.9,3441.9,1628.4,1941.0,3433.4,3441.9,817.7,1574.9,1067.7,618.9,1449.7,1852.8,3447.9,3451.6,748.8,987.6,1340.4,1962.8,1864.5,1200.9,8.0,-60.0,62.0,9008.0,12192.0,-5074.0,-3590.0,-34.0,-31.0,21.0,-5.0,-24.0,-19.0,11106.0,11962.0,748.0,-1203.0,-15.0,1.0,6.0,1.0
2022-05-13 14:04:30.362192-07:00,2364.0,608.4,1786.8,1691.0,962.0,1317.8,1459.8,1452.5,3435.8,3441.9,2366.1,1630.3,1511.5,3440.7,1595.5,1941.0,3433.4,3437.0,833.6,1552.5,1067.7,618.9,1449.7,1874.2,3447.9,3440.7,754.6,980.7,1340.4,1962.8,1864.5,1197.4,0.0,-65.0,39.0,9034.0,12163.0,-5107.0,-3577.0,30.0,41.0,45.0,0.0,-65.0,15.0,11105.0,11963.0,748.0,-1198.0,53.0,26.0,-20.0,1.0
2022-05-13 14:04:30.406589-07:00,2364.0,605.2,1782.9,1686.2,962.0,1317.8,1459.8,1456.2,3435.8,3435.8,2398.7,1680.5,1511.5,3440.7,1595.5,1947.9,3444.3,3437.0,833.6,1552.5,1067.7,631.1,1472.7,1874.2,3450.4,3440.7,754.6,980.7,1334.1,1957.8,1847.9,1197.4,-9.0,-75.0,29.0,9030.0,12177.0,-5100.0,-3551.0,13.0,49.0,-1.0,4.0,-71.0,-6.0,11087.0,11979.0,768.0,-1199.0,32.0,24.0,-29.0,1.0
2022-05-13 14:04:30.496175-07:00,2257.9,606.8,1782.9,1686.2,954.3,1323.2,1475.5,1456.2,3437.0,3440.7,2398.7,1680.5,1536.6,3449.1,1573.0,1947.9,3444.3,3439.5,837.7,1563.7,1067.7,631.1,1478.3,1883.0,3450.4,3440.7,752.9,979.9,1334.1,1957.8,1835.2,1207.1,29.0,-32.0,18.0,9048.0,12156.0,-5122.0,-3544.0,-44.0,-76.0,149.0,18.0,-62.0,-27.0,11087.0,11979.0,768.0,-1195.0,26.0,-26.0,46.0,1.0
2022-05-13 14:04:30.497353-07:00,2257.9,606.8,1788.7,1694.8,954.3,1323.2,1501.4,1476.4,3437.0,3440.7,2371.3,1692.9,1536.6,3449.1,1560.9,1940.0,3428.6,3449.1,837.7,1563.7,1068.6,627.8,1478.3,1883.0,3443.1,3446.7,752.9,979.9,1331.4,1948.9,1835.2,1207.1,-15.0,-77.0,30.0,9076.0,12133.0,-5124.0,-3550.0,-65.0,5.0,-13.0,9.0,-64.0,-5.0,11091.0,11975.0,768.0,-1197.0,-4.0,2.0,-16.0,1.0
2022-05-13 14:04:30.540261-07:00,2192.2,610.8,1788.7,1694.8,963.7,1317.8,1501.4,1476.4,3444.3,3440.7,2371.3,1692.9,1561.8,3443.1,1560.9,1940.0,3428.6,3449.1,838.6,1567.4,1068.6,627.8,1466.3,1918.3,3443.1,3446.7,752.9,979.9,1331.4,1948.9,1823.6,1200.9,-10.0,-64.0,7.0,9087.0,12125.0,-5121.0,-3554.0,2.0,-81.0,61.0,-4.0,-50.0,4.0,11091.0,11975.0,769.0,-1201.0,23.0,-31.0,22.0,1.0
2022-05-13 14:04:30.541493-07:00,2192.2,610.8,1779.1,1694.8,963.7,1317.8,1499.5,1484.7,3444.3,3440.7,2336.8,1692.9,1561.8,3443.1,1545.0,1929.2,3444.3,3440.7,838.6,1567.4,1078.2,631.1,1466.3,1918.3,3440.7,3441.9,752.9,979.9,1347.6,1938.0,1823.6,1200.9,20.0,-50.0,54.0,9097.0,12099.0,-5153.0,-3570.0,-98.0,13.0,5.0,3.0,-66.0,8.0,11093.0,11973.0,748.0,-1210.0,-45.0,-21.0,0.0,1.0
2022-05-13 14:04:30.720442-07:00,2154.4,608.4,1779.1,1694.8,971.3,1317.8,1499.5,1484.7,3435.8,3438.2,2336.8,1692.9,1562.7,3435.8,1545.0,1929.2,3444.3,3440.7,853.7,1566.5,1078.2,631.1,1469.0,1913.4,3440.7,3441.9,758.7,972.2,1347.6,1938.0,1819.7,1199.1,-2.0,-61.0,39.0,9123.0,12082.0,-5149.0,-3567.0,-19.0,-31.0,36.0,7.0,-63.0,9.0,11102.0,11965.0,741.0,-1210.0,1.0,-19.0,17.0,1.0
2022-05-13 14:04:30.722404-07:00,2154.4,608.4,1784.9,1693.8,971.3,1316.9,1517.1,1491.2,3435.8,3438.2,2316.0,1687.2,1562.7,3449.1,1545.0,1924.3,3439.5,3439.5,847.0,1566.5,1066.9,623.0,1469.0,1913.4,3440.7,3440.7,758.7,972.2,1344.0,1933.1,1819.7,1199.1,0.0,-90.0,52.0,9134.0,12078.0,-5143.0,-3562.0,16.0,87.0,-24.0,0.0,-64.0,17.0,11102.0,11965.0,742.0,-1209.0,-5.0,25.0,8.0,1.0
2022-05-13 14:04:30.723544-07:00,2128.0,602.0,1760.8,1693.8,969.6,1316.9,1517.1,1491.2,3441.9,3447.9,2293.1,1687.2,1567.4,3449.1,1545.0,1924.3,3439.5,3439.5,847.0,1569.3,1066.9,620.5,1451.6,1920.3,3440.7,3440.7,758.7,973.9,1344.0,1930.2,1818.7,1211.5,2.0,-36.0,13.0,9141.0,12076.0,-5150.0,-3541.0,0.0,-38.0,69.0,8.0,-50.0,-17.0,11100.0,11969.0,734.0,-1198.0,15.0,-14.0,33.0,1.0
