Time,P0,P1,P2,P3,P4,P5,P6,P7,P8,P9,P10,P11,P12,P13,P14,P15,P16,P17,P18,P19,P20,P21,P22,P23,P24,P25,P26,P27,P28,P29,P30,P31,ECG,AX0,AY0,AZ0,QW0,QX0,QY0,QZ0,GX0,GY0,GZ0,AX1,AY1,AZ1,QW1,QX1,QY1,QZ1,GX1,GY1,GZ1
2022-05-13 15:53:35.442028-07:00,1067.7,729.0,894.1,855.3,715.9,679.1,1589.9,1118.2,3474.6,3478.3,993.6,852.8,1430.5,3473.4,1151.5,1077.3,3469.8,3475.9,1141.0,1442.4,2002.5,2593.9,1578.6,3494.1,3479.5,3469.8,658.7,797.7,1408.5,877.2,841.9,715.1,2.0,3.0,-9.0,10888.0,-12144.0,1539.0,-212.0,-5.0,3.0,7.0,5.0,6.0,-7.0,4029.0,-9485.0,-11071.0,6298.0,2.0,2.0,7.0,1.0
2022-05-13 15:53:35.487392-07:00,1070.3,729.0,894.1,855.3,720.8,680.7,1587.1,1118.2,3467.4,3478.3,993.6,852.8,1425.0,3460.1,1149.8,1077.3,3469.8,3471.0,1146.3,1440.5,2002.5,2593.9,1578.6,3491.7,3479.5,3483.2,648.1,798.5,1408.5,877.2,841.9,719.2,-1.0,-2.0,-13.0,10886.0,-12145.0,1540.0,-213.0,6.0,6.0,-3.0,1.0,7.0,-12.0,4029.0,-9485.0,-11071.0,6298.0,4.0,2.0,6.0,1.0
2022-05-13 15:53:35.574749-07:00,1070.3,722.5,896.6,858.7,720.8,680.7,1585.2,1121.7,3467.4,3467.4,1004.8,854.5,1425.0,3460.1,1150.6,1081.6,3468.6,3477.1,1146.3,1440.5,2004.5,2601.5,1579.6,3491.7,3463.7,3472.2,648.1,798.5,1389.4,874.7,843.6,719.2,2.0,-4.0,-7.0,10888.0,-12144.0,1540.0,-213.0,-3.0,-9.0,0.0,5.0,5.0,-7.0,4029.0,-9485.0,-11071.0,6298.0,-7.0,-3.0,0.0,1.0
2022-05-13 15:53:35.620995-07:00,1070.3,715.1,896.6,858.7,720.0,684.0,1585.2,1121.7,3467.4,3463.7,1004.8,854.5,1430.5,3471.0,1150.6,1081.6,3468.6,3477.1,1147.1,1456.2,2004.5,2601.5,1573.0,3486.8,3463.7,3472.2,657.0,798.5,1389.4,874.7,837.7,715.9,6.0,4.0,-9.0,10889.0,-12143.0,1540.0,-213.0,10.0,7.0,-3.0,9.0,6.0,-3.0,4029.0,-9485.0,-11071.0,6298.0,7.0,2.0,2.0,1.0
2022-05-13 15:53:35.711217-07:00,1070.3,715.1,890.7,853.7,720.0,684.0,1586.1,1130.5,3467.4,3463.7,1003.0,854.5,1430.5,3471.0,1146.3,1076.4,3468.6,3477.1,1147.1,1456.2,2003.5,2603.7,1573.0,3486.8,3471.0,3475.9,657.0,798.5,1393.0,879.7,837.7,715.9,3.0,0.0,-10.0,10889.0,-12143.0,1540.0,-213.0,2.0,0.0,1.0,3.0,6.0,-10.0,4029.0,-9485.0,-11071.0,6298.0,0.0,1.0,1.0,1.0
2022-05-13 15:53:35.712513-07:00,1072.1,720.8,890.7,853.7,724.9,681.5,1586.1,1130.5,3471.0,3474.6,1003.0,854.5,1433.2,3475.9,1146.3,1076.4,3468.6,3477.1,1148.9,1446.0,2003.5,2603.7,1581.4,3489.2,3471.0,3475.9,654.6,797.7,1393.0,879.7,845.3,718.4,1.0,3.0,-13.0,10890.0,-12142.0,1540.0,-213.0,10.0,-6.0,-3.0,3.0,8.0,-5.0,4029.0,-9485.0,-11071.0,6298.0,5.0,-3.0,-1.0,1.0
2022-05-13 15:53:35.713825-07:00,1072.1,720.8,884.8,862.1,724.9,681.5,1585.2,1123.5,3471.0,3474.6,1003.0,854.5,1433.2,3475.9,1151.5,1082.5,3467.4,3474.6,1148.9,1446.0,1995.5,2605.8,1581.4,3489.2,3467.4,3473.4,654.6,797.7,1390.3,874.7,845.3,718.4,4.0,-1.0,-7.0,10890.0,-12142.0,1537.0,-210.0,0.0,-11.0,3.0,4.0,5.0,-10.0,4029.0,-9485.0,-11071.0,6298.0,0.0,-1.0,1.0,1.0
2022-05-13 15:53:35.847876-07:00,1067.7,720.0,889.8,862.1,715.1,679.1,1585.2,1123.5,3472.2,3473.4,1008.2,854.5,1425.9,3478.3,1151.5,1082.5,3467.4,3474.6,1148.9,1442.4,1995.5,2596.1,1576.8,3496.6,3467.4,3473.4,658.7,791.0,1390.3,879.7,844.4,723.3,2.0,-4.0,-7.0,10891.0,-12141.0,1536.0,-211.0,2.0,-5.0,-10.0,7.0,6.0,-7.0,4030.0,-9485.0,-11070.0,6299.0,2.0,3.0,1.0,1.0
2022-05-13 15:53:35.849390-07:00,1067.7,720.0,889.8,858.7,715.1,675.8,1578.6,1154.2,3472.2,3473.4,1008.2,853.7,1425.9,3474.6,1142.7,1087.7,3466.1,3464.9,1155.9,1442.4,2004.5,2596.1,1576.8,3496.6,3469.8,3469.8,654.6,791.0,1393.9,879.7,844.4,723.3,2.0,0.0,-5.0,10890.0,-12142.0,1536.0,-211.0,5.0,4.0,6.0,2.0,3.0,-3.0,4030.0,-9485.0,-11070.0,6299.0,5.0,-2.0,7.0,1.0
2022-05-13 15:53:35.938796-07:00,1067.7,718.4,895.7,858.7,722.5,675.8,1578.6,1154.2,3471.0,3467.4,1003.9,853.7,1432.3,3474.6,1142.7,1087.7,3466.1,3464.9,1155.9,1442.4,2004.5,2597.2,1574.9,3494.1,3469.8,3469.8,654.6,796.9,1393.9,881.4,845.3,716.7,4.0,-4.0,-7.0,10890.0,-12142.0,1536.0,-211.0,-1.0,1.0,-3.0,5.0,9.0,-11.0,4030.0,-9485.0,-11070.0,6299.0,1.0,1.0,3.0,1.0
2022-05-13 15:53:35.981760-07:00,1067.7,718.4,895.7,857.9,722.5,677.4,1569.3,1121.7,3471.0,3467.4,1003.9,862.9,1432.3,3469.8,1148.0,1084.2,3474.6,3473.4,1146.3,1442.4,2006.4,2597.2,1574.9,3494.1,3467.4,3472.2,656.2,796.9,1391.2,881.4,845.3,716.7,2.0,2.0,-11.0,10890.0,-12142.0,1536.0,-211.0,5.0,-2.0,-3.0,6.0,8.0,-6.0,4030.0,-9485.0,-11070.0,6299.0,7.0,3.0,-1.0,1.0
2022-05-13 15:53:35.983777-07:00,1070.3,720.0,890.7,857.9,719.2,677.4,1569.3,1121.7,3466.1,3456.4,995.3,862.9,1435.0,3469.8,1148.0,1084.2,3474.6,3473.4,1146.3,1444.2,2006.4,2587.4,1573.0,3496.6,3467.4,3472.2,656.2,794.4,1391.2,877.2,839.4,716.7,4.0,0.0,-10.0,10890.0,-12142.0,1536.0,-211.0,1.0,-3.0,-2.0,7.0,4.0,-7.0,4030.0,-9485.0,-11070.0,6299.0,-1.0,-4.0,1.0,1.0
2022-05-13 15:53:36.027302-07:00,1070.3,720.0,890.7,853.7,711.0,682.3,1568.3,1114.7,3466.1,3456.4,995.3,857.9,1428.6,3477.1,1143.6,1085.1,3483.2,3472.2,1148.0,1431.4,1998.5,2587.4,1573.0,3496.6,3473.4,3472.2,653.8,791.9,1393.9,877.2,839.4,716.7,2.0,0.0,-3.0,10890.0,-12142.0,1536.0,-211.0,6.0,-2.0,-2.0,4.0,3.0,-5.0,4030.0,-9485.0,-11070.0,6299.0,2.0,2.0,3.0,1.0
2022-05-13 15:53:36.070884-07:00,1071.2,721.6,892.4,851.1,711.0,682.3,1568.3,1114.7,3469.8,3473.4,1000.5,862.1,1428.6,3477.1,1143.6,1085.1,3483.2,3472.2,1148.0,1431.4,1998.5,2576.6,1580.5,3499.0,3473.4,3472.2,653.8,791.9,1391.2,871.3,845.3,719.2,4.0,0.0,-8.0,10890.0,-12142.0,1536.0,-211.0,-9.0,6.0,1.0,6.0,4.0,-7.0,4030.0,-9485.0,-11070.0,6299.0,-9.0,0.0,4.0,1.0
2022-05-13 15:53:36.115471-07:00,1071.2,721.6,892.4,851.1,719.2,671.7,1585.2,1122.6,3469.8,3473.4,1000.5,862.1,1430.5,3478.3,1148.9,1079.9,3475.9,3473.4,1137.5,1445.1,1998.5,2576.6,1580.5,3499.0,3469.8,3469.8,647.3,791.0,1391.2,871.3,845.3,719.2,0.0,0.0,-12.0,10890.0,-12142.0,1536.0,-211.0,6.0,4.0,-2.0,0.0,7.0,-6.0,4030.0,-9485.0,-11070.0,6299.0,5.0,6.0,4.0,1.0
2022-05-13 15:53:36.162770-07:00,1075.6,720.0,887.3,853.7,719.2,671.7,1585.2,1122.6,3468.6,3461.3,1004.8,851.1,1430.5,3478.3,1148.9,1079.9,3475.9,3473.4,1137.5,1445.1,1994.5,2602.6,1574.9,3486.8,3469.8,3469.8,647.3,791.0,1383.9,878.9,845.3,716.7,2.0,-4.0,-14.0,10889.0,-12143.0,1536.0,-211.0,-10.0,-2.0,1.0,4.0,5.0,-11.0,4029.0,-9485.0,-11071.0,6298.0,-11.0,-1.0,4.0,1.0
2022-05-13 15:53:36.206479-07:00,1075.6,720.0,887.3,853.7,717.5,685.6,1582.4,1125.2,3468.6,3461.3,1004.8,851.1,1436.0,3469.8,1147.1,1079.9,3473.4,3479.5,1142.7,1452.5,1994.5,2602.6,1574.9,3486.8,3475.9,3472.2,653.8,791.0,1383.9,878.9,845.3,716.7,4.0,1.0,-8.0,10889.0,-12143.0,1536.0,-211.0,0.0,2.0,-3.0,7.0,11.0,-7.0,4029.0,-9485.0,-11071.0,6298.0,1.0,-3.0,2.0,1.0
2022-05-13 15:53:36.296495-07:00,1070.3,717.5,904.2,853.7,717.5,685.6,1582.4,1127.0,3463.7,3468.6,1004.8,855.3,1436.0,3469.8,1147.1,1083.4,3474.6,3479.5,1142.7,1452.5,2011.4,2605.8,1578.6,3494.1,3474.6,3472.2,653.8,791.0,1397.6,900.0,847.0,737.3,5.0,-4.0,-6.0,10889.0,-12143.0,1536.0,-211.0,-3.0,-2.0,2.0,3.0,3.0,-5.0,4029.0,-9485.0,-11071.0,6298.0,-2.0,2.0,2.0,1.0
2022-05-13 15:53:36.342259-07:00,1077.3,717.5,904.2,853.7,711.8,681.5,1587.1,1127.0,3477.1,3468.6,1004.8,855.3,1420.4,3467.4,1151.5,1083.4,3474.6,3469.8,1153.3,1428.6,2011.4,2605.8,1578.6,3502.7,3474.6,3481.9,657.0,793.5,1397.6,900.0,847.0,720.8,2.0,-2.0,-6.0,10889.0,-12143.0,1536.0,-211.0,1.0,0.0,-4.0,3.0,7.0,-9.0,4029.0,-9485.0,-11071.0,6298.0,1.0,0.0,-1.0,1.0
2022-05-13 15:53:36.387393-07:00,1077.3,722.5,900.0,853.7,711.8,681.5,1587.1,1117.4,3477.1,3474.6,1008.2,856.2,1420.4,3467.4,1151.5,1081.6,3479.5,3469.8,1153.3,1428.6,1997.5,2598.3,1582.4,3502.7,3480.7,3481.9,657.0,793.5,1397.6,875.5,844.4,720.8,1.0,-2.0,-12.0,10889.0,-12143.0,1536.0,-211.0,-1.0,-3.0,2.0,3.0,7.0,-9.0,4029.0,-9485.0,-11071.0,6298.0,-6.0,4.0,2.0,1.0
2022-05-13 15:53:36.432310-07:00,1071.2,722.5,900.0,853.7,715.1,684.0,1579.6,1117.4,3467.4,3474.6,1008.2,856.2,1430.5,3467.4,1147.1,1081.6,3479.5,3472.2,1141.9,1445.1,1997.5,2598.3,1582.4,3497.8,3480.7,3484.4,655.4,793.5,1397.6,875.5,844.4,720.0,4.0,3.0,-9.0,10889.0,-12143.0,1536.0,-211.0,7.0,0.0,-9.0,5.0,6.0,-6.0,4030.0,-9485.0,-11071.0,6299.0,10.0,-2.0,-2.0,1.0
2022-05-13 15:53:36.477250-07:00,1071.2,717.5,894.9,857.9,715.1,684.0,1579.6,1121.7,3467.4,3473.4,1001.3,858.7,1430.5,3467.4,1147.1,1084.2,3481.9,3472.2,1141.9,1445.1,2000.5,2593.9,1574.9,3497.8,3471.0,3484.4,655.4,793.5,1390.3,878.0,843.6,720.0,0.0,0.0,-2.0,10890.0,-12143.0,1532.0,-214.0,6.0,-1.0,-12.0,4.0,8.0,-6.0,4031.0,-9484.0,-11069.0,6301.0,4.0,-2.0,0.0,1.0
2022-05-13 15:53:36.523010-07:00,1060.8,716.7,894.9,857.9,715.1,676.6,1581.4,1121.7,3467.4,3473.4,1001.3,858.7,1440.5,3468.6,1150.6,1084.2,3481.9,3478.3,1148.0,1436.0,2000.5,2593.9,1576.8,3484.4,3471.0,3464.9,657.0,797.7,1390.3,878.0,840.3,722.5,4.0,6.0,-4.0,10889.0,-12144.0,1530.0,-223.0,6.0,21.0,-23.0,5.0,6.0,-10.0,4033.0,-9483.0,-11068.0,6303.0,14.0,-1.0,2.0,1.0
2022-05-13 15:53:36.659693-07:00,1060.8,716.7,889.0,851.1,715.1,676.6,1581.4,1120.9,3467.4,3473.4,1015.1,856.2,1440.5,3468.6,1148.0,1081.6,3467.4,3475.9,1148.0,1436.0,2005.5,2605.8,1576.8,3484.4,3478.3,3483.2,657.0,797.7,1388.5,876.4,840.3,722.5,1.0,4.0,-20.0,10890.0,-12143.0,1526.0,-239.0,15.0,9.0,-30.0,5.0,9.0,-10.0,4036.0,-9482.0,-11066.0,6307.0,4.0,6.0,3.0,1.0
2022-05-13 15:53:36.660765-07:00,1065.1,726.6,889.0,851.1,723.3,679.1,1581.4,1120.9,3469.8,3462.5,1015.1,856.2,1434.1,3467.4,1148.0,1081.6,3467.4,3475.9,1149.8,1444.2,2005.5,2605.8,1573.9,3477.1,3478.3,3483.2,662.7,796.9,1388.5,876.4,847.0,724.1,3.0,-8.0,-12.0,10887.0,-12147.0,1510.0,-242.0,7.0,-20.0,-29.0,5.0,6.0,-12.0,4036.0,-9482.0,-11066.0,6307.0,12.0,-4.0,-5.0,1.0
2022-05-13 15:53:36.661774-07:00,1065.1,726.6,891.5,857.0,723.3,679.1,1580.5,1131.4,3469.8,3462.5,1006.5,858.7,1434.1,3467.4,1150.6,1081.6,3464.9,3473.4,1149.8,1444.2,2007.4,2602.6,1573.9,3477.1,3457.6,3472.2,662.7,796.9,1388.5,885.6,847.0,724.1,1.0,1.0,-8.0,10890.0,-12146.0,1500.0,-235.0,-5.0,-34.0,0.0,3.0,6.0,-7.0,4038.0,-9481.0,-11065.0,6309.0,-4.0,-3.0,-5.0,1.0
2022-05-13 15:53:36.763581-07:00,1073.8,720.0,891.5,857.0,711.8,679.1,1580.5,1131.4,3466.1,3467.4,1006.5,858.7,1430.5,3474.6,1150.6,1081.6,3464.9,3473.4,1152.4,1441.5,2007.4,2602.6,1579.6,3491.7,3457.6,3472.2,649.7,796.9,1388.5,885.6,844.4,710.1,4.0,-3.0,-5.0,10893.0,-12145.0,1492.0,-226.0,11.0,-23.0,0.0,5.0,7.0,-6.0,4039.0,-9481.0,-11064.0,6310.0,4.0,4.0,0.0,1.0
2022-05-13 15:53:36.792927-07:00,1073.8,720.0,889.8,859.5,711.8,681.5,1584.2,1148.0,3466.1,3467.4,1008.2,855.3,1430.5,3475.9,1155.9,1084.2,3464.9,3478.3,1147.1,1441.5,2008.4,2600.4,1579.6,3491.7,3469.8,3477.1,648.1,796.9,1394.8,878.0,844.4,710.1,0.0,2.0,-6.0,10896.0,-12143.0,1489.0,-224.0,11.0,-7.0,3.0,4.0,10.0,-7.0,4040.0,-9481.0,-11064.0,6311.0,2.0,3.0,5.0,1.0
2022-05-13 15:53:36.881211-07:00,1072.1,723.3,893.2,859.5,721.6,681.5,1584.2,1148.0,3478.3,3467.4,1007.3,855.3,1438.7,3475.9,1155.9,1084.2,3464.9,3478.3,1147.1,1440.5,2008.4,2601.5,1576.8,3505.1,3469.8,3477.1,648.1,791.0,1394.8,880.6,842.8,719.2,-1.0,0.0,-9.0,10893.0,-12146.0,1488.0,-223.0,-15.0,-9.0,-2.0,3.0,9.0,-9.0,4037.0,-9482.0,-11065.0,6308.0,-7.0,5.0,2.0,1.0
2022-05-13 15:53:36.884130-07:00,1072.1,723.3,893.2,852.8,721.6,681.5,1589.9,1120.9,3478.3,3467.4,1007.3,857.0,1438.7,3467.4,1147.1,1082.5,3480.7,3467.4,1137.5,1440.5,2011.4,2601.5,1576.8,3505.1,3467.4,3469.8,653.0,791.0,1394.8,880.6,842.8,719.2,6.0,5.0,-12.0,10893.0,-12145.0,1488.0,-223.0,5.0,-1.0,-9.0,7.0,7.0,-12.0,4037.0,-9482.0,-11065.0,6308.0,2.0,-2.0,0.0,1.0
2022-05-13 15:53:36.927577-07:00,1072.1,716.7,894.9,852.8,714.2,681.5,1589.9,1120.9,3471.0,3469.8,1011.6,857.0,1436.0,3467.4,1147.1,1082.5,3480.7,3467.4,1137.5,1448.8,2011.4,2610.2,1577.7,3495.3,3467.4,3469.8,653.0,798.5,1394.8,877.2,839.4,723.3,5.0,-5.0,-9.0,10892.0,-12147.0,1484.0,-224.0,3.0,-12.0,0.0,8.0,5.0,-7.0,4037.0,-9482.0,-11065.0,6308.0,2.0,-2.0,1.0,1.0
2022-05-13 15:53:37.061432-07:00,1072.1,716.7,894.9,855.3,714.2,686.4,1586.1,1127.0,3471.0,3469.8,1011.6,859.5,1436.0,3473.4,1150.6,1073.8,3466.1,3466.1,1145.4,1448.8,2004.5,2610.2,1577.7,3495.3,3472.2,3474.6,654.6,798.5,1392.1,877.2,839.4,723.3,0.0,0.0,-5.0,10892.0,-12147.0,1482.0,-222.0,-3.0,-11.0,-3.0,3.0,5.0,-4.0,4037.0,-9482.0,-11065.0,6308.0,-2.0,0.0,-1.0,1.0
2022-05-13 15:53:37.062865-07:00,1075.6,728.2,895.7,855.3,713.4,686.4,1586.1,1127.0,3471.0,3468.6,1006.5,859.5,1435.0,3473.4,1150.6,1073.8,3466.1,3466.1,1145.4,1442.4,2004.5,2606.9,1572.1,3489.2,3472.2,3474.6,654.6,796.0,1392.1,876.4,853.7,715.9,-2.0,0.0,-7.0,10892.0,-12147.0,1481.0,-221.0,8.0,2.0,-3.0,2.0,9.0,-8.0,4038.0,-9481.0,-11065.0,6308.0,11.0,2.0,0.0,1.0
2022-05-13 15:53:37.063951-07:00,1075.6,728.2,895.7,858.7,718.4,679.9,1584.2,1119.1,3471.0,3468.6,1006.5,856.2,1431.4,3471.0,1148.0,1087.7,3480.7,3475.9,1143.6,1445.1,1998.5,2606.9,1572.1,3489.2,3467.4,3483.2,646.5,797.7,1390.3,876.4,853.7,715.9,5.0,-2.0,-10.0,10890.0,-12149.0,1481.0,-221.0,-10.0,-6.0,2.0,6.0,5.0,-8.0,4037.0,-9482.0,-11066.0,6307.0,-12.0,-1.0,2.0,1.0
2022-05-13 15:53:37.106511-07:00,1067.7,714.2,889.8,854.5,718.4,679.9,1584.2,1119.1,3461.3,3469.8,995.3,858.7,1431.4,3471.0,1148.0,1087.7,3480.7,3475.9,1143.6,1445.1,2005.5,2603.7,1577.7,3494.1,3467.4,3483.2,646.5,797.7,1388.5,875.5,845.3,718.4,0.0,0.0,-7.0,10889.0,-12150.0,1481.0,-221.0,-1.0,-6.0,-4.0,5.0,5.0,-9.0,4037.0,-9482.0,-11066.0,6307.0,-3.0,0.0,-1.0,1.0
2022-05-13 15:53:37.197524-07:00,1067.7,714.2,889.8,854.5,716.7,685.6,1573.9,1119.1,3461.3,3469.8,995.3,858.7,1437.8,3457.6,1146.3,1085.1,3480.7,3483.2,1141.0,1448.8,2005.5,2603.7,1577.7,3494.1,3478.3,3474.6,649.7,794.4,1388.5,875.5,845.3,718.4,1.0,0.0,-6.0,10889.0,-12150.0,1481.0,-221.0,-8.0,-3.0,4.0,3.0,5.0,-9.0,4037.0,-9482.0,-11066.0,6307.0,-5.0,1.0,2.0,1.0
2022-05-13 15:53:37.198925-07:00,1067.7,722.5,889.0,855.3,716.7,685.6,1573.9,1119.1,3464.9,3464.9,1000.5,858.7,1437.8,3457.6,1146.3,1085.1,3480.7,3483.2,1141.0,1448.8,2006.4,2604.8,1574.9,3495.3,3478.3,3474.6,649.7,794.4,1390.3,870.5,841.9,717.5,5.0,1.0,-10.0,10888.0,-12151.0,1481.0,-221.0,1.0,0.0,-5.0,6.0,8.0,-8.0,4037.0,-9482.0,-11066.0,6307.0,8.0,-3.0,-1.0,1.0
2022-05-13 15:53:37.285348-07:00,1067.7,722.5,889.0,855.3,718.4,686.4,1571.1,1112.1,3464.9,3464.9,1000.5,858.7,1436.0,3468.6,1149.8,1079.0,3479.5,3474.6,1150.6,1447.0,2006.4,2604.8,1574.9,3495.3,3464.9,3469.8,655.4,798.5,1390.3,870.5,841.9,717.5,4.0,0.0,-11.0,10890.0,-12150.0,1479.0,-220.0,8.0,-14.0,-6.0,6.0,9.0,-7.0,4037.0,-9482.0,-11065.0,6308.0,6.0,-5.0,-5.0,1.0
2022-05-13 15:53:37.332268-07:00,1068.6,728.2,891.5,848.6,718.4,686.4,1571.1,1127.0,3466.1,3469.8,1006.5,850.3,1436.0,3468.6,1149.8,1084.2,3480.7,3474.6,1150.6,1447.0,2001.5,2603.7,1576.8,3496.6,3483.2,3469.8,655.4,798.5,1386.6,872.1,841.9,720.8,0.0,-3.0,-6.0,10890.0,-12150.0,1474.0,-215.0,3.0,-17.0,-3.0,5.0,5.0,-7.0,4037.0,-9482.0,-11065.0,6308.0,8.0,-2.0,-4.0,1.0
2022-05-13 15:53:37.376325-07:00,1061.7,728.2,891.5,848.6,720.0,685.6,1580.5,1127.0,3462.5,3469.8,1006.5,850.3,1432.3,3456.4,1147.1,1084.2,3480.7,3469.8,1144.5,1445.1,2001.5,2603.7,1576.8,3495.3,3483.2,3468.6,642.4,800.2,1386.6,872.1,841.9,716.7,2.0,0.0,-1.0,10890.0,-12151.0,1472.0,-213.0,-6.0,1.0,-3.0,3.0,4.0,-8.0,4038.0,-9481.0,-11065.0,6308.0,-4.0,0.0,0.0,1.0
2022-05-13 15:53:37.422490-07:00,1061.7,723.3,899.1,847.0,720.0,685.6,1580.5,1111.2,3462.5,3478.3,1003.9,861.2,1432.3,3456.4,1147.1,1086.0,3473.4,3469.8,1144.5,1445.1,2000.5,2600.4,1576.8,3495.3,3474.6,3468.6,642.4,800.2,1381.2,875.5,842.8,716.7,0.0,0.0,-5.0,10889.0,-12151.0,1472.0,-213.0,-3.0,0.0,-7.0,4.0,7.0,-6.0,4038.0,-9481.0,-11065.0,6308.0,0.0,5.0,0.0,1.0
2022-05-13 15:53:37.467267-07:00,1066.0,723.3,899.1,847.0,711.8,684.0,1588.0,1111.2,3474.6,3478.3,1003.9,861.2,1430.5,3471.0,1150.6,1086.0,3473.4,3477.1,1148.0,1442.4,2000.5,2600.4,1576.8,3501.4,3474.6,3479.5,655.4,791.0,1381.2,875.5,842.8,725.8,-1.0,-2.0,-10.0,10886.0,-12154.0,1472.0,-213.0,-13.0,-2.0,1.0,1.0,6.0,-10.0,4036.0,-9482.0,-11066.0,6307.0,-9.0,-1.0,0.0,1.0
2022-05-13 15:53:37.510364-07:00,1066.0,727.4,889.8,876.4,711.8,684.0,1588.0,1110.4,3474.6,3467.4,1004.8,863.7,1430.5,3471.0,1150.6,1080.8,3479.5,3477.1,1148.0,1442.4,2002.5,2601.5,1579.6,3501.4,3474.6,3479.5,655.4,791.0,1387.5,881.4,834.4,725.8,1.0,4.0,-12.0,10884.0,-12156.0,1471.0,-213.0,6.0,-1.0,-13.0,6.0,9.0,-6.0,4036.0,-9482.0,-11066.0,6307.0,2.0,0.0,-7.0,1.0
2022-05-13 15:53:37.557966-07:00,1062.5,720.0,889.8,876.4,717.5,674.2,1584.2,1110.4,3467.4,3473.4,1004.8,863.7,1434.1,3462.5,1148.9,1080.8,3479.5,3480.7,1154.2,1440.5,2002.5,2601.5,1572.1,3494.1,3474.6,3473.4,648.1,797.7,1387.5,881.4,842.8,711.8,4.0,-1.0,-5.0,10881.0,-12159.0,1467.0,-211.0,-13.0,-11.0,1.0,10.0,5.0,-9.0,4034.0,-9483.0,-11068.0,6304.0,-9.0,-5.0,-4.0,1.0
2022-05-13 15:53:37.602251-07:00,1062.5,720.0,884.8,855.3,717.5,674.2,1585.2,1110.4,3467.4,3473.4,1008.2,854.5,1434.1,3462.5,1144.5,1081.6,3472.2,3480.7,1154.2,1440.5,2005.5,2606.9,1572.1,3494.1,3474.6,3480.7,648.1,797.7,1388.5,878.9,842.8,711.8,2.0,0.0,-3.0,10881.0,-12159.0,1467.0,-211.0,-3.0,-9.0,-5.0,7.0,6.0,-8.0,4034.0,-9483.0,-11068.0,6304.0,-5.0,0.0,-1.0,1.0
2022-05-13 15:53:37.691323-07:00,1066.0,729.0,884.8,855.3,724.9,684.0,1585.2,1110.4,3468.6,3471.0,1008.2,854.5,1435.0,3469.8,1144.5,1081.6,3472.2,3480.7,1149.8,1435.0,2005.5,2606.9,1573.9,3494.1,3474.6,3480.7,653.8,794.4,1388.5,878.9,842.8,722.5,0.0,1.0,-5.0,10881.0,-12159.0,1467.0,-211.0,9.0,-2.0,3.0,5.0,6.0,-7.0,4034.0,-9483.0,-11068.0,6304.0,5.0,5.0,0.0,1.0
2022-05-13 15:53:37.736189-07:00,1066.0,729.0,884.8,849.5,724.9,684.0,1586.1,1126.1,3468.6,3471.0,1002.2,854.5,1435.0,3469.8,1146.3,1074.7,3475.9,3477.1,1149.8,1435.0,2011.4,2603.7,1573.9,3494.1,3468.6,3477.1,653.8,794.4,1390.3,886.5,842.8,722.5,1.0,-3.0,-8.0,10879.0,-12161.0,1467.0,-211.0,-10.0,4.0,-3.0,4.0,5.0,-6.0,4033.0,-9484.0,-11068.0,6303.0,-8.0,-1.0,-1.0,1.0
2022-05-13 15:53:37.826901-07:00,1059.1,719.2,884.8,849.5,723.3,681.5,1586.1,1126.1,3468.6,3468.6,1002.2,854.5,1425.9,3469.8,1146.3,1074.7,3475.9,3477.1,1140.1,1440.5,2011.4,2603.7,1576.8,3491.7,3468.6,3477.1,656.2,795.2,1390.3,886.5,846.1,724.1,1.0,2.0,-10.0,10879.0,-12161.0,1467.0,-211.0,-1.0,-4.0,-5.0,4.0,8.0,-8.0,4033.0,-9484.0,-11068.0,6303.0,-5.0,-2.0,-3.0,1.0
2022-05-13 15:53:37.828098-07:00,1059.1,719.2,892.4,857.9,723.3,679.9,1575.8,1123.5,3468.6,3468.6,1003.9,863.7,1425.9,3466.1,1142.7,1079.9,3473.4,3467.4,1148.0,1440.5,2027.4,2596.1,1576.8,3491.7,3466.1,3472.2,653.8,795.2,1389.4,877.2,846.1,724.1,0.0,0.0,-5.0,10880.0,-12161.0,1464.0,-207.0,0.0,-13.0,0.0,4.0,6.0,-10.0,4032.0,-9484.0,-11069.0,6302.0,-2.0,-2.0,-3.0,1.0
2022-05-13 15:53:37.870335-07:00,1071.2,715.1,895.7,857.9,717.5,679.9,1575.8,1123.5,3474.6,3469.8,1006.5,863.7,1435.0,3466.1,1142.7,1079.9,3473.4,3467.4,1148.0,1447.0,2027.4,2610.2,1574.9,3486.8,3466.1,3472.2,653.8,792.7,1389.4,878.9,844.4,718.4,5.0,0.0,-2.0,10880.0,-12161.0,1463.0,-206.0,5.0,2.0,-3.0,7.0,4.0,-4.0,4032.0,-9484.0,-11069.0,6302.0,5.0,3.0,-2.0,1.0
2022-05-13 15:53:37.915493-07:00,1071.2,715.1,895.7,857.0,717.5,684.0,1574.9,1119.1,3474.6,3469.8,1006.5,857.0,1435.0,3462.5,1147.1,1084.2,3474.6,3467.4,1147.1,1447.0,2003.5,2610.2,1574.9,3486.8,3472.2,3471.0,655.4,792.7,1393.0,878.9,844.4,718.4,4.0,0.0,-8.0,10880.0,-12160.0,1463.0,-206.0,-15.0,-2.0,1.0,8.0,9.0,-11.0,4032.0,-9484.0,-11069.0,6301.0,-13.0,0.0,3.0,1.0
2022-05-13 15:53:38.007115-07:00,1066.0,724.1,887.3,857.0,720.8,684.0,1574.9,1119.1,3469.8,3469.8,998.7,857.0,1430.5,3462.5,1147.1,1084.2,3474.6,3467.4,1147.1,1441.5,2003.5,2602.6,1576.8,3492.9,3472.2,3471.0,655.4,793.5,1393.0,878.9,844.4,720.0,2.0,0.0,-10.0,10880.0,-12161.0,1463.0,-208.0,12.0,4.0,-10.0,7.0,8.0,-6.0,4032.0,-9484.0,-11069.0,6302.0,10.0,3.0,0.0,1.0
2022-05-13 15:53:38.008717-07:00,1066.0,724.1,887.3,853.7,720.8,678.2,1573.9,1120.9,3469.8,3469.8,998.7,849.5,1430.5,3478.3,1146.3,1080.8,3467.4,3469.8,1148.0,1441.5,2002.5,2602.6,1576.8,3492.9,3475.9,3477.1,647.3,793.5,1390.3,878.9,844.4,720.0,4.0,2.0,-8.0,10879.0,-12162.0,1463.0,-208.0,-9.0,0.0,7.0,7.0,8.0,-9.0,4031.0,-9484.0,-11069.0,6301.0,-4.0,-2.0,3.0,1.0
2022-05-13 15:53:38.096786-07:00,1061.7,724.9,890.7,853.7,724.9,678.2,1573.9,1120.9,3468.6,3468.6,1007.3,849.5,1431.4,3478.3,1146.3,1080.8,3467.4,3469.8,1148.0,1442.4,2002.5,2602.6,1573.9,3494.1,3475.9,3477.1,647.3,791.9,1390.3,878.0,849.5,715.1,2.0,2.0,-12.0,10882.0,-12159.0,1462.0,-209.0,17.0,2.0,-15.0,7.0,9.0,-7.0,4034.0,-9483.0,-11068.0,6304.0,17.0,-1.0,-4.0,1.0
2022-05-13 15:53:38.098461-07:00,1061.7,724.9,890.7,851.1,720.8,679.1,1566.5,1111.2,3468.6,3468.6,1007.3,857.9,1425.0,3468.6,1143.6,1080.8,3479.5,3472.2,1148.9,1445.1,2004.5,2602.6,1573.9,3494.1,3478.3,3471.0,646.5,789.4,1398.5,878.0,849.5,715.1,-4.0,-6.0,-14.0,10882.0,-12159.0,1457.0,-214.0,-1.0,-5.0,-14.0,4.0,5.0,-7.0,4036.0,-9482.0,-11066.0,6306.0,-2.0,-13.0,-7.0,1.0
2022-05-13 15:53:38.184720-07:00,1064.3,714.2,879.7,857.0,720.8,679.1,1566.5,1111.2,3463.7,3469.8,1001.3,860.4,1425.0,3468.6,1143.6,1080.8,3479.5,3472.2,1148.9,1445.1,2009.4,2605.8,1573.0,3491.7,3478.3,3471.0,646.5,789.4,1390.3,873.0,837.7,719.2,7.0,4.0,2.0,10883.0,-12159.0,1452.0,-203.0,-6.0,-16.0,12.0,7.0,5.0,-8.0,4033.0,-9481.0,-11067.0,6308.0,-3.0,-8.0,0.0,1.0
2022-05-13 15:53:38.232276-07:00,1064.3,714.2,879.7,857.0,720.0,686.4,1584.2,1117.4,3463.7,3469.8,1001.3,860.4,1436.9,3466.1,1146.3,1082.5,3471.0,3471.0,1150.6,1448.8,2009.4,2605.8,1573.0,3491.7,3480.7,3472.2,655.4,795.2,1390.3,873.0,837.7,719.2,1.0,-8.0,-9.0,10884.0,-12158.0,1453.0,-204.0,9.0,-2.0,-2.0,7.0,4.0,-7.0,4033.0,-9481.0,-11067.0,6308.0,0.0,3.0,3.0,1.0
2022-05-13 15:53:38.278144-07:00,1066.9,729.0,904.2,856.2,720.0,686.4,1584.2,1117.4,3472.2,3469.8,997.9,854.5,1436.9,3466.1,1146.3,1082.5,3471.0,3471.0,1150.6,1448.8,2006.4,2591.8,1572.1,3491.7,3480.7,3472.2,655.4,795.2,1383.9,874.7,844.4,718.4,2.0,5.0,-3.0,10883.0,-12159.0,1457.0,-201.0,-6.0,10.0,11.0,7.0,7.0,-8.0,4032.0,-9481.0,-11068.0,6307.0,-3.0,3.0,7.0,1.0
2022-05-13 15:53:38.322396-07:00,1066.9,729.0,904.2,856.2,715.1,682.3,1577.7,1118.2,3472.2,3469.8,997.9,854.5,1429.5,3466.1,1144.5,1081.6,3477.1,3471.0,1143.6,1437.8,2006.4,2591.8,1572.1,3491.7,3477.1,3475.9,644.9,791.0,1383.9,874.7,844.4,718.4,0.0,-6.0,-12.0,10885.0,-12157.0,1458.0,-202.0,4.0,1.0,-3.0,3.0,8.0,-10.0,4033.0,-9481.0,-11068.0,6308.0,4.0,2.0,4.0,1.0
2022-05-13 15:53:38.366560-07:00,1057.3,719.2,889.8,852.8,715.1,682.3,1577.7,1123.5,3471.0,3479.5,1001.3,859.5,1429.5,3466.1,1144.5,1083.4,3469.8,3471.0,1143.6,1437.8,2007.4,2603.7,1577.7,3491.7,3478.3,3475.9,644.9,791.0,1391.2,878.0,841.1,714.2,4.0,2.0,-15.0,10885.0,-12157.0,1458.0,-202.0,0.0,-4.0,5.0,8.0,9.0,-11.0,4033.0,-9481.0,-11068.0,6308.0,2.0,-2.0,2.0,1.0
2022-05-13 15:53:38.412410-07:00,1066.9,719.2,889.8,852.8,722.5,680.7,1581.4,1123.5,3478.3,3479.5,1001.3,859.5,1431.4,3464.9,1147.1,1083.4,3469.8,3480.7,1147.1,1452.5,2007.4,2603.7,1577.7,3499.0,3478.3,3472.2,653.8,792.7,1391.2,878.0,841.1,716.7,3.0,2.0,-9.0,10889.0,-12154.0,1455.0,-199.0,15.0,-11.0,-6.0,6.0,9.0,-10.0,4035.0,-9480.0,-11066.0,6310.0,12.0,-9.0,-4.0,1.0
2022-05-13 15:53:38.455320-07:00,1066.9,718.4,892.4,862.1,722.5,680.7,1581.4,1112.1,3478.3,3468.6,1003.9,866.3,1431.4,3464.9,1147.1,1079.9,3478.3,3480.7,1147.1,1452.5,2007.4,2602.6,1570.2,3499.0,3474.6,3472.2,653.8,792.7,1386.6,877.2,836.9,716.7,0.0,-4.0,-1.0,10889.0,-12154.0,1451.0,-197.0,0.0,-7.0,-1.0,4.0,3.0,-4.0,4035.0,-9480.0,-11066.0,6311.0,1.0,-4.0,3.0,1.0
2022-05-13 15:53:38.502768-07:00,1068.6,718.4,892.4,862.1,725.8,680.7,1580.5,1112.1,3473.4,3468.6,1003.9,866.3,1431.4,3471.0,1141.0,1079.9,3478.3,3475.9,1145.4,1440.5,2007.4,2602.6,1570.2,3494.1,3474.6,3481.9,648.1,792.7,1386.6,877.2,836.9,715.1,2.0,-3.0,1.0,10888.0,-12154.0,1453.0,-199.0,-10.0,21.0,9.0,5.0,8.0,-6.0,4035.0,-9480.0,-11066.0,6311.0,2.0,0.0,5.0,1.0
2022-05-13 15:53:38.547191-07:00,1068.6,720.0,900.8,843.6,725.8,680.7,1580.5,1119.1,3473.4,3467.4,1005.6,865.4,1431.4,3471.0,1141.0,1080.8,3479.5,3475.9,1145.4,1440.5,1998.5,2606.9,1572.1,3494.1,3467.4,3481.9,648.1,792.7,1380.3,883.1,848.6,715.1,-5.0,-34.0,-18.0,10882.0,-12156.0,1494.0,-197.0,23.0,62.0,135.0,6.0,-18.0,2.0,4052.0,-9475.0,-11050.0,6334.0,194.0,2.0,26.0,1.0
2022-05-13 15:53:38.637797-07:00,1071.2,724.9,900.8,843.6,722.5,684.8,1592.7,1119.1,3475.9,3475.9,1005.6,865.4,1424.1,3467.4,1148.9,1080.8,3479.5,3467.4,1154.2,1439.6,1998.5,2606.9,1615.2,3492.9,3467.4,3473.4,660.3,800.2,1380.3,883.1,838.6,711.8,30.0,-37.0,9.0,10889.0,-12134.0,1606.0,-198.0,197.0,413.0,254.0,-3.0,-5.0,-46.0,4121.0,-9453.0,-10988.0,6431.0,466.0,-16.0,54.0,1.0
2022-05-13 15:53:38.726014-07:00,1071.2,724.9,891.5,858.7,722.5,684.8,2216.8,1283.7,3475.9,3475.9,1073.8,890.7,1424.1,3467.4,1149.8,1085.1,3479.5,3479.5,1154.2,1439.6,2004.5,2601.5,1615.2,3492.9,3483.2,3474.6,660.3,800.2,1389.4,882.3,838.6,711.8,8.0,4.0,-21.0,11041.0,-11953.0,1885.0,-336.0,774.0,621.0,367.0,8.0,-18.0,8.0,4278.0,-9381.0,-10859.0,6649.0,774.0,-19.0,57.0,1.0
2022-05-13 15:53:38.727263-07:00,1081.6,733.2,891.5,858.7,720.0,686.4,2216.8,1283.7,3467.4,3464.9,1073.8,890.7,1442.4,3473.4,1149.8,1085.1,3479.5,3479.5,1154.2,1447.0,2004.5,2601.5,1667.2,3492.9,3483.2,3474.6,706.9,836.9,1389.4,882.3,834.4,715.9,-20.0,62.0,-51.0,11111.0,-11844.0,2124.0,-421.0,-152.0,401.0,238.0,-1.0,28.0,9.0,4374.0,-9346.0,-10763.0,6791.0,136.0,1.0,46.0,1.0
2022-05-13 15:53:38.770596-07:00,1081.6,733.2,901.7,848.6,720.0,686.4,2326.4,1583.3,3467.4,3464.9,1263.1,1015.1,1442.4,3473.4,1207.1,1121.7,3475.9,3483.2,1154.2,1447.0,2011.4,2600.4,1667.2,3492.9,3488.0,3479.5,706.9,836.9,1394.8,876.4,834.4,715.9,13.0,-41.0,1.0,10940.0,-11980.0,2250.0,-410.0,-632.0,167.0,133.0,6.0,-2.0,-10.0,4315.0,-9368.0,-10792.0,6753.0,-313.0,-43.0,35.0,1.0
2022-05-13 15:53:38.997174-07:00,1087.7,732.3,901.7,848.6,718.4,709.3,2326.4,1583.3,3462.5,3475.9,1263.1,1015.1,1474.6,3473.4,1207.1,1121.7,3475.9,3483.2,1152.4,1458.9,2011.4,2600.4,1627.5,3495.3,3488.0,3479.5,721.6,869.6,1394.8,876.4,833.6,731.5,29.0,120.0,4.0,10846.0,-12048.0,2331.0,-444.0,-225.0,229.0,-113.0,2.0,54.0,-20.0,4287.0,-9371.0,-10802.0,6749.0,54.0,-42.0,10.0,1.0
2022-05-13 15:53:38.999395-07:00,1087.7,732.3,894.1,855.3,718.4,755.4,2336.8,1619.9,3462.5,3475.9,1307.9,1021.9,1474.6,3473.4,1306.1,1208.0,3473.4,3475.9,1159.4,1458.9,2036.4,2612.3,1627.5,3495.3,3467.4,3471.0,741.4,869.6,1390.3,871.3,833.6,731.5,-19.0,-80.0,12.0,10716.0,-12154.0,2349.0,-608.0,-304.0,369.0,-285.0,-1.0,-2.0,0.0,4256.0,-9370.0,-10826.0,6732.0,-117.0,-36.0,-14.0,1.0
2022-05-13 15:53:39.000468-07:00,1095.6,752.9,889.0,855.3,713.4,755.4,2336.8,1619.9,3474.6,3469.8,1291.8,1021.9,1507.8,3473.4,1306.1,1208.0,3473.4,3475.9,1159.4,1465.4,2036.4,2609.1,1605.8,3494.1,3467.4,3471.0,741.4,963.7,1390.3,872.1,835.2,735.6,-26.0,-25.0,-74.0,10673.0,-12170.0,2411.0,-780.0,119.0,348.0,-165.0,16.0,-42.0,34.0,4256.0,-9362.0,-10817.0,6759.0,60.0,-22.0,58.0,1.0
2022-05-13 15:53:39.001511-07:00,1095.6,752.9,889.0,859.5,713.4,783.6,2286.9,1635.0,3474.6,3469.8,1291.8,1016.8,1507.8,3468.6,1343.1,1328.7,3467.4,3474.6,1132.2,1465.4,2049.4,2609.1,1605.8,3494.1,3467.4,3474.6,745.5,963.7,1383.9,872.1,835.2,735.6,7.0,33.0,-58.0,10659.0,-12193.0,2342.0,-820.0,-279.0,-183.0,-213.0,7.0,45.0,-33.0,4226.0,-9375.0,-10820.0,6755.0,-273.0,-46.0,2.0,1.0
2022-05-13 15:53:39.044597-07:00,1086.8,737.3,888.2,859.5,714.2,783.6,2286.9,1635.0,3466.1,3464.9,1263.1,1016.8,1636.0,3468.6,1343.1,1328.7,3467.4,3474.6,1132.2,1470.9,2049.4,2612.3,1578.6,3496.6,3467.4,3474.6,745.5,962.8,1383.9,884.8,839.4,778.6,-4.0,-29.0,-4.0,10599.0,-12254.0,2286.0,-841.0,48.0,52.0,-125.0,7.0,-29.0,4.0,4153.0,-9389.0,-10872.0,6695.0,-68.0,-34.0,0.0,1.0
2022-05-13 15:53:39.045804-07:00,1086.8,737.3,888.2,853.7,714.2,784.4,2202.4,1646.4,3466.1,3464.9,1263.1,1007.3,1636.0,3471.0,1367.6,1369.4,3468.6,3474.6,1154.2,1470.9,2052.4,2612.3,1578.6,3496.6,3467.4,3473.4,752.1,962.8,1389.4,884.8,839.4,778.6,13.0,3.0,-5.0,10603.0,-12252.0,2274.0,-853.0,-110.0,-35.0,-12.0,3.0,44.0,5.0,4154.0,-9384.0,-10872.0,6701.0,-93.0,-7.0,-17.0,1.0
2022-05-13 15:53:39.131558-07:00,1090.3,747.2,897.4,853.7,717.5,784.4,2202.4,1646.4,3475.9,3468.6,1250.6,1007.3,1674.8,3471.0,1367.6,1369.4,3468.6,3474.6,1154.2,1474.6,2052.4,2603.7,1565.5,3490.5,3467.4,3473.4,752.1,959.4,1389.4,885.6,833.6,788.6,0.0,-24.0,2.0,10553.0,-12295.0,2275.0,-843.0,-197.0,15.0,10.0,2.0,-35.0,0.0,4113.0,-9396.0,-10905.0,6656.0,-201.0,-6.0,8.0,1.0
2022-05-13 15:53:39.176429-07:00,1090.3,747.2,897.4,860.4,725.8,786.9,2227.0,1567.4,3475.9,3468.6,1250.6,1000.5,1695.7,3466.1,1377.5,1376.6,3475.9,3472.2,1154.2,1469.0,2050.4,2603.7,1565.5,3490.5,3480.7,3480.7,743.0,952.6,1386.6,885.6,833.6,788.6,20.0,42.0,9.0,10515.0,-12329.0,2273.0,-831.0,-91.0,11.0,28.0,12.0,51.0,4.0,4080.0,-9413.0,-10922.0,6625.0,-112.0,1.0,2.0,1.0
2022-05-13 15:53:39.219747-07:00,1086.8,732.3,913.5,852.8,725.8,786.9,2227.0,1567.4,3473.4,3468.6,1247.1,1002.2,1695.7,3466.1,1377.5,1376.6,3475.9,3472.2,1154.2,1469.0,2059.4,2602.6,1558.1,3501.4,3480.7,3480.7,743.0,952.6,1389.4,887.3,833.6,788.6,4.0,-48.0,-15.0,10476.0,-12359.0,2288.0,-841.0,-82.0,29.0,-5.0,2.0,-32.0,-19.0,4056.0,-9428.0,-10938.0,6591.0,-64.0,8.0,19.0,1.0
2022-05-13 15:53:39.265997-07:00,1086.8,732.3,913.5,852.8,718.4,783.6,2205.5,1566.5,3473.4,3468.6,1247.1,1002.2,1699.5,3464.9,1378.5,1376.6,3473.4,3471.0,1154.2,1467.2,2059.4,2602.6,1558.1,3501.4,3485.6,3473.4,741.4,948.3,1389.4,887.3,833.6,788.6,13.0,31.0,-23.0,10485.0,-12354.0,2277.0,-838.0,-5.0,-39.0,-19.0,6.0,38.0,-18.0,4059.0,-9429.0,-10933.0,6596.0,-38.0,-11.0,-6.0,1.0
2022-05-13 15:53:39.310441-07:00,1083.4,725.8,885.6,857.9,718.4,783.6,2205.5,1566.5,3475.9,3457.6,1241.7,998.7,1699.5,3464.9,1378.5,1376.6,3473.4,3471.0,1154.2,1467.2,2055.4,2608.0,1542.2,3500.2,3485.6,3473.4,741.4,948.3,1390.3,885.6,830.2,786.1,4.0,-1.0,-5.0,10500.0,-12339.0,2279.0,-857.0,80.0,52.0,-29.0,3.0,-3.0,-3.0,4070.0,-9415.0,-10936.0,6605.0,47.0,-6.0,-28.0,1.0
2022-05-13 15:53:39.357085-07:00,1083.4,725.8,885.6,857.9,705.2,791.0,2183.0,1573.9,3475.9,3457.6,1241.7,998.7,1703.3,3462.5,1378.5,1375.7,3471.0,3473.4,1155.0,1470.9,2055.4,2608.0,1542.2,3500.2,3473.4,3478.3,743.9,943.2,1390.3,885.6,830.2,786.1,12.0,0.0,-4.0,10512.0,-12336.0,2250.0,-842.0,-59.0,-91.0,-1.0,7.0,24.0,-18.0,4072.0,-9410.0,-10935.0,6612.0,-51.0,-24.0,-2.0,1.0
2022-05-13 15:53:39.400589-07:00,1082.5,734.8,890.7,857.9,705.2,791.0,2183.0,1567.4,3472.2,3467.4,1240.8,1001.3,1703.3,3462.5,1378.5,1370.3,3477.1,3473.4,1155.0,1470.9,2053.4,2600.4,1547.8,3494.1,3469.8,3478.3,743.9,943.2,1385.7,885.6,828.5,785.2,9.0,18.0,14.0,10494.0,-12347.0,2272.0,-836.0,-34.0,79.0,49.0,5.0,15.0,1.0,4062.0,-9412.0,-10944.0,6602.0,-29.0,9.0,-13.0,1.0
2022-05-13 15:53:39.447895-07:00,1079.9,734.8,890.7,857.9,718.4,791.9,2173.8,1567.4,3466.1,3467.4,1240.8,1001.3,1679.5,3468.6,1375.7,1370.3,3477.1,3473.4,1157.7,1470.9,2053.4,2600.4,1547.8,3492.9,3469.8,3474.6,739.7,939.0,1385.7,885.6,828.5,781.1,0.0,2.0,-18.0,10484.0,-12355.0,2273.0,-834.0,-19.0,-51.0,-8.0,5.0,26.0,-5.0,4059.0,-9417.0,-10948.0,6589.0,-30.0,12.0,-1.0,1.0
2022-05-13 15:53:39.492892-07:00,1079.9,734.0,886.5,859.5,718.4,791.9,2173.8,1560.9,3466.1,3472.2,1230.2,994.5,1679.5,3468.6,1375.7,1375.7,3474.6,3473.4,1157.7,1470.9,2048.4,2612.3,1537.6,3492.9,3481.9,3474.6,739.7,939.0,1397.6,879.7,829.4,781.1,13.0,-11.0,-2.0,10457.0,-12380.0,2266.0,-822.0,-125.0,11.0,-4.0,8.0,10.0,-11.0,4038.0,-9428.0,-10964.0,6562.0,-115.0,3.0,-4.0,1.0
2022-05-13 15:53:39.582352-07:00,1079.0,734.0,886.5,859.5,711.8,776.9,2174.8,1560.9,3471.0,3472.2,1230.2,994.5,1677.6,3467.4,1379.4,1375.7,3474.6,3464.9,1151.5,1474.6,2048.4,2612.3,1537.6,3495.3,3481.9,3477.1,735.6,927.9,1397.6,879.7,829.4,779.4,1.0,16.0,-14.0,10452.0,-12384.0,2268.0,-829.0,30.0,-7.0,-30.0,8.0,6.0,2.0,4042.0,-9429.0,-10963.0,6559.0,21.0,13.0,-10.0,1.0
2022-05-13 15:53:39.627222-07:00,1079.0,729.9,889.8,851.1,711.8,776.9,2174.8,1593.6,3471.0,3473.4,1231.9,991.9,1677.6,3467.4,1379.4,1365.7,3485.6,3464.9,1151.5,1474.6,2041.4,2605.8,1533.8,3495.3,3475.9,3477.1,735.6,927.9,1386.6,876.4,829.4,779.4,-1.0,-5.0,-11.0,10452.0,-12389.0,2240.0,-828.0,-12.0,-50.0,-43.0,2.0,6.0,-10.0,4043.0,-9426.0,-10965.0,6558.0,-2.0,0.0,-12.0,1.0
2022-05-13 15:53:39.670369-07:00,1078.2,724.9,889.8,851.1,716.7,777.8,2172.8,1593.6,3477.1,3473.4,1231.9,991.9,1674.8,3472.2,1372.1,1365.7,3485.6,3467.4,1146.3,1463.5,2041.4,2605.8,1529.2,3486.8,3475.9,3481.9,738.1,937.3,1386.6,876.4,828.5,778.6,-6.0,-4.0,0.0,10456.0,-12388.0,2232.0,-827.0,34.0,8.0,-11.0,3.0,0.0,5.0,4044.0,-9425.0,-10965.0,6558.0,27.0,11.0,-1.0,1.0
2022-05-13 15:53:39.717352-07:00,1078.2,724.9,889.8,847.8,716.7,777.8,2161.6,1556.2,3477.1,3473.4,1227.5,992.7,1674.8,3472.2,1365.7,1356.7,3477.1,3475.9,1146.3,1463.5,2044.4,2604.8,1529.2,3486.8,3466.1,3477.1,738.1,937.3,1381.2,878.0,828.5,778.6,0.0,-8.0,-20.0,10457.0,-12389.0,2219.0,-827.0,-7.0,-41.0,-29.0,9.0,12.0,-10.0,4046.0,-9426.0,-10964.0,6558.0,-6.0,2.0,-4.0,1.0
2022-05-13 15:53:39.760856-07:00,1075.6,732.3,889.8,847.8,720.8,776.1,2161.6,1556.2,3462.5,3471.0,1227.5,992.7,1677.6,3481.9,1365.7,1356.7,3477.1,3475.9,1149.8,1484.7,2044.4,2604.8,1526.4,3492.9,3466.1,3477.1,736.5,929.6,1381.2,878.0,827.7,772.8,6.0,-16.0,-7.0,10448.0,-12399.0,2206.0,-813.0,-57.0,-32.0,3.0,9.0,-1.0,-11.0,4042.0,-9427.0,-10970.0,6549.0,-35.0,-8.0,-14.0,1.0
2022-05-13 15:53:39.806432-07:00,1075.6,732.3,891.5,854.5,720.8,776.1,2146.3,1545.0,3462.5,3471.0,1225.7,994.5,1677.6,3481.9,1363.9,1353.1,3468.6,3474.6,1149.8,1484.7,2046.4,2609.1,1526.4,3492.9,3478.3,3480.7,736.5,929.6,1390.3,885.6,827.7,772.8,0.0,0.0,-12.0,10446.0,-12404.0,2194.0,-802.0,-16.0,-54.0,-8.0,8.0,6.0,-2.0,4041.0,-9426.0,-10975.0,6544.0,-9.0,0.0,-3.0,1.0
2022-05-13 15:53:39.850393-07:00,1071.2,729.9,891.5,854.5,724.9,776.1,2146.3,1545.0,3473.4,3468.6,1225.7,994.5,1675.7,3471.0,1363.9,1353.1,3468.6,3474.6,1157.7,1467.2,2046.4,2609.1,1524.5,3497.8,3478.3,3480.7,734.8,927.9,1390.3,885.6,826.0,779.4,13.0,-3.0,-5.0,10439.0,-12414.0,2178.0,-782.0,-60.0,-35.0,-1.0,9.0,6.0,-14.0,4039.0,-9426.0,-10979.0,6537.0,-50.0,-13.0,-11.0,1.0
2022-05-13 15:53:39.895707-07:00,1071.2,729.9,893.2,863.7,724.9,781.9,2142.2,1548.7,3473.4,3468.6,1227.5,985.9,1675.7,3474.6,1365.7,1347.6,3475.9,3467.4,1150.6,1467.2,2055.4,2609.1,1524.5,3497.8,3466.1,3472.2,733.2,927.9,1397.6,880.6,826.0,779.4,8.0,5.0,-8.0,10432.0,-12420.0,2177.0,-778.0,-12.0,-16.0,-4.0,9.0,12.0,-5.0,4033.0,-9426.0,-10987.0,6527.0,-3.0,-2.0,-12.0,1.0
2022-05-13 15:53:39.942214-07:00,1070.3,722.5,890.7,863.7,717.5,781.9,2142.2,1548.7,3471.0,3467.4,1224.8,985.9,1668.2,3474.6,1365.7,1347.6,3475.9,3467.4,1150.6,1468.1,2055.4,2603.7,1512.5,3497.8,3466.1,3472.2,733.2,922.8,1397.6,879.7,827.7,772.8,5.0,-11.0,-8.0,10420.0,-12432.0,2167.0,-772.0,-49.0,-31.0,-20.0,6.0,-2.0,-8.0,4030.0,-9425.0,-10994.0,6518.0,-34.0,-1.0,-4.0,1.0
2022-05-13 15:53:40.033445-07:00,1070.3,722.5,890.7,858.7,717.5,773.6,2142.2,1534.8,3471.0,3467.4,1224.8,991.0,1668.2,3474.6,1354.9,1338.6,3472.2,3479.5,1154.2,1468.1,2050.4,2603.7,1512.5,3497.8,3478.3,3469.8,733.2,922.8,1389.4,879.7,827.7,772.8,6.0,9.0,-11.0,10408.0,-12446.0,2153.0,-761.0,-50.0,-47.0,-17.0,4.0,16.0,0.0,4021.0,-9429.0,-11001.0,6506.0,-47.0,-1.0,-9.0,1.0
2022-05-13 15:53:40.077024-07:00,1071.2,729.9,899.1,858.7,727.4,773.6,2142.2,1534.8,3474.6,3469.8,1228.4,991.0,1667.2,3474.6,1354.9,1338.6,3472.2,3479.5,1154.2,1478.3,2050.4,2608.0,1510.6,3492.9,3478.3,3469.8,733.2,918.6,1389.4,878.0,816.9,777.8,0.0,1.0,-6.0,10405.0,-12449.0,2146.0,-760.0,22.0,7.0,-10.0,5.0,15.0,-6.0,4016.0,-9429.0,-11008.0,6498.0,20.0,0.0,-12.0,1.0
2022-05-13 15:53:40.286427-07:00,1071.2,729.9,899.1,863.7,727.4,771.1,2127.0,1541.3,3474.6,3469.8,1228.4,979.0,1667.2,3471.0,1355.8,1343.1,3471.0,3479.5,1153.3,1478.3,2054.4,2608.0,1510.6,3492.9,3474.6,3473.4,730.7,918.6,1394.8,878.0,816.9,777.8,0.0,6.0,-13.0,10405.0,-12450.0,2144.0,-757.0,-4.0,-38.0,-5.0,5.0,13.0,-6.0,4018.0,-9428.0,-11008.0,6498.0,-8.0,-1.0,-5.0,1.0
2022-05-13 15:53:40.288538-07:00,1070.3,715.1,894.9,865.4,720.8,771.1,2127.0,1541.3,3472.2,3472.2,1224.8,984.2,1665.3,3471.0,1355.8,1343.1,3471.0,3479.5,1153.3,1470.9,2045.4,2610.2,1506.9,3492.9,3474.6,3473.4,730.7,921.1,1396.7,877.2,831.1,771.1,11.0,3.0,-9.0,10403.0,-12455.0,2127.0,-748.0,7.0,-36.0,-19.0,10.0,14.0,-11.0,4015.0,-9429.0,-11011.0,6493.0,6.0,-6.0,-11.0,1.0
2022-05-13 15:53:40.291121-07:00,1070.3,715.1,894.9,865.4,715.9,764.5,2135.1,1537.6,3472.2,3472.2,1224.8,984.2,1664.4,3464.9,1356.7,1331.4,3472.2,3474.6,1157.7,1465.4,2045.4,2610.2,1506.9,3492.9,3483.2,3467.4,724.9,915.2,1396.7,877.2,831.1,771.1,1.0,0.0,-7.0,10403.0,-12457.0,2116.0,-748.0,1.0,-17.0,-14.0,8.0,7.0,0.0,4017.0,-9427.0,-11014.0,6491.0,6.0,4.0,-4.0,1.0
2022-05-13 15:53:40.292230-07:00,1072.9,716.7,889.8,853.7,715.9,764.5,2135.1,1537.6,3469.8,3473.4,1207.1,980.7,1664.4,3464.9,1356.7,1331.4,3472.2,3474.6,1157.7,1465.4,2050.4,2585.3,1519.0,3494.1,3483.2,3467.4,724.9,915.2,1396.7,878.0,827.7,773.6,-4.0,-5.0,-10.0,10399.0,-12462.0,2110.0,-740.0,-10.0,-39.0,-13.0,3.0,8.0,0.0,4014.0,-9428.0,-11016.0,6486.0,-16.0,1.0,-3.0,1.0
2022-05-13 15:53:40.302345-07:00,1072.9,716.7,889.8,853.7,716.7,793.5,2122.0,1536.6,3469.8,3473.4,1207.1,980.7,1663.4,3464.9,1345.8,1330.5,3478.3,3479.5,1146.3,1469.0,2050.4,2585.3,1519.0,3494.1,3471.0,3472.2,718.4,915.2,1396.7,878.0,827.7,773.6,8.0,-16.0,2.0,10387.0,-12475.0,2098.0,-729.0,-40.0,-13.0,-4.0,12.0,31.0,-1.0,4006.0,-9432.0,-11023.0,6476.0,-57.0,-6.0,-5.0,1.0
2022-05-13 15:53:40.384819-07:00,1069.5,730.7,895.7,857.9,716.7,793.5,2122.0,1536.6,3466.1,3464.9,1223.0,975.6,1663.4,3464.9,1345.8,1330.5,3478.3,3479.5,1146.3,1469.0,2051.4,2603.7,1524.5,3485.6,3471.0,3472.2,718.4,915.2,1392.1,875.5,826.9,767.8,-3.0,-8.0,0.0,10365.0,-12492.0,2104.0,-727.0,-26.0,0.0,0.0,10.0,4.0,5.0,3991.0,-9439.0,-11034.0,6455.0,-60.0,10.0,8.0,1.0
2022-05-13 15:53:40.483224-07:00,1069.5,730.7,895.7,857.9,715.9,778.6,2098.7,1531.0,3466.1,3464.9,1223.0,975.6,1660.6,3467.4,1351.2,1335.9,3488.0,3469.8,1148.9,1470.9,2051.4,2603.7,1524.5,3485.6,3485.6,3481.9,724.9,911.8,1392.1,875.5,826.9,767.8,5.0,-1.0,-8.0,10366.0,-12492.0,2099.0,-730.0,20.0,-9.0,-19.0,6.0,4.0,-7.0,3991.0,-9440.0,-11035.0,6452.0,13.0,1.0,-3.0,1.0
2022-05-13 15:53:40.528622-07:00,1069.5,720.8,890.7,852.8,715.9,778.6,2098.7,1523.6,3473.4,3457.6,1214.2,977.3,1660.6,3467.4,1351.2,1326.8,3475.9,3469.8,1148.9,1470.9,2046.4,2604.8,1506.9,3494.1,3477.1,3481.9,724.9,911.8,1393.9,884.8,824.4,776.9,3.0,0.0,-4.0,10362.0,-12494.0,2101.0,-730.0,-22.0,12.0,15.0,3.0,11.0,-4.0,3992.0,-9439.0,-11035.0,6452.0,-16.0,-1.0,-1.0,1.0
2022-05-13 15:53:40.572462-07:00,1067.7,720.8,890.7,852.8,729.0,775.3,2118.9,1523.6,3467.4,3457.6,1214.2,977.3,1665.3,3473.4,1349.4,1326.8,3475.9,3473.4,1151.5,1474.6,2046.4,2604.8,1506.9,3500.2,3477.1,3473.4,723.3,909.3,1393.9,884.8,824.4,776.9,2.0,-1.0,-9.0,10355.0,-12500.0,2104.0,-729.0,-7.0,-12.0,-2.0,7.0,6.0,-5.0,3989.0,-9441.0,-11038.0,6446.0,-9.0,11.0,-4.0,1.0
2022-05-13 15:53:40.661940-07:00,1067.7,725.8,891.5,859.5,729.0,775.3,2118.9,1525.5,3467.4,3472.2,1211.5,974.8,1665.3,3473.4,1349.4,1326.8,3478.3,3473.4,1151.5,1474.6,2043.4,2603.7,1515.3,3500.2,3483.2,3473.4,723.3,909.3,1381.2,883.1,834.4,776.9,8.0,-5.0,-6.0,10352.0,-12503.0,2099.0,-729.0,-11.0,3.0,-10.0,6.0,-2.0,-7.0,3989.0,-9441.0,-11039.0,6444.0,-9.0,-4.0,-3.0,1.0
2022-05-13 15:53:40.663575-07:00,1064.3,725.8,891.5,859.5,716.7,772.8,2110.8,1525.5,3467.4,3472.2,1211.5,974.8,1649.2,3473.4,1353.1,1326.8,3478.3,3480.7,1146.3,1468.1,2043.4,2603.7,1515.3,3485.6,3483.2,3471.0,728.2,905.0,1381.2,883.1,834.4,774.5,3.0,2.0,-7.0,10353.0,-12503.0,2098.0,-729.0,-2.0,-13.0,6.0,9.0,6.0,-5.0,3990.0,-9441.0,-11039.0,6444.0,18.0,-1.0,6.0,1.0
2022-05-13 15:53:40.706975-07:00,1064.3,720.8,893.2,855.3,716.7,772.8,2110.8,1561.8,3467.4,3471.0,1210.6,962.8,1649.2,3473.4,1353.1,1327.8,3469.8,3480.7,1146.3,1468.1,2038.4,2603.7,1506.9,3485.6,3473.4,3471.0,728.2,905.0,1386.6,876.4,824.4,774.5,6.0,4.0,-4.0,10348.0,-12508.0,2094.0,-724.0,-16.0,-1.0,4.0,6.0,8.0,-8.0,3988.0,-9442.0,-11041.0,6440.0,-14.0,-4.0,4.0,1.0
2022-05-13 15:53:40.708206-07:00,1069.5,718.4,893.2,855.3,722.5,764.5,2118.9,1561.8,3475.9,3472.2,1210.6,962.8,1652.0,3478.3,1350.3,1327.8,3469.8,3479.5,1148.9,1460.8,2038.4,2603.7,1506.9,3484.4,3473.4,3474.6,722.5,908.4,1386.6,876.4,824.4,769.5,0.0,9.0,-8.0,10347.0,-12507.0,2100.0,-726.0,-1.0,4.0,6.0,1.0,12.0,0.0,3990.0,-9442.0,-11041.0,6440.0,-5.0,2.0,4.0,1.0
2022-05-13 15:53:40.750396-07:00,1069.5,718.4,890.7,860.4,722.5,764.5,2116.9,1524.5,3475.9,3472.2,1209.7,974.8,1652.0,3478.3,1350.3,1322.3,3475.9,3473.4,1148.9,1460.8,2038.4,2610.2,1506.9,3484.4,3477.1,3478.3,722.5,908.4,1389.4,879.7,824.4,769.5,0.0,-1.0,-14.0,10345.0,-12509.0,2100.0,-725.0,4.0,-12.0,-3.0,5.0,13.0,-9.0,3988.0,-9443.0,-11042.0,6438.0,5.0,-4.0,3.0,1.0
2022-05-13 15:53:40.794867-07:00,1063.4,719.2,890.7,860.4,717.5,772.0,2116.9,1524.5,3457.6,3475.9,1209.7,974.8,1657.7,3463.7,1350.3,1322.3,3475.9,3473.4,1153.3,1466.3,2038.4,2610.2,1503.2,3490.5,3477.1,3478.3,725.8,909.3,1389.4,879.7,826.9,779.4,6.0,6.0,-10.0,10345.0,-12509.0,2099.0,-725.0,-1.0,-10.0,-6.0,7.0,4.0,0.0,3988.0,-9443.0,-11042.0,6438.0,3.0,3.0,-1.0,1.0
2022-05-13 15:53:40.841248-07:00,1063.4,719.2,884.8,857.9,717.5,772.0,2122.0,1512.5,3457.6,3475.9,1208.0,964.5,1657.7,3463.7,1351.2,1320.5,3467.4,3471.0,1153.3,1466.3,2036.4,2611.3,1503.2,3490.5,3471.0,3473.4,725.8,909.3,1394.8,876.4,826.9,779.4,2.0,-8.0,-3.0,10343.0,-12512.0,2096.0,-722.0,-6.0,2.0,4.0,5.0,3.0,-1.0,3987.0,-9443.0,-11043.0,6436.0,-6.0,0.0,7.0,1.0
2022-05-13 15:53:40.886440-07:00,1060.8,719.2,884.8,857.9,711.8,767.8,2122.0,1512.5,3464.9,3466.1,1208.0,964.5,1657.7,3469.8,1351.2,1320.5,3467.4,3471.0,1152.4,1462.6,2036.4,2611.3,1499.5,3505.1,3471.0,3473.4,723.3,907.6,1394.8,876.4,828.5,782.7,2.0,-22.0,-2.0,10334.0,-12519.0,2095.0,-717.0,-7.0,-5.0,12.0,7.0,-1.0,-8.0,3981.0,-9446.0,-11047.0,6429.0,-6.0,-3.0,6.0,1.0
2022-05-13 15:53:40.977203-07:00,1060.8,719.2,892.4,867.1,711.8,773.6,2102.7,1520.8,3464.9,3466.1,1200.9,969.6,1657.7,3468.6,1346.7,1310.6,3479.5,3478.3,1138.4,1462.6,2038.4,2609.1,1499.5,3505.1,3477.1,3474.6,722.5,907.6,1388.5,878.9,828.5,782.7,5.0,-1.0,-10.0,10335.0,-12518.0,2097.0,-716.0,9.0,8.0,-5.0,5.0,6.0,-5.0,3982.0,-9445.0,-11046.0,6430.0,13.0,1.0,4.0,1.0
2022-05-13 15:53:41.020972-07:00,1066.0,711.8,895.7,867.1,715.1,773.6,2102.7,1520.8,3467.4,3479.5,1197.4,969.6,1653.9,3468.6,1346.7,1310.6,3479.5,3478.3,1138.4,1471.8,2038.4,2608.0,1495.8,3489.2,3477.1,3474.6,722.5,901.7,1388.5,871.3,823.5,771.1,2.0,-1.0,-14.0,10336.0,-12518.0,2096.0,-716.0,-5.0,-1.0,-5.0,7.0,0.0,-6.0,3982.0,-9445.0,-11046.0,6430.0,5.0,2.0,1.0,1.0
2022-05-13 15:53:41.066401-07:00,1066.0,711.8,895.7,856.2,715.1,764.5,2090.6,1511.5,3467.4,3479.5,1197.4,964.5,1653.9,3473.4,1344.9,1317.8,3474.6,3478.3,1153.3,1471.8,2047.4,2608.0,1495.8,3489.2,3488.0,3467.4,724.1,901.7,1382.1,871.3,823.5,771.1,1.0,1.0,-13.0,10337.0,-12517.0,2096.0,-716.0,9.0,-8.0,4.0,4.0,12.0,-4.0,3983.0,-9445.0,-11046.0,6431.0,4.0,-6.0,-5.0,1.0
2022-05-13 15:53:41.157289-07:00,1068.6,717.5,894.9,856.2,726.6,764.5,2090.6,1511.5,3472.2,3468.6,1202.7,964.5,1650.2,3473.4,1344.9,1317.8,3474.6,3478.3,1153.3,1466.3,2047.4,2597.2,1494.0,3484.4,3488.0,3467.4,724.1,905.9,1382.1,876.4,819.4,770.3,0.0,2.0,-6.0,10329.0,-12523.0,2097.0,-715.0,-28.0,8.0,-3.0,6.0,3.0,0.0,3982.0,-9445.0,-11046.0,6431.0,2.0,4.0,-4.0,1.0
2022-05-13 15:53:41.158506-07:00,1068.6,717.5,894.9,862.1,726.6,773.6,2128.0,1506.9,3472.2,3468.6,1202.7,973.9,1650.2,3471.0,1346.7,1311.5,3463.7,3473.4,1151.5,1466.3,2042.4,2597.2,1494.0,3484.4,3478.3,3478.3,720.8,905.9,1397.6,876.4,819.4,770.3,-1.0,-1.0,-6.0,10319.0,-12532.0,2097.0,-713.0,-30.0,-3.0,-4.0,7.0,1.0,-4.0,3981.0,-9446.0,-11047.0,6429.0,9.0,9.0,-3.0,1.0
2022-05-13 15:53:41.202379-07:00,1064.3,724.9,892.4,862.1,717.5,773.6,2128.0,1506.9,3467.4,3464.9,1200.0,973.9,1646.4,3471.0,1346.7,1311.5,3463.7,3473.4,1151.5,1469.0,2042.4,2605.8,1487.5,3486.8,3478.3,3478.3,720.8,900.8,1397.6,877.2,829.4,776.1,6.0,2.0,-6.0,10316.0,-12535.0,2093.0,-707.0,-2.0,-14.0,0.0,8.0,10.0,-5.0,3983.0,-9446.0,-11046.0,6430.0,12.0,-1.0,-1.0,1.0
2022-05-13 15:53:41.245255-07:00,1064.3,724.9,892.4,861.2,720.0,765.3,2098.7,1506.9,3467.4,3464.9,1200.0,966.2,1644.5,3464.9,1345.8,1314.2,3472.2,3479.5,1151.5,1465.4,2029.4,2605.8,1487.5,3486.8,3477.1,3467.4,717.5,899.1,1389.4,877.2,829.4,776.1,2.0,-6.0,-6.0,10321.0,-12531.0,2093.0,-708.0,-3.0,-9.0,-7.0,6.0,5.0,-1.0,3985.0,-9445.0,-11044.0,6433.0,-5.0,4.0,-1.0,1.0
2022-05-13 15:53:41.292587-07:00,1061.7,720.0,889.0,862.1,720.0,765.3,2098.7,1506.9,3462.5,3469.8,1203.5,961.1,1644.5,3464.9,1345.8,1314.2,3472.2,3479.5,1151.5,1465.4,2048.4,2608.0,1500.4,3486.8,3477.1,3467.4,717.5,899.1,1392.1,882.3,824.4,770.3,3.0,7.0,-8.0,10323.0,-12530.0,2091.0,-706.0,-9.0,-10.0,-3.0,5.0,10.0,0.0,3987.0,-9444.0,-11043.0,6434.0,-18.0,5.0,4.0,1.0
2022-05-13 15:53:41.381380-07:00,1061.7,720.0,889.0,862.1,720.8,767.8,2090.6,1506.9,3462.5,3469.8,1203.5,961.1,1665.3,3468.6,1342.2,1311.5,3475.9,3460.1,1152.4,1465.4,2048.4,2608.0,1500.4,3486.8,3475.9,3467.4,708.5,894.1,1392.1,882.3,824.4,770.3,5.0,-1.0,-10.0,10320.0,-12533.0,2089.0,-703.0,11.0,-7.0,-1.0,2.0,5.0,-5.0,3986.0,-9444.0,-11044.0,6434.0,15.0,-3.0,-1.0,1.0
2022-05-13 15:53:41.427392-07:00,1062.5,717.5,887.3,857.9,720.8,767.8,2090.6,1506.9,3462.5,3468.6,1191.2,963.7,1665.3,3468.6,1342.2,1311.5,3475.9,3460.1,1152.4,1465.4,2043.4,2613.4,1488.4,3492.9,3475.9,3467.4,708.5,894.1,1387.5,854.5,821.9,772.8,0.0,-1.0,-7.0,10328.0,-12527.0,2088.0,-704.0,22.0,-10.0,-5.0,3.0,-5.0,0.0,3991.0,-9442.0,-11040.0,6440.0,30.0,-1.0,-2.0,1.0
2022-05-13 15:53:41.472357-07:00,1062.5,717.5,887.3,857.9,723.3,773.6,2095.7,1513.4,3462.5,3468.6,1191.2,963.7,1644.5,3473.4,1343.1,1310.6,3472.2,3467.4,1150.6,1470.0,2043.4,2613.4,1488.4,3492.9,3490.5,3472.2,716.7,898.3,1387.5,854.5,821.9,772.8,2.0,-5.0,-7.0,10328.0,-12528.0,2085.0,-694.0,-5.0,-25.0,21.0,9.0,0.0,-7.0,3993.0,-9441.0,-11039.0,6442.0,9.0,18.0,5.0,1.0
2022-05-13 15:53:41.517194-07:00,1069.5,719.2,891.5,859.5,723.3,773.6,2095.7,1520.8,3466.1,3478.3,1200.0,961.1,1644.5,3473.4,1343.1,1309.7,3469.8,3467.4,1150.6,1470.0,2047.4,2606.9,1493.0,3492.9,3469.8,3472.2,716.7,898.3,1387.5,873.8,821.9,773.6,16.0,-30.0,-11.0,10378.0,-12487.0,2083.0,-687.0,319.0,-58.0,29.0,22.0,20.0,-7.0,4013.0,-9441.0,-11026.0,6451.0,77.0,15.0,37.0,1.0
2022-05-13 15:53:41.560356-07:00,1087.7,719.2,891.5,859.5,718.4,768.7,2104.8,1520.8,3474.6,3478.3,1200.0,961.1,1695.7,3473.4,1345.8,1309.7,3469.8,3468.6,1154.2,1459.8,2047.4,2606.9,1493.0,3495.3,3469.8,3473.4,728.2,922.8,1387.5,873.8,821.9,764.5,-18.0,51.0,-8.0,10565.0,-12345.0,2002.0,-628.0,549.0,-386.0,-39.0,-5.0,0.0,18.0,4017.0,-9462.0,-11008.0,6449.0,-79.0,61.0,46.0,1.0
2022-05-13 15:53:41.605359-07:00,1087.7,717.5,889.0,865.4,718.4,768.7,2104.8,1556.2,3474.6,3462.5,1200.0,966.2,1695.7,3473.4,1345.8,1312.4,3478.3,3468.6,1154.2,1459.8,2038.4,2599.3,1537.6,3495.3,3477.1,3473.4,728.2,922.8,1404.0,872.1,824.4,764.5,1.0,-21.0,-43.0,10688.0,-12271.0,1823.0,-543.0,179.0,-473.0,-165.0,0.0,9.0,-27.0,3997.0,-9499.0,-11017.0,6392.0,-232.0,75.0,32.0,1.0
2022-05-13 15:53:41.650374-07:00,1068.6,717.5,889.0,865.4,714.2,767.8,2161.6,1556.2,3478.3,3462.5,1200.0,966.2,1694.8,3468.6,1321.4,1312.4,3478.3,3467.4,1151.5,1445.1,2038.4,2599.3,1537.6,3497.8,3477.1,3483.2,729.0,939.8,1404.0,872.1,824.4,769.5,-11.0,-3.0,-36.0,10675.0,-12306.0,1687.0,-424.0,-321.0,-354.0,28.0,5.0,17.0,-6.0,3942.0,-9547.0,-11046.0,6303.0,-416.0,49.0,20.0,1.0
2022-05-13 15:53:41.697293-07:00,1068.6,722.5,891.5,848.6,714.2,767.8,2161.6,1547.8,3478.3,3478.3,1168.2,949.2,1694.8,3468.6,1321.4,1259.6,3473.4,3467.4,1151.5,1445.1,2057.4,2606.9,1691.0,3497.8,3474.6,3483.2,729.0,939.8,1388.5,874.7,823.5,769.5,3.0,60.0,-6.0,10597.0,-12387.0,1610.0,-308.0,-173.0,-298.0,-41.0,11.0,30.0,3.0,3849.0,-9604.0,-11106.0,6168.0,-355.0,51.0,8.0,1.0
2022-05-13 15:53:41.742280-07:00,1069.5,722.5,891.5,848.6,711.8,757.1,2172.8,1547.8,3464.9,3472.2,1168.2,949.2,1685.3,3471.0,1281.0,1259.6,3473.4,3477.1,1155.0,1461.7,2057.4,2606.9,1836.2,3496.6,3474.6,3479.5,724.9,918.6,1388.5,874.7,826.0,764.5,0.0,-18.0,1.0,10539.0,-12452.0,1500.0,-230.0,-125.0,-231.0,-73.0,-3.0,9.0,-17.0,3774.0,-9648.0,-11157.0,6053.0,-237.0,48.0,-13.0,1.0
2022-05-13 15:53:41.787373-07:00,1069.5,722.5,896.6,857.0,711.8,757.1,2007.4,1387.5,3464.9,3472.2,1110.4,925.4,1685.3,3471.0,1260.4,1231.0,3478.3,3475.9,1155.0,1461.7,2029.4,2613.4,1836.2,3496.6,3472.2,3474.6,724.9,918.6,1392.1,869.6,826.0,764.5,-11.0,18.0,-7.0,10529.0,-12468.0,1448.0,-150.0,-145.0,-228.0,78.0,5.0,5.0,18.0,3702.0,-9684.0,-11206.0,5949.0,-406.0,22.0,-18.0,1.0
2022-05-13 15:53:41.875946-07:00,1084.2,763.7,896.6,857.0,719.2,749.6,2007.4,1387.5,3467.4,3468.6,1110.4,925.4,1651.1,3474.6,1260.4,1231.0,3478.3,3475.9,1151.5,1461.7,2029.4,2613.4,1873.2,3497.8,3472.2,3474.6,741.4,923.7,1392.1,869.6,831.1,781.9,-13.0,10.0,-24.0,10392.0,-12590.0,1387.0,-22.0,-609.0,-375.0,-1.0,14.0,-16.0,11.0,3561.0,-9736.0,-11304.0,5760.0,-670.0,33.0,-36.0,1.0
2022-05-13 15:53:42.003268-07:00,1084.2,763.7,892.4,848.6,719.2,749.6,1904.6,1329.6,3467.4,3468.6,1088.6,912.7,1651.1,3474.6,1248.8,1219.5,3462.5,3479.5,1151.5,1461.7,2022.4,2608.0,1873.2,3497.8,3466.1,3467.4,741.4,923.7,1389.4,871.3,831.1,781.9,0.0,20.0,12.0,10251.0,-12719.0,1253.0,121.0,-490.0,-375.0,-70.0,3.0,14.0,-32.0,3433.0,-9781.0,-11393.0,5585.0,-393.0,8.0,-38.0,1.0
2022-05-13 15:53:42.011540-07:00,1123.5,776.9,892.4,848.6,727.4,747.2,1904.6,1329.6,3469.8,3473.4,1088.6,912.7,1632.2,3473.4,1248.8,1219.5,3462.5,3479.5,1149.8,1458.9,2022.4,2608.0,1852.8,3491.7,3466.1,3467.4,726.6,916.0,1389.4,871.3,823.5,785.2,7.0,-16.0,49.0,10143.0,-12808.0,1219.0,144.0,-172.0,140.0,1.0,0.0,-2.0,18.0,3365.0,-9793.0,-11443.0,5502.0,-170.0,-18.0,-29.0,1.0
2022-05-13 15:53:42.013077-07:00,1123.5,776.9,886.5,852.0,727.4,743.0,1879.1,1314.2,3469.8,3473.4,1077.3,910.1,1632.2,3474.6,1234.6,1217.7,3480.7,3480.7,1153.3,1458.9,2023.4,2609.1,1852.8,3491.7,3472.2,3477.1,711.8,916.0,1387.5,875.5,823.5,785.2,-13.0,-12.0,-10.0,10122.0,-12820.0,1272.0,128.0,-59.0,59.0,110.0,0.0,7.0,-4.0,3353.0,-9799.0,-11451.0,5481.0,-43.0,18.0,20.0,1.0
2022-05-13 15:53:42.055269-07:00,1141.9,788.6,886.5,852.0,714.2,743.0,1879.1,1314.2,3469.8,3477.1,1074.7,910.1,1623.7,3474.6,1234.6,1217.7,3480.7,3480.7,1153.3,1470.9,2023.4,2604.8,1842.0,3490.5,3472.2,3477.1,711.8,915.2,1387.5,867.9,826.9,765.3,15.0,7.0,22.0,10082.0,-12848.0,1312.0,121.0,25.0,139.0,-8.0,9.0,7.0,-4.0,3328.0,-9813.0,-11459.0,5454.0,10.0,-1.0,11.0,1.0
2022-05-13 15:53:42.101574-07:00,1141.9,788.6,886.5,852.0,714.2,743.0,1860.6,1298.1,3469.8,3477.1,1074.7,904.2,1623.7,3478.3,1231.0,1200.0,3472.2,3473.4,1153.3,1470.9,2035.4,2604.8,1842.0,3490.5,3477.1,3472.2,714.2,915.2,1391.2,867.9,826.9,765.3,-12.0,0.0,-39.0,10098.0,-12832.0,1340.0,47.0,-26.0,109.0,-38.0,10.0,19.0,1.0,3348.0,-9807.0,-11449.0,5474.0,12.0,12.0,-1.0,1.0
2022-05-13 15:53:42.145324-07:00,1140.1,781.9,895.7,852.0,720.8,743.0,1860.6,1298.1,3471.0,3479.5,1066.9,904.2,1611.5,3478.3,1231.0,1200.0,3472.2,3473.4,1153.3,1462.6,2035.4,2614.5,1824.6,3486.8,3477.1,3472.2,714.2,905.9,1391.2,873.0,829.4,755.4,-2.0,-9.0,-12.0,10062.0,-12858.0,1367.0,55.0,-50.0,30.0,87.0,6.0,5.0,-6.0,3328.0,-9818.0,-11458.0,5447.0,-34.0,-1.0,11.0,1.0
2022-05-13 15:53:42.190296-07:00,1140.1,781.9,895.7,850.3,720.8,735.6,1834.3,1285.5,3471.0,3479.5,1066.9,905.9,1611.5,3466.1,1221.3,1207.1,3471.0,3471.0,1159.4,1462.6,2036.4,2614.5,1824.6,3486.8,3484.4,3467.4,701.1,905.9,1393.0,873.0,829.4,755.4,0.0,19.0,-14.0,10081.0,-12842.0,1376.0,41.0,103.0,36.0,-59.0,4.0,13.0,-7.0,3343.0,-9812.0,-11452.0,5462.0,99.0,-5.0,-13.0,1.0
2022-05-13 15:53:42.236444-07:00,1140.1,785.2,885.6,850.3,715.9,735.6,1834.3,1285.5,3469.8,3468.6,1058.2,905.9,1606.8,3466.1,1221.3,1207.1,3471.0,3471.0,1159.4,1460.8,2036.4,2603.7,1810.0,3486.8,3484.4,3467.4,701.1,899.1,1393.0,875.5,834.4,756.3,-8.0,-23.0,-6.0,10066.0,-12855.0,1366.0,38.0,-118.0,-30.0,24.0,2.0,6.0,-9.0,3342.0,-9809.0,-11457.0,5458.0,-74.0,-13.0,-6.0,1.0
2022-05-13 15:53:42.282745-07:00,1140.1,785.2,885.6,854.5,720.0,743.0,1834.3,1281.0,3469.8,3468.6,1058.2,897.4,1606.8,3466.1,1230.2,1198.2,3478.3,3479.5,1160.3,1455.2,2034.4,2603.7,1810.0,3486.8,3484.4,3485.6,701.1,900.8,1393.9,875.5,834.4,756.3,4.0,12.0,16.0,10062.0,-12855.0,1394.0,39.0,62.0,76.0,25.0,5.0,3.0,3.0,3341.0,-9807.0,-11458.0,5460.0,67.0,-6.0,5.0,1.0
2022-05-13 15:53:42.328150-07:00,1141.0,774.5,892.4,852.0,720.0,743.0,1834.3,1281.0,3472.2,3464.9,1063.4,900.8,1606.8,3466.1,1230.2,1198.2,3478.3,3479.5,1160.3,1455.2,2038.4,2608.0,1794.5,3484.4,3484.4,3485.6,701.1,900.8,1389.4,872.1,823.5,754.6,-1.0,-1.0,-17.0,10064.0,-12853.0,1398.0,12.0,-42.0,28.0,-40.0,16.0,12.0,-5.0,3354.0,-9802.0,-11451.0,5475.0,21.0,6.0,-4.0,1.0
2022-05-13 15:53:42.461091-07:00,1141.0,774.5,892.4,852.0,718.4,738.9,1820.7,1261.3,3472.2,3464.9,1063.4,900.8,1596.4,3468.6,1227.5,1200.9,3474.6,3489.2,1150.6,1455.2,2038.4,2608.0,1794.5,3484.4,3478.3,3480.7,707.7,890.7,1389.4,872.1,823.5,754.6,0.0,0.0,-21.0,10038.0,-12873.0,1397.0,11.0,-57.0,-7.0,6.0,10.0,-1.0,-1.0,3350.0,-9804.0,-11454.0,5468.0,-36.0,-2.0,2.0,1.0
2022-05-13 15:53:42.504827-07:00,1135.7,775.3,879.7,851.1,718.4,738.9,1820.7,1261.3,3478.3,3463.7,1063.4,899.1,1596.4,3468.6,1227.5,1200.9,3474.6,3489.2,1150.6,1455.2,2024.4,2598.3,1797.4,3499.0,3478.3,3480.7,707.7,890.7,1397.6,872.1,827.7,744.7,2.0,-2.0,-6.0,10037.0,-12875.0,1394.0,13.0,34.0,0.0,-12.0,5.0,5.0,-2.0,3350.0,-9804.0,-11454.0,5467.0,24.0,-3.0,-3.0,1.0
2022-05-13 15:53:42.507165-07:00,1135.7,775.3,879.7,851.1,717.5,728.2,1802.3,1270.3,3478.3,3463.7,1063.4,899.1,1597.4,3469.8,1220.4,1193.8,3471.0,3469.8,1162.1,1458.9,2024.4,2598.3,1797.4,3499.0,3474.6,3475.9,698.7,889.8,1397.6,872.1,827.7,744.7,-3.0,0.0,-10.0,10045.0,-12868.0,1393.0,11.0,-3.0,-5.0,4.0,4.0,11.0,-4.0,3357.0,-9801.0,-11452.0,5473.0,-2.0,-7.0,-8.0,1.0
2022-05-13 15:53:42.549731-07:00,1140.1,776.9,886.5,852.0,717.5,728.2,1802.3,1261.3,3469.8,3464.9,1059.1,895.7,1597.4,3469.8,1220.4,1195.6,3478.3,3469.8,1162.1,1458.9,2037.4,2597.2,1784.9,3490.5,3478.3,3475.9,698.7,889.8,1393.0,864.6,831.9,751.3,6.0,6.0,-1.0,10038.0,-12874.0,1389.0,21.0,-1.0,-18.0,-8.0,8.0,5.0,-4.0,3354.0,-9802.0,-11454.0,5469.0,7.0,-6.0,-5.0,1.0
2022-05-13 15:53:42.596014-07:00,1134.0,776.9,886.5,852.0,721.6,731.5,1792.6,1261.3,3469.8,3464.9,1059.1,895.7,1589.9,3467.4,1222.2,1195.6,3478.3,3469.8,1153.3,1458.9,2037.4,2597.2,1784.9,3486.8,3478.3,3478.3,695.4,889.0,1393.0,864.6,831.9,753.8,-2.0,3.0,-1.0,10036.0,-12876.0,1382.0,14.0,-39.0,20.0,-19.0,7.0,6.0,0.0,3356.0,-9801.0,-11453.0,5470.0,-18.0,-1.0,-6.0,1.0
2022-05-13 15:53:42.640256-07:00,1134.0,767.8,892.4,849.5,721.6,731.5,1792.6,1261.3,3469.8,3468.6,1056.5,900.8,1589.9,3467.4,1222.2,1191.2,3481.9,3469.8,1153.3,1458.9,2037.4,2601.5,1784.9,3486.8,3478.3,3478.3,695.4,889.0,1379.4,873.8,824.4,753.8,-4.0,4.0,-8.0,10018.0,-12891.0,1381.0,17.0,-48.0,-16.0,1.0,5.0,4.0,-1.0,3348.0,-9804.0,-11458.0,5461.0,-29.0,7.0,3.0,1.0
2022-05-13 15:53:42.686663-07:00,1129.6,767.8,892.4,849.5,715.1,731.5,1789.7,1261.3,3457.6,3468.6,1056.5,900.8,1584.2,3467.4,1209.7,1191.2,3481.9,3472.2,1148.0,1461.7,2037.4,2601.5,1784.9,3491.7,3478.3,3479.5,692.9,885.6,1379.4,873.8,824.4,750.5,1.0,-1.0,-5.0,10001.0,-12904.0,1377.0,21.0,-29.0,3.0,-5.0,5.0,7.0,-7.0,3340.0,-9807.0,-11463.0,5450.0,-21.0,1.0,-4.0,1.0
2022-05-13 15:53:42.731744-07:00,1129.6,768.7,892.4,862.9,715.1,731.5,1789.7,1250.6,3457.6,3474.6,1058.2,888.2,1584.2,3467.4,1209.7,1189.4,3488.0,3472.2,1148.0,1461.7,2032.4,2610.2,1784.9,3491.7,3488.0,3479.5,692.9,885.6,1392.1,876.4,828.5,750.5,0.0,7.0,-6.0,10006.0,-12900.0,1374.0,24.0,27.0,-19.0,0.0,6.0,6.0,-3.0,3343.0,-9806.0,-11462.0,5452.0,25.0,-6.0,-3.0,1.0
2022-05-13 15:53:42.821702-07:00,1133.1,774.5,892.4,862.9,725.8,731.5,1778.1,1250.6,3467.4,3473.4,1058.2,888.2,1582.4,3478.3,1226.6,1189.4,3488.0,3480.7,1155.0,1456.2,2032.4,2610.2,1787.8,3497.8,3488.0,3480.7,689.7,880.6,1392.1,876.4,825.2,758.7,0.0,1.0,-9.0,10008.0,-12901.0,1363.0,30.0,-4.0,-33.0,-18.0,8.0,3.0,-2.0,3344.0,-9805.0,-11462.0,5452.0,-3.0,-6.0,-9.0,1.0
2022-05-13 15:53:42.864755-07:00,1133.1,774.5,900.8,855.3,725.8,731.5,1770.4,1253.3,3467.4,3473.4,1056.5,888.2,1582.4,3478.3,1216.8,1184.1,3467.4,3473.4,1155.0,1456.2,2031.4,2612.3,1787.8,3497.8,3478.3,3481.9,689.7,880.6,1378.5,874.7,825.2,758.7,4.0,-5.0,2.0,10005.0,-12903.0,1361.0,30.0,0.0,14.0,1.0,6.0,-3.0,3.0,3344.0,-9805.0,-11464.0,5449.0,-5.0,0.0,-4.0,1.0
2022-05-13 15:53:42.909693-07:00,1124.4,767.8,900.8,855.3,724.9,731.5,1770.4,1253.3,3467.4,3473.4,1056.5,888.2,1582.4,3468.6,1216.8,1184.1,3467.4,3473.4,1154.2,1455.2,2031.4,2612.3,1781.0,3500.2,3478.3,3481.9,689.7,889.0,1378.5,874.7,827.7,753.8,-3.0,1.0,-4.0,10012.0,-12897.0,1363.0,27.0,33.0,7.0,-7.0,3.0,1.0,-1.0,3351.0,-9802.0,-11461.0,5456.0,26.0,5.0,3.0,1.0
2022-05-13 15:53:42.954736-07:00,1124.4,767.8,889.8,858.7,724.9,731.5,1752.1,1240.8,3467.4,3473.4,1053.0,889.0,1582.4,3468.6,1216.8,1194.7,3469.8,3478.3,1154.2,1455.2,2037.4,2615.6,1781.0,3500.2,3469.8,3472.2,689.7,889.0,1407.6,869.6,827.7,753.8,1.0,2.0,-9.0,10016.0,-12895.0,1360.0,30.0,-9.0,-22.0,4.0,4.0,9.0,-7.0,3353.0,-9802.0,-11460.0,5458.0,-6.0,-1.0,-1.0,1.0
2022-05-13 15:53:43.000900-07:00,1138.4,768.7,889.8,858.7,725.8,730.7,1752.1,1240.8,3468.6,3464.9,1053.0,889.0,1581.4,3468.6,1216.8,1194.7,3469.8,3478.3,1155.9,1455.2,2037.4,2615.6,1772.3,3486.8,3469.8,3472.2,690.5,884.8,1407.6,869.6,822.7,754.6,0.0,6.0,-8.0,10017.0,-12894.0,1360.0,30.0,22.0,-7.0,-6.0,6.0,9.0,-4.0,3355.0,-9801.0,-11459.0,5460.0,18.0,-1.0,-1.0,1.0
2022-05-13 15:53:43.044866-07:00,1138.4,768.7,892.4,862.1,725.8,729.9,1756.0,1237.3,3468.6,3464.9,1051.3,890.7,1581.4,3468.6,1214.2,1189.4,3471.0,3475.9,1158.6,1455.2,2034.4,2614.5,1772.3,3486.8,3464.9,3474.6,691.3,884.8,1389.4,870.5,822.7,754.6,3.0,-11.0,0.0,10020.0,-12892.0,1349.0,32.0,29.0,-25.0,-23.0,11.0,6.0,-3.0,3360.0,-9799.0,-11457.0,5464.0,81.0,-10.0,-12.0,1.0
2022-05-13 15:53:43.090975-07:00,1127.9,769.5,889.8,862.1,720.8,729.9,1756.0,1237.3,3468.6,3466.1,1047.8,890.7,1575.8,3468.6,1214.2,1189.4,3471.0,3475.9,1158.6,1453.4,2034.4,2610.2,1775.2,3483.2,3464.9,3474.6,691.3,885.6,1389.4,873.0,830.2,748.0,0.0,-26.0,8.0,10036.0,-12881.0,1334.0,33.0,32.0,-42.0,-16.0,14.0,0.0,-6.0,3375.0,-9793.0,-11449.0,5482.0,88.0,-1.0,-6.0,1.0
2022-05-13 15:53:43.135400-07:00,1127.9,769.5,889.8,853.7,720.8,724.9,1759.8,1234.6,3468.6,3466.1,1047.8,886.5,1575.8,3472.2,1212.4,1185.9,3471.0,3473.4,1156.8,1453.4,2035.4,2610.2,1775.2,3483.2,3481.9,3473.4,694.6,885.6,1390.3,873.0,830.2,748.0,1.0,1.0,0.0,10051.0,-12870.0,1333.0,32.0,-18.0,1.0,3.0,9.0,0.0,-2.0,3387.0,-9789.0,-11442.0,5497.0,-17.0,0.0,6.0,1.0
2022-05-13 15:53:43.181169-07:00,1118.2,764.5,889.0,853.7,719.2,724.9,1759.8,1234.6,3472.2,3471.0,1047.0,886.5,1575.8,3472.2,1212.4,1185.9,3471.0,3473.4,1156.8,1456.2,2035.4,2593.9,1766.6,3490.5,3481.9,3473.4,694.6,881.4,1390.3,868.8,829.4,745.5,-3.0,1.0,-9.0,10051.0,-12870.0,1337.0,28.0,37.0,15.0,-9.0,4.0,4.0,-2.0,3387.0,-9789.0,-11443.0,5496.0,31.0,7.0,7.0,1.0
2022-05-13 15:53:43.226232-07:00,1118.2,764.5,889.0,849.5,719.2,727.4,1745.4,1236.4,3472.2,3471.0,1047.0,895.7,1575.8,3471.0,1209.7,1184.1,3480.7,3473.4,1159.4,1456.2,2031.4,2593.9,1766.6,3490.5,3475.9,3468.6,689.7,881.4,1389.4,868.8,829.4,745.5,0.0,-1.0,-10.0,10053.0,-12868.0,1337.0,27.0,3.0,2.0,4.0,8.0,8.0,-2.0,3391.0,-9788.0,-11440.0,5501.0,2.0,-3.0,2.0,1.0
2022-05-13 15:53:43.314798-07:00,1124.4,773.6,891.5,849.5,715.1,727.4,1745.4,1236.4,3471.0,3472.2,1053.0,895.7,1573.0,3471.0,1209.7,1184.1,3480.7,3473.4,1159.4,1456.2,2031.4,2610.2,1759.8,3497.8,3475.9,3468.6,689.7,875.5,1389.4,869.6,827.7,748.0,0.0,3.0,-4.0,10055.0,-12867.0,1336.0,28.0,-13.0,-16.0,-9.0,7.0,4.0,-1.0,3393.0,-9787.0,-11439.0,5504.0,-12.0,1.0,-3.0,1.0
2022-05-13 15:53:43.360885-07:00,1124.4,773.6,891.5,859.5,715.9,727.4,1749.3,1246.2,3471.0,3472.2,1053.0,897.4,1576.8,3468.6,1213.3,1185.0,3485.6,3466.1,1155.9,1457.1,2038.4,2610.2,1759.8,3497.8,3471.0,3474.6,684.8,882.3,1398.5,869.6,827.7,748.0,0.0,2.0,-3.0,10057.0,-12865.0,1332.0,28.0,40.0,5.0,0.0,4.0,8.0,-4.0,3396.0,-9786.0,-11438.0,5507.0,30.0,4.0,7.0,1.0
2022-05-13 15:53:43.404778-07:00,1127.9,767.0,889.8,849.5,715.9,727.4,1749.3,1246.2,3469.8,3474.6,1043.5,891.5,1576.8,3468.6,1213.3,1185.0,3485.6,3466.1,1155.9,1457.1,2031.4,2606.9,1760.8,3489.2,3471.0,3474.6,684.8,882.3,1387.5,864.6,828.5,745.5,-2.0,-2.0,-7.0,10054.0,-12868.0,1333.0,27.0,-23.0,1.0,4.0,3.0,-1.0,-2.0,3395.0,-9786.0,-11438.0,5506.0,-13.0,1.0,8.0,1.0
2022-05-13 15:53:43.450392-07:00,1127.9,767.0,889.8,849.5,717.5,720.0,1755.0,1244.4,3469.8,3474.6,1043.5,891.5,1571.1,3463.7,1214.2,1177.9,3475.9,3469.8,1151.5,1459.8,2031.4,2606.9,1760.8,3489.2,3479.5,3469.8,679.1,885.6,1387.5,864.6,828.5,745.5,0.0,6.0,-14.0,10060.0,-12863.0,1333.0,27.0,4.0,-4.0,-8.0,5.0,12.0,-6.0,3399.0,-9785.0,-11436.0,5510.0,1.0,2.0,0.0,1.0
2022-05-13 15:53:43.541644-07:00,1133.1,761.2,895.7,858.7,717.5,720.0,1755.0,1244.4,3469.8,3469.8,1057.3,891.5,1571.1,3463.7,1214.2,1177.9,3475.9,3469.8,1151.5,1459.8,2034.4,2599.3,1762.7,3497.8,3479.5,3469.8,679.1,885.6,1387.5,885.6,835.2,752.1,4.0,1.0,-7.0,10062.0,-12861.0,1333.0,26.0,21.0,2.0,7.0,8.0,7.0,-1.0,3399.0,-9785.0,-11436.0,5511.0,8.0,3.0,2.0,1.0
2022-05-13 15:53:43.543395-07:00,1133.1,761.2,895.7,858.7,715.1,734.0,1757.0,1230.2,3469.8,3469.8,1057.3,891.5,1574.9,3468.6,1212.4,1185.0,3478.3,3472.2,1154.2,1458.0,2034.4,2599.3,1762.7,3497.8,3481.9,3474.6,684.8,885.6,1387.5,885.6,835.2,752.1,2.0,-1.0,0.0,10062.0,-12861.0,1332.0,27.0,1.0,2.0,-3.0,5.0,5.0,-1.0,3399.0,-9785.0,-11436.0,5511.0,6.0,0.0,0.0,1.0
2022-05-13 15:53:43.720639-07:00,1121.7,762.9,888.2,852.8,715.1,734.0,1757.0,1239.1,3469.8,3467.4,1047.0,889.8,1574.9,3468.6,1212.4,1177.9,3469.8,3472.2,1154.2,1458.0,2032.4,2591.8,1753.1,3497.8,3483.2,3474.6,684.8,885.6,1394.8,864.6,826.9,748.8,0.0,1.0,-6.0,10066.0,-12858.0,1332.0,27.0,16.0,-3.0,-2.0,5.0,7.0,-2.0,3402.0,-9784.0,-11434.0,5514.0,11.0,3.0,3.0,1.0
2022-05-13 15:53:43.856657-07:00,1123.5,762.9,888.2,852.8,713.4,728.2,1737.8,1239.1,3464.9,3467.4,1047.0,889.8,1559.0,3472.2,1207.1,1177.9,3469.8,3485.6,1151.5,1461.7,2032.4,2591.8,1753.1,3499.0,3483.2,3485.6,686.4,878.0,1394.8,864.6,826.9,766.2,-4.0,4.0,-9.0,10067.0,-12857.0,1332.0,27.0,-1.0,-1.0,3.0,6.0,7.0,-2.0,3402.0,-9783.0,-11434.0,5515.0,1.0,2.0,6.0,1.0
2022-05-13 15:53:43.860001-07:00,1123.5,763.7,893.2,860.4,713.4,728.2,1737.8,1217.7,3464.9,3472.2,1053.0,894.1,1559.0,3472.2,1207.1,1178.8,3473.4,3485.6,1151.5,1461.7,2032.4,2596.1,1754.1,3499.0,3467.4,3485.6,686.4,878.0,1386.6,869.6,825.2,766.2,-2.0,0.0,-7.0,10067.0,-12858.0,1332.0,27.0,9.0,-11.0,-9.0,5.0,6.0,0.0,3402.0,-9783.0,-11434.0,5515.0,5.0,3.0,0.0,1.0
2022-05-13 15:53:43.861119-07:00,1126.1,763.7,893.2,860.4,713.4,723.3,1736.8,1217.7,3474.6,3472.2,1053.0,894.1,1561.8,3468.6,1212.4,1178.8,3473.4,3468.6,1151.5,1481.0,2032.4,2596.1,1754.1,3497.8,3467.4,3483.2,680.7,878.9,1386.6,869.6,825.2,747.2,0.0,-2.0,-4.0,10064.0,-12861.0,1324.0,31.0,-34.0,-30.0,-12.0,6.0,5.0,-1.0,3401.0,-9784.0,-11435.0,5513.0,-19.0,2.0,3.0,1.0
2022-05-13 15:53:43.862349-07:00,1126.1,762.9,891.5,850.3,713.4,723.3,1736.8,1231.9,3474.6,3467.4,1047.0,890.7,1561.8,3468.6,1212.4,1176.2,3467.4,3468.6,1151.5,1481.0,2031.4,2604.8,1749.3,3497.8,3477.1,3483.2,680.7,878.9,1386.6,873.0,831.9,747.2,2.0,1.0,0.0,10059.0,-12865.0,1319.0,36.0,17.0,12.0,5.0,5.0,6.0,0.0,3400.0,-9784.0,-11435.0,5512.0,20.0,-4.0,6.0,1.0
2022-05-13 15:53:43.900347-07:00,1121.7,763.7,891.5,850.3,725.8,728.2,1733.0,1231.9,3479.5,3478.3,1047.0,890.7,1565.5,3478.3,1216.0,1176.2,3467.4,3480.7,1157.7,1460.8,2031.4,2604.8,1749.3,3489.2,3477.1,3479.5,683.1,869.6,1386.6,873.0,828.5,745.5,0.0,-3.0,-8.0,10061.0,-12863.0,1322.0,32.0,-6.0,1.0,1.0,6.0,5.0,-6.0,3401.0,-9784.0,-11435.0,5513.0,-5.0,6.0,7.0,1.0
2022-05-13 15:53:43.992722-07:00,1121.7,763.7,887.3,858.7,725.8,728.2,1733.0,1231.9,3479.5,3478.3,1054.8,889.0,1565.5,3478.3,1208.0,1175.3,3473.4,3478.3,1157.7,1460.8,2028.4,2604.8,1749.3,3489.2,3474.6,3472.2,683.1,869.6,1387.5,864.6,828.5,745.5,-1.0,5.0,-5.0,10058.0,-12865.0,1322.0,32.0,-1.0,-5.0,-5.0,5.0,4.0,-4.0,3401.0,-9784.0,-11435.0,5513.0,-6.0,2.0,3.0,1.0
2022-05-13 15:53:43.993983-07:00,1116.5,764.5,887.3,858.7,725.8,720.0,1733.0,1231.9,3469.8,3473.4,1054.8,889.0,1571.1,3472.2,1208.0,1175.3,3473.4,3478.3,1153.3,1444.2,2028.4,2604.8,1742.6,3488.0,3474.6,3472.2,686.4,879.7,1387.5,864.6,824.4,738.9,-2.0,1.0,-11.0,10059.0,-12865.0,1320.0,33.0,-11.0,-26.0,-6.0,6.0,4.0,0.0,3401.0,-9784.0,-11434.0,5513.0,-9.0,0.0,0.0,1.0
2022-05-13 15:53:43.995090-07:00,1116.5,764.5,895.7,866.3,725.8,720.0,1733.0,1232.8,3469.8,3473.4,1056.5,892.4,1571.1,3472.2,1209.7,1175.3,3472.2,3473.4,1153.3,1444.2,2029.4,2603.7,1742.6,3488.0,3483.2,3475.9,686.4,879.7,1401.2,871.3,824.4,738.9,4.0,3.0,-5.0,10054.0,-12870.0,1309.0,46.0,-21.0,-37.0,-20.0,7.0,7.0,-1.0,3399.0,-9785.0,-11436.0,5511.0,-12.0,-1.0,0.0,1.0
2022-05-13 15:53:44.081922-07:00,1112.1,761.2,895.7,866.3,716.7,720.8,1733.0,1232.8,3467.4,3478.3,1056.5,892.4,1562.7,3467.4,1209.7,1175.3,3472.2,3473.4,1151.5,1460.8,2029.4,2603.7,1745.4,3488.0,3483.2,3475.9,675.8,880.6,1401.2,871.3,825.2,737.3,0.0,-3.0,-6.0,10055.0,-12870.0,1296.0,47.0,7.0,7.0,-4.0,4.0,3.0,-3.0,3401.0,-9784.0,-11435.0,5512.0,6.0,0.0,0.0,1.0
2022-05-13 15:53:44.084007-07:00,1112.1,761.2,889.8,855.3,716.7,718.4,1730.1,1228.4,3467.4,3478.3,1053.0,895.7,1562.7,3478.3,1210.6,1178.8,3474.6,3479.5,1155.9,1460.8,2022.4,2608.0,1745.4,3488.0,3471.0,3479.5,679.1,880.6,1381.2,869.6,825.2,737.3,-1.0,5.0,-3.0,10053.0,-12872.0,1297.0,48.0,-5.0,-6.0,1.0,3.0,6.0,-1.0,3400.0,-9784.0,-11435.0,5512.0,2.0,5.0,6.0,1.0
2022-05-13 15:53:44.172411-07:00,1121.7,765.3,893.2,855.3,719.2,718.4,1730.1,1228.4,3467.4,3468.6,1048.7,895.7,1555.3,3478.3,1210.6,1178.8,3474.6,3479.5,1155.9,1448.8,2022.4,2605.8,1736.8,3486.8,3471.0,3479.5,679.1,874.7,1381.2,864.6,828.5,747.2,0.0,-1.0,-9.0,10053.0,-12872.0,1296.0,48.0,9.0,-6.0,-4.0,6.0,8.0,-6.0,3401.0,-9784.0,-11435.0,5513.0,7.0,-1.0,0.0,1.0
2022-05-13 15:53:44.264320-07:00,1121.7,765.3,893.2,850.3,719.2,724.1,1729.1,1229.3,3467.4,3468.6,1048.7,884.8,1555.3,3479.5,1207.1,1175.3,3462.5,3473.4,1155.0,1448.8,2031.4,2605.8,1736.8,3486.8,3474.6,3471.0,683.1,874.7,1387.5,864.6,828.5,747.2,0.0,-1.0,-1.0,10056.0,-12870.0,1296.0,47.0,25.0,6.0,-6.0,6.0,5.0,-5.0,3402.0,-9784.0,-11434.0,5514.0,18.0,-6.0,-1.0,1.0
2022-05-13 15:53:44.265529-07:00,1116.5,769.5,887.3,850.3,719.2,724.1,1729.1,1229.3,3475.9,3467.4,1053.9,884.8,1559.0,3479.5,1207.1,1175.3,3462.5,3473.4,1155.0,1457.1,2031.4,2608.0,1732.0,3486.8,3474.6,3471.0,683.1,878.9,1387.5,870.5,827.7,752.1,1.0,-1.0,-2.0,10063.0,-12864.0,1296.0,47.0,60.0,7.0,4.0,5.0,0.0,-5.0,3410.0,-9781.0,-11429.0,5524.0,69.0,-5.0,4.0,1.0
2022-05-13 15:53:44.351572-07:00,1116.5,769.5,887.3,847.8,719.2,725.8,1719.6,1220.4,3475.9,3467.4,1053.9,892.4,1559.0,3462.5,1204.4,1174.4,3478.3,3473.4,1153.3,1457.1,2037.4,2608.0,1732.0,3486.8,3473.4,3461.3,683.1,878.9,1403.0,870.5,827.7,752.1,-2.0,-14.0,13.0,10089.0,-12844.0,1297.0,38.0,220.0,33.0,-39.0,4.0,-19.0,-1.0,3436.0,-9770.0,-11413.0,5560.0,200.0,-17.0,12.0,1.0
2022-05-13 15:53:44.352774-07:00,1108.6,762.9,888.2,847.8,711.8,725.8,1719.6,1220.4,3473.4,3462.5,1074.7,892.4,1559.9,3462.5,1204.4,1174.4,3478.3,3473.4,1153.3,1458.0,2037.4,2609.1,1740.6,3495.3,3473.4,3461.3,683.1,876.4,1403.0,867.9,822.7,738.1,-5.0,82.0,5.0,10201.0,-12756.0,1292.0,-55.0,295.0,286.0,-285.0,-6.0,37.0,-13.0,3539.0,-9726.0,-11348.0,5705.0,561.0,-51.0,-12.0,1.0
2022-05-13 15:53:44.397531-07:00,1108.6,762.9,888.2,855.3,720.0,725.8,1757.0,1252.4,3473.4,3462.5,1074.7,899.1,1559.0,3468.6,1205.3,1180.6,3473.4,3478.3,1153.3,1463.5,2022.4,2609.1,1740.6,3495.3,3475.9,3473.4,683.1,874.7,1393.9,867.9,822.7,738.1,-26.0,-177.0,-13.0,10150.0,-12795.0,1280.0,-240.0,-129.0,290.0,-61.0,6.0,-67.0,10.0,3608.0,-9687.0,-11319.0,5786.0,192.0,7.0,-32.0,1.0
2022-05-13 15:53:44.442314-07:00,1105.1,750.5,898.3,852.0,720.0,725.8,1757.0,1252.4,3472.2,3473.4,1160.3,930.5,1559.0,3468.6,1205.3,1180.6,3473.4,3478.3,1153.3,1463.5,2023.4,2609.1,1759.8,3496.6,3475.9,3473.4,683.1,874.7,1388.5,864.6,820.2,744.7,-15.0,-83.0,-82.0,10176.0,-12765.0,1375.0,-241.0,497.0,-36.0,411.0,0.0,28.0,-43.0,3736.0,-9638.0,-11234.0,5949.0,674.0,-60.0,38.0,1.0
2022-05-13 15:53:44.485445-07:00,1105.1,750.5,898.3,852.0,718.4,720.0,2188.1,1360.3,3472.2,3473.4,1160.3,930.5,1559.0,3462.5,1260.4,1239.9,3472.2,3472.2,1151.5,1467.2,2023.4,2609.1,1759.8,3496.6,3477.1,3472.2,706.9,891.5,1388.5,864.6,820.2,744.7,36.0,116.0,-20.0,10330.0,-12633.0,1448.0,-176.0,99.0,144.0,0.0,5.0,45.0,1.0,3852.0,-9568.0,-11143.0,6154.0,525.0,-112.0,-10.0,1.0
2022-05-13 15:53:44.532274-07:00,1090.3,738.1,899.1,848.6,718.4,720.0,2188.1,1360.3,3469.8,3472.2,1225.7,973.1,1559.0,3462.5,1260.4,1239.9,3472.2,3472.2,1151.5,1467.2,2027.4,2597.2,1688.1,3495.3,3477.1,3472.2,706.9,891.5,1392.1,860.4,824.4,744.7,-36.0,-56.0,44.0,10380.0,-12585.0,1497.0,-257.0,470.0,199.0,63.0,0.0,-4.0,38.0,3941.0,-9501.0,-11090.0,6297.0,504.0,-49.0,-29.0,1.0
2022-05-13 15:53:44.577288-07:00,1090.3,738.1,899.1,848.6,713.4,732.3,2328.5,1577.7,3469.8,3472.2,1225.7,973.1,1569.3,3469.8,1296.3,1283.7,3480.7,3473.4,1155.0,1469.0,2027.4,2597.2,1688.1,3495.3,3477.1,3474.6,736.5,921.1,1392.1,860.4,824.4,744.7,0.0,27.0,4.0,10492.0,-12486.0,1538.0,-289.0,-73.0,49.0,-14.0,-3.0,6.0,14.0,4029.0,-9455.0,-11025.0,6424.0,153.0,-33.0,24.0,1.0
2022-05-13 15:53:44.622231-07:00,1092.1,734.8,893.2,849.5,713.4,732.3,2328.5,1607.7,3478.3,3469.8,1255.1,974.8,1569.3,3469.8,1296.3,1292.7,3477.1,3473.4,1155.0,1469.0,2035.4,2614.5,1635.0,3500.2,3483.2,3474.6,736.5,921.1,1392.1,878.0,821.0,744.7,24.0,-26.0,-14.0,10479.0,-12496.0,1541.0,-299.0,165.0,20.0,26.0,12.0,3.0,-13.0,4043.0,-9450.0,-10998.0,6468.0,190.0,-26.0,50.0,1.0
2022-05-13 15:53:44.711573-07:00,1098.2,734.8,893.2,849.5,717.5,753.8,2310.8,1607.7,3478.3,3469.8,1255.1,974.8,1584.2,3469.8,1303.4,1292.7,3477.1,3467.4,1155.0,1471.8,2035.4,2614.5,1635.0,3502.7,3483.2,3479.5,748.8,916.0,1392.1,878.0,821.0,745.5,5.0,36.0,-33.0,10509.0,-12468.0,1559.0,-327.0,-177.0,113.0,-84.0,4.0,32.0,-19.0,4074.0,-9440.0,-10964.0,6521.0,16.0,-13.0,12.0,1.0
2022-05-13 15:53:44.800420-07:00,1098.2,743.0,882.3,855.3,717.5,753.8,2310.8,1646.4,3478.3,3467.4,1282.8,985.0,1584.2,3469.8,1303.4,1324.1,3472.2,3467.4,1155.0,1471.8,2039.4,2608.0,1618.1,3502.7,3475.9,3479.5,748.8,916.0,1383.0,873.0,821.0,745.5,-11.0,-18.0,-18.0,10456.0,-12512.0,1556.0,-371.0,-29.0,17.0,-37.0,-3.0,4.0,-13.0,4065.0,-9439.0,-10968.0,6520.0,57.0,-23.0,-2.0,1.0
2022-05-13 15:53:44.849844-07:00,1090.3,743.0,882.3,855.3,717.5,756.3,2290.0,1646.4,3464.9,3467.4,1282.8,985.0,1584.2,3474.6,1324.1,1324.1,3472.2,3483.2,1152.4,1480.1,2039.4,2608.0,1618.1,3484.4,3475.9,3467.4,749.6,908.4,1383.0,873.0,821.0,743.9,-1.0,-20.0,-6.0,10442.0,-12524.0,1551.0,-384.0,-75.0,14.0,-25.0,10.0,0.0,9.0,4067.0,-9430.0,-10966.0,6535.0,-2.0,-30.0,-10.0,1.0
2022-05-13 15:53:44.851017-07:00,1090.3,739.7,885.6,857.0,717.5,756.3,2290.0,1606.8,3464.9,3468.6,1267.6,978.2,1584.2,3474.6,1324.1,1324.1,3475.9,3483.2,1152.4,1480.1,2022.4,2613.4,1599.3,3484.4,3473.4,3467.4,749.6,908.4,1393.9,875.5,825.2,743.9,0.0,15.0,7.0,10438.0,-12526.0,1555.0,-392.0,20.0,57.0,25.0,7.0,20.0,18.0,4067.0,-9421.0,-10965.0,6551.0,6.0,-17.0,4.0,1.0
2022-05-13 15:53:44.892246-07:00,1089.5,734.8,885.6,857.0,720.0,753.8,2241.4,1606.8,3473.4,3472.2,1267.6,978.2,1614.3,3475.9,1315.1,1324.1,3475.9,3478.3,1147.1,1481.0,2022.4,2613.4,1584.2,3486.8,3473.4,3475.9,736.5,901.7,1393.9,875.5,822.7,758.7,-8.0,6.0,-11.0,10433.0,-12526.0,1590.0,-408.0,11.0,42.0,11.0,6.0,15.0,14.0,4061.0,-9425.0,-10966.0,6546.0,-35.0,6.0,14.0,1.0
2022-05-13 15:53:44.936801-07:00,1089.5,734.8,897.4,863.7,720.0,753.8,2216.8,1589.9,3473.4,3472.2,1261.3,974.8,1614.3,3475.9,1322.3,1320.5,3479.5,3478.3,1147.1,1481.0,2041.4,2615.6,1584.2,3486.8,3473.4,3479.5,736.5,901.7,1397.6,874.7,822.7,758.7,-6.0,-11.0,-16.0,10421.0,-12534.0,1603.0,-407.0,-43.0,26.0,14.0,2.0,0.0,-6.0,4046.0,-9433.0,-10976.0,6528.0,-31.0,1.0,0.0,1.0
2022-05-13 15:53:44.979923-07:00,1088.6,736.5,897.4,863.7,713.4,748.0,2216.8,1589.9,3464.9,3466.1,1261.3,974.8,1615.2,3475.9,1322.3,1320.5,3479.5,3478.3,1148.0,1472.7,2041.4,2615.6,1564.6,3488.0,3473.4,3479.5,733.2,891.5,1397.6,874.7,821.9,758.7,-6.0,5.0,-27.0,10414.0,-12538.0,1622.0,-409.0,-5.0,-4.0,3.0,2.0,-2.0,-7.0,4042.0,-9435.0,-10979.0,6522.0,-18.0,-13.0,2.0,1.0
2022-05-13 15:53:45.028212-07:00,1088.6,736.5,899.1,858.7,713.4,748.0,2184.0,1554.3,3464.9,3466.1,1246.2,975.6,1615.2,3475.9,1332.3,1314.2,3478.3,3477.1,1148.0,1472.7,2036.4,2611.3,1564.6,3488.0,3474.6,3478.3,733.2,891.5,1393.0,894.9,821.9,758.7,-8.0,-29.0,0.0,10401.0,-12549.0,1616.0,-400.0,-28.0,-46.0,-20.0,4.0,-10.0,1.0,4024.0,-9436.0,-10989.0,6515.0,18.0,-22.0,-12.0,1.0
2022-05-13 15:53:45.073084-07:00,1082.5,724.9,899.1,858.7,714.2,751.3,2184.0,1554.3,3466.1,3473.4,1246.2,975.6,1631.3,3466.1,1332.3,1314.2,3478.3,3477.1,1149.8,1466.3,2036.4,2611.3,1561.8,3488.0,3474.6,3478.3,732.3,897.4,1393.0,894.9,825.2,771.1,-3.0,-15.0,2.0,10409.0,-12544.0,1604.0,-391.0,32.0,-31.0,-27.0,3.0,-30.0,4.0,4021.0,-9431.0,-10991.0,6521.0,29.0,-5.0,-1.0,1.0
2022-05-13 15:53:45.206822-07:00,1082.5,724.9,898.3,867.1,714.2,751.3,2187.1,1550.6,3466.1,3473.4,1242.6,969.6,1631.3,3466.1,1325.9,1318.7,3475.9,3478.3,1149.8,1466.3,2035.4,2612.3,1561.8,3488.0,3478.3,3479.5,732.3,897.4,1395.7,867.9,825.2,771.1,10.0,14.0,0.0,10422.0,-12537.0,1579.0,-377.0,-13.0,-39.0,1.0,3.0,36.0,-3.0,4017.0,-9430.0,-10993.0,6521.0,-101.0,-5.0,-5.0,1.0
2022-05-13 15:53:45.208374-07:00,1084.2,727.4,898.3,867.1,720.8,743.9,2187.1,1550.6,3474.6,3463.7,1246.2,969.6,1634.1,3474.6,1325.9,1318.7,3475.9,3478.3,1141.9,1470.0,2035.4,2614.5,1550.6,3505.1,3478.3,3479.5,723.3,890.7,1395.7,874.7,818.5,776.1,-5.0,-31.0,9.0,10399.0,-12555.0,1592.0,-375.0,-19.0,29.0,23.0,4.0,-24.0,5.0,3996.0,-9438.0,-11008.0,6496.0,26.0,13.0,10.0,1.0
2022-05-13 15:53:45.250458-07:00,1084.2,727.4,898.3,859.5,720.8,748.8,2168.7,1562.7,3474.6,3463.7,1246.2,977.3,1634.1,3467.4,1325.0,1314.2,3473.4,3474.6,1148.0,1470.0,2029.4,2614.5,1550.6,3505.1,3467.4,3472.2,737.3,890.7,1389.4,874.7,818.5,776.1,-2.0,6.0,-9.0,10400.0,-12554.0,1592.0,-368.0,-16.0,-25.0,-18.0,5.0,10.0,-8.0,3996.0,-9440.0,-11008.0,6495.0,-19.0,4.0,-4.0,1.0
2022-05-13 15:53:45.295392-07:00,1076.4,728.2,895.7,859.5,719.2,748.8,2168.7,1562.7,3475.9,3462.5,1236.4,977.3,1634.1,3467.4,1325.0,1314.2,3473.4,3474.6,1148.0,1473.6,2029.4,2610.2,1539.4,3490.5,3467.4,3472.2,737.3,887.3,1389.4,871.3,821.0,775.3,-7.0,-23.0,-5.0,10378.0,-12573.0,1592.0,-366.0,-114.0,15.0,15.0,2.0,-17.0,2.0,3974.0,-9449.0,-11023.0,6468.0,-55.0,5.0,2.0,1.0
2022-05-13 15:53:45.431471-07:00,1076.4,728.2,895.7,865.4,719.2,752.1,2168.7,1533.8,3475.9,3462.5,1236.4,973.1,1634.1,3469.8,1324.1,1303.4,3467.4,3467.4,1143.6,1473.6,2031.4,2610.2,1539.4,3490.5,3466.1,3478.3,731.5,887.3,1393.0,871.3,821.0,775.3,0.0,9.0,-7.0,10365.0,-12584.0,1588.0,-356.0,6.0,-46.0,-6.0,5.0,11.0,0.0,3972.0,-9450.0,-11025.0,6466.0,5.0,-5.0,-6.0,1.0
2022-05-13 15:53:45.432767-07:00,1072.9,728.2,903.4,865.4,729.0,752.1,2168.7,1533.8,3475.9,3463.7,1235.5,973.1,1628.4,3469.8,1324.1,1303.4,3467.4,3467.4,1143.6,1472.7,2031.4,2605.8,1532.9,3499.0,3466.1,3478.3,731.5,876.4,1393.0,876.4,825.2,760.4,0.0,-2.0,0.0,10367.0,-12583.0,1583.0,-350.0,6.0,18.0,17.0,4.0,-5.0,6.0,3970.0,-9449.0,-11029.0,6462.0,-22.0,-4.0,-4.0,1.0
2022-05-13 15:53:45.522917-07:00,1072.9,728.2,903.4,863.7,725.8,749.6,2173.8,1544.1,3475.9,3463.7,1235.5,967.1,1615.2,3457.6,1320.5,1306.1,3474.6,3483.2,1151.5,1466.3,2023.4,2605.8,1532.9,3499.0,3483.2,3472.2,727.4,877.2,1386.6,876.4,825.2,760.4,-5.0,2.0,-8.0,10372.0,-12579.0,1588.0,-351.0,27.0,-31.0,-16.0,6.0,8.0,4.0,3971.0,-9449.0,-11029.0,6462.0,17.0,8.0,3.0,1.0
2022-05-13 15:53:45.612385-07:00,1075.6,729.0,904.2,867.9,725.8,749.6,2173.8,1544.1,3467.4,3471.0,1234.6,969.6,1615.2,3457.6,1320.5,1306.1,3474.6,3483.2,1151.5,1466.3,2035.4,2598.3,1536.6,3486.8,3483.2,3472.2,727.4,877.2,1390.3,873.0,822.7,773.6,-4.0,18.0,-5.0,10369.0,-12582.0,1583.0,-348.0,-71.0,33.0,5.0,1.0,2.0,0.0,3961.0,-9453.0,-11036.0,6450.0,-74.0,4.0,-6.0,1.0
2022-05-13 15:53:45.614459-07:00,1075.6,729.0,904.2,867.9,714.2,744.7,2170.7,1546.9,3467.4,3471.0,1234.6,969.6,1631.3,3469.8,1325.9,1302.5,3474.6,3478.3,1150.6,1468.1,2035.4,2598.3,1536.6,3486.8,3473.4,3477.1,721.6,879.7,1390.3,873.0,822.7,773.6,1.0,10.0,-14.0,10357.0,-12590.0,1587.0,-351.0,-7.0,-28.0,-2.0,7.0,19.0,-6.0,3957.0,-9455.0,-11039.0,6445.0,-3.0,0.0,-1.0,1.0
2022-05-13 15:53:45.656530-07:00,1079.9,729.9,905.0,863.7,714.2,744.7,2170.7,1546.9,3466.1,3466.1,1227.5,974.8,1631.3,3469.8,1325.9,1302.5,3474.6,3478.3,1150.6,1468.1,2029.4,2605.8,1530.1,3492.9,3473.4,3477.1,721.6,879.7,1390.3,873.8,817.7,754.6,0.0,6.0,-1.0,10347.0,-12600.0,1585.0,-347.0,-54.0,19.0,15.0,5.0,13.0,-1.0,3946.0,-9459.0,-11047.0,6431.0,-50.0,1.0,-10.0,1.0
2022-05-13 15:53:45.657765-07:00,1079.9,729.9,905.0,863.7,725.8,752.1,2151.4,1542.2,3466.1,3466.1,1227.5,974.8,1610.5,3467.4,1319.6,1299.0,3489.2,3467.4,1146.3,1466.3,2029.4,2605.8,1530.1,3492.9,3472.2,3473.4,722.5,871.3,1390.3,873.8,817.7,754.6,4.0,7.0,-6.0,10329.0,-12613.0,1591.0,-345.0,10.0,-37.0,-4.0,8.0,22.0,-5.0,3939.0,-9463.0,-11053.0,6420.0,23.0,6.0,1.0,1.0
2022-05-13 15:53:45.702471-07:00,1072.9,723.3,911.8,857.9,725.8,752.1,2151.4,1529.2,3467.4,3471.0,1231.0,968.8,1610.5,3467.4,1319.6,1299.8,3461.3,3467.4,1146.3,1466.3,2030.4,2606.9,1535.7,3497.8,3478.3,3473.4,722.5,871.3,1394.8,873.8,822.7,763.7,0.0,12.0,-8.0,10331.0,-12613.0,1588.0,-341.0,-12.0,1.0,-8.0,8.0,16.0,-2.0,3938.0,-9462.0,-11055.0,6418.0,-12.0,1.0,-10.0,1.0
2022-05-13 15:53:45.745442-07:00,1073.8,723.3,911.8,857.9,710.1,743.0,2138.2,1529.2,3468.6,3471.0,1231.0,968.8,1604.9,3474.6,1323.2,1299.8,3461.3,3483.2,1148.0,1470.0,2030.4,2606.9,1535.7,3496.6,3478.3,3471.0,724.1,869.6,1394.8,873.8,822.7,758.7,-8.0,-13.0,-9.0,10318.0,-12623.0,1588.0,-339.0,-4.0,-36.0,-2.0,5.0,13.0,0.0,3930.0,-9465.0,-11061.0,6407.0,9.0,-4.0,-2.0,1.0
2022-05-13 15:53:45.837419-07:00,1073.8,735.6,905.9,858.7,710.1,743.0,2138.2,1526.4,3468.6,3469.8,1223.9,965.4,1604.9,3474.6,1323.2,1310.6,3479.5,3483.2,1148.0,1470.0,2026.4,2606.9,1524.5,3496.6,3478.3,3471.0,724.1,869.6,1380.3,873.8,825.2,758.7,-1.0,-6.0,-7.0,10314.0,-12628.0,1578.0,-327.0,-14.0,-44.0,-10.0,3.0,-2.0,-3.0,3926.0,-9466.0,-11066.0,6399.0,-14.0,-8.0,-10.0,1.0
2022-05-13 15:53:45.838593-07:00,1074.7,735.6,905.9,858.7,717.5,738.1,2137.2,1526.4,3478.3,3469.8,1223.9,965.4,1601.1,3467.4,1313.3,1310.6,3479.5,3480.7,1148.0,1469.0,2026.4,2606.9,1524.5,3491.7,3478.3,3480.7,722.5,867.1,1380.3,873.8,825.2,764.5,0.0,10.0,-2.0,10311.0,-12631.0,1571.0,-319.0,-18.0,8.0,2.0,3.0,7.0,1.0,3922.0,-9468.0,-11069.0,6395.0,-20.0,-2.0,-3.0,1.0
2022-05-13 15:53:45.880393-07:00,1074.7,722.5,906.7,862.9,717.5,738.1,2137.2,1521.8,3478.3,3471.0,1223.9,962.0,1601.1,3467.4,1313.3,1299.0,3477.1,3480.7,1148.0,1469.0,2022.4,2612.3,1525.5,3491.7,3464.9,3480.7,722.5,867.1,1387.5,873.8,821.0,764.5,3.0,2.0,-3.0,10306.0,-12636.0,1570.0,-317.0,-29.0,-2.0,0.0,4.0,7.0,-1.0,3918.0,-9469.0,-11072.0,6390.0,-27.0,-1.0,-6.0,1.0
2022-05-13 15:53:46.016085-07:00,1077.3,722.5,906.7,862.9,718.4,738.1,2140.2,1521.8,3468.6,3472.2,1223.9,962.0,1609.6,3464.9,1317.8,1299.0,3477.1,3483.2,1146.3,1474.6,2022.4,2612.3,1526.4,3491.7,3464.9,3483.2,722.5,872.1,1387.5,873.8,823.5,762.9,-3.0,7.0,-4.0,10300.0,-12640.0,1572.0,-318.0,-18.0,13.0,-1.0,3.0,3.0,4.0,3914.0,-9471.0,-11075.0,6384.0,-21.0,3.0,1.0,1.0
2022-05-13 15:53:46.017785-07:00,1077.3,722.5,897.4,864.6,718.4,738.1,2133.1,1520.8,3468.6,3472.2,1220.4,956.0,1609.6,3464.9,1316.9,1299.8,3471.0,3471.0,1146.3,1474.6,2026.4,2606.9,1526.4,3491.7,3478.3,3475.9,722.5,872.1,1389.4,877.2,823.5,762.9,3.0,5.0,-5.0,10294.0,-12645.0,1571.0,-317.0,-13.0,14.0,5.0,6.0,15.0,-10.0,3910.0,-9473.0,-11078.0,6379.0,-24.0,1.0,1.0,1.0
2022-05-13 15:53:46.018899-07:00,1077.3,725.8,897.4,864.6,720.8,745.5,2133.1,1520.8,3471.0,3483.2,1220.4,956.0,1602.1,3467.4,1316.9,1299.8,3471.0,3471.0,1147.1,1470.9,2026.4,2606.9,1520.8,3486.8,3478.3,3475.9,720.8,865.4,1389.4,877.2,826.0,760.4,-5.0,-13.0,-7.0,10285.0,-12651.0,1581.0,-327.0,-16.0,26.0,-6.0,5.0,-9.0,3.0,3901.0,-9477.0,-11085.0,6366.0,-20.0,10.0,-1.0,1.0
2022-05-13 15:53:46.105509-07:00,1077.3,725.8,898.3,861.2,720.8,745.5,2130.1,1524.5,3471.0,3483.2,1226.6,967.1,1602.1,3467.4,1311.5,1295.4,3477.1,3481.9,1147.1,1470.9,2023.4,2610.2,1520.8,3486.8,3477.1,3479.5,720.8,865.4,1390.3,867.9,826.0,760.4,0.0,10.0,-12.0,10286.0,-12651.0,1578.0,-329.0,-32.0,-11.0,-14.0,6.0,12.0,-4.0,3902.0,-9477.0,-11084.0,6367.0,-21.0,3.0,1.0,1.0
2022-05-13 15:53:46.197533-07:00,1072.9,718.4,898.3,861.2,714.2,745.5,2130.1,1524.5,3471.0,3469.8,1226.6,967.1,1604.9,3472.2,1311.5,1295.4,3477.1,3481.9,1150.6,1470.0,2023.4,2610.2,1517.1,3497.8,3477.1,3479.5,720.8,862.1,1390.3,867.9,821.0,752.1,3.0,5.0,-3.0,10277.0,-12658.0,1575.0,-327.0,-17.0,-2.0,2.0,7.0,3.0,-1.0,3897.0,-9479.0,-11088.0,6360.0,-11.0,4.0,8.0,1.0
2022-05-13 15:53:46.199088-07:00,1072.9,718.4,902.5,872.1,714.2,745.5,2125.0,1516.2,3471.0,3469.8,1220.4,956.8,1604.9,3472.2,1311.5,1290.9,3473.4,3477.1,1150.6,1470.0,2025.4,2614.5,1517.1,3497.8,3478.3,3478.3,720.8,862.1,1382.1,876.4,821.0,752.1,-2.0,-2.0,-4.0,10272.0,-12662.0,1575.0,-326.0,-19.0,11.0,0.0,5.0,3.0,-5.0,3893.0,-9481.0,-11091.0,6355.0,-21.0,3.0,7.0,1.0
2022-05-13 15:53:46.332284-07:00,1068.6,723.3,894.9,872.1,719.2,747.2,2125.0,1516.2,3467.4,3469.8,1209.7,956.8,1598.3,3466.1,1311.5,1290.9,3473.4,3477.1,1148.0,1463.5,2025.4,2597.2,1515.3,3495.3,3478.3,3478.3,715.1,863.7,1382.1,863.7,825.2,763.7,-1.0,4.0,-8.0,10268.0,-12666.0,1573.0,-323.0,-3.0,-30.0,-3.0,9.0,1.0,-1.0,3891.0,-9483.0,-11090.0,6354.0,6.0,3.0,9.0,1.0
2022-05-13 15:53:46.333539-07:00,1068.6,723.3,894.9,865.4,719.2,740.6,2102.7,1528.3,3467.4,3469.8,1209.7,959.4,1598.3,3464.9,1312.4,1292.7,3478.3,3473.4,1170.0,1463.5,2031.4,2597.2,1515.3,3495.3,3467.4,3478.3,725.8,863.7,1388.5,863.7,825.2,763.7,-5.0,-4.0,-2.0,10263.0,-12670.0,1571.0,-320.0,-7.0,12.0,6.0,0.0,4.0,-7.0,3885.0,-9486.0,-11094.0,6347.0,-13.0,-1.0,4.0,1.0
2022-05-13 15:53:46.334764-07:00,1070.3,699.5,902.5,865.4,714.2,740.6,2102.7,1528.3,3464.9,3468.6,1219.5,959.4,1596.4,3464.9,1312.4,1292.7,3478.3,3473.4,1170.0,1472.7,2031.4,2609.1,1518.0,3494.1,3467.4,3478.3,725.8,862.9,1388.5,868.8,814.4,765.3,0.0,4.0,-6.0,10262.0,-12671.0,1571.0,-319.0,-14.0,-13.0,-5.0,5.0,9.0,2.0,3885.0,-9486.0,-11095.0,6346.0,-10.0,-3.0,-1.0,1.0
2022-05-13 15:53:46.375355-07:00,1070.3,699.5,902.5,854.5,714.2,740.6,2112.8,1504.1,3464.9,3468.6,1219.5,956.0,1596.4,3479.5,1316.0,1289.1,3462.5,3478.3,1142.7,1472.7,2022.4,2609.1,1518.0,3494.1,3468.6,3467.4,720.0,862.9,1385.7,868.8,814.4,765.3,5.0,-4.0,-3.0,10261.0,-12673.0,1567.0,-316.0,-6.0,-8.0,-6.0,6.0,0.0,-4.0,3883.0,-9487.0,-11096.0,6344.0,-11.0,-7.0,-1.0,1.0
2022-05-13 15:53:46.422297-07:00,1084.2,719.2,896.6,854.5,713.4,740.6,2112.8,1504.1,3472.2,3460.1,1220.4,956.0,1589.9,3479.5,1316.0,1289.1,3462.5,3478.3,1142.7,1464.4,2022.4,2604.8,1513.4,3490.5,3468.6,3467.4,720.0,866.3,1385.7,867.9,821.9,738.9,-1.0,-7.0,0.0,10259.0,-12674.0,1567.0,-315.0,-5.0,-2.0,-1.0,3.0,5.0,-3.0,3882.0,-9487.0,-11097.0,6342.0,-18.0,-3.0,4.0,1.0
2022-05-13 15:53:46.467822-07:00,1084.2,719.2,896.6,857.9,710.1,735.6,2119.9,1516.2,3472.2,3460.1,1220.4,956.0,1599.3,3478.3,1314.2,1286.4,3488.0,3473.4,1147.1,1470.0,2030.4,2604.8,1513.4,3490.5,3474.6,3477.1,722.5,856.2,1389.4,867.9,821.9,738.9,-3.0,-2.0,-6.0,10257.0,-12676.0,1567.0,-315.0,-19.0,-8.0,-2.0,3.0,1.0,0.0,3879.0,-9488.0,-11098.0,6339.0,-20.0,2.0,5.0,1.0
2022-05-13 15:53:46.512916-07:00,1069.5,718.4,897.4,859.5,710.1,735.6,2119.9,1516.2,3472.2,3466.1,1224.8,956.0,1599.3,3478.3,1314.2,1286.4,3488.0,3473.4,1147.1,1470.0,2036.4,2601.5,1510.6,3489.2,3474.6,3477.1,722.5,856.2,1393.0,868.8,823.5,755.4,0.0,9.0,-6.0,10255.0,-12678.0,1565.0,-312.0,-13.0,-9.0,-4.0,7.0,13.0,-3.0,3879.0,-9489.0,-11099.0,6339.0,-12.0,-4.0,0.0,1.0
2022-05-13 15:53:46.685359-07:00,1069.5,718.4,897.4,859.5,719.2,731.5,2112.8,1507.8,3472.2,3466.1,1224.8,956.0,1594.6,3457.6,1309.7,1289.1,3480.7,3478.3,1146.3,1470.0,2036.4,2601.5,1510.6,3489.2,3467.4,3479.5,720.8,857.9,1393.0,868.8,823.5,755.4,-3.0,7.0,-9.0,10252.0,-12680.0,1565.0,-312.0,-8.0,-14.0,1.0,3.0,5.0,5.0,3876.0,-9490.0,-11100.0,6336.0,-4.0,3.0,0.0,1.0
2022-05-13 15:53:46.706221-07:00,1068.6,714.2,901.7,852.8,719.2,731.5,2112.8,1507.8,3478.3,3473.4,1224.8,957.7,1594.6,3457.6,1309.7,1289.1,3480.7,3478.3,1146.3,1470.0,2039.4,2624.3,1508.8,3496.6,3467.4,3479.5,720.8,857.9,1391.2,871.3,820.2,758.7,-3.0,-2.0,2.0,10247.0,-12685.0,1560.0,-305.0,-2.0,-17.0,-4.0,2.0,9.0,0.0,3873.0,-9491.0,-11103.0,6331.0,6.0,-1.0,1.0,1.0
2022-05-13 15:53:46.708206-07:00,1068.6,714.2,901.7,852.8,714.2,743.0,2101.7,1500.4,3478.3,3473.4,1224.8,957.7,1600.2,3467.4,1309.7,1288.2,3474.6,3474.6,1147.1,1471.8,2039.4,2624.3,1508.8,3496.6,3478.3,3473.4,711.8,857.9,1391.2,871.3,820.2,758.7,2.0,3.0,-7.0,10248.0,-12685.0,1559.0,-303.0,9.0,6.0,-5.0,2.0,5.0,-4.0,3872.0,-9491.0,-11103.0,6331.0,-4.0,2.0,3.0,1.0
2022-05-13 15:53:46.813791-07:00,1067.7,728.2,904.2,857.9,714.2,743.0,2101.7,1505.1,3457.6,3471.0,1214.2,955.1,1600.2,3467.4,1309.7,1286.4,3477.1,3474.6,1147.1,1471.8,2031.4,2621.0,1506.0,3490.5,3477.1,3473.4,711.8,857.9,1392.1,873.8,821.9,754.6,-1.0,-3.0,-7.0,10245.0,-12687.0,1557.0,-304.0,-12.0,-2.0,0.0,6.0,3.0,-5.0,3870.0,-9492.0,-11105.0,6328.0,-11.0,2.0,1.0,1.0
2022-05-13 15:53:46.828073-07:00,1071.2,728.2,904.2,857.9,709.3,731.5,2103.7,1505.1,3479.5,3471.0,1214.2,955.1,1584.2,3472.2,1309.7,1286.4,3477.1,3472.2,1139.2,1469.0,2031.4,2621.0,1506.0,3499.0,3477.1,3475.9,711.8,857.0,1392.1,873.8,821.9,788.6,-1.0,2.0,-6.0,10244.0,-12687.0,1557.0,-304.0,-3.0,-15.0,-10.0,6.0,-2.0,-1.0,3868.0,-9493.0,-11106.0,6327.0,12.0,-3.0,0.0,1.0
2022-05-13 15:53:46.871786-07:00,1071.2,719.2,903.4,855.3,709.3,731.5,2103.7,1509.7,3479.5,3485.6,1210.6,959.4,1584.2,3472.2,1309.7,1285.5,3478.3,3472.2,1139.2,1469.0,2028.4,2597.2,1503.2,3499.0,3483.2,3475.9,711.8,857.0,1391.2,868.8,817.7,788.6,0.0,1.0,-3.0,10247.0,-12686.0,1553.0,-302.0,-4.0,3.0,-9.0,1.0,0.0,1.0,3870.0,-9492.0,-11104.0,6329.0,-1.0,1.0,-1.0,1.0
2022-05-13 15:53:46.873527-07:00,1062.5,719.2,903.4,855.3,708.5,743.0,2117.9,1509.7,3469.8,3485.6,1210.6,959.4,1586.1,3467.4,1304.3,1285.5,3478.3,3471.0,1154.2,1484.7,2028.4,2597.2,1503.2,3490.5,3483.2,3472.2,714.2,868.8,1391.2,868.8,817.7,753.8,-2.0,3.0,-5.0,10247.0,-12686.0,1554.0,-303.0,-14.0,9.0,-15.0,3.0,0.0,0.0,3871.0,-9492.0,-11104.0,6329.0,-10.0,8.0,-2.0,1.0
2022-05-13 15:53:46.917762-07:00,1062.5,715.1,898.3,858.7,708.5,743.0,2117.9,1496.7,3469.8,3464.9,1208.0,953.4,1586.1,3467.4,1304.3,1287.3,3471.0,3471.0,1154.2,1484.7,2025.4,2610.2,1499.5,3490.5,3473.4,3472.2,714.2,868.8,1387.5,871.3,823.5,753.8,-3.0,-2.0,-7.0,10250.0,-12685.0,1543.0,-308.0,19.0,-13.0,-40.0,3.0,-1.0,-4.0,3874.0,-9490.0,-11102.0,6333.0,25.0,-4.0,3.0,1.0
2022-05-13 15:53:46.963018-07:00,1069.5,718.4,898.3,858.7,715.1,743.9,2105.8,1496.7,3473.4,3473.4,1208.0,953.4,1585.2,3468.6,1308.8,1287.3,3471.0,3467.4,1157.7,1466.3,2025.4,2610.2,1506.9,3494.1,3473.4,3472.2,716.7,860.4,1387.5,871.3,825.2,759.6,0.0,-3.0,-2.0,10254.0,-12683.0,1528.0,-308.0,6.0,-2.0,-8.0,4.0,8.0,-5.0,3876.0,-9489.0,-11100.0,6336.0,-2.0,-3.0,-2.0,1.0
2022-05-13 15:53:47.052308-07:00,1069.5,718.4,907.6,858.7,715.1,743.9,2107.8,1500.4,3473.4,3473.4,1214.2,958.5,1585.2,3468.6,1302.5,1281.0,3477.1,3474.6,1157.7,1466.3,2022.4,2603.7,1506.9,3494.1,3478.3,3480.7,716.7,860.4,1384.8,867.1,825.2,759.6,1.0,7.0,-11.0,10257.0,-12680.0,1529.0,-310.0,-10.0,-12.0,-10.0,7.0,4.0,-3.0,3877.0,-9489.0,-11100.0,6337.0,-7.0,4.0,0.0,1.0
2022-05-13 15:53:47.096568-07:00,1072.9,721.6,907.6,858.7,724.1,745.5,2107.8,1500.4,3469.8,3467.4,1214.2,958.5,1590.8,3469.8,1302.5,1281.0,3477.1,3474.6,1154.2,1467.2,2022.4,2603.7,1503.2,3491.7,3478.3,3480.7,717.5,859.5,1384.8,867.1,825.2,749.6,1.0,0.0,-3.0,10257.0,-12682.0,1520.0,-306.0,-7.0,-14.0,-3.0,6.0,8.0,0.0,3877.0,-9489.0,-11100.0,6337.0,-7.0,-6.0,-2.0,1.0
2022-05-13 15:53:47.140712-07:00,1072.9,721.6,894.9,858.7,724.1,745.5,2100.7,1527.3,3469.8,3467.4,1213.3,953.4,1590.8,3469.8,1314.2,1278.3,3475.9,3478.3,1154.2,1467.2,2025.4,2593.9,1503.2,3491.7,3475.9,3480.7,717.5,859.5,1387.5,869.6,825.2,749.6,-5.0,0.0,0.0,10257.0,-12682.0,1520.0,-306.0,12.0,9.0,6.0,3.0,0.0,5.0,3878.0,-9489.0,-11099.0,6338.0,13.0,3.0,0.0,1.0
2022-05-13 15:53:47.187317-07:00,1072.9,715.1,894.9,858.7,714.2,734.8,2100.7,1527.3,3467.4,3473.4,1213.3,953.4,1587.1,3475.9,1314.2,1278.3,3475.9,3478.3,1147.1,1471.8,2025.4,2593.9,1506.9,3490.5,3475.9,3480.7,714.2,848.6,1387.5,869.6,817.7,755.4,-4.0,3.0,-13.0,10259.0,-12680.0,1520.0,-306.0,-11.0,0.0,-8.0,2.0,12.0,-2.0,3881.0,-9487.0,-11097.0,6342.0,-1.0,1.0,-3.0,1.0
2022-05-13 15:53:47.276757-07:00,1072.9,715.1,898.3,855.3,714.2,743.0,2100.7,1493.0,3467.4,3473.4,1210.6,952.6,1587.1,3475.9,1307.9,1284.6,3462.5,3477.1,1157.7,1471.8,2032.4,2605.8,1506.9,3490.5,3471.0,3472.2,711.8,848.6,1396.7,872.1,817.7,755.4,-3.0,-2.0,-7.0,10256.0,-12683.0,1519.0,-306.0,5.0,-9.0,-11.0,6.0,6.0,0.0,3881.0,-9488.0,-11097.0,6341.0,9.0,1.0,-6.0,1.0
2022-05-13 15:53:47.279693-07:00,1072.1,717.5,899.1,855.3,717.5,743.0,2100.7,1493.0,3471.0,3473.4,1209.7,952.6,1584.2,3475.9,1307.9,1284.6,3462.5,3477.1,1157.7,1470.9,2032.4,2611.3,1499.5,3491.7,3471.0,3472.2,711.8,852.8,1396.7,872.1,820.2,765.3,0.0,0.0,-6.0,10256.0,-12683.0,1510.0,-306.0,11.0,-16.0,-15.0,6.0,9.0,-4.0,3882.0,-9487.0,-11096.0,6343.0,17.0,-3.0,-5.0,1.0
2022-05-13 15:53:47.367449-07:00,1072.1,717.5,899.1,858.7,717.5,734.8,2075.5,1488.4,3471.0,3473.4,1209.7,954.3,1584.2,3474.6,1307.0,1282.8,3473.4,3474.6,1153.3,1470.9,2029.4,2611.3,1499.5,3491.7,3477.1,3473.4,718.4,852.8,1390.3,872.1,820.2,765.3,1.0,2.0,3.0,10260.0,-12681.0,1508.0,-306.0,21.0,10.0,-9.0,6.0,2.0,0.0,3886.0,-9486.0,-11094.0,6347.0,19.0,0.0,1.0,1.0
2022-05-13 15:53:47.369138-07:00,1066.0,711.8,897.4,858.7,716.7,734.8,2075.5,1488.4,3475.9,3466.1,1207.1,954.3,1584.2,3474.6,1307.0,1282.8,3473.4,3474.6,1153.3,1479.2,2029.4,2602.6,1502.3,3494.1,3477.1,3473.4,718.4,856.2,1390.3,866.3,821.0,752.9,-1.0,-1.0,-8.0,10266.0,-12676.0,1504.0,-311.0,0.0,-6.0,-21.0,5.0,4.0,-5.0,3889.0,-9484.0,-11092.0,6351.0,2.0,0.0,1.0,1.0
2022-05-13 15:53:47.413028-07:00,1066.0,711.8,897.4,853.7,716.7,733.2,2079.5,1492.1,3475.9,3466.1,1207.1,949.2,1584.2,3468.6,1301.6,1281.0,3475.9,3464.9,1149.8,1479.2,2031.4,2602.6,1502.3,3494.1,3473.4,3468.6,712.6,856.2,1385.7,866.3,821.0,752.9,0.0,9.0,-9.0,10269.0,-12675.0,1494.0,-311.0,7.0,-12.0,-13.0,5.0,16.0,-7.0,3889.0,-9484.0,-11092.0,6350.0,-10.0,-1.0,0.0,1.0
2022-05-13 15:53:47.500445-07:00,1066.9,709.3,893.2,853.7,724.1,733.2,2079.5,1492.1,3471.0,3466.1,1205.3,949.2,1588.9,3468.6,1301.6,1281.0,3475.9,3464.9,1149.8,1470.9,2031.4,2608.0,1496.7,3497.8,3473.4,3468.6,712.6,857.0,1385.7,867.1,818.5,757.9,4.0,2.0,-5.0,10279.0,-12668.0,1486.0,-313.0,80.0,-18.0,-15.0,9.0,5.0,-8.0,3885.0,-9489.0,-11095.0,6339.0,-15.0,17.0,-2.0,1.0
2022-05-13 15:53:47.548360-07:00,1066.9,709.3,893.2,859.5,713.4,737.3,2089.6,1493.0,3471.0,3466.1,1205.3,950.0,1599.3,3478.3,1305.2,1275.6,3467.4,3484.4,1149.8,1470.0,2029.4,2608.0,1496.7,3497.8,3475.9,3479.5,715.1,865.4,1389.4,867.1,818.5,757.9,13.0,31.0,12.0,10378.0,-12588.0,1472.0,-315.0,532.0,-29.0,-15.0,9.0,20.0,16.0,3888.0,-9493.0,-11090.0,6341.0,22.0,30.0,25.0,1.0
2022-05-13 15:53:47.590481-07:00,1077.3,719.2,896.6,860.4,713.4,737.3,2089.6,1493.0,3477.1,3468.6,1221.3,960.2,1599.3,3478.3,1305.2,1275.6,3467.4,3484.4,1149.8,1470.0,2026.4,2587.4,1506.9,3490.5,3475.9,3479.5,715.1,865.4,1393.9,868.8,824.4,756.3,1.0,-8.0,-23.0,10515.0,-12478.0,1435.0,-324.0,188.0,-141.0,-104.0,5.0,-9.0,3.0,3883.0,-9524.0,-11091.0,6297.0,-196.0,102.0,35.0,1.0
2022-05-13 15:53:47.681532-07:00,1077.3,719.2,896.6,860.4,714.2,736.5,2132.1,1515.3,3477.1,3468.6,1221.3,960.2,1600.2,3471.0,1289.1,1277.4,3477.1,3469.8,1150.6,1466.3,2026.4,2587.4,1506.9,3490.5,3477.1,3478.3,716.7,883.1,1393.9,868.8,824.4,756.3,-17.0,22.0,-59.0,10521.0,-12485.0,1338.0,-291.0,-235.0,-269.0,-149.0,5.0,20.0,-6.0,3824.0,-9585.0,-11122.0,6185.0,-450.0,95.0,34.0,1.0
2022-05-13 15:53:47.682854-07:00,1067.7,718.4,900.0,852.8,714.2,736.5,2132.1,1515.3,3472.2,3473.4,1175.3,935.6,1600.2,3471.0,1289.1,1277.4,3477.1,3469.8,1150.6,1466.3,2018.4,2602.6,1627.5,3497.8,3477.1,3478.3,716.7,883.1,1383.9,862.1,817.7,755.4,14.0,-26.0,18.0,10384.0,-12615.0,1193.0,-185.0,-460.0,-439.0,-141.0,5.0,14.0,-43.0,3724.0,-9649.0,-11195.0,6011.0,-528.0,76.0,-18.0,1.0
2022-05-13 15:53:47.726739-07:00,1067.7,718.4,900.0,852.8,715.1,726.6,2176.9,1549.7,3472.2,3473.4,1175.3,935.6,1601.1,3472.2,1263.1,1242.6,3468.6,3473.4,1146.3,1470.9,2018.4,2602.6,1627.5,3497.8,3480.7,3472.2,718.4,886.5,1383.9,862.1,817.7,755.4,14.0,14.0,-21.0,10333.0,-12670.0,1054.0,-106.0,-65.0,-341.0,-171.0,11.0,4.0,-16.0,3665.0,-9682.0,-11243.0,5904.0,-229.0,45.0,-22.0,1.0
2022-05-13 15:53:47.772111-07:00,1076.4,721.6,900.0,861.2,715.1,726.6,2176.9,1389.4,3471.0,3469.8,1114.7,919.4,1601.1,3472.2,1263.1,1210.6,3474.6,3473.4,1146.3,1470.9,2034.4,2598.3,1782.9,3497.8,3484.4,3472.2,718.4,886.5,1393.9,878.0,826.9,754.6,-12.0,-15.0,-21.0,10334.0,-12681.0,902.0,-68.0,-72.0,-244.0,-206.0,0.0,-2.0,15.0,3626.0,-9696.0,-11281.0,5832.0,-239.0,27.0,-37.0,1.0
2022-05-13 15:53:47.863926-07:00,1088.6,721.6,900.0,861.2,717.5,728.2,1984.6,1389.4,3462.5,3469.8,1114.7,919.4,1576.8,3469.8,1234.6,1210.6,3474.6,3479.5,1148.0,1470.9,2034.4,2598.3,1782.9,3490.5,3484.4,3479.5,720.8,907.6,1393.9,878.0,826.9,756.3,0.0,-24.0,-15.0,10294.0,-12722.0,783.0,32.0,-275.0,-389.0,24.0,13.0,-9.0,20.0,3539.0,-9731.0,-11342.0,5707.0,-500.0,30.0,-13.0,1.0
2022-05-13 15:53:47.865171-07:00,1088.6,742.2,898.3,865.4,717.5,728.2,1984.6,1315.1,3462.5,3478.3,1087.7,903.4,1576.8,3469.8,1234.6,1195.6,3472.2,3479.5,1148.0,1470.9,2025.4,2604.8,1817.8,3490.5,3478.3,3479.5,720.8,907.6,1394.8,869.6,821.0,756.3,4.0,21.0,5.0,10260.0,-12753.0,701.0,175.0,-7.0,-304.0,31.0,5.0,12.0,-22.0,3461.0,-9764.0,-11389.0,5605.0,-197.0,11.0,-8.0,1.0
2022-05-13 15:53:47.907327-07:00,1116.5,742.2,898.3,865.4,716.7,723.3,1880.1,1315.1,3471.0,3478.3,1087.7,903.4,1568.3,3472.2,1230.2,1195.6,3472.2,3474.6,1146.3,1460.8,2025.4,2604.8,1817.8,3488.0,3478.3,3472.2,721.6,900.8,1394.8,869.6,821.0,754.6,-1.0,6.0,-1.0,10268.0,-12749.0,649.0,206.0,-15.0,7.0,-73.0,7.0,2.0,6.0,3430.0,-9768.0,-11416.0,5561.0,-117.0,-6.0,-38.0,1.0
2022-05-13 15:53:47.995466-07:00,1116.5,772.0,896.6,850.3,716.7,723.3,1880.1,1304.3,3471.0,3471.0,1072.9,894.9,1568.3,3472.2,1230.2,1195.6,3480.7,3474.6,1146.3,1460.8,2043.4,2609.1,1849.8,3488.0,3479.5,3472.2,721.6,900.8,1384.8,868.8,823.5,754.6,-23.0,-19.0,11.0,10269.0,-12750.0,623.0,188.0,-10.0,-5.0,-45.0,3.0,1.0,1.0,3414.0,-9766.0,-11437.0,5532.0,-96.0,3.0,-23.0,1.0
2022-05-13 15:53:48.040563-07:00,1175.3,787.7,896.6,850.3,713.4,722.5,1881.1,1304.3,3467.4,3477.1,1072.9,894.9,1559.0,3464.9,1216.8,1195.6,3480.7,3475.9,1150.6,1471.8,2043.4,2609.1,1865.4,3486.8,3479.5,3472.2,707.7,905.9,1384.8,868.8,825.2,751.3,0.0,-25.0,33.0,10242.0,-12770.0,659.0,185.0,-141.0,165.0,126.0,0.0,-5.0,-2.0,3391.0,-9773.0,-11450.0,5507.0,-121.0,-12.0,10.0,1.0
2022-05-13 15:53:48.085389-07:00,1175.3,787.7,891.5,850.3,713.4,722.5,1848.9,1292.7,3467.4,3477.1,1065.1,892.4,1559.0,3464.9,1214.2,1194.7,3472.2,3475.9,1150.6,1471.8,2045.4,2605.8,1865.4,3486.8,3472.2,3475.9,707.7,905.9,1393.0,868.8,825.2,751.3,-10.0,-1.0,-13.0,10209.0,-12790.0,779.0,145.0,-75.0,202.0,140.0,9.0,-12.0,10.0,3376.0,-9783.0,-11454.0,5489.0,-67.0,31.0,33.0,1.0
2022-05-13 15:53:48.131065-07:00,1177.9,784.4,891.5,850.3,715.9,727.4,1848.9,1292.7,3462.5,3472.2,1065.1,892.4,1556.2,3475.9,1214.2,1194.7,3472.2,3475.9,1149.8,1470.0,2045.4,2605.8,1843.0,3484.4,3472.2,3475.9,701.1,888.2,1393.0,868.8,821.0,754.6,2.0,16.0,-33.0,10198.0,-12797.0,812.0,125.0,48.0,73.0,-35.0,8.0,29.0,-24.0,3371.0,-9798.0,-11450.0,5475.0,36.0,-2.0,4.0,1.0
2022-05-13 15:53:48.175239-07:00,1177.9,784.4,891.5,854.5,715.9,727.4,1837.2,1304.3,3462.5,3472.2,1070.3,891.5,1556.2,3475.9,1212.4,1182.3,3473.4,3478.3,1149.8,1470.0,2048.4,2609.1,1843.0,3484.4,3475.9,3481.9,701.1,888.2,1388.5,865.4,821.0,754.6,-16.0,-13.0,-20.0,10194.0,-12799.0,829.0,102.0,-41.0,37.0,31.0,2.0,1.0,-6.0,3377.0,-9794.0,-11450.0,5478.0,-27.0,-5.0,-9.0,1.0
2022-05-13 15:53:48.223157-07:00,1167.4,781.1,891.5,854.5,720.0,724.9,1837.2,1304.3,3469.8,3462.5,1070.3,891.5,1546.9,3471.0,1212.4,1182.3,3473.4,3478.3,1172.6,1468.1,2048.4,2609.1,1833.3,3492.9,3475.9,3481.9,694.6,891.5,1388.5,865.4,821.0,743.0,0.0,9.0,-6.0,10197.0,-12795.0,847.0,117.0,70.0,-10.0,14.0,1.0,3.0,-2.0,3378.0,-9793.0,-11449.0,5482.0,64.0,-9.0,-1.0,1.0
2022-05-13 15:53:48.265359-07:00,1167.4,781.1,899.1,841.1,720.0,720.8,1824.6,1251.5,3469.8,3462.5,1064.3,891.5,1546.9,3479.5,1209.7,1170.0,3475.9,3477.1,1148.0,1468.1,2047.4,2611.3,1833.3,3492.9,3467.4,3467.4,696.2,891.5,1383.0,870.5,821.0,743.0,-4.0,-6.0,-10.0,10228.0,-12771.0,845.0,114.0,85.0,-13.0,-18.0,7.0,2.0,-1.0,3395.0,-9784.0,-11441.0,5504.0,89.0,1.0,-15.0,1.0
2022-05-13 15:53:48.357234-07:00,1163.0,784.4,887.3,841.1,717.5,720.8,1824.6,1251.5,3478.3,3468.6,1059.9,891.5,1537.6,3479.5,1209.7,1170.0,3475.9,3477.1,1148.0,1466.3,2047.4,2604.8,1817.8,3486.8,3467.4,3467.4,696.2,882.3,1383.0,860.4,817.7,748.8,2.0,-5.0,3.0,10215.0,-12782.0,837.0,127.0,-99.0,-26.0,15.0,7.0,3.0,-3.0,3394.0,-9784.0,-11443.0,5500.0,-66.0,-7.0,2.0,1.0
2022-05-13 15:53:48.401540-07:00,1163.0,784.4,887.3,854.5,717.5,724.9,1823.6,1264.0,3478.3,3468.6,1059.9,888.2,1537.6,3464.9,1202.7,1168.2,3472.2,3466.1,1145.4,1466.3,2044.4,2604.8,1817.8,3486.8,3475.9,3462.5,683.1,882.3,1389.4,860.4,817.7,748.8,-2.0,3.0,-11.0,10224.0,-12774.0,843.0,115.0,66.0,38.0,-20.0,7.0,4.0,-2.0,3397.0,-9782.0,-11441.0,5504.0,48.0,7.0,0.0,1.0
2022-05-13 15:53:48.447444-07:00,1162.1,789.4,894.1,854.5,718.4,724.9,1823.6,1264.0,3478.3,3463.7,1055.6,888.2,1541.3,3464.9,1202.7,1168.2,3472.2,3466.1,1145.4,1469.0,2044.4,2609.1,1796.5,3501.4,3475.9,3462.5,683.1,881.4,1389.4,868.8,813.5,743.9,-5.0,-2.0,-6.0,10218.0,-12779.0,850.0,116.0,-41.0,-5.0,39.0,5.0,7.0,-3.0,3399.0,-9782.0,-11441.0,5504.0,-23.0,0.0,1.0,1.0
2022-05-13 15:53:48.490470-07:00,1162.1,789.4,894.1,852.0,718.4,720.8,1798.4,1256.0,3478.3,3463.7,1055.6,889.8,1541.3,3469.8,1198.2,1173.5,3483.2,3473.4,1149.8,1469.0,2050.4,2609.1,1796.5,3501.4,3480.7,3475.9,684.8,881.4,1393.9,868.8,813.5,743.9,-2.0,6.0,0.0,10214.0,-12781.0,861.0,120.0,21.0,29.0,2.0,5.0,4.0,2.0,3398.0,-9782.0,-11442.0,5503.0,27.0,-3.0,0.0,1.0
2022-05-13 15:53:48.537549-07:00,1153.3,777.8,890.7,852.0,722.5,720.8,1798.4,1256.0,3468.6,3463.7,1053.9,889.8,1537.6,3469.8,1198.2,1173.5,3483.2,3473.4,1149.8,1468.1,2050.4,2614.5,1799.4,3494.1,3480.7,3475.9,684.8,875.5,1393.9,869.6,816.9,745.5,-3.0,-3.0,-11.0,10223.0,-12773.0,869.0,110.0,20.0,23.0,6.0,5.0,4.0,-7.0,3405.0,-9779.0,-11438.0,5511.0,12.0,2.0,6.0,1.0
2022-05-13 15:53:48.582586-07:00,1153.3,777.8,890.7,852.0,718.4,715.9,1789.7,1254.2,3468.6,3463.7,1053.9,888.2,1537.6,3468.6,1205.3,1170.9,3484.4,3478.3,1149.8,1467.2,2049.4,2614.5,1799.4,3494.1,3472.2,3478.3,684.8,873.8,1382.1,869.6,816.9,745.5,2.0,3.0,-8.0,10214.0,-12780.0,884.0,115.0,-32.0,7.0,36.0,6.0,2.0,-4.0,3401.0,-9781.0,-11441.0,5505.0,-17.0,2.0,7.0,1.0
2022-05-13 15:53:48.672548-07:00,1161.2,777.8,888.2,854.5,718.4,715.9,1789.7,1254.2,3467.4,3464.9,1046.1,884.8,1537.6,3468.6,1205.3,1170.9,3484.4,3478.3,1149.8,1467.2,2039.4,2608.0,1793.6,3490.5,3472.2,3478.3,684.8,873.8,1387.5,867.1,819.4,751.3,-7.0,0.0,-12.0,10219.0,-12775.0,887.0,112.0,60.0,17.0,-20.0,3.0,5.0,-1.0,3408.0,-9778.0,-11437.0,5513.0,51.0,2.0,-4.0,1.0
2022-05-13 15:53:48.716110-07:00,1161.2,777.8,888.2,854.5,719.2,727.4,1799.4,1249.7,3467.4,3464.9,1046.1,884.8,1531.0,3475.9,1203.5,1175.3,3477.1,3477.1,1150.6,1464.4,2039.4,2608.0,1793.6,3490.5,3480.7,3478.3,680.7,873.8,1387.5,867.1,819.4,751.3,-1.0,-8.0,2.0,10220.0,-12775.0,883.0,112.0,-35.0,-4.0,21.0,2.0,-2.0,0.0,3409.0,-9778.0,-11437.0,5513.0,-27.0,-6.0,4.0,1.0
2022-05-13 15:53:48.719154-07:00,1158.6,776.9,890.7,855.3,719.2,727.4,1799.4,1249.7,3468.6,3473.4,1052.2,884.8,1531.0,3475.9,1203.5,1175.3,3477.1,3477.1,1150.6,1464.4,2045.4,2605.8,1793.6,3492.9,3480.7,3478.3,680.7,873.8,1393.0,866.3,820.2,749.6,1.0,8.0,-2.0,10218.0,-12775.0,898.0,113.0,22.0,27.0,12.0,6.0,5.0,0.0,3411.0,-9778.0,-11437.0,5514.0,27.0,2.0,7.0,1.0
2022-05-13 15:53:48.762383-07:00,1158.6,776.9,890.7,855.3,721.6,717.5,1781.0,1238.2,3468.6,3473.4,1052.2,884.8,1537.6,3467.4,1203.5,1170.0,3475.9,3467.4,1154.2,1462.6,2045.4,2605.8,1793.6,3492.9,3478.3,3471.0,687.2,873.8,1393.0,866.3,820.2,749.6,-2.0,-4.0,-11.0,10221.0,-12773.0,901.0,107.0,-22.0,6.0,-2.0,6.0,7.0,-4.0,3414.0,-9776.0,-11435.0,5518.0,-14.0,2.0,2.0,1.0
2022-05-13 15:53:48.807227-07:00,1152.4,767.8,899.1,844.4,721.6,717.5,1781.0,1234.6,3464.9,3473.4,1052.2,889.0,1537.6,3467.4,1203.5,1170.9,3477.1,3467.4,1154.2,1462.6,2042.4,2608.0,1780.1,3492.9,3475.9,3471.0,687.2,873.8,1388.5,880.6,821.9,743.9,0.0,7.0,-6.0,10217.0,-12776.0,905.0,108.0,4.0,12.0,9.0,7.0,6.0,0.0,3413.0,-9777.0,-11436.0,5516.0,13.0,1.0,2.0,1.0
2022-05-13 15:53:48.852233-07:00,1155.0,767.8,899.1,844.4,712.6,719.2,1781.0,1234.6,3468.6,3473.4,1052.2,889.0,1530.1,3463.7,1204.4,1170.9,3477.1,3478.3,1143.6,1459.8,2042.4,2608.0,1780.1,3494.1,3475.9,3474.6,686.4,869.6,1388.5,880.6,821.9,738.1,0.0,-3.0,-5.0,10215.0,-12777.0,907.0,106.0,-10.0,10.0,8.0,4.0,1.0,-2.0,3413.0,-9777.0,-11436.0,5515.0,-2.0,-1.0,7.0,1.0
2022-05-13 15:53:48.944068-07:00,1155.0,759.6,888.2,860.4,712.6,719.2,1781.0,1240.8,3468.6,3468.6,1053.0,878.9,1530.1,3463.7,1204.4,1166.5,3479.5,3478.3,1143.6,1459.8,2034.4,2614.5,1787.8,3494.1,3481.9,3474.6,686.4,869.6,1389.4,863.7,817.7,738.1,-7.0,1.0,-1.0,10215.0,-12777.0,910.0,105.0,10.0,15.0,1.0,3.0,2.0,0.0,3413.0,-9777.0,-11436.0,5514.0,7.0,3.0,7.0,1.0
2022-05-13 15:53:48.987523-07:00,1148.9,759.6,888.2,860.4,713.4,727.4,1781.0,1240.8,3477.1,3468.6,1053.0,878.9,1525.5,3473.4,1197.4,1166.5,3479.5,3475.9,1149.8,1467.2,2034.4,2614.5,1787.8,3486.8,3481.9,3474.6,677.4,870.5,1389.4,863.7,817.7,746.3,-6.0,0.0,-7.0,10217.0,-12775.0,913.0,104.0,-31.0,-8.0,-1.0,0.0,4.0,-5.0,3414.0,-9776.0,-11436.0,5516.0,-25.0,1.0,3.0,1.0
2022-05-13 15:53:49.032377-07:00,1148.9,772.8,893.2,846.1,713.4,727.4,1781.0,1241.7,3477.1,3469.8,1045.2,885.6,1525.5,3473.4,1197.4,1169.1,3484.4,3475.9,1149.8,1467.2,2038.4,2600.4,1775.2,3486.8,3467.4,3474.6,677.4,870.5,1390.3,869.6,821.9,746.3,0.0,2.0,-12.0,10210.0,-12780.0,914.0,103.0,15.0,11.0,-4.0,5.0,2.0,-3.0,3412.0,-9777.0,-11438.0,5512.0,16.0,6.0,2.0,1.0
2022-05-13 15:53:49.121705-07:00,1154.2,771.1,893.2,846.1,734.0,719.2,1773.3,1241.7,3462.5,3478.3,1045.2,885.6,1533.8,3468.6,1200.9,1169.1,3484.4,3488.0,1154.2,1467.2,2038.4,2600.4,1772.3,3494.1,3467.4,3484.4,682.3,862.1,1390.3,869.6,821.0,744.7,0.0,0.0,-13.0,10211.0,-12780.0,914.0,103.0,-8.0,0.0,-5.0,5.0,5.0,0.0,3413.0,-9777.0,-11437.0,5512.0,-2.0,6.0,1.0,1.0
2022-05-13 15:53:49.122843-07:00,1154.2,771.1,889.8,858.7,734.0,719.2,1772.3,1230.2,3462.5,3478.3,1049.6,883.1,1533.8,3468.6,1193.8,1163.8,3472.2,3464.9,1154.2,1467.2,2048.4,2614.5,1772.3,3494.1,3475.9,3472.2,682.3,862.1,1387.5,864.6,821.0,744.7,-3.0,-1.0,-3.0,10209.0,-12781.0,914.0,103.0,2.0,-1.0,0.0,3.0,0.0,-2.0,3412.0,-9777.0,-11438.0,5511.0,-2.0,-2.0,4.0,1.0
2022-05-13 15:53:49.167332-07:00,1155.0,769.5,889.8,858.7,722.5,707.7,1772.3,1230.2,3466.1,3467.4,1049.6,883.1,1525.5,3466.1,1193.8,1163.8,3472.2,3464.9,1149.8,1461.7,2048.4,2614.5,1780.1,3488.0,3475.9,3472.2,676.6,867.9,1387.5,864.6,820.2,734.8,-6.0,4.0,-11.0,10211.0,-12780.0,914.0,103.0,-10.0,2.0,-11.0,0.0,8.0,-5.0,3415.0,-9776.0,-11436.0,5515.0,-6.0,0.0,-1.0,1.0
2022-05-13 15:53:49.210366-07:00,1155.0,769.5,894.1,854.5,722.5,707.7,1770.4,1227.5,3466.1,3467.4,1046.1,886.5,1525.5,3466.1,1199.1,1155.0,3468.6,3479.5,1149.8,1461.7,2041.4,2605.8,1780.1,3488.0,3466.1,3483.2,676.6,867.9,1391.2,862.9,820.2,734.8,-5.0,3.0,-17.0,10211.0,-12780.0,911.0,100.0,22.0,1.0,-7.0,5.0,8.0,-5.0,3417.0,-9775.0,-11435.0,5517.0,25.0,-2.0,-5.0,1.0
2022-05-13 15:53:49.346612-07:00,1155.9,774.5,894.1,854.5,716.7,723.3,1770.4,1227.5,3462.5,3478.3,1046.1,886.5,1519.9,3462.5,1199.1,1155.0,3468.6,3479.5,1155.9,1464.4,2041.4,2605.8,1773.3,3495.3,3466.1,3483.2,672.5,868.8,1391.2,862.9,825.2,737.3,0.0,0.0,-1.0,10211.0,-12781.0,904.0,108.0,-18.0,-34.0,-4.0,4.0,4.0,1.0,3417.0,-9774.0,-11436.0,5519.0,-4.0,-13.0,-10.0,1.0
2022-05-13 15:53:49.348567-07:00,1155.9,774.5,891.5,844.4,716.7,711.8,1769.5,1224.8,3462.5,3478.3,1048.7,887.3,1519.9,3473.4,1196.5,1155.9,3469.8,3480.7,1151.5,1464.4,2043.4,2613.4,1773.3,3495.3,3467.4,3479.5,679.9,868.8,1387.5,868.8,825.2,737.3,1.0,4.0,2.0,10216.0,-12777.0,899.0,114.0,11.0,-13.0,-5.0,2.0,4.0,6.0,3419.0,-9772.0,-11435.0,5522.0,-4.0,-5.0,-3.0,1.0
2022-05-13 15:53:49.436551-07:00,1155.0,774.5,887.3,844.4,716.7,711.8,1769.5,1224.8,3466.1,3468.6,1050.4,887.3,1514.3,3473.4,1196.5,1155.9,3469.8,3480.7,1151.5,1470.9,2043.4,2611.3,1764.6,3486.8,3467.4,3479.5,679.9,865.4,1387.5,865.4,819.4,738.1,1.0,0.0,0.0,10213.0,-12779.0,897.0,116.0,0.0,6.0,6.0,5.0,0.0,2.0,3417.0,-9773.0,-11436.0,5520.0,7.0,7.0,9.0,1.0
2022-05-13 15:53:49.482778-07:00,1155.0,774.5,887.3,851.1,716.7,713.4,1762.7,1228.4,3466.1,3468.6,1050.4,885.6,1514.3,3469.8,1188.5,1165.6,3472.2,3467.4,1152.4,1470.9,2030.4,2611.3,1764.6,3486.8,3488.0,3471.0,675.0,865.4,1393.0,865.4,819.4,738.1,0.0,4.0,-11.0,10211.0,-12781.0,899.0,114.0,-16.0,9.0,-6.0,4.0,7.0,-1.0,3415.0,-9773.0,-11437.0,5518.0,-14.0,5.0,7.0,1.0
2022-05-13 15:53:49.616863-07:00,1145.4,765.3,890.7,851.1,717.5,713.4,1762.7,1228.4,3468.6,3463.7,1046.1,885.6,1525.5,3469.8,1188.5,1165.6,3472.2,3467.4,1152.4,1463.5,2030.4,2606.9,1763.7,3494.1,3488.0,3471.0,675.0,864.6,1393.0,866.3,817.7,739.7,-4.0,0.0,-6.0,10206.0,-12785.0,900.0,115.0,-18.0,-7.0,11.0,1.0,6.0,-7.0,3412.0,-9774.0,-11439.0,5515.0,-11.0,-6.0,7.0,1.0
2022-05-13 15:53:49.618612-07:00,1145.4,765.3,890.7,857.0,717.5,711.8,1757.9,1222.2,3468.6,3463.7,1046.1,878.9,1525.5,3466.1,1192.0,1156.8,3473.4,3483.2,1144.5,1463.5,2033.4,2606.9,1763.7,3494.1,3472.2,3474.6,679.1,864.6,1389.4,866.3,817.7,739.7,2.0,0.0,3.0,10212.0,-12779.0,904.0,108.0,67.0,44.0,-17.0,4.0,1.0,0.0,3421.0,-9772.0,-11434.0,5524.0,62.0,-4.0,5.0,1.0
2022-05-13 15:53:49.620510-07:00,1149.8,776.1,889.0,857.0,719.2,711.8,1757.9,1222.2,3464.9,3468.6,1049.6,878.9,1516.2,3466.1,1192.0,1156.8,3473.4,3483.2,1144.5,1479.2,2033.4,2608.0,1764.6,3495.3,3472.2,3474.6,679.1,868.8,1389.4,867.9,823.5,741.4,-11.0,0.0,-21.0,10238.0,-12759.0,908.0,85.0,67.0,20.0,-21.0,0.0,8.0,1.0,3437.0,-9766.0,-11424.0,5544.0,55.0,-4.0,8.0,1.0
2022-05-13 15:53:49.621663-07:00,1149.8,776.1,889.0,847.8,716.7,714.2,1754.1,1231.0,3464.9,3468.6,1049.6,880.6,1514.3,3467.4,1198.2,1157.7,3464.9,3467.4,1160.3,1462.6,2038.4,2608.0,1764.6,3495.3,3479.5,3473.4,675.0,866.3,1381.2,867.9,823.5,741.4,-4.0,2.0,-11.0,10237.0,-12760.0,906.0,89.0,-25.0,-23.0,-9.0,0.0,7.0,-5.0,3438.0,-9766.0,-11424.0,5544.0,-7.0,-9.0,-5.0,1.0
2022-05-13 15:53:49.660345-07:00,1153.3,775.3,883.1,852.8,716.7,714.2,1754.1,1231.0,3479.5,3467.4,1044.4,883.1,1514.3,3467.4,1198.2,1157.7,3464.9,3467.4,1160.3,1462.6,2041.4,2610.2,1751.2,3495.3,3479.5,3473.4,675.0,866.3,1388.5,861.2,821.9,745.5,-4.0,5.0,-10.0,10243.0,-12755.0,902.0,91.0,52.0,-11.0,-5.0,6.0,8.0,4.0,3443.0,-9764.0,-11421.0,5550.0,22.0,-5.0,-3.0,1.0
2022-05-13 15:53:49.707685-07:00,1153.3,775.3,883.1,852.8,719.2,711.8,1763.7,1228.4,3479.5,3467.4,1044.4,883.1,1519.9,3464.9,1186.7,1159.4,3473.4,3479.5,1148.9,1470.9,2041.4,2610.2,1751.2,3495.3,3471.0,3474.6,675.0,872.1,1388.5,861.2,821.9,745.5,7.0,-2.0,11.0,10236.0,-12761.0,898.0,99.0,-50.0,-9.0,8.0,3.0,-2.0,1.0,3439.0,-9765.0,-11424.0,5546.0,-12.0,-3.0,1.0,1.0
2022-05-13 15:53:49.752990-07:00,1146.3,772.0,885.6,852.0,719.2,711.8,1763.7,1228.4,3473.4,3468.6,1034.9,884.8,1519.9,3464.9,1186.7,1159.4,3473.4,3479.5,1148.9,1470.9,2041.4,2606.9,1756.0,3497.8,3471.0,3474.6,675.0,872.1,1389.4,864.6,821.9,739.7,-3.0,3.0,-12.0,10248.0,-12752.0,898.0,90.0,57.0,12.0,-20.0,5.0,5.0,3.0,3448.0,-9762.0,-11418.0,5556.0,31.0,8.0,4.0,1.0
2022-05-13 15:53:49.842843-07:00,1146.3,772.0,885.6,852.0,720.0,722.5,1753.1,1218.6,3473.4,3468.6,1034.9,884.8,1516.2,3462.5,1196.5,1151.5,3485.6,3469.8,1148.9,1464.4,2041.4,2606.9,1756.0,3497.8,3467.4,3472.2,668.4,857.0,1389.4,864.6,821.9,739.7,-2.0,-1.0,-1.0,10245.0,-12754.0,900.0,92.0,-21.0,8.0,21.0,0.0,5.0,-1.0,3447.0,-9762.0,-11419.0,5555.0,-5.0,-1.0,10.0,1.0
2022-05-13 15:53:49.886204-07:00,1145.4,764.5,883.9,858.7,720.0,722.5,1753.1,1224.8,3473.4,3468.6,1051.3,888.2,1516.2,3462.5,1196.5,1162.1,3469.8,3469.8,1148.9,1464.4,2021.4,2626.5,1751.2,3491.7,3471.0,3472.2,668.4,857.0,1393.0,861.2,821.9,743.9,0.0,-1.0,-5.0,10256.0,-12744.0,908.0,78.0,69.0,43.0,-30.0,2.0,1.0,-1.0,3454.0,-9761.0,-11414.0,5564.0,81.0,-1.0,5.0,1.0
2022-05-13 15:53:49.930358-07:00,1147.1,764.5,883.9,858.7,724.9,710.1,1751.2,1224.8,3472.2,3468.6,1051.3,888.2,1499.5,3462.5,1192.9,1162.1,3469.8,3477.1,1146.3,1465.4,2021.4,2626.5,1751.2,3492.9,3471.0,3474.6,676.6,860.4,1393.0,861.2,821.9,739.7,-5.0,5.0,-20.0,10280.0,-12725.0,908.0,62.0,39.0,-12.0,-6.0,5.0,10.0,-2.0,3472.0,-9754.0,-11403.0,5586.0,3.0,1.0,1.0,1.0
2022-05-13 15:53:49.975399-07:00,1147.1,756.3,892.4,860.4,724.9,710.1,1751.2,1223.0,3472.2,3473.4,1047.0,881.4,1499.5,3462.5,1192.9,1162.1,3472.2,3477.1,1146.3,1465.4,2043.4,2605.8,1751.2,3492.9,3473.4,3474.6,676.6,860.4,1393.9,860.4,820.2,739.7,0.0,0.0,5.0,10272.0,-12732.0,903.0,69.0,7.0,-8.0,-6.0,1.0,0.0,2.0,3468.0,-9756.0,-11406.0,5581.0,34.0,4.0,-1.0,1.0
2022-05-13 15:53:50.020367-07:00,1142.7,756.3,892.4,860.4,720.0,716.7,1748.3,1223.0,3464.9,3473.4,1047.0,881.4,1519.0,3468.6,1193.8,1162.1,3472.2,3478.3,1146.3,1460.8,2043.4,2605.8,1751.2,3494.1,3473.4,3483.2,676.6,847.8,1393.9,860.4,820.2,737.3,-7.0,-5.0,-10.0,10282.0,-12724.0,898.0,61.0,9.0,9.0,-14.0,1.0,1.0,3.0,3475.0,-9753.0,-11401.0,5589.0,-4.0,3.0,4.0,1.0
2022-05-13 15:53:50.065981-07:00,1142.7,763.7,891.5,853.7,720.0,716.7,1748.3,1221.3,3464.9,3467.4,1049.6,873.0,1519.0,3468.6,1193.8,1155.9,3478.3,3478.3,1146.3,1460.8,2026.4,2608.0,1747.3,3494.1,3477.1,3483.2,676.6,847.8,1364.8,868.8,817.7,737.3,1.0,5.0,-3.0,10280.0,-12725.0,898.0,62.0,19.0,8.0,0.0,2.0,3.0,-2.0,3475.0,-9753.0,-11402.0,5589.0,16.0,0.0,3.0,1.0
2022-05-13 15:53:50.111114-07:00,1146.3,765.3,891.5,853.7,725.8,710.1,1733.0,1221.3,3471.0,3478.3,1049.6,873.0,1512.5,3478.3,1192.0,1155.9,3478.3,3478.3,1151.5,1455.2,2026.4,2608.0,1743.5,3485.6,3477.1,3477.1,676.6,853.7,1364.8,868.8,821.9,738.9,0.0,-5.0,-9.0,10287.0,-12720.0,895.0,55.0,9.0,-3.0,-19.0,5.0,5.0,-1.0,3481.0,-9751.0,-11398.0,5596.0,6.0,-6.0,-5.0,1.0
2022-05-13 15:53:50.202323-07:00,1146.3,765.3,887.3,856.2,725.8,710.1,1739.7,1217.7,3471.0,3478.3,1046.1,885.6,1512.5,3478.3,1193.8,1139.2,3479.5,3478.3,1151.5,1455.2,2037.4,2622.1,1743.5,3485.6,3472.2,3475.9,676.6,853.7,1388.5,864.6,821.9,738.9,0.0,3.0,0.0,10291.0,-12717.0,893.0,54.0,25.0,-1.0,-12.0,2.0,3.0,3.0,3484.0,-9750.0,-11397.0,5599.0,24.0,-3.0,1.0,1.0
2022-05-13 15:53:50.359323-07:00,1145.4,766.2,887.3,856.2,710.1,711.0,1739.7,1217.7,3464.9,3467.4,1046.1,885.6,1511.5,3478.3,1193.8,1139.2,3479.5,3478.3,1149.8,1460.8,2037.4,2622.1,1740.6,3490.5,3472.2,3475.9,670.1,858.7,1388.5,864.6,816.9,735.6,-6.0,-1.0,-11.0,10313.0,-12699.0,891.0,42.0,90.0,17.0,-12.0,1.0,1.0,1.0,3499.0,-9745.0,-11388.0,5617.0,70.0,7.0,4.0,1.0
2022-05-13 15:53:50.360680-07:00,1145.4,766.2,886.5,854.5,710.1,711.0,1745.4,1210.6,3464.9,3467.4,1039.2,878.0,1511.5,3478.3,1189.4,1157.7,3466.1,3480.7,1149.8,1460.8,1975.6,2611.3,1740.6,3490.5,3467.4,3472.2,670.1,858.7,1387.5,872.1,816.9,735.6,-3.0,2.0,-5.0,10309.0,-12703.0,889.0,45.0,-51.0,-15.0,2.0,1.0,6.0,-1.0,3499.0,-9745.0,-11388.0,5617.0,-43.0,-2.0,1.0,1.0
2022-05-13 15:53:50.361844-07:00,1155.9,757.1,886.5,854.5,719.2,718.4,1745.4,1210.6,3462.5,3472.2,1039.2,878.0,1505.1,3463.7,1189.4,1157.7,3466.1,3480.7,1150.6,1460.8,1975.6,2611.3,1741.6,3486.8,3467.4,3472.2,673.3,865.4,1387.5,872.1,821.9,738.1,-6.0,1.0,-8.0,10314.0,-12699.0,888.0,41.0,52.0,11.0,-18.0,1.0,5.0,2.0,3501.0,-9744.0,-11386.0,5620.0,47.0,0.0,-2.0,1.0
2022-05-13 15:53:50.382292-07:00,1155.9,757.1,892.4,847.0,719.2,705.2,1754.1,1208.0,3462.5,3472.2,1040.1,879.7,1505.1,3467.4,1187.6,1156.8,3478.3,3475.9,1153.3,1460.8,2041.4,2619.9,1741.6,3486.8,3472.2,3471.0,674.2,865.4,1390.3,866.3,821.9,738.1,1.0,1.0,-6.0,10316.0,-12698.0,884.0,43.0,-21.0,-16.0,-7.0,4.0,7.0,-1.0,3506.0,-9742.0,-11384.0,5625.0,-8.0,1.0,0.0,1.0
2022-05-13 15:53:50.427237-07:00,1143.6,765.3,889.8,847.0,715.9,705.2,1754.1,1208.0,3468.6,3463.7,1041.8,879.7,1516.2,3467.4,1187.6,1156.8,3478.3,3475.9,1153.3,1468.1,2041.4,2599.3,1741.6,3496.6,3472.2,3471.0,674.2,857.9,1390.3,860.4,817.7,741.4,3.0,7.0,0.0,10325.0,-12691.0,881.0,31.0,51.0,32.0,-31.0,4.0,0.0,1.0,3515.0,-9739.0,-11379.0,5635.0,65.0,-2.0,-2.0,1.0
2022-05-13 15:53:50.472347-07:00,1143.6,765.3,889.8,854.5,715.9,720.8,1748.3,1209.7,3468.6,3463.7,1041.8,877.2,1516.2,3474.6,1185.0,1151.5,3469.8,3478.3,1153.3,1468.1,2034.4,2599.3,1741.6,3496.6,3479.5,3478.3,671.7,857.9,1394.8,860.4,817.7,741.4,-9.0,-15.0,-10.0,10345.0,-12675.0,870.0,12.0,70.0,-12.0,-39.0,0.0,-2.0,0.0,3531.0,-9733.0,-11369.0,5655.0,85.0,-2.0,6.0,1.0
2022-05-13 15:53:50.518736-07:00,1139.2,761.2,892.4,854.5,711.8,720.8,1748.3,1209.7,3464.9,3483.2,1054.8,877.2,1511.5,3474.6,1185.0,1151.5,3469.8,3478.3,1153.3,1462.6,2034.4,2614.5,1740.6,3492.9,3479.5,3478.3,671.7,854.5,1394.8,866.3,823.5,738.1,-7.0,-5.0,1.0,10371.0,-12655.0,862.0,28.0,110.0,-55.0,32.0,-1.0,-6.0,-4.0,3556.0,-9723.0,-11352.0,5691.0,158.0,-23.0,13.0,1.0
2022-05-13 15:53:50.560419-07:00,1139.2,761.2,892.4,851.1,711.8,712.6,1884.0,1239.1,3464.9,3483.2,1054.8,885.6,1511.5,3475.9,1188.5,1161.2,3478.3,3457.6,1154.2,1462.6,2032.4,2614.5,1740.6,3492.9,3478.3,3478.3,680.7,854.5,1385.7,866.3,823.5,738.1,-17.0,7.0,-35.0,10411.0,-12622.0,861.0,40.0,19.0,1.0,26.0,-1.0,8.0,1.0,3606.0,-9700.0,-11318.0,5767.0,219.0,-24.0,-9.0,1.0
2022-05-13 15:53:50.651262-07:00,1141.9,757.9,887.3,849.5,718.4,712.6,1884.0,1239.1,3473.4,3462.5,1167.4,935.6,1523.6,3475.9,1188.5,1161.2,3478.3,3457.6,1154.2,1466.3,2032.4,2604.8,1791.6,3494.1,3478.3,3478.3,680.7,865.4,1390.3,861.2,815.2,738.1,-21.0,-96.0,14.0,10378.0,-12647.0,874.0,118.0,-174.0,-222.0,266.0,4.0,-23.0,-8.0,3656.0,-9682.0,-11280.0,5840.0,317.0,-37.0,46.0,1.0
2022-05-13 15:53:50.652601-07:00,1141.9,757.9,887.3,849.5,715.1,715.1,2310.8,1442.4,3473.4,3462.5,1167.4,935.6,1520.8,3457.6,1226.6,1193.8,3478.3,3478.3,1148.9,1462.6,2032.4,2604.8,1791.6,3494.1,3485.6,3467.4,714.2,878.9,1390.3,861.2,815.2,738.1,29.0,109.0,-45.0,10448.0,-12579.0,988.0,267.0,190.0,-61.0,439.0,2.0,83.0,-42.0,3760.0,-9628.0,-11196.0,6020.0,351.0,-114.0,-3.0,1.0
2022-05-13 15:53:50.696959-07:00,1121.7,752.1,892.4,861.2,715.1,715.1,2310.8,1442.4,3474.6,3474.6,1303.4,1016.8,1520.8,3457.6,1226.6,1193.8,3478.3,3478.3,1148.9,1462.6,2046.4,2602.6,1726.3,3494.1,3485.6,3467.4,714.2,878.9,1382.1,866.3,821.9,738.9,16.0,-3.0,67.0,10402.0,-12610.0,1059.0,325.0,-63.0,32.0,98.0,10.0,4.0,19.0,3773.0,-9590.0,-11190.0,6083.0,247.0,-74.0,-37.0,1.0
2022-05-13 15:53:50.786872-07:00,1121.7,752.1,892.4,861.2,719.2,725.8,2307.7,1612.4,3474.6,3474.6,1303.4,1016.8,1535.7,3467.4,1302.5,1256.0,3483.2,3475.9,1153.3,1476.4,2046.4,2602.6,1726.3,3494.1,3475.9,3483.2,723.3,921.1,1382.1,866.3,821.9,738.9,16.0,0.0,43.0,10431.0,-12582.0,1116.0,287.0,149.0,226.0,37.0,2.0,-10.0,16.0,3822.0,-9553.0,-11156.0,6173.0,269.0,-45.0,8.0,1.0
2022-05-13 15:53:50.832273-07:00,1111.2,744.7,886.5,858.7,719.2,725.8,2307.7,1612.4,3468.6,3475.9,1341.3,1045.2,1535.7,3467.4,1302.5,1256.0,3483.2,3475.9,1153.3,1476.4,2038.4,2613.4,1660.6,3497.8,3475.9,3483.2,723.3,921.1,1390.3,865.4,822.7,731.5,3.0,4.0,-13.0,10443.0,-12566.0,1195.0,205.0,-49.0,255.0,1.0,7.0,-12.0,16.0,3852.0,-9541.0,-11125.0,6229.0,120.0,-16.0,35.0,1.0
2022-05-13 15:53:50.875359-07:00,1111.2,744.7,886.5,858.7,717.5,725.8,2300.4,1635.0,3468.6,3475.9,1341.3,1045.2,1548.7,3462.5,1349.4,1297.2,3477.1,3474.6,1153.3,1477.3,2038.4,2613.4,1660.6,3497.8,3473.4,3478.3,725.8,932.2,1390.3,865.4,822.7,731.5,8.0,30.0,-29.0,10419.0,-12580.0,1273.0,102.0,16.0,348.0,-45.0,12.0,13.0,-6.0,3874.0,-9535.0,-11094.0,6280.0,177.0,-19.0,41.0,1.0
2022-05-13 15:53:51.012972-07:00,1115.6,744.7,889.8,852.8,717.5,725.8,2300.4,1641.6,3473.4,3464.9,1376.6,1065.1,1548.7,3462.5,1349.4,1328.7,3469.8,3474.6,1153.3,1477.3,2049.4,2611.3,1626.5,3489.2,3478.3,3478.3,725.8,932.2,1392.1,877.2,820.2,743.0,-11.0,-27.0,-23.0,10389.0,-12598.0,1343.0,-16.0,-41.0,311.0,-45.0,0.0,-16.0,-19.0,3894.0,-9526.0,-11075.0,6315.0,162.0,-13.0,8.0,1.0
2022-05-13 15:53:51.014244-07:00,1114.7,744.7,889.8,852.8,719.2,735.6,2279.6,1641.6,3480.7,3464.9,1376.6,1065.1,1570.2,3467.4,1393.0,1328.7,3469.8,3475.9,1155.0,1484.7,2049.4,2611.3,1626.5,3497.8,3478.3,3480.7,725.8,947.5,1392.1,877.2,820.2,736.5,10.0,-18.0,-19.0,10336.0,-12632.0,1422.0,-106.0,-162.0,289.0,43.0,2.0,-3.0,-2.0,3894.0,-9522.0,-11071.0,6327.0,22.0,-16.0,10.0,1.0
2022-05-13 15:53:51.102321-07:00,1114.7,749.6,891.5,853.7,719.2,735.6,2279.6,1605.8,3480.7,3468.6,1373.0,1067.7,1570.2,3467.4,1393.0,1329.6,3464.9,3475.9,1155.0,1484.7,2047.4,2605.8,1608.7,3497.8,3466.1,3480.7,725.8,947.5,1393.0,884.8,822.7,736.5,-1.0,21.0,-20.0,10300.0,-12651.0,1509.0,-158.0,-34.0,197.0,66.0,4.0,-9.0,14.0,3884.0,-9525.0,-11069.0,6332.0,5.0,-11.0,23.0,1.0
2022-05-13 15:53:51.103564-07:00,1115.6,749.6,891.5,853.7,729.0,738.9,2242.5,1605.8,3464.9,3468.6,1373.0,1067.7,1618.1,3474.6,1427.7,1329.6,3464.9,3485.6,1149.8,1485.6,2047.4,2605.8,1608.7,3491.7,3466.1,3478.3,722.5,933.9,1393.0,884.8,822.7,748.0,9.0,7.0,-8.0,10278.0,-12660.0,1574.0,-191.0,-39.0,160.0,76.0,5.0,6.0,1.0,3869.0,-9533.0,-11073.0,6323.0,-47.0,0.0,15.0,1.0
2022-05-13 15:53:51.104012-07:00,1115.6,731.5,895.7,847.8,729.0,738.9,2242.5,1576.8,3464.9,3466.1,1345.8,1058.2,1618.1,3474.6,1427.7,1322.3,3472.2,3485.6,1149.8,1485.6,2043.4,2611.3,1586.1,3491.7,3472.2,3478.3,722.5,933.9,1391.2,884.8,815.2,748.0,-1.0,14.0,-25.0,10261.0,-12667.0,1627.0,-221.0,-27.0,100.0,35.0,6.0,13.0,2.0,3858.0,-9543.0,-11072.0,6316.0,-46.0,3.0,30.0,1.0
2022-05-13 15:53:51.147773-07:00,1109.5,729.9,895.7,847.8,710.1,734.8,2202.4,1576.8,3467.4,3462.5,1345.8,1058.2,1651.1,3479.5,1438.7,1322.3,3472.2,3480.7,1157.7,1470.0,2043.4,2611.3,1574.9,3486.8,3472.2,3475.9,725.8,926.2,1391.2,884.8,822.7,752.9,-5.0,2.0,-17.0,10242.0,-12677.0,1661.0,-239.0,-20.0,98.0,11.0,1.0,1.0,1.0,3846.0,-9550.0,-11077.0,6304.0,-9.0,3.0,-8.0,1.0
2022-05-13 15:53:51.237010-07:00,1109.5,729.9,893.2,857.0,710.1,734.8,2182.0,1573.9,3467.4,3462.5,1335.0,1047.8,1651.1,3479.5,1433.2,1320.5,3480.7,3477.1,1157.7,1470.0,2037.4,2612.3,1574.9,3486.8,3474.6,3483.2,725.8,926.2,1393.0,892.4,822.7,752.9,-5.0,-3.0,-12.0,10232.0,-12683.0,1678.0,-247.0,-29.0,8.0,21.0,0.0,-15.0,-7.0,3843.0,-9551.0,-11079.0,6301.0,-14.0,-4.0,8.0,1.0
2022-05-13 15:53:51.281510-07:00,1099.9,732.3,893.2,857.0,724.9,738.9,2182.0,1573.9,3463.7,3474.6,1335.0,1047.8,1640.7,3462.5,1433.2,1320.5,3480.7,3477.1,1151.5,1473.6,2037.4,2612.3,1559.0,3492.9,3474.6,3483.2,729.0,930.5,1393.0,892.4,821.9,751.3,0.0,2.0,0.0,10228.0,-12687.0,1678.0,-248.0,-38.0,23.0,-3.0,2.0,13.0,0.0,3839.0,-9553.0,-11081.0,6296.0,-46.0,-5.0,-15.0,1.0
2022-05-13 15:53:51.371796-07:00,1099.9,732.3,889.0,858.7,724.9,738.9,2208.6,1574.9,3463.7,3474.6,1322.3,1037.5,1640.7,3462.5,1441.5,1311.5,3464.9,3474.6,1151.5,1473.6,2034.4,2606.9,1559.0,3492.9,3471.0,3478.3,729.0,930.5,1389.4,886.5,821.9,751.3,4.0,1.0,-7.0,10220.0,-12693.0,1679.0,-255.0,-7.0,0.0,-9.0,4.0,12.0,-3.0,3837.0,-9552.0,-11086.0,6291.0,-19.0,-7.0,-9.0,1.0
2022-05-13 15:53:51.373117-07:00,1095.6,731.5,889.0,858.7,722.5,735.6,2208.6,1574.9,3462.5,3464.9,1322.3,1037.5,1640.7,3471.0,1441.5,1311.5,3464.9,3474.6,1153.3,1480.1,2034.4,2606.9,1559.9,3489.2,3471.0,3478.3,728.2,922.0,1389.4,886.5,818.5,752.9,0.0,6.0,-6.0,10217.0,-12695.0,1678.0,-257.0,-8.0,-15.0,-18.0,2.0,15.0,3.0,3832.0,-9554.0,-11089.0,6286.0,-7.0,0.0,8.0,1.0
2022-05-13 15:53:51.417346-07:00,1095.6,731.5,889.0,861.2,722.5,732.3,2159.5,1596.4,3462.5,3464.9,1313.3,1039.2,1640.7,3464.9,1428.6,1312.4,3469.8,3477.1,1146.3,1480.1,2037.4,2604.8,1559.9,3489.2,3473.4,3479.5,724.1,922.0,1392.1,892.4,818.5,752.9,-1.0,0.0,-2.0,10208.0,-12703.0,1679.0,-256.0,-24.0,30.0,0.0,2.0,7.0,-3.0,3824.0,-9557.0,-11094.0,6276.0,-31.0,4.0,1.0,1.0
2022-05-13 15:53:51.462256-07:00,1101.7,736.5,893.2,861.2,715.1,732.3,2159.5,1596.4,3466.1,3472.2,1311.5,1039.2,1623.7,3464.9,1428.6,1312.4,3469.8,3477.1,1146.3,1485.6,2037.4,2610.2,1550.6,3491.7,3473.4,3479.5,724.1,911.8,1392.1,897.4,825.2,752.1,0.0,2.0,-16.0,10205.0,-12704.0,1684.0,-264.0,-8.0,-7.0,-8.0,1.0,7.0,-6.0,3822.0,-9558.0,-11096.0,6273.0,-18.0,-2.0,1.0,1.0
