Time,P0,P1,P2,P3,P4,P5,P6,P7,P8,P9,P10,P11,P12,P13,P14,P15,P16,P17,P18,P19,P20,P21,P22,P23,P24,P25,P26,P27,P28,P29,P30,P31,ECG,AX0,AY0,AZ0,QW0,QX0,QY0,QZ0,GX0,GY0,GZ0,AX1,AY1,AZ1,QW1,QX1,QY1,QZ1,GX1,GY1,GZ1
2022-05-13 14:33:56.964928-07:00,1163.8,767.8,1034.9,939.0,979.0,767.8,1613.4,1100.8,3462.5,3468.6,1029.7,870.5,1468.1,3467.4,1201.8,1155.0,3479.5,3466.1,1052.2,1342.2,1841.1,2494.0,1090.3,3494.1,3480.7,3468.6,671.7,728.2,1609.6,913.5,847.0,909.3,9.0,8.0,-4.0,9780.0,-12032.0,5229.0,-818.0,-16.0,4.0,3.0,3.0,0.0,-1.0,7114.0,-14625.0,1985.0,92.0,-17.0,-5.0,1.0,1.0
2022-05-13 14:33:57.030475-07:00,1163.8,767.8,1034.9,939.0,978.2,756.3,1623.7,1100.8,3462.5,3468.6,1029.7,870.5,1470.0,3464.9,1200.9,1155.0,3479.5,3471.0,1047.0,1335.0,1841.1,2494.0,1090.3,3495.3,3480.7,3478.3,672.5,746.3,1609.6,913.5,847.0,910.1,13.0,10.0,5.0,9775.0,-12036.0,5231.0,-815.0,-13.0,-3.0,6.0,7.0,-3.0,2.0,7110.0,-14627.0,1985.0,92.0,-14.0,-4.0,2.0,1.0
2022-05-13 14:33:57.056314-07:00,1163.8,747.2,1039.2,955.1,978.2,756.3,1623.7,1096.4,3462.5,3475.9,1029.7,874.7,1470.0,3464.9,1200.9,1149.8,3480.7,3471.0,1047.0,1335.0,1833.3,2494.0,1100.8,3495.3,3468.6,3478.3,672.5,746.3,1604.0,905.0,847.0,910.1,5.0,4.0,3.0,9771.0,-12039.0,5232.0,-815.0,6.0,21.0,3.0,0.0,-3.0,-2.0,7106.0,-14628.0,1985.0,93.0,0.0,0.0,1.0,1.0
2022-05-13 14:33:57.057420-07:00,1168.2,741.4,1039.2,955.1,987.6,767.8,1625.6,1096.4,3469.8,3464.9,1029.7,874.7,1474.6,3468.6,1199.1,1149.8,3480.7,3473.4,1047.8,1339.5,1833.3,2494.0,1092.1,3492.9,3468.6,3469.8,672.5,718.4,1604.0,905.0,852.0,910.1,6.0,17.0,-4.0,9772.0,-12036.0,5235.0,-820.0,-9.0,-13.0,0.0,0.0,0.0,0.0,7109.0,-14627.0,1985.0,92.0,-3.0,-3.0,-1.0,1.0
2022-05-13 14:33:57.059661-07:00,1168.2,741.4,1042.6,940.7,987.6,767.8,1620.9,1094.7,3469.8,3464.9,1034.9,873.8,1474.6,3468.6,1200.0,1152.4,3473.4,3471.0,1047.8,1339.5,1845.9,2496.2,1092.1,3492.9,3477.1,3475.9,672.5,718.4,1611.5,912.7,852.0,910.1,7.0,9.0,-1.0,9773.0,-12035.0,5234.0,-819.0,28.0,-2.0,-8.0,0.0,-4.0,3.0,7111.0,-14626.0,1985.0,92.0,20.0,-3.0,-5.0,1.0
2022-05-13 14:33:57.159783-07:00,1160.3,751.3,1042.6,940.7,980.7,761.2,1620.9,1094.7,3460.1,3472.2,1034.9,873.8,1474.6,3472.2,1200.0,1152.4,3473.4,3471.0,1056.5,1346.7,1845.9,2496.2,1092.9,3490.5,3477.1,3475.9,676.6,729.9,1611.5,912.7,850.3,900.0,10.0,4.0,1.0,9775.0,-12035.0,5233.0,-818.0,-11.0,-4.0,1.0,5.0,1.0,3.0,7110.0,-14626.0,1985.0,92.0,-11.0,-1.0,-1.0,1.0
2022-05-13 14:33:57.162046-07:00,1160.3,751.3,1037.5,949.2,980.7,761.2,1605.8,1101.7,3460.1,3472.2,1039.2,878.9,1474.6,3472.2,1202.7,1148.0,3464.9,3469.8,1056.5,1346.7,1838.2,2499.4,1092.9,3490.5,3472.2,3479.5,676.6,729.9,1607.7,912.7,850.3,900.0,16.0,12.0,2.0,9774.0,-12036.0,5233.0,-818.0,-8.0,4.0,3.0,7.0,1.0,2.0,7110.0,-14626.0,1985.0,92.0,-4.0,1.0,3.0,1.0
2022-05-13 14:33:57.196926-07:00,1166.5,745.5,1037.5,949.2,984.2,767.0,1605.8,1101.7,3463.7,3462.5,1039.2,878.9,1472.7,3477.1,1202.7,1148.0,3464.9,3469.8,1053.0,1335.0,1838.2,2499.4,1092.9,3500.2,3472.2,3479.5,673.3,723.3,1607.7,912.7,852.8,911.8,8.0,9.0,-2.0,9775.0,-12034.0,5235.0,-821.0,3.0,10.0,3.0,3.0,0.0,-3.0,7112.0,-14625.0,1985.0,92.0,1.0,1.0,4.0,1.0
2022-05-13 14:33:57.241241-07:00,1166.5,745.5,1035.7,950.0,984.2,767.0,1615.2,1091.2,3463.7,3462.5,1032.3,877.2,1472.7,3477.1,1200.0,1153.3,3468.6,3467.4,1053.0,1335.0,1834.3,2496.2,1092.9,3500.2,3474.6,3472.2,673.3,723.3,1613.4,916.0,852.8,911.8,11.0,7.0,3.0,9772.0,-12035.0,5235.0,-821.0,9.0,2.0,5.0,3.0,0.0,0.0,7110.0,-14627.0,1985.0,92.0,1.0,-3.0,3.0,1.0
2022-05-13 14:33:57.331001-07:00,1172.6,748.0,1037.5,950.0,979.0,760.4,1615.2,1091.2,3471.0,3462.5,1032.3,877.2,1470.9,3466.1,1200.0,1153.3,3468.6,3467.4,1047.0,1327.8,1834.3,2502.6,1093.8,3501.4,3474.6,3472.2,669.3,725.8,1613.4,906.7,844.4,909.3,10.0,8.0,0.0,9773.0,-12035.0,5235.0,-821.0,-10.0,1.0,-2.0,4.0,-1.0,-1.0,7110.0,-14627.0,1985.0,92.0,-5.0,0.0,1.0,1.0
2022-05-13 14:33:57.374545-07:00,1172.6,748.0,1037.5,947.5,979.0,776.1,1618.1,1099.0,3471.0,3462.5,1032.3,875.5,1470.9,3474.6,1199.1,1149.8,3472.2,3475.9,1034.0,1327.8,1849.8,2502.6,1093.8,3501.4,3473.4,3477.1,674.2,725.8,1620.9,906.7,844.4,909.3,5.0,11.0,2.0,9773.0,-12035.0,5235.0,-821.0,-16.0,2.0,7.0,2.0,0.0,1.0,7110.0,-14627.0,1985.0,92.0,-18.0,1.0,4.0,1.0
2022-05-13 14:33:57.419640-07:00,1179.7,747.2,1049.6,947.5,983.3,776.1,1618.1,1099.0,3463.7,3468.6,1029.7,875.5,1474.6,3474.6,1199.1,1149.8,3472.2,3475.9,1034.0,1338.6,1849.8,2499.4,1088.6,3490.5,3473.4,3477.1,674.2,732.3,1620.9,911.0,843.6,912.7,4.0,15.0,0.0,9771.0,-12036.0,5237.0,-820.0,8.0,11.0,3.0,0.0,-1.0,1.0,7107.0,-14628.0,1985.0,92.0,8.0,-1.0,5.0,1.0
2022-05-13 14:33:57.511023-07:00,1179.7,747.2,1049.6,944.1,983.3,759.6,1616.2,1097.3,3463.7,3468.6,1029.7,878.9,1474.6,3467.4,1195.6,1139.2,3467.4,3477.1,1051.3,1338.6,1840.1,2499.4,1088.6,3490.5,3472.2,3473.4,670.1,732.3,1619.0,911.0,843.6,912.7,7.0,4.0,1.0,9769.0,-12037.0,5239.0,-821.0,-5.0,8.0,1.0,4.0,-2.0,0.0,7105.0,-14629.0,1985.0,93.0,-9.0,-2.0,2.0,1.0
2022-05-13 14:33:57.512735-07:00,1178.8,745.5,1039.2,944.1,979.9,759.6,1616.2,1097.3,3463.7,3457.6,1034.0,878.9,1470.9,3467.4,1195.6,1139.2,3467.4,3477.1,1051.3,1335.0,1840.1,2494.0,1086.8,3486.8,3472.2,3473.4,670.1,728.2,1619.0,916.0,852.0,911.8,11.0,6.0,1.0,9768.0,-12038.0,5239.0,-821.0,-18.0,5.0,5.0,6.0,0.0,-2.0,7105.0,-14629.0,1985.0,93.0,-16.0,0.0,5.0,1.0
2022-05-13 14:33:57.600584-07:00,1178.8,745.5,1039.2,946.6,982.5,763.7,1622.8,1094.7,3463.7,3457.6,1034.0,877.2,1480.1,3467.4,1200.0,1147.1,3475.9,3468.6,1054.8,1336.8,1835.2,2494.0,1086.8,3486.8,3467.4,3472.2,678.2,725.8,1612.4,916.0,852.0,911.8,8.0,13.0,-3.0,9765.0,-12039.0,5242.0,-820.0,4.0,2.0,11.0,1.0,2.0,1.0,7103.0,-14630.0,1985.0,93.0,8.0,0.0,7.0,1.0
2022-05-13 14:33:57.602219-07:00,1169.1,750.5,1031.4,942.4,982.5,763.7,1622.8,1094.7,3467.4,3463.7,1033.2,877.2,1480.1,3467.4,1200.0,1147.1,3475.9,3468.6,1054.8,1336.8,1845.0,2488.7,1093.8,3491.7,3467.4,3472.2,678.2,725.8,1623.7,912.7,857.0,911.0,7.0,9.0,0.0,9763.0,-12040.0,5244.0,-818.0,-1.0,8.0,5.0,0.0,-1.0,1.0,7101.0,-14631.0,1985.0,93.0,-1.0,1.0,5.0,1.0
2022-05-13 14:33:57.689672-07:00,1169.1,750.5,1031.4,942.4,984.2,757.1,1614.3,1095.6,3467.4,3463.7,1033.2,877.2,1472.7,3468.6,1202.7,1147.1,3469.8,3478.3,1049.6,1342.2,1845.0,2488.7,1093.8,3491.7,3472.2,3469.8,672.5,729.0,1623.7,912.7,857.0,911.0,9.0,8.0,-3.0,9763.0,-12040.0,5245.0,-818.0,-5.0,-1.0,5.0,5.0,0.0,0.0,7101.0,-14631.0,1985.0,93.0,-5.0,-2.0,2.0,1.0
2022-05-13 14:33:57.735858-07:00,1167.4,759.6,1053.0,948.3,984.2,757.1,1614.3,1095.6,3472.2,3462.5,1033.2,877.2,1472.7,3468.6,1202.7,1147.1,3469.8,3478.3,1049.6,1342.2,1842.0,2491.9,1094.7,3505.1,3472.2,3469.8,672.5,729.0,1620.9,914.4,850.3,918.6,4.0,11.0,-1.0,9763.0,-12040.0,5245.0,-818.0,1.0,-5.0,-3.0,1.0,1.0,1.0,7101.0,-14631.0,1985.0,93.0,-1.0,2.0,-2.0,1.0
2022-05-13 14:33:57.781403-07:00,1167.4,759.6,1053.0,948.3,983.3,762.0,1618.1,1090.3,3472.2,3462.5,1033.2,877.2,1470.0,3467.4,1200.0,1142.7,3483.2,3473.4,1048.7,1341.3,1842.0,2491.9,1094.7,3505.1,3474.6,3469.8,675.0,730.7,1620.9,914.4,850.3,918.6,8.0,5.0,7.0,9763.0,-12040.0,5244.0,-818.0,-1.0,5.0,5.0,3.0,-1.0,5.0,7100.0,-14631.0,1985.0,93.0,-3.0,2.0,1.0,1.0
2022-05-13 14:33:57.824471-07:00,1168.2,747.2,1036.6,943.2,983.3,762.0,1618.1,1099.9,3464.9,3472.2,1029.7,877.2,1470.0,3467.4,1200.0,1157.7,3483.2,3473.4,1048.7,1341.3,1830.4,2499.4,1101.7,3507.5,3474.6,3469.8,675.0,730.7,1608.7,892.4,848.6,911.8,9.0,8.0,2.0,9762.0,-12039.0,5246.0,-818.0,1.0,9.0,2.0,6.0,-2.0,1.0,7100.0,-14631.0,1985.0,93.0,-7.0,1.0,7.0,1.0
2022-05-13 14:33:57.871011-07:00,1168.2,747.2,1036.6,943.2,984.2,759.6,1627.5,1099.9,3464.9,3472.2,1029.7,877.2,1470.0,3462.5,1201.8,1157.7,3483.2,3471.0,1051.3,1335.0,1830.4,2499.4,1101.7,3490.5,3474.6,3478.3,672.5,728.2,1608.7,892.4,848.6,913.5,9.0,14.0,-3.0,9763.0,-12037.0,5248.0,-822.0,13.0,5.0,-8.0,0.0,6.0,3.0,7100.0,-14631.0,1985.0,93.0,9.0,6.0,3.0,1.0
2022-05-13 14:33:57.914731-07:00,1168.2,748.8,1032.3,937.3,984.2,759.6,1627.5,1093.8,3464.9,3473.4,1028.8,873.0,1470.0,3462.5,1201.8,1150.6,3474.6,3471.0,1051.3,1335.0,1835.2,2494.0,1094.7,3490.5,3477.1,3478.3,672.5,728.2,1614.3,904.2,847.8,913.5,6.0,6.0,-10.0,9764.0,-12037.0,5248.0,-823.0,-6.0,-5.0,10.0,2.0,-2.0,-2.0,7100.0,-14631.0,1985.0,93.0,-5.0,1.0,1.0,1.0
2022-05-13 14:33:57.959724-07:00,1171.8,748.8,1032.3,937.3,998.7,767.0,1613.4,1093.8,3469.8,3473.4,1028.8,873.0,1470.0,3462.5,1198.2,1150.6,3474.6,3473.4,1038.3,1344.9,1835.2,2494.0,1094.7,3492.9,3477.1,3472.2,672.5,718.4,1614.3,904.2,847.8,905.9,11.0,10.0,2.0,9764.0,-12036.0,5249.0,-821.0,10.0,-3.0,-8.0,4.0,1.0,3.0,7100.0,-14631.0,1985.0,93.0,1.0,-2.0,-2.0,1.0
2022-05-13 14:33:58.004640-07:00,1171.8,747.2,1034.9,936.4,998.7,767.0,1613.4,1100.8,3469.8,3463.7,1025.4,873.0,1470.0,3462.5,1198.2,1150.6,3467.4,3473.4,1038.3,1344.9,1843.0,2494.0,1090.3,3492.9,3471.0,3472.2,672.5,718.4,1613.4,916.0,853.7,905.9,10.0,5.0,3.0,9765.0,-12036.0,5249.0,-821.0,3.0,2.0,9.0,3.0,-2.0,-2.0,7100.0,-14631.0,1985.0,93.0,-1.0,3.0,5.0,1.0
2022-05-13 14:33:58.049674-07:00,1176.2,747.2,1034.9,936.4,971.3,758.7,1613.4,1100.8,3472.2,3463.7,1025.4,873.0,1470.0,3462.5,1192.9,1150.6,3467.4,3472.2,1049.6,1338.6,1843.0,2494.0,1090.3,3489.2,3471.0,3472.2,666.0,728.2,1613.4,916.0,853.7,908.4,10.0,11.0,-2.0,9764.0,-12035.0,5252.0,-822.0,-4.0,10.0,-2.0,1.0,0.0,1.0,7099.0,-14632.0,1986.0,94.0,-6.0,4.0,5.0,1.0
2022-05-13 14:33:58.094624-07:00,1176.2,749.6,1038.3,944.9,971.3,758.7,1621.8,1101.7,3472.2,3468.6,1030.6,877.2,1470.0,3462.5,1207.1,1140.1,3475.9,3480.7,1049.6,1338.6,1836.2,2490.8,1094.7,3489.2,3478.3,3471.0,666.0,728.2,1611.5,913.5,849.5,908.4,8.0,10.0,-12.0,9765.0,-12034.0,5253.0,-824.0,-5.0,3.0,2.0,2.0,1.0,-3.0,7099.0,-14632.0,1986.0,94.0,0.0,-2.0,0.0,1.0
2022-05-13 14:33:58.139565-07:00,1174.4,754.6,1038.3,944.9,979.9,768.7,1621.8,1101.7,3468.6,3473.4,1030.6,877.2,1471.8,3471.0,1207.1,1140.1,3475.9,3480.7,1043.5,1332.3,1836.2,2490.8,1090.3,3492.9,3478.3,3471.0,666.0,721.6,1611.5,913.5,849.5,905.0,10.0,9.0,-2.0,9766.0,-12034.0,5251.0,-822.0,5.0,-13.0,-4.0,2.0,2.0,0.0,7099.0,-14632.0,1986.0,94.0,4.0,-5.0,-7.0,1.0
2022-05-13 14:33:58.233254-07:00,1174.4,754.6,1041.8,949.2,979.9,768.7,1616.2,1089.5,3468.6,3473.4,1030.6,864.6,1471.8,3471.0,1200.0,1157.7,3460.1,3478.3,1043.5,1332.3,1827.5,2494.0,1090.3,3492.9,3472.2,3475.9,666.0,721.6,1615.2,912.7,849.5,905.0,10.0,4.0,6.0,9767.0,-12035.0,5246.0,-821.0,8.0,-9.0,-14.0,3.0,-4.0,2.0,7099.0,-14632.0,1985.0,94.0,2.0,-2.0,-6.0,1.0
2022-05-13 14:33:58.234403-07:00,1174.4,752.1,1041.8,949.2,988.5,759.6,1616.2,1089.5,3460.1,3462.5,1030.6,864.6,1474.6,3469.8,1200.0,1157.7,3460.1,3478.3,1053.0,1337.7,1827.5,2494.0,1096.4,3488.0,3472.2,3475.9,670.9,726.6,1615.2,912.7,852.0,919.4,10.0,7.0,7.0,9767.0,-12035.0,5245.0,-821.0,-7.0,5.0,12.0,2.0,-4.0,4.0,7099.0,-14632.0,1985.0,94.0,-2.0,-2.0,6.0,1.0
2022-05-13 14:33:58.319633-07:00,1174.4,752.1,1034.0,944.1,988.5,759.6,1613.4,1106.9,3460.1,3462.5,1030.6,878.9,1474.6,3469.8,1203.5,1152.4,3478.3,3473.4,1053.0,1337.7,1835.2,2491.9,1096.4,3488.0,3471.0,3474.6,670.9,726.6,1610.5,915.2,852.0,919.4,10.0,10.0,2.0,9767.0,-12035.0,5247.0,-821.0,-4.0,14.0,3.0,1.0,2.0,1.0,7099.0,-14632.0,1985.0,94.0,-5.0,7.0,6.0,1.0
2022-05-13 14:33:58.411399-07:00,1172.6,752.1,1026.3,944.1,973.1,760.4,1613.4,1106.9,3462.5,3471.0,1034.0,878.9,1470.0,3473.4,1203.5,1152.4,3478.3,3473.4,1056.5,1335.0,1835.2,2499.4,1097.3,3485.6,3471.0,3474.6,673.3,724.1,1610.5,910.1,852.8,919.4,11.0,12.0,-3.0,9765.0,-12035.0,5250.0,-824.0,3.0,11.0,5.0,6.0,2.0,0.0,7098.0,-14632.0,1985.0,94.0,6.0,5.0,4.0,1.0
2022-05-13 14:33:58.454474-07:00,1172.6,752.1,1026.3,944.9,973.1,761.2,1620.9,1096.4,3462.5,3471.0,1034.0,873.8,1470.0,3474.6,1196.5,1155.0,3479.5,3473.4,1062.5,1335.0,1833.3,2499.4,1097.3,3485.6,3472.2,3472.2,677.4,724.1,1610.5,910.1,852.8,919.4,8.0,12.0,-3.0,9765.0,-12035.0,5250.0,-825.0,6.0,-2.0,1.0,1.0,1.0,0.0,7097.0,-14633.0,1985.0,94.0,3.0,-3.0,-1.0,1.0
2022-05-13 14:33:58.456475-07:00,1171.8,740.6,1033.2,944.9,979.9,761.2,1620.9,1096.4,3467.4,3463.7,1033.2,873.8,1475.5,3474.6,1196.5,1155.0,3479.5,3473.4,1062.5,1337.7,1833.3,2498.3,1089.5,3492.9,3472.2,3472.2,677.4,725.8,1610.5,911.8,872.1,905.9,7.0,7.0,0.0,9765.0,-12035.0,5250.0,-825.0,4.0,-12.0,-3.0,3.0,0.0,3.0,7097.0,-14633.0,1985.0,94.0,2.0,-5.0,-7.0,1.0
2022-05-13 14:33:58.499620-07:00,1171.8,740.6,1033.2,941.5,979.9,764.5,1640.7,1090.3,3467.4,3463.7,1033.2,875.5,1475.5,3468.6,1195.6,1154.2,3468.6,3469.8,1054.8,1337.7,1839.1,2498.3,1089.5,3492.9,3474.6,3472.2,676.6,725.8,1611.5,911.8,872.1,905.9,10.0,10.0,7.0,9766.0,-12035.0,5249.0,-824.0,0.0,6.0,2.0,4.0,-6.0,6.0,7097.0,-14633.0,1985.0,94.0,-3.0,-5.0,4.0,1.0
2022-05-13 14:33:58.590177-07:00,1176.2,755.4,1034.9,941.5,977.3,764.5,1640.7,1090.3,3464.9,3474.6,1032.3,875.5,1471.8,3468.6,1195.6,1154.2,3468.6,3469.8,1054.8,1338.6,1839.1,2493.0,1099.0,3496.6,3474.6,3472.2,676.6,727.4,1611.5,907.6,850.3,909.3,12.0,7.0,3.0,9765.0,-12035.0,5251.0,-825.0,2.0,19.0,-2.0,2.0,0.0,4.0,7097.0,-14633.0,1986.0,92.0,-1.0,15.0,5.0,1.0
2022-05-13 14:33:58.593050-07:00,1176.2,755.4,1034.9,942.4,977.3,762.0,1614.3,1100.8,3464.9,3474.6,1032.3,876.4,1471.8,3471.0,1199.1,1154.2,3468.6,3466.1,1045.2,1338.6,1839.1,2493.0,1099.0,3496.6,3473.4,3467.4,672.5,727.4,1615.2,907.6,850.3,909.3,9.0,8.0,-4.0,9763.0,-12034.0,5255.0,-831.0,0.0,8.0,2.0,1.0,5.0,-6.0,7097.0,-14633.0,1986.0,92.0,-5.0,2.0,2.0,1.0
2022-05-13 14:33:58.635899-07:00,1167.4,755.4,1042.6,943.2,983.3,762.0,1614.3,1100.8,3469.8,3472.2,1031.4,875.5,1474.6,3471.0,1199.1,1154.2,3468.6,3466.1,1045.2,1339.5,1823.6,2498.3,1090.3,3499.0,3473.4,3467.4,672.5,728.2,1612.4,914.4,847.8,905.0,13.0,11.0,0.0,9763.0,-12034.0,5255.0,-831.0,10.0,-2.0,-2.0,4.0,1.0,-2.0,7097.0,-14633.0,1986.0,92.0,4.0,-5.0,-1.0,1.0
2022-05-13 14:33:58.724050-07:00,1167.4,755.4,1042.6,943.2,982.5,773.6,1616.2,1099.9,3469.8,3472.2,1031.4,875.5,1471.8,3462.5,1196.5,1152.4,3474.6,3468.6,1069.5,1335.0,1823.6,2498.3,1090.3,3499.0,3475.9,3483.2,668.4,726.6,1612.4,914.4,847.8,905.0,10.0,4.0,1.0,9764.0,-12033.0,5254.0,-830.0,-3.0,-12.0,-2.0,5.0,-2.0,3.0,7097.0,-14633.0,1986.0,92.0,-7.0,-3.0,-4.0,1.0
2022-05-13 14:33:58.856763-07:00,1172.6,748.8,1039.2,947.5,982.5,773.6,1616.2,1099.9,3469.8,3468.6,1028.8,871.3,1471.8,3462.5,1196.5,1152.4,3474.6,3468.6,1069.5,1335.0,1833.3,2501.5,1105.1,3484.4,3475.9,3483.2,668.4,726.6,1618.1,914.4,852.0,910.1,7.0,12.0,5.0,9765.0,-12033.0,5253.0,-830.0,5.0,6.0,-3.0,2.0,0.0,6.0,7097.0,-14633.0,1986.0,92.0,-3.0,0.0,2.0,1.0
2022-05-13 14:33:58.906725-07:00,1172.6,748.8,1039.2,947.5,987.6,764.5,1599.3,1093.8,3469.8,3468.6,1028.8,871.3,1468.1,3475.9,1201.8,1154.2,3478.3,3478.3,1047.8,1329.6,1833.3,2501.5,1105.1,3484.4,3483.2,3478.3,666.0,723.3,1618.1,914.4,852.0,910.1,8.0,8.0,-3.0,9765.0,-12033.0,5253.0,-830.0,-7.0,7.0,6.0,0.0,-1.0,-1.0,7097.0,-14633.0,1986.0,92.0,-8.0,-1.0,2.0,1.0
2022-05-13 14:33:58.909065-07:00,1170.9,764.5,1031.4,944.9,987.6,764.5,1599.3,1093.8,3463.7,3471.0,1028.0,875.5,1468.1,3475.9,1201.8,1154.2,3478.3,3478.3,1047.8,1329.6,1842.0,2501.5,1098.2,3499.0,3483.2,3478.3,666.0,723.3,1613.4,911.0,846.1,905.0,15.0,14.0,1.0,9764.0,-12033.0,5254.0,-831.0,11.0,20.0,-5.0,4.0,4.0,0.0,7097.0,-14633.0,1986.0,92.0,4.0,1.0,3.0,1.0
2022-05-13 14:33:58.910169-07:00,1191.2,764.5,1031.4,944.9,979.9,757.9,1609.6,1094.7,3469.8,3471.0,1028.0,875.5,1470.0,3467.4,1200.0,1148.9,3469.8,3478.3,1051.3,1338.6,1842.0,2501.5,1098.2,3486.8,3467.4,3479.5,679.9,726.6,1613.4,911.0,846.1,900.8,10.0,2.0,-2.0,9762.0,-12034.0,5257.0,-833.0,-11.0,0.0,6.0,2.0,-3.0,-2.0,7094.0,-14634.0,1986.0,92.0,-12.0,1.0,1.0,1.0
2022-05-13 14:33:59.175806-07:00,1191.2,745.5,1033.2,943.2,979.9,757.9,1609.6,1095.6,3469.8,3467.4,1029.7,873.0,1470.0,3467.4,1200.0,1155.9,3475.9,3478.3,1051.3,1338.6,1833.3,2493.0,1093.8,3486.8,3478.3,3479.5,679.9,726.6,1611.5,913.5,852.8,900.8,10.0,19.0,2.0,9763.0,-12033.0,5257.0,-834.0,-10.0,-1.0,0.0,2.0,5.0,4.0,7098.0,-14632.0,1986.0,92.0,-6.0,0.0,1.0,1.0
2022-05-13 14:33:59.266508-07:00,1170.9,745.5,1033.2,943.2,984.2,762.0,1617.1,1095.6,3473.4,3467.4,1029.7,873.0,1470.0,3471.0,1199.1,1155.9,3475.9,3472.2,1053.9,1331.4,1833.3,2493.0,1093.8,3494.1,3478.3,3473.4,676.6,738.1,1611.5,913.5,852.8,919.4,8.0,2.0,4.0,9759.0,-12036.0,5257.0,-832.0,18.0,8.0,2.0,5.0,-2.0,2.0,7094.0,-14634.0,1986.0,92.0,5.0,-2.0,3.0,1.0
2022-05-13 14:33:59.267732-07:00,1170.9,748.8,1035.7,950.9,984.2,762.0,1617.1,1088.6,3473.4,3468.6,1027.1,874.7,1470.0,3471.0,1199.1,1147.1,3480.7,3472.2,1053.9,1331.4,1836.2,2526.1,1097.3,3494.1,3472.2,3473.4,676.6,738.1,1611.5,911.8,849.5,919.4,12.0,13.0,-2.0,9761.0,-12034.0,5258.0,-836.0,-1.0,11.0,-7.0,3.0,3.0,0.0,7096.0,-14633.0,1986.0,92.0,-7.0,0.0,1.0,1.0
2022-05-13 14:33:59.268775-07:00,1178.8,748.8,1035.7,950.9,976.5,759.6,1600.2,1088.6,3463.7,3468.6,1027.1,874.7,1472.7,3468.6,1203.5,1147.1,3480.7,3474.6,1053.9,1335.0,1836.2,2526.1,1097.3,3494.1,3472.2,3477.1,670.9,725.8,1611.5,911.8,849.5,916.0,8.0,5.0,-1.0,9757.0,-12036.0,5259.0,-835.0,-7.0,-10.0,4.0,3.0,-2.0,0.0,7092.0,-14635.0,1986.0,92.0,-7.0,-7.0,-1.0,1.0
2022-05-13 14:33:59.269826-07:00,1178.8,744.7,1042.6,938.1,976.5,759.6,1641.6,1092.9,3463.7,3467.4,1033.2,872.1,1472.7,3468.6,1198.2,1150.6,3475.9,3478.3,1053.9,1335.0,1825.5,2495.1,1093.8,3494.1,3472.2,3467.4,670.9,725.8,1611.5,905.0,850.3,916.0,12.0,12.0,6.0,9761.0,-12035.0,5256.0,-835.0,5.0,10.0,-10.0,1.0,0.0,0.0,7094.0,-14634.0,1986.0,92.0,-3.0,-4.0,-1.0,1.0
2022-05-13 14:33:59.355832-07:00,1173.5,746.3,1042.6,946.6,979.9,757.9,1605.8,1093.8,3478.3,3467.4,1032.3,876.4,1464.4,3471.0,1205.3,1155.9,3471.0,3471.0,1053.9,1339.5,1839.1,2498.3,1096.4,3490.5,3463.7,3477.1,672.5,727.4,1616.2,898.3,850.3,912.7,13.0,18.0,1.0,9756.0,-12036.0,5262.0,-842.0,4.0,22.0,-2.0,3.0,5.0,1.0,7092.0,-14635.0,1987.0,93.0,-3.0,9.0,6.0,1.0
2022-05-13 14:33:59.356503-07:00,1173.5,746.3,1042.6,946.6,979.9,757.9,1605.8,1093.8,3478.3,3467.4,1032.3,876.4,1464.4,3471.0,1205.3,1155.9,3471.0,3471.0,1053.9,1339.5,1839.1,2498.3,1096.4,3490.5,3463.7,3477.1,672.5,727.4,1616.2,898.3,850.3,912.7,13.0,18.0,1.0,9756.0,-12036.0,5262.0,-842.0,4.0,22.0,-2.0,3.0,5.0,1.0,7092.0,-14635.0,1987.0,93.0,-3.0,9.0,6.0,1.0
2022-05-13 14:33:59.357532-07:00,1166.5,759.6,1034.0,945.8,979.9,760.4,1612.4,1097.3,3464.9,3463.7,1028.8,874.7,1471.8,3469.8,1195.6,1146.3,3466.1,3469.8,1048.7,1330.5,1837.2,2496.2,1092.9,3488.0,3466.1,3475.9,673.3,721.6,1620.9,910.1,848.6,903.4,12.0,13.0,0.0,9755.0,-12034.0,5267.0,-847.0,10.0,3.0,-8.0,5.0,3.0,1.0,7093.0,-14634.0,1988.0,91.0,9.0,2.0,-2.0,1.0
2022-05-13 14:33:59.445639-07:00,1162.1,748.0,1034.0,945.8,985.9,767.8,1612.4,1097.3,3462.5,3468.6,1028.8,874.7,1469.0,3478.3,1195.6,1146.3,3466.1,3469.8,1050.4,1341.3,1837.2,2496.2,1093.8,3484.4,3466.1,3475.9,671.7,724.9,1620.9,910.1,848.6,916.9,11.0,5.0,-1.0,9756.0,-12033.0,5267.0,-848.0,-3.0,-2.0,8.0,2.0,0.0,0.0,7093.0,-14634.0,1988.0,91.0,0.0,0.0,-2.0,1.0
2022-05-13 14:33:59.447291-07:00,1162.1,748.0,1047.0,945.8,985.9,762.0,1604.0,1091.2,3462.5,3468.6,1030.6,873.0,1469.0,3477.1,1197.4,1148.0,3473.4,3474.6,1045.2,1341.3,1831.3,2499.4,1093.8,3484.4,3466.1,3466.1,673.3,724.9,1619.9,905.0,848.6,916.9,9.0,11.0,7.0,9756.0,-12033.0,5267.0,-847.0,4.0,-7.0,-1.0,0.0,0.0,2.0,7093.0,-14634.0,1988.0,91.0,7.0,-1.0,1.0,1.0
2022-05-13 14:33:59.491651-07:00,1171.8,752.9,1038.3,945.8,979.0,762.0,1604.0,1091.2,3478.3,3469.8,1028.0,873.0,1470.0,3477.1,1197.4,1148.0,3473.4,3474.6,1045.2,1339.5,1831.3,2484.4,1095.6,3491.7,3466.1,3466.1,673.3,724.9,1619.9,903.4,844.4,913.5,9.0,4.0,0.0,9756.0,-12033.0,5267.0,-847.0,-2.0,7.0,1.0,4.0,0.0,1.0,7093.0,-14634.0,1988.0,91.0,-7.0,1.0,3.0,1.0
2022-05-13 14:33:59.536457-07:00,1171.8,752.9,1038.3,943.2,979.0,767.0,1607.7,1086.8,3478.3,3469.8,1028.0,871.3,1470.0,3468.6,1203.5,1153.3,3473.4,3473.4,1049.6,1339.5,1832.3,2484.4,1095.6,3491.7,3479.5,3472.2,679.1,724.9,1611.5,903.4,844.4,913.5,13.0,10.0,2.0,9756.0,-12033.0,5267.0,-847.0,-2.0,3.0,2.0,4.0,1.0,0.0,7093.0,-14634.0,1988.0,91.0,1.0,3.0,3.0,1.0
2022-05-13 14:33:59.625607-07:00,1177.9,754.6,1035.7,943.2,986.7,767.0,1607.7,1086.8,3466.1,3473.4,1031.4,871.3,1472.7,3468.6,1203.5,1153.3,3473.4,3473.4,1049.6,1335.9,1832.3,2495.1,1092.9,3491.7,3479.5,3472.2,679.1,720.8,1611.5,912.7,847.0,907.6,8.0,6.0,3.0,9756.0,-12033.0,5267.0,-847.0,0.0,5.0,2.0,4.0,-2.0,2.0,7093.0,-14634.0,1988.0,91.0,-3.0,0.0,4.0,1.0
2022-05-13 14:33:59.627344-07:00,1177.9,754.6,1035.7,941.5,986.7,763.7,1604.9,1094.7,3466.1,3473.4,1031.4,878.9,1472.7,3472.2,1202.7,1147.1,3480.7,3472.2,1056.5,1335.9,1840.1,2495.1,1092.9,3491.7,3475.9,3471.0,676.6,720.8,1615.2,912.7,847.0,907.6,9.0,11.0,-2.0,9756.0,-12033.0,5268.0,-846.0,-5.0,-1.0,1.0,0.0,-1.0,-4.0,7093.0,-14634.0,1988.0,91.0,-2.0,-4.0,4.0,1.0
2022-05-13 14:33:59.714627-07:00,1178.8,753.8,1034.0,950.0,985.0,763.7,1604.9,1094.7,3473.4,3467.4,1027.1,878.9,1477.3,3472.2,1202.7,1147.1,3480.7,3472.2,1056.5,1341.3,1839.1,2497.2,1096.4,3486.8,3475.9,3471.0,676.6,724.1,1619.0,906.7,854.5,927.9,15.0,8.0,-1.0,9756.0,-12033.0,5268.0,-846.0,10.0,-5.0,-1.0,8.0,0.0,-2.0,7093.0,-14634.0,1988.0,91.0,9.0,1.0,-3.0,1.0
2022-05-13 14:33:59.759654-07:00,1178.8,753.8,1034.0,950.0,979.0,762.0,1606.8,1091.2,3473.4,3467.4,1027.1,878.9,1469.0,3469.8,1201.8,1155.9,3488.0,3478.3,1057.3,1327.8,1839.1,2497.2,1096.4,3486.8,3474.6,3472.2,673.3,736.5,1619.0,906.7,854.5,927.9,5.0,5.0,4.0,9757.0,-12032.0,5267.0,-845.0,-10.0,-5.0,0.0,0.0,-9.0,1.0,7092.0,-14635.0,1988.0,91.0,-7.0,-7.0,-3.0,1.0
2022-05-13 14:33:59.804789-07:00,1176.2,752.1,1034.9,938.1,979.0,762.0,1606.8,1091.2,3472.2,3475.9,1032.3,872.1,1469.0,3469.8,1201.8,1155.9,3488.0,3478.3,1057.3,1327.8,1830.4,2497.2,1102.5,3490.5,3474.6,3472.2,673.3,736.5,1612.4,905.9,851.1,912.7,4.0,5.0,7.0,9757.0,-12033.0,5267.0,-845.0,-10.0,-4.0,6.0,0.0,-3.0,4.0,7091.0,-14635.0,1987.0,92.0,-15.0,-3.0,4.0,1.0
2022-05-13 14:33:59.849597-07:00,1176.2,752.1,1034.9,938.1,979.0,760.4,1611.5,1097.3,3472.2,3475.9,1032.3,872.1,1470.9,3464.9,1197.4,1152.4,3474.6,3466.1,1044.4,1341.3,1830.4,2497.2,1102.5,3490.5,3467.4,3473.4,671.7,726.6,1612.4,905.9,851.1,912.7,12.0,11.0,5.0,9752.0,-12035.0,5272.0,-843.0,6.0,24.0,8.0,4.0,-3.0,1.0,7087.0,-14637.0,1989.0,94.0,4.0,5.0,11.0,1.0
2022-05-13 14:33:59.895382-07:00,1182.3,757.9,1034.0,942.4,979.0,760.4,1611.5,1097.3,3462.5,3464.9,1028.8,874.7,1470.9,3464.9,1197.4,1152.4,3474.6,3466.1,1044.4,1341.3,1837.2,2491.9,1093.8,3486.8,3467.4,3473.4,671.7,726.6,1611.5,912.7,842.8,912.7,9.0,2.0,-4.0,9751.0,-12034.0,5275.0,-848.0,-18.0,6.0,3.0,1.0,0.0,-2.0,7085.0,-14638.0,1989.0,94.0,-16.0,6.0,8.0,1.0
2022-05-13 14:33:59.939805-07:00,1182.3,757.9,1034.0,942.4,976.5,752.9,1603.0,1096.4,3462.5,3464.9,1028.8,874.7,1469.0,3464.9,1203.5,1155.9,3469.8,3474.6,1047.0,1335.0,1837.2,2491.9,1093.8,3486.8,3474.6,3467.4,667.6,731.5,1611.5,912.7,842.8,912.7,10.0,15.0,-3.0,9749.0,-12034.0,5278.0,-846.0,-1.0,-3.0,7.0,4.0,1.0,0.0,7085.0,-14638.0,1989.0,94.0,0.0,2.0,3.0,1.0
2022-05-13 14:33:59.984544-07:00,1167.4,752.1,1037.5,943.2,976.5,752.9,1603.0,1095.6,3468.6,3475.9,1026.3,875.5,1469.0,3464.9,1203.5,1153.3,3473.4,3474.6,1047.0,1335.0,1839.1,2496.2,1094.7,3485.6,3475.9,3467.4,667.6,731.5,1621.8,910.1,848.6,908.4,11.0,8.0,1.0,9748.0,-12035.0,5278.0,-846.0,12.0,-6.0,0.0,3.0,0.0,3.0,7085.0,-14638.0,1989.0,94.0,12.0,-5.0,-2.0,1.0
2022-05-13 14:34:00.122006-07:00,1163.8,752.1,1037.5,943.2,978.2,765.3,1613.4,1095.6,3473.4,3475.9,1026.3,875.5,1470.9,3473.4,1198.2,1153.3,3473.4,3483.2,1053.9,1338.6,1839.1,2496.2,1094.7,3496.6,3475.9,3471.0,677.4,721.6,1621.8,910.1,848.6,914.4,9.0,10.0,1.0,9750.0,-12034.0,5278.0,-846.0,2.0,-6.0,2.0,3.0,0.0,3.0,7086.0,-14638.0,1989.0,94.0,5.0,-2.0,-2.0,1.0
2022-05-13 14:34:00.123162-07:00,1163.8,752.9,1034.0,946.6,978.2,765.3,1613.4,1093.8,3473.4,3472.2,1030.6,874.7,1470.9,3473.4,1198.2,1151.5,3469.8,3483.2,1053.9,1338.6,1839.1,2495.1,1092.1,3496.6,3478.3,3471.0,677.4,721.6,1611.5,912.7,853.7,914.4,8.0,10.0,2.0,9751.0,-12032.0,5278.0,-847.0,-10.0,-3.0,2.0,3.0,-2.0,0.0,7086.0,-14638.0,1989.0,94.0,-10.0,2.0,0.0,1.0
2022-05-13 14:34:00.166675-07:00,1167.4,752.9,1034.0,946.6,977.3,762.0,1608.7,1093.8,3477.1,3472.2,1030.6,874.7,1462.6,3462.5,1218.6,1151.5,3469.8,3474.6,1049.6,1332.3,1839.1,2495.1,1092.1,3496.6,3478.3,3472.2,671.7,727.4,1611.5,912.7,853.7,915.2,13.0,12.0,2.0,9750.0,-12033.0,5278.0,-847.0,26.0,5.0,1.0,1.0,1.0,5.0,7088.0,-14637.0,1989.0,93.0,17.0,2.0,-1.0,1.0
2022-05-13 14:34:00.300873-07:00,1167.4,766.2,1037.5,945.8,977.3,762.0,1608.7,1096.4,3477.1,3477.1,1030.6,871.3,1462.6,3462.5,1218.6,1149.8,3472.2,3474.6,1049.6,1332.3,1834.3,2502.6,1093.8,3496.6,3478.3,3472.2,671.7,727.4,1615.2,908.4,848.6,915.2,10.0,-1.0,1.0,9752.0,-12032.0,5278.0,-847.0,-14.0,2.0,1.0,2.0,-6.0,-3.0,7086.0,-14637.0,1989.0,94.0,-7.0,2.0,2.0,1.0
2022-05-13 14:34:00.302680-07:00,1170.9,752.9,1037.5,945.8,977.3,756.3,1606.8,1096.4,3464.9,3467.4,1030.6,871.3,1472.7,3461.3,1200.0,1149.8,3472.2,3478.3,1040.9,1328.7,1834.3,2502.6,1093.8,3490.5,3478.3,3467.4,673.3,731.5,1615.2,908.4,849.5,912.7,13.0,10.0,3.0,9751.0,-12033.0,5278.0,-847.0,2.0,3.0,-5.0,5.0,-1.0,0.0,7086.0,-14637.0,1989.0,94.0,3.0,-1.0,4.0,1.0
2022-05-13 14:34:00.303755-07:00,1170.9,752.9,1036.6,933.0,977.3,756.3,1595.5,1096.4,3464.9,3467.4,1030.6,876.4,1472.7,3461.3,1201.8,1151.5,3475.9,3480.7,1040.9,1328.7,1842.0,2493.0,1093.8,3490.5,3471.0,3477.1,673.3,731.5,1612.4,911.8,849.5,912.7,10.0,6.0,1.0,9750.0,-12033.0,5279.0,-846.0,-7.0,0.0,12.0,0.0,-3.0,-1.0,7086.0,-14637.0,1989.0,94.0,-2.0,-1.0,4.0,1.0
2022-05-13 14:34:00.390334-07:00,1158.6,749.6,1036.6,933.0,991.0,757.9,1595.5,1096.4,3468.6,3464.9,1030.6,876.4,1473.6,3463.7,1201.8,1151.5,3475.9,3480.7,1048.7,1332.3,1842.0,2493.0,1096.4,3497.8,3471.0,3477.1,675.8,723.3,1612.4,911.8,849.5,916.0,9.0,13.0,-2.0,9750.0,-12032.0,5280.0,-845.0,0.0,-8.0,-8.0,-2.0,2.0,0.0,7086.0,-14637.0,1989.0,94.0,3.0,-7.0,-9.0,1.0
2022-05-13 14:34:00.436753-07:00,1158.6,749.6,1038.3,947.5,991.0,757.9,1610.5,1092.9,3468.6,3464.9,1032.3,872.1,1473.6,3463.7,1203.5,1151.5,3463.7,3473.4,1048.7,1332.3,1837.2,2499.4,1096.4,3497.8,3468.6,3467.4,675.8,723.3,1612.4,911.0,849.5,916.0,9.0,6.0,-1.0,9751.0,-12033.0,5277.0,-841.0,-11.0,-25.0,-9.0,2.0,-1.0,-2.0,7087.0,-14638.0,1983.0,95.0,-8.0,-11.0,-10.0,1.0
2022-05-13 14:34:00.437886-07:00,1170.9,750.5,1038.3,947.5,985.9,761.2,1610.5,1092.9,3467.4,3462.5,1032.3,872.1,1468.1,3467.4,1203.5,1151.5,3463.7,3473.4,1053.9,1331.4,1837.2,2499.4,1098.2,3477.1,3468.6,3467.4,678.2,729.0,1612.4,911.0,853.7,909.3,14.0,6.0,14.0,9753.0,-12035.0,5271.0,-833.0,6.0,-13.0,-13.0,9.0,-3.0,5.0,7088.0,-14638.0,1980.0,97.0,5.0,-3.0,-8.0,1.0
2022-05-13 14:34:00.479589-07:00,1170.9,750.5,1038.3,929.6,985.9,762.0,1612.4,1091.2,3467.4,3462.5,1032.3,872.1,1468.1,3462.5,1201.8,1153.3,3478.3,3473.4,1049.6,1331.4,1830.4,2489.8,1098.2,3477.1,3471.0,3478.3,675.0,729.0,1607.7,905.0,853.7,909.3,8.0,-2.0,16.0,9752.0,-12037.0,5268.0,-832.0,-6.0,7.0,14.0,1.0,-9.0,6.0,7086.0,-14639.0,1981.0,98.0,0.0,5.0,12.0,1.0
2022-05-13 14:34:00.571445-07:00,1177.9,748.0,1035.7,929.6,980.7,762.0,1612.4,1091.2,3467.4,3467.4,1032.3,872.1,1470.9,3462.5,1201.8,1153.3,3478.3,3473.4,1049.6,1335.9,1830.4,2494.0,1097.3,3492.9,3471.0,3478.3,675.0,726.6,1607.7,910.1,852.8,916.0,11.0,14.0,6.0,9749.0,-12035.0,5278.0,-834.0,-14.0,36.0,14.0,0.0,0.0,3.0,7084.0,-14639.0,1988.0,99.0,-13.0,19.0,21.0,1.0
2022-05-13 14:34:00.572594-07:00,1177.9,748.0,1035.7,938.1,980.7,765.3,1607.7,1088.6,3467.4,3467.4,1032.3,874.7,1470.9,3477.1,1198.2,1149.8,3467.4,3471.0,1049.6,1335.9,1816.8,2494.0,1097.3,3492.9,3471.0,3471.0,670.9,726.6,1613.4,910.1,852.8,916.0,12.0,13.0,-13.0,9742.0,-12035.0,5290.0,-845.0,-2.0,30.0,11.0,3.0,5.0,-6.0,7080.0,-14639.0,1998.0,95.0,-9.0,12.0,11.0,1.0
2022-05-13 14:34:00.707674-07:00,1173.5,744.7,1028.0,938.1,981.6,765.3,1607.7,1088.6,3460.1,3456.4,1029.7,874.7,1468.1,3477.1,1198.2,1149.8,3467.4,3471.0,1049.6,1330.5,1816.8,2493.0,1093.8,3490.5,3471.0,3471.0,670.9,724.9,1613.4,916.9,852.0,907.6,10.0,10.0,-8.0,9738.0,-12036.0,5292.0,-847.0,11.0,-14.0,-2.0,1.0,1.0,-1.0,7079.0,-14639.0,2000.0,95.0,13.0,-6.0,-6.0,1.0
2022-05-13 14:34:00.708900-07:00,1173.5,744.7,1028.0,943.2,981.6,761.2,1609.6,1086.8,3460.1,3456.4,1029.7,875.5,1468.1,3478.3,1196.5,1146.3,3467.4,3467.4,1048.7,1330.5,1835.2,2493.0,1093.8,3490.5,3472.2,3471.0,679.9,724.9,1617.1,916.9,852.0,907.6,14.0,3.0,7.0,9744.0,-12035.0,5284.0,-843.0,6.0,-20.0,-11.0,5.0,-1.0,0.0,7083.0,-14638.0,1996.0,94.0,2.0,-10.0,-11.0,1.0
2022-05-13 14:34:00.750254-07:00,1163.8,766.2,1034.0,943.2,979.9,761.2,1609.6,1086.8,3463.7,3456.4,1030.6,875.5,1469.0,3478.3,1196.5,1146.3,3467.4,3467.4,1048.7,1335.9,1835.2,2494.0,1095.6,3490.5,3472.2,3471.0,679.9,733.2,1617.1,911.8,840.3,898.3,9.0,0.0,14.0,9746.0,-12037.0,5279.0,-841.0,-17.0,5.0,5.0,2.0,-5.0,5.0,7083.0,-14638.0,1995.0,94.0,-12.0,2.0,2.0,1.0
2022-05-13 14:34:00.797720-07:00,1163.8,766.2,1034.0,950.0,980.7,757.9,1592.7,1090.3,3463.7,3456.4,1030.6,873.0,1468.1,3471.0,1194.7,1149.8,3483.2,3464.9,1051.3,1325.9,1838.2,2494.0,1095.6,3490.5,3469.8,3473.4,675.0,727.4,1609.6,911.8,840.3,898.3,13.0,15.0,7.0,9746.0,-12036.0,5280.0,-845.0,12.0,23.0,-9.0,0.0,1.0,3.0,7082.0,-14639.0,1995.0,94.0,0.0,3.0,3.0,1.0
2022-05-13 14:34:00.839648-07:00,1181.5,748.8,1037.5,946.6,980.7,757.9,1592.7,1090.3,3478.3,3467.4,1026.3,873.8,1468.1,3471.0,1194.7,1149.8,3483.2,3464.9,1051.3,1325.9,1834.3,2485.5,1087.7,3489.2,3469.8,3473.4,675.0,727.4,1611.5,900.8,848.6,895.7,12.0,-1.0,2.0,9744.0,-12037.0,5280.0,-851.0,-12.0,1.0,-7.0,5.0,-3.0,-3.0,7078.0,-14641.0,1995.0,95.0,-8.0,7.0,5.0,1.0
2022-05-13 14:34:00.884665-07:00,1181.5,748.8,1037.5,946.6,982.5,755.4,1600.2,1092.1,3478.3,3467.4,1026.3,873.8,1466.3,3463.7,1203.5,1141.0,3475.9,3471.0,1053.0,1335.0,1834.3,2485.5,1087.7,3489.2,3472.2,3475.9,664.4,727.4,1611.5,900.8,848.6,895.7,14.0,15.0,6.0,9743.0,-12036.0,5283.0,-853.0,-2.0,14.0,8.0,3.0,1.0,4.0,7078.0,-14641.0,1995.0,95.0,-2.0,6.0,5.0,1.0
2022-05-13 14:34:00.929517-07:00,1169.1,752.1,1031.4,944.1,982.5,755.4,1600.2,1092.1,3471.0,3468.6,1023.7,873.8,1466.3,3463.7,1203.5,1141.0,3475.9,3471.0,1053.0,1335.0,1837.2,2493.0,1090.3,3488.0,3472.2,3475.9,664.4,727.4,1616.2,908.4,847.0,911.0,4.0,5.0,-4.0,9740.0,-12036.0,5287.0,-858.0,-7.0,1.0,-4.0,1.0,-4.0,2.0,7078.0,-14641.0,1995.0,95.0,-11.0,-2.0,2.0,1.0
2022-05-13 14:34:01.021960-07:00,1169.1,752.1,1031.4,944.1,980.7,756.3,1588.0,1093.8,3471.0,3468.6,1023.7,873.8,1468.1,3457.6,1194.7,1152.4,3467.4,3472.2,1061.7,1336.8,1837.2,2493.0,1090.3,3488.0,3466.1,3468.6,666.0,723.3,1616.2,908.4,847.0,911.0,15.0,16.0,11.0,9738.0,-12039.0,5285.0,-853.0,1.0,1.0,9.0,5.0,1.0,3.0,7077.0,-14641.0,1995.0,95.0,7.0,-4.0,4.0,1.0
2022-05-13 14:34:01.109879-07:00,1166.5,752.1,1033.2,938.1,980.7,756.3,1588.0,1096.4,3475.9,3468.6,1028.0,873.8,1468.1,3457.6,1194.7,1144.5,3478.3,3472.2,1061.7,1336.8,1834.3,2495.1,1092.9,3486.8,3478.3,3468.6,666.0,723.3,1610.5,919.4,843.6,910.1,8.0,0.0,-2.0,9737.0,-12041.0,5283.0,-857.0,-19.0,2.0,-11.0,3.0,0.0,-4.0,7076.0,-14642.0,1995.0,95.0,-18.0,7.0,-4.0,1.0
2022-05-13 14:34:01.201168-07:00,1170.9,752.1,1033.2,938.1,976.5,762.0,1608.7,1096.4,3463.7,3468.6,1028.0,873.8,1470.9,3467.4,1200.0,1144.5,3478.3,3473.4,1053.9,1339.5,1834.3,2495.1,1092.9,3495.3,3478.3,3480.7,671.7,727.4,1610.5,919.4,843.6,905.9,13.0,20.0,5.0,9735.0,-12043.0,5283.0,-856.0,10.0,-2.0,4.0,6.0,4.0,5.0,7074.0,-14643.0,1995.0,96.0,16.0,-1.0,2.0,1.0
2022-05-13 14:34:01.202402-07:00,1170.9,746.3,1034.9,946.6,976.5,762.0,1608.7,1115.6,3463.7,3475.9,1024.5,867.9,1470.9,3467.4,1200.0,1151.5,3467.4,3473.4,1053.9,1339.5,1828.4,2488.7,1094.7,3495.3,3467.4,3480.7,671.7,727.4,1612.4,915.2,849.5,905.9,0.0,13.0,2.0,9734.0,-12047.0,5274.0,-859.0,-13.0,-26.0,-42.0,6.0,-18.0,3.0,7079.0,-14640.0,1995.0,95.0,31.0,7.0,9.0,1.0
2022-05-13 14:34:01.203465-07:00,1166.5,746.3,1034.9,946.6,985.9,766.2,1608.7,1115.6,3466.1,3475.9,1024.5,867.9,1474.6,3471.0,1197.4,1151.5,3467.4,3472.2,1040.9,1338.6,1828.4,2488.7,1094.7,3492.9,3467.4,3473.4,676.6,726.6,1612.4,915.2,849.5,916.0,-2.0,23.0,-48.0,9726.0,-12070.0,5240.0,-833.0,-12.0,-99.0,-13.0,15.0,-31.0,12.0,7079.0,-14640.0,1998.0,95.0,11.0,4.0,12.0,1.0
2022-05-13 14:34:01.336673-07:00,1166.5,752.1,1035.7,935.6,985.9,766.2,1608.7,1094.7,3466.1,3468.6,1253.3,960.2,1474.6,3471.0,1197.4,1214.2,3478.3,3472.2,1040.9,1338.6,1835.2,2487.6,1113.9,3492.9,3472.2,3473.4,676.6,726.6,1623.7,912.7,848.6,916.0,9.0,36.0,-23.0,9693.0,-12134.0,5169.0,-738.0,-343.0,-310.0,-55.0,-1.0,47.0,-15.0,7071.0,-14644.0,1996.0,93.0,-116.0,-7.0,-21.0,1.0
2022-05-13 14:34:01.337875-07:00,1167.4,745.5,1035.7,935.6,987.6,765.3,1601.1,1094.7,3468.6,3468.6,1253.3,960.2,1540.3,3467.4,1315.1,1214.2,3478.3,3489.2,1049.6,1353.1,1835.2,2487.6,1231.9,3488.0,3472.2,3478.3,675.0,998.7,1623.7,912.7,851.1,905.0,48.0,-51.0,-11.0,9618.0,-12241.0,5071.0,-596.0,-182.0,-298.0,-45.0,2.0,17.0,-36.0,7024.0,-14669.0,1978.0,101.0,-18.0,-38.0,-49.0,1.0
2022-05-13 14:34:01.339725-07:00,1167.4,745.5,1034.9,944.9,987.6,765.3,1602.1,1092.9,3468.6,3468.6,1506.9,1031.4,1540.3,3467.4,1529.2,1265.8,3472.2,3467.4,1049.6,1353.1,1840.1,2494.0,1231.9,3488.0,3468.6,3471.0,675.0,998.7,1612.4,931.3,851.1,905.0,-17.0,-46.0,81.0,9666.0,-12215.0,5047.0,-576.0,142.0,5.0,51.0,-10.0,-26.0,19.0,7071.0,-14650.0,1950.0,108.0,160.0,-53.0,-35.0,1.0
2022-05-13 14:34:01.379630-07:00,1176.2,753.8,1034.9,944.9,987.6,777.8,1602.1,1092.9,3474.6,3469.8,1506.9,1031.4,1648.3,3464.9,1529.2,1265.8,3472.2,3467.4,1056.5,1329.6,1840.1,2494.0,1277.4,3490.5,3468.6,3471.0,689.7,1017.6,1612.4,931.3,914.4,905.0,15.0,-11.0,-21.0,9671.0,-12182.0,5120.0,-541.0,6.0,-79.0,253.0,15.0,-12.0,-1.0,7154.0,-14609.0,1958.0,109.0,254.0,-4.0,66.0,1.0
2022-05-13 14:34:01.470535-07:00,1176.2,753.8,1031.4,961.1,987.6,777.8,1653.9,1104.3,3474.6,3469.8,1577.7,1083.4,1648.3,3464.9,1736.8,1322.3,3478.3,3464.9,1056.5,1329.6,1825.5,2502.6,1277.4,3490.5,3474.6,3475.9,689.7,1017.6,1611.5,1049.6,914.4,905.0,-37.0,-24.0,118.0,9685.0,-12151.0,5170.0,-509.0,57.0,198.0,30.0,0.0,-57.0,20.0,7241.0,-14563.0,1977.0,112.0,145.0,-1.0,50.0,1.0
2022-05-13 14:34:01.471773-07:00,1168.2,751.3,1031.4,961.1,985.9,783.6,1653.9,1104.3,3464.9,3467.4,1577.7,1083.4,1710.0,3466.1,1736.8,1322.3,3478.3,3464.9,1050.4,1338.6,1825.5,2502.6,1330.5,3489.2,3474.6,3475.9,715.1,1028.0,1611.5,1049.6,1179.7,906.7,35.0,22.0,-121.0,9800.0,-12063.0,5150.0,-597.0,443.0,-185.0,-140.0,7.0,87.0,-33.0,7433.0,-14462.0,2005.0,82.0,522.0,25.0,27.0,1.0
2022-05-13 14:34:01.559648-07:00,1168.2,751.3,1391.2,1264.9,985.9,783.6,1804.2,1206.2,3464.9,3467.4,1647.3,1185.0,1710.0,3466.1,2025.4,1657.7,3480.7,3475.9,1050.4,1338.6,1851.8,2504.7,1330.5,3489.2,3467.4,3473.4,715.1,1028.0,1665.3,1277.4,1179.7,906.7,29.0,-58.0,33.0,9910.0,-11979.0,5139.0,-550.0,257.0,100.0,323.0,7.0,-33.0,-19.0,7586.0,-14382.0,2011.0,103.0,486.0,-131.0,95.0,1.0
2022-05-13 14:34:01.604653-07:00,1185.9,753.8,1675.7,1264.9,1021.9,793.5,1804.2,1206.2,3466.1,3473.4,1661.5,1185.0,1744.5,3472.2,2025.4,1657.7,3480.7,3475.9,1043.5,1333.2,1851.8,2501.5,1352.1,3485.6,3467.4,3473.4,805.2,1055.6,1665.3,1557.1,1460.8,938.1,-19.0,121.0,0.0,10065.0,-11787.0,5279.0,-583.0,554.0,10.0,206.0,38.0,23.0,96.0,7765.0,-14282.0,2031.0,133.0,246.0,-41.0,80.0,1.0
2022-05-13 14:34:01.650163-07:00,1185.9,753.8,1675.7,1545.9,1021.9,812.7,2031.4,1393.0,3466.1,3473.4,1661.5,1244.4,1744.5,3475.9,2044.4,1779.1,3472.2,3471.0,1052.2,1333.2,1861.5,2501.5,1352.1,3485.6,3468.6,3464.9,834.4,1055.6,1814.9,1557.1,1460.8,938.1,55.0,-70.0,8.0,10174.0,-11723.0,5219.0,-514.0,87.0,-333.0,24.0,-24.0,14.0,-44.0,7774.0,-14275.0,2046.0,160.0,-3.0,-63.0,70.0,1.0
2022-05-13 14:34:01.694683-07:00,1186.7,758.7,1663.4,1545.9,1070.3,812.7,2031.4,1393.0,3468.6,3469.8,1642.6,1244.4,1765.6,3475.9,2044.4,1779.1,3472.2,3471.0,1052.2,1348.5,1861.5,2499.4,1363.0,3497.8,3468.6,3464.9,834.4,1050.4,1814.9,1519.9,1405.8,919.4,21.0,68.0,-53.0,10258.0,-11652.0,5220.0,-456.0,165.0,-159.0,166.0,25.0,2.0,27.0,7804.0,-14255.0,2069.0,204.0,85.0,-59.0,87.0,1.0
2022-05-13 14:34:01.786858-07:00,1186.7,758.7,1663.4,1528.3,1070.3,818.5,2242.5,1620.9,3468.6,3469.8,1642.6,1261.3,1765.6,3475.9,2005.5,1802.3,3472.2,3463.7,1059.9,1348.5,1865.4,2499.4,1363.0,3497.8,3472.2,3474.6,830.2,1050.4,1898.7,1519.9,1405.8,919.4,68.0,27.0,-18.0,10249.0,-11663.0,5218.0,-363.0,-152.0,-139.0,118.0,-2.0,18.0,-28.0,7802.0,-14255.0,2074.0,246.0,-69.0,-93.0,49.0,1.0
2022-05-13 14:34:01.787997-07:00,1197.4,743.9,1643.5,1528.3,1070.3,818.5,2242.5,1620.9,3463.7,3462.5,1637.9,1261.3,1774.3,3475.9,2005.5,1802.3,3472.2,3463.7,1059.9,1344.9,1865.4,2514.3,1368.5,3491.7,3472.2,3474.6,830.2,1047.0,1898.7,1487.5,1380.3,929.6,-19.0,33.0,-28.0,10237.0,-11657.0,5259.0,-330.0,13.0,135.0,121.0,12.0,-10.0,4.0,7805.0,-14255.0,2057.0,297.0,-2.0,-127.0,5.0,1.0
2022-05-13 14:34:01.829583-07:00,1197.4,743.9,1643.5,1526.4,1089.5,825.2,2257.9,1761.8,3463.7,3462.5,1637.9,1267.6,1951.9,3478.3,1964.7,1791.6,3473.4,3469.8,1055.6,1338.6,1854.7,2514.3,1368.5,3491.7,3472.2,3475.9,826.0,1055.6,1973.7,1487.5,1380.3,929.6,21.0,22.0,3.0,10228.0,-11664.0,5263.0,-294.0,-82.0,-167.0,44.0,17.0,3.0,10.0,7829.0,-14245.0,2026.0,337.0,63.0,-123.0,-27.0,1.0
2022-05-13 14:34:01.966727-07:00,1267.6,763.7,1623.7,1532.0,1089.5,825.2,2257.9,1761.8,3469.8,3469.8,1617.1,1263.1,1951.9,3478.3,1964.7,1791.6,3473.4,3469.8,1055.6,1338.6,1857.6,2510.1,1363.0,3492.9,3472.2,3475.9,826.0,1055.6,2061.5,1458.0,1345.8,997.9,2.0,17.0,17.0,10226.0,-11669.0,5257.0,-241.0,-50.0,-81.0,63.0,7.0,-23.0,33.0,7858.0,-14233.0,1995.0,372.0,53.0,-101.0,-17.0,1.0
2022-05-13 14:34:01.968154-07:00,1267.6,763.7,1623.7,1532.0,1104.3,830.2,2259.0,1759.8,3469.8,3469.8,1617.1,1263.1,1954.8,3473.4,1922.3,1764.6,3469.8,3472.2,1059.1,1344.9,1857.6,2510.1,1363.0,3492.9,3464.9,3467.4,819.4,1061.7,2061.5,1458.0,1345.8,997.9,39.0,19.0,43.0,10241.0,-11673.0,5221.0,-204.0,-2.0,-124.0,-50.0,3.0,25.0,27.0,7888.0,-14219.0,1973.0,385.0,43.0,-40.0,-29.0,1.0
2022-05-13 14:34:01.969228-07:00,1335.0,795.2,1603.0,1504.1,1104.3,830.2,2259.0,1759.8,3471.0,3469.8,1598.3,1250.6,1954.8,3473.4,1922.3,1764.6,3469.8,3472.2,1059.1,1344.9,1859.6,2500.4,1349.4,3491.7,3464.9,3467.4,819.4,1061.7,2188.1,1431.4,1335.9,985.9,-4.0,-53.0,-8.0,10237.0,-11681.0,5210.0,-186.0,-94.0,-52.0,60.0,3.0,-33.0,-2.0,7888.0,-14220.0,1967.0,393.0,17.0,-29.0,19.0,1.0
2022-05-13 14:34:02.054696-07:00,1335.0,795.2,1603.0,1504.1,1099.9,843.6,2252.8,1733.0,3471.0,3469.8,1598.3,1250.6,1953.9,3467.4,1904.6,1744.5,3471.0,3471.0,1063.4,1344.0,1859.6,2500.4,1349.4,3491.7,3472.2,3475.9,821.9,1057.3,2188.1,1431.4,1335.9,985.9,32.0,62.0,9.0,10223.0,-11684.0,5233.0,-133.0,-56.0,15.0,115.0,9.0,19.0,3.0,7886.0,-14219.0,1975.0,417.0,-63.0,-41.0,41.0,1.0
2022-05-13 14:34:02.101104-07:00,1350.3,844.4,1584.2,1499.5,1099.9,843.6,2252.8,1733.0,3472.2,3466.1,1605.8,1243.5,1953.9,3467.4,1904.6,1744.5,3471.0,3471.0,1063.4,1344.0,1847.9,2513.3,1340.4,3486.8,3472.2,3475.9,821.9,1057.3,2235.3,1436.0,1328.7,996.2,22.0,-15.0,-9.0,10217.0,-11704.0,5201.0,-105.0,-52.0,-206.0,-108.0,1.0,12.0,-9.0,7870.0,-14228.0,1969.0,419.0,4.0,7.0,-38.0,1.0
2022-05-13 14:34:02.144670-07:00,1363.9,844.4,1584.2,1499.5,1092.1,852.0,2226.0,1711.0,3471.0,3466.1,1605.8,1243.5,1936.1,3468.6,1898.7,1733.0,3467.4,3475.9,1059.1,1342.2,1847.9,2513.3,1340.4,3496.6,3471.0,3472.2,824.4,1059.9,2235.3,1436.0,1328.7,985.0,-2.0,19.0,-7.0,10224.0,-11715.0,5163.0,-67.0,-40.0,-62.0,34.0,1.0,-10.0,12.0,7875.0,-14227.0,1958.0,426.0,-24.0,-37.0,-10.0,1.0
2022-05-13 14:34:02.235618-07:00,1363.9,865.4,1579.6,1486.6,1092.1,852.0,2226.0,1711.0,3471.0,3468.6,1595.5,1242.6,1936.1,3468.6,1898.7,1731.1,3472.2,3475.9,1059.1,1342.2,1847.9,2504.7,1339.5,3496.6,3478.3,3472.2,824.4,1059.9,2237.3,1430.5,1318.7,985.0,21.0,21.0,11.0,10227.0,-11725.0,5135.0,-35.0,-7.0,-79.0,-25.0,3.0,12.0,3.0,7875.0,-14229.0,1943.0,434.0,2.0,-30.0,-28.0,1.0
2022-05-13 14:34:02.238540-07:00,1359.4,865.4,1579.6,1486.6,1080.8,840.3,2211.6,1711.0,3472.2,3468.6,1595.5,1242.6,1934.1,3471.0,1888.9,1731.1,3472.2,3480.7,1058.2,1346.7,1847.9,2504.7,1339.5,3488.0,3478.3,3478.3,819.4,1048.7,2237.3,1430.5,1318.7,988.5,17.0,0.0,26.0,10231.0,-11730.0,5117.0,-30.0,-6.0,6.0,10.0,8.0,-11.0,3.0,7870.0,-14233.0,1932.0,437.0,-8.0,-15.0,-7.0,1.0
2022-05-13 14:34:02.279644-07:00,1359.4,848.6,1573.9,1494.9,1080.8,840.3,2211.6,1671.9,3472.2,3471.0,1589.9,1242.6,1934.1,3471.0,1888.9,1718.6,3466.1,3480.7,1058.2,1346.7,1855.7,2519.7,1328.7,3488.0,3478.3,3478.3,819.4,1048.7,2250.7,1414.0,1314.2,988.5,6.0,-14.0,1.0,10227.0,-11735.0,5112.0,-33.0,-28.0,-46.0,-35.0,4.0,-13.0,-2.0,7869.0,-14234.0,1927.0,434.0,-4.0,9.0,-2.0,1.0
2022-05-13 14:34:02.326561-07:00,1344.9,848.6,1573.9,1494.9,1084.2,849.5,2194.2,1671.9,3469.8,3471.0,1589.9,1242.6,1917.4,3467.4,1883.0,1718.6,3466.1,3474.6,1058.2,1346.7,1855.7,2519.7,1328.7,3480.7,3478.3,3473.4,827.7,1040.1,2250.7,1414.0,1314.2,992.7,10.0,22.0,1.0,10228.0,-11735.0,5111.0,-39.0,0.0,79.0,26.0,10.0,3.0,2.0,7865.0,-14236.0,1928.0,435.0,-32.0,8.0,10.0,1.0
2022-05-13 14:34:02.371544-07:00,1344.9,851.1,1568.3,1476.4,1084.2,849.5,2183.0,1680.5,3469.8,3471.0,1573.0,1234.6,1917.4,3467.4,1869.3,1726.3,3469.8,3483.2,1058.2,1346.7,1846.9,2506.9,1318.7,3480.7,3478.3,3462.5,827.7,1040.1,2200.4,1423.1,1303.4,992.7,15.0,-17.0,-11.0,10216.0,-11742.0,5117.0,-44.0,-31.0,-50.0,-18.0,1.0,-2.0,-17.0,7855.0,-14242.0,1931.0,431.0,12.0,2.0,-2.0,1.0
2022-05-13 14:34:02.416686-07:00,1342.2,851.1,1568.3,1476.4,1069.5,841.1,2183.0,1680.5,3464.9,3463.7,1573.0,1234.6,1887.9,3468.6,1869.3,1726.3,3469.8,3483.2,1057.3,1341.3,1846.9,2506.9,1316.9,3490.5,3478.3,3462.5,819.4,1039.2,2200.4,1423.1,1312.4,981.6,3.0,43.0,0.0,10217.0,-11741.0,5116.0,-43.0,-4.0,38.0,-3.0,2.0,1.0,11.0,7854.0,-14242.0,1930.0,432.0,-38.0,-3.0,-10.0,1.0
2022-05-13 14:34:02.507814-07:00,1342.2,851.1,1568.3,1470.0,1069.5,841.1,2180.9,1664.4,3464.9,3463.7,1577.7,1230.2,1887.9,3468.6,1869.3,1706.2,3471.0,3474.6,1057.3,1341.3,1853.7,2515.4,1316.9,3490.5,3469.8,3479.5,819.4,1039.2,2184.0,1412.2,1312.4,981.6,12.0,2.0,-8.0,10221.0,-11745.0,5102.0,-50.0,31.0,-17.0,-25.0,2.0,2.0,-8.0,7853.0,-14244.0,1923.0,428.0,3.0,-2.0,-11.0,1.0
2022-05-13 14:34:02.550452-07:00,1346.7,848.6,1568.3,1470.0,1084.2,842.8,2180.9,1664.4,3462.5,3464.9,1577.7,1230.2,1902.6,3481.9,1869.3,1706.2,3471.0,3474.6,1047.8,1342.2,1853.7,2515.4,1319.6,3484.4,3469.8,3479.5,815.2,1034.9,2184.0,1412.2,1305.2,982.5,2.0,6.0,3.0,10214.0,-11749.0,5104.0,-50.0,-14.0,6.0,18.0,7.0,-7.0,15.0,7845.0,-14249.0,1920.0,430.0,-2.0,-2.0,1.0,1.0
2022-05-13 14:34:02.594675-07:00,1346.7,848.6,1564.6,1467.2,1084.2,842.8,2167.7,1671.9,3462.5,3464.9,1576.8,1219.5,1902.6,3481.9,1864.5,1708.1,3463.7,3479.5,1047.8,1342.2,1865.4,2514.3,1319.6,3484.4,3467.4,3478.3,815.2,1034.9,2176.9,1403.0,1305.2,982.5,17.0,9.0,4.0,10215.0,-11750.0,5101.0,-44.0,-16.0,-7.0,-2.0,5.0,2.0,-2.0,7845.0,-14248.0,1920.0,430.0,-8.0,3.0,-4.0,1.0
2022-05-13 14:34:02.684782-07:00,1327.8,844.4,1557.1,1467.2,1088.6,841.9,2167.7,1671.9,3462.5,3467.4,1573.9,1219.5,1894.8,3471.0,1864.5,1708.1,3463.7,3479.5,1055.6,1344.9,1865.4,2501.5,1309.7,3475.9,3467.4,3478.3,813.5,1035.7,2176.9,1407.6,1303.4,972.2,5.0,17.0,-7.0,10211.0,-11752.0,5105.0,-48.0,-8.0,21.0,-3.0,7.0,1.0,3.0,7841.0,-14251.0,1920.0,430.0,-16.0,5.0,-7.0,1.0
2022-05-13 14:34:02.777060-07:00,1327.8,844.4,1557.1,1470.9,1088.6,836.1,2158.5,1654.9,3462.5,3467.4,1573.9,1229.3,1894.8,3479.5,1862.5,1703.3,3478.3,3472.2,1052.2,1344.9,1849.8,2501.5,1309.7,3475.9,3478.3,3475.9,825.2,1035.7,2176.9,1407.6,1303.4,972.2,11.0,2.0,-6.0,10207.0,-11758.0,5098.0,-47.0,2.0,-26.0,-16.0,0.0,1.0,-4.0,7835.0,-14254.0,1918.0,430.0,5.0,-3.0,-7.0,1.0
2022-05-13 14:34:02.819786-07:00,1324.1,831.1,1559.9,1470.9,1078.2,836.1,2158.5,1654.9,3472.2,3468.6,1578.6,1229.3,1894.8,3479.5,1862.5,1703.3,3478.3,3472.2,1052.2,1346.7,1849.8,2507.9,1307.0,3481.9,3478.3,3475.9,825.2,1039.2,2176.9,1399.4,1300.7,976.5,12.0,16.0,1.0,10208.0,-11758.0,5096.0,-47.0,-6.0,14.0,-4.0,6.0,2.0,3.0,7835.0,-14255.0,1915.0,430.0,-14.0,-6.0,-8.0,1.0
2022-05-13 14:34:02.866478-07:00,1324.1,831.1,1559.9,1470.9,1078.2,846.1,2158.5,1653.0,3472.2,3468.6,1578.6,1234.6,1894.8,3473.4,1861.5,1701.4,3467.4,3468.6,1047.8,1346.7,1846.9,2507.9,1307.0,3481.9,3464.9,3471.0,814.4,1039.2,2157.5,1399.4,1300.7,976.5,10.0,8.0,-9.0,10209.0,-11760.0,5088.0,-48.0,15.0,-28.0,-13.0,0.0,4.0,-2.0,7834.0,-14256.0,1910.0,427.0,16.0,2.0,-11.0,1.0
2022-05-13 14:34:02.867913-07:00,1330.5,835.2,1551.5,1470.9,1068.6,846.1,2158.5,1653.0,3468.6,3468.6,1570.2,1234.6,1882.0,3473.4,1861.5,1701.4,3467.4,3468.6,1047.8,1344.9,1846.9,2503.6,1300.7,3485.6,3464.9,3471.0,814.4,1026.3,2157.5,1390.3,1295.4,977.3,0.0,12.0,-5.0,10207.0,-11764.0,5087.0,-44.0,-9.0,-9.0,0.0,7.0,-8.0,13.0,7831.0,-14258.0,1908.0,431.0,-13.0,-13.0,-5.0,1.0
2022-05-13 14:34:02.869171-07:00,1330.5,835.2,1551.5,1468.1,1068.6,839.4,2141.2,1654.9,3468.6,3468.6,1570.2,1226.6,1882.0,3471.0,1856.7,1692.9,3467.4,3469.8,1055.6,1344.9,1843.0,2503.6,1300.7,3485.6,3480.7,3481.9,816.0,1026.3,2163.6,1390.3,1295.4,977.3,12.0,9.0,3.0,10210.0,-11763.0,5081.0,-42.0,3.0,-8.0,-14.0,3.0,4.0,0.0,7833.0,-14257.0,1902.0,431.0,8.0,-10.0,-13.0,1.0
2022-05-13 14:34:03.000926-07:00,1320.5,841.1,1549.7,1455.2,1072.1,839.4,2141.2,1654.9,3477.1,3472.2,1571.1,1228.4,1871.3,3471.0,1856.7,1692.9,3467.4,3469.8,1055.6,1348.5,1868.4,2514.3,1305.2,3488.0,3480.7,3481.9,816.0,1021.1,2154.4,1396.7,1289.1,977.3,4.0,0.0,0.0,10208.0,-11766.0,5079.0,-41.0,-14.0,-16.0,-3.0,9.0,-11.0,6.0,7829.0,-14260.0,1898.0,432.0,-12.0,-4.0,-9.0,1.0
2022-05-13 14:34:03.003046-07:00,1320.5,841.1,1549.7,1455.2,1069.5,831.1,2156.5,1648.3,3477.1,3472.2,1571.1,1228.4,1875.2,3462.5,1852.8,1682.4,3467.4,3478.3,1059.1,1336.8,1868.4,2514.3,1305.2,3488.0,3484.4,3485.6,814.4,1020.2,2154.4,1396.7,1289.1,977.3,12.0,20.0,5.0,10209.0,-11765.0,5080.0,-41.0,-4.0,29.0,9.0,4.0,4.0,8.0,7831.0,-14259.0,1898.0,431.0,-12.0,-3.0,4.0,1.0
2022-05-13 14:34:03.136971-07:00,1323.2,845.3,1529.2,1460.8,1069.5,831.1,2156.5,1648.3,3473.4,3460.1,1564.6,1246.2,1875.2,3462.5,1852.8,1682.4,3467.4,3478.3,1059.1,1336.8,1830.4,2512.2,1302.5,3494.1,3484.4,3485.6,814.4,1020.2,2157.5,1386.6,1299.0,974.8,16.0,10.0,13.0,10204.0,-11762.0,5096.0,-54.0,14.0,62.0,22.0,5.0,4.0,3.0,7826.0,-14262.0,1899.0,431.0,-4.0,8.0,11.0,1.0
2022-05-13 14:34:03.228239-07:00,1323.2,845.3,1529.2,1460.8,1064.3,842.8,2185.0,1656.8,3473.4,3460.1,1564.6,1246.2,1874.2,3475.9,1853.7,1703.3,3473.4,3468.6,1055.6,1338.6,1830.4,2512.2,1302.5,3494.1,3467.4,3472.2,809.4,1023.7,2157.5,1386.6,1299.0,974.8,54.0,10.0,53.0,10185.0,-11753.0,5152.0,-88.0,-4.0,268.0,90.0,2.0,28.0,4.0,7811.0,-14269.0,1905.0,436.0,-64.0,-5.0,18.0,1.0
2022-05-13 14:34:03.229465-07:00,1342.2,868.8,1561.8,1509.7,1064.3,842.8,2185.0,1656.8,3478.3,3467.4,1575.8,1229.3,1874.2,3475.9,1853.7,1703.3,3473.4,3468.6,1055.6,1338.6,1841.1,2503.6,1314.2,3494.1,3467.4,3472.2,809.4,1023.7,2176.9,1443.3,1315.1,969.6,13.0,57.0,6.0,10112.0,-11712.0,5379.0,-267.0,93.0,889.0,138.0,5.0,-13.0,63.0,7786.0,-14282.0,1910.0,435.0,-102.0,46.0,-18.0,1.0
2022-05-13 14:34:03.230582-07:00,1373.9,868.8,1561.8,1509.7,1059.1,841.1,2154.4,1763.7,3469.8,3467.4,1575.8,1229.3,2011.4,3467.4,1988.5,1721.5,3473.4,3468.6,1055.6,1338.6,1841.1,2503.6,1314.2,3494.1,3478.3,3475.9,790.2,1040.1,2176.9,1443.3,1315.1,964.5,18.0,-76.0,-11.0,10013.0,-11693.0,5590.0,-445.0,-19.0,536.0,129.0,-5.0,-38.0,-24.0,7717.0,-14319.0,1921.0,404.0,-85.0,112.0,-2.0,1.0
2022-05-13 14:34:03.270210-07:00,1373.9,827.7,1767.5,1638.8,1059.1,841.1,2154.4,1868.4,3469.8,3473.4,1679.5,1266.7,2011.4,3467.4,1988.5,1771.4,3483.2,3468.6,1055.6,1338.6,1843.0,2510.1,1393.9,3494.1,3484.4,3475.9,790.2,1040.1,2160.5,1701.4,1572.1,964.5,24.0,56.0,-21.0,9964.0,-11630.0,5793.0,-588.0,40.0,619.0,159.0,21.0,5.0,-19.0,7717.0,-14316.0,1944.0,376.0,-11.0,72.0,14.0,1.0
2022-05-13 14:34:03.273024-07:00,1338.6,827.7,1767.5,1638.8,1047.8,839.4,2176.9,1868.4,3473.4,3473.4,1679.5,1266.7,1975.6,3464.9,2290.0,1771.4,3483.2,3475.9,1041.8,1340.4,1843.0,2510.1,1393.9,3501.4,3484.4,3469.8,815.2,1038.3,2160.5,1701.4,1572.1,950.9,2.0,12.0,-17.0,9850.0,-11632.0,5966.0,-715.0,-163.0,404.0,40.0,13.0,0.0,3.0,7670.0,-14340.0,1958.0,353.0,-135.0,86.0,-9.0,1.0
2022-05-13 14:34:03.360973-07:00,1338.6,811.0,1759.8,1573.9,1047.8,839.4,2176.9,1782.9,3473.4,3475.9,1762.7,1253.3,1975.6,3464.9,2290.0,1777.2,3477.1,3475.9,1041.8,1340.4,1836.2,2506.9,1447.9,3501.4,3483.2,3469.8,815.2,1038.3,2131.1,1696.7,1641.6,950.9,27.0,25.0,-69.0,9779.0,-11654.0,6035.0,-751.0,-43.0,91.0,86.0,7.0,-12.0,-30.0,7631.0,-14361.0,1964.0,316.0,-48.0,51.0,-36.0,1.0
2022-05-13 14:34:03.362876-07:00,1338.6,811.0,1759.8,1573.9,1044.4,829.4,2127.0,1782.9,3469.8,3475.9,1762.7,1253.3,1934.1,3475.9,2278.6,1777.2,3477.1,3475.9,1056.5,1334.1,1836.2,2506.9,1447.9,3485.6,3483.2,3473.4,814.4,1066.0,2131.1,1696.7,1641.6,959.4,6.0,19.0,47.0,9740.0,-11657.0,6091.0,-760.0,-15.0,30.0,29.0,26.0,-22.0,14.0,7594.0,-14383.0,1953.0,305.0,-118.0,37.0,-29.0,1.0
2022-05-13 14:34:03.451407-07:00,1338.6,822.7,1598.3,1389.4,1044.4,829.4,2127.0,1726.3,3469.8,3462.5,1770.4,1228.4,1934.1,3475.9,2278.6,1660.6,3467.4,3475.9,1056.5,1334.1,1831.3,2495.1,1487.5,3485.6,3467.4,3473.4,814.4,1066.0,2147.3,1533.8,1519.0,959.4,-16.0,15.0,-20.0,9810.0,-11630.0,6028.0,-775.0,295.0,-160.0,-149.0,3.0,-12.0,13.0,7577.0,-14394.0,1941.0,276.0,-60.0,28.0,-52.0,1.0
2022-05-13 14:34:03.495087-07:00,1326.8,811.9,1598.3,1389.4,1032.3,831.1,2106.8,1726.3,3475.9,3472.2,1770.4,1228.4,1937.1,3464.9,2086.6,1660.6,3467.4,3472.2,1045.2,1335.0,1831.3,2495.1,1555.3,3489.2,3467.4,3475.9,816.0,1052.2,2147.3,1533.8,1355.8,954.3,23.0,-22.0,39.0,9896.0,-11625.0,5899.0,-760.0,-56.0,-357.0,-178.0,2.0,1.0,-12.0,7552.0,-14408.0,1934.0,259.0,-86.0,47.0,-31.0,1.0
2022-05-13 14:34:03.541709-07:00,1326.8,811.9,1415.8,1266.7,1032.3,831.1,2075.5,1669.1,3475.9,3472.2,1701.4,1177.0,1937.1,3464.9,1885.0,1560.9,3457.6,3477.1,1045.2,1335.0,1843.0,2501.5,1555.3,3489.2,3478.3,3471.0,816.0,1052.2,2109.8,1390.3,1355.8,954.3,49.0,23.0,9.0,9979.0,-11607.0,5793.0,-758.0,411.0,-59.0,-91.0,6.0,16.0,-18.0,7586.0,-14392.0,1930.0,232.0,156.0,15.0,-47.0,1.0
2022-05-13 14:34:03.584664-07:00,1347.6,801.9,1415.8,1266.7,1034.0,831.1,2075.5,1669.1,3460.1,3467.4,1701.4,1177.0,1916.4,3466.1,1885.0,1560.9,3457.6,3477.1,1049.6,1339.5,1843.0,2501.5,1571.1,3485.6,3478.3,3471.0,806.9,1030.6,2109.8,1390.3,1254.2,923.7,12.0,-24.0,28.0,10057.0,-11554.0,5749.0,-867.0,60.0,-24.0,-280.0,2.0,7.0,14.0,7587.0,-14393.0,1920.0,208.0,-101.0,62.0,-44.0,1.0
2022-05-13 14:34:03.630478-07:00,1347.6,801.9,1303.4,1217.7,1034.0,831.1,2049.4,1640.7,3460.1,3467.4,1563.7,1120.9,1916.4,3466.1,1752.1,1493.0,3467.4,3473.4,1049.6,1339.5,1873.2,2504.7,1571.1,3485.6,3473.4,3473.4,806.9,1030.6,2054.4,1308.8,1254.2,923.7,-1.0,-18.0,25.0,10066.0,-11553.0,5722.0,-957.0,216.0,264.0,-57.0,-2.0,-12.0,5.0,7560.0,-14406.0,1922.0,191.0,-12.0,27.0,4.0,1.0
2022-05-13 14:34:03.674813-07:00,1362.1,811.9,1303.4,1217.7,1024.5,827.7,2049.4,1640.7,3467.4,3475.9,1563.7,1120.9,1886.9,3467.4,1752.1,1493.0,3467.4,3473.4,1058.2,1341.3,1873.2,2504.7,1571.1,3497.8,3473.4,3473.4,794.4,986.7,2054.4,1308.8,1203.5,947.5,6.0,-1.0,8.0,10081.0,-11502.0,5777.0,-1068.0,81.0,144.0,-47.0,7.0,8.0,2.0,7549.0,-14410.0,1940.0,177.0,-25.0,68.0,29.0,1.0
2022-05-13 14:34:03.721517-07:00,1362.1,811.9,1261.3,1190.3,1024.5,826.0,2066.5,1604.0,3467.4,3475.9,1439.6,1088.6,1886.9,3467.4,1693.8,1485.6,3467.4,3468.6,1047.8,1341.3,1839.1,2520.8,1571.1,3497.8,3467.4,3477.1,780.3,986.7,2014.4,1284.6,1203.5,947.5,22.0,-7.0,-15.0,10075.0,-11482.0,5815.0,-1129.0,31.0,208.0,27.0,-4.0,8.0,-25.0,7522.0,-14421.0,1961.0,166.0,-88.0,33.0,24.0,1.0
2022-05-13 14:34:03.767356-07:00,1390.3,826.9,1233.7,1190.3,1013.3,826.0,2066.5,1604.0,3467.4,3466.1,1373.0,1088.6,1859.6,3467.4,1693.8,1485.6,3467.4,3468.6,1047.8,1333.2,1839.1,2511.1,1552.5,3489.2,3467.4,3477.1,780.3,950.9,2014.4,1252.4,1165.6,945.8,-20.0,40.0,-26.0,10061.0,-11453.0,5883.0,-1190.0,62.0,90.0,12.0,12.0,1.0,18.0,7505.0,-14429.0,1973.0,165.0,-15.0,25.0,15.0,1.0
2022-05-13 14:34:03.901694-07:00,1390.3,826.9,1233.7,1156.8,1013.3,821.0,2030.4,1585.2,3467.4,3466.1,1373.0,1079.9,1859.6,3464.9,1653.0,1460.8,3469.8,3468.6,1046.1,1333.2,1845.0,2511.1,1552.5,3489.2,3468.6,3472.2,757.9,950.9,2000.5,1252.4,1165.6,945.8,68.0,-20.0,-7.0,10062.0,-11483.0,5830.0,-1155.0,-87.0,-125.0,-49.0,-5.0,26.0,-56.0,7478.0,-14443.0,1975.0,160.0,-58.0,-3.0,-16.0,1.0
2022-05-13 14:34:03.902841-07:00,1374.8,816.0,1216.8,1156.8,1010.8,821.0,2030.4,1585.2,3477.1,3468.6,1344.0,1079.9,1839.1,3464.9,1653.0,1460.8,3469.8,3468.6,1046.1,1338.6,1845.0,2493.0,1535.7,3486.8,3468.6,3472.2,757.9,934.7,2000.5,1239.1,1166.5,935.6,-10.0,31.0,6.0,10069.0,-11455.0,5865.0,-1190.0,100.0,97.0,19.0,13.0,-7.0,25.0,7488.0,-14439.0,1966.0,164.0,49.0,-8.0,-15.0,1.0
2022-05-13 14:34:03.990780-07:00,1374.8,816.0,1216.8,1151.5,1010.8,825.2,2010.4,1566.5,3477.1,3468.6,1344.0,1073.8,1839.1,3464.9,1644.5,1443.3,3464.9,3475.9,1051.3,1338.6,1851.8,2493.0,1535.7,3486.8,3475.9,3473.4,761.2,934.7,1979.6,1239.1,1166.5,935.6,23.0,-13.0,9.0,10075.0,-11464.0,5838.0,-1194.0,-30.0,-62.0,-61.0,-1.0,7.0,-12.0,7487.0,-14439.0,1964.0,163.0,-48.0,5.0,-6.0,1.0
2022-05-13 14:34:04.171578-07:00,1388.5,809.4,1209.7,1134.9,1000.5,825.2,2010.4,1566.5,3473.4,3468.6,1332.3,1066.9,1829.4,3464.9,1644.5,1443.3,3464.9,3475.9,1051.3,1340.4,1845.0,2501.5,1512.5,3499.0,3475.9,3473.4,761.2,923.7,1966.7,1231.0,1155.9,942.4,2.0,14.0,15.0,10070.0,-11450.0,5869.0,-1217.0,56.0,139.0,59.0,14.0,-11.0,18.0,7482.0,-14442.0,1964.0,164.0,27.0,0.0,19.0,1.0
2022-05-13 14:34:04.174118-07:00,1388.5,809.4,1209.7,1134.9,1000.5,825.2,1998.5,1559.0,3473.4,3468.6,1332.3,1066.9,1816.8,3467.4,1636.9,1447.9,3479.5,3461.3,1047.8,1335.0,1845.0,2501.5,1512.5,3499.0,3483.2,3469.8,759.6,918.6,1966.7,1231.0,1155.9,942.4,18.0,5.0,-8.0,10060.0,-11452.0,5881.0,-1222.0,-53.0,-27.0,-15.0,2.0,8.0,-11.0,7473.0,-14445.0,1973.0,165.0,-49.0,11.0,16.0,1.0
2022-05-13 14:34:04.175465-07:00,1383.0,808.5,1199.1,1129.6,1000.5,825.2,1998.5,1559.0,3468.6,3478.3,1325.0,1057.3,1816.8,3467.4,1636.9,1447.9,3479.5,3461.3,1047.8,1335.0,1833.3,2493.0,1519.9,3497.8,3483.2,3469.8,759.6,918.6,1948.9,1224.8,1152.4,939.8,11.0,12.0,-7.0,10044.0,-11463.0,5887.0,-1221.0,-39.0,25.0,14.0,7.0,5.0,-2.0,7459.0,-14452.0,1975.0,167.0,-37.0,1.0,1.0,1.0
2022-05-13 14:34:04.176543-07:00,1383.0,808.5,1199.1,1129.6,1004.8,813.5,2013.4,1547.8,3468.6,3478.3,1325.0,1057.3,1804.2,3462.5,1627.5,1436.9,3474.6,3467.4,1047.8,1340.4,1833.3,2493.0,1519.9,3497.8,3478.3,3467.4,763.7,911.8,1948.9,1224.8,1152.4,939.8,6.0,11.0,-6.0,10035.0,-11469.0,5892.0,-1219.0,-7.0,-8.0,14.0,2.0,7.0,-3.0,7451.0,-14456.0,1974.0,169.0,-25.0,-12.0,-8.0,1.0
2022-05-13 14:34:04.263921-07:00,1378.5,807.7,1196.5,1128.7,1004.8,813.5,2013.4,1547.8,3467.4,3467.4,1315.1,1060.8,1804.2,3462.5,1627.5,1436.9,3474.6,3467.4,1047.8,1340.4,1838.2,2495.1,1507.8,3492.9,3478.3,3467.4,763.7,911.8,1947.9,1228.4,1141.9,939.8,10.0,4.0,12.0,10019.0,-11483.0,5895.0,-1199.0,-55.0,-6.0,29.0,10.0,-1.0,5.0,7436.0,-14465.0,1969.0,179.0,-12.0,-22.0,-3.0,1.0
2022-05-13 14:34:04.265089-07:00,1378.5,807.7,1196.5,1128.7,999.6,819.4,1989.5,1544.1,3467.4,3467.4,1315.1,1060.8,1799.4,3472.2,1613.4,1436.9,3471.0,3469.8,1047.0,1341.3,1838.2,2495.1,1507.8,3492.9,3468.6,3471.0,759.6,912.7,1947.9,1228.4,1141.9,939.8,18.0,4.0,8.0,10016.0,-11483.0,5903.0,-1192.0,-13.0,17.0,26.0,6.0,3.0,-1.0,7436.0,-14465.0,1966.0,182.0,-6.0,-15.0,0.0,1.0
2022-05-13 14:34:04.266154-07:00,1366.6,799.4,1196.5,1133.1,999.6,819.4,1989.5,1533.8,3468.6,3471.0,1309.7,1042.6,1799.4,3472.2,1613.4,1430.5,3472.2,3469.8,1047.0,1341.3,1843.0,2500.4,1490.3,3491.7,3480.7,3471.0,759.6,912.7,1941.0,1227.5,1137.5,936.4,7.0,8.0,11.0,10005.0,-11483.0,5922.0,-1187.0,-36.0,4.0,28.0,8.0,-2.0,8.0,7436.0,-14465.0,1966.0,187.0,0.0,-7.0,15.0,1.0
2022-05-13 14:34:04.352405-07:00,1359.4,799.4,1196.5,1133.1,990.2,809.4,1979.6,1533.8,3473.4,3471.0,1309.7,1042.6,1790.7,3464.9,1611.5,1430.5,3472.2,3478.3,1050.4,1334.1,1843.0,2500.4,1490.3,3486.8,3480.7,3477.1,748.8,914.4,1941.0,1227.5,1137.5,926.2,-2.0,20.0,-9.0,9988.0,-11491.0,5939.0,-1166.0,-112.0,5.0,73.0,0.0,0.0,4.0,7429.0,-14468.0,1972.0,192.0,-40.0,-17.0,23.0,1.0
2022-05-13 14:34:04.394696-07:00,1359.4,797.7,1196.5,1120.9,990.2,809.4,1979.6,1526.4,3473.4,3462.5,1359.4,1071.2,1790.7,3464.9,1611.5,1429.5,3467.4,3478.3,1050.4,1334.1,1836.2,2505.8,1490.3,3486.8,3478.3,3477.1,748.8,914.4,1944.0,1231.0,1143.6,926.2,-5.0,-42.0,27.0,9932.0,-11526.0,5976.0,-1101.0,-138.0,-4.0,148.0,1.0,-23.0,0.0,7400.0,-14482.0,1976.0,209.0,-19.0,-21.0,37.0,1.0
2022-05-13 14:34:04.484750-07:00,1346.7,797.7,1196.5,1120.9,993.6,812.7,1974.6,1526.4,3473.4,3462.5,1359.4,1071.2,1779.1,3467.4,1621.8,1429.5,3467.4,3477.1,1045.2,1332.3,1836.2,2505.8,1490.3,3485.6,3478.3,3472.2,753.8,973.1,1944.0,1231.0,1143.6,939.8,-24.0,7.0,8.0,9909.0,-11508.0,6058.0,-1059.0,-70.0,50.0,237.0,8.0,-16.0,18.0,7448.0,-14455.0,1992.0,221.0,134.0,-14.0,74.0,1.0
2022-05-13 14:34:04.531687-07:00,1346.7,803.5,1329.6,1208.0,993.6,812.7,1974.6,1561.8,3473.4,3467.4,1625.6,1138.4,1779.1,3467.4,1621.8,1494.9,3468.6,3477.1,1045.2,1332.3,1821.6,2494.0,1484.7,3485.6,3477.1,3472.2,753.8,973.1,1928.2,1323.2,1196.5,939.8,19.0,-11.0,-5.0,9826.0,-11552.0,6129.0,-932.0,-516.0,-34.0,259.0,-14.0,14.0,-39.0,7502.0,-14423.0,2022.0,231.0,143.0,-18.0,80.0,1.0
2022-05-13 14:34:04.532830-07:00,1320.5,792.7,1329.6,1208.0,1000.5,821.9,1968.7,1561.8,3467.4,3467.4,1625.6,1138.4,1802.3,3471.0,1848.9,1494.9,3468.6,3479.5,1047.8,1329.6,1821.6,2494.0,1493.0,3491.7,3477.1,3475.9,806.0,1115.6,1928.2,1323.2,1407.6,940.7,19.0,-37.0,-89.0,9748.0,-11561.0,6254.0,-799.0,47.0,-195.0,413.0,20.0,-21.0,-16.0,7611.0,-14360.0,2057.0,255.0,511.0,-74.0,125.0,1.0
2022-05-13 14:34:04.665966-07:00,1320.5,792.7,1679.5,1521.8,1000.5,821.9,1977.6,1519.0,3467.4,3467.4,1737.8,1248.8,1802.3,3471.0,2195.2,1773.3,3472.2,3469.8,1047.8,1329.6,1825.5,2494.0,1493.0,3491.7,3478.3,3467.4,806.0,1115.6,1933.1,1519.9,1407.6,940.7,39.0,144.0,8.0,9933.0,-11411.0,6255.0,-654.0,312.0,-340.0,228.0,13.0,63.0,-21.0,7858.0,-14224.0,2072.0,281.0,451.0,-118.0,44.0,1.0
2022-05-13 14:34:04.667872-07:00,1293.6,785.2,1679.5,1521.8,1020.2,823.5,1977.6,1519.0,3466.1,3472.2,1737.8,1248.8,1835.2,3461.3,2195.2,1773.3,3472.2,3469.8,1047.8,1334.1,1825.5,2494.0,1471.8,3494.1,3478.3,3467.4,849.5,1099.9,1933.1,1519.9,1529.2,936.4,44.0,-27.0,-16.0,9959.0,-11446.0,6160.0,-544.0,-160.0,-487.0,-130.0,21.0,-42.0,3.0,7854.0,-14227.0,2059.0,315.0,-110.0,-58.0,18.0,1.0
2022-05-13 14:34:04.668949-07:00,1293.6,785.2,1745.4,1597.4,1020.2,823.5,1990.5,1510.6,3466.1,3472.2,1702.4,1261.3,1835.2,3461.3,2118.9,1825.5,3466.1,3472.2,1047.8,1334.1,1822.6,2481.3,1471.8,3494.1,3461.3,3469.8,849.5,1099.9,1999.5,1625.6,1529.2,936.4,38.0,-37.0,-18.0,10113.0,-11399.0,6002.0,-440.0,437.0,-524.0,73.0,18.0,4.0,-3.0,7905.0,-14198.0,2057.0,343.0,241.0,-78.0,67.0,1.0
2022-05-13 14:34:04.755299-07:00,1291.8,777.8,1745.4,1597.4,1032.3,824.4,1990.5,1510.6,3468.6,3467.4,1702.4,1261.3,1842.0,3468.6,2118.9,1825.5,3466.1,3472.2,1049.6,1328.7,1822.6,2481.3,1436.0,3491.7,3461.3,3469.8,873.0,1075.6,1999.5,1625.6,1421.3,934.7,50.0,72.0,-68.0,10258.0,-11353.0,5852.0,-276.0,-116.0,-651.0,-39.0,25.0,23.0,21.0,7950.0,-14172.0,2057.0,375.0,-48.0,-72.0,19.0,1.0
2022-05-13 14:34:04.801128-07:00,1291.8,777.8,1687.2,1561.8,1032.3,824.4,2063.5,1697.6,3468.6,3467.4,1683.3,1286.4,1842.0,3468.6,2015.4,1802.3,3469.8,3478.3,1049.6,1328.7,1818.7,2498.3,1436.0,3491.7,3461.3,3474.6,873.0,1075.6,2079.5,1536.6,1421.3,934.7,34.0,-49.0,-5.0,10224.0,-11449.0,5730.0,-94.0,-289.0,-220.0,72.0,13.0,-21.0,14.0,7897.0,-14204.0,2035.0,417.0,-62.0,-91.0,-7.0,1.0
2022-05-13 14:34:04.891162-07:00,1325.9,786.9,1646.4,1561.8,1034.0,826.9,2063.5,1697.6,3463.7,3462.5,1649.2,1286.4,1898.7,3473.4,2015.4,1802.3,3469.8,3478.3,1053.0,1327.8,1818.7,2506.9,1396.7,3480.7,3461.3,3474.6,859.5,1066.0,2079.5,1490.3,1371.2,934.7,10.0,18.0,2.0,10191.0,-11492.0,5702.0,11.0,-149.0,-264.0,4.0,18.0,-26.0,24.0,7893.0,-14207.0,2019.0,455.0,9.0,-79.0,2.0,1.0
2022-05-13 14:34:04.936294-07:00,1325.9,786.9,1646.4,1540.3,1034.0,817.7,2149.3,1803.2,3463.7,3462.5,1649.2,1271.2,1898.7,3462.5,1946.9,1787.8,3472.2,3472.2,1053.0,1327.8,1820.7,2506.9,1396.7,3480.7,3483.2,3469.8,857.0,1066.0,2129.0,1490.3,1371.2,934.7,27.0,18.0,24.0,10170.0,-11535.0,5651.0,98.0,-107.0,-115.0,-1.0,3.0,0.0,-3.0,7903.0,-14203.0,2004.0,483.0,25.0,-70.0,-1.0,1.0
2022-05-13 14:34:04.937551-07:00,1375.7,836.9,1623.7,1540.3,1046.1,817.7,2149.3,1803.2,3467.4,3457.6,1626.5,1271.2,1922.3,3462.5,1946.9,1787.8,3472.2,3472.2,1053.0,1333.2,1820.7,2502.6,1369.4,3490.5,3483.2,3469.8,857.0,1064.3,2129.0,1459.8,1342.2,946.6,-15.0,20.0,-11.0,10153.0,-11576.0,5598.0,140.0,-117.0,-226.0,-94.0,18.0,-15.0,52.0,7892.0,-14210.0,1993.0,504.0,-29.0,-32.0,-8.0,1.0
2022-05-13 14:34:05.024857-07:00,1375.7,836.9,1623.7,1528.3,1046.1,826.9,2190.1,1743.5,3467.4,3457.6,1626.5,1248.8,1922.3,3468.6,1922.3,1749.3,3466.1,3469.8,1054.8,1333.2,1818.7,2502.6,1369.4,3490.5,3472.2,3462.5,845.3,1064.3,2213.7,1459.8,1342.2,946.6,32.0,11.0,22.0,10169.0,-11596.0,5526.0,205.0,18.0,-72.0,40.0,-3.0,19.0,-41.0,7915.0,-14198.0,1986.0,513.0,67.0,-51.0,16.0,1.0
2022-05-13 14:34:05.071758-07:00,1405.8,884.8,1601.1,1528.3,1049.6,826.9,2190.1,1743.5,3467.4,3462.5,1612.4,1248.8,1907.5,3468.6,1922.3,1749.3,3466.1,3469.8,1054.8,1335.9,1818.7,2500.4,1349.4,3494.1,3472.2,3462.5,845.3,1062.5,2213.7,1442.4,1335.0,960.2,5.0,12.0,12.0,10156.0,-11611.0,5517.0,228.0,-92.0,-67.0,-2.0,9.0,-17.0,20.0,7904.0,-14205.0,1979.0,528.0,-35.0,-22.0,3.0,1.0
2022-05-13 14:34:05.162075-07:00,1405.8,884.8,1601.1,1519.0,1053.9,822.7,2172.8,1702.4,3467.4,3462.5,1612.4,1244.4,1886.9,3466.1,1906.6,1729.1,3473.4,3474.6,1049.6,1331.4,1830.4,2500.4,1349.4,3494.1,3475.9,3473.4,844.4,1048.7,2283.8,1442.4,1335.0,960.2,13.0,14.0,8.0,10160.0,-11617.0,5495.0,249.0,-8.0,-32.0,-12.0,4.0,0.0,-3.0,7903.0,-14205.0,1975.0,534.0,-41.0,-12.0,-8.0,1.0
2022-05-13 14:34:05.163676-07:00,1409.4,880.6,1588.9,1509.7,1053.9,822.7,2172.8,1702.4,3467.4,3460.1,1607.7,1236.4,1886.9,3466.1,1906.6,1729.1,3473.4,3474.6,1049.6,1331.4,1818.7,2493.0,1336.8,3497.8,3475.9,3473.4,844.4,1048.7,2254.8,1433.2,1330.5,957.7,6.0,6.0,1.0,10156.0,-11629.0,5477.0,250.0,-14.0,-31.0,-42.0,7.0,-8.0,1.0,7897.0,-14210.0,1971.0,532.0,-3.0,2.0,-12.0,1.0
2022-05-13 14:34:05.164738-07:00,1409.4,880.6,1588.9,1509.7,1053.0,823.5,2149.3,1691.0,3467.4,3460.1,1607.7,1236.4,1864.5,3467.4,1901.6,1719.6,3464.9,3467.4,1047.0,1324.1,1818.7,2493.0,1336.8,3497.8,3474.6,3467.4,831.1,1050.4,2254.8,1433.2,1330.5,957.7,5.0,10.0,-12.0,10160.0,-11636.0,5456.0,248.0,-13.0,-26.0,-25.0,8.0,-5.0,3.0,7895.0,-14211.0,1968.0,530.0,-21.0,6.0,-10.0,1.0
2022-05-13 14:34:05.296658-07:00,1402.1,873.8,1588.9,1507.8,1053.0,823.5,2149.3,1691.0,3462.5,3462.5,1602.1,1244.4,1864.5,3467.4,1901.6,1719.6,3464.9,3467.4,1047.0,1324.1,1818.7,2494.0,1333.2,3485.6,3474.6,3467.4,831.1,1050.4,2238.4,1425.9,1323.2,952.6,20.0,3.0,19.0,10152.0,-11650.0,5440.0,263.0,-40.0,-19.0,14.0,11.0,-6.0,1.0,7887.0,-14216.0,1964.0,532.0,-17.0,-11.0,6.0,1.0
2022-05-13 14:34:05.297798-07:00,1402.1,873.8,1588.9,1507.8,1046.1,825.2,2127.0,1677.6,3462.5,3462.5,1602.1,1244.4,1865.4,3467.4,1896.7,1716.7,3473.4,3477.1,1049.6,1332.3,1818.7,2494.0,1333.2,3485.6,3475.9,3475.9,837.7,1040.1,2238.4,1425.9,1323.2,952.6,19.0,1.0,15.0,10152.0,-11653.0,5433.0,262.0,6.0,-24.0,-28.0,3.0,0.0,1.0,7891.0,-14214.0,1963.0,529.0,28.0,8.0,-2.0,1.0
2022-05-13 14:34:05.339694-07:00,1398.5,863.7,1575.8,1490.3,1046.1,825.2,2127.0,1659.6,3474.6,3464.9,1614.3,1239.1,1865.4,3467.4,1896.7,1707.2,3469.8,3477.1,1049.6,1332.3,1818.7,2483.4,1330.5,3489.2,3462.5,3475.9,837.7,1040.1,2222.9,1427.7,1307.0,951.7,-1.0,3.0,-10.0,10149.0,-11653.0,5438.0,247.0,-23.0,60.0,1.0,3.0,-4.0,6.0,7884.0,-14218.0,1963.0,529.0,-39.0,7.0,-2.0,1.0
2022-05-13 14:34:05.430036-07:00,1387.5,863.7,1575.8,1490.3,1038.3,821.9,2150.4,1659.6,3469.8,3464.9,1614.3,1239.1,1844.0,3478.3,1890.9,1707.2,3469.8,3477.1,1050.4,1335.9,1818.7,2483.4,1330.5,3489.2,3462.5,3478.3,838.6,1033.2,2222.9,1427.7,1307.0,947.5,24.0,9.0,9.0,10145.0,-11658.0,5435.0,246.0,0.0,-27.0,-13.0,8.0,8.0,-6.0,7884.0,-14218.0,1963.0,529.0,4.0,0.0,-5.0,1.0
2022-05-13 14:34:05.476528-07:00,1387.5,868.8,1565.5,1499.5,1038.3,821.9,2150.4,1665.3,3469.8,3471.0,1591.7,1220.4,1844.0,3478.3,1890.9,1690.0,3479.5,3477.1,1050.4,1335.9,1805.2,2496.2,1323.2,3489.2,3483.2,3478.3,838.6,1033.2,2201.4,1415.8,1316.9,947.5,75.0,17.0,77.0,10128.0,-11659.0,5467.0,214.0,-17.0,265.0,24.0,6.0,32.0,5.0,7862.0,-14230.0,1961.0,532.0,-105.0,-11.0,-13.0,1.0
2022-05-13 14:34:05.477828-07:00,1422.2,868.8,1565.5,1499.5,1049.6,824.4,2134.1,1665.3,3467.4,3471.0,1591.7,1220.4,1873.2,3466.1,1896.7,1690.0,3479.5,3483.2,1045.2,1331.4,1805.2,2496.2,1323.2,3494.1,3483.2,3488.0,830.2,1034.9,2201.4,1415.8,1316.9,953.4,-11.0,9.0,22.0,10082.0,-11626.0,5623.0,63.0,157.0,512.0,57.0,14.0,-35.0,66.0,7817.0,-14256.0,1957.0,529.0,-66.0,63.0,-19.0,1.0
2022-05-13 14:34:05.565080-07:00,1422.2,858.7,1603.0,1537.6,1049.6,824.4,2134.1,1763.7,3467.4,3475.9,1605.8,1253.3,1873.2,3466.1,1896.7,1739.7,3473.4,3483.2,1045.2,1331.4,1817.8,2485.5,1339.5,3494.1,3472.2,3488.0,830.2,1034.9,2209.6,1483.8,1360.3,953.4,27.0,29.0,-53.0,10069.0,-11555.0,5789.0,-137.0,260.0,735.0,41.0,1.0,4.0,-23.0,7842.0,-14242.0,1967.0,482.0,62.0,114.0,-47.0,1.0
2022-05-13 14:34:05.566855-07:00,1408.5,858.7,1603.0,1537.6,1027.1,824.4,2123.0,1763.7,3471.0,3475.9,1605.8,1253.3,1927.2,3469.8,2086.6,1739.7,3473.4,3473.4,1053.0,1330.5,1817.8,2485.5,1339.5,3486.8,3472.2,3477.1,835.2,1035.7,2209.6,1483.8,1360.3,932.2,13.0,-38.0,-13.0,9943.0,-11543.0,6016.0,-379.0,-180.0,740.0,-6.0,12.0,-10.0,-10.0,7786.0,-14274.0,1963.0,452.0,-238.0,74.0,-66.0,1.0
2022-05-13 14:34:05.744226-07:00,1408.5,830.2,1811.0,1665.3,1027.1,824.4,2117.9,1882.0,3471.0,3469.8,1718.6,1266.7,1927.2,3469.8,2327.4,1768.5,3480.7,3475.9,1053.0,1330.5,1810.0,2491.9,1420.4,3486.8,3473.4,3475.9,835.2,1035.7,2216.8,1717.7,1586.1,932.2,-24.0,12.0,-52.0,9847.0,-11547.0,6151.0,-557.0,99.0,455.0,-43.0,1.0,0.0,10.0,7754.0,-14294.0,1953.0,408.0,143.0,73.0,-78.0,1.0
2022-05-13 14:34:05.749032-07:00,1363.0,833.6,1811.0,1665.3,1004.8,820.2,2117.9,1882.0,3462.5,3478.3,1718.6,1266.7,1901.6,3471.0,2327.4,1768.5,3480.7,3475.9,1042.6,1325.9,1810.0,2491.9,1481.0,3489.2,3473.4,3475.9,840.3,1038.3,2216.8,1717.7,1622.8,935.6,19.0,9.0,2.0,9851.0,-11516.0,6193.0,-647.0,140.0,126.0,-17.0,5.0,19.0,-27.0,7806.0,-14269.0,1942.0,362.0,44.0,46.0,-72.0,1.0
2022-05-13 14:34:05.750196-07:00,1363.0,833.6,1803.2,1573.0,1004.8,820.2,2105.8,1812.9,3462.5,3478.3,1771.4,1231.9,1901.6,3471.0,2213.7,1725.3,3466.1,3477.1,1042.6,1325.9,1811.9,2496.2,1481.0,3489.2,3471.0,3474.6,840.3,1038.3,2199.3,1655.8,1622.8,935.6,-21.0,12.0,40.0,9886.0,-11490.0,6181.0,-702.0,159.0,-4.0,-157.0,22.0,-29.0,36.0,7791.0,-14280.0,1924.0,333.0,-83.0,71.0,-58.0,1.0
2022-05-13 14:34:05.808717-07:00,1378.5,825.2,1803.2,1573.0,1005.6,816.0,2105.8,1812.9,3447.9,3473.4,1771.4,1231.9,1885.0,3471.0,2213.7,1725.3,3466.1,3477.1,1050.4,1327.8,1811.9,2496.2,1498.6,3481.9,3471.0,3474.6,832.7,1053.0,2199.3,1655.8,1458.0,916.9,14.0,-26.0,-14.0,9974.0,-11473.0,6067.0,-718.0,263.0,-239.0,-116.0,3.0,-15.0,-12.0,7786.0,-14284.0,1919.0,296.0,87.0,66.0,-25.0,1.0
2022-05-13 14:34:05.837753-07:00,1378.5,825.2,1609.6,1398.5,1005.6,816.0,2060.5,1750.2,3447.9,3473.4,1739.7,1207.1,1885.0,3471.0,1995.5,1608.7,3474.6,3467.4,1050.4,1327.8,1809.0,2488.7,1498.6,3481.9,3466.1,3467.4,832.7,1053.0,2179.9,1476.4,1458.0,916.9,18.0,22.0,13.0,10057.0,-11442.0,5990.0,-706.0,80.0,-190.0,-104.0,4.0,14.0,0.0,7787.0,-14284.0,1925.0,269.0,-110.0,50.0,-33.0,1.0
2022-05-13 14:34:05.928925-07:00,1358.5,807.7,1450.6,1398.5,992.7,811.9,2060.5,1750.2,3463.7,3467.4,1663.4,1207.1,1858.6,3474.6,1995.5,1608.7,3474.6,3467.4,1035.7,1331.4,1809.0,2491.9,1533.8,3497.8,3466.1,3467.4,831.9,1038.3,2179.9,1363.0,1318.7,922.8,27.0,9.0,-11.0,10119.0,-11438.0,5891.0,-704.0,175.0,-204.0,-138.0,0.0,15.0,-17.0,7756.0,-14301.0,1927.0,242.0,-33.0,56.0,-34.0,1.0
2022-05-13 14:34:05.930149-07:00,1358.5,807.7,1450.6,1287.3,992.7,806.9,2038.4,1679.5,3463.7,3467.4,1663.4,1157.7,1858.6,3464.9,1820.7,1519.9,3471.0,3475.9,1045.2,1331.4,1813.9,2491.9,1533.8,3497.8,3477.1,3472.2,825.2,1038.3,2133.1,1363.0,1318.7,922.8,-15.0,25.0,14.0,10177.0,-11414.0,5835.0,-726.0,68.0,-34.0,-89.0,10.0,-5.0,11.0,7726.0,-14318.0,1925.0,221.0,-139.0,47.0,-32.0,1.0
2022-05-13 14:34:06.061067-07:00,1390.3,809.4,1344.9,1287.3,993.6,806.9,2038.4,1679.5,3469.8,3469.8,1555.3,1157.7,1856.7,3464.9,1820.7,1519.9,3471.0,3475.9,1045.2,1324.1,1813.9,2484.4,1550.6,3483.2,3477.1,3472.2,825.2,1021.1,2133.1,1297.2,1221.3,929.6,43.0,-25.0,3.0,10170.0,-11451.0,5776.0,-712.0,-79.0,-88.0,-60.0,2.0,-8.0,-25.0,7662.0,-14352.0,1921.0,202.0,-138.0,45.0,-32.0,1.0
2022-05-13 14:34:06.062554-07:00,1390.3,809.4,1344.9,1223.9,993.6,811.9,2004.5,1608.7,3469.8,3469.8,1555.3,1124.4,1856.7,3467.4,1710.0,1480.1,3473.4,3472.2,1047.8,1324.1,1826.5,2484.4,1550.6,3483.2,3475.9,3467.4,811.0,1021.1,2064.5,1297.2,1221.3,929.6,-18.0,28.0,15.0,10167.0,-11430.0,5817.0,-753.0,102.0,178.0,21.0,13.0,-7.0,20.0,7644.0,-14363.0,1918.0,195.0,0.0,17.0,-5.0,1.0
2022-05-13 14:34:06.108278-07:00,1403.0,811.0,1283.7,1223.9,986.7,811.9,2004.5,1608.7,3462.5,3468.6,1462.6,1124.4,1825.5,3467.4,1710.0,1480.1,3473.4,3472.2,1047.8,1324.1,1826.5,2495.1,1544.1,3486.8,3475.9,3467.4,811.0,997.0,2064.5,1259.6,1182.3,922.0,0.0,-10.0,-15.0,10166.0,-11440.0,5797.0,-771.0,-62.0,-90.0,-83.0,2.0,-1.0,-14.0,7625.0,-14372.0,1925.0,184.0,-81.0,26.0,0.0,1.0
2022-05-13 14:34:06.109495-07:00,1403.0,811.0,1283.7,1196.5,986.7,814.4,1995.5,1570.2,3462.5,3468.6,1462.6,1098.2,1825.5,3466.1,1671.9,1461.7,3464.9,3463.7,1053.0,1324.1,1819.7,2495.1,1544.1,3486.8,3466.1,3467.4,794.4,997.0,2033.4,1259.6,1182.3,922.0,12.0,-1.0,10.0,10164.0,-11454.0,5775.0,-762.0,54.0,74.0,29.0,6.0,7.0,-6.0,7609.0,-14380.0,1926.0,185.0,21.0,-18.0,-4.0,1.0
2022-05-13 14:34:06.344252-07:00,1396.7,804.4,1248.0,1175.3,992.7,814.4,1995.5,1570.2,3467.4,3466.1,1420.4,1088.6,1814.9,3466.1,1671.9,1461.7,3464.9,3463.7,1053.0,1330.5,1842.0,2489.8,1537.6,3490.5,3466.1,3467.4,794.4,967.9,2012.4,1250.6,1171.8,933.0,0.0,22.0,-4.0,10176.0,-11439.0,5782.0,-776.0,-5.0,-68.0,-47.0,2.0,10.0,11.0,7619.0,-14375.0,1926.0,184.0,-16.0,11.0,-8.0,1.0
2022-05-13 14:34:06.346312-07:00,1396.7,804.4,1248.0,1175.3,982.5,813.5,1974.6,1537.6,3467.4,3466.1,1420.4,1088.6,1810.0,3466.1,1641.6,1448.8,3480.7,3475.9,1045.2,1323.2,1842.0,2489.8,1537.6,3490.5,3478.3,3473.4,793.5,960.2,2012.4,1250.6,1171.8,933.0,27.0,-8.0,21.0,10179.0,-11452.0,5753.0,-759.0,26.0,26.0,18.0,4.0,2.0,-6.0,7611.0,-14380.0,1922.0,184.0,30.0,-16.0,-7.0,1.0
2022-05-13 14:34:06.347460-07:00,1383.9,814.4,1236.4,1157.7,982.5,813.5,1974.6,1537.6,3462.5,3466.1,1404.0,1076.4,1810.0,3466.1,1641.6,1448.8,3480.7,3475.9,1045.2,1323.2,1827.5,2484.4,1513.4,3485.6,3478.3,3473.4,793.5,960.2,1989.5,1240.8,1156.8,927.1,2.0,14.0,6.0,10178.0,-11434.0,5789.0,-774.0,-10.0,18.0,33.0,13.0,-10.0,10.0,7623.0,-14374.0,1920.0,187.0,0.0,-2.0,1.0,1.0
2022-05-13 14:34:06.348605-07:00,1383.9,814.4,1236.4,1157.7,983.3,808.5,1963.7,1523.6,3462.5,3466.1,1404.0,1076.4,1784.9,3463.7,1634.1,1440.5,3467.4,3464.9,1040.1,1334.1,1827.5,2484.4,1513.4,3485.6,3472.2,3477.1,780.3,990.2,1989.5,1240.8,1156.8,927.1,33.0,38.0,28.0,10170.0,-11477.0,5721.0,-742.0,-200.0,-157.0,-170.0,0.0,19.0,-3.0,7622.0,-14375.0,1917.0,185.0,-62.0,-10.0,-19.0,1.0
2022-05-13 14:34:06.434925-07:00,1373.0,807.7,1231.9,1139.2,983.3,808.5,1963.7,1523.6,3462.5,3457.6,1414.0,1099.9,1784.9,3463.7,1634.1,1440.5,3467.4,3464.9,1040.1,1334.1,1830.4,2484.4,1502.3,3491.7,3472.2,3477.1,780.3,990.2,1971.7,1239.1,1140.1,922.0,-21.0,-20.0,4.0,10123.0,-11531.0,5698.0,-734.0,-183.0,-106.0,-54.0,3.0,-39.0,-9.0,7585.0,-14394.0,1914.0,190.0,-38.0,3.0,4.0,1.0
2022-05-13 14:34:06.478118-07:00,1353.1,807.7,1231.9,1139.2,975.6,821.0,1971.7,1516.2,3473.4,3457.6,1414.0,1099.9,1783.9,3467.4,1640.7,1432.3,3468.6,3473.4,1043.5,1330.5,1830.4,2484.4,1502.3,3486.8,3478.3,3483.2,781.1,1153.3,1971.7,1239.1,1140.1,922.8,-1.0,16.0,19.0,10101.0,-11586.0,5632.0,-671.0,-189.0,-177.0,-88.0,14.0,49.0,0.0,7590.0,-14392.0,1912.0,196.0,-43.0,-34.0,-1.0,1.0
2022-05-13 14:34:06.479482-07:00,1353.1,805.2,1239.1,1155.0,975.6,821.0,1971.7,1502.3,3473.4,3467.4,1619.9,1162.1,1783.9,3467.4,1640.7,1546.9,3478.3,3473.4,1043.5,1330.5,1841.1,2489.8,1460.8,3486.8,3478.3,3483.2,781.1,1153.3,1971.7,1226.6,1143.6,922.8,36.0,-2.0,-85.0,10279.0,-11428.0,5638.0,-626.0,977.0,-224.0,425.0,-10.0,15.0,1.0,7562.0,-14406.0,1915.0,215.0,3.0,-20.0,53.0,1.0
2022-05-13 14:34:06.568173-07:00,1343.1,805.2,1239.1,1155.0,970.5,927.9,1957.8,1502.3,3464.9,3467.4,1619.9,1162.1,1790.7,3464.9,1947.9,1546.9,3478.3,3468.6,1041.8,1329.6,1841.1,2489.8,1460.8,3486.8,3478.3,3474.6,777.8,1155.9,1971.7,1226.6,1143.6,919.4,-72.0,66.0,-71.0,10341.0,-11266.0,5845.0,-645.0,214.0,543.0,466.0,0.0,5.0,-3.0,7617.0,-14375.0,1928.0,232.0,151.0,-52.0,62.0,1.0
2022-05-13 14:34:06.568840-07:00,1343.1,797.7,1226.6,1138.4,970.5,927.9,1957.8,1500.4,3464.9,3460.1,1757.0,1205.3,1790.7,3464.9,1947.9,1481.0,3478.3,3468.6,1041.8,1329.6,1838.2,2484.4,1446.0,3486.8,3488.0,3474.6,777.8,1155.9,1971.7,1307.9,1163.8,919.4,39.0,-63.0,65.0,10296.0,-11263.0,5945.0,-476.0,-218.0,-166.0,404.0,-3.0,26.0,-42.0,7663.0,-14347.0,1947.0,266.0,156.0,-69.0,90.0,1.0
2022-05-13 14:34:06.660485-07:00,1316.9,797.7,1226.6,1138.4,977.3,942.4,1953.9,1500.4,3468.6,3460.1,1757.0,1205.3,1782.9,3468.6,1983.6,1481.0,3478.3,3475.9,1044.4,1332.3,1838.2,2484.4,1446.0,3486.8,3488.0,3474.6,791.9,1145.4,1971.7,1307.9,1163.8,917.7,-3.0,71.0,-48.0,10211.0,-11336.0,5969.0,-201.0,-939.0,-604.0,215.0,18.0,45.0,30.0,7742.0,-14302.0,1970.0,296.0,30.0,-21.0,88.0,1.0
2022-05-13 14:34:06.703490-07:00,1316.9,798.5,1208.0,1143.6,977.3,942.4,1989.5,1487.5,3468.6,3469.8,1681.4,1198.2,1782.9,3468.6,2033.4,1447.9,3472.2,3478.3,1044.4,1332.3,1822.6,2520.8,1454.3,3486.8,3468.6,3469.8,791.9,1145.4,1970.7,1470.9,1337.7,917.7,49.0,-164.0,71.0,10061.0,-11463.0,5984.0,100.0,-222.0,167.0,597.0,-8.0,-22.0,-100.0,7723.0,-14306.0,2003.0,342.0,196.0,-114.0,147.0,1.0
2022-05-13 14:34:06.704025-07:00,1316.0,802.7,1208.0,1143.6,973.9,925.4,1989.5,1487.5,3469.8,3472.2,1681.4,1198.2,1767.5,3468.6,2033.4,1447.9,3472.2,3478.3,1053.0,1335.0,1822.6,2520.8,1413.1,3496.6,3468.6,3469.8,826.9,1107.8,1970.7,1470.9,1494.9,915.2,-67.0,136.0,-29.0,10060.0,-11347.0,6201.0,110.0,6.0,69.0,237.0,43.0,-7.0,97.0,7904.0,-14198.0,2058.0,400.0,459.0,-91.0,166.0,1.0
2022-05-13 14:34:06.828310-07:00,1316.0,802.7,1715.8,1506.9,973.9,925.4,1962.8,1447.9,3469.8,3472.2,1686.2,1328.7,1767.5,3468.6,2131.1,1746.4,3466.1,3473.4,1053.0,1335.0,1818.7,2491.9,1413.1,3496.6,3468.6,3475.9,826.9,1107.8,2071.5,1599.3,1494.9,915.2,1.0,-61.0,28.0,10053.0,-11344.0,6216.0,214.0,107.0,203.0,329.0,-8.0,34.0,-119.0,8063.0,-14103.0,2086.0,430.0,472.0,-118.0,108.0,1.0
2022-05-13 14:34:06.939425-07:00,1324.1,791.0,1715.8,1506.9,1003.9,922.0,1962.8,1447.9,3466.1,3466.1,1686.2,1328.7,1782.9,3473.4,2131.1,1746.4,3466.1,3473.4,1055.6,1335.9,1818.7,2491.9,1406.7,3484.4,3468.6,3475.9,877.2,1084.2,2071.5,1599.3,1408.5,915.2,55.0,121.0,0.0,10067.0,-11196.0,6457.0,209.0,522.0,370.0,527.0,55.0,-57.0,2.0,8265.0,-13978.0,2119.0,490.0,792.0,-162.0,148.0,1.0
2022-05-13 14:34:06.941777-07:00,1324.1,791.0,1735.8,1591.7,1003.9,922.0,2263.1,1927.2,3466.1,3466.1,1659.6,1316.0,1782.9,3473.4,2089.6,1815.8,3472.2,3486.8,1055.6,1335.9,1818.7,2501.5,1406.7,3484.4,3462.5,3468.6,877.2,1084.2,2074.5,1516.2,1408.5,915.2,30.0,11.0,4.0,10160.0,-11033.0,6592.0,133.0,428.0,-89.0,40.0,-7.0,76.0,48.0,8435.0,-13874.0,2127.0,516.0,308.0,-59.0,-9.0,1.0
2022-05-13 14:34:06.973142-07:00,1324.1,787.7,1735.8,1591.7,1070.3,903.4,2263.1,1927.2,3468.6,3471.0,1659.6,1316.0,1880.1,3474.6,2089.6,1815.8,3472.2,3486.8,1071.2,1335.0,1818.7,2501.5,1390.3,3485.6,3462.5,3468.6,850.3,1084.2,2074.5,1516.2,1375.7,1028.0,38.0,44.0,40.0,10148.0,-11008.0,6653.0,144.0,38.0,161.0,189.0,7.0,0.0,19.0,8467.0,-13853.0,2127.0,554.0,48.0,-84.0,67.0,1.0
2022-05-13 14:34:06.975366-07:00,1324.1,787.7,1684.3,1548.7,1070.3,897.4,2227.0,1817.8,3468.6,3471.0,1638.8,1300.7,1880.1,3461.3,2036.4,1783.9,3479.5,3473.4,1066.9,1335.0,1816.8,2504.7,1390.3,3485.6,3469.8,3474.6,846.1,1084.2,2058.4,1476.4,1375.7,1028.0,15.0,3.0,-31.0,10089.0,-11025.0,6713.0,183.0,-357.0,-154.0,55.0,21.0,-4.0,9.0,8425.0,-13877.0,2134.0,572.0,-197.0,18.0,17.0,1.0
2022-05-13 14:34:07.108605-07:00,1323.2,798.5,1657.7,1548.7,1061.7,897.4,2227.0,1817.8,3469.8,3457.6,1617.1,1300.7,1917.4,3461.3,2036.4,1783.9,3479.5,3473.4,1066.9,1328.7,1816.8,2503.6,1357.6,3491.7,3469.8,3474.6,846.1,1070.3,2058.4,1463.5,1357.6,1034.0,39.0,-27.0,19.0,9992.0,-11119.0,6698.0,319.0,-329.0,-40.0,114.0,-4.0,-3.0,-16.0,8334.0,-13930.0,2141.0,597.0,-192.0,-27.0,43.0,1.0
2022-05-13 14:34:07.198803-07:00,1323.2,798.5,1657.7,1521.8,1061.7,893.2,2285.9,1748.3,3469.8,3457.6,1617.1,1286.4,1917.4,3467.4,2014.4,1766.6,3472.2,3478.3,1059.9,1328.7,1797.4,2503.6,1357.6,3491.7,3471.0,3473.4,838.6,1070.3,2053.4,1463.5,1357.6,1034.0,61.0,-7.0,-7.0,9978.0,-11153.0,6658.0,384.0,-117.0,-326.0,-68.0,9.0,22.0,0.0,8314.0,-13942.0,2141.0,607.0,-13.0,-35.0,-15.0,1.0
2022-05-13 14:34:07.333611-07:00,1352.1,797.7,1647.3,1521.8,1048.7,893.2,2285.9,1748.3,3463.7,3471.0,1612.4,1286.4,1904.6,3467.4,2014.4,1766.6,3472.2,3478.3,1059.9,1329.6,1797.4,2496.2,1345.8,3502.7,3471.0,3473.4,838.6,1058.2,2053.4,1448.8,1345.8,1025.4,-24.0,32.0,-9.0,9980.0,-11157.0,6646.0,458.0,-73.0,14.0,146.0,15.0,-33.0,4.0,8319.0,-13938.0,2137.0,619.0,-66.0,-33.0,27.0,1.0
2022-05-13 14:34:07.334824-07:00,1352.1,797.7,1647.3,1513.4,1048.7,891.5,2297.3,1716.7,3463.7,3471.0,1612.4,1277.4,1904.6,3472.2,1985.6,1749.3,3467.4,3475.9,1061.7,1329.6,1807.1,2496.2,1345.8,3502.7,3478.3,3472.2,835.2,1058.2,2086.6,1448.8,1345.8,1025.4,37.0,4.0,13.0,9970.0,-11182.0,6611.0,541.0,-132.0,-303.0,5.0,6.0,-3.0,3.0,8301.0,-13949.0,2130.0,637.0,11.0,-39.0,3.0,1.0
2022-05-13 14:34:07.378077-07:00,1357.6,796.9,1639.8,1515.3,1047.8,891.5,2297.3,1716.7,3471.0,3469.8,1604.9,1285.5,1892.8,3472.2,1985.6,1749.3,3467.4,3475.9,1061.7,1331.4,1809.0,2497.2,1331.4,3486.8,3478.3,3472.2,835.2,1048.7,2096.7,1433.2,1323.2,1015.1,2.0,38.0,3.0,9987.0,-11187.0,6572.0,588.0,10.0,-33.0,-28.0,8.0,-2.0,16.0,8311.0,-13944.0,2122.0,649.0,-9.0,-20.0,-21.0,1.0
2022-05-13 14:34:07.379379-07:00,1357.6,796.9,1639.8,1515.3,1047.8,889.0,2270.3,1703.3,3471.0,3469.8,1604.9,1285.5,1887.9,3467.4,1973.7,1751.2,3479.5,3479.5,1055.6,1327.8,1809.0,2497.2,1331.4,3486.8,3477.1,3468.6,831.9,1049.6,2096.7,1433.2,1323.2,1015.1,33.0,-41.0,17.0,9997.0,-11215.0,6506.0,628.0,-118.0,-270.0,-36.0,2.0,-11.0,-23.0,8302.0,-13951.0,2110.0,649.0,11.0,-27.0,-6.0,1.0
2022-05-13 14:34:07.469794-07:00,1354.9,802.7,1629.4,1505.1,1047.8,889.0,2270.3,1703.3,3457.6,3464.9,1603.0,1272.1,1887.9,3467.4,1973.7,1751.2,3479.5,3479.5,1055.6,1327.8,1804.2,2510.1,1332.3,3486.8,3477.1,3468.6,831.9,1049.6,2090.6,1441.5,1326.8,1005.6,62.0,-10.0,49.0,10012.0,-11231.0,6450.0,685.0,-3.0,-124.0,-56.0,3.0,25.0,-15.0,8304.0,-13951.0,2101.0,660.0,-8.0,-2.0,-8.0,1.0
2022-05-13 14:34:07.514257-07:00,1342.2,806.0,1630.3,1493.0,1039.2,888.2,2265.2,1687.2,3475.9,3471.0,1588.0,1270.3,1872.3,3463.7,1952.9,1731.1,3474.6,3468.6,1058.2,1334.1,1800.3,2502.6,1316.9,3491.7,3467.4,3475.9,827.7,1042.6,2058.4,1425.0,1333.2,1000.5,1.0,21.0,16.0,10000.0,-11222.0,6488.0,638.0,57.0,259.0,7.0,9.0,-14.0,29.0,8288.0,-13961.0,2101.0,660.0,-70.0,27.0,-4.0,1.0
2022-05-13 14:34:07.517040-07:00,1342.2,806.0,1630.3,1493.0,1033.2,878.0,2226.0,1682.4,3475.9,3471.0,1588.0,1270.3,1858.6,3461.3,1943.0,1717.7,3473.4,3479.5,1052.2,1329.6,1800.3,2502.6,1316.9,3491.7,3472.2,3488.0,830.2,1039.2,2058.4,1425.0,1333.2,1000.5,21.0,-27.0,4.0,9986.0,-11222.0,6513.0,596.0,-19.0,29.0,4.0,0.0,-10.0,-15.0,8263.0,-13975.0,2105.0,651.0,-41.0,28.0,11.0,1.0
2022-05-13 14:34:07.518353-07:00,1340.4,791.9,1624.7,1495.8,1033.2,878.0,2226.0,1740.6,3472.2,3471.0,1588.9,1274.7,1858.6,3461.3,1943.0,1718.6,3469.8,3479.5,1052.2,1329.6,1804.2,2503.6,1321.4,3494.1,3481.9,3488.0,830.2,1039.2,2031.4,1425.0,1326.8,1003.0,39.0,59.0,-8.0,9970.0,-11211.0,6560.0,571.0,38.0,216.0,87.0,12.0,43.0,24.0,8251.0,-13981.0,2112.0,646.0,-54.0,28.0,10.0,1.0
2022-05-13 14:34:07.603250-07:00,1337.7,791.9,1624.7,1495.8,1015.1,885.6,2238.4,1740.6,3475.9,3471.0,1588.9,1274.7,1958.8,3475.9,1944.0,1718.6,3469.8,3467.4,1054.8,1324.1,1804.2,2503.6,1321.4,3486.8,3481.9,3474.6,828.5,1030.6,2031.4,1425.0,1326.8,991.0,27.0,-2.0,35.0,9867.0,-11256.0,6638.0,567.0,-316.0,221.0,21.0,12.0,-34.0,14.0,8167.0,-14031.0,2113.0,637.0,-332.0,75.0,-50.0,1.0
2022-05-13 14:34:07.604065-07:00,1337.7,782.7,1688.1,1539.4,1015.1,885.6,2238.4,2064.5,3475.9,3464.9,1615.2,1291.8,1958.8,3475.9,1944.0,1706.2,3467.4,3467.4,1054.8,1324.1,1797.4,2502.6,1331.4,3486.8,3474.6,3474.6,828.5,1030.6,2015.4,1592.7,1441.5,991.0,150.0,-140.0,12.0,9832.0,-11284.0,6646.0,516.0,3.0,-44.0,-146.0,14.0,-2.0,-75.0,8084.0,-14082.0,2104.0,584.0,-135.0,179.0,-135.0,1.0
2022-05-13 14:34:07.738793-07:00,1323.2,782.7,1688.1,1539.4,1011.6,887.3,2343.1,2064.5,3474.6,3464.9,1615.2,1291.8,1963.7,3468.6,2112.8,1706.2,3467.4,3478.3,1043.5,1340.4,1797.4,2502.6,1331.4,3492.9,3474.6,3466.1,823.5,1077.3,2015.4,1592.7,1441.5,976.5,-18.0,31.0,-89.0,9884.0,-11197.0,6725.0,373.0,144.0,347.0,53.0,-3.0,4.0,-11.0,8011.0,-14130.0,2081.0,518.0,-225.0,37.0,-97.0,1.0
2022-05-13 14:34:07.740096-07:00,1323.2,778.6,1619.9,1399.4,1011.6,887.3,2343.1,1859.6,3474.6,3468.6,1803.2,1294.5,1963.7,3468.6,2112.8,1733.9,3475.9,3478.3,1043.5,1340.4,1791.6,2513.3,1447.9,3492.9,3483.2,3466.1,823.5,1077.3,1995.5,1718.6,1646.4,976.5,-15.0,-203.0,271.0,9802.0,-11286.0,6694.0,407.0,251.0,-568.0,-161.0,12.0,-169.0,-35.0,7880.0,-14208.0,2048.0,518.0,-339.0,-26.0,-20.0,1.0
2022-05-13 14:34:07.874191-07:00,1323.2,783.6,1619.9,1399.4,1004.8,882.3,2216.8,1859.6,3467.4,3471.0,1803.2,1294.5,1946.9,3473.4,2167.7,1733.9,3475.9,3467.4,1040.1,1335.0,1791.6,2513.3,1746.4,3492.9,3483.2,3480.7,828.5,1082.5,1995.5,1718.6,1562.7,967.9,-102.0,54.0,-94.0,10017.0,-11118.0,6663.0,323.0,221.0,-54.0,-15.0,10.0,-13.0,41.0,7966.0,-14157.0,2079.0,489.0,-5.0,87.0,21.0,1.0
2022-05-13 14:34:07.876364-07:00,1323.2,783.6,1488.4,1316.0,1004.8,882.3,2134.1,1712.9,3467.4,3471.0,1645.4,1200.0,1946.9,3473.4,1940.0,1597.4,3466.1,3474.6,1040.1,1335.0,1804.2,2522.9,1746.4,3492.9,3474.6,3474.6,828.5,1082.5,1968.7,1566.5,1562.7,967.9,148.0,-70.0,-76.0,10105.0,-11067.0,6609.0,393.0,407.0,-150.0,198.0,5.0,3.0,-21.0,7949.0,-14161.0,2119.0,465.0,391.0,74.0,22.0,1.0
2022-05-13 14:34:08.009400-07:00,1368.5,788.6,1488.4,1316.0,997.9,875.5,2134.1,1712.9,3464.9,3467.4,1645.4,1200.0,1907.5,3467.4,1940.0,1597.4,3466.1,3474.6,1055.6,1356.7,1804.2,2522.9,1690.0,3486.8,3474.6,3474.6,821.9,1040.9,1968.7,1566.5,1520.8,962.8,-13.0,4.0,-92.0,10309.0,-10804.0,6732.0,319.0,827.0,251.0,162.0,-4.0,-48.0,57.0,8128.0,-14057.0,2135.0,450.0,331.0,-72.0,29.0,1.0
2022-05-13 14:34:08.011383-07:00,1368.5,788.6,1448.8,1261.3,997.9,875.5,2138.2,1649.2,3464.9,3467.4,1404.0,1143.6,1907.5,3467.4,1773.3,1499.5,3474.6,3467.4,1055.6,1356.7,1818.7,2553.0,1690.0,3486.8,3472.2,3472.2,821.9,1040.9,1995.5,1471.8,1520.8,962.8,1.0,-7.0,-20.0,10333.0,-10792.0,6711.0,415.0,-129.0,-307.0,166.0,19.0,-42.0,-46.0,8156.0,-14038.0,2155.0,450.0,-60.0,80.0,55.0,1.0
2022-05-13 14:34:08.012500-07:00,1467.2,826.0,1448.8,1261.3,984.2,905.9,2138.2,1649.2,3469.8,3467.4,1404.0,1143.6,1870.3,3469.8,1773.3,1499.5,3474.6,3467.4,1057.3,1368.5,1818.7,2553.0,1704.3,3488.0,3472.2,3472.2,822.7,1063.4,1995.5,1471.8,1273.9,941.5,32.0,72.0,21.0,10461.0,-10621.0,6785.0,415.0,580.0,183.0,363.0,21.0,19.0,42.0,8197.0,-14011.0,2177.0,446.0,209.0,-13.0,58.0,1.0
2022-05-13 14:34:08.013588-07:00,1467.2,826.0,1443.3,1219.5,984.2,909.3,2106.8,1580.5,3469.8,3467.4,1379.4,1126.1,1870.3,3468.6,1674.8,1471.8,3469.8,3467.4,1057.3,1368.5,1829.4,2568.0,1704.3,3488.0,3462.5,3483.2,816.0,1063.4,1946.9,1342.2,1273.9,941.5,93.0,73.0,-50.0,10494.0,-10578.0,6796.0,474.0,-115.0,-194.0,53.0,1.0,68.0,-78.0,8215.0,-14000.0,2181.0,435.0,24.0,30.0,-69.0,1.0
2022-05-13 14:34:08.051422-07:00,1523.6,854.5,1404.0,1219.5,987.6,909.3,2106.8,1580.5,3471.0,3478.3,1360.3,1126.1,1849.8,3468.6,1674.8,1471.8,3469.8,3467.4,1055.6,1384.8,1829.4,2584.2,1684.3,3497.8,3462.5,3483.2,816.0,1066.0,1946.9,1289.1,1202.7,958.5,-67.0,114.0,70.0,10522.0,-10501.0,6874.0,458.0,177.0,85.0,41.0,43.0,-13.0,71.0,8231.0,-13997.0,2145.0,405.0,25.0,22.0,-78.0,1.0
2022-05-13 14:34:08.278776-07:00,1523.6,854.5,1404.0,1222.2,987.6,962.0,2071.5,1547.8,3471.0,3478.3,1360.3,1124.4,1849.8,3467.4,1616.2,1445.1,3472.2,3466.1,1055.6,1384.8,1879.1,2584.2,1684.3,3497.8,3467.4,3472.2,820.2,1066.0,1919.3,1289.1,1202.7,958.5,9.0,54.0,51.0,10439.0,-10681.0,6718.0,509.0,-667.0,-185.0,-349.0,-20.0,47.0,33.0,8098.0,-14080.0,2119.0,373.0,-600.0,102.0,-113.0,1.0
2022-05-13 14:34:08.280225-07:00,1506.9,838.6,1344.0,1222.2,980.7,962.0,2071.5,1547.8,3474.6,3471.0,1388.5,1124.4,1838.2,3467.4,1616.2,1445.1,3472.2,3466.1,1055.6,1396.7,1879.1,2587.4,1703.3,3486.8,3467.4,3472.2,820.2,1289.1,1919.3,1259.6,1171.8,954.3,-40.0,-87.0,13.0,10218.0,-10949.0,6611.0,657.0,-749.0,-137.0,-161.0,19.0,-71.0,-40.0,7863.0,-14217.0,2089.0,343.0,-510.0,93.0,-96.0,1.0
2022-05-13 14:34:08.281378-07:00,1506.9,838.6,1344.0,1200.0,980.7,1063.4,2036.4,1492.1,3474.6,3471.0,1388.5,1142.7,1838.2,3478.3,1601.1,1438.7,3471.0,3467.4,1061.7,1396.7,1920.3,2587.4,1703.3,3486.8,3484.4,3466.1,801.0,1289.1,1899.7,1259.6,1171.8,954.3,-9.0,-11.0,-55.0,10075.0,-11141.0,6493.0,815.0,-829.0,-478.0,-21.0,7.0,45.0,-47.0,7716.0,-14299.0,2079.0,335.0,-390.0,11.0,-33.0,1.0
2022-05-13 14:34:08.282492-07:00,1458.9,817.7,1257.8,1200.0,989.3,1063.4,2036.4,1492.1,3469.8,3462.5,1512.5,1142.7,1834.3,3478.3,1601.1,1438.7,3471.0,3467.4,1061.7,1425.9,1920.3,2583.1,1649.2,3494.1,3484.4,3466.1,801.0,1321.4,1899.7,1255.1,1148.0,948.3,29.0,-76.0,63.0,10210.0,-10954.0,6606.0,747.0,1044.0,439.0,398.0,9.0,-3.0,39.0,7650.0,-14334.0,2078.0,368.0,29.0,-59.0,84.0,1.0
2022-05-13 14:34:08.411705-07:00,1458.9,817.7,1257.8,1155.9,986.7,1095.6,2015.4,1477.3,3469.8,3462.5,1512.5,1169.1,1818.7,3467.4,1838.2,1472.7,3469.8,3477.1,1062.5,1415.8,1918.3,2583.1,1649.2,3494.1,3462.5,3478.3,791.9,1288.2,1882.0,1255.1,1148.0,948.3,-9.0,124.0,-277.0,10266.0,-10867.0,6664.0,747.0,-402.0,-110.0,98.0,-8.0,63.0,-16.0,7676.0,-14319.0,2085.0,375.0,-56.0,-50.0,-16.0,1.0
2022-05-13 14:34:08.414297-07:00,1390.3,821.9,1208.9,1133.1,986.7,1095.6,2015.4,1477.3,3467.4,3474.6,1631.3,1235.5,1818.7,3467.4,1838.2,1472.7,3469.8,3477.1,1062.5,1415.8,1908.5,2559.4,1604.0,3491.7,3462.5,3478.3,791.9,1288.2,1863.5,1317.8,1167.4,945.8,-78.0,70.0,-33.0,10181.0,-10891.0,6752.0,759.0,-167.0,28.0,88.0,16.0,-30.0,82.0,7678.0,-14318.0,2078.0,408.0,83.0,-64.0,15.0,1.0
2022-05-13 14:34:08.416255-07:00,1390.3,821.9,1208.9,1133.1,978.2,1100.8,1992.5,1464.4,3467.4,3474.6,1631.3,1235.5,1958.8,3468.6,2051.4,1533.8,3473.4,3478.3,1056.5,1414.0,1908.5,2559.4,1604.0,3491.7,3478.3,3475.9,776.1,1305.2,1863.5,1317.8,1167.4,945.8,76.0,-8.0,-15.0,9990.0,-11090.0,6691.0,939.0,-868.0,-145.0,-24.0,14.0,3.0,-7.0,7612.0,-14354.0,2061.0,447.0,-272.0,-75.0,25.0,1.0
2022-05-13 14:34:08.501819-07:00,1372.1,803.5,1203.5,1126.1,978.2,1100.8,1992.5,1464.4,3471.0,3468.6,1800.3,1320.5,1958.8,3468.6,2051.4,1533.8,3473.4,3478.3,1056.5,1414.0,1879.1,2557.3,1565.5,3499.0,3478.3,3475.9,776.1,1305.2,1860.6,1405.8,1231.9,941.5,33.0,86.0,-66.0,9807.0,-11317.0,6550.0,1132.0,-957.0,-363.0,-222.0,9.0,27.0,48.0,7576.0,-14374.0,2048.0,484.0,-268.0,-88.0,3.0,1.0
2022-05-13 14:34:08.503368-07:00,1372.1,803.5,1203.5,1126.1,982.5,1099.0,1995.5,1482.9,3471.0,3468.6,1800.3,1320.5,1947.9,3463.7,2002.5,1498.6,3479.5,3467.4,1055.6,1399.4,1879.1,2557.3,1565.5,3499.0,3474.6,3472.2,815.2,1287.3,1860.6,1405.8,1231.9,941.5,39.0,-57.0,78.0,9361.0,-11788.0,6324.0,1367.0,-1596.0,-69.0,-443.0,4.0,-15.0,-5.0,7279.0,-14530.0,2000.0,563.0,-825.0,-96.0,-36.0,1.0
2022-05-13 14:34:08.637916-07:00,1344.0,800.2,1180.6,1117.4,982.5,1099.0,1995.5,1447.0,3466.1,3483.2,1718.6,1327.8,1947.9,3463.7,2002.5,1544.1,3471.0,3467.4,1055.6,1399.4,1876.2,2540.1,1530.1,3484.4,3474.6,3472.2,815.2,1287.3,1882.0,1502.3,1394.8,946.6,70.0,-39.0,-6.0,9221.0,-11918.0,6258.0,1484.0,-152.0,-48.0,138.0,38.0,6.0,-33.0,7270.0,-14533.0,2001.0,613.0,85.0,-125.0,51.0,1.0
2022-05-13 14:34:08.639541-07:00,1349.4,800.2,1180.6,1117.4,977.3,1054.8,1974.6,1447.0,3471.0,3483.2,1718.6,1327.8,1925.2,3464.9,2093.7,1544.1,3471.0,3469.8,1063.4,1391.2,1876.2,2540.1,1530.1,3497.8,3474.6,3469.8,850.3,1224.8,1882.0,1502.3,1394.8,931.3,-58.0,-19.0,40.0,9076.0,-12047.0,6218.0,1508.0,-685.0,34.0,-374.0,-3.0,-14.0,74.0,7143.0,-14595.0,1982.0,682.0,-356.0,-102.0,27.0,1.0
2022-05-13 14:34:08.641152-07:00,1349.4,791.0,1643.5,1453.4,977.3,1054.8,1974.6,1402.1,3471.0,3469.8,1703.3,1348.5,1925.2,3464.9,2093.7,1722.4,3466.1,3469.8,1063.4,1391.2,1867.4,2547.6,1505.1,3497.8,3474.6,3469.8,850.3,1224.8,1919.3,1598.3,1509.7,931.3,155.0,-37.0,-44.0,9076.0,-12106.0,6077.0,1601.0,487.0,-434.0,31.0,8.0,-68.0,-49.0,7311.0,-14508.0,1996.0,714.0,824.0,-138.0,60.0,1.0
2022-05-13 14:34:08.775042-07:00,1335.0,791.0,1643.5,1453.4,1036.6,1027.1,1925.2,1402.1,3457.6,3469.8,1703.3,1348.5,1955.8,3468.6,2087.6,1722.4,3466.1,3478.3,1066.0,1387.5,1867.4,2547.6,1505.1,3492.9,3474.6,3472.2,873.0,1177.0,1919.3,1598.3,1509.7,939.8,30.0,46.0,-4.0,9258.0,-11999.0,6030.0,1549.0,318.0,-228.0,-209.0,27.0,12.0,7.0,7530.0,-14397.0,1978.0,738.0,590.0,-162.0,-37.0,1.0
2022-05-13 14:34:08.776746-07:00,1335.0,794.4,1711.9,1561.8,1036.6,1027.1,1925.2,1759.8,3457.6,3473.4,1678.6,1327.8,1955.8,3468.6,2087.6,1727.2,3478.3,3478.3,1066.0,1387.5,1857.6,2541.1,1482.9,3492.9,3468.6,3472.2,873.0,1177.0,1964.7,1523.6,1413.1,939.8,20.0,11.0,55.0,9463.0,-11872.0,5997.0,1404.0,811.0,229.0,-80.0,-6.0,36.0,24.0,7855.0,-14226.0,1944.0,747.0,821.0,-127.0,-48.0,1.0
2022-05-13 14:34:08.909275-07:00,1328.7,794.4,1711.9,1561.8,1084.2,1006.5,2296.2,1759.8,3467.4,3473.4,1678.6,1327.8,1960.8,3463.7,2037.4,1727.2,3478.3,3477.1,1051.3,1387.5,1857.6,2541.1,1482.9,3492.9,3468.6,3468.6,853.7,1163.8,1964.7,1523.6,1413.1,953.4,-27.0,-35.0,-20.0,9619.0,-11753.0,6017.0,1256.0,230.0,-30.0,-80.0,9.0,-53.0,24.0,8017.0,-14141.0,1913.0,740.0,304.0,-74.0,-35.0,1.0
2022-05-13 14:34:08.910469-07:00,1328.7,799.4,1665.3,1530.1,1084.2,1006.5,2217.8,1811.9,3467.4,3478.3,1662.5,1314.2,1960.8,3463.7,1990.5,1694.8,3462.5,3474.6,1051.3,1387.5,1848.9,2532.5,1465.4,3492.9,3478.3,3473.4,853.7,1163.8,2044.4,1503.2,1388.5,953.4,41.0,-49.0,45.0,9722.0,-11675.0,6005.0,1245.0,369.0,-84.0,91.0,23.0,-11.0,13.0,8158.0,-14061.0,1902.0,749.0,493.0,-67.0,33.0,1.0
2022-05-13 14:34:08.911579-07:00,1322.3,845.3,1665.3,1530.1,1079.9,993.6,2217.8,1811.9,3466.1,3473.4,1662.5,1314.2,1956.8,3464.9,1990.5,1694.8,3462.5,3474.6,1058.2,1373.0,1848.9,2532.5,1437.8,3484.4,3478.3,3473.4,841.9,1143.6,2044.4,1503.2,1364.8,993.6,55.0,68.0,41.0,9821.0,-11554.0,6087.0,1195.0,198.0,262.0,161.0,0.0,60.0,-15.0,8302.0,-13975.0,1906.0,753.0,2.0,-37.0,1.0,1.0
2022-05-13 14:34:09.090450-07:00,1322.3,845.3,1642.6,1500.4,1079.9,993.6,2182.0,1771.4,3466.1,3473.4,1648.3,1306.1,1956.8,3464.9,1966.7,1680.5,3471.0,3479.5,1058.2,1373.0,1842.0,2541.1,1437.8,3484.4,3477.1,3481.9,841.9,1143.6,2088.6,1487.5,1364.8,993.6,-47.0,-66.0,-44.0,9779.0,-11556.0,6155.0,1178.0,-5.0,-79.0,53.0,7.0,-61.0,9.0,8285.0,-13985.0,1900.0,770.0,185.0,-46.0,28.0,1.0
2022-05-13 14:34:09.178750-07:00,1322.3,872.1,1642.6,1500.4,1070.3,987.6,2182.0,1771.4,3466.1,3468.6,1648.3,1306.1,1937.1,3467.4,1966.7,1680.5,3471.0,3479.5,1055.6,1363.9,1842.0,2541.1,1422.2,3488.0,3477.1,3481.9,838.6,1130.5,2088.6,1487.5,1356.7,1003.0,34.0,102.0,24.0,9830.0,-11509.0,6158.0,1199.0,109.0,88.0,69.0,15.0,38.0,9.0,8346.0,-13948.0,1903.0,786.0,-57.0,-17.0,-14.0,1.0
2022-05-13 14:34:09.180042-07:00,1322.3,872.1,1625.6,1497.7,1070.3,987.6,2151.4,1738.7,3466.1,3468.6,1641.6,1287.3,1937.1,3467.4,1957.8,1664.4,3464.9,3475.9,1055.6,1363.9,1836.2,2532.5,1422.2,3488.0,3468.6,3484.4,838.6,1130.5,2059.4,1475.5,1356.7,1003.0,22.0,-53.0,17.0,9814.0,-11527.0,6146.0,1221.0,-14.0,-79.0,2.0,-1.0,0.0,-12.0,8331.0,-13958.0,1888.0,794.0,81.0,-39.0,-5.0,1.0
2022-05-13 14:34:09.181175-07:00,1335.0,852.8,1618.1,1497.7,1060.8,980.7,2151.4,1738.7,3467.4,3475.9,1633.1,1287.3,1912.4,3467.4,1957.8,1664.4,3464.9,3475.9,1063.4,1364.8,1836.2,2528.3,1404.0,3489.2,3468.6,3484.4,830.2,1122.6,2059.4,1471.8,1344.9,1000.5,-1.0,23.0,0.0,9830.0,-11491.0,6184.0,1235.0,46.0,-8.0,87.0,8.0,-7.0,37.0,8359.0,-13941.0,1885.0,810.0,24.0,-35.0,15.0,1.0
2022-05-13 14:34:09.182258-07:00,1335.0,852.8,1618.1,1483.8,1060.8,984.2,2133.1,1714.8,3467.4,3475.9,1633.1,1299.0,1912.4,3466.1,1933.1,1659.6,3478.3,3472.2,1056.5,1364.8,1835.2,2528.3,1404.0,3489.2,3472.2,3472.2,824.4,1122.6,2041.4,1471.8,1344.9,1000.5,43.0,33.0,37.0,9855.0,-11473.0,6175.0,1248.0,87.0,-34.0,-21.0,10.0,29.0,19.0,8377.0,-13930.0,1885.0,816.0,28.0,0.0,-14.0,1.0
2022-05-13 14:34:09.266906-07:00,1316.9,843.6,1609.6,1483.8,1074.7,984.2,2133.1,1714.8,3466.1,3468.6,1625.6,1299.0,1899.7,3466.1,1933.1,1659.6,3478.3,3472.2,1056.5,1370.3,1835.2,2532.5,1396.7,3489.2,3472.2,3472.2,824.4,1110.4,2041.4,1458.0,1326.8,996.2,-9.0,-35.0,-15.0,9862.0,-11460.0,6190.0,1235.0,23.0,-4.0,14.0,5.0,-37.0,0.0,8380.0,-13928.0,1885.0,813.0,48.0,-1.0,13.0,1.0
2022-05-13 14:34:09.268805-07:00,1316.9,843.6,1609.6,1486.6,1074.7,979.0,2108.8,1711.0,3466.1,3468.6,1625.6,1299.8,1899.7,3468.6,1919.3,1645.4,3466.1,3467.4,1072.9,1370.3,1837.2,2532.5,1396.7,3489.2,3474.6,3469.8,826.0,1110.4,2023.4,1458.0,1326.8,996.2,39.0,39.0,22.0,9889.0,-11439.0,6185.0,1240.0,74.0,-19.0,-3.0,6.0,34.0,14.0,8403.0,-13913.0,1892.0,813.0,2.0,1.0,-2.0,1.0
2022-05-13 14:34:09.448807-07:00,1309.7,838.6,1604.0,1486.6,1048.7,979.0,2108.8,1711.0,3468.6,3466.1,1620.9,1299.8,1887.9,3468.6,1919.3,1645.4,3466.1,3467.4,1072.9,1370.3,1837.2,2548.7,1390.3,3496.6,3474.6,3469.8,826.0,1119.1,2023.4,1463.5,1342.2,980.7,19.0,-51.0,8.0,9892.0,-11440.0,6181.0,1225.0,17.0,32.0,24.0,14.0,-31.0,-18.0,8395.0,-13919.0,1890.0,807.0,7.0,3.0,1.0,1.0
2022-05-13 14:34:09.450145-07:00,1309.7,838.6,1604.0,1483.8,1048.7,973.1,2106.8,1696.7,3468.6,3466.1,1620.9,1288.2,1887.9,3469.8,1911.5,1650.2,3473.4,3473.4,1053.9,1370.3,1827.5,2548.7,1390.3,3496.6,3478.3,3472.2,828.5,1119.1,2014.4,1463.5,1342.2,980.7,14.0,-13.0,3.0,9882.0,-11429.0,6216.0,1232.0,-4.0,50.0,102.0,11.0,-10.0,8.0,8395.0,-13918.0,1893.0,814.0,-6.0,-24.0,29.0,1.0
2022-05-13 14:34:09.451284-07:00,1302.5,827.7,1583.3,1470.9,1043.5,973.1,2106.8,1696.7,3464.9,3467.4,1615.2,1286.4,1886.0,3469.8,1911.5,1650.2,3473.4,3473.4,1053.9,1356.7,1834.3,2530.4,1388.5,3492.9,3478.3,3472.2,828.5,1110.4,2009.4,1438.7,1335.9,982.5,33.0,28.0,22.0,9884.0,-11419.0,6229.0,1243.0,23.0,-10.0,-7.0,6.0,7.0,19.0,8400.0,-13914.0,1895.0,819.0,16.0,1.0,-3.0,1.0
2022-05-13 14:34:09.539401-07:00,1302.5,827.7,1583.3,1470.9,1042.6,976.5,2104.8,1686.2,3464.9,3467.4,1615.2,1286.4,1895.8,3466.1,1914.4,1649.2,3474.6,3467.4,1047.0,1356.7,1834.3,2530.4,1388.5,3492.9,3471.0,3472.2,816.0,1109.5,2009.4,1438.7,1335.9,982.5,41.0,-91.0,37.0,9964.0,-11331.0,6277.0,1171.0,680.0,206.0,95.0,8.0,-10.0,10.0,8446.0,-13885.0,1911.0,800.0,245.0,64.0,40.0,1.0
2022-05-13 14:34:09.540601-07:00,1301.6,837.7,1593.6,1454.3,1042.6,976.5,2104.8,1686.2,3473.4,3468.6,1653.0,1302.5,1895.8,3466.1,1914.4,1649.2,3474.6,3467.4,1047.0,1356.7,1834.3,2530.4,1397.6,3496.6,3471.0,3472.2,816.0,1109.5,2064.5,1447.0,1333.2,984.2,1.0,32.0,-39.0,10125.0,-11150.0,6357.0,1098.0,341.0,-83.0,162.0,17.0,13.0,16.0,8497.0,-13851.0,1937.0,801.0,85.0,-16.0,51.0,1.0
2022-05-13 14:34:09.541996-07:00,1301.6,837.7,1593.6,1454.3,1035.7,975.6,2080.6,1680.5,3473.4,3468.6,1653.0,1302.5,2014.4,3468.6,1913.4,1641.6,3468.6,3473.4,1056.5,1362.1,1834.3,2530.4,1397.6,3496.6,3471.0,3489.2,824.4,1146.3,2064.5,1447.0,1333.2,984.2,73.0,-45.0,19.0,10215.0,-11005.0,6467.0,1080.0,400.0,252.0,341.0,12.0,-50.0,5.0,8539.0,-13823.0,1952.0,802.0,154.0,10.0,39.0,1.0
2022-05-13 14:34:09.673129-07:00,1309.7,831.9,1585.2,1466.3,1035.7,975.6,2080.6,1680.5,3464.9,3468.6,1765.6,1341.3,2014.4,3468.6,1913.4,1641.6,3468.6,3473.4,1056.5,1362.1,1828.4,2529.3,1492.1,3490.5,3471.0,3489.2,824.4,1146.3,2098.7,1636.0,1368.5,974.8,-29.0,18.0,-102.0,10178.0,-10999.0,6526.0,1130.0,-572.0,-182.0,139.0,-16.0,3.0,2.0,8570.0,-13802.0,1960.0,816.0,148.0,-66.0,37.0,1.0
2022-05-13 14:34:09.716789-07:00,1303.4,831.9,1585.2,1466.3,1028.0,982.5,2123.0,1637.9,3479.5,3468.6,1765.6,1341.3,2026.4,3463.7,1991.5,1628.4,3483.2,3474.6,1066.0,1355.8,1828.4,2529.3,1492.1,3486.8,3468.6,3478.3,823.5,1091.2,2098.7,1636.0,1368.5,959.4,109.0,-76.0,35.0,10138.0,-11086.0,6412.0,1285.0,-119.0,-255.0,-79.0,69.0,-51.0,-45.0,8530.0,-13827.0,1941.0,842.0,-200.0,-63.0,4.0,1.0
2022-05-13 14:34:09.806829-07:00,1303.4,825.2,1593.6,1470.9,1028.0,982.5,2123.0,1661.5,3479.5,3471.0,1925.2,1386.6,2026.4,3463.7,1991.5,1588.0,3472.2,3474.6,1066.0,1355.8,1816.8,2541.1,1940.0,3486.8,3474.6,3478.3,823.5,1091.2,2064.5,1603.0,1426.8,959.4,-12.0,-1.0,12.0,10291.0,-10974.0,6358.0,1292.0,403.0,-436.0,-8.0,17.0,-13.0,19.0,8602.0,-13784.0,1937.0,829.0,329.0,16.0,-20.0,1.0
2022-05-13 14:34:09.808855-07:00,1307.9,825.2,1593.6,1470.9,1022.8,971.3,2228.1,1661.5,3472.2,3471.0,1925.2,1386.6,1942.0,3471.0,2065.5,1588.0,3472.2,3462.5,1053.9,1359.4,1816.8,2541.1,1940.0,3496.6,3474.6,3468.6,817.7,1062.5,2064.5,1603.0,1426.8,956.8,18.0,55.0,-20.0,10418.0,-10897.0,6257.0,1425.0,-142.0,-459.0,155.0,11.0,10.0,-1.0,8665.0,-13746.0,1938.0,807.0,-83.0,52.0,-26.0,1.0
2022-05-13 14:34:09.898473-07:00,1307.9,816.0,1575.8,1444.2,1022.8,971.3,2228.1,1756.0,3472.2,3468.6,1532.9,1207.1,1942.0,3471.0,2065.5,1552.5,3475.9,3462.5,1053.9,1359.4,1825.5,2548.7,1968.7,3496.6,3477.1,3468.6,817.7,1062.5,2038.4,1545.9,1411.3,956.8,-7.0,-56.0,-3.0,10349.0,-10982.0,6175.0,1610.0,-282.0,-298.0,-11.0,-16.0,-27.0,41.0,8567.0,-13807.0,1935.0,811.0,-137.0,-17.0,28.0,1.0
2022-05-13 14:34:09.900703-07:00,1328.7,816.0,1575.8,1444.2,1019.4,956.0,2293.1,1756.0,3474.6,3468.6,1532.9,1207.1,1909.5,3462.5,2111.8,1552.5,3475.9,3475.9,1052.2,1357.6,1825.5,2548.7,1968.7,3501.4,3477.1,3483.2,804.4,1063.4,2038.4,1545.9,1411.3,952.6,14.0,0.0,86.0,10421.0,-10925.0,6160.0,1591.0,302.0,93.0,6.0,38.0,-5.0,35.0,8606.0,-13781.0,1950.0,807.0,93.0,52.0,10.0,1.0
2022-05-13 14:34:09.901922-07:00,1328.7,814.4,1556.2,1418.6,1019.4,956.0,2209.6,1711.0,3474.6,3474.6,1419.5,1169.1,1909.5,3462.5,2010.4,1527.3,3474.6,3471.0,1052.2,1357.6,1834.3,2559.4,1909.5,3501.4,3480.7,3480.7,804.4,1063.4,1999.5,1552.5,1584.2,952.6,37.0,-69.0,-58.0,10485.0,-10865.0,6173.0,1534.0,283.0,129.0,64.0,-31.0,50.0,-68.0,8648.0,-13754.0,1962.0,782.0,160.0,-3.0,-4.0,1.0
2022-05-13 14:34:09.942234-07:00,1368.5,819.4,1556.2,1418.6,1010.8,980.7,2209.6,1711.0,3478.3,3475.9,1419.5,1169.1,1887.9,3464.9,2010.4,1527.3,3474.6,3471.0,1057.3,1364.8,1834.3,2559.4,1881.1,3496.6,3480.7,3480.7,799.4,1092.1,1999.5,1552.5,1456.2,944.9,-43.0,49.0,58.0,10487.0,-10806.0,6286.0,1478.0,40.0,11.0,98.0,41.0,-39.0,83.0,8632.0,-13764.0,1968.0,772.0,-81.0,58.0,13.0,1.0
2022-05-13 14:34:10.167439-07:00,1368.5,819.4,1601.1,1468.1,1010.8,980.7,2146.3,1640.7,3478.3,3475.9,1369.4,1146.3,1887.9,3464.9,1896.7,1494.9,3472.2,3473.4,1057.3,1364.8,1829.4,2557.3,1881.1,3496.6,3479.5,3478.3,799.4,1092.1,2018.4,1432.3,1456.2,944.9,44.0,48.0,11.0,10537.0,-10753.0,6290.0,1487.0,250.0,52.0,40.0,-3.0,23.0,-16.0,8622.0,-13770.0,1985.0,749.0,-104.0,69.0,-4.0,1.0
2022-05-13 14:34:10.168957-07:00,1396.7,839.4,1601.1,1468.1,1015.9,979.0,2146.3,1640.7,3473.4,3471.0,1369.4,1146.3,1864.5,3475.9,1896.7,1494.9,3472.2,3473.4,1053.9,1361.2,1829.4,2557.3,1850.8,3489.2,3479.5,3478.3,801.9,1118.2,2018.4,1432.3,1251.5,932.2,69.0,25.0,8.0,10521.0,-10778.0,6263.0,1536.0,-227.0,-108.0,45.0,20.0,11.0,-13.0,8509.0,-13843.0,1973.0,716.0,-354.0,91.0,-108.0,1.0
2022-05-13 14:34:10.170815-07:00,1396.7,839.4,1671.0,1398.5,1015.9,979.0,2115.9,1582.4,3473.4,3471.0,1344.0,1138.4,1864.5,3475.9,1684.3,1441.5,3468.6,3472.2,1053.9,1361.2,1857.6,2572.3,1850.8,3489.2,3473.4,3479.5,801.9,1118.2,2003.5,1304.3,1251.5,932.2,-28.0,75.0,51.0,10465.0,-10843.0,6221.0,1628.0,-434.0,-245.0,-66.0,10.0,-17.0,58.0,8348.0,-13947.0,1941.0,681.0,-568.0,97.0,-113.0,1.0
2022-05-13 14:34:10.172093-07:00,1393.0,833.6,1671.0,1398.5,1008.2,955.1,2115.9,1582.4,3466.1,3464.9,1344.0,1138.4,1845.9,3469.8,1684.3,1441.5,3468.6,3472.2,1048.7,1367.6,1857.6,2572.3,1817.8,3490.5,3473.4,3479.5,807.7,1304.3,2003.5,1304.3,1189.4,934.7,38.0,12.0,92.0,10419.0,-10968.0,6040.0,1759.0,-538.0,-254.0,-157.0,2.0,88.0,-29.0,8154.0,-14069.0,1903.0,633.0,-655.0,109.0,-162.0,1.0
2022-05-13 14:34:10.303574-07:00,1393.0,833.6,1436.0,1256.0,1008.2,984.2,2052.4,1484.7,3466.1,3464.9,1355.8,1146.3,1845.9,3473.4,1611.5,1418.6,3478.3,3488.0,1047.8,1367.6,1893.8,2570.2,1817.8,3490.5,3478.3,3469.8,793.5,1304.3,1975.6,1258.7,1189.4,934.7,-65.0,-95.0,63.0,10328.0,-11043.0,6075.0,1708.0,34.0,187.0,-58.0,17.0,-111.0,78.0,7992.0,-14165.0,1889.0,596.0,-120.0,132.0,-17.0,1.0
2022-05-13 14:34:10.306892-07:00,1367.6,831.9,1345.8,1256.0,1006.5,984.2,2052.4,1484.7,3466.1,3466.1,1363.9,1146.3,1836.2,3473.4,1611.5,1418.6,3478.3,3488.0,1047.8,1383.0,1893.8,2576.6,1765.6,3488.0,3478.3,3469.8,793.5,1323.2,1975.6,1224.8,1159.4,925.4,31.0,21.0,-16.0,10346.0,-11036.0,6063.0,1687.0,40.0,35.0,-39.0,3.0,23.0,-28.0,7986.0,-14165.0,1923.0,559.0,-28.0,84.0,43.0,1.0
2022-05-13 14:34:10.308062-07:00,1367.6,831.9,1345.8,1201.8,1006.5,992.7,2001.5,1436.0,3466.1,3466.1,1363.9,1143.6,1836.2,3466.1,1597.4,1385.7,3464.9,3473.4,1050.4,1383.0,1886.9,2576.6,1765.6,3488.0,3469.8,3471.0,775.3,1323.2,1944.0,1224.8,1159.4,925.4,13.0,-4.0,4.0,10244.0,-11110.0,6111.0,1647.0,-242.0,281.0,-12.0,20.0,-37.0,42.0,7871.0,-14228.0,1934.0,551.0,-378.0,67.0,1.0,1.0
2022-05-13 14:34:10.438644-07:00,1345.8,832.7,1275.6,1201.8,991.9,992.7,2001.5,1436.0,3467.4,3462.5,1356.7,1143.6,1833.3,3466.1,1597.4,1385.7,3464.9,3473.4,1050.4,1379.4,1886.9,2571.3,1741.6,3486.8,3469.8,3471.0,775.3,1285.5,1944.0,1210.6,1138.4,933.0,30.0,-9.0,-11.0,10212.0,-11150.0,6100.0,1623.0,-44.0,-2.0,-89.0,0.0,22.0,-42.0,7819.0,-14256.0,1948.0,525.0,-67.0,72.0,-12.0,1.0
2022-05-13 14:34:10.439998-07:00,1345.8,832.7,1275.6,1175.3,991.9,1013.3,1961.8,1402.1,3467.4,3462.5,1356.7,1138.4,1833.3,3466.1,1582.4,1387.5,3468.6,3473.4,1047.0,1379.4,1875.2,2571.3,1741.6,3486.8,3473.4,3478.3,763.7,1285.5,1931.1,1210.6,1138.4,933.0,4.0,-3.0,26.0,10147.0,-11207.0,6113.0,1579.0,-255.0,248.0,-76.0,16.0,-21.0,22.0,7711.0,-14316.0,1942.0,524.0,-368.0,18.0,-15.0,1.0
2022-05-13 14:34:10.441138-07:00,1344.0,826.0,1234.6,1156.8,990.2,1013.3,1961.8,1402.1,3472.2,3472.2,1385.7,1152.4,1819.7,3466.1,1582.4,1387.5,3468.6,3473.4,1047.0,1369.4,1874.2,2562.6,1711.9,3499.0,3473.4,3478.3,763.7,1269.4,1913.4,1204.4,1139.2,933.9,47.0,13.0,27.0,10072.0,-11292.0,6093.0,1535.0,-135.0,89.0,-147.0,11.0,4.0,9.0,7623.0,-14364.0,1938.0,505.0,-179.0,73.0,-36.0,1.0
2022-05-13 14:34:10.573197-07:00,1344.0,826.0,1234.6,1156.8,986.7,1080.8,1953.9,1401.2,3472.2,3472.2,1385.7,1152.4,1855.7,3467.4,1585.2,1386.6,3479.5,3469.8,1054.8,1375.7,1874.2,2562.6,1711.9,3499.0,3477.1,3478.3,760.4,1280.1,1913.4,1204.4,1139.2,933.9,-22.0,-26.0,53.0,9971.0,-11399.0,6058.0,1542.0,-428.0,61.0,-79.0,10.0,-40.0,11.0,7531.0,-14413.0,1934.0,495.0,-297.0,39.0,-1.0,1.0
2022-05-13 14:34:10.706841-07:00,1323.2,818.5,1198.2,1136.6,986.7,1080.8,1953.9,1401.2,3469.8,3467.4,1497.7,1208.9,1855.7,3467.4,1585.2,1386.6,3479.5,3469.8,1054.8,1375.7,1884.0,2550.8,1711.0,3502.7,3477.1,3478.3,760.4,1280.1,1913.4,1188.5,1129.6,925.4,-25.0,-154.0,152.0,9952.0,-11391.0,6107.0,1536.0,621.0,299.0,251.0,-2.0,-69.0,28.0,7446.0,-14455.0,1945.0,500.0,-38.0,27.0,74.0,1.0
2022-05-13 14:34:10.708908-07:00,1323.2,818.5,1198.2,1136.6,973.9,1164.7,1943.0,1395.7,3469.8,3467.4,1497.7,1208.9,1917.4,3468.6,1894.8,1414.9,3467.4,3467.4,1047.0,1383.0,1884.0,2550.8,1711.0,3502.7,3472.2,3479.5,772.0,1267.6,1913.4,1188.5,1129.6,925.4,8.0,-6.0,-68.0,9933.0,-11354.0,6197.0,1562.0,-341.0,130.0,138.0,23.0,-1.0,-27.0,7456.0,-14448.0,1964.0,510.0,-103.0,-75.0,42.0,1.0
2022-05-13 14:34:10.713207-07:00,1294.5,817.7,1181.5,1120.9,973.9,1164.7,1943.0,1395.7,3467.4,3469.8,1810.0,1330.5,1917.4,3468.6,1894.8,1414.9,3467.4,3467.4,1047.0,1383.0,1873.2,2560.5,1657.7,3494.1,3472.2,3479.5,772.0,1267.6,1900.7,1388.5,1190.3,927.9,15.0,109.0,-51.0,9857.0,-11415.0,6203.0,1581.0,-416.0,-67.0,-87.0,39.0,52.0,56.0,7455.0,-14447.0,1959.0,551.0,-185.0,-77.0,-1.0,1.0
2022-05-13 14:34:10.714508-07:00,1294.5,817.7,1181.5,1120.9,972.2,1176.2,1931.1,1387.5,3467.4,3469.8,1810.0,1330.5,2066.5,3463.7,2119.9,1596.4,3473.4,3473.4,1044.4,1382.1,1873.2,2560.5,1657.7,3494.1,3480.7,3474.6,791.0,1277.4,1900.7,1388.5,1190.3,927.9,-9.0,-105.0,-23.0,9590.0,-11692.0,6046.0,1792.0,-861.0,-293.0,-112.0,12.0,-52.0,24.0,7336.0,-14510.0,1930.0,592.0,-265.0,-75.0,20.0,1.0
2022-05-13 14:34:10.751729-07:00,1298.1,811.9,1170.9,1111.2,972.2,1176.2,1931.1,1374.8,3468.6,3472.2,1764.6,1362.1,2066.5,3463.7,2119.9,1492.1,3473.4,3473.4,1044.4,1382.1,1862.5,2536.8,1613.4,3494.1,3478.3,3474.6,791.0,1277.4,1891.8,1381.2,1263.1,923.7,8.0,-31.0,87.0,9305.0,-11964.0,5902.0,1969.0,-1062.0,-25.0,-157.0,3.0,28.0,3.0,7231.0,-14564.0,1906.0,649.0,-474.0,-118.0,27.0,1.0
2022-05-13 14:34:10.797398-07:00,1284.6,811.9,1170.9,1111.2,975.6,1111.2,1920.3,1374.8,3467.4,3472.2,1764.6,1362.1,1992.5,3467.4,2015.4,1492.1,3473.4,3474.6,1056.5,1374.8,1862.5,2536.8,1613.4,3492.9,3478.3,3477.1,864.6,1241.7,1891.8,1381.2,1263.1,916.9,4.0,-29.0,-14.0,9054.0,-12163.0,5859.0,2052.0,-439.0,120.0,1.0,11.0,-47.0,4.0,7089.0,-14630.0,1902.0,720.0,-113.0,-87.0,79.0,1.0
2022-05-13 14:34:10.933750-07:00,1284.6,806.9,1241.7,1155.9,975.6,1111.2,1920.3,1355.8,3467.4,3469.8,1713.8,1354.0,1992.5,3467.4,2015.4,1519.9,3483.2,3474.6,1056.5,1374.8,1853.7,2531.5,1573.9,3492.9,3467.4,3477.1,864.6,1241.7,1913.4,1549.7,1528.3,916.9,63.0,30.0,-29.0,8948.0,-12260.0,5808.0,2082.0,-301.0,-3.0,-122.0,8.0,17.0,-51.0,7089.0,-14626.0,1914.0,767.0,3.0,-128.0,30.0,1.0
2022-05-13 14:34:10.935892-07:00,1308.8,806.9,1241.7,1155.9,975.6,1080.8,1869.3,1355.8,3468.6,3469.8,1713.8,1354.0,1974.6,3467.4,2056.4,1519.9,3483.2,3480.7,1051.3,1365.7,1853.7,2531.5,1573.9,3489.2,3467.4,3481.9,884.8,1160.3,1913.4,1549.7,1528.3,915.2,5.0,-40.0,-45.0,8910.0,-12326.0,5729.0,2073.0,-99.0,-187.0,-164.0,23.0,-13.0,28.0,7073.0,-14634.0,1895.0,815.0,87.0,-135.0,-2.0,1.0
2022-05-13 14:34:10.937055-07:00,1308.8,800.2,1689.1,1495.8,975.6,1080.8,1869.3,1334.1,3468.6,3466.1,1685.3,1354.9,1974.6,3467.4,2056.4,1649.2,3472.2,3480.7,1051.3,1365.7,1838.2,2525.0,1559.9,3489.2,3481.9,3481.9,884.8,1160.3,1954.8,1599.3,1507.8,915.2,-15.0,-51.0,32.0,8958.0,-12306.0,5698.0,2069.0,401.0,-3.0,-29.0,2.0,-11.0,17.0,7155.0,-14594.0,1877.0,852.0,328.0,-130.0,7.0,1.0
2022-05-13 14:34:11.112832-07:00,1314.2,791.9,1689.1,1495.8,1021.9,1054.8,1935.1,1334.1,3467.4,3467.4,1685.3,1354.9,1978.6,3471.0,2051.4,1649.2,3472.2,3474.6,1050.4,1355.8,1838.2,2525.0,1543.1,3485.6,3481.9,3474.6,873.0,1161.2,1954.8,1599.3,1425.0,919.4,51.0,0.0,53.0,9126.0,-12198.0,5680.0,2025.0,441.0,-103.0,-72.0,18.0,8.0,41.0,7299.0,-14523.0,1861.0,882.0,436.0,-98.0,-20.0,1.0
2022-05-13 14:34:11.204750-07:00,1314.2,791.9,1703.3,1529.2,1021.9,1054.8,2259.0,1671.9,3467.4,3467.4,1673.8,1349.4,1978.6,3471.0,2013.4,1702.4,3469.8,3474.6,1050.4,1355.8,1837.2,2539.0,1543.1,3485.6,3466.1,3478.3,873.0,1161.2,1978.6,1528.3,1425.0,919.4,57.0,24.0,27.0,9317.0,-12034.0,5767.0,1886.0,699.0,345.0,130.0,8.0,-16.0,-3.0,7521.0,-14410.0,1850.0,889.0,489.0,-97.0,-24.0,1.0
2022-05-13 14:34:11.206536-07:00,1312.4,781.9,1703.3,1529.2,1040.9,1024.5,2259.0,1671.9,3462.5,3473.4,1673.8,1349.4,1942.0,3469.8,2013.4,1702.4,3469.8,3474.6,1056.5,1361.2,1837.2,2539.0,1515.3,3481.9,3466.1,3478.3,864.6,1145.4,1978.6,1528.3,1391.2,923.7,0.0,-43.0,-41.0,9441.0,-11962.0,5739.0,1808.0,245.0,-257.0,-191.0,13.0,-36.0,-39.0,7664.0,-14339.0,1816.0,893.0,469.0,-122.0,-66.0,1.0
2022-05-13 14:34:11.207667-07:00,1312.4,781.9,1660.6,1520.8,1040.9,1024.5,2240.4,1813.9,3462.5,3473.4,1649.2,1340.4,1942.0,3469.8,1991.5,1668.2,3478.3,3472.2,1056.5,1361.2,1836.2,2528.3,1515.3,3481.9,3473.4,3478.3,864.6,1145.4,1998.5,1495.8,1391.2,923.7,64.0,22.0,37.0,9585.0,-11873.0,5692.0,1789.0,350.0,-73.0,25.0,17.0,44.0,11.0,7854.0,-14239.0,1782.0,907.0,433.0,-115.0,-39.0,1.0
2022-05-13 14:34:11.208763-07:00,1299.0,788.6,1660.6,1520.8,1078.2,1020.2,2240.4,1813.9,3474.6,3473.4,1649.2,1340.4,1949.9,3475.9,1991.5,1668.2,3478.3,3472.2,1057.3,1364.8,1836.2,2528.3,1484.7,3486.8,3473.4,3478.3,852.0,1117.4,1998.5,1495.8,1361.2,991.9,7.0,-47.0,61.0,9644.0,-11796.0,5773.0,1722.0,388.0,235.0,129.0,7.0,-64.0,43.0,7973.0,-14176.0,1751.0,914.0,358.0,-77.0,-51.0,1.0
2022-05-13 14:34:11.294352-07:00,1299.0,788.6,1651.1,1496.7,1078.2,1013.3,2200.4,1775.2,3474.6,3473.4,1649.2,1333.2,1949.9,3473.4,1953.9,1655.8,3473.4,3471.0,1060.8,1364.8,1834.3,2531.5,1484.7,3486.8,3488.0,3469.8,847.8,1117.4,1973.7,1470.0,1361.2,991.9,42.0,8.0,30.0,9723.0,-11701.0,5839.0,1700.0,89.0,25.0,160.0,17.0,6.0,-10.0,8110.0,-14099.0,1741.0,916.0,206.0,-64.0,21.0,1.0
2022-05-13 14:34:11.338986-07:00,1291.8,777.8,1620.9,1496.7,1046.1,1013.3,2200.4,1775.2,3472.2,3467.4,1636.9,1333.2,1930.2,3473.4,1953.9,1655.8,3473.4,3471.0,1060.8,1349.4,1834.3,2528.3,1466.3,3486.8,3488.0,3469.8,847.8,1110.4,1973.7,1466.3,1348.5,984.2,8.0,-9.0,32.0,9690.0,-11690.0,5923.0,1677.0,69.0,135.0,82.0,20.0,-37.0,52.0,8097.0,-14105.0,1742.0,939.0,-16.0,-1.0,27.0,1.0
2022-05-13 14:34:11.382875-07:00,1291.8,777.8,1620.9,1475.5,1046.1,1005.6,2163.6,1736.8,3472.2,3467.4,1636.9,1323.2,1930.2,3462.5,1935.1,1650.2,3469.8,3473.4,1039.2,1349.4,1813.9,2528.3,1466.3,3486.8,3475.9,3467.4,841.1,1110.4,1977.6,1466.3,1348.5,984.2,35.0,-28.0,15.0,9719.0,-11649.0,5958.0,1669.0,120.0,63.0,112.0,1.0,12.0,-29.0,8144.0,-14077.0,1763.0,929.0,153.0,29.0,36.0,1.0
2022-05-13 14:34:11.384335-07:00,1289.1,791.0,1602.1,1475.5,1036.6,1005.6,2163.6,1736.8,3461.3,3461.3,1634.1,1323.2,1908.5,3462.5,1935.1,1650.2,3469.8,3473.4,1039.2,1354.9,1813.9,2526.1,1460.8,3489.2,3475.9,3467.4,841.1,1097.3,1977.6,1450.6,1342.2,977.3,-1.0,-37.0,-20.0,9721.0,-11618.0,6013.0,1671.0,82.0,-42.0,116.0,15.0,-27.0,12.0,8161.0,-14063.0,1784.0,933.0,67.0,-6.0,55.0,1.0
2022-05-13 14:34:11.427724-07:00,1289.1,791.0,1602.1,1470.0,1036.6,1008.2,2143.3,1729.1,3461.3,3461.3,1634.1,1323.2,1908.5,3463.7,1916.4,1650.2,3469.8,3466.1,1051.3,1354.9,1823.6,2526.1,1460.8,3489.2,3471.0,3467.4,840.3,1097.3,1959.8,1450.6,1342.2,977.3,45.0,28.0,15.0,9787.0,-11539.0,6054.0,1684.0,198.0,35.0,158.0,7.0,24.0,-3.0,8250.0,-14008.0,1808.0,935.0,244.0,-13.0,40.0,1.0
2022-05-13 14:34:11.561898-07:00,1290.0,786.1,1593.6,1470.0,1026.3,1008.2,2143.3,1729.1,3472.2,3456.4,1631.3,1323.2,1894.8,3463.7,1916.4,1650.2,3469.8,3466.1,1051.3,1354.9,1823.6,2521.8,1444.2,3491.7,3471.0,3467.4,840.3,1096.4,1959.8,1453.4,1336.8,975.6,17.0,-21.0,9.0,9780.0,-11526.0,6088.0,1696.0,-76.0,-1.0,49.0,11.0,-20.0,9.0,8263.0,-14000.0,1808.0,942.0,-68.0,-21.0,-4.0,1.0
2022-05-13 14:34:11.563951-07:00,1290.0,786.1,1593.6,1461.7,1014.2,1004.8,2135.1,1713.8,3472.2,3456.4,1631.3,1316.9,1891.8,3464.9,1918.3,1632.2,3479.5,3478.3,1048.7,1348.5,1825.5,2521.8,1444.2,3491.7,3478.3,3480.7,824.4,1091.2,1959.8,1453.4,1336.8,975.6,91.0,-129.0,92.0,9814.0,-11455.0,6174.0,1669.0,545.0,326.0,282.0,7.0,-19.0,-25.0,8309.0,-13972.0,1813.0,939.0,300.0,10.0,25.0,1.0
2022-05-13 14:34:11.606749-07:00,1293.6,785.2,1594.6,1468.1,1014.2,1004.8,2135.1,1713.8,3468.6,3469.8,1637.9,1330.5,1891.8,3464.9,1918.3,1632.2,3479.5,3478.3,1048.7,1348.5,1821.6,2519.7,1447.9,3497.8,3478.3,3480.7,824.4,1091.2,1937.1,1460.8,1343.1,962.8,9.0,64.0,-23.0,9917.0,-11282.0,6358.0,1542.0,242.0,154.0,180.0,31.0,4.0,19.0,8411.0,-13909.0,1836.0,929.0,104.0,6.0,42.0,1.0
2022-05-13 14:34:11.652420-07:00,1293.6,785.2,1594.6,1468.1,1015.9,1000.5,2122.0,1697.6,3468.6,3469.8,1637.9,1330.5,1907.5,3467.4,1935.1,1630.3,3479.5,3473.4,1047.8,1349.4,1821.6,2519.7,1447.9,3497.8,3479.5,3475.9,839.4,1110.4,1937.1,1460.8,1343.1,962.8,55.0,-75.0,11.0,9930.0,-11207.0,6487.0,1463.0,316.0,363.0,250.0,4.0,-35.0,8.0,8430.0,-13897.0,1845.0,925.0,82.0,30.0,16.0,1.0
2022-05-13 14:34:11.697319-07:00,1291.8,784.4,1634.1,1462.6,1015.9,1000.5,2122.0,1697.6,3462.5,3467.4,1733.9,1340.4,1907.5,3467.4,1935.1,1630.3,3479.5,3473.4,1047.8,1349.4,1819.7,2512.2,1495.8,3488.0,3479.5,3475.9,839.4,1110.4,1928.2,1545.0,1376.6,965.4,11.0,-91.0,-53.0,9969.0,-11131.0,6560.0,1455.0,94.0,-115.0,126.0,18.0,-65.0,-3.0,8436.0,-13889.0,1866.0,930.0,64.0,-23.0,60.0,1.0
2022-05-13 14:34:11.742398-07:00,1291.8,784.4,1634.1,1462.6,1005.6,998.7,2118.9,1687.2,3462.5,3467.4,1733.9,1340.4,1934.1,3462.5,2008.4,1631.3,3473.4,3463.7,1042.6,1336.8,1819.7,2512.2,1495.8,3488.0,3473.4,3478.3,836.1,1105.1,1928.2,1545.0,1376.6,965.4,36.0,35.0,-33.0,9909.0,-11156.0,6591.0,1528.0,-567.0,-52.0,101.0,22.0,81.0,109.0,8498.0,-13849.0,1881.0,944.0,-13.0,-5.0,24.0,1.0
2022-05-13 14:34:11.787613-07:00,1290.9,785.2,1600.2,1464.4,1005.6,998.7,2118.9,1661.5,3464.9,3471.0,1997.5,1506.9,1934.1,3462.5,2008.4,1556.2,3473.4,3463.7,1042.6,1336.8,1837.2,2521.8,1953.9,3492.9,3478.3,3478.3,836.1,1105.1,1907.5,1607.7,1436.9,962.0,88.0,-81.0,111.0,9888.0,-11234.0,6467.0,1623.0,456.0,-19.0,-43.0,16.0,-23.0,-16.0,8368.0,-13929.0,1860.0,965.0,170.0,-46.0,-3.0,1.0
2022-05-13 14:34:11.832784-07:00,1283.7,785.2,1600.2,1464.4,1001.3,1002.2,2185.0,1661.5,3468.6,3471.0,1997.5,1506.9,1932.1,3472.2,1944.0,1556.2,3473.4,3469.8,1045.2,1351.2,1837.2,2521.8,1953.9,3489.2,3478.3,3474.6,825.2,1077.3,1907.5,1607.7,1436.9,947.5,20.0,50.0,-10.0,10025.0,-11132.0,6435.0,1612.0,157.0,-322.0,-106.0,2.0,-24.0,57.0,8430.0,-13893.0,1857.0,959.0,-20.0,14.0,-39.0,1.0
2022-05-13 14:34:11.878861-07:00,1283.7,780.3,1597.4,1458.0,1001.3,1002.2,2185.0,1691.0,3468.6,3468.6,1729.1,1279.2,1932.1,3472.2,1944.0,1536.6,3469.8,3469.8,1045.2,1351.2,1811.9,2530.4,1953.9,3489.2,3472.2,3474.6,825.2,1077.3,1881.1,1572.1,1450.6,947.5,101.0,-125.0,6.0,10103.0,-11142.0,6263.0,1734.0,25.0,-407.0,2.0,10.0,-10.0,-69.0,8442.0,-13886.0,1855.0,945.0,98.0,-15.0,18.0,1.0
2022-05-13 14:34:11.967337-07:00,1279.2,780.3,1597.4,1458.0,995.3,996.2,2299.3,1691.0,3474.6,3468.6,1729.1,1279.2,1886.9,3469.8,2032.4,1536.6,3469.8,3473.4,1057.3,1370.3,1811.9,2530.4,1953.9,3497.8,3472.2,3472.2,812.7,1029.7,1881.1,1572.1,1450.6,943.2,29.0,31.0,-32.0,10150.0,-11117.0,6204.0,1821.0,-80.0,-330.0,5.0,22.0,-6.0,24.0,8451.0,-13880.0,1859.0,952.0,-69.0,-1.0,12.0,1.0
2022-05-13 14:34:12.012334-07:00,1279.2,774.5,1577.7,1471.8,995.3,996.2,2299.3,1749.3,3474.6,3467.4,1415.8,1189.4,1886.9,3469.8,2032.4,1504.1,3471.0,3473.4,1057.3,1370.3,1806.1,2542.2,1904.6,3497.8,3479.5,3472.2,812.7,1029.7,1869.3,1501.4,1428.6,943.2,68.0,-5.0,75.0,10205.0,-11126.0,6086.0,1866.0,73.0,-182.0,-130.0,8.0,26.0,5.0,8409.0,-13906.0,1852.0,960.0,-163.0,-3.0,-3.0,1.0
2022-05-13 14:34:12.146873-07:00,1319.6,776.1,1577.7,1471.8,985.0,988.5,2353.5,1749.3,3457.6,3463.7,1415.8,1189.4,1856.7,3473.4,2072.5,1504.1,3471.0,3475.9,1052.2,1342.2,1806.1,2542.2,1917.4,3486.8,3479.5,3484.4,809.4,1033.2,1869.3,1501.4,1481.0,932.2,52.0,-30.0,-20.0,10254.0,-11110.0,6031.0,1868.0,145.0,-20.0,-32.0,7.0,-14.0,-2.0,8369.0,-13931.0,1855.0,947.0,6.0,59.0,-18.0,1.0
2022-05-13 14:34:12.148921-07:00,1319.6,776.1,1650.2,1433.2,985.0,988.5,2300.4,1745.4,3457.6,3463.7,1348.5,1164.7,1856.7,3473.4,1958.8,1489.3,3475.9,3478.3,1052.2,1342.2,1813.9,2554.0,1917.4,3486.8,3477.1,3478.3,809.4,1033.2,1864.5,1482.9,1481.0,932.2,7.0,-13.0,23.0,10236.0,-11122.0,6057.0,1806.0,19.0,130.0,-109.0,22.0,-38.0,29.0,8331.0,-13954.0,1855.0,941.0,-136.0,6.0,17.0,1.0
2022-05-13 14:34:12.150419-07:00,1354.9,776.1,1650.2,1433.2,987.6,1004.8,2300.4,1745.4,3457.6,3467.4,1348.5,1164.7,1842.0,3462.5,1958.8,1489.3,3475.9,3478.3,1047.8,1362.1,1813.9,2554.0,1888.9,3492.9,3477.1,3478.3,825.2,1081.6,1864.5,1482.9,1454.3,929.6,29.0,19.0,126.0,10222.0,-11121.0,6105.0,1733.0,42.0,481.0,61.0,18.0,4.0,67.0,8262.0,-13996.0,1856.0,928.0,-358.0,117.0,-27.0,1.0
2022-05-13 14:34:12.281927-07:00,1354.9,776.1,1665.3,1360.3,987.6,1004.8,2289.0,1739.7,3457.6,3467.4,1319.6,1147.1,1842.0,3462.5,1859.6,1451.6,3474.6,3479.5,1047.8,1362.1,1821.6,2558.3,1888.9,3492.9,3468.6,3472.2,825.2,1081.6,1874.2,1407.6,1454.3,929.6,27.0,13.0,-18.0,10240.0,-11082.0,6163.0,1670.0,215.0,45.0,60.0,5.0,28.0,-18.0,8226.0,-14016.0,1875.0,901.0,9.0,103.0,18.0,1.0
2022-05-13 14:34:12.284178-07:00,1363.9,802.7,1665.3,1360.3,984.2,1001.3,2289.0,1739.7,3473.4,3463.7,1319.6,1147.1,1824.6,3475.9,1859.6,1451.6,3474.6,3479.5,1050.4,1344.9,1821.6,2558.3,1838.2,3489.2,3468.6,3472.2,806.9,1088.6,1874.2,1407.6,1274.7,922.0,9.0,63.0,-1.0,10242.0,-11047.0,6220.0,1675.0,-75.0,68.0,82.0,9.0,3.0,15.0,8174.0,-14046.0,1890.0,877.0,-329.0,84.0,-34.0,1.0
2022-05-13 14:34:12.285514-07:00,1363.9,802.7,1519.0,1260.4,984.2,1001.3,2219.8,1598.3,3473.4,3463.7,1311.5,1141.0,1824.6,3475.9,1683.3,1404.0,3467.4,3478.3,1050.4,1344.9,1838.2,2548.7,1838.2,3489.2,3460.1,3477.1,806.9,1088.6,1872.3,1302.5,1274.7,922.0,16.0,16.0,41.0,10183.0,-11110.0,6196.0,1709.0,-190.0,5.0,-38.0,13.0,-30.0,30.0,8034.0,-14130.0,1877.0,848.0,-345.0,117.0,-75.0,1.0
2022-05-13 14:34:12.373199-07:00,1371.2,800.2,1348.5,1260.4,978.2,985.9,2219.8,1598.3,3473.4,3466.1,1316.0,1141.0,1811.9,3473.4,1683.3,1404.0,3467.4,3478.3,1049.6,1357.6,1838.2,2562.6,1849.8,3490.5,3460.1,3477.1,801.9,1146.3,1872.3,1248.8,1200.9,926.2,-8.0,0.0,12.0,10123.0,-11166.0,6192.0,1714.0,-172.0,121.0,-16.0,13.0,-25.0,8.0,7933.0,-14191.0,1860.0,801.0,-395.0,115.0,-75.0,1.0
2022-05-13 14:34:12.417379-07:00,1371.2,800.2,1348.5,1184.1,978.2,978.2,2126.0,1507.8,3473.4,3466.1,1316.0,1144.5,1811.9,3475.9,1605.8,1388.5,3483.2,3466.1,1045.2,1357.6,1848.9,2562.6,1849.8,3490.5,3467.4,3473.4,790.2,1146.3,1855.7,1248.8,1200.9,926.2,14.0,0.0,41.0,10098.0,-11221.0,6132.0,1719.0,-110.0,-133.0,-162.0,14.0,2.0,2.0,7801.0,-14268.0,1851.0,756.0,-263.0,121.0,-62.0,1.0
2022-05-13 14:34:12.465454-07:00,1367.6,793.5,1274.7,1184.1,983.3,978.2,2126.0,1507.8,3467.4,3450.4,1357.6,1144.5,1814.9,3475.9,1605.8,1388.5,3483.2,3466.1,1045.2,1361.2,1848.9,2558.3,1810.0,3491.7,3467.4,3473.4,790.2,1283.7,1855.7,1227.5,1164.7,925.4,-4.0,-8.0,8.0,10023.0,-11314.0,6069.0,1771.0,-403.0,-181.0,-81.0,9.0,-27.0,-4.0,7652.0,-14352.0,1843.0,714.0,-409.0,126.0,-72.0,1.0
2022-05-13 14:34:12.507364-07:00,1367.6,793.5,1274.7,1161.2,983.3,1048.7,2059.4,1441.5,3467.4,3450.4,1357.6,1164.7,1814.9,3466.1,1579.6,1373.0,3468.6,3463.7,1029.7,1361.2,1883.0,2558.3,1810.0,3491.7,3464.9,3467.4,771.1,1283.7,1854.7,1227.5,1164.7,925.4,-12.0,37.0,-40.0,9947.0,-11424.0,5966.0,1841.0,-418.0,-75.0,-143.0,10.0,35.0,8.0,7511.0,-14429.0,1837.0,672.0,-410.0,102.0,-58.0,1.0
2022-05-13 14:34:12.552431-07:00,1325.9,805.2,1239.1,1161.2,965.4,1048.7,2059.4,1441.5,3464.9,3463.7,1490.3,1164.7,1800.3,3466.1,1579.6,1373.0,3468.6,3463.7,1029.7,1358.5,1883.0,2575.6,1769.5,3485.6,3464.9,3467.4,771.1,1348.5,1854.7,1206.2,1141.9,918.6,18.0,-107.0,76.0,9830.0,-11547.0,5897.0,1922.0,-129.0,9.0,-61.0,10.0,-50.0,-6.0,7354.0,-14512.0,1825.0,655.0,-203.0,43.0,-10.0,1.0
2022-05-13 14:34:12.596846-07:00,1325.9,805.2,1239.1,1134.0,959.4,1113.0,2018.4,1423.1,3464.9,3463.7,1490.3,1230.2,1803.2,3468.6,1683.3,1378.5,3467.4,3467.4,1046.1,1369.4,1885.0,2575.6,1769.5,3485.6,3478.3,3467.4,771.1,1307.0,1825.5,1206.2,1141.9,918.6,-31.0,75.0,-105.0,10000.0,-11342.0,6061.0,1749.0,628.0,374.0,248.0,28.0,-15.0,-9.0,7364.0,-14506.0,1839.0,642.0,77.0,45.0,50.0,1.0
2022-05-13 14:34:12.641757-07:00,1295.4,796.0,1201.8,1109.5,959.4,1113.0,2018.4,1423.1,3477.1,3472.2,1602.1,1295.4,1803.2,3468.6,1683.3,1378.5,3467.4,3467.4,1046.1,1369.4,1866.4,2540.1,1742.6,3495.3,3478.3,3467.4,771.1,1307.0,1814.9,1263.1,1163.0,919.4,-3.0,-112.0,6.0,9870.0,-11422.0,6121.0,1760.0,-369.0,279.0,35.0,-19.0,-29.0,12.0,7330.0,-14521.0,1848.0,647.0,-58.0,-32.0,34.0,1.0
2022-05-13 14:34:12.822071-07:00,1295.4,796.0,1201.8,1109.5,968.8,1127.9,1975.6,1393.9,3477.1,3472.2,1602.1,1295.4,2003.5,3473.4,2075.5,1481.9,3472.2,3467.4,1047.8,1365.7,1866.4,2540.1,1742.6,3495.3,3471.0,3473.4,772.8,1311.5,1814.9,1263.1,1163.0,919.4,-47.0,89.0,-20.0,9790.0,-11439.0,6240.0,1674.0,-479.0,228.0,-21.0,9.0,24.0,75.0,7399.0,-14484.0,1865.0,661.0,81.0,-7.0,93.0,1.0
