Time,P0,P1,P2,P3,P4,P5,P6,P7,P8,P9,P10,P11,P12,P13,P14,P15,P16,P17,P18,P19,P20,P21,P22,P23,P24,P25,P26,P27,P28,P29,P30,P31,ECG,AX0,AY0,AZ0,QW0,QX0,QY0,QZ0,GX0,GY0,GZ0,AX1,AY1,AZ1,QW1,QX1,QY1,QZ1,GX1,GY1,GZ1
2022-05-13 14:50:01.234637-07:00,1116.5,693.8,1021.9,941.5,754.6,771.1,1618.1,1092.1,3458.9,3468.6,1079.9,892.4,1549.7,3467.4,1216.8,1138.4,3467.4,3471.0,1067.7,1281.0,1868.4,2465.3,1112.1,3497.8,3458.9,3467.4,644.9,716.7,1507.8,933.0,867.1,747.2,9.0,-1.0,-13.0,9622.0,-8703.0,8959.0,-4455.0,-15.0,3.0,11.0,9.0,4.0,-10.0,7740.0,-14405.0,231.0,984.0,-17.0,4.0,3.0,1.0
2022-05-13 14:50:01.281759-07:00,1116.5,693.8,1021.9,944.1,754.6,776.9,1604.0,1103.4,3458.9,3468.6,1079.9,893.2,1549.7,3469.8,1221.3,1141.0,3479.5,3467.4,1062.5,1281.0,1877.2,2465.3,1112.1,3497.8,3473.4,3478.3,644.0,716.7,1515.3,933.0,867.1,747.2,2.0,0.0,-13.0,9620.0,-8705.0,8960.0,-4452.0,6.0,2.0,-7.0,3.0,1.0,-5.0,7739.0,-14405.0,231.0,984.0,4.0,2.0,-1.0,1.0
2022-05-13 14:50:01.327241-07:00,1117.4,704.4,1022.8,944.1,762.0,776.9,1604.0,1103.4,3464.9,3464.9,1082.5,893.2,1535.7,3469.8,1221.3,1141.0,3479.5,3467.4,1062.5,1286.4,1877.2,2474.9,1113.0,3484.4,3473.4,3478.3,644.0,720.8,1515.3,931.3,861.2,744.7,0.0,0.0,-8.0,9620.0,-8705.0,8960.0,-4452.0,6.0,3.0,-6.0,-1.0,5.0,-8.0,7739.0,-14405.0,231.0,984.0,2.0,3.0,-1.0,1.0
2022-05-13 14:50:01.370121-07:00,1117.4,704.4,1022.8,944.1,762.0,772.0,1604.9,1109.5,3464.9,3464.9,1082.5,888.2,1535.7,3472.2,1216.8,1143.6,3477.1,3462.5,1064.3,1286.4,1876.2,2474.9,1113.0,3484.4,3471.0,3466.1,649.7,720.8,1493.0,931.3,861.2,744.7,8.0,0.0,-12.0,9620.0,-8705.0,8961.0,-4451.0,-11.0,1.0,10.0,3.0,5.0,-10.0,7739.0,-14405.0,231.0,984.0,-5.0,1.0,4.0,1.0
2022-05-13 14:50:01.417063-07:00,1121.7,710.1,1017.6,944.1,755.4,772.0,1604.9,1109.5,3467.4,3466.1,1071.2,888.2,1539.4,3472.2,1216.8,1143.6,3477.1,3462.5,1064.3,1277.4,1876.2,2451.5,1118.2,3488.0,3471.0,3466.1,649.7,710.1,1493.0,936.4,873.8,740.6,3.0,-4.0,-17.0,9620.0,-8705.0,8962.0,-4450.0,4.0,-8.0,-2.0,5.0,2.0,-9.0,7739.0,-14405.0,231.0,984.0,1.0,-2.0,-1.0,1.0
2022-05-13 14:50:01.462339-07:00,1121.7,710.1,1017.6,939.8,760.4,770.3,1625.6,1112.1,3467.4,3466.1,1071.2,895.7,1536.6,3467.4,1209.7,1148.0,3464.9,3474.6,1063.4,1280.1,1878.1,2451.5,1118.2,3488.0,3477.1,3466.1,641.6,713.4,1507.8,936.4,873.8,740.6,1.0,-3.0,-13.0,9623.0,-8706.0,8959.0,-4447.0,-2.0,-13.0,8.0,1.0,1.0,-6.0,7740.0,-14405.0,231.0,984.0,4.0,-4.0,-1.0,1.0
2022-05-13 14:50:01.549655-07:00,1113.0,709.3,1020.2,947.5,760.4,770.3,1625.6,1112.1,3475.9,3478.3,1077.3,887.3,1536.6,3467.4,1209.7,1148.0,3464.9,3474.6,1063.4,1280.1,1871.3,2470.6,1113.9,3485.6,3477.1,3466.1,641.6,713.4,1496.7,928.8,865.4,747.2,2.0,4.0,-7.0,9625.0,-8707.0,8956.0,-4445.0,3.0,-2.0,0.0,2.0,4.0,-2.0,7740.0,-14405.0,231.0,984.0,0.0,-2.0,0.0,1.0
2022-05-13 14:50:01.594488-07:00,1113.0,709.3,1020.2,947.5,757.9,780.3,1604.0,1105.1,3475.9,3478.3,1077.3,887.3,1530.1,3462.5,1228.4,1138.4,3472.2,3483.2,1068.6,1286.4,1871.3,2470.6,1113.9,3485.6,3467.4,3480.7,635.9,716.7,1496.7,928.8,865.4,747.2,5.0,-7.0,-15.0,9624.0,-8708.0,8957.0,-4444.0,-20.0,-1.0,6.0,1.0,5.0,-11.0,7736.0,-14407.0,231.0,984.0,-19.0,7.0,5.0,1.0
2022-05-13 14:50:01.641728-07:00,1123.5,704.4,1015.1,932.2,757.9,780.3,1604.0,1105.1,3464.9,3467.4,1079.0,892.4,1530.1,3462.5,1228.4,1138.4,3472.2,3483.2,1068.6,1286.4,1864.5,2469.5,1112.1,3492.9,3467.4,3480.7,635.9,716.7,1504.1,941.5,868.8,752.1,9.0,4.0,-15.0,9623.0,-8708.0,8961.0,-4438.0,-1.0,-4.0,5.0,7.0,6.0,-8.0,7735.0,-14408.0,231.0,984.0,3.0,-2.0,0.0,1.0
2022-05-13 14:50:01.684844-07:00,1123.5,704.4,1015.1,932.2,760.4,772.0,1619.9,1098.2,3464.9,3467.4,1079.0,892.4,1532.9,3468.6,1221.3,1144.5,3471.0,3468.6,1065.1,1282.8,1864.5,2469.5,1112.1,3492.9,3469.8,3472.2,643.2,716.7,1504.1,941.5,868.8,752.1,2.0,-4.0,-12.0,9626.0,-8709.0,8958.0,-4435.0,-4.0,-18.0,5.0,3.0,2.0,-9.0,7735.0,-14408.0,231.0,984.0,1.0,-7.0,-1.0,1.0
2022-05-13 14:50:01.729805-07:00,1116.5,715.1,1021.1,934.7,760.4,772.0,1619.9,1098.2,3467.4,3466.1,1079.0,884.8,1532.9,3468.6,1221.3,1144.5,3471.0,3468.6,1065.1,1282.8,1868.4,2470.6,1115.6,3492.9,3469.8,3472.2,643.2,716.7,1491.2,932.2,871.3,743.9,0.0,3.0,-9.0,9630.0,-8710.0,8955.0,-4431.0,2.0,-8.0,5.0,-3.0,4.0,-3.0,7735.0,-14408.0,231.0,984.0,-2.0,-4.0,0.0,1.0
2022-05-13 14:50:01.821580-07:00,1125.2,715.1,1021.1,934.7,751.3,769.5,1619.0,1106.0,3471.0,3466.1,1079.0,884.8,1532.0,3471.0,1229.3,1141.0,3464.9,3475.9,1070.3,1280.1,1868.4,2470.6,1115.6,3490.5,3473.4,3471.0,642.4,711.8,1491.2,932.2,871.3,740.6,2.0,0.0,-13.0,9630.0,-8710.0,8955.0,-4431.0,-9.0,3.0,3.0,2.0,4.0,-6.0,7735.0,-14408.0,231.0,984.0,-8.0,1.0,1.0,1.0
2022-05-13 14:50:01.823082-07:00,1125.2,712.6,1011.6,927.9,751.3,769.5,1619.0,1105.1,3471.0,3468.6,1072.1,891.5,1532.0,3471.0,1229.3,1148.0,3477.1,3475.9,1070.3,1280.1,1881.1,2474.9,1113.9,3490.5,3473.4,3471.0,642.4,711.8,1499.5,927.1,863.7,740.6,2.0,-3.0,-16.0,9630.0,-8710.0,8955.0,-4431.0,7.0,-6.0,1.0,5.0,3.0,-13.0,7735.0,-14408.0,231.0,984.0,5.0,-3.0,1.0,1.0
2022-05-13 14:50:01.865123-07:00,1111.2,712.6,1011.6,927.9,764.5,773.6,1618.1,1105.1,3469.8,3468.6,1072.1,891.5,1531.0,3466.1,1222.2,1148.0,3477.1,3469.8,1066.0,1281.9,1881.1,2474.9,1113.9,3495.3,3473.4,3467.4,640.0,713.4,1499.5,927.1,863.7,741.4,3.0,1.0,-17.0,9631.0,-8710.0,8955.0,-4431.0,7.0,-7.0,0.0,4.0,8.0,-5.0,7736.0,-14407.0,231.0,984.0,4.0,0.0,-3.0,1.0
2022-05-13 14:50:01.956383-07:00,1111.2,701.1,1023.7,942.4,764.5,773.6,1618.1,1101.7,3469.8,3469.8,1079.0,884.8,1531.0,3466.1,1222.2,1144.5,3469.8,3469.8,1066.0,1281.9,1881.1,2474.9,1114.7,3495.3,3473.4,3467.4,640.0,713.4,1482.9,933.9,869.6,741.4,0.0,-2.0,-9.0,9632.0,-8710.0,8954.0,-4430.0,4.0,7.0,5.0,2.0,1.0,-7.0,7736.0,-14407.0,231.0,984.0,1.0,-2.0,3.0,1.0
2022-05-13 14:50:01.957860-07:00,1114.7,701.1,1023.7,942.4,756.3,773.6,1615.2,1101.7,3456.4,3469.8,1079.0,884.8,1537.6,3467.4,1223.9,1144.5,3469.8,3475.9,1066.0,1287.3,1881.1,2474.9,1114.7,3484.4,3473.4,3473.4,647.3,712.6,1482.9,933.9,869.6,747.2,4.0,-4.0,-13.0,9632.0,-8710.0,8954.0,-4430.0,-1.0,6.0,-1.0,3.0,5.0,-12.0,7736.0,-14407.0,231.0,984.0,-1.0,0.0,4.0,1.0
2022-05-13 14:50:02.043992-07:00,1114.7,718.4,1019.4,968.8,756.3,773.6,1610.5,1103.4,3456.4,3468.6,1079.0,883.1,1537.6,3467.4,1231.9,1143.6,3457.6,3471.0,1066.0,1287.3,1873.2,2471.7,1109.5,3484.4,3468.6,3478.3,647.3,712.6,1496.7,939.8,864.6,747.2,3.0,-2.0,-15.0,9632.0,-8710.0,8954.0,-4430.0,1.0,-6.0,3.0,4.0,1.0,-11.0,7736.0,-14407.0,231.0,984.0,8.0,-4.0,1.0,1.0
2022-05-13 14:50:02.136241-07:00,1120.9,716.7,1019.4,968.8,757.1,776.1,1610.5,1103.4,3466.1,3472.2,1079.0,883.1,1538.5,3463.7,1231.9,1143.6,3457.6,3471.0,1070.3,1280.1,1873.2,2471.7,1111.2,3489.2,3468.6,3478.3,645.7,714.2,1496.7,939.8,862.9,743.0,0.0,-2.0,-11.0,9632.0,-8710.0,8954.0,-4430.0,7.0,-9.0,-6.0,0.0,3.0,-7.0,7736.0,-14407.0,231.0,984.0,5.0,-3.0,0.0,1.0
2022-05-13 14:50:02.137803-07:00,1120.9,716.7,1017.6,939.0,757.1,776.1,1611.5,1105.1,3466.1,3472.2,1076.4,892.4,1538.5,3463.7,1225.7,1145.4,3471.0,3473.4,1070.3,1280.1,1872.3,2468.5,1111.2,3489.2,3457.6,3477.1,645.7,714.2,1492.1,933.0,862.9,743.0,5.0,0.0,-12.0,9633.0,-8711.0,8953.0,-4429.0,-7.0,0.0,7.0,2.0,6.0,-9.0,7736.0,-14407.0,231.0,984.0,-5.0,-3.0,1.0,1.0
2022-05-13 14:50:02.179750-07:00,1115.6,704.4,1017.6,939.0,761.2,769.5,1611.5,1105.1,3471.0,3457.6,1076.4,892.4,1539.4,3478.3,1225.7,1145.4,3471.0,3473.4,1062.5,1289.1,1872.3,2468.5,1114.7,3484.4,3457.6,3477.1,644.0,720.8,1492.1,933.0,864.6,740.6,4.0,1.0,-16.0,9632.0,-8712.0,8952.0,-4430.0,2.0,2.0,-11.0,5.0,3.0,-10.0,7736.0,-14407.0,231.0,984.0,-2.0,3.0,-2.0,1.0
2022-05-13 14:50:02.224628-07:00,1115.6,704.4,1021.9,951.7,761.2,769.5,1617.1,1092.9,3471.0,3457.6,1077.3,890.7,1539.4,3478.3,1223.0,1142.7,3464.9,3474.6,1062.5,1289.1,1874.2,2477.0,1114.7,3484.4,3463.7,3471.0,644.0,720.8,1506.0,933.0,864.6,740.6,3.0,-3.0,-14.0,9632.0,-8712.0,8951.0,-4431.0,7.0,-9.0,3.0,8.0,2.0,-8.0,7736.0,-14407.0,231.0,984.0,8.0,-3.0,-1.0,1.0
2022-05-13 14:50:02.271703-07:00,1122.6,710.1,1009.0,951.7,759.6,767.8,1617.1,1092.9,3464.9,3466.1,1080.8,890.7,1536.6,3463.7,1223.0,1142.7,3464.9,3474.6,1062.5,1287.3,1874.2,2471.7,1120.0,3488.0,3463.7,3471.0,641.6,719.2,1506.0,938.1,864.6,737.3,2.0,0.0,-10.0,9633.0,-8711.0,8952.0,-4430.0,4.0,1.0,3.0,2.0,1.0,-6.0,7736.0,-14407.0,231.0,984.0,4.0,-5.0,2.0,1.0
2022-05-13 14:50:02.314939-07:00,1122.6,710.1,1009.0,932.2,759.6,772.8,1599.3,1094.7,3464.9,3466.1,1080.8,889.8,1536.6,3469.8,1220.4,1135.7,3484.4,3469.8,1070.3,1287.3,1875.2,2471.7,1120.0,3488.0,3478.3,3478.3,645.7,719.2,1499.5,938.1,864.6,737.3,-2.0,-1.0,-14.0,9633.0,-8711.0,8952.0,-4430.0,-3.0,2.0,-3.0,-2.0,3.0,-10.0,7736.0,-14407.0,231.0,984.0,-7.0,1.0,4.0,1.0
2022-05-13 14:50:02.362241-07:00,1115.6,714.2,1015.1,932.2,757.9,772.8,1599.3,1094.7,3471.0,3467.4,1072.9,889.8,1537.6,3469.8,1220.4,1135.7,3484.4,3469.8,1070.3,1282.8,1875.2,2466.4,1106.0,3496.6,3478.3,3478.3,645.7,715.9,1499.5,936.4,870.5,738.9,3.0,0.0,-23.0,9633.0,-8711.0,8952.0,-4430.0,2.0,-3.0,-1.0,3.0,4.0,-10.0,7736.0,-14407.0,231.0,984.0,-2.0,0.0,-2.0,1.0
2022-05-13 14:50:02.451746-07:00,1115.6,714.2,1015.1,937.3,757.9,771.1,1601.1,1105.1,3471.0,3467.4,1072.9,884.8,1537.6,3467.4,1221.3,1146.3,3473.4,3469.8,1069.5,1282.8,1873.2,2466.4,1106.0,3496.6,3474.6,3471.0,640.0,715.9,1501.4,936.4,870.5,738.9,4.0,0.0,-12.0,9635.0,-8713.0,8949.0,-4427.0,0.0,-17.0,3.0,3.0,3.0,-10.0,7736.0,-14407.0,231.0,984.0,0.0,-5.0,-1.0,1.0
2022-05-13 14:50:02.494878-07:00,1120.0,706.0,1018.5,937.3,754.6,771.1,1601.1,1105.1,3471.0,3467.4,1078.2,884.8,1535.7,3467.4,1221.3,1146.3,3473.4,3469.8,1069.5,1281.0,1873.2,2456.8,1113.9,3499.0,3474.6,3471.0,640.0,716.7,1501.4,921.1,877.2,742.2,3.0,-1.0,-8.0,9638.0,-8713.0,8947.0,-4425.0,11.0,-1.0,-10.0,3.0,2.0,-8.0,7737.0,-14407.0,231.0,984.0,10.0,-2.0,-4.0,1.0
2022-05-13 14:50:02.539736-07:00,1120.0,706.0,1018.5,939.8,754.6,772.0,1596.4,1105.1,3471.0,3467.4,1078.2,892.4,1535.7,3463.7,1216.0,1139.2,3481.9,3472.2,1064.3,1281.0,1893.8,2456.8,1113.9,3499.0,3468.6,3467.4,647.3,716.7,1499.5,921.1,877.2,742.2,0.0,-1.0,-12.0,9638.0,-8713.0,8946.0,-4426.0,-8.0,-2.0,7.0,1.0,4.0,-5.0,7738.0,-14406.0,231.0,984.0,-8.0,3.0,3.0,1.0
2022-05-13 14:50:02.584664-07:00,1114.7,706.0,1018.5,940.7,762.0,772.0,1596.4,1105.1,3462.5,3473.4,1070.3,893.2,1536.6,3463.7,1216.0,1139.2,3481.9,3472.2,1064.3,1282.8,1880.1,2473.8,1114.7,3489.2,3468.6,3467.4,647.3,723.3,1503.2,932.2,866.3,745.5,3.0,1.0,-15.0,9638.0,-8713.0,8946.0,-4426.0,12.0,7.0,-10.0,3.0,5.0,-9.0,7738.0,-14406.0,231.0,984.0,12.0,5.0,0.0,1.0
2022-05-13 14:50:02.629771-07:00,1114.7,706.0,1018.5,940.7,759.6,775.3,1601.1,1106.0,3462.5,3473.4,1070.3,893.2,1537.6,3463.7,1220.4,1142.7,3473.4,3474.6,1066.9,1282.8,1880.1,2473.8,1114.7,3489.2,3474.6,3473.4,638.4,715.9,1503.2,932.2,866.3,745.5,1.0,-7.0,-15.0,9638.0,-8713.0,8945.0,-4428.0,-8.0,-11.0,9.0,3.0,1.0,-11.0,7739.0,-14406.0,231.0,984.0,0.0,3.0,0.0,1.0
2022-05-13 14:50:02.677064-07:00,1112.1,702.8,1021.1,944.9,759.6,775.3,1601.1,1106.0,3468.6,3468.6,1073.8,894.1,1537.6,3463.7,1220.4,1142.7,3473.4,3474.6,1066.9,1282.8,1875.2,2473.8,1115.6,3492.9,3474.6,3473.4,638.4,715.9,1498.6,933.0,867.1,736.5,2.0,5.0,-11.0,9642.0,-8714.0,8943.0,-4422.0,9.0,-6.0,-3.0,-1.0,4.0,-8.0,7739.0,-14406.0,231.0,984.0,5.0,-4.0,-1.0,1.0
2022-05-13 14:50:02.719818-07:00,1112.1,702.8,1021.1,944.9,756.3,763.7,1611.5,1099.0,3468.6,3468.6,1073.8,894.1,1534.8,3463.7,1216.0,1142.7,3480.7,3475.9,1066.0,1281.0,1875.2,2473.8,1115.6,3492.9,3477.1,3475.9,654.6,715.9,1498.6,933.0,867.1,736.5,0.0,-1.0,-19.0,9644.0,-8713.0,8939.0,-4428.0,-7.0,-4.0,-9.0,1.0,6.0,-11.0,7742.0,-14404.0,231.0,984.0,-12.0,4.0,-2.0,1.0
2022-05-13 14:50:02.811679-07:00,1109.5,711.0,1007.3,939.8,756.3,763.7,1611.5,1099.0,3466.1,3464.9,1080.8,889.8,1534.8,3463.7,1216.0,1142.7,3480.7,3475.9,1066.0,1281.0,1870.3,2451.5,1115.6,3490.5,3477.1,3475.9,654.6,715.9,1500.4,921.1,866.3,737.3,8.0,3.0,-20.0,9643.0,-8714.0,8940.0,-4427.0,4.0,1.0,4.0,10.0,5.0,-11.0,7738.0,-14406.0,231.0,984.0,3.0,0.0,0.0,1.0
2022-05-13 14:50:02.812830-07:00,1115.6,711.0,1007.3,939.8,759.6,776.9,1616.2,1102.5,3472.2,3464.9,1080.8,889.8,1539.4,3466.1,1219.5,1134.0,3467.4,3468.6,1064.3,1281.9,1870.3,2451.5,1115.6,3481.9,3464.9,3474.6,643.2,710.1,1500.4,921.1,866.3,742.2,6.0,-4.0,-15.0,9644.0,-8717.0,8936.0,-4426.0,5.0,-18.0,-9.0,5.0,0.0,-9.0,7738.0,-14406.0,231.0,984.0,7.0,-1.0,-6.0,1.0
2022-05-13 14:50:02.856605-07:00,1115.6,707.7,1014.2,946.6,759.6,776.9,1616.2,1098.2,3472.2,3471.0,1084.2,885.6,1539.4,3466.1,1219.5,1144.5,3477.1,3468.6,1064.3,1281.9,1868.4,2463.2,1111.2,3481.9,3475.9,3474.6,643.2,710.1,1494.0,925.4,872.1,742.2,-1.0,-1.0,-8.0,9649.0,-8719.0,8932.0,-4422.0,-6.0,-11.0,13.0,0.0,1.0,-5.0,7741.0,-14405.0,231.0,984.0,6.0,-2.0,0.0,1.0
2022-05-13 14:50:02.944648-07:00,1115.6,707.7,1014.2,946.6,750.5,773.6,1613.4,1098.2,3467.4,3471.0,1084.2,885.6,1533.8,3462.5,1223.9,1144.5,3477.1,3474.6,1065.1,1281.9,1868.4,2463.2,1111.2,3488.0,3475.9,3473.4,636.7,729.0,1494.0,925.4,872.1,742.2,2.0,7.0,-10.0,9647.0,-8719.0,8936.0,-4416.0,-6.0,17.0,-2.0,0.0,8.0,-7.0,7737.0,-14407.0,231.0,984.0,-13.0,1.0,7.0,1.0
2022-05-13 14:50:03.036056-07:00,1115.6,712.6,1014.2,939.8,750.5,773.6,1613.4,1101.7,3467.4,3473.4,1080.8,894.1,1533.8,3462.5,1223.9,1140.1,3469.8,3474.6,1065.1,1281.9,1866.4,2473.8,1110.4,3488.0,3464.9,3473.4,636.7,729.0,1494.0,933.9,867.1,742.2,0.0,-5.0,-29.0,9640.0,-8718.0,8940.0,-4423.0,3.0,13.0,-8.0,2.0,4.0,-15.0,7737.0,-14407.0,231.0,984.0,-9.0,5.0,0.0,1.0
2022-05-13 14:50:03.037503-07:00,1113.9,712.6,1014.2,939.8,757.9,766.2,1600.2,1101.7,3463.7,3473.4,1080.8,894.1,1532.0,3467.4,1222.2,1140.1,3469.8,3468.6,1068.6,1273.9,1866.4,2473.8,1110.4,3489.2,3464.9,3475.9,644.0,721.6,1494.0,933.9,867.1,738.1,9.0,4.0,-18.0,9633.0,-8724.0,8946.0,-4416.0,2.0,-19.0,7.0,5.0,9.0,-10.0,7733.0,-14409.0,231.0,984.0,5.0,-4.0,-3.0,1.0
2022-05-13 14:50:03.079812-07:00,1113.9,711.0,1016.8,936.4,757.9,766.2,1610.5,1097.3,3463.7,3469.8,1074.7,890.7,1532.0,3467.4,1223.0,1132.2,3472.2,3473.4,1068.6,1273.9,1875.2,2473.8,1115.6,3489.2,3474.6,3469.8,644.0,721.6,1502.3,929.6,873.8,738.1,0.0,-7.0,-9.0,9634.0,-8728.0,8939.0,-4418.0,13.0,-7.0,-19.0,2.0,3.0,-5.0,7738.0,-14406.0,229.0,983.0,10.0,-4.0,-8.0,1.0
2022-05-13 14:50:03.124595-07:00,1104.3,707.7,1016.8,936.4,759.6,764.5,1610.5,1097.3,3461.3,3462.5,1074.7,890.7,1532.9,3464.9,1223.0,1132.2,3472.2,3473.4,1062.5,1284.6,1875.2,2473.8,1111.2,3488.0,3474.6,3469.8,640.0,715.9,1502.3,929.6,870.5,743.0,4.0,0.0,-6.0,9633.0,-8732.0,8938.0,-4417.0,-12.0,-4.0,8.0,3.0,4.0,-8.0,7737.0,-14407.0,229.0,983.0,-8.0,2.0,2.0,1.0
2022-05-13 14:50:03.169667-07:00,1104.3,707.7,1018.5,934.7,759.6,764.5,1596.4,1088.6,3461.3,3462.5,1076.4,892.4,1532.9,3464.9,1224.8,1138.4,3468.6,3479.5,1062.5,1284.6,1873.2,2471.7,1111.2,3488.0,3466.1,3467.4,640.0,715.9,1501.4,934.7,870.5,743.0,1.0,-4.0,-18.0,9632.0,-8733.0,8937.0,-4419.0,19.0,11.0,-22.0,2.0,6.0,-10.0,7740.0,-14405.0,229.0,983.0,11.0,3.0,-3.0,1.0
2022-05-13 14:50:03.215044-07:00,1118.2,708.5,1018.5,934.7,754.6,773.6,1596.4,1088.6,3472.2,3468.6,1076.4,892.4,1532.9,3462.5,1224.8,1138.4,3468.6,3479.5,1059.1,1278.3,1873.2,2471.7,1113.9,3488.0,3466.1,3467.4,644.0,715.9,1501.4,934.7,868.8,741.4,3.0,-3.0,-19.0,9629.0,-8736.0,8936.0,-4422.0,-5.0,-16.0,6.0,4.0,3.0,-11.0,7740.0,-14405.0,229.0,983.0,4.0,0.0,-1.0,1.0
2022-05-13 14:50:03.306925-07:00,1118.2,708.5,1023.7,944.9,754.6,773.6,1602.1,1104.3,3472.2,3468.6,1079.9,884.8,1532.9,3462.5,1228.4,1140.1,3473.4,3467.4,1059.1,1278.3,1872.3,2473.8,1113.9,3488.0,3474.6,3469.8,644.0,715.9,1501.4,923.7,868.8,741.4,-1.0,2.0,-16.0,9629.0,-8741.0,8934.0,-4418.0,4.0,-15.0,-9.0,-2.0,4.0,-10.0,7742.0,-14404.0,229.0,984.0,7.0,-9.0,-9.0,1.0
2022-05-13 14:50:03.308474-07:00,1110.4,704.4,1023.7,944.9,758.7,776.1,1602.1,1104.3,3469.8,3463.7,1079.9,884.8,1537.6,3463.7,1228.4,1140.1,3473.4,3467.4,1070.3,1283.7,1872.3,2473.8,1114.7,3484.4,3474.6,3469.8,646.5,715.1,1501.4,923.7,870.5,742.2,0.0,-2.0,-11.0,9631.0,-8743.0,8930.0,-4413.0,-14.0,-26.0,5.0,2.0,6.0,-9.0,7741.0,-14405.0,229.0,985.0,-11.0,-3.0,-5.0,1.0
2022-05-13 14:50:03.351145-07:00,1110.4,704.4,1014.2,935.6,758.7,768.7,1606.8,1106.0,3469.8,3463.7,1080.8,888.2,1537.6,3467.4,1221.3,1135.7,3469.8,3471.0,1057.3,1283.7,1862.5,2463.2,1114.7,3484.4,3472.2,3475.9,640.0,715.1,1500.4,932.2,870.5,742.2,7.0,4.0,-6.0,9630.0,-8749.0,8930.0,-4406.0,8.0,3.0,-10.0,6.0,6.0,-4.0,7739.0,-14406.0,228.0,985.0,2.0,-1.0,-4.0,1.0
2022-05-13 14:50:03.485820-07:00,1118.2,701.1,1015.1,935.6,761.2,768.7,1606.8,1106.0,3478.3,3462.5,1076.4,888.2,1535.7,3467.4,1221.3,1135.7,3469.8,3471.0,1057.3,1277.4,1862.5,2473.8,1106.9,3490.5,3472.2,3475.9,640.0,716.7,1500.4,929.6,862.9,743.9,2.0,-10.0,-10.0,9627.0,-8753.0,8927.0,-4410.0,-5.0,6.0,2.0,3.0,4.0,-7.0,7738.0,-14406.0,228.0,985.0,-10.0,-2.0,0.0,1.0
2022-05-13 14:50:03.486997-07:00,1118.2,701.1,1015.1,930.5,761.2,770.3,1604.9,1108.6,3478.3,3462.5,1076.4,889.0,1535.7,3466.1,1210.6,1147.1,3469.8,3472.2,1066.0,1277.4,1873.2,2473.8,1106.9,3490.5,3473.4,3467.4,642.4,716.7,1495.8,929.6,862.9,743.9,3.0,6.0,-5.0,9625.0,-8754.0,8931.0,-4405.0,-9.0,-1.0,3.0,3.0,4.0,-10.0,7736.0,-14407.0,228.0,985.0,-6.0,-5.0,4.0,1.0
2022-05-13 14:50:03.532022-07:00,1122.6,714.2,1022.8,930.5,760.4,770.3,1604.9,1108.6,3468.6,3467.4,1078.2,889.0,1532.9,3466.1,1210.6,1147.1,3469.8,3472.2,1066.0,1282.8,1873.2,2473.8,1114.7,3494.1,3473.4,3467.4,642.4,717.5,1495.8,931.3,875.5,745.5,2.0,-4.0,-19.0,9621.0,-8757.0,8929.0,-4409.0,9.0,10.0,-15.0,0.0,8.0,-13.0,7736.0,-14407.0,228.0,985.0,4.0,-2.0,-4.0,1.0
2022-05-13 14:50:03.575803-07:00,1122.6,714.2,1022.8,934.7,760.4,764.5,1598.3,1112.1,3468.6,3467.4,1078.2,893.2,1532.9,3464.9,1216.0,1130.5,3466.1,3468.6,1061.7,1282.8,1879.1,2473.8,1114.7,3494.1,3467.4,3468.6,643.2,717.5,1503.2,931.3,875.5,745.5,-1.0,-2.0,-15.0,9617.0,-8762.0,8932.0,-4404.0,-20.0,-23.0,12.0,0.0,4.0,-10.0,7734.0,-14409.0,228.0,985.0,-7.0,-5.0,-2.0,1.0
2022-05-13 14:50:03.619601-07:00,1118.2,701.9,1024.5,937.3,753.8,764.5,1598.3,1112.1,3469.8,3478.3,1075.6,891.5,1530.1,3464.9,1216.0,1130.5,3466.1,3468.6,1061.7,1281.9,1871.3,2468.5,1111.2,3489.2,3467.4,3468.6,643.2,713.4,1509.7,935.6,862.9,739.7,0.0,3.0,-11.0,9619.0,-8766.0,8930.0,-4396.0,1.0,-17.0,-12.0,0.0,5.0,-6.0,7734.0,-14408.0,228.0,986.0,2.0,-11.0,-6.0,1.0
2022-05-13 14:50:03.666666-07:00,1118.2,701.9,1024.5,937.3,758.7,774.5,1607.7,1107.8,3469.8,3478.3,1075.6,891.5,1536.6,3467.4,1222.2,1142.7,3474.6,3472.2,1063.4,1283.7,1871.3,2468.5,1111.2,3489.2,3479.5,3473.4,644.0,712.6,1509.7,935.6,862.9,739.7,1.0,-1.0,-10.0,9619.0,-8771.0,8926.0,-4394.0,-13.0,-10.0,1.0,4.0,7.0,-8.0,7734.0,-14408.0,228.0,986.0,-7.0,0.0,-3.0,1.0
2022-05-13 14:50:03.709997-07:00,1115.6,701.9,1013.3,939.8,758.7,774.5,1607.7,1107.8,3473.4,3472.2,1071.2,892.4,1536.6,3467.4,1222.2,1142.7,3474.6,3472.2,1063.4,1283.7,1874.2,2468.5,1118.2,3492.9,3479.5,3473.4,644.0,712.6,1500.4,952.6,869.6,736.5,7.0,3.0,-8.0,9618.0,-8776.0,8926.0,-4388.0,6.0,1.0,-1.0,5.0,2.0,-9.0,7731.0,-14410.0,228.0,986.0,3.0,-3.0,-2.0,1.0
2022-05-13 14:50:03.801796-07:00,1115.6,701.9,1013.3,939.8,757.9,769.5,1604.9,1105.1,3473.4,3472.2,1071.2,892.4,1535.7,3466.1,1217.7,1136.6,3471.0,3468.6,1055.6,1281.0,1874.2,2468.5,1118.2,3492.9,3479.5,3467.4,636.7,713.4,1500.4,952.6,869.6,736.5,2.0,-9.0,-10.0,9617.0,-8777.0,8923.0,-4392.0,-5.0,-4.0,-4.0,4.0,1.0,-9.0,7732.0,-14409.0,228.0,986.0,-3.0,2.0,-4.0,1.0
2022-05-13 14:50:03.982836-07:00,1118.2,703.6,1025.4,939.0,757.9,769.5,1604.9,1105.1,3461.3,3467.4,1072.9,888.2,1535.7,3466.1,1217.7,1136.6,3471.0,3468.6,1055.6,1281.0,1869.3,2456.8,1113.0,3499.0,3479.5,3467.4,636.7,713.4,1501.4,925.4,864.6,741.4,7.0,2.0,-8.0,9615.0,-8777.0,8927.0,-4388.0,-2.0,1.0,7.0,6.0,4.0,-9.0,7730.0,-14410.0,227.0,986.0,-5.0,1.0,6.0,1.0
2022-05-13 14:50:03.984534-07:00,1118.2,703.6,1025.4,939.0,767.0,776.9,1612.4,1101.7,3461.3,3467.4,1072.9,888.2,1536.6,3462.5,1220.4,1142.7,3469.8,3473.4,1062.5,1281.9,1869.3,2456.8,1113.0,3499.0,3475.9,3478.3,642.4,713.4,1501.4,925.4,864.6,741.4,-1.0,-2.0,-13.0,9615.0,-8778.0,8925.0,-4392.0,8.0,10.0,-8.0,2.0,6.0,-8.0,7731.0,-14410.0,228.0,986.0,-2.0,1.0,2.0,1.0
2022-05-13 14:50:04.026802-07:00,1118.2,706.9,1015.9,945.8,767.0,776.9,1612.4,1081.6,3461.3,3467.4,1073.8,892.4,1536.6,3462.5,1220.4,1138.4,3477.1,3473.4,1062.5,1281.9,1876.2,2470.6,1115.6,3489.2,3466.1,3478.3,642.4,713.4,1495.8,927.1,871.3,741.4,2.0,0.0,-13.0,9611.0,-8780.0,8928.0,-4388.0,-14.0,5.0,13.0,3.0,0.0,-13.0,7726.0,-14412.0,227.0,986.0,-12.0,1.0,9.0,1.0
2022-05-13 14:50:04.028262-07:00,1111.2,706.9,1015.9,945.8,758.7,772.8,1597.4,1081.6,3472.2,3467.4,1073.8,892.4,1533.8,3473.4,1218.6,1138.4,3477.1,3478.3,1068.6,1276.5,1876.2,2470.6,1115.6,3492.9,3466.1,3474.6,647.3,711.0,1495.8,927.1,871.3,738.9,0.0,3.0,-18.0,9609.0,-8782.0,8929.0,-4388.0,7.0,-1.0,-14.0,1.0,7.0,-11.0,7726.0,-14412.0,227.0,986.0,4.0,2.0,-3.0,1.0
2022-05-13 14:50:04.029278-07:00,1111.2,708.5,1015.1,934.7,758.7,772.8,1597.4,1109.5,3472.2,3472.2,1078.2,888.2,1533.8,3473.4,1218.6,1140.1,3469.8,3478.3,1068.6,1276.5,1864.5,2468.5,1107.8,3492.9,3477.1,3474.6,647.3,711.0,1494.0,931.3,870.5,738.9,0.0,2.0,-10.0,9610.0,-8783.0,8928.0,-4386.0,6.0,-14.0,14.0,0.0,4.0,-8.0,7727.0,-14412.0,227.0,986.0,13.0,-3.0,1.0,1.0
2022-05-13 14:50:04.072054-07:00,1113.9,708.5,1015.1,934.7,759.6,767.0,1600.2,1109.5,3467.4,3472.2,1078.2,888.2,1532.0,3473.4,1224.8,1140.1,3469.8,3477.1,1062.5,1279.2,1864.5,2468.5,1107.8,3490.5,3477.1,3477.1,640.8,728.2,1494.0,931.3,870.5,743.0,-1.0,2.0,-6.0,9613.0,-8784.0,8925.0,-4383.0,10.0,-5.0,-6.0,0.0,6.0,-8.0,7729.0,-14411.0,227.0,987.0,8.0,-3.0,-3.0,1.0
2022-05-13 14:50:04.159899-07:00,1113.9,706.0,1009.0,934.7,759.6,767.0,1600.2,1096.4,3467.4,3467.4,1073.8,890.7,1532.0,3473.4,1224.8,1139.2,3466.1,3477.1,1062.5,1279.2,1868.4,2477.0,1113.9,3490.5,3477.1,3477.1,640.8,728.2,1503.2,927.1,872.1,743.0,5.0,-4.0,-7.0,9614.0,-8782.0,8925.0,-4383.0,-3.0,2.0,15.0,5.0,5.0,-10.0,7729.0,-14411.0,227.0,987.0,-3.0,1.0,3.0,1.0
2022-05-13 14:50:04.163237-07:00,1118.2,701.9,1009.0,934.7,766.2,772.0,1597.4,1096.4,3461.3,3474.6,1073.8,890.7,1540.3,3468.6,1220.4,1139.2,3466.1,3473.4,1065.1,1270.3,1868.4,2477.0,1122.6,3486.8,3477.1,3473.4,639.2,709.3,1503.2,927.1,864.6,739.7,5.0,-1.0,-9.0,9615.0,-8781.0,8927.0,-4381.0,7.0,-8.0,-1.0,4.0,7.0,-9.0,7729.0,-14411.0,227.0,987.0,6.0,-5.0,-1.0,1.0
2022-05-13 14:50:04.206657-07:00,1118.2,701.9,1009.0,932.2,766.2,772.0,1604.9,1092.9,3461.3,3474.6,1076.4,890.7,1540.3,3468.6,1221.3,1143.6,3462.5,3472.2,1065.1,1270.3,1873.2,2464.2,1122.6,3486.8,3469.8,3475.9,639.2,709.3,1498.6,925.4,864.6,739.7,2.0,-3.0,-10.0,9616.0,-8779.0,8927.0,-4382.0,3.0,-2.0,7.0,0.0,7.0,-10.0,7730.0,-14410.0,227.0,987.0,5.0,-5.0,1.0,1.0
2022-05-13 14:50:04.297255-07:00,1120.9,716.7,1009.0,932.2,759.6,771.1,1604.9,1092.9,3457.6,3464.9,1076.4,890.7,1534.8,3468.6,1221.3,1143.6,3462.5,3472.2,1068.6,1280.1,1873.2,2464.2,1111.2,3491.7,3469.8,3475.9,641.6,719.2,1498.6,925.4,866.3,746.3,2.0,0.0,-12.0,9616.0,-8779.0,8927.0,-4382.0,6.0,0.0,-5.0,2.0,5.0,-6.0,7730.0,-14410.0,227.0,987.0,5.0,0.0,0.0,1.0
2022-05-13 14:50:04.298753-07:00,1120.9,716.7,1014.2,935.6,759.6,771.1,1604.9,1106.9,3457.6,3464.9,1077.3,890.7,1534.8,3468.6,1216.8,1143.6,3464.9,3474.6,1068.6,1280.1,1872.3,2468.5,1111.2,3491.7,3471.0,3472.2,641.6,719.2,1497.7,927.1,866.3,746.3,-2.0,-5.0,-16.0,9617.0,-8780.0,8925.0,-4381.0,-11.0,-18.0,12.0,0.0,4.0,-10.0,7730.0,-14410.0,227.0,987.0,-4.0,-1.0,2.0,1.0
2022-05-13 14:50:04.384665-07:00,1098.2,708.5,1014.2,935.6,753.8,772.0,1604.9,1106.9,3464.9,3467.4,1077.3,890.7,1533.8,3471.0,1216.8,1143.6,3464.9,3474.6,1065.1,1285.5,1872.3,2468.5,1113.0,3490.5,3471.0,3472.2,643.2,713.4,1497.7,927.1,869.6,730.7,0.0,4.0,-12.0,9620.0,-8778.0,8925.0,-4378.0,6.0,-9.0,-4.0,2.0,6.0,-4.0,7731.0,-14410.0,227.0,987.0,8.0,1.0,-1.0,1.0
2022-05-13 14:50:04.431115-07:00,1098.2,708.5,1021.9,943.2,753.8,772.8,1605.8,1103.4,3464.9,3467.4,1074.7,896.6,1533.8,3471.0,1225.7,1159.4,3472.2,3469.8,1068.6,1285.5,1879.1,2461.0,1113.0,3490.5,3469.8,3472.2,639.2,713.4,1498.6,937.3,869.6,730.7,-2.0,-1.0,-9.0,9622.0,-8778.0,8924.0,-4378.0,18.0,-5.0,-1.0,0.0,3.0,-7.0,7732.0,-14409.0,227.0,987.0,15.0,-3.0,0.0,1.0
2022-05-13 14:50:04.475790-07:00,1115.6,701.9,1015.9,943.2,765.3,772.8,1605.8,1103.4,3468.6,3464.9,1075.6,896.6,1534.8,3471.0,1225.7,1159.4,3472.2,3469.8,1068.6,1296.3,1879.1,2471.7,1111.2,3497.8,3469.8,3472.2,639.2,713.4,1498.6,933.0,873.8,745.5,1.0,0.0,-12.0,9623.0,-8776.0,8924.0,-4379.0,0.0,2.0,1.0,1.0,6.0,-10.0,7735.0,-14408.0,227.0,986.0,0.0,-1.0,0.0,1.0
2022-05-13 14:50:04.519858-07:00,1115.6,701.9,1015.9,938.1,765.3,772.0,1593.6,1099.9,3468.6,3464.9,1075.6,893.2,1534.8,3473.4,1217.7,1138.4,3467.4,3471.0,1066.9,1296.3,1873.2,2471.7,1111.2,3497.8,3473.4,3471.0,639.2,713.4,1499.5,933.0,873.8,745.5,4.0,-1.0,-14.0,9623.0,-8776.0,8924.0,-4379.0,-1.0,-2.0,2.0,5.0,9.0,-14.0,7735.0,-14408.0,227.0,986.0,0.0,2.0,0.0,1.0
2022-05-13 14:50:04.565088-07:00,1114.7,706.0,1019.4,938.1,758.7,772.0,1593.6,1099.9,3475.9,3457.6,1076.4,893.2,1534.8,3473.4,1217.7,1138.4,3467.4,3471.0,1066.9,1285.5,1873.2,2468.5,1113.0,3494.1,3473.4,3471.0,639.2,714.2,1499.5,948.3,864.6,745.5,0.0,-3.0,-16.0,9625.0,-8774.0,8923.0,-4381.0,1.0,-15.0,0.0,6.0,6.0,-12.0,7735.0,-14408.0,227.0,986.0,-1.0,-3.0,-2.0,1.0
2022-05-13 14:50:04.610018-07:00,1114.7,706.0,1019.4,936.4,758.7,767.8,1599.3,1099.9,3475.9,3457.6,1076.4,889.8,1534.8,3468.6,1216.0,1141.0,3480.7,3478.3,1062.5,1285.5,1873.2,2468.5,1113.0,3494.1,3474.6,3471.0,635.9,714.2,1499.5,948.3,864.6,745.5,0.0,3.0,-6.0,9630.0,-8775.0,8919.0,-4376.0,8.0,-12.0,3.0,2.0,6.0,-6.0,7735.0,-14408.0,227.0,986.0,8.0,-6.0,2.0,1.0
2022-05-13 14:50:04.655100-07:00,1111.2,697.9,1019.4,936.4,756.3,767.8,1599.3,1099.9,3471.0,3463.7,1071.2,889.8,1535.7,3468.6,1216.0,1141.0,3480.7,3478.3,1062.5,1274.7,1873.2,2467.4,1113.0,3496.6,3474.6,3471.0,635.9,720.0,1499.5,929.6,870.5,742.2,0.0,-2.0,-10.0,9632.0,-8777.0,8915.0,-4376.0,11.0,2.0,-1.0,-3.0,5.0,-7.0,7737.0,-14406.0,228.0,986.0,5.0,-2.0,-3.0,1.0
2022-05-13 14:50:04.701549-07:00,1111.2,697.9,1019.4,927.9,758.7,772.0,1604.0,1093.8,3471.0,3463.7,1071.2,886.5,1529.2,3462.5,1224.8,1137.5,3473.4,3473.4,1066.9,1281.0,1861.5,2467.4,1113.0,3496.6,3468.6,3474.6,642.4,716.7,1496.7,929.6,870.5,742.2,8.0,0.0,-11.0,9631.0,-8777.0,8918.0,-4372.0,-7.0,1.0,9.0,3.0,6.0,-13.0,7736.0,-14407.0,227.0,986.0,-12.0,-5.0,5.0,1.0
2022-05-13 14:50:04.747363-07:00,1117.4,707.7,1025.4,929.6,758.7,772.0,1604.0,1093.8,3468.6,3473.4,1066.9,888.2,1529.2,3462.5,1224.8,1137.5,3473.4,3473.4,1066.9,1281.0,1872.3,2447.3,1115.6,3497.8,3468.6,3474.6,642.4,716.7,1492.1,924.5,867.1,742.2,3.0,1.0,-15.0,9633.0,-8776.0,8916.0,-4376.0,9.0,-8.0,-17.0,1.0,8.0,-10.0,7737.0,-14406.0,228.0,986.0,12.0,-3.0,-4.0,1.0
2022-05-13 14:50:04.834898-07:00,1117.4,707.7,1025.4,929.6,753.8,775.3,1598.3,1102.5,3468.6,3473.4,1066.9,888.2,1542.2,3467.4,1222.2,1146.3,3473.4,3472.2,1063.4,1287.3,1872.3,2447.3,1115.6,3497.8,3472.2,3473.4,640.0,712.6,1492.1,924.5,867.1,742.2,0.0,-3.0,-11.0,9634.0,-8778.0,8912.0,-4374.0,-4.0,-19.0,14.0,3.0,3.0,-9.0,7738.0,-14406.0,228.0,986.0,0.0,-6.0,1.0,1.0
2022-05-13 14:50:04.879771-07:00,1119.1,706.0,1019.4,942.4,753.8,775.3,1598.3,1102.5,3468.6,3471.0,1084.2,889.8,1542.2,3467.4,1222.2,1146.3,3473.4,3472.2,1063.4,1287.3,1871.3,2470.6,1115.6,3490.5,3472.2,3473.4,640.0,712.6,1500.4,934.7,872.1,743.0,0.0,4.0,-8.0,9637.0,-8777.0,8912.0,-4371.0,3.0,-5.0,-8.0,0.0,6.0,-4.0,7738.0,-14406.0,228.0,986.0,1.0,-8.0,0.0,1.0
2022-05-13 14:50:04.926764-07:00,1119.1,706.0,1019.4,942.4,753.8,778.6,1604.0,1102.5,3468.6,3471.0,1084.2,889.8,1529.2,3468.6,1222.2,1140.1,3471.0,3472.2,1066.0,1273.9,1871.3,2470.6,1115.6,3490.5,3471.0,3479.5,648.1,716.7,1500.4,934.7,872.1,743.0,1.0,0.0,-10.0,9637.0,-8778.0,8911.0,-4372.0,3.0,-6.0,-3.0,4.0,5.0,-11.0,7738.0,-14406.0,228.0,986.0,6.0,5.0,2.0,1.0
2022-05-13 14:50:04.969097-07:00,1118.2,705.2,1010.8,937.3,753.8,778.6,1604.0,1099.0,3472.2,3468.6,1076.4,887.3,1529.2,3468.6,1222.2,1141.9,3473.4,3472.2,1066.0,1273.9,1868.4,2471.7,1111.2,3495.3,3467.4,3479.5,648.1,716.7,1495.8,928.8,865.4,747.2,1.0,-4.0,-13.0,9637.0,-8777.0,8911.0,-4372.0,4.0,-2.0,-3.0,3.0,4.0,-10.0,7740.0,-14405.0,228.0,986.0,0.0,-4.0,-4.0,1.0
2022-05-13 14:50:05.014919-07:00,1111.2,705.2,1010.8,937.3,753.8,777.8,1606.8,1099.0,3462.5,3468.6,1076.4,887.3,1531.0,3467.4,1224.8,1141.9,3473.4,3474.6,1072.9,1275.6,1868.4,2471.7,1111.2,3495.3,3467.4,3478.3,645.7,711.0,1495.8,928.8,865.4,741.4,0.0,2.0,-7.0,9639.0,-8777.0,8911.0,-4370.0,-1.0,-10.0,9.0,-2.0,5.0,-6.0,7740.0,-14405.0,228.0,986.0,8.0,1.0,0.0,1.0
2022-05-13 14:50:05.059798-07:00,1111.2,707.7,1013.3,936.4,753.8,777.8,1606.8,1105.1,3462.5,3469.8,1080.8,884.8,1531.0,3467.4,1224.8,1140.1,3475.9,3474.6,1072.9,1275.6,1873.2,2457.9,1117.4,3495.3,3467.4,3478.3,645.7,711.0,1502.3,939.8,864.6,741.4,2.0,2.0,-9.0,9641.0,-8778.0,8908.0,-4369.0,3.0,-5.0,-15.0,0.0,6.0,-12.0,7740.0,-14405.0,228.0,986.0,1.0,-3.0,-4.0,1.0
2022-05-13 14:50:05.106644-07:00,1120.0,707.7,1013.3,936.4,753.8,767.8,1607.7,1105.1,3464.9,3469.8,1080.8,884.8,1531.0,3467.4,1225.7,1140.1,3475.9,3479.5,1063.4,1283.7,1873.2,2457.9,1117.4,3491.7,3467.4,3469.8,643.2,718.4,1502.3,939.8,864.6,743.9,3.0,-2.0,-17.0,9640.0,-8780.0,8906.0,-4371.0,-11.0,-1.0,6.0,4.0,6.0,-10.0,7740.0,-14405.0,228.0,986.0,-4.0,5.0,2.0,1.0
2022-05-13 14:50:05.151697-07:00,1120.0,707.7,1015.9,936.4,753.8,767.8,1607.7,1100.8,3464.9,3462.5,1076.4,890.7,1531.0,3467.4,1225.7,1142.7,3466.1,3479.5,1063.4,1283.7,1873.2,2472.7,1112.1,3491.7,3472.2,3469.8,643.2,718.4,1492.1,933.9,863.7,743.9,1.0,-8.0,-13.0,9638.0,-8782.0,8908.0,-4367.0,-1.0,5.0,16.0,1.0,6.0,-13.0,7739.0,-14406.0,228.0,986.0,8.0,-3.0,0.0,1.0
2022-05-13 14:50:05.196697-07:00,1111.2,704.4,1015.9,936.4,761.2,773.6,1606.8,1100.8,3464.9,3479.5,1076.4,890.7,1537.6,3466.1,1220.4,1142.7,3466.1,3471.0,1058.2,1282.8,1873.2,2472.7,1116.5,3486.8,3472.2,3480.7,644.9,719.2,1492.1,933.9,864.6,737.3,-4.0,-19.0,4.0,9638.0,-8773.0,8921.0,-4358.0,-11.0,50.0,92.0,-5.0,5.0,-6.0,7743.0,-14403.0,227.0,990.0,23.0,-12.0,11.0,1.0
2022-05-13 14:50:05.421993-07:00,1111.2,704.4,1019.4,938.1,761.2,773.6,1601.1,1100.8,3464.9,3479.5,1085.1,887.3,1537.6,3466.1,1223.9,1141.9,3467.4,3479.5,1058.2,1282.8,1870.3,2477.0,1116.5,3486.8,3480.7,3485.6,644.9,719.2,1518.0,932.2,864.6,737.3,-35.0,-40.0,42.0,9619.0,-8727.0,8996.0,-4340.0,-98.0,226.0,251.0,-8.0,-6.0,0.0,7751.0,-14398.0,237.0,999.0,-11.0,-6.0,49.0,1.0
2022-05-13 14:50:05.513017-07:00,1113.9,700.3,1019.4,938.1,756.3,771.1,1601.1,1100.8,3471.0,3468.6,1085.1,887.3,1534.8,3480.7,1223.9,1141.9,3467.4,3479.5,1059.1,1277.4,1870.3,2477.0,1126.1,3483.2,3480.7,3485.6,651.4,752.1,1518.0,932.2,905.9,757.9,-2.0,-10.0,-29.0,9586.0,-8667.0,9113.0,-4287.0,-150.0,132.0,263.0,0.0,8.0,-20.0,7783.0,-14380.0,271.0,1008.0,65.0,14.0,77.0,1.0
2022-05-13 14:50:05.514300-07:00,1113.9,700.3,1050.4,985.0,756.3,771.1,1632.2,1127.0,3471.0,3468.6,1170.9,936.4,1534.8,3480.7,1541.3,1246.2,3464.9,3469.8,1059.1,1277.4,1871.3,2467.4,1126.1,3483.2,3467.4,3469.8,651.4,752.1,1504.1,1015.1,905.9,757.9,-11.0,-16.0,-32.0,9530.0,-8633.0,9232.0,-4228.0,-243.0,225.0,241.0,-10.0,21.0,-34.0,7810.0,-14363.0,316.0,1023.0,61.0,8.0,124.0,1.0
2022-05-13 14:50:05.646998-07:00,1122.6,718.4,1050.4,985.0,775.3,772.0,1632.2,1127.0,3468.6,3468.6,1170.9,936.4,1567.4,3462.5,1541.3,1246.2,3464.9,3469.8,1064.3,1285.5,1871.3,2467.4,1213.3,3486.8,3467.4,3469.8,705.2,873.8,1504.1,1015.1,1158.6,750.5,6.0,-17.0,-14.0,9450.0,-8623.0,9366.0,-4129.0,-346.0,114.0,288.0,-1.0,4.0,-47.0,7812.0,-14358.0,363.0,1052.0,50.0,-35.0,113.0,1.0
2022-05-13 14:50:05.648323-07:00,1122.6,718.4,1383.9,1231.0,775.3,781.9,1721.5,1281.9,3468.6,3468.6,1505.1,1140.1,1567.4,3457.6,1998.5,1517.1,3468.6,3469.8,1072.9,1285.5,1889.9,2475.9,1213.3,3486.8,3475.9,3472.2,741.4,873.8,1531.0,1256.0,1158.6,750.5,44.0,-18.0,1.0,9413.0,-8598.0,9476.0,-4013.0,-52.0,71.0,356.0,5.0,-24.0,-16.0,7832.0,-14343.0,405.0,1099.0,126.0,-61.0,141.0,1.0
2022-05-13 14:50:05.649376-07:00,1129.6,716.7,1644.5,1231.0,798.5,781.9,1721.5,1281.9,3468.6,3471.0,1652.0,1140.1,1712.9,3457.6,1998.5,1517.1,3468.6,3469.8,1072.9,1277.4,1889.9,2478.1,1331.4,3490.5,3475.9,3472.2,741.4,939.0,1531.0,1553.4,1467.2,744.7,-8.0,45.0,3.0,9425.0,-8481.0,9575.0,-4000.0,44.0,139.0,272.0,6.0,26.0,14.0,7879.0,-14312.0,447.0,1155.0,50.0,-63.0,135.0,1.0
2022-05-13 14:50:05.650044-07:00,1129.6,716.7,1644.5,1231.0,798.5,781.9,1721.5,1281.9,3468.6,3471.0,1652.0,1140.1,1712.9,3457.6,1998.5,1517.1,3468.6,3469.8,1072.9,1277.4,1889.9,2478.1,1331.4,3490.5,3475.9,3472.2,741.4,939.0,1531.0,1553.4,1467.2,744.7,-8.0,45.0,3.0,9425.0,-8481.0,9575.0,-4000.0,44.0,139.0,272.0,6.0,26.0,14.0,7879.0,-14312.0,447.0,1155.0,50.0,-63.0,135.0,1.0
2022-05-13 14:50:05.651090-07:00,1130.5,706.0,1649.2,1507.8,823.5,791.0,1855.7,1421.3,3471.0,3466.1,1620.9,1279.2,1853.7,3467.4,2016.4,1760.8,3474.6,3474.6,1072.1,1284.6,1889.9,2485.5,1357.6,3495.3,3475.9,3471.0,759.6,965.4,1667.2,1508.8,1402.1,741.4,23.0,-49.0,-11.0,9466.0,-8471.0,9593.0,-3880.0,304.0,-250.0,70.0,6.0,-20.0,-10.0,7753.0,-14373.0,507.0,1215.0,82.0,16.0,79.0,1.0
2022-05-13 14:50:05.693674-07:00,1165.6,718.4,1630.3,1502.3,829.4,805.2,1942.0,1605.8,3469.8,3460.1,1607.7,1286.4,1848.9,3464.9,1959.8,1740.6,3474.6,3466.1,1072.1,1287.3,1888.9,2482.3,1373.9,3488.0,3471.0,3473.4,767.0,971.3,1779.1,1447.9,1354.0,760.4,5.0,-11.0,-41.0,9597.0,-8506.0,9474.0,-3772.0,-333.0,-148.0,-32.0,1.0,-5.0,-8.0,7660.0,-14419.0,527.0,1255.0,-240.0,-56.0,17.0,1.0
2022-05-13 14:50:05.783833-07:00,1165.6,718.4,1630.3,1494.9,841.9,806.0,2009.4,1725.3,3469.8,3460.1,1607.7,1289.1,1971.7,3473.4,1906.6,1740.6,3479.5,3460.1,1066.9,1286.4,1894.8,2482.3,1373.9,3488.0,3469.8,3467.4,776.9,992.7,1873.2,1447.9,1354.0,760.4,0.0,-33.0,-9.0,9589.0,-8588.0,9448.0,-3672.0,-106.0,-211.0,40.0,2.0,0.0,-15.0,7638.0,-14429.0,520.0,1277.0,38.0,-67.0,21.0,1.0
2022-05-13 14:50:05.824906-07:00,1327.8,767.0,1608.7,1498.6,841.9,806.0,2009.4,1725.3,3467.4,3466.1,1585.2,1279.2,1971.7,3473.4,1906.6,1740.6,3479.5,3460.1,1066.9,1286.4,1896.7,2482.3,1363.0,3485.6,3469.8,3467.4,776.9,992.7,1963.7,1429.5,1326.8,784.4,-2.0,1.0,-38.0,9624.0,-8614.0,9414.0,-3606.0,-58.0,-229.0,28.0,9.0,0.0,0.0,7666.0,-14412.0,511.0,1311.0,70.0,-90.0,13.0,1.0
2022-05-13 14:50:05.869815-07:00,1327.8,767.0,1608.7,1498.6,863.7,816.9,2095.7,1734.9,3467.4,3466.1,1585.2,1279.2,2001.5,3468.6,1890.9,1717.7,3471.0,3472.2,1076.4,1288.2,1896.7,2482.3,1363.0,3485.6,3477.1,3478.3,778.6,1013.3,1963.7,1429.5,1326.8,784.4,23.0,-3.0,-1.0,9665.0,-8655.0,9366.0,-3521.0,-119.0,-236.0,35.0,0.0,24.0,0.0,7671.0,-14407.0,499.0,1340.0,19.0,-79.0,2.0,1.0
2022-05-13 14:50:05.915638-07:00,1444.2,834.4,1580.5,1486.6,863.7,816.9,2095.7,1734.9,3466.1,3468.6,1576.8,1273.0,2001.5,3468.6,1890.9,1717.7,3471.0,3472.2,1076.4,1288.2,1886.9,2481.3,1348.5,3490.5,3477.1,3478.3,778.6,1013.3,2128.0,1411.3,1323.2,798.5,5.0,21.0,0.0,9699.0,-8686.0,9327.0,-3457.0,-66.0,-155.0,17.0,-3.0,23.0,0.0,7689.0,-14396.0,490.0,1356.0,26.0,-47.0,-11.0,1.0
2022-05-13 14:50:06.006319-07:00,1444.2,834.4,1580.5,1486.6,857.0,816.9,2132.1,1711.9,3466.1,3468.6,1576.8,1273.0,1981.6,3471.0,1872.3,1703.3,3473.4,3475.9,1072.9,1289.1,1886.9,2481.3,1348.5,3490.5,3477.1,3473.4,780.3,1009.0,2128.0,1411.3,1323.2,798.5,-7.0,-7.0,-5.0,9708.0,-8728.0,9300.0,-3393.0,-154.0,-191.0,-23.0,0.0,-2.0,12.0,7683.0,-14399.0,475.0,1366.0,-27.0,-21.0,-25.0,1.0
2022-05-13 14:50:06.007578-07:00,1511.5,853.7,1572.1,1485.6,857.0,816.9,2132.1,1681.4,3472.2,3466.1,1562.7,1264.0,1981.6,3471.0,1872.3,1698.6,3479.5,3475.9,1072.9,1289.1,1889.9,2481.3,1333.2,3484.4,3467.4,3473.4,780.3,1009.0,2188.1,1398.5,1303.4,813.5,23.0,2.0,20.0,9724.0,-8758.0,9272.0,-3348.0,7.0,-13.0,15.0,3.0,17.0,-9.0,7687.0,-14396.0,465.0,1370.0,26.0,-19.0,-11.0,1.0
2022-05-13 14:50:06.049711-07:00,1507.8,853.7,1572.1,1485.6,850.3,830.2,2110.8,1681.4,3457.6,3466.1,1562.7,1264.0,1955.8,3462.5,1857.6,1698.6,3479.5,3483.2,1065.1,1290.9,1889.9,2481.3,1333.2,3481.9,3467.4,3477.1,779.4,1008.2,2188.1,1398.5,1303.4,816.9,3.0,26.0,0.0,9717.0,-8751.0,9282.0,-3361.0,-12.0,91.0,-10.0,6.0,9.0,6.0,7688.0,-14396.0,458.0,1368.0,-45.0,22.0,-21.0,1.0
2022-05-13 14:50:06.141871-07:00,1507.8,852.0,1568.3,1474.6,850.3,830.2,2110.8,1665.3,3457.6,3467.4,1562.7,1264.9,1955.8,3462.5,1857.6,1680.5,3474.6,3483.2,1065.1,1290.9,1889.9,2493.0,1333.2,3481.9,3474.6,3477.1,779.4,1008.2,2168.7,1405.8,1299.8,816.9,10.0,-11.0,4.0,9693.0,-8760.0,9293.0,-3375.0,9.0,51.0,-38.0,0.0,0.0,-7.0,7671.0,-14407.0,453.0,1351.0,-9.0,35.0,-24.0,1.0
2022-05-13 14:50:06.143013-07:00,1488.4,852.0,1568.3,1474.6,855.3,821.9,2090.6,1665.3,3471.0,3467.4,1562.7,1264.9,1928.2,3469.8,1847.9,1680.5,3474.6,3473.4,1066.0,1294.5,1889.9,2493.0,1333.2,3489.2,3474.6,3478.3,791.0,1002.2,2168.7,1405.8,1299.8,816.9,37.0,45.0,29.0,9654.0,-8753.0,9325.0,-3418.0,-28.0,314.0,-29.0,-2.0,31.0,7.0,7657.0,-14416.0,447.0,1333.0,-93.0,35.0,-46.0,1.0
2022-05-13 14:50:06.229882-07:00,1488.4,852.0,1552.5,1458.9,855.3,821.9,2090.6,1661.5,3471.0,3473.4,1557.1,1256.0,1928.2,3469.8,1847.9,1677.6,3480.7,3473.4,1066.0,1294.5,1885.0,2487.6,1326.8,3489.2,3479.5,3478.3,791.0,1002.2,2154.4,1404.9,1299.8,816.9,-19.0,-68.0,-39.0,9605.0,-8800.0,9315.0,-3459.0,-29.0,-250.0,-220.0,2.0,-41.0,-16.0,7618.0,-14441.0,437.0,1288.0,20.0,96.0,-50.0,1.0
2022-05-13 14:50:06.276904-07:00,1462.6,852.0,1552.5,1458.9,855.3,818.5,2062.5,1661.5,3475.9,3473.4,1557.1,1256.0,1910.5,3481.9,1844.0,1677.6,3480.7,3473.4,1066.0,1286.4,1885.0,2487.6,1326.8,3485.6,3479.5,3478.3,776.9,994.5,2154.4,1404.9,1299.8,809.4,7.0,6.0,-34.0,9636.0,-8826.0,9254.0,-3473.0,0.0,59.0,-24.0,-2.0,0.0,-30.0,7637.0,-14434.0,439.0,1262.0,-59.0,13.0,-6.0,1.0
2022-05-13 14:50:06.321329-07:00,1462.6,839.4,1551.5,1451.6,855.3,818.5,2054.4,1630.3,3475.9,3467.4,1555.3,1248.0,1910.5,3481.9,1845.0,1654.9,3468.6,3471.0,1066.0,1286.4,1887.9,2484.4,1321.4,3485.6,3467.4,3483.2,776.9,994.5,2123.0,1393.9,1299.0,809.4,12.0,-14.0,-23.0,9630.0,-8851.0,9239.0,-3465.0,44.0,-89.0,-40.0,9.0,15.0,-20.0,7620.0,-14443.0,437.0,1259.0,31.0,-1.0,-3.0,1.0
2022-05-13 14:50:06.365015-07:00,1450.6,837.7,1551.5,1451.6,841.1,817.7,2054.4,1630.3,3463.7,3467.4,1555.3,1248.0,1898.7,3474.6,1845.0,1654.9,3468.6,3471.0,1070.3,1287.3,1887.9,2484.4,1316.0,3488.0,3467.4,3483.2,781.9,979.9,2123.0,1393.9,1288.2,799.4,-11.0,42.0,-30.0,9649.0,-8864.0,9204.0,-3473.0,34.0,-138.0,-165.0,9.0,-1.0,12.0,7630.0,-14438.0,426.0,1255.0,18.0,-2.0,-54.0,1.0
2022-05-13 14:50:06.409793-07:00,1450.6,837.7,1540.3,1452.5,841.1,817.7,2054.4,1641.6,3463.7,3467.4,1547.8,1248.8,1898.7,3474.6,1825.5,1663.4,3477.1,3477.1,1070.3,1287.3,1890.9,2482.3,1316.0,3488.0,3473.4,3480.7,781.9,979.9,2115.9,1392.1,1288.2,799.4,0.0,-9.0,-22.0,9707.0,-8953.0,9052.0,-3482.0,58.0,-469.0,-338.0,-18.0,42.0,-8.0,7648.0,-14432.0,404.0,1222.0,49.0,61.0,-101.0,1.0
2022-05-13 14:50:06.456831-07:00,1451.6,829.4,1540.3,1452.5,849.5,817.7,2054.4,1641.6,3467.4,3469.8,1547.8,1248.8,1890.9,3468.6,1825.5,1663.4,3477.1,3477.1,1063.4,1293.6,1890.9,2482.3,1314.2,3485.6,3473.4,3480.7,772.8,976.5,2115.9,1392.1,1296.3,811.9,-9.0,-14.0,-7.0,9804.0,-8952.0,8938.0,-3507.0,242.0,-74.0,-37.0,-6.0,-22.0,-20.0,7741.0,-14384.0,385.0,1202.0,297.0,-3.0,-56.0,1.0
2022-05-13 14:50:06.500207-07:00,1451.6,829.4,1538.5,1446.0,849.5,817.7,2034.4,1644.5,3467.4,3469.8,1552.5,1246.2,1890.9,3468.6,1828.4,1648.3,3472.2,3477.1,1063.4,1293.6,1891.8,2487.6,1314.2,3485.6,3471.0,3479.5,772.8,976.5,2092.6,1383.0,1296.3,811.9,11.0,-1.0,-6.0,9849.0,-8952.0,8888.0,-3505.0,-17.0,-134.0,-37.0,10.0,10.0,-6.0,7778.0,-14365.0,379.0,1199.0,-3.0,-15.0,-4.0,1.0
2022-05-13 14:50:06.546538-07:00,1458.0,831.9,1541.3,1446.0,852.0,821.0,2034.4,1644.5,3467.4,3472.2,1543.1,1246.2,1880.1,3473.4,1828.4,1648.3,3472.2,3477.1,1072.1,1282.8,1891.8,2484.4,1308.8,3488.0,3471.0,3479.5,771.1,978.2,2092.6,1385.7,1285.5,811.9,-2.0,25.0,-11.0,9859.0,-8970.0,8865.0,-3490.0,-14.0,-67.0,-45.0,12.0,-5.0,18.0,7772.0,-14368.0,372.0,1204.0,-5.0,1.0,-25.0,1.0
2022-05-13 14:50:06.591772-07:00,1458.0,831.9,1541.3,1449.7,852.0,814.4,2051.4,1640.7,3467.4,3472.2,1543.1,1246.2,1880.1,3473.4,1831.3,1657.7,3475.9,3460.1,1071.2,1282.8,1887.9,2484.4,1308.8,3488.0,3477.1,3473.4,776.9,978.2,2096.7,1385.7,1285.5,811.9,0.0,6.0,-8.0,9868.0,-9005.0,8820.0,-3489.0,-30.0,-83.0,-130.0,0.0,5.0,-5.0,7772.0,-14369.0,361.0,1197.0,-37.0,6.0,-32.0,1.0
2022-05-13 14:50:06.680524-07:00,1456.2,828.5,1537.6,1449.7,841.9,814.4,2051.4,1640.7,3468.6,3463.7,1541.3,1246.2,1869.3,3473.4,1831.3,1657.7,3475.9,3460.1,1071.2,1290.0,1887.9,2478.1,1310.6,3491.7,3477.1,3473.4,776.9,974.8,2096.7,1378.5,1289.1,807.7,-3.0,-32.0,-9.0,9869.0,-9047.0,8778.0,-3482.0,-32.0,-84.0,-51.0,-8.0,-1.0,-20.0,7758.0,-14377.0,356.0,1186.0,-16.0,19.0,-9.0,1.0
2022-05-13 14:50:06.866878-07:00,1456.2,828.5,1537.6,1448.8,841.9,817.7,2022.4,1643.5,3468.6,3463.7,1541.3,1241.7,1869.3,3464.9,1821.6,1681.4,3474.6,3469.8,1059.1,1290.0,1891.8,2478.1,1310.6,3491.7,3481.9,3468.6,774.5,974.8,2104.8,1378.5,1289.1,807.7,-8.0,7.0,-21.0,9871.0,-9051.0,8773.0,-3480.0,-5.0,12.0,5.0,0.0,3.0,-3.0,7755.0,-14379.0,360.0,1187.0,-8.0,2.0,13.0,1.0
2022-05-13 14:50:06.868257-07:00,1438.7,814.4,1534.8,1448.8,841.9,817.7,2022.4,1643.5,3472.2,3462.5,1534.8,1241.7,1872.3,3464.9,1821.6,1681.4,3474.6,3469.8,1059.1,1283.7,1891.8,2491.9,1305.2,3491.7,3481.9,3468.6,774.5,973.1,2104.8,1382.1,1281.0,804.4,2.0,-12.0,-21.0,9868.0,-9059.0,8771.0,-3474.0,-48.0,-48.0,-28.0,2.0,2.0,-1.0,7745.0,-14385.0,359.0,1187.0,-29.0,3.0,-6.0,1.0
2022-05-13 14:50:06.869387-07:00,1438.7,814.4,1534.8,1439.6,834.4,814.4,2032.4,1636.9,3472.2,3462.5,1534.8,1246.2,1866.4,3462.5,1827.5,1654.9,3472.2,3469.8,1067.7,1293.6,1886.0,2491.9,1305.2,3491.7,3475.9,3468.6,781.9,975.6,2091.6,1382.1,1281.0,804.4,7.0,15.0,-5.0,9874.0,-9064.0,8761.0,-3466.0,38.0,16.0,23.0,1.0,12.0,-9.0,7749.0,-14382.0,358.0,1190.0,15.0,-15.0,3.0,1.0
2022-05-13 14:50:06.872673-07:00,1440.5,838.6,1531.0,1440.5,834.4,814.4,2032.4,1636.9,3478.3,3471.0,1541.3,1245.3,1866.4,3462.5,1827.5,1654.9,3472.2,3469.8,1067.7,1293.6,1888.9,2484.4,1303.4,3486.8,3475.9,3468.6,781.9,975.6,2082.6,1381.2,1287.3,804.4,-3.0,-18.0,-17.0,9868.0,-9064.0,8768.0,-3468.0,-20.0,-32.0,-16.0,-2.0,-8.0,-3.0,7746.0,-14383.0,358.0,1190.0,17.0,3.0,0.0,1.0
2022-05-13 14:50:06.987408-07:00,1440.5,838.6,1531.0,1440.5,837.7,811.0,2020.4,1639.8,3478.3,3471.0,1541.3,1245.3,1851.8,3469.8,1823.6,1645.4,3475.9,3462.5,1053.9,1294.5,1888.9,2484.4,1303.4,3486.8,3481.9,3473.4,771.1,970.5,2082.6,1381.2,1287.3,804.4,5.0,16.0,-9.0,9873.0,-9062.0,8765.0,-3466.0,-10.0,25.0,20.0,1.0,15.0,-5.0,7745.0,-14384.0,359.0,1191.0,-33.0,-8.0,10.0,1.0
2022-05-13 14:50:06.989728-07:00,1436.9,827.7,1522.7,1441.5,837.7,811.0,2020.4,1639.8,3468.6,3468.6,1538.5,1236.4,1851.8,3469.8,1823.6,1645.4,3475.9,3462.5,1053.9,1294.5,1889.9,2481.3,1302.5,3486.8,3481.9,3473.4,771.1,970.5,2078.5,1373.0,1289.1,801.9,-12.0,-3.0,-33.0,9852.0,-9069.0,8782.0,-3464.0,-38.0,19.0,-17.0,4.0,-4.0,-4.0,7734.0,-14390.0,360.0,1188.0,-18.0,17.0,-9.0,1.0
2022-05-13 14:50:06.995728-07:00,1436.9,827.7,1522.7,1441.5,838.6,808.5,2014.4,1630.3,3468.6,3468.6,1538.5,1236.4,1853.7,3468.6,1813.9,1643.5,3469.8,3471.0,1063.4,1290.9,1889.9,2481.3,1302.5,3486.8,3467.4,3471.0,771.1,969.6,2078.5,1373.0,1289.1,801.9,6.0,2.0,-8.0,9849.0,-9084.0,8774.0,-3454.0,-3.0,-31.0,1.0,-6.0,10.0,-13.0,7731.0,-14392.0,360.0,1187.0,9.0,-8.0,3.0,1.0
2022-05-13 14:50:07.175431-07:00,1433.2,814.4,1534.8,1446.0,838.6,808.5,2014.4,1630.3,3457.6,3463.7,1534.8,1240.8,1853.7,3468.6,1813.9,1643.5,3469.8,3471.0,1063.4,1290.9,1892.8,2481.3,1301.6,3484.4,3467.4,3471.0,771.1,969.6,2080.6,1386.6,1285.5,799.4,30.0,13.0,11.0,9840.0,-9078.0,8788.0,-3461.0,-10.0,101.0,19.0,0.0,23.0,3.0,7722.0,-14396.0,357.0,1190.0,-25.0,-9.0,-15.0,1.0
2022-05-13 14:50:07.266227-07:00,1486.6,814.4,1534.8,1446.0,837.7,820.2,2025.4,1668.2,3472.2,3463.7,1534.8,1240.8,1957.8,3462.5,1828.4,1647.3,3480.7,3485.6,1062.5,1296.3,1892.8,2481.3,1301.6,3485.6,3475.9,3474.6,764.5,987.6,2080.6,1386.6,1285.5,792.7,11.0,15.0,9.0,9777.0,-9012.0,8894.0,-3538.0,116.0,550.0,123.0,-2.0,6.0,6.0,7729.0,-14393.0,339.0,1192.0,43.0,-10.0,-43.0,1.0
2022-05-13 14:50:07.267514-07:00,1486.6,823.5,1624.7,1562.7,837.7,820.2,2025.4,1845.9,3472.2,3466.1,1562.7,1270.3,1957.8,3462.5,1828.4,1714.8,3474.6,3485.6,1062.5,1296.3,1877.2,2482.3,1329.6,3485.6,3473.4,3474.6,764.5,987.6,2090.6,1530.1,1374.8,792.7,-5.0,-53.0,-21.0,9648.0,-8906.0,9080.0,-3685.0,9.0,708.0,119.0,-1.0,-27.0,-17.0,7720.0,-14400.0,326.0,1174.0,-72.0,25.0,-28.0,1.0
2022-05-13 14:50:07.268612-07:00,1449.7,823.5,1624.7,1562.7,817.7,821.0,2054.4,1845.9,3464.9,3466.1,1562.7,1270.3,1967.7,3473.4,2109.8,1714.8,3474.6,3478.3,1062.5,1285.5,1877.2,2482.3,1329.6,3486.8,3473.4,3472.2,774.5,975.6,2090.6,1530.1,1374.8,794.4,5.0,29.0,-14.0,9511.0,-8809.0,9279.0,-3779.0,-97.0,556.0,204.0,4.0,16.0,-7.0,7685.0,-14419.0,324.0,1170.0,-138.0,11.0,1.0,1.0
2022-05-13 14:50:07.269689-07:00,1449.7,807.7,1772.3,1583.3,817.7,821.0,2054.4,1885.0,3464.9,3467.4,1684.3,1293.6,1967.7,3473.4,2109.8,1756.0,3467.4,3478.3,1062.5,1285.5,1873.2,2481.3,1410.3,3486.8,3473.4,3472.2,774.5,975.6,2067.5,1698.6,1591.7,794.4,22.0,-17.0,-1.0,9357.0,-8789.0,9444.0,-3800.0,-196.0,363.0,63.0,4.0,10.0,-12.0,7630.0,-14449.0,316.0,1159.0,-77.0,32.0,-34.0,1.0
2022-05-13 14:50:07.310292-07:00,1424.1,807.7,1772.3,1583.3,825.2,813.5,2075.5,1885.0,3462.5,3467.4,1684.3,1293.6,1945.0,3468.6,2303.5,1756.0,3467.4,3466.1,1063.4,1286.4,1873.2,2481.3,1410.3,3486.8,3473.4,3469.8,784.4,985.0,2067.5,1698.6,1591.7,788.6,0.0,23.0,-44.0,9288.0,-8750.0,9534.0,-3836.0,7.0,160.0,77.0,-4.0,5.0,-18.0,7616.0,-14459.0,304.0,1137.0,-44.0,22.0,-48.0,1.0
2022-05-13 14:50:07.357008-07:00,1424.1,792.7,1713.8,1476.4,825.2,813.5,2055.4,1827.5,3462.5,3467.4,1702.4,1249.7,1945.0,3468.6,2213.7,1712.9,3462.5,3477.1,1063.4,1286.4,1876.2,2474.9,1436.9,3486.8,3467.4,3467.4,784.4,985.0,2073.5,1624.7,1593.6,788.6,16.0,10.0,-5.0,9261.0,-8732.0,9562.0,-3872.0,129.0,92.0,-78.0,1.0,-6.0,-12.0,7598.0,-14470.0,287.0,1116.0,15.0,37.0,-64.0,1.0
2022-05-13 14:50:07.401839-07:00,1419.5,794.4,1713.8,1476.4,833.6,817.7,2055.4,1827.5,3478.3,3467.4,1702.4,1249.7,1941.0,3464.9,2213.7,1712.9,3462.5,3477.1,1061.7,1289.1,1876.2,2474.9,1463.5,3481.9,3467.4,3467.4,786.1,1016.8,2073.5,1624.7,1434.1,787.7,-16.0,-5.0,-55.0,9298.0,-8689.0,9510.0,-4007.0,445.0,38.0,-173.0,4.0,-12.0,4.0,7649.0,-14445.0,272.0,1092.0,234.0,30.0,-62.0,1.0
2022-05-13 14:50:07.491554-07:00,1419.5,794.4,1515.3,1317.8,833.6,817.7,2011.4,1773.3,3478.3,3467.4,1677.6,1211.5,1941.0,3464.9,1971.7,1561.8,3475.9,3467.4,1061.7,1289.1,1879.1,2484.4,1463.5,3481.9,3477.1,3481.9,786.1,1016.8,2062.5,1436.9,1434.1,787.7,-3.0,7.0,-4.0,9386.0,-8655.0,9398.0,-4137.0,299.0,-100.0,-250.0,-3.0,20.0,-20.0,7686.0,-14427.0,262.0,1077.0,27.0,2.0,-58.0,1.0
2022-05-13 14:50:07.493643-07:00,1411.3,789.4,1515.3,1317.8,817.7,821.9,2011.4,1773.3,3469.8,3462.5,1677.6,1211.5,1920.3,3473.4,1971.7,1561.8,3475.9,3467.4,1062.5,1289.1,1879.1,2484.4,1493.0,3490.5,3477.1,3481.9,785.2,982.5,2062.5,1436.9,1270.3,783.6,-11.0,-6.0,-5.0,9433.0,-8671.0,9291.0,-4234.0,139.0,-90.0,-229.0,-3.0,2.0,-9.0,7693.0,-14424.0,240.0,1065.0,-46.0,-1.0,-57.0,1.0
2022-05-13 14:50:07.629692-07:00,1411.3,789.4,1378.5,1238.2,817.7,821.9,2009.4,1732.0,3469.8,3462.5,1576.8,1155.0,1920.3,3473.4,1774.3,1480.1,3467.4,3467.4,1062.5,1289.1,1878.1,2477.0,1493.0,3490.5,3467.4,3466.1,785.2,982.5,1989.5,1323.2,1270.3,783.6,-2.0,-20.0,4.0,9447.0,-8715.0,9217.0,-4279.0,19.0,-61.0,-185.0,-1.0,7.0,-8.0,7672.0,-14437.0,217.0,1054.0,-62.0,0.0,-45.0,1.0
2022-05-13 14:50:07.630908-07:00,1415.8,791.0,1312.4,1238.2,816.9,817.7,2009.4,1732.0,3468.6,3468.6,1476.4,1155.0,1891.8,3468.6,1774.3,1480.1,3467.4,3467.4,1063.4,1294.5,1878.1,2484.4,1481.0,3495.3,3467.4,3466.1,770.3,956.8,1989.5,1264.9,1200.0,777.8,-17.0,11.0,-18.0,9453.0,-8728.0,9177.0,-4324.0,53.0,-17.0,-91.0,-3.0,-1.0,0.0,7666.0,-14440.0,204.0,1046.0,-34.0,10.0,-24.0,1.0
2022-05-13 14:50:07.671077-07:00,1415.8,791.0,1312.4,1193.8,816.9,816.9,1977.6,1702.4,3468.6,3468.6,1476.4,1111.2,1891.8,3471.0,1705.3,1447.0,3468.6,3464.9,1058.2,1294.5,1891.8,2484.4,1481.0,3495.3,3468.6,3478.3,757.9,956.8,1936.1,1264.9,1200.0,777.8,-4.0,-7.0,-20.0,9439.0,-8790.0,9150.0,-4285.0,-180.0,-164.0,-79.0,0.0,6.0,-8.0,7630.0,-14460.0,197.0,1038.0,-112.0,8.0,-12.0,1.0
2022-05-13 14:50:07.716959-07:00,1419.5,780.3,1278.3,1193.8,807.7,816.9,1977.6,1702.4,3469.8,3461.3,1429.5,1111.2,1869.3,3471.0,1705.3,1447.0,3468.6,3464.9,1058.2,1294.5,1891.8,2474.9,1462.6,3488.0,3468.6,3478.3,757.9,933.9,1936.1,1239.1,1172.6,785.2,-4.0,13.0,-3.0,9452.0,-8807.0,9129.0,-4266.0,143.0,32.0,33.0,-6.0,2.0,-9.0,7625.0,-14463.0,194.0,1038.0,115.0,-11.0,7.0,1.0
2022-05-13 14:50:07.759951-07:00,1419.5,780.3,1278.3,1170.0,807.7,820.2,1945.9,1664.4,3469.8,3461.3,1429.5,1094.7,1869.3,3474.6,1660.6,1431.4,3466.1,3463.7,1053.9,1294.5,1885.0,2474.9,1462.6,3488.0,3477.1,3469.8,740.6,933.9,1911.5,1239.1,1172.6,785.2,4.0,0.0,-20.0,9460.0,-8776.0,9140.0,-4287.0,-24.0,48.0,27.0,6.0,-7.0,-1.0,7641.0,-14454.0,195.0,1039.0,-49.0,0.0,8.0,1.0
2022-05-13 14:50:07.851262-07:00,1398.5,784.4,1256.0,1170.0,806.9,820.2,1945.9,1664.4,3472.2,3463.7,1404.0,1094.7,1846.9,3474.6,1660.6,1431.4,3466.1,3463.7,1053.9,1282.8,1885.0,2481.3,1449.7,3490.5,3477.1,3469.8,740.6,912.7,1911.5,1234.6,1147.1,781.9,10.0,-3.0,-6.0,9444.0,-8785.0,9152.0,-4280.0,2.0,26.0,-13.0,3.0,5.0,-9.0,7624.0,-14464.0,194.0,1039.0,0.0,5.0,-2.0,1.0
2022-05-13 14:50:07.852405-07:00,1398.5,784.4,1256.0,1156.8,806.9,814.4,1961.8,1650.2,3472.2,3463.7,1404.0,1081.6,1846.9,3473.4,1649.2,1413.1,3467.4,3473.4,1059.1,1282.8,1876.2,2481.3,1449.7,3490.5,3475.9,3474.6,745.5,912.7,1882.0,1234.6,1147.1,781.9,-1.0,-10.0,-11.0,9436.0,-8779.0,9161.0,-4290.0,-44.0,14.0,11.0,-4.0,2.0,-6.0,7620.0,-14466.0,194.0,1038.0,-46.0,10.0,10.0,1.0
2022-05-13 14:50:07.894711-07:00,1396.7,787.7,1249.7,1144.5,806.9,814.4,1961.8,1650.2,3469.8,3467.4,1395.7,1072.9,1831.3,3473.4,1649.2,1413.1,3467.4,3473.4,1059.1,1293.6,1880.1,2477.0,1442.4,3489.2,3475.9,3474.6,745.5,911.0,1873.2,1216.8,1154.2,783.6,1.0,-9.0,-1.0,9425.0,-8758.0,9192.0,-4291.0,77.0,136.0,101.0,-3.0,-3.0,-7.0,7617.0,-14467.0,202.0,1041.0,62.0,2.0,23.0,1.0
2022-05-13 14:50:07.941666-07:00,1396.7,787.7,1249.7,1144.5,803.5,815.2,1947.9,1630.3,3469.8,3467.4,1395.7,1072.9,1829.4,3468.6,1634.1,1408.5,3469.8,3474.6,1053.0,1284.6,1880.1,2477.0,1442.4,3489.2,3480.7,3468.6,736.5,903.4,1873.2,1216.8,1154.2,783.6,1.0,10.0,-18.0,9411.0,-8695.0,9250.0,-4324.0,33.0,172.0,85.0,0.0,2.0,-2.0,7636.0,-14456.0,214.0,1046.0,-3.0,13.0,25.0,1.0
2022-05-13 14:50:07.986762-07:00,1392.1,778.6,1231.0,1134.0,803.5,815.2,1947.9,1630.3,3477.1,3477.1,1387.5,1069.5,1829.4,3468.6,1634.1,1408.5,3469.8,3474.6,1053.0,1284.6,1872.3,2467.4,1435.0,3497.8,3480.7,3468.6,736.5,903.4,1846.9,1206.2,1141.9,781.1,8.0,-5.0,-9.0,9378.0,-8658.0,9310.0,-4342.0,-5.0,171.0,84.0,1.0,6.0,-10.0,7630.0,-14459.0,225.0,1047.0,-6.0,10.0,26.0,1.0
2022-05-13 14:50:08.032321-07:00,1392.1,778.6,1231.0,1134.0,811.9,794.4,1945.9,1614.3,3477.1,3477.1,1387.5,1069.5,1818.7,3469.8,1629.4,1398.5,3477.1,3468.6,1057.3,1289.1,1872.3,2467.4,1435.0,3497.8,3477.1,3478.3,736.5,901.7,1846.9,1206.2,1141.9,781.1,0.0,1.0,-15.0,9341.0,-8610.0,9383.0,-4359.0,-10.0,196.0,124.0,4.0,4.0,0.0,7625.0,-14461.0,237.0,1053.0,-13.0,8.0,37.0,1.0
2022-05-13 14:50:08.119782-07:00,1397.6,772.8,1218.6,1128.7,811.9,794.4,1945.9,1614.3,3467.4,3467.4,1370.3,1070.3,1818.7,3469.8,1629.4,1398.5,3477.1,3468.6,1057.3,1289.1,1869.3,2456.8,1423.1,3490.5,3477.1,3478.3,736.5,901.7,1845.0,1205.3,1134.0,786.9,7.0,14.0,-16.0,9297.0,-8580.0,9455.0,-4356.0,-62.0,155.0,70.0,0.0,5.0,-6.0,7607.0,-14471.0,253.0,1056.0,-59.0,14.0,35.0,1.0
2022-05-13 14:50:08.164952-07:00,1374.8,772.8,1218.6,1128.7,804.4,811.0,1933.1,1617.1,3466.1,3467.4,1370.3,1070.3,1811.9,3463.7,1621.8,1396.7,3483.2,3478.3,1065.1,1283.7,1869.3,2456.8,1423.1,3485.6,3479.5,3473.4,738.1,897.4,1845.0,1205.3,1134.0,776.9,1.0,0.0,-17.0,9257.0,-8561.0,9499.0,-4384.0,26.0,150.0,7.0,-4.0,9.0,-7.0,7593.0,-14477.0,263.0,1056.0,-11.0,13.0,13.0,1.0
2022-05-13 14:50:08.209800-07:00,1374.8,776.9,1222.2,1133.1,804.4,811.0,1933.1,1600.2,3466.1,3475.9,1381.2,1066.0,1811.9,3463.7,1621.8,1389.4,3468.6,3478.3,1065.1,1283.7,1860.6,2483.4,1416.7,3485.6,3475.9,3473.4,738.1,897.4,1838.2,1205.3,1130.5,776.9,0.0,-6.0,-25.0,9222.0,-8546.0,9542.0,-4393.0,-77.0,85.0,61.0,0.0,3.0,-15.0,7577.0,-14486.0,272.0,1056.0,-60.0,10.0,22.0,1.0
2022-05-13 14:50:08.301705-07:00,1393.0,776.9,1222.2,1133.1,806.9,802.7,1938.0,1600.2,3463.7,3475.9,1381.2,1066.0,1802.3,3462.5,1619.9,1389.4,3468.6,3478.3,1062.5,1281.0,1860.6,2483.4,1416.7,3497.8,3475.9,3471.0,731.5,890.7,1838.2,1205.3,1130.5,780.3,13.0,2.0,-15.0,9192.0,-8544.0,9581.0,-4376.0,-32.0,57.0,42.0,6.0,8.0,-13.0,7557.0,-14496.0,277.0,1060.0,-25.0,6.0,10.0,1.0
2022-05-13 14:50:08.303216-07:00,1393.0,778.6,1221.3,1121.7,806.9,802.7,1938.0,1597.4,3463.7,3471.0,1383.0,1061.7,1802.3,3462.5,1619.9,1391.2,3478.3,3478.3,1062.5,1281.0,1871.3,2471.7,1409.4,3497.8,3467.4,3471.0,731.5,890.7,1834.3,1197.4,1124.4,780.3,-4.0,-5.0,-19.0,9176.0,-8537.0,9599.0,-4384.0,-4.0,30.0,11.0,0.0,1.0,-4.0,7554.0,-14497.0,277.0,1059.0,-5.0,3.0,-1.0,1.0
2022-05-13 14:50:08.344992-07:00,1380.3,778.6,1221.3,1121.7,799.4,797.7,1924.3,1597.4,3469.8,3471.0,1383.0,1061.7,1794.5,3475.9,1608.7,1391.2,3478.3,3478.3,1050.4,1273.9,1871.3,2471.7,1409.4,3488.0,3467.4,3481.9,725.8,886.5,1834.3,1197.4,1124.4,780.3,1.0,-2.0,-8.0,9171.0,-8542.0,9606.0,-4369.0,-44.0,-11.0,36.0,-3.0,6.0,-6.0,7551.0,-14499.0,277.0,1059.0,-19.0,-7.0,2.0,1.0
2022-05-13 14:50:08.437303-07:00,1380.3,772.8,1216.8,1141.9,799.4,797.7,1924.3,1596.4,3469.8,3475.9,1367.6,1064.3,1794.5,3475.9,1608.7,1382.1,3469.8,3478.3,1050.4,1273.9,1872.3,2471.7,1400.3,3488.0,3473.4,3481.9,725.8,886.5,1835.2,1201.8,1128.7,780.3,-12.0,-53.0,44.0,9153.0,-8528.0,9649.0,-4339.0,-64.0,109.0,176.0,-7.0,-29.0,-9.0,7555.0,-14496.0,284.0,1061.0,59.0,15.0,45.0,1.0
2022-05-13 14:50:08.438434-07:00,1368.5,774.5,1216.8,1141.9,800.2,803.5,1910.5,1596.4,3466.1,3471.0,1367.6,1064.3,1797.4,3464.9,1611.5,1382.1,3469.8,3464.9,1069.5,1284.6,1872.3,2471.7,1409.4,3492.9,3473.4,3473.4,738.1,929.6,1835.2,1201.8,1260.4,776.1,-4.0,47.0,-80.0,9145.0,-8476.0,9717.0,-4307.0,-141.0,-82.0,163.0,3.0,-7.0,4.0,7618.0,-14462.0,332.0,1066.0,204.0,40.0,99.0,1.0
2022-05-13 14:50:08.525948-07:00,1368.5,774.5,1393.9,1226.6,800.2,803.5,1921.3,1581.4,3466.1,3471.0,1555.3,1149.8,1797.4,3464.9,1990.5,1476.4,3471.0,3472.2,1069.5,1284.6,1877.2,2477.0,1409.4,3492.9,3467.4,3472.2,738.1,929.6,1825.5,1377.5,1260.4,776.1,-82.0,20.0,-55.0,9131.0,-8538.0,9730.0,-4180.0,-341.0,-175.0,16.0,-23.0,17.0,-34.0,7642.0,-14448.0,361.0,1074.0,-32.0,-6.0,67.0,1.0
2022-05-13 14:50:08.661095-07:00,1346.7,777.8,1393.9,1226.6,806.9,806.0,1921.3,1581.4,3468.6,3467.4,1555.3,1149.8,1811.0,3462.5,1990.5,1476.4,3471.0,3472.2,1061.7,1289.1,1877.2,2477.0,1436.9,3486.8,3467.4,3472.2,780.3,1003.0,1825.5,1377.5,1557.1,779.4,132.0,-91.0,-62.0,9206.0,-8689.0,9621.0,-3952.0,-176.0,-676.0,85.0,30.0,-7.0,-69.0,7643.0,-14446.0,383.0,1091.0,143.0,-42.0,23.0,1.0
2022-05-13 14:50:08.662322-07:00,1346.7,777.8,1707.2,1534.8,806.9,806.0,1930.2,1588.9,3468.6,3467.4,1691.0,1277.4,1811.0,3462.5,2180.9,1811.0,3467.4,3474.6,1061.7,1289.1,1865.4,2471.7,1436.9,3486.8,3471.0,3480.7,780.3,1003.0,1863.5,1631.3,1557.1,779.4,-53.0,65.0,10.0,9346.0,-8642.0,9544.0,-3914.0,189.0,-286.0,44.0,-5.0,24.0,14.0,7733.0,-14395.0,379.0,1128.0,155.0,-77.0,38.0,1.0
2022-05-13 14:50:08.663537-07:00,1357.6,765.3,1707.2,1534.8,831.1,815.2,1930.2,1588.9,3466.1,3466.1,1691.0,1277.4,1858.6,3474.6,2180.9,1811.0,3467.4,3474.6,1060.8,1287.3,1865.4,2471.7,1419.5,3489.2,3471.0,3480.7,779.4,1003.0,1863.5,1631.3,1425.0,770.3,13.0,0.0,9.0,9436.0,-8717.0,9421.0,-3827.0,-274.0,-497.0,-202.0,-6.0,22.0,0.0,7678.0,-14423.0,376.0,1148.0,-243.0,-31.0,-5.0,1.0
2022-05-13 14:50:08.750752-07:00,1357.6,765.3,1698.6,1553.4,831.1,811.0,1913.4,1601.1,3466.1,3466.1,1657.7,1311.5,1858.6,3462.5,2026.4,1798.4,3477.1,3474.6,1061.7,1287.3,1860.6,2466.4,1419.5,3489.2,3475.9,3475.9,786.9,1003.0,1918.3,1527.3,1425.0,770.3,-35.0,47.0,-10.0,9550.0,-8766.0,9271.0,-3798.0,430.0,-251.0,-83.0,0.0,-9.0,28.0,7680.0,-14421.0,374.0,1159.0,162.0,-7.0,13.0,1.0
2022-05-13 14:50:08.751905-07:00,1337.7,755.4,1676.7,1553.4,837.7,811.0,1913.4,1601.1,3466.1,3467.4,1619.0,1311.5,1859.6,3462.5,2026.4,1798.4,3477.1,3474.6,1061.7,1288.2,1860.6,2473.8,1382.1,3497.8,3475.9,3475.9,786.9,994.5,1918.3,1470.9,1363.0,778.6,25.0,-28.0,-21.0,9678.0,-8812.0,9110.0,-3760.0,-104.0,-554.0,-120.0,8.0,16.0,5.0,7672.0,-14425.0,383.0,1159.0,-115.0,5.0,28.0,1.0
2022-05-13 14:50:08.794819-07:00,1337.7,755.4,1676.7,1519.9,837.7,806.9,1922.3,1705.3,3466.1,3467.4,1619.0,1280.1,1859.6,3469.8,1961.8,1764.6,3469.8,3478.3,1066.9,1288.2,1863.5,2473.8,1382.1,3497.8,3471.0,3477.1,804.4,994.5,1919.3,1470.9,1363.0,778.6,9.0,11.0,-70.0,9757.0,-8877.0,9008.0,-3644.0,64.0,-397.0,-8.0,30.0,-27.0,-3.0,7649.0,-14436.0,402.0,1169.0,8.0,14.0,67.0,1.0
2022-05-13 14:50:08.840142-07:00,1352.1,771.1,1625.6,1519.9,845.3,806.9,1922.3,1705.3,3472.2,3468.6,1604.9,1280.1,1864.5,3469.8,1961.8,1764.6,3469.8,3478.3,1066.9,1287.3,1863.5,2485.5,1364.8,3486.8,3471.0,3477.1,804.4,994.5,1919.3,1451.6,1339.5,774.5,19.0,8.0,-35.0,9811.0,-8951.0,8917.0,-3542.0,-238.0,-369.0,-35.0,0.0,20.0,-19.0,7627.0,-14447.0,419.0,1176.0,-102.0,-3.0,33.0,1.0
2022-05-13 14:50:08.886504-07:00,1352.1,771.1,1625.6,1499.5,845.3,816.9,1950.9,1771.4,3472.2,3468.6,1604.9,1266.7,1864.5,3467.4,1906.6,1757.0,3472.2,3474.6,1064.3,1287.3,1863.5,2485.5,1364.8,3486.8,3472.2,3478.3,780.3,994.5,1960.8,1451.6,1339.5,774.5,4.0,-12.0,-16.0,9820.0,-9053.0,8852.0,-3420.0,-166.0,-297.0,-37.0,-3.0,2.0,-15.0,7591.0,-14464.0,421.0,1189.0,-24.0,-27.0,17.0,1.0
2022-05-13 14:50:08.931766-07:00,1440.5,806.9,1594.6,1495.8,844.4,816.9,1950.9,1771.4,3469.8,3460.1,1579.6,1264.0,1904.6,3467.4,1906.6,1757.0,3472.2,3474.6,1064.3,1291.8,1864.5,2471.7,1345.8,3490.5,3472.2,3478.3,780.3,996.2,2039.4,1427.7,1330.5,783.6,33.0,22.0,0.0,9853.0,-9101.0,8794.0,-3347.0,-102.0,-176.0,3.0,-2.0,44.0,-16.0,7601.0,-14458.0,412.0,1205.0,-16.0,-46.0,-15.0,1.0
2022-05-13 14:50:09.020084-07:00,1440.5,806.9,1594.6,1495.8,859.5,801.0,1951.9,1757.0,3469.8,3460.1,1579.6,1264.0,1877.2,3464.9,1906.6,1741.6,3473.4,3478.3,1059.1,1296.3,1864.5,2471.7,1345.8,3490.5,3475.9,3469.8,795.2,985.9,2039.4,1427.7,1330.5,783.6,-8.0,-2.0,-8.0,9850.0,-9134.0,8777.0,-3308.0,-48.0,-96.0,-49.0,0.0,-8.0,11.0,7596.0,-14461.0,390.0,1214.0,30.0,-25.0,-43.0,1.0
2022-05-13 14:50:09.111721-07:00,1443.3,805.2,1583.3,1495.8,859.5,801.0,1951.9,1757.0,3477.1,3464.9,1570.2,1261.3,1877.2,3464.9,1906.6,1741.6,3473.4,3478.3,1059.1,1296.3,1873.2,2471.7,1329.6,3489.2,3475.9,3469.8,795.2,985.9,2036.4,1417.6,1313.3,802.7,8.0,13.0,8.0,9882.0,-9138.0,8737.0,-3308.0,82.0,-44.0,-2.0,-4.0,21.0,-6.0,7627.0,-14445.0,374.0,1217.0,64.0,-28.0,-28.0,1.0
2022-05-13 14:50:09.156762-07:00,1443.3,805.2,1583.3,1495.8,843.6,794.4,1945.0,1724.4,3477.1,3464.9,1570.2,1261.3,1850.8,3464.9,1873.2,1721.5,3471.0,3469.8,1058.2,1292.7,1873.2,2471.7,1329.6,3489.2,3472.2,3467.4,788.6,983.3,2036.4,1417.6,1313.3,802.7,-26.0,-26.0,-18.0,9879.0,-9135.0,8743.0,-3308.0,-29.0,-3.0,-22.0,-2.0,-26.0,9.0,7624.0,-14447.0,362.0,1214.0,-20.0,6.0,-26.0,1.0
2022-05-13 14:50:09.202201-07:00,1428.6,803.5,1571.1,1481.0,843.6,794.4,1945.0,1724.4,3472.2,3468.6,1557.1,1254.2,1850.8,3464.9,1873.2,1721.5,3471.0,3469.8,1058.2,1292.7,1866.4,2475.9,1323.2,3492.9,3472.2,3467.4,788.6,983.3,2028.4,1426.8,1310.6,811.0,16.0,2.0,-1.0,9892.0,-9138.0,8727.0,-3304.0,29.0,-13.0,14.0,1.0,12.0,-17.0,7634.0,-14441.0,362.0,1213.0,23.0,-3.0,9.0,1.0
2022-05-13 14:50:09.203595-07:00,1428.6,803.5,1571.1,1481.0,837.7,806.9,1938.0,1700.5,3472.2,3468.6,1557.1,1254.2,1824.6,3466.1,1867.4,1724.4,3483.2,3471.0,1059.1,1290.0,1866.4,2475.9,1323.2,3492.9,3475.9,3475.9,776.9,971.3,2028.4,1426.8,1310.6,811.0,-11.0,-8.0,-27.0,9880.0,-9138.0,8741.0,-3303.0,-33.0,6.0,-4.0,0.0,-3.0,-5.0,7627.0,-14445.0,361.0,1212.0,-15.0,8.0,10.0,1.0
2022-05-13 14:50:09.245126-07:00,1430.5,791.0,1579.6,1470.0,837.7,806.9,1938.0,1683.3,3467.4,3473.4,1562.7,1253.3,1824.6,3466.1,1867.4,1711.9,3479.5,3471.0,1059.1,1290.0,1867.4,2482.3,1324.1,3495.3,3477.1,3475.9,776.9,971.3,2018.4,1419.5,1296.3,811.9,0.0,17.0,-26.0,9876.0,-9144.0,8741.0,-3299.0,11.0,21.0,7.0,2.0,12.0,-5.0,7623.0,-14447.0,362.0,1212.0,-3.0,3.0,-3.0,1.0
2022-05-13 14:50:09.336032-07:00,1423.1,791.0,1579.6,1470.0,835.2,797.7,1930.2,1683.3,3472.2,3473.4,1562.7,1253.3,1816.8,3462.5,1856.7,1711.9,3479.5,3462.5,1054.8,1294.5,1867.4,2482.3,1324.1,3492.9,3477.1,3469.8,788.6,966.2,2018.4,1419.5,1296.3,806.0,-2.0,-3.0,-25.0,9871.0,-9147.0,8743.0,-3302.0,24.0,-13.0,-13.0,1.0,6.0,-9.0,7623.0,-14447.0,361.0,1210.0,31.0,4.0,-8.0,1.0
2022-05-13 14:50:09.337872-07:00,1423.1,797.7,1559.9,1466.3,835.2,797.7,1930.2,1674.8,3472.2,3464.9,1553.4,1254.2,1816.8,3462.5,1856.7,1711.0,3467.4,3462.5,1054.8,1294.5,1864.5,2475.9,1312.4,3492.9,3475.9,3469.8,788.6,966.2,2015.4,1398.5,1312.4,806.0,-12.0,-8.0,-16.0,9869.0,-9150.0,8743.0,-3299.0,-16.0,7.0,2.0,-5.0,-4.0,0.0,7625.0,-14447.0,360.0,1210.0,-10.0,-7.0,-9.0,1.0
2022-05-13 14:50:09.382138-07:00,1405.8,797.7,1559.9,1466.3,836.9,801.9,1921.3,1674.8,3467.4,3464.9,1553.4,1254.2,1813.9,3467.4,1856.7,1711.0,3467.4,3475.9,1061.7,1282.8,1864.5,2475.9,1312.4,3481.9,3475.9,3474.6,781.1,959.4,2015.4,1398.5,1312.4,806.0,-12.0,34.0,-18.0,9875.0,-9143.0,8742.0,-3303.0,53.0,24.0,1.0,0.0,9.0,3.0,7633.0,-14442.0,360.0,1212.0,28.0,-6.0,-9.0,1.0
2022-05-13 14:50:09.427070-07:00,1405.8,797.7,1565.5,1462.6,836.9,801.9,1921.3,1660.6,3467.4,3467.4,1550.6,1239.1,1813.9,3467.4,1856.7,1707.2,3475.9,3475.9,1061.7,1282.8,1853.7,2486.6,1309.7,3481.9,3477.1,3474.6,781.1,959.4,2011.4,1407.6,1295.4,806.0,11.0,-8.0,-9.0,9882.0,-9143.0,8732.0,-3305.0,31.0,-16.0,-5.0,4.0,2.0,-15.0,7638.0,-14440.0,355.0,1208.0,34.0,-3.0,-17.0,1.0
2022-05-13 14:50:09.516080-07:00,1415.8,801.9,1565.5,1462.6,835.2,800.2,1916.4,1660.6,3457.6,3474.6,1550.6,1239.1,1808.1,3468.6,1857.6,1707.2,3475.9,3471.0,1062.5,1292.7,1853.7,2486.6,1302.5,3490.5,3477.1,3477.1,776.9,973.9,2011.4,1407.6,1303.4,807.7,-7.0,-15.0,-18.0,9879.0,-9142.0,8735.0,-3310.0,-16.0,-12.0,-21.0,3.0,-10.0,1.0,7640.0,-14439.0,350.0,1205.0,-10.0,9.0,-9.0,1.0
2022-05-13 14:50:09.560055-07:00,1415.8,801.9,1558.1,1447.9,835.2,800.2,1914.4,1643.5,3457.6,3474.6,1553.4,1237.3,1808.1,3468.6,1853.7,1721.5,3474.6,3484.4,1062.5,1292.7,1865.4,2481.3,1302.5,3490.5,3468.6,3473.4,776.9,973.9,1996.5,1402.1,1303.4,807.7,-11.0,3.0,0.0,9881.0,-9143.0,8733.0,-3309.0,2.0,40.0,22.0,-15.0,8.0,-5.0,7641.0,-14438.0,350.0,1206.0,-14.0,-8.0,1.0,1.0
2022-05-13 14:50:09.604778-07:00,1407.6,790.2,1558.1,1447.9,833.6,801.9,1914.4,1643.5,3471.0,3469.8,1553.4,1237.3,1802.3,3464.9,1853.7,1721.5,3474.6,3484.4,1060.8,1289.1,1865.4,2481.3,1300.7,3488.0,3468.6,3473.4,774.5,962.8,1996.5,1402.1,1297.2,810.2,-17.0,-24.0,-13.0,9879.0,-9138.0,8741.0,-3308.0,21.0,-46.0,-3.0,-9.0,-15.0,-6.0,7638.0,-14440.0,350.0,1209.0,15.0,-6.0,6.0,1.0
2022-05-13 14:50:09.651057-07:00,1407.6,790.2,1553.4,1470.9,833.6,801.9,1904.6,1647.3,3471.0,3469.8,1539.4,1247.1,1802.3,3464.9,1834.3,1703.3,3464.9,3466.1,1060.8,1289.1,1868.4,2475.9,1300.7,3488.0,3478.3,3473.4,774.5,962.8,1986.6,1392.1,1297.2,810.2,15.0,12.0,-6.0,9887.0,-9127.0,8743.0,-3309.0,3.0,55.0,32.0,6.0,13.0,-1.0,7648.0,-14434.0,354.0,1219.0,-6.0,-18.0,17.0,1.0
2022-05-13 14:50:09.695680-07:00,1396.7,792.7,1553.4,1470.9,832.7,798.5,1904.6,1647.3,3467.4,3473.4,1539.4,1247.1,1788.7,3473.4,1834.3,1703.3,3464.9,3466.1,1066.9,1294.5,1868.4,2475.9,1298.1,3488.0,3478.3,3473.4,770.3,953.4,1986.6,1392.1,1296.3,804.4,42.0,18.0,7.0,9865.0,-9112.0,8778.0,-3324.0,-10.0,140.0,45.0,14.0,28.0,-5.0,7641.0,-14437.0,353.0,1220.0,-22.0,1.0,-4.0,1.0
2022-05-13 14:50:09.741415-07:00,1396.7,792.7,1560.9,1466.3,832.7,799.4,1906.6,1657.7,3467.4,3473.4,1548.7,1233.7,1788.7,3478.3,1870.3,1696.7,3471.0,3472.2,1070.3,1294.5,1861.5,2485.5,1298.1,3488.0,3473.4,3467.4,775.3,953.4,1985.6,1399.4,1296.3,804.4,50.0,23.0,14.0,9783.0,-9046.0,8905.0,-3408.0,61.0,649.0,106.0,11.0,-10.0,10.0,7631.0,-14443.0,339.0,1215.0,-15.0,-19.0,-42.0,1.0
2022-05-13 14:50:09.785670-07:00,1429.5,789.4,1685.3,1466.3,833.6,799.4,1906.6,1657.7,3478.3,3469.8,1587.1,1233.7,1871.3,3478.3,1870.3,1696.7,3471.0,3472.2,1070.3,1289.1,1861.5,2478.1,1339.5,3501.4,3473.4,3467.4,775.3,955.1,1985.6,1571.1,1425.0,800.2,-26.0,-58.0,-33.0,9604.0,-8971.0,9114.0,-3557.0,-161.0,687.0,84.0,-13.0,-25.0,-18.0,7607.0,-14458.0,316.0,1192.0,-120.0,20.0,-68.0,1.0
2022-05-13 14:50:09.831737-07:00,1429.5,789.4,1685.3,1586.1,833.6,801.9,1919.3,1796.5,3478.3,3469.8,1587.1,1276.5,1871.3,3469.8,2232.2,1792.6,3462.5,3457.6,1059.1,1289.1,1863.5,2478.1,1339.5,3501.4,3483.2,3467.4,774.5,955.1,1969.7,1571.1,1425.0,800.2,17.0,62.0,-47.0,9461.0,-8912.0,9292.0,-3628.0,-76.0,513.0,135.0,-3.0,16.0,-8.0,7579.0,-14474.0,301.0,1183.0,-17.0,15.0,-35.0,1.0
2022-05-13 14:50:09.877396-07:00,1375.7,777.8,1798.4,1586.1,825.2,801.9,1919.3,1796.5,3478.3,3464.9,1707.2,1276.5,1835.2,3469.8,2232.2,1792.6,3462.5,3457.6,1059.1,1290.0,1863.5,2477.0,1404.0,3495.3,3483.2,3467.4,774.5,961.1,1969.7,1726.3,1656.8,800.2,-18.0,13.0,-62.0,9313.0,-8907.0,9418.0,-3699.0,-116.0,392.0,-64.0,-4.0,19.0,-1.0,7542.0,-14496.0,277.0,1158.0,-104.0,51.0,-90.0,1.0
2022-05-13 14:50:09.966488-07:00,1375.7,777.8,1798.4,1569.3,825.2,796.0,1911.5,1770.4,3478.3,3464.9,1707.2,1273.0,1835.2,3467.4,2331.6,1841.1,3483.2,3468.6,1061.7,1290.0,1865.4,2477.0,1404.0,3495.3,3483.2,3464.9,779.4,961.1,1945.0,1726.3,1656.8,800.2,20.0,-20.0,2.0,9269.0,-8911.0,9436.0,-3751.0,141.0,20.0,-97.0,4.0,-10.0,-20.0,7497.0,-14522.0,248.0,1129.0,-77.0,35.0,-61.0,1.0
2022-05-13 14:50:10.011889-07:00,1370.3,769.5,1612.4,1362.1,820.2,796.0,1911.5,1770.4,3472.2,3473.4,1693.8,1245.3,1828.4,3467.4,2331.6,1841.1,3483.2,3468.6,1061.7,1286.4,1858.6,2468.5,1439.6,3486.8,3483.2,3464.9,779.4,997.0,1949.9,1539.4,1542.2,787.7,17.0,31.0,-18.0,9307.0,-8861.0,9394.0,-3879.0,376.0,97.0,-158.0,12.0,16.0,5.0,7520.0,-14512.0,231.0,1105.0,139.0,24.0,-60.0,1.0
2022-05-13 14:50:10.054265-07:00,1370.3,769.5,1612.4,1362.1,816.9,801.0,1887.9,1696.7,3472.2,3473.4,1693.8,1245.3,1814.9,3472.2,2075.5,1649.2,3475.9,3473.4,1055.6,1289.1,1858.6,2468.5,1439.6,3486.8,3478.3,3467.4,779.4,968.8,1949.9,1539.4,1542.2,787.7,20.0,-3.0,26.0,9317.0,-8833.0,9375.0,-3963.0,15.0,139.0,-29.0,-5.0,22.0,-32.0,7536.0,-14506.0,210.0,1088.0,-131.0,-14.0,-55.0,1.0
2022-05-13 14:50:10.146389-07:00,1367.6,761.2,1397.6,1246.2,816.9,801.0,1887.9,1696.7,3467.4,3474.6,1591.7,1163.0,1814.9,3472.2,2075.5,1649.2,3475.9,3473.4,1055.6,1289.1,1863.5,2471.7,1447.9,3495.3,3478.3,3467.4,779.4,968.8,1896.7,1375.7,1318.7,784.4,-29.0,-32.0,15.0,9233.0,-8799.0,9463.0,-4028.0,113.0,264.0,10.0,6.0,-23.0,22.0,7450.0,-14550.0,189.0,1088.0,-113.0,22.0,0.0,1.0
2022-05-13 14:50:10.147771-07:00,1367.6,761.2,1397.6,1246.2,808.5,800.2,1900.7,1636.0,3467.4,3474.6,1591.7,1163.0,1801.3,3468.6,1842.0,1523.6,3477.1,3475.9,1055.6,1289.1,1863.5,2471.7,1447.9,3495.3,3467.4,3475.9,775.3,956.0,1896.7,1375.7,1318.7,784.4,15.0,17.0,-46.0,9246.0,-8737.0,9473.0,-4108.0,99.0,130.0,22.0,-9.0,26.0,-31.0,7466.0,-14543.0,202.0,1075.0,21.0,27.0,9.0,1.0
2022-05-13 14:50:10.235701-07:00,1378.5,761.2,1312.4,1201.8,808.5,800.2,1900.7,1636.0,3469.8,3472.2,1481.9,1121.7,1801.3,3468.6,1842.0,1523.6,3477.1,3475.9,1055.6,1289.1,1868.4,2481.3,1464.4,3488.0,3467.4,3475.9,775.3,956.0,1846.9,1299.0,1242.6,785.2,-22.0,2.0,-34.0,9200.0,-8723.0,9525.0,-4120.0,-65.0,63.0,17.0,1.0,-2.0,7.0,7429.0,-14562.0,200.0,1074.0,-97.0,16.0,6.0,1.0
2022-05-13 14:50:10.236968-07:00,1378.5,761.2,1312.4,1201.8,810.2,807.7,1872.3,1593.6,3469.8,3472.2,1481.9,1121.7,1785.8,3468.6,1732.0,1484.7,3477.1,3475.9,1058.2,1286.4,1868.4,2481.3,1464.4,3488.0,3469.8,3467.4,757.1,921.1,1846.9,1299.0,1242.6,785.2,21.0,-1.0,-26.0,9211.0,-8743.0,9501.0,-4108.0,84.0,-101.0,-56.0,-2.0,3.0,-18.0,7412.0,-14571.0,202.0,1068.0,33.0,15.0,-1.0,1.0
2022-05-13 14:50:10.282631-07:00,1373.0,761.2,1280.1,1169.1,810.2,807.7,1872.3,1574.9,3478.3,3468.6,1438.7,1101.7,1785.8,3468.6,1732.0,1462.6,3466.1,3475.9,1058.2,1286.4,1873.2,2467.4,1450.6,3495.3,3463.7,3467.4,757.1,921.1,1826.5,1271.2,1196.5,788.6,-22.0,10.0,-22.0,9221.0,-8749.0,9481.0,-4120.0,-88.0,-32.0,-36.0,-6.0,3.0,-3.0,7418.0,-14568.0,196.0,1070.0,-55.0,-20.0,-22.0,1.0
2022-05-13 14:50:10.327062-07:00,1372.1,761.2,1280.1,1169.1,806.9,803.5,1858.6,1574.9,3471.0,3468.6,1438.7,1101.7,1772.3,3472.2,1691.0,1462.6,3466.1,3474.6,1059.1,1281.0,1873.2,2467.4,1450.6,3491.7,3463.7,3474.6,748.8,908.4,1826.5,1271.2,1196.5,782.7,17.0,-15.0,0.0,9228.0,-8782.0,9457.0,-4089.0,26.0,-122.0,-29.0,-3.0,-4.0,3.0,7396.0,-14579.0,187.0,1074.0,11.0,-11.0,-8.0,1.0
2022-05-13 14:50:10.551353-07:00,1372.1,764.5,1267.6,1165.6,806.9,803.5,1858.6,1549.7,3471.0,3474.6,1425.0,1087.7,1772.3,3472.2,1691.0,1447.9,3472.2,3474.6,1059.1,1281.0,1859.6,2472.7,1434.1,3491.7,3469.8,3474.6,748.8,908.4,1793.6,1256.9,1183.2,782.7,-6.0,-1.0,6.0,9253.0,-8745.0,9455.0,-4117.0,81.0,113.0,68.0,-3.0,3.0,0.0,7431.0,-14561.0,187.0,1079.0,86.0,-16.0,1.0,1.0
2022-05-13 14:50:10.552690-07:00,1363.9,764.5,1267.6,1165.6,803.5,795.2,1852.8,1549.7,3469.8,3474.6,1425.0,1087.7,1760.8,3462.5,1675.7,1447.9,3472.2,3466.1,1068.6,1284.6,1859.6,2472.7,1434.1,3492.9,3469.8,3471.0,747.2,900.0,1793.6,1256.9,1183.2,778.6,11.0,-20.0,17.0,9235.0,-8724.0,9494.0,-4110.0,-44.0,57.0,78.0,11.0,-5.0,0.0,7430.0,-14561.0,195.0,1082.0,12.0,12.0,30.0,1.0
2022-05-13 14:50:10.553781-07:00,1363.9,759.6,1248.8,1146.3,803.5,795.2,1852.8,1545.0,3469.8,3473.4,1404.0,1076.4,1760.8,3462.5,1675.7,1439.6,3466.1,3466.1,1068.6,1284.6,1860.6,2465.3,1425.9,3492.9,3467.4,3471.0,747.2,900.0,1787.8,1245.3,1169.1,778.6,-4.0,22.0,-14.0,9230.0,-8701.0,9520.0,-4112.0,-25.0,125.0,61.0,-2.0,-1.0,1.0,7427.0,-14562.0,203.0,1085.0,-54.0,6.0,26.0,1.0
2022-05-13 14:50:10.554863-07:00,1361.2,759.6,1248.8,1146.3,799.4,803.5,1854.7,1545.0,3466.1,3473.4,1404.0,1076.4,1749.3,3466.1,1672.9,1439.6,3466.1,3479.5,1043.5,1281.0,1860.6,2465.3,1397.6,3485.6,3467.4,3478.3,738.9,966.2,1787.8,1245.3,1168.2,780.3,-14.0,-9.0,-7.0,9179.0,-8689.0,9578.0,-4117.0,-37.0,84.0,19.0,-3.0,-29.0,-15.0,7400.0,-14576.0,222.0,1087.0,-28.0,20.0,58.0,1.0
2022-05-13 14:50:10.594815-07:00,1361.2,759.6,1246.2,1146.3,799.4,803.5,1846.9,1526.4,3466.1,3473.4,1482.9,1144.5,1749.3,3466.1,1805.2,1515.3,3472.2,3477.1,1043.5,1281.0,1873.2,2456.8,1397.6,3485.6,3472.2,3474.6,738.9,966.2,1787.8,1247.1,1168.2,780.3,52.0,4.0,-83.0,9157.0,-8677.0,9592.0,-4158.0,34.0,196.0,-25.0,-13.0,76.0,-33.0,7388.0,-14580.0,247.0,1105.0,-133.0,-34.0,82.0,1.0
2022-05-13 14:50:10.640017-07:00,1338.6,752.9,1246.2,1146.3,803.5,824.4,1846.9,1526.4,3464.9,3477.1,1482.9,1144.5,1779.1,3469.8,1805.2,1515.3,3472.2,3477.1,1062.5,1281.9,1873.2,2456.8,1389.4,3478.3,3472.2,3474.6,748.8,1095.6,1787.8,1247.1,1175.3,776.9,-141.0,-43.0,197.0,9134.0,-8595.0,9672.0,-4193.0,214.0,149.0,272.0,-3.0,20.0,47.0,7370.0,-14586.0,291.0,1135.0,110.0,21.0,145.0,1.0
2022-05-13 14:50:10.685185-07:00,1338.6,752.9,1274.7,1155.9,803.5,824.4,1840.1,1530.1,3464.9,3477.1,1691.9,1267.6,1779.1,3469.8,2192.2,1781.0,3462.5,3467.4,1062.5,1281.9,1877.2,2475.9,1389.4,3478.3,3469.8,3478.3,748.8,1095.6,1774.3,1352.1,1175.3,776.9,-4.0,64.0,-285.0,9270.0,-8418.0,9752.0,-4068.0,-796.0,155.0,569.0,16.0,66.0,-67.0,7250.0,-14644.0,331.0,1153.0,-724.0,-41.0,77.0,1.0
2022-05-13 14:50:10.731912-07:00,1325.9,752.1,1274.7,1155.9,796.0,883.1,1840.1,1530.1,3471.0,3479.5,1691.9,1267.6,1768.5,3469.8,2192.2,1781.0,3462.5,3467.4,1063.4,1288.2,1877.2,2475.9,1394.8,3492.9,3469.8,3478.3,757.9,1079.0,1774.3,1352.1,1317.8,788.6,6.0,-1.0,-51.0,9039.0,-8759.0,9865.0,-3562.0,-1601.0,-692.0,41.0,-12.0,8.0,64.0,6961.0,-14781.0,328.0,1179.0,-578.0,46.0,74.0,1.0
2022-05-13 14:50:10.776740-07:00,1325.9,752.1,1226.6,1165.6,796.0,866.3,1935.1,1538.5,3471.0,3479.5,1665.3,1243.5,1768.5,3471.0,2059.4,1582.4,3472.2,3475.9,1060.8,1288.2,1860.6,2472.7,1394.8,3492.9,3469.8,3472.2,796.0,1079.0,1795.5,1496.7,1317.8,788.6,14.0,-10.0,-29.0,8979.0,-9117.0,9756.0,-3085.0,-936.0,-566.0,-98.0,5.0,-76.0,-68.0,6881.0,-14818.0,340.0,1188.0,27.0,-2.0,30.0,1.0
2022-05-13 14:50:10.821553-07:00,1344.9,752.1,1727.2,1165.6,796.0,866.3,1935.1,1538.5,3473.4,3471.0,1634.1,1243.5,1761.8,3471.0,2059.4,1582.4,3472.2,3475.9,1060.8,1290.9,1860.6,2474.9,1393.0,3488.0,3469.8,3472.2,796.0,1064.3,1795.5,1576.8,1465.4,788.6,-26.0,-45.0,-164.0,8938.0,-9441.0,9590.0,-2728.0,-955.0,-955.0,-150.0,12.0,-59.0,-33.0,6840.0,-14836.0,340.0,1197.0,-293.0,-87.0,16.0,1.0
2022-05-13 14:50:11.001338-07:00,1344.9,752.1,1727.2,1537.6,796.0,860.4,1920.3,1425.9,3473.4,3471.0,1634.1,1281.9,1761.8,3467.4,2054.4,1665.3,3481.9,3473.4,1058.2,1290.9,1856.7,2474.9,1393.0,3488.0,3480.7,3462.5,798.5,1064.3,1908.5,1576.8,1465.4,788.6,-15.0,72.0,-29.0,8929.0,-9646.0,9485.0,-2389.0,-260.0,-567.0,113.0,49.0,-77.0,75.0,6771.0,-14862.0,344.0,1260.0,119.0,-75.0,115.0,1.0
2022-05-13 14:50:11.002653-07:00,1336.8,799.4,1712.9,1537.6,853.7,860.4,1920.3,1425.9,3471.0,3467.4,1600.2,1281.9,1826.5,3467.4,2054.4,1665.3,3481.9,3473.4,1058.2,1285.5,1856.7,2472.7,1353.1,3495.3,3480.7,3462.5,798.5,1037.5,1908.5,1481.9,1359.4,788.6,108.0,-15.0,65.0,9147.0,-9701.0,9260.0,-2216.0,265.0,-798.0,-78.0,-2.0,53.0,-17.0,6895.0,-14801.0,374.0,1301.0,714.0,-132.0,24.0,1.0
2022-05-13 14:50:11.003823-07:00,1336.8,799.4,1712.9,1562.7,853.7,850.3,2086.6,1443.3,3471.0,3467.4,1600.2,1273.9,1826.5,3469.8,2002.5,1708.1,3469.8,3467.4,1055.6,1285.5,1862.5,2472.7,1353.1,3495.3,3475.9,3464.9,785.2,1037.5,2004.5,1481.9,1359.4,788.6,3.0,198.0,-58.0,9372.0,-9483.0,9250.0,-2262.0,939.0,-144.0,181.0,-14.0,3.0,9.0,7252.0,-14623.0,398.0,1356.0,667.0,-103.0,-27.0,1.0
2022-05-13 14:50:11.046291-07:00,1335.0,866.3,1658.7,1562.7,909.3,850.3,2086.6,1443.3,3466.1,3466.1,1572.1,1273.9,1809.0,3469.8,2002.5,1708.1,3469.8,3467.4,1055.6,1290.9,1862.5,2470.6,1340.4,3485.6,3475.9,3464.9,785.2,1025.4,2004.5,1452.5,1352.1,784.4,7.0,-39.0,30.0,9502.0,-9423.0,9181.0,-2246.0,339.0,-251.0,53.0,-6.0,-17.0,23.0,7415.0,-14538.0,390.0,1395.0,621.0,-121.0,14.0,1.0
2022-05-13 14:50:11.090023-07:00,1335.0,866.3,1658.7,1526.4,905.9,842.8,2110.8,1600.2,3466.1,3466.1,1572.1,1259.6,1798.4,3457.6,1971.7,1690.0,3463.7,3457.6,1059.9,1292.7,1856.7,2470.6,1340.4,3485.6,3466.1,3479.5,777.8,1015.1,1978.6,1452.5,1352.1,784.4,22.0,65.0,35.0,9695.0,-9238.0,9144.0,-2343.0,729.0,4.0,107.0,-5.0,24.0,17.0,7697.0,-14388.0,395.0,1425.0,738.0,-48.0,-48.0,1.0
2022-05-13 14:50:11.135036-07:00,1344.9,864.6,1644.5,1506.0,905.9,842.8,2110.8,1600.2,3478.3,3467.4,1578.6,1258.7,1798.4,3457.6,1971.7,1690.0,3463.7,3457.6,1059.9,1292.7,1841.1,2467.4,1323.2,3492.9,3466.1,3479.5,777.8,1015.1,2003.5,1448.8,1343.1,800.2,17.0,22.0,5.0,9809.0,-9152.0,9080.0,-2451.0,189.0,-74.0,-142.0,4.0,21.0,-8.0,7871.0,-14295.0,379.0,1414.0,160.0,-9.0,-68.0,1.0
2022-05-13 14:50:11.179782-07:00,1344.9,864.6,1644.5,1506.0,889.8,841.9,2039.4,1571.1,3478.3,3467.4,1578.6,1258.7,1804.2,3469.8,1955.8,1673.8,3471.0,3479.5,1060.8,1289.1,1841.1,2467.4,1323.2,3492.9,3471.0,3472.2,766.2,1000.5,2003.5,1448.8,1343.1,800.2,-21.0,-5.0,-22.0,9869.0,-9097.0,9048.0,-2534.0,345.0,-29.0,-30.0,4.0,-40.0,23.0,7954.0,-14251.0,370.0,1397.0,288.0,31.0,-18.0,1.0
2022-05-13 14:50:11.226958-07:00,1336.8,878.9,1616.2,1481.0,889.8,841.9,2039.4,1571.1,3467.4,3468.6,1566.5,1248.8,1804.2,3469.8,1955.8,1673.8,3471.0,3479.5,1060.8,1289.1,1849.8,2466.4,1314.2,3484.4,3471.0,3472.2,766.2,1000.5,2001.5,1426.8,1339.5,802.7,18.0,11.0,-16.0,9938.0,-9062.0,8991.0,-2586.0,138.0,-43.0,-79.0,-3.0,31.0,-19.0,8037.0,-14206.0,376.0,1381.0,103.0,7.0,-25.0,1.0
2022-05-13 14:50:11.271771-07:00,1336.8,878.9,1616.2,1481.0,899.1,826.0,2014.4,1564.6,3467.4,3468.6,1566.5,1248.8,1787.8,3464.9,1930.2,1664.4,3478.3,3474.6,1063.4,1288.2,1849.8,2466.4,1314.2,3484.4,3472.2,3478.3,764.5,993.6,2001.5,1426.8,1339.5,802.7,-18.0,15.0,-43.0,9953.0,-9046.0,8986.0,-2608.0,-17.0,-41.0,-17.0,-4.0,-1.0,0.0,8057.0,-14195.0,375.0,1378.0,-15.0,-3.0,-3.0,1.0
2022-05-13 14:50:11.361816-07:00,1329.6,855.3,1619.0,1485.6,899.1,826.0,2014.4,1540.3,3457.6,3468.6,1565.5,1246.2,1787.8,3464.9,1930.2,1648.3,3478.3,3474.6,1063.4,1288.2,1853.7,2464.2,1300.7,3500.2,3483.2,3478.3,764.5,993.6,1984.6,1428.6,1328.7,806.0,-5.0,29.0,-16.0,9968.0,-9044.0,8971.0,-2611.0,50.0,-11.0,-37.0,-10.0,14.0,1.0,8063.0,-14191.0,376.0,1378.0,31.0,11.0,-6.0,1.0
2022-05-13 14:50:11.404762-07:00,1331.4,855.3,1619.0,1485.6,878.0,826.0,2001.5,1540.3,3467.4,3468.6,1565.5,1246.2,1780.1,3463.7,1924.3,1648.3,3478.3,3478.3,1061.7,1293.6,1853.7,2464.2,1300.7,3492.9,3483.2,3481.9,770.3,997.0,1984.6,1428.6,1328.7,804.4,2.0,-18.0,-23.0,9983.0,-9051.0,8943.0,-2622.0,63.0,-47.0,-18.0,1.0,12.0,-22.0,8078.0,-14183.0,377.0,1373.0,77.0,3.0,-7.0,1.0
2022-05-13 14:50:11.451048-07:00,1331.4,852.0,1604.9,1466.3,878.0,826.0,2001.5,1537.6,3467.4,3467.4,1567.4,1239.1,1780.1,3463.7,1924.3,1651.1,3474.6,3478.3,1061.7,1293.6,1845.0,2467.4,1300.7,3492.9,3474.6,3481.9,770.3,997.0,1970.7,1423.1,1327.8,804.4,-1.0,1.0,-19.0,9989.0,-9052.0,8936.0,-2621.0,-50.0,-40.0,-26.0,-6.0,1.0,-1.0,8079.0,-14183.0,372.0,1370.0,-35.0,-8.0,-23.0,1.0
2022-05-13 14:50:11.495016-07:00,1331.4,852.0,1604.9,1466.3,869.6,826.9,1986.6,1537.6,3463.7,3467.4,1567.4,1239.1,1776.2,3468.6,1911.5,1651.1,3474.6,3473.4,1046.1,1286.4,1845.0,2467.4,1300.7,3488.0,3474.6,3471.0,772.0,983.3,1970.7,1423.1,1327.8,800.2,5.0,-9.0,-4.0,9991.0,-9064.0,8921.0,-2621.0,19.0,-20.0,-17.0,1.0,10.0,-5.0,8078.0,-14184.0,364.0,1366.0,17.0,-2.0,-15.0,1.0
2022-05-13 14:50:11.539819-07:00,1331.4,848.6,1598.3,1467.2,869.6,826.9,1986.6,1545.0,3463.7,3471.0,1547.8,1241.7,1776.2,3468.6,1911.5,1643.5,3471.0,3473.4,1046.1,1286.4,1844.0,2474.9,1297.2,3488.0,3473.4,3471.0,772.0,983.3,1960.8,1416.7,1324.1,800.2,5.0,0.0,-6.0,9987.0,-9056.0,8929.0,-2634.0,15.0,60.0,1.0,0.0,1.0,0.0,8077.0,-14185.0,361.0,1361.0,-14.0,16.0,-11.0,1.0
2022-05-13 14:50:11.585261-07:00,1324.1,864.6,1598.3,1467.2,868.8,831.9,1970.7,1545.0,3463.7,3468.6,1547.8,1241.7,1768.5,3468.6,1895.8,1643.5,3471.0,3478.3,1062.5,1280.1,1844.0,2474.9,1297.2,3483.2,3473.4,3480.7,761.2,979.0,1960.8,1416.7,1320.5,796.0,30.0,10.0,15.0,9960.0,-9043.0,8964.0,-2666.0,6.0,210.0,40.0,1.0,28.0,11.0,8064.0,-14193.0,356.0,1352.0,-48.0,19.0,-24.0,1.0
2022-05-13 14:50:11.630825-07:00,1324.1,864.6,1627.5,1491.2,868.8,831.9,1963.7,1506.0,3463.7,3468.6,1545.9,1236.4,1768.5,3468.6,1911.5,1635.0,3473.4,3471.0,1062.5,1280.1,1857.6,2469.5,1297.2,3483.2,3472.2,3471.0,761.2,979.0,1991.5,1414.9,1320.5,796.0,17.0,16.0,-1.0,9888.0,-8983.0,9084.0,-2733.0,42.0,430.0,149.0,4.0,13.0,18.0,8049.0,-14204.0,348.0,1332.0,-39.0,53.0,-44.0,1.0
2022-05-13 14:50:11.676796-07:00,1357.6,871.3,1627.5,1491.2,866.3,826.9,1963.7,1506.0,3464.9,3468.6,1545.9,1236.4,1849.8,3473.4,1911.5,1635.0,3473.4,3471.0,1062.5,1293.6,1857.6,2469.5,1345.8,3491.7,3472.2,3471.0,767.8,994.5,1991.5,1414.9,1480.1,799.4,60.0,-149.0,17.0,9854.0,-8839.0,9213.0,-2883.0,706.0,539.0,144.0,14.0,-69.0,-48.0,8049.0,-14210.0,338.0,1269.0,197.0,138.0,-115.0,1.0
2022-05-13 14:50:11.812602-07:00,1357.6,871.3,1741.6,1530.1,866.3,826.9,1924.3,1479.2,3464.9,3468.6,1606.8,1233.7,1849.8,3473.4,2175.8,1636.9,3468.6,3469.8,1062.5,1293.6,1838.2,2470.6,1345.8,3491.7,3469.8,3467.4,767.8,994.5,1977.6,1632.2,1480.1,799.4,-31.0,71.0,-163.0,9949.0,-8562.0,9298.0,-3111.0,242.0,2.0,154.0,-4.0,36.0,-35.0,8190.0,-14133.0,349.0,1221.0,235.0,79.0,-55.0,1.0
2022-05-13 14:50:11.813832-07:00,1339.5,862.1,1741.6,1530.1,867.9,831.1,1924.3,1479.2,3468.6,3463.7,1606.8,1233.7,1813.9,3471.0,2175.8,1636.9,3468.6,3469.8,1060.8,1273.0,1838.2,2470.6,1430.5,3490.5,3469.8,3467.4,767.8,1021.1,1977.6,1632.2,1681.4,790.2,42.0,-36.0,31.0,9999.0,-8485.0,9316.0,-3112.0,435.0,-85.0,4.0,-26.0,-17.0,-76.0,8207.0,-14126.0,307.0,1196.0,-150.0,-47.0,-118.0,1.0
2022-05-13 14:50:11.855010-07:00,1339.5,862.1,1580.5,1334.1,867.9,836.9,1907.5,1449.7,3468.6,3463.7,1766.6,1281.0,1813.9,3468.6,2078.5,1619.9,3464.9,3472.2,1056.5,1273.0,1857.6,2471.7,1430.5,3490.5,3469.8,3473.4,770.3,1021.1,1956.8,1696.7,1681.4,790.2,-70.0,108.0,33.0,10164.0,-8181.0,9288.0,-3454.0,992.0,153.0,-181.0,37.0,40.0,76.0,8284.0,-14084.0,290.0,1175.0,249.0,57.0,-59.0,1.0
2022-05-13 14:50:11.991060-07:00,1325.0,876.4,1375.7,1334.1,852.8,836.9,1907.5,1449.7,3466.1,3471.0,1619.0,1281.0,1802.3,3468.6,2078.5,1619.9,3464.9,3472.2,1056.5,1290.0,1857.6,2477.0,1546.9,3488.0,3469.8,3473.4,770.3,1006.5,1956.8,1413.1,1394.8,788.6,38.0,-83.0,26.0,10232.0,-8212.0,9150.0,-3547.0,-13.0,-115.0,-227.0,-5.0,-15.0,-43.0,8221.0,-14125.0,272.0,1126.0,-316.0,47.0,-79.0,1.0
2022-05-13 14:50:11.994431-07:00,1325.0,876.4,1375.7,1222.2,852.8,839.4,1869.3,1419.5,3466.1,3471.0,1619.0,1163.8,1802.3,3471.0,1761.8,1466.3,3471.0,3471.0,1059.1,1290.0,1880.1,2477.0,1546.9,3488.0,3467.4,3464.9,752.1,1006.5,1922.3,1413.1,1394.8,788.6,-16.0,-61.0,29.0,10196.0,-8195.0,9202.0,-3558.0,-28.0,176.0,136.0,1.0,-6.0,-23.0,8111.0,-14189.0,250.0,1116.0,-324.0,4.0,-11.0,1.0
2022-05-13 14:50:11.995558-07:00,1345.8,878.9,1294.5,1222.2,844.4,839.4,1869.3,1419.5,3457.6,3468.6,1389.4,1163.8,1791.6,3471.0,1761.8,1466.3,3471.0,3471.0,1059.1,1291.8,1880.1,2514.3,1526.4,3481.9,3467.4,3464.9,752.1,981.6,1922.3,1319.6,1251.5,788.6,11.0,-10.0,-11.0,10178.0,-8129.0,9260.0,-3610.0,168.0,233.0,36.0,-5.0,13.0,0.0,8067.0,-14215.0,250.0,1110.0,-78.0,17.0,-6.0,1.0
2022-05-13 14:50:12.080613-07:00,1345.8,878.9,1294.5,1174.4,844.4,842.8,1919.3,1391.2,3457.6,3468.6,1389.4,1096.4,1791.6,3473.4,1656.8,1422.2,3474.6,3455.2,1059.1,1291.8,1890.9,2514.3,1526.4,3481.9,3473.4,3461.3,735.6,981.6,1862.5,1319.6,1251.5,788.6,-17.0,-16.0,-22.0,10144.0,-8077.0,9319.0,-3667.0,13.0,189.0,64.0,-12.0,2.0,-9.0,8039.0,-14231.0,251.0,1106.0,-116.0,8.0,7.0,1.0
2022-05-13 14:50:12.083672-07:00,1373.0,867.9,1258.7,1174.4,836.9,842.8,1919.3,1391.2,3469.8,3461.3,1327.8,1096.4,1765.6,3473.4,1656.8,1422.2,3474.6,3455.2,1059.1,1292.7,1890.9,2479.1,1511.5,3495.3,3473.4,3461.3,735.6,950.9,1862.5,1272.1,1199.1,790.2,-12.0,27.0,-24.0,10116.0,-8082.0,9352.0,-3650.0,-99.0,1.0,7.0,2.0,-1.0,11.0,7991.0,-14258.0,253.0,1111.0,-119.0,5.0,14.0,1.0
2022-05-13 14:50:12.171432-07:00,1373.0,867.9,1258.7,1155.9,837.7,831.9,1916.4,1374.8,3469.8,3461.3,1327.8,1076.4,1751.2,3462.5,1633.1,1410.3,3473.4,3471.0,1055.6,1297.2,1889.9,2479.1,1511.5,3495.3,3478.3,3479.5,728.2,946.6,1832.3,1272.1,1199.1,790.2,8.0,-20.0,-18.0,10100.0,-8096.0,9362.0,-3636.0,11.0,82.0,35.0,-14.0,5.0,-29.0,7973.0,-14267.0,250.0,1113.0,-4.0,-20.0,-4.0,1.0
2022-05-13 14:50:12.172595-07:00,1367.6,868.8,1248.8,1141.9,837.7,831.9,1916.4,1374.8,3478.3,3466.1,1310.6,1059.9,1751.2,3462.5,1633.1,1410.3,3473.4,3471.0,1055.6,1297.2,1898.7,2474.9,1494.0,3501.4,3478.3,3479.5,728.2,946.6,1818.7,1246.2,1184.1,786.9,-23.0,18.0,-34.0,10086.0,-8120.0,9370.0,-3603.0,-229.0,-149.0,-23.0,4.0,3.0,8.0,7938.0,-14287.0,247.0,1117.0,-168.0,-2.0,8.0,1.0
2022-05-13 14:50:12.343223-07:00,1367.6,868.8,1248.8,1141.9,844.4,826.9,1887.9,1366.6,3478.3,3466.1,1310.6,1059.9,1734.9,3464.9,1611.5,1395.7,3468.6,3478.3,1055.6,1291.8,1898.7,2474.9,1494.0,3501.4,3471.0,3472.2,718.4,936.4,1818.7,1246.2,1184.1,786.9,12.0,-54.0,5.0,10077.0,-8128.0,9386.0,-3567.0,86.0,88.0,130.0,-11.0,-14.0,-6.0,7918.0,-14297.0,238.0,1130.0,76.0,-39.0,8.0,1.0
2022-05-13 14:50:12.343708-07:00,1355.8,854.5,1239.9,1129.6,844.4,826.9,1887.9,1366.6,3469.8,3464.9,1331.4,1087.7,1734.9,3464.9,1611.5,1395.7,3468.6,3478.3,1055.6,1291.8,1886.0,2490.8,1478.3,3492.9,3471.0,3472.2,718.4,936.4,1790.7,1251.5,1171.8,785.2,-15.0,66.0,-46.0,10092.0,-8176.0,9352.0,-3507.0,-368.0,-372.0,-141.0,8.0,12.0,5.0,7887.0,-14314.0,237.0,1133.0,-234.0,1.0,-16.0,1.0
2022-05-13 14:50:12.398762-07:00,1355.8,854.5,1239.9,1129.6,838.6,868.8,1880.1,1362.1,3469.8,3464.9,1331.4,1087.7,1717.7,3457.6,1603.0,1393.0,3478.3,3473.4,1070.3,1289.1,1886.0,2490.8,1478.3,3492.9,3473.4,3473.4,725.8,1120.9,1790.7,1251.5,1171.8,785.2,-18.0,-39.0,38.0,10047.0,-8340.0,9303.0,-3376.0,-323.0,-138.0,-70.0,0.0,-42.0,2.0,7765.0,-14380.0,221.0,1143.0,-200.0,-15.0,16.0,1.0
2022-05-13 14:50:12.400024-07:00,1327.8,855.3,1227.5,1134.0,838.6,868.8,1880.1,1358.5,3467.4,3468.6,1611.5,1182.3,1717.7,3457.6,1603.0,1406.7,3477.1,3473.4,1070.3,1289.1,1887.9,2485.5,1458.9,3492.9,3477.1,3473.4,725.8,1120.9,1784.9,1242.6,1166.5,781.1,-36.0,114.0,-107.0,10078.0,-8386.0,9266.0,-3270.0,-414.0,-508.0,138.0,-14.0,113.0,-53.0,7705.0,-14412.0,231.0,1144.0,-364.0,5.0,14.0,1.0
2022-05-13 14:50:12.439806-07:00,1306.1,855.3,1227.5,1134.0,822.7,1015.9,1877.2,1358.5,3475.9,3468.6,1611.5,1182.3,1742.6,3474.6,1835.2,1406.7,3477.1,3468.6,1064.3,1287.3,1887.9,2485.5,1458.9,3497.8,3477.1,3478.3,728.2,1136.6,1784.9,1242.6,1166.5,777.8,-45.0,-27.0,-64.0,10045.0,-8384.0,9346.0,-3147.0,-17.0,279.0,300.0,-3.0,-53.0,-9.0,7571.0,-14481.0,228.0,1164.0,-128.0,-31.0,45.0,1.0
2022-05-13 14:50:12.484847-07:00,1306.1,840.3,1216.8,1122.6,822.7,1015.9,1877.2,1349.4,3475.9,3469.8,1711.0,1214.2,1742.6,3474.6,1835.2,1436.9,3481.9,3468.6,1064.3,1287.3,1876.2,2473.8,1447.9,3497.8,3473.4,3478.3,728.2,1136.6,1777.2,1307.0,1168.2,777.8,35.0,22.0,-28.0,9974.0,-8424.0,9410.0,-3073.0,-273.0,-139.0,-31.0,0.0,13.0,-21.0,7537.0,-14497.0,235.0,1185.0,-22.0,-43.0,34.0,1.0
2022-05-13 14:50:12.530105-07:00,1300.7,840.3,1216.8,1122.6,825.2,1026.3,1824.6,1349.4,3463.7,3469.8,1711.0,1214.2,1716.7,3467.4,1971.7,1436.9,3481.9,3464.9,1059.1,1285.5,1876.2,2473.8,1447.9,3490.5,3473.4,3478.3,721.6,1119.1,1777.2,1307.0,1168.2,781.9,44.0,225.0,-156.0,9882.0,-8713.0,9305.0,-2877.0,-1308.0,-759.0,-486.0,19.0,122.0,61.0,7464.0,-14534.0,227.0,1200.0,-855.0,-46.0,-83.0,1.0
2022-05-13 14:50:12.577031-07:00,1300.7,819.4,1205.3,1117.4,825.2,1026.3,1824.6,1341.3,3463.7,3468.6,1664.4,1156.8,1716.7,3467.4,1971.7,1401.2,3466.1,3464.9,1059.1,1285.5,1868.4,2468.5,1420.4,3490.5,3473.4,3478.3,721.6,1119.1,1769.5,1309.7,1190.3,781.9,-11.0,-195.0,90.0,9645.0,-9327.0,9079.0,-2448.0,-1294.0,-682.0,-519.0,-15.0,-33.0,-13.0,7151.0,-14692.0,145.0,1187.0,-313.0,14.0,-80.0,1.0
2022-05-13 14:50:12.621776-07:00,1309.7,815.2,1205.3,1117.4,831.1,1079.0,1833.3,1341.3,3464.9,3467.4,1664.4,1156.8,1714.8,3463.7,1952.9,1401.2,3466.1,3467.4,1069.5,1288.2,1868.4,2468.5,1407.6,3490.5,3473.4,3478.3,756.3,1092.9,1769.5,1309.7,1576.8,777.8,40.0,22.0,-98.0,9665.0,-9542.0,8883.0,-2251.0,-342.0,-524.0,-124.0,-30.0,54.0,-82.0,7164.0,-14685.0,151.0,1199.0,-90.0,-108.0,57.0,1.0
2022-05-13 14:50:12.711704-07:00,1309.7,815.2,1265.8,1163.8,831.1,1079.0,1797.4,1300.7,3464.9,3467.4,1666.3,1304.3,1714.8,3463.7,2094.7,1591.7,3473.4,3480.7,1069.5,1288.2,1858.6,2484.4,1407.6,3490.5,3477.1,3469.8,756.3,1092.9,1824.6,1657.7,1576.8,777.8,-12.0,-115.0,63.0,9515.0,-9831.0,8796.0,-1969.0,-1060.0,-360.0,-170.0,-6.0,-51.0,8.0,6977.0,-14770.0,133.0,1264.0,-506.0,-139.0,91.0,1.0
2022-05-13 14:50:12.756930-07:00,1314.2,828.5,1265.8,1163.8,831.1,1007.3,1797.4,1300.7,3468.6,3472.2,1666.3,1304.3,1726.3,3464.9,2094.7,1591.7,3473.4,3480.7,1070.3,1294.5,1858.6,2484.4,1394.8,3484.4,3477.1,3469.8,798.5,1062.5,1824.6,1657.7,1478.3,789.4,17.0,-1.0,20.0,9526.0,-9963.0,8669.0,-1810.0,38.0,-495.0,-108.0,13.0,8.0,-2.0,6960.0,-14771.0,155.0,1332.0,382.0,-102.0,109.0,1.0
2022-05-13 14:50:12.802464-07:00,1314.2,828.5,1734.9,1512.5,831.1,1007.3,1765.6,1281.9,3468.6,3472.2,1660.6,1344.0,1726.3,3464.9,2080.6,1741.6,3466.1,3473.4,1070.3,1294.5,1864.5,2473.8,1394.8,3484.4,3464.9,3477.1,798.5,1062.5,1835.2,1584.2,1478.3,789.4,13.0,-32.0,19.0,9621.0,-9945.0,8590.0,-1782.0,233.0,-96.0,-15.0,-16.0,-39.0,-9.0,7070.0,-14715.0,185.0,1376.0,266.0,-57.0,81.0,1.0
2022-05-13 14:50:12.844727-07:00,1383.9,806.0,1734.9,1512.5,882.3,968.8,1765.6,1281.9,3468.6,3462.5,1660.6,1344.0,1733.9,3467.4,2080.6,1741.6,3466.1,3473.4,1058.2,1297.2,1864.5,2473.8,1392.1,3495.3,3464.9,3477.1,784.4,1028.8,1835.2,1584.2,1401.2,757.1,38.0,44.0,12.0,9777.0,-9830.0,8533.0,-1846.0,481.0,-98.0,-8.0,7.0,30.0,-15.0,7256.0,-14620.0,237.0,1410.0,585.0,-31.0,83.0,1.0
2022-05-13 14:50:12.890121-07:00,1383.9,806.0,1705.3,1522.7,882.3,968.8,1985.6,1413.1,3468.6,3462.5,1636.9,1320.5,1733.9,3467.4,2015.4,1748.3,3464.9,3471.0,1058.2,1297.2,1859.6,2473.8,1392.1,3495.3,3474.6,3472.2,784.4,1028.8,1851.8,1512.5,1401.2,757.1,7.0,63.0,11.0,9845.0,-9714.0,8559.0,-1971.0,251.0,329.0,31.0,-25.0,32.0,-15.0,7437.0,-14526.0,276.0,1429.0,226.0,-7.0,24.0,1.0
2022-05-13 14:50:12.937007-07:00,1364.8,801.0,1652.0,1522.7,878.0,954.3,1985.6,1413.1,3474.6,3469.8,1613.4,1320.5,1780.1,3469.8,2015.4,1748.3,3464.9,3471.0,1062.5,1310.6,1859.6,2475.9,1366.6,3486.8,3474.6,3472.2,788.6,1015.1,1851.8,1484.7,1365.7,781.1,-57.0,-69.0,-77.0,9840.0,-9641.0,8619.0,-2087.0,314.0,90.0,40.0,-13.0,-35.0,8.0,7534.0,-14476.0,292.0,1426.0,480.0,-14.0,54.0,1.0
2022-05-13 14:50:12.981914-07:00,1364.8,801.0,1652.0,1500.4,878.0,954.3,1963.7,1477.3,3474.6,3469.8,1613.4,1310.6,1780.1,3464.9,1971.7,1704.3,3462.5,3472.2,1087.7,1310.6,1862.5,2475.9,1366.6,3486.8,3478.3,3473.4,784.4,1015.1,1932.1,1484.7,1365.7,781.1,34.0,-56.0,31.0,9921.0,-9456.0,8705.0,-2197.0,648.0,511.0,365.0,-2.0,-7.0,-35.0,7742.0,-14363.0,323.0,1449.0,696.0,-68.0,54.0,1.0
2022-05-13 14:50:13.027541-07:00,1359.4,809.4,1626.5,1500.4,869.6,954.3,1963.7,1477.3,3468.6,3474.6,1594.6,1310.6,1798.4,3464.9,1971.7,1704.3,3462.5,3472.2,1087.7,1279.2,1862.5,2474.9,1343.1,3496.6,3478.3,3473.4,784.4,998.7,1932.1,1459.8,1340.4,788.6,-37.0,76.0,-74.0,9940.0,-9248.0,8866.0,-2345.0,94.0,278.0,217.0,-1.0,20.0,21.0,7921.0,-14263.0,338.0,1466.0,55.0,-42.0,6.0,1.0
2022-05-13 14:50:13.072349-07:00,1359.4,809.4,1626.5,1460.8,869.6,945.8,1936.1,1518.0,3468.6,3474.6,1594.6,1299.0,1798.4,3463.7,1939.0,1685.3,3472.2,3477.1,1063.4,1279.2,1848.9,2474.9,1343.1,3496.6,3471.0,3475.9,779.4,998.7,1921.3,1459.8,1340.4,788.6,10.0,-19.0,15.0,9940.0,-9142.0,8967.0,-2378.0,380.0,258.0,247.0,-5.0,-19.0,-8.0,7978.0,-14229.0,341.0,1483.0,354.0,-49.0,44.0,1.0
2022-05-13 14:50:13.117494-07:00,1345.8,794.4,1602.1,1460.8,858.7,945.8,1936.1,1518.0,3462.5,3464.9,1577.7,1299.0,1772.3,3463.7,1939.0,1685.3,3472.2,3477.1,1063.4,1292.7,1848.9,2470.6,1331.4,3485.6,3471.0,3475.9,779.4,997.9,1921.3,1448.8,1323.2,796.9,-5.0,30.0,-53.0,9966.0,-9068.0,8998.0,-2433.0,-120.0,-67.0,-27.0,8.0,10.0,-23.0,8047.0,-14189.0,355.0,1492.0,-127.0,0.0,19.0,1.0
2022-05-13 14:50:13.207545-07:00,1345.8,794.4,1602.1,1448.8,858.7,943.2,1898.7,1496.7,3462.5,3464.9,1577.7,1290.0,1774.3,3467.4,1931.1,1684.3,3480.7,3478.3,1053.9,1294.5,1857.6,2470.6,1331.4,3485.6,3474.6,3475.9,771.1,987.6,1904.6,1448.8,1323.2,796.9,9.0,25.0,-8.0,9960.0,-9069.0,9004.0,-2433.0,84.0,70.0,22.0,2.0,9.0,13.0,8033.0,-14196.0,361.0,1496.0,27.0,10.0,15.0,1.0
2022-05-13 14:50:13.249923-07:00,1341.3,793.5,1589.9,1422.2,858.7,943.2,1898.7,1496.7,3474.6,3475.9,1569.3,1286.4,1774.3,3467.4,1931.1,1684.3,3480.7,3478.3,1053.9,1294.5,1850.8,2463.2,1323.2,3489.2,3474.6,3475.9,771.1,987.6,1886.9,1425.0,1317.8,792.7,22.0,-18.0,-7.0,9975.0,-9096.0,8961.0,-2427.0,-10.0,-98.0,-59.0,-10.0,36.0,-34.0,8036.0,-14195.0,363.0,1490.0,10.0,7.0,-16.0,1.0
2022-05-13 14:50:13.300273-07:00,1341.3,793.5,1589.9,1422.2,854.5,927.1,1886.9,1447.9,3474.6,3475.9,1569.3,1286.4,1765.6,3473.4,1920.3,1678.6,3472.2,3478.3,1059.9,1292.7,1850.8,2463.2,1323.2,3489.2,3472.2,3473.4,771.1,982.5,1886.9,1425.0,1317.8,792.7,-45.0,10.0,-50.0,9971.0,-9094.0,8967.0,-2432.0,-7.0,-30.0,-30.0,-6.0,-22.0,21.0,8033.0,-14197.0,359.0,1492.0,3.0,6.0,-10.0,1.0
2022-05-13 14:50:13.419450-07:00,1322.3,796.9,1575.8,1425.9,854.5,927.1,1886.9,1447.9,3461.3,3471.0,1564.6,1277.4,1765.6,3473.4,1920.3,1678.6,3472.2,3478.3,1059.9,1292.7,1852.8,2469.5,1320.5,3495.3,3472.2,3473.4,771.1,982.5,1920.3,1426.8,1311.5,787.7,11.0,7.0,-8.0,9987.0,-9109.0,8938.0,-2416.0,9.0,-46.0,-14.0,-5.0,34.0,-7.0,8041.0,-14192.0,357.0,1494.0,13.0,-16.0,-3.0,1.0
2022-05-13 14:50:13.420614-07:00,1322.3,796.9,1575.8,1425.9,854.5,925.4,1881.1,1468.1,3461.3,3471.0,1564.6,1277.4,1753.1,3466.1,1903.6,1669.1,3467.4,3464.9,1061.7,1289.1,1852.8,2469.5,1320.5,3495.3,3474.6,3488.0,748.8,980.7,1920.3,1426.8,1311.5,787.7,-13.0,-19.0,-29.0,9983.0,-9118.0,8933.0,-2417.0,-13.0,-56.0,-53.0,3.0,-18.0,0.0,8033.0,-14197.0,349.0,1496.0,-15.0,6.0,-26.0,1.0
2022-05-13 14:50:13.430565-07:00,1332.3,796.0,1565.5,1426.8,854.5,925.4,1881.1,1460.8,3471.0,3468.6,1555.3,1279.2,1753.1,3466.1,1903.6,1656.8,3478.3,3464.9,1061.7,1289.1,1849.8,2469.5,1332.3,3492.9,3481.9,3488.0,748.8,980.7,1894.8,1415.8,1309.7,791.9,9.0,5.0,-11.0,9998.0,-9124.0,8911.0,-2410.0,-37.0,-9.0,15.0,0.0,7.0,-12.0,8046.0,-14190.0,344.0,1496.0,-31.0,-22.0,-6.0,1.0
2022-05-13 14:50:13.477123-07:00,1317.8,796.0,1565.5,1426.8,855.3,927.9,1870.3,1460.8,3462.5,3468.6,1555.3,1279.2,1749.3,3464.9,1902.6,1656.8,3478.3,3473.4,1054.8,1286.4,1849.8,2469.5,1332.3,3486.8,3481.9,3473.4,767.8,977.3,1894.8,1415.8,1309.7,783.6,-2.0,-6.0,-9.0,9996.0,-9137.0,8904.0,-2396.0,7.0,-64.0,-19.0,1.0,12.0,-1.0,8033.0,-14197.0,342.0,1497.0,14.0,6.0,-2.0,1.0
2022-05-13 14:50:13.521812-07:00,1317.8,777.8,1565.5,1419.5,855.3,927.9,1870.3,1451.6,3462.5,3471.0,1557.1,1277.4,1749.3,3464.9,1902.6,1655.8,3478.3,3473.4,1054.8,1286.4,1841.1,2466.4,1307.0,3486.8,3480.7,3473.4,767.8,977.3,1886.0,1415.8,1307.0,783.6,7.0,-4.0,-5.0,9996.0,-9133.0,8907.0,-2402.0,33.0,79.0,36.0,-1.0,6.0,-6.0,8033.0,-14197.0,343.0,1497.0,6.0,4.0,-6.0,1.0
2022-05-13 14:50:13.566758-07:00,1316.0,777.8,1565.5,1419.5,846.1,921.1,1854.7,1451.6,3468.6,3471.0,1557.1,1277.4,1739.7,3466.1,1891.8,1655.8,3478.3,3478.3,1057.3,1287.3,1841.1,2466.4,1307.0,3490.5,3480.7,3473.4,762.0,967.1,1886.0,1415.8,1307.0,786.9,4.0,5.0,-16.0,9977.0,-9117.0,8941.0,-2415.0,-6.0,88.0,39.0,2.0,17.0,-4.0,8021.0,-14204.0,340.0,1493.0,-53.0,11.0,-15.0,1.0
2022-05-13 14:50:13.836831-07:00,1316.0,784.4,1576.8,1423.1,846.1,921.1,1854.7,1444.2,3468.6,3478.3,1553.4,1272.1,1739.7,3466.1,1891.8,1654.9,3471.0,3478.3,1057.3,1287.3,1843.0,2463.2,1307.0,3490.5,3462.5,3473.4,762.0,967.1,1887.9,1436.0,1309.7,786.9,42.0,27.0,2.0,9934.0,-9091.0,9008.0,-2441.0,-31.0,301.0,93.0,9.0,18.0,18.0,7996.0,-14220.0,329.0,1480.0,-98.0,24.0,-49.0,1.0
2022-05-13 14:50:14.016985-07:00,1329.6,784.4,1576.8,1423.1,847.8,915.2,1861.5,1444.2,3458.9,3478.3,1553.4,1272.1,1779.1,3475.9,1902.6,1654.9,3471.0,3474.6,1063.4,1310.6,1843.0,2463.2,1307.0,3495.3,3462.5,3474.6,761.2,965.4,1887.9,1436.0,1309.7,782.7,5.0,-124.0,-19.0,9880.0,-9017.0,9125.0,-2501.0,332.0,337.0,226.0,9.0,-68.0,2.0,7980.0,-14233.0,309.0,1441.0,143.0,87.0,-84.0,1.0
2022-05-13 14:50:14.062471-07:00,1329.6,776.9,1648.3,1457.1,847.8,915.2,1874.2,1481.0,3458.9,3460.1,1604.9,1297.2,1779.1,3475.9,2126.0,1667.2,3466.1,3480.7,1063.4,1310.6,1837.2,2463.2,1344.9,3495.3,3475.9,3472.2,761.2,965.4,1856.7,1561.8,1425.9,782.7,-15.0,18.0,-78.0,9965.0,-8786.0,9210.0,-2670.0,484.0,208.0,143.0,8.0,-8.0,-10.0,8123.0,-14157.0,322.0,1393.0,277.0,71.0,-44.0,1.0
2022-05-13 14:50:14.105748-07:00,1317.8,772.0,1648.3,1457.1,843.6,929.6,1874.2,1481.0,3457.6,3467.4,1604.9,1297.2,1769.5,3468.6,2126.0,1667.2,3466.1,3480.7,1061.7,1288.2,1837.2,2463.2,1417.6,3492.9,3475.9,3472.2,759.6,1002.2,1856.7,1561.8,1641.6,779.4,65.0,-41.0,-96.0,9994.0,-8746.0,9216.0,-2671.0,157.0,-63.0,146.0,-5.0,30.0,-34.0,8175.0,-14131.0,312.0,1346.0,96.0,57.0,-106.0,1.0
2022-05-13 14:50:14.109076-07:00,1317.8,772.0,1614.3,1363.0,843.6,929.6,1856.7,1457.1,3457.6,3467.4,1748.3,1337.7,1769.5,3468.6,2085.6,1645.4,3474.6,3471.0,1061.7,1288.2,1848.9,2461.0,1417.6,3492.9,3467.4,3480.7,759.6,1002.2,1836.2,1673.8,1641.6,779.4,31.0,40.0,83.0,10174.0,-8523.0,9176.0,-2844.0,1084.0,228.0,-23.0,-11.0,-56.0,-39.0,8261.0,-14085.0,288.0,1315.0,356.0,51.0,-80.0,1.0
2022-05-13 14:50:14.109869-07:00,1317.8,772.0,1614.3,1363.0,843.6,929.6,1856.7,1457.1,3457.6,3467.4,1748.3,1337.7,1769.5,3468.6,2085.6,1645.4,3474.6,3471.0,1061.7,1288.2,1848.9,2461.0,1417.6,3492.9,3467.4,3480.7,759.6,1002.2,1836.2,1673.8,1641.6,779.4,31.0,40.0,83.0,10174.0,-8523.0,9176.0,-2844.0,1084.0,228.0,-23.0,-11.0,-56.0,-39.0,8261.0,-14085.0,288.0,1315.0,356.0,51.0,-80.0,1.0
2022-05-13 14:50:14.110608-07:00,1317.8,772.0,1614.3,1363.0,843.6,929.6,1856.7,1457.1,3457.6,3467.4,1748.3,1337.7,1769.5,3468.6,2085.6,1645.4,3474.6,3471.0,1061.7,1288.2,1848.9,2461.0,1417.6,3492.9,3467.4,3480.7,759.6,1002.2,1836.2,1673.8,1641.6,779.4,31.0,40.0,83.0,10174.0,-8523.0,9176.0,-2844.0,1084.0,228.0,-23.0,-11.0,-56.0,-39.0,8261.0,-14085.0,288.0,1315.0,356.0,51.0,-80.0,1.0
2022-05-13 14:50:14.112056-07:00,1335.9,793.5,1289.1,1172.6,836.1,923.7,1834.3,1374.8,3466.1,3467.4,1350.3,1132.2,1719.6,3474.6,1669.1,1436.0,3469.8,3473.4,1057.3,1287.3,1869.3,2483.4,1495.8,3496.6,3478.3,3469.8,736.5,949.2,1787.8,1261.3,1198.2,772.8,-16.0,6.0,-60.0,10186.0,-8136.0,9329.0,-3385.0,47.0,155.0,28.0,1.0,5.0,-11.0,8079.0,-14203.0,272.0,1170.0,-116.0,36.0,9.0,1.0
2022-05-13 14:50:14.196875-07:00,1335.9,793.5,1289.1,1152.4,836.1,917.7,1824.6,1375.7,3466.1,3467.4,1350.3,1102.5,1719.6,3468.6,1611.5,1411.3,3472.2,3472.2,1055.6,1287.3,1878.1,2483.4,1495.8,3496.6,3478.3,3467.4,718.4,949.2,1763.7,1261.3,1198.2,772.8,-8.0,9.0,-15.0,10141.0,-8154.0,9362.0,-3384.0,-133.0,63.0,-36.0,0.0,11.0,-2.0,8027.0,-14233.0,278.0,1165.0,-97.0,26.0,11.0,1.0
2022-05-13 14:50:14.198287-07:00,1339.5,798.5,1272.1,1152.4,821.0,917.7,1824.6,1375.7,3471.0,3457.6,1317.8,1102.5,1701.4,3468.6,1611.5,1411.3,3472.2,3472.2,1055.6,1288.2,1878.1,2475.9,1481.0,3488.0,3478.3,3467.4,718.4,946.6,1763.7,1238.2,1167.4,780.3,0.0,6.0,-50.0,10141.0,-8147.0,9364.0,-3397.0,77.0,-17.0,26.0,-11.0,27.0,-24.0,8029.0,-14232.0,287.0,1161.0,33.0,12.0,3.0,1.0
2022-05-13 14:50:14.239899-07:00,1339.5,798.5,1272.1,1147.1,821.0,905.9,1808.1,1345.8,3471.0,3457.6,1317.8,1089.5,1701.4,3464.9,1591.7,1396.7,3474.6,3472.2,1049.6,1288.2,1875.2,2475.9,1481.0,3488.0,3475.9,3464.9,718.4,946.6,1757.9,1238.2,1167.4,780.3,19.0,28.0,-33.0,10128.0,-8174.0,9370.0,-3354.0,-212.0,-76.0,-11.0,-3.0,24.0,-18.0,7994.0,-14251.0,287.0,1163.0,-135.0,-8.0,-12.0,1.0
2022-05-13 14:50:14.284882-07:00,1329.6,798.5,1259.6,1132.2,814.4,905.9,1808.1,1345.8,3474.6,3467.4,1310.6,1079.0,1692.9,3464.9,1591.7,1396.7,3474.6,3472.2,1049.6,1287.3,1869.3,2472.7,1476.4,3489.2,3475.9,3464.9,718.4,924.5,1739.7,1227.5,1155.9,780.3,-2.0,-11.0,-13.0,10115.0,-8185.0,9373.0,-3359.0,119.0,52.0,-6.0,-2.0,1.0,-1.0,7975.0,-14262.0,274.0,1167.0,83.0,-18.0,-19.0,1.0
2022-05-13 14:50:14.332154-07:00,1329.6,798.5,1259.6,1132.2,816.0,900.8,1813.9,1326.8,3474.6,3467.4,1310.6,1079.0,1679.5,3464.9,1573.9,1384.8,3473.4,3473.4,1059.9,1290.9,1869.3,2472.7,1476.4,3489.2,3473.4,3472.2,711.0,917.7,1739.7,1227.5,1155.9,780.3,-2.0,-3.0,-14.0,10117.0,-8190.0,9372.0,-3343.0,-83.0,-88.0,14.0,4.0,-1.0,0.0,7984.0,-14257.0,268.0,1170.0,-24.0,-18.0,-2.0,1.0
2022-05-13 14:50:14.422477-07:00,1321.4,796.0,1250.6,1126.1,816.0,900.8,1813.9,1326.8,3468.6,3472.2,1294.5,1074.7,1679.5,3464.9,1573.9,1384.8,3473.4,3473.4,1059.9,1290.9,1869.3,2463.2,1458.9,3491.7,3473.4,3472.2,711.0,917.7,1733.9,1222.2,1142.7,775.3,-4.0,-17.0,-1.0,10122.0,-8192.0,9371.0,-3325.0,47.0,55.0,45.0,-5.0,-13.0,1.0,7984.0,-14256.0,264.0,1177.0,38.0,-16.0,1.0,1.0
2022-05-13 14:50:14.423739-07:00,1321.4,796.0,1250.6,1126.1,817.7,885.6,1796.5,1328.7,3468.6,3472.2,1294.5,1074.7,1675.7,3462.5,1568.3,1379.4,3472.2,3472.2,1053.9,1284.6,1869.3,2463.2,1458.9,3491.7,3483.2,3471.0,711.8,907.6,1733.9,1222.2,1142.7,775.3,-3.0,22.0,-25.0,10118.0,-8184.0,9384.0,-3320.0,-60.0,-20.0,9.0,3.0,14.0,0.0,7989.0,-14253.0,266.0,1179.0,-63.0,2.0,9.0,1.0
2022-05-13 14:50:14.464859-07:00,1321.4,792.7,1228.4,1118.2,817.7,885.6,1796.5,1328.7,3473.4,3471.0,1296.3,1066.0,1675.7,3462.5,1568.3,1379.4,3472.2,3472.2,1053.9,1284.6,1856.7,2473.8,1451.6,3486.8,3483.2,3471.0,711.8,907.6,1721.5,1207.1,1142.7,769.5,8.0,-23.0,-2.0,10089.0,-8224.0,9388.0,-3299.0,-80.0,58.0,-27.0,0.0,-10.0,-2.0,7949.0,-14275.0,263.0,1179.0,-86.0,6.0,5.0,1.0
2022-05-13 14:50:14.511979-07:00,1306.1,792.7,1228.4,1118.2,821.9,883.1,1783.9,1324.1,3469.8,3471.0,1296.3,1066.0,1674.8,3478.3,1569.3,1375.7,3464.9,3469.8,1055.6,1286.4,1856.7,2473.8,1451.6,3484.4,3466.1,3480.7,708.5,910.1,1721.5,1207.1,1142.7,771.1,-3.0,-12.0,-18.0,10073.0,-8233.0,9397.0,-3301.0,-14.0,-19.0,1.0,-2.0,1.0,-4.0,7933.0,-14284.0,263.0,1180.0,2.0,9.0,15.0,1.0
2022-05-13 14:50:14.599305-07:00,1306.1,786.1,1233.7,1118.2,821.9,883.1,1783.9,1330.5,3469.8,3467.4,1306.1,1076.4,1674.8,3478.3,1569.3,1375.7,3480.7,3469.8,1055.6,1286.4,1861.5,2473.8,1436.9,3484.4,3478.3,3480.7,708.5,910.1,1723.4,1228.4,1131.4,771.1,-12.0,4.0,-18.0,10078.0,-8246.0,9389.0,-3275.0,-71.0,-102.0,5.0,-6.0,-3.0,-4.0,7935.0,-14283.0,270.0,1183.0,13.0,-9.0,15.0,1.0
2022-05-13 14:50:14.645565-07:00,1303.4,786.1,1233.7,1118.2,818.5,897.4,1777.2,1330.5,3473.4,3467.4,1306.1,1076.4,1672.9,3471.0,1560.9,1375.7,3480.7,3467.4,1052.2,1285.5,1861.5,2473.8,1436.9,3496.6,3478.3,3467.4,706.9,1004.8,1723.4,1228.4,1131.4,772.0,-46.0,92.0,-96.0,10106.0,-8293.0,9343.0,-3197.0,-215.0,-342.0,11.0,-5.0,30.0,-12.0,7940.0,-14280.0,277.0,1187.0,23.0,13.0,28.0,1.0
2022-05-13 14:50:14.691900-07:00,1303.4,787.7,1240.8,1112.1,818.5,897.4,1777.2,1321.4,3473.4,3464.9,1610.5,1212.4,1672.9,3471.0,1560.9,1402.1,3468.6,3467.4,1052.2,1285.5,1850.8,2478.1,1462.6,3496.6,3472.2,3467.4,706.9,1004.8,1709.1,1219.5,1134.0,772.0,-31.0,-1.0,-40.0,10046.0,-8458.0,9328.0,-2993.0,-548.0,-86.0,135.0,-7.0,15.0,-8.0,7879.0,-14312.0,281.0,1197.0,-98.0,-23.0,50.0,1.0
2022-05-13 14:50:14.735450-07:00,1291.8,787.7,1240.8,1112.1,811.0,991.9,1779.1,1321.4,3472.2,3464.9,1610.5,1212.4,1733.0,3466.1,1830.4,1402.1,3468.6,3473.4,1059.9,1280.1,1850.8,2478.1,1462.6,3486.8,3472.2,3471.0,742.2,1109.5,1709.1,1219.5,1134.0,778.6,56.0,-82.0,-3.0,10026.0,-8455.0,9401.0,-2835.0,117.0,-37.0,349.0,9.0,-47.0,-24.0,7886.0,-14306.0,305.0,1224.0,149.0,-38.0,107.0,1.0
2022-05-13 14:50:14.779844-07:00,1291.8,774.5,1235.5,1120.9,811.0,991.9,1759.8,1310.6,3472.2,3467.4,1724.4,1306.1,1733.0,3466.1,2038.4,1499.5,3479.5,3473.4,1059.9,1280.1,1851.8,2477.0,1457.1,3486.8,3462.5,3483.2,742.2,1109.5,1714.8,1310.6,1170.9,778.6,15.0,131.0,-114.0,10133.0,-8386.0,9366.0,-2777.0,-478.0,-416.0,12.0,23.0,53.0,1.0,7941.0,-14272.0,342.0,1255.0,-43.0,-32.0,44.0,1.0
2022-05-13 14:50:14.824945-07:00,1290.0,769.5,1235.5,1120.9,827.7,966.2,1759.8,1310.6,3472.2,3462.5,1724.4,1306.1,1724.4,3473.4,2038.4,1499.5,3479.5,3473.4,1061.7,1283.7,1851.8,2477.0,1414.9,3497.8,3462.5,3483.2,761.2,1092.9,1714.8,1310.6,1291.8,775.3,9.0,-140.0,9.0,10088.0,-8649.0,9240.0,-2547.0,-388.0,-386.0,-194.0,-18.0,-42.0,-55.0,7905.0,-14290.0,337.0,1274.0,76.0,-58.0,5.0,1.0
2022-05-13 14:50:14.869904-07:00,1290.0,769.5,1202.7,1112.1,827.7,966.2,1740.6,1310.6,3472.2,3462.5,1672.9,1285.5,1724.4,3473.4,2094.7,1473.6,3473.4,3467.4,1061.7,1283.7,1849.8,2472.7,1414.9,3497.8,3471.0,3473.4,761.2,1092.9,1713.8,1395.7,1291.8,775.3,110.0,45.0,-71.0,10202.0,-8659.0,9099.0,-2564.0,370.0,-435.0,-148.0,62.0,69.0,68.0,8153.0,-14145.0,386.0,1316.0,963.0,-56.0,192.0,1.0
2022-05-13 14:50:14.914855-07:00,1365.7,766.2,1202.7,1112.1,804.4,937.3,1740.6,1310.6,3471.0,3462.5,1672.9,1285.5,1821.6,3471.0,2094.7,1473.6,3473.4,3467.4,1054.8,1286.4,1849.8,2472.7,1394.8,3486.8,3471.0,3473.4,785.2,1076.4,1713.8,1395.7,1534.8,771.1,9.0,64.0,-26.0,10345.0,-8622.0,8962.0,-2597.0,177.0,-177.0,-118.0,-37.0,35.0,-51.0,8446.0,-13968.0,433.0,1346.0,595.0,-58.0,2.0,1.0
2022-05-13 14:50:14.962074-07:00,1365.7,766.2,1382.1,1189.4,804.4,937.3,1774.3,1316.9,3471.0,3462.5,1652.0,1313.3,1821.6,3471.0,2050.4,1642.6,3462.5,3477.1,1054.8,1286.4,1843.0,2478.1,1394.8,3486.8,3469.8,3474.6,785.2,1076.4,1762.7,1629.4,1534.8,771.1,-27.0,-95.0,-45.0,10359.0,-8712.0,8883.0,-2512.0,-296.0,-319.0,21.0,6.0,-56.0,-2.0,8467.0,-13953.0,433.0,1371.0,31.0,-72.0,77.0,1.0
2022-05-13 14:50:15.007611-07:00,1359.4,767.8,1382.1,1189.4,808.5,912.7,1774.3,1316.9,3466.1,3478.3,1652.0,1313.3,1741.6,3471.0,2050.4,1642.6,3462.5,3477.1,1055.6,1287.3,1843.0,2478.1,1370.3,3484.4,3469.8,3474.6,782.7,1054.8,1762.7,1629.4,1422.2,772.8,-7.0,46.0,-6.0,10405.0,-8715.0,8841.0,-2462.0,102.0,-95.0,29.0,-8.0,27.0,20.0,8526.0,-13912.0,456.0,1408.0,136.0,-54.0,77.0,1.0
2022-05-13 14:50:15.141922-07:00,1359.4,767.8,1546.9,1343.1,808.5,900.8,1771.4,1346.7,3466.1,3478.3,1617.1,1295.4,1741.6,3468.6,1982.6,1638.8,3471.0,3466.1,1056.5,1287.3,1849.8,2466.4,1370.3,3484.4,3473.4,3462.5,769.5,1054.8,1804.2,1533.8,1422.2,772.8,55.0,-1.0,-2.0,10445.0,-8724.0,8794.0,-2427.0,125.0,-160.0,-14.0,19.0,-20.0,-34.0,8557.0,-13889.0,480.0,1438.0,200.0,-29.0,58.0,1.0
2022-05-13 14:50:15.143123-07:00,1335.9,769.5,1635.0,1343.1,838.6,900.8,1771.4,1346.7,3467.4,3469.8,1592.7,1295.4,1748.3,3468.6,1982.6,1638.8,3471.0,3466.1,1056.5,1290.0,1849.8,2472.7,1361.2,3486.8,3473.4,3462.5,769.5,1038.3,1804.2,1483.8,1358.5,768.7,-15.0,-7.0,-49.0,10518.0,-8682.0,8741.0,-2454.0,148.0,-140.0,-13.0,4.0,15.0,-35.0,8638.0,-13837.0,499.0,1454.0,164.0,-47.0,49.0,1.0
2022-05-13 14:50:15.184916-07:00,1335.9,769.5,1635.0,1431.4,838.6,897.4,1757.0,1390.3,3467.4,3469.8,1592.7,1296.3,1748.3,3469.8,1947.9,1619.0,3477.1,3466.1,1063.4,1290.0,1839.1,2472.7,1361.2,3486.8,3474.6,3463.7,765.3,1038.3,1862.5,1483.8,1358.5,768.7,-22.0,-1.0,0.0,10547.0,-8641.0,8739.0,-2483.0,171.0,89.0,-2.0,-9.0,-27.0,17.0,8676.0,-13811.0,500.0,1477.0,152.0,-45.0,10.0,1.0
2022-05-13 14:50:15.230257-07:00,1336.8,813.5,1597.4,1431.4,857.0,897.4,1757.0,1390.3,3473.4,3467.4,1584.2,1296.3,1733.0,3469.8,1947.9,1619.0,3477.1,3466.1,1063.4,1295.4,1839.1,2471.7,1338.6,3486.8,3474.6,3463.7,765.3,1028.8,1862.5,1454.3,1341.3,772.0,0.0,-58.0,-10.0,10672.0,-8503.0,8687.0,-2605.0,796.0,-45.0,15.0,-4.0,13.0,-16.0,8875.0,-13681.0,521.0,1495.0,771.0,-64.0,47.0,1.0
2022-05-13 14:50:15.321073-07:00,1336.8,813.5,1597.4,1413.1,857.0,895.7,1815.8,1450.6,3473.4,3467.4,1584.2,1280.1,1733.0,3468.6,1933.1,1604.0,3467.4,3464.9,1055.6,1295.4,1837.2,2471.7,1338.6,3486.8,3483.2,3479.5,768.7,1028.8,1962.8,1454.3,1341.3,772.0,7.0,155.0,-53.0,10786.0,-8318.0,8675.0,-2767.0,198.0,158.0,-82.0,-9.0,48.0,11.0,9055.0,-13560.0,526.0,1514.0,68.0,-50.0,-44.0,1.0
2022-05-13 14:50:15.322340-07:00,1324.1,833.6,1564.6,1399.4,875.5,895.7,1815.8,1450.6,3466.1,3467.4,1577.7,1275.6,1733.0,3468.6,1933.1,1604.0,3467.4,3464.9,1055.6,1285.5,1825.5,2460.0,1339.5,3486.8,3483.2,3479.5,768.7,1030.6,1945.9,1436.9,1325.9,781.1,18.0,-34.0,4.0,10796.0,-8306.0,8658.0,-2818.0,185.0,-19.0,-34.0,8.0,-14.0,9.0,9076.0,-13546.0,511.0,1520.0,173.0,-35.0,-12.0,1.0
2022-05-13 14:50:15.364897-07:00,1324.1,833.6,1564.6,1399.4,864.6,892.4,1812.9,1460.8,3466.1,3467.4,1577.7,1275.6,1727.2,3468.6,1920.3,1600.2,3473.4,3473.4,1057.3,1288.2,1825.5,2460.0,1339.5,3486.8,3471.0,3477.1,768.7,1015.1,1945.9,1436.9,1325.9,781.1,-9.0,-33.0,-17.0,10812.0,-8287.0,8646.0,-2847.0,44.0,-16.0,-23.0,0.0,-15.0,2.0,9099.0,-13530.0,506.0,1521.0,33.0,-9.0,1.0,1.0
2022-05-13 14:50:15.458534-07:00,1324.1,824.4,1544.1,1379.4,864.6,892.4,1812.9,1460.8,3472.2,3472.2,1578.6,1270.3,1727.2,3468.6,1920.3,1600.2,3473.4,3473.4,1057.3,1288.2,1834.3,2450.4,1324.1,3489.2,3471.0,3477.1,768.7,1015.1,1929.2,1426.8,1317.8,805.2,0.0,28.0,-18.0,10799.0,-8287.0,8658.0,-2859.0,-86.0,92.0,-13.0,2.0,16.0,10.0,9088.0,-13538.0,504.0,1520.0,-125.0,14.0,-15.0,1.0
2022-05-13 14:50:15.461595-07:00,1324.1,824.4,1544.1,1379.4,869.6,879.7,1800.3,1448.8,3472.2,3472.2,1578.6,1270.3,1717.7,3460.1,1914.4,1590.8,3469.8,3473.4,1056.5,1285.5,1834.3,2450.4,1324.1,3489.2,3472.2,3478.3,749.6,1018.5,1929.2,1426.8,1317.8,805.2,0.0,-27.0,-11.0,10744.0,-8322.0,8693.0,-2857.0,-85.0,131.0,-13.0,-1.0,-7.0,-2.0,9030.0,-13578.0,501.0,1511.0,-127.0,28.0,-1.0,1.0
2022-05-13 14:50:15.501893-07:00,1315.1,816.0,1526.4,1367.6,869.6,879.7,1800.3,1448.8,3467.4,3469.8,1565.5,1262.2,1717.7,3460.1,1914.4,1590.8,3469.8,3473.4,1056.5,1285.5,1842.0,2468.5,1316.9,3492.9,3472.2,3478.3,749.6,1018.5,1915.4,1422.2,1307.9,785.2,-15.0,13.0,-40.0,10694.0,-8334.0,8738.0,-2873.0,-147.0,97.0,-15.0,-1.0,4.0,13.0,8985.0,-13609.0,503.0,1502.0,-175.0,36.0,-3.0,1.0
2022-05-13 14:50:15.590005-07:00,1315.1,816.0,1526.4,1367.6,870.5,873.0,1786.8,1434.1,3467.4,3469.8,1565.5,1262.2,1711.0,3456.4,1902.6,1591.7,3472.2,3478.3,1064.3,1283.7,1842.0,2468.5,1316.9,3492.9,3478.3,3483.2,752.9,995.3,1915.4,1422.2,1307.9,785.2,8.0,-5.0,-11.0,10648.0,-8355.0,8777.0,-2868.0,-51.0,146.0,32.0,-4.0,3.0,-9.0,8935.0,-13642.0,504.0,1496.0,-96.0,16.0,9.0,1.0
2022-05-13 14:50:15.634960-07:00,1303.4,811.9,1533.8,1350.3,870.5,873.0,1786.8,1420.4,3467.4,3475.9,1565.5,1264.9,1711.0,3456.4,1902.6,1585.2,3467.4,3478.3,1064.3,1283.7,1831.3,2473.8,1313.3,3485.6,3478.3,3483.2,752.9,995.3,1893.8,1428.6,1308.8,776.9,-7.0,6.0,-26.0,10595.0,-8368.0,8822.0,-2885.0,-130.0,124.0,-24.0,-6.0,12.0,3.0,8890.0,-13672.0,501.0,1486.0,-169.0,26.0,-21.0,1.0
2022-05-13 14:50:15.679959-07:00,1310.6,811.9,1533.8,1350.3,863.7,880.6,1784.9,1420.4,3467.4,3475.9,1565.5,1264.9,1711.0,3461.3,1887.9,1585.2,3467.4,3472.2,1059.1,1285.5,1831.3,2473.8,1313.3,3495.3,3478.3,3467.4,749.6,997.0,1893.8,1428.6,1308.8,780.3,4.0,38.0,-38.0,10529.0,-8399.0,8876.0,-2873.0,-254.0,116.0,29.0,0.0,22.0,8.0,8827.0,-13716.0,494.0,1467.0,-263.0,52.0,-43.0,1.0
2022-05-13 14:50:15.816220-07:00,1310.6,823.5,1520.8,1360.3,863.7,880.6,1784.9,1447.9,3467.4,3469.8,1552.5,1262.2,1711.0,3461.3,1887.9,1601.1,3478.3,3472.2,1059.1,1285.5,1835.2,2461.0,1324.1,3495.3,3474.6,3467.4,749.6,997.0,1956.8,1409.4,1308.8,780.3,32.0,11.0,-25.0,10380.0,-8540.0,8950.0,-2766.0,-627.0,183.0,22.0,4.0,26.0,-6.0,8618.0,-13853.0,457.0,1435.0,-657.0,67.0,-98.0,1.0
2022-05-13 14:50:15.819550-07:00,1334.1,823.5,1520.8,1360.3,851.1,877.2,1810.0,1447.9,3471.0,3469.8,1552.5,1262.2,1755.0,3473.4,1893.8,1601.1,3478.3,3471.0,1057.3,1284.6,1835.2,2461.0,1324.1,3485.6,3474.6,3477.1,750.5,1011.6,1956.8,1409.4,1308.8,781.9,49.0,-44.0,-2.0,10219.0,-8630.0,9063.0,-2718.0,-206.0,360.0,2.0,27.0,-42.0,-11.0,8416.0,-13984.0,414.0,1373.0,-394.0,155.0,-157.0,1.0
2022-05-13 14:50:15.820693-07:00,1334.1,825.2,1538.5,1324.1,851.1,877.2,1810.0,1505.1,3471.0,3471.0,1612.4,1262.2,1755.0,3473.4,1893.8,1573.9,3468.6,3471.0,1057.3,1284.6,1819.7,2463.2,1377.5,3485.6,3471.0,3477.1,750.5,1011.6,1942.0,1589.9,1470.9,781.9,-34.0,-29.0,-189.0,10186.0,-8530.0,9158.0,-2836.0,238.0,235.0,104.0,-15.0,4.0,2.0,8373.0,-14017.0,392.0,1303.0,-69.0,93.0,-126.0,1.0
2022-05-13 14:50:15.862632-07:00,1333.2,812.7,1538.5,1324.1,845.3,867.9,1811.0,1505.1,3467.4,3469.8,1612.4,1262.2,1733.9,3467.4,2077.5,1573.9,3468.6,3471.0,1053.9,1286.4,1819.7,2463.2,1501.4,3484.4,3471.0,3467.4,756.3,1040.1,1942.0,1589.9,1618.1,780.3,15.0,-115.0,135.0,10197.0,-8564.0,9138.0,-2759.0,191.0,-377.0,-126.0,-9.0,-22.0,-107.0,8247.0,-14097.0,330.0,1264.0,-683.0,-26.0,-128.0,1.0
2022-05-13 14:50:15.996912-07:00,1333.2,812.7,1393.9,1205.3,845.3,867.9,1815.8,1459.8,3467.4,3469.8,1808.1,1317.8,1733.9,3467.4,2015.4,1533.8,3475.9,3471.0,1053.9,1286.4,1839.1,2467.4,1501.4,3484.4,3479.5,3474.6,756.3,1040.1,1916.4,1614.3,1618.1,780.3,-78.0,115.0,11.0,10339.0,-8338.0,9083.0,-3086.0,790.0,92.0,-272.0,0.0,24.0,108.0,8196.0,-14129.0,294.0,1242.0,-62.0,55.0,-41.0,1.0
2022-05-13 14:50:15.998805-07:00,1325.9,842.8,1393.9,1205.3,826.9,894.9,1815.8,1459.8,3462.5,3475.9,1808.1,1317.8,1732.0,3473.4,2015.4,1533.8,3475.9,3471.0,1059.1,1280.1,1839.1,2467.4,1639.8,3485.6,3479.5,3474.6,752.9,1057.3,1916.4,1614.3,1356.7,776.1,88.0,-88.0,-92.0,10425.0,-8371.0,8950.0,-3096.0,-288.0,-378.0,-77.0,8.0,16.0,-117.0,8126.0,-14174.0,290.0,1191.0,-333.0,60.0,-82.0,1.0
2022-05-13 14:50:16.039965-07:00,1325.9,842.8,1287.3,1150.6,826.9,894.9,1814.9,1404.0,3462.5,3475.9,1460.8,1138.4,1732.0,3473.4,1729.1,1411.3,3461.3,3460.1,1059.1,1280.1,1848.9,2475.9,1639.8,3485.6,3462.5,3471.0,752.9,1057.3,1886.0,1370.3,1356.7,776.1,-39.0,-44.0,-23.0,10422.0,-8307.0,9011.0,-3099.0,311.0,265.0,285.0,-7.0,-50.0,31.0,8045.0,-14221.0,276.0,1184.0,26.0,14.0,50.0,1.0
2022-05-13 14:50:16.131741-07:00,1340.4,855.3,1287.3,1150.6,829.4,887.3,1814.9,1404.0,3464.9,3463.7,1460.8,1138.4,1703.3,3466.1,1729.1,1411.3,3461.3,3460.1,1066.0,1286.4,1848.9,2475.9,1601.1,3486.8,3462.5,3471.0,751.3,1024.5,1886.0,1370.3,1234.6,771.1,30.0,45.0,-35.0,10483.0,-8165.0,9064.0,-3119.0,221.0,4.0,159.0,-8.0,73.0,-36.0,8080.0,-14200.0,306.0,1186.0,91.0,12.0,11.0,1.0
2022-05-13 14:50:16.133068-07:00,1340.4,855.3,1231.0,1115.6,829.4,885.6,1842.0,1364.8,3464.9,3463.7,1353.1,1105.1,1703.3,3468.6,1642.6,1382.1,3467.4,3457.6,1053.9,1286.4,1862.5,2474.9,1601.1,3486.8,3473.4,3473.4,737.3,1024.5,1837.2,1291.8,1234.6,771.1,-25.0,30.0,-21.0,10501.0,-8073.0,9110.0,-3162.0,162.0,161.0,91.0,-14.0,9.0,9.0,8088.0,-14196.0,308.0,1186.0,-20.0,13.0,-6.0,1.0
2022-05-13 14:50:16.177074-07:00,1360.3,853.7,1223.9,1115.6,835.2,885.6,1842.0,1364.8,3469.8,3463.7,1323.2,1105.1,1679.5,3468.6,1642.6,1382.1,3467.4,3457.6,1053.9,1288.2,1862.5,2486.6,1585.2,3486.8,3473.4,3473.4,737.3,998.7,1837.2,1252.4,1192.9,767.8,12.0,-24.0,-21.0,10485.0,-8086.0,9125.0,-3139.0,-200.0,9.0,20.0,-8.0,3.0,-24.0,8039.0,-14224.0,298.0,1182.0,-93.0,-23.0,-23.0,1.0
2022-05-13 14:50:16.219902-07:00,1360.3,853.7,1223.9,1108.6,835.2,879.7,1829.4,1373.9,3469.8,3463.7,1323.2,1092.9,1679.5,3478.3,1598.3,1370.3,3462.5,3472.2,1071.2,1288.2,1875.2,2486.6,1585.2,3486.8,3473.4,3468.6,724.9,998.7,1811.0,1252.4,1192.9,767.8,-27.0,38.0,-51.0,10459.0,-8088.0,9153.0,-3138.0,-40.0,13.0,-1.0,2.0,1.0,17.0,8032.0,-14228.0,286.0,1184.0,-127.0,-1.0,-11.0,1.0
2022-05-13 14:50:16.264953-07:00,1345.8,853.7,1223.9,1108.6,816.9,879.7,1829.4,1373.9,3467.4,3463.7,1332.3,1092.9,1677.6,3478.3,1598.3,1370.3,3462.5,3472.2,1071.2,1290.9,1875.2,2491.9,1562.7,3488.0,3473.4,3468.6,724.9,1040.1,1811.0,1233.7,1170.0,772.0,13.0,-32.0,-28.0,10438.0,-8161.0,9138.0,-3063.0,-375.0,-144.0,50.0,-14.0,17.0,-34.0,7968.0,-14264.0,273.0,1183.0,-178.0,-20.0,-25.0,1.0
2022-05-13 14:50:16.309867-07:00,1345.8,853.7,1223.9,1117.4,816.9,874.7,1821.6,1344.9,3467.4,3463.7,1332.3,1090.3,1677.6,3478.3,1566.5,1358.5,3467.4,3464.9,1053.9,1290.9,1874.2,2491.9,1562.7,3488.0,3464.9,3473.4,720.8,1040.1,1779.1,1233.7,1170.0,772.0,-33.0,20.0,-12.0,10416.0,-8173.0,9173.0,-3001.0,157.0,45.0,93.0,9.0,-21.0,35.0,7950.0,-14274.0,270.0,1191.0,88.0,9.0,34.0,1.0
2022-05-13 14:50:16.356821-07:00,1322.3,852.0,1218.6,1117.4,818.5,874.7,1821.6,1344.9,3464.9,3467.4,1348.5,1090.3,1662.5,3478.3,1566.5,1358.5,3467.4,3464.9,1053.9,1286.4,1874.2,2487.6,1536.6,3490.5,3464.9,3473.4,720.8,1056.5,1779.1,1219.5,1162.1,772.0,21.0,28.0,-35.0,10434.0,-8180.0,9151.0,-2986.0,-147.0,-101.0,-41.0,-5.0,17.0,-16.0,7945.0,-14277.0,276.0,1189.0,-120.0,-7.0,-15.0,1.0
2022-05-13 14:50:16.402051-07:00,1322.3,852.0,1218.6,1097.3,814.4,910.1,1795.5,1331.4,3464.9,3467.4,1348.5,1112.1,1662.5,3469.8,1564.6,1357.6,3471.0,3466.1,1059.1,1290.0,1872.3,2487.6,1536.6,3490.5,3475.9,3475.9,723.3,1134.9,1791.6,1219.5,1162.1,772.0,-60.0,-89.0,29.0,10398.0,-8232.0,9160.0,-2938.0,25.0,114.0,5.0,-15.0,-94.0,5.0,7878.0,-14313.0,265.0,1194.0,-20.0,15.0,43.0,1.0
2022-05-13 14:50:16.490407-07:00,1319.6,833.6,1205.3,1088.6,814.4,910.1,1795.5,1331.4,3473.4,3475.9,1452.5,1162.1,1662.5,3469.8,1564.6,1357.6,3471.0,3466.1,1059.1,1290.0,1899.7,2495.1,1524.5,3490.5,3475.9,3475.9,723.3,1134.9,1769.5,1215.1,1154.2,769.5,30.0,15.0,21.0,10420.0,-8249.0,9126.0,-2922.0,41.0,-136.0,81.0,-2.0,70.0,0.0,7858.0,-14324.0,283.0,1198.0,-94.0,-2.0,33.0,1.0
2022-05-13 14:50:16.535006-07:00,1319.6,833.6,1205.3,1088.6,816.9,999.6,1793.6,1334.1,3473.4,3475.9,1452.5,1162.1,1651.1,3464.9,1691.9,1401.2,3468.6,3477.1,1064.3,1302.5,1899.7,2495.1,1524.5,3490.5,3477.1,3472.2,724.9,1142.7,1769.5,1215.1,1154.2,769.5,-72.0,57.0,-111.0,10454.0,-8153.0,9179.0,-2904.0,-71.0,154.0,314.0,-17.0,-28.0,-15.0,7776.0,-14367.0,285.0,1214.0,-264.0,-14.0,48.0,1.0
2022-05-13 14:50:16.624492-07:00,1295.4,820.2,1198.2,1088.6,816.9,999.6,1793.6,1334.1,3464.9,3464.9,1612.4,1222.2,1651.1,3464.9,1691.9,1401.2,3468.6,3477.1,1064.3,1302.5,1878.1,2489.8,1498.6,3485.6,3477.1,3472.2,724.9,1142.7,1761.8,1267.6,1139.2,766.2,81.0,-32.0,-95.0,10404.0,-8198.0,9245.0,-2740.0,-490.0,-152.0,191.0,6.0,30.0,-10.0,7657.0,-14429.0,289.0,1236.0,-219.0,-42.0,39.0,1.0
2022-05-13 14:50:16.626255-07:00,1295.4,820.2,1198.2,1088.6,825.2,1064.3,1763.7,1319.6,3464.9,3464.9,1612.4,1222.2,1722.4,3462.5,2055.4,1471.8,3472.2,3479.5,1066.9,1288.2,1878.1,2489.8,1498.6,3485.6,3472.2,3479.5,711.0,1121.7,1761.8,1267.6,1139.2,766.2,-53.0,9.0,-48.0,10305.0,-8301.0,9318.0,-2553.0,-892.0,-186.0,109.0,3.0,10.0,47.0,7608.0,-14452.0,297.0,1268.0,-51.0,-50.0,99.0,1.0
2022-05-13 14:50:16.670001-07:00,1285.5,806.0,1186.7,1079.0,825.2,1064.3,1763.7,1314.2,3467.4,3467.4,2079.5,1252.4,1722.4,3462.5,2055.4,1416.7,3467.4,3479.5,1066.9,1288.2,1865.4,2485.5,1489.3,3486.8,3478.3,3479.5,711.0,1121.7,1756.0,1405.8,1229.3,762.0,144.0,-13.0,-3.0,10060.0,-8769.0,9273.0,-2087.0,-1908.0,-472.0,-332.0,4.0,60.0,-46.0,7362.0,-14577.0,287.0,1296.0,-853.0,-30.0,-14.0,1.0
2022-05-13 14:50:16.714819-07:00,1263.1,806.0,1186.7,1079.0,812.7,1045.2,1731.1,1314.2,3464.9,3467.4,2079.5,1252.4,1732.0,3468.6,1995.5,1416.7,3467.4,3471.0,1048.7,1290.9,1865.4,2485.5,1489.3,3492.9,3478.3,3475.9,739.7,1106.0,1756.0,1405.8,1229.3,767.8,-100.0,-46.0,-70.0,9758.0,-9205.0,9235.0,-1790.0,-607.0,-149.0,-230.0,-50.0,-22.0,-24.0,7095.0,-14707.0,253.0,1320.0,-486.0,-50.0,32.0,1.0
2022-05-13 14:50:16.844907-07:00,1263.1,804.4,1189.4,1086.0,812.7,1045.2,1731.1,1302.5,3464.9,3460.1,1692.9,1345.8,1732.0,3468.6,1995.5,1667.2,3473.4,3471.0,1048.7,1290.9,1865.4,2482.3,1444.2,3492.9,3475.9,3475.9,739.7,1106.0,1794.5,1676.7,1594.6,767.8,72.0,-120.0,-32.0,9648.0,-9430.0,9154.0,-1626.0,-299.0,-183.0,-164.0,-4.0,-21.0,-79.0,7015.0,-14742.0,266.0,1358.0,44.0,-65.0,82.0,1.0
2022-05-13 14:50:16.846168-07:00,1273.0,804.4,1189.4,1086.0,822.7,1009.9,1740.6,1302.5,3462.5,3460.1,1692.9,1345.8,1707.2,3471.0,2078.5,1667.2,3473.4,3471.0,1061.7,1296.3,1865.4,2482.3,1444.2,3486.8,3475.9,3472.2,778.6,1078.2,1794.5,1676.7,1594.6,772.0,-45.0,-62.0,-76.0,9471.0,-9614.0,9163.0,-1531.0,-1123.0,-120.0,-158.0,13.0,-122.0,52.0,6833.0,-14822.0,265.0,1407.0,-818.0,-76.0,102.0,1.0
2022-05-13 14:50:16.870285-07:00,1273.0,784.4,1701.4,1478.3,822.7,1009.9,1740.6,1282.8,3462.5,3475.9,1663.4,1335.9,1707.2,3471.0,2078.5,1713.8,3467.4,3471.0,1061.7,1296.3,1862.5,2481.3,1429.5,3486.8,3477.1,3472.2,778.6,1078.2,1844.0,1501.4,1407.6,772.0,33.0,18.0,14.0,9359.0,-9843.0,9069.0,-1311.0,-137.0,-257.0,-149.0,-4.0,27.0,-49.0,6771.0,-14845.0,288.0,1464.0,131.0,-97.0,86.0,1.0
2022-05-13 14:50:16.979672-07:00,1259.6,784.4,1701.4,1478.3,844.4,973.9,1708.1,1282.8,3467.4,3475.9,1663.4,1335.9,1699.5,3472.2,1999.5,1713.8,3467.4,3479.5,1071.2,1289.1,1862.5,2481.3,1429.5,3492.9,3477.1,3473.4,768.7,1053.0,1844.0,1501.4,1407.6,772.0,33.0,-7.0,-25.0,9451.0,-9852.0,8965.0,-1296.0,527.0,-302.0,-172.0,8.0,-14.0,-15.0,6867.0,-14796.0,313.0,1504.0,398.0,-73.0,55.0,1.0
2022-05-13 14:50:16.985507-07:00,1259.6,783.6,1672.9,1491.2,844.4,973.9,1829.4,1397.6,3467.4,3463.7,1644.5,1320.5,1699.5,3472.2,1983.6,1711.0,3477.1,3474.6,1071.2,1289.1,1865.4,2485.5,1410.3,3492.9,3478.3,3481.9,768.7,1053.0,1822.6,1470.9,1360.3,772.0,67.0,111.0,80.0,9669.0,-9664.0,8900.0,-1529.0,1088.0,576.0,12.0,-14.0,114.0,-10.0,7148.0,-14660.0,339.0,1518.0,680.0,-16.0,-16.0,1.0
2022-05-13 14:50:17.032037-07:00,1299.0,791.0,1672.9,1491.2,853.7,959.4,1829.4,1397.6,3466.1,3467.4,1644.5,1320.5,1687.2,3472.2,1983.6,1711.0,3477.1,3474.6,1066.9,1287.3,1865.4,2485.5,1405.8,3497.8,3478.3,3481.9,762.0,1027.1,1822.6,1470.9,1353.1,762.9,-37.0,-13.0,-35.0,9728.0,-9426.0,9021.0,-1893.0,462.0,558.0,-90.0,-14.0,-56.0,3.0,7345.0,-14566.0,335.0,1488.0,445.0,41.0,-74.0,1.0
2022-05-13 14:50:17.077072-07:00,1299.0,791.0,1620.9,1470.0,853.7,959.4,1919.3,1662.5,3466.1,3467.4,1626.5,1314.2,1687.2,3472.2,1947.9,1688.1,3478.3,3472.2,1066.9,1287.3,1854.7,2480.2,1405.8,3497.8,3463.7,3474.6,762.0,1027.1,1905.6,1447.0,1353.1,762.9,-59.0,-53.0,-82.0,9719.0,-9310.0,9102.0,-2107.0,380.0,196.0,102.0,-4.0,-51.0,27.0,7492.0,-14492.0,360.0,1466.0,398.0,28.0,72.0,1.0
2022-05-13 14:50:17.121472-07:00,1298.1,825.2,1620.9,1470.0,865.4,948.3,1919.3,1662.5,3464.9,3469.8,1626.5,1314.2,1780.1,3472.2,1947.9,1688.1,3478.3,3472.2,1066.0,1290.9,1854.7,2480.2,1377.5,3488.0,3463.7,3474.6,773.6,1021.9,1905.6,1447.0,1333.2,791.0,61.0,49.0,-15.0,9783.0,-9203.0,9134.0,-2147.0,165.0,82.0,202.0,17.0,54.0,-30.0,7617.0,-14424.0,410.0,1486.0,246.0,-20.0,97.0,1.0
