Time,P0,P1,P2,P3,P4,P5,P6,P7,P8,P9,P10,P11,P12,P13,P14,P15,P16,P17,P18,P19,P20,P21,P22,P23,P24,P25,P26,P27,P28,P29,P30,P31,ECG,AX0,AY0,AZ0,QW0,QX0,QY0,QZ0,GX0,GY0,GZ0,AX1,AY1,AZ1,QW1,QX1,QY1,QZ1,GX1,GY1,GZ1
2022-05-13 15:51:59.412680-07:00,1837.2,588.3,999.6,1208.0,821.0,1062.5,1246.2,1309.7,3437.0,3444.3,1355.8,1179.7,1200.9,3434.6,1025.4,1296.3,3440.7,3439.5,657.9,1268.5,888.2,509.9,1234.6,1617.1,3445.5,3450.4,695.4,912.7,1157.7,1281.9,1125.2,883.9,0.0,2.0,2.0,-9384.0,-12353.0,-4071.0,-3346.0,0.0,2.0,-2.0,1.0,4.0,-14.0,10857.0,11426.0,-2019.0,-3990.0,-5.0,-1.0,0.0,1.0
2022-05-13 15:51:59.413270-07:00,1832.3,594.7,993.6,1212.4,821.0,1062.5,1246.2,1309.7,3433.4,3440.7,1347.6,1177.9,1200.9,3434.6,1025.4,1296.3,3440.7,3439.5,657.9,1268.5,879.7,516.3,1239.1,1619.0,3445.5,3450.4,695.4,912.7,1152.4,1285.5,1124.4,885.6,-1.0,-1.0,0.0,-9384.0,-12353.0,-4071.0,-3346.0,-6.0,4.0,6.0,0.0,2.0,-15.0,10858.0,11425.0,-2019.0,-3991.0,-11.0,-1.0,5.0,1.0
2022-05-13 15:51:59.502204-07:00,1838.2,594.7,993.6,1212.4,817.7,1074.7,1250.6,1319.6,3439.5,3440.7,1347.6,1177.9,1189.4,3439.5,1027.1,1298.1,3440.7,3441.9,667.6,1273.0,879.7,516.3,1239.1,1619.9,3445.5,3450.4,684.8,916.0,1152.4,1285.5,1124.4,879.7,0.0,5.0,0.0,-9384.0,-12353.0,-4071.0,-3346.0,-7.0,-5.0,1.0,0.0,1.0,-12.0,10859.0,11425.0,-2019.0,-3991.0,-9.0,-6.0,1.0,1.0
2022-05-13 15:51:59.503301-07:00,1838.2,595.5,979.9,1209.7,817.7,1074.7,1250.6,1325.0,3439.5,3438.2,1349.4,1178.8,1189.4,3439.5,1027.1,1299.0,3439.5,3441.9,667.6,1273.0,882.3,510.7,1236.4,1619.9,3439.5,3450.4,684.8,916.0,1157.7,1276.5,1127.0,879.7,-6.0,4.0,2.0,-9384.0,-12353.0,-4071.0,-3346.0,-3.0,-9.0,0.0,-6.0,1.0,-10.0,10859.0,11425.0,-2019.0,-3991.0,-5.0,-5.0,1.0,1.0
2022-05-13 15:51:59.547874-07:00,1836.2,595.5,979.9,1209.7,821.0,1062.5,1238.2,1325.0,3441.9,3438.2,1349.4,1178.8,1189.4,3439.5,1026.3,1299.0,3439.5,3441.9,659.5,1269.4,882.3,510.7,1236.4,1619.0,3439.5,3440.7,696.2,913.5,1157.7,1276.5,1127.0,884.8,0.0,0.0,6.0,-9384.0,-12354.0,-4071.0,-3345.0,8.0,8.0,7.0,3.0,0.0,-13.0,10859.0,11424.0,-2019.0,-3991.0,-2.0,2.0,2.0,1.0
2022-05-13 15:51:59.591446-07:00,1836.2,592.3,994.5,1208.0,821.0,1062.5,1238.2,1325.0,3441.9,3437.0,1354.9,1177.9,1189.4,3439.5,1026.3,1303.4,3435.8,3441.9,659.5,1269.4,882.3,513.9,1237.3,1619.0,3443.1,3440.7,696.2,913.5,1160.3,1279.2,1127.9,884.8,0.0,4.0,-1.0,-9384.0,-12353.0,-4071.0,-3346.0,1.0,-5.0,-4.0,-1.0,2.0,-14.0,10859.0,11424.0,-2019.0,-3991.0,-7.0,-1.0,-3.0,1.0
2022-05-13 15:51:59.682616-07:00,1834.3,592.3,994.5,1208.0,823.5,1072.9,1249.7,1325.0,3445.5,3437.0,1354.9,1177.9,1196.5,3439.5,1028.0,1303.4,3435.8,3439.5,665.2,1271.2,882.3,513.9,1237.3,1620.9,3443.1,3445.5,694.6,920.3,1160.3,1279.2,1127.9,885.6,2.0,0.0,0.0,-9384.0,-12354.0,-4071.0,-3345.0,-8.0,-1.0,5.0,3.0,2.0,-14.0,10859.0,11424.0,-2019.0,-3991.0,-5.0,-2.0,1.0,1.0
2022-05-13 15:51:59.683672-07:00,1834.3,594.7,986.7,1199.1,823.5,1072.9,1247.1,1325.0,3445.5,3441.9,1356.7,1174.4,1196.5,3439.5,1022.8,1303.4,3433.4,3435.8,665.2,1271.2,884.8,511.5,1242.6,1620.9,3438.2,3441.9,694.6,920.3,1153.3,1281.0,1125.2,885.6,0.0,5.0,6.0,-9386.0,-12352.0,-4070.0,-3345.0,3.0,-7.0,-4.0,-1.0,1.0,-8.0,10861.0,11423.0,-2018.0,-3991.0,-8.0,-3.0,-2.0,1.0
2022-05-13 15:51:59.726917-07:00,1833.3,597.9,986.7,1199.1,811.0,1065.1,1247.1,1325.0,3437.0,3446.7,1356.7,1174.4,1196.5,3446.7,1022.8,1303.4,3433.4,3435.8,666.8,1264.9,884.8,511.5,1239.1,1619.9,3438.2,3441.9,699.5,910.1,1153.3,1281.0,1130.5,883.1,-5.0,0.0,7.0,-9386.0,-12352.0,-4070.0,-3345.0,5.0,-1.0,2.0,-1.0,0.0,-7.0,10861.0,11423.0,-2018.0,-3991.0,1.0,4.0,0.0,1.0
2022-05-13 15:51:59.816359-07:00,1833.3,597.9,991.0,1206.2,811.0,1065.1,1245.3,1318.7,3437.0,3446.7,1353.1,1177.0,1196.5,3446.7,1027.1,1299.0,3437.0,3444.3,666.8,1264.9,884.8,509.9,1239.1,1619.9,3441.9,3439.5,699.5,910.1,1156.8,1280.1,1130.5,883.1,-2.0,3.0,2.0,-9385.0,-12353.0,-4071.0,-3346.0,1.0,17.0,-2.0,-2.0,2.0,-12.0,10861.0,11423.0,-2018.0,-3991.0,1.0,3.0,0.0,1.0
2022-05-13 15:51:59.861623-07:00,1828.4,593.9,991.0,1206.2,817.7,1066.0,1245.3,1318.7,3437.0,3432.2,1353.1,1177.0,1192.0,3449.1,1027.1,1299.0,3437.0,3444.3,659.5,1266.7,884.8,509.9,1234.6,1620.9,3441.9,3439.5,692.9,911.8,1156.8,1280.1,1127.0,883.9,-1.0,0.0,-6.0,-9384.0,-12352.0,-4073.0,-3348.0,8.0,-12.0,1.0,-1.0,2.0,-17.0,10861.0,11423.0,-2018.0,-3991.0,0.0,-3.0,1.0,1.0
2022-05-13 15:51:59.906304-07:00,1828.4,593.9,989.3,1212.4,817.7,1066.0,1241.7,1321.4,3437.0,3432.2,1349.4,1182.3,1192.0,3449.1,1021.1,1291.8,3437.0,3437.0,659.5,1266.7,888.2,513.9,1234.6,1620.9,3449.1,3446.7,692.9,911.8,1159.4,1284.6,1127.0,883.9,1.0,-1.0,3.0,-9386.0,-12353.0,-4070.0,-3344.0,-9.0,-14.0,8.0,3.0,0.0,-8.0,10862.0,11421.0,-2019.0,-3993.0,-10.0,-8.0,3.0,1.0
2022-05-13 15:52:00.041881-07:00,1838.2,594.7,992.7,1212.4,816.9,1073.8,1241.7,1321.4,3440.7,3431.0,1347.6,1182.3,1192.0,3449.1,1021.1,1291.8,3437.0,3437.0,659.5,1269.4,888.2,512.3,1240.8,1618.1,3449.1,3446.7,695.4,912.7,1159.4,1288.2,1129.6,888.2,0.0,1.0,9.0,-9387.0,-12354.0,-4067.0,-3340.0,-10.0,-4.0,-1.0,0.0,-3.0,-11.0,10863.0,11419.0,-2021.0,-3996.0,-12.0,-7.0,3.0,1.0
2022-05-13 15:52:00.043479-07:00,1838.2,594.7,992.7,1208.0,816.9,1079.0,1248.0,1323.2,3440.7,3431.0,1347.6,1177.9,1192.0,3437.0,1027.1,1298.1,3438.2,3434.6,662.7,1269.4,886.5,512.3,1240.8,1618.1,3438.2,3441.9,699.5,912.7,1159.4,1288.2,1129.6,888.2,2.0,6.0,4.0,-9387.0,-12354.0,-4067.0,-3340.0,3.0,6.0,2.0,4.0,4.0,-12.0,10863.0,11418.0,-2021.0,-3996.0,0.0,2.0,2.0,1.0
2022-05-13 15:52:00.045107-07:00,1834.3,602.8,986.7,1208.0,821.0,1079.0,1248.0,1323.2,3441.9,3438.2,1355.8,1177.9,1193.8,3437.0,1027.1,1298.1,3438.2,3434.6,662.7,1267.6,886.5,513.1,1242.6,1619.9,3438.2,3441.9,699.5,919.4,1159.4,1290.9,1131.4,890.7,-1.0,0.0,2.0,-9387.0,-12354.0,-4067.0,-3341.0,9.0,-6.0,3.0,0.0,1.0,-12.0,10863.0,11418.0,-2020.0,-3995.0,-7.0,-4.0,1.0,1.0
2022-05-13 15:52:00.132780-07:00,1834.3,602.8,986.7,1203.5,821.0,1069.5,1248.8,1307.9,3441.9,3438.2,1355.8,1179.7,1193.8,3437.0,1015.1,1295.4,3443.1,3438.2,670.1,1267.6,883.1,513.1,1242.6,1619.9,3446.7,3443.1,698.7,919.4,1156.8,1290.9,1131.4,890.7,-1.0,2.0,0.0,-9387.0,-12354.0,-4067.0,-3341.0,-4.0,3.0,5.0,-1.0,0.0,-10.0,10863.0,11418.0,-2020.0,-3995.0,-7.0,-3.0,5.0,1.0
2022-05-13 15:52:00.133306-07:00,1834.3,591.5,991.0,1203.5,819.4,1069.5,1248.8,1307.9,3438.2,3443.1,1351.2,1179.7,1195.6,3437.0,1015.1,1295.4,3443.1,3438.2,670.1,1265.8,883.1,515.5,1239.9,1619.9,3446.7,3443.1,698.7,913.5,1156.8,1280.1,1131.4,884.8,-1.0,5.0,2.0,-9387.0,-12354.0,-4067.0,-3341.0,-3.0,-6.0,3.0,1.0,-2.0,-15.0,10863.0,11418.0,-2020.0,-3995.0,-1.0,-6.0,1.0,1.0
2022-05-13 15:52:00.178380-07:00,1834.3,591.5,991.0,1208.0,819.4,1076.4,1238.2,1321.4,3438.2,3443.1,1351.2,1182.3,1195.6,3441.9,1028.8,1295.4,3433.4,3444.3,659.5,1265.8,887.3,515.5,1239.9,1619.9,3444.3,3440.7,696.2,913.5,1155.0,1280.1,1131.4,884.8,-4.0,1.0,5.0,-9387.0,-12354.0,-4067.0,-3341.0,4.0,-6.0,7.0,0.0,3.0,-10.0,10863.0,11418.0,-2021.0,-3996.0,1.0,0.0,1.0,1.0
2022-05-13 15:52:00.268790-07:00,1836.2,588.3,991.0,1203.5,818.5,1076.4,1238.2,1321.4,3437.0,3443.1,1354.0,1182.3,1194.7,3441.9,1028.8,1295.4,3433.4,3444.3,659.5,1270.3,885.6,509.9,1243.5,1621.8,3444.3,3440.7,696.2,911.8,1153.3,1286.4,1126.1,886.5,0.0,2.0,8.0,-9387.0,-12354.0,-4067.0,-3341.0,-4.0,4.0,2.0,4.0,0.0,-12.0,10863.0,11418.0,-2021.0,-3996.0,-7.0,0.0,3.0,1.0
2022-05-13 15:52:00.313421-07:00,1836.2,588.3,991.0,1203.5,817.7,1069.5,1243.5,1317.8,3437.0,3443.1,1354.0,1182.3,1188.5,3437.0,1021.1,1296.3,3439.5,3441.9,657.9,1270.3,885.6,509.9,1243.5,1621.8,3439.5,3444.3,694.6,911.8,1153.3,1286.4,1126.1,886.5,0.0,2.0,2.0,-9387.0,-12354.0,-4067.0,-3341.0,6.0,0.0,-1.0,2.0,6.0,-11.0,10863.0,11418.0,-2021.0,-3996.0,-2.0,2.0,0.0,1.0
2022-05-13 15:52:00.358371-07:00,1835.2,592.3,993.6,1201.8,817.7,1069.5,1243.5,1317.8,3439.5,3438.2,1349.4,1174.4,1188.5,3437.0,1021.1,1296.3,3439.5,3441.9,657.9,1270.3,885.6,519.5,1231.0,1616.2,3439.5,3444.3,694.6,911.8,1151.5,1278.3,1136.6,881.4,1.0,0.0,5.0,-9387.0,-12354.0,-4067.0,-3341.0,0.0,-7.0,3.0,4.0,0.0,-11.0,10863.0,11418.0,-2021.0,-3996.0,0.0,0.0,2.0,1.0
2022-05-13 15:52:00.402760-07:00,1835.2,592.3,993.6,1201.8,822.7,1070.3,1239.1,1316.0,3439.5,3438.2,1349.4,1174.4,1192.9,3433.4,1027.1,1295.4,3438.2,3431.0,655.4,1264.0,885.6,519.5,1231.0,1616.2,3438.2,3451.6,699.5,919.4,1151.5,1278.3,1136.6,881.4,-1.0,3.0,4.0,-9387.0,-12354.0,-4067.0,-3341.0,-2.0,2.0,-1.0,0.0,1.0,-14.0,10863.0,11418.0,-2021.0,-3996.0,-2.0,1.0,0.0,1.0
2022-05-13 15:52:00.447815-07:00,1832.3,593.1,989.3,1203.5,822.7,1070.3,1239.1,1316.0,3444.3,3441.9,1352.1,1175.3,1192.9,3433.4,1027.1,1295.4,3438.2,3431.0,655.4,1264.0,884.8,519.5,1239.1,1616.2,3438.2,3451.6,699.5,919.4,1152.4,1281.9,1125.2,887.3,3.0,3.0,3.0,-9387.0,-12354.0,-4067.0,-3341.0,10.0,5.0,2.0,2.0,1.0,-13.0,10863.0,11418.0,-2021.0,-3996.0,6.0,4.0,3.0,1.0
2022-05-13 15:52:00.492699-07:00,1830.4,593.1,989.3,1203.5,815.2,1057.3,1241.7,1323.2,3431.0,3441.9,1352.1,1175.3,1195.6,3432.2,1022.8,1293.6,3440.7,3440.7,661.9,1272.1,884.8,519.5,1239.1,1615.2,3437.0,3439.5,697.9,908.4,1152.4,1281.9,1125.2,883.9,-6.0,4.0,0.0,-9386.0,-12355.0,-4067.0,-3341.0,3.0,0.0,1.0,-2.0,1.0,-11.0,10863.0,11418.0,-2021.0,-3996.0,-1.0,-1.0,0.0,1.0
2022-05-13 15:52:00.536776-07:00,1830.4,589.9,991.0,1200.9,815.2,1057.3,1241.7,1316.0,3431.0,3438.2,1354.9,1179.7,1195.6,3432.2,1022.8,1295.4,3435.8,3440.7,661.9,1272.1,889.0,517.1,1241.7,1615.2,3439.5,3439.5,697.9,908.4,1154.2,1287.3,1125.2,883.9,-4.0,2.0,1.0,-9386.0,-12355.0,-4067.0,-3341.0,3.0,-2.0,2.0,-2.0,1.0,-13.0,10863.0,11418.0,-2021.0,-3996.0,-1.0,-3.0,3.0,1.0
2022-05-13 15:52:00.582751-07:00,1835.2,589.9,991.0,1200.9,819.4,1073.8,1251.5,1316.0,3445.5,3438.2,1354.9,1179.7,1191.2,3444.3,1028.8,1295.4,3435.8,3434.6,660.3,1269.4,889.0,517.1,1241.7,1619.9,3439.5,3437.0,697.9,914.4,1154.2,1287.3,1125.2,883.1,-1.0,5.0,-4.0,-9386.0,-12355.0,-4067.0,-3340.0,-5.0,-10.0,7.0,-1.0,-2.0,-16.0,10863.0,11418.0,-2022.0,-3997.0,-2.0,-10.0,2.0,1.0
2022-05-13 15:52:00.625679-07:00,1835.2,594.7,995.3,1210.6,819.4,1073.8,1251.5,1317.8,3445.5,3441.9,1355.8,1182.3,1191.2,3444.3,1028.8,1303.4,3444.3,3434.6,660.3,1269.4,878.9,517.9,1239.1,1619.9,3444.3,3437.0,697.9,914.4,1153.3,1286.4,1121.7,883.1,3.0,0.0,9.0,-9387.0,-12356.0,-4064.0,-3336.0,2.0,-6.0,3.0,4.0,2.0,-13.0,10863.0,11418.0,-2022.0,-3997.0,-1.0,-4.0,1.0,1.0
2022-05-13 15:52:00.673200-07:00,1841.1,594.7,995.3,1210.6,820.2,1066.0,1240.8,1317.8,3441.9,3441.9,1355.8,1182.3,1192.0,3444.3,1022.8,1303.4,3444.3,3440.7,661.9,1272.1,878.9,517.9,1239.1,1619.0,3444.3,3438.2,700.3,913.5,1153.3,1286.4,1121.7,887.3,7.0,6.0,4.0,-9387.0,-12356.0,-4064.0,-3336.0,-4.0,2.0,0.0,11.0,3.0,-13.0,10864.0,11417.0,-2021.0,-3997.0,-5.0,5.0,-2.0,1.0
2022-05-13 15:52:00.718345-07:00,1841.1,591.5,991.0,1200.0,820.2,1066.0,1240.8,1319.6,3441.9,3445.5,1354.9,1177.9,1192.0,3444.3,1028.8,1297.2,3435.8,3441.9,661.9,1272.1,879.7,517.1,1236.4,1619.0,3439.5,3437.0,700.3,913.5,1153.3,1285.5,1132.2,887.3,4.0,0.0,4.0,-9387.0,-12356.0,-4064.0,-3336.0,1.0,6.0,-3.0,6.0,3.0,-13.0,10864.0,11417.0,-2021.0,-3997.0,-7.0,0.0,0.0,1.0
2022-05-13 15:52:00.851985-07:00,1849.8,595.5,991.0,1200.0,817.7,1075.6,1240.8,1319.6,3443.1,3444.3,1354.9,1177.9,1197.4,3440.7,1028.8,1297.2,3435.8,3441.9,658.7,1273.0,879.7,517.1,1235.5,1619.9,3439.5,3437.0,697.9,912.7,1153.3,1285.5,1131.4,883.9,-1.0,4.0,0.0,-9387.0,-12356.0,-4065.0,-3337.0,4.0,6.0,0.0,0.0,2.0,-15.0,10864.0,11417.0,-2021.0,-3997.0,1.0,7.0,1.0,1.0
2022-05-13 15:52:00.853885-07:00,1849.8,595.5,989.3,1212.4,817.7,1075.6,1239.9,1306.1,3443.1,3444.3,1353.1,1182.3,1197.4,3440.7,1023.7,1295.4,3431.0,3438.2,658.7,1273.0,888.2,520.3,1235.5,1619.9,3437.0,3438.2,697.9,912.7,1154.2,1290.9,1131.4,883.9,-3.0,0.0,4.0,-9387.0,-12356.0,-4065.0,-3337.0,-5.0,-7.0,-1.0,-3.0,0.0,-15.0,10864.0,11417.0,-2021.0,-3997.0,1.0,-1.0,-1.0,1.0
2022-05-13 15:52:00.897578-07:00,1838.2,593.1,989.3,1212.4,822.7,1073.8,1239.9,1306.1,3441.9,3438.2,1353.1,1182.3,1190.3,3439.5,1023.7,1295.4,3431.0,3438.2,660.3,1270.3,888.2,520.3,1234.6,1618.1,3437.0,3438.2,699.5,922.8,1154.2,1290.9,1132.2,900.8,-7.0,1.0,3.0,-9387.0,-12356.0,-4065.0,-3337.0,-1.0,1.0,-7.0,-5.0,0.0,-12.0,10864.0,11417.0,-2021.0,-3997.0,0.0,1.0,-5.0,1.0
2022-05-13 15:52:00.942638-07:00,1838.2,593.1,988.5,1210.6,822.7,1073.8,1246.2,1324.1,3441.9,3438.2,1348.5,1179.7,1190.3,3439.5,1023.7,1299.8,3435.8,3435.8,660.3,1270.3,880.6,515.5,1234.6,1618.1,3440.7,3433.4,699.5,922.8,1153.3,1287.3,1132.2,900.8,-1.0,4.0,1.0,-9385.0,-12357.0,-4065.0,-3336.0,14.0,1.0,3.0,-1.0,2.0,-14.0,10864.0,11417.0,-2021.0,-3997.0,8.0,6.0,-1.0,1.0
2022-05-13 15:52:00.987790-07:00,1836.2,593.1,988.5,1210.6,813.5,1069.5,1246.2,1324.1,3440.7,3437.0,1348.5,1179.7,1192.0,3443.1,1023.7,1299.8,3435.8,3435.8,661.1,1267.6,880.6,515.5,1239.1,1617.1,3440.7,3433.4,697.9,912.7,1153.3,1287.3,1123.5,889.0,4.0,-1.0,1.0,-9385.0,-12357.0,-4065.0,-3336.0,-4.0,2.0,-4.0,4.0,1.0,-16.0,10864.0,11417.0,-2021.0,-3997.0,-2.0,-1.0,-1.0,1.0
2022-05-13 15:52:01.030177-07:00,1836.2,593.1,990.2,1198.2,813.5,1073.8,1253.3,1320.5,3440.7,3437.0,1357.6,1178.8,1192.0,3439.5,1015.9,1298.1,3449.1,3432.2,661.1,1267.6,885.6,510.7,1239.1,1617.1,3439.5,3443.1,697.0,912.7,1158.6,1287.3,1123.5,889.0,4.0,4.0,0.0,-9385.0,-12357.0,-4065.0,-3336.0,-9.0,-8.0,5.0,1.0,6.0,-15.0,10864.0,11416.0,-2022.0,-3997.0,-10.0,-10.0,3.0,1.0
2022-05-13 15:52:01.077829-07:00,1834.3,598.7,986.7,1198.2,818.5,1073.8,1253.3,1320.5,3444.3,3439.5,1354.0,1178.8,1192.9,3439.5,1015.9,1298.1,3449.1,3432.2,661.1,1264.9,885.6,515.5,1234.6,1619.9,3439.5,3443.1,697.0,919.4,1158.6,1286.4,1121.7,884.8,0.0,0.0,5.0,-9390.0,-12354.0,-4063.0,-3336.0,1.0,1.0,0.0,0.0,0.0,-15.0,10866.0,11415.0,-2021.0,-3998.0,-2.0,0.0,3.0,1.0
2022-05-13 15:52:01.123620-07:00,1834.3,598.7,986.7,1201.8,818.5,1073.8,1235.5,1316.9,3444.3,3439.5,1354.0,1179.7,1192.9,3433.4,1021.9,1299.0,3438.2,3432.2,662.7,1264.9,886.5,515.5,1234.6,1619.9,3441.9,3439.5,699.5,919.4,1157.7,1286.4,1121.7,884.8,-2.0,2.0,4.0,-9391.0,-12354.0,-4063.0,-3337.0,-11.0,-1.0,-1.0,0.0,-1.0,-10.0,10866.0,11415.0,-2021.0,-3998.0,-7.0,0.0,0.0,1.0
2022-05-13 15:52:01.212525-07:00,1835.2,595.5,983.3,1201.8,820.2,1073.8,1235.5,1316.9,3438.2,3439.5,1357.6,1179.7,1192.0,3433.4,1021.9,1299.0,3438.2,3432.2,662.7,1271.2,886.5,511.5,1247.1,1620.9,3441.9,3439.5,699.5,916.9,1157.7,1281.9,1124.4,882.3,-2.0,3.0,-1.0,-9391.0,-12354.0,-4063.0,-3337.0,6.0,4.0,3.0,0.0,1.0,-14.0,10866.0,11415.0,-2021.0,-3998.0,2.0,3.0,0.0,1.0
2022-05-13 15:52:01.214006-07:00,1835.2,595.5,983.3,1208.0,820.2,1066.9,1242.6,1318.7,3438.2,3439.5,1357.6,1180.6,1192.0,3440.7,1018.5,1295.4,3433.4,3433.4,658.7,1271.2,876.4,511.5,1247.1,1620.9,3444.3,3434.6,696.2,916.9,1157.7,1281.9,1124.4,882.3,-1.0,2.0,0.0,-9391.0,-12354.0,-4063.0,-3337.0,-9.0,-2.0,4.0,-1.0,0.0,-13.0,10866.0,11415.0,-2021.0,-3998.0,-9.0,-3.0,3.0,1.0
2022-05-13 15:52:01.302683-07:00,1827.5,593.1,983.3,1210.6,821.9,1066.9,1242.6,1318.7,3435.8,3433.4,1343.1,1184.1,1195.6,3440.7,1018.5,1295.4,3433.4,3433.4,658.7,1270.3,878.0,511.5,1232.8,1627.5,3444.3,3434.6,696.2,911.0,1159.4,1285.5,1124.4,889.8,3.0,4.0,6.0,-9391.0,-12354.0,-4062.0,-3335.0,8.0,-10.0,2.0,2.0,2.0,-10.0,10866.0,11415.0,-2021.0,-3998.0,-1.0,-8.0,-1.0,1.0
2022-05-13 15:52:01.392850-07:00,1827.5,593.1,983.3,1210.6,821.0,1075.6,1243.5,1316.0,3435.8,3433.4,1343.1,1184.1,1192.0,3444.3,1024.5,1293.6,3441.9,3438.2,659.5,1273.0,878.0,511.5,1232.8,1627.5,3440.7,3447.9,697.9,910.1,1159.4,1285.5,1124.4,889.8,0.0,3.0,5.0,-9391.0,-12354.0,-4062.0,-3335.0,1.0,1.0,-1.0,0.0,0.0,-15.0,10866.0,11415.0,-2021.0,-3998.0,-5.0,-6.0,0.0,1.0
2022-05-13 15:52:01.395436-07:00,1834.3,595.5,987.6,1203.5,821.0,1075.6,1243.5,1316.0,3440.7,3434.6,1353.1,1181.5,1192.0,3444.3,1024.5,1293.6,3441.9,3438.2,659.5,1273.0,885.6,512.3,1240.8,1619.9,3440.7,3447.9,697.9,910.1,1154.2,1278.3,1130.5,884.8,-1.0,5.0,4.0,-9391.0,-12354.0,-4062.0,-3335.0,-2.0,2.0,-2.0,0.0,1.0,-12.0,10866.0,11415.0,-2021.0,-3998.0,-2.0,4.0,0.0,1.0
2022-05-13 15:52:01.483118-07:00,1834.3,595.5,987.6,1203.5,820.2,1066.9,1248.8,1313.3,3440.7,3434.6,1353.1,1181.5,1188.5,3438.2,1025.4,1298.1,3438.2,3435.8,661.1,1264.0,885.6,512.3,1240.8,1619.9,3438.2,3439.5,693.8,913.5,1154.2,1278.3,1130.5,884.8,0.0,0.0,2.0,-9391.0,-12354.0,-4062.0,-3335.0,-1.0,5.0,5.0,-1.0,0.0,-15.0,10866.0,11415.0,-2021.0,-3998.0,1.0,1.0,0.0,1.0
2022-05-13 15:52:01.484689-07:00,1833.3,594.7,990.2,1208.0,820.2,1066.9,1248.8,1313.3,3438.2,3435.8,1354.0,1178.8,1188.5,3438.2,1025.4,1298.1,3438.2,3435.8,661.1,1264.0,881.4,513.9,1237.3,1612.4,3438.2,3439.5,693.8,913.5,1151.5,1281.9,1123.5,886.5,0.0,4.0,2.0,-9391.0,-12354.0,-4062.0,-3335.0,5.0,-4.0,0.0,1.0,0.0,-12.0,10866.0,11415.0,-2021.0,-3998.0,7.0,0.0,0.0,1.0
2022-05-13 15:52:01.573646-07:00,1833.3,594.7,990.2,1208.0,821.0,1068.6,1239.9,1321.4,3437.0,3435.8,1354.0,1178.8,1199.1,3443.1,1019.4,1293.6,3438.2,3431.0,662.7,1271.2,881.4,513.9,1237.3,1624.7,3439.5,3443.1,701.1,921.1,1151.5,1281.9,1123.5,892.4,1.0,0.0,10.0,-9391.0,-12354.0,-4062.0,-3336.0,-7.0,10.0,5.0,3.0,0.0,-14.0,10866.0,11415.0,-2021.0,-3998.0,-2.0,4.0,6.0,1.0
2022-05-13 15:52:01.618600-07:00,1833.3,591.5,991.0,1204.4,821.0,1068.6,1239.9,1316.0,3437.0,3437.0,1355.8,1180.6,1199.1,3443.1,1019.4,1299.8,3428.6,3431.0,662.7,1271.2,885.6,515.5,1227.5,1624.7,3439.5,3443.1,701.1,921.1,1153.3,1283.7,1127.9,892.4,-2.0,5.0,1.0,-9393.0,-12353.0,-4061.0,-3336.0,3.0,-12.0,-7.0,-2.0,3.0,-16.0,10866.0,11415.0,-2021.0,-3998.0,0.0,1.0,-6.0,1.0
2022-05-13 15:52:01.619679-07:00,1834.3,591.5,991.0,1204.4,826.0,1072.1,1241.7,1316.0,3440.7,3437.0,1355.8,1180.6,1203.5,3445.5,1023.7,1299.8,3428.6,3433.4,665.2,1252.4,885.6,515.5,1227.5,1620.9,3439.5,3435.8,697.9,912.7,1153.3,1283.7,1127.9,885.6,0.0,3.0,6.0,-9393.0,-12353.0,-4061.0,-3335.0,-6.0,2.0,6.0,0.0,1.0,-12.0,10866.0,11415.0,-2021.0,-3998.0,-1.0,2.0,3.0,1.0
2022-05-13 15:52:01.707572-07:00,1834.3,588.3,997.0,1212.4,826.0,1072.1,1241.7,1316.0,3440.7,3435.8,1358.5,1179.7,1203.5,3445.5,1023.7,1297.2,3438.2,3433.4,665.2,1252.4,889.0,517.1,1233.7,1620.9,3446.7,3435.8,697.9,912.7,1155.0,1284.6,1125.2,885.6,1.0,4.0,3.0,-9393.0,-12353.0,-4061.0,-3335.0,5.0,-2.0,0.0,2.0,2.0,-13.0,10866.0,11415.0,-2021.0,-3998.0,4.0,2.0,-2.0,1.0
2022-05-13 15:52:01.752334-07:00,1837.2,588.3,997.0,1212.4,821.9,1069.5,1244.4,1316.0,3439.5,3435.8,1358.5,1179.7,1198.2,3443.1,1024.5,1297.2,3438.2,3443.1,662.7,1269.4,889.0,517.1,1233.7,1619.9,3446.7,3438.2,693.8,885.6,1155.0,1284.6,1125.2,886.5,0.0,0.0,5.0,-9393.0,-12353.0,-4061.0,-3335.0,-6.0,-1.0,-2.0,1.0,2.0,-16.0,10866.0,11415.0,-2021.0,-3998.0,-8.0,-4.0,1.0,1.0
2022-05-13 15:52:01.842774-07:00,1837.2,595.5,986.7,1200.9,821.9,1069.5,1244.4,1323.2,3439.5,3428.6,1349.4,1176.2,1198.2,3443.1,1024.5,1288.2,3432.2,3443.1,662.7,1269.4,882.3,518.7,1240.8,1619.9,3449.1,3438.2,693.8,885.6,1149.8,1282.8,1121.7,886.5,0.0,4.0,7.0,-9395.0,-12351.0,-4060.0,-3336.0,0.0,-4.0,4.0,-1.0,-1.0,-8.0,10867.0,11414.0,-2021.0,-3998.0,-7.0,-2.0,2.0,1.0
2022-05-13 15:52:01.887336-07:00,1838.2,592.3,986.7,1200.9,816.9,1069.5,1238.2,1323.2,3435.8,3443.1,1349.4,1176.2,1189.4,3437.0,1023.7,1288.2,3432.2,3440.7,661.9,1271.2,882.3,518.7,1239.1,1620.9,3449.1,3435.8,698.7,927.1,1149.8,1282.8,1123.5,888.2,-3.0,2.0,7.0,-9395.0,-12351.0,-4060.0,-3336.0,-2.0,2.0,1.0,0.0,1.0,-10.0,10867.0,11414.0,-2021.0,-3998.0,1.0,2.0,1.0,1.0
2022-05-13 15:52:01.888890-07:00,1838.2,592.3,989.3,1207.1,816.9,1069.5,1240.8,1302.5,3435.8,3443.1,1353.1,1177.9,1189.4,3437.0,1025.4,1294.5,3423.7,3437.0,661.9,1271.2,887.3,513.1,1239.1,1620.9,3435.8,3444.3,698.7,927.1,1157.7,1283.7,1123.5,888.2,-2.0,9.0,4.0,-9395.0,-12351.0,-4060.0,-3336.0,0.0,2.0,2.0,0.0,1.0,-12.0,10867.0,11414.0,-2021.0,-3998.0,3.0,2.0,3.0,1.0
2022-05-13 15:52:01.930799-07:00,1833.3,590.7,989.3,1207.1,825.2,1077.3,1240.8,1302.5,3434.6,3444.3,1353.1,1177.9,1196.5,3439.5,1025.4,1294.5,3423.7,3437.0,661.1,1268.5,887.3,513.1,1236.4,1619.9,3435.8,3444.3,695.4,908.4,1157.7,1283.7,1125.2,884.8,0.0,1.0,0.0,-9395.0,-12351.0,-4060.0,-3336.0,0.0,-9.0,-3.0,0.0,2.0,-14.0,10867.0,11414.0,-2021.0,-3998.0,-1.0,-5.0,-1.0,1.0
2022-05-13 15:52:02.068550-07:00,1833.3,590.7,990.2,1200.0,825.2,1077.3,1260.4,1326.8,3434.6,3444.3,1356.7,1182.3,1196.5,3439.5,1026.3,1295.4,3434.6,3439.5,661.1,1268.5,882.3,515.5,1236.4,1619.9,3444.3,3433.4,695.4,908.4,1149.8,1289.1,1125.2,884.8,0.0,1.0,1.0,-9397.0,-12350.0,-4060.0,-3336.0,-7.0,-4.0,7.0,2.0,1.0,-13.0,10867.0,11414.0,-2021.0,-3998.0,-1.0,-5.0,3.0,1.0
2022-05-13 15:52:02.069728-07:00,1826.5,597.1,990.2,1200.0,820.2,1068.6,1260.4,1326.8,3437.0,3449.1,1356.7,1182.3,1190.3,3443.1,1026.3,1295.4,3434.6,3439.5,664.4,1271.2,882.3,515.5,1239.1,1617.1,3444.3,3433.4,699.5,907.6,1149.8,1289.1,1127.9,879.7,1.0,1.0,12.0,-9398.0,-12349.0,-4059.0,-3337.0,-15.0,-3.0,-2.0,3.0,11.0,-14.0,10867.0,11414.0,-2021.0,-3998.0,-13.0,-5.0,1.0,1.0
2022-05-13 15:52:02.070742-07:00,1826.5,597.1,985.0,1207.1,820.2,1063.4,1246.2,1318.7,3437.0,3449.1,1351.2,1181.5,1190.3,3443.1,1024.5,1297.2,3435.8,3444.3,661.9,1271.2,886.5,517.1,1239.1,1617.1,3441.9,3444.3,692.1,907.6,1163.0,1288.2,1127.9,879.7,0.0,6.0,4.0,-9396.0,-12349.0,-4061.0,-3338.0,14.0,11.0,4.0,0.0,6.0,-10.0,10865.0,11415.0,-2021.0,-3998.0,11.0,6.0,3.0,1.0
2022-05-13 15:52:02.158033-07:00,1831.3,591.5,988.5,1207.1,819.4,1063.4,1246.2,1318.7,3439.5,3444.3,1355.8,1181.5,1190.3,3443.1,1024.5,1297.2,3435.8,3444.3,661.9,1263.1,886.5,518.7,1234.6,1619.9,3441.9,3444.3,692.1,912.7,1163.0,1280.1,1125.2,888.2,-2.0,0.0,1.0,-9395.0,-12349.0,-4063.0,-3341.0,-6.0,6.0,0.0,0.0,-1.0,-12.0,10865.0,11415.0,-2021.0,-3998.0,3.0,5.0,2.0,1.0
2022-05-13 15:52:02.247473-07:00,1831.3,591.5,988.5,1204.4,819.4,1066.0,1250.6,1316.0,3439.5,3444.3,1355.8,1184.1,1190.3,3440.7,1014.2,1300.7,3427.4,3431.0,660.3,1263.1,884.8,518.7,1234.6,1619.9,3441.9,3444.3,703.6,912.7,1154.2,1280.1,1125.2,888.2,-3.0,2.0,0.0,-9395.0,-12349.0,-4063.0,-3341.0,2.0,-1.0,3.0,-2.0,0.0,-11.0,10865.0,11415.0,-2021.0,-3998.0,0.0,-1.0,3.0,1.0
2022-05-13 15:52:02.293346-07:00,1833.3,597.1,988.5,1204.4,817.7,1066.0,1250.6,1316.0,3441.9,3433.4,1348.5,1184.1,1197.4,3440.7,1014.2,1300.7,3427.4,3431.0,660.3,1273.0,884.8,512.3,1240.8,1617.1,3441.9,3444.3,703.6,919.4,1154.2,1290.9,1131.4,884.8,1.0,1.0,10.0,-9395.0,-12349.0,-4063.0,-3341.0,7.0,-2.0,9.0,3.0,0.0,-9.0,10865.0,11415.0,-2021.0,-3998.0,7.0,-3.0,6.0,1.0
2022-05-13 15:52:02.294460-07:00,1833.3,597.1,988.5,1207.1,817.7,1074.7,1249.7,1317.8,3441.9,3433.4,1348.5,1178.8,1197.4,3437.0,1022.8,1307.0,3439.5,3431.0,657.0,1273.0,883.1,512.3,1240.8,1617.1,3449.1,3441.9,700.3,919.4,1159.4,1290.9,1131.4,884.8,0.0,2.0,10.0,-9388.0,-12354.0,-4065.0,-3338.0,34.0,2.0,-2.0,3.0,1.0,-8.0,10862.0,11419.0,-2022.0,-3996.0,25.0,13.0,-2.0,1.0
2022-05-13 15:52:02.382164-07:00,1833.3,593.9,994.5,1207.1,821.9,1074.7,1249.7,1317.8,3434.6,3435.8,1350.3,1178.8,1192.0,3437.0,1022.8,1307.0,3439.5,3431.0,657.0,1274.7,883.1,514.7,1239.9,1621.8,3449.1,3441.9,700.3,911.8,1159.4,1288.2,1132.2,887.3,0.0,0.0,3.0,-9382.0,-12359.0,-4067.0,-3336.0,-16.0,7.0,-3.0,-1.0,-2.0,-15.0,10857.0,11425.0,-2022.0,-3994.0,-2.0,4.0,1.0,1.0
2022-05-13 15:52:02.383821-07:00,1833.3,593.9,994.5,1210.6,821.9,1066.9,1240.8,1323.2,3434.6,3435.8,1350.3,1175.3,1194.7,3438.2,1039.2,1302.5,3438.2,3438.2,665.2,1267.6,878.0,514.7,1239.9,1621.8,3439.5,3449.1,692.1,919.4,1153.3,1288.2,1132.2,887.3,0.0,6.0,0.0,-9381.0,-12359.0,-4067.0,-3338.0,17.0,4.0,8.0,-1.0,5.0,-14.0,10855.0,11426.0,-2023.0,-3994.0,15.0,5.0,4.0,1.0
2022-05-13 15:52:02.517359-07:00,1840.1,593.1,990.2,1208.0,821.9,1066.9,1240.8,1323.2,3440.7,3434.6,1351.2,1180.6,1194.7,3438.2,1039.2,1302.5,3438.2,3438.2,665.2,1267.6,887.3,513.9,1240.8,1619.0,3439.5,3449.1,692.1,919.4,1157.7,1279.2,1133.1,883.9,2.0,0.0,2.0,-9379.0,-12361.0,-4068.0,-3337.0,-13.0,-10.0,3.0,3.0,-1.0,-13.0,10855.0,11426.0,-2023.0,-3994.0,-8.0,-7.0,2.0,1.0
2022-05-13 15:52:02.518569-07:00,1840.1,593.1,990.2,1208.0,819.4,1074.7,1248.0,1321.4,3440.7,3434.6,1351.2,1180.6,1198.2,3444.3,1030.6,1299.0,3440.7,3439.5,653.0,1278.3,887.3,513.9,1240.8,1619.0,3446.7,3447.9,697.0,916.0,1157.7,1279.2,1133.1,883.9,1.0,6.0,7.0,-9380.0,-12360.0,-4066.0,-3338.0,-11.0,-4.0,7.0,3.0,0.0,-9.0,10856.0,11425.0,-2024.0,-3995.0,-7.0,-8.0,4.0,1.0
2022-05-13 15:52:02.519624-07:00,1831.3,591.5,991.9,1217.7,819.4,1074.7,1248.0,1321.4,3444.3,3444.3,1344.9,1184.1,1198.2,3444.3,1030.6,1299.0,3440.7,3439.5,653.0,1278.3,882.3,520.3,1238.2,1621.8,3446.7,3447.9,697.0,916.0,1151.5,1277.4,1124.4,883.9,1.0,2.0,9.0,-9383.0,-12358.0,-4066.0,-3338.0,5.0,6.0,3.0,1.0,0.0,-11.0,10856.0,11425.0,-2024.0,-3995.0,4.0,5.0,3.0,1.0
2022-05-13 15:52:02.698009-07:00,1831.3,591.5,991.9,1217.7,815.2,1073.8,1245.3,1326.8,3444.3,3444.3,1344.9,1184.1,1192.0,3444.3,1024.5,1299.0,3435.8,3443.1,670.9,1271.2,882.3,520.3,1238.2,1621.8,3437.0,3437.0,694.6,916.9,1151.5,1277.4,1124.4,883.9,6.0,31.0,22.0,-9380.0,-12358.0,-4067.0,-3343.0,0.0,31.0,0.0,5.0,24.0,-10.0,10864.0,11417.0,-2022.0,-3996.0,-76.0,-12.0,12.0,1.0
2022-05-13 15:52:02.700598-07:00,1829.4,603.6,983.3,1213.3,815.2,1073.8,1245.3,1318.7,3441.9,3438.2,1354.0,1174.4,1192.0,3444.3,1024.5,1293.6,3443.1,3443.1,670.9,1271.2,885.6,515.5,1239.9,1621.8,3439.5,3437.0,694.6,916.9,1154.2,1285.5,1132.2,889.0,-29.0,35.0,38.0,-9411.0,-12318.0,-4093.0,-3374.0,-178.0,169.0,-67.0,-1.0,14.0,5.0,10899.0,11381.0,-2013.0,-4007.0,-190.0,-30.0,-15.0,1.0
2022-05-13 15:52:02.701719-07:00,1883.0,603.6,983.3,1213.3,808.5,1072.1,1285.5,1318.7,3440.7,3438.2,1354.0,1174.4,1196.5,3428.6,1024.5,1293.6,3443.1,3443.1,666.8,1277.4,885.6,515.5,1239.9,1614.3,3439.5,3443.1,700.3,916.9,1154.2,1285.5,1132.2,885.6,-22.0,27.0,-21.0,-9472.0,-12252.0,-4133.0,-3396.0,-206.0,19.0,-241.0,-18.0,-34.0,-39.0,10971.0,11293.0,-2003.0,-4064.0,-281.0,-145.0,-19.0,1.0
2022-05-13 15:52:02.742772-07:00,1883.0,640.0,994.5,1209.7,808.5,1072.1,1285.5,1552.5,3440.7,3446.7,1744.5,1360.3,1196.5,3428.6,1024.5,1302.5,3433.4,3443.1,666.8,1277.4,898.3,515.5,1264.9,1614.3,3444.3,3443.1,700.3,916.9,1160.3,1290.9,1121.7,885.6,9.0,8.0,21.0,-9475.0,-12241.0,-4195.0,-3349.0,50.0,103.0,8.0,-8.0,45.0,-41.0,11003.0,11244.0,-2016.0,-4107.0,-142.0,-129.0,38.0,1.0
2022-05-13 15:52:02.785823-07:00,1998.5,640.0,994.5,1209.7,814.4,1181.5,1660.6,1552.5,3437.0,3446.7,1744.5,1360.3,1238.2,3437.0,1036.6,1302.5,3433.4,3431.0,670.1,1299.8,898.3,515.5,1264.9,1616.2,3444.3,3443.1,720.0,948.3,1160.3,1290.9,1121.7,885.6,-3.0,33.0,16.0,-9491.0,-12208.0,-4195.0,-3424.0,-86.0,103.0,195.0,-10.0,113.0,-50.0,11057.0,11178.0,-2052.0,-4126.0,-215.0,-103.0,86.0,1.0
2022-05-13 15:52:02.830836-07:00,1998.5,653.8,986.7,1212.4,814.4,1181.5,1660.6,1663.4,3437.0,3438.2,2198.3,1493.0,1238.2,3437.0,1036.6,1309.7,3434.6,3431.0,670.1,1299.8,946.6,517.9,1281.9,1616.2,3439.5,3443.1,720.0,948.3,1155.9,1277.4,1122.6,885.6,0.0,30.0,25.0,-9555.0,-12119.0,-4202.0,-3552.0,-285.0,345.0,-107.0,-4.0,-16.0,-10.0,11123.0,11107.0,-2061.0,-4134.0,-273.0,-22.0,40.0,1.0
2022-05-13 15:52:02.877655-07:00,2019.4,687.2,986.7,1212.4,821.9,1396.7,1802.3,1663.4,3435.8,3438.2,2198.3,1493.0,1311.5,3439.5,1051.3,1309.7,3434.6,3433.4,666.8,1364.8,946.6,517.9,1334.1,1623.7,3439.5,3441.9,773.6,971.3,1155.9,1277.4,1131.4,885.6,-53.0,-34.0,-18.0,-9541.0,-12077.0,-4316.0,-3595.0,259.0,-3.0,-126.0,-6.0,24.0,50.0,11157.0,11074.0,-2041.0,-4142.0,18.0,-14.0,-27.0,1.0
2022-05-13 15:52:02.923191-07:00,2019.4,687.2,991.0,1210.6,821.9,1396.7,1882.0,1752.1,3435.8,3438.2,2255.9,1513.4,1311.5,3439.5,1070.3,1316.9,3444.3,3433.4,666.8,1364.8,1005.6,525.8,1334.1,1623.7,3428.6,3444.3,773.6,971.3,1153.3,1288.2,1131.4,885.6,85.0,43.0,18.0,-9454.0,-12157.0,-4345.0,-3517.0,226.0,85.0,-15.0,36.0,30.0,-86.0,11158.0,11065.0,-2047.0,-4158.0,-80.0,0.0,-10.0,1.0
2022-05-13 15:52:03.012947-07:00,2011.4,705.2,991.0,1210.6,820.2,1574.9,1882.0,1752.1,3443.1,3428.6,2255.9,1513.4,1422.2,3441.9,1070.3,1316.9,3444.3,3433.4,670.1,1460.8,1005.6,525.8,1445.1,1625.6,3428.6,3444.3,815.2,1024.5,1153.3,1288.2,1128.7,894.1,-48.0,-13.0,-3.0,-9446.0,-12104.0,-4443.0,-3602.0,-205.0,362.0,-113.0,0.0,2.0,60.0,11229.0,10997.0,-2017.0,-4165.0,-278.0,8.0,21.0,1.0
2022-05-13 15:52:03.014143-07:00,2011.4,705.2,994.5,1202.7,820.2,1574.9,1849.8,1735.8,3443.1,3428.6,2192.2,1487.5,1422.2,3441.9,1070.3,1321.4,3433.4,3441.9,670.1,1460.8,1025.4,522.6,1445.1,1625.6,3449.1,3437.0,815.2,1024.5,1154.2,1289.1,1128.7,894.1,13.0,5.0,-33.0,-9435.0,-12095.0,-4473.0,-3622.0,280.0,-308.0,139.0,-5.0,19.0,-39.0,11237.0,10985.0,-2015.0,-4174.0,165.0,-72.0,-28.0,1.0
2022-05-13 15:52:03.058367-07:00,1995.5,692.9,994.5,1202.7,814.4,1583.3,1849.8,1735.8,3445.5,3435.8,2192.2,1487.5,1520.8,3440.7,1070.3,1321.4,3433.4,3441.9,669.3,1470.9,1025.4,522.6,1451.6,1627.5,3449.1,3437.0,819.4,1038.3,1154.2,1289.1,1125.2,942.4,-18.0,-2.0,20.0,-9393.0,-12154.0,-4437.0,-3577.0,-21.0,113.0,2.0,-16.0,31.0,12.0,11212.0,11005.0,-2024.0,-4186.0,-59.0,-13.0,10.0,1.0
2022-05-13 15:52:03.147619-07:00,1995.5,692.9,985.0,1224.8,814.4,1569.3,1823.6,1728.2,3445.5,3435.8,2166.7,1465.4,1520.8,3440.7,1073.8,1318.7,3437.0,3437.0,666.8,1470.9,1021.1,524.2,1451.6,1627.5,3428.6,3440.7,817.7,1038.3,1148.9,1282.8,1125.2,942.4,-10.0,3.0,17.0,-9384.0,-12149.0,-4458.0,-3593.0,100.0,-8.0,11.0,0.0,32.0,19.0,11216.0,10999.0,-2023.0,-4191.0,93.0,-6.0,-14.0,1.0
2022-05-13 15:52:03.237505-07:00,1990.5,688.9,985.0,1224.8,816.9,1569.3,1823.6,1728.2,3437.0,3441.9,2142.2,1465.4,1572.1,3440.7,1073.8,1318.7,3437.0,3437.0,666.8,1467.2,1021.1,527.4,1446.0,1626.5,3428.6,3440.7,817.7,1036.6,1148.9,1290.0,1124.4,931.3,0.0,-28.0,38.0,-9342.0,-12178.0,-4477.0,-3580.0,172.0,99.0,-59.0,6.0,-17.0,-7.0,11186.0,11030.0,-2020.0,-4190.0,51.0,46.0,-14.0,1.0
2022-05-13 15:52:03.239215-07:00,1990.5,688.9,985.0,1203.5,816.9,1547.8,1819.7,1717.7,3437.0,3441.9,2142.2,1458.9,1572.1,3445.5,1074.7,1325.0,3439.5,3434.6,668.4,1467.2,1019.4,527.4,1446.0,1626.5,3443.1,3437.0,823.5,1036.6,1153.3,1290.0,1124.4,931.3,-20.0,-14.0,-18.0,-9298.0,-12183.0,-4532.0,-3610.0,-14.0,80.0,63.0,-5.0,-7.0,24.0,11190.0,11036.0,-2009.0,-4169.0,17.0,27.0,35.0,1.0
2022-05-13 15:52:03.282562-07:00,1995.5,682.3,997.9,1203.5,817.7,1547.8,1819.7,1717.7,3444.3,3440.7,2124.0,1458.9,1548.7,3445.5,1074.7,1325.0,3439.5,3434.6,668.4,1466.3,1019.4,522.6,1429.5,1624.7,3443.1,3437.0,823.5,1033.2,1153.3,1284.6,1116.5,931.3,12.0,2.0,-6.0,-9291.0,-12191.0,-4508.0,-3628.0,-18.0,26.0,0.0,10.0,-15.0,-48.0,11187.0,11041.0,-2016.0,-4160.0,-10.0,18.0,-5.0,1.0
2022-05-13 15:52:03.325747-07:00,1995.5,682.3,997.9,1207.1,817.7,1546.9,1807.1,1718.6,3444.3,3440.7,2124.0,1453.4,1548.7,3437.0,1088.6,1324.1,3439.5,3435.8,666.8,1466.3,1015.9,522.6,1429.5,1624.7,3445.5,3439.5,816.0,1033.2,1156.8,1284.6,1116.5,931.3,-20.0,0.0,-13.0,-9279.0,-12188.0,-4538.0,-3635.0,55.0,70.0,-35.0,-11.0,8.0,16.0,11188.0,11044.0,-2009.0,-4153.0,18.0,-4.0,5.0,1.0
2022-05-13 15:52:03.372695-07:00,1988.5,674.2,991.0,1207.1,817.7,1546.9,1807.1,1718.6,3438.2,3434.6,2116.9,1453.4,1548.7,3437.0,1088.6,1324.1,3439.5,3435.8,666.8,1459.8,1015.9,524.2,1428.6,1631.3,3445.5,3439.5,816.0,1024.5,1156.8,1278.3,1120.9,932.2,-6.0,-17.0,-7.0,-9269.0,-12203.0,-4524.0,-3624.0,10.0,-91.0,68.0,-1.0,0.0,-15.0,11183.0,11046.0,-2020.0,-4156.0,18.0,-56.0,26.0,1.0
2022-05-13 15:52:03.417410-07:00,1988.5,674.2,991.0,1207.1,814.4,1535.7,1803.2,1718.6,3438.2,3434.6,2116.9,1456.2,1544.1,3450.4,1086.0,1324.1,3433.4,3429.8,666.8,1451.6,1015.1,524.2,1428.6,1631.3,3438.2,3433.4,816.0,1025.4,1153.3,1278.3,1120.9,932.2,0.0,-10.0,29.0,-9265.0,-12223.0,-4486.0,-3614.0,-7.0,-24.0,22.0,0.0,-18.0,-11.0,11186.0,11038.0,-2037.0,-4162.0,-9.0,-14.0,19.0,1.0
2022-05-13 15:52:03.463307-07:00,1987.5,676.6,998.7,1203.5,814.4,1535.7,1803.2,1718.6,3445.5,3440.7,2102.7,1451.6,1544.1,3450.4,1086.0,1324.1,3433.4,3429.8,666.8,1451.6,1014.2,524.2,1426.8,1630.3,3438.2,3433.4,816.0,1025.4,1158.6,1280.1,1125.2,933.0,-7.0,7.0,11.0,-9252.0,-12228.0,-4492.0,-3624.0,33.0,31.0,19.0,2.0,6.0,13.0,11187.0,11038.0,-2044.0,-4156.0,10.0,-3.0,22.0,1.0
2022-05-13 15:52:03.507640-07:00,1987.5,676.6,998.7,1203.5,816.0,1537.6,1793.6,1712.9,3445.5,3440.7,2102.7,1451.6,1530.1,3433.4,1079.0,1320.5,3434.6,3439.5,665.2,1461.7,1014.2,524.2,1426.8,1630.3,3444.3,3437.0,817.7,1022.8,1158.6,1280.1,1125.2,933.0,6.0,26.0,2.0,-9238.0,-12240.0,-4483.0,-3629.0,32.0,0.0,28.0,0.0,20.0,-14.0,11185.0,11042.0,-2050.0,-4149.0,7.0,12.0,8.0,1.0
2022-05-13 15:52:03.597547-07:00,1986.6,666.0,996.2,1213.3,816.0,1537.6,1793.6,1712.9,3444.3,3431.0,2103.7,1447.9,1530.1,3433.4,1079.0,1320.5,3434.6,3439.5,665.2,1461.7,1006.5,521.0,1418.6,1619.0,3444.3,3437.0,817.7,1022.8,1153.3,1288.2,1121.7,936.4,-2.0,-8.0,-4.0,-9228.0,-12241.0,-4499.0,-3633.0,53.0,45.0,-45.0,-2.0,-2.0,-10.0,11180.0,11050.0,-2043.0,-4144.0,27.0,23.0,-18.0,1.0
2022-05-13 15:52:03.686895-07:00,1986.6,666.0,996.2,1213.3,821.0,1539.4,1783.9,1710.0,3444.3,3431.0,2103.7,1447.9,1519.0,3440.7,1083.4,1323.2,3438.2,3434.6,664.4,1459.8,1006.5,521.0,1418.6,1619.0,3449.1,3441.9,816.0,1018.5,1153.3,1288.2,1121.7,936.4,-3.0,-7.0,-9.0,-9213.0,-12248.0,-4513.0,-3630.0,34.0,3.0,15.0,-3.0,4.0,-12.0,11171.0,11060.0,-2040.0,-4142.0,21.0,2.0,4.0,1.0
2022-05-13 15:52:03.687304-07:00,1974.6,669.3,983.3,1203.5,821.0,1539.4,1783.9,1706.2,3438.2,3441.9,2097.7,1447.0,1519.0,3440.7,1083.4,1321.4,3434.6,3434.6,664.4,1459.8,1012.5,523.4,1417.6,1630.3,3440.7,3441.9,816.0,1018.5,1155.0,1260.4,1127.0,927.9,-6.0,-2.0,6.0,-9207.0,-12258.0,-4497.0,-3632.0,18.0,-28.0,36.0,1.0,-8.0,-4.0,11170.0,11059.0,-2052.0,-4141.0,12.0,-22.0,12.0,1.0
2022-05-13 15:52:03.732522-07:00,1992.5,669.3,983.3,1203.5,816.9,1532.9,1782.9,1706.2,3443.1,3441.9,2097.7,1447.0,1516.2,3444.3,1088.6,1321.4,3434.6,3431.0,666.0,1457.1,1012.5,523.4,1417.6,1625.6,3440.7,3439.5,811.9,1018.5,1155.0,1260.4,1127.0,933.0,-1.0,-17.0,14.0,-9207.0,-12263.0,-4488.0,-3627.0,-12.0,-14.0,-3.0,5.0,-16.0,-1.0,11167.0,11060.0,-2058.0,-4144.0,-16.0,-16.0,-2.0,1.0
2022-05-13 15:52:03.777776-07:00,1992.5,670.1,988.5,1197.4,816.9,1532.9,1782.9,1703.3,3443.1,3438.2,2092.6,1436.9,1516.2,3444.3,1088.6,1322.3,3429.8,3431.0,666.0,1457.1,1009.0,521.0,1407.6,1625.6,3438.2,3439.5,811.9,1018.5,1152.4,1281.0,1123.5,933.0,-5.0,-9.0,-1.0,-9201.0,-12273.0,-4474.0,-3625.0,22.0,-40.0,70.0,2.0,-6.0,-4.0,11164.0,11063.0,-2064.0,-4141.0,18.0,-9.0,23.0,1.0
2022-05-13 15:52:03.822384-07:00,1975.6,670.1,988.5,1197.4,821.9,1528.3,1783.9,1703.3,3437.0,3438.2,2092.6,1436.9,1510.6,3440.7,1082.5,1322.3,3429.8,3440.7,667.6,1452.5,1009.0,521.0,1407.6,1627.5,3438.2,3435.8,816.9,1017.6,1152.4,1281.0,1123.5,925.4,1.0,-1.0,-11.0,-9195.0,-12298.0,-4423.0,-3617.0,1.0,-132.0,110.0,0.0,4.0,-15.0,11158.0,11067.0,-2082.0,-4138.0,11.0,-36.0,32.0,1.0
2022-05-13 15:52:03.866701-07:00,1975.6,666.8,988.5,1208.0,821.9,1528.3,1783.9,1711.0,3437.0,3449.1,2091.6,1438.7,1510.6,3440.7,1082.5,1317.8,3427.4,3440.7,667.6,1452.5,1005.6,529.0,1414.0,1627.5,3438.2,3435.8,816.9,1017.6,1158.6,1281.0,1126.1,925.4,15.0,30.0,9.0,-9201.0,-12322.0,-4357.0,-3600.0,-12.0,-105.0,79.0,4.0,8.0,-24.0,11154.0,11065.0,-2107.0,-4142.0,-6.0,-56.0,23.0,1.0
2022-05-13 15:52:04.002088-07:00,1976.6,670.1,988.5,1208.0,816.0,1521.8,1772.3,1711.0,3440.7,3438.2,2091.6,1438.7,1506.9,3446.7,1086.0,1317.8,3427.4,3440.7,662.7,1450.6,1005.6,529.0,1397.6,1628.4,3438.2,3439.5,813.5,1010.8,1158.6,1281.0,1127.9,926.2,0.0,7.0,23.0,-9208.0,-12324.0,-4341.0,-3593.0,41.0,-21.0,1.0,4.0,5.0,0.0,11153.0,11062.0,-2116.0,-4147.0,24.0,-16.0,-7.0,1.0
2022-05-13 15:52:04.003286-07:00,1976.6,670.1,989.3,1210.6,816.0,1521.8,1775.2,1705.3,3440.7,3438.2,2085.6,1442.4,1506.9,3446.7,1086.8,1324.1,3432.2,3440.7,662.7,1450.6,1012.5,517.9,1397.6,1628.4,3438.2,3445.5,813.5,1010.8,1155.0,1281.0,1127.9,926.2,4.0,5.0,24.0,-9210.0,-12321.0,-4343.0,-3598.0,4.0,34.0,10.0,3.0,5.0,-5.0,11151.0,11065.0,-2117.0,-4146.0,2.0,13.0,9.0,1.0
2022-05-13 15:52:04.004364-07:00,1974.6,662.7,989.3,1210.6,822.7,1521.8,1775.2,1705.3,3439.5,3438.2,2085.6,1442.4,1513.4,3440.7,1086.8,1324.1,3432.2,3440.7,661.9,1455.2,1012.5,517.9,1404.9,1626.5,3438.2,3445.5,807.7,1007.3,1155.0,1281.0,1116.5,924.5,-4.0,1.0,3.0,-9206.0,-12310.0,-4363.0,-3620.0,22.0,70.0,-20.0,0.0,0.0,0.0,11152.0,11069.0,-2108.0,-4134.0,20.0,39.0,-4.0,1.0
2022-05-13 15:52:04.092643-07:00,1974.6,662.7,988.5,1212.4,822.7,1521.8,1767.5,1703.3,3439.5,3438.2,2067.5,1441.5,1513.4,3440.7,1081.6,1325.0,3439.5,3449.1,661.9,1455.2,1005.6,523.4,1404.9,1626.5,3435.8,3440.7,807.7,1007.3,1161.2,1281.0,1116.5,924.5,0.0,-8.0,-8.0,-9189.0,-12312.0,-4382.0,-3633.0,26.0,58.0,3.0,0.0,0.0,-20.0,11145.0,11082.0,-2102.0,-4124.0,15.0,17.0,4.0,1.0
2022-05-13 15:52:04.135854-07:00,1978.6,657.9,988.5,1212.4,816.0,1523.6,1767.5,1703.3,3428.6,3428.6,2067.5,1441.5,1509.7,3443.1,1081.6,1325.0,3439.5,3449.1,667.6,1455.2,1005.6,523.4,1394.8,1627.5,3435.8,3440.7,807.7,1015.1,1161.2,1281.0,1118.2,915.2,1.0,0.0,-5.0,-9180.0,-12312.0,-4390.0,-3650.0,-2.0,25.0,11.0,-1.0,8.0,-12.0,11144.0,11084.0,-2103.0,-4120.0,3.0,-3.0,14.0,1.0
2022-05-13 15:52:04.182337-07:00,1978.6,657.9,997.0,1209.7,816.0,1523.6,1763.7,1699.5,3428.6,3428.6,2072.5,1436.9,1509.7,3443.1,1082.5,1320.5,3431.0,3437.0,667.6,1455.2,1007.3,523.4,1394.8,1627.5,3449.1,3438.2,807.7,1015.1,1155.9,1281.9,1118.2,915.2,-2.0,-2.0,-4.0,-9180.0,-12313.0,-4382.0,-3655.0,-14.0,-32.0,32.0,1.0,5.0,-4.0,11143.0,11085.0,-2104.0,-4120.0,5.0,-16.0,6.0,1.0
2022-05-13 15:52:04.250434-07:00,1965.7,661.9,1008.2,1209.7,814.4,1506.0,1763.7,1699.5,3438.2,3439.5,2070.5,1436.9,1506.9,3441.9,1082.5,1320.5,3431.0,3437.0,665.2,1453.4,1007.3,528.2,1389.4,1628.4,3449.1,3438.2,810.2,1008.2,1155.9,1282.8,1121.7,927.9,-7.0,-12.0,4.0,-9187.0,-12316.0,-4352.0,-3662.0,-18.0,-42.0,82.0,3.0,-5.0,3.0,11148.0,11077.0,-2116.0,-4121.0,-20.0,-22.0,36.0,1.0
2022-05-13 15:52:04.294724-07:00,1965.7,661.9,1008.2,1209.7,814.4,1501.4,1764.6,1692.9,3438.2,3439.5,2070.5,1439.6,1506.9,3446.7,1080.8,1323.2,3439.5,3439.5,664.4,1453.4,1007.3,528.2,1389.4,1628.4,3439.5,3438.2,801.0,1008.2,1155.9,1282.8,1121.7,927.9,1.0,9.0,-1.0,-9194.0,-12325.0,-4315.0,-3659.0,2.0,-59.0,33.0,3.0,-5.0,-18.0,11150.0,11072.0,-2133.0,-4120.0,-8.0,-31.0,20.0,1.0
2022-05-13 15:52:04.339362-07:00,1974.6,664.4,1016.8,1209.7,819.4,1501.4,1764.6,1692.9,3438.2,3429.8,2065.5,1439.6,1507.8,3446.7,1080.8,1323.2,3439.5,3439.5,664.4,1453.4,1007.3,517.9,1384.8,1628.4,3439.5,3438.2,801.0,1005.6,1155.9,1285.5,1124.4,918.6,-1.0,-2.0,13.0,-9193.0,-12329.0,-4314.0,-3648.0,0.0,-1.0,-12.0,2.0,-4.0,-3.0,11147.0,11073.0,-2137.0,-4123.0,1.0,-3.0,-3.0,1.0
2022-05-13 15:52:04.385308-07:00,1974.6,664.4,1016.8,1213.3,819.4,1493.0,1763.7,1692.9,3438.2,3429.8,2065.5,1429.5,1507.8,3439.5,1079.0,1320.5,3433.4,3439.5,664.4,1453.4,1007.3,517.9,1384.8,1628.4,3443.1,3428.6,808.5,1005.6,1157.7,1285.5,1124.4,918.6,-6.0,-5.0,8.0,-9192.0,-12327.0,-4317.0,-3656.0,9.0,11.0,20.0,4.0,1.0,4.0,11148.0,11072.0,-2139.0,-4122.0,6.0,7.0,14.0,1.0
2022-05-13 15:52:04.430287-07:00,1974.6,654.6,1007.3,1213.3,817.7,1493.0,1763.7,1692.9,3437.0,3439.5,2057.4,1429.5,1507.8,3439.5,1079.0,1320.5,3433.4,3439.5,664.4,1454.3,1007.3,527.4,1385.7,1630.3,3443.1,3428.6,808.5,1000.5,1157.7,1281.9,1119.1,923.7,-1.0,12.0,0.0,-9190.0,-12326.0,-4321.0,-3659.0,15.0,13.0,-26.0,0.0,0.0,-3.0,11148.0,11073.0,-2139.0,-4119.0,4.0,8.0,-6.0,1.0
2022-05-13 15:52:04.475178-07:00,1974.6,654.6,1007.3,1210.6,814.4,1481.9,1757.0,1687.2,3437.0,3439.5,2057.4,1429.5,1492.1,3432.2,1076.4,1321.4,3428.6,3434.6,668.4,1448.8,1010.8,527.4,1385.7,1630.3,3437.0,3439.5,794.4,1002.2,1156.8,1281.9,1119.1,923.7,-1.0,-8.0,0.0,-9184.0,-12330.0,-4326.0,-3654.0,17.0,5.0,6.0,0.0,0.0,-9.0,11142.0,11080.0,-2136.0,-4118.0,15.0,9.0,-3.0,1.0
2022-05-13 15:52:04.521087-07:00,1974.6,652.2,1010.8,1210.6,814.4,1481.9,1757.0,1687.2,3441.9,3439.5,2040.4,1429.5,1492.1,3432.2,1076.4,1321.4,3428.6,3434.6,668.4,1448.8,1011.6,522.6,1377.5,1619.0,3437.0,3439.5,794.4,1002.2,1152.4,1282.8,1123.5,929.6,4.0,9.0,-6.0,-9180.0,-12333.0,-4325.0,-3654.0,0.0,3.0,4.0,3.0,8.0,-17.0,11141.0,11082.0,-2137.0,-4117.0,-7.0,-7.0,5.0,1.0
2022-05-13 15:52:04.565040-07:00,1974.6,652.2,1010.8,1210.6,821.9,1484.7,1756.0,1685.3,3441.9,3439.5,2040.4,1429.5,1498.6,3445.5,1079.0,1316.9,3432.2,3434.6,673.3,1446.0,1011.6,522.6,1377.5,1619.0,3431.0,3428.6,800.2,1003.0,1152.4,1282.8,1123.5,929.6,-3.0,-12.0,1.0,-9178.0,-12336.0,-4323.0,-3651.0,-1.0,-22.0,13.0,5.0,-10.0,-6.0,11138.0,11084.0,-2138.0,-4117.0,-8.0,-13.0,0.0,1.0
2022-05-13 15:52:04.655260-07:00,1967.7,653.8,1018.5,1212.4,821.9,1484.7,1756.0,1685.3,3444.3,3444.3,2037.4,1425.9,1498.6,3445.5,1079.0,1316.9,3432.2,3434.6,673.3,1446.0,1004.8,517.9,1379.4,1627.5,3431.0,3428.6,800.2,1003.0,1157.7,1273.0,1119.1,922.8,3.0,8.0,4.0,-9177.0,-12340.0,-4313.0,-3651.0,-17.0,-17.0,18.0,4.0,0.0,-5.0,11137.0,11082.0,-2145.0,-4121.0,-12.0,-20.0,15.0,1.0
2022-05-13 15:52:04.655850-07:00,1967.7,653.8,1018.5,1212.4,821.0,1485.6,1753.1,1686.2,3444.3,3444.3,2037.4,1425.9,1503.2,3444.3,1075.6,1316.9,3437.0,3433.4,664.4,1450.6,1004.8,517.9,1379.4,1627.5,3438.2,3440.7,801.9,999.6,1157.7,1273.0,1119.1,922.8,-6.0,1.0,9.0,-9180.0,-12339.0,-4310.0,-3651.0,-6.0,1.0,-2.0,0.0,-2.0,7.0,11138.0,11081.0,-2146.0,-4121.0,-9.0,2.0,2.0,1.0
2022-05-13 15:52:04.743555-07:00,1974.6,651.4,1010.8,1202.7,821.0,1485.6,1753.1,1696.7,3443.1,3441.9,2045.4,1427.7,1503.2,3444.3,1075.6,1309.7,3429.8,3433.4,664.4,1450.6,1009.0,521.0,1375.7,1622.8,3441.9,3440.7,801.9,999.6,1159.4,1273.0,1119.1,920.3,-3.0,3.0,-5.0,-9176.0,-12343.0,-4310.0,-3649.0,9.0,-18.0,13.0,0.0,0.0,-5.0,11136.0,11083.0,-2147.0,-4121.0,12.0,-1.0,2.0,1.0
2022-05-13 15:52:04.834471-07:00,1967.7,651.4,1010.8,1202.7,823.5,1479.2,1751.2,1696.7,3434.6,3441.9,2045.4,1427.7,1493.0,3446.7,1070.3,1309.7,3429.8,3435.8,664.4,1440.5,1009.0,521.0,1375.7,1624.7,3441.9,3441.9,805.2,1003.9,1159.4,1273.0,1119.1,921.1,5.0,8.0,0.0,-9172.0,-12349.0,-4301.0,-3648.0,0.0,-8.0,11.0,3.0,4.0,-11.0,11134.0,11084.0,-2150.0,-4122.0,7.0,-13.0,8.0,1.0
2022-05-13 15:52:04.835253-07:00,1967.7,649.7,1012.5,1213.3,823.5,1479.2,1751.2,1683.3,3434.6,3443.1,2043.4,1424.1,1493.0,3446.7,1070.3,1321.4,3432.2,3435.8,664.4,1440.5,1006.5,524.2,1371.2,1624.7,3444.3,3441.9,805.2,1003.9,1154.2,1285.5,1116.5,921.1,-3.0,6.0,0.0,-9171.0,-12351.0,-4299.0,-3646.0,6.0,-19.0,6.0,1.0,-6.0,-3.0,11134.0,11084.0,-2151.0,-4123.0,4.0,-8.0,-2.0,1.0
2022-05-13 15:52:04.879940-07:00,1962.8,649.7,1012.5,1213.3,831.9,1477.3,1755.0,1683.3,3432.2,3443.1,2043.4,1424.1,1504.1,3433.4,1080.8,1321.4,3432.2,3428.6,669.3,1449.7,1006.5,524.2,1371.2,1626.5,3444.3,3438.2,799.4,1000.5,1154.2,1285.5,1116.5,921.1,3.0,7.0,3.0,-9167.0,-12358.0,-4291.0,-3642.0,2.0,-13.0,13.0,4.0,3.0,-11.0,11129.0,11087.0,-2156.0,-4124.0,5.0,-15.0,1.0,1.0
2022-05-13 15:52:04.925180-07:00,1962.8,657.9,1014.2,1211.5,831.9,1477.3,1755.0,1687.2,3432.2,3439.5,2037.4,1422.2,1504.1,3433.4,1080.8,1314.2,3433.4,3428.6,669.3,1449.7,1001.3,522.6,1367.6,1626.5,3437.0,3438.2,799.4,1000.5,1149.8,1274.7,1123.5,921.1,-2.0,0.0,5.0,-9168.0,-12356.0,-4292.0,-3646.0,8.0,12.0,-5.0,6.0,0.0,5.0,11131.0,11085.0,-2155.0,-4125.0,-10.0,8.0,2.0,1.0
2022-05-13 15:52:05.013952-07:00,1975.6,657.9,1014.2,1211.5,811.0,1483.8,1753.1,1687.2,3438.2,3439.5,2037.4,1422.2,1497.7,3439.5,1079.9,1314.2,3433.4,3438.2,662.7,1447.0,1001.3,522.6,1367.6,1624.7,3437.0,3445.5,792.7,999.6,1149.8,1274.7,1123.5,919.4,2.0,-9.0,7.0,-9165.0,-12357.0,-4293.0,-3646.0,16.0,1.0,4.0,2.0,-6.0,-8.0,11131.0,11085.0,-2154.0,-4124.0,6.0,-1.0,-3.0,1.0
2022-05-13 15:52:05.015254-07:00,1975.6,652.2,1018.5,1204.4,811.0,1483.8,1744.5,1689.1,3438.2,3433.4,2040.4,1423.1,1497.7,3439.5,1077.3,1325.0,3437.0,3440.7,662.7,1447.0,1008.2,525.0,1366.6,1624.7,3438.2,3451.6,792.7,999.6,1159.4,1282.8,1122.6,919.4,4.0,11.0,2.0,-9162.0,-12359.0,-4294.0,-3648.0,-33.0,29.0,-15.0,6.0,4.0,-5.0,11130.0,11087.0,-2155.0,-4124.0,-23.0,2.0,3.0,1.0
2022-05-13 15:52:05.103793-07:00,1957.8,648.1,1018.5,1204.4,818.5,1481.0,1744.5,1689.1,3438.2,3446.7,2040.4,1423.1,1500.4,3435.8,1077.3,1325.0,3437.0,3440.7,660.3,1452.5,1008.2,525.0,1366.6,1625.6,3438.2,3451.6,803.5,997.0,1159.4,1282.8,1118.2,919.4,-5.0,5.0,1.0,-9164.0,-12356.0,-4298.0,-3650.0,7.0,-13.0,-7.0,-2.0,-7.0,-6.0,11132.0,11085.0,-2154.0,-4124.0,1.0,-2.0,-5.0,1.0
2022-05-13 15:52:05.105252-07:00,1957.8,648.1,1021.9,1217.7,818.5,1481.0,1744.5,1675.7,3438.2,3446.7,2039.4,1427.7,1500.4,3435.8,1069.5,1314.2,3427.4,3437.0,660.3,1452.5,1003.9,528.2,1366.6,1625.6,3433.4,3439.5,803.5,997.0,1157.7,1282.8,1118.2,919.4,1.0,9.0,2.0,-9159.0,-12360.0,-4298.0,-3648.0,-13.0,0.0,3.0,2.0,4.0,-6.0,11129.0,11087.0,-2155.0,-4124.0,-2.0,-2.0,4.0,1.0
2022-05-13 15:52:05.148428-07:00,1967.7,645.7,1021.9,1217.7,812.7,1481.0,1744.5,1675.7,3433.4,3433.4,2039.4,1427.7,1499.5,3449.1,1069.5,1314.2,3427.4,3437.0,667.6,1446.0,1003.9,528.2,1357.6,1627.5,3433.4,3439.5,793.5,999.6,1157.7,1282.8,1120.0,919.4,-1.0,7.0,0.0,-9159.0,-12359.0,-4299.0,-3650.0,-11.0,6.0,-7.0,3.0,-2.0,2.0,11129.0,11087.0,-2155.0,-4124.0,-5.0,4.0,-2.0,1.0
2022-05-13 15:52:05.330276-07:00,1967.7,645.7,1017.6,1210.6,812.7,1481.0,1743.5,1681.4,3433.4,3433.4,2033.4,1426.8,1499.5,3449.1,1072.9,1316.9,3433.4,3428.6,667.6,1446.0,1005.6,519.5,1357.6,1627.5,3438.2,3441.9,793.5,999.6,1156.8,1283.7,1120.0,919.4,0.0,5.0,3.0,-9161.0,-12360.0,-4297.0,-3647.0,-7.0,-13.0,2.0,3.0,0.0,-6.0,11130.0,11086.0,-2155.0,-4124.0,1.0,-9.0,-1.0,1.0
2022-05-13 15:52:05.332152-07:00,1966.7,657.0,1024.5,1210.6,816.0,1473.6,1743.5,1681.4,3441.9,3446.7,2036.4,1426.8,1493.0,3439.5,1072.9,1316.9,3433.4,3428.6,668.4,1448.8,1005.6,522.6,1363.0,1625.6,3438.2,3441.9,794.4,994.5,1156.8,1283.7,1114.7,918.6,1.0,5.0,3.0,-9163.0,-12360.0,-4293.0,-3643.0,3.0,-8.0,2.0,2.0,3.0,-4.0,11129.0,11087.0,-2155.0,-4124.0,12.0,-5.0,-1.0,1.0
2022-05-13 15:52:05.333245-07:00,1966.7,657.0,1024.5,1210.6,816.0,1469.0,1746.4,1671.9,3441.9,3446.7,2036.4,1418.6,1493.0,3439.5,1069.5,1311.5,3431.0,3439.5,666.0,1448.8,1008.2,522.6,1363.0,1625.6,3444.3,3432.2,795.2,994.5,1159.4,1283.7,1114.7,918.6,0.0,2.0,6.0,-9165.0,-12359.0,-4294.0,-3642.0,-6.0,7.0,-8.0,0.0,4.0,-3.0,11129.0,11087.0,-2156.0,-4124.0,-5.0,0.0,-2.0,1.0
2022-05-13 15:52:05.375245-07:00,1968.7,650.5,1017.6,1210.6,816.0,1469.0,1746.4,1671.9,3446.7,3439.5,2030.4,1418.6,1496.7,3439.5,1069.5,1311.5,3431.0,3439.5,666.0,1444.2,1008.2,523.4,1363.9,1628.4,3444.3,3432.2,795.2,996.2,1159.4,1282.8,1115.6,922.8,2.0,-4.0,11.0,-9165.0,-12358.0,-4296.0,-3641.0,10.0,17.0,-13.0,3.0,-3.0,-8.0,11130.0,11086.0,-2155.0,-4124.0,5.0,5.0,-7.0,1.0
2022-05-13 15:52:05.420258-07:00,1968.7,650.5,1017.6,1218.6,816.0,1469.0,1734.9,1690.0,3446.7,3439.5,2030.4,1421.3,1496.7,3440.7,1072.1,1318.7,3444.3,3431.0,664.4,1444.2,1003.0,523.4,1363.9,1628.4,3441.9,3438.2,795.2,996.2,1149.8,1282.8,1115.6,922.8,-2.0,-3.0,-1.0,-9162.0,-12357.0,-4302.0,-3645.0,3.0,9.0,-1.0,1.0,-3.0,-7.0,11130.0,11088.0,-2153.0,-4122.0,-5.0,4.0,4.0,1.0
2022-05-13 15:52:05.464373-07:00,1964.7,653.8,1019.4,1218.6,818.5,1469.0,1734.9,1690.0,3444.3,3433.4,2031.4,1421.3,1497.7,3440.7,1072.1,1318.7,3444.3,3431.0,664.4,1448.8,1003.0,520.3,1355.8,1626.5,3441.9,3438.2,795.2,993.6,1149.8,1286.4,1120.0,920.3,1.0,-1.0,-2.0,-9163.0,-12358.0,-4301.0,-3643.0,8.0,-18.0,3.0,1.0,0.0,-11.0,11129.0,11088.0,-2154.0,-4122.0,4.0,-11.0,-5.0,1.0
2022-05-13 15:52:05.508285-07:00,1964.7,653.8,1019.4,1212.4,821.0,1468.1,1741.6,1684.3,3444.3,3433.4,2031.4,1421.3,1496.7,3438.2,1072.9,1318.7,3441.9,3441.9,665.2,1446.0,1003.9,520.3,1355.8,1626.5,3435.8,3444.3,796.0,987.6,1161.2,1286.4,1120.0,920.3,-2.0,5.0,3.0,-9163.0,-12358.0,-4299.0,-3641.0,-13.0,5.0,1.0,1.0,5.0,1.0,11129.0,11088.0,-2155.0,-4123.0,-6.0,-2.0,2.0,1.0
2022-05-13 15:52:05.554311-07:00,1952.9,645.7,1021.1,1209.7,821.0,1468.1,1741.6,1684.3,3440.7,3437.0,2020.4,1426.8,1496.7,3438.2,1072.9,1318.7,3441.9,3441.9,665.2,1446.0,1003.9,521.8,1368.5,1629.4,3435.8,3444.3,796.0,987.6,1162.1,1281.9,1120.9,915.2,-2.0,5.0,8.0,-9165.0,-12357.0,-4299.0,-3641.0,-9.0,14.0,-5.0,0.0,4.0,1.0,11130.0,11087.0,-2154.0,-4123.0,4.0,7.0,-4.0,1.0
2022-05-13 15:52:05.599375-07:00,1952.9,645.7,1021.1,1209.7,813.5,1468.1,1736.8,1679.5,3440.7,3437.0,2020.4,1426.8,1494.0,3439.5,1075.6,1319.6,3439.5,3441.9,661.1,1445.1,1003.9,521.8,1368.5,1629.4,3438.2,3441.9,787.7,990.2,1162.1,1281.9,1120.9,915.2,19.0,27.0,-3.0,-9177.0,-12343.0,-4300.0,-3655.0,-100.0,42.0,7.0,8.0,7.0,-11.0,11130.0,11089.0,-2150.0,-4120.0,-4.0,28.0,-10.0,1.0
2022-05-13 15:52:05.690044-07:00,1963.7,660.3,1020.2,1216.0,813.5,1468.1,1736.8,1679.5,3443.1,3440.7,2035.4,1430.5,1494.0,3439.5,1075.6,1319.6,3439.5,3441.9,661.1,1445.1,1008.2,517.9,1363.0,1621.8,3438.2,3441.9,787.7,990.2,1157.7,1277.4,1114.7,929.6,-8.0,-131.0,45.0,-9370.0,-12173.0,-4280.0,-3761.0,-987.0,198.0,49.0,18.0,-15.0,0.0,11172.0,11055.0,-2110.0,-4117.0,-187.0,72.0,-35.0,1.0
2022-05-13 15:52:05.735355-07:00,1963.7,660.3,1020.2,1216.0,824.4,1495.8,1759.8,1681.4,3443.1,3440.7,2035.4,1430.5,1533.8,3439.5,1068.6,1319.6,3437.0,3434.6,666.0,1447.0,1008.2,517.9,1363.0,1621.8,3443.1,3443.1,796.9,1007.3,1157.7,1277.4,1114.7,929.6,-12.0,0.0,8.0,-9553.0,-12002.0,-4192.0,-3944.0,-397.0,117.0,295.0,6.0,-21.0,32.0,11173.0,11080.0,-2079.0,-4065.0,189.0,159.0,36.0,1.0
2022-05-13 15:52:05.868592-07:00,1999.5,706.9,1020.2,1214.2,824.4,1495.8,1759.8,1681.4,3437.0,3435.8,2111.8,1425.0,1533.8,3439.5,1068.6,1319.6,3437.0,3434.6,666.0,1447.0,1015.1,525.0,1471.8,1619.0,3443.1,3443.1,796.9,1007.3,1160.3,1281.0,1120.0,919.4,14.0,59.0,7.0,-9565.0,-11978.0,-4137.0,-4044.0,-83.0,155.0,112.0,-6.0,36.0,-11.0,11100.0,11184.0,-2054.0,-3990.0,281.0,219.0,-24.0,1.0
2022-05-13 15:52:05.960739-07:00,1989.5,706.9,1020.2,1214.2,813.5,1483.8,1886.0,1745.4,3445.5,3435.8,2111.8,1425.0,1532.0,3435.8,1046.1,1311.5,3427.4,3427.4,674.2,1425.9,1015.1,525.0,1471.8,1624.7,3444.3,3444.3,781.9,1027.1,1160.3,1281.0,1120.0,920.3,-22.0,-27.0,-14.0,-9552.0,-11951.0,-4185.0,-4108.0,110.0,186.0,-54.0,-12.0,-8.0,4.0,11043.0,11274.0,-2006.0,-3921.0,271.0,197.0,-28.0,1.0
2022-05-13 15:52:05.961995-07:00,1989.5,746.3,1024.5,1216.8,813.5,1483.8,1886.0,1795.5,3445.5,3438.2,1989.5,1384.8,1532.0,3435.8,1046.1,1299.0,3437.0,3427.4,674.2,1425.9,991.0,521.0,1559.0,1624.7,3439.5,3444.3,781.9,1027.1,1155.9,1281.9,1127.0,920.3,4.0,36.0,-24.0,-9432.0,-12023.0,-4254.0,-4101.0,419.0,70.0,-16.0,-4.0,7.0,-15.0,10940.0,11396.0,-1988.0,-3864.0,356.0,130.0,-37.0,1.0
2022-05-13 15:52:06.049200-07:00,1974.6,746.3,1024.5,1216.8,816.0,1455.2,1862.5,1795.5,3440.7,3438.2,1989.5,1384.8,1520.8,3446.7,1042.6,1299.0,3437.0,3441.9,667.6,1416.7,991.0,521.0,1559.0,1621.8,3439.5,3443.1,788.6,1021.1,1155.9,1281.9,1127.0,918.6,-9.0,-4.0,-24.0,-9368.0,-12056.0,-4330.0,-4072.0,54.0,58.0,-137.0,1.0,8.0,-2.0,10895.0,11452.0,-1965.0,-3839.0,42.0,62.0,-33.0,1.0
2022-05-13 15:52:06.049851-07:00,1974.6,745.5,1000.5,1209.7,816.0,1455.2,1862.5,1761.8,3440.7,3446.7,1912.4,1371.2,1520.8,3446.7,1042.6,1304.3,3437.0,3441.9,667.6,1416.7,987.6,517.9,1545.0,1621.8,3438.2,3443.1,788.6,1021.1,1152.4,1285.5,1120.0,918.6,-9.0,12.0,-18.0,-9365.0,-12062.0,-4354.0,-4034.0,42.0,-77.0,-53.0,-4.0,8.0,-11.0,10880.0,11469.0,-1957.0,-3835.0,36.0,9.0,-14.0,1.0
2022-05-13 15:52:06.184104-07:00,1966.7,745.5,1000.5,1209.7,813.5,1439.6,1765.6,1761.8,3449.1,3446.7,1912.4,1371.2,1509.7,3444.3,1034.0,1304.3,3437.0,3434.6,664.4,1404.0,987.6,517.9,1545.0,1635.0,3438.2,3444.3,777.8,1027.1,1152.4,1285.5,1120.0,913.5,-6.0,14.0,12.0,-9390.0,-12055.0,-4363.0,-3987.0,-35.0,-55.0,-149.0,-1.0,-2.0,-5.0,10879.0,11469.0,-1951.0,-3840.0,-18.0,7.0,-21.0,1.0
2022-05-13 15:52:06.185360-07:00,1966.7,732.3,998.7,1207.1,813.5,1439.6,1671.0,1713.8,3449.1,3439.5,1860.6,1354.0,1509.7,3444.3,1026.3,1302.5,3437.0,3433.4,664.4,1404.0,978.2,517.1,1541.3,1635.0,3440.7,3443.1,777.8,1027.1,1158.6,1274.7,1114.7,913.5,-20.0,-18.0,-8.0,-9392.0,-12076.0,-4395.0,-3886.0,234.0,-240.0,-171.0,-4.0,-8.0,5.0,10865.0,11483.0,-1938.0,-3844.0,80.0,15.0,-49.0,1.0
2022-05-13 15:52:06.186915-07:00,1954.8,725.8,998.7,1207.1,817.7,1419.5,1671.0,1713.8,3434.6,3437.0,1860.6,1354.0,1499.5,3437.0,1026.3,1302.5,3437.0,3433.4,666.8,1407.6,978.2,517.1,1543.1,1627.5,3440.7,3443.1,770.3,1033.2,1158.6,1274.7,1120.0,905.9,7.0,5.0,8.0,-9343.0,-12158.0,-4387.0,-3752.0,138.0,-207.0,-23.0,-4.0,13.0,-27.0,10826.0,11520.0,-1938.0,-3844.0,89.0,-5.0,-13.0,1.0
2022-05-13 15:52:06.188085-07:00,1954.8,725.8,1000.5,1212.4,817.7,1419.5,1596.4,1636.9,3434.6,3437.0,1827.5,1354.0,1499.5,3437.0,1027.1,1300.7,3443.1,3435.8,666.8,1407.6,983.3,528.2,1543.1,1627.5,3434.6,3439.5,770.3,1033.2,1153.3,1283.7,1120.0,905.9,-8.0,-11.0,30.0,-9356.0,-12170.0,-4347.0,-3729.0,25.0,-56.0,85.0,0.0,-17.0,7.0,10821.0,11521.0,-1947.0,-3848.0,11.0,-32.0,22.0,1.0
2022-05-13 15:52:06.266497-07:00,1948.9,718.4,1000.5,1212.4,820.2,1418.6,1596.4,1636.9,3438.2,3438.2,1827.5,1354.0,1493.0,3441.9,1027.1,1300.7,3443.1,3435.8,671.7,1400.3,983.3,528.2,1545.0,1621.8,3434.6,3439.5,778.6,1028.0,1153.3,1283.7,1115.6,905.0,7.0,17.0,-7.0,-9335.0,-12206.0,-4316.0,-3699.0,108.0,-132.0,-10.0,16.0,-16.0,0.0,10809.0,11533.0,-1957.0,-3845.0,41.0,3.0,0.0,1.0
2022-05-13 15:52:06.358418-07:00,1948.9,718.4,1003.0,1205.3,820.2,1418.6,1563.7,1616.2,3438.2,3438.2,1801.3,1344.0,1493.0,3441.9,1022.8,1302.5,3434.6,3444.3,671.7,1400.3,975.6,522.6,1545.0,1621.8,3439.5,3441.9,778.6,1028.0,1156.8,1279.2,1115.6,905.0,-1.0,-13.0,30.0,-9309.0,-12249.0,-4311.0,-3625.0,96.0,-103.0,-39.0,-6.0,4.0,-2.0,10788.0,11552.0,-1956.0,-3847.0,45.0,-4.0,-19.0,1.0
2022-05-13 15:52:06.359622-07:00,1955.8,723.3,997.9,1205.3,814.4,1414.9,1563.7,1616.2,3439.5,3444.3,1787.8,1344.0,1481.9,3441.9,1022.8,1302.5,3434.6,3444.3,668.4,1393.9,975.6,520.3,1535.7,1629.4,3439.5,3441.9,770.3,1021.9,1156.8,1278.3,1120.0,899.1,3.0,8.0,0.0,-9319.0,-12248.0,-4278.0,-3642.0,-74.0,1.0,138.0,1.0,0.0,-2.0,10792.0,11547.0,-1964.0,-3846.0,-15.0,-15.0,33.0,1.0
2022-05-13 15:52:06.361513-07:00,1955.8,723.3,997.9,1208.0,814.4,1406.7,1521.8,1588.9,3439.5,3444.3,1787.8,1343.1,1481.9,3437.0,1032.3,1305.2,3443.1,3441.9,667.6,1393.9,973.9,520.3,1535.7,1629.4,3447.9,3439.5,774.5,1021.9,1153.3,1278.3,1120.0,899.1,2.0,26.0,7.0,-9315.0,-12252.0,-4264.0,-3656.0,47.0,-4.0,-39.0,-3.0,13.0,4.0,10790.0,11548.0,-1970.0,-3844.0,21.0,8.0,-17.0,1.0
2022-05-13 15:52:06.402503-07:00,1951.9,710.1,991.9,1208.0,823.5,1406.7,1521.8,1588.9,3445.5,3439.5,1780.1,1343.1,1476.4,3437.0,1032.3,1305.2,3443.1,3441.9,667.6,1393.9,973.9,521.8,1532.0,1621.8,3447.9,3439.5,774.5,1020.2,1153.3,1281.9,1119.1,906.7,-5.0,-25.0,5.0,-9314.0,-12245.0,-4295.0,-3646.0,-30.0,59.0,-37.0,1.0,0.0,-2.0,10788.0,11552.0,-1959.0,-3843.0,-13.0,16.0,-4.0,1.0
2022-05-13 15:52:06.446649-07:00,1951.9,710.1,991.9,1202.7,823.5,1397.6,1522.7,1573.9,3445.5,3439.5,1780.1,1341.3,1476.4,3438.2,1014.2,1299.0,3439.5,3437.0,667.6,1393.9,979.0,521.8,1532.0,1621.8,3443.1,3444.3,770.3,1020.2,1152.4,1281.9,1119.1,906.7,-6.0,9.0,-13.0,-9321.0,-12234.0,-4288.0,-3672.0,-26.0,-2.0,48.0,-1.0,-1.0,0.0,10794.0,11548.0,-1961.0,-3837.0,-6.0,-4.0,11.0,1.0
2022-05-13 15:52:06.616194-07:00,1936.1,713.4,994.5,1202.7,820.2,1397.6,1522.7,1573.9,3433.4,3435.8,1790.7,1341.3,1478.3,3438.2,1014.2,1299.0,3439.5,3437.0,667.6,1389.4,979.0,516.3,1517.1,1625.6,3443.1,3444.3,770.3,1018.5,1152.4,1278.3,1134.0,912.7,-1.0,7.0,0.0,-9313.0,-12247.0,-4289.0,-3649.0,68.0,-41.0,-47.0,-3.0,3.0,-4.0,10785.0,11555.0,-1959.0,-3840.0,27.0,-6.0,-19.0,1.0
2022-05-13 15:52:06.624066-07:00,1936.1,713.4,994.5,1200.9,814.4,1375.7,1514.3,1566.5,3433.4,3435.8,1790.7,1337.7,1466.3,3441.9,1017.6,1299.8,3431.0,3438.2,670.1,1381.2,967.9,516.3,1517.1,1625.6,3438.2,3447.9,766.2,1015.1,1154.2,1278.3,1134.0,912.7,-3.0,-7.0,7.0,-9310.0,-12248.0,-4289.0,-3656.0,-40.0,37.0,53.0,0.0,-3.0,1.0,10786.0,11555.0,-1961.0,-3838.0,-13.0,-2.0,23.0,1.0
2022-05-13 15:52:06.640383-07:00,1940.0,706.9,996.2,1202.7,814.4,1375.7,1514.3,1566.5,3434.6,3439.5,1767.5,1333.2,1466.3,3441.9,1017.6,1299.8,3431.0,3438.2,670.1,1381.2,967.1,527.4,1519.9,1625.6,3438.2,3447.9,766.2,1015.1,1160.3,1278.3,1120.9,917.7,3.0,18.0,-4.0,-9307.0,-12251.0,-4282.0,-3657.0,45.0,-33.0,-27.0,2.0,4.0,-3.0,10783.0,11558.0,-1964.0,-3836.0,21.0,0.0,-13.0,1.0
2022-05-13 15:52:06.730170-07:00,1940.0,706.9,996.2,1202.7,820.2,1376.6,1502.3,1560.9,3434.6,3439.5,1767.5,1333.2,1462.6,3444.3,1017.6,1302.5,3438.2,3441.9,661.9,1382.1,967.1,527.4,1519.9,1625.6,3443.1,3440.7,770.3,1016.8,1160.3,1278.3,1120.9,917.7,-3.0,-21.0,9.0,-9309.0,-12254.0,-4284.0,-3645.0,-21.0,-3.0,25.0,1.0,-5.0,-3.0,10782.0,11559.0,-1963.0,-3837.0,-11.0,-8.0,12.0,1.0
2022-05-13 15:52:06.731902-07:00,1933.1,719.2,994.5,1208.0,820.2,1376.6,1502.3,1560.9,3444.3,3443.1,1758.9,1335.0,1462.6,3444.3,1017.6,1302.5,3438.2,3441.9,661.9,1382.1,963.7,518.7,1505.1,1627.5,3443.1,3440.7,770.3,1016.8,1157.7,1293.6,1113.9,909.3,-4.0,16.0,-9.0,-9312.0,-12250.0,-4274.0,-3659.0,-8.0,-7.0,8.0,-1.0,-3.0,4.0,10787.0,11555.0,-1966.0,-3833.0,3.0,1.0,3.0,1.0
2022-05-13 15:52:06.762842-07:00,1933.1,719.2,994.5,1208.0,818.5,1378.5,1501.4,1554.3,3444.3,3443.1,1758.9,1335.0,1458.9,3439.5,1016.8,1296.3,3441.9,3437.0,666.8,1374.8,963.7,518.7,1505.1,1627.5,3447.9,3438.2,776.1,1007.3,1157.7,1293.6,1113.9,909.3,-3.0,-10.0,10.0,-9310.0,-12254.0,-4281.0,-3644.0,20.0,-6.0,-25.0,-3.0,0.0,-4.0,10783.0,11558.0,-1965.0,-3835.0,6.0,-1.0,-9.0,1.0
2022-05-13 15:52:06.898030-07:00,1934.1,701.9,992.7,1202.7,818.5,1378.5,1501.4,1554.3,3437.0,3443.1,1752.1,1333.2,1458.9,3439.5,1016.8,1296.3,3441.9,3437.0,666.8,1374.8,966.2,521.0,1505.1,1630.3,3447.9,3438.2,776.1,1007.3,1159.4,1274.7,1117.4,916.0,0.0,1.0,0.0,-9312.0,-12251.0,-4276.0,-3655.0,-14.0,16.0,39.0,3.0,-4.0,-2.0,10787.0,11555.0,-1967.0,-3833.0,-8.0,-8.0,18.0,1.0
2022-05-13 15:52:06.899325-07:00,1933.1,701.9,992.7,1202.7,815.2,1367.6,1498.6,1556.2,3437.0,3443.1,1752.1,1333.2,1453.4,3440.7,1015.1,1299.8,3437.0,3444.3,662.7,1371.2,966.2,521.0,1505.1,1627.5,3438.2,3438.2,754.6,1006.5,1159.4,1274.7,1117.4,909.3,-4.0,8.0,-2.0,-9307.0,-12256.0,-4271.0,-3655.0,18.0,-23.0,-9.0,-2.0,8.0,0.0,10785.0,11557.0,-1969.0,-3831.0,13.0,-3.0,-6.0,1.0
2022-05-13 15:52:06.942883-07:00,1933.1,709.3,994.5,1202.7,815.2,1367.6,1498.6,1545.0,3437.0,3450.4,1747.3,1325.9,1453.4,3440.7,1015.1,1299.8,3435.8,3444.3,662.7,1371.2,958.5,518.7,1508.8,1627.5,3440.7,3438.2,754.6,1006.5,1151.5,1281.9,1121.7,909.3,0.0,-3.0,9.0,-9308.0,-12258.0,-4263.0,-3655.0,-26.0,3.0,32.0,0.0,-2.0,-1.0,10786.0,11556.0,-1971.0,-3830.0,-15.0,-8.0,14.0,1.0
2022-05-13 15:52:06.944012-07:00,1929.2,709.3,994.5,1202.7,818.5,1363.9,1496.7,1545.0,3440.7,3450.4,1747.3,1325.9,1452.5,3449.1,1009.9,1299.8,3435.8,3441.9,663.6,1379.4,958.5,518.7,1508.8,1623.7,3440.7,3446.7,758.7,1004.8,1151.5,1281.9,1121.7,905.0,3.0,14.0,2.0,-9314.0,-12254.0,-4257.0,-3660.0,1.0,0.0,-16.0,-1.0,0.0,-4.0,10788.0,11554.0,-1972.0,-3828.0,0.0,2.0,-3.0,1.0
2022-05-13 15:52:07.075285-07:00,1929.2,697.0,997.9,1207.1,818.5,1363.9,1496.7,1542.2,3440.7,3450.4,1739.7,1332.3,1452.5,3449.1,1009.9,1300.7,3439.5,3441.9,663.6,1379.4,965.4,515.5,1499.5,1623.7,3443.1,3446.7,758.7,1004.8,1140.1,1279.2,1119.1,905.0,-5.0,-9.0,2.0,-9315.0,-12250.0,-4270.0,-3658.0,-4.0,11.0,-14.0,-4.0,-3.0,0.0,10788.0,11555.0,-1971.0,-3828.0,-3.0,8.0,0.0,1.0
2022-05-13 15:52:07.077072-07:00,1933.1,697.0,997.9,1207.1,816.0,1361.2,1478.3,1542.2,3438.2,3450.4,1739.7,1332.3,1446.0,3449.1,1018.5,1300.7,3439.5,3433.4,671.7,1363.9,965.4,515.5,1499.5,1620.9,3443.1,3443.1,756.3,1009.0,1140.1,1279.2,1119.1,911.0,-5.0,8.0,-1.0,-9313.0,-12248.0,-4276.0,-3664.0,-4.0,20.0,3.0,-1.0,0.0,5.0,10788.0,11555.0,-1971.0,-3828.0,1.0,6.0,6.0,1.0
2022-05-13 15:52:07.211955-07:00,1933.1,698.7,989.3,1203.5,816.0,1361.2,1477.3,1538.5,3438.2,3433.4,1741.6,1335.9,1446.0,3449.1,1011.6,1297.2,3443.1,3443.1,671.7,1363.9,967.1,514.7,1502.3,1620.9,3438.2,3445.5,756.3,1009.0,1170.9,1277.4,1116.5,911.0,0.0,0.0,2.0,-9312.0,-12246.0,-4278.0,-3665.0,7.0,7.0,-11.0,-1.0,2.0,1.0,10788.0,11555.0,-1971.0,-3828.0,4.0,3.0,-2.0,1.0
2022-05-13 15:52:07.213641-07:00,1909.5,699.5,989.3,1203.5,817.7,1360.3,1477.3,1538.5,3437.0,3449.1,1741.6,1335.9,1448.8,3441.9,1011.6,1297.2,3443.1,3443.1,662.7,1368.5,967.1,514.7,1493.0,1617.1,3438.2,3445.5,760.4,1003.0,1170.9,1277.4,1122.6,907.6,-4.0,3.0,2.0,-9311.0,-12247.0,-4279.0,-3664.0,-2.0,-5.0,2.0,-5.0,3.0,-2.0,10788.0,11555.0,-1971.0,-3828.0,-5.0,-7.0,-2.0,1.0
2022-05-13 15:52:07.215031-07:00,1909.5,699.5,987.6,1205.3,817.7,1360.3,1481.0,1545.0,3437.0,3449.1,1738.7,1325.0,1448.8,3441.9,1005.6,1298.1,3426.2,3440.7,662.7,1368.5,963.7,520.3,1493.0,1617.1,3440.7,3444.3,760.4,1003.0,1154.2,1273.9,1122.6,907.6,-2.0,0.0,9.0,-9316.0,-12242.0,-4275.0,-3674.0,-39.0,24.0,30.0,-5.0,3.0,3.0,10793.0,11551.0,-1971.0,-3827.0,-21.0,-5.0,13.0,1.0
2022-05-13 15:52:07.256402-07:00,1932.1,698.7,987.6,1205.3,813.5,1357.6,1481.0,1545.0,3438.2,3441.9,1738.7,1325.0,1452.5,3439.5,1005.6,1298.1,3426.2,3440.7,670.1,1374.8,963.7,520.3,1490.3,1620.9,3440.7,3444.3,759.6,1006.5,1154.2,1273.9,1113.0,901.7,2.0,8.0,0.0,-9328.0,-12228.0,-4261.0,-3707.0,-74.0,35.0,56.0,2.0,9.0,0.0,10804.0,11539.0,-1977.0,-3827.0,-44.0,-16.0,18.0,1.0
2022-05-13 15:52:07.302417-07:00,1932.1,698.7,993.6,1204.4,813.5,1357.6,1478.3,1528.3,3438.2,3441.9,1740.6,1329.6,1452.5,3439.5,1015.9,1297.2,3437.0,3434.6,670.1,1374.8,967.1,525.8,1490.3,1620.9,3438.2,3438.2,759.6,1006.5,1153.3,1282.8,1113.0,901.7,-1.0,15.0,-2.0,-9342.0,-12214.0,-4260.0,-3721.0,-16.0,4.0,-31.0,0.0,8.0,2.0,10815.0,11528.0,-1975.0,-3831.0,-15.0,-6.0,-16.0,1.0
2022-05-13 15:52:07.393363-07:00,1916.4,695.4,986.7,1204.4,820.2,1355.8,1478.3,1528.3,3449.1,3449.1,1737.8,1329.6,1452.5,3437.0,1015.9,1297.2,3437.0,3434.6,671.7,1370.3,967.1,518.7,1494.9,1620.9,3438.2,3438.2,748.0,1003.9,1153.3,1275.6,1113.9,905.0,0.0,-10.0,9.0,-9344.0,-12212.0,-4266.0,-3715.0,-24.0,9.0,5.0,0.0,1.0,0.0,10817.0,11526.0,-1973.0,-3833.0,-21.0,-6.0,5.0,1.0
2022-05-13 15:52:07.437664-07:00,1916.4,695.4,986.7,1201.8,820.2,1354.0,1478.3,1531.0,3449.1,3449.1,1737.8,1321.4,1452.5,3449.1,1009.0,1297.2,3441.9,3438.2,665.2,1370.3,966.2,518.7,1494.9,1620.9,3451.6,3441.9,753.8,1003.9,1162.1,1275.6,1113.9,905.0,-6.0,16.0,0.0,-9347.0,-12207.0,-4264.0,-3725.0,19.0,9.0,-6.0,-3.0,0.0,5.0,10819.0,11525.0,-1973.0,-3831.0,18.0,11.0,-7.0,1.0
2022-05-13 15:52:07.481400-07:00,1923.3,688.9,994.5,1201.8,819.4,1354.0,1478.3,1531.0,3434.6,3434.6,1729.1,1321.4,1456.2,3449.1,1009.0,1297.2,3441.9,3438.2,665.2,1375.7,966.2,525.0,1481.9,1627.5,3451.6,3441.9,753.8,1006.5,1162.1,1290.0,1112.1,907.6,-3.0,-9.0,2.0,-9339.0,-12212.0,-4275.0,-3715.0,9.0,2.0,-16.0,-3.0,0.0,-5.0,10813.0,11530.0,-1970.0,-3833.0,5.0,2.0,-5.0,1.0
2022-05-13 15:52:07.525094-07:00,1923.3,688.9,994.5,1203.5,819.4,1354.9,1470.0,1518.0,3434.6,3434.6,1729.1,1324.1,1456.2,3449.1,1010.8,1299.0,3432.2,3431.0,659.5,1375.7,962.8,525.0,1481.9,1627.5,3438.2,3438.2,759.6,1006.5,1155.0,1290.0,1112.1,907.6,0.0,12.0,1.0,-9338.0,-12212.0,-4274.0,-3721.0,-15.0,5.0,17.0,0.0,-3.0,-1.0,10814.0,11529.0,-1972.0,-3832.0,-8.0,0.0,6.0,1.0
2022-05-13 15:52:07.571794-07:00,1917.4,693.8,988.5,1203.5,817.7,1354.9,1470.0,1518.0,3441.9,3440.7,1726.3,1324.1,1449.7,3449.1,1010.8,1299.0,3432.2,3431.0,659.5,1372.1,962.8,521.8,1483.8,1627.5,3438.2,3438.2,759.6,1005.6,1155.0,1282.8,1111.2,908.4,-2.0,0.0,3.0,-9341.0,-12210.0,-4274.0,-3718.0,1.0,-16.0,-30.0,0.0,-1.0,0.0,10813.0,11530.0,-1969.0,-3834.0,-6.0,-6.0,-12.0,1.0
2022-05-13 15:52:07.616296-07:00,1917.4,693.8,988.5,1210.6,817.7,1349.4,1461.7,1522.7,3441.9,3440.7,1726.3,1324.1,1449.7,3428.6,1007.3,1296.3,3441.9,3435.8,663.6,1372.1,960.2,521.8,1483.8,1627.5,3439.5,3440.7,757.1,1005.6,1151.5,1282.8,1111.2,908.4,-2.0,-6.0,4.0,-9347.0,-12206.0,-4276.0,-3713.0,-20.0,-3.0,17.0,1.0,0.0,5.0,10816.0,11526.0,-1970.0,-3836.0,-9.0,-9.0,8.0,1.0
2022-05-13 15:52:07.707337-07:00,1916.4,689.7,990.2,1204.4,825.2,1349.4,1461.7,1522.7,3439.5,3444.3,1720.5,1323.2,1447.9,3428.6,1007.3,1296.3,3441.9,3435.8,663.6,1372.1,969.6,520.3,1482.9,1641.6,3439.5,3440.7,757.1,1003.0,1155.9,1281.9,1111.2,908.4,-1.0,10.0,3.0,-9346.0,-12208.0,-4272.0,-3717.0,20.0,9.0,-8.0,0.0,6.0,5.0,10814.0,11528.0,-1971.0,-3836.0,14.0,8.0,-3.0,1.0
2022-05-13 15:52:07.709105-07:00,1916.4,689.7,990.2,1204.4,821.9,1335.0,1459.8,1531.0,3439.5,3444.3,1720.5,1323.2,1455.2,3433.4,1002.2,1297.2,3435.8,3438.2,664.4,1368.5,969.6,520.3,1482.9,1641.6,3441.9,3444.3,755.4,997.9,1155.9,1281.9,1111.2,908.4,-3.0,-8.0,0.0,-9343.0,-12210.0,-4272.0,-3717.0,-11.0,-1.0,30.0,0.0,-4.0,-4.0,10814.0,11528.0,-1972.0,-3834.0,-3.0,-6.0,13.0,1.0
2022-05-13 15:52:07.750861-07:00,1915.4,683.1,979.9,1210.6,821.9,1335.0,1459.8,1531.0,3443.1,3440.7,1722.4,1316.9,1455.2,3433.4,1002.2,1297.2,3435.8,3438.2,664.4,1368.5,962.8,517.9,1481.9,1619.0,3441.9,3444.3,755.4,997.9,1153.3,1295.4,1114.7,908.4,1.0,12.0,-3.0,-9342.0,-12213.0,-4260.0,-3722.0,-17.0,-21.0,9.0,-1.0,1.0,-3.0,10816.0,11525.0,-1977.0,-3837.0,-13.0,-16.0,3.0,1.0
2022-05-13 15:52:07.932755-07:00,1915.4,683.1,979.9,1210.6,809.4,1344.9,1461.7,1519.9,3443.1,3440.7,1722.4,1316.9,1443.3,3432.2,1005.6,1299.0,3438.2,3435.8,668.4,1366.6,962.8,517.9,1481.9,1619.0,3443.1,3451.6,751.3,998.7,1153.3,1295.4,1114.7,908.4,-2.0,-2.0,3.0,-9347.0,-12212.0,-4258.0,-3717.0,15.0,-20.0,-7.0,0.0,-1.0,2.0,10816.0,11524.0,-1978.0,-3838.0,10.0,-5.0,-3.0,1.0
2022-05-13 15:52:07.933873-07:00,1919.3,685.6,996.2,1199.1,809.4,1344.9,1461.7,1519.9,3441.9,3440.7,1715.8,1318.7,1443.3,3432.2,1005.6,1299.0,3438.2,3435.8,668.4,1366.6,962.8,514.7,1477.3,1611.5,3443.1,3451.6,751.3,998.7,1153.3,1279.2,1120.9,911.8,-6.0,1.0,7.0,-9347.0,-12214.0,-4254.0,-3713.0,-20.0,-13.0,9.0,0.0,-8.0,6.0,10816.0,11523.0,-1980.0,-3841.0,-9.0,-5.0,3.0,1.0
2022-05-13 15:52:07.934931-07:00,1913.4,685.6,996.2,1199.1,816.9,1343.1,1459.8,1529.2,3449.1,3440.7,1715.8,1318.7,1438.7,3433.4,1009.9,1301.6,3444.3,3434.6,670.1,1368.5,962.8,514.7,1477.3,1637.9,3439.5,3440.7,751.3,999.6,1153.3,1279.2,1120.9,907.6,-4.0,-12.0,15.0,-9345.0,-12218.0,-4252.0,-3707.0,77.0,-14.0,5.0,1.0,-28.0,15.0,10802.0,11536.0,-1983.0,-3840.0,102.0,1.0,-13.0,1.0
2022-05-13 15:52:07.977981-07:00,1913.4,696.2,997.9,1214.2,816.9,1343.1,1459.8,1530.1,3449.1,3437.0,1715.8,1323.2,1438.7,3433.4,1009.9,1296.3,3440.7,3434.6,670.1,1368.5,959.4,515.5,1470.0,1637.9,3449.1,3440.7,751.3,999.6,1159.4,1278.3,1113.9,907.6,-10.0,2.0,5.0,-9311.0,-12245.0,-4255.0,-3700.0,17.0,23.0,4.0,-4.0,4.0,1.0,10784.0,11555.0,-1986.0,-3833.0,21.0,22.0,-3.0,1.0
2022-05-13 15:52:08.021348-07:00,1920.3,696.2,997.9,1214.2,822.7,1341.3,1455.2,1530.1,3439.5,3437.0,1715.8,1323.2,1440.5,3438.2,1008.2,1296.3,3440.7,3451.6,664.4,1363.0,959.4,515.5,1470.0,1619.0,3449.1,3451.6,755.4,989.3,1159.4,1278.3,1113.9,909.3,-6.0,-1.0,-7.0,-9305.0,-12246.0,-4262.0,-3706.0,10.0,19.0,4.0,-4.0,-1.0,0.0,10781.0,11560.0,-1982.0,-3827.0,8.0,6.0,2.0,1.0
2022-05-13 15:52:08.066194-07:00,1920.3,689.7,990.2,1201.8,822.7,1341.3,1455.2,1519.0,3439.5,3440.7,1720.5,1336.8,1440.5,3438.2,1008.2,1301.6,3434.6,3451.6,664.4,1363.0,957.7,520.3,1469.0,1619.0,3438.2,3451.6,755.4,989.3,1160.3,1279.2,1114.7,909.3,0.0,12.0,-5.0,-9297.0,-12252.0,-4259.0,-3708.0,75.0,-35.0,29.0,-4.0,6.0,1.0,10773.0,11567.0,-1985.0,-3826.0,40.0,-7.0,3.0,1.0
2022-05-13 15:52:08.111330-07:00,1912.4,689.7,990.2,1201.8,817.7,1346.7,1455.2,1519.0,3449.1,3440.7,1720.5,1336.8,1441.5,3437.0,1010.8,1301.6,3434.6,3435.8,668.4,1363.9,957.7,520.3,1469.0,1627.5,3438.2,3441.9,754.6,1001.3,1160.3,1279.2,1114.7,905.0,-2.0,-1.0,7.0,-9290.0,-12262.0,-4255.0,-3697.0,-44.0,-6.0,-25.0,0.0,1.0,-1.0,10771.0,11569.0,-1986.0,-3826.0,-33.0,-9.0,-2.0,1.0
2022-05-13 15:52:08.156446-07:00,1912.4,684.0,988.5,1210.6,817.7,1346.7,1454.3,1509.7,3449.1,3437.0,1713.8,1321.4,1441.5,3437.0,1005.6,1296.3,3449.1,3439.5,668.4,1363.9,960.2,516.3,1475.5,1627.5,3441.9,3437.0,754.6,1001.3,1148.0,1281.9,1119.1,905.0,-3.0,9.0,2.0,-9296.0,-12258.0,-4254.0,-3697.0,4.0,-8.0,14.0,-4.0,5.0,2.0,10775.0,11565.0,-1985.0,-3827.0,-9.0,-13.0,5.0,1.0
2022-05-13 15:52:08.202361-07:00,1913.4,688.0,988.5,1210.6,825.2,1344.9,1454.3,1509.7,3434.6,3439.5,1713.8,1321.4,1436.9,3433.4,1005.6,1296.3,3449.1,3439.5,665.2,1368.5,960.2,516.3,1477.3,1621.8,3441.9,3437.0,753.8,1001.3,1148.0,1281.9,1114.7,904.2,-2.0,-2.0,-1.0,-9298.0,-12257.0,-4252.0,-3699.0,-34.0,5.0,7.0,-2.0,-3.0,4.0,10778.0,11560.0,-1987.0,-3832.0,-30.0,-18.0,5.0,1.0
2022-05-13 15:52:08.248339-07:00,1913.4,688.0,990.2,1207.1,825.2,1344.9,1459.8,1514.3,3434.6,3439.5,1712.9,1321.4,1436.9,3433.4,1009.0,1296.3,3431.0,3426.2,665.2,1368.5,959.4,522.6,1477.3,1621.8,3440.7,3441.9,753.8,1001.3,1153.3,1276.5,1114.7,904.2,-17.0,33.0,6.0,-9309.0,-12246.0,-4245.0,-3712.0,-71.0,37.0,31.0,-9.0,37.0,11.0,10788.0,11549.0,-1989.0,-3837.0,-78.0,-40.0,16.0,1.0
2022-05-13 15:52:08.336947-07:00,1912.4,690.5,990.2,1207.1,816.9,1342.2,1459.8,1514.3,3432.2,3433.4,1712.9,1321.4,1438.7,3445.5,1009.0,1296.3,3431.0,3426.2,663.6,1364.8,959.4,522.6,1480.1,1621.8,3440.7,3441.9,749.6,1005.6,1153.3,1276.5,1120.9,905.0,-4.0,-32.0,17.0,-9330.0,-12226.0,-4240.0,-3732.0,-57.0,24.0,37.0,4.0,-26.0,9.0,10805.0,11526.0,-2001.0,-3852.0,24.0,-44.0,34.0,1.0
2022-05-13 15:52:08.338155-07:00,1912.4,690.5,995.3,1203.5,816.9,1342.2,1544.1,1522.7,3432.2,3433.4,1835.2,1349.4,1438.7,3445.5,1006.5,1298.1,3434.6,3437.0,663.6,1364.8,954.3,520.3,1480.1,1621.8,3441.9,3444.3,749.6,1005.6,1164.7,1274.7,1120.9,905.0,-4.0,52.0,5.0,-9332.0,-12224.0,-4185.0,-3795.0,-71.0,15.0,249.0,-9.0,18.0,-3.0,10806.0,11517.0,-2033.0,-3860.0,-80.0,-119.0,51.0,1.0
2022-05-13 15:52:08.426415-07:00,1923.3,697.9,995.3,1203.5,825.2,1348.5,1544.1,1522.7,3433.4,3437.0,1835.2,1349.4,1440.5,3445.5,1006.5,1298.1,3434.6,3437.0,668.4,1369.4,954.3,520.3,1487.5,1620.9,3441.9,3444.3,752.1,997.0,1164.7,1274.7,1113.0,904.2,7.0,14.0,-29.0,-9389.0,-12186.0,-4128.0,-3840.0,-233.0,-41.0,3.0,-9.0,15.0,-17.0,10840.0,11469.0,-2059.0,-3893.0,-137.0,-126.0,-10.0,1.0
2022-05-13 15:52:08.472733-07:00,1923.3,697.9,989.3,1208.9,825.2,1372.1,1782.9,1655.8,3433.4,3437.0,2071.5,1404.9,1440.5,3441.9,1012.5,1304.3,3439.5,3438.2,670.1,1369.4,961.1,519.5,1487.5,1620.9,3438.2,3437.0,752.1,997.0,1156.8,1283.7,1113.0,904.2,-17.0,-4.0,-17.0,-9455.0,-12145.0,-4106.0,-3831.0,-142.0,-90.0,-12.0,-3.0,2.0,1.0,10869.0,11423.0,-2076.0,-3938.0,-164.0,-134.0,6.0,1.0
2022-05-13 15:52:08.517579-07:00,1927.2,695.4,992.7,1208.9,811.9,1372.1,1782.9,1655.8,3439.5,3447.9,2165.6,1404.9,1451.6,3441.9,1012.5,1304.3,3439.5,3438.2,670.1,1374.8,961.1,519.5,1492.1,1627.5,3438.2,3437.0,752.1,997.9,1156.8,1278.3,1108.6,902.5,8.0,25.0,24.0,-9553.0,-12091.0,-4042.0,-3827.0,-338.0,-80.0,20.0,5.0,-5.0,-6.0,10911.0,11363.0,-2097.0,-3983.0,-199.0,-101.0,28.0,1.0
2022-05-13 15:52:08.562772-07:00,1927.2,695.4,992.7,1208.9,811.9,1436.9,1845.0,1711.0,3439.5,3447.9,2165.6,1441.5,1451.6,3444.3,1044.4,1302.5,3437.0,3432.2,666.0,1374.8,962.0,519.5,1492.1,1627.5,3445.5,3438.2,747.2,997.9,1154.2,1278.3,1108.6,902.5,11.0,35.0,33.0,-9673.0,-12004.0,-4023.0,-3820.0,-216.0,-80.0,-136.0,8.0,11.0,-1.0,10960.0,11302.0,-2101.0,-4019.0,-141.0,-87.0,-35.0,1.0
2022-05-13 15:52:08.607779-07:00,1946.9,681.5,990.2,1208.9,822.7,1436.9,1845.0,1711.0,3440.7,3440.7,2218.8,1441.5,1461.7,3444.3,1044.4,1302.5,3437.0,3432.2,666.0,1373.0,962.0,515.5,1500.4,1624.7,3445.5,3438.2,747.2,996.2,1154.2,1279.2,1125.2,904.2,6.0,4.0,12.0,-9733.0,-11962.0,-4052.0,-3770.0,83.0,-69.0,-131.0,0.0,-5.0,-14.0,10968.0,11286.0,-2097.0,-4047.0,69.0,-12.0,-35.0,1.0
2022-05-13 15:52:08.652673-07:00,1946.9,681.5,990.2,1208.0,822.7,1479.2,1914.4,1783.9,3440.7,3440.7,2218.8,1472.7,1461.7,3445.5,1080.8,1324.1,3438.2,3439.5,666.0,1373.0,969.6,515.5,1500.4,1624.7,3439.5,3446.7,773.6,996.2,1153.3,1279.2,1125.2,904.2,8.0,-50.0,47.0,-9706.0,-11973.0,-4117.0,-3732.0,56.0,131.0,-147.0,-14.0,-7.0,-10.0,10956.0,11295.0,-2090.0,-4055.0,-93.0,15.0,12.0,1.0
2022-05-13 15:52:08.741588-07:00,2016.4,694.6,991.9,1208.9,822.7,1479.2,1914.4,1783.9,3446.7,3440.7,2217.8,1490.3,1470.9,3445.5,1080.8,1324.1,3438.2,3439.5,666.0,1398.5,974.8,520.3,1506.9,1627.5,3439.5,3446.7,773.6,998.7,1162.1,1281.0,1108.6,911.0,1.0,60.0,-97.0,-9572.0,-12035.0,-4243.0,-3736.0,659.0,212.0,-94.0,43.0,-6.0,64.0,10948.0,11314.0,-2076.0,-4033.0,165.0,107.0,-20.0,1.0
2022-05-13 15:52:08.742912-07:00,2016.4,694.6,991.9,1208.9,818.5,1506.9,1894.8,1782.9,3446.7,3440.7,2217.8,1490.3,1474.6,3428.6,1088.6,1334.1,3449.1,3431.0,667.6,1441.5,974.8,520.3,1506.9,1627.5,3447.9,3438.2,792.7,1014.2,1162.1,1281.0,1108.6,911.0,11.0,-38.0,4.0,-9399.0,-12189.0,-4287.0,-3626.0,572.0,-191.0,28.0,0.0,-42.0,-36.0,10913.0,11349.0,-2071.0,-4031.0,110.0,-43.0,-19.0,1.0
2022-05-13 15:52:08.786624-07:00,2033.4,680.7,1000.5,1206.2,818.5,1506.9,1894.8,1782.9,3440.7,3439.5,2150.4,1450.6,1474.6,3428.6,1088.6,1334.1,3449.1,3431.0,667.6,1441.5,980.7,523.4,1479.2,1620.9,3447.9,3438.2,792.7,1014.2,1155.9,1280.1,1106.9,949.2,-7.0,-4.0,-2.0,-9285.0,-12296.0,-4276.0,-3571.0,203.0,-61.0,63.0,0.0,-24.0,-2.0,10893.0,11363.0,-2090.0,-4037.0,28.0,-30.0,7.0,1.0
2022-05-13 15:52:08.877711-07:00,2033.4,680.7,1000.5,1206.2,814.4,1500.4,1849.8,1735.8,3440.7,3439.5,2150.4,1450.6,1465.4,3437.0,1070.3,1323.2,3441.9,3438.2,662.7,1437.8,980.7,523.4,1479.2,1620.9,3454.0,3438.2,798.5,1025.4,1155.9,1280.1,1106.9,949.2,2.0,29.0,30.0,-9191.0,-12375.0,-4286.0,-3527.0,345.0,-25.0,14.0,1.0,-8.0,15.0,10882.0,11369.0,-2101.0,-4044.0,10.0,-22.0,12.0,1.0
2022-05-13 15:52:08.922548-07:00,2021.4,662.7,991.9,1210.6,814.4,1500.4,1849.8,1735.8,3441.9,3450.4,2100.7,1429.5,1465.4,3437.0,1070.3,1323.2,3441.9,3438.2,662.7,1437.8,977.3,517.9,1456.2,1621.8,3454.0,3438.2,798.5,1025.4,1153.3,1281.0,1113.0,1059.1,0.0,-1.0,28.0,-9121.0,-12424.0,-4309.0,-3508.0,177.0,34.0,34.0,2.0,-5.0,5.0,10867.0,11383.0,-2106.0,-4041.0,71.0,28.0,8.0,1.0
2022-05-13 15:52:08.967589-07:00,2020.4,662.7,991.9,1210.6,816.0,1491.2,1827.5,1723.4,3445.5,3450.4,2100.7,1429.5,1464.4,3444.3,1068.6,1324.1,3437.0,3441.9,663.6,1435.0,977.3,517.9,1456.2,1629.4,3447.9,3441.9,794.4,1023.7,1153.3,1281.0,1113.0,1073.8,-9.0,4.0,2.0,-9073.0,-12443.0,-4332.0,-3537.0,106.0,136.0,24.0,-1.0,5.0,13.0,10860.0,11398.0,-2104.0,-4019.0,23.0,54.0,21.0,1.0
2022-05-13 15:52:09.056391-07:00,2020.4,657.9,997.9,1209.7,816.0,1491.2,1827.5,1716.7,3445.5,3440.7,2082.6,1434.1,1464.4,3444.3,1068.6,1320.5,3441.9,3441.9,663.6,1435.0,973.9,522.6,1436.0,1629.4,3434.6,3441.9,794.4,1023.7,1154.2,1279.2,1110.4,1073.8,-22.0,-24.0,-17.0,-9056.0,-12448.0,-4337.0,-3558.0,-25.0,-12.0,52.0,-13.0,5.0,7.0,10859.0,11405.0,-2097.0,-4004.0,41.0,12.0,22.0,1.0
2022-05-13 15:52:09.101315-07:00,2002.5,657.9,997.9,1209.7,824.4,1478.3,1802.3,1716.7,3441.9,3440.7,2082.6,1434.1,1450.6,3449.1,1066.9,1320.5,3441.9,3433.4,663.6,1425.9,973.9,522.6,1436.0,1628.4,3434.6,3431.0,791.0,1020.2,1154.2,1279.2,1110.4,1076.4,21.0,19.0,17.0,-9041.0,-12478.0,-4278.0,-3563.0,-57.0,-14.0,118.0,1.0,7.0,-30.0,10850.0,11414.0,-2117.0,-3996.0,-91.0,-14.0,53.0,1.0
2022-05-13 15:52:09.102974-07:00,2002.5,653.8,988.5,1201.8,824.4,1478.3,1802.3,1709.1,3441.9,3438.2,2069.5,1411.3,1450.6,3449.1,1066.9,1320.5,3437.0,3433.4,663.6,1425.9,967.9,521.0,1427.7,1628.4,3446.7,3431.0,791.0,1020.2,1150.6,1279.2,1111.2,1076.4,-9.0,4.0,-2.0,-9055.0,-12461.0,-4255.0,-3615.0,21.0,6.0,84.0,2.0,-3.0,19.0,10882.0,11384.0,-2125.0,-3987.0,-9.0,-19.0,36.0,1.0
2022-05-13 15:52:09.192090-07:00,1991.5,653.8,988.5,1201.8,818.5,1463.5,1803.2,1709.1,3443.1,3438.2,2069.5,1411.3,1455.2,3449.1,1069.5,1320.5,3437.0,3444.3,673.3,1427.7,967.9,521.0,1427.7,1626.5,3446.7,3438.2,793.5,1014.2,1150.6,1279.2,1111.2,1066.0,-5.0,-6.0,8.0,-9041.0,-12476.0,-4241.0,-3612.0,92.0,-35.0,22.0,-2.0,-11.0,5.0,10881.0,11385.0,-2134.0,-3985.0,49.0,-8.0,-2.0,1.0
2022-05-13 15:52:09.193378-07:00,1991.5,650.5,997.0,1208.9,818.5,1463.5,1799.4,1705.3,3443.1,3449.1,2056.4,1404.9,1455.2,3449.1,1067.7,1325.0,3433.4,3440.7,673.3,1427.7,970.5,521.0,1416.7,1626.5,3444.3,3447.9,793.5,1014.2,1157.7,1279.2,1106.9,1066.0,0.0,-17.0,19.0,-9044.0,-12473.0,-4238.0,-3621.0,-56.0,43.0,25.0,0.0,-15.0,-1.0,10881.0,11385.0,-2136.0,-3983.0,-36.0,6.0,28.0,1.0
2022-05-13 15:52:09.238136-07:00,1990.5,643.2,997.0,1208.9,816.0,1442.4,1799.4,1705.3,3433.4,3431.0,2056.4,1404.9,1447.0,3440.7,1067.7,1325.0,3433.4,3440.7,670.9,1426.8,970.5,521.0,1416.7,1627.5,3444.3,3447.9,789.4,1011.6,1157.7,1279.2,1113.0,1059.1,-1.0,2.0,5.0,-9038.0,-12473.0,-4236.0,-3640.0,27.0,25.0,37.0,-4.0,4.0,2.0,10886.0,11382.0,-2141.0,-3975.0,23.0,9.0,23.0,1.0
2022-05-13 15:52:09.326333-07:00,1990.5,643.2,987.6,1207.1,816.0,1442.4,1791.6,1711.9,3433.4,3431.0,2039.4,1404.9,1447.0,3440.7,1067.7,1329.6,3432.2,3443.1,670.9,1426.8,975.6,518.7,1416.7,1627.5,3433.4,3450.4,789.4,1011.6,1153.3,1277.4,1113.0,1059.1,-2.0,2.0,5.0,-9015.0,-12490.0,-4223.0,-3653.0,52.0,28.0,79.0,-3.0,8.0,-8.0,10879.0,11388.0,-2151.0,-3969.0,20.0,-7.0,26.0,1.0
2022-05-13 15:52:09.371181-07:00,1970.7,642.4,987.6,1207.1,813.5,1436.9,1791.6,1711.9,3426.2,3444.3,2039.4,1404.9,1440.5,3439.5,1067.7,1329.6,3432.2,3443.1,662.7,1438.7,975.6,518.7,1402.1,1622.8,3433.4,3450.4,789.4,1006.5,1153.3,1277.4,1106.0,1048.7,-6.0,-1.0,2.0,-9014.0,-12484.0,-4216.0,-3680.0,-33.0,25.0,32.0,-4.0,-5.0,2.0,10887.0,11382.0,-2155.0,-3964.0,-25.0,-7.0,12.0,1.0
2022-05-13 15:52:09.416406-07:00,1970.7,642.4,995.3,1206.2,813.5,1436.9,1783.9,1686.2,3426.2,3444.3,2031.4,1416.7,1440.5,3439.5,1066.9,1317.8,3438.2,3438.2,662.7,1438.7,972.2,520.3,1402.1,1622.8,3444.3,3450.4,789.4,1006.5,1155.9,1281.9,1106.0,1048.7,-2.0,17.0,0.0,-9005.0,-12493.0,-4212.0,-3680.0,26.0,-12.0,8.0,-3.0,14.0,-2.0,10888.0,11381.0,-2157.0,-3963.0,0.0,-12.0,0.0,1.0
2022-05-13 15:52:09.461804-07:00,1966.7,637.6,995.3,1206.2,817.7,1421.3,1783.9,1686.2,3441.9,3449.1,2031.4,1416.7,1445.1,3449.1,1066.9,1317.8,3438.2,3438.2,661.9,1422.2,972.2,520.3,1396.7,1621.8,3444.3,3450.4,791.0,1008.2,1155.9,1281.9,1113.0,1044.4,-2.0,-6.0,8.0,-9004.0,-12492.0,-4213.0,-3682.0,8.0,14.0,5.0,0.0,0.0,2.0,10888.0,11381.0,-2158.0,-3964.0,1.0,1.0,4.0,1.0
2022-05-13 15:52:09.507647-07:00,1966.7,637.6,988.5,1207.1,817.7,1410.3,1778.1,1681.4,3441.9,3449.1,2035.4,1393.0,1445.1,3435.8,1071.2,1322.3,3444.3,3445.5,664.4,1422.2,968.8,518.7,1396.7,1621.8,3432.2,3440.7,781.9,1008.2,1151.5,1275.6,1113.0,1044.4,-4.0,8.0,-5.0,-9002.0,-12495.0,-4214.0,-3679.0,18.0,-31.0,1.0,1.0,11.0,-2.0,10888.0,11381.0,-2158.0,-3964.0,9.0,-15.0,-5.0,1.0
2022-05-13 15:52:09.552691-07:00,1970.7,639.2,993.6,1207.1,817.7,1410.3,1778.1,1681.4,3440.7,3439.5,2006.4,1393.0,1433.2,3435.8,1071.2,1322.3,3444.3,3445.5,664.4,1417.6,968.8,521.0,1385.7,1625.6,3432.2,3440.7,781.9,997.0,1151.5,1275.6,1116.5,1044.4,-2.0,4.0,13.0,-9011.0,-12488.0,-4211.0,-3683.0,-50.0,29.0,-3.0,-5.0,-2.0,5.0,10889.0,11378.0,-2160.0,-3967.0,-24.0,0.0,5.0,1.0
2022-05-13 15:52:09.597499-07:00,1970.7,639.2,993.6,1211.5,817.7,1412.2,1770.4,1688.1,3440.7,3439.5,2006.4,1393.0,1433.2,3443.1,1066.0,1323.2,3434.6,3428.6,661.9,1417.6,973.9,521.0,1385.7,1625.6,3449.1,3435.8,782.7,997.0,1164.7,1275.6,1116.5,1044.4,-2.0,6.0,6.0,-9016.0,-12480.0,-4214.0,-3692.0,14.0,12.0,-4.0,-2.0,-3.0,8.0,10895.0,11373.0,-2160.0,-3966.0,-3.0,2.0,7.0,1.0
2022-05-13 15:52:09.686214-07:00,1976.6,633.5,989.3,1211.5,816.0,1412.2,1770.4,1688.1,3441.9,3437.0,1996.5,1393.0,1441.5,3443.1,1066.0,1323.2,3434.6,3428.6,661.9,1419.5,973.9,517.1,1383.0,1630.3,3449.1,3435.8,782.7,993.6,1164.7,1274.7,1115.6,1049.6,-4.0,-4.0,1.0,-9016.0,-12481.0,-4213.0,-3690.0,-2.0,-14.0,-4.0,0.0,-8.0,-1.0,10894.0,11374.0,-2160.0,-3966.0,-2.0,2.0,-1.0,1.0
2022-05-13 15:52:09.687426-07:00,1976.6,633.5,989.3,1207.1,816.0,1407.6,1770.4,1686.2,3441.9,3437.0,1996.5,1389.4,1441.5,3434.6,1067.7,1325.0,3439.5,3431.0,663.6,1419.5,969.6,517.1,1383.0,1630.3,3440.7,3437.0,783.6,993.6,1153.3,1274.7,1115.6,1049.6,-2.0,0.0,9.0,-9025.0,-12474.0,-4212.0,-3694.0,-53.0,22.0,-2.0,-2.0,-4.0,3.0,10896.0,11371.0,-2159.0,-3967.0,-24.0,3.0,8.0,1.0
2022-05-13 15:52:09.731762-07:00,1968.7,638.4,991.9,1206.2,810.2,1407.6,1770.4,1686.2,3450.4,3434.6,1987.5,1387.5,1439.6,3434.6,1067.7,1325.0,3439.5,3431.0,663.6,1420.4,973.9,521.0,1381.2,1622.8,3440.7,3437.0,783.6,994.5,1157.7,1283.7,1110.4,1041.8,-8.0,7.0,5.0,-9029.0,-12467.0,-4213.0,-3704.0,4.0,21.0,15.0,-2.0,0.0,5.0,10897.0,11370.0,-2159.0,-3967.0,8.0,5.0,5.0,1.0
2022-05-13 15:52:09.866410-07:00,1968.7,638.4,991.9,1206.2,820.2,1404.9,1766.6,1689.1,3450.4,3434.6,1987.5,1387.5,1429.5,3438.2,1067.7,1323.2,3444.3,3435.8,660.3,1414.9,973.9,521.0,1381.2,1622.8,3443.1,3439.5,780.3,992.7,1157.7,1283.7,1110.4,1041.8,3.0,23.0,13.0,-9023.0,-12469.0,-4218.0,-3709.0,21.0,41.0,-35.0,1.0,3.0,-2.0,10893.0,11374.0,-2158.0,-3968.0,14.0,5.0,-11.0,1.0
2022-05-13 15:52:09.868062-07:00,1958.8,639.2,995.3,1200.9,820.2,1404.9,1766.6,1689.1,3440.7,3443.1,1991.5,1391.2,1429.5,3438.2,1067.7,1323.2,3444.3,3435.8,660.3,1414.9,967.9,515.5,1374.8,1626.5,3443.1,3439.5,780.3,992.7,1149.8,1282.8,1104.3,1053.9,-6.0,0.0,14.0,-9020.0,-12458.0,-4253.0,-3712.0,36.0,73.0,-69.0,-2.0,-2.0,11.0,10891.0,11378.0,-2144.0,-3969.0,8.0,34.0,-24.0,1.0
2022-05-13 15:52:09.911263-07:00,1958.8,639.2,995.3,1200.9,820.2,1407.6,1763.7,1676.7,3440.7,3443.1,1991.5,1391.2,1432.3,3438.2,1071.2,1325.0,3428.6,3446.7,664.4,1420.4,967.9,515.5,1374.8,1626.5,3434.6,3449.1,772.8,993.6,1149.8,1282.8,1104.3,1053.9,-8.0,-2.0,-6.0,-9005.0,-12456.0,-4284.0,-3719.0,37.0,43.0,-5.0,-5.0,1.0,1.0,10887.0,11386.0,-2134.0,-3963.0,22.0,25.0,-1.0,1.0
2022-05-13 15:52:09.957756-07:00,1970.7,640.8,997.9,1210.6,820.2,1407.6,1763.7,1676.7,3443.1,3440.7,1984.6,1384.8,1432.3,3438.2,1071.2,1325.0,3428.6,3446.7,664.4,1420.4,968.8,516.3,1375.7,1629.4,3434.6,3449.1,772.8,993.6,1155.0,1278.3,1112.1,1049.6,-1.0,3.0,-6.0,-9000.0,-12457.0,-4290.0,-3724.0,-6.0,13.0,-10.0,-6.0,2.0,-7.0,10886.0,11389.0,-2132.0,-3960.0,-6.0,5.0,0.0,1.0
2022-05-13 15:52:10.002676-07:00,1956.8,640.8,997.9,1210.6,809.4,1388.5,1764.6,1675.7,3440.7,3440.7,1984.6,1384.8,1429.5,3449.1,1072.9,1324.1,3443.1,3435.8,663.6,1414.9,968.8,516.3,1375.7,1627.5,3446.7,3444.3,774.5,988.5,1155.0,1278.3,1112.1,1041.8,-4.0,2.0,-3.0,-8998.0,-12457.0,-4293.0,-3723.0,17.0,-14.0,2.0,-3.0,8.0,-1.0,10886.0,11388.0,-2132.0,-3960.0,4.0,-9.0,-2.0,1.0
2022-05-13 15:52:10.047497-07:00,1956.8,632.7,995.3,1200.9,809.4,1388.5,1764.6,1676.7,3440.7,3439.5,1978.6,1388.5,1429.5,3449.1,1072.9,1320.5,3441.9,3435.8,663.6,1414.9,966.2,521.8,1365.7,1627.5,3435.8,3444.3,774.5,988.5,1162.1,1277.4,1104.3,1041.8,-2.0,4.0,5.0,-9000.0,-12458.0,-4290.0,-3719.0,-29.0,-10.0,5.0,0.0,-1.0,4.0,10886.0,11386.0,-2136.0,-3965.0,-15.0,-19.0,2.0,1.0
2022-05-13 15:52:10.092290-07:00,1953.9,632.7,995.3,1200.9,816.0,1389.4,1762.7,1676.7,3439.5,3439.5,1978.6,1388.5,1429.5,3447.9,1069.5,1320.5,3441.9,3443.1,673.3,1417.6,966.2,521.8,1365.7,1618.1,3435.8,3449.1,780.3,1003.0,1162.1,1277.4,1104.3,1042.6,6.0,6.0,6.0,-9005.0,-12454.0,-4291.0,-3718.0,-13.0,15.0,-19.0,0.0,2.0,-1.0,10889.0,11382.0,-2138.0,-3969.0,-7.0,-8.0,-5.0,1.0
2022-05-13 15:52:10.227743-07:00,1953.9,625.4,992.7,1202.7,816.0,1389.4,1762.7,1671.9,3439.5,3449.1,1981.6,1388.5,1429.5,3447.9,1069.5,1326.8,3433.4,3443.1,673.3,1417.6,964.5,517.1,1369.4,1618.1,3443.1,3449.1,780.3,1003.0,1160.3,1281.9,1106.0,1042.6,-11.0,1.0,8.0,-9006.0,-12448.0,-4307.0,-3720.0,40.0,26.0,-33.0,-3.0,-1.0,8.0,10892.0,11379.0,-2137.0,-3971.0,0.0,1.0,-11.0,1.0
2022-05-13 15:52:10.317718-07:00,1964.7,625.4,992.7,1202.7,816.0,1386.6,1770.4,1671.9,3440.7,3449.1,1981.6,1388.5,1431.4,3449.1,1069.5,1326.8,3433.4,3449.1,665.2,1414.0,964.5,517.1,1369.4,1627.5,3443.1,3450.4,776.9,993.6,1160.3,1281.9,1106.0,1043.5,-6.0,6.0,6.0,-8995.0,-12447.0,-4334.0,-3716.0,-1.0,14.0,-40.0,-3.0,6.0,14.0,10890.0,11381.0,-2130.0,-3973.0,1.0,14.0,-17.0,1.0
2022-05-13 15:52:10.320067-07:00,1964.7,627.0,988.5,1210.6,816.0,1386.6,1770.4,1669.1,3440.7,3440.7,1978.6,1377.5,1431.4,3449.1,1069.5,1324.1,3440.7,3449.1,665.2,1414.0,964.5,517.9,1363.9,1627.5,3439.5,3450.4,776.9,993.6,1169.1,1280.1,1107.8,1043.5,0.0,-10.0,11.0,-9000.0,-12440.0,-4343.0,-3720.0,-5.0,34.0,6.0,3.0,-4.0,-2.0,10893.0,11378.0,-2127.0,-3973.0,-1.0,13.0,6.0,1.0
2022-05-13 15:52:10.321233-07:00,1954.8,631.1,988.5,1210.6,824.4,1383.0,1749.3,1669.1,3443.1,3439.5,1978.6,1377.5,1432.3,3446.7,1070.3,1324.1,3440.7,3437.0,663.6,1416.7,964.5,517.9,1361.2,1630.3,3439.5,3456.4,775.3,980.7,1169.1,1280.1,1112.1,1034.9,-7.0,3.0,0.0,-8994.0,-12438.0,-4354.0,-3725.0,32.0,9.0,-21.0,-6.0,3.0,0.0,10894.0,11379.0,-2124.0,-3971.0,4.0,9.0,-8.0,1.0
2022-05-13 15:52:10.362627-07:00,1954.8,631.1,991.0,1206.2,824.4,1383.0,1749.3,1673.8,3443.1,3439.5,1981.6,1383.9,1432.3,3446.7,1072.9,1316.0,3444.3,3444.3,663.6,1416.7,966.2,518.7,1361.2,1630.3,3444.3,3437.0,775.3,980.7,1156.8,1277.4,1112.1,1034.9,-8.0,-6.0,5.0,-8992.0,-12439.0,-4358.0,-3722.0,-46.0,6.0,2.0,-6.0,-6.0,1.0,10894.0,11379.0,-2123.0,-3972.0,-23.0,-5.0,3.0,1.0
2022-05-13 15:52:10.451346-07:00,1954.8,627.8,991.0,1206.2,814.4,1374.8,1749.3,1673.8,3433.4,3444.3,1981.6,1383.9,1430.5,3438.2,1072.9,1316.0,3444.3,3444.3,666.8,1415.8,966.2,518.7,1361.2,1635.0,3444.3,3437.0,772.8,985.9,1156.8,1277.4,1112.1,1028.0,-1.0,12.0,-4.0,-9001.0,-12431.0,-4355.0,-3732.0,-30.0,16.0,-4.0,-2.0,4.0,2.0,10900.0,11373.0,-2123.0,-3970.0,-20.0,-4.0,7.0,1.0
2022-05-13 15:52:10.542438-07:00,1954.8,627.8,994.5,1200.9,814.4,1374.8,1757.0,1675.7,3433.4,3444.3,1966.7,1386.6,1430.5,3438.2,1071.2,1323.2,3432.2,3433.4,666.8,1415.8,964.5,515.5,1361.2,1635.0,3446.7,3444.3,772.8,985.9,1155.0,1282.8,1112.1,1028.0,4.0,9.0,-2.0,-8999.0,-12432.0,-4358.0,-3728.0,16.0,1.0,-24.0,-1.0,5.0,-11.0,10900.0,11372.0,-2126.0,-3973.0,9.0,-18.0,-9.0,1.0
2022-05-13 15:52:10.545006-07:00,1956.8,634.3,994.5,1200.9,821.0,1375.7,1757.0,1675.7,3438.2,3443.1,1966.7,1386.6,1430.5,3443.1,1071.2,1323.2,3432.2,3433.4,664.4,1413.1,964.5,515.5,1356.7,1625.6,3446.7,3444.3,778.6,984.2,1155.0,1282.8,1106.0,1034.0,-3.0,-2.0,-1.0,-9005.0,-12424.0,-4368.0,-3729.0,-50.0,16.0,-5.0,-3.0,5.0,5.0,10907.0,11362.0,-2129.0,-3981.0,-37.0,-24.0,6.0,1.0
2022-05-13 15:52:10.545830-07:00,1956.8,634.3,995.3,1201.8,821.0,1371.2,1743.5,1671.0,3438.2,3443.1,1976.6,1380.3,1430.5,3440.7,1070.3,1325.0,3441.9,3440.7,663.6,1413.1,958.5,518.7,1356.7,1625.6,3440.7,3440.7,773.6,984.2,1155.0,1281.0,1106.0,1034.0,-10.0,3.0,16.0,-9024.0,-12409.0,-4364.0,-3739.0,-25.0,-4.0,-4.0,-2.0,-4.0,18.0,10919.0,11347.0,-2132.0,-3989.0,-26.0,-15.0,4.0,1.0
2022-05-13 15:52:10.587431-07:00,1958.8,626.2,993.6,1201.8,816.9,1371.2,1743.5,1671.0,3439.5,3438.2,1971.7,1380.3,1428.6,3440.7,1070.3,1325.0,3441.9,3440.7,663.6,1420.4,958.5,518.7,1353.1,1627.5,3440.7,3440.7,773.6,985.9,1155.0,1279.2,1111.2,1042.6,-3.0,3.0,18.0,-9028.0,-12405.0,-4368.0,-3740.0,-1.0,22.0,-19.0,0.0,2.0,12.0,10924.0,11342.0,-2131.0,-3990.0,-12.0,7.0,-4.0,1.0
2022-05-13 15:52:10.632542-07:00,1958.8,626.2,993.6,1210.6,816.9,1374.8,1744.5,1670.1,3439.5,3438.2,1971.7,1379.4,1428.6,3439.5,1072.1,1321.4,3437.0,3444.3,660.3,1420.4,960.2,518.7,1353.1,1627.5,3441.9,3444.3,772.0,985.9,1155.0,1279.2,1111.2,1042.6,-3.0,-5.0,9.0,-9031.0,-12397.0,-4376.0,-3747.0,-4.0,28.0,-6.0,1.0,-4.0,7.0,10927.0,11341.0,-2128.0,-3988.0,-4.0,12.0,-2.0,1.0
2022-05-13 15:52:10.721415-07:00,1955.8,622.2,988.5,1210.6,815.2,1374.8,1744.5,1670.1,3435.8,3434.6,1964.7,1379.4,1426.8,3439.5,1072.1,1321.4,3437.0,3444.3,660.3,1414.9,960.2,521.0,1344.9,1632.2,3441.9,3444.3,772.0,1000.5,1155.0,1276.5,1106.0,1032.3,-2.0,11.0,-9.0,-9020.0,-12402.0,-4383.0,-3749.0,29.0,-5.0,-5.0,-1.0,2.0,-7.0,10923.0,11347.0,-2126.0,-3983.0,13.0,3.0,-9.0,1.0
2022-05-13 15:52:10.766340-07:00,1955.8,622.2,988.5,1202.7,815.2,1371.2,1743.5,1674.8,3435.8,3434.6,1964.7,1383.9,1426.8,3449.1,1068.6,1323.2,3438.2,3434.6,664.4,1414.9,965.4,521.0,1344.9,1632.2,3433.4,3441.9,778.6,1000.5,1163.8,1276.5,1106.0,1032.3,-7.0,5.0,-6.0,-9015.0,-12406.0,-4385.0,-3746.0,-1.0,-9.0,9.0,-6.0,2.0,-2.0,10920.0,11348.0,-2127.0,-3984.0,-9.0,-13.0,2.0,1.0
2022-05-13 15:52:10.811183-07:00,1957.8,629.5,994.5,1200.0,815.2,1371.2,1743.5,1674.8,3440.7,3437.0,1958.8,1381.2,1426.8,3449.1,1068.6,1323.2,3438.2,3434.6,664.4,1411.3,965.4,518.7,1349.4,1627.5,3433.4,3441.9,778.6,991.0,1157.7,1279.2,1115.6,1034.9,-8.0,12.0,-1.0,-9021.0,-12407.0,-4372.0,-3743.0,2.0,-29.0,16.0,-7.0,3.0,6.0,10921.0,11346.0,-2131.0,-3988.0,-1.0,-16.0,4.0,1.0
2022-05-13 15:52:10.856305-07:00,1957.8,629.5,994.5,1200.0,816.0,1375.7,1746.4,1666.3,3440.7,3437.0,1958.8,1381.2,1425.9,3432.2,1064.3,1324.1,3439.5,3441.9,666.8,1410.3,965.4,518.7,1349.4,1627.5,3441.9,3443.1,772.0,984.2,1157.7,1279.2,1115.6,1034.9,-5.0,3.0,12.0,-9023.0,-12408.0,-4369.0,-3738.0,3.0,-4.0,1.0,-1.0,-2.0,13.0,10921.0,11344.0,-2133.0,-3991.0,4.0,-1.0,-1.0,1.0
2022-05-13 15:52:10.901289-07:00,1957.8,627.0,989.3,1207.1,816.0,1375.7,1746.4,1666.3,3444.3,3433.4,1960.8,1378.5,1425.9,3432.2,1064.3,1324.1,3439.5,3441.9,666.8,1410.3,967.1,521.8,1350.3,1613.4,3441.9,3443.1,772.0,984.2,1159.4,1285.5,1106.9,1024.5,-6.0,2.0,5.0,-9024.0,-12407.0,-4369.0,-3740.0,0.0,13.0,3.0,-2.0,-5.0,7.0,10921.0,11344.0,-2133.0,-3991.0,1.0,4.0,3.0,1.0
2022-05-13 15:52:10.946639-07:00,1957.8,627.0,989.3,1207.1,821.0,1377.5,1739.7,1682.4,3444.3,3433.4,1960.8,1378.5,1421.3,3437.0,1070.3,1325.9,3434.6,3449.1,657.9,1405.8,967.1,521.8,1350.3,1613.4,3444.3,3451.6,772.0,981.6,1159.4,1285.5,1106.9,1024.5,-3.0,-3.0,4.0,-9024.0,-12406.0,-4371.0,-3739.0,0.0,2.0,-13.0,-4.0,-2.0,0.0,10921.0,11344.0,-2133.0,-3991.0,-4.0,1.0,-3.0,1.0
2022-05-13 15:52:10.991774-07:00,1951.9,618.9,989.3,1202.7,821.0,1377.5,1739.7,1682.4,3437.0,3440.7,1959.8,1374.8,1421.3,3437.0,1070.3,1325.9,3434.6,3449.1,657.9,1405.8,963.7,517.1,1345.8,1628.4,3444.3,3451.6,772.0,981.6,1156.8,1274.7,1112.1,1031.4,-6.0,-3.0,4.0,-9022.0,-12408.0,-4372.0,-3738.0,-16.0,2.0,6.0,-3.0,-2.0,2.0,10920.0,11346.0,-2133.0,-3990.0,-12.0,-4.0,5.0,1.0
2022-05-13 15:52:11.035941-07:00,1949.9,618.9,989.3,1202.7,814.4,1367.6,1739.7,1665.3,3444.3,3440.7,1959.8,1374.8,1424.1,3439.5,1066.9,1323.2,3440.7,3434.6,662.7,1408.5,963.7,517.1,1345.8,1619.9,3443.1,3435.8,772.0,981.6,1156.8,1274.7,1112.1,1030.6,-6.0,11.0,7.0,-9023.0,-12407.0,-4370.0,-3739.0,-11.0,7.0,-3.0,-4.0,2.0,5.0,10920.0,11346.0,-2133.0,-3990.0,9.0,5.0,2.0,1.0
2022-05-13 15:52:11.081804-07:00,1949.9,621.4,994.5,1202.7,814.4,1367.6,1739.7,1661.5,3444.3,3438.2,1960.8,1380.3,1424.1,3439.5,1066.9,1318.7,3434.6,3434.6,662.7,1408.5,958.5,516.3,1349.4,1619.9,3439.5,3435.8,772.0,981.6,1161.2,1273.9,1106.9,1030.6,-7.0,0.0,11.0,-9031.0,-12401.0,-4370.0,-3741.0,-21.0,3.0,-6.0,-2.0,0.0,2.0,10920.0,11346.0,-2133.0,-3990.0,5.0,-2.0,-2.0,1.0
2022-05-13 15:52:11.126557-07:00,1955.8,621.4,994.5,1202.7,820.2,1372.1,1733.0,1661.5,3440.7,3438.2,1960.8,1380.3,1427.7,3449.1,1070.3,1318.7,3434.6,3440.7,668.4,1400.3,958.5,516.3,1349.4,1622.8,3439.5,3438.2,771.1,979.9,1161.2,1273.9,1106.9,1035.7,-1.0,9.0,0.0,-9024.0,-12408.0,-4370.0,-3736.0,32.0,-21.0,-9.0,-6.0,8.0,0.0,10916.0,11349.0,-2135.0,-3990.0,18.0,-3.0,-5.0,1.0
2022-05-13 15:52:11.216292-07:00,1955.8,620.5,988.5,1210.6,820.2,1372.1,1733.0,1662.5,3440.7,3445.5,1959.8,1378.5,1427.7,3449.1,1070.3,1316.9,3444.3,3440.7,668.4,1400.3,967.1,520.3,1344.9,1622.8,3441.9,3438.2,771.1,979.9,1145.4,1280.1,1110.4,1035.7,-6.0,-6.0,9.0,-9024.0,-12408.0,-4374.0,-3731.0,1.0,1.0,-5.0,-4.0,-1.0,9.0,10915.0,11350.0,-2135.0,-3990.0,4.0,-3.0,-2.0,1.0
2022-05-13 15:52:11.261572-07:00,1954.8,620.5,988.5,1210.6,819.4,1365.7,1731.1,1662.5,3444.3,3445.5,1959.8,1378.5,1424.1,3440.7,1066.9,1316.9,3444.3,3438.2,668.4,1406.7,967.1,520.3,1344.9,1617.1,3441.9,3444.3,764.5,981.6,1145.4,1280.1,1110.4,1039.2,0.0,11.0,3.0,-9023.0,-12409.0,-4370.0,-3734.0,-10.0,-2.0,19.0,-3.0,7.0,2.0,10915.0,11350.0,-2135.0,-3990.0,-2.0,-8.0,7.0,1.0
2022-05-13 15:52:11.306550-07:00,1954.8,620.5,997.9,1205.3,819.4,1365.7,1731.1,1660.6,3444.3,3440.7,1958.8,1377.5,1424.1,3440.7,1066.9,1317.8,3438.2,3438.2,668.4,1406.7,962.8,519.5,1354.0,1617.1,3446.7,3444.3,764.5,981.6,1153.3,1275.6,1104.3,1039.2,-3.0,8.0,5.0,-9023.0,-12409.0,-4369.0,-3735.0,21.0,-8.0,3.0,-2.0,0.0,4.0,10915.0,11350.0,-2136.0,-3989.0,10.0,0.0,2.0,1.0
2022-05-13 15:52:11.350929-07:00,1950.9,621.4,997.9,1205.3,817.7,1364.8,1730.1,1660.6,3433.4,3438.2,1958.8,1377.5,1423.1,3449.1,1064.3,1317.8,3438.2,3437.0,663.6,1404.9,962.8,519.5,1344.9,1623.7,3446.7,3431.0,769.5,977.3,1153.3,1275.6,1106.0,1039.2,-1.0,5.0,7.0,-9024.0,-12411.0,-4366.0,-3731.0,-18.0,-7.0,7.0,-2.0,-3.0,1.0,10914.0,11351.0,-2137.0,-3989.0,-5.0,-6.0,4.0,1.0
2022-05-13 15:52:11.397035-07:00,1950.9,621.4,995.3,1202.7,817.7,1364.8,1736.8,1654.9,3433.4,3438.2,1959.8,1380.3,1423.1,3449.1,1068.6,1321.4,3441.9,3438.2,663.6,1404.9,965.4,523.4,1344.9,1623.7,3438.2,3439.5,769.5,977.3,1158.6,1283.7,1106.0,1039.2,-9.0,4.0,2.0,-9028.0,-12407.0,-4363.0,-3735.0,5.0,9.0,12.0,-6.0,0.0,7.0,10916.0,11349.0,-2137.0,-3988.0,1.0,4.0,5.0,1.0
2022-05-13 15:52:11.487330-07:00,1949.9,619.7,995.3,1202.7,818.5,1373.0,1736.8,1654.9,3438.2,3449.1,1959.8,1380.3,1418.6,3437.0,1068.6,1321.4,3441.9,3438.2,666.0,1404.0,965.4,523.4,1343.1,1622.8,3438.2,3439.5,781.9,980.7,1158.6,1283.7,1113.0,1029.7,-5.0,5.0,6.0,-9029.0,-12408.0,-4359.0,-3736.0,-10.0,8.0,1.0,-6.0,1.0,3.0,10916.0,11349.0,-2137.0,-3988.0,-1.0,1.0,3.0,1.0
2022-05-13 15:52:11.488738-07:00,1949.9,619.7,998.7,1204.4,818.5,1373.0,1725.3,1657.7,3438.2,3449.1,1949.9,1379.4,1418.6,3437.0,1065.1,1316.0,3435.8,3441.9,666.0,1404.0,962.8,517.9,1343.1,1622.8,3438.2,3449.1,781.9,980.7,1157.7,1276.5,1113.0,1029.7,0.0,15.0,2.0,-9050.0,-12391.0,-4354.0,-3745.0,-112.0,4.0,-8.0,-3.0,-1.0,4.0,10919.0,11345.0,-2137.0,-3990.0,-21.0,-13.0,-1.0,1.0
2022-05-13 15:52:11.533279-07:00,1961.8,631.1,998.7,1204.4,826.9,1359.4,1725.3,1657.7,3429.8,3438.2,1949.9,1379.4,1423.1,3445.5,1065.1,1316.0,3435.8,3441.9,662.7,1403.0,962.8,517.9,1362.1,1616.2,3438.2,3449.1,760.4,983.3,1157.7,1276.5,1104.3,1043.5,13.0,-12.0,10.0,-9147.0,-12313.0,-4343.0,-3780.0,-410.0,48.0,-49.0,15.0,-21.0,1.0,10936.0,11329.0,-2131.0,-3995.0,-72.0,14.0,-11.0,1.0
2022-05-13 15:52:11.667059-07:00,1961.8,631.1,994.5,1205.3,826.9,1383.0,1737.8,1667.2,3429.8,3438.2,1943.0,1380.3,1423.1,3447.9,1064.3,1322.3,3440.7,3435.8,667.6,1403.0,961.1,516.3,1362.1,1616.2,3444.3,3438.2,773.6,983.3,1153.3,1281.9,1104.3,1043.5,-1.0,-14.0,10.0,-9211.0,-12246.0,-4339.0,-3846.0,-61.0,117.0,53.0,10.0,-25.0,19.0,10929.0,11345.0,-2122.0,-3974.0,121.0,79.0,16.0,1.0
2022-05-13 15:52:11.668297-07:00,1963.7,665.2,991.9,1205.3,825.2,1383.0,1737.8,1667.2,3441.9,3433.4,1990.5,1380.3,1427.7,3447.9,1064.3,1322.3,3440.7,3435.8,667.6,1406.7,961.1,522.6,1417.6,1622.8,3444.3,3438.2,773.6,991.9,1153.3,1277.4,1110.4,1039.2,6.0,34.0,-29.0,-9181.0,-12277.0,-4333.0,-3827.0,135.0,-137.0,-3.0,-7.0,32.0,-4.0,10864.0,11422.0,-2107.0,-3936.0,245.0,106.0,-45.0,1.0
2022-05-13 15:52:11.712542-07:00,1963.7,665.2,991.9,1210.6,825.2,1381.2,1848.9,1702.4,3441.9,3433.4,1990.5,1390.3,1427.7,3441.9,1041.8,1316.0,3438.2,3429.8,675.0,1406.7,969.6,522.6,1417.6,1622.8,3451.6,3441.9,776.9,991.9,1158.6,1277.4,1110.4,1039.2,0.0,7.0,4.0,-9185.0,-12283.0,-4327.0,-3805.0,-135.0,25.0,-7.0,-7.0,5.0,-10.0,10813.0,11486.0,-2082.0,-3906.0,117.0,109.0,-38.0,1.0
2022-05-13 15:52:11.757753-07:00,1964.7,708.5,993.6,1210.6,825.2,1381.2,1848.9,1702.4,3443.1,3437.0,1993.5,1390.3,1434.1,3441.9,1041.8,1316.0,3438.2,3429.8,675.0,1395.7,969.6,525.0,1533.8,1618.1,3451.6,3441.9,776.9,1002.2,1158.6,1275.6,1107.8,1042.6,-27.0,-4.0,10.0,-9236.0,-12246.0,-4316.0,-3813.0,-21.0,-59.0,-44.0,-6.0,-7.0,20.0,10791.0,11521.0,-2050.0,-3879.0,111.0,104.0,-23.0,1.0
2022-05-13 15:52:11.802624-07:00,1964.7,708.5,993.6,1200.0,825.2,1369.4,1849.8,1776.2,3443.1,3437.0,1993.5,1383.0,1434.1,3449.1,1035.7,1306.1,3433.4,3437.0,666.8,1395.7,957.7,525.0,1533.8,1618.1,3443.1,3434.6,761.2,1002.2,1162.1,1275.6,1107.8,1042.6,2.0,25.0,8.0,-9218.0,-12283.0,-4339.0,-3710.0,129.0,-170.0,-196.0,-5.0,24.0,-2.0,10747.0,11573.0,-2023.0,-3861.0,104.0,66.0,-60.0,1.0
2022-05-13 15:52:11.849110-07:00,1954.8,705.2,993.6,1202.7,816.0,1369.4,1849.8,1776.2,3454.0,3439.5,1904.6,1356.7,1430.5,3449.1,1035.7,1306.1,3433.4,3437.0,666.8,1389.4,957.7,521.0,1543.1,1624.7,3443.1,3434.6,761.2,1011.6,1155.9,1286.4,1115.6,1036.6,-7.0,-13.0,31.0,-9238.0,-12280.0,-4366.0,-3640.0,-47.0,-47.0,-90.0,-1.0,3.0,3.0,10732.0,11593.0,-2002.0,-3856.0,18.0,37.0,-24.0,1.0
2022-05-13 15:52:11.937322-07:00,1954.8,705.2,993.6,1202.7,821.9,1337.7,1714.8,1714.8,3454.0,3439.5,1904.6,1356.7,1433.2,3437.0,1027.1,1302.5,3441.9,3444.3,665.2,1383.0,957.7,521.0,1543.1,1624.7,3444.3,3449.1,757.9,1022.8,1155.9,1286.4,1115.6,1036.6,-16.0,17.0,-6.0,-9258.0,-12272.0,-4364.0,-3614.0,-4.0,-90.0,-63.0,1.0,-1.0,11.0,10724.0,11606.0,-1989.0,-3843.0,30.0,52.0,-20.0,1.0
2022-05-13 15:52:11.939252-07:00,1963.7,708.5,994.5,1209.7,821.9,1337.7,1714.8,1714.8,3444.3,3447.9,1837.2,1345.8,1433.2,3437.0,1027.1,1302.5,3441.9,3444.3,665.2,1383.0,967.1,516.3,1572.1,1627.5,3444.3,3449.1,757.9,1022.8,1158.6,1276.5,1118.2,1033.2,3.0,3.0,16.0,-9238.0,-12301.0,-4383.0,-3546.0,160.0,-58.0,-77.0,-10.0,14.0,-12.0,10699.0,11635.0,-1974.0,-3835.0,101.0,36.0,-35.0,1.0
2022-05-13 15:52:11.980785-07:00,1963.7,708.5,994.5,1209.7,820.2,1338.6,1614.3,1656.8,3444.3,3447.9,1837.2,1345.8,1430.5,3433.4,1024.5,1310.6,3428.6,3435.8,666.0,1398.5,967.1,516.3,1572.1,1627.5,3449.1,3449.1,766.2,1029.7,1158.6,1276.5,1118.2,1033.2,-11.0,-9.0,21.0,-9254.0,-12282.0,-4386.0,-3564.0,-133.0,62.0,69.0,-4.0,-1.0,13.0,10697.0,11641.0,-1966.0,-3826.0,-7.0,30.0,18.0,1.0
2022-05-13 15:52:12.026795-07:00,1954.8,708.5,995.3,1200.9,820.2,1338.6,1614.3,1656.8,3438.2,3449.1,1794.5,1340.4,1430.5,3433.4,1024.5,1310.6,3428.6,3435.8,666.0,1398.5,956.0,515.5,1572.1,1629.4,3449.1,3449.1,766.2,1029.7,1164.7,1282.8,1107.8,1026.3,-8.0,43.0,-3.0,-9251.0,-12280.0,-4378.0,-3591.0,71.0,-3.0,5.0,-3.0,19.0,3.0,10693.0,11650.0,-1962.0,-3812.0,53.0,36.0,-7.0,1.0
2022-05-13 15:52:12.073296-07:00,1954.8,708.5,995.3,1200.9,821.0,1348.5,1539.4,1586.1,3438.2,3449.1,1794.5,1340.4,1423.1,3440.7,1018.5,1296.3,3438.2,3441.9,668.4,1374.8,956.0,515.5,1572.1,1629.4,3446.7,3443.1,776.9,1023.7,1164.7,1282.8,1107.8,1026.3,5.0,13.0,31.0,-9264.0,-12255.0,-4406.0,-3608.0,-263.0,170.0,-46.0,-8.0,18.0,3.0,10688.0,11660.0,-1946.0,-3801.0,-75.0,47.0,3.0,1.0
2022-05-13 15:52:12.207202-07:00,1961.8,717.5,992.7,1211.5,821.0,1348.5,1539.4,1560.9,3447.9,3447.9,1771.4,1331.4,1423.1,3440.7,1018.5,1303.4,3439.5,3441.9,668.4,1374.8,950.0,521.0,1577.7,1629.4,3435.8,3443.1,776.9,1023.7,1153.3,1282.8,1119.1,1032.3,-32.0,-17.0,-20.0,-9337.0,-12165.0,-4410.0,-3720.0,-163.0,104.0,99.0,0.0,-38.0,24.0,10727.0,11631.0,-1934.0,-3787.0,-34.0,47.0,33.0,1.0
2022-05-13 15:52:12.208739-07:00,1975.6,717.5,992.7,1211.5,814.4,1340.4,1513.4,1560.9,3451.6,3447.9,1771.4,1331.4,1416.7,3438.2,1012.5,1303.4,3439.5,3431.0,672.5,1371.2,950.0,521.0,1577.7,1623.7,3435.8,3443.1,794.4,1027.1,1153.3,1282.8,1119.1,1024.5,7.0,25.0,-25.0,-9297.0,-12206.0,-4413.0,-3681.0,253.0,-104.0,-96.0,-8.0,20.0,-26.0,10699.0,11661.0,-1929.0,-3776.0,115.0,14.0,-44.0,1.0
2022-05-13 15:52:12.251792-07:00,1975.6,724.9,985.0,1206.2,814.4,1340.4,1513.4,1548.7,3451.6,3445.5,1761.8,1332.3,1416.7,3438.2,1012.5,1299.0,3438.2,3431.0,672.5,1371.2,951.7,518.7,1581.4,1623.7,3444.3,3443.1,794.4,1027.1,1146.3,1276.5,1111.2,1024.5,-20.0,-51.0,22.0,-9299.0,-12199.0,-4429.0,-3676.0,-142.0,72.0,48.0,-4.0,-24.0,8.0,10702.0,11656.0,-1931.0,-3784.0,-83.0,-28.0,35.0,1.0
2022-05-13 15:52:12.297629-07:00,1966.7,724.9,985.0,1206.2,824.4,1330.5,1499.5,1548.7,3440.7,3445.5,1761.8,1332.3,1421.3,3449.1,1008.2,1299.0,3438.2,3439.5,666.8,1375.7,951.7,518.7,1581.4,1620.9,3444.3,3440.7,788.6,1021.9,1146.3,1276.5,1111.2,1022.8,0.0,45.0,-3.0,-9294.0,-12210.0,-4393.0,-3697.0,85.0,-70.0,48.0,-2.0,6.0,4.0,10702.0,11653.0,-1947.0,-3783.0,53.0,-18.0,2.0,1.0
2022-05-13 15:52:12.342710-07:00,1966.7,709.3,995.3,1203.5,824.4,1330.5,1499.5,1540.3,3440.7,3443.1,1758.9,1325.9,1421.3,3449.1,1008.2,1288.2,3438.2,3439.5,666.8,1375.7,950.0,519.5,1572.1,1620.9,3437.0,3440.7,788.6,1021.9,1155.9,1277.4,1113.9,1022.8,4.0,-9.0,24.0,-9284.0,-12224.0,-4405.0,-3661.0,-2.0,-13.0,-64.0,1.0,2.0,7.0,10694.0,11659.0,-1943.0,-3789.0,-15.0,-6.0,-16.0,1.0
2022-05-13 15:52:12.387691-07:00,1959.8,713.4,995.3,1203.5,820.2,1327.8,1485.6,1540.3,3449.1,3437.0,1758.9,1325.9,1415.8,3443.1,1000.5,1288.2,3438.2,3437.0,668.4,1369.4,950.0,519.5,1562.7,1622.8,3437.0,3444.3,785.2,1022.8,1155.9,1277.4,1119.1,1018.5,-8.0,-1.0,2.0,-9292.0,-12214.0,-4401.0,-3679.0,5.0,10.0,59.0,-4.0,0.0,16.0,10702.0,11652.0,-1945.0,-3787.0,13.0,4.0,15.0,1.0
2022-05-13 15:52:12.432301-07:00,1959.8,713.4,991.9,1200.0,820.2,1327.8,1473.6,1532.9,3449.1,3437.0,1749.3,1324.1,1415.8,3443.1,1006.5,1295.4,3433.4,3441.9,668.4,1369.4,945.8,521.8,1562.7,1622.8,3443.1,3446.7,785.2,1022.8,1158.6,1281.9,1119.1,1018.5,-5.0,11.0,-4.0,-9284.0,-12228.0,-4394.0,-3662.0,44.0,-54.0,-41.0,-7.0,7.0,-7.0,10695.0,11659.0,-1946.0,-3788.0,17.0,-3.0,-18.0,1.0
2022-05-13 15:52:12.612668-07:00,1959.8,707.7,991.9,1200.0,826.9,1322.3,1473.6,1532.9,3432.2,3441.9,1749.3,1324.1,1403.0,3441.9,1006.5,1295.4,3433.4,3441.9,665.2,1370.3,945.8,521.8,1561.8,1619.9,3443.1,3446.7,777.8,1015.1,1158.6,1281.9,1115.6,1016.8,-7.0,-5.0,17.0,-9285.0,-12231.0,-4390.0,-3655.0,-40.0,21.0,38.0,-7.0,-4.0,1.0,10695.0,11658.0,-1947.0,-3789.0,-19.0,-8.0,17.0,1.0
2022-05-13 15:52:12.614008-07:00,1959.8,707.7,994.5,1209.7,826.9,1322.3,1472.7,1531.0,3432.2,3441.9,1742.6,1327.8,1403.0,3441.9,1004.8,1303.4,3429.8,3434.6,665.2,1370.3,947.5,521.8,1561.8,1619.9,3437.0,3441.9,777.8,1015.1,1153.3,1281.9,1115.6,1016.8,-4.0,18.0,5.0,-9292.0,-12224.0,-4384.0,-3666.0,17.0,-5.0,-11.0,-2.0,7.0,8.0,10698.0,11655.0,-1948.0,-3788.0,13.0,0.0,-8.0,1.0
2022-05-13 15:52:12.615214-07:00,1954.8,705.2,994.5,1209.7,816.0,1317.8,1472.7,1531.0,3435.8,3440.7,1742.6,1327.8,1406.7,3449.1,1004.8,1303.4,3429.8,3434.6,668.4,1364.8,947.5,521.8,1549.7,1611.5,3437.0,3441.9,773.6,1018.5,1153.3,1281.9,1109.5,1023.7,-5.0,-6.0,12.0,-9285.0,-12228.0,-4395.0,-3658.0,8.0,25.0,-9.0,-2.0,1.0,4.0,10694.0,11658.0,-1948.0,-3789.0,-2.0,5.0,3.0,1.0
2022-05-13 15:52:12.657752-07:00,1954.8,705.2,986.7,1210.6,816.0,1319.6,1458.0,1519.9,3435.8,3440.7,1741.6,1313.3,1406.7,3441.9,1001.3,1291.8,3439.5,3431.0,668.4,1364.8,946.6,516.3,1549.7,1611.5,3437.0,3439.5,774.5,1018.5,1155.0,1276.5,1109.5,1023.7,-6.0,14.0,-2.0,-9285.0,-12220.0,-4405.0,-3674.0,-14.0,38.0,-11.0,-2.0,5.0,11.0,10696.0,11657.0,-1947.0,-3788.0,-3.0,8.0,-3.0,1.0
2022-05-13 15:52:12.702504-07:00,1958.8,703.6,988.5,1210.6,825.2,1319.6,1458.0,1519.9,3441.9,3439.5,1733.9,1313.3,1405.8,3441.9,1001.3,1291.8,3439.5,3431.0,668.4,1358.5,946.6,517.1,1550.6,1619.0,3437.0,3439.5,774.5,1010.8,1155.0,1277.4,1109.5,1014.2,-1.0,-1.0,8.0,-9278.0,-12222.0,-4421.0,-3666.0,48.0,24.0,-45.0,-3.0,4.0,-2.0,10689.0,11665.0,-1941.0,-3787.0,19.0,9.0,-13.0,1.0
2022-05-13 15:52:12.747219-07:00,1958.8,703.6,988.5,1206.2,825.2,1317.8,1461.7,1511.5,3441.9,3439.5,1733.9,1324.1,1405.8,3443.1,998.7,1299.0,3439.5,3439.5,667.6,1358.5,953.4,517.1,1550.6,1619.0,3445.5,3440.7,775.3,1010.8,1161.2,1277.4,1109.5,1014.2,-3.0,-4.0,2.0,-9277.0,-12214.0,-4436.0,-3677.0,-44.0,42.0,30.0,-1.0,-10.0,6.0,10696.0,11659.0,-1941.0,-3786.0,-23.0,0.0,14.0,1.0
2022-05-13 15:52:12.792746-07:00,1943.0,701.1,985.9,1206.2,817.7,1317.8,1461.7,1511.5,3443.1,3435.8,1732.0,1324.1,1406.7,3443.1,998.7,1299.0,3439.5,3439.5,667.6,1370.3,953.4,515.5,1543.1,1625.6,3445.5,3440.7,775.3,1013.3,1161.2,1281.9,1107.8,1019.4,-3.0,13.0,0.0,-9274.0,-12214.0,-4437.0,-3684.0,26.0,-14.0,-28.0,-4.0,1.0,2.0,10692.0,11663.0,-1942.0,-3786.0,7.0,-3.0,-12.0,1.0
2022-05-13 15:52:12.837522-07:00,1943.0,701.1,985.9,1204.4,817.7,1304.3,1452.5,1511.5,3443.1,3435.8,1732.0,1317.8,1406.7,3438.2,995.3,1300.7,3433.4,3439.5,670.1,1370.3,945.8,515.5,1543.1,1625.6,3447.9,3444.3,771.1,1013.3,1156.8,1281.9,1107.8,1019.4,-3.0,-2.0,9.0,-9275.0,-12215.0,-4438.0,-3675.0,-9.0,-4.0,22.0,-4.0,-3.0,2.0,10692.0,11663.0,-1942.0,-3786.0,0.0,-6.0,13.0,1.0
2022-05-13 15:52:12.882327-07:00,1960.8,690.5,987.6,1204.4,821.0,1304.3,1452.5,1511.5,3439.5,3444.3,1721.5,1317.8,1404.0,3438.2,995.3,1300.7,3433.4,3439.5,670.1,1363.0,945.8,521.0,1540.3,1619.0,3447.9,3444.3,771.1,1009.9,1156.8,1272.1,1109.5,1019.4,-7.0,16.0,1.0,-9277.0,-12215.0,-4431.0,-3679.0,9.0,-24.0,-15.0,-3.0,4.0,9.0,10693.0,11661.0,-1943.0,-3785.0,4.0,-4.0,-6.0,1.0
2022-05-13 15:52:12.928256-07:00,1960.8,690.5,987.6,1202.7,821.9,1302.5,1454.3,1508.8,3439.5,3444.3,1721.5,1325.9,1404.9,3449.1,997.9,1300.7,3432.2,3433.4,670.1,1363.0,939.0,521.0,1540.3,1619.0,3441.9,3443.1,770.3,1010.8,1158.6,1272.1,1109.5,1019.4,-7.0,-11.0,10.0,-9276.0,-12219.0,-4434.0,-3663.0,23.0,-11.0,-3.0,-6.0,-1.0,3.0,10693.0,11661.0,-1943.0,-3787.0,7.0,-10.0,-1.0,1.0
2022-05-13 15:52:13.016693-07:00,1947.9,695.4,995.3,1204.4,821.9,1302.5,1454.3,1508.8,3447.9,3438.2,1715.8,1317.8,1404.9,3449.1,997.9,1300.7,3432.2,3433.4,670.1,1363.0,953.4,515.5,1538.5,1620.9,3441.9,3443.1,770.3,1010.8,1162.1,1269.4,1105.1,1015.1,-5.0,8.0,2.0,-9272.0,-12224.0,-4427.0,-3664.0,-4.0,-14.0,27.0,-3.0,5.0,3.0,10693.0,11661.0,-1943.0,-3787.0,-3.0,0.0,6.0,1.0
2022-05-13 15:52:13.061245-07:00,1947.9,695.4,995.3,1204.4,816.0,1314.2,1446.0,1507.8,3447.9,3438.2,1715.8,1317.8,1398.5,3449.1,998.7,1299.8,3434.6,3433.4,661.9,1363.0,953.4,515.5,1538.5,1620.9,3449.1,3434.6,773.6,1008.2,1162.1,1269.4,1105.1,1015.1,-4.0,5.0,5.0,-9273.0,-12227.0,-4420.0,-3663.0,2.0,3.0,-4.0,-3.0,0.0,4.0,10693.0,11661.0,-1943.0,-3787.0,-1.0,-2.0,1.0,1.0
2022-05-13 15:52:13.106554-07:00,1937.1,695.4,986.7,1204.4,816.0,1314.2,1446.0,1507.8,3423.7,3445.5,1717.7,1319.6,1398.5,3449.1,998.7,1299.8,3434.6,3433.4,661.9,1363.0,948.3,517.9,1537.6,1621.8,3449.1,3434.6,773.6,1008.2,1151.5,1276.5,1106.9,1015.9,-6.0,-2.0,5.0,-9275.0,-12225.0,-4420.0,-3663.0,-5.0,1.0,5.0,-5.0,-5.0,4.0,10693.0,11661.0,-1943.0,-3787.0,-2.0,-4.0,4.0,1.0
2022-05-13 15:52:13.196146-07:00,1937.1,695.4,986.7,1204.4,810.2,1309.7,1432.3,1506.9,3423.7,3445.5,1717.7,1319.6,1399.4,3438.2,1002.2,1298.1,3437.0,3434.6,662.7,1362.1,948.3,517.9,1537.6,1621.8,3449.1,3428.6,770.3,1008.2,1151.5,1276.5,1106.9,1015.9,-4.0,4.0,11.0,-9276.0,-12224.0,-4420.0,-3663.0,-14.0,19.0,-10.0,-2.0,4.0,4.0,10694.0,11660.0,-1943.0,-3787.0,-15.0,3.0,2.0,1.0
2022-05-13 15:52:13.287104-07:00,1935.1,689.7,994.5,1207.1,810.2,1309.7,1432.3,1511.5,3437.0,3440.7,1711.0,1315.1,1399.4,3438.2,1002.2,1302.5,3444.3,3434.6,662.7,1362.1,945.8,519.5,1536.6,1621.8,3446.7,3428.6,770.3,1008.2,1159.4,1278.3,1109.5,1015.9,-6.0,1.0,4.0,-9281.0,-12217.0,-4423.0,-3672.0,-11.0,20.0,15.0,-6.0,-3.0,4.0,10696.0,11658.0,-1942.0,-3787.0,1.0,4.0,8.0,1.0
2022-05-13 15:52:13.288867-07:00,1939.0,689.7,994.5,1207.1,811.0,1301.6,1446.0,1511.5,3439.5,3440.7,1711.0,1315.1,1394.8,3445.5,999.6,1302.5,3444.3,3434.6,666.8,1363.9,945.8,519.5,1536.6,1619.9,3446.7,3451.6,767.8,1006.5,1159.4,1278.3,1109.5,1015.1,-2.0,1.0,6.0,-9279.0,-12216.0,-4421.0,-3682.0,-17.0,23.0,18.0,-6.0,2.0,2.0,10696.0,11658.0,-1942.0,-3787.0,-8.0,1.0,7.0,1.0
2022-05-13 15:52:13.332774-07:00,1939.0,696.2,986.7,1208.9,811.0,1301.6,1446.0,1499.5,3439.5,3441.9,1711.9,1319.6,1394.8,3445.5,999.6,1297.2,3440.7,3434.6,666.8,1363.9,947.5,525.0,1528.3,1619.9,3449.1,3451.6,767.8,1006.5,1156.8,1281.9,1114.7,1015.1,-4.0,0.0,-5.0,-9278.0,-12213.0,-4425.0,-3691.0,10.0,20.0,-2.0,-2.0,-6.0,5.0,10697.0,11658.0,-1942.0,-3788.0,3.0,2.0,1.0,1.0
2022-05-13 15:52:13.334005-07:00,1945.9,696.2,986.7,1208.9,822.7,1302.5,1446.0,1499.5,3447.9,3441.9,1711.9,1319.6,1398.5,3441.9,996.2,1297.2,3440.7,3434.6,665.2,1359.4,947.5,525.0,1528.3,1619.9,3449.1,3439.5,772.0,998.7,1156.8,1281.9,1114.7,1013.3,-2.0,-1.0,8.0,-9278.0,-12214.0,-4424.0,-3688.0,-10.0,-12.0,-4.0,-4.0,0.0,3.0,10695.0,11659.0,-1943.0,-3788.0,-4.0,-6.0,0.0,1.0
2022-05-13 15:52:13.422775-07:00,1945.9,695.4,997.9,1208.9,822.7,1302.5,1446.0,1497.7,3447.9,3437.0,1721.5,1316.9,1398.5,3441.9,996.2,1291.8,3426.2,3434.6,665.2,1359.4,947.5,525.0,1531.0,1619.9,3444.3,3439.5,772.0,998.7,1153.3,1284.6,1111.2,1013.3,-2.0,14.0,7.0,-9282.0,-12211.0,-4420.0,-3691.0,-14.0,-2.0,11.0,2.0,2.0,3.0,10697.0,11657.0,-1942.0,-3788.0,-6.0,-1.0,2.0,1.0
2022-05-13 15:52:13.423995-07:00,1935.1,688.9,997.9,1208.9,827.7,1302.5,1454.3,1497.7,3434.6,3438.2,1721.5,1316.9,1397.6,3433.4,991.0,1291.8,3426.2,3428.6,667.6,1358.5,947.5,525.0,1529.2,1616.2,3444.3,3443.1,772.8,1019.4,1153.3,1284.6,1111.2,1010.8,1.0,-2.0,9.0,-9283.0,-12210.0,-4424.0,-3690.0,15.0,-2.0,-11.0,0.0,4.0,-2.0,10697.0,11657.0,-1942.0,-3788.0,8.0,6.0,-1.0,1.0
2022-05-13 15:52:13.512703-07:00,1935.1,688.9,986.7,1208.9,827.7,1302.5,1444.2,1503.2,3434.6,3438.2,1711.9,1316.9,1397.6,3433.4,996.2,1288.2,3428.6,3433.4,667.6,1358.5,946.6,525.0,1529.2,1616.2,3440.7,3440.7,772.8,1019.4,1161.2,1281.9,1111.2,1010.8,-5.0,9.0,0.0,-9282.0,-12207.0,-4426.0,-3699.0,-20.0,22.0,21.0,-3.0,7.0,4.0,10698.0,11657.0,-1944.0,-3786.0,-7.0,-2.0,12.0,1.0
2022-05-13 15:52:13.557631-07:00,1959.8,692.9,986.7,1208.9,820.2,1305.2,1444.2,1503.2,3432.2,3449.1,1711.9,1316.9,1399.4,3444.3,996.2,1288.2,3428.6,3433.4,668.4,1356.7,946.6,525.0,1532.0,1620.9,3440.7,3440.7,764.5,1008.2,1161.2,1281.9,1115.6,1005.6,-2.0,1.0,1.0,-9287.0,-12203.0,-4421.0,-3705.0,-14.0,-13.0,-6.0,0.0,2.0,1.0,10701.0,11654.0,-1944.0,-3785.0,-13.0,-4.0,-2.0,1.0
2022-05-13 15:52:13.602561-07:00,1959.8,692.9,990.2,1201.8,820.2,1305.2,1437.8,1504.1,3432.2,3449.1,1711.0,1314.2,1399.4,3444.3,998.7,1286.4,3439.5,3435.8,668.4,1356.7,943.2,517.9,1532.0,1620.9,3441.9,3449.1,764.5,1008.2,1153.3,1277.4,1115.6,1005.6,-6.0,-2.0,8.0,-9294.0,-12199.0,-4416.0,-3707.0,-33.0,8.0,24.0,-6.0,1.0,7.0,10705.0,11650.0,-1945.0,-3785.0,-22.0,-17.0,17.0,1.0
2022-05-13 15:52:13.647275-07:00,1940.0,686.4,990.2,1201.8,817.7,1305.2,1437.8,1504.1,3434.6,3443.1,1711.0,1314.2,1395.7,3443.1,998.7,1286.4,3439.5,3435.8,668.4,1358.5,943.2,517.9,1521.8,1617.1,3441.9,3449.1,765.3,1002.2,1153.3,1277.4,1110.4,1016.8,-8.0,19.0,0.0,-9304.0,-12189.0,-4404.0,-3730.0,-49.0,17.0,23.0,-4.0,6.0,12.0,10713.0,11641.0,-1951.0,-3786.0,-10.0,-5.0,3.0,1.0
2022-05-13 15:52:13.690125-07:00,1940.0,686.4,990.2,1206.2,817.7,1297.2,1443.3,1502.3,3434.6,3443.1,1717.7,1314.2,1395.7,3446.7,998.7,1288.2,3439.5,3444.3,666.8,1358.5,944.9,521.0,1521.8,1617.1,3441.9,3437.0,762.9,1002.2,1157.7,1282.8,1110.4,1016.8,-4.0,-1.0,10.0,-9301.0,-12192.0,-4406.0,-3723.0,31.0,-5.0,-18.0,-1.0,3.0,5.0,10710.0,11644.0,-1952.0,-3785.0,9.0,1.0,-5.0,1.0
2022-05-13 15:52:13.781549-07:00,1936.1,685.6,996.2,1206.2,816.0,1297.2,1443.3,1502.3,3445.5,3445.5,1710.0,1314.2,1393.9,3446.7,998.7,1288.2,3439.5,3444.3,666.8,1353.1,944.9,511.5,1520.8,1621.8,3441.9,3437.0,762.9,1000.5,1157.7,1282.8,1107.8,1011.6,-1.0,7.0,0.0,-9300.0,-12190.0,-4408.0,-3729.0,-3.0,20.0,13.0,0.0,3.0,0.0,10710.0,11644.0,-1952.0,-3785.0,6.0,3.0,4.0,1.0
2022-05-13 15:52:13.783323-07:00,1936.1,685.6,996.2,1207.1,816.0,1297.2,1446.0,1508.8,3445.5,3445.5,1710.0,1313.3,1393.9,3444.3,993.6,1296.3,3434.6,3421.3,666.0,1353.1,944.9,511.5,1520.8,1621.8,3447.9,3435.8,765.3,1000.5,1153.3,1282.8,1107.8,1011.6,-3.0,-6.0,6.0,-9299.0,-12190.0,-4413.0,-3726.0,8.0,-15.0,-21.0,-3.0,1.0,9.0,10709.0,11645.0,-1953.0,-3785.0,3.0,-2.0,-6.0,1.0
2022-05-13 15:52:13.871938-07:00,1934.1,695.4,986.7,1207.1,825.2,1297.2,1446.0,1508.8,3443.1,3439.5,1702.4,1313.3,1401.2,3444.3,993.6,1296.3,3434.6,3421.3,666.0,1355.8,944.9,521.8,1519.0,1611.5,3447.9,3435.8,765.3,1003.0,1153.3,1270.3,1127.0,1008.2,-6.0,11.0,4.0,-9300.0,-12191.0,-4410.0,-3725.0,-1.0,7.0,16.0,-2.0,3.0,4.0,10709.0,11645.0,-1953.0,-3785.0,-1.0,-3.0,8.0,1.0
2022-05-13 15:52:13.873135-07:00,1934.1,695.4,986.7,1206.2,825.2,1293.6,1440.5,1495.8,3443.1,3439.5,1702.4,1316.0,1401.2,3446.7,995.3,1297.2,3447.9,3443.1,662.7,1355.8,944.9,521.8,1519.0,1611.5,3458.9,3443.1,764.5,1003.0,1157.7,1270.3,1127.0,1008.2,-9.0,6.0,2.0,-9300.0,-12189.0,-4412.0,-3729.0,16.0,-3.0,-15.0,-6.0,8.0,9.0,10709.0,11645.0,-1953.0,-3785.0,14.0,3.0,-8.0,1.0
2022-05-13 15:52:13.918095-07:00,1927.2,682.3,987.6,1206.2,820.2,1293.6,1440.5,1495.8,3443.1,3434.6,1706.2,1316.0,1400.3,3446.7,995.3,1297.2,3447.9,3443.1,662.7,1356.7,944.9,514.7,1511.5,1621.8,3458.9,3443.1,764.5,1007.3,1157.7,1277.4,1106.9,1010.8,-5.0,0.0,11.0,-9294.0,-12195.0,-4416.0,-3721.0,10.0,9.0,-4.0,-5.0,6.0,5.0,10704.0,11650.0,-1954.0,-3784.0,-5.0,3.0,3.0,1.0
2022-05-13 15:52:14.052391-07:00,1927.2,682.3,987.6,1201.8,813.5,1304.3,1430.5,1500.4,3443.1,3434.6,1706.2,1307.9,1387.5,3440.7,990.2,1294.5,3438.2,3439.5,666.8,1358.5,939.0,514.7,1511.5,1621.8,3444.3,3438.2,765.3,1005.6,1155.0,1277.4,1106.9,1010.8,-6.0,1.0,-3.0,-9297.0,-12189.0,-4416.0,-3733.0,-5.0,11.0,12.0,-1.0,-3.0,5.0,10706.0,11648.0,-1954.0,-3785.0,11.0,7.0,2.0,1.0
2022-05-13 15:52:14.053637-07:00,1925.2,687.2,994.5,1207.1,813.5,1304.3,1430.5,1500.4,3445.5,3438.2,1711.0,1302.5,1387.5,3440.7,990.2,1294.5,3438.2,3439.5,666.8,1358.5,942.4,514.7,1513.4,1617.1,3444.3,3438.2,765.3,1005.6,1161.2,1281.9,1111.2,1015.9,-4.0,-1.0,9.0,-9292.0,-12194.0,-4415.0,-3727.0,6.0,-13.0,6.0,-5.0,5.0,2.0,10702.0,11651.0,-1955.0,-3784.0,-4.0,-8.0,3.0,1.0
2022-05-13 15:52:14.097720-07:00,1925.2,687.2,994.5,1207.1,814.4,1296.3,1437.8,1492.1,3445.5,3438.2,1711.0,1302.5,1392.1,3438.2,986.7,1293.6,3449.1,3438.2,668.4,1350.3,942.4,514.7,1513.4,1617.1,3455.2,3445.5,751.3,1001.3,1161.2,1281.9,1111.2,1015.9,-3.0,22.0,0.0,-9294.0,-12189.0,-4410.0,-3744.0,-5.0,25.0,12.0,-3.0,3.0,12.0,10705.0,11648.0,-1958.0,-3784.0,4.0,6.0,3.0,1.0
2022-05-13 15:52:14.143015-07:00,1937.1,683.1,993.6,1201.8,814.4,1296.3,1437.8,1492.1,3433.4,3444.3,1701.4,1309.7,1392.1,3438.2,986.7,1293.6,3449.1,3438.2,668.4,1350.3,942.4,516.3,1514.3,1623.7,3455.2,3445.5,751.3,1001.3,1156.8,1273.9,1108.6,1009.9,-1.0,0.0,3.0,-9288.0,-12195.0,-4419.0,-3731.0,27.0,-15.0,-36.0,-4.0,4.0,4.0,10700.0,11653.0,-1956.0,-3786.0,17.0,7.0,-17.0,1.0
2022-05-13 15:52:14.232434-07:00,1937.1,683.1,993.6,1201.8,824.4,1303.4,1442.4,1498.6,3433.4,3444.3,1701.4,1309.7,1387.5,3441.9,992.7,1303.4,3449.1,3440.7,663.6,1351.2,942.4,516.3,1514.3,1623.7,3441.9,3440.7,757.1,1002.2,1156.8,1273.9,1108.6,1009.9,-5.0,-2.0,12.0,-9288.0,-12194.0,-4416.0,-3738.0,-29.0,28.0,35.0,-5.0,4.0,4.0,10699.0,11653.0,-1955.0,-3787.0,-11.0,1.0,16.0,1.0
2022-05-13 15:52:14.234155-07:00,1935.1,684.0,988.5,1211.5,824.4,1303.4,1442.4,1500.4,3435.8,3444.3,1695.7,1311.5,1387.5,3441.9,992.7,1299.8,3437.0,3440.7,663.6,1351.2,942.4,517.1,1514.3,1623.7,3451.6,3440.7,757.1,1002.2,1162.1,1272.1,1108.6,1010.8,-6.0,14.0,-1.0,-9289.0,-12193.0,-4417.0,-3738.0,35.0,-20.0,-26.0,-1.0,1.0,6.0,10701.0,11651.0,-1956.0,-3786.0,20.0,3.0,-12.0,1.0
2022-05-13 15:52:14.276713-07:00,1936.1,684.0,988.5,1211.5,816.9,1290.9,1436.0,1500.4,3443.1,3444.3,1695.7,1311.5,1389.4,3444.3,994.5,1299.8,3437.0,3443.1,669.3,1361.2,942.4,517.1,1514.3,1619.9,3451.6,3449.1,756.3,1000.5,1162.1,1272.1,1108.6,1005.6,-6.0,-6.0,12.0,-9286.0,-12195.0,-4420.0,-3733.0,-31.0,13.0,22.0,-3.0,3.0,7.0,10696.0,11656.0,-1955.0,-3787.0,-18.0,-6.0,9.0,1.0
2022-05-13 15:52:14.368590-07:00,1936.1,682.3,990.2,1211.5,816.9,1290.9,1436.0,1495.8,3443.1,3445.5,1702.4,1306.1,1389.4,3444.3,994.5,1299.8,3441.9,3443.1,669.3,1361.2,948.3,518.7,1514.3,1619.9,3445.5,3449.1,756.3,1000.5,1153.3,1277.4,1112.1,1005.6,-8.0,6.0,1.0,-9291.0,-12188.0,-4411.0,-3758.0,-25.0,28.0,41.0,-5.0,5.0,8.0,10704.0,11650.0,-1957.0,-3785.0,-8.0,-9.0,13.0,1.0
2022-05-13 15:52:14.369797-07:00,1929.2,682.3,990.2,1211.5,818.5,1301.6,1436.0,1495.8,3449.1,3445.5,1702.4,1306.1,1393.0,3435.8,991.9,1299.8,3441.9,3440.7,664.4,1357.6,948.3,518.7,1514.3,1619.9,3445.5,3439.5,762.0,1001.3,1153.3,1277.4,1112.1,1007.3,-2.0,5.0,2.0,-9292.0,-12184.0,-4408.0,-3773.0,-14.0,24.0,7.0,0.0,-6.0,1.0,10705.0,11649.0,-1958.0,-3783.0,-3.0,2.0,3.0,1.0
2022-05-13 15:52:14.502856-07:00,1929.2,686.4,985.0,1205.3,818.5,1301.6,1436.0,1509.7,3449.1,3441.9,1699.5,1313.3,1393.0,3435.8,991.9,1294.5,3441.9,3440.7,664.4,1357.6,937.3,522.6,1515.3,1619.9,3447.9,3439.5,762.0,1001.3,1156.8,1278.3,1112.1,1007.3,-4.0,5.0,5.0,-9284.0,-12188.0,-4412.0,-3773.0,22.0,7.0,-1.0,-4.0,3.0,1.0,10702.0,11651.0,-1959.0,-3783.0,13.0,0.0,-3.0,1.0
2022-05-13 15:52:14.592123-07:00,1934.1,679.9,985.0,1205.3,812.7,1299.0,1448.8,1509.7,3438.2,3433.4,1699.5,1313.3,1383.9,3439.5,995.3,1294.5,3441.9,3428.6,666.0,1352.1,937.3,522.6,1506.9,1611.5,3447.9,3449.1,758.7,1000.5,1156.8,1278.3,1109.5,1010.8,-7.0,1.0,2.0,-9282.0,-12187.0,-4415.0,-3777.0,-2.0,8.0,6.0,-6.0,2.0,8.0,10702.0,11652.0,-1959.0,-3783.0,-8.0,-4.0,4.0,1.0
2022-05-13 15:52:14.593868-07:00,1934.1,679.9,992.7,1202.7,812.7,1299.0,1458.0,1518.0,3438.2,3433.4,1691.0,1316.0,1383.9,3439.5,1001.3,1307.0,3439.5,3437.0,666.0,1352.1,940.7,518.7,1506.9,1611.5,3445.5,3440.7,758.7,1000.5,1152.4,1281.0,1109.5,1010.8,-4.0,9.0,0.0,-9279.0,-12192.0,-4412.0,-3773.0,19.0,-23.0,-3.0,-1.0,8.0,6.0,10702.0,11651.0,-1960.0,-3783.0,2.0,-14.0,-4.0,1.0
2022-05-13 15:52:14.637906-07:00,1937.1,684.8,992.7,1202.7,823.5,1292.7,1458.0,1518.0,3443.1,3447.9,1691.0,1316.0,1394.8,3441.9,1001.3,1307.0,3439.5,3437.0,664.4,1347.6,940.7,518.7,1510.6,1621.8,3445.5,3440.7,761.2,997.9,1152.4,1281.0,1112.1,1016.8,-21.0,30.0,8.0,-9282.0,-12193.0,-4404.0,-3770.0,-35.0,-27.0,24.0,-14.0,32.0,19.0,10706.0,11645.0,-1964.0,-3791.0,-91.0,-53.0,-13.0,1.0
2022-05-13 15:52:14.639061-07:00,1937.1,684.8,986.7,1214.2,823.5,1292.7,1495.8,1546.9,3443.1,3447.9,1712.9,1322.3,1394.8,3441.9,989.3,1292.7,3439.5,3440.7,664.4,1347.6,939.0,517.9,1510.6,1621.8,3438.2,3440.7,761.2,997.9,1158.6,1273.9,1112.1,1016.8,-19.0,4.0,-11.0,-9399.0,-12119.0,-4349.0,-3783.0,-473.0,-151.0,-8.0,-3.0,-28.0,8.0,10772.0,11568.0,-1962.0,-3840.0,-369.0,-149.0,-33.0,1.0
2022-05-13 15:52:14.682711-07:00,1937.1,698.7,986.7,1214.2,822.7,1298.1,1495.8,1546.9,3449.1,3439.5,1712.9,1322.3,1391.2,3443.1,989.3,1292.7,3439.5,3440.7,658.7,1358.5,939.0,517.9,1522.7,1619.0,3438.2,3440.7,766.2,997.9,1158.6,1273.9,1107.8,997.9,-7.0,-76.0,4.0,-9534.0,-12070.0,-4234.0,-3731.0,-93.0,-319.0,94.0,-15.0,-25.0,-12.0,10853.0,11463.0,-1972.0,-3918.0,-114.0,-176.0,-5.0,1.0
2022-05-13 15:52:14.725906-07:00,1937.1,698.7,993.6,1202.7,822.7,1298.1,1733.9,1715.8,3449.1,3439.5,1981.6,1380.3,1391.2,3443.1,1000.5,1299.8,3435.8,3433.4,658.7,1358.5,950.9,518.7,1522.7,1619.0,3440.7,3444.3,766.2,997.9,1153.3,1285.5,1107.8,997.9,-4.0,16.0,28.0,-9554.0,-12095.0,-4130.0,-3716.0,-131.0,-115.0,138.0,10.0,-31.0,24.0,10875.0,11416.0,-2024.0,-3969.0,-125.0,-154.0,55.0,1.0
2022-05-13 15:52:14.771754-07:00,1965.7,692.9,986.7,1202.7,821.9,1306.1,1733.9,1715.8,3441.9,3441.9,2116.9,1380.3,1401.2,3443.1,1000.5,1299.8,3435.8,3433.4,668.4,1363.0,950.9,524.2,1514.3,1618.1,3440.7,3444.3,779.4,1003.0,1153.3,1277.4,1112.1,1007.3,-11.0,25.0,7.0,-9663.0,-12054.0,-4039.0,-3669.0,-250.0,-290.0,-7.0,-13.0,-7.0,27.0,10918.0,11350.0,-2054.0,-4024.0,-117.0,-159.0,-22.0,1.0
2022-05-13 15:52:14.816113-07:00,1965.7,692.9,986.7,1207.1,821.9,1329.6,1890.9,1798.4,3441.9,3441.9,2116.9,1423.1,1401.2,3446.7,1020.2,1310.6,3437.0,3433.4,670.1,1363.0,961.1,524.2,1514.3,1618.1,3446.7,3434.6,809.4,1003.0,1155.9,1277.4,1112.1,1007.3,7.0,-40.0,52.0,-9655.0,-12109.0,-3910.0,-3649.0,49.0,-99.0,355.0,5.0,-3.0,-14.0,10917.0,11329.0,-2103.0,-4059.0,-4.0,-121.0,135.0,1.0
2022-05-13 15:52:14.907632-07:00,1951.9,675.8,986.7,1207.1,820.2,1329.6,1890.9,1798.4,3439.5,3440.7,2207.5,1423.1,1411.3,3446.7,1020.2,1310.6,3437.0,3433.4,670.1,1383.0,961.1,524.2,1559.9,1619.0,3446.7,3434.6,809.4,1001.3,1155.9,1276.5,1109.5,1014.2,10.0,70.0,11.0,-9642.0,-12115.0,-3832.0,-3742.0,-36.0,105.0,142.0,-2.0,26.0,18.0,10938.0,11304.0,-2158.0,-4046.0,-35.0,-19.0,74.0,1.0
2022-05-13 15:52:14.952773-07:00,1951.9,675.8,986.7,1214.2,820.2,1354.9,1910.5,1790.7,3439.5,3440.7,2207.5,1465.4,1411.3,3441.9,1059.1,1313.3,3431.0,3435.8,668.4,1383.0,978.2,524.2,1559.9,1619.0,3443.1,3446.7,832.7,1001.3,1153.3,1276.5,1109.5,1014.2,-12.0,36.0,-7.0,-9535.0,-12195.0,-3882.0,-3705.0,480.0,-97.0,-94.0,3.0,28.0,17.0,10924.0,11317.0,-2173.0,-4039.0,122.0,-14.0,-38.0,1.0
2022-05-13 15:52:14.997678-07:00,2024.4,684.0,979.9,1214.2,821.0,1354.9,1910.5,1790.7,3443.1,3438.2,2207.5,1465.4,1425.9,3441.9,1059.1,1313.3,3431.0,3435.8,668.4,1412.2,978.2,524.2,1557.1,1620.9,3443.1,3446.7,832.7,1000.5,1153.3,1277.4,1097.3,1015.1,7.0,-39.0,52.0,-9437.0,-12252.0,-3962.0,-3685.0,214.0,258.0,-43.0,7.0,-10.0,-1.0,10906.0,11333.0,-2173.0,-4042.0,1.0,41.0,16.0,1.0
2022-05-13 15:52:15.088251-07:00,2024.4,684.0,979.9,1210.6,816.0,1381.2,1923.3,1803.2,3443.1,3438.2,2207.5,1471.8,1436.9,3444.3,1072.9,1314.2,3438.2,3435.8,660.3,1452.5,990.2,524.2,1557.1,1620.9,3441.9,3438.2,837.7,1009.0,1155.9,1277.4,1097.3,1015.1,7.0,31.0,57.0,-9280.0,-12292.0,-4113.0,-3783.0,461.0,514.0,-94.0,5.0,-16.0,25.0,10905.0,11346.0,-2165.0,-4012.0,79.0,125.0,-7.0,1.0
2022-05-13 15:52:15.090383-07:00,2003.5,679.9,981.6,1201.8,816.0,1381.2,1923.3,1803.2,3433.4,3444.3,2173.8,1447.0,1436.9,3444.3,1072.9,1314.2,3438.2,3435.8,660.3,1452.5,983.3,525.0,1554.3,1615.2,3441.9,3438.2,837.7,1009.0,1161.2,1274.7,1112.1,1008.2,-10.0,-16.0,3.0,-9099.0,-12355.0,-4307.0,-3803.0,495.0,290.0,-199.0,-10.0,8.0,8.0,10871.0,11398.0,-2125.0,-3979.0,101.0,116.0,-67.0,1.0
