Time,P0,P1,P2,P3,P4,P5,P6,P7,P8,P9,P10,P11,P12,P13,P14,P15,P16,P17,P18,P19,P20,P21,P22,P23,P24,P25,P26,P27,P28,P29,P30,P31,ECG,AX0,AY0,AZ0,QW0,QX0,QY0,QZ0,GX0,GY0,GZ0,AX1,AY1,AZ1,QW1,QX1,QY1,QZ1,GX1,GY1,GZ1
2022-05-13 15:35:18.982597-07:00,1961.8,605.2,1122.6,1288.2,892.4,1109.5,1549.7,1575.8,3446.7,3433.4,1555.3,1240.8,1217.7,3439.5,1024.5,1360.3,3439.5,3443.1,674.2,1279.2,883.1,532.2,1331.4,1580.5,3445.5,3441.9,706.9,946.6,1181.5,1329.6,1141.9,950.0,-3.0,-2.0,9.0,-7929.0,-8528.0,-9281.0,-6834.0,-10.0,9.0,7.0,8.0,-4.0,-2.0,10741.0,8896.0,6693.0,5398.0,-5.0,-6.0,6.0,1.0
2022-05-13 15:35:18.983603-07:00,1961.8,605.2,1122.6,1288.2,889.8,1112.1,1547.8,1566.5,3446.7,3433.4,1555.3,1240.8,1220.4,3434.6,1021.1,1353.1,3433.4,3438.2,662.7,1289.1,883.1,532.2,1331.4,1580.5,3444.3,3443.1,697.9,947.5,1181.5,1329.6,1141.9,950.0,-6.0,11.0,9.0,-7928.0,-8529.0,-9281.0,-6834.0,-3.0,5.0,-4.0,5.0,2.0,-6.0,10741.0,8896.0,6693.0,5398.0,0.0,2.0,-1.0,1.0
2022-05-13 15:35:19.071594-07:00,1957.8,601.2,1116.5,1296.3,889.8,1112.1,1547.8,1566.5,3438.2,3440.7,1559.0,1234.6,1220.4,3434.6,1021.1,1353.1,3433.4,3438.2,662.7,1289.1,883.9,529.0,1340.4,1573.9,3444.3,3443.1,697.9,947.5,1179.7,1322.3,1134.9,950.9,-12.0,6.0,5.0,-7926.0,-8531.0,-9283.0,-6832.0,19.0,3.0,-4.0,5.0,4.0,-11.0,10740.0,8897.0,6693.0,5398.0,6.0,2.0,-4.0,1.0
2022-05-13 15:35:19.073327-07:00,1957.8,601.2,1116.5,1296.3,887.3,1119.1,1536.6,1563.7,3438.2,3440.7,1559.0,1234.6,1216.8,3434.6,1023.7,1355.8,3432.2,3426.2,679.1,1287.3,883.9,529.0,1340.4,1573.9,3443.1,3443.1,696.2,942.4,1179.7,1322.3,1134.9,950.9,-8.0,-1.0,7.0,-7923.0,-8531.0,-9283.0,-6834.0,-5.0,7.0,13.0,6.0,-2.0,-6.0,10740.0,8897.0,6693.0,5398.0,-2.0,-5.0,4.0,1.0
2022-05-13 15:35:19.118394-07:00,1964.7,604.4,1127.9,1292.7,887.3,1119.1,1536.6,1561.8,3443.1,3437.0,1555.3,1239.1,1216.8,3434.6,1023.7,1354.9,3437.0,3426.2,679.1,1287.3,878.9,527.4,1343.1,1575.8,3440.7,3443.1,696.2,942.4,1176.2,1332.3,1147.1,950.9,-8.0,7.0,3.0,-7923.0,-8533.0,-9283.0,-6832.0,13.0,-13.0,-10.0,7.0,0.0,-11.0,10740.0,8897.0,6693.0,5398.0,3.0,-2.0,-7.0,1.0
2022-05-13 15:35:19.120326-07:00,1959.8,604.4,1127.9,1292.7,894.1,1112.1,1550.6,1561.8,3443.1,3437.0,1555.3,1239.1,1216.8,3443.1,1027.1,1354.9,3437.0,3435.8,673.3,1281.0,878.9,527.4,1343.1,1572.1,3440.7,3444.3,696.2,948.3,1176.2,1332.3,1147.1,950.0,-9.0,0.0,6.0,-7923.0,-8534.0,-9282.0,-6832.0,-4.0,4.0,11.0,7.0,-8.0,-7.0,10740.0,8897.0,6693.0,5398.0,-3.0,-9.0,3.0,1.0
2022-05-13 15:35:19.121163-07:00,1959.8,604.4,1123.5,1294.5,894.1,1112.1,1550.6,1567.4,3443.1,3444.3,1550.6,1231.0,1216.8,3443.1,1027.1,1354.0,3444.3,3435.8,673.3,1281.0,875.5,529.0,1337.7,1572.1,3440.7,3444.3,696.2,948.3,1175.3,1326.8,1138.4,950.0,-8.0,3.0,5.0,-7922.0,-8535.0,-9281.0,-6833.0,5.0,2.0,-1.0,5.0,2.0,-8.0,10740.0,8897.0,6693.0,5398.0,7.0,3.0,1.0,1.0
2022-05-13 15:35:19.121984-07:00,1963.7,604.4,1123.5,1294.5,884.8,1113.0,1546.9,1567.4,3439.5,3444.3,1550.6,1231.0,1221.3,3427.4,1021.1,1354.0,3444.3,3439.5,676.6,1280.1,875.5,529.0,1337.7,1576.8,3440.7,3438.2,706.0,946.6,1175.3,1326.8,1138.4,951.7,-11.0,7.0,7.0,-7922.0,-8535.0,-9282.0,-6833.0,6.0,3.0,-7.0,4.0,-1.0,-10.0,10740.0,8897.0,6693.0,5398.0,7.0,0.0,-6.0,1.0
2022-05-13 15:35:19.252944-07:00,1963.7,601.2,1122.6,1289.1,884.8,1113.0,1546.9,1572.1,3439.5,3441.9,1557.1,1237.3,1221.3,3427.4,1021.1,1349.4,3432.2,3439.5,676.6,1280.1,882.3,531.4,1342.2,1576.8,3438.2,3438.2,706.0,946.6,1175.3,1327.8,1139.2,951.7,-5.0,-5.0,4.0,-7921.0,-8534.0,-9283.0,-6834.0,5.0,8.0,8.0,11.0,0.0,-11.0,10739.0,8898.0,6693.0,5397.0,5.0,-3.0,4.0,1.0
2022-05-13 15:35:19.343219-07:00,1961.8,608.4,1122.6,1289.1,894.9,1121.7,1548.7,1572.1,3449.1,3441.9,1557.1,1237.3,1219.5,3428.6,1022.8,1349.4,3432.2,3440.7,675.0,1282.8,882.3,531.4,1337.7,1574.9,3438.2,3446.7,710.1,943.2,1175.3,1327.8,1138.4,949.2,-5.0,9.0,4.0,-7920.0,-8534.0,-9283.0,-6834.0,-8.0,-5.0,-3.0,8.0,1.0,-12.0,10739.0,8899.0,6693.0,5396.0,-10.0,-5.0,5.0,1.0
2022-05-13 15:35:19.344465-07:00,1961.8,608.4,1122.6,1291.8,894.9,1121.7,1542.2,1568.3,3449.1,3441.9,1554.3,1237.3,1219.5,3428.6,1025.4,1354.9,3433.4,3443.1,675.0,1282.8,885.6,536.2,1337.7,1574.9,3437.0,3450.4,710.1,943.2,1180.6,1330.5,1138.4,949.2,-8.0,3.0,8.0,-7921.0,-8533.0,-9281.0,-6838.0,16.0,3.0,6.0,7.0,-1.0,-3.0,10741.0,8897.0,6692.0,5398.0,17.0,3.0,-2.0,1.0
2022-05-13 15:35:19.345492-07:00,1969.7,600.4,1122.6,1291.8,883.1,1121.7,1542.2,1568.3,3449.1,3428.6,1554.3,1237.3,1216.8,3444.3,1025.4,1354.9,3433.4,3443.1,678.2,1287.3,885.6,536.2,1339.5,1578.6,3437.0,3450.4,698.7,949.2,1180.6,1330.5,1141.9,940.7,-16.0,0.0,9.0,-7919.0,-8533.0,-9283.0,-6836.0,-8.0,17.0,-8.0,0.0,-1.0,-5.0,10739.0,8898.0,6693.0,5397.0,3.0,7.0,-4.0,1.0
2022-05-13 15:35:19.568025-07:00,1969.7,600.4,1127.0,1295.4,883.1,1121.7,1552.5,1573.9,3449.1,3428.6,1555.3,1239.9,1216.8,3444.3,1028.0,1356.7,3441.9,3440.7,678.2,1287.3,883.1,532.2,1339.5,1578.6,3443.1,3441.9,698.7,949.2,1172.6,1328.7,1141.9,940.7,-8.0,7.0,7.0,-7912.0,-8532.0,-9289.0,-6837.0,6.0,23.0,1.0,8.0,7.0,-9.0,10735.0,8900.0,6697.0,5397.0,1.0,9.0,2.0,1.0
2022-05-13 15:35:19.569170-07:00,1967.7,606.0,1127.0,1295.4,894.9,1107.8,1552.5,1573.9,3444.3,3439.5,1555.3,1239.9,1219.5,3445.5,1028.0,1356.7,3441.9,3440.7,674.2,1283.7,883.1,532.2,1333.2,1574.9,3443.1,3441.9,699.5,950.0,1172.6,1328.7,1143.6,946.6,-4.0,0.0,0.0,-7906.0,-8528.0,-9294.0,-6843.0,16.0,15.0,9.0,8.0,-2.0,-11.0,10734.0,8900.0,6698.0,5397.0,18.0,5.0,0.0,1.0
2022-05-13 15:35:19.615313-07:00,1967.7,606.0,1121.7,1285.5,894.9,1115.6,1545.9,1566.5,3444.3,3439.5,1553.4,1239.1,1219.5,3438.2,1015.9,1355.8,3432.2,3434.6,675.8,1283.7,880.6,532.2,1333.2,1574.9,3438.2,3443.1,702.8,950.0,1179.7,1328.7,1143.6,946.6,-15.0,-1.0,-3.0,-7902.0,-8529.0,-9298.0,-6842.0,5.0,-12.0,-4.0,0.0,-1.0,-11.0,10732.0,8903.0,6700.0,5396.0,2.0,-13.0,0.0,1.0
2022-05-13 15:35:19.616300-07:00,1961.8,608.4,1127.0,1285.5,893.2,1115.6,1545.9,1566.5,3437.0,3444.3,1559.9,1239.1,1218.6,3438.2,1015.9,1355.8,3432.2,3434.6,675.8,1283.7,880.6,530.6,1337.7,1576.8,3438.2,3443.1,702.8,947.5,1179.7,1329.6,1140.1,950.9,-8.0,7.0,3.0,-7903.0,-8533.0,-9293.0,-6841.0,-5.0,-7.0,16.0,7.0,2.0,-8.0,10735.0,8905.0,6695.0,5392.0,-5.0,-18.0,7.0,1.0
2022-05-13 15:35:19.617262-07:00,1961.8,608.4,1127.0,1293.6,893.2,1112.1,1545.0,1565.5,3437.0,3444.3,1559.9,1239.1,1218.6,3439.5,1024.5,1358.5,3443.1,3439.5,672.5,1283.7,878.9,530.6,1337.7,1576.8,3439.5,3433.4,700.3,947.5,1177.9,1329.6,1140.1,950.9,-5.0,4.0,11.0,-7904.0,-8536.0,-9290.0,-6840.0,12.0,-18.0,-1.0,15.0,0.0,-4.0,10737.0,8907.0,6692.0,5389.0,4.0,-5.0,-4.0,1.0
2022-05-13 15:35:19.619069-07:00,1963.7,603.6,1120.9,1293.6,887.3,1112.1,1545.0,1565.5,3434.6,3439.5,1565.5,1239.1,1218.6,3439.5,1024.5,1358.5,3443.1,3439.5,672.5,1284.6,878.9,527.4,1331.4,1573.0,3439.5,3433.4,700.3,946.6,1177.9,1330.5,1141.0,951.7,-5.0,3.0,13.0,-7904.0,-8537.0,-9290.0,-6839.0,-13.0,17.0,2.0,13.0,1.0,-5.0,10737.0,8907.0,6691.0,5389.0,-4.0,1.0,-2.0,1.0
2022-05-13 15:35:19.886208-07:00,1963.7,603.6,1120.9,1289.1,887.3,1114.7,1545.9,1562.7,3434.6,3439.5,1565.5,1239.1,1218.6,3440.7,1021.1,1354.9,3435.8,3440.7,675.8,1284.6,883.1,527.4,1331.4,1573.0,3439.5,3438.2,701.1,946.6,1179.7,1330.5,1141.0,951.7,-17.0,0.0,4.0,-7902.0,-8534.0,-9292.0,-6843.0,12.0,6.0,-1.0,0.0,-5.0,-8.0,10737.0,8907.0,6691.0,5389.0,2.0,8.0,-2.0,1.0
2022-05-13 15:35:19.887326-07:00,1954.8,600.4,1127.0,1289.1,885.6,1114.7,1545.9,1562.7,3435.8,3441.9,1554.3,1239.1,1218.6,3440.7,1021.1,1354.9,3435.8,3440.7,675.8,1292.7,883.1,534.6,1335.0,1566.5,3439.5,3438.2,701.1,948.3,1179.7,1328.7,1128.7,953.4,-15.0,1.0,0.0,-7899.0,-8536.0,-9294.0,-6841.0,0.0,17.0,6.0,1.0,0.0,-15.0,10736.0,8906.0,6692.0,5390.0,5.0,8.0,2.0,1.0
2022-05-13 15:35:19.972599-07:00,1954.8,600.4,1127.0,1291.8,889.8,1111.2,1545.0,1553.4,3435.8,3441.9,1554.3,1239.1,1219.5,3433.4,1015.9,1357.6,3440.7,3441.9,673.3,1276.5,885.6,534.6,1335.0,1566.5,3441.9,3445.5,697.9,944.1,1177.9,1328.7,1128.7,953.4,-2.0,10.0,1.0,-7898.0,-8536.0,-9295.0,-6841.0,7.0,-16.0,-7.0,11.0,3.0,-12.0,10736.0,8906.0,6692.0,5390.0,0.0,-4.0,-4.0,1.0
2022-05-13 15:35:19.974390-07:00,1953.9,606.8,1131.4,1296.3,889.8,1111.2,1545.0,1553.4,3438.2,3446.7,1553.4,1237.3,1219.5,3433.4,1015.9,1357.6,3440.7,3441.9,673.3,1276.5,883.9,530.6,1336.8,1574.9,3441.9,3445.5,697.9,944.1,1174.4,1329.6,1145.4,953.4,0.0,-2.0,11.0,-7902.0,-8535.0,-9294.0,-6839.0,-3.0,-8.0,-4.0,15.0,-2.0,-8.0,10737.0,8908.0,6691.0,5389.0,-8.0,-8.0,-8.0,1.0
2022-05-13 15:35:19.975412-07:00,1953.9,606.8,1131.4,1296.3,883.1,1109.5,1543.1,1559.0,3438.2,3446.7,1553.4,1237.3,1219.5,3443.1,1021.9,1361.2,3434.6,3444.3,676.6,1286.4,883.9,530.6,1336.8,1574.9,3444.3,3450.4,701.9,947.5,1174.4,1329.6,1145.4,953.4,-8.0,13.0,7.0,-7903.0,-8536.0,-9293.0,-6839.0,15.0,-2.0,1.0,6.0,2.0,-7.0,10737.0,8910.0,6688.0,5388.0,1.0,-9.0,0.0,1.0
2022-05-13 15:35:19.976047-07:00,1953.9,606.8,1131.4,1296.3,883.1,1109.5,1543.1,1559.0,3438.2,3446.7,1553.4,1237.3,1219.5,3443.1,1021.9,1361.2,3434.6,3444.3,676.6,1286.4,883.9,530.6,1336.8,1574.9,3444.3,3450.4,701.9,947.5,1174.4,1329.6,1145.4,953.4,-8.0,13.0,7.0,-7903.0,-8536.0,-9293.0,-6839.0,15.0,-2.0,1.0,6.0,2.0,-7.0,10737.0,8910.0,6688.0,5388.0,1.0,-9.0,0.0,1.0
2022-05-13 15:35:20.108942-07:00,1954.8,605.2,1120.9,1285.5,887.3,1113.0,1556.2,1575.8,3449.1,3435.8,1550.6,1230.2,1218.6,3437.0,1027.1,1351.2,3440.7,3439.5,670.9,1286.4,883.1,530.6,1327.8,1576.8,3441.9,3449.1,697.0,950.0,1177.0,1332.3,1135.7,950.9,-3.0,-83.0,14.0,-7992.0,-8453.0,-9289.0,-6842.0,-19.0,-22.0,-36.0,6.0,-42.0,-16.0,10826.0,8826.0,6648.0,5397.0,-118.0,-25.0,-45.0,1.0
2022-05-13 15:35:20.153457-07:00,1969.7,606.0,1127.9,1288.2,887.3,1113.0,1556.2,1594.6,3446.7,3440.7,1549.7,1246.2,1218.6,3437.0,1027.1,1355.8,3428.6,3439.5,670.9,1286.4,881.4,533.0,1334.1,1582.4,3437.0,3449.1,697.0,950.0,1180.6,1334.1,1139.2,945.8,-11.0,4.0,3.0,-7984.0,-8460.0,-9292.0,-6839.0,10.0,25.0,21.0,9.0,0.0,-9.0,10823.0,8829.0,6652.0,5394.0,41.0,16.0,13.0,1.0
2022-05-13 15:35:20.154615-07:00,1965.7,606.0,1127.9,1288.2,884.8,1113.9,1558.1,1594.6,3438.2,3440.7,1549.7,1246.2,1217.7,3440.7,1023.7,1355.8,3428.6,3445.5,677.4,1291.8,881.4,533.0,1334.1,1574.9,3437.0,3445.5,711.0,948.3,1180.6,1334.1,1139.2,950.0,-5.0,-14.0,18.0,-7965.0,-8472.0,-9299.0,-6838.0,105.0,17.0,49.0,7.0,-6.0,-10.0,10798.0,8850.0,6666.0,5392.0,126.0,34.0,23.0,1.0
2022-05-13 15:35:20.155622-07:00,1965.7,610.8,1125.2,1290.0,884.8,1113.9,1558.1,1577.7,3438.2,3438.2,1552.5,1231.0,1217.7,3440.7,1023.7,1357.6,3438.2,3445.5,677.4,1291.8,883.9,534.6,1341.3,1574.9,3441.9,3445.5,711.0,948.3,1180.6,1332.3,1143.6,950.0,-10.0,34.0,-1.0,-7912.0,-8505.0,-9317.0,-6834.0,74.0,51.0,50.0,8.0,15.0,-8.0,10757.0,8887.0,6686.0,5388.0,85.0,30.0,25.0,1.0
2022-05-13 15:35:20.241343-07:00,1958.8,610.8,1125.2,1290.0,889.8,1123.5,1547.8,1577.7,3446.7,3438.2,1552.5,1231.0,1216.0,3444.3,1028.8,1357.6,3438.2,3433.4,673.3,1285.5,883.9,534.6,1341.3,1573.9,3441.9,3440.7,707.7,940.7,1180.6,1332.3,1143.6,947.5,-11.0,-4.0,0.0,-7904.0,-8504.0,-9325.0,-6833.0,8.0,11.0,-24.0,5.0,-1.0,-8.0,10746.0,8895.0,6694.0,5387.0,10.0,9.0,-11.0,1.0
2022-05-13 15:35:20.287731-07:00,1958.8,602.8,1119.1,1292.7,889.8,1123.5,1547.8,1579.6,3446.7,3428.6,1553.4,1239.1,1216.0,3444.3,1028.8,1355.8,3438.2,3433.4,673.3,1285.5,877.2,533.8,1332.3,1573.9,3444.3,3440.7,707.7,940.7,1176.2,1332.3,1147.1,947.5,-9.0,-1.0,7.0,-7903.0,-8504.0,-9324.0,-6836.0,-33.0,18.0,34.0,5.0,1.0,-8.0,10746.0,8897.0,6693.0,5385.0,-15.0,-18.0,11.0,1.0
2022-05-13 15:35:20.289423-07:00,1961.8,600.4,1119.1,1292.7,891.5,1120.9,1544.1,1579.6,3443.1,3447.9,1553.4,1239.1,1216.8,3444.3,1019.4,1355.8,3438.2,3443.1,676.6,1277.4,877.2,533.8,1331.4,1573.9,3444.3,3444.3,701.9,938.1,1176.2,1332.3,1135.7,951.7,-9.0,17.0,0.0,-7906.0,-8502.0,-9312.0,-6851.0,0.0,-26.0,-6.0,5.0,7.0,-9.0,10752.0,8896.0,6683.0,5389.0,-2.0,-6.0,-3.0,1.0
2022-05-13 15:35:20.377808-07:00,1961.8,600.4,1118.2,1284.6,891.5,1120.9,1540.3,1562.7,3443.1,3447.9,1551.5,1234.6,1216.8,3444.3,1020.2,1349.4,3440.7,3437.0,676.6,1277.4,878.0,531.4,1331.4,1573.9,3445.5,3447.9,701.9,938.1,1174.4,1331.4,1135.7,951.7,-10.0,-7.0,15.0,-7913.0,-8503.0,-9312.0,-6842.0,-11.0,-11.0,-7.0,7.0,-8.0,0.0,10754.0,8896.0,6683.0,5385.0,-9.0,-9.0,-8.0,1.0
2022-05-13 15:35:20.379119-07:00,1961.8,602.8,1118.2,1284.6,888.2,1108.6,1540.3,1562.7,3435.8,3444.3,1551.5,1234.6,1218.6,3437.0,1020.2,1349.4,3440.7,3437.0,670.9,1285.5,878.0,531.4,1335.9,1573.0,3445.5,3447.9,703.6,946.6,1174.4,1331.4,1140.1,951.7,-10.0,12.0,10.0,-7909.0,-8505.0,-9313.0,-6842.0,26.0,14.0,1.0,4.0,4.0,-2.0,10752.0,8898.0,6684.0,5384.0,20.0,10.0,1.0,1.0
2022-05-13 15:35:20.423636-07:00,1961.8,602.8,1126.1,1291.8,888.2,1108.6,1534.8,1582.4,3435.8,3444.3,1555.3,1234.6,1218.6,3437.0,1021.9,1349.4,3439.5,3446.7,670.9,1285.5,887.3,531.4,1335.9,1573.0,3437.0,3440.7,703.6,946.6,1178.8,1332.3,1140.1,951.7,-12.0,0.0,8.0,-7904.0,-8503.0,-9321.0,-6840.0,-6.0,21.0,-18.0,6.0,-4.0,-8.0,10746.0,8900.0,6689.0,5385.0,-5.0,7.0,-8.0,1.0
2022-05-13 15:35:20.468268-07:00,1966.7,602.0,1126.1,1291.8,891.5,1110.4,1534.8,1582.4,3434.6,3441.9,1555.3,1234.6,1220.4,3447.9,1021.9,1349.4,3439.5,3446.7,678.2,1283.7,887.3,531.4,1336.8,1572.1,3437.0,3440.7,705.2,945.8,1178.8,1332.3,1139.2,950.0,-5.0,8.0,-2.0,-7899.0,-8501.0,-9326.0,-6840.0,21.0,7.0,0.0,7.0,3.0,-13.0,10741.0,8902.0,6693.0,5387.0,15.0,13.0,-3.0,1.0
2022-05-13 15:35:20.685755-07:00,1966.7,602.0,1141.9,1285.5,891.5,1110.4,1545.9,1577.7,3434.6,3441.9,1554.3,1239.9,1220.4,3447.9,1021.9,1352.1,3449.1,3449.1,678.2,1283.7,883.1,532.2,1336.8,1572.1,3440.7,3443.1,705.2,945.8,1180.6,1324.1,1139.2,950.0,-11.0,2.0,3.0,-7900.0,-8501.0,-9328.0,-6837.0,6.0,-11.0,-17.0,3.0,-1.0,-7.0,10739.0,8904.0,6694.0,5386.0,-1.0,2.0,-10.0,1.0
2022-05-13 15:35:20.710283-07:00,1963.7,603.6,1121.7,1285.5,891.5,1115.6,1545.9,1577.7,3447.9,3428.6,1556.2,1239.9,1219.5,3441.9,1021.9,1352.1,3449.1,3449.1,674.2,1284.6,883.1,533.0,1329.6,1572.1,3440.7,3443.1,706.0,951.7,1180.6,1325.9,1138.4,951.7,-14.0,1.0,7.0,-7903.0,-8500.0,-9327.0,-6837.0,-20.0,13.0,6.0,1.0,-6.0,0.0,10739.0,8904.0,6695.0,5386.0,-9.0,-5.0,5.0,1.0
2022-05-13 15:35:20.711297-07:00,1963.7,603.6,1121.7,1287.3,891.5,1107.8,1537.6,1559.9,3447.9,3428.6,1556.2,1239.1,1219.5,3445.5,1017.6,1361.2,3439.5,3437.0,672.5,1284.6,882.3,533.0,1329.6,1572.1,3445.5,3429.8,702.8,951.7,1176.2,1325.9,1138.4,951.7,-11.0,10.0,11.0,-7901.0,-8501.0,-9329.0,-6835.0,6.0,4.0,-7.0,1.0,0.0,-6.0,10738.0,8905.0,6695.0,5386.0,7.0,1.0,-8.0,1.0
2022-05-13 15:35:20.712353-07:00,1966.7,602.8,1123.5,1287.3,885.6,1107.8,1537.6,1559.9,3433.4,3439.5,1557.1,1239.1,1217.7,3445.5,1017.6,1361.2,3439.5,3437.0,672.5,1280.1,882.3,532.2,1333.2,1574.9,3445.5,3429.8,702.8,944.1,1176.2,1328.7,1143.6,947.5,-10.0,1.0,10.0,-7901.0,-8499.0,-9333.0,-6831.0,21.0,9.0,-9.0,5.0,0.0,-4.0,10737.0,8906.0,6697.0,5384.0,10.0,6.0,-5.0,1.0
2022-05-13 15:35:21.009268-07:00,1966.7,602.8,1123.5,1285.5,885.6,1109.5,1540.3,1570.2,3433.4,3439.5,1557.1,1234.6,1217.7,3447.9,1023.7,1349.4,3434.6,3438.2,675.0,1280.1,881.4,532.2,1333.2,1574.9,3445.5,3447.9,702.8,944.1,1186.7,1328.7,1143.6,947.5,-6.0,0.0,4.0,-7897.0,-8497.0,-9336.0,-6834.0,-1.0,13.0,5.0,8.0,-3.0,-9.0,10737.0,8907.0,6697.0,5384.0,2.0,3.0,4.0,1.0
2022-05-13 15:35:21.011867-07:00,1957.8,608.4,1130.5,1285.5,893.2,1109.5,1540.3,1570.2,3444.3,3444.3,1551.5,1234.6,1223.0,3447.9,1023.7,1349.4,3434.6,3438.2,675.0,1289.1,881.4,529.8,1331.4,1573.9,3445.5,3447.9,702.8,944.1,1186.7,1334.1,1138.4,949.2,-8.0,5.0,-1.0,-7893.0,-8495.0,-9339.0,-6838.0,-2.0,11.0,6.0,6.0,-3.0,-6.0,10735.0,8908.0,6697.0,5384.0,-5.0,-4.0,3.0,1.0
2022-05-13 15:35:21.012930-07:00,1957.8,608.4,1130.5,1296.3,889.0,1105.1,1545.0,1571.1,3444.3,3444.3,1551.5,1239.1,1216.8,3439.5,1011.6,1357.6,3431.0,3437.0,672.5,1287.3,884.8,529.8,1331.4,1573.9,3441.9,3450.4,695.4,944.1,1176.2,1334.1,1138.4,949.2,-9.0,9.0,5.0,-7894.0,-8497.0,-9340.0,-6833.0,9.0,-12.0,-12.0,4.0,2.0,-9.0,10734.0,8910.0,6698.0,5383.0,-2.0,-8.0,-11.0,1.0
2022-05-13 15:35:21.054152-07:00,1961.8,606.8,1120.9,1290.9,889.0,1105.1,1545.0,1571.1,3440.7,3440.7,1555.3,1231.0,1216.8,3439.5,1011.6,1357.6,3431.0,3437.0,672.5,1287.3,883.1,534.6,1334.1,1574.9,3441.9,3450.4,695.4,944.1,1183.2,1330.5,1141.9,945.8,-11.0,-8.0,13.0,-7897.0,-8495.0,-9334.0,-6839.0,-15.0,6.0,28.0,5.0,-3.0,-5.0,10737.0,8909.0,6693.0,5383.0,-8.0,-10.0,11.0,1.0
2022-05-13 15:35:21.055619-07:00,1961.8,606.8,1120.9,1290.9,884.8,1118.2,1534.8,1562.7,3440.7,3440.7,1555.3,1231.0,1213.3,3431.0,1019.4,1355.8,3446.7,3433.4,675.0,1279.2,883.1,534.6,1334.1,1574.9,3445.5,3435.8,702.8,947.5,1183.2,1330.5,1141.9,945.8,-11.0,16.0,9.0,-7893.0,-8496.0,-9328.0,-6852.0,-30.0,13.0,22.0,7.0,5.0,-2.0,10743.0,8907.0,6684.0,5384.0,-43.0,-22.0,4.0,1.0
2022-05-13 15:35:21.321365-07:00,1958.8,607.6,1123.5,1292.7,883.9,1113.0,1538.5,1559.0,3449.1,3438.2,1563.7,1234.6,1215.1,3437.0,1019.4,1357.6,3431.0,3431.0,675.8,1284.6,884.8,533.0,1333.2,1573.9,3444.3,3443.1,719.2,944.9,1184.1,1332.3,1141.0,949.2,-7.0,3.0,5.0,-7895.0,-8486.0,-9323.0,-6868.0,27.0,2.0,2.0,5.0,1.0,-10.0,10755.0,8898.0,6675.0,5388.0,27.0,1.0,0.0,1.0
2022-05-13 15:35:21.504492-07:00,1953.9,607.6,1123.5,1292.7,886.5,1115.6,1538.5,1559.0,3441.9,3438.2,1563.7,1234.6,1216.8,3443.1,1017.6,1357.6,3431.0,3438.2,674.2,1283.7,884.8,533.0,1333.2,1573.0,3444.3,3449.1,706.9,948.3,1184.1,1332.3,1141.0,945.8,-9.0,3.0,7.0,-7892.0,-8490.0,-9326.0,-6863.0,9.0,-8.0,-5.0,7.0,0.0,-8.0,10752.0,8903.0,6676.0,5385.0,-8.0,-10.0,-2.0,1.0
2022-05-13 15:35:21.506059-07:00,1953.9,604.4,1125.2,1297.2,886.5,1115.6,1538.5,1567.4,3441.9,3438.2,1544.1,1234.6,1216.8,3443.1,1017.6,1357.6,3444.3,3438.2,674.2,1283.7,885.6,533.8,1335.9,1573.0,3433.4,3449.1,706.9,948.3,1173.5,1334.1,1135.7,945.8,-11.0,5.0,2.0,-7892.0,-8491.0,-9322.0,-6867.0,-9.0,-10.0,12.0,3.0,0.0,-4.0,10755.0,8901.0,6673.0,5384.0,-6.0,-6.0,4.0,1.0
2022-05-13 15:35:21.638100-07:00,1960.8,604.4,1125.2,1297.2,884.8,1115.6,1536.6,1567.4,3447.9,3438.2,1544.1,1234.6,1216.8,3438.2,1014.2,1357.6,3444.3,3440.7,672.5,1289.1,885.6,533.8,1335.9,1577.7,3433.4,3441.9,708.5,941.5,1173.5,1334.1,1135.7,942.4,-13.0,0.0,13.0,-7894.0,-8495.0,-9320.0,-6862.0,6.0,-5.0,-6.0,2.0,-4.0,-4.0,10755.0,8901.0,6673.0,5384.0,-1.0,-4.0,-4.0,1.0
2022-05-13 15:35:21.641111-07:00,1960.8,603.6,1127.9,1296.3,884.8,1115.6,1536.6,1559.0,3447.9,3445.5,1552.5,1233.7,1216.8,3438.2,1014.2,1360.3,3437.0,3440.7,672.5,1289.1,883.9,529.8,1332.3,1577.7,3449.1,3441.9,708.5,941.5,1173.5,1327.8,1142.7,942.4,-19.0,-25.0,0.0,-7880.0,-8503.0,-9328.0,-6859.0,64.0,-3.0,-4.0,1.0,6.0,-12.0,10744.0,8913.0,6681.0,5377.0,61.0,11.0,-11.0,1.0
2022-05-13 15:35:21.641809-07:00,1960.8,603.6,1127.9,1296.3,884.8,1115.6,1536.6,1559.0,3447.9,3445.5,1552.5,1233.7,1216.8,3438.2,1014.2,1360.3,3437.0,3440.7,672.5,1289.1,883.9,529.8,1332.3,1577.7,3449.1,3441.9,708.5,941.5,1173.5,1327.8,1142.7,942.4,-19.0,-25.0,0.0,-7880.0,-8503.0,-9328.0,-6859.0,64.0,-3.0,-4.0,1.0,6.0,-12.0,10744.0,8913.0,6681.0,5377.0,61.0,11.0,-11.0,1.0
2022-05-13 15:35:21.683894-07:00,1960.8,601.2,1116.5,1287.3,888.2,1117.4,1528.3,1555.3,3428.6,3438.2,1554.3,1233.7,1222.2,3449.1,1018.5,1363.0,3441.9,3438.2,676.6,1282.8,883.9,529.0,1337.7,1573.9,3441.9,3439.5,704.4,940.7,1179.7,1330.5,1154.2,951.7,-5.0,5.0,10.0,-7865.0,-8512.0,-9328.0,-6863.0,10.0,-2.0,1.0,4.0,1.0,-11.0,10738.0,8922.0,6681.0,5375.0,10.0,-5.0,-3.0,1.0
2022-05-13 15:35:21.685286-07:00,1950.9,601.2,1125.2,1287.3,884.8,1116.5,1528.3,1555.3,3438.2,3438.2,1550.6,1233.7,1223.0,3443.1,1018.5,1363.0,3441.9,3438.2,675.0,1286.4,883.9,537.8,1336.8,1578.6,3441.9,3439.5,695.4,944.1,1179.7,1335.9,1141.0,943.2,-8.0,3.0,8.0,-7865.0,-8512.0,-9328.0,-6864.0,-1.0,3.0,3.0,6.0,-2.0,-5.0,10738.0,8922.0,6681.0,5375.0,0.0,-3.0,1.0,1.0
2022-05-13 15:35:21.686288-07:00,1950.9,601.2,1125.2,1288.2,884.8,1114.7,1530.1,1553.4,3438.2,3438.2,1550.6,1232.8,1223.0,3440.7,1020.2,1357.6,3440.7,3437.0,677.4,1286.4,875.5,537.8,1336.8,1578.6,3449.1,3441.9,703.6,944.1,1176.2,1335.9,1141.0,943.2,-12.0,5.0,3.0,-7862.0,-8514.0,-9330.0,-6861.0,11.0,-1.0,3.0,1.0,4.0,-8.0,10737.0,8923.0,6682.0,5375.0,7.0,-4.0,3.0,1.0
2022-05-13 15:35:21.772606-07:00,1954.8,596.3,1121.7,1288.2,883.9,1114.7,1530.1,1553.4,3433.4,3443.1,1551.5,1232.8,1216.8,3440.7,1020.2,1357.6,3440.7,3437.0,677.4,1288.2,875.5,533.0,1332.3,1566.5,3449.1,3441.9,703.6,945.8,1176.2,1327.8,1131.4,949.2,-8.0,2.0,2.0,-7863.0,-8513.0,-9329.0,-6862.0,-12.0,4.0,6.0,7.0,-3.0,-7.0,10738.0,8923.0,6681.0,5374.0,-1.0,-5.0,3.0,1.0
2022-05-13 15:35:21.817631-07:00,1954.8,596.3,1121.7,1289.1,883.9,1119.1,1538.5,1564.6,3433.4,3443.1,1551.5,1238.2,1216.8,3439.5,1021.9,1354.9,3435.8,3433.4,672.5,1288.2,878.0,533.0,1332.3,1566.5,3438.2,3444.3,701.1,945.8,1178.8,1327.8,1131.4,949.2,-7.0,5.0,7.0,-7863.0,-8515.0,-9329.0,-6860.0,4.0,-7.0,-8.0,5.0,4.0,-7.0,10737.0,8924.0,6681.0,5374.0,-7.0,-5.0,1.0,1.0
2022-05-13 15:35:21.818759-07:00,1947.9,602.8,1125.2,1289.1,883.9,1119.1,1538.5,1564.6,3441.9,3435.8,1557.1,1238.2,1223.0,3439.5,1021.9,1354.9,3435.8,3433.4,672.5,1280.1,878.0,532.2,1328.7,1579.6,3438.2,3444.3,701.1,945.8,1178.8,1331.4,1127.0,945.8,-11.0,4.0,12.0,-7863.0,-8516.0,-9327.0,-6863.0,-4.0,14.0,18.0,7.0,-2.0,-6.0,10737.0,8924.0,6681.0,5374.0,2.0,-2.0,7.0,1.0
2022-05-13 15:35:21.908787-07:00,1947.9,602.8,1125.2,1294.5,889.0,1113.9,1535.7,1566.5,3441.9,3435.8,1557.1,1235.5,1220.4,3437.0,1026.3,1354.0,3449.1,3437.0,673.3,1280.1,880.6,532.2,1328.7,1579.6,3440.7,3438.2,704.4,937.3,1189.4,1331.4,1127.0,945.8,-12.0,0.0,10.0,-7860.0,-8517.0,-9329.0,-6863.0,6.0,1.0,-6.0,0.0,0.0,-9.0,10736.0,8926.0,6681.0,5373.0,5.0,4.0,-1.0,1.0
2022-05-13 15:35:21.997347-07:00,1959.8,602.0,1135.7,1288.2,889.0,1113.9,1535.7,1566.5,3437.0,3437.0,1550.6,1237.3,1220.4,3437.0,1026.3,1354.0,3449.1,3437.0,673.3,1280.1,882.3,535.4,1340.4,1571.1,3440.7,3438.2,704.4,937.3,1180.6,1320.5,1140.1,950.0,-11.0,5.0,3.0,-7857.0,-8516.0,-9330.0,-6866.0,-9.0,22.0,11.0,6.0,-4.0,-8.0,10736.0,8926.0,6681.0,5373.0,-4.0,4.0,2.0,1.0
2022-05-13 15:35:22.042819-07:00,1959.8,602.0,1135.7,1288.2,889.0,1108.6,1538.5,1566.5,3437.0,3437.0,1550.6,1237.3,1219.5,3443.1,1014.2,1359.4,3432.2,3437.0,666.0,1283.7,882.3,535.4,1340.4,1571.1,3440.7,3439.5,701.1,944.9,1180.6,1320.5,1140.1,950.0,-8.0,5.0,2.0,-7853.0,-8515.0,-9334.0,-6866.0,14.0,4.0,-10.0,6.0,2.0,-8.0,10732.0,8929.0,6684.0,5372.0,18.0,7.0,-5.0,1.0
2022-05-13 15:35:22.089360-07:00,1956.8,606.0,1126.1,1291.8,889.0,1108.6,1538.5,1566.5,3449.1,3440.7,1553.4,1234.6,1219.5,3443.1,1014.2,1359.4,3432.2,3437.0,666.0,1283.7,876.4,533.0,1330.5,1574.9,3440.7,3439.5,701.1,944.9,1167.4,1327.8,1143.6,953.4,-11.0,18.0,6.0,-7851.0,-8514.0,-9336.0,-6866.0,4.0,7.0,5.0,7.0,5.0,-8.0,10733.0,8929.0,6683.0,5372.0,-10.0,-10.0,-2.0,1.0
2022-05-13 15:35:22.179381-07:00,1956.8,606.0,1126.1,1291.8,887.3,1093.8,1541.3,1559.9,3449.1,3440.7,1553.4,1234.6,1213.3,3444.3,1021.1,1356.7,3439.5,3440.7,673.3,1281.0,876.4,533.0,1330.5,1574.9,3449.1,3434.6,703.6,935.6,1167.4,1327.8,1143.6,953.4,-9.0,22.0,6.0,-7857.0,-8508.0,-9336.0,-6867.0,-14.0,3.0,-49.0,9.0,0.0,-15.0,10750.0,8917.0,6674.0,5369.0,-67.0,-24.0,-29.0,1.0
2022-05-13 15:35:22.180489-07:00,1955.8,599.6,1138.4,1295.4,887.3,1093.8,1541.3,1559.9,3443.1,3446.7,1547.8,1229.3,1213.3,3444.3,1021.1,1356.7,3439.5,3440.7,673.3,1281.0,885.6,532.2,1331.4,1573.9,3449.1,3434.6,703.6,935.6,1176.2,1309.7,1135.7,949.2,-14.0,57.0,30.0,-7867.0,-8484.0,-9357.0,-6856.0,45.0,73.0,-106.0,2.0,17.0,4.0,10773.0,8899.0,6673.0,5353.0,-33.0,-35.0,-77.0,1.0
2022-05-13 15:35:22.224056-07:00,1975.6,599.6,1138.4,1295.4,886.5,1134.9,1544.1,1561.8,3438.2,3446.7,1547.8,1229.3,1217.7,3433.4,1016.8,1345.8,3432.2,3431.0,675.8,1288.2,885.6,532.2,1331.4,1573.9,3431.0,3441.9,711.8,945.8,1176.2,1309.7,1135.7,945.8,-5.0,-26.0,55.0,-7869.0,-8452.0,-9397.0,-6840.0,78.0,90.0,-59.0,1.0,0.0,-14.0,10797.0,8889.0,6686.0,5306.0,27.0,-67.0,-128.0,1.0
2022-05-13 15:35:22.312182-07:00,1975.6,610.8,1323.2,1361.2,886.5,1134.9,1544.1,1564.6,3438.2,3441.9,1550.6,1231.0,1217.7,3433.4,1016.8,1351.2,3434.6,3431.0,675.8,1288.2,886.5,532.2,1337.7,1573.9,3444.3,3441.9,711.8,945.8,1184.1,1329.6,1143.6,945.8,-3.0,25.0,20.0,-7820.0,-8429.0,-9444.0,-6859.0,-121.0,234.0,-10.0,9.0,8.0,6.0,10828.0,8879.0,6693.0,5251.0,-82.0,-85.0,-126.0,1.0
2022-05-13 15:35:22.448421-07:00,2031.4,610.8,1323.2,1361.2,904.2,1234.6,1565.5,1564.6,3444.3,3441.9,1550.6,1231.0,1223.9,3444.3,1019.4,1351.2,3434.6,3444.3,670.1,1290.9,886.5,532.2,1337.7,1582.4,3444.3,3443.1,748.8,947.5,1184.1,1329.6,1143.6,953.4,-5.0,-58.0,-34.0,-7811.0,-8356.0,-9472.0,-6919.0,76.0,183.0,-20.0,14.0,-33.0,-4.0,10866.0,8850.0,6696.0,5216.0,30.0,-30.0,-88.0,1.0
2022-05-13 15:35:22.451357-07:00,2031.4,632.7,1592.7,1459.8,904.2,1234.6,1565.5,1636.0,3444.3,3438.2,1562.7,1232.8,1223.9,3444.3,1019.4,1354.9,3434.6,3444.3,670.1,1290.9,895.7,533.0,1339.5,1582.4,3444.3,3443.1,748.8,947.5,1182.3,1335.9,1143.6,953.4,2.0,-16.0,-11.0,-7744.0,-8360.0,-9488.0,-6969.0,-165.0,143.0,238.0,0.0,31.0,-26.0,10869.0,8871.0,6696.0,5174.0,-49.0,-131.0,-5.0,1.0
2022-05-13 15:35:22.452656-07:00,2057.4,632.7,1592.7,1459.8,959.4,1267.6,1641.6,1636.0,3440.7,3438.2,1562.7,1232.8,1223.9,3439.5,1020.2,1354.9,3434.6,3438.2,673.3,1302.5,895.7,533.0,1339.5,1572.1,3444.3,3449.1,756.3,952.6,1182.3,1335.9,1143.6,999.6,-12.0,24.0,-31.0,-7747.0,-8312.0,-9398.0,-7143.0,-453.0,76.0,137.0,12.0,-23.0,2.0,10945.0,8825.0,6616.0,5196.0,-255.0,-102.0,27.0,1.0
2022-05-13 15:35:22.539706-07:00,2057.4,618.9,1608.7,1459.8,959.4,1267.6,1646.4,1557.1,3440.7,3438.2,1549.7,1239.1,1223.9,3439.5,1021.9,1355.8,3428.6,3432.2,673.3,1302.5,905.9,542.6,1340.4,1572.1,3440.7,3438.2,756.3,952.6,1174.4,1346.7,1155.0,999.6,4.0,-28.0,13.0,-7785.0,-8309.0,-9353.0,-7162.0,214.0,-102.0,10.0,1.0,-10.0,-38.0,10978.0,8813.0,6592.0,5176.0,92.0,-77.0,-62.0,1.0
2022-05-13 15:35:22.674623-07:00,2034.4,617.3,1608.7,1459.8,1042.6,1249.7,1646.4,1557.1,3428.6,3444.3,1549.7,1239.1,1212.4,3437.0,1021.9,1355.8,3428.6,3432.2,674.2,1298.1,905.9,542.6,1342.2,1569.3,3440.7,3438.2,758.7,943.2,1174.4,1346.7,1161.2,1033.2,-24.0,22.0,43.0,-7756.0,-8338.0,-9365.0,-7145.0,-150.0,42.0,63.0,12.0,9.0,40.0,10962.0,8849.0,6595.0,5146.0,-7.0,-34.0,28.0,1.0
2022-05-13 15:35:22.675780-07:00,2034.4,617.3,1573.0,1460.8,1042.6,1249.7,1620.9,1498.6,3428.6,3444.3,1562.7,1233.7,1212.4,3437.0,1021.1,1357.6,3438.2,3441.9,674.2,1298.1,903.4,531.4,1342.2,1569.3,3434.6,3434.6,758.7,943.2,1172.6,1349.4,1161.2,1033.2,9.0,16.0,5.0,-7792.0,-8325.0,-9323.0,-7177.0,-82.0,-83.0,-26.0,12.0,1.0,-24.0,10987.0,8827.0,6575.0,5155.0,-86.0,-15.0,-26.0,1.0
2022-05-13 15:35:22.676858-07:00,2054.4,610.0,1573.0,1460.8,1056.5,1245.3,1620.9,1498.6,3441.9,3441.9,1562.7,1233.7,1217.7,3439.5,1021.1,1357.6,3438.2,3441.9,675.0,1309.7,903.4,531.4,1340.4,1570.2,3434.6,3434.6,754.6,944.1,1172.6,1349.4,1156.8,1042.6,-39.0,-20.0,23.0,-7762.0,-8330.0,-9358.0,-7157.0,162.0,126.0,15.0,0.0,-12.0,1.0,10970.0,8841.0,6595.0,5142.0,159.0,41.0,1.0,1.0
2022-05-13 15:35:22.719235-07:00,2054.4,610.0,1565.5,1446.0,1056.5,1245.3,1604.9,1490.3,3441.9,3441.9,1554.3,1234.6,1217.7,3439.5,1021.1,1353.1,3439.5,3441.9,675.0,1309.7,906.7,533.8,1340.4,1570.2,3438.2,3444.3,754.6,944.1,1175.3,1354.9,1156.8,1042.6,8.0,14.0,-16.0,-7754.0,-8350.0,-9357.0,-7145.0,-32.0,-93.0,-9.0,11.0,12.0,-34.0,10957.0,8850.0,6609.0,5136.0,-48.0,0.0,-23.0,1.0
2022-05-13 15:35:22.942695-07:00,2038.4,607.6,1555.3,1446.0,1047.0,1239.9,1604.9,1490.3,3440.7,3445.5,1551.5,1234.6,1218.6,3443.1,1021.1,1353.1,3439.5,3441.9,677.4,1295.4,906.7,533.8,1339.5,1573.9,3438.2,3444.3,756.3,948.3,1175.3,1351.2,1156.8,1035.7,0.0,20.0,-4.0,-7757.0,-8353.0,-9352.0,-7144.0,-29.0,-97.0,17.0,17.0,1.0,-15.0,10964.0,8847.0,6601.0,5136.0,-42.0,-32.0,-6.0,1.0
2022-05-13 15:35:22.945845-07:00,2040.4,600.4,1545.9,1453.4,1038.3,1239.1,1593.6,1493.0,3438.2,3439.5,1554.3,1231.0,1216.8,3440.7,1016.8,1354.0,3438.2,3437.0,675.0,1301.6,920.3,533.8,1339.5,1569.3,3441.9,3440.7,755.4,946.6,1173.5,1352.1,1157.7,1037.5,-4.0,-3.0,26.0,-7778.0,-8353.0,-9340.0,-7136.0,-4.0,23.0,-30.0,5.0,0.0,-20.0,10977.0,8840.0,6592.0,5132.0,-6.0,-10.0,-4.0,1.0
2022-05-13 15:35:22.946988-07:00,2040.4,600.4,1545.9,1435.0,1038.3,1245.3,1586.1,1465.4,3438.2,3439.5,1554.3,1229.3,1216.8,3446.7,1019.4,1354.0,3434.6,3429.8,679.1,1301.6,902.5,533.8,1339.5,1569.3,3437.0,3449.1,749.6,946.6,1174.4,1352.1,1157.7,1037.5,-11.0,16.0,8.0,-7774.0,-8342.0,-9349.0,-7142.0,-1.0,-6.0,8.0,10.0,-6.0,19.0,10976.0,8841.0,6592.0,5132.0,-4.0,4.0,-3.0,1.0
2022-05-13 15:35:22.948032-07:00,2050.4,605.2,1532.9,1435.0,1043.5,1245.3,1586.1,1465.4,3437.0,3434.6,1548.7,1229.3,1215.1,3446.7,1019.4,1354.0,3434.6,3429.8,679.1,1298.1,902.5,535.4,1343.1,1573.9,3437.0,3449.1,749.6,947.5,1174.4,1349.4,1175.3,1042.6,2.0,1.0,5.0,-7783.0,-8348.0,-9351.0,-7122.0,63.0,-22.0,-31.0,5.0,6.0,-28.0,10972.0,8840.0,6604.0,5127.0,37.0,17.0,-20.0,1.0
2022-05-13 15:35:23.078703-07:00,2050.4,605.2,1532.9,1438.7,1040.1,1243.5,1573.9,1477.3,3437.0,3434.6,1548.7,1234.6,1221.3,3440.7,1016.8,1351.2,3438.2,3432.2,678.2,1301.6,911.0,535.4,1343.1,1573.9,3450.4,3440.7,749.6,947.5,1173.5,1349.4,1175.3,1042.6,-14.0,-8.0,13.0,-7774.0,-8346.0,-9358.0,-7125.0,1.0,47.0,37.0,11.0,-12.0,-2.0,10966.0,8847.0,6606.0,5128.0,17.0,11.0,18.0,1.0
2022-05-13 15:35:23.080626-07:00,2050.4,594.7,1529.2,1437.8,1034.0,1246.2,1587.1,1510.6,3441.9,3445.5,1548.7,1233.7,1215.1,3433.4,1016.8,1354.0,3433.4,3426.2,675.8,1302.5,905.9,537.8,1336.8,1573.0,3449.1,3438.2,749.6,939.0,1180.6,1351.2,1155.0,1035.7,-24.0,-15.0,6.0,-7759.0,-8359.0,-9369.0,-7112.0,34.0,20.0,15.0,10.0,-24.0,10.0,10949.0,8864.0,6616.0,5120.0,41.0,12.0,3.0,1.0
2022-05-13 15:35:23.124072-07:00,2059.4,601.2,1524.5,1430.5,1034.0,1246.2,1587.1,1510.6,3440.7,3437.0,1552.5,1230.2,1215.1,3433.4,1016.8,1354.0,3433.4,3426.2,675.8,1302.5,912.7,530.6,1337.7,1573.9,3449.1,3438.2,749.6,939.0,1177.9,1363.9,1149.8,1033.2,2.0,6.0,-1.0,-7756.0,-8384.0,-9370.0,-7085.0,56.0,-57.0,6.0,8.0,3.0,-18.0,10937.0,8876.0,6625.0,5115.0,31.0,0.0,-5.0,1.0
2022-05-13 15:35:23.124861-07:00,2059.4,601.2,1524.5,1430.5,1031.4,1247.1,1574.9,1523.6,3440.7,3437.0,1552.5,1230.2,1221.3,3434.6,1022.8,1353.1,3427.4,3432.2,670.9,1297.2,912.7,530.6,1337.7,1573.9,3446.7,3438.2,741.4,944.9,1177.9,1363.9,1149.8,1033.2,-16.0,4.0,9.0,-7748.0,-8385.0,-9376.0,-7085.0,-30.0,45.0,10.0,7.0,-9.0,6.0,10931.0,8883.0,6624.0,5114.0,-11.0,-7.0,14.0,1.0
2022-05-13 15:35:23.168835-07:00,2055.4,596.3,1515.3,1418.6,1031.4,1247.1,1574.9,1523.6,3443.1,3435.8,1544.1,1233.7,1221.3,3434.6,1022.8,1353.1,3427.4,3432.2,670.9,1297.2,902.5,533.8,1332.3,1573.9,3446.7,3438.2,741.4,944.9,1175.3,1347.6,1155.9,1028.0,-5.0,13.0,4.0,-7755.0,-8390.0,-9374.0,-7074.0,39.0,-52.0,-14.0,3.0,8.0,-7.0,10932.0,8882.0,6625.0,5113.0,10.0,-4.0,-17.0,1.0
2022-05-13 15:35:23.212146-07:00,2048.4,596.3,1515.3,1418.6,1028.8,1253.3,1562.7,1510.6,3437.0,3435.8,1544.1,1233.7,1216.0,3437.0,1019.4,1348.5,3435.8,3434.6,673.3,1291.8,902.5,533.8,1332.3,1573.9,3440.7,3437.0,755.4,944.9,1175.3,1347.6,1155.9,1028.8,-9.0,-10.0,16.0,-7763.0,-8387.0,-9371.0,-7072.0,-1.0,22.0,14.0,3.0,-6.0,-9.0,10932.0,8882.0,6626.0,5112.0,5.0,-5.0,9.0,1.0
2022-05-13 15:35:23.303163-07:00,2048.4,593.9,1519.9,1424.1,1028.8,1253.3,1562.7,1507.8,3437.0,3431.0,1542.2,1231.0,1216.0,3437.0,1019.4,1354.9,3432.2,3434.6,673.3,1291.8,907.6,531.4,1335.9,1573.9,3439.5,3437.0,755.4,944.9,1176.2,1344.9,1153.3,1028.8,-4.0,8.0,-1.0,-7763.0,-8387.0,-9366.0,-7078.0,-15.0,-33.0,-3.0,6.0,-1.0,-6.0,10932.0,8882.0,6623.0,5114.0,-13.0,-10.0,-11.0,1.0
2022-05-13 15:35:23.304970-07:00,2046.4,593.9,1519.9,1424.1,1032.3,1250.6,1552.5,1507.8,3438.2,3431.0,1542.2,1231.0,1222.2,3439.5,1018.5,1354.9,3432.2,3444.3,672.5,1295.4,907.6,531.4,1335.9,1578.6,3439.5,3434.6,745.5,946.6,1176.2,1344.9,1153.3,1022.8,-10.0,-3.0,9.0,-7770.0,-8387.0,-9364.0,-7074.0,-10.0,-4.0,4.0,9.0,-2.0,0.0,10932.0,8883.0,6623.0,5114.0,-16.0,-12.0,4.0,1.0
2022-05-13 15:35:23.437999-07:00,2046.4,593.9,1505.1,1429.5,1032.3,1250.6,1552.5,1492.1,3438.2,3445.5,1544.1,1229.3,1222.2,3439.5,1018.5,1368.5,3435.8,3444.3,672.5,1295.4,908.4,532.2,1332.3,1578.6,3441.9,3434.6,745.5,946.6,1185.9,1346.7,1149.8,1022.8,-8.0,8.0,4.0,-7773.0,-8391.0,-9356.0,-7075.0,-3.0,-31.0,12.0,7.0,0.0,0.0,10934.0,8883.0,6620.0,5113.0,-4.0,-7.0,-3.0,1.0
2022-05-13 15:35:23.483299-07:00,2046.4,593.9,1505.1,1429.5,1023.7,1248.0,1560.9,1492.1,3433.4,3445.5,1544.1,1229.3,1214.2,3441.9,1017.6,1368.5,3435.8,3429.8,676.6,1291.8,908.4,532.2,1332.3,1573.9,3441.9,3450.4,747.2,940.7,1185.9,1346.7,1149.8,1020.2,-4.0,4.0,2.0,-7786.0,-8397.0,-9349.0,-7064.0,-4.0,-30.0,-13.0,4.0,5.0,-12.0,10935.0,8884.0,6621.0,5111.0,-1.0,-10.0,-9.0,1.0
2022-05-13 15:35:23.484441-07:00,2046.4,597.1,1510.6,1430.5,1023.7,1248.0,1563.7,1494.9,3433.4,3444.3,1545.0,1231.9,1214.2,3441.9,1021.9,1354.0,3439.5,3437.0,676.6,1291.8,903.4,532.2,1330.5,1573.9,3439.5,3441.9,747.2,940.7,1174.4,1338.6,1155.9,1020.2,-9.0,0.0,12.0,-7791.0,-8394.0,-9345.0,-7068.0,-28.0,-2.0,16.0,9.0,-5.0,5.0,10937.0,8884.0,6616.0,5109.0,-13.0,-5.0,6.0,1.0
2022-05-13 15:35:23.528304-07:00,2063.5,587.5,1510.6,1430.5,1021.1,1245.3,1563.7,1494.9,3443.1,3439.5,1545.0,1231.9,1216.8,3437.0,1021.9,1354.0,3439.5,3437.0,671.7,1296.3,903.4,532.2,1328.7,1574.9,3439.5,3441.9,743.0,943.2,1174.4,1338.6,1155.0,1027.1,-1.0,17.0,1.0,-7800.0,-8397.0,-9340.0,-7061.0,0.0,-28.0,-22.0,5.0,5.0,-13.0,10938.0,8883.0,6617.0,5108.0,0.0,-5.0,-11.0,1.0
2022-05-13 15:35:23.571987-07:00,2063.5,587.5,1508.8,1423.1,1021.1,1245.3,1557.1,1505.1,3443.1,3439.5,1546.9,1239.1,1216.8,3437.0,1014.2,1350.3,3437.0,3435.8,671.7,1296.3,902.5,535.4,1328.7,1574.9,3435.8,3435.8,743.0,943.2,1177.0,1358.5,1155.0,1027.1,-7.0,0.0,9.0,-7806.0,-8393.0,-9338.0,-7062.0,-23.0,4.0,8.0,6.0,-2.0,-4.0,10939.0,8884.0,6616.0,5106.0,-7.0,-9.0,4.0,1.0
2022-05-13 15:35:23.617486-07:00,2059.4,588.3,1508.8,1423.1,1021.9,1242.6,1557.1,1505.1,3449.1,3437.0,1546.9,1239.1,1213.3,3433.4,1014.2,1350.3,3437.0,3435.8,670.9,1296.3,902.5,535.4,1331.4,1571.1,3435.8,3435.8,746.3,947.5,1177.0,1358.5,1148.9,1018.5,-8.0,1.0,12.0,-7804.0,-8395.0,-9339.0,-7060.0,49.0,-7.0,-8.0,6.0,-8.0,-2.0,10938.0,8886.0,6617.0,5105.0,39.0,14.0,-13.0,1.0
2022-05-13 15:35:23.664091-07:00,2059.4,588.3,1501.4,1420.4,1021.9,1242.6,1555.3,1512.5,3449.1,3437.0,1540.3,1233.7,1213.3,3433.4,1018.5,1352.1,3427.4,3435.8,670.9,1296.3,901.7,529.0,1331.4,1571.1,3441.9,3439.5,746.3,947.5,1174.4,1350.3,1148.9,1018.5,-4.0,-4.0,10.0,-7804.0,-8400.0,-9343.0,-7049.0,8.0,0.0,1.0,3.0,-1.0,-9.0,10931.0,8891.0,6624.0,5099.0,13.0,0.0,0.0,1.0
2022-05-13 15:35:23.708846-07:00,2050.4,595.5,1508.8,1420.4,1018.5,1246.2,1555.3,1512.5,3432.2,3438.2,1540.3,1233.7,1222.2,3441.9,1018.5,1352.1,3427.4,3435.8,679.9,1299.0,901.7,537.0,1334.1,1573.9,3441.9,3439.5,752.1,945.8,1174.4,1354.0,1153.3,1021.9,-7.0,12.0,0.0,-7806.0,-8399.0,-9337.0,-7055.0,-34.0,-12.0,8.0,10.0,-1.0,-5.0,10929.0,8894.0,6623.0,5101.0,-9.0,-9.0,8.0,1.0
2022-05-13 15:35:23.753582-07:00,2050.4,595.5,1508.8,1414.9,1018.5,1246.2,1554.3,1506.0,3432.2,3438.2,1540.3,1232.8,1222.2,3441.9,1016.8,1353.1,3433.4,3440.7,675.0,1299.0,898.3,537.0,1334.1,1573.9,3441.9,3446.7,751.3,945.8,1177.9,1354.0,1153.3,1021.9,-4.0,4.0,12.0,-7809.0,-8404.0,-9336.0,-7047.0,40.0,-10.0,-9.0,5.0,0.0,-5.0,10928.0,8895.0,6623.0,5100.0,15.0,7.0,-4.0,1.0
2022-05-13 15:35:23.892405-07:00,2054.4,594.7,1495.8,1414.9,1021.9,1246.2,1554.3,1506.0,3438.2,3437.0,1538.5,1232.8,1215.1,3441.9,1016.8,1353.1,3433.4,3440.7,675.0,1305.2,898.3,536.2,1329.6,1575.8,3441.9,3446.7,751.3,946.6,1177.9,1345.8,1150.6,1025.4,-5.0,-2.0,7.0,-7809.0,-8404.0,-9337.0,-7046.0,12.0,7.0,9.0,8.0,-5.0,-2.0,10927.0,8897.0,6624.0,5100.0,10.0,9.0,1.0,1.0
2022-05-13 15:35:24.113664-07:00,2054.4,594.7,1495.8,1411.3,1021.9,1249.7,1545.9,1510.6,3438.2,3437.0,1538.5,1231.9,1215.1,3447.9,1015.9,1351.2,3441.9,3428.6,671.7,1305.2,905.9,536.2,1329.6,1575.8,3437.0,3435.8,746.3,946.6,1177.9,1345.8,1150.6,1025.4,-10.0,4.0,6.0,-7805.0,-8407.0,-9339.0,-7045.0,-8.0,10.0,4.0,3.0,-7.0,-3.0,10924.0,8900.0,6625.0,5099.0,6.0,7.0,-1.0,1.0
2022-05-13 15:35:24.114883-07:00,2051.4,602.0,1486.6,1411.3,1022.8,1249.7,1545.9,1510.6,3439.5,3441.9,1532.0,1231.9,1219.5,3447.9,1015.9,1351.2,3441.9,3428.6,671.7,1300.7,905.9,535.4,1327.8,1575.8,3437.0,3435.8,746.3,951.7,1177.9,1350.3,1148.0,1021.9,-8.0,4.0,3.0,-7805.0,-8406.0,-9340.0,-7045.0,9.0,9.0,-6.0,6.0,-2.0,-8.0,10923.0,8902.0,6626.0,5098.0,9.0,2.0,-3.0,1.0
2022-05-13 15:35:24.203832-07:00,2051.4,602.0,1486.6,1412.2,1022.8,1248.8,1543.1,1510.6,3439.5,3441.9,1532.0,1231.0,1219.5,3438.2,1014.2,1354.0,3440.7,3437.0,676.6,1300.7,905.0,535.4,1327.8,1575.8,3431.0,3449.1,748.8,951.7,1179.7,1350.3,1148.0,1021.9,-2.0,-3.0,2.0,-7805.0,-8406.0,-9339.0,-7045.0,8.0,-13.0,12.0,10.0,-5.0,-3.0,10922.0,8903.0,6626.0,5098.0,18.0,-1.0,0.0,1.0
2022-05-13 15:35:24.205037-07:00,2055.4,592.3,1494.0,1416.7,1028.8,1248.8,1543.1,1510.6,3434.6,3438.2,1540.3,1233.7,1218.6,3438.2,1014.2,1354.0,3440.7,3437.0,676.6,1295.4,911.0,530.6,1325.0,1573.9,3431.0,3449.1,748.8,946.6,1182.3,1347.6,1163.8,1022.8,-6.0,6.0,3.0,-7802.0,-8411.0,-9338.0,-7044.0,-3.0,2.0,4.0,5.0,0.0,-2.0,10920.0,8906.0,6627.0,5096.0,1.0,-8.0,2.0,1.0
2022-05-13 15:35:24.206140-07:00,2055.4,592.3,1494.0,1416.7,1020.2,1247.1,1545.0,1499.5,3434.6,3438.2,1540.3,1233.7,1221.3,3432.2,1015.9,1351.2,3434.6,3439.5,680.7,1293.6,911.0,530.6,1325.0,1573.9,3433.4,3438.2,743.9,944.9,1182.3,1347.6,1163.8,1022.8,-8.0,9.0,-2.0,-7806.0,-8412.0,-9338.0,-7037.0,-4.0,-26.0,-18.0,3.0,-1.0,-5.0,10919.0,8906.0,6627.0,5096.0,-7.0,-7.0,-10.0,1.0
2022-05-13 15:35:24.207878-07:00,2052.4,595.5,1484.7,1413.1,1020.2,1247.1,1545.0,1499.5,3445.5,3445.5,1537.6,1232.8,1221.3,3432.2,1015.9,1351.2,3434.6,3439.5,680.7,1293.6,909.3,537.8,1330.5,1578.6,3433.4,3438.2,743.9,944.9,1173.5,1346.7,1155.9,1019.4,-4.0,11.0,1.0,-7808.0,-8413.0,-9333.0,-7042.0,-19.0,-12.0,-2.0,6.0,1.0,-5.0,10921.0,8907.0,6624.0,5094.0,-14.0,-13.0,-3.0,1.0
2022-05-13 15:35:24.249279-07:00,2050.4,585.9,1490.3,1408.5,1028.8,1243.5,1558.1,1506.9,3438.2,3441.9,1538.5,1232.8,1223.9,3444.3,1015.9,1354.0,3441.9,3438.2,677.4,1298.1,905.0,538.6,1325.9,1569.3,3438.2,3449.1,744.7,946.6,1170.9,1345.8,1153.3,1014.2,-8.0,-2.0,4.0,-7813.0,-8416.0,-9331.0,-7036.0,29.0,-22.0,-1.0,2.0,-2.0,-6.0,10921.0,8909.0,6623.0,5091.0,21.0,-3.0,-6.0,1.0
2022-05-13 15:35:24.250412-07:00,2054.4,585.9,1490.3,1408.5,1021.1,1250.6,1542.2,1507.8,3443.1,3441.9,1538.5,1232.8,1216.8,3440.7,1015.1,1345.8,3449.1,3446.7,671.7,1291.8,905.0,538.6,1325.9,1577.7,3444.3,3437.0,748.0,944.1,1170.9,1345.8,1153.3,1021.9,-12.0,1.0,4.0,-7811.0,-8419.0,-9331.0,-7034.0,-9.0,0.0,18.0,2.0,0.0,3.0,10917.0,8914.0,6625.0,5089.0,6.0,-1.0,5.0,1.0
2022-05-13 15:35:24.292394-07:00,2054.4,590.7,1479.2,1414.0,1021.1,1250.6,1542.2,1515.3,3443.1,3439.5,1534.8,1231.0,1216.8,3440.7,1015.1,1352.1,3437.0,3446.7,671.7,1291.8,906.7,536.2,1329.6,1577.7,3441.9,3437.0,748.0,944.1,1180.6,1354.0,1162.1,1021.9,-7.0,4.0,5.0,-7812.0,-8419.0,-9325.0,-7041.0,-6.0,-15.0,5.0,10.0,-7.0,-1.0,10918.0,8914.0,6624.0,5088.0,-4.0,-8.0,4.0,1.0
2022-05-13 15:35:24.563087-07:00,2046.4,590.7,1479.2,1414.0,1021.1,1240.8,1547.8,1515.3,3433.4,3439.5,1534.8,1231.0,1217.7,3439.5,1018.5,1352.1,3437.0,3438.2,672.5,1295.4,906.7,536.2,1329.6,1574.9,3441.9,3446.7,740.6,948.3,1180.6,1354.0,1162.1,1021.9,-4.0,-4.0,4.0,-7821.0,-8419.0,-9321.0,-7036.0,-18.0,-16.0,-8.0,6.0,-9.0,-3.0,10921.0,8913.0,6621.0,5088.0,-13.0,-9.0,-5.0,1.0
2022-05-13 15:35:24.608814-07:00,2046.4,587.5,1479.2,1408.5,1021.1,1240.8,1547.8,1524.5,3433.4,3433.4,1537.6,1234.6,1217.7,3439.5,1018.5,1347.6,3431.0,3438.2,672.5,1295.4,905.9,533.8,1325.0,1574.9,3444.3,3446.7,740.6,948.3,1183.2,1344.0,1151.5,1021.9,-5.0,13.0,11.0,-7824.0,-8424.0,-9314.0,-7036.0,-9.0,-2.0,13.0,7.0,0.0,-4.0,10922.0,8913.0,6620.0,5088.0,-3.0,-9.0,4.0,1.0
2022-05-13 15:35:24.653784-07:00,2052.4,587.5,1479.2,1408.5,1022.8,1249.7,1549.7,1524.5,3441.9,3433.4,1537.6,1234.6,1216.8,3438.2,1020.2,1347.6,3431.0,3439.5,676.6,1294.5,905.9,533.8,1325.0,1578.6,3444.3,3438.2,748.8,939.0,1183.2,1344.0,1151.5,1023.7,-12.0,4.0,2.0,-7822.0,-8426.0,-9315.0,-7035.0,1.0,-7.0,-4.0,1.0,0.0,0.0,10921.0,8913.0,6621.0,5087.0,9.0,5.0,-9.0,1.0
2022-05-13 15:35:24.789628-07:00,2052.4,600.4,1481.9,1409.4,1022.8,1249.7,1552.5,1530.1,3441.9,3439.5,1539.4,1235.5,1216.8,3438.2,1017.6,1353.1,3438.2,3444.3,676.6,1294.5,905.9,535.4,1325.0,1578.6,3443.1,3440.7,748.8,939.0,1176.2,1346.7,1153.3,1023.7,-4.0,0.0,5.0,-7821.0,-8427.0,-9313.0,-7037.0,14.0,10.0,21.0,4.0,0.0,-10.0,10921.0,8914.0,6621.0,5087.0,16.0,5.0,3.0,1.0
2022-05-13 15:35:24.791239-07:00,2053.4,581.8,1481.9,1409.4,1015.9,1239.1,1552.5,1530.1,3437.0,3440.7,1539.4,1235.5,1222.2,3439.5,1017.6,1353.1,3438.2,3444.3,671.7,1299.0,905.9,535.4,1324.1,1574.9,3443.1,3440.7,745.5,946.6,1176.2,1346.7,1155.9,1018.5,-8.0,17.0,-5.0,-7812.0,-8431.0,-9315.0,-7040.0,-9.0,-24.0,-7.0,6.0,3.0,-6.0,10916.0,8920.0,6624.0,5084.0,-3.0,3.0,-6.0,1.0
2022-05-13 15:35:24.881662-07:00,2046.4,584.3,1470.9,1417.6,1017.6,1238.2,1555.3,1541.3,3437.0,3447.9,1529.2,1231.0,1220.4,3440.7,1017.6,1356.7,3431.0,3438.2,675.8,1292.7,904.2,536.2,1324.1,1569.3,3451.6,3444.3,743.0,944.9,1185.9,1348.5,1150.6,1015.9,-5.0,7.0,3.0,-7818.0,-8438.0,-9310.0,-7032.0,-3.0,-24.0,0.0,6.0,-3.0,-4.0,10915.0,8922.0,6626.0,5080.0,-4.0,-10.0,-4.0,1.0
2022-05-13 15:35:24.882812-07:00,2046.4,584.3,1465.4,1404.0,1017.6,1238.2,1559.9,1543.1,3437.0,3447.9,1529.2,1230.2,1220.4,3440.7,1017.6,1354.9,3440.7,3432.2,675.8,1292.7,906.7,532.2,1324.1,1569.3,3444.3,3439.5,743.0,944.9,1167.4,1343.1,1150.6,1015.9,-4.0,10.0,2.0,-7824.0,-8443.0,-9305.0,-7025.0,-4.0,-15.0,-12.0,4.0,3.0,-13.0,10913.0,8924.0,6626.0,5079.0,-2.0,-9.0,-10.0,1.0
2022-05-13 15:35:24.968062-07:00,2055.4,589.9,1469.0,1403.0,1015.1,1241.7,1559.9,1544.1,3438.2,3439.5,1535.7,1229.3,1221.3,3445.5,1017.6,1357.6,3434.6,3438.2,674.2,1290.0,905.9,533.0,1322.3,1571.1,3444.3,3437.0,743.0,943.2,1176.2,1342.2,1154.2,1011.6,-10.0,5.0,5.0,-7825.0,-8447.0,-9306.0,-7019.0,-3.0,-2.0,-21.0,5.0,0.0,0.0,10912.0,8928.0,6626.0,5074.0,-5.0,7.0,-8.0,1.0
2022-05-13 15:35:24.969692-07:00,2055.4,589.9,1469.0,1405.8,1015.1,1243.5,1572.1,1561.8,3438.2,3439.5,1535.7,1228.4,1221.3,3439.5,1020.2,1355.8,3428.6,3434.6,677.4,1290.0,912.7,533.0,1322.3,1571.1,3435.8,3428.6,735.6,943.2,1176.2,1342.2,1154.2,1011.6,-5.0,6.0,10.0,-7824.0,-8449.0,-9310.0,-7012.0,-2.0,-3.0,0.0,5.0,-1.0,-7.0,10911.0,8929.0,6628.0,5072.0,-2.0,2.0,-7.0,1.0
2022-05-13 15:35:24.971065-07:00,2046.4,592.3,1469.0,1405.8,1015.1,1243.5,1572.1,1561.8,3437.0,3444.3,1531.0,1228.4,1216.8,3439.5,1020.2,1355.8,3428.6,3434.6,677.4,1284.6,912.7,530.6,1323.2,1574.9,3435.8,3428.6,735.6,939.0,1176.2,1346.7,1150.6,1014.2,-10.0,8.0,-4.0,-7824.0,-8447.0,-9309.0,-7015.0,-3.0,-10.0,-8.0,1.0,-3.0,2.0,10911.0,8929.0,6628.0,5072.0,-6.0,-5.0,-7.0,1.0
2022-05-13 15:35:25.012017-07:00,2046.4,592.3,1469.0,1396.7,1015.1,1239.9,1571.1,1571.1,3437.0,3444.3,1531.0,1235.5,1216.8,3443.1,1011.6,1351.2,3432.2,3432.2,678.2,1284.6,912.7,530.6,1323.2,1574.9,3443.1,3449.1,741.4,939.0,1177.9,1346.7,1150.6,1014.2,-5.0,-3.0,10.0,-7831.0,-8450.0,-9311.0,-7002.0,27.0,-17.0,-11.0,6.0,0.0,-12.0,10912.0,8928.0,6632.0,5067.0,14.0,2.0,-10.0,1.0
2022-05-13 15:35:25.237999-07:00,2054.4,585.1,1460.8,1401.2,1018.5,1239.9,1571.1,1571.1,3439.5,3440.7,1540.3,1227.5,1221.3,3443.1,1011.6,1351.2,3432.2,3432.2,678.2,1292.7,907.6,537.0,1322.3,1570.2,3443.1,3449.1,741.4,944.9,1178.8,1350.3,1148.9,1014.2,-13.0,-14.0,1.0,-7827.0,-8454.0,-9313.0,-6998.0,85.0,-30.0,17.0,8.0,-12.0,6.0,10909.0,8931.0,6635.0,5065.0,46.0,17.0,9.0,1.0
2022-05-13 15:35:25.239080-07:00,2054.4,585.1,1460.8,1401.2,1009.9,1240.8,1574.9,1570.2,3439.5,3440.7,1540.3,1227.5,1217.7,3440.7,1015.1,1354.9,3441.9,3439.5,672.5,1287.3,907.6,537.0,1322.3,1570.2,3438.2,3445.5,738.1,939.8,1178.8,1350.3,1148.9,1014.2,20.0,-59.0,-11.0,-7800.0,-8511.0,-9325.0,-6942.0,391.0,-70.0,26.0,23.0,-22.0,-23.0,10879.0,8955.0,6654.0,5062.0,222.0,87.0,56.0,1.0
2022-05-13 15:35:25.507690-07:00,2050.4,597.9,1470.9,1397.6,1009.9,1240.8,1574.9,1570.2,3445.5,3441.9,1530.1,1235.5,1217.7,3440.7,1015.1,1354.9,3441.9,3439.5,672.5,1287.3,905.9,535.4,1328.7,1574.9,3438.2,3445.5,738.1,939.8,1174.4,1343.1,1152.4,1042.6,-30.0,-30.0,14.0,-7682.0,-8647.0,-9396.0,-6809.0,581.0,-91.0,127.0,-7.0,-3.0,13.0,10755.0,9054.0,6725.0,5055.0,539.0,187.0,102.0,1.0
2022-05-13 15:35:25.508798-07:00,2050.4,597.9,1470.9,1397.6,1009.9,1258.7,1604.9,1607.7,3445.5,3441.9,1530.1,1235.5,1219.5,3439.5,1017.6,1363.9,3434.6,3441.9,675.8,1288.2,905.9,535.4,1328.7,1574.9,3433.4,3441.9,739.7,944.1,1174.4,1343.1,1152.4,1042.6,-25.0,11.0,-32.0,-7549.0,-8814.0,-9421.0,-6709.0,504.0,-80.0,211.0,6.0,-15.0,26.0,10570.0,9199.0,6829.0,5045.0,588.0,271.0,120.0,1.0
2022-05-13 15:35:25.509865-07:00,2038.4,661.1,1474.6,1393.9,1009.9,1258.7,1604.9,1607.7,3449.1,3449.1,1537.6,1227.5,1219.5,3439.5,1017.6,1363.9,3434.6,3441.9,675.8,1288.2,898.3,530.6,1339.5,1570.2,3433.4,3441.9,739.7,944.1,1177.9,1338.6,1149.8,1027.1,0.0,115.0,-8.0,-7427.0,-9023.0,-9460.0,-6509.0,750.0,-281.0,41.0,-1.0,63.0,-40.0,10363.0,9360.0,6955.0,5005.0,518.0,154.0,24.0,1.0
2022-05-13 15:35:25.598484-07:00,2044.4,661.1,1474.6,1393.9,997.9,1276.5,1568.3,1573.0,3438.2,3449.1,1537.6,1227.5,1224.8,3437.0,1013.3,1354.9,3449.1,3439.5,679.1,1295.4,898.3,530.6,1339.5,1574.9,3441.9,3449.1,750.5,954.3,1177.9,1338.6,1149.8,1021.9,12.0,-57.0,25.0,-7429.0,-9072.0,-9467.0,-6429.0,-189.0,11.0,-14.0,12.0,-43.0,-23.0,10285.0,9415.0,7004.0,4996.0,20.0,85.0,63.0,1.0
2022-05-13 15:35:25.599645-07:00,2044.4,666.8,1365.7,1373.9,997.9,1276.5,1568.3,1533.8,3438.2,3449.1,1543.1,1231.9,1224.8,3437.0,1013.3,1356.7,3441.9,3439.5,679.1,1295.4,896.6,536.2,1374.8,1574.9,3443.1,3449.1,750.5,954.3,1178.8,1340.4,1147.1,1021.9,-34.0,46.0,16.0,-7371.0,-9091.0,-9490.0,-6434.0,395.0,88.0,86.0,-4.0,21.0,11.0,10221.0,9460.0,7028.0,5008.0,288.0,75.0,60.0,1.0
2022-05-13 15:35:25.600365-07:00,2044.4,666.8,1365.7,1373.9,997.9,1276.5,1568.3,1533.8,3438.2,3449.1,1543.1,1231.9,1224.8,3437.0,1013.3,1356.7,3441.9,3439.5,679.1,1295.4,896.6,536.2,1374.8,1574.9,3443.1,3449.1,750.5,954.3,1178.8,1340.4,1147.1,1021.9,-34.0,46.0,16.0,-7371.0,-9091.0,-9490.0,-6434.0,395.0,88.0,86.0,-4.0,21.0,11.0,10221.0,9460.0,7028.0,5008.0,288.0,75.0,60.0,1.0
2022-05-13 15:35:25.601059-07:00,2044.4,666.8,1365.7,1373.9,997.9,1276.5,1568.3,1533.8,3438.2,3449.1,1543.1,1231.9,1224.8,3437.0,1013.3,1356.7,3441.9,3439.5,679.1,1295.4,896.6,536.2,1374.8,1574.9,3443.1,3449.1,750.5,954.3,1178.8,1340.4,1147.1,1021.9,-34.0,46.0,16.0,-7371.0,-9091.0,-9490.0,-6434.0,395.0,88.0,86.0,-4.0,21.0,11.0,10221.0,9460.0,7028.0,5008.0,288.0,75.0,60.0,1.0
2022-05-13 15:35:25.602113-07:00,2025.4,657.9,1280.1,1354.9,959.4,1287.3,1506.9,1504.1,3434.6,3435.8,1522.7,1230.2,1217.7,3439.5,1018.5,1345.8,3439.5,3444.3,675.8,1288.2,894.1,537.8,1377.5,1573.0,3441.9,3444.3,746.3,956.0,1182.3,1332.3,1138.4,1006.5,-6.0,40.0,23.0,-7298.0,-9128.0,-9543.0,-6388.0,64.0,-14.0,-17.0,2.0,23.0,-5.0,10173.0,9499.0,7057.0,4993.0,31.0,6.0,-11.0,1.0
2022-05-13 15:35:25.779347-07:00,2025.4,657.9,1264.0,1346.7,959.4,1287.3,1499.5,1508.8,3434.6,3435.8,1523.6,1232.8,1217.7,3439.5,1009.9,1351.2,3440.7,3433.4,675.8,1288.2,898.3,539.4,1377.5,1573.0,3438.2,3437.0,746.3,956.0,1180.6,1335.9,1138.4,1006.5,-7.0,-6.0,3.0,-7304.0,-9107.0,-9542.0,-6411.0,-49.0,51.0,21.0,9.0,-16.0,-1.0,10180.0,9490.0,7055.0,4997.0,-18.0,10.0,0.0,1.0
2022-05-13 15:35:25.782744-07:00,2025.4,653.0,1264.0,1346.7,970.5,1280.1,1499.5,1508.8,3437.0,3434.6,1523.6,1232.8,1215.1,3438.2,1009.9,1351.2,3440.7,3433.4,672.5,1289.1,898.3,539.4,1379.4,1568.3,3438.2,3437.0,752.1,952.6,1180.6,1335.9,1144.5,1013.3,-15.0,-1.0,14.0,-7288.0,-9105.0,-9553.0,-6416.0,39.0,40.0,-14.0,0.0,6.0,-7.0,10170.0,9494.0,7063.0,4998.0,20.0,21.0,3.0,1.0
2022-05-13 15:35:25.783856-07:00,2025.4,653.0,1248.0,1336.8,970.5,1280.1,1500.4,1489.3,3437.0,3434.6,1514.3,1231.9,1215.1,3438.2,1019.4,1349.4,3432.2,3431.0,672.5,1289.1,900.0,537.8,1379.4,1568.3,3440.7,3444.3,752.1,952.6,1189.4,1336.8,1144.5,1013.3,-7.0,30.0,-7.0,-7267.0,-9105.0,-9555.0,-6438.0,-21.0,71.0,63.0,12.0,-1.0,-2.0,10163.0,9499.0,7061.0,5006.0,-9.0,7.0,27.0,1.0
2022-05-13 15:35:25.784914-07:00,2023.4,649.7,1248.0,1336.8,956.0,1271.2,1500.4,1489.3,3439.5,3443.1,1514.3,1231.9,1216.0,3439.5,1019.4,1349.4,3432.2,3431.0,673.3,1283.7,900.0,537.8,1373.9,1574.9,3440.7,3444.3,738.9,952.6,1189.4,1336.8,1135.7,1003.9,0.0,6.0,5.0,-7270.0,-9096.0,-9551.0,-6450.0,-18.0,-7.0,-32.0,4.0,-2.0,-15.0,10166.0,9494.0,7061.0,5010.0,-12.0,6.0,-19.0,1.0
2022-05-13 15:35:26.049893-07:00,2023.4,649.7,1241.7,1341.3,956.0,1261.3,1484.7,1508.8,3439.5,3443.1,1522.7,1237.3,1216.0,3441.9,1007.3,1355.8,3437.0,3428.6,675.0,1283.7,891.5,537.8,1373.9,1574.9,3441.9,3435.8,733.2,952.6,1177.9,1334.1,1135.7,1003.9,-12.0,6.0,13.0,-7264.0,-9098.0,-9559.0,-6444.0,26.0,13.0,14.0,-1.0,-1.0,-5.0,10163.0,9497.0,7065.0,5005.0,18.0,-1.0,-6.0,1.0
2022-05-13 15:35:26.051775-07:00,2022.4,650.5,1238.2,1341.3,953.4,1261.3,1484.7,1508.8,3447.9,3450.4,1519.0,1237.3,1216.8,3441.9,1007.3,1355.8,3437.0,3428.6,675.0,1289.1,891.5,534.6,1373.0,1568.3,3441.9,3435.8,733.2,952.6,1177.9,1335.0,1145.4,1008.2,-14.0,4.0,0.0,-7258.0,-9095.0,-9563.0,-6449.0,7.0,13.0,6.0,1.0,2.0,-8.0,10162.0,9498.0,7065.0,5005.0,4.0,-6.0,-4.0,1.0
2022-05-13 15:35:26.272789-07:00,2022.4,650.5,1238.2,1354.0,953.4,1259.6,1494.0,1485.6,3447.9,3450.4,1519.0,1231.9,1216.8,3437.0,1004.8,1356.7,3428.6,3446.7,680.7,1289.1,893.2,534.6,1373.0,1568.3,3439.5,3438.2,736.5,952.6,1175.3,1335.0,1145.4,1008.2,-10.0,-2.0,7.0,-7259.0,-9094.0,-9561.0,-6453.0,-23.0,-1.0,13.0,5.0,-5.0,-7.0,10167.0,9497.0,7060.0,5004.0,-21.0,-20.0,-3.0,1.0
2022-05-13 15:35:26.274042-07:00,2011.4,644.9,1242.6,1354.0,955.1,1259.6,1494.0,1485.6,3449.1,3433.4,1519.9,1231.9,1220.4,3437.0,1004.8,1356.7,3428.6,3446.7,680.7,1281.0,893.2,536.2,1372.1,1574.9,3439.5,3438.2,736.5,950.0,1175.3,1335.9,1139.2,1011.6,-2.0,7.0,1.0,-7258.0,-9094.0,-9557.0,-6460.0,6.0,10.0,-4.0,7.0,1.0,-5.0,10170.0,9499.0,7055.0,4999.0,7.0,-16.0,-10.0,1.0
2022-05-13 15:35:26.275133-07:00,2011.4,644.9,1242.6,1331.4,955.1,1248.8,1485.6,1475.5,3449.1,3433.4,1519.9,1232.8,1220.4,3435.8,1012.5,1349.4,3433.4,3435.8,675.0,1281.0,899.1,536.2,1372.1,1574.9,3435.8,3432.2,735.6,950.0,1177.0,1335.9,1139.2,1011.6,-8.0,0.0,18.0,-7253.0,-9097.0,-9567.0,-6447.0,17.0,5.0,-9.0,6.0,0.0,-3.0,10170.0,9501.0,7058.0,4992.0,4.0,-3.0,-9.0,1.0
2022-05-13 15:35:26.276194-07:00,2011.4,644.9,1239.1,1330.5,947.5,1248.8,1485.6,1475.5,3438.2,3441.9,1516.2,1230.2,1219.5,3435.8,1012.5,1349.4,3433.4,3435.8,675.0,1287.3,884.8,533.8,1371.2,1570.2,3435.8,3432.2,735.6,952.6,1172.6,1339.5,1148.9,1004.8,2.0,9.0,2.0,-7252.0,-9096.0,-9565.0,-6451.0,-4.0,7.0,6.0,14.0,-10.0,-13.0,10171.0,9501.0,7057.0,4994.0,-3.0,1.0,-7.0,1.0
2022-05-13 15:35:26.317997-07:00,2011.4,644.9,1239.1,1330.5,954.3,1243.5,1485.6,1485.6,3438.2,3441.9,1516.2,1230.2,1216.8,3443.1,1015.1,1351.2,3438.2,3438.2,670.9,1287.3,884.8,533.8,1371.2,1570.2,3440.7,3444.3,734.0,952.6,1172.6,1339.5,1148.9,1004.8,-12.0,4.0,12.0,-7250.0,-9093.0,-9577.0,-6441.0,20.0,8.0,-29.0,1.0,2.0,-2.0,10169.0,9500.0,7062.0,4990.0,6.0,10.0,-15.0,1.0
2022-05-13 15:35:26.318773-07:00,2011.4,644.9,1239.1,1330.5,954.3,1243.5,1485.6,1485.6,3438.2,3441.9,1516.2,1230.2,1216.8,3443.1,1015.1,1351.2,3438.2,3438.2,670.9,1287.3,884.8,533.8,1371.2,1570.2,3440.7,3444.3,734.0,952.6,1172.6,1339.5,1148.9,1004.8,-12.0,4.0,12.0,-7250.0,-9093.0,-9577.0,-6441.0,20.0,8.0,-29.0,1.0,2.0,-2.0,10169.0,9500.0,7062.0,4990.0,6.0,10.0,-15.0,1.0
2022-05-13 15:35:26.407593-07:00,2011.4,646.5,1235.5,1331.4,957.7,1229.3,1480.1,1480.1,3439.5,3435.8,1506.9,1228.4,1217.7,3434.6,1012.5,1345.8,3439.5,3434.6,673.3,1289.1,891.5,534.6,1348.5,1573.0,3444.3,3439.5,731.5,950.9,1175.3,1339.5,1141.0,1004.8,-9.0,22.0,6.0,-7242.0,-9103.0,-9570.0,-6445.0,55.0,4.0,1.0,5.0,14.0,-5.0,10166.0,9505.0,7063.0,4987.0,28.0,7.0,-2.0,1.0
2022-05-13 15:35:26.496927-07:00,2008.4,648.1,1229.3,1329.6,957.7,1229.3,1480.1,1485.6,3438.2,3444.3,1515.3,1234.6,1217.7,3434.6,1012.5,1353.1,3434.6,3434.6,673.3,1289.1,891.5,538.6,1345.8,1578.6,3433.4,3439.5,731.5,950.9,1176.2,1327.8,1154.2,1006.5,-3.0,-4.0,5.0,-7243.0,-9102.0,-9572.0,-6444.0,-9.0,-1.0,-3.0,11.0,-8.0,-12.0,10164.0,9506.0,7063.0,4987.0,-4.0,-1.0,-2.0,1.0
2022-05-13 15:35:26.512619-07:00,2007.4,648.1,1229.3,1329.6,950.0,1235.5,1479.2,1485.6,3439.5,3444.3,1515.3,1234.6,1216.8,3435.8,1009.0,1353.1,3434.6,3438.2,676.6,1284.6,891.5,538.6,1345.8,1575.8,3433.4,3441.9,731.5,939.0,1176.2,1327.8,1154.2,1004.8,-1.0,-5.0,6.0,-7233.0,-9103.0,-9579.0,-6442.0,46.0,39.0,-9.0,7.0,-7.0,-4.0,10160.0,9511.0,7064.0,4986.0,24.0,0.0,12.0,1.0
2022-05-13 15:35:26.513767-07:00,2007.4,643.2,1224.8,1334.1,950.0,1235.5,1479.2,1493.0,3439.5,3440.7,1509.7,1230.2,1216.8,3435.8,1009.0,1358.5,3449.1,3438.2,676.6,1284.6,891.5,533.8,1345.8,1575.8,3439.5,3441.9,731.5,939.0,1179.7,1331.4,1142.7,1004.8,-17.0,24.0,19.0,-7212.0,-9104.0,-9596.0,-6437.0,58.0,46.0,-15.0,5.0,11.0,13.0,10147.0,9521.0,7070.0,4983.0,37.0,18.0,-2.0,1.0
2022-05-13 15:35:26.595656-07:00,2001.5,643.2,1224.8,1334.1,950.9,1243.5,1474.6,1493.0,3439.5,3440.7,1509.7,1230.2,1215.1,3433.4,1015.1,1358.5,3449.1,3437.0,675.8,1281.0,891.5,533.8,1345.8,1573.9,3439.5,3449.1,737.3,944.1,1179.7,1331.4,1142.7,1000.5,-12.0,-4.0,0.0,-7211.0,-9096.0,-9604.0,-6438.0,-18.0,2.0,0.0,2.0,-6.0,-11.0,10144.0,9520.0,7075.0,4986.0,-12.0,12.0,-10.0,1.0
2022-05-13 15:35:26.695166-07:00,2001.5,640.0,1226.6,1324.1,950.9,1243.5,1474.6,1480.1,3439.5,3438.2,1503.2,1231.9,1215.1,3433.4,1015.1,1352.1,3440.7,3437.0,675.8,1281.0,885.6,538.6,1348.5,1573.9,3439.5,3449.1,737.3,944.1,1183.2,1339.5,1141.9,1000.5,-9.0,1.0,0.0,-7208.0,-9099.0,-9606.0,-6435.0,46.0,9.0,2.0,2.0,0.0,-7.0,10139.0,9524.0,7078.0,4984.0,22.0,-7.0,-3.0,1.0
2022-05-13 15:35:26.768218-07:00,1996.5,643.2,1226.6,1324.1,948.3,1233.7,1470.0,1480.1,3443.1,3433.4,1503.2,1231.9,1216.0,3439.5,1009.0,1352.1,3440.7,3437.0,672.5,1284.6,885.6,538.6,1347.6,1576.8,3439.5,3439.5,730.7,961.1,1183.2,1339.5,1144.5,1000.5,-7.0,-5.0,9.0,-7210.0,-9103.0,-9606.0,-6428.0,-25.0,-28.0,8.0,4.0,-7.0,-9.0,10140.0,9525.0,7076.0,4982.0,-19.0,-22.0,-2.0,1.0
2022-05-13 15:35:26.812919-07:00,1996.5,643.2,1216.8,1331.4,948.3,1233.7,1473.6,1483.8,3443.1,3433.4,1507.8,1233.7,1216.0,3439.5,1015.1,1342.2,3429.8,3438.2,672.5,1284.6,889.8,537.8,1347.6,1576.8,3440.7,3443.1,730.7,961.1,1180.6,1341.3,1144.5,1000.5,-4.0,2.0,13.0,-7216.0,-9106.0,-9596.0,-6433.0,13.0,22.0,14.0,5.0,-2.0,2.0,10144.0,9527.0,7069.0,4980.0,13.0,-16.0,15.0,1.0
2022-05-13 15:35:26.902560-07:00,2008.4,644.0,1216.8,1331.4,939.8,1245.3,1473.6,1483.8,3435.8,3443.1,1507.8,1233.7,1212.4,3440.7,1015.1,1342.2,3429.8,3438.2,675.0,1278.3,889.8,537.8,1348.5,1575.8,3440.7,3443.1,732.3,948.3,1180.6,1341.3,1143.6,1014.2,-13.0,6.0,18.0,-7209.0,-9107.0,-9600.0,-6433.0,54.0,-3.0,18.0,2.0,-4.0,0.0,10140.0,9534.0,7068.0,4976.0,31.0,-4.0,2.0,1.0
2022-05-13 15:35:26.904130-07:00,2008.4,644.0,1217.7,1327.8,939.8,1245.3,1467.2,1480.1,3435.8,3443.1,1507.8,1231.9,1212.4,3440.7,1010.8,1350.3,3438.2,3437.0,675.0,1278.3,892.4,539.4,1348.5,1575.8,3435.8,3443.1,732.3,948.3,1184.1,1329.6,1143.6,1014.2,-6.0,-3.0,8.0,-7199.0,-9111.0,-9606.0,-6429.0,11.0,40.0,-14.0,6.0,-18.0,0.0,10136.0,9539.0,7070.0,4973.0,-11.0,-4.0,-6.0,1.0
2022-05-13 15:35:26.906605-07:00,2004.5,639.2,1217.7,1327.8,955.1,1239.9,1467.2,1480.1,3437.0,3445.5,1507.8,1231.9,1222.2,3438.2,1010.8,1350.3,3438.2,3437.0,673.3,1286.4,892.4,539.4,1347.6,1570.2,3435.8,3443.1,734.0,950.0,1184.1,1329.6,1142.7,993.6,-9.0,7.0,0.0,-7191.0,-9109.0,-9617.0,-6423.0,-2.0,-17.0,-2.0,1.0,-1.0,-8.0,10132.0,9543.0,7073.0,4970.0,9.0,-4.0,-8.0,1.0
2022-05-13 15:35:26.907721-07:00,2004.5,639.2,1212.4,1325.9,955.1,1234.6,1462.6,1481.9,3437.0,3445.5,1511.5,1228.4,1222.2,3441.9,1013.3,1352.1,3433.4,3435.8,673.3,1286.4,886.5,539.4,1347.6,1570.2,3437.0,3445.5,730.7,950.0,1174.4,1333.2,1142.7,993.6,-9.0,14.0,1.0,-7196.0,-9112.0,-9609.0,-6427.0,34.0,9.0,12.0,1.0,3.0,1.0,10135.0,9544.0,7069.0,4967.0,12.0,-12.0,6.0,1.0
2022-05-13 15:35:27.174027-07:00,1994.5,640.8,1208.0,1325.9,947.5,1234.6,1462.6,1481.9,3445.5,3440.7,1515.3,1228.4,1212.4,3441.9,1013.3,1352.1,3433.4,3435.8,673.3,1277.4,886.5,536.2,1344.9,1568.3,3437.0,3445.5,730.7,950.0,1174.4,1331.4,1141.0,999.6,-4.0,-1.0,8.0,-7197.0,-9118.0,-9608.0,-6417.0,-35.0,-45.0,9.0,5.0,-2.0,-8.0,10136.0,9545.0,7066.0,4965.0,-26.0,-19.0,-6.0,1.0
2022-05-13 15:35:27.177189-07:00,1994.5,640.8,1208.0,1325.0,947.5,1239.9,1483.8,1476.4,3445.5,3440.7,1515.3,1225.7,1212.4,3440.7,1010.8,1349.4,3437.0,3432.2,676.6,1277.4,889.0,536.2,1344.9,1568.3,3449.1,3437.0,724.1,950.0,1174.4,1331.4,1141.0,999.6,-6.0,5.0,3.0,-7204.0,-9121.0,-9599.0,-6418.0,44.0,5.0,13.0,4.0,-1.0,-3.0,10141.0,9544.0,7062.0,4964.0,20.0,-3.0,6.0,1.0
2022-05-13 15:35:27.178369-07:00,1998.5,649.7,1210.6,1325.0,943.2,1239.9,1483.8,1476.4,3438.2,3435.8,1501.4,1225.7,1212.4,3440.7,1010.8,1349.4,3437.0,3432.2,676.6,1285.5,889.0,533.8,1347.6,1576.8,3449.1,3437.0,724.1,956.0,1174.4,1331.4,1135.7,996.2,-5.0,14.0,10.0,-7197.0,-9132.0,-9605.0,-6402.0,-8.0,-20.0,-10.0,3.0,1.0,-7.0,10137.0,9548.0,7065.0,4960.0,3.0,-3.0,-10.0,1.0
2022-05-13 15:35:27.179438-07:00,1998.5,649.7,1210.6,1325.9,943.2,1243.5,1470.9,1474.6,3438.2,3435.8,1501.4,1223.9,1212.4,3440.7,1010.8,1347.6,3439.5,3427.4,675.8,1285.5,892.4,533.8,1347.6,1576.8,3434.6,3435.8,733.2,956.0,1175.3,1331.4,1135.7,996.2,-2.0,-4.0,9.0,-7206.0,-9125.0,-9600.0,-6409.0,20.0,12.0,2.0,9.0,-10.0,-5.0,10142.0,9542.0,7062.0,4963.0,-7.0,-6.0,6.0,1.0
2022-05-13 15:35:27.219756-07:00,2001.5,640.8,1204.4,1329.6,933.9,1243.5,1470.9,1474.6,3435.8,3438.2,1499.5,1231.9,1219.5,3440.7,1010.8,1347.6,3439.5,3427.4,675.8,1283.7,887.3,537.8,1341.3,1566.5,3434.6,3435.8,733.2,948.3,1175.3,1332.3,1111.2,1000.5,-8.0,9.0,5.0,-7201.0,-9128.0,-9605.0,-6404.0,-16.0,-10.0,-2.0,3.0,2.0,0.0,10139.0,9546.0,7064.0,4961.0,1.0,-6.0,-1.0,1.0
2022-05-13 15:35:27.261921-07:00,2001.5,640.8,1204.4,1329.6,933.9,1243.5,1470.9,1474.6,3435.8,3438.2,1499.5,1231.9,1219.5,3440.7,1010.8,1347.6,3439.5,3427.4,675.8,1283.7,887.3,537.8,1341.3,1566.5,3434.6,3435.8,733.2,948.3,1175.3,1332.3,1111.2,1000.5,-8.0,9.0,5.0,-7201.0,-9128.0,-9605.0,-6404.0,-16.0,-10.0,-2.0,3.0,2.0,0.0,10139.0,9546.0,7064.0,4961.0,1.0,-6.0,-1.0,1.0
2022-05-13 15:35:27.443686-07:00,1996.5,633.5,1214.2,1325.0,948.3,1244.4,1458.9,1482.9,3437.0,3446.7,1504.1,1235.5,1220.4,3441.9,1006.5,1356.7,3438.2,3439.5,673.3,1285.5,889.8,541.0,1348.5,1573.0,3439.5,3434.6,733.2,946.6,1178.8,1335.0,1140.1,997.0,-8.0,5.0,7.0,-7211.0,-9124.0,-9600.0,-6406.0,6.0,3.0,7.0,1.0,3.0,-5.0,10143.0,9544.0,7060.0,4961.0,10.0,-5.0,-6.0,1.0
2022-05-13 15:35:27.579355-07:00,1996.5,633.5,1214.2,1325.0,939.0,1246.2,1455.2,1480.1,3437.0,3446.7,1504.1,1235.5,1214.2,3438.2,1009.9,1354.0,3433.4,3439.5,675.8,1279.2,889.8,541.0,1348.5,1573.0,3445.5,3438.2,725.8,955.1,1178.8,1335.0,1140.1,997.0,-4.0,2.0,8.0,-7214.0,-9122.0,-9596.0,-6411.0,-19.0,9.0,3.0,9.0,-5.0,-7.0,10143.0,9544.0,7060.0,4961.0,-5.0,-8.0,-1.0,1.0
2022-05-13 15:35:27.625195-07:00,1992.5,639.2,1216.8,1321.4,939.0,1246.2,1455.2,1480.1,3437.0,3434.6,1513.4,1223.9,1214.2,3438.2,1009.9,1354.0,3433.4,3439.5,675.8,1279.2,896.6,535.4,1337.7,1577.7,3445.5,3438.2,725.8,955.1,1177.9,1335.9,1147.1,994.5,0.0,3.0,0.0,-7218.0,-9120.0,-9596.0,-6410.0,10.0,-12.0,-15.0,7.0,-3.0,-9.0,10145.0,9543.0,7061.0,4959.0,6.0,-6.0,-11.0,1.0
2022-05-13 15:35:27.668901-07:00,1992.5,639.2,1216.8,1321.4,940.7,1251.5,1463.5,1478.3,3437.0,3434.6,1513.4,1223.9,1217.7,3438.2,1011.6,1354.0,3439.5,3440.7,675.8,1285.5,896.6,535.4,1337.7,1577.7,3445.5,3439.5,724.1,955.1,1177.9,1335.9,1147.1,994.5,-12.0,-5.0,5.0,-7219.0,-9120.0,-9597.0,-6408.0,7.0,-5.0,15.0,2.0,-9.0,3.0,10145.0,9543.0,7062.0,4958.0,2.0,-4.0,2.0,1.0
2022-05-13 15:35:27.758373-07:00,1997.5,636.7,1217.7,1323.2,940.7,1251.5,1463.5,1477.3,3441.9,3438.2,1503.2,1232.8,1217.7,3438.2,1011.6,1359.4,3443.1,3440.7,675.8,1285.5,887.3,538.6,1340.4,1570.2,3441.9,3439.5,724.1,955.1,1179.7,1337.7,1142.7,997.0,-5.0,2.0,7.0,-7220.0,-9127.0,-9594.0,-6400.0,10.0,-18.0,-1.0,4.0,0.0,-6.0,10143.0,9545.0,7063.0,4957.0,3.0,-8.0,-4.0,1.0
2022-05-13 15:35:27.760006-07:00,1992.5,636.7,1217.7,1323.2,950.0,1239.1,1458.0,1477.3,3441.9,3438.2,1503.2,1232.8,1220.4,3428.6,1006.5,1359.4,3443.1,3437.0,673.3,1277.4,887.3,538.6,1340.4,1570.2,3441.9,3444.3,727.4,942.4,1179.7,1337.7,1142.7,993.6,-11.0,6.0,10.0,-7216.0,-9131.0,-9597.0,-6394.0,42.0,2.0,-4.0,4.0,-7.0,3.0,10140.0,9548.0,7064.0,4954.0,26.0,6.0,3.0,1.0
2022-05-13 15:35:27.761116-07:00,1989.5,639.2,1209.7,1326.8,943.2,1247.1,1458.0,1462.6,3433.4,3434.6,1507.8,1223.9,1216.0,3441.9,1005.6,1349.4,3437.0,3440.7,669.3,1282.8,884.8,537.8,1344.9,1574.9,3441.9,3435.8,720.0,979.0,1177.0,1335.9,1135.7,993.6,-9.0,2.0,2.0,-7209.0,-9124.0,-9608.0,-6396.0,7.0,21.0,-12.0,3.0,5.0,-2.0,10139.0,9548.0,7067.0,4953.0,7.0,7.0,-10.0,1.0
2022-05-13 15:35:27.762186-07:00,1995.5,639.2,1209.7,1326.8,944.9,1252.4,1461.7,1462.6,3435.8,3428.6,1507.8,1223.9,1218.6,3431.0,1009.9,1349.4,3437.0,3438.2,672.5,1279.2,884.8,537.8,1339.5,1571.1,3441.9,3437.0,729.0,939.8,1177.0,1335.9,1142.7,992.7,-14.0,36.0,2.0,-7210.0,-9113.0,-9608.0,-6411.0,-66.0,38.0,-9.0,-5.0,8.0,-12.0,10154.0,9537.0,7061.0,4952.0,-92.0,-44.0,-27.0,1.0
2022-05-13 15:35:27.905733-07:00,1995.5,639.2,1205.3,1316.0,944.9,1252.4,1511.5,1485.6,3435.8,3428.6,1504.1,1230.2,1218.6,3431.0,1007.3,1355.8,3440.7,3433.4,672.5,1279.2,889.8,537.8,1339.5,1571.1,3439.5,3440.7,729.0,939.8,1182.3,1335.0,1142.7,992.7,-33.0,11.0,7.0,-7282.0,-9063.0,-9579.0,-6443.0,-339.0,-110.0,-73.0,-1.0,21.0,6.0,10238.0,9476.0,7022.0,4952.0,-315.0,-130.0,-89.0,1.0
2022-05-13 15:35:27.906630-07:00,1995.5,639.2,1205.3,1316.0,944.9,1252.4,1511.5,1485.6,3435.8,3428.6,1504.1,1230.2,1218.6,3431.0,1007.3,1355.8,3440.7,3433.4,672.5,1279.2,889.8,537.8,1339.5,1571.1,3439.5,3440.7,729.0,939.8,1182.3,1335.0,1142.7,992.7,-33.0,11.0,7.0,-7282.0,-9063.0,-9579.0,-6443.0,-339.0,-110.0,-73.0,-1.0,21.0,6.0,10238.0,9476.0,7022.0,4952.0,-315.0,-130.0,-89.0,1.0
2022-05-13 15:35:27.917569-07:00,1999.5,643.2,1336.8,1342.2,946.6,1253.3,1685.3,1640.7,3444.3,3431.0,1519.9,1233.7,1219.5,3438.2,1007.3,1345.8,3432.2,3439.5,675.0,1283.7,885.6,537.8,1338.6,1574.9,3435.8,3449.1,738.9,953.4,1180.6,1335.9,1139.2,1001.3,-11.0,1.0,10.0,-7538.0,-8897.0,-9412.0,-6625.0,-356.0,-58.0,-59.0,9.0,-1.0,24.0,10494.0,9286.0,6884.0,4970.0,-358.0,-114.0,-91.0,1.0
2022-05-13 15:35:27.918637-07:00,2003.5,639.2,1336.8,1342.2,951.7,1289.1,1685.3,1640.7,3438.2,3444.3,1519.9,1233.7,1219.5,3445.5,1007.3,1345.8,3432.2,3439.5,676.6,1286.4,885.6,537.8,1334.1,1574.9,3435.8,3449.1,748.8,944.9,1180.6,1335.9,1136.6,1015.9,4.0,-27.0,39.0,-7633.0,-8831.0,-9360.0,-6676.0,-241.0,-9.0,-14.0,4.0,-10.0,-7.0,10602.0,9198.0,6832.0,4976.0,-234.0,-95.0,-66.0,1.0
2022-05-13 15:35:27.938458-07:00,2003.5,639.2,1585.2,1445.1,951.7,1315.1,1665.3,1640.7,3438.2,3444.3,1518.0,1231.9,1219.5,3449.1,1004.8,1346.7,3437.0,3435.8,679.9,1286.4,900.0,541.0,1334.1,1574.9,3439.5,3434.6,765.3,944.9,1177.9,1330.5,1136.6,1015.9,-12.0,-26.0,-4.0,-7646.0,-8769.0,-9334.0,-6778.0,-276.0,202.0,137.0,4.0,0.0,24.0,10669.0,9150.0,6784.0,4985.0,-188.0,-95.0,10.0,1.0
2022-05-13 15:35:28.045329-07:00,2010.4,631.1,1593.6,1445.1,963.7,1315.1,1665.3,1640.7,3439.5,3437.0,1510.6,1231.9,1220.4,3449.1,1004.8,1346.7,3437.0,3435.8,679.9,1292.7,900.0,537.8,1331.4,1571.1,3439.5,3434.6,765.3,945.8,1177.9,1343.1,1147.1,1003.0,20.0,61.0,-55.0,-7663.0,-8733.0,-9267.0,-6897.0,-174.0,4.0,68.0,12.0,12.0,-15.0,10732.0,9107.0,6728.0,5007.0,-174.0,-71.0,-6.0,1.0
2022-05-13 15:35:28.046877-07:00,2010.4,631.1,1593.6,1458.0,963.7,1299.8,1588.9,1573.9,3439.5,3437.0,1510.6,1227.5,1220.4,3438.2,1013.3,1352.1,3434.6,3434.6,673.3,1292.7,905.9,537.8,1331.4,1571.1,3449.1,3441.9,760.4,945.8,1176.2,1343.1,1147.1,1003.0,-7.0,-52.0,16.0,-7715.0,-8692.0,-9254.0,-6908.0,-80.0,17.0,-85.0,4.0,-27.0,-17.0,10786.0,9064.0,6700.0,5004.0,-88.0,-47.0,-35.0,1.0
2022-05-13 15:35:28.163908-07:00,2041.4,617.3,1565.5,1458.0,984.2,1299.8,1588.9,1573.9,3433.4,3431.0,1506.0,1227.5,1218.6,3438.2,1013.3,1352.1,3434.6,3434.6,673.3,1285.5,905.9,541.0,1336.8,1573.0,3449.1,3441.9,760.4,940.7,1176.2,1348.5,1175.3,1018.5,-5.0,9.0,38.0,-7703.0,-8675.0,-9253.0,-6944.0,-57.0,116.0,74.0,12.0,-7.0,0.0,10801.0,9063.0,6678.0,5004.0,-22.0,-35.0,36.0,1.0
2022-05-13 15:35:28.208484-07:00,2041.4,617.3,1565.5,1447.0,984.2,1292.7,1560.9,1527.3,3433.4,3431.0,1506.0,1226.6,1218.6,3444.3,1008.2,1359.4,3435.8,3427.4,673.3,1285.5,910.1,541.0,1336.8,1573.0,3435.8,3438.2,757.1,940.7,1184.1,1348.5,1175.3,1018.5,-2.0,3.0,-8.0,-7703.0,-8655.0,-9252.0,-6970.0,-47.0,-10.0,-44.0,8.0,-5.0,-4.0,10815.0,9049.0,6668.0,5013.0,-57.0,-8.0,-27.0,1.0
2022-05-13 15:35:28.209714-07:00,2026.4,610.8,1559.9,1446.0,991.0,1292.7,1560.9,1527.3,3435.8,3437.0,1504.1,1239.1,1217.7,3444.3,1008.2,1359.4,3435.8,3427.4,673.3,1282.8,913.5,536.2,1335.9,1572.1,3435.8,3438.2,757.1,949.2,1179.7,1354.0,1157.7,1020.2,3.0,-17.0,-1.0,-7700.0,-8651.0,-9268.0,-6958.0,58.0,49.0,-13.0,6.0,-7.0,-12.0,10817.0,9047.0,6670.0,5009.0,30.0,8.0,10.0,1.0
2022-05-13 15:35:28.253824-07:00,2026.4,610.8,1559.9,1446.0,996.2,1292.7,1544.1,1503.2,3435.8,3437.0,1504.1,1239.1,1216.8,3443.1,1008.2,1349.4,3438.2,3443.1,675.8,1288.2,913.5,536.2,1335.9,1572.1,3435.8,3435.8,762.0,943.2,1179.7,1354.0,1157.7,1020.2,-13.0,13.0,-11.0,-7685.0,-8657.0,-9273.0,-6959.0,-2.0,-37.0,30.0,5.0,2.0,6.0,10812.0,9054.0,6667.0,5011.0,-3.0,-16.0,1.0,1.0
2022-05-13 15:35:28.298808-07:00,2028.4,600.4,1548.7,1436.0,996.2,1292.7,1544.1,1503.2,3433.4,3440.7,1499.5,1228.4,1216.8,3443.1,1008.2,1349.4,3438.2,3443.1,675.8,1288.2,904.2,537.8,1322.3,1574.9,3435.8,3435.8,762.0,943.2,1176.2,1356.7,1149.8,1012.5,-6.0,0.0,-2.0,-7703.0,-8671.0,-9263.0,-6937.0,13.0,-75.0,-20.0,0.0,-3.0,-10.0,10818.0,9055.0,6663.0,5003.0,-17.0,-30.0,-9.0,1.0
2022-05-13 15:35:28.478857-07:00,2028.4,600.4,1548.7,1436.0,985.0,1290.0,1544.1,1507.8,3433.4,3440.7,1499.5,1228.4,1209.7,3439.5,1009.9,1353.1,3437.0,3432.2,672.5,1281.9,904.2,537.8,1322.3,1574.9,3449.1,3443.1,758.7,946.6,1176.2,1356.7,1149.8,1012.5,-23.0,-2.0,12.0,-7705.0,-8675.0,-9261.0,-6932.0,43.0,-3.0,32.0,0.0,-5.0,19.0,10817.0,9061.0,6657.0,5003.0,43.0,2.0,14.0,1.0
2022-05-13 15:35:28.480484-07:00,2020.4,597.9,1534.8,1442.4,985.0,1290.0,1544.1,1507.8,3438.2,3433.4,1498.6,1228.4,1209.7,3439.5,1009.9,1353.1,3437.0,3432.2,672.5,1281.9,906.7,538.6,1325.0,1572.1,3449.1,3443.1,758.7,946.6,1181.5,1355.8,1155.9,1009.9,-2.0,26.0,-11.0,-7713.0,-8691.0,-9253.0,-6912.0,-26.0,-74.0,-31.0,3.0,8.0,-8.0,10817.0,9062.0,6659.0,4998.0,-29.0,-14.0,-22.0,1.0
2022-05-13 15:35:28.481781-07:00,2020.4,597.9,1534.8,1442.4,991.0,1299.0,1539.4,1506.9,3438.2,3433.4,1498.6,1228.4,1219.5,3437.0,1007.3,1354.0,3428.6,3440.7,673.3,1285.5,906.7,538.6,1325.0,1572.1,3434.6,3439.5,758.7,944.1,1181.5,1355.8,1155.9,1009.9,0.0,-1.0,7.0,-7715.0,-8696.0,-9256.0,-6901.0,28.0,27.0,13.0,6.0,2.0,-8.0,10813.0,9067.0,6660.0,4995.0,17.0,-5.0,20.0,1.0
2022-05-13 15:35:28.525846-07:00,2026.4,597.1,1534.8,1436.0,991.0,1299.0,1539.4,1509.7,3435.8,3447.9,1498.6,1223.9,1219.5,3437.0,1007.3,1357.6,3432.2,3440.7,673.3,1285.5,905.9,538.6,1316.9,1582.4,3439.5,3439.5,758.7,944.1,1174.4,1354.9,1164.7,1004.8,2.0,20.0,-1.0,-7719.0,-8707.0,-9250.0,-6891.0,31.0,-68.0,-12.0,10.0,7.0,-11.0,10814.0,9069.0,6658.0,4993.0,3.0,-10.0,-13.0,1.0
2022-05-13 15:35:28.527026-07:00,2011.4,597.1,1534.8,1436.0,990.2,1315.1,1532.0,1509.7,3449.1,3447.9,1498.6,1223.9,1215.1,3433.4,1008.2,1357.6,3432.2,3444.3,675.0,1281.0,905.9,538.6,1316.9,1570.2,3439.5,3447.9,754.6,937.3,1174.4,1354.9,1164.7,999.6,-4.0,-15.0,14.0,-7730.0,-8714.0,-9243.0,-6878.0,-8.0,-3.0,15.0,4.0,-8.0,-10.0,10819.0,9069.0,6652.0,4988.0,-5.0,-20.0,9.0,1.0
2022-05-13 15:35:28.703711-07:00,2011.4,597.1,1529.2,1429.5,990.2,1315.1,1532.0,1505.1,3449.1,3439.5,1493.0,1230.2,1215.1,3433.4,1008.2,1354.0,3433.4,3444.3,675.0,1281.0,908.4,535.4,1316.9,1570.2,3440.7,3447.9,754.6,937.3,1175.3,1359.4,1155.9,999.6,-1.0,22.0,-3.0,-7735.0,-8726.0,-9226.0,-6881.0,11.0,-75.0,25.0,3.0,6.0,3.0,10822.0,9071.0,6644.0,4988.0,11.0,-15.0,-4.0,1.0
2022-05-13 15:35:28.704823-07:00,2015.4,597.1,1529.2,1429.5,992.7,1326.8,1528.3,1505.1,3435.8,3439.5,1493.0,1230.2,1219.5,3437.0,1015.1,1354.0,3433.4,3439.5,666.0,1283.7,908.4,535.4,1316.9,1575.8,3440.7,3449.1,760.4,944.9,1175.3,1359.4,1155.9,1003.0,-10.0,-2.0,14.0,-7745.0,-8725.0,-9226.0,-6871.0,-14.0,5.0,-19.0,1.0,-4.0,1.0,10825.0,9070.0,6645.0,4983.0,-8.0,-8.0,-7.0,1.0
2022-05-13 15:35:28.706132-07:00,2015.4,593.9,1519.9,1429.5,992.7,1326.8,1528.3,1502.3,3435.8,3439.5,1491.2,1224.8,1219.5,3437.0,1015.1,1354.0,3435.8,3439.5,666.0,1283.7,905.9,540.2,1315.1,1575.8,3440.7,3449.1,760.4,944.9,1165.6,1352.1,1155.9,1003.0,-11.0,8.0,-5.0,-7747.0,-8720.0,-9226.0,-6875.0,19.0,-34.0,7.0,7.0,5.0,20.0,10826.0,9069.0,6644.0,4984.0,8.0,1.0,-6.0,1.0
2022-05-13 15:35:28.928925-07:00,2013.4,591.5,1519.9,1429.5,982.5,1325.9,1522.7,1502.3,3444.3,3431.0,1491.2,1224.8,1217.7,3439.5,1007.3,1354.0,3435.8,3438.2,671.7,1286.4,905.9,540.2,1316.9,1568.3,3440.7,3440.7,759.6,942.4,1165.6,1352.1,1148.0,998.7,-4.0,-3.0,0.0,-7756.0,-8729.0,-9220.0,-6860.0,-4.0,-35.0,-9.0,5.0,0.0,-8.0,10827.0,9069.0,6645.0,4981.0,-5.0,-13.0,-8.0,1.0
2022-05-13 15:35:28.931473-07:00,2013.4,591.5,1519.9,1434.1,982.5,1325.9,1527.3,1506.9,3444.3,3431.0,1486.6,1231.9,1217.7,3439.5,1000.5,1351.2,3435.8,3433.4,671.7,1286.4,905.9,535.4,1316.9,1568.3,3444.3,3444.3,759.6,942.4,1177.9,1352.1,1148.0,998.7,-11.0,1.0,9.0,-7758.0,-8732.0,-9217.0,-6859.0,3.0,2.0,20.0,5.0,-9.0,6.0,10827.0,9071.0,6643.0,4980.0,9.0,-7.0,5.0,1.0
2022-05-13 15:35:28.932698-07:00,2000.5,589.9,1519.9,1434.1,979.9,1322.3,1527.3,1506.9,3439.5,3440.7,1486.6,1231.9,1223.0,3441.9,1000.5,1351.2,3435.8,3433.4,676.6,1296.3,905.9,535.4,1316.0,1572.1,3444.3,3444.3,752.9,939.0,1177.9,1352.1,1152.4,1002.2,3.0,10.0,9.0,-7763.0,-8733.0,-9217.0,-6852.0,16.0,-7.0,-27.0,6.0,2.0,-13.0,10827.0,9070.0,6645.0,4978.0,5.0,2.0,-16.0,1.0
2022-05-13 15:35:28.933795-07:00,2000.5,589.9,1517.1,1432.3,979.9,1322.3,1525.5,1492.1,3439.5,3440.7,1496.7,1223.9,1223.0,3441.9,1005.6,1351.2,3432.2,3423.7,676.6,1296.3,910.1,538.6,1316.0,1572.1,3437.0,3444.3,752.9,939.0,1185.0,1354.0,1152.4,1002.2,-1.0,1.0,4.0,-7757.0,-8735.0,-9223.0,-6849.0,2.0,16.0,11.0,7.0,0.0,-6.0,10824.0,9074.0,6647.0,4976.0,3.0,-3.0,10.0,1.0
2022-05-13 15:35:28.973109-07:00,2003.5,588.3,1517.1,1432.3,980.7,1325.9,1525.5,1492.1,3434.6,3444.3,1496.7,1223.9,1219.5,3446.7,1005.6,1351.2,3432.2,3423.7,676.6,1288.2,910.1,538.6,1319.6,1578.6,3437.0,3444.3,752.1,949.2,1185.0,1354.0,1154.2,995.3,-6.0,13.0,-6.0,-7753.0,-8742.0,-9226.0,-6839.0,29.0,-43.0,-12.0,2.0,0.0,1.0,10821.0,9078.0,6648.0,4974.0,13.0,-2.0,-14.0,1.0
2022-05-13 15:35:28.974367-07:00,2003.5,588.3,1504.1,1425.9,980.7,1318.7,1526.4,1512.5,3434.6,3444.3,1489.3,1223.9,1219.5,3437.0,1012.5,1354.0,3449.1,3439.5,673.3,1288.2,908.4,533.0,1319.6,1578.6,3445.5,3445.5,755.4,949.2,1179.7,1355.8,1154.2,995.3,-10.0,-10.0,1.0,-7760.0,-8747.0,-9223.0,-6830.0,-17.0,-20.0,20.0,0.0,-2.0,-1.0,10820.0,9079.0,6651.0,4970.0,-8.0,-13.0,3.0,1.0
2022-05-13 15:35:29.117905-07:00,2002.5,587.5,1501.4,1425.9,974.8,1318.7,1526.4,1512.5,3438.2,3438.2,1494.9,1223.9,1209.7,3437.0,1012.5,1354.0,3449.1,3439.5,673.3,1281.0,908.4,540.2,1314.2,1572.1,3445.5,3445.5,755.4,943.2,1179.7,1344.9,1152.4,1002.2,0.0,9.0,-6.0,-7769.0,-8761.0,-9203.0,-6829.0,7.0,-57.0,27.0,3.0,-1.0,-11.0,10827.0,9081.0,6642.0,4965.0,3.0,-32.0,4.0,1.0
2022-05-13 15:35:29.243448-07:00,2002.5,587.5,1501.4,1426.8,974.8,1316.0,1526.4,1505.1,3438.2,3438.2,1494.9,1229.3,1209.7,3441.9,1008.2,1358.5,3435.8,3438.2,676.6,1281.0,910.1,540.2,1314.2,1572.1,3441.9,3446.7,750.5,943.2,1177.0,1344.9,1152.4,1002.2,-10.0,-20.0,-58.0,-7770.0,-8779.0,-9192.0,-6819.0,46.0,-60.0,54.0,-12.0,-4.0,-37.0,10825.0,9102.0,6632.0,4942.0,46.0,-94.0,16.0,1.0
2022-05-13 15:35:29.245942-07:00,2012.4,585.1,1507.8,1426.8,977.3,1316.0,1526.4,1505.1,3441.9,3437.0,1492.1,1229.3,1216.0,3441.9,1008.2,1358.5,3435.8,3438.2,676.6,1286.4,910.1,536.2,1316.0,1573.9,3441.9,3446.7,750.5,953.4,1177.0,1352.1,1152.4,997.0,-1.0,13.0,16.0,-7819.0,-8813.0,-9127.0,-6805.0,-110.0,-231.0,39.0,13.0,0.0,0.0,10856.0,9121.0,6577.0,4912.0,-90.0,-191.0,17.0,1.0
2022-05-13 15:35:29.288501-07:00,2012.4,585.1,1507.8,1426.8,977.3,1320.5,1522.7,1507.8,3441.9,3437.0,1492.1,1230.2,1216.0,3433.4,1015.1,1353.1,3438.2,3440.7,677.4,1286.4,910.1,536.2,1316.0,1573.9,3444.3,3435.8,757.1,953.4,1177.0,1352.1,1152.4,997.0,-1.0,33.0,92.0,-7856.0,-8836.0,-9088.0,-6786.0,-37.0,-87.0,11.0,21.0,9.0,55.0,10885.0,9126.0,6538.0,4889.0,-19.0,-63.0,-3.0,1.0
2022-05-13 15:35:29.290912-07:00,2005.5,585.9,1503.2,1426.8,988.5,1320.5,1522.7,1507.8,3443.1,3438.2,1484.7,1230.2,1220.4,3433.4,1015.1,1353.1,3438.2,3440.7,677.4,1282.8,910.1,539.4,1315.1,1569.3,3444.3,3435.8,757.1,950.9,1177.0,1355.8,1151.5,996.2,10.0,11.0,102.0,-7866.0,-8835.0,-9079.0,-6788.0,24.0,104.0,-11.0,27.0,-11.0,42.0,10886.0,9115.0,6541.0,4903.0,7.0,95.0,2.0,1.0
2022-05-13 15:35:29.333287-07:00,2005.5,585.9,1503.2,1423.1,979.9,1319.6,1509.7,1502.3,3443.1,3438.2,1484.7,1220.4,1217.7,3440.7,1005.6,1346.7,3428.6,3440.7,676.6,1285.5,907.6,539.4,1315.1,1569.3,3435.8,3440.7,752.9,947.5,1172.6,1355.8,1151.5,996.2,-9.0,8.0,-14.0,-7819.0,-8813.0,-9126.0,-6809.0,78.0,171.0,-31.0,1.0,0.0,5.0,10849.0,9108.0,6590.0,4935.0,58.0,169.0,-1.0,1.0
2022-05-13 15:35:29.334950-07:00,2003.5,602.0,1504.1,1419.5,979.9,1319.6,1509.7,1502.3,3435.8,3438.2,1484.7,1222.2,1217.7,3440.7,1005.6,1346.7,3428.6,3440.7,676.6,1285.5,904.2,541.8,1311.5,1575.8,3435.8,3440.7,752.9,947.5,1175.3,1348.5,1151.5,991.9,-1.0,4.0,-49.0,-7764.0,-8796.0,-9185.0,-6814.0,129.0,141.0,-36.0,-6.0,13.0,-47.0,10806.0,9111.0,6644.0,4951.0,100.0,118.0,-16.0,1.0
2022-05-13 15:35:29.378685-07:00,2003.5,602.0,1504.1,1419.5,980.7,1311.5,1506.9,1522.7,3435.8,3438.2,1484.7,1222.2,1220.4,3434.6,1009.9,1350.3,3429.8,3437.0,676.6,1283.7,904.2,541.8,1311.5,1575.8,3440.7,3433.4,748.8,946.6,1175.3,1348.5,1151.5,991.9,-7.0,-15.0,-53.0,-7728.0,-8785.0,-9226.0,-6812.0,-5.0,17.0,-27.0,-1.0,-9.0,-32.0,10778.0,9120.0,6678.0,4948.0,-3.0,17.0,-13.0,1.0
2022-05-13 15:35:29.424405-07:00,2008.4,583.5,1497.7,1429.5,980.7,1311.5,1506.9,1522.7,3445.5,3444.3,1491.2,1229.3,1220.4,3434.6,1009.9,1350.3,3429.8,3437.0,676.6,1283.7,909.3,537.8,1315.1,1578.6,3440.7,3433.4,748.8,946.6,1178.8,1350.3,1149.8,995.3,-8.0,-6.0,-10.0,-7728.0,-8800.0,-9232.0,-6784.0,-5.0,-117.0,30.0,0.0,3.0,-9.0,10782.0,9127.0,6671.0,4937.0,-9.0,-69.0,5.0,1.0
2022-05-13 15:35:29.604341-07:00,2008.4,583.5,1497.7,1429.5,978.2,1316.0,1511.5,1505.1,3445.5,3444.3,1491.2,1229.3,1212.4,3428.6,1007.3,1350.3,3431.0,3441.9,673.3,1285.5,909.3,537.8,1315.1,1578.6,3439.5,3445.5,744.7,943.2,1178.8,1350.3,1149.8,995.3,0.0,0.0,34.0,-7752.0,-8825.0,-9196.0,-6774.0,-37.0,-29.0,39.0,6.0,-9.0,9.0,10797.0,9133.0,6646.0,4926.0,-11.0,-53.0,22.0,1.0
2022-05-13 15:35:29.606837-07:00,2000.5,581.8,1500.4,1419.5,978.2,1316.0,1511.5,1491.2,3439.5,3449.1,1492.1,1226.6,1212.4,3428.6,1007.3,1355.8,3437.0,3441.9,673.3,1285.5,909.3,535.4,1314.2,1577.7,3438.2,3445.5,744.7,943.2,1178.8,1361.2,1148.0,990.2,0.0,21.0,15.0,-7762.0,-8834.0,-9179.0,-6775.0,6.0,-45.0,-15.0,11.0,7.0,0.0,10805.0,9138.0,6633.0,4918.0,-6.0,-32.0,-14.0,1.0
2022-05-13 15:35:29.607983-07:00,2003.5,581.8,1500.4,1419.5,980.7,1339.5,1510.6,1491.2,3445.5,3449.1,1492.1,1226.6,1215.1,3440.7,1009.0,1355.8,3437.0,3437.0,680.7,1284.6,909.3,535.4,1314.2,1573.9,3438.2,3441.9,744.7,942.4,1178.8,1361.2,1148.0,1001.3,7.0,8.0,17.0,-7770.0,-8835.0,-9176.0,-6768.0,-16.0,26.0,-5.0,13.0,0.0,-4.0,10808.0,9139.0,6629.0,4914.0,-6.0,-8.0,-3.0,1.0
2022-05-13 15:35:29.648980-07:00,2003.5,585.9,1502.3,1415.8,980.7,1339.5,1510.6,1491.2,3445.5,3449.1,1491.2,1229.3,1215.1,3440.7,1009.0,1355.8,3433.4,3437.0,680.7,1284.6,905.0,537.8,1313.3,1573.9,3438.2,3441.9,744.7,942.4,1165.6,1344.9,1148.9,1001.3,-5.0,10.0,0.0,-7768.0,-8833.0,-9183.0,-6764.0,40.0,-30.0,-20.0,3.0,1.0,-1.0,10808.0,9140.0,6632.0,4910.0,16.0,-1.0,-20.0,1.0
2022-05-13 15:35:29.693142-07:00,1998.5,585.9,1502.3,1415.8,970.5,1319.6,1506.9,1491.2,3438.2,3449.1,1491.2,1229.3,1216.8,3444.3,1010.8,1355.8,3433.4,3437.0,675.8,1281.9,905.0,537.8,1313.3,1573.0,3438.2,3445.5,749.6,939.0,1165.6,1344.9,1148.9,992.7,-5.0,-6.0,6.0,-7775.0,-8833.0,-9182.0,-6756.0,-32.0,7.0,10.0,3.0,-4.0,-3.0,10812.0,9137.0,6631.0,4907.0,-16.0,-17.0,2.0,1.0
2022-05-13 15:35:29.828891-07:00,1998.5,592.3,1490.3,1422.2,970.5,1319.6,1506.9,1498.6,3438.2,3434.6,1492.1,1223.9,1216.8,3444.3,1010.8,1345.8,3439.5,3437.0,675.8,1281.9,907.6,537.8,1317.8,1573.0,3446.7,3445.5,749.6,939.0,1177.9,1347.6,1146.3,992.7,-3.0,19.0,8.0,-7781.0,-8829.0,-9176.0,-6764.0,2.0,-6.0,-15.0,7.0,0.0,11.0,10817.0,9136.0,6626.0,4906.0,-7.0,-6.0,-6.0,1.0
2022-05-13 15:35:29.873147-07:00,1994.5,582.6,1490.3,1422.2,980.7,1326.8,1501.4,1498.6,3444.3,3446.7,1492.1,1223.9,1223.0,3433.4,1007.3,1345.8,3439.5,3434.6,675.8,1278.3,907.6,537.8,1314.2,1578.6,3446.7,3444.3,748.8,946.6,1177.9,1347.6,1153.3,993.6,0.0,2.0,19.0,-7786.0,-8823.0,-9180.0,-6760.0,9.0,7.0,-18.0,6.0,-4.0,-4.0,10818.0,9134.0,6629.0,4903.0,-2.0,9.0,-10.0,1.0
2022-05-13 15:35:29.874325-07:00,1994.5,582.6,1494.9,1428.6,980.7,1326.8,1504.1,1491.2,3444.3,3446.7,1494.9,1223.9,1223.0,3433.4,1010.8,1354.9,3440.7,3437.0,675.8,1278.3,911.8,539.4,1314.2,1578.6,3443.1,3447.9,748.8,946.6,1180.6,1350.3,1153.3,993.6,0.0,4.0,15.0,-7784.0,-8816.0,-9185.0,-6765.0,-7.0,12.0,1.0,9.0,-9.0,1.0,10817.0,9132.0,6631.0,4906.0,5.0,17.0,0.0,1.0
2022-05-13 15:35:29.875448-07:00,1992.5,589.1,1494.9,1428.6,978.2,1324.1,1504.1,1491.2,3433.4,3440.7,1494.9,1223.9,1216.0,3444.3,1010.8,1354.9,3440.7,3437.0,679.9,1289.1,911.8,539.4,1310.6,1572.1,3443.1,3447.9,750.5,946.6,1180.6,1350.3,1144.5,989.3,-9.0,-6.0,12.0,-7781.0,-8811.0,-9193.0,-6764.0,2.0,19.0,-23.0,4.0,-6.0,0.0,10813.0,9129.0,6638.0,4908.0,9.0,22.0,-11.0,1.0
2022-05-13 15:35:29.963718-07:00,1992.5,589.1,1495.8,1411.3,978.2,1324.1,1509.7,1502.3,3433.4,3440.7,1490.3,1230.2,1216.0,3444.3,1003.9,1353.1,3441.9,3428.6,679.9,1289.1,905.0,535.4,1310.6,1572.1,3441.9,3440.7,750.5,946.6,1184.1,1352.1,1144.5,989.3,-5.0,0.0,6.0,-7778.0,-8807.0,-9197.0,-6766.0,-17.0,22.0,6.0,3.0,-2.0,-3.0,10813.0,9127.0,6641.0,4910.0,-11.0,5.0,3.0,1.0
2022-05-13 15:35:30.008828-07:00,2004.5,584.3,1495.8,1411.3,970.5,1325.9,1509.7,1502.3,3434.6,3438.2,1490.3,1230.2,1220.4,3431.0,1003.9,1353.1,3441.9,3428.6,678.2,1279.2,905.0,535.4,1307.9,1573.0,3441.9,3440.7,754.6,943.2,1184.1,1352.1,1147.1,993.6,3.0,20.0,12.0,-7769.0,-8799.0,-9205.0,-6777.0,15.0,55.0,-9.0,12.0,-2.0,0.0,10810.0,9126.0,6645.0,4914.0,8.0,26.0,-2.0,1.0
2022-05-13 15:35:30.052970-07:00,2004.5,584.3,1481.9,1418.6,970.5,1319.6,1507.8,1486.6,3434.6,3438.2,1488.4,1225.7,1220.4,3440.7,1003.9,1340.4,3435.8,3441.9,675.8,1279.2,907.6,535.4,1307.9,1573.0,3441.9,3437.0,752.1,943.2,1176.2,1354.9,1147.1,993.6,-3.0,2.0,2.0,-7759.0,-8781.0,-9225.0,-6785.0,26.0,56.0,-24.0,5.0,-2.0,3.0,10804.0,9122.0,6657.0,4919.0,18.0,28.0,-5.0,1.0
2022-05-13 15:35:30.099011-07:00,1994.5,586.7,1490.3,1418.6,980.7,1319.6,1507.8,1486.6,3433.4,3439.5,1484.7,1225.7,1216.0,3440.7,1003.9,1340.4,3435.8,3441.9,675.8,1285.5,907.6,537.0,1309.7,1572.1,3441.9,3437.0,752.1,943.2,1176.2,1354.0,1139.2,991.0,0.0,1.0,-7.0,-7747.0,-8775.0,-9236.0,-6791.0,-7.0,24.0,3.0,4.0,-2.0,-11.0,10799.0,9121.0,6662.0,4923.0,5.0,16.0,-2.0,1.0
2022-05-13 15:35:30.143643-07:00,1994.5,586.7,1490.3,1414.9,980.7,1316.9,1503.2,1488.4,3433.4,3439.5,1484.7,1229.3,1216.0,3433.4,1008.2,1355.8,3434.6,3432.2,672.5,1285.5,909.3,537.0,1309.7,1572.1,3449.1,3439.5,751.3,943.2,1177.0,1354.0,1139.2,991.0,-4.0,-3.0,-6.0,-7747.0,-8773.0,-9239.0,-6790.0,-13.0,-16.0,-15.0,0.0,1.0,-7.0,10799.0,9121.0,6663.0,4923.0,-22.0,-12.0,-9.0,1.0
2022-05-13 15:35:30.187762-07:00,2007.4,577.0,1483.8,1414.9,976.5,1316.9,1503.2,1488.4,3438.2,3438.2,1486.6,1229.3,1222.2,3433.4,1008.2,1355.8,3434.6,3432.2,672.5,1286.4,909.3,548.2,1307.0,1574.9,3449.1,3439.5,751.3,944.9,1177.0,1346.7,1149.8,991.0,-4.0,6.0,0.0,-7753.0,-8777.0,-9235.0,-6783.0,17.0,-27.0,10.0,4.0,0.0,-2.0,10801.0,9122.0,6659.0,4920.0,1.0,-22.0,3.0,1.0
2022-05-13 15:35:30.278506-07:00,2007.4,577.0,1483.8,1419.5,976.5,1325.0,1511.5,1494.0,3438.2,3438.2,1486.6,1228.4,1222.2,3438.2,1006.5,1345.8,3441.9,3437.0,679.9,1286.4,909.3,548.2,1307.0,1574.9,3438.2,3438.2,754.6,944.9,1178.8,1346.7,1149.8,991.0,-4.0,10.0,13.0,-7761.0,-8780.0,-9222.0,-6787.0,-21.0,-12.0,25.0,9.0,-7.0,6.0,10808.0,9123.0,6649.0,4917.0,-13.0,-24.0,7.0,1.0
2022-05-13 15:35:30.369206-07:00,2001.5,588.3,1488.4,1419.5,980.7,1325.0,1511.5,1494.0,3445.5,3433.4,1485.6,1228.4,1219.5,3438.2,1006.5,1345.8,3441.9,3437.0,679.9,1281.9,909.3,539.4,1302.5,1570.2,3438.2,3438.2,754.6,952.6,1178.8,1346.7,1147.1,997.0,-1.0,9.0,21.0,-7768.0,-8783.0,-9217.0,-6782.0,23.0,-11.0,-12.0,5.0,-1.0,9.0,10811.0,9124.0,6646.0,4915.0,9.0,8.0,-7.0,1.0
2022-05-13 15:35:30.456736-07:00,2001.5,588.3,1488.4,1411.3,969.6,1309.7,1506.0,1488.4,3445.5,3433.4,1485.6,1230.2,1221.3,3437.0,1008.2,1352.1,3428.6,3435.8,666.0,1283.7,906.7,539.4,1302.5,1570.2,3439.5,3435.8,755.4,939.0,1170.9,1346.7,1147.1,997.0,-8.0,7.0,15.0,-7769.0,-8776.0,-9218.0,-6788.0,1.0,26.0,3.0,6.0,-4.0,8.0,10809.0,9121.0,6649.0,4919.0,15.0,33.0,-5.0,1.0
2022-05-13 15:35:30.664680-07:00,1995.5,580.2,1489.3,1415.8,969.6,1309.7,1506.0,1488.4,3439.5,3445.5,1484.7,1227.5,1221.3,3437.0,1008.2,1352.1,3428.6,3435.8,666.0,1283.7,911.0,535.4,1302.5,1574.9,3439.5,3435.8,755.4,939.0,1177.0,1342.2,1148.0,990.2,-4.0,0.0,2.0,-7760.0,-8772.0,-9230.0,-6788.0,24.0,37.0,-24.0,3.0,-1.0,0.0,10801.0,9118.0,6663.0,4925.0,16.0,40.0,-17.0,1.0
2022-05-13 15:35:30.665915-07:00,1995.5,580.2,1489.3,1415.8,971.3,1320.5,1499.5,1484.7,3439.5,3445.5,1484.7,1227.5,1228.4,3445.5,1007.3,1348.5,3428.6,3440.7,673.3,1285.5,911.0,535.4,1302.5,1574.9,3439.5,3437.0,760.4,945.8,1177.0,1342.2,1148.0,990.2,-1.0,0.0,-15.0,-7749.0,-8766.0,-9245.0,-6788.0,-8.0,32.0,-9.0,1.0,1.0,-13.0,10792.0,9116.0,6677.0,4928.0,-12.0,15.0,-4.0,1.0
2022-05-13 15:35:30.667297-07:00,2000.5,582.6,1479.2,1417.6,971.3,1320.5,1499.5,1484.7,3441.9,3441.9,1474.6,1227.5,1228.4,3445.5,1007.3,1348.5,3428.6,3440.7,673.3,1285.5,907.6,539.4,1303.4,1575.8,3439.5,3437.0,760.4,945.8,1178.8,1337.7,1144.5,991.9,0.0,5.0,-15.0,-7745.0,-8764.0,-9249.0,-6790.0,18.0,-8.0,0.0,0.0,2.0,-14.0,10792.0,9114.0,6678.0,4930.0,-1.0,-9.0,-2.0,1.0
2022-05-13 15:35:30.668380-07:00,2000.5,582.6,1479.2,1417.6,973.9,1319.6,1500.4,1492.1,3441.9,3441.9,1474.6,1227.5,1216.8,3433.4,1003.0,1351.2,3429.8,3435.8,680.7,1282.8,907.6,539.4,1303.4,1575.8,3439.5,3434.6,750.5,942.4,1178.8,1337.7,1144.5,991.9,-6.0,8.0,5.0,-7750.0,-8768.0,-9246.0,-6784.0,4.0,-31.0,5.0,-1.0,5.0,-1.0,10795.0,9115.0,6675.0,4928.0,1.0,-21.0,1.0,1.0
2022-05-13 15:35:30.670570-07:00,1995.5,581.8,1486.6,1409.4,973.9,1319.6,1500.4,1487.5,3443.1,3441.9,1487.5,1230.2,1216.8,3433.4,1003.0,1351.2,3443.1,3435.8,680.7,1282.8,911.0,537.0,1302.5,1572.1,3443.1,3434.6,750.5,942.4,1181.5,1342.2,1142.7,991.0,-7.0,-1.0,16.0,-7757.0,-8766.0,-9239.0,-6787.0,-33.0,9.0,-3.0,7.0,-14.0,7.0,10801.0,9114.0,6667.0,4926.0,-3.0,-5.0,-2.0,1.0
2022-05-13 15:35:30.671298-07:00,1995.5,581.8,1486.6,1409.4,973.9,1319.6,1500.4,1487.5,3443.1,3441.9,1487.5,1230.2,1216.8,3433.4,1003.0,1351.2,3443.1,3435.8,680.7,1282.8,911.0,537.0,1302.5,1572.1,3443.1,3434.6,750.5,942.4,1181.5,1342.2,1142.7,991.0,-7.0,-1.0,16.0,-7757.0,-8766.0,-9239.0,-6787.0,-33.0,9.0,-3.0,7.0,-14.0,7.0,10801.0,9114.0,6667.0,4926.0,-3.0,-5.0,-2.0,1.0
2022-05-13 15:35:30.795918-07:00,1999.5,577.8,1478.3,1412.2,984.2,1311.5,1501.4,1486.6,3444.3,3438.2,1486.6,1220.4,1216.0,3440.7,1005.6,1352.1,3434.6,3437.0,673.3,1280.1,909.3,533.8,1300.7,1576.8,3444.3,3444.3,751.3,941.5,1182.3,1340.4,1139.2,993.6,5.0,3.0,2.0,-7757.0,-8774.0,-9238.0,-6778.0,-3.0,-26.0,11.0,10.0,-5.0,-9.0,10802.0,9116.0,6664.0,4922.0,-9.0,-20.0,0.0,1.0
2022-05-13 15:35:30.797181-07:00,1988.5,577.8,1478.3,1412.2,980.7,1315.1,1496.7,1486.6,3443.1,3438.2,1486.6,1220.4,1221.3,3438.2,1015.1,1352.1,3434.6,3449.1,674.2,1279.2,909.3,533.8,1300.7,1571.1,3444.3,3443.1,744.7,946.6,1182.3,1340.4,1139.2,991.9,0.0,4.0,13.0,-7757.0,-8777.0,-9239.0,-6773.0,33.0,4.0,-18.0,5.0,-4.0,-4.0,10804.0,9118.0,6661.0,4919.0,20.0,3.0,-10.0,1.0
2022-05-13 15:35:30.798374-07:00,1988.5,589.1,1475.5,1412.2,980.7,1315.1,1496.7,1485.6,3443.1,3443.1,1486.6,1223.9,1221.3,3438.2,1015.1,1344.9,3433.4,3449.1,674.2,1279.2,909.3,540.2,1307.9,1571.1,3447.9,3443.1,744.7,946.6,1187.6,1344.0,1147.1,991.9,-8.0,8.0,6.0,-7750.0,-8770.0,-9256.0,-6767.0,9.0,22.0,-30.0,4.0,-8.0,10.0,10803.0,9119.0,6664.0,4915.0,1.0,8.0,-12.0,1.0
2022-05-13 15:35:30.819107-07:00,1997.5,584.3,1475.5,1412.2,973.9,1315.1,1494.0,1485.6,3440.7,3440.7,1486.6,1223.9,1216.8,3437.0,1007.3,1344.9,3433.4,3440.7,671.7,1284.6,909.3,540.2,1307.0,1573.9,3447.9,3444.3,752.1,944.1,1187.6,1344.0,1144.5,989.3,-2.0,5.0,4.0,-7748.0,-8770.0,-9260.0,-6763.0,4.0,2.0,6.0,1.0,-3.0,-9.0,10804.0,9118.0,6666.0,4913.0,0.0,8.0,-4.0,1.0
2022-05-13 15:35:30.863929-07:00,1997.5,584.3,1480.1,1407.6,973.9,1315.1,1504.1,1485.6,3440.7,3440.7,1481.9,1223.9,1216.8,3437.0,1008.2,1349.4,3441.9,3438.2,671.7,1284.6,912.7,543.4,1307.0,1573.9,3439.5,3445.5,752.1,944.1,1175.3,1344.9,1144.5,989.3,-5.0,3.0,-5.0,-7745.0,-8763.0,-9267.0,-6765.0,-6.0,21.0,-14.0,2.0,-1.0,-6.0,10803.0,9118.0,6667.0,4914.0,-3.0,3.0,-6.0,1.0
2022-05-13 15:35:30.999247-07:00,1996.5,581.0,1480.1,1407.6,970.5,1306.1,1504.1,1485.6,3441.9,3438.2,1481.9,1223.9,1216.8,3438.2,1008.2,1349.4,3441.9,3438.2,672.5,1281.0,912.7,543.4,1308.8,1573.0,3439.5,3445.5,746.3,940.7,1175.3,1344.9,1156.8,987.6,0.0,7.0,-5.0,-7746.0,-8766.0,-9267.0,-6761.0,2.0,-21.0,10.0,1.0,3.0,-13.0,10804.0,9119.0,6665.0,4912.0,-13.0,-22.0,0.0,1.0
2022-05-13 15:35:31.089432-07:00,1996.5,581.0,1478.3,1407.6,970.5,1306.1,1504.1,1492.1,3441.9,3438.2,1485.6,1227.5,1216.8,3438.2,1007.3,1354.0,3441.9,3435.8,672.5,1281.0,911.0,547.4,1308.8,1573.0,3441.9,3435.8,746.3,940.7,1177.0,1345.8,1156.8,987.6,-7.0,-11.0,2.0,-7753.0,-8761.0,-9262.0,-6766.0,13.0,-9.0,-4.0,5.0,-13.0,3.0,10810.0,9118.0,6659.0,4910.0,35.0,-8.0,-6.0,1.0
2022-05-13 15:35:31.091722-07:00,1997.5,580.2,1478.3,1407.6,973.9,1307.0,1504.1,1492.1,3438.2,3439.5,1485.6,1227.5,1216.0,3440.7,1007.3,1354.0,3441.9,3435.8,673.3,1276.5,911.0,547.4,1304.3,1578.6,3441.9,3435.8,751.3,940.7,1177.0,1345.8,1147.1,993.6,-4.0,-8.0,5.0,-7748.0,-8780.0,-9266.0,-6742.0,64.0,-39.0,-3.0,5.0,-9.0,-1.0,10802.0,9127.0,6663.0,4904.0,58.0,21.0,0.0,1.0
2022-05-13 15:35:31.092873-07:00,1997.5,580.2,1462.6,1416.7,973.9,1310.6,1495.8,1489.3,3438.2,3439.5,1480.1,1231.0,1216.0,3439.5,1007.3,1350.3,3439.5,3435.8,672.5,1276.5,911.8,538.6,1304.3,1578.6,3449.1,3443.1,748.8,940.7,1183.2,1339.5,1147.1,993.6,12.0,-37.0,11.0,-7710.0,-8822.0,-9293.0,-6694.0,280.0,18.0,19.0,14.0,-23.0,0.0,10756.0,9160.0,6696.0,4900.0,258.0,117.0,52.0,1.0
2022-05-13 15:35:31.178750-07:00,1996.5,615.7,1500.4,1416.7,976.5,1310.6,1495.8,1489.3,3433.4,3441.9,1478.3,1231.0,1220.4,3439.5,1007.3,1350.3,3439.5,3435.8,672.5,1282.8,911.8,544.2,1302.5,1574.9,3449.1,3443.1,748.8,947.5,1183.2,1344.0,1143.6,1003.9,20.0,-53.0,28.0,-7580.0,-8917.0,-9349.0,-6638.0,458.0,114.0,191.0,20.0,-46.0,-9.0,10626.0,9263.0,6766.0,4893.0,477.0,182.0,117.0,1.0
2022-05-13 15:35:31.180044-07:00,1996.5,615.7,1500.4,1410.3,976.5,1314.2,1488.4,1484.7,3433.4,3441.9,1478.3,1228.4,1220.4,3445.5,1004.8,1353.1,3443.1,3438.2,680.7,1282.8,906.7,544.2,1302.5,1574.9,3438.2,3439.5,750.5,947.5,1178.8,1344.0,1143.6,1003.9,-7.0,26.0,12.0,-7343.0,-9060.0,-9458.0,-6555.0,833.0,189.0,163.0,0.0,19.0,17.0,10408.0,9428.0,6887.0,4879.0,803.0,313.0,120.0,1.0
2022-05-13 15:35:31.223633-07:00,2006.4,650.5,1458.0,1410.3,962.0,1314.2,1488.4,1484.7,3435.8,3431.0,1478.3,1228.4,1213.3,3445.5,1004.8,1353.1,3443.1,3438.2,680.7,1281.0,906.7,537.0,1313.3,1574.9,3438.2,3439.5,750.5,946.6,1178.8,1339.5,1141.9,994.5,-5.0,50.0,-7.0,-7130.0,-9172.0,-9589.0,-6444.0,464.0,157.0,-6.0,-3.0,36.0,3.0,10182.0,9587.0,7023.0,4850.0,384.0,199.0,43.0,1.0
2022-05-13 15:35:31.313912-07:00,2006.4,650.5,1458.0,1388.5,962.0,1296.3,1470.9,1473.6,3435.8,3431.0,1478.3,1223.0,1213.3,3423.7,1009.9,1354.0,3440.7,3449.1,679.9,1281.0,903.4,537.0,1313.3,1574.9,3450.4,3445.5,762.0,946.6,1177.0,1339.5,1141.9,994.5,-6.0,-11.0,-43.0,-7048.0,-9180.0,-9679.0,-6389.0,162.0,83.0,-143.0,-1.0,-7.0,-1.0,10082.0,9642.0,7093.0,4849.0,160.0,148.0,6.0,1.0
2022-05-13 15:35:31.315227-07:00,2011.4,657.0,1353.1,1388.5,962.0,1296.3,1470.9,1473.6,3438.2,3440.7,1481.0,1223.0,1219.5,3423.7,1009.9,1354.0,3440.7,3449.1,679.9,1290.9,903.4,542.6,1357.6,1571.1,3450.4,3445.5,762.0,960.2,1177.0,1335.0,1141.9,997.0,-3.0,15.0,-26.0,-7001.0,-9216.0,-9744.0,-6288.0,261.0,-86.0,-75.0,-5.0,15.0,-14.0,10007.0,9682.0,7148.0,4843.0,182.0,74.0,11.0,1.0
2022-05-13 15:35:31.403162-07:00,2011.4,657.0,1353.1,1369.4,950.0,1308.8,1454.3,1447.9,3438.2,3440.7,1481.0,1227.5,1220.4,3449.1,1004.8,1351.2,3445.5,3444.3,676.6,1291.8,900.8,542.6,1357.6,1571.1,3444.3,3449.1,757.9,973.9,1174.4,1335.0,1141.9,997.0,-10.0,41.0,24.0,-7006.0,-9231.0,-9767.0,-6223.0,2.0,-64.0,-73.0,-2.0,22.0,-5.0,9970.0,9710.0,7171.0,4830.0,16.0,-8.0,0.0,1.0
2022-05-13 15:35:31.493249-07:00,2007.4,653.8,1289.1,1363.0,950.0,1308.8,1454.3,1447.9,3433.4,3439.5,1481.0,1224.8,1220.4,3449.1,1004.8,1351.2,3445.5,3444.3,676.6,1291.8,900.0,540.2,1394.8,1572.1,3444.3,3449.1,757.9,973.9,1177.9,1341.3,1147.1,995.3,-7.0,-9.0,15.0,-7025.0,-9211.0,-9762.0,-6240.0,-21.0,27.0,35.0,5.0,-9.0,7.0,9979.0,9706.0,7162.0,4832.0,12.0,-9.0,15.0,1.0
2022-05-13 15:35:31.494431-07:00,2007.4,653.8,1289.1,1363.0,949.2,1328.7,1434.1,1439.6,3433.4,3439.5,1481.0,1224.8,1217.7,3438.2,1009.0,1349.4,3445.5,3441.9,677.4,1284.6,900.0,540.2,1394.8,1572.1,3439.5,3441.9,758.7,973.9,1177.9,1341.3,1147.1,995.3,-1.0,13.0,6.0,-7012.0,-9208.0,-9766.0,-6252.0,-7.0,46.0,-19.0,6.0,-7.0,6.0,9975.0,9712.0,7160.0,4834.0,-3.0,7.0,0.0,1.0
2022-05-13 15:35:31.538929-07:00,1997.5,645.7,1263.1,1351.2,949.2,1328.7,1434.1,1439.6,3445.5,3439.5,1500.4,1223.9,1217.7,3438.2,1009.0,1349.4,3445.5,3441.9,677.4,1284.6,905.0,538.6,1380.3,1573.9,3439.5,3441.9,758.7,973.9,1177.9,1331.4,1140.1,993.6,-5.0,-2.0,5.0,-7012.0,-9202.0,-9779.0,-6243.0,25.0,3.0,-30.0,1.0,0.0,0.0,9970.0,9713.0,7166.0,4830.0,15.0,14.0,-12.0,1.0
2022-05-13 15:35:31.583894-07:00,1997.5,645.7,1263.1,1351.2,947.5,1327.8,1433.2,1438.7,3445.5,3439.5,1500.4,1223.9,1218.6,3440.7,1011.6,1354.0,3444.3,3433.4,681.5,1274.7,905.0,538.6,1380.3,1573.9,3433.4,3443.1,745.5,969.6,1177.9,1331.4,1140.1,993.6,0.0,-2.0,1.0,-7011.0,-9199.0,-9782.0,-6242.0,-4.0,24.0,22.0,3.0,-7.0,-5.0,9969.0,9713.0,7168.0,4830.0,4.0,-3.0,8.0,1.0
2022-05-13 15:35:31.628803-07:00,1998.5,646.5,1264.0,1350.3,947.5,1327.8,1433.2,1433.2,3433.4,3444.3,1487.5,1226.6,1218.6,3440.7,1011.6,1351.2,3443.1,3433.4,681.5,1274.7,905.9,538.6,1385.7,1577.7,3438.2,3443.1,745.5,969.6,1174.4,1331.4,1137.5,988.5,-6.0,19.0,1.0,-7003.0,-9201.0,-9785.0,-6244.0,7.0,-12.0,-31.0,1.0,2.0,-2.0,9967.0,9715.0,7169.0,4828.0,1.0,-4.0,-10.0,1.0
2022-05-13 15:35:31.673570-07:00,1995.5,646.5,1264.0,1350.3,939.0,1319.6,1424.1,1433.2,3443.1,3444.3,1487.5,1226.6,1221.3,3445.5,1008.2,1351.2,3443.1,3440.7,673.3,1284.6,905.9,538.6,1385.7,1576.8,3438.2,3440.7,746.3,970.5,1174.4,1331.4,1137.5,994.5,-5.0,-17.0,10.0,-7005.0,-9196.0,-9788.0,-6244.0,14.0,34.0,34.0,0.0,-10.0,0.0,9969.0,9713.0,7170.0,4827.0,4.0,-2.0,11.0,1.0
2022-05-13 15:35:31.719667-07:00,1995.5,640.0,1244.4,1354.0,939.0,1319.6,1424.1,1434.1,3443.1,3441.9,1478.3,1223.9,1221.3,3445.5,1008.2,1349.4,3439.5,3440.7,673.3,1284.6,892.4,542.6,1385.7,1576.8,3444.3,3440.7,746.3,970.5,1182.3,1327.8,1140.1,994.5,-9.0,15.0,0.0,-6988.0,-9204.0,-9789.0,-6251.0,13.0,-4.0,-1.0,2.0,6.0,3.0,9963.0,9720.0,7169.0,4828.0,15.0,-2.0,6.0,1.0
2022-05-13 15:35:31.809676-07:00,1976.6,640.0,1244.4,1354.0,939.0,1311.5,1419.5,1434.1,3435.8,3441.9,1478.3,1223.9,1224.8,3441.9,1005.6,1349.4,3439.5,3437.0,679.9,1281.9,892.4,542.6,1385.7,1572.1,3444.3,3443.1,743.9,939.8,1182.3,1327.8,1140.1,989.3,1.0,0.0,11.0,-7000.0,-9199.0,-9786.0,-6249.0,-47.0,-4.0,-4.0,5.0,0.0,-1.0,9966.0,9719.0,7166.0,4828.0,-28.0,-10.0,-3.0,1.0
2022-05-13 15:35:31.854732-07:00,1976.6,640.8,1242.6,1342.2,939.0,1311.5,1419.5,1425.9,3435.8,3440.7,1481.0,1225.7,1224.8,3441.9,1005.6,1349.4,3434.6,3437.0,679.9,1281.9,897.4,541.0,1383.0,1572.1,3440.7,3443.1,743.9,939.8,1180.6,1337.7,1138.4,989.3,-2.0,1.0,7.0,-6999.0,-9194.0,-9782.0,-6264.0,10.0,25.0,31.0,6.0,-7.0,5.0,9972.0,9716.0,7160.0,4830.0,6.0,-8.0,16.0,1.0
2022-05-13 15:35:31.943318-07:00,1985.6,635.1,1242.6,1342.2,947.5,1330.5,1426.8,1425.9,3449.1,3439.5,1481.0,1225.7,1223.9,3437.0,1005.6,1349.4,3434.6,3443.1,675.0,1287.3,897.4,541.0,1380.3,1574.9,3440.7,3445.5,741.4,971.3,1180.6,1337.7,1137.5,988.5,-5.0,18.0,2.0,-6996.0,-9196.0,-9782.0,-6264.0,-6.0,-15.0,-28.0,2.0,3.0,0.0,9972.0,9717.0,7158.0,4832.0,-17.0,-5.0,-4.0,1.0
2022-05-13 15:35:31.944555-07:00,1985.6,635.1,1240.8,1327.8,947.5,1330.5,1418.6,1428.6,3449.1,3439.5,1483.8,1228.4,1223.9,3437.0,1003.9,1355.8,3434.6,3434.6,675.0,1287.3,892.4,544.2,1380.3,1574.9,3445.5,3450.4,741.4,971.3,1178.8,1332.3,1137.5,988.5,-7.0,-5.0,18.0,-6999.0,-9190.0,-9790.0,-6258.0,27.0,41.0,-8.0,-1.0,-5.0,7.0,9976.0,9713.0,7156.0,4835.0,12.0,3.0,-1.0,1.0
2022-05-13 15:35:31.989174-07:00,1976.6,639.2,1240.8,1327.8,940.7,1328.7,1418.6,1428.6,3437.0,3443.1,1483.8,1228.4,1221.3,3444.3,1003.9,1355.8,3434.6,3434.6,685.6,1282.8,892.4,544.2,1385.7,1574.9,3445.5,3450.4,744.7,968.8,1178.8,1332.3,1137.5,988.5,-9.0,12.0,-4.0,-6988.0,-9185.0,-9799.0,-6262.0,15.0,-2.0,-8.0,3.0,0.0,2.0,9972.0,9715.0,7158.0,4834.0,9.0,10.0,-2.0,1.0
2022-05-13 15:35:32.033841-07:00,1976.6,639.2,1230.2,1336.8,940.7,1328.7,1413.1,1427.7,3437.0,3443.1,1476.4,1227.5,1221.3,3444.3,1008.2,1354.9,3438.2,3437.0,685.6,1282.8,895.7,543.4,1385.7,1574.9,3438.2,3443.1,744.7,968.8,1182.3,1337.7,1137.5,988.5,-4.0,-2.0,0.0,-6994.0,-9185.0,-9800.0,-6254.0,-31.0,-22.0,-10.0,3.0,-5.0,-6.0,9975.0,9712.0,7160.0,4831.0,-20.0,-11.0,-14.0,1.0
2022-05-13 15:35:32.123831-07:00,1982.6,635.1,1230.2,1336.8,933.9,1316.9,1413.1,1427.7,3439.5,3445.5,1476.4,1227.5,1219.5,3440.7,1008.2,1354.9,3438.2,3437.0,676.6,1301.6,895.7,543.4,1375.7,1572.1,3438.2,3443.1,742.2,964.5,1182.3,1337.7,1135.7,983.3,-1.0,4.0,3.0,-7001.0,-9185.0,-9796.0,-6253.0,34.0,-11.0,11.0,6.0,0.0,-1.0,9982.0,9710.0,7154.0,4830.0,7.0,-11.0,-2.0,1.0
2022-05-13 15:35:32.214804-07:00,1982.6,635.1,1231.9,1333.2,933.9,1316.9,1411.3,1418.6,3439.5,3445.5,1479.2,1223.0,1219.5,3440.7,1008.2,1349.4,3434.6,3438.2,676.6,1301.6,911.0,542.6,1375.7,1572.1,3433.4,3446.7,742.2,964.5,1172.6,1335.0,1135.7,983.3,-9.0,6.0,1.0,-7003.0,-9188.0,-9795.0,-6247.0,-29.0,-16.0,-10.0,-1.0,-2.0,3.0,9983.0,9713.0,7151.0,4826.0,-20.0,-17.0,-7.0,1.0
2022-05-13 15:35:32.216439-07:00,1983.6,635.1,1228.4,1333.2,928.8,1317.8,1411.3,1418.6,3440.7,3439.5,1480.1,1223.0,1219.5,3440.7,1008.2,1349.4,3434.6,3438.2,679.9,1283.7,911.0,541.8,1373.0,1573.0,3433.4,3446.7,745.5,969.6,1172.6,1331.4,1134.9,983.3,0.0,2.0,11.0,-7013.0,-9188.0,-9789.0,-6245.0,-9.0,-18.0,-2.0,4.0,1.0,2.0,9989.0,9712.0,7145.0,4824.0,-2.0,-15.0,-4.0,1.0
2022-05-13 15:35:32.217598-07:00,1983.6,635.1,1228.4,1326.8,928.8,1325.0,1414.0,1421.3,3440.7,3439.5,1480.1,1228.4,1219.5,3439.5,1011.6,1349.4,3449.1,3428.6,673.3,1283.7,894.9,541.8,1373.0,1573.0,3443.1,3445.5,742.2,969.6,1176.2,1331.4,1134.9,983.3,-3.0,15.0,6.0,-7014.0,-9190.0,-9785.0,-6247.0,0.0,-10.0,10.0,3.0,5.0,0.0,9992.0,9714.0,7141.0,4820.0,-1.0,-15.0,-2.0,1.0
2022-05-13 15:35:32.303751-07:00,1981.6,634.3,1227.5,1326.8,935.6,1325.0,1414.0,1421.3,3438.2,3437.0,1480.1,1228.4,1220.4,3439.5,1011.6,1349.4,3449.1,3428.6,673.3,1285.5,894.9,542.6,1373.0,1574.9,3443.1,3445.5,742.2,967.9,1176.2,1330.5,1150.6,979.9,-6.0,3.0,2.0,-7017.0,-9188.0,-9784.0,-6250.0,-14.0,-2.0,-8.0,2.0,-3.0,4.0,9997.0,9712.0,7137.0,4820.0,-14.0,-10.0,-5.0,1.0
2022-05-13 15:35:32.349532-07:00,1981.6,634.3,1227.5,1334.1,935.6,1317.8,1412.2,1407.6,3438.2,3437.0,1480.1,1223.0,1220.4,3440.7,1005.6,1355.8,3433.4,3427.4,677.4,1285.5,891.5,542.6,1373.0,1574.9,3439.5,3439.5,740.6,967.9,1176.2,1330.5,1150.6,979.9,-2.0,-2.0,10.0,-7022.0,-9187.0,-9781.0,-6250.0,11.0,-8.0,6.0,2.0,-9.0,1.0,10000.0,9710.0,7135.0,4820.0,4.0,-6.0,-7.0,1.0
2022-05-13 15:35:32.391921-07:00,1982.6,637.6,1224.8,1334.1,939.8,1317.8,1412.2,1407.6,3439.5,3437.0,1477.3,1223.0,1221.3,3440.7,1005.6,1355.8,3433.4,3427.4,677.4,1286.4,891.5,537.0,1375.7,1574.9,3439.5,3439.5,740.6,973.9,1176.2,1335.0,1136.6,985.9,-2.0,10.0,3.0,-7023.0,-9185.0,-9784.0,-6247.0,-32.0,-4.0,-26.0,2.0,3.0,-1.0,10002.0,9708.0,7135.0,4821.0,-27.0,-7.0,-10.0,1.0
2022-05-13 15:35:32.436368-07:00,1982.6,637.6,1224.8,1329.6,929.6,1329.6,1401.2,1420.4,3439.5,3437.0,1477.3,1226.6,1219.5,3445.5,1003.0,1354.0,3440.7,3439.5,683.1,1281.0,890.7,537.0,1375.7,1574.9,3447.9,3443.1,740.6,972.2,1178.8,1335.0,1136.6,985.9,-5.0,1.0,1.0,-7028.0,-9180.0,-9785.0,-6247.0,31.0,-5.0,1.0,0.0,4.0,-2.0,10007.0,9704.0,7133.0,4822.0,14.0,-5.0,-1.0,1.0
2022-05-13 15:35:32.483055-07:00,1974.6,628.6,1221.3,1333.2,929.6,1329.6,1401.2,1420.4,3449.1,3439.5,1478.3,1229.3,1219.5,3445.5,1003.0,1354.0,3440.7,3439.5,683.1,1281.0,895.7,542.6,1374.8,1576.8,3447.9,3443.1,740.6,972.2,1180.6,1330.5,1136.6,984.2,-2.0,5.0,2.0,-7032.0,-9180.0,-9782.0,-6248.0,-22.0,-16.0,10.0,2.0,-2.0,-1.0,10013.0,9702.0,7128.0,4820.0,-16.0,-14.0,0.0,1.0
2022-05-13 15:35:32.573312-07:00,1974.6,628.6,1221.3,1333.2,927.9,1316.9,1401.2,1408.5,3449.1,3439.5,1478.3,1229.3,1215.1,3439.5,1005.6,1348.5,3439.5,3435.8,673.3,1277.4,895.7,542.6,1374.8,1576.8,3443.1,3449.1,738.9,968.8,1180.6,1330.5,1136.6,984.2,-5.0,0.0,10.0,-7036.0,-9179.0,-9778.0,-6249.0,-13.0,-3.0,-4.0,3.0,-2.0,5.0,10017.0,9701.0,7125.0,4820.0,-12.0,-3.0,-3.0,1.0
2022-05-13 15:35:32.574565-07:00,1975.6,629.5,1211.5,1324.1,927.9,1316.9,1401.2,1408.5,3443.1,3440.7,1479.2,1222.2,1215.1,3439.5,1005.6,1348.5,3439.5,3435.8,673.3,1277.4,900.0,541.8,1373.0,1573.9,3443.1,3449.1,738.9,968.8,1174.4,1332.3,1148.0,984.2,-6.0,0.0,7.0,-7037.0,-9178.0,-9778.0,-6251.0,-2.0,11.0,4.0,0.0,-4.0,0.0,10017.0,9701.0,7125.0,4820.0,-2.0,-3.0,1.0,1.0
2022-05-13 15:35:32.619223-07:00,1975.6,629.5,1211.5,1324.1,925.4,1309.7,1401.2,1411.3,3443.1,3440.7,1479.2,1222.2,1221.3,3449.1,1008.2,1350.3,3441.9,3441.9,677.4,1281.9,900.0,541.8,1373.0,1573.9,3445.5,3449.1,735.6,966.2,1174.4,1332.3,1148.0,984.2,-5.0,8.0,7.0,-7036.0,-9178.0,-9777.0,-6252.0,-5.0,11.0,4.0,0.0,-5.0,-3.0,10017.0,9701.0,7125.0,4820.0,-2.0,3.0,-1.0,1.0
2022-05-13 15:35:32.753665-07:00,1975.6,627.8,1206.2,1326.8,925.4,1309.7,1401.2,1412.2,3437.0,3439.5,1470.9,1223.9,1221.3,3449.1,1008.2,1349.4,3440.7,3441.9,677.4,1281.9,910.1,539.4,1368.5,1574.9,3438.2,3449.1,735.6,966.2,1174.4,1326.8,1136.6,985.0,-1.0,1.0,1.0,-7038.0,-9180.0,-9776.0,-6250.0,6.0,-23.0,1.0,3.0,-7.0,-5.0,10017.0,9701.0,7125.0,4820.0,2.0,-4.0,-2.0,1.0
2022-05-13 15:35:32.755380-07:00,1974.6,627.8,1206.2,1326.8,934.7,1310.6,1397.6,1412.2,3443.1,3439.5,1470.9,1223.9,1218.6,3445.5,1009.9,1349.4,3440.7,3440.7,679.9,1280.1,910.1,539.4,1368.5,1573.0,3438.2,3444.3,738.1,968.8,1174.4,1326.8,1136.6,980.7,0.0,3.0,8.0,-7047.0,-9180.0,-9769.0,-6249.0,-20.0,-15.0,7.0,3.0,-6.0,1.0,10021.0,9699.0,7121.0,4820.0,-12.0,-10.0,-1.0,1.0
2022-05-13 15:35:32.756562-07:00,1974.6,623.8,1206.2,1324.1,934.7,1310.6,1397.6,1414.0,3443.1,3445.5,1477.3,1231.9,1218.6,3445.5,1009.9,1349.4,3438.2,3440.7,679.9,1280.1,892.4,540.2,1364.8,1573.0,3432.2,3444.3,738.1,968.8,1181.5,1331.4,1133.1,980.7,-6.0,13.0,2.0,-7046.0,-9181.0,-9770.0,-6248.0,8.0,-6.0,5.0,1.0,-2.0,4.0,10021.0,9699.0,7121.0,4820.0,7.0,-6.0,-4.0,1.0
2022-05-13 15:35:33.013479-07:00,1969.7,623.8,1206.2,1324.1,926.2,1310.6,1404.9,1414.0,3438.2,3445.5,1477.3,1231.9,1224.8,3440.7,1005.6,1349.4,3438.2,3433.4,676.6,1289.1,892.4,540.2,1364.8,1571.1,3432.2,3440.7,736.5,962.0,1181.5,1331.4,1133.1,979.0,-1.0,2.0,5.0,-7052.0,-9181.0,-9766.0,-6248.0,-4.0,-20.0,0.0,3.0,-7.0,-2.0,10022.0,9698.0,7121.0,4821.0,-5.0,-8.0,-8.0,1.0
2022-05-13 15:35:33.023469-07:00,1969.7,629.5,1209.7,1327.8,926.2,1310.6,1404.9,1413.1,3438.2,3437.0,1481.0,1221.3,1224.8,3440.7,1005.6,1355.8,3438.2,3433.4,676.6,1289.1,892.4,543.4,1370.3,1571.1,3439.5,3440.7,736.5,962.0,1175.3,1331.4,1138.4,979.0,-7.0,6.0,8.0,-7053.0,-9182.0,-9766.0,-6247.0,-6.0,3.0,-2.0,1.0,7.0,10.0,10023.0,9698.0,7120.0,4821.0,-3.0,-8.0,-6.0,1.0
2022-05-13 15:35:33.024694-07:00,1967.7,629.5,1209.7,1327.8,927.9,1307.9,1401.2,1413.1,3446.7,3437.0,1481.0,1221.3,1218.6,3444.3,1008.2,1355.8,3438.2,3449.1,672.5,1272.1,892.4,543.4,1370.3,1562.7,3439.5,3444.3,737.3,962.0,1175.3,1331.4,1138.4,987.6,-1.0,13.0,5.0,-7049.0,-9185.0,-9766.0,-6245.0,16.0,-6.0,5.0,5.0,9.0,0.0,10021.0,9699.0,7121.0,4820.0,12.0,-1.0,-6.0,1.0
2022-05-13 15:35:33.026406-07:00,1967.7,631.9,1204.4,1325.0,927.9,1307.9,1401.2,1419.5,3446.7,3443.1,1478.3,1227.5,1218.6,3444.3,1008.2,1342.2,3428.6,3428.6,672.5,1272.1,891.5,546.6,1362.1,1562.7,3444.3,3443.1,737.3,962.0,1179.7,1328.7,1134.0,987.6,-7.0,-10.0,11.0,-7052.0,-9181.0,-9769.0,-6243.0,13.0,7.0,-11.0,-1.0,-8.0,3.0,10023.0,9696.0,7124.0,4816.0,7.0,7.0,-14.0,1.0
2022-05-13 15:35:33.027559-07:00,1966.7,632.7,1204.4,1325.0,926.2,1310.6,1401.2,1419.5,3441.9,3435.8,1478.3,1227.5,1219.5,3440.7,1008.2,1342.2,3428.6,3428.6,672.5,1290.9,891.5,546.6,1360.3,1574.9,3444.3,3443.1,731.5,965.4,1179.7,1328.7,1140.1,982.5,-9.0,6.0,2.0,-7043.0,-9183.0,-9770.0,-6249.0,-24.0,26.0,23.0,-2.0,1.0,-3.0,10022.0,9697.0,7125.0,4815.0,-11.0,-3.0,0.0,1.0
2022-05-13 15:35:33.069175-07:00,1966.7,632.7,1201.8,1328.7,926.2,1310.6,1389.4,1415.8,3441.9,3435.8,1474.6,1225.7,1219.5,3440.7,1006.5,1351.2,3439.5,3439.5,672.5,1290.9,891.5,536.2,1360.3,1574.9,3443.1,3443.1,731.5,965.4,1178.8,1334.1,1140.1,982.5,-8.0,2.0,-2.0,-7049.0,-9177.0,-9765.0,-6258.0,1.0,-17.0,-16.0,1.0,-3.0,-1.0,10026.0,9694.0,7124.0,4815.0,4.0,-6.0,-13.0,1.0
2022-05-13 15:35:33.113039-07:00,1971.7,625.4,1201.8,1328.7,930.5,1303.4,1389.4,1415.8,3439.5,3443.1,1474.6,1225.7,1217.7,3437.0,1006.5,1351.2,3439.5,3439.5,671.7,1281.9,891.5,536.2,1357.6,1578.6,3443.1,3443.1,732.3,973.9,1178.8,1334.1,1135.7,982.5,0.0,-8.0,7.0,-7054.0,-9182.0,-9763.0,-6248.0,2.0,-21.0,16.0,0.0,-8.0,0.0,10028.0,9695.0,7123.0,4813.0,1.0,-14.0,-1.0,1.0
2022-05-13 15:35:33.204344-07:00,1971.7,625.4,1201.8,1320.5,930.5,1303.4,1389.4,1401.2,3439.5,3443.1,1481.9,1220.4,1217.7,3437.0,1004.8,1353.1,3429.8,3438.2,671.7,1281.9,893.2,544.2,1357.6,1578.6,3438.2,3437.0,732.3,973.9,1170.9,1330.5,1135.7,982.5,-4.0,10.0,7.0,-7052.0,-9185.0,-9762.0,-6249.0,5.0,-6.0,-4.0,4.0,1.0,3.0,10030.0,9696.0,7120.0,4810.0,6.0,-7.0,-4.0,1.0
2022-05-13 15:35:33.205583-07:00,1968.7,631.1,1203.5,1320.5,925.4,1304.3,1389.4,1401.2,3444.3,3433.4,1476.4,1220.4,1217.7,3444.3,1004.8,1353.1,3429.8,3438.2,675.8,1285.5,893.2,540.2,1362.1,1577.7,3438.2,3437.0,738.9,964.5,1170.9,1327.8,1136.6,990.2,-6.0,9.0,16.0,-7056.0,-9186.0,-9762.0,-6243.0,2.0,-4.0,-10.0,-2.0,2.0,5.0,10030.0,9696.0,7120.0,4810.0,-7.0,-2.0,-7.0,1.0
2022-05-13 15:35:33.294155-07:00,1968.7,631.1,1203.5,1315.1,925.4,1311.5,1390.3,1408.5,3444.3,3433.4,1476.4,1226.6,1217.7,3440.7,1003.9,1359.4,3440.7,3443.1,669.3,1285.5,891.5,540.2,1362.1,1577.7,3449.1,3432.2,731.5,964.5,1175.3,1327.8,1136.6,990.2,-8.0,2.0,5.0,-7054.0,-9182.0,-9763.0,-6249.0,2.0,18.0,3.0,-3.0,-6.0,-1.0,10031.0,9695.0,7119.0,4810.0,4.0,8.0,-1.0,1.0
2022-05-13 15:35:33.338925-07:00,1971.7,630.3,1204.4,1315.1,933.0,1311.5,1390.3,1408.5,3437.0,3438.2,1481.9,1226.6,1216.8,3440.7,1003.9,1359.4,3440.7,3443.1,669.3,1287.3,891.5,542.6,1360.3,1578.6,3449.1,3432.2,731.5,959.4,1175.3,1334.1,1147.1,988.5,-5.0,0.0,0.0,-7055.0,-9182.0,-9760.0,-6252.0,-27.0,0.0,17.0,0.0,-6.0,-1.0,10032.0,9695.0,7118.0,4810.0,-15.0,-14.0,2.0,1.0
2022-05-13 15:35:33.383852-07:00,1971.7,630.3,1204.4,1316.9,933.0,1304.3,1399.4,1405.8,3437.0,3438.2,1481.9,1226.6,1216.8,3447.9,1003.0,1350.3,3429.8,3437.0,676.6,1287.3,892.4,542.6,1360.3,1578.6,3439.5,3439.5,731.5,959.4,1182.3,1334.1,1147.1,988.5,-4.0,5.0,2.0,-7065.0,-9188.0,-9745.0,-6257.0,-19.0,-49.0,29.0,5.0,0.0,-3.0,10040.0,9692.0,7111.0,4809.0,-17.0,-18.0,1.0,1.0
2022-05-13 15:35:33.428114-07:00,1968.7,624.6,1202.7,1316.9,925.4,1304.3,1399.4,1405.8,3443.1,3438.2,1472.7,1226.6,1217.7,3447.9,1003.0,1350.3,3429.8,3437.0,676.6,1276.5,892.4,544.2,1360.3,1561.8,3439.5,3439.5,731.5,963.7,1182.3,1329.6,1132.2,979.0,-3.0,-1.0,14.0,-7074.0,-9192.0,-9735.0,-6255.0,6.0,-16.0,3.0,1.0,-3.0,12.0,10046.0,9691.0,7106.0,4807.0,2.0,-8.0,-3.0,1.0
2022-05-13 15:35:33.518439-07:00,1968.7,624.6,1202.7,1315.1,919.4,1299.0,1391.2,1407.6,3443.1,3438.2,1472.7,1222.2,1218.6,3449.1,1006.5,1349.4,3449.1,3434.6,673.3,1286.4,893.2,544.2,1360.3,1561.8,3439.5,3441.9,733.2,956.0,1178.8,1329.6,1132.2,979.0,-1.0,12.0,12.0,-7074.0,-9196.0,-9735.0,-6250.0,-3.0,-2.0,0.0,4.0,0.0,2.0,10046.0,9691.0,7106.0,4807.0,3.0,-2.0,-6.0,1.0
2022-05-13 15:35:33.519773-07:00,1970.7,627.8,1195.6,1315.1,919.4,1299.0,1391.2,1407.6,3439.5,3438.2,1478.3,1221.3,1218.6,3449.1,1006.5,1349.4,3449.1,3434.6,673.3,1286.4,892.4,544.2,1360.3,1574.9,3439.5,3441.9,733.2,956.0,1176.2,1326.8,1138.4,978.2,-4.0,12.0,5.0,-7073.0,-9196.0,-9737.0,-6248.0,9.0,9.0,-13.0,1.0,2.0,0.0,10046.0,9691.0,7107.0,4806.0,8.0,5.0,-8.0,1.0
2022-05-13 15:35:33.564043-07:00,1970.7,627.8,1195.6,1315.1,923.7,1299.8,1378.5,1412.2,3439.5,3438.2,1478.3,1221.3,1217.7,3444.3,1008.2,1351.2,3426.2,3434.6,679.1,1280.1,892.4,544.2,1360.3,1574.9,3443.1,3439.5,728.2,959.4,1176.2,1326.8,1138.4,978.2,-3.0,-8.0,4.0,-7078.0,-9192.0,-9738.0,-6247.0,2.0,-4.0,0.0,0.0,-2.0,-3.0,10048.0,9687.0,7109.0,4806.0,1.0,-2.0,-8.0,1.0
2022-05-13 15:35:33.608978-07:00,1969.7,620.5,1199.1,1312.4,923.7,1299.8,1378.5,1412.2,3437.0,3439.5,1478.3,1222.2,1217.7,3444.3,1008.2,1351.2,3426.2,3434.6,679.1,1280.1,892.4,540.2,1356.7,1574.9,3443.1,3439.5,728.2,959.4,1179.7,1332.3,1134.0,976.5,-11.0,2.0,-4.0,-7085.0,-9188.0,-9726.0,-6264.0,-67.0,2.0,30.0,-1.0,-3.0,1.0,10055.0,9683.0,7103.0,4807.0,-38.0,-22.0,2.0,1.0
2022-05-13 15:35:33.743427-07:00,1969.7,620.5,1199.1,1312.4,923.7,1301.6,1376.6,1407.6,3437.0,3439.5,1478.3,1222.2,1218.6,3440.7,1002.2,1344.0,3441.9,3435.8,675.0,1280.1,892.4,540.2,1356.7,1574.9,3444.3,3439.5,733.2,955.1,1179.7,1332.3,1134.0,976.5,-21.0,23.0,6.0,-7099.0,-9190.0,-9708.0,-6271.0,7.0,-69.0,27.0,-4.0,7.0,12.0,10072.0,9675.0,7091.0,4806.0,-29.0,-29.0,-16.0,1.0
2022-05-13 15:35:33.745542-07:00,1966.7,630.3,1243.5,1336.8,923.7,1301.6,1376.6,1407.6,3439.5,3438.2,1470.9,1226.6,1218.6,3440.7,1002.2,1344.0,3441.9,3435.8,675.0,1280.1,889.0,545.8,1355.8,1576.8,3444.3,3439.5,733.2,955.1,1173.5,1332.3,1138.4,987.6,-9.0,76.0,-34.0,-7139.0,-9215.0,-9663.0,-6258.0,-372.0,-241.0,22.0,2.0,35.0,-45.0,10120.0,9647.0,7071.0,4791.0,-232.0,-149.0,-81.0,1.0
2022-05-13 15:35:33.788763-07:00,1963.7,630.3,1243.5,1336.8,924.5,1306.1,1574.9,1478.3,3452.8,3438.2,1470.9,1226.6,1216.0,3438.2,1006.5,1352.1,3431.0,3439.5,672.5,1279.2,889.0,545.8,1355.8,1573.9,3433.4,3445.5,730.7,956.0,1173.5,1332.3,1138.4,973.1,-7.0,-19.0,22.0,-7314.0,-9129.0,-9562.0,-6339.0,-346.0,-75.0,-141.0,-11.0,-3.0,34.0,10271.0,9540.0,6995.0,4797.0,-399.0,-151.0,-101.0,1.0
2022-05-13 15:35:33.834311-07:00,1963.7,634.3,1377.5,1358.5,924.5,1306.1,1574.9,1594.6,3452.8,3441.9,1478.3,1217.7,1216.0,3438.2,1006.5,1354.0,3441.9,3439.5,672.5,1279.2,898.3,539.4,1348.5,1573.9,3443.1,3445.5,730.7,956.0,1181.5,1342.2,1136.6,973.1,6.0,22.0,17.0,-7424.0,-9066.0,-9525.0,-6356.0,-408.0,-128.0,-93.0,25.0,23.0,-8.0,10394.0,9450.0,6946.0,4780.0,-323.0,-178.0,-146.0,1.0
2022-05-13 15:35:33.923166-07:00,1986.6,634.3,1377.5,1358.5,930.5,1306.1,1689.1,1594.6,3437.0,3441.9,1478.3,1217.7,1209.7,3433.4,1015.1,1354.0,3441.9,3440.7,674.2,1275.6,898.3,539.4,1348.5,1574.9,3443.1,3438.2,743.0,946.6,1181.5,1342.2,1136.6,975.6,-8.0,-83.0,55.0,-7541.0,-8953.0,-9462.0,-6471.0,-242.0,225.0,92.0,4.0,-26.0,27.0,10523.0,9349.0,6876.0,4796.0,-247.0,-85.0,-13.0,1.0
2022-05-13 15:35:33.924367-07:00,1986.6,634.3,1554.3,1410.3,930.5,1306.1,1689.1,1588.0,3437.0,3446.7,1474.6,1220.4,1209.7,3433.4,1015.1,1353.1,3435.8,3440.7,674.2,1275.6,897.4,542.6,1342.2,1574.9,3443.1,3438.2,743.0,946.6,1176.2,1330.5,1143.6,975.6,-9.0,43.0,-47.0,-7553.0,-8881.0,-9427.0,-6607.0,-457.0,46.0,-3.0,0.0,16.0,4.0,10597.0,9292.0,6826.0,4817.0,-331.0,-80.0,-28.0,1.0
2022-05-13 15:35:33.968646-07:00,2037.4,634.3,1554.3,1410.3,965.4,1313.3,1651.1,1588.0,3445.5,3446.7,1474.6,1220.4,1213.3,3440.7,1007.3,1353.1,3435.8,3435.8,674.2,1282.8,897.4,542.6,1342.2,1576.8,3443.1,3446.7,747.2,950.0,1176.2,1330.5,1143.6,989.3,9.0,-58.0,-3.0,-7642.0,-8807.0,-9352.0,-6709.0,-253.0,61.0,106.0,1.0,-32.0,-36.0,10687.0,9224.0,6763.0,4838.0,-168.0,-107.0,15.0,1.0
2022-05-13 15:35:34.238278-07:00,2037.4,618.9,1555.3,1415.8,965.4,1313.3,1575.8,1509.7,3445.5,3439.5,1469.0,1229.3,1213.3,3440.7,1004.8,1355.8,3438.2,3440.7,674.2,1282.8,906.7,541.0,1335.9,1576.8,3447.9,3434.6,747.2,950.0,1183.2,1339.5,1143.6,989.3,-15.0,34.0,5.0,-7621.0,-8786.0,-9319.0,-6804.0,-55.0,126.0,92.0,9.0,-1.0,44.0,10705.0,9223.0,6729.0,4848.0,-21.0,-19.0,41.0,1.0
2022-05-13 15:35:34.240509-07:00,2045.4,609.2,1555.3,1415.8,966.2,1301.6,1575.8,1509.7,3439.5,3444.3,1469.0,1229.3,1214.2,3439.5,1004.8,1355.8,3438.2,3440.7,677.4,1287.3,906.7,541.0,1325.0,1571.1,3447.9,3434.6,742.2,950.9,1183.2,1339.5,1146.3,997.9,15.0,-21.0,2.0,-7644.0,-8777.0,-9298.0,-6821.0,-87.0,-127.0,-59.0,7.0,-17.0,-32.0,10728.0,9204.0,6717.0,4848.0,-90.0,-42.0,-44.0,1.0
2022-05-13 15:35:34.241665-07:00,2045.4,609.2,1537.6,1418.6,966.2,1301.6,1553.4,1466.3,3439.5,3444.3,1475.5,1224.8,1214.2,3439.5,1000.5,1355.8,3437.0,3439.5,677.4,1287.3,908.4,538.6,1325.0,1571.1,3435.8,3438.2,742.2,950.9,1178.8,1340.4,1146.3,997.9,-4.0,10.0,17.0,-7646.0,-8781.0,-9298.0,-6812.0,15.0,89.0,47.0,4.0,13.0,25.0,10725.0,9212.0,6716.0,4842.0,50.0,9.0,32.0,1.0
2022-05-13 15:35:34.242789-07:00,2045.4,602.8,1537.6,1418.6,972.2,1298.1,1553.4,1466.3,3438.2,3438.2,1475.5,1224.8,1212.4,3438.2,1000.5,1355.8,3437.0,3439.5,678.2,1280.1,908.4,538.6,1324.1,1570.2,3435.8,3438.2,738.1,944.1,1178.8,1340.4,1154.2,988.5,-7.0,12.0,-15.0,-7641.0,-8780.0,-9294.0,-6826.0,23.0,-86.0,-23.0,2.0,8.0,5.0,10724.0,9213.0,6714.0,4845.0,4.0,-6.0,-23.0,1.0
2022-05-13 15:35:34.329766-07:00,2045.4,602.8,1522.7,1403.0,972.2,1298.1,1537.6,1463.5,3438.2,3438.2,1470.0,1217.7,1212.4,3438.2,999.6,1348.5,3431.0,3433.4,678.2,1280.1,900.8,537.0,1324.1,1570.2,3443.1,3435.8,738.1,944.1,1177.9,1344.0,1154.2,988.5,-2.0,-12.0,5.0,-7652.0,-8796.0,-9289.0,-6799.0,5.0,-11.0,20.0,-4.0,-3.0,-13.0,10727.0,9215.0,6714.0,4835.0,8.0,-21.0,4.0,1.0
2022-05-13 15:35:34.331068-07:00,2039.4,597.9,1503.2,1403.0,977.3,1285.5,1537.6,1463.5,3439.5,3439.5,1464.4,1217.7,1216.0,3441.9,999.6,1348.5,3431.0,3433.4,676.6,1281.0,900.8,539.4,1320.5,1575.8,3443.1,3435.8,743.0,948.3,1177.9,1337.7,1145.4,990.2,-5.0,11.0,-5.0,-7652.0,-8801.0,-9276.0,-6810.0,-14.0,-52.0,27.0,7.0,-7.0,0.0,10730.0,9220.0,6702.0,4835.0,-12.0,-30.0,13.0,1.0
2022-05-13 15:35:34.332226-07:00,2039.4,597.9,1503.2,1411.3,977.3,1290.0,1528.3,1465.4,3439.5,3439.5,1464.4,1220.4,1216.0,3432.2,999.6,1354.9,3433.4,3435.8,672.5,1281.0,901.7,539.4,1320.5,1575.8,3449.1,3443.1,738.1,948.3,1170.9,1337.7,1145.4,990.2,0.0,-21.0,30.0,-7653.0,-8815.0,-9274.0,-6793.0,46.0,21.0,-15.0,4.0,-6.0,1.0,10720.0,9231.0,6707.0,4828.0,57.0,14.0,4.0,1.0
2022-05-13 15:35:34.372163-07:00,2024.4,602.0,1500.4,1411.3,971.3,1290.0,1528.3,1465.4,3438.2,3438.2,1462.6,1220.4,1216.8,3432.2,999.6,1354.9,3433.4,3435.8,672.5,1280.1,901.7,535.4,1316.9,1576.8,3449.1,3443.1,738.1,948.3,1170.9,1341.3,1141.0,991.0,0.0,47.0,-3.0,-7622.0,-8816.0,-9295.0,-6799.0,-42.0,87.0,-4.0,9.0,22.0,11.0,10697.0,9249.0,6719.0,4830.0,4.0,28.0,18.0,1.0
2022-05-13 15:35:34.463701-07:00,2024.4,602.0,1500.4,1404.9,971.3,1287.3,1529.2,1494.0,3438.2,3438.2,1462.6,1223.0,1216.8,3439.5,1009.0,1348.5,3435.8,3438.2,672.5,1280.1,903.4,535.4,1316.9,1576.8,3449.1,3444.3,728.2,948.3,1180.6,1341.3,1141.0,991.0,-3.0,-16.0,0.0,-7624.0,-8792.0,-9311.0,-6806.0,109.0,6.0,-60.0,0.0,-18.0,-7.0,10690.0,9243.0,6736.0,4832.0,85.0,43.0,-39.0,1.0
2022-05-13 15:35:34.464961-07:00,2026.4,589.9,1492.1,1404.9,973.9,1287.3,1529.2,1494.0,3441.9,3437.0,1470.0,1223.0,1215.1,3439.5,1009.0,1348.5,3435.8,3438.2,672.5,1277.4,903.4,544.2,1317.8,1571.1,3449.1,3444.3,728.2,946.6,1180.6,1336.8,1140.1,991.0,-1.0,0.0,2.0,-7603.0,-8797.0,-9337.0,-6787.0,-11.0,52.0,26.0,4.0,-7.0,0.0,10673.0,9254.0,6753.0,4826.0,14.0,14.0,12.0,1.0
2022-05-13 15:35:34.599503-07:00,2026.4,589.9,1492.1,1402.1,966.2,1282.8,1530.1,1494.9,3441.9,3437.0,1470.0,1219.5,1214.2,3440.7,1000.5,1349.4,3432.2,3433.4,670.9,1283.7,905.0,544.2,1317.8,1571.1,3445.5,3434.6,738.1,943.2,1177.9,1336.8,1140.1,991.0,-4.0,28.0,-18.0,-7595.0,-8796.0,-9339.0,-6794.0,40.0,-14.0,-18.0,0.0,9.0,-7.0,10670.0,9255.0,6755.0,4827.0,16.0,6.0,-22.0,1.0
2022-05-13 15:35:34.734488-07:00,2009.4,588.3,1488.4,1396.7,966.2,1282.8,1530.1,1494.9,3449.1,3444.3,1470.9,1221.3,1214.2,3440.7,1000.5,1349.4,3432.2,3433.4,670.9,1283.7,909.3,537.8,1311.5,1578.6,3445.5,3434.6,738.1,943.2,1174.4,1346.7,1145.4,988.5,-8.0,-20.0,16.0,-7600.0,-8799.0,-9350.0,-6769.0,21.0,22.0,4.0,0.0,-7.0,-8.0,10669.0,9257.0,6761.0,4818.0,23.0,-6.0,0.0,1.0
2022-05-13 15:35:34.776931-07:00,2009.4,588.3,1488.4,1396.7,969.6,1279.2,1516.2,1487.5,3449.1,3444.3,1470.9,1221.3,1217.7,3439.5,1004.8,1354.9,3437.0,3439.5,672.5,1273.9,909.3,537.8,1311.5,1578.6,3443.1,3450.4,730.7,942.4,1174.4,1346.7,1145.4,988.5,-1.0,29.0,-12.0,-7591.0,-8798.0,-9349.0,-6782.0,-19.0,6.0,23.0,4.0,-8.0,15.0,10666.0,9260.0,6759.0,4820.0,-4.0,4.0,-5.0,1.0
2022-05-13 15:35:34.824195-07:00,2015.4,595.5,1494.9,1397.6,969.6,1279.2,1516.2,1487.5,3438.2,3435.8,1468.1,1229.3,1217.7,3439.5,1004.8,1354.9,3437.0,3439.5,672.5,1273.9,905.0,544.2,1310.6,1579.6,3443.1,3450.4,730.7,942.4,1182.3,1341.3,1144.5,985.0,-3.0,-9.0,5.0,-7600.0,-8801.0,-9354.0,-6762.0,46.0,-28.0,-39.0,1.0,-4.0,-6.0,10665.0,9261.0,6767.0,4810.0,31.0,-1.0,-21.0,1.0
2022-05-13 15:35:34.825888-07:00,2015.4,595.5,1494.9,1397.6,967.9,1296.3,1520.8,1481.0,3438.2,3435.8,1468.1,1229.3,1218.6,3444.3,1003.9,1344.9,3433.4,3444.3,667.6,1280.1,905.0,544.2,1310.6,1579.6,3435.8,3449.1,737.3,946.6,1182.3,1341.3,1144.5,985.0,-4.0,5.0,3.0,-7596.0,-8798.0,-9356.0,-6767.0,-38.0,40.0,28.0,6.0,-7.0,10.0,10662.0,9264.0,6767.0,4810.0,-6.0,-1.0,17.0,1.0
2022-05-13 15:35:34.827083-07:00,2014.4,585.9,1489.3,1397.6,967.9,1296.3,1520.8,1481.0,3435.8,3441.9,1472.7,1223.9,1218.6,3444.3,1003.9,1344.9,3433.4,3444.3,667.6,1280.1,905.9,537.8,1309.7,1575.8,3435.8,3449.1,737.3,946.6,1173.5,1339.5,1134.9,984.2,-4.0,5.0,4.0,-7590.0,-8800.0,-9363.0,-6761.0,59.0,-9.0,-33.0,-1.0,9.0,-4.0,10655.0,9269.0,6776.0,4805.0,37.0,11.0,-20.0,1.0
2022-05-13 15:35:34.828310-07:00,2008.4,585.9,1489.3,1397.6,971.3,1289.1,1517.1,1482.9,3433.4,3441.9,1472.7,1223.9,1216.0,3440.7,1000.5,1350.3,3433.4,3445.5,667.6,1278.3,905.9,537.8,1309.7,1574.9,3449.1,3441.9,735.6,944.9,1173.5,1339.5,1134.9,984.2,-3.0,10.0,-3.0,-7586.0,-8795.0,-9374.0,-6758.0,-8.0,24.0,-12.0,6.0,0.0,5.0,10651.0,9271.0,6780.0,4803.0,-5.0,9.0,-4.0,1.0
2022-05-13 15:35:34.870146-07:00,2008.4,588.3,1479.2,1402.1,971.3,1289.1,1517.1,1497.7,3433.4,3438.2,1465.4,1219.5,1216.0,3440.7,1000.5,1350.3,3439.5,3445.5,667.6,1278.3,900.8,541.0,1314.2,1574.9,3438.2,3441.9,735.6,944.9,1174.4,1344.0,1141.9,984.2,0.0,3.0,0.0,-7590.0,-8799.0,-9373.0,-6750.0,13.0,-42.0,8.0,3.0,1.0,-7.0,10652.0,9271.0,6779.0,4802.0,-2.0,-14.0,-5.0,1.0
2022-05-13 15:35:34.958439-07:00,2007.4,588.3,1479.2,1402.1,968.8,1277.4,1520.8,1497.7,3438.2,3438.2,1465.4,1219.5,1217.7,3435.8,1007.3,1350.3,3439.5,3437.0,670.9,1277.4,900.8,541.0,1314.2,1575.8,3438.2,3439.5,731.5,944.9,1174.4,1344.0,1141.9,980.7,-5.0,19.0,1.0,-7594.0,-8806.0,-9368.0,-6743.0,41.0,-11.0,18.0,-4.0,6.0,8.0,10652.0,9276.0,6777.0,4796.0,17.0,-13.0,0.0,1.0
2022-05-13 15:35:35.004836-07:00,2007.4,589.1,1462.6,1388.5,968.8,1277.4,1520.8,1485.6,3438.2,3441.9,1469.0,1232.8,1217.7,3435.8,1007.3,1352.1,3439.5,3437.0,670.9,1277.4,902.5,540.2,1311.5,1575.8,3444.3,3439.5,731.5,944.9,1177.9,1329.6,1143.6,980.7,-6.0,0.0,-1.0,-7599.0,-8806.0,-9364.0,-6741.0,-2.0,-12.0,0.0,0.0,-13.0,3.0,10656.0,9275.0,6773.0,4796.0,3.0,-6.0,-4.0,1.0
2022-05-13 15:35:35.006042-07:00,2007.4,589.1,1462.6,1388.5,973.9,1290.9,1513.4,1485.6,3435.8,3441.9,1469.0,1232.8,1215.1,3428.6,1004.8,1352.1,3439.5,3439.5,672.5,1273.0,902.5,540.2,1311.5,1569.3,3444.3,3437.0,737.3,944.9,1177.9,1329.6,1143.6,988.5,-5.0,0.0,4.0,-7603.0,-8811.0,-9359.0,-6738.0,-20.0,-24.0,2.0,-1.0,1.0,0.0,10660.0,9275.0,6768.0,4793.0,-16.0,-15.0,-4.0,1.0
2022-05-13 15:35:35.049489-07:00,2007.4,581.8,1473.6,1397.6,973.9,1290.9,1514.3,1485.6,3435.8,3443.1,1470.9,1220.4,1215.1,3428.6,1006.5,1344.9,3444.3,3437.0,672.5,1273.0,901.7,541.0,1310.6,1569.3,3444.3,3440.7,737.3,944.9,1181.5,1355.8,1139.2,988.5,-4.0,4.0,-1.0,-7603.0,-8815.0,-9356.0,-6737.0,6.0,-3.0,0.0,1.0,8.0,0.0,10660.0,9276.0,6767.0,4791.0,-8.0,-9.0,-1.0,1.0
2022-05-13 15:35:35.185071-07:00,2011.4,587.5,1473.6,1397.6,962.8,1285.5,1514.3,1485.6,3440.7,3443.1,1470.9,1220.4,1222.2,3439.5,1006.5,1344.9,3444.3,3437.0,673.3,1277.4,901.7,541.0,1308.8,1575.8,3444.3,3440.7,733.2,939.8,1181.5,1355.8,1139.2,985.0,-1.0,12.0,-3.0,-7603.0,-8819.0,-9357.0,-6731.0,28.0,-9.0,14.0,8.0,1.0,1.0,10660.0,9279.0,6766.0,4788.0,-12.0,-15.0,6.0,1.0
2022-05-13 15:35:35.229394-07:00,2011.4,587.5,1470.0,1392.1,962.8,1285.5,1499.5,1479.2,3440.7,3443.1,1472.7,1223.0,1222.2,3439.5,1004.8,1354.0,3435.8,3434.6,673.3,1277.4,909.3,540.2,1308.8,1575.8,3440.7,3435.8,733.2,939.8,1179.7,1335.0,1139.2,985.0,-2.0,5.0,5.0,-7614.0,-8817.0,-9348.0,-6733.0,-4.0,-25.0,3.0,8.0,-12.0,4.0,10666.0,9276.0,6760.0,4789.0,7.0,-9.0,-7.0,1.0
2022-05-13 15:35:35.231400-07:00,2009.4,582.6,1470.0,1392.1,973.1,1281.9,1499.5,1479.2,3434.6,3444.3,1472.7,1223.0,1217.7,3439.5,1004.8,1354.0,3435.8,3434.6,678.2,1275.6,909.3,540.2,1305.2,1569.3,3440.7,3435.8,729.9,944.1,1179.7,1335.0,1142.7,985.0,-1.0,1.0,4.0,-7622.0,-8824.0,-9345.0,-6718.0,9.0,-55.0,-16.0,0.0,1.0,3.0,10668.0,9275.0,6761.0,4783.0,-9.0,-12.0,-11.0,1.0
2022-05-13 15:35:35.376116-07:00,2009.4,582.6,1472.7,1389.4,973.1,1281.9,1505.1,1458.9,3434.6,3444.3,1466.3,1221.3,1217.7,3439.5,1005.6,1337.7,3433.4,3443.1,678.2,1275.6,901.7,545.0,1305.2,1569.3,3438.2,3439.5,729.9,944.1,1175.3,1333.2,1142.7,985.0,-4.0,10.0,0.0,-7624.0,-8828.0,-9340.0,-6719.0,-13.0,28.0,32.0,7.0,-22.0,0.0,10669.0,9278.0,6756.0,4783.0,6.0,0.0,14.0,1.0
2022-05-13 15:35:35.378782-07:00,2007.4,585.1,1462.6,1389.4,961.1,1286.4,1505.1,1458.9,3435.8,3440.7,1474.6,1221.3,1214.2,3439.5,1005.6,1337.7,3433.4,3443.1,676.6,1293.6,901.7,540.2,1306.1,1574.9,3438.2,3439.5,737.3,937.3,1175.3,1336.8,1141.9,977.3,1.0,10.0,-6.0,-7621.0,-8831.0,-9342.0,-6715.0,28.0,-36.0,-19.0,5.0,10.0,-3.0,10668.0,9280.0,6759.0,4778.0,4.0,-9.0,-17.0,1.0
2022-05-13 15:35:35.384318-07:00,2007.4,585.1,1462.6,1391.2,961.1,1281.0,1504.1,1474.6,3435.8,3440.7,1474.6,1223.9,1214.2,3446.7,1003.9,1350.3,3443.1,3438.2,672.5,1293.6,917.7,540.2,1306.1,1574.9,3446.7,3441.9,731.5,937.3,1175.3,1336.8,1141.9,977.3,-6.0,-16.0,8.0,-7630.0,-8832.0,-9339.0,-6708.0,-12.0,-10.0,18.0,1.0,-5.0,1.0,10671.0,9280.0,6756.0,4774.0,-2.0,-16.0,14.0,1.0
2022-05-13 15:35:35.408877-07:00,2005.5,581.8,1470.9,1391.2,954.3,1281.0,1504.1,1474.6,3444.3,3439.5,1475.5,1223.9,1217.7,3446.7,1003.9,1350.3,3443.1,3438.2,672.5,1282.8,917.7,537.0,1305.2,1574.9,3446.7,3441.9,731.5,943.2,1175.3,1345.8,1137.5,978.2,-2.0,21.0,-4.0,-7625.0,-8838.0,-9333.0,-6713.0,20.0,-8.0,7.0,2.0,8.0,3.0,10670.0,9284.0,6753.0,4774.0,10.0,-6.0,-9.0,1.0
2022-05-13 15:35:35.453825-07:00,2005.5,581.8,1470.9,1396.7,954.3,1283.7,1497.7,1471.8,3444.3,3439.5,1475.5,1225.7,1217.7,3433.4,1003.9,1351.2,3429.8,3428.6,677.4,1282.8,903.4,537.0,1305.2,1574.9,3439.5,3433.4,737.3,943.2,1175.3,1345.8,1137.5,978.2,-2.0,-5.0,12.0,-7633.0,-8843.0,-9331.0,-6701.0,-7.0,-21.0,-11.0,-1.0,-3.0,-1.0,10676.0,9282.0,6751.0,4768.0,-15.0,-12.0,0.0,1.0
2022-05-13 15:35:35.588634-07:00,2004.5,593.1,1469.0,1396.7,960.2,1283.7,1497.7,1471.8,3435.8,3444.3,1469.0,1225.7,1218.6,3433.4,1003.9,1351.2,3429.8,3428.6,677.4,1266.7,903.4,541.0,1314.2,1572.1,3439.5,3433.4,737.3,944.1,1175.3,1336.8,1141.0,980.7,-5.0,15.0,-3.0,-7632.0,-8843.0,-9326.0,-6710.0,1.0,10.0,19.0,0.0,10.0,1.0,10677.0,9283.0,6748.0,4768.0,5.0,-4.0,5.0,1.0
2022-05-13 15:35:35.591679-07:00,2004.5,593.1,1469.0,1386.6,960.2,1279.2,1497.7,1465.4,3435.8,3444.3,1469.0,1220.4,1218.6,3437.0,999.6,1347.6,3433.4,3437.0,674.2,1266.7,905.9,541.0,1314.2,1572.1,3439.5,3438.2,733.2,944.1,1174.4,1336.8,1141.0,980.7,-2.0,7.0,-3.0,-7636.0,-8846.0,-9326.0,-6700.0,0.0,-43.0,-24.0,1.0,2.0,-8.0,10679.0,9281.0,6750.0,4763.0,-11.0,-15.0,-17.0,1.0
