Time,P0,P1,P2,P3,P4,P5,P6,P7,P8,P9,P10,P11,P12,P13,P14,P15,P16,P17,P18,P19,P20,P21,P22,P23,P24,P25,P26,P27,P28,P29,P30,P31,ECG,AX0,AY0,AZ0,QW0,QX0,QY0,QZ0,GX0,GY0,GZ0,AX1,AY1,AZ1,QW1,QX1,QY1,QZ1,GX1,GY1,GZ1
2022-05-13 15:48:31.798658-07:00,1804.2,555.4,997.9,1210.6,826.9,1115.6,1171.8,1240.8,3438.2,3435.8,1381.2,1182.3,1199.1,3437.0,1026.3,1331.4,3439.5,3435.8,679.1,1268.5,883.1,525.0,1189.4,1546.9,3439.5,3438.2,720.8,858.7,1163.0,1331.4,1209.7,966.2,10.0,-1.0,16.0,-9456.0,-11435.0,-5263.0,-4535.0,19.0,25.0,-2.0,11.0,0.0,-12.0,10734.0,10976.0,-2912.0,-4925.0,11.0,33.0,-1.0,1.0
2022-05-13 15:48:31.799484-07:00,1807.1,557.8,997.9,1210.6,821.0,1111.2,1171.8,1240.8,3431.0,3437.0,1381.2,1182.3,1198.2,3438.2,1026.3,1331.4,3439.5,3435.8,677.4,1273.9,883.1,525.0,1185.9,1551.5,3439.5,3438.2,720.0,862.1,1163.0,1331.4,1210.6,970.5,0.0,8.0,5.0,-9441.0,-11436.0,-5278.0,-4546.0,46.0,49.0,-9.0,3.0,7.0,-2.0,10729.0,10990.0,-2903.0,-4912.0,36.0,36.0,-12.0,1.0
2022-05-13 15:48:31.844230-07:00,1807.1,557.8,994.5,1203.5,821.0,1111.2,1155.0,1239.9,3431.0,3437.0,1382.1,1185.9,1198.2,3438.2,1028.8,1329.6,3433.4,3438.2,677.4,1273.9,878.0,518.7,1185.9,1551.5,3439.5,3433.4,720.0,862.1,1158.6,1335.0,1210.6,970.5,-2.0,0.0,6.0,-9423.0,-11443.0,-5297.0,-4544.0,44.0,25.0,-16.0,-2.0,1.0,-13.0,10719.0,11005.0,-2893.0,-4903.0,21.0,33.0,-13.0,1.0
2022-05-13 15:48:31.845657-07:00,1806.1,562.6,994.5,1203.5,817.7,1106.9,1155.0,1239.9,3439.5,3439.5,1382.1,1185.9,1194.7,3435.8,1028.8,1329.6,3433.4,3438.2,675.0,1269.4,878.0,518.7,1188.5,1548.7,3439.5,3433.4,721.6,857.9,1158.6,1335.0,1208.0,967.1,-6.0,3.0,-8.0,-9412.0,-11443.0,-5310.0,-4552.0,21.0,38.0,-1.0,-3.0,0.0,-18.0,10715.0,11016.0,-2886.0,-4894.0,17.0,26.0,-6.0,1.0
2022-05-13 15:48:31.846672-07:00,1806.1,562.6,999.6,1217.7,817.7,1106.9,1175.3,1245.3,3439.5,3439.5,1383.0,1177.0,1194.7,3435.8,1029.7,1333.2,3418.9,3432.2,675.0,1269.4,882.3,525.0,1188.5,1548.7,3428.6,3446.7,721.6,857.9,1168.2,1333.2,1208.0,967.1,-4.0,3.0,-6.0,-9401.0,-11446.0,-5319.0,-4555.0,16.0,11.0,-7.0,-4.0,5.0,-19.0,10710.0,11023.0,-2884.0,-4889.0,1.0,2.0,-6.0,1.0
2022-05-13 15:48:31.847646-07:00,1816.8,546.6,999.6,1217.7,822.7,1113.9,1175.3,1245.3,3439.5,3435.8,1381.2,1177.0,1197.4,3444.3,1029.7,1333.2,3418.9,3432.2,679.1,1274.7,882.3,525.8,1185.9,1548.7,3428.6,3446.7,726.6,862.9,1168.2,1332.3,1207.1,973.1,-2.0,9.0,0.0,-9401.0,-11447.0,-5318.0,-4553.0,2.0,-17.0,8.0,-2.0,1.0,-12.0,10709.0,11022.0,-2887.0,-4892.0,-4.0,-16.0,-1.0,1.0
2022-05-13 15:48:31.889410-07:00,1816.8,546.6,999.6,1202.7,822.7,1113.0,1163.0,1234.6,3439.5,3435.8,1381.2,1179.7,1197.4,3444.3,1028.0,1332.3,3440.7,3433.4,679.9,1274.7,875.5,525.8,1185.9,1548.7,3449.1,3439.5,718.4,862.9,1164.7,1332.3,1207.1,973.1,-1.0,4.0,10.0,-9407.0,-11447.0,-5311.0,-4549.0,5.0,-14.0,1.0,0.0,3.0,-10.0,10709.0,11019.0,-2890.0,-4897.0,-2.0,-11.0,1.0,1.0
2022-05-13 15:48:31.934567-07:00,1810.0,556.2,999.6,1202.7,816.0,1113.0,1163.0,1234.6,3439.5,3433.4,1373.0,1179.7,1193.8,3444.3,1028.0,1332.3,3440.7,3433.4,679.9,1268.5,875.5,522.6,1185.9,1549.7,3449.1,3439.5,718.4,858.7,1164.7,1326.8,1208.0,969.6,-3.0,-1.0,9.0,-9410.0,-11445.0,-5310.0,-4549.0,-14.0,4.0,3.0,2.0,-3.0,-5.0,10711.0,11017.0,-2890.0,-4897.0,-6.0,0.0,1.0,1.0
2022-05-13 15:48:31.977646-07:00,1810.0,556.2,999.6,1212.4,816.0,1117.4,1153.3,1233.7,3439.5,3433.4,1373.0,1180.6,1193.8,3439.5,1028.0,1330.5,3432.2,3437.0,679.9,1268.5,878.9,522.6,1185.9,1549.7,3438.2,3434.6,716.7,858.7,1164.7,1326.8,1208.0,969.6,1.0,4.0,2.0,-9410.0,-11445.0,-5310.0,-4549.0,10.0,7.0,3.0,0.0,4.0,-10.0,10711.0,11017.0,-2890.0,-4897.0,-1.0,-2.0,1.0,1.0
2022-05-13 15:48:32.111579-07:00,1802.3,559.4,993.6,1212.4,819.4,1117.4,1153.3,1233.7,3437.0,3435.8,1380.3,1180.6,1213.3,3439.5,1028.0,1330.5,3432.2,3437.0,679.9,1265.8,878.9,525.0,1182.3,1548.7,3438.2,3434.6,716.7,859.5,1164.7,1329.6,1203.5,968.8,0.0,-4.0,1.0,-9414.0,-11442.0,-5308.0,-4551.0,-27.0,-4.0,-2.0,1.0,-5.0,-16.0,10717.0,11012.0,-2887.0,-4899.0,-24.0,-5.0,-2.0,1.0
2022-05-13 15:48:32.114573-07:00,1802.3,559.4,993.6,1210.6,825.2,1109.5,1156.8,1246.2,3437.0,3435.8,1380.3,1176.2,1201.8,3444.3,1031.4,1324.1,3437.0,3433.4,680.7,1265.8,878.0,525.0,1182.3,1548.7,3445.5,3435.8,715.9,864.6,1156.8,1329.6,1203.5,968.8,0.0,7.0,4.0,-9416.0,-11441.0,-5307.0,-4551.0,-9.0,-10.0,3.0,1.0,6.0,-8.0,10721.0,11006.0,-2887.0,-4902.0,-22.0,-12.0,1.0,1.0
2022-05-13 15:48:32.337647-07:00,1812.9,553.8,999.6,1207.1,825.2,1109.5,1156.8,1246.2,3445.5,3435.8,1377.5,1189.4,1201.8,3444.3,1031.4,1324.1,3437.0,3433.4,680.7,1265.8,879.7,523.4,1184.1,1552.5,3445.5,3435.8,715.9,864.6,1165.6,1331.4,1207.1,973.1,-5.0,0.0,13.0,-9423.0,-11439.0,-5301.0,-4549.0,-9.0,-14.0,2.0,0.0,3.0,-9.0,10725.0,10999.0,-2888.0,-4907.0,-6.0,-10.0,2.0,1.0
2022-05-13 15:48:32.339226-07:00,1812.9,553.8,999.6,1207.1,811.0,1102.5,1164.7,1231.9,3445.5,3435.8,1377.5,1189.4,1194.7,3435.8,1025.4,1331.4,3440.7,3437.0,673.3,1267.6,879.7,523.4,1184.1,1552.5,3437.0,3446.7,723.3,862.1,1165.6,1331.4,1207.1,973.1,-1.0,10.0,11.0,-9422.0,-11441.0,-5301.0,-4546.0,8.0,-6.0,6.0,0.0,3.0,-11.0,10725.0,10999.0,-2888.0,-4907.0,-8.0,-2.0,-2.0,1.0
2022-05-13 15:48:32.383712-07:00,1811.0,550.6,1002.2,1216.8,811.0,1102.5,1164.7,1231.9,3441.9,3441.9,1367.6,1186.7,1194.7,3435.8,1025.4,1331.4,3440.7,3437.0,673.3,1267.6,880.6,523.4,1189.4,1547.8,3437.0,3446.7,723.3,862.1,1166.5,1328.7,1201.8,973.9,1.0,0.0,7.0,-9425.0,-11438.0,-5299.0,-4548.0,-10.0,0.0,-1.0,0.0,0.0,-9.0,10729.0,10995.0,-2887.0,-4909.0,-6.0,3.0,1.0,1.0
2022-05-13 15:48:32.428800-07:00,1811.0,550.6,1002.2,1216.8,817.7,1113.0,1160.3,1223.9,3441.9,3441.9,1367.6,1186.7,1195.6,3440.7,1027.1,1328.7,3435.8,3434.6,675.0,1266.7,880.6,523.4,1189.4,1547.8,3441.9,3446.7,715.1,866.3,1166.5,1328.7,1201.8,973.9,0.0,8.0,2.0,-9422.0,-11441.0,-5301.0,-4546.0,17.0,2.0,0.0,3.0,7.0,-4.0,10729.0,10995.0,-2886.0,-4909.0,-10.0,-2.0,-3.0,1.0
2022-05-13 15:48:32.430902-07:00,1811.0,557.8,1006.5,1211.5,817.7,1113.0,1160.3,1239.1,3444.3,3439.5,1386.6,1179.7,1195.6,3440.7,1027.1,1328.7,3434.6,3434.6,675.0,1266.7,877.2,525.8,1188.5,1547.8,3441.9,3446.7,715.1,866.3,1171.8,1339.5,1199.1,972.2,0.0,0.0,9.0,-9423.0,-11440.0,-5300.0,-4547.0,-7.0,-4.0,4.0,1.0,-1.0,-13.0,10731.0,10993.0,-2886.0,-4909.0,-3.0,-1.0,0.0,1.0
2022-05-13 15:48:32.431576-07:00,1814.9,557.8,1006.5,1211.5,824.4,1115.6,1157.7,1239.1,3443.1,3439.5,1386.6,1179.7,1196.5,3433.4,1029.7,1328.7,3434.6,3439.5,676.6,1266.7,877.2,525.8,1188.5,1550.6,3441.9,3438.2,719.2,854.5,1171.8,1339.5,1199.1,964.5,-4.0,4.0,4.0,-9423.0,-11440.0,-5300.0,-4547.0,3.0,5.0,-1.0,-2.0,1.0,-11.0,10731.0,10993.0,-2886.0,-4909.0,-2.0,-2.0,-5.0,1.0
2022-05-13 15:48:32.518686-07:00,1814.9,549.8,1003.0,1217.7,824.4,1115.6,1157.7,1239.1,3443.1,3438.2,1387.5,1176.2,1196.5,3433.4,1029.7,1329.6,3439.5,3439.5,676.6,1266.7,882.3,525.8,1184.1,1550.6,3443.1,3438.2,719.2,854.5,1167.4,1332.3,1211.5,964.5,-1.0,4.0,4.0,-9423.0,-11440.0,-5300.0,-4547.0,8.0,-3.0,-1.0,0.0,2.0,-14.0,10731.0,10993.0,-2886.0,-4909.0,-9.0,-6.0,0.0,1.0
2022-05-13 15:48:32.519073-07:00,1800.3,549.8,1003.0,1217.7,821.9,1114.7,1160.3,1239.1,3439.5,3438.2,1387.5,1176.2,1191.2,3434.6,1028.0,1329.6,3439.5,3435.8,679.9,1269.4,882.3,525.8,1184.1,1545.0,3443.1,3428.6,722.5,880.6,1167.4,1332.3,1211.5,968.8,0.0,0.0,4.0,-9423.0,-11440.0,-5300.0,-4547.0,8.0,-4.0,5.0,0.0,0.0,-15.0,10731.0,10993.0,-2886.0,-4909.0,2.0,-2.0,-1.0,1.0
2022-05-13 15:48:32.563902-07:00,1800.3,553.0,995.3,1217.7,821.9,1114.7,1160.3,1225.7,3439.5,3437.0,1383.9,1174.4,1191.2,3434.6,1028.0,1332.3,3429.8,3435.8,679.9,1269.4,878.9,521.0,1187.6,1545.0,3435.8,3428.6,722.5,880.6,1171.8,1328.7,1208.0,968.8,0.0,-2.0,4.0,-9425.0,-11438.0,-5299.0,-4548.0,-5.0,-4.0,0.0,3.0,-2.0,-10.0,10733.0,10991.0,-2885.0,-4910.0,-10.0,-7.0,-3.0,1.0
2022-05-13 15:48:32.743195-07:00,1810.0,553.0,995.3,1217.7,822.7,1112.1,1164.7,1225.7,3444.3,3437.0,1383.9,1174.4,1188.5,3433.4,1025.4,1332.3,3429.8,3434.6,676.6,1271.2,878.9,521.0,1187.6,1547.8,3435.8,3434.6,711.0,860.4,1171.8,1328.7,1208.0,967.9,2.0,11.0,2.0,-9423.0,-11440.0,-5300.0,-4547.0,0.0,-6.0,-1.0,6.0,6.0,-13.0,10733.0,10992.0,-2885.0,-4910.0,-2.0,-8.0,0.0,1.0
2022-05-13 15:48:33.059036-07:00,1810.0,556.2,996.2,1208.9,822.7,1112.1,1160.3,1242.6,3444.3,3439.5,1382.1,1182.3,1188.5,3433.4,1028.8,1327.8,3434.6,3446.7,676.6,1271.2,883.1,523.4,1186.7,1547.8,3438.2,3440.7,711.0,860.4,1166.5,1330.5,1214.2,967.9,2.0,0.0,12.0,-9426.0,-11438.0,-5299.0,-4548.0,-7.0,7.0,3.0,5.0,0.0,-14.0,10735.0,10989.0,-2884.0,-4910.0,-12.0,1.0,-1.0,1.0
2022-05-13 15:48:33.060238-07:00,1799.4,555.4,996.2,1208.9,821.0,1113.0,1160.3,1242.6,3441.9,3439.5,1382.1,1182.3,1191.2,3443.1,1028.8,1327.8,3434.6,3446.7,675.8,1271.2,883.1,523.4,1185.9,1552.5,3438.2,3440.7,717.5,858.7,1166.5,1330.5,1208.9,970.5,0.0,10.0,4.0,-9424.0,-11440.0,-5300.0,-4547.0,-4.0,6.0,-2.0,0.0,3.0,-11.0,10735.0,10989.0,-2883.0,-4910.0,1.0,7.0,0.0,1.0
2022-05-13 15:48:33.061251-07:00,1799.4,555.4,992.7,1211.5,821.0,1113.0,1162.1,1234.6,3441.9,3439.5,1384.8,1182.3,1191.2,3443.1,1028.0,1332.3,3429.8,3428.6,675.8,1271.2,878.9,527.4,1185.9,1552.5,3435.8,3435.8,717.5,858.7,1167.4,1333.2,1208.9,970.5,-3.0,1.0,1.0,-9423.0,-11439.0,-5302.0,-4549.0,2.0,3.0,4.0,-2.0,1.0,-13.0,10736.0,10989.0,-2883.0,-4910.0,-6.0,3.0,2.0,1.0
2022-05-13 15:48:33.062258-07:00,1804.2,557.0,992.7,1211.5,821.9,1112.1,1162.1,1234.6,3437.0,3439.5,1384.8,1182.3,1192.9,3449.1,1028.0,1332.3,3429.8,3428.6,673.3,1271.2,878.9,527.4,1196.5,1545.9,3435.8,3435.8,716.7,862.1,1167.4,1333.2,1211.5,967.1,-2.0,3.0,4.0,-9423.0,-11439.0,-5302.0,-4549.0,-3.0,-3.0,2.0,0.0,1.0,-15.0,10736.0,10989.0,-2883.0,-4910.0,-4.0,0.0,-1.0,1.0
2022-05-13 15:48:33.179422-07:00,1804.2,557.0,1001.3,1209.7,821.9,1112.1,1166.5,1239.9,3437.0,3439.5,1384.8,1183.2,1192.9,3449.1,1025.4,1331.4,3429.8,3449.1,673.3,1271.2,878.0,521.8,1196.5,1545.9,3441.9,3435.8,716.7,862.1,1161.2,1332.3,1211.5,967.1,0.0,4.0,7.0,-9421.0,-11440.0,-5300.0,-4550.0,10.0,-9.0,10.0,3.0,3.0,-9.0,10736.0,10989.0,-2883.0,-4910.0,7.0,-1.0,4.0,1.0
2022-05-13 15:48:33.193003-07:00,1797.4,553.0,995.3,1209.7,818.5,1109.5,1166.5,1239.9,3437.0,3434.6,1383.9,1183.2,1190.3,3444.3,1025.4,1331.4,3429.8,3449.1,676.6,1273.0,878.0,522.6,1184.1,1544.1,3441.9,3435.8,715.1,857.9,1161.2,1329.6,1207.1,967.1,0.0,5.0,5.0,-9417.0,-11444.0,-5302.0,-4548.0,-4.0,-6.0,0.0,3.0,7.0,-14.0,10737.0,10988.0,-2883.0,-4910.0,-7.0,-3.0,-1.0,1.0
2022-05-13 15:48:33.194675-07:00,1807.1,548.2,1000.5,1210.6,817.7,1118.2,1149.8,1236.4,3443.1,3428.6,1378.5,1182.3,1198.2,3439.5,1021.1,1335.9,3440.7,3433.4,676.6,1268.5,878.9,522.6,1182.3,1545.9,3438.2,3441.9,718.4,865.4,1166.5,1328.7,1205.3,970.5,0.0,-4.0,13.0,-9417.0,-11444.0,-5302.0,-4548.0,5.0,6.0,7.0,1.0,-1.0,-15.0,10737.0,10988.0,-2882.0,-4910.0,-2.0,2.0,1.0,1.0
2022-05-13 15:48:33.239217-07:00,1811.9,551.4,995.3,1214.2,817.7,1118.2,1149.8,1236.4,3440.7,3443.1,1377.5,1180.6,1198.2,3439.5,1021.1,1335.9,3440.7,3433.4,676.6,1268.5,877.2,525.8,1191.2,1552.5,3438.2,3441.9,718.4,865.4,1156.8,1335.9,1222.2,975.6,0.0,8.0,8.0,-9415.0,-11446.0,-5301.0,-4549.0,-2.0,1.0,-2.0,-1.0,4.0,-12.0,10737.0,10988.0,-2882.0,-4910.0,-5.0,7.0,-3.0,1.0
2022-05-13 15:48:33.241695-07:00,1811.9,551.4,995.3,1214.2,824.4,1100.8,1161.2,1256.0,3440.7,3443.1,1377.5,1180.6,1201.8,3445.5,1029.7,1328.7,3438.2,3437.0,681.5,1273.9,877.2,525.8,1191.2,1552.5,3440.7,3441.9,722.5,862.9,1156.8,1335.9,1222.2,975.6,0.0,5.0,6.0,-9413.0,-11447.0,-5302.0,-4548.0,1.0,5.0,-3.0,0.0,6.0,-17.0,10737.0,10988.0,-2882.0,-4910.0,-2.0,3.0,-1.0,1.0
2022-05-13 15:48:33.283581-07:00,1809.0,550.6,997.0,1206.2,824.4,1100.8,1161.2,1256.0,3441.9,3438.2,1379.4,1183.2,1201.8,3445.5,1029.7,1328.7,3438.2,3437.0,681.5,1273.9,880.6,521.0,1185.0,1550.6,3440.7,3441.9,722.5,862.9,1162.1,1333.2,1203.5,979.9,1.0,0.0,5.0,-9413.0,-11447.0,-5302.0,-4548.0,8.0,-3.0,6.0,3.0,2.0,-15.0,10737.0,10988.0,-2882.0,-4910.0,5.0,7.0,-1.0,1.0
2022-05-13 15:48:33.418741-07:00,1809.0,550.6,997.0,1206.2,824.4,1109.5,1154.2,1234.6,3441.9,3438.2,1379.4,1183.2,1196.5,3444.3,1029.7,1326.8,3432.2,3445.5,674.2,1273.0,880.6,521.0,1185.0,1550.6,3438.2,3444.3,701.9,857.9,1162.1,1333.2,1203.5,979.9,1.0,6.0,5.0,-9412.0,-11448.0,-5302.0,-4547.0,-9.0,-4.0,-6.0,4.0,1.0,-16.0,10737.0,10988.0,-2882.0,-4910.0,-8.0,0.0,-2.0,1.0
2022-05-13 15:48:33.553009-07:00,1806.1,553.8,996.2,1219.5,824.4,1109.5,1154.2,1234.6,3433.4,3449.1,1382.1,1181.5,1196.5,3444.3,1029.7,1326.8,3432.2,3445.5,674.2,1273.0,881.4,523.4,1183.2,1552.5,3438.2,3444.3,701.9,857.9,1161.2,1331.4,1207.1,969.6,1.0,9.0,6.0,-9411.0,-11449.0,-5302.0,-4547.0,-13.0,6.0,1.0,2.0,7.0,-13.0,10738.0,10987.0,-2882.0,-4910.0,-11.0,-1.0,2.0,1.0
2022-05-13 15:48:33.554692-07:00,1807.1,553.8,996.2,1219.5,821.0,1112.1,1154.2,1227.5,3438.2,3449.1,1382.1,1181.5,1199.1,3428.6,1028.0,1327.8,3443.1,3435.8,676.6,1267.6,881.4,523.4,1183.2,1545.9,3449.1,3434.6,719.2,864.6,1161.2,1331.4,1207.1,964.5,0.0,0.0,9.0,-9414.0,-11447.0,-5301.0,-4548.0,21.0,2.0,-2.0,3.0,1.0,-12.0,10741.0,10984.0,-2881.0,-4911.0,6.0,-1.0,-4.0,1.0
2022-05-13 15:48:33.556596-07:00,1807.1,546.6,1003.0,1215.1,821.0,1112.1,1154.2,1230.2,3438.2,3438.2,1379.4,1186.7,1199.1,3428.6,1028.0,1329.6,3441.9,3435.8,676.6,1267.6,878.0,521.0,1180.6,1545.9,3450.4,3434.6,719.2,864.6,1158.6,1335.9,1212.4,964.5,0.0,0.0,5.0,-9411.0,-11449.0,-5302.0,-4547.0,-9.0,0.0,5.0,0.0,3.0,-13.0,10741.0,10984.0,-2881.0,-4911.0,-3.0,-1.0,0.0,1.0
2022-05-13 15:48:33.597527-07:00,1811.9,546.6,1003.0,1215.1,816.9,1106.9,1159.4,1230.2,3444.3,3438.2,1379.4,1186.7,1194.7,3440.7,1028.0,1329.6,3441.9,3435.8,681.5,1265.8,878.0,521.0,1180.6,1546.9,3450.4,3443.1,717.5,857.9,1158.6,1335.9,1212.4,966.2,0.0,14.0,5.0,-9410.0,-11450.0,-5300.0,-4550.0,-21.0,17.0,6.0,2.0,9.0,-17.0,10742.0,10983.0,-2880.0,-4911.0,-22.0,-6.0,4.0,1.0
2022-05-13 15:48:33.598574-07:00,1811.9,554.6,999.6,1214.2,816.9,1106.9,1159.4,1223.9,3444.3,3443.1,1384.8,1183.2,1194.7,3440.7,1028.0,1325.9,3432.2,3435.8,681.5,1265.8,877.2,518.7,1183.2,1546.9,3444.3,3443.1,717.5,857.9,1164.7,1331.4,1210.6,966.2,-3.0,-5.0,6.0,-9416.0,-11442.0,-5299.0,-4556.0,20.0,-1.0,0.0,0.0,-9.0,-14.0,10748.0,10977.0,-2877.0,-4913.0,3.0,3.0,-6.0,1.0
2022-05-13 15:48:33.688980-07:00,1800.3,554.6,999.6,1214.2,816.9,1106.9,1149.8,1223.9,3444.3,3443.1,1384.8,1183.2,1193.8,3444.3,1036.6,1325.9,3432.2,3432.2,672.5,1267.6,877.2,518.7,1183.2,1547.8,3444.3,3438.2,715.1,868.8,1164.7,1331.4,1210.6,971.3,0.0,4.0,7.0,-9411.0,-11447.0,-5301.0,-4554.0,-8.0,5.0,-7.0,1.0,1.0,-16.0,10747.0,10978.0,-2878.0,-4913.0,-8.0,0.0,-3.0,1.0
2022-05-13 15:48:33.778642-07:00,1800.3,553.0,995.3,1212.4,816.9,1106.9,1153.3,1228.4,3444.3,3439.5,1383.0,1182.3,1193.8,3444.3,1028.8,1329.6,3437.0,3435.8,672.5,1267.6,876.4,521.8,1185.9,1547.8,3440.7,3444.3,715.1,868.8,1163.8,1329.6,1211.5,971.3,0.0,14.0,2.0,-9409.0,-11448.0,-5301.0,-4554.0,14.0,5.0,2.0,0.0,5.0,-16.0,10747.0,10978.0,-2878.0,-4913.0,2.0,6.0,-4.0,1.0
2022-05-13 15:48:33.779795-07:00,1802.3,552.2,995.3,1212.4,821.9,1109.5,1153.3,1228.4,3433.4,3441.9,1383.0,1182.3,1199.1,3445.5,1028.8,1329.6,3437.0,3435.8,679.9,1271.2,876.4,521.8,1189.4,1543.1,3440.7,3444.3,713.4,864.6,1163.8,1329.6,1209.7,968.8,0.0,-4.0,3.0,-9410.0,-11448.0,-5303.0,-4552.0,-2.0,-6.0,-5.0,3.0,-2.0,-16.0,10749.0,10976.0,-2877.0,-4913.0,-11.0,-1.0,-5.0,1.0
2022-05-13 15:48:33.780833-07:00,1802.3,552.2,1001.3,1208.0,821.9,1109.5,1162.1,1230.2,3433.4,3441.9,1388.5,1184.1,1199.1,3445.5,1032.3,1330.5,3437.0,3439.5,679.9,1271.2,878.0,522.6,1189.4,1543.1,3432.2,3445.5,713.4,864.6,1163.0,1339.5,1209.7,968.8,2.0,6.0,7.0,-9407.0,-11450.0,-5304.0,-4551.0,7.0,0.0,11.0,1.0,8.0,-16.0,10750.0,10976.0,-2877.0,-4913.0,0.0,-2.0,4.0,1.0
2022-05-13 15:48:33.914590-07:00,1802.3,553.0,1001.3,1208.0,820.2,1113.0,1162.1,1230.2,3438.2,3434.6,1388.5,1184.1,1198.2,3438.2,1032.3,1330.5,3437.0,3439.5,673.3,1272.1,878.0,522.6,1179.7,1544.1,3432.2,3445.5,710.1,859.5,1163.0,1339.5,1210.6,967.1,-4.0,3.0,10.0,-9410.0,-11447.0,-5302.0,-4554.0,-10.0,12.0,-10.0,1.0,0.0,-11.0,10753.0,10972.0,-2875.0,-4914.0,-12.0,5.0,-6.0,1.0
2022-05-13 15:48:34.046929-07:00,1802.3,553.0,994.5,1209.7,820.2,1113.0,1148.9,1234.6,3438.2,3434.6,1385.7,1180.6,1198.2,3438.2,1028.8,1324.1,3439.5,3443.1,673.3,1272.1,880.6,524.2,1179.7,1544.1,3443.1,3444.3,710.1,859.5,1162.1,1335.0,1210.6,967.1,0.0,3.0,4.0,-9409.0,-11447.0,-5304.0,-4554.0,9.0,3.0,-8.0,0.0,0.0,-18.0,10755.0,10970.0,-2875.0,-4915.0,-5.0,1.0,-6.0,1.0
2022-05-13 15:48:34.229573-07:00,1812.9,550.6,997.0,1209.7,822.7,1112.1,1148.9,1234.6,3439.5,3443.1,1384.8,1180.6,1196.5,3439.5,1028.8,1324.1,3439.5,3443.1,678.2,1268.5,880.6,519.5,1180.6,1551.5,3443.1,3444.3,708.5,862.9,1162.1,1327.8,1211.5,976.5,2.0,1.0,9.0,-9409.0,-11447.0,-5304.0,-4555.0,6.0,10.0,3.0,1.0,5.0,-18.0,10755.0,10970.0,-2875.0,-4915.0,-2.0,3.0,-1.0,1.0
2022-05-13 15:48:34.232407-07:00,1812.9,550.6,997.0,1206.2,822.7,1118.2,1149.8,1235.5,3439.5,3443.1,1384.8,1182.3,1196.5,3440.7,1023.7,1329.6,3440.7,3437.0,673.3,1268.5,891.5,519.5,1180.6,1551.5,3445.5,3444.3,711.8,862.9,1163.8,1327.8,1211.5,976.5,-1.0,0.0,7.0,-9408.0,-11447.0,-5305.0,-4555.0,0.0,6.0,-3.0,3.0,-1.0,-20.0,10755.0,10970.0,-2875.0,-4915.0,-6.0,1.0,-4.0,1.0
2022-05-13 15:48:34.233412-07:00,1804.2,557.0,997.0,1206.2,823.5,1118.2,1149.8,1235.5,3433.4,3431.0,1385.7,1182.3,1199.1,3440.7,1023.7,1329.6,3440.7,3437.0,673.3,1273.9,891.5,531.4,1190.3,1547.8,3445.5,3444.3,711.8,857.9,1163.8,1326.8,1204.4,967.9,-3.0,8.0,2.0,-9409.0,-11447.0,-5304.0,-4554.0,1.0,-15.0,4.0,-1.0,2.0,-16.0,10755.0,10970.0,-2875.0,-4915.0,-5.0,-5.0,1.0,1.0
2022-05-13 15:48:34.408792-07:00,1804.2,557.0,997.0,1210.6,823.5,1106.9,1154.2,1223.9,3433.4,3431.0,1385.7,1182.3,1199.1,3435.8,1033.2,1330.5,3435.8,3433.4,670.1,1273.9,878.9,531.4,1190.3,1547.8,3440.7,3440.7,711.8,857.9,1166.5,1326.8,1204.4,967.9,0.0,0.0,11.0,-9410.0,-11447.0,-5303.0,-4554.0,-5.0,-2.0,2.0,2.0,1.0,-15.0,10755.0,10970.0,-2875.0,-4915.0,3.0,0.0,1.0,1.0
2022-05-13 15:48:34.544478-07:00,1804.2,558.6,997.9,1216.0,823.5,1110.4,1155.9,1239.1,3438.2,3439.5,1383.0,1184.1,1195.6,3433.4,1026.3,1331.4,3440.7,3439.5,674.2,1266.7,875.5,524.2,1182.3,1542.2,3454.0,3446.7,717.5,860.4,1159.4,1335.0,1207.1,970.5,0.0,13.0,4.0,-9408.0,-11444.0,-5304.0,-4563.0,4.0,-3.0,1.0,3.0,4.0,-19.0,10764.0,10962.0,-2871.0,-4918.0,-11.0,-2.0,-6.0,1.0
2022-05-13 15:48:34.633738-07:00,1803.2,551.4,1001.3,1211.5,823.5,1110.4,1155.9,1239.1,3446.7,3441.9,1379.4,1180.6,1195.6,3433.4,1026.3,1331.4,3440.7,3439.5,674.2,1266.7,880.6,517.9,1192.9,1547.8,3454.0,3446.7,717.5,860.4,1158.6,1315.1,1206.2,968.8,-3.0,2.0,9.0,-9412.0,-11441.0,-5303.0,-4565.0,7.0,-2.0,5.0,0.0,1.0,-18.0,10767.0,10958.0,-2870.0,-4919.0,-3.0,-4.0,0.0,1.0
2022-05-13 15:48:34.636529-07:00,1803.2,551.4,1001.3,1211.5,826.9,1114.7,1152.4,1227.5,3446.7,3441.9,1379.4,1180.6,1188.5,3431.0,1032.3,1331.4,3437.0,3433.4,672.5,1266.7,880.6,517.9,1192.9,1547.8,3434.6,3443.1,712.6,857.9,1158.6,1315.1,1206.2,968.8,-1.0,2.0,4.0,-9412.0,-11441.0,-5303.0,-4565.0,2.0,1.0,-3.0,0.0,2.0,-18.0,10767.0,10958.0,-2870.0,-4919.0,-2.0,5.0,-5.0,1.0
2022-05-13 15:48:34.637558-07:00,1803.2,557.8,990.2,1200.9,826.9,1114.7,1152.4,1227.5,3446.7,3433.4,1383.9,1180.6,1188.5,3431.0,1032.3,1331.4,3437.0,3433.4,672.5,1266.7,878.0,517.9,1187.6,1536.6,3434.6,3443.1,712.6,857.9,1163.8,1334.1,1213.3,970.5,-3.0,8.0,0.0,-9409.0,-11444.0,-5304.0,-4563.0,20.0,-1.0,1.0,-1.0,6.0,-21.0,10766.0,10959.0,-2870.0,-4918.0,11.0,3.0,-2.0,1.0
2022-05-13 15:48:34.638198-07:00,1803.2,557.8,990.2,1200.9,826.9,1114.7,1152.4,1227.5,3446.7,3433.4,1383.9,1180.6,1188.5,3431.0,1032.3,1331.4,3437.0,3433.4,672.5,1266.7,878.0,517.9,1187.6,1536.6,3434.6,3443.1,712.6,857.9,1163.8,1334.1,1213.3,970.5,-3.0,8.0,0.0,-9409.0,-11444.0,-5304.0,-4563.0,20.0,-1.0,1.0,-1.0,6.0,-21.0,10766.0,10959.0,-2870.0,-4918.0,11.0,3.0,-2.0,1.0
2022-05-13 15:48:34.639219-07:00,1802.3,555.4,1001.3,1214.2,821.9,1122.6,1154.2,1230.2,3432.2,3440.7,1383.0,1175.3,1200.9,3446.7,1026.3,1332.3,3439.5,3437.0,673.3,1274.7,878.9,525.0,1181.5,1549.7,3444.3,3445.5,710.1,860.4,1165.6,1334.1,1206.2,968.8,-1.0,0.0,6.0,-9411.0,-11443.0,-5302.0,-4563.0,6.0,2.0,-2.0,1.0,6.0,-21.0,10772.0,10953.0,-2867.0,-4920.0,1.0,4.0,-5.0,1.0
2022-05-13 15:48:34.948842-07:00,1803.2,555.4,1001.3,1214.2,823.5,1118.2,1147.1,1230.2,3435.8,3440.7,1383.0,1175.3,1195.6,3426.2,1026.3,1332.3,3439.5,3431.0,674.2,1266.7,878.9,525.0,1181.5,1548.7,3444.3,3449.1,715.9,853.7,1165.6,1334.1,1206.2,968.8,-2.0,3.0,2.0,-9411.0,-11443.0,-5302.0,-4562.0,-16.0,1.0,-1.0,0.0,0.0,-24.0,10773.0,10952.0,-2867.0,-4920.0,-14.0,-2.0,1.0,1.0
2022-05-13 15:48:35.129477-07:00,1803.2,544.2,994.5,1220.4,823.5,1118.2,1154.2,1226.6,3435.8,3447.9,1386.6,1180.6,1195.6,3426.2,1025.4,1335.0,3437.0,3439.5,674.2,1266.7,878.0,526.6,1191.2,1548.7,3444.3,3440.7,715.9,853.7,1171.8,1330.5,1208.9,968.8,0.0,3.0,6.0,-9408.0,-11446.0,-5302.0,-4561.0,32.0,-11.0,8.0,2.0,4.0,-18.0,10771.0,10954.0,-2868.0,-4920.0,22.0,0.0,-3.0,1.0
2022-05-13 15:48:35.219280-07:00,1801.3,550.6,994.5,1220.4,821.0,1106.9,1154.2,1226.6,3439.5,3444.3,1386.6,1180.6,1195.6,3440.7,1025.4,1335.0,3437.0,3439.5,674.2,1261.3,878.0,526.6,1188.5,1544.1,3444.3,3440.7,715.9,857.0,1171.8,1330.5,1209.7,963.7,0.0,18.0,7.0,-9405.0,-11451.0,-5304.0,-4551.0,-17.0,-15.0,-20.0,2.0,0.0,-16.0,10769.0,10956.0,-2867.0,-4921.0,-22.0,-2.0,-10.0,1.0
2022-05-13 15:48:35.220399-07:00,1801.3,550.6,996.2,1207.1,821.0,1106.9,1146.3,1238.2,3439.5,3444.3,1386.6,1181.5,1195.6,3440.7,1028.8,1329.6,3439.5,3437.0,674.2,1261.3,881.4,522.6,1188.5,1544.1,3440.7,3433.4,715.9,857.0,1160.3,1334.1,1209.7,963.7,-2.0,3.0,12.0,-9407.0,-11448.0,-5305.0,-4555.0,15.0,20.0,13.0,3.0,3.0,-16.0,10772.0,10952.0,-2865.0,-4922.0,3.0,8.0,0.0,1.0
2022-05-13 15:48:35.221416-07:00,1811.9,547.4,996.2,1207.1,822.7,1113.9,1146.3,1238.2,3443.1,3437.0,1386.6,1181.5,1198.2,3451.6,1028.8,1329.6,3439.5,3437.0,672.5,1274.7,881.4,522.6,1187.6,1549.7,3440.7,3433.4,715.9,860.4,1160.3,1334.1,1209.7,960.2,1.0,2.0,4.0,-9407.0,-11447.0,-5305.0,-4556.0,7.0,6.0,-7.0,0.0,2.0,-24.0,10773.0,10953.0,-2864.0,-4921.0,-11.0,1.0,-5.0,1.0
2022-05-13 15:48:35.222446-07:00,1811.9,547.4,996.2,1219.5,822.7,1113.9,1145.4,1228.4,3443.1,3437.0,1390.3,1182.3,1198.2,3451.6,1024.5,1323.2,3439.5,3439.5,672.5,1274.7,881.4,524.2,1187.6,1549.7,3438.2,3449.1,715.9,860.4,1158.6,1329.6,1209.7,960.2,-10.0,-5.0,15.0,-9399.0,-11456.0,-5308.0,-4548.0,162.0,-32.0,-6.0,2.0,-29.0,0.0,10778.0,10944.0,-2864.0,-4929.0,36.0,-20.0,-23.0,1.0
2022-05-13 15:48:35.264956-07:00,2104.8,662.7,987.6,1211.5,816.9,1191.2,1525.5,1426.8,3434.6,3444.3,1554.3,1203.5,1200.0,3431.0,1335.0,1425.9,3437.0,3433.4,674.2,1290.0,930.5,525.0,1199.1,1549.7,3443.1,3437.0,796.9,930.5,1156.8,1345.8,1202.7,962.8,-8.0,26.0,8.0,-8841.0,-11794.0,-5901.0,-4044.0,-87.0,132.0,77.0,2.0,0.0,-5.0,10549.0,11128.0,-2811.0,-5042.0,-220.0,-77.0,78.0,1.0
2022-05-13 15:48:35.353661-07:00,2104.8,662.7,987.6,1211.5,819.4,1235.5,1649.2,1541.3,3434.6,3444.3,1554.3,1203.5,1199.1,3437.0,1373.9,1436.9,3435.8,3438.2,672.5,1306.1,930.5,525.0,1199.1,1549.7,3444.3,3433.4,848.6,979.9,1156.8,1345.8,1202.7,962.8,19.0,33.0,58.0,-8798.0,-11810.0,-5922.0,-4060.0,145.0,156.0,-68.0,2.0,32.0,-27.0,10547.0,11123.0,-2821.0,-5050.0,41.0,-5.0,-36.0,1.0
2022-05-13 15:48:35.443292-07:00,2130.1,671.7,991.9,1210.6,819.4,1235.5,1649.2,1541.3,3437.0,3440.7,1553.4,1207.1,1199.1,3437.0,1373.9,1436.9,3435.8,3438.2,672.5,1306.1,935.6,517.1,1239.9,1592.7,3444.3,3433.4,848.6,979.9,1159.4,1385.7,1220.4,981.6,-15.0,-10.0,-11.0,-8743.0,-11797.0,-5986.0,-4121.0,47.0,101.0,78.0,5.0,-5.0,13.0,10545.0,11131.0,-2819.0,-5040.0,27.0,26.0,21.0,1.0
2022-05-13 15:48:35.444381-07:00,2130.1,671.7,991.9,1210.6,826.0,1239.1,1627.5,1513.4,3437.0,3440.7,1553.4,1207.1,1194.7,3433.4,1338.6,1415.8,3437.0,3433.4,675.8,1303.4,935.6,517.1,1239.9,1592.7,3440.7,3438.2,878.9,994.5,1159.4,1385.7,1220.4,981.6,19.0,24.0,33.0,-8706.0,-11821.0,-5983.0,-4136.0,126.0,126.0,-23.0,0.0,8.0,-50.0,10530.0,11150.0,-2823.0,-5026.0,84.0,53.0,-9.0,1.0
2022-05-13 15:48:35.624566-07:00,2128.0,653.0,990.2,1209.7,826.0,1239.1,1627.5,1513.4,3432.2,3439.5,1548.7,1210.6,1194.7,3433.4,1338.6,1415.8,3437.0,3433.4,675.8,1303.4,932.2,517.9,1244.4,1799.4,3440.7,3438.2,878.9,994.5,1158.6,1386.6,1223.0,1000.5,-25.0,-10.0,9.0,-8642.0,-11810.0,-6064.0,-4184.0,-4.0,283.0,-47.0,1.0,-15.0,26.0,10514.0,11181.0,-2810.0,-4998.0,23.0,75.0,2.0,1.0
2022-05-13 15:48:35.625677-07:00,2123.0,653.0,990.2,1209.7,825.2,1236.4,1631.3,1532.0,3446.7,3439.5,1548.7,1210.6,1201.8,3439.5,1331.4,1414.0,3435.8,3438.2,670.9,1317.8,932.2,517.9,1244.4,1919.3,3440.7,3444.3,869.6,1007.3,1158.6,1386.6,1223.0,1015.9,6.0,10.0,1.0,-8604.0,-11806.0,-6101.0,-4221.0,122.0,41.0,49.0,2.0,9.0,-39.0,10504.0,11200.0,-2802.0,-4980.0,85.0,33.0,-1.0,1.0
2022-05-13 15:48:35.668920-07:00,2123.0,651.4,995.3,1220.4,825.2,1236.4,1631.3,1580.5,3446.7,3439.5,1539.4,1208.9,1201.8,3439.5,1331.4,1414.0,3433.4,3438.2,670.9,1317.8,931.3,517.9,1254.2,1919.3,3449.1,3444.3,869.6,1007.3,1160.3,1388.5,1226.6,1015.9,-3.0,5.0,1.0,-8562.0,-11814.0,-6128.0,-4242.0,26.0,141.0,-9.0,5.0,-9.0,-11.0,10493.0,11217.0,-2802.0,-4966.0,26.0,29.0,10.0,1.0
2022-05-13 15:48:35.670480-07:00,2119.9,651.4,995.3,1220.4,823.5,1233.7,1660.6,1580.5,3441.9,3439.5,1539.4,1208.9,1200.9,3440.7,1333.2,1414.0,3433.4,3434.6,678.2,1311.5,931.3,517.9,1254.2,1969.7,3449.1,3440.7,877.2,1008.2,1160.3,1388.5,1226.6,1016.8,1.0,-2.0,0.0,-8547.0,-11807.0,-6145.0,-4268.0,-29.0,14.0,30.0,0.0,2.0,-31.0,10492.0,11221.0,-2802.0,-4958.0,-6.0,-4.0,16.0,1.0
2022-05-13 15:48:35.714027-07:00,2119.9,656.2,994.5,1217.7,823.5,1233.7,1660.6,1591.7,3441.9,3434.6,1537.6,1213.3,1200.9,3440.7,1333.2,1413.1,3434.6,3434.6,678.2,1311.5,930.5,523.4,1251.5,1969.7,3449.1,3440.7,877.2,1008.2,1163.0,1385.7,1228.4,1016.8,-9.0,-6.0,0.0,-8549.0,-11802.0,-6133.0,-4296.0,8.0,50.0,89.0,4.0,-4.0,-9.0,10487.0,11227.0,-2814.0,-4948.0,20.0,2.0,32.0,1.0
2022-05-13 15:48:35.715690-07:00,2109.8,656.2,994.5,1217.7,826.0,1224.8,1650.2,1591.7,3438.2,3434.6,1537.6,1213.3,1204.4,3443.1,1330.5,1413.1,3434.6,3444.3,678.2,1321.4,930.5,523.4,1251.5,1975.6,3449.1,3445.5,867.9,1012.5,1163.0,1385.7,1228.4,1011.6,7.0,31.0,1.0,-8536.0,-11818.0,-6115.0,-4302.0,-4.0,-45.0,-4.0,2.0,14.0,-23.0,10479.0,11234.0,-2825.0,-4943.0,0.0,-15.0,-3.0,1.0
2022-05-13 15:48:35.804810-07:00,2109.8,647.3,995.3,1209.7,826.0,1224.8,1650.2,1599.3,3438.2,3444.3,1526.4,1199.1,1204.4,3443.1,1322.3,1415.8,3439.5,3439.5,678.2,1321.4,929.6,525.0,1248.8,1975.6,3434.6,3440.7,867.9,1012.5,1153.3,1393.9,1227.5,1011.6,-8.0,-5.0,23.0,-8541.0,-11816.0,-6114.0,-4300.0,-2.0,44.0,13.0,3.0,1.0,-7.0,10479.0,11235.0,-2827.0,-4942.0,-14.0,13.0,12.0,1.0
2022-05-13 15:48:35.894907-07:00,2119.9,647.3,995.3,1209.7,820.2,1223.0,1650.2,1599.3,3434.6,3433.4,1526.4,1199.1,1200.9,3439.5,1322.3,1415.8,3439.5,3439.5,676.6,1314.2,929.6,525.0,1246.2,1964.7,3434.6,3440.7,870.5,1003.0,1153.3,1393.9,1226.6,999.6,-2.0,10.0,11.0,-8536.0,-11813.0,-6116.0,-4314.0,-7.0,20.0,2.0,0.0,-5.0,-13.0,10479.0,11235.0,-2831.0,-4937.0,-6.0,0.0,7.0,1.0
2022-05-13 15:48:35.897252-07:00,2119.9,647.3,993.6,1211.5,820.2,1223.0,1634.1,1587.1,3434.6,3433.4,1527.3,1204.4,1200.9,3439.5,1317.8,1402.1,3434.6,3426.2,676.6,1314.2,931.3,525.8,1246.2,1964.7,3433.4,3438.2,870.5,1003.0,1168.2,1383.9,1226.6,999.6,9.0,18.0,29.0,-8528.0,-11806.0,-6132.0,-4328.0,18.0,152.0,-51.0,5.0,4.0,-23.0,10476.0,11241.0,-2831.0,-4931.0,4.0,21.0,0.0,1.0
2022-05-13 15:48:36.119407-07:00,2098.7,642.4,993.6,1211.5,821.0,1214.2,1634.1,1587.1,3432.2,3437.0,1527.3,1204.4,1200.9,3439.5,1317.8,1402.1,3434.6,3426.2,675.0,1318.7,931.3,525.8,1243.5,1944.0,3433.4,3438.2,868.8,1001.3,1168.2,1383.9,1213.3,1012.5,-10.0,8.0,3.0,-8495.0,-11788.0,-6185.0,-4364.0,61.0,134.0,-6.0,6.0,1.0,-5.0,10466.0,11258.0,-2826.0,-4916.0,76.0,46.0,-2.0,1.0
2022-05-13 15:48:36.121862-07:00,2098.7,642.4,993.6,1219.5,821.0,1214.2,1630.3,1598.3,3432.2,3437.0,1510.6,1209.7,1200.9,3439.5,1307.9,1396.7,3434.6,3434.6,675.0,1318.7,927.1,524.2,1243.5,1944.0,3435.8,3432.2,868.8,1001.3,1163.8,1384.8,1213.3,1012.5,10.0,36.0,0.0,-8438.0,-11812.0,-6213.0,-4373.0,195.0,52.0,24.0,2.0,25.0,-28.0,10417.0,11312.0,-2832.0,-4892.0,210.0,50.0,-19.0,1.0
2022-05-13 15:48:36.122993-07:00,2102.7,644.9,989.3,1219.5,821.0,1226.6,1630.3,1598.3,3432.2,3439.5,1506.9,1209.7,1199.1,3441.9,1307.9,1396.7,3434.6,3434.6,684.0,1313.3,927.1,525.0,1239.1,1945.0,3435.8,3432.2,861.2,1009.9,1163.8,1379.4,1216.0,1007.3,-8.0,-12.0,5.0,-8405.0,-11814.0,-6251.0,-4377.0,-15.0,88.0,-51.0,2.0,-4.0,-2.0,10407.0,11329.0,-2823.0,-4880.0,-18.0,36.0,-8.0,1.0
2022-05-13 15:48:36.124063-07:00,2102.7,644.9,989.3,1216.0,821.0,1216.8,1640.7,1587.1,3432.2,3439.5,1506.9,1200.9,1199.1,3440.7,1306.1,1397.6,3432.2,3440.7,672.5,1313.3,933.0,525.0,1239.1,1945.0,3438.2,3437.0,867.9,1009.9,1160.3,1379.4,1216.0,1007.3,1.0,3.0,-2.0,-8402.0,-11807.0,-6260.0,-4387.0,-30.0,9.0,18.0,2.0,-1.0,-26.0,10405.0,11333.0,-2821.0,-4874.0,-13.0,0.0,14.0,1.0
2022-05-13 15:48:36.164301-07:00,2101.7,648.9,1001.3,1216.0,822.7,1216.8,1640.7,1587.1,3437.0,3434.6,1499.5,1200.9,1200.9,3440.7,1306.1,1397.6,3432.2,3440.7,672.5,1313.3,933.0,524.2,1231.9,1944.0,3438.2,3437.0,867.9,1000.5,1160.3,1377.5,1218.6,1015.1,-3.0,11.0,9.0,-8406.0,-11804.0,-6258.0,-4391.0,-10.0,11.0,-7.0,1.0,0.0,-14.0,10403.0,11336.0,-2823.0,-4872.0,-12.0,1.0,0.0,1.0
2022-05-13 15:48:36.165430-07:00,2101.7,648.9,1001.3,1221.3,822.7,1220.4,1631.3,1594.6,3437.0,3434.6,1499.5,1203.5,1200.9,3446.7,1290.9,1382.1,3432.2,3441.9,672.5,1313.3,927.9,524.2,1231.9,1944.0,3451.6,3439.5,862.9,1000.5,1163.0,1377.5,1218.6,1015.1,1.0,13.0,6.0,-8403.0,-11803.0,-6266.0,-4389.0,28.0,-5.0,-2.0,0.0,13.0,-12.0,10400.0,11340.0,-2823.0,-4869.0,-3.0,-2.0,-1.0,1.0
2022-05-13 15:48:36.344331-07:00,2099.7,642.4,986.7,1221.3,823.5,1220.4,1631.3,1594.6,3444.3,3433.4,1504.1,1203.5,1203.5,3446.7,1290.9,1382.1,3432.2,3441.9,672.5,1325.0,927.9,521.0,1224.8,1931.1,3451.6,3439.5,862.9,998.7,1163.0,1374.8,1228.4,998.7,0.0,8.0,12.0,-8401.0,-11796.0,-6274.0,-4398.0,31.0,55.0,-8.0,3.0,3.0,-15.0,10401.0,11340.0,-2823.0,-4868.0,7.0,7.0,5.0,1.0
2022-05-13 15:48:36.345461-07:00,2099.7,642.4,986.7,1218.6,823.5,1211.5,1629.4,1584.2,3444.3,3433.4,1504.1,1205.3,1203.5,3439.5,1288.2,1389.4,3444.3,3439.5,672.5,1325.0,933.0,521.0,1224.8,1931.1,3446.7,3443.1,858.7,998.7,1167.4,1374.8,1228.4,998.7,-1.0,1.0,13.0,-8385.0,-11796.0,-6292.0,-4404.0,45.0,17.0,-16.0,9.0,-4.0,-6.0,10396.0,11347.0,-2819.0,-4864.0,37.0,15.0,-16.0,1.0
2022-05-13 15:48:36.346552-07:00,2097.7,638.4,997.9,1210.6,820.2,1211.5,1629.4,1584.2,3443.1,3441.9,1487.5,1201.8,1197.4,3439.5,1288.2,1389.4,3444.3,3439.5,672.5,1312.4,927.9,525.8,1226.6,1933.1,3446.7,3443.1,858.7,997.9,1165.6,1363.9,1212.4,1000.5,-7.0,-12.0,19.0,-8383.0,-11799.0,-6298.0,-4392.0,-21.0,-21.0,-13.0,-4.0,-5.0,-18.0,10390.0,11351.0,-2817.0,-4867.0,-20.0,-13.0,-7.0,1.0
2022-05-13 15:48:36.389003-07:00,2097.7,638.4,997.9,1210.6,821.9,1226.6,1620.9,1591.7,3443.1,3441.9,1487.5,1201.8,1199.1,3441.9,1286.4,1380.3,3434.6,3434.6,679.9,1313.3,927.9,525.8,1226.6,1933.1,3438.2,3446.7,867.1,991.9,1165.6,1363.9,1212.4,1000.5,-11.0,6.0,0.0,-8386.0,-11792.0,-6299.0,-4402.0,-9.0,35.0,2.0,-5.0,1.0,-17.0,10394.0,11349.0,-2816.0,-4866.0,-10.0,5.0,6.0,1.0
2022-05-13 15:48:36.432957-07:00,2100.7,637.6,997.9,1211.5,821.9,1226.6,1620.9,1591.7,3438.2,3443.1,1458.9,1188.5,1199.1,3441.9,1286.4,1380.3,3434.6,3434.6,679.9,1313.3,928.8,531.4,1224.8,1922.3,3438.2,3446.7,867.1,991.9,1162.1,1370.3,1208.9,1000.5,0.0,-8.0,0.0,-8374.0,-11798.0,-6306.0,-4399.0,21.0,-2.0,-7.0,3.0,0.0,-25.0,10388.0,11355.0,-2818.0,-4864.0,-5.0,-5.0,0.0,1.0
2022-05-13 15:48:36.711822-07:00,2100.7,637.6,997.9,1211.5,817.7,1219.5,1619.0,1588.9,3438.2,3443.1,1458.9,1188.5,1195.6,3429.8,1274.7,1383.9,3439.5,3440.7,667.6,1311.5,928.8,531.4,1224.8,1922.3,3438.2,3439.5,861.2,985.0,1162.1,1370.3,1208.9,1000.5,1.0,8.0,5.0,-8372.0,-11801.0,-6300.0,-4403.0,-12.0,0.0,32.0,9.0,1.0,-16.0,10389.0,11354.0,-2825.0,-4861.0,-41.0,-17.0,21.0,1.0
2022-05-13 15:48:36.712996-07:00,2099.7,640.0,1001.3,1211.5,817.7,1219.5,1619.0,1588.9,3443.1,3440.7,1449.7,1187.6,1195.6,3429.8,1274.7,1383.9,3439.5,3440.7,667.6,1311.5,923.7,523.4,1226.6,1919.3,3438.2,3439.5,861.2,985.0,1166.5,1367.6,1215.1,999.6,6.0,16.0,14.0,-8382.0,-11802.0,-6287.0,-4400.0,-16.0,-50.0,-11.0,15.0,9.0,-15.0,10394.0,11344.0,-2833.0,-4867.0,-28.0,-25.0,-9.0,1.0
2022-05-13 15:48:36.801319-07:00,2090.6,640.0,1001.3,1211.5,822.7,1208.0,1608.7,1588.9,3432.2,3440.7,1449.7,1187.6,1200.9,3432.2,1274.7,1384.8,3437.0,3435.8,677.4,1316.0,923.7,523.4,1226.6,1917.4,3449.1,3446.7,857.9,991.0,1166.5,1367.6,1215.1,1001.3,-3.0,7.0,19.0,-8402.0,-11793.0,-6278.0,-4400.0,-21.0,9.0,-1.0,4.0,1.0,-6.0,10403.0,11334.0,-2834.0,-4871.0,-24.0,-2.0,10.0,1.0
2022-05-13 15:48:36.802896-07:00,2090.6,631.1,993.6,1215.1,822.7,1208.0,1608.7,1593.6,3432.2,3443.1,1448.8,1192.9,1200.9,3432.2,1274.7,1378.5,3431.0,3435.8,677.4,1316.0,930.5,521.0,1221.3,1917.4,3439.5,3446.7,857.9,991.0,1164.7,1365.7,1209.7,1001.3,-12.0,5.0,3.0,-8406.0,-11784.0,-6282.0,-4409.0,5.0,12.0,-5.0,-2.0,-6.0,-10.0,10408.0,11329.0,-2832.0,-4872.0,-1.0,4.0,-2.0,1.0
2022-05-13 15:48:36.933084-07:00,2093.7,631.1,993.6,1215.1,821.0,1214.2,1616.2,1593.6,3449.1,3443.1,1448.8,1192.9,1194.7,3440.7,1273.0,1378.5,3431.0,3439.5,675.8,1308.8,930.5,521.0,1221.3,1913.4,3439.5,3440.7,867.1,993.6,1164.7,1365.7,1209.7,995.3,-14.0,-2.0,-3.0,-8409.0,-11782.0,-6286.0,-4404.0,-40.0,-14.0,-16.0,-15.0,2.0,-25.0,10411.0,11325.0,-2831.0,-4877.0,-50.0,-19.0,-1.0,1.0
2022-05-13 15:48:36.937258-07:00,2093.7,642.4,997.0,1217.7,821.0,1214.2,1616.2,1589.9,3449.1,3440.7,1436.0,1184.1,1194.7,3440.7,1273.0,1377.5,3444.3,3439.5,675.8,1308.8,933.0,531.4,1223.0,1913.4,3440.7,3440.7,867.1,993.6,1168.2,1368.5,1208.0,995.3,-11.0,-6.0,-8.0,-8426.0,-11770.0,-6280.0,-4411.0,-50.0,-5.0,16.0,-3.0,-5.0,-17.0,10418.0,11313.0,-2834.0,-4885.0,-32.0,-26.0,15.0,1.0
2022-05-13 15:48:36.939118-07:00,2090.6,642.4,997.0,1217.7,825.2,1214.2,1619.9,1589.9,3439.5,3440.7,1436.0,1184.1,1197.4,3446.7,1270.3,1377.5,3444.3,3428.6,675.8,1308.8,933.0,531.4,1223.0,1912.4,3440.7,3434.6,854.5,973.1,1168.2,1368.5,1208.0,986.7,7.0,-1.0,15.0,-8437.0,-11774.0,-6267.0,-4398.0,-7.0,-55.0,-3.0,8.0,8.0,-23.0,10419.0,11307.0,-2843.0,-4895.0,-24.0,-32.0,1.0,1.0
2022-05-13 15:48:36.939847-07:00,2090.6,642.4,997.0,1217.7,825.2,1214.2,1619.9,1589.9,3439.5,3440.7,1436.0,1184.1,1197.4,3446.7,1270.3,1377.5,3444.3,3428.6,675.8,1308.8,933.0,531.4,1223.0,1912.4,3440.7,3434.6,854.5,973.1,1168.2,1368.5,1208.0,986.7,7.0,-1.0,15.0,-8437.0,-11774.0,-6267.0,-4398.0,-7.0,-55.0,-3.0,8.0,8.0,-23.0,10419.0,11307.0,-2843.0,-4895.0,-24.0,-32.0,1.0,1.0
2022-05-13 15:48:36.940939-07:00,2085.6,634.3,994.5,1208.9,823.5,1211.5,1613.4,1595.5,3428.6,3440.7,1433.2,1185.0,1208.9,3435.8,1270.3,1376.6,3440.7,3435.8,675.8,1310.6,926.2,523.4,1216.0,1896.7,3444.3,3445.5,855.3,985.0,1162.1,1357.6,1205.3,990.2,7.0,-5.0,24.0,-8452.0,-11775.0,-6249.0,-4392.0,-4.0,-20.0,-4.0,20.0,5.0,0.0,10423.0,11299.0,-2857.0,-4897.0,-9.0,-5.0,-3.0,1.0
2022-05-13 15:48:36.942785-07:00,2085.6,634.3,987.6,1212.4,823.5,1211.5,1606.8,1588.9,3428.6,3440.7,1425.9,1190.3,1208.9,3435.8,1266.7,1383.0,3435.8,3435.8,675.8,1310.6,927.9,522.6,1216.0,1896.7,3438.2,3438.2,855.3,985.0,1163.8,1368.5,1205.3,990.2,-6.0,0.0,12.0,-8454.0,-11776.0,-6246.0,-4390.0,-13.0,6.0,2.0,2.0,-4.0,-12.0,10426.0,11297.0,-2856.0,-4895.0,-19.0,13.0,0.0,1.0
2022-05-13 15:48:36.974352-07:00,2096.7,631.9,987.6,1212.4,820.2,1207.1,1606.8,1588.9,3435.8,3438.2,1425.9,1190.3,1200.0,3438.2,1266.7,1383.0,3435.8,3435.8,676.6,1308.8,927.9,522.6,1214.2,1887.9,3438.2,3438.2,860.4,984.2,1163.8,1368.5,1202.7,991.0,-22.0,6.0,-6.0,-8452.0,-11778.0,-6244.0,-4393.0,25.0,-12.0,32.0,-14.0,-6.0,-2.0,10423.0,11300.0,-2856.0,-4894.0,18.0,1.0,-5.0,1.0
2022-05-13 15:48:37.063672-07:00,2096.7,631.9,996.2,1209.7,820.2,1207.1,1606.8,1587.1,3435.8,3438.2,1414.9,1188.5,1200.0,3438.2,1261.3,1381.2,3433.4,3432.2,676.6,1308.8,927.1,525.0,1214.2,1887.9,3438.2,3435.8,860.4,984.2,1163.0,1362.1,1202.7,991.0,-23.0,0.0,-16.0,-8446.0,-11796.0,-6233.0,-4370.0,34.0,-89.0,41.0,-16.0,4.0,-18.0,10414.0,11306.0,-2857.0,-4900.0,14.0,-29.0,-7.0,1.0
2022-05-13 15:48:37.288610-07:00,2097.7,631.1,996.2,1209.7,821.0,1210.6,1606.8,1587.1,3435.8,3439.5,1414.9,1188.5,1197.4,3440.7,1261.3,1381.2,3433.4,3432.2,679.9,1307.0,927.1,525.0,1206.2,1894.8,3438.2,3435.8,855.3,979.9,1163.0,1362.1,1201.8,986.7,9.0,7.0,5.0,-8456.0,-11810.0,-6202.0,-4357.0,-30.0,-26.0,30.0,-2.0,1.0,-33.0,10407.0,11306.0,-2866.0,-4907.0,-24.0,-18.0,14.0,1.0
2022-05-13 15:48:37.289906-07:00,2097.7,631.1,993.6,1213.3,821.0,1208.9,1608.7,1593.6,3435.8,3439.5,1416.7,1190.3,1197.4,3449.1,1255.1,1378.5,3440.7,3439.5,675.8,1307.0,926.2,523.4,1206.2,1894.8,3443.1,3438.2,858.7,979.9,1170.0,1360.3,1201.8,986.7,2.0,16.0,0.0,-8453.0,-11813.0,-6202.0,-4356.0,27.0,-24.0,1.0,7.0,9.0,-8.0,10404.0,11308.0,-2869.0,-4907.0,-3.0,-12.0,-5.0,1.0
2022-05-13 15:48:37.335927-07:00,2087.6,621.4,997.9,1213.3,821.0,1208.9,1608.7,1593.6,3439.5,3434.6,1419.5,1190.3,1197.4,3449.1,1255.1,1378.5,3440.7,3439.5,675.8,1305.2,926.2,517.9,1202.7,1888.9,3443.1,3438.2,858.7,985.9,1170.0,1360.3,1204.4,993.6,12.0,-1.0,19.0,-8461.0,-11809.0,-6196.0,-4360.0,-34.0,20.0,7.0,16.0,-1.0,-11.0,10410.0,11303.0,-2873.0,-4905.0,-24.0,0.0,16.0,1.0
2022-05-13 15:48:37.337204-07:00,2087.6,621.4,997.9,1221.3,821.0,1201.8,1608.7,1588.9,3439.5,3434.6,1419.5,1200.0,1197.4,3440.7,1248.0,1378.5,3437.0,3431.0,676.6,1305.2,925.4,517.9,1202.7,1888.9,3440.7,3440.7,847.8,985.9,1163.8,1360.3,1204.4,993.6,2.0,16.0,9.0,-8459.0,-11802.0,-6203.0,-4372.0,19.0,19.0,-15.0,11.0,4.0,1.0,10414.0,11302.0,-2873.0,-4899.0,11.0,16.0,-7.0,1.0
2022-05-13 15:48:37.338330-07:00,2085.6,620.5,992.7,1221.3,821.0,1201.8,1608.7,1588.9,3438.2,3428.6,1417.6,1200.0,1200.9,3440.7,1248.0,1378.5,3437.0,3431.0,676.6,1311.5,925.4,521.0,1207.1,1888.9,3440.7,3440.7,847.8,985.0,1163.8,1366.6,1203.5,986.7,-9.0,-1.0,6.0,-8454.0,-11800.0,-6214.0,-4372.0,13.0,24.0,-9.0,-5.0,3.0,-1.0,10414.0,11305.0,-2867.0,-4895.0,2.0,17.0,-5.0,1.0
2022-05-13 15:48:37.339076-07:00,2085.6,620.5,992.7,1221.3,821.0,1201.8,1608.7,1588.9,3438.2,3428.6,1417.6,1200.0,1200.9,3440.7,1248.0,1378.5,3437.0,3431.0,676.6,1311.5,925.4,521.0,1207.1,1888.9,3440.7,3440.7,847.8,985.0,1163.8,1366.6,1203.5,986.7,-9.0,-1.0,6.0,-8454.0,-11800.0,-6214.0,-4372.0,13.0,24.0,-9.0,-5.0,3.0,-1.0,10414.0,11305.0,-2867.0,-4895.0,2.0,17.0,-5.0,1.0
2022-05-13 15:48:37.377725-07:00,2086.6,626.2,997.0,1210.6,820.2,1211.5,1596.4,1583.3,3440.7,3439.5,1407.6,1185.0,1192.9,3438.2,1239.1,1373.0,3432.2,3431.0,672.5,1308.8,928.8,521.0,1199.1,1888.9,3435.8,3432.2,854.5,976.5,1169.1,1361.2,1193.8,991.0,0.0,5.0,-3.0,-8457.0,-11796.0,-6212.0,-4379.0,-23.0,-13.0,-1.0,-2.0,9.0,-18.0,10410.0,11311.0,-2864.0,-4892.0,2.0,0.0,-9.0,1.0
2022-05-13 15:48:37.421977-07:00,2086.6,626.2,997.0,1210.6,819.4,1210.6,1604.9,1570.2,3440.7,3439.5,1407.6,1185.0,1197.4,3444.3,1244.4,1372.1,3444.3,3432.2,675.0,1306.1,928.8,521.0,1199.1,1888.9,3438.2,3443.1,851.1,978.2,1169.1,1361.2,1193.8,991.0,9.0,4.0,4.0,-8468.0,-11791.0,-6202.0,-4387.0,-51.0,14.0,14.0,4.0,5.0,-22.0,10412.0,11308.0,-2867.0,-4892.0,-21.0,-11.0,13.0,1.0
2022-05-13 15:48:37.559245-07:00,2087.6,627.0,992.7,1217.7,819.4,1210.6,1604.9,1570.2,3437.0,3437.0,1399.4,1185.0,1197.4,3444.3,1244.4,1372.1,3444.3,3432.2,675.0,1306.1,928.8,523.4,1194.7,1884.0,3438.2,3443.1,851.1,978.2,1163.0,1354.9,1199.1,987.6,-6.0,4.0,12.0,-8479.0,-11779.0,-6201.0,-4400.0,-13.0,10.0,2.0,4.0,1.0,0.0,10418.0,11303.0,-2867.0,-4892.0,-7.0,0.0,2.0,1.0
2022-05-13 15:48:37.560452-07:00,2087.6,627.0,992.7,1217.7,817.7,1216.0,1612.4,1586.1,3437.0,3437.0,1399.4,1185.0,1207.1,3434.6,1248.0,1368.5,3437.0,3434.6,672.5,1310.6,928.8,523.4,1194.7,1884.0,3433.4,3445.5,847.0,979.0,1163.0,1354.9,1199.1,987.6,-3.0,0.0,11.0,-8479.0,-11778.0,-6199.0,-4403.0,9.0,16.0,16.0,-1.0,-1.0,-6.0,10417.0,11303.0,-2867.0,-4892.0,11.0,1.0,2.0,1.0
2022-05-13 15:48:37.604482-07:00,2086.6,623.8,1001.3,1214.2,817.7,1216.0,1612.4,1586.1,3443.1,3444.3,1401.2,1185.9,1207.1,3434.6,1248.0,1368.5,3437.0,3434.6,672.5,1310.6,925.4,522.6,1193.8,1888.9,3433.4,3445.5,847.0,979.0,1169.1,1350.3,1201.8,987.6,-2.0,0.0,5.0,-8475.0,-11776.0,-6204.0,-4411.0,11.0,32.0,0.0,-2.0,0.0,-12.0,10416.0,11305.0,-2867.0,-4890.0,0.0,15.0,0.0,1.0
2022-05-13 15:48:37.605636-07:00,2083.6,623.8,1001.3,1214.2,825.2,1211.5,1604.9,1582.4,3447.9,3444.3,1401.2,1185.9,1202.7,3435.8,1240.8,1372.1,3435.8,3435.8,675.8,1314.2,925.4,522.6,1193.8,1882.0,3443.1,3444.3,847.8,983.3,1169.1,1350.3,1201.8,986.7,5.0,0.0,5.0,-8467.0,-11775.0,-6212.0,-4418.0,-3.0,38.0,-1.0,0.0,0.0,-18.0,10412.0,11311.0,-2866.0,-4885.0,0.0,7.0,-3.0,1.0
2022-05-13 15:48:37.783745-07:00,2083.6,625.4,999.6,1215.1,825.2,1211.5,1604.9,1588.9,3447.9,3444.3,1410.3,1192.9,1202.7,3435.8,1240.8,1379.4,3432.2,3435.8,675.8,1314.2,926.2,521.8,1196.5,1882.0,3446.7,3444.3,847.8,983.3,1165.6,1356.7,1199.1,986.7,-12.0,10.0,-10.0,-8457.0,-11769.0,-6224.0,-4433.0,-2.0,30.0,8.0,1.0,7.0,8.0,10410.0,11316.0,-2863.0,-4879.0,9.0,17.0,5.0,1.0
2022-05-13 15:48:37.784853-07:00,2083.6,625.4,999.6,1215.1,831.9,1204.4,1611.5,1588.9,3438.2,3444.3,1410.3,1192.9,1201.8,3435.8,1242.6,1379.4,3432.2,3428.6,675.8,1307.0,926.2,521.8,1196.5,1899.7,3446.7,3454.0,852.0,977.3,1165.6,1356.7,1199.1,987.6,9.0,5.0,0.0,-8456.0,-11775.0,-6221.0,-4424.0,6.0,-20.0,0.0,11.0,8.0,-26.0,10407.0,11320.0,-2865.0,-4877.0,14.0,-4.0,-4.0,1.0
2022-05-13 15:48:37.785935-07:00,2083.6,629.5,998.7,1208.0,831.9,1204.4,1611.5,1598.3,3438.2,3441.9,1400.3,1185.0,1201.8,3435.8,1242.6,1371.2,3439.5,3428.6,675.8,1307.0,927.9,523.4,1204.4,1899.7,3443.1,3454.0,852.0,977.3,1169.1,1359.4,1195.6,987.6,0.0,3.0,14.0,-8475.0,-11761.0,-6214.0,-4436.0,-92.0,30.0,7.0,0.0,3.0,-9.0,10406.0,11321.0,-2866.0,-4875.0,-6.0,8.0,8.0,1.0
2022-05-13 15:48:37.828964-07:00,2088.6,629.5,998.7,1208.0,815.2,1199.1,1611.5,1598.3,3438.2,3441.9,1400.3,1185.0,1200.9,3437.0,1242.6,1371.2,3439.5,3439.5,676.6,1307.0,927.9,523.4,1204.4,1916.4,3443.1,3449.1,852.0,983.3,1169.1,1359.4,1195.6,989.3,6.0,-2.0,8.0,-8495.0,-11737.0,-6213.0,-4464.0,-65.0,40.0,-9.0,9.0,-9.0,-6.0,10404.0,11328.0,-2862.0,-4865.0,41.0,42.0,2.0,1.0
2022-05-13 15:48:37.918233-07:00,2088.6,633.5,994.5,1219.5,815.2,1199.1,1604.9,1587.1,3438.2,3440.7,1403.0,1186.7,1200.9,3437.0,1270.3,1435.0,3440.7,3439.5,676.6,1307.0,925.4,521.8,1217.7,1916.4,3444.3,3443.1,852.0,983.3,1165.6,1354.9,1194.7,989.3,11.0,-21.0,-2.0,-8548.0,-11701.0,-6181.0,-4500.0,-332.0,-48.0,83.0,7.0,-6.0,10.0,10369.0,11376.0,-2860.0,-4828.0,168.0,113.0,21.0,1.0
2022-05-13 15:48:37.919983-07:00,2125.0,689.7,994.5,1219.5,821.0,1202.7,1604.9,1587.1,3435.8,3445.5,1403.0,1186.7,1201.8,3443.1,1270.3,1435.0,3440.7,3439.5,675.8,1304.3,925.4,521.8,1557.1,1918.3,3444.3,3443.1,852.8,1059.1,1165.6,1354.9,1199.1,997.9,-3.0,-19.0,-7.0,-8691.0,-11681.0,-6000.0,-4523.0,-287.0,-370.0,259.0,-1.0,-10.0,-22.0,10339.0,11426.0,-2864.0,-4775.0,156.0,110.0,48.0,1.0
2022-05-13 15:48:37.963740-07:00,2125.0,689.7,1000.5,1209.7,821.0,1202.7,1635.0,1639.8,3435.8,3445.5,1419.5,1194.7,1201.8,3443.1,1284.6,1414.0,3431.0,3435.8,675.8,1304.3,922.0,526.6,1557.1,1918.3,3451.6,3449.1,852.8,1059.1,1168.2,1354.9,1199.1,997.9,0.0,53.0,4.0,-8583.0,-11829.0,-5939.0,-4425.0,641.0,-164.0,53.0,-12.0,8.0,-37.0,10250.0,11526.0,-2885.0,-4710.0,444.0,119.0,1.0,1.0
2022-05-13 15:48:38.054256-07:00,2084.6,721.6,1000.5,1209.7,826.0,1193.8,1635.0,1639.8,3435.8,3428.6,1419.5,1194.7,1196.5,3440.7,1284.6,1414.0,3431.0,3435.8,677.4,1294.5,922.0,526.6,1581.4,1910.5,3451.6,3449.1,847.0,1133.1,1168.2,1354.9,1195.6,994.5,0.0,19.0,24.0,-8488.0,-11916.0,-5963.0,-4339.0,178.0,-20.0,-15.0,2.0,18.0,9.0,10164.0,11621.0,-2893.0,-4660.0,182.0,74.0,-4.0,1.0
2022-05-13 15:48:38.055448-07:00,2084.6,721.6,986.7,1206.2,826.0,1193.8,1559.9,1604.9,3435.8,3428.6,1409.4,1188.5,1196.5,3440.7,1227.5,1387.5,3439.5,3437.0,677.4,1294.5,918.6,526.6,1581.4,1910.5,3438.2,3441.9,847.0,1133.1,1168.2,1345.8,1195.6,994.5,-12.0,-21.0,15.0,-8469.0,-11934.0,-5959.0,-4335.0,138.0,-4.0,107.0,1.0,-8.0,-3.0,10141.0,11649.0,-2897.0,-4637.0,96.0,30.0,24.0,1.0
2022-05-13 15:48:38.144191-07:00,2070.5,723.3,986.7,1206.2,820.2,1185.0,1559.9,1604.9,3449.1,3437.0,1409.4,1188.5,1195.6,3435.8,1227.5,1387.5,3439.5,3437.0,669.3,1295.4,918.6,526.6,1562.7,1918.3,3438.2,3441.9,831.1,1130.5,1168.2,1345.8,1186.7,995.3,9.0,25.0,-12.0,-8396.0,-11996.0,-5946.0,-4320.0,243.0,-45.0,31.0,7.0,2.0,-30.0,10101.0,11693.0,-2908.0,-4607.0,138.0,43.0,1.0,1.0
2022-05-13 15:48:38.233718-07:00,2070.5,723.3,996.2,1217.7,820.2,1194.7,1520.8,1561.8,3449.1,3437.0,1417.6,1191.2,1195.6,3438.2,1190.3,1378.5,3438.2,3427.4,679.9,1295.4,922.8,524.2,1562.7,1918.3,3444.3,3439.5,826.0,1130.5,1166.5,1339.5,1186.7,995.3,-12.0,7.0,39.0,-8320.0,-12038.0,-5994.0,-4288.0,198.0,143.0,-83.0,0.0,0.0,-3.0,10069.0,11731.0,-2903.0,-4583.0,92.0,65.0,-12.0,1.0
2022-05-13 15:48:38.324407-07:00,2054.4,718.4,990.2,1217.7,826.9,1194.7,1520.8,1561.8,3437.0,3441.9,1406.7,1191.2,1196.5,3438.2,1190.3,1378.5,3438.2,3427.4,679.9,1307.0,922.8,525.8,1520.8,1896.7,3444.3,3439.5,826.0,1121.7,1166.5,1345.8,1192.9,989.3,-19.0,8.0,6.0,-8247.0,-12056.0,-6057.0,-4288.0,177.0,48.0,9.0,0.0,8.0,7.0,10040.0,11769.0,-2894.0,-4555.0,122.0,68.0,-10.0,1.0
2022-05-13 15:48:38.326540-07:00,2054.4,718.4,990.2,1215.1,826.9,1181.5,1506.9,1536.6,3437.0,3441.9,1406.7,1191.2,1196.5,3438.2,1154.2,1366.6,3431.0,3437.0,672.5,1307.0,914.4,525.8,1520.8,1896.7,3445.5,3438.2,832.7,1121.7,1164.7,1345.8,1192.9,989.3,13.0,8.0,-1.0,-8196.0,-12077.0,-6085.0,-4287.0,61.0,134.0,-18.0,0.0,5.0,-31.0,10020.0,11795.0,-2890.0,-4534.0,42.0,45.0,1.0,1.0
2022-05-13 15:48:38.327677-07:00,2049.4,712.6,991.0,1215.1,818.5,1181.5,1506.9,1536.6,3438.2,3434.6,1412.2,1191.2,1199.1,3438.2,1154.2,1366.6,3431.0,3437.0,672.5,1295.4,914.4,522.6,1514.3,1886.9,3445.5,3438.2,832.7,1106.0,1164.7,1340.4,1199.1,992.7,-7.0,-11.0,-15.0,-8162.0,-12071.0,-6121.0,-4318.0,49.0,59.0,22.0,2.0,-3.0,-6.0,10014.0,11808.0,-2883.0,-4519.0,32.0,30.0,6.0,1.0
2022-05-13 15:48:38.414156-07:00,2049.4,712.6,991.0,1206.2,818.5,1171.8,1487.5,1528.3,3438.2,3434.6,1412.2,1192.9,1199.1,3434.6,1140.1,1369.4,3437.0,3431.0,674.2,1295.4,910.1,522.6,1514.3,1886.9,3440.7,3444.3,812.7,1106.0,1161.2,1340.4,1199.1,992.7,-5.0,10.0,-17.0,-8142.0,-12081.0,-6127.0,-4319.0,51.0,-40.0,-5.0,0.0,6.0,-15.0,10001.0,11822.0,-2883.0,-4510.0,37.0,3.0,-11.0,1.0
2022-05-13 15:48:38.548881-07:00,2030.4,704.4,985.0,1208.0,817.7,1171.8,1487.5,1528.3,3437.0,3435.8,1407.6,1187.6,1201.8,3434.6,1140.1,1369.4,3437.0,3431.0,674.2,1295.4,905.0,528.2,1505.1,1873.2,3440.7,3444.3,812.7,1104.3,1166.5,1338.6,1185.9,986.7,0.0,0.0,17.0,-8140.0,-12094.0,-6119.0,-4298.0,-27.0,-8.0,34.0,1.0,5.0,-16.0,9995.0,11826.0,-2888.0,-4512.0,-9.0,-19.0,8.0,1.0
2022-05-13 15:48:38.551735-07:00,2030.4,704.4,985.0,1208.0,822.7,1170.0,1477.3,1522.7,3437.0,3435.8,1407.6,1187.6,1200.0,3428.6,1134.0,1365.7,3440.7,3444.3,676.6,1296.3,905.0,528.2,1505.1,1873.2,3437.0,3440.7,814.4,1101.7,1166.5,1338.6,1185.9,986.7,-2.0,28.0,0.0,-8142.0,-12099.0,-6101.0,-4307.0,44.0,-35.0,18.0,1.0,14.0,-9.0,9994.0,11825.0,-2893.0,-4511.0,32.0,1.0,-2.0,1.0
2022-05-13 15:48:38.552845-07:00,2027.4,696.2,993.6,1209.7,822.7,1170.0,1477.3,1522.7,3433.4,3439.5,1404.9,1192.0,1200.0,3428.6,1134.0,1365.7,3440.7,3444.3,676.6,1296.3,908.4,519.5,1504.1,1873.2,3437.0,3440.7,814.4,1101.7,1166.5,1340.4,1185.0,987.6,-1.0,-12.0,22.0,-8139.0,-12106.0,-6102.0,-4290.0,4.0,1.0,-13.0,3.0,-2.0,-10.0,9988.0,11830.0,-2892.0,-4512.0,-12.0,1.0,-10.0,1.0
2022-05-13 15:48:38.593935-07:00,2027.4,696.2,993.6,1209.7,820.2,1176.2,1466.3,1514.3,3433.4,3439.5,1404.9,1192.0,1201.8,3433.4,1131.4,1364.8,3433.4,3440.7,682.3,1290.9,908.4,519.5,1504.1,1873.2,3443.1,3441.9,808.5,1094.7,1166.5,1340.4,1185.0,987.6,5.0,5.0,1.0,-8129.0,-12113.0,-6100.0,-4292.0,91.0,10.0,29.0,3.0,-2.0,-16.0,9981.0,11837.0,-2895.0,-4507.0,51.0,17.0,0.0,1.0
2022-05-13 15:48:38.638643-07:00,2032.4,693.8,999.6,1208.9,820.2,1176.2,1466.3,1514.3,3439.5,3440.7,1401.2,1185.0,1201.8,3433.4,1131.4,1364.8,3433.4,3440.7,682.3,1290.9,900.8,521.8,1492.1,1863.5,3443.1,3441.9,808.5,1094.7,1160.3,1330.5,1185.0,984.2,9.0,-2.0,8.0,-8113.0,-12126.0,-6104.0,-4279.0,-3.0,-10.0,-16.0,6.0,2.0,-22.0,9972.0,11846.0,-2895.0,-4502.0,-10.0,-4.0,-8.0,1.0
2022-05-13 15:48:38.684608-07:00,2024.4,693.8,999.6,1208.9,817.7,1163.8,1464.4,1520.8,3441.9,3440.7,1401.2,1185.0,1196.5,3439.5,1135.7,1355.8,3449.1,3441.9,675.0,1291.8,900.8,521.8,1492.1,1866.4,3450.4,3449.1,802.7,1098.2,1160.3,1330.5,1185.0,991.9,-8.0,4.0,5.0,-8113.0,-12126.0,-6104.0,-4281.0,-12.0,-8.0,37.0,-3.0,2.0,-5.0,9973.0,11846.0,-2895.0,-4502.0,-3.0,-6.0,6.0,1.0
2022-05-13 15:48:38.728976-07:00,2024.4,692.1,992.7,1202.7,817.7,1163.8,1464.4,1503.2,3441.9,3439.5,1402.1,1189.4,1196.5,3439.5,1135.7,1359.4,3439.5,3441.9,675.0,1291.8,908.4,523.4,1494.0,1866.4,3451.6,3449.1,802.7,1098.2,1168.2,1331.4,1177.9,991.9,-3.0,4.0,0.0,-8123.0,-12122.0,-6092.0,-4291.0,-21.0,-13.0,11.0,4.0,-2.0,-10.0,9979.0,11840.0,-2895.0,-4504.0,0.0,-2.0,-6.0,1.0
2022-05-13 15:48:38.774003-07:00,2024.4,692.1,992.7,1202.7,831.9,1167.4,1464.4,1503.2,3449.1,3439.5,1402.1,1189.4,1186.7,3444.3,1126.1,1359.4,3439.5,3439.5,673.3,1287.3,908.4,523.4,1494.0,1856.7,3451.6,3446.7,804.4,1085.1,1168.2,1331.4,1177.9,979.9,-8.0,2.0,7.0,-8117.0,-12130.0,-6092.0,-4278.0,13.0,-3.0,-15.0,1.0,2.0,-12.0,9974.0,11845.0,-2895.0,-4503.0,-12.0,-1.0,-5.0,1.0
2022-05-13 15:48:38.818791-07:00,2024.4,690.5,991.0,1211.5,831.9,1167.4,1464.4,1500.4,3449.1,3440.7,1405.8,1200.0,1186.7,3444.3,1126.1,1357.6,3428.6,3439.5,673.3,1287.3,900.8,521.8,1494.0,1856.7,3441.9,3446.7,804.4,1085.1,1161.2,1338.6,1181.5,979.9,-1.0,4.0,0.0,-8129.0,-12126.0,-6082.0,-4280.0,-46.0,-21.0,20.0,0.0,0.0,-12.0,9980.0,11838.0,-2895.0,-4507.0,-28.0,-15.0,4.0,1.0
2022-05-13 15:48:38.953747-07:00,2027.4,690.5,991.0,1211.5,822.7,1172.6,1459.8,1500.4,3441.9,3440.7,1405.8,1200.0,1201.8,3450.4,1117.4,1357.6,3428.6,3438.2,679.1,1289.1,900.8,521.8,1494.0,1856.7,3441.9,3444.3,811.9,1080.8,1161.2,1338.6,1181.5,979.0,-4.0,-2.0,8.0,-8138.0,-12129.0,-6071.0,-4270.0,11.0,-46.0,-2.0,0.0,0.0,-8.0,9980.0,11836.0,-2897.0,-4511.0,7.0,-9.0,-7.0,1.0
2022-05-13 15:48:39.044766-07:00,2027.4,688.0,985.0,1213.3,822.7,1172.6,1459.8,1494.9,3441.9,3435.8,1412.2,1189.4,1201.8,3450.4,1117.4,1361.2,3438.2,3438.2,679.1,1289.1,901.7,525.0,1491.2,1856.7,3438.2,3444.3,811.9,1080.8,1159.4,1335.0,1180.6,979.0,-6.0,-3.0,6.0,-8144.0,-12135.0,-6055.0,-4264.0,-15.0,-31.0,39.0,4.0,0.0,-10.0,9978.0,11836.0,-2901.0,-4513.0,8.0,-11.0,10.0,1.0
2022-05-13 15:48:39.224341-07:00,2023.4,686.4,985.0,1213.3,827.7,1167.4,1457.1,1494.9,3444.3,3438.2,1412.2,1189.4,1196.5,3449.1,1107.8,1361.2,3438.2,3434.6,673.3,1289.1,901.7,525.0,1489.3,1848.9,3438.2,3447.9,801.0,1092.1,1159.4,1335.0,1184.1,984.2,5.0,13.0,4.0,-8138.0,-12151.0,-6039.0,-4254.0,44.0,-39.0,17.0,4.0,5.0,-17.0,9972.0,11841.0,-2904.0,-4512.0,17.0,-1.0,-1.0,1.0
2022-05-13 15:48:39.225921-07:00,2023.4,686.4,991.0,1206.2,827.7,1167.4,1451.6,1498.6,3444.3,3438.2,1401.2,1187.6,1196.5,3449.1,1118.2,1362.1,3428.6,3441.9,673.3,1289.1,903.4,521.8,1489.3,1848.9,3433.4,3444.3,801.0,1092.1,1169.1,1331.4,1184.1,984.2,-4.0,11.0,5.0,-8133.0,-12157.0,-6039.0,-4247.0,10.0,1.0,0.0,2.0,3.0,-11.0,9970.0,11843.0,-2905.0,-4510.0,-14.0,1.0,-4.0,1.0
2022-05-13 15:48:39.227478-07:00,2020.4,689.7,991.0,1206.2,822.7,1175.3,1451.6,1498.6,3438.2,3440.7,1401.2,1187.6,1195.6,3440.7,1118.2,1362.1,3428.6,3441.9,678.2,1289.1,903.4,521.8,1487.5,1850.8,3433.4,3444.3,806.9,1080.8,1169.1,1331.4,1178.8,980.7,-1.0,-9.0,3.0,-8142.0,-12153.0,-6034.0,-4249.0,-11.0,-12.0,13.0,2.0,-9.0,-12.0,9976.0,11838.0,-2903.0,-4512.0,1.0,-5.0,1.0,1.0
2022-05-13 15:48:39.359169-07:00,2020.4,689.7,992.7,1215.1,822.7,1175.3,1442.4,1486.6,3438.2,3440.7,1405.8,1192.9,1195.6,3440.7,1119.1,1357.6,3432.2,3438.2,678.2,1289.1,908.4,528.2,1487.5,1850.8,3432.2,3437.0,806.9,1080.8,1158.6,1335.9,1178.8,980.7,-2.0,15.0,0.0,-8137.0,-12160.0,-6031.0,-4240.0,12.0,-30.0,-13.0,3.0,7.0,-7.0,9975.0,11838.0,-2903.0,-4512.0,-21.0,-5.0,-11.0,1.0
2022-05-13 15:48:39.629486-07:00,2020.4,687.2,992.7,1215.1,820.2,1167.4,1442.4,1486.6,3428.6,3449.1,1405.8,1192.9,1203.5,3432.2,1119.1,1357.6,3432.2,3438.2,678.2,1290.9,908.4,528.2,1475.5,1845.0,3432.2,3437.0,803.5,1080.8,1158.6,1335.9,1182.3,980.7,-6.0,-3.0,9.0,-8146.0,-12156.0,-6030.0,-4237.0,-24.0,15.0,7.0,1.0,-3.0,-15.0,9982.0,11833.0,-2900.0,-4514.0,-13.0,1.0,5.0,1.0
2022-05-13 15:48:39.630224-07:00,2020.4,687.2,992.7,1215.1,820.2,1167.4,1442.4,1486.6,3428.6,3449.1,1405.8,1192.9,1203.5,3432.2,1119.1,1357.6,3432.2,3438.2,678.2,1290.9,908.4,528.2,1475.5,1845.0,3432.2,3437.0,803.5,1080.8,1158.6,1335.9,1182.3,980.7,-6.0,-3.0,9.0,-8146.0,-12156.0,-6030.0,-4237.0,-24.0,15.0,7.0,1.0,-3.0,-15.0,9982.0,11833.0,-2900.0,-4514.0,-13.0,1.0,5.0,1.0
2022-05-13 15:48:39.631288-07:00,2015.4,692.1,991.0,1204.4,820.2,1173.5,1448.8,1490.3,3437.0,3438.2,1407.6,1189.4,1199.1,3437.0,1106.9,1357.6,3445.5,3434.6,676.6,1288.2,900.0,521.0,1476.4,1845.0,3456.4,3439.5,801.0,1085.1,1158.6,1329.6,1177.9,981.6,-3.0,5.0,1.0,-8148.0,-12159.0,-6018.0,-4242.0,-5.0,13.0,26.0,2.0,0.0,-12.0,9985.0,11830.0,-2898.0,-4515.0,4.0,2.0,6.0,1.0
2022-05-13 15:48:39.632364-07:00,2007.4,694.6,984.2,1204.4,818.5,1173.5,1448.8,1490.3,3438.2,3441.9,1404.9,1189.4,1198.2,3437.0,1106.9,1357.6,3445.5,3434.6,676.6,1290.0,900.0,522.6,1475.5,1844.0,3456.4,3439.5,801.0,1078.2,1158.6,1330.5,1177.0,984.2,-3.0,8.0,5.0,-8143.0,-12165.0,-6017.0,-4236.0,34.0,-27.0,-14.0,2.0,4.0,-10.0,9981.0,11833.0,-2898.0,-4516.0,11.0,1.0,-14.0,1.0
2022-05-13 15:48:39.633414-07:00,2007.4,694.6,984.2,1210.6,818.5,1163.8,1443.3,1488.4,3438.2,3441.9,1404.9,1186.7,1198.2,3444.3,1106.0,1355.8,3439.5,3433.4,675.0,1290.0,901.7,522.6,1475.5,1844.0,3441.9,3433.4,801.0,1078.2,1163.8,1330.5,1177.0,984.2,-1.0,0.0,2.0,-8144.0,-12166.0,-6016.0,-4232.0,-20.0,13.0,11.0,1.0,0.0,-11.0,9981.0,11833.0,-2896.0,-4517.0,-21.0,3.0,6.0,1.0
2022-05-13 15:48:39.719757-07:00,2017.4,683.1,987.6,1211.5,819.4,1163.8,1443.3,1488.4,3449.1,3439.5,1394.8,1185.9,1202.7,3444.3,1106.0,1355.8,3439.5,3433.4,675.0,1283.7,898.3,522.6,1475.5,1849.8,3441.9,3433.4,801.0,1076.4,1162.1,1331.4,1174.4,981.6,-3.0,5.0,-5.0,-8147.0,-12162.0,-6014.0,-4242.0,-9.0,-4.0,-2.0,2.0,-2.0,-12.0,9987.0,11828.0,-2894.0,-4519.0,-9.0,1.0,-4.0,1.0
2022-05-13 15:48:39.721580-07:00,2004.5,679.1,994.5,1205.3,826.9,1166.5,1432.3,1482.9,3444.3,3440.7,1396.7,1187.6,1200.0,3437.0,1105.1,1350.3,3431.0,3428.6,672.5,1285.5,898.3,517.9,1473.6,1836.2,3441.9,3438.2,791.9,1072.9,1165.6,1329.6,1172.6,975.6,-7.0,12.0,10.0,-8188.0,-12157.0,-5977.0,-4229.0,14.0,-19.0,8.0,0.0,2.0,-3.0,10014.0,11797.0,-2893.0,-4542.0,12.0,6.0,-6.0,1.0
2022-05-13 15:48:39.763863-07:00,1998.5,672.5,989.3,1214.2,826.9,1166.5,1432.3,1474.6,3438.2,3441.9,1393.9,1186.7,1200.0,3437.0,1105.1,1346.7,3433.4,3428.6,672.5,1285.5,902.5,522.6,1470.9,1836.2,3433.4,3438.2,791.9,1072.9,1171.8,1329.6,1173.5,974.8,0.0,-14.0,16.0,-8192.0,-12156.0,-5977.0,-4225.0,-15.0,11.0,-10.0,4.0,-5.0,-13.0,10015.0,11796.0,-2893.0,-4542.0,-6.0,5.0,-3.0,1.0
2022-05-13 15:48:39.808588-07:00,2007.4,672.5,989.3,1214.2,831.9,1159.4,1435.0,1474.6,3439.5,3441.9,1393.9,1186.7,1196.5,3435.8,1099.9,1346.7,3433.4,3434.6,675.8,1284.6,902.5,522.6,1470.9,1834.3,3433.4,3439.5,794.4,1066.0,1171.8,1329.6,1173.5,974.8,0.0,13.0,-1.0,-8175.0,-12163.0,-5983.0,-4228.0,48.0,12.0,6.0,4.0,5.0,-15.0,10010.0,11802.0,-2892.0,-4537.0,30.0,15.0,-2.0,1.0
2022-05-13 15:48:39.854556-07:00,2007.4,676.6,992.7,1197.4,831.9,1159.4,1435.0,1477.3,3439.5,3439.5,1412.2,1183.2,1196.5,3435.8,1099.9,1352.1,3438.2,3434.6,675.8,1284.6,904.2,520.3,1463.5,1834.3,3444.3,3439.5,794.4,1066.0,1168.2,1332.3,1177.9,974.8,-4.0,-1.0,2.0,-8173.0,-12163.0,-5990.0,-4223.0,-41.0,3.0,-24.0,1.0,-1.0,-17.0,10006.0,11807.0,-2888.0,-4535.0,-29.0,3.0,-9.0,1.0
2022-05-13 15:48:39.989317-07:00,2000.5,676.6,992.7,1197.4,821.9,1163.8,1435.0,1477.3,3428.6,3439.5,1412.2,1183.2,1198.2,3438.2,1106.0,1352.1,3438.2,3438.2,674.2,1281.0,904.2,520.3,1463.5,1834.3,3444.3,3443.1,796.0,1062.5,1168.2,1332.3,1177.9,973.1,-5.0,4.0,-3.0,-8177.0,-12160.0,-5990.0,-4224.0,-6.0,-4.0,8.0,2.0,0.0,-17.0,10013.0,11801.0,-2886.0,-4537.0,-8.0,-7.0,2.0,1.0
2022-05-13 15:48:39.991844-07:00,2000.5,674.2,988.5,1210.6,821.9,1163.8,1435.0,1481.9,3428.6,3432.2,1403.0,1185.0,1198.2,3438.2,1106.0,1350.3,3439.5,3438.2,674.2,1281.0,898.3,523.4,1470.9,1834.3,3443.1,3443.1,796.0,1062.5,1156.8,1327.8,1180.6,973.1,0.0,7.0,7.0,-8188.0,-12156.0,-5983.0,-4223.0,-48.0,-19.0,-4.0,7.0,-2.0,-15.0,10016.0,11796.0,-2887.0,-4541.0,-36.0,-15.0,1.0,1.0
2022-05-13 15:48:40.123355-07:00,1999.5,669.3,988.5,1210.6,829.4,1157.7,1430.5,1481.9,3439.5,3441.9,1403.0,1185.0,1199.1,3438.2,1101.7,1350.3,3439.5,3432.2,675.0,1285.5,898.3,523.4,1467.2,1824.6,3443.1,3441.9,791.0,1066.0,1156.8,1327.8,1176.2,972.2,-4.0,9.0,10.0,-8191.0,-12156.0,-5980.0,-4219.0,26.0,-13.0,2.0,0.0,0.0,-3.0,10021.0,11791.0,-2887.0,-4544.0,10.0,-4.0,-1.0,1.0
2022-05-13 15:48:40.125836-07:00,1999.5,669.3,985.9,1206.2,829.4,1157.7,1422.2,1471.8,3439.5,3441.9,1397.6,1184.1,1199.1,3438.2,1105.1,1344.9,3441.9,3438.2,675.0,1285.5,899.1,525.8,1467.2,1824.6,3441.9,3460.1,791.0,1066.0,1158.6,1335.9,1176.2,972.2,-2.0,1.0,9.0,-8187.0,-12159.0,-5981.0,-4218.0,8.0,15.0,9.0,1.0,0.0,-10.0,10020.0,11792.0,-2887.0,-4544.0,6.0,7.0,1.0,1.0
2022-05-13 15:48:40.213680-07:00,1986.6,673.3,985.9,1206.2,816.9,1159.4,1422.2,1471.8,3438.2,3435.8,1397.6,1184.1,1194.7,3440.7,1105.1,1344.9,3441.9,3438.2,675.8,1283.7,899.1,525.8,1470.9,1827.5,3441.9,3460.1,792.7,1064.3,1158.6,1335.9,1178.8,978.2,-1.0,1.0,0.0,-8174.0,-12166.0,-5985.0,-4219.0,50.0,9.0,8.0,3.0,2.0,-16.0,10015.0,11797.0,-2888.0,-4541.0,40.0,15.0,0.0,1.0
2022-05-13 15:48:40.216649-07:00,1986.6,673.3,990.2,1209.7,816.9,1159.4,1427.7,1475.5,3438.2,3435.8,1396.7,1189.4,1194.7,3440.7,1099.0,1353.1,3440.7,3449.1,675.8,1283.7,901.7,521.0,1470.9,1827.5,3440.7,3445.5,792.7,1064.3,1165.6,1334.1,1178.8,978.2,1.0,5.0,0.0,-8149.0,-12182.0,-5993.0,-4208.0,84.0,-2.0,10.0,6.0,4.0,-18.0,10002.0,11811.0,-2890.0,-4533.0,48.0,9.0,0.0,1.0
2022-05-13 15:48:40.217779-07:00,1993.5,674.2,990.2,1209.7,821.0,1161.2,1427.7,1475.5,3438.2,3435.8,1396.7,1189.4,1199.1,3449.1,1099.0,1353.1,3440.7,3449.1,675.8,1286.4,901.7,521.0,1467.2,1825.5,3440.7,3445.5,796.0,1070.3,1165.6,1334.1,1186.7,973.1,-2.0,17.0,-2.0,-8149.0,-12184.0,-5991.0,-4206.0,-83.0,-18.0,-11.0,3.0,7.0,-15.0,10000.0,11811.0,-2892.0,-4535.0,-70.0,-22.0,-2.0,1.0
2022-05-13 15:48:40.258795-07:00,1993.5,674.2,992.7,1208.9,821.0,1168.2,1422.2,1471.8,3438.2,3435.8,1395.7,1181.5,1199.1,3433.4,1101.7,1350.3,3432.2,3433.4,675.0,1286.4,905.9,520.3,1467.2,1825.5,3433.4,3444.3,798.5,1070.3,1164.7,1333.2,1186.7,973.1,-6.0,-11.0,8.0,-8166.0,-12177.0,-5979.0,-4208.0,24.0,-12.0,24.0,2.0,-4.0,-14.0,10014.0,11796.0,-2891.0,-4545.0,7.0,-11.0,6.0,1.0
2022-05-13 15:48:40.438840-07:00,1998.5,672.5,991.9,1208.9,831.9,1168.2,1422.2,1471.8,3439.5,3439.5,1401.2,1181.5,1197.4,3433.4,1101.7,1350.3,3432.2,3433.4,675.0,1283.7,905.9,521.8,1463.5,1822.6,3433.4,3444.3,798.5,1063.4,1164.7,1327.8,1172.6,973.1,-3.0,13.0,5.0,-8168.0,-12177.0,-5978.0,-4209.0,-52.0,-9.0,-22.0,3.0,2.0,-13.0,10014.0,11796.0,-2892.0,-4546.0,-37.0,-5.0,-7.0,1.0
2022-05-13 15:48:40.439983-07:00,1998.5,672.5,991.9,1214.2,831.9,1157.7,1418.6,1473.6,3439.5,3439.5,1401.2,1190.3,1197.4,3439.5,1087.7,1350.3,3439.5,3429.8,674.2,1283.7,901.7,521.8,1463.5,1822.6,3449.1,3432.2,794.4,1063.4,1165.6,1327.8,1172.6,973.1,0.0,-5.0,6.0,-8176.0,-12173.0,-5975.0,-4210.0,11.0,2.0,14.0,4.0,-3.0,-15.0,10021.0,11790.0,-2888.0,-4548.0,4.0,1.0,4.0,1.0
2022-05-13 15:48:40.441033-07:00,1995.5,676.6,997.0,1214.2,821.9,1157.7,1418.6,1473.6,3437.0,3438.2,1397.6,1190.3,1200.0,3439.5,1087.7,1350.3,3439.5,3429.8,674.2,1287.3,901.7,517.9,1457.1,1825.5,3449.1,3432.2,794.4,1065.1,1165.6,1333.2,1168.2,977.3,-2.0,14.0,1.0,-8172.0,-12176.0,-5975.0,-4208.0,-9.0,-10.0,-12.0,2.0,6.0,-15.0,10019.0,11791.0,-2889.0,-4547.0,-14.0,1.0,-8.0,1.0
2022-05-13 15:48:40.483904-07:00,1995.5,676.6,997.0,1205.3,821.9,1160.3,1423.1,1468.1,3437.0,3438.2,1397.6,1181.5,1200.0,3441.9,1092.1,1351.2,3433.4,3439.5,673.3,1287.3,897.4,517.9,1457.1,1825.5,3444.3,3445.5,791.0,1065.1,1163.0,1333.2,1168.2,977.3,-3.0,-8.0,5.0,-8179.0,-12171.0,-5974.0,-4209.0,-7.0,-4.0,12.0,1.0,-5.0,-12.0,10025.0,11786.0,-2887.0,-4549.0,-4.0,-6.0,6.0,1.0
2022-05-13 15:48:40.528823-07:00,1988.5,668.4,991.0,1210.6,819.4,1160.3,1423.1,1468.1,3445.5,3432.2,1392.1,1185.9,1201.8,3441.9,1092.1,1351.2,3433.4,3439.5,673.3,1281.9,900.8,522.6,1458.9,1829.4,3444.3,3445.5,791.0,1059.1,1159.4,1328.7,1175.3,979.0,0.0,11.0,6.0,-8175.0,-12175.0,-5972.0,-4210.0,-3.0,-4.0,4.0,5.0,-1.0,-11.0,10025.0,11786.0,-2887.0,-4549.0,-7.0,1.0,1.0,1.0
2022-05-13 15:48:40.619220-07:00,1988.5,668.4,991.0,1210.6,821.9,1161.2,1424.1,1477.3,3445.5,3432.2,1392.1,1185.9,1198.2,3444.3,1093.8,1354.0,3439.5,3439.5,671.7,1285.5,900.8,522.6,1458.9,1829.4,3439.5,3440.7,796.9,1062.5,1159.4,1328.7,1175.3,979.0,-3.0,14.0,6.0,-8177.0,-12173.0,-5971.0,-4212.0,-50.0,10.0,-11.0,3.0,0.0,-15.0,10027.0,11785.0,-2886.0,-4549.0,-42.0,-1.0,-3.0,1.0
2022-05-13 15:48:40.709234-07:00,1994.5,674.2,990.2,1212.4,821.9,1161.2,1424.1,1477.3,3446.7,3434.6,1395.7,1185.0,1198.2,3444.3,1093.8,1354.0,3439.5,3439.5,671.7,1285.5,899.1,523.4,1455.2,1821.6,3439.5,3440.7,796.9,1062.5,1170.0,1330.5,1175.3,976.5,-4.0,4.0,4.0,-8191.0,-12162.0,-5971.0,-4216.0,-3.0,4.0,2.0,2.0,10.0,-17.0,10037.0,11776.0,-2882.0,-4552.0,-34.0,-10.0,0.0,1.0
2022-05-13 15:48:40.712151-07:00,1994.5,674.2,990.2,1212.4,821.0,1163.0,1418.6,1463.5,3446.7,3434.6,1395.7,1185.0,1198.2,3438.2,1099.9,1346.7,3438.2,3438.2,668.4,1281.9,899.1,523.4,1455.2,1821.6,3438.2,3446.7,782.7,1060.8,1170.0,1330.5,1175.3,976.5,-15.0,65.0,-20.0,-8207.0,-12151.0,-5966.0,-4223.0,-254.0,-36.0,-54.0,-3.0,32.0,-13.0,10072.0,11739.0,-2877.0,-4572.0,-337.0,-90.0,-7.0,1.0
2022-05-13 15:48:40.713256-07:00,1994.5,673.3,985.9,1210.6,821.0,1163.0,1418.6,1463.5,3438.2,3455.2,1397.6,1189.4,1198.2,3438.2,1099.9,1346.7,3438.2,3438.2,668.4,1281.9,900.0,522.6,1456.2,1836.2,3438.2,3446.7,782.7,1060.8,1163.8,1335.9,1177.0,980.7,-18.0,-10.0,-1.0,-8334.0,-12069.0,-5949.0,-4235.0,-184.0,-103.0,-73.0,-6.0,-5.0,-22.0,10172.0,11632.0,-2859.0,-4636.0,-312.0,-133.0,-23.0,1.0
2022-05-13 15:48:40.888967-07:00,1994.5,673.3,985.9,1210.6,824.4,1164.7,1427.7,1478.3,3438.2,3455.2,1397.6,1189.4,1195.6,3439.5,1147.1,1359.4,3439.5,3435.8,668.4,1284.6,900.0,522.6,1456.2,1836.2,3437.0,3435.8,790.2,1061.7,1163.8,1335.9,1177.0,980.7,25.0,34.0,-9.0,-8430.0,-12025.0,-5914.0,-4219.0,-496.0,-105.0,-60.0,16.0,11.0,-37.0,10276.0,11506.0,-2849.0,-4725.0,-526.0,-210.0,-35.0,1.0
2022-05-13 15:48:40.890207-07:00,1994.5,679.9,991.9,1214.2,824.4,1164.7,1427.7,1497.7,3439.5,3437.0,1397.6,1181.5,1195.6,3439.5,1147.1,1384.8,3441.9,3435.8,668.4,1284.6,911.8,518.7,1435.0,1816.8,3446.7,3435.8,790.2,1061.7,1169.1,1328.7,1170.9,971.3,-21.0,-69.0,41.0,-8606.0,-11912.0,-5845.0,-4280.0,-180.0,3.0,93.0,0.0,-37.0,-6.0,10390.0,11368.0,-2839.0,-4814.0,-211.0,-134.0,8.0,1.0
2022-05-13 15:48:40.891289-07:00,2043.4,679.9,991.9,1214.2,814.4,1168.2,1471.8,1497.7,3439.5,3437.0,1397.6,1181.5,1197.4,3438.2,1247.1,1384.8,3441.9,3443.1,678.2,1290.0,911.8,518.7,1435.0,1826.5,3446.7,3450.4,868.8,1046.1,1169.1,1328.7,1170.9,980.7,12.0,2.0,23.0,-8611.0,-11899.0,-5845.0,-4306.0,-8.0,86.0,-105.0,19.0,0.0,0.0,10430.0,11312.0,-2845.0,-4858.0,-98.0,-50.0,-26.0,1.0
2022-05-13 15:48:40.892374-07:00,2043.4,665.2,991.0,1208.0,814.4,1168.2,1471.8,1561.8,3439.5,3434.6,1389.4,1176.2,1197.4,3438.2,1247.1,1425.0,3433.4,3443.1,678.2,1290.0,922.8,521.0,1412.2,1826.5,3439.5,3450.4,868.8,1046.1,1168.2,1327.8,1178.8,980.7,7.0,-22.0,45.0,-8595.0,-11882.0,-5885.0,-4328.0,-16.0,189.0,81.0,9.0,4.0,-22.0,10447.0,11288.0,-2848.0,-4874.0,-46.0,-16.0,57.0,1.0
2022-05-13 15:48:41.113340-07:00,2116.9,665.2,991.0,1208.0,825.2,1171.8,1574.9,1561.8,3439.5,3434.6,1389.4,1176.2,1196.5,3435.8,1355.8,1425.0,3433.4,3440.7,676.6,1307.9,922.8,521.0,1412.2,1817.8,3439.5,3438.2,914.4,1046.1,1168.2,1327.8,1178.8,969.6,-23.0,8.0,-21.0,-8546.0,-11872.0,-5900.0,-4433.0,33.0,175.0,143.0,-1.0,2.0,15.0,10457.0,11283.0,-2866.0,-4854.0,63.0,22.0,46.0,1.0
2022-05-13 15:48:41.115303-07:00,2116.9,666.0,985.0,1213.3,825.2,1171.8,1574.9,1637.9,3439.5,3444.3,1383.0,1188.5,1196.5,3435.8,1355.8,1450.6,3432.2,3440.7,676.6,1307.9,933.0,525.0,1371.2,1817.8,3438.2,3438.2,914.4,1046.1,1158.6,1330.5,1177.0,969.6,4.0,0.0,-79.0,-8513.0,-11912.0,-5855.0,-4448.0,9.0,-278.0,168.0,-22.0,24.0,-46.0,10444.0,11293.0,-2887.0,-4848.0,-2.0,-124.0,14.0,1.0
2022-05-13 15:48:41.159481-07:00,2115.9,656.2,985.0,1213.3,829.4,1176.2,1657.7,1637.9,3440.7,3441.9,1383.0,1188.5,1195.6,3443.1,1398.5,1450.6,3432.2,3445.5,674.2,1306.1,933.0,525.0,1343.1,1899.7,3438.2,3438.2,930.5,1004.8,1158.6,1330.5,1177.9,984.2,8.0,-10.0,-8.0,-8557.0,-11936.0,-5747.0,-4441.0,-261.0,-19.0,147.0,-3.0,0.0,-42.0,10465.0,11248.0,-2925.0,-4883.0,-164.0,-122.0,70.0,1.0
2022-05-13 15:48:41.161047-07:00,2115.9,656.2,989.3,1208.0,829.4,1176.2,1642.6,1617.1,3440.7,3441.9,1380.3,1185.0,1195.6,3443.1,1348.5,1404.9,3437.0,3433.4,674.2,1306.1,942.4,522.6,1343.1,1899.7,3440.7,3446.7,930.5,1004.8,1160.3,1330.5,1177.9,984.2,4.0,28.0,5.0,-8610.0,-11925.0,-5663.0,-4474.0,-26.0,-209.0,90.0,2.0,1.0,-13.0,10497.0,11198.0,-2954.0,-4911.0,-3.0,-91.0,-2.0,1.0
2022-05-13 15:48:41.338906-07:00,2087.6,644.9,989.3,1208.0,820.2,1178.8,1642.6,1617.1,3441.9,3438.2,1380.3,1185.0,1198.2,3451.6,1348.5,1404.9,3437.0,3433.4,674.2,1325.0,942.4,522.6,1317.8,1931.1,3440.7,3446.7,935.6,1028.0,1160.3,1330.5,1196.5,995.3,1.0,5.0,58.0,-8637.0,-11939.0,-5620.0,-4441.0,-93.0,36.0,-51.0,5.0,0.0,5.0,10496.0,11186.0,-2969.0,-4932.0,-68.0,-8.0,-3.0,1.0
2022-05-13 15:48:41.342773-07:00,2087.6,644.9,993.6,1207.1,820.2,1178.8,1635.0,1609.6,3441.9,3438.2,1386.6,1184.1,1198.2,3451.6,1335.9,1394.8,3434.6,3434.6,674.2,1325.0,935.6,524.2,1317.8,1931.1,3445.5,3445.5,935.6,1028.0,1163.8,1344.9,1196.5,995.3,0.0,9.0,20.0,-8657.0,-11912.0,-5629.0,-4463.0,-49.0,9.0,6.0,13.0,-4.0,-2.0,10508.0,11174.0,-2964.0,-4935.0,-20.0,8.0,3.0,1.0
2022-05-13 15:48:41.343942-07:00,2075.5,650.5,993.6,1207.1,823.5,1185.0,1635.0,1609.6,3435.8,3446.7,1386.6,1184.1,1200.9,3438.2,1335.9,1394.8,3434.6,3434.6,670.1,1326.8,935.6,524.2,1297.2,1940.0,3445.5,3445.5,933.9,1021.9,1163.8,1344.9,1197.4,1008.2,2.0,16.0,9.0,-8658.0,-11903.0,-5639.0,-4471.0,42.0,72.0,-45.0,2.0,7.0,-24.0,10507.0,11182.0,-2954.0,-4927.0,16.0,48.0,-22.0,1.0
2022-05-13 15:48:41.345005-07:00,2075.5,650.5,995.3,1210.6,823.5,1181.5,1636.0,1611.5,3435.8,3446.7,1380.3,1185.0,1200.9,3444.3,1313.3,1389.4,3439.5,3438.2,677.4,1326.8,939.0,523.4,1297.2,1940.0,3438.2,3449.1,932.2,1021.9,1163.8,1344.9,1197.4,1008.2,-12.0,-19.0,-21.0,-8647.0,-11887.0,-5681.0,-4484.0,-22.0,68.0,-41.0,-3.0,-7.0,-13.0,10504.0,11194.0,-2937.0,-4915.0,-14.0,33.0,-11.0,1.0
2022-05-13 15:48:41.427903-07:00,2066.5,645.7,991.9,1210.6,823.5,1181.5,1636.0,1611.5,3444.3,3437.0,1379.4,1185.0,1198.2,3444.3,1313.3,1389.4,3439.5,3438.2,677.4,1322.3,939.0,525.0,1275.6,1929.2,3438.2,3449.1,932.2,1012.5,1163.8,1335.0,1191.2,1014.2,0.0,0.0,-11.0,-8651.0,-11883.0,-5682.0,-4484.0,-9.0,-14.0,8.0,-4.0,2.0,-30.0,10499.0,11201.0,-2937.0,-4913.0,-2.0,-11.0,-1.0,1.0
2022-05-13 15:48:41.430866-07:00,2066.5,645.7,991.9,1208.0,823.5,1170.9,1617.1,1608.7,3444.3,3437.0,1379.4,1181.5,1198.2,3444.3,1298.1,1385.7,3441.9,3441.9,674.2,1322.3,933.0,525.0,1275.6,1929.2,3439.5,3439.5,925.4,1012.5,1161.2,1335.0,1191.2,1014.2,-8.0,-13.0,12.0,-8655.0,-11883.0,-5682.0,-4477.0,-45.0,-25.0,-18.0,-1.0,-9.0,-9.0,10493.0,11204.0,-2940.0,-4916.0,-27.0,-24.0,-6.0,1.0
2022-05-13 15:48:41.518908-07:00,2063.5,648.9,986.7,1208.0,816.9,1170.9,1617.1,1608.7,3449.1,3449.1,1375.7,1181.5,1197.4,3444.3,1298.1,1385.7,3441.9,3441.9,674.2,1316.9,933.0,517.9,1261.3,1914.4,3439.5,3439.5,925.4,1006.5,1161.2,1338.6,1183.2,1011.6,-1.0,25.0,9.0,-8667.0,-11880.0,-5674.0,-4472.0,-21.0,-17.0,-6.0,2.0,9.0,-10.0,10493.0,11201.0,-2944.0,-4920.0,-8.0,-10.0,-9.0,1.0
2022-05-13 15:48:41.608941-07:00,2063.5,648.9,986.7,1210.6,816.9,1183.2,1621.8,1612.4,3449.1,3449.1,1375.7,1185.0,1197.4,3443.1,1287.3,1381.2,3433.4,3433.4,669.3,1316.9,935.6,517.9,1261.3,1914.4,3438.2,3433.4,927.1,1006.5,1160.3,1338.6,1183.2,1011.6,1.0,-7.0,21.0,-8688.0,-11863.0,-5677.0,-4471.0,-48.0,9.0,-30.0,8.0,0.0,-8.0,10494.0,11200.0,-2939.0,-4922.0,-10.0,13.0,-8.0,1.0
2022-05-13 15:48:41.610852-07:00,2055.4,645.7,990.2,1208.9,821.9,1183.2,1621.8,1612.4,3434.6,3431.0,1378.5,1185.9,1194.7,3443.1,1287.3,1381.2,3433.4,3433.4,669.3,1318.7,939.8,517.9,1249.7,1917.4,3438.2,3433.4,927.1,1004.8,1162.1,1339.5,1180.6,1008.2,0.0,8.0,2.0,-8700.0,-11848.0,-5679.0,-4488.0,-30.0,36.0,0.0,8.0,1.0,-15.0,10496.0,11204.0,-2933.0,-4915.0,-3.0,21.0,2.0,1.0
2022-05-13 15:48:41.611919-07:00,2055.4,645.7,990.2,1208.9,821.0,1177.9,1621.8,1604.0,3434.6,3431.0,1378.5,1185.9,1192.0,3444.3,1288.2,1374.8,3440.7,3437.0,675.0,1317.8,939.8,517.9,1249.7,1917.4,3446.7,3445.5,916.0,1002.2,1162.1,1339.5,1180.6,1008.2,-5.0,2.0,-1.0,-8698.0,-11842.0,-5687.0,-4495.0,8.0,23.0,-15.0,3.0,0.0,-11.0,10494.0,11210.0,-2928.0,-4907.0,17.0,22.0,-12.0,1.0
2022-05-13 15:48:41.789520-07:00,2042.4,637.6,991.0,1208.0,821.0,1177.9,1621.8,1604.0,3443.1,3445.5,1388.5,1190.3,1192.0,3444.3,1288.2,1374.8,3440.7,3437.0,675.0,1317.8,930.5,523.4,1241.7,1908.5,3446.7,3445.5,916.0,1002.2,1169.1,1335.9,1180.6,1008.2,-9.0,-5.0,2.0,-8696.0,-11842.0,-5694.0,-4490.0,3.0,2.0,-16.0,-2.0,-4.0,-14.0,10490.0,11215.0,-2923.0,-4906.0,1.0,5.0,-5.0,1.0
2022-05-13 15:48:41.790747-07:00,2042.4,637.6,991.0,1208.0,834.4,1170.0,1622.8,1622.8,3443.1,3445.5,1388.5,1190.3,1196.5,3431.0,1286.4,1382.1,3441.9,3439.5,668.4,1318.7,930.5,523.4,1241.7,1908.5,3440.7,3439.5,913.5,1003.0,1169.1,1335.9,1180.6,1008.2,-3.0,0.0,7.0,-8698.0,-11841.0,-5693.0,-4491.0,-17.0,7.0,12.0,0.0,-7.0,-17.0,10490.0,11216.0,-2923.0,-4906.0,-14.0,3.0,4.0,1.0
2022-05-13 15:48:41.791857-07:00,2029.4,640.8,983.3,1217.7,834.4,1170.0,1622.8,1622.8,3444.3,3440.7,1383.9,1191.2,1196.5,3431.0,1286.4,1382.1,3441.9,3439.5,668.4,1318.7,930.5,521.0,1231.9,1906.6,3440.7,3439.5,913.5,1003.0,1160.3,1330.5,1182.3,1005.6,-8.0,-6.0,0.0,-8699.0,-11839.0,-5693.0,-4493.0,-3.0,-5.0,2.0,2.0,-11.0,-8.0,10488.0,11217.0,-2923.0,-4905.0,-7.0,-2.0,0.0,1.0
2022-05-13 15:48:41.792920-07:00,2029.4,640.8,983.3,1217.7,819.4,1179.7,1619.0,1619.0,3444.3,3440.7,1383.9,1191.2,1194.7,3435.8,1282.8,1377.5,3449.1,3438.2,669.3,1307.9,930.5,521.0,1231.9,1906.6,3435.8,3441.9,909.3,992.7,1160.3,1330.5,1182.3,1005.6,-4.0,0.0,7.0,-8698.0,-11846.0,-5690.0,-4482.0,5.0,-17.0,-11.0,0.0,1.0,-10.0,10485.0,11221.0,-2925.0,-4903.0,0.0,-2.0,-6.0,1.0
2022-05-13 15:48:41.878953-07:00,2023.4,633.5,988.5,1207.1,819.4,1179.7,1619.0,1623.7,3438.2,3449.1,1392.1,1192.9,1194.7,3435.8,1282.8,1376.6,3433.4,3438.2,669.3,1307.9,934.7,524.2,1231.0,1907.5,3443.1,3441.9,909.3,992.7,1169.1,1334.1,1176.2,995.3,2.0,6.0,6.0,-8702.0,-11843.0,-5688.0,-4483.0,-28.0,-9.0,7.0,3.0,-1.0,-13.0,10486.0,11220.0,-2925.0,-4903.0,-21.0,-8.0,1.0,1.0
2022-05-13 15:48:41.923338-07:00,2032.4,633.5,988.5,1207.1,826.0,1178.8,1624.7,1623.7,3438.2,3449.1,1392.1,1192.9,1199.1,3446.7,1282.8,1376.6,3433.4,3437.0,675.8,1309.7,934.7,524.2,1231.0,1905.6,3443.1,3438.2,912.7,987.6,1169.1,1334.1,1176.2,1001.3,-1.0,12.0,5.0,-8700.0,-11844.0,-5691.0,-4481.0,37.0,-2.0,-6.0,0.0,9.0,-15.0,10484.0,11222.0,-2926.0,-4902.0,15.0,3.0,-6.0,1.0
2022-05-13 15:48:41.968803-07:00,2032.4,643.2,991.0,1217.7,826.0,1178.8,1624.7,1627.5,3438.2,3444.3,1395.7,1185.9,1199.1,3446.7,1282.8,1377.5,3434.6,3437.0,675.8,1309.7,931.3,519.5,1223.0,1905.6,3446.7,3438.2,912.7,987.6,1152.4,1333.2,1174.4,1001.3,-1.0,11.0,-4.0,-8700.0,-11842.0,-5694.0,-4482.0,16.0,9.0,7.0,1.0,6.0,-11.0,10485.0,11221.0,-2925.0,-4901.0,8.0,1.0,2.0,1.0
2022-05-13 15:48:42.013888-07:00,2022.4,643.2,991.0,1217.7,832.7,1165.6,1618.1,1627.5,3441.9,3444.3,1395.7,1185.9,1201.8,3444.3,1277.4,1377.5,3434.6,3438.2,673.3,1302.5,931.3,519.5,1223.0,1891.8,3446.7,3446.7,908.4,986.7,1152.4,1333.2,1174.4,997.0,4.0,6.0,8.0,-8704.0,-11842.0,-5689.0,-4480.0,-12.0,-25.0,-6.0,6.0,6.0,-16.0,10486.0,11221.0,-2925.0,-4901.0,-7.0,-7.0,-7.0,1.0
2022-05-13 15:48:42.058997-07:00,2022.4,635.9,986.7,1212.4,832.7,1165.6,1618.1,1625.6,3441.9,3444.3,1392.1,1205.3,1201.8,3444.3,1277.4,1375.7,3443.1,3438.2,673.3,1302.5,925.4,526.6,1213.3,1891.8,3449.1,3446.7,908.4,986.7,1147.1,1327.8,1177.9,997.0,-5.0,4.0,11.0,-8708.0,-11838.0,-5691.0,-4483.0,-9.0,27.0,-9.0,1.0,0.0,-4.0,10487.0,11221.0,-2924.0,-4899.0,-8.0,13.0,-2.0,1.0
2022-05-13 15:48:42.103839-07:00,2020.4,630.3,986.7,1212.4,824.4,1172.6,1619.9,1625.6,3441.9,3439.5,1392.1,1205.3,1199.1,3441.9,1274.7,1375.7,3443.1,3443.1,683.1,1307.9,925.4,526.6,1211.5,1889.9,3449.1,3440.7,910.1,988.5,1147.1,1327.8,1174.4,995.3,-4.0,8.0,0.0,-8702.0,-11839.0,-5695.0,-4484.0,33.0,-5.0,-1.0,-3.0,4.0,-19.0,10485.0,11225.0,-2921.0,-4895.0,16.0,10.0,-10.0,1.0
2022-05-13 15:48:42.283838-07:00,2020.4,630.3,989.3,1214.2,824.4,1172.6,1625.6,1619.9,3441.9,3439.5,1383.9,1192.0,1199.1,3441.9,1273.0,1371.2,3438.2,3434.6,683.1,1307.9,934.7,516.3,1211.5,1889.9,3444.3,3437.0,910.1,988.5,1160.3,1324.1,1174.4,995.3,-6.0,-2.0,-5.0,-8701.0,-11840.0,-5698.0,-4481.0,11.0,8.0,0.0,-4.0,3.0,-19.0,10482.0,11228.0,-2919.0,-4895.0,7.0,8.0,-3.0,1.0
2022-05-13 15:48:42.285068-07:00,2023.4,635.1,989.3,1214.2,820.2,1167.4,1625.6,1619.9,3449.1,3437.0,1383.9,1192.0,1196.5,3441.9,1273.0,1371.2,3438.2,3434.6,674.2,1308.8,934.7,516.3,1222.2,1890.9,3444.3,3437.0,907.6,987.6,1160.3,1324.1,1174.4,996.2,-1.0,0.0,0.0,-8702.0,-11840.0,-5697.0,-4479.0,6.0,-15.0,1.0,2.0,5.0,-16.0,10479.0,11231.0,-2920.0,-4894.0,2.0,-5.0,-1.0,1.0
2022-05-13 15:48:42.286180-07:00,2023.4,635.1,992.7,1215.1,820.2,1167.4,1616.2,1621.8,3449.1,3437.0,1386.6,1192.0,1196.5,3441.9,1276.5,1367.6,3441.9,3441.9,674.2,1308.8,934.7,523.4,1222.2,1890.9,3447.9,3435.8,907.6,987.6,1163.8,1325.0,1174.4,996.2,3.0,4.0,11.0,-8703.0,-11839.0,-5698.0,-4478.0,-15.0,5.0,-14.0,5.0,0.0,-11.0,10481.0,11230.0,-2920.0,-4894.0,-19.0,-2.0,-3.0,1.0
2022-05-13 15:48:42.328778-07:00,2014.4,633.5,992.7,1215.1,822.7,1171.8,1616.2,1621.8,3435.8,3441.9,1386.6,1192.0,1200.9,3439.5,1276.5,1367.6,3441.9,3441.9,671.7,1311.5,934.7,523.4,1207.1,1906.6,3447.9,3435.8,909.3,985.0,1163.8,1325.0,1179.7,994.5,2.0,0.0,13.0,-8705.0,-11834.0,-5703.0,-4482.0,-6.0,23.0,-11.0,3.0,-2.0,-10.0,10482.0,11229.0,-2920.0,-4893.0,-7.0,8.0,0.0,1.0
2022-05-13 15:48:42.374073-07:00,2014.4,633.5,989.3,1214.2,822.7,1173.5,1619.9,1625.6,3435.8,3441.9,1387.5,1195.6,1200.9,3443.1,1276.5,1366.6,3437.0,3439.5,673.3,1311.5,932.2,519.5,1207.1,1906.6,3433.4,3444.3,911.8,985.0,1163.0,1329.6,1179.7,994.5,-5.0,15.0,-4.0,-8700.0,-11831.0,-5717.0,-4484.0,9.0,10.0,-24.0,0.0,2.0,-13.0,10482.0,11232.0,-2915.0,-4889.0,5.0,16.0,-8.0,1.0
2022-05-13 15:48:42.553269-07:00,2018.4,631.9,989.3,1214.2,825.2,1173.5,1619.9,1625.6,3449.1,3449.1,1386.6,1195.6,1201.8,3443.1,1276.5,1366.6,3437.0,3439.5,673.3,1302.5,932.2,525.0,1210.6,1912.4,3433.4,3444.3,911.8,984.2,1163.0,1322.3,1169.1,986.7,-1.0,-3.0,1.0,-8699.0,-11828.0,-5722.0,-4485.0,-10.0,16.0,-1.0,0.0,0.0,-18.0,10481.0,11233.0,-2914.0,-4888.0,-6.0,9.0,2.0,1.0
2022-05-13 15:48:42.554929-07:00,2018.4,631.9,989.3,1206.2,825.2,1170.9,1611.5,1611.5,3449.1,3449.1,1386.6,1192.0,1201.8,3441.9,1263.1,1377.5,3443.1,3429.8,675.8,1302.5,933.0,525.0,1210.6,1912.4,3447.9,3433.4,904.2,984.2,1160.3,1322.3,1169.1,986.7,-2.0,7.0,0.0,-8698.0,-11825.0,-5728.0,-4489.0,1.0,3.0,-18.0,2.0,0.0,-7.0,10483.0,11232.0,-2913.0,-4888.0,-7.0,4.0,-3.0,1.0
2022-05-13 15:48:42.556897-07:00,2007.4,637.6,994.5,1206.2,822.7,1170.9,1611.5,1611.5,3437.0,3438.2,1387.5,1192.0,1195.6,3441.9,1263.1,1377.5,3443.1,3429.8,675.8,1317.8,933.0,523.4,1207.1,1895.8,3447.9,3433.4,904.2,981.6,1160.3,1325.0,1174.4,990.2,0.0,5.0,5.0,-8697.0,-11830.0,-5726.0,-4480.0,7.0,-13.0,6.0,-1.0,12.0,-12.0,10482.0,11233.0,-2913.0,-4888.0,10.0,-6.0,-4.0,1.0
2022-05-13 15:48:42.558047-07:00,2007.4,637.6,994.5,1208.0,822.7,1168.2,1598.3,1619.0,3437.0,3438.2,1387.5,1196.5,1195.6,3440.7,1279.2,1367.6,3437.0,3438.2,674.2,1317.8,931.3,523.4,1207.1,1895.8,3444.3,3438.2,896.6,981.6,1158.6,1325.0,1174.4,990.2,-2.0,6.0,13.0,-8700.0,-11828.0,-5724.0,-4481.0,7.0,9.0,-4.0,0.0,-2.0,-9.0,10485.0,11231.0,-2912.0,-4889.0,-4.0,1.0,-2.0,1.0
2022-05-13 15:48:42.734316-07:00,2005.5,629.5,995.3,1208.0,825.2,1168.2,1598.3,1619.0,3438.2,3433.4,1390.3,1196.5,1203.5,3440.7,1279.2,1367.6,3437.0,3438.2,674.2,1307.9,931.3,521.8,1210.6,1895.8,3444.3,3438.2,896.6,980.7,1158.6,1320.5,1168.2,992.7,-4.0,-1.0,3.0,-8692.0,-11832.0,-5728.0,-4479.0,18.0,-5.0,-1.0,-2.0,4.0,-15.0,10485.0,11232.0,-2910.0,-4887.0,7.0,7.0,-8.0,1.0
2022-05-13 15:48:42.780128-07:00,2005.5,629.5,995.3,1221.3,822.7,1178.8,1613.4,1627.5,3438.2,3433.4,1390.3,1195.6,1201.8,3440.7,1268.5,1370.3,3438.2,3440.7,674.2,1300.7,931.3,521.8,1210.6,1895.8,3439.5,3438.2,905.9,979.9,1163.0,1320.5,1168.2,992.7,-3.0,1.0,0.0,-8695.0,-11831.0,-5724.0,-4483.0,-4.0,-7.0,13.0,1.0,0.0,-20.0,10487.0,11229.0,-2909.0,-4888.0,-18.0,-12.0,5.0,1.0
2022-05-13 15:48:42.781324-07:00,2006.4,633.5,1001.3,1218.6,822.7,1178.8,1613.4,1627.5,3443.1,3445.5,1380.3,1192.0,1201.8,3440.7,1268.5,1370.3,3438.2,3440.7,674.2,1300.7,929.6,525.0,1207.1,1889.9,3439.5,3438.2,905.9,979.9,1159.4,1325.9,1175.3,986.7,-1.0,6.0,8.0,-8693.0,-11835.0,-5723.0,-4478.0,5.0,-14.0,-3.0,5.0,-3.0,-10.0,10487.0,11229.0,-2909.0,-4888.0,-1.0,-9.0,-5.0,1.0
2022-05-13 15:48:42.782438-07:00,2006.4,633.5,1001.3,1218.6,825.2,1165.6,1603.0,1613.4,3443.1,3445.5,1380.3,1192.0,1198.2,3435.8,1264.9,1373.9,3434.6,3444.3,674.2,1307.0,929.6,525.0,1207.1,1889.9,3446.7,3437.0,905.9,979.0,1159.4,1325.9,1175.3,986.7,-2.0,2.0,9.0,-8695.0,-11832.0,-5722.0,-4482.0,-11.0,17.0,8.0,1.0,2.0,-10.0,10489.0,11228.0,-2909.0,-4889.0,-11.0,-1.0,4.0,1.0
2022-05-13 15:48:42.783543-07:00,1997.5,627.8,994.5,1211.5,825.2,1165.6,1603.0,1613.4,3438.2,3439.5,1382.1,1193.8,1198.2,3435.8,1264.9,1373.9,3434.6,3444.3,674.2,1307.0,933.9,514.7,1200.0,1879.1,3446.7,3437.0,905.9,979.0,1165.6,1324.1,1177.0,988.5,-3.0,8.0,-4.0,-8693.0,-11833.0,-5723.0,-4482.0,11.0,-11.0,-4.0,1.0,4.0,-16.0,10489.0,11228.0,-2909.0,-4889.0,2.0,3.0,-6.0,1.0
2022-05-13 15:48:42.913104-07:00,1997.5,627.8,994.5,1211.5,823.5,1159.4,1604.0,1617.1,3438.2,3439.5,1382.1,1193.8,1202.7,3446.7,1264.9,1376.6,3435.8,3431.0,676.6,1307.0,933.9,514.7,1200.0,1879.1,3438.2,3440.7,894.9,979.0,1165.6,1324.1,1177.0,988.5,-4.0,0.0,6.0,-8687.0,-11837.0,-5727.0,-4478.0,26.0,7.0,-1.0,0.0,1.0,-13.0,10489.0,11228.0,-2909.0,-4889.0,8.0,6.0,-6.0,1.0
2022-05-13 15:48:42.914441-07:00,1998.5,630.3,1001.3,1209.7,823.5,1159.4,1604.0,1608.7,3435.8,3446.7,1383.0,1196.5,1202.7,3446.7,1264.9,1367.6,3437.0,3431.0,676.6,1307.0,931.3,519.5,1201.8,1888.9,3440.7,3440.7,894.9,979.0,1168.2,1324.1,1176.2,989.3,-6.0,-3.0,1.0,-8688.0,-11836.0,-5728.0,-4479.0,-2.0,7.0,1.0,-1.0,-1.0,-15.0,10489.0,11227.0,-2908.0,-4889.0,-2.0,5.0,-2.0,1.0
2022-05-13 15:48:42.959295-07:00,2023.4,630.3,1001.3,1209.7,825.2,1169.1,1602.1,1608.7,3449.1,3446.7,1383.0,1196.5,1197.4,3443.1,1267.6,1367.6,3437.0,3434.6,675.0,1310.6,931.3,519.5,1201.8,1892.8,3440.7,3449.1,905.9,976.5,1168.2,1324.1,1176.2,985.0,1.0,6.0,-1.0,-8685.0,-11840.0,-5728.0,-4475.0,3.0,-15.0,-2.0,1.0,5.0,-19.0,10489.0,11228.0,-2909.0,-4889.0,1.0,-9.0,-5.0,1.0
2022-05-13 15:48:43.003828-07:00,2023.4,629.5,996.2,1210.6,825.2,1169.1,1602.1,1613.4,3449.1,3449.1,1382.1,1190.3,1197.4,3443.1,1267.6,1373.0,3433.4,3434.6,675.0,1310.6,936.4,517.9,1196.5,1892.8,3445.5,3449.1,905.9,976.5,1163.8,1327.8,1168.2,985.0,-1.0,-2.0,7.0,-8685.0,-11841.0,-5726.0,-4473.0,-12.0,0.0,21.0,1.0,2.0,-12.0,10491.0,11226.0,-2909.0,-4890.0,-4.0,-12.0,8.0,1.0
2022-05-13 15:48:43.048959-07:00,1991.5,629.5,996.2,1210.6,829.4,1167.4,1599.3,1613.4,3438.2,3449.1,1382.1,1190.3,1199.1,3449.1,1257.8,1373.0,3433.4,3434.6,673.3,1302.5,936.4,517.9,1196.5,1880.1,3445.5,3444.3,902.5,969.6,1163.8,1327.8,1168.2,987.6,-4.0,9.0,2.0,-8689.0,-11840.0,-5717.0,-4480.0,8.0,-18.0,0.0,3.0,0.0,-11.0,10495.0,11221.0,-2911.0,-4890.0,-2.0,-6.0,1.0,1.0
2022-05-13 15:48:43.094193-07:00,1991.5,623.8,988.5,1212.4,829.4,1167.4,1599.3,1604.0,3438.2,3438.2,1379.4,1187.6,1199.1,3449.1,1257.8,1371.2,3439.5,3434.6,673.3,1302.5,925.4,522.6,1196.5,1880.1,3441.9,3444.3,902.5,969.6,1166.5,1328.7,1171.8,987.6,-3.0,-14.0,6.0,-8691.0,-11842.0,-5716.0,-4474.0,5.0,-7.0,11.0,2.0,-5.0,-16.0,10494.0,11221.0,-2911.0,-4891.0,-3.0,-6.0,2.0,1.0
2022-05-13 15:48:43.139419-07:00,1997.5,627.0,988.5,1212.4,821.0,1165.6,1596.4,1604.0,3445.5,3437.0,1379.4,1187.6,1195.6,3449.1,1255.1,1371.2,3439.5,3439.5,669.3,1312.4,925.4,522.6,1203.5,1886.9,3441.9,3439.5,895.7,972.2,1166.5,1328.7,1174.4,987.6,0.0,13.0,1.0,-8678.0,-11858.0,-5703.0,-4471.0,97.0,-44.0,39.0,-1.0,-5.0,-25.0,10479.0,11232.0,-2922.0,-4890.0,82.0,-15.0,-1.0,1.0
2022-05-13 15:48:43.184368-07:00,1997.5,627.0,991.0,1211.5,821.0,1165.6,1595.5,1608.7,3445.5,3437.0,1376.6,1196.5,1195.6,3449.1,1259.6,1365.7,3440.7,3443.1,669.3,1312.4,936.4,528.2,1203.5,1886.9,3451.6,3438.2,895.7,972.2,1164.7,1320.5,1174.4,987.6,1.0,9.0,6.0,-8666.0,-11875.0,-5699.0,-4454.0,-37.0,-10.0,-6.0,0.0,17.0,-21.0,10469.0,11239.0,-2928.0,-4895.0,-18.0,-16.0,-5.0,1.0
2022-05-13 15:48:43.275557-07:00,1998.5,624.6,991.0,1211.5,817.7,1175.3,1595.5,1608.7,3449.1,3443.1,1376.6,1196.5,1195.6,3443.1,1259.6,1365.7,3440.7,3443.1,670.9,1308.8,936.4,528.2,1193.8,1876.2,3451.6,3438.2,895.7,974.8,1164.7,1320.5,1166.5,983.3,-3.0,25.0,-1.0,-8672.0,-11878.0,-5686.0,-4452.0,-20.0,-45.0,20.0,0.0,16.0,-12.0,10469.0,11233.0,-2934.0,-4904.0,-3.0,-36.0,7.0,1.0
2022-05-13 15:48:43.319281-07:00,1998.5,624.6,991.0,1211.5,817.7,1175.3,1601.1,1604.0,3449.1,3443.1,1381.2,1200.0,1195.6,3443.1,1260.4,1360.3,3441.9,3444.3,670.9,1308.8,933.0,522.6,1193.8,1876.2,3433.4,3441.9,895.7,974.8,1165.6,1319.6,1166.5,983.3,-2.0,8.0,14.0,-8676.0,-11883.0,-5675.0,-4444.0,19.0,-6.0,13.0,2.0,5.0,-14.0,10469.0,11229.0,-2940.0,-4910.0,14.0,-10.0,1.0,1.0
2022-05-13 15:48:43.364797-07:00,2004.5,622.2,991.0,1211.5,821.0,1165.6,1601.1,1604.0,3439.5,3428.6,1381.2,1200.0,1200.9,3437.0,1260.4,1360.3,3441.9,3444.3,675.0,1308.8,933.0,522.6,1191.2,1872.3,3433.4,3441.9,896.6,980.7,1165.6,1319.6,1171.8,984.2,-12.0,-27.0,14.0,-8668.0,-11889.0,-5675.0,-4442.0,99.0,-18.0,27.0,5.0,-25.0,-2.0,10461.0,11236.0,-2943.0,-4908.0,70.0,0.0,-5.0,1.0
2022-05-13 15:48:43.453775-07:00,2004.5,622.2,991.0,1216.8,821.0,1165.6,1602.1,1604.9,3439.5,3428.6,1383.9,1200.0,1200.9,3438.2,1259.6,1368.5,3435.8,3439.5,672.5,1308.8,936.4,523.4,1191.2,1872.3,3439.5,3443.1,898.3,980.7,1161.2,1325.0,1171.8,984.2,-3.0,5.0,8.0,-8650.0,-11906.0,-5675.0,-4434.0,-20.0,12.0,-4.0,1.0,9.0,-21.0,10449.0,11247.0,-2948.0,-4905.0,-9.0,5.0,1.0,1.0
2022-05-13 15:48:43.455741-07:00,1987.5,618.1,994.5,1216.8,817.7,1165.6,1602.1,1604.9,3439.5,3431.0,1381.2,1200.0,1203.5,3438.2,1259.6,1368.5,3435.8,3439.5,672.5,1306.1,936.4,519.5,1188.5,1883.0,3439.5,3443.1,898.3,966.2,1161.2,1320.5,1163.8,987.6,-4.0,6.0,1.0,-8650.0,-11904.0,-5676.0,-4436.0,26.0,-6.0,3.0,0.0,3.0,-14.0,10450.0,11247.0,-2948.0,-4905.0,16.0,-1.0,-3.0,1.0
2022-05-13 15:48:43.496916-07:00,1987.5,618.1,994.5,1210.6,817.7,1162.1,1597.4,1603.0,3439.5,3431.0,1381.2,1196.5,1203.5,3441.9,1260.4,1365.7,3438.2,3434.6,673.3,1306.1,930.5,519.5,1188.5,1883.0,3446.7,3438.2,890.7,966.2,1156.8,1320.5,1163.8,987.6,-2.0,0.0,3.0,-8645.0,-11911.0,-5675.0,-4428.0,10.0,-18.0,2.0,0.0,3.0,-20.0,10447.0,11249.0,-2949.0,-4905.0,0.0,-3.0,-2.0,1.0
2022-05-13 15:48:43.544053-07:00,2011.4,640.8,991.0,1210.6,816.9,1162.1,1597.4,1603.0,3444.3,3441.9,1374.8,1196.5,1205.3,3441.9,1260.4,1365.7,3438.2,3434.6,673.3,1302.5,930.5,521.0,1195.6,1877.2,3446.7,3438.2,890.7,975.6,1156.8,1320.5,1168.2,985.9,0.0,2.0,7.0,-8642.0,-11916.0,-5675.0,-4423.0,9.0,0.0,-4.0,3.0,1.0,-19.0,10447.0,11249.0,-2949.0,-4905.0,1.0,-3.0,-5.0,1.0
2022-05-13 15:48:43.589496-07:00,2011.4,640.8,991.0,1212.4,816.9,1169.1,1592.7,1600.2,3444.3,3441.9,1374.8,1192.0,1205.3,3439.5,1256.0,1372.1,3435.8,3429.8,674.2,1302.5,934.7,521.0,1195.6,1877.2,3435.8,3437.0,892.4,975.6,1158.6,1320.5,1168.2,985.9,-1.0,5.0,9.0,-8642.0,-11917.0,-5674.0,-4421.0,2.0,-5.0,5.0,-1.0,6.0,-18.0,10447.0,11249.0,-2949.0,-4905.0,-1.0,-1.0,0.0,1.0
2022-05-13 15:48:43.679564-07:00,1990.5,630.3,987.6,1212.4,822.7,1169.1,1592.7,1600.2,3440.7,3438.2,1378.5,1192.0,1197.4,3439.5,1256.0,1372.1,3435.8,3429.8,674.2,1306.1,934.7,524.2,1193.8,1884.0,3435.8,3437.0,892.4,967.9,1158.6,1320.5,1168.2,985.9,-4.0,-2.0,7.0,-8642.0,-11917.0,-5674.0,-4421.0,5.0,3.0,-3.0,2.0,4.0,-16.0,10447.0,11249.0,-2949.0,-4905.0,-5.0,3.0,-4.0,1.0
2022-05-13 15:48:43.680739-07:00,1990.5,630.3,987.6,1210.6,821.9,1170.9,1588.9,1607.7,3440.7,3438.2,1378.5,1195.6,1199.1,3441.9,1263.1,1369.4,3437.0,3438.2,671.7,1303.4,926.2,524.2,1193.8,1884.0,3450.4,3454.0,895.7,973.9,1168.2,1320.5,1168.2,985.9,-2.0,9.0,-1.0,-8638.0,-11920.0,-5675.0,-4419.0,14.0,-11.0,-1.0,0.0,6.0,-15.0,10446.0,11250.0,-2950.0,-4904.0,3.0,-3.0,-4.0,1.0
2022-05-13 15:48:43.768856-07:00,1987.5,630.3,997.9,1211.5,821.9,1170.9,1588.9,1607.7,3439.5,3443.1,1375.7,1200.9,1199.1,3441.9,1263.1,1369.4,3437.0,3438.2,671.7,1303.4,928.8,521.8,1195.6,1880.1,3450.4,3454.0,895.7,973.9,1163.0,1322.3,1170.0,983.3,-3.0,16.0,6.0,-8631.0,-11926.0,-5676.0,-4414.0,13.0,0.0,3.0,0.0,10.0,-15.0,10441.0,11255.0,-2952.0,-4903.0,21.0,2.0,-5.0,1.0
2022-05-13 15:48:43.903666-07:00,1987.5,630.3,997.9,1211.5,815.2,1173.5,1598.3,1598.3,3439.5,3443.1,1375.7,1200.9,1197.4,3437.0,1262.2,1367.6,3441.9,3440.7,673.3,1306.1,928.8,521.8,1195.6,1880.1,3440.7,3449.1,899.1,968.8,1163.0,1322.3,1170.0,983.3,-3.0,6.0,5.0,-8632.0,-11926.0,-5675.0,-4415.0,21.0,13.0,11.0,0.0,0.0,-20.0,10442.0,11254.0,-2952.0,-4903.0,16.0,6.0,1.0,1.0
2022-05-13 15:48:43.906625-07:00,1991.5,634.3,1001.3,1209.7,815.2,1173.5,1598.3,1598.3,3443.1,3439.5,1374.8,1192.9,1197.4,3437.0,1262.2,1367.6,3441.9,3440.7,673.3,1306.1,925.4,521.0,1196.5,1885.0,3440.7,3449.1,899.1,968.8,1158.6,1332.3,1175.3,981.6,-6.0,0.0,6.0,-8629.0,-11928.0,-5676.0,-4415.0,3.0,-4.0,-6.0,-1.0,-1.0,-18.0,10441.0,11255.0,-2951.0,-4902.0,8.0,10.0,-6.0,1.0
2022-05-13 15:48:43.949071-07:00,1991.5,634.3,1001.3,1209.7,824.4,1169.1,1591.7,1606.8,3443.1,3439.5,1374.8,1192.9,1193.8,3441.9,1257.8,1373.0,3440.7,3437.0,673.3,1305.2,925.4,521.0,1196.5,1885.0,3440.7,3449.1,892.4,968.8,1158.6,1332.3,1175.3,981.6,-7.0,-1.0,8.0,-8628.0,-11928.0,-5676.0,-4415.0,-1.0,6.0,-4.0,0.0,-11.0,-12.0,10439.0,11259.0,-2948.0,-4898.0,28.0,28.0,-8.0,1.0
2022-05-13 15:48:43.993331-07:00,1991.5,627.0,999.6,1205.3,824.4,1169.1,1591.7,1604.0,3435.8,3438.2,1382.1,1197.4,1193.8,3441.9,1257.8,1431.4,3449.1,3437.0,673.3,1305.2,928.8,521.0,1210.6,1910.5,3447.9,3449.1,892.4,968.8,1156.8,1320.5,1171.8,989.3,26.0,8.0,-2.0,-8644.0,-11915.0,-5681.0,-4413.0,-174.0,-8.0,-83.0,19.0,-1.0,-32.0,10419.0,11287.0,-2939.0,-4881.0,55.0,73.0,-31.0,1.0
2022-05-13 15:48:43.995301-07:00,2044.4,627.0,999.6,1205.3,823.5,1171.8,1588.9,1604.0,3437.0,3438.2,1382.1,1197.4,1203.5,3439.5,1281.9,1431.4,3449.1,3432.2,672.5,1314.2,928.8,521.0,1210.6,1944.0,3447.9,3444.3,921.1,1028.8,1156.8,1320.5,1171.8,1002.2,-11.0,-56.0,37.0,-8758.0,-11836.0,-5651.0,-4439.0,-292.0,-57.0,29.0,6.0,-13.0,-7.0,10396.0,11329.0,-2923.0,-4846.0,110.0,106.0,22.0,1.0
2022-05-13 15:48:44.038662-07:00,2044.4,653.0,995.3,1202.7,823.5,1171.8,1588.9,1613.4,3437.0,3435.8,1405.8,1199.1,1203.5,3439.5,1281.9,1413.1,3438.2,3432.2,672.5,1314.2,923.7,521.8,1430.5,1944.0,3445.5,3444.3,921.1,1028.8,1167.4,1321.4,1171.8,1002.2,-3.0,34.0,-8.0,-8714.0,-11889.0,-5610.0,-4435.0,311.0,-77.0,127.0,0.0,9.0,-21.0,10328.0,11417.0,-2927.0,-4779.0,325.0,151.0,8.0,1.0
2022-05-13 15:48:44.175169-07:00,2032.4,653.0,995.3,1202.7,827.7,1159.4,1627.5,1613.4,3450.4,3435.8,1405.8,1199.1,1189.4,3434.6,1291.8,1413.1,3438.2,3439.5,677.4,1301.6,923.7,521.8,1430.5,1928.2,3445.5,3435.8,905.0,1084.2,1167.4,1321.4,1171.8,991.9,4.0,30.0,-18.0,-8631.0,-11984.0,-5601.0,-4355.0,253.0,-168.0,15.0,-3.0,29.0,-19.0,10255.0,11502.0,-2929.0,-4732.0,153.0,56.0,-11.0,1.0
2022-05-13 15:48:44.219262-07:00,2032.4,688.0,987.6,1213.3,827.7,1159.4,1627.5,1619.9,3450.4,3437.0,1423.1,1209.7,1189.4,3434.6,1291.8,1401.2,3439.5,3439.5,677.4,1301.6,922.0,517.1,1528.3,1928.2,3439.5,3435.8,905.0,1084.2,1168.2,1327.8,1175.3,991.9,-24.0,-12.0,-78.0,-8677.0,-12014.0,-5510.0,-4294.0,-168.0,-438.0,163.0,2.0,-2.0,10.0,10250.0,11505.0,-2935.0,-4731.0,-72.0,-64.0,31.0,1.0
2022-05-13 15:48:44.221487-07:00,2019.4,692.1,987.6,1213.3,825.2,1162.1,1599.3,1619.9,3437.0,3440.7,1423.1,1209.7,1194.7,3443.1,1273.0,1401.2,3439.5,3444.3,672.5,1298.1,922.0,517.1,1609.6,1919.3,3439.5,3444.3,877.2,1108.6,1168.2,1327.8,1167.4,1009.0,19.0,-9.0,15.0,-8849.0,-12027.0,-5300.0,-4169.0,-423.0,-563.0,28.0,-8.0,9.0,-89.0,10306.0,11438.0,-2942.0,-4768.0,-330.0,-120.0,12.0,1.0
2022-05-13 15:48:44.263967-07:00,2019.4,692.1,992.7,1211.5,825.2,1162.1,1585.2,1604.9,3437.0,3440.7,1419.5,1208.0,1194.7,3443.1,1223.0,1391.2,3440.7,3432.2,672.5,1298.1,919.4,523.4,1609.6,1919.3,3443.1,3441.9,877.2,1108.6,1157.7,1323.2,1167.4,1009.0,-8.0,-14.0,52.0,-8989.0,-11991.0,-5186.0,-4118.0,-164.0,-208.0,55.0,1.0,-23.0,4.0,10379.0,11352.0,-2944.0,-4814.0,-156.0,-67.0,27.0,1.0
2022-05-13 15:48:44.308650-07:00,2012.4,697.9,992.7,1211.5,825.2,1176.2,1585.2,1604.9,3444.3,3449.1,1419.5,1208.0,1204.4,3449.1,1223.0,1391.2,3440.7,3432.2,672.5,1291.8,919.4,523.4,1608.7,1920.3,3443.1,3441.9,878.9,1115.6,1157.7,1323.2,1168.2,990.2,8.0,25.0,93.0,-8993.0,-12015.0,-5141.0,-4097.0,68.0,10.0,38.0,8.0,-1.0,1.0,10383.0,11345.0,-2953.0,-4817.0,56.0,16.0,8.0,1.0
2022-05-13 15:48:44.443927-07:00,2012.4,697.9,987.6,1209.7,825.2,1176.2,1596.4,1632.2,3444.3,3449.1,1418.6,1216.8,1204.4,3449.1,1188.5,1373.0,3433.4,3433.4,672.5,1291.8,918.6,526.6,1608.7,1920.3,3439.5,3440.7,878.9,1115.6,1163.0,1321.4,1168.2,990.2,4.0,16.0,38.0,-8965.0,-12000.0,-5186.0,-4146.0,125.0,237.0,-42.0,9.0,4.0,-1.0,10367.0,11378.0,-2939.0,-4781.0,115.0,143.0,-4.0,1.0
2022-05-13 15:48:44.488355-07:00,2007.4,694.6,987.6,1209.7,825.2,1173.5,1596.4,1632.2,3439.5,3437.0,1418.6,1216.8,1198.2,3444.3,1188.5,1373.0,3433.4,3433.4,666.0,1292.7,918.6,526.6,1583.3,1910.5,3439.5,3440.7,867.1,1104.3,1163.0,1321.4,1162.1,1009.0,-15.0,-4.0,-9.0,-8880.0,-12002.0,-5282.0,-4197.0,185.0,265.0,-44.0,0.0,1.0,-14.0,10334.0,11438.0,-2912.0,-4726.0,159.0,150.0,-16.0,1.0
2022-05-13 15:48:44.578949-07:00,2007.4,694.6,997.9,1212.4,825.2,1173.5,1591.7,1628.4,3439.5,3437.0,1422.2,1226.6,1198.2,3444.3,1166.5,1365.7,3434.6,3439.5,666.0,1292.7,916.0,520.3,1583.3,1910.5,3433.4,3438.2,867.1,1104.3,1164.7,1322.3,1162.1,1009.0,-12.0,-9.0,-35.0,-8801.0,-12021.0,-5349.0,-4225.0,145.0,123.0,-4.0,-8.0,10.0,-39.0,10296.0,11496.0,-2895.0,-4679.0,130.0,93.0,-11.0,1.0
2022-05-13 15:48:44.580235-07:00,2002.5,693.8,987.6,1212.4,821.9,1171.8,1591.7,1628.4,3441.9,3443.1,1416.7,1226.6,1203.5,3439.5,1166.5,1365.7,3434.6,3439.5,670.9,1294.5,916.0,523.4,1573.0,1903.6,3433.4,3438.2,861.2,1103.4,1164.7,1319.6,1172.6,991.9,-11.0,-2.0,-31.0,-8757.0,-12039.0,-5374.0,-4232.0,60.0,42.0,12.0,-7.0,-4.0,-41.0,10275.0,11524.0,-2891.0,-4660.0,61.0,26.0,-1.0,1.0
2022-05-13 15:48:44.714162-07:00,2002.5,693.8,987.6,1207.1,821.9,1164.7,1524.5,1606.8,3441.9,3443.1,1416.7,1209.7,1203.5,3454.0,1157.7,1367.6,3438.2,3449.1,670.9,1294.5,917.7,523.4,1573.0,1903.6,3446.7,3443.1,859.5,1103.4,1166.5,1319.6,1172.6,991.9,-1.0,-1.0,-6.0,-8740.0,-12055.0,-5380.0,-4216.0,15.0,-46.0,3.0,0.0,2.0,-25.0,10250.0,11547.0,-2897.0,-4652.0,-2.0,-30.0,2.0,1.0
2022-05-13 15:48:44.715425-07:00,2003.5,682.3,987.6,1207.1,819.4,1164.7,1524.5,1606.8,3441.9,3449.1,1414.9,1209.7,1198.2,3454.0,1157.7,1367.6,3438.2,3449.1,670.9,1293.6,917.7,525.0,1561.8,1892.8,3446.7,3443.1,859.5,1086.8,1166.5,1316.9,1167.4,988.5,-3.0,0.0,15.0,-8750.0,-12062.0,-5362.0,-4197.0,18.0,-74.0,21.0,4.0,0.0,-12.0,10246.0,11545.0,-2906.0,-4661.0,7.0,-35.0,1.0,1.0
2022-05-13 15:48:44.716892-07:00,2003.5,682.3,987.6,1213.3,819.4,1172.6,1504.1,1580.5,3441.9,3449.1,1414.9,1220.4,1198.2,3451.6,1147.1,1368.5,3439.5,3433.4,674.2,1293.6,911.8,525.0,1561.8,1892.8,3444.3,3433.4,862.1,1086.8,1160.3,1316.9,1167.4,988.5,4.0,5.0,24.0,-8753.0,-12070.0,-5347.0,-4189.0,21.0,-15.0,8.0,5.0,2.0,-11.0,10240.0,11545.0,-2915.0,-4667.0,11.0,1.0,-1.0,1.0
2022-05-13 15:48:44.759052-07:00,1993.5,684.8,990.2,1213.3,826.0,1172.6,1504.1,1580.5,3443.1,3433.4,1414.0,1220.4,1196.5,3451.6,1147.1,1368.5,3439.5,3433.4,674.2,1291.8,911.8,521.8,1552.5,1886.9,3444.3,3433.4,862.1,1086.8,1160.3,1316.0,1163.0,991.0,-6.0,11.0,9.0,-8749.0,-12070.0,-5356.0,-4187.0,21.0,23.0,-28.0,-1.0,4.0,-13.0,10234.0,11553.0,-2914.0,-4662.0,16.0,21.0,-13.0,1.0
2022-05-13 15:48:44.803992-07:00,1993.5,684.8,990.2,1211.5,819.4,1161.2,1507.8,1559.9,3443.1,3433.4,1414.0,1210.6,1196.5,3444.3,1137.5,1363.9,3428.6,3428.6,672.5,1292.7,913.5,521.8,1552.5,1886.9,3441.9,3443.1,857.0,1084.2,1162.1,1316.0,1163.0,991.0,-5.0,-7.0,-4.0,-8744.0,-12065.0,-5371.0,-4192.0,15.0,31.0,-1.0,-2.0,4.0,-20.0,10230.0,11561.0,-2909.0,-4655.0,13.0,18.0,-3.0,1.0
2022-05-13 15:48:44.894095-07:00,1987.5,679.1,987.6,1210.6,819.4,1161.2,1507.8,1559.9,3438.2,3435.8,1408.5,1207.1,1196.5,3444.3,1137.5,1363.9,3428.6,3428.6,672.5,1292.7,913.5,521.0,1545.9,1883.0,3441.9,3443.1,857.0,1084.2,1166.5,1316.9,1159.4,987.6,-5.0,1.0,-4.0,-8733.0,-12071.0,-5377.0,-4191.0,36.0,-7.0,5.0,2.0,-5.0,-14.0,10223.0,11569.0,-2910.0,-4651.0,33.0,2.0,-5.0,1.0
2022-05-13 15:48:44.895760-07:00,1987.5,679.1,987.6,1210.6,816.0,1157.7,1493.0,1559.9,3438.2,3435.8,1408.5,1207.1,1194.7,3434.6,1139.2,1363.0,3444.3,3438.2,675.8,1290.0,913.5,521.0,1545.9,1883.0,3449.1,3437.0,847.8,1086.0,1166.5,1316.9,1159.4,987.6,-1.0,5.0,3.0,-8719.0,-12087.0,-5378.0,-4171.0,28.0,-25.0,-16.0,0.0,3.0,-23.0,10205.0,11585.0,-2913.0,-4649.0,10.0,-5.0,-12.0,1.0
2022-05-13 15:48:44.984380-07:00,1982.6,671.7,988.5,1202.7,816.0,1157.7,1493.0,1559.9,3441.9,3440.7,1402.1,1208.9,1194.7,3434.6,1139.2,1363.0,3444.3,3438.2,675.8,1290.0,915.2,520.3,1539.4,1873.2,3449.1,3437.0,847.8,1086.0,1164.7,1307.0,1165.6,989.3,-3.0,-7.0,6.0,-8724.0,-12085.0,-5373.0,-4173.0,-8.0,-2.0,26.0,6.0,-9.0,-13.0,10204.0,11585.0,-2913.0,-4648.0,-9.0,-8.0,10.0,1.0
2022-05-13 15:48:45.208986-07:00,1982.6,671.7,988.5,1202.7,820.2,1161.2,1487.5,1551.5,3441.9,3440.7,1402.1,1208.9,1196.5,3431.0,1140.1,1360.3,3437.0,3444.3,670.9,1286.4,915.2,520.3,1539.4,1873.2,3444.3,3449.1,846.1,1074.7,1164.7,1307.0,1165.6,989.3,0.0,10.0,-1.0,-8716.0,-12093.0,-5374.0,-4165.0,41.0,-26.0,-26.0,5.0,4.0,-16.0,10197.0,11592.0,-2914.0,-4647.0,16.0,-1.0,-16.0,1.0
2022-05-13 15:48:45.210240-07:00,1982.6,675.8,997.0,1211.5,820.2,1161.2,1487.5,1544.1,3440.7,3439.5,1411.3,1209.7,1196.5,3431.0,1140.1,1362.1,3439.5,3444.3,670.9,1286.4,916.0,520.3,1527.3,1878.1,3440.7,3449.1,846.1,1074.7,1160.3,1316.0,1160.3,985.9,-3.0,-5.0,10.0,-8710.0,-12098.0,-5379.0,-4157.0,9.0,10.0,12.0,1.0,0.0,-18.0,10190.0,11598.0,-2915.0,-4646.0,7.0,1.0,6.0,1.0
2022-05-13 15:48:45.211391-07:00,1985.6,675.8,997.0,1211.5,820.2,1156.8,1481.9,1544.1,3444.3,3439.5,1411.3,1209.7,1199.1,3438.2,1132.2,1362.1,3439.5,3439.5,671.7,1290.9,916.0,520.3,1527.3,1868.4,3440.7,3438.2,844.4,1073.8,1160.3,1316.0,1160.3,982.5,-6.0,10.0,0.0,-8709.0,-12098.0,-5376.0,-4165.0,4.0,-3.0,7.0,1.0,-3.0,-13.0,10188.0,11600.0,-2916.0,-4644.0,12.0,3.0,-2.0,1.0
2022-05-13 15:48:45.212482-07:00,1985.6,675.0,989.3,1211.5,820.2,1156.8,1481.9,1542.2,3444.3,3437.0,1412.2,1206.2,1199.1,3438.2,1132.2,1357.6,3439.5,3439.5,671.7,1290.9,914.4,517.9,1532.9,1868.4,3443.1,3438.2,844.4,1073.8,1160.3,1315.1,1162.1,982.5,-2.0,-5.0,7.0,-8701.0,-12106.0,-5379.0,-4152.0,42.0,-18.0,-3.0,0.0,1.0,-19.0,10180.0,11607.0,-2917.0,-4643.0,17.0,-3.0,-5.0,1.0
2022-05-13 15:48:45.254004-07:00,1979.6,675.0,989.3,1211.5,826.9,1155.0,1474.6,1542.2,3444.3,3437.0,1412.2,1206.2,1207.1,3438.2,1134.0,1357.6,3439.5,3433.4,674.2,1288.2,914.4,517.9,1532.9,1876.2,3443.1,3439.5,837.7,1072.9,1160.3,1315.1,1162.1,979.9,-1.0,6.0,0.0,-8697.0,-12108.0,-5373.0,-4163.0,-32.0,22.0,38.0,2.0,0.0,-17.0,10177.0,11611.0,-2920.0,-4640.0,-16.0,-3.0,18.0,1.0
2022-05-13 15:48:45.254626-07:00,1979.6,675.0,989.3,1211.5,826.9,1155.0,1474.6,1542.2,3444.3,3437.0,1412.2,1206.2,1207.1,3438.2,1134.0,1357.6,3439.5,3433.4,674.2,1288.2,914.4,517.9,1532.9,1876.2,3443.1,3439.5,837.7,1072.9,1160.3,1315.1,1162.1,979.9,-1.0,6.0,0.0,-8697.0,-12108.0,-5373.0,-4163.0,-32.0,22.0,38.0,2.0,0.0,-17.0,10177.0,11611.0,-2920.0,-4640.0,-16.0,-3.0,18.0,1.0
2022-05-13 15:48:45.343353-07:00,1979.6,672.5,991.0,1198.2,826.9,1158.6,1479.2,1535.7,3438.2,3441.9,1403.0,1205.3,1192.0,3438.2,1127.0,1354.9,3441.9,3439.5,672.5,1293.6,911.8,525.0,1524.5,1873.2,3439.5,3443.1,843.6,1067.7,1162.1,1319.6,1162.1,982.5,0.0,10.0,2.0,-8681.0,-12126.0,-5371.0,-4145.0,12.0,6.0,3.0,2.0,-5.0,-14.0,10162.0,11624.0,-2924.0,-4635.0,12.0,4.0,0.0,1.0
2022-05-13 15:48:45.433723-07:00,1981.6,663.6,991.0,1198.2,821.9,1157.7,1479.2,1535.7,3440.7,3439.5,1403.0,1205.3,1204.4,3435.8,1127.0,1354.9,3441.9,3439.5,666.0,1290.0,911.8,525.0,1522.7,1856.7,3439.5,3443.1,843.6,1073.8,1162.1,1319.6,1164.7,979.0,-6.0,-4.0,-1.0,-8675.0,-12131.0,-5374.0,-4142.0,22.0,-7.0,-1.0,1.0,0.0,-16.0,10156.0,11630.0,-2926.0,-4632.0,9.0,5.0,-4.0,1.0
2022-05-13 15:48:45.704461-07:00,1981.6,663.6,998.7,1210.6,821.9,1157.7,1460.8,1529.2,3440.7,3439.5,1407.6,1207.1,1204.4,3435.8,1127.9,1354.0,3439.5,3429.8,666.0,1290.0,912.7,525.8,1522.7,1856.7,3440.7,3438.2,843.6,1073.8,1166.5,1316.9,1164.7,979.0,-1.0,2.0,4.0,-8670.0,-12135.0,-5373.0,-4141.0,-1.0,1.0,12.0,1.0,3.0,-17.0,10153.0,11634.0,-2928.0,-4631.0,1.0,-4.0,5.0,1.0
2022-05-13 15:48:45.706055-07:00,1977.6,659.5,998.7,1210.6,817.7,1142.7,1460.8,1529.2,3446.7,3437.0,1407.6,1207.1,1200.0,3439.5,1127.9,1354.0,3439.5,3429.8,672.5,1292.7,912.7,525.8,1514.3,1861.5,3440.7,3438.2,843.6,1069.5,1166.5,1316.9,1155.9,988.5,-4.0,6.0,1.0,-8674.0,-12134.0,-5367.0,-4142.0,-13.0,-25.0,-1.0,2.0,1.0,-10.0,10154.0,11633.0,-2928.0,-4630.0,-16.0,-12.0,-5.0,1.0
2022-05-13 15:48:45.707173-07:00,1977.6,659.5,986.7,1217.7,817.7,1142.7,1455.2,1534.8,3446.7,3437.0,1408.5,1208.0,1200.0,3439.5,1125.2,1349.4,3435.8,3444.3,672.5,1292.7,911.0,526.6,1514.3,1861.5,3441.9,3447.9,843.6,1069.5,1163.8,1317.8,1155.9,988.5,-6.0,-5.0,13.0,-8685.0,-12133.0,-5362.0,-4130.0,-26.0,-21.0,-11.0,-1.0,-1.0,-16.0,10156.0,11628.0,-2927.0,-4637.0,-26.0,-13.0,-4.0,1.0
2022-05-13 15:48:45.794745-07:00,1987.5,666.0,988.5,1217.7,821.0,1139.2,1455.2,1534.8,3438.2,3440.7,1402.1,1208.0,1207.1,3434.6,1125.2,1349.4,3435.8,3444.3,673.3,1288.2,911.0,521.0,1513.4,1873.2,3441.9,3447.9,836.9,1066.9,1163.8,1313.3,1160.3,962.8,-3.0,7.0,0.0,-8691.0,-12129.0,-5354.0,-4136.0,-14.0,-2.0,22.0,0.0,2.0,-12.0,10161.0,11623.0,-2926.0,-4640.0,-7.0,1.0,5.0,1.0
2022-05-13 15:48:46.063616-07:00,1987.5,666.0,988.5,1214.2,821.0,1151.5,1456.2,1530.1,3438.2,3440.7,1402.1,1210.6,1207.1,3441.9,1124.4,1354.9,3443.1,3431.0,675.8,1288.2,910.1,521.0,1513.4,1873.2,3445.5,3440.7,839.4,1066.9,1160.3,1313.3,1160.3,962.8,-3.0,6.0,1.0,-8685.0,-12134.0,-5356.0,-4133.0,41.0,-8.0,-11.0,3.0,5.0,-15.0,10158.0,11626.0,-2927.0,-4638.0,11.0,0.0,-7.0,1.0
2022-05-13 15:48:46.064486-07:00,1987.5,666.0,988.5,1214.2,821.0,1151.5,1456.2,1530.1,3438.2,3440.7,1402.1,1210.6,1207.1,3441.9,1124.4,1354.9,3443.1,3431.0,675.8,1288.2,910.1,521.0,1513.4,1873.2,3445.5,3440.7,839.4,1066.9,1160.3,1313.3,1160.3,962.8,-3.0,6.0,1.0,-8685.0,-12134.0,-5356.0,-4133.0,41.0,-8.0,-11.0,3.0,5.0,-15.0,10158.0,11626.0,-2927.0,-4638.0,11.0,0.0,-7.0,1.0
2022-05-13 15:48:46.065649-07:00,1969.7,666.8,987.6,1205.3,825.2,1148.9,1456.2,1521.8,3439.5,3432.2,1400.3,1207.1,1198.2,3439.5,1123.5,1357.6,3441.9,3434.6,678.2,1286.4,912.7,524.2,1511.5,1855.7,3439.5,3435.8,834.4,1066.9,1161.2,1320.5,1163.0,979.0,-1.0,7.0,0.0,-8684.0,-12138.0,-5351.0,-4131.0,-15.0,-3.0,-5.0,3.0,1.0,-18.0,10163.0,11622.0,-2925.0,-4639.0,-10.0,4.0,-4.0,1.0
2022-05-13 15:48:46.154922-07:00,1980.6,666.8,986.7,1206.2,825.2,1148.9,1456.2,1521.8,3437.0,3433.4,1393.0,1207.1,1198.2,3439.5,1123.5,1357.6,3441.9,3434.6,678.2,1286.4,911.0,523.4,1503.2,1856.7,3439.5,3435.8,834.4,1066.9,1163.0,1316.0,1162.1,980.7,-4.0,5.0,5.0,-8686.0,-12136.0,-5351.0,-4132.0,13.0,-3.0,8.0,0.0,5.0,-13.0,10164.0,11621.0,-2924.0,-4640.0,-1.0,2.0,-2.0,1.0
2022-05-13 15:48:46.333642-07:00,1980.6,666.8,986.7,1206.2,821.0,1150.6,1455.2,1523.6,3437.0,3433.4,1393.0,1207.1,1196.5,3446.7,1120.9,1354.9,3428.6,3443.1,672.5,1281.0,911.0,523.4,1503.2,1856.7,3433.4,3443.1,865.4,1056.5,1163.0,1316.0,1162.1,980.7,-5.0,15.0,0.0,-8692.0,-12132.0,-5349.0,-4133.0,-66.0,-21.0,-22.0,1.0,3.0,-15.0,10171.0,11615.0,-2921.0,-4642.0,-52.0,-12.0,-13.0,1.0
2022-05-13 15:48:46.378046-07:00,1971.7,661.1,994.5,1213.3,821.0,1150.6,1455.2,1523.6,3447.9,3447.9,1398.5,1207.1,1196.5,3446.7,1120.9,1354.9,3428.6,3443.1,672.5,1281.0,911.0,521.0,1515.3,1857.6,3433.4,3443.1,865.4,1056.5,1168.2,1312.4,1156.8,975.6,-2.0,-12.0,5.0,-8713.0,-12121.0,-5343.0,-4129.0,7.0,-19.0,14.0,3.0,-6.0,-20.0,10180.0,11606.0,-2917.0,-4647.0,2.0,-7.0,6.0,1.0
2022-05-13 15:48:46.378875-07:00,1971.7,661.1,994.5,1213.3,821.0,1150.6,1455.2,1523.6,3447.9,3447.9,1398.5,1207.1,1196.5,3446.7,1120.9,1354.9,3428.6,3443.1,672.5,1281.0,911.0,521.0,1515.3,1857.6,3433.4,3443.1,865.4,1056.5,1168.2,1312.4,1156.8,975.6,-2.0,-12.0,5.0,-8713.0,-12121.0,-5343.0,-4129.0,7.0,-19.0,14.0,3.0,-6.0,-20.0,10180.0,11606.0,-2917.0,-4647.0,2.0,-7.0,6.0,1.0
2022-05-13 15:48:46.382487-07:00,1970.7,663.6,988.5,1210.6,825.2,1147.1,1463.5,1519.0,3440.7,3440.7,1395.7,1202.7,1198.2,3432.2,1120.0,1349.4,3439.5,3441.9,672.5,1281.9,908.4,525.0,1511.5,1853.7,3443.1,3441.9,837.7,1054.8,1162.1,1315.1,1167.4,980.7,-8.0,-1.0,0.0,-8705.0,-12130.0,-5337.0,-4127.0,-19.0,-1.0,-2.0,-2.0,-4.0,-17.0,10181.0,11605.0,-2916.0,-4647.0,-11.0,-4.0,-3.0,1.0
2022-05-13 15:48:46.383723-07:00,1966.7,663.6,988.5,1210.6,828.5,1148.9,1444.2,1519.0,3445.5,3440.7,1395.7,1202.7,1199.1,3440.7,1117.4,1349.4,3439.5,3435.8,669.3,1277.4,908.4,525.0,1511.5,1846.9,3443.1,3435.8,835.2,1056.5,1162.1,1315.1,1167.4,979.0,-3.0,3.0,1.0,-8707.0,-12129.0,-5336.0,-4129.0,-4.0,0.0,3.0,3.0,0.0,-13.0,10182.0,11604.0,-2916.0,-4648.0,-12.0,-3.0,-3.0,1.0
2022-05-13 15:48:46.424371-07:00,1966.7,649.7,985.0,1209.7,828.5,1148.9,1444.2,1516.2,3445.5,3441.9,1400.3,1200.9,1199.1,3440.7,1117.4,1352.1,3435.8,3435.8,669.3,1277.4,911.0,525.8,1506.0,1846.9,3438.2,3435.8,835.2,1056.5,1163.0,1317.8,1158.6,979.0,0.0,3.0,5.0,-8708.0,-12130.0,-5334.0,-4126.0,2.0,-9.0,2.0,3.0,-1.0,-17.0,10183.0,11603.0,-2916.0,-4648.0,-9.0,0.0,-6.0,1.0
2022-05-13 15:48:46.425282-07:00,1966.7,649.7,985.0,1209.7,828.5,1148.9,1444.2,1516.2,3445.5,3441.9,1400.3,1200.9,1199.1,3440.7,1117.4,1352.1,3435.8,3435.8,669.3,1277.4,911.0,525.8,1506.0,1846.9,3438.2,3435.8,835.2,1056.5,1163.0,1317.8,1158.6,979.0,0.0,3.0,5.0,-8708.0,-12130.0,-5334.0,-4126.0,2.0,-9.0,2.0,3.0,-1.0,-17.0,10183.0,11603.0,-2916.0,-4648.0,-9.0,0.0,-6.0,1.0
2022-05-13 15:48:46.426421-07:00,1965.7,654.6,987.6,1207.1,820.2,1142.7,1441.5,1514.3,3433.4,3428.6,1396.7,1207.1,1199.1,3437.0,1117.4,1355.8,3429.8,3435.8,671.7,1282.8,905.9,521.0,1504.1,1846.9,3433.4,3438.2,838.6,1058.2,1160.3,1316.0,1155.9,979.0,-6.0,0.0,-8.0,-8700.0,-12127.0,-5344.0,-4136.0,-22.0,0.0,7.0,0.0,-6.0,-22.0,10187.0,11606.0,-2906.0,-4640.0,-3.0,-9.0,-2.0,1.0
2022-05-13 15:48:46.469395-07:00,1966.7,657.9,987.6,1207.1,825.2,1145.4,1441.5,1514.3,3439.5,3439.5,1396.7,1207.1,1197.4,3438.2,1117.4,1355.8,3429.8,3435.8,669.3,1290.0,905.9,521.0,1501.4,1846.9,3433.4,3438.2,831.9,1056.5,1160.3,1316.0,1159.4,973.1,0.0,5.0,10.0,-8700.0,-12132.0,-5340.0,-4128.0,9.0,-27.0,2.0,0.0,6.0,-12.0,10186.0,11604.0,-2909.0,-4643.0,-11.0,-16.0,2.0,1.0
2022-05-13 15:48:46.658272-07:00,1966.7,657.9,987.6,1208.9,825.2,1145.4,1441.5,1506.9,3439.5,3439.5,1393.0,1200.9,1197.4,3438.2,1111.2,1351.2,3434.6,3433.4,669.3,1290.0,911.0,522.6,1501.4,1846.9,3433.4,3434.6,831.9,1056.5,1164.7,1318.7,1159.4,973.1,-1.0,5.0,10.0,-8707.0,-12129.0,-5333.0,-4131.0,-26.0,5.0,13.0,4.0,0.0,-14.0,10191.0,11599.0,-2909.0,-4646.0,-8.0,-2.0,1.0,1.0
2022-05-13 15:48:46.667615-07:00,1961.8,660.3,990.2,1208.9,821.0,1147.1,1441.5,1506.9,3444.3,3426.2,1402.1,1200.9,1188.5,3450.4,1111.2,1351.2,3434.6,3433.4,674.2,1280.1,911.0,520.3,1504.1,1849.8,3433.4,3434.6,835.2,1055.6,1164.7,1316.9,1158.6,973.1,-4.0,2.0,7.0,-8708.0,-12128.0,-5333.0,-4132.0,10.0,9.0,1.0,4.0,0.0,-16.0,10191.0,11599.0,-2909.0,-4646.0,1.0,5.0,-2.0,1.0
2022-05-13 15:48:46.670017-07:00,1961.8,660.3,990.2,1207.1,821.0,1139.2,1442.4,1508.8,3444.3,3426.2,1402.1,1202.7,1188.5,3434.6,1116.5,1354.0,3433.4,3439.5,672.5,1280.1,909.3,520.3,1504.1,1849.8,3449.1,3444.3,828.5,1055.6,1160.3,1316.9,1158.6,973.1,-4.0,9.0,-3.0,-8708.0,-12128.0,-5333.0,-4133.0,-2.0,2.0,-9.0,-1.0,5.0,-18.0,10191.0,11599.0,-2909.0,-4646.0,-9.0,3.0,-7.0,1.0
2022-05-13 15:48:46.886982-07:00,1963.7,662.7,987.6,1207.1,817.7,1139.2,1442.4,1508.8,3435.8,3438.2,1395.7,1202.7,1195.6,3434.6,1116.5,1354.0,3433.4,3439.5,672.5,1284.6,909.3,521.0,1497.7,1843.0,3449.1,3444.3,828.5,1053.0,1160.3,1316.0,1156.8,975.6,-3.0,-8.0,3.0,-8714.0,-12123.0,-5333.0,-4133.0,-38.0,1.0,-1.0,0.0,-6.0,-24.0,10198.0,11592.0,-2907.0,-4649.0,-39.0,-13.0,0.0,1.0
2022-05-13 15:48:46.889166-07:00,1963.7,662.7,987.6,1211.5,817.7,1141.0,1439.6,1511.5,3435.8,3438.2,1395.7,1205.3,1195.6,3445.5,1112.1,1355.8,3441.9,3433.4,673.3,1284.6,908.4,521.0,1497.7,1843.0,3439.5,3439.5,827.7,1053.0,1161.2,1316.0,1156.8,975.6,-3.0,13.0,10.0,-8711.0,-12122.0,-5335.0,-4139.0,-9.0,24.0,-6.0,1.0,4.0,-16.0,10209.0,11581.0,-2905.0,-4655.0,-63.0,-20.0,4.0,1.0
2022-05-13 15:48:46.891832-07:00,1973.7,661.9,985.9,1211.5,825.2,1141.0,1439.6,1511.5,3447.9,3433.4,1392.1,1205.3,1198.2,3445.5,1112.1,1355.8,3441.9,3433.4,673.3,1281.0,908.4,522.6,1500.4,1835.2,3439.5,3439.5,827.7,1051.3,1161.2,1315.1,1161.2,969.6,-3.0,-18.0,17.0,-8693.0,-12116.0,-5369.0,-4152.0,138.0,142.0,-38.0,2.0,-1.0,-10.0,10233.0,11554.0,-2903.0,-4668.0,-61.0,-31.0,12.0,1.0
2022-05-13 15:48:46.892997-07:00,1973.7,661.9,985.9,1208.0,825.2,1152.4,1456.2,1505.1,3447.9,3433.4,1392.1,1202.7,1198.2,3437.0,1140.1,1351.2,3431.0,3433.4,673.3,1281.0,909.3,522.6,1500.4,1835.2,3438.2,3438.2,829.4,1051.3,1160.3,1315.1,1161.2,969.6,-6.0,61.0,74.0,-8620.0,-12114.0,-5430.0,-4229.0,-38.0,409.0,67.0,-4.0,34.0,-23.0,10252.0,11527.0,-2921.0,-4684.0,-175.0,-102.0,37.0,1.0
2022-05-13 15:48:46.894178-07:00,1967.7,675.8,985.0,1209.7,824.4,1152.4,1456.2,1505.1,3439.5,3440.7,1412.2,1199.1,1197.4,3437.0,1140.1,1351.2,3431.0,3433.4,673.3,1285.5,909.3,522.6,1480.1,1842.0,3438.2,3438.2,829.4,1050.4,1162.1,1316.0,1163.0,978.2,-3.0,-2.0,-7.0,-8620.0,-11998.0,-5529.0,-4427.0,-247.0,479.0,-105.0,17.0,-36.0,-2.0,10360.0,11421.0,-2894.0,-4722.0,-333.0,-33.0,-7.0,1.0
2022-05-13 15:48:46.919282-07:00,1967.7,675.8,985.0,1209.7,825.2,1153.3,1545.0,1555.3,3439.5,3440.7,1412.2,1199.1,1199.1,3433.4,1271.2,1377.5,3439.5,3439.5,666.8,1297.2,909.3,522.6,1480.1,1842.0,3438.2,3439.5,816.9,1041.8,1162.1,1316.0,1163.0,978.2,-4.0,-17.0,2.0,-8558.0,-11947.0,-5689.0,-4483.0,259.0,340.0,-230.0,-4.0,3.0,-28.0,10397.0,11386.0,-2854.0,-4748.0,-92.0,12.0,-72.0,1.0
2022-05-13 15:48:47.053988-07:00,1971.7,659.5,989.3,1213.3,825.2,1153.3,1545.0,1555.3,3440.7,3441.9,1428.6,1195.6,1199.1,3433.4,1271.2,1377.5,3439.5,3439.5,666.8,1297.2,914.4,522.6,1455.2,1844.0,3438.2,3439.5,816.9,1041.8,1163.0,1325.0,1160.3,974.8,1.0,-83.0,55.0,-8456.0,-11921.0,-5811.0,-4589.0,52.0,519.0,239.0,9.0,14.0,-35.0,10401.0,11383.0,-2846.0,-4752.0,44.0,-17.0,66.0,1.0
2022-05-13 15:48:47.055189-07:00,1971.7,659.5,989.3,1213.3,821.0,1170.9,1594.6,1574.9,3440.7,3441.9,1428.6,1195.6,1196.5,3444.3,1383.9,1423.1,3449.1,3443.1,670.9,1346.7,914.4,522.6,1455.2,1844.0,3441.9,3451.6,829.4,1031.4,1163.0,1325.0,1160.3,974.8,22.0,57.0,-70.0,-8392.0,-11855.0,-5729.0,-4964.0,-390.0,535.0,720.0,6.0,-14.0,7.0,10473.0,11335.0,-2881.0,-4688.0,-173.0,84.0,257.0,1.0
2022-05-13 15:48:47.098610-07:00,2043.4,659.5,991.9,1210.6,821.0,1170.9,1594.6,1574.9,3447.9,3435.8,1404.0,1191.2,1196.5,3444.3,1383.9,1423.1,3449.1,3443.1,670.9,1346.7,926.2,522.6,1417.6,1843.0,3441.9,3451.6,829.4,1031.4,1166.5,1325.0,1170.0,976.5,19.0,140.0,-104.0,-8358.0,-11866.0,-5588.0,-5151.0,-68.0,-53.0,173.0,-1.0,16.0,-46.0,10502.0,11321.0,-2903.0,-4642.0,-20.0,-30.0,18.0,1.0
2022-05-13 15:48:47.279426-07:00,2078.5,659.5,991.9,1210.6,829.4,1181.5,1597.4,1544.1,3433.4,3435.8,1404.0,1191.2,1200.9,3435.8,1364.8,1421.3,3441.9,3444.3,667.6,1373.0,926.2,522.6,1417.6,1863.5,3446.7,3438.2,817.7,1026.3,1166.5,1325.0,1170.0,992.7,-17.0,-69.0,-14.0,-8402.0,-11881.0,-5562.0,-5074.0,24.0,-248.0,-21.0,-11.0,-3.0,-32.0,10504.0,11300.0,-2903.0,-4689.0,-18.0,-100.0,-55.0,1.0
2022-05-13 15:48:47.281835-07:00,2078.5,653.8,1001.3,1209.7,829.4,1181.5,1597.4,1534.8,3433.4,3439.5,1398.5,1190.3,1200.9,3435.8,1364.8,1393.9,3440.7,3444.3,667.6,1373.0,934.7,521.8,1401.2,1863.5,3440.7,3438.2,817.7,1026.3,1162.1,1324.1,1164.7,992.7,0.0,30.0,13.0,-8428.0,-11908.0,-5492.0,-5043.0,-63.0,-130.0,81.0,0.0,14.0,-10.0,10499.0,11285.0,-2932.0,-4717.0,-45.0,-97.0,30.0,1.0
2022-05-13 15:48:47.283020-07:00,2050.4,653.8,1001.3,1209.7,825.2,1181.5,1563.7,1534.8,3439.5,3439.5,1398.5,1190.3,1200.0,3443.1,1338.6,1393.9,3440.7,3444.3,674.2,1374.8,934.7,521.8,1401.2,1856.7,3440.7,3444.3,831.1,1035.7,1162.1,1324.1,1164.7,1003.0,-2.0,19.0,29.0,-8455.0,-11914.0,-5472.0,-5008.0,23.0,-98.0,-61.0,10.0,6.0,3.0,10502.0,11269.0,-2945.0,-4741.0,0.0,-45.0,-39.0,1.0
2022-05-13 15:48:47.284164-07:00,2050.4,645.7,1011.6,1222.2,825.2,1181.5,1563.7,1525.5,3439.5,3449.1,1402.1,1190.3,1200.0,3443.1,1338.6,1383.0,3433.4,3444.3,674.2,1374.8,932.2,522.6,1389.4,1856.7,3443.1,3444.3,831.1,1035.7,1167.4,1313.3,1167.4,1003.0,0.0,-13.0,35.0,-8464.0,-11919.0,-5467.0,-4985.0,-4.0,-5.0,24.0,6.0,2.0,-18.0,10497.0,11269.0,-2946.0,-4752.0,14.0,-2.0,-5.0,1.0
2022-05-13 15:48:47.324457-07:00,2050.4,645.7,1011.6,1222.2,821.0,1174.4,1563.7,1525.5,3439.5,3449.1,1402.1,1190.3,1200.0,3439.5,1318.7,1383.0,3433.4,3434.6,670.9,1367.6,932.2,522.6,1389.4,1849.8,3443.1,3433.4,838.6,1005.6,1167.4,1313.3,1167.4,1002.2,0.0,12.0,4.0,-8474.0,-11898.0,-5471.0,-5012.0,-80.0,79.0,-25.0,0.0,5.0,-13.0,10501.0,11269.0,-2946.0,-4745.0,-31.0,20.0,10.0,1.0
2022-05-13 15:48:47.413834-07:00,2050.4,640.0,1011.6,1210.6,821.0,1174.4,1562.7,1525.5,3439.5,3433.4,1400.3,1199.1,1200.0,3439.5,1308.8,1380.3,3433.4,3437.0,670.9,1367.6,929.6,523.4,1379.4,1849.8,3435.8,3438.2,838.6,1005.6,1166.5,1320.5,1172.6,1002.2,-8.0,-13.0,5.0,-8504.0,-11861.0,-5476.0,-5046.0,-143.0,80.0,14.0,-2.0,-1.0,-26.0,10512.0,11261.0,-2938.0,-4742.0,-53.0,0.0,16.0,1.0
2022-05-13 15:48:47.458786-07:00,2045.4,632.7,1011.6,1210.6,816.0,1180.6,1562.7,1525.5,3441.9,3434.6,1400.3,1199.1,1195.6,3439.5,1308.8,1380.3,3433.4,3437.0,674.2,1366.6,929.6,523.4,1369.4,1849.8,3435.8,3438.2,836.9,1005.6,1166.5,1320.5,1165.6,1000.5,-22.0,-48.0,0.0,-8517.0,-11828.0,-5450.0,-5127.0,-56.0,82.0,163.0,4.0,-16.0,-4.0,10537.0,11245.0,-2938.0,-4726.0,-51.0,39.0,64.0,1.0
2022-05-13 15:48:47.549234-07:00,2045.4,632.7,1015.1,1216.0,816.0,1180.6,1571.1,1552.5,3441.9,3434.6,1389.4,1193.8,1195.6,3439.5,1310.6,1374.8,3432.2,3437.0,674.2,1366.6,934.7,520.3,1369.4,1849.8,3428.6,3438.2,836.9,1005.6,1163.0,1316.9,1165.6,1000.5,1.0,45.0,-13.0,-8499.0,-11842.0,-5436.0,-5139.0,7.0,-16.0,-49.0,2.0,7.0,-19.0,10530.0,11255.0,-2944.0,-4711.0,16.0,0.0,-13.0,1.0
2022-05-13 15:48:47.550464-07:00,2050.4,628.6,1015.1,1216.0,823.5,1179.7,1571.1,1552.5,3444.3,3440.7,1389.4,1193.8,1198.2,3444.3,1310.6,1374.8,3432.2,3437.0,675.0,1367.6,934.7,520.3,1363.9,1845.0,3428.6,3438.2,829.4,1004.8,1163.0,1316.9,1169.1,1006.5,-10.0,-15.0,16.0,-8498.0,-11842.0,-5445.0,-5131.0,2.0,15.0,21.0,0.0,0.0,-14.0,10526.0,11259.0,-2939.0,-4716.0,4.0,2.0,-3.0,1.0
2022-05-13 15:48:47.594698-07:00,2050.4,628.6,1011.6,1209.7,823.5,1179.7,1579.6,1559.0,3444.3,3440.7,1393.0,1192.0,1198.2,3444.3,1294.5,1359.4,3439.5,3438.2,675.0,1367.6,932.2,521.8,1363.9,1845.0,3432.2,3433.4,829.4,1004.8,1163.0,1317.8,1169.1,1006.5,-3.0,14.0,-4.0,-8492.0,-11848.0,-5439.0,-5134.0,42.0,-18.0,3.0,1.0,8.0,-21.0,10524.0,11262.0,-2941.0,-4712.0,30.0,6.0,-5.0,1.0
2022-05-13 15:48:47.638787-07:00,2007.4,631.9,1014.2,1209.7,823.5,1173.5,1579.6,1559.0,3440.7,3444.3,1401.2,1192.0,1193.8,3438.2,1294.5,1359.4,3439.5,3438.2,672.5,1370.3,932.2,525.8,1368.5,1842.0,3432.2,3433.4,826.9,1006.5,1163.0,1317.8,1172.6,997.9,-11.0,-13.0,5.0,-8493.0,-11844.0,-5450.0,-5132.0,3.0,28.0,-7.0,-3.0,-2.0,-14.0,10515.0,11270.0,-2940.0,-4713.0,-4.0,9.0,-9.0,1.0
2022-05-13 15:48:47.728490-07:00,2007.4,631.9,1014.2,1221.3,823.5,1170.9,1584.2,1575.8,3440.7,3444.3,1401.2,1187.6,1193.8,3437.0,1285.5,1368.5,3433.4,3444.3,676.6,1370.3,927.1,525.8,1368.5,1842.0,3440.7,3440.7,828.5,1006.5,1166.5,1317.8,1172.6,997.9,-11.0,6.0,-8.0,-8485.0,-11844.0,-5451.0,-5141.0,14.0,0.0,20.0,1.0,6.0,-12.0,10515.0,11272.0,-2941.0,-4707.0,8.0,6.0,8.0,1.0
2022-05-13 15:48:47.730247-07:00,2025.4,633.5,1009.9,1221.3,817.7,1170.9,1584.2,1575.8,3443.1,3437.0,1399.4,1187.6,1199.1,3437.0,1285.5,1368.5,3433.4,3444.3,676.6,1364.8,927.1,520.3,1360.3,1837.2,3440.7,3440.7,828.5,1001.3,1166.5,1317.8,1171.8,995.3,-6.0,1.0,0.0,-8487.0,-11845.0,-5448.0,-5139.0,-13.0,4.0,4.0,0.0,3.0,-14.0,10511.0,11276.0,-2943.0,-4706.0,-2.0,0.0,-1.0,1.0
2022-05-13 15:48:47.773490-07:00,2025.4,633.5,1009.9,1213.3,817.7,1163.8,1580.5,1573.0,3443.1,3437.0,1399.4,1188.5,1199.1,3435.8,1276.5,1368.5,3437.0,3437.0,677.4,1364.8,931.3,520.3,1360.3,1837.2,3444.3,3439.5,822.7,1001.3,1164.7,1317.8,1171.8,995.3,-7.0,2.0,-3.0,-8492.0,-11843.0,-5442.0,-5143.0,-7.0,0.0,18.0,2.0,1.0,-12.0,10511.0,11276.0,-2943.0,-4705.0,-8.0,-3.0,10.0,1.0
2022-05-13 15:48:47.954244-07:00,2025.4,626.2,1011.6,1213.3,816.9,1163.8,1580.5,1573.0,3444.3,3434.6,1393.9,1188.5,1192.9,3435.8,1276.5,1368.5,3437.0,3437.0,677.4,1358.5,931.3,521.8,1353.1,1840.1,3444.3,3439.5,822.7,995.3,1164.7,1315.1,1170.0,994.5,-7.0,2.0,-5.0,-8488.0,-11848.0,-5441.0,-5137.0,34.0,-29.0,6.0,4.0,3.0,-18.0,10508.0,11279.0,-2946.0,-4704.0,14.0,-13.0,-6.0,1.0
2022-05-13 15:48:48.089354-07:00,2025.4,626.2,1011.6,1217.7,816.9,1165.6,1575.8,1573.9,3444.3,3434.6,1393.9,1186.7,1192.9,3438.2,1266.7,1368.5,3434.6,3429.8,671.7,1358.5,927.9,521.8,1353.1,1840.1,3454.0,3439.5,811.0,995.3,1162.1,1315.1,1170.0,994.5,-9.0,-5.0,2.0,-8494.0,-11848.0,-5437.0,-5135.0,-46.0,2.0,8.0,4.0,-2.0,-13.0,10508.0,11277.0,-2949.0,-4705.0,-39.0,-10.0,11.0,1.0
2022-05-13 15:48:48.092046-07:00,2018.4,621.4,1011.6,1221.3,817.7,1165.6,1575.8,1573.9,3438.2,3437.0,1389.4,1191.2,1198.2,3438.2,1266.7,1368.5,3434.6,3429.8,671.7,1366.6,927.9,529.8,1346.7,1850.8,3454.0,3439.5,811.0,993.6,1163.0,1308.8,1167.4,986.7,-4.0,7.0,5.0,-8500.0,-11845.0,-5428.0,-5140.0,-5.0,-14.0,10.0,7.0,-5.0,-9.0,10512.0,11272.0,-2952.0,-4707.0,-14.0,-11.0,8.0,1.0
2022-05-13 15:48:48.093240-07:00,2018.4,621.4,1011.6,1221.3,816.9,1163.0,1577.7,1568.3,3438.2,3437.0,1389.4,1191.2,1193.8,3435.8,1275.6,1360.3,3449.1,3435.8,670.1,1362.1,927.9,529.8,1346.7,1850.8,3438.2,3444.3,821.9,997.9,1163.0,1308.8,1167.4,986.7,-2.0,16.0,13.0,-8499.0,-11846.0,-5429.0,-5137.0,-18.0,26.0,-19.0,6.0,7.0,-4.0,10511.0,11274.0,-2952.0,-4704.0,-8.0,13.0,-6.0,1.0
2022-05-13 15:48:48.134649-07:00,2014.4,616.5,1009.9,1219.5,816.9,1163.0,1577.7,1568.3,3441.9,3449.1,1385.7,1187.6,1193.8,3435.8,1275.6,1360.3,3449.1,3435.8,670.1,1362.1,927.9,522.6,1339.5,1833.3,3438.2,3444.3,821.9,997.9,1163.0,1290.0,1165.6,991.0,-11.0,3.0,-5.0,-8500.0,-11838.0,-5438.0,-5147.0,26.0,19.0,9.0,-1.0,5.0,-13.0,10516.0,11276.0,-2944.0,-4696.0,10.0,29.0,1.0,1.0
2022-05-13 15:48:48.179502-07:00,2014.4,616.5,1009.9,1219.5,817.7,1175.3,1585.2,1567.4,3441.9,3449.1,1385.7,1187.6,1192.0,3438.2,1276.5,1363.9,3434.6,3440.7,670.9,1358.5,927.9,522.6,1339.5,1833.3,3441.9,3444.3,818.5,990.2,1163.0,1290.0,1165.6,991.0,-14.0,-5.0,-15.0,-8496.0,-11838.0,-5444.0,-5146.0,11.0,0.0,-9.0,-4.0,-5.0,-20.0,10513.0,11281.0,-2941.0,-4691.0,-3.0,5.0,-5.0,1.0
2022-05-13 15:48:48.314368-07:00,2017.4,618.9,1014.2,1215.1,833.6,1163.0,1579.6,1563.7,3439.5,3449.1,1383.0,1192.0,1195.6,3444.3,1276.5,1363.9,3434.6,3437.0,670.1,1360.3,923.7,525.0,1324.1,1842.0,3443.1,3445.5,831.9,993.6,1161.2,1301.6,1166.5,987.6,-2.0,4.0,-2.0,-8495.0,-11844.0,-5442.0,-5135.0,2.0,-46.0,4.0,1.0,-1.0,-16.0,10505.0,11286.0,-2947.0,-4693.0,-2.0,-24.0,0.0,1.0
2022-05-13 15:48:48.315575-07:00,2017.4,619.7,1014.2,1219.5,833.6,1163.0,1579.6,1559.0,3439.5,3445.5,1390.3,1192.0,1195.6,3444.3,1276.5,1368.5,3432.2,3437.0,670.1,1360.3,925.4,525.0,1326.8,1842.0,3444.3,3445.5,831.9,993.6,1162.1,1315.1,1170.0,987.6,-7.0,2.0,16.0,-8501.0,-11848.0,-5434.0,-5123.0,4.0,-19.0,2.0,3.0,-1.0,-7.0,10502.0,11285.0,-2954.0,-4699.0,-4.0,-12.0,-3.0,1.0
2022-05-13 15:48:48.316727-07:00,2006.4,619.7,1014.2,1219.5,817.7,1168.2,1578.6,1559.0,3449.1,3445.5,1390.3,1192.0,1201.8,3441.9,1269.4,1368.5,3432.2,3435.8,673.3,1361.2,925.4,525.0,1326.8,1825.5,3444.3,3439.5,821.0,986.7,1162.1,1315.1,1170.0,985.9,-4.0,10.0,4.0,-8498.0,-11855.0,-5434.0,-5115.0,32.0,-11.0,-12.0,0.0,-1.0,-11.0,10498.0,11288.0,-2955.0,-4699.0,11.0,1.0,-10.0,1.0
2022-05-13 15:48:48.538861-07:00,2006.4,618.9,1010.8,1207.1,817.7,1168.2,1578.6,1561.8,3449.1,3432.2,1382.1,1192.0,1201.8,3441.9,1269.4,1362.1,3435.8,3435.8,673.3,1361.2,923.7,521.0,1318.7,1825.5,3439.5,3439.5,821.0,986.7,1166.5,1315.1,1170.0,985.9,-3.0,4.0,-3.0,-8490.0,-11861.0,-5439.0,-5108.0,-3.0,0.0,-5.0,5.0,1.0,-17.0,10495.0,11291.0,-2955.0,-4697.0,-1.0,2.0,0.0,1.0
2022-05-13 15:48:48.540568-07:00,2024.4,618.9,1010.8,1207.1,821.0,1164.7,1567.4,1561.8,3439.5,3432.2,1382.1,1192.0,1194.7,3439.5,1271.2,1362.1,3435.8,3439.5,667.6,1356.7,923.7,521.0,1318.7,1810.0,3439.5,3444.3,816.9,987.6,1166.5,1315.1,1170.0,984.2,-4.0,7.0,0.0,-8496.0,-11857.0,-5439.0,-5107.0,-23.0,-20.0,-20.0,4.0,0.0,-13.0,10494.0,11293.0,-2956.0,-4695.0,-10.0,-6.0,-4.0,1.0
2022-05-13 15:48:48.541708-07:00,2024.4,618.1,1006.5,1214.2,821.0,1164.7,1565.5,1563.7,3439.5,3441.9,1382.1,1181.5,1194.7,3439.5,1268.5,1357.6,3437.0,3433.4,667.6,1356.7,925.4,517.9,1312.4,1810.0,3439.5,3438.2,816.9,987.6,1161.2,1316.9,1168.2,984.2,-4.0,13.0,0.0,-8504.0,-11857.0,-5439.0,-5095.0,-4.0,-22.0,-24.0,0.0,5.0,-15.0,10493.0,11293.0,-2955.0,-4696.0,-5.0,-8.0,-12.0,1.0
2022-05-13 15:48:48.583853-07:00,2019.4,618.1,1006.5,1214.2,823.5,1165.6,1565.5,1563.7,3433.4,3438.2,1382.1,1181.5,1195.6,3437.0,1268.5,1357.6,3437.0,3433.4,671.7,1356.7,925.4,517.9,1312.4,1830.4,3439.5,3438.2,815.2,988.5,1161.2,1316.9,1165.6,985.0,-8.0,1.0,0.0,-8510.0,-11853.0,-5445.0,-5088.0,31.0,-11.0,-15.0,0.0,5.0,-8.0,10494.0,11292.0,-2952.0,-4699.0,4.0,1.0,-12.0,1.0
2022-05-13 15:48:48.585577-07:00,2019.4,618.1,1009.0,1216.8,823.5,1165.6,1563.7,1559.0,3433.4,3438.2,1387.5,1190.3,1195.6,3437.0,1260.4,1351.2,3429.8,3439.5,671.7,1356.7,927.9,524.2,1312.4,1830.4,3439.5,3438.2,815.2,988.5,1163.0,1315.1,1165.6,985.0,-2.0,-8.0,1.0,-8510.0,-11853.0,-5449.0,-5082.0,-6.0,10.0,-2.0,3.0,-3.0,-11.0,10495.0,11292.0,-2951.0,-4699.0,-15.0,2.0,0.0,1.0
2022-05-13 15:48:48.586687-07:00,2005.5,612.5,1009.0,1216.8,823.5,1162.1,1563.7,1559.0,3434.6,3449.1,1387.5,1190.3,1197.4,3441.9,1260.4,1351.2,3429.8,3439.5,671.7,1357.6,927.9,524.2,1310.6,1823.6,3439.5,3438.2,818.5,985.0,1163.0,1315.1,1164.7,979.9,-5.0,9.0,-3.0,-8506.0,-11856.0,-5452.0,-5080.0,0.0,-3.0,-11.0,0.0,3.0,-11.0,10492.0,11295.0,-2952.0,-4697.0,-6.0,-2.0,-4.0,1.0
2022-05-13 15:48:48.673977-07:00,2005.5,612.5,1015.1,1208.0,823.5,1162.1,1559.0,1556.2,3434.6,3449.1,1383.9,1190.3,1197.4,3441.9,1262.2,1360.3,3434.6,3438.2,671.7,1357.6,930.5,522.6,1310.6,1823.6,3450.4,3431.0,818.5,985.0,1163.0,1322.3,1164.7,979.9,-7.0,-3.0,1.0,-8506.0,-11857.0,-5453.0,-5075.0,-1.0,-14.0,5.0,0.0,3.0,-14.0,10490.0,11295.0,-2954.0,-4699.0,2.0,-10.0,1.0,1.0
2022-05-13 15:48:48.675168-07:00,2001.5,614.9,1015.1,1208.0,826.0,1168.2,1559.0,1556.2,3435.8,3434.6,1383.9,1190.3,1195.6,3438.2,1262.2,1360.3,3434.6,3438.2,672.5,1354.0,930.5,522.6,1299.0,1825.5,3450.4,3431.0,811.0,987.6,1163.0,1322.3,1165.6,983.3,-4.0,1.0,0.0,-8511.0,-11857.0,-5448.0,-5072.0,0.0,-10.0,7.0,1.0,3.0,-13.0,10490.0,11294.0,-2956.0,-4701.0,-3.0,-9.0,2.0,1.0
2022-05-13 15:48:48.724408-07:00,2001.5,614.9,1009.9,1211.5,826.0,1172.6,1558.1,1563.7,3435.8,3434.6,1386.6,1189.4,1195.6,3434.6,1259.6,1356.7,3438.2,3441.9,669.3,1354.0,925.4,521.8,1299.0,1825.5,3444.3,3438.2,813.5,987.6,1163.8,1316.9,1165.6,983.3,-5.0,0.0,9.0,-8512.0,-11857.0,-5448.0,-5071.0,0.0,-2.0,-4.0,2.0,0.0,-3.0,10491.0,11294.0,-2956.0,-4701.0,-2.0,-3.0,-4.0,1.0
