Time,P0,P1,P2,P3,P4,P5,P6,P7,P8,P9,P10,P11,P12,P13,P14,P15,P16,P17,P18,P19,P20,P21,P22,P23,P24,P25,P26,P27,P28,P29,P30,P31,ECG,AX0,AY0,AZ0,QW0,QX0,QY0,QZ0,GX0,GY0,GZ0,AX1,AY1,AZ1,QW1,QX1,QY1,QZ1,GX1,GY1,GZ1
2022-05-13 15:13:25.910964-07:00,1083.4,674.2,942.4,884.8,743.9,734.0,1483.8,1076.4,3468.6,3480.7,1048.7,848.6,1375.7,3478.3,1182.3,1077.3,3472.2,3473.4,1112.1,1484.7,2201.4,2585.3,1190.3,3499.0,3478.3,3474.6,627.0,736.5,1456.2,905.9,845.3,727.4,-4.0,-5.0,-13.0,11085.0,-11580.0,3352.0,-485.0,13.0,-20.0,-7.0,-4.0,3.0,-10.0,4677.0,-9871.0,-10314.0,6537.0,5.0,-13.0,-9.0,1.0
2022-05-13 15:13:25.914433-07:00,1083.4,666.0,941.5,877.2,743.9,734.0,1483.8,1076.4,3468.6,3478.3,1042.6,847.0,1375.7,3478.3,1182.3,1061.7,3475.9,3473.4,1112.1,1484.7,2213.7,2586.4,1194.7,3499.0,3481.9,3474.6,627.0,736.5,1439.6,891.5,837.7,727.4,0.0,-3.0,1.0,11091.0,-11577.0,3343.0,-476.0,-5.0,-27.0,-1.0,0.0,2.0,-4.0,4678.0,-9866.0,-10316.0,6542.0,3.0,-9.0,-10.0,1.0
2022-05-13 15:13:25.914938-07:00,1083.4,668.4,941.5,877.2,729.0,723.3,1476.4,1076.4,3475.9,3483.2,1042.6,847.0,1376.6,3469.8,1180.6,1061.7,3475.9,3479.5,1117.4,1482.9,2213.7,2586.4,1192.0,3495.3,3481.9,3481.9,635.9,757.1,1439.6,891.5,841.1,724.9,1.0,-1.0,8.0,11092.0,-11577.0,3339.0,-472.0,3.0,21.0,3.0,0.0,0.0,2.0,4678.0,-9865.0,-10316.0,6542.0,-5.0,4.0,2.0,1.0
2022-05-13 15:13:25.957067-07:00,1083.4,668.4,954.3,883.9,729.0,723.3,1477.3,1069.5,3475.9,3483.2,1049.6,848.6,1376.6,3469.8,1177.9,1062.5,3479.5,3481.9,1117.4,1482.9,2203.4,2588.5,1192.0,3495.3,3472.2,3468.6,635.9,757.1,1451.6,894.1,841.1,724.9,-1.0,-7.0,-8.0,11086.0,-11580.0,3347.0,-479.0,-17.0,26.0,8.0,2.0,1.0,-9.0,4674.0,-9867.0,-10319.0,6538.0,-14.0,6.0,11.0,1.0
2022-05-13 15:13:25.958178-07:00,1084.2,675.0,954.3,883.9,731.5,724.9,1477.3,1069.5,3464.9,3469.8,1049.6,848.6,1372.1,3477.1,1177.9,1062.5,3479.5,3481.9,1112.1,1485.6,2203.4,2588.5,1189.4,3486.8,3472.2,3468.6,640.8,729.9,1451.6,894.1,837.7,729.0,-2.0,-1.0,-11.0,11080.0,-11583.0,3354.0,-485.0,-16.0,8.0,0.0,1.0,6.0,-11.0,4670.0,-9869.0,-10321.0,6535.0,-17.0,-3.0,1.0,1.0
2022-05-13 15:13:26.001935-07:00,1084.2,675.0,947.5,885.6,731.5,724.9,1481.0,1073.8,3464.9,3469.8,1041.8,851.1,1372.1,3477.1,1173.5,1063.4,3472.2,3483.2,1112.1,1485.6,2195.2,2592.9,1189.4,3486.8,3479.5,3480.7,640.8,729.9,1451.6,895.7,837.7,729.0,-2.0,-1.0,-10.0,11079.0,-11585.0,3352.0,-482.0,10.0,-11.0,2.0,-5.0,7.0,-9.0,4669.0,-9870.0,-10322.0,6533.0,7.0,-11.0,-6.0,1.0
2022-05-13 15:13:26.136636-07:00,1080.8,670.9,947.5,885.6,734.0,727.4,1481.0,1073.8,3480.7,3473.4,1041.8,851.1,1379.4,3475.9,1173.5,1063.4,3472.2,3483.2,1113.0,1478.3,2195.2,2592.9,1191.2,3497.8,3479.5,3480.7,635.1,726.6,1451.6,895.7,838.6,728.2,0.0,-6.0,-2.0,11081.0,-11586.0,3346.0,-477.0,1.0,-18.0,0.0,-2.0,2.0,-6.0,4667.0,-9869.0,-10323.0,6535.0,7.0,-9.0,-7.0,1.0
2022-05-13 15:13:26.228260-07:00,1080.8,670.9,951.7,885.6,734.0,724.1,1477.3,1076.4,3480.7,3473.4,1040.1,844.4,1379.4,3473.4,1172.6,1064.3,3469.8,3478.3,1118.2,1478.3,2209.6,2585.3,1191.2,3497.8,3468.6,3478.3,640.8,726.6,1449.7,894.1,838.6,728.2,0.0,-4.0,-4.0,11082.0,-11585.0,3345.0,-475.0,-16.0,2.0,2.0,2.0,3.0,-6.0,4665.0,-9868.0,-10323.0,6536.0,-8.0,0.0,-1.0,1.0
2022-05-13 15:13:26.405529-07:00,1079.0,676.6,945.8,885.6,738.9,724.1,1477.3,1076.4,3472.2,3481.9,1045.2,844.4,1373.9,3473.4,1172.6,1064.3,3469.8,3478.3,1118.2,1488.4,2209.6,2587.4,1182.3,3497.8,3468.6,3478.3,640.8,732.3,1449.7,891.5,837.7,723.3,0.0,0.0,-4.0,11079.0,-11588.0,3345.0,-475.0,1.0,10.0,0.0,2.0,1.0,-5.0,4663.0,-9869.0,-10325.0,6534.0,-3.0,-4.0,2.0,1.0
2022-05-13 15:13:26.406639-07:00,1079.0,676.6,945.8,886.5,738.9,728.2,1481.9,1069.5,3472.2,3481.9,1045.2,844.4,1373.9,3478.3,1177.9,1061.7,3479.5,3471.0,1120.9,1488.4,2207.5,2587.4,1182.3,3497.8,3472.2,3478.3,632.7,732.3,1457.1,891.5,837.7,723.3,-1.0,-4.0,-8.0,11079.0,-11588.0,3346.0,-475.0,0.0,-3.0,0.0,0.0,6.0,-9.0,4663.0,-9869.0,-10325.0,6534.0,0.0,1.0,-1.0,1.0
2022-05-13 15:13:26.407709-07:00,1079.0,677.4,944.1,886.5,734.8,728.2,1481.9,1069.5,3473.4,3463.7,1044.4,844.4,1371.2,3478.3,1177.9,1061.7,3479.5,3471.0,1120.9,1478.3,2207.5,2587.4,1185.9,3496.6,3472.2,3478.3,632.7,733.2,1457.1,892.4,847.8,720.8,0.0,1.0,-7.0,11079.0,-11588.0,3346.0,-475.0,5.0,2.0,0.0,0.0,6.0,-8.0,4663.0,-9869.0,-10325.0,6534.0,1.0,-3.0,-1.0,1.0
2022-05-13 15:13:26.409233-07:00,1079.0,677.4,944.1,885.6,734.8,724.9,1485.6,1069.5,3473.4,3463.7,1044.4,847.8,1371.2,3467.4,1171.8,1060.8,3480.7,3475.9,1111.2,1478.3,2205.5,2587.4,1185.9,3496.6,3478.3,3472.2,633.5,733.2,1449.7,892.4,847.8,720.8,-1.0,-6.0,-6.0,11079.0,-11588.0,3346.0,-475.0,-1.0,-1.0,4.0,0.0,3.0,-7.0,4663.0,-9869.0,-10325.0,6534.0,-2.0,-4.0,2.0,1.0
2022-05-13 15:13:26.495190-07:00,1077.3,680.7,947.5,885.6,729.9,724.9,1485.6,1069.5,3467.4,3462.5,1047.0,847.8,1376.6,3467.4,1171.8,1060.8,3480.7,3475.9,1111.2,1482.9,2205.5,2591.8,1185.9,3507.5,3478.3,3472.2,633.5,732.3,1449.7,894.1,837.7,729.0,-3.0,-2.0,-5.0,11079.0,-11588.0,3346.0,-475.0,0.0,6.0,-2.0,-2.0,4.0,-4.0,4663.0,-9869.0,-10325.0,6534.0,-2.0,2.0,2.0,1.0
2022-05-13 15:13:26.587527-07:00,1077.3,680.7,947.5,879.7,729.9,722.5,1479.2,1079.0,3467.4,3462.5,1047.0,849.5,1371.2,3472.2,1174.4,1075.6,3485.6,3474.6,1113.9,1487.5,2207.5,2591.8,1185.9,3507.5,3483.2,3477.1,634.3,724.1,1453.4,894.1,837.7,729.0,-1.0,-3.0,-7.0,11079.0,-11588.0,3347.0,-476.0,12.0,0.0,2.0,-1.0,6.0,-10.0,4663.0,-9869.0,-10325.0,6534.0,8.0,-1.0,0.0,1.0
2022-05-13 15:13:26.588717-07:00,1086.0,682.3,950.9,876.4,733.2,717.5,1471.8,1081.6,3473.4,3471.0,1046.1,849.5,1373.0,3468.6,1180.6,1061.7,3480.7,3466.1,1107.8,1485.6,2210.6,2582.0,1189.4,3495.3,3474.6,3484.4,635.9,731.5,1449.7,887.3,834.4,724.9,0.0,-5.0,-6.0,11081.0,-11585.0,3346.0,-477.0,-2.0,-2.0,3.0,0.0,3.0,-7.0,4665.0,-9868.0,-10323.0,6536.0,2.0,-2.0,-3.0,1.0
2022-05-13 15:13:26.589714-07:00,1079.9,681.5,948.3,883.9,733.2,717.5,1471.8,1081.6,3467.4,3464.9,1047.0,847.8,1373.0,3468.6,1180.6,1061.7,3480.7,3466.1,1107.8,1485.6,2203.4,2592.9,1192.0,3496.6,3474.6,3484.4,635.9,731.5,1447.9,891.5,835.2,718.4,0.0,0.0,-5.0,11081.0,-11585.0,3346.0,-477.0,6.0,-3.0,7.0,3.0,5.0,-2.0,4665.0,-9868.0,-10323.0,6536.0,8.0,-2.0,1.0,1.0
2022-05-13 15:13:26.590685-07:00,1079.9,681.5,948.3,883.9,734.8,718.4,1478.3,1072.1,3467.4,3464.9,1047.0,847.8,1376.6,3468.6,1174.4,1062.5,3478.3,3481.9,1110.4,1478.3,2203.4,2592.9,1192.0,3496.6,3471.0,3472.2,632.7,728.2,1447.9,891.5,835.2,718.4,-2.0,-5.0,-2.0,11081.0,-11585.0,3346.0,-477.0,6.0,7.0,0.0,0.0,1.0,-3.0,4665.0,-9868.0,-10323.0,6536.0,-2.0,1.0,0.0,1.0
2022-05-13 15:13:26.630290-07:00,1084.2,676.6,950.0,879.7,734.8,718.4,1478.3,1069.5,3474.6,3474.6,1043.5,848.6,1376.6,3468.6,1174.4,1060.8,3483.2,3481.9,1110.4,1478.3,2197.3,2585.3,1192.9,3491.7,3477.1,3472.2,632.7,728.2,1446.0,881.4,845.3,722.5,-2.0,0.0,-10.0,11084.0,-11583.0,3346.0,-478.0,6.0,-3.0,1.0,-2.0,5.0,-8.0,4666.0,-9867.0,-10323.0,6538.0,6.0,-1.0,2.0,1.0
2022-05-13 15:13:26.849235-07:00,1087.7,676.6,950.0,879.7,729.0,719.2,1474.6,1069.5,3483.2,3474.6,1043.5,848.6,1372.1,3468.6,1173.5,1060.8,3483.2,3478.3,1113.0,1479.2,2197.3,2585.3,1192.9,3494.1,3477.1,3479.5,625.4,731.5,1446.0,881.4,845.3,726.6,0.0,0.0,-8.0,11084.0,-11583.0,3346.0,-477.0,5.0,-15.0,5.0,1.0,3.0,-5.0,4666.0,-9867.0,-10323.0,6538.0,5.0,-12.0,-2.0,1.0
2022-05-13 15:13:26.850934-07:00,1087.7,679.9,946.6,878.0,729.0,719.2,1474.6,1074.7,3483.2,3467.4,1046.1,852.8,1372.1,3468.6,1173.5,1063.4,3469.8,3478.3,1113.0,1479.2,2208.6,2579.9,1196.5,3494.1,3474.6,3479.5,625.4,731.5,1462.6,885.6,836.1,726.6,-1.0,-1.0,0.0,11085.0,-11583.0,3342.0,-473.0,4.0,5.0,-1.0,0.0,4.0,-4.0,4665.0,-9866.0,-10323.0,6539.0,3.0,-1.0,-1.0,1.0
2022-05-13 15:13:26.851963-07:00,1076.4,679.9,946.6,878.0,739.7,724.9,1481.9,1074.7,3467.4,3467.4,1046.1,852.8,1370.3,3464.9,1170.9,1063.4,3469.8,3485.6,1114.7,1468.1,2208.6,2579.9,1196.5,3496.6,3474.6,3479.5,635.1,729.9,1462.6,885.6,836.1,723.3,-3.0,-5.0,-6.0,11084.0,-11583.0,3346.0,-478.0,-9.0,22.0,5.0,-1.0,2.0,-5.0,4664.0,-9867.0,-10324.0,6538.0,-12.0,9.0,6.0,1.0
2022-05-13 15:13:26.855627-07:00,1076.4,670.1,954.3,884.8,739.7,724.9,1481.9,1064.3,3467.4,3480.7,1043.5,852.0,1370.3,3464.9,1170.9,1060.8,3483.2,3485.6,1114.7,1468.1,2207.5,2581.0,1192.9,3496.6,3479.5,3479.5,635.1,729.9,1449.7,891.5,841.9,723.3,-1.0,0.0,-9.0,11081.0,-11583.0,3354.0,-479.0,8.0,6.0,1.0,-1.0,3.0,-9.0,4664.0,-9867.0,-10324.0,6537.0,-2.0,4.0,4.0,1.0
2022-05-13 15:13:26.901657-07:00,1084.2,670.9,954.3,884.8,741.4,729.0,1484.7,1064.3,3474.6,3473.4,1043.5,852.0,1373.0,3469.8,1175.3,1060.8,3483.2,3477.1,1116.5,1477.3,2207.5,2581.0,1188.5,3497.8,3479.5,3484.4,631.9,726.6,1449.7,891.5,837.7,725.8,0.0,-5.0,-4.0,11081.0,-11583.0,3354.0,-479.0,-2.0,-3.0,11.0,1.0,3.0,-10.0,4664.0,-9867.0,-10324.0,6537.0,-3.0,5.0,0.0,1.0
2022-05-13 15:13:27.126802-07:00,1084.2,670.9,951.7,881.4,741.4,729.0,1498.6,1074.7,3474.6,3473.4,1042.6,842.8,1373.0,3469.8,1174.4,1059.1,3473.4,3475.9,1116.5,1477.3,2207.5,2591.8,1188.5,3497.8,3471.0,3480.7,631.9,726.6,1447.9,895.7,837.7,725.8,0.0,0.0,-5.0,11081.0,-11582.0,3356.0,-478.0,-8.0,6.0,5.0,2.0,7.0,-5.0,4665.0,-9868.0,-10324.0,6537.0,-8.0,10.0,2.0,1.0
2022-05-13 15:13:27.128110-07:00,1090.3,672.5,951.7,881.4,735.6,725.8,1498.6,1074.7,3469.8,3473.4,1042.6,842.8,1373.0,3483.2,1174.4,1059.1,3473.4,3475.9,1117.4,1478.3,2207.5,2591.8,1193.8,3501.4,3471.0,3480.7,632.7,727.4,1447.9,895.7,841.1,721.6,-4.0,-4.0,-5.0,11078.0,-11584.0,3359.0,-481.0,11.0,6.0,3.0,-2.0,-2.0,0.0,4663.0,-9869.0,-10325.0,6534.0,5.0,8.0,5.0,1.0
2022-05-13 15:13:27.172930-07:00,1090.3,672.5,945.8,893.2,735.6,725.8,1477.3,1074.7,3469.8,3473.4,1041.8,847.0,1373.0,3483.2,1172.6,1062.5,3469.8,3462.5,1117.4,1478.3,2204.5,2589.6,1193.8,3501.4,3464.9,3472.2,632.7,727.4,1447.9,892.4,841.1,721.6,-1.0,0.0,-3.0,11078.0,-11584.0,3361.0,-483.0,1.0,16.0,3.0,-2.0,6.0,-10.0,4663.0,-9868.0,-10324.0,6535.0,-3.0,4.0,8.0,1.0
2022-05-13 15:13:27.216037-07:00,1083.4,674.2,945.8,893.2,743.9,725.8,1477.3,1074.7,3468.6,3475.9,1041.8,847.0,1371.2,3471.0,1172.6,1062.5,3469.8,3462.5,1114.7,1480.1,2204.5,2589.6,1189.4,3486.8,3464.9,3472.2,636.7,733.2,1447.9,892.4,837.7,718.4,0.0,0.0,-11.0,11075.0,-11584.0,3369.0,-492.0,-8.0,29.0,6.0,3.0,9.0,-14.0,4665.0,-9870.0,-10324.0,6533.0,-9.0,12.0,9.0,1.0
2022-05-13 15:13:27.218789-07:00,1083.4,674.2,951.7,883.9,743.9,725.8,1475.5,1075.6,3468.6,3475.9,1046.1,842.8,1371.2,3471.0,1171.8,1065.1,3473.4,3475.9,1114.7,1480.1,2185.0,2581.0,1189.4,3486.8,3475.9,3478.3,636.7,733.2,1451.6,888.2,837.7,718.4,-3.0,-1.0,-13.0,11076.0,-11582.0,3373.0,-496.0,15.0,-16.0,0.0,-2.0,3.0,-12.0,4666.0,-9869.0,-10323.0,6534.0,16.0,-5.0,0.0,1.0
2022-05-13 15:13:27.219325-07:00,1092.9,674.2,948.3,883.9,734.8,720.8,1475.5,1075.6,3473.4,3467.4,1042.6,842.8,1373.0,3471.0,1171.8,1065.1,3473.4,3475.9,1112.1,1481.9,2185.0,2571.3,1190.3,3494.1,3475.9,3478.3,640.8,729.0,1451.6,893.2,832.7,727.4,0.0,0.0,-3.0,11080.0,-11579.0,3369.0,-492.0,12.0,-5.0,-2.0,-1.0,4.0,-6.0,4669.0,-9868.0,-10321.0,6537.0,11.0,-5.0,-7.0,1.0
2022-05-13 15:13:27.219838-07:00,1092.9,674.2,948.3,876.4,734.8,729.0,1465.4,1075.6,3473.4,3467.4,1042.6,859.5,1373.0,3471.0,1175.3,1059.1,3471.0,3469.8,1113.9,1481.9,2184.0,2571.3,1190.3,3494.1,3474.6,3466.1,635.1,729.0,1447.9,893.2,832.7,727.4,-3.0,-4.0,-4.0,11081.0,-11579.0,3369.0,-493.0,-1.0,4.0,4.0,-3.0,3.0,-6.0,4669.0,-9867.0,-10321.0,6538.0,0.0,-5.0,-1.0,1.0
2022-05-13 15:13:27.305635-07:00,1080.8,684.8,944.1,876.4,735.6,729.0,1465.4,1075.6,3467.4,3469.8,1042.6,859.5,1372.1,3471.0,1175.3,1059.1,3471.0,3469.8,1113.9,1481.9,2184.0,2583.1,1181.5,3492.9,3474.6,3466.1,635.1,732.3,1447.9,891.5,836.9,722.5,-3.0,0.0,-7.0,11081.0,-11579.0,3369.0,-493.0,10.0,-7.0,1.0,-2.0,4.0,-8.0,4668.0,-9866.0,-10322.0,6540.0,7.0,-11.0,-2.0,1.0
2022-05-13 15:13:27.351625-07:00,1080.8,684.8,944.1,880.6,735.6,729.0,1470.9,1080.8,3467.4,3469.8,1042.6,848.6,1372.1,3468.6,1168.2,1064.3,3480.7,3488.0,1112.1,1481.9,2207.5,2583.1,1181.5,3492.9,3479.5,3474.6,636.7,732.3,1458.0,891.5,836.9,722.5,0.0,-2.0,-7.0,11084.0,-11577.0,3365.0,-490.0,12.0,-19.0,-6.0,0.0,3.0,-9.0,4665.0,-9865.0,-10323.0,6542.0,9.0,-17.0,-8.0,1.0
2022-05-13 15:13:27.486122-07:00,1079.0,664.4,948.3,880.6,731.5,729.0,1470.9,1080.8,3467.4,3472.2,1047.8,848.6,1370.3,3468.6,1168.2,1064.3,3480.7,3488.0,1112.1,1477.3,2207.5,2586.4,1184.1,3495.3,3479.5,3474.6,636.7,728.2,1458.0,889.8,836.9,717.5,-2.0,-1.0,-2.0,11084.0,-11577.0,3362.0,-486.0,-17.0,-1.0,0.0,2.0,5.0,-8.0,4662.0,-9863.0,-10324.0,6545.0,-11.0,-5.0,-5.0,1.0
2022-05-13 15:13:27.487337-07:00,1079.0,664.4,948.3,881.4,729.9,724.1,1470.0,1076.4,3467.4,3472.2,1047.8,852.0,1380.3,3473.4,1175.3,1064.3,3478.3,3477.1,1113.9,1480.1,2199.3,2586.4,1184.1,3495.3,3478.3,3474.6,635.1,729.9,1455.2,889.8,836.9,717.5,-2.0,-4.0,-9.0,11084.0,-11577.0,3362.0,-486.0,10.0,5.0,-2.0,-3.0,4.0,-12.0,4660.0,-9863.0,-10325.0,6544.0,10.0,0.0,1.0,1.0
2022-05-13 15:13:27.532392-07:00,1079.9,666.0,950.0,879.7,729.9,724.1,1470.0,1076.4,3469.8,3472.2,1039.2,848.6,1380.3,3473.4,1175.3,1064.3,3478.3,3477.1,1113.9,1480.1,2203.4,2572.3,1188.5,3491.7,3478.3,3474.6,635.1,729.9,1456.2,891.5,834.4,724.9,-3.0,-3.0,-9.0,11084.0,-11577.0,3362.0,-486.0,-1.0,-13.0,3.0,0.0,6.0,-7.0,4661.0,-9863.0,-10325.0,6545.0,-2.0,-9.0,-3.0,1.0
2022-05-13 15:13:27.533908-07:00,1079.9,666.0,950.0,879.7,732.3,718.4,1474.6,1084.2,3469.8,3472.2,1039.2,848.6,1374.8,3473.4,1175.3,1064.3,3486.8,3475.9,1112.1,1483.8,2203.4,2572.3,1188.5,3491.7,3481.9,3480.7,636.7,733.2,1456.2,891.5,834.4,724.9,-2.0,1.0,-9.0,11085.0,-11578.0,3358.0,-482.0,-1.0,-14.0,-3.0,0.0,5.0,-7.0,4660.0,-9861.0,-10325.0,6548.0,0.0,-14.0,-10.0,1.0
2022-05-13 15:13:27.574050-07:00,1083.4,673.3,944.9,883.9,732.3,718.4,1474.6,1084.2,3478.3,3483.2,1042.6,841.9,1374.8,3473.4,1175.3,1064.3,3486.8,3475.9,1112.1,1483.8,2192.2,2588.5,1192.0,3503.9,3481.9,3480.7,636.7,733.2,1456.2,891.5,841.1,716.7,-1.0,-1.0,-2.0,11087.0,-11578.0,3352.0,-476.0,9.0,-23.0,-2.0,0.0,4.0,-7.0,4658.0,-9858.0,-10327.0,6551.0,11.0,-13.0,-6.0,1.0
2022-05-13 15:13:27.621744-07:00,1083.4,673.3,944.9,883.9,727.4,722.5,1479.2,1074.7,3478.3,3483.2,1042.6,841.9,1376.6,3469.8,1175.3,1055.6,3472.2,3473.4,1115.6,1481.0,2192.2,2588.5,1192.0,3503.9,3473.4,3472.2,633.5,732.3,1456.2,891.5,841.1,716.7,-1.0,-4.0,-1.0,11088.0,-11578.0,3349.0,-473.0,-5.0,-7.0,-3.0,3.0,3.0,-5.0,4656.0,-9856.0,-10328.0,6554.0,3.0,-6.0,-3.0,1.0
2022-05-13 15:13:27.666900-07:00,1084.2,683.1,945.8,882.3,727.4,722.5,1479.2,1074.7,3471.0,3467.4,1034.0,847.8,1376.6,3469.8,1175.3,1059.1,3479.5,3473.4,1115.6,1481.0,2202.4,2583.1,1191.2,3499.0,3479.5,3472.2,633.5,732.3,1453.4,895.7,834.4,720.8,-1.0,-1.0,-8.0,11088.0,-11578.0,3349.0,-473.0,-7.0,7.0,2.0,3.0,4.0,-6.0,4656.0,-9856.0,-10328.0,6554.0,-7.0,-2.0,-2.0,1.0
2022-05-13 15:13:27.846649-07:00,1079.0,683.1,945.8,882.3,734.0,728.2,1477.3,1074.7,3473.4,3467.4,1034.0,847.8,1397.6,3478.3,1172.6,1059.1,3479.5,3480.7,1115.6,1470.0,2202.4,2583.1,1191.2,3486.8,3479.5,3475.9,635.9,731.5,1453.4,895.7,834.4,726.6,-2.0,-1.0,-10.0,11088.0,-11578.0,3349.0,-473.0,1.0,-6.0,-1.0,-1.0,7.0,-14.0,4656.0,-9856.0,-10328.0,6554.0,1.0,-3.0,-5.0,1.0
2022-05-13 15:13:27.849385-07:00,1079.0,670.9,952.6,876.4,734.0,728.2,1477.3,1077.3,3473.4,3473.4,1040.9,838.6,1397.6,3478.3,1172.6,1060.8,3480.7,3480.7,1115.6,1470.0,2193.2,2592.9,1192.9,3486.8,3478.3,3475.9,635.9,731.5,1454.3,886.5,838.6,726.6,-3.0,0.0,-19.0,11088.0,-11578.0,3351.0,-474.0,-7.0,13.0,-4.0,-3.0,15.0,-20.0,4653.0,-9858.0,-10329.0,6551.0,-12.0,-2.0,-8.0,1.0
2022-05-13 15:13:27.850546-07:00,1082.5,670.9,952.6,876.4,725.8,741.4,1480.1,1077.3,3457.6,3473.4,1040.9,838.6,1367.6,3478.3,1170.9,1060.8,3480.7,3486.8,1116.5,1478.3,2193.2,2592.9,1192.9,3488.0,3478.3,3484.4,631.9,726.6,1454.3,886.5,838.6,720.8,-1.0,-2.0,-9.0,11081.0,-11584.0,3351.0,-472.0,-24.0,-22.0,3.0,-1.0,2.0,-6.0,4648.0,-9859.0,-10333.0,6546.0,-10.0,-12.0,-11.0,1.0
2022-05-13 15:13:27.936136-07:00,1082.5,678.2,951.7,875.5,725.8,741.4,1480.1,1077.3,3457.6,3475.9,1042.6,845.3,1367.6,3478.3,1170.9,1059.1,3478.3,3486.8,1116.5,1478.3,2198.3,2587.4,1192.0,3488.0,3475.9,3484.4,631.9,726.6,1444.2,885.6,841.1,720.8,0.0,0.0,11.0,11081.0,-11588.0,3342.0,-462.0,2.0,-33.0,-5.0,5.0,-4.0,3.0,4646.0,-9852.0,-10339.0,6550.0,6.0,-17.0,-12.0,1.0
2022-05-13 15:13:27.937891-07:00,1084.2,672.5,951.7,875.5,733.2,723.3,1481.9,1077.3,3472.2,3471.0,1042.6,845.3,1376.6,3469.8,1177.9,1059.1,3478.3,3477.1,1114.7,1474.6,2198.3,2587.4,1191.2,3496.6,3475.9,3479.5,633.5,723.3,1444.2,885.6,839.4,727.4,0.0,-5.0,5.0,11082.0,-11588.0,3337.0,-457.0,1.0,-3.0,3.0,5.0,2.0,-3.0,4643.0,-9849.0,-10341.0,6553.0,-3.0,-6.0,4.0,1.0
2022-05-13 15:13:28.026060-07:00,1084.2,672.5,944.1,881.4,733.2,723.3,1477.3,1070.3,3472.2,3471.0,1046.1,852.0,1376.6,3469.8,1175.3,1060.8,3474.6,3479.5,1114.7,1474.6,2198.3,2586.4,1191.2,3496.6,3471.0,3478.3,633.5,723.3,1458.0,891.5,839.4,727.4,-2.0,2.0,-8.0,11078.0,-11591.0,3342.0,-460.0,-14.0,24.0,5.0,1.0,5.0,-4.0,4640.0,-9850.0,-10343.0,6550.0,-8.0,-2.0,5.0,1.0
2022-05-13 15:13:28.027195-07:00,1076.4,669.3,944.1,881.4,721.6,718.4,1477.3,1070.3,3460.1,3468.6,1046.1,852.0,1375.7,3478.3,1175.3,1060.8,3474.6,3479.5,1121.7,1481.0,2198.3,2586.4,1190.3,3489.2,3471.0,3478.3,631.9,729.9,1458.0,891.5,839.4,722.5,0.0,-4.0,-13.0,11076.0,-11591.0,3344.0,-461.0,0.0,4.0,-2.0,2.0,8.0,-14.0,4638.0,-9851.0,-10344.0,6548.0,-1.0,-8.0,-1.0,1.0
2022-05-13 15:13:28.072538-07:00,1076.4,669.3,945.8,879.7,721.6,718.4,1473.6,1079.9,3460.1,3468.6,1047.8,852.0,1375.7,3478.3,1171.8,1060.8,3463.7,3472.2,1121.7,1481.0,2200.4,2587.4,1190.3,3489.2,3478.3,3472.2,631.9,729.9,1445.1,892.4,839.4,722.5,0.0,-2.0,-10.0,11077.0,-11591.0,3342.0,-460.0,1.0,-17.0,0.0,1.0,6.0,-11.0,4636.0,-9851.0,-10346.0,6547.0,6.0,-6.0,-8.0,1.0
2022-05-13 15:13:28.117578-07:00,1092.9,674.2,945.8,879.7,736.5,721.6,1473.6,1079.9,3471.0,3477.1,1047.8,852.0,1371.2,3477.1,1171.8,1060.8,3463.7,3472.2,1108.6,1478.3,2200.4,2587.4,1185.0,3481.9,3478.3,3472.2,631.9,728.2,1445.1,892.4,834.4,714.2,-2.0,-1.0,-5.0,11080.0,-11590.0,3337.0,-454.0,11.0,-15.0,-1.0,-2.0,2.0,-7.0,4636.0,-9851.0,-10346.0,6547.0,10.0,-4.0,-8.0,1.0
2022-05-13 15:13:28.297281-07:00,1092.9,674.2,948.3,887.3,736.5,721.6,1481.0,1055.6,3471.0,3477.1,1046.1,845.3,1371.2,3477.1,1170.9,1056.5,3469.8,3477.1,1108.6,1478.3,2199.3,2578.8,1185.0,3481.9,3475.9,3469.8,631.9,728.2,1448.8,893.2,834.4,714.2,-1.0,3.0,-5.0,11080.0,-11590.0,3336.0,-453.0,5.0,-5.0,-2.0,0.0,7.0,-4.0,4636.0,-9851.0,-10346.0,6547.0,5.0,-2.0,-8.0,1.0
2022-05-13 15:13:28.387793-07:00,1079.9,676.6,945.8,887.3,731.5,722.5,1481.0,1055.6,3475.9,3462.5,1045.2,845.3,1371.2,3467.4,1170.9,1056.5,3469.8,3477.1,1111.2,1484.7,2199.3,2583.1,1193.8,3499.0,3475.9,3469.8,631.9,731.5,1448.8,893.2,841.9,722.5,-2.0,-4.0,-5.0,11081.0,-11590.0,3334.0,-455.0,11.0,-6.0,-6.0,1.0,4.0,-6.0,4636.0,-9851.0,-10345.0,6548.0,9.0,-2.0,-6.0,1.0
2022-05-13 15:13:28.476367-07:00,1079.9,676.6,945.8,883.9,731.5,726.6,1485.6,1066.9,3475.9,3462.5,1045.2,847.0,1371.2,3478.3,1164.7,1075.6,3471.0,3469.8,1115.6,1484.7,2202.4,2583.1,1193.8,3499.0,3478.3,3474.6,635.1,731.5,1448.8,893.2,841.9,722.5,-1.0,-1.0,-7.0,11082.0,-11589.0,3334.0,-455.0,-6.0,2.0,4.0,0.0,0.0,-5.0,4637.0,-9851.0,-10345.0,6548.0,2.0,-3.0,-3.0,1.0
2022-05-13 15:13:28.477566-07:00,1080.8,676.6,953.4,883.9,730.7,726.6,1485.6,1066.9,3473.4,3473.4,1043.5,847.0,1374.8,3478.3,1164.7,1075.6,3471.0,3469.8,1115.6,1485.6,2202.4,2588.5,1189.4,3486.8,3478.3,3474.6,635.1,732.3,1448.8,893.2,836.9,724.1,-2.0,-2.0,-9.0,11082.0,-11589.0,3334.0,-455.0,8.0,-5.0,-5.0,0.0,5.0,-8.0,4636.0,-9851.0,-10345.0,6547.0,3.0,-6.0,-3.0,1.0
2022-05-13 15:13:28.478616-07:00,1080.8,676.6,953.4,884.8,730.7,725.8,1465.4,1066.0,3473.4,3473.4,1043.5,847.8,1374.8,3478.3,1172.6,1064.3,3477.1,3475.9,1113.0,1485.6,2203.4,2588.5,1189.4,3486.8,3488.0,3478.3,634.3,732.3,1459.8,893.2,836.9,724.1,0.0,0.0,-7.0,11082.0,-11589.0,3334.0,-454.0,-2.0,0.0,4.0,2.0,4.0,-5.0,4636.0,-9851.0,-10346.0,6547.0,6.0,-5.0,-1.0,1.0
2022-05-13 15:13:28.479614-07:00,1086.0,671.7,944.1,884.8,734.0,725.8,1465.4,1066.0,3471.0,3462.5,1041.8,847.8,1377.5,3478.3,1172.6,1064.3,3477.1,3475.9,1113.0,1477.3,2203.4,2590.7,1190.3,3497.8,3488.0,3478.3,634.3,730.7,1459.8,892.4,835.2,718.4,-1.0,-4.0,-6.0,11082.0,-11589.0,3333.0,-454.0,5.0,-10.0,-5.0,3.0,6.0,-9.0,4636.0,-9852.0,-10346.0,6546.0,6.0,-4.0,-2.0,1.0
2022-05-13 15:13:28.522077-07:00,1086.0,671.7,944.1,882.3,730.7,718.4,1478.3,1060.8,3471.0,3462.5,1041.8,847.0,1374.8,3471.0,1175.3,1064.3,3477.1,3473.4,1129.6,1480.1,2196.3,2590.7,1190.3,3497.8,3480.7,3472.2,635.1,734.8,1453.4,892.4,835.2,718.4,-2.0,-1.0,-8.0,11082.0,-11589.0,3332.0,-453.0,2.0,4.0,5.0,1.0,2.0,-7.0,4635.0,-9852.0,-10347.0,6545.0,4.0,-3.0,-4.0,1.0
2022-05-13 15:13:28.523158-07:00,1084.2,675.8,941.5,883.9,730.7,718.4,1478.3,1060.8,3477.1,3467.4,1039.2,847.0,1374.8,3471.0,1175.3,1064.3,3477.1,3473.4,1129.6,1480.1,2203.4,2588.5,1188.5,3494.1,3480.7,3472.2,635.1,734.8,1453.4,893.2,835.2,720.0,0.0,0.0,-5.0,11083.0,-11589.0,3331.0,-451.0,5.0,-13.0,2.0,2.0,4.0,-4.0,4635.0,-9852.0,-10347.0,6545.0,9.0,1.0,-2.0,1.0
2022-05-13 15:13:28.611840-07:00,1084.2,675.8,941.5,883.9,731.5,725.8,1494.9,1068.6,3477.1,3467.4,1039.2,847.0,1374.8,3474.6,1178.8,1064.3,3488.0,3471.0,1118.2,1485.6,2203.4,2588.5,1188.5,3494.1,3479.5,3479.5,632.7,726.6,1453.4,893.2,835.2,720.0,-2.0,-4.0,-2.0,11083.0,-11589.0,3330.0,-451.0,-1.0,6.0,6.0,0.0,0.0,-3.0,4635.0,-9852.0,-10347.0,6544.0,-2.0,4.0,1.0,1.0
2022-05-13 15:13:28.656847-07:00,1081.6,672.5,948.3,883.1,731.5,725.8,1494.9,1068.6,3462.5,3469.8,1047.8,851.1,1374.8,3474.6,1178.8,1064.3,3488.0,3471.0,1118.2,1485.6,2203.4,2583.1,1191.2,3496.6,3479.5,3479.5,632.7,726.6,1451.6,883.9,838.6,723.3,-2.0,2.0,-7.0,11083.0,-11589.0,3332.0,-450.0,-7.0,9.0,7.0,-1.0,2.0,-5.0,4634.0,-9852.0,-10347.0,6544.0,-9.0,4.0,3.0,1.0
2022-05-13 15:13:28.746436-07:00,1081.6,672.5,948.3,883.1,729.9,725.8,1491.2,1080.8,3462.5,3469.8,1047.8,851.1,1373.0,3478.3,1175.3,1061.7,3483.2,3472.2,1111.2,1479.2,2203.4,2583.1,1191.2,3496.6,3481.9,3475.9,640.8,725.8,1451.6,883.9,838.6,723.3,-3.0,0.0,-11.0,11080.0,-11590.0,3335.0,-453.0,7.0,11.0,4.0,-4.0,6.0,-7.0,4633.0,-9853.0,-10348.0,6543.0,0.0,-7.0,0.0,1.0
2022-05-13 15:13:28.747534-07:00,1086.0,671.7,943.2,875.5,729.9,725.8,1491.2,1086.0,3481.9,3475.9,1040.1,844.4,1373.0,3478.3,1175.3,1059.1,3475.9,3472.2,1111.2,1479.2,2202.4,2590.7,1183.2,3501.4,3483.2,3475.9,640.8,725.8,1448.8,905.0,838.6,720.8,6.0,-13.0,-4.0,11080.0,-11589.0,3338.0,-456.0,14.0,27.0,4.0,3.0,4.0,-18.0,4631.0,-9853.0,-10348.0,6544.0,25.0,-14.0,-6.0,1.0
2022-05-13 15:13:28.792550-07:00,1079.9,671.7,943.2,875.5,731.5,729.0,1476.4,1086.0,3479.5,3475.9,1040.1,844.4,1376.6,3471.0,1170.0,1059.1,3475.9,3475.9,1111.2,1479.2,2202.4,2590.7,1183.2,3494.1,3483.2,3471.0,637.6,732.3,1448.8,905.0,838.6,722.5,2.0,-11.0,3.0,11088.0,-11569.0,3379.0,-477.0,29.0,127.0,72.0,0.0,9.0,-5.0,4638.0,-9847.0,-10344.0,6555.0,26.0,-5.0,-3.0,1.0
2022-05-13 15:13:28.836815-07:00,1079.9,679.9,945.8,889.0,731.5,729.0,1476.4,1079.0,3479.5,3477.1,1037.5,837.7,1376.6,3471.0,1170.0,1064.3,3479.5,3475.9,1111.2,1479.2,2205.5,2579.9,1192.0,3494.1,3472.2,3471.0,637.6,732.3,1472.7,886.5,841.9,722.5,25.0,-48.0,58.0,11062.0,-11562.0,3483.0,-511.0,-2.0,400.0,180.0,-1.0,13.0,-35.0,4634.0,-9847.0,-10346.0,6555.0,28.0,-28.0,-9.0,1.0
2022-05-13 15:13:28.879917-07:00,1091.2,679.9,945.8,889.0,732.3,729.0,1481.0,1079.0,3466.1,3477.1,1037.5,837.7,1363.9,3467.4,1173.5,1064.3,3479.5,3478.3,1112.1,1472.7,2205.5,2579.9,1192.0,3494.1,3472.2,3477.1,639.2,721.6,1472.7,886.5,841.9,717.5,19.0,-17.0,53.0,11039.0,-11481.0,3788.0,-640.0,131.0,830.0,440.0,-5.0,15.0,-4.0,4648.0,-9837.0,-10327.0,6591.0,100.0,-22.0,47.0,1.0
2022-05-13 15:13:28.926764-07:00,1091.2,683.1,950.0,874.7,732.3,729.0,1481.0,1069.5,3466.1,3471.0,1039.2,844.4,1363.9,3467.4,1173.5,1064.3,3474.6,3478.3,1112.1,1472.7,2204.5,2593.9,1192.9,3494.1,3484.4,3477.1,639.2,721.6,1478.3,888.2,836.1,717.5,39.0,-25.0,72.0,10966.0,-11358.0,4294.0,-852.0,88.0,1470.0,637.0,0.0,0.0,4.0,4645.0,-9839.0,-10303.0,6626.0,39.0,-22.0,77.0,1.0
2022-05-13 15:13:28.972404-07:00,1107.8,680.7,950.0,874.7,730.7,720.8,1475.5,1069.5,3483.2,3471.0,1039.2,844.4,1364.8,3469.8,1167.4,1064.3,3474.6,3479.5,1116.5,1481.0,2204.5,2593.9,1195.6,3494.1,3484.4,3472.2,630.3,734.8,1478.3,888.2,837.7,722.5,66.0,-56.0,82.0,10821.0,-11170.0,5019.0,-1179.0,273.0,1996.0,861.0,0.0,0.0,-21.0,4655.0,-9855.0,-10251.0,6675.0,193.0,-1.0,148.0,1.0
2022-05-13 15:13:29.017601-07:00,1107.8,680.7,945.8,891.5,730.7,720.8,1485.6,1072.9,3483.2,3471.0,1037.5,847.0,1364.8,3469.8,1172.6,1064.3,3483.2,3478.3,1116.5,1481.0,2216.8,2590.7,1195.6,3494.1,3474.6,3480.7,630.3,734.8,1449.7,900.0,837.7,722.5,27.0,47.0,-17.0,10630.0,-10874.0,5885.0,-1604.0,186.0,2097.0,823.0,4.0,12.0,21.0,4665.0,-9891.0,-10185.0,6716.0,20.0,96.0,230.0,1.0
2022-05-13 15:13:29.196707-07:00,1137.5,692.9,945.8,891.5,736.5,723.3,1485.6,1072.9,3457.6,3477.1,1037.5,847.0,1376.6,3477.1,1172.6,1064.3,3483.2,3478.3,1136.6,1506.0,2216.8,2590.7,1199.1,3488.0,3474.6,3480.7,636.7,747.2,1449.7,900.0,838.6,715.1,44.0,-22.0,6.0,10331.0,-10605.0,6716.0,-2031.0,159.0,2370.0,811.0,-4.0,8.0,-15.0,4637.0,-9970.0,-10123.0,6712.0,-34.0,63.0,236.0,1.0
2022-05-13 15:13:29.197866-07:00,1137.5,692.9,959.4,887.3,736.5,723.3,1484.7,1077.3,3457.6,3477.1,1047.0,853.7,1376.6,3477.1,1176.2,1058.2,3480.7,3481.9,1136.6,1506.0,2241.4,2614.5,1199.1,3488.0,3471.0,3474.6,636.7,747.2,1451.6,893.2,838.6,715.1,83.0,0.0,-22.0,10032.0,-10225.0,7540.0,-2529.0,518.0,2311.0,758.0,-2.0,16.0,-24.0,4644.0,-10040.0,-10027.0,6747.0,230.0,126.0,249.0,1.0
2022-05-13 15:13:29.198924-07:00,1180.6,690.5,959.4,887.3,735.6,727.4,1484.7,1077.3,3468.6,3478.3,1047.0,853.7,1383.9,3473.4,1176.2,1058.2,3480.7,3481.9,1163.0,1560.9,2241.4,2614.5,1206.2,3499.0,3471.0,3474.6,640.8,743.9,1451.6,893.2,838.6,720.0,122.0,-101.0,75.0,9658.0,-9811.0,8350.0,-3027.0,165.0,2537.0,841.0,-7.0,-3.0,-27.0,4671.0,-10111.0,-9919.0,6782.0,175.0,105.0,276.0,1.0
2022-05-13 15:13:29.241870-07:00,1180.6,690.5,959.4,883.9,735.6,727.4,1505.1,1093.8,3468.6,3478.3,1047.8,849.5,1383.9,3473.4,1177.0,1059.1,3475.9,3480.7,1163.0,1560.9,2296.2,2633.0,1206.2,3499.0,3478.3,3471.0,640.8,743.9,1447.0,897.4,838.6,720.0,70.0,21.0,-25.0,9318.0,-9122.0,9219.0,-3662.0,1378.0,2646.0,980.0,16.0,-9.0,40.0,4780.0,-10163.0,-9731.0,6900.0,750.0,246.0,334.0,1.0
2022-05-13 15:13:29.332005-07:00,1260.4,701.9,979.9,883.9,728.2,727.4,1505.1,1093.8,3468.6,3472.2,1045.2,849.5,1373.9,3480.7,1177.0,1059.1,3475.9,3480.7,1231.9,1622.8,2296.2,2711.7,1217.7,3489.2,3478.3,3471.0,639.2,744.7,1447.0,891.5,837.7,715.1,27.0,118.0,-156.0,9046.0,-8411.0,9855.0,-4330.0,665.0,1965.0,266.0,-1.0,19.0,-6.0,4929.0,-10232.0,-9514.0,6994.0,92.0,315.0,273.0,1.0
2022-05-13 15:13:29.421546-07:00,1260.4,701.9,979.9,899.1,728.2,728.2,1508.8,1154.2,3468.6,3472.2,1045.2,852.0,1373.9,3472.2,1170.0,1064.3,3478.3,3464.9,1281.0,1622.8,2352.5,2711.7,1217.7,3489.2,3478.3,3472.2,642.4,744.7,1446.0,891.5,837.7,715.1,39.0,-7.0,-52.0,8709.0,-8074.0,10203.0,-4826.0,403.0,1496.0,-113.0,0.0,18.0,-22.0,4936.0,-10352.0,-9436.0,6918.0,-264.0,249.0,164.0,1.0
2022-05-13 15:13:29.422816-07:00,1340.4,714.2,989.3,899.1,726.6,728.2,1508.8,1154.2,3464.9,3471.0,1049.6,852.0,1379.4,3472.2,1170.0,1064.3,3478.3,3464.9,1281.0,1671.9,2352.5,2781.2,1243.5,3499.0,3478.3,3472.2,642.4,751.3,1446.0,888.2,831.9,718.4,0.0,-22.0,-82.0,8409.0,-7873.0,10430.0,-5192.0,101.0,961.0,-86.0,-6.0,7.0,-17.0,4894.0,-10460.0,-9415.0,6814.0,-217.0,161.0,112.0,1.0
2022-05-13 15:13:29.423938-07:00,1340.4,714.2,989.3,905.9,726.6,728.2,1505.1,1173.5,3464.9,3471.0,1049.6,856.2,1379.4,3468.6,1177.0,1063.4,3483.2,3469.8,1299.0,1671.9,2450.4,2781.2,1243.5,3499.0,3488.0,3477.1,644.0,751.3,1454.3,888.2,831.9,718.4,9.0,-5.0,-65.0,8250.0,-7749.0,10560.0,-5368.0,213.0,547.0,60.0,-1.0,8.0,-19.0,4876.0,-10517.0,-9399.0,6762.0,12.0,47.0,35.0,1.0
2022-05-13 15:13:29.511939-07:00,1362.1,720.8,998.7,905.9,731.5,728.2,1505.1,1173.5,3471.0,3464.9,1046.1,856.2,1375.7,3468.6,1177.0,1063.4,3483.2,3469.8,1299.0,1679.5,2450.4,2820.2,1281.0,3490.5,3488.0,3477.1,644.0,756.3,1454.3,899.1,837.7,718.4,26.0,7.0,-12.0,8207.0,-7650.0,10612.0,-5472.0,97.0,197.0,12.0,2.0,11.0,-17.0,4878.0,-10526.0,-9392.0,6754.0,-38.0,-2.0,-6.0,1.0
2022-05-13 15:13:29.513987-07:00,1362.1,720.8,998.7,912.7,730.7,728.2,1502.3,1181.5,3471.0,3464.9,1046.1,858.7,1373.9,3478.3,1182.3,1061.7,3472.2,3479.5,1296.3,1675.7,2448.3,2820.2,1281.0,3490.5,3471.0,3478.3,641.6,756.3,1448.8,899.1,837.7,718.4,-7.0,14.0,2.0,8181.0,-7617.0,10619.0,-5545.0,181.0,117.0,-71.0,5.0,1.0,5.0,4875.0,-10525.0,-9401.0,6747.0,-12.0,14.0,-22.0,1.0
2022-05-13 15:13:29.599917-07:00,1376.6,723.3,995.3,907.6,730.7,728.2,1502.3,1181.5,3473.4,3473.4,1047.0,857.0,1373.9,3478.3,1182.3,1061.7,3472.2,3479.5,1296.3,1675.7,2447.3,2834.7,1306.1,3486.8,3471.0,3478.3,641.6,756.3,1458.0,896.6,836.1,729.9,0.0,23.0,0.0,8168.0,-7605.0,10594.0,-5625.0,133.0,92.0,-135.0,0.0,8.0,0.0,4871.0,-10529.0,-9411.0,6728.0,-73.0,22.0,-15.0,1.0
2022-05-13 15:13:29.690790-07:00,1376.6,723.3,995.3,907.6,724.9,725.8,1509.7,1186.7,3473.4,3473.4,1047.0,857.0,1371.2,3478.3,1171.8,1062.5,3483.2,3478.3,1281.0,1687.2,2447.3,2834.7,1306.1,3486.8,3480.7,3483.2,640.8,754.6,1458.0,896.6,836.1,729.9,8.0,-15.0,2.0,8131.0,-7635.0,10571.0,-5681.0,-1.0,51.0,-160.0,1.0,-1.0,-10.0,4842.0,-10550.0,-9432.0,6687.0,-133.0,29.0,-8.0,1.0
2022-05-13 15:13:29.692122-07:00,1375.7,729.0,1006.5,910.1,724.9,725.8,1509.7,1186.7,3467.4,3468.6,1047.8,860.4,1371.2,3478.3,1171.8,1062.5,3483.2,3478.3,1281.0,1687.2,2425.0,2824.6,1318.7,3502.7,3480.7,3483.2,640.8,754.6,1452.5,896.6,838.6,727.4,10.0,-22.0,7.0,8095.0,-7665.0,10557.0,-5721.0,38.0,64.0,-91.0,2.0,-1.0,-4.0,4820.0,-10568.0,-9447.0,6653.0,-45.0,22.0,-2.0,1.0
2022-05-13 15:13:29.736133-07:00,1375.7,729.0,1006.5,910.1,733.2,738.9,1509.7,1180.6,3467.4,3468.6,1047.8,860.4,1376.6,3464.9,1174.4,1060.8,3472.2,3477.1,1293.6,1665.3,2425.0,2824.6,1318.7,3502.7,3469.8,3484.4,634.3,752.9,1452.5,896.6,838.6,727.4,27.0,-17.0,11.0,8088.0,-7667.0,10541.0,-5756.0,-3.0,-18.0,-59.0,2.0,9.0,-21.0,4816.0,-10574.0,-9450.0,6642.0,-36.0,4.0,-9.0,1.0
2022-05-13 15:13:29.779911-07:00,1371.2,729.9,991.9,908.4,733.2,738.9,1509.7,1183.2,3466.1,3479.5,1053.9,855.3,1376.6,3464.9,1174.4,1062.5,3480.7,3477.1,1293.6,1665.3,2419.8,2834.7,1316.9,3497.8,3478.3,3484.4,634.3,752.9,1454.3,902.5,840.3,718.4,-7.0,-3.0,-3.0,8079.0,-7668.0,10537.0,-5775.0,27.0,26.0,9.0,1.0,0.0,3.0,4814.0,-10575.0,-9452.0,6640.0,25.0,-3.0,-7.0,1.0
2022-05-13 15:13:29.872620-07:00,1373.9,729.9,991.9,908.4,729.9,731.5,1512.5,1183.2,3478.3,3479.5,1053.9,855.3,1374.8,3473.4,1171.8,1062.5,3480.7,3484.4,1288.2,1651.1,2419.8,2834.7,1316.9,3491.7,3478.3,3483.2,639.2,752.1,1454.3,902.5,840.3,724.1,17.0,-2.0,12.0,8091.0,-7675.0,10534.0,-5754.0,-40.0,-68.0,16.0,4.0,9.0,-9.0,4820.0,-10572.0,-9449.0,6645.0,18.0,-5.0,-9.0,1.0
2022-05-13 15:13:29.875732-07:00,1373.9,724.1,990.2,908.4,729.9,731.5,1512.5,1174.4,3478.3,3475.9,1048.7,852.8,1374.8,3473.4,1171.8,1051.3,3477.1,3484.4,1288.2,1651.1,2405.0,2820.2,1323.2,3491.7,3467.4,3483.2,639.2,752.1,1449.7,899.1,833.6,724.1,-1.0,-16.0,15.0,8097.0,-7678.0,10523.0,-5761.0,33.0,36.0,0.0,6.0,-4.0,4.0,4822.0,-10570.0,-9451.0,6644.0,19.0,-5.0,-6.0,1.0
2022-05-13 15:13:29.917534-07:00,1378.5,724.1,990.2,908.4,732.3,724.9,1520.8,1174.4,3467.4,3475.9,1048.7,852.8,1373.0,3469.8,1172.6,1051.3,3477.1,3478.3,1289.1,1653.0,2405.0,2820.2,1323.2,3495.3,3467.4,3475.9,640.0,748.0,1449.7,899.1,833.6,741.4,0.0,-9.0,2.0,8102.0,-7662.0,10523.0,-5775.0,7.0,37.0,24.0,4.0,-3.0,-3.0,4827.0,-10568.0,-9447.0,6648.0,14.0,-1.0,6.0,1.0
2022-05-13 15:13:29.962365-07:00,1378.5,732.3,991.9,905.0,732.3,724.9,1520.8,1180.6,3467.4,3472.2,1040.9,850.3,1373.0,3469.8,1172.6,1066.0,3475.9,3478.3,1289.1,1653.0,2400.8,2810.1,1312.4,3495.3,3478.3,3475.9,640.0,748.0,1456.2,895.7,835.2,741.4,17.0,-1.0,17.0,8109.0,-7651.0,10522.0,-5782.0,39.0,2.0,-1.0,2.0,5.0,-12.0,4832.0,-10566.0,-9445.0,6652.0,15.0,-1.0,-4.0,1.0
2022-05-13 15:13:30.007460-07:00,1367.6,732.3,991.9,905.0,730.7,724.1,1510.6,1180.6,3468.6,3472.2,1040.9,850.3,1374.8,3469.8,1167.4,1066.0,3475.9,3477.1,1284.6,1651.1,2400.8,2810.1,1312.4,3492.9,3478.3,3483.2,635.1,748.0,1456.2,895.7,835.2,721.6,3.0,-20.0,16.0,8103.0,-7652.0,10515.0,-5802.0,15.0,15.0,-47.0,4.0,-3.0,-4.0,4825.0,-10569.0,-9449.0,6645.0,-28.0,4.0,-6.0,1.0
2022-05-13 15:13:30.096889-07:00,1367.6,725.8,999.6,911.0,730.7,724.1,1514.3,1178.8,3468.6,3478.3,1049.6,857.0,1374.8,3469.8,1178.8,1066.9,3463.7,3467.4,1284.6,1651.1,2399.7,2814.6,1325.0,3492.9,3467.4,3478.3,635.1,748.0,1448.8,899.1,837.7,721.6,6.0,-15.0,11.0,8103.0,-7644.0,10508.0,-5824.0,37.0,38.0,0.0,5.0,0.0,-6.0,4827.0,-10569.0,-9449.0,6645.0,14.0,5.0,2.0,1.0
2022-05-13 15:13:30.139998-07:00,1365.7,719.2,999.6,911.0,724.1,722.5,1514.3,1178.8,3467.4,3462.5,1049.6,857.0,1369.4,3474.6,1178.8,1066.9,3463.7,3467.4,1316.9,1641.6,2399.7,2814.6,1320.5,3491.7,3467.4,3478.3,632.7,742.2,1448.8,899.1,829.4,720.8,10.0,6.0,-6.0,8106.0,-7631.0,10507.0,-5840.0,15.0,-4.0,-17.0,0.0,7.0,-9.0,4830.0,-10567.0,-9448.0,6647.0,-8.0,-1.0,-10.0,1.0
2022-05-13 15:13:30.186661-07:00,1365.7,719.2,988.5,916.0,724.1,722.5,1504.1,1177.0,3467.4,3462.5,1049.6,856.2,1369.4,3474.6,1173.5,1063.4,3478.3,3475.9,1316.9,1641.6,2410.3,2820.2,1320.5,3491.7,3479.5,3484.4,632.7,742.2,1456.2,891.5,829.4,720.8,21.0,-16.0,9.0,8107.0,-7643.0,10497.0,-5841.0,21.0,-32.0,-12.0,3.0,2.0,-13.0,4828.0,-10565.0,-9455.0,6643.0,19.0,-17.0,-13.0,1.0
2022-05-13 15:13:30.231820-07:00,1363.0,724.9,988.5,916.0,734.8,724.9,1504.1,1177.0,3467.4,3472.2,1049.6,856.2,1369.4,3467.4,1173.5,1063.4,3478.3,3475.9,1286.4,1643.5,2410.3,2820.2,1323.2,3488.0,3479.5,3484.4,625.4,743.0,1456.2,891.5,834.4,725.8,5.0,-19.0,21.0,8115.0,-7637.0,10490.0,-5850.0,29.0,-2.0,21.0,7.0,-5.0,-7.0,4832.0,-10554.0,-9457.0,6653.0,43.0,-21.0,-12.0,1.0
2022-05-13 15:13:30.274980-07:00,1363.0,724.9,991.9,905.0,734.8,724.9,1518.0,1183.2,3467.4,3472.2,1041.8,856.2,1369.4,3467.4,1168.2,1058.2,3473.4,3478.3,1286.4,1643.5,2391.3,2816.8,1323.2,3488.0,3462.5,3481.9,625.4,743.0,1447.9,891.5,834.4,725.8,1.0,-2.0,11.0,8127.0,-7614.0,10493.0,-5857.0,34.0,12.0,41.0,3.0,0.0,3.0,4844.0,-10547.0,-9450.0,6666.0,46.0,-1.0,6.0,1.0
2022-05-13 15:13:30.365628-07:00,1365.7,726.6,991.9,905.0,733.2,725.8,1518.0,1183.2,3467.4,3473.4,1042.6,856.2,1372.1,3473.4,1168.2,1058.2,3473.4,3478.3,1287.3,1637.9,2391.3,2819.1,1328.7,3492.9,3462.5,3481.9,635.1,740.6,1447.9,892.4,840.3,720.0,5.0,-9.0,6.0,8129.0,-7601.0,10494.0,-5871.0,8.0,30.0,-23.0,1.0,3.0,-6.0,4847.0,-10546.0,-9448.0,6668.0,-25.0,6.0,-2.0,1.0
2022-05-13 15:13:30.367503-07:00,1365.7,726.6,991.9,912.7,733.2,733.2,1516.2,1182.3,3467.4,3473.4,1042.6,857.0,1372.1,3467.4,1170.9,1068.6,3483.2,3469.8,1281.9,1637.9,2411.3,2819.1,1328.7,3492.9,3479.5,3466.1,634.3,740.6,1458.9,892.4,840.3,720.0,16.0,-15.0,6.0,8125.0,-7604.0,10489.0,-5879.0,-8.0,-27.0,-12.0,3.0,3.0,-15.0,4842.0,-10548.0,-9451.0,6663.0,-11.0,-2.0,-6.0,1.0
2022-05-13 15:13:30.411128-07:00,1372.1,729.0,987.6,912.7,736.5,733.2,1516.2,1182.3,3466.1,3478.3,1045.2,857.0,1374.8,3467.4,1170.9,1068.6,3483.2,3469.8,1281.9,1642.6,2411.3,2852.6,1326.8,3497.8,3479.5,3466.1,634.3,742.2,1458.9,896.6,835.2,726.6,9.0,2.0,-4.0,8132.0,-7602.0,10482.0,-5887.0,38.0,-23.0,-12.0,1.0,5.0,-6.0,4843.0,-10543.0,-9454.0,6666.0,19.0,-16.0,-17.0,1.0
2022-05-13 15:13:30.457458-07:00,1372.1,729.0,987.6,898.3,736.5,731.5,1524.5,1184.1,3466.1,3478.3,1045.2,857.9,1374.8,3480.7,1167.4,1057.3,3479.5,3478.3,1285.5,1642.6,2381.8,2852.6,1326.8,3497.8,3483.2,3477.1,639.2,742.2,1450.6,896.6,835.2,726.6,-6.0,-8.0,5.0,8139.0,-7606.0,10463.0,-5906.0,41.0,-1.0,-39.0,4.0,-2.0,-2.0,4842.0,-10536.0,-9462.0,6668.0,1.0,-11.0,-16.0,1.0
2022-05-13 15:13:30.591333-07:00,1373.9,740.6,986.7,898.3,731.5,731.5,1524.5,1184.1,3467.4,3466.1,1041.8,857.9,1367.6,3480.7,1167.4,1057.3,3479.5,3478.3,1285.5,1641.6,2381.8,2845.9,1330.5,3486.8,3483.2,3477.1,639.2,741.4,1450.6,894.9,825.2,717.5,0.0,-2.0,6.0,8144.0,-7597.0,10460.0,-5915.0,28.0,22.0,39.0,5.0,-2.0,0.0,4848.0,-10532.0,-9459.0,6673.0,36.0,2.0,8.0,1.0
2022-05-13 15:13:30.592686-07:00,1373.9,740.6,986.7,902.5,735.6,729.0,1514.3,1201.8,3467.4,3466.1,1041.8,862.1,1373.0,3473.4,1167.4,1066.0,3457.6,3471.0,1281.0,1632.2,2396.6,2845.9,1330.5,3486.8,3466.1,3478.3,635.1,737.3,1446.0,894.9,825.2,717.5,7.0,15.0,-10.0,8147.0,-7574.0,10468.0,-5926.0,52.0,37.0,16.0,3.0,8.0,-6.0,4854.0,-10530.0,-9453.0,6680.0,16.0,3.0,2.0,1.0
2022-05-13 15:13:30.680394-07:00,1373.9,734.0,985.0,905.0,735.6,729.0,1514.3,1201.8,3469.8,3475.9,1046.1,857.9,1373.0,3473.4,1167.4,1066.0,3457.6,3471.0,1281.0,1632.2,2389.2,2815.7,1331.4,3492.9,3466.1,3478.3,635.1,737.3,1449.7,895.7,838.6,719.2,-4.0,-3.0,-14.0,8139.0,-7580.0,10466.0,-5932.0,-12.0,10.0,-19.0,3.0,0.0,-3.0,4849.0,-10533.0,-9457.0,6675.0,-18.0,-1.0,-4.0,1.0
2022-05-13 15:13:30.681504-07:00,1373.9,734.0,985.0,905.0,735.6,718.4,1528.3,1173.5,3469.8,3475.9,1046.1,857.9,1374.8,3466.1,1167.4,1062.5,3474.6,3478.3,1273.9,1633.1,2389.2,2815.7,1331.4,3492.9,3472.2,3478.3,633.5,738.9,1449.7,895.7,838.6,719.2,11.0,17.0,-17.0,8137.0,-7609.0,10462.0,-5906.0,-92.0,-86.0,-33.0,3.0,11.0,-11.0,4842.0,-10534.0,-9464.0,6667.0,-50.0,-7.0,-16.0,1.0
2022-05-13 15:13:30.724691-07:00,1363.0,732.3,991.9,904.2,735.6,718.4,1528.3,1173.5,3467.4,3472.2,1042.6,860.4,1374.8,3466.1,1167.4,1062.5,3474.6,3478.3,1273.9,1633.1,2392.4,2816.8,1329.6,3490.5,3472.2,3478.3,633.5,738.9,1456.2,894.1,836.9,715.9,46.0,-76.0,65.0,8108.0,-7715.0,10455.0,-5818.0,-325.0,-233.0,-106.0,3.0,-5.0,12.0,4812.0,-10543.0,-9489.0,6640.0,-118.0,-35.0,-25.0,1.0
2022-05-13 15:13:30.816221-07:00,1363.0,732.3,991.9,904.2,737.3,728.2,1510.6,1171.8,3467.4,3472.2,1042.6,860.4,1370.3,3471.0,1170.0,1067.7,3478.3,3472.2,1282.8,1628.4,2392.4,2816.8,1329.6,3490.5,3481.9,3466.1,640.8,730.7,1456.2,894.1,836.9,715.9,-20.0,2.0,-15.0,8126.0,-7736.0,10433.0,-5806.0,-9.0,-46.0,-8.0,5.0,-4.0,4.0,4801.0,-10529.0,-9506.0,6645.0,5.0,-38.0,-26.0,1.0
2022-05-13 15:13:30.817358-07:00,1363.0,717.5,987.6,902.5,737.3,728.2,1510.6,1171.8,3464.9,3466.1,1042.6,856.2,1370.3,3471.0,1170.0,1067.7,3478.3,3472.2,1282.8,1628.4,2370.3,2796.8,1325.9,3491.7,3481.9,3466.1,640.8,730.7,1446.0,893.2,829.4,720.0,0.0,-20.0,26.0,8144.0,-7747.0,10425.0,-5780.0,-15.0,-28.0,46.0,5.0,-4.0,0.0,4802.0,-10514.0,-9512.0,6659.0,43.0,-29.0,-5.0,1.0
2022-05-13 15:13:30.861679-07:00,1363.0,717.5,987.6,902.5,740.6,730.7,1522.7,1170.9,3471.0,3466.1,1042.6,856.2,1368.5,3467.4,1167.4,1063.4,3478.3,3471.0,1266.7,1626.5,2370.3,2796.8,1325.9,3488.0,3475.9,3477.1,634.3,734.8,1446.0,893.2,829.4,726.6,-2.0,-3.0,12.0,8167.0,-7715.0,10431.0,-5781.0,60.0,22.0,78.0,5.0,-3.0,1.0,4815.0,-10502.0,-9502.0,6683.0,69.0,-9.0,13.0,1.0
2022-05-13 15:13:30.906728-07:00,1363.0,722.5,979.9,904.2,740.6,730.7,1522.7,1185.9,3471.0,3462.5,1044.4,852.8,1368.5,3467.4,1167.4,1067.7,3472.2,3471.0,1266.7,1626.5,2356.7,2812.4,1324.1,3488.0,3469.8,3477.1,634.3,734.8,1452.5,896.6,833.6,726.6,20.0,7.0,9.0,8187.0,-7685.0,10428.0,-5796.0,77.0,14.0,0.0,0.0,10.0,-14.0,4830.0,-10498.0,-9489.0,6698.0,18.0,12.0,5.0,1.0
2022-05-13 15:13:30.996799-07:00,1360.3,722.5,979.9,904.2,731.5,720.0,1516.2,1185.9,3483.2,3462.5,1044.4,852.8,1371.2,3469.8,1175.3,1067.7,3472.2,3475.9,1274.7,1634.1,2356.7,2812.4,1324.1,3492.9,3469.8,3478.3,635.1,738.1,1452.5,896.6,833.6,722.5,-1.0,-8.0,-10.0,8177.0,-7681.0,10422.0,-5826.0,1.0,39.0,-43.0,0.0,2.0,-8.0,4828.0,-10501.0,-9490.0,6693.0,-41.0,2.0,-1.0,1.0
2022-05-13 15:13:31.040918-07:00,1360.3,732.3,992.7,910.1,731.5,720.0,1516.2,1173.5,3483.2,3464.9,1043.5,851.1,1371.2,3469.8,1175.3,1055.6,3477.1,3475.9,1274.7,1634.1,2357.7,2796.8,1323.2,3492.9,3478.3,3478.3,635.1,738.1,1450.6,889.8,831.1,722.5,17.0,-3.0,6.0,8181.0,-7672.0,10423.0,-5831.0,52.0,-4.0,37.0,2.0,7.0,-13.0,4828.0,-10501.0,-9491.0,6692.0,55.0,-6.0,-3.0,1.0
2022-05-13 15:13:31.088148-07:00,1365.7,732.3,992.7,910.1,739.7,730.7,1515.3,1173.5,3478.3,3464.9,1043.5,851.1,1373.0,3457.6,1173.5,1055.6,3477.1,3485.6,1275.6,1622.8,2357.7,2796.8,1323.2,3495.3,3478.3,3481.9,626.2,737.3,1450.6,889.8,831.1,715.9,6.0,4.0,-1.0,8192.0,-7659.0,10416.0,-5844.0,12.0,-11.0,-18.0,3.0,6.0,-8.0,4835.0,-10494.0,-9485.0,6705.0,-12.0,-12.0,-12.0,1.0
2022-05-13 15:13:31.176787-07:00,1365.7,724.9,981.6,899.1,739.7,730.7,1514.3,1168.2,3478.3,3475.9,1041.8,850.3,1373.0,3457.6,1172.6,1059.1,3483.2,3477.1,1275.6,1622.8,2351.4,2804.6,1325.0,3495.3,3483.2,3478.3,626.2,737.3,1453.4,895.7,835.2,715.9,-1.0,-14.0,16.0,8191.0,-7660.0,10414.0,-5849.0,24.0,23.0,21.0,1.0,-6.0,0.0,4832.0,-10493.0,-9489.0,6704.0,12.0,1.0,-1.0,1.0
2022-05-13 15:13:31.178009-07:00,1361.2,724.9,981.6,899.1,731.5,727.4,1514.3,1168.2,3462.5,3471.0,1041.8,850.3,1370.3,3467.4,1172.6,1059.1,3483.2,3477.1,1274.7,1623.7,2351.4,2804.6,1328.7,3499.0,3483.2,3478.3,628.6,737.3,1453.4,895.7,836.1,718.4,13.0,12.0,-2.0,8198.0,-7636.0,10420.0,-5859.0,33.0,16.0,26.0,1.0,10.0,-7.0,4841.0,-10490.0,-9482.0,6713.0,23.0,5.0,9.0,1.0
2022-05-13 15:13:31.219818-07:00,1361.2,724.9,983.3,914.4,731.5,727.4,1506.0,1177.9,3462.5,3471.0,1042.6,855.3,1370.3,3467.4,1165.6,1063.4,3473.4,3469.8,1274.7,1623.7,2357.7,2810.1,1328.7,3499.0,3473.4,3483.2,628.6,737.3,1451.6,891.5,836.1,718.4,7.0,-12.0,9.0,8196.0,-7640.0,10413.0,-5872.0,54.0,24.0,-36.0,5.0,2.0,-6.0,4837.0,-10491.0,-9484.0,6709.0,-6.0,4.0,0.0,1.0
2022-05-13 15:13:31.309946-07:00,1362.1,724.1,983.3,914.4,731.5,724.1,1506.0,1177.9,3473.4,3467.4,1042.6,855.3,1369.4,3469.8,1165.6,1063.4,3473.4,3469.8,1280.1,1625.6,2357.7,2810.1,1326.8,3489.2,3473.4,3483.2,632.7,727.4,1451.6,891.5,831.9,718.4,2.0,-7.0,-3.0,8193.0,-7622.0,10413.0,-5899.0,29.0,39.0,14.0,7.0,-1.0,-8.0,4839.0,-10492.0,-9483.0,6708.0,7.0,11.0,8.0,1.0
2022-05-13 15:13:31.357674-07:00,1362.1,724.1,983.3,905.9,731.5,724.1,1513.4,1163.8,3473.4,3467.4,1040.1,850.3,1369.4,3469.8,1177.0,1066.0,3473.4,3474.6,1280.1,1625.6,2361.9,2807.9,1326.8,3489.2,3467.4,3479.5,632.7,727.4,1447.9,894.1,831.9,718.4,2.0,14.0,-11.0,8195.0,-7613.0,10415.0,-5903.0,20.0,-2.0,5.0,2.0,5.0,-6.0,4844.0,-10492.0,-9480.0,6710.0,9.0,4.0,2.0,1.0
2022-05-13 15:13:31.358793-07:00,1355.8,732.3,983.3,905.9,737.3,724.1,1513.4,1163.8,3468.6,3472.2,1040.1,850.3,1372.1,3467.4,1177.0,1066.0,3473.4,3474.6,1284.6,1621.8,2361.9,2807.9,1325.9,3495.3,3467.4,3479.5,636.7,730.7,1447.9,894.1,834.4,723.3,17.0,-6.0,10.0,8196.0,-7641.0,10397.0,-5898.0,-47.0,-95.0,-99.0,0.0,5.0,-10.0,4834.0,-10495.0,-9489.0,6699.0,-77.0,9.0,-18.0,1.0
2022-05-13 15:13:31.402292-07:00,1355.8,732.3,985.9,898.3,737.3,719.2,1517.1,1164.7,3468.6,3472.2,1034.9,856.2,1372.1,3467.4,1166.5,1060.8,3473.4,3469.8,1278.3,1621.8,2355.6,2811.3,1325.9,3495.3,3481.9,3471.0,635.9,730.7,1447.9,899.1,834.4,723.3,-7.0,-19.0,2.0,8190.0,-7662.0,10379.0,-5909.0,24.0,32.0,-25.0,5.0,-5.0,0.0,4823.0,-10499.0,-9499.0,6686.0,-8.0,7.0,1.0,1.0
2022-05-13 15:13:31.489852-07:00,1355.8,731.5,979.0,898.3,729.9,719.2,1517.1,1164.7,3475.9,3464.9,1044.4,856.2,1370.3,3467.4,1166.5,1060.8,3473.4,3469.8,1278.3,1627.5,2355.6,2799.0,1324.1,3496.6,3481.9,3471.0,635.9,729.9,1447.9,894.1,832.7,724.9,16.0,6.0,-3.0,8195.0,-7650.0,10382.0,-5913.0,10.0,5.0,25.0,3.0,9.0,-13.0,4829.0,-10499.0,-9493.0,6691.0,23.0,8.0,10.0,1.0
2022-05-13 15:13:31.580909-07:00,1355.8,731.5,979.0,905.9,729.9,724.9,1506.9,1167.4,3475.9,3464.9,1044.4,860.4,1370.3,3469.8,1171.8,1063.4,3479.5,3467.4,1267.6,1627.5,2356.7,2799.0,1324.1,3496.6,3471.0,3469.8,629.5,729.9,1448.8,894.1,832.7,724.9,7.0,-9.0,3.0,8196.0,-7648.0,10377.0,-5923.0,36.0,14.0,-22.0,6.0,0.0,-5.0,4828.0,-10499.0,-9493.0,6692.0,-7.0,-10.0,-6.0,1.0
2022-05-13 15:13:31.582133-07:00,1369.4,726.6,981.6,905.9,728.2,724.9,1506.9,1167.4,3469.8,3471.0,1039.2,860.4,1373.9,3469.8,1171.8,1063.4,3479.5,3467.4,1267.6,1615.2,2356.7,2807.9,1324.1,3490.5,3471.0,3469.8,629.5,728.2,1448.8,896.6,838.6,727.4,2.0,0.0,1.0,8200.0,-7638.0,10375.0,-5933.0,26.0,4.0,25.0,3.0,1.0,-7.0,4831.0,-10496.0,-9491.0,6697.0,28.0,5.0,7.0,1.0
2022-05-13 15:13:31.627177-07:00,1369.4,726.6,981.6,905.9,728.2,718.4,1512.5,1167.4,3469.8,3471.0,1039.2,865.4,1373.9,3467.4,1174.4,1059.1,3475.9,3472.2,1276.5,1615.2,2338.9,2807.9,1324.1,3490.5,3471.0,3467.4,634.3,728.2,1447.9,896.6,838.6,727.4,12.0,0.0,-1.0,8203.0,-7635.0,10375.0,-5934.0,-3.0,-3.0,-26.0,2.0,4.0,-12.0,4832.0,-10497.0,-9490.0,6696.0,-24.0,0.0,0.0,1.0
2022-05-13 15:13:31.716755-07:00,1360.3,726.6,987.6,900.8,736.5,718.4,1512.5,1167.4,3467.4,3478.3,1046.1,854.5,1372.1,3467.4,1174.4,1059.1,3475.9,3472.2,1276.5,1627.5,2360.9,2809.0,1325.0,3486.8,3471.0,3467.4,634.3,731.5,1456.2,893.2,852.0,722.5,5.0,-16.0,2.0,8197.0,-7647.0,10365.0,-5944.0,14.0,-3.0,-28.0,2.0,1.0,-2.0,4825.0,-10500.0,-9495.0,6690.0,-11.0,2.0,-5.0,1.0
2022-05-13 15:13:31.761436-07:00,1360.3,726.6,987.6,900.8,734.0,726.6,1519.9,1164.7,3467.4,3478.3,1046.1,854.5,1372.1,3462.5,1167.4,1059.9,3479.5,3477.1,1281.0,1613.4,2360.9,2809.0,1325.0,3486.8,3477.1,3472.2,635.9,731.5,1456.2,893.2,852.0,722.5,9.0,3.0,-15.0,8202.0,-7637.0,10363.0,-5954.0,34.0,6.0,18.0,3.0,4.0,-13.0,4830.0,-10498.0,-9492.0,6694.0,25.0,-6.0,-5.0,1.0
2022-05-13 15:13:31.762930-07:00,1365.7,738.9,988.5,902.5,734.0,726.6,1519.9,1164.7,3467.4,3474.6,1045.2,859.5,1372.1,3462.5,1167.4,1059.9,3479.5,3477.1,1281.0,1613.4,2349.4,2801.2,1327.8,3507.5,3477.1,3472.2,635.9,731.5,1447.9,893.2,834.4,717.5,12.0,14.0,-37.0,8199.0,-7662.0,10353.0,-5943.0,-73.0,-113.0,-73.0,1.0,16.0,-19.0,4821.0,-10494.0,-9504.0,6687.0,-58.0,-25.0,-41.0,1.0
2022-05-13 15:13:31.806776-07:00,1365.7,738.9,988.5,902.5,734.0,725.8,1529.2,1170.9,3467.4,3474.6,1045.2,859.5,1373.0,3467.4,1173.5,1066.9,3484.4,3467.4,1276.5,1611.5,2349.4,2801.2,1327.8,3507.5,3483.2,3469.8,606.0,729.9,1447.9,893.2,834.4,717.5,-46.0,49.0,-108.0,8192.0,-7748.0,10330.0,-5881.0,-245.0,-173.0,-46.0,3.0,1.0,-16.0,4793.0,-10485.0,-9540.0,6672.0,-90.0,-63.0,-47.0,1.0
2022-05-13 15:13:31.851705-07:00,1350.3,731.5,993.6,904.2,734.0,725.8,1529.2,1170.9,3472.2,3473.4,1040.1,859.5,1373.0,3467.4,1173.5,1066.9,3484.4,3467.4,1276.5,1611.5,2367.2,2799.0,1324.1,3486.8,3483.2,3469.8,606.0,729.9,1453.4,892.4,838.6,725.8,-128.0,109.0,-205.0,8181.0,-8001.0,10310.0,-5585.0,-942.0,-927.0,-94.0,0.0,-7.0,49.0,4706.0,-10475.0,-9607.0,6654.0,-238.0,-232.0,-44.0,1.0
2022-05-13 15:13:31.941465-07:00,1354.0,731.5,993.6,904.2,723.3,716.7,1522.7,1178.8,3474.6,3473.4,1040.1,859.5,1369.4,3467.4,1175.3,1069.5,3474.6,3483.2,1263.1,1632.2,2367.2,2799.0,1324.1,3491.7,3474.6,3478.3,635.1,743.9,1453.4,892.4,838.6,724.1,61.0,201.0,-285.0,8339.0,-8685.0,9955.0,-4936.0,-1623.0,-2541.0,-958.0,-6.0,67.0,-42.0,4512.0,-10447.0,-9762.0,6606.0,-805.0,-364.0,-170.0,1.0
2022-05-13 15:13:31.985033-07:00,1354.0,729.0,984.2,894.9,723.3,716.7,1522.7,1158.6,3474.6,3478.3,1047.0,852.8,1369.4,3467.4,1175.3,1059.1,3483.2,3483.2,1263.1,1632.2,2390.3,2796.8,1317.8,3491.7,3478.3,3478.3,635.1,743.9,1458.9,891.5,836.9,724.1,101.0,-37.0,-195.0,8460.0,-9939.0,9074.0,-3970.0,-2097.0,-3717.0,-1964.0,9.0,-7.0,-17.0,4097.0,-10469.0,-10113.0,6306.0,-1531.0,-281.0,-367.0,1.0
2022-05-13 15:13:32.077103-07:00,1343.1,729.0,984.2,894.9,733.2,719.2,1525.5,1158.6,3468.6,3478.3,1047.0,852.8,1372.1,3475.9,1177.9,1059.1,3483.2,3474.6,1280.1,1664.4,2390.3,2796.8,1317.8,3491.7,3478.3,3479.5,663.6,806.9,1458.9,891.5,836.9,723.3,196.0,-103.0,-131.0,8790.0,-11145.0,7652.0,-2898.0,-1082.0,-4579.0,-2111.0,17.0,-36.0,-12.0,3815.0,-10432.0,-10432.0,6018.0,-716.0,-135.0,-499.0,1.0
2022-05-13 15:13:32.078290-07:00,1343.1,717.5,969.6,882.3,733.2,719.2,1525.5,1143.6,3468.6,3478.3,1048.7,852.0,1372.1,3475.9,1177.9,1070.3,3472.2,3474.6,1280.1,1664.4,2397.6,2829.1,1307.9,3491.7,3467.4,3479.5,663.6,806.9,1454.3,901.7,842.8,723.3,256.0,18.0,-91.0,9430.0,-11882.0,5883.0,-1925.0,81.0,-4705.0,-2152.0,-3.0,44.0,-75.0,3827.0,-10281.0,-10611.0,5959.0,76.0,-127.0,-529.0,1.0
2022-05-13 15:13:32.119934-07:00,1326.8,717.5,969.6,882.3,728.2,727.4,1530.1,1143.6,3469.8,3478.3,1048.7,852.0,1367.6,3461.3,1179.7,1070.3,3472.2,3477.1,1279.2,1731.1,2397.6,2829.1,1307.9,3492.9,3467.4,3479.5,672.5,827.7,1454.3,901.7,842.8,723.3,176.0,-184.0,82.0,9931.0,-12315.0,4129.0,-1052.0,-3.0,-4018.0,-1789.0,-7.0,8.0,-40.0,3910.0,-10098.0,-10727.0,6009.0,384.0,-199.0,-427.0,1.0
2022-05-13 15:13:32.166915-07:00,1326.8,714.2,958.5,889.0,728.2,727.4,1530.1,1133.1,3469.8,3478.3,1044.4,852.0,1367.6,3461.3,1179.7,1055.6,3467.4,3477.1,1279.2,1731.1,2375.5,2829.1,1297.2,3492.9,3472.2,3479.5,672.5,827.7,1449.7,891.5,842.8,723.3,105.0,-126.0,252.0,10371.0,-12347.0,2885.0,-328.0,978.0,-2733.0,-645.0,6.0,-58.0,19.0,4105.0,-9881.0,-10702.0,6278.0,1198.0,-273.0,-235.0,1.0
2022-05-13 15:13:32.209836-07:00,1303.4,711.8,958.5,889.0,728.2,724.9,1525.5,1133.1,3474.6,3467.4,1044.4,852.0,1367.6,3474.6,1169.1,1055.6,3467.4,3473.4,1266.7,1749.3,2375.5,2829.1,1291.8,3497.8,3472.2,3471.0,672.5,812.7,1449.7,891.5,841.1,718.4,113.0,100.0,209.0,10861.0,-12060.0,2240.0,109.0,856.0,-1287.0,-332.0,15.0,42.0,10.0,4358.0,-9672.0,-10586.0,6621.0,681.0,-148.0,-167.0,1.0
2022-05-13 15:13:32.257348-07:00,1303.4,711.8,964.5,889.8,728.2,724.9,1520.8,1101.7,3474.6,3467.4,1046.1,855.3,1367.6,3474.6,1178.8,1059.1,3469.8,3479.5,1266.7,1749.3,2381.8,2834.7,1291.8,3497.8,3473.4,3481.9,672.5,812.7,1453.4,891.5,841.1,718.4,16.0,-76.0,173.0,11029.0,-11953.0,1975.0,157.0,284.0,-217.0,-264.0,10.0,-41.0,67.0,4447.0,-9599.0,-10557.0,6714.0,236.0,11.0,-28.0,1.0
2022-05-13 15:13:32.346351-07:00,1274.7,710.1,964.5,889.8,732.3,720.0,1520.8,1101.7,3457.6,3473.4,1046.1,855.3,1380.3,3468.6,1178.8,1059.1,3469.8,3479.5,1248.8,1738.7,2381.8,2834.7,1286.4,3489.2,3473.4,3481.9,668.4,801.9,1453.4,891.5,834.4,716.7,14.0,6.0,76.0,11078.0,-11898.0,2037.0,91.0,114.0,463.0,168.0,2.0,10.0,14.0,4476.0,-9616.0,-10520.0,6727.0,-66.0,88.0,88.0,1.0
2022-05-13 15:13:32.347559-07:00,1274.7,710.1,957.7,889.0,732.3,720.0,1506.9,1102.5,3457.6,3473.4,1046.1,858.7,1380.3,3468.6,1175.3,1054.8,3469.8,3471.0,1248.8,1738.7,2341.0,2819.1,1286.4,3489.2,3483.2,3478.3,668.4,801.9,1457.1,890.7,834.4,716.7,-10.0,4.0,-9.0,10995.0,-11927.0,2299.0,-49.0,-241.0,720.0,206.0,3.0,1.0,-5.0,4426.0,-9688.0,-10529.0,6643.0,-294.0,103.0,86.0,1.0
2022-05-13 15:13:32.482169-07:00,1269.4,707.7,957.7,889.0,741.4,722.5,1506.9,1102.5,3466.1,3471.0,1046.1,858.7,1371.2,3475.9,1175.3,1054.8,3469.8,3471.0,1244.4,1733.0,2341.0,2819.1,1281.9,3481.9,3483.2,3478.3,663.6,784.4,1457.1,890.7,845.3,721.6,-28.0,3.0,-66.0,10910.0,-11957.0,2529.0,-176.0,-85.0,502.0,167.0,1.0,11.0,-26.0,4394.0,-9739.0,-10531.0,6587.0,-127.0,64.0,69.0,1.0
2022-05-13 15:13:32.484151-07:00,1269.4,707.7,961.1,897.4,741.4,724.9,1503.2,1104.3,3466.1,3471.0,1044.4,854.5,1371.2,3467.4,1174.4,1059.9,3475.9,3473.4,1236.4,1733.0,2324.3,2806.8,1281.9,3481.9,3467.4,3477.1,668.4,784.4,1449.7,891.5,845.3,721.6,-26.0,4.0,-61.0,10863.0,-11963.0,2693.0,-245.0,-83.0,314.0,167.0,-1.0,16.0,-30.0,4364.0,-9775.0,-10536.0,6546.0,-106.0,3.0,13.0,1.0
2022-05-13 15:13:32.526676-07:00,1271.2,713.4,959.4,897.4,731.5,724.9,1503.2,1104.3,3477.1,3464.9,1043.5,854.5,1373.9,3467.4,1174.4,1059.9,3475.9,3473.4,1236.4,1724.4,2324.3,2780.1,1280.1,3491.7,3467.4,3477.1,668.4,793.5,1449.7,891.5,836.9,727.4,-11.0,5.0,-13.0,10809.0,-11984.0,2814.0,-243.0,-36.0,100.0,138.0,5.0,2.0,-2.0,4344.0,-9785.0,-10547.0,6526.0,0.0,-9.0,8.0,1.0
2022-05-13 15:13:32.570537-07:00,1271.2,713.4,959.4,889.8,731.5,718.4,1494.0,1104.3,3477.1,3464.9,1043.5,862.1,1373.9,3468.6,1167.4,1064.3,3474.6,3468.6,1239.9,1724.4,2331.6,2780.1,1280.1,3491.7,3471.0,3473.4,666.8,793.5,1450.6,891.5,836.9,727.4,-10.0,-1.0,9.0,10803.0,-11975.0,2877.0,-238.0,11.0,110.0,112.0,3.0,4.0,-3.0,4342.0,-9784.0,-10548.0,6526.0,-11.0,-3.0,-2.0,1.0
2022-05-13 15:13:32.616987-07:00,1267.6,708.5,957.7,889.8,730.7,718.4,1494.0,1104.3,3471.0,3467.4,1044.4,862.1,1373.0,3468.6,1167.4,1064.3,3474.6,3468.6,1239.9,1718.6,2331.6,2803.5,1277.4,3495.3,3471.0,3473.4,666.8,791.0,1450.6,890.7,834.4,724.1,-9.0,3.0,19.0,10785.0,-11972.0,2955.0,-242.0,-63.0,139.0,125.0,5.0,-3.0,4.0,4334.0,-9789.0,-10551.0,6519.0,-47.0,11.0,19.0,1.0
2022-05-13 15:13:32.661747-07:00,1267.6,708.5,957.7,892.4,730.7,722.5,1490.3,1110.4,3471.0,3467.4,1044.4,852.0,1373.0,3480.7,1173.5,1059.1,3477.1,3479.5,1230.2,1718.6,2347.3,2803.5,1277.4,3495.3,3477.1,3478.3,660.3,791.0,1447.9,890.7,834.4,724.1,-6.0,11.0,8.0,10761.0,-11974.0,3033.0,-260.0,-45.0,181.0,76.0,3.0,6.0,-5.0,4323.0,-9804.0,-10551.0,6504.0,-56.0,24.0,20.0,1.0
2022-05-13 15:13:32.704794-07:00,1264.0,701.9,961.1,889.8,732.3,722.5,1490.3,1110.4,3463.7,3463.7,1043.5,860.4,1372.1,3480.7,1173.5,1059.1,3477.1,3479.5,1230.2,1711.9,2327.4,2796.8,1270.3,3490.5,3477.1,3478.3,660.3,784.4,1455.2,891.5,834.4,715.1,-15.0,-5.0,-16.0,10723.0,-11987.0,3111.0,-290.0,-98.0,172.0,88.0,-1.0,5.0,-16.0,4305.0,-9822.0,-10558.0,6478.0,-100.0,11.0,17.0,1.0
2022-05-13 15:13:32.752464-07:00,1264.0,701.9,961.1,889.8,728.2,715.1,1504.1,1105.1,3463.7,3463.7,1043.5,860.4,1367.6,3466.1,1177.0,1062.5,3474.6,3473.4,1229.3,1694.8,2327.4,2796.8,1270.3,3490.5,3479.5,3477.1,666.8,785.2,1455.2,891.5,834.4,715.1,-9.0,1.0,-4.0,10674.0,-12011.0,3185.0,-301.0,-103.0,141.0,86.0,0.0,0.0,-6.0,4276.0,-9836.0,-10575.0,6448.0,-101.0,3.0,5.0,1.0
2022-05-13 15:13:32.841622-07:00,1263.1,702.8,955.1,882.3,728.2,715.1,1504.1,1105.1,3472.2,3475.9,1044.4,855.3,1367.6,3466.1,1177.0,1062.5,3474.6,3473.4,1229.3,1694.8,2317.0,2790.1,1281.9,3496.6,3479.5,3477.1,666.8,785.2,1448.8,897.4,841.1,723.3,-8.0,-1.0,0.0,10648.0,-12016.0,3251.0,-319.0,-14.0,151.0,71.0,1.0,4.0,-10.0,4261.0,-9839.0,-10584.0,6439.0,-16.0,-16.0,-3.0,1.0
2022-05-13 15:13:32.976801-07:00,1263.1,702.8,955.1,882.3,737.3,718.4,1496.7,1092.9,3472.2,3475.9,1044.4,855.3,1375.7,3474.6,1170.0,1062.5,3475.9,3478.3,1223.0,1707.2,2317.0,2790.1,1281.9,3496.6,3484.4,3475.9,672.5,785.2,1448.8,897.4,841.1,723.3,-10.0,3.0,-1.0,10634.0,-12013.0,3308.0,-341.0,-35.0,97.0,55.0,5.0,-1.0,3.0,4251.0,-9840.0,-10590.0,6435.0,-37.0,-3.0,1.0,1.0
2022-05-13 15:13:33.021741-07:00,1276.5,706.0,945.8,884.8,737.3,718.4,1496.7,1092.9,3467.4,3468.6,1041.8,857.9,1375.7,3474.6,1170.0,1062.5,3475.9,3478.3,1223.0,1707.2,2317.0,2785.7,1276.5,3492.9,3484.4,3475.9,672.5,785.2,1456.2,889.0,844.4,722.5,-3.0,7.0,3.0,10612.0,-12022.0,3342.0,-343.0,-54.0,59.0,43.0,2.0,8.0,-4.0,4242.0,-9845.0,-10596.0,6422.0,-40.0,8.0,4.0,1.0
2022-05-13 15:13:33.022935-07:00,1276.5,706.0,945.8,884.8,738.1,718.4,1500.4,1101.7,3467.4,3468.6,1041.8,857.9,1369.4,3463.7,1173.5,1059.1,3471.0,3469.8,1220.4,1703.3,2317.0,2785.7,1276.5,3492.9,3480.7,3478.3,668.4,788.6,1456.2,889.0,844.4,722.5,-6.0,0.0,-1.0,10591.0,-12031.0,3376.0,-354.0,-39.0,98.0,33.0,2.0,0.0,0.0,4230.0,-9850.0,-10604.0,6409.0,-37.0,-8.0,2.0,1.0
2022-05-13 15:13:33.024003-07:00,1259.6,704.4,956.8,894.1,738.1,718.4,1500.4,1092.1,3468.6,3469.8,1040.1,859.5,1369.4,3463.7,1173.5,1059.1,3475.9,3469.8,1220.4,1703.3,2317.0,2781.2,1274.7,3497.8,3471.0,3478.3,668.4,788.6,1447.9,890.7,839.4,725.8,-5.0,-1.0,1.0,10577.0,-12034.0,3406.0,-368.0,-2.0,52.0,30.0,3.0,4.0,-5.0,4225.0,-9852.0,-10607.0,6404.0,-5.0,0.0,3.0,1.0
2022-05-13 15:13:33.064888-07:00,1258.7,704.4,956.8,894.1,742.2,721.6,1499.5,1092.1,3473.4,3469.8,1040.1,859.5,1372.1,3472.2,1167.4,1059.1,3475.9,3474.6,1230.2,1707.2,2317.0,2781.2,1274.7,3485.6,3471.0,3478.3,661.9,773.6,1447.9,890.7,839.4,728.2,-2.0,0.0,-1.0,10564.0,-12039.0,3429.0,-364.0,-56.0,35.0,42.0,0.0,2.0,-11.0,4217.0,-9856.0,-10612.0,6395.0,-41.0,-4.0,1.0,1.0
2022-05-13 15:13:33.109960-07:00,1258.7,701.9,956.0,885.6,742.2,721.6,1499.5,1097.3,3473.4,3466.1,1043.5,845.3,1372.1,3472.2,1167.4,1066.9,3485.6,3474.6,1230.2,1707.2,2287.9,2784.6,1268.5,3485.6,3480.7,3478.3,661.9,773.6,1452.5,887.3,850.3,728.2,-5.0,8.0,-7.0,10555.0,-12042.0,3446.0,-369.0,24.0,23.0,-5.0,0.0,4.0,-2.0,4216.0,-9856.0,-10613.0,6393.0,22.0,-7.0,-5.0,1.0
2022-05-13 15:13:33.156601-07:00,1256.9,701.9,956.0,885.6,732.3,724.9,1494.9,1097.3,3469.8,3466.1,1043.5,845.3,1370.3,3478.3,1175.3,1066.9,3485.6,3488.0,1219.5,1692.9,2287.9,2784.6,1268.5,3489.2,3480.7,3483.2,651.4,770.3,1452.5,887.3,850.3,723.3,-3.0,-7.0,0.0,10559.0,-12041.0,3437.0,-368.0,-16.0,-27.0,0.0,1.0,2.0,-8.0,4216.0,-9856.0,-10613.0,6394.0,-8.0,-14.0,-7.0,1.0
2022-05-13 15:13:33.247231-07:00,1256.9,700.3,960.2,885.6,732.3,724.9,1494.9,1101.7,3469.8,3471.0,1035.7,851.1,1370.3,3478.3,1175.3,1055.6,3478.3,3488.0,1219.5,1692.9,2305.6,2776.8,1267.6,3489.2,3484.4,3483.2,651.4,770.3,1453.4,894.9,832.7,723.3,-3.0,1.0,6.0,10560.0,-12041.0,3438.0,-363.0,6.0,6.0,8.0,6.0,0.0,-2.0,4213.0,-9854.0,-10615.0,6396.0,0.0,-9.0,-5.0,1.0
2022-05-13 15:13:33.248780-07:00,1255.1,703.6,960.2,885.6,718.4,719.2,1496.7,1101.7,3462.5,3469.8,1035.7,851.1,1367.6,3468.6,1173.5,1055.6,3478.3,3483.2,1220.4,1691.9,2305.6,2776.8,1268.5,3490.5,3484.4,3480.7,657.9,780.3,1453.4,894.9,840.3,722.5,-4.0,-7.0,2.0,10559.0,-12041.0,3438.0,-363.0,-14.0,0.0,2.0,2.0,3.0,-5.0,4213.0,-9854.0,-10615.0,6395.0,-11.0,2.0,0.0,1.0
2022-05-13 15:13:33.337306-07:00,1255.1,703.6,954.3,889.8,718.4,719.2,1495.8,1094.7,3462.5,3469.8,1043.5,858.7,1367.6,3468.6,1172.6,1063.4,3477.1,3478.3,1220.4,1691.9,2305.6,2777.9,1268.5,3490.5,3478.3,3478.3,657.9,780.3,1454.3,891.5,840.3,722.5,0.0,5.0,-7.0,10559.0,-12040.0,3441.0,-360.0,-1.0,3.0,16.0,2.0,9.0,-10.0,4212.0,-9855.0,-10616.0,6394.0,-5.0,-1.0,-4.0,1.0
2022-05-13 15:13:33.472784-07:00,1247.1,701.9,954.3,889.8,731.5,727.4,1495.8,1094.7,3475.9,3475.9,1043.5,858.7,1369.4,3467.4,1172.6,1063.4,3477.1,3478.3,1208.9,1689.1,2305.6,2777.9,1271.2,3499.0,3478.3,3478.3,658.7,774.5,1454.3,891.5,839.4,724.1,-6.0,-6.0,-1.0,10557.0,-12042.0,3439.0,-359.0,-2.0,-15.0,-15.0,3.0,1.0,-3.0,4207.0,-9857.0,-10619.0,6389.0,-7.0,-2.0,-7.0,1.0
2022-05-13 15:13:33.516404-07:00,1247.1,701.9,952.6,886.5,731.5,727.4,1512.5,1083.4,3475.9,3475.9,1041.8,856.2,1369.4,3467.4,1168.2,1056.5,3469.8,3475.9,1208.9,1689.1,2298.3,2781.2,1271.2,3499.0,3467.4,3481.9,658.7,774.5,1452.5,894.1,839.4,724.1,-6.0,-5.0,5.0,10562.0,-12042.0,3429.0,-354.0,2.0,-28.0,3.0,0.0,3.0,-4.0,4208.0,-9857.0,-10619.0,6388.0,8.0,-2.0,-7.0,1.0
2022-05-13 15:13:33.517689-07:00,1249.7,702.8,952.6,886.5,726.6,720.8,1512.5,1083.4,3468.6,3477.1,1041.8,856.2,1373.0,3474.6,1168.2,1056.5,3469.8,3475.9,1219.5,1687.2,2298.3,2781.2,1265.8,3497.8,3467.4,3481.9,657.9,770.3,1452.5,894.1,836.9,715.9,-3.0,7.0,11.0,10563.0,-12039.0,3436.0,-343.0,5.0,12.0,31.0,0.0,2.0,-2.0,4207.0,-9856.0,-10619.0,6391.0,6.0,-11.0,2.0,1.0
2022-05-13 15:13:33.518797-07:00,1249.7,702.8,949.2,895.7,726.6,717.5,1490.3,1100.8,3468.6,3477.1,1044.4,858.7,1373.0,3464.9,1167.4,1062.5,3474.6,3478.3,1214.2,1687.2,2300.4,2775.7,1265.8,3497.8,3467.4,3475.9,652.2,770.3,1456.2,884.8,836.9,715.9,-1.0,-7.0,-1.0,10560.0,-12039.0,3442.0,-344.0,-10.0,5.0,1.0,3.0,0.0,-6.0,4206.0,-9856.0,-10620.0,6389.0,-5.0,-5.0,0.0,1.0
2022-05-13 15:13:33.560893-07:00,1245.3,698.7,956.8,895.7,734.0,717.5,1490.3,1100.8,3468.6,3474.6,1042.6,858.7,1374.8,3464.9,1167.4,1062.5,3474.6,3478.3,1214.2,1683.3,2300.4,2774.6,1264.0,3496.6,3467.4,3475.9,652.2,773.6,1456.2,889.8,838.6,724.9,0.0,1.0,-2.0,10560.0,-12038.0,3446.0,-342.0,-3.0,7.0,12.0,3.0,2.0,-10.0,4205.0,-9856.0,-10620.0,6388.0,-2.0,-1.0,-4.0,1.0
2022-05-13 15:13:33.606473-07:00,1245.3,698.7,956.8,888.2,734.0,718.4,1476.4,1093.8,3468.6,3474.6,1042.6,850.3,1374.8,3474.6,1167.4,1061.7,3481.9,3469.8,1227.5,1683.3,2296.2,2774.6,1264.0,3496.6,3477.1,3480.7,657.0,773.6,1451.6,889.8,838.6,724.9,-4.0,-1.0,3.0,10562.0,-12037.0,3446.0,-342.0,20.0,-8.0,-12.0,2.0,4.0,0.0,4207.0,-9856.0,-10619.0,6390.0,13.0,-4.0,-5.0,1.0
2022-05-13 15:13:33.741817-07:00,1242.6,702.8,953.4,888.2,732.3,718.4,1476.4,1093.8,3469.8,3468.6,1036.6,850.3,1371.2,3474.6,1167.4,1061.7,3481.9,3469.8,1227.5,1686.2,2296.2,2784.6,1267.6,3496.6,3477.1,3480.7,657.0,769.5,1451.6,898.3,845.3,720.0,-4.0,-3.0,6.0,10566.0,-12035.0,3442.0,-340.0,-7.0,-10.0,3.0,3.0,2.0,-5.0,4208.0,-9855.0,-10618.0,6392.0,-7.0,-4.0,-4.0,1.0
2022-05-13 15:13:33.743518-07:00,1242.6,702.8,953.4,882.3,732.3,718.4,1472.7,1097.3,3469.8,3468.6,1036.6,852.0,1371.2,3474.6,1163.8,1053.0,3474.6,3473.4,1217.7,1686.2,2298.3,2784.6,1267.6,3496.6,3477.1,3468.6,656.2,769.5,1452.5,898.3,845.3,720.0,-1.0,1.0,-2.0,10566.0,-12035.0,3442.0,-340.0,2.0,2.0,-2.0,2.0,2.0,-6.0,4208.0,-9855.0,-10618.0,6392.0,-2.0,-5.0,-4.0,1.0
2022-05-13 15:13:33.744596-07:00,1245.3,703.6,958.5,882.3,733.2,718.4,1472.7,1097.3,3471.0,3467.4,1040.1,852.0,1371.2,3474.6,1163.8,1053.0,3474.6,3473.4,1217.7,1679.5,2298.3,2772.4,1267.6,3490.5,3477.1,3468.6,656.2,769.5,1452.5,891.5,843.6,719.2,-3.0,-6.0,-8.0,10566.0,-12035.0,3440.0,-341.0,7.0,0.0,-3.0,1.0,2.0,-9.0,4208.0,-9855.0,-10618.0,6392.0,6.0,-7.0,-6.0,1.0
2022-05-13 15:13:33.830954-07:00,1245.3,703.6,958.5,878.9,732.3,721.6,1493.0,1087.7,3471.0,3467.4,1040.1,849.5,1373.9,3477.1,1168.2,1055.6,3481.9,3479.5,1215.1,1688.1,2286.9,2772.4,1267.6,3490.5,3479.5,3480.7,663.6,768.7,1448.8,891.5,843.6,719.2,0.0,5.0,6.0,10565.0,-12035.0,3443.0,-337.0,-1.0,-15.0,16.0,3.0,0.0,-2.0,4209.0,-9855.0,-10618.0,6392.0,12.0,-5.0,-2.0,1.0
2022-05-13 15:13:33.921276-07:00,1249.7,692.1,946.6,881.4,732.3,721.6,1493.0,1087.7,3474.6,3473.4,1040.1,857.0,1373.9,3477.1,1168.2,1055.6,3481.9,3479.5,1215.1,1688.1,2291.0,2770.2,1269.4,3502.7,3479.5,3480.7,663.6,768.7,1447.9,894.1,841.9,716.7,-1.0,0.0,4.0,10570.0,-12032.0,3438.0,-338.0,13.0,0.0,-12.0,1.0,6.0,-3.0,4211.0,-9854.0,-10617.0,6394.0,6.0,-3.0,-4.0,1.0
2022-05-13 15:13:33.922919-07:00,1249.7,692.1,946.6,881.4,733.2,715.1,1489.3,1090.3,3474.6,3473.4,1040.1,857.0,1372.1,3463.7,1173.5,1066.9,3477.1,3480.7,1209.7,1692.9,2291.0,2770.2,1269.4,3502.7,3483.2,3477.1,668.4,764.5,1447.9,894.1,841.9,716.7,0.0,0.0,-3.0,10567.0,-12034.0,3442.0,-334.0,-20.0,1.0,30.0,1.0,8.0,-7.0,4208.0,-9855.0,-10618.0,6392.0,-12.0,-5.0,1.0,1.0
2022-05-13 15:13:34.011387-07:00,1248.8,697.9,949.2,892.4,733.2,715.1,1489.3,1090.3,3471.0,3478.3,1043.5,857.9,1372.1,3463.7,1173.5,1066.9,3477.1,3480.7,1209.7,1692.9,2280.7,2772.4,1267.6,3497.8,3483.2,3477.1,668.4,764.5,1456.2,892.4,845.3,725.8,-2.0,2.0,2.0,10565.0,-12034.0,3448.0,-329.0,6.0,10.0,0.0,2.0,1.0,-7.0,4208.0,-9855.0,-10619.0,6391.0,4.0,-1.0,-3.0,1.0
2022-05-13 15:13:34.014264-07:00,1248.8,697.9,949.2,892.4,732.3,724.9,1482.9,1087.7,3471.0,3478.3,1043.5,857.9,1366.6,3469.8,1164.7,1063.4,3469.8,3483.2,1213.3,1675.7,2280.7,2772.4,1267.6,3497.8,3472.2,3475.9,660.3,770.3,1456.2,892.4,845.3,725.8,-5.0,-11.0,-6.0,10569.0,-12032.0,3444.0,-329.0,-7.0,-21.0,3.0,2.0,1.0,-10.0,4209.0,-9855.0,-10618.0,6392.0,-8.0,-4.0,-4.0,1.0
2022-05-13 15:13:34.146564-07:00,1237.3,690.5,949.2,892.4,732.3,724.9,1482.9,1089.5,3472.2,3468.6,1034.9,852.8,1366.6,3469.8,1164.7,1061.7,3474.6,3483.2,1213.3,1675.7,2290.0,2764.6,1267.6,3489.2,3472.2,3475.9,660.3,770.3,1452.5,907.6,839.4,722.5,1.0,8.0,12.0,10565.0,-12034.0,3450.0,-320.0,5.0,6.0,16.0,6.0,0.0,-1.0,4207.0,-9854.0,-10619.0,6393.0,11.0,1.0,0.0,1.0
2022-05-13 15:13:34.148620-07:00,1246.2,690.5,949.2,892.4,733.2,720.0,1484.7,1089.5,3473.4,3468.6,1034.9,852.8,1368.5,3478.3,1167.4,1061.7,3474.6,3468.6,1213.3,1680.5,2290.0,2764.6,1267.6,3497.8,3472.2,3475.9,661.9,762.9,1452.5,907.6,839.4,741.4,-7.0,-8.0,-1.0,10565.0,-12033.0,3451.0,-326.0,-3.0,18.0,-6.0,1.0,1.0,-8.0,4208.0,-9854.0,-10618.0,6393.0,-9.0,0.0,3.0,1.0
2022-05-13 15:13:34.149695-07:00,1246.2,697.0,944.1,892.4,733.2,720.0,1484.7,1087.7,3473.4,3471.0,1044.4,857.0,1368.5,3478.3,1167.4,1062.5,3475.9,3468.6,1213.3,1680.5,2292.1,2756.9,1263.1,3497.8,3472.2,3475.9,661.9,762.9,1447.9,888.2,841.9,741.4,0.0,0.0,0.0,10561.0,-12035.0,3457.0,-321.0,-28.0,-5.0,18.0,4.0,1.0,-6.0,4204.0,-9856.0,-10621.0,6390.0,-16.0,-6.0,1.0,1.0
2022-05-13 15:13:34.236691-07:00,1236.4,697.0,944.1,892.4,720.8,724.1,1481.0,1087.7,3464.9,3471.0,1044.4,857.0,1370.3,3468.6,1170.9,1062.5,3475.9,3478.3,1210.6,1678.6,2292.1,2756.9,1263.1,3496.6,3472.2,3483.2,649.7,772.8,1447.9,888.2,841.9,720.8,2.0,6.0,-4.0,10565.0,-12032.0,3457.0,-322.0,25.0,-1.0,-18.0,6.0,8.0,-7.0,4204.0,-9854.0,-10620.0,6394.0,11.0,-7.0,-7.0,1.0
2022-05-13 15:13:34.326908-07:00,1236.4,700.3,955.1,885.6,720.8,724.1,1481.0,1092.1,3464.9,3478.3,1040.9,858.7,1370.3,3468.6,1170.9,1066.0,3472.2,3478.3,1210.6,1678.6,2286.9,2764.6,1267.6,3496.6,3488.0,3483.2,649.7,772.8,1447.9,889.0,837.7,720.8,-1.0,-5.0,2.0,10563.0,-12034.0,3454.0,-320.0,-16.0,-9.0,21.0,4.0,2.0,-7.0,4203.0,-9854.0,-10622.0,6392.0,-8.0,-7.0,-4.0,1.0
2022-05-13 15:13:34.328106-07:00,1241.7,700.3,955.1,885.6,742.2,719.2,1480.1,1092.1,3467.4,3478.3,1040.9,858.7,1368.5,3474.6,1172.6,1066.0,3472.2,3467.4,1216.8,1680.5,2286.9,2764.6,1267.6,3500.2,3488.0,3467.4,660.3,760.4,1447.9,889.0,837.7,724.9,-1.0,1.0,2.0,10562.0,-12034.0,3458.0,-317.0,6.0,11.0,-7.0,3.0,2.0,-2.0,4203.0,-9854.0,-10622.0,6392.0,3.0,3.0,-2.0,1.0
2022-05-13 15:13:34.515740-07:00,1241.7,703.6,957.7,885.6,742.2,719.2,1479.2,1087.7,3467.4,3477.1,1040.9,851.1,1368.5,3474.6,1168.2,1064.3,3473.4,3480.7,1216.8,1680.5,2281.7,2777.9,1259.6,3500.2,3475.9,3472.2,660.3,760.4,1453.4,892.4,841.9,724.9,0.0,-1.0,-2.0,10562.0,-12034.0,3458.0,-317.0,-1.0,3.0,13.0,3.0,5.0,-6.0,4203.0,-9854.0,-10622.0,6392.0,4.0,-5.0,4.0,1.0
2022-05-13 15:13:34.519495-07:00,1243.5,706.0,957.7,885.6,733.2,716.7,1479.2,1087.7,3462.5,3478.3,1040.9,851.1,1371.2,3478.3,1168.2,1064.3,3473.4,3480.7,1216.0,1671.9,2281.7,2777.9,1264.9,3497.8,3475.9,3472.2,657.0,763.7,1453.4,892.4,846.1,724.9,-1.0,-2.0,-4.0,10562.0,-12033.0,3461.0,-317.0,0.0,7.0,-1.0,2.0,1.0,-9.0,4202.0,-9853.0,-10622.0,6392.0,7.0,-3.0,-5.0,1.0
2022-05-13 15:13:34.520694-07:00,1243.5,706.0,945.8,885.6,733.2,716.7,1480.1,1097.3,3462.5,3478.3,1043.5,852.0,1371.2,3478.3,1169.1,1053.9,3472.2,3483.2,1216.0,1671.9,2278.6,2769.0,1264.9,3497.8,3464.9,3472.2,657.0,763.7,1452.5,897.4,846.1,724.9,0.0,3.0,0.0,10564.0,-12031.0,3461.0,-317.0,10.0,-8.0,-6.0,3.0,7.0,-5.0,4205.0,-9852.0,-10621.0,6395.0,9.0,-6.0,-4.0,1.0
2022-05-13 15:13:34.521781-07:00,1241.7,701.9,945.8,885.6,734.0,725.8,1480.1,1097.3,3475.9,3467.4,1043.5,852.0,1373.0,3462.5,1169.1,1053.9,3472.2,3483.2,1211.5,1671.9,2278.6,2769.0,1261.3,3494.1,3464.9,3472.2,660.3,766.2,1452.5,897.4,839.4,725.8,-2.0,-3.0,2.0,10563.0,-12033.0,3457.0,-312.0,-21.0,-20.0,8.0,1.0,2.0,-10.0,4204.0,-9853.0,-10621.0,6394.0,-12.0,-9.0,-5.0,1.0
2022-05-13 15:13:34.551630-07:00,1241.7,701.9,942.4,882.3,734.0,725.8,1481.0,1086.0,3475.9,3467.4,1034.9,854.5,1373.0,3462.5,1169.1,1057.3,3468.6,3485.6,1211.5,1671.9,2283.8,2761.3,1261.3,3494.1,3464.9,3477.1,660.3,766.2,1446.0,884.8,839.4,725.8,0.0,4.0,0.0,10564.0,-12033.0,3457.0,-312.0,24.0,-5.0,-8.0,1.0,2.0,-1.0,4203.0,-9853.0,-10621.0,6393.0,10.0,-4.0,-1.0,1.0
2022-05-13 15:13:34.596744-07:00,1236.4,702.8,948.3,882.3,734.8,718.4,1481.0,1086.0,3468.6,3467.4,1043.5,854.5,1368.5,3472.2,1169.1,1057.3,3468.6,3485.6,1213.3,1678.6,2283.8,2766.8,1267.6,3496.6,3464.9,3477.1,653.0,759.6,1446.0,901.7,841.1,718.4,0.0,-7.0,1.0,10562.0,-12035.0,3457.0,-310.0,-15.0,1.0,13.0,5.0,2.0,-9.0,4203.0,-9853.0,-10622.0,6393.0,-12.0,-5.0,0.0,1.0
2022-05-13 15:13:34.687845-07:00,1236.4,702.8,948.3,883.1,734.8,713.4,1489.3,1094.7,3468.6,3467.4,1043.5,854.5,1368.5,3467.4,1170.0,1058.2,3480.7,3478.3,1213.3,1678.6,2282.8,2766.8,1267.6,3496.6,3478.3,3483.2,655.4,759.6,1456.2,901.7,841.1,718.4,-1.0,4.0,-1.0,10566.0,-12031.0,3458.0,-311.0,11.0,-2.0,-11.0,2.0,4.0,-2.0,4205.0,-9852.0,-10620.0,6395.0,14.0,0.0,0.0,1.0
2022-05-13 15:13:34.688956-07:00,1239.1,703.6,952.6,883.1,730.7,713.4,1489.3,1094.7,3464.9,3473.4,1045.2,854.5,1372.1,3467.4,1170.0,1058.2,3480.7,3478.3,1213.3,1664.4,2282.8,2772.4,1257.8,3494.1,3478.3,3483.2,655.4,764.5,1456.2,894.1,836.1,721.6,2.0,0.0,-2.0,10564.0,-12032.0,3458.0,-311.0,-6.0,-2.0,7.0,3.0,2.0,-9.0,4205.0,-9852.0,-10620.0,6395.0,-2.0,-3.0,-1.0,1.0
2022-05-13 15:13:34.774845-07:00,1239.1,703.6,952.6,878.9,730.7,717.5,1486.6,1091.2,3464.9,3473.4,1045.2,855.3,1372.1,3471.0,1173.5,1058.2,3475.9,3474.6,1220.4,1664.4,2284.8,2772.4,1257.8,3494.1,3475.9,3479.5,656.2,764.5,1447.9,894.1,836.1,721.6,1.0,-3.0,5.0,10564.0,-12032.0,3459.0,-310.0,-5.0,-3.0,-1.0,2.0,2.0,-4.0,4205.0,-9852.0,-10620.0,6395.0,-3.0,-1.0,-3.0,1.0
2022-05-13 15:13:34.911659-07:00,1225.7,699.5,950.0,878.9,729.9,717.5,1486.6,1091.2,3473.4,3469.8,1036.6,855.3,1371.2,3471.0,1173.5,1058.2,3475.9,3474.6,1220.4,1673.8,2284.8,2763.5,1256.9,3497.8,3475.9,3479.5,656.2,763.7,1447.9,894.1,843.6,722.5,0.0,4.0,0.0,10564.0,-12032.0,3459.0,-310.0,5.0,0.0,7.0,1.0,5.0,-8.0,4205.0,-9852.0,-10620.0,6395.0,2.0,2.0,0.0,1.0
2022-05-13 15:13:34.912941-07:00,1225.7,699.5,950.0,885.6,727.4,720.8,1472.7,1087.7,3473.4,3469.8,1036.6,851.1,1368.5,3475.9,1171.8,1053.9,3461.3,3479.5,1217.7,1671.9,2279.6,2763.5,1256.9,3497.8,3478.3,3472.2,657.0,760.4,1459.8,894.1,843.6,722.5,52.0,-47.0,4.0,10561.0,-12033.0,3465.0,-310.0,-2.0,42.0,36.0,-2.0,30.0,-43.0,4203.0,-9853.0,-10621.0,6393.0,20.0,-2.0,-9.0,1.0
2022-05-13 15:13:34.914021-07:00,1240.8,697.9,950.0,887.3,727.4,720.8,1472.7,1087.7,3478.3,3474.6,1043.5,851.1,1368.5,3475.9,1171.8,1053.9,3461.3,3479.5,1217.7,1671.9,2282.8,2762.4,1256.9,3502.7,3478.3,3472.2,657.0,760.4,1456.2,899.1,841.1,723.3,15.0,-55.0,113.0,10552.0,-11968.0,3701.0,-406.0,232.0,909.0,511.0,-13.0,3.0,3.0,4229.0,-9821.0,-10614.0,6437.0,159.0,-84.0,-40.0,1.0
2022-05-13 15:13:34.954835-07:00,1240.8,697.9,950.0,887.3,732.3,716.7,1488.4,1095.6,3478.3,3474.6,1043.5,851.1,1365.7,3461.3,1168.2,1059.9,3478.3,3479.5,1209.7,1674.8,2282.8,2762.4,1256.9,3502.7,3475.9,3474.6,653.8,765.3,1456.2,899.1,841.1,723.3,129.0,-38.0,85.0,10478.0,-11845.0,4239.0,-614.0,-39.0,1358.0,709.0,-8.0,52.0,-70.0,4226.0,-9810.0,-10600.0,6479.0,22.0,-23.0,43.0,1.0
2022-05-13 15:13:34.999977-07:00,1238.2,705.2,951.7,883.9,732.3,716.7,1488.4,1095.6,3473.4,3473.4,1034.9,851.1,1365.7,3461.3,1168.2,1059.9,3478.3,3479.5,1209.7,1674.8,2274.5,2767.9,1265.8,3490.5,3475.9,3474.6,653.8,765.3,1450.6,889.0,836.1,720.8,63.0,-136.0,272.0,10261.0,-11569.0,5302.0,-1093.0,647.0,3520.0,1690.0,11.0,-89.0,71.0,4213.0,-9799.0,-10575.0,6545.0,316.0,-107.0,159.0,1.0
2022-05-13 15:13:35.090700-07:00,1238.2,705.2,951.7,883.9,734.8,711.8,1539.4,1086.0,3473.4,3473.4,1034.9,851.1,1367.6,3464.9,1169.1,1062.5,3473.4,3478.3,1211.5,1677.6,2274.5,2767.9,1265.8,3490.5,3478.3,3474.6,648.9,767.0,1450.6,889.0,836.1,720.8,200.0,-62.0,139.0,9936.0,-10895.0,6888.0,-1888.0,840.0,4006.0,1876.0,16.0,-40.0,33.0,4301.0,-9865.0,-10372.0,6710.0,601.0,173.0,503.0,1.0
2022-05-13 15:13:35.092309-07:00,1275.6,701.9,951.7,891.5,734.8,711.8,1539.4,1086.0,3469.8,3469.8,1034.0,850.3,1367.6,3464.9,1169.1,1062.5,3473.4,3478.3,1211.5,1677.6,2302.5,2771.3,1265.8,3496.6,3478.3,3474.6,648.9,767.0,1453.4,891.5,834.4,721.6,124.0,111.0,-95.0,9533.0,-9885.0,8407.0,-3028.0,1727.0,4549.0,1314.0,16.0,10.0,72.0,4460.0,-9987.0,-10058.0,6902.0,717.0,400.0,591.0,1.0
2022-05-13 15:13:35.182554-07:00,1329.6,701.9,951.7,891.5,729.9,722.5,1582.4,1117.4,3473.4,3469.8,1034.0,850.3,1373.9,3479.5,1175.3,1062.5,3480.7,3477.1,1243.5,1662.5,2302.5,2771.3,1265.8,3492.9,3481.9,3467.4,648.1,756.3,1453.4,891.5,834.4,725.8,105.0,31.0,-172.0,8903.0,-9093.0,9472.0,-4097.0,526.0,3720.0,395.0,14.0,21.0,-14.0,4492.0,-10212.0,-9866.0,6828.0,-412.0,522.0,479.0,1.0
2022-05-13 15:13:35.226794-07:00,1329.6,716.7,987.6,904.2,729.9,722.5,1582.4,1137.5,3473.4,3475.9,1035.7,852.0,1373.9,3479.5,1175.3,1061.7,3478.3,3477.1,1243.5,1662.5,2325.4,2822.4,1275.6,3492.9,3475.9,3467.4,648.1,756.3,1470.9,894.9,838.6,725.8,-80.0,51.0,-347.0,8332.0,-8483.0,10153.0,-4894.0,788.0,2274.0,360.0,5.0,21.0,-2.0,4498.0,-10447.0,-9710.0,6693.0,-40.0,518.0,411.0,1.0
2022-05-13 15:13:35.270045-07:00,1355.8,716.7,987.6,904.2,742.2,718.4,1580.5,1137.5,3474.6,3475.9,1035.7,852.0,1369.4,3462.5,1162.1,1061.7,3478.3,3483.2,1273.0,1657.7,2325.4,2822.4,1275.6,3495.3,3475.9,3478.3,638.4,749.6,1470.9,894.9,838.6,727.4,94.0,-20.0,-159.0,8112.0,-8139.0,10455.0,-5203.0,385.0,962.0,371.0,-5.0,54.0,-81.0,4532.0,-10580.0,-9598.0,6622.0,90.0,207.0,172.0,1.0
2022-05-13 15:13:35.406700-07:00,1355.8,722.5,987.6,898.3,742.2,718.4,1580.5,1151.5,3474.6,3467.4,1033.2,852.8,1369.4,3462.5,1162.1,1059.9,3474.6,3483.2,1273.0,1657.7,2366.1,2853.7,1281.9,3495.3,3479.5,3478.3,638.4,749.6,1447.0,886.5,838.6,727.4,32.0,-2.0,-68.0,8078.0,-7911.0,10589.0,-5336.0,329.0,285.0,269.0,0.0,23.0,-43.0,4592.0,-10583.0,-9545.0,6652.0,277.0,-4.0,-23.0,1.0
2022-05-13 15:13:35.410284-07:00,1364.8,722.5,987.6,898.3,732.3,733.2,1568.3,1151.5,3469.8,3467.4,1033.2,852.8,1367.6,3471.0,1173.5,1059.9,3474.6,3475.9,1282.8,1670.1,2366.1,2853.7,1281.9,3495.3,3479.5,3477.1,639.2,743.9,1447.0,886.5,838.6,722.5,-13.0,7.0,3.0,8112.0,-7773.0,10625.0,-5415.0,255.0,169.0,130.0,10.0,-15.0,17.0,4659.0,-10534.0,-9524.0,6714.0,204.0,-34.0,-67.0,1.0
2022-05-13 15:13:35.411682-07:00,1364.8,726.6,997.0,914.4,732.3,733.2,1581.4,1153.3,3469.8,3475.9,1031.4,857.0,1367.6,3471.0,1167.4,1065.1,3479.5,3475.9,1282.8,1670.1,2376.6,2870.5,1290.9,3495.3,3473.4,3466.1,639.2,743.9,1446.0,894.9,832.7,722.5,-14.0,48.0,17.0,8151.0,-7699.0,10605.0,-5502.0,179.0,49.0,-64.0,5.0,-2.0,21.0,4705.0,-10498.0,-9515.0,6748.0,43.0,-5.0,-41.0,1.0
2022-05-13 15:13:35.497157-07:00,1366.6,734.8,997.0,914.4,729.9,718.4,1581.4,1153.3,3479.5,3464.9,1031.4,857.0,1369.4,3475.9,1167.4,1065.1,3479.5,3475.9,1277.4,1657.7,2376.6,2870.5,1310.6,3490.5,3473.4,3466.1,641.6,748.8,1446.0,894.9,827.7,725.8,0.0,-9.0,40.0,8121.0,-7700.0,10581.0,-5589.0,115.0,159.0,-179.0,13.0,-7.0,7.0,4698.0,-10506.0,-9529.0,6721.0,-118.0,51.0,2.0,1.0
2022-05-13 15:13:35.498471-07:00,1366.6,734.8,1000.5,911.8,729.9,718.4,1552.5,1161.2,3479.5,3464.9,1039.2,855.3,1369.4,3475.9,1176.2,1058.2,3466.1,3474.6,1277.4,1657.7,2371.3,2857.1,1310.6,3490.5,3480.7,3480.7,641.6,748.8,1453.4,894.9,827.7,725.8,3.0,-10.0,-6.0,8073.0,-7694.0,10568.0,-5690.0,94.0,148.0,-143.0,6.0,0.0,-6.0,4681.0,-10537.0,-9538.0,6673.0,-114.0,68.0,19.0,1.0
2022-05-13 15:13:35.587830-07:00,1379.4,730.7,1000.5,911.8,743.0,715.9,1552.5,1161.2,3469.8,3472.2,1039.2,855.3,1370.3,3468.6,1176.2,1058.2,3466.1,3474.6,1282.8,1648.3,2371.3,2857.1,1314.2,3485.6,3480.7,3480.7,642.4,740.6,1453.4,894.9,840.3,725.8,40.0,-18.0,-2.0,8050.0,-7691.0,10549.0,-5761.0,111.0,102.0,-91.0,4.0,18.0,-26.0,4673.0,-10556.0,-9542.0,6642.0,-37.0,32.0,-2.0,1.0
2022-05-13 15:13:35.589373-07:00,1379.4,730.7,997.0,916.0,743.0,715.9,1573.0,1148.9,3469.8,3472.2,1039.2,863.7,1370.3,3468.6,1175.3,1059.9,3467.4,3485.6,1282.8,1648.3,2366.1,2872.8,1314.2,3485.6,3474.6,3474.6,642.4,740.6,1456.2,893.2,840.3,725.8,1.0,-2.0,-21.0,8044.0,-7680.0,10540.0,-5801.0,64.0,1.0,-3.0,2.0,2.0,-9.0,4674.0,-10557.0,-9545.0,6636.0,34.0,-9.0,-20.0,1.0
2022-05-13 15:13:35.677628-07:00,1361.2,728.2,999.6,916.0,733.2,716.7,1573.0,1148.9,3466.1,3471.0,1032.3,863.7,1367.6,3473.4,1175.3,1059.9,3467.4,3485.6,1278.3,1647.3,2366.1,2866.0,1302.5,3490.5,3474.6,3474.6,640.8,734.0,1456.2,899.1,835.2,734.8,8.0,-10.0,14.0,8054.0,-7676.0,10536.0,-5801.0,39.0,5.0,25.0,9.0,2.0,0.0,4683.0,-10545.0,-9547.0,6646.0,45.0,-21.0,-12.0,1.0
2022-05-13 15:13:35.719843-07:00,1361.2,728.2,999.6,910.1,733.2,711.8,1582.4,1156.8,3466.1,3471.0,1032.3,853.7,1367.6,3467.4,1170.9,1061.7,3480.7,3473.4,1281.9,1647.3,2357.7,2866.0,1302.5,3490.5,3477.1,3467.4,640.8,734.0,1456.2,899.1,835.2,734.8,2.0,-2.0,16.0,8058.0,-7663.0,10535.0,-5814.0,57.0,36.0,6.0,10.0,0.0,3.0,4688.0,-10541.0,-9545.0,6651.0,19.0,3.0,1.0,1.0
2022-05-13 15:13:35.811414-07:00,1373.9,737.3,999.6,910.1,728.2,711.8,1582.4,1156.8,3473.4,3472.2,1032.3,853.7,1372.1,3467.4,1170.9,1061.7,3480.7,3473.4,1281.9,1635.0,2357.7,2862.7,1312.4,3489.2,3477.1,3467.4,640.8,738.9,1456.2,894.1,832.7,718.4,8.0,-18.0,14.0,8051.0,-7660.0,10531.0,-5834.0,26.0,36.0,-34.0,7.0,0.0,-7.0,4689.0,-10543.0,-9545.0,6647.0,-17.0,12.0,3.0,1.0
2022-05-13 15:13:35.812729-07:00,1373.9,737.3,999.6,912.7,728.2,715.1,1559.0,1146.3,3473.4,3472.2,1032.3,857.0,1372.1,3473.4,1166.5,1062.5,3472.2,3488.0,1269.4,1635.0,2363.0,2862.7,1312.4,3489.2,3464.9,3475.9,644.0,738.9,1454.3,894.1,832.7,718.4,13.0,-9.0,3.0,8052.0,-7651.0,10525.0,-5856.0,45.0,16.0,-6.0,8.0,6.0,-10.0,4688.0,-10545.0,-9547.0,6643.0,12.0,8.0,-4.0,1.0
2022-05-13 15:13:35.900874-07:00,1365.7,724.1,1005.6,912.7,731.5,715.1,1559.0,1146.3,3469.8,3467.4,1036.6,857.0,1363.0,3473.4,1166.5,1062.5,3472.2,3488.0,1269.4,1629.4,2363.0,2857.1,1312.4,3500.2,3464.9,3475.9,644.0,734.0,1454.3,888.2,828.5,723.3,0.0,-8.0,3.0,8055.0,-7640.0,10517.0,-5880.0,21.0,14.0,-20.0,5.0,0.0,-2.0,4692.0,-10543.0,-9546.0,6644.0,-6.0,5.0,-9.0,1.0
2022-05-13 15:13:35.902101-07:00,1365.7,724.1,1005.6,910.1,731.5,720.8,1550.6,1144.5,3469.8,3467.4,1036.6,858.7,1363.0,3477.1,1168.2,1062.5,3480.7,3474.6,1273.9,1629.4,2360.9,2857.1,1312.4,3500.2,3475.9,3473.4,640.8,734.0,1456.2,888.2,828.5,723.3,3.0,-7.0,0.0,8056.0,-7635.0,10519.0,-5883.0,8.0,1.0,24.0,4.0,0.0,-3.0,4694.0,-10542.0,-9545.0,6645.0,20.0,-1.0,0.0,1.0
2022-05-13 15:13:35.946497-07:00,1365.7,728.2,994.5,911.0,735.6,720.8,1550.6,1144.5,3478.3,3468.6,1027.1,855.3,1373.9,3477.1,1168.2,1062.5,3480.7,3474.6,1273.9,1635.0,2352.5,2867.2,1317.8,3500.2,3475.9,3473.4,640.8,729.9,1452.5,897.4,834.4,711.8,14.0,3.0,7.0,8066.0,-7633.0,10509.0,-5889.0,23.0,-12.0,-28.0,2.0,2.0,-10.0,4699.0,-10540.0,-9542.0,6649.0,-11.0,-8.0,-7.0,1.0
2022-05-13 15:13:35.991447-07:00,1365.7,728.2,994.5,911.0,738.1,711.8,1559.0,1146.3,3478.3,3468.6,1027.1,855.3,1368.5,3468.6,1165.6,1058.2,3474.6,3469.8,1274.7,1620.9,2352.5,2867.2,1317.8,3500.2,3478.3,3469.8,638.4,729.9,1452.5,897.4,834.4,711.8,14.0,-22.0,24.0,8063.0,-7639.0,10499.0,-5902.0,25.0,14.0,-15.0,8.0,0.0,-9.0,4694.0,-10542.0,-9546.0,6644.0,1.0,0.0,0.0,1.0
2022-05-13 15:13:36.036439-07:00,1361.2,729.0,997.0,908.4,738.1,711.8,1559.0,1146.3,3472.2,3471.0,1032.3,860.4,1368.5,3468.6,1165.6,1058.2,3474.6,3469.8,1274.7,1620.9,2336.8,2855.9,1313.3,3491.7,3478.3,3469.8,638.4,729.9,1445.1,888.2,830.2,718.4,15.0,-9.0,13.0,8070.0,-7623.0,10500.0,-5912.0,46.0,13.0,41.0,8.0,6.0,-13.0,4700.0,-10540.0,-9542.0,6648.0,42.0,0.0,5.0,1.0
2022-05-13 15:13:36.082529-07:00,1361.2,729.0,997.0,908.4,732.3,713.4,1566.5,1161.2,3472.2,3471.0,1032.3,860.4,1363.9,3463.7,1170.0,1066.0,3488.0,3467.4,1265.8,1628.4,2336.8,2855.9,1313.3,3491.7,3475.9,3479.5,623.8,734.0,1445.1,888.2,830.2,718.4,11.0,0.0,4.0,8077.0,-7612.0,10494.0,-5927.0,48.0,1.0,-27.0,5.0,8.0,-11.0,4707.0,-10537.0,-9539.0,6652.0,5.0,3.0,-7.0,1.0
2022-05-13 15:13:36.171664-07:00,1360.3,738.9,1001.3,912.7,732.3,713.4,1566.5,1161.2,3473.4,3473.4,1031.4,854.5,1363.9,3463.7,1170.0,1066.0,3488.0,3467.4,1265.8,1628.4,2345.2,2844.8,1315.1,3494.1,3475.9,3479.5,623.8,734.0,1474.6,891.5,833.6,717.5,1.0,-24.0,11.0,8074.0,-7616.0,10488.0,-5936.0,-1.0,9.0,7.0,6.0,-7.0,-4.0,4704.0,-10539.0,-9541.0,6648.0,4.0,6.0,2.0,1.0
2022-05-13 15:13:36.261286-07:00,1357.6,738.9,1001.3,912.7,731.5,718.4,1556.2,1156.8,3468.6,3473.4,1031.4,854.5,1369.4,3473.4,1163.8,1066.9,3474.6,3473.4,1271.2,1649.2,2345.2,2844.8,1315.1,3490.5,3479.5,3471.0,645.7,734.0,1474.6,891.5,833.6,720.0,9.0,-1.0,1.0,8081.0,-7602.0,10492.0,-5938.0,36.0,4.0,23.0,3.0,6.0,-6.0,4711.0,-10536.0,-9538.0,6653.0,32.0,-1.0,3.0,1.0
2022-05-13 15:13:36.262588-07:00,1357.6,724.9,998.7,907.6,731.5,718.4,1556.2,1141.9,3468.6,3474.6,1031.4,852.8,1369.4,3473.4,1163.8,1060.8,3474.6,3473.4,1271.2,1649.2,2338.9,2900.9,1312.4,3490.5,3480.7,3471.0,645.7,734.0,1449.7,891.5,834.4,720.0,2.0,-4.0,4.0,8085.0,-7599.0,10485.0,-5949.0,30.0,-6.0,-27.0,4.0,1.0,-5.0,4714.0,-10535.0,-9536.0,6656.0,-2.0,0.0,-5.0,1.0
2022-05-13 15:13:36.350655-07:00,1355.8,724.9,998.7,907.6,738.9,714.2,1562.7,1141.9,3468.6,3474.6,1031.4,852.8,1368.5,3464.9,1173.5,1060.8,3474.6,3475.9,1267.6,1622.8,2338.9,2900.9,1312.4,3485.6,3480.7,3480.7,636.7,737.3,1449.7,891.5,834.4,727.4,7.0,-11.0,1.0,8087.0,-7597.0,10480.0,-5957.0,15.0,8.0,13.0,6.0,0.0,-9.0,4715.0,-10535.0,-9536.0,6655.0,10.0,-5.0,4.0,1.0
2022-05-13 15:13:36.351828-07:00,1355.8,727.4,999.6,917.7,738.9,714.2,1562.7,1154.2,3468.6,3478.3,1029.7,853.7,1368.5,3464.9,1173.5,1060.8,3479.5,3475.9,1267.6,1622.8,2337.9,2849.2,1309.7,3485.6,3484.4,3480.7,636.7,737.3,1438.7,894.1,837.7,727.4,12.0,6.0,-4.0,8099.0,-7587.0,10472.0,-5969.0,46.0,-27.0,-13.0,6.0,10.0,-14.0,4720.0,-10531.0,-9533.0,6662.0,24.0,-18.0,-4.0,1.0
2022-05-13 15:13:36.396667-07:00,1367.6,727.4,999.6,917.7,735.6,720.0,1566.5,1154.2,3473.4,3478.3,1029.7,853.7,1363.0,3468.6,1163.0,1060.8,3479.5,3471.0,1271.2,1619.9,2337.9,2849.2,1309.7,3497.8,3484.4,3471.0,631.1,703.6,1438.7,894.1,837.7,721.6,0.0,-26.0,20.0,8101.0,-7599.0,10463.0,-5965.0,6.0,-17.0,8.0,8.0,-4.0,-3.0,4714.0,-10527.0,-9540.0,6661.0,-10.0,-18.0,-9.0,1.0
2022-05-13 15:13:36.439804-07:00,1367.6,726.6,993.6,917.7,735.6,720.0,1559.0,1151.5,3473.4,3477.1,1031.4,851.1,1363.0,3468.6,1171.8,1063.4,3473.4,3474.6,1271.2,1619.9,2332.6,2850.3,1313.3,3497.8,3472.2,3472.2,631.1,703.6,1449.7,891.5,841.9,721.6,10.0,-11.0,4.0,8121.0,-7608.0,10453.0,-5946.0,6.0,-84.0,16.0,5.0,4.0,-12.0,4716.0,-10523.0,-9539.0,6670.0,25.0,-13.0,-9.0,1.0
2022-05-13 15:13:36.574857-07:00,1356.7,726.6,993.6,917.7,731.5,719.2,1559.0,1151.5,3467.4,3468.6,1031.4,851.1,1368.5,3474.6,1171.8,1063.4,3473.4,3474.6,1267.6,1621.8,2332.6,2850.3,1316.0,3492.9,3472.2,3472.2,635.1,728.2,1449.7,891.5,833.6,720.8,1.0,-10.0,14.0,8137.0,-7603.0,10443.0,-5947.0,46.0,-17.0,26.0,7.0,0.0,0.0,4723.0,-10514.0,-9536.0,6681.0,38.0,-16.0,-6.0,1.0
2022-05-13 15:13:36.783558-07:00,1356.7,726.6,994.5,908.4,731.5,719.2,1562.7,1164.7,3467.4,3468.6,1031.4,854.5,1368.5,3474.6,1167.4,1055.6,3466.1,3467.4,1267.6,1621.8,2342.0,2851.5,1316.0,3492.9,3472.2,3478.3,635.1,728.2,1452.5,894.1,833.6,720.8,10.0,-12.0,13.0,8147.0,-7597.0,10440.0,-5945.0,10.0,-9.0,13.0,6.0,1.0,-7.0,4730.0,-10510.0,-9533.0,6688.0,22.0,-7.0,0.0,1.0
2022-05-13 15:13:36.785220-07:00,1345.8,726.6,994.5,908.4,734.8,717.5,1562.7,1164.7,3466.1,3467.4,1031.4,854.5,1365.7,3478.3,1167.4,1055.6,3466.1,3467.4,1262.2,1617.1,2342.0,2851.5,1315.1,3495.3,3472.2,3478.3,635.1,726.6,1452.5,894.1,834.4,728.2,0.0,-4.0,-2.0,8152.0,-7588.0,10436.0,-5957.0,33.0,1.0,4.0,3.0,1.0,-8.0,4735.0,-10508.0,-9530.0,6692.0,20.0,-1.0,-3.0,1.0
2022-05-13 15:13:36.786376-07:00,1345.8,726.6,989.3,916.0,734.8,717.5,1557.1,1159.4,3466.1,3467.4,1029.7,861.2,1365.7,3478.3,1168.2,1063.4,3478.3,3474.6,1262.2,1617.1,2323.3,2850.3,1315.1,3495.3,3469.8,3474.6,635.1,726.6,1450.6,888.2,834.4,728.2,2.0,2.0,0.0,8153.0,-7583.0,10433.0,-5968.0,11.0,21.0,-13.0,4.0,0.0,-3.0,4735.0,-10508.0,-9530.0,6693.0,-12.0,9.0,4.0,1.0
2022-05-13 15:13:36.787468-07:00,1338.6,724.9,989.3,916.0,735.6,715.1,1557.1,1159.4,3463.7,3467.4,1029.7,861.2,1366.6,3473.4,1168.2,1063.4,3478.3,3474.6,1266.7,1618.1,2323.3,2850.3,1314.2,3486.8,3469.8,3474.6,634.3,722.5,1450.6,888.2,834.4,714.2,7.0,-2.0,-2.0,8152.0,-7577.0,10432.0,-5979.0,34.0,14.0,-1.0,5.0,3.0,-8.0,4735.0,-10507.0,-9529.0,6693.0,7.0,3.0,2.0,1.0
2022-05-13 15:13:36.807950-07:00,1338.6,724.9,983.3,907.6,735.6,711.0,1559.0,1150.6,3463.7,3467.4,1032.3,858.7,1366.6,3467.4,1169.1,1049.6,3479.5,3475.9,1270.3,1618.1,2328.5,2855.9,1314.2,3486.8,3471.0,3480.7,630.3,722.5,1450.6,891.5,834.4,714.2,13.0,-3.0,4.0,8155.0,-7569.0,10427.0,-5993.0,40.0,13.0,-17.0,5.0,4.0,-9.0,4736.0,-10507.0,-9529.0,6694.0,4.0,0.0,-4.0,1.0
2022-05-13 15:13:36.808752-07:00,1338.6,724.9,983.3,907.6,735.6,711.0,1559.0,1150.6,3463.7,3467.4,1032.3,858.7,1366.6,3467.4,1169.1,1049.6,3479.5,3475.9,1270.3,1618.1,2328.5,2855.9,1314.2,3486.8,3471.0,3480.7,630.3,722.5,1450.6,891.5,834.4,714.2,13.0,-3.0,4.0,8155.0,-7569.0,10427.0,-5993.0,40.0,13.0,-17.0,5.0,4.0,-9.0,4736.0,-10507.0,-9529.0,6694.0,4.0,0.0,-4.0,1.0
2022-05-13 15:13:36.915616-07:00,1353.1,715.9,993.6,910.1,729.9,717.5,1563.7,1142.7,3471.0,3472.2,1026.3,858.7,1368.5,3462.5,1166.5,1055.6,3478.3,3480.7,1269.4,1617.1,2320.1,2854.8,1316.0,3497.8,3478.3,3478.3,630.3,721.6,1451.6,888.2,831.9,729.0,1.0,-23.0,21.0,8159.0,-7601.0,10407.0,-5983.0,40.0,2.0,7.0,8.0,-4.0,1.0,4727.0,-10500.0,-9541.0,6694.0,38.0,-19.0,-6.0,1.0
2022-05-13 15:13:36.921350-07:00,1353.1,729.9,993.6,910.1,735.6,717.5,1563.7,1142.7,3473.4,3463.7,1028.8,858.7,1375.7,3462.5,1166.5,1055.6,3478.3,3480.7,1269.4,1611.5,2320.1,2840.3,1309.7,3494.1,3478.3,3478.3,630.3,732.3,1451.6,890.7,832.7,716.7,8.0,14.0,11.0,8176.0,-7579.0,10405.0,-5991.0,51.0,21.0,22.0,4.0,11.0,-4.0,4740.0,-10494.0,-9533.0,6706.0,10.0,11.0,10.0,1.0
2022-05-13 15:13:36.937682-07:00,1353.1,729.9,993.6,905.0,735.6,719.2,1547.8,1157.7,3473.4,3463.7,1028.8,852.8,1375.7,3475.9,1168.2,1061.7,3471.0,3473.4,1264.9,1611.5,2330.6,2840.3,1309.7,3494.1,3479.5,3472.2,635.1,732.3,1456.2,890.7,832.7,716.7,2.0,-4.0,-6.0,8165.0,-7573.0,10405.0,-6014.0,34.0,47.0,-38.0,4.0,1.0,-1.0,4735.0,-10500.0,-9534.0,6697.0,-23.0,8.0,5.0,1.0
2022-05-13 15:13:37.072101-07:00,1352.1,723.3,995.3,905.0,724.9,719.2,1547.8,1157.7,3473.4,3478.3,1028.0,857.9,1369.4,3475.9,1168.2,1061.7,3471.0,3473.4,1264.9,1614.3,2318.1,2851.5,1310.6,3495.3,3479.5,3472.2,635.1,725.8,1457.1,889.8,830.2,720.8,5.0,-11.0,0.0,8163.0,-7563.0,10406.0,-6028.0,27.0,23.0,29.0,9.0,1.0,-13.0,4736.0,-10501.0,-9532.0,6699.0,20.0,-2.0,11.0,1.0
2022-05-13 15:13:37.073306-07:00,1352.1,723.3,995.3,905.0,729.9,713.4,1561.8,1150.6,3473.4,3478.3,1028.0,857.9,1370.3,3474.6,1163.8,1060.8,3485.6,3478.3,1257.8,1604.9,2318.1,2851.5,1310.6,3495.3,3481.9,3467.4,637.6,725.8,1457.1,889.8,830.2,720.8,19.0,5.0,4.0,8169.0,-7554.0,10406.0,-6028.0,30.0,-1.0,1.0,5.0,7.0,-14.0,4739.0,-10498.0,-9530.0,6703.0,-2.0,-6.0,-2.0,1.0
2022-05-13 15:13:37.160959-07:00,1349.4,729.9,979.9,911.0,729.9,713.4,1561.8,1150.6,3467.4,3467.4,1021.1,853.7,1370.3,3474.6,1163.8,1060.8,3485.6,3478.3,1257.8,1604.9,2326.4,2842.5,1309.7,3495.3,3481.9,3467.4,637.6,725.8,1447.9,891.5,831.9,721.6,1.0,-10.0,6.0,8164.0,-7557.0,10403.0,-6039.0,10.0,17.0,-14.0,2.0,-2.0,0.0,4735.0,-10500.0,-9533.0,6700.0,-2.0,8.0,6.0,1.0
2022-05-13 15:13:37.162768-07:00,1349.4,729.9,979.9,911.0,732.3,719.2,1575.8,1156.8,3467.4,3467.4,1021.1,853.7,1367.6,3460.1,1165.6,1061.7,3474.6,3475.9,1256.0,1610.5,2326.4,2842.5,1309.7,3495.3,3472.2,3467.4,633.5,725.8,1447.9,891.5,831.9,721.6,12.0,1.0,0.0,8162.0,-7551.0,10403.0,-6048.0,14.0,11.0,-11.0,5.0,6.0,-9.0,4735.0,-10505.0,-9531.0,6696.0,-17.0,9.0,4.0,1.0
2022-05-13 15:13:37.251171-07:00,1354.9,728.2,995.3,911.0,732.3,719.2,1575.8,1156.8,3480.7,3467.4,1028.0,852.8,1367.6,3460.1,1165.6,1061.7,3474.6,3475.9,1256.0,1610.5,2328.5,2838.0,1316.0,3489.2,3472.2,3467.4,633.5,725.8,1454.3,887.3,838.6,723.3,2.0,-4.0,-5.0,8155.0,-7549.0,10403.0,-6059.0,11.0,24.0,-10.0,2.0,4.0,-7.0,4734.0,-10508.0,-9532.0,6691.0,-13.0,11.0,8.0,1.0
2022-05-13 15:13:37.296553-07:00,1354.9,728.2,995.3,911.0,734.0,713.4,1553.4,1151.5,3480.7,3467.4,1028.0,852.8,1372.1,3469.8,1167.4,1062.5,3483.2,3474.6,1267.6,1609.6,2328.5,2838.0,1316.0,3489.2,3478.3,3479.5,637.6,723.3,1454.3,887.3,838.6,723.3,13.0,-7.0,-2.0,8150.0,-7548.0,10406.0,-6063.0,5.0,10.0,1.0,8.0,6.0,-14.0,4734.0,-10508.0,-9532.0,6691.0,0.0,-3.0,-2.0,1.0
2022-05-13 15:13:37.297870-07:00,1345.8,729.0,994.5,901.7,734.0,713.4,1553.4,1144.5,3467.4,3478.3,1033.2,860.4,1372.1,3469.8,1167.4,1059.9,3478.3,3474.6,1267.6,1609.6,2321.2,2824.6,1317.8,3500.2,3477.1,3479.5,637.6,723.3,1457.1,891.5,830.2,724.1,3.0,4.0,-9.0,8153.0,-7557.0,10401.0,-6056.0,-34.0,-53.0,-13.0,5.0,4.0,-8.0,4732.0,-10504.0,-9536.0,6692.0,-16.0,-12.0,-14.0,1.0
2022-05-13 15:13:37.386445-07:00,1344.0,729.0,994.5,901.7,731.5,723.3,1554.3,1144.5,3467.4,3478.3,1033.2,860.4,1360.3,3458.9,1170.9,1059.9,3478.3,3472.2,1260.4,1591.7,2321.2,2824.6,1317.8,3485.6,3477.1,3467.4,637.6,715.1,1457.1,891.5,830.2,719.2,13.0,-22.0,14.0,8149.0,-7603.0,10391.0,-6022.0,-121.0,-79.0,-43.0,7.0,1.0,-6.0,4719.0,-10501.0,-9552.0,6683.0,-34.0,-23.0,-17.0,1.0
2022-05-13 15:13:37.387603-07:00,1344.0,726.6,990.2,901.7,731.5,723.3,1554.3,1165.6,3467.4,3467.4,1033.2,860.4,1360.3,3458.9,1170.9,1058.2,3478.3,3472.2,1260.4,1591.7,2310.8,2836.9,1317.8,3485.6,3477.1,3467.4,637.6,715.1,1447.0,894.9,834.4,719.2,-7.0,2.0,5.0,8156.0,-7600.0,10395.0,-6008.0,45.0,11.0,72.0,4.0,-1.0,1.0,4725.0,-10495.0,-9548.0,6694.0,60.0,4.0,9.0,1.0
2022-05-13 15:13:37.431987-07:00,1344.0,726.6,990.2,901.7,733.2,720.8,1555.3,1165.6,3469.8,3467.4,1033.2,860.4,1367.6,3475.9,1167.4,1058.2,3478.3,3474.6,1251.5,1604.9,2310.8,2836.9,1317.8,3496.6,3477.1,3478.3,630.3,745.5,1447.0,894.9,834.4,721.6,16.0,7.0,8.0,8157.0,-7591.0,10401.0,-6009.0,10.0,43.0,-16.0,4.0,9.0,-9.0,4731.0,-10495.0,-9542.0,6697.0,-30.0,13.0,7.0,1.0
2022-05-13 15:13:37.522712-07:00,1344.0,729.9,994.5,915.2,733.2,720.8,1555.3,1149.8,3469.8,3475.9,1034.0,865.4,1367.6,3475.9,1167.4,1062.5,3472.2,3474.6,1251.5,1604.9,2325.4,2845.9,1310.6,3496.6,3479.5,3478.3,630.3,745.5,1453.4,893.2,833.6,721.6,3.0,-11.0,0.0,8149.0,-7587.0,10400.0,-6026.0,46.0,33.0,4.0,6.0,1.0,-9.0,4727.0,-10499.0,-9545.0,6691.0,13.0,4.0,5.0,1.0
2022-05-13 15:13:37.656255-07:00,1353.1,731.5,994.5,915.2,734.0,720.8,1551.5,1149.8,3467.4,3467.4,1034.0,865.4,1367.6,3472.2,1168.2,1062.5,3472.2,3483.2,1257.8,1604.9,2325.4,2845.9,1314.2,3489.2,3479.5,3472.2,633.5,722.5,1453.4,893.2,831.9,727.4,14.0,-8.0,4.0,8150.0,-7576.0,10402.0,-6034.0,15.0,19.0,13.0,9.0,5.0,-10.0,4731.0,-10497.0,-9542.0,6695.0,11.0,-2.0,1.0,1.0
2022-05-13 15:13:37.657605-07:00,1353.1,731.5,991.0,902.5,734.0,720.8,1554.3,1153.3,3467.4,3467.4,1032.3,855.3,1367.6,3472.2,1170.9,1061.7,3472.2,3483.2,1257.8,1604.9,2310.8,2852.6,1314.2,3489.2,3473.4,3477.1,633.5,722.5,1450.6,895.7,831.9,727.4,9.0,2.0,-1.0,8153.0,-7573.0,10398.0,-6042.0,17.0,2.0,-10.0,2.0,5.0,-10.0,4734.0,-10495.0,-9540.0,6698.0,-1.0,-13.0,-6.0,1.0
2022-05-13 15:13:37.658719-07:00,1346.7,732.3,991.0,902.5,731.5,720.8,1554.3,1153.3,3475.9,3472.2,1032.3,855.3,1372.1,3468.6,1170.9,1061.7,3472.2,3483.2,1262.2,1594.6,2310.8,2852.6,1319.6,3503.9,3473.4,3477.1,633.5,725.8,1450.6,895.7,831.9,720.8,6.0,-2.0,7.0,8157.0,-7568.0,10394.0,-6048.0,21.0,1.0,3.0,4.0,2.0,-9.0,4734.0,-10494.0,-9540.0,6700.0,4.0,-4.0,-1.0,1.0
2022-05-13 15:13:37.701900-07:00,1346.7,732.3,989.3,905.0,731.5,720.8,1551.5,1148.9,3475.9,3472.2,1028.8,853.7,1372.1,3468.6,1171.8,1066.0,3467.4,3477.1,1262.2,1594.6,2307.7,2839.2,1319.6,3503.9,3469.8,3479.5,633.5,725.8,1448.8,890.7,831.9,720.8,6.0,6.0,-14.0,8157.0,-7579.0,10389.0,-6043.0,-43.0,-59.0,-36.0,4.0,7.0,-14.0,4730.0,-10496.0,-9542.0,6696.0,-36.0,-2.0,-13.0,1.0
2022-05-13 15:13:37.745548-07:00,1338.6,724.9,989.3,905.0,731.5,713.4,1551.5,1148.9,3462.5,3467.4,1028.8,853.7,1371.2,3475.9,1171.8,1066.0,3467.4,3477.1,1263.1,1603.0,2307.7,2839.2,1317.8,3492.9,3469.8,3479.5,633.5,719.2,1448.8,890.7,836.1,720.0,0.0,-1.0,-15.0,8157.0,-7607.0,10377.0,-6029.0,-63.0,-70.0,-26.0,2.0,4.0,-9.0,4723.0,-10494.0,-9553.0,6689.0,-25.0,-20.0,-19.0,1.0
2022-05-13 15:13:37.791789-07:00,1338.6,724.9,991.0,911.8,731.5,715.1,1553.4,1148.0,3462.5,3467.4,1029.7,857.9,1371.2,3462.5,1163.0,1062.5,3474.6,3478.3,1261.3,1603.0,2308.7,2829.1,1317.8,3492.9,3469.8,3477.1,633.5,719.2,1448.8,891.5,836.1,720.0,-20.0,43.0,-95.0,8158.0,-7693.0,10365.0,-5939.0,-430.0,-283.0,-45.0,2.0,10.0,-25.0,4706.0,-10487.0,-9574.0,6683.0,-161.0,-103.0,-35.0,1.0
2022-05-13 15:13:37.837586-07:00,1342.2,721.6,986.7,911.8,742.2,715.1,1553.4,1148.0,3474.6,3478.3,1026.3,857.9,1373.0,3462.5,1163.0,1062.5,3474.6,3478.3,1261.3,1607.7,2308.7,2829.1,1310.6,3496.6,3469.8,3477.1,633.5,720.8,1448.8,913.5,827.7,724.9,-9.0,1.0,-82.0,8164.0,-8051.0,10308.0,-5541.0,-976.0,-1166.0,-193.0,0.0,29.0,-24.0,4596.0,-10470.0,-9654.0,6671.0,-224.0,-348.0,-79.0,1.0
2022-05-13 15:13:37.882398-07:00,1342.2,721.6,986.7,904.2,742.2,719.2,1553.4,1150.6,3474.6,3478.3,1026.3,854.5,1373.0,3478.3,1160.3,1059.9,3478.3,3477.1,1268.5,1607.7,2320.1,2829.1,1310.6,3496.6,3472.2,3483.2,635.1,720.8,1454.3,913.5,827.7,724.9,4.0,62.0,-131.0,8256.0,-8582.0,10066.0,-5031.0,-1292.0,-1599.0,-540.0,7.0,26.0,-16.0,4429.0,-10408.0,-9792.0,6680.0,-566.0,-371.0,-186.0,1.0
2022-05-13 15:13:37.927338-07:00,1337.7,732.3,989.3,904.2,734.0,719.2,1553.4,1150.6,3464.9,3462.5,1034.9,854.5,1370.3,3478.3,1160.3,1059.9,3478.3,3477.1,1268.5,1600.2,2320.1,2834.7,1297.2,3486.8,3472.2,3483.2,635.1,724.9,1454.3,891.5,830.2,716.7,45.0,-14.0,-97.0,8399.0,-9284.0,9611.0,-4397.0,-1113.0,-2283.0,-792.0,1.0,13.0,-19.0,4217.0,-10364.0,-9990.0,6590.0,-537.0,-286.0,-238.0,1.0
2022-05-13 15:13:38.017192-07:00,1337.7,732.3,989.3,900.8,734.0,711.8,1535.7,1147.1,3464.9,3462.5,1034.9,852.0,1370.3,3469.8,1177.0,1064.3,3475.9,3472.2,1264.9,1600.2,2322.2,2834.7,1297.2,3486.8,3471.0,3473.4,635.1,724.9,1453.4,891.5,830.2,716.7,60.0,-52.0,-30.0,8701.0,-9872.0,9003.0,-3771.0,-525.0,-2363.0,-606.0,4.0,-5.0,-2.0,4076.0,-10297.0,-10161.0,6524.0,-289.0,-237.0,-265.0,1.0
2022-05-13 15:13:38.060391-07:00,1326.8,715.9,976.5,900.8,733.2,711.8,1535.7,1147.1,3478.3,3466.1,1031.4,852.0,1370.3,3469.8,1177.0,1064.3,3475.9,3472.2,1264.9,1621.8,2322.2,2820.2,1294.5,3497.8,3471.0,3473.4,635.1,717.5,1453.4,889.0,841.9,717.5,64.0,21.0,-35.0,9076.0,-10381.0,8275.0,-3132.0,-552.0,-2579.0,-748.0,4.0,5.0,-4.0,4012.0,-10209.0,-10298.0,6486.0,-233.0,-190.0,-305.0,1.0
2022-05-13 15:13:38.106901-07:00,1326.8,715.9,976.5,895.7,733.2,717.5,1530.1,1152.4,3478.3,3466.1,1031.4,853.7,1370.3,3472.2,1170.0,1063.4,3485.6,3480.7,1260.4,1655.8,2306.6,2820.2,1294.5,3497.8,3474.6,3488.0,640.8,724.9,1451.6,889.0,841.9,717.5,-9.0,129.0,-113.0,9372.0,-10972.0,7373.0,-2424.0,-1017.0,-3125.0,-1203.0,12.0,-12.0,50.0,3936.0,-10138.0,-10457.0,6388.0,-501.0,-62.0,-319.0,1.0
2022-05-13 15:13:38.241786-07:00,1322.3,711.0,972.2,894.1,733.2,717.5,1530.1,1152.4,3478.3,3474.6,1035.7,847.8,1370.3,3472.2,1170.0,1063.4,3485.6,3480.7,1260.4,1655.8,2308.7,2828.0,1296.3,3488.0,3474.6,3488.0,640.8,724.9,1459.8,888.2,832.7,721.6,251.0,-106.0,-19.0,9493.0,-11739.0,6171.0,-1563.0,-1170.0,-2929.0,-1440.0,-15.0,78.0,-128.0,3791.0,-10094.0,-10680.0,6174.0,-761.0,-143.0,-414.0,1.0
2022-05-13 15:13:38.243026-07:00,1322.3,711.0,972.2,894.1,733.2,714.2,1522.7,1118.2,3478.3,3474.6,1035.7,847.8,1367.6,3471.0,1163.0,1063.4,3467.4,3473.4,1259.6,1687.2,2308.7,2828.0,1296.3,3488.0,3483.2,3477.1,644.0,739.7,1459.8,888.2,832.7,721.6,-24.0,-114.0,79.0,9740.0,-12006.0,5324.0,-1037.0,263.0,-2170.0,-583.0,11.0,-76.0,78.0,3739.0,-9978.0,-10829.0,6135.0,287.0,-162.0,-279.0,1.0
2022-05-13 15:13:38.244174-07:00,1298.1,709.3,977.3,889.0,733.2,714.2,1522.7,1118.2,3471.0,3480.7,1034.9,857.0,1367.6,3471.0,1163.0,1063.4,3467.4,3473.4,1259.6,1687.2,2311.8,2826.9,1285.5,3495.3,3483.2,3477.1,644.0,739.7,1453.4,890.7,831.9,726.6,97.0,62.0,39.0,10102.0,-12065.0,4539.0,-471.0,81.0,-2194.0,-590.0,-7.0,67.0,-57.0,3876.0,-9865.0,-10801.0,6281.0,438.0,-58.0,-149.0,1.0
2022-05-13 15:13:38.286624-07:00,1298.1,709.3,977.3,889.0,738.1,726.6,1511.5,1106.0,3471.0,3480.7,1034.9,857.0,1370.3,3467.4,1165.6,1060.8,3478.3,3472.2,1245.3,1700.5,2311.8,2826.9,1285.5,3495.3,3477.1,3478.3,644.9,741.4,1453.4,890.7,831.9,726.6,55.0,-92.0,159.0,10280.0,-12077.0,4103.0,-241.0,362.0,-607.0,-225.0,12.0,-65.0,61.0,3932.0,-9756.0,-10829.0,6366.0,241.0,-181.0,-201.0,1.0
2022-05-13 15:13:38.422158-07:00,1284.6,709.3,962.0,889.0,738.1,726.6,1511.5,1104.3,3474.6,3471.0,1034.9,852.8,1370.3,3467.4,1165.6,1054.8,3473.4,3472.2,1245.3,1700.5,2306.6,2817.9,1284.6,3491.7,3469.8,3478.3,644.9,741.4,1448.8,883.1,835.2,720.0,3.0,17.0,88.0,10427.0,-12024.0,3890.0,-94.0,77.0,-654.0,-109.0,3.0,11.0,17.0,4009.0,-9689.0,-10803.0,6465.0,233.0,7.0,-13.0,1.0
2022-05-13 15:13:38.425674-07:00,1273.0,709.3,962.0,889.0,731.5,711.8,1496.7,1104.3,3474.6,3471.0,1034.9,852.8,1373.0,3472.2,1166.5,1054.8,3473.4,3477.1,1236.4,1691.9,2306.6,2817.9,1284.6,3500.2,3469.8,3477.1,639.2,743.0,1448.8,883.1,835.2,720.8,24.0,-18.0,69.0,10445.0,-12049.0,3762.0,-11.0,-72.0,-111.0,-74.0,0.0,0.0,-8.0,4008.0,-9692.0,-10807.0,6454.0,-89.0,-2.0,-12.0,1.0
2022-05-13 15:13:38.426852-07:00,1273.0,703.6,964.5,884.8,731.5,711.8,1496.7,1093.8,3474.6,3471.0,1034.0,856.2,1373.0,3472.2,1166.5,1058.2,3474.6,3477.1,1236.4,1691.9,2291.0,2809.0,1274.7,3500.2,3481.9,3477.1,639.2,743.0,1447.0,889.8,833.6,720.8,-18.0,0.0,-8.0,10431.0,-12057.0,3773.0,-30.0,28.0,32.0,3.0,1.0,3.0,0.0,3996.0,-9703.0,-10811.0,6439.0,-16.0,21.0,24.0,1.0
2022-05-13 15:13:38.509852-07:00,1264.9,703.6,964.5,884.8,731.5,713.4,1502.3,1093.8,3471.0,3471.0,1034.0,856.2,1362.1,3469.8,1166.5,1058.2,3474.6,3478.3,1231.9,1684.3,2291.0,2809.0,1274.7,3494.1,3481.9,3488.0,639.2,732.3,1447.0,889.8,833.6,725.8,-7.0,4.0,-14.0,10433.0,-12059.0,3762.0,-22.0,-21.0,-14.0,-13.0,-2.0,14.0,-32.0,3993.0,-9709.0,-10811.0,6431.0,-25.0,-2.0,-1.0,1.0
2022-05-13 15:13:38.554898-07:00,1264.9,710.1,964.5,882.3,731.5,713.4,1502.3,1084.2,3471.0,3473.4,1033.2,857.0,1362.1,3469.8,1166.5,1059.9,3468.6,3478.3,1231.9,1684.3,2285.9,2797.9,1273.9,3494.1,3471.0,3488.0,639.2,732.3,1452.5,890.7,833.6,725.8,-10.0,-7.0,7.0,10420.0,-12065.0,3782.0,-36.0,-21.0,96.0,35.0,4.0,1.0,-4.0,3984.0,-9712.0,-10817.0,6421.0,-33.0,-4.0,0.0,1.0
2022-05-13 15:13:38.601781-07:00,1270.3,701.9,964.5,882.3,725.8,715.1,1492.1,1084.2,3473.4,3468.6,1033.2,857.0,1366.6,3475.9,1167.4,1059.9,3468.6,3478.3,1229.3,1682.4,2285.9,2797.9,1273.9,3495.3,3471.0,3477.1,633.5,742.2,1452.5,890.7,831.1,720.8,0.0,17.0,-5.0,10402.0,-12075.0,3800.0,-27.0,-57.0,-28.0,11.0,2.0,8.0,-8.0,3972.0,-9719.0,-10822.0,6410.0,-34.0,2.0,10.0,1.0
2022-05-13 15:13:38.646750-07:00,1270.3,701.9,963.7,888.2,725.8,715.1,1490.3,1091.2,3473.4,3468.6,1036.6,849.5,1366.6,3475.9,1166.5,1063.4,3478.3,3474.6,1229.3,1682.4,2267.2,2800.1,1273.9,3495.3,3480.7,3475.9,633.5,742.2,1446.0,892.4,831.1,720.8,-7.0,-11.0,4.0,10393.0,-12081.0,3804.0,-39.0,-5.0,79.0,-9.0,1.0,4.0,-15.0,3964.0,-9723.0,-10827.0,6401.0,-25.0,1.0,-5.0,1.0
2022-05-13 15:13:38.736208-07:00,1263.1,706.9,963.7,888.2,727.4,720.0,1490.3,1091.2,3474.6,3473.4,1036.6,849.5,1373.9,3467.4,1166.5,1063.4,3478.3,3474.6,1227.5,1664.4,2267.2,2800.1,1274.7,3486.8,3480.7,3475.9,639.2,735.6,1446.0,892.4,836.9,726.6,-8.0,0.0,3.0,10370.0,-12091.0,3833.0,-52.0,-67.0,62.0,29.0,5.0,1.0,-2.0,3954.0,-9729.0,-10832.0,6388.0,-56.0,15.0,16.0,1.0
2022-05-13 15:13:38.737622-07:00,1263.1,706.9,932.2,896.6,727.4,720.0,1494.0,1086.0,3474.6,3473.4,1034.0,852.0,1373.9,3467.4,1169.1,1055.6,3477.1,3478.3,1227.5,1664.4,2273.4,2800.1,1274.7,3486.8,3467.4,3473.4,639.2,735.6,1447.9,891.5,836.9,726.6,-4.0,8.0,0.0,10353.0,-12098.0,3858.0,-64.0,12.0,96.0,13.0,0.0,8.0,-8.0,3947.0,-9741.0,-10832.0,6375.0,-5.0,12.0,14.0,1.0
2022-05-13 15:13:38.782308-07:00,1256.9,711.8,932.2,896.6,729.9,716.7,1494.0,1086.0,3469.8,3473.4,1034.0,852.0,1369.4,3469.8,1169.1,1055.6,3477.1,3478.3,1228.4,1668.2,2273.4,2800.1,1272.1,3497.8,3467.4,3473.4,636.7,729.0,1447.9,891.5,837.7,717.5,-15.0,1.0,-17.0,10336.0,-12105.0,3884.0,-89.0,-42.0,49.0,8.0,1.0,3.0,-4.0,3940.0,-9747.0,-10836.0,6363.0,-44.0,9.0,8.0,1.0
2022-05-13 15:13:38.827479-07:00,1256.9,711.8,961.1,894.1,729.9,716.7,1490.3,1098.2,3469.8,3473.4,1037.5,858.7,1369.4,3469.8,1168.2,1065.1,3479.5,3467.4,1228.4,1668.2,2289.0,2799.0,1272.1,3497.8,3481.9,3477.1,636.7,729.0,1440.5,891.5,837.7,717.5,-7.0,3.0,-8.0,10320.0,-12115.0,3894.0,-77.0,-32.0,-12.0,26.0,1.0,6.0,-14.0,3930.0,-9753.0,-10840.0,6352.0,-13.0,4.0,9.0,1.0
2022-05-13 15:13:38.917431-07:00,1258.7,705.2,956.0,894.1,731.5,715.1,1490.3,1098.2,3467.4,3475.9,1034.9,858.7,1367.6,3463.7,1168.2,1065.1,3479.5,3467.4,1215.1,1672.9,2289.0,2793.5,1273.0,3494.1,3481.9,3477.1,633.5,732.3,1440.5,894.1,836.9,727.4,-12.0,0.0,-2.0,10317.0,-12116.0,3898.0,-80.0,8.0,18.0,-10.0,0.0,4.0,-4.0,3930.0,-9753.0,-10841.0,6351.0,5.0,-2.0,-9.0,1.0
2022-05-13 15:13:39.005861-07:00,1258.7,705.2,956.0,897.4,731.5,713.4,1483.8,1092.1,3467.4,3475.9,1034.9,860.4,1367.6,3472.2,1169.1,1065.1,3488.0,3473.4,1221.3,1672.9,2275.5,2793.5,1273.0,3494.1,3472.2,3485.6,633.5,732.3,1452.5,894.1,836.9,727.4,-4.0,-2.0,6.0,10306.0,-12124.0,3901.0,-76.0,-45.0,11.0,13.0,3.0,1.0,-7.0,3924.0,-9756.0,-10845.0,6344.0,-24.0,-4.0,-3.0,1.0
2022-05-13 15:13:39.007553-07:00,1258.7,709.3,951.7,897.4,728.2,713.4,1483.8,1092.1,3474.6,3466.1,1027.1,860.4,1369.4,3472.2,1169.1,1065.1,3488.0,3473.4,1221.3,1662.5,2275.5,2770.2,1267.6,3502.7,3472.2,3485.6,633.5,734.0,1452.5,894.9,838.6,723.3,-2.0,0.0,7.0,10296.0,-12128.0,3916.0,-82.0,-20.0,59.0,14.0,2.0,3.0,-7.0,3920.0,-9757.0,-10848.0,6339.0,-24.0,8.0,2.0,1.0
2022-05-13 15:13:39.095993-07:00,1258.7,709.3,951.7,885.6,728.2,715.1,1486.6,1075.6,3474.6,3466.1,1027.1,852.8,1369.4,3469.8,1163.8,1063.4,3472.2,3473.4,1210.6,1662.5,2269.3,2770.2,1267.6,3502.7,3478.3,3467.4,644.0,734.0,1448.8,894.9,838.6,723.3,-8.0,0.0,-2.0,10284.0,-12133.0,3931.0,-93.0,4.0,19.0,-6.0,3.0,7.0,-8.0,3916.0,-9762.0,-10850.0,6332.0,0.0,12.0,11.0,1.0
2022-05-13 15:13:39.097411-07:00,1261.3,701.1,959.4,885.6,728.2,715.1,1486.6,1075.6,3473.4,3464.9,1034.9,852.8,1370.3,3469.8,1163.8,1063.4,3472.2,3473.4,1210.6,1667.2,2269.3,2783.5,1275.6,3502.7,3478.3,3467.4,644.0,729.9,1448.8,890.7,835.2,720.0,-6.0,-1.0,-8.0,10281.0,-12133.0,3941.0,-102.0,-9.0,47.0,17.0,-1.0,9.0,-13.0,3913.0,-9766.0,-10851.0,6324.0,-12.0,-3.0,-1.0,1.0
2022-05-13 15:13:39.186280-07:00,1261.3,701.1,959.4,882.3,726.6,715.1,1485.6,1080.8,3473.4,3464.9,1034.9,852.8,1370.3,3474.6,1163.8,1065.1,3466.1,3471.0,1224.8,1658.7,2266.2,2783.5,1275.6,3502.7,3472.2,3472.2,635.9,730.7,1455.2,890.7,835.2,720.0,-3.0,10.0,-6.0,10276.0,-12134.0,3948.0,-100.0,-26.0,-14.0,0.0,2.0,11.0,-7.0,3911.0,-9767.0,-10853.0,6321.0,-24.0,-1.0,-4.0,1.0
2022-05-13 15:13:39.187930-07:00,1248.8,701.9,953.4,881.4,726.6,715.1,1485.6,1080.8,3478.3,3473.4,1028.0,855.3,1370.3,3474.6,1163.8,1065.1,3466.1,3471.0,1224.8,1658.7,2267.2,2781.2,1272.1,3495.3,3472.2,3472.2,635.9,730.7,1451.6,887.3,834.4,721.6,-8.0,-8.0,-1.0,10274.0,-12139.0,3940.0,-96.0,-1.0,-18.0,-5.0,1.0,2.0,-10.0,3907.0,-9769.0,-10855.0,6317.0,-2.0,-11.0,-6.0,1.0
2022-05-13 15:13:39.229912-07:00,1248.8,701.9,953.4,881.4,737.3,713.4,1486.6,1071.2,3478.3,3473.4,1028.0,855.3,1360.3,3467.4,1168.2,1061.7,3467.4,3478.3,1215.1,1671.0,2267.2,2781.2,1272.1,3495.3,3469.8,3478.3,641.6,726.6,1451.6,887.3,834.4,721.6,-5.0,-1.0,8.0,10267.0,-12144.0,3943.0,-89.0,-13.0,0.0,11.0,1.0,0.0,-1.0,3902.0,-9770.0,-10859.0,6313.0,0.0,-5.0,1.0,1.0
2022-05-13 15:13:39.321128-07:00,1253.3,725.8,962.0,884.8,737.3,713.4,1486.6,1071.2,3467.4,3462.5,1035.7,851.1,1360.3,3467.4,1168.2,1061.7,3467.4,3478.3,1215.1,1671.0,2256.9,2772.4,1269.4,3481.9,3469.8,3478.3,641.6,726.6,1448.8,892.4,835.2,727.4,0.0,3.0,-1.0,10270.0,-12141.0,3944.0,-91.0,-2.0,18.0,-5.0,4.0,4.0,-10.0,3902.0,-9770.0,-10859.0,6313.0,-9.0,-2.0,-1.0,1.0
2022-05-13 15:13:39.322901-07:00,1253.3,725.8,962.0,884.8,724.9,710.1,1487.5,1084.2,3467.4,3462.5,1035.7,851.1,1370.3,3468.6,1160.3,1055.6,3479.5,3471.0,1213.3,1657.7,2256.9,2772.4,1269.4,3481.9,3481.9,3479.5,628.6,725.8,1448.8,892.4,835.2,727.4,-8.0,2.0,-6.0,10272.0,-12138.0,3949.0,-96.0,12.0,-4.0,-4.0,1.0,7.0,-5.0,3903.0,-9770.0,-10858.0,6313.0,1.0,0.0,0.0,1.0
2022-05-13 15:13:39.411862-07:00,1256.0,704.4,945.8,889.8,724.9,710.1,1487.5,1083.4,3473.4,3462.5,1028.0,855.3,1370.3,3468.6,1160.3,1059.9,3474.6,3471.0,1213.3,1657.7,2266.2,2772.4,1269.4,3491.7,3472.2,3479.5,628.6,725.8,1449.7,904.2,831.1,740.6,-3.0,-6.0,-1.0,10266.0,-12143.0,3947.0,-85.0,4.0,-15.0,15.0,4.0,3.0,-8.0,3899.0,-9771.0,-10861.0,6309.0,14.0,-9.0,-2.0,1.0
2022-05-13 15:13:39.501605-07:00,1243.5,704.4,945.8,889.8,736.5,719.2,1484.7,1083.4,3478.3,3462.5,1028.0,855.3,1366.6,3471.0,1164.7,1059.9,3474.6,3471.0,1213.3,1659.6,2266.2,2772.4,1269.4,3497.8,3472.2,3480.7,637.6,727.4,1449.7,904.2,831.1,724.1,-7.0,-6.0,0.0,10276.0,-12136.0,3943.0,-88.0,4.0,3.0,-15.0,3.0,0.0,-7.0,3904.0,-9768.0,-10858.0,6314.0,-4.0,-4.0,-9.0,1.0
2022-05-13 15:13:39.502789-07:00,1243.5,701.9,959.4,884.8,736.5,719.2,1484.7,1080.8,3478.3,3475.9,1031.4,852.0,1366.6,3471.0,1164.7,1064.3,3472.2,3471.0,1213.3,1659.6,2267.2,2770.2,1265.8,3497.8,3480.7,3480.7,637.6,727.4,1453.4,890.7,835.2,724.1,-5.0,2.0,-4.0,10280.0,-12132.0,3945.0,-86.0,13.0,-14.0,10.0,1.0,0.0,-7.0,3907.0,-9767.0,-10857.0,6317.0,16.0,-6.0,-2.0,1.0
2022-05-13 15:13:39.589462-07:00,1246.2,701.9,959.4,884.8,724.9,707.7,1481.0,1080.8,3480.7,3475.9,1031.4,852.0,1363.0,3466.1,1167.4,1064.3,3472.2,3475.9,1237.3,1653.9,2267.2,2770.2,1265.8,3489.2,3480.7,3472.2,642.4,727.4,1453.4,890.7,835.2,724.1,-2.0,-3.0,-1.0,10283.0,-12132.0,3938.0,-79.0,20.0,-15.0,-5.0,0.0,4.0,-10.0,3908.0,-9766.0,-10856.0,6319.0,24.0,-11.0,-8.0,1.0
2022-05-13 15:13:39.591330-07:00,1246.2,701.1,953.4,884.8,724.9,707.7,1481.0,1081.6,3480.7,3478.3,1030.6,852.0,1363.0,3466.1,1167.4,1059.1,3472.2,3475.9,1237.3,1653.9,2256.9,2770.2,1266.7,3489.2,3473.4,3472.2,642.4,727.4,1448.8,893.2,838.6,724.1,-2.0,1.0,-3.0,10290.0,-12128.0,3932.0,-77.0,-6.0,-24.0,-9.0,4.0,7.0,-10.0,3912.0,-9761.0,-10854.0,6328.0,11.0,-11.0,-11.0,1.0
2022-05-13 15:13:39.635010-07:00,1248.8,701.1,953.4,884.8,723.3,719.2,1477.3,1081.6,3471.0,3478.3,1030.6,852.0,1364.8,3478.3,1165.6,1059.1,3472.2,3484.4,1216.8,1653.9,2256.9,2770.2,1266.7,3497.8,3473.4,3479.5,639.2,723.3,1448.8,893.2,838.6,715.1,-4.0,-5.0,2.0,10288.0,-12130.0,3928.0,-71.0,15.0,-13.0,6.0,0.0,2.0,-7.0,3912.0,-9760.0,-10856.0,6326.0,9.0,-3.0,-8.0,1.0
2022-05-13 15:13:39.679658-07:00,1248.8,701.9,956.0,883.1,723.3,719.2,1473.6,1074.7,3471.0,3475.9,1031.4,842.8,1364.8,3478.3,1164.7,1060.8,3472.2,3478.3,1216.8,1653.9,2263.1,2770.2,1264.0,3497.8,3475.9,3478.3,639.2,723.3,1451.6,888.2,840.3,715.1,-6.0,-1.0,5.0,10296.0,-12126.0,3923.0,-66.0,1.0,-34.0,-6.0,0.0,0.0,-5.0,3917.0,-9758.0,-10853.0,6332.0,11.0,-2.0,-5.0,1.0
2022-05-13 15:13:39.727251-07:00,1248.0,702.8,956.0,883.1,731.5,711.8,1473.6,1074.7,3471.0,3472.2,1031.4,842.8,1363.9,3467.4,1164.7,1060.8,3472.2,3478.3,1209.7,1639.8,2263.1,2770.2,1264.9,3499.0,3475.9,3478.3,638.4,724.9,1451.6,888.2,836.9,715.1,-3.0,3.0,1.0,10298.0,-12126.0,3917.0,-59.0,4.0,-5.0,5.0,1.0,2.0,-6.0,3917.0,-9758.0,-10853.0,6332.0,8.0,-2.0,2.0,1.0
2022-05-13 15:13:39.906059-07:00,1248.0,702.8,952.6,881.4,731.5,711.8,1474.6,1079.0,3471.0,3472.2,1035.7,849.5,1363.9,3467.4,1168.2,1065.1,3472.2,3467.4,1209.7,1639.8,2257.9,2774.6,1264.9,3499.0,3468.6,3467.4,638.4,724.9,1453.4,893.2,836.9,715.1,-6.0,-2.0,-4.0,10298.0,-12126.0,3918.0,-61.0,2.0,3.0,-4.0,3.0,5.0,-8.0,3917.0,-9758.0,-10852.0,6332.0,-7.0,-6.0,-3.0,1.0
2022-05-13 15:13:39.907395-07:00,1242.6,706.0,952.6,881.4,734.0,711.0,1474.6,1079.0,3473.4,3463.7,1035.7,849.5,1363.0,3466.1,1168.2,1065.1,3472.2,3467.4,1231.0,1645.4,2257.9,2774.6,1267.6,3492.9,3468.6,3467.4,630.3,718.4,1453.4,893.2,841.9,725.8,-4.0,0.0,-4.0,10299.0,-12126.0,3916.0,-58.0,-5.0,-11.0,7.0,2.0,6.0,-6.0,3918.0,-9758.0,-10852.0,6334.0,6.0,-7.0,-3.0,1.0
2022-05-13 15:13:39.910573-07:00,1242.6,706.0,956.0,884.8,734.0,711.0,1473.6,1076.4,3473.4,3463.7,1034.0,852.0,1363.0,3466.1,1163.0,1054.8,3471.0,3479.5,1231.0,1645.4,2259.0,2779.0,1267.6,3492.9,3478.3,3481.9,630.3,718.4,1452.5,894.1,841.9,725.8,-6.0,-3.0,1.0,10297.0,-12127.0,3915.0,-56.0,16.0,-8.0,3.0,2.0,2.0,-6.0,3918.0,-9757.0,-10851.0,6335.0,11.0,-7.0,-1.0,1.0
2022-05-13 15:13:39.951810-07:00,1242.6,695.4,950.0,884.8,724.9,719.2,1473.6,1076.4,3461.3,3472.2,1035.7,852.0,1370.3,3467.4,1163.0,1054.8,3471.0,3479.5,1214.2,1650.2,2259.0,2771.3,1267.6,3490.5,3478.3,3481.9,635.9,722.5,1452.5,892.4,838.6,715.9,0.0,-2.0,1.0,10299.0,-12127.0,3913.0,-54.0,-8.0,-7.0,0.0,4.0,3.0,-3.0,3920.0,-9757.0,-10850.0,6336.0,-6.0,0.0,-1.0,1.0
2022-05-13 15:13:40.087095-07:00,1242.6,695.4,950.0,882.3,724.9,712.6,1480.1,1079.9,3461.3,3472.2,1035.7,847.8,1370.3,3474.6,1163.8,1068.6,3479.5,3469.8,1210.6,1650.2,2241.4,2771.3,1267.6,3490.5,3479.5,3462.5,631.9,722.5,1448.8,892.4,838.6,715.9,0.0,2.0,0.0,10301.0,-12125.0,3911.0,-53.0,10.0,12.0,3.0,1.0,7.0,-11.0,3921.0,-9756.0,-10850.0,6338.0,9.0,-2.0,1.0,1.0
2022-05-13 15:13:40.088299-07:00,1248.0,700.3,950.0,882.3,731.5,712.6,1480.1,1079.9,3471.0,3474.6,1033.2,847.8,1370.3,3474.6,1163.8,1068.6,3479.5,3469.8,1210.6,1651.1,2241.4,2772.4,1261.3,3486.8,3479.5,3462.5,631.9,718.4,1448.8,889.0,836.9,729.9,-7.0,-4.0,-8.0,10301.0,-12125.0,3913.0,-55.0,-1.0,-23.0,-3.0,1.0,7.0,-9.0,3921.0,-9756.0,-10850.0,6338.0,3.0,-2.0,-2.0,1.0
2022-05-13 15:13:40.089400-07:00,1248.0,700.3,950.0,884.8,731.5,715.9,1480.1,1066.0,3471.0,3474.6,1033.2,867.1,1370.3,3478.3,1163.0,1055.6,3478.3,3479.5,1211.5,1651.1,2232.2,2772.4,1261.3,3486.8,3483.2,3471.0,638.4,718.4,1457.1,889.0,836.9,729.9,-5.0,2.0,1.0,10302.0,-12125.0,3910.0,-51.0,6.0,4.0,5.0,1.0,3.0,-4.0,3921.0,-9756.0,-10850.0,6338.0,6.0,-6.0,-3.0,1.0
2022-05-13 15:13:40.175575-07:00,1246.2,697.9,935.6,884.8,730.7,715.9,1480.1,1066.0,3467.4,3469.8,1031.4,867.1,1365.7,3478.3,1163.0,1055.6,3478.3,3479.5,1211.5,1657.7,2232.2,2753.6,1256.9,3490.5,3483.2,3471.0,638.4,729.9,1457.1,899.1,833.6,720.0,-5.0,-2.0,2.0,10302.0,-12125.0,3910.0,-51.0,4.0,1.0,1.0,1.0,4.0,-4.0,3921.0,-9756.0,-10850.0,6338.0,3.0,-1.0,0.0,1.0
2022-05-13 15:13:40.177016-07:00,1246.2,697.9,935.6,878.0,730.7,707.7,1470.9,1079.0,3467.4,3469.8,1031.4,852.8,1365.7,3480.7,1165.6,1066.0,3480.7,3474.6,1222.2,1657.7,2245.6,2753.6,1256.9,3490.5,3481.9,3478.3,631.9,729.9,1448.8,899.1,833.6,720.0,-10.0,0.0,-5.0,10301.0,-12125.0,3913.0,-48.0,-14.0,-2.0,16.0,1.0,5.0,-8.0,3921.0,-9756.0,-10850.0,6338.0,-8.0,-8.0,1.0,1.0
2022-05-13 15:13:40.221980-07:00,1236.4,701.1,953.4,887.3,729.9,707.7,1470.9,1079.0,3469.8,3477.1,1031.4,845.3,1363.9,3480.7,1165.6,1066.0,3480.7,3474.6,1222.2,1646.4,2251.7,2764.6,1258.7,3494.1,3481.9,3478.3,631.9,718.4,1449.7,891.5,841.1,722.5,0.0,-1.0,-3.0,10301.0,-12125.0,3913.0,-47.0,7.0,-3.0,-11.0,3.0,11.0,-12.0,3921.0,-9756.0,-10850.0,6338.0,4.0,-6.0,-5.0,1.0
2022-05-13 15:13:40.267354-07:00,1236.4,701.1,953.4,887.3,728.2,721.6,1468.1,1073.8,3469.8,3477.1,1031.4,845.3,1367.6,3469.8,1157.7,1061.7,3479.5,3471.0,1202.7,1647.3,2251.7,2764.6,1258.7,3494.1,3467.4,3467.4,633.5,723.3,1449.7,891.5,841.1,722.5,-6.0,-2.0,-3.0,10302.0,-12123.0,3915.0,-47.0,-4.0,-4.0,15.0,3.0,2.0,-7.0,3923.0,-9755.0,-10849.0,6340.0,3.0,-2.0,1.0,1.0
2022-05-13 15:13:40.446930-07:00,1237.3,696.2,941.5,883.9,728.2,721.6,1468.1,1073.8,3471.0,3473.4,1026.3,848.6,1367.6,3469.8,1157.7,1061.7,3479.5,3471.0,1202.7,1647.3,2247.6,2763.5,1262.2,3499.0,3467.4,3467.4,633.5,723.3,1451.6,894.1,834.4,720.0,-4.0,-1.0,5.0,10297.0,-12126.0,3919.0,-41.0,-1.0,3.0,6.0,1.0,3.0,-6.0,3920.0,-9756.0,-10850.0,6337.0,-1.0,-3.0,-1.0,1.0
2022-05-13 15:13:40.448257-07:00,1237.3,696.2,941.5,883.9,731.5,710.1,1462.6,1076.4,3471.0,3473.4,1026.3,848.6,1360.3,3464.9,1163.8,1062.5,3480.7,3474.6,1205.3,1640.7,2247.6,2763.5,1262.2,3499.0,3483.2,3477.1,648.9,715.1,1451.6,894.1,834.4,720.0,-8.0,-1.0,-6.0,10304.0,-12121.0,3916.0,-45.0,-3.0,6.0,-13.0,1.0,7.0,-6.0,3923.0,-9755.0,-10848.0,6340.0,-1.0,-3.0,-2.0,1.0
2022-05-13 15:13:40.449404-07:00,1234.6,696.2,955.1,876.4,731.5,710.1,1462.6,1076.4,3478.3,3473.4,1029.7,851.1,1360.3,3464.9,1163.8,1062.5,3480.7,3474.6,1205.3,1640.7,2246.6,2756.9,1259.6,3494.1,3483.2,3477.1,648.9,715.1,1463.5,888.2,831.1,723.3,-1.0,2.0,0.0,10301.0,-12123.0,3919.0,-42.0,13.0,0.0,19.0,1.0,9.0,-12.0,3923.0,-9755.0,-10848.0,6340.0,16.0,-4.0,0.0,1.0
2022-05-13 15:13:40.491765-07:00,1239.1,696.2,955.1,876.4,732.3,711.0,1462.6,1069.5,3473.4,3473.4,1029.7,851.1,1363.9,3468.6,1163.0,1059.1,3467.4,3469.8,1211.5,1641.6,2246.6,2756.9,1259.6,3491.7,3474.6,3474.6,637.6,724.1,1463.5,888.2,831.1,725.8,-5.0,-1.0,-5.0,10303.0,-12122.0,3917.0,-43.0,-13.0,-15.0,-18.0,1.0,1.0,-7.0,3924.0,-9755.0,-10848.0,6341.0,-6.0,0.0,-8.0,1.0
2022-05-13 15:13:40.536434-07:00,1239.1,706.0,953.4,881.4,732.3,711.0,1462.6,1075.6,3473.4,3469.8,1031.4,852.0,1363.9,3468.6,1163.0,1059.1,3474.6,3469.8,1211.5,1641.6,2251.7,2765.7,1256.9,3491.7,3477.1,3474.6,637.6,724.1,1447.9,902.5,837.7,725.8,-1.0,0.0,2.0,10306.0,-12121.0,3912.0,-39.0,-2.0,-7.0,11.0,2.0,5.0,-9.0,3926.0,-9754.0,-10846.0,6343.0,0.0,-9.0,-2.0,1.0
2022-05-13 15:13:40.581199-07:00,1234.6,706.0,953.4,881.4,735.6,709.3,1473.6,1075.6,3479.5,3469.8,1031.4,852.0,1368.5,3464.9,1159.4,1059.1,3474.6,3479.5,1210.6,1633.1,2251.7,2765.7,1256.9,3507.5,3477.1,3474.6,635.9,715.9,1447.9,902.5,837.7,725.8,-4.0,1.0,-1.0,10307.0,-12120.0,3912.0,-39.0,18.0,-6.0,-8.0,3.0,4.0,-6.0,3926.0,-9754.0,-10847.0,6344.0,8.0,1.0,-1.0,1.0
2022-05-13 15:13:40.624829-07:00,1234.6,700.3,954.3,889.8,735.6,709.3,1473.6,1073.8,3479.5,3467.4,1035.7,845.3,1368.5,3464.9,1159.4,1052.2,3475.9,3479.5,1210.6,1633.1,2242.5,2762.4,1269.4,3507.5,3477.1,3474.6,635.9,715.9,1442.4,893.2,838.6,725.8,0.0,-2.0,-1.0,10310.0,-12118.0,3910.0,-37.0,12.0,8.0,-1.0,1.0,5.0,-13.0,3927.0,-9753.0,-10846.0,6345.0,8.0,-6.0,-3.0,1.0
2022-05-13 15:13:40.671201-07:00,1239.1,700.3,954.3,889.8,730.7,718.4,1470.0,1073.8,3471.0,3467.4,1035.7,845.3,1368.5,3472.2,1164.7,1052.2,3475.9,3479.5,1211.5,1634.1,2242.5,2762.4,1269.4,3501.4,3477.1,3478.3,633.5,711.8,1442.4,893.2,838.6,724.9,-3.0,-8.0,-2.0,10311.0,-12118.0,3909.0,-36.0,-13.0,-17.0,5.0,0.0,2.0,-9.0,3927.0,-9753.0,-10846.0,6345.0,-3.0,-3.0,-5.0,1.0
2022-05-13 15:13:40.761710-07:00,1239.1,701.1,941.5,880.6,730.7,718.4,1461.7,1077.3,3471.0,3472.2,1029.7,848.6,1368.5,3472.2,1163.0,1058.2,3473.4,3477.1,1211.5,1634.1,2239.4,2759.1,1266.7,3501.4,3483.2,3479.5,633.5,711.8,1441.5,888.2,836.9,724.9,3.0,1.0,8.0,10310.0,-12117.0,3913.0,-40.0,2.0,42.0,4.0,4.0,8.0,-10.0,3927.0,-9753.0,-10845.0,6346.0,2.0,1.0,0.0,1.0
2022-05-13 15:13:40.762935-07:00,1236.4,697.0,941.5,880.6,731.5,715.9,1461.7,1077.3,3477.1,3464.9,1029.7,848.6,1368.5,3469.8,1163.0,1058.2,3473.4,3477.1,1206.2,1643.5,2239.4,2759.1,1260.4,3502.7,3483.2,3479.5,629.5,720.0,1441.5,888.2,840.3,718.4,16.0,-27.0,29.0,10308.0,-12096.0,3982.0,-80.0,82.0,303.0,156.0,0.0,10.0,-19.0,3934.0,-9750.0,-10841.0,6354.0,71.0,-11.0,-1.0,1.0
2022-05-13 15:13:40.987257-07:00,1236.4,697.0,953.4,884.8,731.5,715.9,1472.7,1069.5,3477.1,3464.9,1027.1,848.6,1368.5,3469.8,1164.7,1058.2,3462.5,3475.9,1206.2,1643.5,2238.4,2767.9,1260.4,3502.7,3464.9,3477.1,629.5,720.0,1452.5,888.2,840.3,718.4,76.0,-110.0,124.0,10267.0,-12031.0,4271.0,-199.0,120.0,1030.0,591.0,-7.0,21.0,-49.0,3939.0,-9744.0,-10835.0,6371.0,148.0,-79.0,3.0,1.0
2022-05-13 15:13:40.989907-07:00,1231.0,701.9,953.4,884.8,731.5,714.2,1472.7,1069.5,3462.5,3466.1,1027.1,848.6,1367.6,3477.1,1164.7,1058.2,3462.5,3475.9,1218.6,1631.3,2238.4,2767.9,1263.1,3486.8,3464.9,3477.1,637.6,724.9,1452.5,888.2,839.4,726.6,108.0,-54.0,199.0,10184.0,-11763.0,5096.0,-621.0,633.0,2558.0,1139.0,6.0,-22.0,32.0,3981.0,-9705.0,-10783.0,6492.0,347.0,-76.0,133.0,1.0
2022-05-13 15:13:40.991065-07:00,1231.0,701.9,951.7,891.5,731.5,714.2,1522.7,1074.7,3462.5,3466.1,1029.7,846.1,1367.6,3477.1,1166.5,1055.6,3473.4,3472.2,1218.6,1631.3,2233.2,2761.3,1263.1,3486.8,3478.3,3478.3,637.6,724.9,1448.8,894.9,839.4,726.6,41.0,-30.0,84.0,9912.0,-11380.0,6249.0,-1277.0,362.0,3123.0,1259.0,12.0,-40.0,61.0,3994.0,-9747.0,-10689.0,6575.0,85.0,90.0,350.0,1.0
2022-05-13 15:13:40.992236-07:00,1249.7,703.6,951.7,891.5,729.0,718.4,1522.7,1074.7,3467.4,3472.2,1029.7,846.1,1367.6,3472.2,1166.5,1055.6,3473.4,3472.2,1217.7,1633.1,2233.2,2761.3,1257.8,3491.7,3478.3,3478.3,635.9,720.0,1448.8,894.9,832.7,724.9,87.0,-12.0,-30.0,9571.0,-10878.0,7387.0,-1982.0,759.0,3059.0,1176.0,13.0,-11.0,-3.0,4011.0,-9866.0,-10539.0,6629.0,320.0,199.0,440.0,1.0
2022-05-13 15:13:41.030997-07:00,1249.7,703.6,952.6,887.3,729.0,713.4,1540.3,1098.2,3467.4,3472.2,1021.9,847.8,1367.6,3483.2,1167.4,1064.3,3472.2,3480.7,1226.6,1633.1,2245.6,2763.5,1257.8,3491.7,3472.2,3480.7,627.8,720.0,1452.5,889.8,832.7,724.9,151.0,-2.0,-100.0,9287.0,-10266.0,8329.0,-2726.0,888.0,2806.0,893.0,-3.0,30.0,-80.0,4106.0,-9975.0,-10338.0,6723.0,476.0,220.0,330.0,1.0
2022-05-13 15:13:41.074882-07:00,1256.0,705.2,955.1,887.3,736.5,713.4,1540.3,1098.2,3468.6,3467.4,1028.8,847.8,1366.6,3483.2,1167.4,1064.3,3472.2,3480.7,1226.6,1628.4,2245.6,2786.8,1260.4,3489.2,3472.2,3480.7,627.8,714.2,1452.5,892.4,848.6,721.6,102.0,-90.0,-17.0,9039.0,-9696.0,9013.0,-3389.0,1543.0,3035.0,858.0,14.0,-23.0,3.0,4261.0,-10031.0,-10133.0,6854.0,781.0,252.0,290.0,1.0
2022-05-13 15:13:41.166535-07:00,1256.0,705.2,955.1,891.5,736.5,715.1,1545.0,1113.9,3468.6,3467.4,1028.8,855.3,1366.6,3468.6,1163.8,1062.5,3469.8,3478.3,1264.0,1628.4,2257.9,2786.8,1260.4,3489.2,3479.5,3472.2,622.2,714.2,1447.9,892.4,848.6,721.6,-52.0,71.0,-150.0,8788.0,-8898.0,9694.0,-4249.0,842.0,2133.0,508.0,3.0,-9.0,38.0,4425.0,-10116.0,-9924.0,6931.0,135.0,418.0,302.0,1.0
2022-05-13 15:13:41.212084-07:00,1290.9,713.4,971.3,891.5,734.0,715.1,1545.0,1113.9,3469.8,3473.4,1032.3,855.3,1368.5,3468.6,1163.8,1062.5,3469.8,3478.3,1264.0,1635.0,2257.9,2831.3,1257.8,3497.8,3479.5,3472.2,622.2,711.8,1447.9,888.2,796.0,719.2,23.0,1.0,-103.0,8551.0,-8369.0,10120.0,-4783.0,830.0,1486.0,384.0,4.0,15.0,-6.0,4519.0,-10244.0,-9773.0,6896.0,89.0,342.0,231.0,1.0
2022-05-13 15:13:41.213354-07:00,1290.9,713.4,971.3,892.4,734.0,711.8,1554.3,1150.6,3469.8,3473.4,1032.3,852.0,1368.5,3473.4,1160.3,1052.2,3467.4,3477.1,1270.3,1635.0,2302.5,2831.3,1257.8,3497.8,3473.4,3473.4,627.8,711.8,1447.9,888.2,796.0,719.2,49.0,18.0,-93.0,8397.0,-8030.0,10360.0,-5110.0,265.0,692.0,89.0,-6.0,37.0,-45.0,4562.0,-10342.0,-9688.0,6841.0,-68.0,182.0,92.0,1.0
2022-05-13 15:13:41.346009-07:00,1325.0,713.4,969.6,899.1,731.5,711.8,1554.3,1150.6,3478.3,3468.6,1030.6,855.3,1362.1,3473.4,1160.3,1052.2,3467.4,3477.1,1270.3,1635.0,2350.4,2858.2,1269.4,3486.8,3473.4,3473.4,627.8,714.2,1456.2,887.3,840.3,720.0,16.0,12.0,-62.0,8304.0,-7887.0,10449.0,-5299.0,215.0,347.0,-58.0,1.0,12.0,-15.0,4567.0,-10388.0,-9673.0,6791.0,-50.0,85.0,9.0,1.0
2022-05-13 15:13:41.348381-07:00,1325.0,713.4,969.6,899.1,735.6,712.6,1549.7,1161.2,3478.3,3468.6,1030.6,855.3,1372.1,3464.9,1161.2,1059.9,3477.1,3477.1,1268.5,1638.8,2350.4,2858.2,1269.4,3486.8,3483.2,3478.3,619.7,723.3,1456.2,887.3,840.3,720.0,8.0,-5.0,-7.0,8267.0,-7833.0,10461.0,-5414.0,159.0,118.0,-72.0,2.0,4.0,-3.0,4574.0,-10397.0,-9675.0,6768.0,-4.0,29.0,-22.0,1.0
2022-05-13 15:13:41.389940-07:00,1320.5,721.6,966.2,901.7,735.6,712.6,1549.7,1161.2,3469.8,3478.3,1028.0,850.3,1372.1,3464.9,1161.2,1059.9,3477.1,3477.1,1268.5,1638.8,2337.9,2862.7,1281.9,3497.8,3483.2,3478.3,619.7,723.3,1452.5,877.2,832.7,724.9,-1.0,-23.0,7.0,8255.0,-7794.0,10455.0,-5498.0,252.0,125.0,-24.0,7.0,-3.0,2.0,4587.0,-10396.0,-9674.0,6763.0,58.0,23.0,-11.0,1.0
2022-05-13 15:13:41.572246-07:00,1320.5,721.6,966.2,901.7,732.3,702.8,1557.1,1169.1,3469.8,3478.3,1028.0,850.3,1369.4,3469.8,1168.2,1060.8,3474.6,3478.3,1263.1,1628.4,2337.9,2862.7,1281.9,3497.8,3477.1,3481.9,618.1,716.7,1452.5,877.2,832.7,724.9,11.0,-11.0,16.0,8261.0,-7742.0,10439.0,-5592.0,153.0,137.0,-76.0,6.0,7.0,-3.0,4604.0,-10398.0,-9665.0,6761.0,-13.0,42.0,1.0,1.0
2022-05-13 15:13:41.574140-07:00,1326.8,720.0,980.7,891.5,732.3,702.8,1557.1,1169.1,3466.1,3467.4,1024.5,852.0,1369.4,3469.8,1168.2,1060.8,3474.6,3478.3,1263.1,1628.4,2338.9,2876.1,1289.1,3500.2,3477.1,3481.9,618.1,716.7,1448.8,884.8,834.4,721.6,2.0,9.0,-18.0,8237.0,-7713.0,10434.0,-5677.0,64.0,118.0,-84.0,4.0,5.0,-1.0,4607.0,-10411.0,-9665.0,6739.0,-51.0,52.0,10.0,1.0
2022-05-13 15:13:41.575279-07:00,1325.0,720.0,980.7,891.5,729.0,720.8,1552.5,1162.1,3468.6,3467.4,1024.5,852.0,1365.7,3466.1,1166.5,1061.7,3479.5,3473.4,1264.0,1618.1,2338.9,2876.1,1289.1,3494.1,3471.0,3475.9,622.2,712.6,1448.8,884.8,834.4,720.8,18.0,-20.0,-5.0,8208.0,-7711.0,10433.0,-5723.0,29.0,51.0,-37.0,2.0,3.0,-18.0,4604.0,-10425.0,-9668.0,6715.0,-33.0,29.0,6.0,1.0
2022-05-13 15:13:41.576375-07:00,1325.0,735.6,979.0,889.8,729.0,720.8,1552.5,1163.0,3468.6,3473.4,1024.5,844.4,1365.7,3466.1,1166.5,1062.5,3480.7,3473.4,1264.0,1618.1,2331.6,2867.2,1292.7,3494.1,3478.3,3475.9,622.2,712.6,1449.7,884.8,827.7,720.8,11.0,0.0,-10.0,8200.0,-7699.0,10432.0,-5752.0,51.0,14.0,-6.0,2.0,9.0,-8.0,4608.0,-10427.0,-9667.0,6711.0,19.0,8.0,-4.0,1.0
2022-05-13 15:13:41.660784-07:00,1323.2,735.6,979.0,889.8,743.0,713.4,1555.3,1163.0,3471.0,3473.4,1024.5,844.4,1364.8,3466.1,1170.9,1062.5,3480.7,3471.0,1260.4,1598.3,2331.6,2867.2,1292.7,3492.9,3478.3,3479.5,623.8,708.5,1449.7,884.8,827.7,720.8,7.0,-4.0,0.0,8199.0,-7699.0,10427.0,-5763.0,7.0,-19.0,-9.0,3.0,2.0,-5.0,4608.0,-10424.0,-9670.0,6710.0,5.0,-12.0,-14.0,1.0
2022-05-13 15:13:41.662788-07:00,1323.2,713.4,972.2,896.6,743.0,713.4,1555.3,1164.7,3471.0,3471.0,1021.1,844.4,1364.8,3466.1,1170.9,1065.1,3471.0,3471.0,1260.4,1598.3,2319.1,2864.9,1293.6,3492.9,3469.8,3479.5,623.8,708.5,1451.6,890.7,835.2,720.8,9.0,-8.0,9.0,8205.0,-7696.0,10421.0,-5770.0,49.0,0.0,-4.0,4.0,3.0,0.0,4611.0,-10418.0,-9671.0,6717.0,20.0,-13.0,-6.0,1.0
2022-05-13 15:13:41.796283-07:00,1325.9,713.4,972.2,896.6,742.2,719.2,1548.7,1164.7,3467.4,3471.0,1021.1,844.4,1370.3,3463.7,1165.6,1065.1,3471.0,3468.6,1259.6,1602.1,2319.1,2864.9,1293.6,3496.6,3469.8,3480.7,615.7,709.3,1451.6,890.7,835.2,724.1,6.0,-12.0,14.0,8207.0,-7686.0,10412.0,-5796.0,63.0,40.0,-16.0,3.0,1.0,1.0,4612.0,-10417.0,-9671.0,6717.0,8.0,8.0,4.0,1.0
