Time,P0,P1,P2,P3,P4,P5,P6,P7,P8,P9,P10,P11,P12,P13,P14,P15,P16,P17,P18,P19,P20,P21,P22,P23,P24,P25,P26,P27,P28,P29,P30,P31,ECG,AX0,AY0,AZ0,QW0,QX0,QY0,QZ0,GX0,GY0,GZ0,AX1,AY1,AZ1,QW1,QX1,QY1,QZ1,GX1,GY1,GZ1
2022-05-13 15:10:48.133363-07:00,1035.7,648.9,933.9,889.0,730.7,714.2,1453.4,1066.0,3473.4,3471.0,1025.4,859.5,1383.0,3468.6,1157.7,1063.4,3478.3,3467.4,1088.6,1462.6,2078.5,2589.6,1137.5,3497.8,3469.8,3478.3,627.8,723.3,1451.6,874.7,820.2,720.0,1.0,-1.0,-18.0,10448.0,-11161.0,4992.0,-3125.0,2.0,7.0,1.0,4.0,5.0,-8.0,4891.0,-10525.0,-9822.0,6104.0,1.0,1.0,1.0,1.0
2022-05-13 15:10:48.134917-07:00,1029.7,647.3,927.9,889.0,731.5,714.2,1453.4,1066.0,3479.5,3464.9,1021.9,859.5,1389.4,3468.6,1157.7,1063.4,3478.3,3467.4,1088.6,1470.9,2078.5,2592.9,1142.7,3492.9,3469.8,3478.3,627.8,725.8,1451.6,876.4,817.7,724.9,2.0,1.0,-20.0,10448.0,-11161.0,4992.0,-3125.0,3.0,-2.0,-1.0,8.0,3.0,-5.0,4891.0,-10525.0,-9822.0,6104.0,2.0,-3.0,-3.0,1.0
2022-05-13 15:10:48.177858-07:00,1029.7,647.3,927.9,903.4,731.5,724.1,1451.6,1064.3,3479.5,3464.9,1021.9,847.0,1389.4,3473.4,1161.2,1064.3,3478.3,3472.2,1090.3,1470.9,2079.5,2592.9,1142.7,3492.9,3473.4,3467.4,634.3,725.8,1448.8,876.4,817.7,724.9,0.0,0.0,-8.0,10449.0,-11162.0,4990.0,-3124.0,4.0,-5.0,-3.0,5.0,1.0,-2.0,4891.0,-10525.0,-9822.0,6104.0,3.0,-7.0,-1.0,1.0
2022-05-13 15:10:48.268125-07:00,1031.4,651.4,938.1,903.4,733.2,724.1,1451.6,1064.3,3462.5,3464.9,1021.1,847.0,1388.5,3473.4,1161.2,1064.3,3478.3,3472.2,1090.3,1465.4,2079.5,2595.0,1143.6,3484.4,3473.4,3467.4,634.3,721.6,1448.8,877.2,817.7,718.4,-2.0,-1.0,-17.0,10449.0,-11162.0,4992.0,-3125.0,-1.0,12.0,1.0,4.0,2.0,-3.0,4891.0,-10525.0,-9822.0,6104.0,1.0,5.0,3.0,1.0
2022-05-13 15:10:48.269332-07:00,1031.4,651.4,938.1,893.2,740.6,724.9,1461.7,1073.8,3462.5,3464.9,1021.1,852.8,1382.1,3471.0,1160.3,1063.4,3472.2,3473.4,1105.1,1461.7,2076.5,2595.0,1143.6,3484.4,3488.0,3479.5,626.2,724.9,1459.8,877.2,817.7,718.4,1.0,-3.0,-21.0,10448.0,-11161.0,4993.0,-3126.0,-2.0,6.0,-1.0,7.0,7.0,-6.0,4891.0,-10525.0,-9822.0,6104.0,-4.0,0.0,2.0,1.0
2022-05-13 15:10:48.314094-07:00,1023.7,641.6,934.7,889.8,740.6,724.9,1461.7,1073.8,3474.6,3479.5,1019.4,848.6,1382.1,3471.0,1160.3,1063.4,3472.2,3473.4,1105.1,1461.7,2078.5,2587.4,1147.1,3497.8,3488.0,3479.5,626.2,724.9,1447.9,878.9,823.5,720.0,2.0,2.0,-22.0,10448.0,-11161.0,4993.0,-3126.0,5.0,-4.0,-2.0,7.0,5.0,-5.0,4891.0,-10525.0,-9822.0,6104.0,5.0,-5.0,-1.0,1.0
2022-05-13 15:10:48.403996-07:00,1023.7,641.6,934.7,889.8,732.3,712.6,1463.5,1059.9,3474.6,3479.5,1019.4,848.6,1385.7,3473.4,1162.1,1055.6,3474.6,3478.3,1090.3,1465.4,2078.5,2587.4,1147.1,3497.8,3473.4,3474.6,631.1,720.8,1447.9,878.9,823.5,720.0,0.0,-1.0,-12.0,10448.0,-11161.0,4993.0,-3126.0,6.0,-3.0,2.0,6.0,3.0,-6.0,4891.0,-10525.0,-9822.0,6104.0,9.0,-8.0,-1.0,1.0
2022-05-13 15:10:48.446960-07:00,1028.8,642.4,937.3,892.4,732.3,712.6,1463.5,1059.9,3469.8,3467.4,1021.9,854.5,1385.7,3473.4,1162.1,1055.6,3474.6,3478.3,1090.3,1465.4,2078.5,2578.8,1141.9,3499.0,3473.4,3474.6,631.1,720.8,1455.2,873.0,818.5,723.3,0.0,-1.0,-12.0,10448.0,-11161.0,4993.0,-3126.0,-5.0,1.0,-2.0,6.0,1.0,-2.0,4892.0,-10525.0,-9822.0,6104.0,-7.0,2.0,0.0,1.0
2022-05-13 15:10:48.536878-07:00,1028.8,642.4,937.3,892.4,730.7,720.0,1456.2,1067.7,3469.8,3467.4,1021.9,854.5,1388.5,3462.5,1157.7,1064.3,3464.9,3479.5,1088.6,1462.6,2078.5,2578.8,1141.9,3499.0,3473.4,3479.5,627.0,723.3,1455.2,873.0,818.5,723.3,0.0,1.0,-14.0,10448.0,-11161.0,4993.0,-3126.0,6.0,6.0,-1.0,8.0,1.0,-5.0,4892.0,-10525.0,-9822.0,6104.0,5.0,-2.0,5.0,1.0
2022-05-13 15:10:48.539121-07:00,1028.8,643.2,932.2,893.2,730.7,720.0,1456.2,1069.5,3477.1,3467.4,1029.7,860.4,1388.5,3462.5,1157.7,1065.1,3477.1,3479.5,1088.6,1462.6,2078.5,2588.5,1141.9,3499.0,3477.1,3479.5,627.0,723.3,1460.8,870.5,818.5,723.3,0.0,-1.0,-13.0,10448.0,-11161.0,4993.0,-3126.0,-6.0,7.0,1.0,2.0,3.0,-5.0,4892.0,-10525.0,-9822.0,6104.0,-8.0,2.0,3.0,1.0
2022-05-13 15:10:48.581598-07:00,1026.3,643.2,932.2,893.2,728.2,720.8,1455.2,1069.5,3471.0,3467.4,1029.7,860.4,1383.9,3466.1,1161.2,1065.1,3477.1,3475.9,1091.2,1466.3,2078.5,2588.5,1141.9,3496.6,3477.1,3488.0,630.3,721.6,1460.8,870.5,818.5,721.6,-2.0,2.0,-20.0,10449.0,-11161.0,4993.0,-3126.0,5.0,-1.0,-1.0,2.0,6.0,-7.0,4892.0,-10525.0,-9822.0,6104.0,5.0,1.0,0.0,1.0
2022-05-13 15:10:48.627369-07:00,1026.3,640.0,939.0,887.3,728.2,720.8,1455.2,1064.3,3471.0,3467.4,1017.6,858.7,1383.9,3466.1,1161.2,1060.8,3480.7,3475.9,1091.2,1466.3,2075.5,2596.1,1139.2,3496.6,3479.5,3488.0,630.3,721.6,1452.5,878.0,809.4,721.6,4.0,0.0,-16.0,10449.0,-11161.0,4993.0,-3126.0,4.0,-1.0,-4.0,9.0,3.0,-7.0,4892.0,-10525.0,-9822.0,6104.0,1.0,-2.0,-3.0,1.0
2022-05-13 15:10:48.716721-07:00,1028.8,640.0,939.0,887.3,731.5,715.1,1486.6,1064.3,3475.9,3467.4,1017.6,858.7,1387.5,3471.0,1157.7,1060.8,3480.7,3478.3,1098.2,1455.2,2075.5,2596.1,1139.2,3496.6,3479.5,3478.3,631.9,723.3,1452.5,878.0,809.4,718.4,4.0,3.0,-15.0,10449.0,-11161.0,4993.0,-3126.0,-3.0,-5.0,-1.0,10.0,1.0,-4.0,4892.0,-10525.0,-9822.0,6104.0,-4.0,-2.0,-3.0,1.0
2022-05-13 15:10:48.719358-07:00,1028.8,652.2,941.5,879.7,731.5,715.1,1486.6,1064.3,3475.9,3468.6,1025.4,852.8,1387.5,3471.0,1157.7,1061.7,3467.4,3478.3,1098.2,1455.2,2079.5,2578.8,1137.5,3496.6,3473.4,3478.3,631.9,723.3,1447.0,884.8,821.0,718.4,0.0,2.0,-16.0,10449.0,-11161.0,4993.0,-3126.0,3.0,0.0,-2.0,8.0,1.0,-3.0,4892.0,-10525.0,-9822.0,6104.0,3.0,1.0,1.0,1.0
2022-05-13 15:10:48.763088-07:00,1033.2,652.2,941.5,879.7,734.0,722.5,1466.3,1064.3,3475.9,3468.6,1025.4,852.8,1391.2,3471.0,1155.0,1061.7,3467.4,3467.4,1090.3,1467.2,2079.5,2578.8,1137.5,3494.1,3473.4,3469.8,634.3,724.9,1447.0,884.8,821.0,721.6,-6.0,-1.0,-10.0,10449.0,-11161.0,4993.0,-3126.0,4.0,5.0,-2.0,1.0,1.0,-3.0,4892.0,-10525.0,-9822.0,6104.0,-1.0,-3.0,0.0,1.0
2022-05-13 15:10:48.896631-07:00,1033.2,646.5,939.8,881.4,734.0,722.5,1461.7,1071.2,3475.9,3462.5,1020.2,858.7,1391.2,3471.0,1157.7,1053.0,3469.8,3479.5,1090.3,1467.2,2088.6,2592.9,1141.9,3494.1,3475.9,3475.9,634.3,724.9,1456.2,877.2,826.0,721.6,0.0,0.0,-22.0,10449.0,-11161.0,4993.0,-3126.0,-3.0,6.0,3.0,5.0,3.0,-11.0,4892.0,-10525.0,-9822.0,6104.0,-6.0,4.0,0.0,1.0
2022-05-13 15:10:48.898694-07:00,1020.2,648.1,939.8,881.4,734.8,724.9,1461.7,1071.2,3468.6,3467.4,1020.2,858.7,1380.3,3477.1,1157.7,1053.0,3469.8,3479.5,1091.2,1468.1,2088.6,2592.9,1138.4,3486.8,3475.9,3475.9,627.0,724.1,1456.2,877.2,816.9,719.2,2.0,1.0,-19.0,10449.0,-11161.0,4993.0,-3126.0,1.0,-4.0,0.0,10.0,2.0,-8.0,4892.0,-10525.0,-9822.0,6104.0,0.0,-1.0,-3.0,1.0
2022-05-13 15:10:48.941486-07:00,1020.2,648.1,933.0,887.3,734.8,724.9,1454.3,1062.5,3468.6,3467.4,1019.4,853.7,1380.3,3477.1,1157.7,1058.2,3471.0,3468.6,1091.2,1468.1,2075.5,2590.7,1138.4,3486.8,3478.3,3466.1,627.0,724.1,1460.8,868.8,816.9,719.2,0.0,-2.0,-10.0,10450.0,-11160.0,4991.0,-3125.0,10.0,-7.0,-3.0,6.0,1.0,-4.0,4892.0,-10525.0,-9822.0,6104.0,6.0,-4.0,-3.0,1.0
2022-05-13 15:10:48.987863-07:00,1028.8,646.5,933.0,887.3,732.3,717.5,1454.3,1062.5,3462.5,3473.4,1019.4,853.7,1374.8,3475.9,1157.7,1058.2,3471.0,3468.6,1106.9,1461.7,2075.5,2590.7,1141.9,3495.3,3478.3,3466.1,630.3,722.5,1460.8,868.8,820.2,716.7,0.0,0.0,-10.0,10450.0,-11160.0,4991.0,-3126.0,-2.0,6.0,-1.0,5.0,3.0,-5.0,4892.0,-10525.0,-9821.0,6105.0,-3.0,2.0,2.0,1.0
2022-05-13 15:10:49.031999-07:00,1028.8,646.5,939.8,885.6,732.3,717.5,1449.7,1070.3,3462.5,3473.4,1016.8,852.0,1374.8,3475.9,1159.4,1059.1,3471.0,3477.1,1106.9,1461.7,2076.5,2578.8,1141.9,3495.3,3471.0,3478.3,630.3,722.5,1458.9,875.5,820.2,716.7,0.0,0.0,-19.0,10449.0,-11159.0,4994.0,-3129.0,8.0,14.0,-5.0,8.0,3.0,-3.0,4892.0,-10525.0,-9821.0,6105.0,3.0,4.0,4.0,1.0
2022-05-13 15:10:49.122884-07:00,1017.6,648.1,939.8,885.6,733.2,729.0,1449.7,1070.3,3463.7,3471.0,1021.1,852.0,1383.9,3468.6,1159.4,1059.1,3471.0,3477.1,1091.2,1464.4,2076.5,2597.2,1135.7,3491.7,3471.0,3478.3,626.2,723.3,1458.9,872.1,818.5,744.7,1.0,0.0,-21.0,10449.0,-11159.0,4994.0,-3129.0,-1.0,-1.0,7.0,6.0,2.0,-8.0,4892.0,-10525.0,-9821.0,6105.0,-5.0,0.0,1.0,1.0
2022-05-13 15:10:49.123344-07:00,1017.6,648.1,939.8,886.5,733.2,726.6,1464.4,1073.8,3463.7,3471.0,1021.1,854.5,1383.9,3479.5,1163.8,1065.1,3472.2,3475.9,1092.9,1464.4,2074.5,2597.2,1135.7,3491.7,3474.6,3475.9,631.9,723.3,1453.4,872.1,818.5,744.7,0.0,0.0,-15.0,10449.0,-11159.0,4994.0,-3129.0,7.0,-6.0,-5.0,8.0,0.0,-7.0,4892.0,-10525.0,-9821.0,6105.0,4.0,-6.0,-1.0,1.0
2022-05-13 15:10:49.169107-07:00,1024.5,644.0,935.6,886.5,738.9,726.6,1464.4,1073.8,3473.4,3462.5,1022.8,854.5,1385.7,3479.5,1163.8,1065.1,3472.2,3475.9,1092.9,1461.7,2074.5,2595.0,1137.5,3497.8,3474.6,3475.9,631.9,727.4,1453.4,878.9,811.0,720.8,0.0,0.0,-14.0,10451.0,-11157.0,4994.0,-3130.0,3.0,-3.0,0.0,5.0,4.0,-4.0,4892.0,-10525.0,-9821.0,6105.0,-6.0,-2.0,2.0,1.0
2022-05-13 15:10:49.214594-07:00,1024.5,644.0,935.6,887.3,738.9,729.0,1447.9,1080.8,3473.4,3462.5,1022.8,857.0,1385.7,3475.9,1164.7,1063.4,3480.7,3472.2,1091.2,1461.7,2078.5,2595.0,1137.5,3497.8,3477.1,3474.6,623.8,727.4,1457.1,878.9,811.0,720.8,0.0,-1.0,-14.0,10451.0,-11157.0,4994.0,-3130.0,-5.0,3.0,-1.0,6.0,1.0,-6.0,4892.0,-10525.0,-9822.0,6104.0,2.0,-1.0,2.0,1.0
2022-05-13 15:10:49.302212-07:00,1027.1,636.7,933.0,887.3,734.8,729.0,1447.9,1080.8,3478.3,3466.1,1014.2,857.0,1390.3,3475.9,1164.7,1063.4,3480.7,3472.2,1091.2,1462.6,2078.5,2576.6,1143.6,3499.0,3477.1,3474.6,623.8,723.3,1457.1,882.3,834.4,725.8,-1.0,2.0,-20.0,10451.0,-11157.0,4994.0,-3130.0,1.0,9.0,1.0,5.0,3.0,-3.0,4892.0,-10525.0,-9822.0,6104.0,-8.0,2.0,3.0,1.0
2022-05-13 15:10:49.347388-07:00,1027.1,636.7,933.0,889.0,723.3,727.4,1470.9,1068.6,3478.3,3466.1,1014.2,858.7,1380.3,3466.1,1153.3,1062.5,3480.7,3467.4,1091.2,1459.8,2072.5,2576.6,1143.6,3499.0,3472.2,3480.7,629.5,722.5,1470.0,882.3,834.4,725.8,-3.0,1.0,-17.0,10451.0,-11157.0,4994.0,-3130.0,-3.0,-1.0,2.0,2.0,1.0,-9.0,4892.0,-10525.0,-9822.0,6104.0,-2.0,-2.0,-1.0,1.0
2022-05-13 15:10:49.392219-07:00,1024.5,649.7,939.8,879.7,723.3,727.4,1470.9,1068.6,3477.1,3467.4,1021.9,860.4,1380.3,3466.1,1153.3,1062.5,3480.7,3467.4,1091.2,1459.8,2077.5,2589.6,1141.9,3484.4,3472.2,3480.7,629.5,722.5,1456.2,886.5,816.0,725.8,0.0,2.0,-15.0,10451.0,-11157.0,4994.0,-3130.0,7.0,-2.0,-2.0,6.0,4.0,-5.0,4892.0,-10525.0,-9822.0,6104.0,2.0,-2.0,-1.0,1.0
2022-05-13 15:10:49.437180-07:00,1024.5,649.7,939.8,879.7,743.9,705.2,1458.0,1069.5,3477.1,3467.4,1021.9,860.4,1385.7,3461.3,1158.6,1063.4,3477.1,3474.6,1083.4,1465.4,2077.5,2589.6,1141.9,3484.4,3483.2,3467.4,626.2,723.3,1456.2,886.5,816.0,725.8,3.0,0.0,-17.0,10452.0,-11156.0,4993.0,-3130.0,3.0,2.0,-3.0,8.0,3.0,-8.0,4892.0,-10525.0,-9822.0,6104.0,-10.0,-1.0,1.0,1.0
2022-05-13 15:10:49.482245-07:00,1023.7,656.2,939.0,885.6,743.9,705.2,1458.0,1069.5,3467.4,3478.3,1017.6,854.5,1385.7,3461.3,1158.6,1063.4,3477.1,3474.6,1083.4,1465.4,2066.5,2584.2,1139.2,3495.3,3483.2,3467.4,626.2,723.3,1458.9,880.6,799.4,712.6,3.0,-1.0,-17.0,10451.0,-11158.0,4994.0,-3130.0,-3.0,-3.0,1.0,11.0,2.0,-6.0,4891.0,-10526.0,-9822.0,6103.0,6.0,2.0,1.0,1.0
2022-05-13 15:10:49.527204-07:00,1023.7,656.2,939.0,885.6,735.6,726.6,1447.9,1071.2,3467.4,3478.3,1017.6,854.5,1386.6,3463.7,1163.0,1055.6,3480.7,3479.5,1088.6,1474.6,2066.5,2584.2,1139.2,3495.3,3473.4,3477.1,623.0,721.6,1458.9,880.6,799.4,712.6,-7.0,-2.0,-19.0,10451.0,-11158.0,4994.0,-3130.0,5.0,2.0,-5.0,4.0,3.0,-3.0,4891.0,-10526.0,-9822.0,6103.0,3.0,2.0,0.0,1.0
2022-05-13 15:10:49.572134-07:00,1020.2,647.3,927.9,885.6,735.6,726.6,1447.9,1071.2,3460.1,3472.2,1017.6,852.0,1386.6,3463.7,1163.0,1055.6,3480.7,3479.5,1088.6,1474.6,2085.6,2584.2,1145.4,3497.8,3473.4,3477.1,623.0,721.6,1463.5,881.4,821.0,715.9,-3.0,5.0,-13.0,10451.0,-11158.0,4994.0,-3130.0,-1.0,-4.0,5.0,1.0,3.0,-6.0,4891.0,-10526.0,-9822.0,6103.0,0.0,1.0,1.0,1.0
2022-05-13 15:10:49.619065-07:00,1027.1,647.3,927.9,885.6,729.0,721.6,1459.8,1066.0,3472.2,3472.2,1017.6,852.0,1385.7,3473.4,1160.3,1063.4,3475.9,3472.2,1085.1,1462.6,2085.6,2584.2,1145.4,3500.2,3475.9,3467.4,633.5,718.4,1463.5,881.4,821.0,719.2,0.0,-1.0,-23.0,10451.0,-11158.0,4994.0,-3130.0,8.0,4.0,-5.0,6.0,8.0,-7.0,4891.0,-10526.0,-9822.0,6103.0,7.0,3.0,-1.0,1.0
2022-05-13 15:10:49.664129-07:00,1027.1,642.4,941.5,889.0,729.0,721.6,1459.8,1068.6,3472.2,3471.0,1021.1,853.7,1385.7,3473.4,1160.3,1066.9,3473.4,3472.2,1085.1,1462.6,2070.5,2590.7,1140.1,3500.2,3472.2,3467.4,633.5,718.4,1451.6,874.7,811.0,719.2,3.0,0.0,-16.0,10451.0,-11158.0,4994.0,-3130.0,1.0,-8.0,0.0,9.0,2.0,-5.0,4891.0,-10526.0,-9822.0,6103.0,-1.0,-5.0,0.0,1.0
2022-05-13 15:10:49.709110-07:00,1027.1,642.4,941.5,889.0,738.9,720.0,1453.4,1068.6,3475.9,3471.0,1021.1,853.7,1383.9,3472.2,1163.0,1066.9,3473.4,3471.0,1097.3,1460.8,2070.5,2590.7,1140.1,3505.1,3472.2,3478.3,627.8,717.5,1451.6,874.7,811.0,717.5,0.0,1.0,-12.0,10451.0,-11158.0,4992.0,-3128.0,3.0,0.0,0.0,5.0,0.0,-6.0,4891.0,-10526.0,-9822.0,6103.0,2.0,0.0,0.0,1.0
2022-05-13 15:10:49.798710-07:00,1027.1,655.4,928.8,890.7,738.9,720.0,1453.4,1069.5,3475.9,3468.6,1018.5,851.1,1383.9,3472.2,1163.0,1058.2,3473.4,3471.0,1097.3,1460.8,2068.5,2585.3,1139.2,3505.1,3478.3,3478.3,627.8,717.5,1456.2,878.0,823.5,717.5,-2.0,0.0,-15.0,10451.0,-11158.0,4992.0,-3128.0,-2.0,5.0,1.0,3.0,2.0,-5.0,4891.0,-10526.0,-9822.0,6103.0,-7.0,0.0,3.0,1.0
2022-05-13 15:10:49.842165-07:00,1024.5,655.4,928.8,890.7,731.5,719.2,1453.4,1069.5,3457.6,3468.6,1018.5,851.1,1398.5,3463.7,1156.8,1058.2,3473.4,3474.6,1091.2,1456.2,2068.5,2585.3,1139.2,3492.9,3478.3,3477.1,627.8,724.1,1456.2,878.0,823.5,724.1,0.0,1.0,-21.0,10451.0,-11158.0,4993.0,-3129.0,3.0,8.0,-1.0,7.0,5.0,-8.0,4889.0,-10526.0,-9823.0,6102.0,4.0,4.0,0.0,1.0
2022-05-13 15:10:49.887231-07:00,1024.5,646.5,931.3,890.7,731.5,719.2,1449.7,1064.3,3457.6,3471.0,1021.9,852.8,1398.5,3463.7,1161.2,1063.4,3467.4,3472.2,1091.2,1456.2,2079.5,2592.9,1141.9,3492.9,3478.3,3471.0,627.8,724.1,1457.1,880.6,814.4,724.1,1.0,0.0,-20.0,10451.0,-11158.0,4993.0,-3129.0,-5.0,-2.0,-3.0,6.0,3.0,-6.0,4889.0,-10526.0,-9823.0,6102.0,-5.0,-2.0,-2.0,1.0
2022-05-13 15:10:49.932253-07:00,1027.1,642.4,931.3,890.7,731.5,722.5,1449.7,1064.3,3472.2,3467.4,1021.9,852.8,1381.2,3467.4,1161.2,1063.4,3467.4,3472.2,1091.2,1470.0,2079.5,2592.9,1140.1,3491.7,3478.3,3471.0,632.7,724.1,1457.1,880.6,819.4,718.4,-2.0,1.0,-13.0,10451.0,-11158.0,4993.0,-3129.0,6.0,-1.0,-4.0,6.0,2.0,-7.0,4889.0,-10526.0,-9823.0,6102.0,4.0,-2.0,-1.0,1.0
2022-05-13 15:10:49.977360-07:00,1027.1,642.4,931.3,883.1,731.5,722.5,1461.7,1062.5,3472.2,3467.4,1019.4,859.5,1381.2,3467.4,1163.8,1055.6,3471.0,3475.9,1091.2,1470.0,2079.5,2593.9,1140.1,3491.7,3471.0,3473.4,632.7,724.1,1459.8,877.2,819.4,718.4,-2.0,2.0,-12.0,10451.0,-11158.0,4993.0,-3129.0,-2.0,1.0,3.0,5.0,1.0,-3.0,4889.0,-10526.0,-9823.0,6102.0,0.0,3.0,2.0,1.0
2022-05-13 15:10:50.022353-07:00,1017.6,643.2,931.3,883.1,731.5,729.0,1461.7,1062.5,3468.6,3468.6,1019.4,859.5,1388.5,3467.4,1163.8,1055.6,3471.0,3475.9,1091.2,1465.4,2079.5,2593.9,1141.9,3485.6,3471.0,3473.4,627.0,724.1,1459.8,877.2,816.0,716.7,-1.0,0.0,-17.0,10451.0,-11158.0,4993.0,-3129.0,5.0,7.0,-4.0,6.0,3.0,-6.0,4889.0,-10526.0,-9823.0,6102.0,1.0,3.0,2.0,1.0
2022-05-13 15:10:50.069066-07:00,1017.6,643.2,931.3,892.4,731.5,729.0,1469.0,1073.8,3468.6,3468.6,1020.2,857.0,1388.5,3467.4,1155.9,1056.5,3473.4,3480.7,1091.2,1465.4,2076.5,2584.2,1141.9,3485.6,3469.8,3480.7,627.0,724.1,1453.4,876.4,816.0,716.7,1.0,0.0,-17.0,10451.0,-11158.0,4993.0,-3129.0,1.0,0.0,1.0,7.0,6.0,-6.0,4889.0,-10526.0,-9823.0,6102.0,-2.0,2.0,2.0,1.0
2022-05-13 15:10:50.113507-07:00,1021.1,650.5,925.4,892.4,731.5,722.5,1469.0,1073.8,3467.4,3469.8,1016.8,857.0,1381.2,3469.8,1155.9,1056.5,3473.4,3480.7,1075.6,1451.6,2076.5,2592.9,1134.0,3480.7,3469.8,3480.7,627.0,724.1,1453.4,882.3,815.2,715.1,0.0,1.0,-20.0,10451.0,-11158.0,4993.0,-3129.0,-1.0,3.0,2.0,6.0,1.0,-3.0,4889.0,-10526.0,-9823.0,6102.0,-1.0,5.0,3.0,1.0
2022-05-13 15:10:50.159291-07:00,1021.1,650.5,925.4,882.3,731.5,721.6,1452.5,1066.9,3467.4,3469.8,1016.8,858.7,1381.2,3474.6,1163.8,1061.7,3477.1,3485.6,1091.2,1451.6,2084.6,2592.9,1134.0,3480.7,3473.4,3477.1,623.8,724.1,1462.6,882.3,815.2,715.1,0.0,2.0,-16.0,10451.0,-11158.0,4993.0,-3129.0,7.0,-3.0,0.0,4.0,3.0,-3.0,4889.0,-10526.0,-9823.0,6102.0,8.0,1.0,1.0,1.0
2022-05-13 15:10:50.247390-07:00,1030.6,637.6,937.3,882.3,735.6,721.6,1452.5,1066.9,3468.6,3467.4,1023.7,858.7,1385.7,3474.6,1163.8,1061.7,3477.1,3485.6,1091.2,1466.3,2084.6,2591.8,1141.9,3496.6,3473.4,3477.1,623.8,721.6,1462.6,883.1,818.5,721.6,4.0,0.0,-14.0,10451.0,-11157.0,4993.0,-3129.0,3.0,2.0,-5.0,8.0,2.0,-6.0,4889.0,-10526.0,-9823.0,6102.0,-2.0,3.0,0.0,1.0
2022-05-13 15:10:50.292301-07:00,1030.6,637.6,937.3,888.2,735.6,718.4,1466.3,1072.9,3468.6,3467.4,1023.7,856.2,1385.7,3473.4,1150.6,1055.6,3471.0,3464.9,1092.1,1466.3,2070.5,2591.8,1141.9,3496.6,3473.4,3471.0,631.1,721.6,1455.2,883.1,818.5,721.6,1.0,-1.0,-19.0,10451.0,-11157.0,4993.0,-3129.0,-2.0,2.0,0.0,10.0,3.0,-2.0,4889.0,-10526.0,-9823.0,6102.0,-7.0,1.0,0.0,1.0
2022-05-13 15:10:50.337198-07:00,1022.8,640.0,934.7,888.2,728.2,718.4,1466.3,1072.9,3464.9,3462.5,1023.7,856.2,1382.1,3473.4,1150.6,1055.6,3471.0,3464.9,1092.1,1465.4,2070.5,2590.7,1151.5,3489.2,3473.4,3471.0,631.1,725.8,1455.2,875.5,821.9,721.6,1.0,0.0,-15.0,10451.0,-11157.0,4993.0,-3129.0,0.0,1.0,-3.0,10.0,2.0,-4.0,4889.0,-10526.0,-9823.0,6102.0,1.0,5.0,3.0,1.0
2022-05-13 15:10:50.428416-07:00,1022.8,640.0,934.7,883.1,728.2,722.5,1450.6,1073.8,3464.9,3462.5,1023.7,857.0,1382.1,3468.6,1152.4,1063.4,3481.9,3467.4,1091.2,1465.4,2070.5,2590.7,1151.5,3489.2,3474.6,3471.0,627.0,725.8,1464.4,875.5,821.9,721.6,-3.0,1.0,-13.0,10451.0,-11157.0,4993.0,-3129.0,-5.0,5.0,0.0,2.0,2.0,-3.0,4889.0,-10526.0,-9823.0,6102.0,-5.0,-2.0,2.0,1.0
2022-05-13 15:10:50.429640-07:00,1022.8,653.0,927.9,892.4,734.8,722.5,1450.6,1073.8,3473.4,3483.2,1021.9,852.0,1386.6,3468.6,1152.4,1063.4,3481.9,3467.4,1091.2,1460.8,2079.5,2581.0,1141.9,3507.5,3474.6,3471.0,627.0,722.5,1452.5,878.0,818.5,725.8,-3.0,0.0,-21.0,10451.0,-11157.0,4993.0,-3129.0,8.0,4.0,-4.0,1.0,4.0,-8.0,4889.0,-10526.0,-9823.0,6102.0,5.0,1.0,-1.0,1.0
2022-05-13 15:10:50.472244-07:00,1022.8,653.0,927.9,892.4,728.2,715.1,1465.4,1067.7,3473.4,3483.2,1021.9,852.0,1388.5,3479.5,1156.8,1059.9,3477.1,3473.4,1089.5,1455.2,2079.5,2581.0,1141.9,3507.5,3477.1,3483.2,629.5,721.6,1452.5,878.0,818.5,725.8,1.0,3.0,-23.0,10451.0,-11157.0,4993.0,-3129.0,-6.0,-1.0,2.0,10.0,3.0,-9.0,4889.0,-10526.0,-9823.0,6102.0,-5.0,-4.0,-1.0,1.0
2022-05-13 15:10:50.517209-07:00,1021.1,648.9,934.7,883.9,728.2,715.1,1465.4,1067.7,3467.4,3469.8,1025.4,856.2,1388.5,3479.5,1156.8,1059.9,3477.1,3473.4,1089.5,1455.2,2077.5,2586.4,1141.0,3489.2,3477.1,3483.2,629.5,721.6,1455.2,869.6,815.2,720.0,0.0,-2.0,-15.0,10452.0,-11158.0,4992.0,-3128.0,5.0,-9.0,-1.0,7.0,3.0,-3.0,4889.0,-10526.0,-9823.0,6102.0,2.0,-6.0,-1.0,1.0
2022-05-13 15:10:50.564110-07:00,1021.1,648.9,934.7,883.9,731.5,735.6,1461.7,1073.8,3467.4,3469.8,1025.4,856.2,1384.8,3471.0,1153.3,1055.6,3474.6,3473.4,1092.9,1463.5,2077.5,2586.4,1141.0,3489.2,3478.3,3483.2,622.2,722.5,1455.2,869.6,815.2,720.0,-1.0,2.0,-12.0,10452.0,-11158.0,4991.0,-3127.0,-8.0,3.0,2.0,2.0,0.0,-4.0,4889.0,-10526.0,-9823.0,6102.0,-5.0,3.0,0.0,1.0
2022-05-13 15:10:50.609256-07:00,1028.8,645.7,942.4,889.0,731.5,735.6,1461.7,1073.8,3478.3,3471.0,1014.2,855.3,1384.8,3471.0,1153.3,1055.6,3474.6,3473.4,1092.9,1463.5,2082.6,2584.2,1141.9,3485.6,3478.3,3483.2,622.2,722.5,1461.7,869.6,813.5,732.3,0.0,3.0,-18.0,10452.0,-11158.0,4992.0,-3128.0,-1.0,3.0,0.0,6.0,5.0,-6.0,4889.0,-10526.0,-9823.0,6102.0,-5.0,-3.0,1.0,1.0
2022-05-13 15:10:50.698707-07:00,1024.5,645.7,942.4,889.0,737.3,729.0,1456.2,1066.9,3474.6,3471.0,1014.2,855.3,1382.1,3466.1,1159.4,1059.9,3475.9,3480.7,1087.7,1459.8,2082.6,2584.2,1141.9,3492.9,3474.6,3485.6,628.6,717.5,1461.7,869.6,813.5,715.9,1.0,4.0,-20.0,10452.0,-11158.0,4992.0,-3128.0,1.0,-4.0,1.0,7.0,2.0,-8.0,4889.0,-10526.0,-9823.0,6102.0,1.0,-3.0,-2.0,1.0
2022-05-13 15:10:50.788403-07:00,1024.5,648.1,933.9,889.0,737.3,729.0,1456.2,1076.4,3474.6,3468.6,1024.5,852.8,1382.1,3466.1,1159.4,1059.1,3475.9,3480.7,1087.7,1459.8,2083.6,2589.6,1139.2,3492.9,3467.4,3485.6,628.6,717.5,1463.5,875.5,820.2,715.9,0.0,1.0,-16.0,10452.0,-11158.0,4991.0,-3127.0,2.0,-8.0,-2.0,5.0,1.0,-5.0,4889.0,-10526.0,-9823.0,6102.0,0.0,-3.0,-1.0,1.0
2022-05-13 15:10:50.790138-07:00,1024.5,648.1,933.9,889.0,745.5,724.1,1458.9,1076.4,3467.4,3468.6,1024.5,852.8,1374.8,3467.4,1161.2,1059.1,3475.9,3473.4,1094.7,1452.5,2083.6,2589.6,1139.2,3490.5,3467.4,3473.4,624.6,729.9,1463.5,875.5,820.2,725.8,0.0,0.0,-14.0,10453.0,-11158.0,4990.0,-3126.0,-2.0,-2.0,3.0,5.0,2.0,-4.0,4889.0,-10526.0,-9823.0,6102.0,-1.0,6.0,1.0,1.0
2022-05-13 15:10:50.832211-07:00,1024.5,640.8,933.0,891.5,745.5,724.1,1458.9,1066.0,3467.4,3472.2,1021.1,853.7,1374.8,3467.4,1161.2,1062.5,3467.4,3473.4,1094.7,1452.5,2079.5,2587.4,1132.2,3490.5,3474.6,3473.4,624.6,729.9,1451.6,876.4,814.4,725.8,-3.0,0.0,-14.0,10453.0,-11158.0,4990.0,-3126.0,0.0,5.0,0.0,9.0,4.0,-5.0,4889.0,-10526.0,-9823.0,6102.0,2.0,1.0,2.0,1.0
2022-05-13 15:10:50.878456-07:00,1017.6,640.8,933.0,891.5,733.2,724.1,1448.8,1066.0,3471.0,3472.2,1021.1,853.7,1382.1,3472.2,1153.3,1062.5,3467.4,3466.1,1095.6,1458.9,2079.5,2587.4,1132.2,3490.5,3474.6,3471.0,634.3,723.3,1451.6,876.4,814.4,719.2,0.0,-1.0,-17.0,10453.0,-11158.0,4990.0,-3126.0,-4.0,-2.0,2.0,7.0,3.0,-8.0,4889.0,-10526.0,-9823.0,6102.0,-1.0,1.0,2.0,1.0
2022-05-13 15:10:50.922899-07:00,1017.6,640.8,943.2,885.6,733.2,724.1,1447.9,1059.1,3471.0,3471.0,1027.1,849.5,1382.1,3472.2,1164.7,1063.4,3469.8,3474.6,1095.6,1458.9,2078.5,2586.4,1140.1,3490.5,3469.8,3478.3,634.3,723.3,1460.8,871.3,818.5,719.2,0.0,1.0,-22.0,10453.0,-11158.0,4990.0,-3126.0,-1.0,0.0,0.0,3.0,4.0,-4.0,4889.0,-10526.0,-9823.0,6102.0,-3.0,0.0,-1.0,1.0
2022-05-13 15:10:50.969140-07:00,1028.8,644.0,943.2,885.6,734.0,715.1,1447.9,1059.1,3471.0,3458.9,1027.1,849.5,1383.0,3467.4,1164.7,1063.4,3469.8,3474.6,1090.3,1467.2,2078.5,2586.4,1137.5,3500.2,3469.8,3478.3,626.2,720.8,1460.8,871.3,814.4,720.0,-1.0,0.0,-20.0,10453.0,-11158.0,4990.0,-3126.0,-7.0,-6.0,1.0,4.0,0.0,-4.0,4889.0,-10526.0,-9823.0,6102.0,1.0,-2.0,-2.0,1.0
2022-05-13 15:10:51.014130-07:00,1028.8,644.0,939.8,884.8,734.0,715.1,1458.9,1063.4,3471.0,3458.9,1022.8,852.8,1383.0,3467.4,1157.7,1046.1,3473.4,3473.4,1090.3,1467.2,2076.5,2592.9,1137.5,3500.2,3471.0,3477.1,626.2,720.8,1463.5,876.4,814.4,720.0,-2.0,4.0,-17.0,10453.0,-11158.0,4990.0,-3126.0,6.0,-6.0,-1.0,2.0,3.0,-6.0,4889.0,-10526.0,-9823.0,6102.0,3.0,1.0,-2.0,1.0
2022-05-13 15:10:51.149605-07:00,1032.3,644.0,939.8,884.8,732.3,725.8,1458.9,1063.4,3457.6,3469.8,1022.8,852.8,1385.7,3474.6,1157.7,1046.1,3473.4,3473.4,1091.2,1461.7,2076.5,2592.9,1145.4,3499.0,3471.0,3477.1,630.3,721.6,1463.5,876.4,811.0,718.4,4.0,0.0,-20.0,10453.0,-11158.0,4990.0,-3126.0,-6.0,-1.0,0.0,11.0,5.0,-10.0,4889.0,-10526.0,-9823.0,6102.0,-7.0,4.0,0.0,1.0
2022-05-13 15:10:51.193475-07:00,1032.3,644.0,933.0,893.2,732.3,725.8,1458.9,1059.9,3457.6,3469.8,1018.5,851.1,1385.7,3474.6,1153.3,1058.2,3473.4,3477.1,1091.2,1461.7,2079.5,2592.9,1145.4,3499.0,3488.0,3480.7,630.3,721.6,1455.2,874.7,811.0,718.4,3.0,0.0,-17.0,10451.0,-11160.0,4991.0,-3125.0,3.0,-1.0,0.0,11.0,1.0,-7.0,4889.0,-10527.0,-9823.0,6102.0,6.0,4.0,0.0,1.0
2022-05-13 15:10:51.194786-07:00,1028.8,644.0,933.0,893.2,733.2,710.1,1458.9,1059.9,3468.6,3471.0,1018.5,851.1,1383.9,3469.8,1153.3,1058.2,3473.4,3477.1,1086.8,1470.9,2079.5,2592.9,1139.2,3491.7,3488.0,3480.7,630.3,725.8,1455.2,874.7,815.2,719.2,-1.0,0.0,-17.0,10451.0,-11160.0,4991.0,-3125.0,-6.0,-3.0,2.0,1.0,5.0,-7.0,4889.0,-10527.0,-9823.0,6102.0,-5.0,-1.0,1.0,1.0
2022-05-13 15:10:51.237290-07:00,1028.8,644.0,933.9,890.7,733.2,724.1,1467.2,1053.9,3468.6,3471.0,1023.7,851.1,1383.9,3467.4,1156.8,1059.9,3474.6,3478.3,1088.6,1470.9,2074.5,2585.3,1139.2,3491.7,3475.9,3478.3,629.5,725.8,1459.8,881.4,815.2,719.2,-5.0,1.0,-19.0,10450.0,-11161.0,4991.0,-3125.0,7.0,3.0,-1.0,2.0,5.0,-7.0,4889.0,-10527.0,-9823.0,6102.0,6.0,3.0,-1.0,1.0
2022-05-13 15:10:51.282206-07:00,1020.2,643.2,935.6,890.7,740.6,724.1,1467.2,1053.9,3468.6,3461.3,1023.7,851.1,1383.9,3467.4,1156.8,1059.9,3474.6,3478.3,1088.6,1468.1,2074.5,2592.9,1135.7,3489.2,3475.9,3478.3,629.5,720.0,1459.8,877.2,812.7,724.9,-2.0,-1.0,-20.0,10451.0,-11160.0,4991.0,-3125.0,0.0,-3.0,2.0,7.0,5.0,-11.0,4889.0,-10526.0,-9823.0,6102.0,-2.0,1.0,-1.0,1.0
2022-05-13 15:10:51.327218-07:00,1020.2,643.2,935.6,880.6,740.6,720.8,1441.5,1060.8,3468.6,3461.3,1023.7,856.2,1383.9,3467.4,1155.9,1063.4,3478.3,3478.3,1094.7,1468.1,2064.5,2592.9,1135.7,3489.2,3469.8,3467.4,629.5,720.0,1449.7,877.2,812.7,724.9,3.0,0.0,-24.0,10451.0,-11160.0,4991.0,-3125.0,-3.0,-7.0,1.0,8.0,7.0,-7.0,4889.0,-10526.0,-9823.0,6102.0,-2.0,-13.0,-4.0,1.0
2022-05-13 15:10:51.372246-07:00,1032.3,645.7,931.3,880.6,730.7,720.8,1441.5,1060.8,3474.6,3471.0,1019.4,856.2,1389.4,3467.4,1155.9,1063.4,3478.3,3478.3,1094.7,1467.2,2064.5,2585.3,1135.7,3491.7,3469.8,3467.4,629.5,723.3,1449.7,870.5,817.7,720.8,4.0,0.0,-29.0,10447.0,-11166.0,4987.0,-3120.0,9.0,-19.0,-2.0,11.0,12.0,-20.0,4887.0,-10525.0,-9825.0,6104.0,7.0,-17.0,-9.0,1.0
2022-05-13 15:10:51.463428-07:00,1032.3,645.7,931.3,883.9,730.7,721.6,1449.7,1061.7,3474.6,3471.0,1019.4,851.1,1389.4,3469.8,1153.3,1051.3,3475.9,3467.4,1088.6,1467.2,2071.5,2585.3,1135.7,3491.7,3478.3,3469.8,630.3,723.3,1453.4,870.5,817.7,720.8,-9.0,-22.0,-105.0,10468.0,-11174.0,4950.0,-3084.0,56.0,-298.0,7.0,20.0,18.0,-43.0,4885.0,-10507.0,-9840.0,6112.0,78.0,-72.0,-41.0,1.0
2022-05-13 15:10:51.464860-07:00,1028.0,645.7,931.3,880.6,734.8,721.6,1449.7,1061.7,3473.4,3471.0,1026.3,854.5,1387.5,3469.8,1153.3,1051.3,3475.9,3467.4,1088.6,1491.2,2109.8,2592.9,1135.7,3495.3,3478.3,3469.8,630.3,718.4,1462.6,875.5,807.7,724.1,-130.0,-75.0,-229.0,10555.0,-11224.0,4758.0,-2900.0,44.0,-1189.0,-90.0,2.0,-86.0,76.0,4854.0,-10481.0,-9884.0,6111.0,-168.0,-52.0,-56.0,1.0
2022-05-13 15:10:51.508778-07:00,1028.0,645.7,931.3,880.6,738.9,719.2,1467.2,1063.4,3473.4,3471.0,1026.3,854.5,1383.9,3467.4,1163.0,1059.1,3478.3,3475.9,1101.7,1475.5,2109.8,2592.9,1135.7,3495.3,3473.4,3477.1,639.2,760.4,1462.6,875.5,807.7,724.1,-22.0,126.0,-151.0,10873.0,-11342.0,4025.0,-2317.0,163.0,-2831.0,-373.0,-15.0,57.0,-35.0,4876.0,-10467.0,-9876.0,6129.0,30.0,-36.0,-15.0,1.0
2022-05-13 15:10:51.553632-07:00,1017.6,645.7,952.6,888.2,738.9,719.2,1467.2,1063.4,3466.1,3472.2,1028.0,857.0,1383.9,3467.4,1163.0,1059.1,3478.3,3475.9,1101.7,1475.5,2105.8,2602.6,1148.9,3494.1,3473.4,3477.1,639.2,760.4,1467.2,873.8,823.5,718.4,59.0,67.0,-147.0,11000.0,-11697.0,2897.0,-1495.0,-752.0,-3484.0,-840.0,-23.0,-3.0,-23.0,4743.0,-10472.0,-9992.0,6034.0,-672.0,-150.0,-188.0,1.0
2022-05-13 15:10:51.642326-07:00,1017.6,645.7,952.6,888.2,731.5,716.7,1481.0,1079.0,3466.1,3472.2,1028.0,857.0,1376.6,3462.5,1160.3,1055.6,3473.4,3473.4,1103.4,1510.6,2105.8,2602.6,1148.9,3494.1,3471.0,3475.9,607.6,758.7,1467.2,873.8,823.5,718.4,74.0,21.0,-154.0,11011.0,-12023.0,1536.0,-521.0,-502.0,-4061.0,-880.0,-2.0,15.0,-6.0,4586.0,-10448.0,-10167.0,5906.0,-512.0,-196.0,-266.0,1.0
2022-05-13 15:10:51.687254-07:00,1027.1,652.2,939.8,884.8,731.5,716.7,1481.0,1079.0,3468.6,3471.0,1021.1,856.2,1376.6,3462.5,1160.3,1055.6,3473.4,3473.4,1103.4,1510.6,2318.1,2612.3,1164.7,3484.4,3471.0,3475.9,607.6,758.7,1452.5,874.7,817.7,720.8,154.0,22.0,-89.0,10759.0,-12343.0,47.0,567.0,-1403.0,-3994.0,-912.0,40.0,15.0,-27.0,4302.0,-10420.0,-10438.0,5692.0,-1183.0,-288.0,-430.0,1.0
2022-05-13 15:10:51.733026-07:00,1027.1,652.2,939.8,884.8,734.8,720.8,1506.0,1072.9,3468.6,3471.0,1021.1,856.2,1386.6,3458.9,1164.7,1059.1,3467.4,3488.0,1137.5,1544.1,2318.1,2612.3,1164.7,3484.4,3464.9,3483.2,644.0,755.4,1452.5,874.7,817.7,720.8,82.0,-176.0,76.0,10348.0,-12556.0,-1202.0,1503.0,-745.0,-3130.0,-567.0,13.0,-40.0,-13.0,4032.0,-10370.0,-10724.0,5443.0,-734.0,-232.0,-390.0,1.0
2022-05-13 15:10:51.823405-07:00,1025.4,651.4,941.5,889.0,734.8,720.8,1506.0,1092.1,3460.1,3466.1,1019.4,852.8,1386.6,3458.9,1164.7,1054.8,3480.7,3488.0,1137.5,1544.1,2610.2,2652.6,1155.9,3497.8,3483.2,3483.2,644.0,755.4,1459.8,878.0,817.7,725.8,34.0,-38.0,18.0,10058.0,-12548.0,-2102.0,2322.0,-696.0,-2624.0,-178.0,6.0,13.0,-17.0,3859.0,-10306.0,-10925.0,5288.0,-695.0,-199.0,-327.0,1.0
2022-05-13 15:10:51.824692-07:00,1028.0,651.4,941.5,889.0,733.2,732.3,1500.4,1092.1,3469.8,3466.1,1019.4,852.8,1392.1,3474.6,1155.0,1054.8,3480.7,3469.8,1153.3,1579.6,2610.2,2652.6,1155.9,3502.7,3483.2,3478.3,643.2,764.5,1459.8,878.0,817.7,722.5,17.0,-88.0,92.0,9730.0,-12549.0,-2688.0,3010.0,-327.0,-1871.0,137.0,-1.0,-14.0,-34.0,3628.0,-10260.0,-11127.0,5120.0,-602.0,-275.0,-247.0,1.0
2022-05-13 15:10:51.912796-07:00,1028.0,644.9,943.2,892.4,733.2,732.3,1500.4,1075.6,3469.8,3464.9,1015.1,847.8,1392.1,3474.6,1155.0,1055.6,3472.2,3469.8,1153.3,1579.6,2715.0,2691.9,1159.4,3502.7,3478.3,3478.3,643.2,764.5,1459.8,881.4,825.2,722.5,24.0,14.0,79.0,9549.0,-12477.0,-3043.0,3511.0,-137.0,-1241.0,65.0,3.0,-10.0,7.0,3447.0,-10211.0,-11264.0,5041.0,-378.0,-260.0,-161.0,1.0
2022-05-13 15:10:51.916098-07:00,1014.2,644.9,943.2,892.4,734.8,738.1,1495.8,1075.6,3475.9,3464.9,1015.1,847.8,1382.1,3458.9,1161.2,1055.6,3472.2,3472.2,1183.2,1605.8,2715.0,2691.9,1159.4,3489.2,3478.3,3466.1,651.4,754.6,1459.8,881.4,825.2,720.0,13.0,32.0,70.0,9440.0,-12405.0,-3291.0,3822.0,-91.0,-803.0,-24.0,9.0,-17.0,21.0,3331.0,-10161.0,-11356.0,5013.0,-200.0,-197.0,-127.0,1.0
2022-05-13 15:10:51.959144-07:00,1014.2,645.7,940.7,879.7,734.8,738.1,1495.8,1082.5,3475.9,3468.6,1015.1,844.4,1382.1,3458.9,1161.2,1056.5,3475.9,3472.2,1183.2,1605.8,2712.8,2721.6,1163.0,3489.2,3471.0,3466.1,651.4,754.6,1457.1,878.0,825.2,720.0,32.0,47.0,70.0,9463.0,-12297.0,-3451.0,3969.0,37.0,-326.0,-132.0,13.0,-11.0,37.0,3297.0,-10116.0,-11399.0,5030.0,21.0,-90.0,-69.0,1.0
2022-05-13 15:10:52.004118-07:00,1027.1,655.4,940.7,879.7,730.7,737.3,1496.7,1082.5,3468.6,3466.1,1015.1,844.4,1386.6,3468.6,1155.9,1056.5,3475.9,3471.0,1199.1,1591.7,2712.8,2721.6,1163.0,3486.8,3471.0,3473.4,648.1,748.8,1457.1,878.0,824.4,724.1,9.0,9.0,15.0,9476.0,-12257.0,-3524.0,3999.0,-51.0,-72.0,-89.0,7.0,-14.0,25.0,3304.0,-10092.0,-11413.0,5041.0,20.0,5.0,-43.0,1.0
2022-05-13 15:10:52.093601-07:00,1027.1,655.4,937.3,885.6,730.7,737.3,1470.9,1080.8,3468.6,3466.1,1015.9,852.0,1386.6,3468.6,1156.8,1066.9,3483.2,3472.2,1199.1,1591.7,2724.9,2721.6,1163.0,3486.8,3478.3,3477.1,648.1,748.8,1470.9,881.4,824.4,724.1,-44.0,-12.0,0.0,9494.0,-12245.0,-3540.0,3978.0,57.0,49.0,-32.0,-4.0,4.0,-10.0,3322.0,-10089.0,-11408.0,5047.0,18.0,17.0,8.0,1.0
2022-05-13 15:10:52.139219-07:00,1028.8,653.8,937.3,885.6,734.8,734.8,1470.9,1080.8,3462.5,3473.4,1015.9,852.0,1395.7,3472.2,1156.8,1066.9,3483.2,3472.2,1193.8,1580.5,2724.9,2721.6,1162.1,3489.2,3478.3,3477.1,638.4,742.2,1470.9,881.4,820.2,718.4,-48.0,1.0,-21.0,9484.0,-12248.0,-3544.0,3989.0,-54.0,-61.0,15.0,5.0,6.0,-29.0,3311.0,-10094.0,-11412.0,5035.0,-53.0,-15.0,-1.0,1.0
2022-05-13 15:10:52.228307-07:00,1028.8,653.8,945.8,889.0,734.8,734.8,1493.0,1072.1,3462.5,3473.4,1008.2,844.4,1395.7,3472.2,1155.0,1050.4,3469.8,3469.8,1193.8,1580.5,2717.2,2729.3,1162.1,3489.2,3468.6,3472.2,638.4,742.2,1458.0,883.1,820.2,718.4,-42.0,24.0,-30.0,9451.0,-12265.0,-3534.0,4025.0,-44.0,-66.0,30.0,2.0,6.0,-10.0,3289.0,-10097.0,-11423.0,5019.0,-61.0,-16.0,-9.0,1.0
2022-05-13 15:10:52.230046-07:00,1030.6,646.5,945.8,889.0,728.2,735.6,1493.0,1072.1,3467.4,3466.1,1008.2,844.4,1378.5,3478.3,1155.0,1050.4,3469.8,3469.8,1187.6,1583.3,2717.2,2729.3,1169.1,3484.4,3468.6,3472.2,637.6,737.3,1458.0,883.1,817.7,715.9,-27.0,18.0,0.0,9434.0,-12265.0,-3556.0,4045.0,20.0,-29.0,-72.0,5.0,18.0,-5.0,3291.0,-10088.0,-11429.0,5022.0,55.0,-10.0,-22.0,1.0
2022-05-13 15:10:52.273658-07:00,1030.6,646.5,944.9,885.6,728.2,734.8,1489.3,1067.7,3467.4,3466.1,1005.6,848.6,1378.5,3463.7,1153.3,1058.2,3478.3,3478.3,1195.6,1583.3,2700.7,2727.1,1169.1,3484.4,3473.4,3480.7,640.0,737.3,1473.6,902.5,817.7,715.9,-28.0,6.0,-6.0,9443.0,-12261.0,-3556.0,4037.0,13.0,19.0,-52.0,-2.0,3.0,-4.0,3306.0,-10079.0,-11428.0,5034.0,44.0,10.0,-18.0,1.0
2022-05-13 15:10:52.317295-07:00,1029.7,647.3,937.3,885.6,734.8,734.8,1489.3,1067.7,3469.8,3479.5,1002.2,848.6,1381.2,3463.7,1153.3,1058.2,3478.3,3478.3,1195.6,1581.4,2700.7,2710.6,1165.6,3494.1,3473.4,3480.7,640.0,734.8,1473.6,881.4,820.2,715.1,-24.0,-12.0,-3.0,9439.0,-12261.0,-3565.0,4039.0,5.0,-9.0,-26.0,4.0,-2.0,-8.0,3316.0,-10070.0,-11429.0,5040.0,25.0,-8.0,-16.0,1.0
2022-05-13 15:10:52.363602-07:00,1029.7,647.3,937.3,889.8,734.8,731.5,1491.2,1078.2,3469.8,3479.5,1002.2,842.8,1381.2,3475.9,1148.9,1060.8,3478.3,3473.4,1185.0,1581.4,2691.9,2710.6,1165.6,3494.1,3471.0,3466.1,635.9,734.8,1466.3,881.4,820.2,715.1,-10.0,10.0,2.0,9447.0,-12260.0,-3544.0,4039.0,18.0,57.0,52.0,6.0,13.0,3.0,3317.0,-10068.0,-11430.0,5043.0,-13.0,2.0,9.0,1.0
2022-05-13 15:10:52.409085-07:00,1039.2,653.0,936.4,889.8,734.8,731.5,1491.2,1078.2,3471.0,3468.6,1006.5,842.8,1383.9,3475.9,1148.9,1060.8,3478.3,3473.4,1185.0,1587.1,2691.9,2719.4,1167.4,3497.8,3471.0,3466.1,635.9,737.3,1466.3,877.2,816.9,721.6,-18.0,1.0,-15.0,9444.0,-12271.0,-3513.0,4042.0,12.0,35.0,24.0,5.0,-11.0,-12.0,3307.0,-10074.0,-11431.0,5034.0,-3.0,4.0,14.0,1.0
2022-05-13 15:10:52.454067-07:00,1039.2,653.0,936.4,884.8,734.8,731.5,1464.4,1074.7,3471.0,3468.6,1006.5,846.1,1383.9,3462.5,1148.9,1055.6,3473.4,3478.3,1192.0,1587.1,2697.4,2719.4,1167.4,3497.8,3481.9,3481.9,638.4,737.3,1458.0,877.2,816.9,721.6,-29.0,15.0,-9.0,9447.0,-12270.0,-3499.0,4049.0,-3.0,0.0,15.0,4.0,17.0,-3.0,3306.0,-10077.0,-11429.0,5035.0,-17.0,2.0,6.0,1.0
2022-05-13 15:10:52.499070-07:00,1024.5,640.8,940.7,884.8,739.7,731.5,1464.4,1074.7,3468.6,3466.1,1009.0,846.1,1379.4,3462.5,1148.9,1055.6,3473.4,3478.3,1192.0,1567.4,2697.4,2718.3,1167.4,3488.0,3481.9,3481.9,638.4,738.9,1458.0,886.5,819.4,721.6,-25.0,-7.0,-9.0,9434.0,-12279.0,-3487.0,4062.0,-2.0,-5.0,18.0,0.0,-3.0,-16.0,3296.0,-10080.0,-11434.0,5023.0,-27.0,-7.0,3.0,1.0
2022-05-13 15:10:52.633434-07:00,1024.5,640.8,940.7,892.4,735.6,729.0,1481.0,1063.4,3468.6,3466.1,1009.0,845.3,1384.8,3460.1,1150.6,1054.8,3469.8,3479.5,1187.6,1573.9,2683.2,2718.3,1167.4,3488.0,3473.4,3469.8,633.5,731.5,1461.7,886.5,819.4,721.6,-25.0,4.0,0.0,9427.0,-12282.0,-3481.0,4072.0,2.0,-17.0,-1.0,-2.0,8.0,-3.0,3293.0,-10081.0,-11435.0,5021.0,-5.0,-15.0,-6.0,1.0
2022-05-13 15:10:52.634687-07:00,1028.8,641.6,932.2,884.8,735.6,729.0,1481.0,1063.4,3473.4,3466.1,997.0,842.8,1384.8,3460.1,1150.6,1054.8,3469.8,3479.5,1187.6,1573.9,2684.3,2710.6,1173.5,3489.2,3473.4,3469.8,633.5,731.5,1460.8,886.5,817.7,725.8,-25.0,1.0,-9.0,9422.0,-12286.0,-3475.0,4080.0,-15.0,-2.0,23.0,0.0,5.0,-4.0,3289.0,-10080.0,-11437.0,5020.0,-36.0,-9.0,-12.0,1.0
2022-05-13 15:10:52.679831-07:00,1028.8,641.6,932.2,884.8,736.5,722.5,1481.0,1069.5,3473.4,3466.1,997.0,842.8,1382.1,3457.6,1150.6,1059.9,3478.3,3467.4,1181.5,1572.1,2684.3,2710.6,1173.5,3489.2,3479.5,3480.7,635.1,725.8,1460.8,886.5,817.7,725.8,-17.0,-8.0,-6.0,9410.0,-12293.0,-3470.0,4090.0,1.0,1.0,26.0,7.0,9.0,-6.0,3280.0,-10080.0,-11443.0,5012.0,-16.0,-10.0,-3.0,1.0
2022-05-13 15:10:52.725178-07:00,1021.1,650.5,960.2,887.3,736.5,722.5,1481.0,1069.5,3460.1,3471.0,999.6,854.5,1382.1,3457.6,1150.6,1059.9,3478.3,3467.4,1181.5,1572.1,2666.8,2718.3,1170.9,3490.5,3479.5,3480.7,635.1,725.8,1457.1,880.6,818.5,723.3,-16.0,9.0,-9.0,9405.0,-12297.0,-3461.0,4097.0,4.0,-10.0,3.0,4.0,0.0,-3.0,3273.0,-10081.0,-11447.0,5007.0,-6.0,-1.0,1.0,1.0
2022-05-13 15:10:52.769240-07:00,1021.1,650.5,960.2,887.3,734.8,736.5,1475.5,1068.6,3460.1,3471.0,999.6,854.5,1385.7,3464.9,1149.8,1053.9,3473.4,3467.4,1179.7,1580.5,2666.8,2718.3,1170.9,3490.5,3467.4,3475.9,630.3,736.5,1457.1,880.6,818.5,723.3,-16.0,2.0,-1.0,9401.0,-12297.0,-3461.0,4107.0,-9.0,-15.0,12.0,-1.0,3.0,-7.0,3272.0,-10081.0,-11447.0,5005.0,-17.0,-4.0,-4.0,1.0
2022-05-13 15:10:52.813642-07:00,1024.5,652.2,948.3,884.8,734.8,736.5,1475.5,1072.9,3464.9,3466.1,994.5,843.6,1385.7,3464.9,1149.8,1056.5,3473.4,3467.4,1179.7,1580.5,2673.3,2697.4,1173.5,3495.3,3475.9,3475.9,630.3,736.5,1452.5,879.7,811.9,719.2,-17.0,6.0,-4.0,9397.0,-12301.0,-3454.0,4109.0,8.0,14.0,-6.0,-4.0,7.0,-4.0,3271.0,-10082.0,-11448.0,5004.0,11.0,5.0,-2.0,1.0
2022-05-13 15:10:52.857148-07:00,1025.4,652.2,948.3,884.8,737.3,729.9,1479.2,1072.9,3472.2,3466.1,994.5,843.6,1385.7,3474.6,1147.1,1056.5,3473.4,3478.3,1177.9,1571.1,2673.3,2697.4,1173.5,3495.3,3475.9,3469.8,633.5,724.9,1452.5,879.7,811.9,720.8,-20.0,-6.0,-6.0,9396.0,-12302.0,-3454.0,4109.0,-3.0,-3.0,-20.0,2.0,3.0,-13.0,3272.0,-10081.0,-11447.0,5006.0,16.0,-4.0,-8.0,1.0
2022-05-13 15:10:52.993702-07:00,1025.4,652.2,932.2,883.1,737.3,729.9,1479.2,1066.9,3472.2,3468.6,1001.3,845.3,1385.7,3474.6,1147.1,1060.8,3477.1,3478.3,1177.9,1571.1,2667.8,2712.8,1174.4,3495.3,3477.1,3469.8,633.5,724.9,1433.2,874.7,821.0,720.8,-13.0,2.0,-7.0,9395.0,-12305.0,-3451.0,4105.0,-14.0,24.0,3.0,5.0,3.0,-8.0,3274.0,-10081.0,-11446.0,5007.0,-5.0,-1.0,-7.0,1.0
2022-05-13 15:10:52.995002-07:00,1020.2,652.2,932.2,883.1,729.0,727.4,1501.4,1066.9,3469.8,3468.6,1001.3,845.3,1382.1,3478.3,1146.3,1060.8,3477.1,3464.9,1189.4,1570.2,2667.8,2712.8,1174.4,3485.6,3477.1,3472.2,636.7,730.7,1433.2,874.7,821.0,725.8,-16.0,-2.0,-15.0,9392.0,-12308.0,-3448.0,4105.0,-5.0,-14.0,-8.0,3.0,1.0,-8.0,3274.0,-10081.0,-11447.0,5006.0,1.0,-4.0,-5.0,1.0
2022-05-13 15:10:53.037220-07:00,1020.2,653.8,938.1,892.4,729.0,727.4,1501.4,1066.0,3469.8,3467.4,997.9,847.0,1382.1,3478.3,1146.3,1064.3,3478.3,3464.9,1189.4,1570.2,2647.1,2712.8,1175.3,3485.6,3472.2,3472.2,636.7,730.7,1449.7,880.6,822.7,725.8,-11.0,6.0,5.0,9389.0,-12307.0,-3450.0,4112.0,-9.0,-1.0,14.0,6.0,8.0,-4.0,3273.0,-10081.0,-11448.0,5005.0,-15.0,-6.0,-2.0,1.0
2022-05-13 15:10:53.082169-07:00,1026.3,651.4,938.1,892.4,735.6,724.9,1485.6,1066.0,3473.4,3467.4,997.9,847.0,1383.9,3474.6,1145.4,1064.3,3478.3,3477.1,1180.6,1573.9,2647.1,2712.8,1170.0,3492.9,3472.2,3473.4,638.4,729.9,1449.7,880.6,816.0,720.8,-17.0,6.0,-11.0,9385.0,-12313.0,-3441.0,4113.0,-5.0,2.0,-2.0,0.0,-1.0,-8.0,3268.0,-10083.0,-11450.0,5000.0,0.0,1.0,-5.0,1.0
2022-05-13 15:10:53.127361-07:00,1026.3,651.4,933.0,889.0,735.6,724.9,1486.6,1059.9,3473.4,3467.4,1003.0,847.0,1383.9,3474.6,1144.5,1057.3,3471.0,3472.2,1180.6,1573.9,2672.2,2702.9,1170.0,3492.9,3475.9,3478.3,638.4,729.9,1459.8,882.3,816.0,720.8,-14.0,3.0,-3.0,9383.0,-12311.0,-3451.0,4114.0,-12.0,-16.0,-21.0,4.0,10.0,-6.0,3272.0,-10080.0,-11450.0,5002.0,12.0,-7.0,-12.0,1.0
2022-05-13 15:10:53.172057-07:00,1023.7,649.7,933.0,889.0,734.0,724.9,1486.6,1059.9,3478.3,3467.4,1003.0,847.0,1387.5,3473.4,1144.5,1057.3,3471.0,3472.2,1178.8,1582.4,2672.2,2702.9,1178.8,3484.4,3475.9,3478.3,627.8,724.9,1459.8,882.3,822.7,729.0,-7.0,4.0,-1.0,9379.0,-12317.0,-3445.0,4112.0,-7.0,23.0,13.0,0.0,-5.0,-6.0,3269.0,-10080.0,-11453.0,4998.0,-10.0,-1.0,5.0,1.0
2022-05-13 15:10:53.217103-07:00,1023.7,649.7,933.9,894.1,734.0,724.9,1481.0,1061.7,3478.3,3467.4,992.7,846.1,1387.5,3473.4,1145.4,1057.3,3467.4,3471.0,1178.8,1582.4,2659.1,2685.3,1178.8,3484.4,3471.0,3479.5,627.8,724.9,1455.2,884.8,822.7,729.0,-14.0,3.0,-7.0,9377.0,-12319.0,-3441.0,4112.0,3.0,7.0,10.0,3.0,6.0,-9.0,3269.0,-10080.0,-11452.0,4998.0,-9.0,5.0,6.0,1.0
2022-05-13 15:10:53.308223-07:00,1030.6,649.7,933.9,894.1,738.1,728.2,1481.0,1061.7,3466.1,3473.4,992.7,846.1,1382.1,3466.1,1145.4,1057.3,3467.4,3471.0,1184.1,1565.5,2659.1,2685.3,1178.8,3497.8,3471.0,3479.5,635.9,720.8,1455.2,884.8,821.9,718.4,-14.0,-2.0,2.0,9370.0,-12323.0,-3438.0,4119.0,-3.0,-10.0,8.0,-1.0,4.0,-6.0,3265.0,-10081.0,-11454.0,4993.0,-7.0,-4.0,-1.0,1.0
2022-05-13 15:10:53.309892-07:00,1030.6,649.7,938.1,884.8,738.1,731.5,1481.9,1084.2,3466.1,3473.4,997.0,847.0,1382.1,3477.1,1144.5,1057.3,3474.6,3473.4,1180.6,1565.5,2660.2,2702.9,1178.8,3497.8,3472.2,3467.4,634.3,720.8,1449.7,885.6,821.9,718.4,-16.0,10.0,-6.0,9367.0,-12324.0,-3434.0,4124.0,-6.0,-11.0,-1.0,0.0,2.0,-7.0,3265.0,-10082.0,-11455.0,4993.0,-5.0,0.0,-2.0,1.0
2022-05-13 15:10:53.398880-07:00,1019.4,648.9,928.8,884.8,738.9,731.5,1481.9,1084.2,3472.2,3462.5,991.9,847.0,1385.7,3477.1,1144.5,1057.3,3474.6,3473.4,1180.6,1569.3,2660.2,2710.6,1177.9,3486.8,3472.2,3467.4,634.3,724.9,1449.7,878.9,817.7,720.8,-16.0,-1.0,-5.0,9364.0,-12324.0,-3437.0,4128.0,3.0,-7.0,-9.0,1.0,9.0,-11.0,3265.0,-10082.0,-11455.0,4993.0,8.0,-5.0,-5.0,1.0
2022-05-13 15:10:53.400055-07:00,1019.4,648.9,928.8,884.8,738.9,725.8,1467.2,1070.3,3472.2,3462.5,991.9,845.3,1385.7,3475.9,1137.5,1055.6,3479.5,3474.6,1182.3,1569.3,2667.8,2710.6,1177.9,3486.8,3486.8,3477.1,635.1,724.9,1458.9,878.9,817.7,720.8,-6.0,-2.0,-8.0,9361.0,-12328.0,-3432.0,4129.0,-5.0,11.0,14.0,5.0,-3.0,-7.0,3263.0,-10082.0,-11456.0,4990.0,-11.0,-3.0,-3.0,1.0
2022-05-13 15:10:53.443403-07:00,1028.8,640.0,937.3,884.8,738.9,725.8,1467.2,1070.3,3467.4,3469.8,997.0,845.3,1389.4,3475.9,1137.5,1055.6,3479.5,3474.6,1182.3,1573.9,2667.8,2737.0,1170.0,3491.7,3486.8,3477.1,635.1,730.7,1458.9,876.4,832.7,718.4,-9.0,5.0,-5.0,9360.0,-12329.0,-3432.0,4129.0,-1.0,-5.0,-16.0,2.0,6.0,-5.0,3263.0,-10082.0,-11455.0,4991.0,20.0,5.0,-2.0,1.0
2022-05-13 15:10:53.577401-07:00,1028.8,640.0,937.3,884.8,738.9,723.3,1473.6,1069.5,3467.4,3469.8,997.0,841.1,1389.4,3473.4,1146.3,1056.5,3488.0,3475.9,1195.6,1573.9,2649.3,2737.0,1170.0,3491.7,3479.5,3479.5,636.7,730.7,1456.2,876.4,832.7,718.4,-11.0,1.0,-3.0,9359.0,-12329.0,-3433.0,4129.0,-10.0,-6.0,-3.0,-1.0,-2.0,-10.0,3265.0,-10082.0,-11455.0,4993.0,-4.0,2.0,-5.0,1.0
2022-05-13 15:10:53.624000-07:00,1020.2,638.4,939.0,884.8,735.6,723.3,1473.6,1069.5,3473.4,3472.2,996.2,841.1,1382.1,3473.4,1146.3,1056.5,3488.0,3475.9,1195.6,1566.5,2649.3,2707.3,1173.5,3495.3,3479.5,3479.5,636.7,722.5,1456.2,880.6,821.9,718.4,-13.0,0.0,-1.0,9358.0,-12330.0,-3432.0,4130.0,-3.0,8.0,4.0,2.0,3.0,-9.0,3265.0,-10082.0,-11455.0,4993.0,0.0,0.0,0.0,1.0
2022-05-13 15:10:53.625276-07:00,1020.2,638.4,939.0,882.3,729.0,723.3,1470.0,1070.3,3473.4,3472.2,996.2,841.9,1384.8,3472.2,1147.1,1061.7,3480.7,3467.4,1182.3,1566.5,2653.7,2707.3,1173.5,3495.3,3478.3,3483.2,638.4,722.5,1456.2,880.6,821.9,718.4,-13.0,8.0,-11.0,9357.0,-12333.0,-3428.0,4128.0,0.0,1.0,-10.0,3.0,0.0,-8.0,3265.0,-10082.0,-11455.0,4993.0,3.0,1.0,1.0,1.0
2022-05-13 15:10:53.668511-07:00,1038.3,648.9,928.8,883.9,729.0,723.3,1470.0,1070.3,3472.2,3468.6,991.0,847.0,1384.8,3472.2,1147.1,1061.7,3480.7,3467.4,1182.3,1566.5,2644.9,2699.6,1172.6,3486.8,3478.3,3483.2,638.4,722.5,1451.6,878.9,817.7,716.7,-12.0,-4.0,-3.0,9356.0,-12334.0,-3428.0,4128.0,-5.0,4.0,13.0,3.0,3.0,-8.0,3265.0,-10082.0,-11455.0,4993.0,-11.0,-4.0,-4.0,1.0
2022-05-13 15:10:53.758277-07:00,1038.3,648.9,928.8,883.9,735.6,719.2,1465.4,1076.4,3472.2,3468.6,991.0,847.0,1386.6,3461.3,1146.3,1055.6,3472.2,3472.2,1177.0,1571.1,2644.9,2699.6,1172.6,3486.8,3478.3,3479.5,630.3,724.1,1451.6,878.9,817.7,716.7,-5.0,0.0,-12.0,9349.0,-12340.0,-3416.0,4134.0,-8.0,-5.0,22.0,0.0,-13.0,-9.0,3257.0,-10084.0,-11459.0,4984.0,-20.0,-1.0,6.0,1.0
2022-05-13 15:10:53.761149-07:00,1026.3,655.4,950.0,884.8,735.6,719.2,1465.4,1076.4,3473.4,3477.1,986.7,839.4,1386.6,3461.3,1146.3,1055.6,3472.2,3472.2,1177.0,1571.1,2655.8,2690.8,1174.4,3497.8,3478.3,3479.5,630.3,724.1,1473.6,878.9,820.2,723.3,-10.0,10.0,2.0,9349.0,-12338.0,-3420.0,4136.0,-2.0,5.0,-4.0,4.0,16.0,-4.0,3258.0,-10084.0,-11458.0,4984.0,4.0,3.0,-1.0,1.0
2022-05-13 15:10:53.802180-07:00,1026.3,655.4,950.0,884.8,738.9,718.4,1473.6,1070.3,3473.4,3477.1,986.7,839.4,1390.3,3478.3,1144.5,1059.9,3478.3,3478.3,1195.6,1573.9,2655.8,2690.8,1174.4,3497.8,3472.2,3471.0,632.7,716.7,1473.6,878.9,820.2,723.3,-11.0,-2.0,-12.0,9351.0,-12340.0,-3415.0,4129.0,10.0,16.0,-11.0,1.0,-4.0,-13.0,3258.0,-10084.0,-11458.0,4985.0,11.0,5.0,-1.0,1.0
2022-05-13 15:10:53.849146-07:00,1021.1,651.4,942.4,896.6,738.9,718.4,1473.6,1070.3,3468.6,3478.3,993.6,848.6,1390.3,3478.3,1144.5,1054.8,3467.4,3478.3,1195.6,1573.9,2643.9,2715.0,1173.5,3486.8,3469.8,3471.0,632.7,716.7,1458.9,879.7,816.9,722.5,-10.0,2.0,-6.0,9352.0,-12339.0,-3418.0,4127.0,-3.0,-2.0,-3.0,4.0,7.0,-6.0,3261.0,-10083.0,-11456.0,4989.0,-5.0,1.0,-2.0,1.0
2022-05-13 15:10:53.894158-07:00,1029.7,651.4,942.4,896.6,734.8,717.5,1470.0,1070.3,3473.4,3478.3,993.6,848.6,1390.3,3467.4,1141.0,1054.8,3467.4,3472.2,1180.6,1571.1,2643.9,2715.0,1173.5,3490.5,3469.8,3478.3,629.5,720.8,1458.9,879.7,816.9,720.0,-5.0,-2.0,-1.0,9350.0,-12343.0,-3413.0,4126.0,-1.0,21.0,14.0,1.0,-2.0,-7.0,3260.0,-10083.0,-11457.0,4987.0,-3.0,1.0,6.0,1.0
2022-05-13 15:10:54.118746-07:00,1029.7,646.5,946.6,883.9,734.8,717.5,1470.0,1062.5,3473.4,3462.5,1000.5,843.6,1390.3,3467.4,1141.0,1061.7,3477.1,3472.2,1180.6,1571.1,2642.8,2708.4,1172.6,3490.5,3488.0,3478.3,629.5,720.8,1454.3,876.4,821.9,720.0,-5.0,1.0,0.0,9350.0,-12348.0,-3400.0,4121.0,-7.0,29.0,31.0,2.0,6.0,-7.0,3256.0,-10086.0,-11457.0,4984.0,-29.0,0.0,14.0,1.0
2022-05-13 15:10:54.120077-07:00,1047.8,646.5,946.6,883.9,739.7,726.6,1476.4,1062.5,3467.4,3462.5,1000.5,843.6,1385.7,3473.4,1141.0,1061.7,3477.1,3467.4,1171.8,1574.9,2642.8,2708.4,1172.6,3490.5,3488.0,3478.3,635.1,726.6,1454.3,876.4,821.9,715.9,13.0,-4.0,62.0,9342.0,-12375.0,-3346.0,4102.0,-41.0,232.0,156.0,3.0,23.0,0.0,3235.0,-10101.0,-11457.0,4968.0,-121.0,3.0,54.0,1.0
2022-05-13 15:10:54.121161-07:00,1047.8,648.1,938.1,888.2,739.7,726.6,1476.4,1066.0,3467.4,3464.9,997.9,837.7,1385.7,3473.4,1141.0,1054.8,3477.1,3467.4,1171.8,1574.9,2646.0,2699.6,1176.2,3490.5,3472.2,3478.3,635.1,726.6,1474.6,877.2,822.7,715.9,81.0,-46.0,125.0,9324.0,-12498.0,-3070.0,3982.0,-82.0,990.0,576.0,16.0,-33.0,18.0,3170.0,-10163.0,-11447.0,4907.0,-231.0,52.0,201.0,1.0
2022-05-13 15:10:54.122233-07:00,1028.8,648.1,938.1,888.2,737.3,725.8,1464.4,1066.0,3467.4,3464.9,997.9,837.7,1384.8,3467.4,1140.1,1054.8,3477.1,3480.7,1183.2,1569.3,2646.0,2699.6,1176.2,3501.4,3472.2,3472.2,638.4,723.3,1474.6,877.2,822.7,718.4,38.0,-38.0,48.0,9416.0,-12651.0,-2486.0,3682.0,317.0,1593.0,630.0,-3.0,-51.0,-9.0,3155.0,-10265.0,-11360.0,4905.0,192.0,106.0,332.0,1.0
2022-05-13 15:10:54.162348-07:00,1028.8,657.0,941.5,889.8,737.3,725.8,1458.0,1059.9,3467.4,3474.6,995.3,837.7,1384.8,3467.4,1147.1,1061.7,3479.5,3480.7,1183.2,1569.3,2642.8,2699.6,1166.5,3501.4,3485.6,3486.8,638.4,723.3,1456.2,878.9,820.2,718.4,62.0,-49.0,49.0,9505.0,-12851.0,-1652.0,3198.0,104.0,2487.0,1105.0,-3.0,20.0,-9.0,3163.0,-10375.0,-11249.0,4926.0,-20.0,117.0,344.0,1.0
2022-05-13 15:10:54.208746-07:00,1028.0,644.9,941.5,889.8,734.0,735.6,1458.0,1059.9,3462.5,3468.6,995.3,837.7,1383.9,3478.3,1147.1,1061.7,3479.5,3480.7,1202.7,1568.3,2642.8,2699.6,1173.5,3489.2,3485.6,3486.8,640.8,728.2,1456.2,878.9,819.4,718.4,14.0,-34.0,-98.0,9686.0,-12920.0,-628.0,2701.0,763.0,2084.0,1018.0,1.0,-37.0,-17.0,3236.0,-10478.0,-11096.0,5007.0,528.0,132.0,355.0,1.0
2022-05-13 15:10:54.252145-07:00,1028.0,644.9,933.0,885.6,734.0,735.6,1487.5,1066.0,3462.5,3468.6,993.6,845.3,1383.9,3478.3,1146.3,1055.6,3469.8,3478.3,1202.7,1568.3,2651.5,2685.3,1173.5,3489.2,3472.2,3478.3,640.8,728.2,1457.1,872.1,819.4,718.4,61.0,85.0,65.0,9716.0,-13004.0,269.0,2204.0,-75.0,2433.0,966.0,19.0,118.0,-43.0,3293.0,-10530.0,-10998.0,5076.0,-41.0,59.0,210.0,1.0
2022-05-13 15:10:54.299128-07:00,1029.7,645.7,933.0,885.6,733.2,739.7,1487.5,1066.0,3466.1,3478.3,993.6,845.3,1389.4,3466.1,1146.3,1055.6,3469.8,3478.3,1210.6,1565.5,2651.5,2685.3,1167.4,3496.6,3472.2,3478.3,634.3,737.3,1457.1,872.1,816.9,703.6,32.0,-101.0,-5.0,9802.0,-12975.0,1217.0,1592.0,1131.0,2208.0,730.0,0.0,-99.0,18.0,3358.0,-10592.0,-10896.0,5123.0,1076.0,228.0,271.0,1.0
2022-05-13 15:10:54.344133-07:00,1029.7,645.7,939.8,883.1,733.2,739.7,1475.5,1059.9,3466.1,3478.3,999.6,847.0,1389.4,3466.1,1144.5,1057.3,3472.2,3478.3,1210.6,1565.5,2636.2,2686.4,1167.4,3496.6,3464.9,3481.9,634.3,737.3,1459.8,878.0,816.9,703.6,110.0,139.0,0.0,10110.0,-12690.0,2096.0,898.0,929.0,2713.0,608.0,19.0,158.0,-84.0,3721.0,-10570.0,-10642.0,5444.0,591.0,100.0,177.0,1.0
2022-05-13 15:10:54.432997-07:00,1028.0,650.5,936.4,883.1,734.0,735.6,1475.5,1059.9,3468.6,3478.3,1012.5,847.0,1390.3,3467.4,1144.5,1057.3,3472.2,3478.3,1201.8,1567.4,2636.2,2674.4,1170.9,3502.7,3464.9,3481.9,640.8,740.6,1459.8,878.0,817.7,724.9,34.0,-90.0,9.0,10023.0,-12597.0,3048.0,94.0,238.0,2697.0,618.0,-12.0,-72.0,30.0,3822.0,-10584.0,-10562.0,5499.0,240.0,159.0,91.0,1.0
2022-05-13 15:10:54.479617-07:00,1028.0,650.5,936.4,882.3,734.0,729.9,1462.6,1046.1,3468.6,3478.3,1012.5,856.2,1390.3,3478.3,1137.5,1053.0,3477.1,3473.4,1205.3,1567.4,2610.2,2674.4,1170.9,3502.7,3475.9,3474.6,640.0,740.6,1460.8,878.0,817.7,724.9,55.0,7.0,-26.0,9980.0,-12363.0,3956.0,-594.0,436.0,2454.0,777.0,2.0,7.0,-5.0,3961.0,-10603.0,-10450.0,5579.0,171.0,137.0,176.0,1.0
2022-05-13 15:10:54.524199-07:00,1028.8,650.5,925.4,882.3,731.5,729.9,1462.6,1046.1,3471.0,3466.1,1015.9,856.2,1383.0,3478.3,1137.5,1053.0,3477.1,3473.4,1205.3,1573.0,2610.2,2688.6,1169.1,3497.8,3475.9,3474.6,640.0,749.6,1460.8,886.5,820.2,719.2,-3.0,1.0,-50.0,9666.0,-12273.0,4810.0,-1117.0,-468.0,2046.0,725.0,5.0,-53.0,58.0,3931.0,-10688.0,-10408.0,5515.0,-556.0,165.0,224.0,1.0
2022-05-13 15:10:54.567198-07:00,1028.8,650.5,925.4,883.9,731.5,728.2,1476.4,1059.1,3471.0,3466.1,1015.9,848.6,1383.0,3463.7,1155.9,1059.9,3478.3,3474.6,1196.5,1573.0,2531.5,2688.6,1169.1,3497.8,3472.2,3474.6,640.0,749.6,1458.0,886.5,820.2,719.2,17.0,-57.0,-14.0,9518.0,-12118.0,5381.0,-1428.0,511.0,1214.0,627.0,13.0,0.0,-30.0,3902.0,-10813.0,-10332.0,5435.0,413.0,238.0,304.0,1.0
2022-05-13 15:10:54.612200-07:00,1033.2,641.6,946.6,883.9,730.7,728.2,1476.4,1059.1,3475.9,3460.1,1022.8,848.6,1385.7,3463.7,1155.9,1059.9,3478.3,3474.6,1196.5,1567.4,2531.5,2667.8,1170.0,3501.4,3472.2,3474.6,640.0,747.2,1458.0,872.1,814.4,721.6,84.0,108.0,-78.0,9501.0,-11838.0,5902.0,-1785.0,283.0,1581.0,584.0,3.0,94.0,-81.0,4002.0,-10875.0,-10196.0,5496.0,-146.0,100.0,171.0,1.0
2022-05-13 15:10:54.657402-07:00,1033.2,641.6,946.6,883.1,731.5,731.5,1470.0,1070.3,3475.9,3460.1,1022.8,860.4,1383.0,3472.2,1147.1,1060.8,3472.2,3467.4,1192.0,1565.5,2519.7,2667.8,1170.0,3501.4,3475.9,3469.8,635.9,738.1,1458.9,872.1,814.4,721.6,-38.0,-22.0,-77.0,9282.0,-11736.0,6348.0,-2058.0,-229.0,843.0,284.0,5.0,-2.0,-14.0,3931.0,-10963.0,-10179.0,5403.0,-148.0,131.0,143.0,1.0
2022-05-13 15:10:54.702157-07:00,1029.7,640.0,926.2,904.2,731.5,731.5,1470.0,1070.3,3478.3,3472.2,1014.2,856.2,1383.0,3472.2,1147.1,1060.8,3472.2,3467.4,1192.0,1565.5,2489.8,2663.5,1168.2,3497.8,3475.9,3469.8,635.9,738.1,1458.9,873.0,812.7,737.3,47.0,15.0,-55.0,9183.0,-11662.0,6588.0,-2169.0,75.0,633.0,307.0,0.0,52.0,-58.0,3926.0,-11009.0,-10143.0,5381.0,44.0,1.0,50.0,1.0
2022-05-13 15:10:54.751666-07:00,1029.7,640.0,926.2,904.2,730.7,737.3,1470.0,1065.1,3478.3,3472.2,1014.2,856.2,1382.1,3472.2,1146.3,1062.5,3478.3,3473.4,1188.5,1564.6,2489.8,2663.5,1168.2,3497.8,3478.3,3483.2,640.0,744.7,1458.9,873.0,812.7,737.3,-28.0,38.0,-58.0,9100.0,-11584.0,6794.0,-2297.0,-47.0,379.0,89.0,13.0,-19.0,15.0,3920.0,-11017.0,-10137.0,5380.0,-81.0,24.0,12.0,1.0
2022-05-13 15:10:54.794158-07:00,1046.1,648.9,935.6,889.8,730.7,737.3,1470.0,1065.1,3483.2,3477.1,1014.2,855.3,1382.1,3472.2,1146.3,1062.5,3478.3,3473.4,1188.5,1564.6,2463.2,2665.7,1171.8,3490.5,3478.3,3483.2,640.0,744.7,1457.1,875.5,819.4,718.4,25.0,0.0,-40.0,9070.0,-11622.0,6770.0,-2296.0,-121.0,-173.0,-146.0,6.0,25.0,-39.0,3901.0,-11028.0,-10147.0,5353.0,-67.0,-15.0,-29.0,1.0
2022-05-13 15:10:54.882234-07:00,1046.1,648.9,935.6,889.8,731.5,731.5,1470.0,1062.5,3483.2,3477.1,1014.2,855.3,1383.9,3466.1,1153.3,1060.8,3478.3,3478.3,1193.8,1551.5,2463.2,2665.7,1171.8,3490.5,3483.2,3481.9,644.9,757.9,1457.1,875.5,819.4,718.4,21.0,-32.0,28.0,9067.0,-11656.0,6721.0,-2281.0,79.0,-15.0,-45.0,7.0,-1.0,-17.0,3899.0,-11013.0,-10162.0,5356.0,93.0,-38.0,-43.0,1.0
2022-05-13 15:10:54.927225-07:00,1032.3,649.7,927.9,885.6,731.5,731.5,1470.0,1062.5,3468.6,3468.6,1014.2,854.5,1383.9,3466.1,1153.3,1060.8,3478.3,3478.3,1193.8,1551.5,2457.9,2659.1,1169.1,3486.8,3483.2,3481.9,644.9,757.9,1450.6,873.0,827.7,716.7,10.0,10.0,16.0,9102.0,-11645.0,6682.0,-2313.0,55.0,-68.0,-141.0,4.0,2.0,1.0,3930.0,-10990.0,-10161.0,5382.0,-5.0,-5.0,-37.0,1.0
2022-05-13 15:10:54.972336-07:00,1041.8,649.7,927.9,885.6,734.0,724.1,1464.4,1068.6,3468.6,3468.6,1014.2,854.5,1385.7,3471.0,1149.8,1062.5,3479.5,3478.3,1185.9,1556.2,2457.9,2659.1,1169.1,3494.1,3477.1,3481.9,632.7,752.1,1450.6,873.0,827.7,732.3,11.0,-44.0,23.0,9093.0,-11685.0,6623.0,-2311.0,-92.0,-56.0,-91.0,2.0,-10.0,-9.0,3922.0,-10985.0,-10177.0,5367.0,-67.0,-5.0,-24.0,1.0
2022-05-13 15:10:55.153385-07:00,1041.8,650.5,933.0,891.5,734.0,724.1,1464.4,1058.2,3468.6,3471.0,1018.5,854.5,1385.7,3471.0,1149.8,1059.1,3467.4,3478.3,1185.9,1556.2,2451.5,2658.0,1170.0,3494.1,3478.3,3481.9,632.7,752.1,1456.2,875.5,816.9,732.3,17.0,-3.0,20.0,9095.0,-11693.0,6609.0,-2303.0,22.0,-26.0,-4.0,8.0,7.0,-7.0,3923.0,-10985.0,-10177.0,5367.0,28.0,7.0,10.0,1.0
2022-05-13 15:10:55.154672-07:00,1033.2,650.5,933.0,891.5,724.9,725.8,1464.4,1058.2,3478.3,3471.0,1018.5,854.5,1374.8,3473.4,1151.5,1059.1,3467.4,3478.3,1184.1,1556.2,2451.5,2658.0,1170.0,3492.9,3478.3,3480.7,639.2,775.3,1456.2,875.5,816.9,722.5,24.0,-1.0,4.0,9089.0,-11704.0,6594.0,-2317.0,-12.0,25.0,-72.0,6.0,12.0,-20.0,3917.0,-10988.0,-10181.0,5358.0,-31.0,4.0,-2.0,1.0
2022-05-13 15:10:55.158154-07:00,1033.2,643.2,936.4,885.6,724.9,725.8,1464.4,1059.1,3478.3,3466.1,1016.8,855.3,1374.8,3473.4,1151.5,1059.9,3478.3,3478.3,1184.1,1556.2,2437.7,2666.8,1163.0,3492.9,3477.1,3480.7,639.2,775.3,1456.2,882.3,819.4,722.5,5.0,-17.0,3.0,9076.0,-11715.0,6583.0,-2343.0,-12.0,24.0,-40.0,3.0,0.0,-7.0,3908.0,-10991.0,-10186.0,5348.0,-17.0,0.0,-2.0,1.0
2022-05-13 15:10:55.159227-07:00,1027.1,643.2,936.4,885.6,741.4,723.3,1468.1,1059.1,3467.4,3466.1,1016.8,855.3,1383.9,3463.7,1148.9,1059.9,3478.3,3472.2,1182.3,1546.9,2437.7,2666.8,1163.0,3499.0,3477.1,3469.8,639.2,749.6,1456.2,882.3,819.4,718.4,13.0,5.0,0.0,9081.0,-11720.0,6564.0,-2353.0,21.0,-32.0,-59.0,4.0,8.0,-13.0,3910.0,-10991.0,-10186.0,5349.0,8.0,3.0,-5.0,1.0
2022-05-13 15:10:55.197001-07:00,1027.1,657.9,933.9,885.6,741.4,723.3,1469.0,1055.6,3467.4,3467.4,1015.1,847.0,1383.9,3463.7,1145.4,1059.1,3480.7,3467.4,1182.3,1546.9,2416.6,2650.4,1162.1,3499.0,3474.6,3478.3,639.2,749.6,1458.9,874.7,816.9,718.4,16.0,-14.0,9.0,9090.0,-11726.0,6536.0,-2369.0,37.0,-7.0,-51.0,7.0,4.0,-11.0,3912.0,-10988.0,-10188.0,5347.0,24.0,-7.0,-12.0,1.0
2022-05-13 15:10:55.244076-07:00,1030.6,640.0,933.9,885.6,738.9,728.2,1469.0,1055.6,3467.4,3474.6,1015.1,847.0,1381.2,3467.4,1145.4,1059.1,3480.7,3467.4,1187.6,1543.1,2416.6,2650.4,1167.4,3500.2,3474.6,3478.3,635.1,753.8,1458.9,874.7,812.7,719.2,9.0,-4.0,10.0,9100.0,-11719.0,6527.0,-2387.0,50.0,14.0,-12.0,7.0,1.0,-5.0,3922.0,-10984.0,-10185.0,5354.0,27.0,-1.0,-6.0,1.0
2022-05-13 15:10:55.288949-07:00,1030.6,640.0,928.8,884.8,738.9,728.2,1455.2,1054.8,3467.4,3474.6,1015.1,857.9,1381.2,3467.4,1148.0,1059.9,3468.6,3472.2,1187.6,1543.1,2426.1,2642.8,1167.4,3500.2,3477.1,3478.3,635.1,753.8,1455.2,878.9,812.7,719.2,16.0,-4.0,11.0,9104.0,-11716.0,6521.0,-2399.0,-12.0,9.0,-18.0,8.0,2.0,-5.0,3924.0,-10984.0,-10186.0,5353.0,-13.0,3.0,-1.0,1.0
2022-05-13 15:10:55.379379-07:00,1033.2,649.7,928.8,884.8,739.7,723.3,1455.2,1054.8,3457.6,3469.8,1015.1,857.9,1382.1,3483.2,1148.0,1059.9,3468.6,3472.2,1179.7,1544.1,2426.1,2642.8,1167.4,3502.7,3477.1,3478.3,633.5,747.2,1455.2,878.9,813.5,718.4,13.0,-8.0,7.0,9099.0,-11720.0,6518.0,-2406.0,-23.0,10.0,-11.0,5.0,5.0,-9.0,3919.0,-10986.0,-10189.0,5347.0,-24.0,2.0,4.0,1.0
2022-05-13 15:10:55.422894-07:00,1033.2,649.7,922.8,886.5,739.7,723.3,1462.6,1051.3,3457.6,3469.8,1015.1,855.3,1382.1,3483.2,1139.2,1059.9,3473.4,3462.5,1179.7,1544.1,2452.6,2655.8,1167.4,3502.7,3474.6,3475.9,633.5,747.2,1463.5,874.7,813.5,718.4,8.0,-9.0,2.0,9090.0,-11725.0,6521.0,-2410.0,-12.0,13.0,5.0,4.0,-1.0,-10.0,3913.0,-10988.0,-10192.0,5340.0,-16.0,2.0,2.0,1.0
2022-05-13 15:10:55.512309-07:00,1034.0,647.3,932.2,886.5,738.9,734.0,1462.6,1051.3,3464.9,3462.5,1009.0,855.3,1385.7,3474.6,1139.2,1059.9,3473.4,3462.5,1180.6,1542.2,2452.6,2637.3,1168.2,3488.0,3474.6,3475.9,630.3,752.1,1463.5,880.6,813.5,720.8,13.0,-2.0,5.0,9093.0,-11723.0,6520.0,-2414.0,22.0,-1.0,-9.0,2.0,5.0,-15.0,3913.0,-10988.0,-10192.0,5340.0,14.0,2.0,0.0,1.0
2022-05-13 15:10:55.559141-07:00,1034.0,647.3,932.2,885.6,738.9,721.6,1461.7,1055.6,3464.9,3462.5,1009.0,851.1,1385.7,3468.6,1151.5,1058.2,3478.3,3475.9,1176.2,1542.2,2415.5,2637.3,1168.2,3488.0,3467.4,3474.6,635.1,752.1,1460.8,880.6,813.5,720.8,15.0,-7.0,0.0,9096.0,-11721.0,6516.0,-2420.0,4.0,2.0,-2.0,7.0,6.0,-13.0,3912.0,-10988.0,-10193.0,5338.0,-3.0,-5.0,-3.0,1.0
2022-05-13 15:10:55.560318-07:00,1035.7,666.8,918.6,885.6,741.4,721.6,1461.7,1055.6,3474.6,3464.9,1015.1,851.1,1381.2,3468.6,1151.5,1058.2,3478.3,3475.9,1176.2,1545.0,2415.5,2652.6,1172.6,3492.9,3467.4,3474.6,635.1,747.2,1460.8,878.0,811.0,725.8,15.0,-5.0,4.0,9090.0,-11726.0,6515.0,-2420.0,-27.0,-8.0,2.0,10.0,3.0,-7.0,3909.0,-10990.0,-10196.0,5332.0,-20.0,-4.0,-4.0,1.0
2022-05-13 15:10:55.603011-07:00,1035.7,666.8,918.6,878.0,741.4,722.5,1457.1,1056.5,3474.6,3464.9,1015.1,853.7,1381.2,3472.2,1142.7,1071.2,3478.3,3468.6,1180.6,1545.0,2405.0,2652.6,1172.6,3492.9,3483.2,3484.4,629.5,747.2,1455.2,878.0,811.0,725.8,13.0,-6.0,9.0,9089.0,-11728.0,6513.0,-2422.0,6.0,5.0,2.0,5.0,0.0,-8.0,3909.0,-10990.0,-10197.0,5330.0,11.0,0.0,-1.0,1.0
2022-05-13 15:10:55.783674-07:00,1028.0,653.0,924.5,878.0,737.3,722.5,1457.1,1056.5,3467.4,3473.4,1014.2,853.7,1378.5,3472.2,1142.7,1071.2,3478.3,3468.6,1180.6,1546.9,2405.0,2658.0,1170.0,3494.1,3483.2,3484.4,629.5,743.9,1455.2,878.0,818.5,725.8,8.0,0.0,2.0,9092.0,-11726.0,6511.0,-2425.0,-5.0,5.0,-2.0,1.0,4.0,-10.0,3911.0,-10989.0,-10196.0,5331.0,-6.0,-3.0,2.0,1.0
2022-05-13 15:10:55.784919-07:00,1028.0,653.0,924.5,893.2,732.3,720.0,1442.4,1058.2,3467.4,3473.4,1014.2,850.3,1379.4,3464.9,1139.2,1058.2,3475.9,3461.3,1176.2,1545.9,2391.3,2658.0,1170.0,3494.1,3474.6,3472.2,633.5,740.6,1457.1,878.0,818.5,725.8,11.0,-5.0,5.0,9085.0,-11731.0,6512.0,-2423.0,-20.0,12.0,-2.0,2.0,3.0,-14.0,3904.0,-10992.0,-10199.0,5324.0,-25.0,-2.0,-1.0,1.0
2022-05-13 15:10:55.787198-07:00,1031.4,646.5,930.5,887.3,732.3,720.0,1442.4,1058.2,3478.3,3472.2,1005.6,851.1,1379.4,3464.9,1139.2,1058.2,3475.9,3461.3,1176.2,1545.9,2397.6,2658.0,1170.9,3496.6,3474.6,3472.2,633.5,740.6,1458.9,878.9,816.9,725.8,9.0,-3.0,0.0,9083.0,-11731.0,6513.0,-2427.0,-5.0,-3.0,1.0,6.0,0.0,-9.0,3903.0,-10992.0,-10200.0,5323.0,-2.0,3.0,0.0,1.0
2022-05-13 15:10:55.788293-07:00,1031.4,646.5,930.5,887.3,732.3,724.9,1450.6,1063.4,3478.3,3472.2,1005.6,851.1,1380.3,3467.4,1143.6,1059.9,3474.6,3488.0,1177.9,1540.3,2397.6,2658.0,1170.9,3496.6,3477.1,3478.3,636.7,739.7,1458.9,878.9,816.9,725.8,12.0,-8.0,1.0,9079.0,-11737.0,6510.0,-2424.0,-13.0,-8.0,4.0,5.0,0.0,-13.0,3900.0,-10994.0,-10202.0,5318.0,-4.0,-7.0,-2.0,1.0
2022-05-13 15:10:55.980695-07:00,1035.7,648.9,927.1,886.5,732.3,724.9,1450.6,1063.4,3461.3,3460.1,1002.2,856.2,1380.3,3467.4,1143.6,1059.9,3474.6,3488.0,1177.9,1540.3,2394.5,2637.3,1168.2,3497.8,3477.1,3478.3,636.7,739.7,1449.7,874.7,811.0,720.0,9.0,-7.0,7.0,9080.0,-11736.0,6508.0,-2427.0,6.0,-5.0,-4.0,5.0,3.0,-4.0,3900.0,-10994.0,-10203.0,5317.0,5.0,0.0,-2.0,1.0
2022-05-13 15:10:55.983191-07:00,1035.7,648.9,927.1,886.5,731.5,719.2,1458.0,1060.8,3461.3,3460.1,1002.2,856.2,1383.0,3463.7,1142.7,1054.8,3484.4,3480.7,1175.3,1545.0,2394.5,2637.3,1168.2,3497.8,3475.9,3467.4,634.3,737.3,1449.7,874.7,811.0,720.0,8.0,-3.0,2.0,9080.0,-11737.0,6507.0,-2428.0,-11.0,-5.0,1.0,2.0,4.0,-10.0,3900.0,-10994.0,-10203.0,5315.0,-8.0,2.0,1.0,1.0
2022-05-13 15:10:55.985279-07:00,1032.3,645.7,936.4,887.3,731.5,719.2,1458.0,1060.8,3471.0,3472.2,1005.6,852.8,1383.0,3463.7,1142.7,1054.8,3484.4,3480.7,1175.3,1545.0,2392.4,2649.3,1171.8,3491.7,3475.9,3467.4,634.3,737.3,1458.0,878.0,816.0,721.6,9.0,-1.0,6.0,9078.0,-11738.0,6507.0,-2429.0,7.0,10.0,0.0,4.0,3.0,-6.0,3898.0,-10995.0,-10204.0,5313.0,4.0,2.0,0.0,1.0
2022-05-13 15:10:56.065836-07:00,1034.0,645.7,936.4,887.3,737.3,719.2,1458.9,1060.8,3467.4,3472.2,1005.6,852.8,1383.9,3466.1,1141.9,1060.8,3477.1,3480.7,1170.9,1536.6,2392.4,2649.3,1171.8,3484.4,3467.4,3471.0,631.1,739.7,1458.0,878.0,816.0,724.1,8.0,-9.0,4.0,9078.0,-11738.0,6507.0,-2431.0,-2.0,-8.0,-1.0,4.0,0.0,-9.0,3898.0,-10995.0,-10205.0,5312.0,-3.0,2.0,0.0,1.0
2022-05-13 15:10:56.094827-07:00,1034.0,639.2,923.7,884.8,737.3,719.2,1458.9,1060.8,3467.4,3478.3,1012.5,853.7,1383.9,3466.1,1141.9,1052.2,3471.0,3480.7,1170.9,1536.6,2396.6,2643.9,1168.2,3484.4,3474.6,3471.0,631.1,739.7,1468.1,874.7,816.9,724.1,15.0,-1.0,6.0,9078.0,-11738.0,6505.0,-2433.0,-3.0,2.0,-2.0,3.0,0.0,-11.0,3898.0,-10995.0,-10205.0,5311.0,-3.0,4.0,4.0,1.0
2022-05-13 15:10:56.198815-07:00,1029.7,639.2,923.7,884.8,738.1,725.8,1450.6,1060.8,3474.6,3478.3,1012.5,853.7,1383.9,3464.9,1143.6,1052.2,3471.0,3467.4,1173.5,1538.5,2396.6,2643.9,1168.2,3494.1,3474.6,3478.3,637.6,714.2,1468.1,874.7,816.9,718.4,4.0,-7.0,2.0,9077.0,-11737.0,6506.0,-2437.0,-5.0,7.0,-3.0,4.0,0.0,-6.0,3897.0,-10995.0,-10206.0,5310.0,-5.0,4.0,4.0,1.0
2022-05-13 15:10:56.201682-07:00,1029.7,644.0,927.9,887.3,738.1,725.8,1450.6,1064.3,3474.6,3475.9,1009.9,844.4,1383.9,3464.9,1143.6,1058.2,3477.1,3467.4,1173.5,1538.5,2373.4,2652.6,1169.1,3494.1,3474.6,3478.3,637.6,714.2,1458.0,873.0,818.5,718.4,8.0,-3.0,5.0,9078.0,-11737.0,6506.0,-2437.0,6.0,2.0,10.0,1.0,3.0,-11.0,3897.0,-10995.0,-10206.0,5310.0,7.0,2.0,8.0,1.0
2022-05-13 15:10:56.203490-07:00,1027.1,644.0,927.9,887.3,734.0,724.9,1458.9,1064.3,3469.8,3475.9,1009.9,844.4,1381.2,3467.4,1141.9,1058.2,3477.1,3469.8,1169.1,1539.4,2373.4,2652.6,1169.1,3499.0,3474.6,3478.3,637.6,745.5,1458.0,873.0,818.5,718.4,10.0,-3.0,0.0,9079.0,-11737.0,6505.0,-2439.0,7.0,6.0,-12.0,4.0,4.0,-12.0,3898.0,-10995.0,-10205.0,5311.0,-1.0,3.0,4.0,1.0
2022-05-13 15:10:56.234828-07:00,1027.1,657.0,928.8,881.4,734.0,724.9,1448.8,1054.8,3469.8,3468.6,1002.2,855.3,1381.2,3467.4,1141.9,1056.5,3477.1,3478.3,1169.1,1539.4,2383.9,2625.4,1168.2,3499.0,3473.4,3481.9,637.6,745.5,1455.2,878.9,813.5,718.4,9.0,-5.0,-6.0,9078.0,-11738.0,6503.0,-2440.0,-6.0,-14.0,6.0,7.0,4.0,-13.0,3898.0,-10995.0,-10205.0,5311.0,-1.0,-7.0,-2.0,1.0
2022-05-13 15:10:56.322242-07:00,1038.3,643.2,928.8,881.4,731.5,721.6,1448.8,1054.8,3473.4,3473.4,1002.2,855.3,1383.0,3463.7,1141.9,1056.5,3477.1,3478.3,1170.9,1536.6,2383.9,2625.4,1166.5,3489.2,3473.4,3481.9,633.5,736.5,1455.2,878.9,815.2,715.9,15.0,-1.0,6.0,9081.0,-11741.0,6497.0,-2435.0,9.0,-14.0,-6.0,6.0,5.0,-11.0,3897.0,-10995.0,-10205.0,5311.0,8.0,-4.0,-5.0,1.0
2022-05-13 15:10:56.413105-07:00,1038.3,643.2,931.3,880.6,731.5,721.6,1456.2,1065.1,3473.4,3473.4,1005.6,855.3,1383.0,3463.7,1134.0,1055.6,3462.5,3477.1,1170.9,1536.6,2383.9,2635.1,1166.5,3489.2,3477.1,3469.8,633.5,736.5,1460.8,874.7,815.2,715.9,5.0,-9.0,5.0,9089.0,-11736.0,6491.0,-2440.0,21.0,-11.0,-8.0,0.0,1.0,-6.0,3901.0,-10993.0,-10204.0,5316.0,22.0,-5.0,-3.0,1.0
2022-05-13 15:10:56.416409-07:00,1018.5,648.9,931.3,880.6,729.9,726.6,1456.2,1065.1,3469.8,3475.9,1005.6,855.3,1383.0,3471.0,1134.0,1055.6,3462.5,3477.1,1167.4,1538.5,2383.9,2635.1,1168.2,3489.2,3477.1,3469.8,637.6,742.2,1460.8,874.7,813.5,711.8,10.0,-4.0,6.0,9091.0,-11736.0,6488.0,-2438.0,0.0,-6.0,3.0,5.0,3.0,-12.0,3903.0,-10992.0,-10203.0,5318.0,2.0,-5.0,0.0,1.0
2022-05-13 15:10:56.458013-07:00,1018.5,648.9,950.0,880.6,729.9,726.6,1453.4,1053.0,3469.8,3475.9,1008.2,855.3,1383.0,3471.0,1140.1,1053.9,3469.8,3469.8,1167.4,1538.5,2376.6,2652.6,1168.2,3489.2,3466.1,3473.4,637.6,742.2,1455.2,869.6,813.5,711.8,8.0,1.0,-3.0,9099.0,-11731.0,6486.0,-2444.0,28.0,2.0,-6.0,6.0,6.0,-11.0,3906.0,-10991.0,-10201.0,5321.0,15.0,-1.0,-1.0,1.0
2022-05-13 15:10:56.502254-07:00,1026.3,647.3,950.0,880.6,740.6,722.5,1453.4,1053.0,3478.3,3466.1,1008.2,855.3,1383.0,3467.4,1140.1,1053.9,3469.8,3469.8,1167.4,1520.8,2376.6,2652.6,1170.0,3492.9,3466.1,3473.4,634.3,731.5,1455.2,869.6,811.0,732.3,12.0,-6.0,1.0,9101.0,-11731.0,6482.0,-2444.0,5.0,-18.0,-4.0,6.0,2.0,-7.0,3907.0,-10991.0,-10201.0,5321.0,11.0,-3.0,0.0,1.0
2022-05-13 15:10:56.547285-07:00,1026.3,647.3,927.1,878.0,740.6,721.6,1456.2,1059.9,3478.3,3466.1,1009.0,852.0,1383.0,3473.4,1137.5,1054.8,3474.6,3473.4,1161.2,1520.8,2357.7,2646.0,1170.0,3492.9,3483.2,3467.4,638.4,731.5,1456.2,871.3,811.0,732.3,9.0,1.0,2.0,9107.0,-11729.0,6478.0,-2444.0,9.0,-7.0,-7.0,1.0,2.0,-10.0,3911.0,-10989.0,-10199.0,5325.0,1.0,-4.0,-2.0,1.0
2022-05-13 15:10:56.593909-07:00,1029.7,649.7,930.5,878.0,734.0,721.6,1456.2,1059.9,3472.2,3469.8,1004.8,852.0,1386.6,3473.4,1137.5,1054.8,3474.6,3473.4,1161.2,1539.4,2357.7,2648.2,1162.1,3494.1,3483.2,3467.4,638.4,734.8,1456.2,873.0,811.0,736.5,6.0,-5.0,1.0,9109.0,-11728.0,6475.0,-2447.0,18.0,-12.0,-9.0,0.0,0.0,-5.0,3912.0,-10989.0,-10198.0,5326.0,12.0,1.0,-2.0,1.0
2022-05-13 15:10:56.639075-07:00,1029.7,649.7,930.5,881.4,734.0,722.5,1466.3,1058.2,3472.2,3469.8,1004.8,851.1,1386.6,3475.9,1146.3,1058.2,3488.0,3472.2,1168.2,1539.4,2370.3,2648.2,1162.1,3494.1,3479.5,3474.6,635.9,734.8,1453.4,873.0,811.0,736.5,10.0,-3.0,2.0,9113.0,-11726.0,6473.0,-2446.0,6.0,2.0,-7.0,4.0,5.0,-10.0,3914.0,-10988.0,-10197.0,5328.0,1.0,2.0,1.0,1.0
2022-05-13 15:10:56.774222-07:00,1030.6,640.0,926.2,881.4,735.6,722.5,1466.3,1058.2,3471.0,3469.8,1007.3,851.1,1386.6,3475.9,1146.3,1058.2,3488.0,3472.2,1168.2,1532.0,2370.3,2649.3,1165.6,3495.3,3479.5,3474.6,635.9,736.5,1453.4,875.5,816.0,725.8,7.0,-4.0,-1.0,9114.0,-11726.0,6472.0,-2446.0,5.0,-21.0,-4.0,5.0,0.0,-8.0,3914.0,-10988.0,-10197.0,5328.0,4.0,-1.0,-2.0,1.0
2022-05-13 15:10:56.775521-07:00,1030.6,640.0,926.2,888.2,735.6,725.8,1450.6,1059.9,3471.0,3469.8,1007.3,856.2,1386.6,3478.3,1141.0,1049.6,3475.9,3472.2,1172.6,1532.0,2374.5,2649.3,1165.6,3495.3,3483.2,3480.7,647.3,736.5,1455.2,875.5,816.0,725.8,11.0,-5.0,11.0,9118.0,-11727.0,6468.0,-2440.0,3.0,-4.0,-3.0,6.0,2.0,-5.0,3914.0,-10988.0,-10197.0,5328.0,1.0,1.0,-3.0,1.0
2022-05-13 15:10:56.819205-07:00,1031.4,640.0,933.0,894.1,731.5,725.8,1450.6,1059.9,3473.4,3469.8,1005.6,850.3,1375.7,3478.3,1141.0,1049.6,3475.9,3472.2,1172.6,1531.0,2367.2,2638.4,1165.6,3485.6,3483.2,3480.7,647.3,729.9,1455.2,879.7,810.2,723.3,10.0,-7.0,4.0,9120.0,-11725.0,6467.0,-2441.0,0.0,4.0,0.0,0.0,0.0,-11.0,3917.0,-10987.0,-10196.0,5330.0,-2.0,0.0,4.0,1.0
2022-05-13 15:10:56.864361-07:00,1031.4,640.0,933.0,894.1,732.3,717.5,1458.9,1058.2,3473.4,3469.8,1005.6,850.3,1383.0,3464.9,1142.7,1057.3,3467.4,3477.1,1168.2,1536.6,2367.2,2638.4,1165.6,3485.6,3481.9,3483.2,634.3,739.7,1455.2,879.7,810.2,723.3,9.0,-4.0,5.0,9118.0,-11727.0,6468.0,-2440.0,-5.0,2.0,2.0,2.0,2.0,-7.0,3916.0,-10988.0,-10196.0,5330.0,-4.0,1.0,1.0,1.0
2022-05-13 15:10:56.906594-07:00,1030.6,651.4,931.3,883.1,732.3,717.5,1458.9,1058.2,3473.4,3468.6,999.6,847.8,1383.0,3464.9,1142.7,1057.3,3467.4,3477.1,1168.2,1536.6,2366.1,2637.3,1165.6,3489.2,3481.9,3483.2,634.3,739.7,1461.7,887.3,819.4,718.4,5.0,-3.0,-5.0,9120.0,-11725.0,6466.0,-2442.0,11.0,-5.0,-8.0,1.0,5.0,-12.0,3918.0,-10987.0,-10196.0,5331.0,5.0,-9.0,-3.0,1.0
2022-05-13 15:10:56.952183-07:00,1030.6,651.4,931.3,883.1,728.2,722.5,1448.8,1063.4,3473.4,3468.6,999.6,847.8,1383.9,3458.9,1136.6,1054.8,3474.6,3472.2,1171.8,1534.8,2366.1,2637.3,1165.6,3489.2,3467.4,3473.4,631.9,733.2,1461.7,887.3,819.4,718.4,18.0,0.0,-11.0,9124.0,-11726.0,6462.0,-2436.0,-9.0,-33.0,7.0,4.0,11.0,-19.0,3915.0,-10985.0,-10197.0,5334.0,3.0,-11.0,-10.0,1.0
2022-05-13 15:10:56.997261-07:00,1028.0,643.2,926.2,885.6,728.2,722.5,1448.8,1063.4,3467.4,3471.0,1007.3,852.0,1383.9,3458.9,1136.6,1054.8,3474.6,3472.2,1171.8,1534.8,2365.1,2640.6,1169.1,3497.8,3467.4,3473.4,631.9,733.2,1451.6,867.9,812.7,718.4,-10.0,-26.0,-25.0,9136.0,-11729.0,6445.0,-2420.0,73.0,-184.0,-13.0,4.0,-11.0,0.0,3918.0,-10977.0,-10201.0,5341.0,58.0,-11.0,-16.0,1.0
2022-05-13 15:10:57.088275-07:00,1032.3,643.2,926.2,885.6,732.3,716.7,1457.1,1063.4,3462.5,3471.0,1007.3,852.0,1379.4,3473.4,1142.7,1055.6,3475.9,3468.6,1164.7,1532.9,2365.1,2640.6,1169.1,3494.1,3467.4,3479.5,627.8,731.5,1451.6,867.9,812.7,723.3,5.0,13.0,-27.0,9234.0,-11715.0,6359.0,-2343.0,170.0,-449.0,2.0,2.0,12.0,-10.0,3957.0,-10961.0,-10183.0,5378.0,163.0,-16.0,-10.0,1.0
2022-05-13 15:10:57.089962-07:00,1032.3,652.2,925.4,885.6,732.3,716.7,1457.1,1056.5,3462.5,3464.9,1009.0,855.3,1379.4,3473.4,1142.7,1051.3,3469.8,3468.6,1164.7,1532.9,2361.9,2639.5,1168.2,3494.1,3462.5,3479.5,627.8,731.5,1464.4,876.4,811.0,723.3,-6.0,36.0,-41.0,9364.0,-11729.0,6188.0,-2212.0,91.0,-800.0,-241.0,3.0,-14.0,7.0,3989.0,-10941.0,-10177.0,5407.0,67.0,-4.0,-36.0,1.0
2022-05-13 15:10:57.134927-07:00,1033.2,652.2,925.4,885.6,733.2,724.1,1443.3,1056.5,3471.0,3464.9,1009.0,855.3,1378.5,3464.9,1133.1,1051.3,3469.8,3475.9,1166.5,1519.9,2361.9,2639.5,1168.2,3490.5,3462.5,3479.5,630.3,732.3,1464.4,876.4,811.0,723.3,2.0,16.0,-76.0,9511.0,-11838.0,5826.0,-1976.0,64.0,-1370.0,-472.0,0.0,25.0,-28.0,4019.0,-10924.0,-10179.0,5415.0,78.0,20.0,-56.0,1.0
2022-05-13 15:10:57.222248-07:00,1033.2,648.1,923.7,873.8,733.2,724.1,1443.3,1058.2,3471.0,3464.9,1008.2,842.8,1378.5,3464.9,1133.1,1053.9,3479.5,3475.9,1166.5,1519.9,2349.4,2640.6,1171.8,3490.5,3488.0,3479.5,630.3,732.3,1463.5,874.7,813.5,723.3,12.0,40.0,-84.0,9705.0,-11985.0,5287.0,-1632.0,-146.0,-1733.0,-579.0,0.0,21.0,-22.0,4028.0,-10907.0,-10201.0,5403.0,-94.0,2.0,-88.0,1.0
2022-05-13 15:10:57.313228-07:00,1033.2,648.1,923.7,873.8,737.3,725.8,1456.2,1058.2,3473.4,3464.9,1008.2,842.8,1386.6,3478.3,1134.9,1053.9,3479.5,3483.2,1168.2,1531.0,2349.4,2640.6,1171.8,3497.8,3488.0,3472.2,623.8,731.5,1463.5,874.7,813.5,724.9,40.0,9.0,-50.0,9853.0,-12209.0,4583.0,-1143.0,-237.0,-2326.0,-792.0,3.0,-21.0,7.0,3978.0,-10902.0,-10263.0,5331.0,-165.0,7.0,-103.0,1.0
2022-05-13 15:10:57.314505-07:00,1033.2,646.5,927.9,892.4,737.3,725.8,1456.2,1078.2,3473.4,3473.4,1004.8,846.1,1386.6,3478.3,1134.9,1053.0,3474.6,3483.2,1168.2,1531.0,2364.0,2643.9,1160.3,3497.8,3478.3,3472.2,623.8,731.5,1463.5,875.5,821.0,724.9,63.0,27.0,-20.0,10068.0,-12383.0,3660.0,-576.0,20.0,-2393.0,-960.0,2.0,51.0,-33.0,3993.0,-10850.0,-10302.0,5350.0,99.0,-160.0,-162.0,1.0
2022-05-13 15:10:57.358597-07:00,1032.3,643.2,927.9,892.4,738.9,726.6,1500.4,1078.2,3474.6,3468.6,1004.8,846.1,1384.8,3478.3,1138.4,1053.0,3474.6,3463.7,1172.6,1534.8,2364.0,2643.9,1167.4,3499.0,3478.3,3467.4,628.6,737.3,1463.5,875.5,812.7,725.8,55.0,-36.0,1.0,10253.0,-12477.0,2762.0,-97.0,45.0,-1954.0,-812.0,10.0,3.0,-30.0,4038.0,-10741.0,-10358.0,5428.0,206.0,-186.0,-253.0,1.0
2022-05-13 15:10:57.402359-07:00,1032.3,643.2,927.9,884.8,738.9,726.6,1517.1,1080.8,3474.6,3468.6,1005.6,852.8,1384.8,3478.3,1132.2,1061.7,3481.9,3475.9,1172.6,1534.8,2390.3,2638.4,1167.4,3499.0,3472.2,3483.2,628.6,737.3,1455.2,876.4,812.7,725.8,39.0,-4.0,0.0,10395.0,-12502.0,1995.0,323.0,48.0,-1940.0,-693.0,0.0,-10.0,12.0,4081.0,-10630.0,-10417.0,5502.0,155.0,-153.0,-228.0,1.0
2022-05-13 15:10:57.447381-07:00,1015.1,661.9,927.9,884.8,736.5,725.8,1517.1,1080.8,3472.2,3471.0,1005.6,852.8,1383.0,3478.3,1132.2,1061.7,3481.9,3475.9,1169.1,1544.1,2390.3,2638.4,1175.3,3495.3,3472.2,3483.2,632.7,727.4,1455.2,876.4,811.0,728.2,37.0,1.0,-19.0,10466.0,-12521.0,1232.0,779.0,-190.0,-1957.0,-675.0,1.0,-1.0,0.0,4092.0,-10541.0,-10487.0,5533.0,-48.0,-148.0,-226.0,1.0
2022-05-13 15:10:57.492122-07:00,1015.1,661.9,922.8,876.4,736.5,725.8,1506.9,1083.4,3472.2,3471.0,997.9,846.1,1383.0,3478.3,1138.4,1047.8,3464.9,3467.4,1169.1,1544.1,2461.0,2640.6,1175.3,3495.3,3473.4,3488.0,632.7,727.4,1451.6,872.1,811.0,728.2,23.0,-21.0,-11.0,10439.0,-12558.0,482.0,1235.0,-269.0,-1789.0,-594.0,1.0,-9.0,-17.0,4052.0,-10465.0,-10588.0,5514.0,-140.0,-150.0,-251.0,1.0
2022-05-13 15:10:57.539096-07:00,1028.0,657.0,922.8,876.4,734.0,719.2,1506.9,1083.4,3466.1,3463.7,997.9,846.1,1381.2,3464.9,1138.4,1047.8,3464.9,3467.4,1170.9,1559.9,2461.0,2640.6,1172.6,3491.7,3473.4,3488.0,636.7,725.8,1451.6,872.1,815.2,735.6,-3.0,9.0,-143.0,10368.0,-12569.0,-260.0,1700.0,-464.0,-2337.0,-652.0,-22.0,21.0,0.0,3996.0,-10388.0,-10707.0,5469.0,-357.0,-146.0,-291.0,1.0
2022-05-13 15:10:57.674360-07:00,1028.0,657.0,932.2,887.3,734.0,721.6,1503.2,1083.4,3466.1,3463.7,991.9,837.7,1381.2,3469.8,1132.2,1047.8,3472.2,3478.3,1184.1,1559.9,2549.7,2641.7,1172.6,3491.7,3474.6,3467.4,639.2,725.8,1463.5,878.0,815.2,735.6,32.0,-20.0,-12.0,10128.0,-12600.0,-1219.0,2371.0,-940.0,-2601.0,-562.0,21.0,47.0,-54.0,3847.0,-10324.0,-10893.0,5329.0,-603.0,-201.0,-373.0,1.0
2022-05-13 15:10:57.675549-07:00,1033.2,650.5,928.8,887.3,738.9,721.6,1503.2,1083.4,3469.8,3471.0,991.0,837.7,1382.1,3469.8,1132.2,1047.8,3472.2,3478.3,1184.1,1559.0,2549.7,2671.1,1185.9,3492.9,3474.6,3467.4,639.2,720.8,1463.5,873.0,816.9,730.7,36.0,-131.0,76.0,9798.0,-12628.0,-2011.0,2990.0,-339.0,-1812.0,-173.0,-3.0,-30.0,-21.0,3663.0,-10252.0,-11092.0,5185.0,-523.0,-247.0,-285.0,1.0
2022-05-13 15:10:57.717369-07:00,1033.2,650.5,928.8,883.9,738.9,722.5,1489.3,1076.4,3469.8,3471.0,991.0,842.8,1382.1,3468.6,1125.2,1059.9,3475.9,3485.6,1181.5,1559.0,2654.7,2671.1,1185.9,3492.9,3477.1,3480.7,633.5,720.8,1458.9,873.0,816.9,730.7,51.0,-10.0,82.0,9649.0,-12544.0,-2442.0,3466.0,-175.0,-1104.0,3.0,8.0,-12.0,-1.0,3520.0,-10190.0,-11226.0,5116.0,-370.0,-234.0,-179.0,1.0
2022-05-13 15:10:57.762238-07:00,1019.4,650.5,928.8,883.9,738.1,722.5,1489.3,1076.4,3478.3,3471.0,988.5,842.8,1382.1,3468.6,1125.2,1059.9,3475.9,3485.6,1181.5,1573.9,2654.7,2684.3,1183.2,3500.2,3477.1,3480.7,633.5,712.6,1458.9,877.2,814.4,724.1,56.0,6.0,73.0,9525.0,-12505.0,-2683.0,3760.0,-130.0,-630.0,29.0,15.0,-12.0,13.0,3404.0,-10145.0,-11325.0,5066.0,-250.0,-170.0,-127.0,1.0
2022-05-13 15:10:57.807191-07:00,1019.4,650.5,928.8,879.7,738.1,715.9,1533.8,1080.8,3478.3,3471.0,988.5,835.2,1382.1,3471.0,1121.7,1055.6,3488.0,3467.4,1178.8,1573.9,2663.5,2684.3,1183.2,3500.2,3484.4,3474.6,640.0,712.6,1460.8,877.2,814.4,724.1,26.0,5.0,58.0,9475.0,-12483.0,-2769.0,3893.0,0.0,-53.0,73.0,-6.0,0.0,25.0,3350.0,-10117.0,-11372.0,5053.0,-98.0,-74.0,-44.0,1.0
2022-05-13 15:10:57.852409-07:00,1034.0,658.7,927.1,889.0,729.0,715.9,1533.8,1080.8,3469.8,3463.7,984.2,839.4,1379.4,3471.0,1121.7,1055.6,3488.0,3467.4,1178.8,1570.2,2642.8,2681.0,1176.2,3495.3,3484.4,3474.6,640.0,719.2,1458.0,878.9,815.2,723.3,-10.0,19.0,-52.0,9473.0,-12470.0,-2783.0,3931.0,-62.0,-283.0,-79.0,1.0,-17.0,-6.0,3327.0,-10108.0,-11391.0,5044.0,-76.0,-29.0,-50.0,1.0
2022-05-13 15:10:57.897632-07:00,1034.0,658.7,927.1,889.0,737.3,720.0,1505.1,1079.0,3469.8,3463.7,984.2,839.4,1386.6,3475.9,1136.6,1057.3,3473.4,3477.1,1181.5,1573.0,2642.8,2681.0,1176.2,3495.3,3478.3,3467.4,627.0,714.2,1458.0,878.9,815.2,723.3,-15.0,-12.0,1.0,9417.0,-12458.0,-2906.0,4014.0,-100.0,-310.0,-29.0,3.0,17.0,-19.0,3299.0,-10095.0,-11421.0,5019.0,-133.0,-45.0,-58.0,1.0
2022-05-13 15:10:57.987344-07:00,1029.7,652.2,934.7,887.3,737.3,720.0,1505.1,1079.0,3466.1,3473.4,979.0,836.9,1386.6,3475.9,1136.6,1057.3,3473.4,3477.1,1181.5,1573.0,2651.5,2688.6,1178.8,3497.8,3478.3,3467.4,627.0,714.2,1459.8,871.3,810.2,724.9,-5.0,-3.0,1.0,9367.0,-12455.0,-2983.0,4083.0,-34.0,-171.0,-8.0,2.0,2.0,-7.0,3257.0,-10083.0,-11457.0,4989.0,-80.0,-40.0,-43.0,1.0
2022-05-13 15:10:58.034809-07:00,1029.7,652.2,934.7,887.3,730.7,715.9,1494.9,1077.3,3466.1,3473.4,979.0,836.9,1383.0,3468.6,1132.2,1050.4,3475.9,3475.9,1171.8,1583.3,2651.5,2688.6,1178.8,3497.8,3483.2,3478.3,628.6,708.5,1459.8,871.3,810.2,724.9,2.0,-1.0,10.0,9342.0,-12448.0,-3026.0,4130.0,-32.0,-102.0,-16.0,2.0,-7.0,-7.0,3229.0,-10074.0,-11482.0,4970.0,-43.0,-26.0,-31.0,1.0
2022-05-13 15:10:58.123681-07:00,1028.0,653.8,935.6,880.6,730.7,715.9,1494.9,1077.3,3468.6,3477.1,982.5,839.4,1383.0,3468.6,1132.2,1050.4,3475.9,3475.9,1171.8,1583.3,2649.3,2683.2,1172.6,3491.7,3483.2,3478.3,628.6,708.5,1460.8,864.6,819.4,724.9,-1.0,7.0,-1.0,9338.0,-12441.0,-3049.0,4140.0,6.0,-28.0,-50.0,-1.0,0.0,-5.0,3222.0,-10066.0,-11492.0,4967.0,12.0,-6.0,-18.0,1.0
2022-05-13 15:10:58.124961-07:00,1028.0,653.8,935.6,880.6,732.3,712.6,1495.8,1066.9,3468.6,3477.1,982.5,839.4,1383.0,3468.6,1138.4,1053.9,3478.3,3478.3,1170.9,1576.8,2649.3,2683.2,1172.6,3491.7,3483.2,3480.7,632.7,706.9,1460.8,864.6,819.4,724.9,-2.0,-14.0,-3.0,9342.0,-12434.0,-3070.0,4139.0,28.0,-12.0,-27.0,2.0,-7.0,-10.0,3226.0,-10061.0,-11495.0,4967.0,23.0,7.0,-4.0,1.0
2022-05-13 15:10:58.167193-07:00,1029.7,653.0,933.0,878.9,732.3,712.6,1495.8,1082.5,3475.9,3477.1,980.7,836.9,1383.0,3468.6,1138.4,1052.2,3469.8,3478.3,1170.9,1576.8,2635.1,2689.7,1173.5,3486.8,3479.5,3480.7,632.7,706.9,1459.8,877.2,814.4,720.0,-14.0,5.0,-12.0,9349.0,-12427.0,-3072.0,4143.0,-13.0,-30.0,-11.0,-1.0,2.0,-13.0,3230.0,-10059.0,-11493.0,4972.0,-11.0,-4.0,-5.0,1.0
2022-05-13 15:10:58.212980-07:00,1030.6,653.0,933.0,878.9,743.0,708.5,1506.0,1082.5,3467.4,3477.1,980.7,836.9,1377.5,3472.2,1137.5,1052.2,3469.8,3473.4,1169.1,1573.0,2635.1,2689.7,1173.5,3505.1,3479.5,3472.2,630.3,719.2,1459.8,877.2,814.4,732.3,-11.0,2.0,-13.0,9337.0,-12426.0,-3092.0,4158.0,-31.0,-79.0,-8.0,2.0,3.0,-11.0,3227.0,-10058.0,-11498.0,4966.0,-33.0,-7.0,-17.0,1.0
2022-05-13 15:10:58.257234-07:00,1030.6,650.5,934.7,889.8,743.0,708.5,1506.0,1075.6,3467.4,3483.2,985.9,838.6,1377.5,3472.2,1137.5,1056.5,3474.6,3473.4,1169.1,1573.0,2619.9,2682.1,1175.3,3505.1,3480.7,3472.2,630.3,719.2,1455.2,878.9,814.4,732.3,0.0,0.0,10.0,9322.0,-12428.0,-3109.0,4175.0,-15.0,-5.0,-4.0,-1.0,0.0,-8.0,3219.0,-10058.0,-11506.0,4954.0,-12.0,-1.0,-3.0,1.0
2022-05-13 15:10:58.302113-07:00,1027.1,650.5,934.7,889.8,732.3,715.1,1498.6,1075.6,3467.4,3483.2,985.9,838.6,1383.0,3475.9,1124.4,1056.5,3474.6,3478.3,1170.9,1572.1,2619.9,2682.1,1175.3,3491.7,3480.7,3474.6,634.3,716.7,1455.2,878.9,814.4,725.8,-2.0,12.0,-15.0,9322.0,-12428.0,-3112.0,4169.0,-12.0,-9.0,-33.0,2.0,-3.0,-5.0,3218.0,-10058.0,-11506.0,4953.0,8.0,8.0,-7.0,1.0
2022-05-13 15:10:58.347270-07:00,1027.1,652.2,939.8,887.3,732.3,715.1,1498.6,1106.0,3467.4,3469.8,983.3,838.6,1383.0,3475.9,1124.4,1053.0,3478.3,3478.3,1170.9,1572.1,2633.0,2687.5,1177.0,3491.7,3472.2,3474.6,634.3,716.7,1476.4,873.8,806.0,725.8,-11.0,-5.0,-6.0,9323.0,-12427.0,-3125.0,4162.0,-2.0,-1.0,-26.0,-1.0,1.0,-10.0,3220.0,-10057.0,-11505.0,4955.0,5.0,9.0,-3.0,1.0
2022-05-13 15:10:58.438084-07:00,1028.0,655.4,939.8,887.3,738.1,711.0,1489.3,1106.0,3478.3,3473.4,983.3,838.6,1382.1,3464.9,1133.1,1053.0,3478.3,3467.4,1165.6,1573.0,2633.0,2687.5,1177.0,3496.6,3472.2,3473.4,627.8,712.6,1476.4,873.8,815.2,727.4,-5.0,4.0,6.0,9324.0,-12425.0,-3136.0,4160.0,-6.0,-10.0,-26.0,2.0,10.0,-9.0,3220.0,-10057.0,-11505.0,4955.0,13.0,-1.0,-5.0,1.0
2022-05-13 15:10:58.439892-07:00,1028.0,655.4,938.1,878.0,738.1,711.0,1499.5,1073.8,3478.3,3473.4,982.5,852.0,1382.1,3464.9,1128.7,1056.5,3478.3,3478.3,1165.6,1573.0,2614.5,2688.6,1177.0,3496.6,3473.4,3483.2,627.8,712.6,1463.5,871.3,815.2,727.4,26.0,14.0,63.0,9333.0,-12429.0,-3125.0,4133.0,36.0,256.0,-30.0,5.0,9.0,-3.0,3237.0,-10057.0,-11494.0,4969.0,103.0,26.0,26.0,1.0
2022-05-13 15:10:58.484029-07:00,1034.9,651.4,938.1,878.0,734.8,713.4,1499.5,1073.8,3471.0,3473.4,982.5,852.0,1383.9,3460.1,1128.7,1056.5,3478.3,3478.3,1164.7,1570.2,2614.5,2688.6,1182.3,3495.3,3473.4,3483.2,627.0,697.0,1463.5,871.3,811.9,718.4,4.0,-17.0,-32.0,9391.0,-12454.0,-3022.0,4001.0,143.0,473.0,-64.0,-10.0,-45.0,-1.0,3275.0,-10068.0,-11464.0,4991.0,113.0,71.0,54.0,1.0
2022-05-13 15:10:58.573724-07:00,1034.9,651.4,932.2,884.8,734.8,713.4,1492.1,1079.9,3471.0,3473.4,979.0,837.7,1383.9,3460.1,1129.6,1051.3,3469.8,3471.0,1164.7,1570.2,2615.6,2672.2,1182.3,3495.3,3467.4,3471.0,627.0,697.0,1458.9,867.9,811.9,718.4,-55.0,-8.0,-71.0,9475.0,-12433.0,-2982.0,3897.0,-30.0,-54.0,-83.0,4.0,47.0,-30.0,3335.0,-10080.0,-11425.0,5018.0,84.0,59.0,20.0,1.0
2022-05-13 15:10:58.618431-07:00,1033.2,648.1,932.2,884.8,734.8,717.5,1492.1,1079.9,3464.9,3472.2,979.0,837.7,1381.2,3467.4,1129.6,1051.3,3469.8,3471.0,1155.9,1571.1,2615.6,2672.2,1176.2,3489.2,3467.4,3471.0,631.9,702.8,1458.9,867.9,812.7,725.8,-9.0,-30.0,6.0,9429.0,-12460.0,-2983.0,3922.0,-107.0,30.0,225.0,0.0,4.0,-16.0,3293.0,-10094.0,-11443.0,4977.0,-227.0,-36.0,20.0,1.0
2022-05-13 15:10:58.662235-07:00,1033.2,648.1,942.4,887.3,734.8,706.9,1494.0,1063.4,3464.9,3472.2,984.2,834.4,1381.2,3469.8,1127.0,1050.4,3469.8,3472.2,1162.1,1571.1,2611.3,2675.5,1176.2,3489.2,3483.2,3477.1,626.2,702.8,1455.2,873.0,812.7,725.8,26.0,30.0,36.0,9377.0,-12510.0,-2903.0,3947.0,-121.0,134.0,185.0,8.0,6.0,9.0,3221.0,-10119.0,-11465.0,4920.0,-177.0,-5.0,37.0,1.0
2022-05-13 15:10:58.753216-07:00,1034.0,648.9,943.2,887.3,735.6,706.9,1494.0,1063.4,3472.2,3474.6,973.1,834.4,1390.3,3469.8,1127.0,1050.4,3469.8,3472.2,1162.1,1572.1,2611.3,2690.8,1176.2,3481.9,3483.2,3477.1,626.2,706.0,1455.2,873.0,806.0,728.2,2.0,-3.0,-2.0,9358.0,-12558.0,-2811.0,3906.0,95.0,257.0,27.0,-3.0,-19.0,-7.0,3206.0,-10144.0,-11456.0,4900.0,71.0,49.0,63.0,1.0
2022-05-13 15:10:58.754518-07:00,1034.0,648.9,943.2,889.0,735.6,707.7,1495.8,1076.4,3472.2,3474.6,973.1,836.1,1390.3,3463.7,1130.5,1052.2,3483.2,3468.6,1165.6,1572.1,2596.1,2690.8,1176.2,3481.9,3471.0,3475.9,630.3,706.0,1461.7,873.0,806.0,728.2,-49.0,3.0,-57.0,9400.0,-12550.0,-2774.0,3857.0,-34.0,-30.0,-36.0,0.0,15.0,-37.0,3225.0,-10155.0,-11439.0,4904.0,-7.0,18.0,8.0,1.0
2022-05-13 15:10:58.797968-07:00,1024.5,648.1,942.4,889.0,748.8,707.7,1495.8,1076.4,3467.4,3472.2,981.6,836.1,1382.1,3463.7,1130.5,1052.2,3483.2,3468.6,1165.6,1564.6,2596.1,2686.4,1168.2,3490.5,3471.0,3475.9,630.3,689.7,1461.7,875.5,801.0,725.8,-22.0,10.0,-10.0,9384.0,-12553.0,-2793.0,3874.0,-18.0,-45.0,44.0,-2.0,24.0,-19.0,3211.0,-10156.0,-11445.0,4899.0,-30.0,-28.0,-6.0,1.0
2022-05-13 15:10:58.842084-07:00,1024.5,648.1,942.4,885.6,748.8,707.7,1498.6,1074.7,3467.4,3472.2,981.6,834.4,1382.1,3468.6,1125.2,1056.5,3473.4,3474.6,1148.0,1564.6,2570.2,2686.4,1168.2,3490.5,3478.3,3477.1,626.2,689.7,1453.4,875.5,801.0,725.8,-12.0,19.0,-15.0,9373.0,-12555.0,-2794.0,3892.0,3.0,-63.0,-14.0,2.0,1.0,-10.0,3196.0,-10150.0,-11456.0,4894.0,2.0,-25.0,-32.0,1.0
2022-05-13 15:10:58.888967-07:00,1026.3,658.7,939.8,885.6,732.3,707.7,1498.6,1074.7,3469.8,3462.5,976.5,834.4,1374.8,3468.6,1125.2,1056.5,3473.4,3474.6,1148.0,1557.1,2570.2,2652.6,1170.9,3485.6,3478.3,3477.1,626.2,701.9,1453.4,871.3,806.0,724.9,7.0,-3.0,12.0,9371.0,-12545.0,-2826.0,3907.0,21.0,-44.0,-65.0,5.0,2.0,-5.0,3205.0,-10133.0,-11463.0,4909.0,62.0,-18.0,-29.0,1.0
2022-05-13 15:10:58.934545-07:00,1026.3,658.7,939.8,889.8,736.5,705.2,1491.2,1068.6,3469.8,3462.5,976.5,836.9,1380.3,3477.1,1126.1,1053.9,3471.0,3478.3,1153.3,1556.2,2578.8,2652.6,1170.9,3485.6,3473.4,3467.4,629.5,699.5,1456.2,871.3,806.0,724.9,0.0,-2.0,-18.0,9382.0,-12535.0,-2842.0,3900.0,2.0,-20.0,-25.0,0.0,-10.0,0.0,3211.0,-10125.0,-11465.0,4915.0,7.0,-7.0,-14.0,1.0
2022-05-13 15:10:58.979092-07:00,1028.0,641.6,941.5,882.3,736.5,705.2,1491.2,1068.6,3460.1,3467.4,973.1,831.1,1380.3,3477.1,1126.1,1053.9,3471.0,3478.3,1153.3,1556.2,2587.4,2674.4,1177.9,3491.7,3473.4,3467.4,629.5,699.5,1458.0,869.6,811.9,732.3,-8.0,-11.0,-8.0,9376.0,-12530.0,-2864.0,3914.0,-16.0,-85.0,7.0,2.0,7.0,-9.0,3207.0,-10124.0,-11468.0,4914.0,-35.0,-22.0,-5.0,1.0
2022-05-13 15:10:59.024209-07:00,1028.0,641.6,941.5,882.3,735.6,711.8,1484.7,1070.3,3460.1,3467.4,973.1,831.1,1382.1,3469.8,1128.7,1054.8,3479.5,3466.1,1150.6,1562.7,2587.4,2674.4,1177.9,3491.7,3480.7,3472.2,633.5,695.4,1458.0,869.6,811.9,732.3,-3.0,0.0,2.0,9361.0,-12529.0,-2875.0,3944.0,-16.0,-49.0,41.0,-2.0,2.0,-7.0,3185.0,-10126.0,-11477.0,4903.0,-54.0,-22.0,5.0,1.0
2022-05-13 15:10:59.112154-07:00,1023.7,643.2,948.3,876.4,735.6,711.8,1484.7,1070.3,3472.2,3472.2,979.9,838.6,1382.1,3469.8,1128.7,1054.8,3479.5,3466.1,1150.6,1562.7,2577.7,2673.3,1175.3,3491.7,3480.7,3472.2,633.5,695.4,1459.8,870.5,807.7,724.9,-9.0,12.0,-2.0,9353.0,-12529.0,-2875.0,3967.0,2.0,-39.0,18.0,4.0,7.0,-9.0,3174.0,-10128.0,-11481.0,4896.0,-23.0,-6.0,2.0,1.0
2022-05-13 15:10:59.157273-07:00,1023.7,643.2,948.3,876.4,729.9,703.6,1488.4,1064.3,3472.2,3472.2,979.9,838.6,1373.9,3460.1,1124.4,1051.3,3472.2,3477.1,1149.8,1559.0,2577.7,2673.3,1175.3,3491.7,3478.3,3478.3,629.5,702.8,1459.8,870.5,807.7,724.9,-5.0,0.0,-10.0,9343.0,-12531.0,-2875.0,3981.0,-1.0,-11.0,20.0,0.0,-3.0,-14.0,3164.0,-10129.0,-11486.0,4888.0,-2.0,-7.0,-1.0,1.0
2022-05-13 15:10:59.202178-07:00,1029.7,649.7,958.5,884.8,729.9,703.6,1488.4,1060.8,3473.4,3467.4,975.6,836.9,1373.9,3460.1,1124.4,1054.8,3471.0,3477.1,1149.8,1559.0,2582.0,2678.8,1173.5,3491.7,3475.9,3478.3,629.5,702.8,1458.0,878.9,812.7,711.8,-1.0,1.0,-5.0,9343.0,-12529.0,-2878.0,3988.0,11.0,-27.0,-16.0,2.0,1.0,-4.0,3166.0,-10129.0,-11485.0,4890.0,14.0,0.0,0.0,1.0
2022-05-13 15:10:59.247248-07:00,1030.6,649.7,958.5,884.8,742.2,706.0,1483.8,1060.8,3468.6,3467.4,975.6,836.9,1378.5,3472.2,1133.1,1054.8,3471.0,3473.4,1152.4,1549.7,2582.0,2678.8,1173.5,3497.8,3475.9,3471.0,627.0,697.0,1458.0,878.9,812.7,724.1,-6.0,-1.0,2.0,9343.0,-12523.0,-2891.0,3994.0,-6.0,-20.0,-9.0,-2.0,14.0,-9.0,3165.0,-10129.0,-11485.0,4890.0,-9.0,-4.0,-4.0,1.0
2022-05-13 15:10:59.292181-07:00,1030.6,648.1,947.5,880.6,742.2,706.0,1483.8,1072.1,3468.6,3475.9,977.3,824.4,1378.5,3472.2,1133.1,1053.9,3479.5,3473.4,1152.4,1549.7,2563.7,2672.2,1174.4,3497.8,3480.7,3471.0,627.0,697.0,1464.4,871.3,809.4,724.1,-7.0,-6.0,-11.0,9342.0,-12524.0,-2891.0,3993.0,22.0,-5.0,-4.0,-4.0,-9.0,-11.0,3164.0,-10129.0,-11486.0,4889.0,13.0,0.0,4.0,1.0
2022-05-13 15:10:59.337919-07:00,1019.4,648.1,947.5,880.6,747.2,711.0,1485.6,1072.1,3473.4,3475.9,977.3,824.4,1383.0,3474.6,1127.0,1053.9,3479.5,3475.9,1148.9,1565.5,2563.7,2672.2,1174.4,3495.3,3480.7,3478.3,629.5,697.9,1464.4,871.3,809.4,724.9,-4.0,0.0,-2.0,9344.0,-12521.0,-2899.0,3994.0,19.0,2.0,-28.0,3.0,1.0,-8.0,3170.0,-10127.0,-11483.0,4895.0,47.0,3.0,1.0,1.0
2022-05-13 15:10:59.382135-07:00,1019.4,644.9,950.9,879.7,747.2,711.0,1485.6,1059.1,3473.4,3471.0,974.8,829.4,1383.0,3474.6,1127.0,1053.0,3473.4,3475.9,1148.9,1565.5,2581.0,2661.3,1177.0,3495.3,3467.4,3478.3,629.5,697.9,1456.2,878.0,806.9,724.9,-13.0,3.0,-22.0,9359.0,-12511.0,-2905.0,3985.0,17.0,-16.0,-39.0,-4.0,6.0,-7.0,3183.0,-10123.0,-11478.0,4908.0,16.0,5.0,-11.0,1.0
2022-05-13 15:10:59.473277-07:00,1027.1,647.3,950.9,879.7,736.5,706.0,1489.3,1059.1,3468.6,3473.4,974.8,829.4,1382.1,3468.6,1124.4,1053.0,3473.4,3467.4,1148.9,1558.1,2581.0,2661.3,1185.9,3490.5,3467.4,3471.0,632.7,696.2,1456.2,878.0,811.0,724.1,-9.0,-7.0,-6.0,9345.0,-12508.0,-2934.0,4004.0,-34.0,-132.0,-5.0,1.0,6.0,-21.0,3177.0,-10119.0,-11485.0,4903.0,-32.0,-19.0,-17.0,1.0
2022-05-13 15:10:59.519603-07:00,1027.1,647.3,944.1,891.5,736.5,706.0,1482.9,1071.2,3468.6,3473.4,978.2,837.7,1382.1,3468.6,1127.0,1048.7,3488.0,3467.4,1148.9,1558.1,2576.6,2674.4,1185.9,3490.5,3479.5,3474.6,632.7,696.2,1461.7,876.4,811.0,724.1,7.0,4.0,14.0,9328.0,-12507.0,-2951.0,4035.0,2.0,5.0,30.0,0.0,-1.0,0.0,3162.0,-10117.0,-11494.0,4896.0,-23.0,-13.0,-2.0,1.0
2022-05-13 15:10:59.563643-07:00,1022.8,647.3,944.1,891.5,731.5,706.0,1482.9,1071.2,3468.6,3469.8,978.2,837.7,1383.0,3471.0,1127.0,1048.7,3488.0,3467.4,1147.1,1557.1,2576.6,2674.4,1175.3,3497.8,3479.5,3474.6,627.0,697.0,1461.7,876.4,811.9,732.3,0.0,3.0,-17.0,9329.0,-12508.0,-2947.0,4033.0,11.0,-27.0,-32.0,3.0,-8.0,-7.0,3163.0,-10117.0,-11493.0,4898.0,28.0,7.0,-3.0,1.0
2022-05-13 15:10:59.607162-07:00,1022.8,647.3,954.3,880.6,731.5,706.0,1481.9,1070.3,3468.6,3469.8,981.6,852.0,1383.0,3471.0,1126.1,1049.6,3478.3,3480.7,1147.1,1557.1,2564.8,2668.9,1175.3,3497.8,3475.9,3475.9,627.0,697.0,1458.0,870.5,811.9,732.3,-4.0,-11.0,0.0,9331.0,-12503.0,-2961.0,4036.0,-9.0,13.0,26.0,1.0,11.0,-8.0,3165.0,-10117.0,-11493.0,4898.0,-26.0,-6.0,6.0,1.0
2022-05-13 15:10:59.652926-07:00,1026.3,649.7,954.3,880.6,739.7,704.4,1481.9,1070.3,3468.6,3466.1,981.6,852.0,1381.2,3469.8,1126.1,1049.6,3478.3,3480.7,1141.0,1567.4,2564.8,2668.9,1170.9,3489.2,3475.9,3475.9,625.4,697.0,1458.0,870.5,804.4,717.5,-6.0,3.0,-13.0,9327.0,-12506.0,-2949.0,4041.0,1.0,-24.0,4.0,0.0,-3.0,-7.0,3159.0,-10119.0,-11495.0,4893.0,-1.0,-1.0,7.0,1.0
2022-05-13 15:10:59.697153-07:00,1026.3,649.7,946.6,883.9,739.7,704.4,1484.7,1057.3,3468.6,3466.1,980.7,831.9,1381.2,3469.8,1124.4,1054.8,3478.3,3478.3,1141.0,1567.4,2581.0,2674.4,1170.9,3489.2,3466.1,3480.7,625.4,697.0,1458.9,867.9,804.4,717.5,-6.0,1.0,-1.0,9324.0,-12504.0,-2955.0,4053.0,-12.0,-30.0,11.0,-1.0,2.0,-9.0,3157.0,-10120.0,-11496.0,4890.0,-17.0,-6.0,-2.0,1.0
2022-05-13 15:10:59.788285-07:00,1021.1,651.4,953.4,883.9,733.2,705.2,1484.7,1057.3,3475.9,3469.8,973.9,831.9,1382.1,3468.6,1124.4,1054.8,3478.3,3478.3,1138.4,1559.0,2581.0,2676.6,1180.6,3486.8,3466.1,3480.7,628.6,695.4,1458.9,873.0,818.5,713.4,-4.0,16.0,-10.0,9325.0,-12500.0,-2958.0,4060.0,11.0,-10.0,-13.0,2.0,9.0,-5.0,3159.0,-10119.0,-11495.0,4892.0,12.0,2.0,-2.0,1.0
2022-05-13 15:10:59.790034-07:00,1021.1,651.4,953.4,881.4,733.2,709.3,1481.9,1064.3,3475.9,3469.8,973.9,838.6,1382.1,3462.5,1128.7,1054.8,3473.4,3473.4,1141.0,1559.0,2570.2,2676.6,1180.6,3486.8,3478.3,3474.6,628.6,695.4,1460.8,873.0,818.5,713.4,-12.0,-1.0,-15.0,9324.0,-12497.0,-2968.0,4062.0,14.0,-44.0,-25.0,1.0,2.0,-17.0,3160.0,-10119.0,-11494.0,4893.0,25.0,-2.0,-11.0,1.0
2022-05-13 15:10:59.832530-07:00,1024.5,654.6,950.0,881.4,734.8,709.3,1481.9,1064.3,3477.1,3472.2,976.5,838.6,1381.2,3462.5,1128.7,1054.8,3473.4,3473.4,1141.0,1561.8,2570.2,2659.1,1172.6,3502.7,3478.3,3474.6,628.6,691.3,1460.8,869.6,811.9,725.8,0.0,-2.0,1.0,9323.0,-12494.0,-2977.0,4071.0,0.0,-8.0,24.0,-1.0,4.0,-5.0,3162.0,-10117.0,-11495.0,4894.0,-14.0,-5.0,-5.0,1.0
2022-05-13 15:10:59.879024-07:00,1024.5,654.6,950.0,879.7,734.8,703.6,1485.6,1064.3,3477.1,3472.2,976.5,841.9,1381.2,3466.1,1124.4,1053.0,3483.2,3475.9,1143.6,1561.8,2574.5,2659.1,1172.6,3502.7,3479.5,3468.6,624.6,691.3,1455.2,869.6,811.9,725.8,8.0,-8.0,18.0,9320.0,-12499.0,-2965.0,4070.0,9.0,70.0,36.0,-4.0,-6.0,0.0,3160.0,-10119.0,-11495.0,4892.0,2.0,12.0,18.0,1.0
2022-05-13 15:10:59.924013-07:00,1028.8,644.0,953.4,879.7,734.8,703.6,1485.6,1064.3,3469.8,3462.5,981.6,841.9,1383.9,3466.1,1124.4,1053.0,3483.2,3475.9,1143.6,1558.1,2574.5,2676.6,1170.9,3492.9,3479.5,3468.6,624.6,692.1,1455.2,876.4,807.7,727.4,17.0,-23.0,43.0,9338.0,-12508.0,-2908.0,4040.0,43.0,297.0,140.0,0.0,-2.0,-3.0,3162.0,-10131.0,-11482.0,4895.0,35.0,21.0,77.0,1.0
2022-05-13 15:11:00.012134-07:00,1028.8,644.0,953.4,890.7,731.5,707.7,1491.2,1055.6,3469.8,3462.5,981.6,833.6,1380.3,3464.9,1118.2,1054.8,3475.9,3477.1,1146.3,1556.2,2566.9,2676.6,1170.9,3492.9,3467.4,3467.4,626.2,697.9,1458.9,876.4,807.7,727.4,58.0,-51.0,73.0,9362.0,-12574.0,-2694.0,3929.0,25.0,994.0,459.0,7.0,-35.0,16.0,3161.0,-10167.0,-11447.0,4903.0,24.0,42.0,180.0,1.0
2022-05-13 15:11:00.103042-07:00,1028.8,646.5,948.3,883.9,731.5,707.7,1491.2,1055.6,3472.2,3466.1,976.5,832.7,1380.3,3464.9,1118.2,1054.8,3475.9,3477.1,1146.3,1556.2,2568.0,2695.2,1170.9,3502.7,3467.4,3467.4,626.2,697.9,1458.9,878.9,810.2,720.8,58.0,2.0,118.0,9480.0,-12671.0,-2210.0,3624.0,541.0,1813.0,284.0,11.0,-47.0,-27.0,3228.0,-10225.0,-11340.0,4986.0,808.0,148.0,270.0,1.0
2022-05-13 15:11:00.105886-07:00,1028.8,646.5,948.3,883.9,738.1,710.1,1478.3,1064.3,3472.2,3466.1,976.5,832.7,1373.9,3462.5,1140.1,1056.5,3479.5,3474.6,1161.2,1552.5,2568.0,2695.2,1170.9,3502.7,3479.5,3488.0,623.8,697.9,1458.9,878.9,810.2,720.8,-30.0,-30.0,-70.0,9832.0,-12646.0,-1503.0,3095.0,1008.0,2076.0,586.0,-16.0,25.0,-37.0,3481.0,-10232.0,-11135.0,5257.0,1003.0,66.0,215.0,1.0
2022-05-13 15:11:00.148716-07:00,1026.3,649.7,945.8,875.5,738.1,710.1,1478.3,1064.3,3467.4,3472.2,974.8,836.1,1373.9,3462.5,1140.1,1056.5,3479.5,3474.6,1161.2,1552.5,2572.3,2661.3,1173.5,3496.6,3479.5,3488.0,623.8,697.9,1457.1,879.7,811.0,727.4,52.0,49.0,45.0,10151.0,-12580.0,-656.0,2590.0,722.0,2288.0,729.0,2.0,74.0,-21.0,3726.0,-10195.0,-10947.0,5547.0,844.0,19.0,137.0,1.0
2022-05-13 15:11:00.192234-07:00,1026.3,649.7,945.8,875.5,734.0,711.8,1462.6,1059.1,3467.4,3472.2,974.8,836.1,1384.8,3464.9,1130.5,1053.0,3464.9,3479.5,1161.2,1555.3,2572.3,2661.3,1173.5,3496.6,3463.7,3474.6,632.7,701.9,1457.1,879.7,811.0,727.4,67.0,-11.0,4.0,10335.0,-12545.0,269.0,2043.0,589.0,2131.0,750.0,8.0,-28.0,17.0,3860.0,-10191.0,-10833.0,5687.0,488.0,99.0,129.0,1.0
2022-05-13 15:11:00.237190-07:00,1048.7,633.5,934.7,887.3,734.0,711.8,1462.6,1055.6,3475.9,3468.6,982.5,843.6,1384.8,3464.9,1130.5,1052.2,3474.6,3479.5,1161.2,1555.3,2588.5,2660.2,1175.3,3491.7,3468.6,3474.6,632.7,701.9,1458.9,879.7,809.4,715.1,120.0,-32.0,-28.0,10393.0,-12524.0,1127.0,1513.0,212.0,2403.0,768.0,12.0,-109.0,70.0,3934.0,-10219.0,-10746.0,5748.0,25.0,119.0,155.0,1.0
2022-05-13 15:11:00.328485-07:00,1033.2,633.5,934.7,887.3,732.3,720.8,1461.7,1055.6,3467.4,3468.6,982.5,843.6,1387.5,3463.7,1133.1,1052.2,3474.6,3480.7,1171.8,1561.8,2588.5,2660.2,1175.3,3489.2,3468.6,3467.4,640.8,720.8,1458.9,879.7,809.4,722.5,36.0,4.0,-19.0,10436.0,-12435.0,1985.0,979.0,1039.0,1822.0,644.0,12.0,11.0,3.0,4069.0,-10270.0,-10601.0,5832.0,845.0,243.0,268.0,1.0
2022-05-13 15:11:00.330602-07:00,1033.2,644.0,927.1,873.8,732.3,720.8,1461.7,1064.3,3467.4,3464.9,986.7,841.9,1387.5,3463.7,1133.1,1054.8,3471.0,3480.7,1171.8,1561.8,2556.2,2676.6,1170.9,3489.2,3475.9,3467.4,640.8,720.8,1448.8,867.9,811.0,722.5,46.0,10.0,-109.0,10571.0,-12210.0,2712.0,482.0,186.0,2090.0,612.0,-20.0,-81.0,41.0,4206.0,-10308.0,-10455.0,5933.0,-102.0,150.0,154.0,1.0
2022-05-13 15:11:00.374054-07:00,1024.5,644.0,927.1,873.8,732.3,729.0,1460.8,1064.3,3467.4,3464.9,986.7,841.9,1380.3,3475.9,1134.9,1054.8,3471.0,3471.0,1182.3,1557.1,2556.2,2676.6,1170.9,3499.0,3475.9,3472.2,637.6,729.9,1448.8,867.9,811.0,726.6,-12.0,-89.0,-10.0,10521.0,-12096.0,3378.0,126.0,564.0,1066.0,779.0,4.0,6.0,-48.0,4263.0,-10381.0,-10361.0,5928.0,522.0,225.0,239.0,1.0
2022-05-13 15:11:00.419343-07:00,1024.5,646.5,931.3,878.0,732.3,729.0,1460.8,1066.9,3467.4,3473.4,992.7,836.9,1380.3,3475.9,1134.9,1062.5,3480.7,3471.0,1182.3,1557.1,2503.6,2652.6,1168.2,3499.0,3474.6,3472.2,637.6,729.9,1455.2,875.5,816.0,726.6,130.0,136.0,51.0,10603.0,-11835.0,3991.0,-128.0,560.0,1989.0,728.0,3.0,116.0,-105.0,4423.0,-10387.0,-10204.0,6072.0,340.0,44.0,124.0,1.0
2022-05-13 15:11:00.507192-07:00,1028.0,646.5,931.3,878.0,738.1,721.6,1451.6,1066.9,3469.8,3473.4,992.7,836.9,1378.5,3464.9,1136.6,1062.5,3480.7,3469.8,1163.8,1561.8,2503.6,2652.6,1168.2,3491.7,3474.6,3474.6,631.9,715.1,1455.2,875.5,816.0,723.3,5.0,-22.0,14.0,10450.0,-11656.0,4781.0,-717.0,266.0,2074.0,183.0,7.0,-84.0,97.0,4436.0,-10401.0,-10184.0,6071.0,-83.0,85.0,41.0,1.0
2022-05-13 15:11:00.552930-07:00,1028.0,636.7,931.3,876.4,738.1,721.6,1487.5,1090.3,3469.8,3466.1,999.6,846.1,1378.5,3464.9,1145.4,1065.1,3484.4,3475.9,1163.8,1561.8,2496.2,2649.3,1170.9,3491.7,3467.4,3478.3,631.9,715.1,1459.8,867.9,815.2,723.3,81.0,-92.0,-38.0,10411.0,-11395.0,5338.0,-1307.0,1229.0,1862.0,433.0,-1.0,7.0,-96.0,4616.0,-10388.0,-10042.0,6194.0,904.0,141.0,145.0,1.0
2022-05-13 15:11:00.597278-07:00,1028.0,646.5,931.3,876.4,734.0,718.4,1487.5,1090.3,3466.1,3455.2,999.6,846.1,1382.1,3478.3,1145.4,1065.1,3484.4,3475.9,1171.8,1563.7,2496.2,2649.3,1167.4,3489.2,3467.4,3478.3,644.9,765.3,1459.8,867.9,812.7,719.2,-32.0,154.0,-96.0,10454.0,-10971.0,5940.0,-1871.0,113.0,1445.0,305.0,11.0,29.0,37.0,4741.0,-10390.0,-9916.0,6299.0,-146.0,120.0,136.0,1.0
2022-05-13 15:11:00.642166-07:00,1028.0,646.5,931.3,876.4,734.0,718.4,1511.5,1095.6,3466.1,3455.2,1008.2,852.8,1382.1,3478.3,1147.1,1056.5,3466.1,3472.2,1171.8,1563.7,2475.9,2648.2,1167.4,3489.2,3469.8,3479.5,644.9,765.3,1456.2,878.9,812.7,719.2,49.0,-37.0,8.0,10149.0,-10997.0,6333.0,-2093.0,-612.0,1017.0,98.0,6.0,-8.0,-34.0,4581.0,-10524.0,-9969.0,6108.0,-699.0,130.0,129.0,1.0
2022-05-13 15:11:00.687186-07:00,1022.8,643.2,931.3,876.4,729.9,722.5,1511.5,1095.6,3468.6,3468.6,1008.2,852.8,1378.5,3469.8,1147.1,1056.5,3466.1,3472.2,1163.8,1560.9,2475.9,2648.2,1163.8,3490.5,3469.8,3479.5,633.5,748.0,1456.2,878.9,812.7,711.8,-48.0,2.0,-72.0,9883.0,-11021.0,6639.0,-2284.0,-49.0,568.0,45.0,7.0,-52.0,37.0,4474.0,-10634.0,-9981.0,5975.0,-251.0,160.0,161.0,1.0
2022-05-13 15:11:00.734238-07:00,1022.8,643.2,927.1,876.4,729.9,722.5,1508.8,1112.1,3468.6,3468.6,999.6,844.4,1378.5,3469.8,1142.7,1062.5,3472.2,3483.2,1163.8,1560.9,2440.9,2648.2,1163.8,3490.5,3473.4,3472.2,633.5,748.0,1462.6,872.1,812.7,711.8,53.0,31.0,-70.0,9809.0,-11050.0,6678.0,-2350.0,-318.0,-11.0,-206.0,-6.0,86.0,-74.0,4449.0,-10713.0,-9956.0,5896.0,-279.0,128.0,79.0,1.0
2022-05-13 15:11:00.777101-07:00,1037.5,649.7,938.1,876.4,738.9,715.1,1508.8,1112.1,3474.6,3472.2,998.7,844.4,1376.6,3473.4,1142.7,1062.5,3472.2,3483.2,1170.9,1547.8,2440.9,2648.2,1171.8,3496.6,3473.4,3472.2,637.6,746.3,1462.6,876.4,820.2,723.3,20.0,-58.0,-22.0,9665.0,-11168.0,6691.0,-2351.0,-291.0,206.0,-24.0,-1.0,3.0,-43.0,4341.0,-10776.0,-10002.0,5782.0,-361.0,2.0,22.0,1.0
2022-05-13 15:11:00.823688-07:00,1037.5,649.7,938.1,878.9,738.9,721.6,1504.1,1113.9,3474.6,3472.2,998.7,849.5,1376.6,3473.4,1143.6,1065.1,3486.8,3474.6,1170.0,1547.8,2431.4,2648.2,1171.8,3496.6,3484.4,3475.9,634.3,746.3,1458.0,876.4,820.2,723.3,43.0,40.0,-44.0,9650.0,-11193.0,6678.0,-2329.0,113.0,-316.0,-93.0,5.0,16.0,-22.0,4337.0,-10788.0,-9996.0,5773.0,128.0,17.0,-1.0,1.0
2022-05-13 15:11:00.869089-07:00,1035.7,644.9,928.8,878.9,730.7,721.6,1504.1,1113.9,3469.8,3464.9,1005.6,849.5,1383.0,3473.4,1143.6,1065.1,3486.8,3474.6,1170.0,1553.4,2431.4,2647.1,1156.8,3502.7,3484.4,3475.9,634.3,752.9,1458.0,874.7,818.5,725.8,36.0,-36.0,13.0,9692.0,-11226.0,6574.0,-2291.0,-81.0,-114.0,-91.0,-2.0,10.0,-36.0,4337.0,-10767.0,-10016.0,5777.0,-52.0,-59.0,-77.0,1.0
2022-05-13 15:11:00.957141-07:00,1035.7,644.9,928.8,884.8,730.7,722.5,1491.2,1100.8,3469.8,3464.9,1005.6,849.5,1383.0,3481.9,1141.9,1055.6,3478.3,3467.4,1166.5,1553.4,2417.6,2647.1,1156.8,3502.7,3478.3,3467.4,634.3,752.9,1461.7,874.7,818.5,725.8,26.0,-15.0,42.0,9687.0,-11256.0,6540.0,-2264.0,-25.0,-98.0,-38.0,12.0,-17.0,14.0,4328.0,-10748.0,-10038.0,5780.0,19.0,-29.0,-35.0,1.0
2022-05-13 15:11:01.002204-07:00,1036.6,646.5,927.1,884.8,731.5,722.5,1491.2,1100.8,3466.1,3466.1,1003.0,849.5,1383.9,3481.9,1141.9,1055.6,3478.3,3467.4,1166.5,1553.4,2417.6,2639.5,1168.2,3500.2,3478.3,3467.4,634.3,748.8,1461.7,878.0,821.9,720.0,35.0,-18.0,45.0,9706.0,-11271.0,6483.0,-2270.0,-4.0,-42.0,-102.0,1.0,8.0,-10.0,4335.0,-10740.0,-10044.0,5782.0,-4.0,4.0,-18.0,1.0
2022-05-13 15:11:01.047270-07:00,1036.6,646.5,927.1,884.8,743.0,719.2,1488.4,1102.5,3466.1,3466.1,1003.0,849.5,1378.5,3478.3,1137.5,1058.2,3479.5,3472.2,1161.2,1552.5,2410.3,2639.5,1168.2,3500.2,3474.6,3472.2,633.5,744.7,1453.4,878.0,821.9,720.0,9.0,-22.0,19.0,9694.0,-11280.0,6469.0,-2319.0,-65.0,118.0,-30.0,-1.0,-8.0,0.0,4321.0,-10747.0,-10051.0,5766.0,-80.0,21.0,17.0,1.0
2022-05-13 15:11:01.092278-07:00,1032.3,648.1,927.9,885.6,743.0,719.2,1488.4,1102.5,3469.8,3472.2,999.6,850.3,1378.5,3478.3,1137.5,1058.2,3479.5,3472.2,1161.2,1552.5,2382.9,2637.3,1171.8,3486.8,3474.6,3472.2,633.5,744.7,1457.1,870.5,815.2,723.3,28.0,0.0,-2.0,9666.0,-11294.0,6480.0,-2336.0,-58.0,45.0,-6.0,4.0,18.0,-19.0,4303.0,-10768.0,-10050.0,5741.0,-73.0,25.0,27.0,1.0
2022-05-13 15:11:01.138815-07:00,1032.3,648.1,927.9,885.6,729.9,717.5,1492.1,1092.1,3469.8,3472.2,999.6,850.3,1378.5,3473.4,1142.7,1056.5,3479.5,3477.1,1156.8,1552.5,2382.9,2637.3,1171.8,3486.8,3467.4,3469.8,631.1,745.5,1457.1,870.5,815.2,723.3,22.0,-19.0,0.0,9604.0,-11335.0,6502.0,-2337.0,-211.0,68.0,-6.0,0.0,1.0,-16.0,4253.0,-10796.0,-10070.0,5691.0,-190.0,9.0,19.0,1.0
2022-05-13 15:11:01.182239-07:00,1035.7,647.3,930.5,886.5,729.9,717.5,1492.1,1092.1,3473.4,3471.0,997.9,850.3,1378.5,3473.4,1142.7,1056.5,3479.5,3477.1,1156.8,1552.5,2396.6,2638.4,1172.6,3485.6,3467.4,3469.8,631.1,745.5,1460.8,870.5,811.0,725.8,18.0,-13.0,-7.0,9573.0,-11360.0,6505.0,-2328.0,10.0,-48.0,5.0,5.0,-2.0,-10.0,4237.0,-10807.0,-10075.0,5674.0,48.0,7.0,9.0,1.0
2022-05-13 15:11:01.227140-07:00,1035.7,647.3,930.5,886.5,738.9,711.8,1485.6,1091.2,3473.4,3471.0,997.9,850.3,1376.6,3471.0,1141.9,1056.5,3474.6,3473.4,1157.7,1542.2,2396.6,2638.4,1172.6,3485.6,3479.5,3469.8,627.0,743.9,1460.8,870.5,811.0,725.8,16.0,5.0,-3.0,9597.0,-11352.0,6485.0,-2330.0,-1.0,-14.0,-17.0,-1.0,13.0,-17.0,4247.0,-10800.0,-10072.0,5686.0,11.0,-19.0,-16.0,1.0
2022-05-13 15:11:01.274036-07:00,1038.3,646.5,937.3,879.7,738.9,711.8,1485.6,1091.2,3472.2,3478.3,997.0,845.3,1376.6,3471.0,1141.9,1056.5,3474.6,3473.4,1157.7,1542.2,2395.5,2628.6,1169.1,3494.1,3479.5,3469.8,627.0,743.9,1458.9,868.8,811.0,720.0,23.0,-14.0,17.0,9589.0,-11364.0,6475.0,-2329.0,-33.0,3.0,-9.0,4.0,0.0,-12.0,4239.0,-10797.0,-10082.0,5680.0,-24.0,-12.0,-15.0,1.0
2022-05-13 15:11:01.320261-07:00,1028.0,646.5,937.3,879.7,735.6,724.1,1484.7,1096.4,3469.8,3478.3,997.0,845.3,1383.0,3474.6,1139.2,1052.2,3478.3,3478.3,1162.1,1544.1,2395.5,2628.6,1169.1,3496.6,3469.8,3486.8,622.2,740.6,1458.9,868.8,811.0,724.9,23.0,-5.0,19.0,9588.0,-11367.0,6469.0,-2337.0,4.0,29.0,-18.0,5.0,5.0,-7.0,4236.0,-10795.0,-10086.0,5678.0,12.0,5.0,-4.0,1.0
2022-05-13 15:11:01.408797-07:00,1028.0,638.4,930.5,878.0,735.6,724.1,1484.7,1095.6,3469.8,3473.4,1003.9,854.5,1383.0,3474.6,1139.2,1054.8,3478.3,3478.3,1162.1,1544.1,2385.0,2638.4,1167.4,3496.6,3467.4,3486.8,622.2,740.6,1455.2,878.9,804.4,724.9,11.0,-13.0,12.0,9581.0,-11362.0,6477.0,-2369.0,-5.0,78.0,-7.0,4.0,-4.0,2.0,4235.0,-10796.0,-10087.0,5675.0,-17.0,15.0,7.0,1.0
2022-05-13 15:11:01.451609-07:00,1025.4,638.4,930.5,878.0,724.9,712.6,1485.6,1095.6,3467.4,3473.4,1003.9,854.5,1373.0,3466.1,1140.1,1054.8,3478.3,3479.5,1163.0,1542.2,2385.0,2638.4,1167.4,3489.2,3467.4,3478.3,635.1,747.2,1455.2,878.9,804.4,711.8,19.0,-1.0,-5.0,9572.0,-11359.0,6487.0,-2389.0,5.0,21.0,-12.0,0.0,3.0,-14.0,4235.0,-10802.0,-10083.0,5669.0,2.0,15.0,15.0,1.0
2022-05-13 15:11:01.497205-07:00,1025.4,642.4,926.2,885.6,724.9,712.6,1485.6,1092.9,3467.4,3464.9,997.0,852.0,1373.0,3466.1,1140.1,1058.2,3479.5,3479.5,1163.0,1542.2,2382.9,2636.2,1160.3,3489.2,3474.6,3478.3,635.1,747.2,1454.3,872.1,804.4,711.8,19.0,4.0,-1.0,9569.0,-11358.0,6485.0,-2410.0,26.0,59.0,-23.0,1.0,12.0,-19.0,4237.0,-10806.0,-10079.0,5668.0,18.0,-2.0,-1.0,1.0
2022-05-13 15:11:01.542204-07:00,1033.2,642.4,926.2,885.6,735.6,718.4,1492.1,1092.9,3469.8,3464.9,997.0,852.0,1380.3,3474.6,1136.6,1058.2,3479.5,3477.1,1158.6,1538.5,2382.9,2636.2,1160.3,3496.6,3474.6,3475.9,627.0,745.5,1454.3,872.1,804.4,724.9,12.0,-17.0,-4.0,9556.0,-11364.0,6487.0,-2429.0,-29.0,-17.0,-12.0,4.0,-3.0,-7.0,4233.0,-10808.0,-10082.0,5663.0,-31.0,-9.0,-7.0,1.0
2022-05-13 15:11:01.587123-07:00,1033.2,645.7,929.6,873.0,735.6,718.4,1481.0,1092.9,3469.8,3468.6,993.6,847.0,1380.3,3474.6,1136.6,1059.1,3488.0,3472.2,1158.6,1538.5,2385.0,2633.0,1168.2,3496.6,3481.9,3474.6,627.0,745.5,1455.2,867.9,812.7,724.9,19.0,1.0,6.0,9559.0,-11369.0,6476.0,-2423.0,13.0,-33.0,-2.0,4.0,4.0,-10.0,4232.0,-10808.0,-10083.0,5662.0,12.0,-12.0,-7.0,1.0
2022-05-13 15:11:01.633728-07:00,1038.3,648.9,929.6,873.0,731.5,715.1,1481.0,1092.9,3478.3,3480.7,993.6,847.0,1377.5,3467.4,1136.6,1059.1,3488.0,3472.2,1155.9,1535.7,2385.0,2633.0,1166.5,3496.6,3481.9,3474.6,629.5,736.5,1455.2,867.9,812.7,720.0,13.0,-6.0,7.0,9562.0,-11373.0,6462.0,-2428.0,16.0,-14.0,-29.0,2.0,4.0,-8.0,4232.0,-10807.0,-10083.0,5663.0,11.0,1.0,-9.0,1.0
2022-05-13 15:11:01.723493-07:00,1038.3,648.9,932.2,883.1,731.5,715.1,1470.0,1092.9,3478.3,3480.7,995.3,847.8,1377.5,3467.4,1140.1,1055.6,3472.2,3480.7,1155.9,1535.7,2369.3,2639.5,1166.5,3496.6,3479.5,3478.3,629.5,736.5,1455.2,872.1,812.7,720.0,12.0,-10.0,7.0,9565.0,-11375.0,6455.0,-2426.0,-10.0,-24.0,15.0,0.0,-2.0,-8.0,4231.0,-10807.0,-10083.0,5663.0,3.0,-4.0,4.0,1.0
2022-05-13 15:11:01.724814-07:00,1038.3,640.0,932.2,883.1,735.6,722.5,1470.0,1092.9,3471.0,3469.8,995.3,847.8,1377.5,3467.4,1140.1,1055.6,3472.2,3480.7,1155.9,1544.1,2369.3,2639.5,1170.0,3495.3,3479.5,3478.3,620.5,734.8,1455.2,872.1,812.7,715.1,15.0,6.0,3.0,9569.0,-11373.0,6453.0,-2428.0,15.0,11.0,-15.0,6.0,6.0,-11.0,4232.0,-10807.0,-10083.0,5663.0,-1.0,3.0,-2.0,1.0
2022-05-13 15:11:01.769072-07:00,1038.3,640.0,939.8,878.0,735.6,722.5,1480.1,1099.9,3471.0,3469.8,1006.5,846.1,1377.5,3467.4,1143.6,1052.2,3472.2,3472.2,1155.9,1544.1,2377.6,2614.5,1170.0,3495.3,3473.4,3484.4,620.5,734.8,1453.4,864.6,812.7,715.1,13.0,-10.0,0.0,9565.0,-11378.0,6448.0,-2433.0,-10.0,-13.0,-2.0,6.0,1.0,-11.0,4228.0,-10808.0,-10086.0,5658.0,-14.0,-4.0,1.0,1.0
2022-05-13 15:11:01.814075-07:00,1034.0,661.1,935.6,878.0,735.6,716.7,1480.1,1099.9,3468.6,3472.2,998.7,846.1,1381.2,3474.6,1143.6,1052.2,3472.2,3472.2,1153.3,1542.2,2377.6,2634.1,1168.2,3488.0,3473.4,3484.4,630.3,738.1,1453.4,869.6,806.9,720.0,14.0,0.0,4.0,9567.0,-11379.0,6443.0,-2431.0,-9.0,-9.0,5.0,4.0,0.0,-6.0,4228.0,-10809.0,-10087.0,5655.0,-3.0,-7.0,-2.0,1.0
2022-05-13 15:11:01.902176-07:00,1034.0,661.1,935.6,878.0,735.6,722.5,1481.0,1091.2,3468.6,3472.2,998.7,848.6,1381.2,3467.4,1140.1,1059.1,3484.4,3479.5,1161.2,1542.2,2373.4,2634.1,1168.2,3488.0,3479.5,3467.4,627.8,738.1,1453.4,869.6,806.9,720.0,12.0,-5.0,6.0,9572.0,-11380.0,6435.0,-2429.0,21.0,-26.0,-10.0,-1.0,3.0,-6.0,4228.0,-10809.0,-10087.0,5655.0,19.0,-4.0,-4.0,1.0
2022-05-13 15:11:01.947250-07:00,1042.6,641.6,934.7,878.0,738.1,722.5,1481.0,1091.2,3473.4,3468.6,997.9,848.6,1385.7,3467.4,1140.1,1059.1,3484.4,3479.5,1161.2,1541.3,2373.4,2636.2,1173.5,3491.7,3479.5,3467.4,627.8,738.1,1453.4,868.8,809.4,724.1,11.0,-6.0,2.0,9577.0,-11379.0,6429.0,-2431.0,-4.0,-8.0,-6.0,0.0,2.0,-10.0,4231.0,-10808.0,-10085.0,5658.0,-6.0,-7.0,-4.0,1.0
2022-05-13 15:11:01.992146-07:00,1042.6,641.6,934.7,887.3,738.1,711.8,1470.9,1094.7,3473.4,3468.6,997.9,847.0,1385.7,3468.6,1138.4,1056.5,3480.7,3469.8,1163.0,1541.3,2366.1,2636.2,1173.5,3491.7,3471.0,3475.9,644.0,738.1,1458.0,868.8,809.4,724.1,13.0,0.0,-3.0,9581.0,-11378.0,6424.0,-2431.0,17.0,-18.0,-3.0,3.0,2.0,-10.0,4232.0,-10808.0,-10085.0,5658.0,10.0,-4.0,-4.0,1.0
2022-05-13 15:11:02.038545-07:00,1032.3,653.0,933.9,887.3,737.3,711.8,1470.9,1094.7,3473.4,3464.9,999.6,847.0,1374.8,3468.6,1138.4,1056.5,3480.7,3469.8,1163.0,1532.9,2366.1,2634.1,1167.4,3490.5,3471.0,3475.9,644.0,733.2,1458.0,871.3,806.9,724.9,13.0,-6.0,3.0,9589.0,-11379.0,6410.0,-2433.0,16.0,-20.0,-21.0,5.0,0.0,-7.0,4236.0,-10806.0,-10083.0,5660.0,11.0,-6.0,-7.0,1.0
2022-05-13 15:11:02.082173-07:00,1032.3,653.0,933.9,880.6,737.3,724.9,1464.4,1089.5,3473.4,3464.9,999.6,842.8,1374.8,3466.1,1130.5,1058.2,3469.8,3467.4,1161.2,1532.9,2356.7,2634.1,1167.4,3490.5,3488.0,3473.4,624.6,733.2,1453.4,871.3,806.9,724.9,11.0,-3.0,4.0,9598.0,-11379.0,6397.0,-2434.0,16.0,-29.0,-8.0,2.0,3.0,-10.0,4240.0,-10805.0,-10081.0,5664.0,13.0,-9.0,-6.0,1.0
2022-05-13 15:11:02.127370-07:00,1030.6,645.7,927.9,889.0,729.0,724.9,1464.4,1089.5,3484.4,3479.5,1003.0,845.3,1379.4,3466.1,1130.5,1058.2,3469.8,3467.4,1161.2,1534.8,2358.8,2629.7,1163.0,3500.2,3488.0,3473.4,624.6,735.6,1460.8,869.6,811.9,725.8,12.0,-5.0,10.0,9601.0,-11381.0,6390.0,-2429.0,2.0,-19.0,-5.0,1.0,-2.0,-9.0,4239.0,-10805.0,-10082.0,5663.0,7.0,1.0,0.0,1.0
2022-05-13 15:11:02.173442-07:00,1030.6,645.7,927.9,889.0,740.6,715.1,1476.4,1097.3,3484.4,3479.5,1003.0,845.3,1383.0,3471.0,1140.1,1057.3,3479.5,3467.4,1149.8,1566.5,2358.8,2629.7,1163.0,3500.2,3485.6,3475.9,639.2,734.0,1460.8,869.6,811.9,725.8,11.0,-5.0,1.0,9604.0,-11382.0,6382.0,-2434.0,-11.0,-10.0,-23.0,4.0,3.0,-9.0,4239.0,-10805.0,-10082.0,5662.0,-15.0,-2.0,-4.0,1.0
2022-05-13 15:11:02.219419-07:00,1028.0,638.4,922.0,882.3,740.6,715.1,1476.4,1097.3,3478.3,3478.3,994.5,844.4,1383.0,3471.0,1140.1,1057.3,3479.5,3467.4,1149.8,1566.5,2364.0,2630.8,1166.5,3496.6,3485.6,3475.9,639.2,734.0,1459.8,871.3,808.5,721.6,11.0,-3.0,0.0,9606.0,-11385.0,6371.0,-2437.0,20.0,-15.0,-10.0,5.0,3.0,-7.0,4240.0,-10805.0,-10082.0,5662.0,19.0,2.0,-3.0,1.0
2022-05-13 15:11:02.309113-07:00,1028.0,638.4,922.0,882.3,729.0,708.5,1470.0,1090.3,3478.3,3478.3,994.5,844.4,1383.0,3469.8,1135.7,1055.6,3480.7,3478.3,1148.9,1532.9,2364.0,2630.8,1166.5,3496.6,3477.1,3478.3,627.0,734.8,1459.8,871.3,808.5,721.6,9.0,-6.0,3.0,9609.0,-11388.0,6362.0,-2436.0,-2.0,-21.0,-14.0,2.0,3.0,-6.0,4240.0,-10805.0,-10083.0,5661.0,-2.0,-5.0,-3.0,1.0
2022-05-13 15:11:02.310338-07:00,1028.0,644.0,937.3,878.0,729.0,708.5,1470.0,1090.3,3462.5,3478.3,1000.5,846.1,1383.0,3469.8,1135.7,1055.6,3480.7,3478.3,1148.9,1532.9,2353.5,2630.8,1163.0,3494.1,3477.1,3478.3,627.0,734.8,1463.5,877.2,809.4,723.3,9.0,-3.0,5.0,9615.0,-11390.0,6350.0,-2435.0,12.0,-21.0,-16.0,1.0,1.0,-6.0,4242.0,-10804.0,-10081.0,5663.0,7.0,-1.0,-3.0,1.0
2022-05-13 15:11:02.443252-07:00,1027.1,644.0,937.3,878.0,730.7,719.2,1472.7,1090.3,3469.8,3478.3,1000.5,846.1,1372.1,3461.3,1125.2,1058.2,3473.4,3462.5,1145.4,1520.8,2353.5,2630.8,1163.0,3486.8,3484.4,3473.4,629.5,732.3,1463.5,877.2,809.4,725.8,8.0,-6.0,2.0,9616.0,-11392.0,6344.0,-2439.0,11.0,-10.0,-10.0,5.0,-1.0,-7.0,4242.0,-10805.0,-10082.0,5663.0,8.0,-1.0,-2.0,1.0
2022-05-13 15:11:02.444985-07:00,1027.1,647.3,929.6,876.4,730.7,719.2,1472.7,1084.2,3469.8,3469.8,990.2,837.7,1372.1,3461.3,1125.2,1058.2,3478.3,3462.5,1145.4,1520.8,2349.4,2634.1,1167.4,3486.8,3481.9,3473.4,629.5,732.3,1453.4,864.6,813.5,725.8,12.0,-2.0,1.0,9622.0,-11392.0,6334.0,-2438.0,5.0,-11.0,-15.0,5.0,6.0,-14.0,4243.0,-10804.0,-10082.0,5662.0,-7.0,-4.0,-1.0,1.0
2022-05-13 15:11:02.487310-07:00,1032.3,647.3,929.6,876.4,731.5,711.8,1472.7,1084.2,3467.4,3469.8,990.2,837.7,1379.4,3474.6,1137.5,1058.2,3478.3,3478.3,1157.7,1526.4,2349.4,2634.1,1167.4,3502.7,3481.9,3478.3,624.6,731.5,1453.4,864.6,813.5,726.6,11.0,-6.0,2.0,9622.0,-11395.0,6328.0,-2440.0,1.0,-17.0,-16.0,7.0,0.0,-5.0,4242.0,-10805.0,-10083.0,5659.0,3.0,2.0,-1.0,1.0
2022-05-13 15:11:02.532305-07:00,1032.3,642.4,927.9,880.6,731.5,711.8,1472.7,1087.7,3467.4,3475.9,995.3,847.0,1379.4,3474.6,1137.5,1054.8,3485.6,3478.3,1157.7,1526.4,2335.8,2633.0,1164.7,3502.7,3481.9,3478.3,624.6,731.5,1447.9,872.1,815.2,726.6,6.0,-4.0,2.0,9624.0,-11398.0,6321.0,-2439.0,5.0,-12.0,-12.0,0.0,0.0,-5.0,4242.0,-10805.0,-10083.0,5659.0,6.0,-1.0,-4.0,1.0
2022-05-13 15:11:02.577172-07:00,1028.0,642.4,927.9,880.6,731.5,720.8,1478.3,1087.7,3472.2,3475.9,995.3,847.0,1376.6,3466.1,1134.9,1054.8,3485.6,3471.0,1149.8,1526.4,2335.8,2633.0,1164.7,3502.7,3481.9,3471.0,623.8,728.2,1447.9,872.1,815.2,724.9,7.0,-4.0,2.0,9626.0,-11401.0,6312.0,-2437.0,9.0,-14.0,-13.0,-2.0,1.0,-8.0,4242.0,-10805.0,-10083.0,5659.0,9.0,1.0,-3.0,1.0
2022-05-13 15:11:02.622122-07:00,1028.0,647.3,937.3,881.4,731.5,720.8,1480.1,1091.2,3472.2,3467.4,994.5,847.0,1376.6,3466.1,1133.1,1057.3,3478.3,3471.0,1149.8,1526.4,2341.0,2642.8,1164.7,3502.7,3473.4,3478.3,623.8,728.2,1459.8,866.3,811.9,724.9,10.0,-7.0,0.0,9626.0,-11404.0,6307.0,-2440.0,-4.0,-14.0,-10.0,3.0,2.0,-8.0,4242.0,-10805.0,-10083.0,5659.0,-6.0,4.0,0.0,1.0
2022-05-13 15:11:02.669134-07:00,1026.3,643.2,937.3,881.4,732.3,719.2,1480.1,1091.2,3467.4,3472.2,994.5,847.0,1380.3,3475.9,1133.1,1057.3,3478.3,3471.0,1152.4,1535.7,2341.0,2642.8,1163.0,3481.9,3473.4,3478.3,630.3,724.9,1459.8,866.3,816.9,726.6,9.0,-1.0,-2.0,9626.0,-11404.0,6306.0,-2439.0,8.0,-6.0,-3.0,6.0,4.0,-9.0,4242.0,-10805.0,-10083.0,5659.0,5.0,-5.0,-4.0,1.0
2022-05-13 15:11:02.713284-07:00,1026.3,643.2,927.1,885.6,732.3,719.2,1474.6,1069.5,3467.4,3472.2,995.3,841.9,1380.3,3475.9,1133.1,1053.0,3469.8,3468.6,1152.4,1535.7,2342.0,2622.1,1163.0,3481.9,3469.8,3471.0,630.3,724.9,1448.8,871.3,816.9,726.6,9.0,0.0,3.0,9633.0,-11404.0,6297.0,-2437.0,15.0,-24.0,-12.0,3.0,2.0,-8.0,4246.0,-10803.0,-10081.0,5664.0,15.0,-3.0,-4.0,1.0
2022-05-13 15:11:02.759024-07:00,1034.0,641.6,927.1,885.6,733.2,717.5,1474.6,1069.5,3468.6,3471.0,995.3,841.9,1379.4,3477.1,1133.1,1053.0,3469.8,3468.6,1149.8,1531.0,2342.0,2622.1,1167.4,3486.8,3469.8,3471.0,627.0,731.5,1448.8,871.3,812.7,722.5,6.0,-4.0,4.0,9637.0,-11405.0,6290.0,-2436.0,-7.0,-4.0,-9.0,1.0,4.0,-5.0,4247.0,-10802.0,-10081.0,5665.0,-4.0,1.0,-4.0,1.0
2022-05-13 15:11:02.848773-07:00,1034.0,641.6,925.4,870.5,733.2,717.5,1471.8,1081.6,3468.6,3471.0,997.9,841.9,1379.4,3477.1,1132.2,1052.2,3473.4,3479.5,1149.8,1531.0,2328.5,2623.2,1167.4,3486.8,3471.0,3471.0,627.0,731.5,1449.7,864.6,812.7,722.5,10.0,-2.0,-4.0,9638.0,-11405.0,6289.0,-2435.0,7.0,-13.0,-4.0,4.0,1.0,-7.0,4247.0,-10802.0,-10081.0,5665.0,11.0,0.0,-4.0,1.0
2022-05-13 15:11:02.892209-07:00,1025.4,637.6,925.4,870.5,730.7,721.6,1471.8,1081.6,3474.6,3466.1,997.9,841.9,1382.1,3469.8,1132.2,1052.2,3473.4,3479.5,1147.1,1535.7,2328.5,2623.2,1159.4,3484.4,3471.0,3471.0,628.6,729.9,1449.7,864.6,813.5,716.7,11.0,-3.0,-1.0,9643.0,-11406.0,6280.0,-2431.0,11.0,-27.0,-15.0,6.0,3.0,-8.0,4250.0,-10801.0,-10079.0,5667.0,10.0,-9.0,-9.0,1.0
2022-05-13 15:11:02.937245-07:00,1025.4,637.6,928.8,883.1,730.7,711.8,1459.8,1087.7,3474.6,3466.1,998.7,845.3,1382.1,3466.1,1133.1,1045.2,3469.8,3475.9,1145.4,1535.7,2336.8,2615.6,1159.4,3484.4,3483.2,3471.0,626.2,729.9,1458.0,875.5,813.5,716.7,7.0,-7.0,-11.0,9651.0,-11407.0,6268.0,-2427.0,8.0,-35.0,-11.0,6.0,2.0,-8.0,4251.0,-10798.0,-10080.0,5671.0,8.0,-10.0,-10.0,1.0
2022-05-13 15:11:02.982182-07:00,1027.1,637.6,925.4,883.1,742.2,711.8,1459.8,1087.7,3471.0,3473.4,997.9,845.3,1377.5,3466.1,1133.1,1045.2,3469.8,3475.9,1145.4,1538.5,2336.8,2633.0,1165.6,3491.7,3483.2,3471.0,626.2,726.6,1458.0,875.5,813.5,718.4,-5.0,-18.0,-54.0,9684.0,-11408.0,6228.0,-2392.0,85.0,-253.0,3.0,1.0,-6.0,-8.0,4257.0,-10790.0,-10080.0,5683.0,78.0,-20.0,-11.0,1.0
2022-05-13 15:11:03.027203-07:00,1027.1,637.6,925.4,875.5,742.2,720.8,1459.8,1086.8,3471.0,3473.4,997.9,843.6,1377.5,3478.3,1128.7,1048.7,3477.1,3466.1,1149.8,1538.5,2343.1,2633.0,1165.6,3491.7,3474.6,3467.4,628.6,726.6,1455.2,875.5,813.5,718.4,2.0,26.0,-68.0,9793.0,-11410.0,6101.0,-2263.0,171.0,-646.0,-6.0,-2.0,19.0,-24.0,4283.0,-10769.0,-10072.0,5716.0,176.0,-48.0,-41.0,1.0
2022-05-13 15:11:03.074266-07:00,1023.7,648.9,931.3,875.5,737.3,720.8,1459.8,1086.8,3473.4,3466.1,994.5,843.6,1375.7,3478.3,1128.7,1048.7,3477.1,3466.1,1149.8,1521.8,2343.1,2627.5,1165.6,3486.8,3474.6,3467.4,628.6,729.9,1455.2,868.8,808.5,726.6,-7.0,28.0,-71.0,9941.0,-11456.0,5852.0,-2032.0,-66.0,-1031.0,-142.0,1.0,4.0,-12.0,4310.0,-10730.0,-10079.0,5758.0,34.0,-73.0,-92.0,1.0
2022-05-13 15:11:03.119101-07:00,1023.7,648.9,931.3,876.4,737.3,714.2,1451.6,1086.0,3473.4,3466.1,994.5,845.3,1375.7,3477.1,1132.2,1062.5,3472.2,3480.7,1154.2,1521.8,2342.0,2627.5,1165.6,3486.8,3472.2,3483.2,629.5,729.9,1462.6,868.8,808.5,726.6,19.0,23.0,-60.0,10033.0,-11633.0,5449.0,-1663.0,-286.0,-1471.0,-330.0,0.0,13.0,-19.0,4298.0,-10697.0,-10119.0,5757.0,-79.0,-70.0,-110.0,1.0
2022-05-13 15:11:03.163506-07:00,1035.7,638.4,933.0,880.6,732.3,714.2,1451.6,1086.0,3467.4,3467.4,992.7,845.3,1376.6,3477.1,1132.2,1062.5,3472.2,3480.7,1154.2,1533.8,2338.9,2625.4,1169.1,3486.8,3472.2,3483.2,629.5,715.1,1471.8,873.0,810.2,724.9,-22.0,28.0,-146.0,10209.0,-11831.0,4787.0,-1149.0,-130.0,-2545.0,-607.0,-5.0,-65.0,57.0,4260.0,-10679.0,-10176.0,5718.0,-125.0,55.0,-45.0,1.0
2022-05-13 15:11:03.209876-07:00,1035.7,638.4,933.0,880.6,734.8,710.1,1452.5,1075.6,3467.4,3467.4,992.7,845.3,1383.9,3471.0,1134.0,1048.7,3480.7,3472.2,1158.6,1531.0,2338.9,2625.4,1169.1,3486.8,3477.1,3478.3,625.4,722.5,1471.8,873.0,810.2,724.9,114.0,159.0,-191.0,10415.0,-12118.0,3610.0,-303.0,-925.0,-3594.0,-1112.0,5.0,122.0,-58.0,4222.0,-10683.0,-10217.0,5666.0,-719.0,-213.0,-155.0,1.0
2022-05-13 15:11:03.297198-07:00,1032.3,648.9,927.1,884.8,734.8,710.1,1452.5,1075.6,3473.4,3471.0,994.5,835.2,1383.9,3471.0,1134.0,1048.7,3480.7,3472.2,1158.6,1531.0,2386.0,2618.8,1170.9,3489.2,3477.1,3478.3,625.4,722.5,1451.6,852.8,811.0,718.4,123.0,-43.0,-116.0,10212.0,-12613.0,2130.0,726.0,-1673.0,-4074.0,-1337.0,7.0,-7.0,-44.0,3884.0,-10692.0,-10482.0,5399.0,-1210.0,-255.0,-383.0,1.0
2022-05-13 15:11:03.342388-07:00,1032.3,648.9,927.1,884.8,739.7,705.2,1458.9,1060.8,3473.4,3471.0,994.5,835.2,1377.5,3464.9,1134.9,1053.9,3480.7,3478.3,1162.1,1551.5,2386.0,2618.8,1170.9,3489.2,3467.4,3474.6,629.5,710.1,1451.6,852.8,811.0,718.4,119.0,-42.0,17.0,9932.0,-12899.0,626.0,1736.0,-1133.0,-3569.0,-1221.0,22.0,37.0,-56.0,3596.0,-10621.0,-10771.0,5165.0,-717.0,-327.0,-518.0,1.0
2022-05-13 15:11:03.433138-07:00,1027.1,644.0,920.3,879.7,739.7,705.2,1458.9,1060.8,3464.9,3474.6,978.2,838.6,1377.5,3464.9,1134.9,1053.9,3480.7,3478.3,1162.1,1551.5,2526.1,2640.6,1163.8,3490.5,3467.4,3474.6,629.5,710.1,1470.9,876.4,811.9,722.5,90.0,-88.0,48.0,9731.0,-12927.0,-582.0,2507.0,-487.0,-2816.0,-1003.0,0.0,-25.0,-4.0,3417.0,-10481.0,-11021.0,5043.0,-278.0,-277.0,-484.0,1.0
2022-05-13 15:11:03.436025-07:00,1024.5,644.0,920.3,879.7,736.5,719.2,1456.2,1068.6,3468.6,3474.6,978.2,838.6,1377.5,3457.6,1133.1,1050.4,3477.1,3479.5,1156.8,1567.4,2526.1,2640.6,1163.8,3492.9,3477.1,3480.7,627.0,711.8,1470.9,876.4,811.9,722.5,77.0,-56.0,85.0,9626.0,-12787.0,-1563.0,3137.0,-288.0,-2307.0,-796.0,15.0,-1.0,-4.0,3353.0,-10334.0,-11188.0,5023.0,-125.0,-226.0,-369.0,1.0
2022-05-13 15:11:03.478773-07:00,1024.5,640.0,925.4,885.6,736.5,719.2,1456.2,1055.6,3468.6,3469.8,978.2,834.4,1377.5,3457.6,1133.1,1046.1,3466.1,3479.5,1156.8,1567.4,2621.0,2676.6,1167.4,3492.9,3475.9,3480.7,627.0,711.8,1458.0,871.3,806.0,722.5,71.0,-29.0,113.0,9537.0,-12639.0,-2231.0,3572.0,-55.0,-1397.0,-512.0,2.0,-29.0,6.0,3309.0,-10218.0,-11306.0,5025.0,-28.0,-187.0,-249.0,1.0
2022-05-13 15:11:03.567833-07:00,1022.8,640.0,925.4,885.6,738.9,705.2,1472.7,1055.6,3474.6,3469.8,978.2,834.4,1387.5,3471.0,1124.4,1046.1,3466.1,3472.2,1168.2,1566.5,2621.0,2676.6,1167.4,3500.2,3475.9,3478.3,623.8,718.4,1458.0,871.3,806.0,726.6,63.0,-34.0,70.0,9516.0,-12519.0,-2614.0,3785.0,21.0,-747.0,-309.0,10.0,-44.0,38.0,3294.0,-10134.0,-11372.0,5055.0,51.0,-125.0,-152.0,1.0
2022-05-13 15:11:03.569837-07:00,1022.8,641.6,925.4,871.3,738.9,705.2,1472.7,1059.1,3474.6,3462.5,978.2,834.4,1387.5,3471.0,1124.4,1045.2,3483.2,3472.2,1168.2,1566.5,2654.7,2701.8,1174.4,3500.2,3483.2,3478.3,623.8,718.4,1454.3,871.3,807.7,726.6,26.0,-15.0,23.0,9496.0,-12445.0,-2836.0,3916.0,-65.0,-509.0,-202.0,3.0,-25.0,22.0,3283.0,-10089.0,-11409.0,5071.0,-49.0,-68.0,-79.0,1.0
2022-05-13 15:11:03.614036-07:00,1026.3,641.6,925.4,871.3,743.9,707.7,1478.3,1059.1,3475.9,3462.5,978.2,834.4,1381.2,3466.1,1120.0,1045.2,3483.2,3479.5,1182.3,1572.1,2654.7,2701.8,1174.4,3497.8,3483.2,3479.5,627.8,706.0,1454.3,871.3,807.7,722.5,15.0,-10.0,48.0,9465.0,-12403.0,-2993.0,4009.0,-63.0,-285.0,-80.0,6.0,4.0,4.0,3263.0,-10071.0,-11434.0,5063.0,-76.0,-43.0,-32.0,1.0
2022-05-13 15:11:03.659116-07:00,1026.3,649.7,931.3,874.7,743.9,707.7,1473.6,1060.8,3475.9,3464.9,973.1,831.9,1381.2,3466.1,1120.0,1051.3,3478.3,3472.2,1182.3,1572.1,2639.5,2707.3,1173.5,3497.8,3467.4,3478.3,627.8,706.0,1445.1,867.1,815.2,722.5,-7.0,-1.0,-1.0,9464.0,-12388.0,-3019.0,4035.0,4.0,-16.0,34.0,-3.0,0.0,7.0,3237.0,-10072.0,-11448.0,5044.0,-86.0,-6.0,8.0,1.0
2022-05-13 15:11:03.747211-07:00,1028.8,648.9,931.3,874.7,736.5,706.9,1473.6,1060.8,3468.6,3462.5,973.1,831.9,1383.0,3466.1,1120.0,1051.3,3478.3,3472.2,1160.3,1572.1,2639.5,2707.3,1174.4,3492.9,3467.4,3478.3,627.0,706.0,1445.1,867.1,810.2,718.4,-14.0,-1.0,-29.0,9436.0,-12399.0,-3029.0,4061.0,-84.0,-95.0,34.0,7.0,2.0,-14.0,3208.0,-10083.0,-11462.0,5012.0,-108.0,-3.0,2.0,1.0
2022-05-13 15:11:03.838268-07:00,1028.8,648.9,929.6,883.1,736.5,706.9,1478.3,1041.8,3468.6,3462.5,969.6,836.1,1383.0,3466.1,1126.1,1051.3,3461.3,3481.9,1160.3,1572.1,2642.8,2696.3,1174.4,3492.9,3478.3,3480.7,627.0,706.0,1455.2,873.8,810.2,718.4,-20.0,4.0,-14.0,9404.0,-12405.0,-3048.0,4100.0,-47.0,-90.0,39.0,3.0,5.0,-14.0,3176.0,-10091.0,-11477.0,4981.0,-96.0,-17.0,6.0,1.0
2022-05-13 15:11:03.839576-07:00,1033.2,648.9,929.6,883.1,735.6,712.6,1478.3,1041.8,3471.0,3480.7,969.6,836.1,1374.8,3469.8,1126.1,1051.3,3461.3,3481.9,1162.1,1566.5,2642.8,2696.3,1178.8,3505.1,3478.3,3480.7,624.6,702.8,1455.2,873.8,808.5,720.8,-1.0,3.0,16.0,9376.0,-12414.0,-3066.0,4126.0,-15.0,-37.0,-12.0,1.0,9.0,-5.0,3161.0,-10094.0,-11484.0,4967.0,7.0,-1.0,6.0,1.0
2022-05-13 15:11:03.927283-07:00,1033.2,648.9,929.6,883.1,735.6,712.6,1473.6,1056.5,3471.0,3480.7,975.6,837.7,1374.8,3469.8,1122.6,1045.2,3474.6,3467.4,1162.1,1566.5,2644.9,2691.9,1178.8,3505.1,3475.9,3475.9,624.6,702.8,1459.8,870.5,808.5,720.8,-1.0,6.0,0.0,9391.0,-12411.0,-3045.0,4116.0,47.0,104.0,46.0,-5.0,0.0,-2.0,3163.0,-10099.0,-11479.0,4968.0,-10.0,15.0,21.0,1.0
2022-05-13 15:11:03.973936-07:00,1029.7,643.2,929.6,883.1,734.8,710.1,1473.6,1056.5,3466.1,3478.3,975.6,837.7,1383.0,3471.0,1122.6,1045.2,3474.6,3467.4,1157.7,1568.3,2644.9,2691.9,1175.3,3489.2,3475.9,3475.9,621.4,697.0,1459.8,870.5,811.0,725.8,-21.0,16.0,-24.0,9412.0,-12415.0,-3004.0,4087.0,60.0,76.0,-34.0,1.0,19.0,-3.0,3174.0,-10105.0,-11470.0,4971.0,34.0,19.0,7.0,1.0
2022-05-13 15:11:03.975569-07:00,1029.7,643.2,940.7,878.9,734.8,705.2,1471.8,1052.2,3466.1,3478.3,972.2,829.4,1383.0,3473.4,1121.7,1047.0,3478.3,3472.2,1155.0,1568.3,2614.5,2670.0,1175.3,3489.2,3474.6,3477.1,624.6,697.0,1458.9,869.6,811.0,725.8,-13.0,-24.0,-10.0,9397.0,-12427.0,-3008.0,4079.0,-78.0,-4.0,44.0,2.0,-19.0,-23.0,3160.0,-10111.0,-11477.0,4951.0,-70.0,5.0,3.0,1.0
