Time,P0,P1,P2,P3,P4,P5,P6,P7,P8,P9,P10,P11,P12,P13,P14,P15,P16,P17,P18,P19,P20,P21,P22,P23,P24,P25,P26,P27,P28,P29,P30,P31,ECG,AX0,AY0,AZ0,QW0,QX0,QY0,QZ0,GX0,GY0,GZ0,AX1,AY1,AZ1,QW1,QX1,QY1,QZ1,GX1,GY1,GZ1
2022-05-13 14:50:01.243347-07:00,1983.6,555.4,1124.4,1319.6,889.8,1121.7,1180.6,1262.2,3438.2,3444.3,1578.6,1370.3,1366.6,3449.1,1022.8,1445.1,3444.3,3440.7,723.3,1367.6,945.8,562.6,1267.6,1722.4,3438.2,3444.3,679.1,904.2,1255.1,1379.4,1188.5,982.5,-11.0,8.0,8.0,8332.0,11864.0,-5915.0,-4825.0,-6.0,-17.0,0.0,-7.0,-1.0,-1.0,11053.0,10742.0,4765.0,2861.0,-9.0,-10.0,2.0,1.0
2022-05-13 14:50:01.243901-07:00,1982.6,555.4,1124.4,1319.6,895.7,1115.6,1174.4,1262.2,3437.0,3444.3,1578.6,1370.3,1360.3,3445.5,1021.9,1445.1,3444.3,3435.8,734.0,1373.0,945.8,562.6,1267.6,1713.8,3438.2,3445.5,677.4,901.7,1255.1,1379.4,1188.5,982.5,-7.0,1.0,13.0,8331.0,11862.0,-5917.0,-4828.0,-5.0,-3.0,4.0,-4.0,-4.0,4.0,11053.0,10742.0,4765.0,2861.0,-3.0,-4.0,4.0,1.0
2022-05-13 14:50:01.379997-07:00,1982.6,555.4,1125.2,1313.3,895.7,1115.6,1174.4,1265.8,3437.0,3446.7,1576.8,1363.9,1360.3,3445.5,1021.9,1443.3,3438.2,3435.8,734.0,1373.0,950.9,559.4,1266.7,1713.8,3438.2,3445.5,677.4,901.7,1244.4,1378.5,1195.6,982.5,-2.0,6.0,5.0,8331.0,11863.0,-5916.0,-4827.0,14.0,13.0,5.0,-3.0,-2.0,3.0,11052.0,10743.0,4765.0,2861.0,13.0,8.0,0.0,1.0
2022-05-13 14:50:01.381618-07:00,1988.5,555.4,1125.2,1313.3,896.6,1126.1,1179.7,1265.8,3437.0,3446.7,1576.8,1363.9,1355.8,3438.2,1021.9,1443.3,3438.2,3428.6,731.5,1363.9,950.9,559.4,1266.7,1718.6,3438.2,3444.3,675.0,900.8,1244.4,1378.5,1195.6,985.0,-5.0,10.0,-1.0,8329.0,11867.0,-5915.0,-4821.0,0.0,4.0,-3.0,-5.0,0.0,-2.0,11049.0,10745.0,4766.0,2860.0,4.0,5.0,0.0,1.0
2022-05-13 14:50:01.382611-07:00,1988.5,553.0,1120.9,1312.4,896.6,1126.1,1179.7,1259.6,3437.0,3440.7,1579.6,1363.9,1355.8,3438.2,1021.9,1442.4,3433.4,3428.6,731.5,1363.9,945.8,567.4,1269.4,1718.6,3439.5,3444.3,675.0,900.8,1248.0,1380.3,1199.1,985.0,-5.0,2.0,0.0,8331.0,11866.0,-5914.0,-4822.0,-8.0,1.0,10.0,-4.0,-6.0,1.0,11050.0,10744.0,4766.0,2861.0,-6.0,-2.0,7.0,1.0
2022-05-13 14:50:01.424533-07:00,1991.5,556.2,1120.9,1312.4,888.2,1118.2,1179.7,1259.6,3435.8,3441.9,1579.6,1363.9,1362.1,3441.9,1017.6,1442.4,3433.4,3444.3,731.5,1373.9,945.8,567.4,1263.1,1717.7,3439.5,3446.7,674.2,919.4,1248.0,1380.3,1192.9,979.9,-1.0,9.0,3.0,8331.0,11865.0,-5915.0,-4822.0,-11.0,-5.0,-7.0,0.0,-2.0,0.0,11051.0,10744.0,4766.0,2861.0,-11.0,-3.0,0.0,1.0
2022-05-13 14:50:01.469728-07:00,1991.5,556.2,1123.5,1316.0,888.2,1118.2,1177.0,1257.8,3435.8,3441.9,1575.8,1367.6,1362.1,3441.9,1027.1,1445.1,3435.8,3439.5,731.5,1373.9,950.0,560.2,1263.1,1717.7,3440.7,3440.7,674.2,919.4,1244.4,1377.5,1192.9,979.9,-2.0,5.0,6.0,8333.0,11863.0,-5915.0,-4824.0,4.0,-16.0,13.0,-1.0,-1.0,2.0,11052.0,10742.0,4765.0,2861.0,4.0,-6.0,4.0,1.0
2022-05-13 14:50:01.559020-07:00,1984.6,557.8,1123.5,1316.0,892.4,1119.1,1177.0,1257.8,3443.1,3444.3,1575.8,1367.6,1362.1,3440.7,1027.1,1445.1,3435.8,3439.5,735.6,1379.4,950.0,560.2,1256.0,1722.4,3440.7,3440.7,680.7,907.6,1244.4,1377.5,1192.0,986.7,-8.0,12.0,9.0,8334.0,11862.0,-5916.0,-4826.0,-7.0,4.0,-6.0,-7.0,-3.0,4.0,11052.0,10742.0,4765.0,2861.0,-9.0,-6.0,-3.0,1.0
2022-05-13 14:50:01.604238-07:00,1984.6,557.8,1125.2,1313.3,892.4,1119.1,1183.2,1267.6,3443.1,3444.3,1581.4,1368.5,1362.1,3440.7,1022.8,1445.1,3441.9,3437.0,735.6,1379.4,946.6,564.2,1256.0,1722.4,3439.5,3439.5,680.7,907.6,1248.0,1378.5,1192.0,986.7,-4.0,4.0,10.0,8332.0,11863.0,-5916.0,-4825.0,16.0,10.0,-10.0,-2.0,-5.0,0.0,11052.0,10741.0,4768.0,2861.0,9.0,10.0,-10.0,1.0
2022-05-13 14:50:01.649162-07:00,1985.6,553.0,1125.2,1313.3,891.5,1120.9,1183.2,1267.6,3431.0,3438.2,1581.4,1368.5,1363.0,3438.2,1022.8,1445.1,3441.9,3437.0,730.7,1373.9,946.6,564.2,1265.8,1717.7,3439.5,3439.5,679.1,901.7,1248.0,1378.5,1196.5,981.6,-1.0,10.0,5.0,8328.0,11869.0,-5915.0,-4819.0,12.0,12.0,0.0,-2.0,2.0,-3.0,11047.0,10744.0,4773.0,2864.0,8.0,12.0,-2.0,1.0
2022-05-13 14:50:01.829077-07:00,1985.6,553.0,1125.2,1314.2,891.5,1120.9,1181.5,1264.0,3431.0,3438.2,1582.4,1369.4,1363.0,3438.2,1025.4,1448.8,3439.5,3438.2,730.7,1373.9,945.8,561.8,1265.8,1717.7,3432.2,3441.9,679.1,901.7,1250.6,1379.4,1196.5,981.6,-2.0,5.0,1.0,8328.0,11871.0,-5914.0,-4816.0,1.0,5.0,-6.0,-1.0,0.0,-6.0,11047.0,10743.0,4773.0,2864.0,-1.0,6.0,-1.0,1.0
2022-05-13 14:50:01.830088-07:00,1990.5,552.2,1120.9,1314.2,899.1,1115.6,1181.5,1264.0,3440.7,3441.9,1577.7,1369.4,1362.1,3435.8,1025.4,1448.8,3439.5,3438.2,730.7,1375.7,945.8,562.6,1260.4,1717.7,3432.2,3441.9,681.5,905.9,1250.6,1372.1,1192.9,977.3,-7.0,9.0,2.0,8327.0,11870.0,-5915.0,-4817.0,-1.0,-13.0,-2.0,-7.0,0.0,-6.0,11047.0,10743.0,4773.0,2864.0,-1.0,-7.0,-1.0,1.0
2022-05-13 14:50:01.831060-07:00,1990.5,552.2,1120.9,1307.9,899.1,1116.5,1185.0,1267.6,3440.7,3441.9,1577.7,1372.1,1362.1,3446.7,1014.2,1448.8,3435.8,3439.5,734.0,1375.7,948.3,562.6,1260.4,1717.7,3438.2,3433.4,676.6,905.9,1248.8,1372.1,1192.9,977.3,-9.0,6.0,9.0,8327.0,11868.0,-5917.0,-4822.0,-5.0,-9.0,1.0,-9.0,-4.0,2.0,11048.0,10743.0,4771.0,2863.0,-4.0,-10.0,0.0,1.0
2022-05-13 14:50:01.832882-07:00,1991.5,553.0,1131.4,1307.9,892.4,1116.5,1185.0,1267.6,3438.2,3434.6,1576.8,1372.1,1367.6,3446.7,1014.2,1448.8,3435.8,3439.5,734.0,1374.8,948.3,565.8,1263.1,1718.6,3438.2,3433.4,676.6,906.7,1248.8,1377.5,1198.2,984.2,-6.0,8.0,9.0,8327.0,11868.0,-5917.0,-4822.0,3.0,-10.0,-2.0,-4.0,-4.0,6.0,11048.0,10743.0,4771.0,2863.0,2.0,0.0,0.0,1.0
2022-05-13 14:50:01.873836-07:00,1991.5,553.0,1131.4,1314.2,892.4,1123.5,1175.3,1264.9,3438.2,3434.6,1576.8,1360.3,1367.6,3444.3,1019.4,1443.3,3441.9,3423.7,727.4,1374.8,950.9,565.8,1263.1,1718.6,3446.7,3439.5,670.9,906.7,1245.3,1377.5,1198.2,984.2,-8.0,10.0,8.0,8326.0,11868.0,-5917.0,-4821.0,19.0,13.0,-4.0,-3.0,1.0,0.0,11047.0,10744.0,4771.0,2863.0,12.0,8.0,-4.0,1.0
2022-05-13 14:50:01.921138-07:00,1983.6,560.2,1124.4,1314.2,889.8,1123.5,1175.3,1264.9,3438.2,3428.6,1578.6,1360.3,1355.8,3444.3,1019.4,1443.3,3441.9,3423.7,727.4,1370.3,950.9,570.6,1259.6,1720.5,3446.7,3439.5,670.9,906.7,1245.3,1373.9,1207.1,979.9,-2.0,7.0,0.0,8321.0,11873.0,-5918.0,-4816.0,12.0,0.0,-7.0,-3.0,0.0,-1.0,11043.0,10748.0,4773.0,2861.0,10.0,5.0,-3.0,1.0
2022-05-13 14:50:01.964593-07:00,1983.6,560.2,1124.4,1304.3,884.8,1120.0,1175.3,1264.0,3438.2,3428.6,1578.6,1365.7,1362.1,3440.7,1022.8,1439.6,3438.2,3434.6,731.5,1375.7,947.5,570.6,1259.6,1720.5,3440.7,3433.4,675.8,901.7,1257.8,1373.9,1207.1,979.9,-7.0,5.0,0.0,8321.0,11874.0,-5918.0,-4816.0,-11.0,1.0,8.0,-3.0,-7.0,0.0,11043.0,10748.0,4773.0,2861.0,-1.0,-4.0,4.0,1.0
2022-05-13 14:50:02.054005-07:00,1978.6,556.2,1126.1,1307.9,884.8,1120.0,1175.3,1264.0,3444.3,3441.9,1581.4,1363.9,1362.1,3440.7,1022.8,1439.6,3438.2,3434.6,731.5,1375.7,945.8,557.8,1264.9,1720.5,3440.7,3433.4,675.8,901.7,1249.7,1368.5,1199.1,981.6,-3.0,4.0,11.0,8317.0,11873.0,-5921.0,-4820.0,5.0,-12.0,-15.0,-3.0,0.0,-1.0,11043.0,10748.0,4773.0,2861.0,2.0,-3.0,-1.0,1.0
2022-05-13 14:50:02.099742-07:00,1978.6,556.2,1126.1,1307.9,893.2,1111.2,1177.0,1267.6,3444.3,3441.9,1581.4,1363.9,1364.8,3433.4,1021.1,1445.1,3454.0,3438.2,731.5,1373.0,945.8,557.8,1264.9,1720.5,3445.5,3437.0,675.0,905.9,1249.7,1368.5,1199.1,981.6,-3.0,14.0,8.0,8317.0,11873.0,-5921.0,-4820.0,9.0,-5.0,12.0,-2.0,0.0,1.0,11043.0,10748.0,4773.0,2861.0,8.0,-5.0,4.0,1.0
2022-05-13 14:50:02.144443-07:00,1985.6,553.8,1126.1,1317.8,893.2,1111.2,1177.0,1267.6,3449.1,3439.5,1578.6,1363.9,1364.8,3433.4,1021.1,1445.1,3454.0,3438.2,731.5,1373.0,947.5,562.6,1267.6,1721.5,3445.5,3437.0,675.0,905.9,1256.9,1371.2,1188.5,988.5,-11.0,9.0,6.0,8317.0,11874.0,-5921.0,-4819.0,5.0,4.0,-8.0,-7.0,-2.0,5.0,11043.0,10748.0,4773.0,2861.0,4.0,6.0,-7.0,1.0
2022-05-13 14:50:02.189848-07:00,1985.6,553.8,1126.1,1317.8,891.5,1116.5,1176.2,1267.6,3449.1,3439.5,1578.6,1363.9,1373.0,3449.1,1023.7,1438.7,3440.7,3441.9,734.0,1369.4,947.5,562.6,1267.6,1721.5,3449.1,3440.7,687.2,909.3,1256.9,1371.2,1188.5,988.5,-5.0,2.0,5.0,8314.0,11877.0,-5920.0,-4818.0,14.0,14.0,-3.0,-3.0,-5.0,-1.0,11043.0,10747.0,4774.0,2862.0,8.0,11.0,-3.0,1.0
2022-05-13 14:50:02.234251-07:00,1986.6,557.8,1123.5,1310.6,891.5,1116.5,1176.2,1257.8,3445.5,3439.5,1590.8,1368.5,1373.0,3449.1,1023.7,1436.0,3438.2,3441.9,734.0,1369.4,947.5,559.4,1263.1,1733.9,3437.0,3440.7,687.2,909.3,1248.8,1383.9,1187.6,987.6,-3.0,6.0,-4.0,8314.0,11879.0,-5919.0,-4814.0,4.0,5.0,2.0,-5.0,-1.0,-5.0,11043.0,10747.0,4776.0,2863.0,2.0,2.0,0.0,1.0
2022-05-13 14:50:02.324206-07:00,1979.6,557.8,1123.5,1310.6,886.5,1113.0,1177.9,1257.8,3440.7,3439.5,1590.8,1368.5,1364.8,3435.8,1017.6,1436.0,3438.2,3433.4,729.9,1374.8,947.5,559.4,1263.1,1720.5,3437.0,3439.5,679.9,906.7,1248.8,1383.9,1187.6,984.2,-3.0,2.0,1.0,8313.0,11879.0,-5918.0,-4815.0,-6.0,-10.0,-9.0,-5.0,0.0,-1.0,11043.0,10746.0,4775.0,2862.0,-10.0,-11.0,-3.0,1.0
2022-05-13 14:50:02.325700-07:00,1979.6,553.0,1133.1,1312.4,886.5,1113.0,1177.9,1261.3,3440.7,3440.7,1577.7,1364.8,1364.8,3435.8,1017.6,1441.5,3438.2,3433.4,729.9,1374.8,941.5,562.6,1264.0,1720.5,3439.5,3439.5,679.9,906.7,1250.6,1379.4,1198.2,984.2,-14.0,12.0,8.0,8311.0,11878.0,-5921.0,-4819.0,4.0,-10.0,2.0,-10.0,0.0,3.0,11045.0,10746.0,4773.0,2862.0,-3.0,-10.0,1.0,1.0
2022-05-13 14:50:02.414939-07:00,1984.6,553.0,1133.1,1312.4,894.1,1107.8,1173.5,1261.3,3432.2,3440.7,1577.7,1364.8,1354.9,3440.7,1021.1,1441.5,3438.2,3437.0,732.3,1377.5,941.5,562.6,1264.0,1722.4,3439.5,3449.1,675.8,907.6,1250.6,1379.4,1198.2,979.9,-10.0,8.0,9.0,8310.0,11877.0,-5922.0,-4821.0,7.0,0.0,-7.0,-7.0,-3.0,4.0,11044.0,10747.0,4774.0,2861.0,11.0,4.0,-2.0,1.0
2022-05-13 14:50:02.416025-07:00,1984.6,553.8,1118.2,1319.6,894.1,1107.8,1173.5,1263.1,3432.2,3444.3,1575.8,1363.9,1354.9,3440.7,1021.1,1443.3,3443.1,3437.0,732.3,1377.5,942.4,563.4,1267.6,1722.4,3447.9,3449.1,675.8,907.6,1239.9,1376.6,1195.6,979.9,-4.0,4.0,2.0,8308.0,11879.0,-5923.0,-4819.0,2.0,5.0,0.0,-4.0,2.0,-3.0,11043.0,10748.0,4774.0,2861.0,-4.0,1.0,3.0,1.0
2022-05-13 14:50:02.505354-07:00,1976.6,553.8,1118.2,1319.6,901.7,1110.4,1176.2,1263.1,3449.1,3444.3,1575.8,1363.9,1358.5,3429.8,1025.4,1443.3,3443.1,3435.8,732.3,1370.3,942.4,563.4,1267.6,1720.5,3447.9,3443.1,673.3,902.5,1239.9,1376.6,1195.6,979.0,-6.0,15.0,-2.0,8308.0,11879.0,-5925.0,-4817.0,14.0,-9.0,10.0,-5.0,0.0,-2.0,11042.0,10748.0,4774.0,2861.0,6.0,-2.0,-2.0,1.0
2022-05-13 14:50:02.549437-07:00,1976.6,552.2,1127.0,1308.8,901.7,1110.4,1178.8,1256.9,3449.1,3437.0,1583.3,1367.6,1358.5,3429.8,1028.8,1436.9,3434.6,3439.5,732.3,1370.3,945.8,561.0,1262.2,1720.5,3444.3,3443.1,673.3,902.5,1255.1,1377.5,1192.0,979.0,-4.0,0.0,4.0,8304.0,11880.0,-5926.0,-4821.0,-4.0,-8.0,-10.0,-3.0,-3.0,0.0,11042.0,10748.0,4774.0,2861.0,-5.0,-6.0,-2.0,1.0
2022-05-13 14:50:02.594216-07:00,1981.6,560.2,1127.0,1308.8,894.1,1120.9,1178.8,1256.9,3446.7,3441.9,1583.3,1367.6,1363.9,3438.2,1028.8,1436.9,3434.6,3439.5,724.9,1370.3,945.8,561.0,1265.8,1716.7,3444.3,3443.1,674.2,905.9,1255.1,1377.5,1192.0,987.6,-5.0,9.0,2.0,8304.0,11879.0,-5927.0,-4820.0,-4.0,-5.0,14.0,-2.0,-5.0,-2.0,11043.0,10749.0,4772.0,2860.0,0.0,-10.0,10.0,1.0
2022-05-13 14:50:02.639111-07:00,1981.6,560.2,1127.9,1316.9,894.1,1120.9,1181.5,1260.4,3446.7,3441.9,1577.7,1369.4,1363.9,3438.2,1020.2,1441.5,3439.5,3433.4,724.9,1370.3,947.5,559.4,1265.8,1716.7,3438.2,3444.3,674.2,905.9,1245.3,1374.8,1192.0,987.6,-11.0,11.0,3.0,8303.0,11876.0,-5932.0,-4823.0,-5.0,-19.0,-5.0,-6.0,-4.0,3.0,11045.0,10750.0,4768.0,2856.0,-9.0,-16.0,-3.0,1.0
2022-05-13 14:50:02.773527-07:00,1988.5,552.2,1127.9,1316.9,888.2,1114.7,1181.5,1260.4,3437.0,3446.7,1577.7,1369.4,1356.7,3437.0,1020.2,1441.5,3439.5,3433.4,729.0,1367.6,947.5,559.4,1262.2,1714.8,3438.2,3444.3,677.4,904.2,1245.3,1374.8,1188.5,981.6,-6.0,3.0,16.0,8300.0,11874.0,-5936.0,-4829.0,-3.0,-6.0,2.0,-2.0,0.0,3.0,11045.0,10750.0,4767.0,2855.0,0.0,-2.0,9.0,1.0
2022-05-13 14:50:02.777210-07:00,1988.5,552.2,1118.2,1307.9,888.2,1114.7,1179.7,1261.3,3437.0,3446.7,1579.6,1363.9,1356.7,3437.0,1019.4,1436.9,3439.5,3435.8,729.0,1367.6,948.3,566.6,1262.2,1714.8,3428.6,3439.5,677.4,904.2,1248.8,1379.4,1188.5,981.6,-12.0,22.0,3.0,8301.0,11875.0,-5938.0,-4822.0,15.0,18.0,10.0,-4.0,3.0,4.0,11042.0,10753.0,4768.0,2854.0,11.0,8.0,-3.0,1.0
2022-05-13 14:50:02.778239-07:00,1987.5,556.2,1122.6,1307.9,892.4,1120.9,1179.7,1261.3,3433.4,3435.8,1582.4,1363.9,1373.0,3438.2,1019.4,1436.9,3439.5,3435.8,724.9,1363.0,948.3,563.4,1257.8,1718.6,3428.6,3439.5,679.9,901.7,1248.8,1379.4,1190.3,1000.5,-9.0,1.0,5.0,8296.0,11881.0,-5935.0,-4821.0,16.0,-6.0,-14.0,-6.0,-6.0,2.0,11043.0,10752.0,4772.0,2852.0,3.0,4.0,-10.0,1.0
2022-05-13 14:50:02.997051-07:00,1987.5,556.2,1122.6,1301.6,892.4,1120.0,1174.4,1262.2,3433.4,3435.8,1582.4,1368.5,1373.0,3441.9,1021.1,1443.3,3432.2,3438.2,732.3,1363.0,953.4,563.4,1257.8,1718.6,3451.6,3438.2,675.8,901.7,1245.3,1379.4,1190.3,1000.5,-10.0,0.0,7.0,8296.0,11880.0,-5936.0,-4820.0,2.0,5.0,11.0,-7.0,-9.0,0.0,11043.0,10752.0,4772.0,2852.0,4.0,4.0,6.0,1.0
2022-05-13 14:50:03.044497-07:00,1985.6,556.2,1120.0,1301.6,896.6,1120.0,1174.4,1262.2,3439.5,3439.5,1586.1,1368.5,1360.3,3441.9,1021.1,1443.3,3432.2,3438.2,732.3,1371.2,953.4,568.2,1263.1,1716.7,3451.6,3438.2,675.8,909.3,1245.3,1376.6,1185.0,978.2,-9.0,6.0,-4.0,8297.0,11880.0,-5936.0,-4819.0,-13.0,-5.0,-6.0,-6.0,-3.0,-4.0,11043.0,10752.0,4772.0,2852.0,-9.0,-1.0,2.0,1.0
2022-05-13 14:50:03.089123-07:00,1985.6,556.2,1120.0,1308.8,896.6,1120.9,1184.1,1267.6,3439.5,3439.5,1586.1,1363.9,1360.3,3444.3,1021.1,1442.4,3428.6,3439.5,731.5,1371.2,947.5,568.2,1263.1,1716.7,3438.2,3445.5,678.2,909.3,1246.2,1376.6,1185.0,978.2,-6.0,4.0,1.0,8302.0,11875.0,-5939.0,-4820.0,-16.0,-6.0,21.0,-3.0,0.0,1.0,11043.0,10752.0,4768.0,2853.0,-8.0,-11.0,13.0,1.0
2022-05-13 14:50:03.092320-07:00,1977.6,559.4,1126.1,1308.8,893.2,1120.9,1184.1,1267.6,3440.7,3440.7,1579.6,1363.9,1360.3,3444.3,1021.1,1442.4,3428.6,3439.5,731.5,1371.2,947.5,569.0,1269.4,1720.5,3438.2,3445.5,678.2,905.9,1246.2,1383.0,1196.5,985.9,-8.0,13.0,11.0,8305.0,11871.0,-5941.0,-4822.0,-1.0,-11.0,-5.0,-3.0,1.0,10.0,11044.0,10752.0,4765.0,2853.0,0.0,-4.0,0.0,1.0
2022-05-13 14:50:03.093421-07:00,1977.6,559.4,1126.1,1307.0,893.2,1120.9,1168.2,1261.3,3440.7,3440.7,1579.6,1372.1,1360.3,3441.9,1017.6,1438.7,3434.6,3431.0,726.6,1371.2,940.7,569.0,1269.4,1720.5,3444.3,3435.8,677.4,905.9,1247.1,1383.0,1196.5,985.9,-8.0,4.0,14.0,8305.0,11870.0,-5942.0,-4822.0,8.0,11.0,5.0,-1.0,-3.0,2.0,11043.0,10753.0,4766.0,2853.0,12.0,10.0,0.0,1.0
2022-05-13 14:50:03.223932-07:00,1985.6,558.6,1123.5,1301.6,891.5,1120.9,1168.2,1261.3,3451.6,3441.9,1577.7,1363.9,1361.2,3441.9,1017.6,1438.7,3434.6,3431.0,726.6,1367.6,949.2,562.6,1264.9,1716.7,3444.3,3435.8,677.4,901.7,1244.4,1376.6,1190.3,983.3,-7.0,14.0,2.0,8305.0,11876.0,-5938.0,-4813.0,5.0,25.0,0.0,-8.0,3.0,-1.0,11039.0,10755.0,4771.0,2856.0,7.0,15.0,2.0,1.0
2022-05-13 14:50:03.225962-07:00,1985.6,558.6,1123.5,1301.6,889.0,1118.2,1179.7,1261.3,3451.6,3441.9,1577.7,1363.9,1370.3,3433.4,1015.9,1443.3,3441.9,3433.4,726.6,1373.9,949.2,562.6,1264.9,1716.7,3439.5,3444.3,671.7,906.7,1244.4,1376.6,1190.3,983.3,-6.0,1.0,0.0,8306.0,11877.0,-5937.0,-4809.0,13.0,1.0,11.0,-4.0,-5.0,-3.0,11038.0,10755.0,4771.0,2856.0,11.0,0.0,4.0,1.0
2022-05-13 14:50:03.227003-07:00,1983.6,555.4,1133.1,1307.0,889.0,1118.2,1179.7,1261.3,3439.5,3438.2,1590.8,1366.6,1370.3,3433.4,1015.9,1443.3,3441.9,3433.4,726.6,1373.9,946.6,559.4,1259.6,1722.4,3439.5,3444.3,671.7,906.7,1248.0,1373.9,1193.8,979.0,-6.0,9.0,5.0,8309.0,11875.0,-5939.0,-4809.0,-16.0,2.0,7.0,-6.0,-1.0,-3.0,11038.0,10755.0,4771.0,2856.0,-7.0,-7.0,6.0,1.0
2022-05-13 14:50:03.228013-07:00,1983.6,555.4,1133.1,1307.0,890.7,1112.1,1178.8,1254.2,3439.5,3438.2,1590.8,1366.6,1361.2,3428.6,1021.1,1438.7,3443.1,3431.0,741.4,1373.0,946.6,559.4,1259.6,1722.4,3441.9,3441.9,692.1,906.7,1248.0,1373.9,1193.8,979.0,-6.0,6.0,8.0,8307.0,11876.0,-5939.0,-4808.0,10.0,-1.0,6.0,-5.0,0.0,1.0,11036.0,10757.0,4772.0,2856.0,8.0,-4.0,5.0,1.0
2022-05-13 14:50:03.313795-07:00,1982.6,551.4,1125.2,1301.6,890.7,1112.1,1178.8,1254.2,3439.5,3440.7,1570.2,1360.3,1361.2,3428.6,1021.1,1438.7,3443.1,3431.0,741.4,1373.0,940.7,561.8,1263.1,1718.6,3441.9,3441.9,692.1,906.7,1245.3,1373.9,1195.6,985.9,-8.0,11.0,7.0,8306.0,11875.0,-5941.0,-4809.0,8.0,-12.0,0.0,-3.0,0.0,0.0,11036.0,10757.0,4772.0,2856.0,7.0,-2.0,-1.0,1.0
2022-05-13 14:50:03.629828-07:00,1981.6,551.4,1125.2,1301.6,881.4,1111.2,1175.3,1264.9,3449.1,3440.7,1570.2,1360.3,1363.0,3443.1,1032.3,1437.8,3437.0,3441.9,732.3,1373.0,940.7,561.8,1263.1,1722.4,3435.8,3438.2,677.4,898.3,1245.3,1373.9,1195.6,979.9,-12.0,3.0,9.0,8304.0,11876.0,-5941.0,-4809.0,16.0,4.0,9.0,0.0,-9.0,4.0,11035.0,10758.0,4772.0,2855.0,10.0,8.0,1.0,1.0
2022-05-13 14:50:03.632066-07:00,1981.6,555.4,1121.7,1306.1,881.4,1111.2,1175.3,1260.4,3449.1,3439.5,1569.3,1366.6,1363.0,3443.1,1032.3,1445.1,3444.3,3441.9,732.3,1373.0,945.8,565.0,1267.6,1722.4,3443.1,3438.2,677.4,898.3,1249.7,1374.8,1195.6,979.9,-6.0,2.0,5.0,8305.0,11878.0,-5940.0,-4805.0,2.0,14.0,4.0,-2.0,-9.0,-1.0,11034.0,10758.0,4773.0,2855.0,1.0,6.0,6.0,1.0
2022-05-13 14:50:03.719259-07:00,1985.6,555.4,1121.7,1306.1,888.2,1119.1,1179.7,1260.4,3449.1,3439.5,1569.3,1366.6,1362.1,3446.7,1024.5,1445.1,3444.3,3439.5,724.9,1377.5,945.8,565.0,1267.6,1719.6,3443.1,3443.1,674.2,902.5,1249.7,1374.8,1195.6,983.3,-2.0,9.0,2.0,8304.0,11879.0,-5940.0,-4805.0,-11.0,3.0,3.0,0.0,0.0,0.0,11034.0,10759.0,4773.0,2855.0,-10.0,1.0,7.0,1.0
2022-05-13 14:50:03.720814-07:00,1985.6,555.4,1125.2,1318.7,888.2,1119.1,1179.7,1254.2,3449.1,3439.5,1579.6,1370.3,1362.1,3446.7,1024.5,1442.4,3445.5,3439.5,724.9,1377.5,939.8,569.8,1268.5,1719.6,3445.5,3443.1,674.2,902.5,1244.4,1384.8,1200.0,983.3,-8.0,0.0,0.0,8309.0,11875.0,-5941.0,-4805.0,-8.0,6.0,18.0,-3.0,-7.0,-3.0,11035.0,10758.0,4768.0,2860.0,3.0,-4.0,18.0,1.0
2022-05-13 14:50:03.721835-07:00,1969.7,555.4,1125.2,1318.7,889.8,1120.9,1172.6,1254.2,3449.1,3439.5,1579.6,1370.3,1363.9,3443.1,1021.9,1442.4,3445.5,3428.6,733.2,1369.4,939.8,569.8,1268.5,1714.8,3445.5,3441.9,679.9,905.0,1244.4,1384.8,1200.0,979.9,-7.0,13.0,5.0,8311.0,11869.0,-5952.0,-4803.0,6.0,0.0,2.0,-3.0,-3.0,2.0,11034.0,10762.0,4759.0,2863.0,11.0,0.0,6.0,1.0
2022-05-13 14:50:03.722831-07:00,2003.5,556.2,1127.0,1316.9,889.0,1116.5,1174.4,1259.6,3441.9,3435.8,1575.8,1364.8,1368.5,3441.9,1020.2,1444.2,3438.2,3441.9,732.3,1374.8,947.5,567.4,1263.1,1717.7,3441.9,3444.3,676.6,902.5,1252.4,1375.7,1203.5,977.3,-3.0,3.0,6.0,8311.0,11869.0,-5952.0,-4803.0,3.0,9.0,8.0,-1.0,-3.0,-1.0,11034.0,10762.0,4759.0,2863.0,6.0,-3.0,9.0,1.0
2022-05-13 14:50:03.853529-07:00,2003.5,556.2,1126.1,1310.6,889.0,1116.5,1169.1,1256.9,3441.9,3435.8,1584.2,1367.6,1368.5,3441.9,1022.8,1445.1,3439.5,3444.3,732.3,1374.8,950.0,566.6,1263.1,1717.7,3447.9,3441.9,676.6,902.5,1250.6,1375.7,1203.5,977.3,-2.0,8.0,0.0,8313.0,11867.0,-5955.0,-4800.0,-6.0,-6.0,9.0,0.0,1.0,-2.0,11034.0,10763.0,4757.0,2866.0,1.0,-2.0,10.0,1.0
2022-05-13 14:50:03.855291-07:00,1972.7,558.6,1126.1,1310.6,893.2,1118.2,1169.1,1256.9,3434.6,3445.5,1584.2,1367.6,1357.6,3440.7,1022.8,1445.1,3439.5,3444.3,731.5,1368.5,950.0,566.6,1263.1,1725.3,3447.9,3441.9,679.1,907.6,1250.6,1375.7,1196.5,982.5,-4.0,10.0,3.0,8313.0,11867.0,-5955.0,-4800.0,-4.0,-8.0,8.0,0.0,1.0,-1.0,11033.0,10764.0,4755.0,2868.0,-1.0,-7.0,7.0,1.0
2022-05-13 14:50:03.856359-07:00,1972.7,558.6,1128.7,1307.0,893.2,1116.5,1172.6,1259.6,3434.6,3445.5,1577.7,1373.9,1357.6,3438.2,1017.6,1445.1,3439.5,3434.6,729.9,1368.5,948.3,566.6,1263.1,1725.3,3440.7,3438.2,679.9,907.6,1248.8,1378.5,1196.5,982.5,-7.0,8.0,8.0,8316.0,11864.0,-5958.0,-4799.0,-1.0,3.0,11.0,-3.0,-6.0,3.0,11033.0,10764.0,4754.0,2867.0,-8.0,-7.0,6.0,1.0
2022-05-13 14:50:03.990546-07:00,1966.7,561.0,1127.0,1307.0,886.5,1116.5,1172.6,1259.6,3437.0,3432.2,1580.5,1373.9,1356.7,3438.2,1017.6,1445.1,3439.5,3434.6,729.9,1373.9,948.3,565.0,1262.2,1717.7,3440.7,3438.2,679.9,900.8,1248.8,1383.0,1194.7,979.9,-10.0,17.0,7.0,8316.0,11863.0,-5958.0,-4799.0,-18.0,7.0,-15.0,-7.0,3.0,4.0,11034.0,10764.0,4754.0,2868.0,-14.0,1.0,-5.0,1.0
2022-05-13 14:50:04.034003-07:00,1966.7,561.0,1127.0,1307.9,886.5,1111.2,1168.2,1256.0,3437.0,3432.2,1580.5,1363.9,1356.7,3439.5,1028.8,1435.0,3444.3,3444.3,729.0,1373.9,951.7,565.0,1262.2,1717.7,3439.5,3437.0,673.3,900.8,1251.5,1383.0,1194.7,979.9,-8.0,9.0,3.0,8318.0,11863.0,-5955.0,-4802.0,10.0,0.0,-3.0,-5.0,1.0,3.0,11036.0,10762.0,4753.0,2869.0,3.0,5.0,-5.0,1.0
2022-05-13 14:50:04.080039-07:00,1987.5,557.8,1124.4,1307.9,894.1,1111.2,1168.2,1256.0,3446.7,3438.2,1575.8,1363.9,1361.2,3439.5,1028.8,1435.0,3444.3,3444.3,729.0,1370.3,951.7,562.6,1262.2,1722.4,3439.5,3437.0,673.3,901.7,1251.5,1376.6,1194.7,983.3,-8.0,4.0,0.0,8316.0,11864.0,-5954.0,-4802.0,4.0,-2.0,-12.0,-5.0,-2.0,0.0,11036.0,10762.0,4754.0,2869.0,-6.0,6.0,-5.0,1.0
2022-05-13 14:50:04.081118-07:00,1987.5,557.8,1124.4,1306.1,894.1,1118.2,1174.4,1255.1,3446.7,3438.2,1575.8,1363.9,1361.2,3444.3,1020.2,1438.7,3435.8,3432.2,734.8,1370.3,947.5,562.6,1262.2,1722.4,3437.0,3439.5,679.9,901.7,1244.4,1376.6,1194.7,983.3,-5.0,4.0,4.0,8314.0,11865.0,-5954.0,-4804.0,-5.0,-10.0,0.0,-4.0,-3.0,-3.0,11036.0,10762.0,4754.0,2869.0,-3.0,-2.0,-2.0,1.0
2022-05-13 14:50:04.125048-07:00,1977.6,560.2,1120.0,1310.6,893.2,1118.2,1174.4,1255.1,3437.0,3435.8,1573.9,1367.6,1360.3,3444.3,1020.2,1438.7,3435.8,3432.2,734.8,1366.6,950.0,565.0,1264.9,1718.6,3437.0,3439.5,679.9,903.4,1252.4,1376.6,1197.4,976.5,-6.0,13.0,5.0,8312.0,11864.0,-5956.0,-4809.0,2.0,-18.0,-13.0,-2.0,5.0,-1.0,11036.0,10762.0,4754.0,2869.0,-1.0,-5.0,-8.0,1.0
2022-05-13 14:50:04.213736-07:00,1977.6,560.2,1120.0,1310.6,893.2,1120.0,1174.4,1263.1,3437.0,3435.8,1573.9,1367.6,1359.4,3435.8,1021.1,1438.7,3439.5,3439.5,732.3,1366.6,950.0,565.0,1264.9,1718.6,3444.3,3446.7,679.1,900.0,1252.4,1376.6,1197.4,976.5,-5.0,2.0,6.0,8309.0,11864.0,-5955.0,-4815.0,20.0,-11.0,-1.0,-1.0,-5.0,3.0,11036.0,10761.0,4755.0,2867.0,9.0,-5.0,-9.0,1.0
2022-05-13 14:50:04.215259-07:00,1976.6,553.0,1127.0,1315.1,893.2,1120.0,1174.4,1263.1,3438.2,3445.5,1568.3,1362.1,1359.4,3435.8,1021.1,1438.7,3439.5,3439.5,732.3,1366.6,946.6,568.2,1257.8,1720.5,3444.3,3446.7,679.1,900.0,1239.1,1383.0,1188.5,981.6,-4.0,5.0,7.0,8305.0,11866.0,-5958.0,-4814.0,-11.0,-2.0,-4.0,-4.0,-3.0,0.0,11035.0,10762.0,4756.0,2865.0,-7.0,-3.0,-6.0,1.0
2022-05-13 14:50:04.259829-07:00,1976.6,553.0,1127.0,1315.1,884.8,1120.9,1176.2,1254.2,3438.2,3445.5,1568.3,1362.1,1360.3,3438.2,1016.8,1436.9,3444.3,3437.0,730.7,1372.1,946.6,568.2,1257.8,1720.5,3440.7,3444.3,675.0,906.7,1239.1,1383.0,1188.5,981.6,-8.0,7.0,2.0,8303.0,11866.0,-5959.0,-4815.0,22.0,-13.0,2.0,-7.0,0.0,1.0,11034.0,10763.0,4756.0,2865.0,17.0,-2.0,-5.0,1.0
2022-05-13 14:50:04.439917-07:00,1982.6,553.8,1112.1,1301.6,884.8,1120.9,1176.2,1254.2,3435.8,3437.0,1574.9,1368.5,1360.3,3438.2,1016.8,1436.9,3444.3,3437.0,730.7,1372.1,942.4,561.0,1266.7,1711.9,3440.7,3444.3,675.0,906.7,1245.3,1356.7,1195.6,974.8,-13.0,6.0,5.0,8303.0,11866.0,-5959.0,-4816.0,-9.0,-9.0,-3.0,-8.0,-4.0,2.0,11035.0,10763.0,4756.0,2865.0,-11.0,-6.0,-2.0,1.0
2022-05-13 14:50:04.844861-07:00,1982.6,553.8,1112.1,1301.6,890.7,1133.1,1171.8,1252.4,3435.8,3437.0,1574.9,1368.5,1364.8,3437.0,1025.4,1440.5,3428.6,3429.8,729.9,1372.1,942.4,561.0,1266.7,1711.9,3446.7,3438.2,678.2,906.7,1245.3,1356.7,1195.6,974.8,-9.0,6.0,9.0,8300.0,11866.0,-5962.0,-4818.0,-3.0,0.0,-4.0,-2.0,-3.0,0.0,11035.0,10763.0,4756.0,2865.0,2.0,-2.0,-5.0,1.0
2022-05-13 14:50:04.934355-07:00,1974.6,547.4,1130.5,1314.2,890.7,1133.1,1171.8,1255.1,3441.9,3440.7,1576.8,1370.3,1364.8,3437.0,1025.4,1439.6,3439.5,3429.8,729.9,1372.1,946.6,565.0,1267.6,1717.7,3440.7,3438.2,678.2,906.7,1248.0,1377.5,1187.6,983.3,-6.0,8.0,5.0,8300.0,11866.0,-5962.0,-4818.0,-1.0,-6.0,5.0,-3.0,0.0,0.0,11035.0,10763.0,4756.0,2865.0,3.0,-5.0,3.0,1.0
2022-05-13 14:50:05.293064-07:00,1983.6,547.4,1130.5,1314.2,891.5,1113.0,1171.8,1255.1,3444.3,3440.7,1576.8,1370.3,1360.3,3446.7,1015.9,1439.6,3439.5,3438.2,731.5,1364.8,946.6,565.0,1267.6,1719.6,3440.7,3450.4,673.3,899.1,1248.0,1377.5,1187.6,987.6,-9.0,10.0,5.0,8299.0,11865.0,-5963.0,-4819.0,12.0,-13.0,-10.0,-6.0,-2.0,0.0,11035.0,10763.0,4756.0,2865.0,-1.0,-6.0,-9.0,1.0
2022-05-13 14:50:05.297032-07:00,1983.6,549.0,1126.1,1314.2,891.5,1113.0,1171.8,1254.2,3444.3,3445.5,1574.9,1358.5,1360.3,3446.7,1015.9,1431.4,3428.6,3438.2,731.5,1364.8,950.0,566.6,1259.6,1719.6,3439.5,3450.4,673.3,899.1,1249.7,1381.2,1192.9,987.6,-9.0,0.0,8.0,8296.0,11865.0,-5963.0,-4823.0,-1.0,-1.0,-4.0,-5.0,-7.0,0.0,11036.0,10762.0,4758.0,2862.0,-2.0,3.0,-6.0,1.0
2022-05-13 14:50:05.609280-07:00,1975.6,549.0,1126.1,1314.2,891.5,1131.4,1173.5,1254.2,3447.9,3445.5,1574.9,1358.5,1358.5,3437.0,1021.1,1431.4,3428.6,3437.0,736.5,1366.6,950.0,566.6,1259.6,1726.3,3439.5,3441.9,673.3,898.3,1249.7,1381.2,1192.9,980.7,-5.0,9.0,5.0,8296.0,11865.0,-5963.0,-4823.0,6.0,-7.0,-1.0,-1.0,0.0,0.0,11036.0,10762.0,4758.0,2862.0,0.0,-2.0,0.0,1.0
2022-05-13 14:50:05.611415-07:00,1976.6,556.2,1120.0,1306.1,893.2,1116.5,1175.3,1261.3,3439.5,3443.1,1578.6,1369.4,1354.9,3437.0,1017.6,1443.3,3437.0,3444.3,734.0,1367.6,942.4,563.4,1264.9,1714.8,3444.3,3438.2,678.2,874.7,1245.3,1374.8,1194.7,980.7,-10.0,6.0,-1.0,8292.0,11861.0,-5968.0,-4836.0,4.0,-8.0,-10.0,-7.0,1.0,0.0,11039.0,10761.0,4754.0,2858.0,4.0,1.0,-3.0,1.0
2022-05-13 14:50:05.612529-07:00,1981.6,553.8,1114.7,1316.9,899.1,1119.1,1165.6,1260.4,3428.6,3433.4,1578.6,1363.9,1360.3,3441.9,1024.5,1429.5,3432.2,3438.2,726.6,1368.5,950.0,566.6,1272.1,1712.9,3438.2,3443.1,675.8,898.3,1239.9,1377.5,1196.5,978.2,-8.0,1.0,5.0,8290.0,11857.0,-5972.0,-4843.0,7.0,5.0,2.0,-2.0,-6.0,3.0,11039.0,10761.0,4754.0,2858.0,4.0,2.0,1.0,1.0
2022-05-13 14:50:05.653651-07:00,1973.7,549.0,1119.1,1310.6,888.2,1113.9,1170.9,1256.9,3434.6,3441.9,1577.7,1362.1,1359.4,3435.8,1010.8,1436.9,3437.0,3438.2,726.6,1375.7,942.4,565.0,1263.1,1722.4,3443.1,3437.0,675.0,897.4,1243.5,1374.8,1191.2,985.0,-23.0,14.0,-6.0,8255.0,11928.0,-5932.0,-4778.0,167.0,-43.0,67.0,-22.0,8.0,-9.0,11008.0,10774.0,4802.0,2848.0,114.0,24.0,-36.0,1.0
2022-05-13 14:50:05.655930-07:00,2613.4,565.0,1766.6,1616.2,918.6,1317.8,1192.9,1299.8,3428.6,3445.5,2489.8,1655.8,1504.1,3447.9,1667.2,1895.8,3435.8,3434.6,773.6,1393.9,949.2,568.2,1390.3,1845.0,3441.9,3449.1,737.3,977.3,1265.8,1886.0,1886.0,976.5,-27.0,-12.0,-21.0,8206.0,11371.0,-6351.0,-5610.0,-64.0,-368.0,58.0,8.0,-34.0,14.0,11159.0,10646.0,4800.0,2746.0,-56.0,-15.0,-37.0,1.0
2022-05-13 14:50:05.744112-07:00,2454.7,568.2,1766.6,1616.2,916.0,1331.4,1260.4,1299.8,3439.5,3438.2,2489.8,1655.8,1513.4,3441.9,1630.3,1895.8,3435.8,3450.4,779.4,1406.7,949.2,568.2,1403.0,1861.5,3441.9,3441.9,747.2,991.0,1265.8,1886.0,1863.5,979.9,21.0,29.0,0.0,8162.0,11315.0,-6441.0,-5684.0,-21.0,-187.0,47.0,-5.0,2.0,-18.0,11154.0,10656.0,4803.0,2721.0,64.0,-28.0,-21.0,1.0
2022-05-13 14:50:05.834604-07:00,2454.7,568.2,1796.5,1651.1,916.0,1331.4,1392.1,1388.5,3439.5,3438.2,2468.5,1679.5,1513.4,3441.9,1582.4,1910.5,3429.8,3437.0,779.4,1406.7,955.1,569.0,1403.0,1861.5,3439.5,3444.3,747.2,991.0,1262.2,1895.8,1863.5,979.9,-43.0,-7.0,-6.0,8150.0,11258.0,-6484.0,-5765.0,-102.0,-357.0,64.0,0.0,-5.0,9.0,11166.0,10648.0,4801.0,2706.0,-53.0,-52.0,-23.0,1.0
2022-05-13 14:50:05.836971-07:00,2292.1,600.4,1796.5,1651.1,936.4,1339.5,1392.1,1388.5,3429.8,3441.9,2468.5,1679.5,1542.2,3435.8,1582.4,1910.5,3429.8,3437.0,792.7,1402.1,955.1,569.0,1411.3,1856.7,3439.5,3444.3,753.8,983.3,1262.2,1895.8,1835.2,985.0,10.0,41.0,0.0,8115.0,11196.0,-6549.0,-5858.0,-73.0,-269.0,-14.0,0.0,9.0,0.0,11187.0,10636.0,4791.0,2686.0,-55.0,-54.0,-37.0,1.0
2022-05-13 14:50:05.923712-07:00,2292.1,600.4,1782.0,1641.6,936.4,1339.5,1499.5,1482.9,3429.8,3441.9,2431.4,1677.6,1542.2,3435.8,1544.1,1904.6,3434.6,3439.5,792.7,1402.1,959.4,569.8,1411.3,1856.7,3435.8,3428.6,753.8,983.3,1336.8,1878.1,1835.2,985.0,-28.0,-44.0,12.0,8110.0,11162.0,-6548.0,-5934.0,-55.0,-139.0,-28.0,-7.0,-22.0,12.0,11211.0,10617.0,4787.0,2665.0,-12.0,-49.0,-33.0,1.0
2022-05-13 14:50:05.924855-07:00,2218.8,621.4,1782.0,1641.6,945.8,1338.6,1499.5,1482.9,3432.2,3438.2,2431.4,1677.6,1548.7,3441.9,1544.1,1904.6,3434.6,3439.5,804.4,1406.7,959.4,569.8,1410.3,1878.1,3435.8,3428.6,747.2,981.6,1336.8,1878.1,1836.2,984.2,9.0,24.0,25.0,8087.0,11131.0,-6581.0,-5986.0,-49.0,-139.0,-48.0,-4.0,8.0,-2.0,11221.0,10615.0,4780.0,2647.0,-34.0,-18.0,-25.0,1.0
2022-05-13 14:50:06.013995-07:00,2218.8,621.4,1760.8,1649.2,945.8,1338.6,1534.8,1497.7,3432.2,3438.2,2386.0,1671.0,1548.7,3441.9,1534.8,1896.7,3427.4,3441.9,804.4,1406.7,956.0,576.2,1410.3,1878.1,3435.8,3435.8,747.2,981.6,1364.8,1869.3,1836.2,984.2,-18.0,-28.0,17.0,8084.0,11116.0,-6578.0,-6021.0,-26.0,-79.0,-3.0,-3.0,-16.0,21.0,11227.0,10610.0,4780.0,2642.0,-1.0,-11.0,-12.0,1.0
2022-05-13 14:50:06.016515-07:00,2161.6,627.8,1745.4,1649.2,942.4,1324.1,1534.8,1497.7,3435.8,3431.0,2358.8,1671.0,1546.9,3433.4,1534.8,1896.7,3427.4,3441.9,818.5,1414.0,956.0,569.8,1413.1,1897.7,3435.8,3435.8,754.6,977.3,1364.8,1860.6,1803.2,979.0,17.0,18.0,25.0,8076.0,11089.0,-6616.0,-6040.0,10.0,-81.0,72.0,-2.0,-5.0,-24.0,11229.0,10614.0,4766.0,2638.0,7.0,-35.0,37.0,1.0
2022-05-13 14:50:06.102262-07:00,2161.6,627.8,1745.4,1636.0,942.4,1325.9,1536.6,1513.4,3435.8,3431.0,2358.8,1668.2,1546.9,3440.7,1518.0,1885.0,3435.8,3428.6,815.2,1414.0,960.2,569.8,1413.1,1897.7,3440.7,3433.4,749.6,977.3,1367.6,1860.6,1803.2,979.0,-44.0,-12.0,3.0,8080.0,11092.0,-6619.0,-6025.0,59.0,84.0,24.0,-5.0,4.0,35.0,11218.0,10626.0,4762.0,2649.0,65.0,30.0,36.0,1.0
2022-05-13 14:50:06.194699-07:00,2128.0,625.4,1729.1,1636.0,953.4,1325.9,1536.6,1513.4,3441.9,3438.2,2347.3,1668.2,1547.8,3440.7,1518.0,1885.0,3435.8,3428.6,815.2,1419.5,960.2,573.0,1391.2,1883.0,3440.7,3433.4,749.6,973.1,1367.6,1853.7,1788.7,986.7,23.0,22.0,20.0,8067.0,11092.0,-6651.0,-6008.0,28.0,-58.0,40.0,5.0,-11.0,-31.0,11200.0,10648.0,4756.0,2646.0,29.0,-36.0,16.0,1.0
2022-05-13 14:50:06.284217-07:00,2128.0,625.4,1729.1,1633.1,953.4,1325.0,1540.3,1507.8,3441.9,3438.2,2347.3,1656.8,1547.8,3438.2,1511.5,1881.1,3439.5,3431.0,814.4,1419.5,957.7,573.0,1391.2,1883.0,3439.5,3444.3,744.7,973.1,1360.3,1853.7,1788.7,986.7,-15.0,-19.0,22.0,8059.0,11109.0,-6652.0,-5984.0,116.0,146.0,37.0,-11.0,6.0,30.0,11180.0,10666.0,4760.0,2650.0,93.0,42.0,33.0,1.0
2022-05-13 14:50:06.287482-07:00,2100.7,627.0,1712.9,1633.1,944.1,1325.0,1540.3,1507.8,3439.5,3443.1,2333.7,1656.8,1543.1,3438.2,1511.5,1881.1,3439.5,3431.0,814.4,1409.4,957.7,573.8,1382.1,1869.3,3439.5,3444.3,744.7,965.4,1360.3,1846.9,1787.8,976.5,31.0,66.0,8.0,8047.0,11104.0,-6702.0,-5955.0,-20.0,-163.0,50.0,1.0,6.0,-36.0,11160.0,10692.0,4750.0,2650.0,-19.0,-55.0,17.0,1.0
2022-05-13 14:50:06.288583-07:00,2100.7,627.0,1712.9,1625.6,947.5,1319.6,1514.3,1497.7,3439.5,3443.1,2333.7,1657.7,1535.7,3435.8,1507.8,1881.1,3439.5,3433.4,812.7,1412.2,959.4,573.8,1382.1,1869.3,3445.5,3438.2,755.4,966.2,1348.5,1846.9,1787.8,976.5,-13.0,-22.0,29.0,8036.0,11096.0,-6709.0,-5977.0,100.0,62.0,-32.0,-14.0,6.0,21.0,11165.0,10687.0,4749.0,2646.0,54.0,36.0,-14.0,1.0
2022-05-13 14:50:06.329258-07:00,2080.6,620.5,1707.2,1623.7,947.5,1319.6,1514.3,1497.7,3438.2,3433.4,2317.0,1652.0,1535.7,3435.8,1507.8,1881.1,3439.5,3433.4,812.7,1412.2,959.4,568.2,1382.1,1864.5,3445.5,3438.2,755.4,966.2,1346.7,1831.3,1776.2,988.5,7.0,24.0,14.0,8016.0,11110.0,-6727.0,-5958.0,21.0,-37.0,10.0,-1.0,0.0,-13.0,11150.0,10702.0,4754.0,2645.0,-6.0,-6.0,-2.0,1.0
2022-05-13 14:50:06.374185-07:00,2080.6,620.5,1707.2,1623.7,944.1,1326.8,1519.9,1489.3,3438.2,3433.4,2317.0,1652.0,1539.4,3434.6,1494.0,1862.5,3438.2,3434.6,807.7,1409.4,959.4,568.2,1382.1,1864.5,3444.3,3438.2,734.8,967.1,1346.7,1831.3,1776.2,988.5,-16.0,-5.0,9.0,8002.0,11118.0,-6735.0,-5952.0,70.0,43.0,0.0,-9.0,11.0,21.0,11143.0,10707.0,4756.0,2646.0,46.0,29.0,12.0,1.0
2022-05-13 14:50:06.463973-07:00,2070.5,624.6,1699.5,1619.9,944.1,1326.8,1519.9,1489.3,3439.5,3439.5,2305.6,1651.1,1539.4,3434.6,1494.0,1862.5,3438.2,3434.6,807.7,1409.4,963.7,571.4,1374.8,1865.4,3444.3,3438.2,734.8,967.1,1344.0,1829.4,1771.4,984.2,10.0,24.0,8.0,7993.0,11115.0,-6760.0,-5942.0,-1.0,-63.0,47.0,-1.0,-1.0,-19.0,11140.0,10714.0,4749.0,2648.0,-10.0,-29.0,16.0,1.0
2022-05-13 14:50:06.465136-07:00,2070.5,624.6,1699.5,1619.9,948.3,1319.6,1509.7,1489.3,3439.5,3439.5,2305.6,1651.1,1534.8,3439.5,1501.4,1863.5,3443.1,3443.1,811.9,1412.2,963.7,571.4,1374.8,1865.4,3445.5,3450.4,745.5,967.1,1344.0,1829.4,1771.4,984.2,-27.0,1.0,3.0,7991.0,11114.0,-6764.0,-5942.0,27.0,36.0,-8.0,-12.0,5.0,25.0,11137.0,10717.0,4748.0,2648.0,29.0,25.0,-2.0,1.0
2022-05-13 14:50:06.554950-07:00,2057.4,617.3,1703.3,1607.7,948.3,1319.6,1509.7,1487.5,3452.8,3440.7,2304.5,1650.2,1534.8,3439.5,1501.4,1860.6,3445.5,3443.1,811.9,1412.2,961.1,568.2,1383.0,1873.2,3451.6,3450.4,745.5,967.1,1338.6,1828.4,1768.5,984.2,0.0,4.0,18.0,7984.0,11118.0,-6768.0,-5941.0,3.0,-8.0,-12.0,-5.0,-7.0,-6.0,11133.0,10720.0,4751.0,2647.0,-4.0,-2.0,-6.0,1.0
2022-05-13 14:50:06.558248-07:00,2042.4,617.3,1703.3,1607.7,941.5,1310.6,1506.0,1487.5,3441.9,3440.7,2304.5,1650.2,1531.0,3440.7,1493.0,1860.6,3445.5,3440.7,811.9,1404.0,961.1,568.2,1383.0,1862.5,3451.6,3446.7,738.1,952.6,1338.6,1828.4,1768.5,987.6,-13.0,-4.0,19.0,7985.0,11128.0,-6753.0,-5935.0,32.0,77.0,-18.0,-2.0,-3.0,17.0,11128.0,10722.0,4756.0,2650.0,24.0,34.0,4.0,1.0
2022-05-13 14:50:06.644988-07:00,2042.4,616.5,1704.3,1604.0,941.5,1310.6,1506.0,1486.6,3441.9,3443.1,2290.0,1646.4,1531.0,3440.7,1493.0,1860.6,3437.0,3440.7,811.9,1404.0,958.5,570.6,1377.5,1862.5,3444.3,3446.7,738.1,952.6,1338.6,1830.4,1763.7,987.6,0.0,16.0,9.0,7983.0,11147.0,-6747.0,-5910.0,68.0,50.0,12.0,-7.0,-7.0,-4.0,11114.0,10733.0,4762.0,2656.0,54.0,22.0,15.0,1.0
2022-05-13 14:50:06.689321-07:00,2044.4,616.5,1704.3,1604.0,945.8,1316.9,1505.1,1486.6,3439.5,3443.1,2290.0,1646.4,1521.8,3449.1,1500.4,1860.6,3437.0,3444.3,811.9,1397.6,958.5,570.6,1377.5,1856.7,3444.3,3443.1,749.6,963.7,1338.6,1830.4,1763.7,979.9,-17.0,5.0,-3.0,7976.0,11168.0,-6743.0,-5885.0,37.0,15.0,13.0,-6.0,-3.0,9.0,11098.0,10745.0,4771.0,2656.0,38.0,11.0,2.0,1.0
2022-05-13 14:50:06.732836-07:00,2044.4,618.9,1687.2,1615.2,945.8,1316.9,1505.1,1485.6,3439.5,3444.3,2289.0,1643.5,1521.8,3449.1,1500.4,1855.7,3444.3,3444.3,811.9,1397.6,956.0,574.6,1373.9,1856.7,3449.1,3443.1,749.6,963.7,1342.2,1829.4,1759.8,979.9,-5.0,8.0,0.0,7971.0,11170.0,-6749.0,-5881.0,-12.0,-9.0,-1.0,-8.0,-1.0,0.0,11094.0,10748.0,4773.0,2654.0,-7.0,1.0,-5.0,1.0
2022-05-13 14:50:06.870523-07:00,2041.4,618.9,1687.2,1615.2,946.6,1311.5,1485.6,1485.6,3439.5,3444.3,2289.0,1643.5,1527.3,3438.2,1497.7,1855.7,3444.3,3441.9,811.9,1401.2,956.0,574.6,1373.9,1856.7,3449.1,3441.9,737.3,961.1,1342.2,1829.4,1759.8,984.2,-2.0,4.0,6.0,7969.0,11167.0,-6751.0,-5886.0,7.0,-15.0,4.0,-2.0,-5.0,-6.0,11094.0,10749.0,4772.0,2652.0,10.0,-6.0,-2.0,1.0
2022-05-13 14:50:06.871582-07:00,2041.4,614.1,1679.5,1606.8,946.6,1311.5,1481.0,1471.8,3439.5,3444.3,2292.1,1639.8,1527.3,3438.2,1494.0,1849.8,3432.2,3443.1,811.9,1401.2,962.0,569.0,1367.6,1856.7,3443.1,3433.4,737.3,961.1,1354.0,1826.5,1757.9,984.2,-1.0,0.0,14.0,7968.0,11165.0,-6753.0,-5890.0,8.0,0.0,6.0,-6.0,-3.0,0.0,11095.0,10750.0,4772.0,2650.0,8.0,-2.0,5.0,1.0
2022-05-13 14:50:06.883143-07:00,2038.4,619.7,1679.5,1606.8,940.7,1319.6,1481.0,1471.8,3437.0,3449.1,2292.1,1639.8,1526.4,3441.9,1494.0,1849.8,3432.2,3443.1,806.9,1404.0,962.0,569.0,1375.7,1854.7,3443.1,3433.4,747.2,956.0,1354.0,1826.5,1747.3,985.9,-9.0,20.0,-1.0,7967.0,11166.0,-6755.0,-5887.0,5.0,-20.0,25.0,-9.0,4.0,6.0,11095.0,10750.0,4769.0,2651.0,-1.0,-15.0,10.0,1.0
2022-05-13 14:50:06.988635-07:00,2038.4,619.7,1680.5,1604.9,940.7,1319.6,1489.3,1473.6,3437.0,3449.1,2283.8,1642.6,1526.4,3441.9,1488.4,1849.8,3441.9,3439.5,806.9,1404.0,951.7,568.2,1375.7,1854.7,3446.7,3446.7,747.2,956.0,1338.6,1828.4,1747.3,985.9,-1.0,0.0,17.0,7968.0,11158.0,-6758.0,-5897.0,-13.0,0.0,-14.0,-4.0,-10.0,0.0,11099.0,10748.0,4766.0,2648.0,-2.0,-5.0,-5.0,1.0
2022-05-13 14:50:06.990424-07:00,2039.4,621.4,1680.5,1604.9,939.0,1307.0,1489.3,1473.6,3437.0,3451.6,2283.8,1642.6,1519.9,3441.9,1488.4,1849.8,3441.9,3439.5,806.9,1411.3,951.7,568.2,1363.0,1856.7,3446.7,3446.7,738.1,960.2,1338.6,1828.4,1751.2,993.6,-7.0,0.0,3.0,7970.0,11167.0,-6746.0,-5891.0,8.0,43.0,-14.0,-5.0,-7.0,13.0,11095.0,10751.0,4769.0,2648.0,12.0,8.0,1.0,1.0
2022-05-13 14:50:07.049365-07:00,2039.4,621.4,1672.9,1601.1,939.0,1307.0,1480.1,1481.9,3437.0,3451.6,2266.2,1636.9,1519.9,3441.9,1485.6,1845.0,3431.0,3439.5,806.9,1411.3,953.4,571.4,1363.0,1856.7,3439.5,3428.6,738.1,960.2,1341.3,1817.8,1751.2,993.6,3.0,16.0,9.0,7972.0,11178.0,-6734.0,-5880.0,18.0,74.0,-35.0,-4.0,2.0,-6.0,11091.0,10754.0,4772.0,2649.0,17.0,15.0,-1.0,1.0
2022-05-13 14:50:07.139308-07:00,2096.7,632.7,1689.1,1601.1,942.4,1307.9,1480.1,1481.9,3440.7,3437.0,2285.9,1636.9,1523.6,3444.3,1485.6,1845.0,3431.0,3439.5,807.7,1411.3,953.4,571.4,1363.9,1859.6,3439.5,3428.6,742.2,952.6,1341.3,1823.6,1751.2,972.2,-4.0,37.0,3.0,7985.0,11219.0,-6681.0,-5847.0,53.0,249.0,-133.0,-3.0,0.0,7.0,11086.0,10753.0,4783.0,2650.0,26.0,32.0,-26.0,1.0
2022-05-13 14:50:07.228853-07:00,2096.7,632.7,1689.1,1604.9,942.4,1319.6,1474.6,1458.9,3440.7,3437.0,2285.9,1659.6,1523.6,3433.4,1596.4,1868.4,3437.0,3434.6,801.0,1411.3,967.9,571.4,1363.9,1859.6,3449.1,3438.2,731.5,952.6,1363.9,1823.6,1751.2,972.2,25.0,13.0,-1.0,8005.0,11318.0,-6550.0,-5776.0,48.0,433.0,-256.0,-7.0,-4.0,-22.0,11097.0,10737.0,4796.0,2647.0,-70.0,14.0,-43.0,1.0
2022-05-13 14:50:07.230215-07:00,2581.0,641.6,1841.1,1604.9,942.4,1319.6,1474.6,1458.9,3441.9,3441.9,2450.4,1659.6,1512.5,3433.4,1596.4,1868.4,3437.0,3434.6,801.0,1404.0,967.9,573.0,1388.5,1895.8,3449.1,3438.2,731.5,966.2,1363.9,1873.2,1930.2,976.5,33.0,10.0,8.0,8010.0,11488.0,-6350.0,-5655.0,235.0,625.0,-362.0,-16.0,-8.0,-8.0,11104.0,10725.0,4809.0,2642.0,28.0,-13.0,-18.0,1.0
2022-05-13 14:50:07.231292-07:00,2581.0,641.6,1841.1,1619.9,942.4,1325.0,1467.2,1458.9,3441.9,3441.9,2450.4,1694.8,1512.5,3444.3,1838.2,1916.4,3432.2,3424.9,799.4,1404.0,954.3,573.0,1388.5,1895.8,3438.2,3437.0,735.6,966.2,1354.9,1873.2,1930.2,976.5,-37.0,-19.0,-13.0,8023.0,11691.0,-6116.0,-5477.0,100.0,725.0,-288.0,2.0,-16.0,18.0,11100.0,10730.0,4805.0,2645.0,-8.0,-2.0,37.0,1.0
2022-05-13 14:50:07.274003-07:00,3385.2,630.3,1834.3,1619.9,931.3,1325.0,1467.2,1458.9,3435.8,3439.5,2539.0,1694.8,1499.5,3444.3,1838.2,1916.4,3432.2,3424.9,799.4,1402.1,954.3,573.0,1436.9,1886.9,3438.2,3437.0,735.6,1024.5,1354.9,1862.5,1990.5,985.0,9.0,33.0,-33.0,8048.0,11813.0,-5961.0,-5346.0,154.0,372.0,-163.0,-8.0,4.0,0.0,11089.0,10741.0,4802.0,2655.0,45.0,13.0,23.0,1.0
2022-05-13 14:50:07.319130-07:00,3385.2,630.3,1834.3,1607.7,931.3,1316.9,1440.5,1454.3,3435.8,3439.5,2539.0,1678.6,1499.5,3434.6,1824.6,1897.7,3433.4,3431.0,791.9,1402.1,958.5,573.0,1436.9,1886.9,3440.7,3446.7,730.7,1024.5,1354.0,1862.5,1990.5,985.0,-53.0,-34.0,14.0,8064.0,11906.0,-5843.0,-5246.0,3.0,376.0,-87.0,-5.0,-4.0,20.0,11082.0,10747.0,4803.0,2657.0,9.0,14.0,9.0,1.0
2022-05-13 14:50:07.408844-07:00,3237.6,617.3,1657.7,1572.1,933.0,1316.9,1440.5,1454.3,3440.7,3433.4,2407.1,1621.8,1505.1,3434.6,1824.6,1897.7,3433.4,3431.0,791.9,1400.3,959.4,573.0,1477.3,1869.3,3440.7,3446.7,730.7,1087.7,1337.7,1771.4,1838.2,984.2,-4.0,23.0,-19.0,8080.0,11934.0,-5835.0,-5165.0,175.0,11.0,184.0,0.0,-14.0,-8.0,11046.0,10780.0,4812.0,2659.0,171.0,23.0,44.0,1.0
2022-05-13 14:50:07.410029-07:00,3237.6,617.3,1657.7,1572.1,929.6,1307.9,1429.5,1446.0,3440.7,3433.4,2407.1,1621.8,1500.4,3432.2,1671.0,1814.9,3439.5,3437.0,796.9,1396.7,959.4,573.0,1477.3,1869.3,3438.2,3447.9,729.0,1083.4,1337.7,1771.4,1838.2,984.2,2.0,34.0,0.0,8058.0,11946.0,-5879.0,-5122.0,-41.0,126.0,-13.0,-8.0,28.0,-24.0,11031.0,10797.0,4809.0,2656.0,-51.0,-28.0,5.0,1.0
2022-05-13 14:50:07.452303-07:00,3103.2,623.8,1558.1,1530.1,929.6,1307.9,1429.5,1446.0,3438.2,3437.0,2313.9,1589.9,1500.4,3432.2,1671.0,1814.9,3439.5,3437.0,796.9,1396.7,952.6,571.4,1474.6,1851.8,3438.2,3447.9,729.0,1083.4,1341.3,1700.5,1706.2,982.5,12.0,-18.0,-22.0,8083.0,11942.0,-5854.0,-5120.0,68.0,-77.0,32.0,-4.0,-8.0,-5.0,11037.0,10794.0,4801.0,2659.0,64.0,-11.0,28.0,1.0
2022-05-13 14:50:07.632858-07:00,3103.2,623.8,1558.1,1530.1,922.0,1297.2,1394.8,1432.3,3438.2,3437.0,2313.9,1589.9,1494.9,3439.5,1545.0,1766.6,3433.4,3434.6,780.3,1403.0,952.6,571.4,1474.6,1851.8,3443.1,3428.6,724.9,1080.8,1341.3,1700.5,1706.2,982.5,-38.0,24.0,43.0,8040.0,11964.0,-5881.0,-5106.0,37.0,138.0,-42.0,-12.0,12.0,0.0,11032.0,10805.0,4789.0,2655.0,-30.0,-27.0,14.0,1.0
2022-05-13 14:50:07.634644-07:00,3039.7,623.0,1489.3,1507.8,922.0,1297.2,1394.8,1432.3,3443.1,3435.8,2207.5,1568.3,1494.9,3439.5,1545.0,1766.6,3433.4,3434.6,780.3,1403.0,956.8,573.0,1459.8,1852.8,3443.1,3428.6,724.9,1080.8,1338.6,1655.8,1631.3,983.3,-34.0,1.0,15.0,8047.0,11982.0,-5856.0,-5082.0,80.0,-53.0,7.0,-8.0,0.0,27.0,11026.0,10809.0,4794.0,2657.0,70.0,34.0,-7.0,1.0
2022-05-13 14:50:07.679105-07:00,2972.3,623.0,1489.3,1507.8,930.5,1294.5,1388.5,1413.1,3438.2,3435.8,2207.5,1568.3,1486.6,3432.2,1456.2,1721.5,3437.0,3438.2,783.6,1400.3,956.8,573.0,1459.8,1842.0,3445.5,3449.1,715.1,1069.5,1338.6,1655.8,1631.3,983.3,12.0,24.0,25.0,8010.0,11998.0,-5874.0,-5081.0,-31.0,108.0,-65.0,-6.0,25.0,-35.0,11013.0,10818.0,4801.0,2657.0,-43.0,-5.0,1.0,1.0
2022-05-13 14:50:07.724671-07:00,2972.3,616.5,1444.2,1499.5,930.5,1294.5,1388.5,1404.0,3438.2,3440.7,2141.2,1548.7,1486.6,3432.2,1456.2,1711.0,3441.9,3438.2,783.6,1400.3,956.0,574.6,1435.0,1842.0,3437.0,3449.1,715.1,1069.5,1338.6,1626.5,1577.7,983.3,-41.0,-12.0,1.0,8022.0,12022.0,-5831.0,-5054.0,147.0,29.0,7.0,2.0,-20.0,31.0,11008.0,10818.0,4811.0,2662.0,107.0,50.0,-14.0,1.0
2022-05-13 14:50:07.725791-07:00,2915.6,616.5,1444.2,1499.5,911.8,1285.5,1378.5,1404.0,3449.1,3440.7,2141.2,1548.7,1476.4,3434.6,1413.1,1711.0,3441.9,3440.7,779.4,1398.5,956.0,574.6,1435.0,1821.6,3437.0,3451.6,714.2,1065.1,1338.6,1626.5,1577.7,982.5,18.0,34.0,-19.0,7963.0,12039.0,-5882.0,-5048.0,38.0,-59.0,13.0,-11.0,24.0,-37.0,10975.0,10844.0,4831.0,2655.0,25.0,-5.0,-3.0,1.0
2022-05-13 14:50:07.813289-07:00,2915.6,608.4,1422.2,1481.0,911.8,1285.5,1378.5,1393.9,3449.1,3439.5,2109.8,1535.7,1476.4,3434.6,1413.1,1687.2,3445.5,3440.7,779.4,1398.5,950.9,569.8,1418.6,1821.6,3439.5,3451.6,714.2,1065.1,1334.1,1613.4,1549.7,982.5,-38.0,-14.0,6.0,7980.0,12050.0,-5846.0,-5038.0,61.0,72.0,-35.0,-7.0,-11.0,17.0,10984.0,10836.0,4828.0,2659.0,29.0,10.0,-4.0,1.0
2022-05-13 14:50:07.814504-07:00,2871.7,608.4,1422.2,1481.0,918.6,1281.0,1373.0,1393.9,3439.5,3439.5,2109.8,1535.7,1470.0,3441.9,1392.1,1687.2,3445.5,3450.4,774.5,1397.6,950.9,569.8,1418.6,1818.7,3439.5,3449.1,703.6,1077.3,1334.1,1613.4,1549.7,984.2,-10.0,1.0,-1.0,7949.0,12060.0,-5872.0,-5033.0,52.0,-82.0,50.0,-7.0,0.0,-4.0,10967.0,10851.0,4835.0,2655.0,33.0,1.0,7.0,1.0
2022-05-13 14:50:07.904873-07:00,2871.7,615.7,1399.4,1470.0,918.6,1281.0,1360.3,1395.7,3439.5,3434.6,2091.6,1531.0,1470.0,3441.9,1373.0,1688.1,3433.4,3434.6,774.5,1397.6,954.3,577.0,1418.6,1818.7,3433.4,3444.3,703.6,1077.3,1346.7,1605.8,1530.1,984.2,-5.0,9.0,9.0,7968.0,12051.0,-5874.0,-5022.0,-48.0,74.0,23.0,-8.0,-6.0,3.0,10972.0,10850.0,4824.0,2661.0,-26.0,-10.0,25.0,1.0
2022-05-13 14:50:07.906481-07:00,2838.0,620.5,1399.4,1470.0,907.6,1275.6,1360.3,1395.7,3439.5,3437.0,2091.6,1531.0,1469.0,3439.5,1373.0,1688.1,3433.4,3434.6,776.1,1386.6,954.3,577.0,1412.2,1835.2,3433.4,3444.3,711.0,1059.1,1346.7,1605.8,1520.8,982.5,-9.0,0.0,0.0,7951.0,12053.0,-5905.0,-5007.0,94.0,-61.0,80.0,-3.0,-3.0,-1.0,10963.0,10859.0,4819.0,2663.0,28.0,-7.0,25.0,1.0
2022-05-13 14:50:07.949696-07:00,2838.0,620.5,1401.2,1467.2,907.6,1275.6,1360.3,1390.3,3439.5,3437.0,2062.5,1523.6,1469.0,3439.5,1361.2,1669.1,3441.9,3438.2,776.1,1386.6,950.9,570.6,1412.2,1835.2,3439.5,3454.0,711.0,1059.1,1332.3,1597.4,1520.8,982.5,-2.0,9.0,-2.0,7919.0,12055.0,-5957.0,-4992.0,110.0,-57.0,68.0,-5.0,-2.0,-3.0,10953.0,10872.0,4812.0,2664.0,49.0,-12.0,21.0,1.0
2022-05-13 14:50:07.994793-07:00,2821.3,608.4,1401.2,1467.2,919.4,1266.7,1360.3,1390.3,3435.8,3440.7,2062.5,1523.6,1461.7,3437.0,1361.2,1669.1,3441.9,3438.2,778.6,1393.9,950.9,570.6,1402.1,1812.9,3439.5,3454.0,714.2,1053.0,1332.3,1597.4,1512.5,983.3,-7.0,21.0,11.0,7902.0,12057.0,-5978.0,-4988.0,9.0,-9.0,11.0,-5.0,11.0,1.0,10945.0,10882.0,4811.0,2663.0,3.0,-8.0,12.0,1.0
2022-05-13 14:50:08.084599-07:00,2821.3,608.4,1392.1,1470.9,919.4,1266.7,1354.0,1382.1,3435.8,3440.7,2052.4,1525.5,1461.7,3437.0,1351.2,1674.8,3429.8,3441.9,778.6,1393.9,944.1,569.0,1402.1,1812.9,3432.2,3438.2,714.2,1053.0,1326.8,1597.4,1512.5,983.3,-13.0,2.0,8.0,7913.0,12049.0,-5983.0,-4984.0,-2.0,16.0,41.0,-7.0,-7.0,4.0,10942.0,10885.0,4807.0,2667.0,18.0,6.0,19.0,1.0
2022-05-13 14:50:08.130035-07:00,2809.0,609.2,1392.1,1470.9,916.0,1267.6,1354.0,1382.1,3431.0,3440.7,2052.4,1525.5,1460.8,3444.3,1351.2,1674.8,3429.8,3441.9,771.1,1393.0,944.1,569.0,1390.3,1810.0,3432.2,3438.2,706.0,1054.8,1326.8,1597.4,1502.3,987.6,-7.0,13.0,5.0,7907.0,12052.0,-5989.0,-4979.0,36.0,-6.0,2.0,-6.0,1.0,3.0,10932.0,10893.0,4812.0,2668.0,33.0,17.0,1.0,1.0
2022-05-13 14:50:08.218817-07:00,2809.0,609.2,1388.5,1467.2,916.0,1274.7,1354.9,1377.5,3431.0,3440.7,2041.4,1520.8,1460.8,3441.9,1343.1,1662.5,3439.5,3435.8,772.8,1393.0,952.6,575.4,1390.3,1810.0,3431.0,3449.1,707.7,1054.8,1326.8,1589.9,1502.3,987.6,-6.0,4.0,5.0,7905.0,12058.0,-5990.0,-4966.0,13.0,27.0,27.0,-2.0,-3.0,2.0,10923.0,10901.0,4813.0,2670.0,19.0,10.0,17.0,1.0
2022-05-13 14:50:08.220502-07:00,2775.7,614.9,1376.6,1467.2,914.4,1274.7,1354.9,1377.5,3435.8,3444.3,2035.4,1520.8,1463.5,3441.9,1343.1,1662.5,3439.5,3435.8,772.8,1393.9,952.6,573.0,1385.7,1812.9,3431.0,3449.1,707.7,1047.8,1326.8,1581.4,1504.1,979.0,-8.0,21.0,0.0,7902.0,12062.0,-5993.0,-4958.0,17.0,15.0,-11.0,-7.0,3.0,-4.0,10914.0,10908.0,4818.0,2670.0,24.0,12.0,-2.0,1.0
2022-05-13 14:50:08.489317-07:00,2775.7,614.9,1376.6,1458.9,914.4,1260.4,1354.0,1382.1,3435.8,3444.3,2035.4,1517.1,1463.5,3449.1,1337.7,1657.7,3440.7,3444.3,771.1,1393.9,949.2,573.0,1385.7,1812.9,3440.7,3438.2,705.2,1047.8,1326.8,1581.4,1504.1,979.0,1.0,7.0,7.0,7894.0,12072.0,-5988.0,-4952.0,29.0,50.0,-21.0,-4.0,-6.0,-11.0,10908.0,10912.0,4822.0,2670.0,18.0,14.0,-1.0,1.0
2022-05-13 14:50:08.490493-07:00,2784.6,618.1,1375.7,1458.9,911.8,1260.4,1354.0,1382.1,3437.0,3431.0,2027.4,1517.1,1455.2,3449.1,1337.7,1657.7,3440.7,3444.3,771.1,1390.3,949.2,570.6,1386.6,1809.0,3440.7,3438.2,705.2,1050.4,1326.8,1582.4,1489.3,981.6,-9.0,-13.0,0.0,7898.0,12077.0,-5981.0,-4942.0,4.0,4.0,33.0,-5.0,-6.0,4.0,10904.0,10914.0,4825.0,2674.0,20.0,12.0,16.0,1.0
2022-05-13 14:50:08.491571-07:00,2784.6,618.1,1375.7,1474.6,911.8,1262.2,1354.0,1374.8,3437.0,3431.0,2027.4,1513.4,1455.2,3444.3,1318.7,1658.7,3444.3,3434.6,773.6,1390.3,951.7,570.6,1386.6,1809.0,3437.0,3446.7,708.5,1050.4,1324.1,1582.4,1489.3,981.6,-8.0,12.0,-8.0,7884.0,12075.0,-6011.0,-4934.0,80.0,-60.0,46.0,-4.0,-6.0,-4.0,10888.0,10930.0,4826.0,2672.0,77.0,9.0,4.0,1.0
2022-05-13 14:50:08.492640-07:00,2769.0,610.8,1375.7,1450.6,916.0,1262.2,1354.0,1374.8,3439.5,3438.2,2016.4,1506.9,1457.1,3444.3,1318.7,1658.7,3444.3,3434.6,773.6,1389.4,953.4,573.8,1387.5,1812.9,3437.0,3446.7,708.5,1042.6,1325.9,1582.4,1484.7,983.3,-31.0,2.0,28.0,7847.0,12075.0,-6057.0,-4936.0,108.0,-90.0,85.0,-10.0,-2.0,25.0,10866.0,10951.0,4832.0,2662.0,76.0,8.0,-4.0,1.0
2022-05-13 14:50:08.577949-07:00,2769.0,610.8,1375.7,1450.6,908.4,1268.5,1338.6,1356.7,3439.5,3438.2,2016.4,1506.9,1458.0,3435.8,1323.2,1651.1,3431.0,3428.6,781.1,1389.4,953.4,573.8,1387.5,1812.9,3440.7,3439.5,708.5,1050.4,1325.9,1582.4,1484.7,983.3,-198.0,-73.0,-115.0,7812.0,12006.0,-6213.0,-4967.0,44.0,-785.0,464.0,-13.0,-42.0,77.0,10826.0,10981.0,4855.0,2662.0,174.0,100.0,-4.0,1.0
2022-05-13 14:50:08.581410-07:00,2761.3,612.5,1506.9,1484.7,914.4,1273.9,1354.0,1385.7,3438.2,3444.3,2100.7,1522.7,1458.0,3435.8,1604.0,1711.0,3429.8,3433.4,766.2,1392.1,950.9,574.6,1410.3,1806.1,3444.3,3437.0,714.2,1049.6,1324.1,1664.4,1653.9,976.5,-33.0,-60.0,-77.0,7615.0,11540.0,-6873.0,-5480.0,-667.0,-1249.0,400.0,36.0,-2.0,18.0,10847.0,11009.0,4783.0,2590.0,-435.0,-243.0,2.0,1.0
2022-05-13 14:50:08.668975-07:00,2876.1,606.0,1837.2,1639.8,914.4,1273.9,1354.0,1385.7,3438.2,3435.8,2469.5,1626.5,1458.0,3435.8,1604.0,1711.0,3429.8,3433.4,766.2,1392.1,960.2,572.2,1451.6,1818.7,3444.3,3437.0,714.2,1049.6,1326.8,1888.9,1954.8,986.7,98.0,32.0,17.0,7610.0,11169.0,-7161.0,-5873.0,-443.0,-943.0,279.0,-2.0,11.0,-45.0,10979.0,10935.0,4666.0,2560.0,-281.0,-312.0,43.0,1.0
2022-05-13 14:50:08.671488-07:00,2876.1,606.0,1837.2,1639.8,922.0,1318.7,1338.6,1393.9,3438.2,3435.8,2469.5,1626.5,1473.6,3439.5,1780.1,1910.5,3439.5,3441.9,767.8,1403.0,960.2,572.2,1451.6,1818.7,3443.1,3439.5,734.8,1024.5,1326.8,1888.9,1954.8,986.7,-53.0,-18.0,30.0,7675.0,10932.0,-7218.0,-6158.0,-418.0,-607.0,20.0,-2.0,-10.0,88.0,11126.0,10830.0,4567.0,2550.0,-436.0,-93.0,-29.0,1.0
2022-05-13 14:50:08.712291-07:00,2908.8,613.3,1845.0,1687.2,922.0,1318.7,1338.6,1383.0,3440.7,3429.8,2496.2,1678.6,1473.6,3439.5,1780.1,1924.3,3440.7,3441.9,767.8,1403.0,963.7,566.6,1425.9,1854.7,3441.9,3439.5,734.8,1024.5,1325.0,1901.6,1939.0,979.9,-1.0,-6.0,91.0,7653.0,10815.0,-7299.0,-6295.0,-145.0,-393.0,188.0,-7.0,13.0,41.0,11192.0,10789.0,4513.0,2529.0,-69.0,-141.0,25.0,1.0
2022-05-13 14:50:08.803900-07:00,2614.5,613.3,1845.0,1687.2,916.0,1324.1,1328.7,1383.0,3441.9,3429.8,2496.2,1678.6,1470.9,3437.0,1695.7,1924.3,3440.7,3438.2,771.1,1404.0,963.7,566.6,1425.9,1856.7,3441.9,3439.5,740.6,1004.8,1325.0,1901.6,1939.0,978.2,19.0,-13.0,52.0,7696.0,10673.0,-7386.0,-6382.0,-372.0,-52.0,292.0,-2.0,5.0,-1.0,11237.0,10766.0,4453.0,2537.0,-143.0,-100.0,107.0,1.0
2022-05-13 14:50:08.806900-07:00,2614.5,602.8,1817.8,1671.9,916.0,1324.1,1328.7,1383.0,3441.9,3446.7,2449.4,1686.2,1470.9,3437.0,1695.7,1935.1,3437.0,3438.2,771.1,1404.0,962.8,571.4,1413.1,1856.7,3446.7,3439.5,740.6,1004.8,1309.7,1905.6,1906.6,978.2,-13.0,24.0,-18.0,7846.0,10530.0,-7413.0,-6405.0,-284.0,-150.0,251.0,5.0,-13.0,13.0,11270.0,10745.0,4395.0,2578.0,-98.0,-10.0,99.0,1.0
2022-05-13 14:50:08.849774-07:00,2367.2,602.8,1817.8,1671.9,932.2,1328.7,1367.6,1383.0,3449.1,3446.7,2449.4,1686.2,1460.8,3437.0,1611.5,1935.1,3437.0,3439.5,770.3,1415.8,962.8,571.4,1413.1,1859.6,3446.7,3449.1,747.2,985.0,1309.7,1905.6,1906.6,985.9,8.0,-1.0,-20.0,7892.0,10453.0,-7441.0,-6442.0,-93.0,33.0,25.0,4.0,3.0,-17.0,11279.0,10730.0,4396.0,2602.0,4.0,86.0,-10.0,1.0
2022-05-13 14:50:08.894870-07:00,2367.2,608.4,1795.5,1680.5,932.2,1328.7,1367.6,1437.8,3449.1,3431.0,2403.9,1678.6,1460.8,3437.0,1611.5,1933.1,3437.0,3439.5,770.3,1415.8,967.9,567.4,1414.0,1859.6,3440.7,3449.1,747.2,985.0,1323.2,1933.1,1865.4,985.9,6.0,16.0,-47.0,7911.0,10411.0,-7464.0,-6461.0,-61.0,-245.0,75.0,0.0,-17.0,-18.0,11266.0,10737.0,4408.0,2607.0,12.0,2.0,-14.0,1.0
2022-05-13 14:50:08.985045-07:00,2166.7,612.5,1795.5,1680.5,924.5,1318.7,1446.0,1437.8,3440.7,3440.7,2403.9,1678.6,1470.0,3433.4,1566.5,1933.1,3437.0,3434.6,777.8,1411.3,967.9,567.4,1390.3,1870.3,3440.7,3444.3,755.4,974.8,1323.2,1933.1,1830.4,977.3,-2.0,13.0,11.0,7903.0,10371.0,-7485.0,-6511.0,-88.0,-9.0,-67.0,-12.0,-2.0,-25.0,11281.0,10721.0,4413.0,2599.0,-65.0,14.0,-44.0,1.0
2022-05-13 14:50:08.986201-07:00,2166.7,612.5,1771.4,1672.9,924.5,1318.7,1467.2,1459.8,3440.7,3440.7,2374.5,1674.8,1470.0,3433.4,1545.9,1919.3,3428.6,3441.9,777.8,1411.3,965.4,567.4,1390.3,1870.3,3446.7,3452.8,755.4,974.8,1363.0,1893.8,1830.4,977.3,0.0,-9.0,12.0,7886.0,10361.0,-7490.0,-6543.0,75.0,-127.0,0.0,-6.0,-8.0,7.0,11284.0,10717.0,4423.0,2588.0,45.0,-13.0,-36.0,1.0
2022-05-13 14:50:09.074378-07:00,2076.5,614.9,1771.4,1672.9,929.6,1319.6,1467.2,1459.8,3437.0,3446.7,2374.5,1674.8,1470.9,3444.3,1545.9,1919.3,3428.6,3441.9,791.9,1428.6,965.4,567.4,1378.5,1873.2,3446.7,3452.8,758.7,967.9,1363.0,1893.8,1813.9,986.7,-19.0,2.0,14.0,7865.0,10365.0,-7507.0,-6541.0,-24.0,58.0,34.0,-11.0,6.0,31.0,11276.0,10724.0,4428.0,2584.0,22.0,23.0,17.0,1.0
2022-05-13 14:50:09.119202-07:00,2076.5,614.9,1737.8,1669.1,929.6,1319.6,1460.8,1439.6,3437.0,3446.7,2341.0,1664.4,1470.9,3444.3,1520.8,1907.5,3433.4,3438.2,791.9,1428.6,966.2,573.0,1378.5,1873.2,3439.5,3427.4,758.7,967.9,1356.7,1890.9,1813.9,986.7,21.0,29.0,21.0,7873.0,10344.0,-7518.0,-6551.0,8.0,-36.0,-32.0,2.0,-10.0,-30.0,11280.0,10723.0,4421.0,2582.0,-8.0,-18.0,-17.0,1.0
2022-05-13 14:50:09.164746-07:00,2037.4,606.0,1737.8,1669.1,924.5,1327.8,1460.8,1439.6,3440.7,3433.4,2341.0,1664.4,1470.0,3443.1,1520.8,1907.5,3433.4,3438.2,783.6,1423.1,966.2,573.0,1375.7,1865.4,3439.5,3427.4,750.5,964.5,1356.7,1890.9,1803.2,990.2,-39.0,-6.0,-9.0,7879.0,10387.0,-7472.0,-6530.0,64.0,141.0,-41.0,-22.0,4.0,63.0,11265.0,10722.0,4453.0,2593.0,64.0,87.0,-9.0,1.0
2022-05-13 14:50:09.253700-07:00,2037.4,606.0,1737.8,1659.6,924.5,1307.9,1451.6,1455.2,3440.7,3433.4,2313.9,1663.4,1470.0,3444.3,1522.7,1898.7,3439.5,3437.0,789.4,1423.1,967.1,570.6,1375.7,1865.4,3444.3,3450.4,751.3,964.5,1350.3,1877.2,1803.2,990.2,17.0,9.0,4.0,7868.0,10415.0,-7465.0,-6506.0,56.0,28.0,-18.0,-4.0,-1.0,-8.0,11245.0,10734.0,4474.0,2596.0,42.0,22.0,-3.0,1.0
2022-05-13 14:50:09.254920-07:00,2025.4,604.4,1718.6,1659.6,927.9,1307.9,1451.6,1455.2,3440.7,3438.2,2303.5,1663.4,1470.9,3444.3,1522.7,1898.7,3439.5,3437.0,789.4,1414.9,967.1,570.6,1365.7,1854.7,3444.3,3450.4,751.3,962.0,1350.3,1874.2,1791.6,984.2,-14.0,6.0,-17.0,7862.0,10446.0,-7452.0,-6478.0,77.0,28.0,-4.0,-5.0,-2.0,11.0,11226.0,10744.0,4494.0,2603.0,67.0,31.0,1.0,1.0
2022-05-13 14:50:09.299191-07:00,2025.4,604.4,1718.6,1665.3,927.9,1312.4,1445.1,1450.6,3440.7,3438.2,2303.5,1658.7,1470.9,3449.1,1499.5,1904.6,3433.4,3432.2,786.9,1414.9,966.2,570.6,1365.7,1854.7,3444.3,3439.5,748.8,962.0,1354.0,1874.2,1791.6,984.2,3.0,3.0,6.0,7843.0,10460.0,-7464.0,-6465.0,64.0,12.0,8.0,-9.0,-4.0,-12.0,11207.0,10761.0,4504.0,2599.0,58.0,4.0,1.0,1.0
2022-05-13 14:50:09.479882-07:00,1987.5,609.2,1717.7,1665.3,931.3,1312.4,1445.1,1450.6,3438.2,3437.0,2285.9,1658.7,1470.0,3449.1,1499.5,1904.6,3433.4,3432.2,786.9,1416.7,966.2,567.4,1356.7,1851.8,3444.3,3439.5,748.8,956.0,1354.0,1861.5,1779.1,985.9,-25.0,14.0,-15.0,7832.0,10476.0,-7469.0,-6446.0,34.0,-32.0,27.0,-22.0,6.0,20.0,11188.0,10777.0,4514.0,2594.0,46.0,-12.0,8.0,1.0
2022-05-13 14:50:09.481040-07:00,1987.5,609.2,1717.7,1657.7,931.3,1323.2,1445.1,1435.0,3438.2,3437.0,2285.9,1649.2,1470.0,3435.8,1510.6,1894.8,3438.2,3431.0,789.4,1416.7,964.5,567.4,1356.7,1851.8,3450.4,3440.7,741.4,956.0,1344.9,1861.5,1779.1,985.9,15.0,12.0,14.0,7821.0,10466.0,-7483.0,-6460.0,-10.0,-17.0,-29.0,1.0,-5.0,-16.0,11189.0,10780.0,4512.0,2581.0,-7.0,-14.0,-25.0,1.0
2022-05-13 14:50:09.482107-07:00,1982.6,618.1,1709.1,1657.7,922.8,1323.2,1445.1,1435.0,3437.0,3435.8,2291.0,1649.2,1470.0,3435.8,1510.6,1894.8,3438.2,3431.0,789.4,1414.0,964.5,569.8,1363.0,1838.2,3450.4,3440.7,741.4,956.0,1344.9,1861.5,1768.5,980.7,-10.0,1.0,-1.0,7815.0,10482.0,-7471.0,-6455.0,44.0,42.0,-25.0,-1.0,-2.0,17.0,11184.0,10782.0,4523.0,2576.0,38.0,21.0,-11.0,1.0
2022-05-13 14:50:09.569118-07:00,1982.6,618.1,1709.1,1656.8,919.4,1305.2,1439.6,1444.2,3437.0,3435.8,2291.0,1645.4,1470.9,3439.5,1507.8,1885.0,3445.5,3435.8,786.1,1412.2,967.1,569.8,1363.0,1838.2,3446.7,3438.2,748.0,952.6,1337.7,1861.5,1768.5,980.7,2.0,-3.0,14.0,7810.0,10489.0,-7472.0,-6449.0,19.0,34.0,-3.0,-4.0,-11.0,-6.0,11177.0,10787.0,4529.0,2575.0,22.0,20.0,1.0,1.0
2022-05-13 14:50:09.570263-07:00,1971.7,600.4,1701.4,1659.6,919.4,1305.2,1439.6,1444.2,3444.3,3437.0,2263.1,1647.3,1470.9,3439.5,1507.8,1885.0,3445.5,3435.8,786.1,1412.2,967.1,562.6,1354.0,1840.1,3446.7,3438.2,748.0,952.6,1337.7,1856.7,1774.3,982.5,-13.0,29.0,1.0,7808.0,10500.0,-7470.0,-6436.0,25.0,22.0,-1.0,-17.0,11.0,3.0,11166.0,10795.0,4538.0,2577.0,21.0,19.0,-6.0,1.0
2022-05-13 14:50:09.659093-07:00,1971.7,600.4,1701.4,1659.6,933.0,1303.4,1442.4,1448.8,3444.3,3437.0,2263.1,1647.3,1458.9,3444.3,1499.5,1886.9,3445.5,3439.5,786.9,1411.3,967.1,562.6,1354.0,1840.1,3440.7,3441.9,743.9,958.5,1337.7,1856.7,1774.3,982.5,1.0,8.0,8.0,7804.0,10511.0,-7459.0,-6434.0,23.0,26.0,-50.0,-4.0,1.0,-3.0,11162.0,10795.0,4549.0,2574.0,18.0,25.0,-37.0,1.0
2022-05-13 14:50:09.660314-07:00,1963.7,602.8,1705.3,1648.3,933.0,1303.4,1442.4,1448.8,3437.0,3431.0,2271.4,1638.8,1458.9,3444.3,1499.5,1886.9,3445.5,3439.5,786.9,1411.3,966.2,565.8,1348.5,1830.4,3440.7,3441.9,743.9,958.5,1338.6,1867.4,1767.5,984.2,7.0,0.0,7.0,7792.0,10531.0,-7449.0,-6428.0,39.0,8.0,-28.0,4.0,-7.0,-7.0,11154.0,10798.0,4564.0,2567.0,19.0,13.0,-25.0,1.0
2022-05-13 14:50:09.838804-07:00,1963.7,602.8,1705.3,1648.3,925.4,1290.0,1436.0,1433.2,3437.0,3431.0,2271.4,1638.8,1468.1,3433.4,1492.1,1878.1,3432.2,3439.5,780.3,1407.6,966.2,565.8,1348.5,1830.4,3447.9,3434.6,743.0,951.7,1338.6,1867.4,1767.5,984.2,30.0,-13.0,40.0,7788.0,10557.0,-7435.0,-6407.0,98.0,119.0,-52.0,6.0,-17.0,-18.0,11143.0,10804.0,4578.0,2566.0,71.0,45.0,-8.0,1.0
2022-05-13 14:50:09.884324-07:00,1960.8,600.4,1730.1,1649.2,925.4,1290.0,1436.0,1435.0,3432.2,3438.2,2269.3,1640.7,1468.1,3433.4,1492.1,1883.0,3437.0,3439.5,780.3,1407.6,962.8,566.6,1354.0,1836.2,3433.4,3434.6,743.0,951.7,1393.0,1833.3,1773.3,983.3,21.0,68.0,11.0,7783.0,10707.0,-7342.0,-6271.0,269.0,724.0,-262.0,-1.0,20.0,29.0,11099.0,10832.0,4614.0,2575.0,58.0,161.0,-42.0,1.0
2022-05-13 14:50:09.886051-07:00,2446.2,600.4,1730.1,1649.2,916.9,1307.0,1423.1,1435.0,3439.5,3438.2,2269.3,1640.7,1457.1,3438.2,1532.0,1883.0,3437.0,3438.2,787.7,1415.8,962.8,566.6,1354.0,1890.9,3433.4,3450.4,744.7,950.9,1393.0,1833.3,1773.3,976.5,44.0,44.0,-19.0,7858.0,10947.0,-7052.0,-6093.0,-18.0,1000.0,-558.0,-25.0,14.0,-27.0,11095.0,10809.0,4669.0,2591.0,-169.0,46.0,-93.0,1.0
2022-05-13 14:50:09.887225-07:00,2446.2,616.5,1930.2,1668.2,916.9,1307.0,1423.1,1411.3,3439.5,3441.9,2356.7,1676.7,1457.1,3438.2,1532.0,1959.8,3438.2,3438.2,787.7,1415.8,964.5,562.6,1371.2,1890.9,3443.1,3450.4,744.7,950.9,1391.2,1914.4,1954.8,976.5,-49.0,-68.0,-22.0,7949.0,11285.0,-6612.0,-5846.0,200.0,1346.0,-661.0,-17.0,-17.0,8.0,11113.0,10771.0,4708.0,2603.0,64.0,102.0,-26.0,1.0
2022-05-13 14:50:09.888329-07:00,3460.1,616.5,1930.2,1668.2,926.2,1316.0,1396.7,1411.3,3428.6,3441.9,2356.7,1676.7,1442.4,3435.8,1838.2,1959.8,3438.2,3433.4,775.3,1409.4,964.5,562.6,1371.2,1877.2,3443.1,3449.1,731.5,1013.3,1391.2,1914.4,1954.8,984.2,-101.0,-43.0,-10.0,7970.0,11575.0,-6284.0,-5607.0,65.0,730.0,-382.0,-23.0,4.0,48.0,11093.0,10773.0,4740.0,2620.0,-3.0,59.0,-11.0,1.0
2022-05-13 14:50:09.974684-07:00,3460.1,621.4,1801.3,1637.9,926.2,1316.0,1396.7,1404.9,3428.6,3441.9,2511.1,1680.5,1442.4,3435.8,1838.2,1956.8,3441.9,3433.4,775.3,1409.4,969.6,568.2,1434.1,1877.2,3435.8,3449.1,731.5,1013.3,1392.1,1907.5,2003.5,984.2,-20.0,-33.0,6.0,8019.0,11674.0,-6144.0,-5486.0,129.0,406.0,-29.0,-3.0,-14.0,-8.0,11079.0,10776.0,4756.0,2637.0,134.0,62.0,24.0,1.0
2022-05-13 14:50:10.154325-07:00,3211.7,607.6,1801.3,1637.9,914.4,1318.7,1378.5,1404.9,3444.3,3441.9,2511.1,1680.5,1456.2,3439.5,1850.8,1956.8,3441.9,3434.6,771.1,1404.9,969.6,568.2,1441.5,1861.5,3435.8,3438.2,723.3,1059.9,1392.1,1907.5,1825.5,979.9,-24.0,23.0,-37.0,8040.0,11755.0,-6074.0,-5358.0,-21.0,323.0,-52.0,4.0,15.0,10.0,11051.0,10797.0,4772.0,2641.0,-19.0,4.0,-4.0,1.0
2022-05-13 14:50:10.155518-07:00,3211.7,607.6,1624.7,1573.9,914.4,1318.7,1370.3,1397.6,3444.3,3441.9,2383.9,1614.3,1456.2,3439.5,1664.4,1856.7,3439.5,3438.2,771.1,1404.9,967.1,572.2,1441.5,1861.5,3438.2,3439.5,723.3,1059.9,1374.8,1798.4,1825.5,979.9,6.0,-4.0,-3.0,8079.0,11774.0,-6012.0,-5329.0,-22.0,162.0,-79.0,0.0,-17.0,-18.0,11061.0,10787.0,4769.0,2640.0,-5.0,-2.0,-15.0,1.0
2022-05-13 14:50:10.156589-07:00,3103.2,611.7,1624.7,1573.9,920.3,1300.7,1370.3,1397.6,3439.5,3439.5,2383.9,1614.3,1453.4,3439.5,1664.4,1856.7,3439.5,3438.2,772.0,1398.5,967.1,572.2,1457.1,1842.0,3438.2,3439.5,722.5,1071.2,1374.8,1798.4,1701.4,979.0,-36.0,8.0,29.0,8076.0,11836.0,-5934.0,-5282.0,62.0,260.0,-156.0,-9.0,15.0,16.0,11059.0,10787.0,4779.0,2634.0,-3.0,14.0,-13.0,1.0
2022-05-13 14:50:10.159104-07:00,3103.2,611.7,1554.3,1541.3,920.3,1300.7,1361.2,1383.0,3439.5,3439.5,2261.0,1576.8,1453.4,3439.5,1528.3,1782.9,3435.8,3439.5,772.0,1398.5,967.1,569.0,1457.1,1842.0,3435.8,3447.9,722.5,1071.2,1367.6,1721.5,1701.4,979.0,-17.0,-12.0,27.0,8095.0,11883.0,-5850.0,-5242.0,-3.0,204.0,-97.0,-10.0,-10.0,14.0,11059.0,10782.0,4786.0,2641.0,50.0,48.0,-7.0,1.0
2022-05-13 14:50:10.198346-07:00,3030.6,608.4,1554.3,1541.3,910.1,1298.1,1361.2,1383.0,3443.1,3435.8,2261.0,1576.8,1448.8,3433.4,1528.3,1782.9,3435.8,3439.5,769.5,1399.4,967.1,569.0,1435.0,1821.6,3435.8,3447.9,720.0,1077.3,1367.6,1721.5,1628.4,988.5,6.0,26.0,9.0,8076.0,11948.0,-5798.0,-5179.0,137.0,217.0,-87.0,-8.0,16.0,-5.0,11033.0,10799.0,4806.0,2644.0,26.0,34.0,1.0,1.0
2022-05-13 14:50:10.244082-07:00,3030.6,608.4,1504.1,1537.6,910.1,1298.1,1343.1,1363.9,3443.1,3435.8,2167.7,1556.2,1448.8,3433.4,1448.8,1747.3,3432.2,3433.4,769.5,1399.4,962.0,576.2,1435.0,1821.6,3439.5,3438.2,720.0,1077.3,1370.3,1691.0,1628.4,988.5,-58.0,-29.0,-1.0,8092.0,11998.0,-5726.0,-5119.0,96.0,116.0,-25.0,0.0,-18.0,29.0,11021.0,10801.0,4824.0,2654.0,134.0,80.0,-18.0,1.0
2022-05-13 14:50:10.290560-07:00,2941.6,613.3,1470.9,1537.6,922.8,1293.6,1343.1,1363.9,3447.9,3447.9,2118.9,1556.2,1442.4,3435.8,1448.8,1747.3,3432.2,3433.4,771.1,1398.5,962.0,574.6,1420.4,1820.7,3439.5,3438.2,715.9,1066.0,1370.3,1655.8,1589.9,982.5,51.0,23.0,-42.0,7993.0,12022.0,-5825.0,-5109.0,299.0,-245.0,121.0,-12.0,36.0,-80.0,10961.0,10850.0,4857.0,2642.0,117.0,-8.0,6.0,1.0
2022-05-13 14:50:10.380213-07:00,2941.6,613.3,1470.9,1532.0,922.8,1292.7,1341.3,1377.5,3447.9,3447.9,2118.9,1545.9,1442.4,3433.4,1410.3,1730.1,3439.5,3438.2,765.3,1398.5,961.1,574.6,1420.4,1820.7,3443.1,3439.5,723.3,1066.0,1363.0,1655.8,1589.9,982.5,-36.0,-12.0,-5.0,7994.0,12017.0,-5827.0,-5115.0,-65.0,-2.0,-26.0,-6.0,-16.0,22.0,10967.0,10847.0,4852.0,2639.0,-11.0,-21.0,-3.0,1.0
2022-05-13 14:50:10.468896-07:00,2891.9,609.2,1464.4,1532.0,906.7,1292.7,1341.3,1377.5,3444.3,3443.1,2086.6,1545.9,1441.5,3433.4,1410.3,1730.1,3439.5,3438.2,765.3,1396.7,961.1,572.2,1410.3,1813.9,3443.1,3439.5,723.3,1058.2,1363.0,1644.5,1563.7,983.3,-8.0,7.0,-3.0,7954.0,12007.0,-5883.0,-5138.0,104.0,-181.0,68.0,-12.0,-2.0,-10.0,10958.0,10860.0,4850.0,2628.0,33.0,-24.0,-2.0,1.0
2022-05-13 14:50:10.470151-07:00,2891.9,609.2,1464.4,1514.3,906.7,1286.4,1325.9,1367.6,3444.3,3443.1,2086.6,1545.0,1441.5,3439.5,1386.6,1713.8,3444.3,3433.4,767.8,1396.7,962.0,572.2,1410.3,1813.9,3446.7,3444.3,711.8,1058.2,1354.9,1644.5,1563.7,983.3,-22.0,3.0,27.0,7936.0,12008.0,-5887.0,-5158.0,11.0,12.0,-71.0,-7.0,-9.0,28.0,10962.0,10858.0,4848.0,2621.0,20.0,10.0,-16.0,1.0
2022-05-13 14:50:10.558784-07:00,2854.8,599.6,1445.1,1514.3,908.4,1286.4,1325.9,1367.6,3437.0,3435.8,2079.5,1545.0,1429.5,3439.5,1386.6,1713.8,3444.3,3433.4,767.8,1397.6,962.0,582.6,1412.2,1811.9,3446.7,3444.3,711.8,1056.5,1354.9,1639.8,1543.1,981.6,-46.0,-37.0,15.0,7925.0,12009.0,-5897.0,-5161.0,51.0,-58.0,73.0,4.0,-47.0,32.0,10950.0,10865.0,4858.0,2622.0,152.0,61.0,13.0,1.0
2022-05-13 14:50:10.559978-07:00,2854.8,599.6,1445.1,1503.2,910.1,1281.0,1325.9,1360.3,3437.0,3435.8,2079.5,1533.8,1431.4,3437.0,1377.5,1707.2,3445.5,3424.9,765.3,1398.5,958.5,582.6,1412.2,1811.9,3441.9,3440.7,708.5,1068.6,1361.2,1639.8,1543.1,981.6,-2.0,66.0,7.0,7820.0,12041.0,-5986.0,-5143.0,145.0,-61.0,20.0,-10.0,27.0,0.0,10889.0,10914.0,4891.0,2616.0,49.0,32.0,-7.0,1.0
2022-05-13 14:50:10.648776-07:00,2833.6,603.6,1427.7,1504.1,910.1,1281.0,1325.9,1360.3,3444.3,3434.6,2186.0,1556.2,1431.4,3437.0,1377.5,1707.2,3445.5,3424.9,765.3,1398.5,957.7,576.2,1436.0,1818.7,3441.9,3440.7,708.5,1068.6,1354.9,1630.3,1537.6,983.3,-60.0,-6.0,48.0,7835.0,12032.0,-5964.0,-5169.0,-131.0,33.0,-80.0,-9.0,-26.0,-7.0,10877.0,10916.0,4911.0,2618.0,76.0,86.0,-9.0,1.0
2022-05-13 14:50:10.649970-07:00,2833.6,603.6,1427.7,1504.1,910.1,1334.1,1316.9,1361.2,3444.3,3434.6,2186.0,1556.2,1440.5,3435.8,1506.9,1716.7,3439.5,3437.0,763.7,1402.1,957.7,576.2,1436.0,1818.7,3446.7,3439.5,717.5,1101.7,1354.9,1630.3,1537.6,983.3,-99.0,-28.0,-55.0,7730.0,12060.0,-6011.0,-5205.0,476.0,-457.0,6.0,0.0,-7.0,52.0,10802.0,10972.0,4949.0,2621.0,508.0,118.0,-17.0,1.0
2022-05-13 14:50:10.694477-07:00,2896.4,598.7,1427.7,1499.5,910.1,1334.1,1316.9,1361.2,3438.2,3437.0,2483.4,1625.6,1440.5,3435.8,1506.9,1716.7,3439.5,3437.0,763.7,1402.1,962.0,569.0,1421.3,1800.3,3446.7,3439.5,717.5,1101.7,1354.9,1706.2,1669.1,975.6,88.0,21.0,-90.0,7469.0,11925.0,-6355.0,-5484.0,204.0,-1396.0,265.0,-6.0,2.0,-55.0,10692.0,11073.0,4991.0,2570.0,73.0,-105.0,-57.0,1.0
2022-05-13 14:50:10.739886-07:00,2896.4,598.7,1427.7,1499.5,905.9,1388.5,1321.4,1354.9,3438.2,3437.0,2483.4,1625.6,1437.8,3433.4,1811.0,1908.5,3444.3,3435.8,763.7,1389.4,962.0,569.0,1421.3,1800.3,3441.9,3444.3,718.4,1046.1,1354.9,1706.2,1669.1,975.6,5.0,12.0,0.0,7375.0,11712.0,-6640.0,-5726.0,-189.0,-776.0,408.0,5.0,-14.0,-22.0,10734.0,11059.0,4955.0,2522.0,-162.0,-192.0,-34.0,1.0
2022-05-13 14:50:10.830790-07:00,2866.0,601.2,1686.2,1580.5,905.9,1388.5,1321.4,1354.9,3445.5,3444.3,2446.2,1671.9,1437.8,3433.4,1811.0,1908.5,3444.3,3435.8,763.7,1389.4,967.1,566.6,1404.0,1840.1,3441.9,3444.3,718.4,1046.1,1352.1,1977.6,2013.4,979.9,-51.0,11.0,0.0,7339.0,11461.0,-6916.0,-5949.0,-153.0,-903.0,442.0,-46.0,18.0,6.0,10811.0,11028.0,4879.0,2474.0,-69.0,-272.0,31.0,1.0
2022-05-13 14:50:10.832690-07:00,2716.1,601.2,1686.2,1580.5,911.8,1428.6,1326.8,1380.3,3437.0,3444.3,2446.2,1671.9,1425.9,3449.1,1738.7,1937.1,3429.8,3434.6,771.1,1409.4,967.1,566.6,1404.0,1841.1,3438.2,3449.1,713.4,1018.5,1352.1,1977.6,2013.4,979.0,114.0,53.0,-3.0,7280.0,11136.0,-7216.0,-6275.0,-336.0,-1286.0,286.0,27.0,19.0,-13.0,10883.0,11008.0,4792.0,2420.0,-348.0,-237.0,-60.0,1.0
2022-05-13 14:50:10.917508-07:00,2716.1,602.0,1900.7,1674.8,911.8,1428.6,1326.8,1356.7,3437.0,3438.2,2415.5,1687.2,1425.9,3449.1,1738.7,1951.9,3434.6,3434.6,771.1,1409.4,958.5,566.6,1404.0,1841.1,3441.9,3449.1,713.4,1018.5,1342.2,1938.0,1932.1,979.0,-14.0,-51.0,103.0,7298.0,10925.0,-7319.0,-6500.0,-286.0,-357.0,176.0,1.0,-50.0,29.0,11013.0,10920.0,4711.0,2392.0,-179.0,-143.0,26.0,1.0
2022-05-13 14:50:10.962546-07:00,2324.3,602.0,1900.7,1674.8,932.2,1447.9,1309.7,1356.7,3435.8,3438.2,2415.5,1687.2,1428.6,3439.5,1655.8,1951.9,3434.6,3438.2,776.1,1402.1,958.5,566.6,1404.0,1849.8,3441.9,3438.2,722.5,997.9,1342.2,1938.0,1932.1,983.3,-14.0,55.0,54.0,7339.0,10797.0,-7394.0,-6581.0,-281.0,-260.0,226.0,6.0,8.0,17.0,11051.0,10902.0,4666.0,2385.0,-127.0,-99.0,57.0,1.0
2022-05-13 14:50:11.053756-07:00,2324.3,601.2,1845.9,1664.4,932.2,1447.9,1309.7,1386.6,3435.8,3435.8,2364.0,1684.3,1428.6,3439.5,1655.8,1937.1,3435.8,3438.2,776.1,1402.1,959.4,568.2,1395.7,1849.8,3445.5,3438.2,722.5,997.9,1383.9,1933.1,1875.2,983.3,-1.0,-30.0,26.0,7434.0,10700.0,-7378.0,-6651.0,-351.0,77.0,46.0,0.0,-42.0,3.0,11120.0,10847.0,4620.0,2403.0,-133.0,27.0,17.0,1.0
2022-05-13 14:50:11.056117-07:00,2191.2,601.2,1845.9,1664.4,947.5,1447.9,1360.3,1386.6,3435.8,3435.8,2364.0,1684.3,1422.2,3443.1,1607.7,1937.1,3435.8,3441.9,772.0,1396.7,959.4,568.2,1395.7,1845.0,3445.5,3439.5,718.4,982.5,1383.9,1933.1,1875.2,981.6,-17.0,16.0,-26.0,7481.0,10675.0,-7354.0,-6666.0,6.0,-47.0,28.0,-13.0,17.0,10.0,11118.0,10840.0,4634.0,2415.0,48.0,9.0,-7.0,1.0
2022-05-13 14:50:11.098304-07:00,2191.2,605.2,1811.0,1670.1,947.5,1447.9,1427.7,1434.1,3435.8,3440.7,2332.6,1646.4,1422.2,3443.1,1573.0,1919.3,3428.6,3438.2,772.0,1396.7,956.0,567.4,1384.8,1845.0,3439.5,3449.1,718.4,982.5,1406.7,1912.4,1845.0,981.6,-7.0,-7.0,-4.0,7491.0,10649.0,-7360.0,-6689.0,-131.0,-31.0,2.0,-12.0,-11.0,4.0,11123.0,10836.0,4634.0,2412.0,-58.0,-5.0,-18.0,1.0
2022-05-13 14:50:11.144263-07:00,2118.9,606.0,1811.0,1670.1,956.0,1435.0,1427.7,1434.1,3438.2,3449.1,2332.6,1646.4,1420.4,3435.8,1573.0,1919.3,3428.6,3438.2,776.1,1404.0,956.0,567.4,1371.2,1849.8,3439.5,3449.1,713.4,970.5,1406.7,1912.4,1832.3,979.0,-9.0,-9.0,4.0,7503.0,10633.0,-7354.0,-6708.0,10.0,3.0,25.0,-17.0,-4.0,-1.0,11128.0,10832.0,4635.0,2407.0,20.0,9.0,-2.0,1.0
2022-05-13 14:50:11.189376-07:00,2118.9,606.0,1780.1,1675.7,956.0,1435.0,1431.4,1433.2,3438.2,3449.1,2307.7,1656.8,1420.4,3435.8,1559.0,1912.4,3437.0,3432.2,776.1,1404.0,962.0,565.8,1371.2,1849.8,3443.1,3444.3,713.4,970.5,1402.1,1898.7,1832.3,979.0,-18.0,7.0,-3.0,7509.0,10633.0,-7359.0,-6696.0,-8.0,7.0,32.0,-8.0,-4.0,7.0,11119.0,10840.0,4635.0,2412.0,11.0,17.0,20.0,1.0
2022-05-13 14:50:11.235121-07:00,2080.6,602.8,1780.1,1675.7,967.1,1432.3,1431.4,1433.2,3446.7,3439.5,2307.7,1656.8,1418.6,3441.9,1559.0,1912.4,3437.0,3432.2,773.6,1399.4,962.0,565.8,1367.6,1835.2,3443.1,3444.3,713.4,967.9,1402.1,1898.7,1804.2,979.0,16.0,2.0,28.0,7510.0,10635.0,-7359.0,-6691.0,56.0,78.0,-29.0,-1.0,-5.0,-9.0,11112.0,10844.0,4640.0,2415.0,35.0,26.0,0.0,1.0
2022-05-13 14:50:11.414761-07:00,2080.6,602.8,1756.0,1660.6,967.1,1432.3,1418.6,1434.1,3446.7,3439.5,2293.1,1664.4,1418.6,3441.9,1545.0,1905.6,3439.5,3435.8,773.6,1399.4,961.1,569.8,1367.6,1835.2,3435.8,3449.1,713.4,967.9,1393.0,1887.9,1804.2,979.0,-28.0,13.0,-14.0,7525.0,10665.0,-7337.0,-6651.0,6.0,26.0,45.0,-10.0,-2.0,14.0,11093.0,10856.0,4654.0,2424.0,28.0,21.0,24.0,1.0
2022-05-13 14:50:11.459599-07:00,2071.5,601.2,1738.7,1660.6,951.7,1431.4,1418.6,1434.1,3439.5,3446.7,2278.6,1664.4,1419.5,3443.1,1545.0,1905.6,3439.5,3435.8,776.9,1404.0,961.1,571.4,1358.5,1843.0,3435.8,3449.1,711.8,966.2,1393.0,1880.1,1814.9,972.2,18.0,3.0,21.0,7530.0,10664.0,-7340.0,-6644.0,43.0,89.0,-33.0,-4.0,-8.0,-17.0,11092.0,10856.0,4655.0,2429.0,19.0,33.0,-2.0,1.0
2022-05-13 14:50:11.549707-07:00,2071.5,601.2,1738.7,1651.1,951.7,1425.9,1416.7,1427.7,3439.5,3446.7,2278.6,1652.0,1419.5,3443.1,1541.3,1902.6,3435.8,3433.4,781.9,1404.0,965.4,571.4,1358.5,1843.0,3440.7,3440.7,711.0,966.2,1377.5,1880.1,1814.9,972.2,-23.0,4.0,-19.0,7540.0,10706.0,-7308.0,-6601.0,34.0,96.0,7.0,-5.0,-4.0,17.0,11069.0,10866.0,4676.0,2443.0,50.0,55.0,14.0,1.0
2022-05-13 14:50:11.550901-07:00,2037.4,602.8,1728.2,1651.1,950.0,1425.9,1416.7,1427.7,3433.4,3433.4,2270.3,1652.0,1422.2,3443.1,1541.3,1902.6,3435.8,3433.4,781.9,1408.5,965.4,565.0,1355.8,1837.2,3440.7,3440.7,711.0,959.4,1377.5,1875.2,1798.4,984.2,13.0,1.0,12.0,7543.0,10714.0,-7309.0,-6582.0,31.0,54.0,11.0,-5.0,-11.0,-18.0,11060.0,10872.0,4682.0,2447.0,20.0,13.0,14.0,1.0
2022-05-13 14:50:11.552024-07:00,2037.4,602.8,1728.2,1648.3,950.0,1411.3,1401.2,1415.8,3433.4,3433.4,2270.3,1649.2,1422.2,3433.4,1525.5,1886.0,3438.2,3435.8,776.1,1408.5,962.8,565.0,1355.8,1837.2,3433.4,3437.0,711.8,959.4,1373.0,1875.2,1798.4,984.2,-27.0,1.0,-13.0,7554.0,10734.0,-7299.0,-6549.0,23.0,47.0,41.0,-14.0,0.0,12.0,11047.0,10881.0,4687.0,2454.0,35.0,23.0,19.0,1.0
2022-05-13 14:50:11.553143-07:00,2033.4,597.9,1723.4,1648.3,947.5,1411.3,1401.2,1415.8,3439.5,3435.8,2269.3,1649.2,1422.2,3433.4,1525.5,1886.0,3438.2,3435.8,776.1,1402.1,962.8,565.8,1352.1,1843.0,3433.4,3437.0,711.8,959.4,1373.0,1870.3,1794.5,978.2,11.0,4.0,17.0,7558.0,10733.0,-7308.0,-6535.0,31.0,51.0,0.0,-7.0,-6.0,-14.0,11043.0,10887.0,4684.0,2456.0,13.0,5.0,12.0,1.0
2022-05-13 14:50:11.639031-07:00,2033.4,597.9,1723.4,1644.5,947.5,1411.3,1391.2,1415.8,3439.5,3435.8,2269.3,1644.5,1422.2,3437.0,1514.3,1887.9,3433.4,3439.5,774.5,1402.1,965.4,565.8,1352.1,1843.0,3443.1,3438.2,705.2,959.4,1377.5,1870.3,1794.5,978.2,26.0,18.0,19.0,7553.0,10784.0,-7286.0,-6482.0,218.0,339.0,-115.0,9.0,-5.0,21.0,11023.0,10897.0,4703.0,2465.0,68.0,93.0,-4.0,1.0
2022-05-13 14:50:11.641921-07:00,2071.5,605.2,1801.3,1646.4,939.0,1411.3,1391.2,1415.8,3437.0,3428.6,2277.6,1645.4,1417.6,3437.0,1514.3,1887.9,3433.4,3439.5,774.5,1402.1,962.8,566.6,1351.2,1834.3,3443.1,3438.2,705.2,963.7,1412.2,1879.1,1831.3,981.6,64.0,68.0,-17.0,7532.0,10963.0,-7150.0,-6356.0,172.0,753.0,-538.0,-30.0,31.0,-47.0,11010.0,10886.0,4751.0,2477.0,17.0,130.0,-98.0,1.0
2022-05-13 14:50:11.820060-07:00,2071.5,605.2,1801.3,1646.4,935.6,1428.6,1380.3,1399.4,3437.0,3428.6,2277.6,1645.4,1420.4,3439.5,1686.2,1901.6,3437.0,3431.0,771.1,1404.9,962.8,566.6,1351.2,1834.3,3444.3,3444.3,720.8,1009.9,1412.2,1879.1,1831.3,981.6,-70.0,-32.0,-184.0,7630.0,11302.0,-6715.0,-6114.0,45.0,1560.0,-768.0,-11.0,-3.0,79.0,11022.0,10850.0,4789.0,2510.0,-114.0,141.0,19.0,1.0
2022-05-13 14:50:11.823102-07:00,3390.0,610.0,1936.1,1654.9,935.6,1428.6,1380.3,1399.4,3432.2,3439.5,2547.6,1691.9,1420.4,3439.5,1686.2,1901.6,3437.0,3431.0,771.1,1404.9,952.6,566.6,1450.6,1828.4,3444.3,3444.3,720.8,1009.9,1394.8,1955.8,2076.5,979.9,34.0,-12.0,1.0,7597.0,11619.0,-6389.0,-5909.0,71.0,601.0,-380.0,5.0,-6.0,-30.0,11043.0,10817.0,4811.0,2517.0,-142.0,-14.0,-65.0,1.0
2022-05-13 14:50:11.824262-07:00,3390.0,610.0,1936.1,1654.9,933.0,1450.6,1364.8,1382.1,3432.2,3439.5,2547.6,1691.9,1420.4,3441.9,1867.4,1943.0,3439.5,3435.8,769.5,1402.1,952.6,566.6,1450.6,1828.4,3446.7,3440.7,704.4,1100.8,1394.8,1955.8,2076.5,979.9,-117.0,0.0,83.0,7717.0,11748.0,-6132.0,-5768.0,-201.0,476.0,-182.0,-9.0,-1.0,63.0,11110.0,10751.0,4794.0,2541.0,-284.0,15.0,22.0,1.0
2022-05-13 14:50:11.864657-07:00,3251.7,602.8,1628.4,1578.6,933.0,1450.6,1364.8,1382.1,3432.2,3444.3,2392.4,1606.8,1420.4,3441.9,1867.4,1943.0,3439.5,3435.8,769.5,1402.1,972.2,578.6,1602.1,1817.8,3446.7,3440.7,704.4,1100.8,1396.7,1802.3,1873.2,982.5,-7.0,7.0,33.0,7801.0,11778.0,-6002.0,-5730.0,-79.0,227.0,-109.0,6.0,-2.0,-8.0,11152.0,10696.0,4793.0,2589.0,-39.0,96.0,15.0,1.0
2022-05-13 14:50:11.907418-07:00,3106.7,602.8,1628.4,1578.6,929.6,1396.7,1333.2,1373.9,3433.4,3444.3,2392.4,1606.8,1428.6,3439.5,1548.7,1811.0,3433.4,3439.5,765.3,1402.1,972.2,578.6,1602.1,1801.3,3443.1,3435.8,709.3,1102.5,1396.7,1802.3,1873.2,979.9,-19.0,-11.0,-19.0,7801.0,11864.0,-5909.0,-5648.0,13.0,368.0,-162.0,-3.0,-12.0,27.0,11133.0,10698.0,4821.0,2606.0,-15.0,74.0,-14.0,1.0
2022-05-13 14:50:11.998842-07:00,3106.7,610.8,1534.8,1549.7,929.6,1396.7,1333.2,1359.4,3433.4,3443.1,2164.6,1557.1,1428.6,3439.5,1548.7,1756.0,3439.5,3439.5,765.3,1402.1,966.2,578.6,1545.9,1801.3,3445.5,3435.8,709.3,1102.5,1393.0,1718.6,1696.7,979.9,16.0,23.0,-6.0,7796.0,11928.0,-5828.0,-5606.0,176.0,136.0,-141.0,-18.0,12.0,-36.0,11118.0,10700.0,4848.0,2613.0,85.0,51.0,-29.0,1.0
2022-05-13 14:50:12.001067-07:00,3020.2,610.8,1534.8,1549.7,933.9,1389.4,1315.1,1359.4,3443.1,3443.1,2164.6,1557.1,1426.8,3439.5,1444.2,1756.0,3439.5,3441.9,768.7,1403.0,966.2,578.6,1545.9,1792.6,3445.5,3446.7,703.6,1090.3,1393.0,1718.6,1696.7,985.9,-53.0,-15.0,-7.0,7785.0,12012.0,-5721.0,-5552.0,-47.0,338.0,-224.0,-4.0,-11.0,35.0,11111.0,10698.0,4866.0,2616.0,-37.0,50.0,-23.0,1.0
2022-05-13 14:50:12.179597-07:00,3020.2,623.0,1501.4,1543.1,933.9,1389.4,1315.1,1338.6,3443.1,3446.7,2086.6,1542.2,1426.8,3439.5,1444.2,1733.0,3437.0,3441.9,768.7,1403.0,964.5,585.1,1526.4,1792.6,3444.3,3446.7,703.6,1090.3,1383.0,1687.2,1626.5,985.9,41.0,29.0,-11.0,7774.0,12062.0,-5665.0,-5516.0,171.0,56.0,-45.0,-14.0,27.0,-56.0,11088.0,10711.0,4890.0,2616.0,84.0,27.0,-10.0,1.0
2022-05-13 14:50:12.342494-07:00,2950.7,623.0,1501.4,1543.1,926.2,1383.9,1319.6,1338.6,3444.3,3446.7,2086.6,1542.2,1427.7,3441.9,1404.0,1733.0,3437.0,3435.8,762.0,1397.6,964.5,585.1,1526.4,1786.8,3444.3,3449.1,712.6,1090.3,1383.0,1687.2,1626.5,983.3,-72.0,-40.0,2.0,7811.0,12108.0,-5561.0,-5468.0,-144.0,300.0,-154.0,4.0,-23.0,52.0,11098.0,10700.0,4890.0,2620.0,-11.0,25.0,-19.0,1.0
2022-05-13 14:50:12.344029-07:00,2950.7,621.4,1482.9,1528.3,926.2,1383.9,1319.6,1352.1,3444.3,3445.5,2055.4,1529.2,1427.7,3441.9,1404.0,1722.4,3444.3,3435.8,762.0,1397.6,974.8,573.8,1505.1,1786.8,3439.5,3449.1,712.6,1090.3,1373.0,1666.3,1599.3,983.3,35.0,6.0,-14.0,7751.0,12140.0,-5589.0,-5454.0,257.0,-203.0,80.0,-12.0,7.0,-34.0,11053.0,10737.0,4918.0,2608.0,175.0,15.0,-8.0,1.0
2022-05-13 14:50:12.345016-07:00,2885.1,625.4,1482.9,1528.3,911.8,1374.8,1306.1,1352.1,3439.5,3439.5,2055.4,1529.2,1418.6,3445.5,1378.5,1722.4,3444.3,3449.1,765.3,1394.8,974.8,573.8,1499.5,1783.9,3439.5,3428.6,696.2,1084.2,1373.0,1666.3,1589.9,984.2,-49.0,-8.0,-8.0,7742.0,12145.0,-5602.0,-5443.0,-93.0,108.0,-43.0,-9.0,-2.0,31.0,11053.0,10738.0,4916.0,2607.0,-35.0,7.0,-2.0,1.0
2022-05-13 14:50:12.346120-07:00,2885.1,625.4,1465.4,1519.0,911.8,1374.8,1312.4,1340.4,3439.5,3439.5,2035.4,1517.1,1418.6,3445.5,1364.8,1700.5,3441.9,3432.2,765.3,1394.8,968.8,576.2,1499.5,1783.9,3445.5,3444.3,696.2,1084.2,1374.8,1653.9,1589.9,984.2,14.0,5.0,-6.0,7684.0,12165.0,-5620.0,-5460.0,147.0,-148.0,-66.0,-8.0,19.0,-13.0,11038.0,10750.0,4929.0,2597.0,29.0,1.0,-28.0,1.0
2022-05-13 14:50:12.347198-07:00,2849.2,617.3,1465.4,1519.0,913.5,1377.5,1312.4,1340.4,3433.4,3446.7,2035.4,1517.1,1413.1,3440.7,1364.8,1700.5,3441.9,3432.2,761.2,1398.5,968.8,576.2,1495.8,1783.9,3445.5,3444.3,696.2,1079.9,1374.8,1653.9,1563.7,974.8,-30.0,-79.0,-1.0,7666.0,12159.0,-5631.0,-5488.0,8.0,-71.0,74.0,4.0,-42.0,13.0,11039.0,10751.0,4927.0,2591.0,91.0,-5.0,10.0,1.0
2022-05-13 14:50:12.402961-07:00,2849.2,617.3,1467.2,1515.3,913.5,1377.5,1305.2,1341.3,3433.4,3446.7,2032.4,1518.0,1413.1,3440.7,1358.5,1691.9,3443.1,3438.2,761.2,1398.5,973.9,578.6,1495.8,1783.9,3440.7,3435.8,696.2,1079.9,1372.1,1647.3,1563.7,974.8,3.0,16.0,8.0,7572.0,12162.0,-5784.0,-5453.0,418.0,-232.0,248.0,-5.0,5.0,1.0,10958.0,10833.0,4942.0,2568.0,327.0,31.0,29.0,1.0
2022-05-13 14:50:12.405624-07:00,2823.5,614.1,1467.2,1515.3,911.0,1382.1,1305.2,1341.3,3435.8,3435.8,2032.4,1518.0,1416.7,3444.3,1358.5,1691.9,3443.1,3438.2,769.5,1394.8,973.9,578.6,1514.3,1768.5,3440.7,3435.8,695.4,1090.3,1372.1,1647.3,1556.2,977.3,-39.0,16.0,0.0,7439.0,12192.0,-5912.0,-5432.0,394.0,-214.0,32.0,-1.0,-29.0,26.0,10881.0,10905.0,4961.0,2550.0,264.0,54.0,-2.0,1.0
2022-05-13 14:50:12.493668-07:00,2823.5,614.1,1450.6,1506.9,911.0,1409.4,1305.2,1342.2,3435.8,3435.8,2071.5,1519.9,1416.7,3438.2,1397.6,1701.4,3441.9,3431.0,758.7,1394.8,965.4,577.0,1514.3,1768.5,3446.7,3449.1,695.4,1090.3,1373.0,1638.8,1556.2,977.3,-26.0,1.0,6.0,7236.0,12229.0,-6064.0,-5456.0,469.0,-437.0,90.0,-16.0,-2.0,10.0,10768.0,11000.0,5016.0,2512.0,433.0,79.0,-41.0,1.0
2022-05-13 14:50:12.494338-07:00,2862.7,610.8,1415.8,1506.9,912.7,1409.4,1305.2,1342.2,3439.5,3440.7,2410.3,1519.9,1416.7,3438.2,1397.6,1701.4,3441.9,3431.0,758.7,1389.4,965.4,577.8,1521.8,1777.2,3446.7,3449.1,695.4,1093.8,1373.0,1675.7,1621.8,985.0,-41.0,5.0,-59.0,7014.0,12222.0,-6284.0,-5511.0,587.0,-605.0,186.0,-13.0,-24.0,-9.0,10631.0,11119.0,5070.0,2467.0,490.0,60.0,0.0,1.0
2022-05-13 14:50:12.583544-07:00,2862.7,610.8,1415.8,1498.6,912.7,1427.7,1306.1,1342.2,3439.5,3440.7,2410.3,1574.9,1416.7,3434.6,1771.4,1818.7,3435.8,3441.9,761.2,1389.4,967.1,577.8,1521.8,1777.2,3441.9,3433.4,699.5,1093.8,1365.7,1675.7,1621.8,985.0,56.0,74.0,-42.0,6691.0,12202.0,-6585.0,-5605.0,636.0,-638.0,199.0,-24.0,41.0,-32.0,10486.0,11245.0,5129.0,2390.0,428.0,-15.0,-115.0,1.0
2022-05-13 14:50:12.585469-07:00,2897.5,616.5,1467.2,1498.6,905.0,1427.7,1306.1,1342.2,3438.2,3440.7,2502.6,1574.9,1416.7,3434.6,1771.4,1818.7,3435.8,3441.9,761.2,1397.6,967.1,576.2,1496.7,1787.8,3441.9,3433.4,699.5,1070.3,1365.7,1933.1,1975.6,981.6,-8.0,-64.0,-26.0,6564.0,12067.0,-6880.0,-5693.0,47.0,-739.0,610.0,-20.0,-5.0,14.0,10422.0,11311.0,5154.0,2307.0,185.0,-116.0,-47.0,1.0
2022-05-13 14:50:12.629688-07:00,2897.5,616.5,1467.2,1509.7,905.0,1403.0,1298.1,1349.4,3438.2,3440.7,2502.6,1609.6,1416.7,3441.9,1764.6,1920.3,3432.2,3444.3,762.0,1397.6,965.4,576.2,1496.7,1787.8,3440.7,3444.3,694.6,1070.3,1368.5,1933.1,1975.6,981.6,13.0,43.0,11.0,6555.0,11829.0,-7154.0,-5862.0,-163.0,-659.0,388.0,-35.0,-6.0,-45.0,10444.0,11326.0,5097.0,2257.0,-13.0,-169.0,18.0,1.0
2022-05-13 14:50:12.719792-07:00,2945.0,614.1,1904.6,1653.0,920.3,1403.0,1298.1,1349.4,3438.2,3433.4,2529.3,1663.4,1421.3,3441.9,1764.6,1920.3,3432.2,3444.3,762.0,1400.3,959.4,571.4,1484.7,1790.7,3440.7,3444.3,694.6,1038.3,1359.4,1951.9,1983.6,984.2,29.0,23.0,24.0,6510.0,11667.0,-7307.0,-6045.0,-84.0,-572.0,159.0,-2.0,39.0,28.0,10474.0,11316.0,5074.0,2224.0,-54.0,-114.0,-33.0,1.0
2022-05-13 14:50:12.808871-07:00,2945.0,614.1,1904.6,1653.0,932.2,1437.8,1287.3,1340.4,3438.2,3433.4,2529.3,1663.4,1411.3,3435.8,1685.3,1935.1,3434.6,3439.5,764.5,1405.8,959.4,571.4,1484.7,1790.7,3440.7,3445.5,704.4,1015.1,1359.4,1951.9,1983.6,984.2,14.0,-19.0,39.0,6507.0,11538.0,-7397.0,-6184.0,-180.0,-325.0,146.0,-10.0,-10.0,0.0,10515.0,11292.0,5050.0,2208.0,-108.0,-62.0,-1.0,1.0
2022-05-13 14:50:12.810075-07:00,2683.2,614.9,1882.0,1648.3,932.2,1437.8,1287.3,1340.4,3439.5,3445.5,2469.5,1659.6,1411.3,3435.8,1685.3,1935.1,3434.6,3439.5,764.5,1405.8,965.4,569.8,1479.2,1787.8,3440.7,3445.5,704.4,1015.1,1352.1,1938.0,1922.3,984.2,-21.0,58.0,33.0,6573.0,11461.0,-7416.0,-6235.0,-300.0,-85.0,136.0,-18.0,24.0,15.0,10553.0,11264.0,5027.0,2216.0,-186.0,-39.0,16.0,1.0
2022-05-13 14:50:12.899093-07:00,2683.2,614.9,1882.0,1648.3,933.0,1448.8,1304.3,1338.6,3439.5,3445.5,2469.5,1659.6,1415.8,3437.0,1621.8,1935.1,3438.2,3437.0,768.7,1405.8,965.4,569.8,1479.2,1787.8,3449.1,3438.2,715.1,997.0,1352.1,1938.0,1922.3,984.2,9.0,-13.0,33.0,6735.0,11348.0,-7400.0,-6287.0,-449.0,152.0,178.0,9.0,-29.0,-12.0,10640.0,11202.0,4971.0,2243.0,-264.0,-72.0,79.0,1.0
2022-05-13 14:50:12.901746-07:00,2414.5,610.0,1821.6,1634.1,933.0,1448.8,1304.3,1338.6,3435.8,3439.5,2411.3,1674.8,1415.8,3437.0,1621.8,1935.1,3438.2,3437.0,768.7,1405.8,956.0,571.4,1443.3,1792.6,3449.1,3438.2,715.1,997.0,1354.9,1948.9,1874.2,979.9,-32.0,17.0,-29.0,6911.0,11259.0,-7357.0,-6308.0,-415.0,24.0,180.0,-21.0,-3.0,0.0,10721.0,11139.0,4921.0,2281.0,-252.0,-57.0,67.0,1.0
2022-05-13 14:50:12.988777-07:00,2414.5,610.0,1821.6,1634.1,939.8,1442.4,1432.3,1428.6,3435.8,3439.5,2411.3,1674.8,1414.9,3435.8,1576.8,1927.2,3434.6,3438.2,762.9,1399.4,956.0,571.4,1443.3,1792.6,3446.7,3438.2,731.5,984.2,1354.9,1948.9,1874.2,979.9,57.0,17.0,26.0,7023.0,11202.0,-7308.0,-6342.0,-232.0,207.0,-71.0,6.0,-16.0,-52.0,10797.0,11075.0,4887.0,2307.0,-212.0,8.0,-9.0,1.0
2022-05-13 14:50:12.989985-07:00,2264.1,607.6,1789.7,1623.7,939.8,1442.4,1432.3,1502.3,3437.0,3441.9,2366.1,1655.8,1414.9,3435.8,1576.8,1901.6,3439.5,3438.2,762.9,1399.4,966.2,576.2,1432.3,1795.5,3428.6,3438.2,731.5,984.2,1351.2,1895.8,1842.0,984.2,-73.0,-45.0,-69.0,7098.0,11229.0,-7239.0,-6289.0,24.0,1.0,99.0,-24.0,-33.0,83.0,10798.0,11066.0,4896.0,2330.0,55.0,-10.0,39.0,1.0
2022-05-13 14:50:13.034729-07:00,2177.9,607.6,1789.7,1623.7,944.1,1442.4,1499.5,1502.3,3439.5,3441.9,2366.1,1655.8,1415.8,3438.2,1556.2,1901.6,3439.5,3440.7,763.7,1404.9,966.2,576.2,1432.3,1800.3,3428.6,3449.1,757.9,984.2,1351.2,1895.8,1842.0,984.2,57.0,40.0,34.0,7078.0,11218.0,-7267.0,-6299.0,-15.0,88.0,-60.0,10.0,-2.0,-62.0,10796.0,11074.0,4887.0,2319.0,6.0,29.0,-5.0,1.0
2022-05-13 14:50:13.418109-07:00,2177.9,610.8,1763.7,1619.9,944.1,1442.4,1499.5,1475.5,3439.5,3440.7,2351.4,1647.3,1415.8,3438.2,1556.2,1899.7,3439.5,3440.7,763.7,1404.9,967.1,569.8,1425.0,1800.3,3444.3,3449.1,757.9,984.2,1355.8,1881.1,1825.5,984.2,-21.0,19.0,0.0,7101.0,11256.0,-7230.0,-6248.0,60.0,108.0,1.0,-4.0,-5.0,22.0,10774.0,11083.0,4906.0,2335.0,48.0,60.0,-1.0,1.0
2022-05-13 14:50:13.421732-07:00,2154.4,610.8,1763.7,1619.9,941.5,1424.1,1477.3,1475.5,3439.5,3440.7,2351.4,1647.3,1408.5,3439.5,1543.1,1899.7,3439.5,3437.0,767.0,1395.7,967.1,569.8,1425.0,1810.0,3444.3,3451.6,752.9,975.6,1355.8,1881.1,1825.5,982.5,-3.0,-6.0,14.0,7109.0,11274.0,-7215.0,-6225.0,1.0,92.0,-11.0,-8.0,-9.0,-3.0,10765.0,11084.0,4919.0,2344.0,26.0,42.0,1.0,1.0
2022-05-13 14:50:13.422842-07:00,2154.4,603.6,1738.7,1613.4,941.5,1424.1,1477.3,1472.7,3439.5,3449.1,2332.6,1644.5,1408.5,3439.5,1543.1,1883.0,3431.0,3437.0,767.0,1395.7,963.7,570.6,1416.7,1810.0,3440.7,3451.6,752.9,975.6,1346.7,1868.4,1810.0,982.5,-11.0,31.0,-24.0,7113.0,11259.0,-7240.0,-6218.0,-23.0,-103.0,53.0,-2.0,-2.0,0.0,10757.0,11093.0,4918.0,2344.0,-20.0,-11.0,0.0,1.0
2022-05-13 14:50:13.423932-07:00,2125.0,610.8,1738.7,1613.4,933.9,1425.9,1469.0,1472.7,3438.2,3441.9,2332.6,1644.5,1416.7,3455.2,1532.9,1883.0,3431.0,3444.3,771.1,1393.9,963.7,570.6,1404.0,1798.4,3440.7,3441.9,748.0,974.8,1346.7,1868.4,1798.4,983.3,-8.0,-23.0,12.0,7113.0,11265.0,-7223.0,-6226.0,23.0,86.0,-52.0,-8.0,-16.0,-15.0,10761.0,11084.0,4927.0,2344.0,16.0,39.0,-19.0,1.0
2022-05-13 14:50:13.425025-07:00,2125.0,610.8,1724.4,1602.1,933.9,1425.9,1464.4,1465.4,3438.2,3441.9,2321.2,1634.1,1416.7,3455.2,1526.4,1889.9,3440.7,3433.4,771.1,1393.9,962.8,571.4,1404.0,1798.4,3449.1,3443.1,748.0,974.8,1342.2,1866.4,1798.4,983.3,6.0,19.0,1.0,7095.0,11262.0,-7244.0,-6228.0,14.0,-62.0,14.0,-3.0,9.0,-15.0,10749.0,11094.0,4933.0,2341.0,14.0,-17.0,-1.0,1.0
2022-05-13 14:50:13.425750-07:00,2125.0,610.8,1724.4,1602.1,933.9,1425.9,1464.4,1465.4,3438.2,3441.9,2321.2,1634.1,1416.7,3455.2,1526.4,1889.9,3440.7,3433.4,771.1,1393.9,962.8,571.4,1404.0,1798.4,3449.1,3443.1,748.0,974.8,1342.2,1866.4,1798.4,983.3,6.0,19.0,1.0,7095.0,11262.0,-7244.0,-6228.0,14.0,-62.0,14.0,-3.0,9.0,-15.0,10749.0,11094.0,4933.0,2341.0,14.0,-17.0,-1.0,1.0
2022-05-13 14:50:13.485666-07:00,2091.6,601.2,1734.9,1593.6,937.3,1423.1,1458.9,1464.4,3438.2,3439.5,2311.8,1629.4,1418.6,3444.3,1514.3,1881.1,3429.8,3440.7,772.0,1396.7,962.8,567.4,1408.5,1811.9,3441.9,3449.1,748.0,967.1,1339.5,1861.5,1796.5,983.3,16.0,28.0,11.0,7092.0,11261.0,-7248.0,-6229.0,-39.0,-26.0,13.0,-4.0,15.0,-7.0,10744.0,11099.0,4934.0,2340.0,-27.0,-21.0,8.0,1.0
2022-05-13 14:50:13.486483-07:00,2091.6,601.2,1734.9,1593.6,937.3,1423.1,1458.9,1464.4,3438.2,3439.5,2311.8,1629.4,1418.6,3444.3,1514.3,1881.1,3429.8,3440.7,772.0,1396.7,962.8,567.4,1408.5,1811.9,3441.9,3449.1,748.0,967.1,1339.5,1861.5,1796.5,983.3,16.0,28.0,11.0,7092.0,11261.0,-7248.0,-6229.0,-39.0,-26.0,13.0,-4.0,15.0,-7.0,10744.0,11099.0,4934.0,2340.0,-27.0,-21.0,8.0,1.0
2022-05-13 14:50:13.488082-07:00,2070.5,597.9,1724.4,1597.4,928.8,1419.5,1463.5,1447.0,3440.7,3449.1,2301.4,1631.3,1415.8,3440.7,1509.7,1883.0,3439.5,3438.2,773.6,1395.7,961.1,573.8,1394.8,1810.0,3446.7,3440.7,745.5,967.1,1333.2,1848.9,1797.4,981.6,12.0,8.0,6.0,7080.0,11280.0,-7244.0,-6212.0,1.0,-5.0,-12.0,0.0,2.0,-21.0,10729.0,11106.0,4948.0,2347.0,0.0,3.0,-8.0,1.0
2022-05-13 14:50:13.574542-07:00,2055.4,603.6,1724.4,1597.4,927.1,1413.1,1463.5,1447.0,3433.4,3443.1,2289.0,1631.3,1416.7,3441.9,1509.7,1883.0,3439.5,3438.2,767.8,1395.7,961.1,569.0,1395.7,1818.7,3446.7,3440.7,738.9,958.5,1333.2,1853.7,1783.9,981.6,-5.0,1.0,6.0,7082.0,11293.0,-7234.0,-6199.0,26.0,84.0,-12.0,-10.0,-5.0,-3.0,10721.0,11110.0,4954.0,2351.0,24.0,27.0,11.0,1.0
2022-05-13 14:50:13.576236-07:00,2055.4,603.6,1724.4,1588.9,927.1,1412.2,1448.8,1456.2,3433.4,3443.1,2289.0,1627.5,1416.7,3446.7,1506.9,1872.3,3449.1,3440.7,770.3,1395.7,961.1,569.0,1395.7,1818.7,3446.7,3438.2,743.0,958.5,1329.6,1853.7,1783.9,981.6,-13.0,19.0,-22.0,7079.0,11310.0,-7224.0,-6182.0,37.0,-15.0,-38.0,-10.0,10.0,2.0,10714.0,11112.0,4962.0,2354.0,10.0,9.0,-12.0,1.0
2022-05-13 14:50:13.618587-07:00,2067.5,608.4,1729.1,1588.9,933.0,1412.2,1448.8,1456.2,3441.9,3432.2,2284.8,1627.5,1414.9,3446.7,1506.9,1872.3,3449.1,3440.7,770.3,1393.0,961.1,573.0,1392.1,1798.4,3446.7,3438.2,743.0,973.9,1329.6,1851.8,1781.0,986.7,28.0,-5.0,23.0,7063.0,11335.0,-7201.0,-6183.0,57.0,180.0,-141.0,0.0,-18.0,-15.0,10714.0,11109.0,4971.0,2352.0,-10.0,25.0,-17.0,1.0
2022-05-13 14:50:13.800410-07:00,2067.5,608.4,1729.1,1590.8,933.0,1420.4,1430.5,1451.6,3441.9,3432.2,2284.8,1623.7,1414.9,3432.2,1538.5,1863.5,3439.5,3438.2,768.7,1393.0,960.2,573.0,1392.1,1798.4,3446.7,3446.7,739.7,973.9,1337.7,1851.8,1781.0,986.7,57.0,75.0,-12.0,7101.0,11439.0,-7057.0,-6113.0,-124.0,760.0,-488.0,-8.0,4.0,-4.0,10726.0,11090.0,4980.0,2368.0,-100.0,71.0,-8.0,1.0
2022-05-13 14:50:13.933604-07:00,2658.0,618.1,1802.3,1590.8,936.4,1420.4,1430.5,1451.6,3451.6,3446.7,2392.4,1623.7,1407.6,3432.2,1538.5,1863.5,3439.5,3438.2,768.7,1392.1,960.2,576.2,1408.5,1788.7,3446.7,3446.7,739.7,966.2,1337.7,1888.9,1926.2,981.6,67.0,7.0,-2.0,7213.0,11633.0,-6725.0,-5988.0,-235.0,933.0,-496.0,9.0,-10.0,-23.0,10782.0,11026.0,4984.0,2400.0,-234.0,23.0,6.0,1.0
2022-05-13 14:50:13.935310-07:00,2658.0,618.1,1802.3,1604.9,926.2,1424.1,1426.8,1432.3,3451.6,3446.7,2392.4,1637.9,1405.8,3440.7,1838.2,1916.4,3437.0,3428.6,763.7,1394.8,952.6,576.2,1408.5,1788.7,3449.1,3437.0,739.7,1064.3,1335.9,1888.9,1926.2,981.6,-60.0,-44.0,-106.0,7389.0,11815.0,-6306.0,-5872.0,-644.0,768.0,-504.0,-27.0,12.0,24.0,10921.0,10893.0,4941.0,2470.0,-677.0,-63.0,39.0,1.0
2022-05-13 14:50:13.977972-07:00,3360.0,610.8,1715.8,1567.4,926.2,1424.1,1426.8,1432.3,3446.7,3440.7,2464.2,1617.1,1405.8,3440.7,1838.2,1916.4,3437.0,3428.6,763.7,1394.8,965.4,583.5,1604.0,1800.3,3449.1,3437.0,739.7,1064.3,1338.6,1904.6,2044.4,984.2,-71.0,-23.0,144.0,7702.0,11857.0,-5915.0,-5792.0,-651.0,705.0,-262.0,0.0,-28.0,9.0,11129.0,10697.0,4862.0,2550.0,-689.0,-57.0,91.0,1.0
2022-05-13 14:50:13.979635-07:00,3360.0,610.8,1715.8,1567.4,923.7,1435.0,1390.3,1422.2,3446.7,3440.7,2464.2,1617.1,1414.0,3440.7,1713.8,1880.1,3438.2,3429.8,762.9,1407.6,965.4,583.5,1604.0,1800.3,3447.9,3439.5,734.8,1111.2,1338.6,1904.6,2044.4,984.2,-65.0,0.0,8.0,7954.0,11866.0,-5595.0,-5750.0,-401.0,390.0,-294.0,5.0,-3.0,43.0,11291.0,10523.0,4813.0,2656.0,-492.0,56.0,43.0,1.0
2022-05-13 14:50:14.024484-07:00,3150.8,609.2,1553.4,1530.1,923.7,1435.0,1390.3,1422.2,3449.1,3439.5,2206.5,1555.3,1414.0,3440.7,1713.8,1880.1,3438.2,3429.8,762.9,1407.6,975.6,583.5,1563.7,1779.1,3447.9,3439.5,734.8,1111.2,1342.2,1733.0,1782.0,983.3,-11.0,-2.0,-5.0,8038.0,11899.0,-5409.0,-5744.0,-243.0,296.0,-231.0,6.0,6.0,-6.0,11354.0,10444.0,4808.0,2706.0,-217.0,45.0,-4.0,1.0
2022-05-13 14:50:14.068222-07:00,3150.8,609.2,1553.4,1530.1,929.6,1420.4,1365.7,1402.1,3449.1,3439.5,2206.5,1555.3,1410.3,3441.9,1515.3,1781.0,3435.8,3434.6,757.9,1404.0,975.6,583.5,1563.7,1779.1,3445.5,3431.0,729.9,1100.8,1342.2,1733.0,1782.0,983.3,-25.0,-9.0,0.0,8103.0,11930.0,-5256.0,-5730.0,-71.0,253.0,-164.0,-18.0,0.0,-6.0,11400.0,10388.0,4805.0,2734.0,-128.0,13.0,0.0,1.0
2022-05-13 14:50:14.070540-07:00,3018.0,606.0,1497.7,1507.8,929.6,1420.4,1365.7,1397.6,3438.2,3437.0,2083.6,1532.9,1410.3,3441.9,1515.3,1745.4,3429.8,3434.6,757.9,1404.0,973.1,578.6,1528.3,1763.7,3437.0,3431.0,729.9,1100.8,1335.0,1696.7,1674.8,973.9,6.0,9.0,-16.0,8112.0,11981.0,-5178.0,-5681.0,11.0,215.0,-57.0,-3.0,-7.0,5.0,11401.0,10383.0,4809.0,2739.0,43.0,26.0,10.0,1.0
2022-05-13 14:50:14.116127-07:00,2941.6,606.0,1497.7,1507.8,913.5,1404.9,1361.2,1397.6,3450.4,3437.0,2083.6,1532.9,1401.2,3438.2,1436.9,1745.4,3429.8,3438.2,756.3,1399.4,973.1,578.6,1528.3,1764.6,3437.0,3444.3,720.0,1092.9,1335.0,1696.7,1674.8,985.0,-2.0,9.0,-5.0,8120.0,12015.0,-5121.0,-5650.0,8.0,119.0,-117.0,-8.0,3.0,-11.0,11401.0,10381.0,4814.0,2742.0,-27.0,9.0,-12.0,1.0
2022-05-13 14:50:14.157446-07:00,2941.6,611.7,1450.6,1495.8,913.5,1404.9,1361.2,1390.3,3450.4,3440.7,2050.4,1522.7,1401.2,3438.2,1436.9,1731.1,3438.2,3438.2,756.3,1399.4,970.5,581.0,1495.8,1764.6,3444.3,3444.3,720.0,1092.9,1329.6,1687.2,1628.4,985.0,-10.0,-39.0,-13.0,8095.0,12047.0,-5101.0,-5636.0,183.0,-64.0,59.0,-1.0,-27.0,8.0,11390.0,10391.0,4820.0,2736.0,111.0,5.0,-2.0,1.0
2022-05-13 14:50:14.204282-07:00,2884.0,611.7,1450.6,1495.8,911.0,1386.6,1354.0,1390.3,3438.2,3440.7,2050.4,1522.7,1399.4,3441.9,1412.2,1731.1,3438.2,3433.4,756.3,1394.8,970.5,581.0,1495.8,1759.8,3444.3,3443.1,710.1,1092.1,1329.6,1687.2,1628.4,983.3,-2.0,45.0,16.0,8048.0,12070.0,-5141.0,-5616.0,82.0,27.0,-17.0,-10.0,18.0,-6.0,11368.0,10415.0,4826.0,2726.0,25.0,3.0,-3.0,1.0
2022-05-13 14:50:14.249387-07:00,2884.0,608.4,1444.2,1484.7,911.0,1386.6,1354.0,1390.3,3438.2,3433.4,2044.4,1521.8,1399.4,3441.9,1412.2,1713.8,3444.3,3433.4,756.3,1394.8,965.4,578.6,1496.7,1759.8,3446.7,3443.1,710.1,1092.1,1333.2,1655.8,1596.4,983.3,-17.0,-15.0,-4.0,8025.0,12096.0,-5125.0,-5609.0,122.0,-29.0,-32.0,-9.0,-11.0,19.0,11358.0,10420.0,4841.0,2725.0,78.0,35.0,-20.0,1.0
2022-05-13 14:50:14.294471-07:00,2833.6,608.4,1444.2,1484.7,914.4,1386.6,1347.6,1390.3,3449.1,3433.4,2044.4,1521.8,1404.0,3438.2,1385.7,1713.8,3444.3,3433.4,754.6,1396.7,965.4,578.6,1496.7,1756.0,3446.7,3439.5,718.4,1078.2,1333.2,1655.8,1596.4,976.5,1.0,4.0,-3.0,7989.0,12108.0,-5157.0,-5604.0,32.0,-25.0,44.0,-3.0,4.0,-12.0,11340.0,10436.0,4851.0,2721.0,0.0,3.0,17.0,1.0
2022-05-13 14:50:14.384128-07:00,2833.6,607.6,1428.6,1476.4,914.4,1386.6,1338.6,1380.3,3449.1,3441.9,2024.4,1511.5,1404.0,3438.2,1382.1,1704.3,3437.0,3438.2,754.6,1396.7,961.1,577.8,1485.6,1756.0,3444.3,3449.1,718.4,1078.2,1316.0,1646.4,1576.8,976.5,-13.0,18.0,-24.0,8008.0,12090.0,-5175.0,-5599.0,-10.0,-33.0,71.0,-2.0,-5.0,12.0,11345.0,10431.0,4843.0,2731.0,10.0,-1.0,10.0,1.0
2022-05-13 14:50:14.386197-07:00,2803.5,604.4,1428.6,1476.4,902.5,1376.6,1338.6,1380.3,3449.1,3440.7,2024.4,1511.5,1396.7,3444.3,1382.1,1704.3,3437.0,3438.2,766.2,1393.0,961.1,577.8,1476.4,1751.2,3444.3,3449.1,711.8,1062.5,1316.0,1646.4,1561.8,979.9,10.0,18.0,-6.0,7987.0,12077.0,-5208.0,-5627.0,4.0,-120.0,-32.0,-12.0,4.0,-11.0,11347.0,10430.0,4844.0,2726.0,-35.0,-22.0,-17.0,1.0
2022-05-13 14:50:14.474560-07:00,2803.5,604.4,1417.6,1473.6,902.5,1376.6,1344.9,1383.9,3449.1,3440.7,2014.4,1506.0,1396.7,3444.3,1360.3,1695.7,3426.2,3433.4,766.2,1393.0,959.4,579.4,1476.4,1751.2,3433.4,3437.0,711.8,1062.5,1322.3,1637.9,1561.8,979.9,-17.0,-27.0,5.0,7991.0,12064.0,-5201.0,-5656.0,-10.0,-31.0,-4.0,-8.0,-18.0,8.0,11362.0,10418.0,4837.0,2723.0,21.0,-11.0,-4.0,1.0
2022-05-13 14:50:14.476240-07:00,2779.0,607.6,1417.6,1473.6,910.1,1372.1,1344.9,1383.9,3444.3,3444.3,2014.4,1506.0,1394.8,3433.4,1360.3,1695.7,3426.2,3433.4,754.6,1387.5,959.4,579.4,1470.9,1750.2,3433.4,3437.0,713.4,1066.9,1322.3,1637.9,1557.1,981.6,3.0,30.0,8.0,7969.0,12068.0,-5228.0,-5654.0,38.0,-26.0,14.0,-1.0,12.0,-2.0,11350.0,10431.0,4840.0,2718.0,6.0,0.0,0.0,1.0
2022-05-13 14:50:14.520010-07:00,2779.0,607.6,1411.3,1472.7,910.1,1372.1,1333.2,1373.0,3444.3,3444.3,2004.5,1502.3,1394.8,3433.4,1357.6,1689.1,3437.0,3439.5,754.6,1387.5,964.5,573.0,1470.9,1750.2,3444.3,3449.1,713.4,1066.9,1323.2,1627.5,1557.1,981.6,-10.0,-12.0,0.0,7982.0,12064.0,-5214.0,-5656.0,-30.0,29.0,-18.0,-6.0,-14.0,10.0,11358.0,10421.0,4839.0,2722.0,-3.0,14.0,-3.0,1.0
2022-05-13 14:50:14.655622-07:00,2758.0,608.4,1406.7,1472.7,912.7,1359.4,1333.2,1373.0,3433.4,3438.2,1993.5,1502.3,1398.5,3443.1,1357.6,1689.1,3437.0,3439.5,754.6,1392.1,964.5,581.0,1462.6,1747.3,3444.3,3449.1,715.1,1064.3,1323.2,1624.7,1546.9,984.2,-2.0,11.0,-10.0,7972.0,12068.0,-5219.0,-5657.0,-17.0,-28.0,-3.0,-7.0,8.0,-8.0,11355.0,10423.0,4842.0,2723.0,-49.0,-5.0,2.0,1.0
2022-05-13 14:50:14.698997-07:00,2758.0,608.4,1406.7,1472.7,912.7,1361.2,1335.0,1379.4,3433.4,3438.2,1993.5,1492.1,1398.5,3444.3,1353.1,1690.0,3437.0,3433.4,756.3,1392.1,967.1,581.0,1462.6,1747.3,3439.5,3439.5,708.5,1064.3,1322.3,1624.7,1546.9,984.2,-22.0,6.0,6.0,8009.0,12037.0,-5200.0,-5689.0,-240.0,-53.0,-34.0,1.0,2.0,8.0,11392.0,10384.0,4829.0,2742.0,-269.0,-15.0,29.0,1.0
2022-05-13 14:50:14.700285-07:00,2744.7,601.2,1400.3,1472.7,901.7,1361.2,1335.0,1379.4,3432.2,3435.8,2105.8,1492.1,1393.9,3444.3,1353.1,1690.0,3437.0,3433.4,756.3,1390.3,967.1,575.4,1455.2,1750.2,3439.5,3439.5,708.5,1062.5,1322.3,1635.0,1543.1,978.2,-122.0,-135.0,-37.0,8016.0,11990.0,-5211.0,-5766.0,264.0,-393.0,81.0,-9.0,-77.0,47.0,11436.0,10338.0,4809.0,2767.0,271.0,33.0,-10.0,1.0
2022-05-13 14:50:14.834158-07:00,2744.7,601.2,1400.3,1472.7,901.7,1373.9,1346.7,1373.9,3432.2,3435.8,2105.8,1512.5,1393.9,3441.9,1559.9,1712.9,3434.6,3438.2,744.7,1390.3,954.3,575.4,1455.2,1750.2,3446.7,3432.2,709.3,1062.5,1316.9,1635.0,1543.1,978.2,34.0,67.0,-101.0,7712.0,11936.0,-5635.0,-5893.0,762.0,-1215.0,500.0,-17.0,18.0,-32.0,11300.0,10477.0,4859.0,2714.0,478.0,-27.0,-4.0,1.0
2022-05-13 14:50:14.835556-07:00,2807.9,597.9,1396.7,1472.7,904.2,1373.9,1346.7,1373.9,3441.9,3434.6,2399.7,1512.5,1393.0,3441.9,1559.9,1712.9,3434.6,3438.2,744.7,1387.5,954.3,574.6,1474.6,1753.1,3446.7,3432.2,709.3,1072.1,1316.9,1733.9,1770.4,979.0,33.0,10.0,-41.0,7516.0,11758.0,-5989.0,-6150.0,-77.0,-970.0,134.0,2.0,7.0,-30.0,11268.0,10529.0,4851.0,2659.0,-144.0,-165.0,-73.0,1.0
2022-05-13 14:50:14.969955-07:00,2807.9,597.9,1396.7,1474.6,904.2,1386.6,1325.0,1366.6,3441.9,3434.6,2399.7,1574.9,1393.0,3444.3,1796.5,1893.8,3441.9,3440.7,754.6,1387.5,963.7,574.6,1474.6,1753.1,3449.1,3438.2,714.2,1072.1,1315.1,1733.9,1770.4,979.0,-46.0,13.0,44.0,7439.0,11568.0,-6236.0,-6356.0,-69.0,-757.0,432.0,-16.0,-5.0,16.0,11330.0,10498.0,4805.0,2604.0,-167.0,-205.0,-15.0,1.0
2022-05-13 14:50:15.149899-07:00,2912.2,596.3,1658.7,1551.5,908.4,1386.6,1325.0,1366.6,3444.3,3444.3,2485.5,1629.4,1409.4,3444.3,1796.5,1893.8,3441.9,3440.7,754.6,1390.3,965.4,571.4,1470.9,1764.6,3449.1,3438.2,714.2,1042.6,1313.3,1909.5,1982.6,979.9,62.0,5.0,40.0,7446.0,11292.0,-6457.0,-6617.0,-484.0,-904.0,286.0,20.0,18.0,0.0,11457.0,10396.0,4729.0,2597.0,-503.0,-173.0,10.0,1.0
2022-05-13 14:50:15.151067-07:00,2912.2,596.3,1658.7,1551.5,918.6,1388.5,1347.6,1389.4,3444.3,3444.3,2485.5,1629.4,1404.9,3431.0,1722.4,1917.4,3433.4,3438.2,755.4,1393.0,965.4,571.4,1470.9,1764.6,3439.5,3439.5,706.0,1021.9,1313.3,1909.5,1982.6,979.9,-38.0,-20.0,49.0,7597.0,11005.0,-6529.0,-6855.0,-704.0,-377.0,221.0,-11.0,-48.0,40.0,11618.0,10255.0,4629.0,2621.0,-389.0,-133.0,38.0,1.0
2022-05-13 14:50:15.152184-07:00,2878.4,601.2,1813.9,1605.8,918.6,1388.5,1347.6,1389.4,3437.0,3438.2,2478.1,1645.4,1404.9,3431.0,1722.4,1917.4,3433.4,3438.2,755.4,1393.0,961.1,577.0,1458.9,1761.8,3439.5,3439.5,706.0,1021.9,1313.3,1916.4,1959.8,983.3,-8.0,11.0,46.0,7674.0,10853.0,-6574.0,-6967.0,-104.0,-220.0,135.0,-10.0,-6.0,14.0,11685.0,10196.0,4586.0,2626.0,16.0,-20.0,-18.0,1.0
2022-05-13 14:50:15.153264-07:00,2878.4,601.2,1813.9,1605.8,924.5,1396.7,1320.5,1373.0,3437.0,3438.2,2478.1,1645.4,1407.6,3438.2,1636.9,1928.2,3433.4,3432.2,763.7,1392.1,961.1,577.0,1458.9,1761.8,3443.1,3444.3,710.1,1001.3,1313.3,1916.4,1959.8,983.3,19.0,24.0,28.0,7686.0,10797.0,-6621.0,-6996.0,-120.0,-36.0,83.0,-13.0,13.0,-9.0,11684.0,10195.0,4591.0,2624.0,-54.0,-3.0,12.0,1.0
2022-05-13 14:50:15.241049-07:00,2570.2,595.5,1830.4,1611.5,924.5,1396.7,1320.5,1373.0,3437.0,3434.6,2419.8,1650.2,1407.6,3438.2,1636.9,1928.2,3433.4,3432.2,763.7,1392.1,956.8,561.0,1445.1,1763.7,3443.1,3444.3,710.1,1001.3,1306.1,1911.5,1901.6,985.0,7.0,0.0,-32.0,7865.0,10591.0,-6656.0,-7078.0,-59.0,-129.0,4.0,-3.0,-3.0,-18.0,11724.0,10160.0,4556.0,2646.0,-25.0,-13.0,-32.0,1.0
2022-05-13 14:50:15.283589-07:00,2192.2,602.8,1808.1,1641.6,939.0,1391.2,1384.8,1402.1,3439.5,3454.0,2380.8,1644.5,1409.4,3438.2,1545.9,1912.4,3435.8,3443.1,772.0,1393.9,952.6,573.0,1429.5,1794.5,3438.2,3444.3,722.5,959.4,1339.5,1886.9,1852.8,984.2,-7.0,-10.0,2.0,7849.0,10564.0,-6677.0,-7117.0,34.0,-66.0,-20.0,-17.0,8.0,2.0,11726.0,10160.0,4559.0,2634.0,53.0,1.0,-13.0,1.0
2022-05-13 14:50:15.284924-07:00,2192.2,604.4,1777.2,1649.2,939.0,1391.2,1384.8,1367.6,3439.5,3439.5,2342.0,1630.3,1409.4,3438.2,1545.9,1895.8,3440.7,3443.1,772.0,1393.9,954.3,567.4,1414.9,1794.5,3441.9,3444.3,722.5,959.4,1344.0,1881.1,1826.5,984.2,0.0,20.0,1.0,7832.0,10542.0,-6706.0,-7140.0,-4.0,-140.0,23.0,0.0,10.0,5.0,11718.0,10172.0,4558.0,2623.0,14.0,-30.0,-12.0,1.0
2022-05-13 14:50:15.374057-07:00,2149.3,604.4,1777.2,1649.2,961.1,1390.3,1354.0,1367.6,3445.5,3439.5,2342.0,1630.3,1403.0,3444.3,1533.8,1895.8,3440.7,3432.2,778.6,1394.8,954.3,567.4,1414.9,1779.1,3441.9,3443.1,728.2,962.0,1344.0,1881.1,1826.5,978.2,-8.0,1.0,12.0,7824.0,10529.0,-6719.0,-7156.0,1.0,-35.0,20.0,-9.0,-10.0,23.0,11717.0,10177.0,4556.0,2615.0,17.0,-8.0,4.0,1.0
2022-05-13 14:50:15.376147-07:00,2149.3,597.1,1759.8,1656.8,961.1,1390.3,1333.2,1362.1,3445.5,3444.3,2320.1,1621.8,1403.0,3444.3,1519.9,1886.0,3438.2,3439.5,778.6,1394.8,954.3,562.6,1401.2,1779.1,3438.2,3450.4,728.2,962.0,1306.1,1871.3,1808.1,978.2,12.0,-1.0,27.0,7830.0,10531.0,-6717.0,-7149.0,28.0,94.0,-24.0,-4.0,-9.0,-1.0,11710.0,10182.0,4561.0,2616.0,50.0,52.0,4.0,1.0
2022-05-13 14:50:15.466216-07:00,2120.9,592.3,1759.8,1656.8,956.0,1387.5,1333.2,1362.1,3437.0,3435.8,2320.1,1621.8,1395.7,3433.4,1519.9,1886.0,3438.2,3439.5,781.1,1397.6,954.3,562.6,1397.6,1778.1,3438.2,3450.4,725.8,961.1,1306.1,1871.3,1794.5,977.3,-23.0,0.0,-22.0,7826.0,10562.0,-6717.0,-7107.0,133.0,4.0,54.0,-5.0,-5.0,13.0,11679.0,10208.0,4579.0,2620.0,109.0,16.0,2.0,1.0
2022-05-13 14:50:15.468155-07:00,2120.9,592.3,1733.9,1641.6,956.0,1387.5,1341.3,1363.9,3437.0,3435.8,2310.8,1622.8,1395.7,3433.4,1518.0,1892.8,3439.5,3433.4,781.1,1397.6,958.5,568.2,1397.6,1778.1,3437.0,3440.7,725.8,961.1,1327.8,1860.6,1794.5,977.3,14.0,15.0,7.0,7804.0,10600.0,-6720.0,-7073.0,79.0,143.0,-59.0,-2.0,6.0,-13.0,11647.0,10236.0,4599.0,2619.0,60.0,75.0,-9.0,1.0
2022-05-13 14:50:15.555140-07:00,2107.8,598.7,1733.9,1641.6,958.5,1377.5,1341.3,1363.9,3438.2,3444.3,2310.8,1622.8,1404.9,3439.5,1518.0,1892.8,3439.5,3433.4,786.9,1393.9,958.5,568.2,1390.3,1772.3,3437.0,3440.7,720.8,959.4,1327.8,1860.6,1785.8,972.2,-26.0,-15.0,-22.0,7811.0,10638.0,-6696.0,-7030.0,62.0,59.0,29.0,-8.0,-9.0,16.0,11622.0,10253.0,4619.0,2628.0,77.0,8.0,10.0,1.0
2022-05-13 14:50:15.643857-07:00,2107.8,598.7,1719.6,1637.9,958.5,1377.5,1343.1,1373.9,3438.2,3444.3,2294.2,1619.0,1404.9,3439.5,1513.4,1875.2,3441.9,3437.0,786.9,1393.9,960.2,566.6,1390.3,1772.3,3439.5,3443.1,720.8,959.4,1325.9,1855.7,1785.8,972.2,10.0,16.0,5.0,7795.0,10655.0,-6711.0,-7007.0,66.0,59.0,-16.0,-5.0,2.0,-17.0,11600.0,10275.0,4627.0,2622.0,54.0,41.0,2.0,1.0
2022-05-13 14:50:15.645066-07:00,2087.6,585.1,1719.6,1637.9,952.6,1383.0,1343.1,1373.9,3439.5,3440.7,2294.2,1619.0,1397.6,3441.9,1513.4,1875.2,3441.9,3437.0,777.8,1393.0,960.2,566.6,1390.3,1766.6,3439.5,3443.1,720.8,955.1,1325.9,1855.7,1788.7,980.7,-8.0,-11.0,6.0,7794.0,10688.0,-6697.0,-6972.0,79.0,79.0,15.0,-3.0,-14.0,7.0,11581.0,10289.0,4642.0,2627.0,64.0,23.0,10.0,1.0
2022-05-13 14:50:15.733397-07:00,2087.6,585.1,1718.6,1629.4,952.6,1373.9,1332.3,1355.8,3439.5,3440.7,2287.9,1613.4,1397.6,3438.2,1504.1,1870.3,3438.2,3437.0,776.9,1393.0,959.4,563.4,1390.3,1766.6,3444.3,3445.5,719.2,955.1,1324.1,1848.9,1788.7,980.7,4.0,7.0,19.0,7776.0,10735.0,-6703.0,-6913.0,203.0,143.0,-5.0,-6.0,-8.0,-6.0,11552.0,10316.0,4655.0,2627.0,123.0,56.0,9.0,1.0
2022-05-13 14:50:15.736415-07:00,2101.7,599.6,1802.3,1629.4,946.6,1373.9,1332.3,1355.8,3435.8,3435.8,2280.7,1613.4,1401.2,3438.2,1504.1,1870.3,3438.2,3437.0,776.9,1388.5,959.4,565.0,1383.9,1785.8,3444.3,3445.5,719.2,953.4,1324.1,1853.7,1799.4,981.6,56.0,18.0,34.0,7742.0,10898.0,-6628.0,-6767.0,333.0,711.0,-249.0,4.0,-24.0,12.0,11501.0,10354.0,4694.0,2634.0,178.0,133.0,-6.0,1.0
2022-05-13 14:50:15.777431-07:00,2101.7,599.6,1802.3,1634.1,946.6,1375.7,1325.0,1364.8,3435.8,3435.8,2280.7,1611.5,1401.2,3433.4,1614.3,1880.1,3439.5,3432.2,775.3,1388.5,957.7,565.0,1383.9,1785.8,3441.9,3433.4,714.2,953.4,1335.9,1853.7,1799.4,981.6,46.0,54.0,54.0,7736.0,11206.0,-6397.0,-6489.0,384.0,1139.0,-397.0,-2.0,2.0,-24.0,11418.0,10414.0,4755.0,2647.0,204.0,114.0,30.0,1.0
2022-05-13 14:50:15.824139-07:00,3030.6,598.7,1883.0,1634.1,936.4,1375.7,1325.0,1364.8,3438.2,3444.3,2426.1,1611.5,1394.8,3433.4,1614.3,1880.1,3439.5,3432.2,775.3,1395.7,957.7,565.0,1401.2,1782.9,3441.9,3433.4,714.2,973.1,1335.9,1900.7,2013.4,981.6,-36.0,-23.0,-207.0,7843.0,11573.0,-5913.0,-6166.0,13.0,1387.0,-730.0,-35.0,-32.0,45.0,11382.0,10430.0,4780.0,2690.0,-104.0,63.0,23.0,1.0
2022-05-13 14:50:15.870006-07:00,3030.6,598.7,1883.0,1634.1,936.4,1404.0,1318.7,1359.4,3438.2,3444.3,2426.1,1637.9,1394.8,3438.2,1932.1,1955.8,3445.5,3435.8,772.0,1395.7,953.4,565.0,1401.2,1782.9,3438.2,3443.1,711.0,973.1,1329.6,1900.7,2013.4,981.6,-15.0,-54.0,77.0,7916.0,11751.0,-5664.0,-5966.0,81.0,882.0,-24.0,-17.0,-18.0,-27.0,11379.0,10427.0,4795.0,2692.0,99.0,10.0,23.0,1.0
2022-05-13 14:50:15.914479-07:00,3251.7,599.6,1667.2,1573.9,931.3,1404.0,1318.7,1359.4,3435.8,3439.5,2350.4,1573.0,1392.1,3438.2,1932.1,1955.8,3445.5,3435.8,772.0,1381.2,959.4,577.0,1560.9,1780.1,3438.2,3443.1,711.0,1080.8,1331.4,1828.4,1939.0,982.5,-135.0,63.0,26.0,8060.0,11883.0,-5443.0,-5714.0,-314.0,611.0,-227.0,5.0,19.0,89.0,11370.0,10425.0,4803.0,2721.0,-148.0,159.0,-8.0,1.0
2022-05-13 14:50:15.959329-07:00,3251.7,599.6,1667.2,1573.9,923.7,1401.2,1308.8,1344.0,3435.8,3439.5,2350.4,1573.0,1401.2,3435.8,1636.9,1820.7,3440.7,3429.8,753.8,1391.2,959.4,577.0,1560.9,1780.1,3439.5,3435.8,707.7,1105.1,1331.4,1828.4,1939.0,982.5,81.0,12.0,-75.0,8089.0,11971.0,-5259.0,-5661.0,87.0,304.0,-346.0,-13.0,28.0,-85.0,11355.0,10404.0,4863.0,2757.0,49.0,104.0,-61.0,1.0
2022-05-13 14:50:16.093255-07:00,3102.0,614.1,1530.1,1533.8,923.7,1401.2,1308.8,1344.0,3440.7,3438.2,2075.5,1518.0,1401.2,3435.8,1636.9,1820.7,3440.7,3429.8,753.8,1391.2,962.0,574.6,1548.7,1764.6,3439.5,3435.8,707.7,1105.1,1316.0,1728.2,1733.9,979.9,-149.0,-108.0,-19.0,8217.0,12028.0,-4962.0,-5623.0,-639.0,472.0,-388.0,0.0,-55.0,75.0,11412.0,10329.0,4875.0,2783.0,-426.0,52.0,-21.0,1.0
2022-05-13 14:50:16.096291-07:00,3102.0,614.1,1530.1,1533.8,921.1,1388.5,1294.5,1335.9,3440.7,3438.2,2075.5,1518.0,1403.0,3439.5,1489.3,1764.6,3440.7,3438.2,758.7,1394.8,962.0,574.6,1548.7,1764.6,3440.7,3438.2,720.0,1111.2,1316.0,1728.2,1733.9,979.9,51.0,-9.0,-44.0,8278.0,12036.0,-4801.0,-5657.0,97.0,48.0,-156.0,-30.0,22.0,-90.0,11460.0,10264.0,4880.0,2817.0,8.0,6.0,-19.0,1.0
2022-05-13 14:50:16.229419-07:00,2999.7,639.2,1480.1,1514.3,921.1,1388.5,1294.5,1335.9,3444.3,3449.1,1982.6,1504.1,1403.0,3439.5,1489.3,1764.6,3440.7,3438.2,758.7,1394.8,962.0,575.4,1618.1,1757.9,3440.7,3438.2,720.0,1111.2,1322.3,1683.3,1653.9,982.5,-84.0,-45.0,-28.0,8330.0,12075.0,-4649.0,-5623.0,-356.0,324.0,-221.0,6.0,-44.0,93.0,11496.0,10229.0,4866.0,2823.0,-230.0,-1.0,0.0,1.0
2022-05-13 14:50:16.230602-07:00,2922.4,639.2,1480.1,1514.3,916.0,1380.3,1292.7,1324.1,3440.7,3449.1,1982.6,1504.1,1411.3,3438.2,1424.1,1727.2,3440.7,3439.5,757.1,1387.5,962.0,575.4,1618.1,1757.0,3433.4,3444.3,711.8,1104.3,1322.3,1683.3,1653.9,973.1,33.0,-12.0,-29.0,8324.0,12073.0,-4620.0,-5660.0,317.0,-312.0,52.0,-9.0,0.0,-38.0,11502.0,10219.0,4871.0,2826.0,176.0,-14.0,-8.0,1.0
2022-05-13 14:50:16.363906-07:00,2922.4,631.9,1452.5,1506.9,916.0,1380.3,1292.7,1320.5,3440.7,3441.9,1972.7,1488.4,1411.3,3438.2,1424.1,1720.5,3433.4,3439.5,757.1,1387.5,960.2,579.4,1609.6,1757.0,3439.5,3444.3,711.8,1104.3,1316.9,1663.4,1607.7,973.1,-41.0,4.0,22.0,8276.0,12088.0,-4655.0,-5670.0,-197.0,162.0,-102.0,4.0,-34.0,60.0,11502.0,10229.0,4858.0,2814.0,-162.0,-30.0,15.0,1.0
2022-05-13 14:50:16.366338-07:00,2877.3,631.9,1452.5,1506.9,927.1,1375.7,1284.6,1320.5,3440.7,3441.9,1972.7,1488.4,1391.2,3447.9,1393.0,1720.5,3433.4,3440.7,749.6,1395.7,960.2,579.4,1609.6,1747.3,3439.5,3441.9,699.5,1095.6,1316.9,1663.4,1607.7,981.6,0.0,-11.0,-13.0,8256.0,12102.0,-4643.0,-5680.0,337.0,-171.0,28.0,-15.0,-1.0,-16.0,11498.0,10230.0,4863.0,2813.0,190.0,23.0,-6.0,1.0
2022-05-13 14:50:16.409093-07:00,2877.3,624.6,1440.5,1490.3,927.1,1375.7,1284.6,1323.2,3440.7,3437.0,1956.8,1485.6,1391.2,3447.9,1393.0,1707.2,3435.8,3440.7,749.6,1395.7,967.9,573.8,1586.1,1747.3,3444.3,3441.9,699.5,1095.6,1336.8,1652.0,1575.8,981.6,-45.0,-40.0,5.0,8221.0,12133.0,-4647.0,-5661.0,-133.0,204.0,-69.0,-1.0,-41.0,56.0,11485.0,10244.0,4867.0,2810.0,-70.0,17.0,8.0,1.0
2022-05-13 14:50:16.411684-07:00,2843.6,624.6,1440.5,1490.3,915.2,1367.6,1285.5,1323.2,3438.2,3437.0,1956.8,1485.6,1396.7,3439.5,1376.6,1707.2,3435.8,3440.7,759.6,1389.4,967.9,573.8,1586.1,1744.5,3444.3,3445.5,698.7,1086.0,1336.8,1652.0,1575.8,978.2,26.0,-3.0,-10.0,8205.0,12149.0,-4654.0,-5644.0,220.0,-122.0,87.0,-4.0,3.0,-38.0,11464.0,10260.0,4882.0,2809.0,168.0,24.0,3.0,1.0
2022-05-13 14:50:16.499328-07:00,2843.6,623.8,1428.6,1498.6,915.2,1367.6,1285.5,1329.6,3438.2,3444.3,1938.0,1481.0,1396.7,3439.5,1376.6,1694.8,3435.8,3440.7,759.6,1389.4,959.4,578.6,1571.1,1744.5,3433.4,3445.5,698.7,1086.0,1317.8,1642.6,1557.1,978.2,-40.0,-81.0,-14.0,8157.0,12172.0,-4707.0,-5619.0,231.0,-86.0,79.0,-7.0,-52.0,24.0,11435.0,10290.0,4894.0,2801.0,65.0,20.0,4.0,1.0
2022-05-13 14:50:16.500587-07:00,2822.4,631.9,1428.6,1498.6,922.0,1383.9,1274.7,1329.6,3439.5,3440.7,1938.0,1481.0,1393.9,3449.1,1366.6,1694.8,3435.8,3441.9,758.7,1393.9,959.4,578.6,1614.3,1739.7,3433.4,3443.1,697.9,1099.0,1317.8,1642.6,1548.7,975.6,-7.0,-8.0,-23.0,8008.0,12223.0,-4857.0,-5595.0,564.0,-315.0,194.0,-9.0,2.0,-14.0,11350.0,10375.0,4927.0,2778.0,410.0,54.0,10.0,1.0
2022-05-13 14:50:16.544221-07:00,2822.4,631.9,1424.1,1489.3,922.0,1383.9,1278.3,1315.1,3439.5,3440.7,1975.6,1494.9,1393.9,3449.1,1352.1,1686.2,3431.0,3440.7,758.7,1393.9,969.6,582.6,1614.3,1739.7,3444.3,3441.9,697.9,1099.0,1316.0,1626.5,1548.7,975.6,-21.0,0.0,12.0,7827.0,12263.0,-5062.0,-5583.0,486.0,-266.0,171.0,-10.0,-13.0,12.0,11253.0,10477.0,4947.0,2750.0,290.0,1.0,42.0,1.0
2022-05-13 14:50:16.633640-07:00,2867.2,614.1,1424.1,1489.3,921.1,1412.2,1278.3,1315.1,3438.2,3439.5,1975.6,1494.9,1399.4,3433.4,1352.1,1686.2,3431.0,3440.7,758.7,1391.2,969.6,582.6,1595.5,1736.8,3444.3,3441.9,701.1,1129.6,1316.0,1626.5,1560.9,973.1,-51.0,-83.0,-72.0,7647.0,12303.0,-5252.0,-5570.0,676.0,-463.0,214.0,-5.0,-56.0,11.0,11129.0,10602.0,4981.0,2716.0,569.0,87.0,9.0,1.0
2022-05-13 14:50:16.634883-07:00,2867.2,614.1,1408.5,1481.9,921.1,1412.2,1269.4,1328.7,3438.2,3439.5,2274.5,1522.7,1399.4,3433.4,1703.3,1757.9,3433.4,3433.4,758.7,1391.2,963.7,581.8,1595.5,1736.8,3431.0,3446.7,701.1,1129.6,1316.0,1653.0,1560.9,973.1,-37.0,81.0,0.0,7250.0,12334.0,-5683.0,-5608.0,1062.0,-762.0,418.0,-16.0,54.0,-1.0,10894.0,10832.0,5054.0,2624.0,842.0,17.0,-9.0,1.0
2022-05-13 14:50:16.679263-07:00,2831.3,613.3,1408.5,1481.9,910.1,1437.8,1269.4,1328.7,3429.8,3441.9,2274.5,1522.7,1399.4,3438.2,1703.3,1757.9,3433.4,3433.4,754.6,1391.2,963.7,581.8,1573.9,1746.4,3431.0,3446.7,700.3,1100.8,1316.0,1653.0,1847.9,981.6,103.0,0.0,-66.0,6969.0,12255.0,-6093.0,-5705.0,561.0,-1122.0,498.0,8.0,5.0,-81.0,10700.0,11015.0,5120.0,2529.0,603.0,25.0,-63.0,1.0
2022-05-13 14:50:16.846919-07:00,2831.3,613.3,1399.4,1484.7,910.1,1479.2,1271.2,1317.8,3429.8,3441.9,2545.4,1604.9,1399.4,3440.7,1799.4,1891.8,3432.2,3437.0,757.9,1391.2,952.6,578.6,1573.9,1746.4,3440.7,3447.9,721.6,1100.8,1310.6,1791.6,1847.9,981.6,-34.0,14.0,109.0,6728.0,12184.0,-6448.0,-5756.0,442.0,-322.0,426.0,-17.0,-23.0,28.0,10558.0,11161.0,5145.0,2435.0,574.0,-64.0,7.0,1.0
2022-05-13 14:50:16.848862-07:00,2836.9,610.0,1611.5,1484.7,917.7,1479.2,1271.2,1317.8,3433.4,3437.0,2510.1,1604.9,1425.0,3440.7,1799.4,1891.8,3432.2,3437.0,757.9,1397.6,952.6,578.6,1554.3,1758.9,3440.7,3447.9,721.6,1065.1,1310.6,1939.0,1997.5,987.6,25.0,107.0,-38.0,6592.0,12113.0,-6772.0,-5692.0,468.0,-727.0,704.0,-1.0,47.0,38.0,10353.0,11350.0,5191.0,2338.0,665.0,1.0,-27.0,1.0
2022-05-13 14:50:16.849982-07:00,2836.9,610.0,1611.5,1536.6,917.7,1506.0,1267.6,1328.7,3433.4,3437.0,2510.1,1639.8,1425.0,3439.5,1700.5,1921.3,3444.3,3439.5,763.7,1397.6,952.6,578.6,1554.3,1758.9,3439.5,3432.2,711.8,1065.1,1317.8,1939.0,1997.5,987.6,2.0,41.0,3.0,6409.0,11983.0,-7076.0,-5803.0,180.0,-547.0,219.0,-5.0,6.0,0.0,10276.0,11415.0,5229.0,2276.0,154.0,-3.0,-84.0,1.0
2022-05-13 14:50:16.978496-07:00,2791.2,612.5,1916.4,1536.6,925.4,1506.0,1267.6,1328.7,3438.2,3438.2,2452.6,1639.8,1408.5,3439.5,1700.5,1921.3,3444.3,3439.5,763.7,1396.7,952.6,573.8,1515.3,1759.8,3439.5,3432.2,711.8,1035.7,1317.8,1926.2,1924.3,978.2,82.0,55.0,19.0,6345.0,11842.0,-7234.0,-5969.0,-191.0,-609.0,301.0,4.0,7.0,-23.0,10289.0,11409.0,5229.0,2248.0,-122.0,-122.0,8.0,1.0
2022-05-13 14:50:16.980800-07:00,2791.2,612.5,1916.4,1668.2,925.4,1522.7,1271.2,1317.8,3438.2,3438.2,2452.6,1641.6,1408.5,3443.1,1633.1,1903.6,3435.8,3429.8,767.8,1396.7,957.7,573.8,1515.3,1759.8,3446.7,3439.5,720.0,1035.7,1307.0,1926.2,1924.3,978.2,26.0,11.0,12.0,6487.0,11682.0,-7269.0,-6087.0,-639.0,9.0,174.0,22.0,-10.0,29.0,10411.0,11321.0,5164.0,2283.0,-452.0,-23.0,65.0,1.0
2022-05-13 14:50:16.994574-07:00,2343.1,617.3,1847.9,1663.4,933.9,1522.7,1271.2,1317.8,3446.7,3439.5,2426.1,1648.3,1402.1,3443.1,1633.1,1903.6,3435.8,3429.8,767.8,1402.1,959.4,571.4,1481.9,1763.7,3446.7,3439.5,720.0,1008.2,1308.8,1914.4,1871.3,985.0,-12.0,-8.0,-30.0,6711.0,11556.0,-7206.0,-6159.0,-496.0,-64.0,190.0,-12.0,-31.0,0.0,10519.0,11234.0,5114.0,2334.0,-251.0,-72.0,51.0,1.0
2022-05-13 14:50:17.039537-07:00,2343.1,617.3,1847.9,1663.4,946.6,1511.5,1372.1,1375.7,3446.7,3439.5,2426.1,1648.3,1396.7,3449.1,1588.9,1921.3,3439.5,3440.7,770.3,1400.3,959.4,571.4,1481.9,1763.7,3440.7,3449.1,719.2,987.6,1308.8,1914.4,1871.3,985.0,-3.0,16.0,-8.0,6790.0,11455.0,-7209.0,-6257.0,-305.0,-150.0,34.0,-8.0,12.0,0.0,10594.0,11175.0,5080.0,2346.0,-220.0,-48.0,-16.0,1.0
2022-05-13 14:50:17.129114-07:00,2185.0,614.1,1795.5,1662.5,946.6,1511.5,1372.1,1375.7,3443.1,3444.3,2381.8,1635.0,1396.7,3449.1,1588.9,1921.3,3439.5,3440.7,770.3,1400.3,958.5,573.0,1466.3,1767.5,3440.7,3449.1,719.2,987.6,1335.9,1882.0,1842.0,979.9,9.0,-3.0,16.0,6848.0,11377.0,-7192.0,-6353.0,-268.0,-128.0,-1.0,-2.0,-9.0,-2.0,10670.0,11114.0,5053.0,2353.0,-225.0,-64.0,-20.0,1.0
2022-05-13 14:50:17.130272-07:00,2185.0,614.1,1795.5,1662.5,960.2,1510.6,1413.1,1413.1,3443.1,3444.3,2381.8,1635.0,1396.7,3441.9,1562.7,1905.6,3440.7,3439.5,771.1,1395.7,958.5,573.0,1466.3,1767.5,3428.6,3440.7,719.2,976.5,1335.9,1882.0,1842.0,979.9,-12.0,13.0,-17.0,6923.0,11303.0,-7165.0,-6435.0,-323.0,-175.0,71.0,-8.0,4.0,19.0,10752.0,11045.0,5021.0,2373.0,-267.0,-67.0,26.0,1.0
2022-05-13 14:50:17.219675-07:00,2102.7,619.7,1783.9,1674.8,960.2,1510.6,1413.1,1413.1,3444.3,3449.1,2363.0,1634.1,1396.7,3441.9,1562.7,1905.6,3440.7,3439.5,771.1,1395.7,957.7,568.2,1447.9,1761.8,3428.6,3440.7,719.2,976.5,1344.0,1871.3,1821.6,979.0,-7.0,-14.0,28.0,6974.0,11230.0,-7158.0,-6515.0,-159.0,-22.0,2.0,-10.0,-23.0,-3.0,10825.0,10989.0,4984.0,2380.0,-143.0,-62.0,7.0,1.0
2022-05-13 14:50:17.220898-07:00,2102.7,619.7,1783.9,1674.8,965.4,1500.4,1447.0,1436.0,3444.3,3449.1,2363.0,1634.1,1405.8,3432.2,1537.6,1893.8,3439.5,3434.6,770.3,1399.4,957.7,568.2,1447.9,1761.8,3438.2,3443.1,718.4,979.9,1344.0,1871.3,1821.6,979.0,1.0,27.0,3.0,7000.0,11189.0,-7160.0,-6555.0,-138.0,-128.0,38.0,-4.0,17.0,0.0,10860.0,10963.0,4964.0,2381.0,-128.0,-56.0,4.0,1.0
2022-05-13 14:50:17.309877-07:00,2070.5,614.1,1749.3,1663.4,965.4,1500.4,1447.0,1434.1,3445.5,3439.5,2341.0,1620.9,1405.8,3432.2,1537.6,1879.1,3428.6,3434.6,770.3,1399.4,960.2,565.8,1437.8,1763.7,3441.9,3443.1,718.4,979.9,1344.0,1880.1,1807.1,979.9,-9.0,-32.0,54.0,7037.0,11175.0,-7133.0,-6569.0,-63.0,199.0,-35.0,-6.0,1.0,22.0,10895.0,10934.0,4947.0,2389.0,-48.0,27.0,15.0,1.0
2022-05-13 14:50:17.398836-07:00,2031.4,614.1,1749.3,1663.4,952.6,1500.4,1453.4,1434.1,3450.4,3439.5,2341.0,1620.9,1396.7,3437.0,1532.9,1879.1,3428.6,3444.3,778.6,1393.0,960.2,565.8,1437.8,1771.4,3441.9,3450.4,708.5,967.9,1344.0,1880.1,1807.1,975.6,-5.0,73.0,-3.0,7068.0,11169.0,-7146.0,-6532.0,-18.0,-38.0,77.0,2.0,32.0,-3.0,10889.0,10944.0,4935.0,2398.0,-21.0,-23.0,15.0,1.0
2022-05-13 14:50:17.400064-07:00,2031.4,614.9,1743.5,1661.5,952.6,1500.4,1453.4,1436.9,3450.4,3441.9,2323.3,1611.5,1396.7,3437.0,1532.9,1883.0,3434.6,3444.3,778.6,1393.0,957.7,562.6,1432.3,1771.4,3441.9,3450.4,708.5,967.9,1339.5,1863.5,1790.7,975.6,16.0,-17.0,39.0,7086.0,11188.0,-7110.0,-6519.0,14.0,193.0,-90.0,-6.0,-26.0,3.0,10892.0,10935.0,4947.0,2402.0,29.0,70.0,-38.0,1.0
2022-05-13 14:50:17.489269-07:00,2009.4,614.9,1743.5,1661.5,956.8,1481.0,1425.9,1436.9,3435.8,3441.9,2323.3,1611.5,1410.3,3445.5,1519.9,1883.0,3434.6,3432.2,769.5,1388.5,957.7,562.6,1432.3,1769.5,3441.9,3437.0,709.3,963.7,1339.5,1863.5,1790.7,978.2,-15.0,42.0,-23.0,7091.0,11209.0,-7104.0,-6485.0,1.0,8.0,7.0,0.0,8.0,-20.0,10873.0,10945.0,4963.0,2407.0,-3.0,12.0,1.0,1.0
2022-05-13 14:50:17.491350-07:00,2009.4,605.2,1725.3,1657.7,956.8,1481.0,1425.9,1430.5,3435.8,3441.9,2308.7,1608.7,1410.3,3445.5,1519.9,1869.3,3435.8,3432.2,769.5,1388.5,958.5,565.8,1425.0,1769.5,3444.3,3437.0,709.3,963.7,1337.7,1857.6,1784.9,978.2,-3.0,-25.0,12.0,7096.0,11234.0,-7072.0,-6469.0,55.0,128.0,-58.0,-7.0,-17.0,3.0,10866.0,10942.0,4982.0,2412.0,56.0,55.0,-17.0,1.0
2022-05-13 14:50:17.579476-07:00,2003.5,600.4,1725.3,1657.7,947.5,1494.0,1417.6,1430.5,3440.7,3449.1,2308.7,1608.7,1423.1,3441.9,1517.1,1869.3,3435.8,3438.2,777.8,1404.9,958.5,565.8,1419.5,1769.5,3444.3,3439.5,708.5,946.6,1337.7,1857.6,1782.0,982.5,4.0,20.0,-13.0,7098.0,11243.0,-7068.0,-6457.0,-30.0,-9.0,-3.0,8.0,-5.0,-34.0,10859.0,10943.0,4991.0,2416.0,-39.0,-4.0,4.0,1.0
2022-05-13 14:50:17.580692-07:00,2003.5,600.4,1712.9,1644.5,947.5,1494.0,1413.1,1417.6,3440.7,3449.1,2300.4,1606.8,1423.1,3441.9,1499.5,1863.5,3432.2,3437.0,777.8,1404.9,957.7,565.0,1419.5,1769.5,3449.1,3449.1,708.5,946.6,1326.8,1860.6,1782.0,982.5,16.0,38.0,9.0,7140.0,11251.0,-7001.0,-6469.0,-237.0,158.0,-137.0,1.0,3.0,-3.0,10873.0,10921.0,5001.0,2437.0,-106.0,67.0,7.0,1.0
2022-05-13 14:50:17.624603-07:00,2006.4,606.0,1712.9,1644.5,946.6,1500.4,1413.1,1417.6,3443.1,3441.9,2300.4,1606.8,1419.5,3443.1,1499.5,1863.5,3432.2,3437.0,786.9,1401.2,957.7,565.0,1414.9,1757.9,3449.1,3449.1,708.5,956.8,1326.8,1860.6,1786.8,984.2,38.0,30.0,31.0,7147.0,11314.0,-6879.0,-6482.0,55.0,272.0,-369.0,-17.0,23.0,-26.0,10876.0,10898.0,5040.0,2447.0,53.0,86.0,-102.0,1.0
2022-05-13 14:50:17.714683-07:00,2006.4,606.0,1704.3,1636.9,946.6,1500.4,1397.6,1414.0,3443.1,3441.9,2299.3,1604.0,1419.5,3443.1,1588.9,1892.8,3431.0,3431.0,786.9,1401.2,956.0,565.0,1414.9,1757.9,3440.7,3438.2,708.5,956.8,1355.8,1857.6,1786.8,984.2,97.0,105.0,11.0,7187.0,11512.0,-6636.0,-6342.0,-110.0,986.0,-448.0,-12.0,40.0,73.0,10871.0,10878.0,5085.0,2463.0,-18.0,113.0,-37.0,1.0
2022-05-13 14:50:17.716747-07:00,2675.5,611.7,1704.3,1636.9,952.6,1509.7,1397.6,1414.0,3432.2,3435.8,2299.3,1604.0,1404.9,3443.1,1588.9,1892.8,3431.0,3431.0,780.3,1397.6,956.0,565.0,1519.0,1759.8,3440.7,3438.2,717.5,980.7,1355.8,1857.6,1969.7,991.9,65.0,57.0,-9.0,7169.0,11738.0,-6362.0,-6227.0,217.0,636.0,-603.0,-13.0,16.0,-82.0,10929.0,10808.0,5099.0,2487.0,-305.0,-11.0,-44.0,1.0
2022-05-13 14:50:17.804867-07:00,2675.5,611.7,1710.0,1636.9,952.6,1573.9,1386.6,1404.0,3432.2,3435.8,2513.3,1621.8,1404.9,3446.7,1901.6,1927.2,3429.8,3435.8,766.2,1397.6,956.0,566.6,1519.0,1759.8,3440.7,3435.8,714.2,980.7,1339.5,1907.5,1969.7,991.9,-227.0,-169.0,-215.0,7168.0,11974.0,-6050.0,-6089.0,62.0,250.0,-261.0,-32.0,-78.0,79.0,11064.0,10679.0,5065.0,2516.0,-349.0,-114.0,-50.0,1.0
2022-05-13 14:50:17.806874-07:00,3318.2,616.5,1832.3,1636.9,950.9,1573.9,1386.6,1404.0,3444.3,3438.2,2246.6,1621.8,1413.1,3446.7,1901.6,1927.2,3429.8,3435.8,766.2,1395.7,956.0,572.2,1622.8,1740.6,3440.7,3435.8,714.2,1130.5,1339.5,1852.8,1976.6,979.9,-2.0,162.0,170.0,7009.0,12042.0,-6106.0,-6085.0,353.0,2.0,-235.0,17.0,58.0,2.0,11072.0,10677.0,5060.0,2499.0,24.0,69.0,-11.0,1.0
2022-05-13 14:50:17.895169-07:00,3318.2,616.5,1832.3,1672.9,950.9,1549.7,1344.0,1381.2,3444.3,3438.2,2246.6,1545.0,1413.1,3440.7,1724.4,1844.0,3434.6,3435.8,757.9,1395.7,962.0,572.2,1622.8,1740.6,3446.7,3443.1,721.6,1130.5,1335.9,1852.8,1976.6,979.9,-45.0,-82.0,-37.0,7038.0,12130.0,-5846.0,-6133.0,-528.0,360.0,-587.0,-5.0,-54.0,78.0,11163.0,10572.0,5065.0,2530.0,-468.0,-12.0,-55.0,1.0
2022-05-13 14:50:17.939324-07:00,3139.2,610.8,1900.7,1672.9,945.8,1549.7,1344.0,1381.2,3444.3,3437.0,2070.5,1545.0,1414.9,3440.7,1724.4,1844.0,3434.6,3435.8,757.9,1389.4,962.0,581.0,1573.9,1739.7,3446.7,3443.1,721.6,1144.5,1335.9,1738.7,1777.2,977.3,6.0,-4.0,72.0,7017.0,12171.0,-5744.0,-6170.0,183.0,70.0,-164.0,0.0,3.0,-32.0,11208.0,10520.0,5069.0,2543.0,4.0,9.0,-20.0,1.0
2022-05-13 14:50:18.029716-07:00,3139.2,610.8,1900.7,1630.3,945.8,1573.0,1333.2,1363.9,3444.3,3437.0,2070.5,1510.6,1414.9,3443.1,1543.1,1765.6,3439.5,3439.5,763.7,1389.4,956.0,581.0,1573.9,1739.7,3433.4,3441.9,729.9,1144.5,1328.7,1738.7,1777.2,977.3,32.0,45.0,24.0,7050.0,12252.0,-5541.0,-6157.0,-348.0,469.0,-475.0,-2.0,2.0,53.0,11210.0,10511.0,5079.0,2551.0,-124.0,35.0,-14.0,1.0
2022-05-13 14:50:18.031262-07:00,3074.3,614.1,1825.5,1630.3,931.3,1573.0,1333.2,1363.9,3449.1,3439.5,1994.5,1510.6,1410.3,3443.1,1543.1,1765.6,3439.5,3439.5,763.7,1390.3,956.0,584.3,1560.9,1733.0,3433.4,3441.9,729.9,1152.4,1328.7,1684.3,1647.3,982.5,59.0,11.0,19.0,7045.0,12316.0,-5428.0,-6137.0,153.0,285.0,-247.0,-5.0,8.0,-33.0,11184.0,10521.0,5109.0,2559.0,198.0,84.0,-9.0,1.0
2022-05-13 14:50:18.074286-07:00,3074.3,614.1,1825.5,1597.4,939.8,1663.4,1325.9,1354.0,3449.1,3439.5,1994.5,1494.0,1413.1,3435.8,1424.1,1724.4,3439.5,3433.4,758.7,1401.2,962.0,584.3,1560.9,1733.0,3445.5,3443.1,732.3,1181.5,1328.7,1684.3,1647.3,982.5,-37.0,-3.0,20.0,7016.0,12435.0,-5282.0,-6057.0,75.0,332.0,-277.0,-2.0,1.0,24.0,11126.0,10567.0,5144.0,2554.0,141.0,66.0,-17.0,1.0
2022-05-13 14:50:18.164847-07:00,3024.8,628.6,1739.7,1590.8,939.8,1663.4,1325.9,1354.0,3437.0,3444.3,1963.7,1490.3,1413.1,3435.8,1424.1,1724.4,3439.5,3433.4,758.7,1401.2,966.2,590.7,1629.4,1729.1,3445.5,3443.1,732.3,1181.5,1316.0,1647.3,1595.5,981.6,-8.0,-114.0,-6.0,6996.0,12520.0,-5172.0,-6001.0,255.0,182.0,-43.0,-16.0,-46.0,-32.0,11094.0,10584.0,5172.0,2565.0,100.0,71.0,22.0,1.0
