Time,P0,P1,P2,P3,P4,P5,P6,P7,P8,P9,P10,P11,P12,P13,P14,P15,P16,P17,P18,P19,P20,P21,P22,P23,P24,P25,P26,P27,P28,P29,P30,P31,ECG,AX0,AY0,AZ0,QW0,QX0,QY0,QZ0,GX0,GY0,GZ0,AX1,AY1,AZ1,QW1,QX1,QY1,QZ1,GX1,GY1,GZ1
2022-05-23 15:03:22.447115-07:00,1302.5,823.5,1155.9,1027.1,937.3,878.9,1691.0,1282.8,3468.6,3468.6,1190.3,898.3,1619.9,3473.4,1308.8,1215.1,3469.8,3469.8,1708.1,2337.9,2907.7,3490.5,1639.8,3486.8,3471.0,3469.8,639.2,848.6,1720.5,1009.0,963.7,854.5,-5.0,-3.0,-3.0,4788.0,-6771.0,11425.0,-8314.0,9.0,40.0,-57.0,3.0,-4.0,7.0,4897.0,-8494.0,-11206.0,6837.0,-22.0,14.0,-12.0,1.0
2022-05-23 15:03:22.507287-07:00,1302.5,823.5,1155.9,1027.1,933.0,885.6,1693.8,1288.2,3468.6,3468.6,1190.3,898.3,1604.0,3462.5,1309.7,1222.2,3468.6,3478.3,1702.4,2345.2,2907.7,3490.5,1639.8,3486.8,3464.9,3467.4,635.9,847.0,1720.5,1009.0,963.7,854.5,-4.0,-12.0,-8.0,4766.0,-6776.0,11422.0,-8327.0,8.0,43.0,-36.0,0.0,-5.0,4.0,4894.0,-8498.0,-11209.0,6828.0,-20.0,5.0,-4.0,1.0
2022-05-23 15:03:22.567802-07:00,1309.7,822.7,1148.9,1022.8,933.0,885.6,1693.8,1288.2,3467.4,3468.6,1187.6,902.5,1604.0,3462.5,1309.7,1222.2,3468.6,3478.3,1702.4,2345.2,2898.7,3484.4,1640.7,3486.8,3464.9,3467.4,635.9,847.0,1714.8,1004.8,952.6,862.9,4.0,9.0,-11.0,4762.0,-6770.0,11411.0,-8349.0,53.0,21.0,-21.0,2.0,5.0,0.0,4900.0,-8495.0,-11204.0,6836.0,39.0,-4.0,-6.0,1.0
2022-05-23 15:03:22.600476-07:00,1309.7,822.7,1148.9,1022.8,928.8,871.3,1691.0,1292.7,3467.4,3468.6,1187.6,902.5,1615.2,3461.3,1306.1,1215.1,3474.6,3477.1,1690.0,2336.8,2898.7,3484.4,1640.7,3486.8,3469.8,3475.9,633.5,843.6,1714.8,1004.8,952.6,862.9,3.0,-11.0,7.0,4752.0,-6770.0,11409.0,-8357.0,-3.0,35.0,-9.0,2.0,-5.0,6.0,4901.0,-8490.0,-11206.0,6839.0,3.0,-18.0,-11.0,1.0
2022-05-23 15:03:22.687095-07:00,1308.8,824.4,1137.5,1028.0,928.8,871.3,1691.0,1292.7,3468.6,3462.5,1192.9,905.9,1615.2,3461.3,1306.1,1215.1,3474.6,3477.1,1690.0,2336.8,2906.6,3486.8,1640.7,3488.0,3469.8,3475.9,633.5,843.6,1714.8,1024.5,967.9,865.4,-7.0,15.0,-8.0,4744.0,-6752.0,11406.0,-8381.0,53.0,44.0,4.0,0.0,2.0,10.0,4906.0,-8482.0,-11200.0,6854.0,53.0,-11.0,3.0,1.0
2022-05-23 15:03:22.717231-07:00,1308.8,824.4,1137.5,1028.0,937.3,869.6,1695.7,1284.6,3468.6,3462.5,1192.9,905.9,1608.7,3468.6,1302.5,1224.8,3464.9,3475.9,1703.3,2341.0,2906.6,3486.8,1640.7,3488.0,3464.9,3474.6,635.1,847.8,1714.8,1024.5,967.9,865.4,0.0,3.0,0.0,4728.0,-6757.0,11413.0,-8376.0,-57.0,12.0,-34.0,1.0,-1.0,6.0,4901.0,-8485.0,-11204.0,6847.0,-55.0,9.0,-3.0,1.0
2022-05-23 15:03:22.747277-07:00,1310.6,826.9,1140.1,1028.8,937.3,869.6,1695.7,1282.8,3466.1,3475.9,1187.6,897.4,1608.7,3468.6,1302.5,1219.5,3473.4,3475.9,1703.3,2341.0,2896.4,3496.6,1638.8,3483.2,3467.4,3474.6,635.1,847.8,1710.0,1001.3,967.1,862.9,0.0,-4.0,-4.0,4711.0,-6764.0,11412.0,-8383.0,15.0,32.0,-34.0,1.0,-5.0,4.0,4899.0,-8490.0,-11207.0,6838.0,-6.0,11.0,-4.0,1.0
2022-05-23 15:03:22.837799-07:00,1308.8,826.9,1140.1,1028.8,940.7,875.5,1691.9,1282.8,3463.7,3475.9,1187.6,897.4,1617.1,3466.1,1308.8,1219.5,3473.4,3461.3,1707.2,2334.7,2896.4,3496.6,1638.8,3481.9,3467.4,3475.9,634.3,852.0,1710.0,1001.3,967.1,860.4,-8.0,0.0,-11.0,4700.0,-6760.0,11410.0,-8394.0,-4.0,20.0,-1.0,-1.0,-1.0,8.0,4898.0,-8490.0,-11208.0,6837.0,-13.0,-6.0,6.0,1.0
2022-05-23 15:03:22.867196-07:00,1308.8,824.4,1144.5,1023.7,940.7,875.5,1691.9,1282.8,3463.7,3469.8,1192.0,898.3,1617.1,3466.1,1308.8,1216.8,3478.3,3461.3,1707.2,2334.7,2881.8,3492.9,1638.8,3481.9,3462.5,3475.9,634.3,852.0,1711.9,1008.2,965.4,860.4,5.0,9.0,0.0,4699.0,-6758.0,11418.0,-8385.0,7.0,1.0,15.0,0.0,-1.0,2.0,4897.0,-8491.0,-11209.0,6835.0,16.0,3.0,2.0,1.0
2022-05-23 15:03:22.957198-07:00,1309.7,824.4,1144.5,1023.7,937.3,871.3,1693.8,1282.8,3468.6,3469.8,1192.0,898.3,1611.5,3467.4,1307.0,1216.8,3478.3,3475.9,1708.1,2330.6,2881.8,3492.9,1638.8,3489.2,3462.5,3480.7,637.6,836.1,1711.9,1008.2,965.4,860.4,-8.0,14.0,-11.0,4696.0,-6764.0,11413.0,-8389.0,-17.0,-18.0,-52.0,4.0,4.0,11.0,4898.0,-8490.0,-11210.0,6833.0,-35.0,6.0,-16.0,1.0
2022-05-23 15:03:22.987811-07:00,1309.7,826.9,1159.4,1021.1,937.3,871.3,1693.8,1278.3,3468.6,3467.4,1187.6,902.5,1611.5,3467.4,1307.0,1220.4,3478.3,3475.9,1708.1,2330.6,2891.9,3492.9,1643.5,3489.2,3478.3,3480.7,637.6,836.1,1730.1,1003.9,959.4,860.4,3.0,-17.0,-4.0,4689.0,-6795.0,11403.0,-8381.0,-19.0,-23.0,-48.0,1.0,-4.0,2.0,4892.0,-8488.0,-11221.0,6823.0,-23.0,-21.0,-17.0,1.0
2022-05-23 15:03:23.017215-07:00,1310.6,826.9,1159.4,1021.1,933.0,871.3,1680.5,1278.3,3468.6,3462.5,1187.6,902.5,1623.7,3474.6,1299.0,1220.4,3478.3,3475.9,1709.1,2332.6,2891.9,3492.9,1633.1,3488.0,3478.3,3481.9,635.9,828.5,1730.1,1003.9,952.6,864.6,-3.0,-1.0,0.0,4699.0,-6798.0,11397.0,-8382.0,24.0,-31.0,30.0,3.0,-6.0,8.0,4891.0,-8481.0,-11221.0,6832.0,32.0,-16.0,8.0,1.0
2022-05-23 15:03:23.077118-07:00,1310.6,826.9,1148.9,1028.8,933.0,871.3,1671.9,1290.9,3468.6,3462.5,1190.3,904.2,1623.7,3474.6,1303.4,1218.6,3471.0,3469.8,1709.1,2332.6,2902.0,3494.1,1633.1,3488.0,3473.4,3480.7,635.9,828.5,1711.9,999.6,952.6,864.6,5.0,18.0,3.0,4708.0,-6797.0,11396.0,-8379.0,-15.0,-8.0,-15.0,6.0,2.0,6.0,4892.0,-8479.0,-11220.0,6836.0,-20.0,3.0,-8.0,1.0
2022-05-23 15:03:23.137205-07:00,1296.3,824.4,1148.9,1028.8,925.4,882.3,1671.9,1290.9,3457.6,3471.0,1190.3,904.2,1617.1,3474.6,1303.4,1218.6,3471.0,3469.8,1711.0,2340.0,2902.0,3494.1,1631.3,3488.0,3473.4,3480.7,631.1,841.1,1711.9,999.6,967.1,856.2,-11.0,-16.0,-2.0,4695.0,-6802.0,11392.0,-8387.0,10.0,31.0,-29.0,0.0,-10.0,11.0,4890.0,-8479.0,-11223.0,6831.0,-5.0,2.0,-3.0,1.0
2022-05-23 15:03:23.196946-07:00,1296.3,824.4,1136.6,1021.1,925.4,882.3,1668.2,1284.6,3457.6,3471.0,1191.2,899.1,1617.1,3474.6,1318.7,1216.8,3474.6,3467.4,1711.0,2340.0,2891.9,3495.3,1631.3,3488.0,3474.6,3480.7,631.1,841.1,1714.8,1002.2,967.1,856.2,-4.0,-10.0,-7.0,4692.0,-6793.0,11390.0,-8399.0,28.0,26.0,22.0,-3.0,-4.0,5.0,4892.0,-8480.0,-11218.0,6837.0,25.0,-5.0,22.0,1.0
2022-05-23 15:03:23.198884-07:00,1307.9,829.4,1136.6,1021.1,933.0,867.1,1668.2,1284.6,3460.1,3474.6,1191.2,899.1,1619.9,3467.4,1318.7,1216.8,3474.6,3467.4,1702.4,2328.5,2891.9,3495.3,1635.0,3485.6,3474.6,3480.7,632.7,845.3,1714.8,1002.2,962.0,873.8,4.0,15.0,-11.0,4700.0,-6768.0,11395.0,-8408.0,16.0,9.0,51.0,10.0,0.0,4.0,4893.0,-8484.0,-11208.0,6848.0,9.0,0.0,23.0,1.0
2022-05-23 15:03:23.257189-07:00,1307.9,829.4,1132.2,1028.8,933.0,878.0,1674.8,1269.4,3460.1,3474.6,1187.6,897.4,1619.9,3466.1,1307.9,1216.0,3467.4,3467.4,1700.5,2328.5,2898.7,3491.7,1635.0,3485.6,3462.5,3474.6,638.4,845.3,1713.8,1006.5,962.0,873.8,10.0,-1.0,8.0,4706.0,-6769.0,11400.0,-8397.0,-13.0,-26.0,-9.0,10.0,-1.0,3.0,4889.0,-8489.0,-11206.0,6848.0,1.0,-1.0,6.0,1.0
2022-05-23 15:03:23.317510-07:00,1309.7,822.7,1139.2,1028.8,933.0,878.0,1674.8,1269.4,3473.4,3466.1,1189.4,897.4,1614.3,3466.1,1307.9,1216.0,3467.4,3467.4,1700.5,2334.7,2898.7,3491.7,1627.5,3497.8,3462.5,3474.6,638.4,840.3,1713.8,1000.5,956.8,867.1,-5.0,-2.0,-4.0,4706.0,-6771.0,11396.0,-8401.0,9.0,10.0,-7.0,0.0,-7.0,13.0,4890.0,-8489.0,-11205.0,6848.0,-8.0,10.0,9.0,1.0
2022-05-23 15:03:23.347731-07:00,1309.7,822.7,1139.2,1019.4,933.0,869.6,1687.2,1273.9,3473.4,3466.1,1189.4,905.9,1614.3,3473.4,1301.6,1216.8,3471.0,3464.9,1707.2,2334.7,2897.5,3491.7,1627.5,3497.8,3478.3,3475.9,640.0,840.3,1713.8,1000.5,956.8,867.1,-5.0,-6.0,0.0,4704.0,-6770.0,11399.0,-8399.0,-3.0,18.0,15.0,-2.0,-6.0,7.0,4886.0,-8494.0,-11204.0,6847.0,15.0,4.0,23.0,1.0
2022-05-23 15:03:23.437116-07:00,1326.8,822.7,1145.4,1019.4,934.7,869.6,1687.2,1273.9,3472.2,3464.9,1186.7,905.9,1611.5,3473.4,1301.6,1216.8,3471.0,3464.9,1707.2,2342.0,2897.5,3485.6,1629.4,3486.8,3478.3,3475.9,640.0,838.6,1713.8,1004.8,954.3,855.3,3.0,19.0,-10.0,4706.0,-6756.0,11403.0,-8404.0,6.0,7.0,10.0,0.0,1.0,2.0,4886.0,-8503.0,-11197.0,6847.0,-16.0,20.0,14.0,1.0
2022-05-23 15:03:23.467093-07:00,1326.8,822.7,1145.4,1021.1,934.7,878.9,1679.5,1278.3,3472.2,3464.9,1186.7,900.0,1611.5,3462.5,1300.7,1215.1,3475.9,3469.8,1701.4,2342.0,2889.6,3485.6,1629.4,3486.8,3475.9,3474.6,640.8,838.6,1711.0,1004.8,954.3,855.3,-4.0,-3.0,-8.0,4695.0,-6759.0,11405.0,-8405.0,-9.0,21.0,-22.0,0.0,-5.0,7.0,4884.0,-8507.0,-11200.0,6840.0,-1.0,12.0,-4.0,1.0
2022-05-23 15:03:23.497413-07:00,1309.7,838.6,1135.7,1021.1,927.1,878.9,1679.5,1278.3,3466.1,3463.7,1187.6,900.0,1611.5,3462.5,1300.7,1215.1,3475.9,3469.8,1701.4,2333.7,2889.6,3491.7,1627.5,3484.4,3475.9,3474.6,640.8,840.3,1711.0,1007.3,950.0,864.6,-4.0,11.0,-5.0,4696.0,-6759.0,11397.0,-8414.0,36.0,-3.0,-17.0,-3.0,0.0,7.0,4888.0,-8504.0,-11197.0,6844.0,12.0,3.0,-14.0,1.0
2022-05-23 15:03:23.557724-07:00,1309.7,838.6,1135.7,1025.4,925.4,865.4,1688.1,1281.0,3466.1,3463.7,1187.6,900.8,1608.7,3468.6,1303.4,1217.7,3473.4,3466.1,1700.5,2338.9,2887.4,3491.7,1627.5,3484.4,3468.6,3478.3,630.3,841.9,1711.0,1007.3,950.0,864.6,-9.0,-4.0,-10.0,4691.0,-6769.0,11388.0,-8422.0,3.0,-15.0,-45.0,-4.0,-8.0,8.0,4889.0,-8501.0,-11201.0,6840.0,-7.0,-11.0,-8.0,1.0
2022-05-23 15:03:23.617174-07:00,1307.9,817.7,1134.9,1025.4,925.4,865.4,1688.1,1281.0,3462.5,3466.1,1189.4,902.5,1608.7,3468.6,1303.4,1217.7,3473.4,3466.1,1700.5,2338.9,2891.9,3481.9,1628.4,3483.2,3468.6,3478.3,630.3,841.9,1711.9,994.5,956.0,864.6,0.0,1.0,-8.0,4699.0,-6779.0,11373.0,-8430.0,43.0,-29.0,-11.0,3.0,0.0,3.0,4889.0,-8497.0,-11200.0,6848.0,23.0,-18.0,-10.0,1.0
2022-05-23 15:03:23.677647-07:00,1307.9,817.7,1134.9,1025.4,927.1,874.7,1714.8,1277.4,3462.5,3466.1,1189.4,902.5,1616.2,3467.4,1302.5,1224.8,3478.3,3475.9,1699.5,2342.0,2891.9,3481.9,1628.4,3483.2,3477.1,3472.2,628.6,834.4,1711.9,994.5,956.0,864.6,4.0,0.0,5.0,4708.0,-6783.0,11366.0,-8430.0,3.0,-22.0,-2.0,11.0,-5.0,9.0,4888.0,-8488.0,-11203.0,6855.0,24.0,-11.0,-12.0,1.0
2022-05-23 15:03:23.707205-07:00,1307.0,821.0,1135.7,1021.9,927.1,874.7,1714.8,1277.4,3467.4,3475.9,1183.2,900.0,1616.2,3467.4,1302.5,1224.8,3478.3,3475.9,1699.5,2342.0,2886.3,3485.6,1629.4,3488.0,3477.1,3472.2,628.6,834.4,1714.8,1007.3,963.7,866.3,6.0,3.0,3.0,4719.0,-6787.0,11357.0,-8434.0,25.0,-21.0,-16.0,13.0,-3.0,10.0,4893.0,-8481.0,-11203.0,6861.0,4.0,-5.0,-11.0,1.0
2022-05-23 15:03:23.767163-07:00,1307.0,821.0,1135.7,1021.9,927.1,880.6,1691.0,1273.0,3467.4,3475.9,1183.2,900.0,1612.4,3462.5,1305.2,1218.6,3467.4,3474.6,1676.7,2331.6,2886.3,3485.6,1629.4,3488.0,3469.8,3473.4,644.0,841.1,1714.8,1007.3,963.7,866.3,-8.0,-2.0,2.0,4718.0,-6794.0,11349.0,-8440.0,18.0,4.0,-24.0,0.0,-7.0,15.0,4894.0,-8479.0,-11204.0,6860.0,-5.0,1.0,1.0,1.0
2022-05-23 15:03:23.797880-07:00,1315.1,826.0,1136.6,1022.8,927.1,880.6,1691.0,1273.0,3468.6,3466.1,1177.9,905.9,1612.4,3462.5,1305.2,1222.2,3467.4,3474.6,1676.7,2331.6,2867.2,3490.5,1627.5,3490.5,3471.0,3473.4,644.0,841.1,1713.8,997.0,956.0,858.7,-6.0,-1.0,-10.0,4715.0,-6798.0,11343.0,-8445.0,-2.0,5.0,-16.0,-3.0,-4.0,3.0,4893.0,-8480.0,-11205.0,6858.0,-6.0,11.0,10.0,1.0
2022-05-23 15:03:23.857336-07:00,1314.2,826.0,1136.6,1022.8,932.2,866.3,1691.9,1273.0,3475.9,3466.1,1177.9,905.9,1612.4,3474.6,1307.0,1222.2,3467.4,3481.9,1694.8,2309.7,2867.2,3490.5,1627.5,3505.1,3471.0,3481.9,628.6,838.6,1713.8,997.0,956.0,870.5,-1.0,1.0,-6.0,4710.0,-6797.0,11343.0,-8449.0,11.0,20.0,-11.0,3.0,-3.0,11.0,4892.0,-8484.0,-11202.0,6858.0,5.0,2.0,13.0,1.0
2022-05-23 15:03:23.887166-07:00,1314.2,826.9,1143.6,1015.9,932.2,866.3,1691.9,1274.7,3475.9,3468.6,1181.5,893.2,1612.4,3474.6,1307.0,1225.7,3463.7,3481.9,1694.8,2309.7,2884.0,3507.5,1629.4,3505.1,3472.2,3481.9,628.6,838.6,1706.2,1001.3,960.2,870.5,-1.0,5.0,-3.0,4709.0,-6794.0,11343.0,-8452.0,13.0,2.0,18.0,8.0,-3.0,8.0,4891.0,-8487.0,-11199.0,6862.0,20.0,-4.0,9.0,1.0
2022-05-23 15:03:23.947287-07:00,1306.1,826.9,1143.6,1015.9,924.5,866.3,1675.7,1274.7,3468.6,3468.6,1181.5,893.2,1606.8,3472.2,1304.3,1225.7,3463.7,3467.4,1701.4,2328.5,2884.0,3507.5,1629.4,3497.8,3472.2,3471.0,635.1,842.8,1706.2,1001.3,960.2,869.6,0.0,6.0,2.0,4715.0,-6790.0,11343.0,-8453.0,1.0,-5.0,-7.0,2.0,-2.0,8.0,4894.0,-8485.0,-11197.0,6865.0,-13.0,-6.0,0.0,1.0
2022-05-23 15:03:24.007277-07:00,1306.1,816.9,1132.2,1030.6,924.5,866.3,1675.7,1277.4,3468.6,3466.1,1185.9,899.1,1606.8,3472.2,1304.3,1220.4,3466.1,3467.4,1701.4,2328.5,2880.6,3488.0,1624.7,3497.8,3480.7,3471.0,635.1,842.8,1718.6,1002.2,962.0,869.6,-3.0,1.0,-4.0,4712.0,-6794.0,11340.0,-8454.0,9.0,-6.0,-11.0,-1.0,-6.0,10.0,4892.0,-8486.0,-11198.0,6863.0,-3.0,-3.0,4.0,1.0
2022-05-23 15:03:24.067070-07:00,1299.0,816.9,1132.2,1030.6,936.4,872.1,1680.5,1277.4,3463.7,3466.1,1185.9,899.1,1609.6,3468.6,1303.4,1220.4,3466.1,3472.2,1694.8,2333.7,2880.6,3488.0,1624.7,3481.9,3480.7,3472.2,639.2,835.2,1718.6,1002.2,962.0,867.9,-5.0,4.0,-10.0,4711.0,-6797.0,11339.0,-8454.0,8.0,-14.0,-17.0,0.0,-2.0,10.0,4891.0,-8487.0,-11199.0,6861.0,-7.0,0.0,5.0,1.0
2022-05-23 15:03:24.097697-07:00,1299.0,819.4,1130.5,1019.4,936.4,872.1,1675.7,1276.5,3463.7,3473.4,1181.5,901.7,1609.6,3468.6,1299.8,1211.5,3472.2,3469.8,1694.8,2333.7,2878.4,3497.8,1625.6,3481.9,3472.2,3475.9,639.2,835.2,1708.1,1003.0,952.6,867.9,1.0,12.0,-13.0,4715.0,-6815.0,11320.0,-8462.0,29.0,-55.0,-71.0,0.0,0.0,2.0,4890.0,-8487.0,-11199.0,6861.0,-11.0,-7.0,-6.0,1.0
2022-05-23 15:03:24.157781-07:00,1315.1,819.4,1130.5,1019.4,925.4,870.5,1675.7,1276.5,3468.6,3468.6,1181.5,901.7,1611.5,3462.5,1299.8,1211.5,3472.2,3469.8,1709.1,2334.7,2878.4,3497.8,1619.0,3484.4,3472.2,3475.9,640.0,842.8,1708.1,1003.0,953.4,867.9,-5.0,-17.0,-1.0,4717.0,-6846.0,11295.0,-8471.0,38.0,-26.0,-60.0,1.0,-9.0,9.0,4888.0,-8478.0,-11205.0,6863.0,24.0,-23.0,-23.0,1.0
2022-05-23 15:03:24.187489-07:00,1315.1,819.4,1138.4,1021.1,925.4,870.5,1679.5,1270.3,3468.6,3468.6,1182.3,900.0,1611.5,3462.5,1300.7,1221.3,3479.5,3467.4,1709.1,2334.7,2881.8,3494.1,1619.0,3484.4,3471.0,3475.9,640.0,842.8,1710.0,999.6,953.4,867.9,-2.0,-2.0,5.0,4731.0,-6846.0,11276.0,-8487.0,55.0,-15.0,11.0,5.0,-4.0,14.0,4895.0,-8466.0,-11201.0,6881.0,50.0,-15.0,-1.0,1.0
2022-05-23 15:03:24.247281-07:00,1303.4,827.7,1138.4,1021.1,928.8,872.1,1679.5,1270.3,3467.4,3467.4,1182.3,900.0,1611.5,3464.9,1300.7,1221.3,3479.5,3467.4,1700.5,2335.8,2881.8,3494.1,1622.8,3483.2,3471.0,3475.9,634.3,839.4,1710.0,999.6,961.1,862.1,2.0,5.0,3.0,4740.0,-6839.0,11273.0,-8493.0,0.0,0.0,10.0,5.0,-1.0,14.0,4898.0,-8462.0,-11197.0,6889.0,3.0,4.0,8.0,1.0
2022-05-23 15:03:24.307753-07:00,1303.4,827.7,1136.6,1022.8,928.8,872.1,1664.4,1268.5,3467.4,3467.4,1182.3,904.2,1611.5,3464.9,1297.2,1223.9,3467.4,3473.4,1700.5,2335.8,2881.8,3491.7,1622.8,3483.2,3472.2,3474.6,634.3,839.4,1709.1,1006.5,961.1,862.1,-3.0,-5.0,-2.0,4736.0,-6834.0,11274.0,-8497.0,13.0,28.0,-1.0,3.0,-7.0,12.0,4897.0,-8463.0,-11196.0,6890.0,-3.0,5.0,14.0,1.0
2022-05-23 15:03:24.337297-07:00,1295.4,817.7,1140.1,1022.8,933.0,869.6,1664.4,1268.5,3457.6,3473.4,1186.7,904.2,1609.6,3472.2,1297.2,1223.9,3467.4,3473.4,1694.8,2323.3,2881.8,3492.9,1623.7,3492.9,3472.2,3474.6,635.9,840.3,1709.1,1001.3,956.0,856.2,0.0,10.0,-11.0,4735.0,-6830.0,11274.0,-8501.0,6.0,1.0,7.0,-1.0,2.0,6.0,4895.0,-8467.0,-11194.0,6891.0,0.0,3.0,7.0,1.0
2022-05-23 15:03:24.427037-07:00,1295.4,817.7,1140.1,1025.4,933.0,869.6,1682.4,1256.9,3457.6,3473.4,1186.7,901.7,1609.6,3468.6,1302.5,1223.0,3478.3,3473.4,1702.4,2323.3,2893.0,3492.9,1623.7,3492.9,3471.0,3478.3,627.0,840.3,1710.0,1001.3,956.0,856.2,3.0,4.0,-9.0,4735.0,-6836.0,11270.0,-8502.0,8.0,-19.0,-29.0,-3.0,0.0,4.0,4895.0,-8467.0,-11194.0,6891.0,-8.0,-3.0,-7.0,1.0
2022-05-23 15:03:24.457193-07:00,1303.4,833.6,1141.9,1025.4,927.9,869.6,1682.4,1256.9,3462.5,3466.1,1180.6,901.7,1613.4,3468.6,1302.5,1223.0,3478.3,3473.4,1702.4,2333.7,2893.0,3484.4,1615.2,3486.8,3471.0,3478.3,627.0,841.9,1710.0,1006.5,961.1,862.9,-7.0,-6.0,-7.0,4736.0,-6841.0,11262.0,-8507.0,28.0,-15.0,-5.0,-1.0,-8.0,12.0,4897.0,-8464.0,-11194.0,6893.0,20.0,-4.0,-2.0,1.0
2022-05-23 15:03:24.487084-07:00,1303.4,833.6,1141.9,1024.5,927.9,870.5,1690.0,1272.1,3462.5,3466.1,1180.6,903.4,1613.4,3462.5,1294.5,1220.4,3480.7,3471.0,1690.0,2333.7,2878.4,3484.4,1615.2,3486.8,3477.1,3469.8,636.7,841.9,1726.3,1006.5,961.1,862.9,0.0,0.0,0.0,4742.0,-6844.0,11258.0,-8507.0,-2.0,-10.0,3.0,1.0,-3.0,8.0,4899.0,-8463.0,-11192.0,6896.0,4.0,-3.0,4.0,1.0
2022-05-23 15:03:24.547658-07:00,1303.4,831.1,1141.9,1024.5,922.0,870.5,1690.0,1272.1,3471.0,3469.8,1183.2,903.4,1611.5,3462.5,1294.5,1220.4,3480.7,3471.0,1690.0,2311.8,2878.4,3486.8,1617.1,3492.9,3477.1,3469.8,636.7,840.3,1726.3,1004.8,962.0,861.2,6.0,0.0,0.0,4743.0,-6843.0,11257.0,-8508.0,10.0,-2.0,4.0,8.0,-1.0,7.0,4899.0,-8463.0,-11192.0,6896.0,10.0,-4.0,2.0,1.0
2022-05-23 15:03:24.607331-07:00,1303.4,831.1,1141.9,1022.8,929.6,862.1,1672.9,1275.6,3471.0,3469.8,1183.2,905.9,1607.7,3471.0,1302.5,1210.6,3475.9,3474.6,1691.0,2327.4,2882.9,3486.8,1617.1,3492.9,3464.9,3473.4,641.6,841.9,1712.9,1004.8,962.0,861.2,2.0,7.0,0.0,4750.0,-6839.0,11254.0,-8512.0,31.0,-11.0,10.0,5.0,-3.0,12.0,4902.0,-8460.0,-11189.0,6901.0,25.0,-7.0,-6.0,1.0
2022-05-23 15:03:24.667238-07:00,1308.8,833.6,1150.6,1025.4,929.6,862.1,1672.9,1275.6,3467.4,3468.6,1182.3,903.4,1607.7,3471.0,1302.5,1210.6,3475.9,3474.6,1691.0,2327.4,2877.3,3496.6,1627.5,3490.5,3464.9,3473.4,641.6,841.9,1711.9,1002.2,957.7,866.3,-3.0,0.0,-4.0,4751.0,-6839.0,11251.0,-8516.0,0.0,1.0,-16.0,-2.0,-3.0,15.0,4905.0,-8458.0,-11189.0,6903.0,-9.0,2.0,-10.0,1.0
2022-05-23 15:03:24.727157-07:00,1308.8,833.6,1150.6,1025.4,924.5,867.1,1681.4,1272.1,3467.4,3468.6,1182.3,903.4,1619.9,3462.5,1314.2,1219.5,3473.4,3472.2,1692.9,2327.4,2877.3,3496.6,1627.5,3490.5,3469.8,3468.6,640.8,840.3,1711.9,1002.2,957.7,866.3,-2.0,-9.0,0.0,4750.0,-6831.0,11246.0,-8528.0,64.0,48.0,16.0,-3.0,-10.0,9.0,4907.0,-8456.0,-11188.0,6906.0,40.0,-4.0,-3.0,1.0
2022-05-23 15:03:24.787124-07:00,1302.5,818.5,1141.9,1022.8,924.5,867.1,1681.4,1272.1,3472.2,3467.4,1185.0,900.8,1619.9,3462.5,1314.2,1219.5,3473.4,3472.2,1692.9,2327.4,2886.3,3488.0,1620.9,3490.5,3469.8,3468.6,640.8,840.3,1714.8,1005.6,960.2,863.7,-6.0,10.0,-11.0,4757.0,-6809.0,11238.0,-8553.0,37.0,18.0,13.0,1.0,0.0,14.0,4918.0,-8450.0,-11179.0,6920.0,23.0,-3.0,2.0,1.0
2022-05-23 15:03:24.788316-07:00,1302.5,818.5,1141.9,1022.8,923.7,862.1,1699.5,1268.5,3472.2,3467.4,1185.0,900.8,1612.4,3464.9,1304.3,1216.8,3472.2,3472.2,1708.1,2328.5,2886.3,3488.0,1620.9,3490.5,3469.8,3467.4,658.7,837.7,1714.8,1005.6,960.2,863.7,5.0,3.0,-6.0,4760.0,-6813.0,11235.0,-8552.0,-9.0,-31.0,-13.0,0.0,-1.0,7.0,4918.0,-8450.0,-11179.0,6920.0,-10.0,-6.0,-7.0,1.0
2022-05-23 15:03:24.847254-07:00,1306.1,827.7,1148.0,1032.3,923.7,862.1,1699.5,1268.5,3467.4,3473.4,1177.0,897.4,1612.4,3464.9,1304.3,1216.8,3472.2,3472.2,1708.1,2328.5,2879.5,3494.1,1622.8,3499.0,3469.8,3467.4,658.7,837.7,1705.3,1002.2,954.3,865.4,-2.0,0.0,-1.0,4765.0,-6813.0,11229.0,-8557.0,34.0,-3.0,-1.0,5.0,-6.0,15.0,4921.0,-8444.0,-11179.0,6923.0,23.0,-13.0,-11.0,1.0
2022-05-23 15:03:24.907679-07:00,1314.2,827.7,1148.0,1032.3,922.0,871.3,1695.7,1276.5,3473.4,3473.4,1177.0,897.4,1610.5,3469.8,1308.8,1222.2,3479.5,3473.4,1701.4,2328.5,2879.5,3494.1,1622.8,3481.9,3475.9,3474.6,635.9,841.9,1705.3,1002.2,954.3,865.4,-1.0,-7.0,-1.0,4771.0,-6808.0,11221.0,-8567.0,35.0,-4.0,5.0,4.0,-7.0,15.0,4927.0,-8441.0,-11175.0,6930.0,30.0,-5.0,-3.0,1.0
2022-05-23 15:03:24.937760-07:00,1314.2,817.7,1141.9,1029.7,922.0,871.3,1695.7,1280.1,3473.4,3467.4,1189.4,900.0,1610.5,3469.8,1308.8,1220.4,3472.2,3473.4,1701.4,2328.5,2884.0,3500.2,1619.0,3481.9,3473.4,3474.6,635.9,841.9,1708.1,995.3,960.2,865.4,6.0,6.0,-2.0,4783.0,-6798.0,11215.0,-8577.0,20.0,2.0,12.0,0.0,-1.0,7.0,4936.0,-8435.0,-11168.0,6943.0,24.0,-7.0,2.0,1.0
2022-05-23 15:03:24.997489-07:00,1306.1,817.7,1141.9,1029.7,927.1,867.9,1715.8,1280.1,3472.2,3467.4,1189.4,900.0,1612.4,3471.0,1299.0,1220.4,3472.2,3478.3,1704.3,2324.3,2884.0,3500.2,1619.0,3488.0,3473.4,3467.4,639.2,840.3,1708.1,995.3,960.2,866.3,-8.0,-8.0,-5.0,4788.0,-6788.0,11217.0,-8580.0,27.0,10.0,22.0,1.0,-10.0,18.0,4942.0,-8433.0,-11161.0,6952.0,36.0,-7.0,18.0,1.0
2022-05-23 15:03:25.087164-07:00,1306.1,826.9,1140.1,1020.2,927.1,867.9,1715.8,1306.1,3472.2,3468.6,1189.4,908.4,1612.4,3471.0,1299.0,1223.9,3467.4,3478.3,1704.3,2324.3,2890.8,3494.1,1619.0,3488.0,3478.3,3467.4,639.2,840.3,1707.2,999.6,962.0,866.3,1.0,-4.0,-4.0,4802.0,-6769.0,11208.0,-8598.0,98.0,40.0,38.0,-5.0,-8.0,12.0,4944.0,-8430.0,-11148.0,6975.0,60.0,-24.0,25.0,1.0
2022-05-23 15:03:25.088335-07:00,1315.1,826.9,1140.1,1020.2,932.2,884.8,1834.3,1306.1,3473.4,3468.6,1189.4,908.4,1608.7,3463.7,1309.7,1223.9,3467.4,3473.4,1699.5,2343.1,2890.8,3494.1,1619.0,3497.8,3478.3,3475.9,638.4,851.1,1707.2,999.6,962.0,866.3,-4.0,-61.0,0.0,4812.0,-6718.0,11200.0,-8644.0,317.0,66.0,89.0,-1.0,-20.0,1.0,4970.0,-8421.0,-11103.0,7039.0,305.0,-20.0,95.0,1.0
2022-05-23 15:03:25.147296-07:00,1315.1,836.9,1148.0,1034.0,932.2,884.8,2061.5,1422.2,3473.4,3473.4,1234.6,921.1,1608.7,3463.7,1422.2,1230.2,3473.4,3472.2,1699.5,2343.1,2932.5,3495.3,1624.7,3497.8,3475.9,3480.7,638.4,851.1,1708.1,1005.6,959.4,866.3,-10.0,60.0,20.0,4934.0,-6610.0,11080.0,-8811.0,583.0,-2.0,54.0,-1.0,-3.0,1.0,4999.0,-8409.0,-11048.0,7118.0,124.0,-58.0,77.0,1.0
2022-05-23 15:03:25.207259-07:00,1347.6,886.5,1148.0,1034.0,925.4,978.2,2061.5,1422.2,3468.6,3475.9,1234.6,921.1,1629.4,3473.4,1422.2,1230.2,3473.4,3472.2,1695.7,2394.5,2932.5,3495.3,1635.0,3480.7,3475.9,3480.7,702.8,895.7,1708.1,1005.6,999.6,872.1,53.0,63.0,-58.0,4967.0,-6606.0,10984.0,-8916.0,95.0,-118.0,-234.0,11.0,31.0,0.0,4977.0,-8407.0,-11043.0,7144.0,-150.0,-57.0,-7.0,1.0
2022-05-23 15:03:25.327651-07:00,1347.6,886.5,1141.9,1039.2,925.4,978.2,2061.5,1477.3,3468.6,3475.9,1369.4,1023.7,1629.4,3473.4,1770.4,1335.9,3466.1,3467.4,1695.7,2394.5,3077.7,3491.7,1635.0,3480.7,3471.0,3474.6,702.8,895.7,1713.8,1064.3,999.6,872.1,-47.0,-32.0,51.0,4964.0,-6713.0,10917.0,-8919.0,159.0,-242.0,-175.0,25.0,-33.0,27.0,4945.0,-8400.0,-11072.0,7130.0,187.0,-34.0,-6.0,1.0
2022-05-23 15:03:25.328490-07:00,1377.5,905.0,1141.9,1039.2,924.5,1120.0,2061.5,1477.3,3464.9,3473.4,1369.4,1023.7,1665.3,3469.8,1770.4,1335.9,3466.1,3467.4,1677.6,2420.8,3077.7,3491.7,1643.5,3483.2,3471.0,3474.6,755.4,950.9,1713.8,1064.3,1095.6,878.9,22.0,63.0,-10.0,5057.0,-6806.0,10785.0,-8956.0,200.0,-370.0,-232.0,13.0,24.0,-6.0,4973.0,-8374.0,-11048.0,7178.0,49.0,-30.0,-41.0,1.0
2022-05-23 15:03:25.507277-07:00,1377.5,905.0,1145.4,1041.8,924.5,1120.0,2027.4,1461.7,3464.9,3473.4,1458.9,1065.1,1665.3,3469.8,1671.9,1242.6,3471.0,3461.3,1677.6,2420.8,3085.8,3494.1,1643.5,3483.2,3467.4,3478.3,755.4,950.9,1716.7,1141.0,1095.6,878.9,-47.0,-64.0,19.0,5074.0,-6923.0,10676.0,-8988.0,81.0,-62.0,-248.0,-3.0,-23.0,40.0,4969.0,-8345.0,-11068.0,7184.0,49.0,-67.0,-53.0,1.0
2022-05-23 15:03:25.510215-07:00,1382.1,901.7,1145.4,1041.8,927.1,1154.2,2027.4,1461.7,3467.4,3479.5,1458.9,1065.1,1682.4,3467.4,1671.9,1242.6,3471.0,3461.3,1680.5,2424.0,3085.8,3494.1,1654.9,3477.1,3467.4,3478.3,778.6,971.3,1716.7,1141.0,1077.3,880.6,-47.0,-66.0,23.0,5111.0,-6916.0,10645.0,-9009.0,241.0,-42.0,176.0,-2.0,-26.0,27.0,4985.0,-8321.0,-11053.0,7223.0,315.0,28.0,36.0,1.0
2022-05-23 15:03:25.510923-07:00,1382.1,901.7,1147.1,1038.3,927.1,1149.8,1991.5,1453.4,3467.4,3479.5,1451.6,1055.6,1682.4,3462.5,1636.9,1227.5,3477.1,3467.4,1668.2,2424.0,3067.4,3494.1,1654.9,3477.1,3473.4,3480.7,778.6,971.3,1719.6,1119.1,1077.3,880.6,1.0,70.0,-14.0,5222.0,-6810.0,10587.0,-9094.0,314.0,71.0,105.0,4.0,28.0,0.0,5056.0,-8298.0,-10982.0,7308.0,154.0,32.0,16.0,1.0
2022-05-23 15:03:25.511646-07:00,1370.3,890.7,1142.7,1038.3,923.7,1149.8,1991.5,1453.4,3464.9,3464.9,1437.8,1055.6,1679.5,3462.5,1636.9,1227.5,3477.1,3467.4,1668.2,2402.9,3067.4,3490.5,1646.4,3492.9,3473.4,3480.7,778.6,959.4,1719.6,1101.7,1066.9,888.2,-13.0,-25.0,-6.0,5199.0,-6806.0,10592.0,-9105.0,-134.0,8.0,-67.0,8.0,-19.0,27.0,5052.0,-8314.0,-10980.0,7296.0,-124.0,24.0,35.0,1.0
2022-05-23 15:03:25.537990-07:00,1370.3,890.7,1142.7,1039.2,923.7,1132.2,2005.5,1451.6,3464.9,3464.9,1437.8,1045.2,1679.5,3472.2,1628.4,1227.5,3478.3,3474.6,1666.3,2402.9,3047.8,3490.5,1646.4,3492.9,3478.3,3478.3,771.1,959.4,1712.9,1101.7,1066.9,888.2,1.0,-5.0,-10.0,5195.0,-6814.0,10606.0,-9085.0,-25.0,-3.0,67.0,10.0,-2.0,7.0,5038.0,-8335.0,-10982.0,7279.0,-16.0,9.0,27.0,1.0
2022-05-23 15:03:25.657873-07:00,1357.6,902.5,1146.3,1039.2,935.6,1132.2,2005.5,1451.6,3468.6,3469.8,1420.4,1045.2,1667.2,3472.2,1628.4,1227.5,3478.3,3474.6,1666.3,2388.1,3047.8,3491.7,1635.0,3485.6,3478.3,3478.3,771.1,951.7,1712.9,1098.2,1055.6,898.3,-11.0,-1.0,-16.0,5216.0,-6793.0,10620.0,-9071.0,5.0,-34.0,75.0,2.0,-10.0,16.0,5037.0,-8336.0,-10976.0,7286.0,21.0,-11.0,18.0,1.0
2022-05-23 15:03:25.747910-07:00,1357.6,902.5,1146.3,1034.0,935.6,1121.7,1975.6,1458.9,3468.6,3469.8,1420.4,1046.1,1667.2,3466.1,1619.9,1227.5,3481.9,3466.1,1663.4,2388.1,3037.4,3491.7,1635.0,3485.6,3479.5,3473.4,760.4,951.7,1713.8,1098.2,1055.6,898.3,18.0,3.0,5.0,5256.0,-6793.0,10612.0,-9058.0,33.0,-62.0,34.0,-2.0,0.0,3.0,5044.0,-8335.0,-10964.0,7302.0,37.0,-6.0,12.0,1.0
2022-05-23 15:03:25.748806-07:00,1364.8,899.1,1146.3,1047.0,922.0,1121.7,1975.6,1458.9,3467.4,3475.9,1413.1,1034.0,1669.1,3466.1,1619.9,1227.5,3481.9,3466.1,1663.4,2385.0,3032.9,3486.8,1638.8,3489.2,3479.5,3473.4,760.4,939.0,1719.6,1085.1,1038.3,883.1,-10.0,1.0,-4.0,5269.0,-6779.0,10601.0,-9074.0,82.0,4.0,15.0,1.0,-7.0,22.0,5056.0,-8326.0,-10953.0,7321.0,63.0,5.0,5.0,1.0
2022-05-23 15:03:25.749881-07:00,1364.8,899.1,1146.3,1047.0,931.3,1117.4,1991.5,1452.5,3467.4,3475.9,1413.1,1034.0,1665.3,3473.4,1608.7,1225.7,3478.3,3477.1,1662.5,2383.9,3032.9,3486.8,1638.8,3489.2,3484.4,3478.3,754.6,935.6,1719.6,1085.1,1038.3,883.1,-2.0,0.0,0.0,5283.0,-6772.0,10589.0,-9086.0,-4.0,-1.0,5.0,0.0,-1.0,12.0,5066.0,-8320.0,-10944.0,7333.0,-9.0,1.0,8.0,1.0
2022-05-23 15:03:25.897233-07:00,1357.6,885.6,1139.2,1034.9,931.3,1117.4,1991.5,1452.5,3466.1,3471.0,1393.0,1028.8,1665.3,3473.4,1608.7,1225.7,3478.3,3477.1,1662.5,2383.9,3024.8,3486.8,1633.1,3478.3,3484.4,3478.3,754.6,935.6,1710.0,1092.9,1044.4,882.3,-7.0,10.0,-12.0,5284.0,-6767.0,10594.0,-9082.0,7.0,-5.0,24.0,0.0,0.0,13.0,5067.0,-8321.0,-10941.0,7336.0,16.0,6.0,8.0,1.0
2022-05-23 15:03:25.899585-07:00,1357.6,885.6,1139.2,1034.9,925.4,1126.1,1983.6,1450.6,3466.1,3471.0,1393.0,1028.8,1666.3,3464.9,1612.4,1225.7,3478.3,3475.9,1657.7,2376.6,3024.8,3486.8,1633.1,3478.3,3474.6,3477.1,757.9,933.0,1710.0,1092.9,1044.4,882.3,-9.0,-11.0,-8.0,5287.0,-6775.0,10595.0,-9074.0,-17.0,-19.0,-10.0,-2.0,-1.0,9.0,5071.0,-8322.0,-10938.0,7336.0,-1.0,9.0,-2.0,1.0
2022-05-23 15:03:26.017786-07:00,1364.8,878.9,1132.2,1038.3,925.4,1126.1,1983.6,1450.6,3464.9,3471.0,1393.9,1028.8,1666.3,3464.9,1612.4,1225.7,3478.3,3475.9,1657.7,2376.6,3004.2,3488.0,1631.3,3490.5,3474.6,3477.1,757.9,933.0,1710.0,1078.2,1043.5,878.0,11.0,-1.0,-19.0,5305.0,-6772.0,10586.0,-9076.0,84.0,-33.0,40.0,0.0,-1.0,6.0,5078.0,-8317.0,-10932.0,7345.0,66.0,1.0,7.0,1.0
2022-05-23 15:03:26.107866-07:00,1364.8,878.9,1132.2,1038.3,920.3,1103.4,1977.6,1443.3,3464.9,3471.0,1393.9,1028.8,1666.3,3457.6,1602.1,1239.1,3472.2,3478.3,1646.4,2376.6,3004.2,3488.0,1631.3,3490.5,3474.6,3477.1,750.5,927.9,1710.0,1078.2,1043.5,878.0,0.0,10.0,-17.0,5338.0,-6760.0,10570.0,-9084.0,48.0,-47.0,36.0,2.0,0.0,10.0,5090.0,-8304.0,-10920.0,7371.0,61.0,-23.0,-4.0,1.0
2022-05-23 15:03:26.347293-07:00,1356.7,888.2,1132.2,1037.5,920.3,1103.4,1977.6,1443.3,3463.7,3462.5,1383.9,1026.3,1666.3,3457.6,1602.1,1224.8,3473.4,3478.3,1646.4,2376.6,3008.8,3494.1,1635.0,3483.2,3488.0,3477.1,750.5,927.9,1709.1,1073.8,1038.3,883.9,0.0,3.0,5.0,5368.0,-6763.0,10559.0,-9076.0,38.0,-54.0,27.0,3.0,0.0,11.0,5095.0,-8293.0,-10913.0,7389.0,49.0,-20.0,-5.0,1.0
2022-05-23 15:03:26.348442-07:00,1361.2,888.2,1132.2,1037.5,926.2,1101.7,1969.7,1443.3,3478.3,3462.5,1383.9,1026.3,1657.7,3463.7,1588.9,1224.8,3473.4,3483.2,1651.1,2383.9,3008.8,3494.1,1635.0,3486.8,3488.0,3477.1,758.7,922.8,1709.1,1073.8,1038.3,879.7,-9.0,8.0,5.0,5391.0,-6755.0,10551.0,-9078.0,38.0,-16.0,30.0,2.0,-2.0,25.0,5106.0,-8283.0,-10904.0,7408.0,43.0,-3.0,-1.0,1.0
2022-05-23 15:03:26.407322-07:00,1361.2,876.4,1133.1,1038.3,926.2,1101.7,1969.7,1443.3,3478.3,3462.5,1369.4,1023.7,1657.7,3463.7,1588.9,1223.9,3472.2,3483.2,1651.1,2383.9,3003.1,3494.1,1620.9,3486.8,3475.9,3477.1,758.7,922.8,1707.2,1069.5,1040.9,879.7,2.0,-1.0,0.0,5394.0,-6762.0,10553.0,-9070.0,-44.0,-10.0,-11.0,-3.0,-2.0,11.0,5108.0,-8285.0,-10903.0,7404.0,-41.0,16.0,2.0,1.0
2022-05-23 15:03:26.437163-07:00,1345.8,876.4,1133.1,1038.3,925.4,1099.0,1974.6,1443.3,3473.4,3462.5,1369.4,1023.7,1665.3,3467.4,1592.7,1223.9,3472.2,3478.3,1662.5,2370.3,3003.1,3494.1,1620.9,3477.1,3475.9,3475.9,751.3,926.2,1707.2,1069.5,1040.9,874.7,-8.0,-6.0,-7.0,5384.0,-6759.0,10560.0,-9069.0,6.0,47.0,-1.0,-2.0,-4.0,9.0,5106.0,-8291.0,-10906.0,7394.0,-16.0,12.0,6.0,1.0
2022-05-23 15:03:26.497784-07:00,1345.8,872.1,1147.1,1027.1,925.4,1099.0,1974.6,1447.9,3473.4,3473.4,1371.2,1018.5,1665.3,3467.4,1592.7,1225.7,3472.2,3478.3,1662.5,2370.3,2993.9,3495.3,1619.0,3477.1,3469.8,3475.9,751.3,926.2,1694.8,1065.1,1028.8,874.7,-5.0,10.0,-16.0,5383.0,-6752.0,10558.0,-9077.0,14.0,-20.0,-15.0,-2.0,4.0,11.0,5110.0,-8293.0,-10903.0,7395.0,-3.0,9.0,7.0,1.0
2022-05-23 15:03:26.498404-07:00,1345.8,872.1,1147.1,1027.1,925.4,1099.0,1974.6,1447.9,3473.4,3473.4,1371.2,1018.5,1665.3,3467.4,1592.7,1225.7,3472.2,3478.3,1662.5,2370.3,2993.9,3495.3,1619.0,3477.1,3469.8,3475.9,751.3,926.2,1694.8,1065.1,1028.8,874.7,-5.0,10.0,-16.0,5383.0,-6752.0,10558.0,-9077.0,14.0,-20.0,-15.0,-2.0,4.0,11.0,5110.0,-8293.0,-10903.0,7395.0,-3.0,9.0,7.0,1.0
2022-05-23 15:03:26.617763-07:00,1348.5,877.2,1135.7,1033.2,928.8,1084.2,1964.7,1450.6,3469.8,3469.8,1365.7,1022.8,1657.7,3473.4,1590.8,1225.7,3473.4,3467.4,1649.2,2364.0,3003.1,3491.7,1619.0,3483.2,3479.5,3481.9,745.5,911.0,1714.8,1065.1,1027.1,880.6,-1.0,6.0,-3.0,5387.0,-6800.0,10546.0,-9054.0,14.0,-10.0,-23.0,1.0,-1.0,11.0,5099.0,-8298.0,-10913.0,7381.0,-12.0,6.0,6.0,1.0
2022-05-23 15:03:26.618646-07:00,1357.6,873.8,1134.9,1028.0,927.9,1082.5,1941.0,1427.7,3461.3,3472.2,1367.6,1022.8,1663.4,3472.2,1577.7,1231.9,3473.4,3468.6,1649.2,2375.5,2996.2,3500.2,1623.7,3486.8,3469.8,3475.9,742.2,916.9,1706.2,1062.5,1032.3,868.8,1.0,0.0,-8.0,5376.0,-6815.0,10541.0,-9054.0,-31.0,-4.0,-43.0,0.0,-2.0,9.0,5092.0,-8302.0,-10920.0,7371.0,-49.0,4.0,0.0,1.0
2022-05-23 15:03:26.619735-07:00,1357.6,873.8,1128.7,1026.3,927.9,1082.5,1945.0,1426.8,3461.3,3472.2,1371.2,1019.4,1663.4,3472.2,1588.9,1217.7,3474.6,3474.6,1649.2,2375.5,3004.2,3497.8,1623.7,3486.8,3472.2,3475.9,742.2,916.9,1711.0,1073.8,1032.3,868.8,-9.0,-3.0,-10.0,5379.0,-6824.0,10536.0,-9052.0,12.0,-27.0,-1.0,0.0,-2.0,16.0,5088.0,-8304.0,-10924.0,7366.0,-9.0,8.0,5.0,1.0
2022-05-23 15:03:26.621121-07:00,1344.9,883.1,1130.5,1026.3,933.9,1081.6,1945.0,1426.8,3457.6,3467.4,1363.0,1019.4,1654.9,3467.4,1588.9,1217.7,3474.6,3474.6,1649.2,2367.2,3004.2,3486.8,1615.2,3489.2,3472.2,3475.9,748.8,922.8,1711.0,1061.7,1028.8,870.5,-3.0,2.0,-3.0,5378.0,-6825.0,10541.0,-9045.0,-25.0,16.0,12.0,1.0,-2.0,15.0,5086.0,-8306.0,-10926.0,7363.0,-23.0,-4.0,4.0,1.0
2022-05-23 15:03:26.646873-07:00,1344.9,883.1,1130.5,1011.6,933.9,1086.0,1950.9,1467.2,3457.6,3467.4,1363.0,1010.8,1654.9,3472.2,1580.5,1222.2,3477.1,3471.0,1649.2,2367.2,2982.5,3486.8,1615.2,3489.2,3484.4,3472.2,737.3,922.8,1709.1,1061.7,1028.8,870.5,-3.0,-15.0,8.0,5366.0,-6805.0,10555.0,-9051.0,-4.0,98.0,37.0,0.0,-7.0,13.0,5082.0,-8308.0,-10929.0,7358.0,-12.0,2.0,6.0,1.0
2022-05-23 15:03:26.647664-07:00,1344.9,883.1,1130.5,1011.6,933.9,1086.0,1950.9,1467.2,3457.6,3467.4,1363.0,1010.8,1654.9,3472.2,1580.5,1222.2,3477.1,3471.0,1649.2,2367.2,2982.5,3486.8,1615.2,3489.2,3484.4,3472.2,737.3,922.8,1709.1,1061.7,1028.8,870.5,-3.0,-15.0,8.0,5366.0,-6805.0,10555.0,-9051.0,-4.0,98.0,37.0,0.0,-7.0,13.0,5082.0,-8308.0,-10929.0,7358.0,-12.0,2.0,6.0,1.0
2022-05-23 15:03:26.677149-07:00,1335.0,867.1,1126.1,1006.5,933.0,1091.2,1943.0,1448.8,3462.5,3468.6,1356.7,1016.8,1665.3,3457.6,1582.4,1234.6,3472.2,3469.8,1645.4,2368.2,2988.2,3494.1,1616.2,3485.6,3478.3,3467.4,745.5,919.4,1711.0,1052.2,1015.9,887.3,2.0,0.0,-16.0,5339.0,-6783.0,10581.0,-9053.0,-11.0,30.0,-9.0,4.0,0.0,2.0,5083.0,-8321.0,-10927.0,7346.0,-10.0,10.0,7.0,1.0
2022-05-23 15:03:26.737845-07:00,1350.3,865.4,1128.7,1006.5,932.2,1091.2,1943.0,1448.8,3467.4,3461.3,1362.1,1016.8,1659.6,3457.6,1582.4,1234.6,3472.2,3469.8,1645.4,2368.2,2988.2,3486.8,1610.5,3485.6,3478.3,3467.4,745.5,927.9,1711.0,1057.3,1002.2,874.7,0.0,9.0,-17.0,5334.0,-6787.0,10579.0,-9056.0,9.0,-20.0,-29.0,5.0,-1.0,8.0,5084.0,-8322.0,-10926.0,7344.0,3.0,-2.0,1.0,1.0
2022-05-23 15:03:26.856791-07:00,1350.3,865.4,1128.7,1014.2,923.7,1073.8,1959.8,1430.5,3467.4,3461.3,1362.1,1016.8,1663.4,3456.4,1582.4,1227.5,3467.4,3471.0,1645.4,2358.8,2978.0,3486.8,1610.5,3485.6,3474.6,3480.7,735.6,925.4,1709.1,1057.3,1002.2,874.7,-4.0,-2.0,-1.0,5331.0,-6802.0,10568.0,-9058.0,11.0,-11.0,-23.0,-2.0,0.0,14.0,5083.0,-8320.0,-10928.0,7345.0,-1.0,-14.0,-9.0,1.0
2022-05-23 15:03:26.858817-07:00,1347.6,880.6,1120.9,1021.9,923.7,1073.8,1959.8,1430.5,3467.4,3473.4,1361.2,1018.5,1663.4,3456.4,1582.4,1227.5,3467.4,3471.0,1645.4,2358.8,2982.5,3486.8,1609.6,3479.5,3474.6,3480.7,735.6,925.4,1708.1,1049.6,1009.0,867.9,-4.0,2.0,0.0,5340.0,-6794.0,10565.0,-9063.0,47.0,-1.0,17.0,-1.0,-4.0,13.0,5083.0,-8317.0,-10927.0,7351.0,26.0,-3.0,0.0,1.0
2022-05-23 15:03:26.917232-07:00,1347.6,880.6,1120.9,1021.9,921.1,1062.5,1959.8,1428.6,3467.4,3473.4,1361.2,1018.5,1652.0,3468.6,1590.8,1229.3,3468.6,3472.2,1648.3,2351.4,2982.5,3486.8,1609.6,3479.5,3474.6,3477.1,738.1,911.8,1708.1,1049.6,1009.0,867.9,-2.0,1.0,-7.0,5339.0,-6796.0,10559.0,-9069.0,0.0,4.0,-31.0,-2.0,0.0,6.0,5086.0,-8315.0,-10923.0,7356.0,-8.0,1.0,-5.0,1.0
2022-05-23 15:03:26.977141-07:00,1346.7,864.6,1113.0,1027.1,921.1,1062.5,1959.8,1428.6,3478.3,3467.4,1354.9,1018.5,1652.0,3468.6,1590.8,1229.3,3468.6,3472.2,1648.3,2351.4,2979.1,3491.7,1617.1,3490.5,3474.6,3477.1,738.1,911.8,1700.5,1045.2,1007.3,875.5,-7.0,-12.0,-11.0,5334.0,-6800.0,10556.0,-9073.0,12.0,-6.0,9.0,-1.0,-7.0,9.0,5087.0,-8314.0,-10923.0,7357.0,31.0,-2.0,-7.0,1.0
2022-05-23 15:03:26.978232-07:00,1346.7,864.6,1113.0,1027.1,927.1,1061.7,1945.0,1426.8,3478.3,3467.4,1354.9,1018.5,1641.6,3469.8,1573.9,1224.8,3472.2,3473.4,1633.1,2340.0,2979.1,3491.7,1617.1,3490.5,3472.2,3467.4,728.2,916.0,1700.5,1045.2,1007.3,875.5,-1.0,9.0,-6.0,5345.0,-6794.0,10551.0,-9077.0,15.0,-12.0,-1.0,0.0,1.0,7.0,5092.0,-8309.0,-10920.0,7364.0,4.0,-7.0,-15.0,1.0
2022-05-23 15:03:27.127146-07:00,1344.0,863.7,1126.1,1022.8,927.1,1061.7,1945.0,1426.8,3471.0,3472.2,1354.0,1015.1,1641.6,3469.8,1573.9,1224.8,3472.2,3473.4,1633.1,2340.0,2972.3,3490.5,1617.1,3479.5,3472.2,3467.4,728.2,916.0,1702.4,1044.4,1008.2,875.5,-5.0,-3.0,-1.0,5345.0,-6795.0,10547.0,-9080.0,27.0,-7.0,-1.0,1.0,-2.0,12.0,5096.0,-8302.0,-10922.0,7366.0,13.0,-4.0,-12.0,1.0
2022-05-23 15:03:27.217798-07:00,1346.7,863.7,1126.1,1022.8,928.8,1059.9,1939.0,1418.6,3468.6,3472.2,1354.0,1015.1,1656.8,3466.1,1579.6,1231.9,3467.4,3475.9,1648.3,2353.5,2972.3,3490.5,1617.1,3483.2,3471.0,3472.2,723.3,911.0,1702.4,1044.4,1008.2,875.5,2.0,3.0,-1.0,5351.0,-6796.0,10542.0,-9082.0,0.0,-4.0,2.0,3.0,0.0,8.0,5099.0,-8298.0,-10923.0,7366.0,1.0,-4.0,-11.0,1.0
2022-05-23 15:03:27.248003-07:00,1346.7,868.8,1123.5,1030.6,928.8,1059.9,1939.0,1434.1,3468.6,3471.0,1358.5,1015.1,1656.8,3466.1,1579.6,1230.2,3471.0,3475.9,1648.3,2353.5,2968.9,3492.9,1614.3,3483.2,3475.9,3472.2,723.3,911.0,1705.3,1053.0,1009.0,875.5,-9.0,0.0,-5.0,5351.0,-6793.0,10540.0,-9087.0,21.0,6.0,0.0,1.0,-2.0,15.0,5103.0,-8294.0,-10923.0,7369.0,11.0,3.0,-7.0,1.0
2022-05-23 15:03:27.249500-07:00,1338.6,868.8,1123.5,1030.6,930.5,1047.8,1940.0,1434.1,3471.0,3471.0,1358.5,1015.1,1653.0,3468.6,1571.1,1230.2,3471.0,3469.8,1644.5,2358.8,2968.9,3492.9,1614.3,3490.5,3475.9,3473.4,725.8,909.3,1705.3,1053.0,1009.0,874.7,8.0,3.0,-4.0,5354.0,-6798.0,10534.0,-9088.0,-11.0,-12.0,-17.0,1.0,1.0,5.0,5104.0,-8293.0,-10924.0,7367.0,-8.0,-5.0,-15.0,1.0
2022-05-23 15:03:27.337128-07:00,1338.6,867.1,1127.9,1019.4,930.5,1047.8,1940.0,1423.1,3471.0,3473.4,1357.6,1013.3,1653.0,3468.6,1571.1,1222.2,3474.6,3469.8,1644.5,2358.8,2964.3,3486.8,1617.1,3490.5,3479.5,3473.4,725.8,909.3,1702.4,1041.8,990.2,874.7,-4.0,-2.0,-5.0,5353.0,-6796.0,10533.0,-9091.0,16.0,3.0,11.0,4.0,-2.0,14.0,5107.0,-8290.0,-10924.0,7368.0,11.0,-3.0,-6.0,1.0
2022-05-23 15:03:27.397244-07:00,1338.6,867.1,1127.9,1019.4,924.5,1056.5,1941.0,1423.1,3473.4,3473.4,1357.6,1013.3,1651.1,3467.4,1577.7,1222.2,3474.6,3478.3,1643.5,2349.4,2964.3,3486.8,1617.1,3484.4,3479.5,3472.2,720.8,905.9,1702.4,1041.8,990.2,878.9,-3.0,2.0,-4.0,5355.0,-6794.0,10533.0,-9091.0,5.0,-4.0,2.0,2.0,0.0,9.0,5108.0,-8289.0,-10923.0,7369.0,3.0,3.0,2.0,1.0
2022-05-23 15:03:27.399032-07:00,1338.6,870.5,1123.5,1022.8,924.5,1056.5,1925.2,1425.0,3473.4,3469.8,1356.7,1012.5,1651.1,3467.4,1582.4,1230.2,3467.4,3471.0,1643.5,2349.4,2968.9,3495.3,1618.1,3484.4,3467.4,3474.6,720.8,905.9,1699.5,1047.8,996.2,878.9,2.0,8.0,-2.0,5355.0,-6796.0,10532.0,-9091.0,8.0,-7.0,-11.0,2.0,3.0,6.0,5109.0,-8288.0,-10924.0,7370.0,-5.0,1.0,-13.0,1.0
2022-05-23 15:03:27.399831-07:00,1347.6,869.6,1123.5,1022.8,926.2,1047.8,1925.2,1425.0,3472.2,3473.4,1356.7,1012.5,1659.6,3468.6,1582.4,1230.2,3467.4,3471.0,1643.5,2360.9,2968.9,3495.3,1610.5,3485.6,3467.4,3474.6,725.8,905.0,1699.5,1047.8,1003.0,867.9,-8.0,-1.0,-4.0,5352.0,-6797.0,10526.0,-9100.0,20.0,4.0,-16.0,0.0,-2.0,11.0,5112.0,-8284.0,-10926.0,7369.0,-6.0,4.0,-11.0,1.0
2022-05-23 15:03:27.487135-07:00,1347.6,869.6,1119.1,1027.1,926.2,1047.8,1938.0,1415.8,3472.2,3473.4,1354.9,1010.8,1659.6,3468.6,1575.8,1231.0,3475.9,3484.4,1643.5,2360.9,2964.3,3495.3,1610.5,3485.6,3472.2,3472.2,725.8,905.0,1711.0,1047.8,1003.0,867.9,-5.0,-8.0,-9.0,5356.0,-6794.0,10520.0,-9106.0,34.0,-9.0,13.0,0.0,-3.0,5.0,5113.0,-8283.0,-10926.0,7370.0,13.0,3.0,3.0,1.0
2022-05-23 15:03:27.547809-07:00,1332.3,866.3,1119.1,1027.1,925.4,1050.4,1938.0,1415.8,3464.9,3464.9,1354.9,1010.8,1653.0,3468.6,1575.8,1231.0,3475.9,3484.4,1646.4,2360.9,2964.3,3495.3,1614.3,3485.6,3472.2,3472.2,729.0,905.0,1711.0,1047.8,999.6,867.1,1.0,7.0,-7.0,5365.0,-6785.0,10520.0,-9108.0,-4.0,-7.0,19.0,5.0,0.0,9.0,5115.0,-8282.0,-10924.0,7372.0,-2.0,-5.0,-1.0,1.0
2022-05-23 15:03:27.549284-07:00,1332.3,866.3,1126.1,1021.9,925.4,1050.4,1940.0,1426.8,3464.9,3464.9,1350.3,1010.8,1653.0,3468.6,1573.9,1231.9,3475.9,3467.4,1646.4,2360.9,2950.7,3491.7,1614.3,3485.6,3472.2,3473.4,729.0,905.0,1711.0,1041.8,999.6,867.1,0.0,3.0,-3.0,5370.0,-6788.0,10518.0,-9105.0,-4.0,-22.0,-1.0,6.0,1.0,8.0,5115.0,-8280.0,-10925.0,7373.0,2.0,-11.0,-9.0,1.0
2022-05-23 15:03:27.637210-07:00,1325.9,869.6,1120.9,1021.9,920.3,1041.8,1940.0,1426.8,3463.7,3469.8,1347.6,1010.8,1651.1,3466.1,1573.9,1231.9,3475.9,3467.4,1643.5,2355.6,2950.7,3491.7,1606.8,3488.0,3472.2,3473.4,716.7,904.2,1711.0,1043.5,999.6,872.1,-9.0,8.0,-1.0,5372.0,-6788.0,10516.0,-9105.0,-6.0,1.0,-5.0,0.0,-1.0,16.0,5117.0,-8277.0,-10927.0,7372.0,-10.0,0.0,-9.0,1.0
2022-05-23 15:03:27.727192-07:00,1325.9,869.6,1120.9,1024.5,920.3,1047.0,1947.9,1422.2,3463.7,3469.8,1347.6,1007.3,1651.1,3463.7,1576.8,1250.6,3483.2,3481.9,1638.8,2355.6,2955.2,3491.7,1606.8,3488.0,3475.9,3483.2,715.9,904.2,1711.0,1043.5,999.6,872.1,-4.0,-5.0,0.0,5368.0,-6791.0,10517.0,-9105.0,6.0,14.0,-5.0,0.0,-4.0,12.0,5118.0,-8276.0,-10928.0,7371.0,7.0,6.0,-2.0,1.0
2022-05-23 15:03:27.877285-07:00,1338.6,872.1,1124.4,1024.5,927.9,1047.0,1947.9,1422.2,3473.4,3471.0,1354.0,1007.3,1653.0,3463.7,1576.8,1250.6,3483.2,3481.9,1638.8,2361.9,2955.2,3500.2,1612.4,3490.5,3475.9,3483.2,715.9,905.9,1711.0,1047.8,1003.0,877.2,-2.0,-4.0,-9.0,5369.0,-6787.0,10519.0,-9105.0,1.0,1.0,16.0,-3.0,0.0,3.0,5120.0,-8275.0,-10926.0,7374.0,27.0,-1.0,3.0,1.0
2022-05-23 15:03:27.907432-07:00,1338.6,872.1,1124.4,1028.8,927.9,1051.3,1939.0,1422.2,3473.4,3471.0,1354.0,1014.2,1653.0,3478.3,1572.1,1231.0,3478.3,3467.4,1639.8,2361.9,2976.8,3500.2,1612.4,3490.5,3479.5,3478.3,715.9,905.9,1704.3,1047.8,1003.0,877.2,-3.0,3.0,-6.0,5375.0,-6780.0,10524.0,-9101.0,2.0,-12.0,33.0,5.0,1.0,9.0,5124.0,-8271.0,-10922.0,7382.0,19.0,-8.0,3.0,1.0
2022-05-23 15:03:27.908523-07:00,1343.1,871.3,1126.1,1028.8,922.8,1051.3,1939.0,1422.2,3462.5,3471.0,1351.2,1014.2,1655.8,3478.3,1572.1,1231.0,3478.3,3467.4,1639.8,2357.7,2976.8,3485.6,1615.2,3488.0,3479.5,3478.3,715.9,907.6,1704.3,1034.0,1000.5,876.4,1.0,11.0,-1.0,5383.0,-6780.0,10525.0,-9095.0,-15.0,-10.0,4.0,4.0,0.0,14.0,5124.0,-8270.0,-10921.0,7383.0,-9.0,-1.0,-3.0,1.0
2022-05-23 15:03:27.967904-07:00,1343.1,871.3,1126.1,1027.1,922.8,1036.6,1939.0,1410.3,3462.5,3471.0,1351.2,1009.0,1655.8,3469.8,1563.7,1234.6,3484.4,3478.3,1632.2,2357.7,2970.0,3485.6,1615.2,3488.0,3484.4,3473.4,715.9,907.6,1711.0,1034.0,1000.5,876.4,-6.0,1.0,2.0,5381.0,-6781.0,10526.0,-9093.0,10.0,1.0,3.0,4.0,-2.0,14.0,5124.0,-8271.0,-10921.0,7383.0,13.0,7.0,-1.0,1.0
2022-05-23 15:03:27.997292-07:00,1338.6,864.6,1127.9,1021.1,918.6,1036.6,1939.0,1410.3,3478.3,3479.5,1344.0,1008.2,1646.4,3469.8,1563.7,1234.6,3484.4,3478.3,1632.2,2345.2,2960.9,3495.3,1621.8,3491.7,3484.4,3473.4,715.9,902.5,1702.4,1049.6,1008.2,876.4,0.0,7.0,-2.0,5379.0,-6783.0,10528.0,-9091.0,-18.0,6.0,1.0,3.0,0.0,10.0,5122.0,-8273.0,-10923.0,7379.0,-27.0,12.0,5.0,1.0
2022-05-23 15:03:27.999778-07:00,1338.6,864.6,1127.9,1021.1,922.0,1053.0,1937.1,1411.3,3478.3,3479.5,1344.0,1008.2,1651.1,3464.9,1570.2,1231.0,3474.6,3479.5,1634.1,2356.7,2960.9,3495.3,1621.8,3491.7,3469.8,3477.1,710.1,899.1,1702.4,1049.6,1008.2,876.4,16.0,4.0,8.0,5371.0,-6780.0,10535.0,-9090.0,-23.0,72.0,15.0,5.0,6.0,-2.0,5123.0,-8282.0,-10927.0,7362.0,-39.0,44.0,-15.0,1.0
2022-05-23 15:03:28.000515-07:00,1343.1,860.4,1125.2,1029.7,922.0,1053.0,1937.1,1411.3,3474.6,3462.5,1364.8,1007.3,1651.1,3464.9,1570.2,1231.0,3474.6,3479.5,1634.1,2356.7,2975.7,3481.9,1606.8,3484.4,3469.8,3477.1,710.1,899.1,1711.0,1047.0,1004.8,877.2,42.0,5.0,-15.0,5318.0,-6678.0,10577.0,-9148.0,220.0,391.0,70.0,31.0,6.0,33.0,5139.0,-8288.0,-10933.0,7336.0,-2.0,54.0,-33.0,1.0
2022-05-23 15:03:28.057158-07:00,1343.1,860.4,1125.2,1029.7,934.7,1072.9,1924.3,1421.3,3474.6,3462.5,1364.8,1007.3,1651.1,3467.4,1606.8,1316.9,3475.9,3467.4,1639.8,2367.2,2975.7,3481.9,1606.8,3484.4,3488.0,3472.2,706.9,923.7,1711.0,1047.0,1004.8,877.2,-72.0,64.0,-53.0,5264.0,-6783.0,10608.0,-9066.0,-713.0,-472.0,-213.0,0.0,11.0,26.0,5088.0,-8353.0,-11002.0,7192.0,-681.0,137.0,-30.0,1.0
2022-05-23 15:03:28.117897-07:00,1347.6,861.2,1117.4,1022.8,934.7,1072.9,1924.3,1421.3,3474.6,3471.0,1352.1,977.3,1651.1,3467.4,1606.8,1316.9,3475.9,3467.4,1639.8,2367.2,2946.1,3489.2,1676.7,3489.2,3488.0,3472.2,706.9,923.7,1708.1,1059.1,1001.3,877.2,32.0,-19.0,-16.0,5213.0,-6976.0,10685.0,-8856.0,-607.0,-74.0,-49.0,-17.0,-13.0,-31.0,4993.0,-8429.0,-11116.0,6992.0,-544.0,32.0,-93.0,1.0
2022-05-23 15:03:28.147255-07:00,1368.5,861.2,1117.4,1022.8,916.9,1050.4,1967.7,1402.1,3466.1,3471.0,1352.1,977.3,1638.8,3464.9,1547.8,1254.2,3469.8,3469.8,1657.7,2347.3,2946.1,3489.2,1676.7,3483.2,3466.1,3472.2,718.4,933.0,1708.1,1059.1,1001.3,866.3,-61.0,-18.0,-47.0,5142.0,-7066.0,10788.0,-8699.0,-398.0,-225.0,4.0,-1.0,-24.0,41.0,4921.0,-8472.0,-11211.0,6838.0,-431.0,62.0,-55.0,1.0
2022-05-23 15:03:28.237118-07:00,1368.5,894.9,1116.5,1006.5,916.9,1050.4,1967.7,1394.8,3466.1,3473.4,1253.3,933.0,1638.8,3464.9,1547.8,1233.7,3474.6,3469.8,1657.7,2347.3,2932.5,3499.0,1769.5,3483.2,3483.2,3472.2,718.4,933.0,1709.1,1032.3,985.0,866.3,31.0,-64.0,13.0,5135.0,-7180.0,10867.0,-8510.0,-291.0,-145.0,85.0,-2.0,-33.0,-6.0,4845.0,-8521.0,-11296.0,6690.0,-275.0,15.0,-44.0,1.0
2022-05-23 15:03:28.238439-07:00,1425.0,894.9,1116.5,1006.5,927.9,1029.7,2006.4,1394.8,3463.7,3473.4,1253.3,933.0,1621.8,3464.9,1432.3,1233.7,3474.6,3478.3,1649.2,2342.0,2932.5,3499.0,1769.5,3483.2,3483.2,3484.4,726.6,918.6,1709.1,1032.3,985.0,888.2,-33.0,7.0,-18.0,5173.0,-7200.0,10911.0,-8414.0,-267.0,-239.0,145.0,6.0,-13.0,22.0,4818.0,-8535.0,-11327.0,6638.0,-179.0,16.0,-10.0,1.0
2022-05-23 15:03:28.357277-07:00,1425.0,908.4,1103.4,1003.9,927.9,1029.7,2006.4,1387.5,3463.7,3472.2,1204.4,920.3,1621.8,3464.9,1432.3,1206.2,3475.9,3478.3,1649.2,2342.0,2925.8,3494.1,1813.9,3483.2,3471.0,3484.4,726.6,918.6,1711.0,1020.2,980.7,888.2,45.0,-15.0,28.0,5209.0,-7258.0,10970.0,-8263.0,-208.0,-105.0,118.0,-2.0,0.0,-13.0,4781.0,-8551.0,-11361.0,6587.0,-85.0,-29.0,-33.0,1.0
2022-05-23 15:03:28.359863-07:00,1447.9,908.4,1103.4,1003.9,936.4,1015.1,1960.8,1387.5,3468.6,3472.2,1204.4,920.3,1624.7,3478.3,1392.1,1206.2,3475.9,3478.3,1645.4,2340.0,2925.8,3494.1,1813.9,3486.8,3471.0,3472.2,722.5,901.7,1711.0,1020.2,980.7,873.8,-32.0,4.0,20.0,5217.0,-7253.0,11000.0,-8222.0,-54.0,-60.0,33.0,-2.0,-17.0,34.0,4776.0,-8544.0,-11372.0,6581.0,-32.0,7.0,-7.0,1.0
2022-05-23 15:03:28.387185-07:00,1447.9,906.7,1098.2,985.9,936.4,1015.1,1945.0,1379.4,3468.6,3479.5,1190.3,917.7,1624.7,3478.3,1365.7,1214.2,3477.1,3467.4,1645.4,2340.0,2924.6,3491.7,1820.7,3486.8,3472.2,3474.6,722.5,901.7,1707.2,1012.5,969.6,873.8,0.0,16.0,-4.0,5203.0,-7310.0,11027.0,-8145.0,-317.0,-99.0,-29.0,-4.0,5.0,8.0,4753.0,-8560.0,-11390.0,6544.0,-232.0,16.0,-11.0,1.0
2022-05-23 15:03:28.477335-07:00,1443.3,912.7,1098.2,985.9,926.2,1001.3,1945.0,1379.4,3471.0,3469.8,1190.3,917.7,1619.9,3457.6,1365.7,1214.2,3477.1,3467.4,1662.5,2342.0,2924.6,3491.7,1817.8,3488.0,3472.2,3474.6,719.2,896.6,1707.2,1012.5,967.9,871.3,-12.0,-27.0,9.0,5151.0,-7342.0,11103.0,-8044.0,-282.0,9.0,94.0,3.0,-22.0,13.0,4713.0,-8586.0,-11427.0,6475.0,-152.0,18.0,8.0,1.0
2022-05-23 15:03:28.478701-07:00,1443.3,912.7,1085.1,997.9,926.2,1001.3,1941.0,1345.8,3471.0,3469.8,1185.0,913.5,1619.9,3457.6,1360.3,1204.4,3462.5,3484.4,1662.5,2342.0,2920.1,3492.9,1817.8,3488.0,3467.4,3477.1,719.2,896.6,1702.4,1007.3,967.9,871.3,0.0,0.0,2.0,5137.0,-7310.0,11158.0,-8007.0,-72.0,84.0,112.0,4.0,-8.0,6.0,4701.0,-8602.0,-11432.0,6454.0,-15.0,11.0,29.0,1.0
2022-05-23 15:03:28.687124-07:00,1434.1,908.4,1085.1,997.9,917.7,991.9,1941.0,1345.8,3462.5,3457.6,1185.0,913.5,1622.8,3467.4,1360.3,1204.4,3462.5,3484.4,1663.4,2341.0,2920.1,3492.9,1813.9,3483.2,3467.4,3477.1,713.4,892.4,1702.4,1007.3,955.1,862.1,2.0,13.0,0.0,5111.0,-7290.0,11200.0,-7984.0,-95.0,64.0,22.0,2.0,-4.0,6.0,4695.0,-8615.0,-11431.0,6443.0,-55.0,19.0,15.0,1.0
2022-05-23 15:03:28.688951-07:00,1434.1,908.4,1092.9,979.9,917.7,991.9,1913.4,1330.5,3462.5,3457.6,1181.5,906.7,1622.8,3467.4,1356.7,1209.7,3479.5,3467.4,1663.4,2341.0,2903.2,3489.2,1813.9,3483.2,3478.3,3471.0,713.4,892.4,1702.4,1009.9,955.1,862.1,1.0,-8.0,0.0,5077.0,-7293.0,11224.0,-7968.0,-72.0,48.0,-12.0,2.0,-10.0,9.0,4681.0,-8628.0,-11438.0,6422.0,-58.0,4.0,16.0,1.0
2022-05-23 15:03:28.717005-07:00,1428.6,910.1,1092.9,979.9,924.5,985.0,1913.4,1330.5,3469.8,3467.4,1181.5,906.7,1615.2,3474.6,1356.7,1209.7,3479.5,3467.4,1660.6,2331.6,2903.2,3489.2,1805.2,3490.5,3478.3,3471.0,705.2,883.1,1702.4,1009.9,961.1,875.5,-4.0,7.0,-12.0,5057.0,-7274.0,11234.0,-7984.0,23.0,73.0,16.0,0.0,-5.0,11.0,4678.0,-8633.0,-11436.0,6422.0,21.0,-3.0,11.0,1.0
2022-05-23 15:03:28.717978-07:00,1428.6,910.1,1085.1,976.5,924.5,984.2,1885.0,1332.3,3469.8,3467.4,1172.6,918.6,1615.2,3467.4,1361.2,1206.2,3472.2,3471.0,1667.2,2331.6,2882.9,3489.2,1805.2,3490.5,3475.9,3472.2,707.7,883.1,1709.1,1012.5,961.1,875.5,-8.0,6.0,-2.0,5042.0,-7276.0,11251.0,-7967.0,-85.0,-7.0,-5.0,1.0,-6.0,7.0,4673.0,-8636.0,-11439.0,6416.0,-49.0,8.0,3.0,1.0
2022-05-23 15:03:28.719265-07:00,1427.7,909.3,1087.7,976.5,923.7,984.2,1885.0,1332.3,3466.1,3466.1,1167.4,918.6,1618.1,3467.4,1361.2,1206.2,3472.2,3471.0,1667.2,2331.6,2882.9,3489.2,1806.1,3486.8,3475.9,3472.2,707.7,878.0,1709.1,1008.2,964.5,868.8,1.0,3.0,-12.0,5030.0,-7292.0,11255.0,-7956.0,-26.0,-20.0,-44.0,0.0,-5.0,-1.0,4671.0,-8640.0,-11441.0,6409.0,1.0,10.0,-11.0,1.0
2022-05-23 15:03:28.867198-07:00,1427.7,909.3,1087.7,975.6,923.7,979.0,1888.9,1323.2,3466.1,3466.1,1167.4,909.3,1618.1,3463.7,1341.3,1204.4,3469.8,3473.4,1658.7,2331.6,2902.0,3489.2,1806.1,3486.8,3464.9,3475.9,705.2,878.0,1709.1,1008.2,964.5,868.8,-9.0,1.0,-7.0,5021.0,-7308.0,11242.0,-7965.0,30.0,11.0,-62.0,-1.0,-5.0,11.0,4678.0,-8632.0,-11443.0,6410.0,16.0,-5.0,-28.0,1.0
2022-05-23 15:03:28.868369-07:00,1409.4,885.6,1084.2,975.6,927.1,979.0,1888.9,1323.2,3463.7,3463.7,1169.1,909.3,1616.2,3463.7,1341.3,1204.4,3469.8,3473.4,1658.7,2323.3,2902.0,3490.5,1793.6,3484.4,3464.9,3475.9,705.2,878.0,1709.1,998.7,963.7,873.0,1.0,-13.0,2.0,5026.0,-7337.0,11227.0,-7956.0,-31.0,-89.0,-33.0,1.0,-8.0,4.0,4678.0,-8625.0,-11450.0,6407.0,7.0,-15.0,-13.0,1.0
2022-05-23 15:03:28.869377-07:00,1409.4,885.6,1084.2,994.5,927.1,985.9,1887.9,1316.9,3463.7,3463.7,1169.1,905.0,1616.2,3472.2,1342.2,1199.1,3475.9,3462.5,1665.3,2323.3,2896.4,3490.5,1793.6,3484.4,3477.1,3478.3,698.7,878.0,1706.2,998.7,963.7,873.0,8.0,5.0,14.0,5048.0,-7335.0,11206.0,-7973.0,127.0,7.0,1.0,7.0,-2.0,9.0,4691.0,-8615.0,-11441.0,6428.0,92.0,-2.0,-9.0,1.0
2022-05-23 15:03:28.987650-07:00,1412.2,894.9,1089.5,981.6,928.8,985.9,1887.9,1316.9,3473.4,3468.6,1162.1,909.3,1609.6,3472.2,1342.2,1199.1,3475.9,3462.5,1665.3,2317.0,2898.7,3488.0,1791.6,3488.0,3477.1,3478.3,698.7,878.9,1708.1,1005.6,939.0,872.1,-9.0,1.0,3.0,5048.0,-7323.0,11194.0,-8002.0,-12.0,42.0,-21.0,2.0,-7.0,17.0,4704.0,-8609.0,-11433.0,6441.0,-21.0,11.0,-7.0,1.0
2022-05-23 15:03:28.989347-07:00,1412.2,894.9,1089.5,981.6,921.1,973.1,1854.7,1318.7,3473.4,3468.6,1162.1,909.3,1606.8,3467.4,1344.0,1209.7,3477.1,3475.9,1672.9,2316.0,2898.7,3488.0,1791.6,3488.0,3472.2,3477.1,703.6,873.8,1708.1,1005.6,939.0,872.1,8.0,-15.0,7.0,5030.0,-7325.0,11203.0,-7998.0,-11.0,37.0,1.0,3.0,-8.0,2.0,4701.0,-8619.0,-11434.0,6427.0,-25.0,24.0,21.0,1.0
2022-05-23 15:03:29.017266-07:00,1406.7,888.2,1090.3,988.5,921.1,973.1,1854.7,1318.7,3473.4,3471.0,1167.4,909.3,1606.8,3467.4,1344.0,1209.7,3477.1,3475.9,1672.9,2316.0,2893.0,3488.0,1789.7,3486.8,3472.2,3477.1,703.6,873.8,1710.0,1000.5,962.0,862.9,0.0,8.0,-5.0,5016.0,-7291.0,11216.0,-8020.0,11.0,105.0,45.0,2.0,-3.0,7.0,4709.0,-8625.0,-11423.0,6432.0,21.0,14.0,17.0,1.0
2022-05-23 15:03:29.107311-07:00,1406.7,888.2,1090.3,988.5,928.8,966.2,1839.1,1316.0,3473.4,3471.0,1167.4,909.3,1611.5,3464.9,1343.1,1199.1,3464.9,3469.8,1674.8,2318.1,2893.0,3488.0,1789.7,3486.8,3473.4,3478.3,706.0,874.7,1710.0,1000.5,962.0,862.9,-1.0,0.0,-6.0,4994.0,-7269.0,11235.0,-8027.0,-50.0,49.0,7.0,-2.0,-5.0,5.0,4710.0,-8633.0,-11417.0,6432.0,-22.0,6.0,21.0,1.0
2022-05-23 15:03:29.137189-07:00,1403.0,891.5,1091.2,971.3,928.8,966.2,1839.1,1316.0,3467.4,3473.4,1160.3,907.6,1611.5,3464.9,1343.1,1199.1,3464.9,3469.8,1674.8,2318.1,2895.3,3483.2,1784.9,3477.1,3473.4,3478.3,706.0,874.7,1708.1,1007.3,955.1,865.4,6.0,13.0,-18.0,4971.0,-7270.0,11251.0,-8018.0,-6.0,15.0,-21.0,0.0,3.0,-2.0,4713.0,-8634.0,-11411.0,6440.0,42.0,-9.0,3.0,1.0
2022-05-23 15:03:29.167392-07:00,1400.3,891.5,1091.2,971.3,929.6,962.0,1829.4,1310.6,3461.3,3473.4,1160.3,907.6,1604.0,3468.6,1347.6,1200.9,3473.4,3474.6,1670.1,2299.3,2895.3,3483.2,1784.9,3491.7,3474.6,3471.0,712.6,875.5,1708.1,1007.3,955.1,866.3,-3.0,15.0,-11.0,4955.0,-7298.0,11242.0,-8015.0,-61.0,-21.0,-91.0,-2.0,-5.0,9.0,4713.0,-8628.0,-11414.0,6441.0,-25.0,-12.0,-26.0,1.0
2022-05-23 15:03:29.227730-07:00,1400.3,885.6,1087.7,985.0,929.6,962.0,1829.4,1301.6,3461.3,3477.1,1167.4,898.3,1604.0,3468.6,1347.6,1195.6,3472.2,3474.6,1670.1,2299.3,2875.0,3494.1,1779.1,3491.7,3479.5,3471.0,712.6,875.5,1698.6,998.7,954.3,866.3,3.0,-27.0,7.0,4941.0,-7334.0,11238.0,-7996.0,-19.0,-47.0,-30.0,-2.0,-10.0,2.0,4711.0,-8625.0,-11420.0,6436.0,20.0,-9.0,-1.0,1.0
2022-05-23 15:03:29.287150-07:00,1407.6,885.6,1087.7,985.0,916.9,969.6,1836.2,1301.6,3469.8,3477.1,1167.4,898.3,1611.5,3469.8,1337.7,1195.6,3472.2,3475.9,1674.8,2317.0,2875.0,3494.1,1779.1,3490.5,3479.5,3472.2,695.4,872.1,1698.6,998.7,954.3,871.3,-10.0,9.0,5.0,4952.0,-7317.0,11230.0,-8016.0,59.0,25.0,17.0,1.0,-2.0,13.0,4722.0,-8618.0,-11408.0,6459.0,39.0,-11.0,16.0,1.0
2022-05-23 15:03:29.317131-07:00,1407.6,877.2,1074.7,987.6,916.9,969.6,1836.2,1299.8,3469.8,3469.8,1161.2,904.2,1611.5,3469.8,1337.7,1198.2,3480.7,3475.9,1674.8,2317.0,2867.2,3497.8,1764.6,3490.5,3474.6,3472.2,695.4,872.1,1710.0,995.3,953.4,871.3,0.0,-7.0,10.0,4943.0,-7307.0,11227.0,-8035.0,35.0,64.0,-21.0,6.0,-10.0,10.0,4722.0,-8623.0,-11402.0,6464.0,17.0,9.0,24.0,1.0
2022-05-23 15:03:29.378048-07:00,1404.0,877.2,1074.7,987.6,925.4,962.8,1832.3,1299.8,3473.4,3469.8,1161.2,904.2,1606.8,3461.3,1341.3,1198.2,3480.7,3474.6,1676.7,2307.7,2867.2,3497.8,1764.6,3481.9,3474.6,3467.4,700.3,878.9,1710.0,995.3,953.4,862.9,29.0,-7.0,18.0,4933.0,-7265.0,11199.0,-8117.0,330.0,214.0,-27.0,2.0,6.0,7.0,4746.0,-8614.0,-11371.0,6512.0,244.0,-24.0,37.0,1.0
2022-05-23 15:03:29.497284-07:00,1404.0,879.7,1086.0,979.0,925.4,962.8,1832.3,1284.6,3473.4,3475.9,1167.4,908.4,1606.8,3461.3,1341.3,1197.4,3469.8,3474.6,1676.7,2307.7,2868.3,3491.7,1759.8,3481.9,3477.1,3467.4,700.3,878.9,1711.0,996.2,958.5,862.9,-29.0,36.0,-31.0,4914.0,-7200.0,11177.0,-8217.0,-80.0,116.0,3.0,2.0,-9.0,21.0,4773.0,-8595.0,-11344.0,6564.0,-40.0,-15.0,-6.0,1.0
2022-05-23 15:03:29.499933-07:00,1392.1,871.3,1086.0,979.0,921.1,970.5,1815.8,1284.6,3471.0,3466.1,1167.4,908.4,1604.9,3477.1,1334.1,1197.4,3469.8,3464.9,1680.5,2310.8,2868.3,3491.7,1746.4,3494.1,3477.1,3472.2,692.1,864.6,1711.0,996.2,950.9,863.7,0.0,0.0,-1.0,4896.0,-7203.0,11186.0,-8212.0,91.0,29.0,-28.0,1.0,-4.0,3.0,4769.0,-8600.0,-11347.0,6557.0,61.0,7.0,10.0,1.0
2022-05-23 15:03:29.527347-07:00,1392.1,871.3,1083.4,979.9,921.1,970.5,1811.9,1298.1,3471.0,3466.1,1164.7,909.3,1604.9,3477.1,1336.8,1200.9,3466.1,3474.6,1680.5,2310.8,2860.4,3502.7,1746.4,3494.1,3478.3,3473.4,692.1,864.6,1698.6,1004.8,950.9,863.7,-6.0,1.0,-14.0,4893.0,-7189.0,11175.0,-8242.0,29.0,42.0,10.0,2.0,0.0,4.0,4782.0,-8592.0,-11336.0,6577.0,41.0,-6.0,-6.0,1.0
2022-05-23 15:03:29.617776-07:00,1402.1,867.9,1083.4,979.9,926.2,956.0,1811.9,1298.1,3471.0,3467.4,1164.7,909.3,1609.6,3466.1,1336.8,1200.9,3466.1,3474.6,1660.6,2303.5,2860.4,3502.7,1744.5,3488.0,3478.3,3473.4,690.5,861.2,1698.6,1004.8,953.4,865.4,-6.0,-2.0,8.0,4886.0,-7170.0,11188.0,-8245.0,15.0,47.0,23.0,2.0,-12.0,16.0,4785.0,-8590.0,-11334.0,6581.0,13.0,2.0,1.0,1.0
2022-05-23 15:03:29.618988-07:00,1402.1,867.9,1070.3,984.2,926.2,956.0,1795.5,1281.9,3471.0,3467.4,1170.9,903.4,1609.6,3466.1,1331.4,1203.5,3471.0,3467.4,1660.6,2303.5,2869.4,3494.1,1744.5,3488.0,3461.3,3478.3,690.5,861.2,1705.3,993.6,953.4,865.4,0.0,0.0,3.0,4866.0,-7157.0,11203.0,-8248.0,-85.0,87.0,32.0,1.0,6.0,7.0,4777.0,-8594.0,-11339.0,6570.0,-77.0,1.0,0.0,1.0
2022-05-23 15:03:29.677150-07:00,1383.9,874.7,1070.3,984.2,927.9,964.5,1795.5,1281.9,3469.8,3469.8,1170.9,903.4,1614.3,3473.4,1331.4,1203.5,3471.0,3467.4,1668.2,2307.7,2869.4,3494.1,1738.7,3481.9,3461.3,3478.3,692.9,865.4,1705.3,993.6,949.2,862.1,10.0,-4.0,15.0,4828.0,-7114.0,11253.0,-8239.0,-41.0,181.0,89.0,-2.0,-7.0,9.0,4766.0,-8602.0,-11349.0,6552.0,-22.0,14.0,-4.0,1.0
2022-05-23 15:03:29.737298-07:00,1383.9,874.7,1088.6,984.2,927.9,968.8,1800.3,1289.1,3469.8,3469.8,1167.4,908.4,1614.3,3472.2,1335.9,1195.6,3475.9,3480.7,1656.8,2307.7,2863.8,3494.1,1738.7,3481.9,3471.0,3478.3,691.3,865.4,1710.0,996.2,949.2,862.1,-3.0,15.0,-17.0,4768.0,-7050.0,11292.0,-8276.0,-66.0,230.0,32.0,0.0,4.0,7.0,4771.0,-8605.0,-11348.0,6547.0,-50.0,23.0,-8.0,1.0
2022-05-23 15:03:29.767213-07:00,1380.3,868.8,1093.8,984.2,927.9,968.8,1800.3,1289.1,3472.2,3471.0,1170.0,908.4,1610.5,3472.2,1335.9,1195.6,3475.9,3480.7,1656.8,2308.7,2863.8,3495.3,1729.1,3497.8,3471.0,3478.3,691.3,872.1,1710.0,998.7,952.6,872.1,-20.0,-16.0,-13.0,4700.0,-7002.0,11362.0,-8260.0,-104.0,153.0,99.0,3.0,-15.0,17.0,4755.0,-8620.0,-11359.0,6519.0,-66.0,15.0,20.0,1.0
2022-05-23 15:03:29.829317-07:00,1380.3,868.8,1093.8,989.3,927.9,962.8,1803.2,1296.3,3472.2,3471.0,1170.0,901.7,1610.5,3477.1,1333.2,1202.7,3479.5,3467.4,1672.9,2308.7,2870.5,3495.3,1729.1,3497.8,3484.4,3478.3,696.2,872.1,1698.6,998.7,952.6,872.1,9.0,16.0,-19.0,4689.0,-6970.0,11392.0,-8252.0,4.0,30.0,38.0,6.0,1.0,-3.0,4752.0,-8634.0,-11353.0,6512.0,-3.0,15.0,22.0,1.0
2022-05-23 15:03:29.916860-07:00,1379.4,872.1,1091.2,989.3,927.9,962.8,1803.2,1296.3,3475.9,3469.8,1174.4,901.7,1604.9,3477.1,1333.2,1202.7,3479.5,3467.4,1672.9,2317.0,2870.5,3488.0,1722.4,3494.1,3484.4,3478.3,696.2,868.8,1698.6,997.0,956.0,871.3,-1.0,0.0,-14.0,4684.0,-6970.0,11392.0,-8254.0,14.0,-20.0,-22.0,9.0,-2.0,5.0,4754.0,-8634.0,-11353.0,6512.0,11.0,-6.0,-16.0,1.0
2022-05-23 15:03:29.917757-07:00,1379.4,872.1,1091.2,981.6,927.9,957.7,1780.1,1290.9,3475.9,3469.8,1174.4,913.5,1604.9,3468.6,1328.7,1203.5,3479.5,3478.3,1665.3,2317.0,2864.9,3488.0,1722.4,3494.1,3478.3,3473.4,686.4,868.8,1711.0,997.0,956.0,871.3,6.0,2.0,4.0,4702.0,-6988.0,11372.0,-8257.0,65.0,-55.0,-41.0,2.0,-2.0,4.0,4764.0,-8622.0,-11353.0,6519.0,42.0,-9.0,-25.0,1.0
2022-05-23 15:03:29.977072-07:00,1382.1,868.8,1077.3,978.2,912.7,957.7,1780.1,1290.9,3471.0,3462.5,1175.3,905.0,1608.7,3468.6,1328.7,1203.5,3479.5,3478.3,1665.3,2307.7,2861.6,3490.5,1711.9,3491.7,3478.3,3473.4,686.4,864.6,1704.3,990.2,953.4,866.3,-15.0,3.0,-4.0,4713.0,-7002.0,11340.0,-8282.0,59.0,-38.0,-62.0,-1.0,-6.0,12.0,4779.0,-8609.0,-11350.0,6531.0,26.0,-6.0,-18.0,1.0
2022-05-23 15:03:30.037355-07:00,1382.1,868.8,1077.3,978.2,915.2,952.6,1793.6,1288.2,3471.0,3462.5,1175.3,905.0,1605.8,3478.3,1335.0,1203.5,3485.6,3477.1,1664.4,2308.7,2861.6,3490.5,1711.9,3491.7,3477.1,3477.1,688.0,867.9,1704.3,990.2,953.4,866.3,1.0,-12.0,2.0,4721.0,-7011.0,11323.0,-8293.0,50.0,-5.0,-3.0,-2.0,-8.0,4.0,4784.0,-8605.0,-11348.0,6536.0,39.0,-2.0,-4.0,1.0
2022-05-23 15:03:30.067440-07:00,1377.5,868.8,1072.9,980.7,915.2,952.6,1793.6,1288.2,3469.8,3471.0,1168.2,907.6,1605.8,3478.3,1335.0,1203.5,3485.6,3477.1,1664.4,2308.7,2851.5,3489.2,1711.9,3483.2,3477.1,3477.1,688.0,867.9,1700.5,986.7,952.6,868.8,0.0,-5.0,6.0,4732.0,-6971.0,11309.0,-8339.0,162.0,101.0,55.0,7.0,-8.0,14.0,4803.0,-8594.0,-11334.0,6562.0,147.0,4.0,9.0,1.0
2022-05-23 15:03:30.127300-07:00,1377.5,868.8,1072.9,980.7,922.0,944.1,1782.0,1280.1,3469.8,3471.0,1168.2,907.6,1604.9,3460.1,1331.4,1191.2,3471.0,3464.9,1676.7,2312.9,2851.5,3489.2,1711.9,3483.2,3479.5,3478.3,692.9,864.6,1700.5,986.7,952.6,868.8,-5.0,21.0,-14.0,4747.0,-6932.0,11304.0,-8370.0,28.0,8.0,28.0,4.0,2.0,9.0,4834.0,-8581.0,-11308.0,6600.0,41.0,11.0,9.0,1.0
2022-05-23 15:03:30.187160-07:00,1383.0,850.3,1083.4,984.2,922.0,944.1,1782.0,1280.1,3463.7,3474.6,1166.5,903.4,1604.9,3460.1,1331.4,1191.2,3471.0,3464.9,1676.7,2312.9,2852.6,3490.5,1711.9,3483.2,3479.5,3478.3,692.9,864.6,1697.6,987.6,953.4,862.1,-1.0,3.0,-7.0,4738.0,-6943.0,11306.0,-8363.0,-20.0,-2.0,-37.0,4.0,-4.0,10.0,4833.0,-8582.0,-11309.0,6598.0,-26.0,-2.0,-9.0,1.0
2022-05-23 15:03:30.217332-07:00,1383.0,850.3,1083.4,984.2,926.2,946.6,1784.9,1298.1,3463.7,3474.6,1166.5,903.4,1600.2,3468.6,1328.7,1195.6,3484.4,3469.8,1667.2,2298.3,2852.6,3490.5,1711.9,3483.2,3480.7,3479.5,691.3,863.7,1697.6,987.6,953.4,862.1,0.0,1.0,-4.0,4740.0,-6953.0,11290.0,-8376.0,63.0,-14.0,-37.0,-1.0,-7.0,4.0,4834.0,-8580.0,-11311.0,6597.0,31.0,-5.0,-4.0,1.0
2022-05-23 15:03:30.307360-07:00,1381.2,866.3,1087.7,991.0,926.2,946.6,1784.9,1297.2,3468.6,3467.4,1175.3,905.0,1600.2,3468.6,1328.7,1194.7,3466.1,3469.8,1667.2,2298.3,2857.1,3495.3,1706.2,3481.9,3478.3,3479.5,691.3,863.7,1701.4,992.7,949.2,869.6,-1.0,3.0,-8.0,4742.0,-6967.0,11267.0,-8394.0,23.0,-27.0,-55.0,0.0,0.0,10.0,4840.0,-8577.0,-11307.0,6604.0,-7.0,-6.0,-3.0,1.0
2022-05-23 15:03:30.337350-07:00,1375.7,866.3,1087.7,991.0,923.7,956.0,1784.9,1297.2,3469.8,3467.4,1175.3,905.0,1604.9,3467.4,1329.6,1194.7,3466.1,3473.4,1669.1,2299.3,2857.1,3495.3,1706.2,3489.2,3478.3,3478.3,685.6,865.4,1701.4,992.7,949.2,867.9,0.0,-16.0,-1.0,4745.0,-6984.0,11264.0,-8382.0,-26.0,-34.0,7.0,1.0,-7.0,3.0,4835.0,-8579.0,-11310.0,6598.0,-16.0,-9.0,8.0,1.0
2022-05-23 15:03:30.367208-07:00,1375.7,857.9,1085.1,978.2,923.7,956.0,1784.9,1309.7,3469.8,3466.1,1172.6,909.3,1604.9,3467.4,1329.6,1199.1,3471.0,3473.4,1669.1,2299.3,2871.7,3491.7,1710.0,3489.2,3468.6,3478.3,685.6,865.4,1691.0,997.9,945.8,867.9,-3.0,8.0,4.0,4754.0,-6976.0,11264.0,-8383.0,37.0,11.0,19.0,5.0,-1.0,15.0,4834.0,-8580.0,-11306.0,6604.0,35.0,6.0,11.0,1.0
2022-05-23 15:03:30.427029-07:00,1373.0,857.9,1085.1,978.2,930.5,956.0,1773.3,1309.7,3462.5,3466.1,1172.6,909.3,1596.4,3473.4,1322.3,1199.1,3471.0,3478.3,1670.1,2308.7,2871.7,3491.7,1710.0,3490.5,3468.6,3471.0,686.4,856.2,1691.0,997.9,945.8,860.4,-2.0,15.0,-7.0,4752.0,-6988.0,11254.0,-8389.0,-9.0,-21.0,-67.0,-2.0,-3.0,5.0,4839.0,-8581.0,-11303.0,6604.0,-39.0,19.0,3.0,1.0
2022-05-23 15:03:30.487318-07:00,1373.0,857.9,1071.2,979.9,930.5,956.0,1773.3,1294.5,3462.5,3472.2,1174.4,905.9,1596.4,3473.4,1322.3,1196.5,3475.9,3478.3,1670.1,2308.7,2848.1,3494.1,1706.2,3490.5,3469.8,3471.0,686.4,856.2,1700.5,986.7,953.4,860.4,-6.0,-20.0,-5.0,4743.0,-7003.0,11247.0,-8391.0,34.0,14.0,-13.0,0.0,-7.0,6.0,4833.0,-8586.0,-11308.0,6593.0,15.0,-3.0,6.0,1.0
2022-05-23 15:03:30.517318-07:00,1374.8,857.0,1071.2,979.9,915.2,948.3,1787.8,1294.5,3468.6,3467.4,1174.4,905.9,1594.6,3477.1,1328.7,1196.5,3475.9,3478.3,1671.9,2300.4,2848.1,3494.1,1704.3,3494.1,3469.8,3478.3,683.1,861.2,1700.5,986.7,947.5,862.9,-1.0,9.0,-9.0,4752.0,-6990.0,11237.0,-8410.0,52.0,-1.0,9.0,3.0,-2.0,9.0,4840.0,-8583.0,-11298.0,6609.0,52.0,-11.0,16.0,1.0
2022-05-23 15:03:30.577199-07:00,1374.8,857.0,1077.3,979.0,915.2,948.3,1791.6,1279.2,3468.6,3467.4,1176.2,907.6,1594.6,3477.1,1335.9,1195.6,3463.7,3479.5,1671.9,2300.4,2845.9,3489.2,1704.3,3494.1,3467.4,3488.0,683.1,861.2,1707.2,992.7,947.5,862.9,1.0,-2.0,0.0,4757.0,-6992.0,11228.0,-8417.0,1.0,-16.0,-26.0,10.0,-4.0,8.0,4845.0,-8582.0,-11293.0,6617.0,1.0,-5.0,8.0,1.0
2022-05-23 15:03:30.637300-07:00,1368.5,858.7,1077.3,979.0,918.6,956.8,1791.6,1279.2,3471.0,3473.4,1176.2,907.6,1600.2,3467.4,1335.9,1195.6,3463.7,3479.5,1650.2,2302.5,2845.9,3489.2,1706.2,3486.8,3467.4,3488.0,684.0,866.3,1707.2,992.7,956.8,876.4,4.0,0.0,-6.0,4774.0,-6989.0,11211.0,-8433.0,138.0,-11.0,21.0,0.0,0.0,4.0,4853.0,-8580.0,-11280.0,6634.0,106.0,-10.0,24.0,1.0
2022-05-23 15:03:30.667189-07:00,1368.5,858.7,1079.9,976.5,918.6,956.8,1815.8,1299.0,3471.0,3473.4,1186.7,900.8,1600.2,3467.4,1342.2,1196.5,3467.4,3469.8,1650.2,2302.5,2839.2,3491.7,1706.2,3486.8,3468.6,3473.4,684.0,866.3,1703.3,997.0,956.8,876.4,-3.0,11.0,-6.0,4795.0,-6974.0,11190.0,-8461.0,24.0,-5.0,-35.0,-3.0,-11.0,10.0,4864.0,-8574.0,-11265.0,6660.0,23.0,-9.0,10.0,1.0
2022-05-23 15:03:30.727232-07:00,1368.5,861.2,1079.9,976.5,920.3,952.6,1815.8,1299.0,3469.8,3468.6,1186.7,900.8,1602.1,3474.6,1342.2,1196.5,3467.4,3469.8,1669.1,2305.6,2839.2,3491.7,1703.3,3486.8,3468.6,3473.4,684.0,873.0,1703.3,997.0,958.5,847.0,5.0,-70.0,41.0,4788.0,-6980.0,11175.0,-8481.0,284.0,79.0,-19.0,-7.0,-12.0,-10.0,4864.0,-8577.0,-11241.0,6697.0,204.0,-43.0,106.0,1.0
2022-05-23 15:03:30.787243-07:00,1368.5,861.2,1091.2,974.8,920.3,1006.5,1993.5,1353.1,3469.8,3468.6,1202.7,912.7,1602.1,3477.1,1460.8,1215.1,3473.4,3474.6,1666.3,2305.6,2852.6,3492.9,1703.3,3486.8,3478.3,3472.2,700.3,873.0,1704.3,1000.5,958.5,847.0,-30.0,66.0,6.0,4799.0,-6855.0,11114.0,-8654.0,502.0,433.0,40.0,-1.0,18.0,24.0,4906.0,-8553.0,-11156.0,6839.0,421.0,-80.0,125.0,1.0
2022-05-23 15:03:30.817719-07:00,1368.5,857.9,1102.5,974.8,919.4,1006.5,1993.5,1353.1,3467.4,3462.5,1311.5,912.7,1604.9,3477.1,1460.8,1215.1,3473.4,3474.6,1666.3,2318.1,2852.6,3486.8,1710.0,3492.9,3478.3,3472.2,700.3,883.1,1704.3,1036.6,981.6,868.8,-63.0,10.0,-12.0,4721.0,-6801.0,11084.0,-8777.0,-108.0,-33.0,-357.0,24.0,-38.0,43.0,4868.0,-8572.0,-11143.0,6862.0,-298.0,-33.0,77.0,1.0
2022-05-23 15:03:30.937858-07:00,1368.5,857.9,1102.5,991.0,919.4,1132.2,2036.4,1520.8,3467.4,3462.5,1311.5,951.7,1604.9,3478.3,1720.5,1255.1,3473.4,3472.2,1665.3,2318.1,2893.0,3486.8,1710.0,3492.9,3474.6,3479.5,714.2,883.1,1700.5,1036.6,981.6,868.8,72.0,-17.0,-75.0,4700.0,-6946.0,11006.0,-8774.0,-240.0,-227.0,-173.0,74.0,-25.0,56.0,4808.0,-8597.0,-11175.0,6821.0,-181.0,-83.0,-19.0,1.0
2022-05-23 15:03:30.941566-07:00,1366.6,867.9,1097.3,991.0,921.1,1132.2,2036.4,1520.8,3467.4,3471.0,1452.5,951.7,1606.8,3478.3,1720.5,1255.1,3473.4,3472.2,1665.3,2337.9,2893.0,3491.7,1699.5,3486.8,3474.6,3479.5,714.2,930.5,1700.5,1037.5,985.9,869.6,-13.0,39.0,-52.0,4845.0,-7077.0,10863.0,-8768.0,882.0,-787.0,-180.0,-28.0,-2.0,-4.0,4834.0,-8564.0,-11149.0,6888.0,499.0,-43.0,-9.0,1.0
2022-05-23 15:03:30.997251-07:00,1366.6,867.9,1097.3,993.6,921.1,1143.6,1991.5,1521.8,3467.4,3471.0,1452.5,985.0,1606.8,3468.6,1670.1,1231.9,3478.3,3462.5,1648.3,2337.9,2928.0,3491.7,1699.5,3486.8,3472.2,3473.4,724.1,930.5,1706.2,1037.5,985.9,869.6,158.0,113.0,-34.0,5227.0,-7237.0,10494.0,-8867.0,463.0,-773.0,-227.0,-31.0,73.0,-90.0,4951.0,-8457.0,-11069.0,7063.0,420.0,-143.0,-99.0,1.0
2022-05-23 15:03:31.027240-07:00,1369.4,867.9,1090.3,990.2,929.6,1143.6,1991.5,1521.8,3474.6,3471.0,1437.8,980.7,1611.5,3468.6,1670.1,1231.9,3478.3,3462.5,1648.3,2376.6,2919.0,3492.9,1687.2,3497.8,3472.2,3473.4,724.1,928.8,1697.6,1031.4,979.9,889.0,-96.0,-125.0,100.0,5329.0,-7323.0,10399.0,-8847.0,259.0,-90.0,162.0,4.0,-89.0,138.0,4969.0,-8352.0,-11075.0,7164.0,364.0,-163.0,-68.0,1.0
2022-05-23 15:03:31.297250-07:00,1369.4,867.9,1090.3,990.2,915.2,1150.6,1981.6,1511.5,3474.6,3471.0,1437.8,980.7,1606.8,3468.6,1639.8,1221.3,3478.3,3479.5,1642.6,2354.6,2919.0,3492.9,1687.2,3497.8,3471.0,3472.2,728.2,918.6,1697.6,1031.4,979.9,889.0,13.0,102.0,35.0,5515.0,-7240.0,10306.0,-8911.0,323.0,-171.0,135.0,13.0,36.0,0.0,5068.0,-8290.0,-10981.0,7310.0,334.0,59.0,38.0,1.0
2022-05-23 15:03:31.387282-07:00,1354.9,867.9,1093.8,989.3,915.2,1150.6,1981.6,1511.5,3462.5,3478.3,1433.2,972.2,1606.8,3468.6,1639.8,1221.3,3478.3,3479.5,1642.6,2354.6,2916.7,3494.1,1684.3,3491.7,3471.0,3472.2,728.2,918.6,1720.5,1027.1,979.0,883.9,-7.0,-30.0,13.0,5545.0,-7217.0,10287.0,-8932.0,-47.0,150.0,-37.0,6.0,-13.0,26.0,5091.0,-8298.0,-10966.0,7309.0,-11.0,56.0,8.0,1.0
2022-05-23 15:03:31.389388-07:00,1354.9,867.9,1093.8,989.3,924.5,1134.0,1950.9,1478.3,3462.5,3478.3,1433.2,972.2,1611.5,3471.0,1619.0,1207.1,3481.9,3467.4,1634.1,2338.9,2916.7,3494.1,1684.3,3491.7,3474.6,3467.4,728.2,909.3,1720.5,1027.1,979.0,883.9,-4.0,-3.0,-22.0,5530.0,-7180.0,10300.0,-8956.0,75.0,49.0,121.0,5.0,-7.0,9.0,5124.0,-8308.0,-10932.0,7324.0,99.0,66.0,41.0,1.0
2022-05-23 15:03:31.417266-07:00,1358.5,867.9,1099.0,986.7,924.5,1134.0,1950.9,1478.3,3471.0,3472.2,1422.2,981.6,1611.5,3471.0,1619.0,1207.1,3481.9,3467.4,1634.1,2338.9,2898.7,3489.2,1674.8,3488.0,3474.6,3467.4,728.2,909.3,1701.4,1043.5,989.3,885.6,10.0,34.0,-26.0,5552.0,-7131.0,10313.0,-8967.0,-10.0,84.0,22.0,0.0,15.0,-10.0,5140.0,-8316.0,-10919.0,7325.0,-28.0,20.0,4.0,1.0
2022-05-23 15:03:31.418442-07:00,1358.5,867.9,1099.0,986.7,918.6,1137.5,1952.9,1481.0,3471.0,3472.2,1422.2,981.6,1618.1,3471.0,1609.6,1216.0,3467.4,3475.9,1630.3,2338.9,2898.7,3489.2,1674.8,3488.0,3474.6,3475.9,721.6,914.4,1701.4,1043.5,989.3,885.6,-19.0,-32.0,-23.0,5541.0,-7115.0,10319.0,-8979.0,115.0,-25.0,54.0,-8.0,-11.0,12.0,5151.0,-8314.0,-10905.0,7339.0,136.0,14.0,25.0,1.0
2022-05-23 15:03:31.419239-07:00,1354.0,837.7,1096.4,1003.0,918.6,1137.5,1952.9,1484.7,3473.4,3462.5,1409.4,991.9,1618.1,3471.0,1609.6,1216.8,3472.2,3475.9,1630.3,2338.9,2906.6,3491.7,1669.1,3481.9,3478.3,3475.9,721.6,914.4,1704.3,1060.8,985.9,880.6,3.0,-6.0,-20.0,5649.0,-7052.0,10270.0,-9018.0,372.0,-93.0,173.0,0.0,-2.0,-1.0,5215.0,-8282.0,-10840.0,7426.0,383.0,5.0,13.0,1.0
2022-05-23 15:03:31.420552-07:00,1344.9,837.7,1096.4,1003.0,922.8,1120.0,1951.9,1484.7,3485.6,3462.5,1409.4,991.9,1619.9,3472.2,1606.8,1216.8,3472.2,3475.9,1634.1,2338.9,2906.6,3491.7,1669.1,3486.8,3478.3,3469.8,713.4,903.4,1704.3,1060.8,985.9,888.2,-10.0,-23.0,31.0,5818.0,-7036.0,10152.0,-9056.0,42.0,-74.0,0.0,1.0,-12.0,28.0,5277.0,-8210.0,-10797.0,7525.0,77.0,-39.0,-25.0,1.0
2022-05-23 15:03:31.477189-07:00,1347.6,860.4,1104.3,1013.3,922.8,1120.0,1940.0,1500.4,3478.3,3477.1,1396.7,987.6,1612.4,3473.4,1599.3,1205.3,3472.2,3480.7,1635.0,2344.1,2895.3,3481.9,1666.3,3488.0,3478.3,3485.6,715.9,922.8,1703.3,1050.4,999.6,878.0,-13.0,14.0,22.0,5845.0,-7025.0,10143.0,-9057.0,23.0,-10.0,70.0,0.0,-4.0,27.0,5293.0,-8198.0,-10781.0,7549.0,30.0,16.0,12.0,1.0
2022-05-23 15:03:31.537286-07:00,1347.6,860.4,1106.0,1002.2,922.8,1120.0,1940.0,1477.3,3478.3,3475.9,1397.6,981.6,1612.4,3473.4,1599.3,1213.3,3475.9,3480.7,1635.0,2344.1,2890.8,3497.8,1657.7,3488.0,3478.3,3485.6,715.9,922.8,1697.6,1053.9,1004.8,878.0,-2.0,3.0,9.0,5837.0,-7013.0,10170.0,-9042.0,-84.0,86.0,1.0,5.0,-6.0,19.0,5288.0,-8216.0,-10782.0,7532.0,-64.0,43.0,21.0,1.0
2022-05-23 15:03:31.567552-07:00,1346.7,847.8,1106.0,1002.2,920.3,1126.1,1930.2,1477.3,3467.4,3467.4,1397.6,981.6,1614.3,3466.1,1600.2,1213.3,3475.9,3473.4,1630.3,2335.8,2890.8,3497.8,1648.3,3490.5,3478.3,3472.2,702.8,905.0,1697.6,1053.9,999.6,877.2,7.0,10.0,-9.0,5797.0,-7001.0,10194.0,-9050.0,-66.0,119.0,-32.0,0.0,7.0,2.0,5286.0,-8237.0,-10785.0,7504.0,-83.0,41.0,7.0,1.0
2022-05-23 15:03:31.657301-07:00,1346.7,847.8,1106.9,1012.5,920.3,1126.1,1934.1,1476.4,3467.4,3467.4,1382.1,979.9,1614.3,3466.1,1607.7,1216.8,3474.6,3477.1,1630.3,2335.8,2890.8,3484.4,1648.3,3490.5,3479.5,3484.4,702.8,905.0,1708.1,1054.8,999.6,877.2,-15.0,-5.0,-17.0,5744.0,-6983.0,10227.0,-9060.0,8.0,100.0,-5.0,3.0,-4.0,17.0,5284.0,-8249.0,-10791.0,7485.0,-17.0,27.0,6.0,1.0
2022-05-23 15:03:31.658581-07:00,1354.0,850.3,1106.9,1012.5,922.0,1113.9,1934.1,1476.4,3466.1,3472.2,1382.1,979.9,1607.7,3469.8,1607.7,1216.8,3474.6,3477.1,1627.5,2334.7,2890.8,3484.4,1653.0,3497.8,3479.5,3484.4,714.2,891.5,1708.1,1054.8,1004.8,872.1,-1.0,0.0,-10.0,5718.0,-6975.0,10241.0,-9067.0,-38.0,36.0,-38.0,0.0,0.0,5.0,5280.0,-8259.0,-10797.0,7467.0,-53.0,19.0,-4.0,1.0
2022-05-23 15:03:31.927123-07:00,1354.0,850.3,1117.4,1012.5,922.0,1113.9,1917.4,1481.0,3466.1,3472.2,1383.9,986.7,1607.7,3469.8,1592.7,1224.8,3471.0,3471.0,1627.5,2334.7,2881.8,3490.5,1653.0,3497.8,3477.1,3477.1,714.2,891.5,1700.5,1056.5,1004.8,872.1,4.0,-10.0,-5.0,5693.0,-6976.0,10253.0,-9069.0,-21.0,72.0,2.0,0.0,-4.0,6.0,5275.0,-8266.0,-10803.0,7456.0,-21.0,2.0,9.0,1.0
2022-05-23 15:03:31.957041-07:00,1345.8,844.4,1117.4,1012.5,927.9,1102.5,1917.4,1481.0,3464.9,3468.6,1383.9,986.7,1611.5,3472.2,1592.7,1224.8,3471.0,3471.0,1627.5,2329.5,2881.8,3490.5,1648.3,3488.0,3477.1,3477.1,705.2,893.2,1700.5,1056.5,995.3,875.5,-10.0,3.0,-9.0,5676.0,-6960.0,10271.0,-9072.0,-20.0,15.0,21.0,2.0,0.0,17.0,5272.0,-8269.0,-10801.0,7457.0,-15.0,11.0,20.0,1.0
2022-05-23 15:03:32.047814-07:00,1345.8,844.4,1117.4,1007.3,927.9,1102.5,1913.4,1465.4,3464.9,3468.6,1384.8,982.5,1611.5,3472.2,1592.7,1225.7,3467.4,3475.9,1627.5,2329.5,2881.8,3492.9,1648.3,3488.0,3474.6,3474.6,705.2,893.2,1706.2,1051.3,995.3,875.5,14.0,9.0,-1.0,5672.0,-6959.0,10281.0,-9063.0,3.0,45.0,-15.0,2.0,1.0,-1.0,5267.0,-8277.0,-10802.0,7449.0,-23.0,14.0,-13.0,1.0
2022-05-23 15:03:32.048961-07:00,1354.0,855.3,1122.6,1007.3,920.3,1104.3,1913.4,1465.4,3468.6,3460.1,1382.1,982.5,1607.7,3469.8,1592.7,1225.7,3467.4,3475.9,1624.7,2321.2,2881.8,3497.8,1651.1,3492.9,3474.6,3474.6,714.2,888.2,1706.2,1053.0,996.2,873.0,-15.0,-25.0,-7.0,5649.0,-6945.0,10287.0,-9081.0,54.0,60.0,14.0,-3.0,-10.0,21.0,5268.0,-8276.0,-10805.0,7446.0,38.0,2.0,3.0,1.0
2022-05-23 15:03:32.050315-07:00,1354.0,855.3,1122.6,1014.2,920.3,1100.8,1904.6,1465.4,3468.6,3460.1,1382.1,971.3,1607.7,3471.0,1596.4,1220.4,3473.4,3472.2,1619.0,2321.2,2879.5,3497.8,1651.1,3492.9,3475.9,3469.8,707.7,888.2,1706.2,1053.0,996.2,873.0,-5.0,23.0,-19.0,5657.0,-6928.0,10281.0,-9095.0,-11.0,-15.0,-14.0,0.0,5.0,3.0,5276.0,-8271.0,-10798.0,7456.0,-27.0,-4.0,-3.0,1.0
2022-05-23 15:03:32.051413-07:00,1350.3,844.4,1127.9,1014.2,922.8,1100.8,1904.6,1465.4,3474.6,3466.1,1366.6,971.3,1607.7,3471.0,1596.4,1220.4,3473.4,3472.2,1619.0,2327.4,2879.5,3485.6,1647.3,3485.6,3475.9,3469.8,707.7,890.7,1706.2,1051.3,991.9,871.3,0.0,-3.0,-8.0,5653.0,-6940.0,10279.0,-9092.0,10.0,-13.0,-7.0,3.0,3.0,4.0,5271.0,-8273.0,-10803.0,7450.0,4.0,-13.0,-10.0,1.0
2022-05-23 15:03:32.077219-07:00,1350.3,844.4,1127.9,1028.0,922.8,1095.6,1907.5,1460.8,3474.6,3466.1,1366.6,977.3,1607.7,3472.2,1597.4,1231.0,3475.9,3473.4,1622.8,2327.4,2879.5,3485.6,1647.3,3485.6,3477.1,3467.4,698.7,890.7,1698.6,1051.3,991.9,871.3,-5.0,6.0,-3.0,5658.0,-6939.0,10274.0,-9095.0,48.0,-24.0,-6.0,6.0,-3.0,18.0,5273.0,-8264.0,-10805.0,7456.0,26.0,-12.0,-17.0,1.0
2022-05-23 15:03:32.078176-07:00,1350.3,844.4,1127.9,1028.0,922.8,1095.6,1907.5,1460.8,3474.6,3466.1,1366.6,977.3,1607.7,3472.2,1597.4,1231.0,3475.9,3473.4,1622.8,2327.4,2879.5,3485.6,1647.3,3485.6,3477.1,3467.4,698.7,890.7,1698.6,1051.3,991.9,871.3,-5.0,6.0,-3.0,5658.0,-6939.0,10274.0,-9095.0,48.0,-24.0,-6.0,6.0,-3.0,18.0,5273.0,-8264.0,-10805.0,7456.0,26.0,-12.0,-17.0,1.0
2022-05-23 15:03:32.107450-07:00,1335.9,857.9,1124.4,1020.2,917.7,1094.7,1922.3,1447.9,3473.4,3462.5,1365.7,978.2,1609.6,3463.7,1586.1,1227.5,3478.3,3473.4,1609.6,2331.6,2872.8,3488.0,1637.9,3490.5,3478.3,3472.2,708.5,893.2,1698.6,1057.3,996.2,890.7,0.0,-5.0,0.0,5660.0,-6954.0,10260.0,-9097.0,8.0,21.0,10.0,-1.0,-3.0,11.0,5275.0,-8256.0,-10812.0,7453.0,11.0,2.0,0.0,1.0
2022-05-23 15:03:32.167588-07:00,1334.1,844.4,1118.2,1014.2,917.7,1094.7,1922.3,1447.9,3473.4,3468.6,1356.7,983.3,1609.6,3463.7,1586.1,1227.5,3478.3,3473.4,1609.6,2331.6,2849.2,3489.2,1649.2,3490.5,3478.3,3472.2,708.5,893.2,1699.5,1051.3,997.0,878.0,-2.0,4.0,-9.0,5661.0,-6948.0,10259.0,-9103.0,2.0,-23.0,-18.0,7.0,-2.0,10.0,5278.0,-8253.0,-10810.0,7457.0,-9.0,-3.0,-2.0,1.0
2022-05-23 15:03:32.317075-07:00,1334.1,844.4,1118.2,1014.2,919.4,1091.2,1902.6,1464.4,3473.4,3468.6,1356.7,983.3,1606.8,3462.5,1579.6,1223.9,3475.9,3469.8,1617.1,2323.3,2849.2,3489.2,1649.2,3490.5,3488.0,3473.4,719.2,889.8,1699.5,1051.3,997.0,878.0,1.0,-1.0,-5.0,5661.0,-6954.0,10257.0,-9101.0,16.0,-4.0,5.0,4.0,-2.0,12.0,5279.0,-8253.0,-10811.0,7456.0,15.0,-11.0,-11.0,1.0
2022-05-23 15:03:32.318438-07:00,1349.4,836.1,1119.1,1008.2,919.4,1091.2,1902.6,1464.4,3467.4,3467.4,1360.3,973.1,1606.8,3462.5,1579.6,1223.9,3475.9,3469.8,1617.1,2323.3,2870.5,3486.8,1639.8,3486.8,3488.0,3473.4,719.2,889.8,1701.4,1032.3,998.7,878.9,-12.0,-1.0,-3.0,5661.0,-6956.0,10257.0,-9100.0,-12.0,-10.0,-24.0,0.0,-10.0,17.0,5277.0,-8248.0,-10816.0,7455.0,-20.0,-6.0,-12.0,1.0
2022-05-23 15:03:32.407384-07:00,1349.4,836.1,1119.1,1008.2,920.3,1103.4,1904.6,1465.4,3467.4,3467.4,1360.3,973.1,1604.9,3467.4,1583.3,1238.2,3475.9,3471.0,1614.3,2329.5,2870.5,3486.8,1639.8,3486.8,3483.2,3478.3,699.5,889.8,1701.4,1032.3,998.7,878.9,-3.0,-3.0,-6.0,5658.0,-6965.0,10252.0,-9100.0,5.0,0.0,-14.0,0.0,1.0,8.0,5278.0,-8246.0,-10820.0,7451.0,-4.0,-1.0,-10.0,1.0
2022-05-23 15:03:32.409058-07:00,1337.7,846.1,1112.1,1020.2,920.3,1103.4,1904.6,1440.5,3479.5,3474.6,1347.6,979.0,1604.9,3467.4,1583.3,1225.7,3475.9,3471.0,1614.3,2329.5,2886.3,3486.8,1640.7,3494.1,3467.4,3478.3,699.5,889.8,1704.3,1042.6,993.6,882.3,6.0,2.0,5.0,5655.0,-6968.0,10249.0,-9104.0,3.0,33.0,-18.0,1.0,-4.0,6.0,5280.0,-8243.0,-10821.0,7451.0,-7.0,3.0,-6.0,1.0
2022-05-23 15:03:32.410094-07:00,1331.4,846.1,1112.1,1020.2,921.1,1090.3,1896.7,1440.5,3467.4,3474.6,1347.6,979.0,1607.7,3467.4,1579.6,1225.7,3475.9,3467.4,1624.7,2327.4,2886.3,3486.8,1640.7,3490.5,3467.4,3484.4,704.4,883.1,1704.3,1042.6,993.6,874.7,-10.0,0.0,-8.0,5640.0,-6966.0,10250.0,-9113.0,-22.0,6.0,-17.0,4.0,-3.0,16.0,5278.0,-8244.0,-10823.0,7448.0,-23.0,6.0,7.0,1.0
2022-05-23 15:03:32.497861-07:00,1331.4,842.8,1120.0,1021.1,921.1,1090.3,1896.7,1452.5,3467.4,3468.6,1353.1,977.3,1607.7,3467.4,1579.6,1228.4,3479.5,3467.4,1624.7,2327.4,2861.6,3496.6,1644.5,3490.5,3480.7,3484.4,704.4,883.1,1706.2,1043.5,989.3,874.7,1.0,3.0,-7.0,5633.0,-6971.0,10257.0,-9105.0,-13.0,7.0,-7.0,3.0,0.0,5.0,5273.0,-8247.0,-10829.0,7440.0,-19.0,9.0,2.0,1.0
2022-05-23 15:03:32.557395-07:00,1330.5,842.8,1120.0,1021.1,929.6,1090.3,1912.4,1452.5,3464.9,3468.6,1353.1,977.3,1614.3,3461.3,1578.6,1228.4,3479.5,3468.6,1618.1,2301.4,2861.6,3496.6,1644.5,3497.8,3480.7,3473.4,701.1,889.0,1706.2,1043.5,989.3,871.3,-2.0,1.0,-7.0,5625.0,-6976.0,10256.0,-9108.0,2.0,6.0,-22.0,0.0,0.0,10.0,5272.0,-8247.0,-10831.0,7437.0,-5.0,0.0,-12.0,1.0
2022-05-23 15:03:32.558653-07:00,1330.5,847.8,1099.0,1014.2,929.6,1090.3,1912.4,1442.4,3464.9,3477.1,1348.5,984.2,1614.3,3461.3,1578.6,1240.8,3469.8,3468.6,1618.1,2301.4,2861.6,3486.8,1646.4,3497.8,3472.2,3473.4,701.1,889.0,1702.4,1041.8,994.5,871.3,-1.0,0.0,-7.0,5627.0,-6984.0,10251.0,-9106.0,0.0,-41.0,-9.0,0.0,3.0,2.0,5273.0,-8246.0,-10832.0,7437.0,-11.0,-2.0,-9.0,1.0
2022-05-23 15:03:32.677219-07:00,1329.6,847.8,1099.0,1014.2,918.6,1086.0,1899.7,1442.4,3466.1,3477.1,1348.5,984.2,1604.9,3462.5,1577.7,1240.8,3469.8,3480.7,1619.0,2325.4,2861.6,3486.8,1646.4,3497.8,3472.2,3475.9,709.3,883.1,1702.4,1041.8,994.5,883.9,-11.0,-4.0,-9.0,5635.0,-6992.0,10248.0,-9097.0,9.0,-41.0,18.0,0.0,5.0,4.0,5273.0,-8245.0,-10833.0,7437.0,18.0,-8.0,-5.0,1.0
2022-05-23 15:03:32.797230-07:00,1329.6,844.4,1097.3,1011.6,918.6,1086.0,1906.6,1450.6,3466.1,3467.4,1357.6,973.9,1604.9,3462.5,1568.3,1223.0,3469.8,3475.9,1619.0,2325.4,2858.2,3497.8,1637.9,3497.8,3480.7,3472.2,709.3,883.1,1702.4,1040.9,985.9,883.9,-6.0,-12.0,-4.0,5644.0,-7001.0,10247.0,-9087.0,-9.0,-17.0,1.0,2.0,-8.0,11.0,5271.0,-8239.0,-10836.0,7440.0,5.0,-17.0,-13.0,1.0
2022-05-23 15:03:32.858160-07:00,1325.0,840.3,1097.3,1011.6,930.5,1098.2,1906.6,1450.6,3469.8,3474.6,1357.6,973.9,1604.9,3469.8,1568.3,1223.0,3469.8,3475.9,1617.1,2334.7,2858.2,3497.8,1641.6,3479.5,3480.7,3472.2,697.0,893.2,1702.4,1040.9,986.7,882.3,0.0,4.0,4.0,5656.0,-6997.0,10243.0,-9087.0,27.0,-12.0,17.0,5.0,0.0,15.0,5275.0,-8232.0,-10832.0,7451.0,20.0,-9.0,-4.0,1.0
2022-05-23 15:03:32.917181-07:00,1325.0,840.3,1094.7,1003.9,930.5,1098.2,1897.7,1458.0,3469.8,3474.6,1358.5,982.5,1604.9,3469.8,1582.4,1216.8,3475.9,3472.2,1617.1,2334.7,2861.6,3495.3,1641.6,3479.5,3467.4,3480.7,697.0,893.2,1702.4,1037.5,986.7,882.3,3.0,10.0,2.0,5659.0,-6995.0,10240.0,-9090.0,-8.0,6.0,-24.0,1.0,2.0,7.0,5276.0,-8231.0,-10832.0,7451.0,-17.0,9.0,-10.0,1.0
2022-05-23 15:03:32.977921-07:00,1336.8,839.4,1094.7,1003.9,917.7,1086.0,1897.7,1458.0,3464.9,3457.6,1358.5,982.5,1604.9,3466.1,1582.4,1216.8,3475.9,3472.2,1635.0,2324.3,2861.6,3495.3,1636.0,3492.9,3467.4,3480.7,697.9,888.2,1702.4,1037.5,986.7,878.0,-8.0,-1.0,-15.0,5651.0,-6999.0,10240.0,-9092.0,11.0,-4.0,-8.0,0.0,-6.0,14.0,5276.0,-8232.0,-10834.0,7447.0,-4.0,8.0,3.0,1.0
2022-05-23 15:03:32.980378-07:00,1336.8,839.4,1093.8,999.6,917.7,1086.0,1906.6,1461.7,3464.9,3457.6,1351.2,971.3,1604.9,3466.1,1581.4,1227.5,3467.4,3472.2,1635.0,2324.3,2849.2,3496.6,1636.0,3492.9,3467.4,3471.0,697.9,888.2,1697.6,1046.1,986.7,878.0,0.0,-2.0,-18.0,5658.0,-7008.0,10229.0,-9092.0,8.0,-79.0,-31.0,5.0,4.0,5.0,5278.0,-8231.0,-10832.0,7449.0,-5.0,-9.0,-3.0,1.0
2022-05-23 15:03:32.981288-07:00,1322.3,845.3,1091.2,999.6,917.7,1086.0,1906.6,1461.7,3472.2,3471.0,1348.5,971.3,1608.7,3469.8,1581.4,1227.5,3467.4,3472.2,1619.9,2322.2,2849.2,3492.9,1634.1,3492.9,3467.4,3471.0,698.7,892.4,1697.6,1034.0,985.9,871.3,15.0,-7.0,3.0,5683.0,-7045.0,10201.0,-9079.0,11.0,-129.0,-47.0,4.0,4.0,-3.0,5276.0,-8225.0,-10835.0,7453.0,-10.0,-26.0,-16.0,1.0
2022-05-23 15:03:33.037300-07:00,1322.3,845.3,1091.2,991.0,917.7,1086.0,1886.9,1458.0,3472.2,3471.0,1348.5,973.9,1608.7,3477.1,1577.7,1223.9,3473.4,3467.4,1619.9,2322.2,2861.6,3492.9,1634.1,3492.9,3473.4,3478.3,699.5,892.4,1694.8,1034.0,985.9,871.3,-4.0,-22.0,23.0,5698.0,-7070.0,10187.0,-9066.0,1.0,-33.0,34.0,11.0,-14.0,26.0,5273.0,-8217.0,-10840.0,7457.0,9.0,-12.0,5.0,1.0
2022-05-23 15:03:33.039843-07:00,1331.4,841.9,1076.4,991.0,916.0,1086.0,1886.9,1458.0,3472.2,3461.3,1345.8,973.9,1604.9,3477.1,1577.7,1223.9,3473.4,3467.4,1619.9,2333.7,2861.6,3481.9,1633.1,3481.9,3473.4,3478.3,699.5,887.3,1694.8,1029.7,984.2,879.7,-6.0,8.0,12.0,5710.0,-7058.0,10188.0,-9067.0,-26.0,33.0,8.0,2.0,-5.0,20.0,5276.0,-8221.0,-10835.0,7458.0,-33.0,25.0,20.0,1.0
2022-05-23 15:03:33.067209-07:00,1331.4,841.9,1076.4,982.5,916.0,1081.6,1914.4,1444.2,3472.2,3461.3,1345.8,977.3,1604.9,3462.5,1570.2,1215.1,3467.4,3473.4,1619.9,2333.7,2879.5,3481.9,1633.1,3481.9,3469.8,3467.4,692.9,887.3,1705.3,1029.7,984.2,879.7,-4.0,0.0,-16.0,5693.0,-7059.0,10202.0,-9061.0,-35.0,12.0,-18.0,0.0,0.0,6.0,5273.0,-8239.0,-10834.0,7442.0,-41.0,30.0,18.0,1.0
2022-05-23 15:03:33.157329-07:00,1321.4,843.6,1073.8,982.5,925.4,1081.6,1914.4,1444.2,3475.9,3464.9,1348.5,977.3,1610.5,3462.5,1570.2,1215.1,3467.4,3473.4,1619.9,2320.1,2879.5,3486.8,1633.1,3486.8,3469.8,3467.4,692.9,898.3,1705.3,1031.4,974.8,873.0,0.0,-3.0,-17.0,5683.0,-7066.0,10206.0,-9058.0,6.0,24.0,-7.0,-1.0,1.0,0.0,5271.0,-8246.0,-10834.0,7434.0,0.0,-1.0,1.0,1.0
2022-05-23 15:03:33.159333-07:00,1321.4,843.6,1073.8,975.6,926.2,1080.8,1889.9,1448.8,3475.9,3464.9,1348.5,969.6,1600.2,3472.2,1570.2,1229.3,3479.5,3472.2,1611.5,2308.7,2851.5,3486.8,1633.1,3486.8,3480.7,3475.9,685.6,891.5,1692.9,1031.4,974.8,873.0,-4.0,4.0,-5.0,5680.0,-7065.0,10209.0,-9057.0,9.0,-1.0,0.0,2.0,0.0,8.0,5271.0,-8246.0,-10834.0,7434.0,0.0,-7.0,-1.0,1.0
2022-05-23 15:03:33.217231-07:00,1329.6,841.9,1072.9,977.3,926.2,1080.8,1889.9,1448.8,3457.6,3473.4,1366.6,973.1,1600.2,3472.2,1570.2,1229.3,3479.5,3472.2,1611.5,2308.7,2851.5,3495.3,1641.6,3488.0,3480.7,3475.9,685.6,891.5,1704.3,1035.7,977.3,867.9,0.0,1.0,6.0,5686.0,-7064.0,10206.0,-9057.0,21.0,-15.0,25.0,4.0,0.0,9.0,5275.0,-8244.0,-10832.0,7438.0,16.0,1.0,6.0,1.0
2022-05-23 15:03:33.307412-07:00,1329.6,841.9,1072.9,977.3,921.1,1074.7,1904.6,1439.6,3457.6,3473.4,1366.6,973.1,1606.8,3471.0,1566.5,1228.4,3472.2,3466.1,1604.0,2321.2,2851.5,3495.3,1641.6,3488.0,3488.0,3473.4,684.0,892.4,1704.3,1035.7,977.3,867.9,-3.0,9.0,0.0,5693.0,-7058.0,10207.0,-9057.0,-13.0,6.0,-2.0,3.0,1.0,14.0,5276.0,-8243.0,-10832.0,7438.0,-19.0,3.0,5.0,1.0
2022-05-23 15:03:33.308912-07:00,1335.0,852.0,1069.5,965.4,921.1,1074.7,1904.6,1439.6,3475.9,3466.1,1345.8,976.5,1606.8,3471.0,1566.5,1228.4,3472.2,3466.1,1604.0,2321.2,2859.3,3481.9,1639.8,3495.3,3488.0,3473.4,684.0,892.4,1692.9,1021.1,973.9,877.2,6.0,4.0,-5.0,5684.0,-7066.0,10209.0,-9054.0,-14.0,6.0,-36.0,0.0,4.0,0.0,5272.0,-8249.0,-10836.0,7429.0,-26.0,10.0,1.0,1.0
2022-05-23 15:03:33.427222-07:00,1335.0,852.0,1069.5,965.4,922.8,1063.4,1889.9,1440.5,3475.9,3466.1,1345.8,976.5,1602.1,3466.1,1570.2,1227.5,3478.3,3473.4,1608.7,2324.3,2859.3,3481.9,1639.8,3495.3,3481.9,3479.5,688.0,887.3,1692.9,1021.1,973.9,877.2,-5.0,-2.0,-4.0,5674.0,-7063.0,10210.0,-9061.0,4.0,49.0,33.0,0.0,-2.0,12.0,5272.0,-8249.0,-10836.0,7428.0,3.0,2.0,9.0,1.0
2022-05-23 15:03:33.428622-07:00,1325.0,836.9,1062.5,973.9,922.8,1063.4,1889.9,1440.5,3462.5,3473.4,1347.6,971.3,1602.1,3466.1,1570.2,1227.5,3478.3,3473.4,1608.7,2324.3,2847.0,3483.2,1634.1,3485.6,3481.9,3479.5,688.0,887.3,1700.5,1019.4,970.5,875.5,2.0,20.0,-11.0,5676.0,-7052.0,10219.0,-9058.0,-27.0,-21.0,-10.0,1.0,3.0,3.0,5270.0,-8252.0,-10835.0,7428.0,-26.0,7.0,7.0,1.0
2022-05-23 15:03:33.487259-07:00,1321.4,836.9,1062.5,973.9,922.0,1073.8,1895.8,1431.4,3471.0,3473.4,1347.6,971.3,1605.8,3462.5,1573.9,1227.5,3472.2,3473.4,1611.5,2323.3,2847.0,3483.2,1634.1,3497.8,3469.8,3480.7,692.9,889.8,1700.5,1019.4,970.5,878.9,6.0,-5.0,-2.0,5669.0,-7065.0,10220.0,-9051.0,19.0,-4.0,-7.0,2.0,-3.0,4.0,5266.0,-8254.0,-10838.0,7424.0,11.0,-12.0,-4.0,1.0
2022-05-23 15:03:33.517245-07:00,1321.4,838.6,1066.9,973.9,922.0,1073.8,1895.8,1433.2,3471.0,3467.4,1346.7,971.3,1605.8,3462.5,1573.9,1230.2,3481.9,3473.4,1611.5,2323.3,2842.5,3481.9,1630.3,3497.8,3484.4,3480.7,692.9,889.8,1703.3,1024.5,978.2,878.9,6.0,8.0,0.0,5677.0,-7061.0,10217.0,-9053.0,-15.0,-20.0,27.0,5.0,6.0,11.0,5269.0,-8251.0,-10836.0,7428.0,-12.0,-7.0,8.0,1.0
2022-05-23 15:03:33.667191-07:00,1325.0,838.6,1066.9,973.9,919.4,1059.1,1900.7,1433.2,3468.6,3467.4,1346.7,971.3,1599.3,3488.0,1577.7,1230.2,3481.9,3474.6,1619.0,2313.9,2842.5,3481.9,1630.3,3481.9,3484.4,3477.1,680.7,883.1,1703.3,1024.5,978.2,881.4,1.0,18.0,-1.0,5684.0,-7057.0,10223.0,-9046.0,-7.0,8.0,-2.0,2.0,2.0,10.0,5269.0,-8251.0,-10836.0,7427.0,-14.0,7.0,2.0,1.0
2022-05-23 15:03:33.668509-07:00,1325.0,836.9,1059.1,973.9,919.4,1059.1,1900.7,1456.2,3468.6,3478.3,1340.4,965.4,1599.3,3488.0,1577.7,1231.9,3473.4,3474.6,1619.0,2313.9,2851.5,3495.3,1638.8,3481.9,3480.7,3477.1,680.7,883.1,1687.2,1021.9,974.8,881.4,-10.0,-8.0,-5.0,5673.0,-7064.0,10224.0,-9046.0,-4.0,8.0,-26.0,-4.0,-5.0,12.0,5265.0,-8255.0,-10840.0,7420.0,-11.0,6.0,1.0,1.0
2022-05-23 15:03:33.669430-07:00,1332.3,836.9,1059.1,973.9,920.3,1065.1,1879.1,1456.2,3469.8,3478.3,1340.4,965.4,1603.0,3478.3,1569.3,1231.9,3473.4,3472.2,1617.1,2316.0,2851.5,3495.3,1638.8,3490.5,3480.7,3469.8,683.1,881.4,1687.2,1021.9,974.8,878.9,0.0,4.0,-7.0,5668.0,-7068.0,10221.0,-9049.0,-4.0,19.0,-18.0,-3.0,1.0,1.0,5265.0,-8257.0,-10840.0,7418.0,-14.0,3.0,-1.0,1.0
2022-05-23 15:03:33.727254-07:00,1332.3,844.4,1061.7,977.3,920.3,1065.1,1880.1,1439.6,3469.8,3467.4,1348.5,965.4,1603.0,3478.3,1572.1,1230.2,3469.8,3483.2,1617.1,2316.0,2852.6,3495.3,1631.3,3490.5,3475.9,3483.2,683.1,881.4,1706.2,1015.9,975.6,878.9,0.0,1.0,-13.0,5661.0,-7072.0,10219.0,-9052.0,-15.0,-19.0,-6.0,0.0,3.0,9.0,5264.0,-8257.0,-10841.0,7417.0,-7.0,-2.0,1.0,1.0
2022-05-23 15:03:33.787240-07:00,1327.8,837.7,1061.7,977.3,918.6,1055.6,1880.1,1439.6,3471.0,3475.9,1348.5,965.4,1608.7,3466.1,1572.1,1230.2,3469.8,3483.2,1617.1,2316.0,2852.6,3495.3,1634.1,3488.0,3475.9,3483.2,672.5,878.0,1706.2,1015.9,973.9,872.1,2.0,3.0,0.0,5665.0,-7075.0,10222.0,-9044.0,-11.0,6.0,15.0,7.0,0.0,13.0,5264.0,-8257.0,-10841.0,7417.0,1.0,-4.0,6.0,1.0
2022-05-23 15:03:33.817239-07:00,1327.8,837.7,1066.0,967.9,918.6,1055.6,1874.2,1436.0,3471.0,3475.9,1351.2,973.9,1608.7,3466.1,1572.1,1242.6,3473.4,3473.4,1617.1,2316.0,2845.9,3496.6,1634.1,3488.0,3471.0,3467.4,672.5,878.0,1692.9,1026.3,973.9,872.1,1.0,2.0,2.0,5663.0,-7076.0,10222.0,-9044.0,0.0,3.0,-25.0,3.0,0.0,11.0,5265.0,-8256.0,-10842.0,7416.0,-13.0,10.0,-1.0,1.0
2022-05-23 15:03:34.057416-07:00,1319.6,841.9,1066.0,967.9,919.4,1055.6,1874.2,1436.0,3468.6,3469.8,1351.2,973.9,1599.3,3478.3,1572.1,1242.6,3473.4,3473.4,1619.9,2307.7,2845.9,3496.6,1632.2,3489.2,3471.0,3467.4,681.5,889.0,1692.9,1026.3,971.3,878.9,27.0,-16.0,20.0,5651.0,-7077.0,10221.0,-9053.0,35.0,129.0,6.0,-4.0,-6.0,-11.0,5266.0,-8263.0,-10843.0,7406.0,-35.0,37.0,-7.0,1.0
2022-05-23 15:03:34.147685-07:00,1319.6,841.9,1060.8,972.2,919.4,1055.6,1873.2,1436.9,3468.6,3469.8,1344.9,973.9,1599.3,3478.3,1590.8,1259.6,3462.5,3474.6,1619.9,2307.7,2860.4,3494.1,1632.2,3489.2,3464.9,3479.5,681.5,889.0,1701.4,1021.9,971.3,878.9,-7.0,1.0,-39.0,5611.0,-7020.0,10265.0,-9073.0,-266.0,84.0,180.0,22.0,12.0,35.0,5282.0,-8265.0,-10838.0,7400.0,-144.0,50.0,2.0,1.0
2022-05-23 15:03:34.148991-07:00,1331.4,838.6,1060.8,972.2,911.8,1051.3,1873.2,1436.9,3461.3,3473.4,1344.9,973.9,1600.2,3478.3,1590.8,1259.6,3462.5,3474.6,1605.8,2320.1,2860.4,3494.1,1636.9,3488.0,3464.9,3479.5,679.9,883.1,1701.4,1021.9,967.9,890.7,22.0,27.0,-41.0,5595.0,-7059.0,10391.0,-8906.0,-554.0,-264.0,76.0,-17.0,23.0,-17.0,5242.0,-8313.0,-10886.0,7305.0,-412.0,56.0,-30.0,1.0
2022-05-23 15:03:34.150198-07:00,1331.4,838.6,1064.3,973.1,911.8,1076.4,1901.6,1452.5,3461.3,3473.4,1367.6,966.2,1600.2,3471.0,1594.6,1265.8,3464.9,3475.9,1617.1,2320.1,2835.8,3496.6,1636.9,3488.0,3467.4,3469.8,691.3,883.1,1689.1,1025.4,967.9,890.7,-10.0,45.0,13.0,5553.0,-7144.0,10453.0,-8792.0,-362.0,-11.0,-98.0,6.0,16.0,33.0,5176.0,-8355.0,-10969.0,7177.0,-380.0,29.0,-76.0,1.0
2022-05-23 15:03:34.151399-07:00,1331.4,855.3,1074.7,973.1,911.8,1076.4,1901.6,1452.5,3472.2,3467.4,1307.0,966.2,1599.3,3471.0,1594.6,1265.8,3464.9,3475.9,1617.1,2323.3,2835.8,3490.5,1679.5,3485.6,3467.4,3469.8,691.3,905.9,1689.1,1015.1,968.8,866.3,-15.0,-13.0,-21.0,5504.0,-7212.0,10547.0,-8655.0,-523.0,-181.0,270.0,4.0,12.0,0.0,5106.0,-8410.0,-11047.0,7043.0,-404.0,63.0,-2.0,1.0
2022-05-23 15:03:34.177158-07:00,1331.4,855.3,1074.7,972.2,911.8,1069.5,1927.2,1434.1,3472.2,3467.4,1307.0,931.3,1599.3,3462.5,1469.0,1223.9,3479.5,3473.4,1609.6,2323.3,2835.8,3490.5,1679.5,3485.6,3488.0,3472.2,684.8,905.9,1694.8,1015.1,968.8,866.3,30.0,30.0,41.0,5507.0,-7223.0,10700.0,-8452.0,-403.0,84.0,217.0,8.0,9.0,-10.0,5040.0,-8461.0,-11120.0,6913.0,-353.0,13.0,-47.0,1.0
2022-05-23 15:03:34.207599-07:00,1355.8,870.5,1052.2,960.2,910.1,1035.7,1927.2,1406.7,3479.5,3473.4,1219.5,911.0,1597.4,3462.5,1398.5,1210.6,3475.9,3467.4,1627.5,2316.0,2821.3,3486.8,1757.0,3499.0,3467.4,3478.3,686.4,896.6,1692.9,991.0,951.7,873.8,4.0,0.0,10.0,5416.0,-7185.0,10902.0,-8284.0,-67.0,157.0,162.0,0.0,2.0,5.0,4938.0,-8535.0,-11213.0,6743.0,-154.0,25.0,11.0,1.0
2022-05-23 15:03:34.267297-07:00,1383.9,892.4,1062.5,965.4,916.0,1035.7,1927.2,1406.7,3473.4,3473.4,1181.5,900.8,1597.4,3462.5,1398.5,1210.6,3475.9,3467.4,1627.5,2317.0,2835.8,3486.8,1808.1,3488.0,3467.4,3478.3,686.4,900.8,1702.4,997.9,951.7,873.8,-13.0,7.0,0.0,5381.0,-7108.0,10966.0,-8288.0,-65.0,221.0,114.0,-3.0,-6.0,8.0,4921.0,-8551.0,-11228.0,6711.0,-118.0,15.0,3.0,1.0
2022-05-23 15:03:34.297395-07:00,1383.9,892.4,1062.5,965.4,920.3,1035.7,1911.5,1386.6,3473.4,3473.4,1181.5,900.8,1595.5,3478.3,1359.4,1201.8,3473.4,3472.2,1624.7,2308.7,2835.8,3486.8,1808.1,3488.0,3479.5,3475.9,688.9,889.8,1702.4,997.9,951.7,873.8,-1.0,4.0,-13.0,5320.0,-7065.0,11040.0,-8266.0,-209.0,106.0,54.0,-2.0,-6.0,8.0,4888.0,-8577.0,-11249.0,6667.0,-183.0,21.0,24.0,1.0
2022-05-23 15:03:34.357758-07:00,1412.2,889.0,1050.4,964.5,920.3,1035.7,1911.5,1386.6,3473.4,3466.1,1175.3,896.6,1595.5,3478.3,1359.4,1201.8,3473.4,3472.2,1624.7,2308.7,2834.7,3492.9,1803.2,3486.8,3479.5,3475.9,688.9,889.8,1708.1,988.5,939.8,866.3,-3.0,8.0,-17.0,5278.0,-7074.0,11082.0,-8230.0,-108.0,0.0,-31.0,2.0,-8.0,2.0,4858.0,-8605.0,-11267.0,6622.0,-113.0,20.0,20.0,1.0
2022-05-23 15:03:34.417223-07:00,1412.2,889.0,1050.4,964.5,921.1,999.6,1886.9,1356.7,3473.4,3466.1,1175.3,896.6,1589.9,3455.2,1345.8,1200.0,3463.7,3469.8,1636.0,2299.3,2834.7,3492.9,1803.2,3486.8,3478.3,3489.2,702.8,868.8,1708.1,988.5,939.8,866.3,-6.0,5.0,-36.0,5270.0,-7120.0,11099.0,-8171.0,-168.0,-161.0,1.0,1.0,0.0,0.0,4836.0,-8620.0,-11285.0,6587.0,-112.0,4.0,-15.0,1.0
2022-05-23 15:03:34.447627-07:00,1390.3,879.7,1061.7,967.1,921.1,999.6,1886.9,1356.7,3471.0,3478.3,1166.5,894.9,1589.9,3455.2,1345.8,1200.0,3463.7,3469.8,1636.0,2299.3,2796.8,3492.9,1804.2,3486.8,3478.3,3489.2,702.8,868.8,1702.4,1008.2,939.8,862.1,-3.0,21.0,-10.0,5312.0,-7180.0,11093.0,-8100.0,10.0,-185.0,-38.0,-2.0,0.0,1.0,4822.0,-8614.0,-11301.0,6577.0,40.0,-45.0,-31.0,1.0
2022-05-23 15:03:34.627320-07:00,1390.3,879.7,1061.7,967.1,919.4,990.2,1872.3,1368.5,3471.0,3478.3,1166.5,894.9,1597.4,3472.2,1326.8,1196.5,3478.3,3467.4,1634.1,2300.4,2796.8,3492.9,1804.2,3486.8,3484.4,3472.2,684.8,863.7,1702.4,1008.2,939.8,862.1,-8.0,-9.0,6.0,5350.0,-7250.0,11065.0,-8050.0,-115.0,-221.0,-68.0,-2.0,-4.0,9.0,4818.0,-8598.0,-11316.0,6576.0,-54.0,-18.0,-37.0,1.0
2022-05-23 15:03:34.630195-07:00,1387.5,887.3,1071.2,957.7,919.4,990.2,1872.3,1358.5,3472.2,3467.4,1170.0,889.8,1597.4,3472.2,1326.8,1206.2,3474.6,3467.4,1634.1,2300.4,2824.6,3496.6,1793.6,3486.8,3479.5,3472.2,684.8,863.7,1698.6,973.1,936.4,860.4,24.0,-20.0,37.0,5377.0,-7313.0,11052.0,-7993.0,-53.0,-123.0,3.0,3.0,-5.0,1.0,4814.0,-8593.0,-11327.0,6565.0,16.0,-11.0,-16.0,1.0
2022-05-23 15:03:34.631165-07:00,1412.2,887.3,1071.2,957.7,927.1,971.3,1874.2,1358.5,3468.6,3467.4,1170.0,889.8,1588.9,3462.5,1328.7,1206.2,3474.6,3473.4,1616.2,2292.1,2824.6,3496.6,1793.6,3485.6,3479.5,3481.9,682.3,850.3,1698.6,973.1,936.4,865.4,1.0,9.0,12.0,5396.0,-7310.0,11043.0,-7996.0,12.0,-30.0,3.0,8.0,-1.0,13.0,4823.0,-8586.0,-11324.0,6575.0,0.0,9.0,0.0,1.0
2022-05-23 15:03:34.657503-07:00,1412.2,886.5,1049.6,961.1,927.1,971.3,1874.2,1357.6,3468.6,3455.2,1163.0,888.2,1588.9,3462.5,1328.7,1191.2,3472.2,3473.4,1616.2,2292.1,2830.2,3495.3,1788.7,3485.6,3478.3,3481.9,682.3,850.3,1669.1,985.0,934.7,865.4,1.0,-5.0,3.0,5390.0,-7323.0,11049.0,-7979.0,-85.0,-4.0,-6.0,0.0,-2.0,2.0,4816.0,-8592.0,-11331.0,6560.0,-63.0,9.0,-2.0,1.0
2022-05-23 15:03:34.927199-07:00,1385.7,886.5,1049.6,961.1,913.5,971.3,1846.9,1357.6,3468.6,3455.2,1163.0,888.2,1612.4,3467.4,1324.1,1191.2,3472.2,3462.5,1629.4,2287.9,2830.2,3495.3,1788.7,3486.8,3478.3,3480.7,679.1,865.4,1669.1,985.0,934.7,857.9,-9.0,-5.0,0.0,5372.0,-7324.0,11076.0,-7952.0,-73.0,27.0,42.0,-3.0,-12.0,8.0,4809.0,-8598.0,-11337.0,6547.0,-17.0,19.0,9.0,1.0
2022-05-23 15:03:34.957851-07:00,1385.7,866.3,1047.0,967.9,913.5,971.3,1846.9,1339.5,3468.6,3467.4,1155.0,884.8,1612.4,3467.4,1324.1,1181.5,3469.8,3462.5,1629.4,2287.9,2825.8,3491.7,1788.7,3486.8,3478.3,3480.7,679.1,865.4,1692.9,991.0,934.7,857.9,0.0,16.0,-1.0,5373.0,-7317.0,11075.0,-7961.0,58.0,19.0,-33.0,0.0,0.0,3.0,4819.0,-8599.0,-11327.0,6554.0,36.0,10.0,3.0,1.0
2022-05-23 15:03:34.959434-07:00,1373.0,871.3,1047.0,967.9,911.8,968.8,1851.8,1339.5,3474.6,3466.1,1155.0,884.8,1588.9,3469.8,1320.5,1181.5,3469.8,3474.6,1630.3,2290.0,2825.8,3491.7,1783.9,3490.5,3478.3,3473.4,683.1,850.3,1692.9,991.0,934.7,863.7,10.0,-6.0,4.0,5360.0,-7330.0,11053.0,-7988.0,48.0,26.0,-82.0,3.0,2.0,-1.0,4825.0,-8596.0,-11322.0,6563.0,32.0,-2.0,-4.0,1.0
2022-05-23 15:03:34.960421-07:00,1373.0,871.3,1049.6,956.8,911.8,968.8,1852.8,1340.4,3474.6,3466.1,1156.8,889.0,1588.9,3469.8,1313.3,1188.5,3472.2,3479.5,1630.3,2290.0,2807.9,3497.8,1783.9,3490.5,3474.6,3475.9,683.1,850.3,1697.6,979.9,934.7,863.7,3.0,-12.0,28.0,5333.0,-7300.0,11056.0,-8029.0,45.0,177.0,44.0,5.0,-11.0,13.0,4837.0,-8588.0,-11314.0,6577.0,64.0,7.0,4.0,1.0
2022-05-23 15:03:34.961503-07:00,1378.5,866.3,1049.6,956.8,918.6,959.4,1852.8,1340.4,3468.6,3473.4,1156.8,889.0,1590.8,3479.5,1313.3,1188.5,3472.2,3479.5,1635.0,2308.7,2807.9,3497.8,1773.3,3488.0,3474.6,3475.9,679.1,849.5,1697.6,979.9,928.8,849.5,-11.0,4.0,-12.0,5303.0,-7226.0,11074.0,-8091.0,61.0,170.0,36.0,6.0,-6.0,8.0,4852.0,-8590.0,-11298.0,6593.0,-17.0,30.0,37.0,1.0
2022-05-23 15:03:34.987331-07:00,1378.5,866.3,1041.8,959.4,918.6,959.4,1842.0,1339.5,3468.6,3473.4,1155.9,884.8,1590.8,3479.5,1308.8,1192.9,3468.6,3467.4,1635.0,2308.7,2819.1,3503.9,1773.3,3488.0,3467.4,3475.9,679.1,849.5,1698.6,973.1,928.8,849.5,3.0,2.0,-18.0,5268.0,-7202.0,11094.0,-8109.0,-19.0,107.0,8.0,-2.0,6.0,-4.0,4845.0,-8608.0,-11295.0,6579.0,-36.0,15.0,17.0,1.0
2022-05-23 15:03:35.017421-07:00,1388.5,868.8,1041.8,959.4,916.9,966.2,1842.0,1339.5,3475.9,3472.2,1155.9,884.8,1585.2,3472.2,1308.8,1192.9,3468.6,3467.4,1629.4,2300.4,2819.1,3503.9,1775.2,3480.7,3467.4,3475.9,679.1,839.4,1698.6,973.1,934.7,866.3,-15.0,15.0,-22.0,5245.0,-7185.0,11117.0,-8106.0,-20.0,22.0,20.0,-3.0,3.0,6.0,4839.0,-8612.0,-11298.0,6572.0,-23.0,-1.0,0.0,1.0
2022-05-23 15:03:35.047729-07:00,1388.5,868.8,1063.4,960.2,916.9,961.1,1833.3,1333.2,3475.9,3472.2,1157.7,884.8,1585.2,3466.1,1310.6,1179.7,3474.6,3467.4,1630.3,2300.4,2803.5,3481.9,1775.2,3480.7,3473.4,3474.6,675.8,839.4,1705.3,978.2,934.7,866.3,-8.0,3.0,-19.0,5244.0,-7223.0,11142.0,-8039.0,-239.0,-175.0,-15.0,-3.0,-2.0,0.0,4823.0,-8619.0,-11314.0,6549.0,-175.0,-13.0,-28.0,1.0
2022-05-23 15:03:35.108039-07:00,1370.3,877.2,1055.6,960.2,925.4,961.1,1833.3,1333.2,3462.5,3469.8,1155.9,884.8,1588.0,3466.1,1310.6,1179.7,3474.6,3467.4,1630.3,2289.0,2803.5,3485.6,1774.3,3481.9,3473.4,3474.6,675.8,847.0,1705.3,981.6,927.1,863.7,6.0,-10.0,9.0,5254.0,-7292.0,11158.0,-7947.0,-130.0,-131.0,-4.0,0.0,-5.0,4.0,4789.0,-8622.0,-11350.0,6507.0,-58.0,-34.0,-42.0,1.0
2022-05-23 15:03:35.257897-07:00,1370.3,877.2,1055.6,954.3,925.4,954.3,1818.7,1327.8,3462.5,3469.8,1155.9,889.0,1588.0,3471.0,1300.7,1187.6,3467.4,3478.3,1626.5,2289.0,2807.9,3485.6,1774.3,3481.9,3472.2,3469.8,680.7,847.0,1695.7,981.6,927.1,863.7,3.0,-1.0,18.0,5271.0,-7321.0,11167.0,-7896.0,-96.0,-96.0,30.0,1.0,-6.0,7.0,4777.0,-8612.0,-11368.0,6497.0,-41.0,-12.0,-19.0,1.0
2022-05-23 15:03:35.259369-07:00,1383.0,887.3,1053.0,954.3,917.7,954.3,1818.7,1327.8,3475.9,3468.6,1146.3,889.0,1582.4,3471.0,1300.7,1187.6,3467.4,3478.3,1626.5,2291.0,2807.9,3499.0,1769.5,3484.4,3472.2,3469.8,680.7,845.3,1695.7,973.1,925.4,859.5,0.0,-3.0,8.0,5278.0,-7349.0,11178.0,-7850.0,-113.0,-85.0,-12.0,7.0,-6.0,11.0,4767.0,-8614.0,-11380.0,6481.0,-76.0,-3.0,-1.0,1.0
2022-05-23 15:03:35.260388-07:00,1383.0,887.3,1053.0,967.1,917.7,950.9,1837.2,1329.6,3475.9,3468.6,1146.3,883.9,1582.4,3471.0,1304.3,1185.9,3479.5,3471.0,1623.7,2291.0,2810.1,3499.0,1769.5,3484.4,3483.2,3464.9,674.2,845.3,1694.8,973.1,925.4,859.5,7.0,0.0,19.0,5282.0,-7369.0,11179.0,-7827.0,88.0,29.0,-18.0,2.0,-3.0,11.0,4757.0,-8620.0,-11388.0,6467.0,47.0,2.0,-8.0,1.0
2022-05-23 15:03:35.377509-07:00,1378.5,861.2,1052.2,967.1,916.0,950.9,1837.2,1329.6,3467.4,3467.4,1146.3,883.9,1589.9,3471.0,1304.3,1185.9,3479.5,3471.0,1623.7,2287.9,2810.1,3490.5,1772.3,3481.9,3483.2,3464.9,674.2,848.6,1694.8,975.6,921.1,873.0,-4.0,-4.0,-5.0,5281.0,-7373.0,11166.0,-7843.0,-65.0,-27.0,-37.0,-5.0,-2.0,4.0,4766.0,-8613.0,-11387.0,6471.0,-67.0,11.0,-22.0,1.0
2022-05-23 15:03:35.379960-07:00,1378.5,861.2,1052.2,952.6,913.5,950.9,1814.9,1339.5,3467.4,3467.4,1146.3,883.1,1587.1,3466.1,1312.4,1189.4,3472.2,3474.6,1628.4,2291.0,2833.6,3490.5,1772.3,3481.9,3480.7,3474.6,683.1,852.8,1695.7,975.6,921.1,873.0,-9.0,2.0,-15.0,5280.0,-7394.0,11170.0,-7818.0,-63.0,-70.0,-1.0,-1.0,2.0,5.0,4757.0,-8617.0,-11397.0,6455.0,-54.0,-4.0,-6.0,1.0
2022-05-23 15:03:35.407909-07:00,1373.9,864.6,1070.3,963.7,913.5,950.9,1814.9,1339.5,3473.4,3466.1,1157.7,881.4,1587.1,3466.1,1312.4,1189.4,3472.2,3474.6,1628.4,2291.0,2806.8,3481.9,1761.8,3486.8,3480.7,3474.6,683.1,852.8,1691.9,969.6,932.2,868.8,13.0,-18.0,3.0,5288.0,-7435.0,11205.0,-7723.0,-283.0,-179.0,79.0,3.0,-4.0,-8.0,4734.0,-8629.0,-11414.0,6426.0,-89.0,-11.0,-3.0,1.0
2022-05-23 15:03:35.467275-07:00,1373.9,864.6,1070.3,963.7,911.8,950.0,1825.5,1324.1,3473.4,3466.1,1157.7,881.4,1581.4,3469.8,1314.2,1181.5,3478.3,3478.3,1632.2,2287.9,2806.8,3481.9,1761.8,3486.8,3467.4,3475.9,684.0,852.0,1691.9,969.6,932.2,868.8,0.0,13.0,9.0,5318.0,-7445.0,11229.0,-7657.0,4.0,-56.0,85.0,10.0,-5.0,7.0,4732.0,-8624.0,-11415.0,6432.0,43.0,-11.0,-4.0,1.0
2022-05-23 15:03:35.527419-07:00,1373.0,866.3,1053.0,968.8,911.8,950.0,1825.5,1324.1,3472.2,3467.4,1150.6,885.6,1581.4,3469.8,1314.2,1181.5,3478.3,3478.3,1632.2,2287.9,2805.7,3479.5,1766.6,3488.0,3467.4,3475.9,684.0,852.0,1689.1,981.6,929.6,857.0,0.0,3.0,15.0,5333.0,-7457.0,11225.0,-7642.0,-23.0,-38.0,-39.0,4.0,0.0,7.0,4735.0,-8621.0,-11413.0,6437.0,-37.0,-3.0,-3.0,1.0
2022-05-23 15:03:35.557420-07:00,1373.0,866.3,1053.0,968.8,908.4,959.4,1815.8,1321.4,3472.2,3467.4,1150.6,885.6,1588.0,3473.4,1301.6,1188.5,3477.1,3469.8,1626.5,2286.9,2805.7,3479.5,1766.6,3488.0,3478.3,3474.6,673.3,847.8,1689.1,981.6,929.6,857.0,1.0,-28.0,23.0,5320.0,-7465.0,11232.0,-7633.0,-50.0,56.0,32.0,1.0,-53.0,-3.0,4724.0,-8628.0,-11416.0,6429.0,-23.0,-23.0,55.0,1.0
2022-05-23 15:03:35.617331-07:00,1356.7,869.6,1061.7,959.4,908.4,959.4,1815.8,1319.6,3467.4,3469.8,1153.3,887.3,1588.0,3473.4,1301.6,1188.5,3481.9,3469.8,1626.5,2286.9,2812.4,3492.9,1759.8,3485.6,3471.0,3474.6,673.3,847.8,1695.7,967.1,927.9,856.2,-6.0,3.0,5.0,5307.0,-7410.0,11254.0,-7663.0,41.0,153.0,91.0,0.0,2.0,9.0,4729.0,-8636.0,-11399.0,6447.0,36.0,12.0,46.0,1.0
2022-05-23 15:03:35.647307-07:00,1379.4,869.6,1061.7,959.4,917.7,957.7,1803.2,1319.6,3473.4,3469.8,1153.3,887.3,1581.4,3479.5,1317.8,1188.5,3481.9,3481.9,1631.3,2259.0,2812.4,3492.9,1759.8,3488.0,3471.0,3479.5,674.2,852.0,1695.7,967.1,927.9,855.3,-3.0,11.0,0.0,5274.0,-7363.0,11307.0,-7652.0,-160.0,106.0,95.0,4.0,0.0,5.0,4711.0,-8660.0,-11398.0,6429.0,-118.0,18.0,45.0,1.0
2022-05-23 15:03:35.707416-07:00,1379.4,857.0,1069.5,959.4,917.7,957.7,1803.2,1317.8,3473.4,3467.4,1155.0,888.2,1581.4,3479.5,1317.8,1189.4,3477.1,3481.9,1631.3,2259.0,2811.3,3500.2,1761.8,3488.0,3472.2,3479.5,674.2,852.0,1684.3,985.9,932.2,855.3,7.0,8.0,-17.0,5227.0,-7367.0,11382.0,-7569.0,-357.0,-21.0,68.0,4.0,2.0,-5.0,4665.0,-8698.0,-11419.0,6373.0,-245.0,19.0,37.0,1.0
2022-05-23 15:03:35.767249-07:00,1368.5,857.0,1069.5,959.4,923.7,956.8,1793.6,1317.8,3467.4,3467.4,1155.0,888.2,1583.3,3469.8,1316.9,1189.4,3477.1,3478.3,1636.9,2286.9,2811.3,3500.2,1761.8,3490.5,3472.2,3471.0,673.3,855.3,1684.3,985.9,932.2,856.2,9.0,-13.0,14.0,5186.0,-7378.0,11442.0,-7496.0,-58.0,88.0,60.0,3.0,-12.0,9.0,4634.0,-8720.0,-11436.0,6336.0,-7.0,-1.0,12.0,1.0
2022-05-23 15:03:35.797665-07:00,1368.5,856.2,1079.9,970.5,923.7,956.8,1793.6,1316.0,3467.4,3467.4,1157.7,886.5,1583.3,3469.8,1316.9,1189.4,3475.9,3478.3,1636.9,2286.9,2805.7,3489.2,1753.1,3490.5,3479.5,3471.0,673.3,855.3,1690.0,984.2,933.0,856.2,2.0,12.0,-4.0,5177.0,-7350.0,11459.0,-7504.0,-23.0,25.0,31.0,0.0,2.0,2.0,4634.0,-8727.0,-11428.0,6340.0,-27.0,13.0,26.0,1.0
2022-05-23 15:03:35.887239-07:00,1353.1,856.2,1079.9,970.5,911.0,956.0,1782.9,1316.0,3464.9,3467.4,1157.7,886.5,1581.4,3472.2,1316.0,1189.4,3475.9,3474.6,1628.4,2277.6,2805.7,3489.2,1753.1,3481.9,3479.5,3477.1,674.2,864.6,1690.0,984.2,933.0,855.3,6.0,-8.0,5.0,5161.0,-7343.0,11473.0,-7500.0,-10.0,51.0,6.0,1.0,-5.0,0.0,4624.0,-8737.0,-11428.0,6334.0,-4.0,7.0,19.0,1.0
2022-05-23 15:03:35.977228-07:00,1353.1,882.3,1073.8,962.8,911.0,956.0,1785.8,1311.5,3464.9,3472.2,1150.6,892.4,1581.4,3472.2,1317.8,1185.9,3471.0,3478.3,1628.4,2277.6,2797.9,3486.8,1747.3,3481.9,3475.9,3472.2,674.2,864.6,1693.8,984.2,925.4,855.3,-6.0,4.0,-3.0,5154.0,-7318.0,11473.0,-7529.0,59.0,58.0,14.0,-1.0,-4.0,6.0,4631.0,-8737.0,-11417.0,6350.0,42.0,3.0,16.0,1.0
2022-05-23 15:03:36.008387-07:00,1354.0,855.3,1073.8,962.8,914.4,956.8,1785.8,1311.5,3467.4,3464.9,1150.6,892.4,1587.1,3469.8,1317.8,1185.9,3471.0,3478.3,1633.1,2292.1,2797.9,3486.8,1742.6,3486.8,3475.9,3472.2,679.9,848.6,1693.8,984.2,927.9,862.1,0.0,11.0,-2.0,5156.0,-7311.0,11460.0,-7555.0,74.0,3.0,-46.0,3.0,0.0,7.0,4638.0,-8736.0,-11408.0,6362.0,42.0,-4.0,7.0,1.0
2022-05-23 15:03:36.009561-07:00,1354.0,855.3,1065.1,964.5,914.4,956.8,1779.1,1307.9,3467.4,3464.9,1148.9,887.3,1587.1,3469.8,1317.8,1183.2,3474.6,3474.6,1633.1,2292.1,2803.5,3497.8,1742.6,3486.8,3478.3,3466.1,679.9,848.6,1692.9,982.5,927.9,862.1,-3.0,18.0,0.0,5159.0,-7339.0,11411.0,-7600.0,148.0,-49.0,-197.0,2.0,-7.0,6.0,4652.0,-8728.0,-11397.0,6380.0,81.0,-9.0,-2.0,1.0
2022-05-23 15:03:36.097353-07:00,1349.4,865.4,1065.1,964.5,915.2,954.3,1779.1,1307.9,3467.4,3467.4,1148.9,887.3,1584.2,3467.4,1317.8,1183.2,3474.6,3474.6,1627.5,2300.4,2803.5,3497.8,1739.7,3486.8,3478.3,3466.1,665.2,853.7,1692.9,982.5,931.3,857.9,0.0,-10.0,-39.0,5176.0,-7425.0,11307.0,-7660.0,132.0,-194.0,-258.0,-7.0,8.0,-9.0,4664.0,-8714.0,-11391.0,6403.0,34.0,-30.0,-27.0,1.0
2022-05-23 15:03:36.098677-07:00,1349.4,865.4,1068.6,969.6,915.2,954.3,1787.8,1309.7,3467.4,3467.4,1148.9,882.3,1584.2,3467.4,1316.0,1181.5,3473.4,3472.2,1627.5,2300.4,2800.1,3494.1,1739.7,3486.8,3464.9,3467.4,665.2,853.7,1689.1,995.3,931.3,857.9,3.0,-30.0,36.0,5217.0,-7475.0,11261.0,-7652.0,111.0,-100.0,24.0,4.0,-18.0,-4.0,4672.0,-8687.0,-11391.0,6433.0,174.0,-53.0,-17.0,1.0
2022-05-23 15:03:36.157448-07:00,1343.1,859.5,1078.2,969.6,924.5,952.6,1787.8,1309.7,3471.0,3471.0,1154.2,882.3,1573.9,3478.3,1316.0,1181.5,3473.4,3472.2,1625.6,2279.6,2800.1,3491.7,1745.4,3489.2,3464.9,3467.4,676.6,857.0,1689.1,990.2,938.1,858.7,8.0,28.0,19.0,5269.0,-7456.0,11217.0,-7698.0,121.0,-24.0,-33.0,10.0,4.0,13.0,4703.0,-8664.0,-11364.0,6491.0,84.0,-3.0,13.0,1.0
2022-05-23 15:03:36.217283-07:00,1343.1,859.5,1078.2,973.9,924.5,947.5,1806.1,1323.2,3471.0,3471.0,1154.2,883.9,1573.9,3466.1,1312.4,1185.9,3469.8,3480.7,1626.5,2279.6,2800.1,3491.7,1745.4,3489.2,3467.4,3473.4,671.7,857.0,1694.8,990.2,938.1,858.7,5.0,-15.0,16.0,5259.0,-7460.0,11208.0,-7714.0,36.0,43.0,-21.0,8.0,-9.0,12.0,4707.0,-8670.0,-11354.0,6495.0,33.0,27.0,26.0,1.0
2022-05-23 15:03:36.247292-07:00,1344.9,847.0,1088.6,973.9,917.7,947.5,1806.1,1323.2,3474.6,3463.7,1148.9,883.9,1580.5,3466.1,1312.4,1185.9,3469.8,3480.7,1626.5,2278.6,2800.1,3494.1,1733.0,3492.9,3467.4,3473.4,671.7,850.3,1694.8,977.3,933.0,861.2,-2.0,12.0,-9.0,5253.0,-7435.0,11197.0,-7758.0,77.0,77.0,-24.0,-1.0,2.0,3.0,4723.0,-8676.0,-11335.0,6509.0,26.0,26.0,23.0,1.0
2022-05-23 15:03:36.307494-07:00,1344.9,847.0,1088.6,973.1,917.7,958.5,1796.5,1304.3,3474.6,3463.7,1148.9,881.4,1580.5,3469.8,1313.3,1187.6,3469.8,3477.1,1625.6,2278.6,2796.8,3494.1,1733.0,3492.9,3488.0,3471.0,666.0,850.3,1701.4,977.3,933.0,861.2,0.0,1.0,-11.0,5232.0,-7437.0,11196.0,-7772.0,-18.0,17.0,-54.0,0.0,-4.0,1.0,4721.0,-8686.0,-11333.0,6500.0,-26.0,16.0,11.0,1.0
2022-05-23 15:03:36.367210-07:00,1355.8,858.7,1089.5,973.1,908.4,958.5,1796.5,1304.3,3464.9,3468.6,1145.4,881.4,1582.4,3469.8,1313.3,1187.6,3469.8,3477.1,1625.6,2275.5,2796.8,3489.2,1738.7,3490.5,3488.0,3471.0,666.0,850.3,1701.4,985.0,956.0,857.9,3.0,8.0,3.0,5234.0,-7458.0,11146.0,-7822.0,245.0,-24.0,-190.0,5.0,-14.0,3.0,4734.0,-8682.0,-11319.0,6520.0,141.0,1.0,10.0,1.0
2022-05-23 15:03:36.397871-07:00,1355.8,858.7,1089.5,974.8,908.4,950.0,1769.5,1314.2,3464.9,3468.6,1145.4,884.8,1582.4,3466.1,1307.9,1188.5,3471.0,3478.3,1611.5,2275.5,2802.4,3489.2,1738.7,3490.5,3488.0,3471.0,671.7,850.3,1694.8,985.0,956.0,857.9,-6.0,7.0,-25.0,5247.0,-7503.0,11028.0,-7937.0,186.0,-54.0,-244.0,-2.0,14.0,-4.0,4770.0,-8658.0,-11298.0,6564.0,64.0,-19.0,-36.0,1.0
2022-05-23 15:03:36.487715-07:00,1344.9,843.6,1072.1,972.2,911.8,950.0,1769.5,1314.2,3467.4,3462.5,1155.9,879.7,1579.6,3466.1,1307.9,1188.5,3471.0,3478.3,1611.5,2287.9,2793.5,3488.0,1724.4,3489.2,3488.0,3471.0,671.7,846.1,1691.9,984.2,934.7,859.5,0.0,-38.0,28.0,5246.0,-7551.0,10989.0,-7946.0,47.0,-57.0,-60.0,1.0,-18.0,12.0,4779.0,-8640.0,-11297.0,6582.0,126.0,-24.0,-9.0,1.0
2022-05-23 15:03:36.489017-07:00,1344.9,843.6,1072.1,972.2,920.3,941.5,1814.9,1301.6,3467.4,3462.5,1155.9,879.7,1581.4,3463.7,1319.6,1178.8,3462.5,3477.1,1628.4,2272.4,2793.5,3488.0,1724.4,3489.2,3480.7,3484.4,675.8,846.1,1691.9,984.2,934.7,859.5,0.0,13.0,13.0,5270.0,-7525.0,10968.0,-7984.0,94.0,55.0,37.0,4.0,-2.0,14.0,4797.0,-8628.0,-11278.0,6616.0,46.0,4.0,21.0,1.0
2022-05-23 15:03:36.547368-07:00,1344.9,858.7,1072.9,977.3,920.3,941.5,1814.9,1301.6,3478.3,3461.3,1152.4,871.3,1581.4,3463.7,1319.6,1178.8,3462.5,3477.1,1628.4,2272.4,2782.4,3494.1,1741.6,3491.7,3480.7,3484.4,675.8,846.1,1684.3,995.3,929.6,862.1,0.0,-3.0,7.0,5253.0,-7503.0,10977.0,-8004.0,-9.0,93.0,-9.0,0.0,-4.0,11.0,4798.0,-8639.0,-11272.0,6611.0,-18.0,27.0,19.0,1.0
2022-05-23 15:03:36.608005-07:00,1344.9,858.7,1072.9,977.3,913.5,944.9,1779.1,1288.2,3478.3,3461.3,1152.4,871.3,1575.8,3472.2,1314.2,1189.4,3478.3,3471.0,1620.9,2272.4,2782.4,3494.1,1741.6,3491.7,3475.9,3479.5,671.7,843.6,1684.3,995.3,929.6,862.1,-1.0,0.0,-14.0,5228.0,-7485.0,10985.0,-8024.0,24.0,67.0,-18.0,2.0,-2.0,1.0,4801.0,-8649.0,-11266.0,6608.0,17.0,14.0,16.0,1.0
2022-05-23 15:03:36.697310-07:00,1341.3,841.9,1090.3,976.5,913.5,944.9,1779.1,1288.2,3462.5,3467.4,1154.2,878.9,1575.8,3472.2,1314.2,1189.4,3478.3,3471.0,1620.9,2272.4,2789.0,3479.5,1724.4,3481.9,3475.9,3479.5,671.7,843.6,1694.8,982.5,934.7,865.4,2.0,-1.0,-6.0,5219.0,-7483.0,10980.0,-8040.0,12.0,15.0,-26.0,4.0,0.0,5.0,4803.0,-8649.0,-11264.0,6610.0,9.0,-2.0,-2.0,1.0
2022-05-23 15:03:36.698624-07:00,1337.7,841.9,1090.3,976.5,915.2,944.9,1768.5,1310.6,3468.6,3467.4,1154.2,878.9,1582.4,3463.7,1312.4,1185.9,3480.7,3480.7,1620.9,2273.4,2789.0,3479.5,1724.4,3495.3,3484.4,3478.3,670.9,852.0,1694.8,982.5,934.7,859.5,-5.0,-7.0,1.0,5218.0,-7483.0,10972.0,-8051.0,29.0,17.0,1.0,2.0,-4.0,13.0,4807.0,-8646.0,-11261.0,6616.0,31.0,-7.0,0.0,1.0
2022-05-23 15:03:36.757371-07:00,1337.7,848.6,1086.0,975.6,915.2,944.9,1768.5,1300.7,3468.6,3475.9,1155.0,888.2,1582.4,3463.7,1312.4,1181.5,3467.4,3480.7,1620.9,2273.4,2779.0,3496.6,1726.3,3495.3,3481.9,3478.3,670.9,852.0,1692.9,978.2,930.5,859.5,1.0,6.0,4.0,5222.0,-7477.0,10969.0,-8058.0,19.0,5.0,3.0,4.0,0.0,9.0,4813.0,-8643.0,-11256.0,6624.0,3.0,4.0,7.0,1.0
2022-05-23 15:03:36.787324-07:00,1342.2,848.6,1086.0,975.6,917.7,951.7,1761.8,1300.7,3461.3,3475.9,1155.0,888.2,1573.9,3474.6,1317.8,1181.5,3467.4,3469.8,1627.5,2271.4,2779.0,3496.6,1726.3,3486.8,3481.9,3473.4,666.8,844.4,1692.9,978.2,930.5,854.5,0.0,-12.0,3.0,5216.0,-7475.0,10972.0,-8061.0,-2.0,25.0,-13.0,2.0,-11.0,12.0,4813.0,-8644.0,-11256.0,6622.0,4.0,6.0,10.0,1.0
2022-05-23 15:03:36.847365-07:00,1342.2,857.0,1077.3,979.9,917.7,951.7,1761.8,1314.2,3461.3,3464.9,1160.3,886.5,1573.9,3474.6,1317.8,1178.8,3472.2,3469.8,1627.5,2271.4,2782.4,3481.9,1718.6,3486.8,3478.3,3473.4,666.8,844.4,1701.4,983.3,927.1,854.5,-3.0,4.0,-4.0,5214.0,-7463.0,10967.0,-8079.0,51.0,47.0,13.0,5.0,3.0,9.0,4818.0,-8643.0,-11249.0,6632.0,41.0,-8.0,5.0,1.0
2022-05-23 15:03:37.117285-07:00,1335.9,857.0,1077.3,979.9,921.1,946.6,1761.8,1314.2,3474.6,3464.9,1160.3,886.5,1582.4,3464.9,1310.6,1178.8,3472.2,3471.0,1619.9,2262.1,2782.4,3481.9,1718.6,3486.8,3478.3,3475.9,666.8,848.6,1701.4,983.3,927.1,851.1,0.0,7.0,-2.0,5214.0,-7457.0,10972.0,-8078.0,-51.0,-21.0,4.0,0.0,-2.0,6.0,4819.0,-8642.0,-11248.0,6634.0,-32.0,-4.0,-6.0,1.0
2022-05-23 15:03:37.147217-07:00,1335.9,838.6,1079.0,978.2,921.1,946.6,1761.8,1295.4,3474.6,3464.9,1157.7,887.3,1582.4,3464.9,1310.6,1191.2,3469.8,3471.0,1619.9,2262.1,2774.6,3496.6,1715.8,3486.8,3478.3,3475.9,666.8,848.6,1692.9,985.9,925.4,851.1,-3.0,-1.0,1.0,5214.0,-7459.0,10967.0,-8083.0,88.0,15.0,-13.0,-1.0,-4.0,6.0,4820.0,-8640.0,-11247.0,6638.0,66.0,-2.0,0.0,1.0
2022-05-23 15:03:37.148516-07:00,1331.4,827.7,1079.0,978.2,929.6,947.5,1765.6,1295.4,3467.4,3466.1,1157.7,887.3,1585.2,3468.6,1309.7,1191.2,3469.8,3478.3,1622.8,2262.1,2774.6,3496.6,1710.0,3492.9,3478.3,3477.1,668.4,842.8,1692.9,985.9,925.4,860.4,-1.0,-1.0,3.0,5218.0,-7442.0,10957.0,-8110.0,63.0,43.0,-8.0,2.0,-5.0,11.0,4831.0,-8635.0,-11236.0,6654.0,42.0,-4.0,21.0,1.0
2022-05-23 15:03:37.149455-07:00,1331.4,827.7,1078.2,980.7,929.6,947.5,1783.9,1316.0,3467.4,3466.1,1158.6,878.0,1585.2,3468.6,1336.8,1189.4,3473.4,3469.8,1622.8,2262.1,2819.1,3496.6,1710.0,3492.9,3475.9,3467.4,668.4,842.8,1691.9,980.7,925.4,860.4,-1.0,-72.0,41.0,5196.0,-7394.0,10971.0,-8148.0,106.0,273.0,107.0,9.0,-27.0,10.0,4841.0,-8632.0,-11212.0,6691.0,285.0,-39.0,76.0,1.0
2022-05-23 15:03:37.150606-07:00,1321.4,839.4,1078.2,980.7,916.0,958.5,1783.9,1316.0,3462.5,3462.5,1158.6,878.0,1585.2,3467.4,1336.8,1189.4,3473.4,3469.8,1622.8,2275.5,2819.1,3496.6,1717.7,3481.9,3475.9,3467.4,667.6,862.9,1691.9,980.7,963.7,852.8,13.0,22.0,14.0,5202.0,-7206.0,10960.0,-8327.0,585.0,433.0,114.0,2.0,-2.0,6.0,4894.0,-8608.0,-11127.0,6825.0,424.0,-45.0,120.0,1.0
2022-05-23 15:03:37.151762-07:00,1321.4,839.4,1096.4,1009.9,916.0,958.5,1902.6,1397.6,3462.5,3462.5,1203.5,901.7,1585.2,3467.4,1503.2,1213.3,3468.6,3472.2,1622.8,2275.5,2795.7,3486.8,1717.7,3481.9,3477.1,3480.7,667.6,862.9,1698.6,1027.1,963.7,852.8,-5.0,45.0,15.0,5138.0,-7000.0,10927.0,-8581.0,438.0,666.0,-21.0,0.0,10.0,30.0,4929.0,-8594.0,-11051.0,6940.0,201.0,-46.0,91.0,1.0
2022-05-23 15:03:37.207490-07:00,1338.6,860.4,1096.4,1009.9,917.7,1008.2,1902.6,1397.6,3467.4,3469.8,1203.5,901.7,1581.4,3473.4,1503.2,1213.3,3468.6,3472.2,1627.5,2282.8,2795.7,3486.8,1724.4,3488.0,3477.1,3480.7,689.7,888.2,1698.6,1027.1,1007.3,865.4,-42.0,78.0,-111.0,5041.0,-6861.0,10899.0,-8784.0,233.0,272.0,-107.0,13.0,18.0,34.0,4943.0,-8604.0,-11008.0,6985.0,76.0,29.0,69.0,1.0
2022-05-23 15:03:37.237193-07:00,1338.6,860.4,1141.0,1028.8,917.7,1045.2,1899.7,1441.5,3467.4,3469.8,1341.3,941.5,1581.4,3467.4,1797.4,1316.9,3477.1,3474.6,1619.9,2282.8,2839.2,3477.1,1724.4,3488.0,3474.6,3473.4,695.4,888.2,1700.5,1062.5,1007.3,865.4,-30.0,-48.0,-43.0,5008.0,-6934.0,10914.0,-8727.0,-233.0,-206.0,-107.0,-41.0,-25.0,-8.0,4898.0,-8637.0,-11035.0,6934.0,-148.0,-16.0,17.0,1.0
2022-05-23 15:03:37.417889-07:00,1341.3,856.2,1150.6,1028.8,919.4,1045.2,1899.7,1441.5,3472.2,3473.4,1386.6,941.5,1587.1,3467.4,1797.4,1316.9,3477.1,3474.6,1619.9,2303.5,2839.2,3481.9,1709.1,3488.0,3474.6,3473.4,695.4,934.7,1700.5,1069.5,1014.2,867.1,1.0,0.0,-5.0,5116.0,-6962.0,10857.0,-8713.0,147.0,-221.0,100.0,-17.0,3.0,-7.0,4925.0,-8596.0,-11019.0,6991.0,219.0,-68.0,-40.0,1.0
2022-05-23 15:03:37.477852-07:00,1341.3,856.2,1150.6,1042.6,919.4,1047.8,1884.0,1417.6,3472.2,3473.4,1386.6,979.0,1587.1,3457.6,1699.5,1267.6,3483.2,3467.4,1611.5,2303.5,2841.4,3481.9,1709.1,3488.0,3474.6,3474.6,695.4,934.7,1696.7,1069.5,1014.2,867.1,-28.0,44.0,4.0,5212.0,-6943.0,10799.0,-8744.0,326.0,-123.0,42.0,5.0,0.0,34.0,4974.0,-8545.0,-10983.0,7075.0,291.0,-20.0,-15.0,1.0
2022-05-23 15:03:37.478824-07:00,1347.6,841.1,1145.4,1042.6,921.1,1047.8,1884.0,1417.6,3478.3,3468.6,1374.8,979.0,1588.9,3457.6,1699.5,1267.6,3483.2,3467.4,1611.5,2312.9,2841.4,3488.0,1697.6,3481.9,3474.6,3474.6,695.4,928.8,1696.7,1057.3,1008.2,869.6,19.0,-3.0,10.0,5286.0,-6959.0,10728.0,-8774.0,109.0,-153.0,-75.0,10.0,-6.0,8.0,5012.0,-8518.0,-10961.0,7115.0,70.0,-8.0,-33.0,1.0
2022-05-23 15:03:37.508386-07:00,1347.6,841.1,1145.4,1033.2,921.1,1035.7,1885.0,1393.9,3478.3,3468.6,1374.8,973.1,1588.9,3474.6,1672.9,1238.2,3474.6,3473.4,1615.2,2312.9,2838.0,3488.0,1697.6,3481.9,3484.4,3473.4,697.0,928.8,1694.8,1057.3,1008.2,869.6,-14.0,-8.0,12.0,5319.0,-6980.0,10663.0,-8816.0,118.0,-32.0,-64.0,12.0,-16.0,36.0,5039.0,-8487.0,-10953.0,7145.0,84.0,-21.0,-36.0,1.0
2022-05-23 15:03:37.538269-07:00,1334.1,836.9,1141.0,1031.4,911.8,1035.7,1885.0,1393.9,3471.0,3462.5,1372.1,965.4,1593.6,3474.6,1672.9,1238.2,3474.6,3473.4,1615.2,2304.5,2828.0,3492.9,1687.2,3489.2,3484.4,3473.4,697.0,926.2,1698.6,1056.5,1001.3,864.6,27.0,16.0,6.0,5348.0,-7003.0,10627.0,-8824.0,43.0,-94.0,-45.0,0.0,10.0,-10.0,5054.0,-8474.0,-10949.0,7155.0,-10.0,5.0,-14.0,1.0
2022-05-23 15:03:37.567924-07:00,1334.1,836.9,1141.0,1031.4,919.4,1023.7,1912.4,1403.0,3471.0,3462.5,1372.1,965.4,1586.1,3464.9,1665.3,1239.1,3467.4,3478.3,1608.7,2290.0,2828.0,3492.9,1687.2,3489.2,3475.9,3479.5,691.3,922.0,1698.6,1056.5,1001.3,864.6,-17.0,-14.0,1.0,5336.0,-7010.0,10618.0,-8837.0,35.0,62.0,-22.0,0.0,-13.0,20.0,5053.0,-8472.0,-10955.0,7149.0,19.0,-5.0,-9.0,1.0
2022-05-23 15:03:37.597738-07:00,1337.7,848.6,1135.7,1024.5,919.4,1023.7,1912.4,1403.0,3471.0,3473.4,1362.1,969.6,1586.1,3464.9,1665.3,1239.1,3467.4,3478.3,1608.7,2290.0,2830.2,3490.5,1679.5,3483.2,3475.9,3479.5,691.3,922.0,1691.0,1059.1,1005.6,860.4,2.0,1.0,-6.0,5335.0,-7006.0,10611.0,-8848.0,5.0,9.0,-7.0,0.0,0.0,6.0,5059.0,-8473.0,-10948.0,7155.0,5.0,14.0,12.0,1.0
2022-05-23 15:03:37.657997-07:00,1337.7,848.6,1135.7,1024.5,912.7,1025.4,1863.5,1414.0,3471.0,3473.4,1362.1,969.6,1597.4,3472.2,1655.8,1233.7,3472.2,3467.4,1603.0,2300.4,2830.2,3490.5,1679.5,3483.2,3466.1,3471.0,690.5,914.4,1691.0,1059.1,1005.6,860.4,4.0,11.0,-11.0,5333.0,-7001.0,10611.0,-8854.0,24.0,13.0,-5.0,6.0,6.0,1.0,5064.0,-8474.0,-10946.0,7154.0,1.0,6.0,-8.0,1.0
2022-05-23 15:03:37.687785-07:00,1327.8,831.1,1134.9,1042.6,912.7,1025.4,1863.5,1414.0,3481.9,3466.1,1349.4,966.2,1597.4,3472.2,1655.8,1233.7,3472.2,3467.4,1603.0,2300.4,2823.5,3480.7,1675.7,3497.8,3466.1,3471.0,690.5,914.4,1692.9,1045.2,1002.2,861.2,2.0,-1.0,-4.0,5334.0,-7009.0,10601.0,-8859.0,32.0,-31.0,-38.0,3.0,-3.0,10.0,5067.0,-8468.0,-10949.0,7153.0,3.0,-11.0,-17.0,1.0
2022-05-23 15:03:38.077000-07:00,1327.8,831.1,1134.9,1042.6,912.7,1025.4,1869.3,1405.8,3481.9,3466.1,1349.4,966.2,1587.1,3473.4,1646.4,1231.0,3486.8,3477.1,1602.1,2291.0,2823.5,3480.7,1675.7,3497.8,3479.5,3478.3,685.6,917.7,1692.9,1045.2,1002.2,861.2,3.0,-3.0,10.0,5340.0,-7021.0,10590.0,-8858.0,0.0,-11.0,4.0,3.0,-1.0,4.0,5068.0,-8462.0,-10953.0,7153.0,1.0,-13.0,-11.0,1.0
2022-05-23 15:03:38.078174-07:00,1313.3,831.9,1142.7,1039.2,912.7,1025.4,1869.3,1387.5,3469.8,3478.3,1351.2,964.5,1587.1,3473.4,1646.4,1227.5,3475.9,3477.1,1602.1,2291.0,2826.9,3486.8,1680.5,3492.9,3473.4,3478.3,685.6,917.7,1691.0,1059.1,1006.5,866.3,-4.0,4.0,2.0,5337.0,-7015.0,10586.0,-8870.0,25.0,16.0,-32.0,3.0,-3.0,20.0,5076.0,-8457.0,-10953.0,7155.0,-9.0,15.0,-12.0,1.0
2022-05-23 15:03:38.079121-07:00,1321.4,831.9,1142.7,1039.2,923.7,1022.8,1863.5,1387.5,3477.1,3478.3,1351.2,964.5,1589.9,3474.6,1646.4,1227.5,3475.9,3478.3,1599.3,2289.0,2826.9,3486.8,1680.5,3486.8,3473.4,3475.9,685.6,907.6,1691.0,1059.1,1006.5,867.1,-7.0,-8.0,-11.0,5323.0,-7018.0,10572.0,-8894.0,38.0,45.0,-51.0,-4.0,-1.0,9.0,5079.0,-8459.0,-10955.0,7147.0,-12.0,14.0,-8.0,1.0
2022-05-23 15:03:38.080316-07:00,1321.4,836.9,1148.0,1037.5,923.7,1022.8,1863.5,1412.2,3477.1,3474.6,1352.1,956.0,1589.9,3474.6,1646.4,1228.4,3469.8,3478.3,1599.3,2289.0,2797.9,3497.8,1666.3,3486.8,3478.3,3475.9,685.6,907.6,1693.8,1054.8,999.6,867.1,11.0,-1.0,-8.0,5319.0,-7016.0,10573.0,-8896.0,8.0,-9.0,23.0,0.0,-3.0,0.0,5080.0,-8459.0,-10953.0,7148.0,12.0,-6.0,2.0,1.0
2022-05-23 15:03:38.258249-07:00,1319.6,836.9,1148.0,1037.5,911.8,1014.2,1862.5,1412.2,3468.6,3474.6,1352.1,956.0,1592.7,3469.8,1650.2,1228.4,3469.8,3480.7,1598.3,2285.9,2797.9,3497.8,1666.3,3492.9,3478.3,3472.2,682.3,900.0,1693.8,1054.8,999.6,859.5,2.0,0.0,-2.0,5322.0,-7012.0,10574.0,-8896.0,11.0,0.0,3.0,8.0,-1.0,6.0,5080.0,-8454.0,-10953.0,7155.0,12.0,-12.0,-9.0,1.0
2022-05-23 15:03:38.260324-07:00,1319.6,839.4,1141.0,1025.4,911.8,1014.2,1862.5,1402.1,3468.6,3478.3,1346.7,964.5,1592.7,3469.8,1650.2,1226.6,3474.6,3480.7,1598.3,2285.9,2813.5,3502.7,1672.9,3492.9,3467.4,3472.2,682.3,900.0,1694.8,1065.1,1003.9,859.5,0.0,0.0,2.0,5328.0,-7015.0,10570.0,-8895.0,7.0,-27.0,-7.0,4.0,0.0,15.0,5083.0,-8452.0,-10951.0,7158.0,1.0,-2.0,-4.0,1.0
2022-05-23 15:03:38.260993-07:00,1319.6,839.4,1141.0,1025.4,911.8,1014.2,1862.5,1402.1,3468.6,3478.3,1346.7,964.5,1592.7,3469.8,1650.2,1226.6,3474.6,3480.7,1598.3,2285.9,2813.5,3502.7,1672.9,3492.9,3467.4,3472.2,682.3,900.0,1694.8,1065.1,1003.9,859.5,0.0,0.0,2.0,5328.0,-7015.0,10570.0,-8895.0,7.0,-27.0,-7.0,4.0,0.0,15.0,5083.0,-8452.0,-10951.0,7158.0,1.0,-2.0,-4.0,1.0
2022-05-23 15:03:38.287262-07:00,1310.6,831.9,1142.7,1032.3,919.4,1020.2,1857.6,1389.4,3460.1,3469.8,1345.8,966.2,1584.2,3463.7,1640.7,1225.7,3469.8,3480.7,1603.0,2292.1,2821.3,3490.5,1665.3,3484.4,3471.0,3484.4,680.7,909.3,1706.2,1064.3,1005.6,853.7,6.0,3.0,-8.0,5321.0,-7009.0,10581.0,-8891.0,26.0,0.0,33.0,2.0,-1.0,2.0,5079.0,-8459.0,-10948.0,7158.0,25.0,9.0,23.0,1.0
2022-05-23 15:03:38.289170-07:00,1310.6,831.9,1146.3,1042.6,919.4,1020.2,1845.0,1404.0,3460.1,3469.8,1337.7,967.1,1584.2,3463.7,1638.8,1221.3,3466.1,3478.3,1603.0,2292.1,2820.2,3491.7,1665.3,3484.4,3471.0,3474.6,680.7,909.3,1690.0,1064.3,1005.6,853.7,3.0,-6.0,0.0,5317.0,-7005.0,10586.0,-8890.0,-26.0,17.0,-1.0,6.0,1.0,11.0,5076.0,-8463.0,-10945.0,7158.0,-25.0,3.0,11.0,1.0
2022-05-23 15:03:38.290215-07:00,1327.8,833.6,1146.3,1042.6,916.0,1007.3,1845.0,1404.0,3474.6,3466.1,1337.7,967.1,1581.4,3473.4,1638.8,1221.3,3466.1,3478.3,1602.1,2283.8,2820.2,3491.7,1665.3,3489.2,3471.0,3474.6,686.4,898.3,1690.0,1064.3,1002.2,857.9,7.0,-5.0,2.0,5312.0,-7008.0,10590.0,-8885.0,4.0,7.0,-9.0,2.0,-5.0,3.0,5072.0,-8468.0,-10946.0,7154.0,-16.0,-1.0,3.0,1.0
2022-05-23 15:03:38.347258-07:00,1316.0,836.9,1145.4,1038.3,916.9,1009.9,1856.7,1390.3,3474.6,3472.2,1337.7,962.8,1581.4,3468.6,1625.6,1216.8,3471.0,3471.0,1599.3,2282.8,2821.3,3495.3,1651.1,3480.7,3463.7,3472.2,683.1,897.4,1698.6,1058.2,995.3,850.3,-8.0,3.0,-11.0,5310.0,-7006.0,10592.0,-8886.0,-6.0,-5.0,-6.0,-2.0,0.0,11.0,5067.0,-8472.0,-10947.0,7151.0,-19.0,0.0,16.0,1.0
2022-05-23 15:03:38.587002-07:00,1316.0,836.9,1145.4,1033.2,916.9,1010.8,1839.1,1392.1,3474.6,3472.2,1337.7,964.5,1581.4,3469.8,1621.8,1231.9,3478.3,3469.8,1606.8,2282.8,2816.8,3495.3,1651.1,3480.7,3477.1,3474.6,679.1,897.4,1693.8,1058.2,995.3,850.3,-6.0,-6.0,-10.0,5305.0,-7011.0,10599.0,-8877.0,-35.0,5.0,6.0,1.0,-5.0,12.0,5057.0,-8479.0,-10949.0,7147.0,-19.0,-14.0,10.0,1.0
2022-05-23 15:03:38.588371-07:00,1320.5,841.1,1156.8,1033.2,912.7,1010.8,1839.1,1392.1,3467.4,3471.0,1327.8,964.5,1586.1,3469.8,1621.8,1231.9,3478.3,3469.8,1606.8,2280.7,2816.8,3502.7,1660.6,3494.1,3477.1,3474.6,679.1,902.5,1693.8,1057.3,995.3,862.1,3.0,5.0,-5.0,5313.0,-7016.0,10601.0,-8866.0,-19.0,-39.0,11.0,1.0,0.0,8.0,5050.0,-8479.0,-10951.0,7151.0,-12.0,-19.0,2.0,1.0
2022-05-23 15:03:38.589967-07:00,1320.5,841.1,1156.8,1028.8,912.7,1015.1,1829.4,1382.1,3467.4,3471.0,1327.8,962.8,1586.1,3467.4,1629.4,1222.2,3477.1,3467.4,1609.6,2280.7,2817.9,3502.7,1660.6,3494.1,3485.6,3473.4,679.1,902.5,1695.7,1057.3,995.3,862.1,7.0,4.0,11.0,5319.0,-7023.0,10599.0,-8860.0,2.0,-3.0,-8.0,6.0,-4.0,15.0,5046.0,-8476.0,-10953.0,7152.0,-3.0,-5.0,-11.0,1.0
2022-05-23 15:03:38.591291-07:00,1312.4,843.6,1136.6,1028.8,919.4,1015.1,1829.4,1382.1,3467.4,3460.1,1329.6,962.8,1573.9,3467.4,1629.4,1222.2,3477.1,3467.4,1609.6,2265.2,2817.9,3489.2,1657.7,3486.8,3485.6,3473.4,679.1,900.8,1695.7,1053.9,1006.5,865.4,-7.0,-4.0,6.0,5310.0,-7024.0,10601.0,-8862.0,-25.0,18.0,-7.0,2.0,-7.0,13.0,5045.0,-8477.0,-10956.0,7148.0,-29.0,16.0,3.0,1.0
