Time,P0,P1,P2,P3,P4,P5,P6,P7,P8,P9,P10,P11,P12,P13,P14,P15,P16,P17,P18,P19,P20,P21,P22,P23,P24,P25,P26,P27,P28,P29,P30,P31,ECG,AX0,AY0,AZ0,QW0,QX0,QY0,QZ0,GX0,GY0,GZ0,AX1,AY1,AZ1,QW1,QX1,QY1,QZ1,GX1,GY1,GZ1
2022-05-23 15:51:34.879035-07:00,1218.6,767.8,1042.6,947.5,855.3,967.9,1920.3,1345.8,3462.5,3466.1,1034.9,821.0,1620.9,3471.0,1242.6,1179.7,3464.9,3463.7,1640.7,2012.4,2708.4,3501.4,1659.6,3478.3,3474.6,3477.1,688.9,771.1,2044.4,1012.5,965.4,811.9,15.0,-53.0,-3.0,10452.0,-12016.0,2022.0,3274.0,125.0,37.0,-51.0,35.0,-52.0,43.0,9280.0,-13051.0,3280.0,-1117.0,87.0,-19.0,-35.0,1.0
2022-05-23 15:51:34.968999-07:00,1218.6,767.8,1042.6,939.8,855.3,967.9,1911.5,1352.1,3462.5,3466.1,1035.7,822.7,1620.9,3471.0,1244.4,1176.2,3467.4,3471.0,1640.7,2012.4,2699.6,3495.3,1659.6,3478.3,3464.9,3473.4,688.9,771.1,2056.4,998.7,965.4,811.9,59.0,-46.0,2.0,10483.0,-11994.0,2006.0,3267.0,14.0,33.0,23.0,23.0,-6.0,-4.0,9295.0,-13041.0,3275.0,-1121.0,-34.0,15.0,27.0,1.0
2022-05-23 15:51:34.970265-07:00,1203.5,762.9,1042.6,939.8,852.0,950.9,1911.5,1352.1,3464.9,3471.0,1035.7,822.7,1616.2,3466.1,1244.4,1176.2,3467.4,3471.0,1638.8,2018.4,2699.6,3495.3,1659.6,3483.2,3464.9,3473.4,682.3,770.3,2056.4,998.7,963.7,826.0,5.0,-15.0,-38.0,10461.0,-12006.0,2083.0,3246.0,-78.0,259.0,218.0,14.0,-26.0,13.0,9277.0,-13049.0,3296.0,-1116.0,-79.0,35.0,57.0,1.0
2022-05-23 15:51:35.058497-07:00,1203.5,762.9,1024.5,944.9,852.0,956.0,1885.0,1357.6,3464.9,3471.0,1039.2,821.9,1616.2,3464.9,1242.6,1167.4,3472.2,3480.7,1636.0,2018.4,2691.9,3499.0,1659.6,3483.2,3472.2,3480.7,672.5,770.3,2044.4,1003.9,963.7,826.0,42.0,-15.0,-20.0,10381.0,-12056.0,2200.0,3239.0,-198.0,317.0,209.0,9.0,8.0,-12.0,9219.0,-13080.0,3338.0,-1095.0,-211.0,26.0,90.0,1.0
2022-05-23 15:51:35.088415-07:00,1200.9,766.2,1037.5,944.9,847.0,956.0,1885.0,1357.6,3467.4,3462.5,1031.4,821.9,1621.8,3464.9,1242.6,1167.4,3472.2,3480.7,1636.0,2026.4,2691.9,3497.8,1637.9,3483.2,3472.2,3480.7,672.5,769.5,2044.4,1015.9,960.2,830.2,38.0,5.0,-34.0,10288.0,-12128.0,2337.0,3171.0,-48.0,343.0,168.0,26.0,5.0,5.0,9168.0,-13107.0,3380.0,-1074.0,-75.0,41.0,83.0,1.0
2022-05-23 15:51:35.118625-07:00,1200.9,766.2,1037.5,966.2,847.0,959.4,1859.6,1348.5,3467.4,3462.5,1031.4,822.7,1621.8,3473.4,1257.8,1181.5,3478.3,3464.9,1634.1,2026.4,2696.3,3497.8,1637.9,3483.2,3477.1,3472.2,684.0,769.5,2040.4,1015.9,960.2,830.2,46.0,25.0,-66.0,10254.0,-12149.0,2440.0,3121.0,-9.0,137.0,35.0,12.0,36.0,-24.0,9156.0,-13110.0,3405.0,-1069.0,-22.0,8.0,42.0,1.0
2022-05-23 15:51:35.208490-07:00,1190.3,748.8,1046.1,966.2,852.0,959.4,1859.6,1348.5,3464.9,3469.8,1031.4,822.7,1622.8,3473.4,1257.8,1181.5,3478.3,3464.9,1634.1,2019.4,2696.3,3492.9,1622.8,3497.8,3477.1,3472.2,684.0,775.3,2040.4,1015.9,982.5,831.9,33.0,12.0,-36.0,10204.0,-12198.0,2478.0,3061.0,-141.0,155.0,-14.0,15.0,-10.0,4.0,9123.0,-13134.0,3405.0,-1054.0,-138.0,-17.0,-16.0,1.0
2022-05-23 15:51:35.238379-07:00,1190.3,748.8,1046.1,985.9,852.0,973.1,1852.8,1363.0,3464.9,3469.8,1031.4,825.2,1622.8,3474.6,1267.6,1180.6,3473.4,3472.2,1634.1,2019.4,2682.1,3492.9,1622.8,3497.8,3469.8,3467.4,675.0,775.3,2041.4,1015.9,982.5,831.9,16.0,-12.0,-19.0,10172.0,-12234.0,2500.0,3008.0,44.0,91.0,-31.0,5.0,5.0,14.0,9114.0,-13141.0,3401.0,-1053.0,46.0,-2.0,-10.0,1.0
2022-05-23 15:51:35.328495-07:00,1195.6,755.4,1043.5,977.3,847.0,973.1,1852.8,1363.0,3478.3,3462.5,1027.1,819.4,1624.7,3474.6,1267.6,1180.6,3473.4,3472.2,1634.1,2025.4,2683.2,3497.8,1620.9,3488.0,3469.8,3467.4,675.0,770.3,2036.4,1023.7,973.9,813.5,44.0,-2.0,-21.0,10174.0,-12238.0,2503.0,2983.0,-31.0,-27.0,-21.0,25.0,0.0,1.0,9122.0,-13137.0,3396.0,-1059.0,-13.0,-2.0,-17.0,1.0
2022-05-23 15:51:35.329485-07:00,1195.6,755.4,1043.5,977.3,857.0,964.5,1866.4,1333.2,3478.3,3462.5,1027.1,819.4,1623.7,3457.6,1263.1,1183.2,3478.3,3478.3,1626.5,1998.5,2683.2,3497.8,1620.9,3488.0,3472.2,3475.9,673.3,770.3,2036.4,1023.7,973.9,813.5,25.0,-4.0,-8.0,10164.0,-12258.0,2477.0,2958.0,6.0,-1.0,-67.0,14.0,-3.0,5.0,9122.0,-13139.0,3382.0,-1070.0,21.0,4.0,-33.0,1.0
2022-05-23 15:51:35.418607-07:00,1181.5,757.9,1036.6,978.2,857.0,964.5,1866.4,1333.2,3473.4,3458.9,1034.9,820.2,1623.7,3457.6,1263.1,1183.2,3478.3,3478.3,1626.5,1998.5,2678.8,3491.7,1617.1,3491.7,3472.2,3475.9,673.3,770.3,2024.4,1028.8,975.6,821.9,15.0,-15.0,-10.0,10175.0,-12263.0,2449.0,2922.0,9.0,56.0,-71.0,4.0,-5.0,8.0,9127.0,-13138.0,3367.0,-1083.0,-10.0,3.0,-44.0,1.0
2022-05-23 15:51:35.419883-07:00,1181.5,757.9,1036.6,978.2,847.8,963.7,1861.5,1335.9,3473.4,3458.9,1034.9,820.2,1619.9,3472.2,1262.2,1177.9,3462.5,3472.2,1635.0,2011.4,2678.8,3491.7,1617.1,3491.7,3478.3,3478.3,674.2,770.3,2024.4,1028.8,975.6,821.9,9.0,-25.0,-9.0,10170.0,-12277.0,2436.0,2891.0,-41.0,18.0,-45.0,5.0,-21.0,4.0,9116.0,-13148.0,3358.0,-1089.0,-45.0,10.0,-12.0,1.0
2022-05-23 15:51:35.478448-07:00,1179.7,746.3,1025.4,966.2,847.8,963.7,1861.5,1335.9,3478.3,3463.7,1027.1,819.4,1619.9,3472.2,1262.2,1177.9,3462.5,3472.2,1635.0,2011.4,2674.4,3491.7,1611.5,3481.9,3478.3,3478.3,674.2,770.3,2021.4,1009.9,971.3,814.4,3.0,19.0,-37.0,10162.0,-12291.0,2426.0,2866.0,-58.0,32.0,-38.0,-16.0,13.0,2.0,9103.0,-13159.0,3351.0,-1080.0,-70.0,-55.0,-30.0,1.0
2022-05-23 15:51:35.538796-07:00,1178.8,746.3,1025.4,966.2,847.0,963.7,1840.1,1330.5,3462.5,3463.7,1027.1,819.4,1619.9,3466.1,1247.1,1179.7,3480.7,3469.8,1629.4,2006.4,2674.4,3491.7,1611.5,3486.8,3477.1,3472.2,676.6,771.1,2021.4,1009.9,971.3,831.9,65.0,-16.0,-3.0,10128.0,-12326.0,2409.0,2849.0,-128.0,35.0,-99.0,44.0,5.0,7.0,9064.0,-13198.0,3309.0,-1060.0,-138.0,-50.0,-84.0,1.0
2022-05-23 15:51:35.568742-07:00,1178.8,744.7,1029.7,963.7,847.0,963.7,1840.1,1338.6,3462.5,3473.4,1032.3,819.4,1619.9,3466.1,1247.1,1189.4,3475.9,3469.8,1629.4,2006.4,2674.4,3495.3,1617.1,3486.8,3467.4,3472.2,676.6,771.1,2027.4,1013.3,976.5,831.9,26.0,-38.0,-24.0,10104.0,-12359.0,2393.0,2808.0,-37.0,121.0,-21.0,21.0,-12.0,-3.0,9027.0,-13223.0,3308.0,-1079.0,-64.0,87.0,-16.0,1.0
2022-05-23 15:51:35.628690-07:00,1192.9,744.7,1029.7,963.7,842.8,958.5,1849.8,1338.6,3473.4,3473.4,1032.3,819.4,1619.9,3471.0,1252.4,1189.4,3475.9,3483.2,1628.4,2044.4,2674.4,3495.3,1617.1,3492.9,3467.4,3479.5,673.3,776.9,2027.4,1013.3,976.5,826.9,-50.0,-9.0,-42.0,10087.0,-12374.0,2412.0,2784.0,-10.0,-34.0,-10.0,-64.0,-30.0,-2.0,9008.0,-13230.0,3324.0,-1101.0,9.0,46.0,-4.0,1.0
2022-05-23 15:51:35.688415-07:00,1192.9,752.9,1028.0,958.5,842.8,958.5,1849.8,1337.7,3473.4,3467.4,1028.0,818.5,1619.9,3471.0,1252.4,1170.0,3469.8,3483.2,1628.4,2044.4,2666.8,3492.9,1616.2,3492.9,3478.3,3479.5,673.3,776.9,2041.4,1018.5,967.9,826.9,14.0,-39.0,16.0,10121.0,-12333.0,2464.0,2798.0,271.0,259.0,476.0,-12.0,26.0,-7.0,9082.0,-13178.0,3322.0,-1120.0,300.0,-12.0,26.0,1.0
2022-05-23 15:51:35.718688-07:00,1175.3,752.9,1028.0,958.5,850.3,967.1,1847.9,1337.7,3473.4,3467.4,1028.0,818.5,1609.6,3473.4,1253.3,1170.0,3469.8,3466.1,1624.7,2001.5,2666.8,3492.9,1616.2,3477.1,3478.3,3471.0,679.9,770.3,2041.4,1018.5,967.9,821.0,-27.0,65.0,-13.0,10121.0,-12278.0,2722.0,2798.0,-10.0,214.0,225.0,6.0,-24.0,59.0,9149.0,-13127.0,3328.0,-1154.0,51.0,45.0,-16.0,1.0
2022-05-23 15:51:35.778995-07:00,1175.3,746.3,1036.6,967.1,850.3,967.1,1841.1,1355.8,3473.4,3467.4,1028.0,814.4,1609.6,3473.4,1253.3,1177.0,3474.6,3473.4,1624.7,2001.5,2666.8,3491.7,1616.2,3477.1,3474.6,3478.3,679.9,770.3,2024.4,1021.1,980.7,821.0,43.0,2.0,4.0,10058.0,-12322.0,2775.0,2782.0,-237.0,125.0,-54.0,35.0,-2.0,33.0,9079.0,-13169.0,3348.0,-1165.0,-263.0,69.0,-21.0,1.0
2022-05-23 15:51:35.838459-07:00,1176.2,752.1,1036.6,967.1,842.8,958.5,1841.1,1355.8,3471.0,3469.8,1028.0,814.4,1607.7,3471.0,1253.3,1177.0,3474.6,3473.4,1626.5,1996.5,2666.8,3491.7,1615.2,3492.9,3474.6,3478.3,673.3,771.1,2024.4,1021.1,974.8,821.9,-3.0,-31.0,-12.0,9982.0,-12392.0,2741.0,2779.0,-69.0,-250.0,-89.0,4.0,-41.0,59.0,9009.0,-13214.0,3365.0,-1158.0,-8.0,-2.0,37.0,1.0
2022-05-23 15:51:35.869003-07:00,1176.2,752.1,1034.9,957.7,842.8,958.5,1831.3,1351.2,3471.0,3469.8,1029.7,820.2,1607.7,3471.0,1250.6,1163.8,3468.6,3480.7,1626.5,1996.5,2671.1,3486.8,1615.2,3492.9,3468.6,3478.3,673.3,771.1,2017.4,1023.7,974.8,821.9,95.0,-29.0,36.0,10052.0,-12334.0,2660.0,2863.0,317.0,-233.0,127.0,71.0,44.0,3.0,9099.0,-13142.0,3407.0,-1147.0,313.0,26.0,201.0,1.0
2022-05-23 15:51:35.928666-07:00,1188.5,743.0,1034.9,957.7,843.6,959.4,1831.3,1351.2,3457.6,3467.4,1029.7,820.2,1615.2,3471.0,1250.6,1163.8,3468.6,3480.7,1623.7,2009.4,2671.1,3486.8,1604.9,3485.6,3468.6,3478.3,675.0,772.8,2017.4,1023.7,973.1,820.2,18.0,6.0,-92.0,10123.0,-12257.0,2689.0,2911.0,-3.0,-84.0,-71.0,31.0,-87.0,-4.0,9141.0,-13094.0,3473.0,-1159.0,-16.0,112.0,41.0,1.0
2022-05-23 15:51:35.958431-07:00,1188.5,743.0,1042.6,963.7,843.6,959.4,1838.2,1338.6,3457.6,3467.4,1030.6,818.5,1615.2,3471.0,1244.4,1167.4,3467.4,3469.8,1623.7,2009.4,2675.5,3489.2,1604.9,3485.6,3467.4,3469.8,675.0,772.8,2009.4,1011.6,973.1,820.2,123.0,-155.0,47.0,10155.0,-12244.0,2557.0,2976.0,151.0,-396.0,-57.0,139.0,-35.0,-39.0,9139.0,-13069.0,3568.0,-1180.0,106.0,243.0,282.0,1.0
2022-05-23 15:51:36.019115-07:00,1192.9,744.7,1042.6,963.7,844.4,955.1,1838.2,1338.6,3471.0,3469.8,1030.6,818.5,1610.5,3473.4,1244.4,1167.4,3467.4,3469.8,1621.8,2008.4,2675.5,3489.2,1609.6,3486.8,3467.4,3469.8,670.1,767.0,2009.4,1011.6,973.1,827.7,140.0,87.0,-70.0,10192.0,-12208.0,2530.0,3022.0,-309.0,104.0,-13.0,101.0,83.0,-38.0,9081.0,-13046.0,3779.0,-1216.0,-411.0,409.0,329.0,1.0
2022-05-23 15:51:36.108641-07:00,1192.9,744.7,1032.3,963.7,844.4,950.9,1839.1,1328.7,3471.0,3469.8,1022.8,821.9,1610.5,3473.4,1252.4,1170.9,3484.4,3469.8,1633.1,2008.4,2683.2,3484.4,1609.6,3486.8,3472.2,3475.9,673.3,767.0,2014.4,1019.4,973.1,827.7,23.0,-81.0,-43.0,10058.0,-12334.0,2426.0,3045.0,-264.0,-466.0,-177.0,-6.0,-31.0,-3.0,8907.0,-13116.0,3945.0,-1224.0,-202.0,333.0,267.0,1.0
2022-05-23 15:51:36.112327-07:00,1184.1,744.7,1028.0,963.7,845.3,950.9,1839.1,1328.7,3468.6,3467.4,1026.3,821.9,1618.1,3473.4,1252.4,1170.9,3484.4,3469.8,1633.1,2014.4,2683.2,3500.2,1604.9,3486.8,3472.2,3475.9,673.3,777.8,2014.4,1025.4,975.6,828.5,3.0,-36.0,-38.0,10208.0,-12203.0,2363.0,3119.0,1228.0,-254.0,65.0,-4.0,-49.0,-4.0,9031.0,-12985.0,4072.0,-1293.0,1227.0,142.0,204.0,1.0
2022-05-23 15:51:36.198996-07:00,1184.1,744.7,1028.0,957.7,845.3,949.2,1834.3,1310.6,3468.6,3467.4,1026.3,816.9,1618.1,3462.5,1243.5,1170.9,3481.9,3463.7,1631.3,2014.4,2678.8,3500.2,1604.9,3486.8,3473.4,3467.4,679.1,777.8,2004.5,1025.4,975.6,828.5,49.0,175.0,-116.0,10553.0,-11899.0,2352.0,3156.0,194.0,-234.0,-110.0,-15.0,148.0,-73.0,9383.0,-12709.0,4112.0,-1406.0,251.0,11.0,30.0,1.0
2022-05-23 15:51:36.288579-07:00,1174.4,752.1,1034.9,957.7,840.3,949.2,1834.3,1310.6,3464.9,3463.7,1028.8,816.9,1606.8,3462.5,1243.5,1170.9,3481.9,3463.7,1631.3,2013.4,2678.8,3501.4,1596.4,3488.0,3473.4,3467.4,679.1,777.8,2004.5,1025.4,973.9,819.4,-52.0,-47.0,-21.0,10524.0,-11932.0,2255.0,3196.0,-163.0,-275.0,-24.0,-56.0,-26.0,21.0,9356.0,-12735.0,4096.0,-1390.0,-45.0,-61.0,-41.0,1.0
2022-05-23 15:51:36.289575-07:00,1174.4,752.1,1034.9,954.3,840.3,959.4,1814.9,1303.4,3464.9,3463.7,1028.8,816.0,1606.8,3467.4,1245.3,1166.5,3475.9,3478.3,1625.6,2013.4,2684.3,3501.4,1596.4,3488.0,3472.2,3472.2,675.8,777.8,2014.4,1025.4,973.9,819.4,-20.0,-20.0,-27.0,10557.0,-11891.0,2163.0,3304.0,270.0,-434.0,-13.0,-17.0,-38.0,0.0,9416.0,-12701.0,4066.0,-1388.0,398.0,-95.0,-4.0,1.0
2022-05-23 15:51:36.319364-07:00,1184.1,749.6,1030.6,959.4,835.2,959.4,1814.9,1303.4,3472.2,3471.0,1023.7,816.0,1615.2,3467.4,1245.3,1166.5,3475.9,3478.3,1625.6,2027.4,2697.4,3488.0,1606.8,3495.3,3472.2,3472.2,675.8,782.7,2018.4,1021.9,997.9,822.7,19.0,62.0,-68.0,10684.0,-11762.0,2050.0,3426.0,182.0,-495.0,-25.0,3.0,82.0,-32.0,9578.0,-12595.0,4015.0,-1396.0,342.0,-174.0,-57.0,1.0
2022-05-23 15:51:36.438403-07:00,1184.1,749.6,1030.6,959.4,838.6,1004.8,1845.0,1304.3,3472.2,3471.0,1023.7,816.0,1612.4,3468.6,1249.7,1170.9,3473.4,3466.1,1627.5,2017.4,2697.4,3488.0,1606.8,3495.3,3472.2,3471.0,682.3,786.1,2018.4,1021.9,997.9,822.7,111.0,-12.0,44.0,10695.0,-11740.0,1913.0,3544.0,-100.0,-187.0,-110.0,75.0,5.0,-1.0,9627.0,-12586.0,3933.0,-1375.0,-25.0,-127.0,-148.0,1.0
2022-05-23 15:51:36.439443-07:00,1173.5,748.8,1035.7,961.1,838.6,1004.8,1845.0,1304.3,3467.4,3471.0,1021.9,816.9,1612.4,3468.6,1249.7,1170.9,3473.4,3466.1,1627.5,2017.4,2691.9,3492.9,1604.9,3484.4,3472.2,3471.0,682.3,786.1,2011.4,1008.2,975.6,822.7,66.0,15.0,45.0,10725.0,-11726.0,1865.0,3525.0,70.0,66.0,-144.0,47.0,11.0,52.0,9653.0,-12583.0,3869.0,-1405.0,60.0,58.0,-132.0,1.0
2022-05-23 15:51:36.528439-07:00,1173.5,748.8,1035.7,961.1,845.3,1017.6,1867.4,1305.2,3467.4,3471.0,1021.9,816.9,1610.5,3466.1,1241.7,1168.2,3467.4,3467.4,1628.4,2005.5,2691.9,3492.9,1604.9,3484.4,3475.9,3467.4,699.5,789.4,2011.4,1008.2,975.6,822.7,6.0,-19.0,1.0,10725.0,-11756.0,1823.0,3448.0,-110.0,-2.0,-249.0,9.0,-31.0,47.0,9618.0,-12611.0,3840.0,-1464.0,-121.0,102.0,-160.0,1.0
2022-05-23 15:51:36.559062-07:00,1173.5,747.2,1039.2,955.1,845.3,1017.6,1867.4,1305.2,3472.2,3471.0,1031.4,821.9,1610.5,3466.1,1241.7,1168.2,3467.4,3467.4,1628.4,2005.5,2704.0,3492.9,1598.3,3486.8,3475.9,3467.4,699.5,789.4,2011.4,1019.4,976.5,831.9,19.0,-57.0,-32.0,10720.0,-11784.0,1754.0,3401.0,-56.0,87.0,-64.0,18.0,-10.0,-36.0,9578.0,-12636.0,3834.0,-1526.0,-46.0,106.0,-72.0,1.0
2022-05-23 15:51:36.648479-07:00,1160.3,747.2,1039.2,955.1,844.4,1005.6,1856.7,1285.5,3473.4,3471.0,1031.4,821.9,1606.8,3471.0,1246.2,1182.3,3479.5,3469.8,1610.5,2022.4,2704.0,3492.9,1598.3,3481.9,3478.3,3479.5,689.7,798.5,2011.4,1019.4,976.5,821.9,26.0,-46.0,-22.0,10702.0,-11810.0,1765.0,3364.0,39.0,82.0,-2.0,35.0,-28.0,-4.0,9547.0,-12651.0,3845.0,-1564.0,-16.0,96.0,-7.0,1.0
2022-05-23 15:51:36.650279-07:00,1160.3,746.3,1039.2,958.5,844.4,1005.6,1856.7,1270.3,3473.4,3468.6,1026.3,812.7,1606.8,3471.0,1246.2,1163.0,3471.0,3469.8,1610.5,2022.4,2683.2,3496.6,1602.1,3481.9,3478.3,3479.5,689.7,798.5,2010.4,1016.8,972.2,821.9,28.0,6.0,-16.0,10697.0,-11823.0,1812.0,3309.0,-56.0,241.0,5.0,17.0,0.0,0.0,9528.0,-12652.0,3877.0,-1598.0,-117.0,109.0,17.0,1.0
2022-05-23 15:51:36.768858-07:00,1169.1,746.3,1039.2,958.5,844.4,1019.4,1836.2,1270.3,3464.9,3468.6,1026.3,812.7,1608.7,3473.4,1248.0,1163.0,3471.0,3468.6,1619.0,2020.4,2683.2,3496.6,1602.1,3486.8,3478.3,3466.1,690.5,794.4,2010.4,1016.8,972.2,841.9,-60.0,-65.0,-11.0,10637.0,-11892.0,1864.0,3227.0,-208.0,168.0,-60.0,-50.0,-80.0,37.0,9436.0,-12712.0,3903.0,-1602.0,-256.0,53.0,-23.0,1.0
2022-05-23 15:51:36.769930-07:00,1169.1,739.7,1056.5,973.1,844.4,1019.4,1836.2,1274.7,3464.9,3469.8,1029.7,810.2,1608.7,3473.4,1248.0,1171.8,3478.3,3468.6,1619.0,2020.4,2688.6,3497.8,1597.4,3486.8,3472.2,3466.1,690.5,794.4,2000.5,1037.5,978.2,841.9,7.0,14.0,-23.0,10648.0,-11888.0,1873.0,3196.0,178.0,22.0,45.0,6.0,35.0,-23.0,9467.0,-12682.0,3919.0,-1618.0,188.0,34.0,48.0,1.0
2022-05-23 15:51:36.770626-07:00,1172.6,739.7,1056.5,973.1,843.6,1019.4,1842.0,1274.7,3472.2,3469.8,1029.7,810.2,1607.7,3466.1,1252.4,1171.8,3478.3,3474.6,1625.6,2013.4,2688.6,3497.8,1597.4,3490.5,3472.2,3479.5,685.6,798.5,2000.5,1037.5,978.2,826.9,7.0,13.0,-52.0,10660.0,-11876.0,1904.0,3185.0,-53.0,33.0,-14.0,3.0,11.0,-30.0,9465.0,-12679.0,3932.0,-1618.0,-64.0,16.0,17.0,1.0
2022-05-23 15:51:36.889081-07:00,1172.6,743.0,1044.4,970.5,843.6,1019.4,1842.0,1267.6,3472.2,3467.4,1028.0,816.0,1607.7,3466.1,1252.4,1172.6,3467.4,3474.6,1625.6,2013.4,2693.0,3496.6,1608.7,3490.5,3467.4,3479.5,685.6,798.5,2001.5,1025.4,984.2,826.9,17.0,-44.0,-66.0,10622.0,-11913.0,1897.0,3175.0,-135.0,35.0,9.0,20.0,-18.0,-32.0,9421.0,-12709.0,3947.0,-1603.0,-131.0,-14.0,21.0,1.0
2022-05-23 15:51:36.889858-07:00,1170.0,738.9,1044.4,970.5,843.6,1019.4,1829.4,1267.6,3466.1,3473.4,1028.0,816.0,1611.5,3460.1,1259.6,1172.6,3467.4,3471.0,1619.9,2010.4,2693.0,3496.6,1592.7,3488.0,3467.4,3467.4,685.6,802.7,2001.5,1025.4,986.7,835.2,11.0,-24.0,-63.0,10603.0,-11928.0,1890.0,3187.0,57.0,-224.0,11.0,24.0,-28.0,18.0,9438.0,-12700.0,3946.0,-1579.0,143.0,-80.0,43.0,1.0
2022-05-23 15:51:36.918727-07:00,1170.0,738.9,1041.8,964.5,843.6,1019.4,1881.1,1290.9,3466.1,3473.4,1028.8,816.0,1611.5,3460.1,1250.6,1169.1,3480.7,3471.0,1619.9,2010.4,2694.1,3484.4,1592.7,3488.0,3478.3,3474.6,685.6,802.7,2006.4,1021.9,986.7,835.2,30.0,27.0,6.0,10656.0,-11870.0,1791.0,3284.0,355.0,-463.0,36.0,-4.0,57.0,25.0,9574.0,-12606.0,3922.0,-1572.0,573.0,-104.0,46.0,1.0
2022-05-23 15:51:36.979053-07:00,1166.5,741.4,1041.8,964.5,849.5,1079.9,1881.1,1290.9,3457.6,3471.0,1028.8,816.0,1610.5,3469.8,1250.6,1169.1,3480.7,3471.0,1619.0,2019.4,2694.1,3484.4,1598.3,3485.6,3478.3,3474.6,718.4,826.9,2006.4,1021.9,987.6,822.7,35.0,102.0,48.0,10739.0,-11764.0,1736.0,3420.0,-91.0,-217.0,143.0,9.0,56.0,18.0,9696.0,-12519.0,3900.0,-1579.0,78.0,-37.0,-7.0,1.0
2022-05-23 15:51:37.038383-07:00,1166.5,741.4,1054.8,985.9,849.5,1079.9,1943.0,1301.6,3457.6,3471.0,1030.6,818.5,1610.5,3469.8,1274.7,1171.8,3464.9,3467.4,1619.0,2019.4,2706.2,3497.8,1598.3,3485.6,3474.6,3477.1,718.4,826.9,2001.5,1021.9,987.6,822.7,48.0,51.0,6.0,10653.0,-11832.0,1698.0,3473.0,-428.0,13.0,-106.0,26.0,21.0,26.0,9600.0,-12599.0,3880.0,-1578.0,-400.0,37.0,-152.0,1.0
2022-05-23 15:51:37.069106-07:00,1162.1,748.0,1054.8,985.9,842.8,1104.3,1943.0,1301.6,3464.9,3467.4,1030.6,818.5,1617.1,3472.2,1274.7,1171.8,3464.9,3467.4,1629.4,2006.4,2706.2,3497.8,1596.4,3481.9,3474.6,3477.1,740.6,846.1,2001.5,1021.9,991.9,821.0,38.0,-37.0,-47.0,10573.0,-11926.0,1624.0,3434.0,-73.0,32.0,-234.0,44.0,-23.0,-6.0,9507.0,-12675.0,3846.0,-1614.0,-75.0,52.0,-180.0,1.0
2022-05-23 15:51:37.129210-07:00,1162.1,748.0,1065.1,968.8,842.8,1094.7,1951.9,1336.8,3464.9,3467.4,1025.4,817.7,1617.1,3467.4,1316.9,1187.6,3474.6,3475.9,1626.5,2006.4,2708.4,3492.9,1596.4,3481.9,3471.0,3483.2,751.3,846.1,1991.5,1024.5,991.9,821.0,26.0,-49.0,-54.0,10585.0,-11942.0,1554.0,3373.0,-29.0,-23.0,-212.0,37.0,-26.0,-36.0,9492.0,-12697.0,3792.0,-1654.0,-36.0,-18.0,-128.0,1.0
2022-05-23 15:51:37.158524-07:00,1167.4,735.6,1066.0,968.8,841.9,1094.7,1951.9,1336.8,3467.4,3460.1,1024.5,817.7,1612.4,3467.4,1316.9,1187.6,3474.6,3475.9,1626.5,2012.4,2708.4,3492.9,1592.7,3483.2,3471.0,3483.2,751.3,863.7,1991.5,1020.2,1000.5,829.4,38.0,0.0,-10.0,10593.0,-11960.0,1493.0,3310.0,78.0,195.0,-169.0,13.0,-14.0,-52.0,9458.0,-12732.0,3762.0,-1657.0,-64.0,-41.0,-36.0,1.0
2022-05-23 15:51:37.219372-07:00,1167.4,735.6,1066.0,978.2,841.9,1073.8,1919.3,1314.2,3467.4,3460.1,1024.5,822.7,1612.4,3462.5,1317.8,1186.7,3464.9,3478.3,1618.1,2012.4,2713.9,3492.9,1592.7,3483.2,3471.0,3477.1,734.8,863.7,2011.4,1020.2,1000.5,829.4,12.0,-22.0,-42.0,10580.0,-12008.0,1531.0,3157.0,-451.0,303.0,-52.0,18.0,58.0,53.0,9358.0,-12815.0,3737.0,-1635.0,-593.0,-23.0,-107.0,1.0
2022-05-23 15:51:37.278403-07:00,1163.0,744.7,1041.8,978.2,838.6,1073.8,1919.3,1314.2,3473.4,3467.4,1026.3,822.7,1613.4,3462.5,1317.8,1186.7,3464.9,3478.3,1618.1,2016.4,2713.9,3489.2,1586.1,3492.9,3471.0,3477.1,734.8,837.7,2011.4,1036.6,991.9,826.9,18.0,5.0,-44.0,10516.0,-12068.0,1567.0,3124.0,86.0,74.0,33.0,15.0,-18.0,-3.0,9313.0,-12852.0,3721.0,-1640.0,74.0,-9.0,-63.0,1.0
2022-05-23 15:51:37.308451-07:00,1163.0,744.7,1041.8,973.9,838.6,1057.3,1896.7,1288.2,3473.4,3467.4,1026.3,823.5,1613.4,3464.9,1299.8,1186.7,3475.9,3468.6,1614.3,2016.4,2710.6,3489.2,1586.1,3492.9,3480.7,3481.9,729.0,837.7,2013.4,1036.6,991.9,826.9,-45.0,-24.0,-18.0,10535.0,-12053.0,1593.0,3103.0,91.0,0.0,-3.0,-29.0,-27.0,-7.0,9319.0,-12860.0,3681.0,-1633.0,40.0,-98.0,-43.0,1.0
2022-05-23 15:51:37.368706-07:00,1167.4,742.2,1038.3,962.8,852.0,1057.3,1896.7,1288.2,3473.4,3457.6,1029.7,822.7,1600.2,3464.9,1299.8,1186.7,3475.9,3468.6,1614.3,2006.4,2690.8,3492.9,1586.1,3492.9,3480.7,3481.9,729.0,825.2,2005.5,1029.7,987.6,830.2,2.0,-37.0,15.0,10510.0,-12063.0,1624.0,3134.0,-40.0,94.0,278.0,-7.0,1.0,12.0,9300.0,-12881.0,3672.0,-1593.0,-68.0,-47.0,66.0,1.0
2022-05-23 15:51:37.429083-07:00,1167.4,742.2,1038.3,962.8,831.1,1034.0,1880.1,1294.5,3473.4,3457.6,1029.7,822.7,1604.0,3474.6,1285.5,1176.2,3467.4,3477.1,1618.1,2006.4,2690.8,3492.9,1586.1,3492.9,3471.0,3467.4,719.2,814.4,2005.5,1029.7,987.6,830.2,37.0,41.0,-4.0,10480.0,-12067.0,1738.0,3160.0,-14.0,107.0,107.0,36.0,6.0,33.0,9290.0,-12882.0,3705.0,-1570.0,-41.0,36.0,76.0,1.0
2022-05-23 15:51:37.519020-07:00,1153.3,743.9,1047.8,967.1,831.1,1034.0,1880.1,1294.5,3474.6,3462.5,1030.6,821.9,1604.0,3474.6,1285.5,1176.2,3467.4,3477.1,1618.1,2006.4,2675.5,3477.1,1589.9,3495.3,3471.0,3467.4,719.2,814.4,2003.5,1028.0,986.7,822.7,11.0,0.0,-47.0,10469.0,-12074.0,1753.0,3160.0,34.0,-91.0,-56.0,13.0,2.0,2.0,9283.0,-12881.0,3726.0,-1572.0,35.0,18.0,8.0,1.0
2022-05-23 15:51:37.519991-07:00,1153.3,743.9,1047.8,967.1,835.2,1010.8,1841.1,1280.1,3474.6,3462.5,1030.6,821.9,1604.0,3457.6,1280.1,1171.8,3474.6,3477.1,1613.4,2007.4,2675.5,3477.1,1589.9,3495.3,3478.3,3466.1,709.3,806.0,2003.5,1028.0,986.7,822.7,-5.0,-31.0,-43.0,10533.0,-12016.0,1694.0,3199.0,301.0,-304.0,-19.0,-7.0,-35.0,-14.0,9369.0,-12821.0,3709.0,-1585.0,382.0,-62.0,17.0,1.0
2022-05-23 15:51:37.578438-07:00,1161.2,738.9,1028.0,962.8,835.2,1010.8,1841.1,1280.1,3473.4,3469.8,1027.1,819.4,1604.0,3457.6,1280.1,1171.8,3474.6,3477.1,1613.4,2007.4,2686.4,3492.9,1581.4,3488.0,3478.3,3466.1,709.3,806.0,1998.5,1019.4,987.6,832.7,15.0,-10.0,-7.0,10608.0,-11937.0,1661.0,3265.0,12.0,-118.0,87.0,15.0,-7.0,10.0,9458.0,-12765.0,3682.0,-1575.0,82.0,-89.0,16.0,1.0
2022-05-23 15:51:37.668504-07:00,1161.2,738.9,1028.0,962.8,843.6,1016.8,1831.3,1273.9,3473.4,3469.8,1027.1,819.4,1605.8,3452.8,1270.3,1172.6,3475.9,3467.4,1606.8,2006.4,2686.4,3492.9,1581.4,3488.0,3478.3,3473.4,704.4,802.7,1998.5,1019.4,987.6,832.7,25.0,-40.0,22.0,10603.0,-11927.0,1667.0,3315.0,53.0,-36.0,85.0,24.0,-26.0,22.0,9476.0,-12755.0,3683.0,-1549.0,64.0,-23.0,68.0,1.0
2022-05-23 15:51:37.669731-07:00,1155.0,740.6,1037.5,965.4,843.6,1016.8,1831.3,1253.3,3463.7,3469.8,1027.1,821.0,1605.8,3452.8,1270.3,1167.4,3466.1,3467.4,1606.8,2006.4,2727.1,3492.9,1580.5,3492.9,3477.1,3473.4,704.4,802.7,2006.4,1023.7,979.9,827.7,2.0,-16.0,-31.0,10661.0,-11866.0,1686.0,3337.0,351.0,-133.0,8.0,8.0,-33.0,1.0,9583.0,-12670.0,3691.0,-1561.0,443.0,-18.0,87.0,1.0
2022-05-23 15:51:37.728528-07:00,1166.5,740.6,1037.5,965.4,847.0,1020.2,1851.8,1253.3,3473.4,3469.8,1027.1,821.0,1605.8,3467.4,1274.7,1167.4,3466.1,3481.9,1606.8,1998.5,2727.1,3492.9,1580.5,3492.9,3477.1,3478.3,708.5,826.9,2006.4,1023.7,979.9,831.9,-5.0,-18.0,-63.0,10778.0,-11758.0,1664.0,3355.0,266.0,-243.0,-37.0,-1.0,-18.0,-3.0,9773.0,-12525.0,3679.0,-1582.0,545.0,-62.0,58.0,1.0
2022-05-23 15:51:37.758492-07:00,1166.5,738.9,1057.3,1017.6,847.0,1020.2,1851.8,1310.6,3473.4,3467.4,1052.2,831.1,1605.8,3467.4,1274.7,1186.7,3484.4,3481.9,1606.8,1998.5,2697.4,3501.4,1588.0,3492.9,3478.3,3478.3,708.5,826.9,2015.4,1028.8,992.7,831.9,-57.0,-32.0,-63.0,10923.0,-11622.0,1424.0,3469.0,285.0,-1177.0,-576.0,-9.0,-10.0,9.0,9952.0,-12384.0,3665.0,-1607.0,688.0,-50.0,81.0,1.0
2022-05-23 15:51:37.848487-07:00,1172.6,738.9,1057.3,1017.6,838.6,1020.2,1916.4,1310.6,3468.6,3467.4,1052.2,831.1,1612.4,3468.6,1353.1,1186.7,3484.4,3479.5,1648.3,2007.4,2697.4,3501.4,1588.0,3488.0,3478.3,3472.2,706.9,897.4,2015.4,1028.8,992.7,852.8,37.0,-42.0,-52.0,11178.0,-11351.0,976.0,3701.0,1023.0,-1071.0,-163.0,0.0,50.0,-46.0,10237.0,-12150.0,3660.0,-1618.0,1148.0,-144.0,192.0,1.0
2022-05-23 15:51:37.878515-07:00,1172.6,743.0,1097.3,1069.5,838.6,1020.2,1916.4,1356.7,3468.6,3472.2,1053.0,829.4,1612.4,3468.6,1353.1,1200.9,3479.5,3479.5,1648.3,2007.4,2763.5,3489.2,1584.2,3488.0,3484.4,3472.2,706.9,897.4,1992.5,1061.7,1035.7,852.8,45.0,92.0,-24.0,11491.0,-10972.0,724.0,3938.0,534.0,-949.0,-237.0,34.0,34.0,19.0,10593.0,-11848.0,3640.0,-1609.0,694.0,-134.0,227.0,1.0
2022-05-23 15:51:37.908454-07:00,1170.0,752.1,1097.3,1069.5,844.4,1007.3,1943.0,1356.7,3479.5,3478.3,1053.0,829.4,1606.8,3467.4,1383.0,1200.9,3479.5,3467.4,1713.8,2013.4,2763.5,3489.2,1586.1,3488.0,3484.4,3475.9,706.9,910.1,1992.5,1061.7,1028.0,860.4,66.0,33.0,-10.0,11598.0,-10815.0,397.0,4100.0,109.0,-737.0,-312.0,40.0,34.0,6.0,10731.0,-11725.0,3654.0,-1563.0,169.0,-54.0,140.0,1.0
2022-05-23 15:51:37.968647-07:00,1170.0,752.1,1106.0,1059.1,844.4,1007.3,1941.0,1359.4,3479.5,3478.3,1048.7,826.0,1606.8,3467.4,1362.1,1203.5,3474.6,3477.1,1713.8,2013.4,2819.1,3495.3,1586.1,3488.0,3483.2,3473.4,706.9,910.1,2004.5,1055.6,1028.0,860.4,22.0,5.0,-39.0,11717.0,-10668.0,134.0,4163.0,519.0,-548.0,-397.0,27.0,15.0,14.0,10834.0,-11632.0,3655.0,-1547.0,470.0,-77.0,44.0,1.0
2022-05-23 15:51:38.028507-07:00,1167.4,739.7,1106.0,1059.1,851.1,1011.6,1941.0,1359.4,3468.6,3463.7,1048.7,826.0,1613.4,3472.2,1362.1,1203.5,3474.6,3477.1,1801.3,2027.4,2819.1,3495.3,1587.1,3480.7,3483.2,3473.4,734.8,925.4,2004.5,1055.6,1036.6,858.7,39.0,35.0,-4.0,11896.0,-10462.0,-16.0,4180.0,332.0,-134.0,-148.0,20.0,18.0,55.0,11013.0,-11477.0,3602.0,-1566.0,388.0,-97.0,4.0,1.0
2022-05-23 15:51:38.089015-07:00,1167.4,739.7,1097.3,1042.6,851.1,1011.6,1983.6,1414.0,3468.6,3463.7,1055.6,827.7,1613.4,3472.2,1389.4,1216.0,3472.2,3467.4,1801.3,2027.4,2853.7,3500.2,1587.1,3480.7,3475.9,3474.6,734.8,925.4,2004.5,1067.7,1036.6,858.7,-10.0,-33.0,12.0,11947.0,-10398.0,-144.0,4189.0,77.0,-402.0,-267.0,-7.0,-30.0,23.0,11074.0,-11427.0,3571.0,-1572.0,100.0,-21.0,-8.0,1.0
2022-05-23 15:51:38.118568-07:00,1164.7,750.5,1097.3,1042.6,845.3,1037.5,1983.6,1414.0,3469.8,3474.6,1055.6,827.7,1611.5,3475.9,1389.4,1216.0,3472.2,3467.4,1820.7,2010.4,2853.7,3500.2,1595.5,3489.2,3475.9,3474.6,778.6,934.7,2004.5,1067.7,1108.6,864.6,2.0,-6.0,-4.0,12014.0,-10315.0,-281.0,4197.0,108.0,-115.0,-124.0,4.0,32.0,-18.0,11128.0,-11377.0,3559.0,-1579.0,201.0,-27.0,16.0,1.0
2022-05-23 15:51:38.178730-07:00,1164.7,750.5,1140.1,1053.9,845.3,1037.5,2104.8,1629.4,3469.8,3474.6,1047.0,827.7,1611.5,3475.9,1481.0,1239.9,3475.9,3473.4,1820.7,2010.4,2857.1,3499.0,1595.5,3489.2,3477.1,3474.6,778.6,934.7,2013.4,1153.3,1108.6,864.6,25.0,2.0,-31.0,12033.0,-10299.0,-312.0,4179.0,55.0,36.0,-100.0,29.0,-21.0,4.0,11155.0,-11354.0,3552.0,-1575.0,38.0,-33.0,3.0,1.0
2022-05-23 15:51:38.208970-07:00,1163.0,738.1,1164.7,1053.9,844.4,1056.5,2104.8,1629.4,3466.1,3467.4,1038.3,827.7,1604.0,3457.6,1481.0,1239.9,3475.9,3473.4,1814.9,2006.4,2857.1,3486.8,1587.1,3488.0,3477.1,3474.6,796.9,911.0,2013.4,1265.8,1248.0,850.3,-9.0,-36.0,-41.0,12038.0,-10303.0,-344.0,4153.0,-42.0,-147.0,-103.0,21.0,-38.0,6.0,11152.0,-11356.0,3552.0,-1577.0,-53.0,23.0,20.0,1.0
2022-05-23 15:51:38.299458-07:00,1163.0,738.1,1164.7,1075.6,844.4,1059.1,2101.7,1614.3,3466.1,3467.4,1038.3,828.5,1604.0,3467.4,1501.4,1266.7,3469.8,3478.3,1813.9,2006.4,2857.1,3486.8,1587.1,3488.0,3472.2,3474.6,789.4,911.0,2026.4,1265.8,1248.0,850.3,12.0,14.0,-14.0,12054.0,-10287.0,-394.0,4144.0,128.0,67.0,-60.0,5.0,27.0,5.0,11156.0,-11351.0,3556.0,-1573.0,38.0,-12.0,4.0,1.0
2022-05-23 15:51:38.388548-07:00,1174.4,744.7,1143.6,1075.6,836.9,1059.1,2101.7,1614.3,3468.6,3466.1,1043.5,828.5,1597.4,3467.4,1501.4,1266.7,3469.8,3478.3,1813.9,1995.5,2857.1,3492.9,1577.7,3489.2,3472.2,3474.6,789.4,902.5,2026.4,1241.7,1209.7,841.1,-21.0,-2.0,-32.0,12038.0,-10320.0,-353.0,4109.0,-305.0,104.0,134.0,-12.0,11.0,32.0,11119.0,-11392.0,3547.0,-1563.0,-222.0,-27.0,-39.0,1.0
2022-05-23 15:51:38.389717-07:00,1174.4,744.7,1143.6,1047.8,836.9,1046.1,2129.0,1586.1,3468.6,3466.1,1043.5,824.4,1597.4,3467.4,1483.8,1252.4,3471.0,3475.9,1802.3,1995.5,2842.5,3492.9,1577.7,3489.2,3473.4,3477.1,777.8,902.5,2026.4,1241.7,1209.7,841.1,1.0,-53.0,-19.0,11974.0,-10380.0,-371.0,4144.0,-1.0,-162.0,-41.0,22.0,-45.0,-11.0,11090.0,-11429.0,3524.0,-1554.0,10.0,-59.0,-46.0,1.0
2022-05-23 15:51:38.418632-07:00,1167.4,744.7,1121.7,1047.8,837.7,1046.1,2129.0,1586.1,3469.8,3477.1,1037.5,824.4,1600.2,3467.4,1483.8,1252.4,3471.0,3475.9,1802.3,2002.5,2842.5,3500.2,1570.2,3479.5,3473.4,3477.1,777.8,894.9,2026.4,1223.9,1196.5,848.6,14.0,-13.0,-4.0,11991.0,-10355.0,-389.0,4157.0,53.0,64.0,44.0,32.0,-3.0,22.0,11113.0,-11414.0,3501.0,-1551.0,76.0,-39.0,-7.0,1.0
2022-05-23 15:51:38.478682-07:00,1167.4,744.7,1121.7,1033.2,833.6,1059.9,2076.5,1574.9,3469.8,3477.1,1037.5,824.4,1606.8,3469.8,1470.9,1251.5,3478.3,3471.0,1795.5,1996.5,2831.3,3500.2,1570.2,3479.5,3484.4,3469.8,777.8,890.7,2024.4,1223.9,1196.5,848.6,28.0,-14.0,-20.0,12009.0,-10328.0,-397.0,4171.0,75.0,-91.0,-27.0,25.0,-14.0,-10.0,11141.0,-11389.0,3487.0,-1564.0,86.0,0.0,-3.0,1.0
2022-05-23 15:51:38.508466-07:00,1171.8,742.2,1109.5,1024.5,833.6,1059.9,2076.5,1574.9,3475.9,3469.8,1042.6,823.5,1606.8,3469.8,1470.9,1251.5,3478.3,3471.0,1795.5,1996.5,2821.3,3477.1,1578.6,3488.0,3484.4,3469.8,777.8,890.7,2023.4,1231.0,1199.1,841.9,-9.0,-21.0,2.0,12025.0,-10311.0,-364.0,4168.0,37.0,192.0,82.0,2.0,-24.0,17.0,11160.0,-11372.0,3482.0,-1568.0,36.0,-17.0,1.0,1.0
2022-05-23 15:51:38.628535-07:00,1171.8,742.2,1109.5,1024.5,849.5,1068.6,2087.6,1574.9,3475.9,3469.8,1042.6,823.5,1601.1,3468.6,1540.3,1272.1,3471.0,3472.2,1783.9,1985.6,2821.3,3477.1,1578.6,3488.0,3483.2,3472.2,779.4,890.7,2023.4,1231.0,1199.1,841.9,16.0,-44.0,18.0,12034.0,-10317.0,-307.0,4133.0,42.0,83.0,-63.0,6.0,24.0,-24.0,11181.0,-11351.0,3477.0,-1572.0,97.0,-4.0,9.0,1.0
2022-05-23 15:51:38.629807-07:00,1179.7,738.9,1120.9,1027.1,849.5,1068.6,2087.6,1574.9,3480.7,3468.6,1040.9,831.1,1601.1,3468.6,1540.3,1272.1,3471.0,3472.2,1783.9,1985.6,2824.6,3489.2,1573.0,3491.7,3483.2,3472.2,779.4,890.7,2309.7,1323.2,1285.5,862.9,-10.0,-5.0,-51.0,12055.0,-10313.0,-206.0,4087.0,96.0,372.0,235.0,0.0,-10.0,0.0,11209.0,-11325.0,3474.0,-1572.0,73.0,-13.0,24.0,1.0
2022-05-23 15:51:38.658749-07:00,1179.7,738.9,1120.9,1027.1,850.3,1116.5,2060.5,1576.8,3480.7,3468.6,1040.9,831.1,1610.5,3461.3,1745.4,1426.8,3467.4,3473.4,1787.8,1997.5,2824.6,3489.2,1573.0,3491.7,3480.7,3477.1,806.0,912.7,2309.7,1323.2,1285.5,862.9,3.0,-12.0,-55.0,12062.0,-10311.0,-75.0,4079.0,307.0,128.0,31.0,4.0,15.0,-16.0,11257.0,-11282.0,3461.0,-1567.0,307.0,-59.0,13.0,1.0
2022-05-23 15:51:38.718619-07:00,1163.0,736.5,1115.6,1019.4,850.3,1116.5,2060.5,1567.4,3457.6,3467.4,1051.3,837.7,1610.5,3461.3,1745.4,1495.8,3471.0,3473.4,1787.8,1997.5,2805.7,3481.9,1579.6,3485.6,3473.4,3477.1,806.0,912.7,2605.8,1367.6,1295.4,936.4,16.0,10.0,-33.0,12121.0,-10256.0,24.0,4042.0,101.0,245.0,93.0,15.0,14.0,-10.0,11316.0,-11231.0,3439.0,-1561.0,70.0,-59.0,12.0,1.0
2022-05-23 15:51:38.748656-07:00,1179.7,736.5,1115.6,1019.4,840.3,1148.9,2044.4,1567.4,3468.6,3467.4,1051.3,837.7,1609.6,3474.6,1782.9,1495.8,3471.0,3474.6,1784.9,1993.5,2805.7,3481.9,1579.6,3483.2,3473.4,3478.3,831.9,936.4,2605.8,1367.6,1295.4,978.2,19.0,-29.0,-12.0,12138.0,-10251.0,134.0,4000.0,168.0,291.0,121.0,10.0,2.0,2.0,11341.0,-11211.0,3423.0,-1555.0,108.0,-30.0,15.0,1.0
2022-05-23 15:51:38.808514-07:00,1179.7,734.8,1117.4,1012.5,840.3,1148.9,2044.4,1559.9,3468.6,3467.4,1075.6,851.1,1609.6,3474.6,1782.9,1544.1,3477.1,3474.6,1784.9,1993.5,2805.7,3492.9,1578.6,3483.2,3473.4,3478.3,831.9,936.4,2603.7,1368.5,1302.5,978.2,53.0,23.0,-54.0,12159.0,-10235.0,335.0,3964.0,188.0,519.0,403.0,5.0,52.0,43.0,11384.0,-11172.0,3406.0,-1559.0,205.0,-30.0,-37.0,1.0
2022-05-23 15:51:38.868576-07:00,1160.3,734.8,1117.4,1012.5,841.9,1192.0,2018.4,1559.9,3469.8,3467.4,1075.6,851.1,1604.0,3472.2,1811.9,1544.1,3477.1,3477.1,1792.6,1982.6,2805.7,3492.9,1578.6,3484.4,3473.4,3488.0,850.3,942.4,2603.7,1368.5,1302.5,982.5,-2.0,12.0,-36.0,12147.0,-10241.0,616.0,3951.0,86.0,313.0,286.0,11.0,-5.0,7.0,11421.0,-11143.0,3359.0,-1598.0,103.0,-31.0,-135.0,1.0
2022-05-23 15:51:38.898421-07:00,1160.3,746.3,1089.5,1015.1,841.9,1192.0,2018.4,1559.0,3469.8,3477.1,1167.4,897.4,1604.0,3472.2,1811.9,1525.5,3466.1,3477.1,1792.6,1982.6,2790.1,3494.1,1600.2,3484.4,3474.6,3488.0,850.3,942.4,2561.6,1359.4,1311.5,982.5,20.0,-31.0,-26.0,12124.0,-10246.0,792.0,3980.0,38.0,259.0,373.0,12.0,-16.0,-33.0,11425.0,-11148.0,3314.0,-1623.0,-45.0,-49.0,-90.0,1.0
2022-05-23 15:51:38.958593-07:00,1168.2,746.3,1089.5,1015.1,843.6,1223.0,1982.6,1559.0,3481.9,3477.1,1167.4,897.4,1619.0,3479.5,1779.1,1525.5,3466.1,3472.2,1779.1,1992.5,2790.1,3494.1,1600.2,3489.2,3474.6,3473.4,845.3,956.8,2561.6,1359.4,1311.5,983.3,1.0,-41.0,28.0,12022.0,-10344.0,988.0,3991.0,-436.0,468.0,330.0,5.0,-3.0,-17.0,11315.0,-11272.0,3289.0,-1591.0,-624.0,-75.0,-33.0,1.0
2022-05-23 15:51:39.019230-07:00,1168.2,741.4,1101.7,1003.0,843.6,1223.0,1958.8,1529.2,3481.9,3466.1,1217.7,912.7,1619.0,3479.5,1779.1,1530.1,3477.1,3474.6,1779.1,1992.5,2787.9,3502.7,1591.7,3489.2,3481.9,3474.6,845.3,956.8,2642.8,1351.2,1288.2,983.3,-1.0,-79.0,35.0,11728.0,-10665.0,1183.0,3966.0,-1126.0,637.0,351.0,15.0,-60.0,25.0,10981.0,-11602.0,3325.0,-1483.0,-1311.0,9.0,46.0,1.0
2022-05-23 15:51:39.048482-07:00,1162.1,743.9,1101.7,1003.0,841.1,1227.5,1958.8,1529.2,3468.6,3472.2,1217.7,912.7,1624.7,3477.1,1779.1,1530.1,3477.1,3474.6,1770.4,1989.5,2787.9,3502.7,1586.1,3484.4,3481.9,3474.6,844.4,956.8,2642.8,1351.2,1283.7,985.9,29.0,-49.0,0.0,11365.0,-11041.0,1408.0,3921.0,-897.0,762.0,448.0,22.0,-39.0,5.0,10628.0,-11912.0,3422.0,-1365.0,-1039.0,68.0,160.0,1.0
2022-05-23 15:51:39.108488-07:00,1162.1,743.9,1103.4,999.6,841.1,1227.5,1948.9,1510.6,3468.6,3472.2,1208.9,921.1,1624.7,3477.1,1766.6,1520.8,3475.9,3479.5,1770.4,1989.5,2774.6,3486.8,1586.1,3484.4,3473.4,3473.4,844.4,956.8,2541.1,1352.1,1283.7,985.9,23.0,-4.0,-32.0,11000.0,-11393.0,1663.0,3856.0,-1138.0,727.0,399.0,25.0,-4.0,5.0,10232.0,-12238.0,3533.0,-1219.0,-1371.0,39.0,171.0,1.0
2022-05-23 15:51:39.168745-07:00,1175.3,730.7,1103.4,999.6,840.3,1204.4,1948.9,1510.6,3468.6,3472.2,1208.9,921.1,1619.9,3464.9,1766.6,1520.8,3475.9,3479.5,1765.6,1975.6,2774.6,3486.8,1579.6,3488.0,3473.4,3473.4,841.9,948.3,2541.1,1352.1,1265.8,980.7,22.0,3.0,-28.0,10573.0,-11776.0,1856.0,3811.0,-1118.0,640.0,363.0,10.0,9.0,2.0,9886.0,-12507.0,3620.0,-1092.0,-1219.0,42.0,162.0,1.0
2022-05-23 15:51:39.198368-07:00,1175.3,730.7,1099.0,996.2,840.3,1204.4,1948.9,1495.8,3468.6,3472.2,1202.7,913.5,1619.9,3464.9,1757.0,1510.6,3468.6,3479.5,1765.6,1975.6,2763.5,3477.1,1579.6,3488.0,3466.1,3481.9,841.9,948.3,2483.4,1341.3,1265.8,980.7,14.0,30.0,-44.0,10198.0,-12088.0,2019.0,3773.0,-912.0,520.0,302.0,8.0,12.0,-11.0,9510.0,-12780.0,3710.0,-958.0,-1051.0,15.0,116.0,1.0
2022-05-23 15:51:39.288477-07:00,1159.4,735.6,1100.8,996.2,843.6,1200.0,1948.9,1495.8,3467.4,3471.0,1194.7,913.5,1614.3,3464.9,1757.0,1510.6,3468.6,3479.5,1741.6,1983.6,2763.5,3499.0,1580.5,3479.5,3466.1,3481.9,836.9,948.3,2483.4,1327.8,1273.0,972.2,3.0,7.0,-25.0,9833.0,-12372.0,2155.0,3745.0,-951.0,470.0,269.0,0.0,-6.0,4.0,9142.0,-13037.0,3770.0,-828.0,-1082.0,-1.0,78.0,1.0
2022-05-23 15:51:39.318509-07:00,1159.4,735.6,1100.8,998.7,843.6,1186.7,1928.2,1493.0,3467.4,3471.0,1194.7,905.0,1614.3,3468.6,1743.5,1519.0,3473.4,3473.4,1734.9,1983.6,2762.4,3499.0,1580.5,3479.5,3474.6,3478.3,827.7,948.3,2455.7,1327.8,1273.0,972.2,15.0,8.0,-10.0,9502.0,-12620.0,2252.0,3716.0,-697.0,350.0,168.0,2.0,-10.0,15.0,8805.0,-13261.0,3816.0,-715.0,-812.0,17.0,57.0,1.0
2022-05-23 15:51:39.348592-07:00,1156.8,738.9,1109.5,998.7,838.6,1186.7,1928.2,1493.0,3469.8,3466.1,1190.3,905.0,1621.8,3468.6,1743.5,1519.0,3473.4,3473.4,1734.9,1990.5,2762.4,3486.8,1577.7,3492.9,3474.6,3478.3,827.7,942.4,2455.7,1330.5,1276.5,971.3,30.0,45.0,-14.0,9250.0,-12808.0,2319.0,3669.0,-729.0,355.0,63.0,14.0,24.0,10.0,8527.0,-13437.0,3842.0,-632.0,-883.0,21.0,-21.0,1.0
2022-05-23 15:51:39.408561-07:00,1156.8,738.9,1109.5,989.3,838.6,1181.5,1926.2,1498.6,3469.8,3466.1,1190.3,905.0,1621.8,3467.4,1733.0,1506.9,3478.3,3471.0,1733.0,1990.5,2750.2,3486.8,1577.7,3492.9,3483.2,3474.6,825.2,942.4,2453.6,1330.5,1276.5,971.3,20.0,-38.0,-5.0,8996.0,-12995.0,2327.0,3634.0,-389.0,152.0,36.0,11.0,-22.0,13.0,8247.0,-13610.0,3857.0,-564.0,-424.0,34.0,2.0,1.0
2022-05-23 15:51:39.468731-07:00,1158.6,732.3,1086.0,989.3,841.9,1181.5,1926.2,1498.6,3468.6,3463.7,1184.1,905.0,1618.1,3467.4,1733.0,1506.9,3478.3,3471.0,1733.0,1975.6,2750.2,3486.8,1571.1,3492.9,3483.2,3474.6,825.2,938.1,2453.6,1318.7,1264.0,965.4,19.0,-6.0,-21.0,8932.0,-13045.0,2345.0,3604.0,106.0,55.0,-6.0,16.0,-16.0,8.0,8178.0,-13650.0,3865.0,-556.0,81.0,13.0,1.0,1.0
2022-05-23 15:51:39.498261-07:00,1158.6,732.3,1086.0,981.6,846.1,1177.0,1928.2,1488.4,3468.6,3463.7,1184.1,904.2,1615.2,3478.3,1737.8,1506.9,3468.6,3477.1,1713.8,1974.6,2745.8,3486.8,1571.1,3492.9,3472.2,3467.4,821.9,943.2,2420.8,1318.7,1264.0,965.4,29.0,23.0,-29.0,8965.0,-13025.0,2361.0,3582.0,37.0,32.0,-19.0,13.0,22.0,-15.0,8204.0,-13635.0,3860.0,-568.0,-26.0,-4.0,-36.0,1.0
2022-05-23 15:51:39.558919-07:00,1158.6,724.9,1088.6,979.9,846.1,1177.0,1928.2,1488.4,3464.9,3469.8,1185.0,902.5,1615.2,3478.3,1737.8,1506.9,3468.6,3477.1,1713.8,1974.6,2734.8,3492.9,1560.9,3484.4,3472.2,3467.4,821.9,943.2,2409.2,1317.8,1250.6,955.1,17.0,-6.0,-28.0,8941.0,-13047.0,2363.0,3562.0,-94.0,44.0,3.0,7.0,-9.0,-6.0,8182.0,-13653.0,3843.0,-566.0,-119.0,-28.0,-35.0,1.0
2022-05-23 15:51:39.618602-07:00,1158.6,724.9,1088.6,979.9,844.4,1165.6,1904.6,1492.1,3464.9,3469.8,1185.0,902.5,1607.7,3468.6,1723.4,1505.1,3473.4,3474.6,1723.4,1963.7,2734.8,3492.9,1560.9,3484.4,3481.9,3478.3,817.7,935.6,2409.2,1317.8,1250.6,955.1,12.0,-21.0,-10.0,8922.0,-13066.0,2349.0,3551.0,37.0,-46.0,-25.0,11.0,-26.0,20.0,8167.0,-13667.0,3826.0,-556.0,46.0,-28.0,-21.0,1.0
2022-05-23 15:51:39.648555-07:00,1155.9,729.9,1087.7,985.0,844.4,1165.6,1904.6,1492.1,3472.2,3471.0,1180.6,906.7,1607.7,3468.6,1723.4,1505.1,3473.4,3474.6,1723.4,1963.7,2735.9,3490.5,1566.5,3486.8,3481.9,3478.3,817.7,935.6,2383.9,1319.6,1249.7,960.2,37.0,27.0,10.0,8971.0,-13032.0,2328.0,3564.0,113.0,-81.0,-14.0,15.0,45.0,-6.0,8221.0,-13639.0,3809.0,-564.0,114.0,-36.0,-25.0,1.0
2022-05-23 15:51:39.738476-07:00,1155.9,729.9,1087.7,985.0,838.6,1160.3,1914.4,1492.1,3472.2,3471.0,1180.6,906.7,1617.1,3471.0,1721.5,1492.1,3469.8,3467.4,1711.9,1970.7,2735.9,3490.5,1566.5,3486.8,3478.3,3474.6,816.9,928.8,2383.9,1319.6,1249.7,960.2,5.0,-44.0,14.0,8924.0,-13065.0,2320.0,3566.0,-239.0,72.0,7.0,6.0,-29.0,18.0,8174.0,-13673.0,3790.0,-550.0,-245.0,-18.0,-43.0,1.0
2022-05-23 15:51:39.768726-07:00,1153.3,734.8,1077.3,985.0,838.6,1160.3,1914.4,1492.1,3462.5,3469.8,1182.3,912.7,1617.1,3471.0,1721.5,1492.1,3469.8,3467.4,1711.9,1970.7,2733.7,3485.6,1559.0,3489.2,3478.3,3474.6,816.9,928.8,2392.4,1303.4,1242.6,947.5,8.0,-14.0,-2.0,8904.0,-13077.0,2339.0,3560.0,78.0,18.0,48.0,11.0,-7.0,13.0,8160.0,-13682.0,3788.0,-547.0,72.0,7.0,15.0,1.0
2022-05-23 15:51:39.798695-07:00,1161.2,734.8,1077.3,985.0,836.1,1168.2,1899.7,1462.6,3468.6,3469.8,1182.3,912.7,1619.9,3473.4,1725.3,1489.3,3468.6,3473.4,1721.5,1965.7,2733.7,3485.6,1559.0,3481.9,3475.9,3467.4,800.2,933.0,2392.4,1303.4,1242.6,953.4,23.0,18.0,0.0,8878.0,-13091.0,2356.0,3563.0,-173.0,61.0,28.0,21.0,4.0,10.0,8135.0,-13696.0,3793.0,-538.0,-192.0,10.0,6.0,1.0
2022-05-23 15:51:39.859802-07:00,1161.2,738.1,1067.7,978.2,836.1,1168.2,1899.7,1468.1,3468.6,3478.3,1177.9,905.9,1619.9,3473.4,1725.3,1490.3,3471.0,3473.4,1721.5,1965.7,2727.1,3486.8,1563.7,3481.9,3472.2,3467.4,800.2,933.0,2375.5,1300.7,1245.3,953.4,14.0,5.0,-20.0,8814.0,-13140.0,2323.0,3561.0,-154.0,-86.0,-94.0,14.0,-16.0,19.0,8066.0,-13736.0,3797.0,-535.0,-153.0,36.0,-7.0,1.0
2022-05-23 15:51:39.918787-07:00,1153.3,738.1,1067.7,978.2,840.3,1149.8,1905.6,1468.1,3457.6,3478.3,1177.9,905.9,1612.4,3468.6,1718.6,1490.3,3471.0,3472.2,1718.6,1967.7,2727.1,3486.8,1563.7,3486.8,3472.2,3471.0,807.7,909.3,2375.5,1300.7,1245.3,953.4,31.0,-14.0,-18.0,8829.0,-13139.0,2251.0,3578.0,126.0,-80.0,-68.0,12.0,0.0,-18.0,8071.0,-13734.0,3790.0,-549.0,130.0,-4.0,-31.0,1.0
2022-05-23 15:51:39.948938-07:00,1153.3,729.9,1084.2,973.9,840.3,1149.8,1905.6,1473.6,3457.6,3471.0,1167.4,902.5,1612.4,3468.6,1718.6,1491.2,3478.3,3472.2,1718.6,1967.7,2718.3,3492.9,1559.9,3486.8,3469.8,3471.0,807.7,909.3,2381.8,1309.7,1239.9,953.4,9.0,0.0,-20.0,8897.0,-13100.0,2222.0,3569.0,160.0,-105.0,-77.0,3.0,2.0,0.0,8140.0,-13699.0,3769.0,-570.0,187.0,-15.0,-39.0,1.0
2022-05-23 15:51:40.008959-07:00,1153.3,729.9,1084.2,973.9,849.5,1164.7,1888.9,1473.6,3478.3,3471.0,1167.4,902.5,1612.4,3468.6,1711.9,1491.2,3478.3,3469.8,1720.5,1970.7,2718.3,3492.9,1559.9,3484.4,3469.8,3478.3,815.2,922.8,2381.8,1309.7,1239.9,954.3,13.0,-5.0,-17.0,8979.0,-13049.0,2186.0,3573.0,267.0,-108.0,-82.0,5.0,-5.0,3.0,8226.0,-13652.0,3745.0,-592.0,292.0,-33.0,-40.0,1.0
2022-05-23 15:51:40.068634-07:00,1153.3,724.9,1072.9,981.6,849.5,1164.7,1887.9,1456.2,3478.3,3469.8,1170.9,898.3,1612.4,3468.6,1712.9,1486.6,3472.2,3475.9,1720.5,1970.7,2724.9,3484.4,1561.8,3484.4,3483.2,3473.4,815.2,922.8,2368.2,1302.5,1246.2,954.3,12.0,-24.0,-5.0,9129.0,-12948.0,2155.0,3577.0,535.0,-185.0,-92.0,14.0,-29.0,20.0,8383.0,-13563.0,3716.0,-633.0,581.0,-24.0,-40.0,1.0
2022-05-23 15:51:40.128522-07:00,1144.5,737.3,1072.9,981.6,840.3,1157.7,1887.9,1456.2,3468.6,3468.6,1170.9,898.3,1614.3,3458.9,1712.9,1486.6,3472.2,3475.9,1710.0,1970.7,2724.9,3484.4,1567.4,3480.7,3483.2,3473.4,811.0,930.5,2368.2,1302.5,1238.2,950.0,35.0,25.0,-6.0,9434.0,-12734.0,2114.0,3576.0,924.0,-272.0,-210.0,18.0,6.0,4.0,8693.0,-13371.0,3684.0,-721.0,978.0,-7.0,-34.0,1.0
2022-05-23 15:51:40.158567-07:00,1144.5,737.3,1075.6,981.6,840.3,1157.7,1914.4,1471.8,3468.6,3468.6,1169.1,898.3,1614.3,3458.9,1718.6,1484.7,3468.6,3477.1,1710.0,1970.7,2723.8,3497.8,1567.4,3480.7,3472.2,3479.5,811.0,930.5,2401.8,1308.8,1238.2,950.0,12.0,14.0,-10.0,9641.0,-12585.0,2079.0,3574.0,93.0,-105.0,-58.0,16.0,36.0,-17.0,8891.0,-13246.0,3647.0,-792.0,107.0,-15.0,-79.0,1.0
2022-05-23 15:51:40.278573-07:00,1163.0,729.9,1075.6,981.6,840.3,1153.3,1914.4,1471.8,3462.5,3473.4,1169.1,898.3,1612.4,3478.3,1718.6,1484.7,3468.6,3477.1,1718.6,1975.6,2723.8,3497.8,1551.5,3477.1,3472.2,3479.5,816.9,924.5,2401.8,1308.8,1239.1,963.7,-6.0,-105.0,34.0,9606.0,-12611.0,2060.0,3589.0,-9.0,4.0,51.0,4.0,-85.0,16.0,8857.0,-13274.0,3633.0,-782.0,-1.0,-20.0,23.0,1.0
2022-05-23 15:51:40.279808-07:00,1163.0,729.9,1073.8,973.1,840.3,1153.3,1888.9,1463.5,3462.5,3473.4,1164.7,895.7,1612.4,3478.3,1713.8,1490.3,3460.1,3477.1,1718.6,1975.6,2722.7,3486.8,1551.5,3477.1,3463.7,3477.1,816.9,924.5,2371.3,1300.7,1239.1,963.7,31.0,54.0,8.0,9628.0,-12583.0,2116.0,3597.0,4.0,74.0,108.0,19.0,40.0,14.0,8889.0,-13246.0,3657.0,-772.0,-28.0,11.0,75.0,1.0
2022-05-23 15:51:40.308443-07:00,1155.0,731.5,1073.8,973.1,838.6,1148.9,1888.9,1463.5,3457.6,3474.6,1164.7,895.7,1610.5,3473.4,1713.8,1490.3,3460.1,3477.1,1719.6,1970.7,2722.7,3486.8,1553.4,3478.3,3463.7,3477.1,809.4,918.6,2371.3,1300.7,1230.2,944.9,18.0,13.0,0.0,9553.0,-12639.0,2160.0,3576.0,-232.0,185.0,50.0,12.0,14.0,13.0,8803.0,-13297.0,3683.0,-752.0,-303.0,41.0,18.0,1.0
2022-05-23 15:51:40.368587-07:00,1155.0,731.5,1062.5,969.6,838.6,1153.3,1874.2,1440.5,3457.6,3474.6,1161.2,896.6,1610.5,3460.1,1711.0,1479.2,3468.6,3471.0,1710.0,1970.7,2716.1,3490.5,1553.4,3478.3,3467.4,3471.0,804.4,918.6,2354.6,1302.5,1230.2,944.9,13.0,-23.0,-25.0,9512.0,-12671.0,2181.0,3555.0,32.0,34.0,1.0,11.0,-31.0,-1.0,8752.0,-13326.0,3701.0,-750.0,17.0,34.0,22.0,1.0
2022-05-23 15:51:40.398529-07:00,1156.8,738.1,1068.6,969.6,835.2,1153.3,1874.2,1440.5,3469.8,3458.9,1158.6,896.6,1607.7,3460.1,1711.0,1479.2,3468.6,3471.0,1710.0,1963.7,2716.1,3490.5,1550.6,3491.7,3467.4,3471.0,804.4,927.1,2354.6,1295.4,1230.2,944.9,14.0,12.0,-23.0,9532.0,-12655.0,2204.0,3545.0,32.0,42.0,43.0,13.0,25.0,-12.0,8766.0,-13314.0,3710.0,-754.0,-49.0,0.0,15.0,1.0
2022-05-23 15:51:40.459203-07:00,1156.8,738.1,1068.6,976.5,835.2,1148.9,1880.1,1463.5,3469.8,3458.9,1158.6,899.1,1607.7,3458.9,1709.1,1486.6,3475.9,3463.7,1708.1,1963.7,2719.4,3490.5,1550.6,3491.7,3477.1,3477.1,808.5,927.1,2357.7,1295.4,1230.2,944.9,11.0,-8.0,-5.0,9481.0,-12691.0,2225.0,3543.0,-179.0,72.0,39.0,9.0,-10.0,6.0,8711.0,-13349.0,3720.0,-735.0,-180.0,-2.0,19.0,1.0
2022-05-23 15:51:40.578583-07:00,1153.3,729.9,1069.5,976.5,834.4,1148.9,1880.1,1463.5,3467.4,3466.1,1160.3,899.1,1604.9,3458.9,1709.1,1486.6,3475.9,3463.7,1708.1,1964.7,2719.4,3489.2,1546.9,3488.0,3477.1,3477.1,808.5,921.1,2357.7,1294.5,1225.7,943.2,11.0,6.0,-13.0,9436.0,-12722.0,2243.0,3539.0,-44.0,48.0,61.0,9.0,-9.0,3.0,8684.0,-13365.0,3726.0,-722.0,-17.0,-14.0,18.0,1.0
2022-05-23 15:51:40.579771-07:00,1153.3,729.9,1069.5,983.3,834.4,1144.5,1882.0,1458.0,3467.4,3466.1,1160.3,889.8,1604.9,3469.8,1709.1,1489.3,3473.4,3447.9,1711.0,1964.7,2700.7,3489.2,1546.9,3488.0,3474.6,3478.3,804.4,921.1,2331.6,1294.5,1225.7,943.2,18.0,4.0,-15.0,9429.0,-12725.0,2250.0,3542.0,8.0,-36.0,8.0,11.0,6.0,-7.0,8690.0,-13362.0,3722.0,-717.0,42.0,-22.0,0.0,1.0
2022-05-23 15:51:40.608363-07:00,1158.6,740.6,1075.6,973.9,840.3,1144.5,1882.0,1458.0,3467.4,3464.9,1153.3,898.3,1615.2,3469.8,1709.1,1489.3,3473.4,3447.9,1711.0,1971.7,2716.1,3485.6,1546.9,3492.9,3474.6,3478.3,804.4,922.0,2333.7,1298.1,1230.2,940.7,7.0,-2.0,-21.0,9457.0,-12705.0,2235.0,3546.0,137.0,-93.0,-45.0,18.0,-18.0,28.0,8741.0,-13332.0,3707.0,-727.0,225.0,-31.0,-27.0,1.0
2022-05-23 15:51:40.698408-07:00,1158.6,740.6,1075.6,973.9,843.6,1146.3,1875.2,1447.9,3467.4,3464.9,1153.3,898.3,1613.4,3458.9,1704.3,1484.7,3471.0,3473.4,1707.2,1965.7,2716.1,3485.6,1546.9,3492.9,3478.3,3471.0,796.9,916.9,2333.7,1298.1,1230.2,940.7,12.0,11.0,-10.0,9611.0,-12590.0,2184.0,3574.0,615.0,-279.0,-106.0,12.0,-5.0,20.0,8937.0,-13208.0,3677.0,-780.0,752.0,-27.0,-43.0,1.0
2022-05-23 15:51:40.699764-07:00,1148.0,728.2,1079.9,979.0,843.6,1146.3,1875.2,1447.9,3468.6,3468.6,1151.5,893.2,1613.4,3458.9,1704.3,1484.7,3471.0,3473.4,1707.2,1965.7,2710.6,3488.0,1553.4,3491.7,3478.3,3471.0,796.9,916.9,2324.3,1287.3,1231.9,934.7,32.0,18.0,7.0,9907.0,-12363.0,2103.0,3611.0,879.0,-443.0,-213.0,10.0,21.0,13.0,9256.0,-12992.0,3631.0,-883.0,1044.0,3.0,-89.0,1.0
2022-05-23 15:51:40.758489-07:00,1148.0,728.2,1079.9,979.0,844.4,1137.5,1881.1,1447.9,3468.6,3468.6,1151.5,893.2,1604.0,3466.1,1706.2,1481.0,3472.2,3475.9,1701.4,1957.8,2710.6,3488.0,1553.4,3491.7,3477.1,3480.7,796.0,917.7,2324.3,1287.3,1231.9,934.7,30.0,17.0,16.0,10295.0,-12049.0,2038.0,3620.0,1192.0,-337.0,-210.0,12.0,0.0,7.0,9578.0,-12764.0,3574.0,-1000.0,1326.0,15.0,-163.0,1.0
2022-05-23 15:51:40.818794-07:00,1152.4,722.5,1064.3,969.6,844.4,1137.5,1881.1,1447.9,3467.4,3462.5,1149.8,891.5,1604.0,3466.1,1706.2,1481.0,3472.2,3475.9,1701.4,1957.8,2687.5,3489.2,1559.9,3481.9,3477.1,3480.7,796.0,917.7,2325.4,1299.8,1222.2,931.3,-7.0,19.0,-24.0,10790.0,-11630.0,2027.0,3556.0,1575.0,-243.0,-221.0,7.0,29.0,25.0,10062.0,-12396.0,3479.0,-1191.0,1521.0,48.0,-193.0,1.0
2022-05-23 15:51:40.848617-07:00,1145.4,722.5,1064.3,969.6,834.4,1141.9,1869.3,1449.7,3463.7,3462.5,1149.8,891.5,1609.6,3466.1,1706.2,1485.6,3480.7,3472.2,1701.4,1964.7,2687.5,3489.2,1559.9,3490.5,3488.0,3471.0,804.4,916.9,2325.4,1299.8,1222.2,923.7,15.0,-13.0,-30.0,11165.0,-11281.0,1971.0,3554.0,761.0,-405.0,-202.0,22.0,-1.0,-29.0,10449.0,-12081.0,3384.0,-1360.0,730.0,-29.0,-176.0,1.0
2022-05-23 15:51:40.908447-07:00,1145.4,730.7,1065.1,973.9,834.4,1141.9,1869.3,1445.1,3463.7,3480.7,1152.4,892.4,1609.6,3466.1,1706.2,1474.6,3474.6,3472.2,1701.4,1964.7,2701.8,3491.7,1555.3,3490.5,3469.8,3471.0,804.4,916.9,2316.0,1296.3,1230.2,923.7,-8.0,-75.0,7.0,11343.0,-11114.0,1858.0,3577.0,454.0,-315.0,-157.0,11.0,-58.0,14.0,10628.0,-11936.0,3306.0,-1439.0,543.0,-25.0,-78.0,1.0
2022-05-23 15:51:40.999060-07:00,1153.3,730.7,1065.1,973.9,831.9,1144.5,1872.3,1445.1,3457.6,3480.7,1152.4,892.4,1604.0,3475.9,1695.7,1474.6,3474.6,3478.3,1709.1,1960.8,2701.8,3491.7,1555.3,3479.5,3469.8,3479.5,805.2,911.8,2316.0,1296.3,1230.2,939.8,1.0,2.0,-11.0,11531.0,-10920.0,1763.0,3621.0,568.0,-436.0,-120.0,9.0,-13.0,27.0,10816.0,-11769.0,3267.0,-1502.0,648.0,16.0,-15.0,1.0
2022-05-23 15:51:41.000174-07:00,1153.3,721.6,1069.5,977.3,831.9,1144.5,1872.3,1471.8,3457.6,3474.6,1147.1,895.7,1604.0,3475.9,1695.7,1482.9,3467.4,3478.3,1709.1,1960.8,2701.8,3491.7,1547.8,3479.5,3471.0,3479.5,805.2,911.8,2327.4,1298.1,1218.6,939.8,24.0,2.0,-13.0,11731.0,-10703.0,1640.0,3685.0,613.0,-386.0,-106.0,7.0,6.0,-6.0,11021.0,-11577.0,3237.0,-1568.0,707.0,-14.0,-37.0,1.0
2022-05-23 15:51:41.088490-07:00,1143.6,721.6,1069.5,977.3,835.2,1143.6,1860.6,1471.8,3474.6,3474.6,1147.1,895.7,1604.9,3471.0,1696.7,1482.9,3467.4,3472.2,1689.1,1960.8,2701.8,3491.7,1547.8,3489.2,3471.0,3467.4,803.5,906.7,2327.4,1298.1,1218.6,933.9,3.0,-9.0,-3.0,11933.0,-10476.0,1565.0,3721.0,641.0,-368.0,-96.0,0.0,-9.0,-2.0,11239.0,-11371.0,3186.0,-1637.0,747.0,-26.0,-47.0,1.0
2022-05-23 15:51:41.148548-07:00,1143.6,725.8,1062.5,963.7,835.2,1143.6,1860.6,1444.2,3474.6,3462.5,1140.1,878.0,1604.9,3471.0,1696.7,1476.4,3471.0,3472.2,1689.1,1960.8,2700.7,3489.2,1546.9,3489.2,3467.4,3467.4,803.5,906.7,2301.4,1290.9,1216.8,933.9,24.0,8.0,7.0,12137.0,-10238.0,1502.0,3747.0,612.0,-264.0,-107.0,16.0,21.0,-17.0,11460.0,-11154.0,3128.0,-1704.0,607.0,-42.0,-48.0,1.0
2022-05-23 15:51:41.150244-07:00,1156.8,737.3,1062.5,963.7,833.6,1137.5,1869.3,1444.2,3457.6,3468.6,1140.1,878.0,1616.2,3471.0,1707.2,1476.4,3471.0,3467.4,1704.3,1945.0,2700.7,3489.2,1547.8,3490.5,3467.4,3467.4,805.2,911.8,2301.4,1290.9,1222.2,939.8,4.0,-65.0,9.0,12191.0,-10180.0,1468.0,3745.0,-185.0,-16.0,-33.0,25.0,-49.0,27.0,11532.0,-11086.0,3091.0,-1729.0,-231.0,-14.0,-23.0,1.0
2022-05-23 15:51:41.208500-07:00,1156.8,737.3,1064.3,967.1,833.6,1137.5,1876.2,1444.2,3457.6,3468.6,1141.0,884.8,1616.2,3471.0,1695.7,1473.6,3464.9,3469.8,1704.3,1945.0,2715.0,3497.8,1547.8,3490.5,3463.7,3467.4,805.2,911.8,2359.8,1294.5,1222.2,939.8,20.0,1.0,-34.0,12185.0,-10186.0,1465.0,3750.0,177.0,-13.0,25.0,18.0,3.0,7.0,11525.0,-11091.0,3103.0,-1727.0,210.0,40.0,55.0,1.0
2022-05-23 15:51:41.238577-07:00,1146.3,717.5,1064.3,967.1,845.3,1147.1,1876.2,1444.2,3468.6,3457.6,1141.0,884.8,1608.7,3466.1,1695.7,1473.6,3464.9,3469.8,1706.2,1962.8,2715.0,3497.8,1546.9,3481.9,3463.7,3467.4,805.2,921.1,2359.8,1294.5,1220.4,933.0,-1.0,-22.0,-36.0,12227.0,-10126.0,1453.0,3778.0,126.0,-174.0,24.0,7.0,-17.0,-7.0,11580.0,-11029.0,3115.0,-1733.0,181.0,1.0,49.0,1.0
2022-05-23 15:51:41.298542-07:00,1146.3,717.5,1074.7,969.6,845.3,1147.1,1861.5,1439.6,3468.6,3457.6,1136.6,884.8,1608.7,3466.1,1694.8,1472.7,3474.6,3478.3,1706.2,1962.8,2700.7,3492.9,1546.9,3481.9,3468.6,3479.5,805.2,921.1,2388.1,1293.6,1220.4,933.0,3.0,-24.0,-19.0,12271.0,-10062.0,1401.0,3829.0,172.0,-210.0,11.0,3.0,-15.0,27.0,11640.0,-10963.0,3122.0,-1736.0,222.0,16.0,59.0,1.0
2022-05-23 15:51:41.358937-07:00,1157.7,718.4,1074.7,969.6,831.1,1145.4,1861.5,1439.6,3469.8,3469.8,1136.6,884.8,1611.5,3475.9,1694.8,1472.7,3474.6,3478.3,1694.8,1957.8,2700.7,3492.9,1544.1,3481.9,3468.6,3479.5,801.9,911.0,2388.1,1293.6,1226.6,943.2,14.0,-2.0,33.0,12339.0,-9956.0,1341.0,3905.0,234.0,-294.0,14.0,11.0,-25.0,-8.0,11731.0,-10858.0,3144.0,-1747.0,307.0,48.0,98.0,1.0
2022-05-23 15:51:41.388506-07:00,1157.7,718.4,1060.8,970.5,831.1,1146.3,1863.5,1444.2,3469.8,3469.8,1131.4,884.8,1611.5,3466.1,1694.8,1458.0,3478.3,3469.8,1703.3,1957.8,2702.9,3490.5,1544.1,3481.9,3478.3,3479.5,804.4,911.0,2516.5,1290.9,1226.6,943.2,22.0,20.0,1.0,12407.0,-9882.0,1291.0,3897.0,114.0,-53.0,-141.0,7.0,45.0,34.0,11770.0,-10807.0,3171.0,-1754.0,28.0,71.0,32.0,1.0
2022-05-23 15:51:41.448985-07:00,1148.9,722.5,1069.5,970.5,830.2,1146.3,1863.5,1444.2,3478.3,3471.0,1136.6,884.8,1604.9,3466.1,1694.8,1458.0,3478.3,3469.8,1703.3,1962.8,2702.9,3488.0,1539.4,3492.9,3478.3,3479.5,804.4,908.4,2516.5,1307.0,1227.5,939.8,27.0,-38.0,-12.0,12416.0,-9873.0,1264.0,3901.0,29.0,-55.0,-5.0,23.0,-33.0,-22.0,11757.0,-10806.0,3210.0,-1771.0,-4.0,90.0,36.0,1.0
2022-05-23 15:51:41.568468-07:00,1148.9,722.5,1069.5,959.4,830.2,1143.6,1881.1,1456.2,3478.3,3471.0,1136.6,880.6,1604.9,3457.6,1705.3,1458.9,3475.9,3460.1,1694.8,1962.8,2699.6,3488.0,1539.4,3492.9,3477.1,3467.4,805.2,908.4,2690.8,1307.0,1227.5,939.8,3.0,12.0,-45.0,12478.0,-9804.0,1281.0,3868.0,291.0,57.0,-74.0,7.0,15.0,27.0,11796.0,-10749.0,3240.0,-1802.0,230.0,107.0,20.0,1.0
2022-05-23 15:51:41.569697-07:00,1149.8,720.8,1063.4,959.4,844.4,1143.6,1881.1,1456.2,3462.5,3466.1,1134.9,880.6,1609.6,3457.6,1705.3,1458.9,3475.9,3460.1,1694.8,1954.8,2699.6,3489.2,1539.4,3477.1,3477.1,3467.4,805.2,901.7,2690.8,1315.1,1250.6,962.8,43.0,13.0,-45.0,12516.0,-9765.0,1215.0,3865.0,-77.0,-218.0,-126.0,10.0,38.0,-50.0,11813.0,-10718.0,3269.0,-1829.0,-62.0,67.0,6.0,1.0
2022-05-23 15:51:41.658607-07:00,1149.8,720.8,1063.4,973.9,844.4,1135.7,1880.1,1461.7,3462.5,3466.1,1134.9,889.0,1609.6,3468.6,1719.6,1445.1,3462.5,3464.9,1701.4,1954.8,2701.8,3489.2,1539.4,3477.1,3480.7,3462.5,809.4,901.7,2698.5,1315.1,1250.6,962.8,-27.0,-1.0,-5.0,12465.0,-9837.0,1197.0,3855.0,-409.0,121.0,56.0,2.0,-22.0,10.0,11742.0,-10793.0,3274.0,-1827.0,-484.0,-5.0,-59.0,1.0
2022-05-23 15:51:41.659858-07:00,1145.4,728.2,1064.3,967.1,834.4,1135.7,1880.1,1461.7,3466.1,3458.9,1138.4,878.0,1606.8,3468.6,1719.6,1445.1,3462.5,3464.9,1701.4,1945.0,2701.8,3489.2,1537.6,3492.9,3480.7,3462.5,809.4,905.0,2606.9,1307.9,1274.7,956.8,-5.0,-42.0,-17.0,12289.0,-10049.0,1173.0,3878.0,-665.0,21.0,58.0,1.0,-42.0,1.0,11543.0,-11006.0,3298.0,-1781.0,-720.0,13.0,-12.0,1.0
2022-05-23 15:51:41.688941-07:00,1145.4,728.2,1064.3,967.1,836.1,1132.2,1903.6,1478.3,3466.1,3458.9,1138.4,878.0,1602.1,3468.6,1699.5,1413.1,3475.9,3477.1,1687.2,1953.9,2701.8,3489.2,1537.6,3492.9,3464.9,3469.8,804.4,904.2,2606.9,1307.9,1274.7,956.8,40.0,8.0,-7.0,12105.0,-10259.0,1194.0,3903.0,-606.0,315.0,180.0,21.0,4.0,-53.0,11338.0,-11218.0,3329.0,-1720.0,-753.0,-20.0,-10.0,1.0
2022-05-23 15:51:41.748631-07:00,1140.1,738.9,1060.8,974.8,836.1,1132.2,1903.6,1478.3,3473.4,3468.6,1127.9,878.9,1602.1,3468.6,1699.5,1413.1,3475.9,3477.1,1687.2,1953.9,2683.2,3485.6,1544.1,3481.9,3464.9,3469.8,804.4,904.2,2553.0,1280.1,1269.4,941.5,29.0,85.0,-43.0,11883.0,-10521.0,1336.0,3839.0,-791.0,648.0,180.0,13.0,39.0,-43.0,11055.0,-11504.0,3344.0,-1646.0,-1104.0,-24.0,-102.0,1.0
2022-05-23 15:51:41.808506-07:00,1140.1,738.9,1060.8,974.8,848.6,1163.8,1985.6,1450.6,3473.4,3468.6,1127.9,878.9,1601.1,3471.0,1647.3,1382.1,3468.6,3457.6,1691.9,1957.8,2683.2,3485.6,1544.1,3481.9,3463.7,3466.1,830.2,905.9,2553.0,1280.1,1269.4,941.5,13.0,-51.0,8.0,11459.0,-11017.0,1452.0,3693.0,-1411.0,727.0,37.0,13.0,-76.0,9.0,10551.0,-11982.0,3347.0,-1533.0,-1738.0,-40.0,-158.0,1.0
2022-05-23 15:51:41.838512-07:00,1146.3,760.4,1075.6,973.1,848.6,1163.8,1985.6,1450.6,3478.3,3456.4,1120.9,871.3,1601.1,3471.0,1647.3,1382.1,3468.6,3457.6,1691.9,1957.8,2698.5,3490.5,1560.9,3485.6,3463.7,3466.1,830.2,905.9,2517.5,1240.8,1256.9,935.6,19.0,26.0,11.0,11170.0,-11355.0,1594.0,3493.0,-638.0,843.0,-48.0,11.0,0.0,-1.0,10174.0,-12312.0,3348.0,-1463.0,-892.0,-4.0,-135.0,1.0
2022-05-23 15:51:41.958480-07:00,1146.3,760.4,1075.6,973.1,841.9,1166.5,2046.4,1427.7,3478.3,3456.4,1120.9,871.3,1609.6,3480.7,1555.3,1353.1,3483.2,3484.4,1686.2,1966.7,2698.5,3490.5,1560.9,3485.6,3475.9,3483.2,813.5,897.4,2517.5,1240.8,1256.9,935.6,-45.0,-103.0,-8.0,10880.0,-11693.0,1688.0,3238.0,-1124.0,613.0,-267.0,7.0,-17.0,59.0,9820.0,-12605.0,3336.0,-1412.0,-1257.0,7.0,-172.0,1.0
2022-05-23 15:51:41.959652-07:00,1158.6,757.1,1048.7,967.1,841.9,1166.5,2046.4,1408.5,3466.1,3469.8,1099.9,861.2,1609.6,3480.7,1555.3,1316.9,3457.6,3484.4,1686.2,1966.7,2697.4,3489.2,1607.7,3489.2,3466.1,3483.2,813.5,897.4,2471.7,1181.5,1182.3,924.5,12.0,-68.0,-7.0,10694.0,-11897.0,1686.0,3113.0,-293.0,355.0,-98.0,5.0,-53.0,-27.0,9560.0,-12803.0,3346.0,-1388.0,-420.0,55.0,-57.0,1.0
2022-05-23 15:51:41.988532-07:00,1163.8,757.1,1048.7,967.1,837.7,1135.7,2011.4,1408.5,3468.6,3469.8,1099.9,861.2,1597.4,3466.1,1462.6,1316.9,3457.6,3480.7,1705.3,1970.7,2697.4,3489.2,1607.7,3484.4,3466.1,3477.1,796.9,876.4,2471.7,1181.5,1182.3,921.1,4.0,-10.0,-9.0,10657.0,-11948.0,1758.0,3002.0,-61.0,274.0,13.0,6.0,-7.0,-6.0,9495.0,-12849.0,3353.0,-1390.0,-108.0,38.0,-4.0,1.0
2022-05-23 15:51:42.048571-07:00,1163.8,753.8,1044.4,956.0,837.7,1135.7,2011.4,1394.8,3468.6,3468.6,1085.1,844.4,1597.4,3466.1,1462.6,1288.2,3483.2,3480.7,1705.3,1970.7,2687.5,3488.0,1611.5,3484.4,3479.5,3477.1,796.9,876.4,2424.0,1160.3,1123.5,921.1,20.0,7.0,-2.0,10573.0,-12033.0,1820.0,2920.0,-349.0,275.0,-2.0,7.0,20.0,8.0,9411.0,-12907.0,3369.0,-1380.0,-366.0,29.0,-5.0,1.0
2022-05-23 15:51:42.108466-07:00,1163.8,753.8,1044.4,956.0,836.9,1119.1,1990.5,1394.8,3469.8,3468.6,1085.1,844.4,1595.5,3466.1,1412.2,1288.2,3483.2,3479.5,1703.3,1970.7,2687.5,3488.0,1611.5,3483.2,3479.5,3469.8,791.0,864.6,2424.0,1160.3,1123.5,917.7,15.0,9.0,-1.0,10413.0,-12185.0,1899.0,2813.0,-512.0,506.0,-7.0,14.0,10.0,4.0,9245.0,-13025.0,3388.0,-1355.0,-567.0,35.0,-37.0,1.0
2022-05-23 15:51:42.138576-07:00,1163.8,755.4,1029.7,936.4,836.9,1119.1,1990.5,1367.6,3469.8,3466.1,1080.8,852.0,1595.5,3466.1,1412.2,1276.5,3473.4,3479.5,1703.3,1970.7,2667.8,3495.3,1604.0,3483.2,3478.3,3469.8,791.0,864.6,2382.9,1142.7,1108.6,917.7,28.0,15.0,-6.0,10184.0,-12396.0,1969.0,2679.0,-766.0,462.0,-63.0,18.0,17.0,-6.0,8992.0,-13199.0,3409.0,-1323.0,-809.0,53.0,-63.0,1.0
2022-05-23 15:51:42.199041-07:00,1158.6,756.3,1029.7,936.4,847.0,1118.2,1983.6,1367.6,3468.6,3468.6,1080.8,852.0,1592.7,3462.5,1387.5,1276.5,3473.4,3467.4,1691.9,1975.6,2667.8,3495.3,1607.7,3489.2,3478.3,3467.4,782.7,847.0,2382.9,1142.7,1092.9,920.3,2.0,-60.0,-5.0,9950.0,-12604.0,2016.0,2548.0,-437.0,389.0,-66.0,20.0,-36.0,24.0,8758.0,-13354.0,3422.0,-1298.0,-439.0,70.0,-46.0,1.0
2022-05-23 15:51:42.258614-07:00,1158.6,756.3,1029.7,944.9,847.0,1118.2,1960.8,1365.7,3468.6,3468.6,1073.8,846.1,1592.7,3462.5,1361.2,1269.4,3480.7,3478.3,1691.9,1975.6,2678.8,3491.7,1607.7,3489.2,3467.4,3468.6,782.7,847.0,2369.3,1122.6,1092.9,920.3,-11.0,-26.0,-36.0,9908.0,-12644.0,2070.0,2474.0,73.0,133.0,26.0,3.0,-26.0,0.0,8724.0,-13370.0,3439.0,-1318.0,64.0,58.0,17.0,1.0
2022-05-23 15:51:42.288549-07:00,1167.4,744.7,1029.7,944.9,837.7,1116.5,1960.8,1365.7,3463.7,3468.6,1073.8,846.1,1599.3,3462.5,1361.2,1269.4,3480.7,3478.3,1695.7,1999.5,2678.8,3491.7,1612.4,3488.0,3467.4,3468.6,780.3,841.1,2369.3,1122.6,1067.7,876.4,0.0,-7.0,-20.0,9920.0,-12634.0,2090.0,2455.0,-20.0,66.0,1.0,-3.0,4.0,-23.0,8727.0,-13365.0,3448.0,-1328.0,-67.0,19.0,12.0,1.0
2022-05-23 15:51:42.378401-07:00,1167.4,744.7,1027.1,932.2,837.7,1116.5,1945.0,1356.7,3463.7,3468.6,1065.1,837.7,1599.3,3462.5,1338.6,1256.0,3468.6,3478.3,1695.7,1999.5,2683.2,3481.9,1612.4,3488.0,3473.4,3469.8,780.3,841.1,2338.9,1109.5,1067.7,876.4,0.0,0.0,-24.0,9902.0,-12649.0,2112.0,2430.0,1.0,51.0,23.0,1.0,0.0,0.0,8713.0,-13371.0,3461.0,-1328.0,16.0,15.0,26.0,1.0
2022-05-23 15:51:42.408473-07:00,1159.4,748.0,1027.1,932.2,839.4,1101.7,1945.0,1356.7,3468.6,3475.9,1065.1,837.7,1592.7,3457.6,1338.6,1256.0,3468.6,3478.3,1692.9,1989.5,2683.2,3481.9,1614.3,3486.8,3473.4,3469.8,771.1,829.4,2338.9,1109.5,1070.3,907.6,17.0,3.0,-14.0,9890.0,-12654.0,2126.0,2442.0,-35.0,-17.0,41.0,14.0,1.0,-13.0,8712.0,-13370.0,3469.0,-1324.0,-13.0,-8.0,17.0,1.0
2022-05-23 15:51:42.438530-07:00,1159.4,748.0,1024.5,930.5,839.4,1079.9,1911.5,1342.2,3468.6,3475.9,1065.1,841.9,1592.7,3463.7,1324.1,1251.5,3473.4,3474.6,1683.3,1989.5,2670.0,3477.1,1614.3,3486.8,3468.6,3469.8,768.7,829.4,2321.2,1094.7,1070.3,907.6,20.0,10.0,-4.0,9892.0,-12654.0,2126.0,2439.0,56.0,18.0,2.0,18.0,10.0,6.0,8719.0,-13365.0,3469.0,-1327.0,64.0,-3.0,-2.0,1.0
2022-05-23 15:51:42.498515-07:00,1161.2,753.8,1009.9,930.5,833.6,1079.9,1911.5,1342.2,3464.9,3462.5,1060.8,841.9,1589.9,3463.7,1324.1,1251.5,3473.4,3474.6,1683.3,1977.6,2670.0,3499.0,1616.2,3497.8,3468.6,3469.8,768.7,825.2,2321.2,1092.1,1053.0,905.9,10.0,-1.0,0.0,9907.0,-12642.0,2130.0,2435.0,27.0,0.0,-6.0,5.0,0.0,1.0,8736.0,-13354.0,3465.0,-1336.0,25.0,9.0,-10.0,1.0
2022-05-23 15:51:42.558477-07:00,1161.2,753.8,1009.9,925.4,833.6,1074.7,1919.3,1345.8,3464.9,3462.5,1060.8,834.4,1589.9,3468.6,1313.3,1251.5,3474.6,3468.6,1680.5,1977.6,2679.9,3499.0,1616.2,3497.8,3485.6,3472.2,766.2,825.2,2298.3,1092.1,1053.0,905.9,12.0,-13.0,0.0,9910.0,-12641.0,2123.0,2433.0,-9.0,-9.0,-6.0,5.0,-5.0,-9.0,8736.0,-13354.0,3462.0,-1338.0,4.0,9.0,-4.0,1.0
2022-05-23 15:51:42.648491-07:00,1160.3,757.9,1009.0,925.4,844.4,1074.7,1919.3,1345.8,3464.9,3463.7,1062.5,834.4,1593.6,3468.6,1313.3,1251.5,3474.6,3468.6,1680.5,1984.6,2679.9,3488.0,1612.4,3485.6,3485.6,3472.2,766.2,814.4,2298.3,1079.9,1028.0,898.3,10.0,2.0,-6.0,9912.0,-12639.0,2128.0,2429.0,9.0,8.0,-7.0,6.0,1.0,-5.0,8739.0,-13352.0,3462.0,-1339.0,-12.0,7.0,3.0,1.0
2022-05-23 15:51:42.650021-07:00,1160.3,757.9,1009.0,925.4,844.4,1062.5,1915.4,1325.9,3464.9,3463.7,1062.5,834.4,1593.6,3467.4,1306.1,1237.3,3467.4,3464.9,1683.3,1984.6,2679.9,3488.0,1612.4,3485.6,3473.4,3468.6,763.7,814.4,2287.9,1079.9,1028.0,898.3,14.0,-4.0,-13.0,9910.0,-12643.0,2122.0,2424.0,-7.0,-6.0,-3.0,12.0,-1.0,-7.0,8734.0,-13356.0,3462.0,-1339.0,10.0,5.0,3.0,1.0
2022-05-23 15:51:42.708552-07:00,1161.2,757.9,1002.2,925.4,836.9,1062.5,1915.4,1325.9,3468.6,3467.4,1059.9,834.4,1591.7,3467.4,1306.1,1237.3,3467.4,3464.9,1683.3,1980.6,2679.9,3489.2,1600.2,3486.8,3473.4,3468.6,763.7,811.9,2287.9,1076.4,1031.4,905.9,8.0,-5.0,-16.0,9915.0,-12641.0,2112.0,2423.0,25.0,-33.0,-9.0,8.0,-4.0,-7.0,8741.0,-13352.0,3459.0,-1342.0,43.0,-12.0,0.0,1.0
2022-05-23 15:51:42.738477-07:00,1161.2,757.9,1002.2,919.4,842.8,1059.9,1918.3,1323.2,3468.6,3467.4,1059.9,831.1,1589.9,3467.4,1308.8,1237.3,3478.3,3475.9,1680.5,1980.6,2673.3,3489.2,1600.2,3486.8,3475.9,3478.3,769.5,807.7,2277.6,1076.4,1031.4,905.9,8.0,0.0,-2.0,9922.0,-12635.0,2099.0,2439.0,1.0,-63.0,14.0,7.0,3.0,0.0,8750.0,-13348.0,3454.0,-1339.0,6.0,-17.0,0.0,1.0
2022-05-23 15:51:42.798397-07:00,1159.4,750.5,1009.9,915.2,842.8,1059.9,1918.3,1323.2,3474.6,3467.4,1057.3,836.9,1589.9,3467.4,1308.8,1237.3,3478.3,3475.9,1680.5,1980.6,2648.2,3477.1,1603.0,3486.8,3475.9,3478.3,769.5,807.7,2267.2,1076.4,1034.0,895.7,8.0,0.0,-5.0,9915.0,-12637.0,2084.0,2470.0,-52.0,-86.0,18.0,5.0,4.0,4.0,8742.0,-13353.0,3451.0,-1333.0,-45.0,-12.0,-1.0,1.0
2022-05-23 15:51:42.859641-07:00,1159.4,750.5,1009.9,915.2,843.6,1066.9,1905.6,1332.3,3474.6,3467.4,1057.3,836.9,1586.1,3468.6,1303.4,1223.9,3474.6,3473.4,1671.0,1983.6,2648.2,3477.1,1603.0,3486.8,3471.0,3471.0,761.2,814.4,2267.2,1076.4,1034.0,895.7,13.0,-19.0,10.0,9899.0,-12645.0,2062.0,2509.0,-27.0,-91.0,16.0,11.0,-21.0,3.0,8732.0,-13362.0,3448.0,-1325.0,7.0,-20.0,6.0,1.0
2022-05-23 15:51:42.888587-07:00,1157.7,746.3,1011.6,922.0,843.6,1066.9,1905.6,1332.3,3467.4,3462.5,1059.9,831.1,1586.1,3468.6,1303.4,1223.9,3474.6,3473.4,1671.0,1983.6,2677.7,3484.4,1605.8,3486.8,3471.0,3471.0,761.2,814.4,2246.6,1068.6,1028.0,912.7,22.0,11.0,7.0,9936.0,-12617.0,2041.0,2518.0,109.0,-45.0,-24.0,15.0,16.0,-8.0,8768.0,-13339.0,3443.0,-1329.0,97.0,-3.0,6.0,1.0
2022-05-23 15:51:42.948611-07:00,1157.7,746.3,1011.6,922.0,835.2,1060.8,1901.6,1324.1,3467.4,3462.5,1059.9,831.1,1586.1,3452.8,1305.2,1236.4,3464.9,3477.1,1662.5,1989.5,2677.7,3484.4,1605.8,3486.8,3475.9,3469.8,763.7,802.7,2246.6,1068.6,1028.0,912.7,20.0,6.0,1.0,9956.0,-12607.0,2029.0,2503.0,4.0,14.0,-38.0,7.0,5.0,-2.0,8783.0,-13330.0,3439.0,-1336.0,0.0,8.0,-13.0,1.0
2022-05-23 15:51:43.008616-07:00,1155.0,748.0,1013.3,915.2,835.2,1060.8,1901.6,1324.1,3477.1,3467.4,1050.4,835.2,1586.1,3452.8,1305.2,1226.6,3480.7,3477.1,1662.5,1989.5,2671.1,3478.3,1602.1,3481.9,3467.4,3469.8,763.7,802.7,2239.4,1084.2,1030.6,900.0,2.0,-16.0,-4.0,9955.0,-12610.0,2026.0,2492.0,-12.0,11.0,-3.0,6.0,-14.0,-10.0,8779.0,-13332.0,3439.0,-1340.0,-14.0,13.0,3.0,1.0
2022-05-23 15:51:43.068441-07:00,1159.4,748.0,1013.3,915.2,848.6,1053.0,1886.0,1324.1,3467.4,3467.4,1050.4,835.2,1588.0,3477.1,1304.3,1226.6,3480.7,3471.0,1673.8,1972.7,2671.1,3478.3,1602.1,3490.5,3467.4,3475.9,762.9,807.7,2239.4,1084.2,1030.6,892.4,1.0,-12.0,-8.0,9959.0,-12608.0,2036.0,2478.0,48.0,38.0,-4.0,6.0,5.0,0.0,8786.0,-13326.0,3443.0,-1341.0,45.0,3.0,23.0,1.0
2022-05-23 15:51:43.098548-07:00,1159.4,751.3,1008.2,918.6,848.6,1053.0,1886.0,1302.5,3467.4,3464.9,1048.7,835.2,1588.0,3477.1,1304.3,1228.4,3474.6,3471.0,1673.8,1972.7,2663.5,3486.8,1609.6,3490.5,3474.6,3475.9,762.9,807.7,2220.9,1070.3,1023.7,892.4,15.0,7.0,-8.0,9952.0,-12613.0,2041.0,2476.0,-42.0,15.0,4.0,9.0,9.0,1.0,8778.0,-13331.0,3447.0,-1337.0,-41.0,5.0,4.0,1.0
2022-05-23 15:51:43.158594-07:00,1153.3,751.3,1008.2,918.6,836.1,1045.2,1873.2,1302.5,3462.5,3464.9,1048.7,835.2,1585.2,3471.0,1295.4,1228.4,3474.6,3468.6,1671.0,1975.6,2663.5,3486.8,1609.6,3490.5,3474.6,3479.5,762.0,807.7,2220.9,1070.3,1023.7,898.3,13.0,16.0,-15.0,9936.0,-12628.0,2034.0,2473.0,-53.0,-2.0,-19.0,7.0,16.0,-11.0,8760.0,-13344.0,3445.0,-1335.0,-65.0,-8.0,-21.0,1.0
2022-05-23 15:51:43.188529-07:00,1153.3,749.6,1003.9,915.2,836.1,1045.2,1873.2,1313.3,3462.5,3471.0,1052.2,821.0,1585.2,3471.0,1295.4,1232.8,3474.6,3468.6,1671.0,1975.6,2666.8,3490.5,1602.1,3490.5,3471.0,3479.5,762.0,807.7,2234.2,1065.1,1032.3,898.3,8.0,-27.0,0.0,9914.0,-12647.0,2031.0,2468.0,-9.0,22.0,-7.0,11.0,-11.0,-6.0,8738.0,-13359.0,3443.0,-1333.0,-3.0,-4.0,0.0,1.0
2022-05-23 15:51:43.248662-07:00,1164.7,740.6,1003.9,915.2,832.7,1034.0,1879.1,1313.3,3472.2,3457.6,1052.2,821.0,1596.4,3471.0,1290.9,1232.8,3474.6,3479.5,1664.4,1950.9,2666.8,3490.5,1596.4,3488.0,3471.0,3473.4,749.6,790.2,2234.2,1065.1,1021.9,896.6,9.0,-3.0,-13.0,9922.0,-12640.0,2040.0,2462.0,18.0,9.0,22.0,11.0,-6.0,2.0,8747.0,-13352.0,3445.0,-1335.0,13.0,-4.0,17.0,1.0
2022-05-23 15:51:43.308516-07:00,1164.7,740.6,1000.5,917.7,832.7,1034.0,1868.4,1307.0,3472.2,3457.6,1053.0,836.9,1596.4,3471.0,1288.2,1230.2,3478.3,3468.6,1664.4,1950.9,2664.6,3495.3,1596.4,3488.0,3478.3,3478.3,749.6,790.2,2224.0,1069.5,1021.9,896.6,10.0,-1.0,9.0,9922.0,-12640.0,2042.0,2459.0,-3.0,20.0,9.0,6.0,-1.0,3.0,8747.0,-13351.0,3449.0,-1333.0,2.0,6.0,9.0,1.0
2022-05-23 15:51:43.338556-07:00,1162.1,755.4,1000.5,917.7,836.9,1034.9,1868.4,1307.0,3463.7,3463.7,1053.0,836.9,1590.8,3469.8,1288.2,1230.2,3478.3,3468.6,1662.5,1982.6,2664.6,3495.3,1598.3,3485.6,3478.3,3478.3,755.4,801.9,2224.0,1069.5,1021.9,887.3,9.0,2.0,-3.0,9920.0,-12642.0,2049.0,2451.0,-22.0,29.0,5.0,10.0,-3.0,2.0,8745.0,-13352.0,3450.0,-1336.0,-29.0,15.0,6.0,1.0
2022-05-23 15:51:43.398683-07:00,1162.1,755.4,996.2,912.7,836.9,1034.9,1862.5,1288.2,3463.7,3463.7,1048.7,831.9,1590.8,3469.8,1290.9,1228.4,3478.3,3462.5,1662.5,1982.6,2666.8,3491.7,1598.3,3485.6,3475.9,3471.0,755.4,801.9,2217.8,1071.2,1021.9,887.3,4.0,-5.0,-10.0,9924.0,-12641.0,2052.0,2441.0,40.0,18.0,-14.0,0.0,0.0,-5.0,8748.0,-13349.0,3451.0,-1340.0,30.0,4.0,4.0,1.0
2022-05-23 15:51:43.458465-07:00,1155.9,749.6,996.2,912.7,837.7,1038.3,1862.5,1288.2,3458.9,3468.6,1048.7,831.9,1587.1,3466.1,1290.9,1228.4,3478.3,3462.5,1669.1,1975.6,2666.8,3491.7,1601.1,3483.2,3475.9,3471.0,757.1,801.0,2217.8,1071.2,1020.2,887.3,10.0,-2.0,-9.0,9927.0,-12639.0,2049.0,2438.0,1.0,-13.0,7.0,4.0,1.0,-5.0,8750.0,-13348.0,3451.0,-1340.0,3.0,-3.0,5.0,1.0
2022-05-23 15:51:43.488567-07:00,1155.9,749.6,999.6,911.0,837.7,1038.3,1860.6,1271.2,3458.9,3468.6,1052.2,828.5,1587.1,3466.1,1290.9,1223.9,3464.9,3462.5,1669.1,1975.6,2664.6,3486.8,1601.1,3483.2,3462.5,3467.4,757.1,801.0,2217.8,1063.4,1020.2,887.3,9.0,-1.0,-3.0,9923.0,-12641.0,2054.0,2440.0,-4.0,9.0,14.0,5.0,-2.0,3.0,8749.0,-13349.0,3451.0,-1340.0,-5.0,4.0,4.0,1.0
2022-05-23 15:51:43.548522-07:00,1159.4,750.5,1010.8,911.0,833.6,1040.1,1860.6,1271.2,3468.6,3469.8,1050.4,828.5,1589.9,3466.1,1290.9,1223.9,3464.9,3462.5,1663.4,1983.6,2664.6,3488.0,1600.2,3480.7,3462.5,3467.4,755.4,798.5,2217.8,1067.7,1016.8,887.3,1.0,-6.0,-8.0,9924.0,-12639.0,2052.0,2448.0,4.0,-36.0,5.0,2.0,-8.0,-2.0,8749.0,-13348.0,3451.0,-1340.0,11.0,-7.0,7.0,1.0
2022-05-23 15:51:43.608680-07:00,1159.4,750.5,1010.8,914.4,833.6,1034.0,1849.8,1298.1,3468.6,3469.8,1050.4,821.9,1589.9,3471.0,1284.6,1223.0,3477.1,3468.6,1660.6,1983.6,2630.8,3488.0,1600.2,3480.7,3475.9,3469.8,757.1,798.5,2200.4,1067.7,1016.8,887.3,-15.0,-14.0,-28.0,9946.0,-12621.0,2025.0,2476.0,90.0,-161.0,-23.0,-2.0,-19.0,-3.0,8775.0,-13333.0,3448.0,-1336.0,113.0,-32.0,19.0,1.0
2022-05-23 15:51:43.638833-07:00,1155.0,745.5,998.7,914.4,846.1,1034.0,1849.8,1298.1,3466.1,3461.3,1049.6,821.9,1591.7,3471.0,1284.6,1223.0,3477.1,3468.6,1660.6,1986.6,2630.8,3494.1,1590.8,3488.0,3475.9,3469.8,757.1,791.0,2200.4,1066.0,1021.9,894.1,-19.0,-8.0,-49.0,10007.0,-12565.0,1945.0,2576.0,213.0,-489.0,-1.0,-1.0,-3.0,12.0,8854.0,-13283.0,3440.0,-1329.0,265.0,-65.0,38.0,1.0
2022-05-23 15:51:43.704917-07:00,1155.0,745.5,998.7,930.5,846.1,1055.6,1920.3,1291.8,3466.1,3461.3,1049.6,828.5,1591.7,3468.6,1302.5,1223.0,3474.6,3467.4,1666.3,1986.6,2665.7,3494.1,1590.8,3488.0,3475.9,3472.2,764.5,791.0,2207.5,1066.0,1021.9,894.1,-22.0,-33.0,-88.0,10175.0,-12405.0,1727.0,2832.0,670.0,-1253.0,-138.0,12.0,-84.0,18.0,9069.0,-13144.0,3413.0,-1336.0,948.0,-115.0,44.0,1.0
2022-05-23 15:51:43.728505-07:00,1150.6,737.3,1030.6,930.5,833.6,1055.6,1920.3,1291.8,3471.0,3456.4,1052.2,828.5,1588.9,3468.6,1302.5,1223.0,3474.6,3467.4,1666.3,1978.6,2665.7,3486.8,1596.4,3486.8,3475.9,3472.2,764.5,821.0,2207.5,1181.5,1131.4,887.3,78.0,-43.0,-21.0,10550.0,-12034.0,1365.0,3235.0,1242.0,-1269.0,-132.0,16.0,1.0,-117.0,9559.0,-12808.0,3329.0,-1387.0,1657.0,-231.0,28.0,1.0
2022-05-23 15:51:43.788468-07:00,1150.6,737.3,1030.6,971.3,833.6,1117.4,2052.4,1291.8,3471.0,3456.4,1052.2,831.9,1582.4,3478.3,1438.7,1259.6,3471.0,3474.6,1658.7,1980.6,2664.6,3486.8,1596.4,3486.8,3474.6,3472.2,761.2,897.4,2194.2,1181.5,1131.4,887.3,30.0,89.0,-17.0,10998.0,-11589.0,1169.0,3433.0,1069.0,-872.0,-175.0,23.0,63.0,10.0,10088.0,-12415.0,3230.0,-1451.0,1260.0,-138.0,16.0,1.0
2022-05-23 15:51:43.879340-07:00,1144.5,748.0,1047.0,988.5,833.6,1117.4,2052.4,1291.8,3468.6,3464.9,1054.8,834.4,1582.4,3478.3,1438.7,1259.6,3471.0,3474.6,1658.7,1980.6,2678.8,3491.7,1588.9,3494.1,3474.6,3472.2,761.2,897.4,2199.3,1218.6,1182.3,874.7,27.0,2.0,74.0,11160.0,-11418.0,899.0,3564.0,66.0,-598.0,-319.0,10.0,7.0,55.0,10283.0,-12271.0,3159.0,-1463.0,259.0,-131.0,-48.0,1.0
2022-05-23 15:51:43.881979-07:00,1144.5,748.0,1047.0,988.5,842.8,1131.4,2100.7,1342.2,3468.6,3464.9,1054.8,834.4,1590.8,3464.9,1500.4,1265.8,3469.8,3471.0,1650.2,1982.6,2678.8,3491.7,1588.9,3494.1,3478.3,3468.6,753.8,922.0,2199.3,1218.6,1182.3,874.7,-4.0,-35.0,67.0,11314.0,-11256.0,644.0,3648.0,596.0,-676.0,-352.0,10.0,-34.0,50.0,10407.0,-12171.0,3130.0,-1481.0,728.0,-4.0,21.0,1.0
2022-05-23 15:51:43.938501-07:00,1154.2,747.2,1072.1,1023.7,842.8,1131.4,2100.7,1342.2,3468.6,3467.4,1055.6,833.6,1590.8,3464.9,1500.4,1265.8,3469.8,3471.0,1650.2,1982.6,2700.7,3484.4,1589.9,3484.4,3478.3,3468.6,753.8,922.0,2188.1,1270.3,1227.5,890.7,9.0,50.0,-18.0,11527.0,-11031.0,481.0,3693.0,409.0,-333.0,-189.0,1.0,61.0,-28.0,10651.0,-11957.0,3108.0,-1533.0,487.0,-24.0,10.0,1.0
2022-05-23 15:51:43.998569-07:00,1154.2,747.2,1072.1,1023.7,836.1,1093.8,2107.8,1390.3,3468.6,3467.4,1055.6,833.6,1588.0,3466.1,1532.9,1303.4,3472.2,3473.4,1664.4,1974.6,2700.7,3484.4,1589.9,3484.4,3477.1,3468.6,753.8,929.6,2188.1,1270.3,1227.5,890.7,-1.0,18.0,-5.0,11664.0,-10898.0,388.0,3670.0,413.0,-169.0,-305.0,9.0,17.0,33.0,10794.0,-11831.0,3085.0,-1561.0,457.0,-6.0,4.0,1.0
2022-05-23 15:51:44.028842-07:00,1151.5,735.6,1090.3,1033.2,836.1,1093.8,2107.8,1428.6,3467.4,3462.5,1049.6,838.6,1588.0,3466.1,1532.9,1296.3,3478.3,3473.4,1664.4,1974.6,2705.1,3483.2,1588.0,3485.6,3474.6,3468.6,753.8,929.6,2198.3,1265.8,1222.2,887.3,0.0,9.0,-7.0,11753.0,-10808.0,312.0,3660.0,90.0,-85.0,-86.0,0.0,16.0,-13.0,10906.0,-11728.0,3070.0,-1588.0,129.0,-26.0,0.0,1.0
2022-05-23 15:51:44.088523-07:00,1145.4,735.6,1090.3,1033.2,835.2,1087.7,2093.7,1428.6,3462.5,3462.5,1049.6,838.6,1591.7,3466.1,1537.6,1296.3,3478.3,3474.6,1671.9,1981.6,2705.1,3483.2,1588.0,3489.2,3474.6,3468.6,752.1,917.7,2198.3,1265.8,1222.2,896.6,-5.0,-30.0,-7.0,11813.0,-10748.0,293.0,3646.0,289.0,-82.0,-83.0,13.0,-20.0,21.0,10963.0,-11678.0,3057.0,-1590.0,282.0,-13.0,39.0,1.0
2022-05-23 15:51:44.148648-07:00,1145.4,737.3,1115.6,1038.3,835.2,1087.7,2093.7,1446.0,3462.5,3469.8,1053.0,831.9,1591.7,3466.1,1537.6,1297.2,3468.6,3474.6,1671.9,1981.6,2710.6,3499.0,1586.1,3489.2,3472.2,3468.6,752.1,917.7,2186.0,1276.5,1227.5,896.6,-7.0,20.0,-75.0,11834.0,-10706.0,231.0,3705.0,-161.0,-305.0,55.0,11.0,21.0,-22.0,11022.0,-11622.0,3056.0,-1593.0,-57.0,-54.0,18.0,1.0
2022-05-23 15:51:44.178833-07:00,1152.4,737.3,1115.6,1038.3,842.8,1098.2,2076.5,1446.0,3474.6,3469.8,1053.0,831.9,1580.5,3467.4,1527.3,1297.2,3468.6,3477.1,1671.0,1972.7,2710.6,3499.0,1586.1,3484.4,3472.2,3477.1,772.8,905.0,2186.0,1276.5,1227.5,899.1,27.0,-53.0,30.0,11814.0,-10700.0,147.0,3790.0,166.0,-196.0,6.0,14.0,-35.0,6.0,11037.0,-11616.0,3040.0,-1568.0,346.0,-60.0,33.0,1.0
2022-05-23 15:51:44.238651-07:00,1152.4,731.5,1112.1,1034.9,842.8,1098.2,2076.5,1420.4,3474.6,3478.3,1056.5,828.5,1580.5,3467.4,1527.3,1293.6,3475.9,3477.1,1671.0,1972.7,2721.6,3495.3,1581.4,3484.4,3472.2,3477.1,772.8,905.0,2168.7,1273.9,1235.5,899.1,18.0,54.0,-17.0,11914.0,-10575.0,135.0,3826.0,229.0,-130.0,-27.0,0.0,46.0,-6.0,11154.0,-11506.0,3026.0,-1577.0,121.0,-41.0,1.0,1.0
2022-05-23 15:51:44.298753-07:00,1148.9,731.5,1112.1,1034.9,846.1,1144.5,2040.4,1420.4,3469.8,3478.3,1056.5,828.5,1583.3,3466.1,1520.8,1293.6,3475.9,3471.0,1670.1,1977.6,2721.6,3495.3,1581.4,3495.3,3472.2,3480.7,780.3,888.2,2168.7,1273.9,1235.5,890.7,-9.0,-30.0,-5.0,11925.0,-10564.0,120.0,3822.0,63.0,-10.0,-31.0,-2.0,-20.0,17.0,11177.0,-11490.0,3005.0,-1569.0,102.0,-42.0,5.0,1.0
2022-05-23 15:51:44.328629-07:00,1148.9,736.5,1099.0,1033.2,846.1,1144.5,2065.5,1467.2,3469.8,3475.9,1048.7,824.4,1583.3,3466.1,1558.1,1316.0,3474.6,3480.7,1670.1,1977.6,2723.8,3485.6,1576.8,3495.3,3481.9,3472.2,780.3,888.2,2184.0,1305.2,1257.8,890.7,-1.0,13.0,-12.0,11936.0,-10545.0,121.0,3842.0,7.0,-1.0,74.0,-2.0,18.0,-26.0,11201.0,-11472.0,2990.0,-1558.0,-59.0,-56.0,3.0,1.0
2022-05-23 15:51:44.388648-07:00,1140.1,743.0,1099.0,1033.2,835.2,1181.5,2065.5,1467.2,3471.0,3463.7,1048.7,824.4,1577.7,3467.4,1558.1,1316.0,3474.6,3480.7,1644.5,1979.6,2723.8,3485.6,1578.6,3492.9,3481.9,3472.2,767.8,893.2,2184.0,1305.2,1265.8,877.2,-21.0,-42.0,2.0,11898.0,-10591.0,148.0,3833.0,-87.0,78.0,-14.0,6.0,-35.0,21.0,11175.0,-11505.0,2978.0,-1530.0,4.0,-58.0,25.0,1.0
2022-05-23 15:51:44.448501-07:00,1140.1,743.0,1086.8,1007.3,835.2,1181.5,2045.4,1462.6,3471.0,3463.7,1053.9,825.2,1577.7,3467.4,1582.4,1327.8,3474.6,3480.7,1644.5,1979.6,2723.8,3497.8,1578.6,3492.9,3473.4,3475.9,767.8,893.2,2177.9,1307.9,1265.8,877.2,25.0,20.0,-4.0,11909.0,-10579.0,137.0,3830.0,40.0,15.0,-4.0,11.0,36.0,-19.0,11193.0,-11490.0,2972.0,-1509.0,-1.0,-55.0,26.0,1.0
2022-05-23 15:51:44.478549-07:00,1149.8,738.9,1086.8,1007.3,837.7,1191.2,2045.4,1462.6,3468.6,3468.6,1053.9,825.2,1584.2,3471.0,1582.4,1327.8,3474.6,3480.7,1653.9,1980.6,2723.8,3497.8,1567.4,3492.9,3473.4,3475.9,762.0,888.2,2177.9,1307.9,1273.9,902.5,-13.0,8.0,0.0,11924.0,-10573.0,162.0,3798.0,39.0,8.0,-64.0,5.0,-5.0,8.0,11208.0,-11480.0,2965.0,-1498.0,65.0,-7.0,9.0,1.0
2022-05-23 15:51:44.538579-07:00,1149.8,738.9,1073.8,997.9,837.7,1191.2,2042.4,1485.6,3468.6,3468.6,1047.0,826.0,1584.2,3471.0,1699.5,1393.0,3467.4,3472.2,1653.9,1980.6,2719.4,3485.6,1567.4,3492.9,3473.4,3475.9,762.0,888.2,2249.7,1325.9,1273.9,902.5,10.0,-23.0,5.0,11944.0,-10565.0,166.0,3759.0,62.0,156.0,-45.0,3.0,0.0,-6.0,11231.0,-11458.0,2961.0,-1497.0,66.0,-22.0,11.0,1.0
2022-05-23 15:51:44.598520-07:00,1158.6,739.7,1067.7,997.9,836.9,1189.4,2042.4,1485.6,3463.7,3460.1,1047.0,826.0,1587.1,3464.9,1699.5,1393.0,3467.4,3472.2,1643.5,1974.6,2719.4,3496.6,1568.3,3483.2,3473.4,3475.9,762.0,897.4,2249.7,1334.1,1279.2,926.2,-5.0,-16.0,-44.0,11953.0,-10566.0,216.0,3725.0,7.0,60.0,48.0,6.0,-18.0,1.0,11241.0,-11449.0,2963.0,-1493.0,2.0,-2.0,19.0,1.0
2022-05-23 15:51:44.629067-07:00,1158.6,739.7,1067.7,995.3,836.9,1181.5,2025.4,1479.2,3463.7,3460.1,1047.0,829.4,1587.1,3469.8,1718.6,1439.6,3477.1,3467.4,1637.9,1974.6,2727.1,3496.6,1568.3,3483.2,3471.0,3469.8,772.8,897.4,2401.8,1334.1,1279.2,926.2,16.0,-2.0,-7.0,11977.0,-10539.0,272.0,3720.0,200.0,155.0,83.0,10.0,-8.0,-5.0,11271.0,-11419.0,2961.0,-1491.0,162.0,-9.0,14.0,1.0
2022-05-23 15:51:44.689054-07:00,1150.6,742.2,1071.2,995.3,843.6,1181.5,2025.4,1479.2,3467.4,3462.5,1048.7,829.4,1583.3,3469.8,1718.6,1439.6,3477.1,3467.4,1637.9,1975.6,2727.1,3497.8,1567.4,3490.5,3471.0,3469.8,772.8,904.2,2401.8,1349.4,1296.3,936.4,-4.0,-28.0,-10.0,12011.0,-10500.0,325.0,3719.0,170.0,10.0,109.0,9.0,-14.0,-13.0,11326.0,-11365.0,2962.0,-1493.0,187.0,-13.0,45.0,1.0
2022-05-23 15:51:44.748509-07:00,1150.6,742.2,1071.2,985.9,843.6,1184.1,2001.5,1463.5,3467.4,3462.5,1048.7,832.7,1583.3,3456.4,1790.7,1494.0,3481.9,3472.2,1648.3,1975.6,2720.5,3497.8,1567.4,3490.5,3474.6,3462.5,766.2,904.2,2511.1,1349.4,1296.3,936.4,-1.0,33.0,1.0,12056.0,-10435.0,370.0,3751.0,186.0,-26.0,14.0,6.0,14.0,24.0,11382.0,-11307.0,2971.0,-1486.0,170.0,-9.0,58.0,1.0
2022-05-23 15:51:44.778551-07:00,1161.2,724.9,1057.3,985.9,835.2,1184.1,2001.5,1463.5,3471.0,3467.4,1057.3,832.7,1585.2,3456.4,1790.7,1494.0,3481.9,3472.2,1648.3,1977.6,2720.5,3501.4,1557.1,3490.5,3474.6,3462.5,766.2,915.2,2511.1,1357.6,1287.3,953.4,22.0,0.0,16.0,12071.0,-10421.0,374.0,3743.0,-31.0,103.0,35.0,0.0,22.0,-11.0,11398.0,-11290.0,2976.0,-1483.0,-35.0,0.0,9.0,1.0
2022-05-23 15:51:44.838985-07:00,1161.2,724.9,1057.3,973.1,834.4,1193.8,1988.5,1458.0,3471.0,3467.4,1057.3,834.4,1582.4,3473.4,1797.4,1532.0,3471.0,3474.6,1647.3,1978.6,2707.3,3501.4,1557.1,3490.5,3471.0,3471.0,780.3,913.5,2554.0,1357.6,1287.3,953.4,-8.0,-5.0,-10.0,12074.0,-10424.0,463.0,3711.0,46.0,157.0,57.0,5.0,-15.0,16.0,11401.0,-11284.0,2985.0,-1485.0,21.0,34.0,16.0,1.0
2022-05-23 15:51:44.898600-07:00,1171.8,740.6,1053.0,997.0,834.4,1193.8,1988.5,1458.0,3468.6,3469.8,1066.0,849.5,1582.4,3473.4,1797.4,1532.0,3471.0,3474.6,1647.3,1978.6,2713.9,3492.9,1559.0,3485.6,3471.0,3471.0,780.3,913.5,2898.7,1373.0,1311.5,950.0,14.0,0.0,-9.0,12066.0,-10439.0,480.0,3693.0,-61.0,28.0,-24.0,18.0,-8.0,-8.0,11383.0,-11297.0,3004.0,-1489.0,-98.0,53.0,26.0,1.0
2022-05-23 15:51:44.928858-07:00,1171.8,740.6,1053.0,997.0,843.6,1195.6,1974.6,1488.4,3468.6,3469.8,1066.0,849.5,1581.4,3469.8,1808.1,1562.7,3472.2,3483.2,1643.5,1977.6,2713.9,3492.9,1559.0,3485.6,3479.5,3485.6,786.1,918.6,2898.7,1373.0,1311.5,950.0,-1.0,3.0,-15.0,12057.0,-10461.0,489.0,3658.0,-77.0,76.0,-48.0,8.0,-20.0,19.0,11354.0,-11320.0,3025.0,-1499.0,-134.0,65.0,-14.0,1.0
2022-05-23 15:51:44.988843-07:00,1163.8,728.2,1044.4,979.0,843.6,1195.6,1974.6,1488.4,3469.8,3474.6,1062.5,852.8,1581.4,3469.8,1808.1,1562.7,3472.2,3483.2,1643.5,1977.6,2708.4,3485.6,1556.2,3489.2,3479.5,3485.6,786.1,918.6,2771.3,1359.4,1299.0,937.3,-7.0,-71.0,-9.0,12038.0,-10485.0,466.0,3657.0,-19.0,-13.0,28.0,-7.0,-29.0,-34.0,11326.0,-11340.0,3047.0,-1509.0,-16.0,37.0,24.0,1.0
2022-05-23 15:51:45.049278-07:00,1163.8,728.2,1044.4,979.0,834.4,1181.5,1943.0,1469.0,3469.8,3474.6,1062.5,852.8,1585.2,3456.4,1781.0,1559.0,3471.0,3478.3,1642.6,1976.6,2708.4,3485.6,1556.2,3489.2,3479.5,3471.0,782.7,916.0,2771.3,1359.4,1299.0,937.3,18.0,60.0,-29.0,12041.0,-10478.0,514.0,3662.0,-74.0,133.0,100.0,9.0,68.0,-26.0,11327.0,-11335.0,3065.0,-1504.0,-116.0,18.0,38.0,1.0
2022-05-23 15:51:45.078539-07:00,1155.0,735.6,1059.1,975.6,834.4,1181.5,1943.0,1469.0,3469.8,3466.1,1067.7,853.7,1585.2,3456.4,1781.0,1559.0,3471.0,3478.3,1642.6,1976.6,2699.6,3490.5,1552.5,3483.2,3479.5,3471.0,782.7,916.0,2739.2,1352.1,1291.8,935.6,18.0,5.0,5.0,11914.0,-10630.0,556.0,3630.0,-537.0,262.0,51.0,10.0,15.0,-4.0,11183.0,-11479.0,3073.0,-1472.0,-593.0,-18.0,-62.0,1.0
2022-05-23 15:51:45.145282-07:00,1170.9,735.6,1059.1,975.6,831.1,1191.2,1930.2,1462.6,3457.6,3466.1,1067.7,853.7,1588.0,3471.0,1789.7,1581.4,3475.9,3478.3,1637.9,1979.6,2699.6,3490.5,1552.5,3488.0,3467.4,3469.8,786.1,915.2,2739.2,1352.1,1291.8,916.9,6.0,-31.0,18.0,11718.0,-10866.0,645.0,3556.0,-718.0,469.0,114.0,1.0,-28.0,-3.0,10967.0,-11689.0,3079.0,-1430.0,-805.0,-3.0,-46.0,1.0
2022-05-23 15:51:45.198554-07:00,1170.9,730.7,1054.8,967.9,831.1,1191.2,1930.2,1455.2,3457.6,3457.6,1089.5,866.3,1588.0,3471.0,1789.7,1582.4,3480.7,3478.3,1637.9,1979.6,2690.8,3489.2,1550.6,3488.0,3478.3,3469.8,786.1,915.2,2662.4,1345.8,1285.5,916.9,-9.0,26.0,-8.0,11427.0,-11192.0,756.0,3468.0,-1106.0,519.0,137.0,0.0,10.0,-13.0,10639.0,-11989.0,3111.0,-1350.0,-1274.0,0.0,-11.0,1.0
2022-05-23 15:51:45.258540-07:00,1153.3,730.7,1054.8,967.9,841.9,1193.8,1928.2,1455.2,3463.7,3457.6,1089.5,866.3,1578.6,3463.7,1783.9,1582.4,3480.7,3469.8,1626.5,1950.9,2690.8,3489.2,1550.6,3477.1,3478.3,3468.6,775.3,907.6,2662.4,1345.8,1285.5,944.9,-32.0,-47.0,-27.0,10902.0,-11728.0,833.0,3366.0,-1944.0,619.0,228.0,-10.0,-16.0,-4.0,10057.0,-12484.0,3159.0,-1207.0,-2087.0,-15.0,-30.0,1.0
2022-05-23 15:51:45.288516-07:00,1153.3,724.9,1051.3,959.4,841.9,1193.8,1928.2,1437.8,3463.7,3472.2,1080.8,862.1,1578.6,3463.7,1783.9,1568.3,3467.4,3469.8,1626.5,1950.9,2706.2,3490.5,1539.4,3477.1,3467.4,3468.6,775.3,907.6,2622.1,1339.5,1281.9,944.9,0.0,-45.0,10.0,10375.0,-12203.0,938.0,3319.0,-1298.0,510.0,349.0,-4.0,-17.0,-7.0,9487.0,-12919.0,3227.0,-1060.0,-1437.0,22.0,68.0,1.0
2022-05-23 15:51:45.348638-07:00,1154.2,724.9,1051.3,959.4,831.1,1178.8,1931.1,1437.8,3462.5,3472.2,1080.8,862.1,1582.4,3462.5,1763.7,1568.3,3467.4,3467.4,1611.5,1963.7,2706.2,3490.5,1539.4,3484.4,3467.4,3475.9,764.5,909.3,2622.1,1339.5,1281.9,933.0,25.0,40.0,0.0,9890.0,-12596.0,1088.0,3285.0,-1474.0,576.0,392.0,12.0,25.0,-23.0,8985.0,-13266.0,3295.0,-930.0,-1580.0,38.0,49.0,1.0
2022-05-23 15:51:45.378597-07:00,1154.2,729.0,1055.6,977.3,831.1,1178.8,1925.2,1429.5,3462.5,3473.4,1078.2,857.9,1582.4,3462.5,1760.8,1562.7,3478.3,3478.3,1611.5,1963.7,2682.1,3494.1,1535.7,3484.4,3474.6,3478.3,764.5,909.3,2585.3,1335.9,1274.7,933.0,4.0,1.0,-4.0,9315.0,-13029.0,1276.0,3208.0,-1572.0,701.0,455.0,9.0,13.0,-12.0,8400.0,-13638.0,3356.0,-800.0,-1663.0,66.0,28.0,1.0
2022-05-23 15:51:45.438447-07:00,1146.3,734.0,1055.6,977.3,835.2,1177.9,1925.2,1429.5,3466.1,3468.6,1078.2,857.9,1589.9,3462.5,1760.8,1562.7,3478.3,3478.3,1636.9,1950.9,2682.1,3494.1,1536.6,3481.9,3474.6,3478.3,766.2,906.7,2585.3,1335.9,1262.2,933.9,7.0,-13.0,6.0,8691.0,-13456.0,1418.0,3137.0,-1595.0,578.0,313.0,12.0,-29.0,0.0,7753.0,-14008.0,3415.0,-660.0,-1734.0,60.0,27.0,1.0
2022-05-23 15:51:45.528496-07:00,1146.3,734.0,1054.8,966.2,835.2,1177.9,1906.6,1415.8,3466.1,3468.6,1083.4,862.9,1589.9,3462.5,1749.3,1553.4,3472.2,3467.4,1636.9,1950.9,2676.6,3472.2,1536.6,3481.9,3467.4,3473.4,766.2,906.7,2560.5,1330.5,1262.2,933.9,1.0,26.0,-9.0,8144.0,-13798.0,1518.0,3069.0,-1391.0,457.0,268.0,4.0,18.0,-7.0,7184.0,-14301.0,3467.0,-543.0,-1470.0,78.0,39.0,1.0
2022-05-23 15:51:45.529826-07:00,1144.5,718.4,1054.8,966.2,836.9,1178.8,1906.6,1415.8,3463.7,3471.0,1083.4,862.9,1585.2,3461.3,1749.3,1553.4,3472.2,3467.4,1636.0,1966.7,2676.6,3472.2,1535.7,3485.6,3467.4,3473.4,758.7,909.3,2560.5,1330.5,1257.8,930.5,-13.0,-54.0,11.0,7532.0,-14142.0,1594.0,3026.0,-1482.0,405.0,290.0,6.0,-48.0,9.0,6686.0,-14535.0,3504.0,-446.0,-1575.0,91.0,44.0,1.0
2022-05-23 15:51:45.589075-07:00,1144.5,718.4,1055.6,966.2,836.9,1178.8,1897.7,1414.9,3463.7,3471.0,1082.5,866.3,1585.2,3461.3,1734.9,1542.2,3471.0,3474.6,1636.0,1966.7,2686.4,3495.3,1535.7,3485.6,3467.4,3478.3,758.7,909.3,2555.1,1321.4,1257.8,930.5,13.0,19.0,5.0,7089.0,-14368.0,1656.0,2998.0,-1008.0,277.0,196.0,10.0,41.0,-17.0,6180.0,-14746.0,3561.0,-341.0,-1095.0,42.0,97.0,1.0
2022-05-23 15:51:45.648622-07:00,1158.6,725.8,1034.9,966.2,842.8,1170.9,1897.7,1414.9,3464.9,3475.9,1079.0,866.3,1603.0,3469.8,1734.9,1542.2,3471.0,3474.6,1626.5,1964.7,2686.4,3489.2,1529.2,3480.7,3467.4,3478.3,763.7,901.7,2555.1,1317.8,1256.9,920.3,14.0,-6.0,9.0,6645.0,-14592.0,1643.0,2942.0,-1000.0,279.0,-66.0,6.0,-32.0,8.0,5702.0,-14930.0,3602.0,-229.0,-1149.0,39.0,36.0,1.0
2022-05-23 15:51:45.678648-07:00,1158.6,725.8,1034.9,968.8,842.8,1163.8,1900.7,1404.0,3464.9,3475.9,1079.0,865.4,1603.0,3462.5,1727.2,1530.1,3474.6,3474.6,1612.4,1964.7,2678.8,3489.2,1529.2,3480.7,3467.4,3483.2,764.5,901.7,2532.5,1317.8,1256.9,920.3,20.0,-4.0,1.0,6461.0,-14695.0,1584.0,2870.0,-199.0,145.0,-86.0,2.0,37.0,5.0,5396.0,-15038.0,3626.0,-171.0,-276.0,48.0,18.0,1.0
2022-05-23 15:51:45.738494-07:00,1146.3,729.0,1051.3,968.8,836.9,1163.8,1900.7,1404.0,3472.2,3467.4,1072.9,865.4,1586.1,3462.5,1727.2,1530.1,3474.6,3474.6,1612.4,1975.6,2678.8,3490.5,1533.8,3483.2,3467.4,3483.2,764.5,905.0,2532.5,1317.8,1287.3,919.4,4.0,13.0,-35.0,6429.0,-14717.0,1580.0,2834.0,-44.0,27.0,-54.0,4.0,-4.0,-13.0,5337.0,-15057.0,3633.0,-174.0,-36.0,14.0,-21.0,1.0
2022-05-23 15:51:45.828453-07:00,1146.3,729.0,1051.3,954.3,836.9,1168.2,1894.8,1414.0,3472.2,3467.4,1072.9,854.5,1586.1,3466.1,1717.7,1525.5,3479.5,3469.8,1619.9,1975.6,2671.1,3490.5,1533.8,3483.2,3479.5,3467.4,771.1,905.0,2511.1,1317.8,1287.3,919.4,5.0,5.0,-8.0,6444.0,-14711.0,1571.0,2835.0,34.0,-20.0,10.0,3.0,18.0,-13.0,5345.0,-15056.0,3625.0,-178.0,41.0,-30.0,-10.0,1.0
2022-05-23 15:51:45.859332-07:00,1144.5,720.0,1035.7,954.3,831.9,1168.2,1894.8,1414.0,3472.2,3468.6,1072.1,854.5,1586.1,3466.1,1717.7,1525.5,3479.5,3469.8,1619.9,1971.7,2671.1,3484.4,1530.1,3489.2,3479.5,3467.4,771.1,901.7,2511.1,1310.6,1252.4,914.4,12.0,-38.0,30.0,6432.0,-14713.0,1553.0,2857.0,33.0,-69.0,-28.0,9.0,-33.0,14.0,5337.0,-15062.0,3615.0,-162.0,28.0,-39.0,-7.0,1.0
2022-05-23 15:51:45.888502-07:00,1144.5,720.0,1035.7,949.2,831.9,1161.2,1880.1,1395.7,3472.2,3468.6,1072.1,857.0,1586.1,3471.0,1713.8,1523.6,3478.3,3469.8,1619.0,1971.7,2672.2,3484.4,1530.1,3489.2,3483.2,3472.2,769.5,901.7,2502.6,1310.6,1252.4,914.4,14.0,5.0,24.0,6527.0,-14670.0,1551.0,2864.0,259.0,-66.0,-44.0,14.0,16.0,10.0,5416.0,-15035.0,3610.0,-171.0,267.0,-17.0,11.0,1.0
2022-05-23 15:51:45.948515-07:00,1139.2,718.4,1028.0,945.8,833.6,1161.2,1880.1,1395.7,3471.0,3468.6,1066.9,851.1,1586.1,3471.0,1713.8,1523.6,3478.3,3469.8,1619.0,1997.5,2673.3,3488.0,1526.4,3490.5,3483.2,3472.2,769.5,900.8,2490.8,1313.3,1239.9,920.3,27.0,6.0,39.0,6525.0,-14679.0,1520.0,2842.0,-131.0,118.0,-81.0,6.0,11.0,9.0,5439.0,-15028.0,3604.0,-173.0,-172.0,-11.0,-38.0,1.0
2022-05-23 15:51:46.008554-07:00,1139.2,718.4,1028.0,945.8,843.6,1151.5,1883.0,1399.4,3471.0,3468.6,1066.9,851.1,1582.4,3458.9,1710.0,1519.9,3481.9,3478.3,1594.6,1960.8,2673.3,3488.0,1526.4,3490.5,3481.9,3475.9,762.9,905.9,2490.8,1313.3,1239.9,920.3,-5.0,-30.0,7.0,6523.0,-14689.0,1520.0,2795.0,110.0,46.0,-24.0,2.0,-26.0,18.0,5406.0,-15041.0,3597.0,-172.0,124.0,21.0,2.0,1.0
2022-05-23 15:51:46.098611-07:00,1161.2,719.2,1028.8,939.8,843.6,1151.5,1883.0,1399.4,3461.3,3466.1,1063.4,847.0,1582.4,3458.9,1710.0,1519.9,3481.9,3478.3,1594.6,1960.8,2668.9,3485.6,1531.0,3481.9,3481.9,3475.9,762.9,905.9,2479.1,1309.7,1245.3,908.4,3.0,-13.0,-9.0,6584.0,-14661.0,1518.0,2800.0,140.0,-43.0,-8.0,-3.0,2.0,-17.0,5466.0,-15019.0,3597.0,-188.0,117.0,-25.0,6.0,1.0
2022-05-23 15:51:46.099980-07:00,1161.2,719.2,1028.8,939.8,840.3,1158.6,1876.2,1398.5,3461.3,3466.1,1063.4,847.0,1582.4,3464.9,1711.0,1514.3,3477.1,3473.4,1609.6,1965.7,2668.9,3485.6,1531.0,3481.9,3475.9,3473.4,751.3,896.6,2479.1,1309.7,1245.3,908.4,8.0,6.0,30.0,6599.0,-14651.0,1538.0,2805.0,-47.0,51.0,57.0,8.0,1.0,21.0,5472.0,-15018.0,3594.0,-178.0,-100.0,-15.0,10.0,1.0
2022-05-23 15:51:46.128892-07:00,1145.4,730.7,1030.6,943.2,840.3,1158.6,1876.2,1398.5,3471.0,3472.2,1064.3,854.5,1582.4,3464.9,1711.0,1514.3,3477.1,3473.4,1609.6,1965.7,2660.2,3483.2,1521.8,3480.7,3475.9,3473.4,751.3,896.6,2474.9,1300.7,1244.4,910.1,7.0,-6.0,27.0,6585.0,-14658.0,1554.0,2796.0,15.0,38.0,11.0,9.0,-8.0,28.0,5459.0,-15022.0,3598.0,-171.0,34.0,2.0,15.0,1.0
2022-05-23 15:51:46.188563-07:00,1153.3,730.7,1030.6,943.2,841.9,1149.8,1882.0,1392.1,3473.4,3472.2,1064.3,854.5,1583.3,3466.1,1708.1,1504.1,3472.2,3480.7,1605.8,1961.8,2660.2,3483.2,1521.8,3488.0,3467.4,3472.2,755.4,895.7,2474.9,1300.7,1244.4,931.3,14.0,-5.0,6.0,6630.0,-14638.0,1557.0,2791.0,149.0,-17.0,-32.0,11.0,-5.0,-2.0,5509.0,-15003.0,3600.0,-190.0,175.0,17.0,1.0,1.0
2022-05-23 15:51:46.248872-07:00,1153.3,722.5,1022.8,944.1,841.9,1149.8,1882.0,1385.7,3473.4,3473.4,1061.7,851.1,1583.3,3466.1,1708.1,1511.5,3468.6,3480.7,1605.8,1961.8,2663.5,3489.2,1521.8,3488.0,3467.4,3472.2,755.4,895.7,2479.1,1306.1,1244.4,931.3,8.0,-37.0,1.0,6769.0,-14576.0,1561.0,2778.0,543.0,-34.0,-41.0,6.0,-19.0,5.0,5669.0,-14943.0,3598.0,-231.0,628.0,-4.0,3.0,1.0
2022-05-23 15:51:46.278645-07:00,1146.3,722.5,1022.8,944.1,837.7,1157.7,1855.7,1385.7,3463.7,3473.4,1061.7,851.1,1598.3,3467.4,1711.0,1511.5,3468.6,3474.6,1613.4,1946.9,2663.5,3489.2,1521.8,3486.8,3467.4,3469.8,755.4,886.5,2479.1,1306.1,1244.4,919.4,0.0,-29.0,-16.0,7126.0,-14402.0,1585.0,2778.0,1170.0,-198.0,-77.0,7.0,-24.0,-4.0,6078.0,-14781.0,3595.0,-325.0,1319.0,-13.0,19.0,1.0
2022-05-23 15:51:46.368504-07:00,1146.3,712.6,1031.4,953.4,837.7,1157.7,1855.7,1381.2,3463.7,3464.9,1059.9,853.7,1598.3,3467.4,1711.0,1506.9,3467.4,3474.6,1613.4,1946.9,2661.3,3481.9,1523.6,3486.8,3462.5,3469.8,755.4,886.5,2468.5,1306.1,1239.1,919.4,19.0,-31.0,-1.0,7739.0,-14077.0,1583.0,2807.0,1845.0,-374.0,-202.0,19.0,-21.0,-13.0,6757.0,-14482.0,3582.0,-471.0,2037.0,-57.0,37.0,1.0
2022-05-23 15:51:46.399173-07:00,1155.9,712.6,1031.4,953.4,835.2,1160.3,1869.3,1381.2,3466.1,3464.9,1059.9,853.7,1573.9,3469.8,1711.0,1506.9,3467.4,3472.2,1613.4,1952.9,2661.3,3481.9,1523.6,3490.5,3462.5,3483.2,757.9,899.1,2468.5,1306.1,1239.1,909.3,30.0,56.0,-43.0,8504.0,-13622.0,1569.0,2848.0,1890.0,-485.0,-144.0,19.0,75.0,-49.0,7574.0,-14075.0,3543.0,-644.0,1957.0,-83.0,-4.0,1.0
2022-05-23 15:51:46.428838-07:00,1155.9,730.7,1024.5,939.8,835.2,1160.3,1869.3,1382.1,3466.1,3469.8,1060.8,849.5,1573.9,3469.8,1717.7,1508.8,3475.9,3475.9,1613.4,1952.9,2654.7,3494.1,1519.9,3490.5,3477.1,3469.8,757.9,899.1,2455.7,1306.1,1241.7,909.3,5.0,38.0,-3.0,9008.0,-13283.0,1504.0,2933.0,1052.0,-476.0,-134.0,-2.0,-1.0,-1.0,8100.0,-13790.0,3479.0,-740.0,1167.0,-118.0,-51.0,1.0
2022-05-23 15:51:46.488532-07:00,1140.1,721.6,1024.5,939.8,829.4,1149.8,1869.3,1382.1,3478.3,3462.5,1060.8,849.5,1579.6,3467.4,1717.7,1508.8,3475.9,3475.9,1619.0,1950.9,2654.7,3494.1,1514.3,3491.7,3477.1,3469.8,757.9,890.7,2455.7,1306.1,1233.7,913.5,8.0,16.0,21.0,9391.0,-13006.0,1429.0,3006.0,1015.0,-404.0,-163.0,-4.0,15.0,7.0,8513.0,-13550.0,3419.0,-819.0,1083.0,-79.0,-53.0,1.0
2022-05-23 15:51:46.518780-07:00,1140.1,721.6,1023.7,934.7,829.4,1149.8,1869.3,1405.8,3478.3,3462.5,1056.5,850.3,1579.6,3467.4,1700.5,1511.5,3469.8,3468.6,1619.0,1950.9,2663.5,3494.1,1514.3,3491.7,3467.4,3467.4,757.9,890.7,2462.1,1300.7,1233.7,913.5,5.0,12.0,15.0,9721.0,-12756.0,1355.0,3065.0,796.0,-391.0,-126.0,4.0,20.0,10.0,8854.0,-13339.0,3364.0,-894.0,830.0,-54.0,-44.0,1.0
2022-05-23 15:51:46.578596-07:00,1145.4,732.3,1023.7,934.7,828.5,1143.6,1869.3,1405.8,3467.4,3466.1,1056.5,850.3,1584.2,3466.1,1700.5,1511.5,3469.8,3468.6,1608.7,1969.7,2663.5,3494.1,1520.8,3494.1,3467.4,3467.4,754.6,883.9,2462.1,1300.7,1239.1,913.5,13.0,-12.0,31.0,9943.0,-12576.0,1257.0,3139.0,518.0,-337.0,-122.0,6.0,-21.0,3.0,9082.0,-13192.0,3322.0,-945.0,588.0,-34.0,-41.0,1.0
2022-05-23 15:51:46.639104-07:00,1145.4,732.3,1026.3,950.0,828.5,1143.6,1872.3,1375.7,3467.4,3466.1,1058.2,849.5,1584.2,3466.1,1700.5,1504.1,3457.6,3472.2,1608.7,1969.7,2656.9,3497.8,1520.8,3494.1,3460.1,3464.9,754.6,883.9,2460.0,1303.4,1239.1,913.5,4.0,-9.0,26.0,10170.0,-12391.0,1205.0,3166.0,717.0,-197.0,-125.0,1.0,-11.0,6.0,9321.0,-13028.0,3290.0,-1010.0,755.0,2.0,-29.0,1.0
2022-05-23 15:51:46.668652-07:00,1151.5,724.9,1026.3,950.0,838.6,1145.4,1872.3,1375.7,3462.5,3462.5,1058.2,849.5,1581.4,3467.4,1700.5,1504.1,3457.6,3472.2,1610.5,1950.9,2656.9,3497.8,1520.8,3486.8,3460.1,3464.9,759.6,886.5,2460.0,1303.4,1231.9,916.9,12.0,12.0,-3.0,10429.0,-12177.0,1181.0,3160.0,717.0,-141.0,-113.0,4.0,20.0,-2.0,9574.0,-12843.0,3263.0,-1088.0,704.0,19.0,-30.0,1.0
2022-05-23 15:51:46.728609-07:00,1151.5,724.9,1034.9,945.8,838.6,1151.5,1848.9,1378.5,3462.5,3462.5,1054.8,846.1,1581.4,3460.1,1710.0,1502.3,3478.3,3473.4,1607.7,1950.9,2662.4,3492.9,1520.8,3486.8,3473.4,3469.8,754.6,886.5,2450.4,1304.3,1231.9,916.9,-2.0,-6.0,-18.0,10612.0,-12021.0,1154.0,3160.0,428.0,-165.0,-101.0,5.0,0.0,-8.0,9751.0,-12711.0,3237.0,-1144.0,440.0,-11.0,-36.0,1.0
2022-05-23 15:51:46.788455-07:00,1149.8,721.6,1041.8,945.8,838.6,1151.5,1848.9,1378.5,3469.8,3468.6,1054.8,846.1,1578.6,3460.1,1710.0,1502.3,3478.3,3473.4,1607.7,1943.0,2662.4,3486.8,1525.5,3486.8,3473.4,3469.8,754.6,889.8,2450.4,1310.6,1239.1,911.0,5.0,-11.0,-16.0,10744.0,-11901.0,1111.0,3183.0,407.0,-177.0,-50.0,5.0,-3.0,-14.0,9892.0,-12605.0,3210.0,-1179.0,438.0,-30.0,-18.0,1.0
2022-05-23 15:51:46.819275-07:00,1149.8,721.6,1041.8,944.9,838.6,1141.0,1842.0,1396.7,3469.8,3468.6,1054.8,841.9,1578.6,3463.7,1692.9,1497.7,3474.6,3461.3,1606.8,1943.0,2655.8,3486.8,1525.5,3486.8,3473.4,3467.4,751.3,889.8,2437.7,1310.6,1239.1,911.0,2.0,38.0,-32.0,10860.0,-11787.0,1079.0,3226.0,248.0,-201.0,-9.0,0.0,40.0,-7.0,10020.0,-12510.0,3179.0,-1203.0,284.0,-57.0,-40.0,1.0
2022-05-23 15:51:46.938616-07:00,1142.7,731.5,1027.1,944.9,834.4,1141.0,1842.0,1396.7,3469.8,3468.6,1058.2,841.9,1585.2,3463.7,1692.9,1497.7,3474.6,3461.3,1606.8,1953.9,2655.8,3494.1,1516.2,3497.8,3473.4,3467.4,751.3,883.1,2437.7,1302.5,1236.4,902.5,0.0,-11.0,12.0,10891.0,-11748.0,1025.0,3280.0,58.0,-190.0,-27.0,0.0,-11.0,12.0,10074.0,-12476.0,3138.0,-1210.0,176.0,-59.0,-65.0,1.0
2022-05-23 15:51:46.939949-07:00,1142.7,731.5,1027.1,950.0,834.4,1147.1,1855.7,1383.9,3469.8,3468.6,1058.2,852.0,1585.2,3477.1,1700.5,1507.8,3484.4,3457.6,1607.7,1953.9,2668.9,3494.1,1516.2,3497.8,3483.2,3466.1,748.0,883.1,2460.0,1302.5,1236.4,902.5,2.0,-25.0,11.0,10983.0,-11655.0,979.0,3320.0,418.0,-198.0,-50.0,8.0,-28.0,26.0,10198.0,-12381.0,3099.0,-1244.0,501.0,-17.0,-46.0,1.0
2022-05-23 15:51:46.968655-07:00,1151.5,728.2,1033.2,945.8,834.4,1147.1,1855.7,1383.9,3474.6,3460.1,1059.1,843.6,1586.1,3477.1,1700.5,1507.8,3484.4,3457.6,1607.7,1959.8,2656.9,3486.8,1522.7,3489.2,3483.2,3466.1,748.0,886.5,2453.6,1303.4,1227.5,911.0,12.0,-18.0,0.0,11169.0,-11467.0,937.0,3365.0,617.0,-277.0,-55.0,11.0,-6.0,5.0,10401.0,-12211.0,3071.0,-1305.0,661.0,11.0,-19.0,1.0
2022-05-23 15:51:47.028957-07:00,1151.5,728.2,1033.2,945.8,836.9,1148.0,1857.6,1375.7,3474.6,3460.1,1059.1,843.6,1580.5,3472.2,1690.0,1496.7,3483.2,3471.0,1611.5,1941.0,2656.9,3486.8,1522.7,3489.2,3468.6,3469.8,762.0,879.7,2453.6,1303.4,1227.5,911.0,4.0,-13.0,5.0,11331.0,-11298.0,896.0,3408.0,412.0,-206.0,-39.0,11.0,-5.0,1.0,10571.0,-12064.0,3051.0,-1357.0,450.0,10.0,-4.0,1.0
2022-05-23 15:51:47.118644-07:00,1148.9,721.6,1040.1,950.9,836.9,1148.0,1857.6,1375.7,3467.4,3466.1,1053.0,848.6,1580.5,3472.2,1690.0,1496.7,3483.2,3471.0,1611.5,1941.0,2660.2,3485.6,1517.1,3486.8,3468.6,3469.8,762.0,879.7,2455.7,1296.3,1234.6,901.7,9.0,-38.0,8.0,11469.0,-11147.0,866.0,3449.0,554.0,-195.0,-37.0,11.0,-37.0,4.0,10726.0,-11922.0,3046.0,-1402.0,610.0,46.0,23.0,1.0
2022-05-23 15:51:47.120628-07:00,1148.9,721.6,1040.1,950.9,838.6,1145.4,1848.9,1385.7,3467.4,3466.1,1053.0,848.6,1589.9,3468.6,1693.8,1497.7,3473.4,3478.3,1599.3,1951.9,2660.2,3485.6,1517.1,3486.8,3475.9,3483.2,751.3,882.3,2455.7,1296.3,1234.6,901.7,0.0,4.0,-25.0,11705.0,-10894.0,861.0,3464.0,859.0,-238.0,-87.0,6.0,-7.0,29.0,10983.0,-11677.0,3041.0,-1486.0,942.0,75.0,18.0,1.0
2022-05-23 15:51:47.209329-07:00,1151.5,722.5,1045.2,954.3,838.6,1145.4,1848.9,1385.7,3480.7,3475.9,1053.0,843.6,1589.9,3468.6,1693.8,1497.7,3473.4,3478.3,1599.3,1951.9,2662.4,3492.9,1513.4,3491.7,3475.9,3483.2,751.3,882.3,2464.2,1297.2,1230.2,905.0,-2.0,20.0,-38.0,11918.0,-10648.0,782.0,3520.0,450.0,-392.0,-80.0,-5.0,7.0,-39.0,11180.0,-11483.0,3030.0,-1552.0,506.0,11.0,-8.0,1.0
2022-05-23 15:51:47.238482-07:00,1154.2,722.5,1045.2,954.3,834.4,1138.4,1867.4,1381.2,3463.7,3475.9,1053.0,843.6,1579.6,3467.4,1685.3,1500.4,3475.9,3477.1,1649.2,1951.9,2662.4,3492.9,1513.4,3486.8,3472.2,3478.3,767.0,883.1,2464.2,1297.2,1230.2,905.9,14.0,-42.0,31.0,11955.0,-10596.0,698.0,3572.0,-15.0,-149.0,-38.0,4.0,-11.0,0.0,11263.0,-11405.0,3008.0,-1568.0,55.0,-34.0,3.0,1.0
2022-05-23 15:51:47.268589-07:00,1154.2,718.4,1031.4,944.9,834.4,1138.4,1867.4,1390.3,3463.7,3464.9,1059.1,852.8,1579.6,3467.4,1685.3,1488.4,3472.2,3477.1,1649.2,1951.9,2679.9,3486.8,1512.5,3486.8,3478.3,3478.3,767.0,883.1,2496.2,1291.8,1224.8,905.9,-12.0,4.0,0.0,11969.0,-10570.0,650.0,3612.0,68.0,-275.0,-29.0,7.0,-17.0,52.0,11283.0,-11385.0,3011.0,-1562.0,96.0,28.0,47.0,1.0
2022-05-23 15:51:47.328547-07:00,1161.2,718.4,1031.4,944.9,838.6,1145.4,1853.7,1390.3,3472.2,3464.9,1059.1,852.8,1581.4,3467.4,1687.2,1488.4,3472.2,3472.2,1684.3,1943.0,2679.9,3486.8,1512.5,3490.5,3478.3,3472.2,765.3,887.3,2496.2,1291.8,1224.8,906.7,50.0,25.0,35.0,11986.0,-10539.0,511.0,3666.0,-77.0,-200.0,-135.0,23.0,63.0,-7.0,11307.0,-11357.0,3026.0,-1566.0,-62.0,18.0,-15.0,1.0
2022-05-23 15:51:47.388543-07:00,1161.2,718.4,1043.5,941.5,838.6,1145.4,1853.7,1432.3,3472.2,3466.1,1115.6,877.2,1581.4,3467.4,1687.2,1487.5,3467.4,3472.2,1684.3,1943.0,2666.8,3485.6,1516.2,3490.5,3480.7,3472.2,765.3,887.3,2605.8,1289.1,1223.9,906.7,-13.0,-14.0,7.0,11985.0,-10543.0,528.0,3656.0,84.0,47.0,23.0,1.0,-32.0,30.0,11288.0,-11372.0,3033.0,-1584.0,65.0,82.0,-20.0,1.0
2022-05-23 15:51:47.418538-07:00,1157.7,718.4,1043.5,941.5,840.3,1143.6,1884.0,1432.3,3474.6,3466.1,1115.6,877.2,1572.1,3466.1,1679.5,1487.5,3467.4,3472.2,1704.3,1934.1,2666.8,3485.6,1516.2,3491.7,3480.7,3472.2,760.4,882.3,2605.8,1289.1,1223.9,913.5,2.0,-2.0,-19.0,11995.0,-10528.0,526.0,3665.0,-1.0,-7.0,23.0,7.0,3.0,-22.0,11296.0,-11355.0,3050.0,-1617.0,-16.0,66.0,-18.0,1.0
2022-05-23 15:51:47.479483-07:00,1157.7,715.1,1035.7,937.3,840.3,1143.6,1884.0,1456.2,3474.6,3469.8,1172.6,894.9,1572.1,3466.1,1679.5,1493.0,3483.2,3472.2,1704.3,1934.1,2665.7,3491.7,1523.6,3491.7,3466.1,3472.2,760.4,882.3,2693.0,1293.6,1215.1,913.5,10.0,18.0,-5.0,11937.0,-10594.0,537.0,3664.0,-362.0,89.0,52.0,8.0,26.0,-10.0,11238.0,-11406.0,3067.0,-1626.0,-436.0,38.0,-30.0,1.0
2022-05-23 15:51:47.538506-07:00,1160.3,720.8,1035.7,937.3,832.7,1128.7,1872.3,1456.2,3468.6,3457.6,1172.6,894.9,1581.4,3467.4,1708.1,1493.0,3483.2,3474.6,1688.1,1937.1,2665.7,3491.7,1519.0,3488.0,3466.1,3474.6,755.4,883.9,2693.0,1293.6,1293.6,917.7,9.0,-31.0,105.0,11810.0,-10745.0,616.0,3623.0,-241.0,511.0,105.0,7.0,-34.0,-26.0,11077.0,-11558.0,3094.0,-1604.0,-353.0,42.0,-14.0,1.0
2022-05-23 15:51:47.568561-07:00,1160.3,720.8,1028.0,939.8,832.7,1128.7,1865.4,1425.9,3468.6,3457.6,1170.0,897.4,1581.4,3467.4,1733.0,1500.4,3471.0,3472.2,1688.1,1937.1,2670.0,3486.8,1519.0,3488.0,3467.4,3464.9,755.4,883.9,2719.4,1362.1,1293.6,917.7,0.0,49.0,10.0,11803.0,-10792.0,940.0,3433.0,-21.0,875.0,233.0,-1.0,66.0,47.0,11032.0,-11592.0,3119.0,-1622.0,-211.0,145.0,-21.0,1.0
2022-05-23 15:51:47.628937-07:00,1148.0,725.8,1028.0,939.8,843.6,1159.4,1865.4,1425.9,3463.7,3464.9,1170.0,897.4,1587.1,3475.9,1733.0,1500.4,3471.0,3472.2,1691.9,1949.9,2670.0,3486.8,1516.2,3479.5,3467.4,3464.9,765.3,875.5,2719.4,1362.1,1367.6,917.7,24.0,47.0,-59.0,11595.0,-11034.0,1152.0,3303.0,-1025.0,594.0,120.0,21.0,31.0,23.0,10847.0,-11748.0,3175.0,-1634.0,-1140.0,155.0,-70.0,1.0
2022-05-23 15:51:47.688480-07:00,1148.0,725.8,1049.6,938.1,843.6,1159.4,1877.2,1436.0,3463.7,3464.9,1147.1,883.1,1587.1,3475.9,1719.6,1458.9,3468.6,3472.2,1691.9,1949.9,2658.0,3486.8,1516.2,3479.5,3469.8,3463.7,765.3,875.5,2654.7,1383.0,1367.6,917.7,-8.0,-134.0,-2.0,11350.0,-11288.0,1144.0,3298.0,-357.0,-18.0,-5.0,11.0,-77.0,-14.0,10525.0,-12018.0,3259.0,-1615.0,-319.0,198.0,50.0,1.0
2022-05-23 15:51:47.718518-07:00,1139.2,724.1,1049.6,938.1,838.6,1175.3,1877.2,1436.0,3462.5,3464.9,1147.1,883.1,1585.2,3468.6,1719.6,1458.9,3468.6,3472.2,1691.9,1951.9,2658.0,3486.8,1515.3,3492.9,3469.8,3463.7,761.2,882.3,2654.7,1383.0,1310.6,912.7,16.0,55.0,-66.0,11341.0,-11295.0,1174.0,3297.0,-152.0,123.0,101.0,6.0,64.0,-54.0,10476.0,-12037.0,3332.0,-1642.0,-239.0,126.0,43.0,1.0
2022-05-23 15:51:47.779310-07:00,1139.2,724.1,1021.1,936.4,838.6,1177.0,1886.9,1415.8,3462.5,3464.9,1120.0,874.7,1585.2,3469.8,1646.4,1412.2,3471.0,3478.3,1677.6,1951.9,2656.9,3486.8,1515.3,3492.9,3478.3,3483.2,757.9,882.3,2581.0,1295.4,1310.6,912.7,11.0,50.0,-34.0,11186.0,-11447.0,1221.0,3283.0,-782.0,302.0,102.0,1.0,34.0,-42.0,10280.0,-12194.0,3382.0,-1620.0,-892.0,71.0,-49.0,1.0
2022-05-23 15:51:47.838479-07:00,1146.3,731.5,1014.2,936.4,836.1,1177.0,1886.9,1415.8,3469.8,3466.1,1106.0,874.7,1581.4,3469.8,1646.4,1412.2,3471.0,3478.3,1677.6,1954.8,2656.9,3486.8,1512.5,3494.1,3478.3,3483.2,757.9,878.0,2581.0,1237.3,1261.3,914.4,16.0,24.0,-35.0,10881.0,-11747.0,1290.0,3221.0,-935.0,540.0,95.0,5.0,-3.0,-54.0,9896.0,-12510.0,3404.0,-1557.0,-1263.0,11.0,-145.0,1.0
2022-05-23 15:51:47.868619-07:00,1146.3,731.5,1014.2,934.7,836.1,1227.5,1965.7,1383.9,3469.8,3466.1,1106.0,852.8,1581.4,3471.0,1551.5,1374.8,3477.1,3468.6,1676.7,1954.8,2660.2,3486.8,1512.5,3494.1,3479.5,3473.4,770.3,878.0,2540.1,1237.3,1261.3,914.4,21.0,-27.0,-11.0,10543.0,-12072.0,1417.0,3089.0,-868.0,675.0,154.0,8.0,-38.0,-23.0,9458.0,-12855.0,3395.0,-1488.0,-1305.0,-7.0,-186.0,1.0
2022-05-23 15:51:47.928522-07:00,1145.4,757.1,1018.5,934.7,832.7,1227.5,1965.7,1383.9,3475.9,3468.6,1077.3,852.8,1580.5,3471.0,1551.5,1374.8,3477.1,3468.6,1676.7,1987.5,2660.2,3485.6,1538.5,3481.9,3479.5,3473.4,770.3,870.5,2540.1,1199.1,1185.9,903.4,-10.0,-5.0,11.0,10272.0,-12326.0,1561.0,2926.0,-656.0,484.0,-121.0,5.0,-58.0,16.0,9129.0,-13101.0,3373.0,-1441.0,-796.0,-4.0,-158.0,1.0
2022-05-23 15:51:47.988522-07:00,1145.4,757.1,1018.5,935.6,832.7,1192.9,2040.4,1373.9,3475.9,3468.6,1077.3,846.1,1580.5,3463.7,1436.9,1335.0,3478.3,3466.1,1660.6,1987.5,2674.4,3485.6,1538.5,3481.9,3475.9,3469.8,770.3,870.5,2504.7,1199.1,1185.9,903.4,0.0,-20.0,17.0,10127.0,-12481.0,1597.0,2747.0,155.0,402.0,-222.0,2.0,16.0,38.0,9051.0,-13162.0,3341.0,-1456.0,115.0,28.0,-87.0,1.0
2022-05-23 15:51:48.018725-07:00,1133.1,748.0,1006.5,912.7,831.1,1192.9,2040.4,1373.9,3469.8,3463.7,1072.1,841.1,1576.8,3463.7,1436.9,1335.0,3478.3,3466.1,1660.6,2012.4,2650.4,3489.2,1551.5,3491.7,3475.9,3469.8,770.3,858.7,2411.3,1167.4,1127.9,899.1,5.0,12.0,0.0,10204.0,-12446.0,1652.0,2585.0,250.0,257.0,-109.0,7.0,21.0,3.0,9121.0,-13112.0,3319.0,-1513.0,227.0,64.0,-78.0,1.0
2022-05-23 15:51:48.078577-07:00,1133.1,748.0,1006.5,912.7,833.6,1160.3,1990.5,1363.9,3469.8,3463.7,1072.1,841.1,1582.4,3471.0,1376.6,1299.0,3473.4,3472.2,1656.8,2003.5,2650.4,3489.2,1551.5,3491.7,3479.5,3475.9,768.7,834.4,2411.3,1167.4,1127.9,899.1,2.0,-1.0,5.0,10244.0,-12431.0,1690.0,2470.0,-69.0,244.0,-101.0,4.0,-3.0,9.0,9113.0,-13117.0,3301.0,-1558.0,-132.0,74.0,-97.0,1.0
2022-05-23 15:51:48.138600-07:00,1132.2,743.9,1009.0,915.2,833.6,1160.3,1990.5,1363.9,3462.5,3468.6,1060.8,833.6,1582.4,3471.0,1376.6,1299.0,3473.4,3472.2,1656.8,2003.5,2658.0,3479.5,1559.0,3481.9,3479.5,3475.9,768.7,834.4,2377.6,1137.5,1097.3,895.7,6.0,-45.0,7.0,10207.0,-12471.0,1737.0,2388.0,-10.0,257.0,63.0,1.0,-20.0,-12.0,9070.0,-13142.0,3306.0,-1596.0,-23.0,88.0,-31.0,1.0
2022-05-23 15:51:48.168514-07:00,1132.2,743.9,1009.0,915.2,837.7,1136.6,1966.7,1350.3,3462.5,3468.6,1060.8,833.6,1580.5,3473.4,1354.0,1287.3,3481.9,3467.4,1642.6,1998.5,2658.0,3479.5,1559.0,3481.9,3472.2,3467.4,765.3,821.9,2377.6,1137.5,1097.3,895.7,-7.0,-11.0,-24.0,10193.0,-12481.0,1829.0,2326.0,-38.0,136.0,46.0,4.0,-15.0,-11.0,9055.0,-13144.0,3325.0,-1619.0,-51.0,61.0,24.0,1.0
2022-05-23 15:51:48.228471-07:00,1141.9,745.5,1008.2,916.9,837.7,1136.6,1966.7,1350.3,3474.6,3474.6,1054.8,831.1,1580.5,3473.4,1354.0,1287.3,3481.9,3467.4,1642.6,1998.5,2643.9,3484.4,1549.7,3492.9,3472.2,3467.4,765.3,821.9,2340.0,1132.2,1086.8,898.3,1.0,6.0,-13.0,10171.0,-12501.0,1849.0,2302.0,-64.0,35.0,-46.0,0.0,10.0,-11.0,9028.0,-13158.0,3341.0,-1620.0,-66.0,20.0,10.0,1.0
2022-05-23 15:51:48.288491-07:00,1146.3,745.5,1008.2,916.9,839.4,1136.6,1933.1,1338.6,3467.4,3474.6,1054.8,831.1,1582.4,3463.7,1338.6,1269.4,3468.6,3478.3,1641.6,2007.4,2643.9,3484.4,1549.7,3492.9,3477.1,3475.9,752.1,812.7,2340.0,1132.2,1086.8,911.0,14.0,4.0,-12.0,10159.0,-12514.0,1840.0,2288.0,-28.0,-6.0,-5.0,1.0,23.0,-12.0,9013.0,-13169.0,3343.0,-1619.0,-35.0,4.0,-20.0,1.0
2022-05-23 15:51:48.318604-07:00,1146.3,739.7,1001.3,916.0,839.4,1136.6,1933.1,1325.0,3467.4,3473.4,1052.2,831.1,1582.4,3463.7,1338.6,1265.8,3469.8,3478.3,1641.6,2007.4,2639.5,3486.8,1556.2,3492.9,3469.8,3475.9,752.1,812.7,2334.7,1121.7,1076.4,911.0,4.0,-22.0,4.0,10139.0,-12529.0,1847.0,2290.0,-73.0,-1.0,14.0,8.0,-21.0,-10.0,8990.0,-13185.0,3340.0,-1615.0,-54.0,-9.0,1.0,1.0
2022-05-23 15:51:48.378648-07:00,1139.2,739.7,1001.3,916.0,827.7,1111.2,1925.2,1325.0,3467.4,3473.4,1052.2,831.1,1574.9,3460.1,1334.1,1265.8,3469.8,3471.0,1655.8,2001.5,2639.5,3486.8,1556.2,3485.6,3469.8,3468.6,744.7,801.0,2334.7,1121.7,1076.4,883.9,-1.0,-8.0,12.0,10132.0,-12535.0,1846.0,2290.0,5.0,-19.0,-5.0,1.0,-5.0,7.0,8989.0,-13187.0,3338.0,-1607.0,3.0,-19.0,18.0,1.0
2022-05-23 15:51:48.438524-07:00,1139.2,749.6,992.7,912.7,827.7,1111.2,1925.2,1327.8,3467.4,3474.6,1047.8,833.6,1574.9,3460.1,1334.1,1259.6,3477.1,3471.0,1655.8,2001.5,2630.8,3492.9,1551.5,3485.6,3467.4,3468.6,744.7,801.0,2324.3,1114.7,1084.2,883.9,10.0,1.0,16.0,10121.0,-12543.0,1844.0,2294.0,-57.0,8.0,24.0,6.0,6.0,1.0,8979.0,-13195.0,3342.0,-1597.0,-54.0,-5.0,11.0,1.0
2022-05-23 15:51:48.469131-07:00,1132.2,749.6,992.7,912.7,843.6,1112.1,1913.4,1327.8,3473.4,3474.6,1047.8,833.6,1576.8,3467.4,1323.2,1259.6,3477.1,3475.9,1640.7,1998.5,2630.8,3492.9,1551.5,3490.5,3467.4,3477.1,743.9,810.2,2324.3,1114.7,1084.2,883.1,4.0,-9.0,14.0,10116.0,-12545.0,1857.0,2297.0,-12.0,17.0,40.0,4.0,-6.0,3.0,8971.0,-13199.0,3346.0,-1594.0,-9.0,2.0,12.0,1.0
2022-05-23 15:51:48.528547-07:00,1132.2,741.4,989.3,922.8,843.6,1112.1,1913.4,1313.3,3473.4,3472.2,1046.1,827.7,1576.8,3467.4,1323.2,1255.1,3473.4,3475.9,1640.7,1998.5,2626.5,3495.3,1552.5,3490.5,3479.5,3477.1,743.9,810.2,2290.0,1111.2,1069.5,883.1,2.0,6.0,4.0,10120.0,-12541.0,1875.0,2285.0,18.0,46.0,-16.0,8.0,2.0,1.0,8975.0,-13196.0,3350.0,-1593.0,0.0,10.0,8.0,1.0
2022-05-23 15:51:48.558640-07:00,1144.5,738.1,989.3,922.8,838.6,1111.2,1906.6,1313.3,3467.4,3466.1,1046.1,827.7,1578.6,3462.5,1318.7,1255.1,3473.4,3467.4,1642.6,2012.4,2626.5,3495.3,1549.7,3488.0,3479.5,3474.6,744.7,800.2,2290.0,1111.2,1059.9,887.3,5.0,-4.0,-6.0,10118.0,-12543.0,1877.0,2280.0,-12.0,-1.0,-2.0,4.0,0.0,-11.0,8972.0,-13197.0,3352.0,-1594.0,-5.0,5.0,-2.0,1.0
2022-05-23 15:51:48.648807-07:00,1144.5,738.1,992.7,918.6,838.6,1111.2,1888.9,1314.2,3467.4,3466.1,1049.6,829.4,1578.6,3462.5,1314.2,1256.9,3479.5,3484.4,1642.6,2012.4,2675.5,3486.8,1549.7,3488.0,3477.1,3467.4,744.7,800.2,2280.7,1113.0,1059.9,887.3,-1.0,-6.0,-2.0,10124.0,-12541.0,1872.0,2274.0,28.0,-2.0,-22.0,4.0,-2.0,-4.0,8975.0,-13195.0,3350.0,-1594.0,29.0,-7.0,-3.0,1.0
2022-05-23 15:51:48.678568-07:00,1141.0,745.5,992.7,918.6,831.1,1098.2,1888.9,1314.2,3455.2,3464.9,1049.6,829.4,1573.9,3463.7,1314.2,1256.9,3479.5,3484.4,1662.5,2003.5,2675.5,3486.8,1552.5,3483.2,3477.1,3467.4,740.6,801.9,2280.7,1113.0,1053.9,889.0,1.0,-9.0,-1.0,10134.0,-12533.0,1869.0,2274.0,18.0,-19.0,2.0,6.0,-4.0,-5.0,8988.0,-13189.0,3345.0,-1591.0,30.0,-21.0,2.0,1.0
2022-05-23 15:51:48.708698-07:00,1141.0,745.5,992.7,922.8,831.1,1098.2,1896.7,1296.3,3455.2,3464.9,1056.5,828.5,1573.9,3463.7,1316.0,1253.3,3466.1,3466.1,1662.5,2003.5,2638.4,3491.7,1552.5,3483.2,3468.6,3469.8,740.6,801.9,2271.4,1111.2,1053.9,889.0,15.0,-4.0,10.0,10143.0,-12526.0,1867.0,2273.0,31.0,-3.0,2.0,15.0,6.0,-2.0,8998.0,-13184.0,3336.0,-1585.0,26.0,-27.0,-1.0,1.0
2022-05-23 15:51:48.768652-07:00,1148.0,737.3,992.7,922.8,839.4,1095.6,1896.7,1296.3,3473.4,3471.0,1056.5,828.5,1578.6,3464.9,1316.0,1253.3,3466.1,3466.1,1636.9,1999.5,2638.4,3491.7,1548.7,3477.1,3468.6,3469.8,743.9,798.5,2271.4,1111.2,1059.1,883.1,19.0,4.0,8.0,10162.0,-12512.0,1867.0,2267.0,55.0,7.0,-12.0,16.0,5.0,-1.0,9013.0,-13176.0,3328.0,-1586.0,61.0,-11.0,-4.0,1.0
2022-05-23 15:51:48.828518-07:00,1148.0,737.3,997.0,913.5,839.4,1096.4,1890.9,1311.5,3473.4,3471.0,1041.8,831.9,1578.6,3472.2,1315.1,1251.5,3472.2,3475.9,1635.0,1999.5,2633.0,3488.0,1548.7,3477.1,3471.0,3484.4,734.8,798.5,2262.1,1106.0,1059.1,883.1,8.0,-19.0,3.0,10171.0,-12506.0,1861.0,2261.0,78.0,-3.0,-26.0,1.0,-6.0,-4.0,9023.0,-13171.0,3321.0,-1584.0,61.0,-27.0,-4.0,1.0
2022-05-23 15:51:48.859505-07:00,1141.0,736.5,997.0,913.5,844.4,1096.4,1890.9,1311.5,3468.6,3464.9,1040.9,831.9,1576.8,3472.2,1315.1,1251.5,3472.2,3475.9,1635.0,1997.5,2633.0,3483.2,1558.1,3486.8,3471.0,3484.4,734.8,794.4,2262.1,1107.8,1053.0,875.5,-8.0,-7.0,9.0,10215.0,-12472.0,1870.0,2248.0,134.0,-6.0,4.0,1.0,-9.0,5.0,9061.0,-13148.0,3310.0,-1582.0,98.0,-22.0,16.0,1.0
2022-05-23 15:51:48.918544-07:00,1141.0,736.5,997.0,909.3,844.4,1086.8,1876.2,1297.2,3468.6,3464.9,1040.9,828.5,1576.8,3468.6,1307.9,1248.0,3466.1,3473.4,1632.2,1997.5,2640.6,3483.2,1558.1,3486.8,3472.2,3464.9,740.6,794.4,2241.4,1107.8,1053.0,875.5,-2.0,11.0,5.0,10247.0,-12445.0,1875.0,2244.0,-21.0,7.0,5.0,-3.0,11.0,-3.0,9089.0,-13129.0,3311.0,-1581.0,-20.0,-1.0,14.0,1.0
2022-05-23 15:51:48.978502-07:00,1140.1,735.6,988.5,909.3,838.6,1086.8,1876.2,1297.2,3464.9,3467.4,1047.8,828.5,1565.5,3468.6,1307.9,1248.0,3466.1,3473.4,1632.2,1991.5,2640.6,3489.2,1552.5,3489.2,3472.2,3464.9,740.6,795.2,2241.4,1099.9,1053.0,870.5,-1.0,-4.0,4.0,10240.0,-12451.0,1886.0,2234.0,8.0,54.0,16.0,6.0,-3.0,6.0,9078.0,-13136.0,3314.0,-1577.0,-4.0,5.0,8.0,1.0
2022-05-23 15:51:49.038872-07:00,1140.1,735.6,988.5,912.7,838.6,1089.5,1874.2,1293.6,3464.9,3467.4,1047.8,826.9,1565.5,3464.9,1306.1,1253.3,3479.5,3458.9,1633.1,1991.5,2638.4,3489.2,1552.5,3489.2,3472.2,3467.4,738.9,795.2,2254.8,1099.9,1053.0,870.5,9.0,-4.0,2.0,10240.0,-12452.0,1890.0,2227.0,-22.0,-15.0,-9.0,9.0,0.0,-5.0,9078.0,-13136.0,3315.0,-1577.0,-21.0,-8.0,8.0,1.0
2022-05-23 15:51:49.068500-07:00,1150.6,748.0,989.3,905.9,838.6,1089.5,1874.2,1293.6,3471.0,3468.6,1044.4,822.7,1562.7,3464.9,1306.1,1253.3,3479.5,3458.9,1633.1,1985.6,2631.9,3497.8,1547.8,3481.9,3472.2,3467.4,738.9,791.9,2232.2,1108.6,1056.5,878.9,12.0,-3.0,6.0,10235.0,-12456.0,1891.0,2226.0,-2.0,43.0,25.0,10.0,0.0,1.0,9069.0,-13142.0,3317.0,-1574.0,-15.0,6.0,14.0,1.0
2022-05-23 15:51:49.128659-07:00,1150.6,748.0,989.3,905.9,841.9,1086.8,1867.4,1295.4,3471.0,3468.6,1044.4,822.7,1577.7,3460.1,1312.4,1246.2,3478.3,3478.3,1626.5,1997.5,2631.9,3497.8,1547.8,3481.9,3469.8,3467.4,737.3,791.0,2232.2,1108.6,1056.5,878.9,7.0,0.0,0.0,10237.0,-12453.0,1906.0,2218.0,31.0,15.0,-4.0,7.0,2.0,0.0,9068.0,-13142.0,3322.0,-1572.0,10.0,9.0,13.0,1.0
2022-05-23 15:51:49.158615-07:00,1154.2,745.5,990.2,916.9,841.9,1086.8,1867.4,1295.4,3471.0,3468.6,1033.2,826.0,1577.7,3460.1,1312.4,1246.2,3478.3,3478.3,1626.5,1997.5,2631.9,3485.6,1554.3,3481.9,3469.8,3467.4,737.3,791.0,2232.2,1115.6,1044.4,874.7,12.0,-4.0,-10.0,10245.0,-12448.0,1917.0,2203.0,36.0,66.0,-9.0,5.0,-8.0,-4.0,9071.0,-13139.0,3322.0,-1572.0,-9.0,-13.0,-3.0,1.0
2022-05-23 15:51:49.218880-07:00,1154.2,745.5,990.2,916.9,844.4,1092.9,1887.9,1295.4,3471.0,3468.6,1033.2,826.0,1574.9,3472.2,1314.2,1249.7,3480.7,3479.5,1627.5,1998.5,2631.9,3485.6,1554.3,3481.9,3472.2,3479.5,737.3,791.9,2232.2,1115.6,1044.4,874.7,-9.0,-13.0,-1.0,10257.0,-12440.0,1930.0,2182.0,54.0,32.0,18.0,4.0,-12.0,0.0,9081.0,-13135.0,3317.0,-1568.0,43.0,-27.0,10.0,1.0
2022-05-23 15:51:49.278558-07:00,1145.4,739.7,986.7,918.6,844.4,1092.9,1887.9,1295.4,3477.1,3473.4,1040.9,823.5,1574.9,3472.2,1314.2,1249.7,3480.7,3479.5,1627.5,1998.5,2628.6,3481.9,1558.1,3496.6,3472.2,3479.5,737.3,791.9,2230.1,1108.6,1055.6,876.4,-6.0,0.0,11.0,10261.0,-12432.0,1936.0,2197.0,-1.0,-87.0,50.0,0.0,6.0,16.0,9090.0,-13129.0,3318.0,-1556.0,13.0,-18.0,33.0,1.0
2022-05-23 15:51:49.308576-07:00,1145.4,739.7,986.7,918.6,831.1,1079.9,1872.3,1276.5,3477.1,3473.4,1040.9,823.5,1575.8,3473.4,1308.8,1253.3,3471.0,3479.5,1626.5,1997.5,2628.6,3481.9,1558.1,3496.6,3468.6,3473.4,730.7,794.4,2230.1,1108.6,1055.6,876.4,4.0,20.0,-4.0,10274.0,-12413.0,1928.0,2252.0,51.0,-155.0,68.0,6.0,23.0,11.0,9107.0,-13116.0,3328.0,-1546.0,87.0,5.0,39.0,1.0
2022-05-23 15:51:49.368741-07:00,1136.6,739.7,993.6,916.9,831.1,1079.9,1872.3,1290.0,3471.0,3471.0,1039.2,833.6,1575.8,3473.4,1308.8,1250.6,3473.4,3479.5,1626.5,1997.5,2635.1,3481.9,1548.7,3483.2,3471.0,3473.4,730.7,794.4,2224.0,1101.7,1049.6,871.3,-10.0,-11.0,-20.0,10282.0,-12399.0,1870.0,2342.0,-6.0,-420.0,-8.0,-2.0,-2.0,-2.0,9126.0,-13101.0,3337.0,-1543.0,54.0,0.0,24.0,1.0
2022-05-23 15:51:49.428630-07:00,1138.4,739.7,993.6,916.9,833.6,1088.6,1887.9,1290.0,3464.9,3471.0,1039.2,833.6,1582.4,3468.6,1314.2,1250.6,3473.4,3467.4,1621.8,1992.5,2635.1,3481.9,1548.7,3488.0,3471.0,3472.2,734.0,798.5,2224.0,1101.7,1049.6,871.3,-23.0,-21.0,-26.0,10298.0,-12371.0,1730.0,2522.0,52.0,-710.0,-31.0,0.0,-36.0,-20.0,9171.0,-13070.0,3337.0,-1540.0,176.0,-37.0,43.0,1.0
2022-05-23 15:51:49.458662-07:00,1138.4,734.0,1005.6,936.4,833.6,1088.6,1887.9,1267.6,3464.9,3469.8,1042.6,826.0,1582.4,3468.6,1314.2,1250.6,3468.6,3467.4,1621.8,1992.5,2623.2,3489.2,1552.5,3488.0,3478.3,3472.2,734.0,798.5,2216.8,1126.1,1066.0,871.3,23.0,3.0,0.0,10385.0,-12285.0,1492.0,2727.0,393.0,-732.0,-267.0,-1.0,-21.0,-14.0,9301.0,-12983.0,3318.0,-1536.0,504.0,-94.0,27.0,1.0
2022-05-23 15:51:49.518599-07:00,1149.8,734.0,1005.6,936.4,837.7,1134.9,1918.3,1267.6,3461.3,3469.8,1042.6,826.0,1578.6,3473.4,1343.1,1250.6,3468.6,3480.7,1621.8,1990.5,2623.2,3489.2,1552.5,3481.9,3478.3,3478.3,741.4,843.6,2216.8,1126.1,1066.0,880.6,9.0,19.0,-9.0,10629.0,-12073.0,1223.0,2865.0,786.0,-812.0,-333.0,-1.0,11.0,-17.0,9580.0,-12789.0,3263.0,-1572.0,964.0,-88.0,-4.0,1.0
2022-05-23 15:51:49.579323-07:00,1149.8,732.3,1022.8,966.2,837.7,1134.9,1918.3,1264.0,3461.3,3466.1,1047.8,823.5,1578.6,3473.4,1343.1,1294.5,3479.5,3480.7,1621.8,1990.5,2623.2,3492.9,1540.3,3481.9,3466.1,3478.3,741.4,843.6,2219.8,1162.1,1120.9,880.6,4.0,29.0,-39.0,10916.0,-11806.0,950.0,3000.0,548.0,-767.0,-306.0,0.0,19.0,-35.0,9927.0,-12534.0,3185.0,-1625.0,927.0,-131.0,-32.0,1.0
2022-05-23 15:51:49.608973-07:00,1140.1,739.7,1022.8,966.2,831.1,1165.6,1957.8,1264.0,3469.8,3461.3,1047.8,823.5,1573.9,3464.9,1467.2,1294.5,3479.5,3478.3,1624.7,1985.6,2623.2,3492.9,1532.0,3490.5,3466.1,3467.4,755.4,922.8,2219.8,1162.1,1116.5,879.7,9.0,-15.0,35.0,11080.0,-11634.0,724.0,3129.0,286.0,-481.0,-74.0,4.0,16.0,-11.0,10165.0,-12364.0,3096.0,-1632.0,569.0,-196.0,-21.0,1.0
2022-05-23 15:51:49.668703-07:00,1140.1,739.7,1034.0,960.2,831.1,1165.6,1964.7,1338.6,3469.8,3461.3,1070.3,835.2,1573.9,3464.9,1481.0,1291.8,3467.4,3473.4,1624.7,1985.6,2642.8,3486.8,1532.0,3490.5,3471.0,3466.1,755.4,922.8,2201.4,1148.0,1116.5,879.7,9.0,-5.0,53.0,11144.0,-11547.0,611.0,3248.0,69.0,-283.0,16.0,2.0,2.0,16.0,10297.0,-12273.0,3035.0,-1601.0,270.0,-158.0,39.0,1.0
2022-05-23 15:51:49.758550-07:00,1131.4,738.1,1034.0,960.2,835.2,1158.6,1964.7,1338.6,3461.3,3468.6,1070.3,835.2,1577.7,3462.5,1481.0,1291.8,3467.4,3473.4,1627.5,1993.5,2642.8,3486.8,1530.1,3477.1,3471.0,3466.1,762.0,925.4,2201.4,1148.0,1138.4,877.2,17.0,8.0,39.0,11166.0,-11508.0,570.0,3316.0,127.0,-100.0,35.0,10.0,-15.0,25.0,10370.0,-12226.0,2998.0,-1562.0,180.0,-123.0,17.0,1.0
2022-05-23 15:51:49.760997-07:00,1131.4,738.1,1018.5,961.1,835.2,1158.6,1963.7,1385.7,3461.3,3468.6,1086.8,847.0,1577.7,3462.5,1557.1,1324.1,3462.5,3473.4,1627.5,1993.5,2647.1,3497.8,1530.1,3477.1,3471.0,3471.0,762.0,925.4,2205.5,1174.4,1138.4,877.2,19.0,25.0,6.0,11246.0,-11424.0,543.0,3340.0,312.0,-134.0,-113.0,7.0,18.0,2.0,10485.0,-12137.0,2960.0,-1558.0,370.0,-78.0,4.0,1.0
2022-05-23 15:51:49.818664-07:00,1131.4,725.8,1018.5,961.1,831.9,1151.5,1963.7,1385.7,3462.5,3462.5,1086.8,847.0,1577.7,3468.6,1557.1,1324.1,3462.5,3473.4,1633.1,1990.5,2647.1,3497.8,1518.0,3489.2,3471.0,3471.0,757.9,925.4,2205.5,1174.4,1193.8,875.5,0.0,-22.0,8.0,11331.0,-11341.0,510.0,3340.0,207.0,-86.0,-28.0,5.0,-14.0,12.0,10581.0,-12062.0,2926.0,-1557.0,234.0,-73.0,-3.0,1.0
2022-05-23 15:51:49.879340-07:00,1131.4,725.8,1020.2,960.2,831.9,1177.0,1991.5,1428.6,3462.5,3462.5,1127.0,862.1,1577.7,3460.1,1623.7,1364.8,3471.0,3479.5,1637.9,1990.5,2659.1,3494.1,1518.0,3489.2,3473.4,3477.1,767.8,925.4,2202.4,1223.9,1193.8,875.5,-3.0,-23.0,12.0,11384.0,-11282.0,483.0,3364.0,141.0,-142.0,-30.0,2.0,-26.0,9.0,10648.0,-12008.0,2908.0,-1547.0,186.0,-53.0,37.0,1.0
2022-05-23 15:51:49.908602-07:00,1142.7,726.6,1015.9,960.2,828.5,1177.0,1991.5,1428.6,3468.6,3471.0,1119.1,862.1,1578.6,3460.1,1623.7,1364.8,3471.0,3479.5,1637.9,1989.5,2659.1,3485.6,1517.1,3475.9,3473.4,3477.1,767.8,918.6,2202.4,1254.2,1228.4,871.3,5.0,8.0,4.0,11435.0,-11226.0,465.0,3384.0,175.0,32.0,34.0,7.0,13.0,11.0,10705.0,-11962.0,2900.0,-1533.0,135.0,-43.0,39.0,1.0
2022-05-23 15:51:49.968687-07:00,1142.7,726.6,1015.9,950.9,828.5,1193.8,2027.4,1509.7,3468.6,3471.0,1119.1,862.1,1578.6,3462.5,1638.8,1383.0,3467.4,3469.8,1626.5,1989.5,2664.6,3485.6,1517.1,3475.9,3471.0,3466.1,772.8,918.6,2203.4,1254.2,1228.4,871.3,-7.0,-7.0,0.0,11460.0,-11195.0,483.0,3396.0,18.0,-89.0,13.0,9.0,-10.0,16.0,10726.0,-11943.0,2904.0,-1522.0,59.0,-10.0,34.0,1.0
2022-05-23 15:51:50.028511-07:00,1146.3,716.7,1016.8,950.9,838.6,1193.8,2027.4,1509.7,3466.1,3473.4,1118.2,862.1,1573.9,3462.5,1638.8,1383.0,3467.4,3469.8,1626.5,1987.5,2664.6,3492.9,1513.4,3489.2,3471.0,3466.1,772.8,911.0,2203.4,1268.5,1221.3,869.6,9.0,13.0,-2.0,11494.0,-11158.0,487.0,3403.0,168.0,65.0,69.0,6.0,22.0,17.0,10772.0,-11901.0,2908.0,-1521.0,82.0,-4.0,39.0,1.0
2022-05-23 15:51:50.058710-07:00,1146.3,716.7,1016.8,953.4,838.6,1179.7,2022.4,1532.0,3466.1,3473.4,1118.2,857.9,1573.9,3462.5,1684.3,1397.6,3467.4,3466.1,1636.9,1987.5,2648.2,3492.9,1513.4,3489.2,3466.1,3464.9,773.6,911.0,2200.4,1268.5,1221.3,869.6,6.0,-24.0,8.0,11508.0,-11140.0,528.0,3410.0,51.0,34.0,26.0,4.0,-21.0,5.0,10787.0,-11885.0,2918.0,-1516.0,95.0,12.0,38.0,1.0
2022-05-23 15:51:50.119127-07:00,1131.4,735.6,1007.3,953.4,833.6,1179.7,2022.4,1532.0,3472.2,3458.9,1128.7,857.9,1573.0,3462.5,1684.3,1397.6,3467.4,3466.1,1636.9,1975.6,2648.2,3495.3,1515.3,3488.0,3466.1,3464.9,773.6,901.7,2200.4,1371.2,1315.1,894.9,11.0,24.0,-5.0,11548.0,-11102.0,618.0,3384.0,243.0,305.0,182.0,21.0,27.0,4.0,10840.0,-11834.0,2930.0,-1522.0,126.0,32.0,36.0,1.0
2022-05-23 15:51:50.208828-07:00,1131.4,735.6,1007.3,945.8,841.9,1174.4,2008.4,1540.3,3472.2,3458.9,1128.7,863.7,1574.9,3475.9,1820.7,1516.2,3468.6,3478.3,1626.5,1981.6,2651.5,3495.3,1515.3,3488.0,3467.4,3472.2,773.6,926.2,2363.0,1371.2,1315.1,894.9,-2.0,33.0,-12.0,11575.0,-11074.0,727.0,3359.0,-5.0,55.0,28.0,0.0,26.0,-10.0,10849.0,-11821.0,2938.0,-1538.0,-10.0,24.0,-26.0,1.0
2022-05-23 15:51:50.210090-07:00,1139.2,722.5,1011.6,948.3,841.9,1174.4,2008.4,1540.3,3471.0,3471.0,1154.2,880.6,1574.9,3475.9,1820.7,1516.2,3468.6,3478.3,1626.5,1981.6,2646.0,3485.6,1518.0,3485.6,3467.4,3472.2,773.6,926.2,2472.7,1373.0,1329.6,903.4,-11.0,-30.0,-15.0,11578.0,-11072.0,745.0,3354.0,103.0,37.0,40.0,-2.0,-2.0,-24.0,10864.0,-11811.0,2921.0,-1547.0,116.0,-23.0,-36.0,1.0
2022-05-23 15:51:50.269685-07:00,1139.2,722.5,1011.6,948.3,835.2,1170.9,1980.6,1515.3,3471.0,3471.0,1154.2,880.6,1578.6,3462.5,1812.9,1546.9,3467.4,3474.6,1620.9,1969.7,2646.0,3485.6,1518.0,3485.6,3472.2,3471.0,776.9,918.6,2472.7,1373.0,1329.6,903.4,-18.0,-18.0,-17.0,11620.0,-11023.0,782.0,3360.0,169.0,-22.0,83.0,-3.0,-6.0,4.0,10915.0,-11766.0,2908.0,-1554.0,120.0,-27.0,26.0,1.0
2022-05-23 15:51:50.328527-07:00,1143.6,725.8,1013.3,936.4,835.2,1170.9,1980.6,1515.3,3463.7,3467.4,1154.2,878.9,1578.6,3462.5,1812.9,1546.9,3467.4,3474.6,1620.9,1969.7,2647.1,3486.8,1516.2,3490.5,3472.2,3471.0,776.9,918.6,2390.3,1327.8,1309.7,891.5,4.0,-39.0,-2.0,11643.0,-10985.0,809.0,3397.0,-58.0,-75.0,149.0,7.0,-3.0,40.0,10936.0,-11748.0,2903.0,-1550.0,-40.0,5.0,-9.0,1.0
2022-05-23 15:51:50.358585-07:00,1143.6,725.8,1013.3,936.4,831.1,1158.6,1953.9,1492.1,3463.7,3467.4,1154.2,878.9,1578.6,3463.7,1790.7,1533.8,3469.8,3472.2,1618.1,1973.7,2647.1,3486.8,1516.2,3490.5,3475.9,3460.1,765.3,919.4,2390.3,1327.8,1309.7,891.5,-43.0,-30.0,-18.0,11656.0,-10940.0,746.0,3513.0,172.0,-808.0,-60.0,12.0,-113.0,42.0,10967.0,-11707.0,2948.0,-1554.0,171.0,91.0,160.0,1.0
2022-05-23 15:51:50.449233-07:00,1147.1,724.9,1010.8,945.8,831.1,1158.6,1953.9,1481.0,3466.1,3466.1,1128.7,864.6,1578.6,3463.7,1790.7,1471.8,3464.9,3472.2,1618.1,1973.7,2648.2,3490.5,1506.0,3481.9,3469.8,3460.1,765.3,919.4,2356.7,1341.3,1289.1,883.9,-18.0,-140.0,73.0,11748.0,-10797.0,535.0,3680.0,585.0,-329.0,116.0,-13.0,-105.0,13.0,11078.0,-11586.0,3016.0,-1543.0,590.0,76.0,259.0,1.0
2022-05-23 15:51:50.478619-07:00,1142.7,724.9,1010.8,945.8,836.9,1133.1,1943.0,1481.0,3471.0,3466.1,1128.7,864.6,1569.3,3461.3,1739.7,1471.8,3464.9,3475.9,1629.4,1965.7,2648.2,3490.5,1506.0,3484.4,3469.8,3474.6,762.0,899.1,2356.7,1341.3,1289.1,885.6,-24.0,62.0,-12.0,11983.0,-10488.0,568.0,3812.0,924.0,-486.0,109.0,-11.0,9.0,-17.0,11339.0,-11298.0,3124.0,-1564.0,784.0,181.0,338.0,1.0
