Time,P0,P1,P2,P3,P4,P5,P6,P7,P8,P9,P10,P11,P12,P13,P14,P15,P16,P17,P18,P19,P20,P21,P22,P23,P24,P25,P26,P27,P28,P29,P30,P31,ECG,AX0,AY0,AZ0,QW0,QX0,QY0,QZ0,GX0,GY0,GZ0,AX1,AY1,AZ1,QW1,QX1,QY1,QZ1,GX1,GY1,GZ1
2022-05-23 14:49:36.474114-07:00,1230.2,791.0,1035.7,973.1,1007.3,858.7,1619.9,1253.3,3473.4,3468.6,1090.3,857.0,1490.3,3473.4,1272.1,1208.0,3471.0,3475.9,1552.5,2020.4,2555.1,3491.7,1756.0,3495.3,3484.4,3483.2,626.2,832.7,1811.9,990.2,918.6,893.2,-10.0,6.0,-12.0,7752.0,-7451.0,9708.0,-7654.0,15.0,35.0,10.0,-11.0,1.0,3.0,9099.0,-12815.0,-3741.0,2725.0,-6.0,21.0,19.0,1.0
2022-05-23 14:49:36.474966-07:00,1231.9,791.0,1035.7,973.1,1011.6,858.7,1653.0,1253.3,3457.6,3468.6,1090.3,857.0,1489.3,3461.3,1273.9,1208.0,3471.0,3471.0,1558.1,2023.4,2555.1,3491.7,1756.0,3491.7,3484.4,3478.3,627.0,831.9,1811.9,990.2,918.6,905.0,-3.0,1.0,-15.0,7743.0,-7445.0,9717.0,-7658.0,-4.0,24.0,3.0,-2.0,-1.0,2.0,9096.0,-12820.0,-3734.0,2722.0,-11.0,15.0,6.0,1.0
2022-05-23 14:49:36.503602-07:00,1231.9,788.6,1042.6,979.0,1011.6,858.7,1653.0,1264.0,3457.6,3475.9,1092.1,855.3,1489.3,3461.3,1273.9,1209.7,3480.7,3471.0,1558.1,2023.4,2563.7,3491.7,1755.0,3491.7,3474.6,3478.3,627.0,831.9,1797.4,987.6,924.5,905.0,3.0,-4.0,-11.0,7740.0,-7446.0,9720.0,-7656.0,-14.0,-14.0,-6.0,4.0,-2.0,1.0,9091.0,-12823.0,-3735.0,2720.0,-17.0,0.0,1.0,1.0
2022-05-23 14:49:36.563642-07:00,1219.5,788.6,1042.6,979.0,1012.5,853.7,1623.7,1264.0,3472.2,3475.9,1092.1,855.3,1491.2,3460.1,1270.3,1209.7,3480.7,3472.2,1554.3,2020.4,2563.7,3491.7,1755.0,3488.0,3474.6,3475.9,629.5,834.4,1797.4,987.6,924.5,890.7,0.0,0.0,-3.0,7742.0,-7444.0,9717.0,-7659.0,17.0,-5.0,0.0,4.0,-2.0,8.0,9094.0,-12822.0,-3735.0,2720.0,9.0,-4.0,-3.0,1.0
2022-05-23 14:49:36.654810-07:00,1219.5,789.4,1034.0,977.3,1012.5,853.7,1619.0,1250.6,3472.2,3474.6,1092.1,859.5,1491.2,3460.1,1272.1,1200.0,3473.4,3478.3,1554.3,2020.4,2566.9,3497.8,1739.7,3488.0,3478.3,3473.4,629.5,834.4,1802.3,985.0,926.2,890.7,-2.0,-1.0,-8.0,7744.0,-7444.0,9715.0,-7659.0,-2.0,-3.0,-12.0,-1.0,-3.0,8.0,9093.0,-12822.0,-3735.0,2720.0,-13.0,-2.0,-6.0,1.0
2022-05-23 14:49:36.655910-07:00,1223.0,786.9,1034.0,977.3,1013.3,843.6,1619.0,1250.6,3457.6,3469.8,1092.1,859.5,1499.5,3467.4,1272.1,1200.0,3473.4,3478.3,1553.4,2018.4,2566.9,3497.8,1753.1,3485.6,3478.3,3473.4,631.9,836.9,1802.3,985.0,930.5,889.8,-4.0,-3.0,-6.0,7745.0,-7443.0,9714.0,-7661.0,20.0,7.0,4.0,-4.0,-5.0,6.0,9093.0,-12822.0,-3734.0,2721.0,9.0,-1.0,-1.0,1.0
2022-05-23 14:49:36.743551-07:00,1223.0,786.9,1045.2,981.6,1013.3,843.6,1624.7,1242.6,3457.6,3469.8,1090.3,858.7,1499.5,3467.4,1290.0,1205.3,3475.9,3469.8,1553.4,2018.4,2559.4,3486.8,1753.1,3485.6,3478.3,3472.2,631.9,836.9,1813.9,990.2,930.5,889.8,-10.0,-6.0,-4.0,7750.0,-7438.0,9710.0,-7666.0,27.0,2.0,-4.0,-9.0,-8.0,5.0,9098.0,-12819.0,-3733.0,2722.0,14.0,-5.0,8.0,1.0
2022-05-23 14:49:36.773517-07:00,1229.3,790.2,1045.2,981.6,995.3,842.8,1624.7,1242.6,3462.5,3468.6,1090.3,858.7,1494.0,3467.4,1290.0,1205.3,3475.9,3469.8,1555.3,2014.4,2559.4,3486.8,1744.5,3485.6,3478.3,3472.2,632.7,835.2,1813.9,990.2,926.2,890.7,-6.0,13.0,-10.0,7753.0,-7426.0,9712.0,-7672.0,16.0,4.0,13.0,0.0,5.0,12.0,9104.0,-12814.0,-3730.0,2725.0,7.0,-2.0,7.0,1.0
2022-05-23 14:49:36.804017-07:00,1229.3,790.2,1036.6,980.7,995.3,842.8,1619.0,1235.5,3462.5,3468.6,1083.4,856.2,1494.0,3467.4,1270.3,1210.6,3467.4,3467.4,1555.3,2014.4,2550.8,3481.9,1744.5,3485.6,3475.9,3466.1,632.7,835.2,1804.2,984.2,926.2,890.7,0.0,-3.0,-5.0,7750.0,-7434.0,9711.0,-7669.0,-8.0,-4.0,-20.0,-4.0,-3.0,5.0,9096.0,-12820.0,-3732.0,2723.0,-18.0,-1.0,-8.0,1.0
2022-05-23 14:49:36.863555-07:00,1227.5,801.0,1036.6,980.7,1003.0,850.3,1619.0,1235.5,3475.9,3473.4,1083.4,856.2,1495.8,3478.3,1270.3,1210.6,3467.4,3467.4,1560.9,2026.4,2550.8,3481.9,1750.2,3479.5,3475.9,3466.1,633.5,835.2,1804.2,984.2,921.1,893.2,-2.0,1.0,-8.0,7753.0,-7430.0,9708.0,-7672.0,12.0,3.0,13.0,0.0,-3.0,8.0,9100.0,-12817.0,-3731.0,2724.0,10.0,-7.0,4.0,1.0
2022-05-23 14:49:36.923588-07:00,1227.5,801.0,1034.9,987.6,1003.0,858.7,1609.6,1241.7,3475.9,3473.4,1090.3,853.7,1495.8,3469.8,1272.1,1200.9,3474.6,3475.9,1557.1,2026.4,2569.1,3495.3,1750.2,3479.5,3477.1,3479.5,632.7,835.2,1818.7,987.6,921.1,893.2,8.0,-3.0,-1.0,7751.0,-7431.0,9711.0,-7670.0,-8.0,10.0,3.0,3.0,-1.0,-1.0,9098.0,-12819.0,-3731.0,2724.0,-8.0,7.0,6.0,1.0
2022-05-23 14:49:37.013771-07:00,1223.9,790.2,1032.3,987.6,1007.3,858.7,1609.6,1241.7,3467.4,3466.1,1098.2,853.7,1500.4,3469.8,1272.1,1200.9,3474.6,3475.9,1557.1,2028.4,2569.1,3486.8,1746.4,3496.6,3477.1,3479.5,632.7,837.7,1818.7,989.3,930.5,896.6,-2.0,0.0,-6.0,7750.0,-7426.0,9712.0,-7676.0,15.0,3.0,-2.0,-1.0,-1.0,9.0,9098.0,-12819.0,-3730.0,2725.0,-1.0,8.0,16.0,1.0
2022-05-23 14:49:37.015233-07:00,1223.9,790.2,1032.3,974.8,1007.3,852.0,1619.0,1253.3,3467.4,3466.1,1098.2,859.5,1500.4,3473.4,1273.9,1208.0,3477.1,3473.4,1560.9,2028.4,2557.3,3486.8,1746.4,3496.6,3467.4,3473.4,630.3,837.7,1805.2,989.3,930.5,896.6,-3.0,-5.0,-8.0,7748.0,-7424.0,9713.0,-7677.0,2.0,14.0,-1.0,-4.0,-4.0,5.0,9096.0,-12821.0,-3727.0,2725.0,-7.0,2.0,5.0,1.0
2022-05-23 14:49:37.103735-07:00,1231.0,801.9,1044.4,974.8,1005.6,852.0,1619.0,1253.3,3478.3,3473.4,1092.1,859.5,1492.1,3473.4,1273.9,1208.0,3477.1,3473.4,1560.9,2024.4,2557.3,3492.9,1738.7,3486.8,3467.4,3473.4,630.3,834.4,1805.2,983.3,917.7,890.7,-6.0,9.0,-16.0,7748.0,-7420.0,9713.0,-7682.0,-2.0,4.0,-3.0,-8.0,2.0,6.0,9096.0,-12821.0,-3727.0,2725.0,-9.0,7.0,1.0,1.0
2022-05-23 14:49:37.104720-07:00,1231.0,801.9,1044.4,979.9,1005.6,842.8,1636.9,1252.4,3478.3,3473.4,1092.1,855.3,1492.1,3472.2,1264.0,1206.2,3488.0,3466.1,1560.9,2024.4,2562.6,3492.9,1738.7,3486.8,3479.5,3469.8,635.1,834.4,1800.3,983.3,917.7,890.7,0.0,-5.0,-7.0,7743.0,-7422.0,9717.0,-7679.0,1.0,20.0,0.0,0.0,-2.0,5.0,9089.0,-12826.0,-3728.0,2723.0,-8.0,6.0,-2.0,1.0
2022-05-23 14:49:37.163465-07:00,1223.9,799.4,1046.1,976.5,1008.2,842.8,1636.9,1252.4,3477.1,3472.2,1083.4,858.7,1490.3,3472.2,1264.0,1206.2,3488.0,3466.1,1560.9,2025.4,2560.5,3488.0,1744.5,3486.8,3479.5,3469.8,635.1,835.2,1807.1,985.0,922.0,892.4,0.0,0.0,-7.0,7741.0,-7421.0,9719.0,-7680.0,-10.0,2.0,-3.0,4.0,-2.0,8.0,9089.0,-12826.0,-3728.0,2723.0,-15.0,4.0,3.0,1.0
2022-05-23 14:49:37.223778-07:00,1223.9,799.4,1046.1,976.5,1003.9,855.3,1623.7,1250.6,3477.1,3472.2,1083.4,858.7,1496.7,3469.8,1274.7,1208.0,3477.1,3475.9,1553.4,2025.4,2560.5,3488.0,1744.5,3486.8,3477.1,3478.3,627.0,838.6,1807.1,985.0,922.0,892.4,1.0,-5.0,-6.0,7739.0,-7422.0,9721.0,-7679.0,3.0,10.0,5.0,0.0,-2.0,4.0,9083.0,-12830.0,-3730.0,2722.0,-6.0,-2.0,6.0,1.0
2022-05-23 14:49:37.253857-07:00,1231.0,789.4,1038.3,978.2,1003.9,855.3,1623.7,1250.6,3467.4,3478.3,1089.5,857.9,1496.7,3469.8,1274.7,1208.0,3477.1,3475.9,1553.4,2025.4,2559.4,3485.6,1752.1,3494.1,3477.1,3478.3,627.0,838.6,1809.0,985.0,920.3,889.8,-2.0,8.0,-10.0,7738.0,-7422.0,9723.0,-7677.0,-20.0,3.0,3.0,-3.0,0.0,6.0,9083.0,-12830.0,-3730.0,2722.0,-22.0,4.0,0.0,1.0
2022-05-23 14:49:37.313561-07:00,1231.0,789.4,1038.3,978.2,998.7,850.3,1610.5,1237.3,3467.4,3478.3,1089.5,857.9,1494.0,3473.4,1274.7,1199.1,3466.1,3474.6,1555.3,2022.4,2559.4,3485.6,1752.1,3494.1,3474.6,3467.4,631.1,829.4,1809.0,985.0,920.3,889.8,0.0,-1.0,-10.0,7737.0,-7422.0,9724.0,-7677.0,-6.0,0.0,-1.0,-5.0,-2.0,0.0,9079.0,-12833.0,-3730.0,2720.0,-9.0,1.0,-1.0,1.0
2022-05-23 14:49:37.343810-07:00,1216.0,786.1,1046.1,977.3,998.7,850.3,1610.5,1237.3,3466.1,3466.1,1090.3,862.1,1494.0,3473.4,1274.7,1199.1,3466.1,3474.6,1555.3,2022.4,2561.6,3490.5,1745.4,3495.3,3474.6,3467.4,631.1,829.4,1806.1,986.7,922.0,891.5,-4.0,1.0,-10.0,7738.0,-7421.0,9723.0,-7678.0,19.0,2.0,-9.0,-3.0,1.0,4.0,9077.0,-12835.0,-3731.0,2720.0,8.0,3.0,-4.0,1.0
2022-05-23 14:49:37.404272-07:00,1216.0,786.1,1046.1,977.3,1000.5,847.0,1638.8,1248.8,3466.1,3466.1,1090.3,862.1,1493.0,3468.6,1276.5,1208.0,3480.7,3474.6,1556.2,2006.4,2561.6,3490.5,1745.4,3495.3,3478.3,3474.6,631.1,832.7,1806.1,986.7,922.0,891.5,-7.0,-3.0,-10.0,7738.0,-7422.0,9721.0,-7679.0,-4.0,-10.0,-4.0,-2.0,-4.0,6.0,9076.0,-12835.0,-3731.0,2720.0,-14.0,3.0,-3.0,1.0
2022-05-23 14:49:37.463572-07:00,1234.6,793.5,1034.9,977.3,1000.5,847.0,1638.8,1253.3,3466.1,3478.3,1087.7,855.3,1493.0,3468.6,1276.5,1202.7,3469.8,3474.6,1556.2,2006.4,2561.6,3488.0,1750.2,3489.2,3478.3,3474.6,631.1,832.7,1798.4,989.3,922.8,896.6,-3.0,-1.0,-10.0,7739.0,-7422.0,9721.0,-7679.0,2.0,-1.0,0.0,0.0,-2.0,7.0,9075.0,-12836.0,-3731.0,2719.0,-4.0,-2.0,2.0,1.0
2022-05-23 14:49:37.583643-07:00,1226.6,793.5,1034.9,977.3,1007.3,843.6,1619.9,1253.3,3471.0,3478.3,1087.7,855.3,1486.6,3472.2,1273.0,1202.7,3469.8,3469.8,1559.0,2026.4,2561.6,3488.0,1750.2,3484.4,3478.3,3479.5,635.1,832.7,1798.4,989.3,922.8,901.7,-2.0,0.0,-10.0,7738.0,-7423.0,9721.0,-7678.0,-6.0,-8.0,8.0,2.0,0.0,4.0,9072.0,-12838.0,-3730.0,2720.0,-1.0,-1.0,8.0,1.0
2022-05-23 14:49:37.585781-07:00,1226.6,786.9,1031.4,983.3,1007.3,843.6,1619.9,1253.3,3471.0,3468.6,1087.7,858.7,1486.6,3472.2,1273.0,1208.0,3471.0,3469.8,1559.0,2026.4,2559.4,3492.9,1743.5,3484.4,3467.4,3479.5,635.1,832.7,1807.1,988.5,921.1,901.7,0.0,8.0,-10.0,7738.0,-7423.0,9720.0,-7679.0,-6.0,-7.0,-10.0,0.0,4.0,1.0,9072.0,-12838.0,-3730.0,2720.0,-8.0,-2.0,-9.0,1.0
2022-05-23 14:49:37.613605-07:00,1227.5,786.9,1031.4,983.3,994.5,841.9,1610.5,1253.3,3471.0,3468.6,1087.7,858.7,1492.1,3468.6,1270.3,1208.0,3471.0,3472.2,1554.3,2029.4,2559.4,3492.9,1743.5,3494.1,3467.4,3475.9,629.5,831.1,1807.1,988.5,921.1,898.3,-13.0,-5.0,-10.0,7734.0,-7428.0,9719.0,-7680.0,7.0,-10.0,-13.0,-8.0,-5.0,7.0,9069.0,-12840.0,-3733.0,2717.0,-3.0,-2.0,-7.0,1.0
2022-05-23 14:49:37.643755-07:00,1227.5,786.9,1037.5,973.9,994.5,841.9,1610.5,1246.2,3471.0,3467.4,1089.5,857.0,1492.1,3468.6,1270.3,1203.5,3469.8,3472.2,1554.3,2029.4,2543.3,3490.5,1746.4,3494.1,3472.2,3475.9,629.5,831.1,1802.3,983.3,922.8,898.3,-5.0,-1.0,-12.0,7738.0,-7428.0,9716.0,-7681.0,-1.0,2.0,7.0,-2.0,-3.0,7.0,9069.0,-12840.0,-3733.0,2717.0,-3.0,-7.0,4.0,1.0
2022-05-23 14:49:37.703696-07:00,1219.5,789.4,1037.5,973.9,1013.3,844.4,1614.3,1246.2,3462.5,3466.1,1089.5,857.0,1492.1,3474.6,1270.3,1203.5,3469.8,3474.6,1559.9,2019.4,2543.3,3490.5,1745.4,3484.4,3472.2,3477.1,635.9,838.6,1802.3,983.3,927.9,889.8,0.0,5.0,-13.0,7738.0,-7428.0,9716.0,-7681.0,-6.0,1.0,6.0,0.0,0.0,4.0,9069.0,-12840.0,-3733.0,2717.0,-11.0,0.0,4.0,1.0
2022-05-23 14:49:37.793529-07:00,1219.5,789.4,1038.3,973.1,1013.3,844.4,1635.0,1246.2,3462.5,3466.1,1090.3,856.2,1492.1,3474.6,1269.4,1207.1,3467.4,3467.4,1559.9,2019.4,2556.2,3502.7,1745.4,3484.4,3469.8,3467.4,635.9,838.6,1808.1,989.3,927.9,889.8,-2.0,-1.0,-12.0,7735.0,-7431.0,9719.0,-7677.0,-18.0,-3.0,8.0,-2.0,-4.0,8.0,9064.0,-12843.0,-3735.0,2716.0,-13.0,-12.0,-5.0,1.0
2022-05-23 14:49:37.794816-07:00,1229.3,785.2,1038.3,973.1,1003.0,843.6,1635.0,1246.2,3466.1,3467.4,1090.3,856.2,1499.5,3464.9,1269.4,1207.1,3467.4,3467.4,1557.1,2035.4,2556.2,3502.7,1749.3,3489.2,3469.8,3467.4,636.7,835.2,1808.1,989.3,922.0,891.5,-5.0,4.0,-12.0,7738.0,-7434.0,9714.0,-7676.0,8.0,-18.0,-16.0,-4.0,-1.0,5.0,9064.0,-12842.0,-3739.0,2717.0,-7.0,-8.0,-15.0,1.0
2022-05-23 14:49:37.883327-07:00,1229.3,785.2,1031.4,978.2,1003.0,843.6,1622.8,1238.2,3466.1,3467.4,1091.2,862.9,1499.5,3464.9,1271.2,1202.7,3478.3,3475.9,1557.1,2035.4,2560.5,3500.2,1749.3,3489.2,3469.8,3475.9,636.7,835.2,1807.1,983.3,922.0,891.5,-5.0,1.0,-8.0,7736.0,-7437.0,9710.0,-7681.0,17.0,-4.0,-10.0,-3.0,-3.0,5.0,9065.0,-12841.0,-3744.0,2714.0,4.0,-3.0,-10.0,1.0
2022-05-23 14:49:37.913652-07:00,1228.4,787.7,1031.4,978.2,1009.9,846.1,1622.8,1238.2,3475.9,3468.6,1091.2,862.9,1499.5,3475.9,1271.2,1202.7,3478.3,3475.9,1558.1,2020.4,2560.5,3500.2,1747.3,3484.4,3469.8,3475.9,631.9,831.9,1807.1,983.3,926.2,894.9,-5.0,-2.0,-13.0,7736.0,-7439.0,9707.0,-7684.0,-8.0,-12.0,-11.0,-3.0,-3.0,6.0,9063.0,-12842.0,-3745.0,2712.0,-13.0,-5.0,-8.0,1.0
2022-05-23 14:49:37.943893-07:00,1228.4,787.7,1040.1,979.9,1009.9,853.7,1629.4,1252.4,3475.9,3468.6,1087.7,857.0,1499.5,3467.4,1273.0,1205.3,3472.2,3469.8,1567.4,2020.4,2563.7,3492.9,1747.3,3484.4,3475.9,3467.4,634.3,831.9,1802.3,987.6,926.2,894.9,-9.0,0.0,-10.0,7737.0,-7437.0,9705.0,-7686.0,15.0,7.0,-3.0,0.0,0.0,9.0,9063.0,-12842.0,-3745.0,2712.0,8.0,0.0,-8.0,1.0
2022-05-23 14:49:38.003653-07:00,1221.3,796.9,1051.3,979.9,1010.8,853.7,1629.4,1252.4,3474.6,3474.6,1097.3,857.0,1492.1,3467.4,1273.0,1205.3,3472.2,3469.8,1567.4,2022.4,2563.7,3496.6,1748.3,3497.8,3475.9,3467.4,634.3,836.9,1802.3,990.2,922.8,896.6,-5.0,0.0,-13.0,7737.0,-7437.0,9704.0,-7687.0,3.0,-9.0,-11.0,0.0,-3.0,7.0,9063.0,-12841.0,-3747.0,2711.0,-2.0,-3.0,-12.0,1.0
2022-05-23 14:49:38.123617-07:00,1221.3,796.9,1051.3,974.8,1010.8,848.6,1635.0,1237.3,3474.6,3474.6,1097.3,855.3,1492.1,3475.9,1271.2,1206.2,3480.7,3477.1,1559.9,2022.4,2557.3,3496.6,1748.3,3497.8,3483.2,3478.3,632.7,836.9,1810.0,990.2,922.8,896.6,-3.0,0.0,-10.0,7738.0,-7436.0,9701.0,-7691.0,20.0,-4.0,-6.0,-4.0,-2.0,6.0,9063.0,-12841.0,-3748.0,2711.0,7.0,-4.0,-10.0,1.0
2022-05-23 14:49:38.124673-07:00,1232.8,794.4,1046.1,974.8,1009.0,848.6,1635.0,1237.3,3466.1,3467.4,1093.8,855.3,1493.0,3475.9,1271.2,1206.2,3480.7,3477.1,1559.9,2018.4,2557.3,3486.8,1750.2,3489.2,3483.2,3478.3,632.7,831.1,1810.0,983.3,920.3,890.7,-7.0,-1.0,-13.0,7740.0,-7437.0,9697.0,-7692.0,-5.0,-10.0,-9.0,-2.0,-2.0,8.0,9065.0,-12839.0,-3752.0,2708.0,-4.0,-8.0,-13.0,1.0
2022-05-23 14:49:38.153777-07:00,1232.8,794.4,1046.1,978.2,1009.0,845.3,1631.3,1233.7,3466.1,3467.4,1093.8,857.0,1493.0,3466.1,1263.1,1199.1,3472.2,3466.1,1540.3,2018.4,2560.5,3486.8,1750.2,3489.2,3467.4,3471.0,634.3,831.1,1809.0,983.3,920.3,890.7,-2.0,2.0,-12.0,7742.0,-7439.0,9692.0,-7696.0,18.0,0.0,-18.0,-5.0,0.0,7.0,9066.0,-12838.0,-3756.0,2705.0,1.0,0.0,-15.0,1.0
2022-05-23 14:49:38.213560-07:00,1216.8,784.4,1050.4,978.2,1009.0,845.3,1631.3,1233.7,3474.6,3464.9,1088.6,857.0,1495.8,3466.1,1263.1,1199.1,3472.2,3466.1,1540.3,2028.4,2560.5,3495.3,1748.3,3497.8,3467.4,3471.0,634.3,836.9,1809.0,980.7,922.8,896.6,-5.0,-6.0,-17.0,7742.0,-7445.0,9691.0,-7691.0,-36.0,-25.0,17.0,-2.0,-2.0,6.0,9059.0,-12843.0,-3760.0,2701.0,-37.0,-8.0,-6.0,1.0
2022-05-23 14:49:38.333673-07:00,1216.8,784.4,1050.4,974.8,1004.8,852.8,1611.5,1246.2,3474.6,3464.9,1088.6,860.4,1498.6,3460.1,1259.6,1205.3,3469.8,3464.9,1551.5,2026.4,2563.7,3495.3,1748.3,3497.8,3488.0,3474.6,633.5,834.4,1827.5,980.7,922.8,896.6,5.0,-5.0,-9.0,7754.0,-7452.0,9708.0,-7651.0,-78.0,-42.0,95.0,-1.0,-5.0,-5.0,9043.0,-12852.0,-3767.0,2702.0,-25.0,-22.0,0.0,1.0
2022-05-23 14:49:38.335827-07:00,1226.6,783.6,1028.0,974.8,1004.8,852.8,1611.5,1246.2,3462.5,3467.4,1083.4,854.5,1498.6,3460.1,1259.6,1205.3,3469.8,3464.9,1551.5,2026.4,2548.7,3486.8,1749.3,3489.2,3488.0,3474.6,633.5,834.4,1800.3,979.0,920.3,892.4,7.0,22.0,-6.0,7768.0,-7448.0,9715.0,-7631.0,14.0,-25.0,-9.0,1.0,0.0,7.0,9043.0,-12851.0,-3770.0,2705.0,16.0,-1.0,-15.0,1.0
2022-05-23 14:49:38.363491-07:00,1226.6,783.6,1028.0,974.8,1009.9,842.8,1622.8,1253.3,3462.5,3467.4,1083.4,854.5,1492.1,3468.6,1274.7,1208.0,3466.1,3474.6,1556.2,2026.4,2548.7,3486.8,1749.3,3489.2,3472.2,3467.4,646.5,832.7,1800.3,979.0,920.3,892.4,-9.0,-6.0,-8.0,7763.0,-7456.0,9707.0,-7639.0,8.0,6.0,-24.0,-3.0,-3.0,13.0,9044.0,-12848.0,-3778.0,2699.0,-4.0,-1.0,-23.0,1.0
2022-05-23 14:49:38.394397-07:00,1228.4,786.1,1042.6,967.9,1009.9,842.8,1622.8,1253.3,3462.5,3471.0,1086.0,857.9,1492.1,3468.6,1274.7,1208.0,3466.1,3474.6,1556.2,2026.4,2555.1,3489.2,1745.4,3490.5,3472.2,3467.4,646.5,832.7,1812.9,983.3,921.1,892.4,-10.0,-1.0,-19.0,7762.0,-7458.0,9701.0,-7645.0,-4.0,2.0,-15.0,-5.0,0.0,7.0,9043.0,-12848.0,-3783.0,2695.0,-21.0,1.0,-9.0,1.0
2022-05-23 14:49:38.454152-07:00,1228.4,786.1,1042.6,967.9,1015.1,836.9,1615.2,1248.0,3462.5,3471.0,1086.0,857.9,1488.4,3468.6,1271.2,1207.1,3475.9,3478.3,1551.5,2016.4,2555.1,3489.2,1745.4,3490.5,3473.4,3473.4,627.0,833.6,1812.9,983.3,921.1,892.4,-3.0,2.0,-17.0,7763.0,-7456.0,9701.0,-7646.0,30.0,1.0,8.0,-2.0,-3.0,3.0,9043.0,-12849.0,-3783.0,2695.0,21.0,-1.0,2.0,1.0
2022-05-23 14:49:38.513717-07:00,1222.2,795.2,1040.9,985.0,1015.1,836.9,1615.2,1246.2,3468.6,3468.6,1086.0,856.2,1488.4,3468.6,1271.2,1203.5,3472.2,3478.3,1551.5,2016.4,2548.7,3481.9,1738.7,3490.5,3468.6,3473.4,627.0,833.6,1802.3,970.5,922.8,905.9,-2.0,0.0,-16.0,7761.0,-7458.0,9701.0,-7647.0,-5.0,6.0,-12.0,1.0,-5.0,10.0,9043.0,-12849.0,-3783.0,2695.0,2.0,-2.0,-4.0,1.0
2022-05-23 14:49:38.543723-07:00,1228.4,795.2,1040.9,985.0,1003.9,848.6,1622.8,1246.2,3462.5,3468.6,1086.0,856.2,1500.4,3469.8,1269.4,1203.5,3472.2,3477.1,1560.9,2024.4,2548.7,3481.9,1738.7,3483.2,3468.6,3473.4,635.1,832.7,1802.3,970.5,922.8,895.7,-4.0,2.0,-9.0,7762.0,-7457.0,9700.0,-7648.0,16.0,3.0,1.0,-2.0,-4.0,9.0,9044.0,-12848.0,-3783.0,2695.0,9.0,-5.0,-3.0,1.0
2022-05-23 14:49:38.693574-07:00,1228.4,781.1,1041.8,972.2,1003.9,848.6,1622.8,1249.7,3462.5,3464.9,1085.1,853.7,1500.4,3469.8,1269.4,1208.0,3478.3,3477.1,1560.9,2024.4,2544.4,3490.5,1742.6,3483.2,3471.0,3473.4,635.1,832.7,1810.0,985.0,922.0,895.7,-9.0,1.0,-12.0,7760.0,-7457.0,9699.0,-7651.0,1.0,13.0,-17.0,-4.0,-4.0,9.0,9043.0,-12849.0,-3783.0,2695.0,-18.0,2.0,3.0,1.0
2022-05-23 14:49:38.694668-07:00,1224.8,781.1,1041.8,972.2,1003.9,855.3,1623.7,1249.7,3473.4,3464.9,1085.1,853.7,1494.0,3467.4,1267.6,1208.0,3478.3,3478.3,1549.7,2023.4,2544.4,3490.5,1742.6,3485.6,3471.0,3472.2,624.6,830.2,1810.0,985.0,922.0,891.5,-6.0,-4.0,-11.0,7756.0,-7452.0,9700.0,-7657.0,31.0,25.0,-8.0,0.0,-4.0,7.0,9041.0,-12850.0,-3784.0,2694.0,16.0,8.0,9.0,1.0
2022-05-23 14:49:38.696218-07:00,1224.8,781.1,1032.3,972.2,1003.9,855.3,1623.7,1256.0,3473.4,3468.6,1091.2,856.2,1494.0,3467.4,1267.6,1198.2,3472.2,3478.3,1549.7,2023.4,2551.9,3489.2,1749.3,3485.6,3474.6,3472.2,624.6,830.2,1822.6,986.7,927.1,891.5,-4.0,-2.0,-20.0,7753.0,-7445.0,9702.0,-7666.0,9.0,16.0,-3.0,1.0,-1.0,6.0,9045.0,-12847.0,-3780.0,2698.0,0.0,3.0,11.0,1.0
2022-05-23 14:49:38.753659-07:00,1220.4,781.1,1032.3,972.2,1007.3,844.4,1598.3,1256.0,3468.6,3468.6,1091.2,856.2,1478.3,3478.3,1268.5,1198.2,3472.2,3477.1,1559.0,2014.4,2551.9,3489.2,1749.3,3486.8,3474.6,3478.3,627.8,827.7,1822.6,986.7,927.1,894.9,-3.0,4.0,-11.0,7751.0,-7440.0,9710.0,-7664.0,5.0,12.0,17.0,-1.0,-2.0,10.0,9044.0,-12849.0,-3776.0,2701.0,2.0,1.0,12.0,1.0
2022-05-23 14:49:38.813760-07:00,1220.4,791.0,1032.3,969.6,1007.3,844.4,1603.0,1248.0,3468.6,3474.6,1091.2,857.9,1478.3,3478.3,1271.2,1202.7,3468.6,3472.2,1559.0,2014.4,2553.0,3495.3,1744.5,3486.8,3478.3,3468.6,627.8,827.7,1805.2,982.5,922.8,894.9,-1.0,0.0,-9.0,7748.0,-7438.0,9713.0,-7664.0,8.0,22.0,0.0,-2.0,-1.0,7.0,9043.0,-12850.0,-3773.0,2703.0,-7.0,10.0,9.0,1.0
2022-05-23 14:49:38.843657-07:00,1225.7,786.1,1032.3,969.6,1013.3,852.0,1603.0,1248.0,3457.6,3469.8,1091.2,857.9,1490.3,3462.5,1271.2,1202.7,3468.6,3472.2,1555.3,2020.4,2553.0,3495.3,1741.6,3492.9,3478.3,3468.6,633.5,828.5,1805.2,982.5,918.6,901.7,-10.0,6.0,-19.0,7742.0,-7434.0,9720.0,-7665.0,-15.0,12.0,7.0,-5.0,0.0,7.0,9042.0,-12851.0,-3772.0,2702.0,-18.0,6.0,8.0,1.0
2022-05-23 14:49:38.903892-07:00,1225.7,786.1,1040.1,966.2,1013.3,852.0,1610.5,1245.3,3457.6,3469.8,1085.1,855.3,1490.3,3462.5,1266.7,1210.6,3478.3,3477.1,1555.3,2020.4,2565.9,3491.7,1741.6,3492.9,3474.6,3477.1,633.5,828.5,1798.4,983.3,918.6,901.7,0.0,2.0,-18.0,7739.0,-7436.0,9724.0,-7660.0,11.0,3.0,-2.0,-4.0,-2.0,5.0,9037.0,-12854.0,-3773.0,2700.0,3.0,-3.0,2.0,1.0
2022-05-23 14:49:38.994227-07:00,1233.7,789.4,1040.1,966.2,1010.8,847.8,1610.5,1245.3,3460.1,3467.4,1085.1,855.3,1497.7,3464.9,1266.7,1210.6,3478.3,3477.1,1557.1,2029.4,2565.9,3491.7,1745.4,3479.5,3474.6,3477.1,634.3,827.7,1798.4,983.3,924.5,894.9,-11.0,-1.0,-14.0,7740.0,-7436.0,9725.0,-7659.0,5.0,-11.0,4.0,-5.0,-7.0,9.0,9037.0,-12854.0,-3773.0,2700.0,0.0,-12.0,5.0,1.0
2022-05-23 14:49:38.995682-07:00,1233.7,789.4,1061.7,977.3,1010.8,847.8,1627.5,1241.7,3460.1,3467.4,1086.0,858.7,1497.7,3464.9,1271.2,1207.1,3457.6,3478.3,1557.1,2029.4,2559.4,3497.8,1745.4,3479.5,3462.5,3472.2,634.3,827.7,1807.1,980.7,924.5,894.9,-1.0,5.0,-8.0,7741.0,-7437.0,9725.0,-7657.0,10.0,-4.0,3.0,0.0,0.0,12.0,9037.0,-12854.0,-3774.0,2701.0,6.0,-2.0,-2.0,1.0
2022-05-23 14:49:39.053739-07:00,1228.4,781.1,1038.3,977.3,1009.9,847.8,1627.5,1241.7,3473.4,3469.8,1086.8,858.7,1488.4,3475.9,1271.2,1207.1,3457.6,3478.3,1546.9,2030.4,2559.4,3486.8,1733.0,3492.9,3462.5,3472.2,631.9,833.6,1807.1,984.2,925.4,916.9,-6.0,0.0,-10.0,7739.0,-7436.0,9725.0,-7658.0,-1.0,11.0,-10.0,-7.0,-3.0,10.0,9036.0,-12855.0,-3774.0,2701.0,-11.0,3.0,-7.0,1.0
2022-05-23 14:49:39.113645-07:00,1228.4,781.1,1038.3,974.8,1009.9,842.8,1623.7,1244.4,3473.4,3469.8,1086.8,859.5,1488.4,3466.1,1271.2,1210.6,3478.3,3471.0,1557.1,2030.4,2561.6,3486.8,1733.0,3492.9,3467.4,3472.2,626.2,833.6,1798.4,984.2,925.4,916.9,-8.0,2.0,-14.0,7736.0,-7434.0,9730.0,-7659.0,7.0,9.0,0.0,-4.0,-4.0,10.0,9035.0,-12856.0,-3775.0,2700.0,-3.0,5.0,4.0,1.0
2022-05-23 14:49:39.143712-07:00,1239.1,788.6,1049.6,974.8,1009.0,842.8,1623.7,1244.4,3467.4,3461.3,1079.9,859.5,1491.2,3466.1,1271.2,1210.6,3478.3,3471.0,1557.1,2022.4,2561.6,3496.6,1740.6,3490.5,3467.4,3472.2,626.2,831.9,1798.4,988.5,920.3,878.9,-7.0,1.0,-24.0,7731.0,-7430.0,9738.0,-7658.0,3.0,10.0,11.0,-2.0,-6.0,12.0,9035.0,-12856.0,-3775.0,2700.0,9.0,-2.0,4.0,1.0
2022-05-23 14:49:39.234393-07:00,1239.1,788.6,1049.6,975.6,1009.0,836.1,1625.6,1259.6,3467.4,3461.3,1079.9,856.2,1491.2,3473.4,1275.6,1202.7,3472.2,3475.9,1549.7,2022.4,2557.3,3496.6,1740.6,3490.5,3478.3,3462.5,628.6,831.9,1809.0,988.5,920.3,878.9,-12.0,-8.0,-22.0,7740.0,-7418.0,9733.0,-7666.0,84.0,46.0,15.0,0.0,39.0,0.0,9051.0,-12844.0,-3775.0,2702.0,128.0,-8.0,-20.0,1.0
2022-05-23 14:49:39.263502-07:00,1224.8,795.2,1043.5,975.6,1003.0,836.1,1625.6,1259.6,3466.1,3464.9,1353.1,856.2,1499.5,3473.4,1275.6,1202.7,3472.2,3475.9,1549.7,1996.5,2557.3,3495.3,1806.1,3495.3,3478.3,3462.5,628.6,831.9,1809.0,991.0,929.6,890.7,-13.0,3.0,-37.0,7707.0,-7377.0,9809.0,-7642.0,-381.0,141.0,255.0,-7.0,14.0,-30.0,9101.0,-12804.0,-3786.0,2708.0,45.0,-2.0,-57.0,1.0
2022-05-23 14:49:39.293988-07:00,1224.8,795.2,1043.5,980.7,1003.0,897.4,1644.5,1241.7,3466.1,3464.9,1353.1,982.5,1499.5,3473.4,1637.9,1311.5,3474.6,3471.0,1577.7,1996.5,2563.7,3495.3,1806.1,3495.3,3474.6,3469.8,632.7,831.9,1819.7,991.0,929.6,890.7,-93.0,114.0,-85.0,7683.0,-7355.0,9903.0,-7566.0,-264.0,-241.0,18.0,-13.0,16.0,0.0,9165.0,-12754.0,-3795.0,2714.0,323.0,-6.0,-48.0,1.0
2022-05-23 14:49:39.353672-07:00,1254.2,811.9,1036.6,980.7,1003.0,897.4,1644.5,1241.7,3479.5,3462.5,1525.5,939.8,1532.9,3473.4,1637.9,1311.5,3474.6,3471.0,1577.7,2031.4,2561.6,3491.7,1959.8,3492.9,3474.6,3469.8,632.7,882.3,1808.1,1029.7,960.2,894.1,81.0,-160.0,118.0,7870.0,-7302.0,9649.0,-7751.0,1752.0,-11.0,-267.0,-22.0,-7.0,19.0,9285.0,-12659.0,-3790.0,2761.0,793.0,-54.0,4.0,1.0
2022-05-23 14:49:39.473623-07:00,1254.2,811.9,1036.6,980.7,1003.9,1017.6,1710.0,1252.4,3479.5,3462.5,1525.5,939.8,1543.1,3469.8,1932.1,1428.6,3472.2,3475.9,1616.2,2013.4,2561.6,3491.7,1959.8,3492.9,3477.1,3483.2,640.0,950.9,1808.1,1029.7,960.2,894.1,-44.0,178.0,-178.0,7912.0,-7034.0,9406.0,-8238.0,477.0,739.0,-398.0,-3.0,38.0,119.0,9485.0,-12507.0,-3743.0,2834.0,244.0,-4.0,0.0,1.0
2022-05-23 14:49:39.476376-07:00,1275.6,825.2,1034.9,980.7,1003.9,1017.6,1710.0,1252.4,3475.9,3469.8,1487.5,932.2,1543.1,3469.8,1932.1,1428.6,3472.2,3475.9,1616.2,2013.4,2570.2,3494.1,1937.1,3480.7,3477.1,3483.2,640.0,950.9,1807.1,1014.2,973.9,899.1,-16.0,27.0,-33.0,7685.0,-7165.0,9506.0,-8226.0,-709.0,9.0,-301.0,9.0,8.0,-4.0,9354.0,-12610.0,-3764.0,2784.0,-580.0,58.0,-7.0,1.0
2022-05-23 14:49:39.503669-07:00,1275.6,825.2,1034.9,980.7,1004.8,1006.5,1727.2,1290.0,3475.9,3469.8,1487.5,932.2,1578.6,3478.3,1850.8,1417.6,3477.1,3475.9,1637.9,2026.4,2570.2,3494.1,1937.1,3480.7,3478.3,3484.4,646.5,939.0,1807.1,1014.2,973.9,899.1,1.0,-104.0,-56.0,7575.0,-7302.0,9542.0,-8167.0,165.0,-9.0,-96.0,-12.0,0.0,-6.0,9255.0,-12690.0,-3781.0,2729.0,12.0,30.0,-22.0,1.0
2022-05-23 14:49:39.534098-07:00,1264.9,918.6,1026.3,967.9,1004.8,1006.5,1727.2,1290.0,3474.6,3471.0,1463.5,939.8,1578.6,3478.3,1850.8,1417.6,3477.1,3475.9,1637.9,2026.4,2554.0,3494.1,1905.6,3485.6,3478.3,3484.4,646.5,939.0,1810.0,984.2,945.8,901.7,13.0,27.0,-75.0,7636.0,-7299.0,9503.0,-8157.0,-91.0,-216.0,46.0,-7.0,18.0,-15.0,9253.0,-12686.0,-3798.0,2730.0,-106.0,-51.0,-39.0,1.0
2022-05-23 14:49:39.623558-07:00,1245.3,918.6,1026.3,967.9,1021.9,1009.0,1844.0,1314.2,3478.3,3471.0,1463.5,939.8,1579.6,3457.6,1827.5,1398.5,3473.4,3475.9,1625.6,2043.4,2554.0,3494.1,1905.6,3490.5,3477.1,3475.9,640.0,934.7,1810.0,984.2,945.8,894.9,42.0,-48.0,-10.0,7692.0,-7391.0,9437.0,-8099.0,59.0,-390.0,-80.0,-12.0,23.0,-28.0,9236.0,-12687.0,-3835.0,2731.0,54.0,-80.0,-58.0,1.0
2022-05-23 14:49:39.656206-07:00,1245.3,904.2,1028.8,965.4,1021.9,1009.0,1844.0,1344.9,3478.3,3474.6,1462.6,929.6,1579.6,3457.6,1827.5,1393.9,3475.9,3475.9,1625.6,2043.4,2566.9,3500.2,1886.0,3490.5,3483.2,3475.9,640.0,934.7,1811.9,993.6,936.4,894.9,-94.0,-38.0,-17.0,7733.0,-7389.0,9439.0,-8059.0,-126.0,-16.0,214.0,10.0,-34.0,87.0,9247.0,-12666.0,-3861.0,2757.0,44.0,-63.0,9.0,1.0
2022-05-23 14:49:39.713595-07:00,1244.4,904.2,1028.8,965.4,1012.5,1012.5,1935.1,1344.9,3469.8,3474.6,1462.6,929.6,1570.2,3457.6,1811.0,1393.9,3475.9,3467.4,1641.6,2039.4,2566.9,3500.2,1886.0,3489.2,3483.2,3477.1,653.8,927.9,1811.9,993.6,936.4,900.8,72.0,16.0,30.0,7757.0,-7433.0,9499.0,-7925.0,-236.0,-118.0,51.0,9.0,-11.0,6.0,9219.0,-12687.0,-3854.0,2765.0,-97.0,7.0,45.0,1.0
2022-05-23 14:49:39.804504-07:00,1244.4,945.8,1029.7,980.7,1012.5,1012.5,1935.1,1525.5,3469.8,3475.9,1459.8,918.6,1570.2,3457.6,1811.0,1384.8,3466.1,3467.4,1641.6,2039.4,2568.0,3494.1,1875.2,3489.2,3467.4,3477.1,653.8,927.9,1798.4,985.0,933.9,900.8,-101.0,42.0,-103.0,7708.0,-7461.0,9527.0,-7912.0,-500.0,13.0,41.0,-24.0,14.0,37.0,9181.0,-12713.0,-3860.0,2763.0,-309.0,-24.0,23.0,1.0
2022-05-23 14:49:39.805814-07:00,1250.6,945.8,1029.7,980.7,1025.4,1017.6,2119.9,1525.5,3473.4,3475.9,1459.8,918.6,3489.2,3473.4,1809.0,1384.8,3466.1,3477.1,1645.4,2030.4,2568.0,3494.1,1875.2,3489.2,3467.4,3481.9,655.4,911.0,1798.4,985.0,933.9,901.7,41.0,-27.0,25.0,7668.0,-7566.0,9674.0,-7669.0,-380.0,-165.0,249.0,-6.0,-28.0,3.0,9070.0,-12793.0,-3865.0,2752.0,-60.0,-9.0,67.0,1.0
2022-05-23 14:49:39.833616-07:00,1250.6,986.7,1022.8,967.1,1025.4,1017.6,2119.9,1625.6,3473.4,3468.6,1453.4,924.5,3489.2,3473.4,1809.0,1385.7,3473.4,3477.1,1645.4,2030.4,2591.8,3500.2,1866.4,3489.2,3485.6,3481.9,655.4,911.0,1802.3,984.2,927.9,901.7,-14.0,70.0,-70.0,7715.0,-7531.0,9651.0,-7684.0,214.0,-20.0,-87.0,-11.0,20.0,2.0,9129.0,-12751.0,-3845.0,2779.0,167.0,-23.0,-3.0,1.0
2022-05-23 14:49:39.893625-07:00,1236.4,986.7,1022.8,967.1,1006.5,1043.5,2115.9,1625.6,3466.1,3463.7,1453.4,924.5,1561.8,3473.4,1789.7,1385.7,3473.4,3467.4,1643.5,2036.4,2591.8,3500.2,1856.7,3488.0,3485.6,3478.3,664.4,917.7,1802.3,984.2,922.0,905.9,10.0,-42.0,-15.0,7713.0,-7570.0,9621.0,-7686.0,-23.0,-67.0,-27.0,1.0,-21.0,10.0,9133.0,-12742.0,-3855.0,2795.0,38.0,-50.0,-2.0,1.0
2022-05-23 14:49:39.953640-07:00,1236.4,986.7,1018.5,967.1,1006.5,1043.5,2118.9,1631.3,3466.1,3463.7,1453.4,930.5,1561.8,3473.4,1781.0,1374.8,3474.6,3478.3,1643.5,2036.4,2617.8,3492.9,1856.7,3488.0,3467.4,3477.1,664.4,917.7,1808.1,987.6,922.0,905.9,6.0,34.0,6.0,7740.0,-7552.0,9612.0,-7687.0,72.0,-20.0,42.0,-13.0,29.0,14.0,9177.0,-12706.0,-3845.0,2829.0,121.0,-24.0,26.0,1.0
2022-05-23 14:49:39.983659-07:00,1233.7,968.8,1018.5,967.1,1019.4,1032.3,2118.9,1631.3,3469.8,3475.9,1453.4,930.5,1570.2,3473.4,1781.0,1374.8,3474.6,3478.3,1663.4,2054.4,2617.8,3492.9,1852.8,3481.9,3467.4,3477.1,662.7,917.7,1808.1,987.6,930.5,900.0,-34.0,26.0,-27.0,7735.0,-7555.0,9614.0,-7687.0,-84.0,14.0,-47.0,-9.0,1.0,50.0,9173.0,-12706.0,-3844.0,2840.0,-81.0,-12.0,19.0,1.0
2022-05-23 14:49:40.043635-07:00,1233.7,968.8,1018.5,973.9,1019.4,1032.3,2118.9,1630.3,3469.8,3475.9,1447.0,920.3,1570.2,3473.4,1775.2,1361.2,3472.2,3466.1,1663.4,2054.4,2621.0,3488.0,1852.8,3481.9,3467.4,3477.1,662.7,917.7,1810.0,968.8,930.5,900.0,9.0,-16.0,-30.0,7738.0,-7571.0,9602.0,-7684.0,30.0,-6.0,7.0,0.0,-10.0,-5.0,9169.0,-12711.0,-3835.0,2843.0,34.0,1.0,24.0,1.0
2022-05-23 14:49:40.103764-07:00,1241.7,954.3,1018.5,973.9,1009.9,1037.5,2118.9,1630.3,3466.1,3463.7,1447.0,920.3,1566.5,3467.4,1775.2,1361.2,3472.2,3466.1,1640.7,2069.5,2621.0,3488.0,1838.2,3485.6,3467.4,3477.1,666.0,917.7,1810.0,968.8,929.6,922.0,-9.0,25.0,-23.0,7752.0,-7556.0,9601.0,-7686.0,57.0,-20.0,-9.0,-4.0,6.0,5.0,9177.0,-12707.0,-3825.0,2852.0,-9.0,-6.0,19.0,1.0
2022-05-23 14:49:40.133630-07:00,1241.7,954.3,1025.4,961.1,1009.9,1025.4,2091.6,1601.1,3466.1,3463.7,1437.8,925.4,1566.5,3462.5,1774.3,1363.0,3468.6,3480.7,1635.0,2069.5,2623.2,3488.0,1838.2,3485.6,3468.6,3464.9,658.7,917.7,1811.0,973.1,929.6,922.0,-12.0,-6.0,-17.0,7735.0,-7573.0,9594.0,-7696.0,-41.0,37.0,-60.0,-5.0,-2.0,18.0,9157.0,-12721.0,-3827.0,2849.0,-63.0,0.0,5.0,1.0
2022-05-23 14:49:40.194048-07:00,1249.7,945.8,1026.3,961.1,1006.5,1025.4,2091.6,1601.1,3464.9,3478.3,1431.4,925.4,1570.2,3462.5,1774.3,1363.0,3468.6,3480.7,1635.0,2074.5,2623.2,3500.2,1835.2,3486.8,3468.6,3464.9,658.7,914.4,1811.0,978.2,918.6,925.4,4.0,4.0,-23.0,7734.0,-7567.0,9599.0,-7696.0,55.0,-38.0,30.0,0.0,0.0,2.0,9162.0,-12719.0,-3818.0,2856.0,39.0,0.0,27.0,1.0
2022-05-23 14:49:40.343606-07:00,1249.7,945.8,1026.3,962.0,1006.5,1025.4,2087.6,1618.1,3464.9,3478.3,1431.4,922.8,1570.2,3473.4,1776.2,1377.5,3467.4,3471.0,1636.0,2074.5,2615.6,3500.2,1835.2,3486.8,3464.9,3473.4,653.0,914.4,1814.9,978.2,918.6,925.4,-7.0,4.0,-6.0,7739.0,-7549.0,9590.0,-7719.0,70.0,94.0,-12.0,-3.0,2.0,11.0,9166.0,-12715.0,-3816.0,2861.0,19.0,-6.0,-7.0,1.0
2022-05-23 14:49:40.403772-07:00,1227.5,945.8,1021.1,962.0,1012.5,1025.4,2087.6,1618.1,3473.4,3463.7,1434.1,922.8,1589.9,3473.4,1776.2,1377.5,3467.4,3471.0,1636.0,2066.5,2615.6,3486.8,1813.9,3486.8,3464.9,3473.4,653.0,902.5,1814.9,977.3,916.0,924.5,-34.0,-2.0,-12.0,7717.0,-7516.0,9622.0,-7734.0,-27.0,102.0,25.0,-9.0,-18.0,35.0,9167.0,-12715.0,-3814.0,2863.0,-62.0,16.0,21.0,1.0
2022-05-23 14:49:40.463791-07:00,1227.5,945.8,1021.1,967.9,1012.5,1028.8,2074.5,1599.3,3473.4,3463.7,1434.1,918.6,1589.9,3469.8,1760.8,1374.8,3472.2,3472.2,1632.2,2066.5,2628.6,3486.8,1813.9,3486.8,3477.1,3473.4,655.4,902.5,1811.0,977.3,916.0,924.5,0.0,0.0,-41.0,7716.0,-7498.0,9625.0,-7749.0,119.0,20.0,-23.0,-7.0,-3.0,-3.0,9170.0,-12717.0,-3798.0,2865.0,55.0,16.0,17.0,1.0
2022-05-23 14:49:40.466070-07:00,1240.8,944.9,1025.4,967.9,1014.2,1028.8,2074.5,1599.3,3467.4,3472.2,1427.7,918.6,1568.3,3469.8,1760.8,1374.8,3472.2,3472.2,1632.2,2071.5,2628.6,3486.8,1822.6,3489.2,3477.1,3473.4,655.4,907.6,1811.0,966.2,918.6,914.4,-15.0,10.0,-29.0,7705.0,-7483.0,9630.0,-7767.0,10.0,75.0,-12.0,-3.0,-2.0,4.0,9178.0,-12711.0,-3795.0,2870.0,-41.0,-17.0,5.0,1.0
2022-05-23 14:49:40.493556-07:00,1240.8,944.9,1025.4,970.5,1007.3,1016.8,2043.4,1593.6,3467.4,3472.2,1427.7,922.8,1562.7,3471.0,1772.3,1373.9,3475.9,3474.6,1630.3,2071.5,2616.7,3486.8,1822.6,3489.2,3478.3,3478.3,653.0,892.4,1801.3,966.2,918.6,914.4,-15.0,4.0,-16.0,7691.0,-7490.0,9640.0,-7762.0,-5.0,-19.0,-36.0,-3.0,-2.0,11.0,9163.0,-12720.0,-3800.0,2871.0,-36.0,-2.0,1.0,1.0
2022-05-23 14:49:40.494749-07:00,1231.0,933.9,1025.4,962.0,1007.3,1016.8,2043.4,1593.6,3468.6,3467.4,1416.7,927.9,1562.7,3471.0,1772.3,1373.9,3475.9,3474.6,1630.3,2071.5,2621.0,3486.8,1818.7,3485.6,3478.3,3478.3,653.0,892.4,1803.2,965.4,918.6,922.8,-5.0,-3.0,-18.0,7697.0,-7490.0,9626.0,-7775.0,91.0,-10.0,-19.0,-2.0,-4.0,9.0,9160.0,-12722.0,-3801.0,2870.0,38.0,-7.0,-7.0,1.0
2022-05-23 14:49:40.584619-07:00,1231.0,933.9,1025.4,962.0,1014.2,1025.4,2043.4,1589.9,3468.6,3467.4,1416.7,927.9,1565.5,3458.9,1763.7,1367.6,3474.6,3466.1,1617.1,2073.5,2621.0,3486.8,1818.7,3485.6,3478.3,3467.4,650.5,885.6,1803.2,965.4,918.6,922.8,-19.0,5.0,-38.0,7708.0,-7467.0,9612.0,-7802.0,61.0,-9.0,-11.0,1.0,-7.0,13.0,9182.0,-12706.0,-3795.0,2877.0,33.0,-3.0,-1.0,1.0
2022-05-23 14:49:40.585572-07:00,1237.3,952.6,1015.1,956.0,1014.2,1025.4,2043.4,1589.9,3464.9,3467.4,1418.6,927.9,1565.5,3458.9,1763.7,1367.6,3474.6,3466.1,1617.1,2073.5,2621.0,3490.5,1813.9,3480.7,3478.3,3467.4,650.5,885.6,1803.2,972.2,914.4,927.1,-2.0,-7.0,-14.0,7710.0,-7447.0,9611.0,-7821.0,73.0,78.0,27.0,0.0,-14.0,13.0,9190.0,-12698.0,-3798.0,2883.0,23.0,-22.0,-3.0,1.0
2022-05-23 14:49:40.643609-07:00,1237.3,952.6,1015.1,956.0,1008.2,1017.6,2044.4,1591.7,3464.9,3467.4,1418.6,927.9,1565.5,3457.6,1756.0,1373.0,3472.2,3474.6,1626.5,2063.5,2621.0,3490.5,1813.9,3480.7,3472.2,3483.2,650.5,871.3,1803.2,972.2,914.4,927.1,-28.0,13.0,-40.0,7731.0,-7430.0,9590.0,-7841.0,82.0,-110.0,-29.0,-2.0,10.0,17.0,9206.0,-12685.0,-3797.0,2892.0,56.0,-2.0,2.0,1.0
2022-05-23 14:49:40.703773-07:00,1234.6,950.9,1012.5,963.7,1008.2,1017.6,2044.4,1585.2,3471.0,3462.5,1423.1,926.2,1565.5,3457.6,1756.0,1365.7,3473.4,3474.6,1626.5,2063.5,2615.6,3488.0,1807.1,3485.6,3478.3,3483.2,650.5,871.3,1812.9,981.6,922.0,934.7,-4.0,-3.0,-24.0,7767.0,-7445.0,9543.0,-7850.0,111.0,-61.0,-28.0,-12.0,-2.0,7.0,9224.0,-12669.0,-3799.0,2899.0,73.0,-35.0,-22.0,1.0
2022-05-23 14:49:40.734091-07:00,1239.1,950.9,1012.5,963.7,1003.9,1003.9,2038.4,1585.2,3473.4,3462.5,1423.1,926.2,1562.7,3472.2,1757.0,1365.7,3473.4,3475.9,1631.3,2071.5,2615.6,3488.0,1807.1,3479.5,3478.3,3488.0,653.0,877.2,1812.9,981.6,922.0,967.1,-21.0,4.0,-12.0,7796.0,-7432.0,9518.0,-7863.0,90.0,-55.0,6.0,-1.0,-4.0,23.0,9256.0,-12641.0,-3804.0,2916.0,76.0,-25.0,-9.0,1.0
2022-05-23 14:49:40.793922-07:00,1239.1,926.2,1008.2,965.4,1003.9,1003.9,2038.4,1576.8,3473.4,3473.4,1415.8,923.7,1562.7,3472.2,1757.0,1363.0,3468.6,3475.9,1631.3,2071.5,2627.5,3485.6,1804.2,3479.5,3467.4,3488.0,653.0,877.2,1805.2,973.1,916.9,967.1,-1.0,-22.0,-4.0,7807.0,-7451.0,9497.0,-7860.0,-11.0,-4.0,-54.0,-2.0,-10.0,9.0,9256.0,-12639.0,-3810.0,2918.0,-43.0,-6.0,-10.0,1.0
2022-05-23 14:49:40.853729-07:00,1239.9,926.2,1008.2,965.4,1011.6,1009.9,2042.4,1576.8,3462.5,3473.4,1415.8,923.7,1566.5,3478.3,1753.1,1363.0,3468.6,3478.3,1622.8,2070.5,2627.5,3485.6,1804.2,3490.5,3467.4,3480.7,647.3,882.3,1805.2,973.1,916.9,962.8,0.0,8.0,-13.0,7803.0,-7447.0,9491.0,-7875.0,30.0,47.0,1.0,0.0,4.0,14.0,9259.0,-12636.0,-3810.0,2918.0,4.0,9.0,0.0,1.0
2022-05-23 14:49:40.883583-07:00,1239.9,939.8,1006.5,967.9,1011.6,1009.9,2042.4,1574.9,3462.5,3467.4,1411.3,929.6,1566.5,3478.3,1753.1,1358.5,3471.0,3478.3,1622.8,2070.5,2619.9,3491.7,1803.2,3490.5,3473.4,3480.7,647.3,882.3,1793.6,967.1,916.0,962.8,2.0,-5.0,-14.0,7786.0,-7448.0,9498.0,-7883.0,-38.0,54.0,-41.0,-10.0,-3.0,-7.0,9251.0,-12644.0,-3810.0,2910.0,-55.0,17.0,-11.0,1.0
2022-05-23 14:49:40.944157-07:00,1240.8,939.8,1006.5,967.9,1012.5,1013.3,2036.4,1574.9,3473.4,3467.4,1411.3,929.6,1571.1,3467.4,1757.0,1358.5,3471.0,3478.3,1628.4,2066.5,2619.9,3491.7,1803.2,3485.6,3473.4,3468.6,648.9,876.4,1793.6,967.1,916.0,955.1,-9.0,-18.0,-22.0,7763.0,-7441.0,9513.0,-7893.0,67.0,28.0,-3.0,-9.0,-7.0,4.0,9247.0,-12648.0,-3812.0,2906.0,4.0,6.0,4.0,1.0
2022-05-23 14:49:41.003697-07:00,1240.8,979.9,1020.2,962.0,1012.5,1013.3,2032.4,1572.1,3473.4,3467.4,1414.9,933.9,1571.1,3467.4,1751.2,1360.3,3477.1,3473.4,1628.4,2066.5,2623.2,3488.0,1798.4,3485.6,3488.0,3478.3,648.9,876.4,1804.2,972.2,920.3,955.1,-16.0,6.0,-32.0,7767.0,-7422.0,9516.0,-7905.0,-11.0,4.0,4.0,1.0,-1.0,9.0,9258.0,-12639.0,-3809.0,2910.0,-1.0,0.0,8.0,1.0
2022-05-23 14:49:41.033905-07:00,1246.2,984.2,1020.2,962.0,1006.5,997.9,2032.4,1572.1,3474.6,3467.4,1414.9,933.9,1576.8,3467.4,1751.2,1360.3,3477.1,3473.4,1626.5,2072.5,2623.2,3488.0,1805.2,3488.0,3488.0,3478.3,642.4,871.3,1804.2,972.2,919.4,966.2,3.0,-7.0,-23.0,7758.0,-7438.0,9522.0,-7891.0,-41.0,-25.0,-33.0,-4.0,-1.0,3.0,9252.0,-12644.0,-3810.0,2908.0,-29.0,3.0,-3.0,1.0
2022-05-23 14:49:41.093657-07:00,1246.2,984.2,1012.5,960.2,1006.5,997.9,2014.4,1574.9,3474.6,3467.4,1418.6,932.2,1576.8,3467.4,1738.7,1349.4,3457.6,3475.9,1626.5,2072.5,2622.1,3501.4,1805.2,3488.0,3469.8,3474.6,642.4,871.3,1808.1,974.8,919.4,966.2,1.0,8.0,-19.0,7760.0,-7452.0,9513.0,-7886.0,11.0,-31.0,-23.0,0.0,9.0,1.0,9257.0,-12640.0,-3811.0,2910.0,31.0,-11.0,-11.0,1.0
2022-05-23 14:49:41.153692-07:00,1229.3,973.1,1012.5,960.2,1010.8,997.9,2014.4,1574.9,3468.6,3472.2,1418.6,932.2,1618.1,3468.6,1738.7,1349.4,3457.6,3475.9,1627.5,2074.5,2622.1,3501.4,1807.1,3484.4,3469.8,3474.6,645.7,870.5,1808.1,974.8,913.5,957.7,-12.0,-14.0,-2.0,7753.0,-7463.0,9515.0,-7881.0,1.0,24.0,4.0,-4.0,-9.0,20.0,9251.0,-12641.0,-3819.0,2911.0,-16.0,-11.0,-6.0,1.0
2022-05-23 14:49:41.184648-07:00,1229.3,973.1,1017.6,966.2,1010.8,997.9,2019.4,1562.7,3468.6,3472.2,1413.1,928.8,1618.1,3468.6,1733.0,1351.2,3467.4,3467.4,1627.5,2074.5,2624.3,3494.1,1807.1,3484.4,3468.6,3468.6,645.7,870.5,1805.2,975.6,913.5,957.7,-21.0,4.0,-18.0,7751.0,-7454.0,9518.0,-7887.0,-2.0,12.0,0.0,-5.0,0.0,16.0,9254.0,-12639.0,-3816.0,2913.0,-2.0,12.0,13.0,1.0
2022-05-23 14:49:41.273607-07:00,1231.0,980.7,1023.7,966.2,1009.9,994.5,2019.4,1562.7,3461.3,3468.6,1411.3,928.8,1567.4,3463.7,1733.0,1351.2,3467.4,3467.4,1620.9,2069.5,2624.3,3497.8,1803.2,3484.4,3468.6,3468.6,639.2,868.8,1805.2,973.9,913.5,938.1,0.0,4.0,-22.0,7745.0,-7464.0,9528.0,-7870.0,-41.0,-11.0,-11.0,-2.0,-2.0,1.0,9245.0,-12647.0,-3811.0,2911.0,-41.0,5.0,8.0,1.0
2022-05-23 14:49:41.303630-07:00,1231.0,980.7,1023.7,968.8,1009.9,995.3,2015.4,1553.4,3461.3,3468.6,1411.3,936.4,1567.4,3467.4,1735.8,1351.2,3467.4,3472.2,1627.5,2069.5,2624.3,3497.8,1803.2,3484.4,3467.4,3472.2,644.9,868.8,1806.1,973.9,913.5,938.1,0.0,23.0,-18.0,7738.0,-7480.0,9527.0,-7865.0,-29.0,-26.0,-71.0,-8.0,4.0,-4.0,9241.0,-12651.0,-3813.0,2909.0,-28.0,2.0,-16.0,1.0
2022-05-23 14:49:41.333592-07:00,1235.5,955.1,1021.9,968.8,1009.9,995.3,2015.4,1553.4,3462.5,3466.1,1406.7,936.4,1561.8,3467.4,1735.8,1351.2,3467.4,3472.2,1627.5,2072.5,2624.3,3496.6,1807.1,3477.1,3467.4,3472.2,644.9,867.1,1806.1,977.3,926.2,954.3,-18.0,-19.0,-8.0,7711.0,-7504.0,9524.0,-7870.0,15.0,38.0,-7.0,-5.0,-6.0,22.0,9233.0,-12656.0,-3819.0,2904.0,18.0,-2.0,-2.0,1.0
2022-05-23 14:49:41.393608-07:00,1235.5,955.1,1021.9,967.9,1009.9,986.7,2023.4,1559.9,3462.5,3466.1,1406.7,928.8,1561.8,3468.6,1734.9,1347.6,3478.3,3468.6,1619.0,2072.5,2623.2,3496.6,1807.1,3477.1,3468.6,3473.4,647.3,867.1,1811.9,977.3,926.2,954.3,2.0,-4.0,-10.0,7713.0,-7496.0,9531.0,-7869.0,36.0,-14.0,3.0,-3.0,-1.0,1.0,9239.0,-12652.0,-3813.0,2909.0,23.0,4.0,15.0,1.0
2022-05-23 14:49:41.453760-07:00,1236.4,973.9,1006.5,967.9,1006.5,986.7,2023.4,1559.9,3472.2,3471.0,1410.3,928.8,1559.9,3468.6,1734.9,1347.6,3478.3,3468.6,1619.0,2059.4,2623.2,3492.9,1792.6,3486.8,3468.6,3473.4,647.3,867.1,1811.9,973.1,912.7,946.6,-5.0,6.0,-17.0,7714.0,-7489.0,9530.0,-7876.0,-3.0,15.0,6.0,-2.0,5.0,6.0,9244.0,-12648.0,-3811.0,2911.0,-1.0,-1.0,5.0,1.0
2022-05-23 14:49:41.483577-07:00,1236.4,973.9,1006.5,956.0,1001.3,986.7,2007.4,1567.4,3472.2,3471.0,1410.3,926.2,1559.0,3474.6,1733.9,1361.2,3475.9,3473.4,1619.9,2062.5,2598.3,3492.9,1792.6,3486.8,3475.9,3472.2,644.9,854.5,1798.4,973.1,912.7,946.6,-4.0,-9.0,-13.0,7708.0,-7496.0,9540.0,-7863.0,-30.0,-26.0,-2.0,-6.0,-5.0,6.0,9235.0,-12655.0,-3813.0,2909.0,-25.0,-3.0,2.0,1.0
2022-05-23 14:49:41.543703-07:00,1231.9,956.0,1001.3,957.7,1001.3,986.7,2007.4,1567.4,3469.8,3472.2,1404.0,927.9,1559.0,3474.6,1733.9,1361.2,3475.9,3473.4,1619.9,2062.5,2617.8,3496.6,1798.4,3492.9,3475.9,3472.2,644.9,854.5,1806.1,970.5,916.9,943.2,-3.0,2.0,-11.0,7709.0,-7495.0,9539.0,-7863.0,20.0,-4.0,9.0,-3.0,0.0,10.0,9240.0,-12652.0,-3812.0,2910.0,20.0,-6.0,4.0,1.0
2022-05-23 14:49:41.633582-07:00,1231.9,956.0,1001.3,957.7,1008.2,979.0,1998.5,1547.8,3469.8,3472.2,1404.0,927.9,1560.9,3463.7,1731.1,1348.5,3472.2,3473.4,1614.3,2078.5,2617.8,3496.6,1798.4,3492.9,3478.3,3472.2,635.1,863.7,1806.1,970.5,916.9,943.2,-9.0,-7.0,-10.0,7707.0,-7490.0,9542.0,-7866.0,-19.0,22.0,-8.0,0.0,-2.0,10.0,9238.0,-12653.0,-3812.0,2909.0,-29.0,0.0,-3.0,1.0
2022-05-23 14:49:41.635679-07:00,1238.2,939.8,1023.7,972.2,1008.2,979.0,1998.5,1547.8,3477.1,3469.8,1406.7,927.1,1560.9,3463.7,1731.1,1348.5,3472.2,3473.4,1614.3,2078.5,2621.0,3492.9,1786.8,3494.1,3478.3,3472.2,635.1,863.7,1802.3,973.1,916.0,945.8,-11.0,5.0,-12.0,7703.0,-7487.0,9552.0,-7862.0,16.0,9.0,10.0,-9.0,0.0,10.0,9235.0,-12655.0,-3813.0,2908.0,5.0,8.0,2.0,1.0
2022-05-23 14:49:41.753947-07:00,1238.2,939.8,1023.7,972.2,1015.1,976.5,2015.4,1545.0,3477.1,3469.8,1406.7,927.1,1554.3,3466.1,1727.2,1345.8,3467.4,3475.9,1619.0,2067.5,2621.0,3492.9,1786.8,3494.1,3468.6,3478.3,642.4,857.9,1802.3,973.1,916.0,945.8,-1.0,-3.0,-15.0,7702.0,-7485.0,9555.0,-7861.0,14.0,-3.0,-5.0,-3.0,2.0,3.0,9235.0,-12655.0,-3813.0,2908.0,7.0,-4.0,1.0,1.0
2022-05-23 14:49:41.755177-07:00,1213.3,944.9,1020.2,977.3,1015.1,976.5,2015.4,1545.0,3462.5,3473.4,1404.0,930.5,1554.3,3466.1,1727.2,1345.8,3467.4,3475.9,1619.0,2067.5,2603.7,3497.8,1789.7,3491.7,3468.6,3478.3,642.4,857.9,1786.8,967.1,915.2,949.2,-9.0,-9.0,-9.0,7695.0,-7486.0,9564.0,-7856.0,-24.0,15.0,11.0,3.0,-8.0,18.0,9230.0,-12659.0,-3814.0,2907.0,-7.0,-5.0,6.0,1.0
2022-05-23 14:49:41.783576-07:00,1230.2,944.9,1020.2,977.3,1009.9,994.5,2010.4,1542.2,3467.4,3473.4,1404.0,930.5,1558.1,3467.4,1726.3,1354.0,3478.3,3472.2,1616.2,2059.4,2603.7,3497.8,1789.7,3490.5,3471.0,3467.4,643.2,851.1,1786.8,967.1,915.2,944.9,-1.0,2.0,-4.0,7695.0,-7484.0,9565.0,-7856.0,-11.0,19.0,9.0,-2.0,4.0,10.0,9228.0,-12660.0,-3815.0,2906.0,-16.0,3.0,5.0,1.0
2022-05-23 14:49:41.843579-07:00,1230.2,933.9,1028.8,967.1,1009.9,994.5,2010.4,1593.6,3467.4,3468.6,1406.7,933.0,1558.1,3467.4,1726.3,1348.5,3467.4,3472.2,1616.2,2059.4,2612.3,3494.1,1809.0,3490.5,3478.3,3467.4,643.2,851.1,1799.4,975.6,917.7,944.9,-12.0,8.0,-10.0,7685.0,-7478.0,9575.0,-7860.0,-10.0,46.0,-1.0,-10.0,1.0,14.0,9224.0,-12664.0,-3815.0,2903.0,-35.0,11.0,4.0,1.0
2022-05-23 14:49:41.903510-07:00,1228.4,933.9,1028.8,967.1,1000.5,978.2,2006.4,1593.6,3462.5,3468.6,1406.7,933.0,1552.5,3464.9,1723.4,1348.5,3467.4,3473.4,1616.2,2060.5,2612.3,3494.1,1809.0,3486.8,3478.3,3471.0,647.3,849.5,1799.4,975.6,917.7,949.2,-8.0,-8.0,-20.0,7672.0,-7482.0,9589.0,-7851.0,-2.0,5.0,-10.0,-9.0,-1.0,6.0,9212.0,-12674.0,-3815.0,2897.0,-4.0,7.0,5.0,1.0
2022-05-23 14:49:41.934103-07:00,1228.4,939.8,1015.1,968.8,1000.5,978.2,2006.4,1542.2,3462.5,3463.7,1400.3,927.9,1552.5,3464.9,1723.4,1345.8,3467.4,3473.4,1616.2,2060.5,2623.2,3486.8,1790.7,3486.8,3471.0,3471.0,647.3,849.5,1809.0,969.6,920.3,949.2,-10.0,6.0,-19.0,7676.0,-7472.0,9587.0,-7860.0,28.0,18.0,3.0,-6.0,0.0,8.0,9221.0,-12667.0,-3813.0,2900.0,12.0,-3.0,0.0,1.0
2022-05-23 14:49:41.994560-07:00,1232.8,939.8,1015.1,968.8,1009.0,983.3,1997.5,1542.2,3466.1,3463.7,1400.3,927.9,1561.8,3462.5,1729.1,1345.8,3467.4,3471.0,1619.0,2090.6,2623.2,3486.8,1790.7,3481.9,3471.0,3469.8,641.6,853.7,1809.0,969.6,920.3,936.4,34.0,-15.0,10.0,7663.0,-7458.0,9600.0,-7871.0,-5.0,156.0,35.0,14.0,2.0,-5.0,9223.0,-12666.0,-3813.0,2900.0,29.0,20.0,-13.0,1.0
2022-05-23 14:49:42.053745-07:00,1232.8,950.0,1011.6,970.5,1009.0,983.3,2012.4,1529.2,3466.1,3464.9,1417.6,935.6,1561.8,3462.5,1741.6,1370.3,3473.4,3475.9,1619.0,2090.6,2605.8,3496.6,1793.6,3481.9,3473.4,3480.7,641.6,853.7,1809.0,977.3,917.7,936.4,4.0,127.0,-124.0,7563.0,-7299.0,9704.0,-7987.0,214.0,1242.0,125.0,29.0,-2.0,111.0,9246.0,-12656.0,-3804.0,2880.0,-142.0,168.0,-22.0,1.0
2022-05-23 14:49:42.083703-07:00,1234.6,982.5,1011.6,970.5,1002.2,1012.5,2012.4,1529.2,3478.3,3469.8,1417.6,935.6,1545.9,3477.1,1741.6,1370.3,3473.4,3475.9,1618.1,2048.4,2605.8,3496.6,2031.4,3489.2,3473.4,3480.7,646.5,959.4,1809.0,977.3,919.4,935.6,-83.0,136.0,-223.0,7350.0,-7283.0,9866.0,-8002.0,-1622.0,-440.0,-236.0,-58.0,89.0,-23.0,9086.0,-12800.0,-3805.0,2749.0,-1384.0,132.0,-70.0,1.0
2022-05-23 14:49:42.143543-07:00,1234.6,982.5,1017.6,967.1,1002.2,1012.5,2039.4,1568.3,3478.3,3469.8,1515.3,957.7,1545.9,3477.1,1718.6,1346.7,3467.4,3471.0,1618.1,2048.4,2598.3,3481.9,2031.4,3489.2,3467.4,3468.6,646.5,959.4,1796.5,977.3,919.4,935.6,-152.0,109.0,-134.0,7260.0,-7532.0,9912.0,-7793.0,688.0,356.0,-20.0,0.0,-32.0,85.0,8765.0,-13022.0,-3890.0,2628.0,-162.0,-11.0,-69.0,1.0
2022-05-23 14:49:42.220739-07:00,1363.9,1024.5,1017.6,967.1,1004.8,978.2,2039.4,1568.3,3467.4,3463.7,1515.3,957.7,1549.7,3478.3,1718.6,1346.7,3467.4,3471.0,1619.0,2059.4,2598.3,3481.9,2224.0,3479.5,3467.4,3468.6,676.6,1063.4,1796.5,977.3,914.4,922.8,25.0,-8.0,29.0,7250.0,-7614.0,9970.0,-7649.0,-1008.0,-249.0,73.0,0.0,-12.0,-34.0,8564.0,-13157.0,-3936.0,2545.0,-870.0,27.0,-18.0,1.0
2022-05-23 14:49:42.233461-07:00,1363.9,1024.5,1011.6,959.4,1004.8,978.2,2032.4,1546.9,3467.4,3463.7,1300.7,908.4,1549.7,3478.3,1514.3,1287.3,3473.4,3473.4,1619.0,2059.4,2588.5,3491.7,2224.0,3479.5,3472.2,3469.8,676.6,1063.4,1804.2,967.1,914.4,922.8,-19.0,-79.0,39.0,7176.0,-7741.0,10059.0,-7471.0,124.0,-53.0,56.0,-6.0,-25.0,-1.0,8431.0,-13246.0,-3959.0,2496.0,194.0,8.0,13.0,1.0
2022-05-23 14:49:42.294319-07:00,1355.8,996.2,1011.6,959.4,1003.9,957.7,2032.4,1546.9,3467.4,3471.0,1300.7,908.4,1542.2,3471.0,1514.3,1287.3,3473.4,3473.4,1612.4,2066.5,2588.5,3491.7,2174.8,3484.4,3472.2,3469.8,673.3,1015.1,1804.2,967.1,908.4,934.7,-52.0,21.0,-11.0,7222.0,-7667.0,10076.0,-7481.0,-159.0,68.0,253.0,-15.0,-2.0,51.0,8469.0,-13220.0,-3951.0,2514.0,-92.0,-1.0,24.0,1.0
2022-05-23 14:49:42.353729-07:00,1355.8,996.2,1017.6,967.9,1003.9,967.1,2020.4,1519.0,3467.4,3471.0,1256.9,900.0,1542.2,3478.3,1464.4,1256.9,3471.0,3468.6,1609.6,2066.5,2588.5,3492.9,2174.8,3484.4,3466.1,3474.6,670.1,1015.1,1808.1,967.9,908.4,934.7,14.0,53.0,-33.0,7218.0,-7658.0,10165.0,-7373.0,-271.0,-32.0,114.0,2.0,4.0,-1.0,8411.0,-13261.0,-3951.0,2496.0,-260.0,21.0,-6.0,1.0
2022-05-23 14:49:42.383502-07:00,1341.3,996.2,1018.5,967.9,1001.3,967.1,2020.4,1519.0,3472.2,3473.4,1234.6,900.0,1539.4,3478.3,1464.4,1256.9,3471.0,3468.6,1609.6,2062.5,2588.5,3488.0,2143.3,3486.8,3466.1,3474.6,670.1,988.5,1808.1,967.1,910.1,927.1,-26.0,-29.0,-20.0,7159.0,-7709.0,10224.0,-7296.0,-150.0,-16.0,-55.0,-7.0,-36.0,14.0,8326.0,-13317.0,-3968.0,2455.0,-129.0,34.0,-10.0,1.0
2022-05-23 14:49:42.443918-07:00,1341.3,996.2,1018.5,967.1,1001.3,948.3,2024.4,1503.2,3472.2,3473.4,1234.6,898.3,1539.4,3472.2,1440.5,1256.0,3467.4,3468.6,1604.9,2062.5,2582.0,3488.0,2143.3,3486.8,3473.4,3474.6,670.9,988.5,1811.9,967.1,910.1,927.1,1.0,-36.0,8.0,7146.0,-7738.0,10252.0,-7238.0,-168.0,31.0,145.0,1.0,-23.0,4.0,8280.0,-13348.0,-3975.0,2434.0,-79.0,-3.0,-4.0,1.0
2022-05-23 14:49:42.473541-07:00,1344.9,993.6,1030.6,967.1,1003.9,948.3,2024.4,1503.2,3475.9,3467.4,1219.5,898.3,1538.5,3472.2,1440.5,1256.0,3467.4,3468.6,1604.9,2072.5,2582.0,3491.7,2138.2,3486.8,3473.4,3474.6,670.9,982.5,1811.9,965.4,902.5,922.0,-10.0,1.0,-1.0,7144.0,-7697.0,10308.0,-7205.0,-16.0,69.0,142.0,-4.0,-15.0,15.0,8278.0,-13349.0,-3972.0,2436.0,17.0,0.0,17.0,1.0
2022-05-23 14:49:42.564106-07:00,1344.9,993.6,1030.6,970.5,1003.9,950.0,1994.5,1466.3,3475.9,3467.4,1219.5,894.1,1538.5,3469.8,1430.5,1257.8,3467.4,3477.1,1592.7,2072.5,2583.1,3491.7,2138.2,3486.8,3474.6,3475.9,665.2,982.5,1807.1,965.4,902.5,922.0,5.0,39.0,-4.0,7163.0,-7637.0,10325.0,-7225.0,185.0,135.0,28.0,-3.0,13.0,5.0,8322.0,-13324.0,-3950.0,2459.0,184.0,-8.0,28.0,1.0
2022-05-23 14:49:42.623642-07:00,1339.5,987.6,1026.3,973.9,1003.9,950.0,1994.5,1466.3,3466.1,3463.7,1222.2,900.0,1530.1,3469.8,1430.5,1257.8,3467.4,3477.1,1592.7,2061.5,2573.4,3490.5,2125.0,3481.9,3474.6,3475.9,665.2,974.8,1796.5,962.8,903.4,919.4,-15.0,1.0,-17.0,7138.0,-7620.0,10329.0,-7262.0,-86.0,15.0,-84.0,-10.0,-11.0,8.0,8320.0,-13327.0,-3947.0,2457.0,-96.0,19.0,-6.0,1.0
2022-05-23 14:49:42.624722-07:00,1339.5,987.6,1026.3,973.9,1001.3,937.3,1958.8,1444.2,3466.1,3463.7,1222.2,900.0,1532.9,3474.6,1424.1,1255.1,3479.5,3478.3,1589.9,2066.5,2573.4,3490.5,2125.0,3481.9,3474.6,3464.9,666.8,962.8,1796.5,962.8,903.4,919.4,-14.0,-16.0,-16.0,7105.0,-7629.0,10335.0,-7275.0,56.0,96.0,3.0,-9.0,-6.0,10.0,8318.0,-13328.0,-3947.0,2454.0,38.0,-4.0,-9.0,1.0
2022-05-23 14:49:42.683783-07:00,1324.1,966.2,1017.6,968.8,1001.3,937.3,1958.8,1444.2,3471.0,3466.1,1219.5,895.7,1532.9,3474.6,1424.1,1255.1,3479.5,3478.3,1589.9,2066.5,2573.4,3492.9,2107.8,3486.8,3474.6,3464.9,666.8,962.8,1801.3,964.5,911.8,922.8,5.0,9.0,-22.0,7101.0,-7625.0,10354.0,-7257.0,-86.0,-31.0,21.0,-4.0,-4.0,-12.0,8314.0,-13331.0,-3947.0,2454.0,-45.0,-8.0,1.0,1.0
2022-05-23 14:49:42.744290-07:00,1324.1,966.2,1017.6,968.8,997.0,927.9,1964.7,1436.0,3471.0,3466.1,1219.5,895.7,1521.8,3456.4,1416.7,1249.7,3473.4,3468.6,1599.3,2057.4,2573.4,3492.9,2107.8,3486.8,3475.9,3472.2,666.0,960.2,1801.3,964.5,911.8,922.8,-13.0,6.0,-24.0,7098.0,-7614.0,10357.0,-7267.0,35.0,20.0,0.0,-1.0,-2.0,15.0,8328.0,-13321.0,-3946.0,2462.0,44.0,-9.0,3.0,1.0
2022-05-23 14:49:42.803791-07:00,1337.7,963.7,1014.2,958.5,997.0,927.9,1964.7,1436.0,3463.7,3467.4,1209.7,890.7,1521.8,3456.4,1416.7,1249.7,3473.4,3468.6,1599.3,2057.4,2576.6,3492.9,2097.7,3485.6,3475.9,3472.2,666.0,960.2,1805.2,967.9,910.1,916.0,-7.0,-11.0,-3.0,7092.0,-7613.0,10371.0,-7254.0,-39.0,29.0,53.0,-4.0,-10.0,18.0,8322.0,-13325.0,-3946.0,2461.0,-23.0,-9.0,8.0,1.0
2022-05-23 14:49:42.834230-07:00,1337.7,963.7,1014.2,958.5,1008.2,931.3,1960.8,1423.1,3463.7,3467.4,1209.7,890.7,1531.0,3467.4,1414.0,1247.1,3473.4,3480.7,1586.1,2057.4,2576.6,3492.9,2097.7,3485.6,3478.3,3467.4,670.1,952.6,1805.2,967.9,910.1,916.0,1.0,20.0,-26.0,7097.0,-7598.0,10389.0,-7240.0,6.0,-20.0,12.0,-10.0,3.0,1.0,8327.0,-13322.0,-3944.0,2464.0,-2.0,-1.0,2.0,1.0
2022-05-23 14:49:42.893642-07:00,1316.9,970.5,1020.2,966.2,1008.2,931.3,1960.8,1421.3,3464.9,3471.0,1214.2,890.7,1531.0,3467.4,1414.0,1248.8,3472.2,3480.7,1586.1,2057.4,2579.9,3489.2,2086.6,3488.0,3478.3,3467.4,670.1,952.6,1795.5,960.2,912.7,920.3,-12.0,-7.0,-21.0,7092.0,-7606.0,10388.0,-7236.0,-44.0,-15.0,-15.0,-6.0,-10.0,8.0,8321.0,-13324.0,-3950.0,2461.0,-44.0,-10.0,-15.0,1.0
2022-05-23 14:49:42.923581-07:00,1325.0,970.5,1020.2,966.2,1000.5,920.3,1928.2,1421.3,3473.4,3471.0,1214.2,890.7,1528.3,3471.0,1419.5,1248.8,3472.2,3472.2,1595.5,2056.4,2579.9,3489.2,2086.6,3486.8,3478.3,3480.7,661.1,956.8,1795.5,960.2,912.7,905.0,2.0,0.0,-10.0,7098.0,-7609.0,10388.0,-7228.0,43.0,5.0,33.0,-6.0,0.0,1.0,8326.0,-13321.0,-3950.0,2465.0,43.0,-16.0,1.0,1.0
2022-05-23 14:49:42.983776-07:00,1325.0,950.9,1015.1,956.8,1000.5,920.3,1928.2,1413.1,3473.4,3469.8,1213.3,884.8,1528.3,3471.0,1419.5,1237.3,3473.4,3472.2,1595.5,2056.4,2581.0,3488.0,2083.6,3486.8,3480.7,3480.7,661.1,956.8,1811.0,973.9,902.5,905.0,-13.0,9.0,-15.0,7105.0,-7593.0,10394.0,-7230.0,8.0,-9.0,18.0,-6.0,-10.0,15.0,8336.0,-13313.0,-3950.0,2472.0,14.0,-1.0,-1.0,1.0
2022-05-23 14:49:43.043620-07:00,1314.2,950.9,1015.1,956.8,1011.6,918.6,1934.1,1413.1,3472.2,3469.8,1213.3,884.8,1526.4,3466.1,1404.0,1237.3,3473.4,3471.0,1590.8,2052.4,2581.0,3488.0,2083.6,3485.6,3480.7,3480.7,659.5,950.0,1811.0,973.9,902.5,911.0,8.0,2.0,-12.0,7109.0,-7596.0,10395.0,-7221.0,-4.0,23.0,6.0,-4.0,2.0,0.0,8337.0,-13312.0,-3950.0,2473.0,-2.0,-1.0,-12.0,1.0
2022-05-23 14:49:43.073732-07:00,1314.2,962.8,1018.5,958.5,1011.6,918.6,1934.1,1379.4,3472.2,3469.8,1206.2,883.1,1526.4,3466.1,1404.0,1248.8,3461.3,3471.0,1590.8,2052.4,2561.6,3489.2,2075.5,3485.6,3472.2,3480.7,659.5,950.0,1789.7,959.4,910.1,911.0,-10.0,0.0,-16.0,7108.0,-7586.0,10397.0,-7229.0,23.0,6.0,30.0,-3.0,-5.0,9.0,8346.0,-13306.0,-3953.0,2473.0,23.0,-8.0,-13.0,1.0
2022-05-23 14:49:43.134181-07:00,1313.3,962.8,1018.5,958.5,1000.5,911.8,1920.3,1379.4,3460.1,3469.8,1206.2,883.1,1519.0,3462.5,1399.4,1248.8,3461.3,3467.4,1594.6,2043.4,2561.6,3489.2,2075.5,3486.8,3472.2,3475.9,661.1,967.1,1789.7,959.4,910.1,905.9,-8.0,21.0,-19.0,7115.0,-7576.0,10405.0,-7222.0,-9.0,-29.0,3.0,-2.0,-1.0,15.0,8350.0,-13303.0,-3955.0,2473.0,-14.0,-2.0,-10.0,1.0
2022-05-23 14:49:43.193483-07:00,1313.3,950.9,1019.4,956.0,1000.5,911.8,1903.6,1357.6,3460.1,3460.1,1207.1,892.4,1519.0,3462.5,1405.8,1245.3,3467.4,3475.9,1594.6,2043.4,2572.3,3494.1,2073.5,3486.8,3478.3,3469.8,661.1,967.1,1799.4,959.4,905.0,905.9,-4.0,2.0,-21.0,7121.0,-7593.0,10396.0,-7211.0,4.0,-40.0,-21.0,-7.0,-3.0,2.0,8349.0,-13301.0,-3962.0,2471.0,-1.0,-17.0,-19.0,1.0
2022-05-23 14:49:43.223609-07:00,1315.1,953.4,1019.4,956.0,999.6,926.2,1903.6,1357.6,3467.4,3478.3,1207.1,892.4,1518.0,3472.2,1405.8,1245.3,3467.4,3475.9,1581.4,2052.4,2572.3,3494.1,2067.5,3485.6,3478.3,3469.8,657.9,943.2,1799.4,959.4,903.4,919.4,-6.0,0.0,-10.0,7131.0,-7611.0,10382.0,-7202.0,24.0,-68.0,-39.0,-5.0,-6.0,7.0,8347.0,-13299.0,-3971.0,2474.0,15.0,-13.0,-16.0,1.0
2022-05-23 14:49:43.283615-07:00,1315.1,953.4,1017.6,956.0,999.6,926.2,1887.9,1345.8,3467.4,3478.3,1197.4,890.7,1518.0,3472.2,1394.8,1247.1,3469.8,3466.1,1581.4,2052.4,2575.6,3492.9,2067.5,3485.6,3473.4,3481.9,657.9,943.2,1807.1,962.0,903.4,919.4,-5.0,0.0,-2.0,7142.0,-7620.0,10360.0,-7213.0,95.0,5.0,-47.0,-4.0,-9.0,14.0,8360.0,-13289.0,-3976.0,2477.0,50.0,-2.0,-14.0,1.0
2022-05-23 14:49:43.374269-07:00,1316.9,939.8,1017.6,956.0,1003.0,918.6,1887.9,1345.8,3461.3,3475.9,1197.4,890.7,1514.3,3473.4,1394.8,1247.1,3469.8,3466.1,1593.6,2059.4,2575.6,3492.9,2060.5,3479.5,3473.4,3481.9,656.2,939.0,1807.1,962.0,907.6,911.8,-6.0,3.0,-14.0,7147.0,-7625.0,10336.0,-7237.0,-49.0,-17.0,-47.0,-4.0,-3.0,6.0,8358.0,-13289.0,-3982.0,2473.0,-71.0,1.0,-16.0,1.0
2022-05-23 14:49:43.375511-07:00,1316.9,939.8,1014.2,962.8,1003.0,918.6,1878.1,1348.5,3461.3,3475.9,1209.7,884.8,1514.3,3473.4,1393.0,1238.2,3478.3,3478.3,1593.6,2059.4,2565.9,3501.4,2060.5,3479.5,3475.9,3473.4,656.2,939.0,1802.3,966.2,907.6,911.8,0.0,-8.0,-8.0,7137.0,-7647.0,10334.0,-7227.0,34.0,2.0,-23.0,-6.0,-5.0,2.0,8351.0,-13293.0,-3987.0,2469.0,21.0,-7.0,-9.0,1.0
2022-05-23 14:49:43.434574-07:00,1302.5,950.0,1018.5,962.8,1009.0,906.7,1878.1,1348.5,3457.6,3473.4,1203.5,884.8,1517.1,3466.1,1393.0,1238.2,3478.3,3478.3,1586.1,2052.4,2565.9,3492.9,2067.5,3486.8,3475.9,3473.4,662.7,941.5,1802.3,964.5,912.7,878.9,0.0,6.0,-13.0,7142.0,-7649.0,10325.0,-7232.0,18.0,-28.0,-11.0,-1.0,-1.0,6.0,8353.0,-13290.0,-3989.0,2475.0,9.0,-12.0,-8.0,1.0
2022-05-23 14:49:43.493546-07:00,1302.5,950.0,1018.5,959.4,1009.0,911.0,1875.2,1334.1,3457.6,3473.4,1203.5,882.3,1517.1,3471.0,1383.0,1239.1,3473.4,3473.4,1597.4,2052.4,2573.4,3492.9,2067.5,3486.8,3469.8,3473.4,652.2,941.5,1787.8,964.5,912.7,878.9,-4.0,11.0,-13.0,7146.0,-7656.0,10313.0,-7238.0,-27.0,-17.0,-49.0,-1.0,-2.0,9.0,8352.0,-13289.0,-3997.0,2470.0,-37.0,3.0,-25.0,1.0
2022-05-23 14:49:43.523662-07:00,1300.7,954.3,1022.8,959.4,996.2,911.0,1875.2,1334.1,3468.6,3464.9,1196.5,882.3,1521.8,3471.0,1383.0,1239.1,3473.4,3473.4,1597.4,2057.4,2573.4,3486.8,2057.4,3489.2,3469.8,3473.4,652.2,940.7,1787.8,962.0,900.8,896.6,-12.0,0.0,-12.0,7141.0,-7671.0,10307.0,-7237.0,21.0,-19.0,-11.0,-9.0,-5.0,11.0,8349.0,-13291.0,-4001.0,2467.0,1.0,-5.0,-5.0,1.0
2022-05-23 14:49:43.583677-07:00,1300.7,954.3,1022.8,967.9,996.2,903.4,1848.9,1346.7,3468.6,3464.9,1196.5,886.5,1521.8,3458.9,1383.0,1239.1,3468.6,3464.9,1585.2,2057.4,2568.0,3486.8,2057.4,3489.2,3474.6,3472.2,657.9,940.7,1804.2,962.0,900.8,896.6,-8.0,0.0,-12.0,7145.0,-7670.0,10304.0,-7238.0,16.0,18.0,7.0,-4.0,-5.0,6.0,8350.0,-13290.0,-4001.0,2467.0,11.0,2.0,3.0,1.0
2022-05-23 14:49:43.643883-07:00,1314.2,953.4,1018.5,967.9,1001.3,903.4,1848.9,1346.7,3472.2,3458.9,1196.5,886.5,1516.2,3458.9,1383.0,1239.1,3468.6,3464.9,1585.2,2054.4,2568.0,3492.9,2058.4,3483.2,3474.6,3472.2,657.9,939.0,1804.2,966.2,904.2,906.7,0.0,12.0,-3.0,7142.0,-7670.0,10307.0,-7236.0,-51.0,-6.0,-13.0,1.0,1.0,8.0,8347.0,-13292.0,-4000.0,2465.0,-43.0,14.0,5.0,1.0
2022-05-23 14:49:43.674201-07:00,1314.2,953.4,1018.5,961.1,992.7,905.9,1836.2,1343.1,3472.2,3458.9,1196.5,887.3,1521.8,3473.4,1374.8,1241.7,3474.6,3478.3,1590.8,2049.4,2574.5,3492.9,2058.4,3483.2,3475.9,3464.9,660.3,944.9,1807.1,966.2,904.2,906.7,-8.0,-18.0,-13.0,7120.0,-7685.0,10321.0,-7222.0,-88.0,43.0,22.0,-4.0,-5.0,10.0,8329.0,-13305.0,-4001.0,2455.0,-42.0,2.0,12.0,1.0
2022-05-23 14:49:43.733634-07:00,1321.4,947.5,1023.7,962.8,992.7,905.9,1836.2,1343.1,3462.5,3458.9,1198.2,885.6,1521.8,3473.4,1374.8,1241.7,3474.6,3478.3,1590.8,2049.4,2561.6,3486.8,2053.4,3492.9,3475.9,3464.9,660.3,944.9,1803.2,967.9,908.4,911.8,-2.0,7.0,-27.0,7109.0,-7678.0,10349.0,-7201.0,-61.0,26.0,70.0,-4.0,0.0,3.0,8319.0,-13313.0,-3996.0,2457.0,-34.0,-1.0,20.0,1.0
2022-05-23 14:49:43.793532-07:00,1321.4,947.5,1023.7,962.8,1000.5,915.2,1843.0,1316.0,3462.5,3458.9,1198.2,885.6,1522.7,3468.6,1404.9,1242.6,3480.7,3467.4,1585.2,2044.4,2561.6,3486.8,2053.4,3492.9,3474.6,3468.6,651.4,937.3,1803.2,967.9,908.4,911.8,-14.0,1.0,-6.0,7103.0,-7663.0,10394.0,-7157.0,-85.0,-15.0,125.0,-4.0,-15.0,11.0,8303.0,-13324.0,-3990.0,2459.0,-18.0,0.0,37.0,1.0
2022-05-23 14:49:43.823609-07:00,1308.8,939.0,1016.8,965.4,1000.5,915.2,1843.0,1316.0,3462.5,3462.5,1210.6,887.3,1522.7,3468.6,1404.9,1242.6,3480.7,3467.4,1585.2,2044.4,2566.9,3490.5,2049.4,3495.3,3474.6,3468.6,651.4,937.3,1797.4,973.9,908.4,908.4,9.0,26.0,-11.0,7114.0,-7654.0,10411.0,-7131.0,41.0,19.0,-53.0,-7.0,0.0,-5.0,8306.0,-13324.0,-3978.0,2465.0,41.0,8.0,4.0,1.0
2022-05-23 14:49:43.883657-07:00,1308.8,939.0,1016.8,965.4,1000.5,898.3,1840.1,1321.4,3462.5,3462.5,1210.6,887.3,1515.3,3462.5,1392.1,1243.5,3474.6,3477.1,1584.2,2040.4,2566.9,3490.5,2049.4,3495.3,3469.8,3471.0,650.5,933.9,1797.4,973.9,908.4,908.4,-21.0,-3.0,-18.0,7104.0,-7654.0,10381.0,-7185.0,179.0,37.0,-99.0,-11.0,-4.0,13.0,8330.0,-13309.0,-3976.0,2471.0,104.0,1.0,-13.0,1.0
2022-05-23 14:49:43.943575-07:00,1302.5,936.4,1034.0,966.2,1000.5,898.3,1840.1,1321.4,3460.1,3464.9,1202.7,893.2,1515.3,3462.5,1392.1,1243.5,3474.6,3477.1,1584.2,2040.4,2577.7,3484.4,2044.4,3488.0,3469.8,3471.0,650.5,933.9,1801.3,962.0,917.7,900.0,-6.0,-6.0,-7.0,7112.0,-7647.0,10358.0,-7218.0,22.0,-10.0,12.0,-4.0,-6.0,9.0,8353.0,-13294.0,-3974.0,2477.0,35.0,0.0,1.0,1.0
2022-05-23 14:49:43.974112-07:00,1301.6,936.4,1034.0,966.2,1012.5,916.0,1836.2,1327.8,3469.8,3464.9,1202.7,893.2,1514.3,3461.3,1390.3,1231.0,3471.0,3475.9,1583.3,2047.4,2577.7,3484.4,2044.4,3489.2,3467.4,3472.2,651.4,939.8,1801.3,962.0,917.7,909.3,-5.0,10.0,-17.0,7121.0,-7635.0,10353.0,-7229.0,37.0,1.0,-9.0,-1.0,0.0,10.0,8369.0,-13285.0,-3971.0,2481.0,18.0,2.0,6.0,1.0
2022-05-23 14:49:44.033205-07:00,1301.6,930.5,1030.6,976.5,1012.5,916.0,1836.2,1316.0,3469.8,3464.9,1198.2,885.6,1514.3,3461.3,1390.3,1239.9,3472.2,3475.9,1583.3,2047.4,2566.9,3494.1,2029.4,3489.2,3480.7,3472.2,651.4,939.8,1803.2,969.6,903.4,909.3,0.0,-1.0,-8.0,7116.0,-7644.0,10354.0,-7222.0,-18.0,-8.0,-16.0,-3.0,-9.0,6.0,8363.0,-13288.0,-3972.0,2479.0,-8.0,1.0,4.0,1.0
2022-05-23 14:49:44.093552-07:00,1300.7,930.5,1030.6,976.5,992.7,906.7,1840.1,1316.0,3474.6,3464.9,1198.2,885.6,1519.0,3474.6,1383.0,1239.9,3472.2,3466.1,1600.2,2043.4,2566.9,3494.1,2029.4,3486.8,3480.7,3477.1,655.4,922.0,1803.2,969.6,903.4,903.4,-10.0,7.0,-18.0,7119.0,-7642.0,10343.0,-7237.0,86.0,-3.0,-31.0,-5.0,-2.0,11.0,8374.0,-13281.0,-3970.0,2483.0,59.0,-2.0,1.0,1.0
2022-05-23 14:49:44.123198-07:00,1300.7,926.2,1019.4,953.4,992.7,906.7,1840.1,1338.6,3474.6,3471.0,1196.5,878.0,1519.0,3474.6,1383.0,1235.5,3467.4,3466.1,1600.2,2043.4,2560.5,3486.8,2022.4,3486.8,3478.3,3477.1,655.4,922.0,1787.8,961.1,907.6,903.4,-7.0,-11.0,-9.0,7127.0,-7648.0,10330.0,-7241.0,6.0,-34.0,-16.0,-14.0,-12.0,3.0,8383.0,-13275.0,-3969.0,2485.0,-3.0,-8.0,-7.0,1.0
2022-05-23 14:49:44.213475-07:00,1295.4,926.2,1019.4,953.4,1003.0,904.2,1835.2,1338.6,3474.6,3471.0,1196.5,878.0,1520.8,3473.4,1383.0,1235.5,3467.4,3478.3,1586.1,2040.4,2560.5,3486.8,2022.4,3494.1,3478.3,3473.4,652.2,931.3,1787.8,961.1,907.6,898.3,-4.0,11.0,-4.0,7142.0,-7641.0,10319.0,-7251.0,67.0,1.0,15.0,-1.0,-6.0,15.0,8401.0,-13263.0,-3968.0,2494.0,71.0,-9.0,-3.0,1.0
2022-05-23 14:49:44.243122-07:00,1295.4,933.9,1021.1,959.4,1003.0,904.2,1827.5,1337.7,3474.6,3464.9,1204.4,880.6,1520.8,3473.4,1390.3,1235.5,3473.4,3466.1,1586.1,2040.4,2561.6,3496.6,2031.4,3494.1,3474.6,3475.9,652.2,931.3,1794.5,962.8,905.0,898.3,-11.0,5.0,-7.0,7151.0,-7627.0,10311.0,-7267.0,51.0,31.0,1.0,-6.0,-4.0,14.0,8420.0,-13250.0,-3964.0,2500.0,54.0,8.0,-8.0,1.0
2022-05-23 14:49:44.273284-07:00,1294.5,933.0,1021.1,959.4,997.9,904.2,1827.5,1337.7,3467.4,3460.1,1204.4,880.6,1520.8,3469.8,1390.3,1235.5,3473.4,3466.1,1585.2,2050.4,2561.6,3496.6,2028.4,3486.8,3474.6,3475.9,658.7,928.8,1794.5,962.8,905.0,900.0,-3.0,1.0,-10.0,7154.0,-7619.0,10308.0,-7277.0,54.0,-10.0,-18.0,-3.0,-4.0,5.0,8429.0,-13246.0,-3960.0,2498.0,17.0,12.0,-2.0,1.0
2022-05-23 14:49:44.333708-07:00,1294.5,933.0,1026.3,969.6,997.9,904.2,1826.5,1324.1,3467.4,3460.1,1194.7,885.6,1520.8,3469.8,1390.3,1231.0,3463.7,3480.7,1585.2,2050.4,2587.4,3495.3,2028.4,3486.8,3475.9,3471.0,658.7,928.8,1795.5,969.6,905.0,900.0,0.0,-6.0,-8.0,7157.0,-7614.0,10302.0,-7287.0,23.0,19.0,9.0,-2.0,-6.0,7.0,8438.0,-13241.0,-3958.0,2499.0,12.0,0.0,1.0,1.0
2022-05-23 14:49:44.393512-07:00,1298.1,925.4,1026.3,969.6,1006.5,914.4,1826.5,1324.1,3458.9,3466.1,1194.7,885.6,1515.3,3473.4,1390.3,1231.0,3463.7,3480.7,1576.8,2040.4,2587.4,3495.3,2023.4,3477.1,3475.9,3471.0,662.7,925.4,1795.5,969.6,908.4,905.9,-5.0,8.0,-10.0,7162.0,-7599.0,10303.0,-7297.0,24.0,3.0,8.0,0.0,-3.0,15.0,8450.0,-13233.0,-3954.0,2504.0,26.0,4.0,14.0,1.0
2022-05-23 14:49:44.454330-07:00,1298.1,925.4,1020.2,963.7,1006.5,914.4,1799.4,1316.0,3458.9,3466.1,1199.1,883.9,1515.3,3473.4,1384.8,1236.4,3473.4,3488.0,1576.8,2040.4,2571.3,3491.7,2023.4,3477.1,3474.6,3478.3,662.7,925.4,1799.4,968.8,908.4,905.9,-8.0,0.0,-13.0,7161.0,-7600.0,10299.0,-7303.0,24.0,18.0,-17.0,-9.0,-4.0,8.0,8451.0,-13233.0,-3952.0,2506.0,5.0,6.0,2.0,1.0
2022-05-23 14:49:44.483608-07:00,1307.0,924.5,1020.2,963.7,1003.0,900.0,1799.4,1316.0,3462.5,3471.0,1199.1,883.9,1519.0,3467.4,1384.8,1236.4,3473.4,3488.0,1590.8,2050.4,2571.3,3491.7,2022.4,3477.1,3474.6,3478.3,650.5,925.4,1799.4,968.8,905.9,909.3,-11.0,4.0,-16.0,7162.0,-7596.0,10298.0,-7307.0,7.0,-13.0,-3.0,-10.0,0.0,7.0,8455.0,-13231.0,-3951.0,2507.0,5.0,5.0,-4.0,1.0
2022-05-23 14:49:44.573591-07:00,1307.0,924.5,1026.3,960.2,1003.0,909.3,1805.2,1311.5,3462.5,3471.0,1193.8,887.3,1519.0,3466.1,1391.2,1243.5,3466.1,3469.8,1582.4,2050.4,2560.5,3492.9,2022.4,3477.1,3467.4,3471.0,656.2,925.4,1796.5,959.4,905.9,909.3,-14.0,-6.0,-4.0,7159.0,-7589.0,10304.0,-7309.0,40.0,31.0,23.0,-1.0,-10.0,18.0,8458.0,-13229.0,-3950.0,2508.0,23.0,2.0,6.0,1.0
2022-05-23 14:49:44.574739-07:00,1300.7,925.4,1026.3,960.2,999.6,909.3,1805.2,1311.5,3475.9,3471.0,1188.5,887.3,1514.3,3466.1,1391.2,1243.5,3466.1,3469.8,1582.4,2036.4,2560.5,3485.6,2012.4,3486.8,3467.4,3471.0,656.2,922.0,1796.5,963.7,906.7,917.7,-5.0,11.0,-17.0,7163.0,-7579.0,10303.0,-7317.0,-9.0,1.0,-21.0,-3.0,0.0,6.0,8461.0,-13228.0,-3945.0,2510.0,-19.0,10.0,9.0,1.0
2022-05-23 14:49:44.633661-07:00,1300.7,925.4,1026.3,967.1,999.6,905.0,1796.5,1330.5,3475.9,3471.0,1188.5,878.9,1514.3,3471.0,1386.6,1235.5,3467.4,3460.1,1587.1,2036.4,2554.0,3485.6,2012.4,3486.8,3473.4,3462.5,649.7,922.0,1798.4,963.7,906.7,917.7,-5.0,-10.0,-15.0,7155.0,-7582.0,10308.0,-7313.0,19.0,19.0,27.0,-2.0,-11.0,8.0,8453.0,-13233.0,-3946.0,2507.0,2.0,-6.0,2.0,1.0
2022-05-23 14:49:44.693482-07:00,1307.0,911.0,1020.2,967.1,998.7,905.0,1796.5,1330.5,3468.6,3468.6,1188.5,878.9,1517.1,3471.0,1386.6,1235.5,3467.4,3460.1,1587.1,2060.5,2554.0,3486.8,2009.4,3486.8,3473.4,3462.5,649.7,923.7,1798.4,963.7,902.5,898.3,-1.0,11.0,-12.0,7163.0,-7574.0,10308.0,-7315.0,-1.0,-10.0,-11.0,-7.0,0.0,5.0,8460.0,-13229.0,-3944.0,2510.0,7.0,-1.0,2.0,1.0
2022-05-23 14:49:44.723723-07:00,1307.0,911.0,1020.2,959.4,998.7,894.1,1805.2,1315.1,3468.6,3468.6,1188.5,886.5,1517.1,3468.6,1374.8,1234.6,3483.2,3473.4,1595.5,2060.5,2560.5,3486.8,2009.4,3486.8,3467.4,3472.2,657.0,923.7,1800.3,963.7,902.5,898.3,-4.0,0.0,-11.0,7159.0,-7581.0,10306.0,-7314.0,5.0,1.0,-7.0,-7.0,-4.0,11.0,8458.0,-13230.0,-3945.0,2509.0,-3.0,-5.0,-4.0,1.0
2022-05-23 14:49:44.784347-07:00,1287.3,917.7,1027.1,974.8,999.6,894.1,1805.2,1315.1,3474.6,3467.4,1192.9,880.6,1514.3,3468.6,1374.8,1234.6,3483.2,3473.4,1595.5,2039.4,2563.7,3489.2,2014.4,3481.9,3467.4,3472.2,657.0,919.4,1792.6,970.5,907.6,898.3,-5.0,0.0,-5.0,7161.0,-7576.0,10308.0,-7314.0,10.0,18.0,19.0,-6.0,-4.0,11.0,8459.0,-13230.0,-3945.0,2509.0,7.0,-3.0,3.0,1.0
2022-05-23 14:49:44.843637-07:00,1287.3,917.7,1027.1,974.8,998.7,905.9,1797.4,1318.7,3474.6,3467.4,1192.9,880.6,1516.2,3467.4,1384.8,1234.6,3472.2,3475.9,1584.2,2041.4,2563.7,3489.2,2014.4,3481.9,3471.0,3473.4,659.5,918.6,1792.6,970.5,907.6,898.3,-4.0,8.0,-12.0,7158.0,-7570.0,10314.0,-7316.0,-19.0,20.0,-14.0,-7.0,-4.0,10.0,8459.0,-13230.0,-3944.0,2508.0,-14.0,10.0,6.0,1.0
2022-05-23 14:49:44.873506-07:00,1284.6,922.0,1019.4,964.5,998.7,905.9,1797.4,1318.7,3463.7,3463.7,1189.4,887.3,1516.2,3467.4,1384.8,1234.6,3472.2,3475.9,1584.2,2041.4,2563.7,3485.6,2009.4,3491.7,3471.0,3473.4,659.5,918.6,1799.4,962.8,911.0,905.9,7.0,-2.0,-10.0,7151.0,-7574.0,10316.0,-7316.0,13.0,32.0,8.0,-7.0,-4.0,0.0,8453.0,-13235.0,-3944.0,2505.0,6.0,5.0,1.0,1.0
2022-05-23 14:49:44.963657-07:00,1284.6,922.0,1019.4,964.5,998.7,905.0,1809.0,1309.7,3463.7,3463.7,1189.4,887.3,1518.0,3462.5,1379.4,1239.9,3469.8,3474.6,1579.6,2035.4,2563.7,3485.6,2009.4,3491.7,3480.7,3467.4,652.2,922.8,1799.4,962.8,911.0,905.9,-12.0,0.0,21.0,7149.0,-7560.0,10319.0,-7328.0,82.0,36.0,-3.0,1.0,-12.0,22.0,8464.0,-13228.0,-3942.0,2508.0,38.0,0.0,-4.0,1.0
2022-05-23 14:49:44.964743-07:00,1296.3,923.7,1021.9,963.7,998.7,905.0,1809.0,1309.7,3473.4,3467.4,1260.4,922.8,1518.0,3462.5,1379.4,1239.9,3469.8,3474.6,1579.6,2035.4,2560.5,3483.2,2007.4,3484.4,3480.7,3467.4,652.2,922.8,1793.6,958.5,909.3,901.7,-17.0,17.0,73.0,7156.0,-7529.0,10293.0,-7389.0,196.0,148.0,-90.0,-15.0,-32.0,-14.0,8516.0,-13193.0,-3939.0,2519.0,238.0,8.0,-25.0,1.0
2022-05-23 14:49:45.024091-07:00,1296.3,923.7,1021.9,963.7,997.9,910.1,1848.9,1320.5,3473.4,3467.4,1260.4,922.8,1545.0,3471.0,1523.6,1273.0,3480.7,3481.9,1583.3,2038.4,2560.5,3483.2,2007.4,3484.4,3478.3,3478.3,645.7,942.4,1793.6,958.5,909.3,901.7,-17.0,-77.0,158.0,7125.0,-7418.0,10211.0,-7641.0,1454.0,657.0,-501.0,-8.0,-81.0,8.0,8772.0,-13018.0,-3907.0,2597.0,1180.0,-42.0,-31.0,1.0
2022-05-23 14:49:45.083587-07:00,1296.3,933.0,1022.8,969.6,997.9,910.1,1848.9,1581.4,3462.5,3462.5,1591.7,1054.8,1545.0,3471.0,1523.6,1421.3,3488.0,3481.9,1583.3,2038.4,2572.3,3492.9,2010.4,3488.0,3475.9,3478.3,645.7,942.4,1819.7,1153.3,1005.6,904.2,112.0,-33.0,-190.0,7152.0,-7046.0,9817.0,-8442.0,1309.0,801.0,-662.0,29.0,165.0,-11.0,9251.0,-12666.0,-3839.0,2773.0,664.0,-195.0,-70.0,1.0
2022-05-23 14:49:45.113620-07:00,1275.6,933.0,1022.8,969.6,993.6,1000.5,2091.6,1581.4,3473.4,3462.5,1591.7,1054.8,1649.2,3464.9,1887.9,1421.3,3488.0,3467.4,1609.6,2052.4,2572.3,3492.9,2010.4,3494.1,3475.9,3471.0,684.8,926.2,1819.7,1153.3,1005.6,907.6,-94.0,-91.0,9.0,7037.0,-6786.0,9835.0,-8726.0,313.0,123.0,664.0,-7.0,-106.0,117.0,9391.0,-12540.0,-3824.0,2893.0,886.0,-77.0,170.0,1.0
2022-05-23 14:49:45.173558-07:00,1275.6,915.2,1025.4,971.3,993.6,1000.5,2091.6,1594.6,3473.4,3473.4,1649.2,1182.3,1649.2,3464.9,1887.9,1406.7,3468.6,3467.4,1609.6,2052.4,2695.2,3495.3,2001.5,3494.1,3463.7,3471.0,684.8,926.2,1863.5,1453.4,1386.6,907.6,10.0,296.0,-202.0,7235.0,-6580.0,9798.0,-8764.0,12.0,-235.0,-164.0,-26.0,100.0,-54.0,9568.0,-12403.0,-3759.0,2985.0,-27.0,-58.0,-22.0,1.0
2022-05-23 14:49:45.233651-07:00,1281.9,915.2,1025.4,971.3,997.0,1062.5,2085.6,1594.6,3464.9,3473.4,1649.2,1182.3,1711.0,3473.4,1835.2,1406.7,3468.6,3475.9,1608.7,2072.5,2695.2,3495.3,2001.5,3484.4,3463.7,3480.7,705.2,922.0,1863.5,1453.4,1386.6,943.2,-18.0,-76.0,-98.0,7253.0,-6782.0,9680.0,-8725.0,96.0,-716.0,-230.0,-32.0,-1.0,14.0,9459.0,-12479.0,-3812.0,2952.0,-235.0,-33.0,-51.0,1.0
2022-05-23 14:49:45.263681-07:00,1281.9,925.4,1022.8,977.3,997.0,1062.5,2085.6,1611.5,3464.9,3464.9,1609.6,1156.8,1711.0,3473.4,1835.2,1445.1,3468.6,3475.9,1608.7,2072.5,2743.6,3486.8,1937.1,3484.4,3469.8,3480.7,705.2,922.0,1880.1,1408.5,1345.8,943.2,-40.0,-9.0,-56.0,7448.0,-6891.0,9521.0,-8650.0,148.0,-502.0,300.0,-14.0,7.0,28.0,9448.0,-12480.0,-3832.0,2959.0,181.0,-63.0,-11.0,1.0
2022-05-23 14:49:45.323645-07:00,1275.6,911.8,1022.8,977.3,990.2,1053.0,2056.4,1611.5,3472.2,3471.0,1609.6,1156.8,1693.8,3471.0,1860.6,1445.1,3468.6,3468.6,1596.4,2081.6,2743.6,3486.8,1910.5,3489.2,3469.8,3478.3,692.1,921.1,1880.1,1408.5,1309.7,1034.9,86.0,31.0,27.0,7624.0,-6986.0,9462.0,-8483.0,-246.0,-485.0,-38.0,5.0,13.0,-34.0,9451.0,-12465.0,-3858.0,2974.0,-101.0,-54.0,-67.0,1.0
2022-05-23 14:49:45.383553-07:00,1275.6,911.8,1021.9,963.7,990.2,1053.0,2037.4,1594.6,3472.2,3471.0,1603.0,1154.2,1693.8,3471.0,1864.5,1430.5,3477.1,3469.8,1596.4,2081.6,2729.3,3486.8,1910.5,3489.2,3478.3,3478.3,692.1,921.1,1864.5,1343.1,1309.7,1034.9,-46.0,0.0,-27.0,7667.0,-7126.0,9375.0,-8425.0,55.0,-462.0,-259.0,10.0,-19.0,59.0,9442.0,-12465.0,-3889.0,2964.0,-7.0,6.0,-66.0,1.0
2022-05-23 14:49:45.413635-07:00,1274.7,905.0,1021.9,963.7,1006.5,1023.7,2037.4,1594.6,3462.5,3472.2,1603.0,1154.2,1690.0,3471.0,1864.5,1430.5,3477.1,3469.8,1595.5,2082.6,2729.3,3486.8,1884.0,3483.2,3478.3,3478.3,689.7,908.4,1864.5,1343.1,1232.8,1007.3,21.0,-81.0,25.0,7744.0,-7265.0,9244.0,-8381.0,54.0,-201.0,52.0,-8.0,-14.0,3.0,9431.0,-12471.0,-3907.0,2951.0,35.0,-36.0,-13.0,1.0
2022-05-23 14:49:45.473582-07:00,1274.7,905.0,1008.2,962.0,1006.5,1023.7,2044.4,1592.7,3462.5,3472.2,1588.9,1154.2,1690.0,3471.0,1850.8,1429.5,3473.4,3466.1,1595.5,2082.6,2730.4,3491.7,1884.0,3483.2,3468.6,3462.5,689.7,908.4,1852.8,1256.9,1232.8,1007.3,-11.0,44.0,-13.0,7807.0,-7259.0,9215.0,-8359.0,-11.0,-142.0,-63.0,-3.0,10.0,38.0,9456.0,-12447.0,-3908.0,2969.0,-35.0,3.0,-1.0,1.0
2022-05-23 14:49:45.563606-07:00,1287.3,910.1,1008.2,962.0,996.2,1007.3,2044.4,1592.7,3473.4,3467.4,1588.9,1154.2,1677.6,3467.4,1850.8,1429.5,3473.4,3466.1,1593.6,2080.6,2730.4,3491.7,1876.2,3483.2,3468.6,3462.5,675.0,901.7,1852.8,1256.9,1142.7,994.5,14.0,-33.0,-1.0,7817.0,-7317.0,9157.0,-8363.0,99.0,-2.0,-86.0,-13.0,-1.0,0.0,9439.0,-12463.0,-3910.0,2954.0,-1.0,25.0,-13.0,1.0
2022-05-23 14:49:45.624122-07:00,1287.3,910.1,1009.0,960.2,996.2,1007.3,2022.4,1580.5,3473.4,3467.4,1566.5,1143.6,1677.6,3467.4,1857.6,1419.5,3467.4,3473.4,1593.6,2080.6,2720.5,3489.2,1876.2,3483.2,3472.2,3473.4,675.0,901.7,1837.2,1200.0,1142.7,994.5,-26.0,13.0,-34.0,7821.0,-7297.0,9141.0,-8394.0,79.0,-32.0,4.0,-9.0,2.0,25.0,9446.0,-12460.0,-3905.0,2953.0,14.0,13.0,9.0,1.0
2022-05-23 14:49:45.625247-07:00,1272.1,906.7,1006.5,960.2,990.2,1006.5,2022.4,1580.5,3457.6,3462.5,1570.2,1143.6,1672.9,3468.6,1857.6,1419.5,3467.4,3473.4,1588.9,2086.6,2720.5,3496.6,1866.4,3489.2,3472.2,3473.4,669.3,894.9,1837.2,1167.4,1114.7,1028.8,8.0,15.0,-32.0,7833.0,-7304.0,9124.0,-8396.0,2.0,10.0,-54.0,-5.0,0.0,-3.0,9441.0,-12465.0,-3904.0,2948.0,-26.0,-2.0,-19.0,1.0
2022-05-23 14:49:45.683607-07:00,1272.1,906.7,1006.5,952.6,990.2,998.7,2006.4,1567.4,3457.6,3462.5,1570.2,1145.4,1672.9,3468.6,1844.0,1409.4,3478.3,3468.6,1587.1,2086.6,2715.0,3496.6,1866.4,3489.2,3472.2,3467.4,664.4,894.9,1824.6,1167.4,1114.7,1028.8,-21.0,13.0,-35.0,7816.0,-7321.0,9113.0,-8408.0,40.0,-78.0,-87.0,-2.0,8.0,23.0,9438.0,-12466.0,-3913.0,2940.0,-3.0,-4.0,-28.0,1.0
2022-05-23 14:49:45.713700-07:00,1265.8,905.9,1021.9,952.6,993.6,998.7,2006.4,1567.4,3469.8,3473.4,1562.7,1145.4,1670.1,3468.6,1844.0,1409.4,3478.3,3468.6,1587.1,2087.6,2715.0,3489.2,1857.6,3492.9,3472.2,3467.4,664.4,893.2,1824.6,1141.9,1113.0,1021.1,14.0,-11.0,-7.0,7833.0,-7351.0,9087.0,-8394.0,49.0,-33.0,-18.0,-3.0,-5.0,-1.0,9434.0,-12467.0,-3920.0,2938.0,1.0,-13.0,-11.0,1.0
2022-05-23 14:49:45.773570-07:00,1265.8,905.9,1021.9,951.7,993.6,996.2,1990.5,1563.7,3469.8,3473.4,1562.7,1141.9,1670.1,3466.1,1845.0,1394.8,3474.6,3472.2,1585.2,2087.6,2699.6,3489.2,1857.6,3492.9,3478.3,3475.9,661.9,893.2,1825.5,1141.9,1113.0,1021.1,-22.0,-1.0,-20.0,7827.0,-7355.0,9078.0,-8407.0,3.0,-34.0,-58.0,-5.0,-7.0,28.0,9434.0,-12465.0,-3927.0,2938.0,-9.0,0.0,-15.0,1.0
2022-05-23 14:49:45.833713-07:00,1259.6,896.6,1013.3,951.7,993.6,996.2,1990.5,1563.7,3467.4,3457.6,1567.4,1141.9,1667.2,3466.1,1845.0,1394.8,3474.6,3472.2,1585.2,2085.6,2699.6,3490.5,1849.8,3477.1,3478.3,3475.9,661.9,884.8,1825.5,1137.5,1098.2,1011.6,18.0,-2.0,-7.0,7827.0,-7374.0,9065.0,-8404.0,32.0,18.0,-14.0,-6.0,3.0,-6.0,9433.0,-12466.0,-3927.0,2937.0,15.0,0.0,-10.0,1.0
2022-05-23 14:49:45.863679-07:00,1259.6,896.6,1013.3,951.7,1000.5,998.7,1986.6,1568.3,3467.4,3457.6,1567.4,1145.4,1668.2,3469.8,1841.1,1405.8,3475.9,3474.6,1587.1,2089.6,2710.6,3490.5,1849.8,3477.1,3462.5,3477.1,660.3,890.7,1818.7,1137.5,1098.2,1011.6,-6.0,-2.0,-18.0,7830.0,-7362.0,9063.0,-8414.0,51.0,-4.0,-6.0,-9.0,1.0,4.0,9440.0,-12460.0,-3926.0,2940.0,17.0,6.0,-1.0,1.0
2022-05-23 14:49:45.923954-07:00,1255.1,896.6,1005.6,950.9,1000.5,998.7,1986.6,1568.3,3462.5,3467.4,1549.7,1142.7,1668.2,3469.8,1841.1,1405.8,3475.9,3474.6,1587.1,2089.6,2697.4,3489.2,1845.9,3483.2,3462.5,3477.1,660.3,890.7,1819.7,1131.4,1074.7,1025.4,-17.0,-22.0,-19.0,7829.0,-7362.0,9062.0,-8416.0,17.0,-9.0,-25.0,-8.0,-16.0,12.0,9434.0,-12465.0,-3927.0,2939.0,-18.0,-5.0,4.0,1.0
2022-05-23 14:49:45.983562-07:00,1255.1,896.6,1005.6,950.9,992.7,979.9,2007.4,1560.9,3462.5,3467.4,1549.7,1142.7,1671.0,3469.8,1852.8,1402.1,3472.2,3480.7,1585.2,2102.7,2697.4,3489.2,1845.9,3483.2,3480.7,3467.4,666.8,877.2,1819.7,1131.4,1074.7,1025.4,-1.0,3.0,-23.0,7862.0,-7337.0,9023.0,-8449.0,231.0,-5.0,-9.0,1.0,2.0,4.0,9454.0,-12448.0,-3924.0,2950.0,79.0,-21.0,-3.0,1.0
2022-05-23 14:49:46.013645-07:00,1262.2,888.2,1002.2,958.5,992.7,979.9,2007.4,1560.9,3473.4,3473.4,1559.0,1139.2,1671.0,3469.8,1852.8,1402.1,3472.2,3480.7,1585.2,2102.7,2698.5,3479.5,1845.0,3486.8,3480.7,3467.4,666.8,877.2,1819.7,1118.2,1073.8,1015.9,-11.0,12.0,-19.0,7885.0,-7302.0,8997.0,-8485.0,68.0,17.0,-9.0,-6.0,2.0,21.0,9464.0,-12438.0,-3926.0,2960.0,-24.0,-14.0,-4.0,1.0
2022-05-23 14:49:46.073556-07:00,1262.2,888.2,1002.2,958.5,988.5,979.0,1982.6,1559.0,3473.4,3473.4,1559.0,1139.2,1664.4,3464.9,1868.4,1431.4,3467.4,3483.2,1583.3,2092.6,2698.5,3479.5,1845.0,3486.8,3479.5,3479.5,660.3,884.8,1819.7,1118.2,1073.8,1015.9,-17.0,2.0,-29.0,7886.0,-7310.0,9007.0,-8467.0,-33.0,-66.0,-3.0,-7.0,0.0,12.0,9455.0,-12444.0,-3927.0,2960.0,-40.0,-7.0,8.0,1.0
2022-05-23 14:49:46.133682-07:00,1257.8,883.1,1016.8,955.1,988.5,979.0,1982.6,1564.6,3471.0,3475.9,1542.2,1141.9,1664.4,3464.9,1868.4,1427.7,3477.1,3483.2,1583.3,2092.6,2699.6,3484.4,1840.1,3489.2,3479.5,3479.5,660.3,884.8,1807.1,1116.5,1066.0,1020.2,7.0,-5.0,-21.0,7895.0,-7336.0,9001.0,-8443.0,0.0,-48.0,-13.0,-5.0,-1.0,-2.0,9446.0,-12450.0,-3930.0,2960.0,-8.0,-19.0,1.0,1.0
2022-05-23 14:49:46.163686-07:00,1254.2,883.1,1016.8,955.1,993.6,983.3,2000.5,1564.6,3460.1,3475.9,1542.2,1141.9,1658.7,3464.9,1859.6,1427.7,3477.1,3469.8,1580.5,2090.6,2699.6,3484.4,1840.1,3490.5,3479.5,3468.6,656.2,876.4,1807.1,1116.5,1066.0,1020.2,-14.0,12.0,-16.0,7893.0,-7332.0,9004.0,-8445.0,17.0,22.0,4.0,7.0,-10.0,31.0,9445.0,-12449.0,-3932.0,2962.0,-2.0,0.0,9.0,1.0
2022-05-23 14:49:46.223634-07:00,1254.2,892.4,1003.9,960.2,993.6,983.3,2000.5,1560.9,3460.1,3473.4,1544.1,1137.5,1658.7,3464.9,1859.6,1421.3,3478.3,3469.8,1580.5,2090.6,2695.2,3505.1,1843.0,3490.5,3479.5,3468.6,656.2,876.4,1815.8,1113.0,1061.7,1020.2,-4.0,-16.0,-8.0,7889.0,-7341.0,9012.0,-8432.0,-20.0,20.0,14.0,-3.0,-3.0,3.0,9433.0,-12460.0,-3928.0,2962.0,-15.0,2.0,16.0,1.0
2022-05-23 14:49:46.283638-07:00,1255.1,892.4,1003.9,960.2,997.9,978.2,1990.5,1560.9,3468.6,3473.4,1544.1,1137.5,1657.7,3471.0,1849.8,1421.3,3478.3,3478.3,1577.7,2095.7,2695.2,3505.1,1843.0,3481.9,3479.5,3478.3,645.7,864.6,1815.8,1113.0,1061.7,1017.6,-1.0,7.0,-18.0,7890.0,-7333.0,9022.0,-8427.0,-7.0,5.0,10.0,-3.0,3.0,5.0,9431.0,-12463.0,-3918.0,2966.0,-26.0,7.0,21.0,1.0
2022-05-23 14:49:46.343538-07:00,1255.1,878.0,1001.3,953.4,997.9,978.2,1990.5,1545.0,3468.6,3464.9,1545.9,1132.2,1657.7,3471.0,1849.8,1416.7,3474.6,3478.3,1577.7,2095.7,2695.2,3492.9,1833.3,3481.9,3478.3,3478.3,645.7,864.6,1803.2,1114.7,1052.2,1017.6,-12.0,-14.0,-15.0,7873.0,-7330.0,9038.0,-8428.0,-23.0,63.0,15.0,-11.0,-2.0,10.0,9421.0,-12473.0,-3913.0,2967.0,-23.0,2.0,19.0,1.0
2022-05-23 14:49:46.373561-07:00,1248.0,878.0,1001.3,953.4,992.7,981.6,1974.6,1545.0,3467.4,3464.9,1545.9,1132.2,1659.6,3472.2,1836.2,1416.7,3474.6,3471.0,1587.1,2084.6,2695.2,3492.9,1833.3,3488.0,3478.3,3481.9,656.2,875.5,1803.2,1114.7,1052.2,1015.1,3.0,5.0,-21.0,7870.0,-7327.0,9053.0,-8418.0,-47.0,-22.0,-1.0,-6.0,5.0,3.0,9415.0,-12478.0,-3909.0,2970.0,-56.0,8.0,9.0,1.0
2022-05-23 14:49:46.433670-07:00,1248.0,894.1,1008.2,952.6,992.7,981.6,1965.7,1541.3,3467.4,3462.5,1545.9,1143.6,1659.6,3472.2,1826.5,1404.9,3474.6,3473.4,1587.1,2084.6,2693.0,3488.0,1832.3,3488.0,3467.4,3471.0,656.2,875.5,1794.5,1105.1,1054.8,1015.1,-1.0,11.0,-13.0,7857.0,-7332.0,9065.0,-8412.0,-15.0,53.0,-14.0,-2.0,0.0,12.0,9404.0,-12486.0,-3911.0,2967.0,-36.0,-9.0,1.0,1.0
2022-05-23 14:49:46.464147-07:00,1251.5,878.0,1008.2,952.6,996.2,969.6,1965.7,1541.3,3467.4,3464.9,1545.9,1143.6,1653.0,3464.9,1826.5,1404.9,3474.6,3473.4,1573.9,2092.6,2693.0,3488.0,1828.4,3481.9,3467.4,3471.0,649.7,870.5,1794.5,1105.1,1053.9,1006.5,-12.0,-12.0,-21.0,7847.0,-7334.0,9069.0,-8416.0,38.0,-30.0,-7.0,-2.0,-8.0,20.0,9401.0,-12488.0,-3910.0,2968.0,12.0,2.0,15.0,1.0
2022-05-23 14:49:46.523561-07:00,1251.5,878.0,997.0,956.8,996.2,969.6,1978.6,1529.2,3467.4,3464.9,1546.9,1133.1,1653.0,3464.9,1826.5,1400.3,3467.4,3478.3,1573.9,2092.6,2685.3,3490.5,1828.4,3481.9,3473.4,3469.8,649.7,870.5,1794.5,1100.8,1053.9,1006.5,-1.0,0.0,-18.0,7865.0,-7333.0,9047.0,-8424.0,69.0,8.0,-16.0,-8.0,1.0,4.0,9409.0,-12480.0,-3910.0,2977.0,30.0,-21.0,-3.0,1.0
2022-05-23 14:49:46.583662-07:00,1271.2,875.5,997.0,956.8,993.6,974.8,1978.6,1529.2,3466.1,3466.1,1546.9,1133.1,1655.8,3458.9,1826.5,1400.3,3467.4,3478.3,1573.9,2095.7,2685.3,3490.5,1821.6,3484.4,3473.4,3469.8,647.3,868.8,1794.5,1100.8,1047.8,1008.2,-9.0,-2.0,-1.0,7865.0,-7324.0,9051.0,-8426.0,10.0,23.0,29.0,-5.0,-11.0,17.0,9412.0,-12476.0,-3910.0,2983.0,18.0,0.0,7.0,1.0
2022-05-23 14:49:46.613636-07:00,1271.2,875.5,989.3,953.4,993.6,974.8,1964.7,1541.3,3466.1,3466.1,1537.6,1134.9,1655.8,3458.9,1823.6,1396.7,3478.3,3474.6,1573.9,2095.7,2687.5,3492.9,1821.6,3484.4,3473.4,3464.9,647.3,868.8,1817.8,1092.9,1047.8,1008.2,4.0,-7.0,-4.0,7860.0,-7315.0,9063.0,-8426.0,-33.0,45.0,5.0,-6.0,3.0,1.0,9408.0,-12480.0,-3909.0,2983.0,-37.0,7.0,7.0,1.0
2022-05-23 14:49:46.703737-07:00,1258.7,892.4,1003.9,953.4,991.9,975.6,1964.7,1541.3,3472.2,3473.4,1533.8,1134.9,1656.8,3475.9,1823.6,1396.7,3478.3,3474.6,1576.8,2090.6,2687.5,3492.9,1834.3,3489.2,3473.4,3464.9,655.4,867.1,1817.8,1106.0,1054.8,999.6,-2.0,-10.0,-9.0,7836.0,-7277.0,9097.0,-8445.0,20.0,176.0,65.0,1.0,-3.0,19.0,9410.0,-12479.0,-3904.0,2987.0,25.0,-5.0,19.0,1.0
2022-05-23 14:49:46.733744-07:00,1258.7,892.4,1003.9,952.6,991.9,971.3,1975.6,1527.3,3472.2,3473.4,1533.8,1129.6,1656.8,3464.9,1811.0,1404.9,3462.5,3466.1,1580.5,2090.6,2693.0,3492.9,1834.3,3489.2,3480.7,3466.1,653.0,867.1,1804.2,1106.0,1054.8,999.6,-6.0,8.0,-9.0,7811.0,-7195.0,9152.0,-8479.0,36.0,284.0,112.0,0.0,2.0,14.0,9421.0,-12472.0,-3894.0,2997.0,15.0,2.0,24.0,1.0
2022-05-23 14:49:46.763736-07:00,1250.6,878.0,998.7,952.6,997.0,971.3,1975.6,1527.3,3467.4,3455.2,1534.8,1129.6,1651.1,3464.9,1811.0,1404.9,3462.5,3466.1,1580.5,2085.6,2693.0,3486.8,1821.6,3494.1,3480.7,3466.1,653.0,872.1,1804.2,1097.3,1048.7,1000.5,-23.0,31.0,-43.0,7776.0,-7137.0,9204.0,-8504.0,-4.0,112.0,-3.0,-7.0,5.0,15.0,9420.0,-12477.0,-3880.0,2995.0,-47.0,37.0,16.0,1.0
2022-05-23 14:49:46.823584-07:00,1250.6,878.0,998.7,947.5,997.0,975.6,1952.9,1530.1,3467.4,3455.2,1534.8,1128.7,1651.1,3467.4,1818.7,1392.1,3472.2,3473.4,1573.0,2085.6,2687.5,3486.8,1821.6,3494.1,3478.3,3475.9,653.8,872.1,1809.0,1097.3,1048.7,1000.5,-32.0,4.0,-70.0,7759.0,-7170.0,9198.0,-8499.0,-42.0,-135.0,-81.0,-10.0,0.0,1.0,9404.0,-12493.0,-3877.0,2984.0,-39.0,6.0,-15.0,1.0
2022-05-23 14:49:46.883658-07:00,1247.1,884.8,998.7,947.5,994.5,975.6,1952.9,1530.1,3488.0,3466.1,1535.7,1128.7,1658.7,3467.4,1818.7,1392.1,3472.2,3473.4,1573.0,2074.5,2687.5,3486.8,1820.7,3494.1,3478.3,3475.9,653.8,864.6,1809.0,1099.9,1048.7,1002.2,-4.0,-18.0,-22.0,7777.0,-7232.0,9150.0,-8480.0,-4.0,-163.0,-82.0,-12.0,-3.0,-2.0,9397.0,-12493.0,-3893.0,2983.0,31.0,-45.0,-45.0,1.0
2022-05-23 14:49:46.913650-07:00,1247.1,884.8,998.7,962.8,994.5,972.2,1973.7,1540.3,3488.0,3466.1,1535.7,1129.6,1658.7,3467.4,1812.9,1396.7,3478.3,3468.6,1578.6,2074.5,2676.6,3486.8,1820.7,3494.1,3471.0,3469.8,649.7,864.6,1809.0,1099.9,1048.7,1002.2,0.0,-12.0,5.0,7805.0,-7273.0,9103.0,-8471.0,35.0,-144.0,-42.0,-8.0,-4.0,13.0,9406.0,-12478.0,-3912.0,2993.0,41.0,-35.0,-20.0,1.0
2022-05-23 14:49:46.973582-07:00,1256.9,871.3,997.0,972.2,997.0,972.2,1973.7,1540.3,3466.1,3471.0,1532.0,1135.7,1657.7,3467.4,1812.9,1396.7,3478.3,3468.6,1578.6,2083.6,2695.2,3494.1,1824.6,3488.0,3471.0,3469.8,649.7,867.1,1807.1,1098.2,1042.6,993.6,-12.0,-2.0,11.0,7821.0,-7282.0,9080.0,-8473.0,-18.0,25.0,6.0,1.0,-4.0,32.0,9418.0,-12465.0,-3918.0,3001.0,-20.0,3.0,5.0,1.0
2022-05-23 14:49:47.033632-07:00,1256.9,871.3,997.0,972.2,990.2,970.5,1965.7,1530.1,3466.1,3471.0,1532.0,1135.7,1661.5,3473.4,1811.9,1401.2,3475.9,3472.2,1574.9,2084.6,2695.2,3494.1,1824.6,3488.0,3475.9,3479.5,648.9,863.7,1807.1,1098.2,1042.6,993.6,1.0,-3.0,-8.0,7809.0,-7281.0,9095.0,-8469.0,-42.0,38.0,1.0,-5.0,0.0,1.0,9414.0,-12471.0,-3910.0,2999.0,-49.0,28.0,24.0,1.0
2022-05-23 14:49:47.093621-07:00,1245.3,883.9,999.6,945.8,990.2,970.5,1965.7,1530.1,3471.0,3472.2,1532.0,1136.6,1661.5,3473.4,1811.9,1401.2,3475.9,3472.2,1574.9,2084.6,2674.4,3488.0,1825.5,3485.6,3475.9,3479.5,648.9,863.7,1803.2,1093.8,1047.8,999.6,11.0,-13.0,-18.0,7787.0,-7269.0,9117.0,-8476.0,-7.0,100.0,16.0,-2.0,-3.0,-7.0,9405.0,-12482.0,-3901.0,2996.0,5.0,6.0,20.0,1.0
2022-05-23 14:49:47.123591-07:00,1245.3,883.9,999.6,945.8,991.0,964.5,1960.8,1517.1,3471.0,3472.2,1532.0,1136.6,1653.0,3466.1,1820.7,1397.6,3479.5,3474.6,1579.6,2081.6,2674.4,3488.0,1825.5,3485.6,3479.5,3475.9,653.8,861.2,1803.2,1093.8,1047.8,999.6,-22.0,-3.0,-31.0,7760.0,-7236.0,9153.0,-8490.0,-38.0,98.0,36.0,1.0,-5.0,19.0,9404.0,-12485.0,-3891.0,2998.0,-38.0,16.0,28.0,1.0
2022-05-23 14:49:47.213592-07:00,1237.3,885.6,992.7,961.1,991.0,964.5,1960.8,1517.1,3466.1,3464.9,1528.3,1124.4,1653.0,3466.1,1820.7,1397.6,3479.5,3474.6,1579.6,2081.6,2660.2,3486.8,1821.6,3477.1,3479.5,3475.9,653.8,861.2,1796.5,1092.9,1049.6,998.7,7.0,1.0,-30.0,7751.0,-7236.0,9178.0,-8472.0,-33.0,-6.0,13.0,-5.0,6.0,-10.0,9394.0,-12496.0,-3881.0,2995.0,-18.0,8.0,4.0,1.0
2022-05-23 14:49:47.214798-07:00,1239.9,885.6,992.7,961.1,997.0,956.8,1956.8,1521.8,3472.2,3464.9,1528.3,1124.4,1657.7,3467.4,1807.1,1399.4,3477.1,3474.6,1574.9,2075.5,2660.2,3486.8,1821.6,3485.6,3477.1,3471.0,648.1,859.5,1796.5,1092.9,1049.6,998.7,-21.0,1.0,-20.0,7740.0,-7235.0,9190.0,-8469.0,18.0,27.0,9.0,-8.0,0.0,17.0,9397.0,-12494.0,-3880.0,2997.0,30.0,0.0,-10.0,1.0
2022-05-23 14:49:47.303916-07:00,1239.9,878.9,1002.2,944.9,997.0,956.8,1956.8,1530.1,3472.2,3471.0,1523.6,1133.1,1657.7,3467.4,1807.1,1401.2,3472.2,3474.6,1574.9,2075.5,2673.3,3492.9,1827.5,3485.6,3477.1,3471.0,648.1,859.5,1790.7,1085.1,1045.2,998.7,-1.0,6.0,-13.0,7750.0,-7231.0,9186.0,-8467.0,26.0,-31.0,-6.0,-5.0,4.0,5.0,9409.0,-12485.0,-3880.0,2998.0,14.0,-2.0,-15.0,1.0
2022-05-23 14:49:47.305300-07:00,1253.3,878.9,1002.2,944.9,996.2,970.5,1959.8,1530.1,3467.4,3471.0,1523.6,1133.1,1658.7,3471.0,1801.3,1401.2,3472.2,3472.2,1579.6,2066.5,2673.3,3492.9,1827.5,3490.5,3477.1,3477.1,651.4,852.8,1790.7,1085.1,1045.2,986.7,-8.0,-7.0,-14.0,7747.0,-7237.0,9188.0,-8463.0,-8.0,-3.0,-8.0,-3.0,-6.0,9.0,9405.0,-12487.0,-3882.0,2996.0,-9.0,-2.0,0.0,1.0
2022-05-23 14:49:47.363662-07:00,1253.3,866.3,998.7,962.0,996.2,970.5,1959.8,1518.0,3467.4,3462.5,1528.3,1127.9,1658.7,3471.0,1801.3,1391.2,3478.3,3472.2,1579.6,2066.5,2674.4,3495.3,1820.7,3490.5,3469.8,3477.1,651.4,852.8,1796.5,1096.4,1039.2,986.7,-7.0,-4.0,-19.0,7746.0,-7238.0,9193.0,-8458.0,-16.0,-10.0,-2.0,-5.0,-1.0,8.0,9403.0,-12489.0,-3883.0,2996.0,-20.0,9.0,8.0,1.0
2022-05-23 14:49:47.453758-07:00,1233.7,866.3,998.7,962.0,1001.3,966.2,1958.8,1518.0,3477.1,3462.5,1528.3,1127.9,1654.9,3467.4,1799.4,1391.2,3478.3,3478.3,1559.9,2074.5,2674.4,3495.3,1820.7,3494.1,3469.8,3477.1,648.1,861.2,1796.5,1096.4,1039.2,988.5,1.0,-8.0,-16.0,7745.0,-7244.0,9195.0,-8452.0,3.0,3.0,-1.0,0.0,-3.0,4.0,9400.0,-12492.0,-3882.0,2994.0,-1.0,0.0,6.0,1.0
2022-05-23 14:49:47.455246-07:00,1233.7,868.8,992.7,960.2,1001.3,966.2,1958.8,1531.0,3477.1,3474.6,1524.5,1128.7,1654.9,3467.4,1797.4,1395.7,3479.5,3475.9,1559.9,2074.5,2670.0,3497.8,1811.0,3494.1,3475.9,3478.3,648.1,861.2,1799.4,1090.3,1043.5,988.5,-5.0,8.0,-20.0,7746.0,-7241.0,9197.0,-8452.0,15.0,-17.0,7.0,-3.0,6.0,5.0,9401.0,-12490.0,-3883.0,2997.0,11.0,-12.0,3.0,1.0
2022-05-23 14:49:47.513519-07:00,1226.6,872.1,992.7,960.2,1002.2,961.1,1958.8,1531.0,3467.4,3478.3,1524.5,1128.7,1645.4,3466.1,1797.4,1395.7,3479.5,3475.9,1568.3,2075.5,2670.0,3497.8,1809.0,3483.2,3475.9,3478.3,647.3,852.8,1799.4,1090.3,1049.6,974.8,0.0,-1.0,-14.0,7746.0,-7252.0,9198.0,-8441.0,-18.0,-28.0,-13.0,-3.0,1.0,3.0,9397.0,-12492.0,-3887.0,2997.0,-9.0,-4.0,-15.0,1.0
2022-05-23 14:49:47.574181-07:00,1226.6,872.1,999.6,953.4,1002.2,961.1,1941.0,1508.8,3467.4,3478.3,1520.8,1130.5,1645.4,3466.1,1789.7,1394.8,3478.3,3464.9,1568.3,2075.5,2675.5,3496.6,1809.0,3483.2,3472.2,3467.4,647.3,852.8,1794.5,1092.9,1049.6,974.8,-11.0,0.0,-12.0,7742.0,-7265.0,9191.0,-8441.0,-11.0,-31.0,-54.0,-7.0,-2.0,11.0,9398.0,-12489.0,-3897.0,2990.0,-24.0,-3.0,-36.0,1.0
2022-05-23 14:49:47.603677-07:00,1242.6,875.5,999.6,953.4,991.0,962.0,1941.0,1508.8,3464.9,3469.8,1520.8,1130.5,1647.3,3473.4,1789.7,1394.8,3478.3,3464.9,1574.9,2091.6,2675.5,3496.6,1811.9,3489.2,3472.2,3467.4,644.9,857.9,1794.5,1092.9,1041.8,991.0,-10.0,-12.0,-11.0,7738.0,-7290.0,9179.0,-8435.0,-18.0,-47.0,-42.0,-10.0,-1.0,9.0,9394.0,-12490.0,-3909.0,2983.0,-11.0,-6.0,-27.0,1.0
2022-05-23 14:49:47.663912-07:00,1242.6,875.5,1001.3,942.4,991.0,962.0,1949.9,1528.3,3464.9,3469.8,1521.8,1128.7,1647.3,3473.4,1785.8,1405.8,3467.4,3467.4,1574.9,2091.6,2684.3,3491.7,1811.9,3489.2,3471.0,3474.6,644.9,857.9,1799.4,1091.2,1041.8,991.0,-20.0,-8.0,-21.0,7734.0,-7314.0,9175.0,-8422.0,-56.0,-48.0,-31.0,-8.0,-9.0,6.0,9391.0,-12492.0,-3912.0,2981.0,-32.0,-7.0,-1.0,1.0
2022-05-23 14:49:47.723546-07:00,1247.1,873.0,1001.3,942.4,991.9,959.4,1949.9,1528.3,3466.1,3467.4,1521.8,1128.7,1652.0,3473.4,1785.8,1405.8,3467.4,3467.4,1572.1,2080.6,2684.3,3491.7,1808.1,3485.6,3471.0,3474.6,639.2,858.7,1799.4,1091.2,1042.6,987.6,1.0,8.0,-13.0,7741.0,-7331.0,9178.0,-8400.0,0.0,-29.0,25.0,4.0,0.0,3.0,9393.0,-12489.0,-3910.0,2988.0,39.0,-20.0,12.0,1.0
2022-05-23 14:49:47.754087-07:00,1247.1,873.0,994.5,948.3,991.9,966.2,1962.8,1507.8,3466.1,3467.4,1521.8,1134.9,1652.0,3473.4,1784.9,1399.4,3474.6,3473.4,1570.2,2080.6,2673.3,3499.0,1808.1,3485.6,3464.9,3478.3,645.7,858.7,1803.2,1098.2,1042.6,987.6,-3.0,1.0,-7.0,7745.0,-7339.0,9175.0,-8391.0,-25.0,-31.0,-11.0,2.0,2.0,12.0,9398.0,-12485.0,-3911.0,2992.0,-16.0,-4.0,-2.0,1.0
2022-05-23 14:49:47.813674-07:00,1242.6,891.5,1003.9,948.3,991.0,966.2,1962.8,1507.8,3462.5,3467.4,1519.0,1134.9,1649.2,3473.4,1784.9,1399.4,3474.6,3473.4,1570.2,2076.5,2673.3,3491.7,1803.2,3486.8,3464.9,3478.3,645.7,853.7,1803.2,1086.8,1033.2,981.6,8.0,16.0,-10.0,7751.0,-7345.0,9166.0,-8390.0,42.0,-22.0,-10.0,0.0,-5.0,9.0,9399.0,-12484.0,-3911.0,2992.0,26.0,9.0,-6.0,1.0
2022-05-23 14:49:47.874150-07:00,1242.6,891.5,1003.9,946.6,991.0,956.8,1931.1,1508.8,3462.5,3467.4,1519.0,1133.1,1649.2,3467.4,1771.4,1434.1,3474.6,3478.3,1575.8,2076.5,2676.6,3491.7,1803.2,3486.8,3478.3,3462.5,646.5,853.7,1800.3,1086.8,1033.2,981.6,-9.0,-7.0,-12.0,7743.0,-7357.0,9161.0,-8393.0,-37.0,7.0,-42.0,0.0,-1.0,14.0,9394.0,-12487.0,-3919.0,2985.0,-40.0,7.0,-26.0,1.0
2022-05-23 14:49:47.903835-07:00,1242.6,867.9,1003.0,946.6,996.2,956.8,1931.1,1508.8,3466.1,3461.3,1510.6,1133.1,1652.0,3467.4,1771.4,1434.1,3474.6,3478.3,1575.8,2081.6,2676.6,3497.8,1811.0,3481.9,3478.3,3462.5,646.5,851.1,1800.3,1084.2,1037.5,1007.3,41.0,-35.0,-1.0,7729.0,-7366.0,9162.0,-8397.0,11.0,52.0,-32.0,-2.0,2.0,0.0,9392.0,-12490.0,-3923.0,2974.0,28.0,34.0,-20.0,1.0
2022-05-23 14:49:47.963618-07:00,1242.6,867.9,1003.0,947.5,996.2,968.8,1927.2,1506.9,3466.1,3461.3,1510.6,1130.5,1652.0,3468.6,1794.5,1443.3,3469.8,3478.3,1573.0,2081.6,2678.8,3497.8,1811.0,3481.9,3471.0,3475.9,647.3,851.1,1795.5,1084.2,1037.5,1007.3,-106.0,17.0,-139.0,7549.0,-7319.0,9341.0,-8404.0,-722.0,789.0,149.0,3.0,11.0,94.0,9394.0,-12499.0,-3917.0,2936.0,-217.0,125.0,-50.0,1.0
2022-05-23 14:49:48.023576-07:00,1245.3,863.7,1001.3,950.9,1001.3,968.8,1927.2,1506.9,3467.4,3463.7,1743.5,1142.7,1647.3,3468.6,1794.5,1443.3,3469.8,3478.3,1573.0,2084.6,2667.8,3488.0,1960.8,3490.5,3471.0,3475.9,647.3,874.7,1799.4,1083.4,1033.2,1225.7,-33.0,50.0,-228.0,7413.0,-7613.0,9488.0,-8094.0,-1808.0,-1267.0,-291.0,-109.0,65.0,-148.0,9148.0,-12700.0,-3960.0,2788.0,-1326.0,121.0,-76.0,1.0
2022-05-23 14:49:48.084046-07:00,1245.3,863.7,1001.3,950.9,994.5,980.7,1969.7,1560.9,3467.4,3463.7,1743.5,1142.7,1647.3,3462.5,1869.3,1455.2,3468.6,3478.3,1566.5,2078.5,2667.8,3488.0,1960.8,3490.5,3471.0,3475.9,666.0,985.9,1799.4,1083.4,1033.2,1225.7,-81.0,58.0,-89.0,7414.0,-7827.0,9347.0,-8052.0,98.0,200.0,-161.0,-40.0,191.0,40.0,8985.0,-12815.0,-4019.0,2710.0,-100.0,-55.0,-140.0,1.0
2022-05-23 14:49:48.114078-07:00,1252.4,878.0,1009.9,960.2,994.5,980.7,1969.7,1560.9,3469.8,3466.1,1506.0,1025.4,1647.3,3462.5,1869.3,1455.2,3468.6,3478.3,1566.5,2078.5,2656.9,3489.2,2152.4,3488.0,3471.0,3475.9,666.0,985.9,1795.5,1084.2,1031.4,1103.4,6.0,-24.0,32.0,7316.0,-7894.0,9634.0,-7732.0,-1180.0,-61.0,681.0,24.0,-28.0,36.0,8726.0,-12988.0,-4084.0,2630.0,-818.0,-3.0,20.0,1.0
2022-05-23 14:49:48.173570-07:00,1252.4,878.0,1009.9,960.2,997.9,968.8,1983.6,1557.1,3469.8,3466.1,1506.0,1025.4,1627.5,3460.1,1650.2,1390.3,3469.8,3473.4,1576.8,2082.6,2656.9,3489.2,2152.4,3488.0,3474.6,3473.4,676.6,967.9,1795.5,1084.2,1031.4,1103.4,34.0,10.0,39.0,7251.0,-7912.0,9869.0,-7474.0,-281.0,130.0,189.0,29.0,-12.0,27.0,8538.0,-13119.0,-4106.0,2563.0,-315.0,46.0,1.0,1.0
2022-05-23 14:49:48.203333-07:00,1269.4,916.9,993.6,956.0,997.9,968.8,1983.6,1557.1,3469.8,3468.6,1354.0,987.6,1627.5,3460.1,1650.2,1390.3,3469.8,3473.4,1576.8,2082.6,2651.5,3486.8,2123.0,3488.0,3474.6,3473.4,676.6,967.9,1797.4,1077.3,1028.0,1072.1,-38.0,-29.0,-47.0,7222.0,-7891.0,9950.0,-7417.0,-315.0,4.0,238.0,-21.0,-2.0,-7.0,8473.0,-13169.0,-4106.0,2521.0,-204.0,56.0,18.0,1.0
2022-05-23 14:49:48.263697-07:00,1269.4,916.9,993.6,956.0,985.9,956.0,1971.7,1534.8,3469.8,3468.6,1354.0,987.6,1607.7,3463.7,1547.8,1353.1,3462.5,3479.5,1568.3,2084.6,2651.5,3486.8,2123.0,3488.0,3479.5,3480.7,681.5,937.3,1797.4,1077.3,1028.0,1072.1,-30.0,39.0,-25.0,7231.0,-7850.0,10070.0,-7289.0,-73.0,24.0,304.0,-5.0,-15.0,10.0,8428.0,-13200.0,-4109.0,2508.0,-16.0,-19.0,1.0,1.0
2022-05-23 14:49:48.323576-07:00,1267.6,900.0,995.3,962.8,985.9,956.0,1971.7,1505.1,3466.1,3481.9,1324.1,979.9,1607.7,3463.7,1547.8,1324.1,3468.6,3479.5,1568.3,2084.6,2646.0,3497.8,2093.7,3490.5,3472.2,3480.7,681.5,937.3,1790.7,1074.7,1029.7,1062.5,-18.0,22.0,-46.0,7251.0,-7865.0,10099.0,-7213.0,-167.0,-160.0,15.0,-27.0,5.0,-13.0,8393.0,-13219.0,-4119.0,2506.0,-136.0,-20.0,-19.0,1.0
2022-05-23 14:49:48.383844-07:00,1264.0,900.0,995.3,962.8,1000.5,941.5,1983.6,1505.1,3469.8,3481.9,1324.1,979.9,1601.1,3464.9,1520.8,1324.1,3468.6,3471.0,1580.5,2087.6,2646.0,3497.8,2093.7,3488.0,3472.2,3467.4,677.4,938.1,1790.7,1074.7,1029.7,1050.4,-11.0,-43.0,49.0,7236.0,-7909.0,10146.0,-7112.0,-200.0,7.0,132.0,-14.0,-16.0,12.0,8336.0,-13251.0,-4140.0,2497.0,-89.0,-15.0,-11.0,1.0
2022-05-23 14:49:48.413573-07:00,1264.0,900.8,997.0,952.6,1000.5,941.5,1983.6,1468.1,3469.8,3467.4,1320.5,978.2,1601.1,3464.9,1520.8,1317.8,3467.4,3471.0,1580.5,2087.6,2638.4,3491.7,2083.6,3488.0,3469.8,3467.4,677.4,938.1,1786.8,1072.9,1024.5,1050.4,-13.0,10.0,-11.0,7254.0,-7863.0,10192.0,-7080.0,-72.0,-18.0,178.0,-4.0,0.0,2.0,8344.0,-13246.0,-4134.0,2501.0,-41.0,17.0,27.0,1.0
2022-05-23 14:49:48.473528-07:00,1257.8,900.8,997.0,952.6,994.5,934.7,1962.8,1468.1,3464.9,3467.4,1320.5,978.2,1598.3,3463.7,1494.9,1317.8,3467.4,3475.9,1579.6,2086.6,2638.4,3491.7,2083.6,3490.5,3469.8,3472.2,676.6,933.0,1786.8,1072.9,1024.5,1043.5,28.0,27.0,2.0,7246.0,-7850.0,10245.0,-7025.0,14.0,56.0,62.0,13.0,-2.0,6.0,8312.0,-13270.0,-4128.0,2491.0,21.0,10.0,7.0,1.0
2022-05-23 14:49:48.503770-07:00,1257.8,918.6,996.2,967.1,994.5,934.7,1962.8,1447.9,3464.9,3474.6,1303.4,969.6,1598.3,3463.7,1494.9,1316.0,3474.6,3475.9,1579.6,2086.6,2633.0,3488.0,2070.5,3490.5,3473.4,3472.2,676.6,933.0,1791.6,1077.3,1021.1,1043.5,16.0,-20.0,-17.0,7228.0,-7873.0,10251.0,-7010.0,-153.0,-96.0,-47.0,13.0,-11.0,-3.0,8299.0,-13279.0,-4133.0,2479.0,-132.0,9.0,-9.0,1.0
2022-05-23 14:49:48.564190-07:00,1262.2,894.9,996.2,967.1,991.9,933.0,1946.9,1447.9,3464.9,3472.2,1303.4,969.6,1603.0,3457.6,1482.9,1316.0,3474.6,3477.1,1573.9,2088.6,2633.0,3488.0,2066.5,3484.4,3473.4,3473.4,671.7,908.4,1791.6,1077.3,1017.6,1046.1,-5.0,17.0,-6.0,7236.0,-7885.0,10243.0,-6999.0,43.0,-19.0,3.0,2.0,0.0,13.0,8288.0,-13285.0,-4139.0,2475.0,32.0,-14.0,-12.0,1.0
2022-05-23 14:49:48.654589-07:00,1262.2,894.9,992.7,947.5,991.9,933.0,1898.7,1425.0,3464.9,3472.2,1301.6,963.7,1603.0,3457.6,1478.3,1307.0,3467.4,3466.1,1573.9,2088.6,2648.2,3497.8,2066.5,3484.4,3475.9,3467.4,671.7,908.4,1794.5,1069.5,1017.6,1046.1,-27.0,-20.0,7.0,7239.0,-7898.0,10231.0,-6999.0,36.0,-25.0,-66.0,-14.0,-21.0,22.0,8293.0,-13279.0,-4144.0,2481.0,19.0,-2.0,8.0,1.0
2022-05-23 14:49:48.655935-07:00,1267.6,896.6,992.7,947.5,993.6,918.6,1898.7,1425.0,3463.7,3464.9,1301.6,963.7,1608.7,3472.2,1478.3,1307.0,3467.4,3466.1,1573.9,2085.6,2648.2,3497.8,2045.4,3467.4,3475.9,3467.4,670.1,919.4,1794.5,1069.5,1026.3,1040.9,-23.0,-16.0,0.0,7245.0,-7893.0,10227.0,-7004.0,-68.0,32.0,43.0,-26.0,-10.0,0.0,8300.0,-13276.0,-4134.0,2492.0,-60.0,-5.0,31.0,1.0
2022-05-23 14:49:48.713653-07:00,1267.6,896.6,1002.2,956.8,993.6,918.6,1900.7,1419.5,3463.7,3464.9,1306.1,966.2,1608.7,3472.2,1463.5,1302.5,3467.4,3467.4,1573.9,2085.6,2640.6,3486.8,2045.4,3467.4,3468.6,3467.4,670.1,919.4,1799.4,1072.9,1026.3,1040.9,-12.0,18.0,-12.0,7241.0,-7863.0,10249.0,-7009.0,48.0,77.0,12.0,-9.0,0.0,4.0,8292.0,-13284.0,-4117.0,2502.0,13.0,20.0,40.0,1.0
2022-05-23 14:49:48.773537-07:00,1253.3,888.2,1002.2,956.8,1001.3,922.0,1900.7,1419.5,3473.4,3471.0,1306.1,966.2,1588.9,3474.6,1463.5,1302.5,3467.4,3467.4,1578.6,2085.6,2640.6,3486.8,2046.4,3484.4,3468.6,3467.4,661.1,913.5,1799.4,1072.9,1021.1,1034.0,24.0,0.0,0.0,7218.0,-7858.0,10245.0,-7044.0,45.0,69.0,-81.0,11.0,0.0,1.0,8287.0,-13293.0,-4102.0,2499.0,-1.0,15.0,19.0,1.0
2022-05-23 14:49:48.803661-07:00,1253.3,888.2,997.0,952.6,1001.3,911.0,1881.1,1390.3,3473.4,3471.0,1285.5,952.6,1588.9,3471.0,1458.9,1302.5,3479.5,3468.6,1571.1,2085.6,2623.2,3494.1,2046.4,3484.4,3472.2,3469.8,662.7,913.5,1798.4,1070.3,1021.1,1034.0,4.0,-4.0,-20.0,7198.0,-7840.0,10216.0,-7126.0,151.0,92.0,-107.0,9.0,0.0,2.0,8304.0,-13284.0,-4095.0,2498.0,49.0,23.0,-5.0,1.0
2022-05-23 14:49:48.863625-07:00,1257.8,885.6,990.2,952.6,987.6,911.0,1881.1,1390.3,3472.2,3468.6,1274.7,952.6,1591.7,3471.0,1458.9,1302.5,3479.5,3468.6,1571.1,2087.6,2623.2,3497.8,2043.4,3494.1,3472.2,3469.8,662.7,908.4,1798.4,1065.1,1021.9,1027.1,-4.0,-12.0,-20.0,7172.0,-7834.0,10208.0,-7171.0,21.0,101.0,-42.0,7.0,-7.0,3.0,8307.0,-13284.0,-4096.0,2486.0,-18.0,16.0,-24.0,1.0
2022-05-23 14:49:48.923646-07:00,1257.8,885.6,990.2,954.3,987.6,910.1,1891.8,1403.0,3472.2,3468.6,1274.7,956.0,1591.7,3471.0,1458.0,1298.1,3478.3,3468.6,1559.0,2087.6,2633.0,3497.8,2043.4,3494.1,3481.9,3467.4,665.2,908.4,1792.6,1065.1,1021.9,1027.1,-29.0,3.0,-16.0,7158.0,-7809.0,10229.0,-7183.0,18.0,59.0,66.0,-8.0,-16.0,17.0,8313.0,-13280.0,-4100.0,2484.0,30.0,-1.0,-6.0,1.0
2022-05-23 14:49:49.013599-07:00,1270.3,891.5,1003.9,954.3,997.0,910.1,1891.8,1403.0,3466.1,3467.4,1269.4,956.0,1583.3,3471.0,1458.0,1298.1,3478.3,3468.6,1559.0,2084.6,2633.0,3495.3,2045.4,3496.6,3481.9,3467.4,665.2,912.7,1792.6,1069.5,1016.8,1023.7,-25.0,5.0,-24.0,7161.0,-7809.0,10223.0,-7188.0,7.0,6.0,-57.0,-21.0,0.0,2.0,8316.0,-13278.0,-4098.0,2488.0,-16.0,-5.0,-5.0,1.0
2022-05-23 14:49:49.015347-07:00,1270.3,891.5,1003.9,962.0,997.0,912.7,1885.0,1399.4,3466.1,3467.4,1269.4,957.7,1583.3,3464.9,1446.0,1292.7,3469.8,3464.9,1569.3,2084.6,2639.5,3495.3,2045.4,3496.6,3474.6,3472.2,663.6,912.7,1818.7,1069.5,1016.8,1023.7,-29.0,-17.0,-11.0,7150.0,-7824.0,10227.0,-7177.0,-43.0,-6.0,-7.0,-16.0,-18.0,7.0,8301.0,-13285.0,-4100.0,2493.0,-36.0,-25.0,9.0,1.0
2022-05-23 14:49:49.073593-07:00,1254.2,888.2,992.7,962.0,992.7,912.7,1885.0,1399.4,3464.9,3462.5,1268.5,957.7,1581.4,3464.9,1446.0,1292.7,3469.8,3464.9,1569.3,2087.6,2639.5,3499.0,2028.4,3494.1,3474.6,3472.2,663.6,905.0,1818.7,1083.4,1019.4,1021.9,10.0,25.0,4.0,7157.0,-7831.0,10211.0,-7185.0,98.0,-18.0,-97.0,3.0,1.0,5.0,8308.0,-13280.0,-4094.0,2510.0,69.0,-12.0,11.0,1.0
2022-05-23 14:49:49.103940-07:00,1254.2,888.2,992.7,952.6,991.0,911.0,1867.4,1419.5,3464.9,3462.5,1268.5,944.9,1578.6,3468.6,1437.8,1284.6,3479.5,3473.4,1565.5,2070.5,2628.6,3499.0,2028.4,3494.1,3477.1,3477.1,663.6,905.9,1791.6,1083.4,1019.4,1021.9,-7.0,-36.0,-9.0,7143.0,-7859.0,10165.0,-7233.0,-79.0,16.0,-108.0,7.0,-19.0,18.0,8315.0,-13273.0,-4102.0,2510.0,-74.0,-17.0,-39.0,1.0
2022-05-23 14:49:49.163649-07:00,1267.6,882.3,997.0,951.7,991.0,911.0,1867.4,1419.5,3478.3,3478.3,1267.6,949.2,1578.6,3468.6,1437.8,1284.6,3479.5,3473.4,1565.5,2070.5,2623.2,3485.6,2035.4,3490.5,3477.1,3477.1,663.6,905.9,1796.5,1062.5,1018.5,1024.5,17.0,-3.0,7.0,7127.0,-7862.0,10180.0,-7224.0,62.0,65.0,45.0,17.0,-5.0,8.0,8303.0,-13279.0,-4109.0,2505.0,46.0,7.0,0.0,1.0
2022-05-23 14:49:49.223623-07:00,1267.6,882.3,997.0,951.7,995.3,911.8,1866.4,1413.1,3478.3,3478.3,1267.6,949.2,1578.6,3467.4,1436.0,1285.5,3467.4,3478.3,1567.4,2083.6,2623.2,3485.6,2035.4,3490.5,3481.9,3464.9,653.8,905.9,1796.5,1062.5,1018.5,1024.5,3.0,11.0,-19.0,7125.0,-7836.0,10176.0,-7261.0,42.0,51.0,-50.0,6.0,5.0,0.0,8323.0,-13269.0,-4104.0,2502.0,-2.0,17.0,-6.0,1.0
2022-05-23 14:49:49.253823-07:00,1257.8,889.8,1007.3,948.3,995.3,911.8,1866.4,1413.1,3467.4,3471.0,1262.2,950.0,1578.6,3467.4,1436.0,1285.5,3467.4,3478.3,1567.4,2083.6,2630.8,3490.5,2014.4,3488.0,3481.9,3464.9,653.8,905.9,1799.4,1069.5,1013.3,1028.0,-18.0,-27.0,-14.0,7105.0,-7848.0,10173.0,-7272.0,5.0,24.0,-38.0,-15.0,-14.0,1.0,8313.0,-13275.0,-4106.0,2496.0,-20.0,5.0,-7.0,1.0
2022-05-23 14:49:49.314214-07:00,1257.8,889.8,1007.3,948.3,991.9,911.0,1865.4,1397.6,3467.4,3471.0,1262.2,950.0,1590.8,3447.9,1434.1,1289.1,3480.7,3475.9,1568.3,2063.5,2630.8,3490.5,2014.4,3488.0,3471.0,3475.9,657.9,893.2,1799.4,1069.5,1013.3,1028.0,-26.0,8.0,-13.0,7105.0,-7830.0,10179.0,-7282.0,41.0,36.0,27.0,-17.0,-3.0,5.0,8319.0,-13272.0,-4102.0,2503.0,19.0,-13.0,18.0,1.0
2022-05-23 14:49:49.373545-07:00,1255.1,881.4,1004.8,950.9,991.9,911.0,1865.4,1363.9,3464.9,3469.8,1261.3,949.2,1590.8,3447.9,1434.1,1282.8,3472.2,3475.9,1568.3,2063.5,2622.1,3492.9,2016.4,3485.6,3472.2,3475.9,657.9,893.2,1786.8,1061.7,1009.9,1021.9,-14.0,5.0,-6.0,7100.0,-7810.0,10206.0,-7271.0,-27.0,41.0,49.0,-15.0,-7.0,0.0,8308.0,-13280.0,-4093.0,2512.0,-23.0,-6.0,33.0,1.0
2022-05-23 14:49:49.404721-07:00,1245.3,881.4,1004.8,950.9,990.2,902.5,1852.8,1363.9,3468.6,3469.8,1261.3,949.2,1579.6,3471.0,1425.9,1282.8,3472.2,3478.3,1573.0,2069.5,2622.1,3492.9,2016.4,3479.5,3472.2,3472.2,660.3,899.1,1786.8,1061.7,1009.9,1015.9,-6.0,20.0,-15.0,7096.0,-7788.0,10216.0,-7284.0,44.0,40.0,-13.0,0.0,-1.0,9.0,8313.0,-13279.0,-4081.0,2521.0,20.0,9.0,25.0,1.0
2022-05-23 14:49:49.493621-07:00,1245.3,879.7,1016.8,944.9,990.2,902.5,1852.8,1371.2,3468.6,3463.7,1257.8,950.9,1579.6,3471.0,1425.9,1281.0,3475.9,3478.3,1573.0,2069.5,2619.9,3488.0,2009.4,3479.5,3472.2,3472.2,660.3,899.1,1795.5,1069.5,1009.9,1015.9,15.0,-13.0,-16.0,7084.0,-7799.0,10216.0,-7284.0,-51.0,29.0,7.0,13.0,4.0,-3.0,8304.0,-13284.0,-4081.0,2519.0,-49.0,-1.0,-2.0,1.0
2022-05-23 14:49:49.523627-07:00,1260.4,879.7,1016.8,944.9,985.0,909.3,1865.4,1371.2,3463.7,3463.7,1257.8,950.9,1574.9,3466.1,1425.0,1281.0,3475.9,3472.2,1565.5,2063.5,2619.9,3488.0,2009.4,3488.0,3472.2,3473.4,664.4,902.5,1795.5,1069.5,1009.9,1035.7,10.0,18.0,-15.0,7079.0,-7737.0,10240.0,-7321.0,187.0,174.0,94.0,21.0,-8.0,22.0,8331.0,-13267.0,-4079.0,2523.0,151.0,4.0,-2.0,1.0
2022-05-23 14:49:49.553791-07:00,1260.4,881.4,1004.8,961.1,985.0,909.3,1865.4,1374.8,3463.7,3471.0,1242.6,944.9,1574.9,3466.1,1425.0,1284.6,3472.2,3472.2,1565.5,2063.5,2613.4,3481.9,2014.4,3488.0,3478.3,3473.4,664.4,902.5,1782.9,1063.4,1007.3,1035.7,-3.0,1.0,-13.0,7088.0,-7706.0,10230.0,-7359.0,-19.0,19.0,-50.0,-4.0,9.0,2.0,8358.0,-13250.0,-4077.0,2527.0,-49.0,4.0,-18.0,1.0
2022-05-23 14:49:49.613511-07:00,1248.8,881.4,1004.8,961.1,1002.2,891.5,1856.7,1374.8,3467.4,3471.0,1242.6,944.9,1573.0,3462.5,1419.5,1284.6,3472.2,3473.4,1557.1,2101.7,2613.4,3481.9,2014.4,3480.7,3478.3,3469.8,656.2,895.7,1782.9,1063.4,1007.3,1017.6,-25.0,-12.0,-21.0,7067.0,-7703.0,10246.0,-7359.0,20.0,54.0,49.0,-20.0,-14.0,8.0,8343.0,-13260.0,-4080.0,2524.0,8.0,-9.0,12.0,1.0
2022-05-23 14:49:49.673645-07:00,1248.8,881.4,1009.0,952.6,1002.2,891.5,1843.0,1363.9,3467.4,3471.0,1250.6,952.6,1573.0,3462.5,1400.3,1283.7,3475.9,3478.3,1557.1,2101.7,2617.8,3496.6,1999.5,3480.7,3480.7,3473.4,656.2,895.7,1788.7,1061.7,1010.8,1017.6,-16.0,16.0,-25.0,7079.0,-7688.0,10256.0,-7351.0,-24.0,-42.0,19.0,-17.0,-2.0,1.0,8345.0,-13260.0,-4068.0,2536.0,-10.0,-14.0,29.0,1.0
2022-05-23 14:49:49.704190-07:00,1252.4,873.8,1009.0,952.6,988.5,911.0,1843.0,1363.9,3467.4,3464.9,1250.6,952.6,1576.8,3464.9,1400.3,1283.7,3475.9,3478.3,1575.8,2071.5,2617.8,3496.6,1998.5,3488.0,3480.7,3473.4,661.9,880.6,1788.7,1061.7,1007.3,1019.4,-10.0,-6.0,-12.0,7086.0,-7712.0,10247.0,-7332.0,5.0,-40.0,-35.0,-9.0,-3.0,-1.0,8337.0,-13264.0,-4066.0,2544.0,-4.0,-13.0,4.0,1.0
2022-05-23 14:49:49.763619-07:00,1252.4,873.8,1009.9,960.2,988.5,911.0,1818.7,1360.3,3467.4,3464.9,1249.7,949.2,1576.8,3464.9,1399.4,1275.6,3467.4,3474.6,1575.8,2071.5,2622.1,3486.8,1998.5,3488.0,3462.5,3467.4,661.9,880.6,1793.6,1062.5,1007.3,1019.4,9.0,8.0,-8.0,7098.0,-7711.0,10233.0,-7341.0,50.0,-5.0,-10.0,7.0,-1.0,10.0,8349.0,-13255.0,-4066.0,2551.0,26.0,0.0,-6.0,1.0
2022-05-23 14:49:49.793604-07:00,1244.4,888.2,1009.9,960.2,994.5,895.7,1818.7,1360.3,3464.9,3481.9,1249.7,949.2,1568.3,3468.6,1399.4,1275.6,3467.4,3474.6,1565.5,2071.5,2622.1,3486.8,1999.5,3483.2,3462.5,3467.4,661.9,875.5,1793.6,1062.5,1015.1,1009.0,16.0,1.0,-1.0,7092.0,-7717.0,10226.0,-7350.0,6.0,18.0,-34.0,19.0,-4.0,11.0,8353.0,-13252.0,-4071.0,2545.0,-1.0,12.0,-16.0,1.0
2022-05-23 14:49:49.869874-07:00,1244.4,888.2,1010.8,950.9,994.5,895.7,1845.0,1363.9,3464.9,3481.9,1242.6,932.2,1568.3,3468.6,1393.0,1272.1,3460.1,3480.7,1565.5,2071.5,2625.4,3496.6,1999.5,3483.2,3467.4,3471.0,661.9,875.5,1789.7,1063.4,1015.1,1009.0,2.0,-2.0,-9.0,7080.0,-7717.0,10218.0,-7372.0,44.0,45.0,-39.0,14.0,-6.0,8.0,8362.0,-13247.0,-4075.0,2537.0,27.0,10.0,-17.0,1.0
2022-05-23 14:49:49.914268-07:00,1239.1,887.3,1007.3,950.9,991.9,891.5,1845.0,1363.9,3468.6,3467.4,1239.9,932.2,1574.9,3469.8,1393.0,1272.1,3460.1,3480.7,1558.1,2070.5,2625.4,3486.8,1987.5,3479.5,3467.4,3471.0,660.3,870.5,1789.7,1062.5,1018.5,1007.3,-17.0,6.0,-43.0,7078.0,-7720.0,10197.0,-7400.0,80.0,11.0,-64.0,-9.0,-2.0,4.0,8378.0,-13236.0,-4077.0,2536.0,35.0,-5.0,-9.0,1.0
2022-05-23 14:49:49.973603-07:00,1239.1,887.3,1007.3,940.7,991.9,890.7,1834.3,1361.2,3468.6,3467.4,1239.9,952.6,1574.9,3471.0,1395.7,1271.2,3471.0,3462.5,1567.4,2070.5,2616.7,3486.8,1987.5,3479.5,3474.6,3484.4,663.6,870.5,1773.3,1062.5,1018.5,1007.3,-24.0,-2.0,-6.0,7076.0,-7726.0,10185.0,-7412.0,31.0,18.0,-22.0,-20.0,-5.0,-5.0,8379.0,-13233.0,-4078.0,2545.0,1.0,-20.0,-2.0,1.0
2022-05-23 14:49:50.003716-07:00,1246.2,878.0,1006.5,940.7,992.7,890.7,1834.3,1361.2,3468.6,3457.6,1232.8,952.6,1569.3,3471.0,1395.7,1271.2,3471.0,3462.5,1567.4,2068.5,2616.7,3491.7,1985.6,3490.5,3474.6,3484.4,663.6,872.1,1773.3,1058.2,1009.9,1011.6,-22.0,7.0,-14.0,7072.0,-7698.0,10206.0,-7416.0,7.0,68.0,46.0,-18.0,-3.0,4.0,8377.0,-13233.0,-4077.0,2556.0,-5.0,-8.0,16.0,1.0
2022-05-23 14:49:50.093761-07:00,1246.2,878.0,1006.5,962.8,992.7,889.0,1839.1,1349.4,3468.6,3457.6,1232.8,944.1,1569.3,3458.9,1393.9,1270.3,3473.4,3467.4,1568.3,2068.5,2617.8,3491.7,1985.6,3490.5,3473.4,3462.5,660.3,872.1,1793.6,1058.2,1009.9,1011.6,-13.0,-5.0,-8.0,7067.0,-7674.0,10226.0,-7418.0,5.0,39.0,43.0,-1.0,-8.0,13.0,8376.0,-13235.0,-4069.0,2561.0,4.0,12.0,21.0,1.0
2022-05-23 14:49:50.094944-07:00,1247.1,871.3,1022.8,962.8,987.6,889.0,1839.1,1349.4,3473.4,3471.0,1232.8,944.1,1573.0,3458.9,1393.9,1270.3,3473.4,3467.4,1568.3,2060.5,2617.8,3499.0,1983.6,3488.0,3473.4,3462.5,660.3,870.5,1793.6,1061.7,1002.2,1007.3,14.0,36.0,0.0,7050.0,-7673.0,10239.0,-7418.0,-106.0,68.0,-43.0,17.0,7.0,0.0,8365.0,-13245.0,-4065.0,2553.0,-121.0,20.0,-6.0,1.0
2022-05-23 14:49:50.153709-07:00,1247.1,871.3,1022.8,962.0,987.6,893.2,1815.8,1353.1,3473.4,3471.0,1232.8,943.2,1573.0,3467.4,1383.9,1267.6,3473.4,3473.4,1562.7,2060.5,2617.8,3499.0,1983.6,3488.0,3475.9,3468.6,651.4,870.5,1793.6,1061.7,1002.2,1007.3,28.0,-11.0,-1.0,7044.0,-7686.0,10251.0,-7393.0,16.0,-3.0,57.0,19.0,-2.0,0.0,8356.0,-13252.0,-4067.0,2543.0,57.0,-3.0,-11.0,1.0
2022-05-23 14:49:50.213563-07:00,1232.8,867.9,1010.8,958.5,986.7,893.2,1815.8,1353.1,3464.9,3466.1,1235.5,937.3,1567.4,3467.4,1383.9,1267.6,3473.4,3473.4,1562.7,2067.5,2613.4,3486.8,1983.6,3485.6,3475.9,3468.6,651.4,862.9,1793.6,1059.1,1007.3,1007.3,12.0,17.0,-10.0,7050.0,-7693.0,10243.0,-7391.0,-14.0,-33.0,-64.0,3.0,-2.0,6.0,8365.0,-13244.0,-4076.0,2539.0,-19.0,-15.0,-33.0,1.0
2022-05-23 14:49:50.303702-07:00,1232.8,867.9,1010.8,958.5,988.5,873.8,1816.8,1360.3,3464.9,3466.1,1235.5,937.3,1551.5,3464.9,1384.8,1272.1,3471.0,3473.4,1563.7,2046.4,2613.4,3486.8,1983.6,3485.6,3475.9,3467.4,652.2,851.1,1793.6,1059.1,1007.3,1007.3,-24.0,-15.0,-7.0,7048.0,-7719.0,10223.0,-7394.0,-13.0,-36.0,-37.0,-21.0,-12.0,2.0,8359.0,-13244.0,-4088.0,2539.0,-9.0,-12.0,-5.0,1.0
2022-05-23 14:49:50.305653-07:00,1246.2,868.8,1016.8,973.1,988.5,873.8,1816.8,1360.3,3464.9,3467.4,1237.3,938.1,1551.5,3464.9,1384.8,1272.1,3471.0,3473.4,1563.7,2046.4,2624.3,3492.9,1978.6,3481.9,3475.9,3467.4,652.2,851.1,1782.9,1061.7,1010.8,1013.3,-31.0,5.0,-17.0,7055.0,-7716.0,10226.0,-7386.0,-7.0,-15.0,12.0,-23.0,-5.0,7.0,8360.0,-13242.0,-4085.0,2552.0,-11.0,-11.0,17.0,1.0
2022-05-23 14:49:50.363538-07:00,1246.2,868.8,1016.8,973.1,997.9,888.2,1830.4,1341.3,3464.9,3467.4,1237.3,938.1,1565.5,3464.9,1375.7,1267.6,3480.7,3469.8,1559.9,2061.5,2624.3,3492.9,1978.6,3481.9,3469.8,3471.0,648.9,863.7,1782.9,1061.7,1010.8,1013.3,-5.0,0.0,-12.0,7051.0,-7726.0,10232.0,-7370.0,-27.0,-15.0,-20.0,-5.0,0.0,0.0,8353.0,-13247.0,-4078.0,2558.0,-2.0,-3.0,13.0,1.0
2022-05-23 14:49:50.393720-07:00,1251.5,873.8,1013.3,960.2,997.9,888.2,1830.4,1341.3,3474.6,3463.7,1239.1,940.7,1565.5,3464.9,1375.7,1267.6,3480.7,3469.8,1559.9,2061.5,2606.9,3489.2,1977.6,3491.7,3469.8,3471.0,648.9,863.7,1790.7,1066.9,1005.6,1011.6,7.0,-2.0,-7.0,7051.0,-7730.0,10227.0,-7374.0,26.0,13.0,-11.0,10.0,-2.0,5.0,8358.0,-13244.0,-4076.0,2560.0,13.0,-2.0,-5.0,1.0
2022-05-23 14:49:50.453603-07:00,1246.2,873.8,1013.3,960.2,989.3,879.7,1804.2,1337.7,3473.4,3463.7,1239.1,940.7,1569.3,3468.6,1385.7,1261.3,3475.9,3469.8,1559.0,2038.4,2606.9,3489.2,1977.6,3481.9,3477.1,3467.4,653.8,874.7,1790.7,1066.9,1005.6,1011.6,21.0,21.0,-4.0,7052.0,-7739.0,10215.0,-7380.0,7.0,-22.0,-49.0,17.0,9.0,3.0,8366.0,-13238.0,-4080.0,2558.0,-6.0,-5.0,-30.0,1.0
2022-05-23 14:49:50.573606-07:00,1246.2,865.4,1017.6,964.5,989.3,879.7,1804.2,1351.2,3473.4,3472.2,1241.7,941.5,1569.3,3468.6,1385.7,1256.9,3475.9,3469.8,1559.0,2038.4,2614.5,3489.2,1977.6,3481.9,3468.6,3467.4,653.8,874.7,1781.0,1054.8,1009.9,1011.6,9.0,4.0,-6.0,7047.0,-7763.0,10197.0,-7384.0,24.0,-58.0,-67.0,12.0,0.0,9.0,8372.0,-13233.0,-4093.0,2549.0,18.0,-9.0,-32.0,1.0
2022-05-23 14:49:50.634711-07:00,1248.8,865.4,1017.6,964.5,991.0,892.4,1811.0,1351.2,3467.4,3472.2,1241.7,941.5,1559.0,3479.5,1393.9,1256.9,3475.9,3473.4,1558.1,2051.4,2614.5,3489.2,1977.6,3497.8,3468.6,3483.2,659.5,891.5,1781.0,1054.8,1009.9,1009.0,-11.0,-16.0,-7.0,7042.0,-7793.0,10176.0,-7387.0,-12.0,-36.0,-57.0,-5.0,-13.0,7.0,8370.0,-13231.0,-4105.0,2542.0,-14.0,-7.0,-21.0,1.0
2022-05-23 14:49:50.636404-07:00,1248.8,870.5,1015.1,965.4,991.0,892.4,1811.0,1350.3,3467.4,3466.1,1248.0,946.6,1559.0,3479.5,1393.9,1272.1,3467.4,3473.4,1558.1,2051.4,2609.1,3491.7,1976.6,3497.8,3468.6,3483.2,659.5,891.5,1791.6,1048.7,1009.0,1009.0,-20.0,3.0,-20.0,7051.0,-7800.0,10164.0,-7387.0,5.0,-25.0,-9.0,-20.0,-3.0,0.0,8375.0,-13226.0,-4106.0,2551.0,14.0,-20.0,4.0,1.0
2022-05-23 14:49:50.663550-07:00,1246.2,870.5,1015.1,965.4,981.6,882.3,1818.7,1350.3,3456.4,3466.1,1248.0,946.6,1564.6,3471.0,1386.6,1272.1,3467.4,3467.4,1561.8,2054.4,2609.1,3491.7,1976.6,3491.7,3468.6,3478.3,657.9,903.4,1791.6,1048.7,1009.0,1007.3,-21.0,7.0,-11.0,7059.0,-7800.0,10164.0,-7380.0,31.0,-19.0,3.0,-12.0,-6.0,7.0,8379.0,-13222.0,-4103.0,2564.0,41.0,-13.0,17.0,1.0
2022-05-23 14:49:50.693693-07:00,1246.2,862.9,1015.9,972.2,981.6,882.3,1829.4,1350.3,3456.4,3471.0,1255.1,942.4,1564.6,3471.0,1397.6,1274.7,3471.0,3475.9,1561.8,2054.4,2603.7,3494.1,1964.7,3491.7,3475.9,3469.8,657.9,903.4,1809.0,1053.9,1008.2,1007.3,-15.0,5.0,-1.0,7071.0,-7810.0,10146.0,-7382.0,39.0,-74.0,-80.0,3.0,-15.0,12.0,8395.0,-13213.0,-4094.0,2575.0,53.0,-7.0,12.0,1.0
2022-05-23 14:49:50.753731-07:00,1249.7,875.5,1015.9,972.2,991.0,889.0,1829.4,1350.3,3473.4,3467.4,1255.1,942.4,1559.0,3467.4,1397.6,1274.7,3471.0,3475.9,1561.8,2063.5,2603.7,3494.1,1977.6,3492.9,3475.9,3469.8,654.6,927.1,1809.0,1053.9,1008.2,1006.5,13.0,-13.0,-55.0,7119.0,-7836.0,10067.0,-7417.0,297.0,-210.0,-81.0,-8.0,48.0,-50.0,8473.0,-13160.0,-4083.0,2604.0,341.0,-45.0,-16.0,1.0
2022-05-23 14:49:50.843575-07:00,1249.7,875.5,1039.2,979.0,991.0,889.0,1887.9,1387.5,3473.4,3467.4,1355.8,986.7,1559.0,3467.4,1411.3,1282.8,3471.0,3475.9,1561.8,2063.5,2613.4,3494.1,1977.6,3492.9,3469.8,3480.7,654.6,927.1,1788.7,1057.3,1008.2,1006.5,24.0,-26.0,48.0,7172.0,-7800.0,10068.0,-7403.0,-50.0,48.0,180.0,28.0,-29.0,29.0,8510.0,-13126.0,-4099.0,2630.0,93.0,-44.0,-17.0,1.0
2022-05-23 14:49:50.844788-07:00,1254.2,863.7,1039.2,979.0,990.2,882.3,1887.9,1387.5,3467.4,3475.9,1355.8,986.7,1565.5,3477.1,1411.3,1282.8,3471.0,3475.9,1571.1,2064.5,2613.4,3494.1,1949.9,3481.9,3469.8,3480.7,653.0,926.2,1788.7,1057.3,1007.3,1005.6,7.0,52.0,8.0,7183.0,-7746.0,10070.0,-7445.0,72.0,73.0,-69.0,3.0,4.0,7.0,8540.0,-13108.0,-4091.0,2634.0,-51.0,39.0,-9.0,1.0
2022-05-23 14:49:50.904085-07:00,1254.2,863.7,1043.5,985.9,990.2,882.3,1859.6,1383.9,3467.4,3475.9,1329.6,974.8,1565.5,3477.1,1416.7,1285.5,3471.0,3473.4,1571.1,2064.5,2622.1,3491.7,1949.9,3481.9,3473.4,3467.4,653.0,926.2,1793.6,1055.6,1007.3,1005.6,-18.0,-50.0,22.0,7122.0,-7758.0,10091.0,-7463.0,-46.0,160.0,-17.0,-12.0,-31.0,3.0,8507.0,-13135.0,-4091.0,2610.0,-10.0,29.0,0.0,1.0
2022-05-23 14:49:50.963601-07:00,1239.1,869.6,1043.5,985.9,997.0,883.9,1859.6,1383.9,3468.6,3469.8,1329.6,974.8,1560.9,3478.3,1416.7,1285.5,3471.0,3473.4,1565.5,2051.4,2622.1,3491.7,1936.1,3489.2,3473.4,3467.4,646.5,917.7,1793.6,1055.6,1007.3,1010.8,-34.0,-3.0,13.0,7106.0,-7673.0,10129.0,-7514.0,203.0,260.0,129.0,-16.0,-24.0,20.0,8559.0,-13103.0,-4067.0,2633.0,255.0,5.0,41.0,1.0
2022-05-23 14:49:50.993720-07:00,1239.1,869.6,1034.9,977.3,997.0,923.7,1876.2,1380.3,3468.6,3469.8,1354.9,978.2,1560.9,3478.3,1623.7,1298.1,3477.1,3466.1,1562.7,2051.4,2619.9,3497.8,1936.1,3489.2,3483.2,3462.5,648.1,917.7,1782.0,1056.5,1007.3,1010.8,-48.0,123.0,-44.0,7128.0,-7546.0,10101.0,-7658.0,330.0,242.0,-83.0,-13.0,7.0,-20.0,8693.0,-13015.0,-4033.0,2686.0,358.0,-34.0,-12.0,1.0
2022-05-23 14:49:51.053783-07:00,1236.4,866.3,1029.7,977.3,986.7,923.7,1876.2,1380.3,3471.0,3478.3,1614.3,978.2,1569.3,3478.3,1623.7,1298.1,3477.1,3466.1,1562.7,2057.4,2619.9,3492.9,1979.6,3492.9,3483.2,3462.5,648.1,929.6,1782.0,1063.4,1006.5,997.0,126.0,-326.0,109.0,7085.0,-7630.0,9947.0,-7816.0,748.0,134.0,-552.0,19.0,-78.0,24.0,8795.0,-12927.0,-4042.0,2765.0,557.0,-216.0,19.0,1.0
2022-05-23 14:49:51.113527-07:00,1236.4,866.3,1029.7,974.8,986.7,1003.0,1994.5,1559.0,3471.0,3478.3,1614.3,975.6,1569.3,3473.4,1960.8,1481.0,3471.0,3468.6,1584.2,2057.4,2615.6,3492.9,1979.6,3492.9,3468.6,3471.0,652.2,929.6,1785.8,1063.4,1006.5,997.0,-15.0,139.0,-82.0,7363.0,-7374.0,9585.0,-8245.0,1143.0,-315.0,42.0,7.0,69.0,36.0,9129.0,-12675.0,-3975.0,2941.0,720.0,-81.0,85.0,1.0
2022-05-23 14:49:51.144001-07:00,1247.1,875.5,1019.4,974.8,987.6,1003.0,1994.5,1559.0,3469.8,3466.1,1557.1,975.6,1703.3,3473.4,1960.8,1481.0,3471.0,3468.6,1584.2,2078.5,2615.6,3485.6,1949.9,3485.6,3468.6,3471.0,652.2,932.2,1785.8,1059.9,1009.9,1009.0,3.0,-7.0,-39.0,7409.0,-7445.0,9486.0,-8255.0,-197.0,-157.0,-285.0,-9.0,-31.0,42.0,9159.0,-12648.0,-3966.0,2976.0,-37.0,-15.0,21.0,1.0
2022-05-23 14:49:51.203813-07:00,1247.1,875.5,1019.4,957.7,987.6,1007.3,2027.4,1621.8,3469.8,3466.1,1557.1,968.8,1703.3,3466.1,1899.7,1492.1,3478.3,3473.4,1569.3,2078.5,2636.2,3485.6,1949.9,3485.6,3472.2,3467.4,657.0,932.2,1782.0,1059.9,1009.9,1009.0,4.0,33.0,-49.0,7469.0,-7554.0,9322.0,-8288.0,334.0,-451.0,-301.0,-8.0,22.0,6.0,9190.0,-12628.0,-3953.0,2980.0,35.0,22.0,-1.0,1.0
2022-05-23 14:49:51.293606-07:00,1238.2,877.2,1009.9,958.5,988.5,1007.3,2027.4,1621.8,3478.3,3462.5,1536.6,972.2,1570.2,3466.1,1899.7,1492.1,3478.3,3473.4,1569.3,2102.7,2664.6,3486.8,1912.4,3495.3,3472.2,3467.4,657.0,901.7,1780.1,1059.1,1011.6,1040.9,7.0,-14.0,2.0,7532.0,-7658.0,9152.0,-8325.0,60.0,-165.0,-207.0,-18.0,11.0,-12.0,9156.0,-12647.0,-3975.0,2973.0,-114.0,-56.0,-43.0,1.0
2022-05-23 14:49:51.294883-07:00,1238.2,877.2,1009.9,958.5,995.3,992.7,2014.4,1595.5,3478.3,3462.5,1536.6,972.2,1757.9,3468.6,1886.9,1430.5,3473.4,3477.1,1571.1,2119.9,2664.6,3486.8,1912.4,3495.3,3468.6,3474.6,648.9,885.6,1780.1,1059.1,1011.6,1040.9,-44.0,-29.0,-8.0,7522.0,-7694.0,9139.0,-8315.0,-10.0,-91.0,-12.0,5.0,-13.0,32.0,9143.0,-12653.0,-3985.0,2976.0,29.0,11.0,20.0,1.0
2022-05-23 14:49:51.354508-07:00,1239.9,870.5,1010.8,955.1,995.3,992.7,2014.4,1595.5,3468.6,3467.4,1527.3,976.5,1757.9,3468.6,1886.9,1430.5,3473.4,3477.1,1571.1,2119.9,2661.3,3486.8,1886.0,3488.0,3468.6,3474.6,648.9,885.6,1787.8,1048.7,993.6,1061.7,25.0,-26.0,-2.0,7521.0,-7739.0,9134.0,-8280.0,-68.0,-60.0,-42.0,-2.0,1.0,-17.0,9122.0,-12672.0,-3983.0,2964.0,-39.0,18.0,2.0,1.0
2022-05-23 14:49:51.413514-07:00,1239.9,870.5,1010.8,955.1,985.0,992.7,1993.5,1565.5,3468.6,3467.4,1527.3,976.5,1585.2,3468.6,1865.4,1404.9,3473.4,3468.6,1570.2,2108.8,2661.3,3486.8,1886.0,3488.0,3467.4,3475.9,631.9,865.4,1787.8,1048.7,993.6,1061.7,-10.0,8.0,-23.0,7530.0,-7718.0,9100.0,-8327.0,179.0,14.0,-69.0,12.0,-4.0,22.0,9140.0,-12661.0,-3977.0,2966.0,36.0,0.0,-9.0,1.0
2022-05-23 14:49:51.444168-07:00,1235.5,871.3,1009.9,960.2,985.0,992.7,1993.5,1565.5,3468.6,3473.4,1530.1,973.9,1585.2,3468.6,1865.4,1404.9,3473.4,3468.6,1570.2,2108.8,2650.4,3494.1,1869.3,3491.7,3467.4,3475.9,631.9,865.4,1782.0,1056.5,1008.2,1053.0,19.0,14.0,-32.0,7543.0,-7753.0,9059.0,-8328.0,-39.0,-125.0,-72.0,15.0,8.0,-9.0,9128.0,-12667.0,-3987.0,2959.0,-61.0,-20.0,-29.0,1.0
2022-05-23 14:49:51.503641-07:00,1235.5,871.3,1009.9,960.2,996.2,1001.3,1988.5,1561.8,3468.6,3473.4,1530.1,973.9,1653.0,3464.9,1855.7,1393.9,3467.4,3483.2,1555.3,2104.8,2650.4,3494.1,1869.3,3491.7,3477.1,3471.0,650.5,868.8,1782.0,1056.5,1008.2,1053.0,-8.0,-12.0,-15.0,7541.0,-7787.0,9028.0,-8332.0,62.0,-56.0,-77.0,1.0,-6.0,24.0,9128.0,-12662.0,-4004.0,2959.0,29.0,-22.0,-24.0,1.0
2022-05-23 14:49:51.563613-07:00,1238.2,858.7,1005.6,957.7,996.2,1001.3,1988.5,1546.9,3467.4,3462.5,1510.6,966.2,1653.0,3464.9,1855.7,1384.8,3469.8,3483.2,1555.3,2104.8,2653.7,3497.8,1845.9,3484.4,3469.8,3471.0,650.5,868.8,1785.8,1070.3,998.7,1033.2,-5.0,-8.0,-14.0,7554.0,-7820.0,9001.0,-8318.0,-34.0,-95.0,-42.0,-10.0,0.0,3.0,9123.0,-12663.0,-4010.0,2959.0,-38.0,0.0,-5.0,1.0
2022-05-23 14:49:51.594321-07:00,1235.5,858.7,1005.6,957.7,984.2,980.7,1976.6,1546.9,3474.6,3462.5,1510.6,966.2,1701.4,3472.2,1840.1,1384.8,3469.8,3463.7,1567.4,2115.9,2653.7,3497.8,1845.9,3495.3,3469.8,3467.4,641.6,864.6,1785.8,1070.3,998.7,1038.3,-25.0,-13.0,-14.0,7558.0,-7839.0,8996.0,-8302.0,15.0,-46.0,-12.0,-11.0,-4.0,7.0,9121.0,-12666.0,-4007.0,2960.0,-4.0,10.0,12.0,1.0
2022-05-23 14:49:51.654206-07:00,1235.5,852.8,1009.0,952.6,984.2,980.7,1976.6,1554.3,3474.6,3477.1,1506.9,967.9,1701.4,3472.2,1840.1,1387.5,3478.3,3463.7,1567.4,2115.9,2628.6,3491.7,1842.0,3495.3,3473.4,3467.4,641.6,864.6,1787.8,1059.1,999.6,1038.3,-9.0,-2.0,-16.0,7558.0,-7845.0,8998.0,-8295.0,-21.0,11.0,10.0,1.0,4.0,6.0,9113.0,-12672.0,-4005.0,2959.0,-46.0,12.0,11.0,1.0
2022-05-23 14:49:51.713818-07:00,1239.1,852.8,1009.0,952.6,990.2,974.8,1959.8,1554.3,3464.9,3477.1,1506.9,967.9,1622.8,3466.1,1827.5,1387.5,3478.3,3479.5,1558.1,2110.8,2628.6,3491.7,1842.0,3488.0,3473.4,3479.5,647.3,853.7,1787.8,1059.1,999.6,1029.7,11.0,4.0,-15.0,7554.0,-7846.0,9006.0,-8289.0,-7.0,15.0,-6.0,11.0,0.0,8.0,9102.0,-12682.0,-4004.0,2953.0,-20.0,12.0,-3.0,1.0
2022-05-23 14:49:51.743695-07:00,1239.1,843.6,1001.3,962.8,990.2,974.8,1959.8,1519.9,3464.9,3478.3,1503.2,966.2,1622.8,3466.1,1827.5,1383.9,3474.6,3479.5,1558.1,2110.8,2633.0,3499.0,1838.2,3488.0,3490.5,3479.5,647.3,853.7,1781.0,1052.2,997.0,1029.7,1.0,15.0,-26.0,7547.0,-7843.0,9005.0,-8299.0,7.0,1.0,-22.0,7.0,9.0,4.0,9104.0,-12682.0,-4002.0,2948.0,-17.0,11.0,-9.0,1.0
2022-05-23 14:49:51.803663-07:00,1227.5,837.7,1001.3,962.8,982.5,985.9,1957.8,1519.9,3461.3,3468.6,1503.2,966.2,1841.1,3466.1,1825.5,1383.9,3474.6,3469.8,1567.4,2111.8,2633.0,3499.0,1828.4,3494.1,3490.5,3473.4,640.8,852.0,1781.0,1052.2,993.6,1029.7,-10.0,-13.0,-18.0,7519.0,-7860.0,9027.0,-8285.0,-88.0,21.0,-4.0,1.0,-5.0,11.0,9090.0,-12693.0,-4008.0,2940.0,-58.0,-5.0,-5.0,1.0
2022-05-23 14:49:51.863608-07:00,1227.5,837.7,998.7,958.5,982.5,985.9,1957.8,1544.1,3461.3,3468.6,1507.8,966.2,1841.1,3466.1,1835.2,1388.5,3464.9,3475.9,1567.4,2111.8,2634.1,3490.5,1828.4,3494.1,3456.4,3472.2,640.8,852.0,1776.2,1047.0,993.6,1029.7,-10.0,-6.0,-14.0,7512.0,-7854.0,9031.0,-8293.0,58.0,35.0,-23.0,-4.0,-7.0,9.0,9082.0,-12698.0,-4010.0,2938.0,12.0,-5.0,5.0,1.0
2022-05-23 14:49:51.923564-07:00,1221.3,845.3,998.7,958.5,982.5,974.8,1957.8,1544.1,3464.9,3461.3,1507.8,966.2,2851.5,3466.1,1835.2,1388.5,3464.9,3475.9,1559.0,2108.8,2634.1,3490.5,1825.5,3485.6,3456.4,3472.2,641.6,841.9,1776.2,1047.0,997.0,1040.9,-34.0,-3.0,-26.0,7503.0,-7848.0,9041.0,-8295.0,-41.0,27.0,1.0,-11.0,-5.0,22.0,9082.0,-12697.0,-4010.0,2942.0,-39.0,-12.0,10.0,1.0
2022-05-23 14:49:51.983953-07:00,1221.3,845.3,1000.5,949.2,982.5,974.8,1947.9,1534.8,3464.9,3461.3,1488.4,977.3,2851.5,3466.1,1818.7,1394.8,3472.2,3471.0,1559.0,2108.8,2640.6,3488.0,1825.5,3485.6,3471.0,3467.4,641.6,841.9,1794.5,1047.8,997.0,1040.9,-6.0,-2.0,-23.0,7507.0,-7879.0,9036.0,-8267.0,-35.0,-109.0,-37.0,-10.0,-9.0,-8.0,9069.0,-12706.0,-4010.0,2943.0,-31.0,0.0,-3.0,1.0
2022-05-23 14:49:52.013560-07:00,1218.6,842.8,1000.5,949.2,992.7,975.6,1947.9,1534.8,3468.6,3467.4,1488.4,977.3,1604.9,3462.5,1818.7,1394.8,3472.2,3471.0,1558.1,2116.9,2640.6,3488.0,1815.8,3485.6,3471.0,3467.4,639.2,847.8,1794.5,1047.8,997.0,1038.3,-5.0,4.0,-23.0,7515.0,-7903.0,9011.0,-8266.0,18.0,-70.0,-57.0,8.0,1.0,14.0,9069.0,-12704.0,-4016.0,2941.0,6.0,-4.0,-15.0,1.0
2022-05-23 14:49:52.043694-07:00,1218.6,842.8,1003.0,952.6,992.7,975.6,1942.0,1531.0,3468.6,3467.4,1493.0,973.1,1604.9,3462.5,1819.7,1397.6,3467.4,3462.5,1558.1,2116.9,2635.1,3486.8,1815.8,3485.6,3456.4,3466.1,639.2,847.8,1782.0,1041.8,997.0,1038.3,1.0,-10.0,-10.0,7518.0,-7950.0,8979.0,-8251.0,-28.0,-118.0,-87.0,8.0,-10.0,7.0,9065.0,-12707.0,-4024.0,2934.0,-49.0,4.0,-19.0,1.0
2022-05-23 14:49:52.103747-07:00,1231.9,847.8,1002.2,952.6,989.3,977.3,1942.0,1531.0,3462.5,3460.1,1487.5,973.1,1589.9,3473.4,1819.7,1397.6,3467.4,3462.5,1559.0,2115.9,2635.1,3490.5,1817.8,3491.7,3456.4,3466.1,641.6,841.9,1782.0,1053.0,993.6,1021.9,-2.0,-25.0,-1.0,7534.0,-7973.0,8929.0,-8269.0,143.0,-51.0,-66.0,-1.0,-8.0,18.0,9069.0,-12703.0,-4030.0,2930.0,63.0,-10.0,-10.0,1.0
2022-05-23 14:49:52.163618-07:00,1231.9,847.8,1002.2,954.3,989.3,963.7,1943.0,1521.8,3462.5,3460.1,1487.5,969.6,1589.9,3468.6,1816.8,1389.4,3479.5,3467.4,1561.8,2115.9,2643.9,3490.5,1817.8,3491.7,3467.4,3471.0,639.2,841.9,1796.5,1053.0,993.6,1021.9,-9.0,6.0,-21.0,7554.0,-7977.0,8907.0,-8270.0,-26.0,-37.0,9.0,-9.0,3.0,9.0,9083.0,-12692.0,-4028.0,2936.0,0.0,-10.0,8.0,1.0
