Time,P0,P1,P2,P3,P4,P5,P6,P7,P8,P9,P10,P11,P12,P13,P14,P15,P16,P17,P18,P19,P20,P21,P22,P23,P24,P25,P26,P27,P28,P29,P30,P31,ECG,AX0,AY0,AZ0,QW0,QX0,QY0,QZ0,GX0,GY0,GZ0,AX1,AY1,AZ1,QW1,QX1,QY1,QZ1,GX1,GY1,GZ1
2022-05-23 15:53:20.957878-07:00,1295.4,812.7,1041.8,955.1,915.2,951.7,1654.9,1138.4,3452.8,3460.1,1047.8,851.1,1582.4,3472.2,1213.3,1223.9,3475.9,3478.3,1610.5,2212.7,2991.7,3489.2,1579.6,3488.0,3463.7,3472.2,659.5,752.9,1864.5,1040.9,980.7,801.9,10.0,17.0,4.0,10546.0,-12174.0,2224.0,2016.0,38.0,-34.0,35.0,7.0,9.0,3.0,9464.0,-12996.0,2755.0,-1541.0,31.0,-5.0,1.0,1.0
2022-05-23 15:53:21.017740-07:00,1295.4,812.7,1040.9,957.7,915.2,951.7,1667.2,1161.2,3452.8,3460.1,1047.0,844.4,1582.4,3472.2,1212.4,1216.0,3473.4,3462.5,1610.5,2212.7,3013.4,3490.5,1579.6,3488.0,3473.4,3475.9,659.5,752.9,1864.5,1043.5,980.7,801.9,-16.0,0.0,-21.0,10558.0,-12163.0,2218.0,2029.0,72.0,-75.0,-15.0,-8.0,-9.0,13.0,9477.0,-12988.0,2749.0,-1542.0,101.0,-24.0,-20.0,1.0
2022-05-23 15:53:21.077948-07:00,1294.5,808.5,1041.8,957.7,913.5,940.7,1667.2,1161.2,3452.8,3468.6,1047.8,844.4,1582.4,3466.1,1212.4,1216.0,3473.4,3462.5,1613.4,2217.8,3013.4,3481.9,1587.1,3483.2,3473.4,3475.9,659.5,750.5,1864.5,1032.3,975.6,786.1,1.0,6.0,-21.0,10601.0,-12125.0,2164.0,2082.0,121.0,-261.0,-26.0,0.0,6.0,-12.0,9523.0,-12958.0,2730.0,-1547.0,150.0,-30.0,-28.0,1.0
2022-05-23 15:53:21.108188-07:00,1294.5,808.5,1041.8,950.9,913.5,932.2,1654.9,1167.4,3452.8,3468.6,1047.8,848.6,1582.4,3477.1,1214.2,1217.7,3464.9,3474.6,1611.5,2217.8,3006.5,3481.9,1587.1,3483.2,3478.3,3472.2,661.9,750.5,1856.7,1032.3,975.6,786.1,11.0,7.0,5.0,10641.0,-12092.0,2114.0,2127.0,78.0,-129.0,-29.0,0.0,2.0,-8.0,9564.0,-12933.0,2703.0,-1552.0,90.0,-29.0,-44.0,1.0
2022-05-23 15:53:21.198278-07:00,1299.8,792.7,1036.6,950.9,916.9,932.2,1654.9,1167.4,3473.4,3457.6,1047.8,848.6,1579.6,3477.1,1214.2,1217.7,3464.9,3474.6,1611.5,2201.4,3006.5,3491.7,1576.8,3488.0,3478.3,3472.2,661.9,753.8,1856.7,1026.3,959.4,780.3,-2.0,-11.0,4.0,10684.0,-12056.0,2076.0,2153.0,90.0,-108.0,-13.0,3.0,-15.0,7.0,9596.0,-12912.0,2681.0,-1561.0,99.0,-10.0,-27.0,1.0
2022-05-23 15:53:21.199603-07:00,1299.8,792.7,1036.6,951.7,916.9,944.1,1658.7,1155.0,3473.4,3457.6,1047.8,849.5,1579.6,3467.4,1202.7,1209.7,3475.9,3467.4,1613.4,2201.4,3023.7,3491.7,1576.8,3488.0,3471.0,3469.8,657.0,753.8,1862.5,1026.3,959.4,780.3,14.0,-9.0,18.0,10711.0,-12032.0,2055.0,2173.0,46.0,-48.0,17.0,9.0,1.0,-2.0,9629.0,-12889.0,2669.0,-1568.0,68.0,-16.0,-13.0,1.0
2022-05-23 15:53:21.257774-07:00,1291.8,801.9,1047.0,951.7,919.4,944.1,1658.7,1155.0,3472.2,3461.3,1050.4,849.5,1583.3,3467.4,1202.7,1209.7,3475.9,3467.4,1613.4,2224.0,3023.7,3490.5,1575.8,3495.3,3471.0,3469.8,657.0,755.4,1862.5,1026.3,968.8,772.8,19.0,-2.0,15.0,10722.0,-12022.0,2055.0,2173.0,-3.0,43.0,-10.0,15.0,-1.0,29.0,9638.0,-12884.0,2663.0,-1568.0,-3.0,-6.0,-7.0,1.0
2022-05-23 15:53:21.317783-07:00,1291.8,801.9,1047.0,956.8,915.2,929.6,1647.3,1155.9,3472.2,3461.3,1050.4,837.7,1582.4,3480.7,1206.2,1210.6,3474.6,3464.9,1612.4,2207.5,3006.5,3490.5,1575.8,3495.3,3469.8,3471.0,649.7,752.1,1854.7,1026.3,968.8,772.8,6.0,-7.0,16.0,10728.0,-12018.0,2062.0,2161.0,38.0,14.0,-13.0,3.0,-9.0,8.0,9649.0,-12875.0,2663.0,-1576.0,40.0,20.0,11.0,1.0
2022-05-23 15:53:21.348268-07:00,1295.4,801.9,1049.6,967.1,915.2,929.6,1647.3,1155.9,3467.4,3468.6,1046.1,843.6,1582.4,3480.7,1206.2,1210.6,3474.6,3464.9,1612.4,2207.5,3015.7,3489.2,1577.7,3486.8,3469.8,3471.0,649.7,752.1,1852.8,1028.0,973.9,773.6,-3.0,0.0,6.0,10729.0,-12017.0,2077.0,2142.0,-51.0,100.0,11.0,-6.0,-6.0,9.0,9641.0,-12878.0,2676.0,-1581.0,-65.0,38.0,15.0,1.0
2022-05-23 15:53:21.437230-07:00,1295.4,801.9,1049.6,967.1,913.5,941.5,1643.5,1148.0,3467.4,3468.6,1046.1,843.6,1581.4,3468.6,1214.2,1208.0,3472.2,3478.3,1608.7,2211.6,3015.7,3489.2,1577.7,3486.8,3473.4,3475.9,655.4,749.6,1852.8,1028.0,973.9,773.6,-5.0,6.0,3.0,10717.0,-12028.0,2105.0,2113.0,46.0,101.0,-6.0,-4.0,11.0,4.0,9635.0,-12876.0,2696.0,-1590.0,32.0,54.0,21.0,1.0
2022-05-23 15:53:21.467612-07:00,1289.1,794.4,1047.8,973.1,913.5,941.5,1643.5,1148.0,3464.9,3468.6,1044.4,843.6,1581.4,3468.6,1214.2,1208.0,3472.2,3478.3,1608.7,2211.6,3001.9,3490.5,1582.4,3485.6,3473.4,3475.9,655.4,749.6,1848.9,1023.7,969.6,785.2,-2.0,3.0,-13.0,10710.0,-12036.0,2132.0,2078.0,-92.0,102.0,-16.0,0.0,4.0,0.0,9612.0,-12889.0,2714.0,-1600.0,-120.0,42.0,-1.0,1.0
2022-05-23 15:53:21.498132-07:00,1289.1,794.4,1047.8,973.1,921.1,929.6,1667.2,1158.6,3464.9,3468.6,1044.4,843.6,1585.2,3468.6,1206.2,1208.9,3474.6,3485.6,1604.9,2208.6,3001.9,3490.5,1582.4,3485.6,3478.3,3475.9,657.0,751.3,1848.9,1023.7,969.6,785.2,5.0,-7.0,-4.0,10688.0,-12057.0,2146.0,2053.0,31.0,48.0,-19.0,5.0,-2.0,0.0,9594.0,-12899.0,2723.0,-1608.0,11.0,20.0,6.0,1.0
2022-05-23 15:53:21.558137-07:00,1295.4,807.7,1049.6,977.3,921.1,929.6,1667.2,1158.6,3463.7,3469.8,1042.6,841.9,1585.2,3468.6,1206.2,1208.9,3474.6,3485.6,1604.9,2208.6,2998.5,3492.9,1580.5,3490.5,3478.3,3475.9,657.0,751.3,1859.6,1025.4,968.8,776.1,5.0,9.0,-13.0,10699.0,-12050.0,2154.0,2031.0,14.0,37.0,-22.0,2.0,10.0,-4.0,9599.0,-12894.0,2726.0,-1614.0,2.0,11.0,-6.0,1.0
2022-05-23 15:53:21.617824-07:00,1299.8,807.7,1049.6,977.3,913.5,943.2,1657.7,1157.7,3464.9,3469.8,1042.6,841.9,1585.2,3467.4,1202.7,1208.9,3478.3,3471.0,1608.7,2211.6,2998.5,3492.9,1580.5,3489.2,3472.2,3483.2,655.4,751.3,1859.6,1025.4,968.8,771.1,-5.0,-13.0,-8.0,10695.0,-12056.0,2157.0,2015.0,-4.0,5.0,-15.0,0.0,-8.0,0.0,9593.0,-12898.0,2725.0,-1616.0,-1.0,-3.0,-7.0,1.0
2022-05-23 15:53:21.648014-07:00,1299.8,812.7,1053.9,985.0,913.5,943.2,1657.7,1153.3,3464.9,3473.4,1045.2,840.3,1585.2,3467.4,1202.7,1216.0,3478.3,3471.0,1608.7,2211.6,3015.7,3484.4,1574.9,3489.2,3467.4,3483.2,655.4,751.3,1848.9,1034.9,974.8,771.1,0.0,-5.0,-7.0,10704.0,-12048.0,2152.0,2015.0,53.0,-15.0,3.0,0.0,1.0,-1.0,9608.0,-12888.0,2720.0,-1615.0,58.0,-22.0,1.0,1.0
2022-05-23 15:53:21.707926-07:00,1289.1,812.7,1053.9,985.0,909.3,945.8,1652.0,1153.3,3462.5,3473.4,1045.2,840.3,1582.4,3468.6,1208.0,1216.0,3478.3,3478.3,1619.9,2200.4,3015.7,3484.4,1574.9,3492.9,3467.4,3474.6,649.7,753.8,1848.9,1034.9,974.8,777.8,4.0,4.0,3.0,10720.0,-12035.0,2147.0,2020.0,56.0,-46.0,-2.0,2.0,8.0,2.0,9627.0,-12876.0,2713.0,-1611.0,65.0,-20.0,-3.0,1.0
2022-05-23 15:53:21.767661-07:00,1289.1,811.0,1054.8,988.5,909.3,945.8,1652.0,1159.4,3462.5,3471.0,1046.1,841.9,1582.4,3468.6,1208.0,1209.7,3472.2,3478.3,1619.9,2200.4,3006.5,3496.6,1578.6,3492.9,3473.4,3474.6,649.7,753.8,1850.8,1038.3,979.9,777.8,6.0,0.0,8.0,10735.0,-12022.0,2140.0,2026.0,20.0,0.0,-19.0,5.0,1.0,5.0,9638.0,-12869.0,2707.0,-1611.0,14.0,-4.0,-11.0,1.0
2022-05-23 15:53:21.798109-07:00,1285.5,811.0,1054.8,988.5,915.2,935.6,1647.3,1159.4,3460.1,3471.0,1046.1,841.9,1580.5,3468.6,1203.5,1209.7,3472.2,3475.9,1620.9,2204.5,3006.5,3496.6,1578.6,3484.4,3473.4,3471.0,656.2,752.1,1850.8,1038.3,979.9,781.9,0.0,-5.0,4.0,10736.0,-12022.0,2139.0,2015.0,-17.0,23.0,-14.0,0.0,-3.0,3.0,9636.0,-12870.0,2708.0,-1612.0,-15.0,10.0,-1.0,1.0
2022-05-23 15:53:21.887390-07:00,1285.5,809.4,1056.5,978.2,915.2,935.6,1636.0,1154.2,3460.1,3474.6,1047.8,843.6,1580.5,3468.6,1205.3,1211.5,3478.3,3467.4,1620.9,2204.5,2991.7,3485.6,1588.0,3484.4,3472.2,3478.3,656.2,752.1,1845.0,1028.0,976.5,781.9,6.0,5.0,0.0,10735.0,-12025.0,2145.0,2001.0,-4.0,54.0,-11.0,2.0,5.0,2.0,9636.0,-12870.0,2709.0,-1613.0,-6.0,6.0,-4.0,1.0
2022-05-23 15:53:21.978008-07:00,1287.3,802.7,1056.5,978.2,911.0,945.8,1636.0,1154.2,3468.6,3467.4,1047.8,843.6,1581.4,3457.6,1205.3,1211.5,3478.3,3467.4,1604.0,2217.8,2991.7,3485.6,1579.6,3500.2,3472.2,3478.3,651.4,749.6,1845.0,1028.0,974.8,782.7,0.0,2.0,-6.0,10732.0,-12029.0,2152.0,1983.0,-7.0,12.0,-19.0,2.0,5.0,5.0,9633.0,-12872.0,2708.0,-1613.0,-9.0,2.0,-11.0,1.0
2022-05-23 15:53:21.979176-07:00,1287.3,802.7,1053.9,971.3,911.0,945.8,1645.4,1145.4,3468.6,3467.4,1046.1,840.3,1581.4,3457.6,1211.5,1211.5,3468.6,3471.0,1604.0,2217.8,3001.9,3495.3,1579.6,3500.2,3469.8,3478.3,651.4,749.6,1856.7,1033.2,974.8,782.7,3.0,0.0,-11.0,10733.0,-12030.0,2144.0,1979.0,18.0,-17.0,-24.0,2.0,-1.0,0.0,9631.0,-12874.0,2705.0,-1616.0,18.0,-3.0,-14.0,1.0
2022-05-23 15:53:22.008163-07:00,1284.6,813.5,1053.9,971.3,914.4,941.5,1645.4,1145.4,3457.6,3468.6,1046.1,840.3,1581.4,3472.2,1211.5,1211.5,3468.6,3471.0,1610.5,2214.7,3001.9,3495.3,1577.7,3478.3,3469.8,3478.3,652.2,752.9,1856.7,1033.2,979.0,773.6,-13.0,-5.0,-11.0,10753.0,-12016.0,2127.0,1979.0,79.0,-64.0,-37.0,-9.0,-4.0,-7.0,9651.0,-12860.0,2696.0,-1620.0,78.0,-24.0,-10.0,1.0
2022-05-23 15:53:22.067853-07:00,1284.6,813.5,1070.3,981.6,914.4,941.5,1675.7,1146.3,3457.6,3468.6,1048.7,841.9,1581.4,3472.2,1213.3,1209.7,3467.4,3471.0,1610.5,2214.7,3006.5,3490.5,1577.7,3478.3,3478.3,3467.4,652.2,752.9,1839.1,1028.0,979.0,773.6,-29.0,4.0,-25.0,10777.0,-11994.0,2093.0,2017.0,88.0,-194.0,-10.0,-34.0,2.0,-4.0,9693.0,-12834.0,2681.0,-1608.0,143.0,-66.0,-17.0,1.0
2022-05-23 15:53:22.097805-07:00,1285.5,810.2,1062.5,981.6,920.3,955.1,1675.7,1146.3,3462.5,3474.6,1045.2,841.9,1588.0,3464.9,1213.3,1209.7,3467.4,3471.0,1605.8,2211.6,3006.5,3484.4,1577.7,3485.6,3478.3,3467.4,665.2,758.7,1839.1,1037.5,986.7,784.4,15.0,20.0,18.0,10803.0,-11970.0,2057.0,2055.0,13.0,-65.0,-32.0,16.0,11.0,3.0,9734.0,-12810.0,2652.0,-1598.0,46.0,-51.0,-29.0,1.0
2022-05-23 15:53:22.157698-07:00,1285.5,810.2,1062.5,979.0,920.3,941.5,1669.1,1150.6,3462.5,3474.6,1045.2,841.9,1588.0,3466.1,1212.4,1204.4,3475.9,3478.3,1609.6,2211.6,3006.5,3484.4,1577.7,3485.6,3478.3,3475.9,654.6,758.7,1841.1,1037.5,986.7,784.4,23.0,-22.0,36.0,10779.0,-11997.0,2046.0,2037.0,-84.0,80.0,-37.0,26.0,-11.0,28.0,9704.0,-12835.0,2642.0,-1596.0,-112.0,23.0,-20.0,1.0
2022-05-23 15:53:22.217736-07:00,1295.4,806.9,1058.2,979.0,933.0,941.5,1669.1,1150.6,3468.6,3468.6,1042.6,841.9,1581.4,3466.1,1212.4,1204.4,3475.9,3478.3,1609.6,2218.8,3006.5,3491.7,1570.2,3488.0,3478.3,3475.9,654.6,752.9,1841.1,1036.6,983.3,777.8,24.0,-36.0,13.0,10755.0,-12021.0,2065.0,2000.0,-54.0,108.0,7.0,37.0,-18.0,21.0,9672.0,-12856.0,2649.0,-1613.0,-92.0,44.0,10.0,1.0
2022-05-23 15:53:22.248064-07:00,1295.4,806.9,1058.2,982.5,933.0,947.5,1656.8,1142.7,3468.6,3468.6,1042.6,845.3,1581.4,3468.6,1207.1,1216.0,3467.4,3463.7,1612.4,2218.8,3013.4,3491.7,1570.2,3488.0,3475.9,3468.6,654.6,752.9,1845.9,1036.6,983.3,777.8,19.0,-7.0,-5.0,10751.0,-12025.0,2083.0,1980.0,-9.0,52.0,30.0,16.0,0.0,4.0,9662.0,-12860.0,2656.0,-1625.0,-23.0,11.0,13.0,1.0
2022-05-23 15:53:22.307713-07:00,1287.3,808.5,1061.7,982.5,915.2,947.5,1656.8,1142.7,3469.8,3462.5,1055.6,845.3,1573.0,3468.6,1207.1,1216.0,3467.4,3463.7,1612.4,2210.6,3013.4,3497.8,1577.7,3484.4,3475.9,3468.6,654.6,758.7,1845.9,1034.0,960.2,778.6,-2.0,6.0,-20.0,10747.0,-12027.0,2093.0,1977.0,24.0,-13.0,5.0,-10.0,8.0,-8.0,9658.0,-12863.0,2657.0,-1624.0,12.0,-15.0,-3.0,1.0
2022-05-23 15:53:22.367772-07:00,1287.3,808.5,1061.7,979.9,915.2,944.9,1653.9,1141.9,3469.8,3462.5,1055.6,840.3,1573.0,3468.6,1200.9,1214.2,3480.7,3474.6,1608.7,2210.6,3006.5,3497.8,1577.7,3484.4,3475.9,3471.0,649.7,758.7,1850.8,1034.0,960.2,778.6,-23.0,8.0,-21.0,10750.0,-12021.0,2101.0,1990.0,-19.0,-38.0,48.0,-22.0,8.0,-12.0,9666.0,-12858.0,2655.0,-1616.0,-8.0,-18.0,9.0,1.0
2022-05-23 15:53:22.398113-07:00,1284.6,804.4,1060.8,987.6,914.4,944.9,1653.9,1141.9,3462.5,3455.2,1045.2,837.7,1573.9,3468.6,1200.9,1214.2,3480.7,3474.6,1608.7,2200.4,3009.9,3491.7,1572.1,3488.0,3475.9,3471.0,649.7,756.3,1852.8,1028.0,981.6,781.9,7.0,-3.0,-6.0,10721.0,-12038.0,2111.0,2033.0,-77.0,-24.0,86.0,-2.0,2.0,-11.0,9646.0,-12875.0,2661.0,-1596.0,-77.0,-28.0,17.0,1.0
2022-05-23 15:53:22.458145-07:00,1284.6,804.4,1060.8,987.6,913.5,943.2,1654.9,1140.1,3462.5,3455.2,1045.2,837.7,1586.1,3463.7,1207.1,1218.6,3469.8,3471.0,1607.7,2213.7,3009.9,3491.7,1572.1,3488.0,3466.1,3467.4,650.5,757.9,1852.8,1028.0,981.6,781.9,6.0,3.0,-3.0,10695.0,-12053.0,2122.0,2067.0,-24.0,-52.0,41.0,7.0,-2.0,5.0,9628.0,-12891.0,2658.0,-1581.0,5.0,-31.0,-7.0,1.0
2022-05-23 15:53:22.518622-07:00,1289.1,788.6,1062.5,974.8,913.5,943.2,1654.9,1140.1,3475.9,3466.1,1040.1,838.6,1586.1,3463.7,1207.1,1218.6,3469.8,3471.0,1607.7,2213.7,3011.1,3483.2,1577.7,3491.7,3466.1,3467.4,650.5,757.9,1855.7,1032.3,975.6,781.1,15.0,12.0,11.0,10702.0,-12045.0,2104.0,2094.0,49.0,-99.0,-31.0,4.0,8.0,4.0,9643.0,-12884.0,2641.0,-1577.0,61.0,-40.0,-32.0,1.0
2022-05-23 15:53:22.548190-07:00,1289.1,788.6,1062.5,974.8,913.5,947.5,1651.1,1141.0,3475.9,3466.1,1040.1,838.6,1581.4,3473.4,1208.9,1213.3,3468.6,3469.8,1604.9,2240.4,3011.1,3483.2,1577.7,3491.7,3466.1,3474.6,648.1,761.2,1855.7,1032.3,975.6,781.1,1.0,-12.0,14.0,10724.0,-12029.0,2072.0,2104.0,25.0,-32.0,-27.0,1.0,-5.0,4.0,9659.0,-12876.0,2620.0,-1577.0,18.0,-19.0,-24.0,1.0
2022-05-23 15:53:22.607822-07:00,1284.6,812.7,1049.6,972.2,913.5,947.5,1651.1,1141.0,3462.5,3472.2,1040.9,837.7,1581.4,3473.4,1208.9,1213.3,3468.6,3469.8,1604.9,2240.4,2999.7,3481.9,1573.9,3489.2,3466.1,3474.6,648.1,761.2,1844.0,1027.1,978.2,777.8,-2.0,-5.0,10.0,10731.0,-12025.0,2064.0,2102.0,-3.0,8.0,-13.0,-2.0,-6.0,7.0,9659.0,-12877.0,2615.0,-1579.0,-5.0,14.0,-1.0,1.0
2022-05-23 15:53:22.667626-07:00,1289.1,812.7,1049.6,972.2,913.5,933.9,1655.8,1150.6,3472.2,3472.2,1040.9,837.7,1580.5,3462.5,1206.2,1208.0,3467.4,3468.6,1610.5,2206.5,2999.7,3481.9,1573.9,3495.3,3478.3,3471.0,665.2,756.3,1844.0,1027.1,978.2,778.6,2.0,2.0,-5.0,10733.0,-12025.0,2061.0,2098.0,7.0,-1.0,-12.0,0.0,-3.0,1.0,9658.0,-12876.0,2618.0,-1584.0,10.0,10.0,-11.0,1.0
2022-05-23 15:53:22.698635-07:00,1289.1,807.7,1043.5,967.9,913.5,933.9,1655.8,1145.4,3472.2,3483.2,1041.8,843.6,1580.5,3462.5,1206.2,1206.2,3469.8,3468.6,1610.5,2206.5,2990.5,3491.7,1578.6,3495.3,3471.0,3471.0,665.2,756.3,1845.0,1030.6,976.5,778.6,9.0,-6.0,3.0,10740.0,-12020.0,2056.0,2092.0,25.0,-5.0,-25.0,8.0,-5.0,1.0,9665.0,-12871.0,2612.0,-1590.0,24.0,-4.0,-15.0,1.0
2022-05-23 15:53:22.757862-07:00,1281.9,807.7,1043.5,967.9,911.0,942.4,1637.9,1145.4,3464.9,3483.2,1041.8,843.6,1576.8,3483.2,1206.2,1206.2,3469.8,3474.6,1610.5,2205.5,2990.5,3491.7,1578.6,3491.7,3471.0,3468.6,666.8,762.9,1845.0,1030.6,976.5,781.1,9.0,-18.0,8.0,10745.0,-12018.0,2051.0,2087.0,11.0,-7.0,-5.0,7.0,-12.0,0.0,9667.0,-12870.0,2608.0,-1594.0,11.0,3.0,1.0,1.0
2022-05-23 15:53:22.817778-07:00,1281.9,801.9,1049.6,977.3,911.0,942.4,1637.9,1138.4,3464.9,3462.5,1045.2,842.8,1576.8,3483.2,1206.2,1207.1,3478.3,3474.6,1610.5,2205.5,3001.9,3486.8,1582.4,3491.7,3473.4,3468.6,666.8,762.9,1841.1,1027.1,975.6,781.1,9.0,0.0,4.0,10753.0,-12011.0,2052.0,2081.0,13.0,20.0,1.0,7.0,1.0,9.0,9673.0,-12866.0,2608.0,-1596.0,10.0,12.0,8.0,1.0
2022-05-23 15:53:22.848098-07:00,1290.9,801.9,1049.6,977.3,921.1,935.6,1645.4,1138.4,3469.8,3462.5,1045.2,842.8,1580.5,3472.2,1195.6,1207.1,3478.3,3467.4,1606.8,2236.3,3001.9,3486.8,1582.4,3490.5,3473.4,3467.4,648.9,756.3,1841.1,1027.1,975.6,774.5,0.0,7.0,-2.0,10755.0,-12010.0,2056.0,2074.0,11.0,-1.0,-22.0,-6.0,4.0,4.0,9673.0,-12865.0,2609.0,-1599.0,0.0,8.0,-4.0,1.0
2022-05-23 15:53:22.907442-07:00,1290.9,811.9,1041.8,970.5,921.1,935.6,1644.5,1140.1,3469.8,3474.6,1046.1,836.1,1580.5,3472.2,1203.5,1214.2,3472.2,3462.5,1606.8,2236.3,2999.7,3486.8,1572.1,3490.5,3475.9,3467.4,648.9,756.3,1842.0,1024.5,973.9,774.5,0.0,-6.0,-2.0,10756.0,-12010.0,2052.0,2070.0,3.0,10.0,-3.0,0.0,-6.0,-4.0,9673.0,-12865.0,2610.0,-1600.0,-1.0,-2.0,-4.0,1.0
2022-05-23 15:53:22.967823-07:00,1280.1,804.4,1041.8,970.5,911.8,940.7,1644.5,1140.1,3464.9,3468.6,1046.1,836.1,1574.9,3480.7,1203.5,1214.2,3472.2,3462.5,1614.3,2204.5,2999.7,3486.8,1571.1,3492.9,3475.9,3467.4,653.0,751.3,1842.0,1024.5,973.9,771.1,11.0,-2.0,-2.0,10760.0,-12007.0,2052.0,2065.0,28.0,14.0,-14.0,11.0,3.0,-1.0,9679.0,-12860.0,2609.0,-1601.0,28.0,-1.0,7.0,1.0
2022-05-23 15:53:23.117918-07:00,1280.1,804.4,1038.3,976.5,911.8,940.7,1639.8,1133.1,3464.9,3468.6,1049.6,847.0,1574.9,3480.7,1201.8,1208.9,3467.4,3467.4,1614.3,2204.5,3006.5,3486.8,1571.1,3492.9,3469.8,3474.6,653.0,751.3,1845.0,1022.8,973.9,771.1,8.0,-3.0,-6.0,10764.0,-12006.0,2049.0,2057.0,14.0,-20.0,-12.0,8.0,0.0,1.0,9685.0,-12856.0,2606.0,-1601.0,17.0,-13.0,1.0,1.0
2022-05-23 15:53:23.119154-07:00,1294.5,801.0,1038.3,976.5,908.4,934.7,1639.8,1133.1,3464.9,3467.4,1049.6,847.0,1579.6,3461.3,1201.8,1208.9,3467.4,3467.4,1605.8,2201.4,3006.5,3486.8,1576.8,3481.9,3469.8,3474.6,653.0,754.6,1845.0,1022.8,969.6,777.8,8.0,-5.0,0.0,10773.0,-11999.0,2038.0,2060.0,37.0,-23.0,-8.0,0.0,1.0,1.0,9697.0,-12848.0,2601.0,-1599.0,44.0,-18.0,-5.0,1.0
2022-05-23 15:53:23.120095-07:00,1294.5,801.0,1053.9,981.6,908.4,934.7,1645.4,1124.4,3464.9,3467.4,1037.5,847.8,1579.6,3461.3,1207.1,1214.2,3468.6,3472.2,1605.8,2201.4,3001.9,3494.1,1576.8,3481.9,3463.7,3469.8,653.0,754.6,1841.1,1022.8,969.6,777.8,-4.0,1.0,4.0,10781.0,-11992.0,2032.0,2066.0,-1.0,-26.0,0.0,-4.0,0.0,5.0,9705.0,-12844.0,2595.0,-1594.0,3.0,-18.0,1.0,1.0
2022-05-23 15:53:23.148193-07:00,1297.2,803.5,1053.9,981.6,905.0,937.3,1645.4,1124.4,3463.7,3463.7,1037.5,847.8,1582.4,3461.3,1207.1,1214.2,3468.6,3472.2,1604.9,2214.7,3001.9,3494.1,1567.4,3480.7,3463.7,3469.8,653.0,757.9,1841.1,1022.8,973.1,777.8,1.0,7.0,1.0,10784.0,-11989.0,2029.0,2072.0,13.0,-5.0,0.0,0.0,5.0,5.0,9710.0,-12842.0,2592.0,-1590.0,16.0,-11.0,1.0,1.0
2022-05-23 15:53:23.207770-07:00,1297.2,803.5,1047.0,981.6,905.0,944.1,1636.9,1148.9,3463.7,3463.7,1045.2,846.1,1582.4,3467.4,1206.2,1214.2,3471.0,3469.8,1608.7,2214.7,3004.2,3495.3,1567.4,3480.7,3474.6,3474.6,650.5,757.9,1849.8,1028.8,973.1,777.8,2.0,-6.0,0.0,10782.0,-11991.0,2027.0,2071.0,-1.0,-8.0,-9.0,2.0,3.0,0.0,9707.0,-12845.0,2590.0,-1586.0,-7.0,-12.0,-5.0,1.0
2022-05-23 15:53:23.267743-07:00,1285.5,808.5,1048.7,981.6,916.0,944.1,1636.9,1148.9,3471.0,3468.6,1049.6,846.1,1579.6,3467.4,1206.2,1214.2,3471.0,3469.8,1608.7,2217.8,3004.2,3490.5,1573.0,3486.8,3474.6,3474.6,650.5,758.7,1849.8,1030.6,977.3,772.8,0.0,3.0,-15.0,10782.0,-11992.0,2025.0,2071.0,-2.0,-20.0,-11.0,-2.0,-3.0,-4.0,9709.0,-12844.0,2585.0,-1585.0,7.0,-18.0,-13.0,1.0
2022-05-23 15:53:23.298256-07:00,1285.5,808.5,1048.7,970.5,916.0,939.0,1649.2,1127.9,3471.0,3468.6,1049.6,838.6,1579.6,3468.6,1205.3,1207.1,3475.9,3473.4,1609.6,2217.8,2993.9,3490.5,1573.0,3486.8,3473.4,3468.6,654.6,758.7,1846.9,1030.6,977.3,772.8,-5.0,4.0,-8.0,10784.0,-11990.0,2013.0,2080.0,12.0,-55.0,-5.0,-6.0,3.0,-2.0,9716.0,-12842.0,2571.0,-1579.0,28.0,-34.0,-16.0,1.0
2022-05-23 15:53:23.357306-07:00,1287.3,810.2,1046.1,970.5,908.4,939.0,1649.2,1127.9,3466.1,3466.1,1041.8,838.6,1577.7,3468.6,1205.3,1207.1,3475.9,3473.4,1609.6,2204.5,2993.9,3490.5,1567.4,3488.0,3473.4,3468.6,654.6,756.3,1846.9,1026.3,976.5,777.8,7.0,2.0,2.0,10789.0,-11986.0,1998.0,2092.0,4.0,-19.0,-14.0,7.0,1.0,6.0,9724.0,-12840.0,2555.0,-1573.0,14.0,-31.0,-21.0,1.0
2022-05-23 15:53:23.417729-07:00,1287.3,810.2,1046.1,968.8,908.4,939.8,1633.1,1136.6,3466.1,3466.1,1041.8,837.7,1577.7,3458.9,1202.7,1208.0,3468.6,3462.5,1602.1,2204.5,2987.1,3490.5,1567.4,3488.0,3469.8,3478.3,654.6,756.3,1837.2,1026.3,976.5,777.8,11.0,-11.0,7.0,10790.0,-11986.0,1987.0,2095.0,-3.0,-17.0,-11.0,12.0,-6.0,7.0,9725.0,-12842.0,2541.0,-1570.0,1.0,-20.0,-20.0,1.0
2022-05-23 15:53:23.447703-07:00,1297.2,806.9,1043.5,969.6,916.9,939.8,1633.1,1136.6,3466.1,3469.8,1043.5,834.4,1579.6,3458.9,1202.7,1208.0,3468.6,3462.5,1602.1,2203.4,2990.5,3490.5,1569.3,3491.7,3469.8,3478.3,654.6,756.3,1849.8,1028.8,979.0,775.3,9.0,-8.0,4.0,10792.0,-11985.0,1981.0,2099.0,-9.0,-22.0,0.0,14.0,-10.0,9.0,9726.0,-12844.0,2534.0,-1568.0,-4.0,-14.0,-7.0,1.0
2022-05-23 15:53:23.507256-07:00,1297.2,806.9,1043.5,969.6,908.4,932.2,1626.5,1151.5,3466.1,3469.8,1043.5,834.4,1579.6,3466.1,1207.1,1212.4,3468.6,3469.8,1604.9,2209.6,2990.5,3490.5,1569.3,3491.7,3471.0,3466.1,644.9,757.9,1849.8,1028.8,979.0,775.3,2.0,-9.0,7.0,10793.0,-11984.0,1976.0,2105.0,25.0,-6.0,4.0,-2.0,-3.0,8.0,9729.0,-12843.0,2531.0,-1565.0,19.0,-11.0,2.0,1.0
2022-05-23 15:53:23.567785-07:00,1283.7,796.0,1040.9,973.9,908.4,932.2,1626.5,1151.5,3461.3,3457.6,1039.2,844.4,1579.6,3466.1,1207.1,1212.4,3468.6,3469.8,1604.9,2209.6,2997.4,3485.6,1571.1,3491.7,3471.0,3466.1,644.9,757.9,1843.0,1024.5,966.2,777.8,-6.0,3.0,1.0,10799.0,-11978.0,1979.0,2107.0,-12.0,-13.0,9.0,-10.0,1.0,4.0,9733.0,-12840.0,2530.0,-1565.0,-14.0,1.0,9.0,1.0
2022-05-23 15:53:23.627904-07:00,1283.7,796.0,1040.9,973.9,911.0,924.5,1638.8,1141.9,3461.3,3457.6,1039.2,844.4,1581.4,3467.4,1199.1,1205.3,3479.5,3457.6,1607.7,2207.5,2997.4,3485.6,1571.1,3491.7,3469.8,3469.8,657.9,753.8,1843.0,1024.5,966.2,777.8,-5.0,-10.0,-4.0,10793.0,-11983.0,1981.0,2106.0,-14.0,13.0,17.0,-2.0,-4.0,0.0,9725.0,-12845.0,2534.0,-1563.0,-22.0,2.0,11.0,1.0
2022-05-23 15:53:23.657292-07:00,1287.3,800.2,1046.1,980.7,911.0,924.5,1638.8,1141.9,3466.1,3477.1,1045.2,840.3,1581.4,3467.4,1199.1,1205.3,3479.5,3457.6,1607.7,2207.5,2992.8,3485.6,1577.7,3507.5,3469.8,3469.8,657.9,753.8,1843.0,1018.5,970.5,775.3,22.0,-7.0,4.0,10788.0,-11985.0,1988.0,2113.0,2.0,7.0,25.0,20.0,1.0,0.0,9723.0,-12846.0,2541.0,-1557.0,1.0,4.0,23.0,1.0
2022-05-23 15:53:23.688264-07:00,1287.3,800.2,1046.1,980.7,910.1,932.2,1642.6,1139.2,3466.1,3477.1,1045.2,840.3,1580.5,3462.5,1195.6,1208.0,3466.1,3477.1,1603.0,2201.4,2992.8,3485.6,1577.7,3507.5,3472.2,3468.6,642.4,757.1,1843.0,1018.5,970.5,775.3,13.0,0.0,-1.0,10785.0,-11987.0,1995.0,2107.0,-23.0,3.0,-9.0,18.0,4.0,11.0,9719.0,-12848.0,2544.0,-1554.0,-28.0,-3.0,0.0,1.0
2022-05-23 15:53:23.748044-07:00,1299.0,800.2,1046.1,968.8,910.1,932.2,1642.6,1143.6,3457.6,3466.1,1041.8,842.8,1580.5,3462.5,1195.6,1215.1,3483.2,3477.1,1603.0,2201.4,3001.9,3491.7,1575.8,3486.8,3484.4,3468.6,642.4,757.1,1842.0,1021.9,966.2,767.0,8.0,-4.0,-1.0,10786.0,-11987.0,1990.0,2110.0,10.0,-23.0,6.0,7.0,2.0,5.0,9719.0,-12848.0,2544.0,-1554.0,19.0,-5.0,0.0,1.0
2022-05-23 15:53:23.807733-07:00,1281.9,800.2,1046.1,968.8,907.6,940.7,1646.4,1143.6,3479.5,3466.1,1041.8,842.8,1569.3,3471.0,1197.4,1215.1,3483.2,3467.4,1600.2,2200.4,3001.9,3491.7,1575.8,3477.1,3484.4,3475.9,652.2,750.5,1842.0,1021.9,966.2,781.9,0.0,0.0,1.0,10784.0,-11987.0,1989.0,2118.0,-10.0,9.0,16.0,-3.0,2.0,-5.0,9717.0,-12850.0,2545.0,-1551.0,-7.0,-3.0,12.0,1.0
2022-05-23 15:53:23.837764-07:00,1281.9,805.2,1046.1,985.9,907.6,940.7,1646.4,1134.9,3479.5,3475.9,1042.6,842.8,1569.3,3471.0,1197.4,1202.7,3468.6,3467.4,1600.2,2200.4,2992.8,3490.5,1574.9,3477.1,3475.9,3475.9,652.2,750.5,1842.0,1021.1,971.3,781.9,-10.0,1.0,-11.0,10775.0,-11994.0,1997.0,2119.0,-40.0,0.0,14.0,-9.0,-1.0,-2.0,9710.0,-12856.0,2549.0,-1545.0,-36.0,-11.0,13.0,1.0
2022-05-23 15:53:23.898374-07:00,1291.8,805.2,1046.1,985.9,919.4,939.8,1632.2,1134.9,3471.0,3475.9,1042.6,842.8,1574.9,3472.2,1202.7,1202.7,3468.6,3471.0,1588.9,2205.5,2992.8,3490.5,1574.9,3486.8,3475.9,3467.4,653.8,759.6,1842.0,1021.1,971.3,775.3,1.0,2.0,-5.0,10775.0,-11993.0,1993.0,2130.0,50.0,-54.0,-8.0,-4.0,2.0,-3.0,9713.0,-12855.0,2547.0,-1537.0,57.0,-26.0,7.0,1.0
2022-05-23 15:53:23.957267-07:00,1291.8,799.4,1049.6,972.2,919.4,939.8,1632.2,1141.0,3471.0,3468.6,1040.1,841.1,1574.9,3472.2,1202.7,1206.2,3472.2,3471.0,1588.9,2205.5,2990.5,3497.8,1570.2,3486.8,3475.9,3467.4,653.8,759.6,1834.3,1026.3,974.8,775.3,-33.0,3.0,-17.0,10786.0,-11982.0,1978.0,2151.0,21.0,-128.0,14.0,-23.0,-3.0,2.0,9738.0,-12841.0,2531.0,-1521.0,60.0,-70.0,6.0,1.0
2022-05-23 15:53:24.078605-07:00,1281.0,812.7,1049.6,972.2,901.7,930.5,1637.9,1141.0,3461.3,3467.4,1040.1,841.1,1575.8,3462.5,1200.0,1206.2,3472.2,3469.8,1588.9,2199.3,2990.5,3497.8,1576.8,3490.5,3475.9,3467.4,650.5,750.5,1834.3,1026.3,967.1,781.1,-68.0,-40.0,8.0,10811.0,-11953.0,1935.0,2220.0,186.0,-376.0,2.0,-43.0,-43.0,34.0,9802.0,-12801.0,2501.0,-1493.0,252.0,-114.0,8.0,1.0
2022-05-23 15:53:24.257389-07:00,1281.0,812.7,1047.8,967.9,901.7,930.5,1753.1,1134.0,3461.3,3467.4,1045.2,841.1,1575.8,3462.5,1202.7,1206.2,3463.7,3473.4,1588.9,2199.3,3003.1,3490.5,1576.8,3490.5,3464.9,3478.3,650.5,750.5,1838.2,1022.8,967.1,781.1,-33.0,-14.0,20.0,10963.0,-11815.0,1784.0,2339.0,687.0,-708.0,-226.0,-10.0,-41.0,57.0,9983.0,-12666.0,2474.0,-1493.0,716.0,-38.0,41.0,1.0
2022-05-23 15:53:24.258453-07:00,1299.8,809.4,1047.8,967.9,914.4,939.8,1753.1,1134.0,3464.9,3467.4,1045.2,841.1,1580.5,3467.4,1202.7,1206.2,3463.7,3473.4,1611.5,2216.8,3003.1,3490.5,1599.3,3486.8,3464.9,3478.3,656.2,823.5,1838.2,1022.8,969.6,770.3,1.0,-34.0,-20.0,11301.0,-11499.0,1510.0,2496.0,1140.0,-1012.0,-272.0,23.0,-31.0,-21.0,10257.0,-12441.0,2470.0,-1538.0,1285.0,55.0,129.0,1.0
2022-05-23 15:53:24.260561-07:00,1299.8,809.4,1048.7,969.6,914.4,939.8,1951.9,1223.9,3464.9,3467.4,1096.4,883.1,1580.5,3467.4,1352.1,1253.3,3477.1,3478.3,1611.5,2216.8,3015.7,3491.7,1599.3,3486.8,3468.6,3471.0,656.2,823.5,1845.0,1028.8,969.6,770.3,61.0,10.0,-114.0,11665.0,-11124.0,1248.0,2661.0,699.0,-735.0,-101.0,26.0,38.0,-75.0,10678.0,-12077.0,2459.0,-1589.0,916.0,-89.0,109.0,1.0
2022-05-23 15:53:24.261656-07:00,1281.9,806.9,1048.7,969.6,914.4,936.4,1951.9,1223.9,3467.4,3467.4,1096.4,883.1,1576.8,3467.4,1352.1,1253.3,3477.1,3478.3,1613.4,2229.1,3015.7,3491.7,1624.7,3490.5,3468.6,3471.0,667.6,922.0,1845.0,1028.8,998.7,774.5,34.0,-19.0,-21.0,11828.0,-10925.0,1047.0,2843.0,457.0,-697.0,-36.0,39.0,-24.0,-21.0,10900.0,-11887.0,2426.0,-1559.0,485.0,-165.0,109.0,1.0
2022-05-23 15:53:24.262995-07:00,1281.9,806.9,1058.2,982.5,914.4,940.7,1957.8,1273.0,3467.4,3467.4,1185.0,920.3,1576.8,3468.6,1447.0,1307.0,3469.8,3472.2,1636.0,2229.1,3039.7,3488.0,1624.7,3490.5,3466.1,3480.7,677.4,922.0,1844.0,1059.9,998.7,774.5,35.0,2.0,36.0,12083.0,-10626.0,882.0,2958.0,1358.0,-464.0,-214.0,15.0,-14.0,18.0,11143.0,-11670.0,2396.0,-1533.0,1196.0,-44.0,135.0,1.0
2022-05-23 15:53:24.288315-07:00,1296.3,813.5,1067.7,982.5,910.1,940.7,1957.8,1273.0,3468.6,3478.3,1192.9,920.3,1586.1,3468.6,1447.0,1307.0,3469.8,3472.2,1636.0,2246.6,3039.7,3489.2,1606.8,3490.5,3466.1,3480.7,677.4,911.8,1844.0,1087.7,1015.1,776.9,50.0,92.0,-1.0,12482.0,-10156.0,789.0,2977.0,1055.0,-339.0,-161.0,10.0,80.0,17.0,11543.0,-11273.0,2374.0,-1578.0,1168.0,0.0,39.0,1.0
2022-05-23 15:53:24.348157-07:00,1296.3,813.5,1067.7,995.3,910.1,950.0,1994.5,1361.2,3468.6,3478.3,1192.9,910.1,1586.1,3468.6,1484.7,1332.3,3479.5,3472.2,1630.3,2246.6,3053.5,3489.2,1606.8,3490.5,3480.7,3475.9,677.4,911.8,1846.9,1087.7,1015.1,776.9,32.0,13.0,33.0,12699.0,-9889.0,731.0,2974.0,287.0,-59.0,-95.0,7.0,32.0,10.0,11799.0,-11006.0,2336.0,-1624.0,436.0,-37.0,-16.0,1.0
2022-05-23 15:53:24.437937-07:00,1307.9,820.2,1072.9,995.3,909.3,950.0,1994.5,1361.2,3473.4,3468.6,1207.1,910.1,1584.2,3468.6,1484.7,1332.3,3479.5,3472.2,1630.3,2243.5,3053.5,3496.6,1609.6,3497.8,3480.7,3475.9,677.4,906.7,1846.9,1134.9,1083.4,772.0,-16.0,-54.0,19.0,12733.0,-9851.0,755.0,2949.0,-27.0,147.0,34.0,13.0,-55.0,44.0,11847.0,-10958.0,2316.0,-1624.0,-43.0,-8.0,36.0,1.0
2022-05-23 15:53:24.439141-07:00,1307.9,820.2,1072.9,1008.2,909.3,966.2,2009.4,1387.5,3473.4,3468.6,1207.1,918.6,1584.2,3478.3,1497.7,1350.3,3473.4,3479.5,1630.3,2243.5,3054.7,3496.6,1609.6,3497.8,3473.4,3474.6,682.3,906.7,1847.9,1134.9,1083.4,772.0,8.0,-15.0,9.0,12734.0,-9850.0,805.0,2936.0,84.0,145.0,103.0,9.0,5.0,4.0,11855.0,-10946.0,2338.0,-1614.0,67.0,45.0,76.0,1.0
2022-05-23 15:53:24.498930-07:00,1291.8,809.4,1098.2,1033.2,932.2,966.2,2009.4,1387.5,3467.4,3462.5,1206.2,918.6,1583.3,3478.3,1497.7,1350.3,3473.4,3479.5,1630.3,2254.8,3066.2,3496.6,1604.9,3491.7,3473.4,3474.6,682.3,904.2,1857.6,1209.7,1160.3,777.8,15.0,19.0,-17.0,12745.0,-9830.0,898.0,2924.0,128.0,213.0,59.0,9.0,12.0,-1.0,11877.0,-10915.0,2375.0,-1611.0,95.0,64.0,66.0,1.0
2022-05-23 15:53:24.557263-07:00,1291.8,809.4,1098.2,1033.2,916.0,999.6,2014.4,1454.3,3467.4,3462.5,1206.2,918.6,1575.8,3468.6,1557.1,1374.8,3467.4,3471.0,1618.1,2241.4,3066.2,3496.6,1604.9,3491.7,3466.1,3464.9,683.1,891.5,1857.6,1209.7,1160.3,777.8,0.0,7.0,-37.0,12767.0,-9809.0,971.0,2878.0,116.0,50.0,-62.0,5.0,3.0,8.0,11901.0,-10882.0,2399.0,-1622.0,97.0,57.0,21.0,1.0
2022-05-23 15:53:24.588289-07:00,1295.4,815.2,1099.0,1034.0,916.0,999.6,2014.4,1454.3,3471.0,3468.6,1223.9,927.9,1575.8,3468.6,1557.1,1374.8,3467.4,3471.0,1618.1,2241.4,3067.4,3484.4,1609.6,3496.6,3466.1,3464.9,683.1,891.5,1861.5,1253.3,1221.3,783.6,8.0,-12.0,-23.0,12795.0,-9782.0,975.0,2843.0,155.0,89.0,-13.0,3.0,-8.0,-6.0,11934.0,-10842.0,2405.0,-1639.0,129.0,11.0,5.0,1.0
2022-05-23 15:53:24.767660-07:00,1295.4,815.2,1099.0,1034.0,905.0,1043.5,2014.4,1456.2,3471.0,3468.6,1223.9,927.9,1585.2,3468.6,1622.8,1422.2,3478.3,3479.5,1625.6,2243.5,3067.4,3484.4,1609.6,3496.6,3463.7,3474.6,695.4,894.9,1861.5,1253.3,1221.3,783.6,-9.0,-1.0,-18.0,12835.0,-9731.0,1023.0,2821.0,188.0,67.0,45.0,-7.0,-4.0,4.0,11982.0,-10788.0,2401.0,-1646.0,182.0,3.0,18.0,1.0
2022-05-23 15:53:24.768730-07:00,1303.4,806.9,1103.4,1028.8,905.0,1043.5,2014.4,1456.2,3462.5,3473.4,1275.6,944.9,1585.2,3468.6,1622.8,1422.2,3478.3,3479.5,1625.6,2243.5,3074.3,3490.5,1602.1,3483.2,3463.7,3474.6,695.4,894.9,1872.3,1293.6,1249.7,783.6,-3.0,-3.0,-9.0,12865.0,-9690.0,1059.0,2813.0,127.0,54.0,5.0,-10.0,6.0,-1.0,12021.0,-10745.0,2398.0,-1651.0,118.0,-10.0,8.0,1.0
2022-05-23 15:53:24.798570-07:00,1303.4,806.9,1103.4,1028.8,898.3,1049.6,2004.5,1463.5,3462.5,3473.4,1275.6,944.9,1588.0,3467.4,1654.9,1464.4,3467.4,3467.4,1611.5,2241.4,3074.3,3490.5,1602.1,3483.2,3467.4,3473.4,696.2,888.2,1872.3,1293.6,1249.7,783.6,-12.0,-5.0,-11.0,12884.0,-9664.0,1099.0,2801.0,70.0,42.0,43.0,-5.0,-12.0,13.0,12052.0,-10713.0,2388.0,-1652.0,105.0,-24.0,8.0,1.0
2022-05-23 15:53:24.799466-07:00,1302.5,814.4,1103.4,1034.0,898.3,1049.6,2004.5,1456.2,3471.0,3467.4,1290.0,956.8,1588.0,3467.4,1654.9,1495.8,3473.4,3467.4,1611.5,2241.4,3061.6,3486.8,1602.1,3489.2,3480.7,3473.4,696.2,888.2,1876.2,1287.3,1258.7,788.6,-20.0,-43.0,-6.0,12896.0,-9640.0,1128.0,2816.0,97.0,39.0,133.0,-2.0,-33.0,4.0,12077.0,-10688.0,2383.0,-1637.0,60.0,-32.0,53.0,1.0
2022-05-23 15:53:24.857324-07:00,1295.4,814.4,1103.4,1034.0,912.7,1042.6,1987.5,1456.2,3469.8,3467.4,1290.0,956.8,1585.2,3469.8,1698.6,1495.8,3473.4,3468.6,1619.0,2236.3,3061.6,3486.8,1602.1,3490.5,3480.7,3469.8,691.3,897.4,1876.2,1287.3,1258.7,791.9,0.0,40.0,-24.0,12928.0,-9584.0,1175.0,2840.0,173.0,-70.0,51.0,16.0,20.0,6.0,12109.0,-10652.0,2391.0,-1619.0,104.0,-6.0,49.0,1.0
2022-05-23 15:53:24.888215-07:00,1295.4,812.7,1200.0,1115.6,912.7,1042.6,1987.5,1459.8,3469.8,3464.9,1308.8,967.1,1585.2,3469.8,1698.6,1545.0,3485.6,3468.6,1619.0,2236.3,3051.2,3486.8,1592.7,3490.5,3480.7,3469.8,691.3,897.4,1886.9,1332.3,1279.2,791.9,47.0,-15.0,-5.0,12959.0,-9532.0,1251.0,2841.0,300.0,486.0,176.0,23.0,-18.0,-16.0,12152.0,-10603.0,2388.0,-1624.0,266.0,-3.0,-20.0,1.0
2022-05-23 15:53:24.948395-07:00,1303.4,812.7,1200.0,1115.6,922.8,1024.5,1978.6,1459.8,3472.2,3464.9,1308.8,967.1,1589.9,3462.5,1719.6,1545.0,3485.6,3479.5,1623.7,2231.1,3051.2,3486.8,1592.7,3486.8,3480.7,3474.6,687.2,892.4,1886.9,1332.3,1279.2,806.0,2.0,66.0,-32.0,12994.0,-9485.0,1416.0,2762.0,-32.0,192.0,-3.0,8.0,47.0,35.0,12181.0,-10567.0,2384.0,-1645.0,-74.0,32.0,-33.0,1.0
2022-05-23 15:53:25.038552-07:00,1303.4,816.9,1229.3,1111.2,922.8,1024.5,1978.6,1447.0,3472.2,3464.9,1285.5,963.7,1589.9,3462.5,1719.6,1514.3,3468.6,3479.5,1623.7,2231.1,3050.1,3497.8,1594.6,3486.8,3464.9,3474.6,687.2,892.4,1884.0,1304.3,1256.9,806.0,34.0,-46.0,53.0,12965.0,-9528.0,1461.0,2724.0,35.0,314.0,89.0,17.0,-3.0,14.0,12145.0,-10609.0,2378.0,-1655.0,-34.0,7.0,-36.0,1.0
2022-05-23 15:53:25.039633-07:00,1304.3,817.7,1229.3,1111.2,916.0,1013.3,1963.7,1447.0,3463.7,3469.8,1285.5,963.7,1586.1,3471.0,1689.1,1514.3,3468.6,3472.2,1613.4,2226.0,3050.1,3497.8,1589.9,3490.5,3464.9,3469.8,691.3,893.2,1884.0,1304.3,1234.6,804.4,0.0,0.0,-25.0,12955.0,-9533.0,1565.0,2698.0,-99.0,56.0,41.0,9.0,-15.0,22.0,12139.0,-10613.0,2378.0,-1670.0,-72.0,27.0,-13.0,1.0
2022-05-23 15:53:25.097828-07:00,1304.3,817.7,1207.1,1102.5,916.0,1013.3,1955.8,1432.3,3463.7,3469.8,1276.5,961.1,1586.1,3471.0,1671.9,1512.5,3469.8,3478.3,1613.4,2226.0,3052.4,3485.6,1589.9,3490.5,3463.7,3478.3,691.3,893.2,1892.8,1281.0,1234.6,804.4,49.0,42.0,-16.0,12921.0,-9580.0,1557.0,2700.0,-159.0,-29.0,-52.0,43.0,31.0,5.0,12099.0,-10658.0,2377.0,-1680.0,-205.0,17.0,-61.0,1.0
2022-05-23 15:53:25.157655-07:00,1307.0,806.0,1207.1,1102.5,918.6,1010.8,1955.8,1432.3,3466.1,3473.4,1276.5,961.1,1592.7,3458.9,1671.9,1512.5,3469.8,3478.3,1609.6,2230.1,3052.4,3485.6,1593.6,3480.7,3463.7,3478.3,688.9,887.3,1892.8,1281.0,1223.9,793.5,-16.0,-20.0,8.0,12843.0,-9701.0,1496.0,2674.0,-485.0,34.0,-132.0,-22.0,-10.0,12.0,11991.0,-10782.0,2359.0,-1682.0,-420.0,-41.0,-99.0,1.0
2022-05-23 15:53:25.187363-07:00,1307.0,806.0,1202.7,1089.5,918.6,1010.8,1950.9,1432.3,3466.1,3473.4,1271.2,959.4,1592.7,3458.9,1676.7,1497.7,3466.1,3477.1,1609.6,2230.1,3042.0,3489.2,1593.6,3480.7,3474.6,3483.2,688.9,887.3,1903.6,1286.4,1223.9,793.5,-45.0,-50.0,23.0,12765.0,-9815.0,1461.0,2652.0,-118.0,11.0,-28.0,-32.0,-53.0,24.0,11935.0,-10844.0,2358.0,-1685.0,-23.0,58.0,4.0,1.0
2022-05-23 15:53:25.307525-07:00,1299.0,808.5,1202.7,1089.5,907.6,1010.8,1950.9,1432.3,3464.9,3468.6,1271.2,959.4,1592.7,3466.1,1676.7,1497.7,3466.1,3477.1,1613.4,2222.9,3042.0,3489.2,1581.4,3481.9,3474.6,3483.2,684.8,883.9,1903.6,1286.4,1228.4,795.2,-20.0,27.0,-47.0,12771.0,-9808.0,1461.0,2648.0,-49.0,-16.0,-35.0,-21.0,14.0,-10.0,11924.0,-10847.0,2389.0,-1703.0,-82.0,74.0,6.0,1.0
2022-05-23 15:53:25.309559-07:00,1299.0,808.5,1203.5,1087.7,907.6,1015.9,1940.0,1426.8,3464.9,3468.6,1262.2,948.3,1592.7,3456.4,1660.6,1490.3,3473.4,3472.2,1619.9,2222.9,3022.5,3489.2,1581.4,3481.9,3473.4,3480.7,691.3,883.9,1891.8,1281.9,1228.4,795.2,-11.0,-52.0,-33.0,12759.0,-9824.0,1440.0,2656.0,-12.0,-38.0,30.0,-23.0,-12.0,-27.0,11911.0,-10857.0,2405.0,-1706.0,58.0,-10.0,19.0,1.0
2022-05-23 15:53:25.367665-07:00,1300.7,811.9,1185.9,1087.7,909.3,1015.9,1940.0,1426.8,3461.3,3478.3,1252.4,948.3,1587.1,3456.4,1660.6,1490.3,3473.4,3472.2,1619.9,2216.8,3022.5,3496.6,1586.1,3488.0,3473.4,3480.7,691.3,878.0,1891.8,1272.1,1219.5,797.7,1.0,-30.0,-18.0,12780.0,-9786.0,1447.0,2692.0,105.0,-115.0,76.0,4.0,-15.0,-2.0,11948.0,-10822.0,2393.0,-1686.0,127.0,-66.0,54.0,1.0
2022-05-23 15:53:25.397815-07:00,1300.7,811.9,1185.9,1076.4,909.3,1001.3,1933.1,1418.6,3461.3,3478.3,1252.4,947.5,1587.1,3457.6,1653.0,1485.6,3477.1,3471.0,1611.5,2216.8,3034.0,3496.6,1586.1,3488.0,3478.3,3478.3,687.2,878.0,1895.8,1272.1,1219.5,797.7,21.0,-4.0,14.0,12820.0,-9719.0,1444.0,2746.0,249.0,-97.0,95.0,18.0,-1.0,20.0,12017.0,-10751.0,2378.0,-1666.0,281.0,-47.0,52.0,1.0
2022-05-23 15:53:25.457531-07:00,1292.7,811.9,1192.0,1076.4,909.3,1001.3,1933.1,1418.6,3463.7,3457.6,1252.4,947.5,1584.2,3457.6,1653.0,1485.6,3477.1,3471.0,1611.5,2225.0,3034.0,3494.1,1578.6,3489.2,3478.3,3478.3,687.2,864.6,1895.8,1274.7,1215.1,793.5,25.0,38.0,1.0,12879.0,-9625.0,1466.0,2786.0,187.0,-44.0,79.0,17.0,19.0,11.0,12079.0,-10684.0,2372.0,-1660.0,105.0,-22.0,24.0,1.0
2022-05-23 15:53:25.487936-07:00,1292.7,811.9,1192.0,1080.8,909.3,1005.6,1937.1,1414.0,3463.7,3457.6,1252.4,944.1,1584.2,3469.8,1648.3,1489.3,3469.8,3468.6,1609.6,2225.0,3034.0,3494.1,1578.6,3489.2,3474.6,3466.1,688.9,864.6,1899.7,1274.7,1215.1,793.5,11.0,10.0,-5.0,12876.0,-9627.0,1469.0,2794.0,-114.0,18.0,-11.0,7.0,6.0,9.0,12073.0,-10693.0,2365.0,-1653.0,-126.0,-30.0,-18.0,1.0
2022-05-23 15:53:25.548367-07:00,1297.2,811.9,1185.0,1080.8,904.2,1005.6,1937.1,1414.0,3469.8,3467.4,1245.3,944.1,1591.7,3469.8,1648.3,1489.3,3469.8,3468.6,1609.6,2219.8,3034.0,3477.1,1578.6,3481.9,3474.6,3466.1,688.9,873.0,1899.7,1284.6,1212.4,791.9,-10.0,-11.0,-12.0,12845.0,-9671.0,1464.0,2785.0,-98.0,40.0,-31.0,-6.0,-9.0,0.0,12042.0,-10732.0,2353.0,-1644.0,-107.0,-33.0,-20.0,1.0
2022-05-23 15:53:25.607759-07:00,1297.2,811.9,1185.0,1074.7,908.4,1003.9,1929.2,1420.4,3469.8,3467.4,1245.3,946.6,1586.1,3461.3,1645.4,1485.6,3467.4,3463.7,1596.4,2217.8,3029.4,3477.1,1578.6,3481.9,3468.6,3462.5,692.1,867.9,1895.8,1284.6,1212.4,791.9,10.0,-19.0,-9.0,12820.0,-9709.0,1457.0,2776.0,-45.0,43.0,14.0,3.0,-5.0,-13.0,12015.0,-10767.0,2342.0,-1632.0,-60.0,-38.0,-3.0,1.0
2022-05-23 15:53:25.638136-07:00,1293.6,816.9,1171.8,1074.7,908.4,1003.9,1929.2,1420.4,3462.5,3467.4,1239.9,940.7,1586.1,3461.3,1645.4,1485.6,3467.4,3463.7,1596.4,2217.8,3021.4,3486.8,1576.8,3489.2,3468.6,3462.5,692.1,867.9,1895.8,1263.1,1213.3,799.4,-8.0,-5.0,-14.0,12798.0,-9738.0,1471.0,2767.0,-104.0,32.0,8.0,-7.0,-7.0,5.0,11997.0,-10792.0,2331.0,-1616.0,-89.0,-50.0,-6.0,1.0
2022-05-23 15:53:25.697823-07:00,1293.6,816.9,1171.8,1074.7,908.4,1008.2,1944.0,1424.1,3462.5,3467.4,1239.9,940.7,1589.9,3462.5,1645.4,1481.0,3472.2,3473.4,1610.5,2209.6,3021.4,3486.8,1576.8,3489.2,3467.4,3477.1,683.1,867.9,1895.8,1263.1,1213.3,799.4,10.0,-13.0,-7.0,12770.0,-9773.0,1473.0,2771.0,-54.0,27.0,28.0,10.0,-2.0,-4.0,11977.0,-10819.0,2318.0,-1596.0,-53.0,-59.0,-6.0,1.0
2022-05-23 15:53:25.787484-07:00,1287.3,804.4,1167.4,1071.2,908.4,1008.2,1944.0,1424.1,3466.1,3469.8,1241.7,947.5,1589.9,3462.5,1645.4,1481.0,3472.2,3473.4,1610.5,2209.6,3028.3,3486.8,1574.9,3490.5,3467.4,3477.1,683.1,867.9,1898.7,1277.4,1216.8,795.2,12.0,4.0,-28.0,12750.0,-9796.0,1485.0,2773.0,-85.0,23.0,25.0,13.0,5.0,-10.0,11965.0,-10840.0,2296.0,-1578.0,-81.0,-75.0,-24.0,1.0
2022-05-23 15:53:25.907994-07:00,1287.3,804.4,1167.4,1071.2,916.0,997.0,1958.8,1412.2,3466.1,3469.8,1241.7,947.5,1589.9,3457.6,1646.4,1485.6,3469.8,3467.4,1606.8,2211.6,3028.3,3486.8,1574.9,3490.5,3471.0,3469.8,688.9,864.6,1898.7,1277.4,1216.8,795.2,15.0,-73.0,38.0,12730.0,-9821.0,1496.0,2774.0,102.0,129.0,130.0,7.0,-17.0,7.0,11953.0,-10862.0,2267.0,-1562.0,81.0,-53.0,0.0,1.0
2022-05-23 15:53:25.909594-07:00,1292.7,792.7,1178.8,1069.5,916.0,997.0,1958.8,1420.4,3464.9,3467.4,1242.6,948.3,1589.9,3457.6,1646.4,1481.0,3473.4,3467.4,1606.8,2211.6,3014.5,3481.9,1574.9,3488.0,3467.4,3469.8,688.9,864.6,1902.6,1266.7,1203.5,794.4,11.0,11.0,11.0,12756.0,-9770.0,1597.0,2777.0,166.0,157.0,140.0,11.0,9.0,25.0,11997.0,-10817.0,2253.0,-1558.0,102.0,-10.0,17.0,1.0
2022-05-23 15:53:25.938590-07:00,1285.5,792.7,1178.8,1069.5,905.0,1006.5,1914.4,1420.4,3469.8,3467.4,1242.6,948.3,1584.2,3462.5,1642.6,1481.0,3473.4,3474.6,1608.7,2208.6,3014.5,3481.9,1574.9,3483.2,3467.4,3467.4,688.0,872.1,1902.6,1266.7,1203.5,792.7,12.0,-46.0,36.0,12751.0,-9754.0,1716.0,2785.0,47.0,272.0,287.0,4.0,0.0,20.0,12019.0,-10793.0,2253.0,-1554.0,100.0,-3.0,39.0,1.0
2022-05-23 15:53:25.940176-07:00,1285.5,811.0,1165.6,1062.5,905.0,1006.5,1914.4,1402.1,3469.8,3475.9,1243.5,949.2,1584.2,3462.5,1642.6,1481.9,3469.8,3474.6,1608.7,2208.6,3031.7,3489.2,1578.6,3483.2,3473.4,3467.4,688.0,872.1,1920.3,1269.4,1209.7,792.7,-55.0,-19.0,12.0,12692.0,-9775.0,1938.0,2836.0,-147.0,332.0,425.0,-16.0,-43.0,35.0,12036.0,-10772.0,2274.0,-1538.0,-90.0,46.0,118.0,1.0
2022-05-23 15:53:25.997848-07:00,1296.3,811.0,1165.6,1062.5,904.2,1014.2,1899.7,1402.1,3463.7,3475.9,1243.5,949.2,1587.1,3468.6,1654.9,1481.9,3469.8,3472.2,1607.7,2198.3,3031.7,3489.2,1578.6,3485.6,3473.4,3471.0,692.1,868.8,1920.3,1269.4,1209.7,797.7,13.0,28.0,-24.0,12607.0,-9834.0,2096.0,2901.0,-239.0,261.0,328.0,-29.0,44.0,-26.0,11992.0,-10815.0,2329.0,-1503.0,-241.0,26.0,101.0,1.0
2022-05-23 15:53:26.087816-07:00,1296.3,811.9,1154.2,1054.8,904.2,1014.2,1899.7,1414.9,3463.7,3473.4,1238.2,941.5,1587.1,3468.6,1654.9,1494.9,3457.6,3472.2,1607.7,2198.3,3014.5,3490.5,1566.5,3485.6,3480.7,3471.0,692.1,868.8,2036.4,1310.6,1218.6,797.7,-1.0,19.0,-3.0,12457.0,-9973.0,2273.0,2939.0,-549.0,410.0,281.0,-18.0,10.0,-20.0,11891.0,-10926.0,2358.0,-1452.0,-518.0,-43.0,51.0,1.0
2022-05-23 15:53:26.207401-07:00,1298.1,809.4,1154.2,1054.8,919.4,1015.1,1918.3,1414.9,3462.5,3463.7,1238.2,941.5,1588.0,3464.9,1651.1,1494.9,3457.6,3472.2,1604.0,2212.7,3014.5,3490.5,1573.9,3490.5,3480.7,3469.8,697.9,867.1,2036.4,1310.6,1213.3,793.5,-15.0,-30.0,26.0,12249.0,-10188.0,2455.0,2925.0,-510.0,505.0,238.0,-1.0,-34.0,31.0,11727.0,-11106.0,2376.0,-1379.0,-530.0,-56.0,67.0,1.0
2022-05-23 15:53:26.209177-07:00,1298.1,809.4,1160.3,1048.7,919.4,1015.1,1890.9,1391.2,3462.5,3463.7,1239.1,937.3,1588.0,3464.9,1643.5,1479.2,3464.9,3469.8,1604.0,2212.7,3014.5,3492.9,1573.9,3490.5,3479.5,3469.8,697.9,867.1,2011.4,1303.4,1213.3,793.5,29.0,49.0,10.0,12063.0,-10377.0,2628.0,2886.0,-743.0,510.0,156.0,9.0,49.0,-2.0,11574.0,-11265.0,2413.0,-1319.0,-716.0,0.0,60.0,1.0
2022-05-23 15:53:26.210530-07:00,1299.0,817.7,1160.3,1048.7,903.4,1014.2,1890.9,1391.2,3466.1,3461.3,1239.1,937.3,1583.3,3473.4,1643.5,1479.2,3464.9,3469.8,1616.2,2205.5,3014.5,3492.9,1571.1,3484.4,3479.5,3469.8,693.8,864.6,2011.4,1303.4,1206.2,791.0,35.0,-14.0,17.0,11659.0,-10811.0,2763.0,2827.0,-1499.0,732.0,45.0,33.0,-20.0,-15.0,11212.0,-11627.0,2464.0,-1216.0,-1489.0,-43.0,61.0,1.0
2022-05-23 15:53:26.238134-07:00,1299.0,817.7,1184.1,1077.3,903.4,1014.2,1911.5,1382.1,3466.1,3461.3,1246.2,944.1,1583.3,3473.4,1639.8,1477.3,3468.6,3472.2,1616.2,2205.5,3021.4,3485.6,1571.1,3484.4,3466.1,3472.2,693.8,864.6,2028.4,1293.6,1206.2,791.0,45.0,42.0,18.0,11170.0,-11313.0,2900.0,2698.0,-1413.0,845.0,-40.0,25.0,25.0,19.0,10742.0,-12061.0,2526.0,-1094.0,-1492.0,19.0,63.0,1.0
2022-05-23 15:53:26.387575-07:00,1285.5,815.2,1184.1,1077.3,919.4,1022.8,1911.5,1382.1,3467.4,3467.4,1246.2,944.1,1577.7,3468.6,1639.8,1477.3,3468.6,3472.2,1611.5,2197.3,3021.4,3485.6,1567.4,3481.9,3466.1,3472.2,695.4,862.1,2028.4,1293.6,1208.9,800.2,4.0,-8.0,-6.0,10728.0,-11746.0,2995.0,2529.0,-1168.0,688.0,-157.0,20.0,-21.0,66.0,10302.0,-12433.0,2589.0,-1019.0,-1135.0,100.0,8.0,1.0
2022-05-23 15:53:26.418424-07:00,1285.5,815.2,1264.9,1180.6,919.4,1022.8,1887.9,1367.6,3467.4,3467.4,1238.2,938.1,1577.7,3468.6,1647.3,1471.8,3464.9,3472.2,1611.5,2197.3,3009.9,3496.6,1567.4,3481.9,3466.1,3472.2,695.4,862.1,2018.4,1277.4,1208.9,800.2,0.0,-16.0,-8.0,10520.0,-11956.0,3003.0,2408.0,-215.0,177.0,-168.0,-5.0,2.0,27.0,10106.0,-12584.0,2627.0,-1023.0,-198.0,116.0,-44.0,1.0
2022-05-23 15:53:26.448549-07:00,1288.2,806.9,1457.1,1180.6,920.3,1017.6,1887.9,1367.6,3466.1,3462.5,1239.9,938.1,1588.0,3468.6,1647.3,1471.8,3464.9,3472.2,1609.6,2192.2,3009.9,3492.9,1563.7,3481.9,3466.1,3472.2,690.5,861.2,2018.4,1274.7,1195.6,818.5,-10.0,3.0,-20.0,10575.0,-11919.0,2995.0,2361.0,338.0,2.0,-34.0,-12.0,2.0,-15.0,10161.0,-12535.0,2622.0,-1090.0,329.0,74.0,-93.0,1.0
2022-05-23 15:53:26.449421-07:00,1288.2,806.9,1457.1,1305.2,920.3,1028.8,1865.4,1373.9,3466.1,3462.5,1239.9,942.4,1588.0,3457.6,1641.6,1478.3,3472.2,3471.0,1604.9,2192.2,3005.4,3492.9,1563.7,3481.9,3472.2,3477.1,691.3,861.2,2007.4,1274.7,1195.6,818.5,-27.0,-38.0,-17.0,10689.0,-11822.0,2987.0,2342.0,320.0,-129.0,-50.0,-21.0,-25.0,-24.0,10263.0,-12451.0,2597.0,-1149.0,329.0,24.0,-66.0,1.0
2022-05-23 15:53:26.478449-07:00,1296.3,794.4,1530.1,1305.2,929.6,1028.8,1865.4,1373.9,3466.1,3462.5,1235.5,942.4,1585.2,3457.6,1641.6,1478.3,3472.2,3471.0,1604.9,2195.2,3005.4,3486.8,1563.7,3488.0,3472.2,3477.1,691.3,864.6,2007.4,1263.1,1186.7,794.4,1.0,-13.0,-5.0,10814.0,-11709.0,2965.0,2365.0,397.0,-145.0,62.0,-6.0,-4.0,-26.0,10389.0,-12349.0,2575.0,-1176.0,434.0,-31.0,-10.0,1.0
2022-05-23 15:53:26.537765-07:00,1296.3,794.4,1530.1,1331.4,929.6,1004.8,1863.5,1377.5,3466.1,3462.5,1235.5,940.7,1585.2,3467.4,1635.0,1480.1,3472.2,3472.2,1602.1,2195.2,3008.8,3486.8,1563.7,3488.0,3480.7,3474.6,685.6,864.6,1998.5,1263.1,1186.7,794.4,11.0,-9.0,2.0,10899.0,-11621.0,2963.0,2412.0,144.0,-165.0,56.0,9.0,-6.0,-6.0,10485.0,-12272.0,2553.0,-1179.0,206.0,-59.0,12.0,1.0
2022-05-23 15:53:26.598369-07:00,1285.5,813.5,1501.4,1331.4,941.5,1004.8,1863.5,1377.5,3460.1,3462.5,1231.0,940.7,1582.4,3467.4,1635.0,1480.1,3472.2,3472.2,1602.1,2191.2,3008.8,3481.9,1558.1,3484.4,3480.7,3474.6,685.6,857.9,1998.5,1271.2,1192.0,795.2,33.0,3.0,17.0,10950.0,-11570.0,2935.0,2461.0,121.0,-156.0,20.0,18.0,9.0,3.0,10554.0,-12218.0,2531.0,-1168.0,175.0,-76.0,16.0,1.0
2022-05-23 15:53:26.687896-07:00,1285.5,813.5,1501.4,1309.7,928.8,1007.3,1848.9,1379.4,3460.1,3462.5,1231.0,935.6,1582.4,3477.1,1661.5,1480.1,3471.0,3467.4,1614.3,2188.1,2999.7,3481.9,1558.1,3484.4,3475.9,3471.0,686.4,870.5,2006.4,1271.2,1192.0,795.2,19.0,1.0,41.0,10984.0,-11548.0,2883.0,2477.0,-16.0,-95.0,-82.0,24.0,0.0,16.0,10586.0,-12199.0,2501.0,-1149.0,26.0,-89.0,-6.0,1.0
2022-05-23 15:53:26.690055-07:00,1285.5,815.2,1470.9,1286.4,928.8,1007.3,1848.9,1379.4,3471.0,3463.7,1230.2,949.2,1582.4,3477.1,1661.5,1480.1,3471.0,3467.4,1614.3,2188.1,3006.5,3485.6,1559.0,3494.1,3475.9,3471.0,686.4,870.5,2042.4,1251.5,1189.4,796.9,-14.0,-37.0,42.0,10988.0,-11551.0,2847.0,2484.0,37.0,-53.0,11.0,5.0,-33.0,34.0,10609.0,-12184.0,2479.0,-1136.0,92.0,-41.0,18.0,1.0
2022-05-23 15:53:26.747843-07:00,1285.5,815.2,1470.9,1286.4,932.2,1003.0,1851.8,1374.8,3471.0,3463.7,1230.2,949.2,1582.4,3466.1,1682.4,1507.8,3467.4,3472.2,1609.6,2189.1,3006.5,3485.6,1559.0,3494.1,3477.1,3466.1,700.3,873.0,2042.4,1251.5,1189.4,796.9,0.0,6.0,33.0,11020.0,-11512.0,2854.0,2511.0,117.0,-30.0,83.0,-6.0,0.0,12.0,10655.0,-12144.0,2481.0,-1121.0,127.0,-17.0,57.0,1.0
2022-05-23 15:53:26.778706-07:00,1282.8,811.9,1446.0,1263.1,932.2,1003.0,1851.8,1374.8,3468.6,3479.5,1233.7,949.2,1582.4,3466.1,1682.4,1507.8,3467.4,3472.2,1609.6,2189.1,3008.8,3488.0,1567.4,3495.3,3477.1,3466.1,700.3,873.0,2050.4,1257.8,1186.7,799.4,17.0,8.0,26.0,11023.0,-11500.0,2885.0,2522.0,-49.0,56.0,43.0,5.0,14.0,6.0,10658.0,-12140.0,2499.0,-1109.0,-66.0,22.0,40.0,1.0
2022-05-23 15:53:26.837751-07:00,1282.8,811.9,1446.0,1263.1,933.9,1008.2,1832.3,1354.0,3468.6,3479.5,1233.7,949.2,1584.2,3455.2,1684.3,1493.0,3472.2,3469.8,1595.5,2188.1,3008.8,3488.0,1567.4,3495.3,3473.4,3471.0,709.3,873.8,2050.4,1257.8,1186.7,799.4,4.0,-2.0,8.0,11005.0,-11512.0,2920.0,2504.0,-30.0,92.0,16.0,3.0,1.0,13.0,10639.0,-12152.0,2516.0,-1106.0,-53.0,23.0,19.0,1.0
2022-05-23 15:53:26.958215-07:00,1280.1,808.5,1442.4,1253.3,933.9,1008.2,1832.3,1361.2,3460.1,3462.5,1229.3,944.1,1584.2,3455.2,1684.3,1492.1,3471.0,3469.8,1595.5,2188.1,3006.5,3477.1,1558.1,3492.9,3474.6,3471.0,709.3,873.8,2048.4,1260.4,1192.9,796.0,18.0,3.0,5.0,11010.0,-11508.0,2933.0,2487.0,63.0,18.0,5.0,6.0,13.0,2.0,10646.0,-12144.0,2524.0,-1115.0,51.0,26.0,3.0,1.0
2022-05-23 15:53:27.017816-07:00,1281.9,808.5,1442.4,1253.3,933.9,1000.5,1834.3,1361.2,3474.6,3462.5,1229.3,944.1,1577.7,3462.5,1681.4,1492.1,3471.0,3472.2,1601.1,2177.9,3006.5,3477.1,1558.1,3489.2,3474.6,3467.4,701.9,867.1,2048.4,1260.4,1192.9,793.5,-4.0,-7.0,1.0,11016.0,-11501.0,2947.0,2476.0,-6.0,41.0,5.0,-1.0,-5.0,0.0,10647.0,-12143.0,2526.0,-1117.0,-19.0,-5.0,-8.0,1.0
2022-05-23 15:53:27.018937-07:00,1281.9,811.9,1418.6,1231.9,933.9,1000.5,1834.3,1337.7,3474.6,3478.3,1236.4,938.1,1577.7,3462.5,1681.4,1497.7,3468.6,3472.2,1601.1,2177.9,2990.5,3494.1,1563.7,3489.2,3471.0,3467.4,701.9,867.1,2047.4,1259.6,1191.2,793.5,-4.0,0.0,5.0,11024.0,-11494.0,2950.0,2471.0,44.0,-16.0,-11.0,-9.0,1.0,0.0,10651.0,-12140.0,2525.0,-1118.0,41.0,-12.0,-7.0,1.0
2022-05-23 15:53:27.048414-07:00,1274.7,811.9,1418.6,1231.9,933.0,1009.9,1827.5,1337.7,3468.6,3478.3,1236.4,938.1,1579.6,3466.1,1673.8,1497.7,3468.6,3474.6,1606.8,2182.0,2990.5,3494.1,1563.7,3483.2,3471.0,3467.4,705.2,869.6,2047.4,1259.6,1191.2,789.4,-14.0,-3.0,3.0,11044.0,-11475.0,2947.0,2470.0,77.0,-31.0,-19.0,-7.0,-6.0,5.0,10673.0,-12123.0,2514.0,-1113.0,76.0,-35.0,-12.0,1.0
2022-05-23 15:53:27.078276-07:00,1274.7,809.4,1414.9,1243.5,933.0,1009.9,1827.5,1359.4,3468.6,3463.7,1233.7,937.3,1579.6,3466.1,1673.8,1493.0,3468.6,3474.6,1606.8,2182.0,3008.8,3485.6,1559.0,3483.2,3464.9,3467.4,705.2,869.6,2043.4,1247.1,1179.7,789.4,10.0,-4.0,7.0,11077.0,-11445.0,2927.0,2484.0,62.0,-99.0,9.0,4.0,0.0,2.0,10700.0,-12101.0,2504.0,-1113.0,72.0,-34.0,-5.0,1.0
2022-05-23 15:53:27.137842-07:00,1297.2,809.4,1414.9,1243.5,920.3,1008.2,1814.9,1359.4,3462.5,3463.7,1233.7,937.3,1582.4,3469.8,1659.6,1493.0,3468.6,3463.7,1604.0,2185.0,3008.8,3485.6,1559.0,3492.9,3464.9,3473.4,697.0,866.3,2043.4,1247.1,1179.7,799.4,7.0,-13.0,14.0,11096.0,-11426.0,2915.0,2504.0,44.0,-45.0,20.0,8.0,-5.0,10.0,10721.0,-12085.0,2493.0,-1107.0,66.0,-36.0,-1.0,1.0
2022-05-23 15:53:27.228975-07:00,1297.2,807.7,1396.7,1230.2,920.3,1008.2,1810.0,1340.4,3462.5,3463.7,1231.9,943.2,1582.4,3469.8,1665.3,1492.1,3468.6,3474.6,1604.0,2185.0,2997.4,3477.1,1550.6,3492.9,3473.4,3468.6,697.0,866.3,2038.4,1256.0,1170.9,799.4,10.0,-8.0,20.0,11134.0,-11387.0,2906.0,2522.0,149.0,-83.0,32.0,11.0,-3.0,13.0,10759.0,-12054.0,2479.0,-1107.0,179.0,-22.0,-2.0,1.0
2022-05-23 15:53:27.230248-07:00,1280.1,809.4,1396.7,1230.2,933.0,1006.5,1810.0,1340.4,3463.7,3463.7,1231.9,943.2,1573.9,3467.4,1665.3,1492.1,3468.6,3474.6,1616.2,2180.9,2997.4,3477.1,1551.5,3488.0,3473.4,3468.6,705.2,867.1,2038.4,1256.0,1169.1,791.9,-2.0,-9.0,14.0,11217.0,-11301.0,2905.0,2539.0,324.0,-95.0,39.0,4.0,-7.0,14.0,10836.0,-11987.0,2466.0,-1119.0,325.0,-4.0,-3.0,1.0
2022-05-23 15:53:27.287358-07:00,1280.1,809.4,1394.8,1220.4,933.0,1006.5,1811.0,1338.6,3463.7,3463.7,1233.7,939.0,1573.9,3467.4,1661.5,1490.3,3463.7,3469.8,1616.2,2180.9,3005.4,3489.2,1551.5,3488.0,3468.6,3466.1,705.2,867.1,2029.4,1254.2,1169.1,791.9,2.0,19.0,0.0,11334.0,-11180.0,2909.0,2551.0,354.0,-102.0,31.0,0.0,14.0,1.0,10947.0,-11885.0,2455.0,-1142.0,323.0,3.0,-14.0,1.0
2022-05-23 15:53:27.347830-07:00,1299.8,806.9,1394.8,1220.4,922.8,1001.3,1811.0,1338.6,3467.4,3468.6,1233.7,939.0,1578.6,3473.4,1661.5,1490.3,3463.7,3469.8,1604.0,2189.1,3005.4,3489.2,1558.1,3479.5,3468.6,3466.1,691.3,861.2,2029.4,1254.2,1170.9,793.5,-1.0,-15.0,6.0,11406.0,-11105.0,2900.0,2569.0,155.0,-97.0,12.0,4.0,-14.0,6.0,11021.0,-11819.0,2439.0,-1160.0,162.0,-23.0,-13.0,1.0
2022-05-23 15:53:27.378278-07:00,1299.8,806.9,1389.4,1223.9,922.8,1001.3,1814.9,1335.0,3467.4,3468.6,1227.5,939.0,1578.6,3473.4,1653.0,1476.4,3468.6,3474.6,1604.0,2189.1,2996.2,3486.8,1558.1,3479.5,3478.3,3478.3,691.3,861.2,2020.4,1239.9,1170.9,793.5,0.0,-27.0,26.0,11484.0,-11023.0,2890.0,2588.0,359.0,-121.0,29.0,6.0,-26.0,19.0,11092.0,-11755.0,2423.0,-1169.0,366.0,-12.0,5.0,1.0
2022-05-23 15:53:27.497874-07:00,1275.6,801.9,1391.2,1223.9,925.4,993.6,1814.9,1335.0,3462.5,3457.6,1225.7,939.0,1575.8,3474.6,1653.0,1476.4,3468.6,3474.6,1609.6,2179.9,2996.2,3494.1,1559.9,3475.9,3478.3,3478.3,692.9,859.5,2020.4,1251.5,1165.6,788.6,15.0,56.0,-13.0,11646.0,-10852.0,2878.0,2597.0,508.0,-199.0,4.0,10.0,39.0,6.0,11237.0,-11615.0,2409.0,-1204.0,475.0,24.0,-17.0,1.0
2022-05-23 15:53:27.528836-07:00,1275.6,801.9,1391.2,1219.5,925.4,1000.5,1810.0,1352.1,3462.5,3457.6,1225.7,941.5,1575.8,3454.0,1647.3,1477.3,3473.4,3467.4,1588.9,2179.9,3000.8,3494.1,1559.9,3475.9,3472.2,3474.6,696.2,859.5,2011.4,1251.5,1165.6,788.6,4.0,6.0,0.0,11742.0,-10760.0,2808.0,2626.0,151.0,-243.0,-128.0,0.0,-3.0,-6.0,11333.0,-11522.0,2392.0,-1235.0,177.0,-8.0,-53.0,1.0
2022-05-23 15:53:27.529814-07:00,1290.0,813.5,1380.3,1219.5,918.6,1000.5,1810.0,1352.1,3467.4,3467.4,1232.8,941.5,1583.3,3454.0,1647.3,1477.3,3473.4,3467.4,1588.9,2186.0,3000.8,3486.8,1551.5,3492.9,3472.2,3474.6,696.2,858.7,2011.4,1241.7,1175.3,792.7,-14.0,-11.0,-7.0,11833.0,-10673.0,2747.0,2640.0,328.0,-175.0,-4.0,-1.0,-18.0,4.0,11411.0,-11447.0,2363.0,-1266.0,349.0,-10.0,-51.0,1.0
2022-05-23 15:53:27.587434-07:00,1290.0,813.5,1380.3,1223.9,918.6,989.3,1796.5,1334.1,3467.4,3467.4,1232.8,938.1,1583.3,3466.1,1637.9,1480.1,3475.9,3468.6,1608.7,2186.0,2993.9,3486.8,1551.5,3492.9,3477.1,3463.7,695.4,858.7,2011.4,1241.7,1175.3,792.7,1.0,0.0,-14.0,11941.0,-10556.0,2681.0,2687.0,311.0,-322.0,-42.0,-1.0,-5.0,-4.0,11519.0,-11340.0,2340.0,-1297.0,360.0,-16.0,-28.0,1.0
2022-05-23 15:53:27.647830-07:00,1297.2,803.5,1383.9,1223.9,913.5,989.3,1796.5,1334.1,3467.4,3461.3,1228.4,938.1,1577.7,3466.1,1637.9,1480.1,3475.9,3468.6,1608.7,2179.9,2993.9,3495.3,1547.8,3484.4,3477.1,3463.7,695.4,859.5,2011.4,1245.3,1165.6,788.6,3.0,27.0,-6.0,12082.0,-10410.0,2574.0,2733.0,454.0,-384.0,-109.0,3.0,7.0,11.0,11637.0,-11224.0,2304.0,-1322.0,436.0,-42.0,-50.0,1.0
2022-05-23 15:53:27.678169-07:00,1297.2,803.5,1383.9,1196.5,919.4,997.0,1810.0,1355.8,3467.4,3461.3,1228.4,933.9,1582.4,3472.2,1630.3,1480.1,3475.9,3469.8,1608.7,2189.1,2995.1,3495.3,1547.8,3484.4,3479.5,3472.2,695.4,858.7,2003.5,1245.3,1165.6,788.6,13.0,-15.0,-1.0,12255.0,-10232.0,2414.0,2778.0,518.0,-488.0,-141.0,0.0,10.0,-4.0,11779.0,-11080.0,2252.0,-1363.0,511.0,-51.0,-93.0,1.0
2022-05-23 15:53:27.740106-07:00,1295.4,814.4,1354.9,1196.5,919.4,997.0,1810.0,1355.8,3462.5,3467.4,1224.8,933.9,1582.4,3472.2,1630.3,1480.1,3475.9,3469.8,1608.7,2189.1,3000.8,3486.8,1559.9,3480.7,3479.5,3472.2,695.4,858.7,1999.5,1250.6,1163.0,789.4,-14.0,-24.0,8.0,12441.0,-10013.0,2292.0,2851.0,582.0,-466.0,-27.0,5.0,-28.0,15.0,11957.0,-10896.0,2184.0,-1406.0,621.0,-73.0,-74.0,1.0
2022-05-23 15:53:27.828135-07:00,1295.4,814.4,1354.9,1196.5,916.0,985.9,1801.3,1346.7,3462.5,3467.4,1224.8,933.9,1581.4,3469.8,1635.0,1470.9,3474.6,3471.0,1616.2,2190.1,3000.8,3486.8,1559.9,3480.7,3472.2,3488.0,700.3,862.1,1999.5,1250.6,1163.0,789.4,21.0,-6.0,30.0,12596.0,-9818.0,2181.0,2940.0,399.0,-391.0,26.0,6.0,-4.0,-10.0,12111.0,-10732.0,2132.0,-1433.0,425.0,-57.0,-23.0,1.0
2022-05-23 15:53:27.830761-07:00,1296.3,809.4,1358.5,1184.1,916.0,985.9,1801.3,1346.7,3466.1,3468.6,1219.5,931.3,1581.4,3469.8,1635.0,1470.9,3474.6,3471.0,1616.2,2190.1,3006.5,3488.0,1558.1,3480.7,3472.2,3488.0,700.3,862.1,2005.5,1235.5,1155.0,791.9,12.0,29.0,28.0,12686.0,-9703.0,2122.0,2973.0,243.0,-150.0,-81.0,8.0,7.0,9.0,12198.0,-10638.0,2092.0,-1448.0,230.0,-43.0,-50.0,1.0
2022-05-23 15:53:27.888489-07:00,1296.3,809.4,1358.5,1184.1,911.8,1006.5,1801.3,1336.8,3466.1,3468.6,1219.5,931.3,1580.5,3457.6,1623.7,1468.1,3475.9,3466.1,1602.1,2180.9,3006.5,3488.0,1558.1,3480.7,3467.4,3471.0,687.2,855.3,2005.5,1235.5,1155.0,791.9,4.0,13.0,20.0,12760.0,-9634.0,2051.0,2932.0,187.0,-125.0,-217.0,1.0,23.0,19.0,12244.0,-10589.0,2056.0,-1472.0,146.0,-23.0,-82.0,1.0
2022-05-23 15:53:28.007868-07:00,1288.2,821.9,1338.6,1182.3,911.8,1006.5,1801.3,1336.8,3464.9,3461.3,1215.1,923.7,1580.5,3457.6,1623.7,1468.1,3475.9,3466.1,1602.1,2180.9,3000.8,3480.7,1555.3,3477.1,3467.4,3471.0,687.2,855.3,1999.5,1251.5,1156.8,786.1,-6.0,-31.0,23.0,12825.0,-9563.0,2005.0,2916.0,218.0,-94.0,-34.0,1.0,-29.0,11.0,12295.0,-10533.0,2018.0,-1502.0,224.0,-15.0,-62.0,1.0
2022-05-23 15:53:28.068516-07:00,1288.2,821.9,1338.6,1182.3,928.8,991.0,1812.9,1342.2,3462.5,3461.3,1215.1,923.7,1577.7,3463.7,1633.1,1465.4,3466.1,3469.8,1605.8,2166.7,3000.8,3480.7,1555.3,3490.5,3468.6,3475.9,692.9,861.2,1999.5,1251.5,1156.8,786.1,-9.0,-50.0,22.0,12848.0,-9537.0,1979.0,2915.0,-133.0,-16.0,-45.0,7.0,-85.0,5.0,12327.0,-10498.0,1998.0,-1516.0,-129.0,-16.0,-7.0,1.0
2022-05-23 15:53:28.098384-07:00,1288.2,814.4,1342.2,1167.4,928.8,991.0,1812.9,1343.1,3462.5,3467.4,1213.3,929.6,1577.7,3463.7,1633.1,1458.0,3467.4,3469.8,1605.8,2166.7,3005.4,3484.4,1558.1,3490.5,3478.3,3475.9,692.9,861.2,1999.5,1241.7,1161.2,786.1,18.0,19.0,2.0,12861.0,-9530.0,1965.0,2892.0,95.0,-2.0,-74.0,14.0,0.0,12.0,12313.0,-10511.0,2010.0,-1514.0,46.0,47.0,17.0,1.0
2022-05-23 15:53:28.099251-07:00,1295.4,814.4,1342.2,1167.4,919.4,994.5,1798.4,1343.1,3469.8,3467.4,1213.3,929.6,1580.5,3468.6,1619.0,1458.0,3467.4,3471.0,1599.3,2167.7,3005.4,3484.4,1558.1,3488.0,3478.3,3478.3,685.6,843.6,1999.5,1241.7,1161.2,791.0,20.0,-12.0,7.0,12839.0,-9572.0,1914.0,2882.0,-212.0,-108.0,-99.0,23.0,5.0,13.0,12277.0,-10550.0,2032.0,-1514.0,-211.0,31.0,8.0,1.0
2022-05-23 15:53:28.128381-07:00,1295.4,801.9,1328.7,1161.2,919.4,994.5,1798.4,1337.7,3469.8,3457.6,1216.0,922.0,1580.5,3468.6,1619.0,1456.2,3469.8,3471.0,1599.3,2167.7,2992.8,3490.5,1551.5,3488.0,3475.9,3478.3,685.6,843.6,1982.6,1252.4,1159.4,791.0,18.0,-36.0,7.0,12816.0,-9612.0,1863.0,2888.0,-29.0,-34.0,-22.0,16.0,-22.0,4.0,12226.0,-10605.0,2048.0,-1515.0,-109.0,35.0,15.0,1.0
2022-05-23 15:53:28.187376-07:00,1283.7,801.9,1328.7,1161.2,912.7,998.7,1794.5,1337.7,3468.6,3457.6,1216.0,922.0,1577.7,3457.6,1619.9,1456.2,3469.8,3464.9,1598.3,2171.8,2992.8,3490.5,1551.5,3484.4,3475.9,3480.7,691.3,849.5,1982.6,1252.4,1159.4,791.9,1.0,0.0,-14.0,12810.0,-9621.0,1845.0,2892.0,-43.0,-48.0,-25.0,4.0,-5.0,0.0,12208.0,-10621.0,2070.0,-1516.0,-61.0,40.0,29.0,1.0
2022-05-23 15:53:28.277955-07:00,1283.7,801.9,1344.0,1148.0,912.7,998.7,1784.9,1339.5,3468.6,3462.5,1215.1,927.9,1577.7,3457.6,1611.5,1434.1,3469.8,3466.1,1598.3,2171.8,2997.4,3494.1,1547.8,3484.4,3466.1,3466.1,691.3,849.5,1973.7,1256.9,1179.7,791.9,-9.0,16.0,21.0,12789.0,-9656.0,1815.0,2890.0,-182.0,16.0,-65.0,-8.0,7.0,5.0,12167.0,-10665.0,2096.0,-1505.0,-254.0,35.0,37.0,1.0
2022-05-23 15:53:28.280714-07:00,1285.5,804.4,1344.0,1148.0,927.1,994.5,1784.9,1339.5,3457.6,3471.0,1215.1,927.9,1574.9,3468.6,1611.5,1434.1,3469.8,3466.1,1608.7,2163.6,2997.4,3494.1,1544.1,3485.6,3466.1,3466.1,685.6,844.4,1973.7,1256.9,1181.5,787.7,4.0,13.0,-8.0,12723.0,-9750.0,1809.0,2868.0,-260.0,101.0,-28.0,0.0,9.0,20.0,12081.0,-10758.0,2130.0,-1488.0,-279.0,37.0,34.0,1.0
2022-05-23 15:53:28.338353-07:00,1285.5,804.4,1290.9,1144.5,927.1,994.5,1788.7,1323.2,3457.6,3471.0,1207.1,922.8,1574.9,3468.6,1588.0,1419.5,3457.6,3478.3,1608.7,2163.6,2993.9,3486.8,1544.1,3485.6,3468.6,3473.4,685.6,844.4,1947.9,1241.7,1181.5,787.7,6.0,-16.0,0.0,12642.0,-9853.0,1803.0,2880.0,-380.0,-13.0,61.0,12.0,-1.0,-7.0,11992.0,-10853.0,2159.0,-1479.0,-350.0,38.0,8.0,1.0
2022-05-23 15:53:28.397896-07:00,1290.9,802.7,1290.9,1144.5,913.5,986.7,1788.7,1323.2,3473.4,3467.4,1207.1,922.8,1582.4,3474.6,1588.0,1419.5,3457.6,3478.3,1596.4,2178.9,2993.9,3486.8,1552.5,3481.9,3468.6,3473.4,684.8,852.0,1947.9,1241.7,1167.4,781.9,8.0,11.0,-16.0,12564.0,-9944.0,1804.0,2906.0,-191.0,36.0,58.0,8.0,18.0,15.0,11912.0,-10937.0,2182.0,-1472.0,-211.0,40.0,-11.0,1.0
2022-05-23 15:53:28.427823-07:00,1290.9,802.7,1266.7,1123.5,913.5,986.7,1793.6,1331.4,3473.4,3467.4,1210.6,928.8,1582.4,3474.6,1573.0,1401.2,3467.4,3467.4,1596.4,2178.9,3000.8,3483.2,1552.5,3481.9,3462.5,3473.4,684.8,852.0,1949.9,1221.3,1167.4,781.9,5.0,-11.0,8.0,12478.0,-10039.0,1824.0,2939.0,-344.0,122.0,87.0,8.0,-9.0,-23.0,11807.0,-11047.0,2205.0,-1462.0,-409.0,18.0,2.0,1.0
2022-05-23 15:53:28.487406-07:00,1297.2,796.9,1267.6,1123.5,915.2,979.9,1793.6,1331.4,3466.1,3467.4,1215.1,928.8,1570.2,3468.6,1573.0,1401.2,3467.4,3467.4,1605.8,2153.4,3000.8,3491.7,1552.5,3488.0,3462.5,3473.4,688.9,841.9,1949.9,1197.4,1157.7,784.4,-11.0,-2.0,6.0,12378.0,-10154.0,1870.0,2936.0,-312.0,158.0,79.0,1.0,-14.0,10.0,11696.0,-11161.0,2228.0,-1450.0,-371.0,43.0,3.0,1.0
2022-05-23 15:53:28.578008-07:00,1297.2,796.9,1267.6,1108.6,915.2,978.2,1802.3,1338.6,3466.1,3467.4,1215.1,921.1,1570.2,3462.5,1550.6,1388.5,3471.0,3472.2,1608.7,2153.4,2995.1,3491.7,1552.5,3488.0,3464.9,3467.4,684.0,841.9,1930.2,1197.4,1157.7,784.4,-3.0,-8.0,8.0,12270.0,-10273.0,1911.0,2952.0,-469.0,132.0,105.0,-1.0,29.0,-31.0,11564.0,-11294.0,2254.0,-1439.0,-564.0,28.0,-30.0,1.0
2022-05-23 15:53:28.608345-07:00,1287.3,811.0,1251.5,1108.6,917.7,978.2,1802.3,1338.6,3468.6,3467.4,1207.1,921.1,1578.6,3462.5,1550.6,1388.5,3471.0,3472.2,1608.7,2180.9,2995.1,3489.2,1553.4,3477.1,3464.9,3467.4,684.0,843.6,1930.2,1186.7,1146.3,785.2,0.0,0.0,-3.0,12107.0,-10458.0,1955.0,2946.0,-403.0,199.0,103.0,0.0,0.0,19.0,11415.0,-11444.0,2271.0,-1423.0,-436.0,47.0,-14.0,1.0
2022-05-23 15:53:28.667830-07:00,1287.3,811.0,1251.5,1099.9,917.7,984.2,1865.4,1356.7,3468.6,3467.4,1207.1,911.8,1578.6,3457.6,1529.2,1380.3,3467.4,3463.7,1602.1,2180.9,2988.2,3489.2,1553.4,3477.1,3478.3,3460.1,688.0,843.6,1928.2,1186.7,1146.3,785.2,29.0,79.0,0.0,11941.0,-10630.0,2019.0,2963.0,-686.0,264.0,108.0,13.0,26.0,-61.0,11180.0,-11669.0,2300.0,-1407.0,-949.0,24.0,-76.0,1.0
2022-05-23 15:53:28.669039-07:00,1285.5,806.9,1223.9,1099.9,911.0,984.2,1865.4,1356.7,3464.9,3464.9,1174.4,911.8,1576.8,3457.6,1529.2,1380.3,3467.4,3463.7,1602.1,2178.9,2988.2,3488.0,1597.4,3486.8,3478.3,3460.1,688.0,844.4,1928.2,1163.8,1139.2,786.9,-31.0,-85.0,17.0,11587.0,-11027.0,2043.0,2897.0,-1144.0,336.0,-21.0,-4.0,-97.0,37.0,10830.0,-11997.0,2311.0,-1370.0,-1216.0,36.0,-78.0,1.0
2022-05-23 15:53:28.728384-07:00,1285.5,806.9,1223.9,1076.4,911.0,986.7,1906.6,1351.2,3464.9,3464.9,1174.4,899.1,1576.8,3468.6,1448.8,1361.2,3467.4,3467.4,1608.7,2178.9,2986.0,3488.0,1597.4,3486.8,3477.1,3473.4,692.9,844.4,1927.2,1163.8,1139.2,786.9,2.0,29.0,-8.0,11412.0,-11209.0,2104.0,2850.0,-207.0,346.0,38.0,-2.0,16.0,-13.0,10574.0,-12219.0,2346.0,-1352.0,-353.0,54.0,-11.0,1.0
2022-05-23 15:53:28.788682-07:00,1280.1,818.5,1161.2,1028.8,916.9,986.7,1906.6,1351.2,3471.0,3457.6,1150.6,884.8,1574.9,3468.6,1448.8,1361.2,3467.4,3467.4,1608.7,2187.1,3001.9,3481.9,1636.0,3488.0,3477.1,3473.4,692.9,831.9,1915.4,1129.6,1075.6,791.9,-12.0,8.0,8.0,11315.0,-11320.0,2149.0,2766.0,-369.0,198.0,-99.0,-6.0,-7.0,1.0,10440.0,-12331.0,2360.0,-1346.0,-463.0,20.0,-46.0,1.0
2022-05-23 15:53:28.877963-07:00,1280.1,818.5,1161.2,1028.8,915.2,993.6,1912.4,1333.2,3471.0,3457.6,1150.6,884.8,1577.7,3457.6,1379.4,1325.9,3475.9,3474.6,1604.9,2171.8,3001.9,3481.9,1636.0,3488.0,3488.0,3474.6,688.0,816.0,1915.4,1129.6,1075.6,791.9,14.0,-5.0,9.0,11231.0,-11417.0,2160.0,2697.0,-219.0,233.0,-58.0,8.0,0.0,-25.0,10301.0,-12447.0,2365.0,-1344.0,-389.0,38.0,-62.0,1.0
2022-05-23 15:53:28.908138-07:00,1287.3,826.9,1151.5,1012.5,915.2,993.6,1912.4,1333.2,3473.4,3475.9,1133.1,878.0,1577.7,3457.6,1379.4,1325.9,3475.9,3474.6,1604.9,2171.8,2981.4,3486.8,1663.4,3497.8,3488.0,3474.6,688.0,816.0,1906.6,1105.1,1061.7,783.6,-7.0,16.0,3.0,11104.0,-11557.0,2196.0,2595.0,-586.0,327.0,-132.0,3.0,16.0,1.0,10117.0,-12598.0,2365.0,-1335.0,-816.0,5.0,-79.0,1.0
2022-05-23 15:53:28.937355-07:00,1287.3,826.9,1151.5,1012.5,922.8,991.9,1951.9,1304.3,3473.4,3475.9,1133.1,878.0,1576.8,3468.6,1344.0,1307.0,3475.9,3472.2,1596.4,2153.4,2981.4,3486.8,1663.4,3497.8,3473.4,3472.2,685.6,792.7,1906.6,1105.1,1061.7,783.6,-5.0,-56.0,19.0,10886.0,-11779.0,2198.0,2522.0,-537.0,203.0,-50.0,8.0,-23.0,14.0,9876.0,-12788.0,2376.0,-1309.0,-472.0,18.0,-18.0,1.0
2022-05-23 15:53:28.968204-07:00,1303.4,836.1,1135.7,1003.0,922.8,991.9,1951.9,1304.3,3464.9,3466.1,1118.2,876.4,1576.8,3468.6,1344.0,1307.0,3475.9,3472.2,1596.4,2153.4,2981.4,3484.4,1663.4,3495.3,3473.4,3472.2,685.6,792.7,1898.7,1095.6,1041.8,781.9,14.0,-8.0,15.0,10743.0,-11919.0,2211.0,2462.0,-358.0,227.0,-105.0,6.0,-1.0,7.0,9727.0,-12902.0,2386.0,-1291.0,-321.0,9.0,-33.0,1.0
2022-05-23 15:53:29.028329-07:00,1299.0,836.1,1135.7,1003.0,917.7,980.7,1945.0,1300.7,3462.5,3466.1,1118.2,876.4,1600.2,3462.5,1330.5,1305.2,3488.0,3467.4,1592.7,2168.7,2981.4,3484.4,1663.4,3484.4,3488.0,3467.4,690.5,788.6,1898.7,1095.6,1041.8,788.6,-5.0,3.0,1.0,10638.0,-12027.0,2213.0,2394.0,-354.0,137.0,-92.0,2.0,-8.0,8.0,9612.0,-12988.0,2389.0,-1286.0,-326.0,26.0,-43.0,1.0
2022-05-23 15:53:29.147840-07:00,1299.0,831.9,1117.4,1000.5,917.7,980.7,1945.0,1292.7,3462.5,3472.2,1121.7,875.5,1600.2,3462.5,1330.5,1294.5,3468.6,3467.4,1592.7,2168.7,2976.8,3490.5,1669.1,3484.4,3471.0,3467.4,690.5,788.6,1888.9,1091.2,1034.0,788.6,-13.0,-12.0,14.0,10550.0,-12117.0,2184.0,2352.0,-199.0,69.0,-117.0,-4.0,-11.0,0.0,9518.0,-13056.0,2391.0,-1290.0,-171.0,35.0,-31.0,1.0
2022-05-23 15:53:29.149041-07:00,1290.0,831.9,1117.4,1000.5,923.7,970.5,1929.2,1292.7,3466.1,3472.2,1121.7,875.5,1583.3,3469.8,1318.7,1294.5,3468.6,3477.1,1604.9,2159.5,2976.8,3490.5,1669.1,3489.2,3471.0,3478.3,684.0,785.2,1888.9,1091.2,1034.0,777.8,1.0,0.0,12.0,10525.0,-12153.0,2165.0,2296.0,-54.0,121.0,-94.0,-5.0,9.0,-8.0,9476.0,-13085.0,2395.0,-1302.0,-84.0,40.0,-23.0,1.0
2022-05-23 15:53:29.207900-07:00,1290.0,835.2,1104.3,987.6,923.7,970.5,1929.2,1295.4,3466.1,3463.7,1115.6,866.3,1583.3,3469.8,1318.7,1287.3,3478.3,3477.1,1604.9,2159.5,2978.0,3491.7,1658.7,3489.2,3477.1,3478.3,684.0,785.2,1876.2,1083.4,1020.2,777.8,-10.0,-16.0,-1.0,10505.0,-12176.0,2176.0,2253.0,-31.0,55.0,-26.0,3.0,-10.0,-4.0,9450.0,-13101.0,2401.0,-1313.0,-8.0,25.0,-2.0,1.0
2022-05-23 15:53:29.237786-07:00,1293.6,835.2,1104.3,987.6,928.8,973.9,1912.4,1295.4,3467.4,3463.7,1115.6,866.3,1583.3,3464.9,1307.0,1287.3,3478.3,3468.6,1603.0,2161.6,2978.0,3491.7,1658.7,3488.0,3477.1,3471.0,675.8,777.8,1876.2,1083.4,1020.2,786.1,11.0,-17.0,7.0,10507.0,-12176.0,2180.0,2243.0,23.0,17.0,12.0,11.0,-4.0,-13.0,9449.0,-13100.0,2406.0,-1321.0,42.0,13.0,0.0,1.0
2022-05-23 15:53:29.268326-07:00,1293.6,825.2,1105.1,992.7,928.8,973.9,1887.9,1286.4,3467.4,3468.6,1108.6,866.3,1583.3,3464.9,1299.8,1287.3,3475.9,3478.3,1603.0,2161.6,2973.4,3481.9,1661.5,3488.0,3472.2,3483.2,675.8,777.8,1874.2,1082.5,1014.2,786.1,5.0,0.0,10.0,10532.0,-12155.0,2191.0,2229.0,96.0,24.0,-6.0,7.0,9.0,1.0,9472.0,-13084.0,2403.0,-1327.0,88.0,-1.0,6.0,1.0
2022-05-23 15:53:29.328251-07:00,1288.2,821.9,1105.1,992.7,918.6,962.0,1887.9,1286.4,3469.8,3462.5,1108.6,866.3,1582.4,3466.1,1299.8,1287.3,3475.9,3478.3,1596.4,2155.5,2973.4,3481.9,1653.9,3477.1,3472.2,3483.2,677.4,781.1,1874.2,1082.5,1010.8,786.9,2.0,-5.0,10.0,10537.0,-12151.0,2193.0,2227.0,-6.0,10.0,-6.0,0.0,0.0,0.0,9476.0,-13081.0,2403.0,-1328.0,-2.0,2.0,4.0,1.0
2022-05-23 15:53:29.417804-07:00,1288.2,821.9,1105.1,987.6,918.6,962.0,1864.5,1263.1,3469.8,3462.5,1103.4,864.6,1582.4,3466.1,1295.4,1283.7,3469.8,3462.5,1596.4,2155.5,2988.2,3497.8,1653.9,3477.1,3469.8,3469.8,677.4,781.1,1885.0,1079.0,1010.8,786.9,-4.0,11.0,4.0,10551.0,-12139.0,2202.0,2217.0,63.0,22.0,-1.0,-1.0,15.0,0.0,9489.0,-13071.0,2401.0,-1331.0,57.0,2.0,-1.0,1.0
2022-05-23 15:53:29.419173-07:00,1305.2,814.4,1105.1,987.6,918.6,962.8,1864.5,1263.1,3466.1,3478.3,1103.4,864.6,1578.6,3471.0,1295.4,1283.7,3469.8,3462.5,1601.1,2170.7,2988.2,3497.8,1651.1,3481.9,3469.8,3469.8,675.8,773.6,1885.0,1079.0,1018.5,790.2,0.0,1.0,1.0,10544.0,-12147.0,2195.0,2215.0,-65.0,-13.0,-39.0,0.0,-4.0,-4.0,9478.0,-13079.0,2401.0,-1330.0,-68.0,-7.0,-12.0,1.0
2022-05-23 15:53:29.478708-07:00,1305.2,814.4,1106.0,989.3,918.6,962.8,1871.3,1286.4,3466.1,3478.3,1103.4,864.6,1578.6,3471.0,1294.5,1281.9,3473.4,3474.6,1601.1,2170.7,2980.3,3495.3,1651.1,3481.9,3471.0,3488.0,675.8,773.6,1886.0,1076.4,1018.5,790.2,6.0,-6.0,5.0,10549.0,-12144.0,2190.0,2209.0,22.0,0.0,11.0,6.0,0.0,-5.0,9480.0,-13078.0,2400.0,-1331.0,19.0,-9.0,-3.0,1.0
2022-05-23 15:53:29.537340-07:00,1302.5,820.2,1106.0,989.3,911.8,957.7,1871.3,1286.4,3462.5,3457.6,1103.4,864.6,1582.4,3462.5,1294.5,1281.9,3473.4,3474.6,1592.7,2168.7,2980.3,3495.3,1650.2,3497.8,3471.0,3488.0,676.6,772.0,1886.0,1076.4,1017.6,787.7,-5.0,-5.0,0.0,10547.0,-12145.0,2190.0,2214.0,-25.0,-37.0,23.0,8.0,4.0,8.0,9479.0,-13080.0,2396.0,-1327.0,-13.0,-15.0,3.0,1.0
2022-05-23 15:53:29.568135-07:00,1302.5,820.2,1099.9,984.2,911.8,946.6,1868.4,1274.7,3462.5,3457.6,1101.7,867.1,1582.4,3466.1,1297.2,1273.9,3472.2,3473.4,1593.6,2168.7,2979.1,3491.7,1650.2,3497.8,3469.8,3474.6,668.4,772.0,1872.3,1071.2,1017.6,787.7,8.0,-25.0,18.0,10524.0,-12160.0,2175.0,2255.0,-67.0,-83.0,57.0,8.0,-9.0,0.0,9462.0,-13094.0,2392.0,-1318.0,-28.0,-25.0,7.0,1.0
2022-05-23 15:53:29.778790-07:00,1299.8,818.5,1104.3,984.2,905.0,946.6,1868.4,1274.7,3469.8,3472.2,1099.9,867.1,1573.9,3466.1,1297.2,1273.9,3472.2,3473.4,1593.6,2152.4,2979.1,3491.7,1652.0,3496.6,3469.8,3474.6,668.4,768.7,1872.3,1077.3,1017.6,785.2,-19.0,-18.0,-5.0,10517.0,-12154.0,2159.0,2333.0,-20.0,-249.0,101.0,0.0,-14.0,-1.0,9472.0,-13088.0,2390.0,-1309.0,60.0,-26.0,33.0,1.0
2022-05-23 15:53:29.780019-07:00,1299.8,818.5,1104.3,983.3,905.0,944.9,1852.8,1267.6,3469.8,3472.2,1099.9,864.6,1573.9,3468.6,1286.4,1270.3,3475.9,3467.4,1599.3,2152.4,2979.1,3491.7,1652.0,3496.6,3478.3,3473.4,675.0,768.7,1876.2,1077.3,1017.6,785.2,16.0,8.0,23.0,10554.0,-12105.0,2139.0,2435.0,128.0,-170.0,105.0,4.0,18.0,-17.0,9529.0,-13047.0,2391.0,-1299.0,180.0,-31.0,40.0,1.0
2022-05-23 15:53:29.780913-07:00,1286.4,817.7,1095.6,983.3,908.4,944.9,1852.8,1267.6,3468.6,3457.6,1099.9,864.6,1576.8,3468.6,1286.4,1270.3,3475.9,3467.4,1599.3,2153.4,2979.1,3502.7,1646.4,3495.3,3478.3,3473.4,675.0,769.5,1876.2,1070.3,1005.6,792.7,8.0,19.0,28.0,10562.0,-12095.0,2134.0,2454.0,-35.0,14.0,-30.0,3.0,2.0,16.0,9538.0,-13041.0,2389.0,-1294.0,-40.0,-2.0,-9.0,1.0
2022-05-23 15:53:29.781962-07:00,1286.4,817.7,1095.6,984.2,908.4,959.4,1849.8,1269.4,3468.6,3457.6,1099.9,865.4,1576.8,3463.7,1282.8,1274.7,3473.4,3463.7,1596.4,2153.4,2987.1,3502.7,1646.4,3495.3,3478.3,3466.1,668.4,769.5,1871.3,1070.3,1005.6,792.7,4.0,3.0,15.0,10560.0,-12102.0,2127.0,2437.0,-34.0,31.0,-29.0,0.0,4.0,-1.0,9529.0,-13047.0,2390.0,-1303.0,-45.0,28.0,-13.0,1.0
2022-05-23 15:53:29.837275-07:00,1303.4,814.4,1093.8,985.0,912.7,959.4,1849.8,1269.4,3471.0,3460.1,1096.4,857.9,1580.5,3463.7,1282.8,1274.7,3473.4,3463.7,1596.4,2193.2,2974.6,3477.1,1648.3,3492.9,3478.3,3466.1,668.4,766.2,1862.5,1071.2,1006.5,771.1,0.0,-21.0,14.0,10551.0,-12114.0,2131.0,2413.0,12.0,59.0,-28.0,7.0,-7.0,7.0,9512.0,-13057.0,2395.0,-1308.0,-9.0,14.0,4.0,1.0
2022-05-23 15:53:29.868065-07:00,1303.4,814.4,1093.8,985.0,922.8,945.8,1833.3,1262.2,3471.0,3460.1,1096.4,857.9,1579.6,3475.9,1288.2,1270.3,3475.9,3469.8,1600.2,2143.3,2974.6,3477.1,1648.3,3492.9,3479.5,3471.0,673.3,766.2,1862.5,1071.2,1006.5,771.1,1.0,-2.0,6.0,10563.0,-12105.0,2147.0,2388.0,37.0,57.0,-18.0,7.0,0.0,-5.0,9520.0,-13050.0,2405.0,-1315.0,22.0,24.0,15.0,1.0
2022-05-23 15:53:29.928402-07:00,1295.4,821.0,1105.1,979.9,922.8,945.8,1833.3,1262.2,3463.7,3468.6,1095.6,862.9,1579.6,3475.9,1288.2,1270.3,3475.9,3469.8,1600.2,2143.3,2979.1,3486.8,1645.4,3488.0,3479.5,3471.0,673.3,766.2,1873.2,1073.8,999.6,782.7,14.0,-10.0,13.0,10560.0,-12112.0,2147.0,2370.0,2.0,36.0,-24.0,10.0,2.0,-4.0,9509.0,-13056.0,2410.0,-1320.0,-18.0,17.0,4.0,1.0
2022-05-23 15:53:30.018374-07:00,1295.4,821.0,1105.1,979.9,906.7,938.1,1840.1,1255.1,3463.7,3468.6,1095.6,862.9,1582.4,3458.9,1282.8,1270.3,3478.3,3478.3,1597.4,2147.3,2979.1,3486.8,1645.4,3488.0,3480.7,3472.2,662.7,764.5,1873.2,1073.8,999.6,782.7,9.0,-9.0,22.0,10602.0,-12079.0,2166.0,2331.0,220.0,102.0,-17.0,2.0,-1.0,8.0,9539.0,-13032.0,2412.0,-1335.0,167.0,32.0,4.0,1.0
2022-05-23 15:53:30.019783-07:00,1294.5,821.0,1087.7,983.3,906.7,938.1,1840.1,1255.1,3474.6,3460.1,1090.3,860.4,1582.4,3458.9,1282.8,1270.3,3478.3,3478.3,1597.4,2147.3,2972.3,3481.9,1650.2,3499.0,3480.7,3472.2,662.7,764.5,1860.6,1074.7,1003.0,781.1,-9.0,9.0,-6.0,10646.0,-12041.0,2191.0,2305.0,17.0,32.0,-6.0,-2.0,5.0,-13.0,9577.0,-13002.0,2416.0,-1353.0,8.0,25.0,4.0,1.0
2022-05-23 15:53:30.107975-07:00,1309.7,821.0,1087.7,983.3,907.6,939.8,1826.5,1266.7,3467.4,3460.1,1090.3,860.4,1574.9,3468.6,1296.3,1275.6,3472.2,3471.0,1585.2,2142.2,2972.3,3481.9,1650.2,3478.3,3477.1,3472.2,667.6,762.0,1860.6,1074.7,1003.0,776.1,-1.0,-13.0,5.0,10629.0,-12057.0,2204.0,2286.0,-40.0,70.0,3.0,4.0,-4.0,-4.0,9555.0,-13017.0,2422.0,-1349.0,-62.0,9.0,14.0,1.0
2022-05-23 15:53:30.137356-07:00,1309.7,811.0,1090.3,987.6,907.6,939.8,1826.5,1257.8,3467.4,3464.9,1092.1,857.9,1574.9,3468.6,1296.3,1263.1,3466.1,3471.0,1585.2,2142.2,2976.8,3491.7,1643.5,3478.3,3478.3,3472.2,667.6,762.0,1854.7,1067.7,1000.5,776.1,2.0,5.0,-2.0,10625.0,-12062.0,2211.0,2272.0,27.0,2.0,-25.0,5.0,1.0,0.0,9547.0,-13022.0,2428.0,-1350.0,19.0,6.0,4.0,1.0
2022-05-23 15:53:30.168138-07:00,1288.2,811.0,1090.3,987.6,910.1,934.7,1828.4,1257.8,3462.5,3464.9,1092.1,857.9,1571.1,3467.4,1286.4,1263.1,3466.1,3467.4,1600.2,2146.3,2976.8,3491.7,1643.5,3492.9,3478.3,3475.9,666.0,758.7,1854.7,1067.7,1000.5,774.5,5.0,1.0,-9.0,10634.0,-12058.0,2196.0,2267.0,10.0,-34.0,-48.0,5.0,1.0,-10.0,9553.0,-13019.0,2422.0,-1353.0,23.0,-15.0,-24.0,1.0
2022-05-23 15:53:30.227985-07:00,1288.2,819.4,1098.2,999.6,910.1,934.7,1828.4,1252.4,3462.5,3462.5,1093.8,854.5,1571.1,3467.4,1286.4,1268.5,3480.7,3467.4,1600.2,2146.3,2963.2,3489.2,1642.6,3492.9,3478.3,3475.9,666.0,758.7,1852.8,1066.0,1003.9,774.5,-2.0,-26.0,-5.0,10665.0,-12038.0,2155.0,2270.0,125.0,-125.0,-71.0,5.0,-24.0,-3.0,9594.0,-12991.0,2407.0,-1354.0,201.0,-38.0,1.0,1.0
2022-05-23 15:53:30.318083-07:00,1287.3,819.4,1098.2,999.6,913.5,930.5,1825.5,1252.4,3471.0,3462.5,1093.8,854.5,1566.5,3457.6,1282.8,1268.5,3480.7,3477.1,1597.4,2134.1,2963.2,3489.2,1642.6,3494.1,3478.3,3485.6,669.3,769.5,1852.8,1066.0,1003.9,779.4,-15.0,-16.0,-19.0,10770.0,-11946.0,2098.0,2311.0,435.0,-317.0,55.0,-11.0,11.0,0.0,9746.0,-12883.0,2377.0,-1349.0,566.0,-102.0,30.0,1.0
2022-05-23 15:53:30.320344-07:00,1287.3,818.5,1146.3,1087.7,913.5,930.5,1927.2,1264.0,3471.0,3466.1,1100.8,861.2,1566.5,3457.6,1337.7,1280.1,3468.6,3473.4,1597.4,2134.1,2964.3,3484.4,1637.9,3494.1,3472.2,3478.3,669.3,769.5,1856.7,1088.6,1028.8,779.4,-8.0,-24.0,10.0,10891.0,-11824.0,2021.0,2437.0,311.0,-487.0,-2.0,15.0,-31.0,19.0,9931.0,-12749.0,2345.0,-1338.0,569.0,-77.0,47.0,1.0
2022-05-23 15:53:30.377998-07:00,1296.3,807.7,1146.3,1087.7,909.3,967.9,1927.2,1264.0,3472.2,3463.7,1100.8,861.2,1573.9,3462.5,1337.7,1280.1,3468.6,3473.4,1587.1,2146.3,2964.3,3484.4,1627.5,3485.6,3472.2,3478.3,673.3,806.0,1856.7,1088.6,1089.5,784.4,49.0,7.0,23.0,11079.0,-11642.0,1904.0,2555.0,652.0,-400.0,-8.0,19.0,24.0,-15.0,10187.0,-12547.0,2320.0,-1358.0,813.0,-25.0,23.0,1.0
2022-05-23 15:53:30.437828-07:00,1296.3,807.7,1206.2,1130.5,909.3,967.9,1992.5,1264.9,3472.2,3463.7,1097.3,869.6,1573.9,3462.5,1408.5,1299.0,3464.9,3473.4,1587.1,2146.3,2976.8,3488.0,1627.5,3485.6,3471.0,3474.6,673.3,806.0,1866.4,1135.7,1089.5,784.4,-5.0,5.0,1.0,11288.0,-11433.0,1866.0,2609.0,629.0,-247.0,-37.0,3.0,-12.0,0.0,10392.0,-12380.0,2295.0,-1386.0,748.0,-19.0,7.0,1.0
2022-05-23 15:53:30.528017-07:00,1303.4,806.9,1206.2,1130.5,905.9,988.5,1992.5,1264.9,3467.4,3471.0,1097.3,869.6,1569.3,3469.8,1408.5,1299.0,3464.9,3473.4,1595.5,2145.3,2976.8,3488.0,1619.0,3475.9,3471.0,3474.6,677.4,851.1,1866.4,1135.7,1133.1,774.5,7.0,-16.0,10.0,11517.0,-11213.0,1793.0,2619.0,729.0,-271.0,-155.0,-19.0,7.0,-18.0,10640.0,-12169.0,2263.0,-1425.0,819.0,-30.0,0.0,1.0
2022-05-23 15:53:30.530766-07:00,1303.4,806.9,1223.0,1128.7,905.9,988.5,1993.5,1274.7,3467.4,3471.0,1106.0,866.3,1569.3,3469.8,1494.0,1324.1,3468.6,3473.4,1595.5,2145.3,2971.1,3490.5,1619.0,3475.9,3468.6,3478.3,677.4,851.1,1846.9,1177.0,1133.1,774.5,-33.0,-31.0,-9.0,11790.0,-10929.0,1788.0,2606.0,1050.0,-132.0,-12.0,0.0,-36.0,29.0,10926.0,-11915.0,2224.0,-1461.0,1105.0,-39.0,26.0,1.0
2022-05-23 15:53:30.618006-07:00,1284.6,804.4,1223.0,1128.7,898.3,984.2,1993.5,1274.7,3468.6,3464.9,1106.0,866.3,1566.5,3471.0,1494.0,1324.1,3468.6,3473.4,1598.3,2152.4,2971.1,3490.5,1615.2,3488.0,3468.6,3478.3,682.3,892.4,1846.9,1177.0,1143.6,773.6,-2.0,20.0,-39.0,12094.0,-10579.0,1759.0,2677.0,867.0,-448.0,66.0,7.0,17.0,-38.0,11264.0,-11601.0,2180.0,-1495.0,851.0,-95.0,46.0,1.0
2022-05-23 15:53:30.620705-07:00,1284.6,804.4,1245.3,1125.2,898.3,979.9,1990.5,1316.9,3468.6,3464.9,1114.7,870.5,1566.5,3466.1,1515.3,1341.3,3473.4,3478.3,1598.3,2152.4,2978.0,3486.8,1615.2,3488.0,3472.2,3478.3,692.1,892.4,1849.8,1184.1,1143.6,773.6,11.0,5.0,24.0,12291.0,-10343.0,1704.0,2737.0,616.0,-238.0,-48.0,12.0,1.0,8.0,11487.0,-11389.0,2131.0,-1493.0,639.0,-86.0,26.0,1.0
2022-05-23 15:53:30.677990-07:00,1275.6,805.2,1236.4,1125.2,903.4,979.9,1990.5,1316.9,3464.9,3463.7,1110.4,870.5,1573.0,3466.1,1515.3,1341.3,3473.4,3478.3,1598.3,2151.4,2978.0,3492.9,1602.1,3496.6,3472.2,3478.3,692.1,893.2,1849.8,1191.2,1140.1,780.3,15.0,29.0,28.0,12433.0,-10172.0,1678.0,2752.0,316.0,-77.0,0.0,9.0,7.0,2.0,11650.0,-11229.0,2094.0,-1498.0,273.0,-56.0,-4.0,1.0
2022-05-23 15:53:30.767672-07:00,1275.6,805.2,1236.4,1137.5,903.4,987.6,1962.8,1332.3,3464.9,3463.7,1110.4,870.5,1573.0,3464.9,1518.0,1344.0,3474.6,3468.6,1603.0,2151.4,2982.5,3492.9,1602.1,3496.6,3472.2,3464.9,698.7,893.2,1841.1,1191.2,1140.1,780.3,-20.0,-20.0,14.0,12484.0,-10115.0,1669.0,2738.0,116.0,-71.0,-54.0,2.0,-22.0,26.0,11706.0,-11175.0,2070.0,-1494.0,140.0,-29.0,12.0,1.0
2022-05-23 15:53:30.797814-07:00,1288.2,801.9,1223.9,1137.5,904.2,987.6,1962.8,1332.3,3462.5,3463.7,1113.9,870.5,1573.9,3464.9,1518.0,1344.0,3474.6,3468.6,1603.0,2156.5,2982.5,3491.7,1602.1,3480.7,3472.2,3464.9,698.7,892.4,1841.1,1196.5,1153.3,779.4,14.0,-1.0,17.0,12525.0,-10064.0,1653.0,2746.0,158.0,-42.0,11.0,7.0,2.0,7.0,11755.0,-11125.0,2064.0,-1488.0,151.0,-8.0,30.0,1.0
2022-05-23 15:53:30.917551-07:00,1288.2,801.9,1223.9,1122.6,904.2,995.3,1991.5,1367.6,3462.5,3463.7,1113.9,870.5,1573.9,3462.5,1525.5,1348.5,3477.1,3471.0,1592.7,2156.5,2991.7,3491.7,1602.1,3480.7,3475.9,3468.6,697.9,892.4,1853.7,1196.5,1153.3,779.4,4.0,3.0,2.0,12566.0,-10014.0,1659.0,2738.0,142.0,4.0,-24.0,10.0,10.0,0.0,11796.0,-11081.0,2069.0,-1487.0,115.0,12.0,33.0,1.0
2022-05-23 15:53:30.920063-07:00,1285.5,814.4,1230.2,1129.6,905.0,995.3,1991.5,1367.6,3473.4,3456.4,1118.2,870.5,1569.3,3462.5,1525.5,1348.5,3477.1,3471.0,1592.7,2151.4,2993.9,3497.8,1588.9,3483.2,3475.9,3468.6,697.9,890.7,1849.8,1222.2,1163.8,780.3,6.0,1.0,-2.0,12605.0,-9970.0,1664.0,2717.0,192.0,16.0,-48.0,12.0,-2.0,6.0,11828.0,-11045.0,2079.0,-1491.0,157.0,26.0,23.0,1.0
2022-05-23 15:53:30.921079-07:00,1285.5,814.4,1230.2,1129.6,905.9,990.2,1985.6,1389.4,3473.4,3456.4,1118.2,870.5,1567.4,3466.1,1558.1,1358.5,3475.9,3466.1,1596.4,2153.4,2993.9,3497.8,1588.9,3483.2,3473.4,3466.1,707.7,885.6,1849.8,1222.2,1163.8,780.3,10.0,10.0,-17.0,12651.0,-9919.0,1652.0,2694.0,125.0,-35.0,-78.0,2.0,4.0,-1.0,11865.0,-11003.0,2085.0,-1500.0,100.0,15.0,12.0,1.0
2022-05-23 15:53:30.978029-07:00,1289.1,801.9,1230.2,1126.1,905.9,990.2,1985.6,1389.4,3473.4,3464.9,1120.0,873.8,1567.4,3466.1,1558.1,1358.5,3475.9,3466.1,1596.4,2153.4,2999.7,3488.0,1597.4,3485.6,3473.4,3466.1,707.7,885.6,1838.2,1259.6,1204.4,792.7,-23.0,-14.0,-1.0,12676.0,-9895.0,1630.0,2683.0,62.0,-41.0,-48.0,-10.0,-14.0,-3.0,11886.0,-10980.0,2082.0,-1504.0,56.0,-7.0,8.0,1.0
2022-05-23 15:53:31.037327-07:00,1289.1,801.9,1230.2,1126.1,907.6,996.2,1973.7,1398.5,3473.4,3464.9,1120.0,873.8,1579.6,3467.4,1596.4,1385.7,3474.6,3466.1,1579.6,2137.2,2999.7,3488.0,1597.4,3485.6,3472.2,3478.3,700.3,885.6,1838.2,1259.6,1204.4,792.7,0.0,4.0,-29.0,12708.0,-9859.0,1622.0,2668.0,133.0,8.0,-22.0,-8.0,9.0,-19.0,11916.0,-10950.0,2079.0,-1495.0,134.0,-34.0,15.0,1.0
2022-05-23 15:53:31.068315-07:00,1291.8,799.4,1222.2,1134.0,907.6,996.2,1973.7,1398.5,3463.7,3464.9,1127.9,877.2,1579.6,3467.4,1596.4,1385.7,3474.6,3466.1,1579.6,2137.2,3011.1,3484.4,1588.9,3491.7,3472.2,3478.3,700.3,885.6,1848.9,1283.7,1242.6,781.1,-26.0,-20.0,-8.0,12704.0,-9863.0,1619.0,2672.0,-36.0,-51.0,-3.0,-10.0,-13.0,-2.0,11923.0,-10946.0,2070.0,-1476.0,-19.0,-56.0,19.0,1.0
2022-05-23 15:53:31.157927-07:00,1280.1,799.4,1222.2,1134.0,904.2,983.3,1945.0,1396.7,3462.5,3464.9,1127.9,877.2,1565.5,3466.1,1629.4,1405.8,3478.3,3483.2,1592.7,2160.5,3011.1,3484.4,1588.9,3486.8,3483.2,3473.4,707.7,878.9,1848.9,1283.7,1242.6,788.6,-6.0,6.0,-26.0,12725.0,-9833.0,1600.0,2696.0,132.0,-130.0,14.0,8.0,9.0,-11.0,11954.0,-10918.0,2057.0,-1452.0,149.0,-65.0,30.0,1.0
2022-05-23 15:53:31.187983-07:00,1280.1,801.9,1239.1,1124.4,904.2,983.3,1945.0,1390.3,3462.5,3475.9,1145.4,878.0,1565.5,3466.1,1629.4,1439.6,3480.7,3483.2,1592.7,2160.5,2998.5,3490.5,1588.9,3486.8,3473.4,3473.4,707.7,878.9,1864.5,1330.5,1282.8,788.6,59.0,10.0,40.0,12748.0,-9799.0,1576.0,2725.0,18.0,9.0,28.0,6.0,3.0,0.0,11988.0,-10888.0,2031.0,-1434.0,71.0,-82.0,-6.0,1.0
2022-05-23 15:53:31.217729-07:00,1282.8,801.9,1239.1,1124.4,902.5,985.0,1941.0,1390.3,3472.2,3475.9,1145.4,878.0,1563.7,3461.3,1675.7,1439.6,3480.7,3473.4,1591.7,2151.4,2998.5,3490.5,1588.9,3485.6,3473.4,3469.8,701.9,874.7,1864.5,1330.5,1282.8,796.0,8.0,8.0,27.0,12744.0,-9800.0,1609.0,2723.0,-43.0,76.0,38.0,19.0,-3.0,23.0,11998.0,-10882.0,2010.0,-1418.0,-12.0,-39.0,2.0,1.0
2022-05-23 15:53:31.307391-07:00,1282.8,799.4,1276.5,1160.3,902.5,985.0,1941.0,1375.7,3472.2,3467.4,1148.9,872.1,1563.7,3461.3,1675.7,1485.6,3473.4,3473.4,1591.7,2151.4,2975.7,3492.9,1587.1,3485.6,3477.1,3469.8,701.9,874.7,1940.0,1330.5,1289.1,796.0,18.0,-4.0,9.0,12730.0,-9816.0,1634.0,2713.0,-38.0,77.0,41.0,19.0,0.0,17.0,11990.0,-10893.0,2002.0,-1417.0,-26.0,0.0,7.0,1.0
2022-05-23 15:53:31.338269-07:00,1288.2,799.4,1276.5,1160.3,911.8,987.6,1927.2,1375.7,3469.8,3467.4,1148.9,872.1,1571.1,3469.8,1703.3,1485.6,3473.4,3478.3,1594.6,2143.3,2975.7,3492.9,1587.1,3485.6,3477.1,3478.3,701.9,876.4,1940.0,1330.5,1289.1,801.9,17.0,8.0,4.0,12718.0,-9829.0,1660.0,2706.0,-25.0,70.0,17.0,12.0,1.0,6.0,11986.0,-10898.0,2000.0,-1418.0,-14.0,-1.0,-5.0,1.0
2022-05-23 15:53:31.368020-07:00,1288.2,801.9,1299.0,1172.6,911.8,987.6,1908.5,1384.8,3469.8,3467.4,1137.5,871.3,1571.1,3469.8,1691.9,1481.0,3478.3,3462.5,1594.6,2143.3,2988.2,3499.0,1574.9,3485.6,3469.8,3474.6,701.9,876.4,1947.9,1321.4,1273.9,801.9,-4.0,9.0,-3.0,12697.0,-9861.0,1673.0,2681.0,-136.0,66.0,-46.0,-1.0,1.0,0.0,11970.0,-10916.0,1996.0,-1422.0,-102.0,-2.0,-24.0,1.0
2022-05-23 15:53:31.427950-07:00,1288.2,802.7,1299.0,1172.6,896.6,979.0,1908.5,1384.8,3475.9,3462.5,1137.5,871.3,1566.5,3469.8,1691.9,1481.0,3478.3,3462.5,1591.7,2161.6,2988.2,3499.0,1572.1,3492.9,3469.8,3474.6,697.9,873.0,1947.9,1321.4,1270.3,797.7,2.0,-16.0,-2.0,12665.0,-9905.0,1684.0,2661.0,-110.0,99.0,14.0,-11.0,-5.0,1.0,11939.0,-10949.0,1995.0,-1422.0,-88.0,0.0,-11.0,1.0
2022-05-23 15:53:31.487794-07:00,1288.2,802.7,1296.3,1160.3,896.6,979.0,1902.6,1375.7,3475.9,3462.5,1134.0,877.2,1566.5,3469.8,1679.5,1477.3,3478.3,3478.3,1591.7,2161.6,2988.2,3486.8,1572.1,3492.9,3477.1,3484.4,697.9,873.0,1954.8,1322.3,1270.3,797.7,-3.0,-8.0,-13.0,12644.0,-9929.0,1707.0,2661.0,-53.0,10.0,58.0,0.0,-7.0,0.0,11921.0,-10968.0,2002.0,-1423.0,-37.0,22.0,2.0,1.0
2022-05-23 15:53:31.518332-07:00,1281.9,796.0,1296.3,1160.3,898.3,976.5,1902.6,1375.7,3467.4,3466.1,1134.0,877.2,1569.3,3473.4,1679.5,1477.3,3478.3,3478.3,1583.3,2145.3,2988.2,3486.8,1566.5,3488.0,3477.1,3484.4,698.7,868.8,1954.8,1322.3,1254.2,794.4,-1.0,-8.0,-10.0,12639.0,-9929.0,1713.0,2679.0,43.0,-25.0,12.0,-1.0,-12.0,-11.0,11926.0,-10964.0,1998.0,-1420.0,51.0,-31.0,1.0,1.0
2022-05-23 15:53:31.577968-07:00,1281.9,796.0,1273.9,1152.4,898.3,976.5,1888.9,1362.1,3467.4,3466.1,1132.2,874.7,1569.3,3473.4,1678.6,1465.4,3475.9,3478.3,1583.3,2145.3,2974.6,3495.3,1566.5,3488.0,3478.3,3467.4,698.7,868.8,1946.9,1311.5,1254.2,794.4,10.0,7.0,33.0,12647.0,-9921.0,1709.0,2674.0,35.0,10.0,-35.0,12.0,-1.0,23.0,11931.0,-10960.0,1990.0,-1414.0,1.0,-1.0,-4.0,1.0
2022-05-23 15:53:31.608769-07:00,1291.8,793.5,1273.9,1152.4,905.0,979.9,1888.9,1362.1,3460.1,3464.9,1132.2,874.7,1571.1,3473.4,1678.6,1465.4,3475.9,3478.3,1604.9,2154.4,2974.6,3495.3,1564.6,3488.0,3478.3,3467.4,693.8,872.1,1946.9,1311.5,1255.1,780.3,25.0,17.0,9.0,12649.0,-9926.0,1701.0,2647.0,-40.0,21.0,-85.0,26.0,12.0,14.0,11919.0,-10970.0,1994.0,-1432.0,-80.0,56.0,-22.0,1.0
2022-05-23 15:53:31.668366-07:00,1291.8,793.5,1266.7,1148.0,905.0,980.7,1907.5,1367.6,3460.1,3464.9,1130.5,872.1,1571.1,3478.3,1665.3,1462.6,3467.4,3473.4,1587.1,2154.4,2984.8,3485.6,1564.6,3488.0,3472.2,3464.9,698.7,872.1,1941.0,1306.1,1255.1,780.3,-2.0,-11.0,-13.0,12639.0,-9955.0,1674.0,2601.0,-66.0,35.0,-112.0,-3.0,-1.0,-6.0,11886.0,-11002.0,1999.0,-1452.0,-96.0,28.0,-43.0,1.0
2022-05-23 15:53:31.758594-07:00,1281.0,790.2,1259.6,1148.0,894.1,980.7,1907.5,1367.6,3471.0,3472.2,1125.2,872.1,1566.5,3478.3,1665.3,1462.6,3467.4,3473.4,1587.1,2144.3,2984.8,3492.9,1565.5,3486.8,3472.2,3464.9,698.7,864.6,1941.0,1304.3,1248.8,792.7,-50.0,-47.0,-15.0,12635.0,-9968.0,1670.0,2578.0,-10.0,12.0,1.0,-44.0,-31.0,-2.0,11871.0,-11019.0,1997.0,-1450.0,-37.0,-39.0,17.0,1.0
2022-05-23 15:53:31.848472-07:00,1281.0,790.2,1259.6,1140.1,894.1,979.0,1874.2,1363.9,3471.0,3472.2,1125.2,878.9,1566.5,3471.0,1657.7,1461.7,3469.8,3466.1,1591.7,2144.3,2997.4,3492.9,1565.5,3486.8,3467.4,3462.5,690.5,864.6,1943.0,1304.3,1248.8,792.7,-10.0,-8.0,-33.0,12642.0,-9948.0,1671.0,2616.0,98.0,-103.0,83.0,-15.0,-5.0,-21.0,11885.0,-11009.0,1995.0,-1409.0,87.0,-88.0,75.0,1.0
2022-05-23 15:53:31.849494-07:00,1278.3,794.4,1269.4,1140.1,898.3,979.0,1874.2,1363.9,3468.6,3461.3,1133.1,878.9,1572.1,3471.0,1657.7,1461.7,3469.8,3466.1,1591.7,2147.3,2997.4,3488.0,1560.9,3488.0,3467.4,3462.5,690.5,867.1,1943.0,1298.1,1245.3,779.4,28.0,39.0,-18.0,12651.0,-9931.0,1656.0,2647.0,-33.0,-51.0,-13.0,18.0,21.0,-24.0,11901.0,-11000.0,1978.0,-1371.0,-27.0,-83.0,14.0,1.0
2022-05-23 15:53:31.878062-07:00,1278.3,794.4,1269.4,1140.1,898.3,973.1,1883.0,1356.7,3468.6,3461.3,1133.1,873.0,1572.1,3462.5,1650.2,1455.2,3481.9,3457.6,1592.7,2147.3,3021.4,3488.0,1560.9,3488.0,3478.3,3471.0,691.3,867.1,1931.1,1298.1,1245.3,779.4,5.0,-20.0,-7.0,12630.0,-9965.0,1630.0,2635.0,-115.0,-8.0,-62.0,13.0,-9.0,1.0,11875.0,-11037.0,1951.0,-1347.0,-122.0,-86.0,-18.0,1.0
2022-05-23 15:53:31.937365-07:00,1284.6,801.0,1263.1,1144.5,905.0,973.1,1883.0,1356.7,3468.6,3468.6,1136.6,878.0,1563.7,3462.5,1650.2,1455.2,3481.9,3457.6,1592.7,2144.3,2978.0,3494.1,1561.8,3488.0,3478.3,3471.0,691.3,868.8,1941.0,1294.5,1239.9,792.7,0.0,-21.0,28.0,12631.0,-9963.0,1606.0,2654.0,49.0,-91.0,39.0,7.0,-14.0,34.0,11874.0,-11043.0,1932.0,-1327.0,52.0,-50.0,14.0,1.0
2022-05-23 15:53:31.968173-07:00,1284.6,801.0,1263.1,1144.5,906.7,972.2,1875.2,1344.9,3468.6,3468.6,1136.6,878.0,1567.4,3464.9,1646.4,1455.2,3471.0,3478.3,1585.2,2156.5,2978.0,3494.1,1561.8,3488.0,3478.3,3468.6,689.7,864.6,1941.0,1294.5,1239.9,792.7,17.0,8.0,22.0,12664.0,-9914.0,1600.0,2687.0,102.0,-55.0,47.0,15.0,5.0,14.0,11917.0,-11001.0,1918.0,-1317.0,120.0,-31.0,23.0,1.0
2022-05-23 15:53:32.028017-07:00,1285.5,793.5,1256.0,1130.5,906.7,972.2,1875.2,1344.9,3456.4,3462.5,1133.1,875.5,1567.4,3464.9,1646.4,1455.2,3471.0,3478.3,1585.2,2156.5,2992.8,3490.5,1559.0,3472.2,3478.3,3468.6,689.7,864.6,1925.2,1292.7,1239.1,786.9,5.0,28.0,-10.0,12677.0,-9897.0,1600.0,2689.0,-2.0,26.0,-19.0,0.0,17.0,-8.0,11927.0,-10992.0,1910.0,-1309.0,-46.0,-33.0,-3.0,1.0
2022-05-23 15:53:32.058769-07:00,1285.5,793.5,1256.0,1130.5,898.3,985.9,1866.4,1361.2,3456.4,3462.5,1133.1,875.5,1571.1,3461.3,1641.6,1452.5,3478.3,3466.1,1581.4,2149.3,2992.8,3490.5,1559.0,3472.2,3467.4,3469.8,688.0,857.9,1925.2,1292.7,1239.1,786.9,-46.0,-28.0,-2.0,12659.0,-9927.0,1589.0,2670.0,-63.0,1.0,-35.0,-27.0,-18.0,22.0,11907.0,-11017.0,1901.0,-1297.0,-35.0,-32.0,-13.0,1.0
2022-05-23 15:53:32.118425-07:00,1281.0,797.7,1260.4,1134.0,898.3,985.9,1866.4,1361.2,3458.9,3468.6,1133.1,876.4,1571.1,3461.3,1641.6,1452.5,3478.3,3466.1,1581.4,2149.3,2973.4,3480.7,1566.5,3485.6,3467.4,3469.8,688.0,857.9,1929.2,1288.2,1239.9,791.9,-1.0,7.0,-7.0,12664.0,-9918.0,1584.0,2683.0,46.0,-21.0,24.0,-6.0,4.0,-17.0,11912.0,-11012.0,1899.0,-1294.0,38.0,4.0,15.0,1.0
2022-05-23 15:53:32.178061-07:00,1290.0,797.7,1260.4,1134.0,900.0,972.2,1866.4,1351.2,3461.3,3468.6,1133.1,876.4,1564.6,3468.6,1650.2,1454.3,3472.2,3471.0,1592.7,2154.4,2973.4,3480.7,1566.5,3484.4,3473.4,3467.4,676.6,862.9,1929.2,1288.2,1239.9,781.1,7.0,11.0,-27.0,12656.0,-9930.0,1578.0,2680.0,-93.0,-6.0,-38.0,0.0,9.0,-11.0,11905.0,-11021.0,1896.0,-1289.0,-98.0,-32.0,-23.0,1.0
2022-05-23 15:53:32.208424-07:00,1290.0,794.4,1264.0,1131.4,900.0,972.2,1866.4,1363.9,3461.3,3467.4,1134.9,875.5,1564.6,3468.6,1650.2,1444.2,3473.4,3471.0,1592.7,2154.4,2976.8,3484.4,1559.0,3484.4,3473.4,3467.4,676.6,862.9,1916.4,1281.0,1242.6,781.1,-1.0,-28.0,10.0,12636.0,-9959.0,1562.0,2672.0,-60.0,5.0,-28.0,0.0,-19.0,9.0,11882.0,-11050.0,1878.0,-1282.0,-47.0,-40.0,-16.0,1.0
2022-05-23 15:53:32.268393-07:00,1282.8,794.4,1264.0,1131.4,909.3,972.2,1865.4,1363.9,3473.4,3467.4,1134.9,875.5,1565.5,3462.5,1641.6,1444.2,3473.4,3468.6,1581.4,2141.2,2976.8,3484.4,1559.0,3486.8,3473.4,3462.5,685.6,859.5,1916.4,1281.0,1242.6,798.5,9.0,8.0,-2.0,12635.0,-9962.0,1566.0,2667.0,1.0,11.0,-2.0,9.0,6.0,5.0,11880.0,-11053.0,1868.0,-1275.0,-17.0,-18.0,9.0,1.0
2022-05-23 15:53:32.328123-07:00,1282.8,792.7,1248.8,1140.1,909.3,972.2,1865.4,1356.7,3473.4,3463.7,1125.2,869.6,1565.5,3462.5,1641.6,1456.2,3473.4,3468.6,1581.4,2141.2,2970.0,3492.9,1559.0,3486.8,3467.4,3462.5,685.6,859.5,1936.1,1296.3,1238.2,798.5,0.0,-2.0,-2.0,12633.0,-9965.0,1567.0,2661.0,15.0,29.0,2.0,-1.0,-2.0,-1.0,11878.0,-11058.0,1862.0,-1269.0,11.0,-18.0,-8.0,1.0
2022-05-23 15:53:32.358453-07:00,1284.6,792.7,1248.8,1140.1,906.7,973.9,1853.7,1356.7,3466.1,3463.7,1125.2,869.6,1564.6,3463.7,1643.5,1456.2,3473.4,3469.8,1586.1,2132.1,2970.0,3492.9,1559.0,3489.2,3467.4,3474.6,688.9,855.3,1936.1,1296.3,1238.2,791.0,14.0,4.0,-3.0,12632.0,-9969.0,1580.0,2643.0,-13.0,67.0,-28.0,21.0,4.0,-7.0,11876.0,-11059.0,1859.0,-1274.0,-46.0,28.0,-16.0,1.0
2022-05-23 15:53:32.447847-07:00,1284.6,794.4,1251.5,1131.4,906.7,973.9,1869.3,1348.5,3466.1,3473.4,1129.6,873.0,1564.6,3463.7,1637.9,1466.3,3488.0,3466.1,1586.1,2132.1,2974.6,3495.3,1561.8,3489.2,3467.4,3473.4,688.9,855.3,1954.8,1288.2,1240.8,791.0,0.0,-15.0,-8.0,12622.0,-9987.0,1615.0,2602.0,-24.0,178.0,15.0,12.0,-14.0,11.0,11856.0,-11079.0,1864.0,-1287.0,-61.0,38.0,-11.0,1.0
2022-05-23 15:53:32.478012-07:00,1274.7,793.5,1251.5,1131.4,900.0,968.8,1869.3,1348.5,3464.9,3464.9,1129.6,873.0,1564.6,3471.0,1637.9,1466.3,3488.0,3466.1,1585.2,2146.3,2974.6,3495.3,1567.4,3494.1,3467.4,3473.4,684.0,862.9,1954.8,1288.2,1233.7,784.4,10.0,-50.0,5.0,12607.0,-10001.0,1656.0,2594.0,30.0,68.0,94.0,2.0,-8.0,-12.0,11842.0,-11091.0,1876.0,-1298.0,75.0,36.0,21.0,1.0
2022-05-23 15:53:32.537427-07:00,1274.7,793.5,1254.2,1133.1,900.0,968.8,1856.7,1338.6,3464.9,3464.9,1132.2,878.9,1564.6,3471.0,1661.5,1458.9,3463.7,3480.7,1585.2,2146.3,2980.3,3494.1,1567.4,3494.1,3467.4,3468.6,684.0,862.9,2125.0,1292.7,1233.7,784.4,-1.0,14.0,-7.0,12614.0,-9967.0,1769.0,2617.0,114.0,168.0,231.0,-3.0,16.0,10.0,11875.0,-11052.0,1891.0,-1303.0,113.0,30.0,27.0,1.0
2022-05-23 15:53:32.598479-07:00,1286.4,796.0,1254.2,1133.1,900.8,977.3,1856.7,1338.6,3466.1,3464.9,1132.2,878.9,1559.0,3471.0,1661.5,1458.9,3463.7,3480.7,1588.9,2141.2,2980.3,3494.1,1567.4,3478.3,3467.4,3468.6,694.6,867.9,2125.0,1292.7,1230.2,781.9,-35.0,-14.0,-9.0,12580.0,-9978.0,1874.0,2664.0,-169.0,126.0,232.0,-25.0,-30.0,-1.0,11889.0,-11034.0,1902.0,-1306.0,-78.0,-5.0,22.0,1.0
2022-05-23 15:53:32.628065-07:00,1286.4,796.0,1256.9,1132.2,900.8,977.3,1841.1,1345.8,3466.1,3464.9,1154.2,882.3,1559.0,3471.0,1654.9,1463.5,3466.1,3468.6,1588.9,2141.2,2975.7,3491.7,1567.4,3478.3,3474.6,3478.3,694.6,867.9,2193.2,1288.2,1230.2,781.9,2.0,7.0,10.0,12535.0,-10010.0,1961.0,2697.0,-31.0,167.0,146.0,-3.0,10.0,-6.0,11873.0,-11051.0,1916.0,-1289.0,-47.0,0.0,52.0,1.0
2022-05-23 15:53:32.657919-07:00,1288.2,791.9,1256.9,1132.2,900.8,962.8,1841.1,1345.8,3461.3,3473.4,1154.2,882.3,1567.4,3468.6,1654.9,1463.5,3466.1,3468.6,1591.7,2144.3,2975.7,3491.7,1559.0,3483.2,3474.6,3478.3,693.8,862.9,2193.2,1288.2,1223.0,791.0,4.0,73.0,0.0,12478.0,-10069.0,2039.0,2681.0,-477.0,321.0,58.0,-3.0,20.0,-16.0,11821.0,-11107.0,1929.0,-1273.0,-379.0,-2.0,-10.0,1.0
2022-05-23 15:53:32.718338-07:00,1288.2,791.9,1256.0,1135.7,900.8,974.8,1841.1,1345.8,3461.3,3473.4,1163.0,884.8,1567.4,3467.4,1655.8,1468.1,3480.7,3467.4,1573.0,2144.3,2957.5,3488.0,1559.0,3483.2,3471.0,3468.6,693.8,862.9,2192.2,1282.8,1223.0,791.0,-2.0,-9.0,5.0,12289.0,-10306.0,2099.0,2607.0,-688.0,374.0,-158.0,2.0,-24.0,13.0,11618.0,-11321.0,1935.0,-1245.0,-785.0,-25.0,-53.0,1.0
2022-05-23 15:53:32.778097-07:00,1285.5,796.9,1281.9,1135.7,906.7,974.8,1841.1,1345.8,3469.8,3464.9,1173.5,884.8,1562.7,3467.4,1655.8,1468.1,3480.7,3467.4,1573.0,2137.2,2957.5,3502.7,1556.2,3491.7,3471.0,3468.6,693.8,868.8,2192.2,1276.5,1223.9,796.9,16.0,17.0,-6.0,12140.0,-10508.0,2110.0,2488.0,-333.0,205.0,-227.0,15.0,20.0,11.0,11439.0,-11502.0,1939.0,-1238.0,-463.0,40.0,-73.0,1.0
2022-05-23 15:53:32.807980-07:00,1285.5,796.9,1281.9,1154.2,906.7,962.0,1817.8,1341.3,3469.8,3464.9,1173.5,889.8,1562.7,3474.6,1652.0,1467.2,3467.4,3473.4,1592.7,2137.2,2981.4,3502.7,1556.2,3491.7,3480.7,3472.2,692.9,868.8,2173.8,1276.5,1223.9,796.9,3.0,-11.0,-26.0,12058.0,-10628.0,2094.0,2387.0,-304.0,157.0,-141.0,3.0,-11.0,-6.0,11321.0,-11617.0,1932.0,-1260.0,-332.0,27.0,-109.0,1.0
2022-05-23 15:53:32.897788-07:00,1279.2,797.7,1273.9,1154.2,896.6,962.0,1817.8,1341.3,3473.4,3468.6,1168.2,889.8,1569.3,3474.6,1652.0,1467.2,3467.4,3473.4,1592.7,2144.3,2981.4,3486.8,1555.3,3490.5,3480.7,3472.2,692.9,868.8,2173.8,1272.1,1226.6,791.9,-9.0,-77.0,-2.0,11976.0,-10731.0,2097.0,2337.0,-175.0,135.0,9.0,3.0,-44.0,-7.0,11236.0,-11700.0,1916.0,-1272.0,-187.0,3.0,-51.0,1.0
2022-05-23 15:53:32.928398-07:00,1279.2,797.7,1273.9,1143.6,896.6,957.7,1829.4,1339.5,3473.4,3468.6,1168.2,894.1,1569.3,3467.4,1654.9,1470.0,3477.1,3462.5,1585.2,2144.3,2966.6,3486.8,1555.3,3490.5,3478.3,3469.8,689.7,868.8,2151.4,1272.1,1226.6,791.9,4.0,-10.0,0.0,11921.0,-10786.0,2147.0,2317.0,-184.0,163.0,105.0,0.0,12.0,3.0,11194.0,-11740.0,1922.0,-1267.0,-132.0,4.0,22.0,1.0
2022-05-23 15:53:32.958348-07:00,1281.9,805.2,1276.5,1144.5,905.0,957.7,1829.4,1339.5,3472.2,3455.2,1176.2,895.7,1569.3,3467.4,1654.9,1470.0,3477.1,3462.5,1585.2,2132.1,2978.0,3496.6,1551.5,3486.8,3478.3,3469.8,689.7,861.2,2144.3,1267.6,1207.1,791.9,10.0,1.0,9.0,11824.0,-10879.0,2218.0,2317.0,-389.0,239.0,84.0,0.0,-1.0,-12.0,11116.0,-11812.0,1942.0,-1249.0,-342.0,9.0,24.0,1.0
2022-05-23 15:53:33.078073-07:00,1281.9,805.2,1276.5,1144.5,901.7,957.7,1824.6,1333.2,3472.2,3455.2,1176.2,895.7,1567.4,3468.6,1650.2,1460.8,3479.5,3473.4,1589.9,2144.3,2978.0,3496.6,1551.5,3486.8,3477.1,3473.4,694.6,866.3,2144.3,1267.6,1207.1,791.9,2.0,28.0,6.0,11691.0,-11015.0,2302.0,2267.0,-466.0,353.0,9.0,1.0,18.0,15.0,10993.0,-11926.0,1962.0,-1224.0,-451.0,10.0,14.0,1.0
2022-05-23 15:53:33.079759-07:00,1277.4,802.7,1290.9,1155.9,901.7,957.7,1824.6,1333.2,3468.6,3463.7,1171.8,898.3,1567.4,3468.6,1650.2,1460.8,3479.5,3473.4,1589.9,2144.3,2966.6,3481.9,1544.1,3495.3,3477.1,3473.4,694.6,866.3,2134.1,1269.4,1201.8,791.0,11.0,10.0,9.0,11503.0,-11209.0,2374.0,2199.0,-701.0,353.0,-22.0,11.0,-5.0,1.0,10808.0,-12092.0,1987.0,-1203.0,-664.0,33.0,-1.0,1.0
2022-05-23 15:53:33.137278-07:00,1277.4,802.7,1290.9,1155.9,910.1,954.3,1831.3,1316.9,3468.6,3463.7,1171.8,898.3,1564.6,3458.9,1655.8,1470.0,3480.7,3469.8,1604.9,2139.2,2966.6,3481.9,1544.1,3495.3,3468.6,3478.3,702.8,868.8,2134.1,1269.4,1201.8,791.0,4.0,1.0,-9.0,11273.0,-11439.0,2444.0,2129.0,-703.0,384.0,-14.0,6.0,-7.0,-4.0,10583.0,-12287.0,2019.0,-1177.0,-709.0,34.0,8.0,1.0
2022-05-23 15:53:33.167739-07:00,1277.4,791.0,1302.5,1163.8,910.1,954.3,1831.3,1316.9,3460.1,3468.6,1177.0,902.5,1564.6,3458.9,1655.8,1470.0,3480.7,3469.8,1604.9,2139.2,2970.0,3497.8,1549.7,3484.4,3468.6,3478.3,702.8,868.8,2135.1,1267.6,1195.6,781.1,-7.0,-3.0,-20.0,11033.0,-11673.0,2500.0,2053.0,-710.0,311.0,-68.0,-1.0,-7.0,3.0,10339.0,-12491.0,2052.0,-1143.0,-732.0,22.0,18.0,1.0
2022-05-23 15:53:33.258105-07:00,1288.2,791.0,1302.5,1163.8,901.7,957.7,1815.8,1331.4,3461.3,3468.6,1177.0,902.5,1574.9,3467.4,1664.4,1468.1,3471.0,3468.6,1591.7,2132.1,2970.0,3497.8,1549.7,3488.0,3469.8,3481.9,684.8,864.6,2135.1,1267.6,1195.6,777.8,9.0,-28.0,0.0,10829.0,-11868.0,2524.0,1988.0,-370.0,259.0,-47.0,-2.0,-9.0,-12.0,10154.0,-12639.0,2082.0,-1115.0,-403.0,24.0,15.0,1.0
2022-05-23 15:53:33.259796-07:00,1288.2,805.2,1312.4,1160.3,901.7,957.7,1815.8,1333.2,3461.3,3471.0,1196.5,909.3,1574.9,3467.4,1664.4,1470.9,3472.2,3468.6,1591.7,2132.1,2965.5,3490.5,1556.2,3488.0,3479.5,3481.9,684.8,864.6,2138.2,1260.4,1201.8,777.8,-9.0,-4.0,-12.0,10731.0,-11959.0,2562.0,1922.0,-157.0,152.0,-56.0,-12.0,0.0,-5.0,10065.0,-12710.0,2093.0,-1102.0,-194.0,2.0,-9.0,1.0
2022-05-23 15:53:33.407449-07:00,1275.6,805.2,1312.4,1160.3,900.0,950.0,1823.6,1333.2,3464.9,3471.0,1196.5,909.3,1559.9,3461.3,1660.6,1470.9,3472.2,3468.6,1593.6,2109.8,2965.5,3490.5,1556.2,3483.2,3479.5,3477.1,690.5,864.6,2138.2,1260.4,1201.8,790.2,-27.0,-12.0,-27.0,10696.0,-11991.0,2580.0,1891.0,-1.0,-4.0,16.0,-22.0,-3.0,-13.0,10047.0,-12724.0,2095.0,-1098.0,18.0,-5.0,-3.0,1.0
2022-05-23 15:53:33.411432-07:00,1275.6,784.4,1310.6,1167.4,900.0,950.0,1823.6,1316.9,3464.9,3472.2,1190.3,910.1,1559.9,3461.3,1660.6,1462.6,3474.6,3468.6,1593.6,2109.8,2959.8,3490.5,1552.5,3483.2,3469.8,3477.1,690.5,864.6,2120.9,1268.5,1197.4,790.2,13.0,-8.0,-10.0,10703.0,-11977.0,2593.0,1928.0,37.0,-60.0,109.0,1.0,5.0,-26.0,10068.0,-12709.0,2089.0,-1088.0,92.0,-41.0,14.0,1.0
2022-05-23 15:53:33.412706-07:00,1273.9,784.4,1310.6,1167.4,905.0,949.2,1811.0,1316.9,3468.6,3472.2,1190.3,910.1,1559.0,3478.3,1648.3,1462.6,3474.6,3478.3,1585.2,2130.1,2959.8,3490.5,1552.5,3490.5,3469.8,3472.2,691.3,860.4,2120.9,1268.5,1197.4,781.1,18.0,-1.0,0.0,10684.0,-11983.0,2603.0,1979.0,-146.0,-59.0,89.0,16.0,1.0,-15.0,10067.0,-12712.0,2082.0,-1072.0,-77.0,-44.0,20.0,1.0
2022-05-23 15:53:33.467759-07:00,1273.9,791.9,1291.8,1158.6,905.0,949.2,1807.1,1327.8,3468.6,3473.4,1191.2,912.7,1559.0,3478.3,1653.0,1466.3,3479.5,3478.3,1585.2,2130.1,2958.6,3484.4,1546.9,3490.5,3475.9,3474.6,691.3,860.4,2115.9,1264.9,1198.2,781.1,30.0,-21.0,26.0,10658.0,-11997.0,2625.0,2006.0,2.0,45.0,93.0,28.0,4.0,-2.0,10060.0,-12720.0,2077.0,-1057.0,25.0,-33.0,31.0,1.0
2022-05-23 15:53:33.587815-07:00,1273.0,793.5,1291.8,1158.6,909.3,956.8,1807.1,1327.8,3467.4,3471.0,1191.2,912.7,1568.3,3464.9,1653.0,1466.3,3479.5,3478.3,1586.1,2122.0,2958.6,3484.4,1549.7,3484.4,3475.9,3474.6,692.1,857.9,2115.9,1264.9,1190.3,790.2,1.0,-13.0,22.0,10629.0,-12015.0,2651.0,2019.0,-85.0,13.0,34.0,10.0,-14.0,8.0,10048.0,-12730.0,2079.0,-1043.0,-68.0,-16.0,35.0,1.0
2022-05-23 15:53:33.590430-07:00,1273.0,793.5,1296.3,1164.7,909.3,956.8,1819.7,1327.8,3467.4,3471.0,1189.4,907.6,1568.3,3464.9,1652.0,1458.9,3467.4,3473.4,1586.1,2122.0,2960.9,3490.5,1549.7,3484.4,3473.4,3477.1,692.1,857.9,2107.8,1260.4,1190.3,790.2,-3.0,8.0,7.0,10630.0,-12009.0,2665.0,2030.0,13.0,-4.0,48.0,-10.0,12.0,4.0,10054.0,-12726.0,2087.0,-1031.0,16.0,-16.0,28.0,1.0
2022-05-23 15:53:33.647773-07:00,1281.0,792.7,1296.3,1164.7,904.2,952.6,1819.7,1327.8,3455.2,3462.5,1189.4,907.6,1571.1,3473.4,1652.0,1458.9,3467.4,3473.4,1585.2,2127.0,2960.9,3490.5,1541.3,3486.8,3473.4,3477.1,696.2,863.7,2107.8,1260.4,1193.8,777.8,-10.0,-6.0,8.0,10627.0,-12005.0,2674.0,2055.0,-2.0,-34.0,54.0,-8.0,-1.0,-4.0,10059.0,-12721.0,2094.0,-1017.0,22.0,-14.0,36.0,1.0
2022-05-23 15:53:33.710314-07:00,1281.0,792.7,1299.0,1156.8,904.2,952.6,1802.3,1325.0,3455.2,3462.5,1180.6,919.4,1571.1,3473.4,1637.9,1461.7,3464.9,3478.3,1585.2,2127.0,2959.8,3484.4,1541.3,3486.8,3467.4,3468.6,696.2,863.7,2102.7,1260.4,1193.8,777.8,3.0,16.0,6.0,10629.0,-11998.0,2693.0,2064.0,11.0,25.0,15.0,-1.0,6.0,-8.0,10068.0,-12714.0,2103.0,-1006.0,7.0,-8.0,26.0,1.0
2022-05-23 15:53:33.712337-07:00,1270.3,791.9,1299.8,1156.8,899.1,945.8,1802.3,1325.0,3466.1,3473.4,1185.9,919.4,1570.2,3466.1,1637.9,1461.7,3464.9,3478.3,1583.3,2129.0,2959.8,3494.1,1545.0,3481.9,3467.4,3468.6,690.5,858.7,2102.7,1259.6,1187.6,810.2,3.0,8.0,0.0,10646.0,-11985.0,2691.0,2054.0,129.0,-18.0,-27.0,-7.0,12.0,2.0,10087.0,-12699.0,2104.0,-1006.0,104.0,-9.0,-6.0,1.0
2022-05-23 15:53:33.767826-07:00,1270.3,791.9,1299.8,1153.3,899.1,951.7,1807.1,1314.2,3466.1,3473.4,1185.9,905.9,1570.2,3478.3,1646.4,1456.2,3467.4,3477.1,1582.4,2129.0,2946.1,3494.1,1545.0,3481.9,3473.4,3471.0,692.1,858.7,2091.6,1259.6,1187.6,810.2,-5.0,10.0,-10.0,10695.0,-11944.0,2681.0,2053.0,81.0,-57.0,-16.0,-11.0,9.0,-6.0,10116.0,-12677.0,2094.0,-1011.0,85.0,-20.0,-26.0,1.0
2022-05-23 15:53:33.887472-07:00,1281.0,798.5,1281.0,1153.3,900.8,951.7,1807.1,1314.2,3462.5,3464.9,1176.2,905.9,1562.7,3478.3,1646.4,1456.2,3467.4,3477.1,1582.4,2143.3,2946.1,3491.7,1537.6,3497.8,3473.4,3471.0,692.1,866.3,2091.6,1267.6,1194.7,780.3,-13.0,-12.0,2.0,10710.0,-11931.0,2668.0,2064.0,40.0,-57.0,11.0,-13.0,-12.0,-3.0,10136.0,-12664.0,2079.0,-1007.0,50.0,-31.0,-10.0,1.0
2022-05-23 15:53:33.888692-07:00,1281.0,798.5,1281.0,1149.8,900.8,950.0,1780.1,1316.9,3462.5,3464.9,1176.2,912.7,1562.7,3461.3,1631.3,1455.2,3469.8,3468.6,1593.6,2143.3,2962.0,3491.7,1537.6,3497.8,3474.6,3472.2,689.7,866.3,2090.6,1267.6,1194.7,780.3,-5.0,-9.0,13.0,10739.0,-11904.0,2659.0,2085.0,159.0,-79.0,21.0,-3.0,-8.0,12.0,10167.0,-12641.0,2069.0,-1003.0,167.0,-17.0,7.0,1.0
2022-05-23 15:53:33.947880-07:00,1274.7,789.4,1280.1,1149.8,898.3,950.0,1780.1,1316.9,3472.2,3471.0,1179.7,912.7,1568.3,3461.3,1631.3,1455.2,3469.8,3468.6,1593.6,2117.9,2962.0,3486.8,1537.6,3489.2,3474.6,3472.2,689.7,856.2,2090.6,1267.6,1189.4,792.7,13.0,9.0,8.0,10793.0,-11851.0,2660.0,2103.0,110.0,-40.0,49.0,6.0,16.0,-1.0,10222.0,-12597.0,2062.0,-1009.0,86.0,0.0,0.0,1.0
2022-05-23 15:53:33.949132-07:00,1274.7,789.4,1280.1,1147.1,898.3,947.5,1795.5,1306.1,3472.2,3471.0,1179.7,903.4,1568.3,3462.5,1630.3,1458.0,3477.1,3467.4,1585.2,2117.9,2943.9,3486.8,1537.6,3489.2,3462.5,3467.4,694.6,856.2,2085.6,1267.6,1189.4,792.7,11.0,-7.0,16.0,10814.0,-11828.0,2669.0,2112.0,33.0,33.0,17.0,14.0,-3.0,2.0,10238.0,-12583.0,2061.0,-1015.0,20.0,24.0,6.0,1.0
2022-05-23 15:53:34.068267-07:00,1274.7,785.2,1294.5,1146.3,897.4,947.5,1795.5,1306.1,3471.0,3475.9,1171.8,907.6,1565.5,3462.5,1630.3,1458.0,3477.1,3467.4,1585.2,2128.0,2966.6,3483.2,1541.3,3494.1,3462.5,3467.4,694.6,858.7,2081.6,1259.6,1180.6,790.2,6.0,-12.0,3.0,10822.0,-11821.0,2682.0,2097.0,39.0,38.0,5.0,6.0,-7.0,1.0,10240.0,-12580.0,2068.0,-1025.0,34.0,29.0,10.0,1.0
2022-05-23 15:53:34.097989-07:00,1274.7,785.2,1294.5,1146.3,911.0,954.3,1792.6,1316.9,3471.0,3475.9,1171.8,907.6,1566.5,3468.6,1632.2,1457.1,3474.6,3477.1,1587.1,2115.9,2966.6,3483.2,1541.3,3494.1,3471.0,3481.9,697.9,854.5,2081.6,1259.6,1180.6,790.2,-3.0,7.0,-4.0,10835.0,-11808.0,2693.0,2083.0,28.0,15.0,-8.0,-8.0,4.0,-5.0,10248.0,-12571.0,2075.0,-1035.0,0.0,22.0,2.0,1.0
2022-05-23 15:53:34.100038-07:00,1277.4,791.0,1274.7,1160.3,911.0,954.3,1792.6,1316.9,3475.9,3474.6,1181.5,906.7,1566.5,3468.6,1632.2,1457.1,3474.6,3477.1,1587.1,2115.9,2951.8,3477.1,1537.6,3489.2,3471.0,3481.9,697.9,854.5,2075.5,1250.6,1181.5,781.1,0.0,-6.0,-5.0,10848.0,-11799.0,2695.0,2072.0,98.0,18.0,-10.0,-6.0,-2.0,-7.0,10257.0,-12563.0,2080.0,-1042.0,84.0,21.0,3.0,1.0
2022-05-23 15:53:34.188353-07:00,1277.4,791.0,1274.7,1160.3,901.7,950.0,1792.6,1313.3,3475.9,3474.6,1181.5,906.7,1564.6,3457.6,1632.2,1461.7,3480.7,3478.3,1584.2,2108.8,2951.8,3477.1,1537.6,3489.2,3473.4,3479.5,695.4,853.7,2075.5,1250.6,1181.5,781.1,-1.0,-13.0,-7.0,10891.0,-11761.0,2704.0,2051.0,229.0,13.0,-19.0,-2.0,-10.0,-5.0,10297.0,-12528.0,2082.0,-1055.0,219.0,17.0,6.0,1.0
2022-05-23 15:53:34.247843-07:00,1271.2,791.0,1281.0,1150.6,901.7,950.0,1792.6,1313.3,3469.8,3458.9,1161.2,905.9,1564.6,3457.6,1632.2,1461.7,3480.7,3478.3,1584.2,2108.8,2958.6,3486.8,1535.7,3484.4,3473.4,3479.5,695.4,853.7,2068.5,1239.9,1192.9,786.9,7.0,-30.0,-12.0,10996.0,-11666.0,2705.0,2027.0,529.0,-101.0,-29.0,1.0,-12.0,-7.0,10404.0,-12438.0,2078.0,-1079.0,532.0,6.0,4.0,1.0
2022-05-23 15:53:34.249171-07:00,1273.0,791.0,1281.0,1150.6,899.1,952.6,1782.0,1307.9,3460.1,3458.9,1161.2,905.9,1562.7,3473.4,1622.8,1455.2,3471.0,3467.4,1589.9,2125.0,2958.6,3486.8,1535.7,3489.2,3478.3,3468.6,684.0,851.1,2068.5,1239.9,1192.9,788.6,-6.0,4.0,-35.0,11197.0,-11477.0,2699.0,2012.0,713.0,-179.0,15.0,-5.0,0.0,-12.0,10606.0,-12268.0,2056.0,-1111.0,656.0,-36.0,-13.0,1.0
2022-05-23 15:53:34.337809-07:00,1273.0,793.5,1281.0,1146.3,899.1,952.6,1782.0,1306.1,3460.1,3469.8,1171.8,896.6,1562.7,3473.4,1622.8,1452.5,3477.1,3467.4,1589.9,2125.0,2945.0,3488.0,1545.0,3489.2,3478.3,3468.6,684.0,851.1,2069.5,1253.3,1177.9,788.6,-2.0,-12.0,-28.0,11415.0,-11265.0,2658.0,2042.0,727.0,-366.0,-2.0,-10.0,4.0,-20.0,10828.0,-12076.0,2018.0,-1135.0,765.0,-69.0,-15.0,1.0
2022-05-23 15:53:34.367894-07:00,1266.7,793.5,1281.0,1146.3,916.0,944.1,1786.8,1306.1,3473.4,3469.8,1171.8,896.6,1561.8,3473.4,1628.4,1452.5,3477.1,3474.6,1595.5,2130.1,2945.0,3488.0,1545.0,3492.9,3478.3,3467.4,690.5,853.7,2069.5,1253.3,1177.9,780.3,6.0,12.0,-12.0,11667.0,-11006.0,2598.0,2103.0,790.0,-354.0,44.0,-13.0,18.0,-27.0,11073.0,-11858.0,1967.0,-1155.0,765.0,-86.0,-25.0,1.0
2022-05-23 15:53:34.398183-07:00,1266.7,787.7,1282.8,1149.8,916.0,944.1,1786.8,1309.7,3473.4,3478.3,1171.8,897.4,1561.8,3473.4,1628.4,1443.3,3473.4,3474.6,1595.5,2130.1,2956.4,3486.8,1532.0,3492.9,3467.4,3467.4,690.5,853.7,2066.5,1274.7,1186.7,780.3,-3.0,11.0,-11.0,11897.0,-10757.0,2552.0,2163.0,601.0,-315.0,46.0,0.0,-2.0,-1.0,11286.0,-11664.0,1908.0,-1168.0,603.0,-96.0,-29.0,1.0
2022-05-23 15:53:34.458789-07:00,1270.3,787.7,1282.8,1149.8,896.6,939.8,1780.1,1309.7,3472.2,3478.3,1171.8,897.4,1558.1,3462.5,1625.6,1443.3,3473.4,3477.1,1589.9,2126.0,2956.4,3486.8,1532.0,3488.0,3467.4,3472.2,685.6,852.0,2066.5,1274.7,1186.7,786.9,-5.0,-34.0,10.0,12062.0,-10570.0,2496.0,2235.0,516.0,-321.0,104.0,0.0,-17.0,13.0,11456.0,-11505.0,1859.0,-1173.0,556.0,-80.0,-3.0,1.0
2022-05-23 15:53:34.517889-07:00,1270.3,791.0,1278.3,1141.9,896.6,939.8,1793.6,1305.2,3472.2,3478.3,1168.2,895.7,1558.1,3462.5,1619.0,1441.5,3466.1,3474.6,1589.9,2126.0,2949.6,3488.0,1530.1,3488.0,3464.9,3467.4,685.6,852.0,2075.5,1251.5,1184.1,786.9,10.0,1.0,16.0,12230.0,-10362.0,2458.0,2337.0,582.0,-351.0,158.0,7.0,0.0,3.0,11643.0,-11319.0,1830.0,-1184.0,623.0,-31.0,21.0,1.0
2022-05-23 15:53:34.548166-07:00,1274.7,794.4,1278.3,1141.9,905.9,943.2,1793.6,1305.2,3468.6,3475.9,1168.2,895.7,1563.7,3469.8,1619.0,1441.5,3466.1,3474.6,1599.3,2131.1,2949.6,3488.0,1533.8,3488.0,3464.9,3467.4,687.2,855.3,2075.5,1251.5,1178.8,783.6,12.0,38.0,6.0,12402.0,-10144.0,2416.0,2428.0,560.0,-319.0,11.0,0.0,23.0,-1.0,11818.0,-11139.0,1805.0,-1201.0,538.0,-21.0,-6.0,1.0
2022-05-23 15:53:34.608345-07:00,1274.7,794.4,1273.9,1141.0,905.9,943.2,1782.9,1299.0,3468.6,3475.9,1163.0,905.0,1563.7,3469.8,1620.9,1447.9,3478.3,3467.4,1599.3,2131.1,2951.8,3480.7,1533.8,3488.0,3467.4,3468.6,687.2,855.3,2083.6,1248.0,1178.8,783.6,-1.0,13.0,10.0,12565.0,-9947.0,2359.0,2459.0,554.0,-211.0,-35.0,6.0,-1.0,18.0,11964.0,-10983.0,1774.0,-1230.0,502.0,-7.0,-39.0,1.0
2022-05-23 15:53:34.667859-07:00,1264.0,795.2,1273.9,1141.0,900.0,939.0,1782.9,1299.0,3461.3,3478.3,1163.0,905.0,1559.0,3464.9,1620.9,1447.9,3478.3,3467.4,1588.9,2130.1,2951.8,3480.7,1533.8,3488.0,3467.4,3468.6,677.4,857.0,2083.6,1248.0,1177.9,787.7,-3.0,-12.0,1.0,12718.0,-9763.0,2291.0,2475.0,454.0,-327.0,-96.0,7.0,-16.0,-6.0,12092.0,-10842.0,1753.0,-1266.0,416.0,17.0,-32.0,1.0
2022-05-23 15:53:34.698205-07:00,1264.0,795.2,1266.7,1134.9,900.0,939.0,1771.4,1296.3,3461.3,3478.3,1160.3,897.4,1559.0,3464.9,1611.5,1437.8,3468.6,3469.8,1588.9,2130.1,2958.6,3494.1,1533.8,3488.0,3466.1,3466.1,677.4,857.0,2086.6,1242.6,1177.9,787.7,-66.0,-161.0,86.0,12821.0,-9642.0,2202.0,2496.0,39.0,-16.0,-66.0,9.0,-121.0,-14.0,12157.0,-10770.0,1731.0,-1283.0,-115.0,-14.0,21.0,1.0
2022-05-23 15:53:34.787425-07:00,1271.2,784.4,1266.7,1134.9,899.1,939.8,1771.4,1296.3,3467.4,3468.6,1157.7,897.4,1561.8,3464.9,1611.5,1437.8,3468.6,3469.8,1588.9,2137.2,2958.6,3489.2,1532.0,3497.8,3466.1,3466.1,682.3,854.5,2086.6,1256.0,1180.6,779.4,-14.0,62.0,-45.0,12858.0,-9612.0,2197.0,2427.0,-28.0,-11.0,-131.0,6.0,37.0,30.0,12153.0,-10771.0,1747.0,-1288.0,-124.0,69.0,23.0,1.0
2022-05-23 15:53:34.817929-07:00,1271.2,784.4,1266.7,1141.9,899.1,942.4,1791.6,1319.6,3467.4,3468.6,1157.7,900.8,1561.8,3460.1,1609.6,1436.9,3479.5,3475.9,1584.2,2137.2,2960.9,3489.2,1532.0,3497.8,3471.0,3467.4,679.1,854.5,2129.0,1256.0,1180.6,779.4,42.0,-10.0,7.0,12827.0,-9670.0,2124.0,2427.0,-236.0,-97.0,4.0,14.0,23.0,11.0,12094.0,-10830.0,1776.0,-1307.0,-137.0,96.0,-40.0,1.0
2022-05-23 15:53:34.848238-07:00,1281.0,793.5,1270.3,1141.9,900.8,942.4,1791.6,1319.6,3472.2,3468.6,1168.2,900.8,1563.7,3460.1,1609.6,1436.9,3479.5,3475.9,1584.2,2129.0,2960.9,3491.7,1530.1,3494.1,3471.0,3467.4,679.1,852.0,2129.0,1264.0,1185.9,780.3,2.0,-28.0,14.0,12752.0,-9759.0,2095.0,2485.0,-417.0,-121.0,93.0,19.0,-30.0,29.0,12034.0,-10888.0,1805.0,-1346.0,-270.0,132.0,-17.0,1.0
2022-05-23 15:53:34.937391-07:00,1281.0,793.5,1270.3,1140.1,900.8,940.7,1784.9,1316.0,3472.2,3468.6,1168.2,902.5,1563.7,3472.2,1613.4,1426.8,3471.0,3473.4,1584.2,2129.0,2963.2,3491.7,1530.1,3494.1,3467.4,3464.9,684.0,852.0,2106.8,1264.0,1185.9,780.3,-1.0,-19.0,21.0,12601.0,-9937.0,2053.0,2588.0,-810.0,-47.0,185.0,-4.0,6.0,-5.0,11883.0,-11040.0,1871.0,-1364.0,-682.0,140.0,18.0,1.0
2022-05-23 15:53:34.998828-07:00,1271.2,791.0,1242.6,1140.1,912.7,940.7,1784.9,1316.0,3466.1,3463.7,1156.8,902.5,1559.0,3472.2,1613.4,1426.8,3471.0,3473.4,1584.2,2123.0,2963.2,3492.9,1524.5,3489.2,3467.4,3464.9,684.0,852.0,2106.8,1271.2,1216.8,786.9,0.0,-2.0,-12.0,12372.0,-10195.0,2049.0,2691.0,-845.0,65.0,201.0,-1.0,-10.0,-33.0,11641.0,-11282.0,1951.0,-1356.0,-846.0,135.0,28.0,1.0
2022-05-23 15:53:35.058944-07:00,1271.2,791.0,1242.6,1121.7,913.5,938.1,1804.2,1324.1,3466.1,3463.7,1156.8,897.4,1561.8,3457.6,1597.4,1402.1,3478.3,3471.0,1576.8,2132.1,2959.8,3492.9,1524.5,3489.2,3479.5,3473.4,687.2,843.6,2075.5,1271.2,1216.8,786.9,10.0,57.0,-39.0,12149.0,-10437.0,2101.0,2737.0,-858.0,328.0,177.0,-17.0,52.0,-30.0,11388.0,-11528.0,2015.0,-1345.0,-934.0,84.0,-31.0,1.0
2022-05-23 15:53:35.062313-07:00,1270.3,784.4,1211.5,1078.2,913.5,938.1,1804.2,1324.1,3473.4,3466.1,1138.4,878.0,1561.8,3457.6,1597.4,1402.1,3478.3,3471.0,1576.8,2132.1,2949.6,3488.0,1532.9,3491.7,3479.5,3473.4,687.2,843.6,2062.5,1227.5,1197.4,781.1,-11.0,7.0,-23.0,11832.0,-10779.0,2184.0,2734.0,-1042.0,423.0,54.0,-9.0,-13.0,-28.0,10997.0,-11900.0,2046.0,-1302.0,-1274.0,-19.0,-83.0,1.0
2022-05-23 15:53:35.147758-07:00,1270.3,784.4,1211.5,1078.2,892.4,953.4,1975.6,1353.1,3473.4,3466.1,1138.4,878.0,1563.7,3463.7,1531.0,1365.7,3462.5,3469.8,1595.5,2127.0,2949.6,3488.0,1532.9,3491.7,3477.1,3480.7,688.0,832.7,2062.5,1227.5,1197.4,781.1,-16.0,-1.0,-6.0,11547.0,-11095.0,2214.0,2663.0,-913.0,260.0,-209.0,-4.0,6.0,0.0,10609.0,-12250.0,2057.0,-1261.0,-1173.0,7.0,-84.0,1.0
2022-05-23 15:53:35.149056-07:00,1273.0,825.2,1162.1,1034.9,892.4,953.4,1975.6,1353.1,3464.9,3474.6,1112.1,869.6,1563.7,3463.7,1531.0,1365.7,3462.5,3469.8,1595.5,2127.0,2953.0,3483.2,1578.6,3488.0,3477.1,3480.7,688.0,832.7,2043.4,1160.3,1132.2,777.8,2.0,-27.0,-1.0,11318.0,-11352.0,2185.0,2587.0,-522.0,239.0,-67.0,1.0,-7.0,9.0,10322.0,-12493.0,2069.0,-1240.0,-668.0,27.0,-65.0,1.0
2022-05-23 15:53:35.237601-07:00,1273.0,825.2,1162.1,1034.9,898.3,945.8,1966.7,1325.0,3464.9,3474.6,1112.1,869.6,1556.2,3466.1,1408.5,1326.8,3477.1,3463.7,1585.2,2134.1,2953.0,3483.2,1578.6,3488.0,3474.6,3469.8,687.2,814.4,2043.4,1160.3,1132.2,777.8,-19.0,-23.0,-22.0,11208.0,-11476.0,2200.0,2506.0,-9.0,155.0,-219.0,-3.0,-41.0,7.0,10191.0,-12600.0,2070.0,-1238.0,-180.0,10.0,-41.0,1.0
2022-05-23 15:53:35.328143-07:00,1278.3,820.2,1129.6,1005.6,898.3,945.8,1966.7,1325.0,3469.8,3473.4,1105.1,859.5,1556.2,3466.1,1408.5,1326.8,3477.1,3463.7,1585.2,2134.1,2957.5,3489.2,1619.9,3491.7,3474.6,3469.8,687.2,814.4,2024.4,1128.7,1084.2,786.1,1.0,-4.0,-6.0,11186.0,-11523.0,2165.0,2420.0,-424.0,126.0,-101.0,-4.0,23.0,-27.0,10113.0,-12664.0,2061.0,-1239.0,-400.0,6.0,-43.0,1.0
2022-05-23 15:53:35.357810-07:00,1299.8,820.2,1129.6,1005.6,904.2,950.0,1951.9,1336.8,3471.0,3473.4,1105.1,859.5,1560.9,3462.5,1357.6,1300.7,3464.9,3472.2,1588.9,2133.1,2957.5,3489.2,1619.9,3491.7,3467.4,3466.1,686.4,799.4,2024.4,1128.7,1084.2,789.4,-28.0,-51.0,14.0,11065.0,-11649.0,2167.0,2371.0,-221.0,160.0,-5.0,-5.0,-34.0,1.0,9991.0,-12761.0,2068.0,-1227.0,-236.0,19.0,12.0,1.0
2022-05-23 15:53:35.359671-07:00,1299.8,813.5,1104.3,1003.9,904.2,950.0,1951.9,1370.3,3471.0,3467.4,1091.2,862.1,1560.9,3462.5,1357.6,1292.7,3480.7,3472.2,1588.9,2133.1,2939.3,3486.8,1613.4,3491.7,3475.9,3466.1,686.4,799.4,2007.4,1108.6,1059.1,789.4,21.0,32.0,-2.0,11002.0,-11709.0,2200.0,2334.0,-174.0,192.0,-50.0,5.0,11.0,-9.0,9942.0,-12797.0,2086.0,-1217.0,-129.0,13.0,15.0,1.0
2022-05-23 15:53:35.418015-07:00,1297.2,813.5,1104.3,1003.9,899.1,939.8,1936.1,1370.3,3471.0,3467.4,1091.2,862.1,1551.5,3467.4,1342.2,1292.7,3480.7,3477.1,1600.2,2131.1,2939.3,3486.8,1613.4,3486.8,3475.9,3479.5,690.5,790.2,2007.4,1108.6,1059.1,788.6,-8.0,33.0,-15.0,10914.0,-11805.0,2206.0,2260.0,-441.0,133.0,-136.0,-2.0,20.0,20.0,9845.0,-12872.0,2087.0,-1214.0,-391.0,17.0,-54.0,1.0
2022-05-23 15:53:35.448130-07:00,1297.2,805.2,1101.7,996.2,899.1,939.8,1936.1,1458.0,3471.0,3474.6,1087.7,858.7,1551.5,3467.4,1342.2,1283.7,3468.6,3477.1,1600.2,2131.1,2942.7,3491.7,1617.1,3486.8,3478.3,3479.5,690.5,790.2,1991.5,1112.1,1050.4,788.6,-10.0,-29.0,2.0,10772.0,-11949.0,2173.0,2212.0,-352.0,128.0,-101.0,-3.0,-20.0,0.0,9712.0,-12972.0,2088.0,-1216.0,-312.0,25.0,-42.0,1.0
2022-05-23 15:53:35.507451-07:00,1290.9,805.2,1101.7,996.2,902.5,939.8,1926.2,1458.0,3467.4,3474.6,1087.7,858.7,1555.3,3474.6,1320.5,1283.7,3468.6,3471.0,1589.9,2128.0,2942.7,3491.7,1617.1,3491.7,3478.3,3472.2,689.7,780.3,1991.5,1112.1,1050.4,788.6,0.0,-20.0,4.0,10678.0,-12044.0,2157.0,2171.0,-206.0,89.0,-56.0,0.0,0.0,-8.0,9633.0,-13029.0,2095.0,-1220.0,-183.0,32.0,-11.0,1.0
2022-05-23 15:53:35.597870-07:00,1290.9,803.5,1092.9,987.6,902.5,939.8,1903.6,1486.6,3467.4,3472.2,1087.7,852.8,1555.3,3474.6,1315.1,1280.1,3478.3,3474.6,1589.9,2128.0,2937.1,3496.6,1610.5,3491.7,3469.8,3467.4,689.7,780.3,1991.5,1092.1,1040.1,788.6,9.0,-10.0,0.0,10610.0,-12106.0,2165.0,2153.0,-187.0,81.0,42.0,1.0,0.0,-5.0,9583.0,-13064.0,2107.0,-1221.0,-154.0,32.0,5.0,1.0
2022-05-23 15:53:35.599828-07:00,1284.6,805.2,1092.9,987.6,912.7,939.8,1903.6,1486.6,3473.4,3471.0,1087.7,852.8,1560.9,3468.6,1315.1,1280.1,3478.3,3474.6,1592.7,2128.0,2937.1,3496.6,1605.8,3488.0,3469.8,3467.4,684.8,778.6,1991.5,1092.1,1035.7,787.7,10.0,2.0,4.0,10555.0,-12150.0,2182.0,2155.0,-98.0,35.0,23.0,2.0,5.0,-3.0,9537.0,-13096.0,2120.0,-1221.0,-91.0,22.0,12.0,1.0
2022-05-23 15:53:35.657593-07:00,1284.6,805.2,1092.1,985.0,912.7,939.8,1884.0,1488.4,3473.4,3471.0,1081.6,852.8,1560.9,3468.6,1315.1,1273.0,3468.6,3473.4,1592.7,2128.0,2986.0,3494.1,1605.8,3488.0,3466.1,3473.4,684.8,778.6,1987.5,1096.4,1035.7,787.7,3.0,-16.0,9.0,10524.0,-12176.0,2195.0,2147.0,-4.0,71.0,7.0,3.0,-6.0,-5.0,9505.0,-13118.0,2127.0,-1220.0,-48.0,12.0,-1.0,1.0
2022-05-23 15:53:35.747774-07:00,1273.9,794.4,1092.1,985.0,898.3,928.8,1884.0,1488.4,3462.5,3468.6,1081.6,852.8,1567.4,3467.4,1315.1,1273.0,3468.6,3473.4,1591.7,2125.0,2986.0,3494.1,1605.8,3477.1,3466.1,3473.4,676.6,776.1,1987.5,1096.4,1026.3,778.6,-7.0,0.0,3.0,10529.0,-12170.0,2222.0,2132.0,-6.0,58.0,39.0,-6.0,0.0,0.0,9507.0,-13115.0,2130.0,-1225.0,4.0,14.0,10.0,1.0
2022-05-23 15:53:35.750370-07:00,1273.9,794.4,1093.8,979.0,898.3,928.8,1873.2,1456.2,3462.5,3468.6,1079.0,849.5,1567.4,3467.4,1305.2,1266.7,3471.0,3468.6,1591.7,2125.0,2940.5,3485.6,1605.8,3477.1,3479.5,3474.6,676.6,776.1,1956.8,1087.7,1026.3,778.6,20.0,-6.0,10.0,10522.0,-12175.0,2243.0,2115.0,57.0,117.0,4.0,0.0,9.0,-15.0,9498.0,-13120.0,2136.0,-1229.0,7.0,21.0,5.0,1.0
2022-05-23 15:53:35.807451-07:00,1278.3,801.0,1085.1,979.0,898.3,916.9,1873.2,1456.2,3456.4,3467.4,1075.6,849.5,1548.7,3467.4,1305.2,1266.7,3471.0,3468.6,1591.7,2117.9,2940.5,3494.1,1600.2,3483.2,3479.5,3474.6,680.7,766.2,1956.8,1083.4,1029.7,776.1,-12.0,19.0,-28.0,10541.0,-12158.0,2281.0,2077.0,39.0,28.0,-5.0,-6.0,0.0,-1.0,9510.0,-13111.0,2139.0,-1237.0,29.0,7.0,-8.0,1.0
2022-05-23 15:53:35.957564-07:00,1278.3,801.0,1085.1,982.5,898.3,917.7,1866.4,1444.2,3456.4,3467.4,1075.6,851.1,1548.7,3462.5,1305.2,1268.5,3463.7,3463.7,1583.3,2117.9,2948.4,3494.1,1600.2,3483.2,3468.6,3467.4,672.5,766.2,1969.7,1083.4,1029.7,776.1,-2.0,-7.0,-12.0,10550.0,-12151.0,2278.0,2071.0,27.0,-29.0,-15.0,-3.0,0.0,-7.0,9518.0,-13106.0,2132.0,-1239.0,36.0,-27.0,-21.0,1.0
2022-05-23 15:53:35.959931-07:00,1287.3,800.2,1092.9,982.5,898.3,917.7,1866.4,1444.2,3477.1,3463.7,1074.7,851.1,1558.1,3462.5,1305.2,1268.5,3463.7,3463.7,1583.3,2125.0,2948.4,3488.0,1592.7,3485.6,3468.6,3467.4,672.5,764.5,1969.7,1092.9,1007.3,788.6,5.0,-10.0,8.0,10557.0,-12145.0,2261.0,2087.0,-2.0,-94.0,-15.0,2.0,1.0,-6.0,9530.0,-13100.0,2117.0,-1233.0,25.0,-34.0,-11.0,1.0
2022-05-23 15:53:35.961037-07:00,1287.3,800.2,1092.9,978.2,898.3,914.4,1833.3,1439.6,3477.1,3463.7,1074.7,850.3,1558.1,3473.4,1293.6,1269.4,3477.1,3464.9,1588.0,2125.0,2942.7,3488.0,1592.7,3485.6,3473.4,3474.6,666.0,764.5,1959.8,1092.9,1007.3,788.6,8.0,1.0,14.0,10574.0,-12133.0,2240.0,2099.0,70.0,-22.0,-8.0,5.0,0.0,8.0,9545.0,-13091.0,2107.0,-1225.0,52.0,-24.0,-8.0,1.0
2022-05-23 15:53:36.017663-07:00,1273.9,808.5,1079.9,978.2,895.7,914.4,1833.3,1439.6,3455.2,3460.1,1077.3,850.3,1559.9,3473.4,1293.6,1269.4,3477.1,3464.9,1588.0,2110.8,2942.7,3497.8,1601.1,3485.6,3473.4,3474.6,666.0,766.2,1959.8,1084.2,1009.0,788.6,0.0,-3.0,9.0,10597.0,-12114.0,2235.0,2097.0,16.0,-2.0,-19.0,3.0,-2.0,-1.0,9561.0,-13080.0,2102.0,-1227.0,17.0,-2.0,-13.0,1.0
2022-05-23 15:53:36.048335-07:00,1273.9,808.5,1079.9,973.1,895.7,919.4,1829.4,1419.5,3455.2,3460.1,1077.3,846.1,1555.3,3471.0,1290.0,1261.3,3466.1,3471.0,1591.7,2123.0,2945.0,3497.8,1601.1,3485.6,3477.1,3471.0,674.2,760.4,1961.8,1084.2,1009.0,788.6,2.0,-12.0,8.0,10601.0,-12112.0,2233.0,2090.0,46.0,24.0,-5.0,4.0,-5.0,4.0,9562.0,-13080.0,2100.0,-1229.0,22.0,-4.0,3.0,1.0
2022-05-23 15:53:36.108755-07:00,1281.0,796.0,1079.0,979.0,895.7,919.4,1829.4,1419.5,3469.8,3466.1,1071.2,855.3,1555.3,3471.0,1290.0,1261.3,3466.1,3471.0,1591.7,2123.0,2935.9,3483.2,1593.6,3486.8,3477.1,3471.0,674.2,760.4,1940.0,1085.1,1021.9,783.6,0.0,1.0,1.0,10616.0,-12100.0,2245.0,2076.0,41.0,35.0,-11.0,0.0,7.0,1.0,9575.0,-13070.0,2101.0,-1229.0,23.0,5.0,14.0,1.0
2022-05-23 15:53:36.167705-07:00,1281.0,796.0,1079.0,979.0,900.0,909.3,1837.2,1436.9,3469.8,3466.1,1071.2,855.3,1551.5,3455.2,1298.1,1261.3,3467.4,3481.9,1589.9,2115.9,2935.9,3483.2,1593.6,3486.8,3483.2,3480.7,669.3,761.2,1940.0,1085.1,1021.9,783.6,3.0,-4.0,-1.0,10619.0,-12098.0,2244.0,2067.0,16.0,-19.0,-33.0,-3.0,-1.0,-5.0,9574.0,-13071.0,2103.0,-1229.0,-6.0,6.0,8.0,1.0
2022-05-23 15:53:36.198111-07:00,1291.8,798.5,1084.2,977.3,900.0,909.3,1837.2,1436.9,3463.7,3466.1,1064.3,837.7,1551.5,3455.2,1298.1,1261.3,3467.4,3481.9,1589.9,2115.9,2932.5,3490.5,1597.4,3492.9,3483.2,3480.7,669.3,761.2,1945.0,1080.8,1019.4,784.4,-4.0,-3.0,-4.0,10637.0,-12085.0,2234.0,2059.0,60.0,-5.0,-29.0,0.0,-4.0,-1.0,9586.0,-13062.0,2101.0,-1231.0,44.0,-2.0,5.0,1.0
2022-05-23 15:53:36.258311-07:00,1291.8,798.5,1084.2,977.3,890.7,916.0,1834.3,1425.9,3463.7,3466.1,1064.3,837.7,1560.9,3462.5,1299.0,1261.3,3474.6,3467.4,1588.0,2122.0,2932.5,3490.5,1597.4,3492.9,3479.5,3473.4,687.2,764.5,1945.0,1080.8,1019.4,784.4,0.0,-10.0,4.0,10656.0,-12072.0,2223.0,2053.0,60.0,-25.0,-31.0,0.0,-8.0,1.0,9598.0,-13053.0,2101.0,-1232.0,37.0,-9.0,10.0,1.0
2022-05-23 15:53:36.317579-07:00,1278.3,787.7,1086.8,977.3,890.7,916.0,1834.3,1414.0,3467.4,3467.4,1072.1,847.0,1560.9,3462.5,1299.0,1261.3,3473.4,3467.4,1588.0,2122.0,2935.9,3489.2,1595.5,3488.0,3472.2,3473.4,687.2,764.5,1947.9,1068.6,1022.8,781.1,-16.0,-15.0,40.0,10695.0,-12043.0,2196.0,2049.0,198.0,-117.0,-130.0,12.0,-45.0,29.0,9629.0,-13029.0,2107.0,-1231.0,119.0,4.0,44.0,1.0
2022-05-23 15:53:36.348229-07:00,1272.1,787.7,1086.8,977.3,895.7,919.4,1844.0,1414.0,3471.0,3467.4,1072.1,847.0,1554.3,3471.0,1302.5,1261.3,3473.4,3477.1,1583.3,2106.8,2935.9,3489.2,1595.5,3485.6,3472.2,3478.3,671.7,772.0,1947.9,1068.6,1022.8,788.6,-10.0,28.0,-15.0,10867.0,-11913.0,2098.0,2005.0,939.0,-346.0,-260.0,-9.0,59.0,44.0,9779.0,-12911.0,2132.0,-1246.0,782.0,68.0,89.0,1.0
2022-05-23 15:53:36.407565-07:00,1272.1,798.5,1121.7,1051.3,895.7,919.4,1844.0,1425.0,3471.0,3468.6,1073.8,844.4,1554.3,3471.0,1302.5,1273.9,3468.6,3477.1,1583.3,2106.8,2921.2,3491.7,1588.9,3485.6,3467.4,3478.3,671.7,772.0,1929.2,1111.2,1051.3,788.6,20.0,-53.0,-27.0,11052.0,-11758.0,1976.0,2037.0,-21.0,-232.0,-60.0,3.0,-32.0,-33.0,9916.0,-12799.0,2152.0,-1290.0,54.0,69.0,11.0,1.0
2022-05-23 15:53:36.467910-07:00,1273.9,798.5,1121.7,1051.3,906.7,926.2,1853.7,1425.0,3473.4,3468.6,1073.8,844.4,1549.7,3472.2,1370.3,1273.9,3468.6,3466.1,1580.5,2102.7,2921.2,3491.7,1588.9,3492.9,3467.4,3468.6,671.7,795.2,1929.2,1111.2,1051.3,781.1,-20.0,-91.0,-35.0,11087.0,-11724.0,1921.0,2090.0,455.0,-265.0,114.0,-9.0,-26.0,3.0,9988.0,-12738.0,2171.0,-1306.0,455.0,41.0,77.0,1.0
2022-05-23 15:53:36.498201-07:00,1273.9,803.5,1168.2,1086.0,906.7,926.2,1853.7,1413.1,3473.4,3472.2,1081.6,852.0,1549.7,3472.2,1370.3,1303.4,3478.3,3466.1,1580.5,2102.7,2926.9,3490.5,1581.4,3492.9,3478.3,3468.6,671.7,795.2,1931.1,1150.6,1112.1,781.1,4.0,12.0,-46.0,11243.0,-11548.0,1914.0,2240.0,403.0,-414.0,270.0,-9.0,0.0,-35.0,10205.0,-12560.0,2193.0,-1315.0,638.0,-17.0,132.0,1.0
2022-05-23 15:53:36.558737-07:00,1266.7,803.5,1168.2,1086.0,893.2,940.7,1912.4,1413.1,3462.5,3472.2,1081.6,852.0,1556.2,3463.7,1432.3,1303.4,3478.3,3474.6,1585.2,2142.2,2926.9,3490.5,1581.4,3480.7,3478.3,3467.4,679.9,834.4,1931.1,1150.6,1112.1,781.9,-14.0,41.0,-26.0,11376.0,-11391.0,1874.0,2397.0,457.0,-421.0,65.0,-18.0,17.0,-6.0,10402.0,-12399.0,2186.0,-1309.0,621.0,-57.0,52.0,1.0
2022-05-23 15:53:36.587430-07:00,1266.7,797.7,1153.3,1048.7,893.2,940.7,1933.1,1381.2,3462.5,3461.3,1096.4,871.3,1556.2,3463.7,1436.0,1298.1,3467.4,3462.5,1585.2,2142.2,2920.1,3490.5,1566.5,3480.7,3467.4,3478.3,679.9,834.4,1944.0,1133.1,1098.2,781.9,34.0,45.0,-37.0,11517.0,-11237.0,1778.0,2520.0,309.0,-406.0,43.0,-5.0,38.0,-25.0,10585.0,-12246.0,2161.0,-1326.0,490.0,-32.0,-28.0,1.0
