Time,P0,P1,P2,P3,P4,P5,P6,P7,P8,P9,P10,P11,P12,P13,P14,P15,P16,P17,P18,P19,P20,P21,P22,P23,P24,P25,P26,P27,P28,P29,P30,P31,ECG,AX0,AY0,AZ0,QW0,QX0,QY0,QZ0,GX0,GY0,GZ0,AX1,AY1,AZ1,QW1,QX1,QY1,QZ1,GX1,GY1,GZ1
2022-05-23 14:42:39.934980-07:00,1294.5,835.2,1103.4,981.6,912.7,911.0,1846.9,1388.5,3475.9,3468.6,1140.1,873.8,1637.9,3468.6,1305.2,1282.8,3468.6,3474.6,1623.7,2105.8,2745.8,3483.2,1971.7,3489.2,3479.5,3478.3,676.6,831.1,1809.0,1024.5,991.0,950.0,14.0,-6.0,11.0,6030.0,-7717.0,10816.0,-7452.0,-54.0,-3.0,96.0,-5.0,10.0,-7.0,8578.0,-13931.0,538.0,-693.0,20.0,-12.0,18.0,1.0
2022-05-23 14:42:40.024270-07:00,1294.5,835.2,1103.4,981.6,905.0,908.4,1848.9,1397.6,3475.9,3468.6,1140.1,873.8,1650.2,3463.7,1312.4,1281.0,3471.0,3467.4,1610.5,2112.8,2745.8,3483.2,1971.7,3489.2,3462.5,3478.3,675.8,831.9,1809.0,1024.5,991.0,950.0,0.0,-2.0,30.0,6023.0,-7652.0,10878.0,-7435.0,-79.0,170.0,222.0,-2.0,-10.0,17.0,8589.0,-13925.0,541.0,-682.0,30.0,-13.0,29.0,1.0
2022-05-23 14:42:40.026375-07:00,1290.9,835.2,1102.5,979.0,905.0,908.4,1848.9,1397.6,3469.8,3471.0,1138.4,871.3,1650.2,3463.7,1312.4,1281.0,3471.0,3467.4,1610.5,2112.8,2738.1,3484.4,1963.7,3494.1,3462.5,3478.3,675.8,831.9,1810.0,1015.9,995.3,963.7,11.0,26.0,5.0,5988.0,-7584.0,10954.0,-7421.0,-125.0,186.0,100.0,3.0,5.0,11.0,8580.0,-13930.0,560.0,-679.0,-87.0,36.0,37.0,1.0
2022-05-23 14:42:40.084594-07:00,1294.5,835.2,1102.5,979.0,915.2,913.5,1827.5,1382.1,3467.4,3471.0,1138.4,871.3,1636.9,3463.7,1306.1,1285.5,3473.4,3467.4,1623.7,2111.8,2738.1,3484.4,1963.7,3483.2,3467.4,3474.6,679.1,835.2,1810.0,1015.9,995.3,937.3,-8.0,3.0,-16.0,5926.0,-7563.0,11000.0,-7424.0,-47.0,123.0,-27.0,-3.0,-2.0,-1.0,8539.0,-13954.0,586.0,-683.0,-98.0,33.0,40.0,1.0
2022-05-23 14:42:40.145086-07:00,1294.5,826.9,1095.6,974.8,915.2,913.5,1827.5,1380.3,3467.4,3468.6,1139.2,875.5,1636.9,3463.7,1306.1,1287.3,3471.0,3467.4,1623.7,2111.8,2741.4,3495.3,1952.9,3483.2,3477.1,3474.6,679.1,835.2,1801.3,1028.8,985.9,937.3,-11.0,3.0,-13.0,5896.0,-7562.0,11013.0,-7430.0,-34.0,33.0,-12.0,-14.0,0.0,-11.0,8519.0,-13965.0,602.0,-682.0,-21.0,3.0,15.0,1.0
2022-05-23 14:42:40.174847-07:00,1273.9,826.9,1095.6,974.8,920.3,911.0,1836.2,1380.3,3464.9,3468.6,1139.2,875.5,1646.4,3469.8,1308.8,1287.3,3471.0,3474.6,1635.0,2098.7,2741.4,3495.3,1952.9,3486.8,3477.1,3471.0,685.6,836.1,1801.3,1028.8,985.9,945.8,-12.0,17.0,-3.0,5896.0,-7562.0,11006.0,-7439.0,62.0,-11.0,-41.0,-13.0,4.0,3.0,8533.0,-13957.0,603.0,-680.0,54.0,-7.0,-13.0,1.0
2022-05-23 14:42:40.234581-07:00,1273.9,829.4,1094.7,983.3,920.3,911.0,1836.2,1369.4,3464.9,3468.6,1143.6,871.3,1646.4,3469.8,1308.8,1281.0,3469.8,3474.6,1635.0,2098.7,2734.8,3495.3,1943.0,3486.8,3472.2,3471.0,685.6,836.1,1795.5,1014.2,986.7,945.8,-8.0,-6.0,3.0,5901.0,-7585.0,10983.0,-7447.0,8.0,-55.0,-65.0,-10.0,-3.0,3.0,8542.0,-13952.0,592.0,-683.0,12.0,-12.0,-28.0,1.0
2022-05-23 14:42:40.325253-07:00,1274.7,829.4,1094.7,983.3,920.3,906.7,1838.2,1369.4,3466.1,3468.6,1143.6,871.3,1636.9,3466.1,1306.1,1281.0,3469.8,3480.7,1633.1,2100.7,2734.8,3495.3,1943.0,3495.3,3472.2,3484.4,676.6,832.7,1795.5,1014.2,986.7,973.9,0.0,1.0,9.0,5909.0,-7602.0,10962.0,-7453.0,48.0,-26.0,-40.0,-4.0,-2.0,5.0,8551.0,-13947.0,580.0,-680.0,36.0,-15.0,-12.0,1.0
2022-05-23 14:42:40.326220-07:00,1274.7,825.2,1085.1,983.3,920.3,906.7,1828.4,1383.0,3466.1,3458.9,1133.1,871.3,1636.9,3466.1,1306.1,1276.5,3472.2,3474.6,1633.1,2100.7,2735.9,3488.0,1941.0,3495.3,3477.1,3477.1,676.6,832.7,1814.9,1025.4,983.3,973.9,1.0,-3.0,3.0,5914.0,-7612.0,10947.0,-7463.0,-25.0,-18.0,-24.0,-1.0,0.0,0.0,8556.0,-13944.0,574.0,-681.0,-25.0,-11.0,-15.0,1.0
2022-05-23 14:42:40.384799-07:00,1277.4,813.5,1085.1,983.3,916.0,912.7,1828.4,1383.0,3468.6,3469.8,1133.1,871.3,1636.9,3474.6,1306.1,1276.5,3472.2,3474.6,1623.7,2109.8,2735.9,3488.0,1928.2,3485.6,3477.1,3477.1,671.7,832.7,1814.9,1025.4,987.6,950.9,2.0,8.0,10.0,5911.0,-7619.0,10946.0,-7459.0,22.0,-6.0,-22.0,-3.0,0.0,0.0,8553.0,-13946.0,572.0,-681.0,12.0,-4.0,-2.0,1.0
2022-05-23 14:42:40.444148-07:00,1277.4,813.5,1094.7,982.5,916.0,912.7,1804.2,1364.8,3468.6,3469.8,1140.1,873.0,1636.9,3474.6,1303.4,1277.4,3473.4,3474.6,1623.7,2109.8,2738.1,3484.4,1928.2,3485.6,3478.3,3472.2,671.7,832.7,1800.3,1021.1,987.6,950.9,-9.0,-1.0,-9.0,5907.0,-7625.0,10931.0,-7478.0,28.0,10.0,-53.0,-6.0,2.0,3.0,8558.0,-13943.0,570.0,-682.0,2.0,-4.0,-14.0,1.0
2022-05-23 14:42:40.474647-07:00,1270.3,820.2,1094.7,982.5,919.4,919.4,1804.2,1364.8,3468.6,3467.4,1140.1,873.0,1641.6,3466.1,1303.4,1277.4,3473.4,3474.6,1612.4,2101.7,2738.1,3484.4,1931.1,3485.6,3478.3,3472.2,681.5,829.4,1800.3,1021.1,994.5,950.0,-6.0,-2.0,7.0,5904.0,-7635.0,10929.0,-7473.0,-37.0,-26.0,7.0,-7.0,-2.0,2.0,8554.0,-13946.0,564.0,-682.0,-18.0,-11.0,-15.0,1.0
2022-05-23 14:42:40.535088-07:00,1270.3,820.2,1099.0,980.7,919.4,919.4,1849.8,1358.5,3468.6,3467.4,1139.2,874.7,1641.6,3466.1,1304.3,1277.4,3478.3,3471.0,1612.4,2101.7,2738.1,3507.5,1931.1,3485.6,3472.2,3480.7,681.5,829.4,1795.5,1028.8,994.5,950.0,3.0,0.0,1.0,5906.0,-7641.0,10926.0,-7469.0,17.0,-10.0,-24.0,-2.0,-3.0,0.0,8552.0,-13947.0,561.0,-681.0,10.0,-6.0,-8.0,1.0
2022-05-23 14:42:40.594207-07:00,1283.7,816.9,1099.0,980.7,912.7,914.4,1849.8,1358.5,3467.4,3467.4,1139.2,874.7,1639.8,3466.1,1304.3,1277.4,3478.3,3471.0,1632.2,2098.7,2738.1,3507.5,1930.2,3488.0,3472.2,3480.7,679.1,834.4,1795.5,1028.8,995.3,950.9,-8.0,-3.0,-3.0,5908.0,-7645.0,10913.0,-7483.0,29.0,-13.0,-30.0,-6.0,0.0,4.0,8559.0,-13943.0,559.0,-677.0,14.0,-9.0,-4.0,1.0
2022-05-23 14:42:40.625148-07:00,1283.7,816.9,1105.1,981.6,912.7,923.7,1813.9,1354.9,3467.4,3467.4,1138.4,878.0,1639.8,3467.4,1314.2,1277.4,3471.0,3472.2,1620.9,2098.7,2737.0,3485.6,1930.2,3488.0,3475.9,3474.6,679.1,834.4,1800.3,1028.8,995.3,950.9,7.0,1.0,8.0,5915.0,-7651.0,10904.0,-7484.0,0.0,-1.0,6.0,0.0,2.0,1.0,8565.0,-13939.0,557.0,-674.0,11.0,-15.0,-13.0,1.0
2022-05-23 14:42:40.714895-07:00,1274.7,817.7,1088.6,981.6,915.2,923.7,1813.9,1354.9,3467.4,3473.4,1132.2,878.0,1638.8,3467.4,1314.2,1277.4,3471.0,3472.2,1620.9,2111.8,2737.0,3481.9,1921.3,3488.0,3475.9,3474.6,679.1,838.6,1800.3,1022.8,983.3,953.4,-6.0,14.0,3.0,5916.0,-7643.0,10906.0,-7489.0,27.0,4.0,-8.0,-5.0,0.0,10.0,8570.0,-13937.0,553.0,-674.0,-2.0,-1.0,0.0,1.0
2022-05-23 14:42:40.773901-07:00,1274.7,817.7,1088.6,986.7,915.2,919.4,1800.3,1375.7,3467.4,3473.4,1132.2,875.5,1638.8,3471.0,1309.7,1274.7,3464.9,3468.6,1622.8,2111.8,2746.9,3481.9,1921.3,3488.0,3473.4,3480.7,684.0,838.6,1794.5,1022.8,983.3,953.4,-7.0,-4.0,-6.0,5909.0,-7653.0,10901.0,-7492.0,-17.0,2.0,-30.0,-8.0,0.0,0.0,8561.0,-13942.0,552.0,-675.0,-29.0,-3.0,-10.0,1.0
2022-05-23 14:42:40.776281-07:00,1270.3,825.2,1093.8,986.7,911.0,919.4,1800.3,1375.7,3467.4,3461.3,1141.9,875.5,1631.3,3471.0,1309.7,1274.7,3464.9,3468.6,1622.8,2089.6,2746.9,3486.8,1916.4,3497.8,3473.4,3480.7,684.0,845.3,1794.5,1029.7,994.5,951.7,4.0,-2.0,9.0,5907.0,-7657.0,10907.0,-7480.0,-17.0,-13.0,24.0,-1.0,-5.0,0.0,8553.0,-13947.0,551.0,-675.0,4.0,-10.0,5.0,1.0
2022-05-23 14:42:40.834568-07:00,1270.3,825.2,1093.8,983.3,911.0,924.5,1815.8,1357.6,3467.4,3461.3,1141.9,874.7,1631.3,3474.6,1311.5,1277.4,3477.1,3464.9,1650.2,2089.6,2739.2,3486.8,1916.4,3497.8,3469.8,3471.0,686.4,845.3,1797.4,1029.7,994.5,951.7,0.0,5.0,-2.0,5910.0,-7651.0,10905.0,-7487.0,19.0,8.0,-11.0,-2.0,1.0,5.0,8558.0,-13944.0,550.0,-674.0,3.0,-5.0,1.0,1.0
2022-05-23 14:42:40.894058-07:00,1269.4,821.0,1094.7,976.5,919.4,924.5,1815.8,1357.6,3472.2,3457.6,1133.1,878.9,1636.0,3474.6,1311.5,1277.4,3477.1,3464.9,1650.2,2100.7,2733.7,3492.9,1912.4,3495.3,3469.8,3471.0,686.4,837.7,1790.7,1026.3,1004.8,949.2,0.0,-6.0,3.0,5907.0,-7653.0,10909.0,-7481.0,-17.0,2.0,24.0,-2.0,-1.0,7.0,8555.0,-13946.0,551.0,-674.0,-11.0,-7.0,5.0,1.0
2022-05-23 14:42:40.924675-07:00,1269.4,821.0,1094.7,976.5,911.0,927.9,1802.3,1357.6,3472.2,3457.6,1133.1,878.9,1633.1,3469.8,1307.0,1273.9,3467.4,3469.8,1619.0,2097.7,2733.7,3492.9,1912.4,3495.3,3488.0,3467.4,672.5,837.7,1790.7,1026.3,1004.8,949.2,-6.0,7.0,1.0,5909.0,-7646.0,10912.0,-7483.0,9.0,13.0,2.0,-8.0,0.0,7.0,8554.0,-13947.0,552.0,-673.0,-8.0,1.0,5.0,1.0
2022-05-23 14:42:40.984586-07:00,1263.1,815.2,1092.1,974.8,911.0,927.9,1802.3,1357.6,3471.0,3468.6,1135.7,869.6,1633.1,3469.8,1307.0,1273.9,3467.4,3469.8,1619.0,2097.7,2733.7,3489.2,1905.6,3479.5,3488.0,3467.4,672.5,837.7,1790.7,1024.5,986.7,943.2,0.0,-1.0,0.0,5907.0,-7652.0,10916.0,-7473.0,-51.0,-28.0,-3.0,-10.0,-1.0,-1.0,8545.0,-13952.0,553.0,-673.0,-48.0,-2.0,6.0,1.0
2022-05-23 14:42:41.015097-07:00,1263.1,815.2,1092.1,974.8,904.2,915.2,1798.4,1360.3,3471.0,3468.6,1135.7,869.6,1632.2,3469.8,1303.4,1268.5,3472.2,3481.9,1619.9,2105.8,2733.7,3489.2,1905.6,3479.5,3469.8,3480.7,675.8,831.1,1790.7,1024.5,986.7,943.2,-1.0,2.0,0.0,5905.0,-7648.0,10918.0,-7475.0,47.0,29.0,14.0,-4.0,-3.0,6.0,8538.0,-13957.0,553.0,-672.0,39.0,2.0,12.0,1.0
2022-05-23 14:42:41.074645-07:00,1270.3,829.4,1103.4,982.5,904.2,915.2,1798.4,1360.3,3472.2,3467.4,1133.1,872.1,1632.2,3469.8,1303.4,1268.5,3472.2,3481.9,1619.9,2105.8,2742.5,3488.0,1905.6,3495.3,3469.8,3480.7,675.8,831.1,1818.7,1021.1,993.6,947.5,1.0,2.0,2.0,5907.0,-7639.0,10920.0,-7480.0,-13.0,-5.0,8.0,-2.0,-1.0,4.0,8544.0,-13953.0,557.0,-670.0,-16.0,-3.0,17.0,1.0
2022-05-23 14:42:41.134523-07:00,1270.3,829.4,1103.4,982.5,916.0,909.3,1791.6,1347.6,3472.2,3467.4,1133.1,872.1,1630.3,3462.5,1301.6,1275.6,3481.9,3472.2,1635.0,2099.7,2742.5,3488.0,1905.6,3495.3,3471.0,3471.0,686.4,836.1,1818.7,1021.1,993.6,947.5,0.0,-2.0,4.0,5907.0,-7636.0,10920.0,-7482.0,40.0,28.0,15.0,-4.0,0.0,5.0,8542.0,-13954.0,563.0,-666.0,13.0,1.0,15.0,1.0
2022-05-23 14:42:41.165008-07:00,1273.0,823.5,1097.3,978.2,916.0,909.3,1791.6,1354.0,3471.0,3466.1,1123.5,871.3,1630.3,3462.5,1301.6,1272.1,3472.2,3472.2,1635.0,2099.7,2729.3,3492.9,1899.7,3492.9,3483.2,3471.0,686.4,836.1,1799.4,1021.9,978.2,955.1,-7.0,9.0,-6.0,5912.0,-7619.0,10922.0,-7493.0,7.0,11.0,25.0,-7.0,0.0,4.0,8552.0,-13947.0,569.0,-663.0,14.0,8.0,17.0,1.0
2022-05-23 14:42:41.224626-07:00,1273.0,823.5,1097.3,978.2,905.0,923.7,1802.3,1354.0,3471.0,3466.1,1123.5,871.3,1636.9,3466.1,1301.6,1272.1,3472.2,3473.4,1624.7,2090.6,2729.3,3492.9,1899.7,3481.9,3483.2,3483.2,679.9,826.9,1799.4,1021.9,978.2,946.6,0.0,0.0,13.0,5904.0,-7621.0,10930.0,-7485.0,-16.0,29.0,-6.0,-6.0,-3.0,7.0,8542.0,-13954.0,574.0,-660.0,-39.0,4.0,7.0,1.0
2022-05-23 14:42:41.284461-07:00,1273.0,817.7,1089.5,975.6,905.0,923.7,1802.3,1330.5,3471.0,3473.4,1131.4,871.3,1636.9,3466.1,1301.6,1274.7,3474.6,3473.4,1624.7,2090.6,2730.4,3496.6,1904.6,3481.9,3475.9,3483.2,679.9,826.9,1783.9,1025.4,988.5,946.6,-7.0,1.0,-3.0,5897.0,-7613.0,10937.0,-7489.0,-13.0,18.0,20.0,-9.0,-4.0,4.0,8540.0,-13955.0,574.0,-660.0,-9.0,4.0,6.0,1.0
2022-05-23 14:42:41.316030-07:00,1264.0,817.7,1089.5,975.6,908.4,926.2,1811.0,1330.5,3475.9,3473.4,1131.4,871.3,1629.4,3473.4,1305.2,1274.7,3474.6,3479.5,1622.8,2103.7,2730.4,3496.6,1904.6,3502.7,3475.9,3478.3,670.9,831.9,1783.9,1025.4,988.5,950.0,1.0,6.0,-6.0,5900.0,-7615.0,10938.0,-7484.0,-20.0,-23.0,2.0,-3.0,0.0,0.0,8534.0,-13959.0,578.0,-657.0,-24.0,-9.0,10.0,1.0
2022-05-23 14:42:41.404543-07:00,1264.0,819.4,1096.4,973.1,908.4,926.2,1811.0,1344.9,3475.9,3468.6,1125.2,872.1,1629.4,3473.4,1305.2,1269.4,3474.6,3479.5,1622.8,2103.7,2737.0,3486.8,1904.6,3502.7,3473.4,3478.3,670.9,831.9,1802.3,1021.9,983.3,950.0,1.0,5.0,1.0,5905.0,-7612.0,10933.0,-7489.0,44.0,-1.0,-5.0,-3.0,0.0,5.0,8539.0,-13956.0,577.0,-657.0,25.0,-8.0,-2.0,1.0
2022-05-23 14:42:41.434538-07:00,1262.2,817.7,1096.4,973.1,898.3,919.4,1805.2,1344.9,3464.9,3469.8,1125.2,872.1,1635.0,3469.8,1299.0,1269.4,3474.6,3467.4,1619.9,2094.7,2737.0,3486.8,1893.8,3488.0,3473.4,3488.0,677.4,835.2,1802.3,1021.9,979.9,950.9,-9.0,0.0,-1.0,5906.0,-7623.0,10934.0,-7476.0,-76.0,-40.0,-3.0,-11.0,-3.0,4.0,8528.0,-13963.0,576.0,-655.0,-58.0,-12.0,-10.0,1.0
2022-05-23 14:42:41.465013-07:00,1262.2,817.7,1084.2,977.3,898.3,919.4,1786.8,1346.7,3464.9,3469.8,1131.4,872.1,1635.0,3469.8,1296.3,1268.5,3467.4,3469.8,1619.9,2094.7,2733.7,3486.8,1893.8,3488.0,3481.9,3474.6,677.4,835.2,1788.7,1018.5,979.9,950.9,2.0,-3.0,10.0,5904.0,-7630.0,10938.0,-7465.0,15.0,12.0,8.0,-5.0,-6.0,9.0,8520.0,-13967.0,574.0,-652.0,16.0,-4.0,1.0,1.0
2022-05-23 14:42:41.584521-07:00,1266.7,819.4,1084.2,977.3,903.4,919.4,1786.8,1346.7,3462.5,3479.5,1131.4,872.1,1632.2,3468.6,1296.3,1268.5,3467.4,3469.8,1609.6,2093.7,2733.7,3486.8,1893.8,3483.2,3481.9,3474.6,669.3,831.9,1788.7,1018.5,985.0,942.4,0.0,7.0,0.0,5905.0,-7630.0,10937.0,-7466.0,-36.0,-10.0,6.0,0.0,1.0,6.0,8520.0,-13968.0,574.0,-652.0,-36.0,-2.0,4.0,1.0
2022-05-23 14:42:41.585575-07:00,1266.7,819.4,1082.5,973.1,903.4,919.4,1788.7,1348.5,3462.5,3479.5,1125.2,868.8,1632.2,3468.6,1304.3,1262.2,3478.3,3467.4,1609.6,2093.7,2720.5,3486.8,1893.8,3483.2,3468.6,3484.4,669.3,831.9,1786.8,1009.9,985.0,942.4,4.0,-1.0,5.0,5902.0,-7635.0,10950.0,-7445.0,-45.0,-3.0,31.0,-1.0,-3.0,4.0,8505.0,-13977.0,575.0,-651.0,-31.0,-1.0,8.0,1.0
2022-05-23 14:42:41.615106-07:00,1271.2,821.0,1082.5,973.1,902.5,916.0,1788.7,1348.5,3460.1,3478.3,1125.2,868.8,1635.0,3475.9,1304.3,1262.2,3478.3,3467.4,1623.7,2095.7,2720.5,3486.8,1891.8,3481.9,3468.6,3484.4,677.4,826.0,1786.8,1009.9,979.9,947.5,-1.0,4.0,5.0,5901.0,-7631.0,10957.0,-7439.0,10.0,11.0,4.0,-11.0,-1.0,7.0,8500.0,-13979.0,578.0,-650.0,0.0,4.0,9.0,1.0
2022-05-23 14:42:41.705083-07:00,1271.2,821.0,1082.5,973.1,902.5,916.0,1787.8,1347.6,3460.1,3478.3,1129.6,869.6,1635.0,3475.9,1303.4,1260.4,3474.6,3473.4,1623.7,2095.7,2739.2,3488.0,1891.8,3481.9,3472.2,3480.7,677.4,826.0,1787.8,1015.9,979.9,947.5,-12.0,4.0,-6.0,5902.0,-7631.0,10956.0,-7439.0,-1.0,-17.0,-8.0,-14.0,-2.0,2.0,8500.0,-13979.0,578.0,-650.0,-6.0,-6.0,2.0,1.0
2022-05-23 14:42:41.734536-07:00,1273.9,811.0,1092.9,973.1,920.3,923.7,1787.8,1347.6,3472.2,3467.4,1123.5,869.6,1632.2,3473.4,1303.4,1260.4,3474.6,3473.4,1620.9,2109.8,2739.2,3492.9,1893.8,3486.8,3472.2,3480.7,677.4,830.2,1787.8,1014.2,983.3,944.1,-1.0,3.0,-4.0,5907.0,-7641.0,10950.0,-7433.0,-13.0,-22.0,-12.0,-13.0,-1.0,-2.0,8498.0,-13981.0,573.0,-646.0,0.0,-14.0,-17.0,1.0
2022-05-23 14:42:41.765022-07:00,1273.9,811.0,1092.9,977.3,920.3,909.3,1779.1,1344.0,3472.2,3467.4,1123.5,873.8,1632.2,3462.5,1298.1,1266.7,3474.6,3475.9,1619.0,2109.8,2741.4,3492.9,1893.8,3486.8,3479.5,3475.9,671.7,830.2,1795.5,1014.2,983.3,944.1,-3.0,6.0,5.0,5916.0,-7640.0,10942.0,-7439.0,39.0,-13.0,-14.0,-8.0,-1.0,8.0,8511.0,-13973.0,562.0,-646.0,37.0,-11.0,-18.0,1.0
2022-05-23 14:42:41.824579-07:00,1252.4,816.9,1087.7,977.3,905.9,909.3,1779.1,1344.0,3473.4,3463.7,1130.5,873.8,1626.5,3462.5,1298.1,1266.7,3474.6,3475.9,1619.0,2093.7,2741.4,3491.7,1896.7,3490.5,3479.5,3475.9,671.7,823.5,1795.5,1029.7,987.6,956.8,8.0,-6.0,11.0,5912.0,-7647.0,10938.0,-7441.0,-4.0,-2.0,-18.0,0.0,0.0,11.0,8511.0,-13974.0,556.0,-649.0,-8.0,0.0,-9.0,1.0
2022-05-23 14:42:41.884577-07:00,1252.4,816.9,1087.7,977.3,905.9,912.7,1791.6,1347.6,3473.4,3463.7,1130.5,870.5,1626.5,3473.4,1291.8,1263.1,3471.0,3472.2,1621.8,2093.7,2730.4,3491.7,1896.7,3490.5,3478.3,3474.6,678.2,823.5,1786.8,1029.7,987.6,956.8,2.0,0.0,0.0,5909.0,-7644.0,10938.0,-7446.0,-1.0,12.0,4.0,-2.0,-1.0,1.0,8511.0,-13974.0,556.0,-649.0,-3.0,1.0,-2.0,1.0
2022-05-23 14:42:41.915084-07:00,1262.2,830.2,1085.1,977.3,905.0,912.7,1791.6,1347.6,3469.8,3473.4,1129.6,870.5,1632.2,3473.4,1291.8,1263.1,3471.0,3472.2,1621.8,2096.7,2730.4,3495.3,1888.9,3485.6,3478.3,3474.6,678.2,827.7,1786.8,1021.1,974.8,950.9,-7.0,6.0,-4.0,5907.0,-7643.0,10939.0,-7447.0,-17.0,-10.0,-2.0,-6.0,-1.0,6.0,8510.0,-13974.0,556.0,-649.0,-19.0,-5.0,3.0,1.0
2022-05-23 14:42:41.974684-07:00,1262.2,830.2,1085.1,987.6,902.5,919.4,1791.6,1335.0,3469.8,3473.4,1129.6,867.9,1624.7,3468.6,1298.1,1259.6,3472.2,3467.4,1616.2,2091.6,2724.9,3495.3,1888.9,3485.6,3474.6,3467.4,672.5,830.2,1790.7,1021.1,974.8,950.9,0.0,-4.0,10.0,5907.0,-7648.0,10941.0,-7439.0,-7.0,-6.0,2.0,-11.0,-3.0,1.0,8507.0,-13976.0,557.0,-649.0,23.0,-3.0,1.0,1.0
2022-05-23 14:42:42.034603-07:00,1277.4,815.2,1084.2,978.2,902.5,919.4,1791.6,1335.0,3472.2,3471.0,1124.4,864.6,1624.7,3468.6,1298.1,1259.6,3472.2,3467.4,1616.2,2091.6,2721.6,3490.5,1887.9,3488.0,3474.6,3467.4,672.5,830.2,1789.7,1008.2,979.9,948.3,-5.0,12.0,2.0,5913.0,-7637.0,10935.0,-7453.0,36.0,14.0,9.0,-9.0,1.0,7.0,8519.0,-13969.0,557.0,-650.0,4.0,4.0,0.0,1.0
2022-05-23 14:42:42.065006-07:00,1277.4,815.2,1084.2,978.2,905.9,916.9,1783.9,1325.9,3472.2,3471.0,1124.4,864.6,1628.4,3466.1,1292.7,1264.0,3474.6,3471.0,1620.9,2103.7,2721.6,3490.5,1887.9,3488.0,3468.6,3481.9,670.1,831.1,1789.7,1008.2,979.9,948.3,1.0,-6.0,4.0,5908.0,-7640.0,10941.0,-7446.0,-40.0,-5.0,10.0,-2.0,-3.0,5.0,8508.0,-13975.0,557.0,-650.0,-20.0,6.0,9.0,1.0
2022-05-23 14:42:42.124830-07:00,1256.0,827.7,1086.8,973.9,905.9,916.9,1783.9,1325.9,3475.9,3473.4,1125.2,863.7,1628.4,3466.1,1292.7,1264.0,3474.6,3471.0,1620.9,2103.7,2726.0,3491.7,1887.9,3486.8,3468.6,3481.9,670.1,831.1,1784.9,1014.2,975.6,942.4,6.0,11.0,4.0,5910.0,-7635.0,10942.0,-7449.0,37.0,20.0,-9.0,-1.0,0.0,7.0,8509.0,-13975.0,561.0,-651.0,9.0,12.0,4.0,1.0
2022-05-23 14:42:42.184588-07:00,1256.0,827.7,1086.8,973.9,919.4,915.2,1783.9,1344.9,3475.9,3473.4,1125.2,863.7,1626.5,3466.1,1296.3,1267.6,3467.4,3472.2,1613.4,2089.6,2726.0,3491.7,1887.9,3486.8,3475.9,3474.6,681.5,826.0,1784.9,1014.2,975.6,942.4,-2.0,0.0,-1.0,5901.0,-7637.0,10941.0,-7456.0,-31.0,19.0,-13.0,-11.0,-2.0,4.0,8501.0,-13979.0,565.0,-656.0,-31.0,15.0,-4.0,1.0
2022-05-23 14:42:42.215056-07:00,1256.9,826.9,1083.4,972.2,919.4,915.2,1783.9,1327.8,3468.6,3469.8,1124.4,867.1,1626.5,3466.1,1296.3,1264.9,3471.0,3472.2,1613.4,2089.6,2708.4,3490.5,1889.9,3484.4,3479.5,3474.6,681.5,826.0,1788.7,1014.2,973.1,942.4,-5.0,0.0,1.0,5893.0,-7634.0,10949.0,-7453.0,-14.0,12.0,20.0,-10.0,-3.0,5.0,8493.0,-13984.0,568.0,-656.0,-15.0,3.0,13.0,1.0
2022-05-23 14:42:42.274784-07:00,1264.0,826.9,1083.4,972.2,904.2,908.4,1787.8,1327.8,3473.4,3469.8,1124.4,867.1,1629.4,3471.0,1299.8,1264.9,3471.0,3468.6,1615.2,2094.7,2708.4,3490.5,1889.9,3502.7,3479.5,3481.9,676.6,824.4,1788.7,1014.2,973.1,940.7,-1.0,6.0,-3.0,5892.0,-7631.0,10952.0,-7453.0,0.0,7.0,-5.0,-7.0,-1.0,4.0,8493.0,-13984.0,572.0,-653.0,-11.0,6.0,12.0,1.0
2022-05-23 14:42:42.334597-07:00,1264.0,817.7,1080.8,978.2,904.2,908.4,1787.8,1350.3,3473.4,3468.6,1125.2,869.6,1629.4,3471.0,1299.8,1263.1,3478.3,3468.6,1615.2,2094.7,2723.8,3488.0,1886.9,3502.7,3473.4,3481.9,676.6,824.4,1789.7,1015.1,978.2,940.7,-1.0,6.0,-2.0,5892.0,-7632.0,10951.0,-7453.0,-8.0,-11.0,4.0,-7.0,2.0,5.0,8491.0,-13985.0,576.0,-651.0,-18.0,-7.0,7.0,1.0
2022-05-23 14:42:42.365252-07:00,1263.1,817.7,1080.8,978.2,901.7,917.7,1784.9,1350.3,3463.7,3468.6,1125.2,869.6,1635.0,3457.6,1290.9,1263.1,3478.3,3473.4,1619.0,2085.6,2723.8,3488.0,1886.9,3497.8,3473.4,3472.2,674.2,821.9,1789.7,1015.1,978.2,942.4,-2.0,5.0,2.0,5892.0,-7635.0,10953.0,-7448.0,12.0,-8.0,-6.0,-10.0,-2.0,7.0,8488.0,-13987.0,575.0,-650.0,-1.0,-9.0,0.0,1.0
2022-05-23 14:42:42.424790-07:00,1263.1,811.0,1086.8,986.7,901.7,917.7,1784.9,1334.1,3463.7,3477.1,1126.1,869.6,1635.0,3457.6,1290.9,1267.6,3474.6,3473.4,1619.0,2085.6,2718.3,3492.9,1886.9,3497.8,3467.4,3472.2,674.2,821.9,1782.0,1007.3,980.7,942.4,1.0,0.0,4.0,5891.0,-7638.0,10948.0,-7452.0,-5.0,-4.0,-14.0,-8.0,-1.0,4.0,8486.0,-13988.0,575.0,-650.0,-7.0,-7.0,1.0,1.0
2022-05-23 14:42:42.514737-07:00,1261.3,811.0,1086.8,986.7,901.7,916.0,1775.2,1334.1,3472.2,3477.1,1126.1,869.6,1619.0,3468.6,1294.5,1267.6,3474.6,3467.4,1620.9,2097.7,2718.3,3492.9,1886.9,3486.8,3467.4,3472.2,675.8,829.4,1782.0,1007.3,980.7,947.5,-8.0,1.0,-4.0,5891.0,-7641.0,10949.0,-7448.0,-26.0,-21.0,2.0,-12.0,-4.0,7.0,8480.0,-13992.0,576.0,-650.0,-29.0,-5.0,6.0,1.0
2022-05-23 14:42:42.517643-07:00,1261.3,824.4,1086.0,962.0,901.7,916.0,1791.6,1341.3,3472.2,3467.4,1125.2,868.8,1619.0,3468.6,1294.5,1259.6,3467.4,3473.4,1620.9,2097.7,2727.1,3494.1,1880.1,3486.8,3483.2,3474.6,675.8,829.4,1795.5,1015.9,977.3,947.5,-5.0,4.0,0.0,5890.0,-7645.0,10951.0,-7442.0,5.0,3.0,9.0,-7.0,-3.0,10.0,8473.0,-13996.0,578.0,-649.0,-3.0,1.0,11.0,1.0
2022-05-23 14:42:42.574337-07:00,1252.4,829.4,1086.0,962.0,901.7,912.7,1791.6,1341.3,3468.6,3469.8,1125.2,868.8,1628.4,3464.9,1294.5,1259.6,3467.4,3473.4,1619.9,2085.6,2727.1,3494.1,1889.9,3481.9,3483.2,3474.6,673.3,820.2,1795.5,1015.9,979.9,947.5,-6.0,5.0,-4.0,5886.0,-7654.0,10957.0,-7426.0,-90.0,-30.0,3.0,-9.0,-4.0,8.0,8459.0,-14005.0,579.0,-648.0,-64.0,-6.0,-1.0,1.0
2022-05-23 14:42:42.634829-07:00,1252.4,829.4,1091.2,980.7,901.7,912.7,1780.1,1321.4,3468.6,3469.8,1121.7,861.2,1628.4,3464.9,1288.2,1256.9,3467.4,3467.4,1619.9,2085.6,2723.8,3495.3,1889.9,3481.9,3469.8,3473.4,673.3,820.2,1782.9,1011.6,979.9,947.5,6.0,0.0,3.0,5883.0,-7667.0,10963.0,-7407.0,-27.0,-9.0,9.0,-4.0,-4.0,3.0,8444.0,-14013.0,580.0,-647.0,-16.0,-1.0,-2.0,1.0
2022-05-23 14:42:42.665086-07:00,1263.1,813.5,1091.2,980.7,912.7,909.3,1780.1,1321.4,3452.8,3461.3,1121.7,861.2,1626.5,3464.9,1288.2,1256.9,3467.4,3467.4,1615.2,2089.6,2723.8,3495.3,1885.0,3475.9,3469.8,3473.4,666.8,828.5,1782.9,1011.6,974.8,944.1,-6.0,5.0,0.0,5881.0,-7665.0,10963.0,-7409.0,5.0,7.0,4.0,-8.0,-1.0,6.0,8442.0,-14015.0,580.0,-647.0,-13.0,4.0,5.0,1.0
2022-05-23 14:42:42.724205-07:00,1263.1,813.5,1078.2,978.2,912.7,909.3,1786.8,1326.8,3452.8,3461.3,1124.4,868.8,1626.5,3464.9,1282.8,1256.9,3472.2,3469.8,1615.2,2089.6,2729.3,3497.8,1885.0,3475.9,3464.9,3472.2,666.8,828.5,1787.8,1009.9,974.8,944.1,-1.0,-5.0,3.0,5877.0,-7666.0,10967.0,-7407.0,-1.0,20.0,3.0,-11.0,-3.0,5.0,8436.0,-14018.0,582.0,-646.0,3.0,9.0,14.0,1.0
2022-05-23 14:42:42.784626-07:00,1261.3,823.5,1084.2,978.2,899.1,907.6,1786.8,1326.8,3462.5,3468.6,1120.9,868.8,1637.9,3473.4,1282.8,1256.9,3472.2,3469.8,1619.9,2093.7,2729.3,3480.7,1881.1,3490.5,3464.9,3472.2,679.1,829.4,1787.8,1007.3,974.8,945.8,-2.0,4.0,-4.0,5873.0,-7657.0,10971.0,-7414.0,9.0,19.0,15.0,-11.0,0.0,7.0,8436.0,-14018.0,589.0,-644.0,-11.0,0.0,16.0,1.0
2022-05-23 14:42:42.815031-07:00,1261.3,823.5,1084.2,973.1,899.1,902.5,1771.4,1334.1,3462.5,3468.6,1120.9,864.6,1637.9,3469.8,1290.0,1259.6,3469.8,3475.9,1621.8,2093.7,2727.1,3480.7,1881.1,3490.5,3473.4,3473.4,670.9,829.4,1782.0,1007.3,974.8,945.8,-2.0,0.0,1.0,5871.0,-7650.0,10977.0,-7413.0,8.0,11.0,19.0,-9.0,-3.0,7.0,8434.0,-14020.0,594.0,-640.0,15.0,-3.0,8.0,1.0
2022-05-23 14:42:42.874350-07:00,1260.4,813.5,1079.0,973.1,905.9,902.5,1771.4,1334.1,3466.1,3463.7,1121.7,864.6,1632.2,3469.8,1290.0,1259.6,3469.8,3475.9,1621.8,2087.6,2727.1,3497.8,1879.1,3485.6,3473.4,3473.4,670.9,819.4,1782.0,1011.6,966.2,949.2,-5.0,11.0,0.0,5878.0,-7640.0,10971.0,-7426.0,51.0,5.0,-2.0,-9.0,1.0,8.0,8444.0,-14013.0,594.0,-641.0,33.0,-6.0,-5.0,1.0
2022-05-23 14:42:42.934703-07:00,1260.4,813.5,1079.0,977.3,905.9,914.4,1777.2,1339.5,3466.1,3463.7,1121.7,864.6,1632.2,3472.2,1290.0,1261.3,3473.4,3473.4,1615.2,2087.6,2716.1,3497.8,1879.1,3485.6,3475.9,3467.4,666.0,819.4,1782.9,1011.6,966.2,949.2,-24.0,-3.0,18.0,5888.0,-7632.0,10952.0,-7455.0,125.0,22.0,-30.0,-13.0,-18.0,13.0,8465.0,-14001.0,587.0,-645.0,98.0,-8.0,-29.0,1.0
2022-05-23 14:42:42.994053-07:00,1258.7,822.7,1134.9,977.3,909.3,914.4,1777.2,1339.5,3466.1,3462.5,1153.3,864.6,1625.6,3472.2,1290.0,1261.3,3473.4,3473.4,1615.2,2086.6,2716.1,3486.8,1880.1,3485.6,3475.9,3467.4,666.0,826.0,1782.9,1162.1,1053.9,950.0,3.0,-2.0,9.0,5896.0,-7561.0,10916.0,-7573.0,421.0,252.0,-16.0,16.0,9.0,-15.0,8553.0,-13947.0,580.0,-651.0,365.0,2.0,9.0,1.0
2022-05-23 14:42:43.024169-07:00,1258.7,822.7,1134.9,1028.0,909.3,988.5,1763.7,1340.4,3466.1,3462.5,1153.3,896.6,1625.6,3467.4,1560.9,1384.8,3475.9,3469.8,1627.5,2086.6,2722.7,3486.8,1880.1,3485.6,3474.6,3472.2,695.4,826.0,1802.3,1162.1,1053.9,950.0,-74.0,-30.0,117.0,5858.0,-7410.0,10859.0,-7828.0,664.0,548.0,-109.0,-12.0,-21.0,14.0,8707.0,-13851.0,572.0,-661.0,487.0,36.0,8.0,1.0
2022-05-23 14:42:43.084608-07:00,1258.7,821.0,1631.3,1428.6,908.4,988.5,1763.7,1340.4,3475.9,3464.9,1442.4,1063.4,1649.2,3467.4,1560.9,1384.8,3475.9,3469.8,1627.5,2128.0,2726.0,3491.7,1918.3,3491.7,3474.6,3472.2,695.4,892.4,1896.7,1468.1,1382.1,944.1,-44.0,-47.0,-25.0,5753.0,-7315.0,10819.0,-8048.0,163.0,450.0,-210.0,9.0,-27.0,36.0,8824.0,-13776.0,592.0,-671.0,171.0,40.0,68.0,1.0
2022-05-23 14:42:43.144433-07:00,1258.7,821.0,1631.3,1428.6,979.0,1062.5,1823.6,1354.0,3475.9,3464.9,1442.4,1063.4,1873.2,3467.4,1920.3,1763.7,3478.3,3474.6,1671.9,2095.7,2726.0,3491.7,1918.3,3491.7,3477.1,3478.3,752.1,913.5,1896.7,1468.1,1382.1,944.1,-2.0,27.0,-41.0,5704.0,-7251.0,10743.0,-8241.0,566.0,228.0,-196.0,-20.0,36.0,-15.0,8923.0,-13710.0,629.0,-673.0,375.0,32.0,66.0,1.0
2022-05-23 14:42:43.174092-07:00,1255.1,811.0,1759.8,1623.7,979.0,1062.5,1823.6,1354.0,3460.1,3462.5,1540.3,1192.0,1873.2,3467.4,1920.3,1763.7,3478.3,3474.6,1671.9,2095.7,2719.4,3481.9,1961.8,3488.0,3477.1,3478.3,752.1,913.5,1983.6,1525.5,1404.0,943.2,64.0,9.0,-27.0,5627.0,-7198.0,10681.0,-8419.0,198.0,321.0,-183.0,-4.0,36.0,1.0,9003.0,-13660.0,619.0,-647.0,210.0,-143.0,14.0,1.0
2022-05-23 14:42:43.234079-07:00,1255.1,811.0,1759.8,1623.7,1066.9,1025.4,1829.4,1347.6,3460.1,3462.5,1540.3,1192.0,2022.4,3468.6,1962.8,1903.6,3483.2,3480.7,1688.1,2100.7,2719.4,3481.9,1961.8,3488.0,3477.1,3464.9,749.6,945.8,1983.6,1525.5,1404.0,943.2,-119.0,-19.0,-35.0,5495.0,-7211.0,10702.0,-8469.0,-239.0,-62.0,-217.0,-24.0,-31.0,76.0,8980.0,-13677.0,598.0,-616.0,-257.0,-18.0,23.0,1.0
2022-05-23 14:42:43.264827-07:00,1290.0,820.2,1693.8,1582.4,1066.9,1025.4,1829.4,1347.6,3463.7,3478.3,1550.6,1223.9,2022.4,3468.6,1962.8,1903.6,3483.2,3480.7,1688.1,2100.7,2715.0,3490.5,2006.4,3485.6,3477.1,3464.9,749.6,945.8,2018.4,1498.6,1371.2,938.1,39.0,-102.0,-43.0,5549.0,-7339.0,10675.0,-8356.0,-171.0,-286.0,185.0,-32.0,-21.0,-27.0,8870.0,-13748.0,619.0,-617.0,-229.0,25.0,26.0,1.0
2022-05-23 14:42:43.324216-07:00,1290.0,820.2,1693.8,1582.4,1171.8,1025.4,1872.3,1350.3,3463.7,3478.3,1550.6,1223.9,2019.4,3471.0,1918.3,1858.6,3483.2,3472.2,1697.6,2095.7,2715.0,3490.5,2006.4,3485.6,3475.9,3467.4,746.3,974.8,2018.4,1498.6,1371.2,938.1,-54.0,31.0,-35.0,5684.0,-7288.0,10731.0,-8237.0,-100.0,-328.0,380.0,6.0,14.0,-6.0,8853.0,-13758.0,640.0,-601.0,-12.0,4.0,68.0,1.0
2022-05-23 14:42:43.384598-07:00,1379.4,916.0,1649.2,1567.4,1171.8,1025.4,1872.3,1340.4,3464.9,3483.2,1542.2,1226.6,2019.4,3471.0,1918.3,1841.1,3471.0,3472.2,1697.6,2095.7,2709.5,3483.2,2012.4,3485.6,3472.2,3467.4,746.3,974.8,2316.0,1445.1,1327.8,1012.5,0.0,31.0,-1.0,5789.0,-7279.0,10754.0,-8142.0,-3.0,-156.0,169.0,-8.0,8.0,1.0,8842.0,-13766.0,644.0,-579.0,-4.0,-61.0,9.0,1.0
2022-05-23 14:42:43.415038-07:00,1411.3,916.0,1649.2,1567.4,1188.5,1023.7,1882.0,1340.4,3475.9,3483.2,1542.2,1226.6,2032.4,3471.0,1886.9,1841.1,3471.0,3469.8,1691.0,2115.9,2709.5,3483.2,2012.4,3501.4,3472.2,3478.3,736.5,980.7,2316.0,1445.1,1327.8,1045.2,-11.0,-11.0,-15.0,5873.0,-7270.0,10771.0,-8066.0,-55.0,-199.0,239.0,-10.0,-8.0,21.0,8841.0,-13768.0,633.0,-554.0,-4.0,-56.0,2.0,1.0
2022-05-23 14:42:43.474200-07:00,1411.3,956.0,1625.6,1561.8,1188.5,1023.7,1882.0,1365.7,3475.9,3473.4,1528.3,1216.0,2032.4,3471.0,1886.9,1829.4,3488.0,3469.8,1691.0,2115.9,2708.4,3489.2,2005.5,3501.4,3472.2,3478.3,736.5,980.7,2454.7,1427.7,1316.9,1045.2,-12.0,5.0,6.0,6008.0,-7265.0,10792.0,-7944.0,-46.0,-367.0,277.0,-8.0,-8.0,23.0,8849.0,-13764.0,632.0,-531.0,6.0,-26.0,19.0,1.0
2022-05-23 14:42:43.534626-07:00,1425.9,956.0,1625.6,1561.8,1191.2,1014.2,1901.6,1365.7,3473.4,3473.4,1528.3,1216.0,2054.4,3462.5,1879.1,1829.4,3488.0,3477.1,1701.4,2083.6,2708.4,3489.2,2005.5,3484.4,3472.2,3480.7,737.3,992.7,2454.7,1427.7,1316.9,1083.4,31.0,28.0,6.0,6146.0,-7270.0,10759.0,-7876.0,125.0,-247.0,102.0,-7.0,5.0,-4.0,8874.0,-13748.0,629.0,-524.0,92.0,-22.0,2.0,1.0
2022-05-23 14:42:43.564854-07:00,1425.9,982.5,1623.7,1556.2,1191.2,1014.2,1901.6,1380.3,3473.4,3474.6,1521.8,1202.7,2054.4,3462.5,1879.1,1815.8,3478.3,3477.1,1701.4,2083.6,2685.3,3499.0,1987.5,3484.4,3475.9,3480.7,737.3,992.7,2463.2,1423.1,1310.6,1083.4,-21.0,3.0,-5.0,6229.0,-7227.0,10750.0,-7863.0,80.0,-72.0,212.0,-9.0,-1.0,29.0,8914.0,-13724.0,617.0,-507.0,120.0,-43.0,-3.0,1.0
2022-05-23 14:42:43.654459-07:00,1439.6,969.6,1623.7,1556.2,1203.5,1011.6,1896.7,1380.3,3477.1,3463.7,1521.8,1202.7,2041.4,3467.4,1851.8,1815.8,3478.3,3475.9,1687.2,2087.6,2685.3,3499.0,1970.7,3488.0,3475.9,3469.8,734.8,991.0,2463.2,1423.1,1303.4,1112.1,-13.0,20.0,7.0,6283.0,-7220.0,10767.0,-7804.0,-91.0,-147.0,64.0,-5.0,-3.0,22.0,8918.0,-13722.0,607.0,-491.0,-54.0,-31.0,-9.0,1.0
2022-05-23 14:42:43.656924-07:00,1439.6,969.6,1600.2,1532.0,1203.5,1011.6,1884.0,1410.3,3477.1,3463.7,1515.3,1205.3,2041.4,3467.4,1857.6,1815.8,3461.3,3488.0,1687.2,2087.6,2700.7,3495.3,1970.7,3488.0,3473.4,3474.6,734.8,991.0,2452.6,1412.2,1303.4,1112.1,15.0,-26.0,14.0,6322.0,-7237.0,10744.0,-7788.0,119.0,-44.0,26.0,-16.0,-4.0,-10.0,8923.0,-13719.0,600.0,-489.0,71.0,-10.0,-15.0,1.0
2022-05-23 14:42:43.744076-07:00,1448.8,979.0,1600.2,1532.0,1191.2,1013.3,1884.0,1410.3,3463.7,3464.9,1515.3,1205.3,2029.4,3466.1,1857.6,1815.8,3461.3,3488.0,1684.3,2089.6,2700.7,3495.3,1952.9,3480.7,3473.4,3474.6,738.9,988.5,2452.6,1412.2,1299.8,1080.8,-2.0,16.0,-7.0,6351.0,-7206.0,10743.0,-7794.0,11.0,-1.0,75.0,-6.0,2.0,9.0,8948.0,-13704.0,593.0,-483.0,30.0,-28.0,-5.0,1.0
2022-05-23 14:42:43.774231-07:00,1448.8,979.0,1609.6,1545.0,1191.2,1013.3,1871.3,1419.5,3463.7,3464.9,1510.6,1205.3,2029.4,3466.1,1841.1,1794.5,3469.8,3475.9,1684.3,2089.6,2732.6,3497.8,1952.9,3480.7,3473.4,3473.4,738.9,988.5,2429.3,1414.0,1299.8,1080.8,3.0,7.0,-5.0,6359.0,-7207.0,10746.0,-7783.0,-15.0,-52.0,-17.0,2.0,-2.0,16.0,8951.0,-13702.0,588.0,-478.0,-6.0,-6.0,-11.0,1.0
2022-05-23 14:42:43.804512-07:00,1465.4,987.6,1609.6,1545.0,1198.2,1001.3,1871.3,1419.5,3461.3,3468.6,1510.6,1205.3,2023.4,3464.9,1841.1,1794.5,3469.8,3475.9,1681.4,2096.7,2732.6,3497.8,1959.8,3491.7,3473.4,3473.4,745.5,992.7,2429.3,1414.0,1281.0,1062.5,-2.0,2.0,4.0,6365.0,-7211.0,10738.0,-7786.0,-1.0,14.0,11.0,-8.0,2.0,5.0,8954.0,-13700.0,583.0,-480.0,9.0,-6.0,-12.0,1.0
2022-05-23 14:42:43.864716-07:00,1465.4,987.6,1597.4,1536.6,1198.2,1008.2,1871.3,1425.0,3461.3,3468.6,1506.9,1206.2,2023.4,3462.5,1840.1,1782.9,3473.4,3477.1,1676.7,2096.7,2710.6,3489.2,1959.8,3491.7,3464.9,3483.2,738.9,992.7,2428.2,1404.9,1281.0,1062.5,-6.0,9.0,7.0,6359.0,-7199.0,10759.0,-7774.0,-45.0,13.0,34.0,-8.0,-5.0,17.0,8950.0,-13703.0,584.0,-475.0,-38.0,-5.0,10.0,1.0
2022-05-23 14:42:43.924251-07:00,1454.3,968.8,1591.7,1536.6,1193.8,1008.2,1871.3,1425.0,3469.8,3472.2,1506.0,1206.2,1997.5,3462.5,1840.1,1782.9,3473.4,3477.1,1676.7,2084.6,2710.6,3489.2,1943.0,3486.8,3464.9,3483.2,738.9,986.7,2428.2,1398.5,1296.3,1065.1,-1.0,3.0,6.0,6337.0,-7203.0,10779.0,-7759.0,-86.0,52.0,-17.0,-9.0,-3.0,11.0,8931.0,-13715.0,586.0,-473.0,-79.0,12.0,3.0,1.0
2022-05-23 14:42:43.954935-07:00,1454.3,968.8,1591.7,1527.3,1193.8,996.2,1855.7,1415.8,3469.8,3472.2,1506.0,1201.8,1997.5,3468.6,1816.8,1787.8,3473.4,3466.1,1671.0,2084.6,2702.9,3489.2,1943.0,3486.8,3483.2,3467.4,742.2,986.7,2409.2,1398.5,1296.3,1065.1,-6.0,-5.0,-10.0,6310.0,-7212.0,10793.0,-7754.0,-56.0,14.0,-10.0,-12.0,-4.0,5.0,8909.0,-13729.0,591.0,-476.0,-61.0,11.0,9.0,1.0
2022-05-23 14:42:44.044055-07:00,1450.6,956.0,1583.3,1527.3,1182.3,996.2,1855.7,1415.8,3468.6,3461.3,1498.6,1201.8,1990.5,3468.6,1816.8,1787.8,3473.4,3466.1,1671.0,2086.6,2702.9,3496.6,1927.2,3485.6,3483.2,3467.4,742.2,973.9,2409.2,1399.4,1280.1,1073.8,3.0,0.0,-5.0,6302.0,-7219.0,10801.0,-7742.0,-26.0,4.0,2.0,-5.0,0.0,0.0,8895.0,-13738.0,596.0,-473.0,-15.0,-3.0,10.0,1.0
2022-05-23 14:42:44.074280-07:00,1450.6,956.0,1583.3,1521.8,1182.3,1004.8,1857.6,1416.7,3468.6,3461.3,1498.6,1202.7,1990.5,3468.6,1823.6,1782.0,3473.4,3471.0,1667.2,2086.6,2707.3,3496.6,1927.2,3485.6,3477.1,3472.2,736.5,973.9,2395.5,1399.4,1280.1,1073.8,-6.0,14.0,-3.0,6294.0,-7214.0,10810.0,-7740.0,-14.0,29.0,-1.0,-4.0,-2.0,15.0,8894.0,-13739.0,598.0,-470.0,-13.0,-7.0,5.0,1.0
2022-05-23 14:42:44.104462-07:00,1430.5,953.4,1589.9,1521.8,1174.4,1004.8,1857.6,1416.7,3473.4,3468.6,1500.4,1202.7,1982.6,3468.6,1823.6,1782.0,3473.4,3471.0,1667.2,2092.6,2707.3,3495.3,1925.2,3488.0,3477.1,3472.2,736.5,976.5,2395.5,1401.2,1281.0,1063.4,-4.0,1.0,0.0,6287.0,-7228.0,10815.0,-7727.0,-58.0,-37.0,-13.0,-5.0,-5.0,10.0,8884.0,-13745.0,598.0,-468.0,-41.0,-5.0,6.0,1.0
2022-05-23 14:42:44.165299-07:00,1430.5,953.4,1589.9,1515.3,1156.8,995.3,1839.1,1409.4,3473.4,3468.6,1500.4,1200.0,1974.6,3473.4,1821.6,1776.2,3473.4,3474.6,1673.8,2091.6,2697.4,3495.3,1925.2,3488.0,3464.9,3472.2,737.3,970.5,2377.6,1401.2,1281.0,1063.4,0.0,-5.0,3.0,6284.0,-7241.0,10822.0,-7707.0,-43.0,1.0,5.0,-7.0,-4.0,4.0,8871.0,-13754.0,601.0,-465.0,-25.0,-7.0,13.0,1.0
2022-05-23 14:42:44.224174-07:00,1429.5,964.5,1593.6,1517.1,1156.8,995.3,1839.1,1409.4,3474.6,3478.3,1493.0,1192.0,1974.6,3473.4,1821.6,1776.2,3473.4,3474.6,1673.8,2091.6,2690.8,3486.8,1921.3,3484.4,3464.9,3472.2,737.3,970.5,2361.9,1401.2,1281.9,1056.5,6.0,16.0,4.0,6281.0,-7238.0,10828.0,-7703.0,-5.0,27.0,4.0,-3.0,2.0,13.0,8869.0,-13755.0,607.0,-461.0,-10.0,7.0,5.0,1.0
2022-05-23 14:42:44.255197-07:00,1429.5,964.5,1593.6,1517.1,1154.2,989.3,1854.7,1405.8,3474.6,3478.3,1493.0,1192.0,1967.7,3469.8,1809.0,1772.3,3474.6,3469.8,1666.3,2078.5,2690.8,3486.8,1921.3,3484.4,3473.4,3472.2,734.0,968.8,2361.9,1401.2,1281.9,1056.5,-8.0,1.0,-6.0,6265.0,-7244.0,10835.0,-7701.0,-54.0,21.0,-11.0,-14.0,0.0,12.0,8860.0,-13760.0,608.0,-459.0,-55.0,-2.0,0.0,1.0
2022-05-23 14:42:44.315032-07:00,1420.4,942.4,1583.3,1513.4,1154.2,989.3,1854.7,1405.8,3466.1,3488.0,1490.3,1196.5,1967.7,3469.8,1809.0,1772.3,3474.6,3469.8,1666.3,2078.5,2702.9,3489.2,1920.3,3497.8,3473.4,3472.2,734.0,968.8,2355.6,1386.6,1272.1,1053.9,-9.0,1.0,-5.0,6251.0,-7255.0,10852.0,-7680.0,-44.0,8.0,1.0,-5.0,-7.0,13.0,8838.0,-13775.0,610.0,-454.0,-38.0,-9.0,6.0,1.0
2022-05-23 14:42:44.374246-07:00,1420.4,942.4,1583.3,1513.4,1149.8,1004.8,1823.6,1406.7,3466.1,3488.0,1490.3,1196.5,1958.8,3463.7,1809.0,1771.4,3467.4,3478.3,1672.9,2086.6,2702.9,3489.2,1920.3,3497.8,3480.7,3467.4,734.8,966.2,2355.6,1386.6,1272.1,1053.9,4.0,3.0,-4.0,6247.0,-7260.0,10856.0,-7672.0,-19.0,3.0,5.0,-3.0,0.0,4.0,8828.0,-13781.0,611.0,-452.0,-19.0,-10.0,4.0,1.0
2022-05-23 14:42:44.404572-07:00,1416.7,943.2,1583.3,1518.0,1149.8,1004.8,1823.6,1395.7,3467.4,3467.4,1490.3,1193.8,1958.8,3463.7,1809.0,1766.6,3472.2,3478.3,1672.9,2086.6,2706.2,3490.5,1905.6,3479.5,3472.2,3467.4,734.8,966.2,2351.4,1391.2,1275.6,1047.8,0.0,1.0,-1.0,6245.0,-7257.0,10867.0,-7661.0,-39.0,8.0,30.0,-4.0,-4.0,12.0,8822.0,-13785.0,612.0,-447.0,-31.0,-6.0,17.0,1.0
2022-05-23 14:42:44.465090-07:00,1404.0,943.2,1583.3,1518.0,1147.1,991.9,1831.3,1395.7,3467.4,3467.4,1490.3,1193.8,1952.9,3468.6,1810.0,1766.6,3472.2,3467.4,1654.9,2078.5,2706.2,3490.5,1905.6,3486.8,3472.2,3475.9,738.1,963.7,2351.4,1391.2,1275.6,1047.8,0.0,8.0,1.0,6246.0,-7254.0,10872.0,-7655.0,7.0,6.0,4.0,-9.0,0.0,10.0,8818.0,-13788.0,618.0,-442.0,-6.0,7.0,11.0,1.0
2022-05-23 14:42:44.554522-07:00,1404.0,947.5,1554.3,1520.8,1147.1,991.9,1831.3,1400.3,3467.4,3460.1,1485.6,1198.2,1952.9,3468.6,1810.0,1761.8,3478.3,3467.4,1654.9,2078.5,2678.8,3486.8,1910.5,3486.8,3467.4,3475.9,738.1,963.7,2346.2,1401.2,1268.5,1047.8,-7.0,3.0,-1.0,6241.0,-7250.0,10876.0,-7658.0,1.0,27.0,0.0,-14.0,0.0,10.0,8816.0,-13788.0,624.0,-442.0,-11.0,11.0,11.0,1.0
2022-05-23 14:42:44.556222-07:00,1408.5,947.5,1554.3,1520.8,1155.9,983.3,1865.4,1400.3,3473.4,3460.1,1485.6,1198.2,1948.9,3463.7,1811.0,1761.8,3478.3,3467.4,1660.6,2068.5,2678.8,3486.8,1910.5,3484.4,3467.4,3469.8,735.6,964.5,2346.2,1401.2,1268.5,1047.8,-10.0,6.0,-7.0,6231.0,-7255.0,10886.0,-7648.0,-48.0,-4.0,5.0,-10.0,-3.0,7.0,8806.0,-13795.0,631.0,-436.0,-41.0,2.0,12.0,1.0
2022-05-23 14:42:44.615102-07:00,1408.5,964.5,1573.0,1508.8,1155.9,983.3,1865.4,1396.7,3473.4,3464.9,1490.3,1184.1,1948.9,3463.7,1811.0,1760.8,3467.4,3467.4,1660.6,2068.5,2698.5,3492.9,1907.5,3484.4,3471.0,3469.8,735.6,964.5,2330.6,1398.5,1267.6,1047.8,-2.0,5.0,-5.0,6230.0,-7262.0,10885.0,-7643.0,4.0,-16.0,-18.0,-9.0,0.0,4.0,8800.0,-13799.0,633.0,-434.0,0.0,0.0,3.0,1.0
2022-05-23 14:42:44.674097-07:00,1397.6,964.5,1573.0,1508.8,1141.9,977.3,1825.5,1396.7,3460.1,3464.9,1490.3,1184.1,1948.9,3469.8,1806.1,1760.8,3467.4,3479.5,1660.6,2072.5,2698.5,3492.9,1907.5,3483.2,3471.0,3474.6,735.6,953.4,2330.6,1398.5,1267.6,1056.5,-1.0,4.0,-4.0,6229.0,-7266.0,10885.0,-7638.0,-25.0,-16.0,-3.0,-7.0,-6.0,13.0,8798.0,-13800.0,632.0,-431.0,-21.0,-16.0,1.0,1.0
2022-05-23 14:42:44.704499-07:00,1397.6,943.2,1577.7,1505.1,1141.9,977.3,1826.5,1373.9,3460.1,3467.4,1479.2,1189.4,1948.9,3469.8,1801.3,1755.0,3457.6,3471.0,1660.6,2072.5,2715.0,3502.7,1915.4,3483.2,3475.9,3471.0,735.6,953.4,2325.4,1394.8,1267.6,1056.5,-1.0,5.0,0.0,6231.0,-7275.0,10884.0,-7630.0,-21.0,-13.0,-10.0,-8.0,0.0,6.0,8793.0,-13804.0,631.0,-429.0,-14.0,-12.0,-1.0,1.0
2022-05-23 14:42:44.765068-07:00,1392.1,940.7,1577.7,1505.1,1159.4,982.5,1826.5,1373.9,3457.6,3460.1,1479.2,1189.4,1944.0,3475.9,1801.3,1755.0,3457.6,3471.0,1667.2,2086.6,2715.0,3502.7,1893.8,3483.2,3475.9,3471.0,726.6,954.3,2325.4,1394.8,1272.1,1049.6,1.0,0.0,3.0,6230.0,-7279.0,10885.0,-7626.0,-5.0,-5.0,-10.0,-8.0,-2.0,6.0,8787.0,-13808.0,628.0,-424.0,-13.0,-10.0,0.0,1.0
2022-05-23 14:42:44.854560-07:00,1392.1,940.7,1573.9,1514.3,1159.4,982.5,1818.7,1376.6,3457.6,3460.1,1487.5,1185.0,1944.0,3475.9,1796.5,1752.1,3479.5,3467.4,1667.2,2086.6,2700.7,3486.8,1893.8,3483.2,3475.9,3475.9,726.6,954.3,2311.8,1393.0,1272.1,1049.6,0.0,-1.0,-4.0,6229.0,-7281.0,10883.0,-7629.0,-10.0,-9.0,-3.0,-9.0,0.0,6.0,8786.0,-13808.0,628.0,-423.0,-10.0,-6.0,5.0,1.0
2022-05-23 14:42:44.856238-07:00,1404.9,940.7,1573.9,1514.3,1145.4,985.9,1818.7,1376.6,3468.6,3469.8,1487.5,1185.0,1925.2,3478.3,1796.5,1752.1,3479.5,3467.4,1654.9,2060.5,2700.7,3486.8,1891.8,3480.7,3475.9,3475.9,731.5,963.7,2311.8,1393.0,1276.5,1047.0,-7.0,16.0,-4.0,6230.0,-7280.0,10886.0,-7624.0,-9.0,-17.0,-5.0,-3.0,-2.0,14.0,8784.0,-13809.0,628.0,-422.0,-10.0,-4.0,0.0,1.0
2022-05-23 14:42:44.915027-07:00,1404.9,940.7,1580.5,1502.3,1145.4,985.9,1817.8,1367.6,3468.6,3469.8,1478.3,1174.4,1925.2,3478.3,1790.7,1748.3,3466.1,3466.1,1654.9,2060.5,2693.0,3492.9,1891.8,3480.7,3473.4,3471.0,731.5,963.7,2303.5,1376.6,1276.5,1047.0,-3.0,0.0,-1.0,6232.0,-7291.0,10878.0,-7623.0,-2.0,-16.0,-21.0,-9.0,-3.0,10.0,8779.0,-13813.0,625.0,-423.0,-12.0,-9.0,-14.0,1.0
2022-05-23 14:42:44.974177-07:00,1384.8,930.5,1568.3,1502.3,1140.1,977.3,1817.8,1367.6,3468.6,3468.6,1481.9,1174.4,1935.1,3468.6,1790.7,1748.3,3466.1,3466.1,1667.2,2078.5,2693.0,3486.8,1893.8,3486.8,3473.4,3471.0,724.9,954.3,2303.5,1379.4,1263.1,1028.8,0.0,6.0,-4.0,6244.0,-7299.0,10866.0,-7622.0,19.0,-41.0,-13.0,-10.0,2.0,0.0,8782.0,-13811.0,622.0,-423.0,18.0,-9.0,-7.0,1.0
2022-05-23 14:42:45.005186-07:00,1384.8,930.5,1568.3,1498.6,1140.1,979.9,1818.7,1387.5,3468.6,3468.6,1481.9,1188.5,1935.1,3467.4,1794.5,1758.9,3472.2,3475.9,1665.3,2078.5,2694.1,3486.8,1893.8,3486.8,3474.6,3478.3,732.3,954.3,2308.7,1379.4,1263.1,1028.8,0.0,0.0,0.0,6245.0,-7300.0,10866.0,-7621.0,-20.0,-7.0,7.0,-6.0,-1.0,11.0,8784.0,-13810.0,621.0,-422.0,-8.0,-7.0,3.0,1.0
2022-05-23 14:42:45.064759-07:00,1383.0,933.0,1565.5,1498.6,1130.5,979.9,1818.7,1387.5,3471.0,3464.9,1479.2,1188.5,1923.3,3467.4,1794.5,1758.9,3472.2,3475.9,1665.3,2072.5,2694.1,3492.9,1885.0,3479.5,3474.6,3478.3,732.3,949.2,2308.7,1385.7,1256.9,1039.2,3.0,1.0,2.0,6244.0,-7300.0,10868.0,-7620.0,-6.0,12.0,14.0,-2.0,-2.0,9.0,8783.0,-13811.0,624.0,-420.0,-3.0,4.0,15.0,1.0
2022-05-23 14:42:45.124174-07:00,1383.0,933.0,1565.5,1507.8,1130.5,975.6,1821.6,1386.6,3471.0,3464.9,1479.2,1191.2,1923.3,3462.5,1798.4,1750.2,3471.0,3475.9,1664.4,2072.5,2691.9,3492.9,1885.0,3479.5,3467.4,3474.6,725.8,949.2,2306.6,1385.7,1256.9,1039.2,1.0,10.0,-2.0,6240.0,-7297.0,10874.0,-7616.0,-19.0,13.0,4.0,-6.0,0.0,11.0,8777.0,-13814.0,629.0,-416.0,-26.0,1.0,10.0,1.0
2022-05-23 14:42:45.154881-07:00,1390.3,946.6,1562.7,1507.8,1129.6,975.6,1821.6,1386.6,3457.6,3461.3,1477.3,1191.2,1929.2,3462.5,1798.4,1750.2,3471.0,3475.9,1664.4,2081.6,2691.9,3484.4,1886.0,3485.6,3467.4,3474.6,725.8,954.3,2306.6,1385.7,1258.7,1028.0,-8.0,8.0,-7.0,6229.0,-7295.0,10882.0,-7616.0,-22.0,22.0,5.0,-13.0,-2.0,11.0,8769.0,-13819.0,630.0,-416.0,-20.0,7.0,8.0,1.0
2022-05-23 14:42:45.214648-07:00,1390.3,946.6,1562.7,1500.4,1116.5,979.0,1805.2,1379.4,3457.6,3461.3,1477.3,1180.6,1922.3,3457.6,1802.3,1746.4,3474.6,3467.4,1657.7,2073.5,2691.9,3484.4,1886.0,3485.6,3472.2,3467.4,735.6,945.8,2295.2,1385.7,1258.7,1028.0,-9.0,6.0,-8.0,6226.0,-7294.0,10884.0,-7617.0,0.0,0.0,-9.0,-10.0,-3.0,10.0,8764.0,-13822.0,630.0,-416.0,-4.0,8.0,1.0,1.0
2022-05-23 14:42:45.274317-07:00,1380.3,933.0,1559.0,1497.7,1116.5,979.0,1805.2,1379.4,3471.0,3478.3,1470.9,1189.4,1922.3,3457.6,1802.3,1746.4,3474.6,3467.4,1657.7,2073.5,2691.9,3485.6,1892.8,3488.0,3472.2,3467.4,735.6,945.8,2298.3,1378.5,1264.0,1042.6,-1.0,7.0,-5.0,6228.0,-7296.0,10883.0,-7614.0,-10.0,-14.0,4.0,-8.0,-1.0,7.0,8764.0,-13822.0,630.0,-416.0,-2.0,-3.0,1.0,1.0
2022-05-23 14:42:45.304610-07:00,1380.3,933.0,1559.0,1497.7,1127.0,969.6,1811.0,1388.5,3471.0,3478.3,1470.9,1189.4,1925.2,3466.1,1789.7,1751.2,3468.6,3469.8,1658.7,2081.6,2691.9,3485.6,1892.8,3488.0,3478.3,3478.3,725.8,955.1,2298.3,1378.5,1264.0,1042.6,2.0,8.0,2.0,6228.0,-7297.0,10883.0,-7613.0,-8.0,11.0,2.0,-7.0,1.0,10.0,8762.0,-13824.0,628.0,-413.0,-16.0,-6.0,-1.0,1.0
2022-05-23 14:42:45.364789-07:00,1380.3,935.6,1573.9,1501.4,1127.0,969.6,1811.0,1388.5,3471.0,3468.6,1475.5,1185.0,1925.2,3466.1,1789.7,1751.2,3468.6,3469.8,1658.7,2081.6,2691.9,3484.4,1886.0,3486.8,3478.3,3478.3,725.8,955.1,2303.5,1360.3,1273.0,1033.2,10.0,4.0,12.0,6192.0,-7272.0,10921.0,-7611.0,-106.0,200.0,80.0,1.0,19.0,11.0,8739.0,-13838.0,629.0,-409.0,-90.0,-4.0,15.0,1.0
2022-05-23 14:42:45.424254-07:00,1380.3,935.6,1573.9,1501.4,1157.7,984.2,1793.6,1376.6,3471.0,3468.6,1475.5,1185.0,1958.8,3469.8,1794.5,1748.3,3481.9,3471.0,1649.2,2084.6,2691.9,3484.4,1886.0,3486.8,3488.0,3483.2,738.9,963.7,2303.5,1360.3,1273.0,1033.2,156.0,-36.0,80.0,6032.0,-7072.0,11061.0,-7725.0,194.0,1220.0,304.0,6.0,3.0,-9.0,8746.0,-13833.0,635.0,-422.0,147.0,67.0,-26.0,1.0
2022-05-23 14:42:45.455090-07:00,1372.1,985.9,1695.7,1686.2,1157.7,984.2,1793.6,1376.6,3462.5,3480.7,1504.1,1206.2,1958.8,3469.8,1794.5,1748.3,3481.9,3471.0,1649.2,2084.6,2690.8,3486.8,1973.7,3492.9,3488.0,3483.2,738.9,963.7,2416.6,1498.6,1327.8,1055.6,-109.0,87.0,-309.0,5860.0,-6627.0,11249.0,-7977.0,262.0,563.0,502.0,-5.0,-31.0,70.0,8797.0,-13799.0,653.0,-447.0,16.0,64.0,34.0,1.0
2022-05-23 14:42:45.545200-07:00,1399.4,985.9,1695.7,1686.2,1161.2,1003.0,1850.8,1368.5,3469.8,3480.7,1504.1,1206.2,1974.6,3466.1,2186.0,1873.2,3469.8,3467.4,1649.2,2098.7,2690.8,3486.8,1973.7,3477.1,3466.1,3471.0,729.0,1024.5,2416.6,1498.6,1327.8,1056.5,34.0,80.0,34.0,5925.0,-6690.0,11207.0,-7937.0,-10.0,-52.0,-268.0,-40.0,30.0,-30.0,8751.0,-13827.0,671.0,-472.0,-249.0,64.0,-78.0,1.0
2022-05-23 14:42:45.574256-07:00,1399.4,962.8,2058.4,1673.8,1161.2,1003.0,1850.8,1379.4,3469.8,3471.0,1590.8,1189.4,1974.6,3466.1,2186.0,1925.2,3483.2,3467.4,1649.2,2098.7,2698.5,3491.7,2246.6,3477.1,3481.9,3471.0,729.0,1024.5,2429.3,1735.8,1671.0,1056.5,-104.0,-1.0,49.0,5839.0,-6724.0,11176.0,-8013.0,-21.0,72.0,-224.0,-27.0,-8.0,34.0,8686.0,-13867.0,655.0,-508.0,-159.0,78.0,-58.0,1.0
2022-05-23 14:42:45.604542-07:00,1449.7,962.8,2058.4,1673.8,1181.5,1006.5,2026.4,1379.4,3467.4,3471.0,1590.8,1189.4,2000.5,3464.9,2046.4,1925.2,3483.2,3467.4,1647.3,2106.8,2698.5,3491.7,2246.6,3484.4,3481.9,3468.6,732.3,1049.6,2429.3,1735.8,1671.0,1049.6,66.0,31.0,5.0,5783.0,-6861.0,11190.0,-7919.0,-513.0,-83.0,-144.0,5.0,23.0,-21.0,8587.0,-13927.0,665.0,-546.0,-377.0,52.0,-63.0,1.0
2022-05-23 14:42:45.664713-07:00,1449.7,946.6,1642.6,1379.4,1181.5,1006.5,2026.4,1358.5,3467.4,3467.4,1373.0,1056.5,2000.5,3464.9,2046.4,1696.7,3477.1,3467.4,1647.3,2106.8,2711.7,3497.8,2357.7,3484.4,3480.7,3468.6,732.3,1049.6,2370.3,1458.0,1464.4,1049.6,-6.0,-39.0,29.0,5701.0,-6914.0,11240.0,-7862.0,-58.0,48.0,-61.0,4.0,-23.0,10.0,8497.0,-13981.0,663.0,-568.0,-49.0,50.0,10.0,1.0
2022-05-23 14:42:45.724675-07:00,1440.5,946.6,1642.6,1379.4,1158.6,1008.2,2029.4,1358.5,3471.0,3467.4,1373.0,1056.5,1940.0,3462.5,1760.8,1696.7,3477.1,3474.6,1647.3,2108.8,2711.7,3497.8,2357.7,3489.2,3480.7,3467.4,723.3,1020.2,2370.3,1458.0,1464.4,1027.1,-3.0,35.0,-49.0,5716.0,-6934.0,11184.0,-7912.0,169.0,-76.0,-127.0,-22.0,16.0,-11.0,8504.0,-13976.0,680.0,-578.0,16.0,17.0,-8.0,1.0
2022-05-23 14:42:45.754928-07:00,1440.5,939.8,1502.3,1296.3,1158.6,1008.2,1997.5,1368.5,3471.0,3473.4,1301.6,1024.5,1940.0,3462.5,1679.5,1617.1,3474.6,3468.6,1647.3,2108.8,2707.3,3497.8,2307.7,3489.2,3479.5,3475.9,723.3,1020.2,2285.9,1358.5,1351.2,1027.1,0.0,-35.0,26.0,5704.0,-6949.0,11182.0,-7911.0,-61.0,120.0,62.0,-15.0,-18.0,3.0,8509.0,-13974.0,665.0,-579.0,116.0,-26.0,-29.0,1.0
2022-05-23 14:42:45.844694-07:00,1441.5,933.0,1502.3,1296.3,1147.1,991.0,1997.5,1368.5,3472.2,3469.8,1301.6,1024.5,1908.5,3467.4,1679.5,1617.1,3474.6,3468.6,1635.0,2106.8,2707.3,3497.8,2280.7,3497.8,3479.5,3475.9,717.5,1010.8,2285.9,1358.5,1301.6,1030.6,-5.0,38.0,17.0,5688.0,-6873.0,11193.0,-7972.0,167.0,172.0,-16.0,-9.0,1.0,36.0,8556.0,-13945.0,659.0,-582.0,17.0,33.0,-5.0,1.0
2022-05-23 14:42:45.874301-07:00,1441.5,933.0,1460.8,1272.1,1147.1,991.0,1999.5,1370.3,3472.2,3469.8,1282.8,1013.3,1908.5,3467.4,1640.7,1597.4,3469.8,3479.5,1635.0,2106.8,2717.2,3497.8,2280.7,3497.8,3479.5,3475.9,717.5,1010.8,2236.3,1326.8,1301.6,1030.6,7.0,-12.0,-23.0,5643.0,-6904.0,11198.0,-7971.0,-232.0,-33.0,-75.0,-14.0,2.0,-18.0,8516.0,-13968.0,673.0,-597.0,-176.0,35.0,0.0,1.0
2022-05-23 14:42:45.904583-07:00,1417.6,929.6,1460.8,1272.1,1122.6,979.9,1999.5,1370.3,3463.7,3474.6,1282.8,1013.3,1897.7,3464.9,1640.7,1597.4,3469.8,3479.5,1641.6,2098.7,2717.2,3497.8,2248.7,3488.0,3479.5,3475.9,707.7,1002.2,2236.3,1326.8,1273.9,1009.9,-23.0,-8.0,-23.0,5606.0,-6881.0,11240.0,-7958.0,73.0,145.0,94.0,-14.0,-11.0,17.0,8497.0,-13979.0,679.0,-602.0,48.0,16.0,15.0,1.0
2022-05-23 14:42:45.994745-07:00,1417.6,929.6,1429.5,1252.4,1122.6,979.9,1972.7,1362.1,3463.7,3474.6,1262.2,1003.0,1897.7,3464.9,1611.5,1575.8,3467.4,3474.6,1641.6,2098.7,2710.6,3489.2,2248.7,3488.0,3471.0,3474.6,707.7,1002.2,2205.5,1302.5,1273.9,1009.9,-2.0,27.0,-24.0,5609.0,-6861.0,11247.0,-7962.0,-58.0,-32.0,-18.0,-12.0,1.0,-2.0,8497.0,-13978.0,685.0,-602.0,-37.0,-4.0,-11.0,1.0
2022-05-23 14:42:45.996375-07:00,1432.3,927.1,1429.5,1252.4,1112.1,979.9,1972.7,1362.1,3458.9,3475.9,1262.2,1003.0,1883.0,3469.8,1611.5,1575.8,3467.4,3474.6,1638.8,2104.8,2710.6,3489.2,2243.5,3481.9,3471.0,3474.6,708.5,992.7,2205.5,1302.5,1253.3,1016.8,-2.0,-4.0,-6.0,5597.0,-6888.0,11246.0,-7950.0,-15.0,11.0,-41.0,-7.0,-1.0,15.0,8495.0,-13980.0,674.0,-602.0,18.0,-16.0,-29.0,1.0
2022-05-23 14:42:46.055058-07:00,1432.3,927.1,1404.9,1246.2,1112.1,987.6,1957.8,1345.8,3458.9,3475.9,1267.6,992.7,1883.0,3468.6,1596.4,1558.1,3473.4,3474.6,1640.7,2104.8,2691.9,3486.8,2243.5,3481.9,3474.6,3480.7,706.0,992.7,2188.1,1292.7,1253.3,1016.8,-2.0,-12.0,3.0,5594.0,-6892.0,11252.0,-7940.0,-55.0,-17.0,55.0,-5.0,-7.0,14.0,8494.0,-13982.0,669.0,-600.0,-29.0,-5.0,2.0,1.0
2022-05-23 14:42:46.114768-07:00,1423.1,926.2,1393.9,1246.2,1104.3,987.6,1957.8,1345.8,3468.6,3463.7,1262.2,992.7,1867.4,3468.6,1596.4,1558.1,3473.4,3474.6,1640.7,2098.7,2691.9,3485.6,2228.1,3481.9,3474.6,3480.7,706.0,991.0,2188.1,1279.2,1245.3,1011.6,2.0,18.0,-14.0,5595.0,-6874.0,11271.0,-7927.0,6.0,72.0,48.0,-3.0,0.0,10.0,8491.0,-13983.0,670.0,-599.0,-9.0,3.0,7.0,1.0
2022-05-23 14:42:46.145005-07:00,1423.1,926.2,1393.9,1233.7,1104.3,969.6,1956.8,1344.9,3468.6,3463.7,1262.2,992.7,1867.4,3462.5,1590.8,1549.7,3468.6,3473.4,1636.9,2098.7,2717.2,3485.6,2228.1,3481.9,3475.9,3461.3,695.4,991.0,2170.7,1279.2,1245.3,1011.6,4.0,2.0,-11.0,5575.0,-6858.0,11293.0,-7923.0,-16.0,54.0,4.0,-14.0,1.0,0.0,8474.0,-13993.0,675.0,-595.0,-40.0,7.0,13.0,1.0
2022-05-23 14:42:46.204478-07:00,1413.1,927.9,1379.4,1233.7,1099.0,969.6,1956.8,1344.9,3473.4,3463.7,1258.7,992.7,1862.5,3462.5,1590.8,1549.7,3468.6,3473.4,1636.9,2096.7,2717.2,3492.9,2217.8,3481.9,3475.9,3461.3,695.4,986.7,2170.7,1273.0,1236.4,1014.2,-13.0,4.0,-10.0,5557.0,-6831.0,11302.0,-7948.0,73.0,100.0,23.0,-6.0,-2.0,18.0,8480.0,-13990.0,678.0,-592.0,36.0,1.0,10.0,1.0
2022-05-23 14:42:46.294296-07:00,1413.1,927.9,1379.4,1233.7,1099.0,971.3,1961.8,1350.3,3473.4,3463.7,1258.7,996.2,1862.5,3478.3,1593.6,1541.3,3462.5,3469.8,1635.0,2096.7,2706.2,3492.9,2217.8,3481.9,3467.4,3471.0,703.6,986.7,2154.4,1273.0,1236.4,1014.2,8.0,21.0,-17.0,5549.0,-6818.0,11307.0,-7957.0,-45.0,-36.0,-40.0,-5.0,2.0,0.0,8477.0,-13992.0,680.0,-590.0,-32.0,-1.0,-9.0,1.0
2022-05-23 14:42:46.296401-07:00,1408.5,922.0,1367.6,1218.6,1098.2,971.3,1961.8,1350.3,3467.4,3473.4,1248.8,990.2,1854.7,3478.3,1593.6,1541.3,3462.5,3469.8,1635.0,2091.6,2702.9,3497.8,2211.6,3497.8,3467.4,3471.0,703.6,987.6,2141.2,1267.6,1221.3,1016.8,-9.0,-3.0,-2.0,5538.0,-6834.0,11305.0,-7955.0,41.0,23.0,-5.0,-12.0,-6.0,9.0,8478.0,-13992.0,673.0,-591.0,35.0,-10.0,-15.0,1.0
2022-05-23 14:42:46.385239-07:00,1408.5,922.0,1367.6,1218.6,1096.4,973.1,1934.1,1341.3,3467.4,3473.4,1248.8,990.2,1851.8,3477.1,1560.9,1537.6,3460.1,3472.2,1635.0,2094.7,2702.9,3497.8,2211.6,3497.8,3478.3,3488.0,703.6,972.2,2141.2,1267.6,1221.3,1016.8,-8.0,10.0,-3.0,5538.0,-6824.0,11307.0,-7959.0,-40.0,-15.0,9.0,-9.0,-4.0,6.0,8481.0,-13990.0,672.0,-588.0,-29.0,0.0,4.0,1.0
2022-05-23 14:42:46.414987-07:00,1410.3,914.4,1367.6,1224.8,1096.4,973.1,1934.1,1341.3,3467.4,3471.0,1248.0,979.9,1851.8,3477.1,1560.9,1537.6,3460.1,3472.2,1635.0,2094.7,2704.0,3490.5,2202.4,3495.3,3478.3,3488.0,703.6,972.2,2128.0,1259.6,1228.4,1015.1,16.0,-13.0,0.0,5529.0,-6830.0,11321.0,-7940.0,-60.0,43.0,40.0,-2.0,-6.0,-2.0,8467.0,-13998.0,673.0,-587.0,-24.0,-7.0,2.0,1.0
2022-05-23 14:42:46.444744-07:00,1410.3,914.4,1367.6,1224.8,1090.3,973.1,1945.9,1348.5,3467.4,3471.0,1248.0,979.9,1833.3,3467.4,1548.7,1520.8,3466.1,3483.2,1636.0,2103.7,2704.0,3490.5,2202.4,3495.3,3480.7,3479.5,702.8,973.9,2128.0,1259.6,1228.4,1015.1,-11.0,21.0,-14.0,5517.0,-6791.0,11339.0,-7956.0,68.0,82.0,42.0,-3.0,4.0,14.0,8484.0,-13988.0,675.0,-583.0,35.0,3.0,17.0,1.0
2022-05-23 14:42:46.505229-07:00,1400.3,921.1,1368.5,1211.5,1090.3,973.1,1945.9,1348.5,3464.9,3466.1,1246.2,988.5,1833.3,3467.4,1548.7,1520.8,3466.1,3483.2,1636.0,2103.7,2707.3,3484.4,2200.4,3486.8,3480.7,3479.5,702.8,973.9,2114.9,1258.7,1208.0,1005.6,2.0,7.0,-16.0,5505.0,-6784.0,11348.0,-7957.0,-55.0,8.0,-32.0,-12.0,-3.0,0.0,8469.0,-13997.0,677.0,-581.0,-51.0,5.0,-11.0,1.0
2022-05-23 14:42:46.564734-07:00,1400.3,921.1,1368.5,1211.5,1083.4,968.8,1942.0,1335.0,3464.9,3466.1,1246.2,988.5,1840.1,3472.2,1539.4,1519.0,3469.8,3474.6,1629.4,2097.7,2707.3,3484.4,2200.4,3486.8,3469.8,3474.6,694.6,967.9,2114.9,1258.7,1208.0,1005.6,-10.0,1.0,-14.0,5494.0,-6796.0,11346.0,-7958.0,21.0,0.0,-28.0,-13.0,-4.0,8.0,8469.0,-13997.0,671.0,-583.0,14.0,-9.0,-20.0,1.0
2022-05-23 14:42:46.654618-07:00,1407.6,922.0,1354.9,1204.4,1083.4,968.8,1942.0,1338.6,3461.3,3462.5,1243.5,985.9,1840.1,3472.2,1539.4,1507.8,3488.0,3474.6,1629.4,2097.7,2705.1,3481.9,2194.2,3486.8,3467.4,3474.6,694.6,967.9,2107.8,1251.5,1211.5,1010.8,0.0,1.0,-3.0,5497.0,-6803.0,11341.0,-7958.0,2.0,-22.0,-9.0,-13.0,-5.0,5.0,8471.0,-13996.0,666.0,-581.0,6.0,-14.0,-9.0,1.0
2022-05-23 14:42:46.657349-07:00,1405.8,922.0,1354.9,1204.4,1085.1,957.7,1929.2,1338.6,3468.6,3462.5,1243.5,985.9,1830.4,3467.4,1529.2,1507.8,3488.0,3471.0,1626.5,2101.7,2705.1,3481.9,2194.2,3486.8,3467.4,3471.0,699.5,960.2,2107.8,1251.5,1211.5,1000.5,0.0,2.0,-7.0,5497.0,-6804.0,11341.0,-7957.0,-2.0,-10.0,-1.0,-2.0,-4.0,13.0,8473.0,-13995.0,664.0,-577.0,-3.0,-3.0,-2.0,1.0
2022-05-23 14:42:46.714684-07:00,1405.8,902.5,1344.0,1199.1,1085.1,957.7,1929.2,1340.4,3468.6,3468.6,1243.5,983.3,1830.4,3467.4,1529.2,1501.4,3474.6,3471.0,1626.5,2101.7,2702.9,3494.1,2192.2,3486.8,3479.5,3471.0,699.5,960.2,2103.7,1241.7,1202.7,1000.5,9.0,-4.0,0.0,5496.0,-6806.0,11345.0,-7951.0,-14.0,6.0,14.0,-2.0,-3.0,4.0,8473.0,-13995.0,664.0,-577.0,9.0,-4.0,6.0,1.0
2022-05-23 14:42:46.744628-07:00,1392.1,902.5,1344.0,1199.1,1085.1,959.4,1924.3,1340.4,3468.6,3468.6,1243.5,983.3,1824.6,3473.4,1522.7,1501.4,3474.6,3471.0,1637.9,2097.7,2702.9,3494.1,2192.2,3492.9,3479.5,3473.4,701.9,953.4,2103.7,1241.7,1202.7,1005.6,5.0,-9.0,-4.0,5491.0,-6792.0,11354.0,-7951.0,8.0,58.0,63.0,-6.0,-2.0,2.0,8483.0,-13989.0,665.0,-574.0,38.0,-14.0,13.0,1.0
2022-05-23 14:42:46.804736-07:00,1392.1,919.4,1346.7,1208.0,1085.1,959.4,1924.3,1349.4,3468.6,3467.4,1238.2,979.9,1824.6,3473.4,1522.7,1494.0,3472.2,3471.0,1637.9,2097.7,2696.3,3488.0,2185.0,3492.9,3478.3,3473.4,701.9,953.4,2104.8,1249.7,1201.8,1005.6,-3.0,33.0,-21.0,5503.0,-6760.0,11363.0,-7958.0,25.0,-38.0,29.0,-9.0,5.0,9.0,8507.0,-13975.0,669.0,-564.0,31.0,-13.0,20.0,1.0
2022-05-23 14:42:46.864827-07:00,1404.0,916.9,1346.7,1208.0,1080.8,950.9,1922.3,1349.4,3464.9,3468.6,1238.2,979.9,1834.3,3473.4,1520.8,1494.0,3472.2,3467.4,1633.1,2094.7,2696.3,3488.0,2185.0,3485.6,3478.3,3478.3,691.3,952.6,2104.8,1249.7,1195.6,1003.9,-7.0,-10.0,8.0,5506.0,-6773.0,11363.0,-7945.0,-8.0,28.0,-16.0,-16.0,-7.0,8.0,8502.0,-13978.0,669.0,-554.0,-6.0,-17.0,1.0,1.0
2022-05-23 14:42:46.894700-07:00,1404.0,916.9,1338.6,1192.9,1080.8,950.9,1927.2,1343.1,3464.9,3468.6,1243.5,985.0,1834.3,3473.4,1509.7,1500.4,3475.9,3469.8,1633.1,2094.7,2694.1,3491.7,2185.0,3485.6,3475.9,3471.0,691.3,952.6,2087.6,1246.2,1195.6,1003.9,-14.0,3.0,-3.0,5505.0,-6758.0,11366.0,-7955.0,-1.0,16.0,45.0,-13.0,-1.0,11.0,8512.0,-13973.0,673.0,-546.0,-1.0,-8.0,21.0,1.0
2022-05-23 14:42:46.984573-07:00,1400.3,915.2,1338.6,1192.9,1064.3,952.6,1927.2,1343.1,3456.4,3473.4,1243.5,985.0,1819.7,3474.6,1509.7,1500.4,3475.9,3469.8,1614.3,2091.6,2694.1,3491.7,2173.8,3490.5,3475.9,3471.0,698.7,954.3,2087.6,1246.2,1195.6,995.3,14.0,5.0,0.0,5504.0,-6754.0,11379.0,-7940.0,-48.0,12.0,0.0,0.0,-3.0,3.0,8497.0,-13981.0,678.0,-542.0,-42.0,6.0,7.0,1.0
2022-05-23 14:42:47.014817-07:00,1400.3,915.2,1341.3,1196.5,1064.3,952.6,1944.0,1338.6,3456.4,3473.4,1233.7,980.7,1819.7,3474.6,1506.0,1489.3,3467.4,3469.8,1614.3,2091.6,2705.1,3486.8,2173.8,3490.5,3464.9,3477.1,698.7,954.3,2103.7,1239.1,1195.6,995.3,-1.0,4.0,-11.0,5495.0,-6750.0,11383.0,-7944.0,5.0,21.0,2.0,-5.0,-1.0,6.0,8495.0,-13982.0,679.0,-543.0,-7.0,12.0,5.0,1.0
2022-05-23 14:42:47.044743-07:00,1407.6,915.2,1341.3,1196.5,1072.1,960.2,1944.0,1338.6,3457.6,3463.7,1233.7,980.7,1830.4,3467.4,1506.0,1489.3,3467.4,3469.8,1631.3,2104.8,2705.1,3486.8,2171.8,3484.4,3464.9,3477.1,701.9,946.6,2103.7,1239.1,1192.0,996.2,-7.0,0.0,-6.0,5487.0,-6751.0,11391.0,-7937.0,-34.0,-12.0,1.0,-10.0,-5.0,9.0,8482.0,-13990.0,682.0,-541.0,-41.0,-8.0,17.0,1.0
2022-05-23 14:42:47.104645-07:00,1407.6,915.2,1336.8,1196.5,1072.1,962.0,1913.4,1333.2,3457.6,3463.7,1246.2,973.1,1830.4,3463.7,1499.5,1483.8,3475.9,3475.9,1627.5,2104.8,2704.0,3486.8,2171.8,3484.4,3478.3,3474.6,688.9,946.6,2079.5,1247.1,1192.0,996.2,8.0,0.0,6.0,5485.0,-6755.0,11394.0,-7931.0,78.0,23.0,-3.0,-2.0,-10.0,6.0,8479.0,-13992.0,690.0,-536.0,34.0,-5.0,22.0,1.0
2022-05-23 14:42:47.164495-07:00,1381.2,901.7,1336.8,1196.5,1072.9,962.0,1913.4,1333.2,3461.3,3471.0,1231.0,973.1,1818.7,3463.7,1499.5,1483.8,3475.9,3475.9,1627.5,2094.7,2704.0,3500.2,2169.7,3486.8,3478.3,3474.6,688.9,950.9,2079.5,1223.9,1191.2,991.9,5.0,18.0,-14.0,5491.0,-6748.0,11371.0,-7965.0,42.0,-5.0,-56.0,-7.0,6.0,1.0,8494.0,-13983.0,698.0,-531.0,15.0,-2.0,16.0,1.0
2022-05-23 14:42:47.194841-07:00,1381.2,901.7,1336.8,1188.5,1072.9,954.3,1929.2,1323.2,3461.3,3471.0,1231.0,980.7,1818.7,3462.5,1503.2,1477.3,3472.2,3471.0,1623.7,2094.7,2699.6,3500.2,2169.7,3486.8,3462.5,3466.1,697.0,950.9,2076.5,1223.9,1191.2,991.9,-8.0,-2.0,-12.0,5486.0,-6757.0,11362.0,-7973.0,-9.0,-32.0,1.0,-9.0,-4.0,12.0,8494.0,-13983.0,699.0,-531.0,-8.0,-3.0,9.0,1.0
2022-05-23 14:42:47.255023-07:00,1407.6,917.7,1331.4,1188.5,1065.1,954.3,1929.2,1323.2,3472.2,3464.9,1234.6,980.7,1812.9,3462.5,1503.2,1477.3,3472.2,3471.0,1623.7,2085.6,2699.6,3490.5,2151.4,3483.2,3462.5,3466.1,697.0,950.9,2076.5,1227.5,1179.7,982.5,-6.0,10.0,-2.0,5493.0,-6762.0,11359.0,-7969.0,20.0,13.0,-11.0,-15.0,0.0,7.0,8494.0,-13983.0,701.0,-529.0,1.0,-5.0,8.0,1.0
2022-05-23 14:42:47.314722-07:00,1407.6,917.7,1331.4,1181.5,1065.1,949.2,1930.2,1337.7,3472.2,3464.9,1234.6,973.1,1812.9,3473.4,1495.8,1481.0,3474.6,3475.9,1624.7,2085.6,2706.2,3490.5,2151.4,3483.2,3471.0,3471.0,692.1,950.9,2081.6,1227.5,1179.7,982.5,-9.0,2.0,-6.0,5486.0,-6767.0,11356.0,-7974.0,-26.0,-1.0,-24.0,-12.0,-1.0,7.0,8489.0,-13986.0,701.0,-529.0,-37.0,1.0,6.0,1.0
2022-05-23 14:42:47.344635-07:00,1393.9,894.9,1325.9,1181.5,1067.7,949.2,1930.2,1337.7,3471.0,3468.6,1231.0,973.1,1794.5,3473.4,1495.8,1481.0,3474.6,3475.9,1624.7,2087.6,2706.2,3492.9,2162.6,3485.6,3471.0,3471.0,692.1,941.5,2081.6,1224.8,1185.0,1004.8,-3.0,0.0,-5.0,5482.0,-6773.0,11362.0,-7963.0,-11.0,-14.0,21.0,-8.0,-4.0,7.0,8478.0,-13992.0,703.0,-528.0,-10.0,0.0,12.0,1.0
2022-05-23 14:42:47.404647-07:00,1393.9,894.9,1325.9,1196.5,1059.1,956.8,1905.6,1324.1,3471.0,3468.6,1231.0,973.1,1812.9,3467.4,1489.3,1476.4,3480.7,3462.5,1610.5,2099.7,2706.2,3492.9,2162.6,3485.6,3475.9,3474.6,694.6,941.5,2070.5,1224.8,1185.0,1004.8,2.0,12.0,-6.0,5480.0,-6776.0,11367.0,-7955.0,-31.0,-5.0,-26.0,-6.0,0.0,8.0,8471.0,-13996.0,705.0,-527.0,-25.0,-1.0,1.0,1.0
2022-05-23 14:42:47.494843-07:00,1383.9,895.7,1320.5,1185.9,1059.1,956.8,1905.6,1324.1,3467.4,3471.0,1232.8,973.9,1812.9,3467.4,1489.3,1476.4,3480.7,3462.5,1610.5,2099.7,2701.8,3489.2,2155.5,3490.5,3475.9,3474.6,694.6,941.5,2063.5,1230.2,1180.6,993.6,-3.0,4.0,-17.0,5477.0,-6805.0,11365.0,-7936.0,-93.0,-86.0,-33.0,-11.0,-2.0,2.0,8459.0,-14004.0,705.0,-526.0,-58.0,-8.0,-5.0,1.0
2022-05-23 14:42:47.497765-07:00,1383.9,895.7,1320.5,1185.9,1068.6,956.8,1928.2,1329.6,3467.4,3471.0,1232.8,973.9,1802.3,3468.6,1481.0,1477.3,3471.0,3474.6,1630.3,2089.6,2701.8,3489.2,2155.5,3490.5,3464.9,3474.6,697.0,941.5,2063.5,1230.2,1180.6,993.6,0.0,6.0,-3.0,5485.0,-6835.0,11365.0,-7903.0,-14.0,-79.0,-6.0,-8.0,-3.0,5.0,8446.0,-14012.0,702.0,-521.0,6.0,-20.0,-6.0,1.0
2022-05-23 14:42:47.554705-07:00,1396.7,899.1,1332.3,1191.2,1068.6,956.8,1928.2,1329.6,3464.9,3469.8,1236.4,972.2,1802.3,3468.6,1481.0,1477.3,3471.0,3474.6,1630.3,2089.6,2693.0,3486.8,2159.5,3489.2,3464.9,3474.6,697.0,941.5,2047.4,1223.9,1178.8,995.3,0.0,0.0,1.0,5495.0,-6856.0,11360.0,-7886.0,-27.0,-32.0,-25.0,-11.0,-3.0,11.0,8442.0,-14015.0,697.0,-516.0,-17.0,-12.0,-6.0,1.0
2022-05-23 14:42:47.644393-07:00,1396.7,899.1,1332.3,1191.2,1065.1,960.2,1911.5,1345.8,3464.9,3469.8,1236.4,972.2,1808.1,3466.1,1486.6,1468.1,3467.4,3474.6,1624.7,2099.7,2693.0,3486.8,2159.5,3489.2,3474.6,3472.2,692.9,931.3,2047.4,1223.9,1178.8,995.3,-7.0,-3.0,1.0,5493.0,-6863.0,11359.0,-7883.0,3.0,9.0,15.0,-8.0,-6.0,12.0,8437.0,-14018.0,696.0,-513.0,-3.0,-2.0,8.0,1.0
2022-05-23 14:42:47.646548-07:00,1383.0,910.1,1316.9,1176.2,1065.1,960.2,1911.5,1328.7,3472.2,3469.8,1240.8,973.9,1808.1,3466.1,1486.6,1462.6,3469.8,3474.6,1624.7,2099.7,2691.9,3489.2,2143.3,3489.2,3475.9,3472.2,692.9,931.3,2053.4,1209.7,1180.6,997.0,2.0,13.0,-8.0,5496.0,-6859.0,11361.0,-7881.0,-23.0,-11.0,1.0,-8.0,0.0,3.0,8434.0,-14020.0,699.0,-511.0,-28.0,3.0,12.0,1.0
2022-05-23 14:42:47.734561-07:00,1389.4,910.1,1316.9,1176.2,1053.9,954.3,1906.6,1328.7,3468.6,3469.8,1240.8,973.9,1811.0,3463.7,1480.1,1462.6,3469.8,3471.0,1622.8,2104.8,2691.9,3489.2,2143.3,3489.2,3475.9,3466.1,697.0,934.7,2053.4,1209.7,1180.6,992.7,2.0,3.0,-3.0,5490.0,-6865.0,11368.0,-7871.0,9.0,13.0,-15.0,-4.0,-5.0,12.0,8426.0,-14025.0,700.0,-511.0,-4.0,-2.0,-3.0,1.0
2022-05-23 14:42:47.764754-07:00,1389.4,892.4,1327.8,1178.8,1053.9,954.3,1906.6,1328.7,3468.6,3457.6,1233.7,973.9,1811.0,3463.7,1480.1,1466.3,3483.2,3471.0,1622.8,2104.8,2701.8,3496.6,2135.1,3489.2,3472.2,3466.1,697.0,934.7,2061.5,1219.5,1177.9,992.7,-10.0,-2.0,-13.0,5485.0,-6870.0,11363.0,-7877.0,-22.0,-16.0,-15.0,-15.0,-7.0,10.0,8425.0,-14025.0,697.0,-512.0,-22.0,-5.0,-13.0,1.0
2022-05-23 14:42:47.794728-07:00,1384.8,892.4,1327.8,1178.8,1056.5,945.8,1916.4,1328.7,3478.3,3457.6,1233.7,973.9,1800.3,3462.5,1481.9,1466.3,3483.2,3472.2,1623.7,2092.6,2701.8,3496.6,2135.1,3490.5,3472.2,3467.4,696.2,933.0,2061.5,1219.5,1177.9,997.9,3.0,5.0,-4.0,5489.0,-6876.0,11362.0,-7870.0,3.0,-14.0,16.0,-7.0,1.0,5.0,8422.0,-14027.0,697.0,-512.0,10.0,-9.0,4.0,1.0
2022-05-23 14:42:47.854568-07:00,1384.8,905.9,1322.3,1171.8,1056.5,945.8,1916.4,1335.9,3478.3,3463.7,1223.0,970.5,1800.3,3462.5,1481.9,1463.5,3475.9,3472.2,1623.7,2092.6,2696.3,3485.6,2128.0,3490.5,3473.4,3467.4,696.2,933.0,2045.4,1223.9,1172.6,997.9,-2.0,7.0,-6.0,5491.0,-6872.0,11363.0,-7870.0,6.0,1.0,-6.0,-3.0,0.0,12.0,8424.0,-14026.0,696.0,-510.0,6.0,-6.0,0.0,1.0
2022-05-23 14:42:47.914773-07:00,1376.6,905.9,1322.3,1171.8,1065.1,951.7,1917.4,1335.9,3461.3,3463.7,1223.0,970.5,1794.5,3469.8,1483.8,1463.5,3475.9,3471.0,1630.3,2086.6,2696.3,3485.6,2128.0,3488.0,3473.4,3475.9,690.5,929.6,2045.4,1223.9,1172.6,1000.5,5.0,1.0,1.0,5492.0,-6877.0,11365.0,-7862.0,-12.0,-7.0,8.0,-8.0,-5.0,9.0,8417.0,-14030.0,696.0,-509.0,-14.0,-2.0,4.0,1.0
2022-05-23 14:42:47.944730-07:00,1376.6,894.1,1312.4,1172.6,1065.1,951.7,1900.7,1332.3,3461.3,3468.6,1231.9,966.2,1794.5,3469.8,1481.0,1467.2,3471.0,3472.2,1630.3,2086.6,2697.4,3486.8,2131.1,3488.0,3472.2,3467.4,690.5,929.6,2051.4,1209.7,1172.6,1000.5,-3.0,5.0,-7.0,5492.0,-6876.0,11367.0,-7861.0,9.0,2.0,8.0,-8.0,-5.0,13.0,8420.0,-14028.0,696.0,-509.0,13.0,-4.0,4.0,1.0
2022-05-23 14:42:48.004612-07:00,1374.8,892.4,1312.4,1172.6,1052.2,950.0,1900.7,1332.3,3463.7,3479.5,1231.9,966.2,1797.4,3473.4,1481.0,1467.2,3471.0,3472.2,1605.8,2107.8,2697.4,3486.8,2129.0,3485.6,3472.2,3467.4,689.7,934.7,2051.4,1209.7,1168.2,985.0,-8.0,15.0,-15.0,5496.0,-6880.0,11364.0,-7858.0,-45.0,-55.0,-18.0,-13.0,-2.0,8.0,8419.0,-14029.0,696.0,-509.0,-31.0,-7.0,-3.0,1.0
2022-05-23 14:42:48.064865-07:00,1374.8,892.4,1313.3,1189.4,1052.2,950.0,1902.6,1322.3,3463.7,3479.5,1239.1,967.9,1797.4,3473.4,1483.8,1458.0,3477.1,3477.1,1605.8,2107.8,2697.4,3486.8,2129.0,3485.6,3469.8,3479.5,689.7,934.7,2048.4,1209.7,1168.2,985.0,8.0,0.0,5.0,5499.0,-6901.0,11364.0,-7838.0,11.0,-13.0,-1.0,-11.0,-1.0,7.0,8410.0,-14035.0,696.0,-509.0,8.0,-8.0,-6.0,1.0
2022-05-23 14:42:48.094708-07:00,1379.4,899.1,1313.3,1189.4,1054.8,949.2,1902.6,1322.3,3467.4,3474.6,1239.1,967.9,1800.3,3467.4,1483.8,1458.0,3477.1,3477.1,1629.4,2091.6,2697.4,3486.8,2133.1,3484.4,3469.8,3479.5,694.6,936.4,2048.4,1209.7,1173.5,997.9,-1.0,5.0,-5.0,5504.0,-6896.0,11361.0,-7843.0,-6.0,-13.0,-2.0,-8.0,-3.0,10.0,8417.0,-14030.0,696.0,-509.0,-2.0,5.0,4.0,1.0
2022-05-23 14:42:48.154711-07:00,1379.4,899.1,1311.5,1174.4,1054.8,949.2,1888.9,1337.7,3467.4,3474.6,1246.2,972.2,1800.3,3467.4,1482.9,1457.1,3472.2,3471.0,1629.4,2091.6,2700.7,3501.4,2133.1,3484.4,3466.1,3467.4,694.6,936.4,2042.4,1216.8,1173.5,997.9,-2.0,0.0,-7.0,5502.0,-6896.0,11363.0,-7842.0,27.0,0.0,-3.0,-8.0,-3.0,11.0,8415.0,-14031.0,696.0,-509.0,9.0,3.0,7.0,1.0
2022-05-23 14:42:48.214872-07:00,1366.6,895.7,1311.5,1174.4,1053.0,948.3,1888.9,1337.7,3464.9,3471.0,1239.9,972.2,1792.6,3472.2,1482.9,1457.1,3472.2,3471.0,1620.9,2092.6,2700.7,3491.7,2132.1,3486.8,3466.1,3467.4,689.7,925.4,2042.4,1219.5,1162.1,996.2,-2.0,1.0,-6.0,5506.0,-6893.0,11356.0,-7852.0,10.0,-5.0,-11.0,-8.0,-1.0,10.0,8419.0,-14029.0,697.0,-509.0,2.0,-2.0,4.0,1.0
2022-05-23 14:42:48.244703-07:00,1366.6,895.7,1311.5,1172.6,1053.0,947.5,1896.7,1320.5,3464.9,3471.0,1239.9,969.6,1792.6,3474.6,1473.6,1461.7,3472.2,3477.1,1619.9,2092.6,2690.8,3491.7,2132.1,3486.8,3480.7,3467.4,692.9,925.4,2024.4,1219.5,1162.1,996.2,-1.0,3.0,1.0,5510.0,-6890.0,11351.0,-7859.0,78.0,15.0,3.0,-11.0,-8.0,13.0,8425.0,-14025.0,696.0,-508.0,40.0,-10.0,9.0,1.0
2022-05-23 14:42:48.304656-07:00,1381.2,903.4,1310.6,1172.6,1054.8,947.5,1896.7,1320.5,3467.4,3467.4,1236.4,969.6,1795.5,3474.6,1473.6,1461.7,3472.2,3477.1,1619.9,2095.7,2690.8,3501.4,2108.8,3485.6,3480.7,3467.4,692.9,933.0,2024.4,1208.9,1156.8,987.6,-1.0,6.0,-10.0,5516.0,-6878.0,11341.0,-7880.0,-5.0,8.0,2.0,-12.0,-3.0,11.0,8435.0,-14019.0,695.0,-507.0,-7.0,2.0,4.0,1.0
2022-05-23 14:42:48.394911-07:00,1381.2,903.4,1310.6,1167.4,1054.8,946.6,1896.7,1322.3,3467.4,3467.4,1236.4,969.6,1795.5,3468.6,1470.0,1458.9,3466.1,3471.0,1627.5,2095.7,2699.6,3501.4,2108.8,3485.6,3479.5,3467.4,685.6,933.0,2043.4,1208.9,1156.8,987.6,-4.0,1.0,-1.0,5509.0,-6871.0,11350.0,-7877.0,-8.0,30.0,35.0,-10.0,-5.0,16.0,8430.0,-14022.0,696.0,-507.0,-10.0,8.0,10.0,1.0
2022-05-23 14:42:48.397115-07:00,1377.5,894.9,1320.5,1167.4,1048.7,946.6,1896.7,1322.3,3473.4,3473.4,1232.8,969.6,1790.7,3468.6,1470.0,1458.9,3466.1,3471.0,1627.5,2092.6,2699.6,3497.8,2104.8,3507.5,3479.5,3467.4,685.6,922.8,2043.4,1200.9,1163.8,991.9,3.0,20.0,-4.0,5511.0,-6864.0,11355.0,-7875.0,-14.0,-14.0,-26.0,-10.0,0.0,7.0,8428.0,-14024.0,700.0,-507.0,-20.0,9.0,3.0,1.0
2022-05-23 14:42:48.454504-07:00,1377.5,894.9,1320.5,1168.2,1048.7,961.1,1886.9,1341.3,3473.4,3473.4,1232.8,967.9,1790.7,3467.4,1499.5,1460.8,3478.3,3475.9,1621.8,2092.6,2695.2,3497.8,2104.8,3507.5,3478.3,3478.3,694.6,922.8,2033.4,1200.9,1163.8,991.9,-32.0,-24.0,47.0,5504.0,-6875.0,11343.0,-7888.0,-23.0,75.0,-43.0,-9.0,8.0,0.0,8426.0,-14024.0,697.0,-515.0,-11.0,16.0,-25.0,1.0
2022-05-23 14:42:48.544279-07:00,1371.2,905.9,1519.9,1387.5,1050.4,961.1,1886.9,1341.3,3468.6,3468.6,1447.9,1112.1,1791.6,3467.4,1499.5,1460.8,3478.3,3475.9,1621.8,2087.6,2689.7,3492.9,2117.9,3499.0,3478.3,3478.3,694.6,928.8,2083.6,1522.7,1360.3,996.2,-17.0,26.0,-9.0,5485.0,-6835.0,11348.0,-7928.0,-4.0,62.0,69.0,-21.0,-8.0,-7.0,8482.0,-13990.0,704.0,-514.0,220.0,4.0,34.0,1.0
2022-05-23 14:42:48.548163-07:00,1371.2,905.9,1519.9,1387.5,1079.9,1086.8,1911.5,1340.4,3468.6,3468.6,1447.9,1112.1,1882.0,3471.0,2061.5,1843.0,3467.4,3467.4,1630.3,2086.6,2689.7,3492.9,2117.9,3499.0,3477.1,3475.9,726.6,948.3,2083.6,1522.7,1360.3,996.2,2.0,-90.0,38.0,5486.0,-6871.0,11364.0,-7873.0,106.0,-123.0,-66.0,-4.0,-22.0,32.0,8546.0,-13951.0,707.0,-505.0,168.0,-25.0,27.0,1.0
2022-05-23 14:42:48.604696-07:00,1369.4,888.2,1870.3,1702.4,1079.9,1086.8,1911.5,1340.4,3452.8,3469.8,1633.1,1256.0,1882.0,3471.0,2061.5,1843.0,3467.4,3467.4,1630.3,2086.6,2693.0,3488.0,2119.9,3497.8,3477.1,3475.9,726.6,948.3,2158.5,1593.6,1506.0,985.0,84.0,-41.0,-6.0,5572.0,-6915.0,11297.0,-7870.0,31.0,-489.0,20.0,-15.0,3.0,-22.0,8657.0,-13883.0,716.0,-485.0,303.0,-74.0,42.0,1.0
2022-05-23 14:42:48.634965-07:00,1369.4,888.2,1870.3,1702.4,1130.5,1026.3,1904.6,1354.0,3452.8,3469.8,1633.1,1256.0,2043.4,3472.2,2060.5,1980.6,3483.2,3467.4,1641.6,2085.6,2693.0,3488.0,2119.9,3497.8,3488.0,3467.4,737.3,993.6,2158.5,1593.6,1506.0,985.0,46.0,270.0,-28.0,5736.0,-6803.0,11148.0,-8061.0,1631.0,443.0,-301.0,9.0,34.0,113.0,8942.0,-13706.0,660.0,-416.0,973.0,-247.0,-42.0,1.0
2022-05-23 14:42:48.694681-07:00,1370.3,915.2,1719.6,1621.8,1130.5,1026.3,1904.6,1354.0,3467.4,3473.4,1604.0,1253.3,2043.4,3472.2,2060.5,1980.6,3483.2,3467.4,1641.6,2085.6,2701.8,3496.6,2116.9,3484.4,3488.0,3467.4,737.3,993.6,2274.5,1497.7,1403.0,992.7,-140.0,-107.0,-78.0,5641.0,-6886.0,11008.0,-8248.0,-871.0,-377.0,-399.0,-45.0,-37.0,45.0,8837.0,-13778.0,596.0,-393.0,-911.0,-33.0,-72.0,1.0
2022-05-23 14:42:48.754711-07:00,1416.7,915.2,1719.6,1621.8,1156.8,994.5,1850.8,1352.1,3474.6,3473.4,1604.0,1253.3,2091.6,3479.5,1945.0,1893.8,3480.7,3477.1,1681.4,2086.6,2701.8,3496.6,2116.9,3492.9,3478.3,3478.3,724.9,1003.9,2274.5,1497.7,1403.0,1019.4,-18.0,17.0,0.0,5588.0,-6981.0,11081.0,-8104.0,35.0,136.0,253.0,-4.0,-27.0,32.0,8700.0,-13864.0,621.0,-390.0,-22.0,69.0,97.0,1.0
2022-05-23 14:42:48.785084-07:00,1416.7,947.5,1680.5,1582.4,1156.8,994.5,1850.8,1349.4,3474.6,3464.9,1586.1,1238.2,2091.6,3479.5,1945.0,1863.5,3474.6,3477.1,1681.4,2086.6,2686.4,3494.1,2042.4,3492.9,3474.6,3478.3,724.9,1003.9,2324.3,1463.5,1349.4,1019.4,-4.0,27.0,-63.0,5608.0,-6946.0,11111.0,-8080.0,-137.0,-167.0,-12.0,-8.0,15.0,-20.0,8667.0,-13881.0,681.0,-404.0,-168.0,99.0,74.0,1.0
2022-05-23 14:42:48.845395-07:00,1416.7,947.5,1680.5,1582.4,1139.2,998.7,1856.7,1349.4,3475.9,3464.9,1586.1,1238.2,2045.4,3464.9,1917.4,1863.5,3474.6,3471.0,1671.9,2081.6,2686.4,3494.1,2042.4,3489.2,3474.6,3469.8,734.8,984.2,2324.3,1463.5,1349.4,1011.6,-20.0,-8.0,-39.0,5640.0,-6964.0,11128.0,-8018.0,58.0,-148.0,147.0,-9.0,-19.0,10.0,8635.0,-13900.0,709.0,-406.0,64.0,21.0,30.0,1.0
2022-05-23 14:42:48.904644-07:00,1416.7,950.0,1648.3,1575.8,1139.2,998.7,1856.7,1345.8,3475.9,3472.2,1566.5,1218.6,2045.4,3464.9,1917.4,1843.0,3479.5,3471.0,1671.9,2081.6,2677.7,3499.0,2016.4,3489.2,3477.1,3469.8,734.8,984.2,2325.4,1452.5,1342.2,1011.6,-7.0,34.0,-16.0,5732.0,-6944.0,11101.0,-8008.0,167.0,-127.0,47.0,-22.0,-3.0,15.0,8678.0,-13873.0,711.0,-404.0,186.0,-37.0,-21.0,1.0
2022-05-23 14:42:48.964710-07:00,1434.1,950.0,1648.3,1575.8,1131.4,994.5,1859.6,1345.8,3467.4,3472.2,1566.5,1218.6,2023.4,3466.1,1901.6,1843.0,3479.5,3481.9,1668.2,2073.5,2677.7,3499.0,2016.4,3489.2,3477.1,3472.2,724.1,987.6,2325.4,1452.5,1342.2,1014.2,-8.0,20.0,-3.0,5810.0,-6967.0,11045.0,-8009.0,22.0,-251.0,-38.0,-10.0,0.0,22.0,8735.0,-13838.0,685.0,-396.0,47.0,-45.0,-51.0,1.0
2022-05-23 14:42:48.995187-07:00,1434.1,947.5,1630.3,1561.8,1131.4,994.5,1859.6,1335.0,3467.4,3471.0,1555.3,1213.3,2023.4,3466.1,1901.6,1829.4,3474.6,3481.9,1668.2,2073.5,2659.1,3495.3,1996.5,3489.2,3474.6,3472.2,724.1,987.6,2320.1,1439.6,1329.6,1014.2,-8.0,3.0,14.0,5862.0,-6980.0,11024.0,-7989.0,47.0,-11.0,107.0,-10.0,-13.0,32.0,8754.0,-13828.0,662.0,-387.0,70.0,-31.0,-8.0,1.0
2022-05-23 14:42:49.055328-07:00,1417.6,953.4,1630.3,1561.8,1132.2,992.7,1829.4,1335.0,3469.8,3478.3,1555.3,1213.3,1998.5,3467.4,1886.0,1829.4,3474.6,3466.1,1667.2,2078.5,2659.1,3495.3,1985.6,3496.6,3474.6,3478.3,728.2,979.9,2320.1,1439.6,1322.3,1013.3,9.0,9.0,5.0,5887.0,-6971.0,11023.0,-7979.0,-36.0,-34.0,-6.0,-5.0,-2.0,10.0,8774.0,-13816.0,660.0,-383.0,-41.0,13.0,4.0,1.0
2022-05-23 14:42:49.084958-07:00,1417.6,953.4,1651.1,1559.9,1132.2,992.7,1826.5,1329.6,3469.8,3478.3,1555.3,1226.6,1998.5,3467.4,1879.1,1830.4,3467.4,3464.9,1667.2,2078.5,2684.3,3488.0,1985.6,3496.6,3479.5,3473.4,728.2,979.9,2304.5,1422.2,1322.3,1013.3,-13.0,7.0,-15.0,5884.0,-6971.0,11036.0,-7964.0,-24.0,-15.0,29.0,-6.0,-9.0,21.0,8759.0,-13825.0,668.0,-384.0,-24.0,21.0,15.0,1.0
2022-05-23 14:42:49.145287-07:00,1411.3,942.4,1651.1,1559.9,1117.4,994.5,1826.5,1329.6,3460.1,3471.0,1555.3,1226.6,1992.5,3473.4,1879.1,1830.4,3467.4,3464.9,1671.9,2083.6,2684.3,3488.0,1964.7,3486.8,3479.5,3473.4,721.6,975.6,2304.5,1422.2,1313.3,1021.1,-7.0,16.0,-16.0,5890.0,-6981.0,11045.0,-7938.0,-41.0,-35.0,3.0,-13.0,-5.0,14.0,8745.0,-13833.0,676.0,-385.0,-53.0,-2.0,1.0,1.0
2022-05-23 14:42:49.204741-07:00,1411.3,942.4,1637.9,1547.8,1117.4,994.5,1826.5,1345.8,3460.1,3471.0,1552.5,1216.8,1992.5,3473.4,1882.0,1823.6,3478.3,3474.6,1671.9,2083.6,2686.4,3489.2,1964.7,3486.8,3471.0,3479.5,721.6,975.6,2282.8,1427.7,1313.3,1021.1,3.0,-1.0,-9.0,5897.0,-6997.0,11043.0,-7922.0,36.0,-43.0,0.0,-8.0,-6.0,6.0,8735.0,-13840.0,672.0,-381.0,0.0,-17.0,-15.0,1.0
2022-05-23 14:42:49.235096-07:00,1399.4,935.6,1637.9,1547.8,1118.2,994.5,1826.5,1345.8,3468.6,3466.1,1552.5,1216.8,1974.6,3466.1,1882.0,1823.6,3478.3,3474.6,1668.2,2066.5,2686.4,3489.2,1962.8,3477.1,3471.0,3479.5,721.6,966.2,2282.8,1427.7,1316.9,990.2,-5.0,11.0,-10.0,5920.0,-7009.0,11028.0,-7914.0,-11.0,-91.0,-13.0,-8.0,1.0,11.0,8748.0,-13832.0,659.0,-375.0,16.0,-29.0,-23.0,1.0
2022-05-23 14:42:49.295081-07:00,1399.4,935.6,1627.5,1545.0,1118.2,973.9,1818.7,1337.7,3468.6,3466.1,1540.3,1213.3,1974.6,3464.9,1869.3,1838.2,3467.4,3474.6,1664.4,2066.5,2682.1,3492.9,1962.8,3477.1,3471.0,3474.6,710.1,966.2,2266.2,1419.5,1316.9,990.2,8.0,-6.0,9.0,5938.0,-7023.0,11017.0,-7905.0,27.0,-5.0,13.0,-7.0,-5.0,11.0,8754.0,-13829.0,648.0,-368.0,22.0,-20.0,-10.0,1.0
2022-05-23 14:42:49.384910-07:00,1414.9,926.2,1613.4,1545.0,1115.6,973.9,1818.7,1337.7,3473.4,3469.8,1539.4,1213.3,1983.6,3464.9,1869.3,1838.2,3467.4,3474.6,1664.4,2069.5,2682.1,3496.6,1949.9,3494.1,3471.0,3474.6,710.1,964.5,2266.2,1423.1,1317.8,997.0,-14.0,19.0,-1.0,5940.0,-7014.0,11020.0,-7907.0,-18.0,-19.0,-21.0,-4.0,-11.0,28.0,8760.0,-13825.0,648.0,-367.0,-13.0,2.0,0.0,1.0
2022-05-23 14:42:49.386218-07:00,1414.9,926.2,1613.4,1552.5,1115.6,966.2,1824.6,1337.7,3473.4,3469.8,1539.4,1214.2,1983.6,3462.5,1862.5,1812.9,3475.9,3467.4,1659.6,2069.5,2689.7,3496.6,1949.9,3494.1,3472.2,3475.9,720.0,964.5,2274.5,1423.1,1317.8,997.0,16.0,-7.0,3.0,5937.0,-7022.0,11018.0,-7905.0,11.0,41.0,11.0,-7.0,0.0,1.0,8757.0,-13827.0,650.0,-368.0,-9.0,6.0,-4.0,1.0
2022-05-23 14:42:49.444664-07:00,1401.2,940.7,1611.5,1552.5,1099.0,966.2,1824.6,1337.7,3473.4,3475.9,1541.3,1214.2,1972.7,3462.5,1862.5,1812.9,3475.9,3467.4,1659.6,2076.5,2689.7,3497.8,1947.9,3488.0,3472.2,3475.9,720.0,964.5,2274.5,1419.5,1306.1,1001.3,-4.0,-2.0,-9.0,5931.0,-7016.0,11024.0,-7905.0,-14.0,-15.0,0.0,-9.0,-4.0,10.0,8755.0,-13828.0,651.0,-367.0,-24.0,-8.0,6.0,1.0
2022-05-23 14:42:49.504746-07:00,1401.2,940.7,1611.5,1539.4,1099.0,974.8,1826.5,1331.4,3473.4,3475.9,1541.3,1210.6,1972.7,3473.4,1879.1,1803.2,3472.2,3468.6,1659.6,2076.5,2684.3,3497.8,1947.9,3488.0,3474.6,3471.0,722.5,964.5,2255.9,1419.5,1306.1,1001.3,-5.0,18.0,-9.0,5934.0,-7022.0,11025.0,-7897.0,-27.0,-11.0,-3.0,-6.0,-2.0,17.0,8753.0,-13830.0,651.0,-367.0,-21.0,-9.0,-13.0,1.0
2022-05-23 14:42:49.534976-07:00,1404.9,922.8,1619.0,1539.4,1105.1,974.8,1826.5,1331.4,3467.4,3471.0,1529.2,1210.6,1970.7,3473.4,1879.1,1803.2,3472.2,3468.6,1659.6,2075.5,2684.3,3492.9,1944.0,3499.0,3474.6,3471.0,722.5,966.2,2255.9,1428.6,1307.9,1003.9,-2.0,-1.0,-6.0,5935.0,-7033.0,11017.0,-7898.0,31.0,-6.0,-24.0,-14.0,0.0,10.0,8757.0,-13828.0,643.0,-369.0,21.0,-13.0,-24.0,1.0
2022-05-23 14:42:49.595033-07:00,1404.9,922.8,1619.0,1538.5,1110.4,969.6,1808.1,1331.4,3467.4,3471.0,1529.2,1210.6,1950.9,3461.3,1854.7,1790.7,3467.4,3472.2,1644.5,2075.5,2686.4,3492.9,1944.0,3499.0,3472.2,3472.2,721.6,959.4,2238.4,1428.6,1307.9,1003.9,-6.0,1.0,-8.0,5938.0,-7033.0,11010.0,-7904.0,22.0,-22.0,-17.0,-8.0,-4.0,9.0,8763.0,-13824.0,637.0,-367.0,22.0,-8.0,-11.0,1.0
2022-05-23 14:42:49.654572-07:00,1410.3,923.7,1607.7,1530.1,1110.4,969.6,1808.1,1331.4,3469.8,3471.0,1532.0,1214.2,1950.9,3461.3,1854.7,1790.7,3467.4,3472.2,1644.5,2075.5,2679.9,3479.5,1938.0,3475.9,3472.2,3472.2,721.6,959.4,2242.5,1412.2,1303.4,1004.8,9.0,1.0,-1.0,5948.0,-7044.0,10994.0,-7910.0,16.0,-33.0,-18.0,-7.0,1.0,5.0,8769.0,-13820.0,634.0,-367.0,0.0,-9.0,-9.0,1.0
2022-05-23 14:42:49.685071-07:00,1410.3,923.7,1607.7,1530.1,1099.9,966.2,1807.1,1341.3,3469.8,3471.0,1532.0,1214.2,1960.8,3471.0,1849.8,1803.2,3478.3,3474.6,1656.8,2081.6,2679.9,3479.5,1938.0,3475.9,3486.8,3466.1,718.4,955.1,2242.5,1412.2,1303.4,1004.8,2.0,3.0,-2.0,5950.0,-7046.0,10993.0,-7908.0,5.0,-10.0,0.0,1.0,-5.0,14.0,8771.0,-13819.0,634.0,-367.0,5.0,-3.0,0.0,1.0
2022-05-23 14:42:49.774220-07:00,1404.9,928.8,1599.3,1533.8,1099.9,966.2,1807.1,1341.3,3463.7,3462.5,1520.8,1201.8,1960.8,3471.0,1849.8,1803.2,3478.3,3474.6,1656.8,2081.6,2685.3,3484.4,1934.1,3477.1,3486.8,3466.1,718.4,955.1,2232.2,1420.4,1299.0,995.3,-6.0,7.0,-5.0,5951.0,-7050.0,10994.0,-7903.0,-21.0,1.0,7.0,-5.0,-5.0,15.0,8768.0,-13821.0,634.0,-367.0,-13.0,-1.0,4.0,1.0
2022-05-23 14:42:49.804636-07:00,1404.9,928.8,1599.3,1533.8,1098.2,975.6,1811.0,1325.9,3463.7,3462.5,1520.8,1201.8,1953.9,3462.5,1844.0,1797.4,3478.3,3474.6,1655.8,2080.6,2685.3,3484.4,1934.1,3477.1,3471.0,3472.2,720.8,952.6,2232.2,1420.4,1299.0,995.3,4.0,2.0,-1.0,5956.0,-7058.0,10991.0,-7896.0,-5.0,-39.0,-6.0,-11.0,0.0,0.0,8768.0,-13821.0,635.0,-366.0,-5.0,-1.0,7.0,1.0
2022-05-23 14:42:49.835018-07:00,1395.7,936.4,1602.1,1519.9,1098.2,975.6,1811.0,1320.5,3472.2,3462.5,1525.5,1201.8,1953.9,3462.5,1844.0,1799.4,3472.2,3474.6,1655.8,2080.6,2682.1,3495.3,1937.1,3492.9,3483.2,3472.2,720.8,952.6,2214.7,1414.0,1298.1,993.6,-9.0,4.0,-3.0,5956.0,-7057.0,10994.0,-7893.0,-10.0,20.0,21.0,-12.0,-6.0,14.0,8769.0,-13820.0,636.0,-364.0,-5.0,-2.0,8.0,1.0
2022-05-23 14:42:49.895029-07:00,1393.0,936.4,1602.1,1519.9,1101.7,958.5,1849.8,1320.5,3475.9,3462.5,1525.5,1201.8,1940.0,3460.1,1848.9,1799.4,3472.2,3475.9,1657.7,2070.5,2682.1,3495.3,1937.1,3502.7,3483.2,3472.2,720.8,954.3,2214.7,1414.0,1298.1,1001.3,-6.0,7.0,-6.0,5953.0,-7050.0,10999.0,-7894.0,-9.0,17.0,4.0,-2.0,-5.0,16.0,8767.0,-13822.0,642.0,-360.0,-19.0,12.0,13.0,1.0
2022-05-23 14:42:49.954615-07:00,1393.0,917.7,1606.8,1525.5,1101.7,958.5,1849.8,1323.2,3475.9,3467.4,1515.3,1203.5,1940.0,3460.1,1848.9,1795.5,3477.1,3475.9,1657.7,2070.5,2676.6,3488.0,1923.3,3502.7,3475.9,3472.2,720.8,954.3,2212.7,1410.3,1293.6,1001.3,3.0,3.0,-9.0,5951.0,-7050.0,11000.0,-7894.0,2.0,14.0,1.0,-1.0,-1.0,6.0,8765.0,-13822.0,646.0,-360.0,0.0,4.0,10.0,1.0
2022-05-23 14:42:49.984623-07:00,1393.0,917.7,1606.8,1525.5,1093.8,962.8,1807.1,1323.2,3466.1,3467.4,1515.3,1203.5,1942.0,3475.9,1847.9,1795.5,3477.1,3478.3,1655.8,2089.6,2676.6,3488.0,1923.3,3492.9,3475.9,3479.5,711.8,951.7,2212.7,1410.3,1293.6,993.6,-3.0,17.0,-8.0,5951.0,-7049.0,11000.0,-7894.0,15.0,-13.0,4.0,-9.0,0.0,12.0,8767.0,-13821.0,647.0,-359.0,1.0,-3.0,3.0,1.0
2022-05-23 14:42:50.044338-07:00,1393.0,919.4,1604.0,1527.3,1093.8,962.8,1807.1,1331.4,3466.1,3469.8,1526.4,1194.7,1942.0,3475.9,1847.9,1782.9,3477.1,3478.3,1655.8,2089.6,2694.1,3496.6,1913.4,3492.9,3479.5,3479.5,711.8,951.7,2212.7,1413.1,1298.1,993.6,0.0,-2.0,0.0,5952.0,-7051.0,11000.0,-7892.0,-9.0,3.0,0.0,-6.0,-3.0,8.0,8765.0,-13823.0,648.0,-358.0,-6.0,-5.0,0.0,1.0
2022-05-23 14:42:50.104896-07:00,1388.5,926.2,1604.0,1527.3,1099.9,967.1,1799.4,1331.4,3467.4,3468.6,1526.4,1194.7,1935.1,3466.1,1841.1,1782.9,3477.1,3471.0,1660.6,2081.6,2694.1,3496.6,1920.3,3491.7,3479.5,3478.3,727.4,953.4,2212.7,1413.1,1291.8,986.7,6.0,-8.0,1.0,5950.0,-7050.0,11001.0,-7894.0,-2.0,8.0,-4.0,-10.0,-3.0,6.0,8765.0,-13823.0,649.0,-356.0,0.0,-6.0,7.0,1.0
2022-05-23 14:42:50.135051-07:00,1388.5,926.2,1599.3,1526.4,1099.9,967.1,1821.6,1325.9,3467.4,3468.6,1524.5,1203.5,1935.1,3466.1,1835.2,1791.6,3473.4,3475.9,1660.6,2081.6,2674.4,3486.8,1920.3,3491.7,3471.0,3478.3,727.4,953.4,2212.7,1409.4,1291.8,986.7,7.0,0.0,-2.0,5948.0,-7051.0,11003.0,-7890.0,-31.0,-14.0,1.0,-4.0,-1.0,1.0,8759.0,-13826.0,652.0,-354.0,-27.0,-2.0,9.0,1.0
2022-05-23 14:42:50.224196-07:00,1377.5,923.7,1599.3,1526.4,1091.2,956.0,1821.6,1325.9,3474.6,3467.4,1524.5,1203.5,1933.1,3467.4,1835.2,1791.6,3473.4,3475.9,1648.3,2070.5,2674.4,3486.8,1917.4,3485.6,3471.0,3478.3,715.9,945.8,2212.7,1409.4,1296.3,983.3,-7.0,2.0,-6.0,5946.0,-7052.0,11007.0,-7887.0,-2.0,9.0,10.0,-6.0,-5.0,14.0,8759.0,-13826.0,654.0,-352.0,-2.0,-7.0,12.0,1.0
2022-05-23 14:42:50.254719-07:00,1377.5,923.7,1598.3,1513.4,1091.2,956.0,1810.0,1328.7,3474.6,3467.4,1519.9,1194.7,1933.1,3467.4,1834.3,1781.0,3462.5,3483.2,1648.3,2070.5,2674.4,3496.6,1917.4,3485.6,3475.9,3477.1,715.9,945.8,2209.6,1407.6,1296.3,983.3,3.0,11.0,-4.0,5951.0,-7059.0,11002.0,-7883.0,6.0,-26.0,-15.0,-7.0,1.0,9.0,8760.0,-13826.0,655.0,-351.0,-1.0,-2.0,-3.0,1.0
2022-05-23 14:42:50.285056-07:00,1383.0,921.1,1598.3,1513.4,1085.1,960.2,1810.0,1328.7,3473.4,3468.6,1519.9,1194.7,1929.2,3462.5,1834.3,1781.0,3462.5,3483.2,1647.3,2083.6,2674.4,3496.6,1916.4,3490.5,3475.9,3477.1,719.2,949.2,2209.6,1407.6,1282.8,993.6,-2.0,0.0,-3.0,5953.0,-7066.0,10999.0,-7880.0,-12.0,-17.0,-3.0,-5.0,-4.0,11.0,8762.0,-13824.0,654.0,-348.0,-4.0,-10.0,-2.0,1.0
2022-05-23 14:42:50.344676-07:00,1383.0,921.1,1588.9,1513.4,1085.1,960.2,1782.9,1332.3,3473.4,3468.6,1510.6,1196.5,1929.2,3462.5,1830.4,1783.9,3462.5,3477.1,1647.3,2083.6,2676.6,3497.8,1916.4,3490.5,3477.1,3478.3,719.2,949.2,2201.4,1407.6,1282.8,993.6,-9.0,3.0,-6.0,5957.0,-7073.0,10994.0,-7877.0,-12.0,-19.0,-10.0,-12.0,-2.0,10.0,8762.0,-13825.0,656.0,-346.0,-23.0,-8.0,4.0,1.0
2022-05-23 14:42:50.404591-07:00,1375.7,916.9,1594.6,1513.4,1090.3,967.1,1782.9,1332.3,3456.4,3467.4,1513.4,1196.5,1923.3,3469.8,1830.4,1783.9,3462.5,3477.1,1649.2,2078.5,2676.6,3492.9,1914.4,3488.0,3477.1,3478.3,721.6,947.5,2201.4,1400.3,1293.6,993.6,-4.0,4.0,-5.0,5957.0,-7076.0,10997.0,-7869.0,-14.0,7.0,18.0,-8.0,-2.0,7.0,8756.0,-13828.0,658.0,-343.0,-13.0,-1.0,14.0,1.0
2022-05-23 14:42:50.435019-07:00,1375.7,916.9,1594.6,1509.7,1090.3,959.4,1777.2,1314.2,3456.4,3467.4,1513.4,1198.2,1923.3,3469.8,1833.3,1767.5,3473.4,3461.3,1661.5,2078.5,2667.8,3492.9,1914.4,3488.0,3480.7,3464.9,717.5,947.5,2205.5,1400.3,1293.6,993.6,4.0,4.0,-2.0,5957.0,-7076.0,11000.0,-7866.0,-6.0,2.0,3.0,-3.0,0.0,8.0,8750.0,-13832.0,662.0,-340.0,-13.0,2.0,9.0,1.0
2022-05-23 14:42:50.494781-07:00,1373.9,916.9,1590.8,1509.7,1079.9,959.4,1777.2,1314.2,3466.1,3462.5,1509.7,1198.2,1919.3,3469.8,1833.3,1767.5,3473.4,3461.3,1661.5,2087.6,2667.8,3502.7,1908.5,3490.5,3480.7,3464.9,717.5,947.5,2205.5,1407.6,1298.1,986.7,0.0,6.0,-3.0,5954.0,-7072.0,11005.0,-7864.0,-1.0,11.0,15.0,-3.0,-4.0,12.0,8747.0,-13834.0,664.0,-339.0,-5.0,2.0,8.0,1.0
2022-05-23 14:42:50.614853-07:00,1373.9,916.9,1590.8,1522.7,1079.9,964.5,1792.6,1325.9,3466.1,3462.5,1509.7,1189.4,1919.3,3471.0,1834.3,1787.8,3485.6,3478.3,1637.9,2087.6,2665.7,3502.7,1908.5,3490.5,3478.3,3472.2,715.9,947.5,2184.0,1407.6,1298.1,986.7,0.0,-2.0,-1.0,5956.0,-7077.0,11002.0,-7864.0,3.0,-3.0,-2.0,-11.0,-2.0,5.0,8745.0,-13835.0,664.0,-339.0,-3.0,0.0,1.0,1.0
2022-05-23 14:42:50.616396-07:00,1377.5,911.8,1586.1,1522.7,1072.9,964.5,1792.6,1325.9,3472.2,3464.9,1515.3,1189.4,1910.5,3471.0,1834.3,1787.8,3485.6,3478.3,1637.9,2073.5,2665.7,3497.8,1901.6,3488.0,3478.3,3472.2,715.9,935.6,2184.0,1390.3,1291.8,982.5,-11.0,12.0,-9.0,5957.0,-7076.0,11001.0,-7866.0,6.0,-10.0,-12.0,-8.0,-3.0,12.0,8746.0,-13834.0,664.0,-339.0,-2.0,-2.0,2.0,1.0
2022-05-23 14:42:50.644451-07:00,1377.5,911.8,1586.1,1520.8,1079.9,962.0,1785.8,1303.4,3472.2,3464.9,1515.3,1192.0,1915.4,3475.9,1823.6,1777.2,3473.4,3469.8,1657.7,2080.6,2674.4,3497.8,1901.6,3488.0,3468.6,3469.8,715.9,943.2,2192.2,1390.3,1291.8,982.5,-2.0,1.0,-9.0,5956.0,-7082.0,10999.0,-7863.0,-28.0,-7.0,1.0,-9.0,-3.0,6.0,8743.0,-13836.0,664.0,-339.0,-19.0,-5.0,0.0,1.0
2022-05-23 14:42:50.704638-07:00,1363.9,919.4,1599.3,1513.4,1079.9,962.0,1785.8,1303.4,3473.4,3468.6,1506.0,1196.5,1915.4,3475.9,1823.6,1777.2,3473.4,3469.8,1657.7,2080.6,2674.4,3477.1,1904.6,3484.4,3468.6,3469.8,715.9,943.2,2192.2,1396.7,1284.6,979.9,0.0,9.0,-2.0,5960.0,-7084.0,10997.0,-7861.0,27.0,-16.0,6.0,-8.0,-1.0,7.0,8744.0,-13836.0,664.0,-339.0,21.0,-7.0,0.0,1.0
2022-05-23 14:42:50.735064-07:00,1363.9,919.4,1599.3,1513.4,1086.0,956.8,1780.1,1319.6,3473.4,3468.6,1506.0,1196.5,1910.5,3461.3,1823.6,1784.9,3479.5,3471.0,1650.2,2076.5,2674.4,3477.1,1904.6,3484.4,3472.2,3467.4,710.1,941.5,2192.2,1396.7,1284.6,979.9,-2.0,8.0,-5.0,5962.0,-7084.0,10996.0,-7862.0,-11.0,-8.0,-6.0,-8.0,-1.0,8.0,8746.0,-13835.0,663.0,-338.0,-21.0,-11.0,-3.0,1.0
2022-05-23 14:42:50.794338-07:00,1375.7,919.4,1582.4,1510.6,1086.0,956.8,1780.1,1319.6,3473.4,3480.7,1506.9,1196.5,1910.5,3461.3,1823.6,1784.9,3479.5,3471.0,1650.2,2076.5,2668.9,3486.8,1902.6,3489.2,3472.2,3467.4,710.1,941.5,2182.0,1386.6,1290.0,981.6,2.0,0.0,0.0,5958.0,-7088.0,11000.0,-7855.0,-10.0,1.0,-4.0,-6.0,-7.0,9.0,8737.0,-13840.0,663.0,-336.0,-6.0,-3.0,0.0,1.0
2022-05-23 14:42:50.854743-07:00,1375.7,919.4,1582.4,1510.6,1077.3,953.4,1787.8,1325.9,3473.4,3480.7,1506.9,1196.5,1914.4,3468.6,1815.8,1770.4,3469.8,3473.4,1651.1,2071.5,2668.9,3486.8,1902.6,3489.2,3478.3,3480.7,714.2,942.4,2182.0,1386.6,1290.0,981.6,0.0,-1.0,-5.0,5957.0,-7086.0,11000.0,-7857.0,5.0,14.0,-2.0,-6.0,-3.0,10.0,8737.0,-13840.0,663.0,-336.0,-4.0,3.0,-1.0,1.0
2022-05-23 14:42:50.885066-07:00,1375.7,919.4,1583.3,1512.5,1077.3,953.4,1787.8,1325.9,3462.5,3467.4,1524.5,1189.4,1914.4,3468.6,1815.8,1770.4,3469.8,3473.4,1651.1,2071.5,2675.5,3488.0,1898.7,3489.2,3478.3,3480.7,714.2,942.4,2195.2,1410.3,1283.7,973.9,1.0,8.0,-2.0,5954.0,-7078.0,11005.0,-7859.0,-4.0,24.0,22.0,-7.0,-1.0,9.0,8737.0,-13840.0,663.0,-336.0,-3.0,9.0,9.0,1.0
2022-05-23 14:42:50.974720-07:00,1373.9,919.4,1583.3,1512.5,1075.6,967.9,1780.1,1320.5,3467.4,3467.4,1524.5,1189.4,1911.5,3473.4,1821.6,1769.5,3473.4,3471.0,1641.6,2075.5,2675.5,3488.0,1898.7,3486.8,3467.4,3471.0,722.5,941.5,2195.2,1410.3,1283.7,979.9,-3.0,0.0,-10.0,5947.0,-7072.0,11010.0,-7863.0,-2.0,26.0,-7.0,-5.0,-3.0,9.0,8735.0,-13841.0,663.0,-337.0,-6.0,8.0,1.0,1.0
2022-05-23 14:42:51.004661-07:00,1373.9,915.2,1597.4,1506.9,1075.6,967.9,1780.1,1308.8,3467.4,3472.2,1506.9,1186.7,1911.5,3473.4,1821.6,1772.3,3473.4,3471.0,1641.6,2075.5,2673.3,3483.2,1909.5,3486.8,3479.5,3471.0,722.5,941.5,2193.2,1400.3,1286.4,979.9,2.0,8.0,-5.0,5945.0,-7071.0,11011.0,-7865.0,7.0,0.0,4.0,-7.0,-2.0,7.0,8735.0,-13841.0,663.0,-337.0,8.0,2.0,6.0,1.0
2022-05-23 14:42:51.035091-07:00,1360.3,915.2,1597.4,1506.9,1059.9,945.8,1783.9,1308.8,3467.4,3472.2,1506.9,1186.7,1899.7,3474.6,1810.0,1772.3,3473.4,3467.4,1645.4,2065.5,2673.3,3483.2,1909.5,3489.2,3479.5,3481.9,716.7,926.2,2193.2,1400.3,1286.4,976.5,-7.0,0.0,-4.0,5946.0,-7070.0,11010.0,-7866.0,2.0,6.0,10.0,-13.0,-4.0,13.0,8735.0,-13841.0,663.0,-337.0,2.0,-5.0,6.0,1.0
2022-05-23 14:42:51.094701-07:00,1360.3,920.3,1588.0,1515.3,1059.9,945.8,1783.9,1310.6,3467.4,3462.5,1513.4,1182.3,1899.7,3474.6,1810.0,1762.7,3473.4,3467.4,1645.4,2065.5,2672.2,3496.6,1887.9,3489.2,3467.4,3481.9,716.7,926.2,2189.1,1402.1,1281.9,976.5,0.0,22.0,-7.0,5951.0,-7067.0,11009.0,-7865.0,19.0,-18.0,-2.0,-4.0,4.0,10.0,8735.0,-13841.0,665.0,-335.0,8.0,5.0,6.0,1.0
2022-05-23 14:42:51.125069-07:00,1359.4,920.3,1588.0,1515.3,1066.9,962.0,1786.8,1310.6,3477.1,3462.5,1513.4,1182.3,1895.8,3468.6,1818.7,1762.7,3473.4,3473.4,1661.5,2078.5,2672.2,3496.6,1887.9,3492.9,3467.4,3478.3,712.6,932.2,2189.1,1402.1,1281.9,979.0,-9.0,-1.0,-5.0,5946.0,-7068.0,11012.0,-7866.0,-7.0,30.0,1.0,-15.0,-7.0,17.0,8732.0,-13843.0,663.0,-337.0,-6.0,0.0,-10.0,1.0
2022-05-23 14:42:51.214823-07:00,1359.4,908.4,1588.9,1511.5,1066.9,962.0,1777.2,1310.6,3477.1,3477.1,1506.0,1181.5,1895.8,3468.6,1828.4,1769.5,3473.4,3471.0,1661.5,2078.5,2664.6,3490.5,1895.8,3492.9,3474.6,3472.2,712.6,932.2,2193.2,1393.9,1299.8,979.0,2.0,6.0,-4.0,5945.0,-7064.0,11010.0,-7872.0,19.0,1.0,-10.0,-8.0,0.0,7.0,8732.0,-13843.0,663.0,-337.0,8.0,3.0,-7.0,1.0
2022-05-23 14:42:51.244371-07:00,1346.7,909.3,1588.9,1511.5,1074.7,944.9,1777.2,1310.6,3458.9,3475.9,1506.0,1181.5,1904.6,3473.4,1828.4,1769.5,3473.4,3471.0,1657.7,2069.5,2664.6,3490.5,1895.8,3485.6,3474.6,3472.2,715.1,942.4,2193.2,1393.9,1279.2,976.5,2.0,3.0,-11.0,5947.0,-7061.0,11005.0,-7881.0,31.0,2.0,1.0,-5.0,-6.0,11.0,8738.0,-13839.0,662.0,-338.0,25.0,0.0,-5.0,1.0
2022-05-23 14:42:51.304687-07:00,1346.7,909.3,1575.8,1499.5,1074.7,944.9,1780.1,1295.4,3458.9,3475.9,1502.3,1185.9,1904.6,3473.4,1834.3,1764.6,3474.6,3477.1,1657.7,2069.5,2671.1,3500.2,1895.8,3485.6,3463.7,3469.8,715.1,942.4,2183.0,1396.7,1279.2,976.5,7.0,1.0,-2.0,5951.0,-7059.0,11001.0,-7884.0,-8.0,-2.0,-3.0,-1.0,-2.0,9.0,8743.0,-13837.0,662.0,-338.0,-6.0,-5.0,-4.0,1.0
2022-05-23 14:42:51.335094-07:00,1351.2,920.3,1575.8,1499.5,1070.3,958.5,1780.1,1295.4,3471.0,3468.6,1502.3,1185.9,1901.6,3461.3,1834.3,1764.6,3474.6,3477.1,1638.8,2075.5,2671.1,3500.2,1887.9,3488.0,3463.7,3469.8,717.5,940.7,2183.0,1396.7,1275.6,975.6,5.0,4.0,9.0,5944.0,-7053.0,11008.0,-7885.0,-8.0,47.0,14.0,-3.0,-3.0,18.0,8737.0,-13840.0,661.0,-337.0,-21.0,0.0,0.0,1.0
2022-05-23 14:42:51.394784-07:00,1351.2,920.3,1588.0,1520.8,1070.3,958.5,1781.0,1303.4,3471.0,3468.6,1504.1,1184.1,1901.6,3461.3,1830.4,1760.8,3461.3,3479.5,1638.8,2075.5,2670.0,3486.8,1887.9,3488.0,3478.3,3481.9,717.5,940.7,2179.9,1391.2,1275.6,975.6,-4.0,22.0,15.0,5894.0,-7001.0,11039.0,-7926.0,15.0,296.0,38.0,-17.0,-4.0,24.0,8727.0,-13846.0,667.0,-344.0,-29.0,42.0,-8.0,1.0
2022-05-23 14:42:51.424736-07:00,1365.7,923.7,1671.9,1520.8,1084.2,952.6,1781.0,1303.4,3462.5,3467.4,1532.0,1184.1,1921.3,3463.7,1830.4,1760.8,3461.3,3479.5,1667.2,2078.5,2670.0,3490.5,1938.0,3480.7,3478.3,3481.9,716.7,950.0,2179.9,1485.6,1321.4,970.5,121.0,-66.0,-24.0,5792.0,-6876.0,11131.0,-7983.0,76.0,627.0,263.0,2.0,5.0,-13.0,8710.0,-13855.0,683.0,-367.0,-14.0,63.0,2.0,1.0
2022-05-23 14:42:51.485066-07:00,1365.7,923.7,1671.9,1634.1,1084.2,969.6,1784.9,1307.9,3462.5,3467.4,1532.0,1206.2,1921.3,3464.9,2067.5,1841.1,3469.8,3471.0,1651.1,2078.5,2678.8,3490.5,1938.0,3480.7,3467.4,3478.3,713.4,950.0,2242.5,1485.6,1321.4,970.5,-151.0,161.0,-140.0,5679.0,-6559.0,11252.0,-8159.0,117.0,625.0,274.0,-18.0,-5.0,84.0,8690.0,-13867.0,685.0,-391.0,-203.0,67.0,-53.0,1.0
2022-05-23 14:42:51.544414-07:00,1353.1,914.4,2030.4,1634.1,1062.5,969.6,1784.9,1307.9,3468.6,3469.8,1614.3,1206.2,1937.1,3464.9,2067.5,1841.1,3469.8,3471.0,1651.1,2067.5,2678.8,3484.4,2168.7,3477.1,3467.4,3478.3,713.4,986.7,2242.5,1737.8,1603.0,985.0,0.0,-72.0,26.0,5672.0,-6796.0,11263.0,-7952.0,-674.0,-856.0,-469.0,-39.0,4.0,-57.0,8476.0,-13998.0,681.0,-427.0,-675.0,48.0,-83.0,1.0
2022-05-23 14:42:51.574658-07:00,1353.1,914.4,2030.4,1757.9,1062.5,973.1,1839.1,1316.9,3468.6,3469.8,1614.3,1219.5,1937.1,3473.4,2225.0,2052.4,3477.1,3467.4,1634.1,2067.5,2679.9,3484.4,2168.7,3477.1,3477.1,3472.2,714.2,986.7,2227.0,1737.8,1603.0,985.0,-10.0,-29.0,12.0,5731.0,-7046.0,11166.0,-7827.0,39.0,-373.0,-122.0,-12.0,-15.0,0.0,8385.0,-14054.0,653.0,-440.0,35.0,-23.0,-59.0,1.0
2022-05-23 14:42:51.635036-07:00,1385.7,894.9,1820.7,1757.9,1089.5,973.1,1839.1,1316.9,3469.8,3468.6,1503.2,1219.5,1978.6,3473.4,2225.0,2052.4,3477.1,3467.4,1634.1,2080.6,2679.9,3497.8,2266.2,3490.5,3477.1,3472.2,714.2,1011.6,2227.0,1575.8,1572.1,973.9,-5.0,43.0,-24.0,5833.0,-7104.0,11100.0,-7792.0,-31.0,-245.0,-30.0,14.0,3.0,28.0,8393.0,-14051.0,614.0,-439.0,-91.0,-48.0,-94.0,1.0
2022-05-23 14:42:51.694302-07:00,1385.7,894.9,1820.7,1500.4,1089.5,963.7,1849.8,1320.5,3469.8,3468.6,1503.2,1116.5,1978.6,3467.4,1925.2,1813.9,3467.4,3477.1,1648.3,2080.6,2685.3,3497.8,2266.2,3490.5,3473.4,3468.6,711.8,1011.6,2241.4,1575.8,1572.1,973.9,22.0,-25.0,49.0,5856.0,-7281.0,11077.0,-7643.0,-387.0,-446.0,-222.0,1.0,-22.0,2.0,8312.0,-14100.0,578.0,-450.0,-192.0,-6.0,-71.0,1.0
2022-05-23 14:42:51.724779-07:00,1394.8,889.8,1580.5,1338.6,1095.6,963.7,1849.8,1320.5,3472.2,3469.8,1382.1,1043.5,1959.8,3467.4,1925.2,1813.9,3467.4,3477.1,1648.3,2086.6,2690.8,3496.6,2276.5,3489.2,3473.4,3468.6,711.8,992.7,2198.3,1413.1,1414.9,974.8,-49.0,-19.0,-7.0,5888.0,-7448.0,11021.0,-7540.0,-199.0,-353.0,-117.0,-18.0,-4.0,22.0,8275.0,-14122.0,565.0,-461.0,-165.0,14.0,-34.0,1.0
2022-05-23 14:42:51.844552-07:00,1394.8,889.8,1580.5,1338.6,1075.6,980.7,1861.5,1308.8,3472.2,3469.8,1382.1,1043.5,1928.2,3467.4,1751.2,1681.4,3472.2,3477.1,1639.8,2087.6,2690.8,3496.6,2276.5,3489.2,3477.1,3469.8,704.4,982.5,2198.3,1413.1,1414.9,974.8,53.0,-28.0,62.0,5929.0,-7549.0,11034.0,-7385.0,-154.0,-159.0,97.0,-3.0,-17.0,-20.0,8230.0,-14149.0,563.0,-452.0,71.0,-38.0,6.0,1.0
2022-05-23 14:42:51.845922-07:00,1390.3,889.8,1508.8,1281.0,1075.6,980.7,1861.5,1308.8,3483.2,3472.2,1323.2,1021.1,1928.2,3467.4,1751.2,1681.4,3472.2,3477.1,1639.8,2087.6,2682.1,3492.9,2238.4,3494.1,3477.1,3469.8,704.4,982.5,2152.4,1353.1,1338.6,973.1,-37.0,42.0,-19.0,5959.0,-7455.0,11021.0,-7477.0,297.0,128.0,39.0,-7.0,-1.0,31.0,8311.0,-14101.0,558.0,-452.0,124.0,20.0,8.0,1.0
2022-05-23 14:42:51.874418-07:00,1390.3,889.8,1508.8,1281.0,1062.5,960.2,1893.8,1312.4,3483.2,3472.2,1323.2,1021.1,1903.6,3466.1,1702.4,1628.4,3466.1,3473.4,1634.1,2084.6,2682.1,3492.9,2238.4,3494.1,3467.4,3479.5,701.1,975.6,2152.4,1353.1,1338.6,973.1,21.0,-8.0,10.0,5953.0,-7466.0,11016.0,-7476.0,-165.0,18.0,-37.0,-4.0,-7.0,1.0,8283.0,-14118.0,561.0,-455.0,-110.0,3.0,-18.0,1.0
2022-05-23 14:42:51.935104-07:00,1376.6,889.0,1470.0,1283.7,1062.5,960.2,1893.8,1312.4,3469.8,3464.9,1306.1,1010.8,1903.6,3466.1,1702.4,1628.4,3466.1,3473.4,1634.1,2084.6,2694.1,3486.8,2213.7,3483.2,3467.4,3479.5,701.1,975.6,2118.9,1314.2,1312.4,968.8,-1.0,0.0,-17.0,5928.0,-7447.0,11033.0,-7490.0,63.0,49.0,36.0,-5.0,-2.0,8.0,8283.0,-14117.0,561.0,-459.0,38.0,10.0,14.0,1.0
2022-05-23 14:42:51.994524-07:00,1375.7,889.0,1470.0,1283.7,1066.9,958.5,1887.9,1301.6,3467.4,3464.9,1306.1,1010.8,1883.0,3469.8,1680.5,1605.8,3481.9,3475.9,1630.3,2083.6,2694.1,3486.8,2213.7,3489.2,3483.2,3479.5,699.5,966.2,2118.9,1314.2,1312.4,967.9,5.0,9.0,-3.0,5930.0,-7426.0,11038.0,-7503.0,37.0,47.0,5.0,-3.0,-6.0,8.0,8296.0,-14110.0,568.0,-456.0,37.0,-11.0,10.0,1.0
2022-05-23 14:42:52.024939-07:00,1375.7,880.6,1453.4,1256.9,1066.9,958.5,1887.9,1291.8,3467.4,3478.3,1303.4,1003.9,1883.0,3469.8,1680.5,1578.6,3471.0,3475.9,1630.3,2083.6,2684.3,3486.8,2195.2,3489.2,3461.3,3479.5,699.5,966.2,2099.7,1321.4,1299.8,967.9,-4.0,-2.0,11.0,5925.0,-7407.0,11029.0,-7539.0,79.0,63.0,-3.0,-11.0,-1.0,10.0,8319.0,-14096.0,567.0,-456.0,54.0,-9.0,-12.0,1.0
2022-05-23 14:42:52.114931-07:00,1369.4,880.6,1453.4,1256.9,1063.4,956.8,1890.9,1291.8,3462.5,3478.3,1303.4,1003.9,1872.3,3463.7,1652.0,1578.6,3471.0,3469.8,1640.7,2081.6,2684.3,3486.8,2195.2,3495.3,3461.3,3467.4,706.9,967.1,2099.7,1321.4,1299.8,968.8,-3.0,-4.0,15.0,5920.0,-7376.0,11020.0,-7586.0,125.0,118.0,-12.0,-14.0,-6.0,11.0,8345.0,-14081.0,567.0,-455.0,71.0,-8.0,1.0,1.0
2022-05-23 14:42:52.144623-07:00,1369.4,885.6,1433.2,1253.3,1063.4,956.8,1890.9,1309.7,3462.5,3468.6,1294.5,997.9,1872.3,3463.7,1652.0,1576.8,3479.5,3469.8,1640.7,2081.6,2668.9,3490.5,2186.0,3495.3,3473.4,3467.4,706.9,967.1,2077.5,1291.8,1283.7,968.8,-1.0,7.0,-23.0,5905.0,-7328.0,11019.0,-7644.0,36.0,112.0,28.0,-11.0,2.0,1.0,8370.0,-14066.0,568.0,-453.0,-21.0,0.0,6.0,1.0
2022-05-23 14:42:52.204972-07:00,1377.5,885.6,1433.2,1253.3,1048.7,960.2,1908.5,1309.7,3475.9,3468.6,1294.5,997.9,1864.5,3471.0,1638.8,1576.8,3479.5,3467.4,1627.5,2082.6,2668.9,3490.5,2186.0,3485.6,3473.4,3473.4,698.7,953.4,2077.5,1291.8,1283.7,962.0,2.0,19.0,-10.0,5889.0,-7280.0,11046.0,-7665.0,108.0,108.0,54.0,-1.0,-3.0,12.0,8374.0,-14064.0,572.0,-450.0,53.0,14.0,23.0,1.0
2022-05-23 14:42:52.235075-07:00,1377.5,876.4,1430.5,1254.2,1048.7,960.2,1908.5,1309.7,3475.9,3472.2,1289.1,995.3,1864.5,3471.0,1638.8,1551.5,3472.2,3467.4,1627.5,2082.6,2681.0,3495.3,2197.3,3485.6,3462.5,3473.4,698.7,953.4,2060.5,1291.8,1264.9,962.0,-4.0,7.0,-16.0,5886.0,-7266.0,11043.0,-7685.0,-67.0,-27.0,-17.0,-10.0,3.0,1.0,8375.0,-14062.0,582.0,-452.0,-78.0,9.0,2.0,1.0
2022-05-23 14:42:52.294828-07:00,1378.5,881.4,1430.5,1254.2,1042.6,942.4,1914.4,1309.7,3473.4,3469.8,1289.1,995.3,1855.7,3471.0,1606.8,1551.5,3472.2,3467.4,1623.7,2083.6,2681.0,3495.3,2175.8,3486.8,3462.5,3467.4,697.0,949.2,2060.5,1291.8,1238.2,961.1,0.0,-6.0,-4.0,5879.0,-7275.0,11060.0,-7657.0,6.0,2.0,39.0,-3.0,-10.0,15.0,8357.0,-14073.0,583.0,-449.0,6.0,-3.0,5.0,1.0
2022-05-23 14:42:52.324363-07:00,1378.5,881.4,1418.6,1246.2,1042.6,942.4,1904.6,1300.7,3473.4,3469.8,1283.7,986.7,1855.7,3471.0,1578.6,1541.3,3472.2,3466.1,1623.7,2083.6,2682.1,3490.5,2175.8,3486.8,3472.2,3469.8,697.0,949.2,2057.4,1275.6,1238.2,961.1,-3.0,22.0,-20.0,5896.0,-7257.0,11055.0,-7668.0,43.0,-1.0,13.0,-4.0,3.0,10.0,8375.0,-14063.0,582.0,-446.0,36.0,-11.0,-1.0,1.0
2022-05-23 14:42:52.384748-07:00,1367.6,878.9,1418.6,1246.2,1050.4,949.2,1904.6,1300.7,3468.6,3472.2,1283.7,986.7,1851.8,3468.6,1578.6,1541.3,3472.2,3466.1,1623.7,2084.6,2682.1,3490.5,2177.9,3485.6,3472.2,3469.8,701.9,940.7,2057.4,1275.6,1223.9,958.5,11.0,-12.0,-8.0,5898.0,-7272.0,11056.0,-7651.0,-83.0,-41.0,8.0,-10.0,-5.0,-1.0,8371.0,-14065.0,579.0,-443.0,-48.0,-14.0,-15.0,1.0
2022-05-23 14:42:52.444411-07:00,1367.6,878.9,1400.3,1243.5,1050.4,949.2,1955.8,1314.2,3468.6,3472.2,1278.3,988.5,1851.8,3468.6,1579.6,1521.8,3474.6,3479.5,1623.7,2084.6,2684.3,3496.6,2177.9,3485.6,3468.6,3483.2,701.9,940.7,2043.4,1264.0,1223.9,958.5,-18.0,6.0,6.0,5913.0,-7246.0,11071.0,-7643.0,92.0,1.0,101.0,-3.0,-5.0,21.0,8378.0,-14062.0,575.0,-438.0,59.0,-9.0,17.0,1.0
2022-05-23 14:42:52.474442-07:00,1370.3,879.7,1400.3,1243.5,1040.9,947.5,1955.8,1314.2,3461.3,3462.5,1278.3,988.5,1840.1,3478.3,1579.6,1521.8,3474.6,3479.5,1629.4,2083.6,2684.3,3496.6,2159.5,3492.9,3468.6,3483.2,699.5,941.5,2043.4,1264.0,1216.8,949.2,7.0,10.0,-19.0,5937.0,-7245.0,11075.0,-7618.0,-151.0,-84.0,31.0,-8.0,6.0,-5.0,8373.0,-14064.0,584.0,-432.0,-110.0,-5.0,10.0,1.0
2022-05-23 14:42:52.564875-07:00,1370.3,879.7,1405.8,1230.2,1040.9,944.9,1967.7,1319.6,3461.3,3462.5,1273.9,985.9,1840.1,3474.6,1566.5,1525.5,3472.2,3478.3,1632.2,2083.6,2682.1,3499.0,2159.5,3492.9,3474.6,3475.9,693.8,941.5,2037.4,1256.9,1216.8,949.2,0.0,-4.0,8.0,5937.0,-7254.0,11115.0,-7551.0,-60.0,-10.0,118.0,-3.0,-17.0,12.0,8332.0,-14089.0,582.0,-423.0,-36.0,-21.0,1.0,1.0
2022-05-23 14:42:52.594481-07:00,1383.0,873.8,1397.6,1230.2,1032.3,944.9,1967.7,1319.6,3471.0,3464.9,1264.9,985.9,1840.1,3474.6,1566.5,1525.5,3472.2,3478.3,1632.2,2087.6,2682.1,3488.0,2152.4,3489.2,3474.6,3475.9,693.8,943.2,2037.4,1246.2,1216.0,962.8,1.0,19.0,-18.0,5957.0,-7241.0,11109.0,-7558.0,66.0,-23.0,-48.0,-5.0,4.0,6.0,8344.0,-14082.0,582.0,-417.0,28.0,-3.0,5.0,1.0
2022-05-23 14:42:52.624701-07:00,1383.0,873.8,1397.6,1223.0,1032.3,955.1,1961.8,1321.4,3471.0,3464.9,1264.9,986.7,1840.1,3464.9,1567.4,1523.6,3475.9,3469.8,1631.3,2087.6,2681.0,3488.0,2152.4,3489.2,3473.4,3478.3,697.0,943.2,2043.4,1246.2,1216.0,962.8,-4.0,-10.0,0.0,5954.0,-7258.0,11104.0,-7551.0,-52.0,-20.0,15.0,-4.0,-6.0,9.0,8336.0,-14087.0,579.0,-412.0,-30.0,-17.0,-7.0,1.0
2022-05-23 14:42:52.684788-07:00,1363.9,885.6,1412.2,1223.0,1031.4,955.1,1961.8,1321.4,3457.6,3462.5,1271.2,986.7,1832.3,3464.9,1567.4,1523.6,3475.9,3469.8,1631.3,2084.6,2681.0,3492.9,2147.3,3490.5,3473.4,3478.3,697.0,944.1,2043.4,1256.9,1210.6,950.9,3.0,25.0,-6.0,5966.0,-7251.0,11102.0,-7551.0,61.0,-9.0,-6.0,-1.0,4.0,14.0,8346.0,-14081.0,577.0,-408.0,48.0,3.0,7.0,1.0
2022-05-23 14:42:52.744457-07:00,1363.9,885.6,1412.2,1233.7,1031.4,955.1,1969.7,1302.5,3457.6,3462.5,1271.2,984.2,1832.3,3467.4,1551.5,1513.4,3478.3,3466.1,1633.1,2084.6,2677.7,3492.9,2147.3,3490.5,3474.6,3478.3,692.9,944.1,2027.4,1256.9,1210.6,950.9,3.0,-12.0,-1.0,5961.0,-7267.0,11099.0,-7544.0,-56.0,-5.0,-9.0,-9.0,-5.0,4.0,8340.0,-14085.0,578.0,-407.0,-39.0,-2.0,-5.0,1.0
2022-05-23 14:42:52.774471-07:00,1375.7,873.8,1396.7,1219.5,1039.2,955.1,1969.7,1302.5,3473.4,3464.9,1271.2,980.7,1830.4,3467.4,1551.5,1513.4,3478.3,3466.1,1633.1,2079.5,2674.4,3488.0,2135.1,3484.4,3474.6,3478.3,692.9,929.6,2017.4,1231.0,1204.4,952.6,-2.0,22.0,-11.0,5961.0,-7250.0,11108.0,-7546.0,45.0,31.0,32.0,-5.0,-5.0,15.0,8347.0,-14081.0,580.0,-405.0,37.0,0.0,12.0,1.0
2022-05-23 14:42:52.834789-07:00,1375.7,873.8,1396.7,1219.5,1035.7,953.4,1959.8,1303.4,3473.4,3464.9,1271.2,980.7,1817.8,3460.1,1555.3,1510.6,3467.4,3467.4,1620.9,2070.5,2674.4,3488.0,2135.1,3484.4,3480.7,3472.2,694.6,939.8,2017.4,1231.0,1204.4,952.6,0.0,3.0,-6.0,5956.0,-7254.0,11108.0,-7547.0,-31.0,4.0,-27.0,-6.0,0.0,6.0,8344.0,-14082.0,584.0,-403.0,-35.0,1.0,5.0,1.0
2022-05-23 14:42:52.924470-07:00,1376.6,873.8,1389.4,1216.8,1035.7,953.4,1959.8,1303.4,3467.4,3463.7,1263.1,978.2,1817.8,3460.1,1555.3,1510.6,3467.4,3467.4,1620.9,2070.5,2679.9,3491.7,2138.2,3489.2,3480.7,3472.2,694.6,939.8,2007.4,1223.9,1186.7,950.9,-5.0,7.0,-5.0,5951.0,-7242.0,11104.0,-7567.0,95.0,77.0,9.0,-5.0,-7.0,13.0,8353.0,-14077.0,584.0,-402.0,68.0,-5.0,-3.0,1.0
2022-05-23 14:42:52.926903-07:00,1376.6,873.8,1389.4,1216.8,1025.4,950.0,1943.0,1304.3,3467.4,3463.7,1263.1,978.2,1816.8,3467.4,1540.3,1506.9,3475.9,3485.6,1623.7,2067.5,2679.9,3491.7,2138.2,3489.2,3464.9,3469.8,699.5,933.0,2007.4,1223.9,1186.7,950.9,-8.0,8.0,-7.0,5943.0,-7227.0,11097.0,-7600.0,31.0,54.0,-41.0,-10.0,-2.0,10.0,8374.0,-14065.0,584.0,-401.0,21.0,1.0,-5.0,1.0
2022-05-23 14:42:52.984808-07:00,1371.2,872.1,1382.1,1219.5,1025.4,950.0,1943.0,1304.3,3469.8,3473.4,1264.9,979.0,1816.8,3467.4,1540.3,1506.9,3475.9,3485.6,1623.7,2067.5,2709.5,3490.5,2138.2,3485.6,3464.9,3469.8,699.5,933.0,1997.5,1235.5,1181.5,958.5,-1.0,-6.0,-14.0,5927.0,-7234.0,11100.0,-7601.0,-45.0,-3.0,-14.0,-4.0,-5.0,9.0,8371.0,-14066.0,585.0,-400.0,-35.0,9.0,2.0,1.0
2022-05-23 14:42:53.044543-07:00,1371.2,872.1,1382.1,1219.5,1033.2,940.7,1927.2,1315.1,3469.8,3473.4,1264.9,979.0,1821.6,3466.1,1534.8,1495.8,3473.4,3462.5,1629.4,2078.5,2709.5,3490.5,2138.2,3485.6,3475.9,3471.0,692.9,932.2,1997.5,1235.5,1181.5,958.5,3.0,9.0,-6.0,5927.0,-7229.0,11099.0,-7606.0,53.0,18.0,7.0,0.0,-4.0,10.0,8376.0,-14063.0,586.0,-400.0,53.0,-4.0,11.0,1.0
2022-05-23 14:42:53.074634-07:00,1365.7,867.9,1397.6,1213.3,1033.2,940.7,1927.2,1309.7,3468.6,3471.0,1263.1,987.6,1821.6,3466.1,1534.8,1490.3,3473.4,3462.5,1629.4,2078.5,2673.3,3485.6,2135.1,3477.1,3472.2,3471.0,692.9,932.2,1998.5,1216.8,1181.5,949.2,12.0,7.0,-1.0,5926.0,-7236.0,11090.0,-7614.0,5.0,-8.0,-44.0,-3.0,-2.0,4.0,8384.0,-14058.0,586.0,-399.0,-5.0,3.0,5.0,1.0
2022-05-23 14:42:53.194943-07:00,1371.2,867.9,1397.6,1213.3,1019.4,944.9,1930.2,1309.7,3468.6,3471.0,1263.1,987.6,1816.8,3467.4,1525.5,1490.3,3473.4,3479.5,1619.9,2074.5,2673.3,3485.6,2135.1,3488.0,3472.2,3467.4,694.6,927.9,1998.5,1216.8,1181.5,952.6,7.0,-2.0,2.0,5916.0,-7228.0,11072.0,-7655.0,126.0,85.0,-48.0,-8.0,-1.0,7.0,8399.0,-14049.0,586.0,-399.0,63.0,-4.0,4.0,1.0
2022-05-23 14:42:53.196854-07:00,1371.2,874.7,1383.0,1211.5,1019.4,944.9,1930.2,1295.4,3468.6,3464.9,1260.4,966.2,1816.8,3467.4,1525.5,1494.9,3478.3,3479.5,1619.9,2074.5,2678.8,3486.8,2132.1,3488.0,3472.2,3467.4,694.6,927.9,1985.6,1223.0,1187.6,952.6,-10.0,9.0,-12.0,5902.0,-7197.0,11060.0,-7713.0,76.0,92.0,-25.0,-9.0,-3.0,16.0,8420.0,-14037.0,592.0,-398.0,14.0,10.0,18.0,1.0
2022-05-23 14:42:53.224790-07:00,1368.5,874.7,1383.0,1211.5,1031.4,939.0,1933.1,1295.4,3463.7,3464.9,1260.4,966.2,1811.0,3466.1,1528.3,1494.9,3478.3,3475.9,1596.4,2079.5,2678.8,3486.8,2132.1,3481.9,3472.2,3477.1,690.5,933.9,1985.6,1223.0,1187.6,955.1,-2.0,9.0,-14.0,5886.0,-7190.0,11059.0,-7733.0,21.0,28.0,-40.0,-5.0,-3.0,7.0,8419.0,-14037.0,601.0,-395.0,-12.0,8.0,13.0,1.0
2022-05-23 14:42:53.344386-07:00,1368.5,875.5,1376.6,1212.4,1031.4,939.0,1933.1,1317.8,3463.7,3466.1,1256.0,972.2,1811.0,3466.1,1528.3,1492.1,3477.1,3475.9,1596.4,2079.5,2675.5,3490.5,2124.0,3481.9,3478.3,3477.1,690.5,933.9,2007.4,1220.4,1178.8,955.1,-4.0,1.0,-15.0,5878.0,-7189.0,11045.0,-7759.0,77.0,24.0,-39.0,-8.0,0.0,2.0,8430.0,-14031.0,602.0,-393.0,43.0,-13.0,2.0,1.0
2022-05-23 14:42:53.345992-07:00,1360.3,866.3,1376.6,1212.4,1023.7,937.3,1925.2,1317.8,3473.4,3472.2,1256.0,972.2,1798.4,3467.4,1516.2,1492.1,3477.1,3474.6,1619.0,2079.5,2675.5,3490.5,2122.0,3492.9,3478.3,3488.0,688.9,922.0,2007.4,1220.4,1178.8,950.9,7.0,-4.0,6.0,5880.0,-7191.0,11037.0,-7767.0,15.0,-10.0,-6.0,-4.0,-7.0,8.0,8438.0,-14026.0,599.0,-387.0,19.0,-20.0,1.0,1.0
2022-05-23 14:42:53.374617-07:00,1360.3,866.3,1382.1,1200.9,1023.7,937.3,1932.1,1315.1,3473.4,3472.2,1248.8,972.2,1798.4,3467.4,1523.6,1484.7,3471.0,3477.1,1619.0,2079.5,2673.3,3495.3,2122.0,3492.9,3471.0,3473.4,688.9,922.0,1991.5,1222.2,1178.8,950.9,-2.0,12.0,-17.0,5884.0,-7192.0,11024.0,-7782.0,-8.0,-23.0,-38.0,-5.0,4.0,14.0,8448.0,-14020.0,598.0,-384.0,-31.0,-7.0,-3.0,1.0
2022-05-23 14:42:53.434803-07:00,1352.1,870.5,1382.1,1200.9,1027.1,941.5,1932.1,1315.1,3467.4,3478.3,1248.8,972.2,1810.0,3467.4,1523.6,1484.7,3471.0,3477.1,1626.5,2084.6,2673.3,3495.3,2116.9,3481.9,3471.0,3473.4,700.3,925.4,1991.5,1222.2,1179.7,945.8,5.0,-5.0,0.0,5881.0,-7209.0,11027.0,-7764.0,-35.0,-22.0,21.0,-6.0,-8.0,3.0,8436.0,-14028.0,596.0,-379.0,17.0,-12.0,10.0,1.0
2022-05-23 14:42:53.494349-07:00,1352.1,870.5,1375.7,1216.0,1027.1,941.5,1909.5,1317.8,3467.4,3478.3,1254.2,977.3,1810.0,3467.4,1522.7,1489.3,3473.4,3479.5,1626.5,2084.6,2667.8,3492.9,2116.9,3481.9,3472.2,3483.2,700.3,925.4,1986.6,1216.0,1179.7,945.8,0.0,12.0,-13.0,5888.0,-7196.0,11030.0,-7767.0,8.0,-2.0,19.0,-5.0,0.0,8.0,8444.0,-14023.0,599.0,-376.0,-18.0,-2.0,5.0,1.0
2022-05-23 14:42:53.524816-07:00,1356.7,866.3,1375.7,1216.0,1012.5,950.0,1909.5,1317.8,3463.7,3467.4,1254.2,977.3,1799.4,3467.4,1522.7,1489.3,3473.4,3479.5,1615.2,2082.6,2667.8,3492.9,2116.9,3477.1,3472.2,3483.2,688.0,924.5,1986.6,1216.0,1178.8,940.7,0.0,9.0,-7.0,5890.0,-7202.0,11033.0,-7756.0,-9.0,-24.0,-8.0,-6.0,-2.0,7.0,8439.0,-14026.0,599.0,-376.0,-7.0,-3.0,0.0,1.0
2022-05-23 14:42:53.584628-07:00,1356.7,866.3,1374.8,1202.7,1012.5,950.0,1929.2,1308.8,3463.7,3467.4,1254.2,973.9,1799.4,3467.4,1521.8,1484.7,3463.7,3475.9,1615.2,2082.6,2674.4,3494.1,2116.9,3477.1,3468.6,3473.4,688.0,924.5,1979.6,1216.8,1178.8,940.7,0.0,0.0,-11.0,5891.0,-7212.0,11030.0,-7750.0,-11.0,-25.0,-11.0,-6.0,-2.0,9.0,8439.0,-14026.0,599.0,-376.0,-11.0,-9.0,-1.0,1.0
2022-05-23 14:42:53.644796-07:00,1372.1,863.7,1363.0,1202.7,1011.6,934.7,1929.2,1308.8,3471.0,3468.6,1251.5,973.9,1799.4,3466.1,1521.8,1484.7,3463.7,3475.9,1619.9,2093.7,2674.4,3490.5,2116.9,3490.5,3468.6,3473.4,687.2,923.7,1979.6,1215.1,1167.4,951.7,7.0,-4.0,2.0,5896.0,-7224.0,11030.0,-7734.0,-16.0,-33.0,7.0,-7.0,-4.0,7.0,8434.0,-14029.0,598.0,-375.0,29.0,-10.0,4.0,1.0
2022-05-23 14:42:53.674442-07:00,1372.1,863.7,1363.0,1206.2,1011.6,935.6,1914.4,1316.9,3471.0,3468.6,1251.5,974.8,1799.4,3473.4,1502.3,1483.8,3472.2,3471.0,1611.5,2093.7,2706.2,3490.5,2116.9,3490.5,3472.2,3468.6,688.9,923.7,1982.6,1215.1,1167.4,951.7,0.0,14.0,-7.0,5907.0,-7216.0,11026.0,-7739.0,12.0,-11.0,14.0,-3.0,-1.0,14.0,8445.0,-14022.0,597.0,-374.0,8.0,-2.0,-2.0,1.0
2022-05-23 14:42:53.735436-07:00,1357.6,856.2,1372.1,1206.2,1016.8,935.6,1914.4,1316.9,3471.0,3468.6,1251.5,974.8,1801.3,3473.4,1502.3,1483.8,3472.2,3471.0,1611.5,2084.6,2706.2,3488.0,2104.8,3486.8,3472.2,3468.6,688.9,918.6,1982.6,1217.7,1187.6,956.8,-8.0,7.0,-4.0,5910.0,-7221.0,11020.0,-7740.0,15.0,-11.0,-21.0,-11.0,-6.0,10.0,8446.0,-14021.0,597.0,-374.0,8.0,1.0,-7.0,1.0
2022-05-23 14:42:53.766172-07:00,1357.6,856.2,1372.1,1208.9,1016.8,938.1,1936.1,1317.8,3471.0,3468.6,1251.5,971.3,1801.3,3471.0,1512.5,1473.6,3475.9,3473.4,1620.9,2084.6,2676.6,3488.0,2104.8,3486.8,3469.8,3469.8,688.9,918.6,1971.7,1217.7,1187.6,956.8,2.0,0.0,-6.0,5913.0,-7226.0,11015.0,-7741.0,-7.0,1.0,0.0,-8.0,-3.0,9.0,8446.0,-14021.0,597.0,-374.0,-5.0,-4.0,-3.0,1.0
2022-05-23 14:42:53.825219-07:00,1363.0,872.1,1374.8,1208.9,1012.5,938.1,1936.1,1317.8,3469.8,3468.6,1251.5,971.3,1803.2,3471.0,1512.5,1473.6,3475.9,3473.4,1620.9,2068.5,2676.6,3495.3,2107.8,3477.1,3469.8,3469.8,688.9,923.7,1971.7,1212.4,1170.0,949.2,2.0,5.0,-12.0,5920.0,-7224.0,11021.0,-7730.0,-21.0,-29.0,33.0,-3.0,0.0,4.0,8446.0,-14021.0,597.0,-374.0,-7.0,-3.0,2.0,1.0
2022-05-23 14:42:53.884773-07:00,1363.0,872.1,1374.8,1200.0,1014.2,937.3,1911.5,1326.8,3469.8,3468.6,1251.5,973.1,1796.5,3467.4,1514.3,1470.0,3474.6,3462.5,1606.8,2075.5,2679.9,3495.3,2107.8,3477.1,3480.7,3473.4,694.6,922.8,1975.6,1212.4,1170.0,949.2,1.0,-8.0,-6.0,5931.0,-7235.0,11029.0,-7699.0,-67.0,-76.0,35.0,-5.0,-8.0,6.0,8438.0,-14026.0,597.0,-374.0,8.0,-6.0,7.0,1.0
2022-05-23 14:42:53.915340-07:00,1356.7,871.3,1371.2,1189.4,1014.2,937.3,1911.5,1326.8,3472.2,3468.6,1256.0,973.1,1796.5,3467.4,1514.3,1470.0,3474.6,3462.5,1606.8,2075.5,2676.6,3488.0,2103.7,3500.2,3480.7,3473.4,694.6,922.8,1974.6,1202.7,1167.4,957.7,1.0,17.0,-8.0,5955.0,-7238.0,11025.0,-7684.0,10.0,-62.0,8.0,-5.0,1.0,12.0,8448.0,-14020.0,597.0,-374.0,-7.0,-6.0,-8.0,1.0
2022-05-23 14:42:53.975019-07:00,1356.7,871.3,1371.2,1189.4,1015.1,945.8,1964.7,1330.5,3472.2,3468.6,1256.0,973.1,1801.3,3469.8,1515.3,1481.9,3480.7,3473.4,1609.6,2082.6,2676.6,3488.0,2103.7,3500.2,3477.1,3472.2,692.9,928.8,1974.6,1202.7,1167.4,957.7,0.0,1.0,6.0,5961.0,-7263.0,11023.0,-7658.0,-57.0,-42.0,-17.0,-10.0,-7.0,15.0,8439.0,-14026.0,592.0,-376.0,-24.0,-9.0,-16.0,1.0
2022-05-23 14:42:54.034796-07:00,1356.7,863.7,1361.2,1199.1,1015.1,945.8,1964.7,1330.5,3468.6,3464.9,1289.1,991.9,1801.3,3469.8,1515.3,1481.9,3480.7,3473.4,1609.6,2082.6,2675.5,3490.5,2107.8,3486.8,3477.1,3472.2,692.9,928.8,1969.7,1219.5,1170.0,950.0,-1.0,0.0,-8.0,5968.0,-7277.0,11017.0,-7648.0,-10.0,-36.0,-5.0,-6.0,-5.0,12.0,8437.0,-14027.0,591.0,-377.0,-16.0,-3.0,-6.0,1.0
2022-05-23 14:42:54.065278-07:00,1356.7,863.7,1361.2,1199.1,1015.9,941.5,1953.9,1313.3,3468.6,3464.9,1289.1,991.9,1792.6,3472.2,1512.5,1482.9,3472.2,3472.2,1619.9,2080.6,2675.5,3490.5,2107.8,3486.8,3474.6,3481.9,686.4,927.1,1969.7,1219.5,1170.0,950.0,4.0,4.0,6.0,5977.0,-7284.0,11012.0,-7641.0,19.0,-17.0,-2.0,-5.0,-7.0,14.0,8437.0,-14027.0,591.0,-377.0,13.0,-1.0,3.0,1.0
2022-05-23 14:42:54.125252-07:00,1350.3,856.2,1377.5,1215.1,1015.9,941.5,1953.9,1314.2,3472.2,3473.4,1294.5,991.9,1792.6,3472.2,1512.5,1486.6,3468.6,3472.2,1619.9,2080.6,2674.4,3489.2,2070.5,3486.8,3467.4,3481.9,686.4,927.1,1963.7,1217.7,1170.0,949.2,-7.0,7.0,-18.0,5989.0,-7285.0,11003.0,-7644.0,-8.0,-50.0,5.0,-9.0,0.0,11.0,8440.0,-14025.0,591.0,-377.0,-20.0,-5.0,1.0,1.0
2022-05-23 14:42:54.184845-07:00,1346.7,856.2,1377.5,1215.1,1015.9,962.0,1960.8,1314.2,3468.6,3473.4,1294.5,991.9,1787.8,3466.1,1532.0,1486.6,3468.6,3477.1,1612.4,2081.6,2674.4,3489.2,2070.5,3483.2,3467.4,3488.0,697.0,922.0,1963.7,1217.7,1170.0,953.4,5.0,-3.0,5.0,6003.0,-7296.0,11003.0,-7623.0,14.0,-27.0,14.0,-4.0,-8.0,13.0,8435.0,-14028.0,590.0,-375.0,21.0,-11.0,-7.0,1.0
2022-05-23 14:42:54.215301-07:00,1346.7,868.8,1387.5,1222.2,1015.9,962.0,1960.8,1303.4,3468.6,3474.6,1305.2,991.0,1787.8,3466.1,1532.0,1484.7,3469.8,3477.1,1612.4,2081.6,2675.5,3497.8,2068.5,3483.2,3474.6,3488.0,697.0,922.0,1962.8,1237.3,1185.9,953.4,0.0,12.0,-3.0,6015.0,-7293.0,10993.0,-7631.0,2.0,-16.0,1.0,-6.0,-6.0,12.0,8444.0,-14023.0,588.0,-373.0,1.0,-8.0,-3.0,1.0
2022-05-23 14:42:54.305418-07:00,1345.8,868.8,1387.5,1222.2,1017.6,971.3,1951.9,1303.4,3471.0,3474.6,1305.2,991.0,1794.5,3473.4,1536.6,1484.7,3469.8,3466.1,1613.4,2072.5,2675.5,3497.8,2068.5,3492.9,3474.6,3467.4,694.6,922.8,1962.8,1237.3,1185.9,950.0,-3.0,-1.0,-2.0,6019.0,-7299.0,10991.0,-7624.0,14.0,-27.0,-3.0,-8.0,-2.0,9.0,8443.0,-14024.0,588.0,-373.0,14.0,8.0,9.0,1.0
2022-05-23 14:42:54.334820-07:00,1345.8,854.5,1389.4,1200.9,1017.6,971.3,1951.9,1312.4,3471.0,3467.4,1293.6,991.0,1794.5,3473.4,1536.6,1491.2,3473.4,3466.1,1613.4,2072.5,2674.4,3486.8,2055.4,3492.9,3483.2,3467.4,694.6,922.8,1967.7,1231.0,1184.1,950.0,0.0,15.0,-15.0,6031.0,-7308.0,10986.0,-7613.0,-48.0,-65.0,10.0,-8.0,-3.0,6.0,8439.0,-14026.0,588.0,-373.0,-39.0,2.0,-2.0,1.0
2022-05-23 14:42:54.365350-07:00,1348.5,854.5,1389.4,1200.9,1015.1,970.5,1951.9,1312.4,3464.9,3467.4,1293.6,991.0,1792.6,3475.9,1541.3,1491.2,3473.4,3483.2,1624.7,2079.5,2674.4,3486.8,2055.4,3491.7,3483.2,3477.1,692.1,924.5,1967.7,1231.0,1184.1,942.4,-3.0,-2.0,5.0,6038.0,-7317.0,10985.0,-7600.0,57.0,-26.0,-17.0,-4.0,-7.0,15.0,8438.0,-14027.0,586.0,-373.0,43.0,-4.0,-8.0,1.0
2022-05-23 14:42:54.424950-07:00,1348.5,868.8,1399.4,1219.5,1015.1,970.5,1934.1,1311.5,3464.9,3471.0,1296.3,980.7,1792.6,3475.9,1543.1,1486.6,3473.4,3475.9,1624.7,2079.5,2674.4,3491.7,2043.4,3491.7,3466.1,3472.2,692.1,924.5,1959.8,1249.7,1192.9,942.4,-7.0,10.0,-15.0,6061.0,-7330.0,10967.0,-7597.0,-19.0,-110.0,-9.0,-4.0,-1.0,12.0,8445.0,-14023.0,583.0,-372.0,-17.0,-16.0,-12.0,1.0
2022-05-23 14:42:54.484963-07:00,1339.5,856.2,1399.4,1219.5,1015.1,977.3,1934.1,1311.5,3466.1,3475.9,1296.3,980.7,1779.1,3461.3,1543.1,1486.6,3473.4,3475.9,1619.9,2077.5,2674.4,3491.7,2040.4,3495.3,3466.1,3472.2,697.9,917.7,1959.8,1249.7,1225.7,953.4,10.0,-5.0,12.0,6091.0,-7355.0,10951.0,-7570.0,27.0,-59.0,-2.0,-8.0,-14.0,12.0,8450.0,-14021.0,574.0,-365.0,68.0,-29.0,-11.0,1.0
2022-05-23 14:42:54.515304-07:00,1339.5,856.2,1396.7,1246.2,1015.1,977.3,1935.1,1296.3,3466.1,3475.9,1289.1,986.7,1779.1,3461.3,1637.9,1519.9,3478.3,3481.9,1619.9,2077.5,2674.4,3495.3,2040.4,3495.3,3472.2,3481.9,697.9,917.7,1967.7,1303.4,1225.7,953.4,-13.0,1.0,52.0,6115.0,-7327.0,10917.0,-7627.0,277.0,80.0,-39.0,-7.0,-7.0,10.0,8518.0,-13980.0,570.0,-364.0,247.0,4.0,-2.0,1.0
2022-05-23 14:42:54.574685-07:00,1329.6,857.9,1396.7,1246.2,1007.3,1014.2,1935.1,1296.3,3467.4,3474.6,1289.1,986.7,1787.8,3468.6,1637.9,1519.9,3478.3,3481.9,1600.2,2082.6,2674.4,3495.3,2068.5,3488.0,3472.2,3481.9,717.5,927.1,1967.7,1303.4,1500.4,955.1,-35.0,46.0,-69.0,6140.0,-7324.0,10860.0,-7692.0,64.0,-144.0,-135.0,-8.0,-3.0,8.0,8586.0,-13938.0,563.0,-370.0,114.0,-2.0,-34.0,1.0
2022-05-23 14:42:54.634726-07:00,1329.6,857.9,1755.0,1555.3,1007.3,1014.2,1957.8,1316.9,3467.4,3474.6,1471.8,1120.0,1787.8,3468.6,2025.4,1853.7,3464.9,3472.2,1600.2,2082.6,2687.5,3491.7,2068.5,3488.0,3467.4,3475.9,717.5,927.1,1993.5,1567.4,1500.4,955.1,22.0,-41.0,-22.0,6183.0,-7434.0,10790.0,-7649.0,75.0,-341.0,-138.0,-3.0,-11.0,-4.0,8621.0,-13918.0,527.0,-365.0,203.0,-85.0,-75.0,1.0
2022-05-23 14:42:54.665207-07:00,1320.5,865.4,1835.2,1555.3,1030.6,1113.0,1957.8,1316.9,3460.1,3468.6,1598.3,1120.0,1857.6,3472.2,2025.4,1853.7,3464.9,3472.2,1623.7,2095.7,2687.5,3496.6,2047.4,3490.5,3467.4,3475.9,769.5,936.4,1993.5,1588.9,1482.9,909.3,-18.0,18.0,-9.0,6312.0,-7488.0,10651.0,-7686.0,296.0,-363.0,-147.0,-10.0,-4.0,35.0,8759.0,-13833.0,481.0,-356.0,366.0,-70.0,-66.0,1.0
2022-05-23 14:42:54.725190-07:00,1320.5,865.4,1835.2,1674.8,1030.6,1113.0,1976.6,1322.3,3460.1,3468.6,1598.3,1242.6,1857.6,3471.0,2087.6,1957.8,3471.0,3477.1,1620.9,2095.7,2683.2,3496.6,2047.4,3490.5,3474.6,3477.1,789.4,936.4,2031.4,1588.9,1482.9,909.3,50.0,-38.0,-24.0,6406.0,-7610.0,10559.0,-7615.0,-193.0,-401.0,-24.0,-3.0,18.0,-19.0,8820.0,-13796.0,438.0,-335.0,68.0,-136.0,-49.0,1.0
2022-05-23 14:42:54.814872-07:00,1332.3,857.9,1744.5,1674.8,1053.9,1113.0,1976.6,1322.3,3472.2,3475.9,1620.9,1242.6,1914.4,3471.0,2087.6,1957.8,3471.0,3477.1,1620.9,2097.7,2683.2,3494.1,2055.4,3489.2,3474.6,3477.1,789.4,944.9,2031.4,1511.5,1404.0,945.8,-65.0,34.0,33.0,6458.0,-7539.0,10564.0,-7635.0,284.0,39.0,116.0,-13.0,-20.0,70.0,8949.0,-13715.0,397.0,-302.0,460.0,-61.0,-17.0,1.0
2022-05-23 14:42:54.816133-07:00,1332.3,857.9,1744.5,1611.5,1053.9,1113.0,1968.7,1392.1,3472.2,3475.9,1620.9,1273.0,1914.4,3462.5,2001.5,1905.6,3481.9,3469.8,1622.8,2097.7,2682.1,3494.1,2055.4,3489.2,3477.1,3475.9,798.5,944.9,2043.4,1511.5,1404.0,945.8,44.0,31.0,-56.0,6487.0,-7617.0,10524.0,-7587.0,-171.0,-230.0,-172.0,-8.0,5.0,-22.0,8981.0,-13694.0,380.0,-308.0,-102.0,-11.0,-51.0,1.0
2022-05-23 14:42:54.874836-07:00,1316.0,868.8,1670.1,1611.5,1065.1,1113.0,1968.7,1392.1,3472.2,3469.8,1616.2,1273.0,1971.7,3462.5,2001.5,1905.6,3481.9,3469.8,1622.8,2120.9,2682.1,3477.1,2043.4,3486.8,3477.1,3475.9,798.5,967.1,2043.4,1455.2,1373.0,955.1,5.0,-27.0,-14.0,6534.0,-7586.0,10494.0,-7620.0,436.0,0.0,102.0,-4.0,-31.0,38.0,9076.0,-13633.0,362.0,-298.0,433.0,-63.0,18.0,1.0
2022-05-23 14:42:54.934781-07:00,1316.0,868.8,1670.1,1584.2,1065.1,1092.1,1983.6,1573.0,3472.2,3469.8,1616.2,1273.9,1971.7,3471.0,1942.0,1880.1,3479.5,3475.9,1622.8,2120.9,2683.2,3477.1,2043.4,3486.8,3478.3,3464.9,793.5,967.1,2052.4,1455.2,1373.0,955.1,-25.0,23.0,-24.0,6641.0,-7507.0,10480.0,-7625.0,-23.0,-174.0,278.0,-10.0,13.0,29.0,9160.0,-13577.0,358.0,-276.0,16.0,-35.0,33.0,1.0
2022-05-23 14:42:54.965237-07:00,1335.9,852.8,1651.1,1588.9,1099.0,1092.1,1983.6,1573.0,3472.2,3462.5,1592.7,1271.2,2001.5,3471.0,1942.0,1880.1,3479.5,3475.9,1622.8,2106.8,2693.0,3497.8,2002.5,3491.7,3478.3,3464.9,793.5,986.7,2050.4,1442.4,1331.4,992.7,25.0,-5.0,39.0,6677.0,-7528.0,10488.0,-7563.0,-49.0,-43.0,-39.0,-3.0,-6.0,12.0,9112.0,-13609.0,363.0,-271.0,-195.0,14.0,-8.0,1.0
2022-05-23 14:42:55.024898-07:00,1335.9,852.8,1651.1,1588.9,1103.4,1070.3,1956.8,1612.4,3472.2,3462.5,1592.7,1271.2,1987.5,3463.7,1905.6,1852.8,3478.3,3472.2,1607.7,2124.0,2693.0,3497.8,2002.5,3491.7,3473.4,3472.2,776.9,986.7,2050.4,1442.4,1331.4,992.7,-10.0,-3.0,-10.0,6706.0,-7500.0,10465.0,-7596.0,192.0,-29.0,58.0,-6.0,-1.0,13.0,9113.0,-13607.0,378.0,-277.0,74.0,32.0,37.0,1.0
2022-05-23 14:42:55.084865-07:00,1328.7,857.0,1626.5,1581.4,1103.4,1070.3,1956.8,1612.4,3471.0,3472.2,1580.5,1258.7,1987.5,3463.7,1905.6,1852.8,3478.3,3472.2,1607.7,2124.0,2689.7,3481.9,1977.6,3488.0,3473.4,3472.2,776.9,986.7,2039.4,1425.0,1315.1,1031.4,12.0,4.0,-18.0,6720.0,-7479.0,10467.0,-7601.0,-23.0,39.0,45.0,-2.0,-2.0,2.0,9105.0,-13613.0,391.0,-280.0,-53.0,11.0,12.0,1.0
2022-05-23 14:42:55.115344-07:00,1328.7,857.0,1626.5,1581.4,1091.2,1048.7,1931.1,1593.6,3471.0,3472.2,1580.5,1258.7,1962.8,3468.6,1889.9,1841.1,3478.3,3480.7,1616.2,2114.9,2689.7,3481.9,1977.6,3488.0,3474.6,3477.1,762.9,973.1,2039.4,1425.0,1315.1,1031.4,7.0,3.0,-7.0,6712.0,-7476.0,10478.0,-7596.0,-5.0,-3.0,-1.0,-4.0,4.0,8.0,9093.0,-13620.0,393.0,-278.0,-19.0,5.0,-7.0,1.0
2022-05-23 14:42:55.175089-07:00,1307.9,859.5,1617.1,1571.1,1091.2,1048.7,1931.1,1593.6,3468.6,3471.0,1566.5,1253.3,1962.8,3468.6,1889.9,1841.1,3478.3,3480.7,1616.2,2114.9,2679.9,3481.9,1959.8,3494.1,3474.6,3477.1,762.9,973.1,2018.4,1425.0,1313.3,1031.4,-13.0,-5.0,-11.0,6712.0,-7482.0,10480.0,-7588.0,2.0,-44.0,6.0,-8.0,-10.0,20.0,9084.0,-13627.0,394.0,-277.0,-20.0,9.0,2.0,1.0
2022-05-23 14:42:55.234807-07:00,1306.1,859.5,1617.1,1571.1,1085.1,1046.1,1911.5,1572.1,3471.0,3471.0,1566.5,1253.3,1952.9,3461.3,1872.3,1836.2,3467.4,3473.4,1595.5,2116.9,2679.9,3481.9,1959.8,3490.5,3469.8,3471.0,768.7,968.8,2018.4,1425.0,1313.3,1028.8,26.0,1.0,11.0,6723.0,-7471.0,10475.0,-7596.0,51.0,83.0,37.0,-4.0,-2.0,6.0,9084.0,-13627.0,394.0,-276.0,26.0,10.0,5.0,1.0
2022-05-23 14:42:55.265296-07:00,1306.1,852.0,1623.7,1555.3,1085.1,1046.1,1911.5,1553.4,3471.0,3468.6,1568.3,1247.1,1952.9,3461.3,1872.3,1826.5,3479.5,3473.4,1595.5,2116.9,2675.5,3496.6,1945.0,3490.5,3475.9,3471.0,768.7,968.8,2017.4,1411.3,1299.0,1028.8,2.0,5.0,-10.0,6727.0,-7456.0,10480.0,-7601.0,-5.0,-27.0,24.0,-2.0,0.0,13.0,9090.0,-13622.0,402.0,-278.0,-8.0,4.0,23.0,1.0
2022-05-23 14:42:55.324691-07:00,1291.8,852.0,1623.7,1555.3,1083.4,1040.9,1901.6,1553.4,3479.5,3468.6,1568.3,1247.1,1943.0,3467.4,1862.5,1826.5,3479.5,3472.2,1612.4,2113.9,2675.5,3496.6,1945.0,3489.2,3475.9,3480.7,753.8,959.4,2017.4,1411.3,1299.0,1021.9,-3.0,15.0,-1.0,6715.0,-7454.0,10496.0,-7590.0,-49.0,38.0,12.0,-2.0,-3.0,22.0,9079.0,-13630.0,409.0,-273.0,-56.0,7.0,9.0,1.0
2022-05-23 14:42:55.414969-07:00,1291.8,854.5,1609.6,1559.0,1083.4,1040.9,1901.6,1539.4,3479.5,3472.2,1567.4,1239.1,1943.0,3467.4,1862.5,1811.9,3474.6,3472.2,1612.4,2113.9,2665.7,3491.7,1934.1,3489.2,3475.9,3480.7,753.8,959.4,2006.4,1416.7,1299.0,1021.9,4.0,-2.0,0.0,6701.0,-7466.0,10499.0,-7586.0,-17.0,2.0,-39.0,-13.0,-3.0,1.0,9062.0,-13641.0,410.0,-273.0,-37.0,3.0,-5.0,1.0
2022-05-23 14:42:55.444391-07:00,1283.7,854.5,1609.6,1559.0,1069.5,1040.9,1906.6,1539.4,3468.6,3472.2,1567.4,1239.1,1927.2,3462.5,1860.6,1811.9,3474.6,3474.6,1619.9,2106.8,2665.7,3491.7,1934.1,3492.9,3475.9,3478.3,753.8,959.4,2006.4,1416.7,1299.0,1010.8,-5.0,0.0,-12.0,6694.0,-7463.0,10509.0,-7581.0,-48.0,-14.0,28.0,-6.0,-2.0,9.0,9052.0,-13648.0,412.0,-269.0,-51.0,-15.0,16.0,1.0
2022-05-23 14:42:55.474869-07:00,1283.7,852.0,1604.9,1548.7,1069.5,1040.9,1906.6,1552.5,3468.6,3468.6,1554.3,1232.8,1927.2,3462.5,1860.6,1819.7,3472.2,3474.6,1619.9,2106.8,2671.1,3495.3,1940.0,3492.9,3478.3,3478.3,753.8,959.4,1998.5,1411.3,1290.0,1010.8,4.0,3.0,2.0,6700.0,-7464.0,10516.0,-7565.0,-9.0,-18.0,18.0,0.0,-5.0,9.0,9043.0,-13653.0,417.0,-262.0,-2.0,-7.0,11.0,1.0
2022-05-23 14:42:55.534811-07:00,1285.5,852.0,1604.9,1548.7,1068.6,1034.9,1896.7,1552.5,3467.4,3472.2,1554.3,1232.8,1919.3,3472.2,1852.8,1819.7,3472.2,3471.0,1610.5,2109.8,2671.1,3495.3,1924.3,3491.7,3478.3,3468.6,755.4,956.8,1998.5,1411.3,1299.0,1027.1,5.0,0.0,-10.0,6701.0,-7464.0,10513.0,-7569.0,6.0,-7.0,-13.0,4.0,0.0,13.0,9045.0,-13652.0,418.0,-261.0,-16.0,5.0,10.0,1.0
2022-05-23 14:42:55.565407-07:00,1285.5,852.0,1595.5,1544.1,1068.6,1034.9,1904.6,1538.5,3467.4,3472.2,1552.5,1239.1,1919.3,3472.2,1849.8,1812.9,3469.8,3483.2,1610.5,2109.8,2676.6,3490.5,1924.3,3491.7,3477.1,3475.9,755.4,956.8,2005.5,1407.6,1299.0,1027.1,4.0,5.0,0.0,6696.0,-7467.0,10520.0,-7560.0,-32.0,-5.0,9.0,0.0,-4.0,13.0,9036.0,-13658.0,423.0,-258.0,-33.0,1.0,15.0,1.0
2022-05-23 14:42:55.624897-07:00,1272.1,841.9,1595.5,1544.1,1066.9,1030.6,1904.6,1538.5,3475.9,3467.4,1552.5,1239.1,1922.3,3468.6,1849.8,1812.9,3469.8,3483.2,1612.4,2111.8,2676.6,3490.5,1911.5,3484.4,3477.1,3475.9,751.3,961.1,2005.5,1407.6,1281.0,1013.3,-4.0,17.0,-1.0,6689.0,-7469.0,10522.0,-7561.0,-21.0,19.0,-32.0,-10.0,-1.0,13.0,9026.0,-13665.0,428.0,-257.0,-68.0,8.0,-2.0,1.0
2022-05-23 14:42:55.684851-07:00,1272.1,841.9,1601.1,1550.6,1066.9,1030.6,1896.7,1560.9,3475.9,3467.4,1550.6,1239.1,1922.3,3468.6,1842.0,1809.0,3467.4,3472.2,1612.4,2111.8,2673.3,3491.7,1911.5,3484.4,3467.4,3480.7,751.3,961.1,2004.5,1409.4,1281.0,1013.3,-3.0,2.0,-14.0,6661.0,-7489.0,10529.0,-7558.0,-97.0,37.0,-34.0,-13.0,4.0,4.0,8992.0,-13687.0,430.0,-254.0,-140.0,-2.0,0.0,1.0
