Time,P0,P1,P2,P3,P4,P5,P6,P7,P8,P9,P10,P11,P12,P13,P14,P15,P16,P17,P18,P19,P20,P21,P22,P23,P24,P25,P26,P27,P28,P29,P30,P31,ECG,AX0,AY0,AZ0,QW0,QX0,QY0,QZ0,GX0,GY0,GZ0,AX1,AY1,AZ1,QW1,QX1,QY1,QZ1,GX1,GY1,GZ1
2022-05-23 13:35:48.904041-07:00,1238.2,791.0,1124.4,991.9,979.0,919.4,1651.1,1248.0,3468.6,3467.4,1114.7,884.8,1516.2,3472.2,1333.2,1260.4,3475.9,3468.6,1507.8,2055.4,2629.7,3494.1,1774.3,3480.7,3473.4,3472.2,666.0,886.5,1762.7,1052.2,1034.9,873.0,42.0,13.0,-49.0,10042.0,-12775.0,-248.0,2081.0,14.0,-1.0,-82.0,23.0,23.0,-52.0,6537.0,-11929.0,7748.0,-4836.0,-69.0,35.0,-43.0,1.0
2022-05-23 13:35:48.933742-07:00,1238.2,786.9,1121.7,997.9,979.0,919.4,1651.1,1247.1,3468.6,3475.9,1111.2,880.6,1516.2,3472.2,1333.2,1254.2,3469.8,3468.6,1507.8,2055.4,2636.2,3489.2,1784.9,3480.7,3471.0,3472.2,666.0,886.5,1781.0,1055.6,1034.0,873.0,27.0,-43.0,-23.0,10041.0,-12780.0,-282.0,2050.0,-33.0,6.0,-87.0,29.0,-13.0,-27.0,6510.0,-11950.0,7741.0,-4831.0,-7.0,-21.0,-32.0,1.0
2022-05-23 13:35:48.964440-07:00,1239.9,781.1,1121.7,997.9,971.3,926.2,1648.3,1247.1,3463.7,3469.8,1111.2,880.6,1506.9,3467.4,1315.1,1254.2,3469.8,3468.6,1503.2,2057.4,2636.2,3489.2,1777.2,3486.8,3471.0,3468.6,666.8,891.5,1781.0,1055.6,1028.8,871.3,-40.0,-20.0,-10.0,10065.0,-12762.0,-299.0,2048.0,98.0,-48.0,-13.0,-24.0,-20.0,11.0,6541.0,-11949.0,7715.0,-4834.0,115.0,-62.0,-15.0,1.0
2022-05-23 13:35:48.965307-07:00,1239.9,781.1,1118.2,990.2,971.3,926.2,1646.4,1252.4,3463.7,3469.8,1106.0,873.8,1506.9,3467.4,1312.4,1247.1,3472.2,3468.6,1503.2,2057.4,2628.6,3489.2,1777.2,3486.8,3471.0,3474.6,666.8,891.5,1764.6,1052.2,1028.8,871.3,-6.0,38.0,12.0,10122.0,-12709.0,-320.0,2090.0,233.0,-128.0,4.0,-18.0,19.0,-12.0,6600.0,-11925.0,7687.0,-4855.0,190.0,-29.0,-4.0,1.0
2022-05-23 13:35:48.966243-07:00,1247.1,782.7,1118.2,990.2,973.1,925.4,1646.4,1252.4,3474.6,3464.9,1106.0,873.8,1505.1,3464.9,1312.4,1247.1,3472.2,3468.6,1508.8,2051.4,2628.6,3489.2,1774.3,3479.5,3471.0,3474.6,663.6,889.8,1764.6,1052.2,1021.9,884.8,4.0,-11.0,-29.0,10166.0,-12673.0,-344.0,2088.0,23.0,11.0,-96.0,4.0,0.0,-30.0,6628.0,-11912.0,7674.0,-4869.0,-8.0,4.0,5.0,1.0
2022-05-23 13:35:49.054546-07:00,1247.1,782.7,1100.8,985.0,973.1,925.4,1636.0,1248.0,3474.6,3464.9,1097.3,878.9,1505.1,3464.9,1306.1,1247.1,3474.6,3471.0,1508.8,2051.4,2633.0,3488.0,1774.3,3479.5,3469.8,3466.1,663.6,889.8,1775.2,1053.0,1021.9,884.8,8.0,-31.0,-49.0,10172.0,-12671.0,-363.0,2069.0,34.0,17.0,-11.0,11.0,2.0,-33.0,6627.0,-11912.0,7681.0,-4861.0,86.0,-36.0,64.0,1.0
2022-05-23 13:35:49.144433-07:00,1245.3,785.2,1100.8,985.0,977.3,922.0,1636.0,1248.0,3460.1,3463.7,1097.3,878.9,1507.8,3464.9,1306.1,1247.1,3474.6,3471.0,1511.5,2057.4,2633.0,3488.0,1765.6,3481.9,3469.8,3466.1,665.2,886.5,1775.2,1053.0,1025.4,828.5,41.0,10.0,-5.0,10197.0,-12647.0,-350.0,2097.0,135.0,-64.0,100.0,19.0,14.0,-18.0,6691.0,-11878.0,7678.0,-4860.0,205.0,-67.0,86.0,1.0
2022-05-23 13:35:49.146625-07:00,1245.3,785.2,1113.9,991.0,977.3,919.4,1647.3,1246.2,3460.1,3463.7,1095.6,871.3,1507.8,3466.1,1299.0,1246.2,3462.5,3474.6,1515.3,2057.4,2634.1,3481.9,1765.6,3481.9,3466.1,3466.1,679.1,886.5,1770.4,1046.1,1025.4,828.5,19.0,-33.0,15.0,10222.0,-12622.0,-314.0,2130.0,45.0,-13.0,101.0,28.0,-30.0,20.0,6764.0,-11846.0,7668.0,-4855.0,164.0,-101.0,99.0,1.0
2022-05-23 13:35:49.203886-07:00,1242.6,793.5,1111.2,991.0,972.2,919.4,1647.3,1246.2,3464.9,3473.4,1105.1,871.3,1515.3,3466.1,1299.0,1246.2,3462.5,3474.6,1515.3,2055.4,2634.1,3495.3,1768.5,3489.2,3466.1,3466.1,679.1,886.5,1770.4,1054.8,1023.7,867.1,27.0,6.0,31.0,10251.0,-12590.0,-295.0,2179.0,121.0,-97.0,121.0,34.0,-2.0,46.0,6859.0,-11803.0,7659.0,-4839.0,160.0,-99.0,115.0,1.0
2022-05-23 13:35:49.264197-07:00,1242.6,793.5,1111.2,985.9,972.2,924.5,1639.8,1244.4,3464.9,3473.4,1105.1,874.7,1515.3,3457.6,1299.0,1250.6,3478.3,3471.0,1503.2,2055.4,2629.7,3495.3,1768.5,3489.2,3471.0,3467.4,657.9,886.5,1774.3,1054.8,1023.7,867.1,51.0,76.0,66.0,10248.0,-12583.0,-281.0,2237.0,-92.0,-39.0,72.0,30.0,31.0,43.0,6905.0,-11783.0,7664.0,-4815.0,-84.0,-15.0,8.0,1.0
2022-05-23 13:35:49.265594-07:00,1232.8,793.5,1126.1,985.9,981.6,924.5,1639.8,1244.4,3478.3,3473.4,1099.9,874.7,1507.8,3457.6,1299.0,1250.6,3478.3,3471.0,1503.2,2056.4,2629.7,3507.5,1772.3,3494.1,3471.0,3467.4,657.9,879.7,1774.3,1053.9,1024.5,868.8,-3.0,24.0,16.0,10213.0,-12617.0,-294.0,2204.0,-95.0,72.0,-157.0,0.0,-6.0,32.0,6864.0,-11806.0,7662.0,-4819.0,-107.0,67.0,-90.0,1.0
2022-05-23 13:35:49.324455-07:00,1232.8,793.5,1126.1,986.7,981.6,920.3,1642.6,1227.5,3478.3,3473.4,1099.9,878.0,1507.8,3471.0,1306.1,1271.2,3471.0,3468.6,1505.1,2056.4,2630.8,3507.5,1772.3,3494.1,3472.2,3479.5,659.5,879.7,1774.3,1053.9,1024.5,868.8,-42.0,-14.0,-24.0,10203.0,-12634.0,-362.0,2140.0,-44.0,-11.0,-206.0,-39.0,-6.0,-5.0,6816.0,-11830.0,7652.0,-4846.0,-49.0,51.0,-96.0,1.0
2022-05-23 13:35:49.384320-07:00,1227.5,778.6,1112.1,986.7,967.9,920.3,1642.6,1227.5,3469.8,3458.9,1102.5,878.0,1506.9,3471.0,1306.1,1271.2,3471.0,3468.6,1505.1,2062.5,2630.8,3495.3,1772.3,3492.9,3472.2,3479.5,659.5,885.6,1774.3,1050.4,1030.6,877.2,-27.0,-15.0,-18.0,10202.0,-12638.0,-418.0,2114.0,-14.0,-29.0,-129.0,-43.0,0.0,-23.0,6801.0,-11845.0,7640.0,-4848.0,-15.0,-22.0,-55.0,1.0
2022-05-23 13:35:49.414366-07:00,1227.5,778.6,1112.1,1011.6,973.9,920.3,1630.3,1239.1,3469.8,3458.9,1102.5,878.0,1510.6,3467.4,1308.8,1249.7,3477.1,3474.6,1506.9,2049.4,2627.5,3495.3,1772.3,3492.9,3479.5,3477.1,654.6,880.6,1780.1,1050.4,1030.6,877.2,-23.0,-27.0,-17.0,10198.0,-12644.0,-436.0,2092.0,-14.0,26.0,-52.0,-11.0,-17.0,-4.0,6811.0,-11859.0,7628.0,-4819.0,-9.0,-86.0,-6.0,1.0
2022-05-23 13:35:49.773525-07:00,1239.1,780.3,1104.3,985.0,973.9,920.3,1630.3,1239.1,3457.6,3467.4,1102.5,876.4,1510.6,3467.4,1308.8,1249.7,3477.1,3474.6,1506.9,2049.4,2626.5,3488.0,1762.7,3486.8,3479.5,3477.1,654.6,880.6,1778.1,1048.7,1022.8,867.1,0.0,-33.0,2.0,10196.0,-12645.0,-438.0,2096.0,10.0,-32.0,46.0,8.0,-16.0,9.0,6848.0,-11861.0,7620.0,-4774.0,29.0,-144.0,89.0,1.0
2022-05-23 13:35:49.774416-07:00,1239.1,780.3,1104.3,985.0,972.2,922.0,1629.4,1224.8,3457.6,3467.4,1102.5,876.4,1512.5,3466.1,1291.8,1246.2,3478.3,3469.8,1495.8,2038.4,2626.5,3488.0,1762.7,3486.8,3469.8,3474.6,658.7,871.3,1778.1,1048.7,1022.8,867.1,11.0,-6.0,11.0,10187.0,-12644.0,-415.0,2151.0,-36.0,-75.0,172.0,5.0,-2.0,2.0,6899.0,-11847.0,7636.0,-4710.0,-3.0,-130.0,168.0,1.0
2022-05-23 13:35:49.777683-07:00,1223.9,796.9,1108.6,990.2,972.2,922.0,1629.4,1224.8,3469.8,3464.9,1099.0,883.9,1512.5,3466.1,1291.8,1246.2,3478.3,3469.8,1495.8,2038.4,2627.5,3494.1,1768.5,3484.4,3469.8,3474.6,658.7,871.3,1773.3,1059.9,1020.2,876.4,20.0,43.0,4.0,10171.0,-12650.0,-363.0,2202.0,-4.0,14.0,147.0,6.0,28.0,1.0,6939.0,-11825.0,7670.0,-4652.0,14.0,-63.0,147.0,1.0
2022-05-23 13:35:49.778516-07:00,1223.9,796.9,1108.6,990.2,973.1,918.6,1640.7,1234.6,3469.8,3464.9,1099.0,883.9,1506.9,3472.2,1306.1,1248.8,3471.0,3467.4,1500.4,2046.4,2627.5,3494.1,1768.5,3484.4,3478.3,3471.0,670.1,878.0,1773.3,1059.9,1020.2,876.4,4.0,57.0,6.0,10166.0,-12654.0,-323.0,2204.0,1.0,68.0,15.0,0.0,14.0,26.0,6950.0,-11812.0,7690.0,-4634.0,8.0,17.0,20.0,1.0
2022-05-23 13:35:49.787338-07:00,1239.1,791.0,1097.3,991.9,973.1,918.6,1640.7,1227.5,3468.6,3478.3,1099.0,868.8,1506.9,3472.2,1306.1,1250.6,3475.9,3467.4,1500.4,2046.4,2614.5,3486.8,1763.7,3489.2,3463.7,3471.0,670.1,878.0,1771.4,1060.8,1028.8,875.5,-9.0,-3.0,25.0,10171.0,-12656.0,-330.0,2172.0,-4.0,55.0,-84.0,-14.0,-9.0,20.0,6947.0,-11809.0,7685.0,-4655.0,0.0,44.0,-50.0,1.0
2022-05-23 13:35:49.863448-07:00,1232.8,781.1,1111.2,990.2,967.9,915.2,1640.7,1233.7,3466.1,3472.2,1112.1,880.6,1506.9,3473.4,1301.6,1245.3,3469.8,3469.8,1506.9,2049.4,2624.3,3486.8,1760.8,3486.8,3479.5,3474.6,661.9,880.6,1769.5,1047.0,1019.4,874.7,9.0,-1.0,-15.0,10153.0,-12684.0,-269.0,2092.0,-83.0,82.0,53.0,8.0,0.0,-7.0,6921.0,-11806.0,7711.0,-4658.0,-71.0,-2.0,47.0,1.0
2022-05-23 13:35:49.866530-07:00,1232.8,776.1,1109.5,982.5,967.9,915.2,1640.7,1231.9,3466.1,3461.3,1099.9,870.5,1506.9,3473.4,1301.6,1253.3,3467.4,3469.8,1506.9,2049.4,2627.5,3497.8,1759.8,3486.8,3471.0,3474.6,661.9,880.6,1762.7,1047.8,1028.0,874.7,34.0,15.0,7.0,10128.0,-12706.0,-244.0,2088.0,-44.0,28.0,54.0,27.0,7.0,7.0,6912.0,-11806.0,7726.0,-4645.0,-20.0,-8.0,31.0,1.0
2022-05-23 13:35:50.074851-07:00,1217.7,791.0,1109.5,982.5,989.3,911.8,1619.0,1231.9,3463.7,3467.4,1099.9,870.5,1511.5,3469.8,1301.6,1253.3,3467.4,3468.6,1506.0,2038.4,2627.5,3497.8,1756.0,3486.8,3471.0,3473.4,663.6,877.2,1762.7,1047.8,1021.9,872.1,8.0,28.0,10.0,10120.0,-12715.0,-241.0,2072.0,-48.0,34.0,-37.0,19.0,13.0,16.0,6900.0,-11812.0,7721.0,-4657.0,-46.0,34.0,-43.0,1.0
2022-05-23 13:35:50.075703-07:00,1217.7,791.0,1112.1,996.2,989.3,911.8,1629.4,1242.6,3463.7,3467.4,1093.8,877.2,1511.5,3469.8,1300.7,1251.5,3471.0,3473.4,1506.0,2038.4,2625.4,3495.3,1756.0,3486.8,3472.2,3478.3,663.6,877.2,1764.6,1049.6,1021.9,872.1,-20.0,11.0,2.0,10106.0,-12731.0,-259.0,2039.0,-34.0,44.0,-82.0,-22.0,0.0,6.0,6866.0,-11830.0,7716.0,-4670.0,-41.0,39.0,-71.0,1.0
2022-05-23 13:35:50.076606-07:00,1229.3,781.9,1112.1,996.2,973.9,921.1,1629.4,1242.6,3472.2,3474.6,1093.8,877.2,1511.5,3471.0,1300.7,1251.5,3471.0,3473.4,1507.8,2042.4,2625.4,3495.3,1764.6,3489.2,3472.2,3478.3,653.8,880.6,1764.6,1049.6,1026.3,869.6,-26.0,-21.0,-13.0,10102.0,-12738.0,-271.0,2011.0,-4.0,15.0,-72.0,-25.0,-9.0,0.0,6849.0,-11845.0,7700.0,-4683.0,0.0,9.0,-75.0,1.0
2022-05-23 13:35:50.078675-07:00,1229.3,781.9,1109.5,987.6,973.9,921.1,1629.4,1231.9,3472.2,3474.6,1099.0,869.6,1511.5,3471.0,1299.8,1250.6,3457.6,3474.6,1507.8,2042.4,2617.8,3495.3,1764.6,3489.2,3467.4,3479.5,653.8,880.6,1782.9,1051.3,1026.3,869.6,11.0,-14.0,-9.0,10120.0,-12723.0,-284.0,2011.0,73.0,-33.0,-2.0,5.0,-6.0,-4.0,6863.0,-11846.0,7679.0,-4694.0,66.0,-41.0,-17.0,1.0
2022-05-23 13:35:50.313273-07:00,1223.0,783.6,1109.5,987.6,973.9,913.5,1629.4,1231.9,3463.7,3469.8,1099.0,869.6,1508.8,3467.4,1299.8,1250.6,3457.6,3474.6,1500.4,2038.4,2617.8,3495.3,1757.0,3492.9,3467.4,3479.5,657.9,877.2,1782.9,1051.3,1021.1,865.4,14.0,-26.0,4.0,10128.0,-12713.0,-279.0,2040.0,34.0,-51.0,87.0,14.0,-7.0,-4.0,6889.0,-11844.0,7667.0,-4682.0,50.0,-71.0,36.0,1.0
2022-05-23 13:35:50.314289-07:00,1223.0,783.6,1098.2,996.2,973.9,913.5,1630.3,1240.8,3463.7,3469.8,1103.4,876.4,1508.8,3467.4,1306.1,1244.4,3473.4,3474.6,1500.4,2038.4,2628.6,3490.5,1757.0,3492.9,3467.4,3473.4,657.9,877.2,1784.9,1043.5,1021.1,865.4,10.0,26.0,12.0,10157.0,-12684.0,-259.0,2080.0,94.0,-43.0,68.0,5.0,8.0,9.0,6938.0,-11822.0,7658.0,-4680.0,99.0,-38.0,41.0,1.0
2022-05-23 13:35:50.315529-07:00,1235.5,778.6,1102.5,996.2,978.2,908.4,1630.3,1240.8,3474.6,3467.4,1097.3,876.4,1506.0,3464.9,1306.1,1244.4,3473.4,3474.6,1506.9,2056.4,2628.6,3494.1,1760.8,3486.8,3467.4,3473.4,658.7,869.6,1784.9,1041.8,1017.6,871.3,-7.0,24.0,23.0,10170.0,-12672.0,-255.0,2093.0,5.0,-3.0,-3.0,-3.0,6.0,19.0,6955.0,-11812.0,7655.0,-4684.0,3.0,8.0,1.0,1.0
2022-05-23 13:35:50.316756-07:00,1235.5,778.6,1102.5,1001.3,978.2,922.8,1622.8,1231.9,3474.6,3467.4,1097.3,875.5,1506.0,3467.4,1299.8,1246.2,3468.6,3472.2,1499.5,2056.4,2631.9,3494.1,1760.8,3486.8,3473.4,3472.2,656.2,869.6,1772.3,1041.8,1017.6,871.3,-15.0,5.0,7.0,10167.0,-12675.0,-260.0,2083.0,-32.0,34.0,-42.0,-14.0,4.0,11.0,6941.0,-11816.0,7660.0,-4685.0,-53.0,31.0,-23.0,1.0
2022-05-23 13:35:50.318685-07:00,1225.7,782.7,1111.2,1001.3,970.5,922.8,1622.8,1231.9,3472.2,3464.9,1090.3,875.5,1510.6,3467.4,1299.8,1246.2,3468.6,3472.2,1499.5,2048.4,2631.9,3481.9,1748.3,3484.4,3473.4,3472.2,656.2,871.3,1772.3,1040.1,1021.9,870.5,0.0,6.0,-18.0,10163.0,-12682.0,-263.0,2064.0,-16.0,23.0,-34.0,-7.0,1.0,-5.0,6923.0,-11825.0,7662.0,-4687.0,-41.0,15.0,-26.0,1.0
2022-05-23 13:35:50.434692-07:00,1225.7,782.7,1111.2,1001.3,970.5,906.7,1626.5,1231.0,3472.2,3464.9,1090.3,874.7,1510.6,3463.7,1301.6,1248.0,3468.6,3468.6,1502.3,2048.4,2624.3,3481.9,1748.3,3484.4,3474.6,3473.4,660.3,871.3,1764.6,1040.1,1021.9,870.5,5.0,-8.0,-19.0,10162.0,-12684.0,-277.0,2051.0,17.0,-5.0,-43.0,4.0,0.0,-12.0,6915.0,-11832.0,7657.0,-4688.0,21.0,-17.0,-27.0,1.0
2022-05-23 13:35:50.435448-07:00,1233.7,798.5,1107.8,1001.3,972.2,906.7,1626.5,1231.0,3466.1,3466.1,1101.7,874.7,1519.0,3463.7,1301.6,1248.0,3468.6,3468.6,1502.3,2026.4,2624.3,3502.7,1757.9,3481.9,3474.6,3473.4,660.3,873.0,1764.6,1053.0,1027.1,869.6,7.0,-2.0,-1.0,10172.0,-12675.0,-293.0,2055.0,17.0,-61.0,-8.0,6.0,1.0,-3.0,6927.0,-11834.0,7643.0,-4689.0,17.0,-33.0,1.0,1.0
2022-05-23 13:35:50.493553-07:00,1233.7,798.5,1107.8,991.9,975.6,909.3,1624.7,1219.5,3466.1,3466.1,1101.7,878.9,1510.6,3467.4,1299.8,1241.7,3475.9,3462.5,1508.8,2051.4,2631.9,3502.7,1757.9,3481.9,3473.4,3477.1,656.2,872.1,1765.6,1053.0,1027.1,869.6,0.0,-5.0,11.0,10167.0,-12676.0,-304.0,2074.0,-18.0,-36.0,24.0,3.0,-5.0,7.0,6936.0,-11836.0,7639.0,-4678.0,1.0,-31.0,23.0,1.0
2022-05-23 13:35:50.524415-07:00,1229.3,786.9,1106.0,992.7,975.6,909.3,1624.7,1219.5,3468.6,3469.8,1097.3,877.2,1510.6,3467.4,1299.8,1241.7,3475.9,3462.5,1508.8,2051.4,2626.5,3491.7,1748.3,3492.9,3473.4,3477.1,656.2,872.1,1767.5,1038.3,1028.0,866.3,1.0,20.0,17.0,10166.0,-12674.0,-300.0,2091.0,-6.0,-14.0,29.0,-1.0,0.0,13.0,6946.0,-11833.0,7642.0,-4665.0,-2.0,-17.0,26.0,1.0
2022-05-23 13:35:50.733323-07:00,1229.3,786.9,1106.0,992.7,967.1,922.0,1625.6,1237.3,3468.6,3469.8,1097.3,877.2,1503.2,3455.2,1301.6,1244.4,3479.5,3478.3,1495.8,2048.4,2626.5,3491.7,1748.3,3492.9,3475.9,3466.1,656.2,868.8,1767.5,1038.3,1028.0,866.3,0.0,8.0,8.0,10161.0,-12677.0,-298.0,2093.0,-23.0,-4.0,-2.0,0.0,1.0,7.0,6947.0,-11832.0,7647.0,-4659.0,-17.0,7.0,-3.0,1.0
2022-05-23 13:35:50.884001-07:00,1229.3,786.9,1115.6,995.3,967.1,922.0,1625.6,1237.3,3468.6,3462.5,1094.7,873.8,1503.2,3455.2,1301.6,1244.4,3479.5,3478.3,1495.8,2048.4,2626.5,3484.4,1748.3,3484.4,3475.9,3466.1,656.2,868.8,1771.4,1038.3,1021.1,872.1,-2.0,7.0,2.0,10157.0,-12682.0,-302.0,2085.0,-3.0,20.0,-39.0,0.0,0.0,9.0,6936.0,-11835.0,7649.0,-4663.0,-9.0,29.0,-27.0,1.0
2022-05-23 13:35:50.885581-07:00,1229.3,786.9,1115.6,995.3,973.9,900.0,1626.5,1240.8,3468.6,3462.5,1094.7,873.8,1513.4,3462.5,1299.0,1241.7,3469.8,3472.2,1500.4,2055.4,2626.5,3484.4,1748.3,3484.4,3473.4,3478.3,661.1,869.6,1771.4,1038.3,1021.1,872.1,2.0,-6.0,0.0,10163.0,-12680.0,-311.0,2064.0,11.0,26.0,-39.0,0.0,-1.0,1.0,6927.0,-11837.0,7646.0,-4678.0,1.0,25.0,-22.0,1.0
2022-05-23 13:35:50.886454-07:00,1231.9,785.2,1107.8,995.3,973.9,900.0,1626.5,1228.4,3475.9,3471.0,1099.9,875.5,1513.4,3462.5,1299.0,1241.7,3474.6,3472.2,1500.4,2055.4,2629.7,3486.8,1742.6,3490.5,3472.2,3478.3,661.1,869.6,1761.8,1045.2,1014.2,876.4,8.0,-6.0,2.0,10163.0,-12683.0,-312.0,2049.0,-18.0,28.0,-12.0,2.0,-2.0,-2.0,6920.0,-11837.0,7647.0,-4686.0,-20.0,13.0,2.0,1.0
2022-05-23 13:35:50.887783-07:00,1223.9,785.2,1107.8,995.3,970.5,900.8,1628.4,1228.4,3471.0,3471.0,1099.9,875.5,1508.8,3463.7,1295.4,1241.7,3474.6,3472.2,1503.2,2046.4,2629.7,3486.8,1742.6,3484.4,3472.2,3471.0,663.6,869.6,1761.8,1045.2,1014.2,879.7,2.0,0.0,-1.0,10155.0,-12691.0,-307.0,2038.0,-30.0,15.0,8.0,1.0,-4.0,-1.0,6912.0,-11838.0,7654.0,-4684.0,-26.0,2.0,16.0,1.0
2022-05-23 13:35:50.889638-07:00,1223.9,778.6,1113.0,991.9,970.5,900.8,1628.4,1225.7,3471.0,3473.4,1098.2,875.5,1508.8,3463.7,1295.4,1242.6,3468.6,3472.2,1503.2,2046.4,2626.5,3484.4,1754.1,3484.4,3475.9,3471.0,663.6,869.6,1765.6,1044.4,1024.5,879.7,0.0,7.0,0.0,10148.0,-12697.0,-303.0,2038.0,-11.0,5.0,2.0,-3.0,3.0,4.0,6908.0,-11838.0,7661.0,-4677.0,-10.0,-3.0,9.0,1.0
2022-05-23 13:35:50.914324-07:00,1231.0,778.6,1113.0,991.9,973.1,906.7,1626.5,1225.7,3469.8,3473.4,1098.2,875.5,1499.5,3468.6,1297.2,1242.6,3468.6,3462.5,1502.3,2041.4,2626.5,3484.4,1754.1,3483.2,3475.9,3472.2,654.6,867.9,1765.6,1044.4,1024.5,861.2,-3.0,16.0,0.0,10148.0,-12697.0,-303.0,2038.0,-4.0,-1.0,5.0,-8.0,4.0,2.0,6907.0,-11839.0,7662.0,-4676.0,3.0,1.0,0.0,1.0
2022-05-23 13:35:50.974523-07:00,1223.9,778.6,1103.4,987.6,979.9,917.7,1630.3,1239.1,3467.4,3468.6,1098.2,873.8,1511.5,3472.2,1294.5,1238.2,3478.3,3478.3,1506.0,2042.4,2609.1,3490.5,1737.8,3489.2,3471.0,3474.6,660.3,872.1,1770.4,1051.3,1016.8,878.9,2.0,8.0,3.0,10162.0,-12687.0,-331.0,2025.0,48.0,-32.0,-72.0,0.0,1.0,7.0,6915.0,-11837.0,7651.0,-4686.0,42.0,-7.0,-19.0,1.0
2022-05-23 13:35:51.093667-07:00,1223.9,784.4,1112.1,987.6,979.9,917.7,1631.3,1223.0,3467.4,3478.3,1093.8,877.2,1511.5,3472.2,1288.2,1236.4,3478.3,3481.9,1506.0,2042.4,2618.8,3486.8,1746.4,3489.2,3474.6,3478.3,660.3,872.1,1797.4,1044.4,1015.9,878.9,2.0,-4.0,5.0,10181.0,-12673.0,-366.0,2009.0,35.0,-15.0,-89.0,0.0,0.0,7.0,6922.0,-11838.0,7639.0,-4694.0,19.0,-9.0,-26.0,1.0
2022-05-23 13:35:51.153805-07:00,1224.8,781.9,1112.1,987.6,974.8,907.6,1631.3,1223.0,3462.5,3467.4,1093.8,877.2,1505.1,3469.8,1288.2,1236.4,3478.3,3481.9,1503.2,2050.4,2618.8,3486.8,1750.2,3481.9,3474.6,3478.3,658.7,872.1,1797.4,1044.4,1021.9,873.0,0.0,-7.0,11.0,10182.0,-12673.0,-378.0,2005.0,-13.0,3.0,7.0,2.0,-6.0,6.0,6920.0,-11841.0,7635.0,-4696.0,-6.0,0.0,-6.0,1.0
2022-05-23 13:35:51.243674-07:00,1224.8,781.9,1102.5,990.2,974.8,907.6,1622.8,1227.5,3462.5,3467.4,1095.6,874.7,1505.1,3469.8,1297.2,1239.1,3473.4,3468.6,1503.2,2050.4,2624.3,3490.5,1750.2,3481.9,3471.0,3473.4,658.7,872.1,1771.4,1045.2,1021.9,873.0,8.0,7.0,0.0,10181.0,-12674.0,-377.0,2003.0,-16.0,8.0,-4.0,1.0,3.0,1.0,6918.0,-11842.0,7635.0,-4695.0,-15.0,3.0,2.0,1.0
2022-05-23 13:35:51.245316-07:00,1224.8,771.1,1102.5,990.2,968.8,905.9,1622.8,1227.5,3469.8,3478.3,1095.6,874.7,1499.5,3464.9,1297.2,1239.1,3473.4,3468.6,1493.0,2042.4,2624.3,3490.5,1742.6,3483.2,3471.0,3473.4,653.0,868.8,1771.4,1045.2,1021.1,863.7,1.0,-5.0,16.0,10178.0,-12677.0,-374.0,1997.0,5.0,17.0,-3.0,0.0,2.0,1.0,6914.0,-11845.0,7637.0,-4692.0,1.0,9.0,6.0,1.0
2022-05-23 13:35:51.363706-07:00,1224.8,771.1,1098.2,992.7,968.8,905.9,1627.5,1221.3,3469.8,3478.3,1098.2,873.0,1499.5,3464.9,1300.7,1250.6,3478.3,3474.6,1493.0,2042.4,2624.3,3492.9,1742.6,3483.2,3469.8,3478.3,653.0,868.8,1760.8,1052.2,1021.1,863.7,0.0,6.0,-2.0,10183.0,-12675.0,-374.0,1990.0,10.0,11.0,-20.0,0.0,3.0,1.0,6916.0,-11843.0,7638.0,-4692.0,1.0,2.0,14.0,1.0
2022-05-23 13:35:51.423815-07:00,1223.0,778.6,1106.9,992.7,974.8,908.4,1627.5,1221.3,3472.2,3471.0,1093.8,873.0,1504.1,3478.3,1300.7,1250.6,3478.3,3474.6,1504.1,2045.4,2624.3,3492.9,1741.6,3492.9,3469.8,3478.3,659.5,869.6,1760.8,1049.6,1014.2,892.4,4.0,6.0,0.0,10194.0,-12669.0,-372.0,1967.0,45.0,35.0,-55.0,2.0,-5.0,11.0,6919.0,-11840.0,7638.0,-4694.0,22.0,-2.0,5.0,1.0
2022-05-23 13:35:51.544128-07:00,1223.0,778.6,1106.9,985.0,974.8,900.8,1618.1,1259.6,3472.2,3471.0,1093.8,878.0,1504.1,3466.1,1295.4,1250.6,3477.1,3473.4,1502.3,2045.4,2627.5,3492.9,1741.6,3492.9,3473.4,3466.1,651.4,869.6,1772.3,1049.6,1014.2,892.4,-3.0,3.0,-3.0,10204.0,-12662.0,-388.0,1958.0,-7.0,-29.0,-11.0,-11.0,11.0,0.0,6924.0,-11838.0,7636.0,-4695.0,-4.0,-10.0,-1.0,1.0
2022-05-23 13:35:51.545305-07:00,1227.5,786.1,1095.6,985.0,967.1,900.8,1618.1,1259.6,3466.1,3461.3,1100.8,878.0,1506.9,3466.1,1295.4,1250.6,3477.1,3473.4,1502.3,2052.4,2627.5,3489.2,1740.6,3490.5,3473.4,3466.1,651.4,869.6,1772.3,1045.2,1015.9,867.9,-9.0,22.0,0.0,10211.0,-12656.0,-392.0,1958.0,37.0,2.0,-31.0,-10.0,3.0,6.0,6928.0,-11838.0,7630.0,-4699.0,27.0,-3.0,-21.0,1.0
2022-05-23 13:35:51.546390-07:00,1227.5,786.1,1095.6,986.7,967.1,913.5,1622.8,1224.8,3466.1,3461.3,1100.8,873.8,1506.9,3473.4,1295.4,1237.3,3475.9,3462.5,1490.3,2052.4,2633.0,3489.2,1740.6,3490.5,3477.1,3463.7,657.9,869.6,1770.4,1045.2,1015.9,867.9,0.0,4.0,-1.0,10216.0,-12653.0,-408.0,1947.0,4.0,-1.0,-50.0,-1.0,0.0,2.0,6927.0,-11842.0,7621.0,-4705.0,1.0,6.0,-28.0,1.0
2022-05-23 13:35:51.547510-07:00,1221.3,773.6,1104.3,986.7,969.6,913.5,1622.8,1224.8,3460.1,3462.5,1114.7,873.8,1507.8,3473.4,1295.4,1237.3,3475.9,3462.5,1490.3,2043.4,2633.0,3494.1,1743.5,3481.9,3477.1,3463.7,657.9,867.1,1770.4,1049.6,1015.9,877.2,5.0,-8.0,0.0,10218.0,-12653.0,-421.0,1939.0,-6.0,-15.0,-15.0,6.0,-5.0,6.0,6925.0,-11846.0,7614.0,-4709.0,-2.0,-7.0,-14.0,1.0
2022-05-23 13:35:51.574193-07:00,1221.3,773.6,1104.3,989.3,969.6,905.0,1617.1,1223.0,3460.1,3462.5,1114.7,880.6,1507.8,3461.3,1288.2,1234.6,3467.4,3474.6,1498.6,2043.4,2628.6,3494.1,1743.5,3481.9,3472.2,3460.1,660.3,867.1,1765.6,1049.6,1015.9,877.2,10.0,1.0,13.0,10216.0,-12653.0,-418.0,1945.0,13.0,2.0,19.0,9.0,0.0,12.0,6926.0,-11847.0,7615.0,-4706.0,9.0,-10.0,13.0,1.0
2022-05-23 13:35:51.574839-07:00,1221.3,773.6,1104.3,989.3,969.6,905.0,1617.1,1223.0,3460.1,3462.5,1114.7,880.6,1507.8,3461.3,1288.2,1234.6,3467.4,3474.6,1498.6,2043.4,2628.6,3494.1,1743.5,3481.9,3472.2,3460.1,660.3,867.1,1765.6,1049.6,1015.9,877.2,10.0,1.0,13.0,10216.0,-12653.0,-418.0,1945.0,13.0,2.0,19.0,9.0,0.0,12.0,6926.0,-11847.0,7615.0,-4706.0,9.0,-10.0,13.0,1.0
2022-05-23 13:35:51.633610-07:00,1233.7,780.3,1108.6,985.0,971.3,904.2,1605.8,1232.8,3474.6,3471.0,1097.3,877.2,1506.0,3455.2,1297.2,1239.9,3474.6,3472.2,1498.6,2038.4,2618.8,3488.0,1749.3,3497.8,3472.2,3474.6,658.7,863.7,1761.8,1041.8,1037.5,857.9,-2.0,10.0,0.0,10205.0,-12662.0,-412.0,1950.0,12.0,14.0,-7.0,-7.0,-1.0,4.0,6920.0,-11846.0,7629.0,-4693.0,-6.0,-2.0,10.0,1.0
2022-05-23 13:35:52.084381-07:00,1230.2,780.3,1100.8,990.2,971.3,904.2,1605.8,1232.8,3466.1,3471.0,1100.8,880.6,1506.0,3455.2,1297.2,1239.9,3474.6,3472.2,1498.6,2038.4,2623.2,3485.6,1744.5,3477.1,3472.2,3474.6,658.7,863.7,1767.5,1061.7,1024.5,866.3,-13.0,21.0,-14.0,10204.0,-12664.0,-421.0,1937.0,-53.0,2.0,-40.0,-16.0,9.0,-6.0,6918.0,-11847.0,7630.0,-4692.0,-35.0,8.0,-9.0,1.0
2022-05-23 13:35:52.203909-07:00,1230.2,780.3,1100.8,990.2,973.9,894.9,1608.7,1228.4,3466.1,3471.0,1100.8,880.6,1505.1,3469.8,1299.8,1242.6,3473.4,3464.9,1497.7,2050.4,2623.2,3485.6,1744.5,3477.1,3480.7,3468.6,658.7,870.5,1767.5,1061.7,1024.5,866.3,-2.0,-8.0,3.0,10187.0,-12678.0,-430.0,1933.0,-16.0,-10.0,7.0,-2.0,-3.0,4.0,6902.0,-11857.0,7633.0,-4685.0,-18.0,-2.0,-4.0,1.0
2022-05-23 13:35:52.234202-07:00,1222.2,783.6,1119.1,985.0,973.9,894.9,1608.7,1228.4,3460.1,3462.5,1106.0,877.2,1505.1,3469.8,1299.8,1242.6,3473.4,3464.9,1497.7,2050.4,2619.9,3477.1,1752.1,3486.8,3480.7,3468.6,658.7,870.5,1764.6,1046.1,1021.9,871.3,3.0,-2.0,9.0,10204.0,-12665.0,-425.0,1933.0,57.0,14.0,14.0,0.0,-2.0,7.0,6911.0,-11851.0,7630.0,-4691.0,44.0,-8.0,0.0,1.0
2022-05-23 13:35:52.413380-07:00,1239.1,783.6,1119.1,985.0,968.8,894.9,1613.4,1223.0,3472.2,3462.5,1106.0,877.2,1507.8,3468.6,1299.0,1234.6,3478.3,3469.8,1504.1,2044.4,2619.9,3477.1,1752.1,3485.6,3471.0,3469.8,651.4,864.6,1764.6,1046.1,1021.9,867.9,-3.0,7.0,13.0,10211.0,-12660.0,-397.0,1929.0,9.0,58.0,49.0,-1.0,-2.0,11.0,6920.0,-11846.0,7626.0,-4696.0,6.0,1.0,5.0,1.0
2022-05-23 13:35:52.653962-07:00,1239.1,786.9,1107.8,987.6,968.8,894.9,1613.4,1223.9,3472.2,3464.9,1100.8,878.9,1507.8,3468.6,1299.0,1243.5,3478.3,3469.8,1504.1,2044.4,2617.8,3486.8,1739.7,3485.6,3472.2,3469.8,651.4,864.6,1757.0,1048.7,1026.3,867.9,2.0,10.0,-1.0,10210.0,-12662.0,-380.0,1924.0,-3.0,20.0,7.0,0.0,0.0,4.0,6918.0,-11846.0,7629.0,-4698.0,-12.0,12.0,9.0,1.0
2022-05-23 13:35:52.656271-07:00,1228.4,778.6,1111.2,993.6,975.6,906.7,1617.1,1235.5,3473.4,3472.2,1107.8,878.0,1504.1,3478.3,1299.8,1244.4,3466.1,3475.9,1504.1,2045.4,2622.1,3494.1,1743.5,3485.6,3474.6,3474.6,652.2,867.1,1767.5,1053.0,1022.8,872.1,4.0,-3.0,-2.0,10224.0,-12655.0,-349.0,1907.0,21.0,-17.0,-24.0,3.0,-5.0,1.0,6916.0,-11842.0,7627.0,-4713.0,15.0,-4.0,-25.0,1.0
2022-05-23 13:35:52.657284-07:00,1217.7,781.9,1110.4,996.2,967.1,901.7,1600.2,1216.0,3462.5,3461.3,1106.9,878.9,1506.0,3469.8,1303.4,1238.2,3472.2,3469.8,1501.4,2040.4,2617.8,3494.1,1733.9,3481.9,3472.2,3469.8,657.9,865.4,1763.7,1045.2,1026.3,861.2,0.0,-3.0,9.0,10229.0,-12649.0,-363.0,1914.0,-10.0,-6.0,2.0,-2.0,-5.0,12.0,6923.0,-11844.0,7612.0,-4721.0,4.0,2.0,-5.0,1.0
2022-05-23 13:35:52.657745-07:00,1217.7,781.9,1110.4,996.2,967.1,901.7,1600.2,1216.0,3462.5,3461.3,1106.9,878.9,1506.0,3469.8,1303.4,1238.2,3472.2,3469.8,1501.4,2040.4,2617.8,3494.1,1733.9,3481.9,3472.2,3469.8,657.9,865.4,1763.7,1045.2,1026.3,861.2,0.0,-3.0,9.0,10229.0,-12649.0,-363.0,1914.0,-10.0,-6.0,2.0,-2.0,-5.0,12.0,6923.0,-11844.0,7612.0,-4721.0,4.0,2.0,-5.0,1.0
2022-05-23 13:35:52.744246-07:00,1225.7,791.9,1112.1,995.3,967.9,911.0,1615.2,1223.0,3473.4,3457.6,1102.5,873.0,1511.5,3478.3,1299.8,1241.7,3467.4,3463.7,1502.3,2043.4,2623.2,3491.7,1729.1,3492.9,3475.9,3474.6,658.7,868.8,1765.6,1047.8,1020.2,860.4,-1.0,0.0,3.0,10239.0,-12643.0,-361.0,1902.0,16.0,11.0,-1.0,0.0,0.0,10.0,6926.0,-11842.0,7607.0,-4730.0,2.0,5.0,6.0,1.0
2022-05-23 13:35:52.745025-07:00,1217.7,771.1,1115.6,1007.3,974.8,898.3,1609.6,1223.9,3475.9,3464.9,1108.6,878.9,1509.7,3457.6,1294.5,1247.1,3472.2,3472.2,1494.9,2038.4,2623.2,3488.0,1737.8,3483.2,3474.6,3480.7,657.0,869.6,1752.1,1045.2,1021.1,871.3,2.0,9.0,5.0,10230.0,-12650.0,-359.0,1910.0,-1.0,-13.0,-12.0,-2.0,-1.0,12.0,6920.0,-11846.0,7609.0,-4724.0,-3.0,-8.0,-1.0,1.0
2022-05-23 13:35:52.773837-07:00,1217.7,771.1,1115.6,1007.3,972.2,900.0,1611.5,1216.8,3475.9,3464.9,1108.6,878.9,1509.7,3464.9,1299.8,1239.9,3475.9,3466.1,1500.4,2043.4,2623.2,3488.0,1737.8,3483.2,3473.4,3472.2,657.9,867.1,1752.1,1045.2,1021.1,871.3,-7.0,0.0,10.0,10230.0,-12649.0,-366.0,1911.0,-8.0,-1.0,6.0,-13.0,-1.0,13.0,6920.0,-11846.0,7609.0,-4724.0,-8.0,0.0,6.0,1.0
2022-05-23 13:35:52.893625-07:00,1220.4,785.2,1114.7,1000.5,972.2,900.0,1611.5,1216.8,3461.3,3466.1,1099.0,881.4,1509.7,3464.9,1299.8,1239.9,3475.9,3466.1,1500.4,2043.4,2611.3,3490.5,1731.1,3486.8,3473.4,3472.2,657.9,867.1,1756.0,1059.1,1024.5,872.1,-3.0,17.0,0.0,10216.0,-12660.0,-362.0,1916.0,-75.0,-2.0,14.0,-6.0,-3.0,7.0,6911.0,-11851.0,7614.0,-4718.0,-55.0,1.0,5.0,1.0
2022-05-23 13:35:52.954370-07:00,1220.4,785.2,1114.7,1000.5,974.8,896.6,1600.2,1229.3,3461.3,3466.1,1099.0,881.4,1506.0,3468.6,1298.1,1248.0,3469.8,3467.4,1497.7,2036.4,2611.3,3490.5,1731.1,3486.8,3472.2,3473.4,649.7,870.5,1756.0,1059.1,1024.5,872.1,5.0,-6.0,-2.0,10190.0,-12681.0,-369.0,1911.0,-78.0,10.0,-10.0,0.0,-6.0,1.0,6892.0,-11862.0,7620.0,-4707.0,-60.0,8.0,-10.0,1.0
2022-05-23 13:35:52.955414-07:00,1224.8,773.6,1120.9,1013.3,974.8,896.6,1600.2,1231.0,3467.4,3469.8,1115.6,892.4,1506.0,3468.6,1298.1,1296.3,3475.9,3467.4,1497.7,2036.4,2628.6,3488.0,1739.7,3486.8,3475.9,3473.4,649.7,870.5,1766.6,1054.8,1025.4,873.0,0.0,20.0,1.0,10204.0,-12674.0,-343.0,1887.0,47.0,151.0,26.0,9.0,15.0,-8.0,6905.0,-11854.0,7611.0,-4722.0,112.0,20.0,-11.0,1.0
2022-05-23 13:35:52.957144-07:00,1231.9,773.6,1120.9,1013.3,984.2,905.0,1610.5,1231.0,3466.1,3469.8,1115.6,892.4,1512.5,3471.0,1444.2,1296.3,3475.9,3477.1,1493.0,2034.4,2628.6,3488.0,1739.7,3492.9,3475.9,3467.4,666.8,889.8,1766.6,1054.8,1025.4,860.4,5.0,-57.0,-11.0,10190.0,-12691.0,-275.0,1862.0,69.0,148.0,158.0,-1.0,-30.0,24.0,6931.0,-11846.0,7593.0,-4734.0,163.0,-32.0,6.0,1.0
2022-05-23 13:35:53.164009-07:00,1231.9,767.8,1259.6,1121.7,984.2,905.0,1610.5,1210.6,3466.1,3461.3,1331.4,995.3,1512.5,3471.0,1444.2,1393.0,3473.4,3477.1,1493.0,2034.4,2616.7,3481.9,1794.5,3492.9,3468.6,3467.4,666.8,889.8,1834.3,1264.9,1220.4,860.4,-7.0,33.0,12.0,10256.0,-12634.0,-206.0,1896.0,194.0,19.0,125.0,-9.0,26.0,-5.0,7013.0,-11795.0,7571.0,-4776.0,205.0,-1.0,22.0,1.0
2022-05-23 13:35:53.194314-07:00,1226.6,767.8,1259.6,1121.7,987.6,928.8,1612.4,1210.6,3467.4,3461.3,1331.4,995.3,1604.0,3468.6,1637.9,1393.0,3473.4,3473.4,1500.4,2032.4,2616.7,3481.9,1794.5,3492.9,3468.6,3467.4,667.6,914.4,1834.3,1264.9,1220.4,872.1,0.0,18.0,1.0,10256.0,-12633.0,-173.0,1904.0,-37.0,29.0,10.0,-12.0,-15.0,17.0,7036.0,-11786.0,7562.0,-4780.0,-1.0,-25.0,-5.0,1.0
2022-05-23 13:35:53.195204-07:00,1226.6,778.6,1467.2,1268.5,987.6,928.8,1612.4,1208.0,3467.4,3466.1,1509.7,1114.7,1604.0,3468.6,1637.9,1600.2,3479.5,3473.4,1500.4,2032.4,2617.8,3488.0,1802.3,3492.9,3462.5,3467.4,667.6,914.4,1815.8,1385.7,1335.0,872.1,-14.0,-4.0,-18.0,10247.0,-12645.0,-185.0,1871.0,-90.0,26.0,-56.0,-3.0,-13.0,22.0,7036.0,-11787.0,7559.0,-4781.0,-36.0,8.0,-9.0,1.0
2022-05-23 13:35:53.196454-07:00,1216.0,771.1,1467.2,1268.5,991.0,933.0,1653.9,1208.0,3464.9,3468.6,1509.7,1114.7,1704.3,3464.9,1830.4,1600.2,3479.5,3469.8,1501.4,2037.4,2617.8,3488.0,1817.8,3477.1,3462.5,3475.9,688.9,937.3,1815.8,1385.7,1408.5,863.7,23.0,14.0,0.0,10190.0,-12688.0,-218.0,1884.0,-172.0,-71.0,-47.0,-2.0,-1.0,11.0,7015.0,-11805.0,7564.0,-4759.0,-105.0,-39.0,-13.0,1.0
2022-05-23 13:35:53.197399-07:00,1216.0,771.1,1655.8,1445.1,991.0,933.0,1634.1,1210.6,3464.9,3468.6,1609.6,1233.7,1704.3,3464.9,1928.2,1786.8,3478.3,3468.6,1501.4,2037.4,2605.8,3491.7,1817.8,3477.1,3471.0,3473.4,688.9,937.3,1843.0,1487.5,1408.5,863.7,-31.0,13.0,15.0,10142.0,-12725.0,-290.0,1885.0,-174.0,-142.0,-134.0,-4.0,-2.0,11.0,6984.0,-11837.0,7562.0,-4729.0,-143.0,-35.0,-33.0,1.0
2022-05-23 13:35:53.314330-07:00,1243.5,779.4,1655.8,1445.1,985.9,928.8,1634.1,1210.6,3472.2,3478.3,1609.6,1233.7,1772.3,3464.9,1928.2,1786.8,3478.3,3468.6,1504.1,2044.4,2605.8,3491.7,1853.7,3486.8,3471.0,3473.4,712.6,925.4,1843.0,1487.5,1414.0,864.6,43.0,5.0,-26.0,10083.0,-12768.0,-391.0,1893.0,-221.0,-117.0,-144.0,-7.0,0.0,-12.0,6938.0,-11883.0,7558.0,-4687.0,-181.0,-71.0,-58.0,1.0
2022-05-23 13:35:53.643594-07:00,1243.5,779.4,1725.3,1554.3,985.9,928.8,1634.1,1223.0,3472.2,3478.3,1625.6,1256.9,1772.3,3464.9,1985.6,1864.5,3469.8,3474.6,1504.1,2044.4,2627.5,3490.5,1853.7,3486.8,3471.0,3473.4,712.6,925.4,1832.3,1504.1,1414.0,864.6,-25.0,-17.0,34.0,10064.0,-12785.0,-425.0,1874.0,47.0,-9.0,-56.0,5.0,-9.0,28.0,6936.0,-11907.0,7532.0,-4670.0,63.0,-51.0,-39.0,1.0
2022-05-23 13:35:53.644753-07:00,1241.7,776.9,1725.3,1554.3,1053.0,934.7,1634.1,1223.0,3463.7,3474.6,1625.6,1256.9,1828.4,3469.8,1985.6,1864.5,3469.8,3474.6,1503.2,2053.4,2627.5,3490.5,1889.9,3483.2,3471.0,3473.4,740.6,939.0,1832.3,1504.1,1407.6,869.6,39.0,20.0,-22.0,10052.0,-12795.0,-459.0,1866.0,-214.0,-4.0,-79.0,4.0,24.0,-12.0,6942.0,-11920.0,7513.0,-4660.0,-126.0,-58.0,-36.0,1.0
2022-05-23 13:35:53.674586-07:00,1241.7,776.9,1741.6,1588.9,1053.0,945.8,1660.6,1223.0,3463.7,3474.6,1627.5,1262.2,1828.4,3468.6,1985.6,1875.2,3478.3,3473.4,1511.5,2053.4,2627.5,3489.2,1889.9,3483.2,3472.2,3478.3,757.1,939.0,1833.3,1504.1,1407.6,869.6,-5.0,2.0,22.0,9959.0,-12873.0,-482.0,1818.0,-260.0,54.0,-84.0,3.0,-2.0,34.0,6902.0,-11959.0,7513.0,-4620.0,-106.0,-26.0,-19.0,1.0
2022-05-23 13:35:53.703852-07:00,1253.3,781.9,1722.4,1588.9,1059.1,945.8,1660.6,1223.0,3464.9,3467.4,1631.3,1262.2,1862.5,3468.6,1985.6,1875.2,3478.3,3473.4,1511.5,2060.5,2627.5,3497.8,1936.1,3486.8,3472.2,3478.3,757.1,967.9,1833.3,1478.3,1386.6,858.7,13.0,17.0,36.0,9865.0,-12950.0,-525.0,1768.0,-288.0,136.0,-140.0,-13.0,2.0,-6.0,6865.0,-11997.0,7508.0,-4584.0,-148.0,-53.0,-51.0,1.0
2022-05-23 13:35:53.764287-07:00,1253.3,781.9,1722.4,1589.9,1059.1,939.8,1707.2,1239.1,3464.9,3467.4,1631.3,1271.2,1862.5,3471.0,1978.6,1873.2,3467.4,3469.8,1517.1,2060.5,2631.9,3497.8,1936.1,3486.8,3467.4,3469.8,787.7,967.9,1867.4,1478.3,1386.6,858.7,45.0,0.0,31.0,9715.0,-13079.0,-550.0,1643.0,-560.0,346.0,-166.0,-4.0,7.0,-5.0,6785.0,-12066.0,7511.0,-4517.0,-346.0,-76.0,-62.0,1.0
2022-05-23 13:35:53.765798-07:00,1299.0,784.4,1674.8,1559.9,1077.3,956.0,1709.1,1266.7,3472.2,3468.6,1618.1,1268.5,2038.4,3467.4,1914.4,1837.2,3475.9,3468.6,1531.0,2049.4,2619.9,3485.6,1911.5,3497.8,3467.4,3467.4,786.9,1066.0,1918.3,1430.5,1349.4,868.8,8.0,16.0,-21.0,9559.0,-13204.0,-655.0,1515.0,148.0,-115.0,-62.0,-9.0,20.0,-19.0,6734.0,-12098.0,7524.0,-4486.0,129.0,-6.0,-9.0,1.0
2022-05-23 13:35:53.766937-07:00,1360.3,827.7,1646.4,1550.6,1077.3,956.0,1709.1,1266.7,3467.4,3466.1,1597.4,1253.3,2038.4,3467.4,1914.4,1837.2,3475.9,3468.6,1531.0,2049.4,2636.2,3488.0,1890.9,3484.4,3467.4,3467.4,786.9,1066.0,2021.4,1448.8,1343.1,867.1,-31.0,31.0,-34.0,9608.0,-13161.0,-704.0,1554.0,86.0,-218.0,-80.0,-18.0,2.0,2.0,6768.0,-12089.0,7498.0,-4503.0,66.0,-36.0,-44.0,1.0
2022-05-23 13:35:53.794296-07:00,1360.3,827.7,1646.4,1550.6,1114.7,967.9,1750.2,1299.0,3467.4,3466.1,1597.4,1253.3,2084.6,3457.6,1907.5,1818.7,3471.0,3467.4,1531.0,2062.5,2636.2,3488.0,1890.9,3484.4,3463.7,3474.6,791.9,1064.3,2021.4,1448.8,1343.1,867.1,3.0,-21.0,-1.0,9656.0,-13116.0,-786.0,1601.0,201.0,-149.0,-75.0,-23.0,-5.0,-21.0,6814.0,-12086.0,7452.0,-4516.0,166.0,-92.0,-76.0,1.0
2022-05-23 13:35:53.854404-07:00,1430.5,900.0,1640.7,1540.3,1114.7,967.9,1750.2,1299.0,3460.1,3471.0,1593.6,1232.8,2084.6,3457.6,1907.5,1818.7,3471.0,3467.4,1531.0,2062.5,2621.0,3477.1,1883.0,3477.1,3463.7,3474.6,791.9,1064.3,2179.9,1408.5,1333.2,875.5,0.0,-8.0,0.0,9699.0,-13076.0,-796.0,1658.0,98.0,-124.0,61.0,-7.0,-16.0,2.0,6858.0,-12095.0,7402.0,-4509.0,52.0,-110.0,-45.0,1.0
2022-05-23 13:35:53.943675-07:00,1430.5,900.0,1640.7,1540.3,1153.3,952.6,1886.9,1418.6,3460.1,3471.0,1593.6,1232.8,2070.5,3462.5,1879.1,1812.9,3478.3,3468.6,1527.3,2054.4,2621.0,3477.1,1883.0,3477.1,3469.8,3478.3,787.7,1073.8,2179.9,1408.5,1333.2,875.5,37.0,1.0,46.0,9769.0,-13019.0,-819.0,1682.0,311.0,-64.0,-75.0,3.0,-4.0,20.0,6899.0,-12091.0,7367.0,-4513.0,217.0,-55.0,-44.0,1.0
2022-05-23 13:35:54.004284-07:00,1497.7,939.0,1617.1,1524.5,1153.3,952.6,1886.9,1609.6,3468.6,3462.5,1584.2,1242.6,2070.5,3462.5,1879.1,1794.5,3473.4,3468.6,1527.3,2054.4,2629.7,3490.5,1871.3,3484.4,3469.8,3478.3,787.7,1073.8,2373.4,1380.3,1315.1,877.2,-22.0,33.0,-6.0,9819.0,-12981.0,-827.0,1680.0,-78.0,-11.0,7.0,-14.0,6.0,31.0,6950.0,-12081.0,7328.0,-4526.0,-119.0,-63.0,-25.0,1.0
2022-05-23 13:35:54.093654-07:00,1578.6,939.0,1617.1,1524.5,1170.9,963.7,2078.5,1609.6,3478.3,3462.5,1584.2,1242.6,2086.6,3475.9,1876.2,1794.5,3473.4,3475.9,1532.9,2054.4,2629.7,3490.5,1871.3,3477.1,3469.8,3481.9,774.5,1059.9,2373.4,1380.3,1315.1,944.1,-10.0,-18.0,7.0,9770.0,-13007.0,-903.0,1727.0,-81.0,-264.0,-72.0,5.0,-17.0,8.0,6909.0,-12117.0,7334.0,-4483.0,-96.0,-27.0,-1.0,1.0
2022-05-23 13:35:54.094880-07:00,1578.6,973.1,1597.4,1530.1,1170.9,963.7,2078.5,1604.0,3478.3,3464.9,1589.9,1233.7,2086.6,3475.9,1876.2,1785.8,3483.2,3475.9,1532.9,2054.4,2628.6,3484.4,1864.5,3477.1,3473.4,3481.9,774.5,1059.9,2382.9,1401.2,1306.1,944.1,12.0,-70.0,9.0,9757.0,-13003.0,-967.0,1794.0,54.0,-139.0,45.0,-2.0,-37.0,-56.0,6902.0,-12130.0,7328.0,-4469.0,78.0,-41.0,-7.0,1.0
2022-05-23 13:35:54.096065-07:00,1580.5,973.1,1597.4,1530.1,1197.4,967.1,2074.5,1604.0,3478.3,3464.9,1589.9,1233.7,2055.4,3466.1,1876.2,1785.8,3483.2,3481.9,1535.7,2059.4,2628.6,3484.4,1864.5,3484.4,3473.4,3474.6,772.0,1060.8,2382.9,1401.2,1306.1,1007.3,2.0,20.0,15.0,9778.0,-12979.0,-956.0,1865.0,115.0,-103.0,86.0,-1.0,-12.0,3.0,6949.0,-12115.0,7304.0,-4475.0,164.0,-47.0,4.0,1.0
2022-05-23 13:35:54.183670-07:00,1580.5,985.0,1610.5,1513.4,1197.4,967.1,2074.5,1593.6,3478.3,3467.4,1575.8,1229.3,2055.4,3466.1,1876.2,1788.7,3467.4,3481.9,1535.7,2059.4,2638.4,3497.8,1846.9,3484.4,3477.1,3474.6,772.0,1060.8,2402.9,1397.6,1298.1,1007.3,0.0,16.0,21.0,9797.0,-12957.0,-963.0,1908.0,58.0,-68.0,16.0,-6.0,7.0,15.0,6994.0,-12099.0,7282.0,-4484.0,77.0,-38.0,-10.0,1.0
2022-05-23 13:35:54.213762-07:00,1590.8,1023.7,1610.5,1513.4,1212.4,954.3,2047.4,1593.6,3468.6,3477.1,1575.8,1229.3,2017.4,3468.6,1873.2,1788.7,3467.4,3488.0,1537.6,2045.4,2638.4,3497.8,1841.1,3488.0,3477.1,3475.9,775.3,1049.6,2402.9,1397.6,1298.1,1030.6,9.0,-79.0,26.0,9814.0,-12943.0,-922.0,1934.0,107.0,80.0,222.0,-4.0,0.0,3.0,7038.0,-12083.0,7263.0,-4490.0,158.0,-58.0,41.0,1.0
2022-05-23 13:35:54.243760-07:00,1590.8,1023.7,1597.4,1535.7,1212.4,954.3,2022.4,1588.0,3468.6,3477.1,1573.0,1223.9,2017.4,3468.6,1851.8,1786.8,3474.6,3475.9,1537.6,2045.4,2638.4,3494.1,1841.1,3488.0,3473.4,3466.1,775.3,1049.6,2474.9,1384.8,1298.1,1030.6,15.0,34.0,53.0,9825.0,-12938.0,-781.0,1976.0,37.0,132.0,294.0,0.0,0.0,39.0,7090.0,-12057.0,7256.0,-4488.0,54.0,-11.0,50.0,1.0
2022-05-23 13:35:54.304435-07:00,1608.7,1034.0,1597.4,1535.7,1238.2,969.6,2022.4,1588.0,3467.4,3457.6,1573.0,1223.9,1997.5,3467.4,1851.8,1786.8,3474.6,3475.9,1531.0,2043.4,2638.4,3494.1,1838.2,3479.5,3473.4,3466.1,769.5,1048.7,2474.9,1384.8,1299.8,1035.7,-24.0,28.0,0.0,9824.0,-12943.0,-706.0,1976.0,0.0,-2.0,32.0,1.0,-15.0,13.0,7099.0,-12044.0,7267.0,-4491.0,-16.0,51.0,19.0,1.0
2022-05-23 13:35:54.394361-07:00,1608.7,1034.0,1598.3,1532.0,1238.2,969.6,2008.4,1559.9,3467.4,3457.6,1573.9,1227.5,1997.5,3467.4,1849.8,1775.2,3475.9,3462.5,1531.0,2043.4,2633.0,3486.8,1838.2,3479.5,3469.8,3462.5,769.5,1048.7,2442.0,1390.3,1299.8,1035.7,-2.0,9.0,-20.0,9834.0,-12931.0,-729.0,1993.0,38.0,-71.0,-27.0,0.0,-8.0,-1.0,7086.0,-12040.0,7280.0,-4500.0,9.0,22.0,-3.0,1.0
2022-05-23 13:35:54.395936-07:00,1570.2,1016.8,1598.3,1532.0,1225.7,961.1,2008.4,1559.9,3462.5,3467.4,1573.9,1227.5,1972.7,3468.6,1849.8,1775.2,3475.9,3462.5,1532.0,2041.4,2633.0,3486.8,1832.3,3477.1,3469.8,3462.5,769.5,1040.1,2442.0,1390.3,1296.3,1023.7,6.0,8.0,-6.0,9861.0,-12902.0,-789.0,2026.0,115.0,-196.0,-109.0,-9.0,23.0,-4.0,7093.0,-12036.0,7275.0,-4510.0,51.0,-12.0,-21.0,1.0
2022-05-23 13:35:54.454367-07:00,1570.2,1016.8,1597.4,1530.1,1225.7,961.1,1996.5,1552.5,3462.5,3467.4,1573.0,1216.8,1972.7,3468.6,1836.2,1769.5,3468.6,3471.0,1532.0,2041.4,2630.8,3489.2,1832.3,3477.1,3473.4,3468.6,769.5,1040.1,2380.8,1394.8,1296.3,1023.7,10.0,3.0,13.0,9892.0,-12870.0,-841.0,2059.0,54.0,-72.0,-17.0,-10.0,6.0,-1.0,7109.0,-12037.0,7255.0,-4513.0,38.0,-37.0,-35.0,1.0
2022-05-23 13:35:54.513664-07:00,1581.4,1022.8,1589.9,1530.1,1210.6,968.8,1996.5,1552.5,3461.3,3466.1,1559.0,1216.8,1961.8,3473.4,1836.2,1769.5,3468.6,3471.0,1532.0,2025.4,2630.8,3488.0,1832.3,3483.2,3473.4,3468.6,762.9,1039.2,2380.8,1394.8,1297.2,996.2,-8.0,1.0,29.0,9905.0,-12857.0,-852.0,2073.0,17.0,-25.0,9.0,-3.0,-12.0,24.0,7114.0,-12043.0,7241.0,-4511.0,8.0,-13.0,-16.0,1.0
2022-05-23 13:35:54.543822-07:00,1581.4,1022.8,1589.9,1514.3,1210.6,970.5,1981.6,1553.4,3461.3,3466.1,1559.0,1222.2,1961.8,3463.7,1837.2,1769.5,3467.4,3462.5,1529.2,2025.4,2634.1,3488.0,1832.3,3483.2,3475.9,3467.4,757.9,1039.2,2358.8,1394.8,1297.2,996.2,10.0,-15.0,27.0,9914.0,-12850.0,-842.0,2081.0,22.0,27.0,53.0,0.0,-6.0,8.0,7115.0,-12039.0,7246.0,-4513.0,5.0,17.0,25.0,1.0
2022-05-23 13:35:54.603929-07:00,1565.5,1010.8,1588.0,1514.3,1207.1,970.5,1981.6,1553.4,3473.4,3456.4,1564.6,1222.2,1947.9,3463.7,1837.2,1769.5,3467.4,3462.5,1529.2,2042.4,2634.1,3484.4,1834.3,3483.2,3475.9,3467.4,757.9,1036.6,2358.8,1393.0,1289.1,997.0,3.0,12.0,6.0,9914.0,-12854.0,-804.0,2070.0,-13.0,84.0,32.0,-2.0,-2.0,6.0,7112.0,-12033.0,7259.0,-4514.0,-30.0,22.0,19.0,1.0
2022-05-23 13:35:54.754682-07:00,1565.5,1010.8,1588.0,1517.1,1207.1,960.2,1975.6,1533.8,3473.4,3456.4,1564.6,1220.4,1947.9,3464.9,1831.3,1756.0,3467.4,3462.5,1519.9,2042.4,2641.7,3484.4,1834.3,3483.2,3471.0,3473.4,765.3,1036.6,2337.9,1393.0,1289.1,997.0,5.0,6.0,-6.0,9912.0,-12859.0,-790.0,2052.0,-27.0,32.0,-14.0,-6.0,9.0,-3.0,7105.0,-12031.0,7266.0,-4518.0,-26.0,15.0,-1.0,1.0
2022-05-23 13:35:54.756381-07:00,1554.3,995.3,1590.8,1517.1,1196.5,960.2,1975.6,1533.8,3464.9,3471.0,1549.7,1220.4,1940.0,3464.9,1831.3,1756.0,3467.4,3462.5,1519.9,2043.4,2641.7,3484.4,1817.8,3484.4,3471.0,3473.4,765.3,1028.0,2337.9,1388.5,1281.9,997.9,7.0,5.0,2.0,9891.0,-12877.0,-784.0,2047.0,-75.0,14.0,16.0,0.0,-5.0,0.0,7089.0,-12040.0,7273.0,-4509.0,-63.0,0.0,2.0,1.0
2022-05-23 13:35:54.757925-07:00,1554.3,995.3,1590.8,1512.5,1195.6,956.0,1946.9,1545.9,3464.9,3471.0,1549.7,1220.4,1927.2,3467.4,1834.3,1748.3,3478.3,3467.4,1530.1,2036.4,2629.7,3484.4,1817.8,3484.4,3472.2,3464.9,756.3,1019.4,2320.1,1388.5,1281.9,997.9,2.0,0.0,11.0,9880.0,-12886.0,-786.0,2041.0,8.0,-2.0,-20.0,-3.0,0.0,9.0,7081.0,-12044.0,7276.0,-4504.0,1.0,7.0,-2.0,1.0
2022-05-23 13:35:55.143903-07:00,1554.3,997.9,1581.4,1514.3,1195.6,956.0,1946.9,1545.9,3467.4,3461.3,1555.3,1213.3,1927.2,3467.4,1834.3,1748.3,3478.3,3467.4,1530.1,2036.4,2626.5,3497.8,1818.7,3485.6,3472.2,3464.9,756.3,1019.4,2303.5,1388.5,1282.8,996.2,1.0,-7.0,10.0,9880.0,-12885.0,-791.0,2043.0,-18.0,-19.0,7.0,-5.0,-3.0,7.0,7080.0,-12045.0,7277.0,-4503.0,-20.0,3.0,1.0,1.0
2022-05-23 13:35:55.145074-07:00,1554.3,997.9,1581.4,1514.3,1184.1,951.7,1963.7,1533.8,3467.4,3461.3,1555.3,1213.3,1925.2,3460.1,1829.4,1757.9,3467.4,3467.4,1522.7,2043.4,2626.5,3497.8,1818.7,3485.6,3469.8,3471.0,746.3,1021.9,2303.5,1388.5,1282.8,996.2,-3.0,15.0,5.0,9878.0,-12886.0,-789.0,2048.0,-6.0,-3.0,6.0,-4.0,0.0,8.0,7081.0,-12044.0,7277.0,-4504.0,-5.0,4.0,3.0,1.0
2022-05-23 13:35:55.145910-07:00,1554.3,1005.6,1570.2,1507.8,1184.1,951.7,1963.7,1533.8,3468.6,3457.6,1544.1,1213.3,1925.2,3460.1,1829.4,1757.9,3467.4,3467.4,1522.7,2043.4,2631.9,3481.9,1815.8,3479.5,3469.8,3471.0,746.3,1021.9,2293.1,1389.4,1278.3,996.2,7.0,-3.0,12.0,9869.0,-12892.0,-793.0,2051.0,-40.0,11.0,18.0,-3.0,0.0,3.0,7071.0,-12049.0,7282.0,-4496.0,-36.0,5.0,12.0,1.0
2022-05-23 13:35:55.147057-07:00,1554.3,1005.6,1570.2,1507.8,1196.5,943.2,1947.9,1566.5,3468.6,3457.6,1544.1,1213.3,1918.3,3466.1,1828.4,1754.1,3468.6,3472.2,1521.8,2035.4,2631.9,3481.9,1815.8,3479.5,3474.6,3472.2,769.5,1018.5,2293.1,1389.4,1278.3,996.2,0.0,7.0,10.0,9855.0,-12904.0,-781.0,2046.0,-28.0,36.0,12.0,1.0,-3.0,14.0,7059.0,-12052.0,7292.0,-4493.0,-20.0,23.0,8.0,1.0
2022-05-23 13:35:55.148868-07:00,1552.5,990.2,1561.8,1492.1,1196.5,943.2,1947.9,1530.1,3460.1,3468.6,1547.8,1211.5,1918.3,3466.1,1828.4,1743.5,3471.0,3472.2,1521.8,2035.4,2641.7,3488.0,1814.9,3483.2,3472.2,3472.2,769.5,1018.5,2292.1,1376.6,1276.5,988.5,-8.0,-7.0,6.0,9844.0,-12915.0,-767.0,2040.0,-51.0,23.0,41.0,-9.0,-12.0,12.0,7053.0,-12051.0,7298.0,-4495.0,-39.0,15.0,14.0,1.0
2022-05-23 13:35:55.204674-07:00,1544.1,990.2,1561.8,1492.1,1182.3,955.1,1939.0,1530.1,3460.1,3468.6,1547.8,1211.5,1917.4,3466.1,1821.6,1743.5,3471.0,3466.1,1520.8,2041.4,2641.7,3488.0,1814.9,3481.9,3472.2,3478.3,752.1,1016.8,2292.1,1376.6,1276.5,986.7,-4.0,7.0,-3.0,9841.0,-12916.0,-756.0,2049.0,21.0,-26.0,20.0,-1.0,-3.0,15.0,7054.0,-12043.0,7309.0,-4498.0,15.0,23.0,23.0,1.0
2022-05-23 13:35:55.233837-07:00,1544.1,999.6,1570.2,1500.4,1167.4,951.7,1950.9,1539.4,3464.9,3468.6,1547.8,1209.7,1908.5,3461.3,1824.6,1738.7,3475.9,3478.3,1524.5,2043.4,2631.9,3500.2,1808.1,3477.1,3469.8,3475.9,753.8,1016.8,2273.4,1403.0,1280.1,991.0,2.0,7.0,13.0,9825.0,-12926.0,-742.0,2071.0,-27.0,5.0,33.0,-4.0,-4.0,9.0,7040.0,-12040.0,7326.0,-4499.0,-23.0,14.0,18.0,1.0
2022-05-23 13:35:55.264316-07:00,1563.7,999.6,1570.2,1500.4,1170.0,949.2,1947.9,1539.4,3461.3,3468.6,1547.8,1209.7,1905.6,3472.2,1818.7,1738.7,3475.9,3467.4,1519.9,2032.4,2631.9,3500.2,1808.1,3481.9,3469.8,3471.0,747.2,1010.8,2273.4,1403.0,1280.1,969.6,-5.0,11.0,3.0,9821.0,-12928.0,-736.0,2076.0,-12.0,-11.0,11.0,-5.0,1.0,8.0,7037.0,-12035.0,7338.0,-4498.0,-16.0,16.0,22.0,1.0
2022-05-23 13:35:55.294008-07:00,1563.7,994.5,1572.1,1506.0,1170.0,949.2,1918.3,1538.5,3461.3,3462.5,1544.1,1207.1,1905.6,3472.2,1818.7,1733.0,3471.0,3469.8,1519.9,2032.4,2638.4,3486.8,1800.3,3481.9,3471.0,3474.6,747.2,1010.8,2280.7,1376.6,1278.3,969.6,6.0,-6.0,19.0,9815.0,-12933.0,-733.0,2078.0,11.0,21.0,12.0,-4.0,-2.0,3.0,7029.0,-12033.0,7350.0,-4494.0,5.0,17.0,19.0,1.0
2022-05-23 13:35:55.353899-07:00,1515.3,992.7,1572.1,1506.0,1174.4,950.0,1918.3,1538.5,3473.4,3467.4,1544.1,1207.1,1906.6,3462.5,1818.7,1733.0,3471.0,3469.8,1519.0,2039.4,2638.4,3486.8,1818.7,3489.2,3471.0,3474.6,746.3,1015.9,2280.7,1376.6,1280.1,975.6,0.0,14.0,4.0,9832.0,-12924.0,-717.0,2051.0,32.0,106.0,-20.0,-7.0,7.0,0.0,7033.0,-12025.0,7355.0,-4503.0,9.0,21.0,6.0,1.0
2022-05-23 13:35:55.413686-07:00,1515.3,992.7,1577.7,1507.8,1174.4,950.0,1945.9,1538.5,3473.4,3467.4,1543.1,1206.2,1906.6,3462.5,1813.9,1733.0,3471.0,3475.9,1519.0,2039.4,2626.5,3494.1,1818.7,3489.2,3467.4,3474.6,746.3,1015.9,2260.0,1371.2,1280.1,975.6,-6.0,5.0,-12.0,9830.0,-12929.0,-710.0,2036.0,-26.0,1.0,-5.0,-5.0,-1.0,4.0,7024.0,-12026.0,7361.0,-4505.0,-33.0,10.0,-2.0,1.0
2022-05-23 13:35:55.594327-07:00,1540.3,992.7,1577.7,1507.8,1154.2,950.9,1945.9,1538.5,3458.9,3462.5,1543.1,1206.2,1904.6,3478.3,1813.9,1733.0,3471.0,3475.9,1525.5,2038.4,2626.5,3494.1,1818.7,3488.0,3467.4,3474.6,750.5,1012.5,2260.0,1371.2,1273.0,982.5,2.0,9.0,-4.0,9819.0,-12937.0,-714.0,2037.0,-31.0,-17.0,-11.0,-3.0,0.0,-1.0,7013.0,-12033.0,7363.0,-4499.0,-32.0,-9.0,-12.0,1.0
2022-05-23 13:35:55.595451-07:00,1540.3,992.7,1565.5,1492.1,1154.2,950.9,1951.9,1537.6,3458.9,3462.5,1552.5,1199.1,1904.6,3478.3,1817.8,1728.2,3468.6,3469.8,1525.5,2038.4,2625.4,3489.2,1818.7,3488.0,3469.8,3471.0,750.5,1012.5,2262.1,1376.6,1273.0,982.5,-6.0,8.0,1.0,9815.0,-12939.0,-721.0,2037.0,-16.0,-19.0,-12.0,-2.0,-3.0,9.0,7009.0,-12037.0,7362.0,-4497.0,-17.0,-8.0,-7.0,1.0
2022-05-23 13:35:55.596539-07:00,1527.3,991.9,1558.1,1492.1,1160.3,950.0,1951.9,1537.6,3468.6,3471.0,1545.9,1199.1,1904.6,3468.6,1817.8,1728.2,3468.6,3469.8,1523.6,2043.4,2625.4,3494.1,1815.8,3484.4,3469.8,3471.0,752.9,1016.8,2262.1,1365.7,1271.2,973.1,-5.0,-1.0,8.0,9797.0,-12952.0,-731.0,2044.0,-73.0,-29.0,1.0,-4.0,-3.0,12.0,6994.0,-12047.0,7367.0,-4484.0,-69.0,-11.0,9.0,1.0
2022-05-23 13:35:55.598649-07:00,1527.3,991.9,1558.1,1483.8,1160.3,944.9,1932.1,1540.3,3468.6,3471.0,1545.9,1203.5,1904.6,3473.4,1833.3,1745.4,3478.3,3478.3,1521.8,2043.4,2630.8,3494.1,1815.8,3484.4,3469.8,3477.1,748.8,1016.8,2247.6,1365.7,1271.2,973.1,16.0,3.0,22.0,9784.0,-12961.0,-728.0,2049.0,-11.0,9.0,19.0,1.0,-2.0,4.0,6984.0,-12052.0,7375.0,-4475.0,-22.0,8.0,16.0,1.0
2022-05-23 13:35:55.773610-07:00,1526.4,979.9,1559.0,1483.8,1155.9,944.9,1932.1,1540.3,3464.9,3468.6,1529.2,1203.5,1906.6,3473.4,1833.3,1745.4,3478.3,3478.3,1521.8,2047.4,2630.8,3494.1,1811.0,3488.0,3469.8,3477.1,748.8,1007.3,2247.6,1367.6,1263.1,980.7,-8.0,6.0,-2.0,9780.0,-12964.0,-725.0,2046.0,-27.0,-2.0,-3.0,-6.0,-3.0,9.0,6978.0,-12053.0,7381.0,-4471.0,-25.0,11.0,6.0,1.0
2022-05-23 13:35:55.774943-07:00,1526.4,979.9,1559.0,1502.3,1155.9,948.3,1934.1,1520.8,3464.9,3468.6,1529.2,1208.0,1906.6,3468.6,1811.9,1729.1,3467.4,3468.6,1520.8,2047.4,2656.9,3494.1,1811.0,3488.0,3464.9,3467.4,743.0,1007.3,2263.1,1367.6,1263.1,980.7,-6.0,6.0,-1.0,9766.0,-12974.0,-733.0,2053.0,-33.0,-27.0,4.0,-7.0,-2.0,7.0,6967.0,-12059.0,7385.0,-4466.0,-27.0,-8.0,1.0,1.0
2022-05-23 13:35:55.803477-07:00,1528.3,994.5,1559.9,1502.3,1151.5,948.3,1934.1,1520.8,3468.6,3473.4,1545.0,1208.0,1900.7,3468.6,1811.9,1729.1,3467.4,3468.6,1520.8,2042.4,2656.9,3492.9,1802.3,3485.6,3464.9,3467.4,743.0,1010.8,2263.1,1369.4,1273.9,977.3,12.0,3.0,10.0,9765.0,-12973.0,-737.0,2059.0,11.0,4.0,9.0,0.0,2.0,0.0,6964.0,-12061.0,7386.0,-4464.0,5.0,-5.0,7.0,1.0
2022-05-23 13:35:55.804679-07:00,1528.3,994.5,1559.9,1488.4,1151.5,941.5,1912.4,1529.2,3468.6,3473.4,1545.0,1205.3,1900.7,3472.2,1816.8,1730.1,3473.4,3473.4,1522.7,2042.4,2640.6,3492.9,1802.3,3485.6,3480.7,3469.8,747.2,1010.8,2285.9,1369.4,1273.9,977.3,-3.0,3.0,5.0,9758.0,-12978.0,-731.0,2060.0,-30.0,-2.0,18.0,-2.0,-8.0,17.0,6960.0,-12063.0,7388.0,-4461.0,-31.0,1.0,11.0,1.0
2022-05-23 13:35:55.863324-07:00,1519.9,972.2,1567.4,1492.1,1164.7,941.5,1912.4,1529.2,3466.1,3471.0,1540.3,1205.3,1895.8,3472.2,1816.8,1730.1,3473.4,3473.4,1522.7,2029.4,2635.1,3492.9,1802.3,3481.9,3480.7,3469.8,747.2,1015.1,2252.8,1373.0,1272.1,968.8,6.0,11.0,15.0,9744.0,-12988.0,-730.0,2066.0,-44.0,5.0,16.0,-2.0,2.0,10.0,6950.0,-12067.0,7397.0,-4452.0,-39.0,11.0,9.0,1.0
2022-05-23 13:35:55.923388-07:00,1519.9,972.2,1567.4,1492.1,1152.4,939.8,1922.3,1532.9,3466.1,3471.0,1540.3,1205.3,1904.6,3463.7,1802.3,1739.7,3467.4,3472.2,1521.8,2034.4,2635.1,3492.9,1802.3,3481.9,3478.3,3462.5,743.9,1009.9,2252.8,1373.0,1272.1,968.8,2.0,8.0,12.0,9730.0,-13001.0,-715.0,2060.0,-46.0,53.0,33.0,-8.0,2.0,6.0,6938.0,-12073.0,7403.0,-4445.0,-35.0,12.0,7.0,1.0
2022-05-23 13:35:55.983450-07:00,1525.5,973.1,1554.3,1481.0,1152.4,939.8,1922.3,1532.9,3473.4,3472.2,1535.7,1205.3,1904.6,3463.7,1802.3,1739.7,3467.4,3472.2,1521.8,2034.4,2636.2,3490.5,1807.1,3481.9,3478.3,3462.5,743.9,1009.9,2252.8,1367.6,1259.6,977.3,0.0,-1.0,5.0,9707.0,-13019.0,-705.0,2055.0,-67.0,5.0,12.0,-5.0,-5.0,7.0,6916.0,-12082.0,7414.0,-4437.0,-65.0,14.0,9.0,1.0
2022-05-23 13:35:56.194303-07:00,1525.5,973.1,1554.3,1481.0,1152.4,944.9,1917.4,1520.8,3473.4,3472.2,1535.7,1205.3,1900.7,3468.6,1802.3,1732.0,3475.9,3467.4,1519.0,2039.4,2636.2,3490.5,1807.1,3481.9,3474.6,3475.9,732.3,1009.0,2252.8,1367.6,1259.6,977.3,7.0,5.0,4.0,9693.0,-13029.0,-705.0,2054.0,1.0,16.0,1.0,-2.0,1.0,0.0,6903.0,-12085.0,7424.0,-4431.0,-7.0,4.0,12.0,1.0
2022-05-23 13:35:56.283427-07:00,1522.7,986.7,1575.8,1501.4,1152.4,944.9,1917.4,1520.8,3468.6,3466.1,1529.2,1202.7,1900.7,3468.6,1802.3,1732.0,3475.9,3467.4,1519.0,2039.4,2636.2,3479.5,1814.9,3485.6,3474.6,3475.9,732.3,1009.0,2255.9,1367.6,1266.7,969.6,-5.0,16.0,-8.0,9698.0,-13026.0,-703.0,2052.0,-30.0,-24.0,-9.0,-5.0,0.0,7.0,6906.0,-12082.0,7426.0,-4431.0,-19.0,5.0,4.0,1.0
2022-05-23 13:35:56.343716-07:00,1509.7,986.7,1575.8,1501.4,1140.1,940.7,1913.4,1514.3,3457.6,3466.1,1529.2,1202.7,1896.7,3463.7,1810.0,1725.3,3468.6,3469.8,1519.0,2038.4,2636.2,3479.5,1814.9,3488.0,3468.6,3468.6,735.6,1005.6,2255.9,1367.6,1266.7,973.1,0.0,-6.0,7.0,9679.0,-13038.0,-715.0,2063.0,-47.0,-54.0,3.0,-10.0,-1.0,7.0,6892.0,-12090.0,7431.0,-4422.0,-18.0,-5.0,5.0,1.0
2022-05-23 13:35:56.345008-07:00,1509.7,986.7,1559.0,1502.3,1140.1,940.7,1913.4,1519.9,3457.6,3457.6,1543.1,1198.2,1896.7,3463.7,1810.0,1732.0,3478.3,3469.8,1519.0,2038.4,2608.0,3488.0,1802.3,3488.0,3475.9,3468.6,735.6,1005.6,2233.2,1374.8,1262.2,973.1,7.0,-2.0,15.0,9672.0,-13040.0,-725.0,2076.0,6.0,-14.0,1.0,-3.0,-1.0,9.0,6891.0,-12091.0,7431.0,-4421.0,4.0,-4.0,2.0,1.0
2022-05-23 13:35:56.404809-07:00,1506.9,986.7,1559.0,1502.3,1141.9,944.1,1898.7,1519.9,3456.4,3457.6,1543.1,1198.2,1887.9,3462.5,1822.6,1732.0,3478.3,3473.4,1517.1,2026.4,2608.0,3488.0,1802.3,3489.2,3475.9,3471.0,738.9,1004.8,2233.2,1374.8,1262.2,983.3,1.0,5.0,9.0,9676.0,-13038.0,-722.0,2077.0,-16.0,12.0,10.0,-5.0,-3.0,12.0,6894.0,-12089.0,7430.0,-4422.0,-10.0,5.0,6.0,1.0
2022-05-23 13:35:56.405944-07:00,1506.9,980.7,1566.5,1478.3,1141.9,944.1,1898.7,1519.0,3456.4,3467.4,1532.0,1194.7,1887.9,3462.5,1822.6,1726.3,3467.4,3473.4,1517.1,2026.4,2626.5,3485.6,1812.9,3489.2,3463.7,3471.0,738.9,1004.8,2235.3,1364.8,1267.6,983.3,-2.0,12.0,-1.0,9667.0,-13044.0,-719.0,2077.0,-24.0,2.0,11.0,-4.0,0.0,7.0,6886.0,-12093.0,7433.0,-4419.0,-18.0,6.0,5.0,1.0
2022-05-23 13:35:56.406954-07:00,1504.1,980.7,1566.5,1478.3,1135.7,943.2,1902.6,1519.0,3471.0,3467.4,1532.0,1194.7,1891.8,3478.3,1797.4,1726.3,3467.4,3472.2,1522.7,2036.4,2626.5,3485.6,1812.9,3495.3,3463.7,3473.4,747.2,997.0,2235.3,1364.8,1267.6,969.6,7.0,0.0,11.0,9659.0,-13049.0,-725.0,2084.0,-11.0,-23.0,3.0,-7.0,-2.0,11.0,6884.0,-12096.0,7433.0,-4414.0,-9.0,-5.0,-1.0,1.0
2022-05-23 13:35:56.408040-07:00,1498.6,975.6,1559.0,1477.3,1141.9,939.8,1913.4,1518.0,3467.4,3471.0,1537.6,1206.2,1890.9,3463.7,1798.4,1719.6,3468.6,3467.4,1521.8,2038.4,2630.8,3494.1,1809.0,3486.8,3468.6,3475.9,747.2,1003.9,2227.0,1366.6,1263.1,977.3,-6.0,10.0,16.0,9658.0,-13048.0,-728.0,2088.0,3.0,15.0,-6.0,-16.0,-2.0,18.0,6885.0,-12096.0,7432.0,-4413.0,-1.0,4.0,-6.0,1.0
2022-05-23 13:35:56.464045-07:00,1498.6,975.6,1559.9,1480.1,1141.9,939.8,1876.2,1498.6,3467.4,3471.0,1537.6,1196.5,1890.9,3463.7,1805.2,1721.5,3473.4,3475.9,1521.8,2038.4,2635.1,3486.8,1809.0,3486.8,3468.6,3468.6,747.2,1003.9,2233.2,1367.6,1263.1,977.3,1.0,6.0,4.0,9661.0,-13047.0,-729.0,2085.0,10.0,10.0,-13.0,-8.0,0.0,5.0,6885.0,-12096.0,7433.0,-4414.0,7.0,9.0,-5.0,1.0
2022-05-23 13:35:56.494019-07:00,1503.2,988.5,1559.9,1480.1,1139.2,939.8,1876.2,1498.6,3458.9,3463.7,1537.6,1196.5,1884.0,3466.1,1805.2,1721.5,3473.4,3475.9,1514.3,2026.4,2635.1,3486.8,1805.2,3481.9,3468.6,3468.6,744.7,1005.6,2233.2,1367.6,1256.0,971.3,1.0,6.0,1.0,9662.0,-13047.0,-725.0,2077.0,7.0,26.0,8.0,1.0,-2.0,6.0,6885.0,-12096.0,7433.0,-4414.0,3.0,4.0,1.0,1.0
2022-05-23 13:35:56.554469-07:00,1503.2,988.5,1557.1,1484.7,1139.2,939.8,1910.5,1516.2,3458.9,3463.7,1544.1,1201.8,1884.0,3466.1,1803.2,1719.6,3467.4,3477.1,1514.3,2026.4,2629.7,3486.8,1805.2,3481.9,3473.4,3471.0,744.7,1005.6,2234.2,1365.7,1256.0,971.3,1.0,4.0,4.0,9662.0,-13048.0,-722.0,2074.0,-4.0,-17.0,-2.0,-2.0,0.0,5.0,6885.0,-12096.0,7433.0,-4414.0,5.0,2.0,-3.0,1.0
2022-05-23 13:35:56.613719-07:00,1491.2,967.9,1557.1,1484.7,1134.9,944.9,1910.5,1516.2,3461.3,3468.6,1544.1,1201.8,1882.0,3468.6,1803.2,1719.6,3467.4,3477.1,1511.5,2039.4,2629.7,3486.8,1807.1,3491.7,3473.4,3471.0,734.8,1006.5,2234.2,1365.7,1269.4,966.2,4.0,6.0,16.0,9662.0,-13047.0,-725.0,2077.0,13.0,-10.0,-9.0,-7.0,1.0,15.0,6885.0,-12096.0,7432.0,-4415.0,6.0,-1.0,-11.0,1.0
2022-05-23 13:35:56.644050-07:00,1491.2,967.9,1556.2,1482.9,1134.9,939.8,1897.7,1502.3,3461.3,3468.6,1533.8,1200.9,1882.0,3464.9,1798.4,1722.4,3464.9,3483.2,1522.7,2039.4,2614.5,3484.4,1807.1,3491.7,3467.4,3478.3,747.2,1006.5,2240.4,1368.5,1269.4,966.2,-7.0,5.0,5.0,9662.0,-13048.0,-729.0,2077.0,-32.0,-8.0,-11.0,-5.0,-4.0,8.0,6881.0,-12100.0,7428.0,-4416.0,-24.0,6.0,-13.0,1.0
2022-05-23 13:35:56.703701-07:00,1498.6,977.3,1565.5,1482.9,1125.2,939.8,1897.7,1502.3,3461.3,3463.7,1534.8,1200.9,1872.3,3464.9,1798.4,1722.4,3464.9,3483.2,1522.7,2034.4,2614.5,3491.7,1803.2,3491.7,3467.4,3478.3,747.2,1003.9,2240.4,1364.8,1269.4,961.1,0.0,-3.0,5.0,9657.0,-13052.0,-730.0,2073.0,5.0,9.0,-15.0,-5.0,-3.0,7.0,6878.0,-12102.0,7428.0,-4415.0,3.0,8.0,-10.0,1.0
2022-05-23 13:35:56.734320-07:00,1498.6,977.3,1565.5,1486.6,1125.2,939.0,1896.7,1506.9,3461.3,3463.7,1534.8,1199.1,1872.3,3478.3,1805.2,1711.9,3468.6,3463.7,1518.0,2034.4,2637.3,3491.7,1803.2,3491.7,3473.4,3467.4,746.3,1003.9,2227.0,1364.8,1269.4,961.1,-1.0,0.0,4.0,9655.0,-13053.0,-731.0,2072.0,-35.0,-5.0,6.0,-2.0,-3.0,7.0,6874.0,-12104.0,7429.0,-4414.0,-31.0,4.0,-6.0,1.0
2022-05-23 13:35:56.824612-07:00,1492.1,974.8,1561.8,1486.6,1128.7,939.0,1896.7,1506.9,3478.3,3462.5,1535.7,1199.1,1878.1,3478.3,1805.2,1711.9,3468.6,3463.7,1518.0,2041.4,2637.3,3489.2,1815.8,3489.2,3473.4,3467.4,746.3,998.7,2227.0,1364.8,1237.3,974.8,5.0,4.0,9.0,9650.0,-13057.0,-734.0,2075.0,19.0,-8.0,-4.0,-2.0,0.0,6.0,6872.0,-12105.0,7429.0,-4413.0,19.0,1.0,-7.0,1.0
2022-05-23 13:35:56.943757-07:00,1492.1,974.8,1561.8,1479.2,1128.7,938.1,1881.1,1507.8,3478.3,3462.5,1535.7,1194.7,1878.1,3466.1,1796.5,1724.4,3477.1,3467.4,1524.5,2041.4,2624.3,3489.2,1815.8,3489.2,3467.4,3474.6,741.4,998.7,2230.1,1364.8,1237.3,974.8,-3.0,2.0,9.0,9651.0,-13056.0,-734.0,2075.0,-13.0,-3.0,-5.0,-5.0,-6.0,14.0,6871.0,-12107.0,7428.0,-4413.0,-16.0,-1.0,-8.0,1.0
2022-05-23 13:35:56.945520-07:00,1492.1,980.7,1562.7,1487.5,1125.2,938.1,1881.1,1507.8,3463.7,3466.1,1532.9,1199.1,1875.2,3466.1,1796.5,1724.4,3477.1,3467.4,1524.5,2030.4,2631.9,3491.7,1795.5,3488.0,3467.4,3474.6,741.4,1008.2,2226.0,1358.5,1264.0,970.5,4.0,0.0,5.0,9649.0,-13056.0,-738.0,2078.0,-5.0,-19.0,-11.0,-4.0,1.0,3.0,6870.0,-12107.0,7429.0,-4413.0,-4.0,0.0,-7.0,1.0
2022-05-23 13:35:56.946228-07:00,1492.1,980.7,1562.7,1487.5,1131.4,932.2,1880.1,1510.6,3463.7,3466.1,1532.9,1199.1,1872.3,3468.6,1800.3,1717.7,3474.6,3477.1,1511.5,2022.4,2631.9,3491.7,1795.5,3488.0,3472.2,3477.1,738.1,1000.5,2226.0,1358.5,1264.0,970.5,1.0,1.0,10.0,9649.0,-13056.0,-739.0,2079.0,1.0,8.0,-1.0,0.0,-2.0,10.0,6870.0,-12107.0,7429.0,-4413.0,-4.0,0.0,-5.0,1.0
2022-05-23 13:35:57.004209-07:00,1497.7,979.9,1566.5,1478.3,1131.4,932.2,1880.1,1510.6,3467.4,3457.6,1528.3,1197.4,1872.3,3468.6,1800.3,1717.7,3474.6,3477.1,1511.5,2022.4,2629.7,3485.6,1799.4,3488.0,3472.2,3477.1,738.1,1000.5,2234.2,1359.4,1264.0,973.9,0.0,-3.0,4.0,9648.0,-13056.0,-743.0,2082.0,-21.0,-31.0,6.0,-6.0,-3.0,5.0,6869.0,-12107.0,7429.0,-4412.0,-10.0,0.0,0.0,1.0
2022-05-23 13:35:57.063752-07:00,1497.7,979.9,1566.5,1478.3,1131.4,930.5,1894.8,1507.8,3467.4,3457.6,1528.3,1197.4,1880.1,3472.2,1803.2,1717.7,3488.0,3472.2,1510.6,2039.4,2629.7,3485.6,1799.4,3488.0,3478.3,3477.1,741.4,998.7,2234.2,1359.4,1264.0,973.9,0.0,0.0,2.0,9637.0,-13060.0,-752.0,2104.0,-24.0,-96.0,43.0,-3.0,-3.0,7.0,6867.0,-12109.0,7431.0,-4410.0,6.0,-3.0,8.0,1.0
2022-05-23 13:35:57.094030-07:00,1489.3,968.8,1571.1,1484.7,1131.4,930.5,1894.8,1507.8,3467.4,3483.2,1519.9,1191.2,1880.1,3472.2,1803.2,1717.7,3488.0,3472.2,1510.6,2039.4,2631.9,3485.6,1795.5,3481.9,3478.3,3477.1,741.4,998.7,2214.7,1361.2,1265.8,971.3,13.0,16.0,21.0,9632.0,-13058.0,-761.0,2137.0,10.0,2.0,10.0,-3.0,4.0,7.0,6872.0,-12106.0,7426.0,-4415.0,21.0,-7.0,-19.0,1.0
2022-05-23 13:35:57.243813-07:00,1485.6,968.8,1571.1,1484.7,1133.1,944.1,1894.8,1502.3,3475.9,3483.2,1519.9,1191.2,1883.0,3464.9,1800.3,1717.7,3475.9,3473.4,1506.9,2029.4,2631.9,3485.6,1795.5,3485.6,3467.4,3471.0,742.2,997.9,2214.7,1361.2,1265.8,981.6,-20.0,4.0,5.0,9635.0,-13057.0,-757.0,2132.0,-10.0,-6.0,-14.0,-11.0,-9.0,18.0,6876.0,-12107.0,7420.0,-4419.0,-9.0,5.0,-14.0,1.0
2022-05-23 13:35:57.245640-07:00,1485.6,973.1,1559.0,1480.1,1133.1,944.1,1894.8,1514.3,3475.9,3463.7,1518.0,1195.6,1883.0,3464.9,1800.3,1719.6,3478.3,3473.4,1506.9,2029.4,2626.5,3486.8,1793.6,3485.6,3475.9,3471.0,742.2,997.9,2216.8,1369.4,1257.8,981.6,6.0,-6.0,5.0,9628.0,-13062.0,-759.0,2129.0,-17.0,11.0,9.0,0.0,-3.0,4.0,6870.0,-12110.0,7422.0,-4415.0,-12.0,2.0,4.0,1.0
2022-05-23 13:35:57.246417-07:00,1482.9,973.1,1559.0,1480.1,1134.9,936.4,1894.8,1514.3,3468.6,3463.7,1518.0,1195.6,1878.1,3462.5,1804.2,1719.6,3478.3,3479.5,1516.2,2028.4,2626.5,3486.8,1793.6,3491.7,3475.9,3473.4,739.7,993.6,2216.8,1369.4,1257.8,972.2,9.0,11.0,5.0,9634.0,-13058.0,-759.0,2127.0,21.0,0.0,-6.0,1.0,8.0,5.0,6876.0,-12107.0,7420.0,-4420.0,13.0,3.0,-4.0,1.0
2022-05-23 13:35:57.483705-07:00,1482.9,961.1,1561.8,1499.5,1134.9,936.4,1894.8,1508.8,3468.6,3471.0,1531.0,1188.5,1878.1,3462.5,1804.2,1726.3,3472.2,3479.5,1516.2,2028.4,2641.7,3495.3,1794.5,3491.7,3473.4,3473.4,739.7,993.6,2208.6,1374.8,1267.6,972.2,3.0,5.0,20.0,9634.0,-13058.0,-759.0,2127.0,2.0,1.0,-2.0,-6.0,-4.0,11.0,6876.0,-12106.0,7420.0,-4420.0,2.0,15.0,-3.0,1.0
2022-05-23 13:35:57.484936-07:00,1470.9,961.1,1561.8,1499.5,1125.2,929.6,1878.1,1508.8,3472.2,3471.0,1531.0,1188.5,1879.1,3468.6,1794.5,1726.3,3472.2,3468.6,1532.0,2025.4,2641.7,3495.3,1794.5,3490.5,3473.4,3483.2,740.6,1000.5,2208.6,1374.8,1267.6,962.0,-3.0,-1.0,9.0,9636.0,-13057.0,-761.0,2123.0,-13.0,19.0,-15.0,-6.0,-7.0,11.0,6871.0,-12104.0,7425.0,-4425.0,-14.0,24.0,-1.0,1.0
2022-05-23 13:35:57.513906-07:00,1470.9,973.1,1563.7,1484.7,1125.2,929.6,1878.1,1506.9,3472.2,3468.6,1521.8,1192.0,1879.1,3468.6,1794.5,1712.9,3467.4,3468.6,1532.0,2025.4,2622.1,3489.2,1795.5,3490.5,3473.4,3483.2,740.6,1000.5,2211.6,1382.1,1266.7,962.0,1.0,-8.0,1.0,9625.0,-13066.0,-759.0,2122.0,-58.0,-19.0,32.0,0.0,-4.0,5.0,6862.0,-12106.0,7433.0,-4421.0,-46.0,2.0,24.0,1.0
2022-05-23 13:35:57.515214-07:00,1485.6,973.9,1563.7,1484.7,1114.7,935.6,1901.6,1506.9,3468.6,3469.8,1521.8,1192.0,1881.1,3467.4,1803.2,1712.9,3467.4,3478.3,1514.3,2031.4,2622.1,3489.2,1788.7,3488.0,3473.4,3472.2,736.5,1001.3,2211.6,1382.1,1256.0,960.2,8.0,13.0,5.0,9608.0,-13076.0,-751.0,2140.0,0.0,-21.0,36.0,1.0,3.0,3.0,6859.0,-12106.0,7443.0,-4411.0,14.0,-13.0,16.0,1.0
2022-05-23 13:35:57.515995-07:00,1485.6,973.9,1559.9,1479.2,1114.7,935.6,1886.9,1500.4,3468.6,3469.8,1532.0,1192.9,1881.1,3467.4,1797.4,1710.0,3469.8,3480.7,1514.3,2031.4,2622.1,3495.3,1788.7,3488.0,3461.3,3469.8,736.5,1001.3,2191.2,1371.2,1256.0,960.2,-5.0,7.0,9.0,9615.0,-13069.0,-751.0,2151.0,31.0,-18.0,-3.0,-10.0,4.0,9.0,6869.0,-12100.0,7440.0,-4412.0,22.0,-6.0,-3.0,1.0
2022-05-23 13:35:57.574081-07:00,1470.9,970.5,1559.9,1479.2,1111.2,936.4,1886.9,1500.4,3466.1,3471.0,1532.0,1192.9,1890.9,3477.1,1797.4,1710.0,3469.8,3480.7,1522.7,2034.4,2622.1,3495.3,1791.6,3485.6,3461.3,3469.8,742.2,998.7,2191.2,1371.2,1257.8,979.0,2.0,5.0,19.0,9618.0,-13066.0,-751.0,2154.0,-6.0,16.0,-2.0,-3.0,-5.0,14.0,6871.0,-12099.0,7441.0,-4412.0,-11.0,15.0,1.0,1.0
2022-05-23 13:35:57.603808-07:00,1470.9,970.5,1556.2,1481.0,1111.2,936.4,1876.2,1494.9,3466.1,3471.0,1519.0,1187.6,1890.9,3477.1,1796.5,1710.0,3479.5,3483.2,1522.7,2034.4,2633.0,3492.9,1791.6,3485.6,3457.6,3467.4,742.2,998.7,2214.7,1371.2,1257.8,979.0,12.0,-2.0,11.0,9618.0,-13067.0,-756.0,2148.0,-5.0,8.0,-18.0,0.0,0.0,3.0,6865.0,-12100.0,7445.0,-4414.0,-12.0,7.0,0.0,1.0
2022-05-23 13:35:57.723744-07:00,1474.6,970.5,1556.2,1481.0,1115.6,927.9,1876.2,1494.9,3463.7,3474.6,1519.0,1187.6,1900.7,3473.4,1796.5,1710.0,3479.5,3483.2,1519.0,2039.4,2633.0,3492.9,1796.5,3490.5,3457.6,3467.4,741.4,998.7,2214.7,1371.2,1259.6,965.4,13.0,-15.0,15.0,9634.0,-13058.0,-748.0,2130.0,69.0,113.0,37.0,-2.0,-5.0,5.0,6870.0,-12097.0,7443.0,-4417.0,48.0,4.0,3.0,1.0
2022-05-23 13:35:57.874432-07:00,1474.6,970.5,1570.2,1493.0,1115.6,944.1,1872.3,1455.2,3463.7,3474.6,1526.4,1200.0,1900.7,3467.4,1806.1,1718.6,3472.2,3472.2,1514.3,2039.4,2631.9,3486.8,1796.5,3490.5,3471.0,3471.0,744.7,998.7,2281.7,1375.7,1259.6,965.4,6.0,19.0,36.0,9653.0,-13057.0,-659.0,2080.0,-26.0,415.0,174.0,-12.0,4.0,7.0,6870.0,-12095.0,7448.0,-4413.0,-109.0,5.0,21.0,1.0
2022-05-23 13:35:57.875725-07:00,1556.2,1005.6,1604.9,1493.0,1160.3,944.1,1872.3,1455.2,3460.1,3469.8,1542.2,1200.0,2059.4,3467.4,1806.1,1718.6,3472.2,3472.2,1514.3,2035.4,2631.9,3491.7,1852.8,3481.9,3471.0,3471.0,744.7,1030.6,2281.7,1453.4,1290.0,957.7,-5.0,16.0,6.0,9617.0,-13107.0,-511.0,1972.0,-141.0,385.0,89.0,6.0,-14.0,29.0,6824.0,-12111.0,7476.0,-4393.0,-171.0,60.0,22.0,1.0
2022-05-23 13:35:57.876487-07:00,1556.2,1005.6,1604.9,1548.7,1160.3,955.1,1893.8,1503.2,3460.1,3469.8,1542.2,1218.6,2059.4,3466.1,1920.3,1755.0,3471.0,3462.5,1517.1,2035.4,2633.0,3491.7,1852.8,3481.9,3473.4,3475.9,747.2,1030.6,2553.0,1453.4,1290.0,957.7,17.0,40.0,-43.0,9574.0,-13159.0,-419.0,1852.0,-150.0,371.0,-74.0,-2.0,12.0,-6.0,6760.0,-12131.0,7511.0,-4375.0,-230.0,32.0,-6.0,1.0
2022-05-23 13:35:57.877446-07:00,1535.7,1009.0,1826.5,1548.7,1167.4,955.1,1893.8,1503.2,3472.2,3457.6,1615.2,1218.6,2205.5,3466.1,1920.3,1755.0,3471.0,3462.5,1517.1,2024.4,2633.0,3492.9,1926.2,3485.6,3473.4,3475.9,747.2,1065.1,2553.0,1616.2,1444.2,979.9,-8.0,-34.0,-6.0,9524.0,-13218.0,-359.0,1705.0,-117.0,325.0,13.0,-15.0,2.0,-17.0,6693.0,-12168.0,7530.0,-4343.0,-76.0,-14.0,-17.0,1.0
2022-05-23 13:35:58.054091-07:00,1535.7,1009.0,1826.5,1663.4,1167.4,952.6,1886.9,1505.1,3472.2,3457.6,1615.2,1277.4,2205.5,3471.0,2087.6,1866.4,3473.4,3471.0,1522.7,2024.4,2624.3,3492.9,1926.2,3485.6,3469.8,3469.8,742.2,1065.1,2561.6,1616.2,1444.2,979.9,9.0,7.0,23.0,9511.0,-13238.0,-267.0,1626.0,23.0,207.0,67.0,8.0,-10.0,9.0,6690.0,-12172.0,7529.0,-4339.0,29.0,2.0,-4.0,1.0
2022-05-23 13:35:58.056833-07:00,1515.3,970.5,1883.0,1661.5,1142.7,952.6,1886.9,1505.1,3467.4,3471.0,1627.5,1266.7,2165.6,3471.0,2087.6,1866.4,3473.4,3471.0,1522.7,2030.4,2631.9,3495.3,1945.0,3492.9,3469.8,3469.8,742.2,1067.7,2509.0,1606.8,1507.8,998.7,19.0,1.0,10.0,9511.0,-13248.0,-198.0,1564.0,-43.0,243.0,46.0,5.0,-3.0,15.0,6692.0,-12169.0,7529.0,-4345.0,0.0,23.0,9.0,1.0
2022-05-23 13:35:58.058007-07:00,1515.3,970.5,1883.0,1661.5,1146.3,956.8,1895.8,1493.0,3467.4,3471.0,1627.5,1266.7,2134.1,3472.2,2095.7,1873.2,3471.0,3477.1,1522.7,2033.4,2631.9,3495.3,1945.0,3492.9,3478.3,3474.6,742.2,1057.3,2509.0,1606.8,1507.8,998.7,-6.0,10.0,31.0,9494.0,-13269.0,-125.0,1493.0,-70.0,230.0,30.0,-3.0,-5.0,9.0,6672.0,-12172.0,7542.0,-4343.0,-63.0,32.0,10.0,1.0
2022-05-23 13:35:58.058855-07:00,1494.0,945.8,1931.1,1626.5,1146.3,956.8,1895.8,1493.0,3477.1,3473.4,1626.5,1252.4,2134.1,3472.2,2095.7,1873.2,3471.0,3477.1,1522.7,2033.4,2636.2,3488.0,1941.0,3491.7,3478.3,3474.6,742.2,1057.3,2473.8,1607.7,1527.3,979.9,10.0,2.0,19.0,9485.0,-13284.0,-68.0,1416.0,45.0,255.0,-22.0,-6.0,-1.0,8.0,6657.0,-12172.0,7552.0,-4350.0,-18.0,34.0,1.0,1.0
2022-05-23 13:35:58.233827-07:00,1494.0,945.8,1931.1,1626.5,1128.7,967.9,1908.5,1472.7,3477.1,3473.4,1626.5,1252.4,2099.7,3462.5,2072.5,1880.1,3469.8,3471.0,1506.9,2033.4,2636.2,3488.0,1941.0,3491.7,3473.4,3478.3,743.9,1062.5,2473.8,1607.7,1527.3,979.9,-21.0,2.0,-4.0,9501.0,-13282.0,-19.0,1326.0,-19.0,174.0,-32.0,-7.0,2.0,5.0,6626.0,-12180.0,7568.0,-4347.0,-115.0,37.0,7.0,1.0
2022-05-23 13:35:58.235102-07:00,1518.0,936.4,1876.2,1586.1,1128.7,967.9,1908.5,1472.7,3478.3,3469.8,1632.2,1231.9,2099.7,3462.5,2072.5,1880.1,3469.8,3471.0,1506.9,2033.4,2629.7,3486.8,1950.9,3489.2,3473.4,3478.3,743.9,1062.5,2434.6,1580.5,1527.3,980.7,16.0,-19.0,-6.0,9503.0,-13286.0,13.0,1270.0,122.0,147.0,9.0,2.0,-9.0,-3.0,6597.0,-12188.0,7582.0,-4344.0,9.0,36.0,1.0,1.0
2022-05-23 13:35:58.236073-07:00,1518.0,936.4,1876.2,1586.1,1135.7,959.4,1940.0,1468.1,3478.3,3469.8,1632.2,1231.9,2079.5,3464.9,2030.4,1869.3,3478.3,3472.2,1507.8,2039.4,2629.7,3486.8,1950.9,3489.2,3466.1,3467.4,745.5,1055.6,2434.6,1580.5,1527.3,980.7,-27.0,-2.0,-2.0,9578.0,-13237.0,60.0,1217.0,270.0,121.0,2.0,-3.0,-12.0,24.0,6622.0,-12167.0,7580.0,-4370.0,107.0,38.0,21.0,1.0
2022-05-23 13:35:58.414376-07:00,1523.6,928.8,1831.3,1521.8,1135.7,959.4,1940.0,1481.0,3460.1,3474.6,1635.0,1195.6,2079.5,3464.9,2030.4,1843.0,3473.4,3472.2,1507.8,2039.4,2631.9,3488.0,2001.5,3491.7,3464.9,3467.4,745.5,1055.6,2418.7,1571.1,1530.1,971.3,41.0,7.0,2.0,9635.0,-13198.0,88.0,1191.0,145.0,17.0,8.0,4.0,2.0,-2.0,6635.0,-12150.0,7587.0,-4385.0,93.0,24.0,16.0,1.0
2022-05-23 13:35:58.713624-07:00,1508.8,928.8,1831.3,1521.8,1139.2,956.0,1944.0,1481.0,3467.4,3474.6,1635.0,1195.6,2083.6,3462.5,1983.6,1843.0,3473.4,3461.3,1511.5,2031.4,2631.9,3488.0,2001.5,3485.6,3464.9,3467.4,736.5,1063.4,2418.7,1571.1,1530.1,967.9,-10.0,-12.0,1.0,9684.0,-13164.0,122.0,1166.0,55.0,62.0,52.0,-1.0,-8.0,11.0,6649.0,-12136.0,7586.0,-4404.0,-7.0,31.0,3.0,1.0
2022-05-23 13:35:58.744453-07:00,1508.8,933.0,1772.3,1452.5,1139.2,956.0,1944.0,1467.2,3467.4,3468.6,1611.5,1177.9,2083.6,3462.5,1983.6,1763.7,3478.3,3461.3,1511.5,2031.4,2640.6,3492.9,2040.4,3485.6,3485.6,3467.4,736.5,1063.4,2394.5,1506.9,1523.6,967.9,0.0,14.0,12.0,9698.0,-13153.0,166.0,1166.0,-9.0,77.0,69.0,-2.0,1.0,6.0,6640.0,-12131.0,7598.0,-4410.0,-58.0,39.0,14.0,1.0
2022-05-23 13:35:58.804541-07:00,1513.4,933.0,1772.3,1452.5,1134.0,952.6,1945.0,1467.2,3464.9,3468.6,1611.5,1177.9,2059.4,3458.9,1902.6,1763.7,3478.3,3477.1,1513.4,2027.4,2640.6,3492.9,2040.4,3490.5,3485.6,3472.2,730.7,1059.9,2394.5,1506.9,1523.6,962.8,11.0,6.0,-4.0,9687.0,-13161.0,201.0,1151.0,-55.0,37.0,15.0,-10.0,-3.0,-2.0,6609.0,-12138.0,7614.0,-4410.0,-63.0,44.0,2.0,1.0
2022-05-23 13:35:58.864434-07:00,1513.4,912.7,1703.3,1375.7,1134.0,952.6,1945.0,1464.4,3464.9,3467.4,1567.4,1139.2,2059.4,3458.9,1902.6,1686.2,3480.7,3477.1,1513.4,2027.4,2631.9,3497.8,2081.6,3490.5,3480.7,3472.2,730.7,1059.9,2395.5,1447.9,1463.5,962.8,-6.0,16.0,-13.0,9682.0,-13168.0,212.0,1125.0,14.0,65.0,-41.0,-4.0,0.0,3.0,6596.0,-12139.0,7620.0,-4418.0,-2.0,31.0,-18.0,1.0
2022-05-23 13:35:58.954509-07:00,1507.8,919.4,1703.3,1375.7,1132.2,944.9,1924.3,1464.4,3471.0,3464.9,1567.4,1139.2,2044.4,3469.8,1783.9,1686.2,3480.7,3467.4,1506.0,2035.4,2631.9,3497.8,2130.1,3489.2,3480.7,3467.4,730.7,1055.6,2395.5,1447.9,1403.0,962.0,17.0,-2.0,6.0,9685.0,-13166.0,219.0,1113.0,37.0,43.0,67.0,-1.0,9.0,-6.0,6590.0,-12145.0,7609.0,-4427.0,16.0,-4.0,-54.0,1.0
2022-05-23 13:35:59.164397-07:00,1507.8,919.4,1592.7,1299.0,1132.2,944.9,1934.1,1492.1,3471.0,3464.9,1502.3,1104.3,2044.4,3469.8,1699.5,1635.0,3478.3,3475.9,1506.0,2035.4,2652.6,3486.8,2130.1,3489.2,3475.9,3478.3,730.7,1055.6,2360.9,1381.2,1403.0,962.0,-6.0,28.0,0.0,9690.0,-13162.0,222.0,1117.0,-194.0,-95.0,-96.0,5.0,4.0,12.0,6534.0,-12185.0,7592.0,-4432.0,-231.0,36.0,-54.0,1.0
2022-05-23 13:35:59.194247-07:00,6.0,-17.0,12.0,9555.0,-13242.0,-57.0,1331.0,-102.0,-228.0,-53.0,-22.0,3.0,-9.0,6386.0,-12271.0,7611.0,-4376.0,-65.0,-34.0,-64.0,1.0,-14.0,-13.0,48.0,9522.0,-13260.0,-107.0,1389.0,-45.0,-108.0,17.0,0.0,-21.0,27.0,6365.0,-12291.0,7603.0,-4365.0,-59.0,9.0,-22.0,1.0,11.0,18.0,52.0,9531.0,-13250.0,-137.0,1414.0,0.0,22.0,-116.0,-3.0
2022-05-23 13:35:59.194813-07:00,6.0,-17.0,12.0,9555.0,-13242.0,-57.0,1331.0,-102.0,-228.0,-53.0,-22.0,3.0,-9.0,6386.0,-12271.0,7611.0,-4376.0,-65.0,-34.0,-64.0,1.0,-14.0,-13.0,48.0,9522.0,-13260.0,-107.0,1389.0,-45.0,-108.0,17.0,0.0,-21.0,27.0,6365.0,-12291.0,7603.0,-4365.0,-59.0,9.0,-22.0,1.0,-11.0,8.0,8.0,6326.0,-12294.0,7635.0,-4358.0,42.0,36.0,13.0,1.0
2022-05-23 13:35:59.195588-07:00,1500.4,913.5,1343.1,1165.6,1094.7,935.6,1902.6,1469.0,3475.9,3457.6,1297.2,1015.1,1907.5,3467.4,1506.9,1498.6,3475.9,3474.6,1512.5,2040.4,2678.8,3486.8,2174.8,3494.1,3472.2,3474.6,727.4,1028.8,2229.1,1215.1,1199.1,953.4,8.0,-1.0,17.0,9568.0,-13232.0,-177.0,1339.0,140.0,178.0,-196.0,-12.0,-23.0,2.0,6303.0,-12300.0,7647.0,-4353.0,-83.0,18.0,9.0,1.0
2022-05-23 13:35:59.196866-07:00,1500.4,913.5,1343.1,1143.6,1094.7,940.7,1875.2,1450.6,3475.9,3457.6,1297.2,1004.8,1907.5,3462.5,1490.3,1471.8,3479.5,3462.5,1504.1,2040.4,2686.4,3486.8,2174.8,3494.1,3474.6,3468.6,708.5,1028.8,2187.1,1215.1,1199.1,953.4,-19.0,-47.0,-17.0,9572.0,-13236.0,-166.0,1262.0,-176.0,105.0,121.0,-12.0,-23.0,2.0,6303.0,-12300.0,7647.0,-4353.0,-83.0,18.0,9.0,1.0
2022-05-23 13:35:59.197391-07:00,1500.4,913.5,1343.1,1143.6,1094.7,940.7,1875.2,1450.6,3475.9,3457.6,1297.2,1004.8,1907.5,3462.5,1490.3,1471.8,3479.5,3462.5,1504.1,2040.4,2686.4,3486.8,2174.8,3494.1,3474.6,3468.6,708.5,1028.8,2187.1,1215.1,1199.1,953.4,-19.0,-47.0,-17.0,9572.0,-13236.0,-166.0,1262.0,-176.0,105.0,121.0,-12.0,-23.0,2.0,6303.0,-12300.0,7647.0,-4353.0,-83.0,18.0,9.0,1.0
2022-05-23 13:35:59.198811-07:00,1500.4,913.5,1343.1,1143.6,1094.7,940.7,1875.2,1450.6,3475.9,3457.6,1297.2,1004.8,1907.5,3462.5,1490.3,1471.8,3479.5,3462.5,1504.1,2040.4,2686.4,3486.8,2174.8,3494.1,3474.6,3468.6,708.5,1028.8,2187.1,1215.1,1199.1,953.4,-19.0,-47.0,-17.0,9572.0,-13236.0,-166.0,1262.0,-176.0,105.0,121.0,0.0,-6.0,20.0,6427.0,-12246.0,7588.0,-4425.0,118.0,-20.0,-17.0,1.0
2022-05-23 13:35:59.224446-07:00,1488.4,902.5,1287.3,1127.9,1066.0,940.7,1860.6,1422.2,3471.0,3475.9,1275.6,992.7,1854.7,3469.8,1441.5,1439.6,3469.8,3475.9,1501.4,2038.4,2662.4,3483.2,2137.2,3489.2,3478.3,3478.3,715.9,986.7,2120.9,1172.6,1162.1,939.8,-11.0,-8.0,12.0,9708.0,-13135.0,-257.0,1267.0,138.0,-41.0,40.0,-2.0,-1.0,6.0,6440.0,-12243.0,7580.0,-4428.0,-39.0,-9.0,-1.0,1.0
2022-05-23 13:35:59.313722-07:00,1481.9,888.2,1288.2,1118.2,1066.0,940.7,1860.6,1398.5,3467.4,3466.1,1267.6,986.7,1854.7,3469.8,1441.5,1428.6,3477.1,3475.9,1501.4,2038.4,2670.0,3486.8,2124.0,3481.9,3477.1,3478.3,715.9,986.7,2114.9,1169.1,1150.6,944.1,9.0,5.0,24.0,9717.0,-13125.0,-249.0,1293.0,-33.0,10.0,39.0,-9.0,-1.0,7.0,6444.0,-12241.0,7581.0,-4428.0,20.0,2.0,14.0,1.0
2022-05-23 13:35:59.403918-07:00,1478.3,888.2,1288.2,1118.2,1067.7,934.7,1854.7,1398.5,3469.8,3466.1,1267.6,986.7,1839.1,3472.2,1425.9,1428.6,3477.1,3480.7,1491.2,2028.4,2670.0,3486.8,2124.0,3483.2,3477.1,3478.3,719.2,971.3,2114.9,1169.1,1150.6,936.4,-17.0,11.0,-9.0,9727.0,-13119.0,-231.0,1285.0,53.0,12.0,-4.0,-5.0,0.0,-5.0,6440.0,-12243.0,7585.0,-4420.0,-23.0,-13.0,1.0,1.0
2022-05-23 13:35:59.405578-07:00,1478.3,894.1,1267.6,1126.1,1067.7,934.7,1854.7,1397.6,3469.8,3471.0,1264.9,978.2,1839.1,3472.2,1425.9,1423.1,3466.1,3480.7,1491.2,2028.4,2649.3,3489.2,2112.8,3483.2,3473.4,3478.3,719.2,971.3,2079.5,1168.2,1149.8,936.4,10.0,3.0,-2.0,9725.0,-13120.0,-234.0,1288.0,-36.0,-5.0,-3.0,-3.0,-2.0,-2.0,6449.0,-12242.0,7580.0,-4417.0,27.0,-18.0,3.0,1.0
2022-05-23 13:35:59.434281-07:00,1481.9,894.1,1267.6,1126.1,1062.5,923.7,1833.3,1397.6,3466.1,3471.0,1264.9,978.2,1839.1,3475.9,1424.1,1423.1,3466.1,3463.7,1504.1,2024.4,2649.3,3489.2,2112.8,3488.0,3473.4,3471.0,711.8,974.8,2079.5,1168.2,1149.8,936.4,4.0,0.0,0.0,9728.0,-13119.0,-235.0,1287.0,17.0,3.0,14.0,5.0,1.0,6.0,6460.0,-12238.0,7577.0,-4419.0,50.0,-4.0,13.0,1.0
2022-05-23 13:35:59.704565-07:00,1481.9,899.1,1273.9,1115.6,1062.5,923.7,1833.3,1393.0,3466.1,3457.6,1274.7,986.7,1839.1,3475.9,1424.1,1421.3,3480.7,3463.7,1504.1,2024.4,2654.7,3486.8,2102.7,3488.0,3484.4,3471.0,711.8,974.8,2070.5,1165.6,1147.1,936.4,0.0,15.0,-3.0,9732.0,-13114.0,-238.0,1299.0,58.0,-103.0,-33.0,-10.0,10.0,-5.0,6478.0,-12231.0,7567.0,-4430.0,46.0,-15.0,-32.0,1.0
2022-05-23 13:35:59.943655-07:00,1469.0,897.4,1273.9,1115.6,1061.7,917.7,1826.5,1393.0,3468.6,3469.8,1274.7,986.7,1828.4,3460.1,1421.3,1421.3,3480.7,3472.2,1504.1,2030.4,2654.7,3486.8,2103.7,3488.0,3484.4,3472.2,708.5,967.1,2070.5,1165.6,1145.4,935.6,8.0,21.0,-8.0,9757.0,-13093.0,-286.0,1313.0,34.0,-48.0,-86.0,-10.0,-13.0,7.0,6478.0,-12240.0,7552.0,-4430.0,-3.0,-17.0,-26.0,1.0
2022-05-23 13:35:59.973894-07:00,1469.0,897.4,1268.5,1118.2,1061.7,917.7,1823.6,1388.5,3468.6,3469.8,1267.6,981.6,1828.4,3460.1,1414.9,1418.6,3468.6,3467.4,1504.1,2030.4,2666.8,3488.0,2103.7,3488.0,3472.2,3472.2,708.5,967.1,2074.5,1163.0,1145.4,935.6,-5.0,-20.0,15.0,9754.0,-13094.0,-324.0,1319.0,-2.0,-56.0,-2.0,-4.0,3.0,-1.0,6492.0,-12233.0,7548.0,-4436.0,26.0,8.0,10.0,1.0
2022-05-23 13:35:59.975235-07:00,1477.3,888.2,1268.5,1118.2,1045.2,918.6,1823.6,1388.5,3468.6,3467.4,1267.6,981.6,1834.3,3464.9,1414.9,1418.6,3468.6,3467.4,1505.1,2037.4,2666.8,3488.0,2094.7,3484.4,3472.2,3472.2,713.4,976.5,2074.5,1163.0,1141.9,931.3,3.0,16.0,13.0,9762.0,-13086.0,-332.0,1337.0,3.0,-16.0,-5.0,-6.0,0.0,2.0,6493.0,-12232.0,7549.0,-4435.0,-4.0,8.0,7.0,1.0
2022-05-23 13:35:59.976168-07:00,1477.3,888.2,1269.4,1108.6,1045.2,918.6,1821.6,1378.5,3468.6,3467.4,1261.3,978.2,1834.3,3464.9,1416.7,1404.9,3468.6,3478.3,1505.1,2037.4,2662.4,3491.7,2094.7,3484.4,3473.4,3479.5,713.4,976.5,2064.5,1166.5,1141.9,931.3,-6.0,0.0,4.0,9765.0,-13085.0,-334.0,1328.0,-14.0,34.0,-1.0,-6.0,0.0,2.0,6493.0,-12232.0,7549.0,-4435.0,-4.0,8.0,7.0,1.0
2022-05-23 13:35:59.976869-07:00,1477.3,888.2,1269.4,1108.6,1045.2,918.6,1821.6,1378.5,3468.6,3467.4,1261.3,978.2,1834.3,3464.9,1416.7,1404.9,3468.6,3478.3,1505.1,2037.4,2662.4,3491.7,2094.7,3484.4,3473.4,3479.5,713.4,976.5,2064.5,1166.5,1141.9,931.3,-6.0,0.0,4.0,9765.0,-13085.0,-334.0,1328.0,-14.0,34.0,-1.0,4.0,0.0,3.0,6489.0,-12226.0,7565.0,-4431.0,-3.0,-7.0,16.0,1.0
2022-05-23 13:35:59.978774-07:00,1457.1,894.1,1266.7,1102.5,1054.8,916.0,1820.7,1381.2,3456.4,3466.1,1256.9,980.7,1813.9,3464.9,1414.9,1411.3,3471.0,3467.4,1504.1,2034.4,2653.7,3494.1,2094.7,3481.9,3458.9,3463.7,705.2,966.2,2055.4,1175.3,1135.7,923.7,9.0,11.0,-14.0,9761.0,-13092.0,-332.0,1280.0,40.0,33.0,-133.0,-13.0,4.0,-3.0,6627.0,-12157.0,7557.0,-4430.0,27.0,11.0,40.0,1.0
2022-05-23 13:36:00.093636-07:00,-16.0,-29.0,-8.0,9777.0,-13083.0,-371.0,1246.0,3.0,-20.0,-36.0,-7.0,-15.0,5.0,6498.0,-12227.0,7558.0,-4426.0,5.0,-36.0,-10.0,1.0,3.0,-3.0,35.0,9833.0,-13033.0,-328.0,1341.0,-3.0,25.0,38.0,0.0,-11.0,25.0,6612.0,-12173.0,7545.0,-4429.0,-6.0,-11.0,47.0,1.0,-15.0,-1.0,3.0,6636.0,-12148.0,7565.0,-4426.0,6.0,-1.0,22.0,1.0
2022-05-23 13:36:00.094859-07:00,1458.9,883.9,1264.9,1109.5,1041.8,922.8,1798.4,1361.2,3464.9,3463.7,1254.2,980.7,1809.0,3471.0,1419.5,1404.0,3467.4,3467.4,1508.8,2030.4,2662.4,3489.2,2082.6,3490.5,3472.2,3467.4,704.4,967.1,2037.4,1180.6,1130.5,926.2,5.0,11.0,0.0,9846.0,-13024.0,-309.0,1333.0,55.0,51.0,7.0,-9.0,-6.0,3.0,6637.0,-12145.0,7573.0,-4420.0,-9.0,-8.0,17.0,1.0
2022-05-23 13:36:00.273899-07:00,1458.9,883.9,1264.9,1106.9,1035.7,918.6,1799.4,1370.3,3464.9,3463.7,1254.2,978.2,1795.5,3468.6,1407.6,1408.5,3474.6,3471.0,1496.7,2032.4,2648.2,3489.2,2082.6,3490.5,3479.5,3472.2,703.6,963.7,2042.4,1180.6,1130.5,926.2,-18.0,5.0,-8.0,9861.0,-13016.0,-274.0,1307.0,32.0,85.0,35.0,-1.0,0.0,8.0,6659.0,-12134.0,7568.0,-4425.0,88.0,-18.0,6.0,1.0
2022-05-23 13:36:00.275467-07:00,1459.8,889.8,1241.7,1111.2,1035.7,918.6,1799.4,1370.3,3475.9,3468.6,1256.0,979.0,1795.5,3468.6,1407.6,1408.5,3474.6,3471.0,1496.7,2032.4,2652.6,3492.9,2079.5,3494.1,3479.5,3472.2,703.6,963.7,2031.4,1185.9,1133.1,922.0,-10.0,0.0,-12.0,9857.0,-13020.0,-257.0,1306.0,-1.0,-15.0,9.0,-3.0,3.0,3.0,6694.0,-12119.0,7553.0,-4438.0,77.0,-20.0,-10.0,1.0
2022-05-23 13:36:00.276320-07:00,1459.8,889.8,1241.7,1111.2,1040.9,919.4,1787.8,1363.0,3475.9,3468.6,1256.0,979.0,1803.2,3473.4,1414.9,1400.3,3467.4,3471.0,1495.8,2033.4,2652.6,3492.9,2079.5,3494.1,3475.9,3472.2,694.6,963.7,2031.4,1185.9,1133.1,922.0,1.0,11.0,0.0,9867.0,-13010.0,-256.0,1322.0,89.0,-47.0,24.0,-2.0,0.0,5.0,6706.0,-12116.0,7547.0,-4440.0,10.0,-6.0,-5.0,1.0
2022-05-23 13:36:00.304027-07:00,1455.2,865.4,1242.6,1106.9,1040.9,919.4,1787.8,1363.0,3473.4,3468.6,1249.7,972.2,1803.2,3473.4,1414.9,1400.3,3467.4,3471.0,1495.8,2033.4,2681.0,3489.2,2068.5,3492.9,3475.9,3472.2,694.6,963.7,2027.4,1164.7,1127.9,926.2,-3.0,8.0,0.0,9900.0,-12983.0,-258.0,1345.0,57.0,-52.0,30.0,1.0,0.0,12.0,6705.0,-12114.0,7549.0,-4444.0,-27.0,25.0,-3.0,1.0
2022-05-23 13:36:00.305505-07:00,1455.2,865.4,1242.6,1106.9,1039.2,919.4,1790.7,1363.9,3473.4,3468.6,1249.7,972.2,1799.4,3469.8,1415.8,1404.9,3478.3,3467.4,1494.9,2032.4,2681.0,3489.2,2068.5,3492.9,3467.4,3478.3,692.9,963.7,2027.4,1164.7,1127.9,926.2,11.0,9.0,25.0,9907.0,-12975.0,-263.0,1371.0,11.0,-27.0,1.0,-4.0,-1.0,0.0,6687.0,-12118.0,7557.0,-4444.0,-29.0,30.0,-10.0,1.0
2022-05-23 13:36:00.333701-07:00,1463.5,884.8,1246.2,1108.6,1039.2,919.4,1790.7,1363.9,3457.6,3467.4,1248.0,972.2,1799.4,3469.8,1415.8,1404.9,3478.3,3467.4,1494.9,2032.4,2648.2,3485.6,2079.5,3490.5,3467.4,3478.3,692.9,963.7,2017.4,1160.3,1127.9,920.3,-6.0,4.0,0.0,9915.0,-12968.0,-267.0,1371.0,-16.0,-4.0,-5.0,-6.0,0.0,3.0,6683.0,-12117.0,7559.0,-4452.0,17.0,23.0,-10.0,1.0
2022-05-23 13:36:00.454684-07:00,1462.6,884.8,1246.2,1108.6,1049.6,908.4,1778.1,1361.2,3467.4,3467.4,1248.0,972.2,1792.6,3466.1,1413.1,1393.0,3473.4,3467.4,1506.9,2030.4,2648.2,3485.6,2079.5,3485.6,3472.2,3473.4,706.9,961.1,2017.4,1160.3,1127.9,922.8,0.0,1.0,6.0,9901.0,-12979.0,-269.0,1371.0,-39.0,23.0,10.0,-4.0,0.0,1.0,6675.0,-12119.0,7562.0,-4455.0,-38.0,18.0,-15.0,1.0
2022-05-23 13:36:00.455724-07:00,1462.6,889.8,1244.4,1107.8,1049.6,908.4,1778.1,1358.5,3467.4,3460.1,1245.3,968.8,1792.6,3466.1,1413.1,1404.9,3485.6,3467.4,1506.9,2030.4,2648.2,3479.5,2070.5,3485.6,3474.6,3473.4,706.9,961.1,2008.4,1172.6,1129.6,922.8,-1.0,8.0,-2.0,9899.0,-12981.0,-262.0,1366.0,25.0,8.0,-18.0,3.0,-5.0,6.0,6665.0,-12122.0,7560.0,-4463.0,16.0,17.0,-20.0,1.0
2022-05-23 13:36:00.483696-07:00,1459.8,889.8,1244.4,1107.8,1030.6,907.6,1787.8,1358.5,3464.9,3460.1,1245.3,968.8,1795.5,3461.3,1419.5,1404.9,3485.6,3475.9,1493.0,2031.4,2648.2,3479.5,2070.5,3486.8,3474.6,3472.2,697.9,958.5,2008.4,1172.6,1129.6,922.8,-1.0,7.0,-2.0,9898.0,-12982.0,-272.0,1362.0,-44.0,-21.0,-26.0,1.0,-1.0,6.0,6659.0,-12120.0,7561.0,-4474.0,-27.0,24.0,-9.0,1.0
2022-05-23 13:36:00.663722-07:00,1459.8,878.9,1248.8,1106.9,1030.6,907.6,1787.8,1370.3,3464.9,3468.6,1244.4,968.8,1795.5,3461.3,1419.5,1405.8,3468.6,3475.9,1493.0,2031.4,2640.6,3494.1,2070.5,3486.8,3478.3,3472.2,697.9,958.5,2014.4,1174.4,1129.6,922.8,-1.0,-2.0,6.0,9892.0,-12987.0,-286.0,1358.0,24.0,15.0,-17.0,-1.0,-3.0,1.0,6647.0,-12122.0,7568.0,-4476.0,-3.0,22.0,0.0,1.0
2022-05-23 13:36:00.665128-07:00,1448.8,878.9,1248.8,1106.9,1035.7,909.3,1774.3,1370.3,3464.9,3468.6,1244.4,968.8,1788.7,3462.5,1424.1,1405.8,3468.6,3472.2,1503.2,2031.4,2640.6,3494.1,2070.5,3481.9,3478.3,3477.1,697.9,954.3,2014.4,1174.4,1129.6,922.0,5.0,6.0,7.0,9897.0,-12983.0,-292.0,1355.0,-13.0,-17.0,-15.0,-2.0,2.0,4.0,6639.0,-12121.0,7575.0,-4480.0,-27.0,22.0,10.0,1.0
2022-05-23 13:36:00.665997-07:00,1448.8,870.5,1241.7,1105.1,1035.7,909.3,1775.2,1361.2,3464.9,3457.6,1244.4,977.3,1788.7,3462.5,1417.6,1398.5,3471.0,3471.0,1503.2,2031.4,2648.2,3486.8,2055.4,3481.9,3477.1,3473.4,697.9,954.3,2015.4,1173.5,1129.6,922.0,5.0,-3.0,8.0,9885.0,-12992.0,-298.0,1355.0,2.0,26.0,4.0,-10.0,0.0,0.0,6625.0,-12123.0,7583.0,-4479.0,-35.0,17.0,2.0,1.0
2022-05-23 13:36:00.667932-07:00,1440.5,882.3,1241.7,1105.1,1028.8,901.7,1775.2,1361.2,3473.4,3474.6,1244.4,977.3,1780.1,3469.8,1417.6,1398.5,3471.0,3471.0,1501.4,2022.4,2648.2,3486.8,2065.5,3485.6,3477.1,3473.4,699.5,956.0,2015.4,1173.5,1129.6,923.7,-1.0,6.0,-2.0,9882.0,-12995.0,-288.0,1350.0,-35.0,1.0,24.0,-8.0,0.0,1.0,6617.0,-12127.0,7587.0,-4475.0,-19.0,9.0,-10.0,1.0
2022-05-23 13:36:00.783619-07:00,1440.5,882.3,1239.1,1106.0,1028.8,901.7,1780.1,1335.9,3473.4,3474.6,1246.2,978.2,1780.1,3469.8,1416.7,1389.4,3468.6,3468.6,1501.4,2022.4,2640.6,3481.9,2065.5,3485.6,3460.1,3457.6,699.5,956.0,2003.5,1170.9,1129.6,923.7,-5.0,12.0,-6.0,9866.0,-13006.0,-286.0,1359.0,-55.0,-26.0,10.0,0.0,0.0,-2.0,6606.0,-12133.0,7590.0,-4470.0,-36.0,9.0,-7.0,1.0
2022-05-23 13:36:00.784994-07:00,1451.6,884.8,1239.1,1106.0,1021.1,910.1,1780.1,1335.9,3462.5,3463.7,1246.2,978.2,1781.0,3471.0,1416.7,1389.4,3468.6,3468.6,1501.4,2022.4,2640.6,3481.9,2059.4,3489.2,3460.1,3457.6,695.4,954.3,2003.5,1170.9,1129.6,913.5,-11.0,3.0,-3.0,9847.0,-13019.0,-290.0,1370.0,-49.0,-38.0,28.0,4.0,-4.0,11.0,6596.0,-12136.0,7593.0,-4469.0,6.0,13.0,-2.0,1.0
2022-05-23 13:36:00.873198-07:00,1451.6,884.8,1237.3,1099.0,1021.1,910.1,1765.6,1353.1,3462.5,3463.7,1248.0,973.9,1781.0,3471.0,1410.3,1383.9,3468.6,3464.9,1501.4,2022.4,2643.9,3489.2,2059.4,3489.2,3468.6,3462.5,695.4,954.3,2003.5,1170.9,1129.6,913.5,8.0,6.0,9.0,9824.0,-13035.0,-296.0,1388.0,-65.0,-19.0,-4.0,3.0,-1.0,4.0,6590.0,-12135.0,7598.0,-4473.0,-55.0,20.0,14.0,1.0
2022-05-23 13:36:00.933691-07:00,1449.7,876.4,1235.5,1099.0,1034.0,923.7,1765.6,1353.1,3462.5,3468.6,1253.3,973.9,1776.2,3461.3,1410.3,1383.9,3468.6,3464.9,1496.7,2023.4,2643.9,3488.0,2059.4,3484.4,3468.6,3462.5,691.3,953.4,2003.5,1170.9,1127.9,926.2,0.0,-8.0,10.0,9808.0,-13047.0,-296.0,1388.0,-16.0,15.0,22.0,-4.0,-1.0,6.0,6575.0,-12137.0,7611.0,-4470.0,-4.0,22.0,12.0,1.0
2022-05-23 13:36:00.963664-07:00,1449.7,876.4,1235.5,1090.3,1034.0,911.8,1757.9,1348.5,3462.5,3468.6,1253.3,968.8,1776.2,3468.6,1417.6,1392.1,3473.4,3473.4,1503.2,2023.4,2648.2,3488.0,2059.4,3484.4,3462.5,3474.6,700.3,953.4,2008.4,1170.9,1127.9,926.2,5.0,4.0,12.0,9795.0,-13056.0,-288.0,1393.0,-73.0,-5.0,22.0,-13.0,2.0,-7.0,6569.0,-12136.0,7615.0,-4473.0,-38.0,2.0,-3.0,1.0
2022-05-23 13:36:01.083662-07:00,1437.8,874.7,1234.6,1090.3,1032.3,911.8,1757.9,1348.5,3461.3,3463.7,1263.1,968.8,1771.4,3468.6,1417.6,1392.1,3473.4,3473.4,1503.2,2007.4,2648.2,3495.3,2046.4,3492.9,3462.5,3474.6,700.3,960.2,2008.4,1175.3,1120.0,912.7,-2.0,3.0,1.0,9777.0,-13070.0,-279.0,1394.0,-3.0,6.0,8.0,-4.0,-3.0,1.0,6562.0,-12142.0,7617.0,-4464.0,28.0,-18.0,2.0,1.0
2022-05-23 13:36:01.114376-07:00,1437.8,874.7,1234.6,1090.3,1032.3,909.3,1755.0,1336.8,3461.3,3463.7,1263.1,973.9,1771.4,3466.1,1413.1,1388.5,3466.1,3462.5,1491.2,2007.4,2639.5,3495.3,2046.4,3492.9,3467.4,3471.0,697.0,960.2,1998.5,1175.3,1120.0,912.7,-10.0,5.0,-17.0,9772.0,-13074.0,-284.0,1398.0,-49.0,-31.0,-11.0,3.0,0.0,8.0,6579.0,-12136.0,7609.0,-4468.0,25.0,-5.0,-6.0,1.0
2022-05-23 13:36:01.115498-07:00,1440.5,878.9,1238.2,1090.3,1030.6,909.3,1755.0,1336.8,3467.4,3457.6,1257.8,973.9,1771.4,3466.1,1413.1,1388.5,3466.1,3462.5,1491.2,2022.4,2639.5,3494.1,2047.4,3488.0,3467.4,3471.0,697.0,959.4,1998.5,1164.7,1129.6,916.9,-2.0,0.0,1.0,9762.0,-13079.0,-297.0,1411.0,16.0,-38.0,6.0,6.0,-7.0,13.0,6581.0,-12135.0,7609.0,-4469.0,-9.0,1.0,12.0,1.0
2022-05-23 13:36:01.116968-07:00,1440.5,878.9,1238.2,1089.5,1030.6,912.7,1746.4,1340.4,3467.4,3457.6,1257.8,975.6,1771.4,3474.6,1411.3,1395.7,3468.6,3471.0,1499.5,2022.4,2635.1,3494.1,2047.4,3488.0,3479.5,3464.9,697.0,959.4,1997.5,1164.7,1129.6,916.9,5.0,7.0,14.0,9776.0,-13067.0,-300.0,1421.0,34.0,-6.0,-9.0,0.0,-1.0,4.0,6579.0,-12133.0,7617.0,-4466.0,1.0,17.0,23.0,1.0
2022-05-23 13:36:01.173892-07:00,1454.3,872.1,1233.7,1094.7,1018.5,912.7,1746.4,1340.4,3463.7,3474.6,1252.4,976.5,1771.4,3474.6,1411.3,1395.7,3468.6,3471.0,1499.5,2022.4,2643.9,3492.9,2037.4,3481.9,3479.5,3464.9,697.0,951.7,1999.5,1167.4,1123.5,914.4,7.0,-6.0,20.0,9780.0,-13065.0,-305.0,1417.0,-3.0,4.0,-10.0,-7.0,7.0,-2.0,6576.0,-12128.0,7623.0,-4469.0,-3.0,20.0,3.0,1.0
2022-05-23 13:36:01.294538-07:00,1454.3,872.1,1233.7,1094.7,1031.4,905.0,1766.6,1374.8,3463.7,3474.6,1252.4,976.5,1772.3,3473.4,1429.5,1401.2,3464.9,3472.2,1497.7,2037.4,2643.9,3492.9,2037.4,3481.9,3479.5,3481.9,695.4,957.7,1999.5,1167.4,1123.5,914.4,0.0,5.0,13.0,9781.0,-13065.0,-297.0,1412.0,-1.0,28.0,19.0,-7.0,-1.0,0.0,6572.0,-12128.0,7626.0,-4472.0,-7.0,8.0,-6.0,1.0
2022-05-23 13:36:01.295988-07:00,1429.5,882.3,1245.3,1098.2,1031.4,905.0,1766.6,1374.8,3462.5,3467.4,1264.0,969.6,1772.3,3473.4,1429.5,1401.2,3464.9,3472.2,1497.7,2037.4,2639.5,3486.8,2032.4,3488.0,3479.5,3481.9,695.4,957.7,1999.5,1173.5,1123.5,916.0,-10.0,8.0,-13.0,9780.0,-13067.0,-287.0,1402.0,-15.0,18.0,3.0,-2.0,-4.0,7.0,6578.0,-12125.0,7624.0,-4475.0,42.0,0.0,-5.0,1.0
2022-05-23 13:36:01.324498-07:00,1429.5,882.3,1245.3,1098.2,1027.1,919.4,1760.8,1337.7,3462.5,3467.4,1264.0,969.6,1767.5,3461.3,1425.9,1396.7,3467.4,3467.4,1506.9,2014.4,2639.5,3486.8,2032.4,3488.0,3466.1,3479.5,696.2,952.6,1999.5,1173.5,1123.5,916.0,-8.0,8.0,-12.0,9767.0,-13076.0,-284.0,1406.0,-33.0,-10.0,13.0,1.0,-5.0,11.0,6585.0,-12122.0,7621.0,-4479.0,-11.0,-4.0,6.0,1.0
2022-05-23 13:36:01.444192-07:00,1430.5,883.1,1237.3,1093.8,1027.1,919.4,1760.8,1337.7,3467.4,3466.1,1260.4,973.1,1767.5,3461.3,1425.9,1396.7,3467.4,3467.4,1506.9,2014.4,2646.0,3484.4,2029.4,3489.2,3466.1,3479.5,696.2,952.6,1996.5,1216.0,1151.5,918.6,1.0,3.0,8.0,9768.0,-13075.0,-284.0,1413.0,40.0,-4.0,8.0,0.0,9.0,3.0,6588.0,-12118.0,7625.0,-4478.0,22.0,-3.0,10.0,1.0
2022-05-23 13:36:01.594285-07:00,1435.0,883.1,1237.3,1093.8,1026.3,911.8,1754.1,1343.1,3466.1,3466.1,1260.4,973.1,1767.5,3467.4,1445.1,1410.3,3472.2,3468.6,1494.9,2014.4,2646.0,3484.4,2029.4,3483.2,3471.0,3468.6,678.2,967.1,1996.5,1216.0,1151.5,919.4,-4.0,-6.0,4.0,9769.0,-13074.0,-283.0,1417.0,-35.0,-18.0,21.0,-6.0,0.0,3.0,6583.0,-12123.0,7620.0,-4480.0,-26.0,2.0,-32.0,1.0
2022-05-23 13:36:01.623916-07:00,1435.0,871.3,1248.0,1103.4,1026.3,911.8,1754.1,1345.8,3466.1,3466.1,1271.2,973.1,1767.5,3467.4,1445.1,1407.6,3478.3,3468.6,1494.9,2014.4,2634.1,3486.8,2027.4,3483.2,3475.9,3468.6,678.2,967.1,1987.5,1217.7,1161.2,919.4,5.0,25.0,6.0,9766.0,-13074.0,-284.0,1433.0,10.0,-32.0,8.0,-7.0,-6.0,4.0,6575.0,-12131.0,7610.0,-4488.0,10.0,15.0,-37.0,1.0
2022-05-23 13:36:01.625242-07:00,1445.1,871.3,1248.0,1103.4,1026.3,925.4,1752.1,1345.8,3463.7,3466.1,1271.2,973.1,1758.9,3462.5,1447.0,1407.6,3478.3,3462.5,1488.4,2023.4,2634.1,3486.8,2027.4,3474.6,3475.9,3469.8,688.9,963.7,1987.5,1217.7,1161.2,916.9,-1.0,9.0,7.0,9760.0,-13078.0,-295.0,1432.0,-33.0,-6.0,-32.0,4.0,0.0,0.0,6580.0,-12131.0,7597.0,-4501.0,35.0,5.0,-27.0,1.0
2022-05-23 13:36:01.626188-07:00,1445.1,874.7,1244.4,1104.3,1026.3,925.4,1752.1,1347.6,3463.7,3461.3,1264.9,978.2,1758.9,3462.5,1447.0,1404.0,3467.4,3462.5,1488.4,2023.4,2650.4,3494.1,2022.4,3474.6,3480.7,3469.8,688.9,963.7,1991.5,1204.4,1157.7,916.9,-8.0,-1.0,1.0,9762.0,-13078.0,-306.0,1420.0,11.0,-3.0,-45.0,-2.0,-2.0,2.0,6588.0,-12130.0,7586.0,-4511.0,37.0,-1.0,-15.0,1.0
2022-05-23 13:36:01.627424-07:00,1427.7,874.7,1244.4,1104.3,1017.6,920.3,1741.6,1347.6,3467.4,3461.3,1264.9,978.2,1759.8,3478.3,1446.0,1404.0,3467.4,3467.4,1492.1,2020.4,2650.4,3494.1,2022.4,3497.8,3480.7,3474.6,691.3,963.7,1991.5,1204.4,1157.7,916.0,2.0,1.0,2.0,9775.0,-13069.0,-317.0,1414.0,41.0,0.0,-22.0,-3.0,-3.0,9.0,6601.0,-12124.0,7577.0,-4522.0,57.0,5.0,-13.0,1.0
2022-05-23 13:36:01.743372-07:00,1427.7,880.6,1244.4,1099.9,1017.6,920.3,1756.0,1342.2,3467.4,3469.8,1264.9,969.6,1759.8,3478.3,1445.1,1398.5,3478.3,3469.8,1492.1,2020.4,2634.1,3492.9,2016.4,3497.8,3474.6,3474.6,691.3,963.7,1979.6,1195.6,1150.6,916.0,0.0,-4.0,5.0,9787.0,-13060.0,-318.0,1412.0,32.0,-5.0,6.0,-8.0,2.0,-1.0,6620.0,-12117.0,7561.0,-4540.0,93.0,-2.0,-33.0,1.0
2022-05-23 13:36:01.745131-07:00,1418.6,871.3,1244.4,1099.9,1016.8,917.7,1756.0,1342.2,3469.8,3475.9,1264.9,969.6,1757.9,3467.4,1445.1,1398.5,3478.3,3469.8,1493.0,2029.4,2634.1,3492.9,2015.4,3492.9,3474.6,3474.6,699.5,952.6,1979.6,1195.6,1142.7,912.7,-6.0,15.0,1.0,9801.0,-13049.0,-316.0,1413.0,51.0,-6.0,-5.0,-5.0,-10.0,3.0,6643.0,-12109.0,7539.0,-4564.0,73.0,-4.0,-29.0,1.0
2022-05-23 13:36:01.804574-07:00,1418.6,871.3,1239.1,1099.9,1016.8,917.7,1757.0,1331.4,3469.8,3475.9,1264.0,977.3,1757.9,3467.4,1432.3,1395.7,3463.7,3466.1,1493.0,2029.4,2625.4,3496.6,2015.4,3492.9,3463.7,3478.3,699.5,952.6,1983.6,1198.2,1142.7,912.7,0.0,0.0,6.0,9825.0,-13031.0,-334.0,1410.0,70.0,-14.0,-62.0,4.0,1.0,6.0,6654.0,-12105.0,7528.0,-4576.0,26.0,10.0,-16.0,1.0
2022-05-23 13:36:01.833796-07:00,1426.8,876.4,1239.1,1099.9,1015.9,914.4,1757.0,1331.4,3467.4,3466.1,1264.0,977.3,1761.8,3472.2,1432.3,1395.7,3463.7,3466.1,1490.3,2025.4,2625.4,3496.6,2004.5,3477.1,3463.7,3478.3,697.0,954.3,1983.6,1198.2,1135.7,890.7,-2.0,0.0,0.0,9858.0,-13006.0,-341.0,1409.0,63.0,-32.0,13.0,0.0,-2.0,9.0,6649.0,-12106.0,7529.0,-4582.0,-23.0,18.0,-5.0,1.0
2022-05-23 13:36:01.863656-07:00,1426.8,876.4,1223.0,1096.4,1015.9,914.4,1751.2,1342.2,3467.4,3466.1,1262.2,980.7,1761.8,3472.2,1430.5,1384.8,3468.6,3469.8,1490.3,2025.4,2644.9,3488.0,2004.5,3477.1,3467.4,3481.9,697.0,954.3,1975.6,1188.5,1135.7,890.7,7.0,5.0,15.0,9869.0,-12996.0,-341.0,1425.0,28.0,-11.0,7.0,-3.0,0.0,5.0,6642.0,-12104.0,7534.0,-4588.0,7.0,26.0,0.0,1.0
2022-05-23 13:36:01.983782-07:00,1422.2,867.9,1223.0,1096.4,1029.7,926.2,1751.2,1342.2,3466.1,3467.4,1262.2,980.7,1757.9,3463.7,1430.5,1384.8,3468.6,3469.8,1499.5,2031.4,2644.9,3488.0,1995.5,3484.4,3467.4,3481.9,697.9,957.7,1975.6,1188.5,1137.5,913.5,0.0,-9.0,9.0,9876.0,-12991.0,-336.0,1420.0,-8.0,18.0,6.0,-7.0,4.0,0.0,6637.0,-12104.0,7534.0,-4596.0,-14.0,11.0,-16.0,1.0
2022-05-23 13:36:01.985092-07:00,1422.2,867.9,1244.4,1094.7,1029.7,916.0,1744.5,1332.3,3466.1,3467.4,1264.0,975.6,1757.9,3469.8,1436.0,1391.2,3457.6,3471.0,1501.4,2031.4,2647.1,3497.8,1995.5,3484.4,3474.6,3469.8,701.1,957.7,1970.7,1186.7,1137.5,913.5,0.0,16.0,5.0,9872.0,-12995.0,-321.0,1420.0,-1.0,11.0,21.0,-1.0,0.0,2.0,6639.0,-12103.0,7532.0,-4598.0,17.0,4.0,-5.0,1.0
2022-05-23 13:36:02.073873-07:00,1416.7,865.4,1232.8,1094.7,1017.6,916.0,1744.5,1332.3,3469.8,3462.5,1260.4,975.6,1758.9,3469.8,1436.0,1391.2,3457.6,3471.0,1501.4,2031.4,2647.1,3491.7,1995.5,3477.1,3474.6,3469.8,701.1,952.6,1970.7,1179.7,1141.9,912.7,-5.0,0.0,-6.0,9880.0,-12990.0,-327.0,1408.0,8.0,20.0,-45.0,-1.0,-7.0,9.0,6639.0,-12103.0,7532.0,-4598.0,13.0,-8.0,0.0,1.0
2022-05-23 13:36:02.193719-07:00,1416.7,865.4,1232.8,1086.8,1017.6,911.0,1747.3,1339.5,3469.8,3462.5,1260.4,972.2,1758.9,3469.8,1427.7,1393.9,3468.6,3471.0,1500.4,2031.4,2638.4,3491.7,1995.5,3477.1,3477.1,3462.5,696.2,952.6,1965.7,1179.7,1141.9,912.7,0.0,8.0,1.0,9880.0,-12990.0,-325.0,1406.0,17.0,-8.0,20.0,-3.0,0.0,7.0,6644.0,-12101.0,7530.0,-4600.0,3.0,-3.0,-3.0,1.0
2022-05-23 13:36:02.195619-07:00,1409.4,880.6,1230.2,1086.8,1015.1,911.0,1747.3,1339.5,3469.8,3468.6,1254.2,972.2,1743.5,3469.8,1427.7,1393.9,3468.6,3471.0,1500.4,2009.4,2638.4,3486.8,1997.5,3484.4,3477.1,3462.5,696.2,952.6,1965.7,1178.8,1141.9,914.4,0.0,-3.0,3.0,9880.0,-12990.0,-323.0,1409.0,-1.0,-13.0,1.0,-2.0,-4.0,7.0,6644.0,-12103.0,7530.0,-4597.0,-11.0,-14.0,3.0,1.0
2022-05-23 13:36:02.196501-07:00,1409.4,880.6,1230.2,1092.1,1015.1,913.5,1738.7,1371.2,3469.8,3468.6,1254.2,972.2,1743.5,3467.4,1422.2,1389.4,3473.4,3468.6,1494.0,2009.4,2647.1,3486.8,1997.5,3484.4,3474.6,3457.6,692.9,952.6,1969.7,1178.8,1141.9,914.4,-2.0,9.0,3.0,9883.0,-12987.0,-323.0,1413.0,9.0,-14.0,6.0,-3.0,2.0,7.0,6636.0,-12107.0,7532.0,-4591.0,-35.0,2.0,-4.0,1.0
2022-05-23 13:36:02.253798-07:00,1423.1,874.7,1243.5,1092.9,1021.9,913.5,1738.7,1371.2,3468.6,3464.9,1250.6,966.2,1753.1,3467.4,1422.2,1389.4,3473.4,3468.6,1494.0,2019.4,2650.4,3489.2,1985.6,3485.6,3474.6,3457.6,692.9,956.8,1973.7,1181.5,1154.2,908.4,-3.0,1.0,4.0,9881.0,-12987.0,-324.0,1424.0,-18.0,-22.0,27.0,-5.0,-5.0,8.0,6623.0,-12112.0,7540.0,-4585.0,-14.0,24.0,17.0,1.0
2022-05-23 13:36:02.284328-07:00,1423.1,874.7,1243.5,1092.9,1016.8,919.4,1739.7,1342.2,3468.6,3464.9,1250.6,966.2,1752.1,3458.9,1425.9,1391.2,3478.3,3467.4,1501.4,2018.4,2650.4,3489.2,1985.6,3485.6,3478.3,3483.2,693.8,953.4,1973.7,1181.5,1154.2,908.4,0.0,4.0,8.0,9873.0,-12992.0,-320.0,1439.0,-29.0,-15.0,36.0,0.0,-2.0,3.0,6636.0,-12094.0,7549.0,-4598.0,75.0,29.0,32.0,1.0
2022-05-23 13:36:02.343636-07:00,1427.7,885.6,1247.1,1090.3,1016.8,919.4,1739.7,1342.2,3468.6,3463.7,1250.6,973.1,1752.1,3458.9,1425.9,1391.2,3478.3,3467.4,1501.4,2018.4,2649.3,3479.5,1991.5,3492.9,3478.3,3483.2,693.8,953.4,1955.8,1183.2,1132.2,912.7,-6.0,-1.0,13.0,9857.0,-13003.0,-302.0,1456.0,-42.0,4.0,76.0,0.0,4.0,0.0,6641.0,-12085.0,7556.0,-4602.0,-40.0,-3.0,26.0,1.0
2022-05-23 13:36:02.403951-07:00,1427.7,885.6,1247.1,1090.3,1018.5,916.0,1759.8,1335.0,3468.6,3463.7,1250.6,973.1,1744.5,3468.6,1428.6,1384.8,3468.6,3467.4,1494.9,2019.4,2649.3,3479.5,1991.5,3492.9,3478.3,3477.1,689.7,958.5,1955.8,1183.2,1132.2,912.7,8.0,9.0,3.0,9860.0,-12999.0,-271.0,1471.0,68.0,19.0,64.0,3.0,-2.0,9.0,6636.0,-12085.0,7569.0,-4592.0,4.0,-3.0,25.0,1.0
2022-05-23 13:36:02.434318-07:00,1429.5,872.1,1241.7,1090.3,1018.5,916.0,1759.8,1335.0,3473.4,3457.6,1251.5,973.9,1744.5,3468.6,1428.6,1384.8,3468.6,3467.4,1494.9,2019.4,2640.6,3496.6,1982.6,3483.2,3478.3,3477.1,689.7,958.5,1959.8,1177.9,1129.6,914.4,2.0,2.0,-1.0,9871.0,-12990.0,-251.0,1477.0,-27.0,-7.0,38.0,-6.0,3.0,12.0,6638.0,-12081.0,7575.0,-4588.0,-9.0,6.0,4.0,1.0
2022-05-23 13:36:02.463735-07:00,1434.1,872.1,1241.7,1090.3,1011.6,912.7,1733.0,1337.7,3474.6,3457.6,1251.5,973.9,1753.1,3464.9,1425.9,1385.7,3473.4,3469.8,1486.6,2037.4,2640.6,3496.6,1982.6,3484.4,3468.6,3469.8,692.9,952.6,1959.8,1177.9,1129.6,903.4,4.0,5.0,8.0,9853.0,-13002.0,-241.0,1497.0,-17.0,-25.0,55.0,-8.0,1.0,-1.0,6628.0,-12086.0,7579.0,-4582.0,-33.0,-7.0,-1.0,1.0
2022-05-23 13:36:02.523813-07:00,1434.1,873.8,1241.7,1101.7,1011.6,912.7,1733.0,1332.3,3474.6,3463.7,1251.5,970.5,1753.1,3464.9,1425.9,1387.5,3475.9,3469.8,1486.6,2037.4,2631.9,3489.2,1987.5,3484.4,3479.5,3469.8,692.9,952.6,1967.7,1174.4,1135.7,903.4,-2.0,16.0,9.0,9851.0,-13002.0,-230.0,1509.0,-1.0,16.0,11.0,-4.0,-5.0,10.0,6627.0,-12089.0,7578.0,-4577.0,61.0,-18.0,-7.0,1.0
2022-05-23 13:36:02.583667-07:00,1423.1,873.8,1241.7,1101.7,1007.3,922.8,1735.8,1332.3,3471.0,3463.7,1251.5,970.5,1748.3,3469.8,1447.0,1387.5,3475.9,3478.3,1498.6,2029.4,2631.9,3489.2,1987.5,3490.5,3479.5,3472.2,694.6,967.1,1967.7,1174.4,1135.7,910.1,-8.0,-2.0,-12.0,9834.0,-13016.0,-224.0,1501.0,-71.0,26.0,21.0,-2.0,4.0,4.0,6637.0,-12089.0,7569.0,-4577.0,-40.0,-24.0,-19.0,1.0
2022-05-23 13:36:02.614073-07:00,1423.1,869.6,1287.3,1137.5,1007.3,922.8,1735.8,1337.7,3471.0,3469.8,1331.4,1005.6,1748.3,3469.8,1447.0,1454.3,3478.3,3478.3,1498.6,2029.4,2631.9,3491.7,2002.5,3490.5,3464.9,3472.2,694.6,967.1,1977.6,1261.3,1209.7,910.1,-4.0,9.0,12.0,9817.0,-13028.0,-209.0,1508.0,1.0,-7.0,42.0,-2.0,0.0,5.0,6643.0,-12094.0,7559.0,-4572.0,61.0,-32.0,-15.0,1.0
2022-05-23 13:36:02.704082-07:00,1414.9,869.6,1287.3,1137.5,1021.9,933.9,1748.3,1337.7,3473.4,3469.8,1331.4,1005.6,1759.8,3462.5,1578.6,1454.3,3478.3,3466.1,1495.8,2025.4,2631.9,3491.7,2002.5,3492.9,3464.9,3468.6,697.0,967.9,1977.6,1261.3,1209.7,912.7,-7.0,1.0,-12.0,9810.0,-13033.0,-202.0,1515.0,-99.0,-29.0,20.0,-2.0,2.0,4.0,6676.0,-12084.0,7539.0,-4583.0,58.0,-17.0,-9.0,1.0
2022-05-23 13:36:02.733696-07:00,1414.9,855.3,1318.7,1156.8,1021.9,933.9,1748.3,1331.4,3473.4,3468.6,1467.2,1073.8,1759.8,3462.5,1578.6,1530.1,3467.4,3466.1,1495.8,2025.4,2636.2,3488.0,2015.4,3492.9,3474.6,3468.6,697.0,967.9,1993.5,1333.2,1277.4,912.7,6.0,2.0,6.0,9787.0,-13047.0,-213.0,1542.0,-2.0,-67.0,15.0,-1.0,-13.0,14.0,6683.0,-12085.0,7534.0,-4578.0,50.0,-14.0,12.0,1.0
2022-05-23 13:36:02.763722-07:00,1420.4,875.5,1318.7,1156.8,1004.8,951.7,1744.5,1331.4,3466.1,3478.3,1467.2,1073.8,1786.8,3462.5,1710.0,1530.1,3467.4,3475.9,1491.2,2020.4,2636.2,3488.0,1999.5,3489.2,3474.6,3473.4,697.9,985.0,1993.5,1333.2,1337.7,912.7,-8.0,9.0,-5.0,9810.0,-13029.0,-216.0,1550.0,79.0,2.0,9.0,-2.0,-6.0,14.0,6697.0,-12076.0,7534.0,-4582.0,2.0,4.0,15.0,1.0
2022-05-23 13:36:02.823813-07:00,1420.4,875.5,1318.7,1168.2,1004.8,951.7,1750.2,1339.5,3466.1,3478.3,1509.7,1111.2,1786.8,3462.5,1833.3,1621.8,3469.8,3473.4,1491.2,2020.4,2640.6,3490.5,1999.5,3489.2,3477.1,3473.4,697.9,985.0,2027.4,1385.7,1337.7,912.7,-1.0,-5.0,19.0,9798.0,-13035.0,-198.0,1570.0,-28.0,0.0,83.0,0.0,-10.0,6.0,6703.0,-12070.0,7540.0,-4579.0,32.0,-13.0,25.0,1.0
2022-05-23 13:36:02.884377-07:00,1405.8,876.4,1318.7,1168.2,1021.1,952.6,1750.2,1339.5,3466.1,3463.7,1509.7,1111.2,1830.4,3467.4,1833.3,1621.8,3469.8,3473.4,1495.8,2023.4,2640.6,3490.5,1974.6,3484.4,3477.1,3473.4,701.1,979.9,2027.4,1385.7,1374.8,902.5,-14.0,6.0,11.0,9800.0,-13033.0,-179.0,1584.0,-28.0,2.0,33.0,-3.0,-18.0,24.0,6744.0,-12042.0,7538.0,-4595.0,183.0,14.0,49.0,1.0
2022-05-23 13:36:02.914240-07:00,1405.8,876.4,1339.5,1198.2,1021.1,952.6,1763.7,1329.6,3466.1,3463.7,1550.6,1171.8,1830.4,3467.4,1897.7,1695.7,3468.6,3467.4,1495.8,2023.4,2635.1,3497.8,1974.6,3484.4,3464.9,3474.6,701.1,979.9,2031.4,1422.2,1374.8,902.5,7.0,2.0,23.0,9784.0,-13043.0,-155.0,1598.0,-2.0,36.0,97.0,-10.0,51.0,-35.0,6842.0,-11980.0,7517.0,-4647.0,248.0,-13.0,26.0,1.0
2022-05-23 13:36:03.003826-07:00,1415.8,867.1,1339.5,1198.2,1021.1,971.3,1763.7,1329.6,3473.4,3467.4,1550.6,1171.8,1865.4,3467.4,1897.7,1695.7,3468.6,3467.4,1496.7,2023.4,2635.1,3497.8,1980.6,3490.5,3464.9,3474.6,691.3,979.9,2031.4,1422.2,1432.3,905.9,-13.0,4.0,36.0,9825.0,-13016.0,-114.0,1574.0,188.0,141.0,-42.0,0.0,-9.0,22.0,6855.0,-11975.0,7518.0,-4640.0,14.0,-12.0,29.0,1.0
2022-05-23 13:36:03.033596-07:00,1415.8,867.1,1453.4,1248.8,1021.1,989.3,1906.6,1332.3,3473.4,3467.4,1613.4,1232.8,1865.4,3467.4,2013.4,1841.1,3468.6,3473.4,1500.4,2023.4,2634.1,3500.2,1980.6,3490.5,3464.9,3468.6,706.0,979.9,2033.4,1490.3,1432.3,905.9,16.0,34.0,-38.0,9919.0,-12948.0,-78.0,1547.0,191.0,31.0,110.0,-1.0,-3.0,13.0,6879.0,-11954.0,7521.0,-4654.0,72.0,28.0,32.0,1.0
2022-05-23 13:36:03.064429-07:00,1402.1,873.0,1545.9,1248.8,1014.2,989.3,1906.6,1332.3,3478.3,3468.6,1653.0,1232.8,1930.2,3467.4,2013.4,1841.1,3468.6,3473.4,1500.4,2018.4,2634.1,3490.5,1990.5,3488.0,3464.9,3468.6,706.0,978.2,2033.4,1529.2,1454.3,907.6,-8.0,14.0,44.0,9892.0,-12968.0,0.0,1556.0,-37.0,126.0,122.0,-3.0,-20.0,38.0,6860.0,-11961.0,7538.0,-4637.0,-177.0,0.0,22.0,1.0
2022-05-23 13:36:03.123814-07:00,1402.1,873.0,1545.9,1349.4,1014.2,995.3,1863.5,1350.3,3478.3,3468.6,1653.0,1288.2,1930.2,3462.5,2027.4,1899.7,3468.6,3471.0,1502.3,2018.4,2625.4,3490.5,1990.5,3488.0,3471.0,3478.3,718.4,978.2,2049.4,1529.2,1454.3,907.6,6.0,4.0,-25.0,9905.0,-12964.0,50.0,1502.0,28.0,181.0,-31.0,11.0,16.0,-29.0,6880.0,-11937.0,7550.0,-4648.0,292.0,17.0,44.0,1.0
2022-05-23 13:36:03.183698-07:00,1412.2,865.4,1683.3,1349.4,1028.0,995.3,1863.5,1350.3,3466.1,3471.0,1651.1,1288.2,1969.7,3462.5,2027.4,1899.7,3468.6,3471.0,1502.3,2024.4,2625.4,3507.5,1983.6,3497.8,3471.0,3478.3,718.4,993.6,2049.4,1552.5,1447.0,916.0,-72.0,7.0,37.0,9833.0,-13024.0,64.0,1457.0,-428.0,93.0,-38.0,-20.0,10.0,12.0,6968.0,-11893.0,7507.0,-4699.0,152.0,-40.0,-59.0,1.0
2022-05-23 13:36:03.243695-07:00,1412.2,865.4,1683.3,1431.4,1028.0,991.9,1846.9,1348.5,3466.1,3471.0,1651.1,1284.6,1969.7,3472.2,2020.4,1888.9,3464.9,3463.7,1510.6,2024.4,2644.9,3507.5,1983.6,3497.8,3467.4,3468.6,731.5,993.6,2065.5,1552.5,1447.0,916.0,75.0,18.0,-27.0,9755.0,-13078.0,44.0,1491.0,115.0,-129.0,76.0,-5.0,-21.0,14.0,6973.0,-11901.0,7480.0,-4714.0,27.0,18.0,-48.0,1.0
2022-05-23 13:36:03.303982-07:00,1404.0,857.0,1758.9,1519.0,1029.7,991.9,1846.9,1348.5,3464.9,3471.0,1664.4,1277.4,1974.6,3472.2,2020.4,1888.9,3464.9,3463.7,1510.6,2030.4,2638.4,3492.9,1942.0,3481.9,3467.4,3468.6,731.5,1015.1,2063.5,1541.3,1444.2,905.9,-14.0,63.0,9.0,9810.0,-13037.0,41.0,1494.0,53.0,52.0,-101.0,-3.0,13.0,-14.0,6985.0,-11900.0,7459.0,-4734.0,29.0,-12.0,-45.0,1.0
2022-05-23 13:36:03.363708-07:00,1404.0,857.0,1758.9,1519.0,1053.9,971.3,1852.8,1383.9,3464.9,3471.0,1664.4,1277.4,1974.6,3467.4,2017.4,1903.6,3483.2,3472.2,1510.6,2030.4,2638.4,3492.9,1942.0,3481.9,3473.4,3471.0,733.2,1034.0,2063.5,1541.3,1444.2,905.9,-30.0,-15.0,-2.0,9785.0,-13061.0,-17.0,1449.0,-94.0,-85.0,-157.0,-5.0,-12.0,19.0,6973.0,-11907.0,7458.0,-4735.0,-33.0,28.0,-5.0,1.0
2022-05-23 13:36:03.364965-07:00,1389.4,856.2,1811.0,1611.5,1053.9,971.3,1852.8,1383.9,3473.4,3462.5,1639.8,1278.3,1974.6,3467.4,2017.4,1903.6,3483.2,3472.2,1510.6,2030.4,2623.2,3488.0,1924.3,3486.8,3473.4,3471.0,733.2,1034.0,2120.9,1535.7,1425.9,909.3,8.0,-6.0,9.0,9789.0,-13059.0,-89.0,1437.0,13.0,-22.0,-131.0,-10.0,2.0,6.0,6957.0,-11913.0,7464.0,-4733.0,-23.0,1.0,-17.0,1.0
2022-05-23 13:36:03.453846-07:00,1389.4,856.2,1811.0,1611.5,1090.3,952.6,1839.1,1382.1,3473.4,3462.5,1639.8,1278.3,1963.7,3462.5,1984.6,1863.5,3471.0,3475.9,1511.5,2030.4,2623.2,3488.0,1924.3,3486.8,3477.1,3474.6,744.7,1056.5,2120.9,1535.7,1425.9,909.3,-32.0,13.0,-11.0,9778.0,-13067.0,-143.0,1434.0,-50.0,-171.0,-106.0,7.0,-10.0,5.0,6969.0,-11912.0,7453.0,-4735.0,53.0,-28.0,-12.0,1.0
2022-05-23 13:36:03.573873-07:00,1374.8,864.6,1765.6,1619.9,1090.3,952.6,1839.1,1382.1,3473.4,3471.0,1617.1,1271.2,1963.7,3462.5,1984.6,1863.5,3471.0,3475.9,1511.5,2030.4,2640.6,3481.9,1911.5,3485.6,3477.1,3474.6,744.7,1056.5,2164.6,1474.6,1404.0,910.1,-39.0,2.0,9.0,9777.0,-13059.0,-231.0,1502.0,37.0,-273.0,-45.0,-7.0,-9.0,28.0,6968.0,-11918.0,7449.0,-4727.0,-51.0,-10.0,6.0,1.0
2022-05-23 13:36:03.576058-07:00,1374.8,864.6,1765.6,1619.9,1086.8,965.4,1822.6,1397.6,3473.4,3471.0,1617.1,1271.2,2014.4,3468.6,1943.0,1828.4,3463.7,3463.7,1512.5,2040.4,2640.6,3481.9,1911.5,3485.6,3475.9,3480.7,742.2,1068.6,2164.6,1474.6,1404.0,910.1,-1.0,16.0,11.0,9782.0,-13046.0,-290.0,1573.0,-18.0,-127.0,-10.0,13.0,2.0,10.0,6935.0,-11936.0,7465.0,-4707.0,-146.0,13.0,5.0,1.0
2022-05-23 13:36:03.576951-07:00,1405.8,883.9,1721.5,1613.4,1086.8,965.4,1822.6,1383.9,3468.6,3471.0,1608.7,1263.1,2014.4,3468.6,1943.0,1821.6,3467.4,3463.7,1512.5,2040.4,2622.1,3490.5,1892.8,3484.4,3467.4,3480.7,742.2,1068.6,2158.5,1465.4,1373.0,907.6,-27.0,12.0,14.0,9753.0,-13066.0,-309.0,1579.0,-103.0,-28.0,-37.0,-8.0,0.0,16.0,6890.0,-11958.0,7485.0,-4683.0,-150.0,14.0,-5.0,1.0
2022-05-23 13:36:03.633957-07:00,1393.0,883.9,1721.5,1613.4,1081.6,954.3,1811.9,1383.9,3472.2,3471.0,1608.7,1263.1,2080.6,3457.6,1923.3,1821.6,3467.4,3477.1,1510.6,2034.4,2622.1,3490.5,1892.8,3492.9,3467.4,3472.2,743.9,1077.3,2158.5,1465.4,1373.0,898.3,-20.0,28.0,2.0,9712.0,-13095.0,-337.0,1589.0,-129.0,-105.0,-73.0,-9.0,8.0,-27.0,6800.0,-12014.0,7512.0,-4630.0,-348.0,-30.0,-45.0,1.0
2022-05-23 13:36:03.663727-07:00,1393.0,928.8,1697.6,1580.5,1081.6,954.3,1811.9,1420.4,3472.2,3464.9,1594.6,1256.0,2080.6,3457.6,1923.3,1814.9,3473.4,3477.1,1510.6,2034.4,2621.0,3494.1,1888.9,3492.9,3479.5,3472.2,743.9,1077.3,2237.3,1443.3,1354.0,898.3,-12.0,22.0,-36.0,9697.0,-13102.0,-410.0,1606.0,-17.0,-188.0,-124.0,-5.0,-46.0,36.0,6777.0,-12048.0,7499.0,-4597.0,72.0,-59.0,-16.0,1.0
2022-05-23 13:36:03.754328-07:00,1465.4,928.8,1697.6,1580.5,1112.1,947.5,1819.7,1420.4,3457.6,3464.9,1594.6,1256.0,2067.5,3473.4,1913.4,1814.9,3473.4,3471.0,1530.1,2029.4,2621.0,3494.1,1888.9,3478.3,3479.5,3475.9,752.9,1072.1,2237.3,1443.3,1354.0,912.7,23.0,0.0,0.0,9641.0,-13130.0,-573.0,1661.0,-272.0,-369.0,-283.0,0.0,-9.0,0.0,6786.0,-12054.0,7489.0,-4581.0,-66.0,-44.0,3.0,1.0
2022-05-23 13:36:03.844367-07:00,1465.4,967.9,1655.8,1562.7,1112.1,947.5,1819.7,1469.0,3457.6,3460.1,1589.9,1242.6,2067.5,3473.4,1913.4,1801.3,3466.1,3471.0,1530.1,2029.4,2619.9,3489.2,1865.4,3478.3,3475.9,3475.9,752.9,1072.1,2331.6,1427.7,1334.1,912.7,-13.0,8.0,-17.0,9604.0,-13150.0,-675.0,1678.0,55.0,-107.0,-54.0,0.0,-18.0,26.0,6804.0,-12050.0,7486.0,-4573.0,34.0,-19.0,25.0,1.0
2022-05-23 13:36:03.845395-07:00,1508.8,998.7,1655.8,1562.7,1106.9,952.6,1863.5,1469.0,3469.8,3473.4,1589.9,1242.6,2047.4,3473.4,1898.7,1801.3,3466.1,3473.4,1518.0,2043.4,2619.9,3489.2,1852.8,3481.9,3475.9,3473.4,751.3,1072.1,2331.6,1427.7,1330.5,918.6,5.0,-27.0,33.0,9601.0,-13139.0,-754.0,1748.0,-103.0,-222.0,-36.0,-5.0,17.0,-17.0,6818.0,-12043.0,7483.0,-4573.0,27.0,-29.0,1.0,1.0
2022-05-23 13:36:03.903822-07:00,1508.8,998.7,1644.5,1553.4,1106.9,952.6,1916.4,1515.3,3469.8,3473.4,1582.4,1236.4,2047.4,3473.4,1884.0,1795.5,3478.3,3477.1,1518.0,2043.4,2625.4,3485.6,1852.8,3481.9,3478.3,3481.9,751.3,1072.1,2443.0,1425.9,1330.5,918.6,-20.0,23.0,4.0,9602.0,-13130.0,-781.0,1799.0,56.0,-101.0,35.0,0.0,-30.0,22.0,6827.0,-12044.0,7484.0,-4556.0,58.0,-19.0,57.0,1.0
2022-05-23 13:36:03.933644-07:00,1536.6,1005.6,1644.5,1553.4,1137.5,946.6,1916.4,1515.3,3461.3,3469.8,1582.4,1236.4,2028.4,3464.9,1884.0,1795.5,3478.3,3477.1,1522.7,2035.4,2625.4,3485.6,1853.7,3479.5,3478.3,3481.9,752.1,1059.9,2443.0,1425.9,1320.5,924.5,36.0,-2.0,26.0,9617.0,-13107.0,-834.0,1858.0,52.0,-161.0,-5.0,2.0,29.0,-9.0,6854.0,-12025.0,7486.0,-4562.0,-4.0,-11.0,1.0,1.0
2022-05-23 13:36:03.964148-07:00,1536.6,1005.6,1653.9,1556.2,1137.5,946.6,1920.3,1529.2,3461.3,3469.8,1582.4,1232.8,2028.4,3464.9,1882.0,1783.9,3471.0,3469.8,1522.7,2035.4,2627.5,3496.6,1853.7,3479.5,3468.6,3472.2,752.1,1059.9,2463.2,1411.3,1320.5,924.5,-23.0,-22.0,4.0,9603.0,-13115.0,-802.0,1890.0,13.0,-38.0,124.0,-7.0,-10.0,19.0,6839.0,-12039.0,7488.0,-4544.0,-93.0,-18.0,0.0,1.0
2022-05-23 13:36:04.024073-07:00,1559.9,1003.0,1653.9,1556.2,1159.4,939.8,1920.3,1529.2,3475.9,3467.4,1582.4,1232.8,1990.5,3461.3,1882.0,1783.9,3471.0,3469.8,1523.6,2030.4,2627.5,3496.6,1854.7,3489.2,3468.6,3472.2,744.7,1059.9,2463.2,1411.3,1312.4,938.1,25.0,36.0,9.0,9639.0,-13082.0,-797.0,1936.0,65.0,-85.0,-7.0,-4.0,10.0,-7.0,6818.0,-12052.0,7497.0,-4528.0,-47.0,-1.0,-9.0,1.0
2022-05-23 13:36:04.113894-07:00,1559.9,1003.0,1626.5,1573.9,1159.4,944.1,1916.4,1524.5,3475.9,3467.4,1584.2,1231.9,1990.5,3475.9,1882.0,1765.6,3462.5,3473.4,1517.1,2030.4,2623.2,3495.3,1854.7,3489.2,3471.0,3473.4,750.5,1059.9,2432.4,1398.5,1312.4,938.1,-14.0,3.0,10.0,9616.0,-13098.0,-801.0,1941.0,-124.0,-4.0,27.0,-11.0,-27.0,7.0,6796.0,-12075.0,7492.0,-4506.0,-79.0,-82.0,-44.0,1.0
2022-05-23 13:36:04.115190-07:00,1578.6,985.0,1614.3,1573.9,1166.5,944.1,1916.4,1524.5,3467.4,3469.8,1566.5,1231.9,1987.5,3475.9,1882.0,1765.6,3462.5,3473.4,1517.1,2028.4,2623.2,3489.2,1849.8,3479.5,3471.0,3473.4,750.5,1042.6,2432.4,1403.0,1304.3,931.3,7.0,16.0,-6.0,9573.0,-13123.0,-831.0,1976.0,-103.0,-190.0,-19.0,0.0,0.0,-37.0,6795.0,-12096.0,7476.0,-4478.0,23.0,-57.0,-1.0,1.0
2022-05-23 13:36:04.203994-07:00,1578.6,985.0,1614.3,1559.9,1166.5,941.5,1912.4,1582.4,3467.4,3469.8,1566.5,1228.4,1987.5,3462.5,1868.4,1762.7,3475.9,3474.6,1511.5,2028.4,2617.8,3489.2,1849.8,3479.5,3467.4,3457.6,739.7,1042.6,2392.4,1403.0,1304.3,931.3,-57.0,-41.0,-57.0,9517.0,-13155.0,-869.0,2015.0,-218.0,-41.0,40.0,-7.0,-12.0,3.0,6875.0,-12078.0,7427.0,-4488.0,290.0,-121.0,-15.0,1.0
2022-05-23 13:36:04.205309-07:00,1576.8,996.2,1619.0,1559.9,1139.2,941.5,1912.4,1582.4,3468.6,3464.9,1566.5,1228.4,1965.7,3462.5,1868.4,1762.7,3475.9,3474.6,1511.5,2037.4,2617.8,3488.0,1842.0,3499.0,3467.4,3457.6,739.7,1047.0,2392.4,1433.2,1306.1,933.0,68.0,-27.0,46.0,9413.0,-13202.0,-958.0,2148.0,-263.0,-648.0,-4.0,-2.0,-6.0,20.0,6931.0,-12075.0,7388.0,-4474.0,-113.0,-78.0,-14.0,1.0
2022-05-23 13:36:04.293689-07:00,1576.8,996.2,1619.0,1571.1,1139.2,962.0,1967.7,1581.4,3468.6,3464.9,1566.5,1220.4,1965.7,3467.4,1880.1,1827.5,3478.3,3464.9,1520.8,2037.4,2611.3,3488.0,1842.0,3499.0,3472.2,3468.6,750.5,1047.0,2394.5,1433.2,1306.1,933.0,-43.0,3.0,-18.0,9412.0,-13174.0,-1019.0,2290.0,167.0,-194.0,174.0,-5.0,26.0,0.0,6939.0,-12085.0,7372.0,-4461.0,23.0,-16.0,-17.0,1.0
2022-05-23 13:36:04.323853-07:00,1625.6,1028.8,1618.1,1571.1,1126.1,962.0,1967.7,1581.4,3464.9,3466.1,1557.1,1220.4,1939.0,3467.4,1880.1,1827.5,3478.3,3464.9,1520.8,2031.4,2611.3,3497.8,1835.2,3488.0,3472.2,3468.6,750.5,1062.5,2394.5,1488.4,1333.2,925.4,39.0,-6.0,69.0,9375.0,-13176.0,-1061.0,2409.0,-256.0,-378.0,11.0,1.0,-16.0,11.0,6926.0,-12094.0,7374.0,-4454.0,-130.0,17.0,14.0,1.0
2022-05-23 13:36:04.383708-07:00,1625.6,1028.8,1618.1,1553.4,1111.2,976.5,2030.4,1625.6,3464.9,3466.1,1557.1,1239.1,1904.6,3467.4,1891.8,1840.1,3472.2,3462.5,1514.3,2021.4,2618.8,3497.8,1835.2,3488.0,3472.2,3461.3,754.6,1070.3,2419.8,1488.4,1333.2,925.4,38.0,7.0,79.0,9363.0,-13166.0,-1121.0,2486.0,123.0,-73.0,23.0,0.0,9.0,-13.0,6895.0,-12100.0,7398.0,-4445.0,-51.0,44.0,15.0,1.0
2022-05-23 13:36:04.444442-07:00,1631.3,1006.5,1633.1,1544.1,1111.2,976.5,2030.4,1625.6,3475.9,3460.1,1559.0,1219.5,1904.6,3467.4,1891.8,1840.1,3472.2,3462.5,1514.3,2021.4,2617.8,3489.2,1824.6,3489.2,3472.2,3461.3,754.6,1070.3,2371.3,1460.8,1338.6,922.8,-24.0,-45.0,7.0,9376.0,-13160.0,-1082.0,2481.0,-120.0,-39.0,14.0,-9.0,-14.0,17.0,6882.0,-12095.0,7414.0,-4451.0,-9.0,42.0,24.0,1.0
2022-05-23 13:36:04.474194-07:00,1631.3,1006.5,1633.1,1544.1,1107.8,973.9,2005.5,1597.4,3475.9,3460.1,1559.0,1219.5,1892.8,3462.5,1872.3,1802.3,3473.4,3457.6,1513.4,2027.4,2617.8,3489.2,1824.6,3489.2,3473.4,3472.2,748.0,1048.7,2371.3,1460.8,1338.6,922.8,21.0,0.0,26.0,9356.0,-13171.0,-1085.0,2502.0,1.0,35.0,26.0,-10.0,5.0,-14.0,6867.0,-12096.0,7427.0,-4450.0,-30.0,18.0,1.0,1.0
2022-05-23 13:36:04.504029-07:00,1604.9,1005.6,1599.3,1546.9,1107.8,973.9,2005.5,1597.4,3466.1,3466.1,1559.9,1226.6,1892.8,3462.5,1872.3,1802.3,3473.4,3457.6,1513.4,2027.4,2622.1,3485.6,1819.7,3484.4,3473.4,3472.2,748.0,1048.7,2349.4,1463.5,1341.3,922.0,-34.0,26.0,-29.0,9381.0,-13159.0,-1058.0,2482.0,67.0,11.0,0.0,3.0,-6.0,19.0,6869.0,-12092.0,7427.0,-4456.0,36.0,10.0,8.0,1.0
2022-05-23 13:36:04.593647-07:00,1604.9,1005.6,1599.3,1546.9,1122.6,973.1,1977.6,1577.7,3466.1,3466.1,1559.9,1226.6,1886.9,3468.6,1871.3,1795.5,3472.2,3464.9,1515.3,2033.4,2622.1,3485.6,1819.7,3484.4,3472.2,3462.5,751.3,1048.7,2349.4,1463.5,1341.3,922.0,14.0,-8.0,12.0,9387.0,-13154.0,-1059.0,2486.0,29.0,47.0,15.0,-1.0,-4.0,8.0,6893.0,-12080.0,7419.0,-4468.0,110.0,-14.0,-2.0,1.0
2022-05-23 13:36:04.624487-07:00,1582.4,1001.3,1590.8,1534.8,1122.6,973.1,1977.6,1575.8,3475.9,3471.0,1551.5,1219.5,1886.9,3468.6,1871.3,1766.6,3473.4,3464.9,1515.3,2033.4,2617.8,3488.0,1816.8,3488.0,3472.2,3462.5,751.3,1048.7,2337.9,1456.2,1314.2,916.0,-11.0,-16.0,-17.0,9407.0,-13142.0,-1042.0,2475.0,38.0,-46.0,-23.0,-11.0,-1.0,18.0,6933.0,-12058.0,7404.0,-4489.0,77.0,-2.0,9.0,1.0
2022-05-23 13:36:04.653772-07:00,1551.5,1001.3,1590.8,1534.8,1080.8,962.8,1973.7,1575.8,3457.6,3471.0,1551.5,1219.5,1899.7,3472.2,1866.4,1766.6,3473.4,3471.0,1514.3,1996.5,2617.8,3488.0,1816.8,3486.8,3472.2,3480.7,749.6,1047.8,2337.9,1456.2,1314.2,907.6,13.0,-10.0,33.0,9431.0,-13119.0,-1052.0,2504.0,137.0,-5.0,47.0,-6.0,-25.0,20.0,6933.0,-12055.0,7410.0,-4487.0,-64.0,15.0,27.0,1.0
2022-05-23 13:36:04.713801-07:00,1551.5,988.5,1600.2,1529.2,1080.8,962.8,1973.7,1563.7,3457.6,3478.3,1552.5,1219.5,1899.7,3472.2,1866.4,1766.6,3471.0,3471.0,1514.3,1996.5,2613.4,3484.4,1810.0,3486.8,3469.8,3480.7,749.6,1047.8,2311.8,1453.4,1311.5,907.6,-23.0,12.0,7.0,9486.0,-13081.0,-1015.0,2508.0,124.0,-9.0,27.0,0.0,-8.0,-11.0,6911.0,-12064.0,7424.0,-4475.0,-96.0,-2.0,-8.0,1.0
2022-05-23 13:36:04.773867-07:00,1559.0,988.5,1600.2,1529.2,1102.5,959.4,1967.7,1563.7,3477.1,3478.3,1552.5,1219.5,1866.4,3461.3,1847.9,1766.6,3471.0,3468.6,1512.5,2018.4,2613.4,3484.4,1810.0,3492.9,3469.8,3469.8,738.1,1040.1,2311.8,1453.4,1311.5,919.4,-9.0,8.0,0.0,9471.0,-13092.0,-1003.0,2517.0,-43.0,-28.0,41.0,-10.0,3.0,2.0,6919.0,-12061.0,7420.0,-4477.0,63.0,-10.0,1.0,1.0
2022-05-23 13:36:04.893615-07:00,1559.0,983.3,1588.0,1532.9,1102.5,959.4,1967.7,1574.9,3477.1,3463.7,1541.3,1206.2,1866.4,3461.3,1847.9,1762.7,3475.9,3468.6,1512.5,2018.4,2604.8,3490.5,1802.3,3492.9,3483.2,3469.8,738.1,1040.1,2309.7,1448.8,1300.7,919.4,10.0,-34.0,0.0,9447.0,-13104.0,-1017.0,2537.0,-76.0,-32.0,12.0,-8.0,17.0,18.0,6923.0,-12061.0,7416.0,-4479.0,-36.0,5.0,0.0,1.0
2022-05-23 13:36:04.924429-07:00,1556.2,983.3,1588.0,1532.9,1083.4,966.2,1964.7,1574.9,3468.6,3463.7,1541.3,1206.2,1868.4,3473.4,1847.9,1762.7,3475.9,3467.4,1515.3,2020.4,2604.8,3490.5,1802.3,3495.3,3483.2,3464.9,740.6,1042.6,2309.7,1448.8,1300.7,915.2,-5.0,25.0,6.0,9462.0,-13089.0,-1012.0,2563.0,93.0,-58.0,29.0,13.0,-12.0,-4.0,6837.0,-12104.0,7451.0,-4434.0,-434.0,17.0,-16.0,1.0
2022-05-23 13:36:04.925845-07:00,1556.2,993.6,1596.4,1544.1,1083.4,966.2,1936.1,1575.8,3468.6,3475.9,1547.8,1220.4,1868.4,3473.4,1844.0,1742.6,3467.4,3464.9,1515.3,2020.4,2613.4,3492.9,1805.2,3495.3,3466.1,3479.5,740.6,1042.6,2351.4,1447.9,1308.8,915.2,-22.0,7.0,7.0,9484.0,-13069.0,-1004.0,2586.0,40.0,11.0,79.0,5.0,0.0,-14.0,6780.0,-12131.0,7481.0,-4398.0,74.0,-11.0,21.0,1.0
2022-05-23 13:36:04.953814-07:00,1580.5,993.6,1596.4,1544.1,1099.0,952.6,1936.1,1575.8,3466.1,3473.4,1547.8,1220.4,1944.0,3461.3,1844.0,1742.6,3467.4,3464.9,1508.8,2024.4,2613.4,3492.9,1818.7,3490.5,3466.1,3479.5,748.8,1056.5,2351.4,1447.9,1304.3,916.0,1.0,-5.0,-13.0,9344.0,-13151.0,-1041.0,2666.0,-662.0,-507.0,-50.0,-15.0,-10.0,16.0,6828.0,-12114.0,7461.0,-4404.0,121.0,-54.0,18.0,1.0
2022-05-23 13:36:05.014264-07:00,1580.5,993.6,1598.3,1543.1,1099.0,952.6,1937.1,1557.1,3466.1,3473.4,1546.9,1206.2,1944.0,3461.3,1846.9,1736.8,3471.0,3467.4,1508.8,2024.4,2626.5,3481.9,1818.7,3490.5,3464.9,3469.8,748.8,1056.5,2494.0,1442.4,1304.3,916.0,15.0,18.0,8.0,9246.0,-13185.0,-1159.0,2784.0,23.0,-187.0,43.0,-9.0,10.0,7.0,6874.0,-12096.0,7448.0,-4406.0,66.0,-38.0,10.0,1.0
2022-05-23 13:36:05.073807-07:00,1549.7,991.9,1598.3,1543.1,1091.2,961.1,1937.1,1557.1,3447.9,3464.9,1546.9,1206.2,1915.4,3468.6,1846.9,1736.8,3471.0,3467.4,1512.5,2040.4,2626.5,3481.9,1808.1,3477.1,3464.9,3469.8,736.5,1038.3,2494.0,1442.4,1307.0,905.9,-18.0,-13.0,15.0,9274.0,-13148.0,-1193.0,2852.0,131.0,-226.0,12.0,-3.0,-9.0,16.0,6876.0,-12096.0,7447.0,-4403.0,-30.0,11.0,6.0,1.0
2022-05-23 13:36:05.103754-07:00,1549.7,991.9,1579.6,1539.4,1091.2,961.1,1916.4,1548.7,3447.9,3464.9,1542.2,1215.1,1915.4,3468.6,1839.1,1721.5,3472.2,3460.1,1512.5,2040.4,2630.8,3484.4,1808.1,3477.1,3472.2,3469.8,736.5,1038.3,2433.5,1446.0,1307.0,905.9,14.0,40.0,49.0,9290.0,-13120.0,-1200.0,2924.0,29.0,-40.0,79.0,-3.0,0.0,0.0,6861.0,-12099.0,7460.0,-4396.0,-65.0,13.0,15.0,1.0
2022-05-23 13:36:05.224138-07:00,1547.8,978.2,1599.3,1539.4,1074.7,952.6,1916.4,1548.7,3464.9,3457.6,1536.6,1215.1,1910.5,3467.4,1839.1,1721.5,3472.2,3460.1,1519.9,2051.4,2630.8,3486.8,1803.2,3485.6,3472.2,3469.8,733.2,1040.9,2433.5,1432.3,1290.9,890.7,0.0,-3.0,23.0,9272.0,-13133.0,-1185.0,2932.0,-71.0,13.0,48.0,-3.0,3.0,1.0,6855.0,-12101.0,7470.0,-4383.0,5.0,-17.0,30.0,1.0
2022-05-23 13:36:05.225997-07:00,1547.8,978.2,1599.3,1537.6,1074.7,952.6,1913.4,1548.7,3464.9,3457.6,1536.6,1214.2,1910.5,3472.2,1829.4,1726.3,3471.0,3475.9,1506.0,2051.4,2634.1,3486.8,1803.2,3485.6,3469.8,3474.6,731.5,1040.9,2411.3,1432.3,1290.9,890.7,-8.0,-10.0,0.0,9252.0,-13152.0,-1159.0,2921.0,-65.0,93.0,50.0,-4.0,-7.0,10.0,6863.0,-12098.0,7472.0,-4373.0,18.0,-22.0,14.0,1.0
2022-05-23 13:36:05.254040-07:00,1520.8,972.2,1591.7,1537.6,1074.7,952.6,1913.4,1548.7,3462.5,3462.5,1546.9,1214.2,1882.0,3472.2,1829.4,1726.3,3471.0,3475.9,1506.0,2038.4,2634.1,3491.7,1796.5,3488.0,3469.8,3474.6,731.5,1031.4,2411.3,1434.1,1296.3,912.7,-5.0,4.0,-7.0,9239.0,-13160.0,-1128.0,2934.0,0.0,-24.0,94.0,-3.0,6.0,7.0,6886.0,-12088.0,7468.0,-4373.0,60.0,-18.0,18.0,1.0
2022-05-23 13:36:05.313791-07:00,1520.8,972.2,1591.7,1532.9,1074.7,948.3,1918.3,1533.8,3462.5,3462.5,1546.9,1210.6,1882.0,3478.3,1834.3,1716.7,3466.1,3457.6,1515.3,2038.4,2633.0,3491.7,1796.5,3488.0,3467.4,3466.1,738.9,1031.4,2378.7,1434.1,1296.3,912.7,-15.0,11.0,0.0,9236.0,-13162.0,-1102.0,2945.0,21.0,31.0,41.0,-5.0,-8.0,18.0,6894.0,-12084.0,7467.0,-4372.0,11.0,3.0,9.0,1.0
2022-05-23 13:36:05.373729-07:00,1505.1,976.5,1584.2,1532.9,1069.5,948.3,1918.3,1533.8,3467.4,3466.1,1539.4,1210.6,1885.0,3478.3,1834.3,1716.7,3466.1,3457.6,1515.3,2047.4,2633.0,3486.8,1789.7,3481.9,3467.4,3466.1,738.9,1034.0,2378.7,1435.0,1300.7,904.2,1.0,20.0,20.0,9248.0,-13150.0,-1101.0,2964.0,42.0,-42.0,13.0,-1.0,7.0,0.0,6908.0,-12077.0,7463.0,-4380.0,24.0,6.0,7.0,1.0
2022-05-23 13:36:05.403841-07:00,1505.1,976.5,1584.2,1527.3,1074.7,948.3,1920.3,1535.7,3467.4,3466.1,1539.4,1198.2,1876.2,3477.1,1837.2,1718.6,3473.4,3471.0,1513.4,2046.4,2631.9,3486.8,1789.7,3481.9,3473.4,3466.1,724.1,1024.5,2360.9,1435.0,1300.7,904.2,-9.0,5.0,9.0,9251.0,-13146.0,-1100.0,2970.0,19.0,-25.0,-12.0,0.0,0.0,10.0,6908.0,-12073.0,7469.0,-4380.0,-4.0,12.0,17.0,1.0
2022-05-23 13:36:05.463828-07:00,1519.0,969.6,1588.0,1521.8,1074.7,948.3,1920.3,1535.7,3460.1,3464.9,1534.8,1206.2,1876.2,3477.1,1837.2,1718.6,3473.4,3471.0,1513.4,2046.4,2626.5,3489.2,1790.7,3489.2,3473.4,3466.1,724.1,1024.5,2349.4,1433.2,1295.4,899.1,2.0,4.0,14.0,9268.0,-13130.0,-1114.0,2984.0,38.0,-38.0,-2.0,-2.0,0.0,9.0,6896.0,-12074.0,7482.0,-4374.0,-55.0,20.0,20.0,1.0
2022-05-23 13:36:05.553749-07:00,1519.0,969.6,1588.0,1521.8,1078.2,939.0,1901.6,1536.6,3460.1,3464.9,1534.8,1206.2,1871.3,3473.4,1830.4,1719.6,3468.6,3473.4,1510.6,2046.4,2626.5,3489.2,1790.7,3489.2,3472.2,3463.7,731.5,1027.1,2349.4,1433.2,1295.4,899.1,-5.0,4.0,12.0,9271.0,-13128.0,-1103.0,2986.0,-1.0,32.0,19.0,-4.0,-2.0,7.0,6879.0,-12079.0,7493.0,-4366.0,-23.0,10.0,6.0,1.0
2022-05-23 13:36:05.555040-07:00,1499.5,967.9,1590.8,1516.2,1078.2,939.0,1901.6,1536.6,3460.1,3471.0,1530.1,1209.7,1871.3,3473.4,1830.4,1719.6,3468.6,3473.4,1510.6,2046.4,2631.9,3495.3,1787.8,3485.6,3472.2,3463.7,731.5,1027.1,2359.8,1432.3,1289.1,906.7,-2.0,11.0,1.0,9261.0,-13138.0,-1089.0,2981.0,-47.0,35.0,31.0,-2.0,1.0,0.0,6871.0,-12083.0,7497.0,-4361.0,-44.0,-6.0,-5.0,1.0
2022-05-23 13:36:05.613782-07:00,1499.5,967.9,1590.8,1516.2,1066.9,949.2,1898.7,1569.3,3460.1,3471.0,1530.1,1209.7,1864.5,3471.0,1824.6,1710.0,3477.1,3471.0,1508.8,2045.4,2631.9,3495.3,1787.8,3485.6,3467.4,3483.2,727.4,1028.8,2359.8,1432.3,1289.1,906.7,-2.0,0.0,0.0,9240.0,-13155.0,-1075.0,2975.0,-28.0,29.0,26.0,-5.0,-4.0,8.0,6857.0,-12093.0,7499.0,-4352.0,-31.0,-9.0,-11.0,1.0
2022-05-23 13:36:05.673904-07:00,1504.1,967.9,1593.6,1513.4,1066.9,949.2,1898.7,1569.3,3473.4,3478.3,1524.5,1206.2,1864.5,3471.0,1824.6,1710.0,3477.1,3471.0,1508.8,2045.4,2625.4,3485.6,1785.8,3483.2,3467.4,3483.2,727.4,1028.8,2335.8,1418.6,1296.3,903.4,0.0,12.0,8.0,9229.0,-13163.0,-1062.0,2978.0,-56.0,13.0,31.0,-2.0,-10.0,13.0,6850.0,-12099.0,7498.0,-4350.0,-4.0,-3.0,-12.0,1.0
2022-05-23 13:36:05.733767-07:00,1494.9,967.9,1593.6,1513.4,1062.5,941.5,1896.7,1538.5,3466.1,3478.3,1524.5,1206.2,1869.3,3469.8,1816.8,1711.0,3469.8,3477.1,1502.3,2046.4,2625.4,3485.6,1785.8,3488.0,3467.4,3474.6,730.7,1022.8,2335.8,1418.6,1296.3,905.0,-3.0,3.0,10.0,9209.0,-13178.0,-1059.0,2976.0,-43.0,6.0,2.0,-1.0,0.0,4.0,6855.0,-12098.0,7491.0,-4356.0,-1.0,-2.0,-18.0,1.0
2022-05-23 13:36:05.763703-07:00,1494.9,967.9,1574.9,1508.8,1062.5,941.5,1896.7,1529.2,3466.1,3466.1,1514.3,1199.1,1869.3,3469.8,1816.8,1705.3,3467.4,3477.1,1502.3,2046.4,2617.8,3486.8,1783.9,3488.0,3475.9,3474.6,730.7,1022.8,2326.4,1419.5,1294.5,905.0,-5.0,0.0,8.0,9201.0,-13183.0,-1064.0,2977.0,-14.0,-18.0,-20.0,-1.0,0.0,8.0,6855.0,-12100.0,7485.0,-4360.0,-9.0,2.0,-13.0,1.0
2022-05-23 13:36:05.823803-07:00,1526.4,967.9,1574.9,1508.8,1059.1,943.2,1887.9,1529.2,3475.9,3466.1,1514.3,1199.1,1863.5,3472.2,1817.8,1705.3,3467.4,3473.4,1510.6,2038.4,2617.8,3486.8,1783.9,3488.0,3475.9,3471.0,716.7,1021.9,2326.4,1419.5,1294.5,894.9,0.0,8.0,8.0,9206.0,-13177.0,-1079.0,2982.0,-4.0,-21.0,-17.0,-5.0,-2.0,6.0,6851.0,-12103.0,7486.0,-4357.0,-19.0,7.0,2.0,1.0
2022-05-23 13:36:05.884196-07:00,1526.4,961.1,1578.6,1520.8,1059.1,943.2,1887.9,1517.1,3475.9,3467.4,1536.6,1195.6,1863.5,3472.2,1817.8,1711.9,3478.3,3473.4,1510.6,2038.4,2635.1,3485.6,1777.2,3488.0,3471.0,3471.0,716.7,1021.9,2331.6,1422.2,1282.8,894.9,-3.0,0.0,4.0,9211.0,-13173.0,-1085.0,2979.0,10.0,10.0,-10.0,-12.0,-2.0,9.0,6844.0,-12104.0,7490.0,-4357.0,-26.0,21.0,11.0,1.0
2022-05-23 13:36:05.973843-07:00,1496.7,961.1,1578.6,1520.8,1075.6,939.0,1878.1,1517.1,3473.4,3467.4,1536.6,1195.6,1855.7,3473.4,1829.4,1711.9,3478.3,3475.9,1507.8,2045.4,2635.1,3485.6,1777.2,3484.4,3471.0,3472.2,728.2,1024.5,2331.6,1422.2,1282.8,900.0,-5.0,0.0,18.0,9205.0,-13178.0,-1086.0,2979.0,-35.0,-7.0,5.0,-9.0,-1.0,0.0,6834.0,-12105.0,7500.0,-4355.0,-10.0,8.0,17.0,1.0
2022-05-23 13:36:05.975170-07:00,1496.7,958.5,1592.7,1500.4,1075.6,939.0,1883.0,1510.6,3473.4,3468.6,1525.5,1192.0,1855.7,3473.4,1820.7,1703.3,3474.6,3466.1,1507.8,2045.4,2615.6,3489.2,1777.2,3484.4,3480.7,3479.5,728.2,1024.5,2316.0,1414.0,1292.7,900.0,-9.0,5.0,8.0,9201.0,-13182.0,-1082.0,2974.0,-12.0,37.0,5.0,0.0,0.0,3.0,6834.0,-12102.0,7506.0,-4351.0,-9.0,-12.0,18.0,1.0
2022-05-23 13:36:06.003779-07:00,1484.7,967.1,1592.7,1500.4,1059.9,928.8,1883.0,1510.6,3467.4,3478.3,1525.5,1192.0,1864.5,3464.9,1820.7,1703.3,3474.6,3466.1,1504.1,2043.4,2615.6,3489.2,1780.1,3489.2,3480.7,3479.5,732.3,1021.1,2316.0,1414.0,1280.1,912.7,-7.0,-6.0,1.0,9193.0,-13189.0,-1081.0,2971.0,-23.0,-4.0,5.0,8.0,0.0,7.0,6830.0,-12104.0,7513.0,-4339.0,-42.0,-7.0,12.0,1.0
