Time,P0,P1,P2,P3,P4,P5,P6,P7,P8,P9,P10,P11,P12,P13,P14,P15,P16,P17,P18,P19,P20,P21,P22,P23,P24,P25,P26,P27,P28,P29,P30,P31,ECG,AX0,AY0,AZ0,QW0,QX0,QY0,QZ0,GX0,GY0,GZ0,AX1,AY1,AZ1,QW1,QX1,QY1,QZ1,GX1,GY1,GZ1
2022-05-23 14:56:55.456829-07:00,1291.8,831.9,1224.8,1061.7,975.6,851.1,1764.6,1360.3,3461.3,3466.1,1096.4,853.7,1638.8,3478.3,1294.5,1221.3,3473.4,3478.3,1680.5,2273.4,2762.4,3486.8,1739.7,3484.4,3469.8,3475.9,653.0,835.2,1781.0,1047.8,999.6,862.9,-13.0,-2.0,-8.0,7514.0,-5544.0,9141.0,-9884.0,64.0,-26.0,-48.0,-3.0,-1.0,12.0,9042.0,-10019.0,-6663.0,6472.0,46.0,-18.0,-17.0,1.0
2022-05-23 14:56:55.486994-07:00,1291.8,831.9,1222.2,1073.8,975.6,851.1,1770.4,1353.1,3461.3,3466.1,1099.0,851.1,1638.8,3478.3,1297.2,1224.8,3478.3,3475.9,1680.5,2273.4,2764.6,3488.0,1739.7,3484.4,3462.5,3472.2,653.0,835.2,1782.9,1043.5,999.6,862.9,-12.0,-19.0,-6.0,7518.0,-5551.0,9110.0,-9905.0,68.0,-20.0,-40.0,-8.0,0.0,7.0,9056.0,-10002.0,-6659.0,6484.0,45.0,-15.0,-4.0,1.0
2022-05-23 14:56:55.547102-07:00,1273.0,833.6,1222.2,1073.8,970.5,837.7,1770.4,1353.1,3469.8,3464.9,1099.0,851.1,1636.0,3464.9,1297.2,1224.8,3478.3,3475.9,1667.2,2268.3,2764.6,3488.0,1741.6,3480.7,3462.5,3472.2,657.9,831.9,1782.9,1043.5,993.6,860.4,-6.0,0.0,-12.0,7521.0,-5540.0,9106.0,-9912.0,32.0,16.0,14.0,1.0,4.0,12.0,9061.0,-9993.0,-6657.0,6494.0,30.0,-13.0,6.0,1.0
2022-05-23 14:56:55.607179-07:00,1273.0,833.6,1228.4,1076.4,970.5,837.7,1757.0,1359.4,3469.8,3464.9,1106.9,852.8,1636.0,3464.9,1297.2,1231.9,3471.0,3466.1,1667.2,2268.3,2766.8,3491.7,1741.6,3480.7,3478.3,3472.2,657.9,831.9,1782.0,1046.1,993.6,860.4,0.0,-10.0,-8.0,7524.0,-5534.0,9093.0,-9925.0,56.0,0.0,-26.0,0.0,0.0,7.0,9072.0,-9981.0,-6651.0,6502.0,47.0,-9.0,-11.0,1.0
2022-05-23 14:56:55.636886-07:00,1291.8,831.9,1223.9,1076.4,962.8,846.1,1757.0,1359.4,3464.9,3467.4,1100.8,852.8,1636.0,3467.4,1297.2,1231.9,3471.0,3466.1,1655.8,2278.6,2766.8,3489.2,1738.7,3485.6,3478.3,3472.2,656.2,830.2,1782.0,1045.2,997.0,861.2,-9.0,-4.0,-7.0,7528.0,-5527.0,9082.0,-9937.0,37.0,7.0,3.0,-2.0,0.0,9.0,9081.0,-9968.0,-6647.0,6513.0,31.0,-14.0,2.0,1.0
2022-05-23 14:56:55.757008-07:00,1291.8,831.9,1223.9,1073.8,962.8,836.1,1747.3,1350.3,3464.9,3467.4,1100.8,862.1,1636.0,3468.6,1299.0,1227.5,3471.0,3475.9,1650.2,2278.6,2782.4,3489.2,1738.7,3485.6,3474.6,3466.1,661.1,830.2,1784.9,1045.2,997.0,861.2,-13.0,-6.0,-13.0,7531.0,-5522.0,9072.0,-9946.0,39.0,3.0,-21.0,-8.0,4.0,8.0,9087.0,-9961.0,-6643.0,6520.0,30.0,-5.0,-5.0,1.0
2022-05-23 14:56:55.757964-07:00,1285.5,824.4,1217.7,1073.8,965.4,836.1,1747.3,1350.3,3462.5,3460.1,1106.0,862.1,1633.1,3468.6,1299.0,1227.5,3471.0,3475.9,1650.2,2272.4,2782.4,3495.3,1735.8,3485.6,3474.6,3466.1,661.1,831.1,1784.9,1055.6,1003.9,858.7,-5.0,-10.0,-12.0,7531.0,-5522.0,9076.0,-9943.0,-26.0,-8.0,16.0,-3.0,0.0,6.0,9084.0,-9958.0,-6646.0,6525.0,-20.0,-24.0,0.0,1.0
2022-05-23 14:56:55.786850-07:00,1285.5,824.4,1217.7,1073.8,965.4,847.8,1751.2,1335.0,3462.5,3460.1,1106.0,854.5,1633.1,3458.9,1307.9,1223.9,3473.4,3473.4,1673.8,2272.4,2763.5,3495.3,1735.8,3485.6,3479.5,3462.5,659.5,831.1,1777.2,1055.6,1003.9,858.7,-8.0,-2.0,-9.0,7536.0,-5517.0,9074.0,-9943.0,51.0,-9.0,0.0,-3.0,1.0,9.0,9084.0,-9951.0,-6649.0,6533.0,40.0,-14.0,-4.0,1.0
2022-05-23 14:56:55.847034-07:00,1281.0,826.0,1226.6,1073.8,970.5,847.8,1751.2,1335.0,3478.3,3469.8,1102.5,854.5,1635.0,3458.9,1307.9,1223.9,3473.4,3473.4,1673.8,2262.1,2763.5,3485.6,1737.8,3483.2,3479.5,3462.5,659.5,827.7,1777.2,1052.2,1007.3,862.1,-4.0,-10.0,-8.0,7544.0,-5516.0,9061.0,-9949.0,29.0,-16.0,-13.0,-3.0,0.0,7.0,9089.0,-9940.0,-6647.0,6544.0,23.0,-20.0,-5.0,1.0
2022-05-23 14:56:55.906865-07:00,1281.0,826.0,1226.6,1069.5,968.8,845.3,1741.6,1363.9,3478.3,3469.8,1102.5,853.7,1632.2,3471.0,1312.4,1232.8,3467.4,3471.0,1661.5,2275.5,2764.6,3485.6,1737.8,3483.2,3469.8,3475.9,656.2,832.7,1781.0,1052.2,1007.3,862.1,-9.0,-5.0,-6.0,7550.0,-5510.0,9052.0,-9956.0,34.0,5.0,9.0,1.0,2.0,10.0,9093.0,-9931.0,-6647.0,6553.0,30.0,-15.0,5.0,1.0
2022-05-23 14:56:55.936900-07:00,1278.3,818.5,1217.7,1081.6,968.8,845.3,1741.6,1363.9,3473.4,3468.6,1112.1,859.5,1632.2,3471.0,1312.4,1232.8,3467.4,3471.0,1661.5,2275.5,2756.9,3494.1,1733.9,3481.9,3469.8,3475.9,656.2,832.7,1781.0,1053.0,1005.6,860.4,-11.0,0.0,-4.0,7556.0,-5502.0,9047.0,-9961.0,23.0,7.0,-1.0,-3.0,1.0,7.0,9098.0,-9924.0,-6645.0,6559.0,15.0,-8.0,-1.0,1.0
2022-05-23 14:56:55.997139-07:00,1278.3,818.5,1217.7,1081.6,979.0,837.7,1757.0,1347.6,3473.4,3468.6,1112.1,859.5,1636.0,3467.4,1308.8,1227.5,3474.6,3466.1,1664.4,2275.5,2756.9,3494.1,1733.9,3481.9,3467.4,3466.1,661.9,831.1,1781.0,1053.0,1005.6,860.4,-10.0,-16.0,-10.0,7554.0,-5500.0,9041.0,-9969.0,18.0,17.0,-17.0,-1.0,-1.0,6.0,9100.0,-9922.0,-6643.0,6562.0,1.0,-10.0,-3.0,1.0
2022-05-23 14:56:56.056859-07:00,1285.5,820.2,1223.9,1072.1,979.0,837.7,1757.0,1347.6,3464.9,3471.0,1103.4,858.7,1636.0,3467.4,1308.8,1227.5,3474.6,3466.1,1664.4,2275.5,2756.9,3475.9,1731.1,3483.2,3467.4,3466.1,661.9,831.1,1779.1,1057.3,997.9,862.1,-8.0,-5.0,-17.0,7556.0,-5496.0,9035.0,-9976.0,26.0,-6.0,4.0,-4.0,0.0,2.0,9102.0,-9919.0,-6642.0,6564.0,15.0,-11.0,8.0,1.0
2022-05-23 14:56:56.087000-07:00,1285.5,820.2,1223.9,1072.1,963.7,834.4,1757.0,1343.1,3464.9,3471.0,1103.4,858.7,1634.1,3464.9,1312.4,1234.6,3463.7,3467.4,1671.9,2271.4,2756.9,3475.9,1731.1,3483.2,3460.1,3472.2,646.5,834.4,1779.1,1057.3,997.9,862.1,-4.0,-2.0,-12.0,7558.0,-5497.0,9032.0,-9976.0,-17.0,-17.0,5.0,-2.0,5.0,3.0,9103.0,-9917.0,-6642.0,6566.0,-9.0,-7.0,-5.0,1.0
2022-05-23 14:56:56.147059-07:00,1272.1,811.9,1224.8,1064.3,963.7,834.4,1757.0,1346.7,3464.9,3469.8,1110.4,860.4,1634.1,3464.9,1312.4,1230.2,3467.4,3467.4,1671.9,2271.4,2755.8,3492.9,1732.0,3485.6,3466.1,3472.2,646.5,834.4,1777.2,1055.6,994.5,846.1,-13.0,-6.0,-7.0,7556.0,-5497.0,9030.0,-9979.0,38.0,16.0,-13.0,-4.0,-3.0,5.0,9102.0,-9916.0,-6645.0,6566.0,16.0,1.0,-9.0,1.0
2022-05-23 14:56:56.206809-07:00,1277.4,811.9,1224.8,1064.3,962.8,849.5,1763.7,1346.7,3462.5,3469.8,1110.4,860.4,1636.9,3467.4,1313.3,1230.2,3467.4,3471.0,1653.0,2263.1,2755.8,3492.9,1732.0,3488.0,3466.1,3478.3,648.9,837.7,1777.2,1055.6,994.5,858.7,-10.0,-3.0,-14.0,7557.0,-5489.0,9021.0,-9991.0,21.0,8.0,-17.0,-3.0,0.0,4.0,9108.0,-9910.0,-6641.0,6570.0,13.0,9.0,-2.0,1.0
2022-05-23 14:56:56.266798-07:00,1277.4,826.9,1235.5,1065.1,962.8,849.5,1763.7,1352.1,3462.5,3473.4,1113.9,864.6,1636.9,3467.4,1313.3,1227.5,3477.1,3471.0,1653.0,2263.1,2758.0,3481.9,1723.4,3488.0,3475.9,3478.3,648.9,837.7,1774.3,1059.9,1004.8,858.7,-6.0,-5.0,-10.0,7553.0,-5487.0,9015.0,-10000.0,24.0,10.0,-14.0,0.0,2.0,5.0,9110.0,-9908.0,-6640.0,6571.0,20.0,6.0,-3.0,1.0
2022-05-23 14:56:56.297662-07:00,1279.2,826.9,1235.5,1065.1,965.4,838.6,1743.5,1352.1,3468.6,3473.4,1113.9,864.6,1636.0,3472.2,1309.7,1227.5,3477.1,3469.8,1662.5,2262.1,2758.0,3481.9,1723.4,3490.5,3475.9,3467.4,663.6,829.4,1774.3,1059.9,1004.8,853.7,-2.0,-3.0,-13.0,7550.0,-5484.0,9015.0,-10005.0,4.0,12.0,-15.0,0.0,0.0,5.0,9111.0,-9907.0,-6639.0,6572.0,-3.0,4.0,-2.0,1.0
2022-05-23 14:56:56.477274-07:00,1279.2,824.4,1235.5,1083.4,965.4,838.6,1743.5,1338.6,3468.6,3466.1,1120.9,865.4,1636.0,3472.2,1309.7,1233.7,3469.8,3469.8,1662.5,2262.1,2754.7,3490.5,1721.5,3490.5,3464.9,3467.4,663.6,829.4,1783.9,1063.4,997.9,853.7,-5.0,-8.0,-14.0,7545.0,-5483.0,9009.0,-10014.0,29.0,5.0,-25.0,-3.0,1.0,5.0,9113.0,-9906.0,-6638.0,6573.0,17.0,-3.0,-3.0,1.0
2022-05-23 14:56:56.478435-07:00,1284.6,824.4,1235.5,1083.4,989.3,839.4,1760.8,1338.6,3466.1,3466.1,1120.9,865.4,1638.8,3464.9,1310.6,1233.7,3469.8,3473.4,1675.7,2267.2,2754.7,3490.5,1721.5,3496.6,3464.9,3462.5,649.7,836.9,1783.9,1063.4,997.9,857.9,-11.0,-8.0,-10.0,7545.0,-5481.0,9006.0,-10018.0,-18.0,9.0,9.0,-4.0,0.0,6.0,9113.0,-9906.0,-6638.0,6573.0,-19.0,-3.0,5.0,1.0
2022-05-23 14:56:56.479204-07:00,1284.6,817.7,1231.9,1074.7,989.3,839.4,1756.0,1346.7,3466.1,3480.7,1129.6,857.9,1638.8,3464.9,1319.6,1228.4,3464.9,3471.0,1675.7,2267.2,2763.5,3492.9,1724.4,3496.6,3481.9,3478.3,649.7,836.9,1772.3,1057.3,1001.3,857.9,-11.0,-2.0,-18.0,7542.0,-5480.0,9014.0,-10014.0,-9.0,10.0,2.0,-5.0,3.0,7.0,9109.0,-9909.0,-6640.0,6570.0,-7.0,-1.0,-5.0,1.0
2022-05-23 14:56:56.480875-07:00,1276.5,814.4,1231.9,1074.7,968.8,845.3,1756.0,1346.7,3457.6,3477.1,1129.6,857.9,1640.7,3478.3,1319.6,1228.4,3464.9,3471.0,1668.2,2262.1,2763.5,3492.9,1718.6,3490.5,3481.9,3478.3,655.4,836.1,1772.3,1057.3,1003.9,858.7,-12.0,-15.0,-12.0,7541.0,-5485.0,9011.0,-10015.0,8.0,-12.0,-13.0,-2.0,0.0,5.0,9109.0,-9909.0,-6640.0,6570.0,6.0,-8.0,-9.0,1.0
2022-05-23 14:56:56.537511-07:00,1276.5,814.4,1230.2,1072.1,968.8,845.3,1749.3,1363.0,3457.6,3477.1,1126.1,862.9,1640.7,3478.3,1319.6,1228.4,3473.4,3471.0,1668.2,2262.1,2764.6,3496.6,1718.6,3490.5,3473.4,3469.8,655.4,836.1,1776.2,1063.4,1003.9,858.7,-3.0,-6.0,-8.0,7544.0,-5486.0,9007.0,-10015.0,13.0,-10.0,6.0,-1.0,0.0,3.0,9109.0,-9908.0,-6641.0,6572.0,11.0,-5.0,9.0,1.0
2022-05-23 14:56:56.597059-07:00,1281.0,819.4,1230.2,1072.1,967.1,844.4,1749.3,1363.0,3472.2,3468.6,1126.1,862.9,1637.9,3467.4,1319.6,1228.4,3473.4,3471.0,1658.7,2271.4,2764.6,3496.6,1712.9,3483.2,3473.4,3469.8,654.6,834.4,1776.2,1063.4,1007.3,869.6,-7.0,0.0,-13.0,7548.0,-5479.0,8999.0,-10023.0,43.0,7.0,-6.0,0.0,2.0,9.0,9114.0,-9903.0,-6637.0,6575.0,29.0,4.0,0.0,1.0
2022-05-23 14:56:56.627096-07:00,1281.0,819.4,1224.8,1067.7,967.1,844.4,1748.3,1349.4,3472.2,3468.6,1122.6,857.9,1637.9,3467.4,1316.9,1231.0,3461.3,3472.2,1658.7,2271.4,2754.7,3486.8,1712.9,3483.2,3467.4,3478.3,654.6,834.4,1790.7,1061.7,1007.3,869.6,-7.0,-12.0,-13.0,7547.0,-5477.0,8988.0,-10035.0,25.0,11.0,-23.0,-2.0,-1.0,4.0,9118.0,-9900.0,-6635.0,6578.0,14.0,9.0,-3.0,1.0
2022-05-23 14:56:56.687834-07:00,1282.8,819.4,1217.7,1067.7,976.5,839.4,1748.3,1349.4,3461.3,3464.9,1125.2,857.9,1636.9,3457.6,1316.9,1231.0,3461.3,3472.2,1660.6,2262.1,2754.7,3494.1,1711.0,3478.3,3467.4,3478.3,657.0,830.2,1790.7,1062.5,1001.3,849.5,-8.0,-3.0,-13.0,7542.0,-5468.0,8975.0,-10055.0,66.0,26.0,-36.0,-2.0,0.0,7.0,9125.0,-9893.0,-6630.0,6583.0,39.0,1.0,-2.0,1.0
2022-05-23 14:56:56.777042-07:00,1282.8,819.4,1217.7,1070.3,976.5,843.6,1739.7,1338.6,3461.3,3464.9,1125.2,867.1,1636.9,3462.5,1325.0,1232.8,3478.3,3471.0,1671.9,2262.1,2760.2,3494.1,1711.0,3478.3,3474.6,3479.5,657.0,830.2,1789.7,1062.5,1001.3,849.5,-10.0,-10.0,-13.0,7537.0,-5458.0,8950.0,-10087.0,81.0,15.0,-43.0,-2.0,5.0,4.0,9137.0,-9882.0,-6622.0,6591.0,38.0,4.0,1.0,1.0
2022-05-23 14:56:56.836865-07:00,1264.9,813.5,1222.2,1070.3,968.8,843.6,1739.7,1338.6,3478.3,3458.9,1121.7,867.1,1633.1,3462.5,1325.0,1232.8,3478.3,3471.0,1671.9,2270.3,2760.2,3492.9,1711.0,3492.9,3474.6,3479.5,657.0,835.2,1789.7,1053.9,1008.2,862.1,-8.0,-5.0,-9.0,7529.0,-5446.0,8944.0,-10105.0,31.0,47.0,-13.0,-1.0,1.0,10.0,9143.0,-9878.0,-6618.0,6594.0,18.0,12.0,-5.0,1.0
2022-05-23 14:56:56.837888-07:00,1264.9,813.5,1222.2,1063.4,968.8,834.4,1758.9,1344.9,3478.3,3458.9,1121.7,857.9,1633.1,3467.4,1308.8,1228.4,3472.2,3467.4,1659.6,2270.3,2753.6,3492.9,1711.0,3492.9,3477.1,3471.0,657.0,835.2,1781.0,1053.9,1008.2,862.1,1.0,-11.0,1.0,7514.0,-5432.0,8939.0,-10128.0,38.0,62.0,-44.0,-4.0,0.0,-2.0,9148.0,-9878.0,-6613.0,6591.0,7.0,14.0,-2.0,1.0
2022-05-23 14:56:56.897091-07:00,1272.1,823.5,1220.4,1063.4,956.0,834.4,1758.9,1344.9,3467.4,3468.6,1118.2,857.9,1626.5,3467.4,1308.8,1228.4,3472.2,3467.4,1659.6,2270.3,2753.6,3488.0,1700.5,3484.4,3477.1,3471.0,657.0,831.9,1781.0,1055.6,1000.5,849.5,-26.0,5.0,-6.0,7483.0,-5390.0,8933.0,-10178.0,115.0,144.0,-53.0,-6.0,3.0,27.0,9161.0,-9874.0,-6601.0,6591.0,35.0,48.0,1.0,1.0
2022-05-23 14:56:56.927546-07:00,1272.1,823.5,1220.4,1077.3,956.0,842.8,1725.3,1347.6,3467.4,3468.6,1118.2,863.7,1626.5,3467.4,1315.1,1231.9,3475.9,3467.4,1662.5,2270.3,2751.3,3488.0,1700.5,3484.4,3471.0,3466.1,645.7,831.9,1776.2,1055.6,1000.5,849.5,-4.0,-5.0,-12.0,7452.0,-5369.0,8946.0,-10200.0,-56.0,75.0,-32.0,2.0,8.0,10.0,9167.0,-9887.0,-6589.0,6575.0,-72.0,59.0,3.0,1.0
2022-05-23 14:56:56.986984-07:00,1270.3,812.7,1214.2,1071.2,966.2,842.8,1725.3,1347.6,3478.3,3456.4,1120.0,857.9,1621.8,3467.4,1315.1,1231.9,3475.9,3467.4,1662.5,2281.7,2763.5,3494.1,1703.3,3489.2,3471.0,3466.1,645.7,830.2,1786.8,1052.2,1010.8,860.4,-8.0,-15.0,-21.0,7421.0,-5366.0,8990.0,-10187.0,-108.0,64.0,28.0,-3.0,-3.0,4.0,9152.0,-9920.0,-6592.0,6543.0,-117.0,52.0,9.0,1.0
2022-05-23 14:56:57.047075-07:00,1270.3,812.7,1214.2,1071.2,963.7,847.8,1735.8,1341.3,3478.3,3456.4,1120.0,857.9,1635.0,3468.6,1311.5,1227.5,3464.9,3478.3,1660.6,2262.1,2763.5,3494.1,1703.3,3489.2,3478.3,3483.2,657.9,833.6,1786.8,1052.2,1010.8,860.4,-12.0,-7.0,-28.0,7399.0,-5370.0,9052.0,-10145.0,-150.0,39.0,45.0,-10.0,2.0,0.0,9122.0,-9962.0,-6601.0,6512.0,-152.0,35.0,13.0,1.0
2022-05-23 14:56:57.077415-07:00,1272.1,812.7,1218.6,1048.7,963.7,847.8,1735.8,1341.3,3475.9,3466.1,1113.9,858.7,1635.0,3468.6,1311.5,1227.5,3464.9,3478.3,1660.6,2262.1,2749.1,3486.8,1697.6,3490.5,3478.3,3483.2,657.9,833.6,1782.0,1042.6,999.6,858.7,-7.0,-7.0,-23.0,7372.0,-5395.0,9112.0,-10097.0,-179.0,7.0,-12.0,-7.0,0.0,5.0,9082.0,-10006.0,-6622.0,6479.0,-181.0,17.0,-2.0,1.0
2022-05-23 14:56:57.137150-07:00,1272.1,812.7,1218.6,1048.7,962.0,842.8,1740.6,1331.4,3475.9,3466.1,1113.9,858.7,1626.5,3466.1,1316.9,1220.4,3472.2,3478.3,1664.4,2274.5,2749.1,3486.8,1697.6,3490.5,3462.5,3471.0,653.8,822.7,1782.0,1042.6,999.6,858.7,-5.0,-21.0,-10.0,7345.0,-5427.0,9148.0,-10067.0,-75.0,11.0,-27.0,-1.0,-11.0,11.0,9046.0,-10045.0,-6643.0,6449.0,-93.0,22.0,-5.0,1.0
2022-05-23 14:56:57.197062-07:00,1269.4,811.0,1210.6,1043.5,962.0,842.8,1740.6,1331.4,3462.5,3467.4,1107.8,857.0,1626.5,3466.1,1316.9,1220.4,3472.2,3478.3,1664.4,2274.5,2745.8,3486.8,1699.5,3481.9,3462.5,3471.0,653.8,822.7,1777.2,1042.6,990.2,854.5,-5.0,27.0,-16.0,7325.0,-5435.0,9155.0,-10071.0,-62.0,36.0,-60.0,3.0,23.0,16.0,9039.0,-10058.0,-6644.0,6436.0,-63.0,18.0,-3.0,1.0
2022-05-23 14:56:57.227531-07:00,1272.1,811.0,1210.6,1043.5,964.5,835.2,1733.0,1341.3,3462.5,3467.4,1107.8,857.0,1635.0,3468.6,1298.1,1226.6,3477.1,3479.5,1661.5,2266.2,2745.8,3486.8,1699.5,3477.1,3467.4,3472.2,650.5,823.5,1777.2,1042.6,990.2,861.2,-3.0,19.0,-4.0,7246.0,-5526.0,9233.0,-10007.0,-553.0,-16.0,-127.0,-2.0,24.0,20.0,8957.0,-10130.0,-6701.0,6379.0,-511.0,-16.0,-24.0,1.0
2022-05-23 14:56:57.287202-07:00,1272.1,816.0,1193.8,1040.9,964.5,835.2,1733.0,1352.1,3462.5,3469.8,1106.0,857.0,1635.0,3468.6,1298.1,1218.6,3472.2,3479.5,1661.5,2266.2,2751.3,3489.2,1698.6,3477.1,3466.1,3472.2,650.5,823.5,1777.2,1032.3,988.5,861.2,-16.0,5.0,-47.0,7122.0,-5713.0,9396.0,-9839.0,-873.0,-161.0,-96.0,17.0,-1.0,21.0,8788.0,-10272.0,-6829.0,6250.0,-808.0,7.0,-78.0,1.0
2022-05-23 14:56:57.377117-07:00,1273.0,816.0,1193.8,1040.9,968.8,837.7,1738.7,1352.1,3468.6,3469.8,1106.0,857.0,1629.4,3468.6,1281.0,1218.6,3472.2,3474.6,1669.1,2285.9,2751.3,3489.2,1698.6,3485.6,3466.1,3471.0,650.5,812.7,1777.2,1032.3,988.5,864.6,1.0,5.0,-1.0,7026.0,-5991.0,9554.0,-9586.0,-963.0,-319.0,-168.0,-3.0,10.0,-12.0,8562.0,-10465.0,-6997.0,6055.0,-953.0,36.0,-121.0,1.0
2022-05-23 14:56:57.378227-07:00,1273.0,826.9,1164.7,1025.4,968.8,837.7,1738.7,1376.6,3468.6,3471.0,1091.2,847.8,1629.4,3468.6,1281.0,1199.1,3468.6,3474.6,1669.1,2285.9,2748.0,3489.2,1698.6,3485.6,3475.9,3471.0,650.5,812.7,1771.4,1030.6,969.6,864.6,-38.0,-33.0,-16.0,6892.0,-6282.0,9683.0,-9364.0,-780.0,-269.0,-258.0,-15.0,-15.0,-3.0,8331.0,-10655.0,-7171.0,5837.0,-857.0,53.0,-137.0,1.0
2022-05-23 14:56:57.587484-07:00,1290.9,826.9,1164.7,1025.4,959.4,841.1,1766.6,1376.6,3460.1,3471.0,1091.2,847.8,1621.8,3454.0,1253.3,1199.1,3468.6,3475.9,1679.5,2284.8,2748.0,3489.2,1698.6,3481.9,3475.9,3472.2,648.1,811.0,1771.4,1030.6,969.6,860.4,-6.0,-37.0,-4.0,6811.0,-6535.0,9768.0,-9161.0,-664.0,-347.0,-121.0,-15.0,0.0,-14.0,8141.0,-10806.0,-7308.0,5656.0,-683.0,34.0,-94.0,1.0
2022-05-23 14:56:57.617391-07:00,1290.9,837.7,1134.0,991.0,959.4,841.1,1766.6,1373.0,3460.1,3464.9,1078.2,839.4,1621.8,3454.0,1253.3,1202.7,3467.4,3475.9,1679.5,2284.8,2752.5,3492.9,1715.8,3481.9,3471.0,3472.2,648.1,811.0,1763.7,1021.9,959.4,860.4,-3.0,-50.0,7.0,6777.0,-6667.0,9841.0,-9013.0,-256.0,-67.0,59.0,6.0,-24.0,10.0,8017.0,-10893.0,-7406.0,5537.0,-302.0,3.0,-99.0,1.0
2022-05-23 14:56:57.647739-07:00,1285.5,827.7,1134.0,991.0,964.5,836.1,1757.9,1373.0,3466.1,3467.4,1078.2,839.4,1632.2,3462.5,1239.1,1202.7,3467.4,3467.4,1671.0,2279.6,2752.5,3492.9,1721.5,3485.6,3471.0,3467.4,654.6,815.2,1763.7,1021.9,959.4,862.1,-19.0,18.0,-32.0,6809.0,-6679.0,9853.0,-8965.0,-57.0,-129.0,67.0,-6.0,6.0,-2.0,8002.0,-10896.0,-7447.0,5498.0,-78.0,-5.0,-94.0,1.0
2022-05-23 14:56:57.677606-07:00,1285.5,827.7,1121.7,985.9,964.5,836.1,1772.3,1379.4,3466.1,3467.4,1070.3,843.6,1632.2,3462.5,1231.0,1192.9,3478.3,3462.5,1671.0,2279.6,2770.2,3494.1,1721.5,3485.6,3475.9,3472.2,654.6,815.2,1780.1,1002.2,959.4,862.1,-26.0,-22.0,-25.0,6818.0,-6739.0,9883.0,-8881.0,-232.0,-150.0,12.0,-15.0,-13.0,-10.0,7957.0,-10914.0,-7505.0,5449.0,-210.0,-28.0,-93.0,1.0
2022-05-23 14:56:57.678601-07:00,1282.8,836.1,1121.7,985.9,968.8,844.4,1772.3,1379.4,3468.6,3468.6,1070.3,843.6,1630.3,3467.4,1231.0,1192.9,3478.3,3462.5,1665.3,2273.4,2770.2,3494.1,1726.3,3492.9,3475.9,3472.2,644.9,810.2,1780.1,1002.2,952.6,863.7,0.0,-22.0,-18.0,6849.0,-6793.0,9878.0,-8821.0,-41.0,-143.0,43.0,0.0,1.0,-14.0,7933.0,-10918.0,-7544.0,5420.0,-34.0,-14.0,-63.0,1.0
2022-05-23 14:56:57.680073-07:00,1282.8,836.1,1115.6,981.6,968.8,844.4,1754.1,1349.4,3468.6,3468.6,1065.1,843.6,1630.3,3467.4,1222.2,1187.6,3469.8,3472.2,1665.3,2273.4,2765.7,3490.5,1726.3,3492.9,3466.1,3473.4,644.9,810.2,1775.2,1003.9,952.6,863.7,18.0,-16.0,-3.0,6890.0,-6802.0,9879.0,-8780.0,7.0,-76.0,92.0,19.0,-9.0,-3.0,7949.0,-10904.0,-7557.0,5407.0,48.0,20.0,-50.0,1.0
2022-05-23 14:56:57.737249-07:00,1290.0,843.6,1115.6,981.6,967.1,835.2,1754.1,1349.4,3473.4,3472.2,1065.1,843.6,1635.0,3468.6,1222.2,1187.6,3469.8,3472.2,1674.8,2273.4,2765.7,3490.5,1721.5,3483.2,3466.1,3473.4,650.5,807.7,1775.2,1003.9,956.8,855.3,-1.0,-6.0,1.0,6928.0,-6788.0,9883.0,-8758.0,-10.0,-53.0,98.0,9.0,3.0,7.0,7984.0,-10887.0,-7550.0,5400.0,59.0,59.0,-23.0,1.0
2022-05-23 14:56:57.797014-07:00,1290.0,843.6,1106.0,978.2,967.1,829.4,1732.0,1335.0,3473.4,3472.2,1064.3,845.3,1635.0,3472.2,1224.8,1189.4,3472.2,3464.9,1664.4,2273.4,2773.5,3490.5,1721.5,3483.2,3474.6,3478.3,644.0,807.7,1780.1,1007.3,956.8,855.3,5.0,-11.0,15.0,6946.0,-6775.0,9916.0,-8716.0,-82.0,25.0,127.0,4.0,-4.0,3.0,8001.0,-10897.0,-7533.0,5379.0,-17.0,90.0,13.0,1.0
2022-05-23 14:56:57.827064-07:00,1292.7,841.9,1104.3,978.2,962.8,829.4,1732.0,1335.0,3467.4,3472.2,1062.5,845.3,1638.8,3472.2,1224.8,1189.4,3472.2,3464.9,1664.4,2274.5,2773.5,3488.0,1726.3,3485.6,3474.6,3478.3,644.0,804.4,1780.1,1007.3,945.8,850.3,7.0,30.0,-14.0,6937.0,-6729.0,9977.0,-8689.0,-101.0,154.0,137.0,1.0,17.0,-2.0,8025.0,-10912.0,-7512.0,5343.0,-15.0,122.0,-37.0,1.0
2022-05-23 14:56:57.886930-07:00,1292.7,841.9,1104.3,976.5,962.8,834.4,1760.8,1336.8,3467.4,3472.2,1062.5,841.9,1638.8,3473.4,1224.8,1191.2,3472.2,3471.0,1671.9,2274.5,2763.5,3488.0,1726.3,3485.6,3471.0,3478.3,649.7,804.4,1772.3,1007.3,945.8,850.3,-34.0,36.0,-31.0,6900.0,-6709.0,10025.0,-8678.0,-49.0,44.0,-57.0,-21.0,7.0,4.0,8055.0,-10906.0,-7531.0,5283.0,-14.0,76.0,-173.0,1.0
2022-05-23 14:56:57.977099-07:00,1295.4,833.6,1106.0,976.5,966.2,834.4,1760.8,1336.8,3467.4,3471.0,1061.7,841.9,1631.3,3473.4,1224.8,1191.2,3472.2,3471.0,1671.9,2271.4,2763.5,3495.3,1713.8,3507.5,3471.0,3478.3,649.7,808.5,1772.3,999.6,944.1,861.2,-20.0,-4.0,-29.0,6885.0,-6754.0,9972.0,-8717.0,147.0,-102.0,-209.0,-25.0,-1.0,-8.0,8107.0,-10852.0,-7572.0,5255.0,165.0,-22.0,-261.0,1.0
2022-05-23 14:56:57.978240-07:00,1295.4,833.6,1106.0,982.5,966.2,829.4,1741.6,1347.6,3467.4,3471.0,1061.7,835.2,1631.3,3472.2,1226.6,1184.1,3466.1,3478.3,1669.1,2271.4,2749.1,3495.3,1713.8,3507.5,3478.3,3477.1,643.2,808.5,1775.2,999.6,944.1,861.2,-13.0,-15.0,-27.0,6911.0,-6789.0,9857.0,-8798.0,281.0,-130.0,-187.0,-2.0,9.0,-2.0,8201.0,-10725.0,-7646.0,5263.0,281.0,-134.0,-345.0,1.0
2022-05-23 14:56:58.036947-07:00,1280.1,831.1,1088.6,978.2,961.1,829.4,1741.6,1347.6,3464.9,3461.3,1060.8,834.4,1631.3,3472.2,1226.6,1184.1,3466.1,3478.3,1669.1,2279.6,2762.4,3485.6,1714.8,3494.1,3478.3,3477.1,643.2,799.4,1774.3,1013.3,946.6,851.1,-35.0,-30.0,-7.0,6971.0,-6798.0,9755.0,-8858.0,249.0,-145.0,-40.0,-22.0,-13.0,7.0,8295.0,-10566.0,-7734.0,5308.0,332.0,-207.0,-311.0,1.0
2022-05-23 14:56:58.096995-07:00,1280.1,831.1,1088.6,978.2,962.8,827.7,1744.5,1339.5,3464.9,3461.3,1060.8,834.4,1632.2,3457.6,1228.4,1191.2,3466.1,3467.4,1673.8,2279.6,2762.4,3485.6,1714.8,3494.1,3468.6,3478.3,653.0,801.0,1774.3,1013.3,946.6,851.1,-19.0,9.0,-1.0,7058.0,-6799.0,9621.0,-8934.0,397.0,-210.0,-164.0,-5.0,-8.0,19.0,8397.0,-10395.0,-7801.0,5387.0,384.0,-203.0,-247.0,1.0
2022-05-23 14:56:58.126984-07:00,1270.3,834.4,1094.7,973.9,962.8,827.7,1744.5,1339.5,3464.9,3478.3,1063.4,841.1,1632.2,3457.6,1228.4,1191.2,3466.1,3467.4,1673.8,2279.6,2761.3,3492.9,1722.4,3484.4,3468.6,3478.3,653.0,801.0,1774.3,994.5,948.3,865.4,-5.0,-13.0,13.0,7129.0,-6861.0,9473.0,-8989.0,114.0,-270.0,-166.0,10.0,-1.0,12.0,8458.0,-10273.0,-7862.0,5436.0,114.0,-148.0,-182.0,1.0
2022-05-23 14:56:58.187292-07:00,1270.3,834.4,1094.7,973.9,970.5,848.6,1731.1,1335.0,3464.9,3478.3,1063.4,841.1,1627.5,3473.4,1223.9,1185.9,3472.2,3475.9,1674.8,2267.2,2761.3,3492.9,1722.4,3484.4,3478.3,3467.4,653.8,818.5,1774.3,994.5,948.3,865.4,10.0,-67.0,54.0,7160.0,-6899.0,9431.0,-8979.0,79.0,-44.0,24.0,24.0,-28.0,16.0,8471.0,-10227.0,-7899.0,5448.0,105.0,-38.0,-30.0,1.0
2022-05-23 14:56:58.247077-07:00,1281.0,829.4,1097.3,976.5,970.5,848.6,1731.1,1335.0,3474.6,3457.6,1056.5,845.3,1627.5,3473.4,1223.9,1185.9,3472.2,3475.9,1674.8,2267.2,2763.5,3485.6,1713.8,3492.9,3478.3,3467.4,653.8,818.5,1769.5,1004.8,948.3,844.4,25.0,-54.0,30.0,7176.0,-6845.0,9430.0,-9008.0,18.0,155.0,118.0,38.0,-19.0,3.0,8500.0,-10210.0,-7876.0,5470.0,10.0,59.0,160.0,1.0
2022-05-23 14:56:58.277122-07:00,1281.0,829.4,1097.3,976.5,962.0,827.7,1722.4,1347.6,3474.6,3457.6,1056.5,845.3,1623.7,3462.5,1231.9,1192.9,3463.7,3474.6,1671.0,2283.8,2763.5,3485.6,1713.8,3492.9,3466.1,3473.4,643.2,833.6,1769.5,1004.8,948.3,844.4,0.0,-37.0,-14.0,7163.0,-6768.0,9510.0,-8993.0,-129.0,186.0,261.0,13.0,-11.0,-9.0,8481.0,-10271.0,-7805.0,5485.0,-82.0,103.0,316.0,1.0
2022-05-23 14:56:58.336894-07:00,1273.9,832.7,1099.9,978.2,962.0,827.7,1722.4,1326.8,3475.9,3472.2,1075.6,850.3,1623.7,3462.5,1231.9,1195.6,3468.6,3474.6,1671.0,2283.8,2764.6,3485.6,1710.0,3488.0,3488.0,3473.4,643.2,833.6,1771.4,997.0,940.7,854.5,-20.0,-18.0,-27.0,7162.0,-6666.0,9657.0,-8914.0,-213.0,210.0,390.0,-4.0,-8.0,-13.0,8428.0,-10380.0,-7699.0,5513.0,-71.0,127.0,368.0,1.0
2022-05-23 14:56:58.397156-07:00,1266.7,832.7,1099.9,978.2,959.4,844.4,1722.4,1326.8,3467.4,3472.2,1075.6,850.3,1636.0,3463.7,1235.5,1195.6,3468.6,3483.2,1678.6,2265.2,2764.6,3485.6,1710.0,3480.7,3488.0,3474.6,642.4,843.6,1771.4,997.0,940.7,857.0,7.0,35.0,-22.0,7165.0,-6561.0,9796.0,-8837.0,-168.0,183.0,296.0,6.0,9.0,-7.0,8388.0,-10481.0,-7583.0,5542.0,-48.0,132.0,284.0,1.0
2022-05-23 14:56:58.427095-07:00,1266.7,819.4,1115.6,993.6,959.4,844.4,1722.4,1326.8,3467.4,3468.6,1118.2,878.0,1636.0,3463.7,1235.5,1228.4,3469.8,3483.2,1678.6,2265.2,2754.7,3489.2,1703.3,3480.7,3464.9,3474.6,642.4,843.6,1774.3,1023.7,959.4,857.0,-16.0,12.0,18.0,7120.0,-6482.0,9906.0,-8809.0,-93.0,282.0,116.0,3.0,-12.0,32.0,8377.0,-10550.0,-7490.0,5555.0,137.0,137.0,184.0,1.0
2022-05-23 14:56:58.486891-07:00,1273.9,819.4,1115.6,993.6,962.8,868.8,1719.6,1326.8,3464.9,3468.6,1118.2,878.0,1627.5,3464.9,1355.8,1228.4,3469.8,3469.8,1668.2,2245.6,2754.7,3489.2,1703.3,3486.8,3464.9,3475.9,649.7,870.5,1774.3,1023.7,959.4,857.0,-18.0,2.0,-78.0,7095.0,-6459.0,9947.0,-8800.0,-102.0,-106.0,20.0,-33.0,19.0,0.0,8425.0,-10559.0,-7397.0,5590.0,137.0,43.0,104.0,1.0
2022-05-23 14:56:58.547052-07:00,1273.9,828.5,1129.6,993.6,962.8,868.8,1719.6,1316.9,3464.9,3473.4,1247.1,927.1,1627.5,3464.9,1355.8,1310.6,3472.2,3469.8,1668.2,2245.6,2755.8,3492.9,1717.7,3486.8,3475.9,3475.9,649.7,870.5,1782.9,1164.7,1094.7,857.0,-12.0,-80.0,54.0,7106.0,-6393.0,9955.0,-8830.0,400.0,434.0,148.0,-59.0,-42.0,25.0,8476.0,-10518.0,-7341.0,5663.0,619.0,-80.0,81.0,1.0
2022-05-23 14:56:58.577118-07:00,1266.7,821.9,1129.6,993.6,971.3,878.0,1756.0,1316.9,3468.6,3474.6,1247.1,927.1,1632.2,3477.1,1468.1,1310.6,3472.2,3479.5,1666.3,2269.3,2755.8,3492.9,1701.4,3478.3,3475.9,3473.4,649.7,857.0,1782.9,1164.7,1115.6,862.1,-113.0,65.0,-71.0,7103.0,-6100.0,9882.0,-9117.0,785.0,366.0,-68.0,-14.0,7.0,107.0,8648.0,-10368.0,-7216.0,5838.0,502.0,-43.0,97.0,1.0
2022-05-23 14:56:58.636951-07:00,1266.7,821.9,1359.4,1189.4,971.3,878.0,2028.4,1345.8,3468.6,3474.6,1233.7,919.4,1632.2,3477.1,1453.4,1299.8,3458.9,3473.4,1666.3,2269.3,2753.6,3502.7,1701.4,3478.3,3462.5,3474.6,649.7,857.0,1809.0,1163.8,1115.6,862.1,28.0,30.0,-60.0,7101.0,-6141.0,9800.0,-9180.0,-369.0,-98.0,-265.0,-24.0,24.0,-63.0,8643.0,-10342.0,-7208.0,5903.0,-439.0,-221.0,37.0,1.0
2022-05-23 14:56:58.697033-07:00,1277.4,831.1,1359.4,1189.4,971.3,874.7,2028.4,1345.8,3467.4,3469.8,1233.7,919.4,1636.0,3474.6,1453.4,1299.8,3458.9,3473.4,1673.8,2263.1,2753.6,3502.7,1691.0,3474.6,3462.5,3474.6,668.4,846.1,1809.0,1163.8,1201.8,855.3,-105.0,-167.0,93.0,6970.0,-6209.0,9837.0,-9194.0,324.0,271.0,-114.0,13.0,-76.0,93.0,8547.0,-10365.0,-7257.0,5941.0,465.0,-92.0,168.0,1.0
2022-05-23 14:56:58.727508-07:00,1277.4,831.1,1334.1,1148.0,971.3,874.7,2114.9,1471.8,3467.4,3469.8,1226.6,906.7,1636.0,3474.6,1617.1,1344.0,3478.3,3477.1,1673.8,2263.1,2780.1,3485.6,1691.0,3474.6,3478.3,3467.4,668.4,846.1,1829.4,1275.6,1201.8,855.3,79.0,183.0,-119.0,7099.0,-6077.0,9707.0,-9321.0,50.0,-73.0,76.0,14.0,110.0,-141.0,8587.0,-10302.0,-7186.0,6078.0,-634.0,-297.0,133.0,1.0
2022-05-23 14:56:58.786757-07:00,1281.0,831.1,1334.1,1148.0,963.7,956.8,2114.9,1471.8,3472.2,3464.9,1226.6,906.7,1633.1,3478.3,1617.1,1344.0,3478.3,3477.1,1667.2,2324.3,2780.1,3485.6,1694.8,3483.2,3478.3,3467.4,699.5,852.0,1829.4,1275.6,1369.4,867.1,-142.0,-76.0,60.0,6851.0,-6220.0,9923.0,-9183.0,-845.0,70.0,-249.0,25.0,-30.0,158.0,8260.0,-10483.0,-7362.0,6008.0,-878.0,-240.0,130.0,1.0
2022-05-23 14:56:58.846774-07:00,1281.0,831.1,1248.0,1091.2,963.7,956.8,2078.5,1464.4,3472.2,3464.9,1219.5,903.4,1633.1,3478.3,1759.8,1478.3,3474.6,3478.3,1667.2,2324.3,2812.4,3507.5,1694.8,3483.2,3466.1,3472.2,699.5,852.0,2267.2,1299.8,1369.4,867.1,63.0,-40.0,0.0,6864.0,-6335.0,9980.0,-9032.0,-136.0,-150.0,235.0,6.0,10.0,-25.0,8107.0,-10579.0,-7400.0,6002.0,-185.0,-87.0,179.0,1.0
2022-05-23 14:56:58.876700-07:00,1280.1,824.4,1231.0,1091.2,964.5,979.0,2078.5,1464.4,3469.8,3467.4,1222.2,903.4,1636.9,3467.4,1759.8,1478.3,3474.6,3478.3,1663.4,2334.7,2812.4,3497.8,1682.4,3488.0,3466.1,3472.2,720.8,860.4,2267.2,1202.7,1311.5,888.2,-43.0,2.0,-4.0,6864.0,-6318.0,10032.0,-8987.0,-1.0,11.0,8.0,-6.0,-29.0,61.0,8050.0,-10622.0,-7387.0,6019.0,18.0,33.0,96.0,1.0
2022-05-23 14:56:58.937307-07:00,1280.1,824.4,1231.0,1079.0,964.5,969.6,2047.4,1449.7,3469.8,3467.4,1222.2,907.6,1636.9,3464.9,1783.9,1557.1,3468.6,3469.8,1653.9,2334.7,2801.2,3497.8,1682.4,3488.0,3469.8,3471.0,717.5,860.4,2144.3,1202.7,1311.5,888.2,-19.0,-7.0,-42.0,6939.0,-6265.0,9932.0,-9077.0,515.0,-12.0,37.0,-37.0,23.0,-19.0,8142.0,-10576.0,-7310.0,6072.0,422.0,41.0,27.0,1.0
2022-05-23 14:56:58.966867-07:00,1280.1,821.0,1215.1,1079.0,964.5,969.6,2047.4,1449.7,3467.4,3466.1,1213.3,907.6,1632.2,3464.9,1783.9,1557.1,3468.6,3469.8,1653.9,2333.7,2801.2,3492.9,1671.9,3495.3,3469.8,3471.0,717.5,862.1,2144.3,1191.2,1281.9,908.4,-28.0,72.0,-50.0,6982.0,-6233.0,9906.0,-9094.0,-197.0,-99.0,-8.0,-11.0,14.0,3.0,8157.0,-10565.0,-7291.0,6093.0,-205.0,-24.0,19.0,1.0
2022-05-23 14:56:59.027439-07:00,1280.1,821.0,1215.1,1073.8,964.5,955.1,2039.4,1420.4,3467.4,3466.1,1213.3,908.4,1632.2,3461.3,1731.1,1525.5,3469.8,3464.9,1635.0,2333.7,2806.8,3492.9,1671.9,3495.3,3466.1,3467.4,715.9,862.1,2078.5,1191.2,1281.9,908.4,6.0,-34.0,5.0,6958.0,-6311.0,9912.0,-9052.0,-26.0,-70.0,-95.0,5.0,-7.0,2.0,8111.0,-10597.0,-7318.0,6066.0,-52.0,-7.0,-5.0,1.0
2022-05-23 14:56:59.087493-07:00,1271.2,826.0,1208.0,1073.8,958.5,955.1,2039.4,1420.4,3457.6,3466.1,1201.8,908.4,1638.8,3461.3,1731.1,1525.5,3469.8,3464.9,1635.0,2330.6,2806.8,3485.6,1674.8,3481.9,3466.1,3467.4,715.9,848.6,2078.5,1177.9,1254.2,904.2,7.0,-15.0,3.0,6944.0,-6298.0,9886.0,-9100.0,134.0,123.0,-52.0,9.0,-3.0,16.0,8122.0,-10589.0,-7312.0,6072.0,70.0,1.0,0.0,1.0
2022-05-23 14:56:59.116990-07:00,1271.2,826.0,1208.0,1073.8,969.6,960.2,2019.4,1424.1,3457.6,3466.1,1201.8,899.1,1625.6,3468.6,1711.0,1484.7,3478.3,3464.9,1653.0,2305.6,2792.3,3485.6,1674.8,3481.9,3472.2,3463.7,711.8,849.5,2079.5,1177.9,1254.2,904.2,-20.0,-2.0,-34.0,6929.0,-6268.0,9874.0,-9146.0,57.0,30.0,-33.0,-1.0,6.0,9.0,8142.0,-10579.0,-7297.0,6082.0,17.0,20.0,23.0,1.0
2022-05-23 14:56:59.177558-07:00,1273.9,825.2,1212.4,1065.1,969.6,960.2,2019.4,1424.1,3460.1,3469.8,1198.2,884.8,1625.6,3468.6,1711.0,1484.7,3478.3,3464.9,1653.0,2305.6,2776.8,3492.9,1679.5,3485.6,3472.2,3463.7,711.8,849.5,2036.4,1164.7,1273.9,897.4,3.0,-24.0,-28.0,6913.0,-6283.0,9898.0,-9121.0,-78.0,34.0,11.0,-14.0,-2.0,-13.0,8131.0,-10590.0,-7295.0,6080.0,-32.0,-4.0,19.0,1.0
2022-05-23 14:56:59.237679-07:00,1273.9,825.2,1212.4,1065.1,964.5,962.8,2021.4,1422.2,3460.1,3469.8,1198.2,884.8,1630.3,3471.0,1690.0,1455.2,3467.4,3474.6,1648.3,2314.9,2776.8,3492.9,1679.5,3485.6,3474.6,3474.6,715.1,839.4,2036.4,1164.7,1273.9,897.4,-26.0,-4.0,-25.0,6902.0,-6248.0,9922.0,-9128.0,102.0,75.0,30.0,-10.0,-5.0,15.0,8139.0,-10581.0,-7282.0,6100.0,100.0,-9.0,22.0,1.0
2022-05-23 14:56:59.266973-07:00,1263.1,824.4,1215.1,1059.9,964.5,962.8,2021.4,1422.2,3472.2,3468.6,1181.5,888.2,1630.3,3471.0,1690.0,1455.2,3467.4,3474.6,1648.3,2314.9,2780.1,3491.7,1676.7,3494.1,3474.6,3474.6,715.1,839.4,2029.4,1166.5,1264.0,882.3,-14.0,16.0,-39.0,6924.0,-6230.0,9913.0,-9134.0,43.0,-47.0,-8.0,-5.0,8.0,-12.0,8155.0,-10564.0,-7268.0,6125.0,33.0,-32.0,6.0,1.0
2022-05-23 14:56:59.327074-07:00,1263.1,824.4,1215.1,1059.9,973.9,946.6,2006.4,1418.6,3472.2,3468.6,1181.5,888.2,1626.5,3455.2,1659.6,1445.1,3478.3,3469.8,1653.9,2314.9,2780.1,3491.7,1676.7,3494.1,3467.4,3469.8,712.6,838.6,2029.4,1166.5,1264.0,882.3,-12.0,-13.0,-1.0,6923.0,-6222.0,9914.0,-9138.0,43.0,44.0,28.0,-1.0,-6.0,21.0,8154.0,-10550.0,-7273.0,6145.0,58.0,-50.0,-2.0,1.0
2022-05-23 14:56:59.416890-07:00,1267.6,811.9,1206.2,1068.6,973.9,946.6,2006.4,1423.1,3468.6,3473.4,1186.7,890.7,1626.5,3455.2,1659.6,1427.7,3469.8,3469.8,1653.9,2314.9,2781.2,3486.8,1670.1,3490.5,3477.1,3469.8,712.6,838.6,2038.4,1161.2,1254.2,893.2,-20.0,2.0,-2.0,6932.0,-6191.0,9909.0,-9158.0,69.0,23.0,22.0,1.0,-3.0,29.0,8172.0,-10527.0,-7266.0,6168.0,64.0,-11.0,-3.0,1.0
2022-05-23 14:56:59.417999-07:00,1265.8,811.9,1206.2,1068.6,960.2,947.5,2019.4,1423.1,3468.6,3473.4,1186.7,890.7,1630.3,3473.4,1652.0,1427.7,3469.8,3472.2,1659.6,2316.0,2781.2,3486.8,1670.1,3488.0,3477.1,3479.5,711.0,836.1,2038.4,1161.2,1254.2,887.3,0.0,0.0,-7.0,6946.0,-6181.0,9900.0,-9164.0,28.0,-5.0,-1.0,0.0,1.0,1.0,8186.0,-10516.0,-7259.0,6176.0,23.0,9.0,-14.0,1.0
2022-05-23 14:56:59.477336-07:00,1265.8,806.0,1206.2,1063.4,960.2,947.5,2019.4,1424.1,3468.6,3466.1,1182.3,884.8,1630.3,3473.4,1652.0,1426.8,3468.6,3472.2,1659.6,2316.0,2773.5,3486.8,1668.2,3488.0,3478.3,3479.5,711.0,836.1,2018.4,1155.0,1256.9,887.3,-10.0,-7.0,-12.0,6936.0,-6178.0,9904.0,-9169.0,-17.0,20.0,-17.0,0.0,-4.0,16.0,8191.0,-10511.0,-7261.0,6176.0,-5.0,0.0,-9.0,1.0
2022-05-23 14:56:59.536837-07:00,1266.7,806.0,1206.2,1063.4,967.1,953.4,2010.4,1424.1,3472.2,3466.1,1182.3,884.8,1620.9,3466.1,1645.4,1426.8,3468.6,3475.9,1650.2,2300.4,2773.5,3486.8,1668.2,3497.8,3478.3,3472.2,709.3,831.1,2018.4,1155.0,1256.9,886.5,-5.0,-13.0,-11.0,6933.0,-6185.0,9910.0,-9160.0,-21.0,1.0,16.0,2.0,-3.0,6.0,8186.0,-10515.0,-7262.0,6174.0,-17.0,-3.0,11.0,1.0
2022-05-23 14:56:59.566884-07:00,1266.7,812.7,1199.1,1066.9,967.1,953.4,2010.4,1419.5,3472.2,3462.5,1181.5,894.1,1620.9,3466.1,1645.4,1419.5,3467.4,3475.9,1650.2,2300.4,2772.4,3486.8,1664.4,3497.8,3469.8,3472.2,709.3,831.1,1987.5,1155.0,1248.8,886.5,-9.0,3.0,-15.0,6933.0,-6184.0,9915.0,-9155.0,-17.0,13.0,-8.0,-7.0,3.0,6.0,8184.0,-10517.0,-7261.0,6175.0,-13.0,-2.0,3.0,1.0
2022-05-23 14:56:59.627448-07:00,1274.7,812.7,1199.1,1066.9,966.2,944.9,2003.5,1419.5,3469.8,3462.5,1181.5,894.1,1618.1,3471.0,1629.4,1419.5,3467.4,3473.4,1645.4,2302.5,2772.4,3486.8,1664.4,3486.8,3469.8,3467.4,705.2,828.5,1987.5,1155.0,1248.8,887.3,-17.0,-5.0,-14.0,6927.0,-6190.0,9923.0,-9147.0,-15.0,-7.0,-17.0,-13.0,0.0,8.0,8180.0,-10520.0,-7262.0,6174.0,-17.0,1.0,2.0,1.0
2022-05-23 14:56:59.687154-07:00,1274.7,820.2,1208.9,1060.8,966.2,944.9,1992.5,1422.2,3469.8,3460.1,1177.9,885.6,1618.1,3471.0,1614.3,1414.0,3477.1,3466.1,1645.4,2302.5,2780.1,3486.8,1663.4,3486.8,3478.3,3467.4,705.2,828.5,2016.4,1157.7,1248.0,887.3,-6.0,-13.0,-12.0,6923.0,-6198.0,9936.0,-9130.0,-41.0,3.0,24.0,-4.0,-2.0,3.0,8171.0,-10527.0,-7266.0,6169.0,-24.0,-4.0,5.0,1.0
2022-05-23 14:56:59.723021-07:00,1263.1,815.2,1208.9,1060.8,960.2,959.4,1992.5,1422.2,3458.9,3466.1,1177.9,885.6,1632.2,3468.6,1614.3,1414.0,3477.1,3466.1,1652.0,2309.7,2780.1,3486.8,1661.5,3483.2,3478.3,3467.4,701.9,829.4,2016.4,1157.7,1249.7,883.9,-8.0,3.0,-11.0,6918.0,-6193.0,9945.0,-9129.0,5.0,11.0,-15.0,4.0,-1.0,14.0,8169.0,-10525.0,-7269.0,6173.0,-3.0,-12.0,-8.0,1.0
2022-05-23 14:56:59.777534-07:00,1263.1,815.2,1202.7,1065.1,960.2,959.4,1993.5,1404.9,3458.9,3466.1,1178.8,888.2,1632.2,3468.6,1598.3,1407.6,3462.5,3464.9,1652.0,2309.7,2771.3,3486.8,1661.5,3483.2,3468.6,3471.0,701.9,829.4,1999.5,1157.7,1249.7,883.9,-2.0,-1.0,-7.0,6911.0,-6199.0,9942.0,-9133.0,-5.0,10.0,-24.0,0.0,4.0,8.0,8170.0,-10520.0,-7274.0,6173.0,-11.0,-14.0,-14.0,1.0
2022-05-23 14:56:59.836834-07:00,1273.9,806.9,1202.7,1065.1,962.0,946.6,1993.5,1404.9,3458.9,3467.4,1178.8,888.2,1627.5,3464.9,1598.3,1407.6,3462.5,3464.9,1648.3,2306.6,2771.3,3486.8,1666.3,3480.7,3468.6,3471.0,713.4,831.9,1999.5,1157.7,1248.8,879.7,-11.0,-9.0,-15.0,6912.0,-6207.0,9944.0,-9124.0,-3.0,-31.0,-2.0,-4.0,-6.0,7.0,8167.0,-10520.0,-7279.0,6170.0,-9.0,-10.0,-14.0,1.0
2022-05-23 14:56:59.866786-07:00,1273.9,806.9,1195.6,1060.8,962.0,946.6,1997.5,1407.6,3458.9,3467.4,1167.4,885.6,1627.5,3464.9,1603.0,1396.7,3463.7,3473.4,1648.3,2306.6,2776.8,3495.3,1666.3,3480.7,3463.7,3472.2,713.4,831.9,1993.5,1146.3,1248.8,879.7,-12.0,-1.0,-12.0,6911.0,-6212.0,9937.0,-9129.0,31.0,8.0,-36.0,-8.0,1.0,7.0,8170.0,-10514.0,-7286.0,6170.0,14.0,-13.0,-26.0,1.0
2022-05-23 14:56:59.927037-07:00,1268.5,808.5,1192.0,1060.8,958.5,943.2,1997.5,1407.6,3468.6,3460.1,1176.2,885.6,1622.8,3462.5,1603.0,1396.7,3463.7,3473.4,1648.3,2306.6,2776.8,3492.9,1662.5,3483.2,3463.7,3472.2,701.9,831.1,1993.5,1151.5,1245.3,887.3,-11.0,-9.0,-11.0,6907.0,-6215.0,9934.0,-9132.0,-1.0,-8.0,-14.0,-4.0,-4.0,10.0,8172.0,-10509.0,-7291.0,6170.0,-7.0,-5.0,-12.0,1.0
2022-05-23 14:56:59.986889-07:00,1268.5,808.5,1192.0,1073.8,958.5,940.7,1992.5,1400.3,3468.6,3460.1,1176.2,884.8,1622.8,3478.3,1607.7,1405.8,3472.2,3473.4,1653.9,2306.6,2766.8,3492.9,1662.5,3483.2,3478.3,3479.5,705.2,831.1,1988.5,1151.5,1245.3,887.3,-2.0,-4.0,-10.0,6909.0,-6214.0,9932.0,-9135.0,13.0,8.0,-5.0,0.0,0.0,8.0,8172.0,-10508.0,-7291.0,6170.0,7.0,0.0,-7.0,1.0
2022-05-23 14:57:00.016963-07:00,1258.7,810.2,1193.8,1073.8,951.7,940.7,1992.5,1400.3,3466.1,3467.4,1177.9,884.8,1623.7,3478.3,1607.7,1405.8,3472.2,3473.4,1653.9,2307.7,2766.8,3490.5,1658.7,3485.6,3478.3,3479.5,705.2,828.5,1988.5,1149.8,1231.9,877.2,-7.0,-2.0,-10.0,6902.0,-6210.0,9939.0,-9136.0,-17.0,25.0,-2.0,0.0,0.0,11.0,8172.0,-10509.0,-7291.0,6169.0,-15.0,-3.0,0.0,1.0
2022-05-23 14:57:00.077107-07:00,1258.7,810.2,1193.8,1068.6,951.7,945.8,1987.5,1421.3,3466.1,3467.4,1177.9,888.2,1623.7,3466.1,1597.4,1393.9,3474.6,3467.4,1645.4,2307.7,2764.6,3490.5,1658.7,3485.6,3474.6,3467.4,711.0,828.5,1977.6,1149.8,1231.9,877.2,-11.0,-7.0,-6.0,6893.0,-6212.0,9946.0,-9133.0,-1.0,7.0,-19.0,-3.0,-2.0,14.0,8168.0,-10512.0,-7293.0,6167.0,-6.0,0.0,-3.0,1.0
2022-05-23 14:57:00.136958-07:00,1262.2,805.2,1196.5,1068.6,960.2,945.8,1987.5,1421.3,3469.8,3467.4,1178.8,888.2,1628.4,3466.1,1597.4,1393.9,3474.6,3467.4,1645.4,2305.6,2764.6,3492.9,1653.9,3495.3,3474.6,3467.4,711.0,832.7,1977.6,1155.0,1239.9,880.6,-10.0,-5.0,-17.0,6893.0,-6215.0,9943.0,-9134.0,5.0,-14.0,-6.0,-3.0,0.0,0.0,8169.0,-10511.0,-7292.0,6168.0,-13.0,0.0,-6.0,1.0
2022-05-23 14:57:00.166877-07:00,1262.2,805.2,1196.5,1060.8,960.2,953.4,1987.5,1403.0,3469.8,3467.4,1178.8,884.8,1628.4,3461.3,1588.0,1404.9,3475.9,3478.3,1646.4,2305.6,2753.6,3492.9,1653.9,3495.3,3467.4,3472.2,700.3,832.7,1995.5,1155.0,1239.9,880.6,-6.0,-5.0,-19.0,6890.0,-6219.0,9943.0,-9133.0,1.0,0.0,-21.0,-2.0,-5.0,7.0,8166.0,-10513.0,-7295.0,6165.0,-11.0,-10.0,-7.0,1.0
2022-05-23 14:57:00.227407-07:00,1256.0,811.0,1192.9,1060.8,963.7,953.4,1987.5,1403.0,3461.3,3468.6,1177.0,883.9,1624.7,3461.3,1588.0,1404.9,3475.9,3478.3,1646.4,2303.5,2759.1,3497.8,1654.9,3488.0,3467.4,3472.2,700.3,824.4,1970.7,1146.3,1234.6,871.3,-5.0,-4.0,-15.0,6894.0,-6226.0,9937.0,-9132.0,24.0,-39.0,-2.0,0.0,4.0,1.0,8165.0,-10510.0,-7296.0,6170.0,17.0,-16.0,-4.0,1.0
2022-05-23 14:57:00.286796-07:00,1256.0,811.0,1192.9,1060.8,982.5,949.2,1966.7,1407.6,3461.3,3468.6,1177.0,883.9,1625.6,3458.9,1594.6,1396.7,3472.2,3469.8,1636.9,2308.7,2759.1,3497.8,1654.9,3488.0,3477.1,3478.3,699.5,817.7,1970.7,1146.3,1234.6,871.3,-6.0,0.0,-10.0,6900.0,-6231.0,9931.0,-9131.0,11.0,-15.0,-17.0,0.0,-1.0,12.0,8166.0,-10504.0,-7300.0,6174.0,2.0,-15.0,-16.0,1.0
2022-05-23 14:57:00.316937-07:00,1262.2,805.2,1199.1,1059.9,982.5,949.2,1966.7,1407.6,3469.8,3468.6,1175.3,889.8,1625.6,3458.9,1594.6,1396.7,3472.2,3469.8,1636.9,2308.7,2767.9,3481.9,1656.8,3480.7,3477.1,3478.3,699.5,817.7,1971.7,1145.4,1222.2,882.3,-17.0,-11.0,-8.0,6900.0,-6236.0,9923.0,-9137.0,15.0,-14.0,-19.0,-5.0,-3.0,14.0,8168.0,-10499.0,-7305.0,6174.0,8.0,-8.0,-4.0,1.0
2022-05-23 14:57:00.406821-07:00,1262.2,805.2,1199.1,1059.9,960.2,939.8,1965.7,1412.2,3469.8,3468.6,1175.3,889.8,1626.5,3463.7,1581.4,1390.3,3479.5,3468.6,1637.9,2299.3,2767.9,3481.9,1656.8,3480.7,3478.3,3472.2,712.6,824.4,1971.7,1145.4,1222.2,882.3,-3.0,0.0,-9.0,6903.0,-6238.0,9920.0,-9136.0,-2.0,1.0,9.0,1.0,1.0,7.0,8169.0,-10498.0,-7305.0,6175.0,-15.0,-1.0,10.0,1.0
2022-05-23 14:57:00.439179-07:00,1266.7,809.4,1198.2,1061.7,960.2,939.8,1965.7,1412.2,3463.7,3463.7,1184.1,888.2,1626.5,3463.7,1581.4,1390.3,3479.5,3468.6,1637.9,2299.3,2755.8,3490.5,1651.1,3486.8,3478.3,3472.2,712.6,824.4,1978.6,1145.4,1232.8,876.4,-1.0,-10.0,-4.0,6896.0,-6237.0,9927.0,-9134.0,-10.0,17.0,5.0,6.0,-3.0,12.0,8164.0,-10503.0,-7305.0,6173.0,-11.0,14.0,14.0,1.0
2022-05-23 14:57:00.466979-07:00,1260.4,809.4,1198.2,1061.7,967.1,944.9,1992.5,1406.7,3469.8,3463.7,1184.1,888.2,1628.4,3461.3,1583.3,1389.4,3475.9,3471.0,1638.8,2301.4,2755.8,3490.5,1651.1,3497.8,3478.3,3485.6,701.1,827.7,1978.6,1145.4,1232.8,880.6,0.0,-1.0,-12.0,6893.0,-6232.0,9931.0,-9136.0,2.0,12.0,1.0,1.0,0.0,2.0,8161.0,-10511.0,-7300.0,6169.0,-15.0,12.0,9.0,1.0
2022-05-23 14:57:00.527034-07:00,1260.4,819.4,1189.4,1060.8,967.1,944.9,1992.5,1396.7,3469.8,3464.9,1167.4,883.9,1628.4,3461.3,1583.3,1399.4,3469.8,3471.0,1638.8,2301.4,2762.4,3496.6,1652.0,3497.8,3466.1,3485.6,701.1,827.7,1973.7,1146.3,1233.7,880.6,-9.0,1.0,-18.0,6889.0,-6227.0,9930.0,-9142.0,29.0,18.0,-17.0,-7.0,1.0,11.0,8163.0,-10512.0,-7298.0,6168.0,11.0,8.0,-1.0,1.0
2022-05-23 14:57:00.586885-07:00,1269.4,819.4,1189.4,1060.8,969.6,936.4,1985.6,1396.7,3472.2,3464.9,1167.4,883.9,1624.7,3480.7,1577.7,1399.4,3469.8,3467.4,1634.1,2298.3,2762.4,3496.6,1652.0,3490.5,3466.1,3469.8,695.4,821.0,1973.7,1146.3,1233.7,885.6,-23.0,-13.0,-15.0,6884.0,-6227.0,9938.0,-9138.0,-27.0,4.0,7.0,-9.0,-5.0,9.0,8158.0,-10515.0,-7301.0,6165.0,-32.0,5.0,7.0,1.0
2022-05-23 14:57:00.617271-07:00,1269.4,805.2,1178.8,1059.1,969.6,936.4,1985.6,1412.2,3472.2,3472.2,1171.8,881.4,1624.7,3480.7,1577.7,1389.4,3472.2,3467.4,1634.1,2298.3,2744.7,3486.8,1657.7,3490.5,3467.4,3469.8,695.4,821.0,1980.6,1144.5,1226.6,885.6,-9.0,-6.0,-13.0,6882.0,-6225.0,9942.0,-9136.0,21.0,17.0,-2.0,-4.0,-2.0,7.0,8155.0,-10518.0,-7303.0,6162.0,5.0,6.0,5.0,1.0
2022-05-23 14:57:00.677013-07:00,1259.6,805.2,1178.8,1059.1,979.0,933.9,1972.7,1412.2,3479.5,3472.2,1171.8,881.4,1626.5,3469.8,1577.7,1389.4,3472.2,3478.3,1641.6,2303.5,2744.7,3486.8,1657.7,3485.6,3467.4,3479.5,701.1,811.9,1980.6,1144.5,1226.6,882.3,-4.0,0.0,-15.0,6882.0,-6223.0,9943.0,-9137.0,-6.0,4.0,-5.0,0.0,0.0,9.0,8154.0,-10519.0,-7303.0,6162.0,-15.0,-3.0,2.0,1.0
2022-05-23 14:57:00.736874-07:00,1259.6,807.7,1199.1,1064.3,979.0,933.9,1959.8,1323.2,3479.5,3463.7,1173.5,886.5,1626.5,3469.8,1579.6,1382.1,3466.1,3471.0,1641.6,2303.5,2753.6,3491.7,1649.2,3485.6,3473.4,3472.2,701.1,811.9,1976.6,1142.7,1224.8,882.3,-22.0,-8.0,-3.0,6882.0,-6223.0,9945.0,-9135.0,13.0,0.0,4.0,-2.0,-7.0,26.0,8152.0,-10520.0,-7305.0,6161.0,6.0,-1.0,-5.0,1.0
2022-05-23 14:57:00.767146-07:00,1256.9,811.0,1199.1,1064.3,958.5,943.2,1959.8,1323.2,3471.0,3466.1,1173.5,886.5,1624.7,3463.7,1579.6,1382.1,3466.1,3471.0,1637.9,2301.4,2753.6,3491.7,1651.1,3484.4,3473.4,3472.2,700.3,817.7,1976.6,1142.7,1226.6,873.8,-1.0,16.0,-22.0,6892.0,-6229.0,9948.0,-9120.0,-72.0,-22.0,13.0,-2.0,9.0,-6.0,8155.0,-10517.0,-7306.0,6161.0,-19.0,-3.0,-19.0,1.0
2022-05-23 14:57:00.827117-07:00,1256.9,811.0,1189.4,1059.9,958.5,943.2,1981.6,1397.6,3471.0,3466.1,1177.0,889.0,1624.7,3463.7,1596.4,1387.5,3475.9,3468.6,1637.9,2301.4,2762.4,3486.8,1651.1,3484.4,3477.1,3473.4,700.3,817.7,1976.6,1146.3,1226.6,873.8,-19.0,-37.0,-11.0,6887.0,-6237.0,9952.0,-9114.0,85.0,-22.0,-5.0,-6.0,-13.0,27.0,8153.0,-10511.0,-7314.0,6163.0,60.0,-21.0,-5.0,1.0
2022-05-23 14:57:00.886881-07:00,1256.0,811.9,1189.4,1059.9,959.4,943.2,1981.6,1397.6,3471.0,3464.9,1177.0,889.0,1619.9,3468.6,1596.4,1387.5,3475.9,3468.6,1644.5,2306.6,2762.4,3486.8,1646.4,3488.0,3477.1,3473.4,697.0,830.2,1976.6,1146.3,1225.7,873.8,-3.0,5.0,-5.0,6914.0,-6233.0,9928.0,-9122.0,3.0,-28.0,12.0,-8.0,2.0,3.0,8168.0,-10495.0,-7306.0,6180.0,11.0,-17.0,3.0,1.0
2022-05-23 14:57:00.916925-07:00,1256.0,811.9,1181.5,1066.9,959.4,943.2,1970.7,1382.1,3471.0,3464.9,1171.8,887.3,1619.9,3468.6,1577.7,1385.7,3467.4,3466.1,1644.5,2306.6,2755.8,3488.0,1646.4,3488.0,3478.3,3478.3,697.0,830.2,1956.8,1143.6,1225.7,873.8,-7.0,-9.0,0.0,6917.0,-6232.0,9927.0,-9122.0,40.0,2.0,12.0,2.0,-3.0,14.0,8168.0,-10493.0,-7305.0,6186.0,23.0,-6.0,10.0,1.0
2022-05-23 14:57:00.977674-07:00,1267.6,804.4,1181.5,1066.9,964.5,937.3,1970.7,1382.1,3471.0,3468.6,1171.8,887.3,1636.9,3473.4,1577.7,1385.7,3467.4,3466.1,1637.9,2302.5,2755.8,3488.0,1648.3,3481.9,3478.3,3478.3,701.1,828.5,1956.8,1143.6,1223.9,869.6,43.0,-9.0,20.0,6924.0,-6199.0,9916.0,-9151.0,142.0,131.0,35.0,4.0,0.0,-44.0,8179.0,-10484.0,-7299.0,6192.0,38.0,5.0,-22.0,1.0
2022-05-23 14:57:01.036858-07:00,1267.6,804.4,1181.5,1062.5,964.5,941.5,1981.6,1407.6,3471.0,3468.6,1173.5,881.4,1636.9,3464.9,1567.4,1387.5,3485.6,3474.6,1636.9,2302.5,2758.0,3490.5,1648.3,3481.9,3474.6,3469.8,702.8,828.5,2228.1,1154.2,1223.9,869.6,-101.0,-19.0,-105.0,6895.0,-6046.0,9979.0,-9206.0,114.0,140.0,261.0,0.0,-9.0,67.0,8209.0,-10453.0,-7288.0,6218.0,103.0,2.0,17.0,1.0
2022-05-23 14:57:01.067312-07:00,1256.0,809.4,1166.5,1062.5,956.8,941.5,1981.6,1407.6,3472.2,3468.6,1163.8,881.4,1619.0,3464.9,1567.4,1387.5,3485.6,3474.6,1636.9,2293.1,2758.0,3481.9,1654.9,3477.1,3474.6,3469.8,702.8,819.4,2228.1,1167.4,1381.2,877.2,121.0,55.0,-46.0,6974.0,-6090.0,9992.0,-9104.0,-266.0,-170.0,10.0,-25.0,25.0,-20.0,8191.0,-10474.0,-7306.0,6184.0,-262.0,-26.0,-81.0,1.0
2022-05-23 14:57:01.127066-07:00,1256.0,809.4,1166.5,1032.3,956.8,952.6,1982.6,1401.2,3472.2,3468.6,1163.8,883.1,1619.0,3473.4,1592.7,1397.6,3472.2,3473.4,1629.4,2293.1,2756.9,3481.9,1654.9,3477.1,3473.4,3472.2,706.9,819.4,2248.7,1167.4,1381.2,877.2,10.0,31.0,-12.0,6990.0,-6195.0,9962.0,-9053.0,-245.0,-284.0,-137.0,-8.0,29.0,-17.0,8172.0,-10497.0,-7349.0,6120.0,-219.0,92.0,-92.0,1.0
2022-05-23 14:57:01.187007-07:00,1266.7,806.0,1125.2,1032.3,956.8,952.6,1982.6,1401.2,3463.7,3466.1,1155.0,883.1,1623.7,3473.4,1592.7,1397.6,3472.2,3473.4,1629.4,2282.8,2756.9,3483.2,1660.6,3485.6,3473.4,3472.2,706.9,824.4,2248.7,1125.2,1226.6,871.3,-68.0,-76.0,19.0,6925.0,-6311.0,10042.0,-8933.0,-353.0,-50.0,14.0,9.0,-45.0,56.0,8051.0,-10590.0,-7445.0,6003.0,-459.0,12.0,-34.0,1.0
2022-05-23 14:57:01.216958-07:00,1266.7,806.0,1125.2,1009.0,956.8,949.2,1980.6,1416.7,3463.7,3466.1,1155.0,878.9,1623.7,3464.9,1474.6,1354.0,3472.2,3473.4,1628.4,2282.8,2755.8,3483.2,1660.6,3485.6,3474.6,3462.5,706.0,824.4,2196.3,1125.2,1226.6,871.3,13.0,-4.0,-12.0,6970.0,-6299.0,10069.0,-8876.0,41.0,1.0,225.0,0.0,-1.0,-15.0,8025.0,-10621.0,-7454.0,5972.0,38.0,22.0,16.0,1.0
2022-05-23 14:57:01.277241-07:00,1291.8,825.2,1113.0,991.0,958.5,949.2,1980.6,1416.7,3462.5,3478.3,1128.7,868.8,1619.0,3464.9,1474.6,1354.0,3472.2,3473.4,1628.4,2297.3,2755.8,3484.4,1687.2,3480.7,3474.6,3462.5,706.0,821.0,2168.7,1084.2,1167.4,881.4,-40.0,30.0,-12.0,6995.0,-6246.0,10118.0,-8839.0,-80.0,32.0,117.0,-16.0,-3.0,13.0,8021.0,-10627.0,-7449.0,5974.0,-45.0,2.0,15.0,1.0
2022-05-23 14:57:01.336974-07:00,1291.8,825.2,1113.0,991.0,966.2,950.9,1940.0,1385.7,3462.5,3478.3,1128.7,868.8,1623.7,3464.9,1425.0,1317.8,3478.3,3471.0,1636.0,2302.5,2755.8,3484.4,1687.2,3480.7,3478.3,3469.8,698.7,817.7,2168.7,1084.2,1167.4,881.4,1.0,13.0,-26.0,6999.0,-6288.0,10102.0,-8825.0,40.0,-137.0,-160.0,-12.0,3.0,-5.0,8006.0,-10641.0,-7455.0,5960.0,-23.0,13.0,-14.0,1.0
2022-05-23 14:57:01.367250-07:00,1291.8,816.9,1108.6,987.6,966.2,950.9,1940.0,1385.7,3467.4,3466.1,1111.2,862.1,1623.7,3464.9,1425.0,1317.8,3478.3,3471.0,1636.0,2302.5,2750.2,3486.8,1679.5,3484.4,3478.3,3469.8,698.7,817.7,2141.2,1076.4,1139.2,873.0,-6.0,-23.0,4.0,6980.0,-6315.0,10065.0,-8861.0,4.0,52.0,-55.0,-1.0,0.0,11.0,8014.0,-10628.0,-7463.0,5962.0,7.0,-22.0,-20.0,1.0
2022-05-23 14:57:01.426965-07:00,1291.8,816.9,1108.6,987.6,957.7,942.4,1946.9,1387.5,3467.4,3466.1,1111.2,862.1,1618.1,3464.9,1409.4,1299.0,3467.4,3468.6,1627.5,2289.0,2750.2,3486.8,1679.5,3484.4,3471.0,3464.9,695.4,815.2,2141.2,1076.4,1139.2,873.0,-12.0,5.0,5.0,6964.0,-6291.0,10086.0,-8868.0,53.0,64.0,21.0,7.0,-5.0,28.0,8013.0,-10627.0,-7464.0,5965.0,26.0,9.0,19.0,1.0
2022-05-23 14:57:01.456967-07:00,1282.8,817.7,1107.8,981.6,957.7,942.4,1946.9,1387.5,3464.9,3474.6,1118.2,856.2,1618.1,3464.9,1409.4,1299.0,3467.4,3468.6,1627.5,2289.0,2738.1,3488.0,1679.5,3480.7,3471.0,3464.9,695.4,815.2,2115.9,1070.3,1118.2,867.1,-4.0,11.0,-15.0,6935.0,-6284.0,10087.0,-8895.0,-37.0,92.0,-80.0,-6.0,11.0,2.0,8019.0,-10633.0,-7454.0,5959.0,-41.0,33.0,1.0,1.0
2022-05-23 14:57:01.517146-07:00,1300.7,817.7,1107.8,981.6,965.4,944.9,1936.1,1371.2,3471.0,3474.6,1118.2,856.2,1617.1,3464.9,1402.1,1299.0,3466.1,3471.0,1636.9,2284.8,2738.1,3488.0,1679.5,3489.2,3464.9,3475.9,690.5,812.7,2115.9,1070.3,1118.2,869.6,-15.0,-12.0,-22.0,6885.0,-6292.0,10121.0,-8888.0,-81.0,72.0,-32.0,-7.0,-5.0,10.0,7994.0,-10659.0,-7462.0,5936.0,-106.0,20.0,16.0,1.0
2022-05-23 14:57:01.577004-07:00,1300.7,808.5,1108.6,979.9,965.4,944.9,1936.1,1368.5,3471.0,3467.4,1099.0,861.2,1617.1,3464.9,1402.1,1287.3,3464.9,3471.0,1636.9,2284.8,2744.7,3485.6,1672.9,3489.2,3472.2,3475.9,690.5,812.7,2106.8,1068.6,1104.3,869.6,-17.0,0.0,-26.0,6860.0,-6305.0,10131.0,-8888.0,-11.0,-12.0,-73.0,-2.0,-3.0,7.0,7980.0,-10675.0,-7465.0,5922.0,-28.0,18.0,8.0,1.0
2022-05-23 14:57:01.606935-07:00,1280.1,808.5,1108.6,979.9,957.7,934.7,1916.4,1368.5,3472.2,3467.4,1099.0,861.2,1617.1,3457.6,1382.1,1287.3,3464.9,3471.0,1636.9,2284.8,2744.7,3485.6,1672.9,3488.0,3472.2,3478.3,697.0,808.5,2106.8,1068.6,1104.3,870.5,11.0,-35.0,-7.0,6843.0,-6318.0,10130.0,-8892.0,25.0,76.0,10.0,-7.0,-3.0,-11.0,7978.0,-10678.0,-7465.0,5920.0,14.0,-10.0,5.0,1.0
2022-05-23 14:57:01.667248-07:00,1280.1,808.5,1100.8,994.5,957.7,934.7,1916.4,1343.1,3472.2,3461.3,1113.0,859.5,1617.1,3457.6,1382.1,1286.4,3467.4,3471.0,1636.9,2284.8,2737.0,3492.9,1672.9,3488.0,3472.2,3478.3,697.0,808.5,2105.8,1060.8,1105.1,870.5,-20.0,-5.0,-13.0,6839.0,-6271.0,10164.0,-8890.0,-39.0,55.0,105.0,4.0,-5.0,26.0,7980.0,-10676.0,-7458.0,5930.0,-8.0,11.0,34.0,1.0
2022-05-23 14:57:01.727000-07:00,1289.1,808.5,1100.8,994.5,964.5,939.8,1911.5,1343.1,3466.1,3461.3,1113.0,859.5,1620.9,3468.6,1385.7,1286.4,3467.4,3474.6,1639.8,2277.6,2737.0,3492.9,1672.9,3491.7,3472.2,3479.5,696.2,816.0,2105.8,1060.8,1105.1,860.4,-9.0,18.0,-22.0,6834.0,-6278.0,10186.0,-8864.0,-116.0,-15.0,-26.0,-5.0,4.0,4.0,7966.0,-10694.0,-7452.0,5923.0,-125.0,10.0,18.0,1.0
2022-05-23 14:57:01.756937-07:00,1289.1,811.0,1086.8,979.9,964.5,939.8,1911.5,1359.4,3466.1,3468.6,1103.4,854.5,1620.9,3468.6,1385.7,1281.0,3469.8,3474.6,1639.8,2277.6,2735.9,3489.2,1671.9,3491.7,3467.4,3479.5,696.2,816.0,2094.7,1063.4,1100.8,860.4,4.0,-6.0,-19.0,6812.0,-6316.0,10203.0,-8834.0,-50.0,-12.0,-40.0,-7.0,-4.0,-1.0,7928.0,-10724.0,-7470.0,5898.0,-78.0,-15.0,-6.0,1.0
2022-05-23 14:57:01.816957-07:00,1273.9,811.9,1086.8,979.9,959.4,939.8,1902.6,1359.4,3471.0,3468.6,1103.4,854.5,1607.7,3464.9,1383.0,1281.0,3469.8,3479.5,1635.0,2285.9,2735.9,3489.2,1665.3,3484.4,3467.4,3466.1,683.1,811.9,2094.7,1063.4,1092.1,864.6,-23.0,0.0,-17.0,6816.0,-6319.0,10190.0,-8844.0,61.0,-66.0,-32.0,-3.0,-1.0,16.0,7925.0,-10721.0,-7477.0,5898.0,44.0,2.0,-17.0,1.0
2022-05-23 14:57:01.877025-07:00,1273.9,811.9,1098.2,976.5,959.4,939.8,1891.8,1332.3,3471.0,3468.6,1102.5,853.7,1607.7,3464.9,1374.8,1277.4,3467.4,3471.0,1635.0,2285.9,2745.8,3492.9,1665.3,3484.4,3473.4,3475.9,683.1,811.9,2078.5,1048.7,1092.1,864.6,-7.0,-9.0,-13.0,6815.0,-6353.0,10181.0,-8832.0,-63.0,-35.0,-50.0,-7.0,-2.0,-2.0,7928.0,-10716.0,-7483.0,5896.0,-64.0,-14.0,-25.0,1.0
2022-05-23 14:57:01.906916-07:00,1278.3,803.5,1098.2,976.5,960.2,926.2,1891.8,1332.3,3463.7,3468.6,1102.5,853.7,1621.8,3473.4,1374.8,1277.4,3467.4,3471.0,1638.8,2283.8,2745.8,3492.9,1667.2,3472.2,3473.4,3475.9,686.4,808.5,2078.5,1048.7,1089.5,867.1,-8.0,-16.0,-5.0,6812.0,-6356.0,10176.0,-8836.0,51.0,5.0,7.0,0.0,0.0,16.0,7922.0,-10717.0,-7491.0,5892.0,47.0,0.0,0.0,1.0
2022-05-23 14:57:01.966928-07:00,1278.3,803.5,1090.3,982.5,960.2,926.2,1895.8,1344.0,3463.7,3468.6,1095.6,858.7,1621.8,3473.4,1374.8,1273.9,3463.7,3466.1,1638.8,2283.8,2730.4,3481.9,1667.2,3472.2,3460.1,3478.3,686.4,808.5,2069.5,1058.2,1089.5,867.1,2.0,-4.0,-11.0,6818.0,-6355.0,10186.0,-8822.0,-64.0,-12.0,32.0,0.0,-2.0,9.0,7924.0,-10716.0,-7489.0,5894.0,-52.0,4.0,9.0,1.0
2022-05-23 14:57:02.026909-07:00,1271.2,814.4,1090.3,982.5,955.1,931.3,1895.8,1344.0,3461.3,3462.5,1095.6,858.7,1621.8,3468.6,1374.8,1273.9,3463.7,3466.1,1633.1,2293.1,2730.4,3481.9,1660.6,3480.7,3460.1,3478.3,683.1,808.5,2069.5,1058.2,1085.1,864.6,0.0,-2.0,-3.0,6814.0,-6345.0,10188.0,-8829.0,84.0,64.0,3.0,0.0,-5.0,20.0,7925.0,-10715.0,-7489.0,5894.0,69.0,-10.0,-3.0,1.0
2022-05-23 14:57:02.056960-07:00,1271.2,814.4,1098.2,979.9,955.1,933.0,1879.1,1318.7,3461.3,3462.5,1101.7,852.8,1621.8,3475.9,1369.4,1269.4,3463.7,3467.4,1634.1,2293.1,2741.4,3486.8,1660.6,3480.7,3468.6,3471.0,680.7,808.5,2066.5,1050.4,1085.1,864.6,-12.0,12.0,-12.0,6818.0,-6324.0,10180.0,-8851.0,32.0,11.0,-14.0,-10.0,3.0,8.0,7947.0,-10700.0,-7475.0,5908.0,23.0,17.0,-1.0,1.0
2022-05-23 14:57:02.116947-07:00,1273.9,815.2,1086.0,979.9,960.2,933.0,1879.1,1318.7,3468.6,3462.5,1099.9,852.8,1611.5,3475.9,1369.4,1269.4,3463.7,3467.4,1634.1,2278.6,2741.4,3495.3,1661.5,3484.4,3468.6,3471.0,680.7,803.5,2066.5,1047.8,1082.5,862.1,-9.0,-1.0,-29.0,6807.0,-6356.0,10180.0,-8835.0,-81.0,-97.0,-91.0,-13.0,-5.0,-1.0,7946.0,-10705.0,-7474.0,5902.0,-47.0,15.0,-12.0,1.0
2022-05-23 14:57:02.177023-07:00,1273.9,815.2,1086.0,972.2,960.2,934.7,1899.7,1341.3,3468.6,3462.5,1099.9,852.8,1611.5,3466.1,1370.3,1280.1,3477.1,3468.6,1635.0,2278.6,2738.1,3495.3,1661.5,3484.4,3478.3,3479.5,680.7,803.5,2055.4,1047.8,1082.5,862.1,1.0,-28.0,-16.0,6812.0,-6385.0,10168.0,-8824.0,60.0,-14.0,27.0,-8.0,-6.0,0.0,7952.0,-10696.0,-7478.0,5905.0,127.0,-31.0,-17.0,1.0
2022-05-23 14:57:02.223096-07:00,1272.1,815.2,1098.2,972.2,959.4,934.7,1899.7,1341.3,3468.6,3466.1,1100.8,852.8,1619.9,3466.1,1370.3,1280.1,3477.1,3468.6,1635.0,2274.5,2738.1,3480.7,1660.6,3490.5,3478.3,3479.5,680.7,808.5,2055.4,1044.4,1082.5,871.3,-9.0,25.0,-9.0,6840.0,-6358.0,10142.0,-8853.0,94.0,-29.0,-20.0,-1.0,6.0,14.0,7988.0,-10662.0,-7463.0,5938.0,67.0,-5.0,-14.0,1.0
2022-05-23 14:57:02.266885-07:00,1272.1,815.2,1098.2,979.9,959.4,936.4,1886.0,1324.1,3468.6,3466.1,1100.8,851.1,1619.9,3464.9,1366.6,1281.9,3466.1,3463.7,1635.0,2274.5,2735.9,3480.7,1660.6,3490.5,3475.9,3469.8,679.1,808.5,2057.4,1044.4,1082.5,871.3,1.0,-17.0,-3.0,6824.0,-6387.0,10146.0,-8840.0,-132.0,-7.0,-41.0,2.0,-11.0,13.0,7978.0,-10665.0,-7476.0,5928.0,-115.0,-13.0,-22.0,1.0
2022-05-23 14:57:02.327003-07:00,1276.5,817.7,1086.0,979.9,965.4,936.4,1886.0,1324.1,3469.8,3462.5,1099.0,851.1,1616.2,3464.9,1366.6,1281.9,3466.1,3463.7,1635.0,2273.4,2735.9,3485.6,1656.8,3486.8,3475.9,3469.8,679.1,797.7,2057.4,1040.9,1069.5,869.6,-9.0,-5.0,-2.0,6812.0,-6394.0,10155.0,-8833.0,15.0,17.0,7.0,-4.0,1.0,11.0,7972.0,-10668.0,-7485.0,5922.0,19.0,-1.0,-9.0,1.0
2022-05-23 14:57:02.357102-07:00,1276.5,817.7,1086.0,986.7,962.8,928.8,1884.0,1324.1,3469.8,3462.5,1099.0,850.3,1618.1,3468.6,1356.7,1275.6,3463.7,3467.4,1634.1,2276.5,2741.4,3485.6,1656.8,3486.8,3467.4,3468.6,674.2,799.4,2060.5,1040.9,1069.5,869.6,-6.0,-5.0,-10.0,6801.0,-6392.0,10167.0,-8829.0,-40.0,37.0,3.0,-4.0,-3.0,5.0,7970.0,-10669.0,-7488.0,5918.0,-39.0,-3.0,-10.0,1.0
2022-05-23 14:57:02.416826-07:00,1273.9,813.5,1083.4,978.2,962.8,928.8,1884.0,1324.1,3469.8,3475.9,1100.8,857.9,1618.1,3468.6,1356.7,1275.6,3463.7,3467.4,1634.1,2276.5,2745.8,3490.5,1660.6,3484.4,3467.4,3468.6,674.2,799.4,2052.4,1048.7,1072.9,867.9,-9.0,-11.0,-11.0,6781.0,-6391.0,10188.0,-8821.0,-46.0,42.0,9.0,-2.0,-10.0,7.0,7955.0,-10680.0,-7496.0,5908.0,-50.0,5.0,-2.0,1.0
2022-05-23 14:57:02.477065-07:00,1273.9,813.5,1083.4,978.2,956.8,926.2,1865.4,1310.6,3469.8,3475.9,1100.8,857.9,1612.4,3474.6,1361.2,1274.7,3480.7,3472.2,1626.5,2268.3,2745.8,3490.5,1660.6,3484.4,3472.2,3478.3,675.8,807.7,2052.4,1048.7,1072.9,867.9,-1.0,-1.0,-15.0,6777.0,-6371.0,10196.0,-8830.0,53.0,50.0,24.0,-6.0,2.0,-1.0,7958.0,-10678.0,-7494.0,5910.0,31.0,4.0,3.0,1.0
2022-05-23 14:57:02.506937-07:00,1274.7,807.7,1077.3,969.6,956.8,926.2,1865.4,1310.6,3471.0,3471.0,1100.8,852.8,1612.4,3474.6,1361.2,1274.7,3480.7,3472.2,1626.5,2268.3,2741.4,3485.6,1653.0,3477.1,3472.2,3478.3,675.8,807.7,2047.4,1056.5,1069.5,865.4,-12.0,4.0,-15.0,6770.0,-6355.0,10198.0,-8844.0,18.0,20.0,-27.0,-7.0,-3.0,10.0,7961.0,-10675.0,-7494.0,5911.0,-19.0,-1.0,-14.0,1.0
2022-05-23 14:57:02.566945-07:00,1274.7,807.7,1077.3,969.6,955.1,920.3,1850.8,1316.0,3471.0,3471.0,1100.8,852.8,1610.5,3468.6,1358.5,1273.0,3466.1,3469.8,1628.4,2273.4,2741.4,3485.6,1653.0,3477.1,3471.0,3462.5,683.1,801.9,2047.4,1056.5,1069.5,865.4,-15.0,-6.0,-19.0,6763.0,-6368.0,10195.0,-8844.0,-40.0,-52.0,-38.0,-5.0,0.0,9.0,7950.0,-10682.0,-7505.0,5899.0,-65.0,-7.0,-15.0,1.0
2022-05-23 14:57:02.626973-07:00,1269.4,800.2,1076.4,972.2,955.1,920.3,1850.8,1317.8,3471.0,3466.1,1095.6,855.3,1610.5,3468.6,1358.5,1278.3,3471.0,3469.8,1628.4,2273.4,2722.7,3488.0,1641.6,3486.8,3473.4,3462.5,683.1,801.9,2031.4,1048.7,1071.2,869.6,0.0,-3.0,-12.0,6771.0,-6393.0,10186.0,-8830.0,52.0,-56.0,-22.0,-2.0,-4.0,1.0,7948.0,-10679.0,-7515.0,5895.0,33.0,-14.0,-28.0,1.0
2022-05-23 14:57:02.656844-07:00,1267.6,800.2,1076.4,972.2,960.2,925.4,1850.8,1317.8,3466.1,3466.1,1095.6,855.3,1618.1,3468.6,1357.6,1278.3,3471.0,3471.0,1627.5,2283.8,2722.7,3488.0,1641.6,3488.0,3473.4,3467.4,678.2,798.5,2031.4,1048.7,1071.2,867.1,-15.0,-18.0,-12.0,6786.0,-6400.0,10158.0,-8846.0,75.0,-43.0,-28.0,-7.0,-7.0,9.0,7967.0,-10660.0,-7516.0,5903.0,61.0,-12.0,-20.0,1.0
2022-05-23 14:57:02.716951-07:00,1267.6,803.5,1079.0,965.4,960.2,925.4,1850.8,1298.1,3466.1,3468.6,1099.9,852.8,1618.1,3468.6,1357.6,1262.2,3478.3,3471.0,1627.5,2283.8,2727.1,3490.5,1645.4,3488.0,3469.8,3467.4,678.2,798.5,2028.4,1041.8,1071.2,867.1,-5.0,-5.0,-12.0,6805.0,-6402.0,10138.0,-8853.0,17.0,-32.0,7.0,0.0,-2.0,8.0,7973.0,-10650.0,-7514.0,5914.0,12.0,-16.0,4.0,1.0
2022-05-23 14:57:02.777001-07:00,1259.6,803.5,1079.0,965.4,959.4,922.8,1841.1,1298.1,3467.4,3468.6,1099.9,852.8,1623.7,3463.7,1356.7,1262.2,3478.3,3468.6,1628.4,2272.4,2727.1,3490.5,1645.4,3480.7,3469.8,3472.2,678.2,799.4,2028.4,1041.8,1071.2,860.4,0.0,-2.0,-2.0,6812.0,-6403.0,10131.0,-8855.0,38.0,6.0,-10.0,3.0,-5.0,16.0,7976.0,-10645.0,-7514.0,5921.0,30.0,-5.0,-2.0,1.0
2022-05-23 14:57:02.836894-07:00,1259.6,800.2,1074.7,977.3,959.4,922.8,1841.1,1317.8,3467.4,3464.9,1103.4,847.8,1623.7,3463.7,1356.7,1272.1,3473.4,3468.6,1628.4,2272.4,2726.0,3496.6,1647.3,3480.7,3478.3,3472.2,678.2,799.4,2051.4,1048.7,1076.4,860.4,-8.0,3.0,-10.0,6812.0,-6403.0,10120.0,-8867.0,8.0,1.0,-31.0,-3.0,2.0,11.0,7981.0,-10641.0,-7511.0,5924.0,-13.0,4.0,-6.0,1.0
2022-05-23 14:57:02.866956-07:00,1265.8,800.2,1074.7,977.3,962.0,916.9,1848.9,1317.8,3463.7,3464.9,1103.4,847.8,1614.3,3466.1,1352.1,1272.1,3473.4,3478.3,1632.2,2269.3,2726.0,3496.6,1647.3,3486.8,3478.3,3477.1,679.1,796.0,2051.4,1048.7,1076.4,857.9,-5.0,-15.0,-5.0,6802.0,-6408.0,10118.0,-8873.0,16.0,28.0,-24.0,-3.0,-6.0,10.0,7979.0,-10641.0,-7514.0,5921.0,9.0,9.0,-10.0,1.0
2022-05-23 14:57:02.927133-07:00,1265.8,798.5,1071.2,976.5,962.0,916.9,1844.0,1307.9,3463.7,3469.8,1102.5,851.1,1614.3,3466.1,1355.8,1268.5,3471.0,3477.1,1632.2,2269.3,2733.7,3489.2,1639.8,3486.8,3480.7,3483.2,679.1,796.0,2033.4,1042.6,1068.6,857.9,-12.0,-6.0,-18.0,6797.0,-6396.0,10119.0,-8885.0,19.0,29.0,8.0,-7.0,-1.0,4.0,7985.0,-10637.0,-7511.0,5926.0,12.0,-1.0,3.0,1.0
2022-05-23 14:57:02.956856-07:00,1256.0,800.2,1071.2,976.5,957.7,919.4,1844.0,1307.9,3473.4,3472.2,1102.5,851.1,1611.5,3469.8,1355.8,1268.5,3471.0,3477.1,1628.4,2274.5,2733.7,3489.2,1637.9,3488.0,3480.7,3483.2,679.1,801.9,2033.4,1042.6,1073.8,861.2,-4.0,-19.0,-3.0,6787.0,-6374.0,10146.0,-8876.0,-19.0,87.0,77.0,-2.0,-5.0,5.0,7979.0,-10641.0,-7512.0,5925.0,3.0,-9.0,18.0,1.0
2022-05-23 14:57:03.017150-07:00,1256.0,800.2,1073.8,964.5,957.7,919.4,1841.1,1297.2,3473.4,3472.2,1100.8,858.7,1611.5,3469.8,1353.1,1267.6,3468.6,3488.0,1628.4,2274.5,2734.8,3491.7,1637.9,3488.0,3463.7,3469.8,679.1,801.9,2035.4,1054.8,1073.8,861.2,0.0,20.0,-14.0,6792.0,-6341.0,10154.0,-8888.0,48.0,23.0,3.0,3.0,3.0,14.0,7990.0,-10639.0,-7497.0,5935.0,21.0,18.0,17.0,1.0
2022-05-23 14:57:03.077042-07:00,1260.4,806.9,1073.8,964.5,956.0,912.7,1841.1,1297.2,3464.9,3473.4,1100.8,858.7,1611.5,3467.4,1353.1,1267.6,3468.6,3488.0,1626.5,2271.4,2734.8,3491.7,1636.9,3479.5,3463.7,3469.8,679.9,805.2,2035.4,1054.8,1066.9,864.6,-14.0,-19.0,-14.0,6771.0,-6344.0,10163.0,-8892.0,-53.0,41.0,-14.0,-4.0,-4.0,10.0,7979.0,-10649.0,-7501.0,5925.0,-58.0,4.0,2.0,1.0
2022-05-23 14:57:03.107012-07:00,1260.4,806.9,1076.4,969.6,956.0,912.7,1837.2,1297.2,3464.9,3473.4,1096.4,858.7,1611.5,3467.4,1349.4,1260.4,3467.4,3473.4,1626.5,2271.4,2734.8,3486.8,1636.9,3479.5,3471.0,3473.4,679.9,805.2,2022.4,1053.0,1066.9,864.6,-13.0,-2.0,-16.0,6773.0,-6334.0,10166.0,-8894.0,44.0,-5.0,15.0,-6.0,-5.0,12.0,7982.0,-10648.0,-7497.0,5929.0,27.0,5.0,11.0,1.0
2022-05-23 14:57:03.197110-07:00,1261.3,797.7,1063.4,969.6,950.9,924.5,1837.2,1297.2,3464.9,3474.6,1093.8,858.7,1619.9,3473.4,1349.4,1260.4,3467.4,3473.4,1635.0,2269.3,2734.8,3497.8,1639.8,3497.8,3471.0,3473.4,673.3,801.9,2022.4,1046.1,1067.7,866.3,4.0,-1.0,-23.0,6778.0,-6334.0,10163.0,-8893.0,-1.0,0.0,7.0,-7.0,4.0,-7.0,7983.0,-10646.0,-7495.0,5932.0,-9.0,-10.0,2.0,1.0
2022-05-23 14:57:03.226923-07:00,1261.3,797.7,1063.4,965.4,950.9,919.4,1838.2,1316.9,3464.9,3474.6,1093.8,855.3,1619.9,3461.3,1354.9,1270.3,3478.3,3467.4,1615.2,2269.3,2726.0,3497.8,1639.8,3497.8,3469.8,3480.7,675.8,801.9,2021.4,1046.1,1067.7,866.3,-4.0,-1.0,-6.0,6775.0,-6329.0,10169.0,-8892.0,31.0,19.0,-1.0,-1.0,-4.0,15.0,7980.0,-10648.0,-7497.0,5932.0,18.0,4.0,6.0,1.0
2022-05-23 14:57:03.256853-07:00,1255.1,801.9,1083.4,965.4,961.1,919.4,1838.2,1316.9,3471.0,3464.9,1098.2,855.3,1611.5,3461.3,1354.9,1270.3,3478.3,3467.4,1615.2,2268.3,2726.0,3486.8,1636.9,3485.6,3469.8,3480.7,675.8,803.5,2021.4,1049.6,1069.5,867.9,-10.0,-8.0,-15.0,6775.0,-6328.0,10164.0,-8899.0,11.0,-14.0,-14.0,1.0,-1.0,12.0,7984.0,-10646.0,-7494.0,5933.0,-2.0,-2.0,3.0,1.0
2022-05-23 14:57:03.316827-07:00,1255.1,801.9,1083.4,977.3,961.1,908.4,1823.6,1302.5,3471.0,3464.9,1098.2,851.1,1611.5,3477.1,1351.2,1263.1,3469.8,3475.9,1622.8,2268.3,2729.3,3486.8,1636.9,3485.6,3477.1,3483.2,679.1,803.5,2043.4,1049.6,1069.5,867.9,-8.0,-1.0,-22.0,6794.0,-6341.0,10148.0,-8893.0,21.0,-83.0,-13.0,-7.0,3.0,0.0,7989.0,-10640.0,-7491.0,5939.0,16.0,-25.0,-2.0,1.0
2022-05-23 14:57:03.376986-07:00,1248.8,811.0,1090.3,977.3,953.4,908.4,1823.6,1302.5,3464.9,3473.4,1098.2,851.1,1611.5,3477.1,1351.2,1263.1,3469.8,3475.9,1622.8,2269.3,2729.3,3486.8,1635.0,3484.4,3477.1,3483.2,679.1,799.4,2043.4,1050.4,1062.5,865.4,0.0,-8.0,1.0,6798.0,-6352.0,10139.0,-8893.0,24.0,16.0,-17.0,0.0,-1.0,5.0,7987.0,-10635.0,-7496.0,5946.0,15.0,-16.0,-7.0,1.0
2022-05-23 14:57:03.407043-07:00,1248.8,811.0,1090.3,966.2,958.5,914.4,1812.9,1284.6,3464.9,3473.4,1098.2,849.5,1616.2,3467.4,1345.8,1264.0,3466.1,3471.0,1632.2,2291.0,2731.5,3486.8,1635.0,3484.4,3478.3,3466.1,689.7,803.5,2021.4,1050.4,1062.5,865.4,-15.0,-4.0,-8.0,6793.0,-6350.0,10134.0,-8903.0,-13.0,-1.0,-13.0,-9.0,-7.0,20.0,7990.0,-10632.0,-7494.0,5949.0,-19.0,13.0,4.0,1.0
2022-05-23 14:57:03.466922-07:00,1255.1,797.7,1070.3,968.8,958.5,914.4,1812.9,1284.6,3466.1,3467.4,1094.7,851.1,1616.2,3467.4,1345.8,1264.0,3466.1,3471.0,1632.2,2291.0,2721.6,3486.8,1633.1,3486.8,3478.3,3466.1,689.7,803.5,2006.4,1056.5,1073.8,855.3,-14.0,1.0,-15.0,6793.0,-6349.0,10140.0,-8897.0,-26.0,4.0,8.0,-11.0,1.0,6.0,7988.0,-10637.0,-7489.0,5950.0,-28.0,4.0,15.0,1.0
2022-05-23 14:57:03.527168-07:00,1255.1,797.7,1070.3,968.8,944.1,913.5,1833.3,1291.8,3466.1,3467.4,1094.7,851.1,1610.5,3462.5,1345.8,1269.4,3466.1,3475.9,1619.0,2262.1,2721.6,3486.8,1633.1,3486.8,3473.4,3473.4,668.4,800.2,2006.4,1056.5,1073.8,855.3,-5.0,0.0,-17.0,6789.0,-6352.0,10141.0,-8897.0,24.0,-17.0,-25.0,1.0,0.0,9.0,7981.0,-10642.0,-7490.0,5949.0,2.0,8.0,8.0,1.0
2022-05-23 14:57:03.556890-07:00,1259.6,795.2,1085.1,973.9,944.1,913.5,1833.3,1291.8,3467.4,3462.5,1092.9,851.1,1610.5,3462.5,1345.8,1269.4,3466.1,3475.9,1619.0,2262.1,2722.7,3497.8,1638.8,3486.8,3473.4,3473.4,668.4,800.2,2016.4,1047.0,1065.1,880.6,-14.0,-4.0,-21.0,6789.0,-6381.0,10127.0,-8892.0,-7.0,-106.0,-71.0,2.0,-3.0,11.0,7977.0,-10646.0,-7492.0,5945.0,-24.0,-2.0,1.0,1.0
2022-05-23 14:57:03.616880-07:00,1259.6,795.2,1085.1,973.9,967.1,922.8,1815.8,1288.2,3467.4,3462.5,1092.9,851.1,1608.7,3461.3,1349.4,1265.8,3481.9,3479.5,1635.0,2275.5,2722.7,3497.8,1638.8,3486.8,3468.6,3471.0,680.7,806.9,2016.4,1047.0,1065.1,880.6,7.0,-17.0,-9.0,6805.0,-6422.0,10114.0,-8865.0,-59.0,-64.0,16.0,-8.0,-3.0,-7.0,7970.0,-10650.0,-7496.0,5942.0,-33.0,-17.0,0.0,1.0
2022-05-23 14:57:03.676919-07:00,1267.6,796.0,1066.0,964.5,967.1,922.8,1815.8,1288.2,3473.4,3467.4,1093.8,847.8,1608.7,3461.3,1349.4,1265.8,3481.9,3479.5,1635.0,2275.5,2707.3,3486.8,1633.1,3488.0,3468.6,3471.0,680.7,806.9,2014.4,1053.0,1067.7,868.8,-12.0,0.0,3.0,6815.0,-6416.0,10109.0,-8867.0,63.0,-7.0,-7.0,-8.0,-2.0,13.0,7971.0,-10646.0,-7495.0,5949.0,50.0,1.0,18.0,1.0
2022-05-23 14:57:03.707295-07:00,1256.9,796.0,1066.0,964.5,954.3,916.0,1812.9,1283.7,3468.6,3467.4,1093.8,847.8,1613.4,3469.8,1344.9,1259.6,3471.0,3473.4,1627.5,2268.3,2707.3,3486.8,1633.1,3481.9,3466.1,3468.6,664.4,801.9,2014.4,1053.0,1067.7,856.2,-15.0,-4.0,-8.0,6814.0,-6413.0,10106.0,-8874.0,7.0,14.0,-6.0,-9.0,-1.0,10.0,7976.0,-10643.0,-7485.0,5959.0,2.0,5.0,14.0,1.0
2022-05-23 14:57:03.766891-07:00,1256.9,799.4,1077.3,961.1,954.3,916.0,1812.9,1302.5,3468.6,3468.6,1096.4,855.3,1613.4,3469.8,1344.9,1262.2,3468.6,3473.4,1627.5,2268.3,2735.9,3488.0,1634.1,3481.9,3472.2,3468.6,664.4,801.9,2009.4,1066.0,1062.5,856.2,3.0,-22.0,4.0,6809.0,-6403.0,10109.0,-8882.0,51.0,96.0,23.0,-3.0,-3.0,-6.0,7976.0,-10644.0,-7482.0,5962.0,34.0,-5.0,15.0,1.0
2022-05-23 14:57:03.827012-07:00,1257.8,799.4,1077.3,961.1,947.5,913.5,1844.0,1302.5,3469.8,3468.6,1096.4,855.3,1612.4,3471.0,1343.1,1262.2,3468.6,3468.6,1617.1,2257.9,2735.9,3488.0,1634.1,3477.1,3472.2,3474.6,671.7,804.4,2009.4,1066.0,1062.5,864.6,-8.0,-5.0,-10.0,6798.0,-6337.0,10122.0,-8923.0,140.0,156.0,64.0,4.0,-10.0,17.0,7997.0,-10630.0,-7462.0,5984.0,157.0,3.0,34.0,1.0
2022-05-23 14:57:03.857205-07:00,1257.8,801.0,1086.0,978.2,947.5,913.5,1844.0,1308.8,3469.8,3469.8,1102.5,861.2,1612.4,3471.0,1343.1,1261.3,3471.0,3468.6,1617.1,2257.9,2721.6,3486.8,1638.8,3477.1,3472.2,3474.6,671.7,804.4,2011.4,1070.3,1084.2,864.6,-27.0,-9.0,4.0,6796.0,-6272.0,10118.0,-8974.0,49.0,99.0,-24.0,-9.0,-12.0,18.0,8025.0,-10612.0,-7433.0,6013.0,100.0,16.0,36.0,1.0
2022-05-23 14:57:03.916867-07:00,1250.6,801.0,1086.0,978.2,952.6,920.3,1813.9,1308.8,3468.6,3469.8,1102.5,861.2,1614.3,3468.6,1355.8,1261.3,3471.0,3467.4,1619.9,2257.9,2721.6,3486.8,1638.8,3484.4,3472.2,3478.3,664.4,802.7,2011.4,1070.3,1084.2,865.4,-7.0,-33.0,-17.0,6787.0,-6210.0,10102.0,-9041.0,494.0,255.0,58.0,-11.0,-11.0,-10.0,8089.0,-10570.0,-7370.0,6079.0,497.0,-23.0,91.0,1.0
2022-05-23 14:57:03.977210-07:00,1250.6,793.5,1080.8,973.1,952.6,920.3,1912.4,1383.0,3468.6,3467.4,1115.6,847.8,1614.3,3468.6,1417.6,1280.1,3467.4,3471.0,1619.9,2257.9,2728.2,3486.8,1635.0,3484.4,3467.4,3471.0,664.4,802.7,2019.4,1155.0,1166.5,865.4,-8.0,30.0,1.0,6827.0,-6048.0,10002.0,-9231.0,521.0,188.0,-80.0,-9.0,23.0,2.0,8195.0,-10477.0,-7284.0,6201.0,269.0,-83.0,61.0,1.0
2022-05-23 14:57:04.006884-07:00,1267.6,797.7,1080.8,973.1,953.4,985.9,1912.4,1383.0,3473.4,3464.9,1115.6,847.8,1611.5,3471.0,1417.6,1280.1,3467.4,3471.0,1626.5,2276.5,2728.2,3486.8,1632.2,3477.1,3467.4,3471.0,686.4,808.5,2019.4,1155.0,1354.9,861.2,-73.0,15.0,-7.0,6786.0,-5941.0,9956.0,-9379.0,95.0,298.0,-4.0,5.0,0.0,44.0,8210.0,-10446.0,-7258.0,6264.0,31.0,-41.0,64.0,1.0
2022-05-23 14:57:04.066864-07:00,1267.6,797.7,1072.9,975.6,953.4,985.9,1966.7,1443.3,3473.4,3464.9,1147.1,865.4,1611.5,3471.0,1512.5,1307.0,3474.6,3469.8,1626.5,2276.5,2749.1,3483.2,1632.2,3477.1,3473.4,3469.8,686.4,808.5,2031.4,1239.1,1354.9,861.2,129.0,-42.0,-222.0,6742.0,-5913.0,10017.0,-9364.0,-266.0,-58.0,17.0,53.0,-13.0,56.0,8172.0,-10475.0,-7263.0,6258.0,-222.0,8.0,39.0,1.0
2022-05-23 14:57:04.127512-07:00,1251.5,801.9,1072.9,975.6,950.0,1079.0,1966.7,1443.3,3468.6,3461.3,1147.1,865.4,1607.7,3466.1,1512.5,1307.0,3474.6,3469.8,1626.5,2292.1,2749.1,3483.2,1629.4,3481.9,3473.4,3469.8,701.9,797.7,2031.4,1239.1,1321.4,866.3,-13.0,-23.0,-49.0,6769.0,-5978.0,9981.0,-9342.0,191.0,-303.0,-133.0,-14.0,4.0,5.0,8170.0,-10476.0,-7262.0,6262.0,109.0,12.0,-12.0,1.0
2022-05-23 14:57:04.156980-07:00,1251.5,801.9,1085.1,975.6,950.0,1079.0,1955.8,1434.1,3468.6,3461.3,1139.2,856.2,1607.7,3466.1,1553.4,1335.9,3472.2,3475.9,1626.5,2292.1,2761.3,3488.0,1629.4,3481.9,3478.3,3479.5,701.9,797.7,2169.7,1193.8,1321.4,866.3,9.0,-25.0,-22.0,6844.0,-6025.0,9905.0,-9337.0,-6.0,-118.0,115.0,-2.0,3.0,-8.0,8175.0,-10462.0,-7262.0,6278.0,-8.0,-48.0,16.0,1.0
2022-05-23 14:57:04.216897-07:00,1257.8,786.1,1085.1,975.6,953.4,1071.2,1955.8,1434.1,3457.6,3468.6,1139.2,856.2,1617.1,3471.0,1553.4,1335.9,3472.2,3475.9,1627.5,2278.6,2761.3,3488.0,1623.7,3488.0,3478.3,3479.5,709.3,801.9,2169.7,1193.8,1274.7,862.9,-19.0,24.0,7.0,6871.0,-6013.0,9923.0,-9306.0,-63.0,44.0,-1.0,0.0,-3.0,56.0,8159.0,-10462.0,-7273.0,6286.0,-49.0,-27.0,1.0,1.0
2022-05-23 14:57:04.277256-07:00,1257.8,786.1,1086.0,982.5,953.4,1060.8,1925.2,1431.4,3457.6,3468.6,1125.2,860.4,1617.1,3469.8,1552.5,1335.0,3477.1,3475.9,1624.7,2278.6,2749.1,3497.8,1623.7,3488.0,3478.3,3474.6,697.9,801.9,2064.5,1146.3,1274.7,862.9,7.0,3.0,-10.0,6877.0,-6049.0,9907.0,-9295.0,5.0,-179.0,-71.0,-15.0,10.0,-22.0,8158.0,-10466.0,-7274.0,6280.0,-5.0,20.0,-18.0,1.0
2022-05-23 14:57:04.306938-07:00,1262.2,795.2,1098.2,982.5,958.5,1060.8,1925.2,1431.4,3472.2,3464.9,1129.6,860.4,1615.2,3469.8,1552.5,1335.0,3477.1,3475.9,1624.7,2283.8,2749.1,3496.6,1616.2,3477.1,3478.3,3474.6,697.9,792.7,2064.5,1147.1,1269.4,863.7,-25.0,-17.0,-8.0,6879.0,-6086.0,9900.0,-9277.0,-74.0,-2.0,-6.0,-7.0,-9.0,20.0,8146.0,-10474.0,-7288.0,6265.0,-70.0,-1.0,-10.0,1.0
2022-05-23 14:57:04.397187-07:00,1262.2,795.2,1098.2,987.6,958.5,1048.7,1919.3,1403.0,3472.2,3464.9,1129.6,854.5,1615.2,3472.2,1529.2,1325.9,3474.6,3467.4,1627.5,2283.8,2733.7,3496.6,1616.2,3477.1,3469.8,3471.0,697.0,792.7,2030.4,1147.1,1269.4,863.7,10.0,-4.0,-12.0,6873.0,-6111.0,9900.0,-9265.0,-40.0,-41.0,-81.0,-4.0,5.0,-3.0,8135.0,-10485.0,-7296.0,6251.0,-63.0,11.0,-17.0,1.0
2022-05-23 14:57:04.398226-07:00,1258.7,803.5,1076.4,987.6,955.1,1048.7,1919.3,1403.0,3471.0,3466.1,1126.1,854.5,1614.3,3472.2,1529.2,1325.9,3474.6,3467.4,1627.5,2278.6,2733.7,3489.2,1619.9,3489.2,3469.8,3471.0,697.0,797.7,2030.4,1147.1,1259.6,862.1,-13.0,-25.0,-19.0,6852.0,-6141.0,9903.0,-9257.0,-44.0,-39.0,-11.0,5.0,-6.0,15.0,8125.0,-10494.0,-7303.0,6243.0,-31.0,2.0,14.0,1.0
2022-05-23 14:57:04.457539-07:00,1258.7,803.5,1076.4,979.9,955.1,1047.0,1929.2,1417.6,3471.0,3466.1,1126.1,860.4,1614.3,3467.4,1515.3,1322.3,3475.9,3469.8,1619.9,2278.6,2774.6,3489.2,1619.9,3489.2,3471.0,3468.6,688.0,797.7,2006.4,1147.1,1259.6,862.1,-10.0,-8.0,-18.0,6858.0,-6167.0,9904.0,-9234.0,-12.0,-72.0,-27.0,-2.0,-2.0,12.0,8120.0,-10498.0,-7304.0,6242.0,-3.0,-1.0,-2.0,1.0
2022-05-23 14:57:04.516736-07:00,1250.6,796.9,1078.2,985.9,955.1,1047.0,1929.2,1417.6,3462.5,3469.8,1125.2,855.3,1611.5,3467.4,1515.3,1322.3,3475.9,3469.8,1619.9,2270.3,2752.5,3486.8,1619.9,3494.1,3471.0,3468.6,688.0,788.6,2008.4,1138.4,1260.4,865.4,-11.0,-10.0,-17.0,6869.0,-6187.0,9888.0,-9230.0,-3.0,-24.0,-9.0,-7.0,6.0,4.0,8122.0,-10493.0,-7305.0,6244.0,-14.0,-10.0,-10.0,1.0
2022-05-23 14:57:04.547152-07:00,1250.6,796.9,1078.2,985.9,950.9,1049.6,1923.3,1410.3,3462.5,3469.8,1125.2,855.3,1617.1,3478.3,1520.8,1325.9,3473.4,3469.8,1609.6,2279.6,2752.5,3486.8,1619.9,3494.1,3468.6,3478.3,695.4,796.9,2008.4,1138.4,1260.4,865.4,-9.0,3.0,-12.0,6873.0,-6193.0,9894.0,-9217.0,-19.0,-20.0,2.0,-9.0,0.0,14.0,8118.0,-10494.0,-7307.0,6247.0,-5.0,-8.0,-2.0,1.0
2022-05-23 14:57:04.606957-07:00,1252.4,800.2,1089.5,983.3,950.9,1049.6,1923.3,1410.3,3455.2,3466.1,1125.2,857.9,1617.1,3478.3,1520.8,1325.9,3473.4,3469.8,1609.6,2279.6,2748.0,3488.0,1619.0,3485.6,3468.6,3478.3,695.4,796.9,1972.7,1132.2,1248.8,861.2,7.0,-1.0,-17.0,6880.0,-6206.0,9888.0,-9210.0,11.0,-54.0,-13.0,-3.0,4.0,0.0,8119.0,-10493.0,-7306.0,6248.0,3.0,5.0,-4.0,1.0
2022-05-23 14:57:04.666859-07:00,1252.4,800.2,1089.5,983.3,948.3,1034.9,1906.6,1407.6,3455.2,3466.1,1125.2,857.9,1615.2,3462.5,1509.7,1326.8,3478.3,3471.0,1624.7,2279.6,2748.0,3488.0,1619.0,3485.6,3479.5,3466.1,685.6,791.9,1972.7,1132.2,1248.8,861.2,-15.0,-5.0,-8.0,6880.0,-6213.0,9886.0,-9207.0,-5.0,8.0,-10.0,0.0,-6.0,22.0,8114.0,-10494.0,-7310.0,6248.0,-15.0,-11.0,-9.0,1.0
2022-05-23 14:57:04.697005-07:00,1252.4,792.7,1075.6,980.7,948.3,1034.9,1906.6,1407.6,3478.3,3475.9,1125.2,862.1,1615.2,3462.5,1509.7,1326.8,3478.3,3471.0,1624.7,2279.6,2746.9,3497.8,1623.7,3486.8,3479.5,3466.1,685.6,791.9,1951.9,1132.2,1250.6,857.9,-21.0,-13.0,-10.0,6879.0,-6215.0,9883.0,-9210.0,13.0,-17.0,-13.0,-3.0,-8.0,18.0,8118.0,-10491.0,-7309.0,6249.0,5.0,-1.0,-5.0,1.0
2022-05-23 14:57:04.756918-07:00,1248.8,792.7,1075.6,980.7,954.3,1040.9,1903.6,1401.2,3467.4,3475.9,1125.2,862.1,1613.4,3463.7,1508.8,1323.2,3471.0,3478.3,1627.5,2278.6,2746.9,3497.8,1623.7,3483.2,3472.2,3475.9,685.6,794.4,1951.9,1132.2,1250.6,854.5,-12.0,1.0,-12.0,6879.0,-6211.0,9881.0,-9214.0,26.0,35.0,9.0,0.0,-1.0,15.0,8121.0,-10489.0,-7307.0,6251.0,20.0,-4.0,2.0,1.0
2022-05-23 14:57:04.816874-07:00,1248.8,799.4,1078.2,976.5,954.3,1040.9,1903.6,1402.1,3467.4,3457.6,1121.7,852.8,1613.4,3463.7,1508.8,1313.3,3478.3,3478.3,1627.5,2278.6,2745.8,3497.8,1612.4,3483.2,3469.8,3475.9,685.6,794.4,1937.1,1130.5,1245.3,854.5,-2.0,-5.0,-10.0,6875.0,-6203.0,9883.0,-9220.0,2.0,31.0,-8.0,-5.0,0.0,9.0,8120.0,-10489.0,-7307.0,6251.0,-10.0,8.0,-3.0,1.0
2022-05-23 14:57:04.847095-07:00,1253.3,799.4,1078.2,976.5,962.0,1034.9,1895.8,1402.1,3466.1,3457.6,1121.7,852.8,1604.9,3469.8,1515.3,1313.3,3478.3,3464.9,1627.5,2275.5,2745.8,3497.8,1612.4,3481.9,3469.8,3472.2,698.7,786.1,1937.1,1130.5,1245.3,863.7,-10.0,0.0,-17.0,6869.0,-6194.0,9889.0,-9225.0,11.0,20.0,-1.0,-4.0,0.0,9.0,8120.0,-10489.0,-7307.0,6251.0,5.0,7.0,-2.0,1.0
2022-05-23 14:57:04.907057-07:00,1253.3,792.7,1076.4,972.2,962.0,1034.9,1895.8,1404.9,3466.1,3469.8,1114.7,859.5,1604.9,3469.8,1515.3,1319.6,3473.4,3464.9,1627.5,2275.5,2738.1,3489.2,1614.3,3481.9,3474.6,3472.2,698.7,786.1,1926.2,1131.4,1241.7,863.7,-7.0,-9.0,-14.0,6867.0,-6192.0,9888.0,-9228.0,52.0,4.0,-9.0,-3.0,1.0,8.0,8123.0,-10487.0,-7306.0,6253.0,30.0,-1.0,-8.0,1.0
2022-05-23 14:57:04.967434-07:00,1255.1,792.7,1076.4,972.2,954.3,1034.9,1901.6,1404.9,3480.7,3469.8,1114.7,859.5,1604.0,3462.5,1504.1,1319.6,3473.4,3474.6,1618.1,2283.8,2738.1,3489.2,1614.3,3486.8,3474.6,3478.3,684.8,811.9,1926.2,1131.4,1241.7,857.9,-6.0,-7.0,-12.0,6869.0,-6185.0,9885.0,-9235.0,8.0,27.0,-1.0,-3.0,-4.0,12.0,8126.0,-10483.0,-7307.0,6253.0,3.0,-10.0,-8.0,1.0
2022-05-23 14:57:04.996933-07:00,1255.1,792.7,1078.2,983.3,954.3,1034.9,1901.6,1378.5,3480.7,3468.6,1126.1,853.7,1604.0,3462.5,1504.1,1310.6,3483.2,3474.6,1618.1,2283.8,2750.2,3494.1,1619.9,3486.8,3478.3,3478.3,684.8,811.9,1925.2,1125.2,1229.3,857.9,-8.0,0.0,-18.0,6868.0,-6179.0,9887.0,-9238.0,2.0,-14.0,-2.0,-3.0,0.0,9.0,8128.0,-10481.0,-7306.0,6255.0,-1.0,-7.0,-4.0,1.0
2022-05-23 14:57:05.057126-07:00,1236.4,792.7,1078.2,983.3,953.4,1041.8,1895.8,1378.5,3472.2,3475.9,1126.1,853.7,1608.7,3475.9,1501.4,1310.6,3483.2,3469.8,1613.4,2281.7,2750.2,3494.1,1615.2,3496.6,3478.3,3469.8,692.9,793.5,1925.2,1125.2,1231.0,853.7,-6.0,3.0,-14.0,6871.0,-6181.0,9886.0,-9235.0,15.0,-8.0,7.0,0.0,4.0,11.0,8128.0,-10477.0,-7308.0,6260.0,11.0,-16.0,-5.0,1.0
2022-05-23 14:57:05.116868-07:00,1236.4,792.7,1093.8,973.9,953.4,1041.8,1906.6,1404.9,3472.2,3475.9,1123.5,860.4,1608.7,3475.9,1501.4,1313.3,3469.8,3472.2,1613.4,2281.7,2740.3,3496.6,1615.2,3496.6,3478.3,3473.4,692.9,793.5,1914.4,1126.1,1231.0,853.7,-6.0,0.0,-9.0,6875.0,-6185.0,9881.0,-9236.0,15.0,-21.0,-32.0,-1.0,0.0,8.0,8128.0,-10473.0,-7314.0,6260.0,-2.0,-11.0,-22.0,1.0
2022-05-23 14:57:05.147162-07:00,1244.4,787.7,1093.8,973.9,956.0,1034.9,1906.6,1404.9,3467.4,3460.1,1123.5,860.4,1609.6,3471.0,1501.4,1313.3,3469.8,3472.2,1627.5,2260.0,2740.3,3496.6,1614.3,3484.4,3478.3,3473.4,689.7,786.9,1914.4,1126.1,1231.9,919.4,-17.0,-17.0,-16.0,6876.0,-6191.0,9872.0,-9240.0,35.0,-49.0,-6.0,-5.0,-9.0,15.0,8130.0,-10469.0,-7319.0,6259.0,16.0,-8.0,-5.0,1.0
2022-05-23 14:57:05.206882-07:00,1244.4,787.7,1077.3,979.0,956.0,1034.9,1892.8,1430.5,3467.4,3460.1,1119.1,858.7,1609.6,3471.0,1500.4,1303.4,3464.9,3464.9,1627.5,2260.0,2741.4,3489.2,1614.3,3484.4,3475.9,3475.9,689.7,786.9,1901.6,1117.4,1231.9,919.4,9.0,-8.0,-16.0,6898.0,-6197.0,9856.0,-9237.0,29.0,-23.0,16.0,0.0,3.0,-4.0,8139.0,-10461.0,-7314.0,6266.0,34.0,-19.0,-6.0,1.0
2022-05-23 14:57:05.266855-07:00,1256.9,800.2,1077.3,979.0,952.6,1044.4,1892.8,1430.5,3460.1,3467.4,1119.1,858.7,1612.4,3472.2,1500.4,1303.4,3464.9,3464.9,1618.1,2277.6,2741.4,3489.2,1611.5,3475.9,3475.9,3475.9,684.8,791.9,1901.6,1117.4,1219.5,857.0,-8.0,-6.0,0.0,6900.0,-6190.0,9860.0,-9236.0,-8.0,13.0,4.0,5.0,-6.0,29.0,8139.0,-10455.0,-7315.0,6275.0,-4.0,-7.0,-1.0,1.0
2022-05-23 14:57:05.296988-07:00,1256.9,800.2,1069.5,976.5,952.6,1040.9,1883.0,1394.8,3460.1,3467.4,1121.7,862.1,1612.4,3468.6,1492.1,1314.2,3466.1,3468.6,1628.4,2277.6,2745.8,3490.5,1611.5,3475.9,3477.1,3473.4,692.1,791.9,1892.8,1116.5,1219.5,857.0,4.0,0.0,-3.0,6901.0,-6190.0,9856.0,-9239.0,2.0,19.0,-17.0,-2.0,3.0,8.0,8144.0,-10451.0,-7313.0,6277.0,-9.0,5.0,-8.0,1.0
2022-05-23 14:57:05.357033-07:00,1241.7,786.1,1072.1,976.5,944.9,1040.9,1883.0,1394.8,3468.6,3464.9,1119.1,862.1,1611.5,3468.6,1492.1,1314.2,3466.1,3468.6,1628.4,2283.8,2745.8,3491.7,1612.4,3486.8,3477.1,3473.4,692.1,793.5,1892.8,1115.6,1233.7,866.3,-11.0,-5.0,-13.0,6890.0,-6185.0,9863.0,-9242.0,-12.0,18.0,-6.0,-1.0,-3.0,15.0,8143.0,-10453.0,-7315.0,6272.0,-25.0,11.0,-5.0,1.0
2022-05-23 14:57:05.416850-07:00,1241.7,786.1,1072.1,974.8,944.9,1024.5,1894.8,1404.9,3468.6,3464.9,1119.1,862.1,1611.5,3463.7,1484.7,1306.1,3469.8,3469.8,1627.5,2283.8,2743.6,3491.7,1612.4,3486.8,3475.9,3463.7,683.1,793.5,1888.9,1115.6,1233.7,866.3,-8.0,-6.0,-14.0,6880.0,-6184.0,9871.0,-9243.0,-16.0,32.0,-12.0,-6.0,-1.0,11.0,8139.0,-10459.0,-7317.0,6267.0,-24.0,7.0,-5.0,1.0
2022-05-23 14:57:05.447160-07:00,1240.8,784.4,1073.8,974.8,957.7,1024.5,1894.8,1404.9,3457.6,3452.8,1116.5,862.1,1612.4,3463.7,1484.7,1306.1,3469.8,3469.8,1627.5,2308.7,2743.6,3484.4,1612.4,3492.9,3475.9,3463.7,683.1,788.6,1888.9,1121.7,1224.8,856.2,7.0,-5.0,-16.0,6876.0,-6183.0,9875.0,-9242.0,27.0,5.0,-4.0,-1.0,0.0,-2.0,8137.0,-10461.0,-7318.0,6266.0,15.0,0.0,1.0,1.0
2022-05-23 14:57:05.536896-07:00,1240.8,784.4,1073.8,969.6,957.7,1042.6,1889.9,1403.0,3457.6,3452.8,1116.5,854.5,1612.4,3469.8,1500.4,1308.8,3471.0,3471.0,1627.5,2308.7,2723.8,3484.4,1612.4,3492.9,3472.2,3472.2,690.5,788.6,1875.2,1121.7,1224.8,856.2,-5.0,-3.0,-18.0,6873.0,-6178.0,9877.0,-9245.0,-11.0,-3.0,4.0,0.0,0.0,10.0,8138.0,-10459.0,-7317.0,6268.0,-10.0,-8.0,-3.0,1.0
2022-05-23 14:57:05.566838-07:00,1248.0,791.0,1073.8,969.6,951.7,1042.6,1889.9,1403.0,3473.4,3455.2,1114.7,854.5,1615.2,3469.8,1500.4,1308.8,3471.0,3471.0,1627.5,2277.6,2723.8,3490.5,1610.5,3489.2,3472.2,3472.2,690.5,788.6,1875.2,1119.1,1224.8,857.0,-12.0,-6.0,-2.0,6872.0,-6179.0,9878.0,-9244.0,29.0,-16.0,-14.0,-3.0,-6.0,19.0,8137.0,-10459.0,-7317.0,6267.0,13.0,-5.0,-5.0,1.0
2022-05-23 14:57:05.597069-07:00,1248.0,791.0,1073.8,971.3,949.2,1038.3,1871.3,1404.0,3473.4,3455.2,1114.7,852.8,1610.5,3462.5,1488.4,1309.7,3466.1,3464.9,1619.9,2283.8,2735.9,3490.5,1610.5,3489.2,3467.4,3473.4,692.9,789.4,1879.1,1119.1,1224.8,857.0,-2.0,-2.0,-16.0,6881.0,-6182.0,9868.0,-9246.0,8.0,-10.0,-7.0,0.0,0.0,7.0,8141.0,-10457.0,-7315.0,6270.0,5.0,-3.0,-6.0,1.0
2022-05-23 14:57:05.687170-07:00,1245.3,793.5,1078.2,971.3,949.2,1038.3,1871.3,1404.0,3466.1,3472.2,1111.2,855.3,1610.5,3462.5,1488.4,1309.7,3466.1,3464.9,1619.9,2283.8,2750.2,3483.2,1612.4,3490.5,3467.4,3473.4,692.9,789.4,1877.2,1120.9,1220.4,861.2,-3.0,-7.0,-7.0,6880.0,-6180.0,9869.0,-9247.0,-3.0,12.0,-1.0,1.0,-2.0,14.0,8139.0,-10457.0,-7316.0,6271.0,-15.0,-4.0,-4.0,1.0
2022-05-23 14:57:05.716856-07:00,1245.3,793.5,1078.2,971.3,948.3,1021.1,1880.1,1398.5,3466.1,3472.2,1111.2,855.3,1610.5,3463.7,1488.4,1307.9,3471.0,3473.4,1623.7,2273.4,2750.2,3483.2,1612.4,3490.5,3467.4,3474.6,681.5,782.7,1877.2,1120.9,1220.4,861.2,-5.0,-8.0,-13.0,6879.0,-6180.0,9870.0,-9248.0,2.0,-9.0,-3.0,0.0,-1.0,13.0,8141.0,-10456.0,-7315.0,6271.0,-6.0,5.0,2.0,1.0
2022-05-23 14:57:05.777094-07:00,1234.6,784.4,1085.1,975.6,948.3,1021.1,1880.1,1398.5,3471.0,3478.3,1118.2,856.2,1610.5,3463.7,1488.4,1307.9,3471.0,3473.4,1623.7,2273.4,2767.9,3486.8,1611.5,3485.6,3467.4,3474.6,681.5,782.7,1864.5,1126.1,1217.7,847.8,-6.0,-4.0,-11.0,6880.0,-6177.0,9870.0,-9248.0,18.0,28.0,19.0,-1.0,0.0,13.0,8142.0,-10455.0,-7315.0,6272.0,18.0,-6.0,1.0,1.0
2022-05-23 14:57:05.806856-07:00,1234.6,784.4,1085.1,975.6,950.0,1030.6,1877.2,1386.6,3471.0,3478.3,1118.2,856.2,1608.7,3469.8,1484.7,1302.5,3468.6,3469.8,1623.7,2256.9,2767.9,3486.8,1611.5,3485.6,3469.8,3467.4,692.9,790.2,1864.5,1126.1,1217.7,847.8,-9.0,-10.0,-16.0,6883.0,-6165.0,9873.0,-9250.0,35.0,10.0,20.0,2.0,-7.0,16.0,8148.0,-10450.0,-7311.0,6276.0,24.0,-6.0,7.0,1.0
2022-05-23 14:57:05.866898-07:00,1241.7,801.9,1070.3,972.2,950.0,1030.6,1877.2,1396.7,3468.6,3462.5,1117.4,853.7,1608.7,3469.8,1484.7,1299.8,3464.9,3469.8,1623.7,2256.9,2727.1,3480.7,1605.8,3492.9,3473.4,3467.4,692.9,790.2,1864.5,1114.7,1218.6,856.2,-4.0,-3.0,-14.0,6894.0,-6153.0,9866.0,-9258.0,33.0,-3.0,18.0,0.0,-2.0,8.0,8158.0,-10442.0,-7305.0,6284.0,32.0,-9.0,6.0,1.0
2022-05-23 14:57:05.897022-07:00,1246.2,801.9,1070.3,972.2,967.1,1033.2,1879.1,1396.7,3468.6,3462.5,1117.4,853.7,1612.4,3466.1,1489.3,1299.8,3464.9,3464.9,1619.9,2275.5,2727.1,3480.7,1605.8,3488.0,3473.4,3477.1,685.6,792.7,1864.5,1114.7,1218.6,883.1,-4.0,5.0,-7.0,6899.0,-6144.0,9865.0,-9261.0,11.0,15.0,10.0,-1.0,3.0,15.0,8163.0,-10438.0,-7302.0,6287.0,9.0,-3.0,1.0,1.0
2022-05-23 14:57:05.956879-07:00,1246.2,786.1,1090.3,969.6,967.1,1033.2,1879.1,1387.5,3468.6,3471.0,1116.5,857.0,1612.4,3466.1,1489.3,1310.6,3479.5,3464.9,1619.9,2275.5,2729.3,3499.0,1610.5,3488.0,3471.0,3477.1,685.6,792.7,1893.8,1121.7,1216.8,883.1,-13.0,2.0,-10.0,6893.0,-6140.0,9865.0,-9268.0,3.0,26.0,-24.0,-4.0,3.0,17.0,8165.0,-10437.0,-7301.0,6288.0,-8.0,11.0,-10.0,1.0
2022-05-23 14:57:06.016782-07:00,1246.2,786.1,1090.3,969.6,953.4,1024.5,1887.9,1387.5,3469.8,3471.0,1116.5,857.0,1612.4,3471.0,1483.8,1310.6,3479.5,3473.4,1618.1,2275.5,2729.3,3499.0,1610.5,3485.6,3471.0,3467.4,692.9,790.2,1893.8,1121.7,1216.8,849.5,-9.0,-20.0,-22.0,6882.0,-6141.0,9870.0,-9271.0,14.0,0.0,9.0,-3.0,-6.0,5.0,8161.0,-10442.0,-7302.0,6283.0,-4.0,8.0,8.0,1.0
2022-05-23 14:57:06.046972-07:00,1246.2,789.4,1099.9,982.5,953.4,1024.5,1887.9,1370.3,3469.8,3477.1,1119.1,857.0,1612.4,3471.0,1483.8,1295.4,3466.1,3473.4,1618.1,2275.5,2730.4,3489.2,1614.3,3485.6,3468.6,3467.4,692.9,790.2,1884.0,1118.2,1223.0,849.5,0.0,0.0,-24.0,6892.0,-6133.0,9867.0,-9272.0,30.0,-14.0,24.0,4.0,4.0,1.0,8167.0,-10438.0,-7293.0,6291.0,32.0,-9.0,11.0,1.0
2022-05-23 14:57:06.106948-07:00,1236.4,789.4,1099.9,982.5,946.6,1021.9,1868.4,1370.3,3473.4,3477.1,1119.1,857.0,1612.4,3466.1,1481.9,1295.4,3466.1,3472.2,1616.2,2256.9,2730.4,3489.2,1614.3,3485.6,3468.6,3462.5,690.5,785.2,1884.0,1118.2,1223.0,856.2,-6.0,-9.0,-11.0,6899.0,-6133.0,9865.0,-9268.0,-7.0,-20.0,13.0,-1.0,-2.0,12.0,8168.0,-10434.0,-7294.0,6296.0,-2.0,-14.0,6.0,1.0
2022-05-23 14:57:06.166901-07:00,1236.4,788.6,1092.1,979.9,946.6,1021.9,1884.0,1391.2,3473.4,3457.6,1111.2,851.1,1612.4,3466.1,1488.4,1305.2,3477.1,3467.4,1616.2,2256.9,2729.3,3490.5,1606.8,3485.6,3477.1,3468.6,690.5,785.2,1860.6,1114.7,1216.0,856.2,-13.0,-7.0,-4.0,6903.0,-6134.0,9869.0,-9262.0,4.0,3.0,1.0,-6.0,-3.0,15.0,8167.0,-10431.0,-7295.0,6301.0,0.0,-6.0,4.0,1.0
2022-05-23 14:57:06.197000-07:00,1248.8,787.7,1092.1,979.9,945.8,1019.4,1884.0,1391.2,3461.3,3466.1,1111.2,851.1,1611.5,3467.4,1488.4,1305.2,3477.1,3467.4,1617.1,2270.3,2729.3,3490.5,1604.0,3481.9,3477.1,3468.6,684.8,788.6,1860.6,1114.7,1221.3,878.0,-3.0,-6.0,-4.0,6903.0,-6129.0,9867.0,-9266.0,22.0,39.0,2.0,-5.0,0.0,8.0,8168.0,-10431.0,-7294.0,6302.0,-2.0,6.0,-1.0,1.0
2022-05-23 14:57:06.256934-07:00,1248.8,787.7,1098.2,998.7,945.8,1019.4,1860.6,1399.4,3461.3,3466.1,1120.9,852.0,1611.5,3467.4,1484.7,1321.4,3477.1,3472.2,1617.1,2270.3,2731.5,3488.0,1604.0,3481.9,3467.4,3472.2,684.8,788.6,1886.0,1118.2,1221.3,878.0,-17.0,-1.0,-22.0,6893.0,-6111.0,9875.0,-9278.0,-5.0,44.0,20.0,-1.0,0.0,16.0,8169.0,-10431.0,-7291.0,6303.0,-7.0,14.0,10.0,1.0
2022-05-23 14:57:06.316908-07:00,1250.6,786.9,1098.2,998.7,945.8,1028.0,1860.6,1399.4,3469.8,3469.8,1120.9,852.0,1609.6,3478.3,1484.7,1321.4,3477.1,3472.2,1619.0,2275.5,2731.5,3488.0,1605.8,3489.2,3467.4,3472.2,684.0,785.2,1886.0,1118.2,1211.5,853.7,7.0,-8.0,-15.0,6890.0,-6106.0,9886.0,-9271.0,5.0,9.0,-7.0,2.0,-2.0,-4.0,8165.0,-10436.0,-7290.0,6302.0,-13.0,4.0,8.0,1.0
2022-05-23 14:57:06.346836-07:00,1250.6,786.9,1112.1,1001.3,945.8,1028.0,1877.2,1373.9,3469.8,3469.8,1120.9,854.5,1609.6,3478.3,1474.6,1302.5,3472.2,3469.8,1619.0,2275.5,2739.2,3480.7,1605.8,3489.2,3472.2,3469.8,684.0,785.2,1891.8,1123.5,1211.5,853.7,-10.0,-5.0,-16.0,6889.0,-6101.0,9887.0,-9274.0,12.0,-13.0,15.0,-3.0,0.0,11.0,8167.0,-10434.0,-7288.0,6304.0,14.0,-7.0,4.0,1.0
2022-05-23 14:57:06.438475-07:00,1238.2,784.4,1109.5,1001.3,951.7,1029.7,1877.2,1373.9,3460.1,3472.2,1119.1,854.5,1614.3,3462.5,1474.6,1302.5,3472.2,3469.8,1611.5,2259.0,2739.2,3483.2,1606.8,3483.2,3472.2,3469.8,680.7,788.6,1891.8,1114.7,1216.0,856.2,0.0,-7.0,-6.0,6895.0,-6104.0,9887.0,-9267.0,-12.0,-21.0,-1.0,-3.0,0.0,6.0,8165.0,-10435.0,-7290.0,6304.0,-16.0,-8.0,2.0,1.0
2022-05-23 14:57:06.440269-07:00,1238.2,784.4,1109.5,1000.5,951.7,1024.5,1886.0,1397.6,3460.1,3472.2,1119.1,860.4,1614.3,3461.3,1477.3,1305.2,3478.3,3478.3,1618.1,2259.0,2729.3,3483.2,1606.8,3483.2,3468.6,3467.4,683.1,788.6,1885.0,1114.7,1216.0,856.2,4.0,0.0,-4.0,6894.0,-6104.0,9888.0,-9267.0,22.0,22.0,3.0,-2.0,1.0,8.0,8164.0,-10435.0,-7291.0,6303.0,-4.0,0.0,-4.0,1.0
2022-05-23 14:57:06.496778-07:00,1239.9,791.0,1122.6,1000.5,958.5,1024.5,1886.0,1397.6,3468.6,3462.5,1118.2,860.4,1612.4,3461.3,1477.3,1305.2,3478.3,3478.3,1618.1,2254.8,2729.3,3492.9,1603.0,3480.7,3468.6,3467.4,683.1,789.4,1885.0,1146.3,1239.1,852.0,-18.0,-16.0,-17.0,6889.0,-6096.0,9893.0,-9271.0,13.0,-25.0,-2.0,0.0,-6.0,23.0,8165.0,-10434.0,-7290.0,6304.0,-8.0,8.0,7.0,1.0
2022-05-23 14:57:06.556995-07:00,1239.9,791.0,1122.6,997.0,958.5,1014.2,1858.6,1389.4,3468.6,3462.5,1118.2,856.2,1612.4,3471.0,1483.8,1305.2,3467.4,3464.9,1609.6,2254.8,2734.8,3492.9,1603.0,3480.7,3477.1,3464.9,678.2,789.4,1916.4,1146.3,1239.1,852.0,9.0,2.0,-28.0,6912.0,-6112.0,9881.0,-9255.0,13.0,-131.0,-2.0,-4.0,6.0,-11.0,8167.0,-10435.0,-7284.0,6308.0,15.0,-4.0,9.0,1.0
2022-05-23 14:57:06.586992-07:00,1248.0,793.5,1113.9,997.0,953.4,1014.2,1858.6,1389.4,3468.6,3462.5,1126.1,856.2,1612.4,3471.0,1483.8,1305.2,3467.4,3464.9,1609.6,2271.4,2734.8,3495.3,1614.3,3485.6,3477.1,3464.9,678.2,786.1,1916.4,1110.4,1207.1,861.2,-2.0,-6.0,-4.0,6938.0,-6137.0,9865.0,-9237.0,20.0,-59.0,19.0,-6.0,-2.0,4.0,8166.0,-10427.0,-7287.0,6319.0,26.0,-36.0,-3.0,1.0
2022-05-23 14:57:06.647142-07:00,1248.0,793.5,1113.9,1000.5,954.3,1024.5,1849.8,1386.6,3468.6,3462.5,1126.1,858.7,1604.9,3464.9,1475.5,1299.0,3467.4,3463.7,1619.9,2259.0,2737.0,3495.3,1614.3,3485.6,3474.6,3475.9,686.4,786.1,1856.7,1110.4,1207.1,861.2,0.0,0.0,11.0,6954.0,-6145.0,9855.0,-9231.0,19.0,-24.0,-8.0,2.0,-2.0,13.0,8167.0,-10419.0,-7289.0,6329.0,3.0,-9.0,-3.0,1.0
2022-05-23 14:57:06.707510-07:00,1249.7,791.9,1114.7,1002.2,954.3,1024.5,1849.8,1386.6,3464.9,3471.0,1120.9,854.5,1604.9,3464.9,1475.5,1299.0,3467.4,3463.7,1619.9,2259.0,2727.1,3491.7,1606.8,3483.2,3474.6,3475.9,686.4,786.1,1858.6,1106.9,1202.7,867.1,24.0,-4.0,10.0,6931.0,-6101.0,9863.0,-9268.0,60.0,441.0,34.0,9.0,15.0,16.0,8177.0,-10413.0,-7290.0,6325.0,38.0,22.0,-35.0,1.0
2022-05-23 14:57:06.736974-07:00,1249.7,791.9,1114.7,1002.2,936.4,1024.5,1869.3,1384.8,3464.9,3471.0,1120.9,854.5,1603.0,3463.7,1473.6,1296.3,3475.9,3468.6,1624.7,2262.1,2727.1,3491.7,1606.8,3483.2,3477.1,3468.6,681.5,785.2,1858.6,1106.9,1202.7,867.1,23.0,18.0,-111.0,6842.0,-5989.0,9943.0,-9321.0,-103.0,208.0,67.0,24.0,10.0,29.0,8175.0,-10422.0,-7298.0,6302.0,-116.0,34.0,-27.0,1.0
2022-05-23 14:57:06.797181-07:00,1237.3,784.4,1089.5,955.1,936.4,1024.5,1869.3,1384.8,3468.6,3473.4,1122.6,858.7,1603.0,3463.7,1473.6,1296.3,3475.9,3468.6,1624.7,2262.1,2730.4,3486.8,1605.8,3491.7,3477.1,3468.6,681.5,785.2,2226.0,1172.6,1353.1,861.2,41.0,62.0,94.0,6827.0,-6074.0,9969.0,-9250.0,-202.0,-56.0,-362.0,-18.0,12.0,-5.0,8120.0,-10463.0,-7354.0,6239.0,-344.0,13.0,-97.0,1.0
2022-05-23 14:57:06.856851-07:00,1237.3,784.4,1089.5,955.1,949.2,1054.8,1861.5,1386.6,3468.6,3473.4,1122.6,858.7,1612.4,3468.6,1456.2,1290.9,3475.9,3477.1,1614.3,2266.2,2730.4,3486.8,1605.8,3491.7,3473.4,3478.3,683.1,793.5,2226.0,1172.6,1353.1,861.2,-35.0,-3.0,1.0,6735.0,-6171.0,9909.0,-9317.0,-49.0,-42.0,-221.0,-8.0,13.0,18.0,8094.0,-10499.0,-7388.0,6173.0,-95.0,75.0,-45.0,1.0
2022-05-23 14:57:06.887197-07:00,1260.4,794.4,1066.9,959.4,949.2,1054.8,1861.5,1386.6,3467.4,3475.9,1104.3,851.1,1612.4,3468.6,1456.2,1290.9,3475.9,3477.1,1614.3,2266.2,2739.2,3485.6,1605.8,3489.2,3473.4,3478.3,683.1,793.5,2172.8,1093.8,1242.6,865.4,10.0,-47.0,-25.0,6678.0,-6207.0,9965.0,-9275.0,-254.0,158.0,170.0,0.0,-10.0,-15.0,8050.0,-10545.0,-7416.0,6118.0,-266.0,29.0,17.0,1.0
2022-05-23 14:57:06.947041-07:00,1260.4,794.4,1066.9,959.4,960.2,1045.2,1860.6,1368.5,3475.9,3475.9,1104.3,851.1,1607.7,3468.6,1374.8,1267.6,3474.6,3477.1,1620.9,2269.3,2739.2,3485.6,1605.8,3495.3,3480.7,3467.4,691.3,791.0,2172.8,1093.8,1242.6,863.7,-28.0,32.0,-42.0,6666.0,-6150.0,10035.0,-9245.0,83.0,-17.0,34.0,3.0,-8.0,14.0,8016.0,-10581.0,-7425.0,6089.0,28.0,47.0,25.0,1.0
2022-05-23 14:57:07.006909-07:00,1260.4,786.9,1054.8,966.2,960.2,1045.2,1860.6,1362.1,3475.9,3464.9,1095.6,852.0,1607.7,3468.6,1374.8,1242.6,3473.4,3477.1,1620.9,2269.3,2727.1,3491.7,1611.5,3495.3,3478.3,3467.4,691.3,791.0,2138.2,1074.7,1172.6,863.7,3.0,-10.0,-47.0,6667.0,-6196.0,10012.0,-9239.0,-128.0,-79.0,-150.0,-17.0,5.0,-22.0,8006.0,-10597.0,-7429.0,6071.0,-101.0,-18.0,-37.0,1.0
2022-05-23 14:57:07.066967-07:00,1246.2,786.9,1054.8,966.2,945.8,1048.7,1861.5,1362.1,3457.6,3464.9,1095.6,852.0,1604.9,3467.4,1345.8,1242.6,3473.4,3474.6,1620.9,2268.3,2727.1,3491.7,1611.5,3488.0,3478.3,3475.9,687.2,791.0,2138.2,1074.7,1172.6,857.0,-17.0,-43.0,-2.0,6658.0,-6237.0,10012.0,-9218.0,24.0,-49.0,113.0,-3.0,-13.0,18.0,7995.0,-10593.0,-7446.0,6071.0,71.0,-45.0,5.0,1.0
2022-05-23 14:57:07.097095-07:00,1246.2,791.9,1047.8,951.7,945.8,1048.7,1861.5,1357.6,3457.6,3473.4,1099.9,850.3,1604.9,3467.4,1345.8,1246.2,3469.8,3474.6,1620.9,2268.3,2738.1,3494.1,1616.2,3488.0,3464.9,3475.9,687.2,791.0,2119.9,1062.5,1147.1,857.0,-7.0,15.0,9.0,6702.0,-6195.0,10018.0,-9207.0,76.0,37.0,96.0,0.0,-4.0,25.0,8010.0,-10572.0,-7437.0,6100.0,74.0,-12.0,13.0,1.0
2022-05-23 14:57:07.186681-07:00,1244.4,791.9,1047.8,951.7,951.7,1040.1,1865.4,1357.6,3457.6,3473.4,1099.9,850.3,1607.7,3473.4,1333.2,1246.2,3469.8,3467.4,1615.2,2260.0,2738.1,3494.1,1616.2,3485.6,3464.9,3471.0,684.8,771.1,2119.9,1062.5,1147.1,863.7,0.0,7.0,0.0,6706.0,-6166.0,10026.0,-9215.0,-50.0,81.0,-17.0,-4.0,2.0,15.0,8016.0,-10569.0,-7428.0,6108.0,-63.0,18.0,11.0,1.0
2022-05-23 14:57:07.187908-07:00,1244.4,796.0,1054.8,941.5,951.7,1040.1,1839.1,1344.0,3457.6,3468.6,1091.2,846.1,1607.7,3473.4,1333.2,1235.5,3467.4,3472.2,1615.2,2260.0,2712.8,3477.1,1608.7,3485.6,3475.9,3478.3,684.8,771.1,2090.6,1056.5,1125.2,863.7,-9.0,-9.0,-13.0,6675.0,-6158.0,10046.0,-9222.0,15.0,70.0,-20.0,-5.0,-4.0,7.0,8009.0,-10583.0,-7425.0,6097.0,-10.0,32.0,13.0,1.0
2022-05-23 14:57:07.247013-07:00,1240.8,791.9,1054.8,941.5,956.8,1021.1,1839.1,1344.0,3467.4,3471.0,1091.2,846.1,1606.8,3473.4,1333.2,1235.5,3467.4,3472.2,1612.4,2266.2,2712.8,3477.1,1602.1,3486.8,3475.9,3478.3,685.6,793.5,2090.6,1056.5,1118.2,856.2,-14.0,0.0,-36.0,6647.0,-6141.0,10060.0,-9238.0,0.0,60.0,-32.0,-1.0,-6.0,7.0,8012.0,-10587.0,-7421.0,6092.0,-5.0,15.0,5.0,1.0
2022-05-23 14:57:07.307535-07:00,1240.8,791.9,1047.8,953.4,956.8,1021.1,1818.7,1336.8,3467.4,3471.0,1090.3,849.5,1606.8,3473.4,1324.1,1238.2,3467.4,3475.9,1612.4,2266.2,2726.0,3497.8,1602.1,3486.8,3469.8,3464.9,685.6,793.5,2091.6,1048.7,1118.2,856.2,-7.0,-5.0,-32.0,6628.0,-6151.0,10068.0,-9237.0,9.0,-37.0,-49.0,-1.0,3.0,0.0,8013.0,-10586.0,-7420.0,6093.0,6.0,-5.0,-6.0,1.0
2022-05-23 14:57:07.337046-07:00,1245.3,793.5,1047.8,953.4,949.2,1035.7,1818.7,1336.8,3468.6,3469.8,1090.3,849.5,1609.6,3474.6,1324.1,1238.2,3467.4,3475.9,1619.0,2273.4,2726.0,3497.8,1604.9,3488.0,3469.8,3464.9,684.0,787.7,2091.6,1048.7,1120.0,855.3,-8.0,-18.0,-7.0,6627.0,-6164.0,10063.0,-9234.0,15.0,-10.0,17.0,0.0,-7.0,7.0,8010.0,-10582.0,-7423.0,6098.0,13.0,-21.0,2.0,1.0
2022-05-23 14:57:07.397119-07:00,1245.3,793.5,1049.6,946.6,949.2,1035.7,1827.5,1326.8,3468.6,3469.8,1084.2,847.0,1609.6,3474.6,1326.8,1225.7,3467.4,3475.9,1619.0,2273.4,2727.1,3485.6,1604.9,3488.0,3473.4,3478.3,684.0,787.7,2072.5,1045.2,1120.0,855.3,-12.0,-1.0,-8.0,6637.0,-6164.0,10065.0,-9225.0,-18.0,-41.0,12.0,-6.0,-2.0,13.0,8008.0,-10579.0,-7424.0,6105.0,-11.0,-13.0,8.0,1.0
2022-05-23 14:57:07.456943-07:00,1238.2,791.9,1049.6,946.6,950.9,1029.7,1827.5,1326.8,3461.3,3467.4,1084.2,847.0,1609.6,3478.3,1326.8,1225.7,3467.4,3475.9,1616.2,2263.1,2727.1,3485.6,1600.2,3479.5,3473.4,3478.3,675.8,786.1,2072.5,1045.2,1105.1,864.6,-1.0,-4.0,-4.0,6645.0,-6171.0,10062.0,-9218.0,13.0,-9.0,-7.0,-6.0,-2.0,3.0,8005.0,-10577.0,-7426.0,6110.0,5.0,-18.0,-5.0,1.0
2022-05-23 14:57:07.486979-07:00,1238.2,791.9,1043.5,946.6,950.9,1022.8,1811.0,1335.0,3461.3,3467.4,1086.8,848.6,1609.6,3467.4,1317.8,1231.0,3473.4,3471.0,1614.3,2263.1,2713.9,3500.2,1600.2,3479.5,3477.1,3479.5,682.3,786.1,2063.5,1038.3,1105.1,864.6,-19.0,4.0,-10.0,6641.0,-6170.0,10060.0,-9224.0,-12.0,-8.0,-28.0,-1.0,-4.0,17.0,8006.0,-10573.0,-7429.0,6113.0,-16.0,-1.0,-11.0,1.0
2022-05-23 14:57:07.547086-07:00,1250.6,783.6,1040.1,946.6,950.0,1022.8,1811.0,1335.0,3467.4,3466.1,1085.1,848.6,1616.2,3467.4,1317.8,1231.0,3473.4,3471.0,1614.3,2267.2,2713.9,3494.1,1598.3,3485.6,3477.1,3479.5,682.3,786.1,2063.5,1039.2,1109.5,858.7,3.0,-18.0,-17.0,6638.0,-6194.0,10060.0,-9209.0,-48.0,-31.0,-26.0,-3.0,-3.0,-2.0,7998.0,-10579.0,-7433.0,6107.0,-33.0,-5.0,-6.0,1.0
2022-05-23 14:57:07.607574-07:00,1250.6,783.6,1040.1,943.2,950.0,1021.1,1809.0,1330.5,3467.4,3466.1,1085.1,849.5,1616.2,3462.5,1317.8,1231.9,3473.4,3464.9,1616.2,2267.2,2720.5,3494.1,1598.3,3485.6,3473.4,3471.0,675.8,786.1,2061.5,1039.2,1109.5,858.7,-2.0,0.0,-23.0,6641.0,-6196.0,10054.0,-9212.0,54.0,-24.0,-2.0,0.0,1.0,4.0,8003.0,-10573.0,-7433.0,6111.0,39.0,-8.0,-15.0,1.0
2022-05-23 14:57:07.636968-07:00,1240.8,791.9,1047.0,943.2,958.5,1021.1,1809.0,1330.5,3468.6,3457.6,1082.5,849.5,1610.5,3462.5,1317.8,1231.9,3473.4,3464.9,1616.2,2263.1,2720.5,3489.2,1596.4,3489.2,3473.4,3471.0,675.8,781.1,2061.5,1046.1,1113.0,859.5,-12.0,-13.0,-4.0,6649.0,-6195.0,10041.0,-9221.0,30.0,5.0,-21.0,-6.0,-8.0,10.0,8011.0,-10562.0,-7436.0,6115.0,24.0,-13.0,-19.0,1.0
2022-05-23 14:57:07.697115-07:00,1240.8,791.9,1047.0,944.9,958.5,1018.5,1802.3,1333.2,3468.6,3457.6,1082.5,852.0,1610.5,3464.9,1317.8,1225.7,3471.0,3473.4,1613.4,2263.1,2717.2,3489.2,1596.4,3489.2,3478.3,3474.6,679.9,781.1,2050.4,1046.1,1113.0,859.5,-16.0,-6.0,-5.0,6650.0,-6190.0,10029.0,-9237.0,47.0,15.0,-11.0,-5.0,-5.0,12.0,8023.0,-10553.0,-7431.0,6122.0,33.0,-3.0,-7.0,1.0
2022-05-23 14:57:07.756809-07:00,1248.8,784.4,1041.8,960.2,950.0,1018.5,1802.3,1333.2,3474.6,3467.4,1085.1,845.3,1612.4,3464.9,1317.8,1225.7,3471.0,3473.4,1613.4,2262.1,2713.9,3496.6,1595.5,3486.8,3478.3,3474.6,679.9,785.2,2047.4,1036.6,1086.0,855.3,4.0,0.0,-8.0,6650.0,-6189.0,10015.0,-9252.0,45.0,-7.0,-49.0,1.0,5.0,4.0,8031.0,-10546.0,-7427.0,6128.0,12.0,-1.0,-12.0,1.0
2022-05-23 14:57:07.786978-07:00,1248.8,784.4,1041.8,960.2,951.7,1021.9,1818.7,1323.2,3474.6,3467.4,1085.1,845.3,1604.9,3466.1,1317.8,1228.4,3477.1,3464.9,1613.4,2243.5,2713.9,3496.6,1595.5,3486.8,3478.3,3466.1,671.7,784.4,2047.4,1036.6,1086.0,855.3,1.0,-9.0,-8.0,6638.0,-6190.0,10009.0,-9268.0,4.0,32.0,-15.0,4.0,-6.0,11.0,8033.0,-10545.0,-7428.0,6127.0,9.0,0.0,2.0,1.0
2022-05-23 14:57:07.847126-07:00,1251.5,791.9,1040.9,945.8,951.7,1021.9,1818.7,1323.2,3464.9,3475.9,1087.7,841.1,1604.9,3466.1,1317.8,1228.4,3477.1,3464.9,1613.4,2243.5,2715.0,3486.8,1595.5,3492.9,3478.3,3466.1,671.7,784.4,2039.4,1040.1,1090.3,851.1,-3.0,4.0,-11.0,6629.0,-6177.0,10012.0,-9279.0,48.0,51.0,-4.0,-1.0,0.0,9.0,8043.0,-10537.0,-7422.0,6134.0,51.0,6.0,-3.0,1.0
2022-05-23 14:57:07.906952-07:00,1251.5,791.9,1040.9,945.8,948.3,1011.6,1799.4,1314.2,3464.9,3475.9,1087.7,841.1,1608.7,3463.7,1312.4,1226.6,3471.0,3468.6,1614.3,2259.0,2715.0,3486.8,1595.5,3492.9,3478.3,3472.2,672.5,781.1,2039.4,1040.1,1090.3,851.1,-13.0,-4.0,-12.0,6617.0,-6159.0,10009.0,-9302.0,22.0,63.0,-22.0,-6.0,1.0,10.0,8048.0,-10533.0,-7421.0,6136.0,-23.0,0.0,-10.0,1.0
2022-05-23 14:57:07.936957-07:00,1245.3,789.4,1052.2,950.9,948.3,1011.6,1799.4,1314.2,3466.1,3466.1,1084.2,844.4,1608.7,3463.7,1312.4,1226.6,3471.0,3468.6,1614.3,2259.0,2720.5,3494.1,1588.9,3497.8,3478.3,3472.2,672.5,781.1,2032.4,1041.8,1090.3,862.9,-4.0,-6.0,-10.0,6602.0,-6153.0,10024.0,-9301.0,-18.0,22.0,6.0,-5.0,-6.0,9.0,8040.0,-10539.0,-7424.0,6131.0,-19.0,10.0,0.0,1.0
2022-05-23 14:57:07.996890-07:00,1245.3,789.4,1052.2,950.9,942.4,1011.6,1798.4,1313.3,3466.1,3466.1,1084.2,844.4,1604.0,3471.0,1307.0,1225.7,3466.1,3472.2,1606.8,2254.8,2720.5,3494.1,1588.9,3497.8,3468.6,3474.6,674.2,787.7,2032.4,1041.8,1090.3,862.9,3.0,-9.0,-10.0,6595.0,-6145.0,10024.0,-9311.0,44.0,45.0,-17.0,0.0,-3.0,1.0,8043.0,-10537.0,-7423.0,6134.0,32.0,-4.0,-2.0,1.0
2022-05-23 14:57:08.056802-07:00,1239.9,779.4,1045.2,945.8,942.4,1011.6,1798.4,1316.0,3472.2,3474.6,1084.2,844.4,1604.0,3471.0,1307.0,1224.8,3475.9,3472.2,1606.8,2254.8,2722.7,3488.0,1600.2,3488.0,3480.7,3474.6,674.2,787.7,2022.4,1039.2,1086.8,852.8,-5.0,-2.0,-14.0,6589.0,-6119.0,10022.0,-9334.0,43.0,44.0,17.0,-2.0,4.0,9.0,8052.0,-10530.0,-7418.0,6140.0,7.0,1.0,5.0,1.0
2022-05-23 14:57:08.117514-07:00,1233.7,779.4,1045.2,945.8,958.5,1007.3,1785.8,1316.0,3468.6,3474.6,1084.2,844.4,1609.6,3474.6,1317.8,1224.8,3475.9,3466.1,1615.2,2255.9,2722.7,3488.0,1600.2,3485.6,3480.7,3468.6,681.5,786.9,2022.4,1039.2,1086.8,857.9,-3.0,-8.0,-12.0,6584.0,-6116.0,10031.0,-9331.0,-20.0,16.0,-6.0,-4.0,-3.0,6.0,8046.0,-10535.0,-7421.0,6136.0,-17.0,0.0,-7.0,1.0
2022-05-23 14:57:08.147203-07:00,1233.7,788.6,1049.6,944.9,958.5,1007.3,1785.8,1321.4,3468.6,3468.6,1086.8,847.8,1609.6,3474.6,1317.8,1222.2,3467.4,3466.1,1615.2,2255.9,2711.7,3495.3,1593.6,3485.6,3469.8,3468.6,681.5,786.9,2006.4,1034.0,1088.6,857.9,-10.0,-10.0,-8.0,6579.0,-6108.0,10027.0,-9343.0,66.0,34.0,-6.0,-1.0,-4.0,13.0,8054.0,-10529.0,-7416.0,6141.0,44.0,-1.0,-1.0,1.0
2022-05-23 14:57:08.206553-07:00,1236.4,788.6,1049.6,944.9,950.0,1011.6,1800.3,1321.4,3464.9,3468.6,1086.8,847.8,1604.9,3478.3,1302.5,1222.2,3467.4,3477.1,1608.7,2259.0,2711.7,3495.3,1593.6,3480.7,3469.8,3477.1,675.0,776.9,2006.4,1034.0,1088.6,854.5,5.0,5.0,-9.0,6579.0,-6093.0,10017.0,-9364.0,42.0,25.0,-30.0,0.0,-2.0,2.0,8062.0,-10523.0,-7411.0,6146.0,7.0,9.0,-9.0,1.0
2022-05-23 14:57:08.237504-07:00,1236.4,782.7,1049.6,939.8,950.0,1011.6,1800.3,1323.2,3464.9,3466.1,1085.1,844.4,1604.9,3478.3,1302.5,1225.7,3468.6,3477.1,1608.7,2259.0,2715.0,3488.0,1599.3,3480.7,3461.3,3477.1,675.0,776.9,2014.4,1029.7,1082.5,854.5,-21.0,-9.0,-9.0,6549.0,-6084.0,10000.0,-9409.0,77.0,117.0,-118.0,-2.0,3.0,16.0,8068.0,-10517.0,-7414.0,6145.0,-1.0,0.0,-15.0,1.0
2022-05-23 14:57:08.327007-07:00,1231.9,779.4,1049.6,939.8,955.1,1012.5,1784.9,1323.2,3460.1,3463.7,1085.1,844.4,1596.4,3466.1,1308.8,1225.7,3468.6,3472.2,1612.4,2261.0,2715.0,3488.0,1590.8,3480.7,3461.3,3478.3,669.3,795.2,2014.4,1029.7,1077.3,857.9,-7.0,-17.0,-14.0,6524.0,-6082.0,9993.0,-9435.0,7.0,15.0,-9.0,-4.0,-3.0,2.0,8070.0,-10517.0,-7412.0,6145.0,-9.0,2.0,5.0,1.0
2022-05-23 14:57:08.356862-07:00,1231.9,779.4,1059.9,938.1,955.1,1012.5,1795.5,1314.2,3460.1,3463.7,1091.2,852.0,1596.4,3466.1,1307.0,1216.8,3469.8,3468.6,1612.4,2261.0,2715.0,3495.3,1590.8,3480.7,3468.6,3478.3,669.3,795.2,2014.4,1032.3,1077.3,857.9,-2.0,3.0,-23.0,6521.0,-6074.0,9994.0,-9441.0,44.0,16.0,-17.0,-1.0,3.0,3.0,8073.0,-10515.0,-7410.0,6147.0,15.0,-5.0,-7.0,1.0
2022-05-23 14:57:08.386973-07:00,1231.9,788.6,1059.9,938.1,947.5,1013.3,1795.5,1314.2,3457.6,3467.4,1091.2,852.0,1609.6,3471.0,1307.0,1216.8,3469.8,3468.6,1618.1,2253.8,2715.0,3495.3,1590.8,3483.2,3468.6,3478.3,676.6,786.9,2014.4,1032.3,1072.9,845.3,-11.0,-10.0,-15.0,6518.0,-6075.0,9978.0,-9460.0,56.0,5.0,-41.0,-7.0,-6.0,11.0,8082.0,-10505.0,-7413.0,6149.0,33.0,-7.0,-22.0,1.0
2022-05-23 14:57:08.447247-07:00,1231.9,788.6,1041.8,940.7,947.5,1013.3,1777.2,1317.8,3457.6,3467.4,1088.6,847.8,1609.6,3471.0,1298.1,1212.4,3466.1,3471.0,1618.1,2253.8,2717.2,3491.7,1590.8,3483.2,3472.2,3464.9,676.6,786.9,2014.4,1035.7,1072.9,845.3,-12.0,-3.0,-12.0,6521.0,-6079.0,9960.0,-9474.0,29.0,-23.0,-34.0,-8.0,-2.0,9.0,8088.0,-10498.0,-7413.0,6153.0,-9.0,-12.0,-12.0,1.0
2022-05-23 14:57:08.506786-07:00,1235.5,780.3,1041.8,940.7,948.3,1004.8,1777.2,1317.8,3462.5,3471.0,1088.6,847.8,1596.4,3462.5,1298.1,1212.4,3466.1,3471.0,1614.3,2249.7,2717.2,3491.7,1599.3,3488.0,3472.2,3464.9,677.4,785.2,2014.4,1035.7,1084.2,862.1,15.0,16.0,1.0,6505.0,-6085.0,9947.0,-9495.0,39.0,75.0,-90.0,7.0,8.0,0.0,8085.0,-10499.0,-7420.0,6147.0,-52.0,-6.0,-27.0,1.0
2022-05-23 14:57:08.536988-07:00,1235.5,780.3,1065.1,949.2,948.3,1005.6,1785.8,1333.2,3462.5,3471.0,1087.7,847.8,1596.4,3462.5,1309.7,1219.5,3474.6,3469.8,1611.5,2249.7,2709.5,3481.9,1599.3,3488.0,3474.6,3473.4,676.6,785.2,2015.4,1049.6,1084.2,862.1,-5.0,-63.0,6.0,6434.0,-6106.0,9965.0,-9511.0,-83.0,37.0,-96.0,7.0,-22.0,22.0,8062.0,-10514.0,-7440.0,6126.0,-23.0,8.0,12.0,1.0
2022-05-23 14:57:08.597740-07:00,1235.5,786.9,1051.3,949.2,943.2,1005.6,1785.8,1333.2,3463.7,3466.1,1086.0,847.8,1616.2,3462.5,1309.7,1219.5,3474.6,3469.8,1611.5,2271.4,2709.5,3485.6,1596.4,3486.8,3474.6,3473.4,676.6,789.4,2015.4,1052.2,1092.1,856.2,5.0,7.0,-20.0,6440.0,-6086.0,9957.0,-9528.0,63.0,35.0,67.0,8.0,10.0,9.0,8075.0,-10508.0,-7425.0,6139.0,27.0,3.0,24.0,1.0
2022-05-23 14:57:08.656965-07:00,1235.5,786.9,1051.3,956.0,943.2,1002.2,1775.2,1315.1,3463.7,3466.1,1086.0,858.7,1616.2,3469.8,1315.1,1222.2,3472.2,3464.9,1616.2,2271.4,2749.1,3485.6,1596.4,3486.8,3464.9,3472.2,670.9,789.4,2011.4,1052.2,1092.1,856.2,-4.0,1.0,-10.0,6440.0,-6074.0,9977.0,-9515.0,-48.0,27.0,13.0,5.0,-2.0,10.0,8068.0,-10515.0,-7423.0,6138.0,-28.0,15.0,0.0,1.0
2022-05-23 14:57:08.687075-07:00,1234.6,795.2,1064.3,956.0,944.1,1002.2,1775.2,1315.1,3468.6,3461.3,1093.8,858.7,1605.8,3469.8,1315.1,1222.2,3472.2,3464.9,1616.2,2251.7,2749.1,3481.9,1588.9,3491.7,3464.9,3472.2,670.9,787.7,2011.4,1052.2,1086.0,853.7,-12.0,-9.0,-7.0,6430.0,-6074.0,9974.0,-9524.0,37.0,27.0,-41.0,-17.0,0.0,0.0,8070.0,-10521.0,-7418.0,6131.0,-3.0,30.0,-4.0,1.0
2022-05-23 14:57:08.746993-07:00,1234.6,795.2,1064.3,953.4,944.1,1004.8,1768.5,1297.2,3468.6,3461.3,1093.8,857.9,1605.8,3466.1,1308.8,1227.5,3472.2,3473.4,1619.9,2251.7,2719.4,3481.9,1588.9,3491.7,3475.9,3467.4,671.7,787.7,2004.5,1052.2,1086.0,853.7,-27.0,-8.0,-19.0,6412.0,-6059.0,9989.0,-9531.0,-55.0,73.0,20.0,-16.0,-3.0,12.0,8070.0,-10530.0,-7411.0,6124.0,-65.0,26.0,7.0,1.0
2022-05-23 14:57:08.806843-07:00,1245.3,789.4,1063.4,953.4,945.8,1004.8,1768.5,1297.2,3464.9,3462.5,1090.3,857.9,1612.4,3466.1,1308.8,1227.5,3472.2,3473.4,1619.9,2259.0,2719.4,3491.7,1588.9,3486.8,3475.9,3467.4,671.7,781.1,2004.5,1049.6,1074.7,856.2,-6.0,-12.0,-25.0,6399.0,-6049.0,10017.0,-9516.0,12.0,23.0,2.0,-6.0,-10.0,-3.0,8061.0,-10545.0,-7409.0,6114.0,15.0,11.0,17.0,1.0
2022-05-23 14:57:08.837074-07:00,1245.3,789.4,1063.4,953.4,956.8,1012.5,1780.1,1317.8,3464.9,3462.5,1090.3,851.1,1606.8,3464.9,1307.9,1222.2,3468.6,3472.2,1612.4,2253.8,2712.8,3491.7,1588.9,3486.8,3471.0,3464.9,673.3,787.7,1990.5,1049.6,1074.7,856.2,-2.0,-19.0,-29.0,6402.0,-6045.0,10017.0,-9517.0,17.0,-13.0,27.0,-4.0,2.0,-5.0,8063.0,-10544.0,-7399.0,6125.0,13.0,-34.0,33.0,1.0
2022-05-23 14:57:08.897007-07:00,1239.1,780.3,1053.0,957.7,956.8,1012.5,1780.1,1317.8,3467.4,3464.9,1088.6,858.7,1606.8,3464.9,1307.9,1222.2,3468.6,3472.2,1612.4,2253.8,2712.8,3486.8,1590.8,3492.9,3471.0,3464.9,673.3,787.7,1988.5,1031.4,1079.0,861.2,1.0,14.0,-9.0,6423.0,-6033.0,10028.0,-9499.0,23.0,-31.0,69.0,8.0,4.0,9.0,8056.0,-10540.0,-7395.0,6145.0,33.0,-38.0,22.0,1.0
2022-05-23 14:57:08.956895-07:00,1239.1,780.3,1053.0,957.7,951.7,997.0,1755.0,1300.7,3467.4,3464.9,1088.6,858.7,1608.7,3458.9,1304.3,1223.9,3468.6,3473.4,1612.4,2254.8,2712.8,3486.8,1590.8,3492.9,3469.8,3473.4,670.9,782.7,1988.5,1031.4,1079.0,861.2,15.0,2.0,-3.0,6446.0,-6040.0,10002.0,-9506.0,60.0,-62.0,-56.0,9.0,1.0,5.0,8068.0,-10522.0,-7395.0,6161.0,35.0,-24.0,-28.0,1.0
2022-05-23 14:57:08.987004-07:00,1244.4,781.9,1056.5,958.5,951.7,997.0,1755.0,1300.7,3468.6,3469.8,1093.8,851.1,1608.7,3458.9,1304.3,1223.9,3468.6,3473.4,1612.4,2254.8,2709.5,3489.2,1597.4,3486.8,3469.8,3473.4,670.9,782.7,1990.5,1041.8,1076.4,851.1,-15.0,-21.0,-1.0,6451.0,-6050.0,9977.0,-9522.0,50.0,-20.0,-8.0,2.0,-7.0,27.0,8079.0,-10503.0,-7403.0,6169.0,42.0,-28.0,-22.0,1.0
2022-05-23 14:57:09.047006-07:00,1244.4,781.9,1056.5,958.5,954.3,998.7,1759.8,1303.4,3468.6,3469.8,1093.8,851.1,1603.0,3457.6,1307.0,1223.9,3479.5,3466.1,1604.0,2248.7,2709.5,3489.2,1597.4,3486.8,3473.4,3462.5,669.3,791.9,1990.5,1041.8,1076.4,851.1,-1.0,-1.0,4.0,6470.0,-6041.0,9959.0,-9535.0,77.0,5.0,6.0,2.0,0.0,13.0,8094.0,-10485.0,-7399.0,6184.0,60.0,-7.0,-9.0,1.0
2022-05-23 14:57:09.077076-07:00,1242.6,780.3,1058.2,955.1,954.3,998.7,1759.8,1305.2,3467.4,3466.1,1093.8,859.5,1603.0,3457.6,1307.0,1223.9,3472.2,3466.1,1604.0,2248.7,2713.9,3490.5,1595.5,3485.6,3471.0,3462.5,669.3,791.9,1989.5,1040.1,1075.6,854.5,-7.0,-5.0,-4.0,6465.0,-6018.0,9953.0,-9558.0,33.0,75.0,-1.0,0.0,2.0,13.0,8106.0,-10481.0,-7391.0,6185.0,4.0,26.0,-8.0,1.0
2022-05-23 14:57:09.166888-07:00,1224.8,780.3,1058.2,955.1,942.4,998.7,1777.2,1305.2,3468.6,3466.1,1093.8,859.5,1599.3,3478.3,1307.0,1223.9,3472.2,3478.3,1610.5,2243.5,2713.9,3490.5,1595.5,3484.4,3471.0,3483.2,670.9,780.3,1989.5,1040.1,1075.6,852.8,-14.0,-10.0,-22.0,6456.0,-6001.0,9960.0,-9567.0,41.0,18.0,5.0,-12.0,0.0,3.0,8112.0,-10485.0,-7384.0,6178.0,17.0,28.0,9.0,1.0
2022-05-23 14:57:09.197016-07:00,1224.8,779.4,1049.6,946.6,942.4,998.7,1777.2,1313.3,3468.6,3475.9,1091.2,859.5,1599.3,3478.3,1307.0,1221.3,3469.8,3478.3,1610.5,2243.5,2706.2,3494.1,1587.1,3484.4,3469.8,3483.2,670.9,780.3,1989.5,1041.8,1077.3,852.8,-5.0,-5.0,-24.0,6454.0,-5992.0,9963.0,-9573.0,15.0,30.0,0.0,-10.0,-1.0,-4.0,8120.0,-10487.0,-7375.0,6175.0,5.0,20.0,1.0,1.0
2022-05-23 14:57:09.226955-07:00,1226.6,779.4,1049.6,946.6,934.7,992.7,1781.0,1313.3,3471.0,3475.9,1091.2,859.5,1608.7,3468.6,1306.1,1221.3,3469.8,3471.0,1612.4,2249.7,2706.2,3494.1,1587.1,3494.1,3469.8,3478.3,670.1,781.1,1989.5,1041.8,1077.3,853.7,-9.0,0.0,-23.0,6451.0,-5983.0,9966.0,-9576.0,25.0,-2.0,-12.0,-10.0,3.0,0.0,8125.0,-10487.0,-7370.0,6174.0,11.0,13.0,-3.0,1.0
2022-05-23 14:57:09.287207-07:00,1226.6,780.3,1058.2,949.2,934.7,992.7,1781.0,1313.3,3471.0,3472.2,1093.8,858.7,1608.7,3468.6,1306.1,1218.6,3466.1,3471.0,1612.4,2249.7,2708.4,3486.8,1584.2,3494.1,3468.6,3478.3,670.1,781.1,1984.6,1035.7,1071.2,853.7,8.0,-10.0,-10.0,6447.0,-5988.0,9966.0,-9576.0,13.0,4.0,-11.0,4.0,2.0,3.0,8126.0,-10486.0,-7371.0,6172.0,3.0,5.0,-13.0,1.0
2022-05-23 14:57:09.347011-07:00,1234.6,780.3,1058.2,949.2,944.9,997.9,1759.8,1313.3,3460.1,3472.2,1093.8,858.7,1596.4,3468.6,1299.0,1218.6,3466.1,3471.0,1609.6,2252.8,2708.4,3486.8,1584.2,3485.6,3468.6,3468.6,665.2,785.2,1984.6,1035.7,1071.2,859.5,-15.0,-23.0,-3.0,6445.0,-5974.0,9961.0,-9591.0,43.0,33.0,-3.0,1.0,-6.0,20.0,8135.0,-10477.0,-7372.0,6177.0,26.0,-17.0,-3.0,1.0
2022-05-23 14:57:09.377111-07:00,1234.6,774.5,1059.9,949.2,944.9,997.9,1772.3,1308.8,3460.1,3467.4,1086.0,858.7,1596.4,3468.6,1310.6,1216.8,3457.6,3466.1,1609.6,2252.8,2707.3,3483.2,1585.2,3485.6,3473.4,3475.9,665.2,785.2,1985.6,1046.1,1073.8,859.5,7.0,-7.0,0.0,6455.0,-5961.0,9953.0,-9601.0,41.0,13.0,32.0,8.0,2.0,12.0,8140.0,-10467.0,-7366.0,6195.0,29.0,-28.0,26.0,1.0
2022-05-23 14:57:09.438336-07:00,1231.0,778.6,1059.9,949.2,942.4,1000.5,1772.3,1308.8,3463.7,3471.0,1086.0,858.7,1606.8,3471.0,1310.6,1216.8,3457.6,3466.1,1606.8,2245.6,2707.3,3483.2,1587.1,3489.2,3473.4,3475.9,674.2,787.7,1985.6,1046.1,1086.8,848.6,-5.0,16.0,-8.0,6457.0,-5936.0,9952.0,-9616.0,43.0,51.0,1.0,0.0,5.0,6.0,8144.0,-10459.0,-7361.0,6208.0,16.0,-9.0,6.0,1.0
2022-05-23 14:57:09.497097-07:00,1231.0,778.6,1072.1,960.2,942.4,1000.5,1780.1,1331.4,3463.7,3471.0,1097.3,858.7,1606.8,3471.0,1325.0,1221.3,3478.3,3471.0,1606.8,2245.6,2712.8,3496.6,1587.1,3489.2,3477.1,3467.4,674.2,787.7,1987.5,1059.1,1086.8,848.6,-17.0,-10.0,-10.0,6438.0,-5937.0,9958.0,-9622.0,-21.0,33.0,-43.0,-19.0,2.0,3.0,8139.0,-10464.0,-7364.0,6202.0,-32.0,14.0,-15.0,1.0
2022-05-23 14:57:09.526998-07:00,1243.5,777.8,1072.1,960.2,950.9,998.7,1780.1,1331.4,3462.5,3473.4,1097.3,858.7,1604.9,3467.4,1325.0,1221.3,3478.3,3471.0,1610.5,2251.7,2712.8,3496.6,1587.1,3488.0,3477.1,3467.4,666.8,792.7,1987.5,1059.1,1105.1,845.3,-33.0,-84.0,62.0,6416.0,-5935.0,9964.0,-9632.0,-2.0,86.0,-20.0,-21.0,-16.0,3.0,8142.0,-10467.0,-7358.0,6200.0,32.0,15.0,17.0,1.0
2022-05-23 14:57:09.586899-07:00,1243.5,777.8,1072.1,969.6,950.9,998.7,1796.5,1334.1,3462.5,3473.4,1099.9,860.4,1604.9,3467.4,1358.5,1234.6,3463.7,3467.4,1610.5,2251.7,2711.7,3477.1,1587.1,3488.0,3469.8,3475.9,666.8,792.7,1980.6,1079.9,1105.1,845.3,-15.0,-11.0,-28.0,6419.0,-5841.0,10000.0,-9650.0,78.0,13.0,236.0,-5.0,7.0,-4.0,8163.0,-10460.0,-7309.0,6242.0,107.0,-26.0,105.0,1.0
2022-05-23 14:57:09.647073-07:00,1239.1,769.5,1095.6,969.6,948.3,1015.1,1796.5,1334.1,3469.8,3473.4,1127.0,860.4,1604.0,3463.7,1358.5,1234.6,3463.7,3467.4,1614.3,2259.0,2711.7,3491.7,1587.1,3484.4,3469.8,3475.9,679.9,789.4,1980.6,1224.8,1373.0,861.2,-105.0,-6.0,-131.0,6445.0,-5752.0,10086.0,-9596.0,-116.0,169.0,355.0,-2.0,-18.0,45.0,8125.0,-10477.0,-7289.0,6287.0,41.0,-52.0,113.0,1.0
2022-05-23 14:57:09.677043-07:00,1239.1,769.5,1095.6,986.7,948.3,1028.8,1818.7,1357.6,3469.8,3473.4,1127.0,858.7,1604.0,3461.3,1548.7,1281.9,3469.8,3462.5,1604.0,2259.0,2709.5,3491.7,1587.1,3484.4,3472.2,3463.7,684.8,789.4,1996.5,1224.8,1373.0,861.2,162.0,82.0,-114.0,6725.0,-5791.0,10090.0,-9374.0,194.0,-1135.0,492.0,-19.0,71.0,-52.0,8110.0,-10478.0,-7253.0,6346.0,259.0,-58.0,130.0,1.0
2022-05-23 14:57:09.736937-07:00,1243.5,787.7,1154.2,986.7,943.2,1028.8,1818.7,1357.6,3471.0,3461.3,1113.9,858.7,1604.0,3461.3,1548.7,1281.9,3469.8,3462.5,1604.0,2262.1,2709.5,3483.2,1594.6,3488.0,3472.2,3463.7,684.8,800.2,1996.5,1125.2,1309.7,880.6,-18.0,-8.0,47.0,6968.0,-5871.0,9912.0,-9337.0,192.0,-181.0,-61.0,-26.0,17.0,-42.0,8180.0,-10367.0,-7250.0,6441.0,219.0,-202.0,-104.0,1.0
2022-05-23 14:57:09.797111-07:00,1243.5,787.7,1154.2,1014.2,943.2,1011.6,1826.5,1339.5,3471.0,3461.3,1113.9,853.7,1604.0,3469.8,1595.5,1322.3,3478.3,3478.3,1611.5,2262.1,2721.6,3483.2,1594.6,3488.0,3474.6,3467.4,684.0,800.2,2130.1,1125.2,1309.7,880.6,-15.0,1.0,56.0,6994.0,-5905.0,9878.0,-9332.0,71.0,-287.0,38.0,-4.0,-6.0,74.0,8185.0,-10328.0,-7264.0,6482.0,84.0,-16.0,35.0,1.0
2022-05-23 14:57:09.827023-07:00,1242.6,778.6,1145.4,1014.2,934.7,1011.6,1826.5,1339.5,3473.4,3460.1,1108.6,853.7,1603.0,3469.8,1595.5,1322.3,3478.3,3478.3,1611.5,2259.0,2721.6,3488.0,1596.4,3483.2,3474.6,3467.4,684.0,801.0,2130.1,1101.7,1272.1,870.5,40.0,59.0,23.0,7070.0,-5935.0,9797.0,-9341.0,136.0,-74.0,-115.0,9.0,21.0,-3.0,8206.0,-10318.0,-7250.0,6486.0,5.0,24.0,-42.0,1.0
2022-05-23 14:57:09.887372-07:00,1242.6,778.6,1145.4,1025.4,934.7,997.0,1819.7,1318.7,3473.4,3460.1,1108.6,855.3,1596.4,3467.4,1571.1,1316.9,3473.4,3467.4,1603.0,2262.1,2721.6,3488.0,1596.4,3483.2,3467.4,3468.6,675.8,786.1,2058.4,1101.7,1272.1,870.5,-16.0,-21.0,-5.0,7007.0,-5988.0,9784.0,-9367.0,-98.0,-10.0,-193.0,5.0,-12.0,38.0,8196.0,-10333.0,-7274.0,6449.0,-114.0,51.0,-44.0,1.0
2022-05-23 14:57:09.946982-07:00,1242.6,781.1,1140.1,1021.1,934.7,997.0,1819.7,1318.7,3472.2,3464.9,1106.0,852.0,1596.4,3467.4,1571.1,1316.9,3473.4,3467.4,1603.0,2262.1,2701.8,3492.9,1589.9,3489.2,3467.4,3468.6,675.8,786.1,2054.4,1090.3,1267.6,872.1,15.0,-11.0,-6.0,6986.0,-6040.0,9752.0,-9383.0,46.0,-3.0,-131.0,-4.0,4.0,-19.0,8201.0,-10342.0,-7284.0,6416.0,-15.0,37.0,-54.0,1.0
2022-05-23 14:57:09.977199-07:00,1242.6,781.1,1140.1,1021.1,932.2,997.9,1803.2,1325.0,3472.2,3464.9,1106.0,852.0,1606.8,3472.2,1552.5,1317.8,3467.4,3478.3,1604.0,2259.0,2701.8,3492.9,1589.9,3489.2,3466.1,3474.6,681.5,789.4,2054.4,1090.3,1267.6,872.1,-23.0,-37.0,-19.0,6940.0,-6043.0,9755.0,-9412.0,-49.0,83.0,-53.0,-5.0,-14.0,16.0,8195.0,-10351.0,-7293.0,6399.0,-58.0,13.0,10.0,1.0
2022-05-23 14:57:10.037427-07:00,1231.0,781.1,1157.7,1034.0,932.2,997.9,1803.2,1325.0,3478.3,3462.5,1113.9,852.8,1606.8,3472.2,1552.5,1317.8,3467.4,3478.3,1604.0,2259.0,2709.5,3478.3,1584.2,3477.1,3466.1,3474.6,681.5,789.4,2039.4,1105.1,1263.1,874.7,7.0,9.0,-25.0,6930.0,-6043.0,9770.0,-9404.0,-12.0,1.0,22.0,4.0,6.0,-5.0,8184.0,-10362.0,-7292.0,6396.0,-17.0,-1.0,12.0,1.0
2022-05-23 14:57:10.097146-07:00,1231.0,781.1,1157.7,1034.0,949.2,1013.3,1813.9,1338.6,3478.3,3462.5,1113.9,852.8,1606.8,3462.5,1544.1,1315.1,3464.9,3472.2,1600.2,2268.3,2709.5,3478.3,1584.2,3477.1,3467.4,3467.4,681.5,785.2,2039.4,1105.1,1263.1,874.7,-1.0,0.0,-16.0,6929.0,-6046.0,9766.0,-9407.0,8.0,-13.0,-40.0,0.0,2.0,0.0,8184.0,-10361.0,-7296.0,6394.0,-9.0,-9.0,-36.0,1.0
2022-05-23 14:57:10.156951-07:00,1234.6,776.9,1146.3,1040.9,949.2,1013.3,1813.9,1338.6,3469.8,3471.0,1102.5,843.6,1606.8,3462.5,1544.1,1315.1,3464.9,3472.2,1600.2,2268.3,2718.3,3488.0,1601.1,3483.2,3467.4,3467.4,681.5,785.2,2062.5,1090.3,1259.6,871.3,-10.0,-13.0,3.0,6932.0,-6059.0,9749.0,-9414.0,67.0,-42.0,-24.0,-4.0,-6.0,9.0,8193.0,-10346.0,-7307.0,6393.0,52.0,-22.0,-41.0,1.0
2022-05-23 14:57:10.217036-07:00,1231.0,776.9,1146.3,1040.9,944.9,998.7,1822.6,1340.4,3464.9,3471.0,1102.5,843.6,1601.1,3468.6,1536.6,1317.8,3479.5,3469.8,1606.8,2269.3,2718.3,3488.0,1601.1,3495.3,3471.0,3474.6,675.8,791.0,2062.5,1090.3,1259.6,871.3,-27.0,-25.0,12.0,6935.0,-6053.0,9742.0,-9423.0,-8.0,45.0,7.0,-10.0,-10.0,24.0,8205.0,-10328.0,-7309.0,6406.0,19.0,-13.0,6.0,1.0
2022-05-23 14:57:10.246947-07:00,1231.0,781.9,1157.7,1024.5,944.9,998.7,1822.6,1343.1,3464.9,3472.2,1105.1,855.3,1601.1,3468.6,1536.6,1313.3,3466.1,3469.8,1606.8,2269.3,2707.3,3486.8,1589.9,3495.3,3478.3,3474.6,675.8,791.0,2046.4,1092.1,1259.6,871.3,21.0,20.0,-14.0,6947.0,-6039.0,9740.0,-9425.0,18.0,-21.0,18.0,3.0,11.0,-9.0,8213.0,-10326.0,-7297.0,6412.0,-19.0,21.0,3.0,1.0
2022-05-23 14:57:10.276996-07:00,1235.5,781.9,1157.7,1024.5,934.7,990.2,1808.1,1343.1,3471.0,3472.2,1105.1,855.3,1600.2,3462.5,1535.7,1313.3,3466.1,3472.2,1600.2,2266.2,2707.3,3486.8,1589.9,3481.9,3478.3,3473.4,666.0,768.7,2046.4,1092.1,1259.6,877.2,-4.0,-16.0,-11.0,6934.0,-6040.0,9745.0,-9429.0,4.0,38.0,-20.0,-1.0,0.0,5.0,8211.0,-10329.0,-7304.0,6401.0,13.0,5.0,-31.0,1.0
2022-05-23 14:57:10.337015-07:00,1235.5,772.0,1137.5,1028.0,934.7,990.2,1808.1,1324.1,3471.0,3471.0,1106.0,853.7,1600.2,3462.5,1535.7,1314.2,3474.6,3472.2,1600.2,2266.2,2705.1,3490.5,1585.2,3481.9,3475.9,3473.4,666.0,768.7,2024.4,1082.5,1252.4,877.2,-18.0,-9.0,-9.0,6926.0,-6024.0,9743.0,-9447.0,37.0,40.0,-13.0,-10.0,0.0,15.0,8226.0,-10315.0,-7307.0,6401.0,25.0,-1.0,-28.0,1.0
2022-05-23 14:57:10.397046-07:00,1234.6,772.0,1137.5,1028.0,955.1,1003.9,1803.2,1324.1,3469.8,3471.0,1106.0,853.7,1605.8,3462.5,1532.9,1314.2,3474.6,3478.3,1604.0,2262.1,2705.1,3490.5,1585.2,3485.6,3475.9,3473.4,676.6,781.1,2024.4,1082.5,1252.4,871.3,-17.0,-13.0,-20.0,6922.0,-6011.0,9746.0,-9455.0,23.0,25.0,-1.0,-10.0,-2.0,5.0,8232.0,-10310.0,-7305.0,6404.0,-1.0,-4.0,10.0,1.0
2022-05-23 14:57:10.427196-07:00,1234.6,782.7,1155.0,1028.8,955.1,1003.9,1822.6,1342.2,3469.8,3469.8,1104.3,847.8,1605.8,3462.5,1532.0,1308.8,3467.4,3467.4,1604.0,2262.1,2710.6,3484.4,1598.3,3485.6,3477.1,3472.2,676.6,781.1,2001.5,1093.8,1245.3,871.3,1.0,1.0,-27.0,6924.0,-6003.0,9754.0,-9450.0,3.0,15.0,24.0,5.0,1.0,1.0,8228.0,-10311.0,-7302.0,6410.0,3.0,-33.0,10.0,1.0
2022-05-23 14:57:10.487252-07:00,1231.9,773.6,1155.0,1028.8,940.7,990.2,1822.6,1342.2,3464.9,3468.6,1104.3,847.8,1611.5,3475.9,1532.0,1308.8,3467.4,3467.4,1604.9,2264.1,2710.6,3484.4,1586.1,3481.9,3477.1,3472.2,677.4,785.2,2001.5,1093.8,1245.3,873.8,0.0,-8.0,-13.0,6925.0,-6012.0,9760.0,-9439.0,-26.0,-35.0,2.0,5.0,-2.0,4.0,8218.0,-10306.0,-7313.0,6419.0,-13.0,-51.0,-13.0,1.0
2022-05-23 14:57:10.576954-07:00,1231.9,773.6,1159.4,1031.4,940.7,990.2,1802.3,1326.8,3464.9,3468.6,1099.9,853.7,1611.5,3475.9,1534.8,1308.8,3462.5,3475.9,1604.9,2264.1,2717.2,3488.0,1586.1,3481.9,3469.8,3472.2,677.4,785.2,1998.5,1084.2,1245.3,873.8,1.0,4.0,2.0,6939.0,-6023.0,9747.0,-9434.0,36.0,-56.0,-19.0,4.0,1.0,9.0,8216.0,-10289.0,-7329.0,6430.0,29.0,-42.0,-33.0,1.0
2022-05-23 14:57:10.578350-07:00,1224.8,771.1,1159.4,1031.4,941.5,984.2,1802.3,1326.8,3464.9,3468.6,1099.9,853.7,1617.1,3468.6,1534.8,1308.8,3462.5,3475.9,1595.5,2245.6,2717.2,3488.0,1581.4,3488.0,3469.8,3472.2,679.1,782.7,1998.5,1084.2,1239.1,874.7,-20.0,-34.0,9.0,6943.0,-6036.0,9731.0,-9439.0,12.0,-26.0,-21.0,-5.0,-13.0,21.0,8219.0,-10275.0,-7341.0,6437.0,2.0,-21.0,-13.0,1.0
2022-05-23 14:57:10.666893-07:00,1224.8,771.1,1155.0,1027.1,941.5,984.2,1807.1,1321.4,3464.9,3468.6,1100.8,854.5,1617.1,3468.6,1527.3,1307.0,3466.1,3468.6,1595.5,2245.6,2709.5,3481.9,1581.4,3488.0,3468.6,3480.7,679.1,782.7,1986.6,1085.1,1239.1,874.7,1.0,0.0,-1.0,6953.0,-6032.0,9733.0,-9433.0,-27.0,4.0,38.0,3.0,2.0,6.0,8215.0,-10277.0,-7335.0,6443.0,-21.0,-1.0,33.0,1.0
2022-05-23 14:57:10.697016-07:00,1233.7,778.6,1155.0,1027.1,939.0,990.2,1807.1,1321.4,3467.4,3468.6,1100.8,854.5,1601.1,3467.4,1527.3,1307.0,3466.1,3468.6,1633.1,2266.2,2709.5,3481.9,1589.9,3485.6,3468.6,3480.7,671.7,781.1,1986.6,1085.1,1237.3,868.8,3.0,-1.0,-12.0,6946.0,-6027.0,9745.0,-9429.0,-4.0,17.0,-5.0,11.0,0.0,8.0,8205.0,-10286.0,-7335.0,6442.0,-17.0,5.0,10.0,1.0
2022-05-23 14:57:10.727146-07:00,1233.7,778.6,1146.3,1028.0,939.0,998.7,1798.4,1337.7,3467.4,3468.6,1100.8,856.2,1601.1,3466.1,1538.5,1306.1,3474.6,3467.4,1600.2,2266.2,2719.4,3491.7,1589.9,3485.6,3477.1,3468.6,672.5,781.1,1982.6,1079.9,1237.3,868.8,1.0,-13.0,-3.0,6943.0,-6030.0,9743.0,-9431.0,-6.0,3.0,-8.0,0.0,-2.0,3.0,8202.0,-10290.0,-7337.0,6438.0,-21.0,11.0,-2.0,1.0
2022-05-23 14:57:10.816913-07:00,1231.9,781.1,1158.6,1028.0,948.3,998.7,1798.4,1337.7,3467.4,3467.4,1102.5,856.2,1602.1,3466.1,1538.5,1306.1,3474.6,3467.4,1600.2,2262.1,2719.4,3497.8,1584.2,3491.7,3477.1,3468.6,672.5,785.2,1982.6,1079.0,1248.0,872.1,-20.0,-11.0,-5.0,6935.0,-6019.0,9748.0,-9439.0,13.0,49.0,7.0,-14.0,-4.0,12.0,8203.0,-10292.0,-7334.0,6437.0,5.0,16.0,17.0,1.0
2022-05-23 14:57:10.846908-07:00,1231.9,781.1,1158.6,1025.4,948.3,985.0,1786.8,1324.1,3467.4,3467.4,1102.5,850.3,1602.1,3468.6,1533.8,1306.1,3475.9,3471.0,1596.4,2262.1,2705.1,3497.8,1584.2,3491.7,3467.4,3469.8,674.2,785.2,1977.6,1079.0,1248.0,872.1,-13.0,-1.0,-20.0,6924.0,-5998.0,9770.0,-9437.0,-25.0,66.0,35.0,-10.0,1.0,5.0,8197.0,-10305.0,-7320.0,6440.0,-22.0,19.0,41.0,1.0
2022-05-23 14:57:10.876981-07:00,1239.1,771.1,1150.6,1025.4,936.4,985.0,1786.8,1324.1,3468.6,3461.3,1105.1,850.3,1601.1,3468.6,1533.8,1306.1,3475.9,3471.0,1596.4,2265.2,2705.1,3480.7,1583.3,3486.8,3467.4,3469.8,674.2,781.1,1977.6,1079.0,1253.3,871.3,3.0,11.0,-27.0,6915.0,-5988.0,9788.0,-9432.0,-1.0,9.0,-5.0,1.0,7.0,-5.0,8191.0,-10315.0,-7312.0,6441.0,-6.0,3.0,15.0,1.0
2022-05-23 14:57:10.936791-07:00,1239.1,771.1,1150.6,1021.1,936.4,985.0,1803.2,1332.3,3468.6,3461.3,1105.1,850.3,1601.1,3456.4,1518.0,1310.6,3480.7,3469.8,1601.1,2265.2,2708.4,3480.7,1583.3,3486.8,3477.1,3471.0,673.3,781.1,1972.7,1079.0,1253.3,871.3,-2.0,-4.0,-6.0,6907.0,-5996.0,9789.0,-9432.0,1.0,8.0,-22.0,7.0,0.0,6.0,8187.0,-10314.0,-7317.0,6441.0,-8.0,-14.0,-14.0,1.0
2022-05-23 14:57:10.996945-07:00,1223.9,775.3,1153.3,1035.7,941.5,985.0,1803.2,1332.3,3472.2,3460.1,1112.1,847.8,1604.9,3456.4,1518.0,1310.6,3480.7,3469.8,1601.1,2278.6,2702.9,3490.5,1583.3,3494.1,3477.1,3471.0,673.3,781.9,1973.7,1102.5,1243.5,868.8,-4.0,-8.0,5.0,6902.0,-6001.0,9779.0,-9442.0,31.0,4.0,-44.0,-5.0,0.0,7.0,8192.0,-10308.0,-7322.0,6439.0,14.0,8.0,-17.0,1.0
2022-05-23 14:57:11.026973-07:00,1223.9,775.3,1153.3,1035.7,937.3,982.5,1803.2,1324.1,3472.2,3460.1,1112.1,847.8,1596.4,3468.6,1528.3,1307.0,3474.6,3467.4,1607.7,2259.0,2702.9,3490.5,1583.3,3494.1,3473.4,3477.1,668.4,776.9,1973.7,1102.5,1243.5,868.8,-25.0,-21.0,-8.0,6884.0,-5996.0,9779.0,-9458.0,-21.0,51.0,-14.0,-10.0,-9.0,14.0,8197.0,-10308.0,-7319.0,6436.0,-8.0,14.0,1.0,1.0
2022-05-23 14:57:11.086886-07:00,1227.5,781.1,1155.9,1028.0,937.3,982.5,1803.2,1324.1,3457.6,3471.0,1097.3,849.5,1596.4,3468.6,1528.3,1307.0,3474.6,3467.4,1607.7,2259.0,2705.1,3478.3,1580.5,3488.0,3473.4,3477.1,668.4,776.9,1983.6,1099.9,1248.0,864.6,1.0,1.0,-25.0,6878.0,-5992.0,9794.0,-9450.0,-8.0,2.0,11.0,0.0,3.0,-1.0,8190.0,-10315.0,-7318.0,6435.0,-18.0,-7.0,10.0,1.0
2022-05-23 14:57:11.147061-07:00,1227.5,781.1,1155.9,1028.0,936.4,994.5,1805.2,1315.1,3457.6,3471.0,1097.3,849.5,1608.7,3461.3,1520.8,1306.1,3480.7,3464.9,1596.4,2254.8,2705.1,3478.3,1580.5,3488.0,3467.4,3467.4,673.3,777.8,1983.6,1099.9,1248.0,864.6,13.0,7.0,-15.0,6885.0,-5992.0,9786.0,-9453.0,60.0,-27.0,-3.0,10.0,7.0,-2.0,8191.0,-10308.0,-7321.0,6442.0,41.0,-20.0,-14.0,1.0
2022-05-23 14:57:11.177057-07:00,1231.9,782.7,1146.3,1031.4,936.4,994.5,1805.2,1315.1,3474.6,3471.0,1106.0,852.0,1608.7,3461.3,1520.8,1306.1,3480.7,3464.9,1596.4,2254.8,2701.8,3471.0,1585.2,3497.8,3467.4,3467.4,673.3,777.8,1959.8,1088.6,1234.6,871.3,4.0,-6.0,2.0,6889.0,-5997.0,9766.0,-9467.0,42.0,-15.0,-47.0,6.0,1.0,9.0,8206.0,-10292.0,-7327.0,6442.0,24.0,1.0,-43.0,1.0
