Time,P0,P1,P2,P3,P4,P5,P6,P7,P8,P9,P10,P11,P12,P13,P14,P15,P16,P17,P18,P19,P20,P21,P22,P23,P24,P25,P26,P27,P28,P29,P30,P31,ECG,AX0,AY0,AZ0,QW0,QX0,QY0,QZ0,GX0,GY0,GZ0,AX1,AY1,AZ1,QW1,QX1,QY1,QZ1,GX1,GY1,GZ1
2022-05-23 13:40:29.271265-07:00,1237.3,787.7,1045.2,967.9,930.5,844.4,1541.3,1202.7,3469.8,3466.1,1090.3,886.5,1657.7,3478.3,1224.8,1244.4,3473.4,3467.4,1517.1,2009.4,2723.8,3489.2,1755.0,3486.8,3471.0,3467.4,610.0,858.7,1857.6,1009.9,938.1,843.6,-1.0,6.0,-18.0,14870.0,-3933.0,567.0,-5614.0,-28.0,-8.0,-8.0,-3.0,-13.0,13.0,13769.0,-7051.0,2373.0,-4848.0,-25.0,0.0,-17.0,1.0
2022-05-23 13:40:29.272572-07:00,1237.3,787.7,1045.2,962.8,930.5,842.8,1562.7,1214.2,3469.8,3466.1,1090.3,888.2,1657.7,3464.9,1222.2,1244.4,3478.3,3461.3,1504.1,2009.4,2724.9,3489.2,1755.0,3486.8,3472.2,3472.2,614.9,858.7,1869.3,1009.9,938.1,843.6,3.0,10.0,-14.0,14869.0,-3939.0,570.0,-5614.0,3.0,-7.0,-4.0,0.0,-14.0,13.0,13767.0,-7054.0,2370.0,-4852.0,2.0,-10.0,-11.0,1.0
2022-05-23 13:40:29.301270-07:00,1230.2,780.3,1061.7,966.2,926.2,842.8,1562.7,1214.2,3473.4,3461.3,1093.8,884.8,1650.2,3464.9,1222.2,1244.4,3478.3,3461.3,1504.1,2007.4,2720.5,3486.8,1756.0,3486.8,3472.2,3472.2,614.9,852.0,1849.8,1000.5,944.1,839.4,10.0,10.0,-13.0,14868.0,-3939.0,574.0,-5615.0,-9.0,16.0,1.0,5.0,-9.0,19.0,13766.0,-7056.0,2370.0,-4852.0,-12.0,6.0,3.0,1.0
2022-05-23 13:40:29.390485-07:00,1230.2,780.3,1061.7,966.2,934.7,857.0,1551.5,1208.0,3473.4,3461.3,1093.8,884.8,1652.0,3478.3,1223.0,1240.8,3464.9,3471.0,1509.7,2004.5,2720.5,3486.8,1756.0,3486.8,3471.0,3473.4,614.9,855.3,1849.8,1000.5,944.1,839.4,8.0,6.0,-15.0,14864.0,-3950.0,584.0,-5616.0,-44.0,17.0,1.0,4.0,-13.0,13.0,13760.0,-7064.0,2377.0,-4852.0,-27.0,10.0,5.0,1.0
2022-05-23 13:40:29.391618-07:00,1233.7,778.6,1055.6,972.2,934.7,857.0,1551.5,1208.0,3472.2,3477.1,1083.4,887.3,1652.0,3478.3,1223.0,1240.8,3464.9,3471.0,1509.7,2004.5,2722.7,3486.8,1757.0,3489.2,3471.0,3473.4,614.9,855.3,1856.7,998.7,944.9,841.9,4.0,12.0,-24.0,14863.0,-3951.0,592.0,-5618.0,0.0,15.0,1.0,-2.0,-11.0,9.0,13758.0,-7069.0,2384.0,-4849.0,-17.0,2.0,9.0,1.0
2022-05-23 13:40:29.450850-07:00,1233.7,778.6,1055.6,972.2,933.9,843.6,1558.1,1212.4,3472.2,3477.1,1083.4,887.3,1650.2,3469.8,1217.7,1244.4,3484.4,3471.0,1510.6,2038.4,2722.7,3486.8,1757.0,3489.2,3480.7,3472.2,606.0,857.9,1856.7,998.7,944.9,841.9,3.0,15.0,-8.0,14863.0,-3950.0,599.0,-5619.0,-10.0,18.0,2.0,-6.0,-11.0,17.0,13756.0,-7072.0,2386.0,-4846.0,-23.0,3.0,7.0,1.0
2022-05-23 13:40:29.510575-07:00,1223.0,776.1,1059.9,987.6,933.9,843.6,1558.1,1212.4,3471.0,3472.2,1087.7,889.0,1650.2,3469.8,1217.7,1244.4,3484.4,3471.0,1510.6,2038.4,2713.9,3479.5,1758.9,3489.2,3480.7,3472.2,606.0,857.9,1849.8,1006.5,943.2,844.4,0.0,16.0,-19.0,14862.0,-3951.0,605.0,-5620.0,-7.0,11.0,-2.0,-3.0,-11.0,16.0,13753.0,-7078.0,2389.0,-4846.0,-33.0,9.0,2.0,1.0
2022-05-23 13:40:29.540871-07:00,1223.0,776.1,1059.9,987.6,931.3,840.3,1559.9,1217.7,3471.0,3472.2,1087.7,889.0,1639.8,3468.6,1222.2,1231.0,3467.4,3474.6,1510.6,1985.6,2713.9,3479.5,1758.9,3489.2,3480.7,3474.6,602.0,857.0,1849.8,1006.5,943.2,844.4,10.0,3.0,-13.0,14858.0,-3966.0,611.0,-5620.0,-31.0,-1.0,0.0,3.0,-17.0,11.0,13746.0,-7089.0,2396.0,-4845.0,-24.0,15.0,6.0,1.0
2022-05-23 13:40:29.600645-07:00,1237.3,771.1,1055.6,968.8,931.3,840.3,1559.9,1217.7,3472.2,3457.6,1086.8,899.1,1639.8,3468.6,1222.2,1239.1,3467.4,3474.6,1510.6,1985.6,2718.3,3489.2,1761.8,3488.0,3473.4,3474.6,602.0,857.0,1847.9,1002.2,946.6,847.8,0.0,10.0,-16.0,14857.0,-3966.0,616.0,-5620.0,-4.0,20.0,10.0,-5.0,-10.0,9.0,13744.0,-7093.0,2404.0,-4843.0,-28.0,10.0,12.0,1.0
2022-05-23 13:40:29.750264-07:00,1229.3,771.1,1055.6,968.8,931.3,847.0,1563.7,1217.7,3466.1,3457.6,1086.8,899.1,1646.4,3469.8,1221.3,1239.1,3467.4,3467.4,1514.3,2001.5,2718.3,3489.2,1761.8,3486.8,3473.4,3475.9,611.7,858.7,1847.9,1002.2,946.6,847.0,-2.0,17.0,-32.0,14859.0,-3961.0,619.0,-5619.0,14.0,-16.0,-3.0,-6.0,-13.0,5.0,13742.0,-7098.0,2408.0,-4839.0,0.0,-10.0,-8.0,1.0
2022-05-23 13:40:29.751785-07:00,1229.3,778.6,1047.0,979.9,931.3,847.0,1563.7,1218.6,3466.1,3466.1,1086.8,887.3,1646.4,3469.8,1221.3,1254.2,3467.4,3467.4,1514.3,2001.5,2718.3,3491.7,1754.1,3486.8,3480.7,3475.9,611.7,858.7,1865.4,1002.2,942.4,847.0,7.0,4.0,-13.0,14858.0,-3963.0,602.0,-5621.0,0.0,-33.0,-14.0,0.0,-18.0,11.0,13742.0,-7100.0,2401.0,-4841.0,17.0,-16.0,-14.0,1.0
2022-05-23 13:40:29.752413-07:00,1238.2,778.6,1047.0,979.9,933.0,846.1,1554.3,1218.6,3462.5,3466.1,1086.8,887.3,1643.5,3467.4,1230.2,1254.2,3467.4,3481.9,1508.8,1996.5,2718.3,3491.7,1754.1,3489.2,3480.7,3477.1,614.9,855.3,1865.4,1002.2,942.4,843.6,10.0,7.0,-16.0,14860.0,-3958.0,594.0,-5621.0,34.0,-2.0,3.0,3.0,-15.0,14.0,13747.0,-7091.0,2392.0,-4842.0,37.0,-12.0,7.0,1.0
2022-05-23 13:40:29.810510-07:00,1238.2,782.7,1054.8,976.5,933.0,846.1,1554.3,1241.7,3462.5,3466.1,1084.2,892.4,1643.5,3467.4,1230.2,1248.0,3478.3,3481.9,1508.8,1996.5,2742.5,3502.7,1757.0,3489.2,3473.4,3477.1,614.9,855.3,1841.1,1000.5,945.8,843.6,7.0,14.0,-21.0,14862.0,-3955.0,593.0,-5618.0,-3.0,-6.0,10.0,1.0,-12.0,13.0,13753.0,-7082.0,2386.0,-4843.0,26.0,-8.0,3.0,1.0
2022-05-23 13:40:29.871438-07:00,1228.4,772.8,1054.8,976.5,937.3,847.8,1556.2,1241.7,3477.1,3467.4,1084.2,892.4,1653.9,3458.9,1223.9,1248.0,3478.3,3475.9,1515.3,2004.5,2742.5,3502.7,1755.0,3489.2,3473.4,3471.0,610.8,862.1,1841.1,1000.5,939.0,845.3,5.0,19.0,-16.0,14862.0,-3959.0,583.0,-5615.0,-4.0,-34.0,-8.0,-4.0,-6.0,15.0,13756.0,-7076.0,2382.0,-4843.0,-12.0,-5.0,-9.0,1.0
2022-05-23 13:40:29.900671-07:00,1228.4,772.8,1043.5,967.1,937.3,847.8,1559.9,1203.5,3477.1,3467.4,1094.7,889.0,1653.9,3458.9,1231.9,1237.3,3471.0,3484.4,1515.3,2004.5,2722.7,3485.6,1755.0,3489.2,3474.6,3478.3,610.8,862.1,1848.9,1009.9,939.0,845.3,4.0,10.0,-12.0,14862.0,-3961.0,576.0,-5615.0,-4.0,-4.0,-3.0,-3.0,-18.0,13.0,13753.0,-7082.0,2384.0,-4842.0,-23.0,-3.0,-8.0,1.0
2022-05-23 13:40:29.960510-07:00,1231.9,776.9,1043.5,967.1,936.4,844.4,1559.9,1203.5,3457.6,3478.3,1094.7,889.0,1649.2,3469.8,1231.9,1237.3,3471.0,3484.4,1511.5,1999.5,2722.7,3485.6,1761.8,3484.4,3474.6,3478.3,610.8,848.6,1848.9,1009.9,954.3,834.4,4.0,3.0,-21.0,14860.0,-3967.0,580.0,-5615.0,-18.0,7.0,-2.0,0.0,-15.0,10.0,13749.0,-7089.0,2385.0,-4844.0,3.0,-11.0,-10.0,1.0
2022-05-23 13:40:29.990635-07:00,1231.9,776.9,1052.2,971.3,936.4,844.4,1550.6,1201.8,3457.6,3478.3,1086.0,886.5,1649.2,3469.8,1226.6,1240.8,3467.4,3473.4,1511.5,1999.5,2720.5,3495.3,1761.8,3484.4,3483.2,3472.2,610.8,848.6,1846.9,1000.5,954.3,834.4,5.0,2.0,-13.0,14859.0,-3972.0,581.0,-5614.0,8.0,-9.0,12.0,-1.0,-14.0,15.0,13749.0,-7089.0,2381.0,-4845.0,14.0,-10.0,3.0,1.0
2022-05-23 13:40:30.050711-07:00,1233.7,775.3,1052.2,971.3,927.1,844.4,1550.6,1201.8,3457.6,3466.1,1086.0,886.5,1651.1,3469.8,1226.6,1240.8,3467.4,3473.4,1506.9,2002.5,2720.5,3495.3,1757.9,3491.7,3483.2,3472.2,613.3,855.3,1846.9,1000.5,941.5,837.7,8.0,18.0,-18.0,14863.0,-3966.0,585.0,-5609.0,-8.0,21.0,12.0,0.0,-8.0,15.0,13750.0,-7090.0,2377.0,-4842.0,-18.0,-13.0,2.0,1.0
2022-05-23 13:40:30.110682-07:00,1233.7,775.3,1049.6,966.2,927.1,844.4,1558.1,1220.4,3457.6,3466.1,1088.6,892.4,1651.1,3469.8,1227.5,1232.8,3472.2,3473.4,1506.9,2002.5,2720.5,3491.7,1757.9,3491.7,3475.9,3481.9,613.3,855.3,1851.8,1009.9,941.5,837.7,7.0,11.0,-20.0,14863.0,-3966.0,587.0,-5609.0,1.0,-9.0,-1.0,2.0,-14.0,18.0,13747.0,-7097.0,2379.0,-4840.0,-13.0,-3.0,-5.0,1.0
2022-05-23 13:40:30.140789-07:00,1231.0,774.5,1047.0,966.2,922.8,844.4,1558.1,1220.4,3488.0,3472.2,1088.6,892.4,1653.9,3462.5,1227.5,1232.8,3472.2,3473.4,1519.0,2005.5,2720.5,3492.9,1752.1,3485.6,3475.9,3481.9,604.4,862.9,1851.8,1008.2,947.5,837.7,2.0,7.0,-22.0,14864.0,-3961.0,586.0,-5609.0,16.0,-6.0,9.0,-3.0,-12.0,11.0,13747.0,-7097.0,2378.0,-4840.0,7.0,-12.0,5.0,1.0
2022-05-23 13:40:30.200819-07:00,1231.0,774.5,1047.0,977.3,922.8,842.8,1547.8,1208.0,3488.0,3472.2,1088.6,890.7,1653.9,3464.9,1224.8,1231.0,3473.4,3475.9,1514.3,2005.5,2724.9,3492.9,1752.1,3485.6,3474.6,3478.3,605.2,862.9,1850.8,1008.2,947.5,837.7,11.0,15.0,-12.0,14866.0,-3960.0,584.0,-5604.0,7.0,-2.0,11.0,1.0,-12.0,13.0,13748.0,-7099.0,2373.0,-4838.0,8.0,-10.0,5.0,1.0
2022-05-23 13:40:30.261036-07:00,1237.3,767.0,1052.2,977.3,929.6,842.8,1547.8,1208.0,3469.8,3467.4,1089.5,890.7,1648.3,3464.9,1224.8,1231.0,3473.4,3475.9,1514.3,2006.4,2724.9,3489.2,1754.1,3490.5,3474.6,3478.3,605.2,856.2,1850.8,999.6,937.3,837.7,7.0,18.0,-18.0,14867.0,-3956.0,587.0,-5604.0,12.0,19.0,-1.0,0.0,-9.0,14.0,13748.0,-7098.0,2374.0,-4838.0,3.0,12.0,1.0,1.0
2022-05-23 13:40:30.350651-07:00,1237.3,767.0,1052.2,967.9,929.6,836.1,1554.3,1215.1,3469.8,3467.4,1089.5,882.3,1648.3,3466.1,1227.5,1243.5,3472.2,3467.4,1508.8,2006.4,2710.6,3489.2,1754.1,3490.5,3479.5,3469.8,618.1,856.2,1848.9,999.6,937.3,837.7,0.0,4.0,-18.0,14866.0,-3959.0,590.0,-5605.0,12.0,-12.0,-7.0,-6.0,-13.0,14.0,13743.0,-7105.0,2378.0,-4840.0,-11.0,4.0,-5.0,1.0
2022-05-23 13:40:30.381309-07:00,1243.5,782.7,1063.4,967.9,927.1,836.1,1554.3,1215.1,3468.6,3473.4,1087.7,882.3,1645.4,3466.1,1227.5,1243.5,3472.2,3467.4,1508.8,1998.5,2710.6,3494.1,1755.0,3491.7,3479.5,3469.8,618.1,854.5,1848.9,1002.2,941.5,849.5,6.0,1.0,-11.0,14866.0,-3962.0,584.0,-5604.0,-15.0,-11.0,3.0,0.0,-18.0,13.0,13741.0,-7110.0,2380.0,-4839.0,-24.0,-6.0,-6.0,1.0
2022-05-23 13:40:30.410526-07:00,1243.5,782.7,1063.4,968.8,928.8,842.8,1555.3,1214.2,3468.6,3473.4,1087.7,884.8,1653.0,3478.3,1224.8,1245.3,3474.6,3475.9,1515.3,2000.5,2715.0,3494.1,1755.0,3491.7,3480.7,3473.4,613.3,856.2,1845.9,1002.2,941.5,849.5,12.0,11.0,-22.0,14866.0,-3961.0,582.0,-5603.0,-6.0,2.0,4.0,4.0,-15.0,13.0,13740.0,-7111.0,2380.0,-4839.0,6.0,-7.0,-3.0,1.0
2022-05-23 13:40:30.441055-07:00,1226.6,783.6,1048.7,979.9,928.8,842.8,1555.3,1214.2,3468.6,3479.5,1086.0,891.5,1653.0,3478.3,1224.8,1245.3,3474.6,3475.9,1515.3,2000.5,2723.8,3484.4,1755.0,3494.1,3480.7,3473.4,613.3,856.2,1852.8,1002.2,944.1,840.3,8.0,20.0,-23.0,14868.0,-3956.0,581.0,-5603.0,14.0,5.0,4.0,0.0,-8.0,16.0,13744.0,-7103.0,2377.0,-4840.0,20.0,-5.0,8.0,1.0
2022-05-23 13:40:30.500883-07:00,1226.6,783.6,1048.7,979.9,924.5,844.4,1554.3,1209.7,3468.6,3479.5,1086.0,891.5,1652.0,3460.1,1223.9,1239.1,3467.4,3467.4,1495.8,2004.5,2723.8,3484.4,1755.0,3494.1,3471.0,3479.5,610.8,856.2,1852.8,1002.2,944.1,840.3,4.0,18.0,-18.0,14869.0,-3951.0,579.0,-5603.0,5.0,-8.0,-11.0,-2.0,-9.0,16.0,13746.0,-7099.0,2376.0,-4841.0,7.0,-2.0,-7.0,1.0
2022-05-23 13:40:30.530807-07:00,1235.5,769.5,1046.1,973.9,924.5,844.4,1554.3,1209.7,3467.4,3471.0,1090.3,889.0,1652.0,3460.1,1223.9,1239.1,3467.4,3467.4,1495.8,2004.5,2728.2,3488.0,1754.1,3486.8,3471.0,3479.5,610.8,856.2,1848.9,1000.5,939.8,842.8,5.0,4.0,-11.0,14868.0,-3956.0,578.0,-5604.0,5.0,-6.0,-5.0,0.0,-18.0,13.0,13743.0,-7104.0,2375.0,-4843.0,-10.0,-5.0,-6.0,1.0
2022-05-23 13:40:30.590927-07:00,1235.5,769.5,1046.1,973.9,927.9,847.8,1551.5,1197.4,3467.4,3471.0,1090.3,889.0,1652.0,3457.6,1220.4,1236.4,3466.1,3475.9,1513.4,2001.5,2728.2,3488.0,1754.1,3486.8,3473.4,3464.9,610.8,854.5,1848.9,1000.5,939.8,842.8,9.0,5.0,-15.0,14869.0,-3954.0,574.0,-5603.0,14.0,-11.0,-6.0,0.0,-15.0,12.0,13743.0,-7104.0,2375.0,-4843.0,8.0,-1.0,-2.0,1.0
2022-05-23 13:40:30.650719-07:00,1239.1,772.8,1046.1,959.4,927.9,847.8,1551.5,1197.4,3467.4,3467.4,1088.6,884.8,1652.0,3457.6,1220.4,1236.4,3466.1,3475.9,1513.4,2001.5,2711.7,3489.2,1754.1,3485.6,3473.4,3464.9,610.8,854.5,1843.0,998.7,944.9,841.1,8.0,12.0,-15.0,14870.0,-3950.0,572.0,-5603.0,-20.0,16.0,11.0,1.0,-11.0,15.0,13746.0,-7099.0,2373.0,-4844.0,2.0,2.0,-2.0,1.0
2022-05-23 13:40:30.680791-07:00,1231.0,772.8,1046.1,959.4,933.9,846.1,1548.7,1198.2,3469.8,3467.4,1088.6,884.8,1649.2,3474.6,1223.9,1237.3,3478.3,3472.2,1507.8,2004.5,2711.7,3489.2,1754.1,3497.8,3467.4,3467.4,607.6,857.9,1843.0,998.7,944.9,844.4,7.0,22.0,-24.0,14870.0,-3947.0,578.0,-5603.0,7.0,-1.0,-6.0,1.0,-5.0,16.0,13746.0,-7098.0,2373.0,-4844.0,2.0,4.0,-1.0,1.0
2022-05-23 13:40:30.861523-07:00,1231.0,779.4,1056.5,971.3,933.9,846.1,1548.7,1215.1,3469.8,3468.6,1080.8,892.4,1649.2,3474.6,1223.9,1246.2,3488.0,3472.2,1507.8,2004.5,2728.2,3486.8,1757.0,3497.8,3472.2,3467.4,607.6,857.9,1837.2,998.7,940.7,844.4,10.0,7.0,-14.0,14868.0,-3951.0,576.0,-5606.0,-5.0,-14.0,-14.0,-2.0,-11.0,16.0,13744.0,-7102.0,2373.0,-4845.0,-11.0,-4.0,-8.0,1.0
2022-05-23 13:40:30.862694-07:00,1229.3,779.4,1056.5,971.3,933.9,848.6,1554.3,1215.1,3468.6,3468.6,1080.8,892.4,1634.1,3467.4,1223.9,1246.2,3488.0,3479.5,1502.3,2003.5,2728.2,3486.8,1757.0,3488.0,3472.2,3479.5,613.3,851.1,1837.2,998.7,940.7,845.3,7.0,1.0,-15.0,14867.0,-3951.0,576.0,-5608.0,0.0,10.0,3.0,-1.0,-15.0,16.0,13742.0,-7104.0,2374.0,-4845.0,-7.0,2.0,4.0,1.0
2022-05-23 13:40:30.921722-07:00,1229.3,780.3,1063.4,975.6,933.9,848.6,1554.3,1206.2,3468.6,3471.0,1079.9,883.1,1634.1,3467.4,1223.9,1239.9,3471.0,3479.5,1502.3,2003.5,2708.4,3492.9,1748.3,3488.0,3475.9,3479.5,613.3,851.1,1852.8,1002.2,934.7,845.3,9.0,11.0,-21.0,14867.0,-3950.0,577.0,-5609.0,-1.0,-2.0,1.0,6.0,-13.0,14.0,13743.0,-7103.0,2374.0,-4845.0,15.0,1.0,5.0,1.0
2022-05-23 13:40:30.923286-07:00,1230.2,780.3,1063.4,975.6,930.5,852.8,1550.6,1206.2,3463.7,3471.0,1079.9,883.1,1640.7,3472.2,1222.2,1239.9,3471.0,3477.1,1513.4,1995.5,2708.4,3492.9,1748.3,3479.5,3475.9,3474.6,614.9,854.5,1852.8,1002.2,934.7,833.6,9.0,10.0,-14.0,14867.0,-3950.0,577.0,-5609.0,9.0,-2.0,-1.0,0.0,-10.0,18.0,13745.0,-7098.0,2374.0,-4847.0,5.0,15.0,4.0,1.0
2022-05-23 13:40:30.950704-07:00,1230.2,780.3,1052.2,975.6,930.5,852.8,1547.8,1211.5,3463.7,3478.3,1088.6,889.8,1640.7,3472.2,1238.2,1237.3,3477.1,3471.0,1513.4,1995.5,2708.4,3497.8,1752.1,3479.5,3478.3,3471.0,614.9,854.5,1841.1,1006.5,950.0,833.6,2.0,12.0,-18.0,14868.0,-3948.0,578.0,-5609.0,-3.0,14.0,5.0,-5.0,-8.0,16.0,13742.0,-7103.0,2379.0,-4847.0,-28.0,1.0,5.0,1.0
2022-05-23 13:40:31.010792-07:00,1239.1,771.1,1052.2,975.6,936.4,849.5,1547.8,1211.5,3467.4,3469.8,1088.6,889.8,1641.6,3462.5,1238.2,1237.3,3477.1,3471.0,1509.7,2001.5,2708.4,3497.8,1757.0,3480.7,3478.3,3471.0,612.5,854.5,1841.1,1006.5,944.1,843.6,5.0,9.0,-21.0,14867.0,-3949.0,579.0,-5609.0,-17.0,-11.0,-4.0,-2.0,-11.0,13.0,13738.0,-7110.0,2381.0,-4846.0,-26.0,-3.0,-6.0,1.0
2022-05-23 13:40:31.040860-07:00,1239.1,771.1,1059.9,973.1,936.4,849.5,1555.3,1216.8,3467.4,3469.8,1084.2,885.6,1641.6,3462.5,1227.5,1242.6,3478.3,3471.0,1509.7,2001.5,2707.3,3495.3,1757.0,3480.7,3471.0,3472.2,612.5,854.5,1855.7,1006.5,944.1,843.6,16.0,5.0,-13.0,14867.0,-3953.0,579.0,-5609.0,6.0,11.0,0.0,5.0,-13.0,13.0,13738.0,-7109.0,2383.0,-4847.0,22.0,13.0,9.0,1.0
2022-05-23 13:40:31.100779-07:00,1225.7,775.3,1059.9,973.1,932.2,842.8,1555.3,1216.8,3468.6,3466.1,1084.2,885.6,1651.1,3469.8,1227.5,1242.6,3478.3,3471.0,1509.7,2002.5,2707.3,3495.3,1752.1,3486.8,3471.0,3472.2,618.1,851.1,1855.7,1006.5,944.9,824.4,10.0,18.0,-18.0,14867.0,-3949.0,590.0,-5611.0,-6.0,29.0,10.0,2.0,-8.0,18.0,13741.0,-7104.0,2388.0,-4844.0,-5.0,7.0,15.0,1.0
2022-05-23 13:40:31.130961-07:00,1225.7,775.3,1049.6,967.9,932.2,842.8,1529.2,1218.6,3468.6,3466.1,1078.2,884.8,1651.1,3469.8,1221.3,1235.5,3464.9,3472.2,1509.7,2002.5,2718.3,3491.7,1752.1,3486.8,3475.9,3468.6,618.1,851.1,1874.2,1005.6,944.9,824.4,3.0,12.0,-20.0,14866.0,-3949.0,590.0,-5613.0,7.0,-16.0,-11.0,-4.0,-12.0,17.0,13741.0,-7103.0,2390.0,-4844.0,-8.0,3.0,-2.0,1.0
2022-05-23 13:40:31.191107-07:00,1220.4,781.1,1049.6,967.9,927.9,837.7,1529.2,1218.6,3460.1,3467.4,1078.2,884.8,1644.5,3457.6,1221.3,1235.5,3464.9,3472.2,1514.3,2005.5,2718.3,3491.7,1752.1,3489.2,3475.9,3468.6,609.2,855.3,1874.2,1005.6,943.2,840.3,7.0,8.0,-10.0,14864.0,-3956.0,588.0,-5612.0,-22.0,3.0,-2.0,0.0,-16.0,16.0,13735.0,-7112.0,2395.0,-4843.0,-33.0,12.0,0.0,1.0
2022-05-23 13:40:31.250825-07:00,1220.4,781.1,1059.9,966.2,927.9,852.0,1547.8,1214.2,3460.1,3467.4,1090.3,892.4,1644.5,3478.3,1220.4,1240.8,3469.8,3467.4,1508.8,2005.5,2720.5,3483.2,1752.1,3489.2,3480.7,3466.1,610.8,855.3,1848.9,1005.6,943.2,840.3,8.0,14.0,-20.0,14863.0,-3956.0,596.0,-5614.0,-18.0,22.0,-5.0,0.0,-15.0,13.0,13730.0,-7119.0,2405.0,-4845.0,-23.0,21.0,2.0,1.0
2022-05-23 13:40:31.370941-07:00,1234.6,782.7,1057.3,966.2,938.1,852.0,1547.8,1214.2,3462.5,3472.2,1086.8,892.4,1648.3,3478.3,1220.4,1240.8,3469.8,3467.4,1508.8,2007.4,2720.5,3489.2,1754.1,3490.5,3480.7,3466.1,610.8,856.2,1848.9,1003.9,946.6,845.3,8.0,8.0,-16.0,14862.0,-3958.0,605.0,-5616.0,3.0,20.0,-6.0,-4.0,-14.0,15.0,13727.0,-7120.0,2412.0,-4848.0,-9.0,18.0,9.0,1.0
2022-05-23 13:40:31.372685-07:00,1234.6,782.7,1057.3,977.3,938.1,838.6,1551.5,1208.9,3462.5,3472.2,1086.8,889.0,1648.3,3473.4,1217.7,1239.9,3475.9,3462.5,1514.3,2007.4,2718.3,3489.2,1754.1,3490.5,3472.2,3467.4,622.2,856.2,1849.8,1003.9,946.6,845.3,8.0,11.0,-20.0,14860.0,-3960.0,612.0,-5617.0,-22.0,9.0,3.0,-2.0,-11.0,11.0,13724.0,-7123.0,2417.0,-4849.0,-21.0,-1.0,-3.0,1.0
2022-05-23 13:40:31.400864-07:00,1239.9,787.7,1054.8,977.3,932.2,838.6,1551.5,1208.9,3473.4,3469.8,1085.1,889.0,1651.1,3473.4,1217.7,1239.9,3475.9,3462.5,1514.3,2002.5,2718.3,3488.0,1757.0,3490.5,3472.2,3467.4,622.2,851.1,1849.8,1003.9,945.8,836.1,11.0,11.0,-18.0,14860.0,-3962.0,612.0,-5617.0,-5.0,-6.0,-3.0,-1.0,-12.0,14.0,13721.0,-7129.0,2419.0,-4848.0,-18.0,-8.0,-2.0,1.0
2022-05-23 13:40:31.490837-07:00,1239.9,787.7,1054.8,964.5,932.2,847.8,1544.1,1222.2,3473.4,3469.8,1085.1,889.0,1651.1,3463.7,1223.9,1241.7,3469.8,3463.7,1509.7,2002.5,2722.7,3488.0,1757.0,3490.5,3478.3,3467.4,610.8,851.1,1858.6,1003.9,945.8,836.1,15.0,8.0,-17.0,14859.0,-3967.0,611.0,-5616.0,-25.0,-13.0,-6.0,3.0,-11.0,13.0,13718.0,-7134.0,2421.0,-4847.0,-12.0,-5.0,-3.0,1.0
2022-05-23 13:40:31.492588-07:00,1226.6,780.3,1049.6,974.8,925.4,847.8,1544.1,1222.2,3473.4,3469.8,1091.2,889.8,1650.2,3463.7,1223.9,1241.7,3469.8,3463.7,1509.7,2001.5,2718.3,3492.9,1753.1,3488.0,3478.3,3467.4,610.8,852.0,1854.7,1000.5,962.0,845.3,10.0,18.0,-14.0,14856.0,-3970.0,610.0,-5621.0,-17.0,-2.0,-28.0,0.0,-16.0,14.0,13717.0,-7136.0,2421.0,-4846.0,-16.0,5.0,3.0,1.0
2022-05-23 13:40:31.550842-07:00,1226.6,780.3,1049.6,974.8,935.6,844.4,1555.3,1200.9,3473.4,3469.8,1091.2,889.8,1648.3,3472.2,1228.4,1247.1,3471.0,3467.4,1511.5,2007.4,2718.3,3492.9,1753.1,3488.0,3479.5,3473.4,610.0,849.5,1854.7,1000.5,962.0,845.3,15.0,10.0,-21.0,14853.0,-3977.0,613.0,-5625.0,-15.0,10.0,-9.0,-1.0,-15.0,9.0,13712.0,-7143.0,2428.0,-4847.0,-25.0,11.0,3.0,1.0
2022-05-23 13:40:31.580881-07:00,1233.7,772.0,1063.4,976.5,935.6,844.4,1555.3,1200.9,3478.3,3461.3,1086.8,890.7,1648.3,3472.2,1228.4,1247.1,3471.0,3467.4,1511.5,2007.4,2728.2,3495.3,1755.0,3477.1,3479.5,3473.4,610.0,849.5,1847.9,998.7,944.1,838.6,11.0,10.0,-15.0,14852.0,-3977.0,612.0,-5626.0,13.0,-2.0,-2.0,-4.0,-13.0,11.0,13709.0,-7147.0,2432.0,-4847.0,-2.0,6.0,4.0,1.0
2022-05-23 13:40:31.641031-07:00,1233.7,772.0,1063.4,976.5,925.4,849.5,1548.7,1207.1,3478.3,3461.3,1086.8,890.7,1645.4,3458.9,1216.8,1241.7,3474.6,3468.6,1511.5,2003.5,2728.2,3495.3,1755.0,3477.1,3488.0,3477.1,611.7,857.9,1847.9,998.7,944.1,838.6,2.0,15.0,-24.0,14852.0,-3977.0,611.0,-5626.0,-3.0,-11.0,3.0,-3.0,-12.0,13.0,13707.0,-7151.0,2434.0,-4847.0,-14.0,-3.0,-6.0,1.0
2022-05-23 13:40:31.701004-07:00,1223.0,773.6,1055.6,977.3,925.4,849.5,1548.7,1207.1,3464.9,3472.2,1083.4,892.4,1645.4,3458.9,1216.8,1241.7,3474.6,3468.6,1511.5,2003.5,2724.9,3492.9,1759.8,3481.9,3488.0,3477.1,611.7,857.9,1846.9,992.7,945.8,840.3,17.0,8.0,-12.0,14853.0,-3978.0,607.0,-5625.0,-1.0,4.0,-4.0,5.0,-10.0,12.0,13707.0,-7152.0,2434.0,-4847.0,3.0,3.0,-3.0,1.0
2022-05-23 13:40:31.731287-07:00,1223.0,773.6,1055.6,977.3,932.2,840.3,1551.5,1215.1,3464.9,3472.2,1083.4,892.4,1651.1,3468.6,1228.4,1244.4,3468.6,3473.4,1505.1,2002.5,2724.9,3492.9,1759.8,3481.9,3472.2,3473.4,610.8,857.9,1846.9,992.7,945.8,840.3,15.0,12.0,-22.0,14852.0,-3976.0,613.0,-5626.0,-2.0,11.0,0.0,3.0,-9.0,14.0,13708.0,-7149.0,2435.0,-4848.0,3.0,11.0,8.0,1.0
2022-05-23 13:40:31.791394-07:00,1228.4,776.1,1059.9,962.8,932.2,840.3,1551.5,1212.4,3464.9,3463.7,1089.5,888.2,1651.1,3468.6,1228.4,1238.2,3478.3,3473.4,1505.1,2002.5,2718.3,3492.9,1755.0,3477.1,3469.8,3473.4,610.8,857.9,1851.8,990.2,949.2,847.8,10.0,22.0,-26.0,14853.0,-3972.0,613.0,-5627.0,-6.0,-7.0,-3.0,-3.0,-5.0,12.0,13709.0,-7145.0,2436.0,-4848.0,-1.0,-3.0,2.0,1.0
2022-05-23 13:40:31.851461-07:00,1223.0,776.1,1059.9,962.8,935.6,843.6,1546.9,1212.4,3475.9,3463.7,1089.5,888.2,1648.3,3468.6,1223.9,1238.2,3478.3,3461.3,1506.9,2005.5,2718.3,3492.9,1755.0,3484.4,3469.8,3467.4,618.1,848.6,1851.8,990.2,949.2,849.5,5.0,11.0,-14.0,14853.0,-3976.0,612.0,-5626.0,22.0,-2.0,-3.0,-6.0,-7.0,15.0,13708.0,-7148.0,2437.0,-4847.0,-7.0,5.0,2.0,1.0
2022-05-23 13:40:31.880939-07:00,1223.0,781.1,1052.2,975.6,935.6,843.6,1546.9,1216.0,3475.9,3474.6,1085.1,889.0,1648.3,3468.6,1223.9,1244.4,3469.8,3461.3,1506.9,2005.5,2708.4,3497.8,1755.0,3484.4,3477.1,3467.4,618.1,848.6,1851.8,1003.0,944.9,849.5,8.0,7.0,-14.0,14851.0,-3980.0,614.0,-5626.0,-13.0,-2.0,-5.0,0.0,-16.0,14.0,13704.0,-7156.0,2440.0,-4846.0,-19.0,4.0,-6.0,1.0
2022-05-23 13:40:31.941494-07:00,1223.9,781.1,1052.2,975.6,932.2,852.8,1554.3,1216.0,3467.4,3474.6,1085.1,889.0,1651.1,3469.8,1224.8,1244.4,3469.8,3471.0,1514.3,1995.5,2708.4,3497.8,1755.0,3500.2,3477.1,3475.9,609.2,858.7,1851.8,1003.0,944.9,845.3,7.0,3.0,-17.0,14850.0,-3987.0,616.0,-5626.0,-11.0,-11.0,-2.0,-2.0,-15.0,11.0,13701.0,-7161.0,2442.0,-4845.0,-13.0,3.0,-7.0,1.0
2022-05-23 13:40:32.001255-07:00,1223.9,772.8,1057.3,967.1,932.2,852.8,1554.3,1215.1,3467.4,3471.0,1086.0,878.0,1651.1,3469.8,1224.8,1239.9,3473.4,3471.0,1514.3,1995.5,2709.5,3484.4,1757.0,3500.2,3478.3,3475.9,609.2,858.7,1848.9,993.6,943.2,845.3,12.0,16.0,-16.0,14851.0,-3984.0,613.0,-5625.0,-16.0,-10.0,-2.0,0.0,-8.0,16.0,13703.0,-7157.0,2440.0,-4846.0,9.0,-6.0,-2.0,1.0
2022-05-23 13:40:32.031023-07:00,1232.8,786.1,1057.3,967.1,928.8,850.3,1545.9,1215.1,3466.1,3478.3,1086.0,878.0,1646.4,3462.5,1237.3,1239.9,3473.4,3472.2,1515.3,1993.5,2709.5,3484.4,1754.1,3481.9,3478.3,3473.4,610.0,846.1,1848.9,993.6,948.3,841.1,14.0,16.0,-16.0,14850.0,-3987.0,613.0,-5625.0,-3.0,8.0,3.0,0.0,-7.0,16.0,13702.0,-7158.0,2441.0,-4846.0,-11.0,-7.0,2.0,1.0
2022-05-23 13:40:32.091030-07:00,1232.8,786.1,1045.2,967.1,928.8,850.3,1556.2,1205.3,3466.1,3478.3,1085.1,889.0,1646.4,3462.5,1229.3,1247.1,3477.1,3473.4,1515.3,1993.5,2718.3,3486.8,1754.1,3481.9,3480.7,3467.4,610.0,846.1,1848.9,996.2,948.3,841.1,12.0,12.0,-23.0,14849.0,-3989.0,614.0,-5625.0,-5.0,-3.0,-5.0,1.0,-12.0,13.0,13700.0,-7162.0,2442.0,-4845.0,-4.0,0.0,1.0,1.0
2022-05-23 13:40:32.150944-07:00,1231.9,781.1,1045.2,967.1,926.2,846.1,1556.2,1205.3,3471.0,3471.0,1085.1,889.0,1650.2,3467.4,1229.3,1247.1,3477.1,3473.4,1512.5,2002.5,2718.3,3486.8,1748.3,3486.8,3480.7,3467.4,614.9,856.2,1848.9,996.2,938.1,848.6,15.0,11.0,-16.0,14850.0,-3988.0,613.0,-5625.0,7.0,4.0,-1.0,0.0,-13.0,12.0,13700.0,-7162.0,2442.0,-4845.0,3.0,5.0,5.0,1.0
2022-05-23 13:40:32.180985-07:00,1231.9,781.1,1052.2,968.8,926.2,846.1,1559.9,1203.5,3471.0,3471.0,1083.4,893.2,1650.2,3467.4,1226.6,1246.2,3462.5,3473.4,1512.5,2002.5,2752.5,3494.1,1748.3,3486.8,3463.7,3473.4,614.9,856.2,1847.9,1002.2,938.1,848.6,10.0,7.0,-15.0,14849.0,-3991.0,614.0,-5625.0,-2.0,8.0,4.0,-2.0,-10.0,16.0,13700.0,-7163.0,2442.0,-4845.0,-9.0,5.0,5.0,1.0
2022-05-23 13:40:32.241312-07:00,1230.2,784.4,1052.2,968.8,929.6,845.3,1559.9,1203.5,3473.4,3473.4,1083.4,893.2,1649.2,3469.8,1226.6,1246.2,3462.5,3473.4,1518.0,2008.4,2752.5,3494.1,1760.8,3480.7,3463.7,3473.4,613.3,851.1,1847.9,1002.2,939.0,836.1,14.0,13.0,-24.0,14848.0,-3989.0,621.0,-5627.0,-16.0,18.0,2.0,-3.0,-13.0,11.0,13698.0,-7166.0,2444.0,-4845.0,-16.0,10.0,4.0,1.0
2022-05-23 13:40:32.301211-07:00,1230.2,784.4,1074.7,967.9,929.6,845.3,1551.5,1207.1,3473.4,3473.4,1084.2,883.1,1649.2,3469.8,1229.3,1239.1,3473.4,3469.8,1518.0,2008.4,2721.6,3489.2,1760.8,3480.7,3474.6,3483.2,613.3,851.1,1852.8,993.6,939.0,836.1,9.0,17.0,-26.0,14849.0,-3988.0,624.0,-5627.0,-5.0,-3.0,0.0,-6.0,-7.0,13.0,13698.0,-7165.0,2446.0,-4846.0,-1.0,9.0,-2.0,1.0
2022-05-23 13:40:32.360898-07:00,1234.6,780.3,1058.2,967.9,933.0,841.9,1551.5,1207.1,3463.7,3468.6,1086.0,883.1,1646.4,3466.1,1229.3,1239.1,3473.4,3469.8,1511.5,1998.5,2721.6,3496.6,1747.3,3488.0,3474.6,3483.2,612.5,855.3,1852.8,999.6,942.4,841.9,11.0,6.0,-10.0,14848.0,-3988.0,624.0,-5627.0,10.0,14.0,7.0,-1.0,-17.0,15.0,13697.0,-7167.0,2446.0,-4846.0,-5.0,-8.0,0.0,1.0
2022-05-23 13:40:32.391824-07:00,1234.6,780.3,1058.2,970.5,933.0,839.4,1565.5,1207.1,3463.7,3468.6,1086.0,888.2,1646.4,3466.1,1224.8,1244.4,3466.1,3467.4,1508.8,1998.5,2716.1,3496.6,1747.3,3488.0,3480.7,3468.6,606.0,855.3,1848.9,999.6,942.4,841.9,17.0,5.0,-18.0,14849.0,-3985.0,631.0,-5627.0,10.0,18.0,4.0,2.0,-14.0,12.0,13697.0,-7167.0,2446.0,-4845.0,4.0,3.0,5.0,1.0
2022-05-23 13:40:32.451335-07:00,1223.9,767.0,1053.0,970.5,939.8,839.4,1565.5,1207.1,3473.4,3464.9,1087.7,888.2,1650.2,3466.1,1224.8,1244.4,3466.1,3467.4,1508.8,1990.5,2716.1,3486.8,1742.6,3481.9,3480.7,3468.6,606.0,857.9,1848.9,1000.5,940.7,847.8,12.0,11.0,-21.0,14849.0,-3983.0,634.0,-5628.0,-8.0,-5.0,5.0,0.0,-13.0,16.0,13699.0,-7163.0,2445.0,-4846.0,10.0,-1.0,3.0,1.0
2022-05-23 13:40:32.480941-07:00,1223.9,767.0,1053.0,979.9,939.8,852.0,1559.9,1219.5,3473.4,3464.9,1087.7,888.2,1650.2,3471.0,1223.0,1241.7,3469.8,3467.4,1515.3,1990.5,2721.6,3486.8,1742.6,3481.9,3479.5,3463.7,610.8,857.9,1849.8,1000.5,940.7,847.8,9.0,17.0,-21.0,14850.0,-3980.0,633.0,-5629.0,-4.0,-13.0,1.0,-4.0,-5.0,13.0,13700.0,-7161.0,2445.0,-4846.0,8.0,-9.0,3.0,1.0
2022-05-23 13:40:32.541762-07:00,1231.0,786.9,1053.0,979.9,936.4,852.0,1559.9,1219.5,3472.2,3457.6,1087.7,888.2,1650.2,3471.0,1223.0,1241.7,3469.8,3467.4,1515.3,2013.4,2721.6,3491.7,1744.5,3486.8,3479.5,3463.7,610.8,854.5,1849.8,999.6,937.3,842.8,7.0,11.0,-17.0,14850.0,-3983.0,628.0,-5627.0,13.0,-12.0,-6.0,-2.0,-14.0,12.0,13700.0,-7162.0,2443.0,-4845.0,1.0,-9.0,-4.0,1.0
2022-05-23 13:40:32.600944-07:00,1231.0,786.9,1053.0,964.5,921.1,845.3,1558.1,1210.6,3472.2,3457.6,1087.7,889.0,1647.3,3473.4,1233.7,1240.8,3475.9,3473.4,1528.3,2005.5,2718.3,3491.7,1744.5,3486.8,3475.9,3473.4,611.7,852.0,1850.8,999.6,937.3,842.8,11.0,7.0,-16.0,14849.0,-3984.0,628.0,-5627.0,-7.0,-4.0,-1.0,-2.0,-16.0,14.0,13698.0,-7167.0,2441.0,-4844.0,-14.0,-7.0,-6.0,1.0
2022-05-23 13:40:32.631402-07:00,1231.9,767.0,1059.9,964.5,921.1,845.3,1558.1,1210.6,3466.1,3463.7,1087.7,890.7,1647.3,3473.4,1233.7,1240.8,3475.9,3473.4,1528.3,2005.5,2720.5,3490.5,1746.4,3488.0,3475.9,3473.4,611.7,852.0,1847.9,1000.5,946.6,847.0,13.0,9.0,-18.0,14849.0,-3984.0,628.0,-5627.0,-1.0,7.0,0.0,-2.0,-12.0,14.0,13698.0,-7167.0,2441.0,-4844.0,7.0,-1.0,-4.0,1.0
2022-05-23 13:40:32.691143-07:00,1231.9,767.0,1059.9,964.5,935.6,846.1,1561.8,1210.6,3466.1,3463.7,1087.7,890.7,1643.5,3464.9,1231.0,1239.9,3466.1,3473.4,1504.1,2009.4,2720.5,3490.5,1746.4,3488.0,3478.3,3478.3,607.6,856.2,1847.9,1000.5,946.6,847.0,14.0,13.0,-21.0,14849.0,-3985.0,628.0,-5627.0,-12.0,-3.0,2.0,0.0,-7.0,15.0,13698.0,-7168.0,2441.0,-4844.0,-4.0,-10.0,-5.0,1.0
2022-05-23 13:40:32.751049-07:00,1231.9,780.3,1048.7,969.6,935.6,846.1,1561.8,1210.6,3472.2,3468.6,1089.5,886.5,1643.5,3464.9,1231.0,1239.9,3466.1,3473.4,1504.1,2009.4,2721.6,3485.6,1749.3,3495.3,3478.3,3478.3,607.6,856.2,1851.8,993.6,944.9,858.7,16.0,12.0,-15.0,14849.0,-3987.0,629.0,-5627.0,11.0,2.0,3.0,2.0,-11.0,12.0,13698.0,-7168.0,2441.0,-4844.0,-2.0,-5.0,0.0,1.0
2022-05-23 13:40:32.781011-07:00,1231.9,780.3,1048.7,969.6,939.0,838.6,1551.5,1224.8,3472.2,3468.6,1089.5,886.5,1641.6,3463.7,1223.0,1242.6,3480.7,3471.0,1499.5,2003.5,2721.6,3485.6,1749.3,3495.3,3472.2,3469.8,621.4,857.0,1851.8,993.6,944.9,858.7,11.0,10.0,-21.0,14849.0,-3987.0,629.0,-5627.0,-3.0,1.0,4.0,1.0,-12.0,14.0,13697.0,-7169.0,2441.0,-4844.0,-3.0,-8.0,-6.0,1.0
2022-05-23 13:40:32.841154-07:00,1226.6,774.5,1051.3,966.2,939.0,838.6,1551.5,1224.8,3468.6,3466.1,1089.5,882.3,1641.6,3463.7,1223.0,1242.6,3480.7,3471.0,1499.5,2003.5,2728.2,3486.8,1748.3,3486.8,3472.2,3469.8,621.4,857.0,1852.8,1005.6,941.5,841.9,14.0,8.0,-17.0,14849.0,-3987.0,629.0,-5627.0,-2.0,-5.0,2.0,2.0,-11.0,15.0,13697.0,-7169.0,2441.0,-4844.0,4.0,-4.0,-4.0,1.0
2022-05-23 13:40:32.901091-07:00,1222.2,774.5,1051.3,966.2,934.7,846.1,1536.6,1216.0,3473.4,3466.1,1089.5,882.3,1650.2,3466.1,1229.3,1247.1,3472.2,3483.2,1505.1,2006.4,2728.2,3486.8,1748.3,3502.7,3477.1,3477.1,623.8,850.3,1852.8,1005.6,941.5,847.0,17.0,15.0,-15.0,14850.0,-3984.0,630.0,-5627.0,3.0,19.0,9.0,1.0,-11.0,16.0,13699.0,-7167.0,2440.0,-4844.0,5.0,2.0,3.0,1.0
2022-05-23 13:40:32.931154-07:00,1222.2,771.1,1059.9,973.9,934.7,846.1,1536.6,1200.0,3473.4,3471.0,1087.7,888.2,1650.2,3466.1,1229.3,1244.4,3466.1,3483.2,1505.1,2006.4,2720.5,3488.0,1751.2,3502.7,3472.2,3477.1,623.8,850.3,1844.0,999.6,938.1,847.0,10.0,15.0,-22.0,14849.0,-3982.0,635.0,-5628.0,12.0,-6.0,2.0,0.0,-7.0,14.0,13699.0,-7166.0,2440.0,-4844.0,5.0,-5.0,2.0,1.0
2022-05-23 13:40:32.991271-07:00,1228.4,771.1,1059.9,973.9,934.7,847.8,1584.2,1200.0,3464.9,3471.0,1087.7,888.2,1637.9,3458.9,1228.4,1244.4,3466.1,3474.6,1503.2,1996.5,2720.5,3488.0,1751.2,3497.8,3472.2,3479.5,608.4,846.1,1844.0,999.6,938.1,842.8,17.0,5.0,-14.0,14850.0,-3982.0,633.0,-5628.0,5.0,-3.0,-1.0,1.0,-15.0,16.0,13699.0,-7166.0,2440.0,-4844.0,3.0,-2.0,-3.0,1.0
2022-05-23 13:40:33.081043-07:00,1228.4,776.1,1058.2,965.4,934.7,847.8,1584.2,1200.0,3464.9,3473.4,1085.1,878.9,1637.9,3458.9,1228.4,1242.6,3473.4,3474.6,1503.2,1996.5,2701.8,3497.8,1752.1,3497.8,3462.5,3479.5,608.4,846.1,1849.8,997.9,935.6,842.8,13.0,12.0,-21.0,14849.0,-3981.0,636.0,-5628.0,-32.0,12.0,4.0,0.0,-10.0,12.0,13698.0,-7169.0,2441.0,-4844.0,-26.0,4.0,-7.0,1.0
2022-05-23 13:40:33.082700-07:00,1221.3,776.1,1058.2,965.4,931.3,848.6,1541.3,1200.0,3469.8,3473.4,1085.1,878.9,1651.1,3466.1,1220.4,1242.6,3473.4,3478.3,1510.6,1990.5,2701.8,3497.8,1752.1,3485.6,3462.5,3467.4,610.0,855.3,1849.8,997.9,935.6,842.8,13.0,9.0,-13.0,14847.0,-3989.0,643.0,-5629.0,4.0,0.0,-4.0,-3.0,-13.0,14.0,13693.0,-7177.0,2443.0,-4844.0,-14.0,4.0,-5.0,1.0
2022-05-23 13:40:33.171101-07:00,1221.3,771.1,1059.1,967.9,931.3,848.6,1553.4,1208.0,3469.8,3464.9,1092.1,890.7,1651.1,3466.1,1227.5,1242.6,3472.2,3472.2,1510.6,1990.5,2712.8,3486.8,1757.0,3485.6,3471.0,3475.9,610.0,855.3,1853.7,994.5,948.3,842.8,22.0,7.0,1.0,14845.0,-3996.0,650.0,-5629.0,-81.0,45.0,21.0,11.0,0.0,26.0,13688.0,-7186.0,2446.0,-4842.0,-51.0,21.0,-9.0,1.0
2022-05-23 13:40:33.172904-07:00,1223.9,772.0,1059.1,967.9,933.0,843.6,1553.4,1208.0,3469.8,3462.5,1092.1,890.7,1644.5,3473.4,1227.5,1242.6,3472.2,3472.2,1507.8,2006.4,2712.8,3486.8,1756.0,3490.5,3471.0,3475.9,612.5,850.3,1853.7,994.5,942.4,843.6,-11.0,27.0,22.0,14832.0,-4032.0,709.0,-5630.0,-257.0,228.0,1.0,-31.0,7.0,30.0,13662.0,-7221.0,2471.0,-4852.0,-204.0,68.0,-74.0,1.0
2022-05-23 13:40:33.231174-07:00,1223.9,772.0,1049.6,971.3,933.0,843.6,1547.8,1208.0,3469.8,3462.5,1085.1,891.5,1644.5,3473.4,1222.2,1244.4,3464.9,3467.4,1507.8,2006.4,2717.2,3495.3,1756.0,3490.5,3478.3,3472.2,612.5,850.3,1853.7,1005.6,942.4,843.6,10.0,-3.0,-27.0,14794.0,-4106.0,877.0,-5652.0,-471.0,393.0,-7.0,-4.0,-22.0,-7.0,13592.0,-7318.0,2506.0,-4886.0,-328.0,-22.0,-165.0,1.0
2022-05-23 13:40:33.291243-07:00,1237.3,768.7,1049.6,971.3,937.3,849.5,1547.8,1208.0,3462.5,3472.2,1085.1,891.5,1644.5,3467.4,1222.2,1244.4,3464.9,3467.4,1516.2,1997.5,2717.2,3495.3,1747.3,3481.9,3478.3,3472.2,608.4,852.0,1853.7,1005.6,940.7,841.9,-19.0,-53.0,-22.0,14721.0,-4289.0,1145.0,-5660.0,-808.0,413.0,195.0,5.0,-80.0,33.0,13503.0,-7479.0,2482.0,-4901.0,-534.0,-198.0,-131.0,1.0
2022-05-23 13:40:33.351101-07:00,1237.3,768.7,1050.4,962.8,937.3,849.5,1559.0,1216.8,3462.5,3472.2,1091.2,885.6,1644.5,3467.4,1229.3,1238.2,3462.5,3471.0,1516.2,1997.5,2709.5,3486.8,1747.3,3481.9,3471.0,3475.9,608.4,852.0,1849.8,1000.5,940.7,841.9,18.0,-15.0,6.0,14698.0,-4402.0,1339.0,-5589.0,118.0,137.0,252.0,25.0,-27.0,16.0,13441.0,-7618.0,2476.0,-4859.0,11.0,-29.0,83.0,1.0
2022-05-23 13:40:33.381219-07:00,1229.3,774.5,1050.4,962.8,926.2,841.1,1559.0,1216.8,3463.7,3471.0,1091.2,885.6,1641.6,3474.6,1229.3,1238.2,3462.5,3471.0,1519.0,2004.5,2709.5,3486.8,1750.2,3475.9,3471.0,3475.9,613.3,857.9,1849.8,1000.5,946.6,837.7,69.0,161.0,-59.0,14706.0,-4416.0,1442.0,-5531.0,-943.0,189.0,34.0,25.0,108.0,-35.0,13432.0,-7646.0,2497.0,-4828.0,-540.0,-47.0,-20.0,1.0
2022-05-23 13:40:33.441283-07:00,1229.3,774.5,1063.4,973.9,926.2,843.6,1560.9,1214.2,3463.7,3471.0,1092.1,883.9,1641.6,3467.4,1223.9,1244.4,3468.6,3480.7,1518.0,2004.5,2721.6,3484.4,1750.2,3475.9,3467.4,3472.2,611.7,857.9,1845.0,1002.2,946.6,837.7,29.0,8.0,35.0,14470.0,-5055.0,1810.0,-5496.0,-2406.0,345.0,-56.0,11.0,-25.0,43.0,13233.0,-8004.0,2531.0,-4780.0,-1376.0,-269.0,-215.0,1.0
2022-05-23 13:40:33.681758-07:00,1242.6,779.4,1059.1,973.9,924.5,843.6,1560.9,1214.2,3463.7,3469.8,1087.7,883.9,1645.4,3467.4,1223.9,1244.4,3468.6,3480.7,1518.0,2007.4,2721.6,3483.2,1760.8,3483.2,3467.4,3472.2,611.7,860.4,1845.0,999.6,933.0,836.1,13.0,178.0,12.0,14165.0,-5757.0,2226.0,-5450.0,-1942.0,369.0,48.0,-9.0,119.0,42.0,12945.0,-8485.0,2615.0,-4693.0,-1483.0,-97.0,-84.0,1.0
2022-05-23 13:40:33.684337-07:00,1242.6,779.4,1059.1,971.3,924.5,844.4,1547.8,1206.2,3463.7,3469.8,1087.7,892.4,1645.4,3474.6,1226.6,1247.1,3479.5,3457.6,1532.0,2007.4,2722.7,3483.2,1760.8,3483.2,3471.0,3472.2,617.3,860.4,1841.1,999.6,933.0,836.1,30.0,120.0,-42.0,13684.0,-6693.0,2760.0,-5363.0,-3720.0,455.0,-283.0,55.0,207.0,-70.0,12450.0,-9219.0,2777.0,-4554.0,-3627.0,-112.0,-47.0,1.0
2022-05-23 13:40:33.685140-07:00,1238.2,781.9,1057.3,971.3,922.0,844.4,1547.8,1206.2,3461.3,3464.9,1091.2,892.4,1644.5,3474.6,1226.6,1247.1,3479.5,3457.6,1532.0,2036.4,2722.7,3501.4,1755.0,3483.2,3471.0,3472.2,617.3,860.4,1841.1,1008.2,944.9,855.3,28.0,0.0,-73.0,12772.0,-8131.0,3435.0,-5236.0,-4612.0,378.0,-395.0,18.0,-58.0,-55.0,11298.0,-10602.0,3243.0,-4226.0,-4575.0,-3.0,-179.0,1.0
2022-05-23 13:40:33.686012-07:00,1238.2,781.9,1057.3,966.2,922.0,848.6,1559.0,1214.2,3461.3,3464.9,1091.2,887.3,1644.5,3478.3,1224.8,1239.1,3472.2,3469.8,1541.3,2036.4,2724.9,3501.4,1755.0,3483.2,3469.8,3464.9,625.4,860.4,1857.6,1008.2,944.9,855.3,-32.0,-83.0,-136.0,11725.0,-9477.0,4020.0,-4999.0,-3396.0,53.0,-177.0,-11.0,-21.0,-82.0,10078.0,-11768.0,3645.0,-3884.0,-3495.0,-15.0,-22.0,1.0
2022-05-23 13:40:33.711204-07:00,1223.9,781.9,1058.2,971.3,938.1,848.6,1559.0,1214.2,3466.1,3464.9,1078.2,887.3,1646.4,3478.3,1224.8,1239.1,3472.2,3469.8,1541.3,2069.5,2723.8,3492.9,1756.0,3477.1,3469.8,3464.9,625.4,865.4,1851.8,1005.6,947.5,835.2,16.0,21.0,-115.0,10814.0,-10507.0,4413.0,-4649.0,-3568.0,-153.0,-64.0,-2.0,7.0,-77.0,9043.0,-12593.0,3931.0,-3553.0,-3081.0,-93.0,-47.0,1.0
2022-05-23 13:40:33.741105-07:00,1223.9,781.9,1058.2,971.3,937.3,843.6,1589.9,1228.4,3466.1,3464.9,1078.2,887.3,1641.6,3464.9,1223.9,1238.2,3475.9,3467.4,1547.8,2099.7,2723.8,3492.9,1756.0,3477.1,3472.2,3483.2,631.1,856.2,1851.8,1005.6,947.5,835.2,11.0,-33.0,5.0,9837.0,-11435.0,4796.0,-4233.0,-2998.0,172.0,102.0,-16.0,5.0,-48.0,8009.0,-13303.0,4144.0,-3182.0,-2825.0,-196.0,-63.0,1.0
2022-05-23 13:40:33.771245-07:00,1228.4,777.8,1062.5,970.5,937.3,843.6,1589.9,1228.4,3469.8,3464.9,1082.5,889.0,1641.6,3464.9,1223.9,1238.2,3475.9,3467.4,1547.8,2099.7,2739.2,3490.5,1764.6,3494.1,3472.2,3483.2,631.1,856.2,1861.5,1005.6,950.0,842.8,-35.0,113.0,-91.0,8859.0,-12177.0,5221.0,-3798.0,-3672.0,-67.0,287.0,-19.0,54.0,3.0,7020.0,-13880.0,4313.0,-2809.0,-3045.0,-190.0,-25.0,1.0
2022-05-23 13:40:33.831325-07:00,1228.4,777.8,1062.5,970.5,932.2,837.7,1585.2,1222.2,3469.8,3464.9,1082.5,889.0,1645.4,3461.3,1224.8,1244.4,3468.6,3467.4,1551.5,2142.2,2739.2,3490.5,1764.6,3494.1,3467.4,3472.2,623.8,862.1,1861.5,1005.6,950.0,842.8,31.0,51.0,0.0,7649.0,-12989.0,5617.0,-3112.0,-3701.0,-289.0,207.0,1.0,53.0,-28.0,5819.0,-14451.0,4495.0,-2355.0,-3248.0,-219.0,-9.0,1.0
2022-05-23 13:40:33.892055-07:00,1237.3,788.6,1058.2,975.6,932.2,837.7,1585.2,1222.2,3468.6,3463.7,1078.2,885.6,1645.4,3461.3,1224.8,1244.4,3468.6,3467.4,1551.5,2142.2,2753.6,3486.8,1763.7,3492.9,3467.4,3472.2,623.8,862.1,1857.6,1018.5,952.6,846.1,-8.0,51.0,18.0,6449.0,-13625.0,5921.0,-2483.0,-3402.0,-81.0,329.0,-10.0,36.0,27.0,4622.0,-14903.0,4620.0,-1906.0,-2989.0,-192.0,-74.0,1.0
2022-05-23 13:40:33.921098-07:00,1237.3,788.6,1058.2,975.6,929.6,845.3,1587.1,1226.6,3468.6,3463.7,1078.2,885.6,1644.5,3467.4,1222.2,1243.5,3479.5,3480.7,1562.7,2162.6,2753.6,3486.8,1763.7,3492.9,3472.2,3474.6,628.6,861.2,1857.6,1018.5,952.6,846.1,81.0,-45.0,65.0,5319.0,-14070.0,6218.0,-1874.0,-2489.0,50.0,314.0,24.0,-28.0,-6.0,3551.0,-15209.0,4709.0,-1530.0,-2364.0,-79.0,-12.0,1.0
2022-05-23 13:40:33.981322-07:00,1239.9,779.4,1061.7,979.9,929.6,845.3,1587.1,1222.2,3462.5,3464.9,1075.6,881.4,1644.5,3467.4,1222.2,1238.2,3473.4,3480.7,1562.7,2162.6,2744.7,3497.8,1776.2,3489.2,3478.3,3474.6,628.6,861.2,1849.8,1021.9,956.0,837.7,26.0,54.0,-9.0,4453.0,-14300.0,6465.0,-1518.0,-2512.0,153.0,378.0,16.0,-22.0,23.0,2775.0,-15378.0,4760.0,-1264.0,-1921.0,-45.0,-78.0,1.0
2022-05-23 13:40:34.041808-07:00,1242.6,779.4,1061.7,979.9,936.4,857.9,1577.7,1222.2,3469.8,3464.9,1075.6,881.4,1645.4,3471.0,1229.3,1238.2,3473.4,3478.3,1553.4,2192.2,2744.7,3497.8,1776.2,3490.5,3478.3,3474.6,630.3,859.5,1849.8,1021.9,956.0,841.1,46.0,-33.0,63.0,3527.0,-14504.0,6666.0,-1083.0,-2205.0,84.0,217.0,24.0,-79.0,0.0,2019.0,-15500.0,4803.0,-1025.0,-1736.0,10.0,-14.0,1.0
2022-05-23 13:40:34.071233-07:00,1242.6,791.0,1066.0,971.3,936.4,857.9,1577.7,1246.2,3469.8,3468.6,1075.6,883.1,1645.4,3471.0,1229.3,1245.3,3479.5,3478.3,1553.4,2192.2,2760.2,3488.0,1771.4,3490.5,3467.4,3474.6,630.3,859.5,1845.0,1023.7,961.1,841.1,18.0,-83.0,11.0,2798.0,-14609.0,6820.0,-826.0,-1382.0,296.0,242.0,12.0,-57.0,-26.0,1485.0,-15563.0,4820.0,-886.0,-1015.0,98.0,25.0,1.0
2022-05-23 13:40:34.131773-07:00,1249.7,791.0,1066.0,971.3,944.1,853.7,1588.9,1246.2,3464.9,3468.6,1075.6,883.1,1640.7,3462.5,1225.7,1245.3,3479.5,3474.6,1563.7,2221.9,2760.2,3488.0,1771.4,3489.2,3467.4,3466.1,637.6,859.5,1845.0,1023.7,961.1,844.4,8.0,-55.0,-64.0,2137.0,-14668.0,6950.0,-640.0,-2000.0,342.0,220.0,-6.0,-68.0,-62.0,985.0,-15606.0,4830.0,-765.0,-1385.0,12.0,-35.0,1.0
2022-05-23 13:40:34.192033-07:00,1249.7,777.8,1063.4,971.3,944.1,853.7,1588.9,1223.9,3464.9,3467.4,1078.2,885.6,1640.7,3462.5,1225.7,1234.6,3468.6,3474.6,1563.7,2221.9,2783.5,3492.9,1772.3,3489.2,3471.0,3466.1,637.6,859.5,1855.7,1025.4,964.5,844.4,37.0,-123.0,25.0,1341.0,-14703.0,7092.0,-397.0,-1433.0,317.0,275.0,20.0,-57.0,24.0,411.0,-15621.0,4892.0,-575.0,-1235.0,-8.0,173.0,1.0
2022-05-23 13:40:34.221204-07:00,1243.5,777.8,1063.4,971.3,939.8,847.8,1607.7,1223.9,3457.6,3467.4,1078.2,885.6,1650.2,3464.9,1227.5,1234.6,3468.6,3475.9,1564.6,2226.0,2783.5,3492.9,1772.3,3489.2,3471.0,3467.4,640.0,859.5,1855.7,1025.4,964.5,844.4,5.0,37.0,20.0,845.0,-14693.0,7194.0,-277.0,-910.0,214.0,121.0,-15.0,7.0,9.0,37.0,-15612.0,4948.0,-475.0,-755.0,42.0,28.0,1.0
2022-05-23 13:40:34.281260-07:00,1243.5,786.1,1062.5,973.9,939.8,847.8,1627.5,1230.2,3457.6,3471.0,1082.5,878.0,1650.2,3464.9,1230.2,1239.1,3467.4,3468.6,1564.6,2226.0,2782.4,3494.1,1766.6,3489.2,3469.8,3471.0,640.0,859.5,1844.0,1025.4,958.5,844.4,-3.0,-32.0,-45.0,527.0,-14688.0,7237.0,-215.0,-418.0,159.0,83.0,-6.0,-2.0,-24.0,-161.0,-15615.0,4941.0,-412.0,-296.0,-33.0,-40.0,1.0
2022-05-23 13:40:34.341686-07:00,1247.1,785.2,1062.5,973.9,939.8,862.1,1627.5,1230.2,3467.4,3467.4,1082.5,878.0,1643.5,3468.6,1230.2,1239.1,3467.4,3468.6,1575.8,2205.5,2782.4,3494.1,1770.4,3481.9,3469.8,3471.0,648.1,852.0,1844.0,1025.4,957.7,844.4,40.0,-59.0,-12.0,361.0,-14676.0,7274.0,-165.0,-328.0,-55.0,73.0,22.0,-29.0,3.0,-237.0,-15617.0,4935.0,-366.0,-151.0,-63.0,11.0,1.0
2022-05-23 13:40:34.401278-07:00,1247.1,785.2,1056.5,976.5,939.8,862.1,1641.6,1221.3,3467.4,3467.4,1078.2,876.4,1643.5,3468.6,1226.6,1234.6,3468.6,3475.9,1575.8,2205.5,2790.1,3494.1,1770.4,3481.9,3468.6,3472.2,648.1,852.0,1855.7,1028.8,957.7,844.4,61.0,42.0,-44.0,297.0,-14678.0,7274.0,-93.0,-191.0,-123.0,-145.0,38.0,7.0,2.0,-266.0,-15617.0,4936.0,-325.0,-101.0,-88.0,-39.0,1.0
2022-05-23 13:40:34.431545-07:00,1238.2,783.6,1056.5,976.5,924.5,857.0,1641.6,1221.3,3467.4,3468.6,1078.2,876.4,1644.5,3464.9,1226.6,1234.6,3468.6,3475.9,1571.1,2201.4,2790.1,3494.1,1778.1,3477.1,3468.6,3472.2,648.1,861.2,1855.7,1028.8,962.8,842.8,8.0,-34.0,2.0,258.0,-14713.0,7204.0,-12.0,-121.0,-151.0,-140.0,0.0,-1.0,-5.0,-275.0,-15629.0,4902.0,-277.0,-33.0,-104.0,-98.0,1.0
2022-05-23 13:40:34.491330-07:00,1238.2,783.6,1058.2,969.6,924.5,857.0,1634.1,1227.5,3467.4,3468.6,1080.8,888.2,1644.5,3464.9,1223.0,1239.1,3477.1,3469.8,1571.1,2201.4,2786.8,3489.2,1778.1,3477.1,3462.5,3478.3,648.1,861.2,1854.7,1032.3,962.8,842.8,0.0,-57.0,24.0,240.0,-14730.0,7170.0,66.0,-179.0,-131.0,-22.0,-6.0,-37.0,15.0,-273.0,-15637.0,4878.0,-232.0,-47.0,-84.0,-34.0,1.0
2022-05-23 13:40:34.581261-07:00,1237.3,781.9,1070.3,969.6,929.6,867.9,1634.1,1227.5,3460.1,3458.9,1080.8,888.2,1645.4,3468.6,1223.0,1239.1,3477.1,3469.8,1563.7,2211.6,2786.8,3491.7,1782.0,3488.0,3462.5,3478.3,645.7,859.5,1854.7,1026.3,960.2,824.4,19.0,-31.0,13.0,190.0,-14732.0,7166.0,151.0,-317.0,-123.0,-6.0,5.0,-8.0,7.0,-315.0,-15639.0,4869.0,-188.0,-218.0,-70.0,-16.0,1.0
2022-05-23 13:40:34.582921-07:00,1237.3,781.9,1070.3,971.3,929.6,869.6,1635.0,1209.7,3460.1,3458.9,1080.8,889.0,1645.4,3467.4,1229.3,1238.2,3467.4,3473.4,1547.8,2211.6,2792.3,3491.7,1782.0,3488.0,3479.5,3480.7,654.6,859.5,1854.7,1026.3,960.2,824.4,29.0,-41.0,52.0,130.0,-14733.0,7164.0,210.0,-68.0,1.0,-7.0,2.0,-15.0,14.0,-342.0,-15639.0,4869.0,-168.0,-50.0,-18.0,6.0,1.0
2022-05-23 13:40:34.671221-07:00,1231.9,777.8,1064.3,971.3,925.4,869.6,1635.0,1209.7,3478.3,3464.9,1086.0,889.0,1644.5,3467.4,1229.3,1238.2,3467.4,3473.4,1547.8,2201.4,2792.3,3502.7,1777.2,3491.7,3479.5,3480.7,654.6,859.5,1854.7,1021.1,960.2,831.1,12.0,-41.0,2.0,98.0,-14730.0,7171.0,199.0,-60.0,69.0,65.0,7.0,-15.0,6.0,-356.0,-15636.0,4878.0,-162.0,-31.0,-1.0,39.0,1.0
2022-05-23 13:40:34.672477-07:00,1231.9,777.8,1064.3,967.9,925.4,874.7,1597.4,1215.1,3478.3,3464.9,1086.0,876.4,1644.5,3468.6,1218.6,1244.4,3469.8,3462.5,1565.5,2201.4,2786.8,3502.7,1777.2,3491.7,3483.2,3462.5,641.6,859.5,1857.6,1021.1,960.2,831.1,15.0,-22.0,-6.0,51.0,-14717.0,7198.0,204.0,-205.0,-16.0,62.0,4.0,-4.0,3.0,-394.0,-15632.0,4888.0,-144.0,-135.0,-38.0,15.0,1.0
2022-05-23 13:40:34.791435-07:00,1242.6,782.7,1070.3,967.9,932.2,874.7,1597.4,1215.1,3466.1,3468.6,1078.2,876.4,1644.5,3468.6,1218.6,1244.4,3469.8,3462.5,1565.5,2190.1,2786.8,3485.6,1776.2,3490.5,3483.2,3462.5,641.6,851.1,1857.6,1028.0,965.4,836.1,27.0,-29.0,28.0,-7.0,-14703.0,7225.0,241.0,-68.0,-12.0,66.0,7.0,-13.0,5.0,-418.0,-15629.0,4898.0,-123.0,-27.0,-30.0,29.0,1.0
2022-05-23 13:40:34.792587-07:00,1242.6,782.7,1070.3,962.0,932.2,879.7,1606.8,1216.8,3466.1,3468.6,1078.2,879.7,1644.5,3469.8,1223.9,1239.1,3464.9,3464.9,1563.7,2190.1,2781.2,3485.6,1776.2,3490.5,3473.4,3478.3,652.2,851.1,1844.0,1028.0,965.4,836.1,24.0,-30.0,35.0,-11.0,-14697.0,7238.0,221.0,122.0,118.0,-8.0,7.0,-18.0,11.0,-395.0,-15624.0,4916.0,-130.0,89.0,10.0,56.0,1.0
2022-05-23 13:40:34.851141-07:00,1234.6,778.6,1055.6,961.1,937.3,879.7,1606.8,1216.8,3472.2,3466.1,1077.3,877.2,1643.5,3469.8,1223.9,1239.1,3464.9,3464.9,1563.7,2182.0,2799.0,3496.6,1772.3,3490.5,3473.4,3478.3,652.2,853.7,1856.7,1019.4,956.8,840.3,6.0,0.0,10.0,76.0,-14707.0,7220.0,95.0,409.0,199.0,-63.0,-10.0,19.0,20.0,-320.0,-15614.0,4950.0,-172.0,212.0,44.0,49.0,1.0
2022-05-23 13:40:34.881290-07:00,1234.6,778.6,1055.6,961.1,928.8,873.8,1611.5,1218.6,3472.2,3466.1,1077.3,877.2,1659.6,3469.8,1216.8,1246.2,3468.6,3469.8,1563.7,2177.9,2799.0,3496.6,1772.3,3490.5,3469.8,3471.0,640.0,851.1,1856.7,1019.4,956.8,840.3,-11.0,-63.0,-13.0,91.0,-14703.0,7229.0,4.0,-153.0,91.0,76.0,3.0,-54.0,10.0,-315.0,-15617.0,4940.0,-177.0,-75.0,11.0,14.0,1.0
2022-05-23 13:40:34.941395-07:00,1238.2,784.4,1052.2,963.7,928.8,873.8,1611.5,1218.6,3472.2,3469.8,1083.4,880.6,1659.6,3469.8,1216.8,1246.2,3468.6,3469.8,1563.7,2177.9,2783.5,3489.2,1776.2,3486.8,3469.8,3471.0,640.0,851.1,1852.8,1019.4,953.4,839.4,30.0,-1.0,6.0,68.0,-14691.0,7253.0,-3.0,19.0,14.0,51.0,11.0,4.0,4.0,-331.0,-15608.0,4968.0,-190.0,-35.0,44.0,80.0,1.0
2022-05-23 13:40:34.971241-07:00,1238.2,784.4,1052.2,963.7,936.4,879.7,1619.9,1216.0,3472.2,3469.8,1083.4,880.6,1652.0,3463.7,1223.9,1240.8,3480.7,3471.0,1579.6,2176.9,2783.5,3489.2,1776.2,3486.8,3473.4,3473.4,644.0,852.8,1852.8,1019.4,953.4,839.4,19.0,-15.0,0.0,54.0,-14683.0,7269.0,-10.0,-47.0,26.0,30.0,9.0,1.0,3.0,-353.0,-15601.0,4988.0,-194.0,-34.0,3.0,19.0,1.0
2022-05-23 13:40:35.061197-07:00,1229.3,772.0,1064.3,970.5,936.4,879.7,1619.9,1216.0,3467.4,3474.6,1086.0,881.4,1652.0,3463.7,1223.9,1240.8,3480.7,3471.0,1579.6,2176.9,2779.0,3491.7,1780.1,3480.7,3473.4,3473.4,644.0,852.8,1845.0,1028.8,961.1,836.9,18.0,-5.0,6.0,40.0,-14676.0,7283.0,-11.0,-44.0,-24.0,25.0,8.0,-4.0,7.0,-360.0,-15600.0,4992.0,-190.0,-6.0,-20.0,-3.0,1.0
2022-05-23 13:40:35.092226-07:00,1231.9,772.0,1064.3,970.5,933.0,887.3,1612.4,1211.5,3466.1,3474.6,1086.0,881.4,1652.0,3463.7,1220.4,1236.4,3469.8,3467.4,1557.1,2168.7,2779.0,3491.7,1780.1,3479.5,3466.1,3471.0,647.3,856.2,1845.0,1028.8,961.1,847.0,19.0,-6.0,6.0,41.0,-14677.0,7282.0,-2.0,-15.0,-39.0,-19.0,2.0,-1.0,4.0,-352.0,-15602.0,4987.0,-185.0,15.0,-17.0,-41.0,1.0
2022-05-23 13:40:35.121252-07:00,1231.9,785.2,1054.8,973.9,933.0,887.3,1612.4,1231.9,3466.1,3473.4,1075.6,880.6,1652.0,3463.7,1220.4,1241.7,3471.0,3467.4,1557.1,2168.7,2774.6,3497.8,1767.5,3479.5,3483.2,3471.0,647.3,856.2,1858.6,1024.5,967.9,847.0,16.0,-37.0,20.0,40.0,-14681.0,7273.0,10.0,-3.0,-29.0,-18.0,7.0,-11.0,8.0,-347.0,-15607.0,4971.0,-179.0,13.0,-9.0,-23.0,1.0
2022-05-23 13:40:35.181293-07:00,1244.4,785.2,1054.8,973.9,939.0,878.9,1614.3,1231.9,3467.4,3473.4,1075.6,880.6,1640.7,3473.4,1222.2,1241.7,3471.0,3475.9,1547.8,2167.7,2774.6,3497.8,1767.5,3485.6,3483.2,3467.4,650.5,834.4,1858.6,1024.5,967.9,836.9,4.0,-28.0,6.0,45.0,-14685.0,7265.0,8.0,-18.0,-2.0,0.0,2.0,-11.0,6.0,-343.0,-15609.0,4965.0,-181.0,1.0,-2.0,-16.0,1.0
2022-05-23 13:40:35.271280-07:00,1244.4,781.1,1053.9,962.8,939.0,878.9,1614.3,1206.2,3467.4,3473.4,1080.8,883.9,1640.7,3473.4,1222.2,1244.4,3475.9,3475.9,1547.8,2167.7,2765.7,3486.8,1773.3,3485.6,3469.8,3467.4,650.5,834.4,1847.9,1035.7,957.7,836.9,7.0,-27.0,14.0,58.0,-14684.0,7268.0,6.0,22.0,-27.0,17.0,-1.0,-12.0,4.0,-340.0,-15608.0,4967.0,-183.0,-5.0,-1.0,33.0,1.0
2022-05-23 13:40:35.272989-07:00,1236.4,781.1,1053.9,962.8,934.7,874.7,1613.4,1206.2,3474.6,3473.4,1080.8,883.9,1641.6,3471.0,1223.9,1244.4,3475.9,3468.6,1559.9,2164.6,2765.7,3486.8,1773.3,3488.0,3469.8,3474.6,643.2,841.9,1847.9,1035.7,957.7,839.4,12.0,-25.0,22.0,78.0,-14678.0,7278.0,-4.0,60.0,31.0,35.0,0.0,-9.0,7.0,-336.0,-15603.0,4984.0,-187.0,22.0,25.0,50.0,1.0
2022-05-23 13:40:35.391646-07:00,1236.4,780.3,1053.9,966.2,934.7,874.7,1613.4,1221.3,3474.6,3467.4,1080.8,875.5,1641.6,3471.0,1223.9,1238.2,3479.5,3468.6,1559.9,2164.6,2770.2,3488.0,1770.4,3488.0,3472.2,3474.6,643.2,841.9,1855.7,1028.8,962.8,839.4,13.0,-12.0,10.0,79.0,-14669.0,7297.0,-33.0,-32.0,62.0,35.0,0.0,-3.0,-1.0,-342.0,-15598.0,4999.0,-197.0,-40.0,32.0,28.0,1.0
2022-05-23 13:40:35.392791-07:00,1232.8,783.6,1053.9,966.2,935.6,877.2,1613.4,1221.3,3462.5,3466.1,1080.8,875.5,1649.2,3467.4,1224.8,1238.2,3479.5,3467.4,1562.7,2162.6,2770.2,3488.0,1774.3,3490.5,3472.2,3474.6,647.3,846.1,1855.7,1028.8,967.9,840.3,12.0,-21.0,2.0,73.0,-14663.0,7310.0,-55.0,44.0,24.0,31.0,9.0,-5.0,3.0,-356.0,-15593.0,5013.0,-211.0,-6.0,43.0,44.0,1.0
2022-05-23 13:40:35.421404-07:00,1232.8,783.6,1054.8,956.0,935.6,877.2,1611.5,1224.8,3462.5,3466.1,1081.6,876.4,1649.2,3467.4,1228.4,1244.4,3471.0,3472.2,1562.7,2162.6,2776.8,3492.9,1774.3,3490.5,3462.5,3473.4,647.3,846.1,1853.7,1033.2,967.9,840.3,23.0,7.0,-3.0,78.0,-14657.0,7321.0,-71.0,-57.0,24.0,23.0,16.0,4.0,0.0,-364.0,-15589.0,5025.0,-221.0,-39.0,3.0,7.0,1.0
2022-05-23 13:40:35.481356-07:00,1228.4,780.3,1054.8,956.0,928.8,871.3,1611.5,1224.8,3456.4,3466.1,1081.6,876.4,1642.6,3468.6,1228.4,1244.4,3471.0,3472.2,1555.3,2163.6,2776.8,3492.9,1773.3,3477.1,3462.5,3473.4,645.7,847.8,1853.7,1033.2,969.6,841.9,20.0,-20.0,17.0,67.0,-14658.0,7319.0,-71.0,80.0,0.0,-41.0,9.0,-7.0,3.0,-369.0,-15589.0,5024.0,-222.0,44.0,-4.0,-4.0,1.0
2022-05-23 13:40:35.541448-07:00,1228.4,780.3,1056.5,962.0,928.8,871.3,1608.7,1203.5,3456.4,3466.1,1078.2,880.6,1642.6,3468.6,1227.5,1239.1,3475.9,3467.4,1555.3,2163.6,2775.7,3495.3,1773.3,3477.1,3468.6,3473.4,645.7,847.8,1847.9,1026.3,969.6,841.9,2.0,10.0,-2.0,93.0,-14662.0,7310.0,-106.0,-85.0,68.0,19.0,-1.0,-5.0,0.0,-342.0,-15592.0,5016.0,-229.0,-2.0,-18.0,-50.0,1.0
2022-05-23 13:40:35.571388-07:00,1239.9,779.4,1056.5,962.0,931.3,878.0,1608.7,1203.5,3463.7,3466.1,1078.2,880.6,1648.3,3474.6,1227.5,1239.1,3475.9,3467.4,1557.1,2139.2,2775.7,3495.3,1759.8,3485.6,3468.6,3473.4,647.3,857.9,1847.9,1026.3,959.4,840.3,8.0,-38.0,14.0,56.0,-14657.0,7321.0,-105.0,14.0,10.0,24.0,2.0,-32.0,5.0,-362.0,-15592.0,5014.0,-223.0,-27.0,24.0,42.0,1.0
2022-05-23 13:40:35.631340-07:00,1239.9,779.4,1062.5,962.8,931.3,884.8,1617.1,1224.8,3463.7,3466.1,1084.2,885.6,1648.3,3467.4,1226.6,1246.2,3468.6,3478.3,1559.9,2139.2,2772.4,3491.7,1759.8,3485.6,3473.4,3471.0,638.4,857.9,1848.9,1021.1,959.4,840.3,8.0,0.0,-6.0,60.0,-14652.0,7331.0,-123.0,-26.0,48.0,24.0,3.0,-6.0,2.0,-370.0,-15586.0,5033.0,-236.0,-31.0,25.0,28.0,1.0
2022-05-23 13:40:35.691422-07:00,1232.8,771.1,1058.2,962.8,932.2,884.8,1617.1,1224.8,3468.6,3469.8,1084.2,885.6,1644.5,3467.4,1226.6,1246.2,3468.6,3478.3,1559.9,2165.6,2772.4,3494.1,1765.6,3486.8,3473.4,3471.0,638.4,843.6,1848.9,1037.5,966.2,837.7,15.0,-5.0,-1.0,60.0,-14649.0,7337.0,-131.0,29.0,-22.0,13.0,8.0,0.0,3.0,-377.0,-15582.0,5045.0,-241.0,10.0,5.0,27.0,1.0
2022-05-23 13:40:35.721143-07:00,1232.8,771.1,1058.2,960.2,932.2,875.5,1601.1,1222.2,3468.6,3469.8,1084.2,885.6,1644.5,3467.4,1227.5,1238.2,3473.4,3466.1,1558.1,2165.6,2799.0,3494.1,1765.6,3486.8,3471.0,3460.1,640.8,843.6,1853.7,1037.5,966.2,837.7,14.0,-4.0,3.0,77.0,-14648.0,7338.0,-139.0,32.0,4.0,-5.0,4.0,1.0,3.0,-364.0,-15580.0,5049.0,-244.0,36.0,-9.0,-4.0,1.0
2022-05-23 13:40:35.871450-07:00,1229.3,797.7,1056.5,960.2,931.3,875.5,1601.1,1222.2,3463.7,3464.9,1082.5,885.6,1640.7,3467.4,1227.5,1238.2,3473.4,3466.1,1558.1,2141.2,2799.0,3507.5,1763.7,3481.9,3471.0,3460.1,640.8,852.0,1853.7,1031.4,956.8,835.2,5.0,-19.0,8.0,102.0,-14649.0,7336.0,-150.0,70.0,-18.0,4.0,5.0,-6.0,3.0,-346.0,-15580.0,5050.0,-251.0,47.0,-2.0,15.0,1.0
2022-05-23 13:40:35.872691-07:00,1229.3,797.7,1056.5,959.4,931.3,873.8,1594.6,1218.6,3463.7,3464.9,1082.5,882.3,1640.7,3471.0,1226.6,1246.2,3473.4,3472.2,1540.3,2141.2,2773.5,3507.5,1763.7,3481.9,3473.4,3472.2,643.2,852.0,1854.7,1031.4,956.8,835.2,1.0,-25.0,8.0,115.0,-14646.0,7342.0,-159.0,7.0,15.0,22.0,0.0,-13.0,4.0,-341.0,-15579.0,5055.0,-252.0,-11.0,-1.0,18.0,1.0
2022-05-23 13:40:35.901896-07:00,1237.3,777.8,1056.5,959.4,925.4,873.8,1594.6,1218.6,3469.8,3464.9,1078.2,882.3,1646.4,3471.0,1226.6,1246.2,3473.4,3472.2,1540.3,2158.5,2773.5,3486.8,1763.7,3491.7,3473.4,3472.2,643.2,846.1,1854.7,1032.3,951.7,841.9,15.0,3.0,11.0,126.0,-14644.0,7345.0,-171.0,11.0,37.0,-4.0,3.0,0.0,2.0,-342.0,-15575.0,5066.0,-255.0,-8.0,11.0,22.0,1.0
2022-05-23 13:40:35.931339-07:00,1237.3,777.8,1056.5,958.5,934.7,877.2,1599.3,1223.0,3469.8,3464.9,1078.2,878.0,1643.5,3471.0,1223.9,1240.8,3473.4,3471.0,1559.9,2159.5,2761.3,3486.8,1763.7,3491.7,3472.2,3468.6,643.2,847.8,1841.1,1032.3,951.7,841.9,4.0,-8.0,0.0,126.0,-14643.0,7346.0,-195.0,49.0,37.0,10.0,4.0,-4.0,3.0,-342.0,-15575.0,5067.0,-257.0,21.0,10.0,2.0,1.0
2022-05-23 13:40:35.991518-07:00,1235.5,781.9,1053.9,964.5,934.7,877.2,1599.3,1223.0,3462.5,3469.8,1083.4,886.5,1643.5,3471.0,1223.9,1240.8,3473.4,3471.0,1559.9,2159.5,2762.4,3486.8,1760.8,3491.7,3472.2,3468.6,643.2,847.8,1854.7,1039.2,962.0,842.8,6.0,-29.0,15.0,132.0,-14642.0,7347.0,-213.0,37.0,42.0,13.0,3.0,-16.0,8.0,-344.0,-15575.0,5067.0,-263.0,-5.0,18.0,7.0,1.0
2022-05-23 13:40:36.021273-07:00,1235.5,781.9,1053.9,964.5,939.8,876.4,1612.4,1207.1,3462.5,3469.8,1083.4,886.5,1642.6,3468.6,1223.9,1245.3,3477.1,3467.4,1586.1,2192.2,2762.4,3486.8,1760.8,3491.7,3473.4,3477.1,644.9,842.8,1854.7,1039.2,962.0,842.8,-4.0,-14.0,-2.0,151.0,-14635.0,7359.0,-248.0,20.0,23.0,36.0,0.0,-20.0,6.0,-349.0,-15571.0,5079.0,-278.0,-7.0,40.0,46.0,1.0
2022-05-23 13:40:36.081399-07:00,1231.0,777.8,1057.3,959.4,939.8,876.4,1612.4,1207.1,3469.8,3473.4,1080.8,887.3,1642.6,3468.6,1223.9,1245.3,3477.1,3467.4,1586.1,2192.2,2763.5,3483.2,1753.1,3495.3,3473.4,3477.1,644.9,842.8,1844.0,1021.1,966.2,839.4,15.0,2.0,9.0,155.0,-14632.0,7365.0,-252.0,25.0,11.0,5.0,6.0,4.0,4.0,-368.0,-15562.0,5102.0,-288.0,-32.0,25.0,50.0,1.0
2022-05-23 13:40:36.111471-07:00,1231.0,777.8,1057.3,959.4,935.6,882.3,1599.3,1212.4,3469.8,3473.4,1080.8,887.3,1646.4,3468.6,1223.9,1236.4,3467.4,3479.5,1551.5,2157.5,2763.5,3483.2,1753.1,3495.3,3462.5,3472.2,644.0,847.0,1844.0,1021.1,966.2,839.4,15.0,4.0,-5.0,160.0,-14632.0,7366.0,-263.0,24.0,-4.0,1.0,13.0,7.0,0.0,-371.0,-15559.0,5113.0,-292.0,2.0,1.0,13.0,1.0
2022-05-23 13:40:36.201468-07:00,1239.1,778.6,1056.5,965.4,935.6,882.3,1599.3,1222.2,3472.2,3471.0,1075.6,878.9,1646.4,3468.6,1223.9,1242.6,3475.9,3479.5,1551.5,2157.5,2765.7,3497.8,1756.0,3486.8,3457.6,3472.2,644.0,847.0,1845.0,1033.2,967.1,840.3,16.0,-12.0,15.0,174.0,-14632.0,7365.0,-269.0,51.0,-12.0,9.0,7.0,-6.0,1.0,-364.0,-15559.0,5114.0,-292.0,27.0,-13.0,15.0,1.0
2022-05-23 13:40:36.231357-07:00,1230.2,778.6,1056.5,965.4,924.5,880.6,1597.4,1222.2,3469.8,3471.0,1075.6,878.9,1660.6,3463.7,1223.9,1242.6,3475.9,3473.4,1552.5,2151.4,2765.7,3497.8,1756.0,3488.0,3457.6,3472.2,647.3,845.3,1845.0,1033.2,967.1,838.6,-9.0,-22.0,-4.0,183.0,-14629.0,7369.0,-281.0,-33.0,2.0,20.0,0.0,-19.0,8.0,-363.0,-15556.0,5121.0,-288.0,-34.0,-5.0,22.0,1.0
2022-05-23 13:40:36.261453-07:00,1230.2,783.6,1056.5,973.1,924.5,880.6,1597.4,1203.5,3469.8,3466.1,1084.2,879.7,1660.6,3463.7,1223.9,1237.3,3473.4,3473.4,1552.5,2151.4,2781.2,3490.5,1757.9,3488.0,3475.9,3472.2,647.3,845.3,1851.8,1031.4,961.1,838.6,5.0,-17.0,19.0,188.0,-14625.0,7377.0,-266.0,-16.0,-36.0,37.0,0.0,-12.0,9.0,-378.0,-15550.0,5139.0,-285.0,-56.0,14.0,53.0,1.0
2022-05-23 13:40:36.322187-07:00,1231.9,783.6,1056.5,973.1,926.2,878.0,1611.5,1203.5,3464.9,3466.1,1084.2,879.7,1644.5,3464.9,1226.6,1237.3,3473.4,3473.4,1580.5,2153.4,2781.2,3490.5,1757.9,3480.7,3475.9,3462.5,645.7,847.8,1851.8,1031.4,961.1,844.4,11.0,-3.0,10.0,179.0,-14616.0,7397.0,-265.0,-29.0,60.0,63.0,4.0,-2.0,5.0,-407.0,-15540.0,5166.0,-285.0,-64.0,21.0,65.0,1.0
2022-05-23 13:40:36.381465-07:00,1231.9,780.3,1060.8,976.5,926.2,878.0,1611.5,1210.6,3464.9,3475.9,1079.0,874.7,1644.5,3464.9,1226.6,1244.4,3478.3,3473.4,1580.5,2153.4,2765.7,3479.5,1759.8,3480.7,3480.7,3462.5,645.7,847.8,1844.0,1028.0,972.2,844.4,13.0,1.0,-11.0,160.0,-14604.0,7420.0,-280.0,-10.0,2.0,32.0,9.0,3.0,0.0,-430.0,-15532.0,5188.0,-287.0,-35.0,14.0,46.0,1.0
2022-05-23 13:40:36.411504-07:00,1230.2,780.3,1060.8,976.5,933.0,882.3,1616.2,1210.6,3471.0,3475.9,1079.0,874.7,1632.2,3478.3,1223.9,1244.4,3478.3,3468.6,1549.7,2135.1,2765.7,3479.5,1759.8,3484.4,3480.7,3467.4,644.9,835.2,1844.0,1028.0,972.2,832.7,16.0,7.0,0.0,156.0,-14602.0,7424.0,-281.0,3.0,5.0,-4.0,3.0,7.0,1.0,-439.0,-15529.0,5197.0,-287.0,1.0,-8.0,1.0,1.0
2022-05-23 13:40:36.471351-07:00,1230.2,778.6,1060.8,962.8,933.0,882.3,1612.4,1221.3,3471.0,3460.1,1078.2,879.7,1632.2,3478.3,1229.3,1242.6,3475.9,3479.5,1549.7,2135.1,2767.9,3492.9,1759.8,3484.4,3474.6,3471.0,644.9,835.2,1853.7,1032.3,956.0,832.7,4.0,-5.0,2.0,160.0,-14603.0,7422.0,-289.0,45.0,0.0,-20.0,3.0,-1.0,4.0,-425.0,-15531.0,5192.0,-285.0,35.0,-21.0,-14.0,1.0
2022-05-23 13:40:36.531445-07:00,1220.4,771.1,1060.8,962.8,933.9,878.0,1612.4,1221.3,3460.1,3469.8,1078.2,879.7,1643.5,3457.6,1229.3,1242.6,3475.9,3479.5,1547.8,2145.3,2767.9,3492.9,1764.6,3485.6,3474.6,3471.0,638.4,841.1,1853.7,1032.3,967.9,861.2,4.0,-26.0,12.0,178.0,-14605.0,7418.0,-298.0,23.0,-2.0,9.0,6.0,-18.0,4.0,-412.0,-15532.0,5190.0,-286.0,20.0,0.0,7.0,1.0
2022-05-23 13:40:36.561513-07:00,1220.4,771.1,1057.3,972.2,933.9,878.0,1607.7,1224.8,3460.1,3469.8,1082.5,882.3,1643.5,3457.6,1231.0,1238.2,3466.1,3467.4,1547.8,2145.3,2763.5,3494.1,1764.6,3485.6,3466.1,3478.3,638.4,841.1,1847.9,1026.3,967.9,861.2,5.0,-1.0,8.0,189.0,-14601.0,7424.0,-309.0,-24.0,29.0,30.0,2.0,-8.0,4.0,-409.0,-15529.0,5200.0,-288.0,-45.0,3.0,39.0,1.0
2022-05-23 13:40:36.621374-07:00,1223.9,781.1,1057.3,972.2,928.8,872.1,1607.7,1224.8,3468.6,3467.4,1082.5,882.3,1647.3,3468.6,1231.0,1238.2,3466.1,3467.4,1552.5,2150.4,2763.5,3494.1,1762.7,3480.7,3466.1,3478.3,641.6,848.6,1847.9,1026.3,962.8,847.0,0.0,-5.0,0.0,169.0,-14596.0,7434.0,-309.0,-5.0,-8.0,16.0,3.0,-4.0,1.0,-432.0,-15524.0,5214.0,-283.0,-19.0,19.0,25.0,1.0
2022-05-23 13:40:36.681486-07:00,1223.9,781.1,1064.3,961.1,928.8,872.1,1607.7,1203.5,3468.6,3467.4,1069.5,878.9,1647.3,3468.6,1223.9,1239.9,3467.4,3472.2,1552.5,2150.4,2770.2,3491.7,1762.7,3480.7,3469.8,3477.1,641.6,848.6,1848.9,1029.7,962.8,847.0,13.0,9.0,4.0,178.0,-14595.0,7436.0,-314.0,39.0,19.0,-1.0,6.0,3.0,0.0,-431.0,-15521.0,5222.0,-288.0,28.0,-2.0,4.0,1.0
2022-05-23 13:40:36.711474-07:00,1221.3,771.1,1057.3,961.1,933.9,873.0,1607.7,1203.5,3468.6,3467.4,1079.0,878.9,1641.6,3461.3,1223.9,1239.9,3467.4,3472.2,1537.6,2146.3,2770.2,3490.5,1756.0,3489.2,3469.8,3477.1,643.2,840.3,1848.9,1030.6,969.6,834.4,3.0,-3.0,1.0,191.0,-14597.0,7432.0,-321.0,9.0,-29.0,-15.0,6.0,-2.0,3.0,-418.0,-15522.0,5220.0,-289.0,23.0,-19.0,-21.0,1.0
2022-05-23 13:40:36.801486-07:00,1221.3,771.1,1057.3,964.5,933.9,871.3,1615.2,1213.3,3468.6,3467.4,1079.0,880.6,1641.6,3468.6,1231.9,1246.2,3473.4,3468.6,1557.1,2146.3,2756.9,3490.5,1756.0,3489.2,3478.3,3468.6,645.7,840.3,1857.6,1030.6,969.6,834.4,4.0,-22.0,10.0,197.0,-14600.0,7426.0,-315.0,-11.0,-6.0,5.0,6.0,-15.0,6.0,-410.0,-15525.0,5212.0,-282.0,1.0,-16.0,-11.0,1.0
2022-05-23 13:40:36.831383-07:00,1223.9,782.7,1054.8,964.5,929.6,871.3,1615.2,1213.3,3462.5,3468.6,1072.9,880.6,1640.7,3468.6,1231.9,1246.2,3473.4,3468.6,1557.1,2149.3,2756.9,3486.8,1757.0,3486.8,3478.3,3468.6,645.7,841.9,1857.6,1034.0,966.2,843.6,-1.0,-16.0,6.0,199.0,-14598.0,7430.0,-317.0,-5.0,-4.0,2.0,6.0,-15.0,5.0,-409.0,-15525.0,5213.0,-280.0,-16.0,9.0,17.0,1.0
2022-05-23 13:40:36.861495-07:00,1223.9,782.7,1054.8,961.1,929.6,863.7,1607.7,1193.8,3462.5,3468.6,1072.9,882.3,1640.7,3478.3,1223.9,1246.2,3472.2,3468.6,1552.5,2149.3,2763.5,3486.8,1757.0,3486.8,3473.4,3478.3,639.2,841.9,1856.7,1034.0,966.2,843.6,4.0,0.0,13.0,210.0,-14598.0,7430.0,-322.0,53.0,13.0,-7.0,0.0,-2.0,3.0,-409.0,-15522.0,5220.0,-286.0,24.0,12.0,12.0,1.0
2022-05-23 13:40:36.921513-07:00,1227.5,790.2,1055.6,961.1,932.2,863.7,1607.7,1193.8,3469.8,3468.6,1079.9,882.3,1651.1,3478.3,1223.9,1246.2,3472.2,3468.6,1552.5,2143.3,2763.5,3499.0,1750.2,3492.9,3473.4,3478.3,639.2,838.6,1856.7,1025.4,964.5,841.9,-4.0,-2.0,-9.0,222.0,-14598.0,7428.0,-343.0,8.0,20.0,0.0,0.0,-5.0,3.0,-401.0,-15521.0,5223.0,-292.0,10.0,-5.0,-6.0,1.0
2022-05-23 13:40:36.981457-07:00,1227.5,790.2,1055.6,955.1,932.2,875.5,1604.9,1213.3,3469.8,3468.6,1079.9,889.0,1651.1,3469.8,1222.2,1236.4,3478.3,3471.0,1547.8,2143.3,2764.6,3499.0,1750.2,3492.9,3468.6,3475.9,645.7,838.6,1846.9,1025.4,964.5,841.9,7.0,5.0,0.0,226.0,-14598.0,7427.0,-338.0,-9.0,-57.0,-19.0,9.0,-2.0,4.0,-397.0,-15521.0,5223.0,-293.0,2.0,-10.0,-7.0,1.0
2022-05-23 13:40:37.011445-07:00,1223.0,786.1,1051.3,967.1,936.4,875.5,1604.9,1213.3,3462.5,3466.1,1077.3,878.0,1642.6,3469.8,1222.2,1236.4,3478.3,3471.0,1547.8,2144.3,2766.8,3491.7,1751.2,3490.5,3468.6,3475.9,645.7,845.3,1853.7,1024.5,974.8,834.4,17.0,-10.0,8.0,231.0,-14605.0,7415.0,-308.0,-28.0,-65.0,-32.0,8.0,-5.0,1.0,-402.0,-15524.0,5216.0,-289.0,-21.0,-12.0,-19.0,1.0
2022-05-23 13:40:37.071892-07:00,1223.0,786.1,1051.3,967.1,928.8,869.6,1586.1,1213.3,3462.5,3466.1,1077.3,878.0,1639.8,3466.1,1223.9,1239.1,3481.9,3475.9,1556.2,2139.2,2766.8,3491.7,1751.2,3490.5,3467.4,3466.1,640.8,841.9,1853.7,1024.5,974.8,834.4,10.0,0.0,9.0,237.0,-14607.0,7410.0,-308.0,8.0,39.0,6.0,6.0,-2.0,6.0,-397.0,-15525.0,5212.0,-288.0,26.0,-8.0,-10.0,1.0
2022-05-23 13:40:37.131349-07:00,1228.4,781.1,1062.5,962.0,928.8,869.6,1586.1,1213.3,3474.6,3483.2,1077.3,881.4,1639.8,3466.1,1223.9,1239.1,3481.9,3475.9,1556.2,2139.2,2763.5,3481.9,1757.9,3491.7,3467.4,3466.1,640.8,841.9,1842.0,1040.9,962.8,836.9,2.0,0.0,-1.0,230.0,-14605.0,7414.0,-318.0,-14.0,-10.0,4.0,5.0,-6.0,2.0,-391.0,-15526.0,5209.0,-289.0,7.0,-11.0,-9.0,1.0
2022-05-23 13:40:37.162036-07:00,1228.4,781.1,1062.5,962.0,934.7,867.1,1599.3,1197.4,3474.6,3483.2,1077.3,881.4,1641.6,3461.3,1227.5,1243.5,3473.4,3473.4,1545.0,2145.3,2763.5,3481.9,1757.9,3491.7,3478.3,3474.6,635.9,845.3,1842.0,1040.9,962.8,836.9,5.0,-4.0,7.0,235.0,-14605.0,7414.0,-314.0,22.0,-9.0,-7.0,0.0,-8.0,6.0,-383.0,-15527.0,5208.0,-292.0,36.0,-4.0,-8.0,1.0
2022-05-23 13:40:37.221344-07:00,1229.3,775.3,1051.3,963.7,934.7,867.1,1599.3,1197.4,3468.6,3474.6,1075.6,879.7,1641.6,3461.3,1227.5,1243.5,3473.4,3473.4,1545.0,2145.3,2779.0,3490.5,1756.0,3495.3,3478.3,3474.6,635.9,845.3,1851.8,1042.6,970.5,841.9,-1.0,1.0,0.0,257.0,-14609.0,7406.0,-324.0,59.0,-10.0,-23.0,1.0,-2.0,4.0,-359.0,-15529.0,5203.0,-300.0,60.0,-7.0,-17.0,1.0
2022-05-23 13:40:37.281764-07:00,1229.3,775.3,1051.3,963.7,929.6,864.6,1602.1,1206.2,3469.8,3474.6,1075.6,879.7,1654.9,3463.7,1228.4,1244.4,3474.6,3471.0,1542.2,2154.4,2779.0,3490.5,1756.0,3497.8,3477.1,3471.0,637.6,841.1,1851.8,1042.6,970.5,842.8,6.0,7.0,3.0,279.0,-14617.0,7388.0,-329.0,74.0,-15.0,-57.0,2.0,3.0,3.0,-335.0,-15533.0,5193.0,-304.0,72.0,-9.0,-32.0,1.0
2022-05-23 13:40:37.311571-07:00,1229.3,767.8,1053.9,968.8,929.6,864.6,1602.1,1217.7,3469.8,3464.9,1072.1,878.9,1654.9,3463.7,1228.4,1237.3,3475.9,3471.0,1542.2,2154.4,2754.7,3489.2,1757.0,3497.8,3467.4,3471.0,637.6,841.1,1853.7,1053.9,967.1,842.8,0.0,-18.0,8.0,304.0,-14626.0,7370.0,-338.0,57.0,-7.0,-32.0,2.0,-14.0,5.0,-299.0,-15541.0,5170.0,-309.0,81.0,-20.0,-54.0,1.0
2022-05-23 13:40:37.371361-07:00,1231.9,767.8,1053.9,968.8,927.1,879.7,1601.1,1217.7,3468.6,3464.9,1072.1,878.9,1642.6,3466.1,1231.9,1237.3,3475.9,3473.4,1559.0,2143.3,2754.7,3489.2,1757.0,3488.0,3467.4,3477.1,640.0,839.4,1853.7,1053.9,967.1,843.6,-6.0,-8.0,14.0,333.0,-14631.0,7358.0,-352.0,55.0,-4.0,-24.0,-4.0,-16.0,6.0,-265.0,-15547.0,5154.0,-313.0,54.0,-15.0,-28.0,1.0
2022-05-23 13:40:37.461541-07:00,1231.9,776.9,1054.8,967.1,927.1,879.7,1601.1,1216.8,3468.6,3472.2,1077.3,878.0,1642.6,3466.1,1231.9,1242.6,3477.1,3473.4,1559.0,2143.3,2748.0,3492.9,1756.0,3488.0,3468.6,3477.1,640.0,839.4,1853.7,1036.6,976.5,843.6,-1.0,-7.0,0.0,345.0,-14631.0,7356.0,-369.0,11.0,36.0,8.0,1.0,-13.0,5.0,-250.0,-15549.0,5149.0,-315.0,11.0,1.0,-5.0,1.0
2022-05-23 13:40:37.462624-07:00,1223.9,776.9,1054.8,967.1,927.9,872.1,1590.8,1216.8,3473.4,3472.2,1077.3,878.0,1640.7,3460.1,1241.7,1242.6,3477.1,3475.9,1546.9,2137.2,2748.0,3492.9,1756.0,3495.3,3468.6,3473.4,644.0,837.7,1853.7,1036.6,976.5,843.6,4.0,0.0,5.0,344.0,-14630.0,7359.0,-373.0,-8.0,-8.0,19.0,4.0,0.0,2.0,-252.0,-15549.0,5149.0,-314.0,-7.0,2.0,3.0,1.0
2022-05-23 13:40:37.521533-07:00,1223.9,782.7,1057.3,966.2,927.9,872.1,1590.8,1217.7,3473.4,3461.3,1074.7,878.9,1640.7,3460.1,1241.7,1247.1,3478.3,3475.9,1546.9,2137.2,2753.6,3486.8,1749.3,3495.3,3474.6,3473.4,644.0,837.7,1848.9,1040.1,973.9,843.6,5.0,-2.0,2.0,336.0,-14628.0,7363.0,-368.0,-19.0,6.0,5.0,3.0,-4.0,5.0,-256.0,-15549.0,5149.0,-313.0,-10.0,-4.0,-5.0,1.0
2022-05-23 13:40:37.581385-07:00,1219.5,775.3,1057.3,966.2,922.0,872.1,1604.0,1217.7,3480.7,3480.7,1074.7,878.9,1644.5,3467.4,1223.9,1247.1,3478.3,3479.5,1547.8,2145.3,2753.6,3486.8,1748.3,3481.9,3474.6,3479.5,644.0,830.2,1848.9,1040.1,970.5,836.1,-1.0,-2.0,0.0,323.0,-14628.0,7364.0,-361.0,-58.0,-16.0,-9.0,5.0,0.0,5.0,-260.0,-15550.0,5145.0,-312.0,-24.0,-7.0,-24.0,1.0
2022-05-23 13:40:37.612063-07:00,1219.5,775.3,1052.2,956.0,922.0,872.1,1593.6,1216.8,3480.7,3480.7,1077.3,882.3,1644.5,3467.4,1225.7,1244.4,3477.1,3467.4,1547.8,2145.3,2764.6,3495.3,1748.3,3481.9,3472.2,3471.0,644.0,830.2,1852.8,1032.3,970.5,836.1,4.0,-5.0,12.0,331.0,-14632.0,7356.0,-352.0,64.0,-15.0,-20.0,0.0,-12.0,6.0,-257.0,-15552.0,5140.0,-307.0,41.0,-16.0,-1.0,1.0
2022-05-23 13:40:37.671601-07:00,1223.0,786.1,1052.2,956.0,927.1,867.1,1593.6,1216.8,3469.8,3468.6,1077.3,882.3,1641.6,3461.3,1225.7,1244.4,3477.1,3467.4,1545.0,2146.3,2764.6,3495.3,1757.0,3491.7,3472.2,3471.0,640.8,832.7,1852.8,1032.3,973.9,847.0,-4.0,-16.0,6.0,340.0,-14632.0,7355.0,-358.0,-11.0,2.0,25.0,2.0,-9.0,4.0,-247.0,-15552.0,5140.0,-309.0,-2.0,-3.0,-6.0,1.0
2022-05-23 13:40:37.731470-07:00,1223.0,786.1,1047.0,957.7,927.1,867.1,1590.8,1201.8,3469.8,3468.6,1079.0,877.2,1641.6,3461.3,1222.2,1239.1,3471.0,3473.4,1545.0,2146.3,2765.7,3502.7,1757.0,3491.7,3467.4,3468.6,640.8,832.7,1861.5,1038.3,973.9,847.0,-2.0,-6.0,12.0,338.0,-14626.0,7366.0,-358.0,-5.0,13.0,20.0,-2.0,-14.0,7.0,-257.0,-15549.0,5149.0,-310.0,-30.0,16.0,47.0,1.0
2022-05-23 13:40:37.791748-07:00,1229.3,789.4,1047.0,957.7,925.4,868.8,1590.8,1201.8,3469.8,3469.8,1079.0,877.2,1643.5,3473.4,1222.2,1239.1,3471.0,3473.4,1544.1,2137.2,2765.7,3502.7,1750.2,3486.8,3467.4,3468.6,645.7,841.1,1861.5,1038.3,973.9,831.1,-1.0,4.0,2.0,337.0,-14621.0,7377.0,-363.0,-2.0,5.0,25.0,-1.0,-6.0,2.0,-270.0,-15543.0,5165.0,-312.0,-27.0,10.0,30.0,1.0
2022-05-23 13:40:37.821486-07:00,1229.3,789.4,1061.7,962.0,925.4,867.9,1597.4,1220.4,3469.8,3469.8,1074.7,873.8,1643.5,3472.2,1229.3,1231.0,3460.1,3473.4,1550.6,2137.2,2749.1,3488.0,1750.2,3486.8,3471.0,3471.0,639.2,841.1,1849.8,1032.3,973.9,831.1,8.0,1.0,4.0,332.0,-14616.0,7386.0,-366.0,-21.0,22.0,28.0,8.0,5.0,5.0,-279.0,-15540.0,5174.0,-309.0,-25.0,0.0,14.0,1.0
2022-05-23 13:40:37.881631-07:00,1219.5,786.1,1051.3,962.0,933.0,867.9,1597.4,1220.4,3469.8,3471.0,1077.3,873.8,1645.4,3472.2,1229.3,1231.0,3460.1,3473.4,1550.6,2143.3,2749.1,3494.1,1757.0,3488.0,3471.0,3471.0,639.2,833.6,1849.8,1028.8,966.2,846.1,3.0,5.0,-1.0,322.0,-14610.0,7398.0,-372.0,-6.0,11.0,24.0,3.0,-7.0,5.0,-287.0,-15538.0,5181.0,-306.0,-14.0,-2.0,18.0,1.0
2022-05-23 13:40:37.941755-07:00,1219.5,786.1,1051.3,959.4,933.0,877.2,1597.4,1217.7,3469.8,3471.0,1077.3,874.7,1645.4,3471.0,1228.4,1248.0,3472.2,3471.0,1548.7,2143.3,2763.5,3494.1,1757.0,3488.0,3467.4,3467.4,643.2,833.6,1843.0,1028.8,966.2,846.1,0.0,-1.0,4.0,318.0,-14606.0,7407.0,-371.0,-5.0,8.0,13.0,3.0,-9.0,4.0,-295.0,-15535.0,5187.0,-304.0,-16.0,2.0,17.0,1.0
2022-05-23 13:40:37.971410-07:00,1216.8,771.1,1063.4,959.4,945.8,877.2,1597.4,1217.7,3462.5,3468.6,1072.9,874.7,1648.3,3471.0,1228.4,1248.0,3472.2,3471.0,1548.7,2139.2,2763.5,3488.0,1752.1,3497.8,3467.4,3467.4,643.2,836.1,1843.0,1033.2,968.8,842.8,1.0,13.0,-2.0,317.0,-14606.0,7407.0,-371.0,2.0,5.0,4.0,0.0,4.0,6.0,-300.0,-15534.0,5192.0,-302.0,-13.0,-6.0,0.0,1.0
2022-05-23 13:40:38.061637-07:00,1216.8,771.1,1063.4,973.9,945.8,878.0,1591.7,1213.3,3462.5,3468.6,1072.9,880.6,1648.3,3469.8,1232.8,1246.2,3467.4,3469.8,1547.8,2139.2,2759.1,3488.0,1752.1,3497.8,3474.6,3468.6,649.7,836.1,1852.8,1033.2,968.8,842.8,0.0,-8.0,12.0,308.0,-14604.0,7412.0,-362.0,-18.0,-22.0,10.0,2.0,-11.0,6.0,-309.0,-15534.0,5192.0,-295.0,-15.0,-10.0,22.0,1.0
2022-05-23 13:40:38.063297-07:00,1225.7,773.6,1059.9,973.9,927.1,878.0,1591.7,1213.3,3468.6,3468.6,1081.6,880.6,1642.6,3469.8,1232.8,1246.2,3467.4,3469.8,1547.8,2134.1,2759.1,3496.6,1753.1,3484.4,3474.6,3468.6,649.7,839.4,1852.8,1035.7,970.5,831.1,-2.0,-2.0,5.0,310.0,-14600.0,7419.0,-360.0,0.0,17.0,19.0,1.0,-13.0,5.0,-308.0,-15531.0,5200.0,-293.0,-2.0,-6.0,19.0,1.0
2022-05-23 13:40:38.151556-07:00,1225.7,773.6,1059.9,967.1,930.5,868.8,1578.6,1195.6,3468.6,3468.6,1081.6,882.3,1646.4,3478.3,1223.9,1241.7,3457.6,3481.9,1548.7,2144.3,2762.4,3496.6,1753.1,3484.4,3480.7,3471.0,641.6,841.9,1852.8,1035.7,970.5,831.1,1.0,-3.0,9.0,318.0,-14600.0,7419.0,-361.0,23.0,-22.0,-8.0,1.0,10.0,1.0,-308.0,-15529.0,5206.0,-294.0,-7.0,-2.0,5.0,1.0
2022-05-23 13:40:38.152812-07:00,1222.2,780.3,1052.2,973.9,930.5,868.8,1578.6,1195.6,3468.6,3461.3,1075.6,878.9,1646.4,3478.3,1223.9,1241.7,3457.6,3481.9,1548.7,2144.3,2760.2,3494.1,1750.2,3502.7,3480.7,3471.0,641.6,841.9,1845.0,1030.6,963.7,839.4,-3.0,-5.0,3.0,318.0,-14597.0,7424.0,-367.0,18.0,35.0,18.0,0.0,-6.0,4.0,-307.0,-15528.0,5208.0,-294.0,3.0,-2.0,12.0,1.0
2022-05-23 13:40:38.211341-07:00,1222.2,780.3,1052.2,973.9,933.0,878.9,1585.2,1213.3,3468.6,3461.3,1075.6,878.9,1642.6,3462.5,1228.4,1247.1,3474.6,3477.1,1545.0,2143.3,2760.2,3494.1,1750.2,3502.7,3474.6,3478.3,640.8,835.2,1845.0,1030.6,963.7,839.4,-1.0,-51.0,12.0,320.0,-14590.0,7438.0,-375.0,15.0,-3.0,30.0,2.0,-34.0,12.0,-314.0,-15525.0,5216.0,-293.0,-32.0,13.0,27.0,1.0
2022-05-23 13:40:38.301561-07:00,1219.5,777.8,1052.2,966.2,933.0,878.9,1585.2,1213.3,3478.3,3468.6,1072.9,885.6,1642.6,3462.5,1228.4,1247.1,3474.6,3477.1,1545.0,2143.3,2752.5,3485.6,1751.2,3488.0,3474.6,3478.3,640.8,835.2,1855.7,1026.3,967.1,831.9,9.0,-33.0,-25.0,481.0,-14584.0,7439.0,-439.0,649.0,-84.0,-5.0,13.0,-31.0,0.0,-210.0,-15519.0,5238.0,-353.0,417.0,68.0,61.0,1.0
2022-05-23 13:40:38.302753-07:00,1219.5,777.8,1052.2,966.2,935.6,879.7,1595.5,1214.2,3478.3,3468.6,1072.9,885.6,1643.5,3457.6,1229.3,1243.5,3468.6,3473.4,1540.3,2143.3,2752.5,3485.6,1751.2,3488.0,3467.4,3475.9,642.4,836.9,1855.7,1026.3,967.1,831.9,-12.0,-55.0,-43.0,1035.0,-14570.0,7396.0,-620.0,2008.0,-345.0,-98.0,18.0,-62.0,-9.0,59.0,-15505.0,5272.0,-482.0,1386.0,141.0,205.0,1.0
2022-05-23 13:40:38.361647-07:00,1224.8,773.6,1063.4,962.0,935.6,879.7,1595.5,1210.6,3462.5,3468.6,1076.4,879.7,1643.5,3457.6,1229.3,1239.1,3467.4,3473.4,1540.3,2143.3,2753.6,3484.4,1751.2,3489.2,3471.0,3475.9,642.4,836.9,1858.6,1037.5,967.1,843.6,26.0,-181.0,1.0,2247.0,-14491.0,7229.0,-1066.0,3887.0,-232.0,-272.0,28.0,-130.0,-77.0,809.0,-15452.0,5331.0,-771.0,3085.0,-38.0,250.0,1.0
2022-05-23 13:40:38.422185-07:00,1230.2,773.6,1063.4,962.0,934.7,873.0,1598.3,1210.6,3467.4,3468.6,1076.4,879.7,1651.1,3466.1,1227.5,1239.1,3467.4,3478.3,1556.2,2147.3,2753.6,3484.4,1751.2,3502.7,3471.0,3467.4,634.3,840.3,1858.6,1037.5,967.1,841.9,-40.0,137.0,-226.0,4204.0,-14122.0,6873.0,-2022.0,5283.0,-86.0,-415.0,-37.0,48.0,-152.0,2355.0,-15265.0,5312.0,-1288.0,4069.0,-124.0,125.0,1.0
2022-05-23 13:40:38.451724-07:00,1230.2,778.6,1055.6,964.5,934.7,873.0,1598.3,1206.2,3467.4,3474.6,1076.4,875.5,1651.1,3466.1,1227.5,1242.6,3474.6,3478.3,1556.2,2147.3,2751.3,3494.1,1751.2,3502.7,3478.3,3467.4,634.3,840.3,1840.1,1026.3,963.7,841.9,-44.0,43.0,-19.0,5627.0,-13719.0,6468.0,-2595.0,2316.0,-576.0,-237.0,-22.0,-7.0,-42.0,3776.0,-14986.0,5173.0,-1679.0,2292.0,-280.0,-16.0,1.0
2022-05-23 13:40:38.511621-07:00,1220.4,778.6,1055.6,964.5,930.5,859.5,1605.8,1206.2,3473.4,3474.6,1076.4,875.5,1644.5,3471.0,1223.9,1242.6,3474.6,3472.2,1544.1,2149.3,2751.3,3494.1,1751.2,3495.3,3478.3,3467.4,632.7,834.4,1840.1,1026.3,963.7,844.4,1.0,-136.0,91.0,6582.0,-13385.0,6118.0,-2919.0,3358.0,-37.0,-327.0,-18.0,-125.0,43.0,4733.0,-14723.0,5072.0,-1884.0,2896.0,-195.0,210.0,1.0
2022-05-23 13:40:38.571477-07:00,1220.4,768.7,1037.5,959.4,930.5,859.5,1605.8,1219.5,3473.4,3462.5,1078.2,874.7,1644.5,3471.0,1223.9,1244.4,3472.2,3472.2,1544.1,2149.3,2754.7,3491.7,1755.0,3495.3,3478.3,3467.4,632.7,834.4,1845.0,1021.9,962.0,844.4,-15.0,-41.0,8.0,7863.0,-12698.0,5733.0,-3536.0,4020.0,-46.0,94.0,10.0,-35.0,64.0,6042.0,-14228.0,4945.0,-2248.0,3659.0,-60.0,227.0,1.0
2022-05-23 13:40:38.602047-07:00,1226.6,768.7,1037.5,959.4,927.9,858.7,1589.9,1219.5,3473.4,3462.5,1078.2,874.7,1641.6,3468.6,1221.3,1244.4,3472.2,3471.0,1547.8,2164.6,2754.7,3491.7,1755.0,3497.8,3478.3,3467.4,630.3,841.1,1845.0,1021.9,962.0,842.8,2.0,-13.0,-7.0,9166.0,-11803.0,5364.0,-4042.0,4010.0,-177.0,210.0,-2.0,-74.0,51.0,7360.0,-13576.0,4791.0,-2648.0,3481.0,16.0,201.0,1.0
2022-05-23 13:40:38.661674-07:00,1226.6,777.8,1051.3,958.5,927.9,858.7,1588.9,1202.7,3473.4,3467.4,1079.9,878.0,1641.6,3468.6,1222.2,1242.6,3467.4,3469.8,1547.8,2164.6,2753.6,3486.8,1753.1,3497.8,3473.4,3474.6,630.3,841.1,1853.7,1027.1,963.7,842.8,18.0,225.0,-115.0,10421.0,-10752.0,4950.0,-4442.0,3717.0,-229.0,390.0,5.0,150.0,-14.0,8668.0,-12769.0,4571.0,-3060.0,3273.0,-84.0,126.0,1.0
2022-05-23 13:40:38.722203-07:00,1219.5,775.3,1051.3,958.5,926.2,861.2,1588.9,1202.7,3473.4,3472.2,1079.9,878.0,1646.4,3467.4,1222.2,1242.6,3467.4,3469.8,1554.3,2158.5,2753.6,3486.8,1755.0,3475.9,3473.4,3474.6,631.9,845.3,1853.7,1027.1,959.4,839.4,16.0,34.0,-69.0,11290.0,-9899.0,4638.0,-4634.0,2868.0,-231.0,376.0,14.0,20.0,-15.0,9591.0,-12101.0,4352.0,-3331.0,2729.0,-53.0,82.0,1.0
2022-05-23 13:40:38.751692-07:00,1219.5,775.3,1056.5,970.5,926.2,861.2,1586.1,1203.5,3473.4,3472.2,1082.5,883.9,1646.4,3467.4,1218.6,1234.6,3472.2,3464.9,1554.3,2158.5,2743.6,3496.6,1755.0,3475.9,3471.0,3479.5,631.9,845.3,1849.8,1028.8,959.4,839.4,8.0,168.0,-99.0,12098.0,-8962.0,4312.0,-4811.0,2687.0,-171.0,360.0,14.0,84.0,-38.0,10469.0,-11354.0,4107.0,-3611.0,2334.0,-41.0,46.0,1.0
2022-05-23 13:40:38.841716-07:00,1229.3,784.4,1056.5,970.5,929.6,857.9,1586.1,1203.5,3468.6,3468.6,1082.5,883.9,1640.7,3468.6,1218.6,1234.6,3472.2,3464.9,1556.2,2151.4,2743.6,3496.6,1754.1,3488.0,3471.0,3479.5,634.3,834.4,1849.8,1028.8,964.5,843.6,-13.0,-44.0,-69.0,12662.0,-8235.0,4006.0,-4926.0,2437.0,-279.0,225.0,2.0,-23.0,-23.0,11068.0,-10776.0,3917.0,-3803.0,2092.0,-7.0,59.0,1.0
2022-05-23 13:40:38.871591-07:00,1229.3,784.4,1056.5,959.4,929.6,857.9,1586.1,1225.7,3468.6,3468.6,1072.9,878.9,1640.7,3468.6,1213.3,1232.8,3467.4,3473.4,1556.2,2151.4,2731.5,3486.8,1754.1,3488.0,3467.4,3478.3,634.3,834.4,1850.8,1019.4,964.5,843.6,7.0,-33.0,-78.0,13298.0,-7310.0,3591.0,-5028.0,2765.0,-367.0,339.0,-2.0,-15.0,-6.0,11731.0,-10048.0,3699.0,-4022.0,2366.0,24.0,113.0,1.0
2022-05-23 13:40:38.901677-07:00,1238.2,774.5,1056.5,959.4,933.9,859.5,1586.1,1225.7,3471.0,3467.4,1072.9,878.9,1634.1,3468.6,1213.3,1232.8,3467.4,3473.4,1561.8,2136.1,2731.5,3486.8,1749.3,3484.4,3467.4,3478.3,637.6,840.3,1850.8,1019.4,959.4,835.2,-6.0,85.0,-65.0,13929.0,-6227.0,3113.0,-5093.0,3261.0,-393.0,396.0,0.0,12.0,8.0,12409.0,-9195.0,3468.0,-4229.0,2746.0,78.0,190.0,1.0
2022-05-23 13:40:38.961895-07:00,1238.2,774.5,1038.3,969.6,933.9,862.9,1578.6,1220.4,3471.0,3467.4,1079.0,878.0,1634.1,3472.2,1217.7,1242.6,3469.8,3467.4,1564.6,2136.1,2749.1,3485.6,1749.3,3484.4,3473.4,3474.6,641.6,840.3,1850.8,1025.4,959.4,835.2,4.0,-96.0,-9.0,14463.0,-5134.0,2594.0,-5116.0,2878.0,-433.0,381.0,15.0,-92.0,13.0,12968.0,-8377.0,3283.0,-4392.0,2202.0,131.0,235.0,1.0
2022-05-23 13:40:39.022087-07:00,1230.2,781.1,1055.6,969.6,931.3,862.9,1578.6,1220.4,3478.3,3468.6,1080.8,878.0,1641.6,3472.2,1217.7,1242.6,3469.8,3467.4,1564.6,2143.3,2749.1,3490.5,1744.5,3492.9,3473.4,3474.6,641.6,842.8,1850.8,1025.4,962.0,843.6,-61.0,100.0,-164.0,14955.0,-3847.0,1974.0,-5107.0,3359.0,-743.0,393.0,-6.0,8.0,2.0,13523.0,-7439.0,3116.0,-4530.0,2204.0,150.0,341.0,1.0
2022-05-23 13:40:39.051727-07:00,1230.2,781.1,1055.6,967.9,931.3,855.3,1588.9,1217.7,3478.3,3468.6,1080.8,879.7,1641.6,3477.1,1213.3,1235.5,3471.0,3467.4,1561.8,2143.3,2755.8,3490.5,1744.5,3492.9,3471.0,3466.1,638.4,842.8,1851.8,1025.4,962.0,843.6,23.0,53.0,44.0,15239.0,-2987.0,1331.0,-5052.0,2038.0,-673.0,32.0,-13.0,23.0,-29.0,13870.0,-6796.0,2979.0,-4584.0,1515.0,-12.0,181.0,1.0
2022-05-23 13:40:39.111729-07:00,1239.9,786.9,1079.9,967.9,934.7,855.3,1588.9,1217.7,3468.6,3466.1,1076.4,879.7,1643.5,3477.1,1213.3,1235.5,3471.0,3467.4,1561.8,2136.1,2755.8,3491.7,1768.5,3489.2,3471.0,3466.1,638.4,858.7,1851.8,1012.5,959.4,841.1,-23.0,65.0,20.0,15342.0,-2421.0,995.0,-5120.0,1078.0,-215.0,-197.0,-10.0,-16.0,73.0,14071.0,-6393.0,2864.0,-4622.0,769.0,6.0,98.0,1.0
2022-05-23 13:40:39.172436-07:00,1239.9,786.9,1079.9,986.7,934.7,856.2,1658.7,1228.4,3468.6,3466.1,1076.4,874.7,1643.5,3467.4,1225.7,1236.4,3469.8,3472.2,1553.4,2136.1,2748.0,3491.7,1768.5,3489.2,3468.6,3466.1,627.8,858.7,1848.9,1012.5,959.4,841.1,30.0,48.0,-13.0,15353.0,-2174.0,798.0,-5231.0,375.0,-133.0,-181.0,4.0,75.0,3.0,14158.0,-6208.0,2822.0,-4634.0,244.0,-5.0,28.0,1.0
2022-05-23 13:40:39.201805-07:00,1255.1,783.6,1080.8,984.2,923.7,856.2,1658.7,1228.4,3464.9,3468.6,1072.1,879.7,1637.9,3467.4,1225.7,1236.4,3469.8,3472.2,1553.4,2129.0,2744.7,3486.8,1778.1,3488.0,3468.6,3466.1,627.8,862.1,1851.8,1021.9,944.1,837.7,-7.0,-55.0,-9.0,15346.0,-2113.0,804.0,-5275.0,224.0,53.0,-56.0,5.0,-41.0,36.0,14180.0,-6173.0,2802.0,-4628.0,208.0,-26.0,60.0,1.0
2022-05-23 13:40:39.262791-07:00,1255.1,783.6,1080.8,984.2,936.4,852.8,1619.0,1211.5,3464.9,3468.6,1072.1,879.7,1652.0,3457.6,1213.3,1236.4,3475.9,3462.5,1539.4,2130.1,2744.7,3486.8,1778.1,3488.0,3481.9,3472.2,623.8,857.9,1851.8,1021.9,944.1,837.7,-4.0,51.0,-79.0,15358.0,-1986.0,738.0,-5300.0,147.0,-84.0,-62.0,-2.0,44.0,-2.0,14229.0,-6077.0,2760.0,-4627.0,108.0,-67.0,-25.0,1.0
2022-05-23 13:40:39.321649-07:00,1245.3,784.4,1067.7,976.5,936.4,852.8,1619.0,1211.5,3469.8,3473.4,1072.9,881.4,1652.0,3457.6,1213.3,1236.4,3475.9,3462.5,1539.4,2130.1,2740.3,3491.7,1780.1,3484.4,3481.9,3472.2,623.8,857.9,1853.7,1015.9,956.0,848.6,-4.0,-5.0,-24.0,15347.0,-2037.0,709.0,-5315.0,-149.0,-93.0,-17.0,1.0,0.0,29.0,14223.0,-6100.0,2724.0,-4639.0,-55.0,-71.0,-74.0,1.0
2022-05-23 13:40:39.351760-07:00,1245.3,784.4,1067.7,976.5,935.6,849.5,1636.9,1231.0,3469.8,3473.4,1072.9,881.4,1649.2,3471.0,1223.9,1235.5,3469.8,3469.8,1543.1,2123.0,2740.3,3491.7,1780.1,3484.4,3472.2,3473.4,631.1,853.7,1853.7,1015.9,956.0,848.6,6.0,-35.0,29.0,15336.0,-2109.0,711.0,-5317.0,-122.0,7.0,-18.0,1.0,-19.0,48.0,14204.0,-6144.0,2698.0,-4654.0,-61.0,-36.0,-73.0,1.0
2022-05-23 13:40:39.411744-07:00,1248.0,790.2,1062.5,976.5,935.6,849.5,1636.9,1231.0,3475.9,3462.5,1078.2,880.6,1649.2,3471.0,1223.9,1235.5,3469.8,3469.8,1543.1,2123.0,2738.1,3489.2,1769.5,3484.4,3472.2,3473.4,631.1,853.7,1845.0,1011.6,950.0,844.4,-15.0,0.0,-15.0,15333.0,-2097.0,731.0,-5329.0,14.0,60.0,-25.0,-11.0,-4.0,38.0,14204.0,-6141.0,2688.0,-4664.0,-30.0,3.0,-14.0,1.0
2022-05-23 13:40:39.501872-07:00,1248.0,790.2,1062.5,976.5,939.8,859.5,1634.1,1224.8,3475.9,3462.5,1078.2,880.6,1642.6,3462.5,1222.2,1231.9,3471.0,3469.8,1536.6,2116.9,2738.1,3489.2,1769.5,3484.4,3481.9,3478.3,625.4,852.8,1845.0,1011.6,950.0,844.4,-2.0,-10.0,-35.0,15322.0,-2143.0,778.0,-5337.0,-210.0,80.0,-13.0,-3.0,14.0,19.0,14178.0,-6195.0,2698.0,-4666.0,-192.0,-9.0,-47.0,1.0
2022-05-23 13:40:39.503180-07:00,1253.3,772.8,1071.2,980.7,939.8,859.5,1634.1,1221.3,3462.5,3475.9,1069.5,871.3,1642.6,3462.5,1222.2,1230.2,3469.8,3469.8,1536.6,2116.9,2733.7,3488.0,1771.4,3483.2,3467.4,3478.3,625.4,852.8,1845.9,1009.9,955.1,840.3,-7.0,-39.0,-32.0,15316.0,-2156.0,795.0,-5345.0,110.0,-30.0,-24.0,3.0,-32.0,17.0,14172.0,-6204.0,2702.0,-4669.0,107.0,15.0,27.0,1.0
2022-05-23 13:40:39.561791-07:00,1250.6,772.8,1071.2,980.7,929.6,847.8,1622.8,1221.3,3466.1,3475.9,1069.5,871.3,1639.8,3467.4,1221.3,1230.2,3469.8,3474.6,1539.4,2112.8,2733.7,3488.0,1771.4,3479.5,3467.4,3469.8,627.0,841.1,1845.9,1009.9,955.1,852.0,3.0,-41.0,-14.0,15319.0,-2110.0,748.0,-5363.0,294.0,-67.0,-74.0,3.0,-41.0,7.0,14206.0,-6133.0,2688.0,-4668.0,291.0,4.0,52.0,1.0
2022-05-23 13:40:39.651739-07:00,1250.6,776.1,1053.0,971.3,929.6,847.8,1622.8,1217.7,3466.1,3468.6,1067.7,872.1,1639.8,3467.4,1221.3,1238.2,3462.5,3474.6,1539.4,2112.8,2741.4,3490.5,1763.7,3479.5,3471.0,3469.8,627.0,841.1,1839.1,1007.3,947.5,852.0,0.0,16.0,-15.0,15321.0,-2031.0,715.0,-5391.0,-46.0,40.0,-14.0,-2.0,43.0,27.0,14237.0,-6062.0,2671.0,-4675.0,-45.0,1.0,-20.0,1.0
2022-05-23 13:40:39.652981-07:00,1242.6,776.1,1053.0,971.3,946.6,853.7,1606.8,1217.7,3474.6,3468.6,1067.7,872.1,1639.8,3473.4,1214.2,1238.2,3462.5,3472.2,1537.6,2114.9,2741.4,3490.5,1763.7,3497.8,3471.0,3464.9,623.8,847.8,1839.1,1007.3,947.5,843.6,-2.0,-41.0,-13.0,15312.0,-2062.0,763.0,-5399.0,-33.0,94.0,-1.0,3.0,-24.0,28.0,14227.0,-6082.0,2675.0,-4677.0,7.0,-1.0,0.0,1.0
2022-05-23 13:40:39.711731-07:00,1242.6,779.4,1065.1,976.5,946.6,853.7,1606.8,1218.6,3474.6,3468.6,1061.7,874.7,1639.8,3473.4,1214.2,1239.1,3475.9,3472.2,1537.6,2114.9,2734.8,3494.1,1768.5,3497.8,3488.0,3464.9,623.8,847.8,1849.8,1013.3,944.1,843.6,-8.0,23.0,-41.0,15313.0,-2010.0,785.0,-5413.0,84.0,77.0,-34.0,-5.0,9.0,23.0,14239.0,-6054.0,2665.0,-4683.0,37.0,-6.0,-15.0,1.0
2022-05-23 13:40:39.801784-07:00,1241.7,774.5,1065.1,976.5,934.7,849.5,1610.5,1218.6,3473.4,3467.4,1061.7,874.7,1644.5,3463.7,1215.1,1239.1,3475.9,3467.4,1538.5,2108.8,2734.8,3494.1,1772.3,3492.9,3488.0,3481.9,619.7,847.8,1849.8,1013.3,950.9,841.9,-8.0,-32.0,-15.0,15301.0,-2016.0,813.0,-5439.0,-33.0,52.0,-66.0,0.0,-27.0,32.0,14232.0,-6065.0,2664.0,-4690.0,-22.0,-1.0,-10.0,1.0
2022-05-23 13:40:39.803166-07:00,1241.7,774.5,1057.3,979.9,934.7,849.5,1605.8,1216.0,3473.4,3467.4,1075.6,878.0,1644.5,3463.7,1216.0,1235.5,3462.5,3469.8,1538.5,2108.8,2727.1,3490.5,1772.3,3492.9,3468.6,3480.7,619.7,847.8,1838.2,1013.3,950.9,841.9,7.0,-34.0,-30.0,15298.0,-1986.0,811.0,-5459.0,107.0,15.0,-26.0,3.0,-20.0,11.0,14244.0,-6043.0,2664.0,-4684.0,115.0,7.0,46.0,1.0
2022-05-23 13:40:39.861709-07:00,1247.1,789.4,1057.3,979.9,935.6,848.6,1605.8,1216.0,3463.7,3467.4,1075.6,878.0,1638.8,3471.0,1216.0,1235.5,3462.5,3469.8,1544.1,2098.7,2727.1,3490.5,1767.5,3481.9,3468.6,3480.7,623.0,839.4,1838.2,1013.3,947.5,851.1,-2.0,5.0,-22.0,15299.0,-1943.0,801.0,-5473.0,80.0,6.0,-38.0,-2.0,7.0,23.0,14267.0,-5997.0,2655.0,-4678.0,71.0,-3.0,21.0,1.0
2022-05-23 13:40:39.921537-07:00,1247.1,789.4,1059.9,969.6,935.6,848.6,1592.7,1211.5,3463.7,3467.4,1066.0,873.0,1638.8,3471.0,1216.0,1237.3,3479.5,3474.6,1544.1,2098.7,2727.1,3486.8,1767.5,3481.9,3472.2,3471.0,623.0,839.4,1846.9,1007.3,947.5,851.1,-6.0,-31.0,-21.0,15295.0,-1950.0,817.0,-5481.0,-48.0,16.0,-7.0,-6.0,-28.0,24.0,14269.0,-5994.0,2655.0,-4677.0,49.0,1.0,13.0,1.0
2022-05-23 13:40:39.951756-07:00,1238.2,771.1,1059.9,969.6,930.5,853.7,1592.7,1211.5,3460.1,3467.4,1066.0,873.0,1643.5,3463.7,1216.0,1237.3,3479.5,3474.6,1538.5,2103.7,2727.1,3486.8,1770.4,3481.9,3472.2,3471.0,615.7,841.9,1846.9,1007.3,948.3,831.1,-4.0,16.0,-37.0,15296.0,-1929.0,811.0,-5484.0,59.0,-8.0,0.0,-2.0,5.0,16.0,14281.0,-5967.0,2645.0,-4679.0,-10.0,-20.0,-12.0,1.0
2022-05-23 13:40:40.011718-07:00,1238.2,771.1,1055.6,976.5,930.5,853.7,1600.2,1219.5,3460.1,3467.4,1070.3,881.4,1643.5,3463.7,1208.9,1235.5,3464.9,3478.3,1538.5,2103.7,2719.4,3495.3,1770.4,3481.9,3468.6,3467.4,615.7,841.9,1845.0,1012.5,948.3,831.1,-6.0,-11.0,-13.0,15292.0,-1955.0,825.0,-5484.0,-61.0,31.0,-7.0,-3.0,-19.0,32.0,14273.0,-5986.0,2638.0,-4681.0,-11.0,-18.0,-25.0,1.0
2022-05-23 13:40:40.071614-07:00,1234.6,785.2,1048.7,976.5,928.8,852.0,1600.2,1219.5,3471.0,3474.6,1070.3,881.4,1649.2,3473.4,1208.9,1235.5,3464.9,3478.3,1536.6,2107.8,2719.4,3489.2,1761.8,3491.7,3468.6,3467.4,620.5,841.9,1845.0,1012.5,946.6,831.9,-3.0,0.0,-34.0,15291.0,-1937.0,833.0,-5494.0,72.0,31.0,-33.0,-4.0,6.0,21.0,14271.0,-5988.0,2630.0,-4689.0,5.0,-9.0,-27.0,1.0
2022-05-23 13:40:40.101488-07:00,1234.6,785.2,1048.7,973.9,928.8,855.3,1593.6,1219.5,3471.0,3474.6,1070.3,877.2,1649.2,3474.6,1214.2,1240.8,3473.4,3469.8,1532.9,2107.8,2727.1,3489.2,1761.8,3491.7,3480.7,3463.7,621.4,841.9,1846.9,1012.5,946.6,831.9,4.0,-5.0,-16.0,15285.0,-1931.0,849.0,-5510.0,-73.0,49.0,-38.0,2.0,-1.0,28.0,14266.0,-5998.0,2620.0,-4699.0,-77.0,-25.0,-48.0,1.0
2022-05-23 13:40:40.162342-07:00,1230.2,772.0,1057.3,973.9,929.6,855.3,1593.6,1219.5,3463.7,3471.0,1074.7,877.2,1644.5,3474.6,1214.2,1240.8,3473.4,3469.8,1532.9,2108.8,2727.1,3490.5,1761.8,3488.0,3480.7,3463.7,621.4,843.6,1846.9,1009.0,959.4,837.7,0.0,-23.0,-17.0,15273.0,-1947.0,886.0,-5530.0,0.0,88.0,-55.0,6.0,-18.0,29.0,14253.0,-6024.0,2615.0,-4706.0,-9.0,0.0,-8.0,1.0
2022-05-23 13:40:40.222234-07:00,1230.2,772.0,1057.3,967.1,929.6,841.1,1589.9,1210.6,3463.7,3471.0,1074.7,878.9,1644.5,3472.2,1216.0,1234.6,3473.4,3475.9,1531.0,2108.8,2724.9,3490.5,1761.8,3488.0,3467.4,3479.5,623.0,843.6,1849.8,1009.0,959.4,837.7,-4.0,5.0,-47.0,15269.0,-1922.0,913.0,-5547.0,0.0,75.0,-17.0,-2.0,-2.0,12.0,14252.0,-6029.0,2615.0,-4705.0,-28.0,-14.0,-11.0,1.0
2022-05-23 13:40:40.251817-07:00,1239.9,784.4,1047.0,967.1,938.1,841.1,1589.9,1210.6,3477.1,3452.8,1070.3,878.9,1649.2,3472.2,1216.0,1234.6,3473.4,3475.9,1531.0,2100.7,2724.9,3496.6,1764.6,3492.9,3467.4,3479.5,623.0,844.4,1849.8,1005.6,943.2,843.6,0.0,-10.0,-17.0,15262.0,-1943.0,932.0,-5554.0,-30.0,-10.0,-26.0,4.0,-6.0,19.0,14246.0,-6041.0,2611.0,-4710.0,9.0,-10.0,-21.0,1.0
2022-05-23 13:40:40.311732-07:00,1239.9,784.4,1047.0,967.9,936.4,852.8,1590.8,1220.4,3477.1,3452.8,1070.3,878.0,1642.6,3469.8,1234.6,1233.7,3468.6,3474.6,1535.7,2098.7,2729.3,3496.6,1764.6,3492.9,3472.2,3474.6,622.2,842.8,1853.7,1005.6,943.2,843.6,0.0,-12.0,-14.0,15259.0,-1957.0,924.0,-5559.0,-75.0,-31.0,7.0,0.0,0.0,13.0,14239.0,-6054.0,2609.0,-4714.0,-100.0,-11.0,-18.0,1.0
2022-05-23 13:40:40.401812-07:00,1234.6,778.6,1055.6,968.8,936.4,852.8,1590.8,1220.4,3467.4,3472.2,1066.9,874.7,1642.6,3469.8,1234.6,1233.7,3468.6,3474.6,1535.7,2098.7,2722.7,3492.9,1763.7,3492.9,3472.2,3474.6,622.2,842.8,1842.0,1008.2,939.0,837.7,-12.0,-26.0,-6.0,15261.0,-1979.0,937.0,-5546.0,43.0,30.0,45.0,-8.0,-20.0,15.0,14228.0,-6086.0,2614.0,-4705.0,21.0,-8.0,37.0,1.0
2022-05-23 13:40:40.403386-07:00,1234.6,778.6,1055.6,968.8,943.2,839.4,1583.3,1221.3,3467.4,3472.2,1066.9,874.7,1647.3,3466.1,1211.5,1229.3,3471.0,3473.4,1537.6,2100.7,2722.7,3492.9,1763.7,3492.9,3464.9,3477.1,614.1,838.6,1842.0,1008.2,939.0,837.7,-6.0,0.0,-34.0,15264.0,-1962.0,944.0,-5542.0,-55.0,19.0,-14.0,-1.0,-7.0,14.0,14232.0,-6079.0,2614.0,-4700.0,-9.0,-7.0,-19.0,1.0
2022-05-23 13:40:40.461760-07:00,1225.7,778.6,1060.8,979.9,943.2,839.4,1583.3,1221.3,3468.6,3464.9,1066.9,875.5,1647.3,3466.1,1211.5,1229.3,3471.0,3473.4,1537.6,2100.7,2722.7,3488.0,1763.7,3495.3,3464.9,3477.1,614.1,838.6,1833.3,1006.5,947.5,840.3,2.0,-11.0,-18.0,15260.0,-1967.0,940.0,-5551.0,50.0,-20.0,-10.0,0.0,0.0,20.0,14235.0,-6070.0,2609.0,-4706.0,39.0,-13.0,7.0,1.0
2022-05-23 13:40:40.521883-07:00,1225.7,778.6,1060.8,979.9,927.9,859.5,1564.6,1206.2,3468.6,3464.9,1066.9,875.5,1646.4,3474.6,1219.5,1228.4,3463.7,3468.6,1532.0,2096.7,2722.7,3488.0,1763.7,3495.3,3474.6,3468.6,621.4,839.4,1833.3,1006.5,947.5,840.3,4.0,40.0,-30.0,15263.0,-1964.0,936.0,-5545.0,-48.0,5.0,12.0,-1.0,24.0,13.0,14241.0,-6062.0,2597.0,-4706.0,-79.0,-29.0,-42.0,1.0
2022-05-23 13:40:40.551909-07:00,1235.5,781.1,1041.8,967.1,927.9,859.5,1564.6,1206.2,3467.4,3460.1,1069.5,876.4,1646.4,3474.6,1219.5,1228.4,3463.7,3468.6,1532.0,2096.7,2728.2,3486.8,1765.6,3488.0,3474.6,3468.6,621.4,839.4,1849.8,1011.6,950.9,844.4,-7.0,53.0,-47.0,15239.0,-2079.0,972.0,-5564.0,-457.0,-33.0,-125.0,-3.0,19.0,37.0,14196.0,-6153.0,2591.0,-4727.0,-373.0,-42.0,-172.0,1.0
2022-05-23 13:40:40.612334-07:00,1237.3,781.1,1041.8,967.1,929.6,841.9,1579.6,1206.2,3473.4,3460.1,1069.5,876.4,1641.6,3467.4,1215.1,1237.3,3488.0,3483.2,1526.4,2093.7,2728.2,3486.8,1765.6,3497.8,3469.8,3488.0,613.3,834.4,1849.8,1011.6,950.9,842.8,11.0,-44.0,15.0,15206.0,-2206.0,969.0,-5606.0,-51.0,-82.0,-95.0,3.0,-21.0,10.0,14138.0,-6258.0,2603.0,-4755.0,-158.0,12.0,-72.0,1.0
2022-05-23 13:40:40.641901-07:00,1237.3,781.1,1055.6,981.6,929.6,841.9,1579.6,1202.7,3473.4,3471.0,1064.3,878.9,1641.6,3467.4,1215.1,1238.2,3473.4,3483.2,1526.4,2093.7,2721.6,3492.9,1765.6,3497.8,3466.1,3488.0,613.3,834.4,1850.8,1009.0,946.6,842.8,0.0,-39.0,1.0,15192.0,-2253.0,987.0,-5621.0,-171.0,57.0,-24.0,2.0,-29.0,21.0,14109.0,-6315.0,2616.0,-4759.0,-164.0,6.0,-21.0,1.0
2022-05-23 13:40:40.761906-07:00,1222.2,781.1,1055.6,981.6,924.5,845.3,1573.0,1202.7,3471.0,3471.0,1064.3,878.9,1640.7,3469.8,1210.6,1238.2,3473.4,3478.3,1532.9,2091.6,2721.6,3492.9,1765.6,3497.8,3466.1,3475.9,620.5,831.1,1850.8,1009.0,946.6,853.7,-8.0,-9.0,-45.0,15185.0,-2271.0,1024.0,-5627.0,6.0,53.0,-9.0,-2.0,-5.0,0.0,14098.0,-6333.0,2633.0,-4758.0,8.0,22.0,8.0,1.0
2022-05-23 13:40:40.763659-07:00,1222.2,775.3,1058.2,960.2,924.5,845.3,1573.0,1205.3,3471.0,3474.6,1062.5,875.5,1640.7,3469.8,1210.6,1230.2,3474.6,3478.3,1532.9,2091.6,2713.9,3481.9,1760.8,3497.8,3480.7,3475.9,620.5,831.1,1846.9,1004.8,950.9,853.7,-10.0,2.0,-26.0,15186.0,-2261.0,1030.0,-5627.0,64.0,-1.0,15.0,-6.0,6.0,17.0,14110.0,-6308.0,2628.0,-4759.0,107.0,-6.0,18.0,1.0
2022-05-23 13:40:40.791708-07:00,1232.8,775.3,1058.2,960.2,933.0,852.0,1573.9,1205.3,3462.5,3474.6,1062.5,875.5,1645.4,3471.0,1218.6,1230.2,3474.6,3477.1,1533.8,2082.6,2713.9,3481.9,1760.8,3484.4,3480.7,3479.5,627.0,836.1,1846.9,1004.8,950.9,831.1,0.0,9.0,-12.0,15186.0,-2270.0,1031.0,-5622.0,-81.0,-7.0,-22.0,1.0,5.0,20.0,14119.0,-6291.0,2622.0,-4759.0,-17.0,-7.0,-8.0,1.0
2022-05-23 13:40:40.911827-07:00,1232.8,777.8,1051.3,969.6,933.0,852.0,1573.0,1199.1,3462.5,3478.3,1070.3,880.6,1645.4,3471.0,1227.5,1236.4,3469.8,3478.3,1533.8,2082.6,2722.7,3500.2,1779.1,3484.4,3473.4,3471.0,627.0,836.1,1839.1,1007.3,945.8,831.1,-1.0,0.0,-30.0,15179.0,-2290.0,1036.0,-5632.0,-6.0,-2.0,-19.0,2.0,-4.0,8.0,14116.0,-6293.0,2625.0,-4762.0,16.0,15.0,-3.0,1.0
2022-05-23 13:40:40.914319-07:00,1249.7,782.7,1051.3,969.6,928.8,844.4,1573.0,1199.1,3471.0,3469.8,1070.3,880.6,1645.4,3468.6,1227.5,1236.4,3469.8,3478.3,1539.4,2085.6,2722.7,3500.2,1762.7,3492.9,3473.4,3471.0,617.3,837.7,1839.1,1007.3,943.2,848.6,-1.0,-33.0,3.0,15173.0,-2315.0,1048.0,-5635.0,-43.0,22.0,-1.0,0.0,-24.0,26.0,14111.0,-6302.0,2626.0,-4764.0,-8.0,-5.0,-5.0,1.0
2022-05-23 13:40:40.971818-07:00,1249.7,782.7,1052.2,964.5,928.8,844.4,1569.3,1203.5,3471.0,3469.8,1066.9,878.9,1645.4,3468.6,1210.6,1235.5,3474.6,3477.1,1539.4,2085.6,2719.4,3497.8,1762.7,3492.9,3463.7,3472.2,617.3,837.7,1843.0,1002.2,943.2,848.6,2.0,-3.0,-23.0,15176.0,-2303.0,1062.0,-5631.0,-3.0,48.0,25.0,3.0,-7.0,15.0,14116.0,-6293.0,2625.0,-4762.0,-12.0,-2.0,14.0,1.0
2022-05-23 13:40:41.032475-07:00,1221.3,773.6,1052.2,964.5,933.9,847.0,1569.3,1203.5,3464.9,3478.3,1066.9,878.9,1639.8,3472.2,1210.6,1235.5,3474.6,3477.1,1523.6,2076.5,2719.4,3497.8,1757.0,3486.8,3463.7,3472.2,609.2,832.7,1843.0,1002.2,947.5,862.9,2.0,0.0,-27.0,15177.0,-2311.0,1072.0,-5622.0,-20.0,-14.0,15.0,1.0,0.0,11.0,14118.0,-6295.0,2621.0,-4755.0,-15.0,-22.0,2.0,1.0
2022-05-23 13:40:41.061874-07:00,1221.3,773.6,1047.8,973.9,933.9,847.0,1565.5,1209.7,3464.9,3478.3,1068.6,878.0,1639.8,3472.2,1219.5,1229.3,3473.4,3480.7,1523.6,2076.5,2722.7,3492.9,1757.0,3486.8,3472.2,3471.0,609.2,832.7,1841.1,1006.5,947.5,862.9,0.0,34.0,-22.0,15178.0,-2313.0,1058.0,-5622.0,-34.0,-44.0,-22.0,-1.0,16.0,14.0,14122.0,-6290.0,2611.0,-4756.0,-26.0,-14.0,-25.0,1.0
2022-05-23 13:40:41.091828-07:00,1221.3,779.4,1047.8,973.9,933.0,837.7,1565.5,1209.7,3467.4,3468.6,1068.6,878.0,1648.3,3473.4,1219.5,1229.3,3473.4,3480.7,1533.8,2089.6,2722.7,3492.9,1757.9,3485.6,3472.2,3471.0,619.7,838.6,1841.1,1006.5,944.9,852.0,0.0,-34.0,0.0,15160.0,-2380.0,1063.0,-5640.0,-122.0,-30.0,-76.0,0.0,-21.0,23.0,14097.0,-6337.0,2613.0,-4766.0,-117.0,-4.0,-45.0,1.0
2022-05-23 13:40:41.151856-07:00,1221.3,779.4,1052.2,966.2,933.0,846.1,1559.0,1206.2,3467.4,3468.6,1070.3,879.7,1648.3,3471.0,1208.9,1232.8,3466.1,3457.6,1533.8,2089.6,2720.5,3491.7,1757.9,3485.6,3469.8,3474.6,614.1,838.6,1853.7,1020.2,944.9,852.0,-1.0,-15.0,-22.0,15155.0,-2382.0,1052.0,-5655.0,0.0,-29.0,-21.0,0.0,-19.0,7.0,14091.0,-6348.0,2613.0,-4769.0,-8.0,-13.0,-6.0,1.0
2022-05-23 13:40:41.211902-07:00,1226.6,772.8,1045.2,966.2,928.8,846.1,1559.0,1206.2,3469.8,3466.1,1070.3,879.7,1643.5,3471.0,1208.9,1232.8,3466.1,3457.6,1533.8,2078.5,2720.5,3494.1,1760.8,3488.0,3469.8,3474.6,614.1,832.7,1853.7,1008.2,944.1,836.9,10.0,-7.0,-11.0,15153.0,-2400.0,1058.0,-5652.0,-25.0,21.0,10.0,11.0,-14.0,19.0,14095.0,-6345.0,2606.0,-4768.0,30.0,-5.0,1.0,1.0
2022-05-23 13:40:41.241930-07:00,1226.6,772.8,1045.2,976.5,928.8,842.8,1552.5,1190.3,3469.8,3466.1,1070.3,874.7,1643.5,3478.3,1209.7,1235.5,3468.6,3467.4,1530.1,2078.5,2712.8,3494.1,1760.8,3488.0,3478.3,3472.2,617.3,832.7,1844.0,1008.2,944.1,836.9,-1.0,-3.0,-25.0,15152.0,-2403.0,1065.0,-5653.0,0.0,7.0,0.0,0.0,-4.0,15.0,14099.0,-6335.0,2601.0,-4770.0,16.0,5.0,3.0,1.0
2022-05-23 13:40:41.301998-07:00,1228.4,767.8,1060.8,976.5,925.4,842.8,1552.5,1190.3,3466.1,3455.2,1060.8,874.7,1650.2,3478.3,1209.7,1235.5,3468.6,3467.4,1530.1,2086.6,2712.8,3490.5,1757.0,3481.9,3478.3,3472.2,617.3,834.4,1844.0,1007.3,939.0,842.8,-3.0,10.0,-12.0,15152.0,-2406.0,1063.0,-5652.0,-38.0,-11.0,-7.0,-4.0,3.0,19.0,14101.0,-6331.0,2600.0,-4772.0,-32.0,1.0,-11.0,1.0
2022-05-23 13:40:41.361970-07:00,1228.4,767.8,1060.8,961.1,925.4,846.1,1565.5,1207.1,3466.1,3455.2,1060.8,878.0,1650.2,3462.5,1220.4,1239.1,3468.6,3469.8,1525.5,2086.6,2726.0,3490.5,1757.0,3481.9,3473.4,3467.4,619.7,834.4,1845.0,1007.3,939.0,842.8,-4.0,-2.0,-16.0,15146.0,-2414.0,1068.0,-5662.0,-27.0,23.0,-27.0,-2.0,-6.0,15.0,14093.0,-6345.0,2605.0,-4772.0,-58.0,7.0,-11.0,1.0
2022-05-23 13:40:41.391842-07:00,1228.4,775.3,1043.5,972.2,937.3,846.1,1565.5,1207.1,3475.9,3466.1,1067.7,878.0,1644.5,3462.5,1220.4,1239.1,3468.6,3469.8,1525.5,2086.6,2717.2,3491.7,1764.6,3481.9,3473.4,3467.4,619.7,828.5,1845.9,1008.2,945.8,839.4,0.0,-13.0,-26.0,15142.0,-2426.0,1075.0,-5668.0,2.0,9.0,1.0,0.0,-7.0,8.0,14088.0,-6357.0,2608.0,-4770.0,-4.0,-5.0,5.0,1.0
2022-05-23 13:40:41.451871-07:00,1228.4,775.3,1043.5,972.2,930.5,848.6,1563.7,1203.5,3475.9,3466.1,1067.7,878.0,1648.3,3467.4,1211.5,1239.1,3471.0,3469.8,1533.8,2085.6,2717.2,3491.7,1764.6,3481.9,3474.6,3473.4,621.4,833.6,1845.9,1008.2,945.8,839.4,16.0,8.0,-16.0,15142.0,-2434.0,1078.0,-5664.0,-14.0,-2.0,19.0,3.0,-6.0,7.0,14090.0,-6354.0,2603.0,-4769.0,24.0,-14.0,2.0,1.0
2022-05-23 13:40:41.512435-07:00,1237.3,785.2,1041.8,971.3,930.5,848.6,1563.7,1203.5,3464.9,3468.6,1065.1,873.8,1648.3,3467.4,1211.5,1239.1,3471.0,3469.8,1533.8,2085.6,2733.7,3489.2,1760.8,3490.5,3474.6,3473.4,621.4,833.6,1845.9,1008.2,947.5,841.9,1.0,14.0,-11.0,15142.0,-2435.0,1086.0,-5660.0,8.0,21.0,6.0,3.0,10.0,13.0,14095.0,-6346.0,2597.0,-4769.0,22.0,0.0,2.0,1.0
2022-05-23 13:40:41.571707-07:00,1237.3,785.2,1041.8,971.3,931.3,842.8,1577.7,1205.3,3464.9,3468.6,1065.1,873.8,1646.4,3473.4,1209.7,1239.9,3475.9,3474.6,1530.1,2070.5,2733.7,3489.2,1760.8,3490.5,3480.7,3467.4,624.6,831.9,1845.9,1008.2,947.5,841.9,7.0,13.0,-29.0,15136.0,-2456.0,1089.0,-5666.0,-124.0,-10.0,-36.0,4.0,9.0,7.0,14094.0,-6349.0,2597.0,-4769.0,-74.0,-2.0,-23.0,1.0
2022-05-23 13:40:41.631914-07:00,1231.0,767.0,1055.6,980.7,931.3,842.8,1577.7,1205.3,3463.7,3473.4,1068.6,872.1,1646.4,3473.4,1209.7,1239.9,3475.9,3474.6,1530.1,2070.5,2713.9,3488.0,1754.1,3485.6,3480.7,3467.4,624.6,831.9,1849.8,1002.2,946.6,840.3,4.0,-27.0,-5.0,15121.0,-2515.0,1104.0,-5677.0,-63.0,-6.0,-22.0,5.0,-24.0,21.0,14072.0,-6391.0,2602.0,-4775.0,-36.0,9.0,-14.0,1.0
2022-05-23 13:40:41.661900-07:00,1231.0,767.0,1055.6,980.7,926.2,846.1,1571.1,1201.8,3463.7,3473.4,1068.6,872.1,1647.3,3469.8,1211.5,1237.3,3471.0,3474.6,1517.1,2089.6,2713.9,3488.0,1754.1,3485.6,3469.8,3477.1,611.7,834.4,1849.8,1002.2,946.6,840.3,0.0,-1.0,-15.0,15121.0,-2511.0,1103.0,-5681.0,-8.0,11.0,-5.0,-5.0,-4.0,10.0,14071.0,-6391.0,2606.0,-4776.0,-18.0,8.0,2.0,1.0
2022-05-23 13:40:41.691791-07:00,1231.9,764.5,1048.7,985.0,926.2,846.1,1571.1,1211.5,3462.5,3464.9,1062.5,878.9,1647.3,3469.8,1211.5,1234.6,3468.6,3474.6,1517.1,2089.6,2728.2,3499.0,1752.1,3492.9,3473.4,3477.1,611.7,834.4,1839.1,1007.3,941.5,842.8,-5.0,-3.0,-21.0,15116.0,-2523.0,1116.0,-5686.0,-36.0,25.0,-17.0,-1.0,-5.0,12.0,14066.0,-6401.0,2609.0,-4774.0,-30.0,8.0,-6.0,1.0
2022-05-23 13:40:41.752207-07:00,1226.6,764.5,1048.7,985.0,939.8,847.8,1549.7,1211.5,3473.4,3464.9,1062.5,878.9,1644.5,3466.1,1213.3,1234.6,3468.6,3472.2,1532.9,2075.5,2728.2,3499.0,1752.1,3494.1,3473.4,3473.4,617.3,824.4,1839.1,1007.3,941.5,852.0,0.0,0.0,-26.0,15113.0,-2527.0,1116.0,-5693.0,3.0,-17.0,-15.0,0.0,-3.0,10.0,14064.0,-6405.0,2613.0,-4774.0,-9.0,-3.0,-4.0,1.0
2022-05-23 13:40:41.811923-07:00,1226.6,774.5,1059.9,966.2,939.8,847.8,1549.7,1205.3,3473.4,3466.1,1061.7,875.5,1644.5,3466.1,1213.3,1227.5,3467.4,3472.2,1532.9,2075.5,2719.4,3492.9,1755.0,3494.1,3475.9,3473.4,617.3,824.4,1844.0,1009.0,945.8,852.0,4.0,2.0,-19.0,15108.0,-2549.0,1110.0,-5698.0,-53.0,-30.0,-29.0,-2.0,3.0,11.0,14061.0,-6411.0,2611.0,-4776.0,-13.0,-8.0,-16.0,1.0
2022-05-23 13:40:41.842112-07:00,1225.7,774.5,1059.9,966.2,939.8,850.3,1566.5,1205.3,3472.2,3466.1,1061.7,875.5,1639.8,3473.4,1217.7,1227.5,3467.4,3471.0,1526.4,2079.5,2719.4,3492.9,1755.0,3485.6,3475.9,3475.9,618.9,829.4,1844.0,1009.0,945.8,837.7,1.0,-3.0,-16.0,15102.0,-2572.0,1107.0,-5704.0,6.0,-11.0,-11.0,0.0,-8.0,17.0,14053.0,-6425.0,2613.0,-4778.0,-4.0,5.0,6.0,1.0
2022-05-23 13:40:41.901998-07:00,1225.7,772.8,1058.2,959.4,939.8,850.3,1566.5,1201.8,3472.2,3467.4,1067.7,870.5,1639.8,3473.4,1217.7,1234.6,3477.1,3471.0,1526.4,2079.5,2705.1,3490.5,1760.8,3485.6,3474.6,3475.9,618.9,829.4,1840.1,1003.0,950.0,837.7,2.0,-8.0,-20.0,15098.0,-2586.0,1104.0,-5707.0,-95.0,-27.0,-28.0,4.0,-6.0,13.0,14049.0,-6435.0,2615.0,-4778.0,-46.0,-6.0,-21.0,1.0
2022-05-23 13:40:41.991796-07:00,1228.4,768.7,1058.2,959.4,939.8,847.8,1551.5,1201.8,3475.9,3478.3,1067.7,870.5,1639.8,3467.4,1219.5,1234.6,3477.1,3469.8,1522.7,2074.5,2705.1,3490.5,1756.0,3507.5,3474.6,3483.2,618.1,827.7,1840.1,1003.0,945.8,845.3,-1.0,-4.0,-10.0,15091.0,-2608.0,1098.0,-5716.0,-47.0,-15.0,-38.0,-2.0,-5.0,16.0,14042.0,-6443.0,2616.0,-4786.0,-48.0,11.0,-24.0,1.0
2022-05-23 13:40:42.021918-07:00,1228.4,768.7,1049.6,964.5,939.8,847.8,1563.7,1205.3,3475.9,3478.3,1061.7,874.7,1639.8,3467.4,1211.5,1233.7,3464.9,3483.2,1522.7,2074.5,2709.5,3495.3,1756.0,3507.5,3468.6,3473.4,618.1,827.7,1851.8,1000.5,945.8,845.3,2.0,0.0,-21.0,15084.0,-2625.0,1100.0,-5728.0,-4.0,-6.0,-22.0,1.0,-4.0,7.0,14033.0,-6456.0,2623.0,-4790.0,-24.0,8.0,2.0,1.0
2022-05-23 13:40:42.051992-07:00,1226.6,779.4,1049.6,964.5,933.0,838.6,1563.7,1205.3,3460.1,3466.1,1061.7,874.7,1644.5,3463.7,1211.5,1233.7,3464.9,3483.2,1535.7,2080.6,2709.5,3495.3,1753.1,3488.0,3468.6,3473.4,618.9,832.7,1851.8,1000.5,943.2,832.7,8.0,-14.0,-19.0,15081.0,-2639.0,1102.0,-5730.0,1.0,7.0,-5.0,7.0,-10.0,13.0,14030.0,-6464.0,2625.0,-4789.0,19.0,5.0,3.0,1.0
2022-05-23 13:40:42.111847-07:00,1226.6,779.4,1040.9,977.3,933.0,838.6,1555.3,1198.2,3460.1,3466.1,1066.0,874.7,1644.5,3463.7,1213.3,1234.6,3475.9,3474.6,1535.7,2080.6,2721.6,3497.8,1753.1,3488.0,3474.6,3478.3,618.9,832.7,1838.2,1001.3,943.2,832.7,4.0,7.0,-21.0,15083.0,-2625.0,1096.0,-5731.0,52.0,-8.0,9.0,2.0,-1.0,7.0,14037.0,-6449.0,2622.0,-4790.0,55.0,2.0,14.0,1.0
2022-05-23 13:40:42.143433-07:00,1224.8,773.6,1040.9,977.3,936.4,845.3,1555.3,1198.2,3468.6,3475.9,1066.0,874.7,1639.8,3468.6,1213.3,1234.6,3475.9,3474.6,1551.5,2078.5,2721.6,3497.8,1752.1,3479.5,3474.6,3478.3,611.7,834.4,1838.2,1001.3,945.8,844.4,0.0,6.0,-17.0,15084.0,-2627.0,1097.0,-5729.0,-37.0,5.0,-8.0,-6.0,1.0,15.0,14040.0,-6444.0,2619.0,-4788.0,-8.0,-11.0,-4.0,1.0
2022-05-23 13:40:42.245403-07:00,1224.8,773.6,1061.7,979.9,936.4,845.3,1555.3,1207.1,3468.6,3475.9,1061.7,873.0,1639.8,3468.6,1219.5,1229.3,3467.4,3477.1,1551.5,2078.5,2706.2,3494.1,1752.1,3479.5,3467.4,3479.5,611.7,834.4,1840.1,1005.6,945.8,844.4,0.0,-1.0,-17.0,15080.0,-2637.0,1101.0,-5732.0,-8.0,-4.0,-15.0,0.0,-7.0,19.0,14036.0,-6452.0,2620.0,-4788.0,-14.0,9.0,-6.0,1.0
2022-05-23 13:40:42.261896-07:00,1231.0,771.1,1054.8,979.9,928.8,838.6,1555.3,1207.1,3473.4,3468.6,1060.8,873.0,1645.4,3467.4,1219.5,1229.3,3467.4,3477.1,1522.7,2078.5,2706.2,3502.7,1750.2,3490.5,3467.4,3479.5,625.4,828.5,1840.1,1002.2,942.4,841.1,4.0,-8.0,-18.0,15079.0,-2642.0,1101.0,-5733.0,-24.0,-12.0,-1.0,0.0,-7.0,9.0,14035.0,-6454.0,2622.0,-4788.0,-18.0,-4.0,-5.0,1.0
2022-05-23 13:40:42.291839-07:00,1231.0,771.1,1054.8,977.3,928.8,841.9,1555.3,1206.2,3473.4,3468.6,1060.8,876.4,1645.4,3469.8,1214.2,1246.2,3478.3,3477.1,1525.5,2078.5,2715.0,3502.7,1750.2,3490.5,3483.2,3475.9,613.3,828.5,1848.9,1002.2,942.4,841.1,3.0,-13.0,-9.0,15078.0,-2647.0,1102.0,-5733.0,-6.0,-4.0,-3.0,-1.0,-9.0,14.0,14035.0,-6454.0,2620.0,-4787.0,-6.0,-8.0,-8.0,1.0
2022-05-23 13:40:42.351943-07:00,1223.9,775.3,1063.4,977.3,932.2,841.9,1555.3,1206.2,3467.4,3464.9,1055.6,876.4,1643.5,3469.8,1214.2,1246.2,3478.3,3477.1,1525.5,2072.5,2715.0,3490.5,1751.2,3490.5,3483.2,3475.9,613.3,829.4,1848.9,1004.8,939.0,841.9,0.0,4.0,-25.0,15080.0,-2638.0,1098.0,-5733.0,-14.0,-11.0,-5.0,0.0,-3.0,12.0,14037.0,-6451.0,2619.0,-4788.0,-9.0,-4.0,-3.0,1.0
2022-05-23 13:40:42.411898-07:00,1223.9,775.3,1063.4,980.7,932.2,839.4,1537.6,1214.2,3467.4,3464.9,1055.6,870.5,1643.5,3468.6,1205.3,1239.1,3473.4,3466.1,1530.1,2072.5,2706.2,3490.5,1751.2,3490.5,3478.3,3471.0,617.3,829.4,1843.0,1004.8,939.0,841.9,5.0,0.0,-25.0,15081.0,-2642.0,1088.0,-5731.0,42.0,-27.0,4.0,-5.0,-6.0,7.0,14036.0,-6455.0,2617.0,-4786.0,21.0,-18.0,8.0,1.0
2022-05-23 13:40:42.441880-07:00,1217.7,774.5,1057.3,980.7,936.4,839.4,1537.6,1214.2,3469.8,3468.6,1073.8,870.5,1642.6,3468.6,1205.3,1239.1,3473.4,3466.1,1530.1,2079.5,2706.2,3486.8,1754.1,3480.7,3478.3,3471.0,617.3,831.9,1843.0,1005.6,946.6,834.4,6.0,-3.0,-6.0,15088.0,-2623.0,1068.0,-5723.0,87.0,-36.0,38.0,7.0,-4.0,15.0,14043.0,-6451.0,2606.0,-4777.0,30.0,-28.0,31.0,1.0
2022-05-23 13:40:42.501618-07:00,1217.7,774.5,1057.3,975.6,932.2,842.8,1559.9,1195.6,3469.8,3468.6,1073.8,871.3,1644.5,3467.4,1211.5,1225.7,3479.5,3467.4,1521.8,2079.5,2717.2,3486.8,1754.1,3480.7,3477.1,3461.3,614.1,830.2,1848.9,1005.6,946.6,834.4,7.0,0.0,-20.0,15097.0,-2608.0,1064.0,-5708.0,-14.0,8.0,22.0,9.0,-3.0,15.0,14051.0,-6446.0,2600.0,-4764.0,-12.0,-23.0,12.0,1.0
2022-05-23 13:40:42.561890-07:00,1223.9,781.1,1060.8,974.8,932.2,842.8,1559.9,1195.6,3467.4,3471.0,1066.9,874.7,1644.5,3467.4,1211.5,1225.7,3479.5,3467.4,1521.8,2079.5,2719.4,3491.7,1755.0,3488.0,3477.1,3461.3,614.1,830.2,1838.2,1008.2,941.5,839.4,5.0,6.0,-24.0,15098.0,-2606.0,1062.0,-5706.0,-5.0,-13.0,-4.0,5.0,0.0,10.0,14053.0,-6444.0,2597.0,-4763.0,3.0,-2.0,-1.0,1.0
2022-05-23 13:40:42.591974-07:00,1223.9,781.1,1060.8,974.8,939.8,840.3,1557.1,1201.8,3467.4,3471.0,1066.9,874.7,1644.5,3469.8,1209.7,1235.5,3480.7,3481.9,1505.1,2071.5,2719.4,3491.7,1755.0,3488.0,3467.4,3478.3,618.9,830.2,1838.2,1008.2,941.5,839.4,1.0,4.0,-7.0,15097.0,-2611.0,1058.0,-5707.0,-16.0,6.0,-5.0,0.0,-7.0,16.0,14052.0,-6447.0,2598.0,-4762.0,-15.0,2.0,-4.0,1.0
2022-05-23 13:40:42.651757-07:00,1231.9,774.5,1063.4,972.2,939.8,840.3,1557.1,1201.8,3473.4,3467.4,1063.4,870.5,1644.5,3469.8,1209.7,1235.5,3480.7,3481.9,1505.1,2071.5,2716.1,3489.2,1758.9,3486.8,3467.4,3478.3,618.9,830.2,1849.8,1000.5,947.5,846.1,1.0,-2.0,-24.0,15094.0,-2623.0,1074.0,-5707.0,-28.0,24.0,-6.0,0.0,-6.0,9.0,14044.0,-6463.0,2603.0,-4759.0,-48.0,6.0,-4.0,1.0
2022-05-23 13:40:42.711945-07:00,1231.9,774.5,1063.4,972.2,946.6,837.7,1555.3,1205.3,3473.4,3467.4,1063.4,870.5,1636.9,3463.7,1208.0,1234.6,3483.2,3467.4,1517.1,2083.6,2716.1,3489.2,1758.9,3486.8,3472.2,3469.8,615.7,829.4,1849.8,1000.5,947.5,846.1,0.0,-12.0,-16.0,15093.0,-2625.0,1079.0,-5708.0,2.0,4.0,2.0,3.0,-11.0,13.0,14041.0,-6470.0,2606.0,-4758.0,-15.0,-3.0,-1.0,1.0
2022-05-23 13:40:42.741980-07:00,1233.7,767.0,1053.0,971.3,946.6,837.7,1555.3,1205.3,3468.6,3462.5,1059.1,878.0,1636.9,3463.7,1208.0,1234.6,3483.2,3467.4,1517.1,2083.6,2723.8,3494.1,1754.1,3481.9,3472.2,3469.8,615.7,829.4,1844.0,1006.5,946.6,846.1,6.0,10.0,-25.0,15092.0,-2624.0,1079.0,-5710.0,-46.0,10.0,-18.0,0.0,-7.0,14.0,14042.0,-6467.0,2604.0,-4760.0,1.0,-9.0,-13.0,1.0
2022-05-23 13:40:42.801998-07:00,1220.4,767.0,1053.0,971.3,927.9,837.7,1562.7,1208.0,3471.0,3462.5,1059.1,878.0,1646.4,3467.4,1214.2,1234.6,3471.0,3478.3,1525.5,2072.5,2723.8,3494.1,1754.1,3485.6,3468.6,3469.8,638.4,826.0,1844.0,1006.5,946.6,845.3,7.0,-13.0,-4.0,15086.0,-2627.0,1093.0,-5723.0,38.0,57.0,-21.0,-2.0,-4.0,18.0,14043.0,-6463.0,2600.0,-4764.0,40.0,-6.0,-3.0,1.0
2022-05-23 13:40:42.862052-07:00,1220.4,777.8,1048.7,966.2,927.9,837.7,1562.7,1199.1,3471.0,3468.6,1067.7,873.8,1646.4,3467.4,1214.2,1233.7,3473.4,3478.3,1525.5,2072.5,2711.7,3488.0,1756.0,3485.6,3468.6,3469.8,638.4,826.0,1844.0,1008.2,941.5,845.3,2.0,15.0,-18.0,15081.0,-2607.0,1128.0,-5739.0,-45.0,127.0,-11.0,0.0,10.0,17.0,14043.0,-6463.0,2599.0,-4763.0,-55.0,-2.0,2.0,1.0
2022-05-23 13:40:42.891950-07:00,1230.2,777.8,1048.7,966.2,926.2,834.4,1552.5,1199.1,3467.4,3468.6,1067.7,873.8,1627.5,3463.7,1210.6,1233.7,3473.4,3473.4,1518.0,2078.5,2711.7,3488.0,1756.0,3490.5,3468.6,3475.9,614.9,829.4,1844.0,1008.2,941.5,849.5,0.0,-12.0,-24.0,15070.0,-2622.0,1187.0,-5748.0,-65.0,104.0,1.0,1.0,-4.0,9.0,14027.0,-6498.0,2612.0,-4757.0,-90.0,10.0,-4.0,1.0
2022-05-23 13:40:42.952551-07:00,1230.2,776.9,1050.4,959.4,926.2,834.4,1552.5,1200.0,3467.4,3471.0,1069.5,875.5,1627.5,3463.7,1210.6,1239.1,3468.6,3473.4,1518.0,2078.5,2700.7,3486.8,1754.1,3490.5,3477.1,3475.9,614.9,829.4,1836.2,1000.5,939.8,849.5,-1.0,-5.0,-45.0,15069.0,-2620.0,1199.0,-5749.0,8.0,-25.0,3.0,2.0,-3.0,6.0,14022.0,-6508.0,2616.0,-4756.0,10.0,0.0,-3.0,1.0
2022-05-23 13:40:43.011965-07:00,1228.4,776.9,1050.4,959.4,930.5,838.6,1559.0,1200.0,3464.9,3471.0,1069.5,875.5,1646.4,3473.4,1208.9,1239.1,3468.6,3469.8,1530.1,2077.5,2700.7,3486.8,1754.1,3492.9,3477.1,3472.2,616.5,835.2,1836.2,1000.5,939.8,841.9,6.0,-3.0,-7.0,15069.0,-2635.0,1185.0,-5746.0,-21.0,-35.0,-7.0,3.0,-11.0,20.0,14025.0,-6504.0,2606.0,-4758.0,18.0,-21.0,-14.0,1.0
2022-05-23 13:40:43.042140-07:00,1228.4,777.8,1053.0,960.2,930.5,838.6,1552.5,1194.7,3464.9,3471.0,1066.9,869.6,1646.4,3473.4,1210.6,1232.8,3474.6,3478.3,1530.1,2077.5,2720.5,3490.5,1757.9,3492.9,3478.3,3472.2,616.5,835.2,1844.0,1003.9,944.1,841.9,0.0,1.0,-11.0,15069.0,-2635.0,1176.0,-5748.0,8.0,-9.0,-20.0,-2.0,-5.0,15.0,14029.0,-6495.0,2602.0,-4760.0,20.0,-3.0,2.0,1.0
2022-05-23 13:40:43.102619-07:00,1231.9,767.8,1053.0,960.2,930.5,841.9,1552.5,1194.7,3478.3,3462.5,1066.9,869.6,1656.8,3468.6,1210.6,1232.8,3474.6,3478.3,1523.6,2082.6,2720.5,3490.5,1754.1,3485.6,3478.3,3472.2,618.9,834.4,1844.0,1003.9,936.4,843.6,0.0,-12.0,-23.0,15070.0,-2610.0,1149.0,-5761.0,162.0,-50.0,-53.0,1.0,-2.0,2.0,14040.0,-6474.0,2597.0,-4760.0,109.0,-8.0,20.0,1.0
2022-05-23 13:40:43.162014-07:00,1231.9,767.8,1049.6,973.9,930.5,841.9,1557.1,1200.9,3478.3,3462.5,1070.3,877.2,1656.8,3468.6,1215.1,1223.9,3462.5,3475.9,1523.6,2082.6,2710.6,3489.2,1754.1,3485.6,3463.7,3480.7,618.9,834.4,1841.1,1000.5,936.4,843.6,6.0,19.0,-13.0,15067.0,-2590.0,1115.0,-5784.0,-41.0,-28.0,-58.0,7.0,0.0,20.0,14054.0,-6443.0,2586.0,-4765.0,2.0,-3.0,-19.0,1.0
2022-05-23 13:40:43.191882-07:00,1223.9,771.1,1049.6,973.9,930.5,836.1,1557.1,1200.9,3471.0,3467.4,1070.3,877.2,1636.0,3464.9,1215.1,1223.9,3462.5,3475.9,1528.3,2066.5,2710.6,3489.2,1752.1,3484.4,3463.7,3480.7,609.2,830.2,1841.1,1000.5,947.5,838.6,7.0,-1.0,-15.0,15058.0,-2609.0,1118.0,-5798.0,-47.0,13.0,-26.0,0.0,0.0,12.0,14049.0,-6452.0,2586.0,-4771.0,-20.0,4.0,-12.0,1.0
2022-05-23 13:40:43.251963-07:00,1223.9,771.1,1042.6,967.1,930.5,836.1,1558.1,1205.3,3471.0,3467.4,1069.5,870.5,1636.0,3464.9,1216.8,1235.5,3466.1,3471.0,1528.3,2066.5,2712.8,3495.3,1752.1,3484.4,3467.4,3477.1,609.2,830.2,1840.1,993.6,947.5,838.6,12.0,21.0,-24.0,15043.0,-2659.0,1155.0,-5809.0,-234.0,66.0,-35.0,6.0,22.0,1.0,14035.0,-6479.0,2586.0,-4774.0,-102.0,-22.0,-40.0,1.0
2022-05-23 13:40:43.312075-07:00,1223.9,776.1,1042.6,967.1,932.2,834.4,1558.1,1205.3,3463.7,3475.9,1069.5,870.5,1640.7,3475.9,1216.8,1235.5,3466.1,3471.0,1522.7,2072.5,2712.8,3495.3,1749.3,3483.2,3467.4,3477.1,612.5,832.7,1840.1,993.6,949.2,841.1,17.0,117.0,-54.0,14972.0,-2949.0,1317.0,-5818.0,-1338.0,171.0,-76.0,9.0,77.0,-10.0,13957.0,-6644.0,2585.0,-4775.0,-768.0,-140.0,-185.0,1.0
2022-05-23 13:40:43.342266-07:00,1223.9,776.1,1058.2,963.7,932.2,837.7,1539.4,1242.6,3463.7,3475.9,1070.3,876.4,1640.7,3475.9,1214.2,1234.6,3469.8,3488.0,1526.4,2072.5,2712.8,3490.5,1749.3,3483.2,3478.3,3466.1,610.8,832.7,1843.0,997.0,949.2,841.1,2.0,59.0,0.0,14780.0,-3648.0,1675.0,-5821.0,-2070.0,242.0,-169.0,-3.0,52.0,28.0,13761.0,-7039.0,2566.0,-4788.0,-904.0,-252.0,-386.0,1.0
2022-05-23 13:40:43.401996-07:00,1224.8,772.8,1059.9,963.7,940.7,837.7,1539.4,1242.6,3473.4,3461.3,1066.0,876.4,1645.4,3475.9,1214.2,1234.6,3469.8,3488.0,1526.4,2073.5,2712.8,3497.8,1746.4,3488.0,3478.3,3466.1,610.8,836.1,1843.0,1001.3,943.2,841.1,0.0,140.0,-67.0,14382.0,-4811.0,2206.0,-5796.0,-3912.0,189.0,-398.0,1.0,28.0,-7.0,13443.0,-7641.0,2532.0,-4788.0,-2006.0,-480.0,-536.0,1.0
2022-05-23 13:40:43.461910-07:00,1224.8,772.8,1059.9,970.5,940.7,841.9,1566.5,1185.0,3473.4,3461.3,1066.0,873.0,1645.4,3477.1,1214.2,1231.0,3472.2,3466.1,1531.0,2073.5,2702.9,3497.8,1746.4,3488.0,3474.6,3469.8,615.7,836.1,1845.0,1001.3,943.2,841.1,21.0,-83.0,11.0,13650.0,-6442.0,2886.0,-5681.0,-4251.0,244.0,-356.0,17.0,-52.0,-5.0,12952.0,-8505.0,2576.0,-4660.0,-3051.0,-551.0,-283.0,1.0
2022-05-23 13:40:43.492089-07:00,1220.4,764.5,1049.6,970.5,932.2,841.9,1566.5,1185.0,3467.4,3458.9,1068.6,873.0,1641.6,3477.1,1214.2,1231.0,3472.2,3466.1,1531.0,2089.6,2702.9,3495.3,1748.3,3486.8,3474.6,3469.8,615.7,833.6,1845.0,1004.8,935.6,841.9,8.0,82.0,-28.0,12852.0,-7791.0,3514.0,-5497.0,-3904.0,269.0,-244.0,-5.0,45.0,-57.0,12242.0,-9583.0,2717.0,-4399.0,-3119.0,-499.0,-125.0,1.0
2022-05-23 13:40:43.552607-07:00,1220.4,764.5,1049.6,965.4,932.2,837.7,1576.8,1213.3,3467.4,3458.9,1068.6,870.5,1641.6,3467.4,1221.3,1239.1,3477.1,3468.6,1532.9,2089.6,2730.4,3495.3,1748.3,3486.8,3478.3,3474.6,623.0,833.6,1839.1,1004.8,935.6,841.9,27.0,111.0,-114.0,11775.0,-9235.0,4121.0,-5245.0,-4822.0,195.0,-569.0,44.0,97.0,-111.0,11282.0,-10778.0,2942.0,-4041.0,-4928.0,-158.0,24.0,1.0
2022-05-23 13:40:43.611973-07:00,1228.4,769.5,1053.9,973.9,939.8,837.7,1576.8,1213.3,3469.8,3468.6,1066.9,873.8,1642.6,3467.4,1221.3,1239.1,3477.1,3468.6,1532.9,2103.7,2723.8,3486.8,1751.2,3489.2,3478.3,3474.6,623.0,828.5,1845.9,1003.0,954.3,845.3,-7.0,-111.0,-84.0,10357.0,-10712.0,4723.0,-4910.0,-4751.0,355.0,-484.0,31.0,-69.0,-62.0,9528.0,-12306.0,3640.0,-3601.0,-4650.0,168.0,-80.0,1.0
2022-05-23 13:40:43.672089-07:00,1228.4,769.5,1053.9,973.9,930.5,836.1,1572.1,1201.8,3469.8,3468.6,1066.9,873.8,1642.6,3461.3,1210.6,1233.7,3468.6,3469.8,1521.8,2103.7,2723.8,3486.8,1751.2,3489.2,3474.6,3467.4,617.3,830.2,1845.9,1003.0,954.3,845.3,-1.0,-13.0,-62.0,9118.0,-11719.0,5212.0,-4560.0,-3708.0,281.0,-169.0,63.0,17.0,-67.0,8054.0,-13290.0,4051.0,-3247.0,-3337.0,73.0,-86.0,1.0
2022-05-23 13:40:43.732033-07:00,1220.4,770.3,1048.7,966.2,930.5,836.1,1572.1,1201.8,3467.4,3469.8,1062.5,878.9,1642.6,3461.3,1210.6,1233.7,3468.6,3469.8,1521.8,2103.7,2739.2,3490.5,1752.1,3489.2,3474.6,3467.4,617.3,830.2,1858.6,1004.8,944.9,848.6,-19.0,-17.0,-54.0,7994.0,-12483.0,5584.0,-4186.0,-3114.0,130.0,-206.0,3.0,-33.0,-10.0,6918.0,-13917.0,4287.0,-2916.0,-2613.0,-137.0,-70.0,1.0
2022-05-23 13:40:43.733292-07:00,1220.4,770.3,1048.7,966.2,939.0,841.9,1578.6,1207.1,3467.4,3469.8,1062.5,878.9,1638.8,3468.6,1213.3,1233.7,3473.4,3466.1,1532.9,2124.0,2739.2,3490.5,1752.1,3489.2,3479.5,3473.4,622.2,829.4,1858.6,1004.8,944.9,848.6,-26.0,-64.0,-19.0,6998.0,-13068.0,5851.0,-3802.0,-2775.0,58.0,-56.0,-8.0,39.0,-49.0,5990.0,-14366.0,4422.0,-2576.0,-2718.0,-178.0,-29.0,1.0
2022-05-23 13:40:43.822203-07:00,1212.4,774.5,1066.0,973.9,939.0,841.9,1578.6,1207.1,3466.1,3472.2,1068.6,878.9,1638.8,3468.6,1213.3,1233.7,3473.4,3466.1,1532.9,2124.0,2737.0,3486.8,1750.2,3492.9,3479.5,3473.4,622.2,829.4,1846.9,1003.0,945.8,837.7,-24.0,-56.0,-10.0,5953.0,-13557.0,6154.0,-3366.0,-2862.0,125.0,42.0,-29.0,-38.0,-29.0,4924.0,-14777.0,4589.0,-2183.0,-2618.0,-143.0,55.0,1.0
2022-05-23 13:40:43.882200-07:00,1212.4,774.5,1066.0,973.9,929.6,850.3,1594.6,1202.7,3466.1,3472.2,1068.6,878.9,1641.6,3466.1,1214.2,1234.6,3478.3,3483.2,1537.6,2136.1,2737.0,3486.8,1750.2,3492.9,3478.3,3472.2,614.1,825.2,1846.9,1003.0,945.8,837.7,2.0,70.0,-45.0,4952.0,-13943.0,6408.0,-2906.0,-2901.0,-55.0,32.0,6.0,35.0,-10.0,3905.0,-15092.0,4712.0,-1797.0,-2568.0,-216.0,-40.0,1.0
2022-05-23 13:40:43.883640-07:00,1222.2,771.1,1061.7,967.9,929.6,850.3,1594.6,1209.7,3466.1,3464.9,1066.0,873.0,1641.6,3466.1,1214.2,1233.7,3474.6,3483.2,1537.6,2136.1,2735.9,3489.2,1742.6,3488.0,3475.9,3472.2,614.1,825.2,1849.8,1003.9,950.9,842.8,28.0,-95.0,82.0,3920.0,-14268.0,6593.0,-2457.0,-2429.0,231.0,-2.0,-29.0,81.0,7.0,2985.0,-15319.0,4779.0,-1417.0,-2189.0,-206.0,-38.0,1.0
2022-05-23 13:40:43.942140-07:00,1219.5,771.1,1061.7,967.9,929.6,840.3,1593.6,1209.7,3466.1,3464.9,1066.0,873.0,1638.8,3462.5,1228.4,1233.7,3474.6,3483.2,1532.9,2142.2,2735.9,3489.2,1742.6,3489.2,3475.9,3478.3,620.5,826.9,1849.8,1003.9,950.9,840.3,20.0,-58.0,-27.0,2798.0,-14491.0,6811.0,-2053.0,-3104.0,193.0,-11.0,4.0,-86.0,-65.0,2124.0,-15482.0,4809.0,-1052.0,-2034.0,-187.0,-52.0,1.0
2022-05-23 13:40:44.002118-07:00,1219.5,768.7,1055.6,978.2,929.6,840.3,1593.6,1228.4,3466.1,3468.6,1062.5,874.7,1638.8,3462.5,1228.4,1232.8,3467.4,3483.2,1532.9,2142.2,2745.8,3497.8,1749.3,3489.2,3474.6,3478.3,620.5,826.9,1841.1,1006.5,951.7,840.3,-18.0,-87.0,-35.0,1834.0,-14630.0,6930.0,-1734.0,-1786.0,303.0,95.0,-24.0,-11.0,-1.0,1424.0,-15568.0,4837.0,-810.0,-1247.0,-184.0,65.0,1.0
2022-05-23 13:40:44.032148-07:00,1222.2,768.7,1055.6,978.2,927.9,840.3,1605.8,1228.4,3464.9,3468.6,1062.5,874.7,1645.4,3466.1,1211.5,1232.8,3467.4,3474.6,1545.0,2128.0,2745.8,3497.8,1749.3,3486.8,3474.6,3472.2,625.4,829.4,1841.1,1006.5,951.7,844.4,-27.0,-1.0,-84.0,1083.0,-14655.0,7103.0,-1423.0,-2190.0,-63.0,205.0,25.0,-10.0,-21.0,891.0,-15615.0,4845.0,-577.0,-1466.0,-173.0,-35.0,1.0
2022-05-23 13:40:44.093024-07:00,1222.2,766.2,1069.5,979.0,927.9,840.3,1605.8,1231.0,3464.9,3477.1,1069.5,873.8,1645.4,3466.1,1211.5,1236.4,3480.7,3474.6,1545.0,2128.0,2770.2,3495.3,1753.1,3486.8,3480.7,3472.2,625.4,829.4,1822.6,1003.9,950.0,844.4,-14.0,-107.0,43.0,443.0,-14660.0,7230.0,-1021.0,-1227.0,-165.0,242.0,-9.0,-30.0,27.0,434.0,-15631.0,4877.0,-343.0,-770.0,-146.0,31.0,1.0
2022-05-23 13:40:44.182683-07:00,1215.1,769.5,1069.5,979.0,926.2,852.0,1626.5,1231.0,3478.3,3475.9,1069.5,873.8,1639.8,3469.8,1211.5,1236.4,3480.7,3472.2,1536.6,2126.0,2770.2,3495.3,1753.1,3481.9,3480.7,3478.3,634.3,821.0,1822.6,1003.9,949.2,843.6,-4.0,-43.0,24.0,152.0,-14631.0,7330.0,-786.0,-752.0,-163.0,123.0,-3.0,-27.0,7.0,266.0,-15640.0,4866.0,-244.0,-385.0,-90.0,-53.0,1.0
2022-05-23 13:40:44.184114-07:00,1215.1,769.5,1070.3,979.0,926.2,852.0,1649.2,1248.0,3478.3,3475.9,1071.2,873.0,1639.8,3469.8,1213.3,1234.6,3477.1,3469.8,1536.6,2126.0,2775.7,3491.7,1753.1,3481.9,3484.4,3472.2,634.3,821.0,1840.1,1014.2,949.2,843.6,-5.0,-140.0,31.0,-16.0,-14614.0,7382.0,-618.0,-298.0,-159.0,134.0,6.0,-28.0,-6.0,179.0,-15647.0,4851.0,-195.0,-130.0,-24.0,4.0,1.0
2022-05-23 13:40:44.242562-07:00,1213.3,777.8,1070.3,979.0,930.5,847.8,1649.2,1248.0,3462.5,3467.4,1071.2,873.0,1639.8,3472.2,1213.3,1234.6,3477.1,3469.8,1550.6,2116.9,2775.7,3491.7,1759.8,3488.0,3484.4,3472.2,629.5,835.2,1840.1,1014.2,949.2,834.4,15.0,-80.0,66.0,-35.0,-14595.0,7424.0,-550.0,-40.0,-53.0,59.0,6.0,-16.0,2.0,174.0,-15645.0,4860.0,-193.0,-34.0,4.0,45.0,1.0
2022-05-23 13:40:44.302113-07:00,1213.3,777.8,1074.7,975.6,930.5,847.8,1641.6,1219.5,3462.5,3467.4,1076.4,866.3,1639.8,3472.2,1209.7,1232.8,3467.4,3467.4,1550.6,2116.9,2774.6,3491.7,1759.8,3488.0,3478.3,3473.4,629.5,835.2,1841.1,1010.8,949.2,834.4,0.0,-43.0,32.0,-67.0,-14590.0,7431.0,-587.0,-143.0,165.0,42.0,3.0,1.0,10.0,147.0,-15641.0,4873.0,-211.0,-80.0,99.0,-20.0,1.0
2022-05-23 13:40:44.332208-07:00,1213.3,773.6,1074.7,975.6,937.3,851.1,1641.6,1219.5,3460.1,3469.8,1076.4,866.3,1638.8,3462.5,1209.7,1232.8,3467.4,3467.4,1544.1,2119.9,2774.6,3491.7,1749.3,3484.4,3478.3,3473.4,627.0,824.4,1841.1,1010.8,949.2,831.9,-11.0,-98.0,-11.0,-117.0,-14572.0,7462.0,-631.0,72.0,116.0,108.0,4.0,0.0,-2.0,105.0,-15631.0,4901.0,-258.0,-26.0,124.0,117.0,1.0
2022-05-23 13:40:44.392167-07:00,1213.3,773.6,1066.9,972.2,937.3,851.1,1633.1,1212.4,3460.1,3469.8,1074.7,876.4,1638.8,3462.5,1208.0,1231.9,3464.9,3474.6,1544.1,2119.9,2775.7,3486.8,1749.3,3484.4,3468.6,3466.1,627.0,824.4,1846.9,1013.3,949.2,831.9,21.0,-9.0,3.0,-115.0,-14553.0,7496.0,-661.0,-81.0,53.0,62.0,10.0,25.0,-3.0,69.0,-15618.0,4941.0,-285.0,-103.0,77.0,48.0,1.0
2022-05-23 13:40:44.482911-07:00,1223.0,769.5,1063.4,972.2,927.9,850.3,1633.1,1212.4,3467.4,3464.9,1076.4,876.4,1648.3,3471.0,1208.0,1231.9,3464.9,3474.6,1552.5,2123.0,2775.7,3500.2,1746.4,3483.2,3468.6,3466.1,630.3,830.2,1846.9,1009.9,944.9,835.2,0.0,-59.0,3.0,-144.0,-14544.0,7512.0,-674.0,40.0,50.0,14.0,2.0,3.0,0.0,48.0,-15617.0,4945.0,-307.0,17.0,51.0,16.0,1.0
2022-05-23 13:40:44.483957-07:00,1223.0,769.5,1063.4,973.9,927.9,851.1,1626.5,1231.0,3467.4,3464.9,1076.4,875.5,1648.3,3467.4,1212.4,1231.0,3478.3,3473.4,1533.8,2123.0,2780.1,3500.2,1746.4,3483.2,3479.5,3473.4,625.4,830.2,1846.9,1009.9,944.9,835.2,3.0,-30.0,-2.0,-107.0,-14548.0,7502.0,-700.0,20.0,3.0,-25.0,0.0,10.0,-1.0,64.0,-15619.0,4938.0,-320.0,61.0,-19.0,-69.0,1.0
2022-05-23 13:40:44.542433-07:00,1210.6,783.6,1064.3,973.9,925.4,851.1,1626.5,1231.0,3468.6,3471.0,1076.4,875.5,1646.4,3467.4,1212.4,1231.0,3478.3,3473.4,1533.8,2116.9,2780.1,3489.2,1740.6,3497.8,3479.5,3473.4,625.4,830.2,1846.9,1009.9,958.5,831.9,3.0,-68.0,13.0,-103.0,-14548.0,7503.0,-696.0,-33.0,-23.0,10.0,10.0,-2.0,-4.0,75.0,-15624.0,4921.0,-306.0,-14.0,-27.0,7.0,1.0
2022-05-23 13:40:44.602059-07:00,1210.6,783.6,1064.3,973.9,925.4,850.3,1634.1,1230.2,3468.6,3471.0,1076.4,876.4,1646.4,3469.8,1212.4,1234.6,3477.1,3464.9,1547.8,2116.9,2771.3,3489.2,1740.6,3497.8,3471.0,3469.8,625.4,830.2,1849.8,1009.9,958.5,831.9,6.0,-39.0,7.0,-92.0,-14546.0,7506.0,-702.0,-79.0,-11.0,12.0,4.0,9.0,2.0,56.0,-15622.0,4931.0,-295.0,-48.0,11.0,8.0,1.0
2022-05-23 13:40:44.632234-07:00,1203.5,781.9,1058.2,973.9,939.0,850.3,1634.1,1230.2,3474.6,3468.6,1076.4,876.4,1642.6,3469.8,1212.4,1234.6,3477.1,3464.9,1547.8,2108.8,2771.3,3486.8,1747.3,3486.8,3471.0,3469.8,625.4,822.7,1849.8,1014.2,949.2,827.7,0.0,-49.0,18.0,-69.0,-14543.0,7514.0,-693.0,-25.0,-48.0,10.0,4.0,1.0,2.0,32.0,-15618.0,4944.0,-293.0,-51.0,3.0,54.0,1.0
2022-05-23 13:40:44.692087-07:00,1203.5,781.9,1058.2,971.3,924.5,857.0,1627.5,1220.4,3474.6,3468.6,1076.4,878.0,1642.6,3466.1,1217.7,1231.0,3480.7,3478.3,1534.8,2102.7,2770.2,3486.8,1747.3,3486.8,3475.9,3460.1,627.8,821.9,1849.8,1014.2,949.2,827.7,7.0,-38.0,29.0,-48.0,-14543.0,7512.0,-717.0,38.0,64.0,-20.0,2.0,7.0,0.0,21.0,-15613.0,4959.0,-297.0,-6.0,31.0,24.0,1.0
2022-05-23 13:40:44.752882-07:00,1209.7,765.3,1068.6,975.6,924.5,857.0,1627.5,1220.4,3475.9,3478.3,1080.8,873.8,1642.6,3466.1,1217.7,1231.0,3480.7,3478.3,1534.8,2102.7,2767.9,3489.2,1742.6,3502.7,3475.9,3460.1,627.8,821.9,1836.2,1014.2,946.6,848.6,7.0,-29.0,2.0,-28.0,-14544.0,7504.0,-774.0,36.0,83.0,0.0,3.0,12.0,3.0,25.0,-15613.0,4957.0,-316.0,45.0,48.0,-47.0,1.0
2022-05-23 13:40:44.782150-07:00,1209.7,765.3,1068.6,975.6,937.3,864.6,1622.8,1224.8,3475.9,3478.3,1080.8,873.8,1639.8,3468.6,1209.7,1231.0,3472.2,3477.1,1552.5,2099.7,2767.9,3489.2,1742.6,3502.7,3477.1,3478.3,622.2,828.5,1836.2,1014.2,946.6,848.6,-5.0,-58.0,4.0,-35.0,-14544.0,7506.0,-756.0,-2.0,-78.0,-21.0,4.0,0.0,-2.0,23.0,-15616.0,4946.0,-320.0,-38.0,-30.0,28.0,1.0
2022-05-23 13:40:44.873162-07:00,1216.0,768.7,1073.8,967.9,937.3,864.6,1622.8,1224.8,3473.4,3477.1,1080.8,875.5,1639.8,3468.6,1209.7,1231.0,3472.2,3477.1,1552.5,2099.7,2770.2,3489.2,1743.5,3481.9,3477.1,3478.3,622.2,828.5,1845.9,1009.0,956.8,837.7,7.0,-16.0,17.0,-9.0,-14548.0,7499.0,-756.0,6.0,13.0,9.0,1.0,14.0,3.0,29.0,-15615.0,4949.0,-330.0,44.0,49.0,-45.0,1.0
2022-05-23 13:40:44.902070-07:00,1216.0,768.7,1073.8,967.9,934.7,865.4,1635.0,1223.0,3473.4,3477.1,1080.8,875.5,1637.9,3462.5,1211.5,1232.8,3478.3,3477.1,1545.9,2104.8,2770.2,3489.2,1743.5,3481.9,3475.9,3478.3,624.6,822.7,1845.9,1009.0,956.8,837.7,0.0,-48.0,-1.0,4.0,-14547.0,7500.0,-755.0,-45.0,-40.0,-10.0,6.0,0.0,-4.0,11.0,-15614.0,4952.0,-334.0,-77.0,-8.0,48.0,1.0
2022-05-23 13:40:44.992025-07:00,1214.2,780.3,1070.3,969.6,934.7,865.4,1635.0,1223.0,3474.6,3473.4,1079.0,876.4,1637.9,3462.5,1211.5,1232.8,3478.3,3477.1,1545.9,2104.8,2764.6,3481.9,1743.5,3497.8,3475.9,3478.3,624.6,822.7,1837.2,1014.2,960.2,842.8,7.0,-10.0,14.0,35.0,-14553.0,7488.0,-762.0,36.0,-3.0,-31.0,2.0,22.0,0.0,-7.0,-15607.0,4974.0,-338.0,-3.0,42.0,18.0,1.0
2022-05-23 13:40:44.994625-07:00,1206.2,780.3,1070.3,969.6,934.7,846.1,1627.5,1222.2,3462.5,3473.4,1079.0,876.4,1642.6,3461.3,1212.4,1231.0,3477.1,3478.3,1536.6,2105.8,2764.6,3481.9,1743.5,3488.0,3475.9,3479.5,644.0,826.9,1837.2,1014.2,960.2,838.6,2.0,-59.0,11.0,42.0,-14553.0,7488.0,-766.0,45.0,3.0,16.0,6.0,-1.0,0.0,-6.0,-15605.0,4980.0,-341.0,15.0,-19.0,54.0,1.0
2022-05-23 13:40:45.051954-07:00,1206.2,776.1,1065.1,973.1,934.7,846.1,1627.5,1226.6,3462.5,3468.6,1078.2,870.5,1642.6,3461.3,1212.4,1233.7,3472.2,3478.3,1536.6,2105.8,2738.1,3486.8,1745.4,3488.0,3475.9,3479.5,644.0,826.9,1839.1,1015.1,952.6,838.6,-2.0,-28.0,21.0,64.0,-14547.0,7494.0,-812.0,65.0,113.0,7.0,3.0,3.0,2.0,5.0,-15598.0,5001.0,-354.0,24.0,56.0,47.0,1.0
