Time,P0,P1,P2,P3,P4,P5,P6,P7,P8,P9,P10,P11,P12,P13,P14,P15,P16,P17,P18,P19,P20,P21,P22,P23,P24,P25,P26,P27,P28,P29,P30,P31,ECG,AX0,AY0,AZ0,QW0,QX0,QY0,QZ0,GX0,GY0,GZ0,AX1,AY1,AZ1,QW1,QX1,QY1,QZ1,GX1,GY1,GZ1
2022-05-23 14:53:25.609723-07:00,1313.3,824.4,1181.5,1042.6,965.4,971.3,1687.2,1246.2,3477.1,3468.6,1148.0,873.8,1604.0,3469.8,1307.9,1245.3,3472.2,3472.2,1588.9,2119.9,2765.7,3497.8,1778.1,3488.0,3475.9,3472.2,668.4,811.9,1737.8,1042.6,1032.3,903.4,8.0,-9.0,3.0,6636.0,-7753.0,10446.0,-7427.0,45.0,-34.0,-27.0,10.0,-5.0,6.0,7583.0,-12475.0,-6301.0,3950.0,27.0,-10.0,-19.0,1.0
2022-05-23 14:53:25.610965-07:00,1321.4,827.7,1178.8,1035.7,965.4,971.3,1687.2,1246.2,3478.3,3474.6,1145.4,873.8,1604.0,3469.8,1307.9,1245.3,3472.2,3472.2,1588.9,2119.9,2767.9,3486.8,1767.5,3479.5,3475.9,3472.2,668.4,811.9,1730.1,1061.7,1028.8,897.4,0.0,11.0,-11.0,6654.0,-7762.0,10422.0,-7436.0,36.0,-63.0,-32.0,7.0,1.0,5.0,7597.0,-12461.0,-6307.0,3956.0,22.0,-15.0,-26.0,1.0
2022-05-23 14:53:25.728834-07:00,1321.4,827.7,1178.8,1035.7,958.5,961.1,1676.7,1227.5,3478.3,3474.6,1145.4,873.8,1599.3,3457.6,1307.9,1246.2,3472.2,3478.3,1589.9,2120.9,2767.9,3486.8,1767.5,3479.5,3474.6,3473.4,669.3,813.5,1730.1,1061.7,1028.8,897.4,-8.0,13.0,-12.0,6664.0,-7788.0,10403.0,-7427.0,-25.0,-83.0,-54.0,-4.0,-1.0,0.0,7595.0,-12456.0,-6320.0,3956.0,-44.0,-30.0,-29.0,1.0
2022-05-23 14:53:25.729850-07:00,1316.0,821.9,1181.5,1034.9,958.5,961.1,1676.7,1227.5,3467.4,3473.4,1148.0,867.1,1599.3,3457.6,1307.9,1246.2,3472.2,3478.3,1589.9,2120.9,2758.0,3486.8,1779.1,3489.2,3474.6,3473.4,669.3,813.5,1734.9,1042.6,1023.7,903.4,-14.0,36.0,-37.0,6651.0,-7871.0,10404.0,-7348.0,-360.0,-207.0,-75.0,-9.0,6.0,-14.0,7559.0,-12467.0,-6348.0,3945.0,-228.0,-51.0,-43.0,1.0
2022-05-23 14:53:25.759135-07:00,1316.0,821.9,1181.5,1034.9,962.0,956.8,1676.7,1239.1,3467.4,3473.4,1148.0,867.1,1608.7,3460.1,1315.1,1248.0,3471.0,3475.9,1585.2,2120.9,2758.0,3486.8,1779.1,3489.2,3478.3,3477.1,657.0,808.5,1734.9,1042.6,1023.7,903.4,-10.0,-35.0,24.0,6624.0,-7957.0,10410.0,-7271.0,-17.0,-84.0,-68.0,-3.0,-28.0,13.0,7482.0,-12497.0,-6396.0,3920.0,-31.0,-48.0,-43.0,1.0
2022-05-23 14:53:25.849659-07:00,1299.0,819.4,1182.3,1037.5,962.0,956.8,1676.7,1261.3,3469.8,3467.4,1143.6,877.2,1608.7,3460.1,1315.1,1246.2,3474.6,3475.9,1585.2,2120.9,2761.3,3486.8,1772.3,3495.3,3474.6,3477.1,657.0,808.5,1724.4,1045.2,1025.4,901.7,-15.0,6.0,7.0,6652.0,-7961.0,10367.0,-7302.0,99.0,-44.0,-61.0,-2.0,-9.0,11.0,7504.0,-12473.0,-6407.0,3938.0,80.0,-20.0,-25.0,1.0
2022-05-23 14:53:25.909099-07:00,1303.4,819.4,1182.3,1037.5,960.2,956.8,1659.6,1261.3,3475.9,3467.4,1143.6,877.2,1604.9,3473.4,1306.1,1246.2,3474.6,3475.9,1595.5,2119.9,2761.3,3486.8,1772.3,3494.1,3474.6,3469.8,659.5,803.5,1724.4,1045.2,1025.4,902.5,-5.0,-10.0,18.0,6651.0,-7978.0,10345.0,-7317.0,6.0,2.0,-58.0,5.0,-15.0,15.0,7517.0,-12460.0,-6412.0,3945.0,-2.0,-2.0,-12.0,1.0
2022-05-23 14:53:25.939663-07:00,1303.4,816.0,1162.1,1034.9,960.2,956.8,1659.6,1245.3,3475.9,3471.0,1143.6,868.8,1604.9,3473.4,1306.1,1241.7,3475.9,3475.9,1595.5,2119.9,2755.8,3486.8,1760.8,3494.1,3474.6,3469.8,659.5,803.5,1710.0,1045.2,1017.6,902.5,2.0,1.0,9.0,6652.0,-7977.0,10332.0,-7335.0,56.0,27.0,-14.0,4.0,-8.0,4.0,7526.0,-12454.0,-6411.0,3948.0,38.0,8.0,5.0,1.0
2022-05-23 14:53:25.969036-07:00,1301.6,816.0,1162.1,1034.9,967.1,956.0,1672.9,1245.3,3469.8,3471.0,1143.6,868.8,1595.5,3467.4,1307.0,1241.7,3475.9,3467.4,1598.3,2107.8,2755.8,3486.8,1760.8,3489.2,3474.6,3483.2,670.1,815.2,1710.0,1045.2,1017.6,900.0,-5.0,-2.0,-10.0,6645.0,-7963.0,10334.0,-7355.0,29.0,42.0,2.0,6.0,-10.0,6.0,7536.0,-12450.0,-6407.0,3949.0,15.0,8.0,-1.0,1.0
2022-05-23 14:53:26.028990-07:00,1301.6,812.7,1174.4,1026.3,967.1,956.0,1672.9,1239.9,3469.8,3469.8,1146.3,873.8,1595.5,3467.4,1307.0,1246.2,3464.9,3467.4,1598.3,2107.8,2760.2,3495.3,1763.7,3489.2,3483.2,3483.2,670.1,815.2,1722.4,1045.2,1013.3,900.0,-10.0,4.0,-5.0,6648.0,-7957.0,10329.0,-7365.0,22.0,-4.0,-16.0,-5.0,-6.0,-4.0,7544.0,-12445.0,-6405.0,3953.0,19.0,1.0,-5.0,1.0
2022-05-23 14:53:26.059237-07:00,1299.8,812.7,1174.4,1026.3,946.6,956.0,1677.6,1239.9,3471.0,3469.8,1146.3,873.8,1604.9,3478.3,1309.7,1246.2,3464.9,3480.7,1590.8,2108.8,2760.2,3495.3,1763.7,3488.0,3483.2,3469.8,660.3,811.0,1722.4,1045.2,1013.3,901.7,-11.0,-2.0,-3.0,6648.0,-7954.0,10323.0,-7376.0,39.0,21.0,-14.0,-5.0,-8.0,0.0,7552.0,-12440.0,-6402.0,3957.0,35.0,-5.0,-1.0,1.0
2022-05-23 14:53:26.118963-07:00,1299.8,811.9,1183.2,1044.4,946.6,956.0,1647.3,1239.9,3471.0,3466.1,1154.2,873.8,1604.9,3478.3,1325.0,1245.3,3472.2,3474.6,1590.8,2108.8,2762.4,3499.0,1752.1,3488.0,3480.7,3488.0,660.3,811.0,1730.1,1049.6,1014.2,901.7,-3.0,-12.0,11.0,6651.0,-7941.0,10314.0,-7401.0,87.0,54.0,-8.0,0.0,-12.0,8.0,7563.0,-12433.0,-6397.0,3968.0,50.0,-13.0,13.0,1.0
2022-05-23 14:53:26.209131-07:00,1295.4,806.0,1183.2,1044.4,945.8,954.3,1647.3,1239.9,3478.3,3468.6,1154.2,873.8,1601.1,3468.6,1325.0,1245.3,3472.2,3474.6,1582.4,2110.8,2762.4,3499.0,1755.0,3491.7,3480.7,3488.0,648.9,845.3,1730.1,1049.6,1018.5,901.7,0.0,11.0,6.0,6651.0,-7903.0,10299.0,-7461.0,148.0,98.0,-43.0,3.0,-2.0,8.0,7597.0,-12413.0,-6382.0,3989.0,106.0,9.0,7.0,1.0
2022-05-23 14:53:26.211216-07:00,1295.4,806.0,1192.0,1042.6,945.8,954.3,1654.9,1238.2,3478.3,3468.6,1155.9,883.9,1601.1,3468.6,1332.3,1248.8,3474.6,3477.1,1582.4,2110.8,2758.0,3497.8,1755.0,3491.7,3475.9,3477.1,648.9,845.3,1733.0,1044.4,1018.5,901.7,-4.0,9.0,-2.0,6635.0,-7879.0,10280.0,-7526.0,110.0,91.0,-72.0,0.0,-5.0,12.0,7620.0,-12401.0,-6373.0,3995.0,45.0,20.0,0.0,1.0
2022-05-23 14:53:26.269418-07:00,1302.5,805.2,1192.0,1042.6,959.4,950.0,1654.9,1238.2,3467.4,3469.8,1155.9,883.9,1604.9,3467.4,1332.3,1248.8,3474.6,3477.1,1590.8,2106.8,2758.0,3497.8,1755.0,3491.7,3475.9,3477.1,653.8,860.4,1733.0,1044.4,1022.8,900.8,-11.0,-15.0,-15.0,6613.0,-7847.0,10282.0,-7576.0,57.0,130.0,17.0,-1.0,-12.0,8.0,7633.0,-12397.0,-6365.0,3996.0,13.0,16.0,19.0,1.0
2022-05-23 14:53:26.328825-07:00,1302.5,805.2,1195.6,1053.0,959.4,950.0,1651.1,1214.2,3467.4,3469.8,1166.5,881.4,1604.9,3467.4,1332.3,1245.3,3467.4,3462.5,1590.8,2106.8,2760.2,3486.8,1755.0,3491.7,3467.4,3478.3,653.8,860.4,1727.2,1049.6,1022.8,900.8,-7.0,-4.0,-15.0,6609.0,-7814.0,10315.0,-7569.0,-64.0,25.0,123.0,0.0,-4.0,-3.0,7626.0,-12408.0,-6353.0,3995.0,-38.0,13.0,36.0,1.0
2022-05-23 14:53:26.359002-07:00,1297.2,800.2,1200.9,1053.0,955.1,958.5,1651.1,1214.2,3469.8,3472.2,1160.3,881.4,1601.1,3473.4,1332.3,1245.3,3467.4,3462.5,1591.7,2107.8,2760.2,3490.5,1752.1,3483.2,3467.4,3478.3,656.2,862.9,1727.2,1046.1,1023.7,905.0,2.0,9.0,-14.0,6615.0,-7782.0,10360.0,-7535.0,-28.0,30.0,119.0,1.0,-4.0,3.0,7619.0,-12416.0,-6344.0,3999.0,2.0,-6.0,26.0,1.0
2022-05-23 14:53:26.419550-07:00,1297.2,800.2,1200.9,1055.6,955.1,952.6,1659.6,1239.1,3469.8,3472.2,1160.3,882.3,1601.1,3484.4,1335.9,1253.3,3472.2,3472.2,1585.2,2107.8,2744.7,3490.5,1752.1,3483.2,3473.4,3477.1,649.7,862.9,1717.7,1046.1,1023.7,905.0,-9.0,10.0,-10.0,6630.0,-7770.0,10373.0,-7517.0,9.0,-50.0,22.0,-5.0,-9.0,0.0,7620.0,-12414.0,-6340.0,4007.0,25.0,-11.0,9.0,1.0
2022-05-23 14:53:26.478870-07:00,1296.3,805.2,1192.0,1055.6,957.7,952.6,1659.6,1239.1,3468.6,3460.1,1165.6,882.3,1594.6,3484.4,1335.9,1253.3,3472.2,3472.2,1585.2,2107.8,2744.7,3505.1,1747.3,3490.5,3473.4,3477.1,649.7,864.6,1717.7,1040.9,1024.5,905.0,-7.0,0.0,-7.0,6657.0,-7768.0,10361.0,-7511.0,47.0,-44.0,33.0,-5.0,-6.0,3.0,7633.0,-12403.0,-6338.0,4021.0,55.0,-23.0,-1.0,1.0
2022-05-23 14:53:26.509326-07:00,1296.3,805.2,1192.0,1056.5,957.7,964.5,1664.4,1228.4,3468.6,3460.1,1165.6,885.6,1594.6,3475.9,1328.7,1248.8,3473.4,3468.6,1584.2,2107.8,2749.1,3505.1,1747.3,3490.5,3463.7,3472.2,653.0,864.6,1730.1,1040.9,1024.5,905.0,-6.0,11.0,3.0,6685.0,-7757.0,10345.0,-7521.0,88.0,-23.0,-5.0,-4.0,-9.0,9.0,7654.0,-12386.0,-6334.0,4040.0,74.0,-15.0,0.0,1.0
2022-05-23 14:53:26.569417-07:00,1291.8,800.2,1199.1,1056.5,940.7,964.5,1664.4,1228.4,3475.9,3463.7,1163.8,885.6,1607.7,3475.9,1328.7,1248.8,3473.4,3468.6,1584.2,2110.8,2749.1,3491.7,1740.6,3485.6,3463.7,3472.2,653.0,853.7,1730.1,1045.2,1009.9,903.4,-14.0,11.0,-5.0,6696.0,-7754.0,10325.0,-7543.0,51.0,-13.0,-35.0,-2.0,-7.0,11.0,7670.0,-12375.0,-6331.0,4050.0,41.0,-1.0,-12.0,1.0
2022-05-23 14:53:26.658962-07:00,1291.8,800.2,1199.1,1054.8,940.7,960.2,1657.7,1223.0,3475.9,3463.7,1163.8,878.0,1607.7,3471.0,1337.7,1248.0,3479.5,3467.4,1576.8,2110.8,2753.6,3491.7,1740.6,3485.6,3477.1,3474.6,650.5,853.7,1731.1,1045.2,1009.9,903.4,-14.0,-6.0,-3.0,6696.0,-7762.0,10310.0,-7552.0,10.0,-8.0,-39.0,-9.0,-7.0,1.0,7677.0,-12368.0,-6334.0,4050.0,-6.0,2.0,-14.0,1.0
2022-05-23 14:53:26.660509-07:00,1298.1,811.9,1195.6,1059.9,943.2,960.2,1657.7,1223.0,3469.8,3462.5,1169.1,892.4,1593.6,3471.0,1337.7,1248.0,3479.5,3467.4,1576.8,2105.8,2749.1,3507.5,1744.5,3479.5,3477.1,3474.6,650.5,858.7,1732.0,1047.0,1019.4,898.3,6.0,-6.0,6.0,6695.0,-7763.0,10299.0,-7569.0,68.0,29.0,-29.0,9.0,-7.0,7.0,7687.0,-12362.0,-6332.0,4054.0,44.0,1.0,2.0,1.0
2022-05-23 14:53:26.718870-07:00,1298.1,811.9,1195.6,1059.9,942.4,960.2,1726.3,1230.2,3469.8,3462.5,1169.1,892.4,1594.6,3464.9,1325.0,1248.8,3473.4,3479.5,1589.9,2105.8,2749.1,3507.5,1744.5,3479.5,3478.3,3468.6,657.0,857.0,1732.0,1047.0,1019.4,898.3,3.0,-5.0,-3.0,6693.0,-7755.0,10293.0,-7588.0,16.0,21.0,-4.0,5.0,-5.0,5.0,7692.0,-12360.0,-6329.0,4057.0,5.0,-1.0,14.0,1.0
2022-05-23 14:53:26.778802-07:00,1289.1,804.4,1196.5,1051.3,942.4,960.2,1726.3,1230.2,3468.6,3469.8,1158.6,880.6,1594.6,3464.9,1325.0,1248.8,3473.4,3479.5,1589.9,2105.8,2763.5,3481.9,1742.6,3489.2,3478.3,3468.6,657.0,857.0,1729.1,1037.5,1022.8,903.4,-6.0,4.0,-4.0,6692.0,-7744.0,10291.0,-7602.0,45.0,30.0,-1.0,-4.0,-4.0,7.0,7699.0,-12356.0,-6325.0,4062.0,25.0,-3.0,4.0,1.0
2022-05-23 14:53:26.838999-07:00,1289.1,804.4,1196.5,1051.3,948.3,956.8,1657.7,1223.9,3468.6,3469.8,1158.6,880.6,1602.1,3467.4,1329.6,1252.4,3480.7,3477.1,1575.8,2106.8,2763.5,3481.9,1742.6,3489.2,3480.7,3478.3,645.7,862.9,1729.1,1037.5,1022.8,903.4,-10.0,14.0,-9.0,6695.0,-7734.0,10280.0,-7624.0,67.0,10.0,-46.0,-4.0,-10.0,6.0,7712.0,-12348.0,-6320.0,4069.0,49.0,6.0,-9.0,1.0
2022-05-23 14:53:26.869515-07:00,1292.7,806.0,1193.8,1063.4,948.3,956.8,1657.7,1223.9,3468.6,3474.6,1161.2,879.7,1602.1,3467.4,1329.6,1252.4,3480.7,3477.1,1575.8,2106.8,2745.8,3497.8,1746.4,3484.4,3480.7,3478.3,645.7,862.9,1725.3,1049.6,1021.9,904.2,-4.0,17.0,-19.0,6698.0,-7746.0,10226.0,-7680.0,174.0,-18.0,-190.0,-7.0,-5.0,0.0,7741.0,-12327.0,-6318.0,4078.0,84.0,-6.0,-30.0,1.0
2022-05-23 14:53:26.928851-07:00,1274.7,806.0,1193.8,1063.4,958.5,962.0,1649.2,1223.9,3469.8,3474.6,1161.2,879.7,1600.2,3464.9,1322.3,1249.7,3474.6,3479.5,1581.4,2113.9,2745.8,3497.8,1746.4,3479.5,3483.2,3477.1,648.9,862.1,1725.3,1049.6,1021.9,901.7,-8.0,-11.0,-14.0,6692.0,-7787.0,10165.0,-7725.0,56.0,-51.0,-141.0,-3.0,-7.0,2.0,7753.0,-12311.0,-6333.0,4081.0,27.0,-21.0,-46.0,1.0
2022-05-23 14:53:26.959147-07:00,1274.7,801.9,1199.1,1055.6,958.5,962.0,1649.2,1223.0,3469.8,3468.6,1160.3,883.1,1600.2,3464.9,1322.3,1247.1,3480.7,3479.5,1581.4,2113.9,2755.8,3499.0,1738.7,3479.5,3481.9,3477.1,648.9,862.1,1735.8,1061.7,1016.8,901.7,-6.0,-6.0,0.0,6708.0,-7799.0,10131.0,-7744.0,62.0,-42.0,-20.0,-1.0,-4.0,5.0,7766.0,-12296.0,-6342.0,4088.0,43.0,-22.0,-29.0,1.0
2022-05-23 14:53:27.108965-07:00,1288.2,801.9,1199.1,1055.6,952.6,953.4,1653.0,1223.0,3484.4,3468.6,1160.3,883.1,1604.9,3467.4,1322.3,1247.1,3480.7,3469.8,1587.1,2103.7,2755.8,3499.0,1738.7,3499.0,3481.9,3478.3,651.4,861.2,1735.8,1061.7,1016.8,902.5,-14.0,0.0,-3.0,6718.0,-7795.0,10114.0,-7762.0,58.0,-4.0,-30.0,-5.0,-8.0,11.0,7779.0,-12282.0,-6350.0,4095.0,35.0,-7.0,-18.0,1.0
2022-05-23 14:53:27.139935-07:00,1288.2,816.0,1193.8,1056.5,952.6,953.4,1653.0,1227.5,3484.4,3473.4,1162.1,878.9,1604.9,3467.4,1322.3,1245.3,3473.4,3469.8,1587.1,2103.7,2745.8,3486.8,1734.9,3499.0,3478.3,3478.3,651.4,861.2,1714.8,1044.4,1025.4,902.5,-2.0,-4.0,3.0,6715.0,-7796.0,10105.0,-7775.0,4.0,26.0,-14.0,1.0,-9.0,12.0,7786.0,-12275.0,-6354.0,4093.0,-2.0,7.0,-14.0,1.0
2022-05-23 14:53:27.140810-07:00,1299.8,816.0,1193.8,1056.5,955.1,955.1,1646.4,1227.5,3472.2,3473.4,1162.1,878.9,1596.4,3473.4,1335.9,1245.3,3473.4,3475.9,1596.4,2114.9,2745.8,3486.8,1734.9,3492.9,3478.3,3488.0,646.5,867.9,1714.8,1044.4,1025.4,907.6,4.0,-3.0,0.0,6711.0,-7786.0,10107.0,-7787.0,33.0,38.0,3.0,9.0,-8.0,5.0,7791.0,-12274.0,-6353.0,4091.0,19.0,14.0,0.0,1.0
2022-05-23 14:53:27.169481-07:00,1299.8,805.2,1187.6,1050.4,955.1,955.1,1646.4,1215.1,3472.2,3471.0,1157.7,879.7,1596.4,3473.4,1335.9,1255.1,3475.9,3475.9,1596.4,2114.9,2750.2,3486.8,1730.1,3492.9,3478.3,3488.0,646.5,867.9,1726.3,1039.2,1009.0,907.6,-3.0,0.0,-7.0,6707.0,-7769.0,10106.0,-7808.0,61.0,44.0,-3.0,0.0,-9.0,7.0,7800.0,-12271.0,-6348.0,4090.0,45.0,19.0,1.0,1.0
2022-05-23 14:53:27.228975-07:00,1282.8,813.5,1187.6,1050.4,948.3,950.9,1638.8,1215.1,3462.5,3464.9,1157.7,879.7,1599.3,3467.4,1316.9,1255.1,3475.9,3475.9,1581.4,2095.7,2750.2,3486.8,1727.2,3494.1,3478.3,3478.3,652.2,857.9,1726.3,1039.2,1018.5,900.0,-6.0,5.0,-10.0,6707.0,-7759.0,10087.0,-7842.0,81.0,30.0,-54.0,-7.0,-4.0,2.0,7821.0,-12262.0,-6339.0,4092.0,37.0,15.0,-13.0,1.0
2022-05-23 14:53:27.259052-07:00,1282.8,813.5,1192.9,1063.4,948.3,950.9,1647.3,1200.0,3462.5,3464.9,1149.8,878.0,1599.3,3467.4,1323.2,1246.2,3467.4,3471.0,1581.4,2095.7,2748.0,3497.8,1727.2,3494.1,3474.6,3478.3,652.2,857.9,1725.3,1042.6,1018.5,900.0,-14.0,-4.0,-15.0,6705.0,-7749.0,10080.0,-7863.0,51.0,25.0,-4.0,-5.0,-7.0,5.0,7835.0,-12254.0,-6335.0,4093.0,36.0,5.0,-7.0,1.0
2022-05-23 14:53:27.409639-07:00,1293.6,803.5,1192.9,1063.4,943.2,950.9,1647.3,1200.0,3462.5,3464.9,1149.8,878.0,1598.3,3467.4,1323.2,1246.2,3467.4,3471.0,1585.2,2115.9,2748.0,3497.8,1727.2,3486.8,3474.6,3478.3,650.5,854.5,1725.3,1042.6,1010.8,905.0,-3.0,7.0,-10.0,6713.0,-7741.0,10075.0,-7871.0,25.0,4.0,-5.0,-1.0,-4.0,7.0,7846.0,-12247.0,-6332.0,4098.0,17.0,-5.0,-10.0,1.0
2022-05-23 14:53:27.438966-07:00,1293.6,803.5,1187.6,1052.2,943.2,950.9,1645.4,1216.0,3462.5,3464.9,1153.3,882.3,1598.3,3467.4,1324.1,1237.3,3469.8,3483.2,1585.2,2115.9,2749.1,3499.0,1727.2,3486.8,3478.3,3473.4,650.5,854.5,1728.2,1046.1,1010.8,905.0,-7.0,-5.0,-4.0,6719.0,-7738.0,10070.0,-7875.0,32.0,-11.0,-1.0,-1.0,-9.0,8.0,7852.0,-12242.0,-6332.0,4100.0,30.0,-3.0,-8.0,1.0
2022-05-23 14:53:27.440168-07:00,1283.7,799.4,1187.6,1052.2,938.1,953.4,1645.4,1216.0,3460.1,3478.3,1153.3,882.3,1595.5,3472.2,1324.1,1237.3,3469.8,3483.2,1583.3,2105.8,2749.1,3499.0,1732.0,3490.5,3478.3,3473.4,656.2,860.4,1728.2,1046.1,1019.4,899.1,-5.0,1.0,-5.0,6726.0,-7732.0,10058.0,-7889.0,51.0,6.0,-22.0,0.0,-9.0,8.0,7865.0,-12234.0,-6328.0,4106.0,38.0,-2.0,-6.0,1.0
2022-05-23 14:53:27.589794-07:00,1283.7,799.4,1190.3,1055.6,938.1,956.0,1638.8,1202.7,3460.1,3478.3,1152.4,874.7,1595.5,3468.6,1325.0,1246.2,3467.4,3474.6,1591.7,2105.8,2745.8,3502.7,1732.0,3490.5,3475.9,3478.3,644.9,860.4,1726.3,1035.7,1019.4,899.1,-8.0,-8.0,-8.0,6734.0,-7729.0,10045.0,-7903.0,48.0,-10.0,-4.0,-3.0,-8.0,9.0,7875.0,-12226.0,-6326.0,4114.0,36.0,-15.0,-3.0,1.0
2022-05-23 14:53:27.769185-07:00,1298.1,801.9,1181.5,1055.6,942.4,956.0,1638.8,1202.7,3469.8,3464.9,1154.2,874.7,1596.4,3468.6,1325.0,1246.2,3467.4,3474.6,1591.7,2108.8,2745.8,3495.3,1721.5,3491.7,3475.9,3478.3,644.9,857.9,1726.3,1038.3,1021.9,891.5,-4.0,1.0,-10.0,6741.0,-7722.0,10038.0,-7912.0,31.0,1.0,4.0,1.0,-7.0,10.0,7882.0,-12218.0,-6326.0,4124.0,20.0,-11.0,8.0,1.0
2022-05-23 14:53:27.770468-07:00,1298.1,801.9,1181.5,1056.5,942.4,954.3,1627.5,1208.0,3469.8,3464.9,1154.2,878.9,1596.4,3472.2,1323.2,1247.1,3478.3,3471.0,1586.1,2108.8,2745.8,3495.3,1721.5,3491.7,3477.1,3466.1,651.4,857.9,1733.0,1038.3,1021.9,891.5,0.0,-6.0,-5.0,6743.0,-7721.0,10037.0,-7913.0,8.0,1.0,0.0,6.0,-10.0,9.0,7881.0,-12219.0,-6323.0,4128.0,6.0,-5.0,20.0,1.0
2022-05-23 14:53:27.771437-07:00,1280.1,809.4,1195.6,1056.5,943.2,954.3,1627.5,1208.0,3471.0,3457.6,1157.7,878.9,1597.4,3472.2,1323.2,1247.1,3478.3,3471.0,1586.1,2122.0,2745.8,3486.8,1717.7,3494.1,3477.1,3466.1,651.4,858.7,1733.0,1038.3,1016.8,901.7,3.0,-1.0,0.0,6746.0,-7718.0,10035.0,-7916.0,26.0,0.0,10.0,6.0,-5.0,8.0,7882.0,-12221.0,-6314.0,4135.0,18.0,-8.0,26.0,1.0
2022-05-23 14:53:27.773396-07:00,1280.1,809.4,1195.6,1064.3,943.2,953.4,1622.8,1205.3,3471.0,3457.6,1157.7,874.7,1597.4,3478.3,1326.8,1241.7,3478.3,3479.5,1593.6,2122.0,2750.2,3486.8,1717.7,3494.1,3478.3,3467.4,656.2,858.7,1715.8,1038.3,1016.8,901.7,-3.0,2.0,-5.0,6750.0,-7710.0,10028.0,-7929.0,62.0,30.0,-30.0,-7.0,-2.0,11.0,7889.0,-12219.0,-6303.0,4145.0,28.0,-5.0,21.0,1.0
2022-05-23 14:53:27.774325-07:00,1282.8,818.5,1199.1,1064.3,953.4,953.4,1622.8,1205.3,3471.0,3457.6,1155.9,874.7,1600.2,3478.3,1326.8,1241.7,3478.3,3479.5,1593.6,2107.8,2750.2,3491.7,1721.5,3484.4,3478.3,3467.4,656.2,859.5,1715.8,1040.1,1013.3,908.4,-21.0,0.0,-12.0,6749.0,-7702.0,10018.0,-7951.0,22.0,8.0,-19.0,-10.0,-8.0,11.0,7894.0,-12216.0,-6295.0,4153.0,11.0,2.0,17.0,1.0
2022-05-23 14:53:27.829730-07:00,1282.8,818.5,1199.1,1060.8,951.7,958.5,1620.9,1203.5,3471.0,3457.6,1155.9,876.4,1597.4,3464.9,1333.2,1243.5,3478.3,3472.2,1586.1,2099.7,2738.1,3491.7,1721.5,3484.4,3483.2,3479.5,648.9,853.7,1721.5,1040.1,1013.3,908.4,-9.0,0.0,-5.0,6747.0,-7699.0,10018.0,-7955.0,7.0,27.0,10.0,-2.0,-3.0,11.0,7892.0,-12220.0,-6289.0,4157.0,-5.0,1.0,21.0,1.0
2022-05-23 14:53:27.830296-07:00,1282.8,818.5,1199.1,1060.8,951.7,958.5,1620.9,1203.5,3471.0,3457.6,1155.9,876.4,1597.4,3464.9,1333.2,1243.5,3478.3,3472.2,1586.1,2099.7,2738.1,3491.7,1721.5,3484.4,3483.2,3479.5,648.9,853.7,1721.5,1040.1,1013.3,908.4,-9.0,0.0,-5.0,6747.0,-7699.0,10018.0,-7955.0,7.0,27.0,10.0,-2.0,-3.0,11.0,7892.0,-12220.0,-6289.0,4157.0,-5.0,1.0,21.0,1.0
2022-05-23 14:53:27.859138-07:00,1307.0,805.2,1194.7,1062.5,946.6,959.4,1641.6,1211.5,3472.2,3475.9,1153.3,878.0,1593.6,3473.4,1325.0,1249.7,3468.6,3469.8,1577.7,2105.8,2744.7,3481.9,1717.7,3494.1,3475.9,3477.1,640.8,865.4,1730.1,1026.3,1014.2,885.6,-4.0,6.0,-14.0,6734.0,-7685.0,10021.0,-7975.0,27.0,24.0,-18.0,2.0,-2.0,13.0,7889.0,-12225.0,-6279.0,4162.0,3.0,-2.0,10.0,1.0
2022-05-23 14:53:27.918868-07:00,1294.5,813.5,1195.6,1059.1,946.6,959.4,1641.6,1211.5,3469.8,3474.6,1157.7,881.4,1593.6,3473.4,1325.0,1249.7,3468.6,3469.8,1577.7,2105.8,2744.7,3484.4,1725.3,3488.0,3475.9,3477.1,640.8,865.4,1730.1,1029.7,1015.1,899.1,-7.0,-2.0,-10.0,6731.0,-7685.0,10020.0,-7980.0,-1.0,7.0,-11.0,-3.0,-8.0,9.0,7887.0,-12226.0,-6280.0,4161.0,-10.0,-4.0,6.0,1.0
2022-05-23 14:53:27.978863-07:00,1294.5,813.5,1195.6,1059.1,941.5,956.8,1637.9,1201.8,3469.8,3474.6,1157.7,881.4,1597.4,3471.0,1317.8,1239.1,3469.8,3473.4,1573.9,2105.8,2744.7,3484.4,1725.3,3488.0,3474.6,3483.2,660.3,850.3,1730.1,1029.7,1015.1,899.1,-4.0,6.0,-5.0,6730.0,-7682.0,10011.0,-7994.0,91.0,25.0,-54.0,-1.0,-10.0,7.0,7896.0,-12220.0,-6277.0,4166.0,57.0,0.0,9.0,1.0
2022-05-23 14:53:28.009188-07:00,1284.6,808.5,1215.1,1067.7,941.5,956.8,1637.9,1208.9,3466.1,3478.3,1163.8,882.3,1597.4,3471.0,1317.8,1237.3,3472.2,3473.4,1573.9,2105.8,2745.8,3486.8,1720.5,3497.8,3480.7,3483.2,660.3,850.3,1721.5,1053.9,1016.8,899.1,-13.0,10.0,-14.0,6728.0,-7672.0,9973.0,-8053.0,149.0,56.0,-106.0,-7.0,0.0,12.0,7925.0,-12203.0,-6266.0,4180.0,68.0,12.0,-1.0,1.0
2022-05-23 14:53:28.068845-07:00,1296.3,808.5,1215.1,1067.7,939.8,956.8,1630.3,1208.9,3466.1,3478.3,1163.8,882.3,1594.6,3471.0,1308.8,1237.3,3472.2,3467.4,1579.6,2104.8,2745.8,3486.8,1720.5,3494.1,3480.7,3477.1,652.2,860.4,1721.5,1053.9,1016.8,896.6,-8.0,-11.0,-9.0,6716.0,-7673.0,9956.0,-8083.0,-7.0,8.0,-18.0,-2.0,-13.0,9.0,7926.0,-12203.0,-6265.0,4178.0,-4.0,7.0,-3.0,1.0
2022-05-23 14:53:28.098988-07:00,1296.3,802.7,1200.9,1070.3,939.8,956.8,1630.3,1205.3,3466.1,3461.3,1164.7,882.3,1594.6,3471.0,1308.8,1241.7,3478.3,3467.4,1579.6,2104.8,2749.1,3492.9,1722.4,3494.1,3480.7,3477.1,652.2,860.4,1710.0,1041.8,1011.6,896.6,-3.0,6.0,-13.0,6717.0,-7667.0,9947.0,-8099.0,71.0,28.0,-29.0,-1.0,-4.0,9.0,7939.0,-12195.0,-6260.0,4185.0,40.0,-1.0,-7.0,1.0
2022-05-23 14:53:28.189931-07:00,1290.9,802.7,1200.9,1070.3,946.6,967.1,1643.5,1205.3,3469.8,3461.3,1164.7,882.3,1603.0,3462.5,1317.8,1241.7,3478.3,3471.0,1581.4,2099.7,2749.1,3492.9,1722.4,3492.9,3480.7,3474.6,652.2,851.1,1710.0,1041.8,1011.6,894.1,-12.0,-3.0,-16.0,6715.0,-7664.0,9936.0,-8117.0,13.0,-8.0,-16.0,-6.0,-6.0,9.0,7944.0,-12191.0,-6258.0,4188.0,5.0,-8.0,-5.0,1.0
2022-05-23 14:53:28.218842-07:00,1290.9,811.9,1203.5,1069.5,946.6,967.1,1643.5,1210.6,3469.8,3468.6,1163.0,886.5,1603.0,3462.5,1317.8,1248.0,3472.2,3471.0,1581.4,2099.7,2740.3,3494.1,1716.7,3492.9,3479.5,3474.6,652.2,851.1,1711.0,1033.2,1010.8,894.1,-8.0,-3.0,-3.0,6718.0,-7667.0,9935.0,-8113.0,13.0,-6.0,14.0,-5.0,-11.0,13.0,7944.0,-12190.0,-6259.0,4190.0,12.0,-12.0,3.0,1.0
2022-05-23 14:53:28.248991-07:00,1287.3,811.9,1203.5,1069.5,933.0,950.0,1635.0,1210.6,3469.8,3468.6,1163.0,886.5,1588.0,3468.6,1318.7,1248.0,3472.2,3478.3,1583.3,2107.8,2740.3,3494.1,1716.7,3490.5,3479.5,3468.6,649.7,850.3,1711.0,1033.2,1010.8,901.7,-8.0,-14.0,-1.0,6719.0,-7660.0,9939.0,-8114.0,5.0,13.0,22.0,1.0,-14.0,16.0,7947.0,-12188.0,-6258.0,4192.0,38.0,3.0,6.0,1.0
2022-05-23 14:53:28.339205-07:00,1287.3,806.9,1202.7,1067.7,933.0,950.0,1673.8,1208.0,3469.8,3461.3,1163.0,887.3,1588.0,3468.6,1322.3,1243.5,3467.4,3468.6,1583.3,2107.8,2744.7,3501.4,1718.6,3490.5,3478.3,3479.5,649.7,850.3,1719.6,1049.6,1012.5,901.7,-15.0,-40.0,2.0,6729.0,-7637.0,9943.0,-8122.0,7.0,63.0,73.0,-5.0,-21.0,3.0,7982.0,-12164.0,-6241.0,4217.0,173.0,-25.0,32.0,1.0
2022-05-23 14:53:28.398633-07:00,1277.4,806.9,1202.7,1067.7,946.6,962.8,1673.8,1208.0,3468.6,3471.0,1163.0,887.3,1600.2,3467.4,1322.3,1243.5,3467.4,3468.6,1597.4,2112.8,2744.7,3501.4,1732.0,3492.9,3478.3,3479.5,657.0,867.9,1719.6,1049.6,1019.4,892.4,-22.0,-106.0,36.0,6730.0,-7550.0,10013.0,-8116.0,93.0,340.0,440.0,-15.0,-22.0,-5.0,8061.0,-12108.0,-6183.0,4316.0,426.0,-96.0,178.0,1.0
2022-05-23 14:53:28.401267-07:00,1277.4,806.9,1390.3,1273.0,946.6,962.8,1897.7,1224.8,3468.6,3471.0,1197.4,894.9,1600.2,3467.4,1386.6,1248.8,3468.6,3475.9,1597.4,2112.8,2744.7,3502.7,1732.0,3492.9,3474.6,3477.1,657.0,867.9,1723.4,1045.2,1019.4,892.4,-23.0,38.0,5.0,6774.0,-7252.0,10135.0,-8200.0,735.0,516.0,486.0,7.0,-35.0,52.0,8215.0,-12007.0,-6058.0,4479.0,695.0,-17.0,237.0,1.0
2022-05-23 14:53:28.519037-07:00,1270.3,811.0,1390.3,1273.0,969.6,952.6,1897.7,1224.8,3472.2,3460.1,1197.4,894.9,1590.8,3467.4,1386.6,1248.8,3468.6,3475.9,1582.4,2108.8,2744.7,3502.7,1724.4,3497.8,3474.6,3477.1,657.0,889.0,1723.4,1045.2,1047.0,895.7,83.0,107.0,-329.0,6900.0,-6942.0,10089.0,-8417.0,1183.0,-254.0,84.0,71.0,-69.0,30.0,8383.0,-11911.0,-5927.0,4600.0,458.0,18.0,120.0,1.0
2022-05-23 14:53:28.520087-07:00,1270.3,811.0,1717.7,1532.0,969.6,952.6,1876.2,1256.0,3472.2,3460.1,1262.2,910.1,1590.8,3467.4,1425.9,1278.3,3469.8,3478.3,1582.4,2108.8,2770.2,3495.3,1724.4,3497.8,3478.3,3468.6,657.0,889.0,1722.4,1087.7,1047.0,895.7,30.0,1.0,-57.0,7064.0,-6954.0,9896.0,-8500.0,5.0,-330.0,-226.0,-14.0,16.0,-43.0,8402.0,-11898.0,-5916.0,4611.0,-81.0,-55.0,-32.0,1.0
2022-05-23 14:53:28.548957-07:00,1284.6,804.4,1671.9,1532.0,1292.7,952.6,1876.2,1256.0,3469.8,3467.4,1247.1,910.1,1591.7,3477.1,1425.9,1278.3,3469.8,3478.3,1573.9,2133.1,2770.2,3494.1,1713.8,3488.0,3478.3,3468.6,668.4,873.8,1722.4,1093.8,1069.5,935.6,1.0,7.0,2.0,7112.0,-7038.0,9811.0,-8489.0,117.0,-149.0,-13.0,-17.0,0.0,0.0,8410.0,-11869.0,-5942.0,4638.0,109.0,-97.0,-38.0,1.0
2022-05-23 14:53:28.609064-07:00,1284.6,804.4,1671.9,1502.3,1292.7,948.3,1853.7,1247.1,3469.8,3467.4,1247.1,902.5,1591.7,3472.2,1415.8,1285.5,3477.1,3471.0,1590.8,2133.1,2784.6,3494.1,1713.8,3488.0,3483.2,3471.0,666.0,873.8,1730.1,1093.8,1069.5,935.6,-19.0,-6.0,10.0,7138.0,-7057.0,9774.0,-8494.0,7.0,-68.0,-74.0,0.0,-21.0,45.0,8406.0,-11855.0,-5964.0,4655.0,-19.0,-42.0,-11.0,1.0
2022-05-23 14:53:28.728847-07:00,1285.5,800.2,1673.8,1502.3,1253.3,948.3,1853.7,1247.1,3467.4,3468.6,1247.1,902.5,1597.4,3472.2,1415.8,1285.5,3477.1,3471.0,1590.8,2134.1,2784.6,3494.1,1710.0,3477.1,3483.2,3471.0,666.0,872.1,1730.1,1101.7,1064.3,919.4,8.0,0.0,22.0,7137.0,-7076.0,9756.0,-8500.0,-29.0,57.0,-27.0,11.0,-6.0,32.0,8411.0,-11851.0,-5964.0,4656.0,-27.0,19.0,5.0,1.0
2022-05-23 14:53:28.730036-07:00,1285.5,800.2,1673.8,1481.9,1253.3,933.9,1829.4,1241.7,3467.4,3468.6,1247.1,904.2,1597.4,3468.6,1407.6,1272.1,3475.9,3460.1,1574.9,2134.1,2769.0,3494.1,1710.0,3477.1,3475.9,3478.3,659.5,872.1,1712.9,1101.7,1064.3,919.4,7.0,13.0,-1.0,7102.0,-7067.0,9774.0,-8516.0,-25.0,138.0,-39.0,5.0,-3.0,15.0,8413.0,-11858.0,-5961.0,4640.0,-41.0,40.0,-1.0,1.0
2022-05-23 14:53:28.789365-07:00,1289.1,804.4,1642.6,1481.9,1220.4,933.9,1829.4,1241.7,3462.5,3471.0,1241.7,904.2,1598.3,3468.6,1407.6,1272.1,3475.9,3460.1,1574.9,2128.0,2769.0,3486.8,1709.1,3484.4,3475.9,3478.3,659.5,866.3,1712.9,1083.4,1065.1,922.8,-17.0,-14.0,-14.0,7045.0,-7054.0,9799.0,-8546.0,-15.0,144.0,-57.0,-8.0,-13.0,11.0,8409.0,-11867.0,-5957.0,4626.0,-18.0,33.0,-4.0,1.0
2022-05-23 14:53:28.848580-07:00,1289.1,804.4,1642.6,1470.9,1220.4,926.2,1849.8,1223.9,3462.5,3471.0,1241.7,891.5,1598.3,3466.1,1404.9,1273.9,3471.0,3473.4,1575.8,2128.0,2760.2,3486.8,1709.1,3484.4,3473.4,3467.4,662.7,866.3,1711.9,1083.4,1065.1,922.8,-20.0,20.0,-35.0,7001.0,-7031.0,9824.0,-8572.0,-14.0,109.0,-31.0,-13.0,3.0,13.0,8413.0,-11872.0,-5949.0,4617.0,-42.0,31.0,-3.0,1.0
2022-05-23 14:53:28.878447-07:00,1284.6,805.2,1634.1,1464.4,1224.8,926.2,1849.8,1223.9,3469.8,3466.1,1239.1,909.3,1581.4,3466.1,1404.9,1273.9,3471.0,3473.4,1575.8,2129.0,2766.8,3485.6,1703.3,3486.8,3473.4,3467.4,662.7,862.9,1719.6,1081.6,1064.3,922.0,0.0,-19.0,-27.0,6967.0,-7045.0,9850.0,-8557.0,-65.0,-7.0,-35.0,-9.0,-2.0,-6.0,8395.0,-11891.0,-5951.0,4598.0,-76.0,10.0,-3.0,1.0
2022-05-23 14:53:28.908977-07:00,1284.6,805.2,1634.1,1464.4,1191.2,937.3,1835.2,1240.8,3469.8,3466.1,1239.1,909.3,1598.3,3469.8,1409.4,1281.0,3484.4,3478.3,1573.0,2134.1,2766.8,3485.6,1703.3,3486.8,3483.2,3472.2,667.6,876.4,1719.6,1081.6,1064.3,922.0,5.0,-4.0,-14.0,6967.0,-7048.0,9849.0,-8557.0,68.0,-12.0,29.0,-1.0,-2.0,6.0,8396.0,-11890.0,-5951.0,4601.0,70.0,-20.0,-3.0,1.0
2022-05-23 14:53:29.028851-07:00,1280.1,806.9,1630.3,1461.7,1191.2,937.3,1835.2,1240.8,3471.0,3467.4,1232.8,901.7,1598.3,3469.8,1409.4,1281.0,3484.4,3478.3,1573.0,2134.1,2767.9,3486.8,1699.5,3488.0,3483.2,3472.2,667.6,876.4,1721.5,1082.5,1048.7,915.2,0.0,5.0,-4.0,6983.0,-7036.0,9843.0,-8561.0,21.0,-11.0,24.0,1.0,0.0,12.0,8410.0,-11875.0,-5949.0,4616.0,29.0,-23.0,-1.0,1.0
2022-05-23 14:53:29.030020-07:00,1280.1,806.9,1630.3,1461.7,1178.8,925.4,1833.3,1236.4,3471.0,3467.4,1232.8,901.7,1592.7,3468.6,1406.7,1275.6,3479.5,3477.1,1573.9,2123.0,2767.9,3486.8,1699.5,3488.0,3483.2,3471.0,675.8,874.7,1721.5,1082.5,1048.7,915.2,-4.0,9.0,-3.0,6988.0,-7033.0,9843.0,-8559.0,7.0,1.0,-3.0,-3.0,-6.0,19.0,8414.0,-11867.0,-5951.0,4627.0,10.0,-14.0,-3.0,1.0
2022-05-23 14:53:29.089071-07:00,1282.8,806.9,1614.3,1463.5,1178.8,925.4,1833.3,1236.4,3483.2,3464.9,1235.5,900.8,1592.7,3468.6,1406.7,1275.6,3479.5,3477.1,1573.9,2123.0,2748.0,3486.8,1698.6,3497.8,3483.2,3471.0,675.8,874.7,1711.0,1090.3,1054.8,912.7,-12.0,0.0,-3.0,6981.0,-7030.0,9845.0,-8565.0,5.0,40.0,-17.0,-3.0,-8.0,20.0,8418.0,-11863.0,-5949.0,4632.0,-2.0,8.0,1.0,1.0
2022-05-23 14:53:29.148653-07:00,1289.1,806.9,1614.3,1463.5,1171.8,930.5,1820.7,1231.9,3478.3,3464.9,1235.5,900.8,1596.4,3467.4,1406.7,1273.9,3474.6,3473.4,1571.1,2130.1,2748.0,3486.8,1698.6,3497.8,3474.6,3472.2,672.5,869.6,1711.0,1090.3,1054.8,913.5,-4.0,8.0,-17.0,6975.0,-7021.0,9847.0,-8575.0,8.0,11.0,3.0,0.0,1.0,8.0,8423.0,-11862.0,-5945.0,4631.0,-3.0,15.0,0.0,1.0
2022-05-23 14:53:29.150277-07:00,1289.1,806.9,1611.5,1432.3,1171.8,930.5,1820.7,1239.1,3478.3,3467.4,1240.8,900.8,1596.4,3467.4,1406.7,1266.7,3469.8,3473.4,1571.1,2130.1,2765.7,3496.6,1693.8,3497.8,3480.7,3472.2,672.5,869.6,1711.0,1080.8,1053.0,913.5,3.0,2.0,-14.0,6962.0,-7021.0,9859.0,-8571.0,-78.0,45.0,-3.0,-3.0,-4.0,3.0,8417.0,-11866.0,-5947.0,4627.0,-36.0,-2.0,-8.0,1.0
2022-05-23 14:53:29.239321-07:00,1287.3,806.9,1611.5,1432.3,1178.8,916.0,1827.5,1239.1,3473.4,3467.4,1240.8,900.8,1598.3,3473.4,1408.5,1266.7,3469.8,3479.5,1573.0,2117.9,2765.7,3496.6,1693.8,3492.9,3480.7,3488.0,664.4,862.9,1711.0,1080.8,1053.0,908.4,-6.0,0.0,-10.0,6943.0,-7023.0,9880.0,-8561.0,28.0,20.0,11.0,-1.0,-3.0,11.0,8414.0,-11869.0,-5949.0,4625.0,37.0,2.0,0.0,1.0
2022-05-23 14:53:29.298870-07:00,1287.3,794.4,1619.9,1430.5,1178.8,916.0,1827.5,1218.6,3473.4,3467.4,1236.4,912.7,1598.3,3473.4,1408.5,1266.7,3473.4,3479.5,1573.0,2117.9,2764.6,3497.8,1697.6,3492.9,3473.4,3488.0,664.4,862.9,1728.2,1077.3,1060.8,908.4,-5.0,11.0,-11.0,6938.0,-7017.0,9881.0,-8569.0,-21.0,27.0,-32.0,0.0,-2.0,12.0,8417.0,-11867.0,-5948.0,4627.0,-33.0,-1.0,-8.0,1.0
2022-05-23 14:53:29.301224-07:00,1277.4,794.4,1619.9,1430.5,1164.7,925.4,1813.9,1218.6,3474.6,3467.4,1236.4,912.7,1591.7,3471.0,1404.9,1266.7,3473.4,3469.8,1574.9,2124.0,2764.6,3497.8,1697.6,3497.8,3473.4,3478.3,661.1,872.1,1728.2,1077.3,1060.8,909.3,-6.0,-16.0,-8.0,6919.0,-7026.0,9887.0,-8569.0,-10.0,16.0,-6.0,-2.0,-13.0,13.0,8406.0,-11874.0,-5954.0,4620.0,-46.0,-4.0,-3.0,1.0
2022-05-23 14:53:29.359145-07:00,1277.4,796.0,1602.1,1426.8,1164.7,925.4,1813.9,1223.0,3474.6,3473.4,1233.7,909.3,1591.7,3471.0,1404.9,1268.5,3467.4,3469.8,1574.9,2124.0,2743.6,3495.3,1696.7,3497.8,3480.7,3478.3,661.1,872.1,1711.0,1075.6,1047.8,909.3,3.0,19.0,-13.0,6915.0,-7022.0,9892.0,-8571.0,-34.0,23.0,-16.0,3.0,6.0,6.0,8407.0,-11872.0,-5955.0,4622.0,6.0,-5.0,-9.0,1.0
2022-05-23 14:53:29.418929-07:00,1279.2,796.9,1602.1,1426.8,1160.3,922.8,1817.8,1223.0,3468.6,3463.7,1233.7,909.3,1580.5,3463.7,1401.2,1268.5,3467.4,3477.1,1573.0,2111.8,2743.6,3495.3,1688.1,3496.6,3480.7,3478.3,662.7,865.4,1711.0,1075.6,1051.3,906.7,5.0,-5.0,-15.0,6916.0,-7037.0,9886.0,-8565.0,66.0,-68.0,-18.0,-4.0,2.0,-9.0,8408.0,-11870.0,-5960.0,4618.0,7.0,-7.0,-12.0,1.0
2022-05-23 14:53:29.449278-07:00,1279.2,796.9,1596.4,1414.0,1160.3,922.8,1786.8,1221.3,3468.6,3463.7,1229.3,898.3,1580.5,3463.7,1400.3,1269.4,3467.4,3478.3,1573.0,2111.8,2748.0,3494.1,1688.1,3496.6,3466.1,3483.2,662.7,865.4,1717.7,1082.5,1051.3,906.7,-10.0,0.0,-15.0,6929.0,-7037.0,9862.0,-8582.0,65.0,0.0,-24.0,-11.0,-2.0,10.0,8422.0,-11857.0,-5962.0,4623.0,45.0,-14.0,-20.0,1.0
2022-05-23 14:53:29.508990-07:00,1284.6,805.2,1596.4,1414.0,1129.6,931.3,1786.8,1221.3,3475.9,3468.6,1229.3,898.3,1589.9,3469.8,1400.3,1269.4,3467.4,3478.3,1570.2,2128.0,2748.0,3494.1,1691.9,3490.5,3466.1,3483.2,659.5,864.6,1717.7,1082.5,1056.5,889.0,-6.0,-2.0,-4.0,6929.0,-7036.0,9859.0,-8585.0,-18.0,1.0,1.0,0.0,-3.0,12.0,8422.0,-11853.0,-5966.0,4626.0,-28.0,-3.0,-9.0,1.0
2022-05-23 14:53:29.598959-07:00,1284.6,805.2,1594.6,1419.5,1129.6,931.3,1806.1,1231.0,3475.9,3468.6,1231.0,907.6,1589.9,3469.8,1393.0,1268.5,3477.1,3479.5,1570.2,2128.0,2764.6,3492.9,1691.9,3490.5,3471.0,3478.3,659.5,864.6,1725.3,1080.8,1056.5,889.0,12.0,9.0,-2.0,6924.0,-7036.0,9863.0,-8586.0,-20.0,42.0,-18.0,8.0,-1.0,6.0,8417.0,-11857.0,-5970.0,4622.0,-25.0,1.0,-10.0,1.0
2022-05-23 14:53:29.600747-07:00,1268.5,798.5,1594.6,1419.5,1130.5,911.8,1806.1,1231.0,3473.4,3460.1,1231.0,907.6,1586.1,3472.2,1393.0,1268.5,3477.1,3479.5,1573.9,2118.9,2764.6,3492.9,1683.3,3481.9,3471.0,3478.3,668.4,863.7,1725.3,1080.8,1056.5,903.4,-2.0,1.0,-6.0,6901.0,-7035.0,9872.0,-8594.0,-13.0,55.0,-32.0,1.0,-9.0,15.0,8411.0,-11860.0,-5979.0,4613.0,-27.0,7.0,-15.0,1.0
2022-05-23 14:53:29.658921-07:00,1268.5,798.5,1594.6,1425.9,1130.5,922.0,1801.3,1219.5,3473.4,3460.1,1223.9,909.3,1586.1,3462.5,1400.3,1271.2,3473.4,3467.4,1574.9,2118.9,2756.9,3486.8,1683.3,3481.9,3478.3,3485.6,656.2,863.7,1725.3,1083.4,1056.5,903.4,-5.0,0.0,-12.0,6888.0,-7033.0,9872.0,-8607.0,19.0,19.0,-17.0,-6.0,-1.0,8.0,8412.0,-11859.0,-5982.0,4611.0,1.0,1.0,-10.0,1.0
2022-05-23 14:53:29.748846-07:00,1281.9,789.4,1589.9,1425.9,1116.5,922.0,1801.3,1219.5,3457.6,3467.4,1226.6,909.3,1587.1,3462.5,1400.3,1271.2,3473.4,3467.4,1574.9,2125.0,2756.9,3486.8,1684.3,3491.7,3478.3,3485.6,656.2,859.5,1725.3,1085.1,1055.6,897.4,-9.0,0.0,-15.0,6882.0,-7029.0,9875.0,-8612.0,25.0,7.0,-7.0,-4.0,-6.0,8.0,8412.0,-11858.0,-5982.0,4612.0,9.0,-4.0,-6.0,1.0
2022-05-23 14:53:29.750452-07:00,1281.9,789.4,1589.9,1404.9,1116.5,914.4,1790.7,1214.2,3457.6,3467.4,1226.6,900.8,1587.1,3475.9,1402.1,1278.3,3479.5,3457.6,1570.2,2125.0,2763.5,3486.8,1684.3,3491.7,3467.4,3469.8,666.8,859.5,1714.8,1085.1,1055.6,897.4,-1.0,4.0,-7.0,6886.0,-7025.0,9870.0,-8618.0,12.0,9.0,-13.0,-3.0,-1.0,6.0,8417.0,-11855.0,-5980.0,4615.0,1.0,-5.0,-6.0,1.0
2022-05-23 14:53:29.809836-07:00,1269.4,787.7,1597.4,1404.9,1118.2,914.4,1790.7,1214.2,3461.3,3461.3,1228.4,900.8,1588.9,3475.9,1402.1,1278.3,3479.5,3457.6,1570.2,2122.0,2763.5,3488.0,1687.2,3489.2,3467.4,3469.8,666.8,865.4,1714.8,1086.0,1059.1,903.4,-2.0,-6.0,-5.0,6879.0,-7023.0,9874.0,-8620.0,13.0,25.0,-3.0,2.0,-8.0,14.0,8415.0,-11856.0,-5980.0,4614.0,-1.0,-1.0,-5.0,1.0
2022-05-23 14:53:29.959172-07:00,1269.4,787.7,1597.4,1404.0,1118.2,922.0,1811.0,1220.4,3461.3,3461.3,1228.4,905.9,1588.9,3468.6,1400.3,1280.1,3480.7,3473.4,1572.1,2122.0,2754.7,3488.0,1687.2,3489.2,3469.8,3475.9,659.5,865.4,1723.4,1086.0,1059.1,903.4,0.0,4.0,-8.0,6877.0,-7014.0,9871.0,-8632.0,26.0,15.0,-24.0,1.0,-3.0,10.0,8421.0,-11852.0,-5978.0,4616.0,8.0,3.0,-8.0,1.0
2022-05-23 14:53:29.960448-07:00,1285.5,792.7,1589.9,1404.0,1116.5,922.0,1811.0,1220.4,3473.4,3462.5,1230.2,905.9,1597.4,3468.6,1400.3,1280.1,3480.7,3473.4,1572.1,2117.9,2754.7,3486.8,1679.5,3497.8,3469.8,3475.9,659.5,862.1,1723.4,1077.3,1058.2,901.7,-10.0,-4.0,-11.0,6869.0,-7011.0,9865.0,-8648.0,23.0,32.0,-22.0,0.0,-7.0,12.0,8425.0,-11849.0,-5978.0,4617.0,8.0,-4.0,-8.0,1.0
2022-05-23 14:53:29.961233-07:00,1285.5,792.7,1589.9,1413.1,1106.0,915.2,1795.5,1219.5,3473.4,3462.5,1230.2,903.4,1592.7,3471.0,1389.4,1273.0,3478.3,3474.6,1570.2,2104.8,2764.6,3486.8,1679.5,3497.8,3469.8,3471.0,660.3,865.4,1713.8,1077.3,1058.2,901.7,1.0,1.0,-10.0,6867.0,-7005.0,9862.0,-8657.0,18.0,16.0,-3.0,0.0,0.0,3.0,8428.0,-11847.0,-5977.0,4619.0,6.0,0.0,-3.0,1.0
2022-05-23 14:53:30.048897-07:00,1281.9,790.2,1585.2,1393.9,1106.0,915.2,1795.5,1219.5,3467.4,3473.4,1231.0,906.7,1592.7,3471.0,1389.4,1273.0,3478.3,3474.6,1570.2,2104.8,2759.1,3484.4,1684.3,3485.6,3469.8,3471.0,660.3,865.4,1715.8,1086.0,1050.4,900.8,-9.0,-6.0,-10.0,6864.0,-6996.0,9863.0,-8667.0,32.0,19.0,2.0,-1.0,-7.0,11.0,8430.0,-11845.0,-5976.0,4620.0,18.0,-8.0,3.0,1.0
2022-05-23 14:53:30.050546-07:00,1281.9,790.2,1585.2,1393.9,1105.1,919.4,1789.7,1202.7,3467.4,3473.4,1231.0,906.7,1591.7,3466.1,1407.6,1266.7,3471.0,3474.6,1574.9,2124.0,2759.1,3484.4,1684.3,3485.6,3474.6,3479.5,679.9,862.9,1715.8,1086.0,1050.4,900.8,2.0,-2.0,-9.0,6868.0,-6988.0,9857.0,-8676.0,23.0,12.0,2.0,0.0,-1.0,5.0,8437.0,-11840.0,-5973.0,4624.0,11.0,-9.0,4.0,1.0
2022-05-23 14:53:30.109551-07:00,1278.3,798.5,1579.6,1383.9,1105.1,919.4,1789.7,1202.7,3472.2,3462.5,1231.9,904.2,1591.7,3466.1,1407.6,1266.7,3471.0,3474.6,1574.9,2124.0,2704.0,3488.0,1679.5,3489.2,3474.6,3479.5,679.9,862.9,1706.2,1084.2,1058.2,905.9,-2.0,3.0,-12.0,6870.0,-6975.0,9854.0,-8687.0,43.0,9.0,11.0,0.0,-7.0,12.0,8447.0,-11833.0,-5970.0,4629.0,37.0,1.0,5.0,1.0
2022-05-23 14:53:30.198997-07:00,1278.3,798.5,1579.6,1383.9,1110.4,916.9,1789.7,1213.3,3472.2,3462.5,1231.9,904.2,1590.8,3463.7,1412.2,1277.4,3472.2,3479.5,1571.1,2114.9,2704.0,3488.0,1679.5,3489.2,3474.6,3477.1,666.8,857.9,1706.2,1084.2,1058.2,905.9,-6.0,0.0,-15.0,6877.0,-6967.0,9847.0,-8697.0,0.0,14.0,5.0,0.0,-5.0,10.0,8454.0,-11828.0,-5967.0,4632.0,1.0,0.0,6.0,1.0
2022-05-23 14:53:30.200170-07:00,1278.3,791.0,1567.4,1403.0,1110.4,916.9,1789.7,1226.6,3467.4,3479.5,1239.1,910.1,1590.8,3463.7,1412.2,1263.1,3473.4,3479.5,1571.1,2114.9,2752.5,3488.0,1687.2,3481.9,3477.1,3477.1,666.8,857.9,1717.7,1080.8,1053.9,905.9,-1.0,-6.0,-11.0,6873.0,-6966.0,9853.0,-8695.0,0.0,18.0,14.0,-1.0,-9.0,7.0,8448.0,-11833.0,-5966.0,4632.0,-7.0,0.0,15.0,1.0
2022-05-23 14:53:30.258996-07:00,1270.3,791.0,1567.4,1403.0,1103.4,916.9,1782.0,1226.6,3472.2,3479.5,1239.1,910.1,1590.8,3473.4,1404.0,1263.1,3473.4,3474.6,1578.6,2127.0,2752.5,3488.0,1687.2,3485.6,3477.1,3475.9,663.6,861.2,1717.7,1080.8,1053.9,905.9,3.0,15.0,-13.0,6873.0,-6956.0,9859.0,-8696.0,4.0,17.0,4.0,2.0,3.0,12.0,8446.0,-11835.0,-5961.0,4635.0,-5.0,4.0,10.0,1.0
2022-05-23 14:53:30.289870-07:00,1270.3,795.2,1581.4,1411.3,1103.4,916.9,1782.0,1213.3,3472.2,3480.7,1227.5,905.9,1590.8,3473.4,1404.0,1273.0,3477.1,3474.6,1578.6,2127.0,2750.2,3495.3,1679.5,3485.6,3477.1,3475.9,663.6,861.2,1714.8,1084.2,1051.3,905.9,-10.0,-2.0,-13.0,6865.0,-6957.0,9858.0,-8702.0,1.0,15.0,-24.0,-6.0,-5.0,9.0,8442.0,-11839.0,-5963.0,4633.0,-20.0,6.0,-6.0,1.0
2022-05-23 14:53:30.349001-07:00,1272.1,795.2,1581.4,1411.3,1094.7,911.0,1793.6,1213.3,3473.4,3480.7,1227.5,905.9,1580.5,3467.4,1396.7,1273.0,3477.1,3466.1,1559.9,2117.9,2750.2,3495.3,1679.5,3481.9,3477.1,3479.5,666.8,856.2,1714.8,1084.2,1051.3,898.3,-10.0,-2.0,-15.0,6860.0,-6957.0,9858.0,-8706.0,15.0,-3.0,7.0,-7.0,-6.0,9.0,8442.0,-11839.0,-5963.0,4633.0,10.0,-1.0,4.0,1.0
2022-05-23 14:53:30.409567-07:00,1272.1,798.5,1576.8,1402.1,1094.7,911.0,1793.6,1226.6,3473.4,3478.3,1233.7,907.6,1580.5,3467.4,1396.7,1271.2,3479.5,3466.1,1559.9,2117.9,2750.2,3500.2,1671.9,3481.9,3473.4,3479.5,666.8,856.2,1722.4,1076.4,1050.4,898.3,0.0,1.0,-14.0,6860.0,-6958.0,9858.0,-8705.0,-33.0,16.0,3.0,6.0,-3.0,4.0,8437.0,-11842.0,-5964.0,4631.0,-33.0,-2.0,8.0,1.0
2022-05-23 14:53:30.499526-07:00,1275.6,798.5,1576.8,1402.1,1106.0,907.6,1793.6,1226.6,3469.8,3478.3,1233.7,907.6,1586.1,3478.3,1405.8,1271.2,3479.5,3473.4,1568.3,2108.8,2750.2,3500.2,1671.9,3492.9,3473.4,3468.6,661.9,864.6,1722.4,1076.4,1050.4,899.1,-1.0,2.0,-11.0,6854.0,-6960.0,9864.0,-8701.0,-1.0,-5.0,6.0,2.0,-5.0,11.0,8431.0,-11847.0,-5963.0,4631.0,-4.0,0.0,11.0,1.0
2022-05-23 14:53:30.500951-07:00,1275.6,790.2,1584.2,1385.7,1106.0,907.6,1782.9,1231.9,3469.8,3473.4,1227.5,907.6,1586.1,3478.3,1400.3,1272.1,3473.4,3466.1,1568.3,2108.8,2745.8,3494.1,1674.8,3492.9,3471.0,3472.2,661.9,864.6,1711.0,1079.0,1052.2,899.1,-6.0,6.0,-14.0,6854.0,-6960.0,9864.0,-8702.0,2.0,-6.0,-16.0,-1.0,-1.0,7.0,8431.0,-11847.0,-5963.0,4631.0,-7.0,-2.0,-1.0,1.0
2022-05-23 14:53:30.558949-07:00,1273.9,789.4,1584.2,1385.7,1098.2,905.9,1782.9,1231.9,3472.2,3468.6,1227.5,907.6,1588.9,3467.4,1400.3,1272.1,3473.4,3466.1,1572.1,2116.9,2745.8,3494.1,1676.7,3500.2,3471.0,3472.2,660.3,862.1,1711.0,1079.0,1053.0,907.6,-11.0,-3.0,-13.0,6854.0,-6967.0,9858.0,-8703.0,15.0,-15.0,-7.0,-6.0,-6.0,7.0,8431.0,-11847.0,-5963.0,4631.0,4.0,-11.0,0.0,1.0
2022-05-23 14:53:30.589294-07:00,1273.9,789.4,1573.9,1397.6,1098.2,905.9,1775.2,1200.9,3472.2,3468.6,1231.0,905.9,1588.9,3467.4,1403.0,1266.7,3473.4,3478.3,1572.1,2116.9,2759.1,3497.8,1676.7,3500.2,3464.9,3474.6,660.3,862.1,1713.8,1073.8,1053.0,907.6,-8.0,-4.0,-13.0,6856.0,-6968.0,9856.0,-8703.0,4.0,12.0,4.0,-7.0,-4.0,8.0,8430.0,-11846.0,-5964.0,4632.0,-2.0,-4.0,6.0,1.0
2022-05-23 14:53:30.648993-07:00,1277.4,788.6,1573.9,1397.6,1093.8,900.0,1775.2,1200.9,3472.2,3468.6,1231.0,905.9,1587.1,3466.1,1403.0,1266.7,3473.4,3478.3,1568.3,2128.0,2759.1,3497.8,1680.5,3488.0,3464.9,3474.6,654.6,855.3,1713.8,1073.8,1051.3,900.0,-4.0,2.0,-13.0,6855.0,-6966.0,9856.0,-8705.0,5.0,0.0,6.0,-1.0,-3.0,7.0,8430.0,-11847.0,-5963.0,4633.0,0.0,-4.0,9.0,1.0
2022-05-23 14:53:30.709679-07:00,1277.4,788.6,1566.5,1388.5,1093.8,900.0,1773.3,1204.4,3472.2,3468.6,1231.9,907.6,1587.1,3466.1,1398.5,1271.2,3467.4,3472.2,1568.3,2128.0,2746.9,3486.8,1680.5,3488.0,3483.2,3481.9,654.6,855.3,1723.4,1075.6,1051.3,900.0,-4.0,5.0,-13.0,6858.0,-6964.0,9853.0,-8708.0,16.0,4.0,4.0,0.0,2.0,7.0,8431.0,-11846.0,-5962.0,4634.0,1.0,-2.0,-1.0,1.0
2022-05-23 14:53:30.768847-07:00,1261.3,790.2,1572.1,1388.5,1088.6,906.7,1773.3,1204.4,3464.9,3467.4,1226.6,907.6,1588.0,3477.1,1398.5,1271.2,3467.4,3472.2,1558.1,2118.9,2746.9,3492.9,1682.4,3483.2,3483.2,3481.9,660.3,863.7,1723.4,1069.5,1052.2,898.3,-6.0,0.0,-12.0,6857.0,-6965.0,9854.0,-8707.0,-17.0,-2.0,1.0,-2.0,-8.0,6.0,8428.0,-11848.0,-5963.0,4632.0,-17.0,-2.0,3.0,1.0
2022-05-23 14:53:30.799011-07:00,1261.3,790.2,1572.1,1382.1,1088.6,912.7,1791.6,1208.0,3464.9,3467.4,1226.6,907.6,1588.0,3467.4,1404.9,1271.2,3473.4,3478.3,1573.0,2118.9,2750.2,3492.9,1682.4,3483.2,3478.3,3469.8,660.3,863.7,1717.7,1069.5,1052.2,898.3,-6.0,0.0,-16.0,6856.0,-6963.0,9854.0,-8708.0,26.0,8.0,-4.0,-3.0,-3.0,9.0,8429.0,-11848.0,-5963.0,4633.0,9.0,2.0,3.0,1.0
2022-05-23 14:53:30.859014-07:00,1264.9,796.0,1574.9,1382.1,1086.0,912.7,1791.6,1208.0,3466.1,3474.6,1235.5,907.6,1585.2,3467.4,1404.9,1271.2,3473.4,3478.3,1573.0,2115.9,2750.2,3490.5,1664.4,3486.8,3478.3,3469.8,660.3,857.9,1717.7,1072.9,1053.0,894.9,-5.0,-1.0,-13.0,6857.0,-6962.0,9855.0,-8708.0,-17.0,1.0,17.0,-2.0,-5.0,8.0,8425.0,-11850.0,-5964.0,4631.0,-10.0,-2.0,9.0,1.0
2022-05-23 14:53:30.918918-07:00,1264.9,796.0,1574.9,1384.8,1086.0,910.1,1768.5,1216.8,3466.1,3474.6,1235.5,905.0,1585.2,3469.8,1391.2,1262.2,3483.2,3464.9,1571.1,2115.9,2750.2,3490.5,1664.4,3486.8,3472.2,3473.4,655.4,857.9,1718.6,1072.9,1053.0,894.9,-10.0,5.0,-16.0,6859.0,-6957.0,9856.0,-8709.0,8.0,8.0,-7.0,-2.0,-2.0,13.0,8425.0,-11851.0,-5965.0,4631.0,0.0,5.0,3.0,1.0
2022-05-23 14:53:31.009016-07:00,1273.9,797.7,1568.3,1384.8,1083.4,910.1,1768.5,1216.8,3475.9,3464.9,1223.9,905.0,1589.9,3469.8,1391.2,1262.2,3483.2,3464.9,1571.1,2116.9,2750.2,3485.6,1676.7,3497.8,3472.2,3473.4,655.4,855.3,1718.6,1075.6,1054.8,904.2,-6.0,-4.0,-11.0,6859.0,-6956.0,9856.0,-8710.0,26.0,11.0,6.0,-4.0,-4.0,11.0,8425.0,-11851.0,-5965.0,4631.0,9.0,2.0,-1.0,1.0
2022-05-23 14:53:31.039137-07:00,1273.9,797.7,1568.3,1385.7,1083.4,905.0,1758.9,1217.7,3475.9,3464.9,1223.9,905.9,1589.9,3468.6,1393.9,1272.1,3480.7,3478.3,1571.1,2116.9,2753.6,3485.6,1676.7,3497.8,3488.0,3472.2,661.1,855.3,1716.7,1075.6,1054.8,904.2,-3.0,3.0,-15.0,6863.0,-6951.0,9850.0,-8718.0,6.0,5.0,1.0,-1.0,-3.0,10.0,8429.0,-11847.0,-5963.0,4633.0,2.0,3.0,-1.0,1.0
2022-05-23 14:53:31.040765-07:00,1274.7,790.2,1567.4,1385.7,1093.8,905.0,1758.9,1217.7,3475.9,3463.7,1228.4,906.7,1585.2,3468.6,1393.9,1272.1,3480.7,3478.3,1571.1,2112.8,2750.2,3500.2,1662.5,3495.3,3488.0,3472.2,661.1,861.2,1710.0,1081.6,1077.3,900.8,-11.0,-2.0,-16.0,6863.0,-6951.0,9850.0,-8718.0,-1.0,-5.0,8.0,-3.0,-2.0,12.0,8428.0,-11849.0,-5963.0,4632.0,-5.0,8.0,7.0,1.0
2022-05-23 14:53:31.098917-07:00,1274.7,790.2,1567.4,1385.7,1086.8,905.9,1776.2,1211.5,3475.9,3463.7,1228.4,906.7,1589.9,3466.1,1394.8,1273.0,3472.2,3478.3,1569.3,2116.9,2750.2,3500.2,1662.5,3495.3,3473.4,3477.1,661.1,860.4,1710.0,1081.6,1077.3,900.8,-4.0,-3.0,-14.0,6867.0,-6946.0,9853.0,-8714.0,14.0,-4.0,24.0,-7.0,-3.0,9.0,8426.0,-11850.0,-5964.0,4632.0,2.0,3.0,9.0,1.0
2022-05-23 14:53:31.159083-07:00,1269.4,819.4,1573.9,1385.7,1086.8,905.9,1776.2,1211.5,3473.4,3464.9,1227.5,905.9,1589.9,3466.1,1394.8,1273.0,3472.2,3478.3,1569.3,2116.9,2752.5,3486.8,1666.3,3492.9,3473.4,3477.1,661.1,860.4,1715.8,1059.9,1045.2,893.2,-10.0,0.0,-21.0,6875.0,-6938.0,9855.0,-8713.0,-2.0,-7.0,28.0,0.0,-3.0,11.0,8424.0,-11851.0,-5963.0,4632.0,-13.0,-6.0,5.0,1.0
2022-05-23 14:53:31.218948-07:00,1269.4,819.4,1573.9,1385.7,1089.5,915.2,1787.8,1223.0,3473.4,3464.9,1227.5,905.9,1584.2,3467.4,1392.1,1269.4,3474.6,3474.6,1573.0,2113.9,2752.5,3486.8,1666.3,3492.9,3475.9,3479.5,660.3,859.5,1715.8,1059.9,1045.2,893.2,-1.0,5.0,-14.0,6884.0,-6934.0,9853.0,-8712.0,17.0,-5.0,-8.0,-5.0,1.0,4.0,8425.0,-11851.0,-5963.0,4632.0,0.0,-9.0,-5.0,1.0
2022-05-23 14:53:31.309012-07:00,1270.3,799.4,1564.6,1378.5,1089.5,915.2,1787.8,1223.0,3466.1,3478.3,1220.4,906.7,1584.2,3467.4,1392.1,1269.4,3474.6,3474.6,1573.0,2113.9,2740.3,3492.9,1676.7,3490.5,3475.9,3479.5,660.3,859.5,1715.8,1077.3,1045.2,901.7,-16.0,-1.0,-15.0,6882.0,-6933.0,9852.0,-8716.0,8.0,5.0,-7.0,-7.0,-4.0,15.0,8425.0,-11851.0,-5963.0,4632.0,0.0,9.0,-1.0,1.0
2022-05-23 14:53:31.310199-07:00,1270.3,799.4,1564.6,1378.5,1088.6,907.6,1762.7,1209.7,3466.1,3478.3,1220.4,906.7,1592.7,3467.4,1397.6,1266.7,3469.8,3471.0,1562.7,2116.9,2740.3,3492.9,1676.7,3490.5,3480.7,3479.5,657.9,857.9,1715.8,1077.3,1045.2,901.7,-6.0,-1.0,-15.0,6879.0,-6932.0,9854.0,-8715.0,-10.0,24.0,2.0,-4.0,-7.0,9.0,8420.0,-11855.0,-5965.0,4629.0,-24.0,6.0,7.0,1.0
2022-05-23 14:53:31.339079-07:00,1274.7,793.5,1572.1,1379.4,1088.6,907.6,1762.7,1212.4,3471.0,3474.6,1223.9,908.4,1592.7,3467.4,1397.6,1260.4,3475.9,3471.0,1562.7,2116.9,2758.0,3501.4,1671.0,3489.2,3474.6,3479.5,657.9,857.9,1713.8,1080.8,1051.3,896.6,0.0,3.0,-18.0,6873.0,-6927.0,9858.0,-8719.0,13.0,11.0,-11.0,0.0,-1.0,10.0,8417.0,-11857.0,-5966.0,4627.0,4.0,3.0,4.0,1.0
2022-05-23 14:53:31.399039-07:00,1266.7,793.5,1572.1,1379.4,1090.3,905.9,1772.3,1212.4,3473.4,3474.6,1223.9,908.4,1584.2,3468.6,1389.4,1260.4,3475.9,3472.2,1574.9,2106.8,2758.0,3501.4,1671.0,3500.2,3474.6,3467.4,652.2,857.9,1713.8,1080.8,1051.3,894.9,-4.0,-2.0,-19.0,6873.0,-6926.0,9855.0,-8725.0,19.0,4.0,4.0,-3.0,-3.0,13.0,8417.0,-11857.0,-5966.0,4627.0,9.0,-6.0,0.0,1.0
2022-05-23 14:53:31.518838-07:00,1266.7,787.7,1566.5,1370.3,1090.3,905.9,1772.3,1213.3,3473.4,3478.3,1216.0,899.1,1584.2,3468.6,1389.4,1267.6,3477.1,3472.2,1574.9,2106.8,2750.2,3495.3,1668.2,3500.2,3479.5,3467.4,652.2,857.9,1739.7,1072.9,1045.2,894.9,-6.0,8.0,-21.0,6878.0,-6923.0,9849.0,-8729.0,11.0,-9.0,-9.0,-9.0,-1.0,11.0,8419.0,-11856.0,-5965.0,4628.0,-2.0,-5.0,-8.0,1.0
2022-05-23 14:53:31.549336-07:00,1277.4,787.7,1566.5,1370.3,1079.9,909.3,1783.9,1213.3,3467.4,3478.3,1216.0,899.1,1581.4,3474.6,1388.5,1267.6,3477.1,3475.9,1569.3,2110.8,2750.2,3495.3,1668.2,3488.0,3479.5,3472.2,653.0,850.3,1739.7,1072.9,1045.2,898.3,44.0,-12.0,-3.0,6855.0,-6899.0,9877.0,-8735.0,-118.0,396.0,188.0,-6.0,8.0,-10.0,8435.0,-11837.0,-5970.0,4641.0,95.0,-62.0,-17.0,1.0
2022-05-23 14:53:31.550259-07:00,1277.4,791.0,1627.5,1423.1,1079.9,909.3,1783.9,1231.0,3467.4,3462.5,1228.4,907.6,1581.4,3474.6,1388.5,1266.7,3480.7,3475.9,1569.3,2110.8,2745.8,3497.8,1670.1,3488.0,3473.4,3472.2,653.0,850.3,1718.6,1058.2,1047.0,898.3,-75.0,15.0,0.0,6802.0,-6784.0,10028.0,-8694.0,-112.0,-35.0,217.0,-6.0,-10.0,38.0,8439.0,-11832.0,-5967.0,4648.0,-68.0,38.0,33.0,1.0
2022-05-23 14:53:31.609297-07:00,1272.1,783.6,1627.5,1423.1,1115.6,963.7,1779.1,1231.0,3478.3,3467.4,1228.4,907.6,1587.1,3475.9,1389.4,1266.7,3480.7,3471.0,1557.1,2115.9,2745.8,3497.8,1680.5,3491.7,3473.4,3474.6,655.4,862.9,1718.6,1058.2,1017.6,905.9,-16.0,100.0,-68.0,6813.0,-6795.0,10084.0,-8611.0,-548.0,81.0,142.0,-16.0,43.0,7.0,8384.0,-11874.0,-5994.0,4608.0,-419.0,12.0,-72.0,1.0
2022-05-23 14:53:31.639039-07:00,1272.1,783.6,1597.4,1277.4,1115.6,963.7,1787.8,1203.5,3478.3,3467.4,1216.0,905.9,1587.1,3475.9,1377.5,1257.8,3471.0,3480.7,1557.1,2115.9,2751.3,3486.8,1680.5,3491.7,3467.4,3485.6,655.4,862.9,1711.9,1043.5,1017.6,905.9,-12.0,-1.0,-13.0,6708.0,-6906.0,10263.0,-8391.0,-540.0,-193.0,-66.0,5.0,-28.0,21.0,8205.0,-12007.0,-6072.0,4480.0,-501.0,65.0,-40.0,1.0
2022-05-23 14:53:31.698896-07:00,1264.9,796.9,1597.4,1277.4,1099.9,1030.6,1787.8,1203.5,3467.4,3468.6,1216.0,905.9,1585.2,3469.8,1377.5,1257.8,3471.0,3480.7,1574.9,2114.9,2751.3,3486.8,1671.9,3489.2,3467.4,3485.6,655.4,860.4,1711.9,1043.5,1009.9,905.9,10.0,13.0,-32.0,6670.0,-7073.0,10267.0,-8277.0,-331.0,-215.0,-291.0,-3.0,13.0,-15.0,8091.0,-12089.0,-6133.0,4384.0,-454.0,24.0,-91.0,1.0
2022-05-23 14:53:31.759037-07:00,1264.9,796.9,1363.9,1151.5,1099.9,1030.6,1777.2,1230.2,3467.4,3468.6,1209.7,894.9,1585.2,3469.8,1353.1,1252.4,3477.1,3477.1,1574.9,2114.9,2754.7,3500.2,1671.9,3489.2,3471.0,3472.2,655.4,860.4,1712.9,1032.3,1009.9,905.9,-34.0,-64.0,6.0,6599.0,-7221.0,10256.0,-8219.0,-170.0,-5.0,-114.0,-10.0,-20.0,9.0,8015.0,-12130.0,-6193.0,4324.0,-138.0,-14.0,-72.0,1.0
2022-05-23 14:53:31.818800-07:00,1258.7,786.9,1363.9,1151.5,1077.3,1022.8,1777.2,1230.2,3473.4,3471.0,1209.7,894.9,1583.3,3478.3,1353.1,1252.4,3477.1,3477.1,1583.3,2112.8,2754.7,3500.2,1659.6,3484.4,3471.0,3472.2,649.7,857.0,1712.9,1032.3,1000.5,900.0,-10.0,15.0,3.0,6589.0,-7239.0,10255.0,-8213.0,45.0,-4.0,1.0,-8.0,-5.0,22.0,8024.0,-12124.0,-6195.0,4322.0,8.0,18.0,6.0,1.0
2022-05-23 14:53:31.848935-07:00,1258.7,786.9,1283.7,1106.0,1077.3,1007.3,1733.9,1203.5,3473.4,3471.0,1191.2,893.2,1583.3,3467.4,1347.6,1241.7,3473.4,3481.9,1583.3,2112.8,2737.0,3477.1,1659.6,3484.4,3477.1,3474.6,650.5,857.0,1717.7,1030.6,1000.5,900.0,-16.0,0.0,-10.0,6592.0,-7234.0,10255.0,-8216.0,34.0,35.0,31.0,-8.0,-4.0,13.0,8025.0,-12126.0,-6193.0,4318.0,15.0,4.0,4.0,1.0
2022-05-23 14:53:31.909041-07:00,1284.6,798.5,1252.4,1106.0,1058.2,1007.3,1733.9,1203.5,3477.1,3477.1,1190.3,893.2,1585.2,3467.4,1347.6,1241.7,3473.4,3481.9,1568.3,2097.7,2737.0,3502.7,1662.5,3491.7,3477.1,3474.6,650.5,845.3,1717.7,1021.9,993.6,899.1,-10.0,10.0,-20.0,6596.0,-7212.0,10265.0,-8217.0,24.0,-29.0,-23.0,-3.0,-5.0,10.0,8029.0,-12126.0,-6189.0,4316.0,-15.0,14.0,-4.0,1.0
2022-05-23 14:53:31.939239-07:00,1284.6,798.5,1252.4,1077.3,1058.2,993.6,1715.8,1193.8,3477.1,3477.1,1190.3,894.9,1585.2,3466.1,1340.4,1237.3,3467.4,3472.2,1571.1,2097.7,2740.3,3502.7,1662.5,3491.7,3477.1,3478.3,653.8,845.3,1716.7,1021.9,993.6,899.1,-1.0,5.0,-28.0,6600.0,-7229.0,10248.0,-8221.0,14.0,-29.0,-48.0,-3.0,1.0,0.0,8032.0,-12123.0,-6195.0,4311.0,-13.0,-13.0,-29.0,1.0
2022-05-23 14:53:32.028841-07:00,1271.2,797.7,1241.7,1077.3,1052.2,993.6,1715.8,1193.8,3477.1,3466.1,1185.9,894.9,1589.9,3466.1,1340.4,1237.3,3467.4,3472.2,1571.1,2104.8,2740.3,3486.8,1663.4,3490.5,3477.1,3478.3,653.8,849.5,1716.7,1012.5,984.2,899.1,-10.0,4.0,-12.0,6601.0,-7246.0,10238.0,-8217.0,31.0,-46.0,-30.0,-4.0,-8.0,12.0,8031.0,-12119.0,-6205.0,4311.0,4.0,-13.0,-18.0,1.0
2022-05-23 14:53:32.058967-07:00,1271.2,797.7,1241.7,1079.0,1052.2,996.2,1716.7,1190.3,3477.1,3466.1,1185.9,894.9,1589.9,3473.4,1333.2,1253.3,3477.1,3472.2,1563.7,2104.8,2740.3,3486.8,1663.4,3490.5,3478.3,3474.6,648.1,849.5,1711.0,1012.5,984.2,899.1,-3.0,0.0,-18.0,6609.0,-7263.0,10224.0,-8214.0,-34.0,-35.0,-23.0,-8.0,-5.0,10.0,8029.0,-12117.0,-6211.0,4309.0,-40.0,-6.0,-11.0,1.0
2022-05-23 14:53:32.208835-07:00,1265.8,794.4,1240.8,1079.0,1049.6,996.2,1716.7,1190.3,3457.6,3461.3,1185.9,894.9,1589.9,3473.4,1333.2,1253.3,3477.1,3472.2,1563.7,2103.7,2740.3,3494.1,1665.3,3484.4,3478.3,3474.6,648.1,842.8,1711.0,1023.7,976.5,892.4,-14.0,-3.0,-9.0,6607.0,-7271.0,10224.0,-8208.0,60.0,-8.0,-17.0,-7.0,-17.0,19.0,8026.0,-12118.0,-6214.0,4308.0,37.0,-8.0,-3.0,1.0
2022-05-23 14:53:32.210047-07:00,1265.8,794.4,1240.8,1072.9,1049.6,984.2,1707.2,1208.9,3457.6,3461.3,1185.9,890.7,1586.1,3464.9,1339.5,1239.9,3468.6,3471.0,1573.0,2105.8,2734.8,3494.1,1665.3,3484.4,3475.9,3473.4,650.5,839.4,1717.7,1023.7,976.5,892.4,-2.0,10.0,-19.0,6612.0,-7277.0,10215.0,-8212.0,-28.0,-24.0,-18.0,-1.0,1.0,11.0,8030.0,-12115.0,-6213.0,4310.0,-47.0,4.0,-22.0,1.0
2022-05-23 14:53:32.211138-07:00,1261.3,783.6,1221.3,1061.7,1049.6,984.2,1707.2,1208.9,3466.1,3467.4,1179.7,890.7,1586.1,3464.9,1339.5,1239.9,3468.6,3471.0,1573.0,2105.8,2741.4,3488.0,1661.5,3494.1,3475.9,3473.4,650.5,839.4,1711.0,1012.5,980.7,906.7,-2.0,-1.0,-11.0,6605.0,-7296.0,10220.0,-8193.0,-19.0,-23.0,-18.0,-4.0,-8.0,8.0,8014.0,-12124.0,-6226.0,4297.0,-38.0,2.0,-25.0,1.0
2022-05-23 14:53:32.239697-07:00,1261.3,783.6,1221.3,1061.7,1046.1,980.7,1706.2,1192.9,3466.1,3467.4,1179.7,890.7,1586.1,3464.9,1327.8,1241.7,3477.1,3472.2,1571.1,2099.7,2741.4,3488.0,1661.5,3494.1,3475.9,3483.2,650.5,845.3,1711.0,1012.5,980.7,906.7,-9.0,0.0,-18.0,6608.0,-7304.0,10213.0,-8192.0,29.0,-22.0,-25.0,-9.0,-7.0,3.0,8013.0,-12122.0,-6232.0,4293.0,12.0,-4.0,-10.0,1.0
2022-05-23 14:53:32.298879-07:00,1261.3,785.2,1218.6,1062.5,1046.1,980.7,1706.2,1192.9,3458.9,3467.4,1176.2,889.0,1586.1,3464.9,1327.8,1241.7,3477.1,3472.2,1571.1,2099.7,2724.9,3485.6,1656.8,3494.1,3475.9,3483.2,650.5,845.3,1710.0,1009.9,975.6,905.9,-7.0,3.0,-13.0,6607.0,-7309.0,10210.0,-8193.0,-26.0,-2.0,-3.0,1.0,-1.0,11.0,8011.0,-12123.0,-6234.0,4292.0,-42.0,-1.0,-6.0,1.0
2022-05-23 14:53:32.359859-07:00,1261.3,785.2,1218.6,1062.5,1037.5,981.6,1696.7,1191.2,3458.9,3467.4,1176.2,889.0,1590.8,3469.8,1320.5,1235.5,3471.0,3467.4,1573.9,2106.8,2724.9,3485.6,1656.8,3494.1,3473.4,3473.4,663.6,840.3,1710.0,1009.9,975.6,905.9,0.0,1.0,-11.0,6601.0,-7315.0,10223.0,-8176.0,-30.0,-12.0,13.0,4.0,-9.0,11.0,8000.0,-12131.0,-6239.0,4285.0,-16.0,4.0,-9.0,1.0
2022-05-23 14:53:32.389022-07:00,1265.8,796.9,1228.4,1062.5,1037.5,981.6,1696.7,1191.2,3468.6,3464.9,1180.6,891.5,1590.8,3469.8,1320.5,1235.5,3471.0,3467.4,1573.9,2106.8,2731.5,3491.7,1665.3,3485.6,3473.4,3473.4,663.6,840.3,1711.0,1021.9,975.6,893.2,-1.0,4.0,-14.0,6601.0,-7322.0,10225.0,-8166.0,-16.0,-25.0,-9.0,-3.0,-3.0,9.0,7994.0,-12135.0,-6241.0,4281.0,-22.0,2.0,-6.0,1.0
2022-05-23 14:53:32.509019-07:00,1252.4,796.9,1228.4,1062.5,1034.0,983.3,1688.1,1195.6,3471.0,3464.9,1180.6,891.5,1582.4,3474.6,1323.2,1231.0,3471.0,3472.2,1578.6,2095.7,2731.5,3491.7,1665.3,3481.9,3478.3,3472.2,645.7,837.7,1711.0,1021.9,975.6,893.2,-14.0,-2.0,-13.0,6602.0,-7326.0,10228.0,-8160.0,-15.0,-5.0,5.0,-8.0,-8.0,9.0,7988.0,-12138.0,-6243.0,4279.0,-30.0,-4.0,-5.0,1.0
2022-05-23 14:53:32.510209-07:00,1252.4,787.7,1230.2,1063.4,1034.0,983.3,1688.1,1187.6,3471.0,3464.9,1177.0,887.3,1582.4,3474.6,1323.2,1235.5,3475.9,3472.2,1578.6,2095.7,2721.6,3485.6,1656.8,3481.9,3467.4,3472.2,645.7,837.7,1705.3,1004.8,975.6,893.2,-16.0,-4.0,-19.0,6603.0,-7332.0,10233.0,-8146.0,-18.0,-24.0,0.0,-3.0,-14.0,16.0,7979.0,-12145.0,-6245.0,4275.0,-31.0,0.0,3.0,1.0
2022-05-23 14:53:32.628798-07:00,1252.4,787.7,1230.2,1063.4,1021.1,979.9,1671.9,1187.6,3462.5,3464.9,1177.0,887.3,1583.3,3471.0,1316.9,1235.5,3475.9,3479.5,1574.9,2097.7,2721.6,3485.6,1656.8,3486.8,3467.4,3469.8,653.8,841.1,1705.3,1004.8,975.6,891.5,-13.0,-18.0,-26.0,6638.0,-7333.0,10222.0,-8131.0,85.0,-117.0,71.0,-2.0,-11.0,5.0,7988.0,-12138.0,-6241.0,4281.0,61.0,-1.0,6.0,1.0
2022-05-23 14:53:32.689022-07:00,1252.4,799.4,1231.0,1072.1,1021.1,979.9,1671.9,1195.6,3462.5,3466.1,1171.8,897.4,1583.3,3471.0,1316.9,1239.1,3484.4,3479.5,1574.9,2097.7,2722.7,3495.3,1654.9,3486.8,3484.4,3469.8,653.8,841.1,1711.0,1010.8,979.0,891.5,14.0,19.0,-13.0,6725.0,-7302.0,10197.0,-8118.0,144.0,-106.0,152.0,-1.0,4.0,-14.0,8033.0,-12108.0,-6226.0,4307.0,151.0,-21.0,8.0,1.0
2022-05-23 14:53:32.719530-07:00,1274.7,799.4,1231.0,1072.1,1042.6,975.6,1676.7,1195.6,3474.6,3466.1,1171.8,897.4,1578.6,3478.3,1325.0,1239.1,3484.4,3473.4,1568.3,2073.5,2722.7,3495.3,1654.9,3497.8,3484.4,3478.3,651.4,842.8,1711.0,1010.8,979.0,895.7,-7.0,26.0,5.0,6763.0,-7286.0,10202.0,-8095.0,-46.0,-38.0,38.0,0.0,-4.0,22.0,8037.0,-12099.0,-6228.0,4319.0,-33.0,-17.0,3.0,1.0
2022-05-23 14:53:32.720427-07:00,1274.7,792.7,1229.3,1080.8,1042.6,975.6,1675.7,1190.3,3474.6,3471.0,1176.2,894.9,1578.6,3478.3,1325.0,1230.2,3468.6,3471.0,1568.3,2073.5,2733.7,3495.3,1657.7,3497.8,3471.0,3472.2,651.4,842.8,1717.7,1012.5,979.0,895.7,-12.0,-5.0,3.0,6760.0,-7290.0,10212.0,-8080.0,-31.0,10.0,28.0,-7.0,-10.0,20.0,8025.0,-12107.0,-6232.0,4316.0,-46.0,7.0,9.0,1.0
2022-05-23 14:53:32.779017-07:00,1255.1,803.5,1229.3,1080.8,1027.1,969.6,1675.7,1190.3,3464.9,3464.9,1176.2,894.9,1577.7,3477.1,1325.0,1230.2,3468.6,3471.0,1578.6,2102.7,2733.7,3495.3,1653.0,3486.8,3471.0,3472.2,648.9,837.7,1717.7,1012.5,971.3,891.5,-7.0,12.0,-8.0,6751.0,-7281.0,10242.0,-8059.0,-101.0,46.0,33.0,0.0,-1.0,7.0,8005.0,-12125.0,-6230.0,4304.0,-94.0,23.0,17.0,1.0
2022-05-23 14:53:32.780663-07:00,1255.1,803.5,1230.2,1070.3,1027.1,969.6,1677.6,1182.3,3464.9,3464.9,1175.3,892.4,1577.7,3477.1,1321.4,1222.2,3467.4,3472.2,1578.6,2102.7,2727.1,3490.5,1653.0,3486.8,3471.0,3474.6,648.9,837.7,1716.7,1015.1,971.3,891.5,-4.0,0.0,-25.0,6728.0,-7275.0,10274.0,-8043.0,-24.0,55.0,31.0,-4.0,-1.0,2.0,7982.0,-12146.0,-6230.0,4286.0,-43.0,23.0,11.0,1.0
2022-05-23 14:53:32.838979-07:00,1255.1,806.9,1230.2,1070.3,1031.4,973.9,1677.6,1182.3,3461.3,3469.8,1175.3,892.4,1583.3,3471.0,1321.4,1222.2,3467.4,3472.2,1566.5,2106.8,2727.1,3490.5,1655.8,3490.5,3471.0,3474.6,657.0,833.6,1716.7,1015.1,969.6,893.2,-12.0,0.0,-29.0,6716.0,-7270.0,10302.0,-8021.0,-62.0,6.0,21.0,-7.0,-9.0,5.0,7968.0,-12157.0,-6234.0,4276.0,-59.0,-5.0,-4.0,1.0
2022-05-23 14:53:32.929029-07:00,1255.1,806.9,1224.8,1063.4,1031.4,973.9,1674.8,1189.4,3461.3,3469.8,1173.5,889.0,1583.3,3471.0,1320.5,1229.3,3471.0,3472.2,1566.5,2106.8,2718.3,3488.0,1655.8,3490.5,3472.2,3479.5,657.0,833.6,1701.4,1008.2,969.6,893.2,-4.0,-1.0,-8.0,6719.0,-7282.0,10307.0,-8002.0,-2.0,-36.0,5.0,0.0,-2.0,10.0,7958.0,-12163.0,-6237.0,4273.0,-5.0,-8.0,-1.0,1.0
2022-05-23 14:53:32.930716-07:00,1268.5,798.5,1224.8,1063.4,1024.5,970.5,1674.8,1189.4,3462.5,3469.8,1173.5,889.0,1586.1,3474.6,1320.5,1229.3,3471.0,3472.2,1573.9,2098.7,2718.3,3488.0,1657.7,3488.0,3472.2,3479.5,652.2,835.2,1701.4,1008.2,964.5,888.2,-12.0,3.0,-6.0,6729.0,-7285.0,10313.0,-7983.0,-85.0,-21.0,45.0,-3.0,-4.0,7.0,7952.0,-12167.0,-6239.0,4270.0,-62.0,-6.0,-7.0,1.0
2022-05-23 14:53:32.989687-07:00,1268.5,798.5,1212.4,1069.5,1024.5,962.0,1657.7,1191.2,3462.5,3469.8,1166.5,889.0,1586.1,3469.8,1318.7,1229.3,3480.7,3475.9,1578.6,2098.7,2738.1,3486.8,1657.7,3488.0,3483.2,3466.1,653.8,835.2,1710.0,1004.8,964.5,888.2,3.0,2.0,7.0,6726.0,-7292.0,10327.0,-7962.0,23.0,8.0,-12.0,-1.0,-18.0,13.0,7939.0,-12176.0,-6243.0,4264.0,6.0,7.0,10.0,1.0
2022-05-23 14:53:33.079564-07:00,1258.7,774.5,1203.5,1069.5,1026.3,962.0,1657.7,1191.2,3478.3,3468.6,1171.8,889.0,1589.9,3469.8,1318.7,1229.3,3480.7,3475.9,1578.6,2094.7,2738.1,3494.1,1653.9,3490.5,3483.2,3466.1,653.8,831.1,1710.0,990.2,970.5,889.8,-13.0,0.0,-19.0,6718.0,-7284.0,10321.0,-7983.0,-7.0,30.0,-19.0,-4.0,-5.0,10.0,7943.0,-12173.0,-6241.0,4267.0,-29.0,0.0,8.0,1.0
2022-05-23 14:53:33.080497-07:00,1258.7,774.5,1203.5,1070.3,1026.3,970.5,1672.9,1174.4,3478.3,3468.6,1171.8,885.6,1589.9,3468.6,1318.7,1225.7,3469.8,3478.3,1573.9,2094.7,2730.4,3494.1,1653.9,3490.5,3477.1,3467.4,653.8,831.1,1714.8,990.2,970.5,889.8,-9.0,3.0,-11.0,6712.0,-7281.0,10331.0,-7978.0,18.0,21.0,19.0,-1.0,-10.0,7.0,7939.0,-12176.0,-6241.0,4266.0,13.0,-2.0,6.0,1.0
2022-05-23 14:53:33.139402-07:00,1258.7,805.2,1216.0,1070.3,1027.1,970.5,1672.9,1174.4,3467.4,3471.0,1173.5,885.6,1584.2,3468.6,1318.7,1225.7,3469.8,3478.3,1573.9,2100.7,2730.4,3490.5,1646.4,3491.7,3477.1,3467.4,653.8,833.6,1714.8,1007.3,973.1,883.1,-6.0,4.0,-17.0,6710.0,-7282.0,10325.0,-7986.0,15.0,-7.0,-39.0,-5.0,-1.0,4.0,7944.0,-12173.0,-6240.0,4268.0,-5.0,-3.0,-2.0,1.0
2022-05-23 14:53:33.228901-07:00,1258.7,805.2,1216.0,1069.5,1027.1,967.9,1651.1,1170.9,3467.4,3471.0,1173.5,882.3,1584.2,3475.9,1314.2,1229.3,3474.6,3467.4,1571.1,2100.7,2728.2,3490.5,1646.4,3491.7,3472.2,3462.5,649.7,833.6,1711.9,1007.3,973.1,883.1,-6.0,8.0,-10.0,6709.0,-7287.0,10310.0,-8002.0,59.0,-8.0,-45.0,-10.0,-2.0,7.0,7950.0,-12167.0,-6240.0,4271.0,39.0,-5.0,-13.0,1.0
2022-05-23 14:53:33.230403-07:00,1261.3,799.4,1208.0,1063.4,1028.8,967.9,1651.1,1170.9,3466.1,3478.3,1164.7,885.6,1573.9,3475.9,1314.2,1229.3,3474.6,3467.4,1571.1,2085.6,2724.9,3502.7,1649.2,3495.3,3472.2,3462.5,649.7,836.1,1708.1,1007.3,973.9,899.1,-10.0,0.0,-1.0,6706.0,-7287.0,10295.0,-8023.0,47.0,8.0,-51.0,-8.0,-12.0,12.0,7963.0,-12158.0,-6238.0,4277.0,32.0,2.0,-6.0,1.0
2022-05-23 14:53:33.289469-07:00,1261.3,799.4,1208.0,1063.4,1021.1,952.6,1661.5,1174.4,3466.1,3478.3,1164.7,885.6,1589.9,3461.3,1316.0,1226.6,3478.3,3473.4,1565.5,2102.7,2724.9,3502.7,1649.2,3495.3,3474.6,3472.2,649.7,834.4,1708.1,1007.3,973.9,899.1,0.0,9.0,-8.0,6705.0,-7285.0,10266.0,-8063.0,114.0,34.0,-75.0,0.0,-3.0,9.0,7984.0,-12144.0,-6230.0,4288.0,70.0,7.0,1.0,1.0
2022-05-23 14:53:33.349495-07:00,1264.0,788.6,1220.4,1058.2,1021.1,952.6,1661.5,1174.4,3464.9,3473.4,1168.2,889.8,1589.9,3461.3,1316.0,1226.6,3478.3,3473.4,1565.5,2102.7,2734.8,3486.8,1653.0,3486.8,3474.6,3472.2,649.7,834.4,1710.0,1003.9,972.2,899.1,-13.0,-5.0,-19.0,6691.0,-7284.0,10250.0,-8096.0,6.0,35.0,-45.0,-2.0,-8.0,13.0,7987.0,-12143.0,-6229.0,4290.0,-27.0,2.0,0.0,1.0
2022-05-23 14:53:33.379327-07:00,1264.0,788.6,1220.4,1058.2,1028.8,963.7,1650.2,1175.3,3464.9,3473.4,1168.2,889.8,1573.9,3467.4,1315.1,1225.7,3475.9,3478.3,1559.0,2103.7,2734.8,3486.8,1653.0,3486.8,3475.9,3472.2,655.4,836.1,1710.0,1003.9,972.2,899.1,-6.0,1.0,-20.0,6685.0,-7288.0,10254.0,-8092.0,-10.0,8.0,1.0,-2.0,0.0,8.0,7980.0,-12147.0,-6232.0,4286.0,-39.0,2.0,-5.0,1.0
2022-05-23 14:53:33.439598-07:00,1267.6,790.2,1222.2,1063.4,1028.8,963.7,1650.2,1175.3,3472.2,3471.0,1164.7,884.8,1573.9,3467.4,1315.1,1225.7,3475.9,3478.3,1559.0,2103.7,2732.6,3488.0,1650.2,3490.5,3475.9,3472.2,655.4,836.1,1711.0,1012.5,973.9,889.0,-14.0,-1.0,-15.0,6680.0,-7293.0,10272.0,-8069.0,-73.0,-19.0,38.0,-7.0,-8.0,10.0,7960.0,-12160.0,-6238.0,4277.0,-74.0,1.0,7.0,1.0
2022-05-23 14:53:33.528928-07:00,1267.6,790.2,1222.2,1063.4,1007.3,973.1,1653.9,1176.2,3472.2,3471.0,1164.7,884.8,1580.5,3473.4,1311.5,1220.4,3474.6,3483.2,1570.2,2097.7,2732.6,3488.0,1650.2,3490.5,3474.6,3474.6,645.7,837.7,1711.0,1012.5,973.9,889.0,0.0,12.0,-5.0,6682.0,-7294.0,10290.0,-8043.0,-1.0,11.0,30.0,-3.0,-2.0,7.0,7952.0,-12166.0,-6241.0,4273.0,11.0,-1.0,2.0,1.0
2022-05-23 14:53:33.530666-07:00,1258.7,790.2,1225.7,1059.9,1007.3,973.1,1653.9,1177.0,3467.4,3469.8,1165.6,885.6,1580.5,3473.4,1311.5,1223.0,3472.2,3483.2,1570.2,2097.7,2717.2,3492.9,1654.9,3489.2,3477.1,3474.6,645.7,837.7,1701.4,1003.9,975.6,891.5,-11.0,0.0,-11.0,6682.0,-7288.0,10294.0,-8044.0,-12.0,-6.0,3.0,-6.0,-7.0,7.0,7949.0,-12167.0,-6241.0,4272.0,-33.0,3.0,-1.0,1.0
2022-05-23 14:53:33.589503-07:00,1259.6,790.2,1225.7,1059.9,1020.2,950.9,1659.6,1177.0,3468.6,3469.8,1165.6,885.6,1587.1,3464.9,1308.8,1223.0,3472.2,3467.4,1571.1,2095.7,2717.2,3492.9,1654.9,3486.8,3477.1,3467.4,653.0,836.9,1701.4,1003.9,975.6,890.7,-5.0,1.0,-4.0,6679.0,-7291.0,10299.0,-8037.0,6.0,14.0,-1.0,-3.0,-6.0,10.0,7945.0,-12170.0,-6243.0,4271.0,0.0,2.0,-2.0,1.0
2022-05-23 14:53:33.648913-07:00,1259.6,793.5,1228.4,1077.3,1020.2,950.9,1659.6,1170.9,3468.6,3478.3,1165.6,885.6,1587.1,3464.9,1308.8,1222.2,3472.2,3467.4,1571.1,2095.7,2730.4,3497.8,1654.9,3486.8,3478.3,3467.4,653.0,836.9,1708.1,1009.0,972.2,890.7,-6.0,0.0,-14.0,6677.0,-7284.0,10299.0,-8045.0,13.0,24.0,1.0,-4.0,-5.0,7.0,7948.0,-12168.0,-6241.0,4272.0,-8.0,5.0,0.0,1.0
2022-05-23 14:53:33.678864-07:00,1257.8,793.5,1228.4,1077.3,1021.9,962.0,1656.8,1170.9,3471.0,3478.3,1165.6,885.6,1583.3,3461.3,1316.9,1222.2,3472.2,3478.3,1566.5,2088.6,2730.4,3497.8,1654.9,3486.8,3478.3,3466.1,653.0,842.8,1708.1,1009.0,972.2,893.2,0.0,5.0,-10.0,6675.0,-7283.0,10301.0,-8045.0,13.0,-1.0,-10.0,-2.0,-8.0,5.0,7947.0,-12169.0,-6242.0,4272.0,15.0,0.0,0.0,1.0
2022-05-23 14:53:33.769479-07:00,1257.8,787.7,1223.0,1072.1,1021.9,962.0,1656.8,1174.4,3471.0,3467.4,1162.1,884.8,1583.3,3461.3,1316.9,1223.9,3477.1,3478.3,1566.5,2088.6,2728.2,3488.0,1647.3,3486.8,3481.9,3466.1,653.0,842.8,1717.7,1004.8,979.0,893.2,-8.0,-3.0,-17.0,6676.0,-7283.0,10292.0,-8056.0,10.0,1.0,-9.0,-6.0,-5.0,4.0,7953.0,-12164.0,-6239.0,4276.0,-13.0,-6.0,-5.0,1.0
2022-05-23 14:53:33.798974-07:00,1254.2,784.4,1223.0,1072.1,1021.1,960.2,1643.5,1174.4,3474.6,3468.6,1162.1,884.8,1589.9,3467.4,1317.8,1223.9,3477.1,3478.3,1572.1,2086.6,2728.2,3488.0,1650.2,3495.3,3481.9,3471.0,651.4,841.1,1717.7,1004.8,972.2,883.1,-8.0,5.0,-4.0,6678.0,-7278.0,10300.0,-8049.0,10.0,-11.0,23.0,-5.0,-10.0,10.0,7952.0,-12164.0,-6241.0,4278.0,17.0,-10.0,10.0,1.0
2022-05-23 14:53:33.828925-07:00,1254.2,784.4,1221.3,1078.2,1021.1,960.2,1682.4,1185.0,3474.6,3468.6,1163.8,883.1,1589.9,3467.4,1311.5,1224.8,3474.6,3479.5,1572.1,2086.6,2723.8,3496.6,1650.2,3495.3,3467.4,3480.7,651.4,841.1,1712.9,1005.6,972.2,883.1,2.0,11.0,-12.0,6684.0,-7274.0,10296.0,-8053.0,29.0,8.0,-15.0,0.0,5.0,8.0,7956.0,-12160.0,-6239.0,4282.0,9.0,0.0,-6.0,1.0
2022-05-23 14:53:33.889052-07:00,1248.0,800.2,1221.3,1078.2,1015.9,954.3,1682.4,1185.0,3471.0,3473.4,1163.8,883.1,1582.4,3473.4,1311.5,1224.8,3474.6,3479.5,1569.3,2085.6,2723.8,3496.6,1653.0,3481.9,3467.4,3480.7,646.5,831.1,1712.9,1005.6,972.2,867.1,-11.0,0.0,-4.0,6677.0,-7273.0,10301.0,-8053.0,-26.0,8.0,2.0,-7.0,-10.0,13.0,7951.0,-12164.0,-6241.0,4280.0,-27.0,2.0,-2.0,1.0
2022-05-23 14:53:33.948905-07:00,1248.0,800.2,1216.8,1061.7,1015.9,954.3,1656.8,1179.7,3471.0,3473.4,1169.1,883.9,1582.4,3473.4,1318.7,1217.7,3471.0,3479.5,1569.3,2085.6,2726.0,3494.1,1653.0,3481.9,3469.8,3473.4,646.5,831.1,1711.9,1008.2,972.2,867.1,-7.0,1.0,-19.0,6677.0,-7271.0,10300.0,-8056.0,19.0,10.0,-10.0,-5.0,-6.0,5.0,7948.0,-12165.0,-6242.0,4278.0,5.0,9.0,0.0,1.0
2022-05-23 14:53:33.978867-07:00,1255.1,777.8,1216.8,1061.7,1015.1,964.5,1656.8,1179.7,3458.9,3480.7,1169.1,883.9,1579.6,3466.1,1318.7,1217.7,3471.0,3479.5,1568.3,2095.7,2726.0,3494.1,1645.4,3495.3,3469.8,3473.4,647.3,835.2,1711.9,1008.2,969.6,904.2,-7.0,5.0,-20.0,6674.0,-7269.0,10301.0,-8059.0,14.0,9.0,1.0,-1.0,-3.0,7.0,7948.0,-12165.0,-6242.0,4278.0,13.0,-2.0,1.0,1.0
2022-05-23 14:53:34.038974-07:00,1255.1,777.8,1221.3,1067.7,1015.1,964.5,1637.9,1175.3,3458.9,3480.7,1163.0,886.5,1579.6,3466.1,1309.7,1223.0,3468.6,3477.1,1568.3,2095.7,2721.6,3499.0,1645.4,3495.3,3475.9,3478.3,647.3,835.2,1710.0,1009.9,969.6,904.2,2.0,0.0,-16.0,6675.0,-7268.0,10294.0,-8067.0,22.0,-4.0,-17.0,0.0,-4.0,6.0,7952.0,-12162.0,-6242.0,4280.0,10.0,-13.0,-10.0,1.0
2022-05-23 14:53:34.099365-07:00,1258.7,788.6,1222.2,1067.7,1011.6,957.7,1637.9,1175.3,3468.6,3473.4,1166.5,886.5,1580.5,3473.4,1309.7,1223.0,3468.6,3477.1,1569.3,2093.7,2721.6,3486.8,1643.5,3483.2,3475.9,3478.3,644.9,836.1,1710.0,1005.6,978.2,899.1,-5.0,4.0,-3.0,6681.0,-7267.0,10293.0,-8064.0,-20.0,-22.0,28.0,0.0,-12.0,11.0,7954.0,-12156.0,-6248.0,4284.0,-6.0,-14.0,-11.0,1.0
2022-05-23 14:53:34.159176-07:00,1258.7,788.6,1222.2,1071.2,1011.6,955.1,1634.1,1177.0,3468.6,3473.4,1166.5,883.1,1580.5,3468.6,1304.3,1227.5,3481.9,3466.1,1564.6,2093.7,2730.4,3486.8,1643.5,3483.2,3478.3,3480.7,654.6,836.1,1711.0,1005.6,978.2,899.1,-9.0,8.0,-10.0,6687.0,-7266.0,10285.0,-8071.0,52.0,4.0,-38.0,-5.0,-2.0,15.0,7959.0,-12151.0,-6250.0,4287.0,26.0,-1.0,-13.0,1.0
2022-05-23 14:53:34.339079-07:00,1254.2,782.7,1217.7,1071.2,1009.9,955.1,1634.1,1177.0,3473.4,3462.5,1166.5,883.1,1585.2,3468.6,1304.3,1227.5,3481.9,3466.1,1564.6,2093.7,2730.4,3494.1,1646.4,3496.6,3478.3,3480.7,654.6,831.9,1711.0,1015.1,964.5,891.5,-8.0,-6.0,-19.0,6689.0,-7267.0,10268.0,-8091.0,118.0,7.0,-7.0,-7.0,-5.0,4.0,7976.0,-12140.0,-6247.0,4293.0,128.0,-6.0,-9.0,1.0
2022-05-23 14:53:34.340332-07:00,1254.2,782.7,1217.7,1065.1,1009.9,962.0,1671.9,1182.3,3473.4,3462.5,1166.5,886.5,1585.2,3479.5,1317.8,1226.6,3480.7,3467.4,1573.0,2093.7,2715.0,3494.1,1646.4,3496.6,3477.1,3478.3,644.9,831.9,1704.3,1015.1,964.5,891.5,-6.0,10.0,-12.0,6709.0,-7245.0,10256.0,-8109.0,-1.0,-7.0,14.0,0.0,-10.0,15.0,8006.0,-12118.0,-6237.0,4313.0,14.0,-11.0,-8.0,1.0
2022-05-23 14:53:34.341256-07:00,1256.9,791.9,1208.9,1065.1,1022.8,962.0,1671.9,1182.3,3469.8,3461.3,1170.0,886.5,1576.8,3479.5,1317.8,1226.6,3480.7,3467.4,1573.0,2093.7,2715.0,3494.1,1642.6,3488.0,3477.1,3478.3,644.9,827.7,1704.3,1008.2,974.8,894.9,-5.0,-10.0,-5.0,6707.0,-7251.0,10242.0,-8122.0,71.0,10.0,-64.0,0.0,-15.0,7.0,8012.0,-12113.0,-6236.0,4316.0,43.0,-6.0,-11.0,1.0
2022-05-23 14:53:34.369544-07:00,1256.9,791.9,1208.9,1058.2,1009.9,958.5,1669.1,1180.6,3469.8,3461.3,1170.0,883.1,1583.3,3466.1,1302.5,1226.6,3468.6,3473.4,1564.6,2095.7,2719.4,3494.1,1642.6,3488.0,3474.6,3464.9,647.3,836.1,1707.2,1008.2,974.8,894.9,-13.0,-25.0,-4.0,6720.0,-7221.0,10201.0,-8189.0,191.0,60.0,-22.0,-10.0,1.0,3.0,8061.0,-12081.0,-6219.0,4341.0,178.0,-8.0,-5.0,1.0
2022-05-23 14:53:34.398915-07:00,1250.6,798.5,1300.7,1207.1,1009.9,958.5,1669.1,1180.6,3467.4,3473.4,1168.2,887.3,1583.3,3466.1,1302.5,1226.6,3468.6,3473.4,1564.6,2095.7,2732.6,3489.2,1643.5,3496.6,3474.6,3464.9,647.3,836.1,1714.8,1009.0,971.3,892.4,-46.0,-206.0,52.0,6702.0,-7142.0,10247.0,-8216.0,166.0,345.0,250.0,0.0,-79.0,23.0,8121.0,-12034.0,-6190.0,4398.0,383.0,-58.0,95.0,1.0
2022-05-23 14:53:34.428974-07:00,1250.6,798.5,1300.7,1207.1,1044.4,958.5,1818.7,1239.9,3467.4,3473.4,1168.2,887.3,1576.8,3463.7,1312.4,1231.0,3480.7,3485.6,1566.5,2094.7,2732.6,3489.2,1643.5,3496.6,3474.6,3488.0,640.0,862.1,1714.8,1009.0,971.3,892.4,1.0,178.0,-78.0,6883.0,-6809.0,10117.0,-8506.0,1255.0,231.0,101.0,-9.0,64.0,-3.0,8379.0,-11854.0,-6043.0,4602.0,1100.0,-59.0,151.0,1.0
2022-05-23 14:53:34.488955-07:00,1250.6,789.4,1789.7,1533.8,1044.4,958.5,1818.7,1239.9,3469.8,3463.7,1208.9,898.3,1576.8,3463.7,1312.4,1231.0,3480.7,3485.6,1566.5,2094.7,2748.0,3507.5,1645.4,3486.8,3474.6,3488.0,640.0,862.1,1712.9,1007.3,980.7,881.4,-71.0,122.0,73.0,6989.0,-6739.0,9910.0,-8715.0,651.0,-455.0,-204.0,-56.0,64.0,-1.0,8522.0,-11752.0,-5971.0,4697.0,93.0,-33.0,15.0,1.0
2022-05-23 14:53:34.549848-07:00,1250.6,789.4,1789.7,1533.8,1210.6,962.0,1869.3,1306.1,3469.8,3463.7,1208.9,898.3,1583.3,3462.5,1324.1,1226.6,3462.5,3478.3,1569.3,2111.8,2748.0,3507.5,1645.4,3486.8,3468.6,3478.3,643.2,857.9,1712.9,1007.3,980.7,881.4,-16.0,-31.0,-5.0,7040.0,-6866.0,9828.0,-8669.0,-46.0,-298.0,-140.0,-8.0,-16.0,22.0,8492.0,-11753.0,-6005.0,4702.0,-86.0,-80.0,-24.0,1.0
2022-05-23 14:53:34.639484-07:00,1260.4,796.0,1697.6,1474.6,1210.6,962.0,1869.3,1306.1,3475.9,3471.0,1209.7,897.4,1583.3,3462.5,1324.1,1226.6,3462.5,3478.3,1569.3,2111.8,2743.6,3488.0,1647.3,3485.6,3468.6,3478.3,643.2,857.9,1711.0,1011.6,979.9,894.9,14.0,26.0,3.0,7106.0,-6907.0,9731.0,-8691.0,183.0,-109.0,-73.0,-6.0,9.0,-2.0,8516.0,-11720.0,-6016.0,4730.0,128.0,-53.0,-33.0,1.0
2022-05-23 14:53:34.640685-07:00,1257.8,796.0,1697.6,1474.6,1175.3,933.9,1845.9,1278.3,3468.6,3471.0,1209.7,897.4,1585.2,3468.6,1316.9,1226.6,3474.6,3469.8,1561.8,2101.7,2743.6,3488.0,1647.3,3488.0,3466.1,3472.2,653.8,852.8,1711.0,1011.6,979.9,882.3,-6.0,4.0,6.0,7107.0,-6917.0,9708.0,-8709.0,-10.0,-6.0,-35.0,2.0,-3.0,28.0,8522.0,-11709.0,-6025.0,4735.0,-21.0,6.0,-12.0,1.0
2022-05-23 14:53:34.698915-07:00,1257.8,784.4,1666.3,1435.0,1175.3,933.9,1845.9,1296.3,3468.6,3478.3,1210.6,898.3,1585.2,3468.6,1316.9,1227.5,3469.8,3469.8,1561.8,2101.7,2745.8,3496.6,1647.3,3488.0,3472.2,3472.2,653.8,852.8,1694.8,1013.3,990.2,882.3,0.0,-13.0,-14.0,7084.0,-6926.0,9710.0,-8717.0,12.0,42.0,-58.0,6.0,-14.0,24.0,8518.0,-11716.0,-6025.0,4725.0,-27.0,25.0,-4.0,1.0
2022-05-23 14:53:34.729021-07:00,1260.4,784.4,1666.3,1435.0,1163.0,933.0,1830.4,1296.3,3475.9,3478.3,1210.6,898.3,1588.0,3477.1,1322.3,1227.5,3469.8,3481.9,1571.1,2109.8,2745.8,3496.6,1647.3,3491.7,3472.2,3474.6,650.5,847.0,1694.8,1013.3,990.2,894.9,-7.0,16.0,-34.0,7075.0,-6927.0,9692.0,-8745.0,40.0,9.0,-68.0,-3.0,8.0,1.0,8536.0,-11705.0,-6019.0,4726.0,39.0,1.0,-18.0,1.0
2022-05-23 14:53:34.849509-07:00,1260.4,776.1,1654.9,1456.2,1163.0,933.0,1830.4,1278.3,3475.9,3474.6,1210.6,898.3,1588.0,3477.1,1322.3,1231.0,3478.3,3481.9,1571.1,2109.8,2742.5,3489.2,1637.9,3491.7,3471.0,3474.6,650.5,847.0,1710.0,1035.7,986.7,894.9,3.0,-8.0,-14.0,7042.0,-6955.0,9703.0,-8737.0,-80.0,35.0,-52.0,-6.0,0.0,-4.0,8532.0,-11705.0,-6029.0,4719.0,-48.0,-9.0,-24.0,1.0
2022-05-23 14:53:34.850648-07:00,1253.3,776.1,1654.9,1456.2,1170.0,939.8,1823.6,1278.3,3473.4,3474.6,1210.6,898.3,1587.1,3461.3,1319.6,1231.0,3478.3,3477.1,1565.5,2104.8,2742.5,3489.2,1637.9,3497.8,3471.0,3479.5,655.4,842.8,1710.0,1035.7,986.7,894.1,-30.0,-7.0,-19.0,7009.0,-6950.0,9714.0,-8754.0,23.0,70.0,-53.0,-2.0,-8.0,27.0,8534.0,-11703.0,-6035.0,4714.0,20.0,11.0,-14.0,1.0
2022-05-23 14:53:34.878803-07:00,1253.3,768.7,1640.7,1432.3,1170.0,939.8,1823.6,1272.1,3473.4,3466.1,1209.7,898.3,1587.1,3461.3,1319.6,1228.4,3477.1,3477.1,1565.5,2104.8,2740.3,3489.2,1641.6,3497.8,3473.4,3479.5,655.4,842.8,1711.0,1021.9,979.0,894.1,-8.0,-7.0,-26.0,7007.0,-6951.0,9711.0,-8759.0,19.0,-26.0,-2.0,-7.0,-3.0,11.0,8541.0,-11702.0,-6026.0,4715.0,2.0,6.0,17.0,1.0
2022-05-23 14:53:34.939590-07:00,1266.7,785.2,1640.7,1432.3,1169.1,922.0,1831.3,1272.1,3475.9,3468.6,1209.7,898.3,1582.4,3480.7,1316.9,1228.4,3477.1,3473.4,1565.5,2111.8,2740.3,3489.2,1636.9,3494.1,3473.4,3471.0,658.7,843.6,1711.0,1021.9,984.2,893.2,5.0,8.0,-17.0,7013.0,-6952.0,9716.0,-8748.0,0.0,2.0,15.0,4.0,0.0,1.0,8539.0,-11705.0,-6021.0,4720.0,1.0,-7.0,16.0,1.0
2022-05-23 14:53:34.998759-07:00,1266.7,785.2,1635.0,1436.0,1169.1,922.0,1826.5,1281.9,3475.9,3468.6,1204.4,896.6,1582.4,3480.7,1325.0,1228.4,3467.4,3467.4,1565.5,2111.8,2748.0,3490.5,1636.9,3494.1,3477.1,3480.7,658.7,843.6,1710.0,1017.6,984.2,893.2,-4.0,-1.0,-14.0,7008.0,-6956.0,9721.0,-8742.0,-22.0,6.0,-4.0,4.0,-2.0,11.0,8534.0,-11708.0,-6023.0,4717.0,-26.0,-3.0,7.0,1.0
2022-05-23 14:53:35.028905-07:00,1253.3,779.4,1635.0,1436.0,1155.9,923.7,1826.5,1281.9,3468.6,3467.4,1204.4,896.6,1579.6,3469.8,1325.0,1228.4,3467.4,3467.4,1547.8,2098.7,2748.0,3490.5,1644.5,3488.0,3477.1,3480.7,659.5,843.6,1710.0,1017.6,984.2,893.2,-7.0,3.0,-13.0,7010.0,-6959.0,9723.0,-8737.0,20.0,-26.0,2.0,-2.0,-1.0,10.0,8533.0,-11709.0,-6023.0,4718.0,11.0,6.0,8.0,1.0
2022-05-23 14:53:35.088799-07:00,1253.3,779.4,1622.8,1442.4,1155.9,923.7,1804.2,1267.6,3468.6,3467.4,1202.7,898.3,1579.6,3469.8,1317.8,1223.9,3466.1,3478.3,1547.8,2098.7,2744.7,3490.5,1644.5,3488.0,3457.6,3473.4,659.5,843.6,1710.0,1016.8,984.2,893.2,-9.0,-3.0,-15.0,7011.0,-6959.0,9724.0,-8735.0,12.0,18.0,-6.0,-7.0,-6.0,6.0,8533.0,-11709.0,-6021.0,4719.0,3.0,2.0,6.0,1.0
2022-05-23 14:53:35.148921-07:00,1245.3,779.4,1622.8,1442.4,1153.3,915.2,1804.2,1267.6,3468.6,3471.0,1202.7,898.3,1585.2,3467.4,1317.8,1223.9,3466.1,3478.3,1560.9,2101.7,2744.7,3490.5,1637.9,3486.8,3457.6,3473.4,655.4,848.6,1710.0,1016.8,989.3,892.4,-15.0,2.0,-20.0,7004.0,-6954.0,9734.0,-8733.0,-24.0,20.0,4.0,-5.0,-1.0,16.0,8528.0,-11713.0,-6019.0,4720.0,-39.0,4.0,13.0,1.0
2022-05-23 14:53:35.179358-07:00,1245.3,779.4,1632.2,1428.6,1153.3,911.8,1796.5,1259.6,3468.6,3471.0,1205.3,899.1,1585.2,3464.9,1323.2,1228.4,3474.6,3471.0,1559.9,2101.7,2745.8,3496.6,1637.9,3486.8,3477.1,3473.4,655.4,848.6,1712.9,1023.7,989.3,892.4,0.0,-3.0,-19.0,6999.0,-6958.0,9742.0,-8725.0,-3.0,1.0,-3.0,-3.0,-4.0,3.0,8524.0,-11716.0,-6019.0,4720.0,12.0,0.0,7.0,1.0
2022-05-23 14:53:35.238881-07:00,1254.2,781.1,1619.9,1428.6,1146.3,911.8,1796.5,1259.6,3478.3,3473.4,1202.7,899.1,1580.5,3464.9,1323.2,1228.4,3474.6,3471.0,1559.9,2103.7,2745.8,3499.0,1641.6,3492.9,3477.1,3473.4,655.4,847.8,1712.9,1015.9,989.3,889.8,-4.0,3.0,-18.0,6998.0,-6954.0,9743.0,-8728.0,18.0,1.0,-3.0,-2.0,-1.0,8.0,8527.0,-11714.0,-6018.0,4722.0,-6.0,1.0,4.0,1.0
2022-05-23 14:53:35.268936-07:00,1254.2,781.1,1619.9,1426.8,1146.3,926.2,1808.1,1274.7,3478.3,3473.4,1202.7,890.7,1580.5,3483.2,1315.1,1229.3,3474.6,3471.0,1560.9,2103.7,2734.8,3499.0,1641.6,3492.9,3474.6,3463.7,658.7,847.8,1705.3,1015.9,989.3,889.8,-3.0,-4.0,-11.0,6997.0,-6960.0,9742.0,-8725.0,6.0,-14.0,-11.0,0.0,1.0,5.0,8528.0,-11714.0,-6018.0,4722.0,-13.0,-9.0,1.0,1.0
2022-05-23 14:53:35.388915-07:00,1252.4,784.4,1607.7,1426.8,1141.0,926.2,1808.1,1274.7,3471.0,3472.2,1203.5,890.7,1581.4,3483.2,1315.1,1229.3,3474.6,3471.0,1560.9,2098.7,2734.8,3486.8,1637.9,3490.5,3474.6,3463.7,658.7,844.4,1705.3,1015.1,980.7,911.0,-6.0,9.0,-16.0,6999.0,-6959.0,9743.0,-8723.0,16.0,-11.0,11.0,-6.0,-2.0,10.0,8527.0,-11714.0,-6016.0,4723.0,5.0,-2.0,8.0,1.0
2022-05-23 14:53:35.390280-07:00,1252.4,784.4,1607.7,1428.6,1141.0,915.2,1765.6,1253.3,3471.0,3472.2,1203.5,893.2,1581.4,3467.4,1316.0,1235.5,3475.9,3475.9,1563.7,2098.7,2735.9,3486.8,1637.9,3490.5,3471.0,3473.4,660.3,844.4,1702.4,1015.1,980.7,911.0,-9.0,0.0,-20.0,7000.0,-6960.0,9745.0,-8719.0,-12.0,-11.0,2.0,-5.0,-3.0,10.0,8526.0,-11715.0,-6016.0,4724.0,-7.0,-5.0,3.0,1.0
2022-05-23 14:53:35.479436-07:00,1248.8,772.8,1603.0,1428.6,1140.1,915.2,1765.6,1253.3,3469.8,3471.0,1198.2,893.2,1582.4,3467.4,1316.0,1235.5,3475.9,3475.9,1563.7,2103.7,2735.9,3492.9,1636.0,3488.0,3471.0,3473.4,660.3,843.6,1702.4,1021.1,985.0,889.8,-2.0,2.0,-14.0,7002.0,-6964.0,9746.0,-8714.0,11.0,-10.0,-8.0,-4.0,0.0,5.0,8527.0,-11714.0,-6015.0,4725.0,-5.0,-5.0,1.0,1.0
2022-05-23 14:53:35.480445-07:00,1248.8,772.8,1603.0,1432.3,1116.5,914.4,1781.0,1267.6,3469.8,3471.0,1198.2,894.9,1584.2,3467.4,1315.1,1235.5,3474.6,3478.3,1569.3,2105.8,2746.9,3492.9,1636.0,3488.0,3475.9,3480.7,664.4,842.8,1706.2,1021.1,985.0,889.8,-5.0,4.0,-13.0,7002.0,-6963.0,9749.0,-8711.0,0.0,5.0,13.0,-3.0,0.0,9.0,8527.0,-11714.0,-6015.0,4725.0,-15.0,2.0,6.0,1.0
2022-05-23 14:53:35.538978-07:00,1256.9,781.1,1588.9,1424.1,1116.5,914.4,1781.0,1267.6,3469.8,3478.3,1200.0,911.0,1584.2,3467.4,1315.1,1235.5,3474.6,3478.3,1569.3,2105.8,2731.5,3484.4,1639.8,3489.2,3475.9,3480.7,664.4,842.8,1703.3,1009.0,987.6,892.4,-10.0,-6.0,-16.0,7001.0,-6966.0,9751.0,-8707.0,2.0,-15.0,-14.0,-3.0,-5.0,15.0,8522.0,-11718.0,-6016.0,4723.0,-17.0,4.0,1.0,1.0
2022-05-23 14:53:35.568912-07:00,1256.9,781.1,1588.9,1424.1,1134.9,909.3,1818.7,1267.6,3469.8,3478.3,1200.0,911.0,1582.4,3478.3,1318.7,1224.8,3473.4,3467.4,1560.9,2109.8,2731.5,3484.4,1639.8,3489.2,3469.8,3483.2,650.5,838.6,1703.3,1009.0,987.6,892.4,1.0,0.0,-11.0,7013.0,-6974.0,9740.0,-8703.0,32.0,-40.0,6.0,-1.0,-2.0,3.0,8521.0,-11718.0,-6016.0,4723.0,15.0,-5.0,1.0,1.0
2022-05-23 14:53:35.688848-07:00,1251.5,781.1,1609.6,1427.7,1134.9,909.3,1818.7,1267.6,3473.4,3478.3,1203.5,896.6,1582.4,3478.3,1318.7,1224.8,3473.4,3467.4,1560.9,2109.8,2743.6,3497.8,1636.9,3488.0,3469.8,3483.2,650.5,838.6,1701.4,1010.8,991.0,892.4,-10.0,-1.0,-14.0,7022.0,-6975.0,9732.0,-8704.0,-1.0,-14.0,4.0,-4.0,-3.0,14.0,8523.0,-11715.0,-6017.0,4727.0,-17.0,-7.0,7.0,1.0
2022-05-23 14:53:35.690490-07:00,1251.5,781.1,1609.6,1427.7,1131.4,901.7,1777.2,1269.4,3473.4,3478.3,1203.5,896.6,1578.6,3466.1,1321.4,1227.5,3472.2,3474.6,1559.0,2101.7,2743.6,3497.8,1636.9,3488.0,3478.3,3473.4,648.1,840.3,1701.4,1010.8,991.0,892.4,-1.0,7.0,-11.0,7028.0,-6980.0,9733.0,-8695.0,0.0,-19.0,7.0,-4.0,1.0,3.0,8522.0,-11716.0,-6017.0,4728.0,-6.0,-4.0,0.0,1.0
2022-05-23 14:53:35.748920-07:00,1256.9,773.6,1604.0,1425.0,1131.4,901.7,1777.2,1250.6,3464.9,3473.4,1203.5,895.7,1578.6,3466.1,1321.4,1231.0,3477.1,3474.6,1559.0,2101.7,2740.3,3488.0,1640.7,3486.8,3481.9,3473.4,648.1,840.3,1707.2,1013.3,991.0,897.4,-8.0,-2.0,-9.0,7026.0,-6981.0,9734.0,-8694.0,-8.0,10.0,-12.0,-10.0,-2.0,7.0,8518.0,-11718.0,-6018.0,4727.0,-20.0,5.0,-5.0,1.0
2022-05-23 14:53:35.778821-07:00,1269.4,773.6,1604.0,1425.0,1133.1,914.4,1774.3,1250.6,3475.9,3473.4,1203.5,895.7,1585.2,3474.6,1311.5,1231.0,3477.1,3471.0,1564.6,2106.8,2740.3,3488.0,1640.7,3488.0,3481.9,3477.1,652.2,839.4,1707.2,1013.3,991.0,880.6,-10.0,-1.0,-15.0,7018.0,-6979.0,9738.0,-8698.0,-9.0,18.0,-8.0,-6.0,-5.0,11.0,8516.0,-11721.0,-6018.0,4726.0,-21.0,10.0,1.0,1.0
2022-05-23 14:53:35.838843-07:00,1269.4,777.8,1596.4,1414.9,1133.1,914.4,1774.3,1271.2,3475.9,3467.4,1200.9,899.1,1585.2,3474.6,1311.5,1225.7,3477.1,3471.0,1564.6,2106.8,2738.1,3494.1,1647.3,3488.0,3473.4,3477.1,652.2,839.4,1702.4,1017.6,986.7,880.6,-4.0,1.0,-19.0,7010.0,-6977.0,9747.0,-8696.0,-5.0,25.0,-2.0,1.0,-2.0,8.0,8513.0,-11724.0,-6017.0,4722.0,-12.0,8.0,4.0,1.0
2022-05-23 14:53:35.868750-07:00,1253.3,777.8,1596.4,1414.9,1112.1,910.1,1779.1,1271.2,3471.0,3467.4,1200.9,899.1,1582.4,3478.3,1323.2,1225.7,3477.1,3480.7,1563.7,2097.7,2738.1,3494.1,1647.3,3490.5,3473.4,3472.2,651.4,841.9,1702.4,1017.6,986.7,895.7,0.0,1.0,-14.0,7001.0,-6978.0,9755.0,-8692.0,-11.0,14.0,3.0,0.0,-4.0,10.0,8508.0,-11728.0,-6019.0,4720.0,-12.0,5.0,4.0,1.0
2022-05-23 14:53:35.958842-07:00,1253.3,781.9,1591.7,1404.0,1112.1,910.1,1779.1,1259.6,3471.0,3463.7,1204.4,892.4,1582.4,3478.3,1323.2,1230.2,3478.3,3480.7,1563.7,2097.7,2740.3,3496.6,1636.0,3490.5,3472.2,3472.2,651.4,841.9,1702.4,1019.4,996.2,895.7,-7.0,3.0,-12.0,6998.0,-6975.0,9760.0,-8692.0,-5.0,5.0,7.0,-4.0,-2.0,12.0,8505.0,-11730.0,-6021.0,4718.0,-8.0,0.0,5.0,1.0
2022-05-23 14:53:36.018820-07:00,1254.2,781.9,1591.7,1404.0,1115.6,904.2,1782.9,1259.6,3468.6,3463.7,1204.4,892.4,1580.5,3469.8,1319.6,1230.2,3478.3,3475.9,1559.9,2093.7,2740.3,3496.6,1636.0,3491.7,3472.2,3477.1,650.5,826.0,1702.4,1019.4,996.2,896.6,-10.0,3.0,-15.0,6996.0,-6976.0,9759.0,-8694.0,-5.0,17.0,-13.0,-9.0,0.0,7.0,8504.0,-11731.0,-6021.0,4718.0,-12.0,2.0,-3.0,1.0
2022-05-23 14:53:36.049504-07:00,1254.2,781.1,1584.2,1396.7,1115.6,904.2,1780.1,1258.7,3468.6,3474.6,1194.7,900.0,1580.5,3469.8,1316.0,1232.8,3469.8,3475.9,1559.9,2093.7,2727.1,3497.8,1633.1,3491.7,3469.8,3477.1,650.5,826.0,1708.1,1016.8,979.0,896.6,-9.0,-2.0,-14.0,6989.0,-6974.0,9766.0,-8694.0,-11.0,19.0,-2.0,-6.0,-3.0,8.0,8500.0,-11733.0,-6022.0,4716.0,-14.0,2.0,4.0,1.0
2022-05-23 14:53:36.078907-07:00,1249.7,767.8,1584.2,1396.7,1106.0,903.4,1780.1,1258.7,3467.4,3478.3,1194.7,900.0,1587.1,3473.4,1316.0,1232.8,3469.8,3475.9,1554.3,2104.8,2727.1,3497.8,1635.0,3481.9,3469.8,3477.1,657.0,841.9,1708.1,1016.8,980.7,895.7,1.0,-4.0,-17.0,6987.0,-6974.0,9768.0,-8692.0,5.0,1.0,10.0,-4.0,-1.0,3.0,8497.0,-11736.0,-6024.0,4714.0,3.0,-1.0,4.0,1.0
2022-05-23 14:53:36.138944-07:00,1249.7,767.8,1581.4,1393.9,1106.0,903.4,1757.0,1252.4,3467.4,3478.3,1192.9,894.9,1587.1,3473.4,1309.7,1227.5,3471.0,3473.4,1554.3,2104.8,2735.9,3496.6,1635.0,3481.9,3469.8,3477.1,657.0,841.9,1702.4,1012.5,980.7,895.7,-3.0,3.0,-18.0,6987.0,-6971.0,9769.0,-8694.0,-3.0,2.0,-7.0,-4.0,-1.0,5.0,8496.0,-11737.0,-6024.0,4713.0,-13.0,-2.0,-2.0,1.0
2022-05-23 14:53:36.198822-07:00,1250.6,771.1,1581.4,1393.9,1104.3,901.7,1757.0,1252.4,3478.3,3473.4,1192.9,894.9,1577.7,3467.4,1309.7,1227.5,3471.0,3473.4,1560.9,2100.7,2735.9,3496.6,1636.9,3486.8,3469.8,3477.1,652.2,843.6,1702.4,1012.5,982.5,902.5,-8.0,-3.0,-17.0,6984.0,-6975.0,9769.0,-8693.0,-6.0,-8.0,-11.0,-6.0,-4.0,11.0,8490.0,-11740.0,-6027.0,4712.0,-11.0,-14.0,-9.0,1.0
2022-05-23 14:53:36.258841-07:00,1250.6,771.1,1595.5,1389.4,1104.3,901.7,1777.2,1232.8,3478.3,3473.4,1200.9,893.2,1577.7,3467.4,1316.0,1224.8,3478.3,3478.3,1560.9,2100.7,2745.8,3490.5,1636.9,3486.8,3471.0,3478.3,652.2,843.6,1704.3,1016.8,982.5,902.5,-1.0,0.0,-18.0,6990.0,-6978.0,9763.0,-8693.0,22.0,-19.0,-1.0,-2.0,0.0,3.0,8491.0,-11738.0,-6028.0,4714.0,16.0,-13.0,-7.0,1.0
2022-05-23 14:53:36.288898-07:00,1259.6,795.2,1595.5,1389.4,1097.3,910.1,1777.2,1232.8,3478.3,3469.8,1200.9,893.2,1582.4,3471.0,1316.0,1224.8,3478.3,3478.3,1559.9,2096.7,2745.8,3490.5,1633.1,3488.0,3471.0,3478.3,657.0,836.1,1704.3,1016.8,982.5,884.8,-9.0,-3.0,-16.0,6993.0,-6976.0,9760.0,-8696.0,0.0,-9.0,-7.0,-3.0,-6.0,13.0,8491.0,-11735.0,-6030.0,4718.0,-8.0,-9.0,-9.0,1.0
2022-05-23 14:53:36.318938-07:00,1259.6,795.2,1573.9,1402.1,1097.3,897.4,1760.8,1227.5,3478.3,3469.8,1195.6,896.6,1582.4,3466.1,1309.7,1232.8,3474.6,3468.6,1550.6,2096.7,2727.1,3497.8,1633.1,3488.0,3475.9,3473.4,649.7,836.1,1702.4,1012.5,982.5,884.8,-6.0,6.0,-14.0,6994.0,-6977.0,9757.0,-8697.0,0.0,1.0,-9.0,-3.0,1.0,12.0,8492.0,-11734.0,-6033.0,4717.0,-8.0,-8.0,-11.0,1.0
2022-05-23 14:53:36.409503-07:00,1253.3,771.1,1570.2,1402.1,1108.6,897.4,1760.8,1227.5,3468.6,3469.8,1196.5,896.6,1582.4,3466.1,1309.7,1232.8,3474.6,3468.6,1550.6,2102.7,2727.1,3486.8,1628.4,3486.8,3475.9,3473.4,649.7,838.6,1702.4,1013.3,977.3,900.0,-14.0,-2.0,-16.0,6991.0,-6980.0,9754.0,-8700.0,14.0,1.0,-16.0,-4.0,-8.0,13.0,8492.0,-11733.0,-6037.0,4714.0,0.0,-4.0,-13.0,1.0
2022-05-23 14:53:36.468955-07:00,1253.3,771.1,1570.2,1402.1,1108.6,900.8,1769.5,1260.4,3468.6,3469.8,1196.5,894.1,1582.4,3477.1,1311.5,1233.7,3474.6,3468.6,1559.0,2102.7,2726.0,3486.8,1628.4,3486.8,3469.8,3477.1,658.7,838.6,1698.6,1013.3,977.3,900.0,-8.0,3.0,-20.0,6990.0,-6982.0,9748.0,-8707.0,4.0,-4.0,-16.0,-3.0,-3.0,9.0,8494.0,-11730.0,-6041.0,4711.0,-4.0,-1.0,-12.0,1.0
2022-05-23 14:53:36.470924-07:00,1247.1,788.6,1569.3,1402.1,1108.6,900.8,1769.5,1260.4,3462.5,3457.6,1200.0,894.1,1585.2,3477.1,1311.5,1233.7,3474.6,3468.6,1559.0,2087.6,2726.0,3499.0,1636.0,3496.6,3469.8,3477.1,658.7,843.6,1698.6,1014.2,973.1,892.4,-9.0,-10.0,-16.0,6989.0,-6985.0,9745.0,-8708.0,4.0,-1.0,-9.0,-6.0,-13.0,12.0,8493.0,-11729.0,-6046.0,4708.0,1.0,-9.0,-10.0,1.0
2022-05-23 14:53:36.558845-07:00,1247.1,788.6,1569.3,1401.2,1108.6,898.3,1752.1,1251.5,3462.5,3457.6,1200.0,899.1,1585.2,3461.3,1315.1,1234.6,3477.1,3469.8,1555.3,2087.6,2731.5,3499.0,1636.0,3496.6,3468.6,3471.0,646.5,843.6,1708.1,1014.2,973.1,892.4,0.0,10.0,-19.0,6994.0,-6982.0,9740.0,-8712.0,12.0,-8.0,-3.0,0.0,3.0,8.0,8497.0,-11725.0,-6047.0,4712.0,2.0,-8.0,-10.0,1.0
2022-05-23 14:53:36.588922-07:00,1249.7,767.0,1582.4,1396.7,1097.3,898.3,1752.1,1251.5,3472.2,3473.4,1191.2,899.1,1585.2,3461.3,1315.1,1234.6,3477.1,3469.8,1555.3,2094.7,2739.2,3488.0,1636.9,3484.4,3468.6,3471.0,646.5,839.4,1705.3,1015.9,973.9,886.5,-11.0,-7.0,-12.0,6986.0,-6990.0,9739.0,-8713.0,-15.0,4.0,-28.0,-6.0,-7.0,14.0,8493.0,-11726.0,-6055.0,4705.0,-26.0,-4.0,-19.0,1.0
2022-05-23 14:53:36.619039-07:00,1249.7,767.0,1582.4,1396.7,1079.0,898.3,1785.8,1253.3,3472.2,3473.4,1191.2,899.1,1583.3,3466.1,1316.9,1227.5,3475.9,3481.9,1555.3,2093.7,2739.2,3488.0,1636.9,3484.4,3479.5,3478.3,654.6,838.6,1705.3,1015.9,973.9,886.5,-12.0,0.0,-19.0,6990.0,-6992.0,9734.0,-8714.0,34.0,-17.0,-9.0,-11.0,-4.0,7.0,8500.0,-11721.0,-6056.0,4706.0,24.0,-6.0,-10.0,1.0
2022-05-23 14:53:36.678822-07:00,1245.3,771.1,1558.1,1394.8,1079.0,898.3,1785.8,1253.3,3473.4,3468.6,1188.5,899.1,1583.3,3466.1,1316.9,1227.5,3475.9,3481.9,1555.3,2093.7,2742.5,3490.5,1636.9,3490.5,3479.5,3478.3,654.6,838.6,1711.9,1015.1,980.7,884.8,-5.0,-5.0,-18.0,6991.0,-6992.0,9736.0,-8711.0,2.0,2.0,3.0,-2.0,-3.0,8.0,8501.0,-11720.0,-6055.0,4707.0,0.0,-8.0,-4.0,1.0
2022-05-23 14:53:36.919553-07:00,1245.3,771.1,1558.1,1394.8,1089.5,911.0,1751.2,1248.0,3473.4,3468.6,1188.5,899.1,1578.6,3462.5,1317.8,1223.9,3467.4,3475.9,1540.3,2097.7,2742.5,3490.5,1636.9,3490.5,3467.4,3472.2,633.5,837.7,1711.9,1015.1,980.7,884.8,0.0,3.0,-20.0,6989.0,-6995.0,9737.0,-8709.0,9.0,-11.0,-17.0,2.0,-2.0,10.0,8502.0,-11718.0,-6056.0,4707.0,-1.0,-4.0,-11.0,1.0
2022-05-23 14:53:36.921635-07:00,1252.4,776.9,1569.3,1397.6,1089.5,911.0,1751.2,1248.0,3466.1,3477.1,1191.2,892.4,1578.6,3462.5,1317.8,1223.9,3467.4,3475.9,1540.3,2097.7,2727.1,3489.2,1634.1,3497.8,3467.4,3472.2,633.5,837.7,1711.0,1011.6,983.3,887.3,-7.0,-4.0,-15.0,6989.0,-6999.0,9734.0,-8710.0,18.0,-12.0,4.0,0.0,-3.0,16.0,8505.0,-11714.0,-6061.0,4707.0,11.0,-10.0,-12.0,1.0
2022-05-23 14:53:36.922801-07:00,1252.4,776.9,1569.3,1397.6,1089.5,889.8,1753.1,1256.0,3466.1,3477.1,1191.2,892.4,1586.1,3468.6,1315.1,1231.0,3480.7,3477.1,1555.3,2095.7,2727.1,3489.2,1634.1,3497.8,3481.9,3479.5,653.0,838.6,1711.0,1011.6,983.3,887.3,-5.0,3.0,-14.0,6991.0,-7003.0,9730.0,-8709.0,-1.0,-9.0,-22.0,-4.0,0.0,12.0,8507.0,-11711.0,-6064.0,4706.0,-7.0,-7.0,-14.0,1.0
2022-05-23 14:53:36.923846-07:00,1265.8,778.6,1565.5,1385.7,1089.5,889.8,1753.1,1240.8,3473.4,3467.4,1188.5,895.7,1586.1,3468.6,1315.1,1231.9,3469.8,3477.1,1555.3,2095.7,2734.8,3486.8,1636.9,3496.6,3467.4,3479.5,653.0,838.6,1704.3,1009.0,980.7,878.0,-15.0,0.0,-15.0,6991.0,-7004.0,9729.0,-8709.0,18.0,-14.0,1.0,-5.0,-6.0,13.0,8509.0,-11709.0,-6064.0,4707.0,10.0,0.0,-3.0,1.0
2022-05-23 14:53:36.948872-07:00,1251.5,778.6,1565.5,1385.7,1083.4,909.3,1746.4,1240.8,3472.2,3467.4,1188.5,895.7,1577.7,3467.4,1308.8,1231.9,3469.8,3471.0,1557.1,2103.7,2734.8,3486.8,1636.9,3490.5,3467.4,3474.6,653.0,840.3,1704.3,1009.0,980.7,892.4,14.0,-1.0,-15.0,6985.0,-7004.0,9737.0,-8705.0,-29.0,73.0,11.0,-5.0,0.0,-1.0,8508.0,-11710.0,-6063.0,4707.0,15.0,-4.0,-4.0,1.0
2022-05-23 14:53:36.979419-07:00,1251.5,764.5,1573.9,1377.5,1083.4,909.3,1746.4,1261.3,3472.2,3462.5,1196.5,893.2,1577.7,3467.4,1308.8,1229.3,3474.6,3471.0,1557.1,2103.7,2727.1,3491.7,1629.4,3490.5,3472.2,3474.6,653.0,840.3,1706.2,1007.3,983.3,892.4,23.0,21.0,13.0,6928.0,-6974.0,9820.0,-8681.0,-323.0,241.0,144.0,4.0,23.0,-12.0,8510.0,-11705.0,-6065.0,4713.0,-53.0,-25.0,-16.0,1.0
2022-05-23 14:53:37.098864-07:00,1246.2,764.5,1573.9,1377.5,1153.3,911.0,1755.0,1261.3,3468.6,3462.5,1196.5,893.2,1578.6,3478.3,1314.2,1229.3,3474.6,3469.8,1551.5,2096.7,2727.1,3491.7,1629.4,3486.8,3472.2,3481.9,645.7,841.1,1706.2,1007.3,983.3,885.6,-47.0,62.0,-12.0,6839.0,-6978.0,9992.0,-8552.0,-541.0,84.0,156.0,-6.0,0.0,47.0,8444.0,-11745.0,-6104.0,4684.0,-479.0,22.0,-29.0,1.0
2022-05-23 14:53:37.100244-07:00,1246.2,786.9,1744.5,1373.0,1153.3,911.0,1755.0,1245.3,3468.6,3467.4,1195.6,892.4,1578.6,3478.3,1314.2,1231.0,3488.0,3469.8,1551.5,2096.7,2729.3,3486.8,1630.3,3486.8,3479.5,3481.9,645.7,841.1,1692.9,997.0,966.2,885.6,4.0,-68.0,13.0,6721.0,-7070.0,10138.0,-8396.0,-452.0,63.0,8.0,-6.0,-36.0,-3.0,8298.0,-11858.0,-6163.0,4581.0,-340.0,38.0,-17.0,1.0
2022-05-23 14:53:37.128849-07:00,1260.4,786.9,1744.5,1373.0,1143.6,1007.3,1733.0,1245.3,3468.6,3467.4,1195.6,892.4,1576.8,3475.9,1312.4,1231.0,3488.0,3472.2,1562.7,2085.6,2729.3,3486.8,1630.3,3495.3,3479.5,3478.3,648.9,839.4,1692.9,997.0,966.2,888.2,-26.0,6.0,-25.0,6635.0,-7092.0,10257.0,-8301.0,-462.0,126.0,93.0,0.0,0.0,19.0,8202.0,-11930.0,-6204.0,4511.0,-415.0,43.0,-38.0,1.0
2022-05-23 14:53:37.218843-07:00,1260.4,770.3,1402.1,1167.4,1143.6,1007.3,1736.8,1239.1,3468.6,3466.1,1187.6,890.7,1576.8,3475.9,1307.0,1228.4,3473.4,3467.4,1562.7,2085.6,2722.7,3494.1,1635.0,3495.3,3480.7,3475.9,648.9,839.4,1708.1,993.6,957.7,888.2,7.0,-3.0,-16.0,6557.0,-7172.0,10360.0,-8165.0,-400.0,-44.0,-21.0,2.0,-8.0,-4.0,8079.0,-12022.0,-6254.0,4417.0,-383.0,58.0,-31.0,1.0
2022-05-23 14:53:37.221891-07:00,1241.7,771.1,1402.1,1167.4,1099.9,1069.5,1736.8,1239.1,3466.1,3471.0,1187.6,890.7,1574.9,3461.3,1307.0,1228.4,3473.4,3467.4,1567.4,2093.7,2722.7,3494.1,1638.8,3483.2,3480.7,3475.9,657.9,840.3,1708.1,993.6,959.4,873.0,-10.0,-8.0,-18.0,6555.0,-7254.0,10363.0,-8090.0,-32.0,-263.0,-79.0,-9.0,0.0,-11.0,8016.0,-12075.0,-6274.0,4360.0,-63.0,17.0,-4.0,1.0
2022-05-23 14:53:37.278862-07:00,1241.7,771.1,1314.2,1104.3,1099.9,1069.5,1741.6,1216.8,3466.1,3471.0,1172.6,893.2,1574.9,3461.3,1304.3,1213.3,3472.2,3478.3,1567.4,2093.7,2722.7,3492.9,1638.8,3483.2,3466.1,3467.4,657.9,840.3,1700.5,998.7,959.4,873.0,5.0,-10.0,5.0,6590.0,-7306.0,10339.0,-8046.0,-68.0,-53.0,36.0,-6.0,-12.0,4.0,7998.0,-12082.0,-6286.0,4355.0,-52.0,-44.0,-14.0,1.0
2022-05-23 14:53:37.368839-07:00,1255.1,781.9,1314.2,1104.3,1081.6,1027.1,1741.6,1216.8,3466.1,3473.4,1172.6,893.2,1573.9,3467.4,1304.3,1213.3,3472.2,3478.3,1557.1,2089.6,2722.7,3492.9,1636.0,3488.0,3466.1,3467.4,653.8,835.2,1700.5,998.7,956.8,886.5,-21.0,1.0,6.0,6601.0,-7306.0,10358.0,-8013.0,-83.0,-74.0,79.0,0.0,-4.0,38.0,7982.0,-12087.0,-6297.0,4356.0,-87.0,4.0,4.0,1.0
2022-05-23 14:53:37.489264-07:00,1255.1,781.9,1272.1,1087.7,1081.6,1027.1,1725.3,1231.0,3466.1,3473.4,1164.7,886.5,1573.9,3467.4,1297.2,1222.2,3466.1,3471.0,1557.1,2089.6,2729.3,3486.8,1636.0,3488.0,3473.4,3469.8,653.8,835.2,1702.4,987.6,956.8,886.5,18.0,-10.0,26.0,6606.0,-7342.0,10388.0,-7936.0,-198.0,-22.0,30.0,-2.0,-21.0,5.0,7939.0,-12120.0,-6309.0,4325.0,-134.0,30.0,-3.0,1.0
2022-05-23 14:53:37.490668-07:00,1244.4,788.6,1267.6,1087.7,1087.7,1015.9,1725.3,1231.0,3469.8,3467.4,1163.0,886.5,1581.4,3457.6,1297.2,1222.2,3466.1,3471.0,1547.8,2089.6,2729.3,3488.0,1631.3,3489.2,3473.4,3469.8,648.9,826.0,1702.4,991.9,954.3,884.8,-20.0,-4.0,-10.0,6593.0,-7340.0,10407.0,-7923.0,-23.0,1.0,33.0,-9.0,2.0,12.0,7922.0,-12139.0,-6309.0,4304.0,-84.0,39.0,13.0,1.0
2022-05-23 14:53:37.492323-07:00,1244.4,788.6,1267.6,1076.4,1087.7,1015.1,1715.8,1218.6,3469.8,3467.4,1163.0,885.6,1581.4,3460.1,1294.5,1219.5,3460.1,3460.1,1557.1,2089.6,2759.1,3488.0,1631.3,3489.2,3478.3,3467.4,647.3,826.0,1711.0,991.9,954.3,884.8,1.0,-5.0,-2.0,6586.0,-7350.0,10446.0,-7869.0,-174.0,3.0,71.0,-3.0,-19.0,4.0,7882.0,-12172.0,-6313.0,4278.0,-141.0,16.0,13.0,1.0
2022-05-23 14:53:37.518940-07:00,1249.7,786.9,1245.3,1076.4,1069.5,1015.1,1715.8,1218.6,3473.4,3468.6,1162.1,885.6,1573.9,3460.1,1294.5,1219.5,3460.1,3460.1,1557.1,2105.8,2759.1,3502.7,1634.1,3495.3,3478.3,3467.4,647.3,826.0,1711.0,991.0,949.2,885.6,0.0,7.0,-3.0,6587.0,-7338.0,10446.0,-7879.0,137.0,21.0,-44.0,3.0,-4.0,9.0,7885.0,-12172.0,-6309.0,4279.0,82.0,8.0,6.0,1.0
2022-05-23 14:53:37.759003-07:00,1249.7,786.9,1245.3,1072.1,1069.5,1010.8,1701.4,1189.4,3473.4,3468.6,1162.1,879.7,1573.9,3471.0,1295.4,1213.3,3467.4,3467.4,1561.8,2105.8,2726.0,3502.7,1634.1,3495.3,3474.6,3467.4,660.3,826.0,1702.4,991.0,949.2,885.6,-1.0,-2.0,-9.0,6589.0,-7342.0,10428.0,-7898.0,-56.0,-22.0,-13.0,0.0,-10.0,7.0,7894.0,-12166.0,-6306.0,4284.0,-51.0,-7.0,-4.0,1.0
2022-05-23 14:53:37.761764-07:00,1237.3,776.1,1231.9,1072.1,1065.1,1010.8,1701.4,1189.4,3464.9,3467.4,1161.2,879.7,1577.7,3471.0,1295.4,1213.3,3467.4,3467.4,1561.8,2087.6,2726.0,3497.8,1630.3,3486.8,3474.6,3467.4,660.3,825.2,1702.4,991.0,950.9,886.5,-3.0,12.0,-1.0,6593.0,-7340.0,10425.0,-7900.0,44.0,-1.0,-7.0,-5.0,-6.0,10.0,7898.0,-12163.0,-6304.0,4287.0,22.0,-2.0,-2.0,1.0
2022-05-23 14:53:37.762730-07:00,1237.3,776.1,1231.9,1063.4,1065.1,1012.5,1680.5,1196.5,3464.9,3467.4,1161.2,883.1,1577.7,3474.6,1291.8,1216.8,3472.2,3469.8,1558.1,2087.6,2700.7,3497.8,1630.3,3486.8,3475.9,3469.8,648.9,825.2,1698.6,991.0,950.9,886.5,-13.0,-2.0,-2.0,6591.0,-7343.0,10426.0,-7898.0,-24.0,0.0,5.0,-9.0,-2.0,10.0,7894.0,-12166.0,-6305.0,4286.0,-17.0,5.0,6.0,1.0
2022-05-23 14:53:37.763676-07:00,1247.1,787.7,1240.8,1057.3,1056.5,1012.5,1680.5,1196.5,3471.0,3463.7,1155.0,886.5,1576.8,3474.6,1291.8,1216.8,3472.2,3469.8,1558.1,2087.6,2719.4,3485.6,1631.3,3486.8,3475.9,3469.8,648.9,829.4,1694.8,982.5,950.9,885.6,0.0,0.0,0.0,6586.0,-7343.0,10441.0,-7881.0,-28.0,13.0,24.0,0.0,-5.0,6.0,7880.0,-12176.0,-6308.0,4278.0,-44.0,8.0,8.0,1.0
2022-05-23 14:53:37.764467-07:00,1247.1,787.7,1240.8,1057.3,1062.5,999.6,1677.6,1196.5,3471.0,3463.7,1155.0,886.5,1589.9,3462.5,1298.1,1223.0,3468.6,3464.9,1565.5,2087.6,2719.4,3485.6,1631.3,3486.8,3467.4,3469.8,648.1,826.0,1694.8,982.5,950.9,885.6,-3.0,-1.0,-13.0,6580.0,-7341.0,10453.0,-7873.0,-44.0,4.0,13.0,-3.0,-7.0,4.0,7870.0,-12183.0,-6310.0,4272.0,-49.0,1.0,2.0,1.0
2022-05-23 14:53:37.819427-07:00,1239.1,778.6,1230.2,1072.1,1062.5,999.6,1677.6,1196.5,3466.1,3468.6,1152.4,878.0,1589.9,3462.5,1298.1,1223.0,3468.6,3464.9,1565.5,2087.6,2727.1,3486.8,1628.4,3489.2,3467.4,3469.8,648.1,826.0,1705.3,988.5,945.8,887.3,1.0,-1.0,-1.0,6582.0,-7342.0,10452.0,-7873.0,55.0,2.0,-9.0,-2.0,-1.0,9.0,7867.0,-12185.0,-6312.0,4270.0,28.0,1.0,-1.0,1.0
2022-05-23 14:53:37.879554-07:00,1239.1,778.6,1230.2,1072.1,1056.5,991.0,1691.0,1203.5,3466.1,3468.6,1152.4,878.0,1581.4,3467.4,1290.0,1219.5,3471.0,3478.3,1567.4,2091.6,2727.1,3486.8,1628.4,3489.2,3468.6,3478.3,662.7,817.7,1705.3,988.5,945.8,887.3,-3.0,-2.0,-2.0,6584.0,-7344.0,10453.0,-7867.0,-32.0,-18.0,13.0,-4.0,-8.0,4.0,7862.0,-12188.0,-6313.0,4269.0,-37.0,-3.0,-2.0,1.0
2022-05-23 14:53:37.909243-07:00,1248.0,778.6,1214.2,1063.4,1056.5,991.0,1691.0,1203.5,3475.9,3457.6,1156.8,881.4,1581.4,3467.4,1290.0,1219.5,3471.0,3478.3,1567.4,2091.6,2723.8,3489.2,1627.5,3489.2,3468.6,3478.3,662.7,817.7,1705.3,1004.8,946.6,883.1,-6.0,2.0,-2.0,6588.0,-7347.0,10452.0,-7862.0,3.0,-20.0,-8.0,-2.0,-6.0,5.0,7856.0,-12192.0,-6315.0,4266.0,-18.0,7.0,-2.0,1.0
2022-05-23 14:53:37.969483-07:00,1242.6,778.6,1214.2,1063.4,1053.9,998.7,1687.2,1196.5,3469.8,3457.6,1156.8,881.4,1568.3,3461.3,1290.0,1216.8,3461.3,3467.4,1557.1,2088.6,2723.8,3489.2,1627.5,3492.9,3467.4,3472.2,646.5,825.2,1705.3,1004.8,946.6,882.3,-12.0,0.0,-10.0,6590.0,-7347.0,10454.0,-7858.0,-31.0,-12.0,20.0,-3.0,-9.0,6.0,7847.0,-12198.0,-6318.0,4262.0,-60.0,1.0,1.0,1.0
2022-05-23 14:53:38.029232-07:00,1242.6,780.3,1232.8,1061.7,1053.9,998.7,1687.2,1191.2,3469.8,3467.4,1157.7,879.7,1568.3,3461.3,1290.0,1211.5,3474.6,3467.4,1557.1,2088.6,2720.5,3486.8,1630.3,3492.9,3474.6,3472.2,646.5,825.2,1707.2,985.0,952.6,882.3,-6.0,-2.0,6.0,6594.0,-7346.0,10464.0,-7841.0,-2.0,0.0,22.0,0.0,-15.0,18.0,7834.0,-12206.0,-6322.0,4255.0,-20.0,3.0,1.0,1.0
2022-05-23 14:53:38.058906-07:00,1239.9,780.3,1232.8,1061.7,1057.3,995.3,1661.5,1191.2,3473.4,3467.4,1157.7,879.7,1577.7,3464.9,1290.9,1211.5,3474.6,3474.6,1561.8,2089.6,2720.5,3486.8,1630.3,3485.6,3474.6,3471.0,653.0,824.4,1707.2,985.0,952.6,888.2,6.0,11.0,-20.0,6629.0,-7331.0,10448.0,-7848.0,72.0,-53.0,51.0,-4.0,7.0,-6.0,7852.0,-12195.0,-6316.0,4265.0,60.0,6.0,7.0,1.0
2022-05-23 14:53:38.179558-07:00,1239.9,785.2,1259.6,1081.6,1057.3,995.3,1661.5,1190.3,3473.4,3471.0,1148.9,878.9,1577.7,3464.9,1290.9,1215.1,3473.4,3474.6,1561.8,2089.6,2722.7,3491.7,1632.2,3485.6,3467.4,3471.0,653.0,824.4,1687.2,975.6,944.1,888.2,-9.0,-12.0,5.0,6630.0,-7327.0,10462.0,-7832.0,-62.0,14.0,26.0,0.0,-10.0,11.0,7845.0,-12199.0,-6320.0,4260.0,-50.0,1.0,-8.0,1.0
2022-05-23 14:53:38.180798-07:00,1241.7,785.2,1259.6,1081.6,1051.3,996.2,1676.7,1190.3,3461.3,3471.0,1148.9,878.9,1583.3,3467.4,1289.1,1215.1,3473.4,3472.2,1566.5,2113.9,2722.7,3491.7,1632.2,3486.8,3467.4,3480.7,644.9,816.9,1687.2,975.6,944.1,889.8,-3.0,13.0,-9.0,6629.0,-7326.0,10475.0,-7816.0,-72.0,7.0,25.0,1.0,-10.0,15.0,7839.0,-12204.0,-6320.0,4254.0,-45.0,11.0,-4.0,1.0
2022-05-23 14:53:38.209905-07:00,1241.7,783.6,1246.2,1074.7,1051.3,996.2,1676.7,1185.9,3461.3,3473.4,1157.7,875.5,1583.3,3467.4,1289.1,1209.7,3473.4,3472.2,1566.5,2113.9,2719.4,3495.3,1628.4,3486.8,3466.1,3480.7,644.9,816.9,1696.7,985.0,945.8,889.8,-3.0,5.0,-4.0,6616.0,-7326.0,10493.0,-7803.0,-43.0,21.0,11.0,1.0,-4.0,11.0,7824.0,-12214.0,-6325.0,4246.0,-51.0,7.0,2.0,1.0
2022-05-23 14:53:38.268971-07:00,1244.4,809.4,1246.2,1074.7,1049.6,973.9,1680.5,1185.9,3473.4,3462.5,1157.7,875.5,1577.7,3467.4,1292.7,1209.7,3473.4,3474.6,1571.1,2090.6,2719.4,3495.3,1624.7,3486.8,3466.1,3477.1,652.2,817.7,1696.7,985.0,933.9,885.6,-3.0,5.0,-10.0,6611.0,-7326.0,10499.0,-7799.0,1.0,16.0,8.0,-9.0,-8.0,0.0,7816.0,-12220.0,-6327.0,4241.0,-24.0,7.0,-5.0,1.0
2022-05-23 14:53:38.328475-07:00,1244.4,809.4,1224.8,1048.7,1049.6,973.9,1692.9,1187.6,3473.4,3462.5,1151.5,879.7,1577.7,3467.4,1307.0,1209.7,3467.4,3478.3,1571.1,2090.6,2717.2,3491.7,1624.7,3486.8,3475.9,3473.4,652.2,817.7,1702.4,985.9,933.9,885.6,-16.0,-2.0,-5.0,6590.0,-7341.0,10528.0,-7764.0,-182.0,-4.0,30.0,-8.0,-8.0,4.0,7785.0,-12238.0,-6342.0,4222.0,-143.0,8.0,-21.0,1.0
2022-05-23 14:53:38.359017-07:00,1231.9,791.9,1224.8,1048.7,1038.3,985.0,1692.9,1187.6,3469.8,3467.4,1151.5,879.7,1578.6,3471.0,1307.0,1209.7,3467.4,3478.3,1570.2,2078.5,2717.2,3491.7,1627.5,3489.2,3475.9,3473.4,649.7,820.2,1702.4,985.9,944.1,887.3,4.0,-7.0,-2.0,6590.0,-7344.0,10556.0,-7723.0,-26.0,1.0,62.0,1.0,-7.0,-1.0,7766.0,-12251.0,-6349.0,4212.0,-13.0,5.0,8.0,1.0
2022-05-23 14:53:38.419708-07:00,1231.9,791.9,1206.2,1050.4,1038.3,985.0,1684.3,1195.6,3469.8,3467.4,1154.2,880.6,1578.6,3471.0,1286.4,1211.5,3473.4,3475.9,1570.2,2078.5,2729.3,3494.1,1627.5,3489.2,3471.0,3483.2,649.7,820.2,1708.1,982.5,944.1,887.3,0.0,6.0,-4.0,6580.0,-7333.0,10573.0,-7718.0,-64.0,36.0,7.0,7.0,-5.0,8.0,7757.0,-12257.0,-6352.0,4206.0,-61.0,10.0,2.0,1.0
2022-05-23 14:53:38.508986-07:00,1250.6,793.5,1206.2,1050.4,1040.1,966.2,1684.3,1195.6,3466.1,3466.1,1154.2,880.6,1582.4,3467.4,1286.4,1211.5,3473.4,3475.9,1562.7,2094.7,2729.3,3494.1,1619.0,3486.8,3471.0,3483.2,657.0,819.4,1708.1,982.5,943.2,879.7,-8.0,3.0,-7.0,6578.0,-7327.0,10570.0,-7730.0,89.0,3.0,-16.0,-5.0,3.0,3.0,7756.0,-12257.0,-6353.0,4205.0,48.0,-2.0,-1.0,1.0
2022-05-23 14:53:38.511006-07:00,1250.6,793.5,1198.2,1054.8,1040.1,968.8,1659.6,1201.8,3466.1,3466.1,1145.4,881.4,1582.4,3478.3,1281.0,1217.7,3474.6,3473.4,1558.1,2094.7,2720.5,3492.9,1619.0,3486.8,3477.1,3473.4,645.7,819.4,1705.3,984.2,943.2,879.7,-6.0,-5.0,-4.0,6572.0,-7333.0,10572.0,-7727.0,-38.0,6.0,-11.0,-6.0,-10.0,2.0,7751.0,-12259.0,-6359.0,4200.0,-45.0,-8.0,-15.0,1.0
2022-05-23 14:53:38.568912-07:00,1241.7,796.9,1198.2,1054.8,1038.3,968.8,1659.6,1201.8,3468.6,3474.6,1144.5,881.4,1577.7,3478.3,1281.0,1217.7,3474.6,3473.4,1558.1,2100.7,2720.5,3492.9,1624.7,3484.4,3477.1,3473.4,645.7,818.5,1705.3,981.6,939.0,880.6,-6.0,3.0,-2.0,6577.0,-7330.0,10559.0,-7743.0,86.0,-5.0,-28.0,-6.0,-7.0,4.0,7757.0,-12254.0,-6359.0,4202.0,50.0,1.0,-2.0,1.0
2022-05-23 14:53:38.629508-07:00,1241.7,796.9,1198.2,1043.5,1038.3,963.7,1652.0,1188.5,3468.6,3474.6,1144.5,874.7,1577.7,3473.4,1285.5,1214.2,3475.9,3471.0,1577.7,2100.7,2726.0,3492.9,1624.7,3484.4,3467.4,3478.3,651.4,818.5,1702.4,981.6,939.0,880.6,-7.0,4.0,-11.0,6577.0,-7330.0,10558.0,-7744.0,-66.0,-6.0,15.0,-1.0,-7.0,7.0,7759.0,-12253.0,-6359.0,4205.0,-49.0,-4.0,-4.0,1.0
2022-05-23 14:53:38.719552-07:00,1242.6,797.7,1206.2,1043.5,1047.0,963.7,1652.0,1188.5,3478.3,3464.9,1143.6,874.7,1572.1,3473.4,1285.5,1214.2,3475.9,3471.0,1577.7,2093.7,2726.0,3485.6,1624.7,3491.7,3467.4,3478.3,651.4,816.9,1702.4,985.0,939.8,889.8,-4.0,13.0,0.0,6581.0,-7324.0,10552.0,-7754.0,89.0,16.0,-27.0,0.0,-3.0,10.0,7756.0,-12254.0,-6360.0,4204.0,65.0,-1.0,-9.0,1.0
2022-05-23 14:53:38.720742-07:00,1242.6,797.7,1206.2,1035.7,1047.0,961.1,1659.6,1181.5,3478.3,3464.9,1143.6,874.7,1572.1,3462.5,1279.2,1215.1,3473.4,3467.4,1579.6,2093.7,2716.1,3485.6,1624.7,3491.7,3474.6,3468.6,647.3,816.9,1702.4,985.0,939.8,889.8,-4.0,-5.0,-2.0,6577.0,-7329.0,10544.0,-7765.0,-21.0,11.0,-20.0,0.0,-11.0,9.0,7765.0,-12247.0,-6361.0,4205.0,-26.0,-6.0,-18.0,1.0
2022-05-23 14:53:38.838889-07:00,1239.9,796.0,1200.0,1035.7,1043.5,961.1,1659.6,1181.5,3473.4,3457.6,1140.1,874.7,1577.7,3462.5,1279.2,1215.1,3473.4,3467.4,1579.6,2086.6,2716.1,3488.0,1627.5,3483.2,3474.6,3468.6,647.3,820.2,1702.4,979.9,938.1,889.0,-6.0,5.0,-4.0,6577.0,-7327.0,10531.0,-7784.0,63.0,16.0,-38.0,1.0,-6.0,7.0,7769.0,-12244.0,-6365.0,4203.0,29.0,-8.0,-12.0,1.0
2022-05-23 14:53:38.868867-07:00,1239.9,796.0,1200.0,1041.8,1034.0,950.9,1643.5,1185.0,3473.4,3457.6,1140.1,869.6,1583.3,3473.4,1281.0,1209.7,3466.1,3469.8,1579.6,2088.6,2724.9,3488.0,1627.5,3483.2,3478.3,3473.4,652.2,817.7,1698.6,979.9,938.1,889.0,-10.0,0.0,-14.0,6577.0,-7325.0,10519.0,-7802.0,26.0,2.0,-11.0,-4.0,-5.0,4.0,7778.0,-12236.0,-6366.0,4207.0,18.0,-9.0,-10.0,1.0
2022-05-23 14:53:38.870180-07:00,1246.2,781.9,1191.2,1043.5,1034.0,950.9,1643.5,1185.0,3468.6,3480.7,1140.1,871.3,1583.3,3473.4,1281.0,1209.7,3466.1,3469.8,1579.6,2088.6,2722.7,3497.8,1624.7,3497.8,3478.3,3473.4,652.2,817.7,1702.4,984.2,943.2,889.8,-3.0,7.0,-7.0,6577.0,-7324.0,10519.0,-7803.0,-6.0,13.0,1.0,-1.0,-2.0,9.0,7781.0,-12231.0,-6371.0,4209.0,-14.0,-14.0,-14.0,1.0
2022-05-23 14:53:38.928805-07:00,1246.2,781.9,1191.2,1043.5,1030.6,958.5,1650.2,1170.9,3468.6,3480.7,1140.1,871.3,1574.9,3467.4,1283.7,1215.1,3467.4,3475.9,1580.5,2097.7,2722.7,3497.8,1624.7,3497.8,3478.3,3474.6,657.0,811.0,1702.4,984.2,943.2,889.8,-7.0,1.0,-12.0,6575.0,-7322.0,10519.0,-7806.0,14.0,-1.0,-7.0,-2.0,-5.0,7.0,7778.0,-12229.0,-6378.0,4207.0,0.0,1.0,-17.0,1.0
2022-05-23 14:53:38.958806-07:00,1238.2,785.2,1208.9,1044.4,1030.6,958.5,1650.2,1170.9,3471.0,3471.0,1141.0,877.2,1574.9,3467.4,1283.7,1215.1,3467.4,3475.9,1580.5,2097.7,2726.0,3484.4,1620.9,3491.7,3478.3,3474.6,657.0,811.0,1706.2,976.5,950.0,890.7,-7.0,-2.0,-5.0,6576.0,-7317.0,10520.0,-7810.0,36.0,11.0,10.0,-1.0,-9.0,11.0,7780.0,-12227.0,-6383.0,4204.0,40.0,-3.0,-11.0,1.0
2022-05-23 14:53:39.079396-07:00,1238.2,785.2,1208.9,1044.4,1032.3,955.1,1653.9,1184.1,3471.0,3471.0,1141.0,877.2,1570.2,3468.6,1290.9,1209.7,3473.4,3475.9,1578.6,2085.6,2726.0,3484.4,1620.9,3491.7,3473.4,3488.0,647.3,818.5,1706.2,976.5,950.0,890.7,-9.0,-5.0,-14.0,6586.0,-7309.0,10510.0,-7822.0,22.0,-11.0,4.0,-3.0,-9.0,7.0,7791.0,-12219.0,-6380.0,4209.0,5.0,-9.0,2.0,1.0
2022-05-23 14:53:39.080446-07:00,1248.0,791.9,1210.6,1047.8,1032.3,955.1,1653.9,1184.1,3467.4,3478.3,1139.2,878.9,1570.2,3468.6,1290.9,1209.7,3473.4,3475.9,1578.6,2085.6,2718.3,3507.5,1634.1,3486.8,3473.4,3488.0,647.3,818.5,1697.6,978.2,943.2,888.2,2.0,18.0,-4.0,6594.0,-7305.0,10508.0,-7821.0,43.0,-3.0,6.0,0.0,0.0,8.0,7793.0,-12217.0,-6380.0,4212.0,43.0,-1.0,-10.0,1.0
2022-05-23 14:53:39.109583-07:00,1245.3,791.9,1210.6,1047.8,1037.5,960.2,1640.7,1197.4,3466.1,3478.3,1139.2,878.9,1581.4,3477.1,1286.4,1209.7,3478.3,3479.5,1565.5,2099.7,2718.3,3507.5,1634.1,3486.8,3468.6,3481.9,648.9,813.5,1697.6,978.2,943.2,891.5,-10.0,6.0,-11.0,6596.0,-7305.0,10493.0,-7839.0,35.0,-5.0,-53.0,-8.0,-15.0,7.0,7803.0,-12209.0,-6383.0,4212.0,12.0,-1.0,-23.0,1.0
2022-05-23 14:53:39.169610-07:00,1245.3,781.9,1206.2,1050.4,1037.5,960.2,1640.7,1176.2,3466.1,3467.4,1142.7,878.9,1581.4,3477.1,1286.4,1212.4,3472.2,3479.5,1565.5,2099.7,2727.1,3496.6,1633.1,3486.8,3467.4,3481.9,648.9,813.5,1704.3,986.7,944.9,891.5,-10.0,-2.0,-10.0,6598.0,-7313.0,10462.0,-7873.0,99.0,-6.0,-74.0,-6.0,-5.0,6.0,7815.0,-12198.0,-6387.0,4215.0,52.0,-11.0,-19.0,1.0
2022-05-23 14:53:39.259011-07:00,1246.2,781.9,1206.2,1050.4,1041.8,945.8,1625.6,1176.2,3468.6,3467.4,1142.7,878.9,1576.8,3464.9,1281.0,1212.4,3472.2,3466.1,1579.6,2087.6,2727.1,3496.6,1633.1,3497.8,3467.4,3473.4,646.5,821.0,1704.3,986.7,944.9,888.2,4.0,0.0,-3.0,6606.0,-7317.0,10440.0,-7891.0,50.0,-22.0,-15.0,6.0,-4.0,8.0,7827.0,-12186.0,-6389.0,4224.0,43.0,-13.0,-8.0,1.0
2022-05-23 14:53:39.348888-07:00,1246.2,784.4,1215.1,1061.7,1041.8,945.8,1625.6,1170.9,3468.6,3466.1,1140.1,873.8,1576.8,3464.9,1281.0,1209.7,3480.7,3466.1,1579.6,2087.6,2716.1,3492.9,1619.0,3497.8,3475.9,3473.4,646.5,821.0,1693.8,988.5,946.6,888.2,0.0,10.0,-14.0,6617.0,-7311.0,10418.0,-7917.0,70.0,-9.0,-38.0,4.0,-3.0,9.0,7845.0,-12172.0,-6387.0,4236.0,51.0,-12.0,-11.0,1.0
2022-05-23 14:53:39.350778-07:00,1243.5,784.4,1215.1,1061.7,1027.1,948.3,1626.5,1170.9,3467.4,3466.1,1140.1,873.8,1566.5,3472.2,1283.7,1209.7,3480.7,3477.1,1562.7,2086.6,2716.1,3492.9,1619.0,3492.9,3475.9,3473.4,645.7,834.4,1693.8,988.5,946.6,878.0,-6.0,-4.0,-1.0,6619.0,-7312.0,10400.0,-7937.0,57.0,7.0,-36.0,0.0,-12.0,15.0,7854.0,-12164.0,-6386.0,4242.0,32.0,-6.0,-5.0,1.0
2022-05-23 14:53:39.378941-07:00,1243.5,791.9,1204.4,1067.7,1027.1,948.3,1631.3,1166.5,3467.4,3478.3,1142.7,882.3,1566.5,3472.2,1289.1,1209.7,3474.6,3478.3,1562.7,2086.6,2715.0,3496.6,1624.7,3492.9,3475.9,3467.4,645.7,834.4,1695.7,987.6,942.4,878.0,-11.0,6.0,-13.0,6623.0,-7310.0,10378.0,-7965.0,68.0,15.0,-38.0,-5.0,0.0,12.0,7866.0,-12156.0,-6382.0,4248.0,42.0,3.0,-3.0,1.0
2022-05-23 14:53:39.409214-07:00,1231.0,784.4,1204.4,1067.7,1029.7,946.6,1631.3,1166.5,3478.3,3468.6,1142.7,882.3,1578.6,3473.4,1289.1,1209.7,3474.6,3478.3,1582.4,2090.6,2715.0,3496.6,1621.8,3478.3,3475.9,3467.4,646.5,816.9,1695.7,987.6,948.3,889.0,-9.0,-2.0,-8.0,6618.0,-7309.0,10381.0,-7966.0,8.0,13.0,-4.0,-5.0,-10.0,9.0,7865.0,-12157.0,-6383.0,4248.0,-10.0,0.0,6.0,1.0
2022-05-23 14:53:39.468857-07:00,1231.0,784.4,1219.5,1066.0,1029.7,946.6,1650.2,1161.2,3478.3,3468.6,1138.4,874.7,1578.6,3473.4,1278.3,1217.7,3467.4,3471.0,1582.4,2090.6,2720.5,3490.5,1621.8,3478.3,3473.4,3472.2,646.5,816.9,1699.5,987.6,948.3,889.0,0.0,5.0,-20.0,6629.0,-7296.0,10372.0,-7979.0,77.0,-2.0,23.0,-1.0,7.0,0.0,7879.0,-12149.0,-6375.0,4257.0,81.0,3.0,10.0,1.0
2022-05-23 14:53:39.528877-07:00,1238.2,781.1,1219.5,1066.0,1026.3,950.9,1650.2,1161.2,3466.1,3468.6,1138.4,874.7,1591.7,3467.4,1278.3,1217.7,3467.4,3471.0,1573.0,2084.6,2720.5,3490.5,1617.1,3488.0,3473.4,3472.2,646.5,816.0,1699.5,987.6,947.5,893.2,-1.0,2.0,-2.0,6629.0,-7296.0,10372.0,-7980.0,17.0,2.0,-28.0,3.0,-12.0,10.0,7882.0,-12147.0,-6373.0,4259.0,17.0,-2.0,2.0,1.0
2022-05-23 14:53:39.589156-07:00,1238.2,781.1,1223.0,1062.5,1026.3,950.9,1641.6,1177.9,3466.1,3468.6,1140.1,876.4,1591.7,3467.4,1279.2,1207.1,3466.1,3467.4,1573.0,2084.6,2730.4,3490.5,1617.1,3488.0,3478.3,3478.3,646.5,816.0,1702.4,986.7,947.5,893.2,-6.0,5.0,-12.0,6632.0,-7291.0,10356.0,-8003.0,56.0,13.0,-19.0,0.0,-4.0,14.0,7895.0,-12139.0,-6368.0,4266.0,25.0,0.0,-2.0,1.0
2022-05-23 14:53:39.648869-07:00,1236.4,780.3,1223.0,1062.5,1026.3,956.8,1641.6,1177.9,3467.4,3469.8,1140.1,876.4,1573.9,3475.9,1279.2,1207.1,3466.1,3467.4,1580.5,2090.6,2730.4,3490.5,1624.7,3489.2,3478.3,3478.3,645.7,816.0,1702.4,986.7,950.9,872.1,-5.0,-6.0,-9.0,6630.0,-7294.0,10356.0,-8002.0,5.0,3.0,1.0,-3.0,-7.0,9.0,7892.0,-12141.0,-6369.0,4265.0,4.0,-5.0,5.0,1.0
2022-05-23 14:53:39.678871-07:00,1236.4,780.3,1225.7,1066.0,1026.3,946.6,1631.3,1184.1,3467.4,3469.8,1138.4,880.6,1573.9,3471.0,1281.9,1213.3,3472.2,3468.6,1573.9,2090.6,2728.2,3499.0,1624.7,3489.2,3479.5,3474.6,642.4,816.0,1711.9,979.9,950.9,872.1,-2.0,4.0,-10.0,6629.0,-7290.0,10356.0,-8006.0,17.0,20.0,6.0,-3.0,-6.0,4.0,7894.0,-12140.0,-6366.0,4268.0,13.0,4.0,12.0,1.0
2022-05-23 14:53:39.709197-07:00,1246.2,785.2,1215.1,1066.0,1023.7,946.6,1631.3,1184.1,3473.4,3467.4,1138.4,880.6,1572.1,3471.0,1281.9,1213.3,3472.2,3468.6,1573.9,2086.6,2728.2,3507.5,1632.2,3496.6,3479.5,3474.6,642.4,821.0,1711.9,988.5,949.2,889.8,-13.0,-8.0,-21.0,6627.0,-7277.0,10356.0,-8020.0,53.0,11.0,1.0,-7.0,-6.0,4.0,7905.0,-12134.0,-6357.0,4277.0,55.0,-4.0,16.0,1.0
2022-05-23 14:53:39.798932-07:00,1246.2,785.2,1215.1,1072.1,1023.7,953.4,1645.4,1175.3,3473.4,3467.4,1138.4,875.5,1572.1,3473.4,1283.7,1210.6,3472.2,3473.4,1573.0,2086.6,2705.1,3507.5,1632.2,3496.6,3474.6,3466.1,641.6,821.0,1704.3,988.5,949.2,889.8,-6.0,-17.0,20.0,6641.0,-7255.0,10361.0,-8022.0,101.0,35.0,83.0,0.0,-18.0,12.0,7936.0,-12113.0,-6337.0,4309.0,206.0,-25.0,50.0,1.0
2022-05-23 14:53:39.800693-07:00,1247.1,777.8,1443.3,1072.1,1026.3,953.4,1645.4,1175.3,3471.0,3461.3,1141.0,875.5,1576.8,3473.4,1283.7,1210.6,3472.2,3473.4,1573.0,2086.6,2705.1,3499.0,1619.9,3488.0,3474.6,3466.1,641.6,821.9,1704.3,990.2,941.5,885.6,-50.0,-145.0,21.0,6649.0,-7136.0,10369.0,-8111.0,548.0,273.0,149.0,-9.0,-67.0,26.0,8046.0,-12038.0,-6268.0,4416.0,609.0,-69.0,159.0,1.0
2022-05-23 14:53:39.889561-07:00,1247.1,777.8,1443.3,1310.6,1026.3,949.2,1930.2,1345.8,3471.0,3461.3,1141.0,876.4,1576.8,3461.3,1285.5,1214.2,3488.0,3479.5,1573.0,2086.6,2709.5,3499.0,1619.9,3488.0,3484.4,3474.6,642.4,821.9,1706.2,990.2,941.5,885.6,-3.0,75.0,-53.0,6782.0,-6947.0,10225.0,-8345.0,673.0,77.0,-34.0,-17.0,29.0,-14.0,8238.0,-11901.0,-6156.0,4586.0,507.0,-70.0,110.0,1.0
2022-05-23 14:53:39.918891-07:00,1241.7,780.3,1755.0,1518.0,1083.4,949.2,1930.2,1345.8,3471.0,3464.9,1191.2,889.8,1577.7,3461.3,1285.5,1214.2,3488.0,3479.5,1573.0,2090.6,2728.2,3497.8,1622.8,3489.2,3484.4,3474.6,642.4,836.1,1701.4,1008.2,959.4,888.2,40.0,64.0,-72.0,6866.0,-6898.0,10114.0,-8451.0,312.0,-143.0,-15.0,25.0,2.0,0.0,8307.0,-11839.0,-6127.0,4659.0,155.0,-86.0,2.0,1.0
2022-05-23 14:53:39.978941-07:00,1241.7,780.3,1755.0,1518.0,1161.2,954.3,1960.8,1404.9,3471.0,3464.9,1191.2,889.8,1576.8,3480.7,1290.0,1221.3,3474.6,3478.3,1575.8,2092.6,2728.2,3497.8,1622.8,3489.2,3472.2,3478.3,650.5,835.2,1701.4,1008.2,959.4,888.2,-44.0,-11.0,-6.0,6904.0,-6922.0,10052.0,-8475.0,209.0,-216.0,-118.0,5.0,-10.0,45.0,8318.0,-11827.0,-6124.0,4675.0,53.0,9.0,18.0,1.0
2022-05-23 14:53:40.008911-07:00,1239.9,767.8,1694.8,1484.7,1161.2,954.3,1960.8,1404.9,3472.2,3469.8,1181.5,891.5,1576.8,3480.7,1290.0,1221.3,3474.6,3478.3,1575.8,2092.6,2722.7,3485.6,1622.8,3495.3,3472.2,3478.3,650.5,835.2,1699.5,993.6,959.4,884.8,32.0,23.0,-6.0,6984.0,-6955.0,9946.0,-8506.0,154.0,-112.0,-60.0,-3.0,14.0,-17.0,8344.0,-11808.0,-6112.0,4694.0,72.0,-24.0,-5.0,1.0
2022-05-23 14:53:40.098860-07:00,1239.9,767.8,1694.8,1484.7,1141.0,930.5,1944.0,1380.3,3472.2,3469.8,1181.5,891.5,1573.9,3464.9,1291.8,1216.0,3466.1,3472.2,1570.2,2094.7,2722.7,3485.6,1622.8,3495.3,3473.4,3471.0,648.1,831.9,1699.5,993.6,959.4,884.8,-32.0,-6.0,0.0,6979.0,-6953.0,9934.0,-8527.0,9.0,33.0,-30.0,-4.0,-13.0,39.0,8346.0,-11800.0,-6118.0,4702.0,-20.0,-11.0,7.0,1.0
2022-05-23 14:53:40.100640-07:00,1249.7,772.0,1650.2,1477.3,1141.0,930.5,1944.0,1380.3,3473.4,3468.6,1183.2,891.5,1573.9,3464.9,1291.8,1216.0,3466.1,3472.2,1570.2,2094.7,2731.5,3491.7,1621.8,3491.7,3473.4,3471.0,648.1,831.9,1698.6,994.5,962.0,883.9,3.0,4.0,-4.0,6990.0,-6949.0,9920.0,-8537.0,64.0,7.0,25.0,-1.0,-1.0,7.0,8354.0,-11795.0,-6110.0,4710.0,41.0,1.0,10.0,1.0
2022-05-23 14:53:40.188897-07:00,1249.7,772.0,1650.2,1477.3,1124.4,950.9,1919.3,1392.1,3473.4,3468.6,1183.2,891.5,1581.4,3462.5,1291.8,1219.5,3475.9,3473.4,1559.9,2089.6,2731.5,3491.7,1621.8,3491.7,3474.6,3477.1,640.8,827.7,1698.6,994.5,962.0,883.9,-8.0,11.0,-12.0,6994.0,-6939.0,9914.0,-8549.0,22.0,7.0,-22.0,-2.0,0.0,14.0,8362.0,-11790.0,-6107.0,4713.0,-7.0,9.0,-2.0,1.0
2022-05-23 14:53:40.248929-07:00,1250.6,775.3,1639.8,1455.2,1124.4,950.9,1919.3,1381.2,3473.4,3467.4,1178.8,895.7,1581.4,3462.5,1291.8,1215.1,3481.9,3473.4,1559.9,2089.6,2739.2,3496.6,1619.9,3483.2,3477.1,3477.1,640.8,827.7,1706.2,1000.5,964.5,886.5,-6.0,-9.0,-6.0,6975.0,-6943.0,9921.0,-8553.0,-17.0,55.0,-19.0,-2.0,-12.0,15.0,8354.0,-11798.0,-6108.0,4706.0,-19.0,11.0,3.0,1.0
2022-05-23 14:53:40.251724-07:00,1241.7,775.3,1639.8,1455.2,1115.6,924.5,1895.8,1381.2,3472.2,3467.4,1178.8,895.7,1573.0,3467.4,1281.9,1215.1,3481.9,3474.6,1552.5,2091.6,2739.2,3496.6,1619.9,3491.7,3477.1,3478.3,640.8,823.5,1706.2,1000.5,964.5,883.9,-13.0,9.0,-15.0,6969.0,-6931.0,9927.0,-8562.0,6.0,15.0,-7.0,-6.0,0.0,21.0,8361.0,-11795.0,-6103.0,4706.0,-13.0,9.0,6.0,1.0
2022-05-23 14:53:40.309216-07:00,1241.7,778.6,1627.5,1437.8,1115.6,924.5,1895.8,1368.5,3472.2,3467.4,1184.1,892.4,1573.0,3467.4,1281.9,1211.5,3473.4,3474.6,1552.5,2091.6,2717.2,3497.8,1619.0,3491.7,3475.9,3478.3,640.8,823.5,1703.3,999.6,970.5,883.9,0.0,-5.0,-14.0,6966.0,-6936.0,9925.0,-8562.0,35.0,-2.0,-13.0,-5.0,-6.0,5.0,8360.0,-11796.0,-6103.0,4707.0,29.0,-4.0,3.0,1.0
2022-05-23 14:53:40.398854-07:00,1246.2,778.6,1627.5,1437.8,1100.8,918.6,1920.3,1368.5,3463.7,3467.4,1184.1,892.4,1578.6,3478.3,1288.2,1211.5,3473.4,3473.4,1557.1,2083.6,2717.2,3497.8,1619.0,3492.9,3475.9,3479.5,647.3,825.2,1703.3,999.6,970.5,881.4,-9.0,6.0,-12.0,6971.0,-6930.0,9915.0,-8573.0,29.0,-1.0,-19.0,-2.0,-1.0,12.0,8370.0,-11789.0,-6099.0,4712.0,1.0,-4.0,-1.0,1.0
2022-05-23 14:53:40.400727-07:00,1246.2,780.3,1623.7,1420.4,1100.8,918.6,1920.3,1372.1,3463.7,3467.4,1180.6,887.3,1578.6,3478.3,1288.2,1209.7,3472.2,3473.4,1557.1,2083.6,2706.2,3500.2,1616.2,3492.9,3472.2,3479.5,647.3,825.2,1697.6,991.9,962.0,881.4,-3.0,-1.0,-5.0,6966.0,-6936.0,9914.0,-8574.0,-12.0,8.0,-13.0,-3.0,-4.0,13.0,8365.0,-11792.0,-6100.0,4710.0,-32.0,3.0,1.0,1.0
2022-05-23 14:53:40.459547-07:00,1241.7,771.1,1623.7,1420.4,1125.2,925.4,1887.9,1372.1,3467.4,3474.6,1180.6,887.3,1577.7,3467.4,1290.9,1209.7,3472.2,3468.6,1555.3,2083.6,2706.2,3500.2,1621.8,3492.9,3472.2,3480.7,640.8,828.5,1697.6,991.9,961.1,892.4,-7.0,0.0,-7.0,6959.0,-6933.0,9920.0,-8575.0,0.0,23.0,-13.0,-3.0,-6.0,18.0,8360.0,-11797.0,-6102.0,4707.0,-13.0,7.0,7.0,1.0
2022-05-23 14:53:40.518862-07:00,1241.7,771.1,1602.1,1437.8,1125.2,925.4,1885.0,1375.7,3467.4,3474.6,1175.3,892.4,1577.7,3467.4,1290.9,1215.1,3474.6,3469.8,1555.3,2083.6,2729.3,3489.2,1621.8,3492.9,3474.6,3475.9,640.8,828.5,1700.5,987.6,961.1,892.4,-7.0,-3.0,-15.0,6952.0,-6931.0,9922.0,-8580.0,10.0,4.0,-4.0,-3.0,-3.0,9.0,8363.0,-11797.0,-6098.0,4705.0,-1.0,13.0,3.0,1.0
2022-05-23 14:53:40.548965-07:00,1249.7,772.0,1602.1,1437.8,1121.7,925.4,1885.0,1375.7,3468.6,3457.6,1175.3,892.4,1577.7,3464.9,1290.9,1215.1,3474.6,3469.8,1564.6,2082.6,2729.3,3489.2,1618.1,3494.1,3474.6,3475.9,645.7,825.2,1700.5,987.6,957.7,885.6,-1.0,8.0,-12.0,6949.0,-6933.0,9924.0,-8578.0,1.0,-5.0,-21.0,-4.0,0.0,5.0,8364.0,-11797.0,-6097.0,4704.0,-17.0,-7.0,-2.0,1.0
2022-05-23 14:53:40.609276-07:00,1249.7,772.0,1610.5,1427.7,1121.7,925.4,1887.9,1382.1,3468.6,3457.6,1179.7,892.4,1577.7,3464.9,1284.6,1217.7,3471.0,3472.2,1564.6,2082.6,2721.6,3488.0,1618.1,3494.1,3478.3,3474.6,645.7,825.2,1703.3,987.6,957.7,885.6,-5.0,-9.0,-9.0,6949.0,-6940.0,9922.0,-8576.0,4.0,-9.0,1.0,-1.0,-7.0,7.0,8359.0,-11799.0,-6100.0,4704.0,-2.0,-14.0,1.0,1.0
2022-05-23 14:53:40.698957-07:00,1239.1,757.1,1610.5,1427.7,1109.5,925.4,1887.9,1382.1,3462.5,3462.5,1179.7,892.4,1572.1,3467.4,1284.6,1217.7,3471.0,3472.2,1561.8,2095.7,2721.6,3488.0,1618.1,3491.7,3478.3,3474.6,657.9,824.4,1703.3,987.6,953.4,883.9,-5.0,12.0,-13.0,6958.0,-6938.0,9913.0,-8580.0,37.0,-32.0,-18.0,0.0,-3.0,13.0,8364.0,-11793.0,-6099.0,4712.0,13.0,-10.0,-8.0,1.0
2022-05-23 14:53:40.759727-07:00,1239.1,757.1,1610.5,1415.8,1109.5,925.4,1881.1,1364.8,3462.5,3462.5,1173.5,889.0,1572.1,3467.4,1289.1,1218.6,3467.4,3466.1,1561.8,2095.7,2721.6,3484.4,1618.1,3491.7,3466.1,3475.9,657.9,824.4,1699.5,990.2,953.4,883.9,-11.0,-7.0,-7.0,6957.0,-6944.0,9906.0,-8584.0,14.0,0.0,-15.0,-5.0,-8.0,15.0,8367.0,-11789.0,-6102.0,4713.0,1.0,-9.0,-5.0,1.0
2022-05-23 14:53:40.761951-07:00,1230.2,776.9,1602.1,1415.8,1104.3,916.9,1881.1,1364.8,3464.9,3466.1,1165.6,889.0,1566.5,3475.9,1289.1,1218.6,3467.4,3466.1,1559.9,2074.5,2721.6,3486.8,1611.5,3480.7,3466.1,3475.9,651.4,825.2,1699.5,995.3,956.8,889.8,-4.0,0.0,-6.0,6958.0,-6944.0,9906.0,-8584.0,-1.0,4.0,-2.0,-2.0,-5.0,13.0,8369.0,-11787.0,-6100.0,4716.0,1.0,3.0,6.0,1.0
2022-05-23 14:53:40.818897-07:00,1230.2,776.9,1602.1,1414.0,1104.3,921.1,1875.2,1353.1,3464.9,3466.1,1165.6,889.0,1566.5,3467.4,1281.0,1220.4,3478.3,3466.1,1551.5,2074.5,2718.3,3486.8,1611.5,3480.7,3480.7,3473.4,645.7,825.2,1701.4,995.3,956.8,889.8,-4.0,2.0,-11.0,6954.0,-6941.0,9909.0,-8586.0,-6.0,24.0,-4.0,0.0,-4.0,10.0,8370.0,-11787.0,-6100.0,4716.0,-9.0,7.0,4.0,1.0
2022-05-23 14:53:40.848998-07:00,1230.2,767.0,1591.7,1414.0,1101.7,921.1,1875.2,1353.1,3483.2,3468.6,1178.8,889.0,1573.9,3467.4,1281.0,1220.4,3478.3,3466.1,1551.5,2093.7,2718.3,3502.7,1611.5,3497.8,3480.7,3473.4,645.7,824.4,1701.4,988.5,956.0,883.9,-2.0,-2.0,-11.0,6952.0,-6938.0,9911.0,-8587.0,25.0,5.0,-2.0,0.0,-2.0,11.0,8372.0,-11786.0,-6099.0,4716.0,22.0,0.0,0.0,1.0
2022-05-23 14:53:40.909407-07:00,1230.2,767.0,1591.7,1412.2,1101.7,911.8,1874.2,1349.4,3483.2,3468.6,1178.8,888.2,1573.9,3469.8,1277.4,1217.7,3474.6,3473.4,1563.7,2093.7,2717.2,3502.7,1611.5,3497.8,3473.4,3472.2,644.0,824.4,1709.1,988.5,956.0,883.9,-12.0,-1.0,-12.0,6954.0,-6935.0,9905.0,-8595.0,-5.0,16.0,-17.0,-7.0,-11.0,13.0,8374.0,-11784.0,-6098.0,4718.0,-14.0,-5.0,-7.0,1.0
2022-05-23 14:53:40.999473-07:00,1232.8,770.3,1601.1,1412.2,1098.2,911.8,1874.2,1349.4,3468.6,3466.1,1178.8,888.2,1574.9,3469.8,1277.4,1217.7,3474.6,3473.4,1563.7,2087.6,2717.2,3486.8,1611.5,3494.1,3473.4,3472.2,644.0,821.9,1709.1,989.3,950.9,884.8,0.0,4.0,-7.0,6951.0,-6937.0,9904.0,-8598.0,3.0,24.0,-15.0,-4.0,-4.0,11.0,8371.0,-11787.0,-6098.0,4717.0,-17.0,-1.0,-3.0,1.0
2022-05-23 14:53:41.000488-07:00,1232.8,770.3,1601.1,1421.3,1093.8,908.4,1855.7,1339.5,3468.6,3466.1,1178.8,889.0,1573.0,3473.4,1286.4,1209.7,3469.8,3473.4,1563.7,2087.6,2729.3,3486.8,1611.5,3494.1,3483.2,3473.4,646.5,821.9,1700.5,989.3,950.9,884.8,-6.0,-9.0,-14.0,6935.0,-6937.0,9902.0,-8611.0,5.0,21.0,-26.0,-6.0,-3.0,10.0,8368.0,-11789.0,-6099.0,4717.0,-6.0,3.0,-3.0,1.0
2022-05-23 14:53:41.088855-07:00,1233.7,769.5,1585.2,1417.6,1093.8,908.4,1855.7,1339.5,3464.9,3477.1,1167.4,881.4,1573.0,3473.4,1286.4,1209.7,3469.8,3473.4,1563.7,2087.6,2721.6,3492.9,1623.7,3492.9,3483.2,3473.4,646.5,821.9,1694.8,997.0,960.2,881.4,-1.0,9.0,-21.0,6932.0,-6934.0,9900.0,-8619.0,17.0,-12.0,1.0,0.0,0.0,5.0,8371.0,-11786.0,-6098.0,4719.0,8.0,-1.0,1.0,1.0
2022-05-23 14:53:41.118929-07:00,1233.7,769.5,1585.2,1417.6,1083.4,905.9,1851.8,1344.9,3464.9,3477.1,1167.4,881.4,1575.8,3462.5,1284.6,1217.7,3473.4,3475.9,1557.1,2086.6,2721.6,3492.9,1623.7,3492.9,3477.1,3479.5,648.1,818.5,1694.8,997.0,960.2,881.4,-1.0,-3.0,-16.0,6937.0,-6938.0,9896.0,-8617.0,22.0,-27.0,-11.0,-2.0,-5.0,4.0,8372.0,-11785.0,-6098.0,4720.0,13.0,-12.0,-9.0,1.0
2022-05-23 14:53:41.148994-07:00,1243.5,767.8,1582.4,1413.1,1083.4,905.9,1851.8,1344.9,3467.4,3456.4,1175.3,888.2,1575.8,3462.5,1284.6,1217.7,3473.4,3475.9,1557.1,2086.6,2722.7,3488.0,1615.2,3486.8,3477.1,3479.5,648.1,818.5,1702.4,979.9,963.7,891.5,-12.0,8.0,-12.0,6947.0,-6939.0,9885.0,-8621.0,5.0,-34.0,-8.0,-2.0,2.0,16.0,8375.0,-11779.0,-6102.0,4725.0,0.0,-17.0,-10.0,1.0
2022-05-23 14:53:41.209524-07:00,1243.5,767.8,1582.4,1413.1,1082.5,905.9,1848.9,1354.0,3467.4,3456.4,1175.3,888.2,1576.8,3457.6,1282.8,1216.8,3475.9,3474.6,1561.8,2088.6,2722.7,3488.0,1615.2,3486.8,3467.4,3477.1,640.8,821.9,1702.4,979.9,963.7,891.5,-7.0,-4.0,-9.0,6953.0,-6948.0,9880.0,-8614.0,-8.0,-16.0,5.0,-4.0,-6.0,12.0,8372.0,-11779.0,-6105.0,4726.0,-5.0,-7.0,-1.0,1.0
2022-05-23 14:53:41.298846-07:00,1249.7,768.7,1588.0,1414.9,1082.5,905.9,1848.9,1354.0,3471.0,3467.4,1171.8,884.8,1576.8,3457.6,1282.8,1216.8,3475.9,3474.6,1561.8,2088.6,2726.0,3485.6,1617.1,3492.9,3467.4,3477.1,640.8,821.9,1701.4,986.7,956.0,888.2,-3.0,15.0,-14.0,6960.0,-6948.0,9874.0,-8616.0,23.0,-3.0,-13.0,-3.0,3.0,7.0,8377.0,-11775.0,-6103.0,4729.0,16.0,5.0,-6.0,1.0
2022-05-23 14:53:41.300613-07:00,1246.2,768.7,1588.0,1414.9,1073.8,905.9,1854.7,1357.6,3469.8,3467.4,1171.8,884.8,1570.2,3466.1,1287.3,1216.0,3473.4,3475.9,1556.2,2081.6,2726.0,3485.6,1617.1,3497.8,3471.0,3477.1,635.1,817.7,1701.4,986.7,956.0,886.5,-8.0,-1.0,-16.0,6956.0,-6951.0,9870.0,-8621.0,1.0,3.0,-15.0,-1.0,-4.0,13.0,8376.0,-11776.0,-6105.0,4727.0,-7.0,4.0,-9.0,1.0
