Time,P0,P1,P2,P3,P4,P5,P6,P7,P8,P9,P10,P11,P12,P13,P14,P15,P16,P17,P18,P19,P20,P21,P22,P23,P24,P25,P26,P27,P28,P29,P30,P31,ECG,AX0,AY0,AZ0,QW0,QX0,QY0,QZ0,GX0,GY0,GZ0,AX1,AY1,AZ1,QW1,QX1,QY1,QZ1,GX1,GY1,GZ1
2022-05-23 15:44:15.932189-07:00,2047.4,607.6,1368.5,1592.7,1164.7,1390.3,1618.1,1604.9,3426.2,3433.4,1712.9,1481.0,1616.2,3429.8,1230.2,1736.8,3421.3,3422.5,731.5,1354.0,920.3,641.6,1263.1,1872.3,3427.4,3421.3,867.9,1041.8,1251.5,1640.7,1325.0,1045.2,-17.0,-29.0,18.0,11827.0,9495.0,5178.0,3405.0,241.0,236.0,74.0,-3.0,-28.0,-3.0,13802.0,8561.0,-937.0,-1938.0,296.0,68.0,12.0,1.0
2022-05-23 15:44:15.962671-07:00,2052.4,607.6,1363.9,1592.7,1167.4,1390.3,1618.1,1604.9,3418.9,3434.6,1718.6,1481.0,1616.2,3429.8,1230.2,1736.8,3421.3,3422.5,731.5,1367.6,920.3,638.4,1251.5,1863.5,3427.4,3421.3,867.9,1056.5,1251.5,1645.4,1324.1,1053.0,-1.0,3.0,-4.0,11717.0,9567.0,5256.0,3463.0,152.0,274.0,135.0,8.0,4.0,-13.0,13727.0,8687.0,-936.0,-1914.0,271.0,44.0,18.0,1.0
2022-05-23 15:44:16.022578-07:00,2052.4,607.6,1363.9,1587.1,1167.4,1393.0,1613.4,1539.4,3418.9,3434.6,1718.6,1493.0,1616.2,3432.2,1227.5,1725.3,3420.1,3420.1,737.3,1367.6,919.4,638.4,1251.5,1863.5,3427.4,3426.2,878.0,1056.5,1255.1,1645.4,1324.1,1053.0,11.0,34.0,-15.0,11627.0,9628.0,5318.0,3502.0,296.0,69.0,15.0,22.0,23.0,-17.0,13672.0,8783.0,-915.0,-1880.0,261.0,98.0,-3.0,1.0
2022-05-23 15:44:16.082477-07:00,2048.4,607.6,1362.1,1587.1,1163.0,1393.0,1613.4,1539.4,3429.8,3421.3,1722.4,1493.0,1614.3,3432.2,1227.5,1725.3,3420.1,3420.1,737.3,1365.7,919.4,639.2,1250.6,1856.7,3427.4,3426.2,878.0,1035.7,1255.1,1642.6,1325.0,1051.3,-1.0,37.0,9.0,11585.0,9655.0,5356.0,3510.0,-162.0,109.0,-38.0,17.0,0.0,1.0,13662.0,8802.0,-903.0,-1869.0,-78.0,12.0,4.0,1.0
2022-05-23 15:44:16.112903-07:00,2048.4,607.6,1362.1,1589.9,1166.5,1388.5,1618.1,1528.3,3429.8,3421.3,1722.4,1481.9,1619.0,3431.0,1223.0,1728.2,3416.5,3422.5,735.6,1357.6,914.4,639.2,1250.6,1856.7,3429.8,3439.5,859.5,1045.2,1254.2,1642.6,1325.0,1051.3,-12.0,1.0,26.0,11611.0,9566.0,5441.0,3537.0,-71.0,338.0,-256.0,17.0,-1.0,24.0,13685.0,8769.0,-884.0,-1866.0,-30.0,81.0,-28.0,1.0
2022-05-23 15:44:16.173382-07:00,2038.4,598.7,1359.4,1589.9,1166.5,1388.5,1618.1,1528.3,3429.8,3424.9,1717.7,1473.6,1619.0,3431.0,1223.0,1728.2,3416.5,3422.5,735.6,1357.6,908.4,634.3,1259.6,1856.7,3429.8,3439.5,859.5,1045.2,1249.7,1637.9,1328.7,1049.6,26.0,-7.0,41.0,11576.0,9506.0,5610.0,3548.0,81.0,460.0,-257.0,30.0,-13.0,-2.0,13674.0,8795.0,-833.0,-1849.0,88.0,160.0,-46.0,1.0
2022-05-23 15:44:16.232565-07:00,2038.4,598.7,1359.4,1589.9,1173.5,1394.8,1598.3,1559.0,3429.8,3424.9,1717.7,1473.6,1616.2,3427.4,1215.1,1725.3,3421.3,3421.3,725.8,1338.6,908.4,634.3,1259.6,1856.7,3434.6,3420.1,852.8,1041.8,1249.7,1637.9,1328.7,1049.6,-34.0,-25.0,44.0,11472.0,9505.0,5807.0,3570.0,413.0,273.0,-133.0,20.0,-56.0,41.0,13632.0,8872.0,-768.0,-1818.0,241.0,219.0,-50.0,1.0
2022-05-23 15:44:16.262591-07:00,2020.4,610.0,1353.1,1583.3,1173.5,1394.8,1598.3,1559.0,3423.7,3426.2,1694.8,1470.9,1616.2,3427.4,1215.1,1725.3,3421.3,3421.3,725.8,1338.6,908.4,633.5,1293.6,1865.4,3434.6,3420.1,852.8,1041.8,1251.5,1626.5,1322.3,1041.8,-21.0,-43.0,-38.0,11365.0,9590.0,5930.0,3485.0,308.0,9.0,-206.0,-16.0,-30.0,-11.0,13592.0,8950.0,-699.0,-1762.0,129.0,217.0,42.0,1.0
2022-05-23 15:44:16.322751-07:00,2020.4,610.0,1353.1,1583.3,1152.4,1393.9,1598.3,1548.7,3423.7,3426.2,1694.8,1470.9,1611.5,3429.8,1211.5,1731.1,3418.9,3429.8,724.9,1333.2,908.4,633.5,1293.6,1865.4,3439.5,3434.6,857.0,1042.6,1251.5,1626.5,1322.3,1041.8,-17.0,-74.0,19.0,11271.0,9706.0,5992.0,3360.0,881.0,-74.0,4.0,-1.0,-23.0,-18.0,13542.0,9047.0,-658.0,-1666.0,418.0,242.0,151.0,1.0
2022-05-23 15:44:16.352747-07:00,2067.5,643.2,1359.4,1590.8,1152.4,1393.9,1598.3,1901.6,3418.9,3429.8,1705.3,1479.2,1611.5,3429.8,1211.5,1757.9,3426.2,3429.8,724.9,1333.2,908.4,655.4,1281.0,1864.5,3434.6,3434.6,857.0,1042.6,1260.4,1653.9,1335.0,1045.2,-16.0,82.0,-16.0,11035.0,9961.0,6072.0,3252.0,701.0,163.0,28.0,9.0,37.0,-14.0,13423.0,9239.0,-657.0,-1573.0,457.0,89.0,104.0,1.0
2022-05-23 15:44:16.412752-07:00,2134.1,643.2,1359.4,1590.8,1157.7,1373.0,1726.3,1901.6,3422.5,3429.8,1705.3,1479.2,1625.6,3432.2,1238.2,1757.9,3426.2,3429.8,734.8,1344.9,908.4,655.4,1281.0,1869.3,3434.6,3428.6,859.5,1043.5,1260.4,1653.9,1335.0,1041.8,-42.0,36.0,-10.0,10920.0,10066.0,6142.0,3185.0,277.0,-62.0,-94.0,17.0,21.0,10.0,13362.0,9330.0,-668.0,-1546.0,125.0,3.0,7.0,1.0
2022-05-23 15:44:16.502712-07:00,2134.1,662.7,1347.6,1605.8,1157.7,1373.0,1726.3,1983.6,3422.5,3429.8,1711.0,1493.0,1625.6,3432.2,1238.2,1754.1,3432.2,3429.8,734.8,1344.9,912.7,660.3,1280.1,1869.3,3428.6,3428.6,859.5,1043.5,1254.2,1660.6,1330.5,1041.8,27.0,-18.0,-23.0,10909.0,10132.0,6096.0,3101.0,101.0,-215.0,67.0,4.0,18.0,-64.0,13348.0,9346.0,-688.0,-1559.0,37.0,-110.0,-13.0,1.0
2022-05-23 15:44:16.532696-07:00,2140.2,662.7,1347.6,1605.8,1155.0,1366.6,1680.5,1983.6,3422.5,3429.8,1711.0,1493.0,1621.8,3431.0,1233.7,1754.1,3432.2,3424.9,736.5,1337.7,912.7,660.3,1280.1,1873.2,3428.6,3428.6,848.6,1042.6,1254.2,1660.6,1330.5,1041.8,-30.0,-9.0,-4.0,10872.0,10200.0,6056.0,3083.0,245.0,-109.0,137.0,-1.0,0.0,17.0,13315.0,9382.0,-746.0,-1604.0,180.0,-169.0,-21.0,1.0
2022-05-23 15:44:16.562544-07:00,2140.2,652.2,1340.4,1596.4,1155.0,1366.6,1680.5,1964.7,3422.5,3428.6,1699.5,1479.2,1621.8,3431.0,1233.7,1753.1,3424.9,3424.9,736.5,1337.7,912.7,655.4,1269.4,1873.2,3428.6,3428.6,848.6,1042.6,1251.5,1642.6,1319.6,1041.8,-16.0,31.0,34.0,10787.0,10348.0,5980.0,3041.0,412.0,-177.0,248.0,-8.0,10.0,11.0,13248.0,9464.0,-814.0,-1641.0,292.0,-159.0,-10.0,1.0
2022-05-23 15:44:16.622633-07:00,2124.0,652.2,1340.4,1596.4,1154.2,1363.9,1619.9,1964.7,3431.0,3428.6,1699.5,1479.2,1635.0,3426.2,1223.9,1753.1,3424.9,3427.4,734.8,1338.6,912.7,655.4,1269.4,1875.2,3428.6,3428.6,845.3,1040.1,1251.5,1642.6,1319.6,1046.1,0.0,63.0,54.0,10776.0,10410.0,5900.0,3022.0,-167.0,-118.0,30.0,26.0,-3.0,33.0,13241.0,9464.0,-863.0,-1675.0,-162.0,-113.0,-17.0,1.0
2022-05-23 15:44:16.652691-07:00,2124.0,652.2,1309.7,1593.6,1154.2,1363.9,1602.1,1932.1,3431.0,3432.2,1691.9,1473.6,1635.0,3426.2,1215.1,1745.4,3426.2,3426.2,734.8,1338.6,913.5,652.2,1258.7,1875.2,3429.8,3434.6,845.3,1040.1,1251.5,1634.1,1317.8,1046.1,0.0,-8.0,37.0,10851.0,10362.0,5856.0,3007.0,-144.0,-107.0,-7.0,16.0,0.0,3.0,13284.0,9396.0,-877.0,-1707.0,-131.0,-63.0,-28.0,1.0
2022-05-23 15:44:16.712437-07:00,2129.0,655.4,1309.7,1593.6,1149.8,1352.1,1602.1,1932.1,3426.2,3431.0,1691.9,1473.6,1625.6,3423.7,1215.1,1745.4,3426.2,3426.2,734.8,1331.4,913.5,652.2,1281.0,1867.4,3429.8,3434.6,838.6,1042.6,1251.5,1634.1,1308.8,1041.8,-16.0,0.0,21.0,10857.0,10368.0,5827.0,3017.0,77.0,-42.0,95.0,20.0,-7.0,17.0,13289.0,9385.0,-892.0,-1722.0,42.0,-49.0,-7.0,1.0
2022-05-23 15:44:16.802803-07:00,2129.0,655.4,1307.0,1575.8,1149.8,1352.1,1578.6,1872.3,3426.2,3431.0,1663.4,1480.1,1625.6,3423.7,1208.0,1730.1,3429.8,3429.8,734.8,1331.4,909.3,657.0,1281.0,1867.4,3421.3,3435.8,838.6,1042.6,1251.5,1623.7,1308.8,1041.8,1.0,13.0,26.0,10868.0,10391.0,5763.0,3022.0,-79.0,-119.0,88.0,8.0,-13.0,1.0,13290.0,9379.0,-912.0,-1732.0,-79.0,-37.0,7.0,1.0
2022-05-23 15:44:16.832386-07:00,2131.1,653.8,1307.0,1575.8,1147.1,1338.6,1578.6,1872.3,3429.8,3423.7,1663.4,1480.1,1629.4,3420.1,1208.0,1730.1,3429.8,3429.8,727.4,1339.5,909.3,657.0,1290.0,1887.9,3421.3,3435.8,831.1,1048.7,1251.5,1623.7,1307.0,1040.1,-18.0,5.0,41.0,10854.0,10425.0,5751.0,2978.0,359.0,-33.0,-22.0,-3.0,1.0,11.0,13280.0,9391.0,-919.0,-1738.0,273.0,19.0,-25.0,1.0
2022-05-23 15:44:16.863044-07:00,2131.1,653.8,1295.4,1577.7,1147.1,1338.6,1550.6,1848.9,3429.8,3423.7,1653.9,1461.7,1629.4,3420.1,1203.5,1732.0,3418.9,3428.6,727.4,1339.5,908.4,657.0,1290.0,1887.9,3422.5,3426.2,831.1,1048.7,1252.4,1622.8,1307.0,1040.1,5.0,34.0,31.0,10767.0,10510.0,5778.0,2944.0,241.0,60.0,32.0,16.0,6.0,7.0,13203.0,9502.0,-916.0,-1732.0,212.0,38.0,-22.0,1.0
2022-05-23 15:44:16.923094-07:00,2122.0,653.0,1292.7,1577.7,1145.4,1337.7,1550.6,1848.9,3423.7,3434.6,1651.1,1461.7,1630.3,3427.4,1203.5,1732.0,3418.9,3428.6,737.3,1329.6,908.4,655.4,1291.8,1870.3,3422.5,3426.2,831.9,1047.0,1252.4,1619.0,1303.4,1042.6,4.0,-10.0,6.0,10761.0,10497.0,5801.0,2966.0,-122.0,87.0,-18.0,14.0,-7.0,0.0,13188.0,9526.0,-908.0,-1720.0,-71.0,27.0,12.0,1.0
2022-05-23 15:44:16.952739-07:00,2122.0,653.0,1292.7,1567.4,1145.4,1339.5,1524.5,1837.2,3423.7,3434.6,1651.1,1455.2,1630.3,3424.9,1194.7,1729.1,3429.8,3420.1,732.3,1329.6,905.0,655.4,1291.8,1870.3,3434.6,3423.7,832.7,1047.0,1260.4,1619.0,1303.4,1042.6,-14.0,5.0,-5.0,10784.0,10462.0,5802.0,3004.0,-96.0,28.0,24.0,5.0,-8.0,0.0,13209.0,9498.0,-905.0,-1707.0,-73.0,2.0,28.0,1.0
2022-05-23 15:44:17.012882-07:00,2120.9,649.7,1281.0,1567.4,1148.0,1339.5,1524.5,1837.2,3432.2,3431.0,1648.3,1455.2,1624.7,3424.9,1194.7,1729.1,3429.8,3420.1,732.3,1330.5,905.0,648.1,1303.4,1872.3,3434.6,3423.7,832.7,1042.6,1260.4,1623.7,1310.6,1043.5,-13.0,22.0,11.0,10805.0,10446.0,5789.0,3008.0,-45.0,-28.0,-13.0,0.0,9.0,0.0,13225.0,9477.0,-904.0,-1705.0,-37.0,12.0,-11.0,1.0
2022-05-23 15:44:17.072710-07:00,2120.9,649.7,1281.0,1559.0,1148.0,1337.7,1527.3,1802.3,3432.2,3431.0,1648.3,1452.5,1624.7,3434.6,1201.8,1718.6,3423.7,3421.3,729.9,1330.5,905.9,648.1,1303.4,1872.3,3432.2,3423.7,824.4,1042.6,1254.2,1623.7,1310.6,1043.5,-8.0,2.0,14.0,10804.0,10445.0,5802.0,2994.0,79.0,-7.0,-38.0,6.0,-4.0,11.0,13224.0,9480.0,-893.0,-1706.0,48.0,24.0,-20.0,1.0
2022-05-23 15:44:17.102652-07:00,2123.0,653.8,1281.9,1559.0,1144.5,1337.7,1527.3,1802.3,3426.2,3424.9,1636.0,1452.5,1618.1,3434.6,1201.8,1718.6,3423.7,3421.3,729.9,1326.8,905.9,649.7,1307.0,1866.4,3432.2,3423.7,824.4,1041.8,1254.2,1619.9,1301.6,1036.6,-5.0,-23.0,7.0,10804.0,10444.0,5804.0,2990.0,-27.0,-6.0,29.0,9.0,-12.0,-4.0,13220.0,9485.0,-888.0,-1704.0,-9.0,-4.0,10.0,1.0
2022-05-23 15:44:17.162828-07:00,2123.0,653.8,1281.9,1560.9,1142.7,1331.4,1525.5,1789.7,3426.2,3424.9,1636.0,1453.4,1627.5,3421.3,1199.1,1719.6,3427.4,3424.9,730.7,1329.6,909.3,649.7,1307.0,1866.4,3429.8,3429.8,823.5,1039.2,1254.2,1619.9,1301.6,1036.6,1.0,1.0,1.0,10807.0,10443.0,5785.0,3018.0,-61.0,45.0,78.0,10.0,1.0,-5.0,13223.0,9481.0,-900.0,-1698.0,-26.0,-33.0,31.0,1.0
2022-05-23 15:44:17.252871-07:00,2140.2,642.4,1286.4,1563.7,1142.7,1331.4,1525.5,1789.7,3432.2,3424.9,1642.6,1448.8,1627.5,3421.3,1199.1,1719.6,3427.4,3424.9,730.7,1329.6,907.6,647.3,1302.5,1874.2,3429.8,3429.8,823.5,1039.2,1252.4,1611.5,1300.7,1033.2,-10.0,23.0,0.0,10814.0,10445.0,5762.0,3031.0,-3.0,-53.0,21.0,3.0,8.0,3.0,13229.0,9472.0,-915.0,-1700.0,-15.0,-21.0,-10.0,1.0
2022-05-23 15:44:17.255415-07:00,2140.2,642.4,1286.4,1563.7,1139.2,1335.0,1505.1,1786.8,3432.2,3424.9,1642.6,1448.8,1625.6,3429.8,1201.8,1721.5,3437.0,3429.8,726.6,1328.7,907.6,647.3,1302.5,1874.2,3433.4,3429.8,823.5,1042.6,1252.4,1611.5,1300.7,1033.2,-5.0,1.0,18.0,10820.0,10441.0,5761.0,3025.0,7.0,14.0,-10.0,15.0,0.0,10.0,13229.0,9470.0,-917.0,-1708.0,10.0,-14.0,-18.0,1.0
2022-05-23 15:44:17.312778-07:00,2124.0,649.7,1282.8,1558.1,1139.2,1335.0,1505.1,1786.8,3418.9,3429.8,1647.3,1449.7,1625.6,3429.8,1201.8,1721.5,3437.0,3429.8,726.6,1328.7,902.5,644.0,1307.0,1865.4,3433.4,3429.8,823.5,1042.6,1250.6,1608.7,1307.0,1042.6,-4.0,-9.0,8.0,10821.0,10438.0,5760.0,3035.0,-2.0,8.0,12.0,7.0,-28.0,2.0,13229.0,9468.0,-923.0,-1714.0,3.0,-12.0,1.0,1.0
2022-05-23 15:44:17.372616-07:00,2124.0,649.7,1282.8,1558.1,1148.0,1339.5,1509.7,1782.9,3418.9,3429.8,1647.3,1449.7,1631.3,3431.0,1197.4,1715.8,3431.0,3422.5,734.0,1326.8,902.5,644.0,1307.0,1865.4,3431.0,3424.9,825.2,1040.9,1250.6,1608.7,1307.0,1042.6,-19.0,7.0,3.0,10818.0,10441.0,5761.0,3032.0,-1.0,-10.0,10.0,-1.0,7.0,8.0,13229.0,9468.0,-926.0,-1715.0,-15.0,-17.0,0.0,1.0
2022-05-23 15:44:17.402762-07:00,2108.8,638.4,1273.9,1558.1,1148.0,1339.5,1509.7,1782.9,3424.9,3418.9,1642.6,1448.8,1631.3,3431.0,1197.4,1715.8,3431.0,3422.5,734.0,1326.8,911.0,646.5,1302.5,1865.4,3431.0,3424.9,825.2,1040.9,1260.4,1613.4,1298.1,1039.2,-7.0,3.0,12.0,10827.0,10433.0,5758.0,3036.0,-18.0,2.0,11.0,12.0,-2.0,5.0,13233.0,9460.0,-931.0,-1720.0,-4.0,-11.0,-6.0,1.0
2022-05-23 15:44:17.462524-07:00,2101.7,638.4,1273.9,1558.1,1143.6,1325.0,1495.8,1767.5,3429.8,3418.9,1642.6,1448.8,1617.1,3427.4,1192.9,1718.6,3423.7,3423.7,729.9,1330.5,911.0,646.5,1302.5,1861.5,3426.2,3433.4,820.2,1034.0,1260.4,1613.4,1298.1,1039.2,6.0,0.0,13.0,10828.0,10432.0,5750.0,3049.0,-31.0,24.0,34.0,11.0,-18.0,2.0,13234.0,9458.0,-938.0,-1723.0,-15.0,-17.0,10.0,1.0
2022-05-23 15:44:17.522619-07:00,2101.7,635.9,1280.1,1555.3,1143.6,1325.0,1495.8,1772.3,3429.8,3439.5,1636.0,1447.0,1617.1,3427.4,1192.9,1714.8,3424.9,3423.7,729.9,1330.5,907.6,644.9,1296.3,1861.5,3432.2,3433.4,820.2,1034.0,1253.3,1608.7,1290.9,1039.2,-14.0,17.0,11.0,10832.0,10435.0,5740.0,3045.0,9.0,-49.0,5.0,7.0,8.0,14.0,13236.0,9454.0,-943.0,-1724.0,-15.0,-8.0,-11.0,1.0
2022-05-23 15:44:17.552813-07:00,2111.8,635.9,1280.1,1555.3,1148.0,1333.2,1504.1,1772.3,3431.0,3439.5,1636.0,1447.0,1616.2,3418.9,1181.5,1714.8,3424.9,3424.9,732.3,1320.5,907.6,644.9,1296.3,1862.5,3432.2,3428.6,822.7,1035.7,1253.3,1608.7,1290.9,1031.4,-3.0,-1.0,18.0,10842.0,10430.0,5731.0,3041.0,-8.0,16.0,5.0,5.0,-5.0,1.0,13241.0,9448.0,-942.0,-1725.0,3.0,-6.0,-2.0,1.0
2022-05-23 15:44:17.642499-07:00,2111.8,641.6,1266.7,1537.6,1148.0,1333.2,1504.1,1761.8,3431.0,3432.2,1630.3,1448.8,1616.2,3418.9,1181.5,1711.9,3426.2,3424.9,732.3,1320.5,908.4,649.7,1291.8,1862.5,3433.4,3428.6,822.7,1035.7,1254.2,1596.4,1289.1,1031.4,-10.0,1.0,11.0,10841.0,10430.0,5731.0,3048.0,-4.0,3.0,18.0,5.0,0.0,0.0,13240.0,9448.0,-943.0,-1725.0,1.0,3.0,1.0,1.0
2022-05-23 15:44:17.672655-07:00,2107.8,641.6,1266.7,1537.6,1148.0,1330.5,1501.4,1761.8,3421.3,3432.2,1630.3,1448.8,1620.9,3431.0,1185.0,1711.9,3426.2,3428.6,724.9,1325.0,908.4,649.7,1291.8,1861.5,3433.4,3427.4,816.0,1039.2,1254.2,1596.4,1289.1,1030.6,-1.0,16.0,7.0,10838.0,10436.0,5723.0,3051.0,-5.0,3.0,21.0,10.0,3.0,3.0,13239.0,9450.0,-944.0,-1724.0,-13.0,-10.0,-2.0,1.0
2022-05-23 15:44:17.702924-07:00,2107.8,641.6,1273.0,1551.5,1148.0,1330.5,1495.8,1756.0,3421.3,3432.2,1641.6,1442.4,1620.9,3431.0,1185.0,1710.0,3428.6,3428.6,724.9,1325.0,905.9,648.1,1293.6,1861.5,3432.2,3432.2,816.0,1039.2,1267.6,1602.1,1290.0,1030.6,-3.0,7.0,14.0,10848.0,10421.0,5721.0,3070.0,-45.0,46.0,14.0,8.0,-6.0,8.0,13244.0,9442.0,-947.0,-1727.0,-6.0,2.0,-6.0,1.0
2022-05-23 15:44:17.763056-07:00,2113.9,635.1,1273.0,1551.5,1146.3,1336.8,1495.8,1756.0,3432.2,3429.8,1641.6,1442.4,1614.3,3429.8,1185.0,1710.0,3428.6,3428.6,731.5,1316.9,905.9,648.1,1295.4,1859.6,3432.2,3432.2,811.0,1028.0,1267.6,1602.1,1291.8,1032.3,-7.0,6.0,10.0,10840.0,10425.0,5727.0,3073.0,60.0,6.0,2.0,8.0,0.0,8.0,13240.0,9448.0,-945.0,-1722.0,34.0,18.0,-4.0,1.0
2022-05-23 15:44:17.822674-07:00,2113.9,635.1,1268.5,1553.4,1146.3,1336.8,1485.6,1764.6,3432.2,3429.8,1627.5,1440.5,1614.3,3429.8,1181.5,1708.1,3418.9,3432.2,731.5,1316.9,898.3,640.0,1295.4,1859.6,3434.6,3439.5,811.0,1028.0,1256.9,1602.1,1291.8,1032.3,-3.0,1.0,5.0,10838.0,10422.0,5734.0,3080.0,-6.0,26.0,6.0,4.0,-1.0,-3.0,13239.0,9452.0,-940.0,-1717.0,6.0,12.0,3.0,1.0
2022-05-23 15:44:17.852741-07:00,2110.8,635.9,1268.5,1553.4,1147.1,1326.8,1485.6,1764.6,3427.4,3427.4,1627.5,1440.5,1621.8,3429.8,1181.5,1708.1,3418.9,3432.2,725.8,1324.1,898.3,640.0,1290.0,1857.6,3434.6,3439.5,819.4,1028.0,1256.9,1602.1,1296.3,1030.6,-12.0,2.0,-10.0,10834.0,10420.0,5740.0,3086.0,8.0,-9.0,8.0,4.0,-3.0,3.0,13239.0,9452.0,-939.0,-1716.0,10.0,-6.0,-10.0,1.0
2022-05-23 15:44:17.913115-07:00,2110.8,635.9,1270.3,1542.2,1147.1,1326.8,1492.1,1752.1,3427.4,3427.4,1625.6,1445.1,1621.8,3429.8,1185.0,1714.8,3426.2,3422.5,725.8,1324.1,904.2,646.5,1290.0,1857.6,3439.5,3424.9,819.4,1028.0,1252.4,1601.1,1296.3,1030.6,-1.0,11.0,2.0,10832.0,10426.0,5741.0,3072.0,10.0,-1.0,-21.0,7.0,5.0,-3.0,13236.0,9455.0,-936.0,-1721.0,2.0,-2.0,-14.0,1.0
2022-05-23 15:44:17.972687-07:00,2107.8,634.3,1271.2,1542.2,1143.6,1326.8,1492.1,1752.1,3431.0,3421.3,1623.7,1445.1,1619.0,3422.5,1185.0,1714.8,3426.2,3422.5,728.2,1322.3,904.2,647.3,1288.2,1873.2,3439.5,3424.9,815.2,1032.3,1252.4,1604.9,1286.4,1034.9,-3.0,2.0,3.0,10835.0,10425.0,5735.0,3074.0,-15.0,-32.0,27.0,12.0,-7.0,3.0,13237.0,9453.0,-935.0,-1727.0,-15.0,-22.0,-14.0,1.0
2022-05-23 15:44:18.032494-07:00,2107.8,634.3,1271.2,1545.9,1143.6,1335.9,1475.5,1757.9,3431.0,3421.3,1623.7,1442.4,1619.0,3435.8,1185.0,1705.3,3416.5,3421.3,728.2,1322.3,907.6,647.3,1288.2,1873.2,3428.6,3429.8,816.0,1032.3,1256.9,1604.9,1286.4,1034.9,5.0,8.0,5.0,10834.0,10441.0,5719.0,3054.0,37.0,-57.0,3.0,7.0,5.0,-2.0,13234.0,9455.0,-937.0,-1736.0,20.0,-23.0,-8.0,1.0
2022-05-23 15:44:18.063020-07:00,2107.8,626.2,1266.7,1545.9,1140.1,1335.9,1475.5,1757.9,3427.4,3422.5,1626.5,1442.4,1615.2,3435.8,1185.0,1705.3,3416.5,3421.3,728.2,1320.5,907.6,643.2,1282.8,1857.6,3428.6,3429.8,816.0,1032.3,1256.9,1601.1,1290.0,1039.2,-17.0,8.0,11.0,10844.0,10434.0,5715.0,3054.0,-41.0,-11.0,7.0,3.0,-2.0,18.0,13238.0,9448.0,-947.0,-1744.0,-31.0,-30.0,-12.0,1.0
2022-05-23 15:44:18.122609-07:00,2107.8,626.2,1266.7,1550.6,1140.1,1324.1,1465.4,1746.4,3427.4,3422.5,1626.5,1437.8,1615.2,3423.7,1176.2,1710.0,3429.8,3418.9,736.5,1320.5,909.3,643.2,1282.8,1857.6,3439.5,3417.7,817.7,1032.3,1253.3,1601.1,1290.0,1039.2,3.0,10.0,18.0,10850.0,10434.0,5708.0,3046.0,24.0,-3.0,-22.0,6.0,-2.0,3.0,13237.0,9447.0,-947.0,-1753.0,9.0,3.0,-13.0,1.0
2022-05-23 15:44:18.152838-07:00,2098.7,634.3,1263.1,1550.6,1148.0,1324.1,1465.4,1746.4,3427.4,3424.9,1629.4,1437.8,1617.1,3423.7,1176.2,1710.0,3429.8,3418.9,736.5,1325.0,909.3,642.4,1280.1,1855.7,3439.5,3417.7,817.7,1027.1,1253.3,1592.7,1287.3,1033.2,-6.0,-1.0,8.0,10849.0,10430.0,5717.0,3044.0,1.0,18.0,6.0,9.0,-2.0,9.0,13237.0,9447.0,-946.0,-1755.0,7.0,5.0,0.0,1.0
2022-05-23 15:44:18.212641-07:00,2098.7,634.3,1263.1,1548.7,1137.5,1326.8,1468.1,1743.5,3427.4,3424.9,1629.4,1441.5,1613.4,3431.0,1179.7,1702.4,3426.2,3417.7,734.0,1319.6,903.4,642.4,1280.1,1855.7,3441.9,3433.4,818.5,1034.9,1245.3,1592.7,1287.3,1033.2,3.0,11.0,1.0,10848.0,10432.0,5712.0,3051.0,-2.0,3.0,6.0,11.0,1.0,-6.0,13237.0,9447.0,-946.0,-1755.0,-2.0,-10.0,2.0,1.0
2022-05-23 15:44:18.272644-07:00,2095.7,633.5,1270.3,1543.1,1137.5,1326.8,1468.1,1743.5,3424.9,3434.6,1619.0,1441.5,1613.4,3431.0,1179.7,1702.4,3426.2,3417.7,734.0,1319.6,903.4,644.9,1273.9,1857.6,3441.9,3433.4,818.5,1034.9,1254.2,1598.3,1282.8,1031.4,-9.0,5.0,-1.0,10849.0,10432.0,5711.0,3051.0,0.0,-23.0,6.0,2.0,0.0,-1.0,13238.0,9446.0,-947.0,-1756.0,-8.0,-3.0,-12.0,1.0
2022-05-23 15:44:18.302762-07:00,2095.7,633.5,1270.3,1543.1,1131.4,1344.0,1477.3,1742.6,3424.9,3434.6,1619.0,1441.5,1616.2,3423.7,1177.9,1704.3,3426.2,3427.4,732.3,1321.4,903.4,644.9,1273.9,1857.6,3437.0,3423.7,815.2,1034.0,1254.2,1598.3,1282.8,1031.4,-1.0,1.0,3.0,10852.0,10435.0,5703.0,3043.0,-1.0,-28.0,8.0,4.0,-7.0,2.0,13237.0,9446.0,-946.0,-1759.0,-12.0,-12.0,-10.0,1.0
2022-05-23 15:44:18.362449-07:00,2093.7,630.3,1278.3,1540.3,1131.4,1344.0,1477.3,1742.6,3424.9,3424.9,1612.4,1436.0,1616.2,3423.7,1177.9,1704.3,3426.2,3427.4,732.3,1321.4,900.0,644.9,1275.6,1851.8,3437.0,3423.7,815.2,1034.0,1245.3,1595.5,1289.1,1028.0,-5.0,5.0,0.0,10855.0,10441.0,5692.0,3031.0,10.0,-56.0,12.0,3.0,1.0,-1.0,13237.0,9444.0,-952.0,-1765.0,-2.0,-29.0,-8.0,1.0
2022-05-23 15:44:18.422595-07:00,2093.7,630.3,1278.3,1540.3,1139.2,1326.8,1483.8,1739.7,3424.9,3424.9,1612.4,1436.0,1609.6,3422.5,1185.0,1694.8,3418.9,3424.9,729.9,1316.9,900.0,644.9,1275.6,1851.8,3422.5,3431.0,816.0,1027.1,1245.3,1595.5,1289.1,1028.0,2.0,10.0,18.0,10868.0,10441.0,5674.0,3020.0,-54.0,-32.0,2.0,10.0,-7.0,8.0,13242.0,9435.0,-963.0,-1775.0,-49.0,-37.0,-2.0,1.0
2022-05-23 15:44:18.453217-07:00,2102.7,634.3,1258.7,1536.6,1139.2,1326.8,1483.8,1739.7,3420.1,3423.7,1614.3,1441.5,1609.6,3422.5,1185.0,1694.8,3418.9,3424.9,729.9,1316.9,907.6,641.6,1270.3,1850.8,3422.5,3431.0,816.0,1027.1,1245.3,1592.7,1281.9,1031.4,-6.0,3.0,12.0,10879.0,10435.0,5664.0,3016.0,39.0,-29.0,11.0,9.0,-2.0,12.0,13245.0,9428.0,-968.0,-1780.0,16.0,-7.0,-12.0,1.0
2022-05-23 15:44:18.543178-07:00,2100.7,634.3,1258.7,1536.6,1144.5,1331.4,1475.5,1738.7,3424.9,3423.7,1614.3,1441.5,1606.8,3429.8,1176.2,1707.2,3432.2,3426.2,733.2,1321.4,907.6,641.6,1270.3,1858.6,3440.7,3432.2,804.4,1036.6,1245.3,1592.7,1281.9,1033.2,3.0,1.0,20.0,10882.0,10440.0,5654.0,3009.0,4.0,-3.0,-3.0,8.0,-9.0,6.0,13243.0,9431.0,-967.0,-1782.0,0.0,7.0,0.0,1.0
2022-05-23 15:44:18.544558-07:00,2100.7,624.6,1266.7,1541.3,1144.5,1331.4,1475.5,1729.1,3424.9,3434.6,1614.3,1438.7,1606.8,3429.8,1176.2,1704.3,3427.4,3426.2,733.2,1321.4,906.7,645.7,1277.4,1858.6,3426.2,3432.2,804.4,1036.6,1254.2,1593.6,1282.8,1033.2,-11.0,10.0,2.0,10877.0,10442.0,5658.0,3011.0,19.0,8.0,9.0,5.0,4.0,8.0,13240.0,9437.0,-964.0,-1778.0,21.0,17.0,6.0,1.0
2022-05-23 15:44:18.602661-07:00,2091.6,624.6,1266.7,1541.3,1134.9,1317.8,1470.0,1729.1,3422.5,3434.6,1614.3,1438.7,1610.5,3423.7,1177.9,1704.3,3427.4,3423.7,735.6,1321.4,906.7,645.7,1277.4,1854.7,3426.2,3424.9,816.9,1030.6,1254.2,1593.6,1282.8,1024.5,-5.0,9.0,8.0,10879.0,10442.0,5655.0,3009.0,-12.0,-39.0,15.0,13.0,-1.0,15.0,13241.0,9437.0,-957.0,-1773.0,-10.0,23.0,-5.0,1.0
2022-05-23 15:44:18.663454-07:00,2091.6,627.0,1256.0,1549.7,1134.9,1317.8,1470.0,1732.0,3422.5,3421.3,1613.4,1437.8,1610.5,3423.7,1177.9,1704.3,3431.0,3423.7,735.6,1321.4,905.9,642.4,1266.7,1854.7,3424.9,3424.9,816.9,1030.6,1246.2,1597.4,1281.9,1024.5,-53.0,43.0,39.0,10896.0,10449.0,5614.0,3000.0,-45.0,-210.0,162.0,7.0,29.0,62.0,13251.0,9425.0,-940.0,-1771.0,-67.0,40.0,-33.0,1.0
2022-05-23 15:44:18.722802-07:00,2098.7,627.0,1256.0,1549.7,1138.4,1325.0,1478.3,1732.0,3417.7,3421.3,1613.4,1437.8,1609.6,3423.7,1175.3,1704.3,3431.0,3427.4,728.2,1313.3,905.9,642.4,1266.7,1857.6,3424.9,3423.7,813.5,1027.1,1246.2,1597.4,1281.9,1028.0,-21.0,-54.0,-2.0,11029.0,10400.0,5427.0,3032.0,-837.0,-525.0,306.0,19.0,-47.0,20.0,13318.0,9331.0,-907.0,-1787.0,-532.0,5.0,-36.0,1.0
2022-05-23 15:44:18.782639-07:00,2098.7,625.4,1260.4,1531.0,1138.4,1325.0,1643.5,1853.7,3417.7,3431.0,1677.6,1456.2,1609.6,3423.7,1209.7,1709.1,3414.1,3431.0,728.2,1313.3,898.3,656.2,1279.2,1857.6,3429.8,3427.4,813.5,1027.1,1247.1,1602.1,1291.8,1028.0,-4.0,-59.0,-25.0,11241.0,10372.0,5045.0,3009.0,-194.0,-1024.0,504.0,0.0,6.0,-1.0,13429.0,9172.0,-879.0,-1785.0,-358.0,26.0,45.0,1.0
2022-05-23 15:44:18.812553-07:00,2086.6,628.6,1260.4,1531.0,1134.0,1344.9,1643.5,1853.7,3428.6,3426.2,1677.6,1456.2,1612.4,3429.8,1209.7,1709.1,3414.1,3431.0,733.2,1316.9,898.3,656.2,1285.5,1858.6,3429.8,3427.4,831.1,1028.0,1247.1,1602.1,1321.4,1034.9,27.0,9.0,20.0,11411.0,10414.0,4573.0,2978.0,-750.0,-737.0,615.0,-2.0,5.0,-42.0,13540.0,9009.0,-881.0,-1783.0,-656.0,-91.0,80.0,1.0
2022-05-23 15:44:18.872704-07:00,2086.6,628.6,1262.2,1537.6,1134.0,1344.9,1630.3,1737.8,3428.6,3426.2,1772.3,1468.1,1612.4,3429.8,1239.1,1713.8,3417.7,3418.9,733.2,1316.9,919.4,657.0,1285.5,1858.6,3423.7,3437.0,831.1,1028.0,1260.4,1619.0,1321.4,1034.9,22.0,-3.0,21.0,11685.0,10200.0,4222.0,3165.0,-1106.0,-98.0,492.0,-21.0,21.0,-105.0,13708.0,8741.0,-937.0,-1806.0,-700.0,-246.0,110.0,1.0
2022-05-23 15:44:18.902786-07:00,2060.5,628.6,1262.2,1537.6,1147.1,1348.5,1630.3,1737.8,3423.7,3424.9,1772.3,1468.1,1619.9,3434.6,1239.1,1713.8,3417.7,3418.9,734.0,1320.5,919.4,657.0,1285.5,1850.8,3423.7,3437.0,885.6,1028.0,1260.4,1619.0,1376.6,1028.0,-17.0,69.0,-61.0,11908.0,9861.0,4111.0,3532.0,-1171.0,508.0,405.0,-43.0,-29.0,-41.0,13809.0,8548.0,-1074.0,-1874.0,-579.0,-439.0,93.0,1.0
2022-05-23 15:44:18.962499-07:00,2060.5,628.6,1309.7,1559.9,1147.1,1348.5,1600.2,1656.8,3423.7,3424.9,1842.0,1499.5,1619.9,3434.6,1373.9,1783.9,3417.7,3429.8,734.0,1320.5,917.7,652.2,1285.5,1850.8,3418.9,3440.7,885.6,1028.0,1253.3,1671.0,1376.6,1028.0,29.0,56.0,44.0,12087.0,9554.0,4152.0,3719.0,-543.0,279.0,-288.0,60.0,110.0,15.0,13901.0,8358.0,-1201.0,-1978.0,-283.0,-357.0,-64.0,1.0
2022-05-23 15:44:19.023023-07:00,2054.4,630.3,1405.8,1559.9,1139.2,1354.0,1600.2,1656.8,3427.4,3428.6,1928.2,1499.5,1612.4,3426.2,1373.9,1783.9,3417.7,3429.8,731.5,1336.8,917.7,648.1,1306.1,1865.4,3418.9,3440.7,912.7,1028.0,1253.3,1773.3,1517.1,1041.8,-19.0,-89.0,10.0,12220.0,9251.0,4312.0,3863.0,-726.0,630.0,-148.0,30.0,-83.0,35.0,13959.0,8232.0,-1278.0,-2049.0,-361.0,-146.0,20.0,1.0
2022-05-23 15:44:19.053177-07:00,2054.4,630.3,1405.8,1594.6,1139.2,1363.9,1573.0,1643.5,3427.4,3428.6,1928.2,1520.8,1612.4,3423.7,1376.6,1778.1,3426.2,3421.3,726.6,1336.8,916.9,648.1,1306.1,1865.4,3431.0,3422.5,914.4,1028.0,1245.3,1773.3,1517.1,1041.8,34.0,32.0,10.0,12208.0,9108.0,4521.0,4002.0,-31.0,688.0,-95.0,29.0,8.0,3.0,13950.0,8241.0,-1303.0,-2059.0,73.0,-26.0,25.0,1.0
2022-05-23 15:44:19.143269-07:00,2039.4,624.6,1447.0,1594.6,1147.1,1363.9,1573.0,1643.5,3421.3,3423.7,1902.6,1520.8,1610.5,3423.7,1376.6,1778.1,3426.2,3421.3,726.6,1334.1,916.9,643.2,1308.8,1871.3,3431.0,3422.5,914.4,1027.1,1245.3,1783.9,1532.0,1034.0,-59.0,124.0,-56.0,12148.0,9016.0,4768.0,4102.0,81.0,368.0,-266.0,28.0,42.0,91.0,13934.0,8271.0,-1278.0,-2061.0,62.0,112.0,-134.0,1.0
2022-05-23 15:44:19.144593-07:00,2039.4,624.6,1447.0,1601.1,1147.1,1355.8,1620.9,1873.2,3421.3,3423.7,1902.6,1508.8,1610.5,3423.7,1415.8,1841.1,3423.7,3424.9,726.6,1334.1,915.2,643.2,1308.8,1871.3,3429.8,3426.2,912.7,1027.1,1249.7,1783.9,1532.0,1034.0,48.0,23.0,-16.0,12223.0,8889.0,4875.0,4032.0,-587.0,209.0,-388.0,5.0,24.0,-38.0,13976.0,8196.0,-1205.0,-2118.0,-480.0,-6.0,-126.0,1.0
2022-05-23 15:44:19.202754-07:00,2050.4,634.3,1486.6,1601.1,1152.4,1355.8,1620.9,1873.2,3420.1,3421.3,1872.3,1508.8,1595.5,3423.7,1415.8,1841.1,3423.7,3424.9,726.6,1325.9,915.2,635.1,1339.5,1856.7,3429.8,3426.2,912.7,1025.4,1249.7,1768.5,1535.7,1028.8,11.0,70.0,33.0,12378.0,8544.0,5007.0,4143.0,-843.0,663.0,-322.0,0.0,-9.0,-35.0,14079.0,7992.0,-1216.0,-2205.0,-556.0,-256.0,-85.0,1.0
2022-05-23 15:44:19.262480-07:00,2050.4,634.3,1486.6,1628.4,1152.4,1393.9,1654.9,2059.4,3420.1,3421.3,1872.3,1503.2,1595.5,3423.7,1422.2,1838.2,3417.7,3429.8,724.1,1325.9,909.3,635.1,1339.5,1856.7,3429.8,3424.9,902.5,1025.4,1248.8,1768.5,1535.7,1028.8,-19.0,-46.0,-27.0,12565.0,8034.0,5239.0,4307.0,-1100.0,726.0,-451.0,-16.0,-24.0,-2.0,14226.0,7692.0,-1259.0,-2302.0,-810.0,-247.0,-19.0,1.0
2022-05-23 15:44:19.292590-07:00,2042.4,620.5,1559.0,1699.5,1151.5,1393.9,1654.9,2059.4,3429.8,3435.8,1905.6,1520.8,1608.7,3423.7,1422.2,1838.2,3417.7,3429.8,724.1,1328.7,905.0,637.6,1335.0,1861.5,3429.8,3424.9,902.5,1032.3,1248.0,1779.1,1534.8,1070.3,43.0,-88.0,2.0,12641.0,7691.0,5413.0,4494.0,-419.0,605.0,52.0,8.0,-95.0,-27.0,14272.0,7565.0,-1325.0,-2400.0,29.0,-273.0,-90.0,1.0
2022-05-23 15:44:19.352736-07:00,2042.4,620.5,1559.0,1699.5,1214.2,1404.0,1623.7,1970.7,3429.8,3435.8,1905.6,1520.8,1610.5,3424.9,1433.2,1844.0,3431.0,3421.3,729.9,1349.4,905.0,637.6,1335.0,1861.5,3421.3,3428.6,916.0,1033.2,1248.0,1779.1,1534.8,1070.3,-7.0,28.0,39.0,12530.0,7587.0,5656.0,4678.0,16.0,894.0,47.0,19.0,-50.0,46.0,14193.0,7677.0,-1409.0,-2467.0,386.0,-179.0,-51.0,1.0
2022-05-23 15:44:19.412599-07:00,2036.4,627.8,1559.9,1755.0,1214.2,1404.0,1623.7,1970.7,3424.9,3431.0,1993.5,1556.2,1610.5,3424.9,1433.2,1844.0,3431.0,3421.3,729.9,1349.4,908.4,636.7,1360.3,1893.8,3421.3,3428.6,916.0,1033.2,1243.5,1777.2,1510.6,1196.5,-23.0,-26.0,-8.0,12386.0,7488.0,5976.0,4821.0,225.0,840.0,-65.0,18.0,-11.0,47.0,14125.0,7788.0,-1445.0,-2483.0,389.0,-1.0,-53.0,1.0
2022-05-23 15:44:19.442442-07:00,2036.4,627.8,1559.9,1755.0,1316.0,1440.5,1591.7,1894.8,3424.9,3431.0,1993.5,1556.2,1614.3,3424.9,1413.1,1826.5,3424.9,3434.6,729.9,1366.6,908.4,636.7,1360.3,1893.8,3428.6,3427.4,940.7,1047.0,1243.5,1777.2,1510.6,1196.5,19.0,5.0,-6.0,12200.0,7558.0,6182.0,4924.0,439.0,393.0,271.0,30.0,-33.0,7.0,14003.0,8007.0,-1452.0,-2477.0,614.0,42.0,-38.0,1.0
2022-05-23 15:44:19.502732-07:00,2055.4,625.4,1518.0,1770.4,1316.0,1440.5,1591.7,1894.8,3427.4,3432.2,2059.4,1598.3,1614.3,3424.9,1413.1,1826.5,3424.9,3434.6,729.9,1366.6,902.5,634.3,1390.3,1936.1,3428.6,3427.4,940.7,1047.0,1247.1,1777.2,1470.9,1237.3,8.0,-31.0,-2.0,12031.0,7692.0,6291.0,4994.0,496.0,263.0,244.0,48.0,-45.0,29.0,13889.0,8208.0,-1460.0,-2456.0,570.0,71.0,-44.0,1.0
2022-05-23 15:44:19.592512-07:00,2045.4,625.4,1518.0,1770.4,1355.8,1459.8,1593.6,1888.9,3429.8,3432.2,2059.4,1598.3,1617.1,3422.5,1378.5,1803.2,3416.5,3422.5,729.0,1373.9,902.5,634.3,1390.3,1923.3,3428.6,3427.4,965.4,1041.8,1247.1,1777.2,1470.9,1246.2,0.0,115.0,17.0,11797.0,7982.0,6399.0,4960.0,1057.0,80.0,232.0,34.0,85.0,27.0,13717.0,8504.0,-1430.0,-2431.0,874.0,198.0,-182.0,1.0
2022-05-23 15:44:19.593860-07:00,2045.4,617.3,1494.0,1769.5,1355.8,1459.8,1593.6,1844.0,3429.8,3427.4,2056.4,1583.3,1617.1,3422.5,1378.5,1780.1,3424.9,3422.5,729.0,1373.9,901.7,629.5,1374.8,1923.3,3427.4,3427.4,965.4,1041.8,1251.5,1718.6,1432.3,1246.2,12.0,174.0,69.0,11553.0,8257.0,6577.0,4850.0,985.0,272.0,-156.0,57.0,99.0,73.0,13544.0,8790.0,-1326.0,-2445.0,645.0,311.0,-354.0,1.0
2022-05-23 15:44:19.652672-07:00,2034.4,617.3,1494.0,1769.5,1381.2,1441.5,1567.4,1844.0,3423.7,3427.4,2056.4,1583.3,1619.0,3432.2,1354.9,1780.1,3424.9,3422.5,724.9,1365.7,901.7,629.5,1374.8,1917.4,3427.4,3432.2,966.2,1040.1,1251.5,1718.6,1432.3,1230.2,5.0,128.0,36.0,11364.0,8434.0,6871.0,4579.0,984.0,150.0,-668.0,32.0,77.0,21.0,13404.0,9014.0,-1095.0,-2513.0,433.0,454.0,-584.0,1.0
2022-05-23 15:44:19.712558-07:00,2034.4,610.0,1496.7,1776.2,1381.2,1441.5,1567.4,1800.3,3423.7,3424.9,2084.6,1581.4,1619.0,3432.2,1354.9,1777.2,3420.1,3422.5,724.9,1365.7,898.3,633.5,1367.6,1917.4,3431.0,3432.2,966.2,1040.1,1245.3,1710.0,1407.6,1230.2,24.0,-93.0,10.0,11239.0,8494.0,7181.0,4290.0,583.0,303.0,-634.0,1.0,-38.0,-36.0,13317.0,9145.0,-836.0,-2598.0,307.0,373.0,-480.0,1.0
2022-05-23 15:44:19.742583-07:00,2027.4,610.0,1496.7,1776.2,1366.6,1439.6,1561.8,1800.3,3424.9,3424.9,2084.6,1581.4,1609.6,3429.8,1355.8,1777.2,3420.1,3429.8,728.2,1358.5,898.3,633.5,1367.6,1906.6,3431.0,3438.2,962.8,1033.2,1245.3,1710.0,1407.6,1220.4,14.0,-210.0,-33.0,11099.0,8524.0,7432.0,4166.0,491.0,358.0,-227.0,-1.0,-124.0,-12.0,13225.0,9281.0,-679.0,-2631.0,351.0,275.0,-213.0,1.0
2022-05-23 15:44:19.802783-07:00,2027.4,611.7,1481.0,1763.7,1366.6,1439.6,1536.6,1767.5,3424.9,3428.6,2054.4,1583.3,1609.6,3429.8,1339.5,1773.3,3420.1,3429.8,728.2,1358.5,900.0,627.0,1361.2,1906.6,3426.2,3426.2,962.8,1033.2,1243.5,1702.4,1408.5,1220.4,-32.0,-22.0,-68.0,11001.0,8590.0,7562.0,4053.0,306.0,-29.0,-238.0,-22.0,5.0,6.0,13166.0,9377.0,-598.0,-2607.0,73.0,163.0,-39.0,1.0
2022-05-23 15:44:19.862637-07:00,2018.4,608.4,1481.0,1763.7,1354.9,1427.7,1536.6,1767.5,3435.8,3423.7,2054.4,1583.3,1610.5,3423.7,1339.5,1773.3,3420.1,3429.8,728.2,1359.4,900.0,627.0,1356.7,1912.4,3426.2,3426.2,960.2,1022.8,1243.5,1702.4,1396.7,1211.5,-2.0,34.0,-27.0,11044.0,8594.0,7551.0,3949.0,-116.0,-216.0,-142.0,-23.0,2.0,-30.0,13186.0,9358.0,-565.0,-2586.0,-153.0,39.0,20.0,1.0
2022-05-23 15:44:19.892613-07:00,2018.4,608.4,1478.3,1759.8,1354.9,1427.7,1534.8,1757.0,3435.8,3423.7,2060.5,1582.4,1610.5,3423.7,1335.0,1770.4,3418.9,3431.0,728.2,1359.4,901.7,631.9,1356.7,1912.4,3429.8,3432.2,960.2,1022.8,1239.1,1696.7,1396.7,1211.5,18.0,-17.0,11.0,11112.0,8520.0,7551.0,3918.0,-133.0,53.0,-140.0,-2.0,-10.0,-8.0,13215.0,9317.0,-554.0,-2585.0,-36.0,5.0,9.0,1.0
2022-05-23 15:44:19.952672-07:00,2023.4,607.6,1478.3,1759.8,1344.0,1436.0,1534.8,1757.0,3434.6,3428.6,2060.5,1582.4,1604.0,3426.2,1335.0,1770.4,3418.9,3431.0,738.1,1361.2,901.7,631.9,1356.7,1894.8,3429.8,3432.2,953.4,1026.3,1239.1,1696.7,1396.7,1195.6,0.0,30.0,-9.0,11073.0,8517.0,7618.0,3905.0,238.0,130.0,-60.0,13.0,19.0,14.0,13190.0,9355.0,-542.0,-2576.0,164.0,59.0,-26.0,1.0
2022-05-23 15:44:20.012505-07:00,2023.4,607.6,1470.9,1744.5,1344.0,1436.0,1531.0,1741.6,3434.6,3428.6,2075.5,1589.9,1604.0,3426.2,1324.1,1773.3,3429.8,3424.9,738.1,1361.2,898.3,631.1,1356.7,1894.8,3427.4,3434.6,953.4,1026.3,1247.1,1703.3,1396.7,1195.6,8.0,21.0,-21.0,11022.0,8556.0,7676.0,3848.0,173.0,-7.0,-91.0,15.0,25.0,-4.0,13160.0,9396.0,-523.0,-2584.0,70.0,18.0,-69.0,1.0
2022-05-23 15:44:20.132471-07:00,2010.4,615.7,1462.6,1744.5,1342.2,1430.5,1531.0,1741.6,3424.9,3435.8,2068.5,1589.9,1612.4,3433.4,1324.1,1773.3,3429.8,3424.9,728.2,1358.5,898.3,625.4,1359.4,1898.7,3427.4,3434.6,958.5,1020.2,1247.1,1684.3,1390.3,1194.7,17.0,-23.0,-6.0,11024.0,8563.0,7681.0,3819.0,-24.0,-49.0,-21.0,15.0,-27.0,-4.0,13153.0,9400.0,-525.0,-2608.0,-6.0,-63.0,-24.0,1.0
2022-05-23 15:44:20.133585-07:00,2010.4,615.7,1462.6,1741.6,1342.2,1414.9,1520.8,1733.9,3424.9,3435.8,2068.5,1582.4,1612.4,3418.9,1330.5,1761.8,3422.5,3428.6,728.2,1358.5,904.2,625.4,1359.4,1898.7,3426.2,3424.9,951.7,1020.2,1253.3,1684.3,1390.3,1194.7,1.0,-9.0,1.0,11049.0,8557.0,7660.0,3803.0,-7.0,-79.0,-14.0,7.0,0.0,17.0,13158.0,9385.0,-549.0,-2627.0,-14.0,-73.0,4.0,1.0
2022-05-23 15:44:20.163144-07:00,2020.4,610.0,1466.3,1741.6,1334.1,1414.9,1520.8,1733.9,3421.3,3426.2,2066.5,1582.4,1608.7,3418.9,1330.5,1761.8,3422.5,3428.6,728.2,1363.0,904.2,627.8,1355.8,1896.7,3426.2,3424.9,951.7,1015.9,1253.3,1698.6,1392.1,1198.2,-10.0,33.0,13.0,11072.0,8562.0,7636.0,3772.0,5.0,-105.0,-61.0,7.0,15.0,26.0,13164.0,9372.0,-566.0,-2646.0,-26.0,-47.0,-27.0,1.0
2022-05-23 15:44:20.192665-07:00,2020.4,610.0,1466.3,1749.3,1334.1,1419.5,1522.7,1712.9,3421.3,3426.2,2066.5,1582.4,1608.7,3434.6,1324.1,1752.1,3424.9,3414.1,735.6,1363.0,895.7,627.8,1355.8,1896.7,3431.0,3431.0,949.2,1015.9,1248.0,1698.6,1392.1,1198.2,4.0,-13.0,16.0,11096.0,8551.0,7625.0,3748.0,-28.0,-38.0,-8.0,5.0,-11.0,11.0,13170.0,9358.0,-577.0,-2664.0,-8.0,-44.0,-8.0,1.0
2022-05-23 15:44:20.343297-07:00,2012.4,606.0,1460.8,1749.3,1351.2,1419.5,1522.7,1712.9,3426.2,3432.2,2071.5,1582.4,1612.4,3434.6,1324.1,1752.1,3424.9,3414.1,735.6,1361.2,895.7,625.4,1351.2,1887.9,3431.0,3431.0,949.2,1015.9,1248.0,1693.8,1390.3,1198.2,1.0,-8.0,17.0,11110.0,8547.0,7601.0,3766.0,-57.0,-28.0,69.0,18.0,-13.0,20.0,13177.0,9345.0,-600.0,-2667.0,-24.0,-46.0,38.0,1.0
2022-05-23 15:44:20.344216-07:00,2012.4,606.0,1460.8,1736.8,1351.2,1417.6,1525.5,1711.9,3426.2,3432.2,2071.5,1578.6,1612.4,3431.0,1325.0,1762.7,3434.6,3429.8,734.0,1361.2,898.3,625.4,1351.2,1887.9,3433.4,3432.2,952.6,1015.9,1243.5,1693.8,1390.3,1198.2,-3.0,0.0,9.0,11127.0,8550.0,7559.0,3792.0,-42.0,-77.0,113.0,15.0,-4.0,22.0,13190.0,9327.0,-632.0,-2660.0,-13.0,-45.0,55.0,1.0
2022-05-23 15:44:20.345839-07:00,2010.4,606.0,1458.9,1738.7,1332.3,1417.6,1525.5,1711.9,3439.5,3422.5,2047.4,1570.2,1608.7,3431.0,1325.0,1762.7,3434.6,3429.8,734.0,1357.6,897.4,627.0,1354.0,1887.9,3433.4,3432.2,952.6,1019.4,1245.3,1691.9,1397.6,1199.1,3.0,31.0,21.0,11150.0,8553.0,7516.0,3804.0,-82.0,-58.0,5.0,7.0,10.0,11.0,13201.0,9311.0,-655.0,-2654.0,-32.0,-38.0,31.0,1.0
2022-05-23 15:44:20.403175-07:00,2010.4,606.0,1458.9,1738.7,1325.0,1413.1,1499.5,1713.8,3439.5,3422.5,2047.4,1570.2,1603.0,3423.7,1321.4,1763.7,3418.9,3426.2,729.0,1353.1,897.4,627.0,1354.0,1887.9,3423.7,3433.4,943.2,1015.9,1245.3,1691.9,1397.6,1199.1,-2.0,5.0,13.0,11167.0,8535.0,7510.0,3807.0,-35.0,27.0,-9.0,4.0,0.0,12.0,13204.0,9305.0,-662.0,-2656.0,1.0,-4.0,-3.0,1.0
2022-05-23 15:44:20.462544-07:00,2004.5,607.6,1457.1,1727.2,1325.0,1413.1,1499.5,1713.8,3427.4,3424.9,2043.4,1572.1,1603.0,3423.7,1321.4,1763.7,3418.9,3426.2,729.0,1353.1,900.8,621.4,1355.8,1896.7,3423.7,3433.4,943.2,1015.9,1245.3,1667.2,1388.5,1193.8,6.0,-19.0,1.0,11162.0,8531.0,7511.0,3827.0,27.0,30.0,68.0,5.0,-29.0,2.0,13199.0,9313.0,-666.0,-2653.0,50.0,7.0,17.0,1.0
2022-05-23 15:44:20.492568-07:00,2004.5,607.6,1457.1,1727.2,1326.8,1419.5,1504.1,1707.2,3427.4,3424.9,2043.4,1572.1,1604.9,3422.5,1314.2,1767.5,3429.8,3417.7,729.9,1353.1,900.8,621.4,1355.8,1896.7,3437.0,3422.5,950.0,1017.6,1245.3,1667.2,1388.5,1193.8,2.0,23.0,7.0,11145.0,8546.0,7512.0,3843.0,-4.0,33.0,28.0,12.0,13.0,7.0,13189.0,9328.0,-673.0,-2648.0,34.0,-7.0,11.0,1.0
2022-05-23 15:44:20.552706-07:00,2007.4,606.0,1454.3,1727.2,1326.8,1419.5,1504.1,1707.2,3426.2,3423.7,2036.4,1570.2,1604.9,3422.5,1314.2,1767.5,3429.8,3417.7,729.9,1353.1,905.9,627.8,1350.3,1888.9,3437.0,3422.5,950.0,1017.6,1248.0,1688.1,1385.7,1192.9,-10.0,-8.0,1.0,11135.0,8550.0,7514.0,3858.0,39.0,-2.0,24.0,14.0,-9.0,14.0,13182.0,9338.0,-680.0,-2649.0,31.0,6.0,-9.0,1.0
2022-05-23 15:44:20.612525-07:00,1999.5,606.0,1454.3,1727.2,1324.1,1422.2,1502.3,1699.5,3414.1,3423.7,2036.4,1570.2,1606.8,3422.5,1316.9,1755.0,3418.9,3422.5,727.4,1354.9,905.9,627.8,1350.3,1879.1,3432.2,3429.8,944.1,1015.9,1248.0,1688.1,1385.7,1183.2,15.0,19.0,6.0,11124.0,8581.0,7503.0,3844.0,56.0,-48.0,3.0,4.0,-1.0,-1.0,13171.0,9352.0,-679.0,-2652.0,34.0,2.0,-15.0,1.0
2022-05-23 15:44:20.642658-07:00,1999.5,605.2,1458.9,1727.2,1324.1,1422.2,1502.3,1684.3,3414.1,3417.7,2027.4,1559.0,1606.8,3422.5,1316.9,1755.0,3427.4,3422.5,727.4,1354.9,904.2,623.8,1346.7,1879.1,3429.8,3429.8,944.1,1015.9,1241.7,1690.0,1384.8,1183.2,2.0,5.0,11.0,11125.0,8589.0,7495.0,3836.0,-2.0,9.0,17.0,12.0,2.0,4.0,13167.0,9358.0,-681.0,-2653.0,25.0,-9.0,-2.0,1.0
2022-05-23 15:44:20.702636-07:00,2002.5,605.2,1458.9,1727.2,1321.4,1412.2,1513.4,1684.3,3429.8,3417.7,2027.4,1559.0,1596.4,3426.2,1315.1,1755.0,3427.4,3416.5,725.8,1351.2,904.2,623.8,1346.7,1886.9,3429.8,3431.0,941.5,1015.1,1241.7,1690.0,1384.8,1184.1,3.0,24.0,5.0,11121.0,8595.0,7489.0,3844.0,16.0,-15.0,-1.0,11.0,-5.0,5.0,13162.0,9365.0,-685.0,-2651.0,22.0,-1.0,-6.0,1.0
2022-05-23 15:44:20.762583-07:00,2002.5,611.7,1455.2,1731.1,1321.4,1412.2,1513.4,1686.2,3429.8,3429.8,2019.4,1566.5,1596.4,3426.2,1315.1,1752.1,3423.7,3416.5,725.8,1351.2,897.4,631.1,1346.7,1886.9,3428.6,3431.0,941.5,1015.1,1238.2,1686.2,1385.7,1184.1,-4.0,-7.0,11.0,11127.0,8595.0,7486.0,3835.0,-4.0,-23.0,-6.0,6.0,-8.0,10.0,13167.0,9358.0,-683.0,-2653.0,-16.0,1.0,-4.0,1.0
2022-05-23 15:44:20.792587-07:00,2015.4,611.7,1455.2,1731.1,1325.9,1409.4,1499.5,1686.2,3431.0,3429.8,2019.4,1566.5,1599.3,3429.8,1315.1,1752.1,3423.7,3423.7,728.2,1342.2,897.4,631.1,1346.7,1885.0,3428.6,3427.4,936.4,1008.2,1238.2,1686.2,1385.7,1181.5,5.0,3.0,8.0,11130.0,8599.0,7478.0,3835.0,9.0,17.0,15.0,11.0,-4.0,5.0,13165.0,9361.0,-686.0,-2651.0,18.0,7.0,13.0,1.0
2022-05-23 15:44:20.882566-07:00,2015.4,602.8,1447.9,1728.2,1325.9,1409.4,1491.2,1691.9,3431.0,3429.8,2021.4,1563.7,1599.3,3429.8,1318.7,1754.1,3415.3,3429.8,728.2,1342.2,896.6,620.5,1345.8,1885.0,3423.7,3423.7,936.4,1008.2,1245.3,1687.2,1387.5,1181.5,-9.0,-26.0,12.0,11116.0,8617.0,7477.0,3835.0,128.0,-33.0,77.0,7.0,-8.0,11.0,13157.0,9373.0,-694.0,-2644.0,70.0,5.0,17.0,1.0
2022-05-23 15:44:20.912489-07:00,2011.4,601.2,1447.9,1728.2,1313.3,1416.7,1491.2,1691.9,3418.9,3423.7,2021.4,1563.7,1604.9,3418.9,1318.7,1754.1,3415.3,3429.8,727.4,1348.5,896.6,620.5,1345.8,1886.0,3423.7,3423.7,935.6,1008.2,1245.3,1687.2,1391.2,1177.0,5.0,25.0,-3.0,11109.0,8647.0,7450.0,3841.0,-159.0,-68.0,34.0,5.0,15.0,11.0,13142.0,9395.0,-702.0,-2638.0,-21.0,-19.0,22.0,1.0
2022-05-23 15:44:20.942597-07:00,2011.4,601.2,1455.2,1728.2,1313.3,1416.7,1489.3,1679.5,3418.9,3423.7,2000.5,1565.5,1604.9,3418.9,1319.6,1749.3,3429.8,3423.7,727.4,1348.5,894.1,617.3,1345.8,1886.0,3422.5,3432.2,935.6,1008.2,1246.2,1690.0,1391.2,1177.0,22.0,0.0,0.0,11153.0,8616.0,7411.0,3859.0,-134.0,-30.0,8.0,11.0,-8.0,-10.0,13152.0,9379.0,-718.0,-2642.0,-59.0,-58.0,27.0,1.0
2022-05-23 15:44:21.003859-07:00,1998.5,601.2,1455.2,1728.2,1325.0,1411.3,1489.3,1679.5,3420.1,3423.7,2000.5,1565.5,1599.3,3432.2,1319.6,1749.3,3429.8,3423.7,728.2,1348.5,894.1,617.3,1340.4,1878.1,3422.5,3432.2,932.2,1005.6,1246.2,1690.0,1390.3,1182.3,9.0,10.0,4.0,11169.0,8609.0,7384.0,3880.0,-17.0,-16.0,80.0,6.0,-2.0,2.0,13158.0,9367.0,-742.0,-2647.0,9.0,-46.0,21.0,1.0
2022-05-23 15:44:21.062546-07:00,1998.5,601.2,1452.5,1723.4,1325.0,1411.3,1487.5,1673.8,3420.1,3423.7,2016.4,1565.5,1599.3,3432.2,1307.9,1756.0,3418.9,3422.5,728.2,1348.5,893.2,618.9,1340.4,1878.1,3421.3,3439.5,932.2,1005.6,1241.7,1687.2,1390.3,1182.3,-5.0,25.0,10.0,11176.0,8612.0,7358.0,3900.0,-75.0,-45.0,15.0,10.0,-2.0,19.0,13163.0,9358.0,-757.0,-2651.0,-36.0,-21.0,5.0,1.0
2022-05-23 15:44:21.092534-07:00,1992.5,596.3,1441.5,1723.4,1313.3,1411.3,1487.5,1673.8,3417.7,3429.8,2016.4,1565.5,1601.1,3427.4,1307.9,1756.0,3418.9,3422.5,724.9,1348.5,893.2,620.5,1347.6,1878.1,3421.3,3439.5,925.4,1002.2,1241.7,1683.3,1383.0,1178.8,3.0,-11.0,13.0,11197.0,8599.0,7338.0,3907.0,-11.0,-26.0,33.0,11.0,-14.0,12.0,13176.0,9338.0,-759.0,-2654.0,-25.0,-7.0,5.0,1.0
2022-05-23 15:44:21.182497-07:00,1992.5,596.3,1441.5,1732.0,1313.3,1411.3,1487.5,1655.8,3417.7,3429.8,2016.4,1561.8,1601.1,3427.4,1307.0,1756.0,3427.4,3424.9,724.1,1348.5,898.3,620.5,1347.6,1878.1,3421.3,3429.8,933.0,1002.2,1242.6,1683.3,1383.0,1178.8,0.0,7.0,4.0,11200.0,8605.0,7326.0,3912.0,1.0,-16.0,21.0,9.0,-4.0,9.0,13179.0,9335.0,-760.0,-2653.0,-4.0,-2.0,8.0,1.0
2022-05-23 15:44:21.212616-07:00,1995.5,609.2,1444.2,1732.0,1308.8,1411.3,1487.5,1655.8,3424.9,3439.5,2016.4,1561.8,1608.7,3427.4,1307.0,1756.0,3427.4,3424.9,724.1,1346.7,898.3,624.6,1341.3,1877.2,3421.3,3429.8,933.0,1002.2,1242.6,1679.5,1374.8,1171.8,15.0,23.0,12.0,11198.0,8609.0,7320.0,3915.0,10.0,22.0,-7.0,18.0,2.0,6.0,13178.0,9337.0,-760.0,-2649.0,14.0,20.0,1.0,1.0
2022-05-23 15:44:21.242558-07:00,1995.5,609.2,1444.2,1722.4,1308.8,1410.3,1481.9,1653.9,3424.9,3439.5,2016.4,1559.0,1608.7,3426.2,1302.5,1750.2,3421.3,3418.9,724.9,1346.7,891.5,624.6,1341.3,1877.2,3434.6,3428.6,931.3,1002.2,1248.0,1679.5,1374.8,1171.8,-1.0,11.0,6.0,11196.0,8606.0,7329.0,3913.0,3.0,10.0,-28.0,3.0,-2.0,7.0,13179.0,9337.0,-757.0,-2646.0,-1.0,18.0,-8.0,1.0
2022-05-23 15:44:21.302640-07:00,1989.5,594.7,1455.2,1722.4,1316.0,1410.3,1481.9,1653.9,3435.8,3423.7,2005.5,1559.0,1602.1,3426.2,1302.5,1750.2,3421.3,3418.9,724.9,1348.5,891.5,622.2,1346.7,1873.2,3434.6,3428.6,931.3,1000.5,1248.0,1684.3,1382.1,1169.1,-2.0,0.0,-11.0,11190.0,8606.0,7336.0,3915.0,34.0,27.0,35.0,-1.0,-10.0,-4.0,13177.0,9340.0,-752.0,-2642.0,33.0,15.0,5.0,1.0
2022-05-23 15:44:21.362502-07:00,1989.5,594.7,1455.2,1732.0,1316.0,1409.4,1494.9,1653.9,3435.8,3423.7,2005.5,1559.9,1602.1,3422.5,1304.3,1753.1,3429.8,3418.9,726.6,1348.5,894.1,622.2,1346.7,1873.2,3428.6,3428.6,926.2,1000.5,1239.1,1684.3,1382.1,1169.1,-4.0,25.0,-3.0,11188.0,8612.0,7331.0,3920.0,-45.0,-27.0,-17.0,9.0,14.0,13.0,13177.0,9341.0,-753.0,-2642.0,-49.0,-3.0,0.0,1.0
2022-05-23 15:44:21.422639-07:00,1982.6,606.0,1442.4,1718.6,1306.1,1409.4,1494.9,1653.9,3429.8,3435.8,2005.5,1559.9,1596.4,3422.5,1304.3,1753.1,3429.8,3418.9,726.6,1338.6,900.0,622.2,1344.0,1867.4,3428.6,3428.6,926.2,1003.0,1246.2,1675.7,1383.9,1170.9,10.0,-17.0,6.0,11205.0,8600.0,7323.0,3912.0,8.0,-25.0,2.0,13.0,-13.0,1.0,13185.0,9329.0,-753.0,-2645.0,-1.0,-4.0,-10.0,1.0
2022-05-23 15:44:21.512622-07:00,1982.6,606.0,1442.4,1718.6,1307.9,1399.4,1489.3,1657.7,3429.8,3435.8,2005.5,1559.9,1581.4,3420.1,1305.2,1747.3,3423.7,3426.2,729.0,1344.9,900.0,622.2,1344.0,1867.4,3426.2,3426.2,923.7,999.6,1246.2,1675.7,1383.9,1170.9,11.0,37.0,14.0,11198.0,8612.0,7322.0,3907.0,8.0,-7.0,-12.0,13.0,4.0,7.0,13181.0,9335.0,-756.0,-2643.0,7.0,-7.0,-7.0,1.0
2022-05-23 15:44:21.514288-07:00,1982.6,603.6,1446.0,1721.5,1307.9,1399.4,1489.3,1657.7,3435.8,3429.8,1994.5,1551.5,1581.4,3420.1,1305.2,1747.3,3423.7,3426.2,729.0,1344.9,893.2,627.8,1340.4,1879.1,3426.2,3426.2,923.7,999.6,1239.1,1676.7,1374.8,1169.1,-5.0,-30.0,1.0,11210.0,8600.0,7321.0,3901.0,-11.0,-29.0,3.0,4.0,-16.0,7.0,13188.0,9325.0,-754.0,-2645.0,-12.0,-2.0,-6.0,1.0
2022-05-23 15:44:21.542604-07:00,1982.6,603.6,1446.0,1721.5,1310.6,1409.4,1482.9,1644.5,3435.8,3429.8,1994.5,1551.5,1596.4,3432.2,1303.4,1751.2,3422.5,3423.7,720.8,1338.6,893.2,627.8,1340.4,1879.1,3424.9,3434.6,933.0,1001.3,1239.1,1676.7,1374.8,1169.1,-4.0,12.0,-6.0,11207.0,8619.0,7301.0,3906.0,-7.0,-23.0,48.0,4.0,2.0,11.0,13185.0,9329.0,-761.0,-2643.0,-4.0,-19.0,22.0,1.0
2022-05-23 15:44:21.602632-07:00,1999.5,597.9,1438.7,1712.9,1310.6,1409.4,1482.9,1644.5,3418.9,3418.9,2012.4,1555.3,1596.4,3432.2,1303.4,1751.2,3422.5,3423.7,720.8,1338.6,891.5,617.3,1339.5,1877.2,3424.9,3434.6,933.0,1001.3,1242.6,1684.3,1367.6,1169.1,-7.0,-18.0,-1.0,11229.0,8612.0,7270.0,3914.0,-84.0,-76.0,34.0,6.0,-4.0,13.0,13199.0,9309.0,-773.0,-2641.0,-64.0,-22.0,26.0,1.0
2022-05-23 15:44:21.662554-07:00,1984.6,597.9,1438.7,1712.9,1307.0,1404.9,1475.5,1644.5,3421.3,3418.9,2012.4,1555.3,1604.9,3421.3,1299.0,1748.3,3427.4,3424.9,722.5,1348.5,891.5,617.3,1339.5,1873.2,3429.8,3423.7,924.5,1003.9,1242.6,1684.3,1367.6,1164.7,8.0,-22.0,-8.0,11252.0,8629.0,7202.0,3936.0,-86.0,-127.0,167.0,11.0,-17.0,-6.0,13206.0,9299.0,-787.0,-2635.0,-33.0,-41.0,65.0,1.0
2022-05-23 15:44:21.692845-07:00,1984.6,600.4,1441.5,1716.7,1307.0,1404.9,1475.5,1655.8,3421.3,3434.6,1994.5,1551.5,1604.9,3421.3,1299.0,1750.2,3415.3,3424.9,722.5,1348.5,888.2,622.2,1338.6,1873.2,3428.6,3423.7,924.5,1003.9,1242.6,1671.9,1384.8,1164.7,8.0,-21.0,-21.0,11303.0,8632.0,7077.0,4009.0,-319.0,-186.0,291.0,-5.0,-16.0,-11.0,13226.0,9271.0,-833.0,-2620.0,-120.0,-136.0,151.0,1.0
2022-05-23 15:44:21.752850-07:00,1986.6,600.4,1441.5,1716.7,1301.6,1418.6,1476.4,1655.8,3421.3,3434.6,1994.5,1551.5,1604.0,3418.9,1303.4,1750.2,3415.3,3429.8,721.6,1342.2,888.2,622.2,1338.6,1876.2,3428.6,3423.7,919.4,997.9,1242.6,1671.9,1384.8,1168.2,3.0,-33.0,-8.0,11415.0,8582.0,6876.0,4148.0,-579.0,-296.0,452.0,-13.0,-38.0,-1.0,13283.0,9186.0,-923.0,-2600.0,-232.0,-216.0,242.0,1.0
2022-05-23 15:44:21.782514-07:00,1986.6,602.0,1444.2,1718.6,1301.6,1418.6,1476.4,1659.6,3421.3,3421.3,1990.5,1544.1,1604.0,3418.9,1303.4,1742.6,3427.4,3429.8,721.6,1342.2,895.7,621.4,1335.0,1876.2,3428.6,3423.7,919.4,997.9,1245.3,1673.8,1374.8,1168.2,-1.0,-40.0,11.0,11544.0,8488.0,6646.0,4353.0,-576.0,-97.0,431.0,-2.0,-31.0,-2.0,13351.0,9082.0,-1059.0,-2565.0,-178.0,-235.0,328.0,1.0
2022-05-23 15:44:21.872578-07:00,1991.5,602.0,1444.2,1718.6,1306.1,1413.1,1480.1,1659.6,3423.7,3421.3,1990.5,1544.1,1617.1,3422.5,1299.0,1742.6,3427.4,3429.8,724.9,1343.1,895.7,621.4,1335.0,1879.1,3428.6,3429.8,921.1,993.6,1245.3,1673.8,1374.8,1161.2,-32.0,35.0,1.0,11586.0,8465.0,6470.0,4547.0,-258.0,-112.0,501.0,-2.0,9.0,24.0,13392.0,9022.0,-1204.0,-2501.0,-41.0,-158.0,315.0,1.0
2022-05-23 15:44:21.962553-07:00,1991.5,598.7,1441.5,1710.0,1306.1,1413.1,1477.3,1647.3,3423.7,3429.8,1996.5,1545.0,1617.1,3422.5,1301.6,1741.6,3421.3,3423.7,724.9,1343.1,892.4,622.2,1339.5,1879.1,3423.7,3428.6,921.1,993.6,1239.1,1671.0,1372.1,1161.2,0.0,114.0,-9.0,11633.0,8447.0,6317.0,4675.0,-392.0,-144.0,208.0,12.0,50.0,9.0,13433.0,8962.0,-1314.0,-2438.0,-336.0,-126.0,238.0,1.0
2022-05-23 15:44:21.963615-07:00,1978.6,597.9,1441.5,1710.0,1297.2,1409.4,1477.3,1647.3,3421.3,3432.2,1996.5,1545.0,1596.4,3429.8,1301.6,1741.6,3421.3,3423.7,729.0,1340.4,892.4,622.2,1336.8,1873.2,3423.7,3428.6,922.0,994.5,1239.1,1671.0,1367.6,1163.0,9.0,63.0,-20.0,11790.0,8301.0,6159.0,4753.0,-696.0,-253.0,44.0,28.0,26.0,6.0,13563.0,8763.0,-1380.0,-2409.0,-675.0,-168.0,187.0,1.0
2022-05-23 15:44:21.992578-07:00,1978.6,597.9,1437.8,1713.8,1297.2,1409.4,1481.0,1652.0,3421.3,3432.2,1983.6,1539.4,1596.4,3429.8,1310.6,1742.6,3417.7,3424.9,729.0,1340.4,899.1,617.3,1336.8,1873.2,3433.4,3422.5,922.0,994.5,1239.1,1669.1,1367.6,1163.0,25.0,-11.0,5.0,11951.0,8181.0,5978.0,4790.0,-417.0,-343.0,60.0,37.0,-19.0,9.0,13698.0,8538.0,-1441.0,-2413.0,-475.0,-153.0,125.0,1.0
2022-05-23 15:44:22.052613-07:00,1976.6,593.1,1437.8,1713.8,1303.4,1420.4,1481.0,1652.0,3432.2,3428.6,1983.6,1539.4,1594.6,3422.5,1310.6,1742.6,3417.7,3424.9,718.4,1344.0,899.1,617.3,1342.2,1871.3,3433.4,3422.5,913.5,1004.8,1239.1,1669.1,1360.3,1163.0,-44.0,10.0,32.0,11926.0,8321.0,5831.0,4793.0,481.0,-308.0,481.0,34.0,-9.0,45.0,13742.0,8468.0,-1472.0,-2390.0,170.0,58.0,87.0,1.0
2022-05-23 15:44:22.082497-07:00,1976.6,593.1,1446.0,1698.6,1303.4,1420.4,1492.1,1693.8,3432.2,3428.6,1965.7,1539.4,1594.6,3422.5,1325.0,1773.3,3423.7,3429.8,718.4,1344.0,894.1,614.9,1342.2,1871.3,3424.9,3429.8,913.5,1004.8,1239.1,1664.4,1360.3,1163.0,-24.0,68.0,21.0,11834.0,8524.0,5704.0,4817.0,261.0,-259.0,324.0,26.0,6.0,48.0,13713.0,8530.0,-1470.0,-2334.0,100.0,121.0,49.0,1.0
2022-05-23 15:44:22.142609-07:00,1988.5,597.9,1446.0,1698.6,1316.9,1404.9,1492.1,1693.8,3422.5,3420.1,1965.7,1539.4,1606.8,3421.3,1325.0,1773.3,3423.7,3429.8,724.1,1338.6,894.1,614.9,1367.6,1895.8,3424.9,3429.8,922.8,1015.9,1239.1,1664.4,1362.1,1158.6,10.0,29.0,-21.0,11826.0,8689.0,5548.0,4723.0,304.0,-603.0,97.0,20.0,-24.0,-19.0,13734.0,8518.0,-1421.0,-2289.0,-95.0,126.0,-14.0,1.0
2022-05-23 15:44:22.292505-07:00,1988.5,597.9,1443.3,1701.4,1316.9,1398.5,1516.2,1741.6,3422.5,3420.1,1959.8,1537.6,1606.8,3424.9,1346.7,1783.9,3414.1,3421.3,724.9,1338.6,899.1,623.0,1367.6,1895.8,3423.7,3441.9,922.0,1015.9,1246.2,1668.2,1362.1,1158.6,24.0,33.0,26.0,11862.0,8787.0,5408.0,4612.0,-29.0,-316.0,66.0,19.0,29.0,2.0,13770.0,8466.0,-1386.0,-2283.0,-228.0,28.0,12.0,1.0
2022-05-23 15:44:22.323434-07:00,2003.5,601.2,1434.1,1701.4,1293.6,1398.5,1516.2,1741.6,3424.9,3424.9,1965.7,1537.6,1598.3,3424.9,1346.7,1783.9,3414.1,3421.3,724.9,1342.2,899.1,621.4,1367.6,1883.0,3423.7,3441.9,922.0,1035.7,1246.2,1658.7,1372.1,1159.4,-24.0,-49.0,-28.0,11892.0,8872.0,5247.0,4558.0,191.0,-589.0,224.0,33.0,2.0,27.0,13826.0,8388.0,-1330.0,-2269.0,-240.0,215.0,-7.0,1.0
2022-05-23 15:44:22.324571-07:00,2003.5,601.2,1434.1,1662.5,1293.6,1419.5,1566.5,1897.7,3424.9,3424.9,1965.7,1529.2,1598.3,3422.5,1334.1,1756.0,3426.2,3420.1,723.3,1342.2,892.4,621.4,1367.6,1883.0,3418.9,3429.8,926.2,1035.7,1239.1,1658.7,1372.1,1159.4,35.0,-81.0,30.0,11897.0,9061.0,4966.0,4488.0,257.0,-656.0,484.0,52.0,-94.0,7.0,13877.0,8334.0,-1236.0,-2208.0,-24.0,432.0,93.0,1.0
2022-05-23 15:44:22.352664-07:00,2035.4,597.9,1373.9,1662.5,1263.1,1419.5,1566.5,1897.7,3429.8,3428.6,1959.8,1529.2,1599.3,3422.5,1334.1,1756.0,3426.2,3420.1,723.3,1340.4,892.4,623.0,1389.4,1875.2,3418.9,3429.8,926.2,1060.8,1239.1,1640.7,1355.8,1150.6,79.0,114.0,74.0,11652.0,9580.0,4754.0,4277.0,1595.0,-759.0,295.0,8.0,16.0,-56.0,13781.0,8552.0,-1081.0,-2050.0,997.0,582.0,61.0,1.0
2022-05-23 15:44:22.382508-07:00,2035.4,597.9,1373.9,1646.4,1263.1,1422.2,1649.2,2101.7,3429.8,3428.6,1959.8,1532.0,1599.3,3424.9,1301.6,1743.5,3427.4,3420.1,721.6,1340.4,905.0,623.0,1389.4,1875.2,3437.0,3429.8,979.0,1060.8,1239.1,1640.7,1355.8,1150.6,-21.0,81.0,4.0,11414.0,9955.0,4850.0,3942.0,1067.0,-368.0,-631.0,-26.0,37.0,33.0,13635.0,8840.0,-926.0,-1876.0,475.0,499.0,41.0,1.0
2022-05-23 15:44:22.442680-07:00,2235.3,656.2,1353.1,1619.9,1243.5,1422.2,1649.2,2101.7,3423.7,3416.5,1949.9,1526.4,1595.5,3424.9,1301.6,1743.5,3427.4,3420.1,721.6,1338.6,896.6,635.9,1428.6,1870.3,3437.0,3429.8,979.0,1076.4,1242.6,1635.0,1360.3,1142.7,-1.0,-1.0,46.0,11176.0,10240.0,5073.0,3597.0,1276.0,201.0,-489.0,-48.0,7.0,-58.0,13478.0,9112.0,-792.0,-1764.0,889.0,350.0,-76.0,1.0
2022-05-23 15:44:22.502686-07:00,2235.3,656.2,1353.1,1619.9,1240.8,1401.2,1775.2,2192.2,3423.7,3416.5,1949.9,1526.4,1604.9,3429.8,1288.2,1723.4,3426.2,3421.3,724.9,1354.0,896.6,635.9,1428.6,1870.3,3429.8,3423.7,974.8,1073.8,1242.6,1635.0,1360.3,1142.7,-31.0,-11.0,-36.0,10889.0,10403.0,5489.0,3394.0,789.0,550.0,-735.0,-50.0,11.0,-29.0,13302.0,9386.0,-707.0,-1707.0,434.0,157.0,-70.0,1.0
2022-05-23 15:44:22.532845-07:00,2225.0,679.9,1337.7,1619.0,1240.8,1401.2,1775.2,2192.2,3429.8,3431.0,1941.0,1506.9,1604.9,3429.8,1288.2,1723.4,3426.2,3421.3,724.9,1354.0,897.4,644.0,1418.6,1856.7,3429.8,3423.7,974.8,1073.8,1240.8,1626.5,1338.6,1137.5,-57.0,-134.0,-70.0,10727.0,10437.0,5793.0,3299.0,456.0,307.0,-193.0,-30.0,-10.0,-35.0,13223.0,9501.0,-673.0,-1693.0,352.0,-1.0,18.0,1.0
2022-05-23 15:44:22.593238-07:00,2225.0,679.9,1337.7,1619.0,1225.7,1365.7,1728.2,2135.1,3429.8,3431.0,1941.0,1506.9,1597.4,3420.1,1272.1,1715.8,3429.8,3417.7,729.0,1338.6,897.4,644.0,1418.6,1856.7,3431.0,3423.7,954.3,1059.9,1240.8,1626.5,1338.6,1137.5,-35.0,28.0,-56.0,10562.0,10589.0,5829.0,3283.0,418.0,-96.0,193.0,1.0,20.0,-4.0,13120.0,9640.0,-715.0,-1693.0,257.0,-93.0,22.0,1.0
2022-05-23 15:44:22.652660-07:00,2183.0,659.5,1325.9,1604.0,1225.7,1365.7,1728.2,2135.1,3427.4,3423.7,1855.7,1485.6,1597.4,3420.1,1272.1,1715.8,3429.8,3417.7,729.0,1338.6,899.1,635.9,1377.5,1872.3,3431.0,3423.7,954.3,1059.9,1239.9,1619.9,1323.2,1133.1,35.0,42.0,-17.0,10551.0,10671.0,5717.0,3248.0,-51.0,-258.0,159.0,3.0,39.0,-38.0,13094.0,9667.0,-768.0,-1720.0,-99.0,-193.0,-4.0,1.0
2022-05-23 15:44:22.682518-07:00,2158.5,659.5,1325.9,1604.0,1220.4,1360.3,1617.1,2063.5,3423.7,3423.7,1855.7,1485.6,1597.4,3424.9,1253.3,1724.4,3418.9,3431.0,733.2,1336.8,899.1,635.9,1377.5,1875.2,3423.7,3429.8,933.0,1054.8,1239.9,1619.9,1323.2,1120.9,-1.0,-19.0,31.0,10587.0,10653.0,5654.0,3299.0,-64.0,8.0,154.0,9.0,-29.0,34.0,13113.0,9626.0,-832.0,-1773.0,6.0,-161.0,1.0,1.0
2022-05-23 15:44:22.743125-07:00,2158.5,656.2,1288.2,1585.2,1220.4,1360.3,1617.1,1960.8,3423.7,3421.3,1770.4,1462.6,1597.4,3424.9,1253.3,1708.1,3423.7,3431.0,733.2,1336.8,898.3,636.7,1335.9,1875.2,3432.2,3429.8,933.0,1054.8,1245.3,1604.0,1311.5,1120.9,-27.0,5.0,55.0,10536.0,10736.0,5612.0,3268.0,346.0,-147.0,60.0,1.0,-36.0,50.0,13076.0,9666.0,-878.0,-1801.0,262.0,-55.0,-28.0,1.0
2022-05-23 15:44:22.802680-07:00,2153.4,656.2,1288.2,1585.2,1221.3,1334.1,1555.3,1960.8,3422.5,3421.3,1770.4,1462.6,1604.9,3429.8,1218.6,1708.1,3423.7,3432.2,724.9,1329.6,898.3,636.7,1335.9,1867.4,3432.2,3432.2,919.4,1049.6,1245.3,1604.0,1311.5,1124.4,-1.0,21.0,56.0,10453.0,10829.0,5631.0,3193.0,299.0,13.0,-82.0,11.0,-22.0,37.0,13019.0,9739.0,-892.0,-1812.0,214.0,17.0,-25.0,1.0
2022-05-23 15:44:22.832727-07:00,2153.4,644.9,1267.6,1588.9,1221.3,1334.1,1555.3,1924.3,3422.5,3429.8,1719.6,1452.5,1604.9,3429.8,1218.6,1708.1,3421.3,3432.2,724.9,1329.6,900.0,635.1,1322.3,1867.4,3426.2,3432.2,919.4,1049.6,1245.3,1598.3,1302.5,1124.4,-14.0,-10.0,43.0,10344.0,10925.0,5685.0,3125.0,378.0,32.0,16.0,10.0,0.0,29.0,12962.0,9816.0,-894.0,-1804.0,304.0,44.0,-8.0,1.0
2022-05-23 15:44:22.923555-07:00,2142.2,644.9,1267.6,1588.9,1210.6,1331.4,1528.3,1924.3,3414.1,3429.8,1719.6,1452.5,1597.4,3429.8,1202.7,1708.1,3421.3,3424.9,742.2,1326.8,900.0,635.1,1322.3,1862.5,3426.2,3423.7,906.7,1034.9,1245.3,1598.3,1302.5,1118.2,-1.0,-30.0,5.0,10259.0,11009.0,5682.0,3115.0,343.0,-9.0,160.0,2.0,-23.0,-4.0,12883.0,9924.0,-897.0,-1779.0,346.0,44.0,38.0,1.0
2022-05-23 15:44:22.952643-07:00,2142.2,644.0,1260.4,1575.8,1210.6,1331.4,1528.3,1896.7,3414.1,3429.8,1683.3,1436.9,1597.4,3429.8,1202.7,1700.5,3417.7,3424.9,742.2,1326.8,900.0,633.5,1295.4,1862.5,3426.2,3423.7,906.7,1034.9,1253.3,1594.6,1296.3,1118.2,5.0,55.0,5.0,10148.0,11120.0,5670.0,3104.0,148.0,58.0,101.0,8.0,35.0,7.0,12800.0,10035.0,-916.0,-1748.0,186.0,10.0,47.0,1.0
2022-05-23 15:44:22.982524-07:00,2133.1,634.3,1260.4,1575.8,1200.0,1318.7,1517.1,1896.7,3423.7,3431.0,1683.3,1436.9,1597.4,3424.9,1192.9,1700.5,3417.7,3427.4,730.7,1324.1,900.0,633.5,1289.1,1860.6,3426.2,3429.8,898.3,1042.6,1253.3,1594.6,1299.0,1114.7,-2.0,40.0,8.0,10136.0,11125.0,5667.0,3133.0,-71.0,39.0,-12.0,14.0,13.0,0.0,12787.0,10053.0,-926.0,-1729.0,-33.0,15.0,12.0,1.0
2022-05-23 15:44:23.042541-07:00,2133.1,634.3,1256.0,1559.0,1200.0,1318.7,1500.4,1866.4,3423.7,3431.0,1668.2,1434.1,1597.4,3424.9,1189.4,1690.0,3422.5,3423.7,730.7,1324.1,897.4,635.9,1289.1,1860.6,3423.7,3423.7,898.3,1042.6,1245.3,1583.3,1299.0,1114.7,-4.0,3.0,-5.0,10138.0,11105.0,5693.0,3151.0,14.0,108.0,-50.0,4.0,0.0,13.0,12792.0,10049.0,-920.0,-1723.0,38.0,15.0,-5.0,1.0
2022-05-23 15:44:23.132513-07:00,2129.0,632.7,1256.0,1559.0,1190.3,1322.3,1500.4,1866.4,3418.9,3432.2,1668.2,1434.1,1604.0,3426.2,1189.4,1690.0,3422.5,3423.7,729.0,1326.8,897.4,635.9,1277.4,1865.4,3423.7,3423.7,894.1,1034.9,1245.3,1583.3,1288.2,1111.2,6.0,4.0,7.0,10122.0,11102.0,5722.0,3160.0,-17.0,68.0,3.0,4.0,0.0,-4.0,12780.0,10065.0,-918.0,-1722.0,33.0,-8.0,-16.0,1.0
2022-05-23 15:44:23.193290-07:00,2129.0,632.7,1249.7,1566.5,1190.3,1322.3,1494.0,1843.0,3418.9,3432.2,1654.9,1434.1,1604.0,3426.2,1185.9,1681.4,3420.1,3426.2,729.0,1326.8,896.6,638.4,1277.4,1865.4,3428.6,3428.6,894.1,1034.9,1247.1,1581.4,1288.2,1111.2,-15.0,-11.0,3.0,10120.0,11091.0,5730.0,3191.0,13.0,11.0,36.0,3.0,-13.0,10.0,12777.0,10068.0,-921.0,-1728.0,7.0,-13.0,7.0,1.0
2022-05-23 15:44:23.194370-07:00,2122.0,634.3,1249.7,1566.5,1190.3,1325.0,1494.0,1843.0,3432.2,3426.2,1654.9,1434.1,1598.3,3427.4,1185.9,1681.4,3420.1,3426.2,728.2,1325.0,896.6,638.4,1275.6,1851.8,3428.6,3428.6,894.1,1033.2,1247.1,1581.4,1281.9,1110.4,10.0,15.0,20.0,10118.0,11100.0,5712.0,3199.0,7.0,41.0,29.0,4.0,6.0,-2.0,12775.0,10068.0,-931.0,-1730.0,25.0,-27.0,13.0,1.0
2022-05-23 15:44:23.252645-07:00,2122.0,634.3,1245.3,1563.7,1190.3,1326.8,1478.3,1831.3,3432.2,3426.2,1651.1,1434.1,1598.3,3434.6,1179.7,1680.5,3422.5,3418.9,731.5,1325.0,894.1,633.5,1275.6,1851.8,3426.2,3432.2,884.8,1033.2,1245.3,1579.6,1281.9,1110.4,-6.0,1.0,8.0,10116.0,11090.0,5714.0,3234.0,-17.0,38.0,48.0,1.0,-7.0,17.0,12772.0,10071.0,-945.0,-1733.0,-3.0,-20.0,9.0,1.0
2022-05-23 15:44:23.283028-07:00,2113.9,633.5,1242.6,1563.7,1192.9,1326.8,1478.3,1831.3,3426.2,3427.4,1647.3,1434.1,1596.4,3434.6,1179.7,1680.5,3422.5,3418.9,731.5,1325.0,894.1,632.7,1269.4,1854.7,3426.2,3432.2,884.8,1031.4,1245.3,1580.5,1285.5,1108.6,-3.0,34.0,-5.0,10116.0,11101.0,5696.0,3230.0,-12.0,-163.0,28.0,7.0,11.0,17.0,12780.0,10060.0,-945.0,-1735.0,-71.0,10.0,-16.0,1.0
2022-05-23 15:44:23.373643-07:00,2113.9,633.5,1242.6,1560.9,1192.9,1316.9,1470.9,1820.7,3426.2,3427.4,1647.3,1433.2,1596.4,3426.2,1180.6,1680.5,3431.0,3422.5,731.5,1325.0,901.7,632.7,1269.4,1854.7,3428.6,3423.7,887.3,1031.4,1247.1,1580.5,1285.5,1108.6,25.0,-5.0,30.0,10154.0,11093.0,5659.0,3202.0,-36.0,1.0,-32.0,11.0,-8.0,-6.0,12806.0,10028.0,-935.0,-1737.0,-56.0,22.0,-4.0,1.0
2022-05-23 15:44:23.402642-07:00,2104.8,631.9,1239.1,1560.9,1189.4,1316.9,1470.9,1820.7,3429.8,3418.9,1637.9,1433.2,1596.4,3426.2,1180.6,1680.5,3431.0,3422.5,731.5,1318.7,901.7,631.9,1261.3,1848.9,3428.6,3423.7,887.3,1033.2,1247.1,1572.1,1281.0,1105.1,5.0,3.0,-4.0,10152.0,11083.0,5672.0,3217.0,2.0,49.0,13.0,15.0,3.0,5.0,12810.0,10024.0,-929.0,-1729.0,17.0,25.0,4.0,1.0
2022-05-23 15:44:23.432641-07:00,2104.8,631.9,1239.1,1551.5,1189.4,1313.3,1477.3,1833.3,3429.8,3418.9,1637.9,1424.1,1596.4,3423.7,1175.3,1679.5,3422.5,3417.7,732.3,1318.7,894.1,631.9,1261.3,1848.9,3426.2,3437.0,889.8,1033.2,1246.2,1572.1,1281.0,1105.1,-9.0,13.0,-8.0,10151.0,11076.0,5680.0,3230.0,-13.0,3.0,-16.0,3.0,10.0,10.0,12811.0,10024.0,-928.0,-1725.0,-4.0,-8.0,-7.0,1.0
2022-05-23 15:44:23.492547-07:00,2111.8,623.0,1242.6,1554.3,1192.9,1313.3,1477.3,1833.3,3418.9,3427.4,1632.2,1427.7,1595.5,3423.7,1175.3,1679.5,3422.5,3417.7,732.3,1325.0,899.1,635.1,1259.6,1851.8,3426.2,3437.0,889.8,1034.9,1245.3,1570.2,1281.9,1102.5,-13.0,18.0,4.0,10162.0,11073.0,5677.0,3214.0,51.0,-35.0,-95.0,-8.0,6.0,7.0,12813.0,10020.0,-926.0,-1739.0,-1.0,-10.0,-40.0,1.0
2022-05-23 15:44:23.612838-07:00,2111.8,623.0,1242.6,1554.3,1185.9,1300.7,1453.4,1811.0,3418.9,3427.4,1632.2,1427.7,1595.5,3424.9,1166.5,1677.6,3429.8,3420.1,725.8,1321.4,899.1,635.1,1259.6,1851.8,3427.4,3431.0,883.9,1028.0,1245.3,1570.2,1281.9,1102.5,0.0,-41.0,8.0,10167.0,11069.0,5696.0,3180.0,59.0,-30.0,-59.0,-4.0,-35.0,0.0,12807.0,10025.0,-915.0,-1754.0,26.0,0.0,-22.0,1.0
2022-05-23 15:44:23.643135-07:00,2100.7,628.6,1238.2,1539.4,1185.9,1300.7,1453.4,1811.0,3429.8,3418.9,1638.8,1423.1,1595.5,3424.9,1166.5,1677.6,3429.8,3420.1,725.8,1321.4,900.0,629.5,1255.1,1851.8,3427.4,3431.0,883.9,1028.0,1246.2,1570.2,1276.5,1097.3,-2.0,-10.0,0.0,10156.0,11083.0,5696.0,3165.0,-39.0,-11.0,66.0,-3.0,-16.0,-2.0,12798.0,10035.0,-921.0,-1761.0,0.0,-40.0,8.0,1.0
2022-05-23 15:44:23.643944-07:00,2100.7,628.6,1238.2,1539.4,1185.0,1312.4,1446.0,1797.4,3429.8,3418.9,1638.8,1423.1,1598.3,3418.9,1177.9,1671.0,3423.7,3423.7,728.2,1322.3,900.0,629.5,1255.1,1851.8,3429.8,3427.4,882.3,1028.0,1246.2,1570.2,1276.5,1097.3,8.0,14.0,11.0,10174.0,11077.0,5667.0,3181.0,0.0,-63.0,21.0,5.0,-2.0,6.0,12805.0,10023.0,-943.0,-1766.0,-3.0,-42.0,21.0,1.0
2022-05-23 15:44:23.712918-07:00,2100.7,627.8,1231.0,1547.8,1185.0,1312.4,1446.0,1797.4,3431.0,3428.6,1621.8,1421.3,1598.3,3418.9,1177.9,1671.0,3423.7,3423.7,728.2,1322.3,900.8,640.8,1257.8,1848.9,3429.8,3427.4,882.3,1028.0,1248.0,1573.9,1286.4,1099.9,-2.0,27.0,13.0,10175.0,11078.0,5671.0,3164.0,-36.0,-2.0,-31.0,17.0,17.0,17.0,12805.0,10020.0,-955.0,-1774.0,-22.0,-17.0,-9.0,1.0
2022-05-23 15:44:23.762575-07:00,2100.7,627.8,1231.0,1547.8,1185.0,1316.0,1441.5,1782.0,3431.0,3428.6,1621.8,1421.3,1597.4,3422.5,1163.8,1676.7,3426.2,3421.3,725.8,1316.9,900.8,640.8,1257.8,1848.9,3427.4,3427.4,884.8,1028.8,1248.0,1573.9,1286.4,1099.9,-4.0,-3.0,26.0,10184.0,11077.0,5660.0,3158.0,33.0,-63.0,28.0,11.0,-13.0,22.0,12810.0,10013.0,-954.0,-1781.0,7.0,-2.0,-19.0,1.0
2022-05-23 15:44:23.822680-07:00,2103.7,617.3,1242.6,1549.7,1185.0,1316.0,1441.5,1771.4,3420.1,3431.0,1630.3,1417.6,1597.4,3422.5,1163.8,1671.0,3423.7,3421.3,725.8,1316.9,896.6,634.3,1248.8,1851.8,3429.8,3427.4,884.8,1028.8,1239.9,1570.2,1274.7,1097.3,6.0,-13.0,48.0,10154.0,11127.0,5632.0,3134.0,317.0,-14.0,76.0,0.0,-13.0,14.0,12777.0,10055.0,-953.0,-1776.0,246.0,40.0,-2.0,1.0
2022-05-23 15:44:23.852692-07:00,2093.7,617.3,1242.6,1549.7,1178.8,1303.4,1442.4,1771.4,3428.6,3431.0,1630.3,1417.6,1597.4,3431.0,1166.5,1671.0,3423.7,3427.4,731.5,1316.9,896.6,634.3,1248.8,1847.9,3429.8,3424.9,878.0,1028.8,1239.9,1570.2,1274.7,1101.7,-2.0,6.0,0.0,10040.0,11218.0,5654.0,3135.0,234.0,122.0,92.0,1.0,-5.0,8.0,12708.0,10149.0,-946.0,-1748.0,210.0,72.0,20.0,1.0
2022-05-23 15:44:23.882580-07:00,2093.7,627.0,1233.7,1545.0,1178.8,1303.4,1442.4,1776.2,3428.6,3426.2,1619.9,1414.0,1597.4,3431.0,1166.5,1667.2,3428.6,3427.4,731.5,1316.9,898.3,634.3,1243.5,1847.9,3429.8,3424.9,878.0,1028.8,1243.5,1564.6,1273.9,1101.7,-4.0,17.0,-27.0,9991.0,11241.0,5676.0,3168.0,28.0,100.0,19.0,9.0,8.0,-5.0,12681.0,10188.0,-936.0,-1720.0,47.0,51.0,26.0,1.0
2022-05-23 15:44:23.942549-07:00,2091.6,627.0,1233.7,1545.0,1178.8,1313.3,1433.2,1776.2,3424.9,3426.2,1619.9,1414.0,1604.9,3429.8,1164.7,1667.2,3428.6,3420.1,732.3,1312.4,898.3,634.3,1243.5,1842.0,3429.8,3424.9,877.2,1025.4,1243.5,1564.6,1273.9,1100.8,0.0,10.0,-20.0,9990.0,11231.0,5689.0,3183.0,-32.0,39.0,-13.0,5.0,10.0,-2.0,12682.0,10190.0,-931.0,-1708.0,-11.0,13.0,6.0,1.0
2022-05-23 15:44:23.972751-07:00,2091.6,622.2,1231.0,1534.8,1178.8,1313.3,1433.2,1763.7,3424.9,3432.2,1618.1,1416.7,1604.9,3429.8,1164.7,1662.5,3418.9,3420.1,732.3,1312.4,898.3,632.7,1245.3,1842.0,3432.2,3424.9,877.2,1025.4,1231.9,1560.9,1287.3,1100.8,3.0,0.0,-7.0,9993.0,11228.0,5693.0,3179.0,4.0,-44.0,-25.0,3.0,5.0,-11.0,12681.0,10190.0,-928.0,-1711.0,-9.0,-5.0,-26.0,1.0
2022-05-23 15:44:24.033167-07:00,2105.8,623.8,1231.0,1534.8,1168.2,1294.5,1441.5,1763.7,3423.7,3424.9,1618.1,1416.7,1588.0,3429.8,1172.6,1662.5,3418.9,3423.7,725.8,1319.6,898.3,632.7,1238.2,1840.1,3432.2,3433.4,874.7,1016.8,1231.9,1560.9,1275.6,1092.9,-9.0,-10.0,3.0,10006.0,11225.0,5687.0,3161.0,-10.0,-54.0,-12.0,0.0,-8.0,9.0,12686.0,10182.0,-929.0,-1725.0,-23.0,-32.0,-17.0,1.0
2022-05-23 15:44:24.092548-07:00,2105.8,623.8,1229.3,1540.3,1168.2,1294.5,1422.2,1758.9,3423.7,3424.9,1617.1,1413.1,1588.0,3429.8,1163.8,1670.1,3434.6,3420.1,725.8,1319.6,898.3,630.3,1238.2,1840.1,3427.4,3428.6,874.7,1016.8,1246.2,1569.3,1275.6,1092.9,-5.0,-2.0,17.0,10012.0,11235.0,5669.0,3135.0,21.0,-75.0,7.0,4.0,-2.0,15.0,12693.0,10170.0,-937.0,-1735.0,-26.0,-29.0,5.0,1.0
2022-05-23 15:44:24.122802-07:00,2090.6,621.4,1229.3,1540.3,1177.9,1307.9,1422.2,1758.9,3421.3,3428.6,1617.1,1413.1,1594.6,3427.4,1163.8,1670.1,3434.6,3420.1,724.1,1326.8,898.3,630.3,1240.8,1840.1,3427.4,3428.6,875.5,1021.1,1246.2,1569.3,1273.0,1098.2,-5.0,-4.0,20.0,10030.0,11226.0,5654.0,3139.0,-86.0,22.0,9.0,6.0,-11.0,19.0,12709.0,10149.0,-948.0,-1737.0,-74.0,-21.0,21.0,1.0
2022-05-23 15:44:24.182399-07:00,2090.6,621.4,1235.5,1532.9,1177.9,1307.9,1423.1,1767.5,3421.3,3428.6,1610.5,1411.3,1594.6,3427.4,1162.1,1655.8,3420.1,3423.7,724.1,1326.8,891.5,630.3,1240.8,1840.1,3418.9,3431.0,875.5,1021.1,1237.3,1561.8,1273.0,1098.2,0.0,20.0,16.0,10042.0,11216.0,5645.0,3149.0,-3.0,-32.0,32.0,11.0,2.0,24.0,12723.0,10131.0,-956.0,-1733.0,-11.0,3.0,15.0,1.0
2022-05-23 15:44:24.242470-07:00,2088.6,625.4,1235.5,1532.9,1181.5,1308.8,1423.1,1767.5,3426.2,3432.2,1610.5,1411.3,1601.1,3433.4,1162.1,1655.8,3420.1,3423.7,724.9,1325.0,891.5,630.3,1231.0,1832.3,3418.9,3431.0,877.2,1015.9,1237.3,1561.8,1266.7,1092.9,6.0,28.0,7.0,10049.0,11220.0,5626.0,3150.0,18.0,-23.0,17.0,9.0,13.0,2.0,12730.0,10123.0,-956.0,-1728.0,6.0,11.0,-2.0,1.0
2022-05-23 15:44:24.303369-07:00,2088.6,625.4,1239.1,1529.2,1181.5,1303.4,1424.1,1745.4,3426.2,3432.2,1604.0,1414.9,1601.1,3429.8,1156.8,1665.3,3421.3,3424.9,729.0,1325.0,893.2,629.5,1231.0,1832.3,3429.8,3427.4,873.8,1015.9,1246.2,1562.7,1266.7,1092.9,-1.0,6.0,-1.0,10055.0,11213.0,5632.0,3145.0,-33.0,2.0,-38.0,5.0,1.0,0.0,12730.0,10124.0,-948.0,-1728.0,-8.0,16.0,-21.0,1.0
2022-05-23 15:44:24.332618-07:00,2084.6,627.0,1223.9,1529.2,1170.0,1303.4,1424.1,1745.4,3427.4,3427.4,1592.7,1414.9,1600.2,3429.8,1156.8,1665.3,3421.3,3424.9,729.0,1309.7,893.2,634.3,1228.4,1842.0,3429.8,3427.4,873.8,1021.1,1246.2,1551.5,1273.9,1092.9,-10.0,-6.0,0.0,10063.0,11202.0,5643.0,3136.0,5.0,7.0,-42.0,-6.0,-4.0,11.0,12731.0,10125.0,-932.0,-1729.0,8.0,23.0,-26.0,1.0
2022-05-23 15:44:24.422604-07:00,2084.6,627.0,1223.9,1532.0,1170.0,1300.7,1421.3,1732.0,3427.4,3427.4,1592.7,1414.0,1600.2,3431.0,1156.8,1656.8,3422.5,3429.8,723.3,1309.7,895.7,634.3,1228.4,1842.0,3428.6,3427.4,870.5,1021.1,1247.1,1551.5,1273.9,1092.9,-5.0,0.0,7.0,10066.0,11198.0,5655.0,3120.0,-6.0,-10.0,-50.0,-2.0,-7.0,6.0,12728.0,10128.0,-919.0,-1734.0,-1.0,10.0,-20.0,1.0
2022-05-23 15:44:24.424078-07:00,2080.6,627.8,1223.9,1532.0,1171.8,1300.7,1421.3,1732.0,3423.7,3427.4,1592.7,1414.0,1596.4,3431.0,1156.8,1656.8,3422.5,3429.8,723.3,1316.9,895.7,631.9,1219.5,1839.1,3428.6,3427.4,870.5,1018.5,1247.1,1562.7,1281.0,1095.6,-1.0,-11.0,17.0,10075.0,11192.0,5656.0,3113.0,-15.0,-20.0,16.0,11.0,-25.0,15.0,12730.0,10126.0,-917.0,-1736.0,-2.0,3.0,7.0,1.0
2022-05-23 15:44:24.483332-07:00,2080.6,627.8,1223.9,1534.8,1171.8,1299.8,1408.5,1719.6,3423.7,3427.4,1592.7,1415.8,1596.4,3421.3,1145.4,1663.4,3417.7,3424.9,723.3,1316.9,894.1,631.9,1219.5,1839.1,3429.8,3427.4,871.3,1018.5,1246.2,1562.7,1281.0,1095.6,-6.0,23.0,7.0,10074.0,11200.0,5649.0,3097.0,61.0,-53.0,-29.0,3.0,22.0,15.0,12733.0,10123.0,-911.0,-1728.0,12.0,27.0,3.0,1.0
2022-05-23 15:44:24.542567-07:00,2067.5,615.7,1227.5,1531.0,1173.5,1299.8,1408.5,1719.6,3439.5,3426.2,1591.7,1407.6,1596.4,3421.3,1145.4,1663.4,3417.7,3424.9,723.3,1320.5,893.2,630.3,1220.4,1843.0,3429.8,3427.4,871.3,1016.8,1237.3,1561.8,1269.4,1092.1,5.0,0.0,6.0,10076.0,11204.0,5646.0,3082.0,13.0,-13.0,-9.0,8.0,6.0,4.0,12732.0,10126.0,-904.0,-1722.0,19.0,14.0,-7.0,1.0
2022-05-23 15:44:24.572780-07:00,2067.5,615.7,1227.5,1531.0,1170.0,1304.3,1394.8,1702.4,3439.5,3426.2,1591.7,1407.6,1593.6,3427.4,1155.0,1663.4,3422.5,3429.8,729.9,1309.7,893.2,630.3,1220.4,1843.0,3435.8,3429.8,869.6,1009.9,1237.3,1561.8,1269.4,1092.1,-2.0,11.0,0.0,10074.0,11206.0,5642.0,3089.0,-31.0,7.0,36.0,11.0,4.0,17.0,12729.0,10131.0,-904.0,-1719.0,-8.0,-5.0,-5.0,1.0
2022-05-23 15:44:24.633332-07:00,2062.5,623.0,1223.9,1531.0,1170.0,1304.3,1394.8,1702.4,3428.6,3418.9,1593.6,1405.8,1593.6,3427.4,1155.0,1663.4,3422.5,3429.8,729.9,1309.7,891.5,631.9,1219.5,1838.2,3435.8,3429.8,869.6,1009.9,1241.7,1565.5,1280.1,1092.9,-42.0,42.0,-23.0,10099.0,11211.0,5583.0,3098.0,-162.0,-204.0,160.0,9.0,2.0,39.0,12749.0,10105.0,-900.0,-1726.0,-152.0,-7.0,-27.0,1.0
2022-05-23 15:44:24.722784-07:00,2062.5,623.0,1223.9,1531.0,1168.2,1322.3,1484.7,1733.9,3428.6,3418.9,1593.6,1405.8,1601.1,3422.5,1162.1,1660.6,3424.9,3432.2,724.9,1321.4,891.5,631.9,1219.5,1838.2,3432.2,3433.4,884.8,1018.5,1241.7,1565.5,1280.1,1092.9,-116.0,111.0,-127.0,10257.0,11232.0,5310.0,2981.0,-262.0,-1173.0,274.0,-14.0,116.0,-6.0,12833.0,9994.0,-875.0,-1762.0,-463.0,-79.0,-109.0,1.0
2022-05-23 15:44:24.724028-07:00,2066.5,635.1,1244.4,1528.3,1168.2,1322.3,1484.7,1733.9,3418.9,3427.4,1590.8,1408.5,1601.1,3422.5,1162.1,1660.6,3424.9,3432.2,724.9,1321.4,906.7,640.0,1218.6,1842.0,3432.2,3433.4,884.8,1018.5,1253.3,1568.3,1279.2,1092.9,168.0,-88.0,71.0,10863.0,10905.0,4869.0,2796.0,-2139.0,-718.0,-320.0,35.0,-38.0,-166.0,13156.0,9541.0,-830.0,-1904.0,-1651.0,-228.0,-163.0,1.0
2022-05-23 15:44:24.782517-07:00,2066.5,635.1,1244.4,1528.3,1170.0,1372.1,1686.2,1890.9,3418.9,3427.4,1590.8,1408.5,1592.7,3424.9,1167.4,1660.6,3426.2,3429.8,725.8,1321.4,906.7,640.0,1218.6,1842.0,3431.0,3431.0,939.8,1015.9,1253.3,1568.3,1279.2,1092.9,-21.0,-19.0,2.0,11310.0,10461.0,4763.0,2895.0,-1081.0,-77.0,-1.0,-8.0,37.0,-32.0,13408.0,9159.0,-834.0,-2020.0,-760.0,-253.0,-91.0,1.0
2022-05-23 15:44:24.949381-07:00,2075.5,632.7,1261.3,1532.9,1170.0,1372.1,1686.2,1962.8,3429.8,3434.6,1590.8,1409.4,1592.7,3424.9,1167.4,1672.9,3426.2,3429.8,725.8,1321.4,905.9,631.1,1216.8,1836.2,3439.5,3431.0,939.8,1015.9,1237.3,1562.7,1275.6,1093.8,14.0,-37.0,-27.0,11690.0,9981.0,4708.0,3163.0,-1779.0,445.0,-25.0,-9.0,-83.0,32.0,13642.0,8774.0,-883.0,-2137.0,-1169.0,-321.0,0.0,1.0
2022-05-23 15:44:24.950497-07:00,2094.7,632.7,1261.3,1532.9,1163.8,1396.7,1710.0,1962.8,3423.7,3434.6,1590.8,1409.4,1589.9,3418.9,1181.5,1672.9,3426.2,3417.7,730.7,1323.2,905.9,631.1,1216.8,1845.9,3439.5,3427.4,956.0,1016.8,1237.3,1562.7,1275.6,1092.9,-11.0,1.0,48.0,12004.0,9549.0,4708.0,3316.0,-926.0,161.0,-199.0,-32.0,30.0,-17.0,13812.0,8469.0,-931.0,-2253.0,-544.0,-322.0,-116.0,1.0
2022-05-23 15:44:24.951244-07:00,2094.7,640.0,1286.4,1553.4,1163.8,1396.7,1710.0,1954.8,3423.7,3422.5,1629.4,1419.5,1589.9,3418.9,1181.5,1664.4,3414.1,3417.7,730.7,1323.2,893.2,628.6,1209.7,1845.9,3426.2,3427.4,956.0,1016.8,1239.9,1574.9,1285.5,1092.9,-22.0,-105.0,60.0,12204.0,9144.0,4809.0,3574.0,-1094.0,780.0,16.0,0.0,-98.0,102.0,13916.0,8251.0,-1023.0,-2380.0,-512.0,-283.0,-19.0,1.0
2022-05-23 15:44:24.992549-07:00,2097.7,640.0,1286.4,1553.4,1166.5,1398.5,1693.8,1954.8,3427.4,3422.5,1629.4,1419.5,1580.5,3434.6,1193.8,1664.4,3414.1,3421.3,718.4,1314.2,893.2,628.6,1209.7,1842.0,3426.2,3429.8,957.7,1003.9,1239.9,1574.9,1285.5,1091.2,-24.0,13.0,26.0,12276.0,8919.0,4917.0,3743.0,-590.0,497.0,-131.0,23.0,3.0,68.0,13972.0,8131.0,-1052.0,-2447.0,-309.0,-93.0,-56.0,1.0
2022-05-23 15:44:25.022706-07:00,2097.7,639.2,1316.0,1549.7,1166.5,1398.5,1693.8,1939.0,3427.4,3429.8,1805.2,1464.4,1580.5,3434.6,1193.8,1688.1,3414.1,3421.3,718.4,1314.2,898.3,629.5,1256.0,1842.0,3426.2,3429.8,957.7,1003.9,1240.8,1575.8,1300.7,1091.2,-49.0,-31.0,-26.0,12376.0,8656.0,5020.0,3891.0,-490.0,396.0,-5.0,36.0,-106.0,77.0,14036.0,8006.0,-1050.0,-2495.0,-204.0,-37.0,-80.0,1.0
2022-05-23 15:44:25.082463-07:00,2084.6,632.7,1316.0,1549.7,1165.6,1397.6,1666.3,1939.0,3427.4,3423.7,1805.2,1464.4,1574.9,3427.4,1234.6,1688.1,3414.1,3416.5,724.1,1323.2,898.3,629.5,1316.9,1834.3,3426.2,3423.7,943.2,1043.5,1240.8,1575.8,1297.2,1089.5,4.0,93.0,12.0,12390.0,8628.0,5048.0,3873.0,324.0,-272.0,-307.0,-8.0,81.0,-48.0,14026.0,8019.0,-985.0,-2537.0,44.0,94.0,-197.0,1.0
2022-05-23 15:44:25.143246-07:00,2084.6,632.7,1315.1,1559.0,1165.6,1397.6,1664.4,1936.1,3427.4,3423.7,1920.3,1500.4,1574.9,3427.4,1303.4,1709.1,3427.4,3416.5,724.1,1323.2,898.3,618.9,1316.9,1834.3,3435.8,3426.2,943.2,1043.5,1247.1,1573.0,1297.2,1089.5,32.0,-13.0,29.0,12436.0,8586.0,5095.0,3754.0,-467.0,187.0,-216.0,13.0,-30.0,-61.0,14078.0,7914.0,-947.0,-2590.0,-398.0,-85.0,-74.0,1.0
2022-05-23 15:44:25.202764-07:00,2086.6,636.7,1315.1,1559.0,1160.3,1413.1,1664.4,1936.1,3422.5,3429.8,1920.3,1500.4,1593.6,3429.8,1303.4,1709.1,3427.4,3416.5,717.5,1327.8,898.3,618.9,1354.9,1829.4,3435.8,3426.2,957.7,1034.0,1247.1,1573.0,1312.4,1087.7,12.0,14.0,-37.0,12505.0,8389.0,5217.0,3805.0,-60.0,342.0,-309.0,49.0,20.0,23.0,14098.0,7857.0,-961.0,-2653.0,-80.0,-99.0,-107.0,1.0
2022-05-23 15:44:25.232605-07:00,2086.6,636.7,1354.0,1553.4,1160.3,1413.1,1673.8,1891.8,3422.5,3429.8,1967.7,1506.9,1593.6,3429.8,1302.5,1717.7,3415.3,3414.1,717.5,1327.8,895.7,624.6,1354.9,1829.4,3426.2,3427.4,957.7,1034.0,1240.8,1574.9,1312.4,1087.7,32.0,-93.0,17.0,12567.0,8223.0,5323.0,3813.0,-597.0,397.0,-128.0,14.0,-69.0,13.0,14160.0,7721.0,-997.0,-2708.0,-331.0,-151.0,47.0,1.0
2022-05-23 15:44:25.293066-07:00,2078.5,640.8,1354.0,1553.4,1160.3,1436.9,1673.8,1891.8,3421.3,3421.3,1967.7,1506.9,1600.2,3424.9,1302.5,1717.7,3415.3,3414.1,724.9,1362.1,895.7,624.6,1369.4,1825.5,3426.2,3427.4,960.2,1023.7,1240.8,1574.9,1316.9,1107.8,6.0,26.0,32.0,12581.0,8079.0,5424.0,3931.0,-106.0,368.0,80.0,7.0,20.0,4.0,14159.0,7717.0,-1032.0,-2710.0,41.0,-78.0,43.0,1.0
2022-05-23 15:44:25.322726-07:00,2078.5,640.8,1350.3,1559.9,1160.3,1441.5,1662.5,1871.3,3421.3,3421.3,1952.9,1509.7,1600.2,3427.4,1288.2,1712.9,3424.9,3420.1,720.8,1362.1,891.5,620.5,1369.4,1825.5,3433.4,3429.8,943.2,1023.7,1241.7,1580.5,1316.9,1107.8,6.0,-55.0,34.0,12567.0,7945.0,5510.0,4124.0,-329.0,620.0,256.0,-2.0,-36.0,-5.0,14156.0,7713.0,-1098.0,-2708.0,30.0,-165.0,93.0,1.0
2022-05-23 15:44:25.382666-07:00,2067.5,642.4,1351.2,1559.9,1160.3,1441.5,1662.5,1871.3,3422.5,3427.4,2007.4,1509.7,1599.3,3427.4,1288.2,1712.9,3424.9,3420.1,720.8,1354.9,891.5,614.1,1368.5,1821.6,3433.4,3429.8,943.2,1029.7,1241.7,1671.9,1379.4,1125.2,-32.0,6.0,-50.0,12426.0,7942.0,5648.0,4366.0,518.0,369.0,328.0,22.0,-60.0,57.0,14100.0,7813.0,-1168.0,-2687.0,530.0,-3.0,68.0,1.0
2022-05-23 15:44:25.442561-07:00,2067.5,642.4,1351.2,1571.1,1160.3,1417.6,1639.8,1877.2,3422.5,3427.4,2007.4,1545.9,1599.3,3424.9,1333.2,1746.4,3422.5,3421.3,725.8,1354.9,898.3,614.1,1368.5,1821.6,3429.8,3420.1,959.4,1029.7,1241.7,1671.9,1379.4,1125.2,14.0,0.0,-48.0,12264.0,8084.0,5747.0,4433.0,393.0,253.0,176.0,7.0,16.0,-6.0,13992.0,8006.0,-1193.0,-2675.0,411.0,3.0,-33.0,1.0
2022-05-23 15:44:25.472776-07:00,2079.5,644.0,1438.7,1571.1,1277.4,1417.6,1639.8,1877.2,3418.9,3422.5,2014.4,1545.9,1616.2,3424.9,1333.2,1746.4,3422.5,3421.3,725.8,1375.7,898.3,622.2,1368.5,1835.2,3429.8,3420.1,959.4,1054.8,1241.7,1805.2,1532.9,1244.4,-20.0,-88.0,1.0,12019.0,8366.0,5842.0,4455.0,1397.0,13.0,476.0,41.0,-47.0,16.0,13823.0,8293.0,-1229.0,-2662.0,1221.0,86.0,-89.0,1.0
2022-05-23 15:44:25.532537-07:00,2079.5,644.0,1438.7,1625.6,1277.4,1404.9,1656.8,1906.6,3418.9,3422.5,2014.4,1568.3,1616.2,3418.9,1382.1,1811.9,3417.7,3418.9,719.2,1375.7,891.5,622.2,1368.5,1835.2,3437.0,3421.3,1009.9,1054.8,1270.3,1805.2,1532.9,1244.4,54.0,91.0,-1.0,11781.0,8684.0,5913.0,4389.0,293.0,174.0,-134.0,14.0,99.0,-52.0,13634.0,8606.0,-1244.0,-2634.0,351.0,38.0,-23.0,1.0
2022-05-23 15:44:25.622660-07:00,2060.5,651.4,1434.1,1625.6,1431.4,1404.9,1656.8,1906.6,3429.8,3418.9,2080.6,1568.3,1613.4,3418.9,1382.1,1811.9,3417.7,3418.9,719.2,1376.6,891.5,617.3,1374.8,1842.0,3437.0,3421.3,1009.9,1055.6,1270.3,1848.9,1544.1,1282.8,-32.0,-44.0,-37.0,11673.0,8755.0,6050.0,4351.0,582.0,193.0,43.0,-7.0,-30.0,17.0,13569.0,8707.0,-1246.0,-2636.0,420.0,24.0,-64.0,1.0
2022-05-23 15:44:25.624160-07:00,2060.5,651.4,1434.1,1627.5,1503.2,1410.3,1653.0,1899.7,3429.8,3418.9,2080.6,1578.6,1618.1,3429.8,1397.6,1833.3,3423.7,3420.1,718.4,1377.5,886.5,617.3,1374.8,1842.0,3432.2,3426.2,1057.3,1059.1,1273.9,1848.9,1544.1,1282.8,29.0,63.0,7.0,11534.0,8921.0,6119.0,4286.0,370.0,34.0,-147.0,-14.0,4.0,-15.0,13456.0,8878.0,-1243.0,-2648.0,346.0,21.0,-106.0,1.0
2022-05-23 15:44:25.682335-07:00,2063.5,648.1,1404.9,1611.5,1503.2,1410.3,1653.0,1899.7,3429.8,3423.7,2047.4,1570.2,1618.1,3429.8,1397.6,1833.3,3423.7,3420.1,718.4,1377.5,889.0,614.9,1368.5,1850.8,3432.2,3426.2,1057.3,1059.1,1295.4,1844.0,1525.5,1315.1,-18.0,-19.0,40.0,11424.0,8990.0,6276.0,4211.0,619.0,377.0,-142.0,6.0,-5.0,22.0,13390.0,8973.0,-1236.0,-2664.0,340.0,32.0,-75.0,1.0
2022-05-23 15:44:25.742553-07:00,2063.5,648.1,1404.9,1611.5,1471.8,1412.2,1653.0,1915.4,3429.8,3423.7,2047.4,1570.2,1628.4,3418.9,1389.4,1853.7,3422.5,3426.2,720.8,1389.4,889.0,614.9,1368.5,1850.8,3431.0,3429.8,1112.1,1051.3,1295.4,1844.0,1525.5,1315.1,-18.0,96.0,-1.0,11140.0,9242.0,6497.0,4086.0,1452.0,144.0,-203.0,21.0,-5.0,49.0,13233.0,9219.0,-1159.0,-2643.0,832.0,389.0,-210.0,1.0
2022-05-23 15:44:25.832540-07:00,2057.4,641.6,1383.0,1608.7,1471.8,1412.2,1653.0,1915.4,3429.8,3424.9,2031.4,1564.6,1628.4,3418.9,1389.4,1853.7,3422.5,3426.2,720.8,1389.4,887.3,614.1,1368.5,1842.0,3431.0,3429.8,1112.1,1051.3,1290.9,1882.0,1517.1,1386.6,20.0,127.0,36.0,10837.0,9524.0,6775.0,3793.0,967.0,291.0,-511.0,21.0,94.0,5.0,13038.0,9510.0,-1032.0,-2636.0,619.0,281.0,-311.0,1.0
2022-05-23 15:44:25.834927-07:00,2057.4,641.6,1383.0,1608.7,1425.9,1398.5,1653.0,1886.9,3429.8,3424.9,2031.4,1564.6,1636.0,3427.4,1356.7,1813.9,3426.2,3429.8,722.5,1391.2,887.3,614.1,1368.5,1842.0,3427.4,3431.0,1127.0,1049.6,1290.9,1882.0,1517.1,1386.6,-27.0,16.0,-2.0,10598.0,9645.0,7096.0,3569.0,774.0,230.0,-532.0,26.0,-10.0,63.0,12875.0,9734.0,-890.0,-2670.0,538.0,279.0,-369.0,1.0
2022-05-23 15:44:25.892564-07:00,2049.4,642.4,1360.3,1581.4,1425.9,1398.5,1653.0,1865.4,3424.9,3420.1,2028.4,1571.1,1636.0,3427.4,1356.7,1802.3,3429.8,3429.8,722.5,1391.2,892.4,618.1,1353.1,1823.6,3427.4,3431.0,1127.0,1049.6,1289.1,1877.2,1505.1,1363.9,18.0,-36.0,12.0,10475.0,9683.0,7331.0,3345.0,356.0,104.0,-551.0,2.0,-23.0,-9.0,12759.0,9886.0,-754.0,-2706.0,320.0,198.0,-253.0,1.0
2022-05-23 15:44:25.922501-07:00,2047.4,642.4,1360.3,1581.4,1414.0,1405.8,1639.8,1865.4,3433.4,3420.1,2028.4,1571.1,1627.5,3429.8,1361.2,1802.3,3429.8,3418.9,715.9,1393.0,892.4,618.1,1353.1,1831.3,3427.4,3426.2,1112.1,1049.6,1289.1,1877.2,1505.1,1340.4,23.0,-66.0,6.0,10472.0,9591.0,7490.0,3267.0,-165.0,200.0,-359.0,0.0,-55.0,-11.0,12734.0,9919.0,-683.0,-2727.0,-116.0,61.0,-80.0,1.0
2022-05-23 15:44:25.982780-07:00,2047.4,643.2,1340.4,1574.9,1414.0,1405.8,1639.8,1857.6,3433.4,3418.9,2016.4,1560.9,1627.5,3429.8,1361.2,1794.5,3421.3,3418.9,715.9,1393.0,886.5,607.6,1354.9,1831.3,3420.1,3426.2,1112.1,1049.6,1281.9,1845.9,1500.4,1340.4,-1.0,-68.0,-5.0,10488.0,9500.0,7587.0,3259.0,27.0,124.0,-156.0,-7.0,-43.0,-4.0,12757.0,9896.0,-642.0,-2711.0,15.0,105.0,0.0,1.0
2022-05-23 15:44:26.103672-07:00,2050.4,643.2,1340.4,1574.9,1417.6,1392.1,1623.7,1857.6,3416.5,3418.9,2016.4,1560.9,1635.0,3427.4,1340.4,1794.5,3421.3,3434.6,720.0,1387.5,886.5,607.6,1354.9,1829.4,3420.1,3428.6,1114.7,1044.4,1281.9,1845.9,1500.4,1330.5,0.0,73.0,-19.0,10424.0,9513.0,7667.0,3242.0,147.0,201.0,-87.0,-8.0,54.0,-3.0,12723.0,9948.0,-624.0,-2684.0,140.0,57.0,-2.0,1.0
2022-05-23 15:44:26.104791-07:00,2050.4,640.0,1338.6,1575.8,1417.6,1392.1,1623.7,1854.7,3416.5,3418.9,2004.5,1569.3,1635.0,3427.4,1340.4,1791.6,3421.3,3434.6,720.0,1387.5,888.2,610.8,1346.7,1829.4,3423.7,3428.6,1114.7,1044.4,1273.0,1839.1,1490.3,1330.5,8.0,19.0,-2.0,10393.0,9476.0,7749.0,3252.0,-38.0,154.0,-149.0,2.0,-2.0,0.0,12720.0,9954.0,-601.0,-2682.0,-62.0,44.0,-42.0,1.0
2022-05-23 15:44:26.162567-07:00,2046.4,632.7,1338.6,1575.8,1390.3,1394.8,1616.2,1854.7,3423.7,3431.0,2004.5,1569.3,1636.0,3429.8,1336.8,1791.6,3421.3,3429.8,724.1,1385.7,888.2,610.8,1344.9,1836.2,3423.7,3424.9,1107.8,1046.1,1273.0,1839.1,1483.8,1335.9,4.0,-18.0,1.0,10384.0,9427.0,7820.0,3254.0,-30.0,121.0,-108.0,15.0,-9.0,6.0,12735.0,9935.0,-577.0,-2687.0,-48.0,22.0,-21.0,1.0
2022-05-23 15:44:26.192472-07:00,2046.4,632.7,1329.6,1579.6,1390.3,1394.8,1619.0,1845.9,3423.7,3431.0,2003.5,1560.9,1636.0,3429.8,1335.9,1788.7,3421.3,3427.4,724.1,1385.7,888.2,614.9,1344.9,1836.2,3423.7,3431.0,1107.8,1046.1,1279.2,1831.3,1483.8,1335.9,26.0,5.0,-6.0,10380.0,9413.0,7846.0,3245.0,40.0,-4.0,-54.0,10.0,-11.0,-9.0,12741.0,9930.0,-569.0,-2680.0,3.0,21.0,5.0,1.0
2022-05-23 15:44:26.253471-07:00,2046.4,633.5,1329.6,1579.6,1433.2,1386.6,1619.0,1845.9,3422.5,3423.7,2003.5,1560.9,1623.7,3429.8,1335.9,1788.7,3421.3,3427.4,723.3,1390.3,888.2,614.9,1332.3,1826.5,3423.7,3431.0,1115.6,1053.0,1279.2,1831.3,1480.1,1328.7,6.0,15.0,-4.0,10372.0,9422.0,7863.0,3204.0,67.0,-37.0,-71.0,4.0,15.0,0.0,12737.0,9934.0,-567.0,-2682.0,0.0,0.0,-21.0,1.0
2022-05-23 15:44:26.282443-07:00,2046.4,633.5,1332.3,1565.5,1433.2,1386.6,1618.1,1845.0,3422.5,3423.7,1993.5,1552.5,1623.7,3429.8,1325.9,1785.8,3423.7,3423.7,723.3,1390.3,892.4,613.3,1332.3,1826.5,3421.3,3418.9,1115.6,1053.0,1275.6,1827.5,1480.1,1328.7,0.0,-12.0,4.0,10371.0,9420.0,7876.0,3178.0,30.0,7.0,-61.0,5.0,-16.0,1.0,12737.0,9933.0,-561.0,-2690.0,-1.0,6.0,-19.0,1.0
2022-05-23 15:44:26.342478-07:00,2037.4,622.2,1332.3,1565.5,1404.9,1382.1,1618.1,1845.0,3426.2,3418.9,1993.5,1552.5,1625.6,3420.1,1325.9,1785.8,3423.7,3423.7,728.2,1395.7,892.4,613.3,1324.1,1831.3,3421.3,3418.9,1109.5,1042.6,1275.6,1827.5,1470.0,1335.0,27.0,23.0,17.0,10365.0,9421.0,7890.0,3162.0,26.0,24.0,-56.0,10.0,-4.0,-1.0,12733.0,9937.0,-560.0,-2691.0,14.0,0.0,-2.0,1.0
2022-05-23 15:44:26.402897-07:00,2037.4,622.2,1316.0,1559.0,1404.9,1382.1,1602.1,1841.1,3426.2,3418.9,1983.6,1549.7,1625.6,3420.1,1338.6,1795.5,3416.5,3423.7,728.2,1395.7,889.0,611.7,1324.1,1831.3,3429.8,3428.6,1109.5,1042.6,1273.9,1818.7,1470.0,1335.0,-4.0,-23.0,0.0,10364.0,9394.0,7910.0,3194.0,-102.0,121.0,41.0,8.0,7.0,10.0,12733.0,9936.0,-571.0,-2694.0,22.0,-26.0,14.0,1.0
2022-05-23 15:44:26.432543-07:00,2037.4,626.2,1312.4,1559.0,1421.3,1378.5,1602.1,1841.1,3429.8,3431.0,1990.5,1549.7,1620.9,3416.5,1338.6,1795.5,3416.5,3423.7,721.6,1389.4,889.0,610.0,1320.5,1821.6,3429.8,3428.6,1112.1,1040.1,1273.9,1818.7,1470.9,1316.0,-5.0,1.0,30.0,10367.0,9384.0,7886.0,3272.0,-72.0,41.0,150.0,0.0,-31.0,21.0,12708.0,9970.0,-584.0,-2684.0,129.0,23.0,29.0,1.0
2022-05-23 15:44:26.492556-07:00,2037.4,626.2,1312.4,1553.4,1421.3,1389.4,1605.8,1832.3,3429.8,3431.0,1990.5,1548.7,1620.9,3429.8,1320.5,1779.1,3424.9,3423.7,724.9,1389.4,890.7,610.0,1320.5,1821.6,3432.2,3432.2,1106.9,1040.1,1285.5,1818.7,1470.9,1316.0,-9.0,16.0,18.0,10360.0,9373.0,7889.0,3320.0,-43.0,112.0,23.0,15.0,14.0,15.0,12687.0,10002.0,-589.0,-2663.0,71.0,43.0,29.0,1.0
2022-05-23 15:44:26.522783-07:00,2033.4,627.8,1319.6,1553.4,1471.8,1389.4,1605.8,1832.3,3424.9,3422.5,1974.6,1548.7,1627.5,3429.8,1320.5,1779.1,3424.9,3423.7,724.9,1398.5,890.7,614.9,1314.2,1820.7,3432.2,3432.2,1106.9,1044.4,1285.5,1792.6,1470.9,1324.1,8.0,9.0,-10.0,10324.0,9397.0,7893.0,3352.0,113.0,46.0,128.0,4.0,-11.0,9.0,12664.0,10037.0,-578.0,-2644.0,156.0,81.0,10.0,1.0
2022-05-23 15:44:26.582569-07:00,2033.4,627.8,1319.6,1559.9,1471.8,1397.6,1607.7,1849.8,3424.9,3422.5,1974.6,1536.6,1627.5,3422.5,1315.1,1773.3,3423.7,3428.6,719.2,1398.5,890.7,614.9,1314.2,1820.7,3427.4,3428.6,1111.2,1044.4,1272.1,1792.6,1470.9,1324.1,17.0,-12.0,-23.0,10290.0,9433.0,7897.0,3347.0,106.0,13.0,-3.0,7.0,-9.0,-7.0,12631.0,10086.0,-561.0,-2619.0,72.0,47.0,7.0,1.0
2022-05-23 15:44:26.612614-07:00,2040.4,627.0,1299.0,1559.9,1470.9,1397.6,1607.7,1849.8,3429.8,3418.9,1959.8,1536.6,1611.5,3422.5,1315.1,1773.3,3423.7,3428.6,719.2,1405.8,890.7,608.4,1297.2,1819.7,3427.4,3428.6,1111.2,1049.6,1272.1,1795.5,1452.5,1336.8,-21.0,-64.0,-42.0,10260.0,9482.0,7881.0,3337.0,139.0,-85.0,173.0,2.0,-15.0,5.0,12616.0,10108.0,-565.0,-2603.0,77.0,10.0,44.0,1.0
2022-05-23 15:44:26.672730-07:00,2040.4,627.0,1299.0,1554.3,1458.0,1382.1,1610.5,1836.2,3429.8,3418.9,1959.8,1529.2,1615.2,3426.2,1311.5,1777.2,3427.4,3421.3,724.9,1402.1,892.4,608.4,1297.2,1819.7,3427.4,3431.0,1106.9,1045.2,1277.4,1795.5,1452.5,1336.8,23.0,35.0,-5.0,10262.0,9524.0,7828.0,3336.0,-56.0,-53.0,-1.0,0.0,16.0,-12.0,12608.0,10116.0,-595.0,-2603.0,-25.0,-77.0,29.0,1.0
2022-05-23 15:44:26.732738-07:00,2039.4,624.6,1298.1,1546.9,1458.0,1382.1,1610.5,1836.2,3421.3,3422.5,1950.9,1524.5,1615.2,3426.2,1311.5,1777.2,3427.4,3421.3,724.9,1402.1,890.7,608.4,1289.1,1826.5,3427.4,3431.0,1106.9,1045.2,1281.0,1786.8,1444.2,1332.3,-20.0,46.0,-1.0,10306.0,9480.0,7824.0,3338.0,-161.0,-52.0,-70.0,6.0,29.0,23.0,12627.0,10084.0,-620.0,-2629.0,-103.0,-88.0,-21.0,1.0
2022-05-23 15:44:26.792557-07:00,2039.4,624.6,1298.1,1546.9,1456.2,1390.3,1586.1,1838.2,3421.3,3422.5,1950.9,1524.5,1619.0,3432.2,1315.1,1784.9,3427.4,3420.1,722.5,1396.7,890.7,608.4,1289.1,1826.5,3427.4,3427.4,1099.9,1040.9,1281.0,1786.8,1444.2,1332.3,19.0,0.0,30.0,10357.0,9431.0,7827.0,3310.0,-56.0,-41.0,-147.0,14.0,-19.0,12.0,12654.0,10042.0,-625.0,-2664.0,-86.0,-56.0,-49.0,1.0
2022-05-23 15:44:26.822752-07:00,2035.4,627.0,1297.2,1545.9,1456.2,1390.3,1586.1,1838.2,3422.5,3433.4,1943.0,1523.6,1619.0,3432.2,1315.1,1784.9,3427.4,3420.1,722.5,1396.7,889.8,608.4,1286.4,1817.8,3427.4,3427.4,1099.9,1040.9,1278.3,1782.0,1448.8,1318.7,2.0,0.0,22.0,10346.0,9432.0,7852.0,3285.0,78.0,21.0,-18.0,23.0,-9.0,19.0,12645.0,10046.0,-632.0,-2685.0,52.0,-35.0,-26.0,1.0
2022-05-23 15:44:26.942579-07:00,2035.4,627.0,1297.2,1545.9,1444.2,1376.6,1598.3,1836.2,3422.5,3433.4,1943.0,1523.6,1613.4,3424.9,1313.3,1775.2,3422.5,3429.8,722.5,1387.5,889.8,608.4,1286.4,1817.8,3427.4,3431.0,1106.0,1032.3,1278.3,1782.0,1448.8,1318.7,-5.0,-24.0,3.0,10350.0,9430.0,7847.0,3288.0,-47.0,-24.0,43.0,4.0,-6.0,14.0,12649.0,10038.0,-646.0,-2694.0,-15.0,-42.0,24.0,1.0
2022-05-23 15:44:26.943855-07:00,2036.4,617.3,1299.8,1536.6,1444.2,1376.6,1598.3,1826.5,3428.6,3427.4,1947.9,1518.0,1613.4,3424.9,1313.3,1773.3,3431.0,3429.8,722.5,1387.5,884.8,606.8,1279.2,1825.5,3431.0,3431.0,1106.0,1032.3,1283.7,1777.2,1444.2,1316.9,36.0,18.0,14.0,10359.0,9430.0,7825.0,3311.0,-29.0,43.0,22.0,11.0,1.0,-3.0,12648.0,10037.0,-674.0,-2694.0,25.0,-47.0,30.0,1.0
2022-05-23 15:44:26.972242-07:00,2018.4,617.3,1299.8,1536.6,1412.2,1373.0,1585.2,1826.5,3422.5,3427.4,1947.9,1518.0,1613.4,3418.9,1307.9,1773.3,3431.0,3424.9,718.4,1392.1,884.8,606.8,1279.2,1817.8,3431.0,3439.5,1090.3,1038.3,1283.7,1777.2,1444.2,1317.8,-42.0,37.0,-16.0,10363.0,9416.0,7832.0,3324.0,-40.0,-28.0,-23.0,0.0,27.0,32.0,12650.0,10033.0,-684.0,-2700.0,-32.0,-8.0,-19.0,1.0
2022-05-23 15:44:27.032672-07:00,2018.4,618.1,1293.6,1537.6,1412.2,1373.0,1585.2,1816.8,3422.5,3434.6,1938.0,1519.9,1613.4,3418.9,1307.9,1770.4,3423.7,3424.9,718.4,1392.1,883.1,606.0,1280.1,1817.8,3431.0,3439.5,1090.3,1038.3,1274.7,1770.4,1438.7,1317.8,24.0,-20.0,10.0,10377.0,9416.0,7824.0,3299.0,53.0,-25.0,-13.0,4.0,-11.0,-3.0,12651.0,10029.0,-672.0,-2711.0,32.0,5.0,-31.0,1.0
2022-05-23 15:44:27.062648-07:00,2022.4,618.1,1293.6,1537.6,1405.8,1373.0,1582.4,1816.8,3429.8,3434.6,1938.0,1519.9,1602.1,3431.0,1316.0,1770.4,3423.7,3421.3,727.4,1397.6,883.1,606.0,1280.1,1823.6,3431.0,3432.2,1091.2,1035.7,1274.7,1770.4,1438.7,1314.2,7.0,-3.0,18.0,10366.0,9421.0,7829.0,3307.0,-15.0,41.0,33.0,9.0,-12.0,13.0,12643.0,10038.0,-676.0,-2714.0,16.0,-9.0,18.0,1.0
2022-05-23 15:44:27.122859-07:00,2022.4,616.5,1292.7,1545.0,1405.8,1373.0,1582.4,1823.6,3429.8,3434.6,1943.0,1528.3,1602.1,3431.0,1316.0,1774.3,3423.7,3421.3,727.4,1397.6,884.8,608.4,1273.0,1823.6,3420.1,3432.2,1091.2,1035.7,1267.6,1773.3,1436.9,1314.2,28.0,25.0,8.0,10365.0,9428.0,7819.0,3314.0,-17.0,-17.0,2.0,21.0,1.0,4.0,12643.0,10040.0,-685.0,-2705.0,-9.0,-3.0,8.0,1.0
2022-05-23 15:44:27.182471-07:00,2022.4,616.5,1292.7,1545.0,1381.2,1373.0,1574.9,1823.6,3428.6,3434.6,1943.0,1528.3,1604.9,3423.7,1311.5,1774.3,3423.7,3418.9,726.6,1389.4,884.8,608.4,1273.0,1842.0,3420.1,3438.2,1097.3,1034.9,1267.6,1773.3,1436.9,1308.8,15.0,-9.0,13.0,10362.0,9426.0,7823.0,3318.0,20.0,38.0,8.0,11.0,-4.0,7.0,12645.0,10038.0,-689.0,-2702.0,27.0,10.0,2.0,1.0
2022-05-23 15:44:27.212633-07:00,2022.4,623.0,1301.6,1534.8,1381.2,1373.0,1574.9,1810.0,3428.6,3417.7,1952.9,1541.3,1604.9,3423.7,1314.2,1775.2,3429.8,3422.5,726.6,1389.4,884.8,606.8,1270.3,1842.0,3433.4,3437.0,1097.3,1034.9,1276.5,1769.5,1432.3,1308.8,-2.0,8.0,6.0,10346.0,9429.0,7836.0,3330.0,21.0,63.0,11.0,-2.0,9.0,12.0,12637.0,10050.0,-688.0,-2697.0,35.0,15.0,6.0,1.0
2022-05-23 15:44:27.272827-07:00,2014.4,621.4,1301.6,1534.8,1384.8,1376.6,1574.9,1810.0,3426.2,3415.3,1952.9,1541.3,1608.7,3429.8,1314.2,1775.2,3429.8,3422.5,732.3,1384.8,884.8,606.8,1276.5,1835.2,3433.4,3437.0,1098.2,1028.0,1276.5,1769.5,1425.9,1313.3,20.0,13.0,-3.0,10336.0,9431.0,7837.0,3353.0,-47.0,27.0,29.0,4.0,-6.0,0.0,12631.0,10059.0,-689.0,-2691.0,-18.0,-11.0,21.0,1.0
2022-05-23 15:44:27.392570-07:00,2014.4,621.4,1281.0,1532.0,1384.8,1376.6,1576.8,1811.0,3426.2,3415.3,1939.0,1527.3,1608.7,3429.8,1306.1,1772.3,3418.9,3423.7,732.3,1384.8,889.8,606.8,1276.5,1835.2,3431.0,3429.8,1098.2,1028.0,1270.3,1760.8,1425.9,1313.3,-5.0,-1.0,-8.0,10356.0,9403.0,7831.0,3383.0,-144.0,13.0,18.0,-10.0,-2.0,9.0,12646.0,10039.0,-703.0,-2693.0,-71.0,-54.0,27.0,1.0
2022-05-23 15:44:27.393814-07:00,2020.4,617.3,1281.0,1532.0,1380.3,1383.0,1576.8,1811.0,3429.8,3427.4,1939.0,1527.3,1613.4,3429.8,1306.1,1772.3,3418.9,3423.7,724.9,1393.9,889.8,606.8,1268.5,1842.0,3431.0,3429.8,1090.3,1035.7,1270.3,1760.8,1413.1,1299.0,10.0,-17.0,8.0,10384.0,9377.0,7804.0,3432.0,-142.0,21.0,88.0,0.0,-16.0,3.0,12662.0,10016.0,-730.0,-2698.0,-28.0,-63.0,61.0,1.0
2022-05-23 15:44:27.422700-07:00,2020.4,617.3,1275.6,1536.6,1380.3,1383.0,1568.3,1803.2,3429.8,3427.4,1933.1,1531.0,1613.4,3429.8,1305.2,1770.4,3426.2,3414.1,724.9,1393.9,892.4,609.2,1268.5,1842.0,3429.8,3429.8,1090.3,1035.7,1273.0,1755.0,1413.1,1299.0,33.0,-62.0,5.0,10381.0,9378.0,7761.0,3533.0,-78.0,134.0,341.0,13.0,-2.0,-23.0,12656.0,10020.0,-777.0,-2693.0,252.0,-115.0,79.0,1.0
2022-05-23 15:44:27.482897-07:00,2018.4,619.7,1273.0,1536.6,1380.3,1383.0,1568.3,1803.2,3424.9,3439.5,1927.2,1531.0,1615.2,3424.9,1305.2,1770.4,3426.2,3414.1,721.6,1388.5,892.4,606.0,1264.0,1830.4,3429.8,3429.8,1085.1,1030.6,1273.0,1757.0,1415.8,1304.3,56.0,0.0,-10.0,10208.0,9543.0,7696.0,3731.0,373.0,341.0,769.0,36.0,32.0,-31.0,12510.0,10192.0,-884.0,-2697.0,743.0,-190.0,65.0,1.0
2022-05-23 15:44:27.513262-07:00,2018.4,619.7,1273.0,1532.9,1380.3,1374.8,1563.7,1805.2,3424.9,3439.5,1927.2,1527.3,1615.2,3421.3,1298.1,1756.0,3428.6,3420.1,722.5,1388.5,887.3,606.0,1264.0,1830.4,3429.8,3433.4,1084.2,1030.6,1273.9,1757.0,1415.8,1304.3,-7.0,152.0,-38.0,10075.0,9684.0,7603.0,3918.0,-123.0,9.0,434.0,24.0,28.0,38.0,12375.0,10340.0,-1005.0,-2718.0,54.0,-217.0,52.0,1.0
2022-05-23 15:44:27.632555-07:00,2018.4,607.6,1281.9,1532.9,1369.4,1374.8,1563.7,1805.2,3420.1,3429.8,1921.3,1527.3,1604.9,3421.3,1298.1,1756.0,3428.6,3420.1,722.5,1391.2,887.3,610.0,1263.1,1824.6,3429.8,3433.4,1084.2,1024.5,1273.9,1749.3,1417.6,1299.8,-11.0,-51.0,25.0,10202.0,9604.0,7490.0,4004.0,-502.0,-148.0,45.0,-2.0,-32.0,19.0,12421.0,10264.0,-1079.0,-2765.0,-274.0,-211.0,87.0,1.0
2022-05-23 15:44:27.635528-07:00,2018.4,607.6,1281.9,1522.7,1369.4,1374.8,1566.5,1808.1,3420.1,3429.8,1921.3,1519.0,1604.9,3431.0,1293.6,1754.1,3429.8,3418.9,720.8,1391.2,884.8,610.0,1263.1,1824.6,3432.2,3429.8,1078.2,1024.5,1274.7,1749.3,1417.6,1299.8,-37.0,-28.0,51.0,10275.0,9564.0,7397.0,4082.0,-274.0,-55.0,325.0,-20.0,-30.0,38.0,12464.0,10198.0,-1159.0,-2781.0,-59.0,-126.0,163.0,1.0
2022-05-23 15:44:27.662703-07:00,2005.5,616.5,1280.1,1522.7,1380.3,1374.8,1566.5,1808.1,3431.0,3417.7,1908.5,1519.0,1609.6,3431.0,1293.6,1754.1,3429.8,3418.9,720.8,1393.0,884.8,606.8,1262.2,1822.6,3432.2,3429.8,1078.2,1025.4,1274.7,1744.5,1411.3,1302.5,-15.0,-31.0,39.0,10313.0,9544.0,7286.0,4231.0,-296.0,128.0,338.0,0.0,-21.0,30.0,12501.0,10153.0,-1223.0,-2752.0,3.0,-26.0,195.0,1.0
2022-05-23 15:44:27.753007-07:00,2005.5,616.5,1280.1,1521.8,1372.1,1376.6,1566.5,1791.6,3431.0,3417.7,1908.5,1518.0,1608.7,3427.4,1282.8,1749.3,3423.7,3426.2,721.6,1408.5,883.9,606.8,1262.2,1822.6,3428.6,3426.2,1084.2,1030.6,1272.1,1744.5,1411.3,1302.5,19.0,23.0,-12.0,10301.0,9540.0,7191.0,4427.0,-176.0,97.0,469.0,12.0,-13.0,-9.0,12501.0,10163.0,-1282.0,-2688.0,125.0,-12.0,199.0,1.0
2022-05-23 15:44:27.812602-07:00,2019.4,617.3,1271.2,1518.0,1372.1,1376.6,1566.5,1791.6,3428.6,3421.3,1906.6,1519.0,1608.7,3427.4,1282.8,1749.3,3423.7,3426.2,721.6,1408.5,889.8,607.6,1259.6,1817.8,3428.6,3426.2,1084.2,1030.6,1274.7,1740.6,1394.8,1293.6,0.0,60.0,-8.0,10315.0,9519.0,7115.0,4562.0,-268.0,6.0,78.0,13.0,34.0,11.0,12503.0,10167.0,-1341.0,-2637.0,-104.0,-32.0,132.0,1.0
2022-05-23 15:44:27.813815-07:00,2019.4,617.3,1271.2,1518.0,1371.2,1370.3,1567.4,1795.5,3428.6,3421.3,1906.6,1519.0,1600.2,3426.2,1287.3,1748.3,3432.2,3420.1,720.0,1411.3,889.8,607.6,1259.6,1817.8,3428.6,3420.1,1086.8,1028.8,1274.7,1740.6,1394.8,1293.6,17.0,73.0,14.0,10377.0,9449.0,7069.0,4636.0,-412.0,94.0,-74.0,12.0,23.0,7.0,12546.0,10116.0,-1372.0,-2611.0,-263.0,-17.0,90.0,1.0
2022-05-23 15:44:27.872830-07:00,2004.5,609.2,1281.0,1526.4,1371.2,1370.3,1567.4,1795.5,3429.8,3434.6,1897.7,1511.5,1600.2,3426.2,1287.3,1748.3,3432.2,3420.1,720.0,1411.3,889.0,605.2,1256.9,1818.7,3428.6,3420.1,1086.8,1028.8,1267.6,1740.6,1396.7,1296.3,-28.0,-73.0,-11.0,10454.0,9314.0,7087.0,4709.0,-174.0,97.0,-52.0,0.0,-44.0,25.0,12626.0,10021.0,-1362.0,-2596.0,-214.0,129.0,36.0,1.0
2022-05-23 15:44:27.932556-07:00,2004.5,609.2,1281.0,1526.4,1383.0,1378.5,1569.3,1788.7,3429.8,3434.6,1897.7,1511.5,1604.9,3418.9,1289.1,1744.5,3423.7,3422.5,713.4,1406.7,889.0,605.2,1256.9,1818.7,3421.3,3426.2,1082.5,1024.5,1267.6,1740.6,1396.7,1296.3,-8.0,-20.0,-13.0,10460.0,9293.0,7088.0,4736.0,28.0,3.0,19.0,3.0,-20.0,13.0,12656.0,9999.0,-1330.0,-2552.0,-24.0,65.0,77.0,1.0
2022-05-23 15:44:27.962617-07:00,2013.4,621.4,1281.0,1515.3,1383.0,1378.5,1569.3,1788.7,3429.8,3422.5,1886.9,1505.1,1604.9,3418.9,1289.1,1744.5,3423.7,3422.5,713.4,1406.7,887.3,602.8,1255.1,1811.9,3421.3,3426.2,1082.5,1024.5,1274.7,1729.1,1404.0,1290.9,18.0,70.0,-1.0,10488.0,9270.0,7076.0,4738.0,-334.0,-47.0,-133.0,4.0,18.0,-3.0,12691.0,9962.0,-1336.0,-2516.0,-275.0,-10.0,104.0,1.0
2022-05-23 15:44:28.022588-07:00,2015.4,621.4,1281.0,1515.3,1402.1,1369.4,1555.3,1791.6,3429.8,3422.5,1886.9,1505.1,1609.6,3431.0,1285.5,1744.5,3424.9,3421.3,713.4,1412.2,887.3,602.8,1255.1,1815.8,3422.5,3429.8,1077.3,1037.5,1274.7,1729.1,1404.0,1289.1,-8.0,-46.0,-10.0,10603.0,9148.0,7049.0,4758.0,-191.0,-54.0,10.0,16.0,3.0,6.0,12775.0,9858.0,-1342.0,-2498.0,-121.0,0.0,73.0,1.0
2022-05-23 15:44:28.082689-07:00,2015.4,612.5,1276.5,1523.6,1402.1,1369.4,1555.3,1786.8,3429.8,3435.8,1886.0,1505.1,1609.6,3431.0,1285.5,1742.6,3429.8,3421.3,713.4,1412.2,881.4,609.2,1259.6,1815.8,3431.0,3429.8,1077.3,1037.5,1278.3,1733.0,1402.1,1289.1,10.0,14.0,-32.0,10643.0,9109.0,7021.0,4785.0,-94.0,74.0,-88.0,22.0,-18.0,6.0,12806.0,9823.0,-1361.0,-2473.0,-110.0,5.0,86.0,1.0
2022-05-23 15:44:28.112651-07:00,2023.4,612.5,1276.5,1523.6,1400.3,1389.4,1546.9,1786.8,3423.7,3435.8,1886.0,1505.1,1600.2,3420.1,1279.2,1742.6,3429.8,3429.8,720.8,1398.5,881.4,609.2,1259.6,1803.2,3431.0,3423.7,1075.6,1055.6,1278.3,1733.0,1402.1,1299.8,-29.0,-15.0,-12.0,10685.0,9066.0,7031.0,4756.0,-251.0,-224.0,-118.0,3.0,-8.0,10.0,12851.0,9767.0,-1368.0,-2454.0,-313.0,14.0,95.0,1.0
2022-05-23 15:44:28.172863-07:00,2023.4,612.5,1315.1,1527.3,1400.3,1389.4,1546.9,1782.9,3423.7,3426.2,1886.0,1499.5,1600.2,3420.1,1279.2,1752.1,3416.5,3429.8,720.8,1398.5,881.4,608.4,1294.5,1803.2,3431.0,3423.7,1075.6,1055.6,1290.0,1735.8,1422.2,1299.8,46.0,-62.0,0.0,10752.0,9053.0,6958.0,4737.0,207.0,-144.0,243.0,30.0,3.0,-16.0,12917.0,9689.0,-1373.0,-2414.0,41.0,71.0,141.0,1.0
2022-05-23 15:44:28.262887-07:00,2013.4,612.5,1315.1,1527.3,1379.4,1410.3,1559.0,1782.9,3432.2,3426.2,1886.0,1499.5,1608.7,3428.6,1292.7,1752.1,3416.5,3429.8,724.9,1402.1,881.4,608.4,1294.5,1806.1,3431.0,3428.6,1094.7,1057.3,1290.0,1735.8,1422.2,1310.6,-12.0,6.0,-11.0,10659.0,9269.0,6841.0,4701.0,503.0,-547.0,549.0,29.0,35.0,47.0,12905.0,9723.0,-1377.0,-2336.0,52.0,133.0,124.0,1.0
2022-05-23 15:44:28.265337-07:00,2013.4,617.3,1310.6,1523.6,1379.4,1410.3,1584.2,1824.6,3432.2,3423.7,1883.0,1505.1,1608.7,3428.6,1325.9,1751.2,3427.4,3423.7,724.9,1402.1,885.6,606.8,1312.4,1806.1,3439.5,3433.4,1094.7,1057.3,1294.5,1736.8,1415.8,1310.6,125.0,62.0,24.0,10610.0,9534.0,6576.0,4662.0,-53.0,-343.0,188.0,4.0,-24.0,-67.0,12910.0,9731.0,-1374.0,-2278.0,-134.0,16.0,67.0,1.0
2022-05-23 15:44:28.322656-07:00,2014.4,627.8,1310.6,1523.6,1361.2,1424.1,1584.2,1824.6,3423.7,3418.9,1883.0,1505.1,1612.4,3429.8,1325.9,1751.2,3427.4,3423.7,724.1,1394.8,885.6,606.8,1338.6,1801.3,3439.5,3433.4,1112.1,1095.6,1294.5,1736.8,1399.4,1299.8,-61.0,37.0,-70.0,10635.0,9582.0,6499.0,4611.0,108.0,-427.0,55.0,8.0,49.0,60.0,12955.0,9676.0,-1361.0,-2267.0,-227.0,82.0,-39.0,1.0
2022-05-23 15:44:28.382648-07:00,2014.4,627.8,1299.0,1541.3,1361.2,1424.1,1640.7,1898.7,3423.7,3418.9,1872.3,1508.8,1612.4,3429.8,1291.8,1733.0,3415.3,3423.7,724.1,1394.8,882.3,607.6,1338.6,1801.3,3431.0,3427.4,1112.1,1095.6,1276.5,1713.8,1399.4,1299.8,28.0,-34.0,48.0,10665.0,9746.0,6306.0,4468.0,398.0,-688.0,372.0,7.0,-53.0,-29.0,13001.0,9627.0,-1291.0,-2251.0,37.0,220.0,-39.0,1.0
2022-05-23 15:44:28.412670-07:00,2017.4,631.1,1299.0,1541.3,1338.6,1434.1,1640.7,1898.7,3422.5,3428.6,1872.3,1508.8,1603.0,3427.4,1291.8,1733.0,3415.3,3423.7,719.2,1389.4,882.3,607.6,1383.9,1804.2,3431.0,3427.4,1121.7,1126.1,1276.5,1713.8,1383.0,1286.4,-8.0,10.0,30.0,10573.0,10026.0,6130.0,4307.0,833.0,-520.0,234.0,3.0,-55.0,-7.0,12959.0,9711.0,-1214.0,-2169.0,512.0,294.0,53.0,1.0
2022-05-23 15:44:28.473475-07:00,2017.4,631.1,1314.2,1521.8,1338.6,1434.1,1752.1,2111.8,3422.5,3428.6,1881.1,1490.3,1603.0,3427.4,1284.6,1727.2,3423.7,3420.1,719.2,1389.4,883.9,611.7,1383.9,1804.2,3428.6,3428.6,1121.7,1126.1,1274.7,1692.9,1383.0,1286.4,-52.0,18.0,-85.0,10373.0,10390.0,6086.0,3981.0,1175.0,-678.0,-202.0,-18.0,-48.0,0.0,12843.0,9897.0,-1150.0,-2057.0,408.0,300.0,65.0,1.0
2022-05-23 15:44:28.532658-07:00,2051.4,651.4,1293.6,1521.8,1325.0,1421.3,1752.1,2111.8,3421.3,3423.7,1868.4,1490.3,1601.1,3429.8,1284.6,1727.2,3423.7,3420.1,723.3,1384.8,883.9,620.5,1412.2,1796.5,3428.6,3428.6,1145.4,1148.0,1274.7,1663.4,1356.7,1274.7,110.0,75.0,85.0,10164.0,10788.0,6081.0,3430.0,1544.0,-358.0,-285.0,-27.0,82.0,-138.0,12716.0,10081.0,-1120.0,-1964.0,799.0,14.0,16.0,1.0
2022-05-23 15:44:28.562713-07:00,2051.4,651.4,1293.6,1516.2,1325.0,1391.2,1831.3,2118.9,3421.3,3423.7,1868.4,1487.5,1601.1,3423.7,1249.7,1704.3,3418.9,3418.9,741.4,1384.8,887.3,620.5,1412.2,1796.5,3429.8,3431.0,1115.6,1148.0,1266.7,1663.4,1356.7,1274.7,-150.0,69.0,12.0,9855.0,10929.0,6425.0,3255.0,427.0,343.0,-641.0,-11.0,47.0,88.0,12570.0,10265.0,-1133.0,-1943.0,97.0,132.0,-74.0,1.0
2022-05-23 15:44:28.623389-07:00,2083.6,670.1,1281.9,1516.2,1309.7,1391.2,1831.3,2118.9,3432.2,3424.9,1863.5,1487.5,1597.4,3423.7,1249.7,1704.3,3418.9,3418.9,741.4,1378.5,887.3,623.0,1403.0,1800.3,3429.8,3431.0,1115.6,1169.1,1266.7,1641.6,1335.9,1256.0,35.0,-185.0,52.0,9824.0,10870.0,6604.0,3187.0,-19.0,367.0,-270.0,-11.0,-58.0,-19.0,12558.0,10287.0,-1082.0,-1931.0,214.0,49.0,-7.0,1.0
2022-05-23 15:44:28.682930-07:00,2083.6,670.1,1281.9,1519.0,1309.7,1360.3,1758.9,2262.1,3432.2,3424.9,1863.5,1480.1,1597.4,3418.9,1220.4,1694.8,3424.9,3422.5,745.5,1378.5,888.2,623.0,1403.0,1800.3,3432.2,3416.5,1076.4,1169.1,1266.7,1641.6,1335.9,1256.0,-57.0,28.0,2.0,9534.0,11017.0,6745.0,3265.0,825.0,389.0,427.0,13.0,4.0,53.0,12380.0,10504.0,-1107.0,-1897.0,759.0,77.0,51.0,1.0
2022-05-23 15:44:28.742540-07:00,2047.4,657.0,1250.6,1519.0,1305.2,1360.3,1758.9,2262.1,3427.4,3424.9,1789.7,1480.1,1598.3,3418.9,1220.4,1694.8,3424.9,3422.5,745.5,1382.1,888.2,618.9,1355.8,1805.2,3432.2,3416.5,1076.4,1141.9,1266.7,1625.6,1317.8,1256.0,40.0,106.0,-17.0,9312.0,11212.0,6706.0,3321.0,268.0,158.0,318.0,0.0,66.0,-38.0,12214.0,10703.0,-1133.0,-1848.0,367.0,20.0,44.0,1.0
2022-05-23 15:44:28.772644-07:00,2047.4,657.0,1250.6,1511.5,1305.2,1338.6,1597.4,2118.9,3427.4,3424.9,1789.7,1455.2,1598.3,3432.2,1190.3,1685.3,3432.2,3422.5,754.6,1382.1,890.7,618.9,1355.8,1805.2,3431.0,3427.4,1049.6,1141.9,1268.5,1625.6,1317.8,1256.0,17.0,66.0,-40.0,9300.0,11197.0,6677.0,3463.0,-149.0,118.0,218.0,1.0,29.0,-12.0,12189.0,10732.0,-1151.0,-1829.0,76.0,1.0,38.0,1.0
2022-05-23 15:44:28.832491-07:00,2029.4,649.7,1234.6,1499.5,1300.7,1338.6,1597.4,2118.9,3433.4,3427.4,1720.5,1428.6,1602.1,3432.2,1190.3,1685.3,3432.2,3422.5,754.6,1378.5,896.6,618.1,1318.7,1812.9,3431.0,3427.4,1049.6,1134.9,1265.8,1619.0,1308.8,1242.6,64.0,79.0,-90.0,9376.0,11102.0,6671.0,3575.0,-431.0,177.0,-185.0,8.0,21.0,-54.0,12181.0,10737.0,-1171.0,-1846.0,-83.0,-82.0,-55.0,1.0
2022-05-23 15:44:28.862688-07:00,2029.4,649.7,1234.6,1499.5,1289.1,1322.3,1652.0,2096.7,3433.4,3427.4,1720.5,1428.6,1598.3,3427.4,1172.6,1669.1,3426.2,3426.2,750.5,1377.5,896.6,618.1,1318.7,1812.9,3429.8,3424.9,1005.6,1118.2,1265.8,1619.0,1308.8,1242.6,-46.0,-55.0,-58.0,9519.0,10929.0,6774.0,3533.0,-269.0,-213.0,-444.0,9.0,-10.0,24.0,12268.0,10628.0,-1148.0,-1909.0,-329.0,-51.0,-137.0,1.0
2022-05-23 15:44:28.922667-07:00,2019.4,646.5,1223.0,1494.9,1289.1,1322.3,1652.0,2096.7,3426.2,3418.9,1697.6,1422.2,1598.3,3427.4,1172.6,1669.1,3426.2,3426.2,750.5,1377.5,890.7,614.1,1301.6,1834.3,3429.8,3424.9,1005.6,1118.2,1264.0,1608.7,1297.2,1229.3,32.0,-103.0,48.0,9614.0,10923.0,6729.0,3378.0,63.0,-337.0,-6.0,5.0,-41.0,-15.0,12305.0,10575.0,-1131.0,-1978.0,-45.0,-105.0,-85.0,1.0
2022-05-23 15:44:28.982594-07:00,2019.4,646.5,1223.0,1494.9,1281.0,1309.7,1668.2,2086.6,3426.2,3418.9,1697.6,1422.2,1598.3,3429.8,1162.1,1666.3,3412.9,3424.9,749.6,1367.6,890.7,614.1,1301.6,1834.3,3418.9,3424.9,981.6,1111.2,1264.0,1608.7,1297.2,1229.3,-16.0,-40.0,62.0,9601.0,10983.0,6640.0,3397.0,-20.0,-6.0,340.0,6.0,-41.0,34.0,12289.0,10583.0,-1179.0,-2006.0,55.0,-129.0,76.0,1.0
2022-05-23 15:44:29.012710-07:00,2008.4,635.1,1218.6,1489.3,1281.0,1309.7,1668.2,2086.6,3421.3,3422.5,1661.5,1418.6,1598.3,3429.8,1162.1,1666.3,3412.9,3424.9,749.6,1367.6,893.2,614.1,1279.2,1824.6,3418.9,3424.9,981.6,1111.2,1265.8,1577.7,1290.9,1242.6,-13.0,49.0,27.0,9565.0,11051.0,6535.0,3482.0,117.0,-48.0,311.0,0.0,4.0,32.0,12260.0,10613.0,-1242.0,-1987.0,165.0,-41.0,110.0,1.0
2022-05-23 15:44:29.072654-07:00,1986.6,635.1,1218.6,1489.3,1279.2,1305.2,1636.9,2050.4,3427.4,3422.5,1661.5,1418.6,1604.9,3420.1,1150.6,1659.6,3431.0,3429.8,743.9,1372.1,893.2,614.1,1279.2,1819.7,3426.2,3424.9,977.3,1108.6,1265.8,1577.7,1290.9,1220.4,12.0,66.0,20.0,9526.0,11098.0,6493.0,3516.0,11.0,88.0,66.0,20.0,25.0,10.0,12231.0,10647.0,-1270.0,-1962.0,59.0,12.0,41.0,1.0
2022-05-23 15:44:29.133196-07:00,1986.6,623.0,1203.5,1487.5,1279.2,1305.2,1636.9,2022.4,3427.4,3428.6,1647.3,1414.0,1604.9,3420.1,1150.6,1649.2,3418.9,3429.8,743.9,1372.1,893.2,622.2,1271.2,1819.7,3427.4,3424.9,977.3,1108.6,1265.8,1595.5,1280.1,1220.4,5.0,20.0,4.0,9500.0,11081.0,6538.0,3557.0,-9.0,172.0,-26.0,26.0,11.0,11.0,12221.0,10662.0,-1268.0,-1945.0,45.0,42.0,-14.0,1.0
2022-05-23 15:44:29.162674-07:00,1991.5,623.0,1203.5,1487.5,1267.6,1299.8,1622.8,2022.4,3414.1,3428.6,1647.3,1414.0,1592.7,3422.5,1141.9,1649.2,3418.9,3432.2,748.0,1373.9,893.2,622.2,1271.2,1815.8,3427.4,3427.4,967.1,1100.8,1265.8,1595.5,1280.1,1208.9,7.0,-27.0,-18.0,9487.0,11073.0,6544.0,3604.0,3.0,22.0,102.0,6.0,-14.0,-13.0,12211.0,10677.0,-1263.0,-1934.0,59.0,22.0,0.0,1.0
2022-05-23 15:44:29.222818-07:00,1991.5,626.2,1189.4,1482.9,1267.6,1299.8,1622.8,2026.4,3414.1,3431.0,1633.1,1401.2,1592.7,3422.5,1141.9,1654.9,3421.3,3432.2,748.0,1373.9,887.3,610.8,1264.9,1815.8,3422.5,3427.4,967.1,1100.8,1264.0,1585.2,1282.8,1208.9,-6.0,7.0,-9.0,9473.0,11089.0,6521.0,3634.0,-16.0,35.0,90.0,-5.0,18.0,5.0,12202.0,10687.0,-1270.0,-1931.0,2.0,-17.0,17.0,1.0
2022-05-23 15:44:29.252753-07:00,1998.5,626.2,1189.4,1482.9,1260.4,1307.0,1627.5,2026.4,3426.2,3431.0,1633.1,1401.2,1578.6,3429.8,1132.2,1654.9,3421.3,3420.1,752.1,1359.4,887.3,610.8,1264.9,1810.0,3422.5,3428.6,964.5,1106.9,1264.0,1585.2,1282.8,1205.3,-8.0,-19.0,11.0,9479.0,11086.0,6488.0,3685.0,-76.0,44.0,137.0,-5.0,-19.0,4.0,12208.0,10678.0,-1279.0,-1932.0,3.0,-13.0,19.0,1.0
2022-05-23 15:44:29.312705-07:00,1998.5,620.5,1196.5,1478.3,1260.4,1307.0,1597.4,1990.5,3426.2,3433.4,1625.6,1400.3,1578.6,3429.8,1131.4,1645.4,3421.3,3423.7,752.1,1359.4,888.2,614.9,1260.4,1810.0,3429.8,3426.2,964.5,1106.9,1265.8,1586.1,1281.9,1205.3,13.0,-11.0,20.0,9453.0,11103.0,6454.0,3758.0,-27.0,146.0,200.0,-6.0,-3.0,-21.0,12200.0,10688.0,-1293.0,-1920.0,29.0,-11.0,57.0,1.0
2022-05-23 15:44:29.373407-07:00,2003.5,613.3,1196.5,1478.3,1258.7,1295.4,1597.4,1990.5,3418.9,3426.2,1625.6,1400.3,1591.7,3432.2,1131.4,1645.4,3421.3,3423.7,745.5,1362.1,888.2,614.9,1258.7,1815.8,3429.8,3426.2,956.0,1095.6,1265.8,1586.1,1278.3,1216.8,-37.0,-27.0,-29.0,9417.0,11105.0,6424.0,3895.0,-41.0,142.0,306.0,6.0,-14.0,28.0,12197.0,10691.0,-1324.0,-1904.0,58.0,-31.0,76.0,1.0
2022-05-23 15:44:29.402827-07:00,2003.5,613.3,1191.2,1488.4,1258.7,1295.4,1571.1,1973.7,3418.9,3426.2,1626.5,1396.7,1591.7,3432.2,1127.0,1637.9,3414.1,3422.5,745.5,1362.1,895.7,614.9,1258.7,1815.8,3429.8,3439.5,956.0,1095.6,1267.6,1584.2,1278.3,1216.8,7.0,34.0,-7.0,9363.0,11175.0,6353.0,3941.0,164.0,-44.0,177.0,10.0,23.0,0.0,12170.0,10720.0,-1355.0,-1890.0,118.0,-29.0,40.0,1.0
2022-05-23 15:44:29.462726-07:00,2000.5,627.8,1191.2,1488.4,1264.0,1296.3,1571.1,1973.7,3412.9,3418.9,1626.5,1396.7,1592.7,3434.6,1127.0,1637.9,3414.1,3422.5,741.4,1354.9,895.7,614.9,1256.9,1806.1,3429.8,3439.5,965.4,1098.2,1267.6,1584.2,1281.0,1200.9,4.0,56.0,7.0,9311.0,11242.0,6328.0,3912.0,152.0,-81.0,37.0,22.0,25.0,15.0,12135.0,10756.0,-1371.0,-1894.0,83.0,-32.0,-20.0,1.0
2022-05-23 15:44:29.522680-07:00,2000.5,627.8,1195.6,1481.0,1264.0,1296.3,1541.3,1917.4,3412.9,3418.9,1621.8,1399.4,1592.7,3434.6,1123.5,1636.0,3418.9,3427.4,741.4,1354.9,888.2,610.0,1256.9,1806.1,3424.9,3422.5,965.4,1098.2,1260.4,1591.7,1281.0,1200.9,16.0,26.0,22.0,9313.0,11257.0,6319.0,3882.0,24.0,-53.0,-64.0,15.0,-6.0,3.0,12126.0,10764.0,-1372.0,-1909.0,24.0,-11.0,-55.0,1.0
2022-05-23 15:44:29.582473-07:00,2010.4,610.8,1195.6,1481.0,1260.4,1298.1,1541.3,1917.4,3423.7,3427.4,1621.8,1399.4,1592.7,3427.4,1123.5,1636.0,3418.9,3427.4,747.2,1358.5,888.2,610.0,1256.9,1807.1,3424.9,3422.5,955.1,1098.2,1260.4,1591.7,1279.2,1210.6,-16.0,3.0,23.0,9319.0,11235.0,6363.0,3858.0,5.0,69.0,-128.0,9.0,5.0,29.0,12128.0,10761.0,-1353.0,-1927.0,-17.0,15.0,-69.0,1.0
2022-05-23 15:44:29.613339-07:00,2010.4,610.8,1188.5,1473.6,1260.4,1293.6,1533.8,1923.3,3423.7,3427.4,1608.7,1392.1,1592.7,3428.6,1122.6,1638.8,3427.4,3427.4,741.4,1358.5,892.4,613.3,1256.9,1807.1,3427.4,3428.6,945.8,1098.2,1257.8,1582.4,1279.2,1210.6,-7.0,-21.0,11.0,9314.0,11230.0,6384.0,3848.0,71.0,-29.0,-34.0,-1.0,-20.0,6.0,12126.0,10765.0,-1328.0,-1933.0,27.0,42.0,-41.0,1.0
2022-05-23 15:44:29.672747-07:00,2004.5,618.9,1195.6,1473.6,1245.3,1293.6,1533.8,1923.3,3424.9,3421.3,1604.9,1392.1,1588.9,3428.6,1122.6,1638.8,3427.4,3427.4,741.4,1357.6,892.4,615.7,1247.1,1805.2,3427.4,3428.6,945.8,1091.2,1257.8,1577.7,1275.6,1211.5,-14.0,10.0,-9.0,9312.0,11240.0,6397.0,3804.0,58.0,-69.0,-75.0,-7.0,7.0,1.0,12125.0,10770.0,-1304.0,-1929.0,-10.0,51.0,-32.0,1.0
2022-05-23 15:44:29.702739-07:00,2004.5,618.9,1195.6,1484.7,1245.3,1295.4,1514.3,1918.3,3424.9,3421.3,1604.9,1393.9,1588.9,3431.0,1124.4,1635.0,3429.8,3424.9,747.2,1357.6,886.5,615.7,1247.1,1805.2,3432.2,3426.2,945.8,1091.2,1259.6,1577.7,1275.6,1211.5,-13.0,0.0,-10.0,9339.0,11225.0,6407.0,3763.0,-102.0,-76.0,-101.0,0.0,-1.0,0.0,12147.0,10748.0,-1280.0,-1933.0,-135.0,24.0,-27.0,1.0
2022-05-23 15:44:29.822779-07:00,1995.5,619.7,1188.5,1484.7,1252.4,1295.4,1514.3,1918.3,3428.6,3431.0,1593.6,1393.9,1581.4,3431.0,1124.4,1635.0,3429.8,3424.9,747.2,1359.4,886.5,614.9,1237.3,1810.0,3432.2,3426.2,945.8,1083.4,1259.6,1573.9,1273.9,1203.5,-7.0,-41.0,-16.0,9406.0,11192.0,6386.0,3731.0,-99.0,-147.0,-37.0,0.0,-22.0,4.0,12183.0,10707.0,-1272.0,-1938.0,-88.0,-11.0,3.0,1.0
2022-05-23 15:44:29.825254-07:00,1995.5,619.7,1188.5,1481.0,1252.4,1287.3,1515.3,1904.6,3428.6,3431.0,1593.6,1389.4,1581.4,3417.7,1126.1,1630.3,3424.9,3421.3,752.9,1359.4,882.3,614.9,1237.3,1810.0,3429.8,3418.9,947.5,1083.4,1256.0,1573.9,1273.9,1203.5,11.0,8.0,-12.0,9425.0,11215.0,6339.0,3693.0,53.0,-245.0,66.0,-7.0,0.0,-24.0,12187.0,10702.0,-1282.0,-1938.0,-12.0,-24.0,26.0,1.0
2022-05-23 15:44:29.852743-07:00,1992.5,606.8,1196.5,1475.5,1239.9,1287.3,1515.3,1904.6,3424.9,3429.8,1598.3,1388.5,1593.6,3417.7,1126.1,1630.3,3424.9,3421.3,752.9,1351.2,885.6,614.1,1244.4,1811.9,3429.8,3418.9,947.5,1088.6,1252.4,1576.8,1286.4,1201.8,3.0,32.0,12.0,9458.0,11232.0,6292.0,3638.0,-98.0,-79.0,-79.0,8.0,16.0,8.0,12201.0,10682.0,-1295.0,-1948.0,-70.0,-46.0,-5.0,1.0
2022-05-23 15:44:29.913125-07:00,1992.5,606.8,1196.5,1475.5,1252.4,1295.4,1498.6,1886.0,3424.9,3429.8,1598.3,1388.5,1586.1,3417.7,1126.1,1632.2,3428.6,3420.1,741.4,1349.4,885.6,614.1,1244.4,1811.9,3427.4,3435.8,930.5,1094.7,1252.4,1576.8,1286.4,1201.8,12.0,39.0,54.0,9496.0,11196.0,6305.0,3629.0,-84.0,117.0,-147.0,13.0,-5.0,9.0,12204.0,10674.0,-1300.0,-1966.0,-12.0,-25.0,-33.0,1.0
2022-05-23 15:44:30.002634-07:00,1992.5,615.7,1211.5,1477.3,1252.4,1295.4,1498.6,1886.0,3423.7,3414.1,1604.9,1384.8,1586.1,3417.7,1126.1,1632.2,3428.6,3420.1,741.4,1349.4,883.9,610.8,1243.5,1809.0,3427.4,3435.8,930.5,1094.7,1256.9,1582.4,1283.7,1197.4,0.0,-11.0,12.0,9525.0,11109.0,6410.0,3634.0,-76.0,168.0,-297.0,14.0,8.0,25.0,12221.0,10655.0,-1285.0,-1977.0,-40.0,26.0,-49.0,1.0
2022-05-23 15:44:30.003955-07:00,1992.5,615.7,1211.5,1477.3,1243.5,1291.8,1489.3,1885.0,3423.7,3414.1,1604.9,1384.8,1592.7,3422.5,1141.9,1650.2,3416.5,3424.9,743.0,1345.8,883.9,610.8,1243.5,1809.0,3431.0,3437.0,929.6,1085.1,1256.9,1582.4,1283.7,1197.4,-9.0,-73.0,8.0,9526.0,11059.0,6493.0,3637.0,113.0,54.0,44.0,8.0,-35.0,5.0,12216.0,10664.0,-1266.0,-1968.0,145.0,57.0,-6.0,1.0
2022-05-23 15:44:30.062651-07:00,1979.6,607.6,1202.7,1482.9,1243.5,1291.8,1489.3,1885.0,3427.4,3423.7,1597.4,1383.9,1592.7,3422.5,1141.9,1650.2,3416.5,3424.9,743.0,1345.8,883.9,611.7,1242.6,1811.0,3431.0,3437.0,929.6,1085.1,1254.2,1580.5,1281.9,1204.4,0.0,4.0,-9.0,9460.0,11112.0,6482.0,3667.0,0.0,100.0,200.0,1.0,9.0,0.0,12171.0,10718.0,-1273.0,-1949.0,103.0,-3.0,45.0,1.0
2022-05-23 15:44:30.122781-07:00,1958.8,607.6,1202.7,1482.9,1239.1,1290.9,1486.6,1865.4,3424.9,3423.7,1597.4,1383.9,1578.6,3421.3,1135.7,1644.5,3422.5,3423.7,753.8,1344.0,883.9,611.7,1242.6,1807.1,3431.0,3423.7,933.9,1079.9,1254.2,1580.5,1281.9,1188.5,-9.0,43.0,-26.0,9447.0,11123.0,6449.0,3725.0,-39.0,-10.0,25.0,0.0,13.0,0.0,12167.0,10724.0,-1287.0,-1938.0,-17.0,1.0,17.0,1.0
2022-05-23 15:44:30.152703-07:00,1958.8,605.2,1201.8,1481.0,1239.1,1290.9,1486.6,1856.7,3424.9,3421.3,1592.7,1390.3,1578.6,3421.3,1135.7,1638.8,3416.5,3423.7,753.8,1344.0,884.8,609.2,1241.7,1807.1,3423.7,3423.7,933.9,1079.9,1254.2,1578.6,1278.3,1188.5,1.0,22.0,-8.0,9461.0,11116.0,6449.0,3711.0,5.0,-25.0,-85.0,5.0,13.0,-11.0,12172.0,10717.0,-1279.0,-1946.0,-13.0,5.0,-39.0,1.0
2022-05-23 15:44:30.243396-07:00,1963.7,605.2,1201.8,1481.0,1235.5,1277.4,1483.8,1856.7,3423.7,3421.3,1592.7,1390.3,1577.7,3434.6,1128.7,1638.8,3416.5,3429.8,744.7,1344.0,884.8,609.2,1241.7,1801.3,3423.7,3426.2,917.7,1070.3,1254.2,1578.6,1278.3,1194.7,1.0,-19.0,8.0,9475.0,11098.0,6466.0,3700.0,-68.0,8.0,-21.0,5.0,-15.0,3.0,12181.0,10706.0,-1269.0,-1957.0,-49.0,-1.0,-19.0,1.0
2022-05-23 15:44:30.272809-07:00,1963.7,610.8,1200.9,1476.4,1235.5,1277.4,1483.8,1843.0,3423.7,3429.8,1586.1,1383.0,1577.7,3434.6,1128.7,1623.7,3416.5,3429.8,744.7,1344.0,881.4,609.2,1239.9,1801.3,3426.2,3426.2,917.7,1070.3,1256.9,1578.6,1273.9,1194.7,-9.0,-14.0,0.0,9498.0,11080.0,6459.0,3709.0,-39.0,-27.0,0.0,-5.0,-5.0,6.0,12197.0,10687.0,-1266.0,-1959.0,-66.0,-8.0,13.0,1.0
2022-05-23 15:44:30.302744-07:00,1967.7,610.8,1200.9,1476.4,1243.5,1289.1,1471.8,1843.0,3416.5,3429.8,1586.1,1383.0,1585.2,3429.8,1135.7,1623.7,3416.5,3428.6,743.0,1344.9,881.4,609.2,1239.9,1801.3,3426.2,3429.8,922.8,1084.2,1256.9,1578.6,1273.9,1196.5,-5.0,15.0,4.0,9513.0,11068.0,6456.0,3710.0,-46.0,28.0,-47.0,1.0,7.0,9.0,12209.0,10673.0,-1271.0,-1961.0,-44.0,-16.0,9.0,1.0
2022-05-23 15:44:30.362627-07:00,1967.7,614.9,1219.5,1481.9,1243.5,1289.1,1471.8,1842.0,3416.5,3417.7,1588.0,1382.1,1585.2,3429.8,1135.7,1630.3,3422.5,3428.6,743.0,1344.9,880.6,610.0,1239.1,1801.3,3426.2,3429.8,922.8,1084.2,1267.6,1577.7,1281.9,1196.5,-4.0,-5.0,-8.0,9521.0,11050.0,6475.0,3710.0,-16.0,-17.0,-30.0,10.0,-4.0,7.0,12219.0,10661.0,-1271.0,-1963.0,-22.0,0.0,-7.0,1.0
2022-05-23 15:44:30.422744-07:00,1956.8,606.0,1219.5,1481.9,1249.7,1290.0,1470.9,1842.0,3432.2,3421.3,1588.0,1382.1,1587.1,3434.6,1131.4,1630.3,3422.5,3421.3,740.6,1354.0,880.6,610.0,1239.1,1806.1,3426.2,3427.4,924.5,1087.7,1267.6,1577.7,1278.3,1192.0,18.0,-7.0,11.0,9530.0,11044.0,6470.0,3713.0,-40.0,44.0,21.0,12.0,-4.0,-4.0,12224.0,10654.0,-1276.0,-1965.0,-5.0,-29.0,13.0,1.0
2022-05-23 15:44:30.482620-07:00,1956.8,606.0,1213.3,1483.8,1249.7,1290.0,1470.0,1825.5,3432.2,3421.3,1579.6,1383.0,1587.1,3434.6,1133.1,1621.8,3426.2,3429.8,740.6,1354.0,884.8,607.6,1239.1,1806.1,3427.4,3428.6,924.5,1087.7,1253.3,1566.5,1278.3,1192.0,-6.0,32.0,-3.0,9531.0,11032.0,6472.0,3743.0,-91.0,50.0,9.0,1.0,19.0,12.0,12225.0,10651.0,-1291.0,-1969.0,-17.0,-31.0,6.0,1.0
2022-05-23 15:44:30.512716-07:00,1957.8,601.2,1213.3,1483.8,1223.9,1294.5,1470.0,1825.5,3424.9,3418.9,1579.6,1383.0,1581.4,3420.1,1133.1,1621.8,3426.2,3429.8,738.1,1343.1,884.8,607.6,1239.9,1804.2,3427.4,3428.6,921.1,1072.9,1253.3,1566.5,1265.8,1200.9,16.0,51.0,48.0,9556.0,10986.0,6475.0,3808.0,-356.0,310.0,92.0,6.0,46.0,-12.0,12231.0,10640.0,-1299.0,-1988.0,-28.0,-61.0,-33.0,1.0
2022-05-23 15:44:30.572865-07:00,1957.8,601.2,1211.5,1464.4,1223.9,1294.5,1521.8,1866.4,3424.9,3418.9,1583.3,1379.4,1581.4,3420.1,1179.7,1644.5,3418.9,3420.1,738.1,1343.1,885.6,614.1,1239.9,1804.2,3418.9,3432.2,921.1,1072.9,1250.6,1562.7,1265.8,1200.9,69.0,-77.0,59.0,9657.0,10761.0,6517.0,4114.0,-907.0,819.0,-78.0,17.0,-122.0,5.0,12257.0,10598.0,-1329.0,-2032.0,-242.0,-116.0,35.0,1.0
2022-05-23 15:44:30.602929-07:00,1972.7,609.2,1211.5,1464.4,1236.4,1308.8,1521.8,1866.4,3421.3,3421.3,1583.3,1379.4,1573.9,3428.6,1179.7,1644.5,3418.9,3420.1,738.1,1352.1,885.6,614.1,1250.6,1797.4,3418.9,3432.2,916.9,1079.9,1250.6,1562.7,1317.8,1184.1,-93.0,-95.0,-57.0,9730.0,10509.0,6655.0,4363.0,-69.0,138.0,-129.0,10.0,-83.0,80.0,12342.0,10497.0,-1351.0,-2024.0,-273.0,61.0,125.0,1.0
2022-05-23 15:44:30.812614-07:00,1972.7,609.2,1284.6,1501.4,1236.4,1326.8,1761.8,1995.5,3421.3,3421.3,1620.9,1387.5,1573.9,3427.4,1252.4,1691.9,3422.5,3418.9,734.8,1352.1,885.6,610.8,1250.6,1797.4,3417.7,3428.6,920.3,1079.9,1254.2,1595.5,1317.8,1184.1,-48.0,76.0,-52.0,9739.0,10526.0,6647.0,4314.0,55.0,-369.0,34.0,-2.0,43.0,36.0,12376.0,10473.0,-1324.0,-1957.0,-56.0,169.0,69.0,1.0
2022-05-23 15:44:30.815294-07:00,1961.8,603.6,1302.5,1501.4,1228.4,1326.8,1761.8,1995.5,3423.7,3421.3,1624.7,1387.5,1575.8,3427.4,1252.4,1691.9,3422.5,3418.9,734.8,1342.2,885.6,610.8,1270.3,1801.3,3417.7,3428.6,920.3,1083.4,1254.2,1604.0,1338.6,1191.2,16.0,50.0,-60.0,9859.0,10517.0,6531.0,4242.0,-597.0,-399.0,-90.0,8.0,52.0,-13.0,12450.0,10396.0,-1280.0,-1928.0,-453.0,71.0,-7.0,1.0
2022-05-23 15:44:30.816272-07:00,1961.8,603.6,1302.5,1504.1,1228.4,1367.6,1785.8,2029.4,3423.7,3421.3,1624.7,1390.3,1575.8,3426.2,1284.6,1702.4,3423.7,3431.0,738.1,1342.2,887.3,610.8,1270.3,1801.3,3429.8,3432.2,954.3,1083.4,1252.4,1604.0,1338.6,1191.2,0.0,-90.0,-15.0,10072.0,10408.0,6384.0,4231.0,-76.0,-155.0,231.0,-8.0,-46.0,3.0,12594.0,10222.0,-1249.0,-1941.0,-217.0,-14.0,-27.0,1.0
2022-05-23 15:44:30.817188-07:00,1956.8,600.4,1315.1,1504.1,1225.7,1367.6,1785.8,2029.4,3418.9,3427.4,1681.4,1390.3,1576.8,3426.2,1284.6,1702.4,3423.7,3431.0,738.1,1348.5,887.3,614.9,1309.7,1802.3,3429.8,3432.2,954.3,1091.2,1252.4,1618.1,1353.1,1189.4,-9.0,-52.0,3.0,10124.0,10451.0,6190.0,4289.0,-488.0,-522.0,393.0,19.0,-30.0,11.0,12557.0,10264.0,-1263.0,-1953.0,-86.0,-34.0,39.0,1.0
2022-05-23 15:44:30.902991-07:00,1956.8,600.4,1315.1,1511.5,1225.7,1378.5,1712.9,2001.5,3418.9,3427.4,1681.4,1394.8,1576.8,3424.9,1336.8,1723.4,3420.1,3416.5,731.5,1348.5,889.0,614.9,1309.7,1802.3,3439.5,3432.2,997.0,1091.2,1244.4,1618.1,1353.1,1189.4,58.0,96.0,41.0,10212.0,10535.0,6024.0,4108.0,274.0,-481.0,-268.0,-6.0,85.0,-40.0,12570.0,10254.0,-1243.0,-1934.0,-23.0,99.0,-10.0,1.0
2022-05-23 15:44:30.904263-07:00,2007.4,604.4,1381.2,1511.5,1232.8,1378.5,1712.9,2001.5,3426.2,3418.9,1677.6,1394.8,1566.5,3424.9,1336.8,1723.4,3420.1,3416.5,731.5,1344.0,889.0,608.4,1437.8,1798.4,3439.5,3432.2,997.0,1097.3,1244.4,1636.0,1385.7,1183.2,-27.0,42.0,-20.0,10248.0,10545.0,6007.0,4015.0,-72.0,-187.0,26.0,10.0,33.0,39.0,12593.0,10228.0,-1219.0,-1939.0,-97.0,-29.0,-55.0,1.0
2022-05-23 15:44:30.962727-07:00,2007.4,604.4,1381.2,1527.3,1228.4,1383.0,1694.8,1964.7,3426.2,3418.9,1677.6,1397.6,1579.6,3422.5,1321.4,1717.7,3426.2,3431.0,733.2,1344.9,883.1,608.4,1437.8,1798.4,3428.6,3428.6,1009.9,1093.8,1250.6,1636.0,1385.7,1183.2,29.0,-6.0,9.0,10404.0,10457.0,5875.0,4041.0,-758.0,-189.0,64.0,11.0,-2.0,-22.0,12671.0,10119.0,-1226.0,-1999.0,-509.0,-162.0,-21.0,1.0
2022-05-23 15:44:31.022758-07:00,2039.4,605.2,1361.2,1527.3,1228.4,1383.0,1694.8,1964.7,3424.9,3420.1,1687.2,1400.3,1579.6,3422.5,1321.4,1717.7,3426.2,3431.0,733.2,1344.9,889.8,612.5,1420.4,1796.5,3428.6,3428.6,1009.9,1093.8,1249.7,1628.4,1381.2,1185.0,-18.0,-34.0,13.0,10630.0,10221.0,5749.0,4231.0,-928.0,211.0,215.0,-47.0,-32.0,-13.0,12784.0,9952.0,-1285.0,-2080.0,-353.0,-296.0,-1.0,1.0
2022-05-23 15:44:31.173141-07:00,2039.4,605.2,1361.2,1527.3,1223.9,1386.6,1673.8,1958.8,3424.9,3420.1,1687.2,1400.3,1572.1,3422.5,1327.8,1720.5,3427.4,3422.5,732.3,1368.5,889.8,612.5,1420.4,1796.5,3434.6,3432.2,1028.8,1097.3,1249.7,1628.4,1381.2,1185.0,-22.0,15.0,20.0,10736.0,10051.0,5707.0,4425.0,-358.0,239.0,142.0,-22.0,-12.0,2.0,12828.0,9869.0,-1371.0,-2144.0,-82.0,-254.0,30.0,1.0
2022-05-23 15:44:31.176021-07:00,2064.5,602.8,1335.0,1514.3,1223.9,1386.6,1673.8,1958.8,3428.6,3431.0,1797.4,1423.1,1572.1,3422.5,1327.8,1720.5,3427.4,3422.5,732.3,1368.5,889.0,614.9,1425.0,1802.3,3434.6,3432.2,1028.8,1097.3,1251.5,1616.2,1363.9,1183.2,33.0,37.0,36.0,10806.0,9872.0,5726.0,4627.0,-697.0,500.0,39.0,14.0,-6.0,-2.0,12867.0,9790.0,-1469.0,-2207.0,-300.0,-275.0,78.0,1.0
2022-05-23 15:44:31.176926-07:00,2064.5,602.8,1335.0,1514.3,1221.3,1401.2,1656.8,2022.4,3428.6,3431.0,1797.4,1423.1,1572.1,3429.8,1369.4,1756.0,3423.7,3424.9,733.2,1382.1,889.0,614.9,1425.0,1802.3,3429.8,3433.4,1014.2,1098.2,1251.5,1616.2,1363.9,1183.2,-20.0,22.0,-2.0,10919.0,9589.0,5812.0,4847.0,-651.0,460.0,-159.0,9.0,-4.0,30.0,12963.0,9644.0,-1533.0,-2245.0,-417.0,-168.0,87.0,1.0
2022-05-23 15:44:31.202644-07:00,2010.4,610.0,1329.6,1519.0,1221.3,1401.2,1656.8,2014.4,3428.6,3423.7,1852.8,1451.6,1572.1,3429.8,1369.4,1769.5,3429.8,3424.9,733.2,1382.1,881.4,609.2,1412.2,1791.6,3432.2,3433.4,1014.2,1098.2,1248.8,1626.5,1391.2,1189.4,18.0,27.0,40.0,11020.0,9328.0,5929.0,4983.0,-542.0,577.0,-220.0,-23.0,16.0,-14.0,13068.0,9487.0,-1578.0,-2274.0,-373.0,-169.0,65.0,1.0
2022-05-23 15:44:31.262589-07:00,1988.5,610.0,1329.6,1519.0,1222.2,1404.0,1648.3,2014.4,3424.9,3423.7,1852.8,1451.6,1577.7,3426.2,1403.0,1769.5,3429.8,3429.8,724.9,1404.9,881.4,609.2,1412.2,1799.4,3432.2,3424.9,997.0,1084.2,1248.8,1626.5,1391.2,1192.9,52.0,85.0,17.0,11060.0,9012.0,6149.0,5204.0,-622.0,934.0,-342.0,3.0,16.0,-35.0,13138.0,9370.0,-1642.0,-2309.0,-373.0,-213.0,65.0,1.0
2022-05-23 15:44:31.352930-07:00,1988.5,615.7,1325.0,1517.1,1222.2,1404.0,1648.3,2019.4,3424.9,3433.4,2031.4,1545.0,1577.7,3426.2,1403.0,1769.5,3423.7,3429.8,724.9,1404.9,883.1,601.2,1393.0,1799.4,3421.3,3424.9,997.0,1084.2,1248.0,1621.8,1383.0,1192.9,-42.0,-85.0,-48.0,11108.0,8589.0,6456.0,5440.0,-562.0,1010.0,-333.0,25.0,-31.0,42.0,13238.0,9213.0,-1685.0,-2338.0,-340.0,-69.0,71.0,1.0
2022-05-23 15:44:31.355596-07:00,1978.6,615.7,1325.0,1517.1,1241.7,1430.5,1629.4,2019.4,3428.6,3433.4,2031.4,1545.0,1584.2,3423.7,1383.0,1769.5,3423.7,3416.5,732.3,1423.1,883.1,601.2,1393.0,1837.2,3421.3,3426.2,997.0,1069.5,1248.0,1621.8,1383.0,1225.7,0.0,19.0,-57.0,11040.0,8392.0,6668.0,5628.0,-167.0,658.0,2.0,19.0,0.0,17.0,13245.0,9198.0,-1710.0,-2336.0,58.0,-51.0,22.0,1.0
2022-05-23 15:44:31.412667-07:00,1978.6,617.3,1307.0,1512.5,1241.7,1430.5,1629.4,1959.8,3428.6,3418.9,2107.8,1578.6,1584.2,3423.7,1383.0,1711.0,3418.9,3416.5,732.3,1423.1,889.8,610.8,1385.7,1837.2,3418.9,3426.2,997.0,1069.5,1252.4,1608.7,1361.2,1225.7,2.0,50.0,-15.0,11029.0,8272.0,6742.0,5736.0,-139.0,161.0,-102.0,31.0,-4.0,23.0,13247.0,9194.0,-1720.0,-2340.0,15.0,3.0,-29.0,1.0
2022-05-23 15:44:31.472639-07:00,1962.8,612.5,1307.0,1512.5,1286.4,1433.2,1610.5,1959.8,3429.8,3426.2,2107.8,1578.6,1588.0,3433.4,1335.9,1711.0,3418.9,3420.1,731.5,1434.1,889.8,610.8,1383.9,1918.3,3418.9,3424.9,1009.9,1064.3,1252.4,1608.7,1393.9,1268.5,16.0,-51.0,-13.0,11057.0,8147.0,6828.0,5760.0,-208.0,351.0,-166.0,6.0,-5.0,-17.0,13258.0,9173.0,-1723.0,-2354.0,-58.0,-40.0,-11.0,1.0
2022-05-23 15:44:31.533200-07:00,1962.8,612.5,1307.0,1529.2,1286.4,1433.2,1599.3,1944.0,3429.8,3426.2,2167.7,1631.3,1588.0,3433.4,1325.9,1703.3,3421.3,3418.9,731.5,1434.1,889.0,616.5,1383.9,1918.3,3418.9,3431.0,1009.9,1064.3,1247.1,1643.5,1393.9,1268.5,-3.0,-18.0,-2.0,11019.0,8093.0,6910.0,5813.0,74.0,164.0,-18.0,20.0,-39.0,14.0,13225.0,9216.0,-1737.0,-2362.0,212.0,-20.0,-12.0,1.0
