Time,P0,P1,P2,P3,P4,P5,P6,P7,P8,P9,P10,P11,P12,P13,P14,P15,P16,P17,P18,P19,P20,P21,P22,P23,P24,P25,P26,P27,P28,P29,P30,P31,ECG,AX0,AY0,AZ0,QW0,QX0,QY0,QZ0,GX0,GY0,GZ0,AX1,AY1,AZ1,QW1,QX1,QY1,QZ1,GX1,GY1,GZ1
2022-05-23 16:13:09.842756-07:00,2521.8,623.0,1307.0,1481.9,1098.2,1315.1,1397.6,1711.9,3418.9,3427.4,1562.7,1429.5,0.0,3429.8,1162.1,1585.2,3421.3,3423.7,731.5,1305.2,885.6,626.2,1188.5,2164.6,3428.6,3433.4,809.4,1008.2,1633.1,1493.0,1166.5,1060.8,5.0,11.0,-2.0,6431.0,8959.0,-8230.0,-8893.0,85.0,40.0,10.0,10.0,3.0,0.0,8621.0,7223.0,-6948.0,-9678.0,61.0,13.0,3.0,1.0
2022-05-23 16:13:09.902480-07:00,2507.9,616.5,1307.0,1481.9,1092.9,1325.9,1397.6,1711.9,3426.2,3429.8,1562.7,1429.5,0.0,3424.9,1162.1,1585.2,3421.3,3423.7,730.7,1309.7,885.6,626.2,1185.9,2146.3,3428.6,3433.4,801.9,1010.8,1633.1,1493.0,1164.7,1070.3,0.0,7.0,-3.0,6430.0,8960.0,-8234.0,-8890.0,-38.0,-31.0,8.0,7.0,0.0,0.0,8618.0,7224.0,-6952.0,-9677.0,-13.0,-15.0,1.0,1.0
2022-05-23 16:13:09.962213-07:00,2507.9,616.5,1306.1,1473.6,1092.9,1325.9,1393.9,1716.7,3426.2,3429.8,1571.1,1425.9,0.0,3424.9,1163.8,1596.4,3421.3,3424.9,730.7,1309.7,874.7,630.3,1185.9,2146.3,3429.8,3424.9,801.9,1010.8,1635.0,1491.2,1164.7,1070.3,2.0,-1.0,11.0,6440.0,8953.0,-8218.0,-8903.0,-53.0,19.0,-18.0,14.0,-6.0,4.0,8620.0,7213.0,-6948.0,-9686.0,-29.0,-18.0,0.0,1.0
2022-05-23 16:13:10.022138-07:00,2519.7,618.9,1306.1,1473.6,1087.7,1319.6,1393.9,1716.7,3421.3,3433.4,1571.1,1425.9,0.0,3429.8,1163.8,1596.4,3421.3,3424.9,731.5,1311.5,874.7,630.3,1185.0,2137.2,3429.8,3424.9,805.2,1007.3,1635.0,1491.2,1160.3,1062.5,0.0,-4.0,15.0,6445.0,8947.0,-8201.0,-8921.0,-48.0,-24.0,-27.0,18.0,-5.0,6.0,8625.0,7200.0,-6942.0,-9696.0,-42.0,-10.0,-3.0,1.0
2022-05-23 16:13:10.052325-07:00,2519.7,618.9,1298.1,1477.3,1087.7,1319.6,1395.7,1718.6,3421.3,3433.4,1567.4,1419.5,0.0,3429.8,1166.5,1582.4,3429.8,3423.7,731.5,1311.5,883.9,624.6,1185.0,2137.2,3429.8,3429.8,805.2,1007.3,1625.6,1493.0,1160.3,1062.5,0.0,-8.0,22.0,6444.0,8944.0,-8191.0,-8935.0,-8.0,17.0,-20.0,8.0,-6.0,2.0,8630.0,7193.0,-6935.0,-9702.0,-9.0,1.0,-2.0,1.0
2022-05-23 16:13:10.083536-07:00,2515.4,623.8,1307.9,1477.3,1086.0,1325.0,1395.7,1718.6,3432.2,3428.6,1559.9,1419.5,0.0,3422.5,1166.5,1582.4,3429.8,3423.7,731.5,1314.2,883.9,623.8,1185.9,2144.3,3429.8,3429.8,795.2,1011.6,1625.6,1487.5,1170.0,1068.6,-4.0,0.0,3.0,6447.0,8946.0,-8189.0,-8932.0,6.0,-7.0,11.0,8.0,-5.0,3.0,8628.0,7195.0,-6938.0,-9700.0,17.0,4.0,-2.0,1.0
2022-05-23 16:13:10.203333-07:00,2515.4,623.8,1307.9,1470.0,1086.0,1321.4,1379.4,1713.8,3432.2,3428.6,1559.9,1422.2,0.0,3434.6,1163.8,1583.3,3418.9,3421.3,736.5,1314.2,882.3,623.8,1185.9,2144.3,3431.0,3426.2,803.5,1011.6,1627.5,1487.5,1170.0,1068.6,1.0,-2.0,9.0,6439.0,8939.0,-8202.0,-8933.0,34.0,-50.0,19.0,17.0,1.0,9.0,8621.0,7203.0,-6944.0,-9696.0,29.0,-6.0,-8.0,1.0
2022-05-23 16:13:10.204015-07:00,2513.3,613.3,1307.0,1470.0,1084.2,1321.4,1379.4,1713.8,3434.6,3429.8,1567.4,1422.2,0.0,3434.6,1163.8,1583.3,3418.9,3421.3,736.5,1306.1,882.3,629.5,1192.9,2144.3,3431.0,3426.2,803.5,1006.5,1627.5,1488.4,1163.8,1061.7,3.0,-5.0,20.0,6427.0,8942.0,-8220.0,-8921.0,78.0,20.0,7.0,10.0,-7.0,4.0,8613.0,7214.0,-6956.0,-9687.0,44.0,13.0,-3.0,1.0
2022-05-23 16:13:10.261685-07:00,2513.3,613.3,1307.0,1480.1,1084.2,1326.8,1377.5,1708.1,3434.6,3429.8,1567.4,1419.5,0.0,3421.3,1162.1,1580.5,3418.9,3417.7,731.5,1306.1,879.7,629.5,1192.9,2144.3,3428.6,3424.9,801.0,1006.5,1628.4,1488.4,1163.8,1061.7,0.0,2.0,-6.0,6421.0,8955.0,-8228.0,-8906.0,11.0,10.0,-3.0,9.0,0.0,2.0,8610.0,7221.0,-6960.0,-9681.0,9.0,-1.0,-3.0,1.0
2022-05-23 16:13:10.292048-07:00,2520.8,624.6,1299.8,1480.1,1101.7,1326.8,1377.5,1708.1,3429.8,3422.5,1557.1,1419.5,0.0,3421.3,1162.1,1580.5,3418.9,3417.7,731.5,1313.3,879.7,632.7,1181.5,2144.3,3428.6,3424.9,801.0,1012.5,1628.4,1485.6,1156.8,1061.7,-1.0,-2.0,12.0,6429.0,8950.0,-8214.0,-8919.0,-65.0,5.0,-17.0,9.0,-2.0,4.0,8612.0,7212.0,-6957.0,-9688.0,-37.0,-22.0,1.0,1.0
2022-05-23 16:13:10.352517-07:00,2520.8,624.6,1299.8,1466.3,1090.3,1319.6,1385.7,1702.4,3429.8,3422.5,1557.1,1421.3,0.0,3426.2,1161.2,1578.6,3427.4,3429.8,730.7,1315.1,882.3,632.7,1181.5,2144.3,3434.6,3428.6,801.9,1005.6,1619.0,1485.6,1156.8,1061.7,-2.0,-8.0,18.0,6442.0,8950.0,-8193.0,-8928.0,-24.0,37.0,-17.0,18.0,-11.0,5.0,8615.0,7201.0,-6952.0,-9697.0,-15.0,-12.0,-3.0,1.0
2022-05-23 16:13:10.382627-07:00,2505.8,626.2,1305.2,1466.3,1090.3,1319.6,1385.7,1702.4,3416.5,3433.4,1564.6,1417.6,0.0,3426.2,1161.2,1578.6,3427.4,3429.8,730.7,1315.1,878.0,623.8,1192.9,2134.1,3434.6,3428.6,801.9,1005.6,1623.7,1483.8,1161.2,1062.5,0.0,-7.0,12.0,6443.0,8952.0,-8192.0,-8926.0,19.0,3.0,0.0,11.0,-9.0,3.0,8615.0,7201.0,-6952.0,-9697.0,5.0,6.0,-3.0,1.0
2022-05-23 16:13:10.442192-07:00,2505.8,626.2,1305.2,1466.3,1088.6,1325.9,1382.1,1708.1,3416.5,3433.4,1564.6,1417.6,0.0,3429.8,1160.3,1584.2,3421.3,3424.9,738.1,1307.9,878.0,623.8,1192.9,2134.1,3426.2,3418.9,809.4,1009.0,1623.7,1483.8,1161.2,1062.5,-5.0,-3.0,-1.0,6446.0,8959.0,-8188.0,-8921.0,-6.0,14.0,-9.0,8.0,-4.0,3.0,8615.0,7201.0,-6952.0,-9697.0,-1.0,-1.0,-3.0,1.0
2022-05-23 16:13:10.502406-07:00,2498.3,619.7,1298.1,1465.4,1088.6,1325.9,1382.1,1708.1,3428.6,3431.0,1557.1,1420.4,0.0,3429.8,1160.3,1584.2,3421.3,3424.9,738.1,1307.9,877.2,623.0,1184.1,2144.3,3426.2,3418.9,809.4,1009.0,1615.2,1486.6,1155.0,1064.3,2.0,-2.0,12.0,6447.0,8953.0,-8186.0,-8928.0,-21.0,-11.0,-2.0,12.0,-5.0,2.0,8618.0,7199.0,-6949.0,-9699.0,-16.0,-4.0,-3.0,1.0
2022-05-23 16:13:10.532855-07:00,2498.3,619.7,1298.1,1465.4,1086.8,1318.7,1379.4,1710.0,3428.6,3431.0,1557.1,1420.4,0.0,3424.9,1163.0,1580.5,3431.0,3429.8,725.8,1310.6,877.2,623.0,1184.1,2144.3,3426.2,3428.6,789.4,1005.6,1615.2,1486.6,1155.0,1064.3,-1.0,-3.0,12.0,6448.0,8951.0,-8183.0,-8932.0,-4.0,9.0,-12.0,12.0,-1.0,4.0,8618.0,7198.0,-6948.0,-9699.0,-8.0,-1.0,-2.0,1.0
2022-05-23 16:13:10.591925-07:00,2497.2,611.7,1291.8,1476.4,1086.8,1318.7,1379.4,1708.1,3418.9,3429.8,1563.7,1418.6,0.0,3424.9,1163.0,1582.4,3421.3,3429.8,725.8,1310.6,877.2,624.6,1181.5,2134.1,3418.9,3428.6,789.4,1005.6,1623.7,1492.1,1161.2,1055.6,4.0,-3.0,9.0,6449.0,8950.0,-8182.0,-8932.0,-9.0,-2.0,-6.0,11.0,-2.0,0.0,8619.0,7196.0,-6946.0,-9701.0,-11.0,2.0,-2.0,1.0
2022-05-23 16:13:10.652029-07:00,2493.0,611.7,1291.8,1476.4,1090.3,1315.1,1375.7,1708.1,3426.2,3429.8,1563.7,1418.6,0.0,3429.8,1160.3,1582.4,3421.3,3424.9,729.0,1315.1,877.2,624.6,1181.5,2131.1,3418.9,3426.2,797.7,1015.9,1623.7,1492.1,1161.2,1059.9,-10.0,-9.0,9.0,6452.0,8952.0,-8175.0,-8936.0,-14.0,-5.0,-1.0,10.0,-4.0,13.0,8620.0,7195.0,-6945.0,-9702.0,-13.0,-4.0,-1.0,1.0
2022-05-23 16:13:10.682868-07:00,2493.0,618.1,1292.7,1463.5,1090.3,1315.1,1375.7,1702.4,3426.2,3420.1,1563.7,1414.0,0.0,3429.8,1160.3,1580.5,3429.8,3424.9,729.0,1315.1,876.4,624.6,1189.4,2131.1,3434.6,3426.2,797.7,1015.9,1620.9,1491.2,1161.2,1059.9,8.0,0.0,7.0,6452.0,8945.0,-8174.0,-8943.0,-28.0,-12.0,4.0,13.0,-3.0,0.0,8624.0,7191.0,-6940.0,-9705.0,-23.0,-7.0,-1.0,1.0
2022-05-23 16:13:10.742415-07:00,2491.9,618.1,1292.7,1463.5,1096.4,1316.9,1379.4,1702.4,3424.9,3420.1,1563.7,1414.0,0.0,3418.9,1164.7,1580.5,3429.8,3428.6,732.3,1307.9,876.4,624.6,1189.4,2130.1,3434.6,3418.9,801.0,1009.9,1620.9,1491.2,1161.2,1059.1,4.0,-1.0,10.0,6456.0,8939.0,-8165.0,-8953.0,-25.0,-17.0,-21.0,17.0,-4.0,2.0,8627.0,7187.0,-6936.0,-9708.0,-12.0,-2.0,-3.0,1.0
2022-05-23 16:13:10.802337-07:00,2491.9,614.9,1285.5,1472.7,1096.4,1316.9,1379.4,1700.5,3424.9,3428.6,1556.2,1414.9,0.0,3418.9,1164.7,1577.7,3422.5,3428.6,732.3,1307.9,878.0,626.2,1185.9,2130.1,3429.8,3418.9,801.0,1009.9,1612.4,1486.6,1163.0,1059.1,-6.0,-5.0,12.0,6457.0,8938.0,-8156.0,-8964.0,-14.0,-12.0,2.0,8.0,-1.0,6.0,8631.0,7183.0,-6931.0,-9711.0,-14.0,-7.0,-2.0,1.0
2022-05-23 16:13:10.832905-07:00,2503.6,614.9,1285.5,1472.7,1092.1,1315.1,1383.0,1700.5,3426.2,3428.6,1556.2,1414.9,0.0,3428.6,1163.8,1577.7,3422.5,3427.4,729.9,1310.6,878.0,626.2,1185.9,2134.1,3429.8,3418.9,798.5,997.0,1612.4,1486.6,1163.0,1063.4,3.0,-6.0,6.0,6460.0,8933.0,-8153.0,-8969.0,-17.0,5.0,-6.0,16.0,-5.0,4.0,8633.0,7180.0,-6928.0,-9714.0,-16.0,3.0,1.0,1.0
2022-05-23 16:13:10.892129-07:00,2503.6,610.8,1289.1,1463.5,1092.1,1315.1,1377.5,1702.4,3426.2,3424.9,1558.1,1421.3,0.0,3428.6,1163.0,1578.6,3418.9,3416.5,729.9,1310.6,875.5,620.5,1188.5,2134.1,3426.2,3434.6,798.5,997.0,1611.5,1485.6,1159.4,1063.4,0.0,0.0,1.0,6462.0,8926.0,-8146.0,-8980.0,-54.0,-45.0,-23.0,13.0,-1.0,2.0,8642.0,7168.0,-6916.0,-9724.0,-82.0,-14.0,-3.0,1.0
2022-05-23 16:13:10.952342-07:00,2496.2,612.5,1289.1,1463.5,1092.1,1320.5,1377.5,1702.4,3423.7,3423.7,1558.1,1421.3,0.0,3418.9,1163.0,1578.6,3418.9,3416.5,733.2,1313.3,875.5,620.5,1189.4,2119.9,3426.2,3434.6,799.4,1000.5,1611.5,1485.6,1159.4,1062.5,9.0,0.0,8.0,6465.0,8904.0,-8128.0,-9015.0,-107.0,-39.0,-32.0,14.0,-6.0,-6.0,8656.0,7140.0,-6896.0,-9745.0,-77.0,-26.0,-4.0,1.0
2022-05-23 16:13:11.011701-07:00,2496.2,612.5,1287.3,1463.5,1092.1,1320.5,1377.5,1702.4,3423.7,3423.7,1559.9,1416.7,0.0,3418.9,1164.7,1568.3,3418.9,3420.1,733.2,1313.3,875.5,627.0,1189.4,2119.9,3426.2,3439.5,799.4,1000.5,1611.5,1484.7,1159.4,1062.5,-3.0,-10.0,37.0,6474.0,8899.0,-8104.0,-9037.0,11.0,47.0,-30.0,11.0,-15.0,17.0,8657.0,7136.0,-6895.0,-9748.0,26.0,-3.0,-8.0,1.0
2022-05-23 16:13:11.042056-07:00,2499.4,617.3,1287.3,1463.5,1090.3,1309.7,1377.5,1702.4,3423.7,3429.8,1559.9,1416.7,0.0,3435.8,1164.7,1568.3,3418.9,3420.1,729.0,1314.2,875.5,627.0,1194.7,2130.1,3426.2,3439.5,802.7,1011.6,1611.5,1484.7,1163.0,1059.9,0.0,-3.0,4.0,6471.0,8918.0,-8101.0,-9023.0,62.0,16.0,18.0,12.0,-4.0,1.0,8654.0,7144.0,-6903.0,-9740.0,42.0,13.0,-2.0,1.0
2022-05-23 16:13:11.102313-07:00,2499.4,617.3,1282.8,1462.6,1090.3,1309.7,1372.1,1702.4,3423.7,3429.8,1553.4,1420.4,0.0,3435.8,1163.8,1575.8,3422.5,3418.9,729.0,1314.2,882.3,622.2,1194.7,2130.1,3418.9,3429.8,802.7,1011.6,1611.5,1485.6,1163.0,1059.9,8.0,3.0,8.0,6466.0,8928.0,-8111.0,-9007.0,26.0,31.0,0.0,10.0,0.0,-4.0,8652.0,7152.0,-6909.0,-9731.0,14.0,13.0,2.0,1.0
2022-05-23 16:13:11.132778-07:00,2491.9,627.8,1281.9,1462.6,1094.7,1321.4,1372.1,1702.4,3426.2,3439.5,1559.9,1420.4,0.0,3427.4,1163.8,1575.8,3422.5,3418.9,729.0,1314.2,882.3,620.5,1198.2,2125.0,3418.9,3429.8,792.7,1003.0,1611.5,1477.3,1157.7,1058.2,-3.0,-5.0,7.0,6471.0,8937.0,-8108.0,-8998.0,8.0,8.0,-2.0,10.0,-9.0,5.0,8655.0,7154.0,-6906.0,-9729.0,0.0,11.0,-3.0,1.0
2022-05-23 16:13:11.191924-07:00,2491.9,627.8,1281.9,1457.1,1094.7,1316.0,1370.3,1707.2,3426.2,3439.5,1559.9,1421.3,0.0,3429.8,1159.4,1573.0,3428.6,3418.9,728.2,1314.2,885.6,620.5,1198.2,2125.0,3424.9,3422.5,797.7,1003.0,1616.2,1477.3,1157.7,1058.2,0.0,-5.0,8.0,6467.0,8939.0,-8111.0,-8995.0,31.0,3.0,0.0,11.0,-3.0,1.0,8654.0,7155.0,-6909.0,-9727.0,14.0,9.0,-2.0,1.0
2022-05-23 16:13:11.222172-07:00,2487.6,627.8,1289.1,1457.1,1086.0,1316.0,1370.3,1707.2,3437.0,3423.7,1562.7,1421.3,0.0,3429.8,1159.4,1573.0,3428.6,3418.9,728.2,1318.7,885.6,627.0,1193.8,2128.0,3424.9,3422.5,797.7,1007.3,1616.2,1485.6,1157.7,1062.5,3.0,0.0,7.0,6461.0,8945.0,-8118.0,-8988.0,26.0,26.0,-17.0,7.0,-2.0,-4.0,8650.0,7160.0,-6916.0,-9722.0,12.0,5.0,-3.0,1.0
2022-05-23 16:13:11.282877-07:00,2487.6,627.8,1289.1,1461.7,1086.0,1317.8,1358.5,1696.7,3437.0,3423.7,1562.7,1422.2,0.0,3428.6,1163.0,1579.6,3427.4,3420.1,730.7,1318.7,881.4,627.0,1193.8,2128.0,3427.4,3429.8,795.2,1007.3,1608.7,1485.6,1157.7,1062.5,-2.0,-3.0,10.0,6462.0,8953.0,-8113.0,-8984.0,-13.0,-4.0,2.0,10.0,-2.0,5.0,8651.0,7160.0,-6916.0,-9722.0,-8.0,-8.0,-3.0,1.0
2022-05-23 16:13:11.341998-07:00,2484.4,614.1,1286.4,1461.7,1086.0,1317.8,1358.5,1696.7,3423.7,3417.7,1561.8,1422.2,0.0,3428.6,1163.0,1579.6,3427.4,3420.1,730.7,1307.0,881.4,624.6,1196.5,2126.0,3427.4,3429.8,795.2,1008.2,1608.7,1478.3,1165.6,1061.7,2.0,-4.0,19.0,6462.0,8947.0,-8113.0,-8990.0,4.0,-3.0,-5.0,16.0,-6.0,2.0,8653.0,7157.0,-6916.0,-9722.0,7.0,6.0,-4.0,1.0
2022-05-23 16:13:11.402426-07:00,2484.4,614.1,1286.4,1459.8,1086.0,1308.8,1372.1,1695.7,3423.7,3417.7,1561.8,1418.6,0.0,3434.6,1157.7,1573.9,3426.2,3422.5,729.9,1307.0,879.7,624.6,1196.5,2126.0,3428.6,3418.9,791.9,1008.2,1610.5,1478.3,1165.6,1061.7,6.0,-1.0,8.0,6462.0,8950.0,-8113.0,-8986.0,3.0,8.0,-2.0,8.0,-4.0,0.0,8653.0,7156.0,-6917.0,-9721.0,-1.0,8.0,1.0,1.0
2022-05-23 16:13:11.432918-07:00,2494.0,613.3,1277.4,1458.0,1084.2,1308.8,1372.1,1695.7,3424.9,3418.9,1559.9,1419.5,0.0,3434.6,1157.7,1573.9,3426.2,3422.5,729.9,1312.4,879.7,623.8,1198.2,2120.9,3428.6,3418.9,791.9,1003.9,1613.4,1483.8,1164.7,1063.4,0.0,-3.0,13.0,6465.0,8954.0,-8108.0,-8985.0,0.0,13.0,-8.0,13.0,-7.0,3.0,8655.0,7154.0,-6917.0,-9721.0,-2.0,2.0,-1.0,1.0
2022-05-23 16:13:11.491900-07:00,2494.0,613.3,1277.4,1458.0,1092.9,1317.8,1383.0,1708.1,3424.9,3418.9,1559.9,1419.5,0.0,3429.8,1165.6,1577.7,3435.8,3429.8,732.3,1309.7,879.7,623.8,1198.2,2120.9,3434.6,3422.5,800.2,997.0,1613.4,1483.8,1164.7,1063.4,0.0,-3.0,10.0,6467.0,8956.0,-8105.0,-8983.0,6.0,25.0,-13.0,6.0,0.0,2.0,8656.0,7155.0,-6917.0,-9720.0,11.0,4.0,-3.0,1.0
2022-05-23 16:13:11.522143-07:00,2484.4,620.5,1271.2,1458.9,1092.9,1317.8,1383.0,1708.1,3421.3,3432.2,1555.3,1417.6,0.0,3429.8,1165.6,1577.7,3435.8,3429.8,732.3,1309.7,878.0,623.0,1192.0,2128.0,3434.6,3422.5,800.2,997.0,1612.4,1480.1,1155.0,1060.8,-4.0,-3.0,3.0,6471.0,8964.0,-8099.0,-8979.0,9.0,16.0,0.0,6.0,-3.0,7.0,8656.0,7155.0,-6917.0,-9719.0,0.0,-5.0,-2.0,1.0
2022-05-23 16:13:11.582346-07:00,2484.4,620.5,1271.2,1458.9,1086.8,1305.2,1370.3,1702.4,3421.3,3432.2,1555.3,1417.6,0.0,3422.5,1159.4,1573.9,3420.1,3426.2,732.3,1308.8,878.0,623.0,1192.0,2128.0,3433.4,3427.4,797.7,1008.2,1612.4,1480.1,1155.0,1060.8,3.0,-2.0,13.0,6474.0,8962.0,-8097.0,-8981.0,-22.0,2.0,-8.0,17.0,-8.0,3.0,8657.0,7153.0,-6918.0,-9719.0,-5.0,-2.0,-4.0,1.0
2022-05-23 16:13:11.642025-07:00,2486.6,617.3,1281.0,1455.2,1086.8,1305.2,1370.3,1702.4,3422.5,3429.8,1556.2,1423.1,0.0,3422.5,1159.4,1573.9,3420.1,3426.2,732.3,1308.8,883.9,623.8,1191.2,2129.0,3433.4,3427.4,797.7,1008.2,1608.7,1515.3,1155.0,1059.1,-1.0,-5.0,14.0,6476.0,8960.0,-8090.0,-8987.0,-6.0,9.0,-12.0,10.0,-4.0,8.0,8660.0,7149.0,-6916.0,-9720.0,-13.0,0.0,-4.0,1.0
2022-05-23 16:13:11.672621-07:00,2489.8,617.3,1281.0,1455.2,1086.0,1315.1,1379.4,1689.1,3423.7,3429.8,1556.2,1423.1,0.0,3428.6,1162.1,1577.7,3420.1,3416.5,728.2,1311.5,883.9,623.8,1191.2,2118.9,3424.9,3429.8,796.0,1007.3,1608.7,1515.3,1155.0,1059.9,1.0,0.0,12.0,6477.0,8962.0,-8089.0,-8986.0,12.0,25.0,-7.0,10.0,-5.0,0.0,8663.0,7149.0,-6914.0,-9720.0,-4.0,12.0,-3.0,1.0
2022-05-23 16:13:11.732535-07:00,2489.8,606.0,1281.9,1455.2,1086.0,1315.1,1379.4,1683.3,3423.7,3427.4,1561.8,1414.9,0.0,3428.6,1162.1,1573.0,3422.5,3416.5,728.2,1311.5,877.2,622.2,1198.2,2118.9,3423.7,3429.8,796.0,1007.3,1604.0,1480.1,1155.9,1059.9,0.0,-2.0,9.0,6477.0,8970.0,-8086.0,-8979.0,10.0,16.0,-8.0,5.0,-1.0,2.0,8664.0,7148.0,-6914.0,-9719.0,5.0,4.0,-1.0,1.0
2022-05-23 16:13:11.791987-07:00,2486.6,606.0,1281.9,1455.2,1083.4,1316.9,1374.8,1683.3,3434.6,3427.4,1561.8,1414.9,0.0,3429.8,1168.2,1573.0,3422.5,3424.9,733.2,1306.1,877.2,622.2,1198.2,2112.8,3423.7,3431.0,802.7,1008.2,1604.0,1480.1,1155.9,1057.3,8.0,0.0,12.0,6480.0,8973.0,-8084.0,-8976.0,-7.0,-1.0,-7.0,7.0,-6.0,-1.0,8665.0,7147.0,-6915.0,-9719.0,-5.0,-7.0,-1.0,1.0
2022-05-23 16:13:11.822626-07:00,2486.6,612.5,1278.3,1460.8,1083.4,1316.9,1374.8,1690.0,3434.6,3429.8,1554.3,1419.5,0.0,3429.8,1168.2,1573.0,3418.9,3424.9,733.2,1306.1,873.0,624.6,1201.8,2112.8,3428.6,3431.0,802.7,1008.2,1600.2,1479.2,1163.0,1057.3,-3.0,-7.0,12.0,6479.0,8976.0,-8077.0,-8981.0,2.0,1.0,-10.0,9.0,-7.0,11.0,8666.0,7146.0,-6915.0,-9719.0,-2.0,1.0,-7.0,1.0
2022-05-23 16:13:11.882872-07:00,2488.7,612.5,1278.3,1460.8,1083.4,1316.0,1373.0,1690.0,3428.6,3429.8,1554.3,1419.5,0.0,3428.6,1159.4,1573.0,3418.9,3427.4,734.8,1309.7,873.0,624.6,1201.8,2123.0,3428.6,3439.5,791.9,1003.0,1600.2,1479.2,1163.0,1058.2,8.0,-2.0,20.0,6476.0,8973.0,-8079.0,-8984.0,13.0,-15.0,2.0,9.0,-5.0,2.0,8666.0,7145.0,-6915.0,-9719.0,12.0,0.0,-12.0,1.0
2022-05-23 16:13:11.942002-07:00,2488.7,613.3,1274.7,1455.2,1083.4,1316.0,1373.0,1688.1,3428.6,3434.6,1567.4,1420.4,0.0,3428.6,1159.4,1573.9,3423.7,3427.4,734.8,1309.7,877.2,622.2,1204.4,2123.0,3422.5,3439.5,791.9,1003.0,1604.0,1485.6,1153.3,1058.2,-2.0,-3.0,16.0,6472.0,8985.0,-8080.0,-8973.0,71.0,45.0,-32.0,11.0,-7.0,7.0,8660.0,7153.0,-6918.0,-9717.0,46.0,18.0,-16.0,1.0
2022-05-23 16:13:11.972549-07:00,2489.8,614.1,1274.7,1455.2,1084.2,1320.5,1367.6,1688.1,3424.9,3428.6,1567.4,1420.4,0.0,3421.3,1157.7,1573.9,3423.7,3426.2,736.5,1306.1,877.2,622.2,1223.9,2120.9,3422.5,3429.8,804.4,1004.8,1604.0,1485.6,1161.2,1060.8,3.0,1.0,6.0,6457.0,9013.0,-8088.0,-8950.0,62.0,42.0,2.0,9.0,1.0,0.0,8655.0,7169.0,-6923.0,-9706.0,35.0,19.0,0.0,1.0
2022-05-23 16:13:12.032619-07:00,2489.8,614.1,1279.2,1449.7,1084.2,1320.5,1382.1,1687.2,3424.9,3428.6,1564.6,1409.4,0.0,3421.3,1168.2,1573.9,3422.5,3427.4,736.5,1306.1,873.0,618.9,1223.9,2120.9,3429.8,3426.2,804.4,1004.8,1605.8,1484.7,1161.2,1060.8,1.0,-5.0,11.0,6456.0,9034.0,-8091.0,-8927.0,51.0,73.0,-11.0,4.0,-6.0,0.0,8653.0,7180.0,-6927.0,-9696.0,28.0,18.0,1.0,1.0
2022-05-23 16:13:12.122185-07:00,2489.8,618.9,1279.2,1449.7,1077.3,1309.7,1382.1,1687.2,3414.1,3428.6,1564.6,1409.4,0.0,3426.2,1168.2,1573.9,3422.5,3427.4,732.3,1311.5,873.0,618.9,1219.5,2125.0,3429.8,3426.2,795.2,1003.0,1605.8,1484.7,1164.7,1062.5,-5.0,0.0,-4.0,6454.0,9059.0,-8090.0,-8904.0,40.0,20.0,5.0,5.0,0.0,6.0,8650.0,7192.0,-6932.0,-9687.0,22.0,1.0,2.0,1.0
2022-05-23 16:13:12.123196-07:00,2489.8,618.9,1273.9,1449.7,1077.3,1309.7,1374.8,1699.5,3414.1,3428.6,1563.7,1416.7,0.0,3426.2,1153.3,1584.2,3416.5,3421.3,732.3,1311.5,879.7,620.5,1219.5,2125.0,3434.6,3428.6,795.2,1003.0,1602.1,1482.9,1164.7,1062.5,6.0,0.0,6.0,6454.0,9053.0,-8091.0,-8907.0,-32.0,-14.0,-7.0,6.0,-6.0,0.0,8648.0,7192.0,-6934.0,-9687.0,-13.0,-11.0,1.0,1.0
2022-05-23 16:13:12.182420-07:00,2499.4,621.4,1273.9,1449.7,1085.1,1312.4,1374.8,1699.5,3432.2,3424.9,1563.7,1416.7,0.0,3432.2,1153.3,1584.2,3416.5,3421.3,731.5,1310.6,879.7,620.5,1222.2,2114.9,3434.6,3428.6,798.5,1004.8,1602.1,1482.9,1155.0,1053.9,0.0,-5.0,16.0,6459.0,9050.0,-8083.0,-8916.0,-12.0,3.0,-2.0,9.0,-2.0,9.0,8649.0,7189.0,-6933.0,-9690.0,6.0,1.0,1.0,1.0
2022-05-23 16:13:12.242629-07:00,2499.4,621.4,1277.4,1476.4,1085.1,1311.5,1374.8,1691.0,3432.2,3424.9,1564.6,1420.4,0.0,3429.8,1158.6,1574.9,3422.5,3426.2,735.6,1310.6,885.6,622.2,1222.2,2114.9,3429.8,3433.4,796.9,1004.8,1602.1,1485.6,1155.0,1053.9,9.0,0.0,14.0,6459.0,9044.0,-8084.0,-8920.0,-12.0,-19.0,6.0,11.0,-6.0,1.0,8649.0,7189.0,-6933.0,-9690.0,-10.0,0.0,1.0,1.0
2022-05-23 16:13:12.362192-07:00,2487.6,618.9,1270.3,1476.4,1086.8,1311.5,1374.8,1691.0,3428.6,3429.8,1567.4,1420.4,0.0,3429.8,1158.6,1574.9,3422.5,3426.2,735.6,1314.2,885.6,623.0,1213.3,2106.8,3429.8,3433.4,796.9,1002.2,1602.1,1486.6,1155.9,1060.8,0.0,-7.0,12.0,6461.0,9043.0,-8079.0,-8924.0,-9.0,8.0,-13.0,13.0,-8.0,8.0,8650.0,7188.0,-6932.0,-9691.0,-2.0,2.0,0.0,1.0
2022-05-23 16:13:12.363803-07:00,2487.6,618.9,1270.3,1461.7,1086.8,1322.3,1367.6,1699.5,3428.6,3429.8,1567.4,1410.3,0.0,3427.4,1162.1,1572.1,3427.4,3420.1,738.9,1314.2,879.7,623.0,1213.3,2106.8,3433.4,3431.0,792.7,1002.2,1604.9,1486.6,1155.9,1060.8,-1.0,-1.0,6.0,6460.0,9043.0,-8078.0,-8926.0,0.0,1.0,-8.0,7.0,-1.0,7.0,8650.0,7187.0,-6931.0,-9691.0,-7.0,6.0,1.0,1.0
2022-05-23 16:13:12.391955-07:00,2489.8,614.9,1271.2,1461.7,1080.8,1322.3,1367.6,1699.5,3432.2,3418.9,1569.3,1410.3,0.0,3427.4,1162.1,1572.1,3427.4,3420.1,738.9,1303.4,879.7,616.5,1209.7,2120.9,3433.4,3431.0,792.7,1002.2,1604.9,1484.7,1155.0,1053.9,2.0,-1.0,4.0,6459.0,9042.0,-8078.0,-8928.0,-8.0,-14.0,4.0,4.0,-1.0,0.0,8650.0,7187.0,-6931.0,-9691.0,-7.0,-4.0,-4.0,1.0
2022-05-23 16:13:12.422170-07:00,2489.8,614.9,1271.2,1460.8,1080.8,1309.7,1376.6,1684.3,3432.2,3418.9,1569.3,1413.1,0.0,3432.2,1158.6,1577.7,3435.8,3421.3,730.7,1303.4,879.7,616.5,1209.7,2120.9,3426.2,3422.5,796.0,1002.2,1602.1,1484.7,1155.0,1053.9,9.0,2.0,8.0,6459.0,9033.0,-8078.0,-8937.0,-25.0,-22.0,-2.0,11.0,0.0,0.0,8651.0,7183.0,-6930.0,-9694.0,-13.0,-13.0,-3.0,1.0
2022-05-23 16:13:12.482579-07:00,2479.1,615.7,1268.5,1460.8,1081.6,1309.7,1376.6,1684.3,3429.8,3429.8,1559.9,1413.1,0.0,3432.2,1158.6,1577.7,3435.8,3421.3,730.7,1310.6,879.7,617.3,1216.8,2113.9,3426.2,3422.5,796.0,1004.8,1602.1,1480.1,1159.4,1055.6,0.0,-2.0,14.0,6460.0,9020.0,-8075.0,-8951.0,-29.0,-40.0,5.0,10.0,-6.0,3.0,8652.0,7175.0,-6928.0,-9700.0,-26.0,-17.0,-4.0,1.0
2022-05-23 16:13:12.542728-07:00,2479.1,615.7,1268.5,1448.8,1081.6,1310.6,1367.6,1713.8,3429.8,3429.8,1559.9,1414.9,0.0,3428.6,1164.7,1572.1,3429.8,3423.7,733.2,1313.3,873.0,617.3,1216.8,2113.9,3435.8,3428.6,794.4,1004.8,1600.2,1480.1,1159.4,1055.6,0.0,-8.0,17.0,6463.0,9008.0,-8072.0,-8964.0,-17.0,-12.0,-4.0,11.0,-8.0,9.0,8656.0,7169.0,-6923.0,-9705.0,-20.0,-6.0,-1.0,1.0
2022-05-23 16:13:12.572226-07:00,2474.9,603.6,1273.9,1452.5,1081.6,1310.6,1367.6,1713.8,3435.8,3431.0,1566.5,1421.3,0.0,3428.6,1164.7,1572.1,3429.8,3423.7,733.2,1313.3,874.7,616.5,1221.3,2111.8,3435.8,3428.6,794.4,1004.8,1596.4,1486.6,1158.6,1060.8,-1.0,-3.0,7.0,6464.0,9007.0,-8071.0,-8966.0,15.0,-5.0,-1.0,10.0,-5.0,5.0,8657.0,7167.0,-6921.0,-9707.0,-4.0,1.0,-1.0,1.0
2022-05-23 16:13:12.632675-07:00,2474.9,603.6,1273.9,1452.5,1086.8,1325.0,1366.6,1692.9,3435.8,3431.0,1566.5,1421.3,0.0,3426.2,1155.9,1571.1,3418.9,3416.5,729.9,1302.5,874.7,616.5,1221.3,2111.8,3429.8,3437.0,786.9,1001.3,1596.4,1486.6,1158.6,1060.8,0.0,6.0,1.0,6457.0,9003.0,-8076.0,-8970.0,-4.0,-50.0,-6.0,10.0,4.0,3.0,8662.0,7162.0,-6916.0,-9710.0,-110.0,-4.0,15.0,1.0
2022-05-23 16:13:12.692018-07:00,2478.1,611.7,1289.1,1452.5,1086.8,1325.0,1366.6,1692.9,3429.8,3428.6,1561.8,1413.1,0.0,3426.2,1155.9,1571.1,3418.9,3416.5,729.9,1302.5,878.9,616.5,1220.4,2104.8,3429.8,3437.0,786.9,1001.3,1600.2,1481.9,1155.9,1055.6,36.0,43.0,0.0,6438.0,8973.0,-8035.0,-9050.0,-277.0,-190.0,-250.0,28.0,-9.0,-17.0,8712.0,7098.0,-6862.0,-9751.0,-386.0,-54.0,-2.0,1.0
2022-05-23 16:13:12.722201-07:00,2478.1,611.7,1289.1,1452.5,1079.0,1353.1,1385.7,1696.7,3429.8,3428.6,1561.8,1413.1,0.0,3427.4,1150.6,1572.1,3424.9,3432.2,728.2,1308.8,878.9,616.5,1220.4,2104.8,3429.8,3426.2,791.0,1011.6,1600.2,1481.9,1155.9,1055.6,-1.0,27.0,-21.0,6319.0,8976.0,-7946.0,-9209.0,-117.0,-296.0,-420.0,20.0,24.0,18.0,8742.0,7024.0,-6791.0,-9827.0,-299.0,-89.0,-76.0,1.0
2022-05-23 16:13:12.782119-07:00,2494.0,623.8,1323.2,1475.5,1079.0,1353.1,1385.7,1703.3,3429.8,3429.8,1602.1,1421.3,0.0,3427.4,1150.6,1574.9,3414.1,3432.2,728.2,1308.8,885.6,618.1,1313.3,2110.8,3426.2,3426.2,791.0,1011.6,1600.2,1487.5,1164.7,1058.2,-35.0,-2.0,-23.0,6236.0,8856.0,-7866.0,-9447.0,-517.0,-626.0,-165.0,0.0,29.0,9.0,8778.0,6914.0,-6699.0,-9935.0,-574.0,-142.0,-46.0,1.0
2022-05-23 16:13:12.842235-07:00,2518.6,623.8,1323.2,1475.5,1079.0,1436.0,1468.1,1703.3,3428.6,3429.8,1602.1,1421.3,0.0,3431.0,1159.4,1574.9,3414.1,3426.2,727.4,1323.2,885.6,618.1,1313.3,2115.9,3426.2,3431.0,904.2,1033.2,1600.2,1487.5,1164.7,1072.9,-11.0,-40.0,14.0,6257.0,8561.0,-7786.0,-9766.0,-941.0,-700.0,60.0,-1.0,-26.0,3.0,8865.0,6713.0,-6552.0,-10092.0,-844.0,-206.0,11.0,1.0
2022-05-23 16:13:12.872956-07:00,2518.6,627.8,1461.7,1514.3,1079.0,1436.0,1468.1,1718.6,3428.6,3422.5,1625.6,1419.5,0.0,3431.0,1159.4,1573.0,3420.1,3426.2,727.4,1323.2,894.9,623.0,1387.5,2115.9,3427.4,3431.0,904.2,1033.2,1591.7,1477.3,1154.2,1072.9,38.0,-19.0,45.0,6355.0,8227.0,-7708.0,-10048.0,-722.0,-493.0,198.0,-4.0,1.0,-19.0,8961.0,6488.0,-6408.0,-10245.0,-550.0,-202.0,43.0,1.0
2022-05-23 16:13:12.961679-07:00,2528.3,627.8,1461.7,1514.3,1076.4,1440.5,1559.9,1718.6,3427.4,3422.5,1625.6,1419.5,0.0,3412.9,1155.9,1573.0,3420.1,3431.0,730.7,1333.2,894.9,623.0,1387.5,2108.8,3427.4,3427.4,939.8,1057.3,1591.7,1477.3,1154.2,1079.9,2.0,-49.0,50.0,6536.0,8008.0,-7602.0,-10188.0,-662.0,12.0,303.0,-26.0,-25.0,-7.0,9017.0,6322.0,-6343.0,-10340.0,-298.0,-181.0,81.0,1.0
2022-05-23 16:13:12.992062-07:00,2528.3,642.4,1458.9,1505.1,1076.4,1440.5,1559.9,1639.8,3427.4,3426.2,1650.2,1426.8,0.0,3412.9,1155.9,1567.4,3411.7,3431.0,730.7,1333.2,899.1,624.6,1419.5,2108.8,3424.9,3427.4,939.8,1057.3,1596.4,1478.3,1146.3,1079.9,-12.0,13.0,25.0,6766.0,7888.0,-7512.0,-10198.0,-367.0,177.0,362.0,-1.0,-3.0,17.0,9036.0,6221.0,-6342.0,-10386.0,-138.0,-134.0,54.0,1.0
2022-05-23 16:13:13.052321-07:00,2496.2,650.5,1458.9,1505.1,1074.7,1408.5,1535.7,1639.8,3435.8,3421.3,1650.2,1426.8,0.0,3426.2,1144.5,1567.4,3411.7,3420.1,732.3,1350.3,899.1,624.6,1438.7,2109.8,3424.9,3424.9,941.5,1053.0,1596.4,1478.3,1153.3,1081.6,0.0,6.0,-23.0,6955.0,7807.0,-7439.0,-10188.0,-401.0,121.0,234.0,10.0,15.0,16.0,9053.0,6130.0,-6336.0,-10428.0,-244.0,-175.0,38.0,1.0
2022-05-23 16:13:13.081694-07:00,2496.2,650.5,1459.8,1519.0,1074.7,1408.5,1541.3,1661.5,3435.8,3421.3,1684.3,1424.1,0.0,3426.2,1142.7,1556.2,3415.3,3422.5,732.3,1350.3,899.1,621.4,1438.7,2109.8,3423.7,3432.2,941.5,1053.0,1592.7,1470.9,1153.3,1081.6,66.0,5.0,46.0,7077.0,7694.0,-7358.0,-10247.0,-421.0,-38.0,49.0,31.0,-59.0,-46.0,9075.0,6020.0,-6317.0,-10485.0,-252.0,-168.0,35.0,1.0
2022-05-23 16:13:13.172220-07:00,2488.7,635.9,1459.8,1519.0,1082.5,1376.6,1541.3,1661.5,3423.7,3431.0,1684.3,1424.1,0.0,3423.7,1142.7,1556.2,3415.3,3422.5,729.0,1361.2,899.1,621.4,1411.3,2119.9,3423.7,3432.2,920.3,1039.2,1592.7,1470.9,1144.5,1072.1,-15.0,-18.0,31.0,7132.0,7687.0,-7246.0,-10295.0,-293.0,240.0,-130.0,9.0,-7.0,35.0,9082.0,5943.0,-6304.0,-10530.0,-158.0,-95.0,12.0,1.0
2022-05-23 16:13:13.173496-07:00,2488.7,635.9,1484.7,1531.0,1082.5,1376.6,1559.0,1703.3,3423.7,3431.0,1671.9,1429.5,0.0,3423.7,1136.6,1555.3,3422.5,3418.9,729.0,1361.2,894.1,620.5,1411.3,2119.9,3422.5,3423.7,920.3,1039.2,1594.6,1469.0,1144.5,1072.1,-20.0,-16.0,27.0,7211.0,7699.0,-7131.0,-10311.0,-142.0,130.0,93.0,9.0,-13.0,32.0,9090.0,5888.0,-6293.0,-10561.0,-77.0,-83.0,8.0,1.0
2022-05-23 16:13:13.232221-07:00,2477.0,646.5,1484.7,1531.0,1082.5,1376.6,1559.0,1703.3,3422.5,3422.5,1671.9,1429.5,0.0,3424.9,1136.6,1555.3,3422.5,3418.9,729.9,1375.7,894.1,620.5,1401.2,2104.8,3422.5,3423.7,912.7,1049.6,1594.6,1469.0,1150.6,1069.5,5.0,-17.0,26.0,7265.0,7715.0,-7098.0,-10284.0,63.0,145.0,11.0,23.0,-20.0,22.0,9091.0,5874.0,-6299.0,-10564.0,54.0,27.0,9.0,1.0
2022-05-23 16:13:13.291918-07:00,2477.0,646.5,1481.0,1526.4,1082.5,1376.6,1561.8,1752.1,3422.5,3422.5,1669.1,1421.3,0.0,3424.9,1134.9,1557.1,3416.5,3429.8,729.9,1375.7,892.4,621.4,1401.2,2104.8,3424.9,3426.2,912.7,1049.6,1599.3,1470.9,1150.6,1069.5,3.0,1.0,9.0,7282.0,7755.0,-7097.0,-10242.0,60.0,88.0,29.0,9.0,-8.0,10.0,9094.0,5885.0,-6308.0,-10551.0,49.0,12.0,9.0,1.0
2022-05-23 16:13:13.352466-07:00,2457.9,645.7,1490.3,1526.4,1088.6,1366.6,1561.8,1752.1,3427.4,3423.7,1659.6,1421.3,0.0,3432.2,1134.9,1557.1,3416.5,3429.8,727.4,1360.3,892.4,617.3,1391.2,2098.7,3424.9,3426.2,907.6,1040.9,1599.3,1470.0,1149.8,1070.3,15.0,-6.0,8.0,7293.0,7781.0,-7099.0,-10213.0,35.0,88.0,4.0,10.0,-10.0,-9.0,9088.0,5894.0,-6322.0,-10542.0,51.0,7.0,9.0,1.0
2022-05-23 16:13:13.381781-07:00,2457.9,645.7,1490.3,1544.1,1088.6,1353.1,1551.5,1738.7,3427.4,3423.7,1659.6,1422.2,0.0,3423.7,1142.7,1557.1,3424.9,3424.9,728.2,1360.3,892.4,617.3,1391.2,2098.7,3432.2,3427.4,895.7,1040.9,1597.4,1470.0,1149.8,1070.3,0.0,23.0,19.0,7311.0,7817.0,-7080.0,-10186.0,-38.0,176.0,-16.0,4.0,8.0,4.0,9082.0,5903.0,-6337.0,-10533.0,6.0,-27.0,17.0,1.0
2022-05-23 16:13:13.442068-07:00,2453.6,644.9,1532.9,1544.1,1084.2,1353.1,1551.5,1738.7,3432.2,3418.9,1649.2,1422.2,0.0,3423.7,1142.7,1557.1,3424.9,3424.9,728.2,1357.6,892.4,617.3,1381.2,2093.7,3432.2,3427.4,895.7,1040.1,1597.4,1472.7,1154.2,1073.8,-23.0,-11.0,-31.0,7381.0,7836.0,-7011.0,-10168.0,-179.0,77.0,65.0,18.0,-19.0,23.0,9085.0,5879.0,-6346.0,-10539.0,-25.0,-68.0,4.0,1.0
2022-05-23 16:13:13.502954-07:00,2453.6,644.9,1532.9,1551.5,1084.2,1346.7,1551.5,1728.2,3432.2,3418.9,1649.2,1423.1,0.0,3424.9,1141.0,1562.7,3431.0,3422.5,722.5,1357.6,889.0,617.3,1381.2,2093.7,3434.6,3427.4,889.8,1040.1,1595.5,1472.7,1154.2,1073.8,17.0,0.0,26.0,7419.0,7811.0,-6980.0,-10182.0,-77.0,42.0,-20.0,12.0,-7.0,-3.0,9080.0,5855.0,-6352.0,-10553.0,-16.0,-40.0,-4.0,1.0
2022-05-23 16:13:13.532125-07:00,2443.0,641.6,1512.5,1551.5,1098.2,1346.7,1551.5,1728.2,3423.7,3420.1,1637.9,1423.1,0.0,3424.9,1141.0,1562.7,3431.0,3422.5,722.5,1362.1,889.0,618.1,1365.7,2096.7,3434.6,3427.4,889.8,1040.9,1595.5,1481.9,1161.2,1064.3,-11.0,-6.0,20.0,7443.0,7812.0,-6940.0,-10191.0,-60.0,12.0,-4.0,24.0,-9.0,31.0,9081.0,5834.0,-6354.0,-10562.0,-17.0,-23.0,-7.0,1.0
2022-05-23 16:13:13.592103-07:00,2443.0,641.6,1512.5,1551.5,1097.3,1342.2,1547.8,1715.8,3423.7,3420.1,1637.9,1418.6,0.0,3417.7,1134.0,1559.9,3421.3,3422.5,725.8,1359.4,890.7,618.1,1365.7,2096.7,3424.9,3424.9,883.9,1034.0,1585.2,1481.9,1161.2,1064.3,16.0,-3.0,18.0,7448.0,7801.0,-6938.0,-10197.0,18.0,-6.0,10.0,15.0,-8.0,0.0,9084.0,5822.0,-6355.0,-10566.0,16.0,-2.0,-11.0,1.0
2022-05-23 16:13:13.622349-07:00,2432.4,640.8,1519.9,1557.1,1097.3,1342.2,1547.8,1715.8,3434.6,3428.6,1642.6,1417.6,0.0,3417.7,1134.0,1559.9,3421.3,3422.5,725.8,1359.4,892.4,617.3,1360.3,2088.6,3424.9,3424.9,883.9,1034.0,1595.5,1482.9,1155.9,1072.1,-1.0,-3.0,13.0,7449.0,7804.0,-6933.0,-10198.0,20.0,26.0,-25.0,5.0,-2.0,8.0,9085.0,5820.0,-6356.0,-10565.0,8.0,0.0,-3.0,1.0
2022-05-23 16:13:13.683072-07:00,2432.4,640.8,1519.9,1557.1,1120.9,1324.1,1538.5,1697.6,3434.6,3428.6,1642.6,1417.6,0.0,3421.3,1137.5,1552.5,3426.2,3418.9,725.8,1361.2,892.4,617.3,1360.3,2088.6,3428.6,3434.6,882.3,1028.0,1595.5,1482.9,1155.9,1072.1,3.0,0.0,-1.0,7447.0,7816.0,-6924.0,-10195.0,-29.0,20.0,-29.0,8.0,-9.0,0.0,9083.0,5820.0,-6359.0,-10565.0,9.0,-10.0,-9.0,1.0
2022-05-23 16:13:13.715054-07:00,2424.0,631.9,1511.5,1549.7,1120.9,1324.1,1538.5,1697.6,3421.3,3427.4,1624.7,1418.6,0.0,3421.3,1137.5,1552.5,3426.2,3418.9,725.8,1361.2,885.6,612.5,1352.1,2078.5,3428.6,3434.6,882.3,1028.0,1589.9,1476.4,1162.1,1082.5,5.0,-8.0,15.0,7451.0,7822.0,-6900.0,-10204.0,-40.0,35.0,-34.0,6.0,-3.0,-2.0,9079.0,5814.0,-6364.0,-10569.0,0.0,-22.0,-6.0,1.0
2022-05-23 16:13:13.772974-07:00,2424.0,631.9,1511.5,1549.7,1142.7,1335.0,1530.1,1687.2,3421.3,3427.4,1624.7,1418.6,0.0,3427.4,1138.4,1556.2,3421.3,3416.5,729.9,1355.8,885.6,612.5,1352.1,2078.5,3423.7,3426.2,878.9,1031.4,1589.9,1476.4,1162.1,1082.5,-3.0,-7.0,21.0,7458.0,7826.0,-6874.0,-10213.0,-35.0,25.0,-27.0,13.0,-5.0,15.0,9078.0,5804.0,-6366.0,-10574.0,-4.0,-12.0,-5.0,1.0
2022-05-23 16:13:13.832136-07:00,2412.4,640.0,1514.3,1551.5,1142.7,1335.0,1530.1,1687.2,3426.2,3424.9,1629.4,1411.3,0.0,3427.4,1138.4,1556.2,3421.3,3416.5,729.9,1355.8,882.3,613.3,1352.1,2088.6,3423.7,3426.2,878.9,1031.4,1589.9,1473.6,1157.7,1098.2,10.0,-1.0,19.0,7462.0,7833.0,-6861.0,-10215.0,16.0,50.0,-25.0,9.0,-8.0,6.0,9077.0,5804.0,-6371.0,-10571.0,39.0,7.0,-6.0,1.0
2022-05-23 16:13:13.861727-07:00,2412.4,640.0,1514.3,1551.5,1155.9,1329.6,1514.3,1677.6,3418.9,3424.9,1629.4,1411.3,0.0,3428.6,1145.4,1556.2,3420.1,3424.9,727.4,1359.4,882.3,613.3,1352.1,2079.5,3427.4,3429.8,875.5,1028.0,1589.9,1473.6,1157.7,1104.3,-1.0,-7.0,7.0,7459.0,7853.0,-6850.0,-10208.0,22.0,31.0,-31.0,9.0,-12.0,7.0,9075.0,5808.0,-6379.0,-10567.0,22.0,-1.0,-5.0,1.0
2022-05-23 16:13:13.922206-07:00,2412.4,632.7,1509.7,1559.0,1155.9,1329.6,1514.3,1653.9,3418.9,3437.0,1628.4,1411.3,0.0,3428.6,1145.4,1560.9,3429.8,3424.9,727.4,1359.4,888.2,610.8,1338.6,2079.5,3427.4,3429.8,875.5,1028.0,1582.4,1478.3,1156.8,1104.3,4.0,-5.0,26.0,7448.0,7876.0,-6846.0,-10201.0,76.0,73.0,-49.0,9.0,-16.0,8.0,9065.0,5821.0,-6392.0,-10561.0,98.0,2.0,-23.0,1.0
2022-05-23 16:13:13.982297-07:00,2403.9,632.7,1509.7,1559.0,1147.1,1323.2,1512.5,1653.9,3429.8,3437.0,1628.4,1411.3,0.0,3429.8,1143.6,1560.9,3429.8,3426.2,729.9,1357.6,888.2,610.8,1338.6,2075.5,3427.4,3438.2,873.0,1040.1,1582.4,1478.3,1156.8,1102.5,-15.0,-36.0,26.0,7426.0,7939.0,-6854.0,-10162.0,243.0,115.0,-10.0,20.0,-24.0,28.0,9039.0,5865.0,-6426.0,-10537.0,215.0,45.0,-34.0,1.0
2022-05-23 16:13:14.011838-07:00,2403.9,633.5,1500.4,1567.4,1147.1,1323.2,1512.5,1644.5,3429.8,3423.7,1624.7,1408.5,0.0,3429.8,1143.6,1556.2,3420.1,3426.2,729.9,1357.6,885.6,614.1,1342.2,2075.5,3426.2,3438.2,873.0,1040.1,1588.0,1483.8,1163.8,1102.5,-4.0,-30.0,56.0,7369.0,8029.0,-6968.0,-10055.0,692.0,85.0,128.0,12.0,-11.0,34.0,8990.0,5975.0,-6497.0,-10474.0,563.0,150.0,-87.0,1.0
2022-05-23 16:13:14.072440-07:00,2406.0,633.5,1500.4,1567.4,1167.4,1314.2,1501.4,1644.5,3422.5,3423.7,1624.7,1408.5,0.0,3427.4,1154.2,1556.2,3420.1,3421.3,723.3,1344.9,885.6,614.1,1342.2,2073.5,3426.2,3428.6,870.5,1023.7,1588.0,1483.8,1163.8,1124.4,-8.0,-15.0,1.0,7263.0,8197.0,-7209.0,-9824.0,971.0,208.0,280.0,-5.0,18.0,0.0,8887.0,6221.0,-6630.0,-10334.0,782.0,249.0,-76.0,1.0
2022-05-23 16:13:14.132485-07:00,2406.0,627.0,1498.6,1558.1,1167.4,1314.2,1487.5,1638.8,3422.5,3427.4,1630.3,1415.8,0.0,3427.4,1151.5,1558.1,3417.7,3423.7,723.3,1344.9,889.0,607.6,1344.0,2073.5,3422.5,3422.5,870.5,1023.7,1568.3,1477.3,1163.0,1124.4,17.0,7.0,-13.0,7204.0,8351.0,-7457.0,-9550.0,800.0,208.0,306.0,1.0,-15.0,-24.0,8794.0,6460.0,-6767.0,-10178.0,711.0,208.0,-43.0,1.0
2022-05-23 16:13:14.162077-07:00,2397.6,629.5,1498.6,1558.1,1171.8,1315.1,1487.5,1638.8,3418.9,3421.3,1630.3,1415.8,0.0,3428.6,1151.5,1558.1,3417.7,3423.7,727.4,1352.1,889.0,607.6,1338.6,2068.5,3422.5,3422.5,864.6,1025.4,1568.3,1477.3,1165.6,1120.9,2.0,-13.0,6.0,7090.0,8532.0,-7678.0,-9297.0,877.0,208.0,129.0,5.0,1.0,-11.0,8681.0,6711.0,-6898.0,-10022.0,730.0,227.0,-94.0,1.0
2022-05-23 16:13:14.222210-07:00,2397.6,629.5,1485.6,1568.3,1171.8,1315.1,1489.3,1604.0,3418.9,3421.3,1639.8,1419.5,0.0,3428.6,1146.3,1555.3,3429.8,3418.9,727.4,1352.1,889.8,610.8,1338.6,2068.5,3431.0,3434.6,864.6,1025.4,1591.7,1486.6,1165.6,1120.9,9.0,3.0,-21.0,6998.0,8685.0,-7860.0,-9069.0,661.0,158.0,162.0,5.0,3.0,-17.0,8578.0,6924.0,-7016.0,-9884.0,588.0,161.0,-53.0,1.0
2022-05-23 16:13:14.282609-07:00,2385.0,627.0,1485.6,1568.3,1173.5,1309.7,1489.3,1604.0,3431.0,3417.7,1639.8,1419.5,0.0,3426.2,1146.3,1555.3,3429.8,3418.9,725.8,1349.4,889.8,610.8,1335.9,2068.5,3431.0,3434.6,858.7,1024.5,1591.7,1486.6,1170.0,1120.9,2.0,31.0,-40.0,6937.0,8787.0,-7984.0,-8908.0,390.0,118.0,83.0,-8.0,24.0,-14.0,8507.0,7063.0,-7100.0,-9786.0,324.0,87.0,-16.0,1.0
2022-05-23 16:13:14.341909-07:00,2385.0,627.0,1480.1,1570.2,1173.5,1309.7,1477.3,1599.3,3431.0,3417.7,1650.2,1424.1,0.0,3426.2,1153.3,1557.1,3416.5,3423.7,725.8,1349.4,885.6,613.3,1335.9,2068.5,3428.6,3432.2,858.7,1024.5,1581.4,1484.7,1170.0,1120.9,8.0,-12.0,-4.0,6918.0,8799.0,-8021.0,-8878.0,-42.0,-96.0,33.0,-7.0,1.0,-10.0,8487.0,7097.0,-7122.0,-9763.0,16.0,-30.0,-17.0,1.0
2022-05-23 16:13:14.402300-07:00,2385.0,619.7,1483.8,1570.2,1185.9,1309.7,1477.3,1599.3,3429.8,3427.4,1653.0,1424.1,0.0,3429.8,1153.3,1557.1,3416.5,3423.7,724.1,1345.8,885.6,611.7,1339.5,2066.5,3428.6,3432.2,868.8,1025.4,1581.4,1489.3,1173.5,1134.9,1.0,-20.0,52.0,6912.0,8798.0,-8044.0,-8864.0,168.0,86.0,27.0,15.0,-19.0,15.0,8449.0,7127.0,-7156.0,-9749.0,202.0,10.0,-30.0,1.0
2022-05-23 16:13:14.432078-07:00,2385.0,619.7,1483.8,1565.5,1185.9,1309.7,1475.5,1606.8,3429.8,3427.4,1653.0,1423.1,0.0,3422.5,1158.6,1558.1,3426.2,3420.1,722.5,1345.8,878.9,611.7,1339.5,2066.5,3428.6,3428.6,868.8,1025.4,1582.4,1489.3,1173.5,1134.9,-4.0,-4.0,15.0,6887.0,8863.0,-8111.0,-8757.0,348.0,111.0,116.0,9.0,-5.0,14.0,8404.0,7202.0,-7210.0,-9693.0,319.0,72.0,-27.0,1.0
2022-05-23 16:13:14.462156-07:00,2369.3,621.4,1470.9,1565.5,1181.5,1309.7,1475.5,1606.8,3420.1,3428.6,1677.6,1423.1,0.0,3422.5,1158.6,1558.1,3426.2,3420.1,722.5,1343.1,878.9,606.8,1330.5,2070.5,3428.6,3428.6,868.8,1021.1,1582.4,1479.2,1166.5,1170.0,13.0,24.0,-41.0,6855.0,8914.0,-8181.0,-8664.0,201.0,37.0,39.0,3.0,11.0,-29.0,8376.0,7264.0,-7247.0,-9643.0,116.0,55.0,1.0,1.0
2022-05-23 16:13:14.522815-07:00,2369.3,621.4,1470.9,1580.5,1181.5,1308.8,1470.0,1581.4,3420.1,3428.6,1677.6,1431.4,0.0,3429.8,1155.9,1556.2,3422.5,3414.1,724.1,1343.1,881.4,606.8,1330.5,2070.5,3426.2,3429.8,863.7,1021.1,1575.8,1479.2,1166.5,1170.0,0.0,2.0,-7.0,6841.0,8920.0,-8186.0,-8664.0,-65.0,-34.0,-48.0,-8.0,3.0,-2.0,8374.0,7268.0,-7249.0,-9640.0,-47.0,-24.0,-3.0,1.0
2022-05-23 16:13:14.581943-07:00,2365.1,620.5,1475.5,1580.5,1190.3,1308.8,1470.0,1581.4,3426.2,3427.4,1659.6,1431.4,0.0,3429.8,1155.9,1556.2,3422.5,3414.1,724.1,1344.0,881.4,610.0,1316.9,2061.5,3426.2,3429.8,863.7,1019.4,1575.8,1486.6,1165.6,1163.8,0.0,-13.0,13.0,6851.0,8902.0,-8160.0,-8699.0,-109.0,-19.0,-19.0,3.0,-11.0,10.0,8384.0,7245.0,-7235.0,-9660.0,-84.0,-25.0,4.0,1.0
2022-05-23 16:13:14.612995-07:00,2365.1,620.5,1475.5,1570.2,1190.3,1317.8,1464.4,1563.7,3426.2,3427.4,1659.6,1425.9,0.0,3418.9,1153.3,1553.4,3418.9,3429.8,720.8,1344.0,883.9,610.0,1316.9,2061.5,3423.7,3418.9,862.1,1019.4,1577.7,1486.6,1165.6,1163.8,4.0,-1.0,8.0,6860.0,8889.0,-8141.0,-8723.0,-69.0,-22.0,-31.0,8.0,-2.0,8.0,8397.0,7224.0,-7220.0,-9675.0,-86.0,-8.0,9.0,1.0
2022-05-23 16:13:14.703078-07:00,2367.2,626.2,1478.3,1568.3,1185.9,1317.8,1464.4,1563.7,3429.8,3429.8,1663.4,1431.4,0.0,3418.9,1153.3,1553.4,3418.9,3429.8,720.8,1346.7,876.4,609.2,1323.2,2065.5,3423.7,3418.9,862.1,1017.6,1583.3,1485.6,1175.3,1161.2,-8.0,3.0,-10.0,6863.0,8858.0,-8112.0,-8778.0,-182.0,-129.0,-60.0,2.0,12.0,17.0,8429.0,7181.0,-7189.0,-9703.0,-215.0,-33.0,34.0,1.0
2022-05-23 16:13:14.732070-07:00,2367.2,626.2,1478.3,1568.3,1174.4,1303.4,1455.2,1564.6,3429.8,3429.8,1663.4,1431.4,0.0,3424.9,1170.9,1555.3,3423.7,3424.9,717.5,1339.5,876.4,609.2,1323.2,2065.5,3432.2,3429.8,850.3,1018.5,1583.3,1485.6,1175.3,1161.2,4.0,-22.0,29.0,6876.0,8790.0,-8099.0,-8848.0,-126.0,-107.0,63.0,4.0,-16.0,9.0,8461.0,7125.0,-7157.0,-9739.0,-63.0,-41.0,9.0,1.0
2022-05-23 16:13:14.762519-07:00,2366.1,621.4,1475.5,1572.1,1174.4,1303.4,1455.2,1564.6,3421.3,3429.8,1666.3,1430.5,0.0,3424.9,1170.9,1555.3,3423.7,3424.9,717.5,1339.5,880.6,607.6,1320.5,2054.4,3432.2,3429.8,850.3,1018.5,1576.8,1474.6,1170.0,1163.0,4.0,-6.0,31.0,6891.0,8768.0,-8109.0,-8850.0,31.0,17.0,39.0,12.0,-7.0,8.0,8462.0,7121.0,-7158.0,-9740.0,17.0,12.0,3.0,1.0
2022-05-23 16:13:14.852538-07:00,2366.1,621.4,1475.5,1572.1,1163.0,1302.5,1451.6,1558.1,3421.3,3429.8,1666.3,1430.5,0.0,3424.9,1166.5,1550.6,3416.5,3417.7,720.0,1342.2,880.6,607.6,1320.5,2054.4,3434.6,3424.9,852.8,1021.9,1576.8,1474.6,1170.0,1163.0,2.0,1.0,-5.0,6893.0,8776.0,-8122.0,-8827.0,42.0,14.0,21.0,6.0,4.0,6.0,8460.0,7134.0,-7163.0,-9729.0,28.0,11.0,0.0,1.0
2022-05-23 16:13:14.882776-07:00,2361.9,627.0,1487.5,1584.2,1163.0,1302.5,1451.6,1558.1,3429.8,3423.7,1658.7,1431.4,0.0,3424.9,1166.5,1550.6,3416.5,3417.7,720.0,1342.2,871.3,605.2,1317.8,2046.4,3434.6,3424.9,852.8,1021.9,1576.8,1494.0,1162.1,1160.3,9.0,1.0,-2.0,6898.0,8771.0,-8121.0,-8831.0,-56.0,-6.0,-5.0,5.0,0.0,-2.0,8462.0,7131.0,-7161.0,-9731.0,-37.0,-10.0,-1.0,1.0
2022-05-23 16:13:14.941982-07:00,2364.0,627.0,1487.5,1584.2,1167.4,1287.3,1447.9,1544.1,3426.2,3423.7,1658.7,1431.4,0.0,3433.4,1165.6,1560.9,3433.4,3426.2,723.3,1337.7,871.3,605.2,1317.8,2060.5,3428.6,3431.0,844.4,1021.9,1576.8,1494.0,1162.1,1161.2,-2.0,-1.0,10.0,6910.0,8756.0,-8098.0,-8858.0,-93.0,-23.0,-28.0,1.0,0.0,8.0,8471.0,7113.0,-7149.0,-9746.0,-63.0,-15.0,-5.0,1.0
2022-05-23 16:13:15.002352-07:00,2364.0,614.9,1483.8,1583.3,1167.4,1287.3,1447.9,1545.0,3426.2,3424.9,1662.5,1425.9,0.0,3433.4,1165.6,1555.3,3421.3,3426.2,723.3,1337.7,883.9,610.0,1309.7,2060.5,3418.9,3431.0,844.4,1021.9,1575.8,1485.6,1164.7,1161.2,-1.0,-3.0,6.0,6920.0,8745.0,-8079.0,-8877.0,-55.0,-3.0,-14.0,6.0,-6.0,7.0,8478.0,7098.0,-7140.0,-9758.0,-40.0,-16.0,0.0,1.0
2022-05-23 16:13:15.031965-07:00,2349.4,614.9,1483.8,1583.3,1177.9,1290.9,1448.8,1545.0,3434.6,3424.9,1662.5,1425.9,0.0,3432.2,1170.0,1555.3,3421.3,3418.9,722.5,1339.5,883.9,610.0,1309.7,2060.5,3418.9,3429.8,846.1,1019.4,1575.8,1485.6,1164.7,1165.6,9.0,-3.0,15.0,6926.0,8737.0,-8062.0,-8895.0,-48.0,-12.0,-37.0,8.0,0.0,6.0,8483.0,7083.0,-7133.0,-9768.0,-45.0,-10.0,1.0,1.0
2022-05-23 16:13:15.062124-07:00,2349.4,621.4,1484.7,1586.1,1177.9,1290.9,1448.8,1536.6,3434.6,3427.4,1653.0,1426.8,0.0,3432.2,1170.0,1561.8,3432.2,3418.9,722.5,1339.5,876.4,614.9,1305.2,2060.5,3431.0,3429.8,846.1,1019.4,1572.1,1476.4,1167.4,1165.6,2.0,-3.0,10.0,6928.0,8736.0,-8048.0,-8908.0,-20.0,-7.0,-18.0,5.0,-5.0,4.0,8492.0,7072.0,-7123.0,-9776.0,-26.0,-2.0,-4.0,1.0
2022-05-23 16:13:15.122220-07:00,2379.7,621.4,1484.7,1586.1,1163.8,1296.3,1436.9,1536.6,3424.9,3427.4,1653.0,1426.8,0.0,3420.1,1170.9,1561.8,3432.2,3439.5,720.0,1341.3,876.4,614.9,1305.2,2062.5,3431.0,3434.6,839.4,1015.9,1572.1,1476.4,1167.4,1157.7,1.0,-2.0,12.0,6927.0,8738.0,-8042.0,-8912.0,-5.0,3.0,-11.0,7.0,-7.0,2.0,8494.0,7070.0,-7122.0,-9777.0,3.0,-2.0,-5.0,1.0
2022-05-23 16:13:15.182332-07:00,2379.7,617.3,1476.4,1570.2,1163.8,1296.3,1436.9,1529.2,3424.9,3431.0,1641.6,1425.0,0.0,3420.1,1170.9,1559.9,3415.3,3439.5,720.0,1341.3,883.1,604.4,1307.9,2062.5,3427.4,3434.6,839.4,1015.9,1569.3,1480.1,1164.7,1157.7,-3.0,-2.0,5.0,6923.0,8743.0,-8035.0,-8917.0,-15.0,-2.0,-21.0,0.0,0.0,4.0,8496.0,7068.0,-7119.0,-9779.0,-17.0,-4.0,-6.0,1.0
2022-05-23 16:13:15.211740-07:00,2358.8,627.8,1476.4,1570.2,1174.4,1289.1,1439.6,1529.2,3426.2,3418.9,1641.6,1425.0,0.0,3427.4,1164.7,1559.9,3415.3,3424.9,725.8,1339.5,883.1,604.4,1301.6,2054.4,3427.4,3424.9,847.0,1016.8,1569.3,1480.1,1166.5,1171.8,2.0,0.0,4.0,6928.0,8737.0,-8029.0,-8924.0,-27.0,2.0,-5.0,6.0,-9.0,0.0,8497.0,7061.0,-7117.0,-9784.0,-12.0,-11.0,4.0,1.0
2022-05-23 16:13:15.272205-07:00,2358.8,627.8,1482.9,1574.9,1174.4,1289.1,1448.8,1518.0,3426.2,3418.9,1640.7,1422.2,0.0,3427.4,1162.1,1551.5,3423.7,3426.2,725.8,1339.5,878.0,613.3,1301.6,2054.4,3434.6,3434.6,847.0,1016.8,1573.0,1483.8,1166.5,1171.8,-4.0,-2.0,12.0,6934.0,8726.0,-8020.0,-8937.0,-48.0,-33.0,-5.0,6.0,-3.0,4.0,8498.0,7052.0,-7116.0,-9791.0,-33.0,-19.0,-5.0,1.0
2022-05-23 16:13:15.332103-07:00,2354.6,614.1,1482.9,1574.9,1175.3,1285.5,1448.8,1518.0,3417.7,3424.9,1640.7,1422.2,0.0,3427.4,1162.1,1551.5,3423.7,3426.2,726.6,1338.6,878.0,613.3,1306.1,2045.4,3434.6,3434.6,841.9,1014.2,1573.0,1483.8,1168.2,1169.1,4.0,-8.0,13.0,6939.0,8717.0,-8015.0,-8947.0,-1.0,5.0,1.0,4.0,-4.0,2.0,8501.0,7044.0,-7112.0,-9796.0,-2.0,0.0,-3.0,1.0
2022-05-23 16:13:15.361948-07:00,2354.6,614.1,1476.4,1572.1,1175.3,1285.5,1445.1,1532.9,3417.7,3424.9,1643.5,1420.4,0.0,3427.4,1166.5,1552.5,3418.9,3423.7,726.6,1338.6,864.6,603.6,1306.1,2045.4,3420.1,3431.0,841.9,1014.2,1573.9,1486.6,1168.2,1169.1,4.0,2.0,5.0,6939.0,8717.0,-8015.0,-8947.0,2.0,-4.0,6.0,3.0,3.0,0.0,8502.0,7044.0,-7112.0,-9796.0,9.0,0.0,-2.0,1.0
2022-05-23 16:13:15.422186-07:00,2350.4,621.4,1476.4,1572.1,1168.2,1287.3,1445.1,1532.9,3422.5,3432.2,1643.5,1420.4,0.0,3432.2,1166.5,1552.5,3418.9,3423.7,720.0,1335.0,864.6,603.6,1302.5,2056.4,3420.1,3431.0,846.1,1018.5,1573.9,1486.6,1168.2,1159.4,5.0,-2.0,8.0,6941.0,8716.0,-8014.0,-8948.0,-5.0,2.0,-9.0,7.0,-1.0,1.0,8502.0,7043.0,-7111.0,-9797.0,-1.0,-2.0,-6.0,1.0
2022-05-23 16:13:15.512235-07:00,2350.4,621.4,1475.5,1566.5,1168.2,1289.1,1441.5,1529.2,3422.5,3432.2,1641.6,1416.7,0.0,3429.8,1171.8,1562.7,3421.3,3424.9,720.0,1335.0,875.5,606.8,1302.5,2056.4,3429.8,3429.8,840.3,1018.5,1574.9,1482.9,1168.2,1159.4,4.0,0.0,8.0,6939.0,8718.0,-8012.0,-8949.0,6.0,15.0,-17.0,9.0,-5.0,0.0,8503.0,7042.0,-7112.0,-9797.0,-5.0,-5.0,-2.0,1.0
2022-05-23 16:13:15.514019-07:00,2350.4,623.0,1466.3,1566.5,1177.0,1289.1,1441.5,1529.2,3423.7,3427.4,1636.0,1416.7,0.0,3429.8,1171.8,1562.7,3421.3,3424.9,720.0,1335.0,875.5,608.4,1302.5,2053.4,3429.8,3429.8,840.3,1015.1,1574.9,1486.6,1175.3,1156.8,4.0,5.0,4.0,6938.0,8722.0,-8003.0,-8955.0,-51.0,8.0,-43.0,5.0,-1.0,-2.0,8508.0,7035.0,-7104.0,-9802.0,-63.0,-3.0,7.0,1.0
2022-05-23 16:13:15.572777-07:00,2350.4,623.0,1466.3,1567.4,1177.0,1291.8,1440.5,1530.1,3423.7,3427.4,1636.0,1418.6,0.0,3429.8,1163.8,1553.4,3429.8,3422.5,719.2,1335.0,876.4,608.4,1302.5,2053.4,3434.6,3420.1,841.9,1015.1,1562.7,1486.6,1175.3,1156.8,24.0,8.0,-5.0,6948.0,8731.0,-7960.0,-8976.0,-140.0,119.0,-133.0,0.0,7.0,-19.0,8526.0,7015.0,-7083.0,-9817.0,-116.0,-7.0,15.0,1.0
2022-05-23 16:13:15.632618-07:00,2332.6,618.1,1462.6,1567.4,1174.4,1291.8,1440.5,1530.1,3429.8,3409.3,1640.7,1418.6,0.0,3429.8,1163.8,1553.4,3429.8,3422.5,719.2,1340.4,876.4,609.2,1298.1,2044.4,3434.6,3420.1,841.9,1014.2,1562.7,1485.6,1164.7,1155.0,-3.0,21.0,-29.0,6991.0,8739.0,-7860.0,-9023.0,-402.0,20.0,-141.0,-4.0,8.0,-12.0,8561.0,6949.0,-7046.0,-9859.0,-307.0,-96.0,33.0,1.0
2022-05-23 16:13:15.662642-07:00,2332.6,618.1,1462.6,1556.2,1174.4,1279.2,1452.5,1524.5,3429.8,3409.3,1640.7,1417.6,0.0,3426.2,1161.2,1554.3,3429.8,3414.1,720.8,1340.4,882.3,609.2,1298.1,2044.4,3426.2,3423.7,840.3,1014.2,1571.1,1485.6,1164.7,1155.0,28.0,25.0,-24.0,7072.0,8678.0,-7695.0,-9160.0,-756.0,14.0,-273.0,3.0,8.0,-36.0,8630.0,6792.0,-6968.0,-9964.0,-618.0,-204.0,65.0,1.0
2022-05-23 16:13:15.722189-07:00,2347.3,618.1,1459.8,1561.8,1177.9,1279.2,1452.5,1524.5,3427.4,3421.3,1642.6,1412.2,0.0,3426.2,1161.2,1554.3,3429.8,3414.1,720.8,1339.5,883.1,608.4,1312.4,2047.4,3426.2,3423.7,840.3,1012.5,1567.4,1481.9,1168.2,1150.6,-13.0,-12.0,-8.0,7188.0,8577.0,-7424.0,-9385.0,-926.0,-105.0,-310.0,12.0,-11.0,24.0,8724.0,6560.0,-6850.0,-10118.0,-697.0,-244.0,50.0,1.0
2022-05-23 16:13:15.782000-07:00,2347.3,618.1,1459.8,1561.8,1174.4,1271.2,1434.1,1519.9,3427.4,3421.3,1642.6,1412.2,0.0,3431.0,1168.2,1545.9,3427.4,3426.2,719.2,1350.3,883.1,608.4,1312.4,2047.4,3434.6,3427.4,836.1,1007.3,1567.4,1481.9,1168.2,1150.6,-3.0,-18.0,33.0,7288.0,8419.0,-7167.0,-9647.0,-834.0,-152.0,-241.0,-1.0,-15.0,3.0,8817.0,6329.0,-6726.0,-10267.0,-669.0,-211.0,61.0,1.0
2022-05-23 16:13:15.812610-07:00,2337.9,618.1,1440.5,1544.1,1174.4,1271.2,1434.1,1519.9,3416.5,3431.0,1636.9,1410.3,0.0,3431.0,1168.2,1545.9,3427.4,3426.2,719.2,1350.3,877.2,601.2,1323.2,2050.4,3434.6,3427.4,836.1,1007.3,1571.1,1474.6,1169.1,1162.1,-3.0,-18.0,19.0,7400.0,8275.0,-6933.0,-9856.0,-803.0,-12.0,-99.0,5.0,1.0,6.0,8885.0,6134.0,-6633.0,-10386.0,-505.0,-213.0,47.0,1.0
2022-05-23 16:13:15.872127-07:00,2337.9,618.1,1440.5,1544.1,1171.8,1277.4,1446.0,1521.8,3416.5,3431.0,1636.9,1410.3,0.0,3421.3,1160.3,1557.1,3423.7,3428.6,715.1,1357.6,877.2,601.2,1323.2,2050.4,3428.6,3432.2,836.1,1018.5,1571.1,1474.6,1169.1,1162.1,6.0,-9.0,26.0,7547.0,8129.0,-6721.0,-10011.0,-643.0,-70.0,-83.0,27.0,-27.0,21.0,8934.0,5966.0,-6563.0,-10485.0,-403.0,-174.0,34.0,1.0
2022-05-23 16:13:15.932147-07:00,2334.7,618.1,1446.0,1554.3,1171.8,1277.4,1446.0,1521.8,3431.0,3424.9,1641.6,1411.3,0.0,3421.3,1160.3,1557.1,3423.7,3428.6,715.1,1357.6,892.4,610.0,1323.2,2048.4,3428.6,3432.2,836.1,1018.5,1568.3,1473.6,1164.7,1185.9,2.0,-28.0,44.0,7613.0,8023.0,-6575.0,-10143.0,-369.0,-85.0,-134.0,32.0,-21.0,26.0,8977.0,5838.0,-6502.0,-10559.0,-315.0,-89.0,21.0,1.0
2022-05-23 16:13:15.962562-07:00,2334.7,618.1,1446.0,1554.3,1174.4,1279.2,1448.8,1533.8,3431.0,3424.9,1641.6,1411.3,0.0,3414.1,1160.3,1555.3,3420.1,3421.3,720.0,1356.7,892.4,610.0,1323.2,2048.4,3418.9,3429.8,836.9,1015.9,1568.3,1473.6,1164.7,1185.9,-18.0,-41.0,37.0,7615.0,7973.0,-6513.0,-10221.0,-49.0,-122.0,-1.0,13.0,-15.0,25.0,9000.0,5780.0,-6459.0,-10597.0,-85.0,-15.0,-2.0,1.0
2022-05-23 16:13:16.022269-07:00,2341.0,604.4,1448.8,1551.5,1174.4,1279.2,1448.8,1541.3,3431.0,3423.7,1641.6,1406.7,0.0,3414.1,1160.3,1551.5,3429.8,3421.3,720.0,1356.7,876.4,606.0,1318.7,2053.4,3439.5,3429.8,836.9,1015.9,1559.0,1481.9,1162.1,1177.9,13.0,1.0,4.0,7602.0,7943.0,-6544.0,-10234.0,42.0,-45.0,15.0,3.0,-5.0,-17.0,9001.0,5780.0,-6458.0,-10597.0,13.0,9.0,-8.0,1.0
2022-05-23 16:13:16.082138-07:00,2333.7,604.4,1448.8,1551.5,1168.2,1281.9,1444.2,1541.3,3432.2,3423.7,1641.6,1406.7,0.0,3433.4,1163.0,1551.5,3429.8,3428.6,720.8,1353.1,876.4,606.0,1318.7,2051.4,3439.5,3428.6,835.2,1011.6,1559.0,1481.9,1162.1,1178.8,0.0,-2.0,0.0,7595.0,7934.0,-6542.0,-10247.0,-75.0,-27.0,-45.0,-2.0,10.0,-7.0,9008.0,5766.0,-6446.0,-10607.0,-83.0,-18.0,3.0,1.0
2022-05-23 16:13:16.112624-07:00,2333.7,617.3,1436.9,1552.5,1168.2,1281.9,1444.2,1559.0,3432.2,3431.0,1646.4,1407.6,0.0,3433.4,1163.0,1556.2,3429.8,3428.6,720.8,1353.1,877.2,609.2,1313.3,2051.4,3438.2,3428.6,835.2,1011.6,1559.0,1480.1,1165.6,1178.8,0.0,-3.0,-1.0,7597.0,7919.0,-6512.0,-10277.0,-121.0,-12.0,-52.0,9.0,-5.0,0.0,9022.0,5732.0,-6420.0,-10629.0,-128.0,-25.0,11.0,1.0
2022-05-23 16:13:16.202485-07:00,2333.7,617.3,1436.9,1552.5,1172.6,1271.2,1455.2,1559.0,3429.8,3431.0,1646.4,1407.6,0.0,3432.2,1161.2,1556.2,3429.8,3426.2,718.4,1355.8,877.2,609.2,1313.3,2049.4,3438.2,3434.6,831.1,1015.9,1559.0,1480.1,1165.6,1176.2,0.0,-11.0,14.0,7599.0,7899.0,-6477.0,-10312.0,-55.0,-30.0,-41.0,14.0,-13.0,4.0,9032.0,5703.0,-6401.0,-10647.0,-61.0,-15.0,-5.0,1.0
2022-05-23 16:13:16.204735-07:00,2333.7,623.0,1436.9,1542.2,1172.6,1271.2,1455.2,1567.4,3429.8,3418.9,1635.0,1408.5,0.0,3432.2,1161.2,1553.4,3423.7,3426.2,718.4,1355.8,874.7,608.4,1314.2,2049.4,3439.5,3434.6,831.1,1015.9,1586.1,1480.1,1167.4,1176.2,0.0,-6.0,6.0,7590.0,7874.0,-6471.0,-10342.0,-49.0,-130.0,-16.0,16.0,-4.0,18.0,9036.0,5683.0,-6390.0,-10661.0,-48.0,-20.0,-14.0,1.0
2022-05-23 16:13:16.262133-07:00,2336.8,617.3,1436.9,1542.2,1167.4,1272.1,1461.7,1567.4,3429.8,3432.2,1635.0,1408.5,0.0,3428.6,1163.0,1553.4,3423.7,3420.1,715.9,1353.1,874.7,608.4,1317.8,2035.4,3439.5,3424.9,830.2,1013.3,1586.1,1480.1,1168.2,1172.6,-4.0,-5.0,6.0,7575.0,7831.0,-6482.0,-10379.0,-32.0,-106.0,-12.0,6.0,-6.0,3.0,9042.0,5666.0,-6373.0,-10675.0,-53.0,-7.0,-13.0,1.0
2022-05-23 16:13:16.352449-07:00,2336.8,617.3,1445.1,1521.8,1167.4,1272.1,1474.6,1604.0,3429.8,3432.2,1639.8,1412.2,0.0,3428.6,1165.6,1551.5,3426.2,3422.5,715.9,1353.1,876.4,612.5,1317.8,2035.4,3431.0,3431.0,830.2,1013.3,1566.5,1485.6,1168.2,1172.6,4.0,-6.0,5.0,7556.0,7801.0,-6501.0,-10403.0,19.0,-99.0,1.0,-19.0,2.0,17.0,9043.0,5656.0,-6359.0,-10689.0,-77.0,-21.0,-33.0,1.0
2022-05-23 16:13:16.353581-07:00,2337.9,619.7,1445.1,1521.8,1154.2,1270.3,1474.6,1604.0,3418.9,3428.6,1639.8,1412.2,0.0,3423.7,1165.6,1551.5,3426.2,3422.5,718.4,1350.3,876.4,612.5,1309.7,2037.4,3431.0,3431.0,833.6,1013.3,1566.5,1485.6,1169.1,1155.0,-4.0,-15.0,12.0,7549.0,7785.0,-6526.0,-10404.0,36.0,-18.0,39.0,7.0,-8.0,4.0,9044.0,5658.0,-6354.0,-10689.0,24.0,27.0,7.0,1.0
2022-05-23 16:13:16.441879-07:00,2337.9,619.7,1418.6,1510.6,1154.2,1270.3,1506.9,1699.5,3418.9,3428.6,1637.9,1410.3,0.0,3423.7,1167.4,1552.5,3418.9,3415.3,718.4,1350.3,882.3,606.0,1309.7,2037.4,3424.9,3424.9,833.6,1013.3,1565.5,1481.9,1169.1,1155.0,11.0,1.0,7.0,7543.0,7779.0,-6565.0,-10389.0,103.0,-43.0,53.0,10.0,-8.0,1.0,9045.0,5677.0,-6359.0,-10675.0,57.0,40.0,-1.0,1.0
2022-05-23 16:13:16.472215-07:00,2335.8,621.4,1418.6,1510.6,1153.3,1273.0,1506.9,1699.5,3429.8,3428.6,1637.9,1410.3,0.0,3431.0,1167.4,1552.5,3418.9,3415.3,725.8,1347.6,882.3,606.0,1300.7,2041.4,3424.9,3424.9,834.4,1013.3,1565.5,1481.9,1163.0,1159.4,4.0,0.0,4.0,7532.0,7790.0,-6597.0,-10368.0,89.0,24.0,23.0,3.0,9.0,0.0,9046.0,5700.0,-6361.0,-10661.0,46.0,42.0,3.0,1.0
2022-05-23 16:13:16.502767-07:00,2335.8,621.4,1411.3,1517.1,1153.3,1273.0,1504.1,1731.1,3429.8,3428.6,1634.1,1412.2,0.0,3431.0,1162.1,1553.4,3424.9,3415.3,725.8,1347.6,880.6,606.8,1300.7,2041.4,3424.9,3422.5,834.4,1013.3,1562.7,1480.1,1163.0,1159.4,1.0,0.0,-4.0,7527.0,7803.0,-6624.0,-10345.0,67.0,-18.0,40.0,10.0,-3.0,1.0,9046.0,5716.0,-6364.0,-10651.0,33.0,28.0,0.0,1.0
2022-05-23 16:13:16.562746-07:00,2328.5,621.4,1394.8,1517.1,1146.3,1265.8,1504.1,1731.1,3422.5,3423.7,1628.4,1412.2,0.0,3423.7,1162.1,1553.4,3424.9,3415.3,721.6,1352.1,880.6,605.2,1299.8,2039.4,3424.9,3422.5,838.6,1018.5,1562.7,1478.3,1164.7,1147.1,25.0,-10.0,32.0,7515.0,7796.0,-6650.0,-10343.0,82.0,-36.0,-31.0,24.0,-29.0,2.0,9059.0,5727.0,-6346.0,-10644.0,-42.0,106.0,-5.0,1.0
2022-05-23 16:13:16.622200-07:00,2328.5,621.4,1394.8,1496.7,1146.3,1298.1,1497.7,1702.4,3422.5,3423.7,1628.4,1410.3,0.0,3424.9,1161.2,1549.7,3429.8,3414.1,729.0,1352.1,878.9,605.2,1299.8,2039.4,3428.6,3424.9,849.5,1018.5,1562.7,1478.3,1164.7,1147.1,52.0,-21.0,76.0,7400.0,7863.0,-6711.0,-10334.0,542.0,-59.0,-310.0,37.0,-28.0,0.0,9114.0,5783.0,-6266.0,-10614.0,-14.0,346.0,-27.0,1.0
2022-05-23 16:13:16.682057-07:00,2340.0,641.6,1412.2,1496.7,1141.0,1298.1,1497.7,1702.4,3429.8,3426.2,1618.1,1410.3,0.0,3424.9,1161.2,1549.7,3429.8,3414.1,729.0,1339.5,878.9,604.4,1303.4,2036.4,3428.6,3424.9,849.5,1016.8,1562.7,1468.1,1157.7,1148.9,-56.0,-77.0,48.0,7169.0,8116.0,-6823.0,-10228.0,925.0,250.0,-293.0,0.0,-6.0,49.0,9143.0,5940.0,-6232.0,-10522.0,306.0,364.0,37.0,1.0
2022-05-23 16:13:16.712123-07:00,2340.0,641.6,1412.2,1499.5,1141.0,1304.3,1496.7,1688.1,3429.8,3426.2,1618.1,1408.5,0.0,3427.4,1140.1,1553.4,3417.7,3416.5,729.0,1339.5,874.7,604.4,1303.4,2036.4,3426.2,3418.9,909.3,1016.8,1563.7,1468.1,1157.7,1148.9,-17.0,-66.0,28.0,6977.0,8331.0,-7078.0,-10012.0,1083.0,55.0,212.0,2.0,-19.0,4.0,9156.0,6151.0,-6274.0,-10363.0,604.0,425.0,96.0,1.0
2022-05-23 16:13:16.802396-07:00,2473.8,656.2,1335.9,1499.5,1135.7,1304.3,1496.7,1688.1,3426.2,3429.8,1559.0,1408.5,0.0,3427.4,1140.1,1553.4,3417.7,3416.5,729.0,1332.3,874.7,611.7,1296.3,2038.4,3426.2,3418.9,909.3,1014.2,1563.7,1461.7,1145.4,1141.0,9.0,8.0,-26.0,6830.0,8500.0,-7434.0,-9710.0,1185.0,125.0,347.0,-8.0,-1.0,-17.0,9130.0,6412.0,-6390.0,-10155.0,765.0,387.0,81.0,1.0
2022-05-23 16:13:16.803531-07:00,2473.8,656.2,1335.9,1481.0,1131.4,1311.5,1481.0,1632.2,3426.2,3429.8,1559.0,1397.6,0.0,3422.5,1122.6,1546.9,3423.7,3418.9,726.6,1325.0,873.0,611.7,1296.3,2038.4,3423.7,3429.8,908.4,1026.3,1567.4,1461.7,1145.4,1141.0,4.0,14.0,-44.0,6647.0,8692.0,-7771.0,-9398.0,1120.0,136.0,181.0,-7.0,29.0,-39.0,9076.0,6669.0,-6520.0,-9954.0,669.0,284.0,55.0,1.0
2022-05-23 16:13:16.862608-07:00,2479.1,659.5,1298.1,1478.3,1131.4,1311.5,1481.0,1632.2,3424.9,3426.2,1536.6,1393.0,0.0,3422.5,1122.6,1546.9,3423.7,3418.9,726.6,1325.0,878.0,608.4,1269.4,2032.4,3423.7,3429.8,908.4,1026.3,1569.3,1459.8,1144.5,1137.5,1.0,38.0,-50.0,6505.0,8824.0,-8017.0,-9164.0,711.0,4.0,224.0,-11.0,36.0,-29.0,9038.0,6835.0,-6611.0,-9814.0,414.0,169.0,49.0,1.0
2022-05-23 16:13:16.922209-07:00,2479.1,659.5,1298.1,1478.3,1127.0,1313.3,1440.5,1620.9,3424.9,3426.2,1536.6,1393.0,0.0,3420.1,1118.2,1546.9,3427.4,3434.6,730.7,1329.6,878.0,608.4,1269.4,2032.4,3428.6,3432.2,894.1,1021.9,1569.3,1459.8,1144.5,1137.5,7.0,40.0,-21.0,6485.0,8857.0,-8151.0,-9028.0,192.0,128.0,196.0,-3.0,13.0,-35.0,9009.0,6920.0,-6677.0,-9737.0,194.0,46.0,33.0,1.0
2022-05-23 16:13:16.982066-07:00,2454.7,649.7,1266.7,1472.7,1127.0,1313.3,1440.5,1620.9,3429.8,3418.9,1526.4,1382.1,0.0,3420.1,1118.2,1546.9,3427.4,3434.6,730.7,1329.6,885.6,610.0,1260.4,2034.4,3428.6,3432.2,894.1,1021.9,1564.6,1455.2,1142.7,1128.7,2.0,-5.0,-5.0,6478.0,8889.0,-8176.0,-8978.0,97.0,30.0,-67.0,10.0,2.0,-5.0,8995.0,6951.0,-6698.0,-9713.0,47.0,11.0,-19.0,1.0
2022-05-23 16:13:17.012579-07:00,2454.7,649.7,1266.7,1472.7,1113.0,1290.0,1418.6,1608.7,3429.8,3418.9,1526.4,1382.1,0.0,3426.2,1107.8,1545.0,3420.1,3414.1,735.6,1319.6,885.6,610.0,1260.4,2034.4,3434.6,3427.4,869.6,1012.5,1564.6,1455.2,1142.7,1128.7,3.0,-6.0,22.0,6470.0,8900.0,-8166.0,-8982.0,-55.0,30.0,-19.0,-1.0,5.0,-8.0,8987.0,6951.0,-6705.0,-9715.0,-20.0,-32.0,6.0,1.0
2022-05-23 16:13:17.072062-07:00,2442.0,648.9,1248.0,1461.7,1113.0,1290.0,1418.6,1584.2,3431.0,3438.2,1494.9,1381.2,0.0,3426.2,1107.8,1545.0,3420.1,3414.1,735.6,1319.6,878.0,603.6,1255.1,2038.4,3423.7,3427.4,869.6,1012.5,1566.5,1451.6,1139.2,1121.7,-12.0,4.0,15.0,6495.0,8911.0,-8132.0,-8984.0,-16.0,88.0,-45.0,9.0,-10.0,13.0,8988.0,6940.0,-6705.0,-9722.0,-2.0,-11.0,-6.0,1.0
2022-05-23 16:13:17.102923-07:00,2433.5,648.9,1248.0,1461.7,1114.7,1283.7,1389.4,1584.2,3428.6,3438.2,1494.9,1381.2,0.0,3429.8,1105.1,1545.0,3417.7,3426.2,739.7,1320.5,878.0,603.6,1255.1,2034.4,3423.7,3421.3,873.0,1018.5,1566.5,1451.6,1139.2,1125.2,-14.0,0.0,1.0,6500.0,8923.0,-8114.0,-8985.0,-43.0,-10.0,9.0,8.0,6.0,17.0,8986.0,6934.0,-6708.0,-9726.0,-3.0,-22.0,-7.0,1.0
2022-05-23 16:13:17.162179-07:00,2433.5,640.8,1237.3,1453.4,1114.7,1283.7,1389.4,1571.1,3428.6,3424.9,1506.9,1384.8,0.0,3429.8,1105.1,1533.8,3428.6,3426.2,739.7,1320.5,872.1,606.8,1234.6,2034.4,3431.0,3421.3,873.0,1018.5,1564.6,1448.8,1129.6,1125.2,5.0,-2.0,26.0,6518.0,8898.0,-8100.0,-9009.0,-68.0,4.0,-18.0,10.0,-7.0,8.0,8991.0,6917.0,-6703.0,-9738.0,-29.0,-14.0,-2.0,1.0
2022-05-23 16:13:17.252389-07:00,2434.6,640.8,1237.3,1453.4,1111.2,1273.9,1376.6,1571.1,3423.7,3424.9,1506.9,1384.8,0.0,3431.0,1089.5,1533.8,3428.6,3424.9,734.0,1323.2,872.1,606.8,1234.6,2040.4,3431.0,3418.9,863.7,1015.9,1564.6,1448.8,1129.6,1111.2,-12.0,-2.0,6.0,6520.0,8902.0,-8092.0,-9011.0,25.0,20.0,-19.0,2.0,0.0,6.0,8991.0,6915.0,-6703.0,-9739.0,6.0,1.0,-4.0,1.0
2022-05-23 16:13:17.254122-07:00,2434.6,635.9,1231.9,1450.6,1111.2,1273.9,1376.6,1543.1,3423.7,3423.7,1496.7,1387.5,0.0,3431.0,1089.5,1534.8,3417.7,3424.9,734.0,1323.2,873.8,604.4,1239.9,2040.4,3426.2,3418.9,863.7,1015.9,1552.5,1445.1,1126.1,1111.2,0.0,2.0,12.0,6521.0,8901.0,-8089.0,-9015.0,-20.0,6.0,-18.0,6.0,-1.0,0.0,8993.0,6912.0,-6702.0,-9741.0,-20.0,-11.0,-7.0,1.0
2022-05-23 16:13:17.312762-07:00,2421.9,635.9,1231.9,1450.6,1104.3,1273.9,1367.6,1543.1,3429.8,3423.7,1496.7,1387.5,0.0,3429.8,1096.4,1534.8,3417.7,3424.9,738.1,1317.8,873.8,604.4,1239.9,2032.4,3426.2,3434.6,861.2,1017.6,1552.5,1445.1,1126.1,1117.4,11.0,0.0,14.0,6533.0,8894.0,-8068.0,-9031.0,-86.0,20.0,-26.0,3.0,0.0,-11.0,8997.0,6898.0,-6696.0,-9751.0,-52.0,-17.0,0.0,1.0
2022-05-23 16:13:17.402419-07:00,2421.9,639.2,1223.9,1453.4,1104.3,1273.9,1363.0,1537.6,3429.8,3424.9,1493.0,1377.5,0.0,3429.8,1095.6,1527.3,3421.3,3426.2,738.1,1317.8,872.1,600.4,1230.2,2032.4,3418.9,3426.2,861.2,1017.6,1561.8,1439.6,1129.6,1117.4,11.0,10.0,17.0,6557.0,8883.0,-8033.0,-9055.0,-119.0,10.0,-44.0,5.0,4.0,-6.0,9003.0,6875.0,-6687.0,-9767.0,-72.0,-31.0,-4.0,1.0
2022-05-23 16:13:17.403599-07:00,2421.9,638.4,1223.9,1453.4,1102.5,1272.1,1363.0,1537.6,3423.7,3429.8,1493.0,1377.5,0.0,3426.2,1095.6,1527.3,3421.3,3426.2,734.0,1315.1,872.1,600.4,1223.9,2039.4,3418.9,3426.2,860.4,1003.9,1561.8,1439.6,1128.7,1113.0,4.0,-6.0,19.0,6579.0,8871.0,-7990.0,-9089.0,-138.0,-15.0,-20.0,10.0,-8.0,2.0,9013.0,6844.0,-6674.0,-9789.0,-70.0,-31.0,-4.0,1.0
2022-05-23 16:13:17.462246-07:00,2421.9,638.4,1224.8,1447.9,1102.5,1272.1,1357.6,1547.8,3423.7,3429.8,1491.2,1377.5,0.0,3426.2,1092.9,1529.2,3423.7,3423.7,734.0,1315.1,873.8,605.2,1223.9,2039.4,3418.9,3428.6,860.4,1003.9,1559.0,1445.1,1128.7,1113.0,-2.0,-15.0,13.0,6591.0,8862.0,-7968.0,-9109.0,-28.0,-6.0,17.0,5.0,-3.0,10.0,9019.0,6830.0,-6667.0,-9798.0,-6.0,-8.0,0.0,1.0
2022-05-23 16:13:17.522333-07:00,2416.6,631.9,1224.8,1447.9,1097.3,1264.9,1357.6,1547.8,3412.9,3421.3,1491.2,1377.5,0.0,3429.8,1092.9,1529.2,3423.7,3423.7,737.3,1316.0,873.8,605.2,1228.4,2032.4,3418.9,3428.6,847.8,1017.6,1559.0,1445.1,1127.0,1110.4,10.0,-9.0,13.0,6602.0,8852.0,-7972.0,-9107.0,4.0,-5.0,36.0,5.0,-8.0,-17.0,9018.0,6830.0,-6669.0,-9797.0,19.0,-3.0,5.0,1.0
2022-05-23 16:13:17.552716-07:00,2416.6,631.9,1214.2,1448.8,1097.3,1264.9,1354.0,1522.7,3412.9,3421.3,1493.0,1376.6,0.0,3429.8,1088.6,1516.2,3418.9,3415.3,737.3,1316.0,877.2,599.6,1228.4,2032.4,3428.6,3428.6,847.8,1017.6,1562.7,1443.3,1127.0,1110.4,-11.0,-19.0,1.0,6608.0,8862.0,-7964.0,-9101.0,0.0,26.0,-14.0,9.0,-9.0,2.0,9018.0,6830.0,-6670.0,-9797.0,5.0,2.0,2.0,1.0
2022-05-23 16:13:17.612255-07:00,2409.2,629.5,1214.2,1448.8,1100.8,1264.0,1354.0,1522.7,3426.2,3424.9,1500.4,1376.6,0.0,3426.2,1088.6,1516.2,3418.9,3415.3,734.0,1325.0,877.2,598.7,1225.7,2030.4,3428.6,3428.6,844.4,1015.1,1562.7,1438.7,1120.0,1108.6,-7.0,-17.0,9.0,6612.0,8859.0,-7959.0,-9104.0,-27.0,6.0,1.0,0.0,-9.0,1.0,9020.0,6824.0,-6668.0,-9800.0,-14.0,-18.0,-1.0,1.0
2022-05-23 16:13:17.702519-07:00,2409.2,629.5,1214.2,1440.5,1100.8,1270.3,1348.5,1529.2,3426.2,3424.9,1500.4,1393.0,0.0,3432.2,1091.2,1525.5,3427.4,3423.7,737.3,1325.0,867.1,598.7,1225.7,2030.4,3429.8,3418.9,841.9,1015.1,1559.9,1438.7,1120.0,1108.6,13.0,2.0,17.0,6629.0,8844.0,-7948.0,-9116.0,-68.0,-1.0,-14.0,8.0,-8.0,-5.0,9020.0,6814.0,-6666.0,-9809.0,-29.0,-12.0,-8.0,1.0
2022-05-23 16:13:17.703720-07:00,2410.3,620.5,1211.5,1440.5,1093.8,1270.3,1348.5,1529.2,3432.2,3418.9,1492.1,1393.0,0.0,3432.2,1091.2,1525.5,3427.4,3423.7,737.3,1309.7,867.1,598.7,1221.3,2029.4,3429.8,3418.9,841.9,1015.1,1559.9,1444.2,1123.5,1110.4,-3.0,-6.0,16.0,6634.0,8849.0,-7931.0,-9123.0,8.0,25.0,-17.0,5.0,-6.0,12.0,9021.0,6810.0,-6663.0,-9812.0,4.0,4.0,-5.0,1.0
2022-05-23 16:13:17.792085-07:00,2410.3,620.5,1211.5,1445.1,1093.8,1259.6,1347.6,1531.0,3432.2,3418.9,1492.1,1378.5,0.0,3435.8,1089.5,1525.5,3421.3,3414.1,731.5,1309.7,873.0,598.7,1221.3,2029.4,3427.4,3421.3,843.6,1015.1,1560.9,1444.2,1123.5,1110.4,4.0,-1.0,10.0,6631.0,8852.0,-7936.0,-9117.0,24.0,1.0,14.0,3.0,-2.0,-1.0,9020.0,6813.0,-6665.0,-9810.0,12.0,0.0,2.0,1.0
2022-05-23 16:13:17.822111-07:00,2408.1,626.2,1215.1,1445.1,1098.2,1259.6,1347.6,1531.0,3427.4,3423.7,1481.9,1378.5,0.0,3435.8,1089.5,1525.5,3421.3,3414.1,731.5,1315.1,873.0,602.8,1222.2,2020.4,3427.4,3421.3,843.6,1006.5,1560.9,1438.7,1123.5,1107.8,6.0,-2.0,5.0,6632.0,8851.0,-7935.0,-9118.0,-20.0,-7.0,-5.0,6.0,-2.0,-4.0,9021.0,6812.0,-6664.0,-9811.0,-10.0,-6.0,-5.0,1.0
2022-05-23 16:13:17.852871-07:00,2408.1,626.2,1215.1,1440.5,1098.2,1266.7,1345.8,1520.8,3427.4,3423.7,1481.9,1380.3,0.0,3423.7,1086.0,1532.9,3426.2,3423.7,733.2,1315.1,873.0,602.8,1222.2,2020.4,3429.8,3423.7,845.3,1006.5,1555.3,1438.7,1123.5,1107.8,-4.0,-4.0,9.0,6634.0,8851.0,-7930.0,-9121.0,-5.0,5.0,6.0,5.0,0.0,5.0,9022.0,6811.0,-6664.0,-9811.0,-2.0,-7.0,0.0,1.0
2022-05-23 16:13:17.911881-07:00,2399.7,621.4,1208.9,1434.1,1098.2,1266.7,1345.8,1520.8,3427.4,3432.2,1479.2,1377.5,0.0,3423.7,1086.0,1532.9,3426.2,3423.7,733.2,1308.8,867.9,606.8,1220.4,2015.4,3429.8,3423.7,845.3,1009.0,1561.8,1437.8,1118.2,1111.2,-5.0,-7.0,12.0,6636.0,8849.0,-7929.0,-9122.0,-12.0,-2.0,0.0,5.0,-8.0,8.0,9023.0,6809.0,-6663.0,-9811.0,-9.0,0.0,2.0,1.0
2022-05-23 16:13:17.972273-07:00,2399.7,621.4,1208.9,1434.1,1092.9,1267.6,1340.4,1507.8,3427.4,3432.2,1479.2,1377.5,0.0,3428.6,1083.4,1524.5,3418.9,3418.9,724.9,1325.9,867.9,606.8,1220.4,2015.4,3429.8,3422.5,841.1,1012.5,1561.8,1437.8,1118.2,1111.2,-8.0,-11.0,11.0,6636.0,8851.0,-7927.0,-9123.0,18.0,5.0,-1.0,6.0,-4.0,9.0,9023.0,6809.0,-6664.0,-9811.0,11.0,-1.0,0.0,1.0
2022-05-23 16:13:18.002799-07:00,2407.1,628.6,1208.9,1438.7,1092.9,1267.6,1340.4,1507.8,3432.2,3421.3,1481.9,1372.1,0.0,3428.6,1083.4,1524.5,3418.9,3418.9,724.9,1325.9,871.3,600.4,1227.5,2029.4,3429.8,3422.5,841.1,1012.5,1550.6,1438.7,1126.1,1106.9,-2.0,-1.0,3.0,6637.0,8850.0,-7928.0,-9122.0,-36.0,-11.0,-5.0,1.0,-1.0,3.0,9024.0,6807.0,-6662.0,-9813.0,-22.0,-12.0,-4.0,1.0
2022-05-23 16:13:18.062430-07:00,2407.1,628.6,1208.9,1438.7,1086.8,1275.6,1362.1,1510.6,3432.2,3421.3,1481.9,1372.1,0.0,3424.9,1087.7,1530.1,3424.9,3418.9,731.5,1313.3,871.3,600.4,1227.5,2029.4,3432.2,3429.8,826.9,1011.6,1550.6,1438.7,1126.1,1106.9,-1.0,-4.0,12.0,6649.0,8835.0,-7917.0,-9138.0,-69.0,2.0,-2.0,7.0,-5.0,4.0,9025.0,6794.0,-6660.0,-9822.0,-33.0,-20.0,-2.0,1.0
2022-05-23 16:13:18.122291-07:00,2402.9,619.7,1207.1,1440.5,1086.8,1275.6,1362.1,1510.6,3431.0,3426.2,1476.4,1378.5,0.0,3424.9,1087.7,1530.1,3424.9,3418.9,731.5,1313.3,869.6,593.9,1223.0,2027.4,3432.2,3429.8,826.9,1011.6,1552.5,1441.5,1121.7,1100.8,6.0,0.0,13.0,6666.0,8821.0,-7904.0,-9150.0,-52.0,11.0,17.0,9.0,0.0,2.0,9026.0,6784.0,-6659.0,-9829.0,-20.0,-21.0,0.0,1.0
2022-05-23 16:13:18.152832-07:00,2411.3,619.7,1207.1,1440.5,1083.4,1257.8,1339.5,1514.3,3423.7,3426.2,1476.4,1378.5,0.0,3434.6,1079.9,1529.2,3423.7,3429.8,734.0,1312.4,869.6,593.9,1223.0,2022.4,3428.6,3434.6,839.4,1011.6,1552.5,1441.5,1121.7,1099.9,2.0,0.0,3.0,6688.0,8813.0,-7889.0,-9154.0,-64.0,30.0,-10.0,4.0,-11.0,2.0,9029.0,6775.0,-6654.0,-9835.0,-37.0,-9.0,-5.0,1.0
2022-05-23 16:13:18.211853-07:00,2411.3,618.9,1212.4,1432.3,1083.4,1257.8,1339.5,1508.8,3423.7,3422.5,1475.5,1379.4,0.0,3434.6,1079.9,1526.4,3432.2,3429.8,734.0,1312.4,873.8,603.6,1224.8,2022.4,3427.4,3434.6,839.4,1011.6,1547.8,1440.5,1117.4,1099.9,-4.0,-15.0,29.0,6692.0,8808.0,-7873.0,-9169.0,35.0,-11.0,-10.0,5.0,-13.0,13.0,9029.0,6774.0,-6651.0,-9838.0,15.0,1.0,-6.0,1.0
2022-05-23 16:13:18.272286-07:00,2411.3,618.9,1212.4,1432.3,1077.3,1259.6,1336.8,1508.8,3439.5,3422.5,1475.5,1379.4,0.0,3420.1,1086.0,1526.4,3432.2,3423.7,731.5,1307.9,873.8,603.6,1224.8,2016.4,3427.4,3431.0,847.8,1003.0,1547.8,1440.5,1117.4,1104.3,5.0,1.0,8.0,6685.0,8812.0,-7883.0,-9163.0,38.0,5.0,13.0,3.0,-4.0,-5.0,9027.0,6782.0,-6654.0,-9833.0,17.0,11.0,0.0,1.0
2022-05-23 16:13:18.302718-07:00,2411.3,615.7,1203.5,1427.7,1077.3,1259.6,1336.8,1500.4,3439.5,3432.2,1476.4,1368.5,0.0,3420.1,1086.0,1522.7,3426.2,3423.7,731.5,1307.9,873.8,601.2,1216.8,2016.4,3418.9,3431.0,847.8,1003.0,1538.5,1437.8,1127.9,1104.3,6.0,0.0,7.0,6682.0,8815.0,-7887.0,-9159.0,-7.0,13.0,-23.0,6.0,-2.0,-6.0,9028.0,6782.0,-6653.0,-9832.0,-8.0,7.0,-4.0,1.0
2022-05-23 16:13:18.361948-07:00,2397.6,615.7,1203.5,1427.7,1084.2,1262.2,1336.8,1500.4,3428.6,3432.2,1476.4,1368.5,0.0,3437.0,1084.2,1522.7,3426.2,3422.5,735.6,1313.3,873.8,601.2,1216.8,2016.4,3418.9,3428.6,836.1,1004.8,1538.5,1437.8,1127.9,1099.9,-4.0,-5.0,10.0,6682.0,8819.0,-7882.0,-9159.0,-6.0,2.0,1.0,7.0,-3.0,6.0,9028.0,6782.0,-6653.0,-9832.0,-1.0,-3.0,-3.0,1.0
2022-05-23 16:13:18.422319-07:00,2397.6,623.8,1204.4,1428.6,1084.2,1262.2,1336.8,1495.8,3428.6,3433.4,1470.0,1370.3,0.0,3437.0,1084.2,1524.5,3411.7,3422.5,735.6,1313.3,868.8,600.4,1217.7,2016.4,3424.9,3428.6,836.1,1004.8,1548.7,1443.3,1120.0,1099.9,0.0,0.0,6.0,6683.0,8818.0,-7881.0,-9160.0,1.0,-12.0,-5.0,7.0,-2.0,4.0,9028.0,6782.0,-6653.0,-9832.0,-2.0,-4.0,-7.0,1.0
2022-05-23 16:13:18.452857-07:00,2395.5,614.1,1204.4,1428.6,1092.9,1267.6,1335.9,1495.8,3427.4,3432.2,1470.0,1370.3,0.0,3433.4,1083.4,1524.5,3411.7,3421.3,726.6,1316.0,868.8,600.4,1218.6,2029.4,3424.9,3418.9,833.6,1000.5,1548.7,1443.3,1122.6,1103.4,-6.0,1.0,17.0,6683.0,8816.0,-7880.0,-9162.0,-5.0,-14.0,16.0,0.0,3.0,5.0,9025.0,6776.0,-6655.0,-9837.0,-16.0,-29.0,-11.0,1.0
2022-05-23 16:13:18.542059-07:00,2395.5,614.1,1203.5,1428.6,1092.9,1267.6,1374.8,1514.3,3427.4,3432.2,1470.0,1371.2,0.0,3433.4,1085.1,1518.0,3422.5,3435.8,726.6,1316.0,873.0,602.0,1218.6,2029.4,3418.9,3422.5,833.6,1000.5,1547.8,1435.0,1122.6,1103.4,-17.0,41.0,-14.0,6705.0,8791.0,-7873.0,-9177.0,-225.0,0.0,75.0,-3.0,24.0,-10.0,9013.0,6738.0,-6654.0,-9875.0,-81.0,-130.0,-40.0,1.0
2022-05-23 16:13:18.633061-07:00,2422.9,623.0,1203.5,1428.6,1079.9,1266.7,1374.8,1514.3,3418.9,3428.6,1470.0,1371.2,0.0,3434.6,1085.1,1518.0,3422.5,3435.8,733.2,1301.6,873.0,602.0,1223.9,2006.4,3418.9,3422.5,839.4,1006.5,1547.8,1435.0,1116.5,1105.1,-12.0,17.0,-52.0,6810.0,8680.0,-7795.0,-9271.0,-656.0,-198.0,56.0,11.0,-9.0,-1.0,8984.0,6651.0,-6653.0,-9961.0,-241.0,-260.0,-66.0,1.0
2022-05-23 16:13:18.634102-07:00,2422.9,623.0,1303.4,1456.2,1079.9,1266.7,1580.5,1818.7,3418.9,3428.6,1476.4,1375.7,0.0,3434.6,1086.0,1516.2,3409.3,3426.2,733.2,1301.6,873.0,602.0,1223.9,2006.4,3426.2,3432.2,839.4,1006.5,1548.7,1437.8,1116.5,1105.1,63.0,0.0,14.0,6878.0,8491.0,-7681.0,-9488.0,-736.0,-319.0,-253.0,5.0,7.0,-29.0,8985.0,6510.0,-6601.0,-10087.0,-430.0,-258.0,-81.0,1.0
2022-05-23 16:13:18.691841-07:00,2375.5,614.9,1303.4,1456.2,1082.5,1295.4,1580.5,1818.7,3426.2,3429.8,1476.4,1375.7,0.0,3427.4,1086.0,1516.2,3409.3,3426.2,737.3,1315.1,873.0,602.0,1231.0,2017.4,3426.2,3432.2,864.6,1003.0,1548.7,1437.8,1114.7,1094.7,14.0,-47.0,24.0,6943.0,8351.0,-7463.0,-9736.0,-823.0,-94.0,-192.0,5.0,-8.0,17.0,9003.0,6333.0,-6528.0,-10230.0,-522.0,-289.0,-24.0,1.0
2022-05-23 16:13:18.693366-07:00,2375.5,614.9,1455.2,1515.3,1082.5,1299.0,1571.1,1774.3,3426.2,3429.8,1477.3,1368.5,0.0,3431.0,1106.9,1522.7,3422.5,3418.9,723.3,1315.1,873.0,598.7,1231.0,2017.4,3431.0,3424.9,875.5,1003.0,1545.9,1435.0,1114.7,1094.7,-32.0,-58.0,48.0,7069.0,8198.0,-7272.0,-9919.0,-535.0,-131.0,115.0,9.0,-43.0,57.0,9030.0,6192.0,-6477.0,-10325.0,-299.0,-170.0,6.0,1.0
2022-05-23 16:13:18.752831-07:00,2360.9,632.7,1441.5,1515.3,1082.5,1299.0,1571.1,1774.3,3416.5,3432.2,1471.8,1368.5,0.7,3431.0,1106.9,1522.7,3422.5,3418.9,723.3,1309.7,873.0,602.0,1226.6,2008.4,3431.0,3424.9,875.5,1007.3,1545.9,1436.0,1112.1,1101.7,-10.0,-30.0,36.0,7173.0,8054.0,-7237.0,-9987.0,-239.0,-129.0,284.0,9.0,-16.0,25.0,9037.0,6119.0,-6459.0,-10373.0,-21.0,-58.0,-8.0,1.0
2022-05-23 16:13:18.812716-07:00,2360.9,632.7,1441.5,1495.8,1082.5,1289.1,1590.8,1824.6,3416.5,3432.2,1471.8,1371.2,0.7,3428.6,1099.0,1516.2,3426.2,3420.1,716.7,1309.7,874.7,602.0,1226.6,2008.4,3431.0,3424.9,858.7,1007.3,1548.7,1436.0,1112.1,1101.7,26.0,52.0,18.0,7280.0,7910.0,-7272.0,-10000.0,-260.0,-195.0,217.0,22.0,-22.0,-1.0,9020.0,6096.0,-6477.0,-10390.0,-40.0,-116.0,14.0,1.0
2022-05-23 16:13:18.842214-07:00,2342.0,619.7,1452.5,1495.8,1077.3,1289.1,1590.8,1824.6,3426.2,3424.9,1487.5,1371.2,0.0,3428.6,1099.0,1516.2,3426.2,3420.1,716.7,1325.0,874.7,602.0,1227.5,2015.4,3431.0,3424.9,858.7,1007.3,1548.7,1442.4,1135.7,1096.4,11.0,-6.0,9.0,7295.0,7820.0,-7279.0,-10054.0,-42.0,-150.0,-19.0,19.0,1.0,-7.0,9022.0,6057.0,-6468.0,-10417.0,-72.0,-30.0,-28.0,1.0
2022-05-23 16:13:18.932548-07:00,2342.0,619.7,1452.5,1508.8,1077.3,1286.4,1589.9,1872.3,3426.2,3424.9,1487.5,1378.5,0.0,3428.6,1105.1,1526.4,3418.9,3427.4,720.8,1325.0,880.6,602.0,1227.5,2015.4,3423.7,3429.8,879.7,1007.3,1552.5,1442.4,1135.7,1096.4,4.0,1.0,-3.0,7292.0,7768.0,-7277.0,-10098.0,-164.0,-96.0,5.0,0.0,8.0,0.0,9026.0,6023.0,-6455.0,-10442.0,-132.0,-67.0,-1.0,1.0
2022-05-23 16:13:18.962215-07:00,2321.2,621.4,1535.7,1541.3,1087.7,1286.4,1589.9,1872.3,3423.7,3417.7,1509.7,1378.5,0.0,3428.6,1105.1,1526.4,3418.9,3427.4,720.8,1325.9,878.9,600.4,1226.6,2002.5,3423.7,3429.8,879.7,998.7,1549.7,1450.6,1136.6,1105.1,13.0,-11.0,18.0,7327.0,7695.0,-7232.0,-10161.0,-267.0,-93.0,-9.0,4.0,-45.0,-8.0,9036.0,5964.0,-6435.0,-10479.0,-121.0,-74.0,11.0,1.0
2022-05-23 16:13:18.992630-07:00,2321.2,621.4,1535.7,1541.3,1085.1,1286.4,1604.0,1891.8,3423.7,3417.7,1509.7,1378.5,0.0,3434.6,1118.2,1530.1,3427.4,3429.8,722.5,1325.0,878.9,600.4,1226.6,2002.5,3427.4,3434.6,858.7,1001.3,1549.7,1450.6,1136.6,1105.1,0.0,-17.0,34.0,7346.0,7658.0,-7183.0,-10210.0,-145.0,10.0,-24.0,8.0,-10.0,12.0,9038.0,5929.0,-6427.0,-10502.0,-56.0,-59.0,-4.0,1.0
2022-05-23 16:13:19.053154-07:00,2333.7,612.5,1537.6,1540.3,1085.1,1286.4,1604.0,1891.8,3426.2,3429.8,1536.6,1381.2,0.0,3434.6,1118.2,1530.1,3427.4,3429.8,722.5,1325.0,875.5,598.7,1236.4,2013.4,3427.4,3434.6,858.7,1001.3,1551.5,1440.5,1141.9,1098.2,23.0,5.0,29.0,7372.0,7642.0,-7145.0,-10229.0,-62.0,34.0,-29.0,10.0,5.0,-8.0,9036.0,5903.0,-6429.0,-10517.0,-11.0,-38.0,-17.0,1.0
2022-05-23 16:13:19.112313-07:00,2333.7,612.5,1537.6,1540.3,1088.6,1286.4,1616.2,1888.9,3426.2,3429.8,1536.6,1381.2,0.0,3422.5,1144.5,1535.7,3429.8,3429.8,716.7,1323.2,875.5,598.7,1236.4,2013.4,3423.7,3429.8,843.6,1000.5,1551.5,1440.5,1141.9,1098.2,4.0,-13.0,19.0,7391.0,7667.0,-7099.0,-10229.0,-35.0,128.0,-64.0,6.0,-21.0,2.0,9031.0,5889.0,-6434.0,-10526.0,7.0,-33.0,10.0,1.0
2022-05-23 16:13:19.142561-07:00,2319.1,607.6,1526.4,1535.7,1088.6,1286.4,1616.2,1888.9,3427.4,3427.4,1536.6,1390.3,0.0,3422.5,1144.5,1535.7,3429.8,3429.8,716.7,1323.2,867.1,597.1,1231.0,1998.5,3423.7,3429.8,843.6,1000.5,1545.0,1458.0,1148.0,1098.2,-5.0,-1.0,19.0,7393.0,7716.0,-7067.0,-10213.0,71.0,105.0,-48.0,-1.0,5.0,15.0,9027.0,5890.0,-6445.0,-10522.0,55.0,4.0,-6.0,1.0
2022-05-23 16:13:19.202821-07:00,2319.1,607.6,1526.4,1535.7,1084.2,1278.3,1581.4,1859.6,3427.4,3427.4,1536.6,1390.3,0.0,3421.3,1144.5,1538.5,3424.9,3420.1,725.8,1324.1,867.1,597.1,1231.0,1998.5,3421.3,3418.9,844.4,1001.3,1545.0,1458.0,1148.0,1098.2,5.0,-1.0,5.0,7399.0,7742.0,-7057.0,-10195.0,-2.0,36.0,7.0,9.0,-7.0,3.0,9023.0,5893.0,-6453.0,-10519.0,-13.0,-18.0,1.0,1.0
2022-05-23 16:13:19.261875-07:00,2304.5,610.0,1513.4,1511.5,1084.2,1278.3,1581.4,1830.4,3434.6,3423.7,1545.9,1374.8,0.0,3421.3,1144.5,1530.1,3420.1,3420.1,725.8,1324.1,869.6,599.6,1230.2,2015.4,3429.8,3418.9,844.4,1001.3,1532.9,1449.7,1146.3,1090.3,7.0,1.0,9.0,7405.0,7748.0,-7049.0,-10193.0,-24.0,23.0,-12.0,10.0,-5.0,0.0,9023.0,5886.0,-6455.0,-10522.0,-18.0,-11.0,0.0,1.0
2022-05-23 16:13:19.292779-07:00,2298.3,610.0,1513.4,1511.5,1086.8,1273.9,1573.9,1830.4,3422.5,3423.7,1545.9,1374.8,0.0,3429.8,1152.4,1530.1,3420.1,3423.7,720.8,1332.3,869.6,599.6,1230.2,2002.5,3429.8,3429.8,846.1,997.0,1532.9,1449.7,1146.3,1094.7,-6.0,-5.0,15.0,7411.0,7747.0,-7035.0,-10198.0,-16.0,-3.0,-2.0,7.0,-6.0,12.0,9026.0,5879.0,-6450.0,-10525.0,-4.0,-5.0,-10.0,1.0
2022-05-23 16:13:19.353127-07:00,2298.3,612.5,1492.1,1507.8,1086.8,1273.9,1573.9,1821.6,3422.5,3423.7,1538.5,1374.8,0.0,3429.8,1152.4,1532.9,3424.9,3423.7,720.8,1332.3,863.7,599.6,1225.7,2002.5,3428.6,3429.8,846.1,997.0,1542.2,1449.7,1143.6,1094.7,0.0,5.0,4.0,7411.0,7737.0,-7033.0,-10207.0,-30.0,-21.0,2.0,1.0,3.0,-6.0,9024.0,5879.0,-6450.0,-10528.0,-20.0,-22.0,-7.0,1.0
2022-05-23 16:13:19.411947-07:00,2293.1,612.5,1492.1,1507.8,1085.1,1273.9,1567.4,1821.6,3429.8,3423.7,1538.5,1374.8,0.0,3422.5,1154.2,1532.9,3424.9,3423.7,719.2,1332.3,863.7,599.6,1225.7,2008.4,3428.6,3429.8,845.3,997.9,1542.2,1449.7,1143.6,1112.1,0.0,-13.0,21.0,7421.0,7721.0,-7019.0,-10221.0,-48.0,1.0,-13.0,9.0,-12.0,9.0,9026.0,5866.0,-6446.0,-10536.0,-25.0,-7.0,2.0,1.0
2022-05-23 16:13:19.472249-07:00,2293.1,602.8,1476.4,1507.8,1085.1,1273.9,1567.4,1798.4,3429.8,3420.1,1541.3,1379.4,0.0,3422.5,1154.2,1541.3,3424.9,3423.7,719.2,1332.3,873.8,593.9,1223.0,2008.4,3429.8,3429.8,845.3,997.9,1555.3,1448.8,1141.9,1112.1,6.0,-3.0,23.0,7427.0,7715.0,-7009.0,-10228.0,-15.0,16.0,2.0,14.0,-11.0,0.0,9029.0,5861.0,-6443.0,-10538.0,4.0,-1.0,5.0,1.0
2022-05-23 16:13:19.502784-07:00,2299.3,599.6,1476.4,1507.8,1098.2,1259.6,1564.6,1798.4,3422.5,3432.2,1541.3,1379.4,0.0,3423.7,1158.6,1541.3,3424.9,3429.8,721.6,1334.1,873.8,593.9,1226.6,2007.4,3429.8,3428.6,845.3,997.9,1555.3,1448.8,1138.4,1099.9,3.0,-8.0,13.0,7434.0,7725.0,-7003.0,-10220.0,13.0,34.0,2.0,9.0,-10.0,1.0,9028.0,5862.0,-6447.0,-10536.0,12.0,6.0,2.0,1.0
2022-05-23 16:13:19.561882-07:00,2299.3,599.6,1458.9,1507.8,1098.2,1259.6,1551.5,1779.1,3422.5,3432.2,1542.2,1383.9,0.0,3423.7,1153.3,1540.3,3422.5,3414.1,721.6,1334.1,867.9,594.7,1226.6,2007.4,3427.4,3429.8,845.3,997.9,1543.1,1447.9,1138.4,1099.9,8.0,-2.0,19.0,7440.0,7741.0,-6986.0,-10215.0,-6.0,74.0,-53.0,4.0,-12.0,-3.0,9027.0,5865.0,-6451.0,-10533.0,30.0,3.0,-8.0,1.0
2022-05-23 16:13:19.592627-07:00,2290.0,606.8,1458.9,1507.8,1085.1,1274.7,1551.5,1779.1,3422.5,3429.8,1542.2,1383.9,0.0,3421.3,1153.3,1540.3,3422.5,3414.1,720.0,1331.4,867.9,594.7,1224.8,1996.5,3427.4,3429.8,834.4,993.6,1543.1,1447.9,1134.9,1097.3,-4.0,-10.0,0.0,7444.0,7774.0,-6959.0,-10206.0,13.0,65.0,-34.0,13.0,-7.0,5.0,9021.0,5872.0,-6461.0,-10528.0,33.0,5.0,-13.0,1.0
2022-05-23 16:13:19.652689-07:00,2290.0,606.8,1459.8,1505.1,1085.1,1274.7,1555.3,1771.4,3422.5,3429.8,1537.6,1375.7,0.0,3421.3,1149.8,1538.5,3420.1,3429.8,720.0,1331.4,869.6,594.7,1224.8,1996.5,3417.7,3431.0,834.4,993.6,1536.6,1448.8,1134.9,1097.3,-5.0,3.0,5.0,7435.0,7779.0,-6957.0,-10210.0,0.0,-40.0,-21.0,2.0,1.0,-2.0,9013.0,5881.0,-6464.0,-10527.0,8.0,5.0,-16.0,1.0
2022-05-23 16:13:19.711893-07:00,2291.0,609.2,1459.8,1505.1,1092.1,1267.6,1555.3,1771.4,3416.5,3426.2,1537.6,1375.7,0.0,3432.2,1149.8,1538.5,3420.1,3429.8,722.5,1326.8,869.6,594.7,1224.8,1998.5,3417.7,3431.0,835.2,994.5,1536.6,1448.8,1141.9,1106.9,13.0,4.0,21.0,7434.0,7769.0,-6949.0,-10224.0,-39.0,17.0,-20.0,11.0,1.0,1.0,9011.0,5883.0,-6463.0,-10529.0,-20.0,-2.0,2.0,1.0
2022-05-23 16:13:19.772275-07:00,2291.0,609.2,1439.6,1495.8,1092.1,1258.7,1536.6,1743.5,3416.5,3426.2,1542.2,1374.8,0.0,3432.2,1151.5,1541.3,3426.2,3423.7,716.7,1326.8,867.9,602.0,1224.8,1998.5,3426.2,3429.8,832.7,994.5,1539.4,1447.9,1141.9,1106.9,0.0,-5.0,16.0,7442.0,7769.0,-6939.0,-10225.0,7.0,13.0,9.0,7.0,-5.0,8.0,9016.0,5880.0,-6460.0,-10528.0,9.0,15.0,2.0,1.0
2022-05-23 16:13:19.802736-07:00,2266.2,603.6,1436.0,1495.8,1085.1,1258.7,1536.6,1743.5,3428.6,3428.6,1537.6,1374.8,0.0,3432.2,1151.5,1541.3,3426.2,3423.7,716.7,1332.3,867.9,598.7,1217.7,2000.5,3426.2,3429.8,832.7,991.9,1539.4,1445.1,1143.6,1100.8,11.0,1.0,5.0,7442.0,7763.0,-6941.0,-10228.0,-20.0,-30.0,-11.0,11.0,-7.0,-2.0,9019.0,5880.0,-6457.0,-10527.0,-16.0,-1.0,-8.0,1.0
2022-05-23 16:13:19.861919-07:00,2266.2,603.6,1436.0,1502.3,1085.1,1255.1,1532.9,1747.3,3428.6,3428.6,1537.6,1379.4,0.0,3428.6,1148.9,1538.5,3433.4,3414.1,715.1,1332.3,871.3,598.7,1217.7,2000.5,3422.5,3431.0,833.6,991.9,1541.3,1445.1,1143.6,1100.8,1.0,4.0,8.0,7440.0,7755.0,-6935.0,-10240.0,-21.0,-8.0,-16.0,4.0,-10.0,0.0,9022.0,5873.0,-6453.0,-10531.0,-18.0,-9.0,-1.0,1.0
2022-05-23 16:13:19.892781-07:00,2272.4,593.1,1428.6,1502.3,1071.2,1255.1,1532.9,1747.3,3418.9,3424.9,1552.5,1379.4,0.0,3428.6,1148.9,1538.5,3433.4,3414.1,715.1,1326.8,871.3,595.5,1220.4,1999.5,3422.5,3431.0,833.6,991.9,1541.3,1440.5,1127.0,1093.8,-7.0,-19.0,6.0,7436.0,7759.0,-6928.0,-10244.0,15.0,7.0,-11.0,12.0,-7.0,16.0,9023.0,5871.0,-6451.0,-10532.0,13.0,5.0,-8.0,1.0
2022-05-23 16:13:19.982985-07:00,2272.4,593.1,1428.6,1502.3,1071.2,1248.0,1524.5,1730.1,3418.9,3424.9,1552.5,1367.6,0.0,3426.2,1152.4,1531.0,3422.5,3423.7,717.5,1326.8,867.1,595.5,1220.4,1999.5,3428.6,3426.2,831.1,991.9,1541.3,1440.5,1127.0,1093.8,2.0,-2.0,8.0,7428.0,7758.0,-6942.0,-10241.0,36.0,-28.0,14.0,6.0,-10.0,-1.0,9022.0,5873.0,-6454.0,-10530.0,17.0,4.0,-9.0,1.0
2022-05-23 16:13:20.011873-07:00,2266.2,598.7,1436.0,1502.3,1074.7,1248.0,1524.5,1730.1,3429.8,3426.2,1527.3,1367.6,0.0,3426.2,1152.4,1531.0,3422.5,3423.7,717.5,1325.9,867.1,596.3,1225.7,1999.5,3428.6,3426.2,831.1,990.2,1541.3,1441.5,1137.5,1086.8,4.0,-2.0,18.0,7430.0,7761.0,-6943.0,-10236.0,-10.0,28.0,15.0,13.0,-1.0,10.0,9023.0,5874.0,-6455.0,-10529.0,-12.0,9.0,2.0,1.0
2022-05-23 16:13:20.042499-07:00,2266.2,598.7,1436.0,1488.4,1075.6,1262.2,1530.1,1728.2,3429.8,3426.2,1527.3,1371.2,0.0,3426.2,1144.5,1540.3,3421.3,3431.0,713.4,1320.5,873.8,596.3,1225.7,1999.5,3423.7,3429.8,824.4,991.0,1536.6,1441.5,1137.5,1086.8,21.0,-25.0,38.0,7430.0,7784.0,-6948.0,-10216.0,214.0,110.0,-29.0,11.0,-42.0,-2.0,9017.0,5886.0,-6467.0,-10520.0,208.0,37.0,-21.0,1.0
2022-05-23 16:13:20.103575-07:00,2279.6,597.1,1433.2,1499.5,1075.6,1262.2,1530.1,1728.2,3423.7,3426.2,1526.4,1369.4,0.0,3426.2,1144.5,1540.3,3421.3,3431.0,713.4,1320.5,869.6,594.7,1223.9,2004.5,3423.7,3429.8,824.4,991.0,1545.0,1439.6,1136.6,1093.8,8.0,-15.0,29.0,7370.0,7922.0,-7014.0,-10107.0,527.0,235.0,-16.0,12.0,13.0,4.0,8978.0,5977.0,-6522.0,-10468.0,334.0,95.0,-33.0,1.0
2022-05-23 16:13:20.161890-07:00,2279.6,597.1,1433.2,1499.5,1072.9,1243.5,1530.1,1735.8,3423.7,3426.2,1526.4,1369.4,0.0,3417.7,1146.3,1536.6,3418.9,3420.1,711.8,1316.9,869.6,594.7,1223.9,2004.5,3421.3,3427.4,826.0,990.2,1545.0,1439.6,1136.6,1093.8,0.0,22.0,-26.0,7337.0,8046.0,-7089.0,-9981.0,301.0,178.0,43.0,-6.0,0.0,-8.0,8938.0,6070.0,-6581.0,-10412.0,232.0,33.0,-24.0,1.0
2022-05-23 16:13:20.192500-07:00,2259.0,597.1,1423.1,1504.1,1072.9,1243.5,1530.1,1735.8,3433.4,3432.2,1525.5,1374.8,0.0,3417.7,1146.3,1536.6,3418.9,3420.1,711.8,1316.9,867.9,589.9,1222.2,1996.5,3421.3,3427.4,826.0,990.2,1538.5,1440.5,1134.0,1083.4,11.0,-7.0,22.0,7296.0,8172.0,-7102.0,-9899.0,299.0,256.0,-158.0,14.0,-1.0,7.0,8899.0,6137.0,-6628.0,-10376.0,186.0,38.0,-40.0,1.0
2022-05-23 16:13:20.252648-07:00,2259.0,597.1,1423.1,1504.1,1078.2,1247.1,1518.0,1744.5,3433.4,3432.2,1525.5,1374.8,0.0,3418.9,1145.4,1544.1,3426.2,3426.2,720.0,1327.8,867.9,589.9,1222.2,1996.5,3434.6,3424.9,847.8,990.2,1538.5,1440.5,1134.0,1083.4,-29.0,-2.0,-25.0,7263.0,8269.0,-7105.0,-9840.0,209.0,100.0,-31.0,-4.0,11.0,5.0,8873.0,6186.0,-6657.0,-10351.0,156.0,21.0,-37.0,1.0
2022-05-23 16:13:20.312337-07:00,2249.7,602.0,1420.4,1503.2,1078.2,1247.1,1518.0,1722.4,3428.6,3429.8,1531.0,1373.0,0.0,3418.9,1145.4,1532.9,3431.0,3426.2,720.0,1327.8,863.7,596.3,1225.7,1995.5,3417.7,3424.9,847.8,990.2,1535.7,1444.2,1133.1,1083.4,5.0,4.0,-23.0,7230.0,8319.0,-7125.0,-9808.0,11.0,6.0,-34.0,-3.0,7.0,-23.0,8851.0,6204.0,-6673.0,-10347.0,14.0,-31.0,-15.0,1.0
2022-05-23 16:13:20.342764-07:00,2255.9,602.0,1420.4,1503.2,1081.6,1253.3,1519.9,1722.4,3424.9,3429.8,1531.0,1373.0,0.0,3424.9,1150.6,1532.9,3431.0,3427.4,719.2,1325.9,863.7,596.3,1225.7,1998.5,3417.7,3427.4,831.1,992.7,1535.7,1444.2,1133.1,1098.2,-2.0,-16.0,14.0,7229.0,8315.0,-7107.0,-9825.0,-70.0,-17.0,-44.0,5.0,-3.0,3.0,8845.0,6188.0,-6673.0,-10362.0,-47.0,-37.0,-14.0,1.0
2022-05-23 16:13:20.432766-07:00,2255.9,604.4,1418.6,1502.3,1081.6,1253.3,1519.9,1710.0,3424.9,3424.9,1527.3,1366.6,0.0,3424.9,1150.6,1532.9,3423.7,3427.4,719.2,1325.9,871.3,595.5,1221.3,1998.5,3432.2,3427.4,831.1,992.7,1534.8,1438.7,1134.0,1098.2,-6.0,-8.0,10.0,7236.0,8308.0,-7089.0,-9839.0,-21.0,2.0,-3.0,9.0,-8.0,16.0,8842.0,6179.0,-6672.0,-10371.0,7.0,-12.0,-11.0,1.0
2022-05-23 16:13:20.461802-07:00,2257.9,604.4,1418.6,1502.3,1081.6,1251.5,1502.3,1710.0,3423.7,3424.9,1527.3,1366.6,0.0,3429.8,1148.9,1532.9,3423.7,3424.9,711.0,1326.8,871.3,595.5,1221.3,1999.5,3432.2,3428.6,824.4,980.7,1534.8,1438.7,1134.0,1094.7,22.0,0.0,29.0,7237.0,8307.0,-7087.0,-9840.0,65.0,37.0,-9.0,18.0,-11.0,0.0,8837.0,6184.0,-6679.0,-10368.0,54.0,11.0,-6.0,1.0
2022-05-23 16:13:20.492439-07:00,2257.9,598.7,1410.3,1522.7,1081.6,1251.5,1502.3,1706.2,3423.7,3426.2,1523.6,1367.6,0.0,3429.8,1148.9,1535.7,3426.2,3424.9,711.0,1326.8,873.0,592.3,1223.9,1999.5,3422.5,3428.6,824.4,980.7,1539.4,1444.2,1129.6,1094.7,11.0,-5.0,31.0,7220.0,8351.0,-7094.0,-9810.0,230.0,151.0,-88.0,15.0,-15.0,2.0,8828.0,6219.0,-6695.0,-10344.0,138.0,74.0,-17.0,1.0
2022-05-23 16:13:20.552572-07:00,2248.7,598.7,1410.3,1522.7,1086.0,1241.7,1512.5,1706.2,3417.7,3426.2,1523.6,1367.6,0.0,3421.3,1146.3,1535.7,3426.2,3418.9,714.2,1333.2,873.0,592.3,1223.9,1997.5,3422.5,3418.9,825.2,995.3,1539.4,1444.2,1129.6,1095.6,9.0,-24.0,40.0,7171.0,8464.0,-7116.0,-9734.0,493.0,240.0,-73.0,11.0,-26.0,13.0,8803.0,6303.0,-6732.0,-10291.0,341.0,132.0,-40.0,1.0
2022-05-23 16:13:20.611814-07:00,2248.7,597.9,1411.3,1510.6,1086.0,1241.7,1507.8,1704.3,3417.7,3429.8,1530.1,1373.0,0.0,3421.3,1145.4,1537.6,3428.6,3429.8,714.2,1333.2,867.9,593.1,1219.5,1997.5,3429.8,3434.6,825.2,995.3,1541.3,1442.4,1130.5,1095.6,-5.0,-12.0,-9.0,7088.0,8641.0,-7197.0,-9578.0,588.0,255.0,37.0,0.0,1.0,2.0,8761.0,6439.0,-6793.0,-10201.0,401.0,168.0,-21.0,1.0
2022-05-23 16:13:20.642760-07:00,2253.8,598.7,1411.3,1510.6,1082.5,1239.1,1507.8,1704.3,3421.3,3432.2,1530.1,1373.0,0.0,3429.8,1145.4,1537.6,3428.6,3429.8,720.0,1326.8,867.9,593.1,1223.0,1999.5,3429.8,3434.6,821.0,992.7,1541.3,1442.4,1128.7,1102.5,-14.0,-5.0,-36.0,7019.0,8783.0,-7300.0,-9420.0,405.0,118.0,65.0,-2.0,16.0,-3.0,8719.0,6564.0,-6852.0,-10118.0,314.0,120.0,-29.0,1.0
2022-05-23 16:13:20.732296-07:00,2253.8,598.7,1412.2,1506.0,1082.5,1239.1,1500.4,1704.3,3421.3,3432.2,1529.2,1370.3,0.0,3429.8,1147.1,1537.6,3420.1,3421.3,720.0,1326.8,870.5,595.5,1223.0,1999.5,3422.5,3427.4,821.0,992.7,1537.6,1440.5,1128.7,1102.5,1.0,21.0,-35.0,6987.0,8838.0,-7374.0,-9335.0,64.0,32.0,39.0,-14.0,9.0,-28.0,8696.0,6622.0,-6882.0,-10079.0,65.0,18.0,-5.0,1.0
2022-05-23 16:13:20.792278-07:00,2247.6,591.5,1412.2,1506.0,1073.8,1245.3,1500.4,1704.3,3422.5,3433.4,1529.2,1370.3,0.0,3423.7,1147.1,1537.6,3420.1,3421.3,714.2,1328.7,870.5,595.5,1228.4,1999.5,3422.5,3427.4,825.2,990.2,1537.6,1440.5,1128.7,1083.4,-2.0,2.0,-8.0,6992.0,8839.0,-7368.0,-9334.0,-128.0,-28.0,-48.0,1.0,0.0,0.0,8698.0,6609.0,-6877.0,-10090.0,-87.0,-37.0,-3.0,1.0
2022-05-23 16:13:20.793566-07:00,2247.6,591.5,1412.2,1505.1,1073.8,1245.3,1492.1,1677.6,3422.5,3433.4,1522.7,1375.7,0.0,3423.7,1145.4,1532.9,3415.3,3420.1,714.2,1328.7,867.1,595.5,1228.4,1999.5,3428.6,3439.5,825.2,990.2,1534.8,1433.2,1128.7,1083.4,4.0,-6.0,29.0,7005.0,8815.0,-7332.0,-9376.0,-96.0,-22.0,-42.0,17.0,-6.0,8.0,8709.0,6577.0,-6860.0,-10113.0,-83.0,-21.0,7.0,1.0
2022-05-23 16:13:20.852413-07:00,2251.7,597.1,1404.0,1505.1,1090.3,1241.7,1492.1,1677.6,3432.2,3421.3,1526.4,1375.7,0.0,3429.8,1145.4,1532.9,3415.3,3420.1,715.1,1327.8,867.1,592.3,1228.4,1990.5,3428.6,3439.5,821.0,986.7,1534.8,1436.9,1127.9,1092.1,6.0,-5.0,18.0,7008.0,8807.0,-7318.0,-9392.0,22.0,-15.0,10.0,15.0,-5.0,3.0,8718.0,6564.0,-6853.0,-10119.0,-13.0,9.0,5.0,1.0
2022-05-23 16:13:20.911883-07:00,2251.7,597.1,1404.0,1497.7,1090.3,1242.6,1493.0,1664.4,3432.2,3421.3,1526.4,1376.6,0.0,3423.7,1141.9,1535.7,3418.9,3416.5,719.2,1327.8,872.1,592.3,1228.4,1990.5,3429.8,3433.4,822.7,986.7,1536.6,1436.9,1127.9,1092.1,0.0,-3.0,-2.0,7004.0,8810.0,-7321.0,-9390.0,-1.0,19.0,-13.0,-2.0,-2.0,-1.0,8723.0,6567.0,-6849.0,-10115.0,-11.0,20.0,9.0,1.0
2022-05-23 16:13:20.942672-07:00,2242.5,603.6,1402.1,1497.7,1082.5,1242.6,1493.0,1664.4,3429.8,3424.9,1521.8,1376.6,0.0,3423.7,1141.9,1535.7,3418.9,3416.5,719.2,1327.8,872.1,593.1,1219.5,1991.5,3429.8,3433.4,822.7,987.6,1536.6,1433.2,1114.7,1087.7,-4.0,-6.0,-5.0,7007.0,8811.0,-7310.0,-9396.0,-44.0,-18.0,-19.0,-1.0,-4.0,-4.0,8734.0,6561.0,-6836.0,-10118.0,-56.0,11.0,9.0,1.0
2022-05-23 16:13:21.032516-07:00,2242.5,603.6,1402.1,1497.7,1082.5,1238.2,1496.7,1672.9,3429.8,3424.9,1521.8,1368.5,0.0,3432.2,1139.2,1534.8,3429.8,3421.3,710.1,1327.8,867.9,593.1,1219.5,1991.5,3429.8,3432.2,815.2,987.6,1534.8,1433.2,1114.7,1087.7,2.0,0.0,12.0,7014.0,8801.0,-7299.0,-9408.0,-27.0,1.0,1.0,12.0,-8.0,6.0,8741.0,6553.0,-6827.0,-10124.0,-20.0,-4.0,8.0,1.0
2022-05-23 16:13:21.062261-07:00,2242.5,593.1,1393.0,1497.7,1077.3,1238.2,1496.7,1672.9,3423.7,3416.5,1521.8,1368.5,0.0,3432.2,1139.2,1534.8,3429.8,3421.3,710.1,1332.3,867.9,595.5,1221.3,2003.5,3429.8,3432.2,815.2,986.7,1534.8,1434.1,1126.1,1083.4,-3.0,-8.0,2.0,7020.0,8796.0,-7292.0,-9414.0,-47.0,-14.0,0.0,-4.0,-6.0,0.0,8744.0,6548.0,-6823.0,-10127.0,-25.0,-4.0,2.0,1.0
2022-05-23 16:13:21.122246-07:00,2242.5,593.1,1393.0,1499.5,1077.3,1249.7,1483.8,1692.9,3423.7,3416.5,1521.8,1369.4,0.0,3429.8,1137.5,1537.6,3422.5,3418.9,712.6,1332.3,866.3,595.5,1221.3,2003.5,3422.5,3429.8,816.9,986.7,1537.6,1434.1,1126.1,1083.4,2.0,0.0,-4.0,7029.0,8781.0,-7283.0,-9428.0,-64.0,-26.0,-1.0,0.0,0.0,-5.0,8746.0,6536.0,-6819.0,-10136.0,-33.0,-26.0,1.0,1.0
2022-05-23 16:13:21.152485-07:00,2241.4,598.7,1396.7,1504.1,1072.9,1249.7,1483.8,1692.9,3429.8,3418.9,1520.8,1374.8,0.0,3429.8,1137.5,1537.6,3422.5,3418.9,712.6,1326.8,873.8,592.3,1218.6,1992.5,3422.5,3429.8,816.9,985.0,1535.7,1436.9,1107.8,1084.2,5.0,0.0,4.0,7041.0,8758.0,-7261.0,-9456.0,-134.0,-38.0,-26.0,11.0,-3.0,0.0,8750.0,6513.0,-6811.0,-10152.0,-93.0,-44.0,3.0,1.0
2022-05-23 16:13:21.212339-07:00,2241.4,598.7,1396.7,1504.1,1075.6,1244.4,1478.3,1656.8,3429.8,3418.9,1520.8,1374.8,0.0,3431.0,1142.7,1532.9,3423.7,3422.5,708.5,1326.8,873.8,592.3,1218.6,1992.5,3429.8,3435.8,816.0,988.5,1535.7,1436.9,1107.8,1084.2,8.0,-10.0,23.0,7055.0,8727.0,-7224.0,-9503.0,-119.0,-33.0,-51.0,13.0,-13.0,2.0,8762.0,6477.0,-6793.0,-10177.0,-103.0,-26.0,7.0,1.0
2022-05-23 16:13:21.242301-07:00,2246.6,593.1,1407.6,1506.0,1075.6,1244.4,1478.3,1656.8,3423.7,3420.1,1519.9,1372.1,0.0,3431.0,1142.7,1532.9,3423.7,3422.5,708.5,1326.8,868.8,592.3,1222.2,1980.6,3429.8,3435.8,816.0,988.5,1530.1,1433.2,1127.0,1088.6,-6.0,-7.0,8.0,7061.0,8720.0,-7198.0,-9525.0,-28.0,0.0,-20.0,5.0,-4.0,5.0,8771.0,6461.0,-6780.0,-10188.0,-25.0,3.0,3.0,1.0
2022-05-23 16:13:21.332275-07:00,2246.6,593.1,1407.6,1506.0,1083.4,1233.7,1478.3,1658.7,3423.7,3420.1,1519.9,1372.1,1.4,3421.3,1139.2,1532.0,3422.5,3422.5,708.5,1325.9,868.8,592.3,1222.2,1980.6,3426.2,3427.4,818.5,987.6,1530.1,1433.2,1127.0,1088.6,3.0,-9.0,6.0,7062.0,8719.0,-7195.0,-9528.0,10.0,3.0,9.0,7.0,-13.0,-1.0,8774.0,6461.0,-6778.0,-10187.0,16.0,18.0,5.0,1.0
2022-05-23 16:13:21.361878-07:00,2239.4,597.1,1390.3,1494.9,1083.4,1233.7,1478.3,1658.7,3427.4,3426.2,1519.9,1369.4,1.4,3421.3,1139.2,1532.0,3422.5,3422.5,708.5,1325.9,870.5,593.1,1223.9,1988.5,3426.2,3427.4,818.5,987.6,1528.3,1436.9,1129.6,1083.4,2.0,6.0,-6.0,7062.0,8719.0,-7195.0,-9528.0,-25.0,-1.0,-5.0,3.0,-1.0,-5.0,8777.0,6461.0,-6773.0,-10187.0,-22.0,4.0,6.0,1.0
2022-05-23 16:13:21.392853-07:00,2232.2,597.1,1390.3,1494.9,1072.9,1248.8,1478.3,1653.9,3423.7,3426.2,1519.9,1369.4,0.0,3432.2,1140.1,1533.8,3431.0,3434.6,715.9,1323.2,870.5,593.1,1223.9,1989.5,3423.7,3428.6,803.5,991.0,1528.3,1436.9,1129.6,1083.4,3.0,0.0,1.0,7074.0,8704.0,-7175.0,-9547.0,-99.0,-26.0,-20.0,4.0,-1.0,-2.0,8784.0,6445.0,-6762.0,-10199.0,-75.0,-20.0,2.0,1.0
2022-05-23 16:13:21.452489-07:00,2232.2,591.5,1393.0,1508.8,1072.9,1248.8,1478.3,1641.6,3423.7,3429.8,1518.0,1376.6,0.0,3432.2,1140.1,1533.8,3424.9,3434.6,715.9,1323.2,871.3,597.9,1216.8,1989.5,3431.0,3428.6,803.5,991.0,1530.1,1429.5,1127.9,1083.4,7.0,-5.0,9.0,7092.0,8675.0,-7141.0,-9586.0,-148.0,-38.0,-32.0,9.0,-10.0,-4.0,8795.0,6412.0,-6742.0,-10223.0,-106.0,-42.0,6.0,1.0
2022-05-23 16:13:21.482411-07:00,2234.2,591.5,1393.0,1508.8,1074.7,1237.3,1466.3,1641.6,3423.7,3429.8,1518.0,1376.6,0.0,3420.1,1143.6,1533.8,3424.9,3424.9,714.2,1329.6,871.3,597.9,1216.8,1985.6,3431.0,3424.9,812.7,992.7,1530.1,1429.5,1127.9,1072.9,-1.0,-11.0,16.0,7106.0,8651.0,-7104.0,-9625.0,-112.0,-21.0,-39.0,13.0,-9.0,12.0,8805.0,6379.0,-6726.0,-10245.0,-72.0,-30.0,2.0,1.0
2022-05-23 16:13:21.542732-07:00,2234.2,592.3,1394.8,1494.9,1074.7,1237.3,1466.3,1649.2,3423.7,3427.4,1522.7,1367.6,0.0,3420.1,1143.6,1531.0,3431.0,3424.9,714.2,1329.6,872.1,597.1,1218.6,1985.6,3431.0,3424.9,812.7,992.7,1525.5,1429.5,1119.1,1072.9,1.0,-14.0,25.0,7115.0,8631.0,-7084.0,-9651.0,-26.0,-25.0,7.0,12.0,-11.0,9.0,8814.0,6357.0,-6716.0,-10258.0,-13.0,-5.0,-4.0,1.0
2022-05-23 16:13:21.603276-07:00,2234.2,592.3,1394.8,1494.9,1076.4,1234.6,1472.7,1649.2,3424.9,3427.4,1522.7,1367.6,0.0,3421.3,1140.1,1531.0,3431.0,3428.6,716.7,1316.9,872.1,597.1,1218.6,1976.6,3431.0,3431.0,816.0,991.9,1525.5,1429.5,1119.1,1084.2,-1.0,-6.0,5.0,7114.0,8633.0,-7097.0,-9640.0,67.0,15.0,26.0,8.0,-1.0,7.0,8814.0,6366.0,-6720.0,-10250.0,45.0,29.0,-3.0,1.0
2022-05-23 16:13:21.632249-07:00,2234.2,591.5,1393.9,1506.0,1076.4,1234.6,1472.7,1637.9,3424.9,3435.8,1522.7,1364.8,0.0,3421.3,1140.1,1529.2,3416.5,3428.6,716.7,1316.9,857.9,591.5,1217.7,1976.6,3426.2,3431.0,816.0,991.9,1519.0,1436.0,1123.5,1084.2,11.0,0.0,-1.0,7110.0,8638.0,-7119.0,-9622.0,42.0,11.0,22.0,1.0,4.0,-4.0,8812.0,6381.0,-6724.0,-10239.0,21.0,15.0,0.0,1.0
2022-05-23 16:13:21.692603-07:00,2233.2,589.1,1393.9,1506.0,1066.9,1239.1,1466.3,1637.9,3427.4,3426.2,1522.7,1364.8,0.0,3432.2,1139.2,1529.2,3416.5,3429.8,715.9,1321.4,857.9,591.5,1222.2,1987.5,3426.2,3431.0,813.5,987.6,1519.0,1436.0,1115.6,1070.3,-3.0,-1.0,-1.0,7109.0,8638.0,-7127.0,-9617.0,3.0,-25.0,18.0,3.0,-7.0,4.0,8811.0,6385.0,-6727.0,-10236.0,10.0,-8.0,-6.0,1.0
2022-05-23 16:13:21.752406-07:00,2233.2,589.1,1382.1,1499.5,1066.9,1239.1,1458.9,1650.2,3427.4,3426.2,1512.5,1373.0,0.0,3432.2,1137.5,1529.2,3416.5,3427.4,715.9,1321.4,868.8,593.1,1222.2,1987.5,3424.9,3429.8,813.5,987.6,1525.5,1425.9,1115.6,1070.3,1.0,-2.0,12.0,7106.0,8629.0,-7133.0,-9623.0,-2.0,-15.0,4.0,5.0,-2.0,-3.0,8810.0,6383.0,-6729.0,-10238.0,6.0,-13.0,-9.0,1.0
2022-05-23 16:13:21.783134-07:00,2234.2,586.7,1382.1,1499.5,1072.1,1233.7,1458.9,1650.2,3423.7,3426.2,1512.5,1373.0,0.0,3435.8,1137.5,1529.2,3416.5,3427.4,713.4,1328.7,868.8,593.1,1216.8,1982.6,3424.9,3429.8,810.2,985.0,1525.5,1425.9,1123.5,1072.9,4.0,-4.0,14.0,7109.0,8625.0,-7139.0,-9620.0,14.0,-13.0,21.0,16.0,-5.0,0.0,8807.0,6386.0,-6733.0,-10235.0,15.0,7.0,0.0,1.0
2022-05-23 16:13:21.842616-07:00,2234.2,586.7,1393.0,1500.4,1072.1,1233.7,1470.9,1627.5,3423.7,3426.2,1522.7,1383.9,0.0,3435.8,1134.0,1528.3,3420.1,3421.3,713.4,1328.7,866.3,594.7,1216.8,1982.6,3420.1,3418.9,810.2,985.0,1525.5,1428.6,1123.5,1072.9,-6.0,-4.0,2.0,7103.0,8627.0,-7153.0,-9613.0,63.0,11.0,12.0,4.0,-1.0,2.0,8804.0,6397.0,-6738.0,-10227.0,37.0,20.0,-1.0,1.0
2022-05-23 16:13:21.961884-07:00,2216.8,600.4,1393.0,1500.4,1072.1,1232.8,1470.9,1627.5,3429.8,3424.9,1522.7,1383.9,0.0,3434.6,1134.0,1528.3,3420.1,3421.3,714.2,1324.1,866.3,594.7,1213.3,1974.6,3420.1,3418.9,811.0,994.5,1525.5,1428.6,1116.5,1077.3,0.0,0.0,-7.0,7099.0,8630.0,-7168.0,-9601.0,15.0,-15.0,27.0,-3.0,-1.0,1.0,8803.0,6404.0,-6741.0,-10222.0,7.0,0.0,-2.0,1.0
2022-05-23 16:13:21.962986-07:00,2216.8,600.4,1389.4,1492.1,1072.1,1228.4,1470.9,1636.9,3429.8,3424.9,1518.0,1369.4,0.0,3420.1,1137.5,1524.5,3421.3,3424.9,708.5,1324.1,865.4,593.9,1213.3,1974.6,3428.6,3428.6,808.5,994.5,1530.1,1430.5,1116.5,1077.3,14.0,0.0,4.0,7101.0,8617.0,-7178.0,-9604.0,-16.0,-38.0,26.0,10.0,-1.0,-5.0,8802.0,6403.0,-6742.0,-10223.0,-6.0,-9.0,0.0,1.0
2022-05-23 16:13:21.992566-07:00,2226.0,595.5,1380.3,1492.1,1066.0,1228.4,1470.9,1636.9,3422.5,3429.8,1514.3,1369.4,0.0,3420.1,1137.5,1524.5,3421.3,3424.9,708.5,1324.1,865.4,591.5,1209.7,1992.5,3428.6,3428.6,808.5,989.3,1530.1,1434.1,1115.6,1069.5,0.0,-4.0,6.0,7107.0,8600.0,-7178.0,-9615.0,-32.0,-20.0,-2.0,11.0,-9.0,-1.0,8806.0,6396.0,-6736.0,-10228.0,-32.0,-7.0,1.0,1.0
2022-05-23 16:13:22.052467-07:00,2226.0,595.5,1380.3,1496.7,1066.0,1230.2,1455.2,1629.4,3422.5,3429.8,1514.3,1360.3,0.0,3427.4,1140.1,1530.1,3417.7,3417.7,715.9,1324.1,865.4,591.5,1209.7,1992.5,3426.2,3429.8,808.5,989.3,1526.4,1434.1,1115.6,1069.5,-4.0,0.0,-4.0,7109.0,8584.0,-7175.0,-9630.0,-59.0,-52.0,1.0,0.0,6.0,1.0,8812.0,6386.0,-6725.0,-10235.0,-53.0,-12.0,8.0,1.0
2022-05-23 16:13:22.083106-07:00,2225.0,599.6,1383.0,1496.7,1071.2,1230.2,1455.2,1629.4,3434.6,3418.9,1510.6,1360.3,0.0,3427.4,1140.1,1530.1,3417.7,3417.7,715.9,1320.5,865.4,592.3,1208.9,1982.6,3426.2,3429.8,808.5,994.5,1526.4,1425.9,1120.9,1079.0,8.0,0.0,11.0,7122.0,8561.0,-7168.0,-9645.0,-48.0,3.0,10.0,7.0,-5.0,-2.0,8820.0,6376.0,-6717.0,-10241.0,-31.0,-6.0,12.0,1.0
2022-05-23 16:13:22.142460-07:00,2225.0,599.6,1383.0,1491.2,1071.2,1231.9,1463.5,1638.8,3434.6,3418.9,1510.6,1364.8,0.0,3429.8,1131.4,1533.8,3429.8,3429.8,712.6,1320.5,867.1,592.3,1208.9,1982.6,3429.8,3439.5,806.0,994.5,1529.2,1425.9,1120.9,1079.0,-6.0,-1.0,0.0,7133.0,8557.0,-7162.0,-9646.0,-25.0,-6.0,17.0,10.0,-3.0,10.0,8822.0,6372.0,-6713.0,-10243.0,-19.0,-6.0,4.0,1.0
2022-05-23 16:13:22.202529-07:00,2224.0,600.4,1392.1,1491.2,1069.5,1231.9,1463.5,1638.8,3428.6,3424.9,1520.8,1364.8,0.0,3429.8,1131.4,1533.8,3429.8,3429.8,712.6,1328.7,867.1,587.5,1212.4,1985.6,3429.8,3439.5,806.0,992.7,1529.2,1432.3,1113.0,1079.0,14.0,3.0,11.0,7141.0,8535.0,-7165.0,-9657.0,-38.0,-40.0,20.0,12.0,-4.0,-6.0,8824.0,6368.0,-6710.0,-10247.0,-14.0,-11.0,-2.0,1.0
2022-05-23 16:13:22.232285-07:00,2224.0,600.4,1392.1,1492.1,1059.9,1224.8,1455.2,1633.1,3428.6,3424.9,1520.8,1369.4,0.0,3429.8,1134.9,1534.8,3429.8,3429.8,709.3,1319.6,867.9,587.5,1212.4,1985.6,3434.6,3431.0,808.5,985.9,1533.8,1432.3,1113.0,1079.0,0.0,-3.0,5.0,7146.0,8531.0,-7158.0,-9663.0,-9.0,10.0,-12.0,9.0,-2.0,0.0,8825.0,6363.0,-6708.0,-10250.0,-10.0,-3.0,0.0,1.0
2022-05-23 16:13:22.292129-07:00,2225.0,591.5,1389.4,1499.5,1059.9,1224.8,1455.2,1633.1,3422.5,3434.6,1512.5,1370.3,0.0,3429.8,1134.9,1534.8,3429.8,3429.8,709.3,1319.6,867.1,593.1,1213.3,1991.5,3434.6,3431.0,808.5,985.9,1531.0,1429.5,1119.1,1072.9,2.0,0.0,5.0,7149.0,8524.0,-7151.0,-9672.0,-49.0,-18.0,4.0,9.0,0.0,0.0,8828.0,6359.0,-6703.0,-10253.0,-23.0,-5.0,0.0,1.0
2022-05-23 16:13:22.352343-07:00,2225.0,591.5,1389.4,1499.5,1064.3,1230.2,1470.9,1622.8,3422.5,3434.6,1512.5,1370.3,0.0,3417.7,1135.7,1537.6,3416.5,3418.9,715.1,1321.4,867.1,593.1,1213.3,1991.5,3428.6,3439.5,811.0,986.7,1531.0,1429.5,1119.1,1072.9,6.0,-5.0,0.0,7157.0,8511.0,-7139.0,-9685.0,-41.0,-5.0,-13.0,6.0,-7.0,-6.0,8833.0,6352.0,-6696.0,-10258.0,-22.0,-9.0,-1.0,1.0
2022-05-23 16:13:22.382400-07:00,2227.0,595.5,1383.0,1503.2,1064.3,1230.2,1470.9,1622.8,3428.6,3428.6,1522.7,1369.4,0.0,3417.7,1135.7,1537.6,3416.5,3418.9,715.1,1321.4,864.6,591.5,1216.8,1986.6,3428.6,3439.5,811.0,986.7,1526.4,1441.5,1122.6,1071.2,-3.0,3.0,0.0,7161.0,8506.0,-7120.0,-9701.0,-85.0,-19.0,-31.0,5.0,2.0,1.0,8836.0,6340.0,-6690.0,-10267.0,-55.0,-25.0,-1.0,1.0
2022-05-23 16:13:22.442438-07:00,2227.0,595.5,1383.0,1503.2,1062.5,1238.2,1455.2,1615.2,3428.6,3428.6,1522.7,1369.4,0.7,3423.7,1140.1,1537.6,3429.8,3428.6,709.3,1321.4,864.6,591.5,1216.8,1986.6,3426.2,3437.0,808.5,988.5,1526.4,1441.5,1122.6,1071.2,-1.0,-8.0,19.0,7175.0,8486.0,-7087.0,-9732.0,-101.0,-7.0,-33.0,15.0,-14.0,10.0,8842.0,6321.0,-6678.0,-10281.0,-49.0,-19.0,2.0,1.0
2022-05-23 16:13:22.502521-07:00,2230.1,587.5,1385.7,1505.1,1062.5,1238.2,1455.2,1625.6,3426.2,3426.2,1511.5,1369.4,0.7,3423.7,1140.1,1530.1,3423.7,3428.6,709.3,1321.4,872.1,590.7,1211.5,1987.5,3429.8,3437.0,808.5,988.5,1531.0,1434.1,1112.1,1076.4,-1.0,-6.0,23.0,7179.0,8477.0,-7065.0,-9752.0,-34.0,-9.0,-22.0,15.0,0.0,16.0,8847.0,6313.0,-6671.0,-10286.0,-23.0,1.0,-1.0,1.0
2022-05-23 16:13:22.592124-07:00,2230.1,587.5,1385.7,1505.1,1070.3,1227.5,1452.5,1625.6,3429.8,3426.2,1511.5,1369.4,0.7,3427.4,1131.4,1530.1,3423.7,3421.3,709.3,1325.0,872.1,590.7,1211.5,1979.6,3429.8,3429.8,801.0,979.9,1531.0,1434.1,1112.1,1073.8,-1.0,-6.0,2.0,7176.0,8480.0,-7068.0,-9751.0,55.0,6.0,-7.0,9.0,-12.0,2.0,8847.0,6319.0,-6671.0,-10283.0,29.0,21.0,-8.0,1.0
2022-05-23 16:13:22.594370-07:00,2230.1,587.5,1382.1,1494.9,1070.3,1227.5,1452.5,1619.9,3429.8,3424.9,1510.6,1369.4,0.7,3427.4,1131.4,1532.9,3432.2,3421.3,709.3,1325.0,866.3,593.9,1209.7,1979.6,3421.3,3429.8,801.0,979.9,1527.3,1429.5,1113.9,1073.8,6.0,3.0,-6.0,7164.0,8489.0,-7080.0,-9743.0,10.0,-4.0,9.0,0.0,0.0,-9.0,8844.0,6326.0,-6674.0,-10279.0,1.0,-1.0,-1.0,1.0
2022-05-23 16:13:22.652387-07:00,2222.9,587.5,1382.1,1494.9,1071.2,1222.2,1455.2,1619.9,3427.4,3424.9,1510.6,1369.4,0.0,3429.8,1131.4,1532.9,3432.2,3432.2,719.2,1319.6,866.3,593.9,1209.7,1982.6,3421.3,3426.2,799.4,979.9,1527.3,1429.5,1113.9,1075.6,7.0,-5.0,11.0,7167.0,8482.0,-7071.0,-9753.0,-50.0,-11.0,-22.0,16.0,-4.0,8.0,8846.0,6318.0,-6670.0,-10285.0,-40.0,-12.0,-1.0,1.0
2022-05-23 16:13:22.682420-07:00,2222.9,588.3,1380.3,1499.5,1071.2,1222.2,1455.2,1609.6,3427.4,3427.4,1506.9,1366.6,0.0,3429.8,1131.4,1527.3,3424.9,3432.2,719.2,1319.6,862.1,593.1,1216.0,1982.6,3429.8,3426.2,799.4,979.9,1534.8,1430.5,1121.7,1075.6,-7.0,-9.0,16.0,7169.0,8479.0,-7060.0,-9762.0,21.0,1.0,-10.0,11.0,-13.0,15.0,8849.0,6315.0,-6666.0,-10287.0,7.0,12.0,-7.0,1.0
2022-05-23 16:13:22.742566-07:00,2234.2,588.3,1380.3,1499.5,1066.0,1239.9,1447.9,1609.6,3423.7,3427.4,1506.9,1366.6,0.0,3418.9,1134.0,1527.3,3424.9,3422.5,711.8,1317.8,862.1,593.1,1216.0,1985.6,3429.8,3423.7,801.0,989.3,1534.8,1430.5,1121.7,1069.5,3.0,3.0,5.0,7162.0,8484.0,-7071.0,-9755.0,35.0,1.0,11.0,5.0,1.0,-1.0,8846.0,6320.0,-6671.0,-10283.0,19.0,3.0,-4.0,1.0
2022-05-23 16:13:22.802541-07:00,2234.2,581.8,1371.2,1502.3,1066.0,1239.9,1451.6,1604.9,3423.7,3429.8,1512.5,1360.3,0.0,3418.9,1127.0,1537.6,3428.6,3420.1,711.8,1317.8,861.2,586.7,1208.9,1985.6,3428.6,3422.5,801.0,989.3,1524.5,1427.7,1122.6,1069.5,6.0,0.0,6.0,7161.0,8483.0,-7077.0,-9752.0,4.0,-12.0,16.0,12.0,-4.0,2.0,8845.0,6322.0,-6672.0,-10282.0,9.0,-5.0,-3.0,1.0
2022-05-23 16:13:22.832316-07:00,2218.8,588.3,1371.2,1502.3,1072.1,1227.5,1451.6,1604.9,3439.5,3437.0,1512.5,1360.3,0.0,3423.7,1127.0,1537.6,3428.6,3420.1,715.9,1320.5,861.2,586.7,1209.7,1982.6,3428.6,3422.5,796.9,980.7,1524.5,1427.7,1117.4,1075.6,-4.0,-9.0,3.0,7159.0,8485.0,-7081.0,-9749.0,12.0,-3.0,-4.0,9.0,-5.0,9.0,8844.0,6323.0,-6674.0,-10281.0,-3.0,-6.0,-6.0,1.0
2022-05-23 16:13:22.922929-07:00,2218.8,588.3,1378.5,1513.4,1072.1,1227.5,1447.0,1600.2,3439.5,3437.0,1517.1,1375.7,0.0,3423.7,1132.2,1532.9,3424.9,3426.2,715.9,1320.5,861.2,595.5,1209.7,1982.6,3434.6,3429.8,796.9,980.7,1529.2,1429.5,1117.4,1075.6,4.0,-7.0,13.0,7156.0,8480.0,-7084.0,-9753.0,11.0,-12.0,2.0,13.0,-10.0,7.0,8844.0,6323.0,-6674.0,-10281.0,0.0,3.0,-3.0,1.0
2022-05-23 16:13:22.952445-07:00,2208.6,591.5,1378.5,1513.4,1065.1,1229.3,1447.0,1600.2,3426.2,3429.8,1517.1,1375.7,0.0,3437.0,1132.2,1532.9,3424.9,3426.2,711.0,1323.2,861.2,595.5,1210.6,1976.6,3434.6,3429.8,803.5,986.7,1529.2,1429.5,1115.6,1077.3,0.0,-4.0,7.0,7152.0,8486.0,-7090.0,-9747.0,30.0,15.0,8.0,6.0,-2.0,3.0,8842.0,6329.0,-6677.0,-10277.0,22.0,10.0,1.0,1.0
2022-05-23 16:13:22.982673-07:00,2208.6,591.5,1380.3,1504.1,1065.1,1229.3,1441.5,1599.3,3426.2,3429.8,1506.9,1370.3,0.0,3437.0,1135.7,1525.5,3424.9,3427.4,711.0,1323.2,864.6,592.3,1210.6,1976.6,3427.4,3431.0,803.5,986.7,1519.9,1436.0,1115.6,1077.3,0.0,-1.0,0.0,7149.0,8491.0,-7093.0,-9743.0,5.0,-13.0,4.0,4.0,-1.0,5.0,8843.0,6332.0,-6677.0,-10275.0,8.0,1.0,-5.0,1.0
2022-05-23 16:13:23.042546-07:00,2226.0,593.9,1383.9,1504.1,1070.3,1229.3,1441.5,1599.3,3432.2,3424.9,1508.8,1370.3,0.0,3421.3,1135.7,1525.5,3424.9,3427.4,712.6,1317.8,864.6,596.3,1205.3,1982.6,3427.4,3431.0,801.9,985.9,1519.9,1436.0,1114.7,1072.1,8.0,-4.0,10.0,7148.0,8488.0,-7095.0,-9745.0,19.0,-12.0,9.0,15.0,-9.0,2.0,8841.0,6334.0,-6679.0,-10273.0,24.0,8.0,-6.0,1.0
2022-05-23 16:13:23.102537-07:00,2226.0,593.9,1383.9,1507.8,1070.3,1223.9,1447.0,1593.6,3432.2,3424.9,1508.8,1369.4,0.0,3422.5,1128.7,1527.3,3426.2,3421.3,716.7,1317.8,861.2,596.3,1205.3,1982.6,3434.6,3429.8,800.2,985.9,1525.5,1436.0,1114.7,1072.1,2.0,0.0,10.0,7142.0,8490.0,-7103.0,-9742.0,50.0,-17.0,4.0,12.0,-7.0,9.0,8838.0,6344.0,-6683.0,-10267.0,29.0,17.0,-11.0,1.0
2022-05-23 16:13:23.132683-07:00,2216.8,595.5,1383.0,1507.8,1069.5,1223.9,1447.0,1593.6,3428.6,3420.1,1510.6,1369.4,0.0,3422.5,1128.7,1527.3,3426.2,3421.3,716.7,1317.8,861.2,592.3,1208.0,1976.6,3434.6,3429.8,800.2,990.2,1525.5,1432.3,1123.5,1077.3,8.0,0.0,6.0,7133.0,8495.0,-7114.0,-9736.0,21.0,12.0,7.0,6.0,0.0,1.0,8837.0,6349.0,-6685.0,-10264.0,7.0,3.0,2.0,1.0
2022-05-23 16:13:23.192165-07:00,2216.8,595.5,1383.0,1515.3,1069.5,1239.1,1442.4,1598.3,3428.6,3420.1,1510.6,1367.6,0.0,3422.5,1126.1,1523.6,3418.9,3429.8,711.0,1317.8,865.4,592.3,1208.0,1976.6,3423.7,3422.5,799.4,990.2,1523.6,1432.3,1123.5,1077.3,6.0,-2.0,1.0,7129.0,8500.0,-7119.0,-9731.0,20.0,6.0,7.0,8.0,-6.0,3.0,8837.0,6350.0,-6685.0,-10263.0,8.0,10.0,-1.0,1.0
2022-05-23 16:13:23.252459-07:00,2221.9,589.9,1383.9,1515.3,1063.4,1239.1,1442.4,1598.3,3431.0,3422.5,1511.5,1367.6,0.0,3422.5,1126.1,1523.6,3418.9,3429.8,711.0,1321.4,865.4,594.7,1208.9,1987.5,3423.7,3422.5,799.4,985.0,1523.6,1434.1,1126.1,1079.0,4.0,-3.0,8.0,7128.0,8501.0,-7122.0,-9729.0,17.0,-6.0,2.0,12.0,-4.0,1.0,8837.0,6350.0,-6685.0,-10263.0,9.0,5.0,-2.0,1.0
2022-05-23 16:13:23.311830-07:00,2221.9,589.9,1383.9,1507.8,1063.4,1230.2,1448.8,1592.7,3431.0,3422.5,1511.5,1371.2,0.0,3434.6,1133.1,1527.3,3418.9,3420.1,715.1,1321.4,862.1,594.7,1208.9,1987.5,3431.0,3429.8,806.0,985.0,1518.0,1434.1,1126.1,1079.0,3.0,2.0,8.0,7121.0,8502.0,-7130.0,-9727.0,32.0,-11.0,8.0,4.0,4.0,5.0,8837.0,6355.0,-6681.0,-10263.0,8.0,13.0,-18.0,1.0
2022-05-23 16:13:23.341988-07:00,2212.7,582.6,1383.0,1505.1,1048.7,1230.2,1448.8,1592.7,3423.7,3423.7,1513.4,1369.4,0.0,3434.6,1133.1,1527.3,3418.9,3420.1,715.1,1307.0,860.4,588.3,1208.0,1976.6,3431.0,3429.8,806.0,991.9,1523.6,1429.5,1120.9,1066.0,6.0,0.0,6.0,7121.0,8500.0,-7135.0,-9724.0,-7.0,-10.0,11.0,7.0,-3.0,-2.0,8836.0,6355.0,-6681.0,-10264.0,-2.0,4.0,-1.0,1.0
2022-05-23 16:13:23.402448-07:00,2212.7,582.6,1383.0,1505.1,1063.4,1231.0,1450.6,1591.7,3423.7,3423.7,1513.4,1369.4,0.0,3421.3,1131.4,1528.3,3417.7,3421.3,712.6,1319.6,860.4,588.3,1208.0,1976.6,3424.9,3428.6,802.7,991.0,1523.6,1429.5,1120.9,1066.0,5.0,-4.0,12.0,7122.0,8497.0,-7137.0,-9726.0,9.0,-10.0,2.0,13.0,-7.0,3.0,8836.0,6355.0,-6681.0,-10264.0,-2.0,2.0,-4.0,1.0
2022-05-23 16:13:23.432746-07:00,2215.7,593.1,1391.2,1509.7,1063.4,1231.0,1450.6,1591.7,3427.4,3429.8,1502.3,1371.2,0.0,3421.3,1131.4,1528.3,3417.7,3421.3,712.6,1319.6,865.4,585.1,1212.4,1985.6,3424.9,3428.6,802.7,991.0,1522.7,1427.7,1126.1,1070.3,6.0,-6.0,16.0,7122.0,8495.0,-7137.0,-9727.0,28.0,5.0,3.0,15.0,-9.0,3.0,8836.0,6355.0,-6681.0,-10264.0,5.0,8.0,-1.0,1.0
2022-05-23 16:13:23.492155-07:00,2215.7,593.1,1391.2,1509.7,1062.5,1230.2,1448.8,1589.9,3427.4,3429.8,1502.3,1371.2,0.0,3424.9,1137.5,1528.3,3427.4,3429.8,712.6,1315.1,865.4,585.1,1212.4,1985.6,3426.2,3434.6,798.5,988.5,1522.7,1427.7,1126.1,1070.3,-3.0,1.0,-2.0,7119.0,8501.0,-7145.0,-9718.0,19.0,0.0,18.0,-1.0,-2.0,2.0,8836.0,6364.0,-6681.0,-10257.0,14.0,13.0,-1.0,1.0
2022-05-23 16:13:23.552424-07:00,2212.7,582.6,1376.6,1514.3,1062.5,1230.2,1448.8,1589.9,3429.8,3434.6,1509.7,1369.4,0.0,3424.9,1137.5,1528.3,3427.4,3429.8,712.6,1315.1,862.9,589.9,1208.0,1986.6,3426.2,3434.6,798.5,988.5,1530.1,1425.9,1113.9,1064.3,5.0,0.0,0.0,7122.0,8498.0,-7146.0,-9718.0,-38.0,-8.0,-1.0,4.0,0.0,-1.0,8835.0,6365.0,-6683.0,-10257.0,-9.0,-11.0,-2.0,1.0
2022-05-23 16:13:23.582612-07:00,2217.8,582.6,1376.6,1514.3,1066.9,1232.8,1448.8,1582.4,3426.2,3434.6,1509.7,1369.4,0.0,3424.9,1129.6,1533.8,3421.3,3429.8,710.1,1318.7,862.9,589.9,1208.0,1980.6,3416.5,3432.2,798.5,988.5,1530.1,1425.9,1113.9,1064.3,14.0,-3.0,14.0,7132.0,8487.0,-7134.0,-9728.0,-60.0,-9.0,-8.0,16.0,-6.0,2.0,8836.0,6355.0,-6681.0,-10264.0,-29.0,-18.0,2.0,1.0
2022-05-23 16:13:23.642159-07:00,2217.8,590.7,1385.7,1507.8,1066.9,1232.8,1448.8,1587.1,3426.2,3426.2,1515.3,1369.4,0.0,3424.9,1129.6,1530.1,3429.8,3429.8,710.1,1318.7,865.4,593.9,1210.6,1980.6,3418.9,3432.2,798.5,988.5,1521.8,1431.4,1120.0,1064.3,5.0,-7.0,16.0,7139.0,8481.0,-7123.0,-9736.0,-2.0,5.0,-11.0,10.0,-8.0,3.0,8837.0,6347.0,-6678.0,-10269.0,-7.0,-10.0,-2.0,1.0
2022-05-23 16:13:23.732525-07:00,2208.6,590.7,1385.7,1507.8,1050.4,1235.5,1438.7,1587.1,3433.4,3426.2,1515.3,1369.4,0.0,3434.6,1127.9,1530.1,3429.8,3426.2,712.6,1307.9,865.4,593.9,1210.6,1978.6,3418.9,3426.2,793.5,985.9,1521.8,1431.4,1120.0,1072.1,0.0,-1.0,5.0,7135.0,8484.0,-7125.0,-9735.0,19.0,0.0,5.0,6.0,-4.0,3.0,8836.0,6349.0,-6680.0,-10268.0,18.0,5.0,-4.0,1.0
2022-05-23 16:13:23.733984-07:00,2208.6,582.6,1373.9,1503.2,1050.4,1235.5,1438.7,1581.4,3433.4,3423.7,1504.1,1375.7,0.0,3434.6,1127.9,1527.3,3420.1,3426.2,712.6,1307.9,859.5,589.1,1211.5,1978.6,3428.6,3426.2,793.5,985.9,1530.1,1436.9,1122.6,1072.1,1.0,0.0,1.0,7133.0,8486.0,-7128.0,-9733.0,4.0,3.0,9.0,11.0,0.0,3.0,8835.0,6351.0,-6682.0,-10267.0,8.0,4.0,-4.0,1.0
2022-05-23 16:13:23.791904-07:00,2219.8,582.6,1373.9,1503.2,1071.2,1229.3,1440.5,1581.4,3429.8,3423.7,1504.1,1375.7,0.0,3437.0,1131.4,1527.3,3420.1,3423.7,710.1,1309.7,859.5,589.1,1211.5,1974.6,3428.6,3429.8,796.0,988.5,1530.1,1436.9,1122.6,1068.6,8.0,-3.0,9.0,7134.0,8483.0,-7127.0,-9736.0,-11.0,-5.0,-6.0,9.0,-4.0,3.0,8835.0,6351.0,-6682.0,-10267.0,-9.0,-6.0,-6.0,1.0
2022-05-23 16:13:23.852545-07:00,2219.8,589.1,1375.7,1515.3,1071.2,1229.3,1443.3,1582.4,3429.8,3431.0,1509.7,1370.3,0.0,3437.0,1127.9,1532.9,3432.2,3426.2,710.1,1309.7,866.3,591.5,1206.2,1974.6,3434.6,3432.2,796.0,988.5,1522.7,1435.0,1121.7,1068.6,2.0,-7.0,7.0,7131.0,8479.0,-7129.0,-9740.0,-1.0,-26.0,6.0,9.0,0.0,10.0,8834.0,6351.0,-6681.0,-10268.0,1.0,-8.0,-10.0,1.0
2022-05-23 16:13:23.912039-07:00,2213.7,581.8,1375.7,1515.3,1072.9,1223.9,1443.3,1582.4,3429.8,3426.2,1509.7,1370.3,0.0,3423.7,1127.9,1532.9,3432.2,3426.2,709.3,1320.5,866.3,591.5,1216.0,1978.6,3434.6,3432.2,796.9,988.5,1522.7,1435.0,1117.4,1061.7,4.0,1.0,1.0,7131.0,8471.0,-7135.0,-9743.0,-17.0,-18.0,8.0,11.0,-2.0,3.0,8832.0,6348.0,-6683.0,-10270.0,-12.0,-16.0,-6.0,1.0
2022-05-23 16:13:23.942612-07:00,2213.7,581.8,1379.4,1510.6,1072.9,1223.9,1432.3,1582.4,3429.8,3426.2,1510.6,1374.8,0.0,3423.7,1128.7,1528.3,3414.1,3422.5,709.3,1320.5,860.4,590.7,1216.0,1978.6,3427.4,3426.2,796.9,988.5,1517.1,1430.5,1117.4,1061.7,9.0,-1.0,10.0,7131.0,8453.0,-7133.0,-9759.0,-45.0,-50.0,1.0,10.0,-1.0,2.0,8832.0,6339.0,-6681.0,-10276.0,-23.0,-16.0,-5.0,1.0
2022-05-23 16:13:24.061926-07:00,2195.2,582.6,1379.4,1510.6,1060.8,1225.7,1432.3,1582.4,3428.6,3421.3,1510.6,1374.8,0.0,3429.8,1128.7,1528.3,3414.1,3422.5,705.2,1319.6,860.4,590.7,1211.5,1978.6,3427.4,3426.2,809.4,986.7,1517.1,1430.5,1140.1,1066.0,7.0,-8.0,19.0,7129.0,8437.0,-7129.0,-9778.0,-33.0,-27.0,-19.0,6.0,-10.0,5.0,8836.0,6330.0,-6674.0,-10283.0,-37.0,-7.0,-1.0,1.0
2022-05-23 16:13:24.092319-07:00,2195.2,582.6,1373.9,1502.3,1060.8,1225.7,1436.0,1590.8,3428.6,3421.3,1512.5,1368.5,0.0,3429.8,1134.9,1521.8,3431.0,3428.6,705.2,1319.6,861.2,584.3,1211.5,1978.6,3431.0,3432.2,809.4,986.7,1520.8,1433.2,1140.1,1066.0,0.0,-2.0,10.0,7130.0,8433.0,-7126.0,-9782.0,4.0,1.0,5.0,3.0,-5.0,6.0,8837.0,6329.0,-6672.0,-10284.0,11.0,3.0,-3.0,1.0
2022-05-23 16:13:24.094813-07:00,2215.7,585.1,1373.9,1502.3,1059.1,1234.6,1436.0,1590.8,3409.3,3422.5,1512.5,1368.5,0.0,3418.9,1134.9,1521.8,3431.0,3428.6,714.2,1314.2,861.2,584.3,1211.5,1980.6,3431.0,3432.2,804.4,983.3,1520.8,1433.2,1121.7,1070.3,14.0,2.0,2.0,7132.0,8432.0,-7130.0,-9779.0,-7.0,-6.0,10.0,9.0,-1.0,-3.0,8835.0,6330.0,-6675.0,-10283.0,-2.0,-10.0,-2.0,1.0
2022-05-23 16:13:24.152814-07:00,2215.7,585.1,1375.7,1510.6,1059.1,1227.5,1439.6,1573.9,3409.3,3422.5,1512.5,1365.7,0.0,3429.8,1120.0,1525.5,3429.8,3426.2,711.8,1314.2,861.2,590.7,1211.5,1980.6,3427.4,3434.6,795.2,983.3,1521.8,1429.5,1121.7,1070.3,1.0,-3.0,9.0,7139.0,8426.0,-7122.0,-9786.0,-34.0,-11.0,-8.0,11.0,-6.0,5.0,8836.0,6324.0,-6673.0,-10287.0,-15.0,-10.0,-5.0,1.0
2022-05-23 16:13:24.182482-07:00,2211.6,589.1,1375.7,1510.6,1061.7,1227.5,1439.6,1573.9,3418.9,3424.9,1509.7,1365.7,0.0,3429.8,1120.0,1525.5,3429.8,3426.2,711.8,1311.5,861.2,586.7,1202.7,1977.6,3427.4,3434.6,795.2,980.7,1521.8,1434.1,1123.5,1067.7,8.0,-5.0,16.0,7142.0,8420.0,-7118.0,-9791.0,-11.0,7.0,-6.0,9.0,-4.0,5.0,8836.0,6322.0,-6674.0,-10289.0,-6.0,-5.0,-2.0,1.0
2022-05-23 16:13:24.272252-07:00,2211.6,589.1,1375.7,1506.0,1061.7,1232.8,1436.0,1578.6,3418.9,3424.9,1509.7,1367.6,0.0,3428.6,1132.2,1521.8,3426.2,3418.9,709.3,1311.5,869.6,586.7,1202.7,1977.6,3423.7,3420.1,792.7,980.7,1525.5,1434.1,1123.5,1067.7,6.0,5.0,7.0,7145.0,8418.0,-7114.0,-9793.0,-23.0,-13.0,1.0,11.0,-6.0,-1.0,8836.0,6321.0,-6673.0,-10289.0,-12.0,-9.0,-4.0,1.0
2022-05-23 16:13:24.273584-07:00,2200.4,587.5,1373.9,1506.0,1058.2,1232.8,1436.0,1578.6,3429.8,3428.6,1517.1,1367.6,0.0,3428.6,1132.2,1521.8,3426.2,3418.9,709.3,1315.1,869.6,589.1,1210.6,1981.6,3423.7,3420.1,792.7,984.2,1525.5,1431.4,1126.1,1060.8,7.0,5.0,0.0,7147.0,8406.0,-7103.0,-9810.0,-66.0,-26.0,-18.0,8.0,1.0,0.0,8840.0,6311.0,-6666.0,-10296.0,-78.0,-20.0,6.0,1.0
2022-05-23 16:13:24.361842-07:00,2200.4,587.5,1373.9,1499.5,1058.2,1225.7,1442.4,1572.1,3429.8,3428.6,1517.1,1371.2,0.0,3428.6,1130.5,1522.7,3422.5,3428.6,714.2,1315.1,860.4,589.1,1210.6,1981.6,3431.0,3428.6,798.5,984.2,1512.5,1431.4,1126.1,1060.8,2.0,7.0,-21.0,7157.0,8373.0,-7060.0,-9863.0,-246.0,-84.0,-91.0,0.0,0.0,-4.0,8865.0,6265.0,-6632.0,-10325.0,-290.0,-54.0,32.0,1.0
2022-05-23 16:13:24.392138-07:00,2202.4,581.8,1366.6,1499.5,1059.1,1225.7,1442.4,1572.1,3422.5,3427.4,1515.3,1373.0,0.0,3428.6,1130.5,1522.7,3422.5,3428.6,714.2,1307.9,862.9,589.1,1206.2,1975.6,3431.0,3428.6,798.5,984.2,1522.7,1441.5,1115.6,1068.6,2.0,2.0,-9.0,7182.0,8288.0,-6970.0,-9979.0,-426.0,-159.0,-112.0,6.0,3.0,-4.0,8919.0,6155.0,-6559.0,-10392.0,-408.0,-107.0,36.0,1.0
2022-05-23 16:13:24.422286-07:00,2202.4,581.8,1366.6,1499.5,1063.4,1235.5,1432.3,1587.1,3422.5,3427.4,1515.3,1373.0,0.0,3424.9,1125.2,1522.7,3420.1,3429.8,711.8,1309.7,862.9,589.1,1206.2,1975.6,3424.9,3429.8,792.7,983.3,1522.7,1441.5,1115.6,1068.6,6.0,-21.0,28.0,7219.0,8184.0,-6871.0,-10107.0,-351.0,-140.0,-78.0,12.0,-6.0,15.0,8974.0,6027.0,-6482.0,-10468.0,-306.0,-91.0,22.0,1.0
2022-05-23 16:13:24.542448-07:00,2208.6,577.0,1363.0,1495.8,1063.4,1235.5,1432.3,1587.1,3427.4,3429.8,1512.5,1369.4,0.0,3424.9,1125.2,1522.7,3420.1,3429.8,711.8,1309.7,862.9,591.5,1204.4,1974.6,3424.9,3429.8,792.7,983.3,1519.9,1433.2,1121.7,1077.3,7.0,-21.0,58.0,7251.0,8118.0,-6827.0,-10166.0,-113.0,-46.0,52.0,22.0,-37.0,33.0,8996.0,5959.0,-6446.0,-10510.0,-10.0,-23.0,5.0,1.0
2022-05-23 16:13:24.543787-07:00,2208.6,577.0,1363.0,1495.8,1064.3,1220.4,1429.5,1577.7,3427.4,3429.8,1512.5,1369.4,0.0,3424.9,1127.9,1523.6,3422.5,3423.7,707.7,1315.1,862.9,591.5,1204.4,1974.6,3421.3,3418.9,787.7,980.7,1519.9,1433.2,1121.7,1077.3,0.0,-10.0,19.0,7253.0,8117.0,-6839.0,-10158.0,84.0,3.0,19.0,21.0,-4.0,16.0,9006.0,5945.0,-6444.0,-10509.0,20.0,36.0,2.0,1.0
2022-05-23 16:13:24.632412-07:00,2204.5,582.6,1367.6,1505.1,1064.3,1220.4,1429.5,1577.7,3424.9,3420.1,1510.6,1371.2,0.0,3424.9,1127.9,1523.6,3422.5,3423.7,707.7,1315.1,862.1,587.5,1206.2,1973.7,3421.3,3418.9,787.7,980.7,1525.5,1433.2,1120.9,1091.2,2.0,6.0,-9.0,7238.0,8114.0,-6875.0,-10146.0,65.0,-59.0,24.0,1.0,-3.0,-5.0,9015.0,5954.0,-6437.0,-10501.0,-40.0,39.0,3.0,1.0
2022-05-23 16:13:24.633893-07:00,2204.5,582.6,1367.6,1505.1,1059.1,1230.2,1430.5,1571.1,3424.9,3420.1,1510.6,1371.2,0.0,3433.4,1128.7,1522.7,3434.6,3421.3,709.3,1313.3,862.1,587.5,1206.2,1973.7,3423.7,3426.2,786.1,985.0,1525.5,1433.2,1120.9,1091.2,21.0,15.0,-5.0,7214.0,8090.0,-6890.0,-10173.0,-52.0,-105.0,-85.0,2.0,-9.0,-25.0,9030.0,5939.0,-6411.0,-10513.0,-100.0,-29.0,-10.0,1.0
2022-05-23 16:13:24.692163-07:00,2205.5,585.1,1367.6,1489.3,1059.1,1230.2,1430.5,1575.8,3418.9,3418.9,1509.7,1363.0,0.0,3433.4,1128.7,1521.8,3421.3,3421.3,709.3,1313.3,861.2,586.7,1210.6,1977.6,3434.6,3426.2,786.1,985.0,1515.3,1430.5,1118.2,1075.6,13.0,-15.0,30.0,7161.0,8130.0,-6855.0,-10201.0,73.0,55.0,-220.0,13.0,-6.0,12.0,9028.0,5924.0,-6397.0,-10531.0,-6.0,-4.0,-37.0,1.0
2022-05-23 16:13:24.722321-07:00,2203.4,585.1,1367.6,1489.3,1071.2,1222.2,1430.5,1575.8,3421.3,3418.9,1509.7,1363.0,0.0,3429.8,1127.9,1521.8,3421.3,3424.9,709.3,1311.5,861.2,586.7,1210.6,1970.7,3434.6,3429.8,789.4,987.6,1515.3,1430.5,1118.2,1077.3,-8.0,-17.0,9.0,7117.0,8189.0,-6840.0,-10195.0,73.0,58.0,-72.0,1.0,0.0,7.0,9018.0,5933.0,-6399.0,-10534.0,38.0,3.0,-11.0,1.0
2022-05-23 16:13:24.783133-07:00,2203.4,573.8,1367.6,1504.1,1071.2,1222.2,1430.5,1576.8,3421.3,3426.2,1507.8,1366.6,0.0,3429.8,1127.9,1532.0,3423.7,3424.9,709.3,1311.5,857.9,587.5,1207.1,1970.7,3423.7,3429.8,789.4,987.6,1519.0,1426.8,1119.1,1077.3,5.0,10.0,0.0,7113.0,8215.0,-6826.0,-10186.0,-7.0,70.0,-35.0,-1.0,3.0,-4.0,9011.0,5943.0,-6410.0,-10528.0,25.0,-9.0,-2.0,1.0
2022-05-23 16:13:24.842376-07:00,2200.4,573.8,1367.6,1504.1,1067.7,1225.7,1427.7,1576.8,3428.6,3426.2,1507.8,1366.6,0.0,3427.4,1127.0,1532.0,3423.7,3421.3,706.9,1306.1,857.9,587.5,1207.1,1982.6,3423.7,3432.2,788.6,985.9,1519.0,1426.8,1119.1,1070.3,-1.0,-2.0,1.0,7125.0,8220.0,-6796.0,-10194.0,-96.0,1.0,-17.0,18.0,-6.0,12.0,9008.0,5939.0,-6415.0,-10529.0,-39.0,-25.0,1.0,1.0
2022-05-23 16:13:24.872695-07:00,2200.4,585.9,1365.7,1501.4,1067.7,1225.7,1427.7,1561.8,3428.6,3422.5,1511.5,1371.2,0.0,3427.4,1127.0,1527.3,3417.7,3421.3,706.9,1306.1,863.7,584.3,1202.7,1982.6,3426.2,3432.2,788.6,985.9,1516.2,1436.0,1122.6,1070.3,19.0,-9.0,34.0,7133.0,8208.0,-6770.0,-10215.0,-38.0,20.0,-42.0,19.0,-12.0,8.0,9015.0,5920.0,-6408.0,-10538.0,-16.0,10.0,3.0,1.0
2022-05-23 16:13:24.932749-07:00,2197.3,577.0,1365.7,1501.4,1060.8,1219.5,1431.4,1561.8,3414.1,3426.2,1511.5,1371.2,0.0,3424.9,1125.2,1527.3,3417.7,3418.9,706.9,1311.5,863.7,584.3,1210.6,1965.7,3426.2,3439.5,798.5,985.9,1516.2,1436.0,1124.4,1062.5,-1.0,-2.0,9.0,7134.0,8220.0,-6756.0,-10214.0,-12.0,23.0,-11.0,2.0,-1.0,6.0,9022.0,5920.0,-6403.0,-10535.0,-18.0,28.0,15.0,1.0
2022-05-23 16:13:25.022220-07:00,2197.3,577.0,1374.8,1506.9,1060.8,1219.5,1419.5,1562.7,3414.1,3426.2,1514.3,1368.5,0.0,3424.9,1129.6,1525.5,3416.5,3421.3,706.9,1311.5,864.6,591.5,1210.6,1965.7,3428.6,3418.9,798.5,985.9,1515.3,1437.8,1124.4,1062.5,3.0,-3.0,2.0,7146.0,8213.0,-6739.0,-10223.0,-80.0,4.0,-15.0,-2.0,-9.0,-2.0,9033.0,5914.0,-6393.0,-10536.0,-48.0,-5.0,7.0,1.0
2022-05-23 16:13:25.053076-07:00,2217.8,580.2,1374.8,1506.9,1057.3,1223.0,1419.5,1562.7,3414.1,3422.5,1514.3,1368.5,0.0,3421.3,1129.6,1525.5,3416.5,3421.3,709.3,1302.5,864.6,591.5,1203.5,1974.6,3428.6,3418.9,781.9,977.3,1515.3,1437.8,1128.7,1067.7,9.0,-5.0,17.0,7170.0,8191.0,-6707.0,-10245.0,-125.0,0.0,2.0,11.0,-7.0,3.0,9039.0,5893.0,-6381.0,-10550.0,-59.0,-28.0,7.0,1.0
2022-05-23 16:13:25.084638-07:00,2217.8,580.2,1364.8,1494.0,1057.3,1223.0,1423.1,1570.2,3414.1,3422.5,1511.5,1366.6,0.0,3421.3,1129.6,1530.1,3416.5,3422.5,709.3,1302.5,864.6,591.5,1203.5,1974.6,3429.8,3421.3,781.9,977.3,1516.2,1436.9,1128.7,1067.7,2.0,-8.0,26.0,7196.0,8169.0,-6676.0,-10264.0,-72.0,-6.0,9.0,15.0,-8.0,12.0,9046.0,5871.0,-6373.0,-10561.0,-36.0,-15.0,3.0,1.0
2022-05-23 16:13:25.142729-07:00,2199.3,577.8,1364.8,1494.0,1055.6,1217.7,1423.1,1570.2,3429.8,3426.2,1511.5,1366.6,0.0,3439.5,1129.6,1530.1,3416.5,3422.5,708.5,1313.3,864.6,591.5,1200.9,1972.7,3429.8,3421.3,783.6,981.6,1516.2,1436.9,1111.2,1073.8,10.0,-7.0,25.0,7212.0,8152.0,-6668.0,-10272.0,-1.0,2.0,23.0,17.0,-11.0,3.0,9052.0,5861.0,-6368.0,-10564.0,16.0,16.0,1.0,1.0
2022-05-23 16:13:25.172883-07:00,2199.3,577.8,1363.0,1495.8,1055.6,1217.7,1411.3,1567.4,3429.8,3426.2,1507.8,1365.7,0.0,3439.5,1132.2,1530.1,3420.1,3420.1,708.5,1313.3,862.1,591.5,1200.9,1972.7,3424.9,3428.6,783.6,981.6,1519.0,1433.2,1111.2,1073.8,7.0,3.0,0.0,7215.0,8155.0,-6673.0,-10264.0,12.0,10.0,4.0,5.0,-2.0,2.0,9051.0,5867.0,-6372.0,-10559.0,10.0,4.0,-4.0,1.0
2022-05-23 16:13:25.232293-07:00,2199.3,572.2,1365.7,1495.8,1062.5,1224.8,1411.3,1567.4,3428.6,3426.2,1505.1,1365.7,0.0,3427.4,1132.2,1530.1,3420.1,3420.1,705.2,1330.5,862.1,589.1,1202.7,1973.7,3424.9,3428.6,778.6,983.3,1519.0,1435.0,1120.9,1059.1,3.0,0.0,17.0,7216.0,8154.0,-6673.0,-10264.0,-1.0,-6.0,3.0,6.0,-7.0,4.0,9051.0,5867.0,-6373.0,-10558.0,2.0,-7.0,-6.0,1.0
2022-05-23 16:13:25.382364-07:00,2199.3,572.2,1365.7,1500.4,1062.5,1215.1,1420.4,1558.1,3428.6,3426.2,1505.1,1368.5,0.0,3426.2,1125.2,1519.0,3418.9,3424.9,708.5,1330.5,865.4,589.1,1202.7,1973.7,3424.9,3431.0,798.5,983.3,1515.3,1435.0,1120.9,1059.1,10.0,1.0,13.0,7217.0,8152.0,-6674.0,-10264.0,15.0,9.0,-1.0,8.0,-7.0,-2.0,9051.0,5867.0,-6375.0,-10557.0,5.0,2.0,-1.0,1.0
2022-05-23 16:13:25.442834-07:00,2196.3,572.2,1375.7,1500.4,1059.1,1215.1,1420.4,1558.1,3432.2,3429.8,1511.5,1368.5,0.0,3426.2,1125.2,1519.0,3418.9,3424.9,708.5,1317.8,865.4,585.9,1205.3,1976.6,3424.9,3431.0,798.5,985.0,1515.3,1432.3,1127.9,1072.1,5.0,-4.0,10.0,7218.0,8152.0,-6674.0,-10264.0,-5.0,-10.0,-3.0,9.0,-7.0,-1.0,9051.0,5867.0,-6375.0,-10557.0,-4.0,-3.0,-4.0,1.0
2022-05-23 16:13:25.445281-07:00,2196.3,572.2,1375.7,1494.9,1059.1,1220.4,1424.1,1559.0,3432.2,3429.8,1511.5,1363.9,0.0,3423.7,1120.0,1525.5,3429.8,3417.7,708.5,1317.8,865.4,585.9,1205.3,1976.6,3432.2,3420.1,786.9,985.0,1524.5,1432.3,1127.9,1072.1,5.0,3.0,19.0,7217.0,8145.0,-6672.0,-10270.0,-13.0,-14.0,-17.0,8.0,-4.0,4.0,9054.0,5862.0,-6372.0,-10559.0,-22.0,7.0,-2.0,1.0
2022-05-23 16:13:25.446237-07:00,2198.3,581.8,1354.0,1494.9,1057.3,1220.4,1424.1,1559.0,3417.7,3418.9,1496.7,1363.9,0.0,3423.7,1120.0,1525.5,3429.8,3417.7,708.5,1310.6,865.4,585.1,1200.9,1974.6,3432.2,3420.1,786.9,981.6,1524.5,1436.0,1122.6,1062.5,2.0,-7.0,24.0,7218.0,8145.0,-6668.0,-10272.0,28.0,17.0,11.0,12.0,-4.0,9.0,9060.0,5861.0,-6366.0,-10558.0,13.0,31.0,8.0,1.0
2022-05-23 16:13:25.472625-07:00,2198.3,581.8,1354.0,1490.3,1055.6,1216.8,1426.8,1554.3,3417.7,3418.9,1496.7,1360.3,0.0,3424.9,1128.7,1518.0,3423.7,3429.8,708.5,1330.5,865.4,585.1,1200.9,1974.6,3426.2,3428.6,789.4,976.5,1515.3,1436.0,1122.6,1062.5,5.0,-2.0,9.0,7224.0,8156.0,-6667.0,-10260.0,21.0,32.0,8.0,9.0,-5.0,3.0,9067.0,5870.0,-6364.0,-10548.0,10.0,33.0,10.0,1.0
2022-05-23 16:13:25.532639-07:00,2191.2,574.6,1370.3,1500.4,1055.6,1216.8,1426.8,1554.3,3417.7,3429.8,1500.4,1364.8,0.0,3424.9,1128.7,1518.0,3423.7,3429.8,708.5,1330.5,865.4,588.3,1198.2,1970.7,3426.2,3428.6,789.4,976.5,1514.3,1425.9,1127.9,1070.3,3.0,-3.0,10.0,7224.0,8161.0,-6669.0,-10256.0,13.0,13.0,-8.0,2.0,-2.0,3.0,9073.0,5878.0,-6358.0,-10542.0,6.0,18.0,3.0,1.0
2022-05-23 16:13:25.592052-07:00,2191.2,574.6,1370.3,1500.4,1050.4,1212.4,1420.4,1567.4,3417.7,3429.8,1500.4,1364.8,0.0,3429.8,1124.4,1526.4,3424.9,3418.9,706.9,1311.5,865.4,588.3,1198.2,1970.7,3423.7,3439.5,782.7,984.2,1514.3,1425.9,1127.9,1070.3,-2.0,0.0,0.0,7225.0,8167.0,-6668.0,-10251.0,0.0,8.0,-2.0,0.0,-7.0,0.0,9074.0,5880.0,-6357.0,-10541.0,3.0,-1.0,0.0,1.0
2022-05-23 16:13:25.622234-07:00,2197.3,573.8,1360.3,1500.4,1050.4,1212.4,1420.4,1567.4,3418.9,3418.9,1510.6,1363.0,0.0,3429.8,1124.4,1526.4,3424.9,3418.9,706.9,1311.5,857.9,589.1,1204.4,1966.7,3423.7,3439.5,782.7,984.2,1509.7,1436.9,1120.9,1063.4,1.0,-4.0,11.0,7228.0,8163.0,-6665.0,-10254.0,-11.0,-15.0,6.0,5.0,-7.0,2.0,9072.0,5875.0,-6360.0,-10544.0,-3.0,-20.0,-9.0,1.0
2022-05-23 16:13:25.682176-07:00,2197.3,573.8,1360.3,1500.4,1063.4,1213.3,1417.6,1559.0,3418.9,3418.9,1510.6,1363.0,0.0,3432.2,1129.6,1522.7,3420.1,3422.5,715.9,1309.7,857.9,589.1,1204.4,1966.7,3428.6,3418.9,778.6,985.0,1509.7,1436.9,1120.9,1063.4,14.0,2.0,17.0,7227.0,8154.0,-6669.0,-10259.0,-2.0,-21.0,-5.0,16.0,-1.0,0.0,9067.0,5869.0,-6365.0,-10548.0,5.0,-23.0,-11.0,1.0
