Time,P0,P1,P2,P3,P4,P5,P6,P7,P8,P9,P10,P11,P12,P13,P14,P15,P16,P17,P18,P19,P20,P21,P22,P23,P24,P25,P26,P27,P28,P29,P30,P31,ECG,AX0,AY0,AZ0,QW0,QX0,QY0,QZ0,GX0,GY0,GZ0,AX1,AY1,AZ1,QW1,QX1,QY1,QZ1,GX1,GY1,GZ1
2022-05-23 16:09:30.905275-07:00,1104.3,731.5,1069.5,970.5,990.2,887.3,1649.2,1261.3,3467.4,3463.7,1120.0,862.1,1524.5,3477.1,1189.4,1104.3,3474.6,3478.3,1506.0,1974.6,2471.7,3410.5,1578.6,3489.2,3477.1,3474.6,647.3,767.8,1912.4,973.1,919.4,919.4,-2.0,5.0,0.0,12338.0,-10218.0,3092.0,1494.0,33.0,-59.0,12.0,-1.0,3.0,-3.0,11661.0,-10451.0,-3213.0,3592.0,41.0,-39.0,1.0,1.0
2022-05-23 16:09:30.964671-07:00,1104.3,731.5,1075.6,969.6,990.2,887.3,1652.0,1263.1,3467.4,3463.7,1119.1,861.2,1524.5,3477.1,1192.9,1099.0,3468.6,3488.0,1506.0,1974.6,2483.4,3397.2,1578.6,3489.2,3475.9,3483.2,647.3,767.8,1912.4,965.4,919.4,919.4,6.0,7.0,14.0,12355.0,-10200.0,3079.0,1505.0,46.0,-33.0,12.0,6.0,5.0,-2.0,11672.0,-10433.0,-3218.0,3604.0,47.0,-13.0,7.0,1.0
2022-05-23 16:09:30.995167-07:00,1106.0,722.5,1075.6,969.6,996.2,882.3,1652.0,1263.1,3467.4,3460.1,1119.1,861.2,1530.1,3468.6,1192.9,1099.0,3468.6,3488.0,1502.3,1963.7,2483.4,3397.2,1571.1,3486.8,3475.9,3483.2,653.8,772.0,1912.4,965.4,922.8,899.1,8.0,9.0,13.0,12360.0,-10194.0,3081.0,1504.0,-4.0,32.0,4.0,4.0,8.0,0.0,11677.0,-10428.0,-3216.0,3605.0,-3.0,10.0,2.0,1.0
2022-05-23 16:09:31.054596-07:00,1106.0,722.5,1075.6,979.9,996.2,882.3,1653.0,1256.9,3467.4,3460.1,1119.1,858.7,1530.1,3468.6,1185.0,1096.4,3468.6,3468.6,1502.3,1963.7,2477.0,3406.8,1571.1,3486.8,3471.0,3469.8,653.8,772.0,1890.9,964.5,922.8,899.1,1.0,5.0,0.0,12352.0,-10202.0,3088.0,1496.0,-31.0,25.0,-13.0,0.0,4.0,-3.0,11670.0,-10438.0,-3215.0,3601.0,-42.0,12.0,-1.0,1.0
2022-05-23 16:09:31.085047-07:00,1106.0,729.0,1089.5,979.9,993.6,886.5,1653.0,1256.9,3456.4,3468.6,1126.1,858.7,1520.8,3461.3,1185.0,1096.4,3468.6,3468.6,1502.3,1976.6,2477.0,3399.6,1572.1,3484.4,3471.0,3469.8,644.0,772.0,1890.9,962.8,926.2,905.0,-1.0,2.0,-10.0,12350.0,-10205.0,3092.0,1489.0,-2.0,7.0,-5.0,-6.0,2.0,-9.0,11664.0,-10444.0,-3217.0,3598.0,-10.0,6.0,1.0,1.0
2022-05-23 16:09:31.145482-07:00,1106.0,729.0,1089.5,973.1,993.6,893.2,1634.1,1256.9,3456.4,3468.6,1126.1,862.9,1520.8,3478.3,1187.6,1104.3,3475.9,3472.2,1502.3,1976.6,2483.4,3399.6,1572.1,3484.4,3480.7,3471.0,650.5,772.0,1905.6,962.8,926.2,905.0,-1.0,4.0,-12.0,12352.0,-10203.0,3093.0,1488.0,21.0,-11.0,0.0,1.0,2.0,-8.0,11666.0,-10442.0,-3216.0,3599.0,21.0,3.0,1.0,1.0
2022-05-23 16:09:31.204396-07:00,1108.6,715.1,1086.8,973.1,995.3,893.2,1634.1,1256.9,3474.6,3462.5,1122.6,862.9,1517.1,3478.3,1187.6,1104.3,3475.9,3472.2,1502.3,1971.7,2483.4,3394.8,1572.1,3494.1,3480.7,3471.0,650.5,768.7,1905.6,966.2,927.9,919.4,4.0,-3.0,4.0,12362.0,-10190.0,3088.0,1495.0,45.0,-26.0,23.0,4.0,3.0,0.0,11675.0,-10432.0,-3213.0,3602.0,53.0,-3.0,1.0,1.0
2022-05-23 16:09:31.234524-07:00,1108.6,715.1,1086.8,985.0,995.3,888.2,1654.9,1257.8,3474.6,3462.5,1122.6,859.5,1517.1,3474.6,1197.4,1099.0,3464.9,3471.0,1505.1,1971.7,2470.6,3394.8,1572.1,3494.1,3479.5,3471.0,646.5,768.7,1904.6,966.2,927.9,919.4,0.0,13.0,9.0,12374.0,-10173.0,3093.0,1502.0,33.0,-9.0,23.0,2.0,8.0,6.0,11691.0,-10415.0,-3208.0,3606.0,44.0,7.0,6.0,1.0
2022-05-23 16:09:31.294967-07:00,1109.5,713.4,1079.0,985.0,997.0,888.2,1654.9,1257.8,3457.6,3461.3,1116.5,859.5,1522.7,3474.6,1197.4,1099.0,3464.9,3471.0,1505.1,1968.7,2470.6,3392.4,1568.3,3499.0,3479.5,3471.0,646.5,769.5,1904.6,958.5,930.5,908.4,4.0,17.0,12.0,12378.0,-10168.0,3099.0,1499.0,-8.0,31.0,-12.0,0.0,4.0,0.0,11696.0,-10413.0,-3200.0,3602.0,-19.0,26.0,0.0,1.0
2022-05-23 16:09:31.354418-07:00,1109.5,713.4,1079.0,977.3,997.0,888.2,1652.0,1256.0,3457.6,3461.3,1116.5,860.4,1522.7,3461.3,1181.5,1113.0,3469.8,3472.2,1501.4,1968.7,2479.1,3392.4,1568.3,3499.0,3474.6,3464.9,648.1,769.5,1912.4,958.5,930.5,908.4,-3.0,10.0,-3.0,12366.0,-10181.0,3109.0,1484.0,-35.0,36.0,-20.0,-1.0,4.0,-2.0,11686.0,-10429.0,-3196.0,3591.0,-51.0,27.0,0.0,1.0
2022-05-23 16:09:31.384863-07:00,1108.6,724.1,1086.8,983.3,995.3,888.2,1652.0,1256.0,3471.0,3479.5,1116.5,859.5,1516.2,3461.3,1181.5,1113.0,3469.8,3472.2,1501.4,1967.7,2478.1,3392.4,1575.8,3495.3,3474.6,3464.9,648.1,768.7,1904.6,971.3,923.7,916.0,0.0,6.0,-9.0,12359.0,-10191.0,3109.0,1473.0,-21.0,10.0,-20.0,-1.0,4.0,-8.0,11678.0,-10440.0,-3195.0,3584.0,-36.0,11.0,-3.0,1.0
2022-05-23 16:09:31.444788-07:00,1108.6,724.1,1086.8,983.3,997.9,888.2,1645.4,1248.0,3471.0,3479.5,1116.5,859.5,1519.0,3467.4,1192.0,1102.5,3466.1,3472.2,1499.5,1965.7,2478.1,3392.4,1575.8,3495.3,3478.3,3475.9,646.5,767.8,1904.6,971.3,923.7,916.0,3.0,-1.0,-7.0,12356.0,-10197.0,3103.0,1467.0,-4.0,-1.0,-15.0,-1.0,2.0,-8.0,11670.0,-10450.0,-3196.0,3580.0,-10.0,0.0,0.0,1.0
2022-05-23 16:09:31.504826-07:00,1106.9,720.0,1094.7,976.5,997.9,888.2,1645.4,1248.0,3467.4,3488.0,1106.0,862.1,1519.0,3467.4,1192.0,1102.5,3466.1,3472.2,1499.5,1965.7,2482.3,3379.2,1573.9,3483.2,3478.3,3475.9,646.5,767.8,1901.6,971.3,927.1,905.0,-1.0,3.0,-9.0,12363.0,-10190.0,3099.0,1468.0,39.0,-26.0,5.0,-2.0,0.0,-1.0,11673.0,-10445.0,-3198.0,3584.0,40.0,-27.0,2.0,1.0
2022-05-23 16:09:31.564671-07:00,1106.9,720.0,1094.7,976.5,998.7,879.7,1641.6,1254.2,3467.4,3488.0,1106.0,862.1,1509.7,3464.9,1191.2,1110.4,3457.6,3475.9,1502.3,1956.8,2482.3,3379.2,1573.9,3483.2,3477.1,3488.0,644.0,767.8,1901.6,971.3,927.1,905.0,2.0,4.0,6.0,12377.0,-10175.0,3085.0,1483.0,33.0,-58.0,13.0,0.0,6.0,0.0,11683.0,-10428.0,-3203.0,3596.0,46.0,-35.0,3.0,1.0
2022-05-23 16:09:31.595251-07:00,1105.1,715.9,1081.6,979.0,998.7,879.7,1641.6,1254.2,3469.8,3469.8,1111.2,862.1,1509.7,3464.9,1191.2,1110.4,3457.6,3475.9,1502.3,1956.8,2483.4,3380.4,1573.0,3485.6,3477.1,3488.0,644.0,767.8,1902.6,967.1,928.8,913.5,4.0,13.0,13.0,12384.0,-10166.0,3081.0,1494.0,5.0,-7.0,8.0,4.0,6.0,1.0,11690.0,-10417.0,-3207.0,3605.0,0.0,-5.0,1.0,1.0
2022-05-23 16:09:31.684540-07:00,1111.2,715.9,1081.6,979.0,1006.5,889.8,1650.2,1262.2,3468.6,3469.8,1111.2,862.1,1520.8,3468.6,1193.8,1103.4,3473.4,3469.8,1501.4,1960.8,2483.4,3380.4,1573.0,3488.0,3473.4,3479.5,641.6,772.8,1902.6,967.1,928.8,917.7,2.0,4.0,0.0,12382.0,-10170.0,3079.0,1488.0,-15.0,14.0,-21.0,1.0,4.0,-2.0,11685.0,-10422.0,-3209.0,3604.0,-25.0,11.0,-1.0,1.0
2022-05-23 16:09:31.714748-07:00,1111.2,703.6,1089.5,980.7,1006.5,889.8,1650.2,1241.7,3468.6,3478.3,1118.2,868.8,1520.8,3468.6,1193.8,1106.9,3473.4,3469.8,1501.4,1960.8,2481.3,3406.8,1573.0,3488.0,3472.2,3479.5,641.6,772.8,1912.4,967.1,919.4,917.7,-3.0,9.0,-6.0,12376.0,-10176.0,3084.0,1481.0,-18.0,24.0,-7.0,-1.0,5.0,-6.0,11679.0,-10429.0,-3210.0,3601.0,-26.0,3.0,0.0,1.0
2022-05-23 16:09:31.744976-07:00,1104.3,703.6,1089.5,980.7,1011.6,882.3,1640.7,1241.7,3474.6,3478.3,1118.2,868.8,1514.3,3468.6,1191.2,1106.9,3473.4,3462.5,1504.1,1964.7,2481.3,3406.8,1573.0,3483.2,3472.2,3471.0,648.1,764.5,1912.4,967.1,919.4,914.4,0.0,1.0,-7.0,12371.0,-10183.0,3084.0,1479.0,-12.0,16.0,-9.0,-1.0,0.0,-9.0,11672.0,-10437.0,-3213.0,3599.0,-12.0,-8.0,1.0,1.0
2022-05-23 16:09:31.804502-07:00,1104.3,725.8,1087.7,973.9,1011.6,882.3,1640.7,1242.6,3474.6,3469.8,1120.0,863.7,1514.3,3468.6,1191.2,1102.5,3474.6,3462.5,1504.1,1964.7,2477.0,3405.6,1574.9,3483.2,3462.5,3471.0,648.1,764.5,1895.8,969.6,922.0,914.4,2.0,1.0,-6.0,12372.0,-10182.0,3082.0,1481.0,17.0,-24.0,-3.0,1.0,1.0,-7.0,11671.0,-10436.0,-3216.0,3602.0,22.0,-16.0,-1.0,1.0
2022-05-23 16:09:31.834547-07:00,1106.0,725.8,1087.7,973.9,992.7,882.3,1650.2,1242.6,3468.6,3469.8,1120.0,863.7,1515.3,3469.8,1193.8,1102.5,3474.6,3479.5,1507.8,1953.9,2477.0,3405.6,1574.9,3490.5,3462.5,3475.9,647.3,764.5,1895.8,969.6,922.0,908.4,6.0,2.0,5.0,12382.0,-10170.0,3078.0,1489.0,35.0,-23.0,21.0,6.0,7.0,-4.0,11679.0,-10424.0,-3217.0,3609.0,42.0,-11.0,4.0,1.0
2022-05-23 16:09:31.895018-07:00,1106.0,713.4,1088.6,969.6,992.7,882.3,1636.9,1258.7,3468.6,3473.4,1120.0,859.5,1515.3,3469.8,1190.3,1104.3,3466.1,3467.4,1507.8,1953.9,2472.7,3390.0,1573.0,3490.5,3464.9,3472.2,647.3,764.5,1894.8,966.2,923.7,908.4,-2.0,11.0,1.0,12390.0,-10159.0,3081.0,1493.0,15.0,0.0,14.0,0.0,4.0,1.0,11689.0,-10412.0,-3215.0,3613.0,22.0,2.0,3.0,1.0
2022-05-23 16:09:31.954274-07:00,1104.3,720.8,1088.6,969.6,991.0,892.4,1636.9,1258.7,3457.6,3468.6,1120.0,859.5,1522.7,3468.6,1190.3,1104.3,3466.1,3467.4,1505.1,1964.7,2472.7,3390.0,1569.3,3484.4,3464.9,3472.2,635.1,772.0,1894.8,966.2,922.8,915.2,2.0,9.0,-4.0,12393.0,-10155.0,3082.0,1494.0,13.0,-2.0,-12.0,-1.0,1.0,-6.0,11693.0,-10407.0,-3214.0,3615.0,4.0,6.0,2.0,1.0
2022-05-23 16:09:31.984476-07:00,1104.3,720.8,1094.7,974.8,991.0,892.4,1646.4,1257.8,3457.6,3468.6,1120.0,856.2,1522.7,3468.6,1194.7,1105.1,3471.0,3479.5,1505.1,1964.7,2477.0,3381.6,1569.3,3484.4,3472.2,3480.7,635.1,772.0,1903.6,966.2,922.8,915.2,-1.0,1.0,-5.0,12391.0,-10156.0,3087.0,1487.0,-4.0,19.0,2.0,-1.0,2.0,0.0,11693.0,-10408.0,-3214.0,3615.0,-8.0,3.0,2.0,1.0
2022-05-23 16:09:32.045037-07:00,1101.7,717.5,1094.7,974.8,991.0,888.2,1646.4,1257.8,3461.3,3463.7,1120.0,856.2,1522.7,3469.8,1194.7,1105.1,3471.0,3479.5,1501.4,1965.7,2477.0,3381.6,1573.9,3481.9,3472.2,3480.7,648.1,770.3,1903.6,966.2,926.2,916.0,0.0,4.0,8.0,12397.0,-10150.0,3085.0,1488.0,27.0,-18.0,-4.0,-3.0,9.0,0.0,11695.0,-10405.0,-3213.0,3615.0,18.0,1.0,0.0,1.0
2022-05-23 16:09:32.105229-07:00,1101.7,717.5,1090.3,984.2,991.0,888.2,1641.6,1245.3,3461.3,3463.7,1115.6,863.7,1522.7,3469.8,1197.4,1100.8,3473.4,3467.4,1501.4,1965.7,2482.3,3372.0,1573.9,3481.9,3471.0,3477.1,648.1,770.3,1910.5,971.3,926.2,916.0,1.0,10.0,0.0,12400.0,-10147.0,3081.0,1489.0,0.0,-12.0,-13.0,1.0,6.0,-1.0,11698.0,-10402.0,-3212.0,3616.0,0.0,-6.0,0.0,1.0
2022-05-23 16:09:32.134508-07:00,1111.2,721.6,1090.3,984.2,992.7,881.4,1641.6,1245.3,3466.1,3468.6,1115.6,863.7,1520.8,3478.3,1197.4,1100.8,3473.4,3467.4,1507.8,1967.7,2482.3,3372.0,1571.1,3481.9,3471.0,3477.1,648.1,767.8,1910.5,971.3,931.3,905.9,6.0,0.0,-3.0,12401.0,-10149.0,3074.0,1483.0,6.0,5.0,-19.0,3.0,4.0,-7.0,11695.0,-10405.0,-3213.0,3615.0,-5.0,-6.0,-1.0,1.0
2022-05-23 16:09:32.224102-07:00,1111.2,721.6,1103.4,982.5,992.7,886.5,1672.9,1248.8,3466.1,3468.6,1116.5,857.0,1520.8,3468.6,1192.0,1106.0,3474.6,3478.3,1498.6,1967.7,2472.7,3396.0,1571.1,3481.9,3479.5,3468.6,648.9,767.8,1904.6,967.1,931.3,905.9,1.0,-1.0,-5.0,12404.0,-10146.0,3068.0,1485.0,20.0,-22.0,-8.0,-3.0,0.0,-6.0,11695.0,-10405.0,-3213.0,3615.0,8.0,-2.0,3.0,1.0
2022-05-23 16:09:32.254386-07:00,1109.5,718.4,1100.8,982.5,994.5,886.5,1672.9,1248.8,3467.4,3463.7,1119.1,857.0,1516.2,3468.6,1192.0,1106.0,3474.6,3478.3,1498.6,1958.8,2472.7,3390.0,1573.9,3489.2,3479.5,3468.6,648.9,773.6,1904.6,964.5,924.5,912.7,0.0,9.0,-2.0,12413.0,-10137.0,3063.0,1488.0,27.0,-13.0,-7.0,-1.0,7.0,0.0,11700.0,-10399.0,-3212.0,3617.0,14.0,-11.0,0.0,1.0
2022-05-23 16:09:32.285135-07:00,1109.5,718.4,1100.8,996.2,994.5,876.4,1639.8,1246.2,3467.4,3463.7,1119.1,862.1,1516.2,3468.6,1192.0,1100.8,3467.4,3471.0,1497.7,1958.8,2474.9,3390.0,1573.9,3489.2,3481.9,3467.4,645.7,773.6,1903.6,964.5,924.5,912.7,3.0,2.0,3.0,12416.0,-10135.0,3055.0,1487.0,8.0,-9.0,-12.0,4.0,3.0,2.0,11700.0,-10399.0,-3213.0,3618.0,2.0,-9.0,0.0,1.0
2022-05-23 16:09:32.344882-07:00,1104.3,717.5,1106.9,996.2,984.2,876.4,1639.8,1246.2,3460.1,3457.6,1114.7,862.1,1519.0,3468.6,1192.0,1100.8,3467.4,3471.0,1497.7,1967.7,2474.9,3394.8,1568.3,3491.7,3481.9,3467.4,645.7,767.0,1903.6,974.8,921.1,911.0,7.0,9.0,3.0,12417.0,-10134.0,3055.0,1486.0,-1.0,10.0,-6.0,2.0,5.0,-8.0,11700.0,-10399.0,-3213.0,3618.0,-6.0,0.0,0.0,1.0
2022-05-23 16:09:32.404357-07:00,1104.3,717.5,1106.9,992.7,984.2,881.4,1634.1,1254.2,3460.1,3457.6,1114.7,857.9,1519.0,3466.1,1195.6,1106.0,3479.5,3466.1,1495.8,1967.7,2483.4,3394.8,1568.3,3491.7,3478.3,3478.3,655.4,767.0,1906.6,974.8,921.1,911.0,4.0,-1.0,-4.0,12413.0,-10141.0,3055.0,1480.0,-17.0,11.0,-16.0,0.0,0.0,-9.0,11693.0,-10406.0,-3215.0,3616.0,-29.0,2.0,0.0,1.0
2022-05-23 16:09:32.464704-07:00,1098.2,718.4,1117.4,1000.5,996.2,881.4,1634.1,1254.2,3467.4,3468.6,1113.9,864.6,1518.0,3466.1,1195.6,1106.0,3479.5,3466.1,1495.8,1963.7,2471.7,3391.2,1576.8,3486.8,3478.3,3478.3,655.4,767.8,1903.6,971.3,928.8,911.8,1.0,5.0,-7.0,12412.0,-10141.0,3057.0,1477.0,7.0,-2.0,0.0,-2.0,3.0,-6.0,11692.0,-10408.0,-3216.0,3616.0,4.0,-3.0,-1.0,1.0
2022-05-23 16:09:32.494290-07:00,1098.2,718.4,1117.4,1000.5,985.0,874.7,1646.4,1246.2,3467.4,3468.6,1113.9,864.6,1512.5,3469.8,1195.6,1111.2,3473.4,3472.2,1501.4,1958.8,2471.7,3391.2,1576.8,3486.8,3477.1,3477.1,642.4,768.7,1903.6,971.3,928.8,911.8,0.0,2.0,-2.0,12416.0,-10137.0,3053.0,1479.0,16.0,-25.0,-6.0,0.0,0.0,-3.0,11692.0,-10407.0,-3217.0,3617.0,4.0,-18.0,0.0,1.0
2022-05-23 16:09:32.554574-07:00,1097.3,714.2,1112.1,997.9,985.0,874.7,1646.4,1246.2,3461.3,3471.0,1111.2,859.5,1512.5,3469.8,1195.6,1111.2,3473.4,3472.2,1501.4,1958.8,2471.7,3380.4,1569.3,3492.9,3477.1,3477.1,642.4,768.7,1894.8,973.1,927.9,907.6,4.0,3.0,2.0,12423.0,-10131.0,3046.0,1484.0,11.0,-12.0,2.0,0.0,5.0,-1.0,11694.0,-10401.0,-3220.0,3622.0,14.0,-12.0,3.0,1.0
2022-05-23 16:09:32.585283-07:00,1097.3,714.2,1112.1,997.9,1004.8,887.3,1640.7,1248.8,3461.3,3471.0,1111.2,859.5,1519.0,3461.3,1200.0,1111.2,3474.6,3477.1,1492.1,1964.7,2471.7,3380.4,1569.3,3492.9,3477.1,3474.6,639.2,769.5,1894.8,973.1,927.9,907.6,7.0,4.0,3.0,12424.0,-10129.0,3046.0,1484.0,-4.0,1.0,-9.0,2.0,3.0,-4.0,11694.0,-10400.0,-3222.0,3624.0,-9.0,-4.0,0.0,1.0
2022-05-23 16:09:32.644440-07:00,1104.3,719.2,1113.9,998.7,1004.8,887.3,1640.7,1248.8,3478.3,3473.4,1114.7,859.5,1519.0,3461.3,1200.0,1111.2,3474.6,3477.1,1492.1,1964.7,2472.7,3393.6,1574.9,3485.6,3477.1,3474.6,639.2,769.5,1901.6,959.4,929.6,919.4,3.0,3.0,-4.0,12424.0,-10129.0,3044.0,1483.0,-7.0,1.0,-13.0,1.0,2.0,-4.0,11692.0,-10403.0,-3222.0,3623.0,-15.0,-2.0,1.0,1.0
2022-05-23 16:09:32.704349-07:00,1106.9,719.2,1113.9,998.7,991.0,892.4,1637.9,1241.7,3464.9,3473.4,1114.7,859.5,1518.0,3464.9,1200.0,1108.6,3469.8,3480.7,1500.4,1972.7,2472.7,3393.6,1574.9,3486.8,3475.9,3479.5,643.2,769.5,1901.6,959.4,929.6,905.0,1.0,0.0,-3.0,12426.0,-10128.0,3044.0,1481.0,13.0,7.0,1.0,-1.0,3.0,-6.0,11692.0,-10403.0,-3222.0,3623.0,11.0,5.0,-1.0,1.0
2022-05-23 16:09:32.734583-07:00,1106.9,717.5,1116.5,997.9,991.0,892.4,1637.9,1244.4,3464.9,3461.3,1119.1,856.2,1518.0,3464.9,1200.0,1110.4,3473.4,3480.7,1500.4,1972.7,2471.7,3393.6,1567.4,3486.8,3477.1,3479.5,643.2,769.5,1891.8,964.5,934.7,905.0,5.0,7.0,-6.0,12429.0,-10125.0,3045.0,1480.0,3.0,1.0,-5.0,-1.0,4.0,-3.0,11693.0,-10402.0,-3222.0,3623.0,4.0,2.0,0.0,1.0
2022-05-23 16:09:32.794990-07:00,1105.1,717.5,1116.5,997.9,985.0,887.3,1645.4,1244.4,3463.7,3461.3,1119.1,856.2,1513.4,3472.2,1198.2,1110.4,3473.4,3472.2,1504.1,1960.8,2471.7,3393.6,1567.4,3479.5,3477.1,3473.4,650.5,769.5,1891.8,964.5,934.7,911.0,0.0,2.0,-4.0,12431.0,-10121.0,3044.0,1480.0,19.0,-13.0,4.0,1.0,1.0,-4.0,11695.0,-10399.0,-3221.0,3624.0,20.0,-5.0,2.0,1.0
2022-05-23 16:09:32.854334-07:00,1105.1,715.9,1121.7,1001.3,985.0,887.3,1645.4,1242.6,3463.7,3468.6,1113.9,856.2,1513.4,3472.2,1198.2,1110.4,3472.2,3472.2,1504.1,1960.8,2456.8,3398.4,1564.6,3479.5,3472.2,3473.4,650.5,769.5,1896.7,972.2,929.6,911.0,6.0,9.0,2.0,12436.0,-10116.0,3037.0,1486.0,-6.0,-19.0,0.0,3.0,6.0,-5.0,11699.0,-10395.0,-3220.0,3625.0,4.0,1.0,2.0,1.0
2022-05-23 16:09:32.914661-07:00,1103.4,715.9,1121.7,1001.3,1000.5,877.2,1652.0,1242.6,3467.4,3468.6,1113.9,856.2,1516.2,3472.2,1199.1,1110.4,3472.2,3475.9,1499.5,1958.8,2456.8,3398.4,1564.6,3488.0,3472.2,3464.9,657.0,768.7,1896.7,972.2,929.6,919.4,0.0,3.0,-1.0,12430.0,-10125.0,3037.0,1487.0,-14.0,12.0,-7.0,0.0,3.0,2.0,11694.0,-10401.0,-3222.0,3624.0,-18.0,5.0,-1.0,1.0
2022-05-23 16:09:32.945508-07:00,1103.4,717.5,1118.2,1005.6,1000.5,877.2,1637.9,1255.1,3467.4,3467.4,1112.1,862.1,1516.2,3472.2,1190.3,1100.8,3467.4,3478.3,1499.5,1958.8,2472.7,3382.8,1569.3,3488.0,3471.0,3474.6,657.0,768.7,1913.4,970.5,931.3,919.4,0.0,0.0,-5.0,12430.0,-10125.0,3035.0,1485.0,4.0,6.0,-8.0,-3.0,4.0,-5.0,11693.0,-10402.0,-3222.0,3623.0,-1.0,5.0,0.0,1.0
2022-05-23 16:09:33.005089-07:00,1097.3,724.1,1118.2,1005.6,997.9,875.5,1637.9,1255.1,3468.6,3468.6,1112.1,862.1,1514.3,3472.2,1190.3,1100.8,3467.4,3478.3,1496.7,1964.7,2472.7,3382.8,1568.3,3486.8,3471.0,3474.6,640.8,773.6,1913.4,970.5,927.1,901.7,7.0,1.0,-5.0,12430.0,-10125.0,3035.0,1485.0,0.0,2.0,-9.0,5.0,3.0,-6.0,11693.0,-10402.0,-3222.0,3623.0,-4.0,-1.0,-1.0,1.0
2022-05-23 16:09:33.034235-07:00,1097.3,724.1,1116.5,1014.2,997.9,875.5,1636.9,1249.7,3468.6,3468.6,1118.2,861.2,1514.3,3472.2,1201.8,1106.0,3473.4,3467.4,1496.7,1964.7,2467.4,3384.0,1568.3,3486.8,3463.7,3475.9,640.8,773.6,1902.6,964.5,927.1,901.7,2.0,0.0,0.0,12431.0,-10123.0,3037.0,1487.0,14.0,-3.0,14.0,2.0,3.0,-1.0,11695.0,-10400.0,-3221.0,3624.0,24.0,-3.0,4.0,1.0
2022-05-23 16:09:33.094652-07:00,1105.1,711.0,1116.5,1014.2,992.7,878.0,1636.9,1249.7,3471.0,3462.5,1118.2,861.2,1514.3,3467.4,1201.8,1106.0,3473.4,3467.4,1499.5,1966.7,2467.4,3384.0,1570.2,3477.1,3463.7,3475.9,646.5,769.5,1902.6,964.5,930.5,896.6,5.0,8.0,-1.0,12435.0,-10117.0,3038.0,1488.0,2.0,-1.0,2.0,-1.0,3.0,-4.0,11700.0,-10394.0,-3220.0,3626.0,1.0,1.0,4.0,1.0
2022-05-23 16:09:33.156018-07:00,1105.1,711.0,1116.5,1000.5,992.7,878.0,1632.2,1238.2,3471.0,3462.5,1116.5,864.6,1514.3,3467.4,1198.2,1109.5,3473.4,3480.7,1499.5,1966.7,2482.3,3399.6,1570.2,3477.1,3447.9,3478.3,646.5,769.5,1900.7,971.3,930.5,896.6,5.0,3.0,-6.0,12431.0,-10123.0,3038.0,1488.0,-22.0,5.0,6.0,1.0,3.0,-5.0,11699.0,-10395.0,-3220.0,3625.0,-14.0,-1.0,3.0,1.0
2022-05-23 16:09:33.184983-07:00,1110.4,711.8,1116.5,1000.5,986.7,887.3,1632.2,1238.2,3464.9,3460.1,1116.5,864.6,1517.1,3466.1,1198.2,1109.5,3473.4,3480.7,1506.0,1950.9,2482.3,3399.6,1562.7,3486.8,3447.9,3478.3,646.5,772.0,1900.7,971.3,932.2,908.4,7.0,2.0,-1.0,12423.0,-10130.0,3040.0,1494.0,-25.0,9.0,13.0,0.0,1.0,-6.0,11697.0,-10398.0,-3221.0,3625.0,-12.0,-2.0,3.0,1.0
2022-05-23 16:09:33.244596-07:00,1110.4,711.8,1125.2,998.7,986.7,882.3,1633.1,1253.3,3464.9,3460.1,1111.2,854.5,1517.1,3469.8,1200.9,1108.6,3475.9,3471.0,1496.7,1950.9,2474.9,3394.8,1562.7,3486.8,3481.9,3473.4,646.5,772.0,1895.8,967.1,932.2,908.4,0.0,1.0,-4.0,12427.0,-10127.0,3036.0,1493.0,22.0,-17.0,-11.0,1.0,3.0,-4.0,11697.0,-10398.0,-3221.0,3625.0,10.0,0.0,1.0,1.0
2022-05-23 16:09:33.304573-07:00,1113.9,709.3,1119.1,998.7,991.0,882.3,1633.1,1253.3,3472.2,3456.4,1118.2,854.5,1515.3,3469.8,1200.9,1108.6,3475.9,3471.0,1496.7,1962.8,2474.9,3392.4,1573.0,3494.1,3481.9,3473.4,646.5,774.5,1895.8,973.9,932.2,908.4,5.0,9.0,0.0,12430.0,-10124.0,3035.0,1495.0,-3.0,8.0,10.0,0.0,6.0,-4.0,11698.0,-10396.0,-3220.0,3625.0,-8.0,2.0,3.0,1.0
2022-05-23 16:09:33.364811-07:00,1113.9,709.3,1119.1,1009.9,991.0,867.9,1646.4,1248.0,3472.2,3456.4,1118.2,860.4,1515.3,3467.4,1199.1,1107.8,3477.1,3473.4,1496.7,1962.8,2473.8,3392.4,1573.0,3494.1,3478.3,3461.3,645.7,774.5,1894.8,973.9,932.2,908.4,0.0,2.0,-3.0,12429.0,-10124.0,3037.0,1492.0,-4.0,-3.0,-10.0,0.0,1.0,-4.0,11697.0,-10398.0,-3221.0,3625.0,0.0,-2.0,0.0,1.0
2022-05-23 16:09:33.424556-07:00,1111.2,714.2,1125.2,1009.9,994.5,867.9,1646.4,1248.0,3467.4,3464.9,1119.1,860.4,1516.2,3467.4,1199.1,1107.8,3477.1,3473.4,1496.7,1966.7,2473.8,3393.6,1574.9,3484.4,3478.3,3461.3,645.7,774.5,1894.8,967.1,932.2,914.4,6.0,1.0,-3.0,12432.0,-10121.0,3036.0,1493.0,13.0,-7.0,-1.0,0.0,2.0,-5.0,11697.0,-10397.0,-3221.0,3625.0,10.0,-7.0,1.0,1.0
2022-05-23 16:09:33.454553-07:00,1111.2,714.2,1125.2,1004.8,994.5,885.6,1636.9,1237.3,3467.4,3464.9,1119.1,854.5,1516.2,3466.1,1201.8,1101.7,3473.4,3474.6,1500.4,1966.7,2469.5,3393.6,1574.9,3484.4,3473.4,3468.6,644.0,774.5,1898.7,967.1,932.2,914.4,3.0,3.0,-2.0,12434.0,-10119.0,3036.0,1492.0,8.0,-9.0,-5.0,2.0,4.0,0.0,11698.0,-10396.0,-3220.0,3625.0,-2.0,1.0,2.0,1.0
2022-05-23 16:09:33.484562-07:00,1106.0,709.3,1119.1,1009.9,991.0,885.6,1636.9,1237.3,3473.4,3467.4,1116.5,861.2,1522.7,3466.1,1201.8,1101.7,3473.4,3474.6,1500.4,1957.8,2470.6,3380.4,1575.8,3495.3,3473.4,3468.6,644.0,764.5,1903.6,973.9,927.1,912.7,3.0,0.0,-2.0,12436.0,-10117.0,3033.0,1491.0,18.0,-3.0,-5.0,0.0,1.0,-6.0,11698.0,-10396.0,-3220.0,3625.0,15.0,1.0,1.0,1.0
2022-05-23 16:09:33.544876-07:00,1106.0,709.3,1119.1,1009.9,987.6,886.5,1631.3,1245.3,3473.4,3467.4,1116.5,861.2,1516.2,3457.6,1208.0,1108.6,3473.4,3479.5,1494.0,1961.8,2470.6,3380.4,1575.8,3495.3,3468.6,3480.7,639.2,775.3,1903.6,973.9,927.1,912.7,0.0,6.0,-2.0,12438.0,-10115.0,3033.0,1491.0,9.0,7.0,6.0,1.0,4.0,-2.0,11702.0,-10392.0,-3219.0,3626.0,13.0,2.0,1.0,1.0
2022-05-23 16:09:33.574455-07:00,1108.6,715.9,1112.1,1004.8,987.6,886.5,1631.3,1245.3,3464.9,3469.8,1120.9,862.1,1516.2,3457.6,1208.0,1108.6,3473.4,3479.5,1494.0,1961.8,2472.7,3380.4,1568.3,3486.8,3468.6,3480.7,639.2,775.3,1898.7,957.7,931.3,916.9,6.0,6.0,-3.0,12440.0,-10113.0,3030.0,1493.0,14.0,-19.0,-5.0,0.0,3.0,-6.0,11702.0,-10392.0,-3219.0,3626.0,7.0,3.0,2.0,1.0
2022-05-23 16:09:33.634522-07:00,1108.6,715.9,1112.1,1004.8,991.0,884.8,1638.8,1248.8,3464.9,3469.8,1120.9,862.1,1513.4,3468.6,1201.8,1108.6,3468.6,3466.1,1493.0,1946.9,2472.7,3380.4,1568.3,3486.8,3478.3,3478.3,639.2,768.7,1898.7,957.7,931.3,916.9,4.0,4.0,-3.0,12444.0,-10108.0,3030.0,1492.0,10.0,-1.0,0.0,0.0,3.0,-4.0,11705.0,-10389.0,-3218.0,3627.0,7.0,1.0,3.0,1.0
2022-05-23 16:09:33.694650-07:00,1100.8,709.3,1118.2,997.9,991.0,884.8,1638.8,1248.8,3473.4,3468.6,1117.4,857.9,1513.4,3468.6,1201.8,1108.6,3468.6,3466.1,1493.0,1946.9,2468.5,3391.2,1569.3,3486.8,3478.3,3478.3,639.2,768.7,1893.8,970.5,933.0,910.1,4.0,4.0,-1.0,12446.0,-10106.0,3028.0,1493.0,2.0,-15.0,-5.0,-2.0,3.0,-6.0,11705.0,-10388.0,-3218.0,3627.0,2.0,2.0,3.0,1.0
2022-05-23 16:09:33.724081-07:00,1100.8,709.3,1118.2,997.9,986.7,874.7,1637.9,1230.2,3460.1,3468.6,1117.4,857.9,1515.3,3478.3,1201.8,1106.9,3479.5,3474.6,1499.5,1967.7,2468.5,3391.2,1569.3,3485.6,3471.0,3480.7,651.4,777.8,1893.8,970.5,933.0,908.4,3.0,2.0,-1.0,12446.0,-10106.0,3028.0,1492.0,-4.0,13.0,-8.0,-2.0,1.0,-2.0,11705.0,-10389.0,-3218.0,3627.0,-9.0,5.0,0.0,1.0
2022-05-23 16:09:33.784564-07:00,1100.8,720.8,1118.2,1000.5,986.7,874.7,1637.9,1230.2,3460.1,3474.6,1119.1,857.9,1515.3,3478.3,1201.8,1105.1,3471.0,3474.6,1499.5,1967.7,2465.3,3385.2,1570.2,3485.6,3473.4,3480.7,651.4,777.8,1896.7,969.6,930.5,908.4,3.0,3.0,-7.0,12450.0,-10101.0,3032.0,1484.0,29.0,12.0,-14.0,-1.0,-6.0,-4.0,11704.0,-10389.0,-3218.0,3627.0,9.0,1.0,-1.0,1.0
2022-05-23 16:09:33.844418-07:00,1103.4,720.8,1118.2,1000.5,998.7,878.0,1624.7,1230.2,3464.9,3474.6,1119.1,857.9,1515.3,3469.8,1207.1,1105.1,3471.0,3473.4,1492.1,1961.8,2465.3,3385.2,1570.2,3481.9,3473.4,3480.7,639.2,776.1,1896.7,969.6,930.5,910.1,0.0,-3.0,-19.0,12465.0,-10083.0,3037.0,1474.0,80.0,0.0,-6.0,-4.0,-6.0,-16.0,11718.0,-10372.0,-3215.0,3633.0,78.0,-21.0,6.0,1.0
2022-05-23 16:09:33.907130-07:00,1103.4,721.6,1130.5,1003.0,998.7,878.0,1624.7,1276.5,3464.9,3471.0,1121.7,868.8,1515.3,3469.8,1207.1,1112.1,3469.8,3473.4,1492.1,1961.8,2472.7,3381.6,1573.0,3481.9,3469.8,3480.7,639.2,776.1,1896.7,967.9,933.9,910.1,-8.0,-32.0,-23.0,12511.0,-10027.0,3037.0,1465.0,293.0,-52.0,-2.0,-17.0,-1.0,-8.0,11752.0,-10325.0,-3208.0,3666.0,233.0,-54.0,28.0,1.0
2022-05-23 16:09:33.934548-07:00,1104.3,721.6,1130.5,1003.0,1001.3,872.1,1658.7,1276.5,3467.4,3471.0,1121.7,868.8,1513.4,3467.4,1214.2,1112.1,3469.8,3483.2,1498.6,1960.8,2472.7,3381.6,1573.0,3492.9,3469.8,3479.5,637.6,783.6,1896.7,967.9,933.9,914.4,-31.0,-47.0,-69.0,12609.0,-9902.0,3017.0,1516.0,558.0,-399.0,155.0,-22.0,-34.0,11.0,11846.0,-10202.0,-3192.0,3721.0,539.0,-70.0,2.0,1.0
2022-05-23 16:09:33.994773-07:00,1104.3,718.4,1119.1,1003.0,1001.3,872.1,1683.3,1251.5,3467.4,3472.2,1139.2,865.4,1513.4,3467.4,1221.3,1109.5,3475.9,3477.1,1498.6,1960.8,2483.4,3396.0,1575.8,3492.9,3464.9,3467.4,637.6,783.6,1895.8,966.2,929.6,914.4,8.0,-39.0,-50.0,12928.0,-9492.0,2898.0,1678.0,1348.0,-773.0,254.0,-5.0,-27.0,-49.0,12087.0,-9898.0,-3119.0,3825.0,1146.0,-101.0,34.0,1.0
2022-05-23 16:09:34.024426-07:00,1115.6,715.9,1119.1,1003.0,990.2,875.5,1683.3,1251.5,3469.8,3468.6,1139.2,865.4,1519.0,3462.5,1221.3,1109.5,3475.9,3477.1,1491.2,1970.7,2483.4,3396.0,1573.0,3489.2,3464.9,3467.4,651.4,826.0,1895.8,966.2,941.5,907.6,18.0,1.0,-6.0,13288.0,-8981.0,2765.0,1890.0,1222.0,-773.0,372.0,-4.0,10.0,-30.0,12373.0,-9508.0,-3019.0,3978.0,1172.0,-128.0,93.0,1.0
2022-05-23 16:09:34.084918-07:00,1115.6,715.9,1134.0,1018.5,990.2,875.5,1733.0,1254.2,3469.8,3468.6,1138.4,863.7,1519.0,3462.5,1233.7,1112.1,3462.5,3473.4,1491.2,1970.7,2488.7,3392.4,1573.0,3489.2,3471.0,3474.6,651.4,826.0,1902.6,971.3,941.5,907.6,5.0,37.0,-2.0,13611.0,-8477.0,2659.0,2061.0,1273.0,-655.0,208.0,4.0,12.0,15.0,12632.0,-9125.0,-2919.0,4132.0,1088.0,-137.0,83.0,1.0
2022-05-23 16:09:34.204561-07:00,1122.6,722.5,1134.0,1018.5,994.5,874.7,1733.0,1254.2,3466.1,3471.0,1138.4,863.7,1509.7,3467.4,1233.7,1112.1,3462.5,3473.4,1495.8,1986.6,2488.7,3392.4,1575.8,3486.8,3471.0,3474.6,648.9,833.6,1902.6,971.3,932.2,914.4,13.0,45.0,52.0,13897.0,-8017.0,2506.0,2182.0,890.0,-649.0,157.0,-2.0,38.0,20.0,12835.0,-8807.0,-2833.0,4256.0,756.0,-85.0,84.0,1.0
2022-05-23 16:09:34.205942-07:00,1122.6,722.5,1208.0,1084.2,994.5,874.7,1766.6,1243.5,3466.1,3471.0,1138.4,860.4,1509.7,3467.4,1228.4,1101.7,3467.4,3475.9,1495.8,1986.6,2501.5,3390.0,1575.8,3486.8,3473.4,3467.4,648.9,833.6,1894.8,966.2,932.2,914.4,46.0,67.0,55.0,14046.0,-7757.0,2421.0,2263.0,513.0,-221.0,-4.0,20.0,29.0,2.0,12931.0,-8637.0,-2794.0,4337.0,297.0,-89.0,59.0,1.0
2022-05-23 16:09:34.234503-07:00,1122.6,720.8,1208.0,1084.2,997.9,864.6,1766.6,1243.5,3462.5,3466.1,1138.4,860.4,1516.2,3472.2,1228.4,1101.7,3467.4,3475.9,1500.4,2001.5,2501.5,3390.0,1579.6,3484.4,3473.4,3467.4,644.0,837.7,1894.8,966.2,924.5,914.4,8.0,40.0,48.0,14130.0,-7648.0,2360.0,2173.0,198.0,-24.0,-333.0,6.0,27.0,24.0,12945.0,-8597.0,-2805.0,4368.0,-32.0,-51.0,10.0,1.0
2022-05-23 16:09:34.294765-07:00,1122.6,720.8,1270.3,1142.7,997.9,874.7,1777.2,1256.9,3462.5,3466.1,1133.1,858.7,1516.2,3461.3,1219.5,1112.1,3469.8,3471.0,1491.2,2001.5,2528.3,3382.8,1579.6,3484.4,3483.2,3469.8,649.7,837.7,1895.8,962.8,924.5,914.4,13.0,5.0,11.0,14159.0,-7642.0,2316.0,2048.0,15.0,70.0,-262.0,-2.0,12.0,0.0,12919.0,-8631.0,-2827.0,4364.0,-172.0,-17.0,-8.0,1.0
2022-05-23 16:09:34.354403-07:00,1139.2,732.3,1335.0,1142.7,990.2,874.7,1777.2,1256.9,3468.6,3464.9,1129.6,858.7,1512.5,3461.3,1219.5,1112.1,3469.8,3471.0,1491.2,2003.5,2528.3,3376.8,1572.1,3484.4,3483.2,3469.8,649.7,847.8,1895.8,957.7,922.0,915.2,4.0,-11.0,-11.0,14157.0,-7682.0,2284.0,1941.0,-59.0,34.0,-267.0,5.0,-7.0,-16.0,12864.0,-8708.0,-2863.0,4352.0,-245.0,-30.0,-6.0,1.0
2022-05-23 16:09:34.384958-07:00,1139.2,732.3,1335.0,1177.0,990.2,880.6,1816.8,1262.2,3468.6,3464.9,1129.6,862.1,1512.5,3473.4,1224.8,1099.9,3472.2,3468.6,1494.0,2003.5,2527.2,3376.8,1572.1,3484.4,3464.9,3462.5,656.2,847.8,1901.6,957.7,922.0,915.2,-1.0,-26.0,-23.0,14186.0,-7671.0,2234.0,1832.0,131.0,-29.0,-252.0,-3.0,-4.0,-18.0,12822.0,-8756.0,-2899.0,4353.0,-117.0,-66.0,10.0,1.0
2022-05-23 16:09:34.444684-07:00,1132.2,730.7,1356.7,1177.0,996.2,880.6,1816.8,1262.2,3464.9,3468.6,1131.4,862.1,1515.3,3473.4,1224.8,1099.9,3472.2,3468.6,1494.0,2005.5,2527.2,3391.2,1580.5,3490.5,3464.9,3462.5,656.2,839.4,1901.6,956.8,894.9,912.7,36.0,14.0,21.0,14177.0,-7710.0,2197.0,1780.0,-229.0,66.0,-116.0,9.0,11.0,-11.0,12767.0,-8818.0,-2942.0,4361.0,-285.0,-78.0,26.0,1.0
2022-05-23 16:09:34.474537-07:00,1132.2,730.7,1356.7,1184.1,996.2,864.6,1822.6,1274.7,3464.9,3468.6,1131.4,854.5,1515.3,3467.4,1229.3,1107.8,3478.3,3467.4,1484.7,2005.5,2527.2,3391.2,1580.5,3490.5,3477.1,3472.2,661.9,839.4,1892.8,956.8,894.9,912.7,-14.0,-8.0,-6.0,14136.0,-7797.0,2206.0,1717.0,-110.0,85.0,-137.0,2.0,-1.0,18.0,12701.0,-8901.0,-2987.0,4356.0,-194.0,-31.0,-1.0,1.0
2022-05-23 16:09:34.534517-07:00,1118.2,719.2,1342.2,1173.5,1000.5,864.6,1822.6,1274.7,3467.4,3469.8,1133.1,859.5,1515.3,3467.4,1229.3,1107.8,3478.3,3467.4,1484.7,2003.5,2526.1,3375.6,1570.2,3481.9,3477.1,3472.2,661.9,827.7,1900.7,961.1,941.5,905.0,3.0,-22.0,3.0,14141.0,-7805.0,2174.0,1680.0,58.0,-59.0,-79.0,3.0,-4.0,-2.0,12678.0,-8926.0,-3008.0,4357.0,-7.0,-37.0,5.0,1.0
2022-05-23 16:09:34.594746-07:00,1118.2,719.2,1342.2,1173.5,997.9,872.1,1811.0,1274.7,3467.4,3469.8,1133.1,859.5,1516.2,3475.9,1239.1,1107.8,3468.6,3464.9,1485.6,2000.5,2526.1,3375.6,1570.2,3481.9,3468.6,3473.4,653.8,834.4,1900.7,961.1,941.5,905.0,1.0,-4.0,-1.0,14166.0,-7766.0,2164.0,1665.0,94.0,6.0,-19.0,-2.0,2.0,-15.0,12681.0,-8908.0,-3020.0,4377.0,37.0,-62.0,17.0,1.0
2022-05-23 16:09:34.625667-07:00,1133.1,722.5,1353.1,1180.6,997.9,872.1,1811.0,1274.7,3477.1,3472.2,1136.6,855.3,1516.2,3475.9,1239.1,1107.8,3468.6,3464.9,1485.6,2000.5,2529.3,3381.6,1573.9,3496.6,3468.6,3473.4,653.8,834.4,1901.6,959.4,939.0,914.4,-5.0,-3.0,-7.0,14187.0,-7732.0,2155.0,1651.0,121.0,-62.0,-45.0,4.0,-1.0,0.0,12677.0,-8900.0,-3033.0,4394.0,-5.0,-57.0,6.0,1.0
2022-05-23 16:09:34.715271-07:00,1133.1,722.5,1353.1,1180.6,997.9,868.8,1807.1,1273.9,3477.1,3472.2,1136.6,855.3,1514.3,3463.7,1239.1,1111.2,3478.3,3475.9,1493.0,2003.5,2529.3,3381.6,1573.9,3496.6,3467.4,3478.3,653.0,831.1,1901.6,959.4,939.0,914.4,18.0,-14.0,13.0,14215.0,-7686.0,2126.0,1661.0,82.0,-50.0,45.0,0.0,9.0,-7.0,12671.0,-8898.0,-3050.0,4404.0,3.0,-29.0,11.0,1.0
2022-05-23 16:09:34.774156-07:00,1140.1,724.9,1373.0,1192.9,997.9,868.8,1807.1,1273.9,3469.8,3478.3,1147.1,858.7,1514.3,3463.7,1239.1,1111.2,3478.3,3475.9,1493.0,2003.5,2531.5,3403.2,1574.9,3485.6,3467.4,3478.3,653.0,831.1,1901.6,964.5,932.2,912.7,14.0,6.0,18.0,14213.0,-7671.0,2184.0,1675.0,43.0,165.0,90.0,1.0,9.0,5.0,12670.0,-8893.0,-3055.0,4415.0,21.0,-25.0,7.0,1.0
2022-05-23 16:09:34.775720-07:00,1126.1,724.9,1373.0,1192.9,999.6,872.1,1805.2,1281.9,3472.2,3478.3,1147.1,858.7,1505.1,3463.7,1242.6,1110.4,3475.9,3468.6,1481.0,1987.5,2531.5,3403.2,1574.9,3486.8,3478.3,3471.0,675.0,828.5,1901.6,964.5,932.2,913.5,-6.0,13.0,0.0,14208.0,-7672.0,2223.0,1662.0,-35.0,43.0,-8.0,0.0,4.0,6.0,12669.0,-8892.0,-3058.0,4417.0,-59.0,17.0,-4.0,1.0
2022-05-23 16:09:34.835340-07:00,1126.1,730.7,1354.0,1187.6,999.6,872.1,1805.2,1273.9,3472.2,3467.4,1147.1,858.7,1505.1,3463.7,1242.6,1111.2,3478.3,3468.6,1481.0,1987.5,2520.8,3398.4,1575.8,3486.8,3473.4,3471.0,675.0,828.5,1891.8,961.1,923.7,913.5,4.0,-6.0,-10.0,14194.0,-7699.0,2234.0,1648.0,-22.0,40.0,-39.0,-1.0,0.0,-15.0,12654.0,-8916.0,-3063.0,4409.0,-36.0,2.0,-3.0,1.0
2022-05-23 16:09:34.928647-07:00,1116.5,730.7,1354.0,1187.6,1018.5,862.9,1802.3,1273.9,3464.9,3467.4,1147.1,858.7,1515.3,3474.6,1256.9,1111.2,3478.3,3478.3,1489.3,2000.5,2520.8,3398.4,1575.8,3491.7,3473.4,3480.7,656.2,824.4,1891.8,961.1,923.7,912.7,1.0,-11.0,-9.0,14191.0,-7706.0,2239.0,1628.0,32.0,19.0,-31.0,-3.0,0.0,-9.0,12649.0,-8923.0,-3065.0,4408.0,12.0,-7.0,-2.0,1.0
2022-05-23 16:09:34.930499-07:00,1116.5,724.9,1359.4,1195.6,1018.5,862.9,1802.3,1263.1,3464.9,3471.0,1150.6,862.9,1515.3,3474.6,1256.9,1114.7,3478.3,3478.3,1489.3,2000.5,2528.3,3378.0,1565.5,3491.7,3478.3,3480.7,656.2,824.4,1895.8,959.4,927.1,912.7,7.0,-13.0,0.0,14199.0,-7694.0,2238.0,1616.0,19.0,22.0,1.0,0.0,3.0,-4.0,12649.0,-8922.0,-3067.0,4410.0,7.0,-1.0,0.0,1.0
2022-05-23 16:09:35.044749-07:00,1113.9,724.9,1359.4,1195.6,1080.8,864.6,1790.7,1263.1,3469.8,3471.0,1150.6,862.9,1515.3,3467.4,1253.3,1114.7,3478.3,3468.6,1486.6,1999.5,2528.3,3378.0,1565.5,3485.6,3478.3,3475.9,650.5,826.0,1895.8,959.4,927.1,920.3,-10.0,16.0,-7.0,14196.0,-7694.0,2265.0,1612.0,-30.0,45.0,10.0,-2.0,7.0,7.0,12651.0,-8917.0,-3067.0,4412.0,-11.0,-3.0,6.0,1.0
2022-05-23 16:09:35.046630-07:00,1113.9,720.0,1399.4,1239.9,1080.8,864.6,1790.7,1265.8,3469.8,3468.6,1146.3,857.9,1515.3,3467.4,1253.3,1118.2,3478.3,3468.6,1486.6,1999.5,2524.0,3379.2,1571.1,3485.6,3478.3,3475.9,650.5,826.0,1887.9,959.4,928.8,920.3,11.0,-1.0,12.0,14180.0,-7726.0,2251.0,1612.0,-99.0,-1.0,-24.0,-3.0,6.0,-7.0,12638.0,-8935.0,-3074.0,4407.0,-76.0,7.0,1.0,1.0
2022-05-23 16:09:35.074609-07:00,1119.1,719.2,1399.4,1239.9,1215.1,868.8,1779.1,1265.8,3457.6,3462.5,1146.3,857.9,1514.3,3475.9,1264.0,1118.2,3478.3,3478.3,1492.1,1997.5,2524.0,3379.2,1566.5,3483.2,3478.3,3473.4,659.5,823.5,1887.9,959.4,936.4,925.4,-2.0,1.0,-4.0,14164.0,-7756.0,2261.0,1600.0,-35.0,47.0,-28.0,2.0,3.0,-6.0,12623.0,-8958.0,-3080.0,4402.0,-37.0,2.0,-3.0,1.0
2022-05-23 16:09:35.164643-07:00,1119.1,719.2,1422.2,1243.5,1215.1,868.8,1803.2,1269.4,3457.6,3462.5,1151.5,862.9,1514.3,3475.9,1263.1,1119.1,3458.9,3464.9,1492.1,1997.5,2516.5,3380.4,1566.5,3483.2,3471.0,3468.6,659.5,823.5,1886.9,972.2,936.4,925.4,21.0,-19.0,17.0,14135.0,-7801.0,2280.0,1605.0,-244.0,92.0,113.0,0.0,9.0,-11.0,12597.0,-8993.0,-3091.0,4395.0,-182.0,-3.0,17.0,1.0
2022-05-23 16:09:35.194643-07:00,1133.1,721.6,1422.2,1243.5,1269.4,862.9,1803.2,1269.4,3464.9,3452.8,1151.5,862.9,1512.5,3472.2,1263.1,1119.1,3458.9,3464.9,1488.4,2001.5,2516.5,3380.4,1570.2,3485.6,3471.0,3468.6,666.0,821.0,1886.9,972.2,940.7,911.0,-2.0,23.0,0.0,14079.0,-7881.0,2338.0,1624.0,-208.0,117.0,31.0,-1.0,11.0,-1.0,12565.0,-9036.0,-3102.0,4392.0,-112.0,1.0,15.0,1.0
2022-05-23 16:09:35.224587-07:00,1133.1,721.6,1401.2,1238.2,1269.4,862.9,1771.4,1282.8,3464.9,3452.8,1163.0,865.4,1512.5,3472.2,1274.7,1126.1,3464.9,3478.3,1488.4,2001.5,2530.4,3381.6,1570.2,3485.6,3471.0,3478.3,666.0,821.0,1897.7,970.5,940.7,911.0,-3.0,15.0,15.0,14000.0,-8009.0,2385.0,1617.0,-491.0,230.0,23.0,-6.0,3.0,-6.0,12531.0,-9088.0,-3111.0,4375.0,-234.0,21.0,8.0,1.0
2022-05-23 16:09:35.284517-07:00,1127.9,728.2,1401.2,1238.2,1332.3,866.3,1771.4,1282.8,3471.0,3466.1,1163.0,865.4,1506.9,3473.4,1274.7,1126.1,3464.9,3478.3,1486.6,1997.5,2530.4,3381.6,1566.5,3485.6,3471.0,3478.3,653.0,820.2,1897.7,970.5,941.5,927.9,-69.0,-87.0,-128.0,13917.0,-8154.0,2403.0,1576.0,-110.0,-106.0,-146.0,7.0,-42.0,17.0,12484.0,-9156.0,-3132.0,4354.0,-4.0,29.0,-30.0,1.0
2022-05-23 16:09:35.344645-07:00,1127.9,728.2,1397.6,1241.7,1332.3,869.6,1763.7,1277.4,3471.0,3466.1,1169.1,867.9,1506.9,3463.7,1283.7,1123.5,3488.0,3478.3,1484.7,1997.5,2529.3,3370.8,1566.5,3485.6,3468.6,3475.9,681.5,820.2,1898.7,973.9,941.5,927.9,82.0,-75.0,-11.0,14032.0,-7989.0,2226.0,1660.0,702.0,-490.0,73.0,-3.0,-23.0,-91.0,12609.0,-8990.0,-3073.0,4382.0,728.0,-22.0,-14.0,1.0
2022-05-23 16:09:35.404847-07:00,1120.0,729.9,1425.9,1241.7,1473.6,869.6,1763.7,1277.4,3467.4,3473.4,1162.1,867.9,1515.3,3463.7,1283.7,1123.5,3488.0,3478.3,1484.7,1997.5,2529.3,3375.6,1562.7,3499.0,3468.6,3475.9,681.5,820.2,1898.7,978.2,946.6,927.1,1.0,59.0,63.0,14200.0,-7675.0,2244.0,1686.0,627.0,106.0,194.0,7.0,28.0,32.0,12772.0,-8748.0,-3004.0,4447.0,544.0,-12.0,4.0,1.0
2022-05-23 16:09:35.434620-07:00,1120.0,729.9,1425.9,1229.3,1473.6,865.4,1757.9,1281.0,3467.4,3473.4,1162.1,867.9,1515.3,3466.1,1278.3,1121.7,3467.4,3478.3,1475.5,1997.5,2534.7,3375.6,1562.7,3499.0,3479.5,3469.8,692.1,820.2,1889.9,978.2,946.6,927.1,-30.0,68.0,-28.0,14210.0,-7626.0,2310.0,1734.0,-66.0,-90.0,89.0,-11.0,8.0,5.0,12797.0,-8715.0,-2980.0,4454.0,-92.0,39.0,1.0,1.0
2022-05-23 16:09:35.494731-07:00,1116.5,738.1,1410.3,1229.3,1372.1,865.4,1757.9,1281.0,3467.4,3473.4,1154.2,867.9,1512.5,3466.1,1278.3,1121.7,3467.4,3478.3,1475.5,1986.6,2534.7,3367.2,1559.0,3492.9,3479.5,3469.8,692.1,817.7,1889.9,977.3,950.0,914.4,23.0,-7.0,39.0,14210.0,-7644.0,2252.0,1737.0,-71.0,-31.0,-76.0,-1.0,-3.0,-2.0,12772.0,-8757.0,-2987.0,4440.0,-114.0,7.0,0.0,1.0
2022-05-23 16:09:35.554272-07:00,1116.5,738.1,1410.3,1209.7,1372.1,862.1,1745.4,1289.1,3467.4,3473.4,1154.2,865.4,1512.5,3466.1,1273.9,1120.9,3471.0,3469.8,1482.9,1986.6,2532.5,3367.2,1559.0,3492.9,3466.1,3478.3,684.8,817.7,1895.8,977.3,950.0,914.4,-36.0,0.0,-19.0,14179.0,-7713.0,2245.0,1687.0,-241.0,43.0,-176.0,-1.0,-13.0,-11.0,12737.0,-8810.0,-3005.0,4422.0,-229.0,22.0,-26.0,1.0
2022-05-23 16:09:35.584522-07:00,1117.4,713.4,1363.0,1179.7,1320.5,862.1,1745.4,1289.1,3468.6,3468.6,1153.3,867.1,1512.5,3466.1,1273.9,1120.9,3471.0,3469.8,1482.9,2000.5,2531.5,3372.0,1568.3,3481.9,3466.1,3478.3,684.8,816.0,1890.9,973.9,940.7,919.4,30.0,-48.0,-16.0,14145.0,-7795.0,2209.0,1648.0,-98.0,24.0,-76.0,-5.0,-10.0,-22.0,12686.0,-8884.0,-3033.0,4401.0,-135.0,-21.0,1.0,1.0
2022-05-23 16:09:35.644670-07:00,1117.4,713.4,1363.0,1179.7,1301.6,850.3,1742.6,1273.9,3468.6,3468.6,1153.3,867.1,1511.5,3467.4,1274.7,1124.4,3481.9,3479.5,1479.2,1986.6,2531.5,3372.0,1568.3,3481.9,3475.9,3475.9,688.0,819.4,1890.9,973.9,940.7,919.4,-14.0,-4.0,-3.0,14147.0,-7796.0,2204.0,1631.0,38.0,-20.0,-29.0,-13.0,-1.0,-2.0,12672.0,-8896.0,-3050.0,4407.0,-30.0,-39.0,7.0,1.0
2022-05-23 16:09:35.734583-07:00,1111.2,724.9,1342.2,1162.1,1301.6,850.3,1742.6,1273.9,3467.4,3477.1,1155.0,865.4,1511.5,3467.4,1274.7,1124.4,3481.9,3479.5,1479.2,1986.6,2541.1,3367.2,1559.0,3488.0,3475.9,3475.9,688.0,819.4,1896.7,970.5,939.0,916.0,25.0,37.0,-1.0,14143.0,-7798.0,2221.0,1635.0,-93.0,108.0,50.0,-28.0,45.0,-17.0,12664.0,-8901.0,-3057.0,4413.0,-53.0,-11.0,10.0,1.0
2022-05-23 16:09:35.764693-07:00,1111.2,724.9,1342.2,1162.1,1285.5,862.1,1745.4,1269.4,3467.4,3477.1,1155.0,865.4,1520.8,3471.0,1273.0,1118.2,3469.8,3473.4,1478.3,1981.6,2541.1,3367.2,1559.0,3488.0,3467.4,3478.3,688.9,814.4,1896.7,970.5,939.0,916.0,-9.0,17.0,-1.0,14092.0,-7884.0,2261.0,1609.0,-172.0,112.0,-89.0,9.0,-2.0,16.0,12625.0,-8951.0,-3081.0,4407.0,-164.0,-11.0,3.0,1.0
2022-05-23 16:09:35.823683-07:00,1119.1,725.8,1332.3,1164.7,1285.5,862.1,1745.4,1269.4,3475.9,3467.4,1157.7,867.1,1520.8,3471.0,1273.0,1118.2,3469.8,3473.4,1478.3,1981.6,2522.9,3368.4,1567.4,3492.9,3467.4,3478.3,688.9,814.4,1902.6,973.9,938.1,911.8,12.0,-21.0,2.0,14075.0,-7924.0,2243.0,1586.0,-34.0,-7.0,-41.0,5.0,-3.0,-13.0,12599.0,-8984.0,-3101.0,4403.0,-27.0,-19.0,0.0,1.0
2022-05-23 16:09:35.884632-07:00,1119.1,725.8,1332.3,1164.7,1290.9,850.3,1734.9,1268.5,3475.9,3467.4,1157.7,867.1,1510.6,3457.6,1277.4,1125.2,3473.4,3475.9,1482.9,1986.6,2522.9,3368.4,1567.4,3492.9,3474.6,3488.0,680.7,806.9,1902.6,973.9,938.1,911.8,-3.0,-3.0,0.0,14071.0,-7931.0,2246.0,1582.0,-26.0,21.0,23.0,0.0,-1.0,-5.0,12595.0,-8985.0,-3108.0,4406.0,-14.0,-17.0,1.0,1.0
2022-05-23 16:09:35.887383-07:00,1108.6,721.6,1318.7,1179.7,1290.9,850.3,1734.9,1280.1,3463.7,3471.0,1163.0,873.8,1510.6,3457.6,1277.4,1122.6,3471.0,3475.9,1482.9,1986.6,2532.5,3361.2,1559.0,3481.9,3467.4,3488.0,680.7,806.9,1896.7,981.6,950.0,904.2,0.0,-6.0,-24.0,14077.0,-7920.0,2250.0,1578.0,77.0,-5.0,-4.0,0.0,3.0,-4.0,12601.0,-8974.0,-3107.0,4411.0,72.0,-10.0,0.0,1.0
2022-05-23 16:09:35.915099-07:00,1117.4,721.6,1318.7,1179.7,1330.5,853.7,1713.8,1280.1,3467.4,3471.0,1163.0,873.8,1514.3,3468.6,1281.0,1122.6,3471.0,3471.0,1479.2,1998.5,2532.5,3361.2,1559.0,3492.9,3467.4,3464.9,679.9,809.4,1896.7,981.6,950.0,920.3,13.0,10.0,15.0,14076.0,-7909.0,2285.0,1589.0,-5.0,121.0,95.0,4.0,11.0,-9.0,12619.0,-8949.0,-3100.0,4418.0,50.0,-2.0,2.0,1.0
2022-05-23 16:09:35.974976-07:00,1117.4,724.9,1328.7,1207.1,1330.5,853.7,1713.8,1267.6,3467.4,3452.8,1168.2,873.0,1514.3,3468.6,1281.0,1126.1,3467.4,3471.0,1479.2,1998.5,2536.8,3370.8,1563.7,3492.9,3467.4,3464.9,679.9,809.4,1886.9,1001.3,964.5,920.3,6.0,11.0,0.0,14063.0,-7914.0,2342.0,1601.0,-22.0,89.0,75.0,-4.0,3.0,-7.0,12622.0,-8943.0,-3096.0,4421.0,22.0,6.0,8.0,1.0
2022-05-23 16:09:36.034535-07:00,1114.7,724.9,1328.7,1207.1,1301.6,871.3,1720.5,1267.6,3466.1,3452.8,1168.2,873.0,1503.2,3467.4,1281.9,1126.1,3467.4,3478.3,1481.9,1988.5,2536.8,3370.8,1563.7,3492.9,3467.4,3479.5,672.5,807.7,1886.9,1001.3,964.5,918.6,8.0,0.0,-2.0,14045.0,-7934.0,2373.0,1609.0,-57.0,60.0,16.0,1.0,-1.0,-6.0,12618.0,-8950.0,-3097.0,4420.0,-18.0,-4.0,11.0,1.0
2022-05-23 16:09:36.064979-07:00,1114.7,722.5,1314.2,1190.3,1301.6,871.3,1720.5,1268.5,3466.1,3462.5,1169.1,870.5,1503.2,3467.4,1281.9,1133.1,3462.5,3478.3,1481.9,1988.5,2530.4,3366.0,1570.2,3492.9,3480.7,3479.5,672.5,807.7,1891.8,1001.3,962.0,918.6,16.0,6.0,11.0,14023.0,-7966.0,2405.0,1600.0,-164.0,127.0,54.0,8.0,14.0,-1.0,12607.0,-8964.0,-3100.0,4422.0,-109.0,-10.0,19.0,1.0
2022-05-23 16:09:36.157534-07:00,1121.7,730.7,1314.2,1190.3,1258.7,852.8,1718.6,1268.5,3468.6,3473.4,1169.1,870.5,1499.5,3475.9,1286.4,1133.1,3462.5,3474.6,1481.0,1978.6,2530.4,3366.0,1570.2,3494.1,3480.7,3478.3,680.7,804.4,1891.8,1001.3,952.6,913.5,-2.0,42.0,-1.0,13917.0,-8130.0,2487.0,1575.0,-536.0,322.0,-60.0,-5.0,17.0,9.0,12521.0,-9070.0,-3150.0,4415.0,-441.0,-67.0,26.0,1.0
2022-05-23 16:09:36.214794-07:00,1121.7,730.7,1299.8,1185.0,1258.7,852.8,1707.2,1274.7,3468.6,3473.4,1186.7,878.0,1499.5,3475.9,1305.2,1149.8,3469.8,3469.8,1481.0,1978.6,2532.5,3352.8,1570.2,3494.1,3471.0,3471.0,680.7,804.4,1893.8,997.9,952.6,913.5,19.0,-10.0,29.0,13763.0,-8370.0,2571.0,1534.0,-700.0,356.0,27.0,11.0,0.0,10.0,12432.0,-9184.0,-3196.0,4397.0,-461.0,14.0,12.0,1.0
2022-05-23 16:09:36.215976-07:00,1121.7,731.5,1299.8,1185.0,1225.7,858.7,1707.2,1274.7,3461.3,3472.2,1186.7,878.0,1506.0,3471.0,1305.2,1149.8,3469.8,3469.8,1477.3,1991.5,2532.5,3352.8,1575.8,3484.4,3471.0,3471.0,672.5,809.4,1893.8,997.9,952.6,917.7,10.0,48.0,11.0,13555.0,-8674.0,2690.0,1488.0,-925.0,464.0,-92.0,1.0,21.0,-7.0,12306.0,-9355.0,-3249.0,4351.0,-695.0,28.0,15.0,1.0
2022-05-23 16:09:36.275085-07:00,1121.7,731.5,1309.7,1176.2,1225.7,858.7,1680.5,1282.8,3461.3,3472.2,1201.8,882.3,1506.0,3471.0,1324.1,1145.4,3472.2,3469.8,1477.3,1991.5,2516.5,3370.8,1575.8,3484.4,3463.7,3464.9,672.5,809.4,1894.8,994.5,952.6,917.7,11.0,-6.0,29.0,13245.0,-9122.0,2787.0,1421.0,-1247.0,494.0,-94.0,8.0,-7.0,4.0,12090.0,-9641.0,-3332.0,4267.0,-1032.0,75.0,9.0,1.0
2022-05-23 16:09:36.335350-07:00,1125.2,725.8,1309.7,1176.2,1211.5,850.3,1680.5,1282.8,3464.9,3461.3,1201.8,882.3,1517.1,3478.3,1324.1,1145.4,3472.2,3469.8,1467.2,1986.6,2516.5,3370.8,1566.5,3480.7,3463.7,3464.9,681.5,811.9,1894.8,994.5,952.6,921.1,-6.0,8.0,-42.0,12998.0,-9464.0,2866.0,1312.0,-664.0,383.0,-285.0,0.0,-5.0,-22.0,11863.0,-9938.0,-3406.0,4163.0,-713.0,82.0,-18.0,1.0
2022-05-23 16:09:36.365096-07:00,1125.2,725.8,1299.0,1171.8,1211.5,857.9,1671.9,1248.8,3464.9,3461.3,1203.5,886.5,1517.1,3473.4,1332.3,1141.0,3468.6,3471.0,1476.4,1986.6,2514.3,3366.0,1566.5,3480.7,3468.6,3473.4,675.0,811.9,1894.8,989.3,952.6,921.1,-1.0,-51.0,-47.0,12850.0,-9682.0,2863.0,1175.0,-438.0,226.0,-264.0,-16.0,-19.0,-27.0,11691.0,-10155.0,-3462.0,4081.0,-551.0,47.0,-16.0,1.0
2022-05-23 16:09:36.424496-07:00,1122.6,732.3,1294.5,1171.8,1192.9,857.9,1671.9,1248.8,3473.4,3467.4,1207.1,886.5,1516.2,3473.4,1332.3,1141.0,3468.6,3471.0,1476.4,1978.6,2514.3,3361.2,1562.7,3492.9,3468.6,3473.4,675.0,811.0,1894.8,983.3,950.0,925.4,-4.0,-50.0,-53.0,12804.0,-9746.0,2881.0,1098.0,58.0,92.0,-67.0,-7.0,-19.0,-37.0,11599.0,-10269.0,-3491.0,4032.0,-51.0,31.0,-18.0,1.0
2022-05-23 16:09:36.485000-07:00,1122.6,732.3,1294.5,1176.2,1192.9,837.7,1680.5,1259.6,3473.4,3467.4,1207.1,890.7,1516.2,3471.0,1327.8,1150.6,3475.9,3469.8,1485.6,1978.6,2511.1,3361.2,1562.7,3492.9,3474.6,3469.8,679.9,811.0,1888.9,983.3,950.0,925.4,4.0,-30.0,-12.0,12830.0,-9708.0,2896.0,1094.0,183.0,-50.0,138.0,5.0,-1.0,-9.0,11612.0,-10257.0,-3485.0,4031.0,193.0,1.0,9.0,1.0
2022-05-23 16:09:36.515290-07:00,1118.2,721.6,1291.8,1176.2,1186.7,837.7,1680.5,1259.6,3467.4,3467.4,1192.0,890.7,1509.7,3471.0,1327.8,1150.6,3475.9,3469.8,1485.6,1978.6,2511.1,3352.8,1560.9,3488.0,3474.6,3469.8,679.9,805.2,1888.9,980.7,950.9,926.2,2.0,-1.0,-9.0,12900.0,-9598.0,2921.0,1162.0,306.0,-122.0,198.0,2.0,-1.0,0.0,11682.0,-10177.0,-3456.0,4056.0,326.0,3.0,8.0,1.0
2022-05-23 16:09:36.604683-07:00,1118.2,721.6,1291.8,1167.4,1186.7,840.3,1668.2,1259.6,3467.4,3467.4,1192.0,884.8,1509.7,3468.6,1320.5,1142.7,3475.9,3471.0,1475.5,1978.6,2509.0,3352.8,1560.9,3488.0,3471.0,3469.8,666.8,805.2,1897.7,980.7,950.9,926.2,2.0,21.0,6.0,12978.0,-9485.0,2920.0,1235.0,226.0,-136.0,145.0,-5.0,11.0,0.0,11765.0,-10081.0,-3420.0,4088.0,272.0,-10.0,15.0,1.0
2022-05-23 16:09:36.664680-07:00,1120.0,723.3,1290.0,1167.4,1197.4,840.3,1668.2,1259.6,3468.6,3455.2,1183.2,884.8,1509.7,3468.6,1320.5,1142.7,3475.9,3471.0,1475.5,1982.6,2509.0,3354.0,1555.3,3497.8,3471.0,3469.8,666.8,800.2,1897.7,985.9,940.7,923.7,2.0,26.0,21.0,13016.0,-9423.0,2934.0,1277.0,170.0,-35.0,108.0,0.0,7.0,10.0,11825.0,-10008.0,-3392.0,4115.0,201.0,-10.0,11.0,1.0
2022-05-23 16:09:36.666627-07:00,1120.0,723.3,1290.0,1168.2,1197.4,836.9,1670.1,1256.9,3468.6,3455.2,1183.2,883.1,1514.3,3464.9,1319.6,1142.7,3473.4,3474.6,1484.7,1973.7,2505.8,3354.0,1555.3,3497.8,3471.0,3480.7,684.0,803.5,1883.0,985.9,940.7,923.7,6.0,15.0,7.0,13056.0,-9363.0,2939.0,1299.0,106.0,-52.0,12.0,1.0,12.0,-3.0,11865.0,-9961.0,-3375.0,4128.0,108.0,10.0,-2.0,1.0
2022-05-23 16:09:36.784575-07:00,1122.6,739.7,1287.3,1178.8,1197.4,836.9,1670.1,1256.9,3464.9,3464.9,1181.5,876.4,1514.3,3464.9,1319.6,1142.7,3473.4,3474.6,1484.7,1973.7,2502.6,3360.0,1561.8,3481.9,3471.0,3480.7,684.0,803.5,1882.0,985.9,950.9,920.3,6.0,5.0,3.0,13074.0,-9336.0,2940.0,1306.0,35.0,20.0,30.0,-1.0,6.0,-9.0,11883.0,-9940.0,-3368.0,4134.0,43.0,3.0,0.0,1.0
2022-05-23 16:09:36.785771-07:00,1122.6,739.7,1287.3,1178.8,1181.5,828.5,1691.9,1252.4,3464.9,3464.9,1181.5,876.4,1511.5,3449.1,1315.1,1139.2,3466.1,3468.6,1466.3,1966.7,2502.6,3360.0,1561.8,3481.9,3473.4,3475.9,679.9,791.0,1882.0,985.9,950.9,920.3,0.0,-2.0,-5.0,13084.0,-9319.0,2951.0,1305.0,55.0,-12.0,24.0,0.0,2.0,-1.0,11893.0,-9927.0,-3363.0,4138.0,51.0,0.0,-2.0,1.0
2022-05-23 16:09:36.815089-07:00,1119.1,721.6,1288.2,1169.1,1181.5,828.5,1691.9,1252.4,3467.4,3468.6,1177.0,881.4,1511.5,3449.1,1315.1,1139.2,3466.1,3468.6,1466.3,1966.7,2505.8,3351.6,1557.1,3495.3,3473.4,3475.9,679.9,791.0,1897.7,977.3,947.5,920.3,1.0,-5.0,-10.0,13102.0,-9291.0,2950.0,1322.0,107.0,-70.0,45.0,-1.0,1.0,-7.0,11913.0,-9903.0,-3355.0,4145.0,104.0,-10.0,-2.0,1.0
2022-05-23 16:09:36.934731-07:00,1119.1,721.6,1288.2,1169.1,1159.4,836.9,1669.1,1281.0,3467.4,3468.6,1177.0,881.4,1507.8,3462.5,1316.0,1146.3,3478.3,3473.4,1472.7,1973.7,2505.8,3351.6,1557.1,3495.3,3475.9,3474.6,661.9,800.2,1897.7,977.3,947.5,920.3,9.0,7.0,11.0,13125.0,-9256.0,2947.0,1349.0,48.0,-29.0,77.0,1.0,3.0,0.0,11937.0,-9873.0,-3347.0,4155.0,76.0,-4.0,6.0,1.0
2022-05-23 16:09:36.937247-07:00,1123.5,718.4,1298.1,1162.1,1159.4,836.9,1669.1,1247.1,3460.1,3468.6,1188.5,879.7,1507.8,3462.5,1316.0,1139.2,3471.0,3473.4,1472.7,1973.7,2497.2,3355.2,1557.1,3490.5,3467.4,3474.6,661.9,800.2,1892.8,985.0,946.6,913.5,2.0,11.0,9.0,13137.0,-9232.0,2957.0,1368.0,24.0,18.0,24.0,-1.0,3.0,2.0,11951.0,-9857.0,-3341.0,4160.0,23.0,3.0,2.0,1.0
2022-05-23 16:09:36.994712-07:00,1119.1,718.4,1298.1,1162.1,1165.6,833.6,1658.7,1247.1,3471.0,3468.6,1188.5,879.7,1506.9,3471.0,1310.6,1139.2,3471.0,3477.1,1470.9,1962.8,2497.2,3355.2,1557.1,3489.2,3467.4,3478.3,669.3,798.5,1892.8,985.0,946.6,917.7,2.0,3.0,2.0,13140.0,-9226.0,2965.0,1366.0,-17.0,12.0,-11.0,-6.0,4.0,-7.0,11950.0,-9858.0,-3341.0,4159.0,-22.0,-3.0,1.0,1.0
2022-05-23 16:09:37.054203-07:00,1119.1,724.9,1289.1,1159.4,1165.6,833.6,1658.7,1248.8,3471.0,3473.4,1177.0,871.3,1506.9,3471.0,1310.6,1146.3,3471.0,3477.1,1470.9,1962.8,2501.5,3337.3,1552.5,3489.2,3477.1,3478.3,669.3,798.5,1892.8,980.7,939.8,917.7,2.0,2.0,-2.0,13134.0,-9231.0,2975.0,1362.0,3.0,45.0,26.0,1.0,2.0,-1.0,11950.0,-9858.0,-3341.0,4159.0,12.0,4.0,0.0,1.0
2022-05-23 16:09:37.084606-07:00,1122.6,724.9,1289.1,1159.4,1154.2,839.4,1653.0,1248.8,3462.5,3473.4,1177.0,871.3,1511.5,3466.1,1320.5,1146.3,3471.0,3472.2,1480.1,1965.7,2501.5,3337.3,1552.5,3481.9,3477.1,3472.2,668.4,795.2,1892.8,980.7,939.8,916.9,7.0,-9.0,-1.0,13133.0,-9230.0,2984.0,1362.0,41.0,-6.0,-9.0,-4.0,2.0,-3.0,11954.0,-9852.0,-3339.0,4161.0,47.0,6.0,-3.0,1.0
2022-05-23 16:09:37.115038-07:00,1122.6,724.1,1289.1,1169.1,1154.2,839.4,1653.0,1249.7,3462.5,3471.0,1175.3,878.9,1511.5,3466.1,1320.5,1136.6,3467.4,3472.2,1480.1,1965.7,2495.1,3355.2,1554.3,3481.9,3472.2,3472.2,668.4,795.2,1891.8,984.2,950.0,916.9,1.0,2.0,0.0,13144.0,-9215.0,2984.0,1361.0,44.0,-21.0,7.0,0.0,6.0,-2.0,11969.0,-9835.0,-3332.0,4165.0,58.0,7.0,2.0,1.0
2022-05-23 16:09:37.174659-07:00,1112.1,723.3,1289.1,1169.1,1144.5,831.1,1649.2,1249.7,3471.0,3466.1,1175.3,878.9,1505.1,3472.2,1319.6,1136.6,3467.4,3479.5,1483.8,1958.8,2495.1,3355.2,1553.4,3483.2,3472.2,3471.0,673.3,797.7,1891.8,984.2,937.3,911.0,15.0,-4.0,3.0,13154.0,-9201.0,2979.0,1367.0,41.0,-9.0,42.0,-1.0,0.0,-9.0,11981.0,-9820.0,-3327.0,4170.0,62.0,-1.0,4.0,1.0
2022-05-23 16:09:37.234637-07:00,1112.1,723.3,1296.3,1173.5,1144.5,831.1,1647.3,1256.9,3471.0,3466.1,1163.8,868.8,1505.1,3472.2,1309.7,1141.9,3478.3,3464.9,1483.8,1958.8,2507.9,3348.0,1553.4,3483.2,3467.4,3467.4,673.3,797.7,1896.7,968.8,937.3,911.0,12.0,-8.0,3.0,13171.0,-9172.0,2990.0,1375.0,116.0,6.0,35.0,-3.0,-2.0,-8.0,12003.0,-9793.0,-3317.0,4177.0,109.0,-1.0,0.0,1.0
2022-05-23 16:09:37.265109-07:00,1131.4,716.7,1296.3,1173.5,1152.4,830.2,1647.3,1256.9,3463.7,3467.4,1163.8,868.8,1518.0,3463.7,1309.7,1141.9,3478.3,3464.9,1470.0,1971.7,2507.9,3348.0,1548.7,3486.8,3467.4,3467.4,666.0,791.0,1896.7,968.8,950.0,918.6,-2.0,-13.0,-6.0,13209.0,-9109.0,3011.0,1384.0,156.0,-27.0,80.0,-6.0,-7.0,-1.0,12041.0,-9747.0,-3301.0,4190.0,170.0,3.0,2.0,1.0
2022-05-23 16:09:37.324520-07:00,1131.4,716.7,1299.8,1164.7,1152.4,830.2,1642.6,1234.6,3463.7,3467.4,1155.0,870.5,1518.0,3463.7,1312.4,1141.0,3473.4,3473.4,1470.0,1971.7,2506.9,3355.2,1548.7,3486.8,3475.9,3467.4,666.0,791.0,1895.8,979.9,950.0,918.6,-1.0,-9.0,-1.0,13271.0,-9008.0,3034.0,1398.0,336.0,-8.0,91.0,-4.0,0.0,-13.0,12107.0,-9665.0,-3272.0,4212.0,305.0,-6.0,-6.0,1.0
2022-05-23 16:09:37.385185-07:00,1129.6,720.8,1299.8,1164.7,1130.5,834.4,1642.6,1234.6,3472.2,3466.1,1155.0,870.5,1507.8,3471.0,1312.4,1141.0,3473.4,3473.4,1482.9,1966.7,2506.9,3355.2,1553.4,3491.7,3475.9,3467.4,674.2,800.2,1895.8,979.9,944.1,913.5,-3.0,-2.0,-20.0,13362.0,-8868.0,3047.0,1407.0,429.0,-112.0,49.0,0.0,-9.0,-9.0,12191.0,-9556.0,-3238.0,4242.0,374.0,-15.0,-12.0,1.0
2022-05-23 16:09:37.414566-07:00,1129.6,720.8,1288.2,1167.4,1130.5,834.4,1647.3,1243.5,3472.2,3466.1,1146.3,858.7,1507.8,3471.0,1310.6,1132.2,3467.4,3474.6,1482.9,1966.7,2509.0,3352.8,1553.4,3491.7,3469.8,3467.4,674.2,800.2,1893.8,981.6,944.1,913.5,-12.0,12.0,-14.0,13481.0,-8693.0,3017.0,1424.0,477.0,-199.0,63.0,-3.0,6.0,7.0,12292.0,-9422.0,-3200.0,4282.0,428.0,-27.0,1.0,1.0
2022-05-23 16:09:37.474565-07:00,1124.4,720.8,1293.6,1167.4,1129.6,836.9,1647.3,1243.5,3474.6,3464.9,1134.0,858.7,1499.5,3471.0,1310.6,1132.2,3467.4,3474.6,1470.0,1967.7,2509.0,3334.9,1558.1,3486.8,3469.8,3467.4,666.8,803.5,1893.8,984.2,942.4,917.7,-11.0,21.0,0.0,13589.0,-8546.0,2918.0,1493.0,244.0,-427.0,19.0,2.0,10.0,4.0,12385.0,-9298.0,-3157.0,4314.0,301.0,16.0,-6.0,1.0
2022-05-23 16:09:37.535377-07:00,1124.4,720.8,1293.6,1183.2,1129.6,829.4,1645.4,1251.5,3474.6,3464.9,1134.0,862.1,1499.5,3472.2,1314.2,1133.1,3473.4,3483.2,1479.2,1967.7,2513.3,3334.9,1558.1,3486.8,3467.4,3481.9,680.7,803.5,1887.9,984.2,942.4,917.7,21.0,0.0,46.0,13655.0,-8472.0,2791.0,1553.0,175.0,-245.0,-51.0,0.0,10.0,-19.0,12436.0,-9232.0,-3133.0,4330.0,177.0,5.0,-11.0,1.0
2022-05-23 16:09:37.565428-07:00,1126.1,715.9,1318.7,1183.2,1157.7,829.4,1645.4,1251.5,3457.6,3457.6,1128.7,862.1,1506.0,3472.2,1314.2,1133.1,3473.4,3483.2,1479.2,1965.7,2513.3,3352.8,1562.7,3485.6,3467.4,3481.9,680.7,806.0,1887.9,980.7,944.9,916.0,4.0,3.0,17.0,13693.0,-8429.0,2734.0,1558.0,87.0,-112.0,-37.0,3.0,7.0,-2.0,12467.0,-9192.0,-3121.0,4334.0,95.0,9.0,-11.0,1.0
2022-05-23 16:09:37.655019-07:00,1126.1,715.9,1318.7,1182.3,1157.7,837.7,1633.1,1264.0,3457.6,3457.6,1128.7,862.1,1506.0,3468.6,1309.7,1139.2,3474.6,3469.8,1469.0,1965.7,2514.3,3352.8,1562.7,3485.6,3475.9,3475.9,684.0,806.0,1896.7,980.7,944.9,916.0,9.0,7.0,11.0,13725.0,-8388.0,2703.0,1543.0,115.0,-24.0,-59.0,3.0,13.0,4.0,12487.0,-9165.0,-3113.0,4337.0,62.0,11.0,-13.0,1.0
2022-05-23 16:09:37.684524-07:00,1124.4,719.2,1332.3,1182.3,1157.7,837.7,1633.1,1264.0,3463.7,3461.3,1125.2,862.1,1507.8,3468.6,1309.7,1139.2,3474.6,3469.8,1469.0,1968.7,2514.3,3344.4,1553.4,3497.8,3475.9,3475.9,684.0,811.0,1896.7,972.2,946.6,909.3,0.0,6.0,-10.0,13740.0,-8377.0,2673.0,1526.0,6.0,-64.0,-76.0,-1.0,1.0,-1.0,12489.0,-9163.0,-3114.0,4337.0,-21.0,-20.0,-4.0,1.0
2022-05-23 16:09:37.714900-07:00,1124.4,719.2,1332.3,1173.5,1188.5,830.2,1650.2,1240.8,3463.7,3461.3,1125.2,849.5,1507.8,3457.6,1299.0,1136.6,3467.4,3468.6,1470.9,1969.7,2504.7,3344.4,1553.4,3497.8,3469.8,3467.4,678.2,813.5,1866.4,972.2,946.6,909.3,3.0,-5.0,-5.0,13761.0,-8362.0,2619.0,1512.0,103.0,-125.0,-101.0,1.0,-8.0,-9.0,12487.0,-9158.0,-3124.0,4345.0,36.0,-36.0,-1.0,1.0
2022-05-23 16:09:37.774240-07:00,1120.0,710.1,1308.8,1174.4,1188.5,830.2,1650.2,1240.8,3468.6,3472.2,1127.0,852.8,1507.8,3457.6,1299.0,1136.6,3467.4,3468.6,1470.9,1969.7,2514.3,3337.3,1561.8,3488.0,3469.8,3467.4,678.2,813.5,1896.7,980.7,945.8,905.0,0.0,2.0,-16.0,13807.0,-8310.0,2548.0,1497.0,171.0,-175.0,-97.0,0.0,4.0,0.0,12495.0,-9140.0,-3130.0,4356.0,59.0,-50.0,7.0,1.0
2022-05-23 16:09:37.834633-07:00,1120.0,710.1,1308.8,1174.4,1196.5,836.9,1651.1,1247.1,3468.6,3472.2,1127.0,852.8,1506.9,3467.4,1300.7,1132.2,3464.9,3469.8,1474.6,1970.7,2514.3,3337.3,1561.8,3488.0,3473.4,3462.5,672.5,811.0,1896.7,980.7,945.8,905.0,-13.0,15.0,-15.0,13855.0,-8262.0,2433.0,1512.0,50.0,-358.0,-103.0,2.0,8.0,19.0,12504.0,-9117.0,-3140.0,4372.0,35.0,-39.0,0.0,1.0
2022-05-23 16:09:37.865031-07:00,1125.2,720.8,1367.6,1185.9,1196.5,836.9,1651.1,1247.1,3469.8,3469.8,1141.9,868.8,1506.9,3467.4,1300.7,1132.2,3464.9,3469.8,1474.6,1970.7,2512.2,3340.8,1549.7,3495.3,3473.4,3462.5,672.5,811.0,1905.6,980.7,945.8,916.0,37.0,-43.0,44.0,13886.0,-8247.0,2284.0,1543.0,188.0,-222.0,-136.0,0.0,3.0,-16.0,12512.0,-9101.0,-3145.0,4380.0,131.0,-22.0,-12.0,1.0
2022-05-23 16:09:37.954355-07:00,1125.2,720.8,1367.6,1185.9,1310.6,843.6,1643.5,1245.3,3469.8,3469.8,1141.9,868.8,1503.2,3464.9,1296.3,1137.5,3471.0,3473.4,1471.8,1977.6,2512.2,3340.8,1549.7,3495.3,3474.6,3473.4,679.9,813.5,1905.6,980.7,945.8,916.0,-7.0,6.0,-4.0,13920.0,-8208.0,2229.0,1526.0,9.0,-142.0,-61.0,7.0,17.0,20.0,12531.0,-9072.0,-3139.0,4388.0,-12.0,10.0,-4.0,1.0
2022-05-23 16:09:38.044589-07:00,1127.0,718.4,1343.1,1171.8,1310.6,843.6,1643.5,1230.2,3468.6,3478.3,1139.2,859.5,1503.2,3464.9,1296.3,1128.7,3473.4,3473.4,1471.8,1977.6,2514.3,3334.9,1545.9,3488.0,3469.8,3473.4,679.9,813.5,1892.8,985.9,940.7,905.0,28.0,-24.0,0.0,13927.0,-8204.0,2152.0,1596.0,78.0,-209.0,90.0,1.0,-13.0,-28.0,12531.0,-9072.0,-3137.0,4389.0,102.0,-12.0,20.0,1.0
2022-05-23 16:09:38.104403-07:00,1120.9,718.4,1343.1,1171.8,1256.9,837.7,1636.0,1230.2,3478.3,3478.3,1139.2,859.5,1507.8,3468.6,1298.1,1128.7,3473.4,3466.1,1477.3,1959.8,2514.3,3334.9,1545.9,3484.4,3469.8,3464.9,670.9,805.2,1892.8,985.9,940.7,910.1,3.0,5.0,4.0,13970.0,-8129.0,2120.0,1644.0,201.0,-116.0,53.0,-4.0,1.0,-3.0,12560.0,-9026.0,-3123.0,4410.0,156.0,-25.0,10.0,1.0
2022-05-23 16:09:38.105334-07:00,1120.9,728.2,1326.8,1163.8,1256.9,837.7,1636.0,1239.9,3478.3,3468.6,1138.4,858.7,1507.8,3468.6,1298.1,1131.4,3479.5,3466.1,1477.3,1959.8,2510.1,3346.8,1546.9,3484.4,3472.2,3464.9,670.9,805.2,1890.9,977.3,939.0,910.1,4.0,10.0,-8.0,14016.0,-8053.0,2097.0,1654.0,216.0,-95.0,-29.0,3.0,4.0,0.0,12587.0,-8982.0,-3114.0,4430.0,99.0,-31.0,10.0,1.0
2022-05-23 16:09:38.107191-07:00,1116.5,728.2,1326.8,1163.8,1256.0,848.6,1673.8,1239.9,3460.1,3468.6,1138.4,858.7,1499.5,3463.7,1292.7,1131.4,3479.5,3488.0,1478.3,1970.7,2510.1,3346.8,1546.9,3488.0,3472.2,3483.2,675.8,805.2,1890.9,977.3,939.0,915.2,32.0,22.0,17.0,14074.0,-7964.0,2057.0,1645.0,153.0,-56.0,-27.0,4.0,22.0,2.0,12614.0,-8939.0,-3106.0,4444.0,132.0,12.0,-11.0,1.0
2022-05-23 16:09:38.165275-07:00,1116.5,725.8,1333.2,1170.9,1256.0,848.6,1673.8,1223.9,3460.1,3474.6,1138.4,857.9,1499.5,3463.7,1292.7,1130.5,3478.3,3488.0,1478.3,1970.7,2519.7,3342.0,1549.7,3488.0,3463.7,3483.2,675.8,805.2,1876.2,979.9,940.7,915.2,-7.0,25.0,-2.0,14076.0,-7957.0,2070.0,1646.0,25.0,-6.0,-16.0,1.0,10.0,1.0,12630.0,-8922.0,-3093.0,4444.0,-5.0,34.0,-5.0,1.0
2022-05-23 16:09:38.254668-07:00,1117.4,725.8,1333.2,1170.9,1327.8,839.4,1626.5,1223.9,3472.2,3474.6,1138.4,857.9,1506.9,3461.3,1281.0,1130.5,3478.3,3466.1,1477.3,1975.6,2519.7,3342.0,1549.7,3481.9,3463.7,3478.3,667.6,787.7,1876.2,979.9,940.7,902.5,5.0,-6.0,-7.0,14086.0,-7943.0,2059.0,1639.0,94.0,-23.0,-22.0,-2.0,0.0,-9.0,12633.0,-8925.0,-3085.0,4437.0,45.0,23.0,-8.0,1.0
2022-05-23 16:09:38.284659-07:00,1117.4,733.2,1323.2,1170.0,1327.8,839.4,1640.7,1238.2,3472.2,3466.1,1137.5,854.5,1506.9,3461.3,1290.0,1120.0,3471.0,3468.6,1477.3,1975.6,2519.7,3337.3,1545.9,3481.9,3472.2,3472.2,667.6,787.7,1887.9,980.7,944.1,902.5,11.0,3.0,6.0,14101.0,-7920.0,2050.0,1632.0,-9.0,14.0,-1.0,5.0,5.0,6.0,12637.0,-8922.0,-3077.0,4434.0,-13.0,27.0,1.0,1.0
2022-05-23 16:09:38.344599-07:00,1127.0,720.0,1323.2,1170.0,1290.9,850.3,1640.7,1238.2,3457.6,3467.4,1137.5,854.5,1507.8,3471.0,1290.0,1120.0,3471.0,3468.6,1474.6,1975.6,2519.7,3337.3,1550.6,3477.1,3472.2,3472.2,677.4,797.7,1887.9,980.7,950.0,891.5,14.0,5.0,21.0,14091.0,-7937.0,2054.0,1630.0,-78.0,57.0,-27.0,1.0,1.0,-5.0,12631.0,-8943.0,-3069.0,4416.0,-91.0,50.0,-12.0,1.0
2022-05-23 16:09:38.374270-07:00,1127.0,720.0,1318.7,1155.0,1290.9,850.3,1651.1,1224.8,3457.6,3467.4,1134.0,857.0,1507.8,3471.0,1284.6,1127.9,3475.9,3472.2,1474.6,1975.6,2514.3,3350.4,1550.6,3477.1,3473.4,3473.4,677.4,797.7,1891.8,982.5,950.0,891.5,15.0,34.0,19.0,14085.0,-7955.0,2069.0,1576.0,-190.0,186.0,-128.0,12.0,22.0,10.0,12618.0,-8978.0,-3063.0,4385.0,-131.0,89.0,-38.0,1.0
2022-05-23 16:09:38.464704-07:00,1126.1,725.8,1318.7,1155.0,1256.0,857.0,1651.1,1224.8,3461.3,3462.5,1134.0,857.0,1500.4,3471.0,1284.6,1127.9,3475.9,3472.2,1474.6,1964.7,2514.3,3350.4,1550.6,3473.4,3473.4,3473.4,679.9,800.2,1891.8,982.5,949.2,904.2,9.0,12.0,9.0,14013.0,-8078.0,2132.0,1506.0,-384.0,364.0,-64.0,-4.0,2.0,5.0,12564.0,-9079.0,-3071.0,4328.0,-322.0,93.0,-33.0,1.0
2022-05-23 16:09:38.465819-07:00,1126.1,725.8,1304.3,1142.7,1256.0,857.0,1636.0,1222.2,3461.3,3462.5,1118.2,847.8,1500.4,3471.0,1285.5,1132.2,3464.9,3483.2,1474.6,1964.7,2509.0,3340.8,1550.6,3473.4,3475.9,3478.3,679.9,800.2,1888.9,980.7,949.2,904.2,-6.0,17.0,-15.0,13913.0,-8242.0,2224.0,1408.0,-451.0,349.0,-143.0,-4.0,17.0,7.0,12486.0,-9210.0,-3091.0,4262.0,-390.0,100.0,-46.0,1.0
2022-05-23 16:09:38.524482-07:00,1112.1,723.3,1309.7,1142.7,1249.7,873.8,1636.0,1222.2,3469.8,3468.6,1114.7,847.8,1506.0,3464.9,1285.5,1132.2,3464.9,3483.2,1470.0,1973.7,2509.0,3352.8,1555.3,3483.2,3475.9,3478.3,681.5,796.0,1888.9,979.0,945.8,904.2,45.0,1.0,17.0,13775.0,-8454.0,2338.0,1321.0,-560.0,630.0,-3.0,2.0,10.0,-26.0,12380.0,-9373.0,-3128.0,4185.0,-492.0,63.0,-48.0,1.0
2022-05-23 16:09:38.584693-07:00,1112.1,723.3,1309.7,1142.7,1249.7,894.1,1729.1,1256.9,3469.8,3468.6,1114.7,849.5,1506.0,3472.2,1281.0,1127.9,3474.6,3462.5,1476.4,1973.7,2513.3,3352.8,1555.3,3483.2,3472.2,3474.6,692.9,796.0,1888.9,979.0,945.8,904.2,83.0,19.0,-40.0,13573.0,-8717.0,2608.0,1194.0,-897.0,1019.0,24.0,0.0,-9.0,-33.0,12290.0,-9509.0,-3163.0,4118.0,-345.0,73.0,-52.0,1.0
2022-05-23 16:09:38.615086-07:00,1140.1,725.8,1274.7,1142.7,1227.5,894.1,1729.1,1256.9,3463.7,3458.9,1115.6,849.5,1511.5,3472.2,1281.0,1127.9,3474.6,3462.5,1476.4,1964.7,2513.3,3357.6,1572.1,3486.8,3472.2,3474.6,692.9,802.7,1888.9,986.7,935.6,897.4,-102.0,32.0,15.0,13268.0,-9086.0,2979.0,981.0,-971.0,968.0,-158.0,11.0,38.0,79.0,12193.0,-9648.0,-3197.0,4057.0,-594.0,100.0,-44.0,1.0
2022-05-23 16:09:38.674849-07:00,1140.1,725.8,1274.7,1106.9,1227.5,984.2,1797.4,1354.0,3463.7,3458.9,1115.6,848.6,1511.5,3467.4,1250.6,1114.7,3466.1,3462.5,1505.1,1964.7,2500.4,3357.6,1572.1,3486.8,3474.6,3471.0,710.1,802.7,1889.9,986.7,935.6,897.4,20.0,-16.0,-2.0,12972.0,-9477.0,3109.0,828.0,-1262.0,265.0,-387.0,-3.0,-9.0,-7.0,11994.0,-9927.0,-3260.0,3926.0,-906.0,119.0,-70.0,1.0
2022-05-23 16:09:38.704545-07:00,1114.7,737.3,1202.7,1106.9,1197.4,984.2,1797.4,1354.0,3471.0,3456.4,1109.5,848.6,1500.4,3467.4,1250.6,1114.7,3466.1,3462.5,1505.1,2001.5,2500.4,3360.0,1589.9,3481.9,3474.6,3471.0,710.1,797.7,1889.9,964.5,933.0,909.3,-35.0,13.0,-45.0,12643.0,-9919.0,3107.0,741.0,-1215.0,173.0,-216.0,-13.0,-4.0,-12.0,11767.0,-10219.0,-3340.0,3794.0,-971.0,95.0,-79.0,1.0
2022-05-23 16:09:38.764988-07:00,1114.7,737.3,1202.7,1059.1,1177.9,965.4,1802.3,1405.8,3471.0,3456.4,1109.5,842.8,1506.0,3466.1,1217.7,1112.1,3468.6,3468.6,1533.8,1980.6,2494.0,3360.0,1589.9,3481.9,3474.6,3469.8,703.6,792.7,1888.9,964.5,933.0,909.3,0.0,-23.0,-17.0,12341.0,-10316.0,3029.0,731.0,-923.0,-90.0,-368.0,-6.0,-16.0,-30.0,11520.0,-10507.0,-3437.0,3677.0,-866.0,23.0,-53.0,1.0
2022-05-23 16:09:38.824782-07:00,1132.2,730.7,1175.3,1036.6,1177.9,965.4,1802.3,1405.8,3461.3,3471.0,1105.1,845.3,1506.0,3466.1,1217.7,1112.1,3468.6,3468.6,1533.8,1980.6,2502.6,3361.2,1593.6,3474.6,3474.6,3469.8,703.6,792.7,1892.8,965.4,924.5,898.3,33.0,-51.0,5.0,12141.0,-10588.0,2904.0,708.0,-616.0,61.0,-144.0,-4.0,-10.0,-42.0,11346.0,-10697.0,-3504.0,3605.0,-485.0,3.0,-14.0,1.0
2022-05-23 16:09:38.854537-07:00,1132.2,730.7,1175.3,1036.6,1163.0,947.5,1842.0,1443.3,3461.3,3471.0,1105.1,845.3,1505.1,3466.1,1198.2,1102.5,3474.6,3463.7,1536.6,1976.6,2502.6,3361.2,1593.6,3474.6,3475.9,3467.4,696.2,782.7,1892.8,965.4,924.5,898.3,9.0,-24.0,-16.0,11978.0,-10762.0,2944.0,701.0,-369.0,164.0,100.0,5.0,-16.0,-30.0,11251.0,-10798.0,-3534.0,3572.0,-220.0,15.0,-4.0,1.0
2022-05-23 16:09:38.915763-07:00,1125.2,739.7,1163.8,1036.6,1163.0,947.5,1842.0,1443.3,3461.3,3467.4,1100.8,845.3,1505.1,3466.1,1198.2,1102.5,3474.6,3463.7,1536.6,1976.6,2496.2,3362.4,1597.4,3488.0,3475.9,3467.4,696.2,782.7,1884.0,960.2,917.7,905.0,11.0,-12.0,-26.0,11931.0,-10793.0,3019.0,692.0,181.0,168.0,118.0,1.0,-5.0,-24.0,11263.0,-10783.0,-3531.0,3583.0,203.0,-29.0,16.0,1.0
2022-05-23 16:09:38.974334-07:00,1125.2,739.7,1163.8,1036.6,1145.4,938.1,1803.2,1454.3,3461.3,3467.4,1100.8,845.3,1505.1,3471.0,1192.0,1102.5,3473.4,3464.9,1549.7,1970.7,2496.2,3362.4,1597.4,3488.0,3479.5,3468.6,700.3,778.6,1884.0,960.2,917.7,905.0,-5.0,23.0,-1.0,11974.0,-10718.0,3114.0,694.0,200.0,27.0,215.0,4.0,10.0,2.0,11326.0,-10714.0,-3505.0,3617.0,216.0,-9.0,32.0,1.0
2022-05-23 16:09:39.004321-07:00,1114.7,732.3,1141.0,1025.4,1145.4,938.1,1803.2,1454.3,3473.4,3463.7,1096.4,843.6,1505.1,3471.0,1192.0,1102.5,3473.4,3464.9,1549.7,1970.7,2489.8,3369.6,1602.1,3485.6,3479.5,3468.6,700.3,778.6,1885.0,956.8,915.2,895.7,19.0,10.0,18.0,12024.0,-10650.0,3150.0,721.0,209.0,1.0,-21.0,-3.0,-1.0,-2.0,11362.0,-10672.0,-3490.0,3642.0,124.0,-23.0,18.0,1.0
2022-05-23 16:09:39.065061-07:00,1125.2,732.3,1141.0,1025.4,1146.3,936.4,1779.1,1420.4,3468.6,3463.7,1096.4,843.6,1497.7,3472.2,1190.3,1098.2,3468.6,3472.2,1545.0,1974.6,2489.8,3369.6,1602.1,3489.2,3472.2,3479.5,687.2,767.8,1885.0,956.8,915.2,900.8,-17.0,27.0,16.0,12070.0,-10596.0,3163.0,687.0,-12.0,32.0,-14.0,3.0,14.0,20.0,11379.0,-10652.0,-3485.0,3652.0,-15.0,9.0,3.0,1.0
2022-05-23 16:09:39.124391-07:00,1125.2,738.1,1152.4,1034.0,1146.3,936.4,1779.1,1404.0,3468.6,3468.6,1101.7,839.4,1497.7,3472.2,1190.3,1100.8,3468.6,3472.2,1545.0,1974.6,2486.6,3351.6,1596.4,3489.2,3478.3,3479.5,687.2,767.8,1887.9,956.0,912.7,900.8,8.0,0.0,19.0,12063.0,-10608.0,3148.0,685.0,-7.0,-14.0,-67.0,1.0,2.0,-6.0,11362.0,-10672.0,-3488.0,3643.0,-46.0,13.0,-5.0,1.0
2022-05-23 16:09:39.184663-07:00,1127.9,738.1,1152.4,1034.0,1140.1,945.8,1786.8,1404.0,3469.8,3468.6,1101.7,839.4,1499.5,3468.6,1192.9,1100.8,3468.6,3474.6,1538.5,1966.7,2486.6,3351.6,1596.4,3481.9,3478.3,3478.3,676.6,779.4,1887.9,956.0,912.7,903.4,10.0,5.0,11.0,12067.0,-10608.0,3136.0,668.0,0.0,49.0,4.0,1.0,4.0,-10.0,11356.0,-10680.0,-3488.0,3639.0,-4.0,10.0,-2.0,1.0
2022-05-23 16:09:39.214881-07:00,1127.9,728.2,1141.0,1024.5,1140.1,945.8,1786.8,1404.0,3469.8,3474.6,1099.0,844.4,1499.5,3468.6,1192.9,1099.9,3468.6,3474.6,1538.5,1966.7,2475.9,3364.8,1612.4,3481.9,3479.5,3478.3,676.6,779.4,1887.9,952.6,915.2,903.4,-4.0,4.0,-9.0,12062.0,-10611.0,3148.0,663.0,47.0,-9.0,-6.0,-1.0,-4.0,-13.0,11353.0,-10683.0,-3489.0,3638.0,14.0,5.0,-3.0,1.0
2022-05-23 16:09:39.274660-07:00,1115.6,728.2,1141.0,1024.5,1132.2,939.0,1779.1,1404.0,3467.4,3474.6,1099.0,844.4,1510.6,3479.5,1189.4,1099.9,3468.6,3468.6,1545.0,1965.7,2475.9,3364.8,1612.4,3489.2,3479.5,3469.8,680.7,765.3,1887.9,952.6,915.2,902.5,7.0,-2.0,7.0,12088.0,-10584.0,3138.0,664.0,139.0,-48.0,2.0,-2.0,0.0,-8.0,11368.0,-10666.0,-3486.0,3645.0,89.0,-17.0,9.0,1.0
2022-05-23 16:09:39.304196-07:00,1115.6,734.8,1136.6,1013.3,1132.2,939.0,1764.6,1381.2,3467.4,3467.4,1092.1,841.1,1510.6,3479.5,1186.7,1089.5,3471.0,3474.6,1545.0,1965.7,2487.6,3339.6,1602.1,3489.2,3468.6,3472.2,680.7,765.3,1891.8,954.3,916.9,902.5,0.0,8.0,18.0,12121.0,-10546.0,3138.0,666.0,31.0,13.0,55.0,6.0,9.0,4.0,11387.0,-10640.0,-3485.0,3661.0,51.0,-30.0,11.0,1.0
2022-05-23 16:09:39.365018-07:00,1116.5,733.2,1136.6,1013.3,1130.5,935.6,1764.6,1381.2,3469.8,3474.6,1092.1,841.1,1505.1,3456.4,1186.7,1089.5,3471.0,3474.6,1536.6,1968.7,2487.6,3339.6,1604.0,3485.6,3468.6,3472.2,679.9,759.6,1891.8,954.3,912.7,895.7,9.0,8.0,14.0,12135.0,-10529.0,3140.0,678.0,73.0,-43.0,-5.0,3.0,7.0,1.0,11400.0,-10624.0,-3484.0,3669.0,53.0,-6.0,0.0,1.0
2022-05-23 16:09:39.424342-07:00,1116.5,733.2,1137.5,1021.9,1130.5,935.6,1762.7,1389.4,3469.8,3474.6,1093.8,838.6,1505.1,3456.4,1190.3,1093.8,3467.4,3467.4,1536.6,1968.7,2482.3,3355.2,1604.0,3485.6,3471.0,3473.4,679.9,759.6,1886.9,952.6,912.7,895.7,22.0,14.0,11.0,12154.0,-10509.0,3132.0,680.0,41.0,38.0,3.0,2.0,2.0,-11.0,11407.0,-10617.0,-3482.0,3672.0,27.0,14.0,2.0,1.0
2022-05-23 16:09:39.454732-07:00,1128.7,721.6,1137.5,1021.9,1126.1,946.6,1762.7,1389.4,3462.5,3464.9,1093.8,838.6,1506.0,3475.9,1190.3,1093.8,3467.4,3467.4,1541.3,1958.8,2482.3,3355.2,1601.1,3480.7,3471.0,3473.4,681.5,761.2,1886.9,952.6,919.4,918.6,1.0,-3.0,4.0,12156.0,-10503.0,3148.0,664.0,50.0,34.0,-8.0,-3.0,-3.0,-8.0,11410.0,-10614.0,-3479.0,3671.0,30.0,-4.0,6.0,1.0
2022-05-23 16:09:39.514812-07:00,1128.7,721.6,1124.4,1010.8,1126.1,946.6,1746.4,1387.5,3462.5,3464.9,1089.5,842.8,1506.0,3475.9,1189.4,1098.2,3466.1,3474.6,1541.3,1958.8,2485.5,3331.3,1601.1,3480.7,3469.8,3467.4,681.5,761.2,1895.8,961.1,919.4,918.6,-2.0,-1.0,27.0,12174.0,-10479.0,3161.0,646.0,106.0,87.0,38.0,5.0,3.0,0.0,11426.0,-10594.0,-3475.0,3684.0,116.0,-28.0,14.0,1.0
2022-05-23 16:09:39.604433-07:00,1117.4,724.1,1123.5,1010.8,1119.1,967.1,1746.4,1387.5,3461.3,3464.9,1096.4,842.8,1500.4,3464.9,1189.4,1098.2,3466.1,3474.6,1542.2,1965.7,2485.5,3362.4,1590.8,3488.0,3469.8,3467.4,679.9,760.4,1895.8,959.4,906.7,889.8,1.0,18.0,0.0,12200.0,-10439.0,3197.0,630.0,66.0,14.0,21.0,6.0,4.0,1.0,11454.0,-10562.0,-3466.0,3698.0,60.0,5.0,6.0,1.0
2022-05-23 16:09:39.605448-07:00,1117.4,724.1,1123.5,1003.0,1119.1,1017.6,1747.3,1386.6,3461.3,3464.9,1096.4,837.7,1500.4,3467.4,1194.7,1092.1,3474.6,3467.4,1542.2,1965.7,2479.1,3362.4,1590.8,3488.0,3462.5,3469.8,670.9,760.4,1888.9,959.4,906.7,889.8,1.0,16.0,2.0,12215.0,-10421.0,3199.0,633.0,38.0,-50.0,-17.0,0.0,9.0,-5.0,11463.0,-10554.0,-3459.0,3698.0,-1.0,14.0,-1.0,1.0
2022-05-23 16:09:39.665220-07:00,1117.4,739.7,1130.5,1003.0,1120.9,1017.6,1747.3,1386.6,3469.8,3466.1,1093.8,837.7,1507.8,3467.4,1194.7,1092.1,3474.6,3467.4,1542.2,1958.8,2479.1,3352.8,1593.6,3497.8,3462.5,3469.8,670.9,761.2,1888.9,958.5,914.4,896.6,8.0,7.0,18.0,12226.0,-10413.0,3185.0,630.0,3.0,26.0,-10.0,1.0,3.0,-6.0,11465.0,-10556.0,-3455.0,3693.0,-13.0,17.0,3.0,1.0
2022-05-23 16:09:39.724318-07:00,1117.4,739.7,1130.5,1003.9,1120.9,1004.8,1725.3,1382.1,3469.8,3466.1,1093.8,844.4,1507.8,3469.8,1185.9,1089.5,3475.9,3468.6,1531.0,1958.8,2487.6,3352.8,1593.6,3497.8,3477.1,3472.2,670.1,761.2,1888.9,958.5,914.4,896.6,-11.0,17.0,-7.0,12227.0,-10410.0,3193.0,613.0,15.0,-3.0,-48.0,-2.0,4.0,0.0,11463.0,-10562.0,-3450.0,3686.0,-25.0,24.0,-6.0,1.0
2022-05-23 16:09:39.784687-07:00,1117.4,728.2,1129.6,1003.9,1122.6,1004.8,1725.3,1382.1,3468.6,3463.7,1092.1,844.4,1506.0,3469.8,1185.9,1089.5,3475.9,3468.6,1531.0,1959.8,2487.6,3352.8,1595.5,3488.0,3477.1,3472.2,670.1,756.3,1888.9,963.7,916.0,894.9,1.0,0.0,3.0,12234.0,-10413.0,3156.0,608.0,4.0,-101.0,-69.0,-3.0,-1.0,-9.0,11453.0,-10574.0,-3451.0,3680.0,-28.0,-6.0,-6.0,1.0
2022-05-23 16:09:39.844627-07:00,1117.4,728.2,1129.6,1013.3,1122.6,1001.3,1736.8,1383.0,3468.6,3463.7,1092.1,838.6,1506.0,3461.3,1186.7,1105.1,3467.4,3466.1,1532.9,1959.8,2485.5,3352.8,1595.5,3488.0,3474.6,3469.8,673.3,756.3,1875.2,963.7,916.0,894.9,2.0,-1.0,12.0,12252.0,-10400.0,3131.0,602.0,83.0,20.0,5.0,4.0,5.0,-4.0,11454.0,-10571.0,-3453.0,3684.0,52.0,-18.0,2.0,1.0
2022-05-23 16:09:39.874254-07:00,1124.4,730.7,1134.9,1009.9,1115.6,1001.3,1736.8,1383.0,3467.4,3468.6,1088.6,842.8,1507.8,3461.3,1186.7,1105.1,3467.4,3466.1,1532.9,1963.7,2498.3,3349.2,1596.4,3479.5,3474.6,3469.8,673.3,754.6,1886.0,949.2,917.7,897.4,-8.0,14.0,-6.0,12275.0,-10375.0,3122.0,602.0,91.0,-115.0,-44.0,-3.0,6.0,-6.0,11463.0,-10557.0,-3456.0,3693.0,23.0,-26.0,-8.0,1.0
2022-05-23 16:09:39.906519-07:00,1124.4,730.7,1134.9,1009.9,1105.1,991.0,1739.7,1383.0,3467.4,3468.6,1088.6,842.8,1495.8,3463.7,1184.1,1088.6,3474.6,3467.4,1536.6,1959.8,2498.3,3349.2,1596.4,3479.5,3474.6,3467.4,674.2,765.3,1886.0,949.2,917.7,897.4,-21.0,-25.0,19.0,12319.0,-10339.0,3066.0,610.0,202.0,-130.0,-61.0,-5.0,-9.0,-5.0,11467.0,-10547.0,-3463.0,3704.0,72.0,-33.0,1.0,1.0
2022-05-23 16:09:39.994358-07:00,1126.1,724.1,1159.4,1028.8,1105.1,991.0,1739.7,1383.0,3472.2,3467.4,1092.9,841.1,1495.8,3463.7,1184.1,1088.6,3474.6,3467.4,1536.6,1959.8,2479.1,3342.0,1589.9,3483.2,3474.6,3467.4,674.2,765.3,1883.0,967.1,918.6,894.9,-39.0,-55.0,-90.0,12451.0,-10201.0,2995.0,610.0,826.0,-465.0,-20.0,-6.0,-17.0,13.0,11502.0,-10502.0,-3459.0,3726.0,261.0,-23.0,-1.0,1.0
2022-05-23 16:09:40.024531-07:00,1126.1,724.1,1159.4,1028.8,1134.0,979.0,1742.6,1377.5,3472.2,3467.4,1092.9,841.1,1498.6,3464.9,1212.4,1099.0,3468.6,3474.6,1525.5,1959.8,2479.1,3342.0,1589.9,3483.2,3469.8,3479.5,675.0,802.7,1883.0,967.1,918.6,894.9,25.0,-134.0,-58.0,12751.0,-9876.0,2781.0,769.0,1346.0,-920.0,293.0,-11.0,-60.0,-85.0,11664.0,-10319.0,-3404.0,3782.0,902.0,-31.0,8.0,1.0
2022-05-23 16:09:40.084630-07:00,1114.7,724.9,1261.3,1104.3,1134.0,979.0,1742.6,1377.5,3464.9,3469.8,1101.7,847.0,1498.6,3464.9,1212.4,1099.0,3468.6,3474.6,1525.5,1959.8,2485.5,3351.6,1595.5,3497.8,3469.8,3479.5,675.0,802.7,1886.9,970.5,945.8,899.1,-20.0,35.0,-93.0,13265.0,-9194.0,2633.0,1001.0,1919.0,-891.0,623.0,-10.0,15.0,-18.0,12036.0,-9852.0,-3279.0,3969.0,1765.0,-174.0,101.0,1.0
2022-05-23 16:09:40.144619-07:00,1122.6,724.9,1261.3,1104.3,1150.6,963.7,1779.1,1373.0,3462.5,3469.8,1101.7,847.0,1503.2,3464.9,1215.1,1100.8,3475.9,3468.6,1515.3,1969.7,2485.5,3351.6,1595.5,3485.6,3478.3,3472.2,659.5,811.9,1886.9,970.5,945.8,905.9,81.0,23.0,41.0,13666.0,-8568.0,2518.0,1383.0,1377.0,-797.0,809.0,16.0,22.0,-17.0,12395.0,-9350.0,-3136.0,4188.0,1403.0,-164.0,141.0,1.0
2022-05-23 16:09:40.174240-07:00,1122.6,729.0,1289.1,1131.4,1150.6,963.7,1779.1,1355.8,3462.5,3473.4,1092.1,837.7,1503.2,3464.9,1215.1,1097.3,3475.9,3468.6,1515.3,1969.7,2496.2,3342.0,1588.9,3485.6,3464.9,3472.2,659.5,811.9,1881.1,956.0,944.9,905.9,20.0,108.0,32.0,13982.0,-8000.0,2488.0,1656.0,1191.0,-473.0,374.0,16.0,55.0,35.0,12683.0,-8910.0,-3009.0,4373.0,1173.0,-141.0,109.0,1.0
2022-05-23 16:09:40.204470-07:00,1125.2,729.0,1289.1,1131.4,1143.6,940.7,1779.1,1355.8,3475.9,3473.4,1092.1,837.7,1494.9,3478.3,1215.1,1097.3,3475.9,3472.2,1519.0,1972.7,2496.2,3342.0,1588.9,3479.5,3464.9,3468.6,671.7,808.5,1881.1,956.0,944.9,900.8,22.0,70.0,86.0,14171.0,-7644.0,2438.0,1801.0,449.0,-229.0,219.0,13.0,29.0,15.0,12860.0,-8628.0,-2922.0,4480.0,552.0,-47.0,50.0,1.0
2022-05-23 16:09:40.265450-07:00,1125.2,725.8,1354.9,1159.4,1143.6,940.7,1779.1,1302.5,3475.9,3474.6,1093.8,839.4,1494.9,3478.3,1215.1,1098.2,3467.4,3472.2,1519.0,1972.7,2505.8,3344.4,1589.9,3479.5,3467.4,3468.6,671.7,808.5,1878.1,965.4,939.0,900.8,-26.0,85.0,15.0,14247.0,-7501.0,2429.0,1818.0,124.0,-68.0,-161.0,2.0,26.0,43.0,12918.0,-8527.0,-2901.0,4520.0,103.0,-42.0,8.0,1.0
2022-05-23 16:09:40.324654-07:00,1130.5,725.8,1354.9,1159.4,1140.1,939.8,1776.2,1302.5,3468.6,3474.6,1093.8,839.4,1499.5,3473.4,1224.8,1098.2,3467.4,3471.0,1511.5,1982.6,2505.8,3344.4,1589.9,3489.2,3467.4,3478.3,676.6,806.9,1878.1,965.4,939.0,897.4,24.0,-21.0,17.0,14264.0,-7500.0,2357.0,1782.0,-75.0,-30.0,-90.0,2.0,-4.0,-16.0,12900.0,-8553.0,-2915.0,4514.0,-143.0,-12.0,3.0,1.0
2022-05-23 16:09:40.354806-07:00,1130.5,711.8,1352.1,1191.2,1140.1,939.8,1793.6,1316.9,3468.6,3464.9,1099.9,835.2,1499.5,3473.4,1231.9,1099.0,3467.4,3478.3,1511.5,1982.6,2496.2,3342.0,1588.0,3489.2,3477.1,3474.6,676.6,806.9,1880.1,963.7,939.8,897.4,12.0,4.0,-20.0,14268.0,-7504.0,2343.0,1748.0,187.0,-24.0,-133.0,6.0,-8.0,-14.0,12880.0,-8575.0,-2934.0,4518.0,4.0,-30.0,6.0,1.0
2022-05-23 16:09:40.414697-07:00,1137.5,725.8,1352.1,1191.2,1140.1,922.8,1793.6,1316.9,3462.5,3471.0,1099.9,835.2,1492.1,3475.9,1231.9,1099.0,3467.4,3478.3,1506.9,1991.5,2496.2,3342.0,1583.3,3488.0,3477.1,3474.6,671.7,804.4,1880.1,963.7,945.8,883.1,5.0,-15.0,14.0,14310.0,-7448.0,2307.0,1697.0,39.0,-14.0,-58.0,1.0,3.0,-3.0,12895.0,-8550.0,-2929.0,4524.0,52.0,-7.0,-3.0,1.0
2022-05-23 16:09:40.474272-07:00,1137.5,725.8,1403.0,1211.5,1140.1,922.8,1790.7,1309.7,3462.5,3471.0,1093.8,842.8,1492.1,3475.9,1239.1,1092.9,3471.0,3469.8,1506.9,1991.5,2524.0,3332.5,1583.3,3488.0,3462.5,3481.9,671.7,804.4,1878.1,967.1,945.8,883.1,-14.0,6.0,-6.0,14319.0,-7430.0,2312.0,1686.0,106.0,21.0,5.0,-3.0,-1.0,-2.0,12901.0,-8537.0,-2929.0,4532.0,48.0,-25.0,13.0,1.0
2022-05-23 16:09:40.504301-07:00,1132.2,722.5,1403.0,1211.5,1123.5,920.3,1790.7,1309.7,3468.6,3457.6,1093.8,842.8,1501.4,3467.4,1239.1,1092.9,3471.0,3469.8,1497.7,2005.5,2524.0,3332.5,1581.4,3480.7,3462.5,3481.9,677.4,805.2,1878.1,967.1,949.2,888.2,12.0,4.0,5.0,14344.0,-7384.0,2313.0,1675.0,126.0,-35.0,-18.0,5.0,6.0,0.0,12910.0,-8514.0,-2933.0,4547.0,57.0,-33.0,9.0,1.0
2022-05-23 16:09:40.564677-07:00,1132.2,722.5,1419.5,1230.2,1123.5,920.3,1776.2,1318.7,3468.6,3457.6,1093.8,839.4,1501.4,3467.4,1249.7,1102.5,3467.4,3471.0,1497.7,2005.5,2525.0,3338.4,1581.4,3480.7,3473.4,3478.3,677.4,805.2,1886.0,959.4,949.2,888.2,5.0,10.0,20.0,14346.0,-7378.0,2326.0,1672.0,-56.0,147.0,15.0,3.0,5.0,-4.0,12911.0,-8506.0,-2936.0,4558.0,7.0,-22.0,14.0,1.0
2022-05-23 16:09:40.624485-07:00,1145.4,734.0,1419.5,1230.2,1124.4,908.4,1776.2,1318.7,3466.1,3475.9,1093.8,839.4,1502.3,3473.4,1249.7,1102.5,3467.4,3471.0,1502.3,1985.6,2525.0,3338.4,1580.5,3484.4,3473.4,3478.3,676.6,803.5,1886.0,959.4,946.6,896.6,-11.0,3.0,-8.0,14335.0,-7394.0,2363.0,1643.0,-27.0,20.0,-42.0,1.0,12.0,14.0,12908.0,-8509.0,-2940.0,4558.0,-26.0,3.0,-1.0,1.0
2022-05-23 16:09:40.655213-07:00,1145.4,734.0,1390.3,1224.8,1124.4,903.4,1769.5,1306.1,3466.1,3475.9,1094.7,834.4,1502.3,3472.2,1263.1,1104.3,3468.6,3471.0,1495.8,1985.6,2529.3,3319.4,1580.5,3484.4,3474.6,3462.5,676.6,803.5,1883.0,976.5,946.6,896.6,18.0,-16.0,-1.0,14324.0,-7416.0,2356.0,1645.0,-20.0,22.0,-5.0,0.0,-8.0,-21.0,12902.0,-8520.0,-2943.0,4553.0,0.0,-5.0,-6.0,1.0
2022-05-23 16:09:40.714733-07:00,1133.1,723.3,1395.7,1224.8,1111.2,903.4,1769.5,1306.1,3460.1,3467.4,1100.8,834.4,1495.8,3472.2,1263.1,1104.3,3468.6,3471.0,1495.8,1969.7,2529.3,3332.5,1573.9,3485.6,3474.6,3462.5,676.6,805.2,1883.0,967.9,944.9,891.5,-10.0,0.0,3.0,14320.0,-7420.0,2370.0,1638.0,1.0,26.0,10.0,2.0,0.0,0.0,12906.0,-8514.0,-2940.0,4555.0,25.0,-5.0,-2.0,1.0
2022-05-23 16:09:40.744940-07:00,1133.1,723.3,1395.7,1239.1,1111.2,898.3,1747.3,1310.6,3460.1,3467.4,1100.8,841.9,1495.8,3462.5,1272.1,1119.1,3483.2,3472.2,1481.9,1969.7,2519.7,3332.5,1573.9,3485.6,3469.8,3473.4,668.4,805.2,1872.3,967.9,944.9,891.5,9.0,-10.0,7.0,14320.0,-7417.0,2380.0,1641.0,-13.0,53.0,38.0,0.0,2.0,-3.0,12908.0,-8511.0,-2939.0,4555.0,3.0,-3.0,6.0,1.0
2022-05-23 16:09:40.804433-07:00,1129.6,716.7,1404.0,1239.1,1132.2,898.3,1747.3,1310.6,3464.9,3464.9,1094.7,841.9,1504.1,3462.5,1272.1,1119.1,3483.2,3472.2,1481.9,1981.6,2519.7,3328.9,1573.0,3494.1,3469.8,3473.4,668.4,805.2,1872.3,969.6,945.8,891.5,4.0,0.0,8.0,14313.0,-7421.0,2413.0,1636.0,-21.0,104.0,26.0,2.0,6.0,0.0,12908.0,-8508.0,-2941.0,4557.0,6.0,-16.0,5.0,1.0
2022-05-23 16:09:40.894551-07:00,1129.6,716.7,1404.0,1230.2,1132.2,895.7,1751.2,1303.4,3464.9,3464.9,1094.7,836.1,1504.1,3464.9,1289.1,1117.4,3474.6,3467.4,1494.0,1981.6,2520.8,3328.9,1573.0,3494.1,3483.2,3474.6,677.4,805.2,1872.3,969.6,945.8,891.5,0.0,-24.0,-7.0,14308.0,-7410.0,2482.0,1629.0,125.0,177.0,146.0,2.0,-1.0,-4.0,12929.0,-8472.0,-2933.0,4571.0,150.0,-21.0,20.0,1.0
2022-05-23 16:09:40.896242-07:00,1128.7,730.7,1381.2,1224.8,1142.7,895.7,1751.2,1303.4,3472.2,3462.5,1108.6,836.9,1502.3,3464.9,1289.1,1117.4,3474.6,3467.4,1494.0,1976.6,2520.8,3336.1,1575.8,3497.8,3483.2,3474.6,677.4,805.2,1874.2,956.0,939.8,897.4,1.0,-20.0,2.0,14307.0,-7373.0,2569.0,1670.0,11.0,63.0,244.0,-3.0,2.0,-9.0,12955.0,-8425.0,-2917.0,4595.0,119.0,-22.0,33.0,1.0
2022-05-23 16:09:40.984586-07:00,1128.7,730.7,1381.2,1224.8,1156.8,895.7,1735.8,1301.6,3472.2,3462.5,1108.6,836.9,1500.4,3463.7,1287.3,1120.0,3477.1,3475.9,1493.0,1978.6,2520.8,3336.1,1575.8,3497.8,3478.3,3474.6,673.3,802.7,1874.2,956.0,939.8,897.4,5.0,18.0,23.0,14293.0,-7350.0,2669.0,1735.0,23.0,264.0,225.0,6.0,2.0,-1.0,12976.0,-8385.0,-2901.0,4618.0,103.0,-10.0,22.0,1.0
2022-05-23 16:09:41.044674-07:00,1126.1,729.0,1375.7,1211.5,1156.8,895.7,1735.8,1301.6,3472.2,3471.0,1093.8,833.6,1500.4,3463.7,1287.3,1120.0,3477.1,3475.9,1493.0,1978.6,2507.9,3332.5,1568.3,3494.1,3478.3,3474.6,673.3,802.7,1880.1,970.5,927.9,900.0,-6.0,25.0,5.0,14266.0,-7358.0,2781.0,1741.0,-70.0,163.0,15.0,0.0,5.0,9.0,12972.0,-8392.0,-2903.0,4617.0,-92.0,11.0,4.0,1.0
2022-05-23 16:09:41.048479-07:00,1126.1,729.0,1375.7,1211.5,1152.4,890.7,1726.3,1296.3,3472.2,3471.0,1093.8,833.6,1507.8,3456.4,1299.8,1124.4,3471.0,3481.9,1494.9,1964.7,2507.9,3332.5,1568.3,3494.1,3477.1,3471.0,662.7,799.4,1880.1,970.5,927.9,900.0,-11.0,21.0,-11.0,14224.0,-7420.0,2847.0,1719.0,-193.0,150.0,-40.0,0.0,5.0,7.0,12938.0,-8446.0,-2918.0,4603.0,-191.0,13.0,0.0,1.0
2022-05-23 16:09:41.104371-07:00,1125.2,724.9,1363.9,1209.7,1152.4,890.7,1726.3,1296.3,3466.1,3472.2,1105.1,843.6,1507.8,3456.4,1299.8,1124.4,3471.0,3481.9,1494.9,1964.7,2519.7,3324.1,1566.5,3484.4,3477.1,3471.0,662.7,799.4,1881.1,959.4,922.8,897.4,4.0,-4.0,-2.0,14192.0,-7488.0,2855.0,1674.0,-103.0,57.0,-134.0,2.0,1.0,-6.0,12907.0,-8495.0,-2936.0,4590.0,-151.0,10.0,-8.0,1.0
2022-05-23 16:09:41.164845-07:00,1127.9,724.9,1363.9,1209.7,1154.2,876.4,1714.8,1281.0,3462.5,3472.2,1105.1,843.6,1498.6,3466.1,1307.9,1126.1,3462.5,3473.4,1487.5,1969.7,2519.7,3324.1,1566.5,3484.4,3474.6,3478.3,668.4,803.5,1881.1,959.4,922.8,898.3,11.0,-3.0,3.0,14161.0,-7550.0,2868.0,1636.0,-163.0,157.0,-16.0,7.0,1.0,-8.0,12874.0,-8546.0,-2953.0,4577.0,-138.0,4.0,1.0,1.0
2022-05-23 16:09:41.284795-07:00,1127.9,715.1,1355.8,1205.3,1154.2,876.4,1714.8,1273.9,3462.5,3457.6,1101.7,846.1,1498.6,3466.1,1307.9,1124.4,3481.9,3473.4,1487.5,1969.7,2511.1,3334.9,1568.3,3484.4,3479.5,3478.3,668.4,803.5,1869.3,956.8,925.4,898.3,-7.0,-3.0,-1.0,14112.0,-7628.0,2919.0,1609.0,-203.0,164.0,-26.0,0.0,2.0,2.0,12837.0,-8602.0,-2971.0,4563.0,-188.0,12.0,6.0,1.0
2022-05-23 16:09:41.286098-07:00,1116.5,715.1,1355.8,1205.3,1137.5,872.1,1707.2,1273.9,3469.8,3457.6,1101.7,846.1,1499.5,3478.3,1300.7,1124.4,3481.9,3478.3,1489.3,1965.7,2511.1,3334.9,1568.3,3489.2,3479.5,3473.4,666.8,787.7,1869.3,956.8,925.4,886.5,5.0,-10.0,5.0,14065.0,-7703.0,2958.0,1591.0,-164.0,116.0,-1.0,5.0,5.0,-3.0,12801.0,-8660.0,-2985.0,4546.0,-140.0,19.0,7.0,1.0
2022-05-23 16:09:41.314777-07:00,1116.5,724.1,1355.8,1209.7,1137.5,872.1,1707.2,1273.0,3469.8,3473.4,1107.8,839.4,1499.5,3478.3,1300.7,1123.5,3462.5,3478.3,1489.3,1965.7,2513.3,3340.8,1571.1,3489.2,3478.3,3473.4,666.8,787.7,1875.2,963.7,933.0,886.5,7.0,13.0,24.0,14008.0,-7784.0,3015.0,1592.0,-346.0,232.0,80.0,1.0,7.0,5.0,12763.0,-8722.0,-2998.0,4526.0,-257.0,20.0,8.0,1.0
2022-05-23 16:09:41.374155-07:00,1123.5,724.1,1355.8,1209.7,1140.1,867.9,1698.6,1273.0,3469.8,3473.4,1107.8,839.4,1504.1,3462.5,1308.8,1123.5,3462.5,3473.4,1492.1,1952.9,2513.3,3340.8,1571.1,3490.5,3478.3,3478.3,666.8,796.0,1875.2,963.7,933.0,892.4,-6.0,28.0,9.0,13920.0,-7917.0,3086.0,1575.0,-365.0,217.0,-128.0,-1.0,4.0,0.0,12696.0,-8824.0,-3026.0,4498.0,-376.0,27.0,-8.0,1.0
2022-05-23 16:09:41.404225-07:00,1123.5,718.4,1351.2,1200.0,1140.1,867.9,1698.6,1265.8,3469.8,3473.4,1112.1,836.9,1504.1,3462.5,1308.8,1124.4,3469.8,3473.4,1492.1,1952.9,2503.6,3327.7,1565.5,3490.5,3480.7,3478.3,666.8,796.0,1873.2,955.1,932.2,892.4,0.0,-6.0,16.0,13817.0,-8091.0,3130.0,1503.0,-482.0,305.0,-134.0,-3.0,5.0,-1.0,12601.0,-8965.0,-3066.0,4457.0,-455.0,23.0,-9.0,1.0
2022-05-23 16:09:41.464799-07:00,1144.5,720.8,1351.2,1200.0,1154.2,864.6,1688.1,1265.8,3468.6,3473.4,1112.1,836.9,1500.4,3467.4,1305.2,1124.4,3469.8,3478.3,1490.3,1964.7,2503.6,3327.7,1568.3,3488.0,3480.7,3478.3,659.5,795.2,1873.2,955.1,930.5,884.8,-8.0,13.0,-17.0,13690.0,-8292.0,3193.0,1431.0,-462.0,257.0,-185.0,1.0,-3.0,-9.0,12489.0,-9126.0,-3116.0,4413.0,-493.0,16.0,-5.0,1.0
2022-05-23 16:09:41.495321-07:00,1144.5,720.8,1349.4,1217.7,1154.2,864.6,1674.8,1257.8,3468.6,3473.4,1106.9,841.1,1500.4,3467.4,1308.8,1121.7,3472.2,3468.6,1490.3,1964.7,2501.5,3326.5,1568.3,3488.0,3467.4,3483.2,659.5,795.2,1871.3,956.0,930.5,884.8,0.0,-2.0,-1.0,13593.0,-8468.0,3193.0,1331.0,-369.0,139.0,-286.0,1.0,2.0,-6.0,12377.0,-9282.0,-3165.0,4365.0,-456.0,24.0,-18.0,1.0
2022-05-23 16:09:41.585227-07:00,1119.1,712.6,1349.4,1217.7,1159.4,867.1,1674.8,1257.8,3468.6,3473.4,1106.9,841.1,1501.4,3469.8,1308.8,1121.7,3472.2,3468.6,1494.9,1960.8,2501.5,3326.5,1558.1,3488.0,3467.4,3483.2,665.2,800.2,1871.3,956.0,922.8,898.3,6.0,-28.0,12.0,13492.0,-8636.0,3201.0,1248.0,-372.0,246.0,-89.0,6.0,2.0,-1.0,12279.0,-9420.0,-3204.0,4320.0,-368.0,31.0,-5.0,1.0
2022-05-23 16:09:41.644497-07:00,1119.1,712.6,1344.9,1207.1,1159.4,867.1,1679.5,1264.9,3468.6,3473.4,1106.9,841.9,1501.4,3469.8,1305.2,1127.0,3467.4,3472.2,1494.9,1960.8,2502.6,3330.1,1558.1,3488.0,3473.4,3471.0,665.2,800.2,1868.4,956.8,922.8,898.3,-11.0,-16.0,-22.0,13418.0,-8750.0,3226.0,1186.0,-152.0,48.0,-172.0,-5.0,-8.0,-7.0,12209.0,-9516.0,-3229.0,4290.0,-243.0,20.0,-7.0,1.0
2022-05-23 16:09:41.646195-07:00,1123.5,726.6,1344.9,1207.1,1143.6,863.7,1679.5,1264.9,3469.8,3473.4,1106.9,841.9,1502.3,3468.6,1305.2,1127.0,3467.4,3472.2,1494.0,1960.8,2502.6,3330.1,1565.5,3488.0,3473.4,3471.0,662.7,798.5,1868.4,956.8,929.6,900.8,3.0,-23.0,-15.0,13398.0,-8796.0,3201.0,1141.0,-26.0,16.0,-51.0,-6.0,-2.0,-19.0,12176.0,-9561.0,-3242.0,4274.0,-74.0,8.0,-3.0,1.0
2022-05-23 16:09:41.704828-07:00,1123.5,726.6,1353.1,1215.1,1143.6,856.2,1677.6,1266.7,3469.8,3473.4,1106.0,841.1,1502.3,3463.7,1306.1,1135.7,3461.3,3467.4,1491.2,1960.8,2491.9,3319.4,1565.5,3488.0,3467.4,3468.6,664.4,798.5,1875.2,957.7,929.6,900.8,-12.0,-15.0,-16.0,13396.0,-8802.0,3195.0,1134.0,73.0,-72.0,11.0,1.0,-8.0,-6.0,12174.0,-9561.0,-3244.0,4276.0,49.0,-19.0,5.0,1.0
2022-05-23 16:09:41.824713-07:00,1114.7,713.4,1343.1,1215.1,1143.6,856.2,1677.6,1266.7,3467.4,3468.6,1105.1,841.1,1494.0,3463.7,1306.1,1135.7,3461.3,3467.4,1491.2,1954.8,2491.9,3314.6,1559.9,3485.6,3467.4,3468.6,664.4,795.2,1875.2,956.0,929.6,892.4,0.0,-15.0,18.0,13442.0,-8743.0,3161.0,1148.0,291.0,-141.0,13.0,6.0,5.0,5.0,12209.0,-9513.0,-3235.0,4293.0,215.0,-10.0,-3.0,1.0
2022-05-23 16:09:41.826159-07:00,1114.7,713.4,1343.1,1206.2,1143.6,862.9,1670.1,1264.9,3467.4,3468.6,1105.1,837.7,1494.0,3460.1,1293.6,1128.7,3469.8,3473.4,1486.6,1954.8,2502.6,3314.6,1559.9,3485.6,3466.1,3469.8,656.2,795.2,1881.1,956.0,929.6,892.4,12.0,9.0,25.0,13500.0,-8653.0,3149.0,1179.0,107.0,-21.0,121.0,4.0,13.0,-4.0,12260.0,-9447.0,-3212.0,4309.0,167.0,-5.0,7.0,1.0
2022-05-23 16:09:41.854900-07:00,1125.2,707.7,1343.1,1206.2,1143.6,862.9,1670.1,1264.9,3468.6,3455.2,1104.3,837.7,1500.4,3460.1,1293.6,1128.7,3469.8,3473.4,1486.6,1957.8,2502.6,3318.2,1558.1,3490.5,3466.1,3469.8,656.2,796.0,1881.1,959.4,918.6,891.5,-11.0,8.0,5.0,13516.0,-8624.0,3155.0,1202.0,29.0,-48.0,-15.0,-1.0,-1.0,2.0,12278.0,-9424.0,-3204.0,4315.0,20.0,-7.0,1.0,1.0
2022-05-23 16:09:41.914826-07:00,1125.2,707.7,1343.1,1199.1,1143.6,870.5,1678.6,1257.8,3468.6,3455.2,1104.3,836.1,1500.4,3469.8,1300.7,1125.2,3473.4,3466.1,1479.2,1957.8,2498.3,3318.2,1558.1,3490.5,3475.9,3473.4,661.9,796.0,1882.0,959.4,918.6,891.5,-6.0,5.0,6.0,13531.0,-8604.0,3142.0,1201.0,43.0,-20.0,-6.0,0.0,7.0,-1.0,12287.0,-9412.0,-3200.0,4318.0,40.0,-3.0,-3.0,1.0
2022-05-23 16:09:41.945073-07:00,1129.6,721.6,1335.9,1186.7,1129.6,870.5,1678.6,1257.8,3468.6,3464.9,1102.5,837.7,1500.4,3469.8,1300.7,1125.2,3473.4,3466.1,1479.2,1952.9,2494.0,3324.1,1553.4,3490.5,3475.9,3473.4,661.9,792.7,1859.6,950.0,928.8,887.3,0.0,0.0,2.0,13539.0,-8593.0,3138.0,1200.0,18.0,-20.0,-18.0,3.0,4.0,-4.0,12289.0,-9408.0,-3199.0,4320.0,-1.0,-12.0,1.0,1.0
2022-05-23 16:09:42.004698-07:00,1129.6,721.6,1335.9,1186.7,1122.6,861.2,1681.4,1257.8,3468.6,3464.9,1102.5,837.7,1492.1,3468.6,1300.7,1125.2,3474.6,3472.2,1485.6,1950.9,2494.0,3324.1,1553.4,3490.5,3479.5,3467.4,657.0,793.5,1859.6,950.0,928.8,887.3,1.0,-10.0,1.0,13554.0,-8575.0,3124.0,1192.0,130.0,-32.0,-37.0,1.0,-4.0,-7.0,12293.0,-9400.0,-3202.0,4325.0,55.0,-16.0,-2.0,1.0
2022-05-23 16:09:42.064687-07:00,1124.4,721.6,1345.8,1201.8,1122.6,861.2,1681.4,1257.8,3462.5,3471.0,1096.4,839.4,1492.1,3468.6,1300.7,1125.2,3474.6,3472.2,1485.6,1950.9,2502.6,3302.7,1557.1,3481.9,3479.5,3467.4,657.0,793.5,1877.2,958.5,925.4,895.7,0.0,-1.0,4.0,13588.0,-8528.0,3113.0,1173.0,113.0,-5.0,-17.0,0.0,2.0,-7.0,12309.0,-9376.0,-3199.0,4335.0,70.0,-6.0,-4.0,1.0
2022-05-23 16:09:42.095134-07:00,1124.4,721.6,1345.8,1201.8,1121.7,852.8,1658.7,1267.6,3462.5,3471.0,1096.4,839.4,1504.1,3456.4,1303.4,1127.9,3466.1,3475.9,1478.3,1950.9,2502.6,3302.7,1557.1,3481.9,3469.8,3479.5,656.2,791.0,1877.2,958.5,925.4,895.7,-3.0,-8.0,2.0,13608.0,-8498.0,3111.0,1171.0,84.0,-30.0,24.0,1.0,0.0,-3.0,12324.0,-9356.0,-3192.0,4340.0,75.0,-7.0,0.0,1.0
2022-05-23 16:09:42.184697-07:00,1117.4,720.8,1346.7,1206.2,1121.7,852.8,1658.7,1267.6,3473.4,3474.6,1097.3,843.6,1504.1,3456.4,1303.4,1127.9,3466.1,3475.9,1478.3,1950.9,2496.2,3324.1,1555.3,3488.0,3469.8,3479.5,656.2,791.0,1863.5,944.9,929.6,891.5,0.0,8.0,3.0,13629.0,-8462.0,3111.0,1183.0,74.0,-26.0,33.0,4.0,4.0,-4.0,12344.0,-9327.0,-3185.0,4350.0,79.0,-11.0,0.0,1.0
2022-05-23 16:09:42.214918-07:00,1117.4,720.8,1346.7,1206.2,1120.9,854.5,1650.2,1245.3,3473.4,3474.6,1097.3,843.6,1492.1,3464.9,1296.3,1121.7,3472.2,3457.6,1487.5,1945.9,2496.2,3324.1,1555.3,3488.0,3472.2,3467.4,656.2,798.5,1863.5,944.9,929.6,891.5,1.0,-2.0,12.0,13644.0,-8438.0,3107.0,1193.0,62.0,-26.0,18.0,5.0,2.0,-6.0,12360.0,-9306.0,-3178.0,4355.0,62.0,-3.0,0.0,1.0
2022-05-23 16:09:42.245048-07:00,1124.4,725.8,1340.4,1192.0,1120.9,854.5,1650.2,1234.6,3464.9,3473.4,1097.3,839.4,1492.1,3464.9,1296.3,1126.1,3478.3,3457.6,1487.5,1945.9,2494.0,3321.7,1553.4,3490.5,3483.2,3467.4,656.2,798.5,1877.2,958.5,918.6,899.1,7.0,2.0,10.0,13660.0,-8412.0,3105.0,1201.0,46.0,-22.0,25.0,7.0,5.0,-6.0,12375.0,-9286.0,-3171.0,4360.0,44.0,0.0,0.0,1.0
2022-05-23 16:09:42.304725-07:00,1120.9,725.8,1340.4,1192.0,1109.5,855.3,1664.4,1234.6,3469.8,3473.4,1097.3,839.4,1494.9,3463.7,1299.0,1126.1,3478.3,3467.4,1483.8,1948.9,2494.0,3321.7,1553.4,3495.3,3483.2,3464.9,657.0,794.4,1877.2,958.5,918.6,898.3,-4.0,0.0,1.0,13671.0,-8392.0,3104.0,1208.0,49.0,-15.0,18.0,3.0,3.0,-5.0,12385.0,-9273.0,-3167.0,4364.0,39.0,2.0,7.0,1.0
2022-05-23 16:09:42.364840-07:00,1120.9,724.9,1349.4,1207.1,1109.5,855.3,1664.4,1256.0,3469.8,3471.0,1105.1,840.3,1494.9,3463.7,1299.0,1120.0,3466.1,3467.4,1483.8,1948.9,2485.5,3319.4,1552.5,3495.3,3464.9,3464.9,657.0,794.4,1870.3,953.4,921.1,898.3,-4.0,-5.0,4.0,13682.0,-8377.0,3097.0,1213.0,42.0,-37.0,5.0,2.0,1.0,-3.0,12392.0,-9263.0,-3163.0,4366.0,33.0,-2.0,4.0,1.0
2022-05-23 16:09:42.395062-07:00,1121.7,724.9,1349.4,1207.1,1104.3,859.5,1660.6,1256.0,3457.6,3471.0,1105.1,840.3,1492.1,3466.1,1288.2,1120.0,3466.1,3474.6,1480.1,1948.9,2485.5,3319.4,1552.5,3489.2,3464.9,3484.4,657.9,787.7,1870.3,953.4,921.1,894.9,-8.0,5.0,4.0,13696.0,-8355.0,3091.0,1218.0,62.0,-8.0,21.0,0.0,5.0,1.0,12404.0,-9246.0,-3157.0,4371.0,62.0,-3.0,-2.0,1.0
2022-05-23 16:09:42.485173-07:00,1121.7,727.4,1335.0,1194.7,1104.3,859.5,1660.6,1243.5,3457.6,3469.8,1103.4,840.3,1492.1,3466.1,1288.2,1127.0,3475.9,3474.6,1480.1,1948.9,2496.2,3321.7,1553.4,3489.2,3474.6,3484.4,657.9,787.7,1861.5,948.3,927.1,894.9,4.0,-4.0,9.0,13706.0,-8338.0,3090.0,1225.0,7.0,-22.0,13.0,3.0,3.0,-8.0,12412.0,-9237.0,-3154.0,4373.0,10.0,-7.0,1.0,1.0
2022-05-23 16:09:42.544476-07:00,1120.9,718.4,1335.0,1194.7,1113.0,852.0,1647.3,1243.5,3468.6,3473.4,1103.4,840.3,1509.7,3464.9,1288.2,1127.0,3475.9,3469.8,1473.6,1945.9,2496.2,3321.7,1555.3,3483.2,3474.6,3472.2,653.0,786.9,1861.5,948.3,922.0,894.9,-7.0,-3.0,-14.0,13709.0,-8332.0,3090.0,1227.0,36.0,-20.0,-6.0,-1.0,-2.0,-8.0,12418.0,-9227.0,-3151.0,4376.0,33.0,-10.0,-5.0,1.0
2022-05-23 16:09:42.546105-07:00,1120.9,718.4,1328.7,1206.2,1113.0,852.0,1655.8,1243.5,3468.6,3473.4,1106.9,841.1,1509.7,3464.9,1286.4,1118.2,3478.3,3480.7,1473.6,1945.9,2486.6,3324.1,1555.3,3483.2,3472.2,3488.0,653.0,786.9,1873.2,952.6,922.0,894.9,-11.0,-31.0,-13.0,13727.0,-8314.0,3063.0,1229.0,172.0,-153.0,-38.0,-8.0,-12.0,-6.0,12441.0,-9196.0,-3146.0,4382.0,160.0,-1.0,-15.0,1.0
2022-05-23 16:09:42.604624-07:00,1115.6,711.0,1328.7,1206.2,1103.4,854.5,1655.8,1243.5,3457.6,3472.2,1106.9,841.1,1499.5,3475.9,1286.4,1118.2,3478.3,3480.7,1494.9,1955.8,2486.6,3324.1,1550.6,3492.9,3472.2,3488.0,654.6,796.9,1873.2,952.6,933.0,886.5,-5.0,-30.0,0.0,13790.0,-8223.0,3012.0,1258.0,316.0,-203.0,154.0,9.0,0.0,-3.0,12514.0,-9096.0,-3114.0,4404.0,371.0,-10.0,-3.0,1.0
2022-05-23 16:09:42.664865-07:00,1115.6,711.0,1335.0,1192.0,1103.4,854.5,1665.3,1247.1,3457.6,3472.2,1108.6,845.3,1499.5,3475.9,1292.7,1117.4,3478.3,3468.6,1494.9,1955.8,2502.6,3326.5,1550.6,3492.9,3471.0,3475.9,654.6,796.9,1868.4,956.0,933.0,886.5,2.0,0.0,-1.0,13881.0,-8069.0,2971.0,1347.0,370.0,-308.0,181.0,4.0,5.0,-5.0,12608.0,-8962.0,-3072.0,4440.0,393.0,-22.0,3.0,1.0
2022-05-23 16:09:42.754253-07:00,1113.9,724.9,1335.0,1192.0,1106.9,865.4,1665.3,1247.1,3462.5,3461.3,1108.6,845.3,1494.9,3475.9,1292.7,1117.4,3478.3,3468.6,1482.9,1961.8,2502.6,3326.5,1549.7,3484.4,3471.0,3475.9,656.2,807.7,1868.4,956.0,933.0,887.3,1.0,35.0,28.0,13970.0,-7919.0,2913.0,1445.0,271.0,-236.0,119.0,2.0,18.0,-3.0,12684.0,-8847.0,-3042.0,4476.0,273.0,-37.0,8.0,1.0
2022-05-23 16:09:42.757521-07:00,1113.9,724.9,1341.3,1192.9,1106.9,857.0,1648.3,1245.3,3462.5,3461.3,1106.9,842.8,1494.9,3474.6,1281.0,1123.5,3463.7,3469.8,1489.3,1961.8,2495.1,3309.8,1549.7,3484.4,3475.9,3472.2,650.5,807.7,1875.2,956.8,933.0,887.3,-6.0,12.0,20.0,14019.0,-7841.0,2860.0,1500.0,69.0,-178.0,26.0,5.0,5.0,14.0,12709.0,-8804.0,-3035.0,4494.0,61.0,-36.0,12.0,1.0
2022-05-23 16:09:42.814839-07:00,1131.4,720.8,1337.7,1192.9,1104.3,857.0,1648.3,1245.3,3473.4,3468.6,1108.6,842.8,1497.7,3474.6,1281.0,1123.5,3463.7,3469.8,1489.3,1950.9,2495.1,3319.4,1555.3,3490.5,3475.9,3472.2,650.5,816.9,1875.2,954.3,922.0,894.9,-6.0,9.0,-5.0,14056.0,-7794.0,2793.0,1526.0,132.0,-197.0,-93.0,2.0,-5.0,0.0,12718.0,-8782.0,-3040.0,4507.0,57.0,-24.0,1.0,1.0
2022-05-23 16:09:42.845139-07:00,1131.4,720.8,1337.7,1188.5,1104.3,865.4,1649.2,1246.2,3473.4,3468.6,1108.6,839.4,1497.7,3472.2,1278.3,1111.2,3479.5,3475.9,1481.0,1950.9,2510.1,3319.4,1555.3,3490.5,3472.2,3472.2,661.1,816.9,1873.2,954.3,922.0,894.9,14.0,-8.0,12.0,14101.0,-7748.0,2691.0,1518.0,110.0,-189.0,-118.0,3.0,-4.0,-2.0,12727.0,-8766.0,-3040.0,4512.0,30.0,-13.0,-3.0,1.0
2022-05-23 16:09:42.934822-07:00,1118.2,718.4,1337.7,1188.5,1108.6,865.4,1649.2,1246.2,3462.5,3467.4,1099.9,839.4,1502.3,3472.2,1278.3,1111.2,3479.5,3475.9,1481.0,1962.8,2510.1,3325.3,1552.5,3492.9,3472.2,3472.2,661.1,822.7,1873.2,963.7,930.5,890.7,9.0,3.0,10.0,14143.0,-7702.0,2612.0,1504.0,134.0,-147.0,-113.0,8.0,5.0,-5.0,12737.0,-8750.0,-3039.0,4519.0,52.0,-9.0,-8.0,1.0
2022-05-23 16:09:42.964730-07:00,1118.2,718.4,1337.7,1186.7,1108.6,864.6,1654.9,1234.6,3462.5,3467.4,1099.9,842.8,1502.3,3457.6,1289.1,1113.9,3480.7,3472.2,1482.9,1962.8,2507.9,3325.3,1552.5,3492.9,3478.3,3475.9,654.6,822.7,1875.2,963.7,930.5,890.7,0.0,0.0,4.0,14193.0,-7646.0,2524.0,1472.0,215.0,-231.0,-226.0,0.0,9.0,-9.0,12747.0,-8734.0,-3039.0,4520.0,52.0,-4.0,-25.0,1.0
2022-05-23 16:09:42.994611-07:00,1127.0,739.7,1331.4,1186.7,1114.7,864.6,1654.9,1234.6,3467.4,3460.1,1100.8,842.8,1493.0,3457.6,1289.1,1113.9,3480.7,3472.2,1482.9,1960.8,2507.9,3318.2,1552.5,3484.4,3478.3,3475.9,654.6,819.4,1875.2,952.6,925.4,889.0,25.0,-28.0,31.0,14242.0,-7584.0,2448.0,1446.0,80.0,42.0,84.0,7.0,-1.0,-7.0,12762.0,-8713.0,-3035.0,4520.0,75.0,-5.0,12.0,1.0
2022-05-23 16:09:43.054409-07:00,1127.0,739.7,1331.4,1180.6,1110.4,863.7,1641.6,1238.2,3467.4,3460.1,1100.8,842.8,1497.7,3468.6,1278.3,1109.5,3462.5,3471.0,1485.6,1958.8,2519.7,3318.2,1552.5,3484.4,3467.4,3469.8,643.2,815.2,1869.3,952.6,925.4,889.0,-12.0,12.0,-14.0,14254.0,-7551.0,2469.0,1463.0,92.0,-97.0,-26.0,0.0,-4.0,0.0,12774.0,-8695.0,-3028.0,4526.0,27.0,1.0,0.0,1.0
2022-05-23 16:09:43.114896-07:00,1125.2,724.9,1338.6,1182.3,1110.4,863.7,1641.6,1238.2,3471.0,3472.2,1097.3,838.6,1497.7,3468.6,1278.3,1109.5,3462.5,3471.0,1485.6,1958.8,2510.1,3313.4,1552.5,3486.8,3467.4,3469.8,643.2,815.2,1862.5,952.6,929.6,895.7,-3.0,-3.0,-4.0,14288.0,-7502.0,2423.0,1461.0,145.0,-107.0,-58.0,0.0,-3.0,-8.0,12784.0,-8681.0,-3023.0,4530.0,48.0,-7.0,-2.0,1.0
2022-05-23 16:09:43.145076-07:00,1125.2,724.9,1338.6,1182.3,1110.4,852.0,1653.9,1240.8,3471.0,3472.2,1097.3,838.6,1502.3,3461.3,1271.2,1118.2,3474.6,3469.8,1481.9,1964.7,2510.1,3313.4,1552.5,3486.8,3478.3,3471.0,653.8,811.0,1862.5,952.6,929.6,895.7,4.0,-17.0,16.0,14322.0,-7453.0,2376.0,1451.0,76.0,-85.0,-19.0,9.0,2.0,-1.0,12796.0,-8663.0,-3016.0,4534.0,53.0,2.0,2.0,1.0
2022-05-23 16:09:43.204557-07:00,1128.7,732.3,1333.2,1174.4,1110.4,852.0,1653.9,1240.8,3478.3,3467.4,1098.2,843.6,1502.3,3461.3,1271.2,1118.2,3474.6,3469.8,1481.9,1964.7,2516.5,3320.5,1546.9,3486.8,3478.3,3471.0,653.8,811.0,1871.3,957.7,933.0,891.5,0.0,1.0,11.0,14333.0,-7434.0,2360.0,1470.0,24.0,-44.0,53.0,9.0,7.0,4.0,12805.0,-8650.0,-3010.0,4537.0,35.0,13.0,10.0,1.0
2022-05-23 16:09:43.264691-07:00,1128.7,732.3,1333.2,1174.4,1106.0,852.0,1641.6,1240.8,3478.3,3467.4,1098.2,843.6,1495.8,3468.6,1281.0,1111.2,3472.2,3472.2,1491.2,1963.7,2516.5,3320.5,1546.9,3486.8,3481.9,3473.4,655.4,810.2,1871.3,957.7,933.0,891.5,15.0,-13.0,28.0,14342.0,-7420.0,2341.0,1490.0,20.0,-20.0,-1.0,4.0,1.0,-12.0,12816.0,-8638.0,-3000.0,4537.0,35.0,12.0,-6.0,1.0
2022-05-23 16:09:43.295042-07:00,1115.6,712.6,1322.3,1159.4,1106.0,852.0,1641.6,1235.5,3462.5,3475.9,1105.1,835.2,1495.8,3468.6,1281.0,1110.4,3474.6,3472.2,1491.2,1963.7,2510.1,3313.4,1548.7,3483.2,3478.3,3473.4,655.4,810.2,1874.2,945.8,928.8,893.2,-3.0,5.0,5.0,14343.0,-7416.0,2350.0,1484.0,-43.0,52.0,15.0,4.0,4.0,5.0,12821.0,-8634.0,-2991.0,4534.0,2.0,24.0,-1.0,1.0
2022-05-23 16:09:43.355036-07:00,1118.2,712.6,1322.3,1159.4,1113.9,854.5,1657.7,1235.5,3463.7,3475.9,1105.1,835.2,1492.1,3478.3,1273.0,1110.4,3474.6,3469.8,1485.6,1964.7,2510.1,3313.4,1548.7,3492.9,3478.3,3457.6,648.9,811.9,1874.2,945.8,928.8,911.8,-10.0,-9.0,-6.0,14333.0,-7429.0,2362.0,1493.0,-6.0,-32.0,27.0,-1.0,-1.0,-10.0,12821.0,-8642.0,-2982.0,4526.0,-12.0,32.0,1.0,1.0
2022-05-23 16:09:43.414922-07:00,1118.2,730.7,1310.6,1147.1,1113.9,854.5,1657.7,1237.3,3463.7,3478.3,1097.3,835.2,1492.1,3478.3,1273.0,1117.4,3478.3,3469.8,1485.6,1964.7,2515.4,3308.6,1545.9,3492.9,3485.6,3457.6,648.9,811.9,1864.5,956.8,937.3,911.8,-1.0,-6.0,-5.0,14331.0,-7431.0,2365.0,1503.0,-6.0,24.0,28.0,0.0,4.0,-12.0,12822.0,-8644.0,-2976.0,4522.0,-1.0,7.0,4.0,1.0
2022-05-23 16:09:43.445050-07:00,1128.7,730.7,1310.6,1147.1,1108.6,862.1,1645.4,1237.3,3462.5,3478.3,1097.3,835.2,1500.4,3457.6,1276.5,1117.4,3478.3,3475.9,1481.0,1957.8,2515.4,3308.6,1545.9,3483.2,3485.6,3478.3,644.9,801.9,1864.5,956.8,937.3,885.6,-7.0,-3.0,-15.0,14316.0,-7453.0,2368.0,1522.0,-190.0,-114.0,82.0,14.0,0.0,3.0,12819.0,-8654.0,-2971.0,4515.0,-62.0,43.0,1.0,1.0
2022-05-23 16:09:43.504519-07:00,1128.7,724.1,1307.9,1143.6,1108.6,862.1,1645.4,1232.8,3462.5,3467.4,1101.7,845.3,1500.4,3457.6,1276.5,1111.2,3478.3,3475.9,1481.0,1957.8,2514.3,3325.3,1550.6,3483.2,3469.8,3478.3,644.9,801.9,1869.3,963.7,928.8,885.6,30.0,-8.0,30.0,14291.0,-7496.0,2345.0,1588.0,-30.0,-1.0,94.0,15.0,2.0,-1.0,12819.0,-8667.0,-2955.0,4500.0,58.0,65.0,-10.0,1.0
2022-05-23 16:09:43.594430-07:00,1118.2,732.3,1307.9,1143.6,1097.3,858.7,1640.7,1232.8,3474.6,3468.6,1101.7,845.3,1493.0,3477.1,1267.6,1111.2,3478.3,3469.8,1479.2,1951.9,2514.3,3325.3,1545.0,3494.1,3469.8,3467.4,645.7,801.9,1869.3,963.7,925.4,879.7,-26.0,24.0,4.0,14272.0,-7523.0,2349.0,1624.0,-137.0,-108.0,-5.0,-7.0,12.0,-12.0,12844.0,-8655.0,-2920.0,4476.0,6.0,104.0,-26.0,1.0
2022-05-23 16:09:43.596220-07:00,1118.2,732.3,1289.1,1109.5,1097.3,858.7,1651.1,1237.3,3474.6,3468.6,1096.4,836.1,1493.0,3477.1,1262.2,1110.4,3474.6,3469.8,1479.2,1951.9,2521.8,3324.1,1545.0,3494.1,3468.6,3477.1,645.7,801.9,1870.3,951.7,925.4,879.7,30.0,-15.0,15.0,14238.0,-7596.0,2311.0,1638.0,-345.0,69.0,55.0,5.0,-2.0,-4.0,12838.0,-8693.0,-2898.0,4434.0,-105.0,124.0,-35.0,1.0
2022-05-23 16:09:43.655207-07:00,1123.5,715.1,1289.1,1109.5,1084.2,859.5,1651.1,1237.3,3461.3,3457.6,1096.4,836.1,1492.1,3466.1,1262.2,1110.4,3474.6,3469.8,1485.6,1945.0,2521.8,3324.1,1545.0,3481.9,3468.6,3477.1,653.0,807.7,1870.3,951.7,918.6,879.7,-35.0,24.0,5.0,14147.0,-7740.0,2378.0,1651.0,-273.0,240.0,-21.0,1.0,-8.0,2.0,12814.0,-8750.0,-2888.0,4395.0,-162.0,86.0,-18.0,1.0
2022-05-23 16:09:43.691237-07:00,1123.5,715.1,1231.9,1063.4,1084.2,859.5,1662.5,1239.1,3461.3,3457.6,1086.0,827.7,1492.1,3466.1,1239.1,1099.0,3464.9,3467.4,1485.6,1945.0,2507.9,3324.1,1545.0,3481.9,3478.3,3472.2,653.0,807.7,1868.4,945.8,918.6,879.7,29.0,-16.0,8.0,14074.0,-7873.0,2409.0,1602.0,-455.0,204.0,-49.0,0.0,10.0,-8.0,12776.0,-8832.0,-2889.0,4342.0,-244.0,106.0,-39.0,1.0
2022-05-23 16:09:43.744848-07:00,1145.4,725.8,1231.9,1063.4,1079.0,867.1,1662.5,1239.1,3460.1,3466.1,1086.0,827.7,1500.4,3467.4,1239.1,1099.0,3464.9,3467.4,1469.0,1957.8,2507.9,3324.1,1550.6,3481.9,3478.3,3472.2,655.4,794.4,1868.4,945.8,903.4,886.5,10.0,40.0,41.0,13934.0,-8077.0,2553.0,1584.0,-627.0,618.0,127.0,12.0,21.0,-3.0,12729.0,-8919.0,-2895.0,4297.0,-277.0,68.0,-15.0,1.0
2022-05-23 16:09:43.804461-07:00,1145.4,725.8,1184.1,1050.4,1079.0,867.1,1775.2,1282.8,3460.1,3466.1,1072.1,831.9,1500.4,3467.4,1224.8,1094.7,3471.0,3466.1,1469.0,1957.8,2507.9,3313.4,1550.6,3481.9,3468.6,3478.3,655.4,794.4,1859.6,941.5,903.4,886.5,-10.0,33.0,16.0,13743.0,-8358.0,2722.0,1512.0,-871.0,456.0,-179.0,1.0,14.0,10.0,12625.0,-9088.0,-2932.0,4225.0,-641.0,77.0,-57.0,1.0
2022-05-23 16:09:43.834503-07:00,1127.0,734.0,1143.6,1050.4,1069.5,898.3,1775.2,1282.8,3468.6,3457.6,1076.4,831.9,1497.7,3462.5,1224.8,1094.7,3471.0,3466.1,1476.4,1956.8,2507.9,3312.2,1559.9,3484.4,3468.6,3478.3,658.7,798.5,1859.6,943.2,905.0,898.3,-20.0,-2.0,12.0,13491.0,-8743.0,2839.0,1392.0,-960.0,577.0,-192.0,5.0,11.0,21.0,12456.0,-9338.0,-3007.0,4129.0,-826.0,77.0,-72.0,1.0
2022-05-23 16:09:43.894983-07:00,1127.0,734.0,1143.6,1010.8,1069.5,882.3,1798.4,1388.5,3468.6,3457.6,1076.4,830.2,1497.7,3474.6,1200.9,1087.7,3460.1,3467.4,1499.5,1956.8,2490.8,3312.2,1559.9,3484.4,3462.5,3467.4,661.9,798.5,1870.3,943.2,905.0,898.3,-37.0,38.0,-15.0,13237.0,-9129.0,2880.0,1257.0,-1103.0,196.0,-574.0,4.0,-7.0,-26.0,12234.0,-9649.0,-3104.0,4004.0,-1051.0,62.0,-91.0,1.0
2022-05-23 16:09:43.954627-07:00,1113.9,728.2,1132.2,1010.8,1072.1,882.3,1798.4,1388.5,3471.0,3463.7,1067.7,830.2,1498.6,3474.6,1200.9,1087.7,3460.1,3467.4,1499.5,1963.7,2490.8,3328.9,1575.8,3485.6,3462.5,3467.4,661.9,781.9,1870.3,939.0,898.3,891.5,14.0,-15.0,-5.0,12977.0,-9567.0,2711.0,1072.0,-1084.0,65.0,-707.0,-3.0,4.0,-8.0,11934.0,-10030.0,-3243.0,3861.0,-1257.0,34.0,-107.0,1.0
2022-05-23 16:09:43.985007-07:00,1113.9,728.2,1132.2,995.3,1072.1,888.2,1767.5,1393.9,3471.0,3463.7,1067.7,829.4,1498.6,3460.1,1190.3,1093.8,3478.3,3463.7,1501.4,1963.7,2494.0,3328.9,1575.8,3485.6,3477.1,3468.6,657.9,781.9,1859.6,939.0,898.3,891.5,28.0,-53.0,1.0,12699.0,-9980.0,2589.0,929.0,-1072.0,201.0,-369.0,9.0,-5.0,-33.0,11647.0,-10375.0,-3369.0,3716.0,-1026.0,59.0,-98.0,1.0
2022-05-23 16:09:44.045089-07:00,1118.2,718.4,1118.2,995.3,1064.3,888.2,1767.5,1393.9,3475.9,3473.4,1064.3,829.4,1500.4,3460.1,1190.3,1093.8,3478.3,3463.7,1501.4,1953.9,2494.0,3342.0,1596.4,3495.3,3477.1,3468.6,657.9,784.4,1859.6,946.6,895.7,887.3,13.0,-11.0,-42.0,12436.0,-10316.0,2579.0,840.0,-803.0,253.0,-171.0,14.0,-3.0,-52.0,11437.0,-10620.0,-3446.0,3601.0,-701.0,68.0,-58.0,1.0
2022-05-23 16:09:44.104357-07:00,1118.2,718.4,1118.2,984.2,1058.2,868.8,1783.9,1447.9,3475.9,3473.4,1064.3,833.6,1496.7,3474.6,1168.2,1088.6,3467.4,3466.1,1510.6,1954.8,2486.6,3342.0,1596.4,3495.3,3471.0,3468.6,663.6,771.1,1869.3,946.6,895.7,887.3,-10.0,-38.0,-30.0,12228.0,-10566.0,2570.0,811.0,-516.0,-6.0,-82.0,0.0,-20.0,-29.0,11290.0,-10786.0,-3493.0,3527.0,-429.0,33.0,-11.0,1.0
2022-05-23 16:09:44.134734-07:00,1113.9,721.6,1102.5,977.3,1058.2,868.8,1783.9,1447.9,3471.0,3471.0,1062.5,831.1,1496.7,3474.6,1168.2,1088.6,3467.4,3466.1,1510.6,1954.8,2488.7,3372.0,1590.8,3484.4,3471.0,3468.6,663.6,771.1,1887.9,932.2,890.7,878.9,4.0,-11.0,20.0,12117.0,-10700.0,2536.0,839.0,-323.0,-60.0,16.0,-5.0,0.0,-21.0,11204.0,-10879.0,-3512.0,3496.0,-218.0,11.0,16.0,1.0
2022-05-23 16:09:44.195552-07:00,1113.9,721.6,1102.5,977.3,1047.0,875.5,1809.0,1429.5,3471.0,3471.0,1062.5,831.1,1495.8,3457.6,1170.9,1082.5,3475.9,3473.4,1513.4,1951.9,2488.7,3372.0,1590.8,3484.4,3477.1,3474.6,656.2,762.0,1887.9,932.2,890.7,878.9,0.0,0.0,17.0,12053.0,-10764.0,2559.0,867.0,-142.0,90.0,84.0,7.0,-2.0,-3.0,11164.0,-10922.0,-3519.0,3481.0,-74.0,19.0,5.0,1.0
2022-05-23 16:09:44.254506-07:00,1115.6,721.6,1083.4,971.3,1047.0,875.5,1809.0,1429.5,3473.4,3473.4,1063.4,826.9,1495.8,3457.6,1170.9,1082.5,3475.9,3473.4,1513.4,1951.9,2484.4,3384.0,1593.6,3497.8,3477.1,3474.6,656.2,762.0,1865.4,939.8,891.5,888.2,1.0,7.0,17.0,12024.0,-10786.0,2600.0,886.0,-20.0,-7.0,83.0,3.0,4.0,-11.0,11164.0,-10926.0,-3513.0,3473.0,24.0,26.0,8.0,1.0
2022-05-23 16:09:44.285056-07:00,1115.6,721.6,1083.4,971.3,1042.6,858.7,1795.5,1392.1,3473.4,3473.4,1063.4,826.9,1489.3,3468.6,1165.6,1084.2,3464.9,3473.4,1510.6,1944.0,2484.4,3384.0,1593.6,3497.8,3469.8,3480.7,654.6,765.3,1865.4,939.8,891.5,888.2,-9.0,6.0,15.0,12022.0,-10778.0,2633.0,902.0,0.0,101.0,68.0,2.0,3.0,-12.0,11169.0,-10923.0,-3507.0,3474.0,20.0,1.0,8.0,1.0
2022-05-23 16:09:44.345162-07:00,1114.7,724.9,1099.0,973.9,1042.6,858.7,1795.5,1392.1,3467.4,3474.6,1063.4,829.4,1489.3,3468.6,1165.6,1084.2,3464.9,3473.4,1510.6,1944.0,2485.5,3381.6,1594.6,3486.8,3469.8,3480.7,654.6,765.3,1874.2,926.2,889.0,877.2,-11.0,4.0,12.0,12029.0,-10766.0,2650.0,892.0,76.0,-71.0,-81.0,-3.0,-1.0,-7.0,11171.0,-10921.0,-3507.0,3475.0,-4.0,-4.0,1.0,1.0
2022-05-23 16:09:44.404901-07:00,1104.3,724.9,1099.0,973.9,1051.3,867.1,1763.7,1405.8,3479.5,3474.6,1063.4,829.4,1496.7,3466.1,1158.6,1082.5,3471.0,3474.6,1508.8,1947.9,2485.5,3381.6,1594.6,3492.9,3478.3,3473.4,652.2,759.6,1874.2,926.2,889.0,874.7,13.0,1.0,33.0,12056.0,-10747.0,2612.0,882.0,-9.0,0.0,-25.0,2.0,14.0,-11.0,11174.0,-10917.0,-3509.0,3479.0,-16.0,-21.0,-5.0,1.0
2022-05-23 16:09:44.434717-07:00,1104.3,720.0,1086.8,959.4,1051.3,867.1,1763.7,1364.8,3479.5,3467.4,1055.6,832.7,1496.7,3466.1,1158.6,1084.2,3481.9,3474.6,1508.8,1947.9,2486.6,3370.8,1600.2,3492.9,3466.1,3473.4,652.2,759.6,1865.4,933.9,893.2,874.7,-2.0,-3.0,18.0,12051.0,-10750.0,2623.0,870.0,17.0,50.0,12.0,13.0,0.0,0.0,11166.0,-10923.0,-3515.0,3479.0,-3.0,-6.0,-3.0,1.0
2022-05-23 16:09:44.495100-07:00,1109.5,720.0,1086.8,959.4,1040.1,863.7,1763.7,1364.8,3471.0,3467.4,1055.6,832.7,1496.7,3475.9,1162.1,1084.2,3481.9,3484.4,1505.1,1951.9,2486.6,3370.8,1600.2,3483.2,3466.1,3478.3,650.5,754.6,1865.4,933.9,893.2,888.2,5.0,9.0,16.0,12063.0,-10738.0,2618.0,871.0,51.0,-68.0,-33.0,1.0,1.0,-7.0,11168.0,-10920.0,-3515.0,3479.0,13.0,-3.0,-1.0,1.0
2022-05-23 16:09:44.554564-07:00,1109.5,715.1,1074.7,958.5,1040.1,863.7,1763.7,1356.7,3471.0,3464.9,1059.9,827.7,1496.7,3475.9,1162.1,1087.7,3473.4,3484.4,1505.1,1951.9,2471.7,3382.8,1595.5,3483.2,3469.8,3478.3,650.5,754.6,1871.3,934.7,884.8,888.2,-6.0,10.0,16.0,12082.0,-10720.0,2609.0,861.0,33.0,65.0,8.0,4.0,9.0,-1.0,11175.0,-10912.0,-3515.0,3482.0,27.0,-9.0,4.0,1.0
2022-05-23 16:09:44.584998-07:00,1118.2,715.1,1074.7,958.5,1036.6,871.3,1753.1,1356.7,3469.8,3464.9,1059.9,827.7,1500.4,3462.5,1155.0,1087.7,3473.4,3472.2,1499.5,1963.7,2471.7,3382.8,1595.5,3492.9,3469.8,3469.8,646.5,750.5,1871.3,934.7,884.8,879.7,-10.0,18.0,8.0,12091.0,-10708.0,2622.0,845.0,77.0,4.0,-62.0,1.0,3.0,-7.0,11177.0,-10910.0,-3514.0,3482.0,4.0,7.0,-7.0,1.0
2022-05-23 16:09:44.645194-07:00,1118.2,715.1,1084.2,962.8,1036.6,871.3,1752.1,1357.6,3469.8,3463.7,1058.2,828.5,1500.4,3462.5,1160.3,1078.2,3477.1,3475.9,1499.5,1963.7,2477.0,3366.0,1599.3,3492.9,3478.3,3474.6,646.5,750.5,1859.6,932.2,888.2,879.7,1.0,3.0,20.0,12112.0,-10689.0,2606.0,819.0,0.0,43.0,-43.0,-1.0,5.0,-14.0,11177.0,-10911.0,-3515.0,3482.0,-12.0,-4.0,-5.0,1.0
2022-05-23 16:09:44.704499-07:00,1123.5,718.4,1084.2,962.8,1042.6,862.9,1752.1,1357.6,3472.2,3467.4,1058.2,828.5,1500.4,3473.4,1160.3,1078.2,3477.1,3475.9,1496.7,1945.9,2477.0,3366.0,1596.4,3492.9,3478.3,3474.6,652.2,752.9,1859.6,932.2,883.1,878.9,-11.0,11.0,1.0,12105.0,-10696.0,2622.0,792.0,-37.0,73.0,-22.0,7.0,3.0,-6.0,11169.0,-10918.0,-3517.0,3480.0,-38.0,1.0,-7.0,1.0
2022-05-23 16:09:44.794545-07:00,1123.5,718.4,1077.3,955.1,1042.6,862.9,1754.1,1343.1,3472.2,3467.4,1063.4,827.7,1500.4,3473.4,1148.0,1072.9,3467.4,3472.2,1496.7,1945.9,2481.3,3356.4,1596.4,3492.9,3478.3,3469.8,652.2,752.9,1864.5,934.7,883.1,878.9,6.0,-9.0,13.0,12102.0,-10701.0,2622.0,770.0,-1.0,43.0,-32.0,7.0,0.0,-10.0,11160.0,-10927.0,-3521.0,3476.0,-11.0,6.0,-3.0,1.0
2022-05-23 16:09:44.796170-07:00,1118.2,719.2,1077.3,955.1,1035.7,859.5,1754.1,1343.1,3468.6,3471.0,1063.4,827.7,1514.3,3468.6,1148.0,1072.9,3467.4,3472.2,1507.8,1943.0,2481.3,3356.4,1594.6,3489.2,3478.3,3469.8,649.7,757.1,1864.5,934.7,892.4,883.1,0.0,5.0,3.0,12098.0,-10702.0,2638.0,755.0,-9.0,27.0,10.0,6.0,5.0,-8.0,11160.0,-10928.0,-3522.0,3475.0,5.0,0.0,5.0,1.0
2022-05-23 16:09:44.854437-07:00,1118.2,719.2,1079.9,956.0,1035.7,859.5,1745.4,1349.4,3468.6,3471.0,1054.8,824.4,1514.3,3468.6,1155.9,1079.9,3464.9,3472.2,1507.8,1943.0,2475.9,3363.6,1594.6,3489.2,3475.9,3471.0,649.7,757.1,1864.5,931.3,892.4,883.1,-6.0,3.0,7.0,12102.0,-10696.0,2646.0,758.0,33.0,8.0,19.0,4.0,0.0,-5.0,11166.0,-10921.0,-3520.0,3476.0,32.0,-1.0,5.0,1.0
2022-05-23 16:09:44.885035-07:00,1111.2,711.8,1076.4,956.0,1038.3,860.4,1745.4,1349.4,3464.9,3473.4,1058.2,824.4,1488.4,3469.8,1155.9,1079.9,3464.9,3472.2,1503.2,1943.0,2475.9,3375.6,1595.5,3484.4,3475.9,3471.0,640.0,754.6,1864.5,931.3,880.6,871.3,-8.0,10.0,17.0,12124.0,-10671.0,2645.0,760.0,65.0,-31.0,-1.0,2.0,6.0,0.0,11178.0,-10909.0,-3517.0,3480.0,30.0,-4.0,6.0,1.0
2022-05-23 16:09:44.944851-07:00,1111.2,711.8,1076.4,953.4,1038.3,857.9,1741.6,1343.1,3464.9,3473.4,1058.2,828.5,1488.4,3464.9,1155.0,1081.6,3467.4,3478.3,1505.1,1943.0,2485.5,3375.6,1595.5,3484.4,3474.6,3478.3,646.5,754.6,1882.0,931.3,880.6,871.3,-5.0,10.0,10.0,12132.0,-10662.0,2639.0,767.0,4.0,-17.0,-4.0,4.0,5.0,-9.0,11180.0,-10907.0,-3516.0,3481.0,-7.0,-1.0,0.0,1.0
2022-05-23 16:09:45.034724-07:00,1119.1,715.9,1077.3,953.4,1024.5,857.9,1741.6,1343.1,3475.9,3463.7,1058.2,828.5,1493.0,3464.9,1155.0,1081.6,3467.4,3478.3,1505.1,1945.0,2485.5,3350.4,1589.9,3495.3,3474.6,3478.3,646.5,751.3,1882.0,936.4,880.6,878.9,-5.0,4.0,5.0,12137.0,-10659.0,2632.0,764.0,21.0,-5.0,-8.0,4.0,4.0,-4.0,11180.0,-10907.0,-3517.0,3480.0,13.0,-5.0,2.0,1.0
2022-05-23 16:09:45.035981-07:00,1119.1,715.9,1077.3,960.2,1024.5,865.4,1724.4,1338.6,3475.9,3463.7,1058.2,828.5,1493.0,3472.2,1155.0,1084.2,3474.6,3464.9,1501.4,1945.0,2471.7,3350.4,1589.9,3495.3,3480.7,3474.6,650.5,751.3,1873.2,936.4,880.6,878.9,3.0,2.0,17.0,12142.0,-10655.0,2627.0,769.0,9.0,-11.0,5.0,3.0,1.0,-7.0,11184.0,-10903.0,-3516.0,3481.0,15.0,-2.0,4.0,1.0
2022-05-23 16:09:45.094717-07:00,1116.5,724.9,1067.7,960.2,1032.3,865.4,1724.4,1338.6,3463.7,3464.9,1054.8,828.5,1494.9,3472.2,1155.0,1084.2,3474.6,3464.9,1501.4,1942.0,2471.7,3361.2,1588.0,3489.2,3480.7,3474.6,650.5,757.9,1873.2,938.1,878.9,886.5,-6.0,-18.0,-1.0,12152.0,-10643.0,2629.0,768.0,59.0,-36.0,12.0,0.0,-10.0,-11.0,11196.0,-10893.0,-3508.0,3480.0,82.0,28.0,7.0,1.0
2022-05-23 16:09:45.156605-07:00,1116.5,724.9,1067.7,955.1,1032.3,854.5,1737.8,1327.8,3463.7,3464.9,1054.8,829.4,1494.9,3467.4,1147.1,1076.4,3469.8,3462.5,1507.8,1942.0,2470.6,3361.2,1588.0,3489.2,3466.1,3467.4,648.1,757.9,1864.5,938.1,878.9,886.5,9.0,3.0,-3.0,12213.0,-10576.0,2606.0,798.0,221.0,-149.0,43.0,3.0,2.0,-22.0,11248.0,-10840.0,-3488.0,3497.0,208.0,-11.0,18.0,1.0
2022-05-23 16:09:45.184968-07:00,1103.4,726.6,1078.2,950.9,1025.4,854.5,1737.8,1327.8,3469.8,3471.0,1056.5,823.5,1502.3,3467.4,1147.1,1076.4,3469.8,3462.5,1507.8,1948.9,2463.2,3337.3,1593.6,3484.4,3466.1,3467.4,648.1,755.4,1864.5,925.4,887.3,886.5,-11.0,30.0,12.0,12261.0,-10516.0,2613.0,821.0,123.0,-10.0,37.0,1.0,11.0,12.0,11289.0,-10795.0,-3472.0,3522.0,105.0,-11.0,15.0,1.0
2022-05-23 16:09:45.245185-07:00,1103.4,726.6,1078.2,950.9,1021.1,858.7,1722.4,1324.1,3469.8,3471.0,1056.5,823.5,1496.7,3474.6,1146.3,1074.7,3466.1,3478.3,1503.2,1944.0,2463.2,3337.3,1593.6,3484.4,3467.4,3473.4,646.5,751.3,1864.5,925.4,887.3,886.5,-15.0,-23.0,-8.0,12315.0,-10455.0,2606.0,829.0,290.0,-91.0,11.0,2.0,-13.0,-9.0,11326.0,-10756.0,-3460.0,3534.0,225.0,-2.0,-4.0,1.0
2022-05-23 16:09:45.304459-07:00,1118.2,711.8,1072.9,971.3,1021.1,858.7,1722.4,1324.1,3469.8,3462.5,1056.5,824.4,1496.7,3474.6,1146.3,1074.7,3466.1,3478.3,1503.2,1944.0,2479.1,3362.4,1593.6,3490.5,3467.4,3473.4,646.5,751.3,1858.6,933.9,887.3,873.8,-4.0,-50.0,-37.0,12465.0,-10279.0,2577.0,877.0,658.0,-256.0,178.0,-10.0,-21.0,-36.0,11437.0,-10631.0,-3426.0,3589.0,570.0,-66.0,41.0,1.0
2022-05-23 16:09:45.335284-07:00,1118.2,711.8,1072.9,971.3,1020.2,866.3,1778.1,1340.4,3469.8,3462.5,1056.5,824.4,1500.4,3467.4,1151.5,1075.6,3474.6,3467.4,1478.3,1939.0,2479.1,3362.4,1593.6,3490.5,3478.3,3469.8,648.9,784.4,1858.6,933.9,887.3,873.8,-18.0,-68.0,-109.0,12717.0,-9952.0,2585.0,991.0,1283.0,-385.0,368.0,-6.0,-44.0,-53.0,11646.0,-10383.0,-3358.0,3705.0,1142.0,-113.0,67.0,1.0
2022-05-23 16:09:45.394695-07:00,1120.9,719.2,1162.1,1063.4,1020.2,866.3,1778.1,1340.4,3471.0,3467.4,1069.5,834.4,1500.4,3467.4,1151.5,1075.6,3474.6,3467.4,1478.3,1939.0,2467.4,3332.5,1585.2,3495.3,3478.3,3469.8,648.9,784.4,1866.4,943.2,897.4,876.4,-30.0,22.0,-81.0,13178.0,-9346.0,2470.0,1160.0,1627.0,-921.0,263.0,-9.0,4.0,-44.0,11979.0,-9952.0,-3257.0,3908.0,1428.0,-243.0,114.0,1.0
2022-05-23 16:09:45.484694-07:00,1108.6,719.2,1162.1,1063.4,1035.7,852.8,1860.6,1313.3,3468.6,3467.4,1069.5,834.4,1492.1,3468.6,1174.4,1081.6,3477.1,3473.4,1487.5,1944.0,2467.4,3332.5,1585.2,3488.0,3472.2,3478.3,651.4,820.2,1866.4,943.2,897.4,871.3,75.0,-74.0,46.0,13569.0,-8775.0,2309.0,1403.0,1444.0,-689.0,515.0,10.0,4.0,-18.0,12298.0,-9493.0,-3166.0,4130.0,1422.0,-268.0,126.0,1.0
2022-05-23 16:09:45.486130-07:00,1108.6,715.1,1235.5,1113.9,1035.7,852.8,1860.6,1320.5,3468.6,3468.6,1072.9,830.2,1492.1,3468.6,1174.4,1090.3,3479.5,3473.4,1487.5,1944.0,2481.3,3344.4,1581.4,3488.0,3474.6,3478.3,651.4,820.2,1861.5,953.4,911.0,871.3,18.0,112.0,66.0,13934.0,-8140.0,2371.0,1552.0,1461.0,-176.0,366.0,32.0,40.0,22.0,12588.0,-9034.0,-3069.0,4352.0,1132.0,-238.0,124.0,1.0
2022-05-23 16:09:45.544500-07:00,1110.4,715.1,1235.5,1113.9,1022.8,847.0,1870.3,1320.5,3462.5,3468.6,1072.9,830.2,1500.4,3464.9,1209.7,1090.3,3479.5,3471.0,1493.0,1947.9,2481.3,3344.4,1581.4,3484.4,3474.6,3472.2,663.6,830.2,1861.5,953.4,911.0,871.3,32.0,69.0,101.0,14155.0,-7727.0,2436.0,1563.0,854.0,125.0,109.0,13.0,43.0,33.0,12753.0,-8758.0,-3012.0,4475.0,589.0,-119.0,52.0,1.0
2022-05-23 16:09:45.604657-07:00,1110.4,717.5,1246.2,1105.1,1022.8,847.0,1870.3,1325.0,3462.5,3471.0,1077.3,831.1,1500.4,3464.9,1209.7,1092.1,3469.8,3471.0,1493.0,1947.9,2479.1,3337.3,1575.8,3484.4,3478.3,3472.2,663.6,830.2,1870.3,953.4,916.0,871.3,-45.0,82.0,9.0,14235.0,-7553.0,2559.0,1484.0,280.0,206.0,-64.0,9.0,26.0,78.0,12795.0,-8677.0,-3003.0,4519.0,43.0,-25.0,-4.0,1.0
2022-05-23 16:09:45.635133-07:00,1116.5,717.5,1246.2,1105.1,1014.2,844.4,1878.1,1325.0,3472.2,3471.0,1077.3,831.1,1487.5,3474.6,1232.8,1092.1,3469.8,3472.2,1485.6,1947.9,2479.1,3337.3,1575.8,3488.0,3478.3,3473.4,658.7,844.4,1870.3,953.4,916.0,871.3,14.0,-12.0,42.0,14231.0,-7566.0,2574.0,1430.0,-174.0,143.0,-73.0,2.0,10.0,-2.0,12765.0,-8721.0,-3021.0,4507.0,-192.0,-11.0,-3.0,1.0
2022-05-23 16:09:45.695315-07:00,1116.5,720.8,1253.3,1103.4,1014.2,844.4,1880.1,1306.1,3472.2,3483.2,1064.3,829.4,1487.5,3474.6,1231.9,1095.6,3473.4,3473.4,1485.6,1947.9,2480.2,3328.9,1573.0,3488.0,3462.5,3467.4,658.7,844.4,1860.6,944.1,914.4,871.3,-43.0,1.0,-30.0,14191.0,-7632.0,2631.0,1365.0,-116.0,146.0,-88.0,8.0,-5.0,18.0,12722.0,-8783.0,-3043.0,4492.0,-201.0,-2.0,-5.0,1.0
2022-05-23 16:09:45.814259-07:00,1116.5,715.9,1253.3,1103.4,1034.0,841.9,1880.1,1306.1,3461.3,3471.0,1064.3,829.4,1494.0,3471.0,1231.9,1095.6,3473.4,3473.4,1480.1,1946.9,2480.2,3328.9,1569.3,3488.0,3462.5,3467.4,656.2,850.3,1860.6,944.1,921.1,881.4,13.0,-30.0,-5.0,14182.0,-7674.0,2571.0,1344.0,-59.0,-167.0,-134.0,1.0,0.0,-14.0,12680.0,-8843.0,-3067.0,4479.0,-140.0,-17.0,-9.0,1.0
2022-05-23 16:09:45.815129-07:00,1116.5,715.9,1281.9,1147.1,1034.0,841.9,1886.9,1308.8,3461.3,3471.0,1066.9,828.5,1494.0,3471.0,1233.7,1094.7,3464.9,3472.2,1480.1,1946.9,2493.0,3337.3,1569.3,3488.0,3477.1,3469.8,656.2,850.3,1865.4,949.2,921.1,881.4,-7.0,-8.0,-7.0,14199.0,-7656.0,2533.0,1343.0,85.0,-56.0,12.0,9.0,3.0,-1.0,12672.0,-8850.0,-3074.0,4482.0,10.0,-11.0,17.0,1.0
2022-05-23 16:09:45.844310-07:00,1116.5,718.4,1281.9,1147.1,1024.5,841.9,1886.9,1308.8,3467.4,3462.5,1066.9,828.5,1494.9,3469.8,1233.7,1094.7,3464.9,3472.2,1484.7,1967.7,2493.0,3337.3,1567.4,3483.2,3477.1,3469.8,668.4,857.9,1865.4,949.2,909.3,878.9,-9.0,-13.0,-2.0,14208.0,-7636.0,2514.0,1393.0,58.0,-137.0,83.0,4.0,-1.0,-2.0,12678.0,-8834.0,-3074.0,4497.0,95.0,-32.0,9.0,1.0
2022-05-23 16:09:45.906283-07:00,1116.5,718.4,1293.6,1148.0,1024.5,841.9,1885.0,1313.3,3467.4,3462.5,1063.4,824.4,1494.9,3469.8,1231.9,1098.2,3462.5,3471.0,1484.7,1967.7,2494.0,3313.4,1567.4,3483.2,3461.3,3472.2,668.4,857.9,1866.4,944.1,909.3,878.9,8.0,-9.0,34.0,14260.0,-7552.0,2458.0,1418.0,219.0,-175.0,-30.0,3.0,2.0,-1.0,12697.0,-8801.0,-3072.0,4510.0,122.0,-25.0,6.0,1.0
2022-05-23 16:09:45.935479-07:00,1132.2,721.6,1293.6,1148.0,1029.7,836.9,1885.0,1313.3,3471.0,3472.2,1063.4,824.4,1499.5,3468.6,1231.9,1098.2,3462.5,3471.0,1486.6,1957.8,2494.0,3313.4,1565.5,3483.2,3461.3,3472.2,660.3,852.8,1866.4,944.1,921.1,885.6,-9.0,13.0,12.0,14290.0,-7499.0,2441.0,1430.0,42.0,-25.0,65.0,9.0,14.0,10.0,12721.0,-8762.0,-3062.0,4523.0,27.0,7.0,10.0,1.0
2022-05-23 16:09:45.994711-07:00,1132.2,721.6,1316.0,1164.7,1029.7,836.1,1863.5,1308.8,3471.0,3472.2,1066.9,826.9,1499.5,3479.5,1234.6,1088.6,3473.4,3466.1,1491.2,1957.8,2495.1,3327.7,1565.5,3483.2,3475.9,3471.0,659.5,852.8,1858.6,942.4,921.1,885.6,0.0,4.0,-6.0,14290.0,-7493.0,2443.0,1456.0,79.0,-14.0,31.0,6.0,6.0,3.0,12731.0,-8747.0,-3058.0,4527.0,88.0,-12.0,1.0,1.0
2022-05-23 16:09:46.055053-07:00,1120.9,729.9,1344.9,1164.7,1034.0,836.1,1863.5,1308.8,3464.9,3473.4,1060.8,826.9,1489.3,3479.5,1234.6,1088.6,3473.4,3466.1,1491.2,1957.8,2495.1,3333.7,1559.0,3481.9,3475.9,3471.0,659.5,843.6,1858.6,942.4,911.8,881.4,-1.0,-6.0,-4.0,14309.0,-7455.0,2440.0,1464.0,69.0,-34.0,33.0,3.0,10.0,2.0,12749.0,-8716.0,-3054.0,4538.0,95.0,-12.0,3.0,1.0
2022-05-23 16:09:46.085011-07:00,1120.9,729.9,1344.9,1208.0,1034.0,841.9,1842.0,1301.6,3464.9,3473.4,1060.8,826.9,1489.3,3466.1,1226.6,1098.2,3478.3,3471.0,1477.3,1957.8,2493.0,3333.7,1559.0,3481.9,3473.4,3467.4,670.9,843.6,1858.6,942.4,911.8,881.4,-16.0,-18.0,12.0,14322.0,-7428.0,2439.0,1484.0,62.0,-25.0,56.0,3.0,-5.0,9.0,12774.0,-8679.0,-3040.0,4549.0,133.0,-3.0,15.0,1.0
2022-05-23 16:09:46.144649-07:00,1117.4,709.3,1361.2,1208.0,1032.3,841.9,1842.0,1301.6,3469.8,3462.5,1062.5,826.9,1488.4,3466.1,1226.6,1098.2,3478.3,3471.0,1477.3,1960.8,2493.0,3330.1,1565.5,3492.9,3473.4,3467.4,670.9,834.4,1858.6,934.7,908.4,875.5,2.0,-5.0,5.0,14337.0,-7389.0,2443.0,1524.0,94.0,-55.0,109.0,1.0,1.0,-5.0,12803.0,-8634.0,-3020.0,4565.0,123.0,-6.0,18.0,1.0
2022-05-23 16:09:46.174683-07:00,1117.4,709.3,1361.2,1171.8,1032.3,844.4,1831.3,1278.3,3469.8,3462.5,1062.5,825.2,1488.4,3466.1,1229.3,1094.7,3469.8,3469.8,1481.9,1960.8,2495.1,3330.1,1565.5,3492.9,3472.2,3478.3,675.0,834.4,1864.5,934.7,908.4,875.5,-10.0,11.0,11.0,14351.0,-7352.0,2453.0,1554.0,71.0,2.0,51.0,1.0,6.0,8.0,12823.0,-8599.0,-3011.0,4583.0,67.0,-24.0,11.0,1.0
2022-05-23 16:09:46.235090-07:00,1116.5,711.8,1353.1,1188.5,1026.3,844.4,1831.3,1278.3,3457.6,3471.0,1064.3,825.2,1491.2,3466.1,1229.3,1094.7,3469.8,3469.8,1481.9,1959.8,2487.6,3325.3,1565.5,3477.1,3472.2,3478.3,675.0,835.2,1865.4,953.4,939.0,870.5,-4.0,8.0,25.0,14361.0,-7330.0,2459.0,1557.0,9.0,4.0,5.0,4.0,11.0,9.0,12834.0,-8581.0,-3008.0,4589.0,2.0,7.0,0.0,1.0
2022-05-23 16:09:46.295145-07:00,1116.5,711.8,1353.1,1188.5,1021.1,832.7,1820.7,1287.3,3457.6,3471.0,1064.3,825.2,1494.9,3466.1,1235.5,1096.4,3469.8,3480.7,1473.6,1945.0,2487.6,3325.3,1565.5,3477.1,3475.9,3474.6,661.1,832.7,1865.4,953.4,939.0,870.5,-5.0,0.0,-8.0,14354.0,-7337.0,2478.0,1559.0,-15.0,53.0,17.0,3.0,3.0,-5.0,12832.0,-8583.0,-3009.0,4587.0,-12.0,0.0,2.0,1.0
2022-05-23 16:09:46.324295-07:00,1120.0,712.6,1364.8,1209.7,1021.1,832.7,1820.7,1287.3,3475.9,3478.3,1064.3,831.9,1494.9,3466.1,1235.5,1096.4,3469.8,3480.7,1473.6,1945.0,2486.6,3321.7,1563.7,3483.2,3475.9,3474.6,661.1,832.7,1852.8,945.8,921.1,872.1,4.0,-8.0,10.0,14348.0,-7345.0,2488.0,1554.0,-11.0,13.0,1.0,4.0,6.0,-4.0,12829.0,-8588.0,-3011.0,4587.0,-7.0,-10.0,9.0,1.0
2022-05-23 16:09:46.385067-07:00,1120.0,712.6,1364.8,1209.7,1013.3,826.9,1811.0,1290.0,3475.9,3478.3,1064.3,831.9,1484.7,3467.4,1241.7,1095.6,3471.0,3473.4,1460.8,1949.9,2486.6,3321.7,1563.7,3483.2,3472.2,3478.3,660.3,831.1,1852.8,945.8,921.1,872.1,-7.0,2.0,-3.0,14337.0,-7356.0,2514.0,1565.0,-27.0,72.0,63.0,4.0,1.0,1.0,12829.0,-8586.0,-3011.0,4591.0,29.0,-16.0,7.0,1.0
2022-05-23 16:09:46.444723-07:00,1111.2,709.3,1362.1,1200.0,1013.3,826.9,1811.0,1290.0,3469.8,3464.9,1062.5,826.9,1484.7,3467.4,1241.7,1095.6,3471.0,3473.4,1460.8,1949.9,2513.3,3324.1,1560.9,3495.3,3472.2,3478.3,660.3,831.1,1862.5,950.9,921.1,873.0,-5.0,-9.0,0.0,14334.0,-7357.0,2532.0,1563.0,-12.0,31.0,3.0,0.0,0.0,4.0,12831.0,-8582.0,-3011.0,4592.0,-14.0,-3.0,4.0,1.0
2022-05-23 16:09:46.504620-07:00,1114.7,709.3,1362.1,1200.0,1028.0,836.9,1803.2,1281.0,3467.4,3464.9,1062.5,826.9,1494.0,3460.1,1238.2,1097.3,3472.2,3468.6,1460.8,1957.8,2513.3,3324.1,1560.9,3488.0,3467.4,3474.6,648.9,829.4,1862.5,950.9,921.1,874.7,4.0,-6.0,7.0,14331.0,-7358.0,2548.0,1555.0,10.0,43.0,-10.0,5.0,7.0,-3.0,12830.0,-8583.0,-3011.0,4592.0,-1.0,-6.0,2.0,1.0
2022-05-23 16:09:46.535025-07:00,1114.7,710.1,1361.2,1208.0,1028.0,836.9,1803.2,1267.6,3467.4,3479.5,1070.3,822.7,1494.0,3460.1,1238.2,1099.0,3471.0,3468.6,1460.8,1957.8,2491.9,3332.5,1559.9,3488.0,3477.1,3474.6,648.9,829.4,1866.4,946.6,921.1,874.7,-4.0,1.0,12.0,14329.0,-7352.0,2581.0,1547.0,28.0,81.0,41.0,8.0,10.0,12.0,12833.0,-8579.0,-3010.0,4592.0,7.0,-6.0,4.0,1.0
2022-05-23 16:09:46.595317-07:00,1115.6,710.1,1361.2,1208.0,1050.4,827.7,1802.3,1267.6,3461.3,3479.5,1070.3,822.7,1491.2,3475.9,1239.9,1099.0,3471.0,3467.4,1481.9,1952.9,2491.9,3332.5,1559.9,3485.6,3477.1,3488.0,659.5,826.0,1866.4,946.6,921.1,878.0,1.0,-11.0,-6.0,14324.0,-7347.0,2614.0,1563.0,-1.0,7.0,66.0,2.0,-6.0,-11.0,12829.0,-8584.0,-3013.0,4594.0,-23.0,-17.0,15.0,1.0
2022-05-23 16:09:46.624649-07:00,1115.6,720.8,1343.1,1204.4,1050.4,827.7,1802.3,1279.2,3461.3,3457.6,1066.0,823.5,1491.2,3475.9,1239.9,1102.5,3474.6,3467.4,1481.9,1952.9,2494.0,3318.2,1562.7,3485.6,3473.4,3488.0,659.5,826.0,1860.6,945.8,923.7,878.0,1.0,-1.0,20.0,14323.0,-7339.0,2635.0,1573.0,76.0,87.0,56.0,3.0,5.0,5.0,12829.0,-8576.0,-3014.0,4605.0,62.0,-11.0,15.0,1.0
2022-05-23 16:09:46.685247-07:00,1114.7,720.8,1343.1,1204.4,1059.1,837.7,1793.6,1279.2,3464.9,3457.6,1066.0,823.5,1484.7,3462.5,1248.8,1102.5,3474.6,3473.4,1470.0,1951.9,2494.0,3318.2,1562.7,3488.0,3473.4,3471.0,649.7,833.6,1860.6,945.8,923.7,880.6,-5.0,19.0,10.0,14320.0,-7329.0,2676.0,1577.0,-81.0,26.0,37.0,1.0,8.0,2.0,12830.0,-8578.0,-3010.0,4603.0,-97.0,14.0,12.0,1.0
