Time,P0,P1,P2,P3,P4,P5,P6,P7,P8,P9,P10,P11,P12,P13,P14,P15,P16,P17,P18,P19,P20,P21,P22,P23,P24,P25,P26,P27,P28,P29,P30,P31,ECG,AX0,AY0,AZ0,QW0,QX0,QY0,QZ0,GX0,GY0,GZ0,AX1,AY1,AZ1,QW1,QX1,QY1,QZ1,GX1,GY1,GZ1
2022-05-23 14:51:12.311938-07:00,1232.8,839.4,1086.8,974.8,1009.0,933.0,1914.4,1481.0,3478.3,3464.9,1293.6,1069.5,1923.3,3468.6,1479.2,1567.4,3466.1,3474.6,1518.0,1998.5,2592.9,3450.4,1982.6,3507.5,3477.1,3473.4,743.0,885.6,1932.1,1206.2,1130.5,1011.6,-74.0,9.0,-80.0,7523.0,-9341.0,8718.0,-6969.0,-135.0,23.0,-130.0,-56.0,-6.0,-6.0,7911.0,-12731.0,-5681.0,3393.0,-142.0,36.0,-32.0,1.0
2022-05-23 14:51:12.400895-07:00,1232.8,835.2,1093.8,976.5,1009.0,933.0,1914.4,1477.3,3478.3,3466.1,1302.5,1075.6,1923.3,3468.6,1479.2,1556.2,3477.1,3474.6,1518.0,1998.5,2588.5,3449.1,1977.6,3507.5,3488.0,3473.4,743.0,885.6,1919.3,1208.9,1127.9,1011.6,-92.0,-26.0,-31.0,7464.0,-9389.0,8738.0,-6944.0,-76.0,-2.0,-9.0,-69.0,-22.0,1.0,7860.0,-12763.0,-5695.0,3367.0,-71.0,-22.0,38.0,1.0
2022-05-23 14:51:12.431318-07:00,1237.3,835.2,1093.8,976.5,1006.5,934.7,1909.5,1477.3,3469.8,3466.1,1302.5,1075.6,1911.5,3467.4,1476.4,1556.2,3477.1,3475.9,1523.6,1998.5,2588.5,3449.1,1977.6,3488.0,3488.0,3479.5,745.5,892.4,1919.3,1208.9,1127.9,1011.6,-35.0,0.0,-40.0,7484.0,-9391.0,8740.0,-6918.0,98.0,-74.0,-3.0,-21.0,-2.0,-12.0,7843.0,-12771.0,-5679.0,3400.0,35.0,-43.0,43.0,1.0
2022-05-23 14:51:12.461299-07:00,1237.3,821.9,1088.6,986.7,1006.5,934.7,1909.5,1488.4,3469.8,3467.4,1307.9,1067.7,1911.5,3467.4,1476.4,1571.1,3478.3,3475.9,1523.6,1998.5,2568.0,3456.4,1967.7,3488.0,3467.4,3479.5,745.5,892.4,1920.3,1214.2,1127.0,1011.6,42.0,53.0,-36.0,7544.0,-9372.0,8668.0,-6968.0,401.0,-25.0,-170.0,20.0,20.0,-6.0,7890.0,-12738.0,-5661.0,3448.0,306.0,-38.0,0.0,1.0
2022-05-23 14:51:12.521237-07:00,1231.0,821.9,1088.6,986.7,1013.3,935.6,1913.4,1488.4,3467.4,3467.4,1307.9,1067.7,1901.6,3463.7,1481.9,1571.1,3478.3,3472.2,1518.0,2004.5,2568.0,3456.4,1967.7,3497.8,3467.4,3472.2,739.7,913.5,1920.3,1214.2,1127.0,1011.6,29.0,3.0,-15.0,7557.0,-9362.0,8578.0,-7079.0,-12.0,126.0,-179.0,37.0,3.0,20.0,7949.0,-12690.0,-5666.0,3480.0,25.0,-26.0,-76.0,1.0
2022-05-23 14:51:12.641202-07:00,1231.0,812.7,1112.1,996.2,1013.3,935.6,1913.4,1514.3,3467.4,3473.4,1301.6,1062.5,1901.6,3463.7,1481.9,1555.3,3474.6,3472.2,1518.0,2004.5,2575.6,3447.9,1961.8,3497.8,3473.4,3472.2,739.7,913.5,1920.3,1224.8,1134.9,1011.6,29.0,-16.0,1.0,7504.0,-9380.0,8571.0,-7118.0,-7.0,57.0,-71.0,46.0,-6.0,14.0,7951.0,-12684.0,-5685.0,3467.0,-34.0,42.0,-26.0,1.0
2022-05-23 14:51:12.643827-07:00,1241.7,825.2,1112.1,996.2,1007.3,943.2,1931.1,1514.3,3463.7,3478.3,1301.6,1062.5,1913.4,3463.7,1479.2,1555.3,3474.6,3475.9,1534.8,1994.5,2575.6,3447.9,1960.8,3485.6,3473.4,3475.9,737.3,912.7,1920.3,1224.8,1136.6,1015.1,9.0,-11.0,-1.0,7457.0,-9370.0,8573.0,-7178.0,69.0,285.0,-132.0,23.0,-18.0,16.0,7955.0,-12686.0,-5692.0,3438.0,8.0,53.0,-25.0,1.0
2022-05-23 14:51:12.700931-07:00,1241.7,825.2,1113.0,986.7,1007.3,943.2,1928.2,1582.4,3463.7,3478.3,1307.0,1066.0,1913.4,3463.7,1477.3,1543.1,3479.5,3469.8,1534.8,1994.5,2590.7,3464.9,1960.8,3485.6,3463.7,3467.4,737.3,912.7,1920.3,1223.0,1136.6,1015.1,-19.0,-16.0,-57.0,7401.0,-9325.0,8608.0,-7253.0,-315.0,235.0,137.0,-8.0,4.0,6.0,7970.0,-12687.0,-5689.0,3405.0,-230.0,69.0,-27.0,1.0
2022-05-23 14:51:12.731374-07:00,1235.5,811.0,1113.0,986.7,1001.3,950.0,1928.2,1582.4,3473.4,3469.8,1307.0,1066.0,1907.5,3471.0,1477.3,1543.1,3479.5,3469.8,1532.9,1994.5,2590.7,3464.9,1955.8,3479.5,3463.7,3467.4,740.6,903.4,1920.3,1223.0,1127.0,1013.3,-54.0,-36.0,-19.0,7317.0,-9288.0,8746.0,-7221.0,-49.0,245.0,155.0,-42.0,-31.0,15.0,7931.0,-12723.0,-5686.0,3364.0,34.0,42.0,61.0,1.0
2022-05-23 14:51:12.791105-07:00,1235.5,811.0,1113.0,979.9,1001.3,950.0,1970.7,1641.6,3473.4,3469.8,1301.6,1066.9,1907.5,3471.0,1463.5,1570.2,3472.2,3467.4,1532.9,1994.5,2574.5,3438.2,1955.8,3479.5,3478.3,3473.4,740.6,903.4,1914.4,1221.3,1127.0,1013.3,-55.0,16.0,-71.0,7306.0,-9211.0,8809.0,-7253.0,25.0,139.0,94.0,-48.0,5.0,-18.0,7938.0,-12731.0,-5638.0,3400.0,42.0,-8.0,97.0,1.0
2022-05-23 14:51:12.821164-07:00,1226.6,811.9,1113.0,979.9,1013.3,938.1,1970.7,1641.6,3467.4,3481.9,1301.6,1066.9,1903.6,3466.1,1463.5,1570.2,3472.2,3467.4,1532.0,1996.5,2574.5,3438.2,1945.0,3488.0,3478.3,3473.4,728.2,883.1,1914.4,1221.3,1133.1,1010.8,-21.0,23.0,-69.0,7288.0,-9181.0,8855.0,-7253.0,-122.0,3.0,99.0,-6.0,18.0,-7.0,7893.0,-12760.0,-5615.0,3434.0,-93.0,-45.0,75.0,1.0
2022-05-23 14:51:12.911210-07:00,1226.6,811.9,1103.4,991.9,1013.3,928.8,1917.4,1610.5,3467.4,3481.9,1295.4,1063.4,1903.6,3464.9,1470.9,1546.9,3478.3,3474.6,1533.8,1996.5,2579.9,3455.2,1945.0,3488.0,3478.3,3478.3,725.8,883.1,1915.4,1213.3,1133.1,1010.8,14.0,4.0,-27.0,7275.0,-9190.0,8917.0,-7178.0,-25.0,-29.0,74.0,28.0,-7.0,4.0,7855.0,-12780.0,-5619.0,3442.0,-35.0,-33.0,21.0,1.0
2022-05-23 14:51:12.912253-07:00,1224.8,813.5,1099.0,991.9,1004.8,928.8,1917.4,1610.5,3463.7,3463.7,1288.2,1063.4,1905.6,3464.9,1470.9,1546.9,3478.3,3474.6,1533.8,1997.5,2579.9,3444.3,1941.0,3491.7,3478.3,3478.3,725.8,879.7,1915.4,1223.0,1123.5,1012.5,47.0,22.0,-14.0,7298.0,-9189.0,8889.0,-7192.0,245.0,-45.0,-165.0,52.0,-3.0,9.0,7881.0,-12761.0,-5615.0,3458.0,158.0,-9.0,6.0,1.0
2022-05-23 14:51:12.971076-07:00,1224.8,813.5,1099.0,987.6,1004.8,939.8,1904.6,1577.7,3463.7,3463.7,1288.2,1067.7,1905.6,3461.3,1456.2,1541.3,3475.9,3472.2,1536.6,1997.5,2578.8,3444.3,1941.0,3491.7,3474.6,3467.4,720.8,879.7,1916.4,1223.0,1123.5,1012.5,31.0,22.0,-6.0,7313.0,-9186.0,8797.0,-7294.0,175.0,115.0,-233.0,28.0,10.0,22.0,7944.0,-12717.0,-5625.0,3459.0,130.0,-19.0,-51.0,1.0
2022-05-23 14:51:13.031270-07:00,1216.8,787.7,1108.6,987.6,1007.3,939.8,1904.6,1577.7,3466.1,3457.6,1290.9,1067.7,1906.6,3461.3,1456.2,1541.3,3475.9,3472.2,1536.6,1997.5,2578.8,3445.5,1954.8,3485.6,3474.6,3467.4,720.8,869.6,1916.4,1217.7,1118.2,1002.2,-8.0,0.0,4.0,7262.0,-9205.0,8740.0,-7388.0,74.0,117.0,-238.0,1.0,-12.0,23.0,7952.0,-12708.0,-5646.0,3440.0,-70.0,28.0,-63.0,1.0
2022-05-23 14:51:13.091182-07:00,1216.8,787.7,1108.6,982.5,1007.3,939.8,1886.0,1572.1,3466.1,3457.6,1290.9,1066.9,1906.6,3462.5,1465.4,1540.3,3464.9,3468.6,1533.8,1997.5,2579.9,3445.5,1954.8,3485.6,3466.1,3479.5,732.3,869.6,1912.4,1217.7,1118.2,1002.2,-31.0,-2.0,-39.0,7204.0,-9203.0,8712.0,-7480.0,-42.0,246.0,-121.0,-33.0,7.0,3.0,7951.0,-12714.0,-5658.0,3400.0,-90.0,81.0,-71.0,1.0
2022-05-23 14:51:13.151030-07:00,1219.5,796.9,1111.2,982.5,1000.5,939.8,1886.0,1572.1,3462.5,3455.2,1289.1,1066.9,1895.8,3462.5,1465.4,1540.3,3464.9,3468.6,1533.8,1995.5,2579.9,3438.2,1935.1,3488.0,3466.1,3479.5,732.3,867.9,1912.4,1208.0,1126.1,1009.9,-41.0,-43.0,-49.0,7088.0,-9195.0,8796.0,-7501.0,-323.0,327.0,86.0,-51.0,-15.0,-10.0,7864.0,-12778.0,-5667.0,3347.0,-386.0,50.0,-5.0,1.0
2022-05-23 14:51:13.181716-07:00,1219.5,796.9,1111.2,997.0,1001.3,934.7,1878.1,1559.9,3462.5,3455.2,1289.1,1057.3,1895.8,3462.5,1467.2,1546.9,3471.0,3468.6,1538.5,2006.4,2579.9,3438.2,1935.1,3488.0,3474.6,3467.4,739.7,867.1,1911.5,1208.0,1126.1,1009.9,-62.0,-42.0,-68.0,6970.0,-9142.0,8980.0,-7460.0,-324.0,214.0,392.0,-27.0,-27.0,-4.0,7740.0,-12861.0,-5662.0,3326.0,-301.0,-11.0,110.0,1.0
2022-05-23 14:51:13.211248-07:00,1217.7,806.0,1110.4,985.9,1001.3,934.7,1878.1,1559.9,3469.8,3468.6,1281.9,1055.6,1895.8,3462.5,1467.2,1546.9,3471.0,3468.6,1538.5,2006.4,2590.7,3437.0,1932.1,3484.4,3474.6,3467.4,739.7,867.1,1911.5,1208.9,1123.5,1000.5,0.0,24.0,-48.0,6940.0,-9058.0,9175.0,-7351.0,-176.0,119.0,397.0,16.0,7.0,0.0,7672.0,-12906.0,-5638.0,3349.0,-27.0,-54.0,127.0,1.0
2022-05-23 14:51:13.271036-07:00,1217.7,806.0,1110.4,985.9,1005.6,939.0,1839.1,1536.6,3469.8,3468.6,1281.9,1055.6,1892.8,3468.6,1463.5,1536.6,3466.1,3462.5,1558.1,2003.5,2590.7,3437.0,1932.1,3484.4,3468.6,3478.3,737.3,864.6,1911.5,1208.9,1123.5,1000.5,17.0,29.0,-42.0,6965.0,-8986.0,9278.0,-7288.0,-85.0,-37.0,190.0,34.0,4.0,0.0,7659.0,-12913.0,-5624.0,3376.0,-41.0,-40.0,34.0,1.0
2022-05-23 14:51:13.301192-07:00,1222.2,807.7,1136.6,995.3,1005.6,939.0,1839.1,1536.6,3471.0,3467.4,1266.7,1053.9,1892.8,3468.6,1463.5,1536.6,3466.1,3462.5,1558.1,2003.5,2568.0,3437.0,1925.2,3495.3,3468.6,3478.3,737.3,864.6,1914.4,1217.7,1123.5,1009.0,36.0,23.0,3.0,6981.0,-8986.0,9313.0,-7226.0,-32.0,-57.0,39.0,40.0,0.0,9.0,7650.0,-12913.0,-5644.0,3365.0,-28.0,-21.0,-16.0,1.0
2022-05-23 14:51:13.361156-07:00,1222.2,807.7,1136.6,995.3,1000.5,941.5,1846.9,1539.4,3471.0,3467.4,1266.7,1053.9,1886.0,3457.6,1461.7,1529.2,3480.7,3467.4,1529.2,1998.5,2568.0,3437.0,1925.2,3495.3,3472.2,3475.9,724.9,857.9,1914.4,1217.7,1123.5,1009.0,31.0,11.0,0.0,6984.0,-9004.0,9294.0,-7225.0,66.0,-13.0,-111.0,33.0,-4.0,11.0,7665.0,-12902.0,-5663.0,3338.0,-8.0,23.0,-34.0,1.0
2022-05-23 14:51:13.421193-07:00,1215.1,803.5,1120.9,985.0,1000.5,941.5,1846.9,1536.6,3464.9,3466.1,1273.9,1048.7,1886.0,3457.6,1461.7,1531.0,3478.3,3467.4,1529.2,1998.5,2558.3,3428.6,1927.2,3481.9,3472.2,3475.9,724.9,857.9,1900.7,1202.7,1120.9,1000.5,-16.0,-26.0,-23.0,6969.0,-9025.0,9260.0,-7257.0,-59.0,14.0,-50.0,-3.0,-8.0,1.0,7659.0,-12911.0,-5675.0,3299.0,-120.0,67.0,-47.0,1.0
2022-05-23 14:51:13.451222-07:00,1216.8,803.5,1120.9,985.0,1000.5,921.1,1844.0,1536.6,3472.2,3466.1,1273.9,1048.7,1892.8,3467.4,1459.8,1531.0,3478.3,3471.0,1542.2,1994.5,2558.3,3428.6,1927.2,3496.6,3472.2,3473.4,734.0,852.8,1900.7,1202.7,1120.9,1003.9,-39.0,14.0,-15.0,6944.0,-9024.0,9276.0,-7262.0,27.0,127.0,-53.0,-28.0,-2.0,13.0,7660.0,-12921.0,-5671.0,3261.0,-14.0,97.0,-24.0,1.0
2022-05-23 14:51:13.541234-07:00,1216.8,803.5,1103.4,1004.8,1000.5,921.1,1844.0,1514.3,3472.2,3467.4,1273.9,1049.6,1892.8,3467.4,1459.8,1537.6,3466.1,3471.0,1542.2,1994.5,2571.3,3433.4,1917.4,3496.6,3467.4,3473.4,734.0,852.8,1900.7,1201.8,1126.1,1003.9,-56.0,-27.0,-47.0,6899.0,-9014.0,9297.0,-7290.0,-71.0,129.0,-31.0,-41.0,-10.0,-4.0,7643.0,-12944.0,-5653.0,3240.0,-102.0,50.0,17.0,1.0
2022-05-23 14:51:13.571148-07:00,1219.5,803.5,1103.4,1004.8,1018.5,933.9,1831.3,1514.3,3471.0,3467.4,1273.9,1049.6,1883.0,3474.6,1451.6,1537.6,3466.1,3472.2,1544.1,1993.5,2571.3,3433.4,1917.4,3486.8,3467.4,3478.3,746.3,852.0,1900.7,1201.8,1126.1,1004.8,-29.0,-21.0,-40.0,6871.0,-8993.0,9331.0,-7300.0,99.0,97.0,66.0,-29.0,-10.0,-14.0,7627.0,-12962.0,-5625.0,3257.0,48.0,-13.0,78.0,1.0
2022-05-23 14:51:13.601196-07:00,1219.5,793.5,1119.1,1006.5,1018.5,933.9,1831.3,1516.2,3471.0,3462.5,1268.5,1047.0,1883.0,3474.6,1451.6,1537.6,3473.4,3472.2,1544.1,1993.5,2579.9,3440.7,1915.4,3486.8,3473.4,3478.3,746.3,852.0,1905.6,1207.1,1115.6,1004.8,-29.0,20.0,-55.0,6886.0,-8934.0,9345.0,-7339.0,58.0,61.0,55.0,0.0,2.0,8.0,7636.0,-12962.0,-5596.0,3287.0,16.0,-4.0,69.0,1.0
2022-05-23 14:51:13.661617-07:00,1205.3,793.5,1119.1,1006.5,1009.0,933.9,1826.5,1516.2,3464.9,3462.5,1268.5,1047.0,1889.9,3468.6,1459.8,1537.6,3473.4,3478.3,1549.7,1999.5,2579.9,3440.7,1915.4,3480.7,3473.4,3474.6,746.3,852.0,1905.6,1207.1,1115.6,997.0,34.0,15.0,-25.0,6886.0,-8931.0,9370.0,-7311.0,-132.0,-21.0,61.0,26.0,7.0,-11.0,7617.0,-12980.0,-5584.0,3279.0,-74.0,15.0,27.0,1.0
2022-05-23 14:51:13.751188-07:00,1205.3,811.0,1126.1,997.9,1009.0,933.9,1813.9,1502.3,3464.9,3464.9,1269.4,1047.8,1889.9,3468.6,1458.0,1539.4,3468.6,3469.8,1549.7,1999.5,2579.9,3439.5,1916.4,3480.7,3464.9,3471.0,746.3,852.0,1900.7,1200.9,1122.6,997.0,27.0,7.0,-7.0,6872.0,-8928.0,9396.0,-7296.0,33.0,47.0,-7.0,47.0,-4.0,20.0,7634.0,-12974.0,-5590.0,3255.0,37.0,25.0,-9.0,1.0
2022-05-23 14:51:13.752164-07:00,1223.0,806.0,1126.1,997.9,1002.2,933.9,1813.9,1502.3,3468.6,3472.2,1269.4,1047.8,1883.0,3471.0,1458.0,1539.4,3468.6,3469.8,1539.4,2007.4,2579.9,3439.5,1916.4,3481.9,3464.9,3471.0,758.7,858.7,1900.7,1200.9,1120.0,1001.3,30.0,8.0,-11.0,6849.0,-8946.0,9387.0,-7307.0,-46.0,-7.0,-57.0,34.0,3.0,8.0,7646.0,-12970.0,-5601.0,3222.0,-48.0,27.0,-26.0,1.0
2022-05-23 14:51:13.811510-07:00,1223.0,806.0,1130.5,993.6,1002.2,933.9,1811.9,1501.4,3468.6,3472.2,1271.2,1041.8,1883.0,3471.0,1469.0,1539.4,3473.4,3467.4,1539.4,2007.4,2579.9,3450.4,1916.4,3481.9,3478.3,3471.0,758.7,858.7,1903.6,1208.0,1120.0,1001.3,-12.0,5.0,-19.0,6821.0,-8967.0,9381.0,-7314.0,11.0,20.0,-75.0,-3.0,-5.0,7.0,7648.0,-12970.0,-5614.0,3194.0,-13.0,37.0,-55.0,1.0
2022-05-23 14:51:13.871145-07:00,1214.2,807.7,1130.5,993.6,998.7,918.6,1811.9,1501.4,3467.4,3471.0,1271.2,1041.8,1880.1,3473.4,1469.0,1539.4,3473.4,3467.4,1535.7,2005.5,2579.9,3450.4,1907.5,3489.2,3478.3,3471.0,748.0,873.8,1903.6,1208.0,1120.0,1003.0,-63.0,4.0,-46.0,6803.0,-8982.0,9356.0,-7344.0,67.0,11.0,-131.0,-54.0,-4.0,-2.0,7657.0,-12966.0,-5624.0,3172.0,12.0,28.0,-43.0,1.0
2022-05-23 14:51:13.901201-07:00,1214.2,807.7,1122.6,997.9,998.7,918.6,1806.1,1478.3,3467.4,3471.0,1272.1,1044.4,1880.1,3473.4,1467.2,1532.9,3466.1,3478.3,1535.7,2005.5,2564.8,3427.4,1907.5,3489.2,3474.6,3467.4,748.0,873.8,1895.8,1202.7,1120.0,1003.0,-63.0,-11.0,-69.0,6793.0,-9006.0,9331.0,-7356.0,-25.0,-59.0,-83.0,-55.0,-2.0,-12.0,7654.0,-12966.0,-5629.0,3171.0,-34.0,-21.0,-30.0,1.0
2022-05-23 14:51:13.961265-07:00,1215.1,807.7,1139.2,997.9,997.0,933.0,1806.1,1478.3,3467.4,3469.8,1266.7,1044.4,1884.0,3464.9,1467.2,1532.9,3466.1,3478.3,1532.0,2003.5,2564.8,3440.7,1912.4,3488.0,3474.6,3467.4,751.3,874.7,1895.8,1185.9,1109.5,997.9,-12.0,-18.0,-39.0,6805.0,-9038.0,9344.0,-7290.0,11.0,-123.0,10.0,-5.0,-7.0,-9.0,7634.0,-12967.0,-5639.0,3199.0,26.0,-67.0,1.0,1.0
2022-05-23 14:51:14.021216-07:00,1215.1,807.7,1139.2,997.0,997.0,927.9,1800.3,1459.8,3467.4,3469.8,1266.7,1044.4,1884.0,3471.0,1462.6,1541.3,3467.4,3472.2,1537.6,2003.5,2573.4,3440.7,1912.4,3488.0,3471.0,3472.2,739.7,874.7,1900.7,1185.9,1109.5,997.9,26.0,9.0,-9.0,6845.0,-9051.0,9318.0,-7269.0,36.0,-119.0,-7.0,32.0,2.0,7.0,7641.0,-12950.0,-5648.0,3230.0,53.0,-57.0,9.0,1.0
2022-05-23 14:51:14.051309-07:00,1204.4,816.0,1136.6,997.0,1002.2,927.9,1800.3,1459.8,3474.6,3474.6,1268.5,1044.4,1871.3,3471.0,1462.6,1541.3,3467.4,3472.2,1537.6,1997.5,2573.4,3437.0,1908.5,3486.8,3471.0,3472.2,739.7,871.3,1900.7,1195.6,1113.9,1000.5,17.0,-5.0,-3.0,6867.0,-9078.0,9293.0,-7245.0,-45.0,-138.0,-2.0,33.0,-8.0,22.0,7645.0,-12943.0,-5657.0,3238.0,-17.0,-20.0,-1.0,1.0
2022-05-23 14:51:14.111644-07:00,1204.4,816.0,1136.6,1002.2,1002.2,932.2,1781.0,1469.0,3474.6,3474.6,1268.5,1044.4,1871.3,3466.1,1470.9,1545.0,3488.0,3457.6,1535.7,1997.5,2582.0,3437.0,1908.5,3486.8,3473.4,3467.4,744.7,871.3,1897.7,1195.6,1113.9,1000.5,31.0,-4.0,12.0,6878.0,-9121.0,9266.0,-7215.0,56.0,-53.0,-91.0,29.0,-15.0,8.0,7645.0,-12942.0,-5666.0,3223.0,13.0,23.0,3.0,1.0
2022-05-23 14:51:14.171225-07:00,1217.7,809.4,1191.2,1002.2,1015.1,932.2,1781.0,1469.0,3462.5,3452.8,1264.9,1044.4,1876.2,3466.1,1470.9,1545.0,3488.0,3457.6,1535.7,1990.5,2582.0,3438.2,1900.7,3484.4,3473.4,3467.4,744.7,883.1,1897.7,1203.5,1107.8,991.9,-10.0,0.0,-25.0,6880.0,-9140.0,9223.0,-7245.0,-147.0,-18.0,-63.0,-1.0,9.0,2.0,7662.0,-12938.0,-5660.0,3211.0,-128.0,53.0,-19.0,1.0
2022-05-23 14:51:14.201212-07:00,1217.7,809.4,1191.2,1047.0,1015.1,942.4,1780.1,1469.0,3462.5,3452.8,1264.9,1043.5,1881.1,3464.9,1472.7,1537.6,3478.3,3469.8,1537.6,2005.5,2561.6,3438.2,1900.7,3484.4,3467.4,3473.4,747.2,894.9,1904.6,1203.5,1107.8,991.9,-13.0,-15.0,-2.0,6837.0,-9178.0,9241.0,-7214.0,-16.0,44.0,-31.0,-18.0,-13.0,4.0,7632.0,-12966.0,-5659.0,3171.0,-31.0,72.0,5.0,1.0
2022-05-23 14:51:14.261248-07:00,1210.6,797.7,1201.8,1051.3,1015.1,942.4,1780.1,1469.0,3473.4,3463.7,1274.7,1045.2,1881.1,3464.9,1472.7,1537.6,3478.3,3469.8,1537.6,2005.5,2575.6,3444.3,1905.6,3492.9,3467.4,3473.4,747.2,894.9,1896.7,1207.1,1120.9,1002.2,-38.0,-4.0,-40.0,6816.0,-9180.0,9245.0,-7228.0,-40.0,18.0,-42.0,-30.0,-8.0,2.0,7627.0,-12980.0,-5640.0,3156.0,-58.0,46.0,26.0,1.0
2022-05-23 14:51:14.321197-07:00,1210.6,797.7,1201.8,1051.3,1016.8,941.5,1772.3,1428.6,3473.4,3463.7,1274.7,1045.2,1876.2,3469.8,1477.3,1546.9,3473.4,3474.6,1533.8,2009.4,2575.6,3444.3,1905.6,3492.9,3467.4,3475.9,746.3,909.3,1896.7,1207.1,1120.9,1002.2,-24.0,-3.0,-43.0,6805.0,-9192.0,9258.0,-7206.0,-19.0,-32.0,3.0,-18.0,1.0,-16.0,7610.0,-12999.0,-5620.0,3156.0,-24.0,7.0,38.0,1.0
2022-05-23 14:51:14.351197-07:00,1201.8,806.9,1223.9,1053.9,1016.8,941.5,1772.3,1428.6,3467.4,3462.5,1279.2,1053.9,1876.2,3469.8,1477.3,1546.9,3473.4,3474.6,1533.8,2009.4,2564.8,3439.5,1904.6,3488.0,3467.4,3475.9,746.3,909.3,1895.8,1218.6,1129.6,989.3,14.0,12.0,-30.0,6813.0,-9203.0,9261.0,-7180.0,32.0,-72.0,-22.0,15.0,3.0,-14.0,7605.0,-13005.0,-5609.0,3167.0,47.0,-25.0,24.0,1.0
2022-05-23 14:51:14.411875-07:00,1201.8,806.9,1223.9,1053.9,1012.5,944.1,1782.0,1415.8,3467.4,3462.5,1279.2,1053.9,1873.2,3472.2,1480.1,1541.3,3472.2,3467.4,1541.3,2008.4,2564.8,3439.5,1904.6,3488.0,3472.2,3474.6,747.2,921.1,1895.8,1218.6,1129.6,989.3,32.0,16.0,-29.0,6834.0,-9219.0,9222.0,-7190.0,45.0,-74.0,-71.0,24.0,14.0,-9.0,7620.0,-12988.0,-5615.0,3189.0,69.0,-61.0,-35.0,1.0
2022-05-23 14:51:14.471158-07:00,1196.5,796.9,1243.5,1080.8,1012.5,944.1,1782.0,1415.8,3469.8,3457.6,1278.3,1045.2,1873.2,3472.2,1480.1,1541.3,3472.2,3467.4,1541.3,2008.4,2575.6,3429.8,1908.5,3490.5,3472.2,3474.6,747.2,921.1,1900.7,1218.6,1133.1,998.7,8.0,0.0,4.0,6849.0,-9249.0,9186.0,-7183.0,69.0,-93.0,-58.0,11.0,-3.0,11.0,7633.0,-12962.0,-5649.0,3201.0,53.0,-63.0,-69.0,1.0
2022-05-23 14:51:14.501247-07:00,1213.3,796.9,1243.5,1080.8,1006.5,960.2,1753.1,1419.5,3468.6,3457.6,1278.3,1045.2,1874.2,3456.4,1485.6,1540.3,3467.4,3480.7,1537.6,2004.5,2575.6,3429.8,1908.5,3491.7,3472.2,3477.1,733.2,905.0,1900.7,1218.6,1133.1,997.9,-16.0,9.0,6.0,6869.0,-9260.0,9137.0,-7213.0,110.0,-8.0,-121.0,-5.0,-2.0,18.0,7663.0,-12930.0,-5677.0,3212.0,84.0,-23.0,-84.0,1.0
2022-05-23 14:51:14.561558-07:00,1213.3,803.5,1231.0,1070.3,1006.5,960.2,1753.1,1411.3,3468.6,3466.1,1280.1,1046.1,1874.2,3456.4,1485.6,1539.4,3467.4,3480.7,1537.6,2004.5,2569.1,3434.6,1899.7,3491.7,3464.9,3477.1,733.2,905.0,1886.0,1211.5,1134.9,997.9,-22.0,-7.0,-8.0,6867.0,-9279.0,9100.0,-7237.0,3.0,1.0,-101.0,-25.0,0.0,0.0,7679.0,-12913.0,-5698.0,3202.0,-20.0,24.0,-71.0,1.0
2022-05-23 14:51:14.621192-07:00,1217.7,803.5,1231.0,1070.3,1009.9,955.1,1756.0,1411.3,3466.1,3466.1,1280.1,1046.1,1868.4,3471.0,1480.1,1539.4,3467.4,3467.4,1532.9,2003.5,2569.1,3434.6,1899.7,3491.7,3464.9,3471.0,740.6,910.1,1886.0,1211.5,1134.9,993.6,-24.0,1.0,-19.0,6849.0,-9289.0,9078.0,-7268.0,71.0,58.0,-130.0,-17.0,-6.0,4.0,7689.0,-12908.0,-5709.0,3179.0,20.0,54.0,-69.0,1.0
2022-05-23 14:51:14.651216-07:00,1217.7,795.2,1234.6,1063.4,1009.9,955.1,1756.0,1405.8,3466.1,3457.6,1282.8,1047.8,1868.4,3471.0,1480.1,1533.8,3462.5,3467.4,1532.9,2003.5,2559.4,3466.1,1904.6,3491.7,3483.2,3471.0,740.6,910.1,1888.9,1221.3,1128.7,993.6,-13.0,-14.0,-31.0,6824.0,-9306.0,9056.0,-7298.0,21.0,20.0,-124.0,-7.0,-6.0,-3.0,7703.0,-12901.0,-5720.0,3152.0,-11.0,39.0,-65.0,1.0
2022-05-23 14:51:14.711183-07:00,1205.3,795.2,1234.6,1063.4,1015.1,956.8,1756.0,1405.8,3478.3,3457.6,1282.8,1047.8,1863.5,3462.5,1478.3,1533.8,3462.5,3471.0,1532.9,2003.5,2559.4,3466.1,1904.6,3489.2,3483.2,3469.8,748.8,909.3,1888.9,1221.3,1128.7,1001.3,16.0,-23.0,-25.0,6814.0,-9321.0,9039.0,-7309.0,27.0,-16.0,-16.0,17.0,-4.0,-8.0,7706.0,-12894.0,-5737.0,3142.0,12.0,-28.0,-33.0,1.0
2022-05-23 14:51:14.771429-07:00,1205.3,797.7,1228.4,1060.8,1015.1,956.8,1749.3,1412.2,3478.3,3472.2,1279.2,1050.4,1863.5,3462.5,1471.8,1543.1,3478.3,3471.0,1532.9,2003.5,2561.6,3445.5,1907.5,3489.2,3473.4,3464.9,748.8,909.3,1886.9,1213.3,1133.1,1001.3,25.0,10.0,-27.0,6824.0,-9318.0,9030.0,-7314.0,45.0,-13.0,0.0,22.0,7.0,-10.0,7717.0,-12878.0,-5751.0,3155.0,62.0,-46.0,-21.0,1.0
2022-05-23 14:51:14.801261-07:00,1208.0,795.2,1228.4,1060.8,1008.2,949.2,1749.3,1412.2,3466.1,3467.4,1279.2,1050.4,1870.3,3469.8,1471.8,1543.1,3478.3,3471.0,1536.6,2002.5,2561.6,3445.5,1900.7,3479.5,3473.4,3464.9,736.5,911.0,1886.9,1213.3,1130.5,1000.5,21.0,7.0,-11.0,6831.0,-9318.0,9014.0,-7328.0,98.0,-15.0,-30.0,27.0,1.0,0.0,7741.0,-12853.0,-5771.0,3165.0,108.0,-32.0,-48.0,1.0
2022-05-23 14:51:14.861352-07:00,1208.0,795.2,1227.5,1059.1,1008.2,949.2,1740.6,1400.3,3466.1,3467.4,1278.3,1053.9,1870.3,3469.8,1469.0,1543.1,3464.9,3478.3,1536.6,2002.5,2566.9,3426.2,1900.7,3479.5,3473.4,3475.9,736.5,911.0,1894.8,1214.2,1130.5,1000.5,-20.0,8.0,28.0,6845.0,-9316.0,8977.0,-7363.0,51.0,48.0,-101.0,-11.0,-4.0,35.0,7790.0,-12820.0,-5779.0,3166.0,95.0,51.0,-69.0,1.0
2022-05-23 14:51:14.921172-07:00,1203.5,794.4,1227.5,1059.1,1018.5,943.2,1740.6,1400.3,3466.1,3478.3,1278.3,1053.9,1859.6,3469.8,1469.0,1543.1,3464.9,3478.3,1532.0,1997.5,2566.9,3426.2,1901.6,3490.5,3473.4,3475.9,742.2,905.0,1894.8,1214.2,1133.1,996.2,-35.0,-23.0,18.0,6806.0,-9318.0,8971.0,-7402.0,-31.0,127.0,-93.0,-24.0,-13.0,20.0,7807.0,-12821.0,-5774.0,3127.0,-76.0,128.0,-43.0,1.0
2022-05-23 14:51:14.951213-07:00,1203.5,794.4,1236.4,1071.2,1018.5,943.2,1746.4,1383.9,3466.1,3478.3,1281.0,1058.2,1859.6,3469.8,1473.6,1529.2,3466.1,3472.2,1532.0,1997.5,2564.8,3433.4,1901.6,3490.5,3497.8,3472.2,742.2,905.0,1895.8,1214.2,1133.1,996.2,-16.0,-27.0,-50.0,6746.0,-9297.0,9000.0,-7449.0,-25.0,238.0,-13.0,-26.0,-3.0,-29.0,7794.0,-12850.0,-5754.0,3077.0,-89.0,94.0,26.0,1.0
2022-05-23 14:51:15.011350-07:00,1193.8,791.0,1236.4,1071.2,1009.9,947.5,1746.4,1383.9,3461.3,3467.4,1281.0,1058.2,1866.4,3469.8,1473.6,1529.2,3466.1,3472.2,1559.0,1995.5,2564.8,3433.4,1893.8,3481.9,3497.8,3472.2,747.2,916.9,1895.8,1214.2,1128.7,992.7,-15.0,-7.0,-87.0,6702.0,-9257.0,9043.0,-7486.0,14.0,49.0,71.0,-10.0,2.0,-29.0,7775.0,-12871.0,-5734.0,3074.0,-4.0,-26.0,68.0,1.0
2022-05-23 14:51:15.071415-07:00,1193.8,791.0,1228.4,1066.9,1009.9,949.2,1750.2,1391.2,3461.3,3467.4,1286.4,1066.9,1866.4,3467.4,1476.4,1529.2,3478.3,3468.6,1532.0,1995.5,2560.5,3445.5,1893.8,3481.9,3475.9,3480.7,743.9,916.9,1894.8,1206.2,1128.7,992.7,-6.0,3.0,-45.0,6719.0,-9253.0,9064.0,-7451.0,14.0,-143.0,75.0,0.0,8.0,-12.0,7763.0,-12870.0,-5730.0,3114.0,35.0,-107.0,42.0,1.0
2022-05-23 14:51:15.131288-07:00,1202.7,803.5,1231.0,1066.9,1004.8,949.2,1750.2,1391.2,3469.8,3462.5,1281.0,1066.9,1860.6,3467.4,1476.4,1529.2,3478.3,3468.6,1532.0,1987.5,2560.5,3434.6,1900.7,3486.8,3475.9,3480.7,743.9,916.9,1894.8,1211.5,1123.5,995.3,-2.0,7.0,13.0,6777.0,-9259.0,9045.0,-7414.0,119.0,-101.0,33.0,-1.0,-2.0,14.0,7774.0,-12846.0,-5739.0,3168.0,123.0,-103.0,2.0,1.0
2022-05-23 14:51:15.161062-07:00,1202.7,803.5,1231.0,1066.0,1004.8,944.9,1757.0,1404.0,3469.8,3462.5,1281.0,1049.6,1860.6,3473.4,1472.7,1530.1,3475.9,3467.4,1532.9,1987.5,2563.7,3434.6,1900.7,3486.8,3467.4,3471.0,738.1,916.9,1887.9,1211.5,1123.5,995.3,0.0,2.0,15.0,6832.0,-9240.0,9006.0,-7435.0,180.0,-30.0,-7.0,8.0,-2.0,28.0,7822.0,-12806.0,-5741.0,3210.0,133.0,-33.0,-17.0,1.0
2022-05-23 14:51:15.221159-07:00,1194.7,800.2,1229.3,1066.0,1011.6,944.9,1757.0,1404.0,3467.4,3468.6,1280.1,1049.6,1855.7,3473.4,1472.7,1530.1,3475.9,3467.4,1532.9,1998.5,2563.7,3423.7,1892.8,3489.2,3467.4,3471.0,738.1,907.6,1887.9,1196.5,1119.1,994.5,20.0,-2.0,-5.0,6849.0,-9228.0,8988.0,-7455.0,17.0,17.0,-2.0,31.0,7.0,5.0,7840.0,-12792.0,-5751.0,3206.0,-14.0,12.0,-28.0,1.0
2022-05-23 14:51:15.251461-07:00,1194.7,800.2,1229.3,1070.3,1011.6,945.8,1756.0,1398.5,3467.4,3468.6,1280.1,1047.8,1855.7,3473.4,1470.0,1523.6,3485.6,3474.6,1532.0,1998.5,2566.9,3423.7,1892.8,3489.2,3478.3,3477.1,740.6,907.6,1885.0,1196.5,1119.1,994.5,11.0,-67.0,10.0,6838.0,-9218.0,9008.0,-7453.0,-61.0,154.0,180.0,13.0,-5.0,-17.0,7840.0,-12790.0,-5763.0,3188.0,12.0,2.0,-28.0,1.0
2022-05-23 14:51:15.311122-07:00,1198.2,791.0,1229.3,1060.8,999.6,945.8,1756.0,1398.5,3457.6,3462.5,1297.2,1053.0,1859.6,3473.4,1470.0,1523.6,3485.6,3474.6,1532.0,1982.6,2562.6,3469.8,1893.8,3488.0,3478.3,3477.1,740.6,912.7,1886.0,1208.0,1119.1,988.5,-27.0,2.0,-2.0,6869.0,-9105.0,9095.0,-7458.0,276.0,137.0,330.0,-18.0,-16.0,7.0,7900.0,-12757.0,-5739.0,3217.0,287.0,29.0,59.0,1.0
2022-05-23 14:51:15.371162-07:00,1198.2,791.0,1229.3,1060.8,1015.1,961.1,1766.6,1402.1,3457.6,3462.5,1297.2,1053.0,1869.3,3467.4,1494.0,1536.6,3472.2,3473.4,1533.8,1987.5,2562.6,3469.8,1893.8,3488.0,3477.1,3472.2,750.5,917.7,1886.0,1208.0,1119.1,988.5,-74.0,-49.0,140.0,6954.0,-8976.0,9118.0,-7508.0,497.0,238.0,100.0,-42.0,-62.0,22.0,7998.0,-12710.0,-5683.0,3260.0,346.0,34.0,51.0,1.0
2022-05-23 14:51:15.401231-07:00,1200.0,792.7,1447.9,1277.4,1015.1,961.1,1766.6,1402.1,3460.1,3473.4,1521.8,1203.5,1869.3,3467.4,1494.0,1536.6,3472.2,3473.4,1533.8,1987.5,2572.3,3429.8,1965.7,3484.4,3477.1,3472.2,750.5,917.7,1924.3,1450.6,1286.4,991.0,-86.0,25.0,-122.0,7021.0,-8786.0,9090.0,-7702.0,235.0,320.0,53.0,-18.0,26.0,-11.0,8162.0,-12621.0,-5600.0,3342.0,207.0,-20.0,104.0,1.0
2022-05-23 14:51:15.521240-07:00,1200.0,792.7,1447.9,1277.4,1032.3,1084.2,1816.8,1424.1,3460.1,3473.4,1521.8,1203.5,1959.8,3467.4,2034.4,1843.0,3467.4,3477.1,1542.2,2005.5,2572.3,3429.8,1965.7,3484.4,3468.6,3480.7,804.4,994.5,1924.3,1450.6,1286.4,991.0,-1.0,102.0,-158.0,7026.0,-8734.0,9199.0,-7626.0,-184.0,-107.0,471.0,-26.0,39.0,-42.0,8247.0,-12557.0,-5563.0,3434.0,465.0,-110.0,64.0,1.0
2022-05-23 14:51:15.522277-07:00,1229.3,792.7,1436.9,1206.2,1032.3,1084.2,1816.8,1424.1,3478.3,3488.0,1787.8,1420.4,1959.8,3467.4,2034.4,1843.0,3467.4,3477.1,1542.2,2005.5,2565.9,3432.2,2028.4,3492.9,3468.6,3480.7,804.4,994.5,2023.4,1645.4,1522.7,992.7,348.0,-91.0,41.0,7037.0,-8868.0,9236.0,-7414.0,-328.0,-29.0,-340.0,79.0,-2.0,-50.0,8241.0,-12526.0,-5609.0,3486.0,-247.0,-208.0,-96.0,1.0
2022-05-23 14:51:15.580870-07:00,1229.3,792.7,1436.9,1206.2,1021.9,1186.7,1901.6,1431.4,3478.3,3488.0,1787.8,1420.4,2104.8,3473.4,2101.7,2145.3,3467.4,3474.6,1542.2,2023.4,2565.9,3432.2,2028.4,3492.9,3469.8,3478.3,776.9,1086.0,2023.4,1645.4,1522.7,992.7,-131.0,-27.0,-100.0,6967.0,-8831.0,9182.0,-7590.0,367.0,52.0,24.0,-1.0,13.0,131.0,8315.0,-12439.0,-5647.0,3560.0,425.0,-107.0,-65.0,1.0
2022-05-23 14:51:15.611757-07:00,1290.0,878.0,1379.4,1169.1,1021.9,1186.7,1901.6,1426.8,3471.0,3462.5,1719.6,1377.5,2104.8,3473.4,2101.7,1937.1,3464.9,3474.6,1542.2,2023.4,2582.0,3455.2,2040.4,3485.6,3478.3,3478.3,776.9,1086.0,2063.5,1549.7,1415.8,990.2,106.0,100.0,16.0,7054.0,-8932.0,9184.0,-7385.0,-897.0,-458.0,49.0,7.0,24.0,-25.0,8234.0,-12480.0,-5693.0,3533.0,-991.0,13.0,-49.0,1.0
2022-05-23 14:51:15.641016-07:00,1313.3,878.0,1379.4,1169.1,1010.8,1256.9,1890.9,1426.8,3474.6,3462.5,1719.6,1377.5,2122.0,3462.5,2146.3,1937.1,3464.9,3469.8,1531.0,2045.4,2582.0,3455.2,2040.4,3490.5,3478.3,3469.8,796.9,1087.7,2063.5,1549.7,1415.8,995.3,-92.0,-57.0,-99.0,6911.0,-9090.0,9247.0,-7248.0,-145.0,-102.0,-213.0,7.0,-55.0,52.0,8041.0,-12603.0,-5774.0,3405.0,-44.0,79.0,-58.0,1.0
2022-05-23 14:51:15.701797-07:00,1313.3,981.6,1285.5,1097.3,1010.8,1256.9,1890.9,1414.0,3474.6,3473.4,1677.6,1304.3,2122.0,3462.5,2146.3,1732.0,3478.3,3469.8,1531.0,2045.4,2564.8,3423.7,1990.5,3490.5,3474.6,3469.8,796.9,1087.7,2018.4,1619.0,1491.2,995.3,3.0,-90.0,-17.0,6882.0,-9250.0,9208.0,-7123.0,-177.0,-184.0,39.0,-49.0,-10.0,-60.0,7977.0,-12652.0,-5789.0,3351.0,-295.0,-53.0,-11.0,1.0
2022-05-23 14:51:15.761247-07:00,1296.3,981.6,1285.5,1097.3,1002.2,1244.4,1863.5,1414.0,3468.6,3473.4,1677.6,1304.3,2110.8,3473.4,2003.5,1732.0,3478.3,3473.4,1546.9,2049.4,2564.8,3423.7,1990.5,3481.9,3474.6,3473.4,811.0,1076.4,2018.4,1619.0,1491.2,985.9,-79.0,19.0,-61.0,6975.0,-9254.0,9198.0,-7038.0,-57.0,-498.0,174.0,-37.0,-22.0,24.0,7921.0,-12677.0,-5811.0,3349.0,-80.0,-30.0,38.0,1.0
2022-05-23 14:51:15.791470-07:00,1296.3,986.7,1241.7,1089.5,1002.2,1244.4,1863.5,1408.5,3468.6,3462.5,1658.7,1267.6,2110.8,3473.4,2003.5,1679.5,3466.1,3473.4,1546.9,2049.4,2568.0,3446.7,1943.0,3481.9,3467.4,3473.4,811.0,1076.4,1985.6,1544.1,1516.2,985.9,0.0,-19.0,24.0,7109.0,-9304.0,9163.0,-6882.0,35.0,-250.0,202.0,-3.0,-15.0,10.0,7858.0,-12717.0,-5817.0,3338.0,-81.0,-1.0,41.0,1.0
2022-05-23 14:51:15.851284-07:00,1284.6,963.7,1241.7,1089.5,1003.0,1216.8,1854.7,1408.5,3483.2,3475.9,1658.7,1267.6,2071.5,3475.9,1946.9,1679.5,3466.1,3468.6,1536.6,2032.4,2568.0,3446.7,1927.2,3500.2,3467.4,3469.8,805.2,1073.8,1985.6,1544.1,1332.3,1002.2,7.0,60.0,22.0,7189.0,-9278.0,9161.0,-6838.0,51.0,-32.0,-45.0,26.0,2.0,29.0,7844.0,-12729.0,-5808.0,3340.0,-40.0,34.0,4.0,1.0
2022-05-23 14:51:15.911142-07:00,1284.6,963.7,1208.0,1069.5,1003.0,1216.8,1834.3,1397.6,3483.2,3475.9,1638.8,1248.0,2071.5,3475.9,1922.3,1660.6,3483.2,3479.5,1536.6,2032.4,2587.4,3443.1,1927.2,3500.2,3469.8,3467.4,805.2,1073.8,1940.0,1370.3,1332.3,1002.2,23.0,-21.0,-14.0,7167.0,-9340.0,9139.0,-6805.0,-153.0,-129.0,-67.0,26.0,-9.0,-2.0,7796.0,-12765.0,-5817.0,3299.0,-227.0,24.0,-25.0,1.0
2022-05-23 14:51:15.971184-07:00,1266.7,957.7,1208.0,1069.5,1012.5,1175.3,1834.3,1397.6,3468.6,3468.6,1638.8,1248.0,2068.5,3464.9,1922.3,1660.6,3483.2,3479.5,1540.3,2051.4,2587.4,3443.1,1911.5,3480.7,3469.8,3467.4,798.5,1055.6,1940.0,1370.3,1401.2,991.0,-29.0,-69.0,-155.0,7166.0,-9397.0,9102.0,-6778.0,-7.0,-205.0,-120.0,27.0,-31.0,19.0,7746.0,-12800.0,-5825.0,3262.0,-108.0,-14.0,3.0,1.0
2022-05-23 14:51:16.031263-07:00,1266.7,957.7,1491.2,1273.9,1012.5,1175.3,1934.1,1423.1,3468.6,3468.6,1627.5,1246.2,2068.5,3464.9,1900.7,1660.6,3464.9,3466.1,1540.3,2051.4,2572.3,3455.2,1911.5,3480.7,3462.5,3464.9,798.5,1055.6,1933.1,1507.8,1401.2,991.0,47.0,125.0,-49.0,7260.0,-9476.0,9006.0,-6695.0,242.0,-501.0,-205.0,-1.0,28.0,-33.0,7764.0,-12789.0,-5819.0,3277.0,151.0,-31.0,-47.0,1.0
2022-05-23 14:51:16.091146-07:00,1260.4,939.8,1491.2,1273.9,1040.1,1161.2,1934.1,1423.1,3462.5,3468.6,1627.5,1246.2,2047.4,3464.9,1900.7,1660.6,3464.9,3466.1,1546.9,2037.4,2572.3,3455.2,1898.7,3484.4,3462.5,3464.9,804.4,1028.8,1933.1,1507.8,1379.4,982.5,-102.0,-100.0,-88.0,7407.0,-9584.0,8742.0,-6730.0,696.0,-576.0,-340.0,-65.0,2.0,6.0,7824.0,-12736.0,-5833.0,3315.0,369.0,-89.0,-40.0,1.0
2022-05-23 14:51:16.092285-07:00,1260.4,939.8,1436.0,1208.9,1040.1,1161.2,2039.4,1513.4,3462.5,3468.6,1619.9,1228.4,2047.4,3464.9,1889.9,1639.8,3473.4,3467.4,1546.9,2037.4,2577.7,3444.3,1898.7,3484.4,3468.6,3477.1,804.4,1028.8,1916.4,1436.0,1379.4,982.5,200.0,-98.0,120.0,7583.0,-9571.0,8576.0,-6766.0,313.0,84.0,178.0,-21.0,42.0,-144.0,7949.0,-12626.0,-5840.0,3426.0,466.0,-285.0,-64.0,1.0
2022-05-23 14:51:16.151874-07:00,1271.2,952.6,1669.1,1208.9,1046.1,1142.7,2039.4,1513.4,3469.8,3464.9,1612.4,1228.4,2044.4,3474.6,1889.9,1639.8,3473.4,3467.4,1540.3,2027.4,2577.7,3438.2,1908.5,3488.0,3468.6,3477.1,791.9,1009.0,1916.4,1607.7,1499.5,985.0,-132.0,133.0,4.0,7638.0,-9199.0,8680.0,-7080.0,888.0,522.0,102.0,45.0,-42.0,175.0,8129.0,-12474.0,-5824.0,3582.0,551.0,-7.0,84.0,1.0
2022-05-23 14:51:16.271839-07:00,1271.2,952.6,1669.1,1424.1,1046.1,1184.1,1951.9,1492.1,3469.8,3464.9,1612.4,1224.8,2044.4,3462.5,1899.7,1673.8,3462.5,3468.6,1531.0,2027.4,2577.7,3438.2,1908.5,3488.0,3467.4,3473.4,804.4,1009.0,1997.5,1607.7,1499.5,985.0,61.0,-11.0,71.0,7530.0,-9231.0,8661.0,-7177.0,-551.0,556.0,-426.0,45.0,-31.0,82.0,8155.0,-12476.0,-5786.0,3579.0,19.0,88.0,-1.0,1.0
2022-05-23 14:51:16.274924-07:00,1257.8,963.7,1594.6,1424.1,1062.5,1184.1,1951.9,1492.1,3464.9,3468.6,1592.7,1224.8,2051.4,3462.5,1899.7,1673.8,3462.5,3468.6,1531.0,2052.4,2577.7,3449.1,1874.2,3486.8,3467.4,3473.4,804.4,1000.5,1997.5,1504.1,1389.4,997.9,121.0,-35.0,41.0,7366.0,-9297.0,8687.0,-7230.0,188.0,97.0,-119.0,-6.0,-6.0,-91.0,8219.0,-12454.0,-5742.0,3579.0,297.0,66.0,39.0,1.0
2022-05-23 14:51:16.301540-07:00,1257.8,963.7,1594.6,1380.3,1062.5,1206.2,2031.4,1506.0,3464.9,3468.6,1592.7,1230.2,2051.4,3461.3,1880.1,1711.0,3477.1,3474.6,1540.3,2052.4,2573.4,3449.1,1874.2,3486.8,3478.3,3467.4,817.7,1000.5,2230.1,1504.1,1389.4,997.9,-115.0,-8.0,-117.0,7429.0,-9054.0,8672.0,-7488.0,956.0,330.0,156.0,17.0,-36.0,125.0,8390.0,-12332.0,-5708.0,3659.0,505.0,-38.0,-37.0,1.0
2022-05-23 14:51:16.361282-07:00,1243.5,991.0,1388.5,1380.3,1047.0,1206.2,2031.4,1506.0,3462.5,3467.4,1581.4,1230.2,2034.4,3461.3,1880.1,1711.0,3477.1,3474.6,1540.3,2045.4,2573.4,3450.4,1871.3,3478.3,3478.3,3467.4,817.7,985.9,2230.1,1844.0,1632.2,996.2,-93.0,159.0,-133.0,7731.0,-9078.0,8387.0,-7478.0,203.0,-1193.0,-279.0,-37.0,-17.0,22.0,8389.0,-12350.0,-5682.0,3640.0,-437.0,145.0,34.0,1.0
2022-05-23 14:51:16.421203-07:00,1243.5,991.0,1388.5,1180.6,1034.0,1220.4,2065.5,1539.4,3462.5,3467.4,1581.4,1201.8,2012.4,3462.5,1848.9,1650.2,3467.4,3462.5,1532.0,2067.5,2577.7,3450.4,1871.3,3478.3,3471.0,3462.5,806.0,1014.2,2133.1,1844.0,1632.2,996.2,-63.0,-212.0,-9.0,7862.0,-9315.0,8057.0,-7412.0,387.0,-60.0,-268.0,-35.0,-10.0,-24.0,8376.0,-12370.0,-5685.0,3597.0,425.0,-35.0,-72.0,1.0
2022-05-23 14:51:16.451270-07:00,1231.0,956.8,1211.5,1084.2,1034.0,1220.4,2065.5,1539.4,3475.9,3473.4,1571.1,1186.7,2012.4,3462.5,1848.9,1650.2,3467.4,3462.5,1532.0,2067.5,2588.5,3439.5,1863.5,3486.8,3471.0,3462.5,806.0,1014.2,2033.4,1370.3,1349.4,1002.2,-56.0,134.0,-84.0,7941.0,-9297.0,8074.0,-7332.0,-387.0,-580.0,166.0,-4.0,14.0,0.0,8421.0,-12337.0,-5669.0,3632.0,-271.0,30.0,51.0,1.0
2022-05-23 14:51:16.511226-07:00,1231.0,956.8,1211.5,1084.2,1032.3,1193.8,2019.4,1530.1,3475.9,3473.4,1571.1,1186.7,1993.5,3463.7,1835.2,1653.9,3472.2,3474.6,1535.7,2065.5,2588.5,3439.5,1863.5,3486.8,3475.9,3463.7,794.4,1021.1,2033.4,1370.3,1349.4,1002.2,17.0,-32.0,33.0,8000.0,-9409.0,7992.0,-7214.0,365.0,-143.0,-7.0,0.0,-54.0,-19.0,8401.0,-12346.0,-5679.0,3632.0,378.0,-70.0,-3.0,1.0
2022-05-23 14:51:16.541146-07:00,1241.7,944.9,1205.3,1069.5,1032.3,1193.8,2019.4,1530.1,3472.2,3472.2,1554.3,1190.3,1993.5,3463.7,1835.2,1653.9,3472.2,3474.6,1535.7,2065.5,2592.9,3429.8,1861.5,3488.0,3475.9,3463.7,794.4,1021.1,1991.5,1294.5,1266.7,997.9,-35.0,6.0,-39.0,8057.0,-9382.0,7944.0,-7239.0,-6.0,-101.0,-37.0,29.0,-39.0,43.0,8487.0,-12272.0,-5672.0,3694.0,216.0,-58.0,-11.0,1.0
2022-05-23 14:51:16.601212-07:00,1241.7,944.9,1205.3,1069.5,1017.6,1200.0,2017.4,1537.6,3472.2,3472.2,1554.3,1190.3,1980.6,3468.6,1834.3,1637.9,3483.2,3477.1,1532.0,2059.4,2592.9,3429.8,1861.5,3488.0,3471.0,3475.9,784.4,1018.5,1991.5,1294.5,1266.7,997.9,-13.0,-3.0,-12.0,8086.0,-9353.0,7912.0,-7279.0,215.0,125.0,-53.0,6.0,1.0,46.0,8521.0,-12240.0,-5675.0,3714.0,105.0,-7.0,-19.0,1.0
2022-05-23 14:51:16.661798-07:00,1261.3,1047.0,1181.5,1062.5,1017.6,1200.0,2017.4,1537.6,3472.2,3471.0,1559.0,1189.4,1980.6,3468.6,1834.3,1637.9,3483.2,3477.1,1532.0,2059.4,2610.2,3439.5,1842.0,3489.2,3471.0,3475.9,784.4,1018.5,1974.6,1281.9,1231.0,997.0,-11.0,-11.0,-34.0,8074.0,-9306.0,7920.0,-7344.0,198.0,160.0,39.0,18.0,-11.0,-12.0,8559.0,-12216.0,-5659.0,3734.0,173.0,-8.0,26.0,1.0
2022-05-23 14:51:16.691203-07:00,1263.1,1047.0,1181.5,1062.5,1015.1,1188.5,2049.4,1575.8,3472.2,3471.0,1559.0,1189.4,1962.8,3473.4,1818.7,1604.9,3471.0,3467.4,1533.8,2068.5,2610.2,3439.5,1842.0,3495.3,3472.2,3481.9,788.6,1002.2,1974.6,1281.9,1231.0,1050.4,-16.0,-41.0,-16.0,8084.0,-9236.0,8000.0,-7333.0,-69.0,135.0,311.0,-4.0,17.0,10.0,8554.0,-12214.0,-5654.0,3757.0,-77.0,-53.0,52.0,1.0
2022-05-23 14:51:16.751230-07:00,1263.1,1053.0,1186.7,1071.2,1015.1,1188.5,2049.4,1573.9,3472.2,3469.8,1555.3,1172.6,1962.8,3473.4,1818.7,1603.0,3472.2,3467.4,1533.8,2068.5,2616.7,3444.3,1829.4,3495.3,3475.9,3481.9,788.6,1002.2,1964.7,1260.4,1214.2,1050.4,-13.0,24.0,-3.0,8127.0,-9156.0,8090.0,-7288.0,73.0,45.0,267.0,-29.0,5.0,4.0,8529.0,-12232.0,-5638.0,3778.0,-30.0,-8.0,72.0,1.0
2022-05-23 14:51:16.811261-07:00,1265.8,1053.0,1186.7,1071.2,1009.0,1183.2,2024.4,1573.9,3460.1,3469.8,1555.3,1172.6,1958.8,3464.9,1862.5,1603.0,3472.2,3475.9,1539.4,2066.5,2616.7,3444.3,1829.4,3488.0,3475.9,3477.1,781.9,986.7,1964.7,1260.4,1214.2,1151.5,-55.0,-28.0,-15.0,8122.0,-9089.0,8160.0,-7298.0,-55.0,286.0,105.0,-28.0,-1.0,-5.0,8516.0,-12245.0,-5627.0,3783.0,-13.0,-2.0,36.0,1.0
2022-05-23 14:51:16.841187-07:00,1265.8,1053.0,1182.3,1066.9,1009.0,1183.2,2024.4,1549.7,3460.1,3478.3,1554.3,1159.4,1958.8,3464.9,1862.5,1558.1,3466.1,3475.9,1539.4,2066.5,2597.2,3438.2,1836.2,3488.0,3483.2,3477.1,781.9,986.7,1940.0,1255.1,1212.4,1151.5,26.0,25.0,-14.0,8113.0,-9010.0,8221.0,-7337.0,98.0,131.0,102.0,3.0,16.0,-13.0,8520.0,-12251.0,-5603.0,3791.0,-4.0,22.0,38.0,1.0
2022-05-23 14:51:16.901222-07:00,1264.9,1053.0,1182.3,1066.9,1003.0,1166.5,1986.6,1549.7,3463.7,3478.3,1554.3,1159.4,1947.9,3460.1,1909.5,1558.1,3466.1,3473.4,1530.1,2066.5,2597.2,3438.2,1836.2,3475.9,3483.2,3456.4,762.9,996.2,1940.0,1255.1,1212.4,1141.0,42.0,58.0,-6.0,8045.0,-8958.0,8299.0,-7388.0,-171.0,456.0,-31.0,16.0,24.0,-13.0,8493.0,-12270.0,-5614.0,3773.0,-145.0,-12.0,-47.0,1.0
2022-05-23 14:51:16.961963-07:00,1264.9,1014.2,1177.0,1066.0,1003.0,1166.5,1971.7,1543.1,3463.7,3471.0,1551.5,1149.8,1947.9,3460.1,1877.2,1532.0,3466.1,3478.3,1530.1,2066.5,2589.6,3439.5,1835.2,3475.9,3477.1,3469.8,762.9,996.2,1953.9,1239.9,1200.9,1141.0,8.0,4.0,-44.0,7911.0,-8923.0,8397.0,-7464.0,-27.0,210.0,-13.0,24.0,-2.0,15.0,8475.0,-12286.0,-5624.0,3746.0,-28.0,45.0,-11.0,1.0
2022-05-23 14:51:16.991197-07:00,1250.6,1006.5,1177.0,1066.0,1003.9,1163.0,1971.7,1543.1,3457.6,3467.4,1551.5,1149.8,1958.8,3466.1,1877.2,1532.0,3466.1,3478.3,1531.0,2065.5,2589.6,3439.5,1842.0,3484.4,3477.1,3469.8,757.1,966.2,1953.9,1239.9,1187.6,1132.2,3.0,-14.0,-24.0,7863.0,-8913.0,8439.0,-7479.0,-100.0,178.0,-23.0,5.0,0.0,-9.0,8461.0,-12299.0,-5632.0,3724.0,-43.0,9.0,-25.0,1.0
2022-05-23 14:51:17.051146-07:00,1250.6,1006.5,1172.6,1055.6,1003.9,1163.0,1969.7,1512.5,3457.6,3467.4,1554.3,1158.6,1958.8,3466.1,1880.1,1523.6,3469.8,3474.6,1531.0,2065.5,2606.9,3458.9,1842.0,3484.4,3472.2,3471.0,757.1,966.2,1935.1,1239.1,1187.6,1132.2,-60.0,0.0,-39.0,7810.0,-8884.0,8487.0,-7516.0,-6.0,151.0,12.0,-30.0,-12.0,31.0,8455.0,-12302.0,-5637.0,3719.0,-47.0,4.0,11.0,1.0
2022-05-23 14:51:17.141622-07:00,1253.3,994.5,1172.6,1055.6,1001.3,1159.4,1969.7,1512.5,3468.6,3469.8,1554.3,1158.6,1953.9,3478.3,1880.1,1523.6,3469.8,3474.6,1532.0,2060.5,2606.9,3458.9,1834.3,3484.4,3472.2,3471.0,755.4,951.7,1935.1,1239.1,1186.7,1122.6,-23.0,9.0,-34.0,7788.0,-8898.0,8503.0,-7504.0,-98.0,-13.0,-41.0,-29.0,1.0,-16.0,8423.0,-12327.0,-5638.0,3709.0,-122.0,5.0,9.0,1.0
2022-05-23 14:51:17.142786-07:00,1253.3,994.5,1171.8,1056.5,1001.3,1159.4,1968.7,1519.0,3468.6,3469.8,1549.7,1147.1,1953.9,3478.3,1879.1,1523.6,3467.4,3477.1,1532.0,2060.5,2587.4,3445.5,1834.3,3484.4,3468.6,3478.3,755.4,951.7,1929.2,1235.5,1186.7,1122.6,-9.0,-17.0,-6.0,7733.0,-8921.0,8534.0,-7498.0,-105.0,151.0,-25.0,-3.0,-8.0,6.0,8385.0,-12351.0,-5650.0,3697.0,-54.0,-14.0,5.0,1.0
2022-05-23 14:51:17.201139-07:00,1255.1,989.3,1171.8,1056.5,1002.2,1155.9,1968.7,1519.0,3464.9,3477.1,1549.7,1147.1,1948.9,3468.6,1879.1,1523.6,3467.4,3477.1,1520.8,2062.5,2587.4,3445.5,1846.9,3488.0,3468.6,3478.3,751.3,944.9,1929.2,1235.5,1180.6,1105.1,5.0,11.0,-31.0,7709.0,-8891.0,8577.0,-7510.0,24.0,51.0,72.0,18.0,-4.0,14.0,8384.0,-12355.0,-5640.0,3699.0,5.0,31.0,42.0,1.0
2022-05-23 14:51:17.261222-07:00,1255.1,989.3,1162.1,1047.8,1002.2,1142.7,1959.8,1515.3,3464.9,3477.1,1545.0,1144.5,1948.9,3472.2,1861.5,1525.5,3475.9,3467.4,1524.5,2062.5,2596.1,3458.9,1846.9,3488.0,3473.4,3474.6,748.8,944.9,1919.3,1231.0,1180.6,1105.1,17.0,6.0,-28.0,7707.0,-8879.0,8590.0,-7511.0,-9.0,64.0,-7.0,14.0,5.0,-3.0,8380.0,-12365.0,-5630.0,3692.0,-3.0,14.0,-15.0,1.0
2022-05-23 14:51:17.291563-07:00,1238.2,978.2,1170.0,1047.8,1000.5,1142.7,1959.8,1515.3,3467.4,3473.4,1552.5,1144.5,1963.7,3472.2,1861.5,1525.5,3475.9,3467.4,1524.5,2061.5,2596.1,3443.1,1837.2,3488.0,3473.4,3474.6,748.8,943.2,1919.3,1225.7,1179.7,1105.1,9.0,0.0,-22.0,7688.0,-8873.0,8592.0,-7535.0,38.0,35.0,-44.0,1.0,-2.0,10.0,8388.0,-12358.0,-5638.0,3685.0,12.0,-2.0,-38.0,1.0
2022-05-23 14:51:17.351784-07:00,1238.2,978.2,1170.0,1050.4,1000.5,1144.5,1962.8,1511.5,3467.4,3473.4,1552.5,1142.7,1963.7,3462.5,1853.7,1532.0,3479.5,3472.2,1526.4,2061.5,2598.3,3443.1,1837.2,3488.0,3483.2,3471.0,742.2,943.2,1919.3,1225.7,1179.7,1105.1,-22.0,-22.0,-22.0,7675.0,-8882.0,8586.0,-7545.0,6.0,7.0,-45.0,-10.0,-18.0,15.0,8392.0,-12352.0,-5649.0,3678.0,11.0,-5.0,-21.0,1.0
2022-05-23 14:51:17.411507-07:00,1231.9,970.5,1170.0,1050.4,999.6,1144.5,1962.8,1511.5,3478.3,3462.5,1541.3,1142.7,1937.1,3462.5,1853.7,1532.0,3479.5,3472.2,1526.4,2049.4,2598.3,3454.0,1840.1,3494.1,3483.2,3471.0,742.2,932.2,1919.3,1223.0,1175.3,1096.4,-24.0,-15.0,-17.0,7675.0,-8881.0,8584.0,-7548.0,7.0,24.0,8.0,-28.0,2.0,-1.0,8395.0,-12349.0,-5648.0,3682.0,2.0,-11.0,9.0,1.0
2022-05-23 14:51:17.441159-07:00,1231.9,970.5,1170.0,1041.8,999.6,1136.6,1935.1,1497.7,3478.3,3462.5,1541.3,1136.6,1937.1,3463.7,1853.7,1528.3,3488.0,3469.8,1519.0,2049.4,2592.9,3454.0,1840.1,3494.1,3483.2,3468.6,743.0,932.2,1912.4,1223.0,1175.3,1096.4,-18.0,0.0,-23.0,7682.0,-8864.0,8613.0,-7527.0,-6.0,-18.0,48.0,-16.0,0.0,2.0,8389.0,-12354.0,-5639.0,3694.0,-22.0,7.0,35.0,1.0
2022-05-23 14:51:17.501149-07:00,1239.1,954.3,1166.5,1045.2,1004.8,1136.6,1935.1,1497.7,3466.1,3463.7,1536.6,1140.1,1931.1,3463.7,1853.7,1528.3,3488.0,3469.8,1519.0,2055.4,2593.9,3450.4,1840.1,3483.2,3483.2,3468.6,743.0,929.6,1914.4,1209.7,1156.8,1095.6,-7.0,-16.0,-29.0,7692.0,-8859.0,8621.0,-7514.0,18.0,7.0,24.0,2.0,-2.0,5.0,8383.0,-12360.0,-5629.0,3701.0,6.0,-12.0,19.0,1.0
2022-05-23 14:51:17.561180-07:00,1239.1,954.3,1166.5,1045.2,1003.0,1140.1,1935.1,1503.2,3466.1,3463.7,1536.6,1140.1,1927.2,3468.6,1845.9,1519.9,3484.4,3467.4,1517.1,2045.4,2593.9,3450.4,1840.1,3483.2,3477.1,3472.2,743.9,922.0,1914.4,1209.7,1156.8,1095.6,9.0,14.0,-28.0,7709.0,-8859.0,8618.0,-7501.0,7.0,-68.0,9.0,11.0,3.0,4.0,8385.0,-12358.0,-5626.0,3710.0,-21.0,-16.0,1.0,1.0
2022-05-23 14:51:17.591239-07:00,1243.5,960.2,1156.8,1058.2,1003.0,1140.1,1935.1,1503.2,3475.9,3467.4,1537.6,1136.6,1927.2,3468.6,1845.9,1519.9,3484.4,3467.4,1517.1,2045.4,2587.4,3443.1,1847.9,3486.8,3477.1,3472.2,743.9,922.0,1907.5,1216.0,1166.5,1088.6,8.0,-9.0,0.0,7713.0,-8876.0,8604.0,-7492.0,26.0,-3.0,-17.0,14.0,-15.0,18.0,8382.0,-12354.0,-5638.0,3710.0,13.0,-27.0,-32.0,1.0
2022-05-23 14:51:17.651118-07:00,1243.5,960.2,1156.8,1058.2,1002.2,1140.1,1929.2,1499.5,3475.9,3467.4,1537.6,1136.6,1930.2,3468.6,1845.0,1533.8,3488.0,3475.9,1517.1,2054.4,2587.4,3443.1,1847.9,3486.8,3466.1,3471.0,731.5,918.6,1907.5,1216.0,1166.5,1088.6,3.0,6.0,-11.0,7731.0,-8875.0,8578.0,-7504.0,47.0,-42.0,-41.0,6.0,-1.0,14.0,8401.0,-12338.0,-5644.0,3712.0,25.0,-3.0,-22.0,1.0
2022-05-23 14:51:17.711186-07:00,1229.3,945.8,1165.6,1039.2,1002.2,1140.1,1929.2,1499.5,3471.0,3466.1,1536.6,1130.5,1930.2,3468.6,1845.0,1533.8,3488.0,3475.9,1517.1,2054.4,2589.6,3441.9,1840.1,3483.2,3466.1,3471.0,731.5,918.6,1903.6,1211.5,1156.8,1090.3,-11.0,-21.0,-6.0,7724.0,-8890.0,8566.0,-7508.0,-10.0,16.0,-22.0,-13.0,-8.0,8.0,8395.0,-12341.0,-5649.0,3707.0,-26.0,0.0,2.0,1.0
2022-05-23 14:51:17.771198-07:00,1229.3,945.8,1165.6,1039.2,986.7,1120.9,1943.0,1506.0,3471.0,3466.1,1536.6,1130.5,1925.2,3473.4,1842.0,1533.8,3480.7,3478.3,1512.5,2050.4,2589.6,3441.9,1840.1,3483.2,3475.9,3480.7,729.0,920.3,1903.6,1211.5,1156.8,1090.3,-23.0,-3.0,-27.0,7718.0,-8882.0,8575.0,-7514.0,19.0,35.0,-12.0,-22.0,-4.0,7.0,8387.0,-12349.0,-5642.0,3712.0,-18.0,1.0,29.0,1.0
2022-05-23 14:51:17.801777-07:00,1241.7,947.5,1158.6,1050.4,986.7,1120.9,1943.0,1500.4,3471.0,3473.4,1527.3,1135.7,1925.2,3473.4,1842.0,1531.0,3467.4,3478.3,1512.5,2050.4,2586.4,3441.9,1842.0,3483.2,3463.7,3480.7,729.0,920.3,1891.8,1211.5,1154.2,1079.9,-7.0,11.0,-31.0,7725.0,-8868.0,8586.0,-7509.0,45.0,15.0,42.0,-6.0,9.0,-3.0,8383.0,-12354.0,-5628.0,3724.0,22.0,2.0,31.0,1.0
2022-05-23 14:51:17.861536-07:00,1237.3,947.5,1158.6,1050.4,1007.3,1118.2,1945.0,1500.4,3457.6,3473.4,1527.3,1135.7,1923.3,3480.7,1831.3,1531.0,3467.4,3466.1,1521.8,2051.4,2586.4,3441.9,1842.0,3492.9,3463.7,3474.6,728.2,921.1,1891.8,1211.5,1154.2,1086.8,3.0,-6.0,-15.0,7721.0,-8869.0,8600.0,-7497.0,-53.0,0.0,17.0,9.0,-8.0,8.0,8371.0,-12364.0,-5625.0,3723.0,-49.0,-7.0,15.0,1.0
2022-05-23 14:51:17.891196-07:00,1237.3,945.8,1151.5,1051.3,1007.3,1118.2,1945.0,1482.9,3457.6,3461.3,1529.2,1132.2,1923.3,3480.7,1831.3,1541.3,3469.8,3466.1,1521.8,2051.4,2581.0,3441.9,1833.3,3492.9,3467.4,3474.6,728.2,921.1,1901.6,1211.5,1158.6,1086.8,5.0,4.0,-12.0,7716.0,-8868.0,8603.0,-7500.0,9.0,22.0,-21.0,8.0,-2.0,13.0,8369.0,-12365.0,-5626.0,3724.0,-5.0,-8.0,-8.0,1.0
2022-05-23 14:51:17.981278-07:00,1237.3,945.8,1151.5,1051.3,1001.3,1109.5,1929.2,1482.9,3468.6,3461.3,1529.2,1132.2,1921.3,3467.4,1824.6,1541.3,3469.8,3469.8,1514.3,2055.4,2581.0,3441.9,1833.3,3483.2,3467.4,3478.3,723.3,920.3,1901.6,1211.5,1158.6,1072.1,6.0,-2.0,-10.0,7705.0,-8875.0,8598.0,-7509.0,-7.0,26.0,-27.0,8.0,-4.0,7.0,8367.0,-12364.0,-5633.0,3717.0,-15.0,5.0,-19.0,1.0
2022-05-23 14:51:18.011156-07:00,1237.3,934.7,1163.0,1047.0,1001.3,1109.5,1929.2,1497.7,3468.6,3467.4,1528.3,1138.4,1921.3,3467.4,1824.6,1556.2,3475.9,3469.8,1514.3,2055.4,2586.4,3447.9,1829.4,3483.2,3475.9,3478.3,723.3,920.3,1891.8,1208.0,1160.3,1072.1,84.0,-23.0,40.0,7665.0,-8868.0,8615.0,-7539.0,-46.0,255.0,-57.0,3.0,3.0,-27.0,8362.0,-12368.0,-5640.0,3707.0,-28.0,13.0,-13.0,1.0
2022-05-23 14:51:18.041880-07:00,1239.1,945.8,1163.0,1047.0,989.3,1107.8,1937.1,1497.7,3467.4,3468.6,1528.3,1138.4,1923.3,3474.6,1832.3,1556.2,3475.9,3468.6,1514.3,2040.4,2586.4,3447.9,1964.7,3486.8,3475.9,3477.1,728.2,933.0,1891.8,1208.0,1164.7,1087.7,-141.0,40.0,-30.0,7467.0,-8677.0,8780.0,-7765.0,101.0,968.0,42.0,-8.0,2.0,100.0,8389.0,-12357.0,-5630.0,3697.0,33.0,110.0,7.0,1.0
2022-05-23 14:51:18.101141-07:00,1239.1,945.8,1190.3,1050.4,989.3,1107.8,1951.9,1550.6,3467.4,3468.6,1618.1,1146.3,1923.3,3474.6,2009.4,1705.3,3472.2,3466.1,1514.3,2040.4,2583.1,3451.6,1964.7,3486.8,3467.4,3467.4,728.2,933.0,1885.0,1217.7,1164.7,1087.7,-52.0,53.0,-176.0,7260.0,-8751.0,8977.0,-7654.0,-1344.0,-159.0,99.0,-66.0,15.0,-44.0,8240.0,-12500.0,-5621.0,3562.0,-855.0,189.0,63.0,1.0
2022-05-23 14:51:18.161159-07:00,1256.9,950.0,1190.3,1050.4,995.3,1112.1,1951.9,1550.6,3466.1,3466.1,1618.1,1146.3,1935.1,3471.0,2009.4,1705.3,3472.2,3466.1,1514.3,2052.4,2583.1,3451.6,2130.1,3485.6,3467.4,3467.4,734.0,1016.8,1885.0,1217.7,1152.4,1239.1,-37.0,64.0,-36.0,7190.0,-8672.0,9089.0,-7676.0,810.0,984.0,244.0,-5.0,-49.0,9.0,8108.0,-12602.0,-5639.0,3478.0,310.0,4.0,7.0,1.0
2022-05-23 14:51:18.192055-07:00,1256.9,950.0,1183.2,1066.0,995.3,1112.1,1957.8,1572.1,3466.1,3466.1,1589.9,1113.0,1935.1,3471.0,1682.4,1540.3,3463.7,3473.4,1514.3,2052.4,2581.0,3418.9,2130.1,3485.6,3466.1,3472.2,734.0,1016.8,1898.7,1209.7,1152.4,1239.1,29.0,-55.0,-31.0,7162.0,-8432.0,9293.0,-7726.0,-442.0,261.0,709.0,-1.0,0.0,-20.0,8065.0,-12638.0,-5634.0,3453.0,-449.0,49.0,73.0,1.0
2022-05-23 14:51:18.251175-07:00,1309.7,948.3,1183.2,1066.0,990.2,1095.6,1957.8,1572.1,3458.9,3471.0,1589.9,1113.0,1983.6,3472.2,1682.4,1540.3,3463.7,3473.4,1513.4,2044.4,2581.0,3418.9,2186.0,3481.9,3466.1,3472.2,743.9,1015.9,1898.7,1209.7,1151.5,1200.0,20.0,58.0,-15.0,7115.0,-8196.0,9600.0,-7647.0,21.0,637.0,532.0,38.0,-34.0,50.0,7961.0,-12722.0,-5623.0,3406.0,-82.0,70.0,80.0,1.0
2022-05-23 14:51:18.341105-07:00,1309.7,948.3,1177.9,1058.2,990.2,1095.6,1970.7,1568.3,3458.9,3471.0,1407.6,1051.3,1983.6,3472.2,1557.1,1479.2,3464.9,3478.3,1513.4,2044.4,2579.9,3449.1,2186.0,3481.9,3472.2,3471.0,743.9,1015.9,1884.0,1206.2,1151.5,1200.0,-21.0,63.0,-74.0,7081.0,-8115.0,9726.0,-7606.0,-533.0,18.0,149.0,-24.0,21.0,-32.0,7881.0,-12793.0,-5611.0,3342.0,-539.0,100.0,10.0,1.0
2022-05-23 14:51:18.342283-07:00,1317.8,965.4,1170.0,1058.2,994.5,1055.6,1970.7,1568.3,3468.6,3469.8,1338.6,1051.3,1937.1,3463.7,1557.1,1479.2,3464.9,3478.3,1519.0,2054.4,2579.9,3454.0,2153.4,3485.6,3472.2,3471.0,734.8,970.5,1884.0,1214.2,1147.1,1164.7,-27.0,0.0,-38.0,7000.0,-8137.0,9845.0,-7503.0,-132.0,123.0,129.0,-16.0,-16.0,7.0,7756.0,-12877.0,-5641.0,3261.0,-174.0,23.0,-27.0,1.0
2022-05-23 14:51:18.432127-07:00,1317.8,965.4,1170.0,1040.1,994.5,1036.6,2017.4,1521.8,3468.6,3469.8,1338.6,1032.3,1937.1,3471.0,1519.0,1452.5,3478.3,3473.4,1540.3,2054.4,2565.9,3454.0,2153.4,3485.6,3478.3,3468.6,738.1,970.5,1891.8,1214.2,1147.1,1164.7,1.0,-41.0,-24.0,6984.0,-8141.0,9906.0,-7433.0,-195.0,-55.0,109.0,-17.0,-7.0,-3.0,7705.0,-12907.0,-5658.0,3233.0,-165.0,-7.0,-11.0,1.0
2022-05-23 14:51:18.433148-07:00,1332.3,956.8,1149.8,1040.1,994.5,1036.6,2017.4,1521.8,3477.1,3466.1,1307.9,1032.3,1896.7,3471.0,1519.0,1452.5,3478.3,3473.4,1540.3,2045.4,2565.9,3458.9,2127.0,3486.8,3478.3,3468.6,738.1,943.2,1891.8,1207.1,1132.2,1155.9,-7.0,14.0,3.0,7015.0,-8090.0,9943.0,-7411.0,139.0,99.0,168.0,0.0,-25.0,20.0,7720.0,-12894.0,-5654.0,3256.0,164.0,-33.0,23.0,1.0
2022-05-23 14:51:18.491229-07:00,1332.3,956.8,1149.8,1049.6,994.5,1012.5,1977.6,1492.1,3477.1,3466.1,1307.9,1024.5,1896.7,3473.4,1510.6,1431.4,3467.4,3471.0,1519.9,2045.4,2561.6,3458.9,2127.0,3486.8,3472.2,3467.4,731.5,943.2,1880.1,1207.1,1132.2,1155.9,3.0,55.0,-42.0,7037.0,-8060.0,9916.0,-7458.0,36.0,-12.0,-110.0,0.0,23.0,6.0,7770.0,-12868.0,-5629.0,3285.0,48.0,15.0,17.0,1.0
2022-05-23 14:51:18.551683-07:00,1322.3,940.7,1156.8,1049.6,992.7,1012.5,1977.6,1492.1,3474.6,3447.9,1288.2,1024.5,1880.1,3473.4,1510.6,1431.4,3467.4,3471.0,1519.9,2058.4,2561.6,3439.5,2102.7,3477.1,3472.2,3467.4,731.5,926.2,1880.1,1192.0,1132.2,1134.0,12.0,-24.0,8.0,6981.0,-8122.0,9928.0,-7428.0,-129.0,-7.0,-92.0,8.0,-21.0,12.0,7731.0,-12893.0,-5641.0,3257.0,-105.0,19.0,-21.0,1.0
2022-05-23 14:51:18.581387-07:00,1322.3,940.7,1156.8,1036.6,997.9,991.9,1936.1,1492.1,3474.6,3447.9,1288.2,1010.8,1873.2,3475.9,1485.6,1425.0,3478.3,3467.4,1520.8,2049.4,2564.8,3439.5,2102.7,3477.1,3472.2,3478.3,733.2,916.0,1883.0,1192.0,1132.2,1134.0,-8.0,14.0,-45.0,6963.0,-8147.0,9899.0,-7456.0,53.0,11.0,-117.0,7.0,6.0,7.0,7735.0,-12888.0,-5653.0,3246.0,-27.0,3.0,-54.0,1.0
2022-05-23 14:51:18.671131-07:00,1323.2,936.4,1155.0,1038.3,997.9,991.9,1936.1,1492.1,3474.6,3474.6,1289.1,1007.3,1873.2,3475.9,1485.6,1425.0,3478.3,3467.4,1520.8,2049.4,2561.6,3429.8,2082.6,3488.0,3472.2,3478.3,733.2,916.0,1900.7,1197.4,1135.7,1136.6,11.0,-6.0,-20.0,6936.0,-8206.0,9878.0,-7444.0,-84.0,-87.0,-138.0,-8.0,-13.0,-6.0,7719.0,-12894.0,-5674.0,3226.0,-21.0,2.0,-55.0,1.0
2022-05-23 14:51:18.701826-07:00,1323.2,936.4,1155.0,1038.3,986.7,988.5,1962.8,1476.4,3474.6,3474.6,1289.1,1007.3,1869.3,3469.8,1481.9,1421.3,3469.8,3477.1,1519.9,2043.4,2561.6,3429.8,2082.6,3488.0,3474.6,3479.5,728.2,921.1,1900.7,1197.4,1135.7,1136.6,-23.0,-21.0,-6.0,6916.0,-8255.0,9824.0,-7480.0,72.0,10.0,-211.0,-15.0,-19.0,14.0,7729.0,-12880.0,-5698.0,3214.0,15.0,-3.0,-58.0,1.0
2022-05-23 14:51:18.761300-07:00,1314.2,934.7,1164.7,1038.3,986.7,988.5,1962.8,1476.4,3467.4,3480.7,1288.2,1004.8,1869.3,3469.8,1481.9,1421.3,3469.8,3477.1,1519.9,2043.4,2576.6,3441.9,2086.6,3488.0,3474.6,3479.5,728.2,921.1,1881.1,1195.6,1136.6,1126.1,-17.0,-15.0,-32.0,6907.0,-8278.0,9789.0,-7508.0,-44.0,-95.0,-16.0,-18.0,4.0,-1.0,7731.0,-12876.0,-5704.0,3216.0,-59.0,-14.0,-12.0,1.0
2022-05-23 14:51:18.791280-07:00,1314.2,934.7,1164.7,1038.3,991.0,963.7,1952.9,1456.2,3467.4,3480.7,1288.2,1004.8,1845.0,3464.9,1485.6,1408.5,3469.8,3468.6,1520.8,2035.4,2576.6,3441.9,2086.6,3488.0,3466.1,3472.2,731.5,918.6,1881.1,1195.6,1136.6,1126.1,3.0,11.0,-14.0,6913.0,-8294.0,9812.0,-7456.0,-35.0,-27.0,50.0,0.0,-7.0,6.0,7715.0,-12882.0,-5711.0,3217.0,5.0,-15.0,-8.0,1.0
2022-05-23 14:51:18.851223-07:00,1318.7,924.5,1145.4,1036.6,991.0,963.7,1952.9,1462.6,3469.8,3469.8,1276.5,1003.9,1845.0,3464.9,1485.6,1415.8,3472.2,3468.6,1520.8,2035.4,2561.6,3432.2,2075.5,3489.2,3477.1,3472.2,731.5,918.6,1880.1,1192.0,1134.9,1111.2,8.0,5.0,-18.0,6909.0,-8303.0,9813.0,-7448.0,-31.0,0.0,-16.0,14.0,-1.0,8.0,7710.0,-12883.0,-5716.0,3217.0,-39.0,-8.0,-12.0,1.0
2022-05-23 14:51:18.881418-07:00,1307.9,924.5,1145.4,1036.6,996.2,973.9,1926.2,1462.6,3468.6,3469.8,1276.5,1003.9,1846.9,3463.7,1462.6,1415.8,3472.2,3477.1,1516.2,2049.4,2561.6,3432.2,2075.5,3481.9,3477.1,3471.0,718.4,911.8,1880.1,1192.0,1134.9,1117.4,19.0,-1.0,-10.0,6895.0,-8316.0,9832.0,-7421.0,-84.0,-32.0,40.0,19.0,-3.0,3.0,7697.0,-12890.0,-5723.0,3205.0,-43.0,7.0,2.0,1.0
2022-05-23 14:51:18.941184-07:00,1307.9,926.2,1148.9,1026.3,996.2,973.9,1926.2,1450.6,3468.6,3473.4,1274.7,1000.5,1846.9,3463.7,1462.6,1406.7,3474.6,3477.1,1516.2,2049.4,2561.6,3447.9,2062.5,3481.9,3462.5,3471.0,718.4,911.8,1875.2,1194.7,1124.4,1117.4,5.0,0.0,-5.0,6887.0,-8325.0,9834.0,-7414.0,26.0,32.0,-45.0,6.0,-9.0,16.0,7694.0,-12892.0,-5728.0,3197.0,45.0,16.0,-26.0,1.0
2022-05-23 14:51:19.001132-07:00,1313.3,926.2,1148.9,1026.3,991.0,964.5,1913.4,1450.6,3468.6,3473.4,1274.7,1000.5,1832.3,3473.4,1458.9,1406.7,3474.6,3471.0,1525.5,2046.4,2561.6,3447.9,2062.5,3480.7,3462.5,3467.4,721.6,913.5,1875.2,1194.7,1124.4,1113.0,-20.0,-4.0,-34.0,6887.0,-8316.0,9816.0,-7450.0,77.0,30.0,-27.0,-13.0,-4.0,12.0,7729.0,-12872.0,-5727.0,3196.0,78.0,9.0,-32.0,1.0
2022-05-23 14:51:19.031774-07:00,1313.3,931.3,1146.3,1029.7,991.0,964.5,1913.4,1436.0,3468.6,3467.4,1273.9,997.9,1832.3,3473.4,1458.9,1414.9,3472.2,3471.0,1525.5,2046.4,2565.9,3438.2,2058.4,3480.7,3479.5,3467.4,721.6,913.5,1866.4,1190.3,1130.5,1113.0,-24.0,13.0,-31.0,6894.0,-8318.0,9827.0,-7426.0,-50.0,-48.0,19.0,-18.0,-5.0,6.0,7748.0,-12859.0,-5726.0,3203.0,-14.0,4.0,-8.0,1.0
2022-05-23 14:51:19.091434-07:00,1311.5,931.3,1146.3,1029.7,984.2,970.5,1891.8,1436.0,3467.4,3467.4,1273.9,997.9,1842.0,3468.6,1470.9,1414.9,3472.2,3469.8,1530.1,2035.4,2565.9,3438.2,2058.4,3480.7,3479.5,3467.4,721.6,958.5,1866.4,1190.3,1130.5,1107.8,0.0,32.0,-17.0,6888.0,-8364.0,9847.0,-7352.0,-155.0,-159.0,-33.0,-10.0,-1.0,1.0,7739.0,-12865.0,-5725.0,3204.0,-28.0,-13.0,9.0,1.0
2022-05-23 14:51:19.151553-07:00,1311.5,918.6,1146.3,1047.0,984.2,970.5,1907.5,1421.3,3467.4,3475.9,1270.3,1000.5,1842.0,3468.6,1448.8,1396.7,3467.4,3474.6,1530.1,2035.4,2549.7,3438.2,2058.4,3480.7,3467.4,3473.4,721.6,958.5,1865.4,1190.3,1126.1,1107.8,-14.0,-32.0,-16.0,6859.0,-8436.0,9842.0,-7304.0,-181.0,-45.0,-62.0,-1.0,-2.0,2.0,7717.0,-12875.0,-5734.0,3199.0,-79.0,-14.0,-16.0,1.0
2022-05-23 14:51:19.181396-07:00,1313.3,919.4,1146.3,1047.0,991.0,988.5,1907.5,1421.3,3472.2,3473.4,1270.3,1000.5,1829.4,3467.4,1448.8,1396.7,3467.4,3474.6,1530.1,2044.4,2549.7,3438.2,2039.4,3490.5,3467.4,3473.4,706.9,1040.1,1865.4,1190.3,1119.1,1095.6,27.0,-1.0,2.0,6852.0,-8456.0,9864.0,-7259.0,-18.0,-17.0,78.0,13.0,-1.0,0.0,7702.0,-12883.0,-5739.0,3196.0,18.0,-6.0,10.0,1.0
2022-05-23 14:51:19.241108-07:00,1313.3,919.4,1142.7,1033.2,991.0,988.5,1880.1,1403.0,3472.2,3473.4,1273.0,1011.6,1829.4,3467.4,1445.1,1404.9,3463.7,3488.0,1530.1,2044.4,2559.4,3432.2,2039.4,3490.5,3467.4,3478.3,706.9,1040.1,1871.3,1171.8,1119.1,1095.6,6.0,9.0,-13.0,6858.0,-8410.0,9888.0,-7273.0,72.0,94.0,74.0,16.0,-9.0,16.0,7726.0,-12868.0,-5735.0,3204.0,75.0,4.0,2.0,1.0
2022-05-23 14:51:19.301187-07:00,1295.4,922.0,1142.7,1033.2,982.5,973.9,1880.1,1403.0,3471.0,3466.1,1273.0,1011.6,1823.6,3467.4,1445.1,1404.9,3463.7,3488.0,1521.8,2042.4,2559.4,3432.2,2026.4,3474.6,3467.4,3478.3,720.8,1020.2,1871.3,1171.8,1123.5,1096.4,12.0,17.0,-17.0,6857.0,-8379.0,9890.0,-7307.0,99.0,65.0,-20.0,7.0,0.0,1.0,7753.0,-12855.0,-5727.0,3206.0,61.0,22.0,-11.0,1.0
2022-05-23 14:51:19.361145-07:00,1295.4,922.0,1155.0,1031.4,982.5,973.9,1875.2,1411.3,3471.0,3466.1,1277.4,1002.2,1823.6,3467.4,1447.9,1414.9,3467.4,3478.3,1521.8,2042.4,2563.7,3439.5,2026.4,3474.6,3474.6,3479.5,720.8,1020.2,1869.3,1185.9,1123.5,1096.4,-13.0,-19.0,-25.0,6853.0,-8368.0,9870.0,-7350.0,103.0,18.0,-54.0,-8.0,-15.0,6.0,7783.0,-12837.0,-5727.0,3206.0,79.0,11.0,-28.0,1.0
2022-05-23 14:51:19.391278-07:00,1303.4,915.2,1150.6,1031.4,985.0,964.5,1875.2,1411.3,3462.5,3468.6,1266.7,1002.2,1819.7,3468.6,1447.9,1414.9,3467.4,3478.3,1531.0,2044.4,2563.7,3438.2,2010.4,3480.7,3474.6,3479.5,718.4,997.0,1869.3,1192.0,1120.0,1085.1,-30.0,-3.0,-31.0,6887.0,-8340.0,9841.0,-7390.0,198.0,5.0,21.0,-21.0,-6.0,4.0,7831.0,-12806.0,-5717.0,3229.0,178.0,-14.0,-1.0,1.0
2022-05-23 14:51:19.451185-07:00,1303.4,915.2,1150.6,1035.7,985.0,952.6,1855.7,1408.5,3462.5,3468.6,1266.7,997.0,1819.7,3460.1,1448.8,1400.3,3472.2,3475.9,1521.8,2044.4,2566.9,3438.2,2010.4,3480.7,3474.6,3471.0,715.1,997.0,1888.9,1192.0,1120.0,1085.1,-8.0,11.0,-14.0,6923.0,-8321.0,9832.0,-7390.0,45.0,-44.0,9.0,-11.0,0.0,0.0,7867.0,-12781.0,-5704.0,3264.0,71.0,-27.0,16.0,1.0
2022-05-23 14:51:19.481425-07:00,1293.6,918.6,1145.4,1035.7,989.3,952.6,1855.7,1408.5,3478.3,3462.5,1265.8,997.0,1811.9,3460.1,1448.8,1400.3,3472.2,3475.9,1521.8,2038.4,2566.9,3443.1,2006.4,3495.3,3474.6,3471.0,715.1,989.3,1888.9,1194.7,1121.7,1093.8,-2.0,5.0,0.0,6935.0,-8336.0,9819.0,-7378.0,4.0,-94.0,-42.0,6.0,-11.0,13.0,7875.0,-12774.0,-5699.0,3279.0,23.0,-7.0,19.0,1.0
2022-05-23 14:51:19.541597-07:00,1293.6,918.6,1145.4,1036.6,989.3,974.8,1873.2,1404.0,3478.3,3462.5,1265.8,999.6,1811.9,3468.6,1442.4,1404.0,3474.6,3477.1,1530.1,2038.4,2558.3,3443.1,2006.4,3495.3,3479.5,3474.6,711.8,989.3,1867.4,1194.7,1121.7,1093.8,42.0,-7.0,-8.0,6930.0,-8404.0,9779.0,-7358.0,-124.0,-89.0,-168.0,12.0,4.0,-14.0,7866.0,-12780.0,-5704.0,3272.0,-86.0,3.0,-35.0,1.0
2022-05-23 14:51:19.601386-07:00,1295.4,918.6,1145.4,1036.6,992.7,974.8,1873.2,1404.0,3471.0,3469.8,1264.0,999.6,1811.0,3468.6,1442.4,1404.0,3474.6,3477.1,1530.1,2030.4,2558.3,3443.1,2005.5,3494.1,3479.5,3474.6,711.8,1023.7,1867.4,1184.1,1122.6,1090.3,-10.0,-18.0,-5.0,6911.0,-8423.0,9752.0,-7391.0,129.0,27.0,-60.0,9.0,-13.0,27.0,7878.0,-12764.0,-5724.0,3268.0,98.0,-14.0,-53.0,1.0
2022-05-23 14:51:19.631477-07:00,1295.4,918.6,1145.4,1038.3,992.7,983.3,1851.8,1400.3,3471.0,3469.8,1264.0,1001.3,1811.0,3468.6,1429.5,1397.6,3481.9,3467.4,1527.3,2030.4,2557.3,3443.1,2005.5,3494.1,3474.6,3467.4,710.1,1023.7,1869.3,1184.1,1122.6,1090.3,13.0,-2.0,-6.0,6933.0,-8406.0,9727.0,-7423.0,94.0,20.0,-3.0,10.0,-8.0,7.0,7917.0,-12738.0,-5726.0,3273.0,90.0,14.0,-19.0,1.0
2022-05-23 14:51:19.691204-07:00,1281.0,912.7,1149.8,1034.0,1001.3,983.3,1851.8,1400.3,3474.6,3463.7,1264.0,1006.5,1810.0,3468.6,1429.5,1397.6,3481.9,3467.4,1527.3,2042.4,2557.3,3441.9,2005.5,3486.8,3474.6,3467.4,710.1,1021.9,1875.2,1193.8,1127.0,1092.9,-5.0,-10.0,-26.0,6933.0,-8394.0,9727.0,-7437.0,-8.0,26.0,18.0,-10.0,-6.0,-5.0,7935.0,-12732.0,-5716.0,3272.0,12.0,27.0,23.0,1.0
2022-05-23 14:51:19.781373-07:00,1281.0,912.7,1149.8,1034.0,987.6,973.1,1852.8,1392.1,3474.6,3463.7,1264.0,1006.5,1803.2,3469.8,1436.9,1391.2,3478.3,3481.9,1535.7,2007.4,2557.3,3441.9,2005.5,3486.8,3473.4,3483.2,711.8,1015.1,1875.2,1193.8,1127.0,1092.9,-40.0,4.0,-23.0,6927.0,-8362.0,9754.0,-7442.0,39.0,89.0,78.0,-31.0,-13.0,10.0,7935.0,-12737.0,-5695.0,3286.0,30.0,3.0,56.0,1.0
2022-05-23 14:51:19.782987-07:00,1273.9,909.3,1149.8,1033.2,987.6,973.1,1852.8,1392.1,3472.2,3471.0,1264.9,1003.0,1803.2,3469.8,1436.9,1391.2,3478.3,3481.9,1535.7,2007.4,2554.0,3431.0,1993.5,3491.7,3473.4,3483.2,711.8,1015.1,1864.5,1186.7,1118.2,1084.2,-11.0,13.0,-32.0,6926.0,-8334.0,9786.0,-7433.0,-36.0,30.0,51.0,-9.0,1.0,-1.0,7930.0,-12746.0,-5673.0,3304.0,-24.0,7.0,40.0,1.0
2022-05-23 14:51:19.871131-07:00,1273.9,909.3,1149.8,1033.2,988.5,964.5,1849.8,1385.7,3472.2,3471.0,1264.9,1003.0,1809.0,3473.4,1436.0,1393.0,3477.1,3475.9,1523.6,2029.4,2554.0,3431.0,1993.5,3491.7,3468.6,3475.9,708.5,1009.0,1864.5,1186.7,1118.2,1084.2,6.0,-3.0,-23.0,6921.0,-8334.0,9794.0,-7427.0,39.0,-1.0,-14.0,7.0,-1.0,1.0,7928.0,-12748.0,-5667.0,3308.0,31.0,-8.0,6.0,1.0
2022-05-23 14:51:19.931296-07:00,1275.6,903.4,1156.8,1042.6,988.5,964.5,1849.8,1385.7,3472.2,3471.0,1271.2,1004.8,1809.0,3473.4,1436.0,1393.0,3477.1,3475.9,1523.6,2029.4,2556.2,3414.1,1989.5,3492.9,3468.6,3475.9,708.5,1009.0,1859.6,1202.7,1126.1,1092.9,23.0,1.0,-13.0,6935.0,-8336.0,9778.0,-7433.0,68.0,-47.0,3.0,12.0,0.0,0.0,7946.0,-12733.0,-5669.0,3320.0,68.0,-29.0,-15.0,1.0
2022-05-23 14:51:19.932940-07:00,1281.9,903.4,1156.8,1042.6,999.6,973.1,1843.0,1414.0,3469.8,3471.0,1271.2,1004.8,1798.4,3468.6,1433.2,1387.5,3473.4,3483.2,1519.9,2024.4,2556.2,3414.1,1989.5,3497.8,3473.4,3484.4,715.9,996.2,1859.6,1202.7,1126.1,1084.2,12.0,-1.0,7.0,6952.0,-8330.0,9756.0,-7452.0,107.0,-11.0,-19.0,19.0,-7.0,12.0,7976.0,-12709.0,-5675.0,3329.0,94.0,-7.0,-27.0,1.0
2022-05-23 14:51:20.021178-07:00,1281.9,900.8,1148.9,1030.6,999.6,973.1,1843.0,1396.7,3469.8,3472.2,1265.8,1002.2,1798.4,3468.6,1433.2,1388.5,3468.6,3483.2,1519.9,2024.4,2560.5,3435.8,1986.6,3497.8,3472.2,3484.4,715.9,996.2,1850.8,1187.6,1118.2,1084.2,-15.0,-1.0,-2.0,6962.0,-8316.0,9739.0,-7481.0,49.0,43.0,-12.0,-2.0,-8.0,15.0,8002.0,-12691.0,-5679.0,3331.0,32.0,12.0,-24.0,1.0
2022-05-23 14:51:20.051167-07:00,1265.8,900.8,1148.9,1030.6,979.0,971.3,1838.2,1396.7,3468.6,3472.2,1265.8,1002.2,1803.2,3469.8,1429.5,1388.5,3468.6,3477.1,1524.5,2030.4,2560.5,3435.8,1986.6,3490.5,3472.2,3479.5,711.0,993.6,1850.8,1187.6,1118.2,1074.7,-19.0,-7.0,-21.0,6954.0,-8307.0,9744.0,-7492.0,-19.0,42.0,1.0,-21.0,-5.0,4.0,8005.0,-12691.0,-5676.0,3329.0,-30.0,9.0,2.0,1.0
2022-05-23 14:51:20.081470-07:00,1265.8,899.1,1164.7,1030.6,979.0,971.3,1838.2,1393.9,3468.6,3464.9,1270.3,999.6,1803.2,3469.8,1429.5,1398.5,3488.0,3477.1,1524.5,2030.4,2554.0,3439.5,1978.6,3490.5,3481.9,3479.5,711.0,993.6,1848.9,1192.0,1116.5,1074.7,-17.0,-10.0,-29.0,6942.0,-8288.0,9772.0,-7487.0,8.0,55.0,51.0,-15.0,-8.0,1.0,7997.0,-12698.0,-5668.0,3335.0,7.0,-9.0,29.0,1.0
2022-05-23 14:51:20.141172-07:00,1264.0,899.1,1164.7,1030.6,978.2,970.5,1816.8,1393.9,3473.4,3464.9,1270.3,999.6,1798.4,3469.8,1436.9,1398.5,3488.0,3478.3,1520.8,2027.4,2554.0,3439.5,1978.6,3488.0,3481.9,3467.4,714.2,1000.5,1848.9,1192.0,1116.5,1076.4,44.0,-34.0,14.0,6942.0,-8234.0,9805.0,-7503.0,76.0,229.0,166.0,-4.0,11.0,-35.0,8018.0,-12682.0,-5659.0,3362.0,166.0,-46.0,0.0,1.0
2022-05-23 14:51:20.201107-07:00,1264.0,889.8,1154.2,1031.4,978.2,970.5,1816.8,1383.9,3473.4,3474.6,1279.2,1001.3,1798.4,3469.8,1436.9,1397.6,3477.1,3478.3,1520.8,2027.4,2555.1,3435.8,1982.6,3488.0,3478.3,3467.4,714.2,1000.5,1860.6,1182.3,1108.6,1076.4,-47.0,-32.0,-13.0,6947.0,-8035.0,9939.0,-7538.0,117.0,284.0,487.0,20.0,-26.0,50.0,8092.0,-12632.0,-5630.0,3419.0,235.0,6.0,95.0,1.0
2022-05-23 14:51:20.261229-07:00,1274.7,890.7,1154.2,1031.4,991.9,976.5,1832.3,1383.9,3472.2,3474.6,1279.2,1001.3,1798.4,3478.3,1464.4,1397.6,3477.1,3467.4,1533.8,2037.4,2555.1,3435.8,1971.7,3486.8,3478.3,3488.0,706.0,1000.5,1860.6,1182.3,1109.5,1079.9,54.0,86.0,-16.0,7004.0,-7892.0,10016.0,-7535.0,54.0,164.0,199.0,25.0,26.0,-10.0,8136.0,-12618.0,-5576.0,3454.0,24.0,35.0,66.0,1.0
2022-05-23 14:51:20.291134-07:00,1274.7,890.7,1141.0,1028.0,991.9,976.5,1816.8,1393.0,3472.2,3474.6,1307.0,1028.0,1798.4,3478.3,1486.6,1398.5,3469.8,3477.1,1533.8,2037.4,2546.5,3439.5,1971.7,3486.8,3471.0,3485.6,706.0,1000.5,1865.4,1175.3,1109.5,1079.9,9.0,-9.0,-12.0,6960.0,-7895.0,10035.0,-7547.0,-81.0,35.0,-124.0,7.0,1.0,3.0,8113.0,-12641.0,-5575.0,3427.0,-103.0,40.0,-27.0,1.0
2022-05-23 14:51:20.351207-07:00,1261.3,891.5,1141.0,1028.0,985.0,974.8,1816.8,1393.0,3469.8,3466.1,1307.0,1028.0,1802.3,3467.4,1486.6,1398.5,3469.8,3477.1,1537.6,2037.4,2546.5,3439.5,1950.9,3481.9,3471.0,3485.6,711.8,986.7,1865.4,1175.3,1112.1,1071.2,-20.0,-15.0,-19.0,6941.0,-7898.0,10026.0,-7573.0,105.0,41.0,-18.0,-18.0,-13.0,7.0,8118.0,-12638.0,-5580.0,3416.0,63.0,5.0,-22.0,1.0
2022-05-23 14:51:20.411216-07:00,1261.3,891.5,1145.4,1039.2,985.0,974.8,1813.9,1384.8,3469.8,3466.1,1296.3,1015.9,1802.3,3467.4,1478.3,1391.2,3474.6,3471.0,1537.6,2037.4,2562.6,3420.1,1950.9,3481.9,3474.6,3480.7,711.8,986.7,1865.4,1170.9,1112.1,1071.2,-24.0,11.0,-35.0,6950.0,-7885.0,10016.0,-7592.0,32.0,3.0,-37.0,-20.0,0.0,0.0,8131.0,-12629.0,-5578.0,3425.0,-2.0,-11.0,-2.0,1.0
2022-05-23 14:51:20.441153-07:00,1252.4,900.8,1145.4,1039.2,985.9,970.5,1813.9,1384.8,3466.1,3468.6,1296.3,1015.9,1799.4,3478.3,1478.3,1391.2,3474.6,3471.0,1545.0,2033.4,2562.6,3420.1,1937.1,3485.6,3474.6,3480.7,720.8,985.9,1865.4,1170.9,1106.0,1085.1,-8.0,-5.0,-27.0,6943.0,-7898.0,10018.0,-7582.0,8.0,-31.0,-32.0,-10.0,-2.0,-2.0,8123.0,-12631.0,-5576.0,3436.0,5.0,-18.0,24.0,1.0
2022-05-23 14:51:20.530939-07:00,1252.4,900.8,1143.6,1034.9,985.9,960.2,1809.0,1365.7,3466.1,3468.6,1298.1,1016.8,1799.4,3466.1,1472.7,1392.1,3475.9,3468.6,1532.9,2033.4,2565.9,3434.6,1937.1,3485.6,3467.4,3480.7,705.2,985.9,1848.9,1175.3,1106.0,1085.1,19.0,-5.0,-2.0,6953.0,-7909.0,10009.0,-7574.0,16.0,-18.0,12.0,9.0,-5.0,1.0,8122.0,-12630.0,-5572.0,3451.0,56.0,-28.0,16.0,1.0
2022-05-23 14:51:20.532720-07:00,1253.3,898.3,1148.0,1034.9,985.0,960.2,1809.0,1365.7,3473.4,3456.4,1284.6,1016.8,1787.8,3466.1,1472.7,1392.1,3475.9,3468.6,1532.9,2024.4,2565.9,3439.5,1937.1,3488.0,3467.4,3480.7,705.2,985.9,1848.9,1175.3,1112.1,1079.0,7.0,14.0,-4.0,6970.0,-7900.0,9994.0,-7587.0,63.0,-41.0,-16.0,17.0,8.0,11.0,8144.0,-12614.0,-5566.0,3465.0,12.0,-4.0,-4.0,1.0
2022-05-23 14:51:20.591151-07:00,1253.3,898.3,1148.0,1032.3,985.0,975.6,1800.3,1393.0,3473.4,3456.4,1284.6,1010.8,1787.8,3464.9,1461.7,1402.1,3471.0,3472.2,1521.8,2024.4,2565.9,3439.5,1937.1,3488.0,3477.1,3467.4,695.4,985.9,1853.7,1175.3,1112.1,1079.0,30.0,-6.0,5.0,6964.0,-7925.0,9980.0,-7585.0,-34.0,-23.0,-49.0,20.0,-3.0,3.0,8140.0,-12616.0,-5575.0,3455.0,-18.0,9.0,-24.0,1.0
2022-05-23 14:51:20.651175-07:00,1256.9,899.1,1147.1,1032.3,987.6,975.6,1800.3,1393.0,3469.8,3462.5,1288.2,1010.8,1777.2,3464.9,1461.7,1402.1,3471.0,3472.2,1521.8,2024.4,2565.9,3428.6,1939.0,3486.8,3477.1,3467.4,695.4,979.9,1853.7,1175.3,1112.1,1079.0,13.0,4.0,-2.0,6952.0,-7927.0,9968.0,-7609.0,44.0,45.0,-41.0,8.0,-3.0,8.0,8147.0,-12612.0,-5582.0,3441.0,-1.0,30.0,-24.0,1.0
2022-05-23 14:51:20.741215-07:00,1256.9,899.1,1147.1,1041.8,987.6,963.7,1798.4,1376.6,3469.8,3462.5,1288.2,1010.8,1777.2,3462.5,1463.5,1401.2,3479.5,3468.6,1538.5,2024.4,2565.9,3428.6,1939.0,3486.8,3483.2,3480.7,701.9,979.9,1863.5,1175.3,1112.1,1079.0,-9.0,-10.0,-11.0,6932.0,-7925.0,9969.0,-7628.0,-10.0,54.0,-33.0,-12.0,-10.0,9.0,8147.0,-12617.0,-5581.0,3424.0,-22.0,33.0,2.0,1.0
2022-05-23 14:51:20.742398-07:00,1265.8,894.9,1157.7,1041.8,979.9,963.7,1798.4,1376.6,3452.8,3464.9,1282.8,1010.8,1779.1,3462.5,1463.5,1401.2,3479.5,3468.6,1538.5,2026.4,2565.9,3431.0,1923.3,3497.8,3483.2,3480.7,701.9,987.6,1863.5,1183.2,1098.2,1066.0,-23.0,-5.0,-30.0,6921.0,-7923.0,9971.0,-7637.0,27.0,26.0,-28.0,-23.0,-7.0,-1.0,8146.0,-12622.0,-5572.0,3422.0,11.0,-3.0,14.0,1.0
2022-05-23 14:51:20.801205-07:00,1265.8,894.9,1157.7,1034.9,985.9,971.3,1811.0,1363.9,3452.8,3464.9,1282.8,1007.3,1782.9,3457.6,1442.4,1391.2,3472.2,3472.2,1533.8,2022.4,2562.6,3431.0,1923.3,3497.8,3483.2,3466.1,702.8,1003.0,1858.6,1183.2,1098.2,1066.0,-42.0,-19.0,110.0,6939.0,-7889.0,9951.0,-7684.0,334.0,121.0,3.0,-18.0,-37.0,-6.0,8182.0,-12597.0,-5561.0,3447.0,403.0,-21.0,5.0,1.0
2022-05-23 14:51:20.831367-07:00,1261.3,888.2,1165.6,1052.2,985.9,971.3,1811.0,1363.9,3466.1,3469.8,1618.1,1100.8,1782.9,3457.6,1442.4,1391.2,3472.2,3472.2,1533.8,2022.4,2564.8,3435.8,1980.6,3491.7,3483.2,3466.1,702.8,1003.0,1853.7,1208.9,1124.4,1070.3,21.0,-4.0,-76.0,6848.0,-7859.0,9950.0,-7795.0,-122.0,318.0,-374.0,9.0,19.0,-20.0,8263.0,-12530.0,-5555.0,3508.0,127.0,-124.0,0.0,1.0
2022-05-23 14:51:20.892057-07:00,1261.3,888.2,1165.6,1052.2,974.8,1117.4,1901.6,1384.8,3466.1,3469.8,1618.1,1100.8,1803.2,3467.4,1932.1,1504.1,3478.3,3472.2,1547.8,2018.4,2564.8,3435.8,1980.6,3491.7,3478.3,3478.3,716.7,1023.7,1853.7,1208.9,1124.4,1070.3,33.0,-44.0,104.0,6746.0,-7965.0,9802.0,-7963.0,274.0,-130.0,-625.0,50.0,-39.0,45.0,8276.0,-12487.0,-5591.0,3572.0,82.0,-142.0,-37.0,1.0
2022-05-23 14:51:20.921746-07:00,1255.1,894.1,1145.4,1033.2,974.8,1117.4,1901.6,1384.8,3473.4,3467.4,1661.5,1082.5,1803.2,3467.4,1932.1,1504.1,3478.3,3472.2,1547.8,2018.4,2583.1,3422.5,2005.5,3490.5,3478.3,3478.3,716.7,1023.7,1856.7,1218.6,1137.5,1066.0,124.0,1.0,-58.0,6804.0,-8060.0,9550.0,-8122.0,375.0,-236.0,-364.0,1.0,42.0,-13.0,8294.0,-12444.0,-5624.0,3626.0,-26.0,-152.0,-48.0,1.0
2022-05-23 14:51:20.981943-07:00,1255.1,894.1,1145.4,1033.2,979.0,1190.3,1994.5,1524.5,3473.4,3467.4,1661.5,1082.5,1839.1,3466.1,1991.5,1572.1,3472.2,3474.6,1532.9,2048.4,2583.1,3422.5,2005.5,3490.5,3477.1,3473.4,744.7,1041.8,1856.7,1218.6,1137.5,1066.0,-9.0,-66.0,-87.0,6762.0,-8158.0,9577.0,-8027.0,-429.0,-190.0,93.0,6.0,-40.0,31.0,8236.0,-12452.0,-5682.0,3641.0,-64.0,-110.0,-22.0,1.0
2022-05-23 14:51:21.041847-07:00,1267.6,888.2,1135.7,1022.8,979.0,1190.3,1994.5,1550.6,3463.7,3457.6,1629.4,1099.0,1839.1,3466.1,1991.5,1626.5,3463.7,3474.6,1532.9,2048.4,2635.1,3449.1,1950.9,3490.5,3462.5,3473.4,744.7,1041.8,1848.9,1189.4,1126.1,1077.3,-23.0,92.0,-35.0,6784.0,-8258.0,9576.0,-7907.0,-385.0,-249.0,-93.0,-8.0,9.0,25.0,8182.0,-12474.0,-5712.0,3642.0,-358.0,-56.0,-19.0,1.0
2022-05-23 14:51:21.071518-07:00,1241.7,888.2,1135.7,1022.8,975.6,1185.0,1999.5,1550.6,3474.6,3457.6,1629.4,1099.0,1854.7,3473.4,1961.8,1626.5,3463.7,3477.1,1538.5,2036.4,2635.1,3449.1,1950.9,3484.4,3462.5,3475.9,738.9,1014.2,1848.9,1189.4,1126.1,1136.6,2.0,-74.0,-14.0,6800.0,-8423.0,9549.0,-7750.0,-106.0,-487.0,-10.0,-11.0,-18.0,-23.0,8058.0,-12553.0,-5744.0,3597.0,-176.0,-2.0,43.0,1.0
2022-05-23 14:51:21.131833-07:00,1241.7,898.3,1125.2,1013.3,975.6,1185.0,1999.5,1536.6,3474.6,3473.4,1623.7,1127.0,1854.7,3473.4,1961.8,1622.8,3467.4,3477.1,1538.5,2036.4,2642.8,3431.0,1925.2,3484.4,3477.1,3475.9,738.9,1014.2,1850.8,1179.7,1104.3,1136.6,-11.0,0.0,-1.0,6909.0,-8419.0,9510.0,-7705.0,215.0,-129.0,158.0,-8.0,2.0,18.0,8078.0,-12539.0,-5727.0,3626.0,171.0,-33.0,43.0,1.0
2022-05-23 14:51:21.251916-07:00,1241.7,898.3,1125.2,1013.3,973.9,1175.3,1978.6,1536.6,3472.2,3473.4,1623.7,1127.0,1845.0,3473.4,1974.6,1622.8,3467.4,3469.8,1523.6,2030.4,2642.8,3431.0,1925.2,3489.2,3477.1,3468.6,720.0,1000.5,1850.8,1179.7,1104.3,1134.9,13.0,24.0,6.0,6998.0,-8395.0,9466.0,-7706.0,189.0,-154.0,-5.0,9.0,2.0,-1.0,8121.0,-12513.0,-5705.0,3657.0,123.0,5.0,17.0,1.0
2022-05-23 14:51:21.253937-07:00,1241.7,898.3,1124.4,1028.8,973.9,1175.3,1978.6,1551.5,3472.2,3467.4,1608.7,1135.7,1845.0,3473.4,1974.6,1613.4,3467.4,3469.8,1523.6,2030.4,2634.1,3423.7,1890.9,3489.2,3478.3,3468.6,720.0,1000.5,1845.9,1166.5,1102.5,1134.9,19.0,5.0,-4.0,7039.0,-8378.0,9394.0,-7775.0,189.0,61.0,-91.0,13.0,4.0,4.0,8159.0,-12487.0,-5700.0,3669.0,82.0,1.0,-32.0,1.0
2022-05-23 14:51:21.282027-07:00,1236.4,898.3,1124.4,1028.8,978.2,1159.4,1968.7,1551.5,3469.8,3467.4,1608.7,1135.7,1837.2,3456.4,1952.9,1613.4,3467.4,3473.4,1519.0,2032.4,2634.1,3423.7,1890.9,3484.4,3478.3,3472.2,715.1,986.7,1845.9,1166.5,1102.5,1113.0,-3.0,-19.0,-3.0,7034.0,-8351.0,9385.0,-7820.0,87.0,40.0,-7.0,24.0,-22.0,26.0,8184.0,-12469.0,-5704.0,3666.0,39.0,24.0,-19.0,1.0
2022-05-23 14:51:21.341144-07:00,1236.4,889.0,1116.5,1025.4,978.2,1159.4,1959.8,1527.3,3469.8,3467.4,1590.8,1134.9,1837.2,3456.4,1911.5,1583.3,3471.0,3466.1,1519.0,2032.4,2617.8,3429.8,1866.4,3484.4,3468.6,3472.2,715.1,986.7,1844.0,1154.2,1091.2,1113.0,18.0,15.0,-26.0,7061.0,-8340.0,9337.0,-7865.0,132.0,-12.0,-76.0,6.0,2.0,0.0,8216.0,-12451.0,-5701.0,3660.0,35.0,20.0,-24.0,1.0
2022-05-23 14:51:21.371756-07:00,1241.7,876.4,1116.5,1025.4,981.6,1143.6,1959.8,1527.3,3457.6,3467.4,1590.8,1134.9,1834.3,3468.6,1911.5,1583.3,3471.0,3466.1,1521.8,2033.4,2617.8,3429.8,1863.5,3494.1,3468.6,3472.2,716.7,984.2,1844.0,1154.2,1088.6,1101.7,-39.0,-36.0,-30.0,7047.0,-8353.0,9323.0,-7880.0,-11.0,-14.0,-18.0,-20.0,-17.0,12.0,8219.0,-12448.0,-5706.0,3657.0,-2.0,-8.0,-8.0,1.0
2022-05-23 14:51:21.461191-07:00,1241.7,876.4,1120.0,1011.6,981.6,1143.6,1940.0,1506.0,3457.6,3467.4,1587.1,1136.6,1834.3,3468.6,1906.6,1568.3,3471.0,3469.8,1521.8,2033.4,2613.4,3434.6,1863.5,3494.1,3472.2,3471.0,716.7,984.2,1846.9,1146.3,1088.6,1101.7,-23.0,1.0,-15.0,7073.0,-8356.0,9315.0,-7863.0,32.0,-64.0,27.0,-22.0,-2.0,3.0,8222.0,-12444.0,-5700.0,3672.0,28.0,-16.0,13.0,1.0
2022-05-23 14:51:21.521219-07:00,1231.0,863.7,1120.0,1011.6,975.6,1143.6,1940.0,1506.0,3471.0,3473.4,1587.1,1136.6,1827.5,3472.2,1906.6,1568.3,3471.0,3469.8,1523.6,2028.4,2613.4,3434.6,1857.6,3488.0,3472.2,3471.0,701.9,968.8,1846.9,1146.3,1091.2,1122.6,-5.0,4.0,-21.0,7090.0,-8357.0,9301.0,-7862.0,50.0,-35.0,-22.0,-8.0,6.0,0.0,8230.0,-12436.0,-5698.0,3685.0,34.0,-13.0,-7.0,1.0
2022-05-23 14:51:21.523597-07:00,1231.0,863.7,1110.4,1009.0,975.6,1143.6,1935.1,1545.0,3471.0,3473.4,1577.7,1121.7,1827.5,3472.2,1890.9,1566.5,3467.4,3468.6,1523.6,2028.4,2610.2,3428.6,1857.6,3488.0,3467.4,3469.8,701.9,968.8,1838.2,1142.7,1091.2,1122.6,0.0,-3.0,-16.0,7112.0,-8354.0,9276.0,-7874.0,89.0,-46.0,-1.0,14.0,-4.0,9.0,8246.0,-12423.0,-5696.0,3697.0,66.0,-21.0,-9.0,1.0
2022-05-23 14:51:21.641636-07:00,1236.4,877.2,1106.0,1009.0,974.8,1135.7,1935.1,1545.0,3469.8,3463.7,1566.5,1121.7,1824.6,3467.4,1890.9,1566.5,3467.4,3468.6,1517.1,2025.4,2610.2,3424.9,1843.0,3492.9,3467.4,3469.8,708.5,959.4,1838.2,1147.1,1084.2,1095.6,14.0,11.0,-10.0,7151.0,-8351.0,9245.0,-7880.0,88.0,-84.0,3.0,22.0,0.0,8.0,8274.0,-12402.0,-5696.0,3707.0,72.0,-1.0,-15.0,1.0
2022-05-23 14:51:21.642643-07:00,1236.4,877.2,1106.0,1002.2,974.8,1140.1,1919.3,1507.8,3469.8,3463.7,1566.5,1120.0,1824.6,3457.6,1891.8,1559.0,3477.1,3471.0,1519.0,2025.4,2611.3,3424.9,1843.0,3492.9,3474.6,3478.3,697.9,959.4,1845.9,1147.1,1084.2,1095.6,21.0,-3.0,12.0,7159.0,-8375.0,9209.0,-7890.0,42.0,-16.0,-83.0,12.0,1.0,5.0,8283.0,-12393.0,-5709.0,3697.0,-3.0,3.0,-47.0,1.0
2022-05-23 14:51:21.701180-07:00,1233.7,878.9,1104.3,1002.2,997.0,1140.1,1919.3,1507.8,3462.5,3463.7,1564.6,1120.0,1825.5,3457.6,1891.8,1559.0,3477.1,3471.0,1519.0,2028.4,2611.3,3426.2,1836.2,3488.0,3474.6,3478.3,697.9,961.1,1845.9,1139.2,1075.6,1091.2,-21.0,-16.0,0.0,7158.0,-8371.0,9185.0,-7921.0,55.0,23.0,-35.0,-3.0,-10.0,18.0,8299.0,-12382.0,-5713.0,3689.0,16.0,27.0,-15.0,1.0
2022-05-23 14:51:21.732078-07:00,1233.7,878.9,1104.3,1000.5,997.0,1127.0,1927.2,1501.4,3462.5,3463.7,1564.6,1118.2,1825.5,3468.6,1886.9,1559.9,3478.3,3474.6,1507.8,2028.4,2606.9,3426.2,1836.2,3488.0,3461.3,3464.9,701.1,961.1,1849.8,1139.2,1075.6,1091.2,-22.0,10.0,-36.0,7124.0,-8400.0,9193.0,-7913.0,-174.0,-5.0,-94.0,-14.0,-3.0,6.0,8287.0,-12396.0,-5710.0,3675.0,-104.0,20.0,9.0,1.0
2022-05-23 14:51:21.791190-07:00,1235.5,878.9,1111.2,1000.5,975.6,1127.0,1927.2,1501.4,3460.1,3472.2,1566.5,1118.2,1815.8,3468.6,1886.9,1559.9,3478.3,3474.6,1507.8,2026.4,2606.9,3421.3,1837.2,3474.6,3461.3,3464.9,701.1,967.1,1849.8,1135.7,1069.5,1095.6,-17.0,-23.0,-30.0,7108.0,-8432.0,9187.0,-7900.0,14.0,-24.0,-3.0,-23.0,0.0,-11.0,8273.0,-12406.0,-5705.0,3678.0,31.0,-16.0,11.0,1.0
2022-05-23 14:51:21.851253-07:00,1235.5,878.9,1111.2,1006.5,975.6,1114.7,1930.2,1495.8,3460.1,3472.2,1566.5,1126.1,1815.8,3467.4,1875.2,1559.9,3481.9,3471.0,1516.2,2026.4,2599.3,3421.3,1837.2,3474.6,3479.5,3468.6,696.2,967.1,1847.9,1135.7,1069.5,1095.6,-16.0,9.0,-28.0,7133.0,-8436.0,9183.0,-7879.0,57.0,-100.0,-1.0,-1.0,0.0,6.0,8284.0,-12395.0,-5704.0,3693.0,39.0,-21.0,0.0,1.0
2022-05-23 14:51:21.971323-07:00,1239.1,872.1,1095.6,994.5,979.0,1114.7,1930.2,1495.8,3462.5,3461.3,1553.4,1122.6,1806.1,3467.4,1875.2,1559.9,3481.9,3471.0,1516.2,2018.4,2600.4,3418.9,1830.4,3496.6,3479.5,3468.6,696.2,958.5,1831.3,1111.2,1066.0,1079.9,3.0,-11.0,-10.0,7156.0,-8456.0,9154.0,-7869.0,33.0,-74.0,-23.0,10.0,-4.0,10.0,8287.0,-12386.0,-5713.0,3703.0,26.0,-33.0,-23.0,1.0
2022-05-23 14:51:21.973258-07:00,1239.1,872.1,1095.6,994.5,982.5,1100.8,1928.2,1501.4,3462.5,3461.3,1553.4,1122.6,1808.1,3467.4,1877.2,1559.9,3467.4,3478.3,1523.6,2025.4,2600.4,3418.9,1830.4,3496.6,3467.4,3479.5,689.7,949.2,1831.3,1111.2,1066.0,1079.9,17.0,0.0,2.0,7179.0,-8464.0,9131.0,-7866.0,56.0,-57.0,-19.0,23.0,0.0,9.0,8301.0,-12370.0,-5725.0,3708.0,42.0,-15.0,-31.0,1.0
2022-05-23 14:51:21.974056-07:00,1235.5,865.4,1095.6,1009.0,982.5,1100.8,1928.2,1501.4,3462.5,3462.5,1551.5,1133.1,1808.1,3467.4,1877.2,1559.9,3467.4,3478.3,1523.6,2025.4,2603.7,3416.5,1826.5,3483.2,3467.4,3479.5,689.7,949.2,1843.0,1125.2,1073.8,1084.2,33.0,-3.0,9.0,7184.0,-8475.0,9098.0,-7889.0,44.0,11.0,-62.0,23.0,4.0,3.0,8316.0,-12356.0,-5738.0,3699.0,15.0,7.0,-55.0,1.0
2022-05-23 14:51:22.031448-07:00,1235.5,865.4,1095.6,1009.0,987.6,1107.8,1914.4,1493.0,3462.5,3462.5,1551.5,1133.1,1807.1,3469.8,1863.5,1545.9,3462.5,3471.0,1510.6,2024.4,2603.7,3416.5,1826.5,3483.2,3472.2,3467.4,691.3,942.4,1843.0,1125.2,1073.8,1084.2,-14.0,-20.0,0.0,7170.0,-8470.0,9094.0,-7910.0,0.0,42.0,-8.0,-4.0,-13.0,18.0,8328.0,-12346.0,-5751.0,3686.0,-16.0,17.0,-8.0,1.0
2022-05-23 14:51:22.091675-07:00,1222.2,862.1,1099.0,993.6,987.6,1107.8,1914.4,1493.0,3468.6,3468.6,1551.5,1120.9,1807.1,3469.8,1863.5,1545.9,3462.5,3471.0,1510.6,2024.4,2604.8,3435.8,1834.3,3486.8,3472.2,3467.4,691.3,942.4,1846.9,1133.1,1069.5,1077.3,-40.0,-11.0,-24.0,7169.0,-8459.0,9110.0,-7905.0,-14.0,7.0,24.0,-30.0,-7.0,6.0,8324.0,-12353.0,-5744.0,3684.0,-29.0,14.0,43.0,1.0
2022-05-23 14:51:22.151319-07:00,1221.3,862.1,1099.0,993.6,981.6,1106.0,1920.3,1477.3,3471.0,3468.6,1551.5,1120.9,1807.1,3468.6,1873.2,1545.0,3475.9,3480.7,1515.3,2021.4,2604.8,3435.8,1834.3,3496.6,3475.9,3477.1,692.1,942.4,1846.9,1133.1,1069.5,1074.7,-28.0,0.0,-36.0,7178.0,-8438.0,9135.0,-7891.0,38.0,14.0,53.0,-17.0,1.0,0.0,8314.0,-12364.0,-5725.0,3698.0,16.0,-3.0,45.0,1.0
2022-05-23 14:51:22.181069-07:00,1221.3,874.7,1098.2,997.0,981.6,1106.0,1920.3,1482.9,3471.0,3457.6,1553.4,1125.2,1807.1,3468.6,1873.2,1549.7,3468.6,3480.7,1515.3,2021.4,2595.0,3418.9,1821.6,3496.6,3473.4,3477.1,692.1,942.4,1825.5,1133.1,1069.5,1074.7,1.0,8.0,-28.0,7190.0,-8440.0,9142.0,-7869.0,-7.0,-60.0,8.0,4.0,3.0,0.0,8312.0,-12367.0,-5712.0,3711.0,-6.0,-17.0,22.0,1.0
2022-05-23 14:51:22.241547-07:00,1226.6,874.7,1098.2,997.0,981.6,1102.5,1923.3,1482.9,3474.6,3457.6,1553.4,1125.2,1799.4,3473.4,1865.4,1549.7,3468.6,3477.1,1511.5,2015.4,2595.0,3418.9,1821.6,3486.8,3473.4,3474.6,693.8,935.6,1825.5,1133.1,1069.5,1085.1,13.0,4.0,0.0,7201.0,-8452.0,9129.0,-7862.0,13.0,-25.0,-14.0,12.0,5.0,4.0,8313.0,-12364.0,-5712.0,3718.0,19.0,-18.0,-12.0,1.0
2022-05-23 14:51:22.301182-07:00,1226.6,859.5,1094.7,1008.2,981.6,1102.5,1923.3,1484.7,3474.6,3467.4,1554.3,1118.2,1799.4,3473.4,1865.4,1559.9,3469.8,3477.1,1511.5,2015.4,2598.3,3418.9,1824.6,3486.8,3471.0,3474.6,693.8,935.6,1839.1,1134.0,1069.5,1085.1,13.0,4.0,4.0,7204.0,-8456.0,9125.0,-7859.0,-5.0,-18.0,5.0,25.0,-3.0,17.0,8319.0,-12357.0,-5720.0,3718.0,-7.0,7.0,-16.0,1.0
2022-05-23 14:51:22.362079-07:00,1221.3,859.5,1094.7,1008.2,975.6,1091.2,1907.5,1484.7,3473.4,3467.4,1554.3,1118.2,1808.1,3468.6,1865.4,1559.9,3469.8,3469.8,1510.6,2027.4,2598.3,3418.9,1824.6,3491.7,3471.0,3475.9,685.6,921.1,1839.1,1134.0,1069.5,1068.6,12.0,-7.0,11.0,7192.0,-8467.0,9117.0,-7868.0,-12.0,55.0,-48.0,13.0,-8.0,14.0,8322.0,-12355.0,-5731.0,3701.0,-26.0,20.0,-31.0,1.0
2022-05-23 14:51:22.391803-07:00,1221.3,852.8,1090.3,992.7,975.6,1091.2,1907.5,1463.5,3473.4,3471.0,1549.7,1122.6,1808.1,3468.6,1865.4,1549.7,3469.8,3469.8,1510.6,2027.4,2603.7,3426.2,1820.7,3491.7,3474.6,3475.9,685.6,921.1,1836.2,1127.0,1062.5,1068.6,-14.0,-6.0,-15.0,7178.0,-8470.0,9112.0,-7884.0,5.0,21.0,-26.0,-14.0,-5.0,7.0,8324.0,-12356.0,-5736.0,3686.0,-25.0,13.0,-10.0,1.0
2022-05-23 14:51:22.421511-07:00,1218.6,852.0,1090.3,992.7,980.7,1090.3,1916.4,1463.5,3468.6,3464.9,1549.7,1122.6,1803.2,3471.0,1857.6,1549.7,3469.8,3480.7,1516.2,2025.4,2603.7,3426.2,1822.6,3485.6,3474.6,3478.3,685.6,944.1,1836.2,1127.0,1066.0,1080.8,-24.0,-16.0,-16.0,7165.0,-8465.0,9130.0,-7879.0,-19.0,61.0,27.0,-28.0,-3.0,2.0,8316.0,-12362.0,-5734.0,3686.0,-10.0,-8.0,16.0,1.0
2022-05-23 14:51:22.541111-07:00,1218.6,852.0,1099.0,1000.5,980.7,1090.3,1913.4,1496.7,3468.6,3464.9,1542.2,1117.4,1803.2,3471.0,1859.6,1541.3,3469.8,3479.5,1516.2,2025.4,2622.1,3428.6,1822.6,3485.6,3469.8,3467.4,685.6,944.1,1828.4,1130.5,1066.0,1080.8,-22.0,3.0,-25.0,7157.0,-8459.0,9168.0,-7849.0,-89.0,-4.0,25.0,-20.0,1.0,-3.0,8301.0,-12373.0,-5725.0,3695.0,-67.0,-7.0,26.0,1.0
2022-05-23 14:51:22.543586-07:00,1223.9,857.9,1099.0,1000.5,972.2,1086.0,1913.4,1496.7,3469.8,3473.4,1542.2,1117.4,1797.4,3471.0,1859.6,1541.3,3469.8,3479.5,1516.2,2015.4,2622.1,3428.6,1818.7,3486.8,3469.8,3467.4,686.4,934.7,1828.4,1130.5,1074.7,1066.9,13.0,-6.0,-12.0,7156.0,-8475.0,9185.0,-7813.0,-22.0,-62.0,20.0,6.0,0.0,-10.0,8282.0,-12386.0,-5723.0,3698.0,1.0,-18.0,17.0,1.0
2022-05-23 14:51:22.571590-07:00,1223.9,857.9,1099.9,993.6,972.2,1086.0,1916.4,1482.9,3469.8,3473.4,1540.3,1116.5,1797.4,3471.0,1847.9,1537.6,3475.9,3475.9,1516.2,2015.4,2595.0,3429.8,1818.7,3486.8,3462.5,3479.5,686.4,934.7,1844.0,1129.6,1074.7,1066.9,19.0,1.0,-3.0,7171.0,-8478.0,9178.0,-7804.0,16.0,-35.0,16.0,21.0,3.0,4.0,8283.0,-12382.0,-5725.0,3708.0,21.0,-25.0,6.0,1.0
2022-05-23 14:51:22.631335-07:00,1213.3,868.8,1099.9,993.6,981.6,1076.4,1916.4,1482.9,3468.6,3464.9,1540.3,1116.5,1795.5,3471.0,1847.9,1537.6,3475.9,3475.9,1510.6,2025.4,2595.0,3429.8,1819.7,3491.7,3462.5,3479.5,692.9,934.7,1844.0,1129.6,1075.6,1068.6,20.0,8.0,5.0,7174.0,-8482.0,9167.0,-7809.0,19.0,-12.0,-33.0,22.0,2.0,12.0,8290.0,-12375.0,-5730.0,3708.0,6.0,-2.0,-12.0,1.0
2022-05-23 14:51:22.691543-07:00,1213.3,868.8,1093.8,990.2,981.6,1077.3,1902.6,1486.6,3468.6,3464.9,1543.1,1117.4,1795.5,3467.4,1845.0,1529.2,3473.4,3477.1,1515.3,2025.4,2597.2,3422.5,1819.7,3491.7,3473.4,3475.9,675.0,934.7,1831.3,1137.5,1075.6,1068.6,13.0,0.0,0.0,7169.0,-8493.0,9148.0,-7824.0,15.0,9.0,-53.0,6.0,0.0,9.0,8296.0,-12369.0,-5739.0,3698.0,-6.0,12.0,-34.0,1.0
2022-05-23 14:51:22.751143-07:00,1214.2,847.8,1092.9,990.2,981.6,1077.3,1902.6,1486.6,3471.0,3458.9,1539.4,1117.4,1793.6,3467.4,1845.0,1529.2,3473.4,3477.1,1515.3,2027.4,2597.2,3428.6,1807.1,3490.5,3473.4,3475.9,675.0,929.6,1831.3,1140.1,1068.6,1062.5,-4.0,-18.0,2.0,7149.0,-8486.0,9143.0,-7856.0,55.0,113.0,-46.0,-20.0,-7.0,10.0,8302.0,-12363.0,-5749.0,3690.0,11.0,6.0,-30.0,1.0
2022-05-23 14:51:22.781341-07:00,1214.2,847.8,1092.9,991.0,981.6,1081.6,1901.6,1466.3,3471.0,3458.9,1539.4,1113.0,1793.6,3467.4,1840.1,1525.5,3467.4,3466.1,1521.8,2027.4,2595.0,3428.6,1807.1,3490.5,3474.6,3478.3,686.4,929.6,1839.1,1140.1,1068.6,1062.5,-51.0,-18.0,-25.0,7129.0,-8457.0,9156.0,-7891.0,2.0,64.0,20.0,-30.0,-10.0,11.0,8306.0,-12361.0,-5742.0,3700.0,-24.0,4.0,20.0,1.0
2022-05-23 14:51:22.871423-07:00,1220.4,852.8,1099.9,991.0,993.6,1081.6,1901.6,1466.3,3462.5,3464.9,1534.8,1113.0,1793.6,3467.4,1840.1,1525.5,3467.4,3466.1,1521.8,2017.4,2595.0,3422.5,1808.1,3489.2,3474.6,3478.3,686.4,915.2,1839.1,1133.1,1069.5,1063.4,-4.0,-3.0,-32.0,7132.0,-8456.0,9174.0,-7868.0,-26.0,-21.0,27.0,-16.0,4.0,-20.0,8291.0,-12375.0,-5729.0,3708.0,-26.0,-2.0,40.0,1.0
2022-05-23 14:51:22.872592-07:00,1220.4,852.8,1099.9,990.2,993.6,1077.3,1908.5,1485.6,3462.5,3464.9,1534.8,1112.1,1793.6,3463.7,1832.3,1525.5,3473.4,3468.6,1488.4,2017.4,2597.2,3422.5,1808.1,3489.2,3473.4,3469.8,675.8,915.2,1828.4,1133.1,1069.5,1063.4,6.0,5.0,-26.0,7142.0,-8455.0,9179.0,-7853.0,-1.0,-51.0,28.0,10.0,5.0,-10.0,8285.0,-12377.0,-5723.0,3721.0,7.0,-24.0,26.0,1.0
2022-05-23 14:51:23.021202-07:00,1210.6,842.8,1090.3,990.2,979.9,1077.3,1908.5,1485.6,3474.6,3463.7,1532.9,1112.1,1794.5,3463.7,1832.3,1525.5,3473.4,3468.6,1488.4,2018.4,2597.2,3418.9,1806.1,3485.6,3473.4,3469.8,675.8,922.8,1828.4,1136.6,1062.5,1071.2,16.0,0.0,9.0,7151.0,-8461.0,9174.0,-7845.0,19.0,-27.0,7.0,21.0,0.0,11.0,8281.0,-12376.0,-5726.0,3730.0,10.0,-17.0,9.0,1.0
2022-05-23 14:51:23.141173-07:00,1210.6,842.8,1090.3,1001.3,980.7,1075.6,1897.7,1487.5,3474.6,3463.7,1532.9,1107.8,1791.6,3467.4,1818.7,1530.1,3478.3,3472.2,1513.4,2038.4,2587.4,3418.9,1806.1,3485.6,3467.4,3462.5,679.1,925.4,1837.2,1136.6,1062.5,1071.2,37.0,0.0,18.0,7152.0,-8467.0,9164.0,-7850.0,-11.0,7.0,-15.0,23.0,0.0,10.0,8284.0,-12373.0,-5731.0,3726.0,-26.0,3.0,-7.0,1.0
2022-05-23 14:51:23.143528-07:00,1219.5,848.6,1079.0,993.6,980.7,1075.6,1897.7,1487.5,3469.8,3467.4,1530.1,1104.3,1791.6,3467.4,1818.7,1530.1,3478.3,3472.2,1513.4,2038.4,2597.2,3429.8,1806.1,3488.0,3467.4,3462.5,679.1,925.4,1854.7,1120.9,1066.0,1066.0,6.0,-9.0,1.0,7139.0,-8463.0,9162.0,-7868.0,29.0,36.0,-33.0,2.0,-1.0,7.0,8286.0,-12374.0,-5735.0,3712.0,-6.0,26.0,-20.0,1.0
2022-05-23 14:51:23.201022-07:00,1219.5,848.6,1079.0,993.6,972.2,1086.0,1891.8,1478.3,3469.8,3467.4,1530.1,1104.3,1783.9,3462.5,1830.4,1523.6,3471.0,3463.7,1520.8,2017.4,2597.2,3429.8,1806.1,3488.0,3488.0,3480.7,670.9,917.7,1854.7,1120.9,1066.0,1066.0,-11.0,-10.0,-20.0,7132.0,-8466.0,9155.0,-7879.0,-16.0,6.0,-30.0,-18.0,-4.0,-5.0,8288.0,-12376.0,-5734.0,3701.0,-30.0,13.0,-10.0,1.0
2022-05-23 14:51:23.202454-07:00,1219.5,852.0,1099.0,991.0,972.2,1086.0,1891.8,1478.3,3475.9,3468.6,1536.6,1096.4,1783.9,3462.5,1830.4,1523.6,3471.0,3463.7,1520.8,2017.4,2581.0,3426.2,1806.1,3491.7,3488.0,3480.7,670.9,917.7,1832.3,1130.5,1063.4,1059.1,-32.0,-10.0,-22.0,7130.0,-8462.0,9166.0,-7872.0,14.0,0.0,9.0,-26.0,-7.0,2.0,8281.0,-12382.0,-5729.0,3707.0,-1.0,-9.0,21.0,1.0
2022-05-23 14:51:23.203812-07:00,1219.5,852.0,1099.0,991.0,973.1,1078.2,1902.6,1462.6,3475.9,3468.6,1536.6,1096.4,1783.9,3467.4,1824.6,1528.3,3469.8,3467.4,1516.2,2024.4,2581.0,3426.2,1806.1,3491.7,3478.3,3478.3,675.8,911.0,1832.3,1130.5,1063.4,1059.1,-28.0,-11.0,-20.0,7142.0,-8447.0,9179.0,-7864.0,35.0,5.0,38.0,-17.0,-5.0,5.0,8277.0,-12384.0,-5717.0,3724.0,22.0,-14.0,35.0,1.0
2022-05-23 14:51:23.261322-07:00,1217.7,868.8,1090.3,995.3,973.1,1078.2,1902.6,1479.2,3468.6,3467.4,1529.2,1110.4,1783.9,3467.4,1824.6,1521.8,3471.0,3467.4,1516.2,2024.4,2589.6,3429.8,1802.3,3495.3,3471.0,3478.3,675.8,911.0,1832.3,1129.6,1064.3,1064.3,6.0,4.0,-10.0,7156.0,-8435.0,9180.0,-7862.0,18.0,-5.0,12.0,0.0,5.0,-2.0,8280.0,-12384.0,-5706.0,3736.0,9.0,-9.0,21.0,1.0
2022-05-23 14:51:23.263111-07:00,1222.2,868.8,1090.3,995.3,973.9,1066.9,1887.9,1479.2,3457.6,3467.4,1529.2,1110.4,1785.8,3471.0,1826.5,1521.8,3471.0,3469.8,1507.8,2018.4,2589.6,3429.8,1802.3,3477.1,3471.0,3471.0,672.5,917.7,1832.3,1129.6,1064.3,1055.6,18.0,-7.0,-1.0,7157.0,-8435.0,9177.0,-7865.0,27.0,-2.0,12.0,23.0,-4.0,6.0,8280.0,-12383.0,-5706.0,3740.0,21.0,-6.0,8.0,1.0
2022-05-23 14:51:23.471197-07:00,1222.2,840.3,1101.7,991.0,973.9,1066.9,1887.9,1466.3,3457.6,3473.4,1530.1,1104.3,1785.8,3471.0,1826.5,1519.9,3468.6,3469.8,1507.8,2018.4,2587.4,3428.6,1796.5,3477.1,3474.6,3471.0,672.5,917.7,1824.6,1126.1,1060.8,1055.6,24.0,15.0,0.0,7154.0,-8437.0,9170.0,-7873.0,-4.0,-3.0,-31.0,30.0,1.0,8.0,8288.0,-12377.0,-5711.0,3733.0,-14.0,7.0,-13.0,1.0
2022-05-23 14:51:23.501155-07:00,1217.7,840.3,1101.7,991.0,985.9,1064.3,1881.1,1466.3,3478.3,3473.4,1530.1,1104.3,1780.1,3466.1,1825.5,1519.9,3468.6,3469.8,1512.5,2023.4,2587.4,3428.6,1796.5,3488.0,3474.6,3478.3,675.8,933.0,1824.6,1126.1,1060.8,1056.5,4.0,-2.0,-3.0,7142.0,-8442.0,9155.0,-7896.0,43.0,33.0,-55.0,9.0,-1.0,14.0,8297.0,-12372.0,-5721.0,3718.0,10.0,19.0,-36.0,1.0
2022-05-23 14:51:23.621322-07:00,1217.7,851.1,1088.6,987.6,985.9,1064.3,1881.1,1478.3,3478.3,3463.7,1534.8,1106.9,1780.1,3466.1,1825.5,1519.9,3469.8,3469.8,1512.5,2023.4,2592.9,3417.7,1807.1,3488.0,3478.3,3478.3,675.8,933.0,1834.3,1124.4,1066.0,1056.5,14.0,-35.0,17.0,7120.0,-8443.0,9148.0,-7923.0,28.0,121.0,-68.0,-24.0,-8.0,-16.0,8300.0,-12373.0,-5724.0,3701.0,-13.0,36.0,-16.0,1.0
2022-05-23 14:51:23.622635-07:00,1213.3,851.1,1088.6,987.6,981.6,1075.6,1900.7,1478.3,3477.1,3463.7,1534.8,1106.9,1782.0,3466.1,1822.6,1519.9,3469.8,3468.6,1513.4,2015.4,2592.9,3417.7,1807.1,3489.2,3478.3,3467.4,680.7,921.1,1834.3,1124.4,1066.0,1066.0,-37.0,-19.0,-58.0,6963.0,-8300.0,9236.0,-8110.0,132.0,916.0,3.0,-4.0,18.0,52.0,8344.0,-12350.0,-5708.0,3700.0,132.0,68.0,-18.0,1.0
2022-05-23 14:51:23.623641-07:00,1213.3,847.8,1106.9,998.7,981.6,1075.6,1904.6,1474.6,3477.1,3462.5,1595.5,1096.4,1782.0,3466.1,1982.6,1566.5,3477.1,3472.2,1513.4,2015.4,2571.3,3418.9,1907.5,3489.2,3473.4,3477.1,680.7,921.1,1826.5,1131.4,1064.3,1066.0,-76.0,139.0,-223.0,6839.0,-8341.0,9375.0,-8013.0,-1084.0,-363.0,95.0,-60.0,27.0,-27.0,8240.0,-12456.0,-5695.0,3600.0,-619.0,169.0,54.0,1.0
2022-05-23 14:51:23.624526-07:00,1219.5,857.0,1106.9,998.7,973.1,1069.5,1904.6,1474.6,3464.9,3468.6,1595.5,1096.4,1779.1,3471.0,1982.6,1566.5,3477.1,3472.2,1509.7,2002.5,2571.3,3418.9,2110.8,3484.4,3473.4,3477.1,701.9,973.1,1826.5,1131.4,1073.8,1124.4,-9.0,29.0,6.0,6793.0,-8331.0,9413.0,-8018.0,686.0,715.0,-12.0,-17.0,-5.0,53.0,8084.0,-12568.0,-5730.0,3506.0,101.0,-13.0,-27.0,1.0
2022-05-23 14:51:23.626319-07:00,1219.5,857.0,1106.9,1010.8,973.1,1069.5,1920.3,1492.1,3464.9,3468.6,1568.3,1049.6,1779.1,3471.0,1660.6,1488.4,3469.8,3479.5,1509.7,2002.5,2586.4,3427.4,2110.8,3484.4,3462.5,3477.1,701.9,973.1,1839.1,1134.9,1073.8,1124.4,-14.0,-8.0,-37.0,6767.0,-8355.0,9548.0,-7854.0,-898.0,-314.0,451.0,13.0,8.0,-18.0,7997.0,-12629.0,-5759.0,3439.0,-710.0,102.0,13.0,1.0
2022-05-23 14:51:23.681442-07:00,1256.0,885.6,1106.9,1010.8,973.1,1049.6,1920.3,1492.1,3461.3,3471.0,1568.3,1049.6,1765.6,3471.0,1660.6,1488.4,3469.8,3479.5,1510.6,2026.4,2586.4,3427.4,2159.5,3477.1,3462.5,3477.1,719.2,1007.3,1839.1,1134.9,1062.5,1104.3,105.0,-32.0,50.0,6746.0,-8355.0,9747.0,-7623.0,-150.0,171.0,367.0,41.0,-13.0,-24.0,7819.0,-12755.0,-5789.0,3332.0,-146.0,24.0,-13.0,1.0
2022-05-23 14:51:23.711679-07:00,1256.0,885.6,1107.8,1013.3,973.1,1049.6,1909.5,1449.7,3461.3,3471.0,1359.4,1006.5,1765.6,3471.0,1548.7,1426.8,3467.4,3474.6,1510.6,2026.4,2564.8,3420.1,2159.5,3477.1,3477.1,3481.9,719.2,1007.3,1838.2,1120.9,1062.5,1104.3,-37.0,51.0,-27.0,6760.0,-8239.0,9818.0,-7647.0,-37.0,91.0,167.0,-12.0,20.0,11.0,7832.0,-12745.0,-5794.0,3330.0,3.0,16.0,-29.0,1.0
2022-05-23 14:51:23.771548-07:00,1253.3,895.7,1106.0,1013.3,978.2,1042.6,1909.5,1449.7,3467.4,3472.2,1325.0,1006.5,1746.4,3467.4,1548.7,1426.8,3467.4,3474.6,1507.8,2022.4,2564.8,3435.8,2113.9,3488.0,3477.1,3481.9,703.6,983.3,1838.2,1129.6,1053.9,1066.0,-8.0,-33.0,2.0,6696.0,-8257.0,9913.0,-7560.0,-279.0,71.0,64.0,-17.0,-23.0,17.0,7777.0,-12779.0,-5817.0,3287.0,-239.0,31.0,-39.0,1.0
2022-05-23 14:51:23.832037-07:00,1253.3,895.7,1106.0,1005.6,978.2,1006.5,1922.3,1431.4,3467.4,3472.2,1325.0,994.5,1746.4,3468.6,1514.3,1402.1,3457.6,3478.3,1519.0,2022.4,2582.0,3435.8,2113.9,3488.0,3467.4,3469.8,719.2,983.3,1825.5,1129.6,1053.9,1066.0,-45.0,-9.0,-24.0,6649.0,-8269.0,9989.0,-7487.0,-348.0,9.0,131.0,-27.0,-7.0,4.0,7712.0,-12822.0,-5831.0,3248.0,-299.0,31.0,7.0,1.0
2022-05-23 14:51:23.861222-07:00,1272.1,891.5,1106.9,1005.6,969.6,1006.5,1922.3,1431.4,3469.8,3457.6,1305.2,994.5,1743.5,3468.6,1514.3,1402.1,3457.6,3478.3,1519.0,2032.4,2582.0,3431.0,2090.6,3492.9,3467.4,3469.8,719.2,962.0,1825.5,1124.4,1057.3,1084.2,9.0,-21.0,-4.0,6624.0,-8259.0,10102.0,-7369.0,-230.0,101.0,269.0,-10.0,-8.0,-20.0,7643.0,-12871.0,-5831.0,3220.0,-52.0,1.0,47.0,1.0
2022-05-23 14:51:23.921832-07:00,1272.1,891.5,1106.9,1011.6,969.6,985.0,1900.7,1411.3,3469.8,3457.6,1305.2,984.2,1743.5,3483.2,1490.3,1405.8,3488.0,3478.3,1521.8,2032.4,2559.4,3431.0,2090.6,3492.9,3474.6,3469.8,715.9,962.0,1827.5,1124.4,1057.3,1084.2,0.0,44.0,-19.0,6612.0,-8188.0,10174.0,-7359.0,-8.0,97.0,64.0,11.0,2.0,10.0,7644.0,-12876.0,-5813.0,3229.0,-20.0,21.0,27.0,1.0
2022-05-23 14:51:23.981363-07:00,1266.7,902.5,1103.4,1011.6,979.9,985.0,1900.7,1411.3,3478.3,3468.6,1290.9,984.2,1729.1,3483.2,1490.3,1405.8,3488.0,3478.3,1521.8,2041.4,2559.4,3433.4,2078.5,3492.9,3474.6,3469.8,715.9,950.9,1827.5,1126.1,1056.5,1077.3,23.0,14.0,-17.0,6584.0,-8214.0,10177.0,-7351.0,-90.0,-5.0,-75.0,16.0,7.0,-6.0,7624.0,-12890.0,-5817.0,3212.0,-63.0,2.0,-46.0,1.0
2022-05-23 14:51:24.012237-07:00,1266.7,902.5,1103.4,1001.3,979.9,973.9,1896.7,1395.7,3478.3,3468.6,1290.9,994.5,1729.1,3471.0,1478.3,1385.7,3472.2,3462.5,1522.7,2041.4,2558.3,3433.4,2078.5,3492.9,3480.7,3473.4,714.2,950.9,1826.5,1126.1,1056.5,1077.3,20.0,-16.0,1.0,6585.0,-8237.0,10152.0,-7360.0,117.0,-63.0,-81.0,21.0,-8.0,5.0,7631.0,-12879.0,-5841.0,3198.0,92.0,-11.0,-70.0,1.0
2022-05-23 14:51:24.071256-07:00,1272.1,888.2,1106.9,1004.8,973.9,973.9,1896.7,1395.7,3464.9,3463.7,1288.2,978.2,1731.1,3471.0,1478.3,1385.7,3472.2,3462.5,1522.7,2045.4,2563.7,3434.6,2065.5,3480.7,3480.7,3473.4,714.2,946.6,1823.6,1119.1,1062.5,1064.3,-3.0,-1.0,-20.0,6606.0,-8280.0,10103.0,-7360.0,-56.0,-144.0,-88.0,0.0,-5.0,3.0,7649.0,-12857.0,-5867.0,3195.0,-29.0,-23.0,-71.0,1.0
2022-05-23 14:51:24.131338-07:00,1272.1,888.2,1106.9,1004.8,979.9,981.6,1864.5,1373.9,3464.9,3463.7,1288.2,978.2,1721.5,3467.4,1479.2,1380.3,3469.8,3471.0,1525.5,2035.4,2563.7,3434.6,2065.5,3480.7,3477.1,3478.3,711.0,948.3,1823.6,1119.1,1062.5,1064.3,-10.0,0.0,13.0,6622.0,-8338.0,10053.0,-7348.0,59.0,-110.0,-137.0,-16.0,-2.0,10.0,7651.0,-12848.0,-5883.0,3196.0,44.0,-16.0,-21.0,1.0
2022-05-23 14:51:24.161211-07:00,1272.1,889.8,1109.5,1003.0,979.9,981.6,1864.5,1373.9,3473.4,3473.4,1276.5,978.2,1721.5,3467.4,1479.2,1380.3,3469.8,3471.0,1525.5,2035.4,2555.1,3433.4,2061.5,3475.9,3477.1,3478.3,711.0,948.3,1827.5,1123.5,1053.9,1062.5,-41.0,-23.0,-16.0,6619.0,-8368.0,10027.0,-7354.0,-98.0,-38.0,-14.0,-30.0,-11.0,0.0,7637.0,-12856.0,-5882.0,3201.0,-94.0,-9.0,20.0,1.0
2022-05-23 14:51:24.221326-07:00,1272.1,889.8,1109.5,1003.0,973.9,968.8,1850.8,1366.6,3473.4,3473.4,1276.5,978.2,1716.7,3461.3,1470.9,1383.9,3471.0,3466.1,1524.5,2032.4,2555.1,3433.4,2061.5,3475.9,3472.2,3477.1,713.4,937.3,1827.5,1123.5,1053.9,1062.5,-2.0,2.0,-5.0,6622.0,-8364.0,10049.0,-7324.0,17.0,13.0,55.0,0.0,-8.0,0.0,7625.0,-12866.0,-5869.0,3210.0,31.0,-7.0,40.0,1.0
2022-05-23 14:51:24.311452-07:00,1281.0,890.7,1105.1,1003.0,973.9,968.8,1850.8,1366.6,3472.2,3457.6,1277.4,974.8,1716.7,3461.3,1470.9,1383.9,3471.0,3466.1,1524.5,2032.4,2562.6,3429.8,2047.4,3485.6,3472.2,3477.1,713.4,937.3,1824.6,1127.0,1064.3,1042.6,15.0,22.0,-20.0,6637.0,-8365.0,10023.0,-7345.0,80.0,-62.0,-98.0,14.0,18.0,-4.0,7647.0,-12856.0,-5855.0,3226.0,75.0,1.0,5.0,1.0
2022-05-23 14:51:24.313109-07:00,1264.0,890.7,1105.1,1003.0,976.5,967.9,1849.8,1363.9,3467.4,3457.6,1277.4,974.8,1725.3,3473.4,1469.0,1379.4,3475.9,3481.9,1499.5,2017.4,2562.6,3429.8,2047.4,3486.8,3472.2,3478.3,706.9,945.8,1824.6,1127.0,1064.3,1052.2,13.0,0.0,-15.0,6624.0,-8426.0,9979.0,-7346.0,-94.0,-92.0,-137.0,21.0,3.0,1.0,7649.0,-12850.0,-5874.0,3210.0,-36.0,3.0,-70.0,1.0
2022-05-23 14:51:24.371839-07:00,1264.0,876.4,1103.4,1011.6,976.5,967.9,1849.8,1360.3,3467.4,3468.6,1275.6,970.5,1725.3,3473.4,1469.0,1373.9,3467.4,3481.9,1499.5,2017.4,2562.6,3433.4,2041.4,3486.8,3467.4,3478.3,706.9,945.8,1821.6,1125.2,1059.1,1052.2,15.0,-21.0,8.0,6616.0,-8465.0,9963.0,-7331.0,19.0,-24.0,-38.0,9.0,-19.0,10.0,7661.0,-12835.0,-5899.0,3196.0,58.0,-4.0,-63.0,1.0
2022-05-23 14:51:24.431415-07:00,1268.5,876.4,1103.4,1011.6,973.1,960.2,1849.8,1360.3,3485.6,3468.6,1275.6,970.5,1711.9,3466.1,1453.4,1373.9,3467.4,3473.4,1521.8,2030.4,2562.6,3433.4,2041.4,3494.1,3467.4,3473.4,710.1,950.9,1821.6,1125.2,1059.1,1053.9,-7.0,-6.0,0.0,6638.0,-8457.0,9931.0,-7364.0,117.0,-7.0,-38.0,-5.0,-7.0,0.0,7702.0,-12807.0,-5902.0,3205.0,100.0,-1.0,-24.0,1.0
2022-05-23 14:51:24.461527-07:00,1268.5,884.8,1120.9,1014.2,973.1,960.2,1849.8,1357.6,3485.6,3466.1,1271.2,968.8,1711.9,3466.1,1453.4,1374.8,3484.4,3473.4,1521.8,2030.4,2564.8,3429.8,2037.4,3494.1,3478.3,3473.4,710.1,950.9,1831.3,1122.6,1052.2,1053.9,-23.0,-5.0,-6.0,6643.0,-8449.0,9914.0,-7391.0,27.0,35.0,-34.0,-20.0,-7.0,0.0,7718.0,-12797.0,-5897.0,3214.0,11.0,-7.0,14.0,1.0
2022-05-23 14:51:24.521304-07:00,1265.8,884.8,1120.9,1014.2,973.1,963.7,1832.3,1357.6,3473.4,3466.1,1271.2,968.8,1714.8,3468.6,1462.6,1374.8,3484.4,3481.9,1527.3,2020.4,2564.8,3429.8,2037.4,3486.8,3478.3,3478.3,711.8,953.4,1831.3,1122.6,1052.2,1041.8,-26.0,-5.0,-21.0,6640.0,-8436.0,9920.0,-7401.0,36.0,43.0,13.0,-20.0,-4.0,-1.0,7721.0,-12798.0,-5882.0,3229.0,35.0,-1.0,32.0,1.0
2022-05-23 14:51:24.581199-07:00,1265.8,877.2,1134.0,1021.9,973.1,963.7,1832.3,1360.3,3473.4,3472.2,1273.0,968.8,1714.8,3468.6,1462.6,1378.5,3468.6,3481.9,1527.3,2020.4,2553.0,3437.0,2035.4,3486.8,3462.5,3478.3,711.8,953.4,1815.8,1122.6,1058.2,1041.8,0.0,1.0,-21.0,6649.0,-8408.0,9934.0,-7405.0,62.0,47.0,58.0,-3.0,-1.0,-4.0,7736.0,-12792.0,-5866.0,3247.0,77.0,-8.0,22.0,1.0
2022-05-23 14:51:24.641258-07:00,1256.0,875.5,1134.0,1021.9,970.5,947.5,1838.2,1360.3,3473.4,3467.4,1273.0,968.8,1711.0,3466.1,1459.8,1378.5,3468.6,3473.4,1523.6,2034.4,2553.0,3437.0,2014.4,3486.8,3462.5,3471.0,710.1,950.0,1815.8,1122.6,1060.8,1041.8,25.0,15.0,-16.0,6659.0,-8390.0,9932.0,-7420.0,37.0,3.0,-9.0,17.0,8.0,-8.0,7755.0,-12780.0,-5859.0,3260.0,27.0,-12.0,-3.0,1.0
2022-05-23 14:51:24.701107-07:00,1256.0,875.5,1135.7,1018.5,970.5,947.5,1832.3,1345.8,3473.4,3467.4,1264.0,971.3,1711.0,3466.1,1460.8,1369.4,3474.6,3475.9,1523.6,2034.4,2566.9,3420.1,2014.4,3486.8,3474.6,3479.5,710.1,950.0,1826.5,1124.4,1060.8,1041.8,20.0,-2.0,-2.0,6645.0,-8400.0,9928.0,-7427.0,-15.0,9.0,-29.0,26.0,-6.0,6.0,7760.0,-12775.0,-5869.0,3251.0,10.0,6.0,-27.0,1.0
2022-05-23 14:51:24.731364-07:00,1265.8,872.1,1135.7,1018.5,984.2,945.8,1832.3,1345.8,3468.6,3471.0,1264.0,971.3,1710.0,3467.4,1460.8,1369.4,3474.6,3475.9,1526.4,2026.4,2566.9,3420.1,2023.4,3480.7,3474.6,3479.5,708.5,936.4,1826.5,1124.4,1055.6,1036.6,10.0,-6.0,5.0,6633.0,-8406.0,9919.0,-7442.0,33.0,34.0,-41.0,15.0,-7.0,13.0,7775.0,-12764.0,-5878.0,3242.0,23.0,16.0,-28.0,1.0
2022-05-23 14:51:24.761231-07:00,1265.8,872.1,1128.7,1023.7,984.2,945.8,1815.8,1333.2,3468.6,3471.0,1264.9,967.1,1710.0,3467.4,1454.3,1369.4,3468.6,3464.9,1526.4,2026.4,2558.3,3432.2,2023.4,3480.7,3471.0,3478.3,708.5,936.4,1819.7,1123.5,1055.6,1036.6,-17.0,-10.0,-13.0,6623.0,-8416.0,9913.0,-7448.0,-55.0,-12.0,-24.0,-12.0,-4.0,6.0,7770.0,-12769.0,-5881.0,3230.0,-66.0,15.0,5.0,1.0
2022-05-23 14:51:24.821794-07:00,1251.5,881.4,1128.7,1023.7,971.3,944.1,1815.8,1333.2,3457.6,3466.1,1264.9,967.1,1709.1,3473.4,1454.3,1369.4,3468.6,3464.9,1513.4,2028.4,2558.3,3432.2,2019.4,3475.9,3471.0,3478.3,709.3,941.5,1819.7,1123.5,1057.3,1044.4,-47.0,-6.0,-29.0,6612.0,-8450.0,9947.0,-7373.0,-257.0,-137.0,70.0,-29.0,-13.0,4.0,7721.0,-12802.0,-5878.0,3221.0,-159.0,5.0,41.0,1.0
2022-05-23 14:51:24.911242-07:00,1251.5,881.4,1140.1,1016.8,971.3,944.9,1822.6,1336.8,3457.6,3466.1,1263.1,972.2,1709.1,3466.1,1463.5,1367.6,3467.4,3474.6,1521.8,2028.4,2557.3,3418.9,2019.4,3475.9,3466.1,3475.9,703.6,941.5,1819.7,1129.6,1057.3,1044.4,-20.0,-11.0,-12.0,6626.0,-8472.0,9974.0,-7300.0,7.0,-42.0,86.0,-22.0,-8.0,-9.0,7701.0,-12815.0,-5871.0,3229.0,68.0,-34.0,26.0,1.0
2022-05-23 14:51:24.913131-07:00,1231.0,870.5,1140.1,1016.8,980.7,944.9,1822.6,1336.8,3477.1,3473.4,1265.8,972.2,1701.4,3466.1,1463.5,1367.6,3467.4,3474.6,1521.8,2024.4,2557.3,3428.6,2008.4,3497.8,3466.1,3475.9,703.6,939.8,1819.7,1131.4,1053.9,1031.4,-6.0,6.0,-27.0,6695.0,-8434.0,9954.0,-7308.0,236.0,-80.0,74.0,1.0,8.0,-6.0,7763.0,-12775.0,-5851.0,3275.0,243.0,-29.0,11.0,1.0
2022-05-23 14:51:25.001165-07:00,1231.0,870.5,1140.1,1014.2,980.7,950.9,1817.8,1354.9,3477.1,3473.4,1265.8,970.5,1701.4,3475.9,1455.2,1368.5,3469.8,3467.4,1521.8,2024.4,2553.0,3428.6,2008.4,3497.8,3472.2,3474.6,708.5,939.8,1818.7,1131.4,1053.9,1031.4,18.0,22.0,0.0,6754.0,-8424.0,9929.0,-7298.0,14.0,-127.0,29.0,19.0,6.0,3.0,7810.0,-12739.0,-5852.0,3303.0,93.0,-31.0,-35.0,1.0
2022-05-23 14:51:25.031378-07:00,1248.8,867.1,1133.1,1014.2,968.8,950.9,1817.8,1354.9,3473.4,3467.4,1263.1,970.5,1694.8,3475.9,1455.2,1368.5,3469.8,3467.4,1521.8,2025.4,2553.0,3429.8,2009.4,3488.0,3472.2,3474.6,708.5,949.2,1818.7,1134.9,1059.9,1049.6,8.0,0.0,5.0,6777.0,-8452.0,9902.0,-7283.0,13.0,-107.0,-55.0,20.0,-5.0,20.0,7839.0,-12714.0,-5870.0,3301.0,49.0,-2.0,-54.0,1.0
2022-05-23 14:51:25.091033-07:00,1248.8,867.1,1133.1,1025.4,968.8,953.4,1810.0,1343.1,3473.4,3467.4,1263.1,979.0,1694.8,3473.4,1440.5,1372.1,3471.0,3467.4,1519.0,2025.4,2564.8,3429.8,2009.4,3488.0,3479.5,3479.5,704.4,949.2,1829.4,1134.9,1059.9,1049.6,-1.0,7.0,-6.0,6787.0,-8491.0,9878.0,-7258.0,-98.0,-98.0,-48.0,3.0,2.0,5.0,7848.0,-12703.0,-5888.0,3289.0,-42.0,4.0,-48.0,1.0
2022-05-23 14:51:25.151211-07:00,1235.5,868.8,1124.4,1025.4,967.9,953.4,1810.0,1343.1,3483.2,3463.7,1293.6,979.0,1701.4,3473.4,1440.5,1372.1,3471.0,3467.4,1519.0,2020.4,2564.8,3418.9,1998.5,3491.7,3479.5,3479.5,704.4,954.3,1829.4,1134.9,1055.6,1042.6,12.0,-50.0,9.0,6760.0,-8523.0,9882.0,-7242.0,40.0,91.0,-29.0,-16.0,-23.0,-3.0,7839.0,-12702.0,-5905.0,3285.0,65.0,-30.0,-13.0,1.0
2022-05-23 14:51:25.152704-07:00,1235.5,868.8,1124.4,1015.1,967.1,949.2,1802.3,1327.8,3483.2,3463.7,1293.6,982.5,1701.4,3474.6,1468.1,1366.6,3468.6,3479.5,1532.0,2017.4,2553.0,3418.9,1998.5,3491.7,3472.2,3479.5,706.9,950.0,1813.9,1134.9,1055.6,1042.6,-57.0,-1.0,-14.0,6754.0,-8474.0,9898.0,-7284.0,-31.0,82.0,72.0,-27.0,-11.0,22.0,7847.0,-12697.0,-5890.0,3308.0,-47.0,2.0,69.0,1.0
2022-05-23 14:51:25.211112-07:00,1222.2,857.9,1140.1,1012.5,967.1,949.2,1802.3,1327.8,3469.8,3467.4,1290.9,973.9,1701.4,3474.6,1468.1,1366.6,3468.6,3479.5,1532.0,2017.4,2566.9,3424.9,1993.5,3492.9,3472.2,3479.5,706.9,950.0,1815.8,1123.5,1053.9,1041.8,0.0,11.0,-13.0,6736.0,-8458.0,9934.0,-7269.0,-10.0,104.0,47.0,-16.0,4.0,-13.0,7820.0,-12721.0,-5873.0,3312.0,-14.0,6.0,54.0,1.0
2022-05-23 14:51:25.271144-07:00,1222.2,857.9,1140.1,1012.5,964.5,956.0,1808.1,1331.4,3469.8,3467.4,1290.9,973.9,1693.8,3467.4,1461.7,1366.6,3469.8,3472.2,1519.9,2018.4,2566.9,3424.9,1993.5,3492.9,3488.0,3474.6,705.2,939.8,1815.8,1123.5,1053.9,1041.8,-9.0,7.0,-19.0,6724.0,-8411.0,9962.0,-7298.0,84.0,93.0,40.0,6.0,1.0,1.0,7824.0,-12723.0,-5856.0,3325.0,59.0,6.0,30.0,1.0
2022-05-23 14:51:25.331339-07:00,1225.7,857.9,1123.5,1015.9,964.5,956.0,1808.1,1331.4,3479.5,3475.9,1273.9,974.8,1693.8,3467.4,1461.7,1366.6,3469.8,3472.2,1519.9,2018.4,2553.0,3409.3,1978.6,3491.7,3488.0,3474.6,705.2,939.8,1817.8,1113.9,1053.0,1040.9,19.0,18.0,-5.0,6714.0,-8392.0,9948.0,-7346.0,105.0,54.0,-98.0,27.0,0.0,5.0,7844.0,-12714.0,-5847.0,3329.0,43.0,16.0,-8.0,1.0
2022-05-23 14:51:25.361263-07:00,1225.7,857.9,1123.5,1015.9,972.2,938.1,1795.5,1316.9,3479.5,3475.9,1273.9,974.8,1703.3,3457.6,1456.2,1356.7,3468.6,3480.7,1522.7,2027.4,2553.0,3409.3,1978.6,3491.7,3475.9,3474.6,693.8,944.9,1817.8,1113.9,1053.0,1040.9,31.0,9.0,-3.0,6675.0,-8425.0,9906.0,-7400.0,-16.0,60.0,-178.0,22.0,1.0,4.0,7851.0,-12709.0,-5858.0,3312.0,-81.0,6.0,-50.0,1.0
2022-05-23 14:51:25.421797-07:00,1222.2,870.5,1125.2,1025.4,972.2,938.1,1795.5,1323.2,3462.5,3468.6,1266.7,969.6,1703.3,3457.6,1456.2,1358.5,3468.6,3480.7,1522.7,2027.4,2548.7,3417.7,1969.7,3490.5,3473.4,3474.6,693.8,944.9,1811.0,1114.7,1056.5,1028.0,-16.0,-31.0,8.0,6627.0,-8457.0,9891.0,-7428.0,-3.0,48.0,-103.0,-8.0,-14.0,14.0,7831.0,-12718.0,-5878.0,3288.0,-45.0,11.0,-20.0,1.0
2022-05-23 14:51:25.481306-07:00,1223.0,870.5,1125.2,1025.4,971.3,932.2,1785.8,1323.2,3472.2,3468.6,1266.7,969.6,1700.5,3466.1,1454.3,1358.5,3468.6,3471.0,1526.4,2009.4,2548.7,3417.7,1969.7,3485.6,3473.4,3488.0,698.7,933.0,1811.0,1114.7,1056.5,1030.6,-33.0,-2.0,-32.0,6624.0,-8445.0,9875.0,-7465.0,92.0,30.0,-31.0,-26.0,-4.0,2.0,7835.0,-12717.0,-5875.0,3289.0,25.0,7.0,13.0,1.0
2022-05-23 14:51:25.541115-07:00,1223.0,854.5,1128.7,1017.6,971.3,932.2,1785.8,1316.0,3472.2,3467.4,1274.7,967.1,1700.5,3466.1,1454.3,1360.3,3469.8,3471.0,1526.4,2009.4,2539.0,3420.1,1959.8,3485.6,3472.2,3488.0,698.7,933.0,1815.8,1129.6,1053.9,1030.6,-23.0,-12.0,-24.0,6625.0,-8443.0,9881.0,-7459.0,-8.0,-2.0,24.0,-24.0,-9.0,-7.0,7823.0,-12725.0,-5867.0,3298.0,-2.0,-15.0,25.0,1.0
2022-05-23 14:51:25.571274-07:00,1217.7,854.5,1128.7,1017.6,976.5,940.7,1794.5,1316.0,3471.0,3467.4,1274.7,967.1,1696.7,3473.4,1451.6,1360.3,3469.8,3479.5,1521.8,2014.4,2539.0,3420.1,1959.8,3488.0,3472.2,3472.2,701.9,927.9,1815.8,1129.6,1053.9,1030.6,-12.0,3.0,-10.0,6653.0,-8418.0,9872.0,-7473.0,147.0,1.0,12.0,-12.0,-3.0,-1.0,7836.0,-12718.0,-5853.0,3323.0,121.0,-11.0,25.0,1.0
2022-05-23 14:51:25.631474-07:00,1217.7,862.1,1127.0,1026.3,976.5,940.7,1794.5,1313.3,3471.0,3471.0,1256.0,965.4,1696.7,3473.4,1451.6,1361.2,3475.9,3479.5,1521.8,2014.4,2555.1,3409.3,1963.7,3488.0,3478.3,3472.2,701.9,927.9,1778.1,1127.9,1053.0,1030.6,-1.0,8.0,-13.0,6676.0,-8399.0,9854.0,-7498.0,34.0,5.0,11.0,10.0,2.0,3.0,7865.0,-12699.0,-5841.0,3346.0,29.0,-9.0,2.0,1.0
2022-05-23 14:51:25.661350-07:00,1227.5,862.1,1127.0,1026.3,966.2,932.2,1788.7,1313.3,3464.9,3471.0,1256.0,965.4,1697.6,3467.4,1447.0,1361.2,3475.9,3474.6,1518.0,2013.4,2555.1,3409.3,1963.7,3486.8,3478.3,3457.6,706.0,931.3,1778.1,1127.9,1053.0,1034.0,19.0,-10.0,8.0,6687.0,-8389.0,9847.0,-7510.0,108.0,9.0,2.0,26.0,-6.0,9.0,7879.0,-12690.0,-5840.0,3348.0,85.0,11.0,3.0,1.0
2022-05-23 14:51:25.721709-07:00,1227.5,860.4,1131.4,1014.2,966.2,932.2,1780.1,1333.2,3464.9,3474.6,1261.3,975.6,1697.6,3467.4,1445.1,1356.7,3467.4,3483.2,1518.0,2013.4,2554.0,3417.7,1959.8,3486.8,3472.2,3480.7,706.0,931.3,1830.4,1119.1,1052.2,1034.0,30.0,8.0,-3.0,6697.0,-8373.0,9826.0,-7545.0,117.0,62.0,-32.0,19.0,9.0,-3.0,7913.0,-12671.0,-5835.0,3348.0,75.0,16.0,-10.0,1.0
2022-05-23 14:51:25.751209-07:00,1230.2,857.9,1131.4,1014.2,974.8,938.1,1780.1,1333.2,3474.6,3462.5,1261.3,975.6,1698.6,3474.6,1445.1,1356.7,3467.4,3483.2,1521.8,2023.4,2554.0,3417.7,1950.9,3488.0,3472.2,3480.7,701.9,923.7,1830.4,1119.1,1045.2,1031.4,-10.0,-4.0,0.0,6684.0,-8348.0,9808.0,-7607.0,105.0,99.0,-66.0,-7.0,-8.0,16.0,7937.0,-12657.0,-5837.0,3343.0,42.0,24.0,-27.0,1.0
2022-05-23 14:51:25.811873-07:00,1230.2,857.9,1135.7,1025.4,974.8,938.1,1792.6,1303.4,3474.6,3462.5,1258.7,963.7,1698.6,3474.6,1427.7,1346.7,3468.6,3488.0,1521.8,2023.4,2548.7,3422.5,1950.9,3488.0,3464.9,3467.4,701.9,923.7,1821.6,1125.2,1045.2,1031.4,-44.0,-7.0,-26.0,6667.0,-8335.0,9796.0,-7651.0,12.0,48.0,-22.0,-39.0,-7.0,0.0,7945.0,-12655.0,-5835.0,3334.0,-23.0,12.0,10.0,1.0
2022-05-23 14:51:25.871203-07:00,1221.3,857.0,1135.7,1025.4,969.6,939.0,1792.6,1303.4,3460.1,3463.7,1258.7,963.7,1698.6,3464.9,1427.7,1346.7,3468.6,3488.0,1523.6,2006.4,2548.7,3422.5,1950.9,3477.1,3464.9,3467.4,701.9,922.0,1821.6,1125.2,1048.7,1030.6,-35.0,6.0,-41.0,6663.0,-8319.0,9811.0,-7654.0,24.0,13.0,7.0,-29.0,2.0,-6.0,7940.0,-12661.0,-5820.0,3350.0,24.0,-9.0,26.0,1.0
2022-05-23 14:51:25.901144-07:00,1221.3,857.0,1128.7,1025.4,969.6,939.0,1779.1,1304.3,3460.1,3463.7,1254.2,958.5,1698.6,3464.9,1438.7,1343.1,3471.0,3466.1,1523.6,2006.4,2548.7,3422.5,1950.9,3477.1,3473.4,3466.1,701.9,922.0,1813.9,1121.7,1048.7,1030.6,-7.0,-9.0,-26.0,6667.0,-8322.0,9824.0,-7631.0,16.0,-39.0,15.0,-4.0,-3.0,-9.0,7931.0,-12664.0,-5815.0,3367.0,9.0,-33.0,16.0,1.0
2022-05-23 14:51:25.961230-07:00,1224.8,848.6,1129.6,1025.4,973.1,941.5,1779.1,1304.3,3460.1,3471.0,1250.6,958.5,1694.8,3467.4,1438.7,1343.1,3471.0,3466.1,1525.5,2010.4,2548.7,3429.8,1944.0,3490.5,3473.4,3466.1,696.2,921.1,1813.9,1117.4,1051.3,1031.4,13.0,0.0,3.0,6686.0,-8326.0,9818.0,-7617.0,13.0,-46.0,13.0,19.0,3.0,8.0,7938.0,-12653.0,-5818.0,3386.0,37.0,-33.0,-2.0,1.0
2022-05-23 14:51:26.082488-07:00,1224.8,848.6,1129.6,1030.6,973.1,925.4,1771.4,1313.3,3460.1,3471.0,1250.6,967.1,1694.8,3466.1,1423.1,1345.8,3478.3,3477.1,1519.9,2010.4,2554.0,3429.8,1944.0,3490.5,3474.6,3469.8,698.7,921.1,1819.7,1117.4,1051.3,1031.4,26.0,2.0,18.0,6699.0,-8325.0,9807.0,-7620.0,37.0,-3.0,-10.0,30.0,-2.0,8.0,7952.0,-12641.0,-5824.0,3390.0,26.0,3.0,-10.0,1.0
2022-05-23 14:51:26.083534-07:00,1217.7,857.9,1125.2,1030.6,970.5,925.4,1771.4,1313.3,3457.6,3468.6,1253.3,967.1,1693.8,3466.1,1423.1,1345.8,3478.3,3477.1,1519.9,2010.4,2554.0,3416.5,1945.9,3477.1,3474.6,3469.8,698.7,914.4,1819.7,1117.4,1047.8,1023.7,33.0,-12.0,24.0,6695.0,-8319.0,9787.0,-7657.0,129.0,97.0,-45.0,20.0,-3.0,1.0,7967.0,-12636.0,-5821.0,3377.0,49.0,41.0,1.0,1.0
2022-05-23 14:51:26.111332-07:00,1217.7,857.9,1125.2,1013.3,970.5,928.8,1771.4,1303.4,3457.6,3468.6,1253.3,957.7,1693.8,3469.8,1418.6,1350.3,3474.6,3480.7,1526.4,2010.4,2550.8,3416.5,1945.9,3477.1,3469.8,3472.2,696.2,914.4,1811.0,1117.4,1047.8,1023.7,-30.0,0.0,-22.0,6679.0,-8267.0,9766.0,-7753.0,105.0,190.0,-28.0,-7.0,-5.0,16.0,7997.0,-12625.0,-5807.0,3371.0,24.0,50.0,3.0,1.0
2022-05-23 14:51:26.171283-07:00,1216.8,852.8,1147.1,1013.3,974.8,928.8,1771.4,1303.4,3477.1,3463.7,1253.3,957.7,1691.9,3469.8,1418.6,1350.3,3474.6,3480.7,1526.4,2011.4,2550.8,3421.3,1945.0,3480.7,3469.8,3472.2,696.2,921.1,1811.0,1124.4,1059.9,1024.5,-26.0,-8.0,-38.0,6645.0,-8243.0,9784.0,-7784.0,-70.0,69.0,2.0,-33.0,-5.0,-12.0,7985.0,-12644.0,-5792.0,3357.0,-73.0,34.0,28.0,1.0
2022-05-23 14:51:26.201212-07:00,1216.8,852.8,1147.1,1018.5,974.8,922.8,1757.0,1309.7,3477.1,3463.7,1253.3,949.2,1691.9,3467.4,1417.6,1348.5,3480.7,3471.0,1522.7,2011.4,2537.9,3421.3,1945.0,3480.7,3473.4,3468.6,697.0,921.1,1816.8,1124.4,1059.9,1024.5,-38.0,-6.0,-46.0,6625.0,-8227.0,9826.0,-7765.0,17.0,39.0,47.0,-30.0,0.0,-8.0,7976.0,-12653.0,-5774.0,3373.0,36.0,-17.0,31.0,1.0
2022-05-23 14:51:26.291328-07:00,1216.8,856.2,1124.4,1021.9,969.6,922.8,1757.0,1309.7,3468.6,3468.6,1249.7,959.4,1679.5,3467.4,1417.6,1348.5,3480.7,3471.0,1522.7,2007.4,2535.8,3379.2,1943.0,3490.5,3473.4,3468.6,697.0,916.0,1810.0,1117.4,1048.7,1024.5,4.0,-24.0,-1.0,6634.0,-8209.0,9853.0,-7743.0,-15.0,29.0,74.0,-11.0,-9.0,-10.0,7979.0,-12646.0,-5767.0,3404.0,66.0,-51.0,20.0,1.0
2022-05-23 14:51:26.321168-07:00,1216.8,856.2,1124.4,1021.9,967.1,928.8,1769.5,1320.5,3468.6,3468.6,1249.7,959.4,1691.9,3466.1,1421.3,1346.7,3471.0,3472.2,1521.8,2010.4,2535.8,3379.2,1943.0,3490.5,3463.7,3475.9,703.6,925.4,1810.0,1117.4,1048.7,1024.5,-6.0,9.0,15.0,6645.0,-8133.0,9875.0,-7786.0,406.0,273.0,102.0,5.0,3.0,29.0,8057.0,-12587.0,-5747.0,3473.0,435.0,-64.0,33.0,1.0
2022-05-23 14:51:26.381371-07:00,1227.5,852.8,1130.5,1027.1,967.1,928.8,1769.5,1320.5,3471.0,3466.1,1418.6,1033.2,1691.9,3466.1,1421.3,1346.7,3471.0,3472.2,1521.8,2010.4,2556.2,3402.0,1974.6,3490.5,3463.7,3475.9,703.6,925.4,1820.7,1122.6,1053.0,1031.4,-1.0,54.0,-4.0,6664.0,-8027.0,9879.0,-7873.0,-161.0,155.0,57.0,25.0,-1.0,11.0,8127.0,-12538.0,-5729.0,3517.0,45.0,-7.0,-10.0,1.0
2022-05-23 14:51:26.411120-07:00,1227.5,852.8,1130.5,1027.1,974.8,987.6,1799.4,1317.8,3471.0,3466.1,1418.6,1033.2,1711.0,3471.0,1533.8,1363.0,3473.4,3469.8,1533.8,2005.5,2556.2,3402.0,1974.6,3490.5,3480.7,3480.7,692.1,942.4,1820.7,1122.6,1053.0,1031.4,51.0,1.0,-57.0,6598.0,-8027.0,9926.0,-7869.0,34.0,-13.0,-167.0,25.0,17.0,-7.0,8158.0,-12513.0,-5740.0,3516.0,55.0,-23.0,-55.0,1.0
2022-05-23 14:51:26.471220-07:00,1218.6,857.0,1130.5,1021.1,974.8,987.6,1799.4,1317.8,3472.2,3474.6,1555.3,997.0,1711.0,3471.0,1533.8,1363.0,3473.4,3469.8,1533.8,2005.5,2554.0,3417.7,1946.9,3492.9,3480.7,3480.7,692.1,942.4,1816.8,1111.2,1049.6,1026.3,-98.0,-15.0,-31.0,6602.0,-8056.0,9838.0,-7948.0,334.0,-77.0,-178.0,-9.0,-28.0,22.0,8195.0,-12472.0,-5765.0,3533.0,188.0,-52.0,-63.0,1.0
2022-05-23 14:51:26.501245-07:00,1218.6,857.0,1130.5,1021.1,969.6,1046.1,1821.6,1365.7,3472.2,3474.6,1555.3,997.0,1690.0,3457.6,1748.3,1407.6,3477.1,3488.0,1534.8,1997.5,2554.0,3417.7,1946.9,3492.9,3488.0,3480.7,713.4,933.0,1816.8,1111.2,1049.6,1026.3,21.0,2.0,-29.0,6643.0,-8152.0,9740.0,-7936.0,-141.0,-257.0,-178.0,-22.0,0.0,-26.0,8202.0,-12447.0,-5796.0,3556.0,-26.0,-121.0,-59.0,1.0
2022-05-23 14:51:26.591220-07:00,1210.6,854.5,1122.6,1003.9,969.6,1046.1,1821.6,1418.6,3458.9,3468.6,1588.0,986.7,1690.0,3457.6,1748.3,1492.1,3473.4,3488.0,1534.8,1997.5,2549.7,3423.7,1946.9,3495.3,3472.2,3480.7,713.4,933.0,1802.3,1117.4,1050.4,1014.2,-9.0,-47.0,32.0,6708.0,-8196.0,9604.0,-8002.0,551.0,-233.0,-205.0,-9.0,-5.0,25.0,8233.0,-12401.0,-5820.0,3607.0,194.0,-102.0,3.0,1.0
2022-05-23 14:51:26.651190-07:00,1221.3,854.5,1122.6,1003.9,969.6,1109.5,1834.3,1418.6,3473.4,3468.6,1588.0,986.7,1707.2,3468.6,1933.1,1492.1,3473.4,3468.6,1545.0,2013.4,2549.7,3423.7,1946.9,3499.0,3472.2,3474.6,719.2,949.2,1802.3,1117.4,1050.4,1028.8,18.0,-8.0,-45.0,6801.0,-8201.0,9455.0,-8094.0,164.0,-48.0,-110.0,-18.0,-25.0,2.0,8268.0,-12366.0,-5804.0,3669.0,161.0,-60.0,71.0,1.0
2022-05-23 14:51:26.652456-07:00,1221.3,849.5,1105.1,1004.8,969.6,1109.5,1834.3,1509.7,3473.4,3462.5,1573.9,1007.3,1707.2,3468.6,1933.1,1488.4,3473.4,3468.6,1545.0,2013.4,2568.0,3412.9,1943.0,3499.0,3475.9,3474.6,719.2,949.2,1811.9,1112.1,1047.0,1028.8,22.0,8.0,-66.0,6815.0,-8174.0,9443.0,-8124.0,-57.0,99.0,105.0,17.0,8.0,21.0,8323.0,-12328.0,-5765.0,3735.0,240.0,-29.0,90.0,1.0
2022-05-23 14:51:26.711244-07:00,1216.8,849.5,1105.1,1004.8,966.2,1131.4,1935.1,1509.7,3461.3,3462.5,1573.9,1007.3,1717.7,3473.4,1886.0,1488.4,3473.4,3468.6,1545.0,2031.4,2568.0,3412.9,1943.0,3492.9,3475.9,3478.3,723.3,944.1,1811.9,1112.1,1047.0,1029.7,19.0,24.0,-66.0,6821.0,-8204.0,9525.0,-7993.0,-387.0,-221.0,207.0,31.0,9.0,19.0,8349.0,-12319.0,-5733.0,3756.0,2.0,24.0,48.0,1.0
2022-05-23 14:51:26.891319-07:00,1216.8,850.3,1102.5,991.0,966.2,1131.4,1935.1,1513.4,3461.3,3472.2,1610.5,1072.1,1717.7,3473.4,1886.0,1506.0,3466.1,3468.6,1545.0,2031.4,2604.8,3418.9,1904.6,3492.9,3485.6,3478.3,723.3,944.1,1810.0,1111.2,1049.6,1029.7,38.0,-2.0,8.0,6831.0,-8274.0,9570.0,-7857.0,-153.0,-196.0,98.0,14.0,16.0,-21.0,8349.0,-12316.0,-5737.0,3760.0,60.0,-45.0,-42.0,1.0
2022-05-23 14:51:26.892616-07:00,1218.6,845.3,1102.5,991.0,970.5,1121.7,1921.3,1513.4,3467.4,3467.4,1610.5,1072.1,1735.8,3469.8,1868.4,1506.0,3466.1,3473.4,1552.5,2024.4,2604.8,3418.9,1880.1,3492.9,3485.6,3474.6,707.7,923.7,1810.0,1111.2,1047.0,1072.9,-13.0,-15.0,38.0,6877.0,-8304.0,9566.0,-7790.0,114.0,-137.0,48.0,-12.0,-20.0,20.0,8367.0,-12288.0,-5759.0,3777.0,104.0,-51.0,-41.0,1.0
2022-05-23 14:51:26.893502-07:00,1218.6,845.3,1091.2,986.7,970.5,1121.7,1899.7,1484.7,3467.4,3467.4,1590.8,1118.2,1735.8,3469.8,1890.9,1482.9,3483.2,3462.5,1552.5,2024.4,2587.4,3424.9,1880.1,3492.9,3478.3,3473.4,707.7,923.7,1810.0,1103.4,1047.0,1072.9,-14.0,-3.0,39.0,6923.0,-8291.0,9539.0,-7796.0,76.0,54.0,-18.0,-16.0,-11.0,24.0,8384.0,-12271.0,-5761.0,3790.0,4.0,-5.0,-5.0,1.0
2022-05-23 14:51:26.921187-07:00,1208.0,838.6,1091.2,986.7,973.1,1114.7,1899.7,1484.7,3468.6,3474.6,1590.8,1118.2,1731.1,3472.2,1890.9,1482.9,3483.2,3462.5,1527.3,2018.4,2587.4,3424.9,1860.6,3480.7,3478.3,3473.4,701.1,908.4,1810.0,1103.4,1043.5,1066.0,-30.0,-17.0,-17.0,6925.0,-8270.0,9529.0,-7829.0,62.0,5.0,-33.0,-15.0,-10.0,8.0,8380.0,-12282.0,-5747.0,3786.0,-52.0,48.0,34.0,1.0
2022-05-23 14:51:26.981394-07:00,1208.0,838.6,1087.7,990.2,973.1,1114.7,1896.7,1497.7,3468.6,3474.6,1575.8,1105.1,1731.1,3472.2,1857.6,1470.9,3473.4,3471.0,1527.3,2018.4,2582.0,3418.9,1860.6,3480.7,3467.4,3472.2,701.1,908.4,1811.9,1101.7,1043.5,1066.0,11.0,-5.0,-36.0,6933.0,-8255.0,9514.0,-7855.0,48.0,77.0,13.0,1.0,9.0,-22.0,8380.0,-12290.0,-5733.0,3781.0,14.0,16.0,17.0,1.0
2022-05-23 14:51:27.011262-07:00,1216.0,829.4,1087.7,990.2,964.5,1106.0,1896.7,1497.7,3471.0,3468.6,1575.8,1105.1,1726.3,3467.4,1857.6,1470.9,3473.4,3471.0,1520.8,2022.4,2582.0,3418.9,1844.0,3483.2,3467.4,3472.2,688.9,900.0,1811.9,1101.7,1040.1,1061.7,8.0,9.0,-18.0,6926.0,-8234.0,9525.0,-7870.0,27.0,9.0,8.0,16.0,-1.0,5.0,8383.0,-12290.0,-5727.0,3784.0,-2.0,-12.0,8.0,1.0
2022-05-23 14:51:27.071818-07:00,1216.0,829.4,1080.8,990.2,964.5,1106.0,1888.9,1484.7,3471.0,3468.6,1555.3,1111.2,1726.3,3467.4,1846.9,1480.1,3475.9,3466.1,1520.8,2022.4,2608.0,3399.6,1844.0,3483.2,3471.0,3474.6,688.9,900.0,1813.9,1094.7,1040.1,1061.7,15.0,-8.0,2.0,6938.0,-8235.0,9509.0,-7879.0,118.0,-43.0,-27.0,17.0,-3.0,0.0,8387.0,-12286.0,-5729.0,3784.0,45.0,-8.0,-9.0,1.0
2022-05-23 14:51:27.131425-07:00,1210.6,840.3,1087.7,990.2,961.1,1102.5,1888.9,1484.7,3468.6,3467.4,1559.0,1111.2,1723.4,3463.7,1846.9,1480.1,3475.9,3466.1,1524.5,2013.4,2608.0,3416.5,1836.2,3484.4,3471.0,3474.6,686.4,899.1,1813.9,1099.0,1036.6,1055.6,0.0,-3.0,4.0,6956.0,-8216.0,9482.0,-7915.0,67.0,66.0,1.0,5.0,-4.0,16.0,8411.0,-12268.0,-5729.0,3789.0,41.0,6.0,-18.0,1.0
2022-05-23 14:51:27.162261-07:00,1210.6,840.3,1087.7,985.0,961.1,1093.8,1860.6,1463.5,3468.6,3467.4,1559.0,1102.5,1723.4,3467.4,1830.4,1487.5,3478.3,3475.9,1525.5,2013.4,2579.9,3416.5,1836.2,3484.4,3472.2,3467.4,685.6,899.1,1808.1,1099.0,1036.6,1055.6,-8.0,5.0,-13.0,6957.0,-8196.0,9478.0,-7939.0,15.0,15.0,-20.0,-6.0,5.0,4.0,8429.0,-12259.0,-5724.0,3788.0,-6.0,22.0,-1.0,1.0
2022-05-23 14:51:27.221094-07:00,1203.5,841.9,1079.0,985.0,965.4,1093.8,1860.6,1463.5,3468.6,3462.5,1551.5,1102.5,1716.7,3467.4,1830.4,1487.5,3478.3,3475.9,1525.5,2014.4,2579.9,3421.3,1825.5,3489.2,3472.2,3467.4,685.6,893.2,1808.1,1105.1,1033.2,1047.0,-30.0,-20.0,-24.0,6949.0,-8198.0,9482.0,-7939.0,7.0,26.0,22.0,-25.0,-9.0,5.0,8423.0,-12265.0,-5722.0,3784.0,8.0,-1.0,15.0,1.0
2022-05-23 14:51:27.251791-07:00,1203.5,841.9,1079.0,984.2,965.4,1099.0,1867.4,1476.4,3468.6,3462.5,1551.5,1113.9,1716.7,3475.9,1848.9,1485.6,3469.8,3467.4,1526.4,2014.4,2578.8,3421.3,1825.5,3489.2,3477.1,3473.4,686.4,893.2,1813.9,1105.1,1033.2,1047.0,-37.0,0.0,-26.0,6962.0,-8173.0,9499.0,-7934.0,59.0,-10.0,44.0,-18.0,-3.0,11.0,8428.0,-12262.0,-5708.0,3804.0,57.0,-9.0,33.0,1.0
2022-05-23 14:51:27.401268-07:00,1207.1,837.7,1073.8,984.2,957.7,1099.0,1867.4,1476.4,3468.6,3467.4,1547.8,1113.9,1713.8,3475.9,1848.9,1485.6,3469.8,3467.4,1526.4,2001.5,2578.8,3418.9,1823.6,3484.4,3477.1,3473.4,686.4,884.8,1813.9,1093.8,1034.9,1037.5,7.0,-3.0,-14.0,6989.0,-8163.0,9499.0,-7920.0,49.0,-22.0,44.0,3.0,1.0,-6.0,8434.0,-12258.0,-5696.0,3822.0,35.0,-22.0,23.0,1.0
2022-05-23 14:51:27.403902-07:00,1207.1,837.7,1073.8,980.7,967.1,1078.2,1853.7,1473.6,3468.6,3467.4,1547.8,1116.5,1712.9,3471.0,1827.5,1477.3,3472.2,3469.8,1521.8,2028.4,2584.2,3418.9,1823.6,3484.4,3475.9,3467.4,677.4,882.3,1814.9,1093.8,1034.9,1037.5,12.0,8.0,-2.0,7020.0,-8137.0,9487.0,-7934.0,122.0,-18.0,32.0,16.0,8.0,5.0,8458.0,-12238.0,-5690.0,3842.0,107.0,-12.0,6.0,1.0
2022-05-23 14:51:27.404742-07:00,1203.5,831.9,1075.6,980.7,967.1,1078.2,1853.7,1473.6,3469.8,3469.8,1532.9,1127.9,1712.9,3471.0,1827.5,1477.3,3472.2,3469.8,1521.8,2028.4,2586.4,3410.5,1811.0,3492.9,3475.9,3467.4,677.4,882.3,1815.8,1099.9,1038.3,1049.6,8.0,-5.0,-2.0,7038.0,-8129.0,9472.0,-7944.0,-9.0,-28.0,-13.0,13.0,-4.0,9.0,8479.0,-12222.0,-5686.0,3851.0,-13.0,-6.0,-8.0,1.0
2022-05-23 14:51:27.462424-07:00,1203.5,831.9,1075.6,980.7,966.2,1076.4,1848.9,1470.9,3469.8,3469.8,1532.9,1127.9,1713.8,3468.6,1808.1,1484.7,3474.6,3467.4,1519.9,2011.4,2586.4,3410.5,1811.0,3492.9,3472.2,3471.0,684.8,878.0,1815.8,1099.9,1038.3,1049.6,9.0,-1.0,0.0,7048.0,-8127.0,9462.0,-7950.0,67.0,-2.0,-1.0,16.0,-2.0,17.0,8487.0,-12216.0,-5690.0,3849.0,35.0,-7.0,-13.0,1.0
2022-05-23 14:51:27.521216-07:00,1200.9,835.2,1078.2,985.0,966.2,1076.4,1848.9,1470.9,3480.7,3471.0,1551.5,1107.8,1713.8,3468.6,1808.1,1484.7,3474.6,3467.4,1519.9,2011.4,2576.6,3417.7,1818.7,3495.3,3472.2,3471.0,684.8,878.0,1811.0,1100.8,1040.9,1049.6,-7.0,4.0,-11.0,7061.0,-8124.0,9446.0,-7960.0,-20.0,-28.0,-23.0,-1.0,-1.0,2.0,8499.0,-12206.0,-5692.0,3850.0,-3.0,7.0,-10.0,1.0
2022-05-23 14:51:27.551241-07:00,1200.9,835.2,1078.2,985.0,973.9,1084.2,1854.7,1461.7,3480.7,3471.0,1551.5,1107.8,1711.0,3457.6,1810.0,1476.4,3478.3,3468.6,1516.2,2007.4,2576.6,3417.7,1818.7,3495.3,3475.9,3472.2,684.8,877.2,1811.0,1100.8,1040.9,1049.6,-29.0,-16.0,-6.0,7059.0,-8126.0,9449.0,-7956.0,28.0,35.0,35.0,-26.0,-7.0,11.0,8491.0,-12212.0,-5690.0,3851.0,-2.0,-4.0,18.0,1.0
2022-05-23 14:51:27.612526-07:00,1190.3,842.8,1082.5,979.9,973.9,1084.2,1854.7,1461.7,3466.1,3473.4,1537.6,1106.0,1711.0,3457.6,1810.0,1476.4,3478.3,3468.6,1516.2,2007.4,2568.0,3414.1,1820.7,3486.8,3475.9,3472.2,684.8,877.2,1811.9,1091.2,1028.8,1038.3,-30.0,7.0,-28.0,7073.0,-8104.0,9468.0,-7943.0,-41.0,-21.0,36.0,-23.0,0.0,1.0,8488.0,-12217.0,-5671.0,3869.0,-25.0,11.0,44.0,1.0
2022-05-23 14:51:27.731284-07:00,1193.8,842.8,1082.5,979.9,960.2,1079.9,1856.7,1464.4,3473.4,3473.4,1537.6,1106.0,1708.1,3462.5,1811.0,1476.4,3477.1,3467.4,1514.3,2000.5,2568.0,3414.1,1820.7,3490.5,3478.3,3471.0,679.1,878.9,1811.9,1091.2,1028.8,1040.9,9.0,8.0,-24.0,7081.0,-8114.0,9482.0,-7909.0,6.0,-68.0,-3.0,0.0,6.0,-15.0,8473.0,-12232.0,-5658.0,3874.0,-12.0,0.0,29.0,1.0
2022-05-23 14:51:27.762325-07:00,1193.8,832.7,1062.5,994.5,960.2,1079.9,1856.7,1462.6,3473.4,3463.7,1525.5,1099.0,1708.1,3462.5,1811.0,1494.9,3478.3,3467.4,1514.3,2000.5,2574.5,3396.0,1806.1,3490.5,3475.9,3471.0,679.1,878.9,1813.9,1088.6,1035.7,1040.9,17.0,7.0,-13.0,7105.0,-8121.0,9462.0,-7904.0,46.0,-83.0,-4.0,19.0,1.0,1.0,8475.0,-12229.0,-5658.0,3880.0,26.0,-26.0,-2.0,1.0
2022-05-23 14:51:27.763622-07:00,1203.5,832.7,1062.5,994.5,966.2,1080.8,1865.4,1462.6,3468.6,3463.7,1525.5,1099.0,1708.1,3469.8,1807.1,1494.9,3478.3,3472.2,1518.0,1996.5,2574.5,3396.0,1806.1,3490.5,3475.9,3480.7,681.5,878.0,1813.9,1088.6,1035.7,1035.7,16.0,4.0,3.0,7135.0,-8130.0,9434.0,-7902.0,46.0,-84.0,-7.0,25.0,-2.0,13.0,8489.0,-12213.0,-5668.0,3886.0,50.0,-22.0,-21.0,1.0
2022-05-23 14:51:27.821226-07:00,1203.5,828.5,1074.7,979.0,966.2,1080.8,1865.4,1452.5,3468.6,3469.8,1530.1,1097.3,1708.1,3469.8,1807.1,1485.6,3472.2,3472.2,1518.0,1996.5,2571.3,3418.9,1809.0,3490.5,3475.9,3480.7,681.5,878.0,1812.9,1095.6,1035.7,1035.7,11.0,1.0,15.0,7157.0,-8147.0,9400.0,-7905.0,43.0,-53.0,-65.0,13.0,0.0,14.0,8506.0,-12197.0,-5678.0,3883.0,30.0,2.0,-37.0,1.0
2022-05-23 14:51:27.911435-07:00,1194.7,828.5,1074.7,979.0,972.2,1082.5,1842.0,1452.5,3464.9,3469.8,1530.1,1097.3,1709.1,3467.4,1792.6,1485.6,3472.2,3467.4,1513.4,1998.5,2571.3,3418.9,1809.0,3492.9,3475.9,3471.0,684.0,876.4,1812.9,1095.6,1035.7,1042.6,-17.0,-7.0,-8.0,7155.0,-8168.0,9371.0,-7919.0,-13.0,-13.0,-91.0,-14.0,-11.0,11.0,8515.0,-12190.0,-5686.0,3873.0,-15.0,21.0,-32.0,1.0
