Time,P0,P1,P2,P3,P4,P5,P6,P7,P8,P9,P10,P11,P12,P13,P14,P15,P16,P17,P18,P19,P20,P21,P22,P23,P24,P25,P26,P27,P28,P29,P30,P31,ECG,AX0,AY0,AZ0,QW0,QX0,QY0,QZ0,GX0,GY0,GZ0,AX1,AY1,AZ1,QW1,QX1,QY1,QZ1,GX1,GY1,GZ1
2022-05-23 14:32:15.189769-07:00,1181.5,732.3,1034.0,944.9,867.9,782.7,1733.9,1389.4,3471.0,3478.3,1011.6,819.4,1712.9,3472.2,1126.1,1099.0,3481.9,3478.3,1600.2,1949.9,2889.6,3492.9,1733.9,3486.8,3488.0,3472.2,613.3,775.3,1551.5,918.6,845.3,857.0,2.0,-26.0,12.0,6212.0,-10151.0,9430.0,-6154.0,45.0,-101.0,-73.0,-2.0,0.0,-4.0,7141.0,-14639.0,1658.0,-631.0,42.0,-19.0,-13.0,1.0
2022-05-23 14:32:15.190423-07:00,1171.8,746.3,1034.0,944.9,861.2,788.6,1733.9,1389.4,3469.8,3462.5,1011.6,819.4,1708.1,3471.0,1126.1,1099.0,3481.9,3478.3,1583.3,1954.8,2889.6,3492.9,1723.4,3489.2,3488.0,3472.2,622.2,781.9,1551.5,918.6,839.4,862.9,21.0,-9.0,31.0,6237.0,-10166.0,9404.0,-6144.0,-14.0,-70.0,11.0,3.0,5.0,-6.0,7152.0,-14634.0,1657.0,-623.0,8.0,-20.0,18.0,1.0
2022-05-23 14:32:15.278460-07:00,1171.8,746.3,1044.4,954.3,861.2,788.6,1741.6,1408.5,3469.8,3462.5,1005.6,817.7,1708.1,3471.0,1125.2,1101.7,3474.6,3475.9,1583.3,1954.8,2924.6,3486.8,1723.4,3489.2,3471.0,3479.5,622.2,781.9,1555.3,922.0,839.4,862.9,6.0,0.0,26.0,6252.0,-10163.0,9398.0,-6143.0,-16.0,-1.0,34.0,0.0,0.0,8.0,7154.0,-14632.0,1663.0,-612.0,-2.0,-10.0,24.0,1.0
2022-05-23 14:32:15.280791-07:00,1189.4,739.7,1044.4,954.3,866.3,781.9,1741.6,1408.5,3469.8,3474.6,1005.6,817.7,1711.0,3469.8,1125.2,1101.7,3474.6,3475.9,1595.5,1956.8,2924.6,3486.8,1729.1,3486.8,3471.0,3479.5,615.7,781.9,1555.3,922.0,840.3,858.7,-2.0,10.0,17.0,6248.0,-10162.0,9407.0,-6135.0,-35.0,-7.0,-10.0,-12.0,6.0,0.0,7143.0,-14638.0,1669.0,-608.0,-38.0,-6.0,9.0,1.0
2022-05-23 14:32:15.338421-07:00,1189.4,739.7,1043.5,961.1,866.3,781.9,1711.0,1391.2,3469.8,3474.6,1009.9,811.0,1711.0,3469.8,1124.4,1098.2,3469.8,3478.3,1595.5,1956.8,2886.3,3499.0,1729.1,3486.8,3474.6,3474.6,615.7,781.9,1559.0,925.4,840.3,858.7,0.0,13.0,-1.0,6239.0,-10174.0,9400.0,-6135.0,-10.0,-20.0,-32.0,-14.0,15.0,-12.0,7129.0,-14645.0,1670.0,-605.0,-41.0,-9.0,-11.0,1.0
2022-05-23 14:32:15.458721-07:00,1178.8,738.1,1046.1,961.1,866.3,781.1,1711.0,1391.2,3463.7,3464.9,1011.6,811.0,1700.5,3467.4,1124.4,1098.2,3469.8,3478.3,1596.4,1956.8,2886.3,3491.7,1737.8,3488.0,3474.6,3474.6,620.5,781.9,1559.0,908.4,840.3,856.2,10.0,0.0,9.0,6229.0,-10187.0,9397.0,-6128.0,-28.0,-8.0,-33.0,-4.0,8.0,-8.0,7107.0,-14656.0,1660.0,-598.0,-41.0,-23.0,-23.0,1.0
2022-05-23 14:32:15.459717-07:00,1178.8,738.1,1046.1,945.8,866.3,786.1,1734.9,1412.2,3463.7,3464.9,1011.6,814.4,1700.5,3469.8,1124.4,1093.8,3472.2,3483.2,1593.6,1956.8,2886.3,3491.7,1737.8,3488.0,3467.4,3468.6,619.7,781.9,1557.1,908.4,840.3,856.2,10.0,-5.0,13.0,6222.0,-10196.0,9393.0,-6127.0,-12.0,-21.0,-2.0,6.0,2.0,-3.0,7100.0,-14662.0,1649.0,-591.0,-12.0,-20.0,-10.0,1.0
2022-05-23 14:32:15.460566-07:00,1165.6,743.0,1047.8,945.8,862.9,786.1,1734.9,1412.2,3463.7,3467.4,1007.3,814.4,1702.4,3469.8,1124.4,1093.8,3472.2,3483.2,1593.6,1952.9,2886.3,3483.2,1720.5,3491.7,3467.4,3468.6,619.7,773.6,1557.1,919.4,847.0,858.7,12.0,6.0,22.0,6229.0,-10205.0,9384.0,-6118.0,-8.0,-43.0,-15.0,5.0,4.0,-4.0,7098.0,-14663.0,1646.0,-585.0,-2.0,-11.0,-7.0,1.0
2022-05-23 14:32:15.518501-07:00,1165.6,743.0,1047.8,952.6,862.9,780.3,1721.5,1393.9,3463.7,3467.4,1007.3,810.2,1702.4,3467.4,1127.0,1102.5,3467.4,3475.9,1588.9,1952.9,2894.1,3483.2,1720.5,3491.7,3467.4,3469.8,622.2,773.6,1554.3,919.4,847.0,858.7,8.0,-6.0,19.0,6235.0,-10213.0,9366.0,-6127.0,29.0,-11.0,-37.0,-1.0,-2.0,0.0,7100.0,-14662.0,1645.0,-586.0,20.0,-2.0,4.0,1.0
2022-05-23 14:32:15.579182-07:00,1170.0,729.9,1046.1,952.6,861.2,780.3,1721.5,1393.9,3472.2,3463.7,1010.8,810.2,1707.2,3467.4,1127.0,1102.5,3467.4,3475.9,1588.9,1958.8,2894.1,3488.0,1715.8,3490.5,3467.4,3469.8,622.2,771.1,1554.3,920.3,836.9,862.1,3.0,-4.0,12.0,6240.0,-10210.0,9357.0,-6140.0,-4.0,21.0,4.0,-4.0,5.0,-7.0,7108.0,-14658.0,1647.0,-585.0,5.0,-2.0,12.0,1.0
2022-05-23 14:32:15.668455-07:00,1170.0,729.9,1046.1,945.8,872.1,784.4,1728.2,1378.5,3472.2,3463.7,1010.8,815.2,1703.3,3461.3,1128.7,1099.0,3464.9,3474.6,1603.0,1945.9,2881.8,3488.0,1715.8,3490.5,3473.4,3474.6,614.1,772.0,1549.7,920.3,836.9,862.1,0.0,0.0,14.0,6244.0,-10204.0,9364.0,-6136.0,4.0,-17.0,36.0,0.0,6.0,-2.0,7109.0,-14656.0,1657.0,-581.0,18.0,-4.0,29.0,1.0
2022-05-23 14:32:15.669692-07:00,1168.2,729.9,1042.6,950.9,872.1,784.4,1728.2,1378.5,3467.4,3473.4,1010.8,816.9,1703.3,3461.3,1128.7,1099.0,3464.9,3474.6,1603.0,1945.9,2882.9,3494.1,1715.8,3490.5,3473.4,3474.6,614.1,772.0,1544.1,923.7,844.4,851.1,12.0,27.0,7.0,6253.0,-10201.0,9359.0,-6138.0,14.0,-10.0,-23.0,0.0,17.0,-5.0,7118.0,-14652.0,1662.0,-580.0,4.0,8.0,-5.0,1.0
2022-05-23 14:32:15.729118-07:00,1168.2,729.9,1042.6,950.9,868.8,782.7,1731.1,1393.0,3467.4,3473.4,1010.8,816.9,1692.9,3467.4,1133.1,1098.2,3478.3,3478.3,1588.9,1947.9,2882.9,3494.1,1715.8,3490.5,3489.2,3477.1,615.7,776.1,1544.1,923.7,844.4,851.1,-6.0,-14.0,8.0,6247.0,-10218.0,9350.0,-6129.0,-26.0,-41.0,-15.0,-8.0,-4.0,-2.0,7107.0,-14658.0,1657.0,-580.0,-20.0,-12.0,-12.0,1.0
2022-05-23 14:32:15.758589-07:00,1167.4,743.9,1032.3,941.5,868.8,782.7,1731.1,1393.0,3475.9,3468.6,1011.6,816.0,1692.9,3467.4,1133.1,1098.2,3478.3,3478.3,1588.9,1947.9,2870.5,3486.8,1711.9,3490.5,3489.2,3477.1,615.7,776.1,1556.2,934.7,841.1,857.9,6.0,1.0,26.0,6261.0,-10220.0,9347.0,-6117.0,0.0,-23.0,20.0,-4.0,3.0,-2.0,7110.0,-14656.0,1656.0,-580.0,13.0,5.0,-5.0,1.0
2022-05-23 14:32:15.818944-07:00,1167.4,743.9,1032.3,941.5,863.7,773.6,1727.2,1404.9,3475.9,3468.6,1011.6,816.0,1702.4,3463.7,1131.4,1101.7,3477.1,3474.6,1589.9,1948.9,2870.5,3486.8,1711.9,3490.5,3475.9,3473.4,614.9,777.8,1556.2,934.7,841.1,857.9,6.0,-2.0,11.0,6262.0,-10213.0,9346.0,-6129.0,24.0,26.0,-5.0,0.0,3.0,-3.0,7115.0,-14654.0,1656.0,-581.0,10.0,4.0,0.0,1.0
2022-05-23 14:32:15.908524-07:00,1155.0,736.5,1044.4,949.2,863.7,773.6,1727.2,1404.9,3469.8,3472.2,1007.3,811.9,1702.4,3463.7,1131.4,1101.7,3477.1,3474.6,1589.9,1948.9,2876.1,3490.5,1709.1,3491.7,3475.9,3473.4,614.9,777.8,1559.9,914.4,841.1,861.2,12.0,4.0,15.0,6270.0,-10203.0,9340.0,-6147.0,79.0,27.0,-4.0,0.0,8.0,-8.0,7127.0,-14648.0,1657.0,-585.0,61.0,12.0,-4.0,1.0
2022-05-23 14:32:15.909473-07:00,1170.0,736.5,1044.4,949.2,870.5,785.2,1706.2,1394.8,3468.6,3472.2,1007.3,811.9,1702.4,3478.3,1124.4,1099.9,3475.9,3473.4,1602.1,1956.8,2876.1,3490.5,1709.1,3494.1,3478.3,3467.4,623.8,778.6,1559.9,914.4,841.1,854.5,-4.0,1.0,3.0,6278.0,-10180.0,9333.0,-6188.0,65.0,57.0,0.0,-2.0,1.0,0.0,7150.0,-14637.0,1653.0,-589.0,52.0,-1.0,-8.0,1.0
2022-05-23 14:32:15.968991-07:00,1170.0,745.5,1037.5,942.4,870.5,785.2,1706.2,1397.6,3468.6,3472.2,1015.9,815.2,1702.4,3478.3,1124.4,1092.1,3474.6,3473.4,1602.1,1956.8,2875.0,3500.2,1711.9,3494.1,3475.9,3467.4,623.8,778.6,1553.4,915.2,848.6,854.5,5.0,-8.0,20.0,6280.0,-10174.0,9342.0,-6181.0,-28.0,-13.0,47.0,-1.0,0.0,0.0,7154.0,-14635.0,1654.0,-589.0,-15.0,-2.0,18.0,1.0
2022-05-23 14:32:16.058773-07:00,1164.7,745.5,1037.5,942.4,861.2,783.6,1718.6,1397.6,3471.0,3472.2,1015.9,815.2,1700.5,3471.0,1120.0,1092.1,3474.6,3475.9,1596.4,1944.0,2875.0,3500.2,1711.9,3489.2,3475.9,3480.7,618.9,794.4,1553.4,915.2,848.6,858.7,2.0,8.0,12.0,6283.0,-10162.0,9352.0,-6183.0,-4.0,27.0,17.0,1.0,3.0,0.0,7153.0,-14634.0,1663.0,-585.0,-7.0,10.0,21.0,1.0
2022-05-23 14:32:16.059801-07:00,1164.7,746.3,1031.4,942.4,861.2,783.6,1718.6,1396.7,3471.0,3471.0,1013.3,814.4,1700.5,3471.0,1120.0,1097.3,3478.3,3475.9,1596.4,1944.0,2871.7,3494.1,1711.9,3489.2,3478.3,3480.7,618.9,794.4,1541.3,920.3,842.8,858.7,3.0,5.0,6.0,6274.0,-10166.0,9358.0,-6177.0,-41.0,8.0,3.0,-1.0,3.0,-3.0,7144.0,-14638.0,1673.0,-584.0,-41.0,4.0,15.0,1.0
2022-05-23 14:32:16.149101-07:00,1174.4,746.3,1031.4,942.4,865.4,781.1,1718.6,1396.7,3462.5,3471.0,1013.3,814.4,1695.7,3468.6,1124.4,1097.3,3478.3,3478.3,1588.9,1950.9,2871.7,3494.1,1711.9,3495.3,3478.3,3479.5,618.9,776.1,1541.3,920.3,842.8,859.5,0.0,4.0,7.0,6270.0,-10161.0,9360.0,-6185.0,17.0,16.0,2.0,0.0,3.0,0.0,7137.0,-14640.0,1679.0,-581.0,3.0,9.0,16.0,1.0
2022-05-23 14:32:16.178383-07:00,1174.4,748.8,1035.7,945.8,865.4,781.1,1701.4,1389.4,3462.5,3466.1,1011.6,815.2,1695.7,3468.6,1118.2,1095.6,3479.5,3467.4,1588.9,1950.9,2873.9,3492.9,1706.2,3495.3,3477.1,3467.4,618.9,776.1,1545.0,913.5,847.8,859.5,1.0,-2.0,5.0,6261.0,-10161.0,9369.0,-6183.0,-27.0,21.0,10.0,-4.0,0.0,-4.0,7130.0,-14643.0,1685.0,-577.0,-23.0,0.0,16.0,1.0
2022-05-23 14:32:16.209244-07:00,1163.8,734.0,1035.7,945.8,869.6,776.1,1701.4,1389.4,3471.0,3478.3,1011.6,815.2,1702.4,3466.1,1118.2,1095.6,3479.5,3467.4,1590.8,1964.7,2873.9,3492.9,1704.3,3497.8,3477.1,3467.4,618.1,776.9,1545.0,913.5,837.7,860.4,2.0,6.0,-4.0,6259.0,-10162.0,9372.0,-6177.0,-10.0,-25.0,11.0,0.0,8.0,-7.0,7126.0,-14645.0,1691.0,-571.0,-6.0,-19.0,11.0,1.0
2022-05-23 14:32:16.299148-07:00,1163.8,734.0,1037.5,942.4,869.6,776.1,1713.8,1389.4,3471.0,3478.3,1006.5,820.2,1702.4,3466.1,1127.0,1097.3,3472.2,3478.3,1590.8,1964.7,2869.4,3495.3,1704.3,3497.8,3468.6,3477.1,618.1,776.9,1550.6,927.1,837.7,860.4,1.0,7.0,8.0,6263.0,-10167.0,9370.0,-6169.0,-3.0,-21.0,-5.0,0.0,3.0,-1.0,7125.0,-14646.0,1687.0,-559.0,-2.0,-34.0,-1.0,1.0
2022-05-23 14:32:16.388379-07:00,1155.0,747.2,1037.5,942.4,868.8,777.8,1713.8,1389.4,3468.6,3473.4,1006.5,820.2,1705.3,3479.5,1127.0,1097.3,3472.2,3478.3,1597.4,1950.9,2869.4,3495.3,1707.2,3484.4,3468.6,3477.1,618.1,773.6,1550.6,927.1,846.1,855.3,6.0,5.0,14.0,6271.0,-10170.0,9364.0,-6163.0,25.0,-43.0,-4.0,2.0,4.0,3.0,7128.0,-14646.0,1680.0,-547.0,18.0,-26.0,-11.0,1.0
2022-05-23 14:32:16.389554-07:00,1155.0,747.2,1030.6,941.5,868.8,777.8,1726.3,1378.5,3468.6,3473.4,1007.3,812.7,1705.3,3479.5,1125.2,1085.1,3464.9,3475.9,1597.4,1950.9,2854.8,3486.8,1707.2,3484.4,3469.8,3480.7,618.1,773.6,1554.3,916.0,846.1,855.3,0.0,2.0,16.0,6280.0,-10177.0,9351.0,-6163.0,-4.0,-9.0,-27.0,-1.0,0.0,3.0,7130.0,-14646.0,1670.0,-541.0,-14.0,-13.0,-20.0,1.0
2022-05-23 14:32:16.448584-07:00,1152.4,740.6,1030.6,941.5,860.4,775.3,1726.3,1378.5,3472.2,3468.6,1007.3,812.7,1703.3,3468.6,1125.2,1085.1,3464.9,3475.9,1585.2,1943.0,2854.8,3486.8,1710.0,3485.6,3469.8,3480.7,617.3,767.8,1554.3,916.0,844.4,865.4,0.0,-7.0,15.0,6278.0,-10178.0,9348.0,-6168.0,9.0,25.0,-6.0,1.0,-3.0,2.0,7128.0,-14648.0,1664.0,-541.0,3.0,5.0,-3.0,1.0
2022-05-23 14:32:16.538509-07:00,1152.4,740.6,1036.6,935.6,860.4,786.1,1703.3,1385.7,3472.2,3468.6,1007.3,816.9,1703.3,3462.5,1123.5,1092.9,3475.9,3477.1,1582.4,1943.0,2864.9,3491.7,1710.0,3485.6,3477.1,3483.2,617.3,767.8,1559.9,913.5,844.4,865.4,8.0,8.0,3.0,6272.0,-10171.0,9352.0,-6178.0,6.0,55.0,9.0,6.0,3.0,-3.0,7130.0,-14647.0,1666.0,-545.0,6.0,14.0,6.0,1.0
2022-05-23 14:32:16.540143-07:00,1148.0,729.9,1021.1,935.6,865.4,786.1,1703.3,1385.7,3469.8,3466.1,1007.3,816.9,1698.6,3462.5,1123.5,1092.9,3475.9,3477.1,1582.4,1952.9,2864.9,3492.9,1700.5,3477.1,3477.1,3483.2,617.3,766.2,1559.9,922.0,843.6,857.9,6.0,11.0,2.0,6266.0,-10166.0,9355.0,-6189.0,39.0,30.0,-19.0,9.0,4.0,3.0,7133.0,-14645.0,1669.0,-548.0,35.0,13.0,14.0,1.0
2022-05-23 14:32:16.598508-07:00,1148.0,729.9,1021.1,950.0,865.4,782.7,1697.6,1385.7,3469.8,3466.1,1007.3,815.2,1698.6,3478.3,1118.2,1093.8,3477.1,3464.9,1597.4,1952.9,2877.3,3492.9,1700.5,3477.1,3472.2,3468.6,619.7,766.2,1552.5,922.0,843.6,857.9,-7.0,12.0,-18.0,6274.0,-10171.0,9332.0,-6208.0,2.0,-31.0,-57.0,-6.0,10.0,-9.0,7142.0,-14640.0,1671.0,-549.0,-9.0,-1.0,-5.0,1.0
2022-05-23 14:32:16.628470-07:00,1157.7,740.6,1014.2,950.0,868.8,782.7,1697.6,1385.7,3464.9,3467.4,1010.8,815.2,1700.5,3478.3,1118.2,1093.8,3477.1,3464.9,1597.4,1956.8,2877.3,3497.8,1708.1,3494.1,3472.2,3468.6,619.7,771.1,1552.5,920.3,842.8,853.7,1.0,-5.0,16.0,6274.0,-10185.0,9322.0,-6199.0,18.0,-1.0,13.0,-2.0,1.0,-2.0,7140.0,-14641.0,1669.0,-546.0,24.0,-16.0,1.0,1.0
2022-05-23 14:32:16.658579-07:00,1157.7,740.6,1014.2,938.1,868.8,779.4,1690.0,1385.7,3464.9,3467.4,1010.8,810.2,1700.5,3468.6,1119.1,1096.4,3478.3,3477.1,1587.1,1956.8,2861.6,3497.8,1708.1,3494.1,3475.9,3485.6,632.7,771.1,1553.4,920.3,842.8,853.7,-12.0,5.0,5.0,6279.0,-10165.0,9324.0,-6224.0,68.0,64.0,4.0,-1.0,-1.0,10.0,7158.0,-14633.0,1669.0,-546.0,42.0,7.0,13.0,1.0
2022-05-23 14:32:16.778470-07:00,1151.5,739.7,1022.8,939.0,870.5,779.4,1690.0,1385.7,3471.0,3475.9,1007.3,813.5,1687.2,3468.6,1119.1,1096.4,3478.3,3477.1,1587.1,1946.9,2860.4,3497.8,1707.2,3489.2,3475.9,3485.6,632.7,761.2,1555.3,920.3,856.2,855.3,4.0,4.0,-1.0,6277.0,-10163.0,9327.0,-6226.0,-73.0,-38.0,-7.0,1.0,9.0,-5.0,7145.0,-14638.0,1674.0,-546.0,-73.0,6.0,7.0,1.0
2022-05-23 14:32:16.779626-07:00,1151.5,739.7,1022.8,939.0,865.4,775.3,1711.0,1371.2,3471.0,3475.9,1007.3,813.5,1687.2,3463.7,1116.5,1094.7,3478.3,3461.3,1584.2,1950.9,2860.4,3497.8,1707.2,3489.2,3478.3,3474.6,620.5,770.3,1555.3,920.3,856.2,855.3,2.0,8.0,4.0,6274.0,-10172.0,9325.0,-6217.0,60.0,-1.0,-19.0,0.0,4.0,-1.0,7143.0,-14640.0,1673.0,-548.0,41.0,-6.0,-11.0,1.0
2022-05-23 14:32:16.838881-07:00,1152.4,744.7,1010.8,932.2,865.4,775.3,1711.0,1371.2,3475.9,3457.6,1004.8,817.7,1687.2,3463.7,1116.5,1094.7,3478.3,3461.3,1584.2,1950.9,2870.5,3500.2,1705.3,3497.8,3478.3,3474.6,620.5,770.3,1553.4,899.1,836.9,855.3,-2.0,-3.0,3.0,6283.0,-10179.0,9309.0,-6220.0,-48.0,-63.0,-26.0,-2.0,1.0,-2.0,7143.0,-14640.0,1665.0,-548.0,-38.0,-15.0,-18.0,1.0
2022-05-23 14:32:16.868530-07:00,1152.4,744.7,1010.8,932.2,859.5,792.7,1703.3,1368.5,3475.9,3457.6,1004.8,817.7,1685.3,3471.0,1119.1,1092.1,3477.1,3473.4,1588.0,1953.9,2870.5,3500.2,1705.3,3497.8,3478.3,3468.6,625.4,768.7,1553.4,899.1,836.9,855.3,15.0,5.0,23.0,6292.0,-10195.0,9296.0,-6205.0,67.0,-15.0,-10.0,4.0,4.0,0.0,7146.0,-14640.0,1660.0,-544.0,51.0,-11.0,-5.0,1.0
2022-05-23 14:32:16.928671-07:00,1164.7,738.9,1009.9,937.3,859.5,792.7,1703.3,1368.5,3457.6,3464.9,1004.8,809.4,1685.3,3471.0,1119.1,1092.1,3477.1,3473.4,1588.0,1953.9,2864.9,3486.8,1697.6,3486.8,3478.3,3468.6,625.4,768.7,1555.3,915.2,837.7,858.7,-2.0,-3.0,12.0,6298.0,-10193.0,9283.0,-6220.0,-32.0,-3.0,-19.0,0.0,0.0,3.0,7149.0,-14638.0,1659.0,-544.0,-36.0,-2.0,-7.0,1.0
2022-05-23 14:32:16.958495-07:00,1157.7,738.9,1009.9,937.3,873.0,786.1,1708.1,1373.0,3457.6,3464.9,1004.8,809.4,1681.4,3472.2,1117.4,1090.3,3469.8,3478.3,1594.6,1951.9,2864.9,3486.8,1697.6,3483.2,3478.3,3472.2,622.2,770.3,1555.3,915.2,837.7,853.7,9.0,0.0,17.0,6295.0,-10199.0,9285.0,-6213.0,-2.0,10.0,15.0,3.0,7.0,-3.0,7140.0,-14643.0,1662.0,-542.0,-5.0,4.0,12.0,1.0
2022-05-23 14:32:17.019083-07:00,1157.7,754.6,1021.9,938.1,873.0,786.1,1708.1,1374.8,3457.6,3478.3,1003.9,813.5,1681.4,3472.2,1117.4,1095.6,3468.6,3478.3,1594.6,1951.9,2863.8,3492.9,1701.4,3483.2,3467.4,3472.2,622.2,770.3,1543.1,915.2,837.7,853.7,-2.0,14.0,3.0,6292.0,-10188.0,9290.0,-6225.0,13.0,39.0,-9.0,-1.0,6.0,2.0,7144.0,-14640.0,1664.0,-544.0,11.0,17.0,1.0,1.0
2022-05-23 14:32:17.078473-07:00,1161.2,754.6,1021.9,938.1,862.1,777.8,1694.8,1374.8,3477.1,3478.3,1003.9,813.5,1675.7,3466.1,1121.7,1095.6,3468.6,3478.3,1585.2,1944.0,2863.8,3492.9,1701.4,3488.0,3467.4,3477.1,626.2,758.7,1543.1,915.2,837.7,857.9,-3.0,0.0,3.0,6287.0,-10190.0,9287.0,-6231.0,-19.0,5.0,-21.0,-7.0,4.0,-4.0,7137.0,-14643.0,1667.0,-547.0,-28.0,5.0,-9.0,1.0
2022-05-23 14:32:17.108469-07:00,1161.2,740.6,1013.3,944.1,862.1,777.8,1694.8,1370.3,3477.1,3468.6,1004.8,813.5,1675.7,3466.1,1121.7,1097.3,3479.5,3478.3,1585.2,1944.0,2860.4,3499.0,1694.8,3488.0,3479.5,3477.1,626.2,758.7,1548.7,912.7,836.1,857.9,2.0,3.0,0.0,6284.0,-10194.0,9284.0,-6232.0,17.0,1.0,2.0,1.0,4.0,-2.0,7142.0,-14641.0,1667.0,-548.0,35.0,1.0,-4.0,1.0
2022-05-23 14:32:17.259355-07:00,1157.7,740.6,1013.3,944.1,865.4,792.7,1709.1,1370.3,3469.8,3468.6,1004.8,813.5,1675.7,3472.2,1113.9,1097.3,3479.5,3478.3,1593.6,1942.0,2860.4,3499.0,1694.8,3495.3,3479.5,3488.0,623.0,773.6,1548.7,912.7,836.1,852.8,12.0,5.0,9.0,6286.0,-10193.0,9282.0,-6233.0,-2.0,-5.0,-7.0,5.0,5.0,-2.0,7145.0,-14639.0,1666.0,-546.0,5.0,-12.0,-9.0,1.0
2022-05-23 14:32:17.260750-07:00,1157.7,740.6,1006.5,934.7,865.4,792.7,1709.1,1383.0,3469.8,3469.8,1004.8,816.0,1675.7,3472.2,1113.9,1090.3,3480.7,3478.3,1593.6,1942.0,2870.5,3494.1,1689.1,3495.3,3480.7,3488.0,623.0,773.6,1571.1,917.7,831.1,852.8,0.0,5.0,3.0,6288.0,-10193.0,9277.0,-6239.0,9.0,-4.0,-10.0,4.0,2.0,-1.0,7149.0,-14638.0,1662.0,-545.0,6.0,-4.0,-11.0,1.0
2022-05-23 14:32:17.261420-07:00,1148.9,745.5,1006.5,934.7,867.1,782.7,1713.8,1383.0,3462.5,3474.6,1004.8,816.0,1680.5,3479.5,1118.2,1090.3,3480.7,3481.9,1596.4,1943.0,2870.5,3494.1,1695.7,3489.2,3480.7,3466.1,619.7,767.8,1571.1,917.7,841.1,856.2,2.0,7.0,12.0,6289.0,-10197.0,9276.0,-6234.0,-16.0,-13.0,-16.0,-4.0,1.0,-1.0,7144.0,-14641.0,1656.0,-546.0,-17.0,0.0,-14.0,1.0
2022-05-23 14:32:17.319143-07:00,1148.9,745.5,1019.4,932.2,867.1,782.7,1731.1,1372.1,3462.5,3474.6,1003.0,816.9,1680.5,3479.5,1119.1,1098.2,3467.4,3467.4,1596.4,1943.0,2867.2,3499.0,1695.7,3489.2,3467.4,3467.4,619.7,767.8,1544.1,916.0,841.1,856.2,3.0,0.0,5.0,6283.0,-10202.0,9272.0,-6237.0,12.0,22.0,-15.0,0.0,2.0,-3.0,7143.0,-14642.0,1651.0,-549.0,9.0,4.0,-13.0,1.0
2022-05-23 14:32:17.411319-07:00,1163.8,731.5,1019.4,932.2,858.7,785.2,1731.1,1372.1,3463.7,3468.6,1003.0,816.9,1680.5,3473.4,1119.1,1098.2,3467.4,3467.4,1591.7,1934.1,2867.2,3499.0,1695.7,3488.0,3467.4,3467.4,619.7,762.9,1544.1,916.0,835.2,837.7,-2.0,2.0,2.0,6281.0,-10198.0,9271.0,-6247.0,7.0,12.0,1.0,3.0,1.0,0.0,7144.0,-14641.0,1651.0,-549.0,3.0,-1.0,3.0,1.0
2022-05-23 14:32:17.412268-07:00,1163.8,731.5,1008.2,942.4,858.7,785.2,1710.0,1375.7,3463.7,3468.6,1003.0,808.5,1680.5,3473.4,1117.4,1099.9,3477.1,3469.8,1591.7,1934.1,2858.2,3492.9,1695.7,3488.0,3466.1,3479.5,619.7,762.9,1551.5,908.4,835.2,837.7,8.0,7.0,2.0,6282.0,-10199.0,9270.0,-6247.0,3.0,-5.0,-4.0,1.0,5.0,-4.0,7143.0,-14642.0,1651.0,-549.0,-8.0,-4.0,2.0,1.0
2022-05-23 14:32:17.469095-07:00,1148.0,738.1,1008.2,942.4,860.4,782.7,1710.0,1375.7,3461.3,3474.6,1003.0,808.5,1671.9,3472.2,1117.4,1099.9,3477.1,3469.8,1588.0,1947.9,2858.2,3492.9,1689.1,3492.9,3466.1,3479.5,619.7,765.3,1551.5,908.4,829.4,846.1,1.0,5.0,4.0,6285.0,-10196.0,9267.0,-6253.0,23.0,17.0,-6.0,3.0,4.0,1.0,7148.0,-14639.0,1651.0,-549.0,20.0,-8.0,-8.0,1.0
2022-05-23 14:32:17.498605-07:00,1148.0,738.1,1018.5,937.3,860.4,782.7,1703.3,1362.1,3461.3,3474.6,1001.3,815.2,1671.9,3472.2,1111.2,1091.2,3479.5,3483.2,1592.7,1947.9,2855.9,3489.2,1689.1,3492.9,3466.1,3488.0,618.1,765.3,1556.2,914.4,829.4,846.1,4.0,4.0,10.0,6286.0,-10193.0,9267.0,-6257.0,13.0,-1.0,-9.0,0.0,2.0,1.0,7152.0,-14638.0,1650.0,-550.0,11.0,2.0,-2.0,1.0
2022-05-23 14:32:17.649446-07:00,1156.8,736.5,1011.6,937.3,868.8,782.7,1703.3,1362.1,3473.4,3469.8,1002.2,815.2,1682.4,3472.2,1111.2,1091.2,3479.5,3483.2,1592.7,1954.8,2855.9,3495.3,1697.6,3486.8,3466.1,3488.0,618.1,767.0,1556.2,911.8,838.6,863.7,0.0,5.0,0.0,6288.0,-10190.0,9264.0,-6265.0,16.0,12.0,-14.0,0.0,2.0,2.0,7152.0,-14638.0,1650.0,-550.0,7.0,2.0,-3.0,1.0
2022-05-23 14:32:17.650226-07:00,1156.8,736.5,1011.6,943.2,868.8,777.8,1709.1,1363.0,3473.4,3469.8,1002.2,815.2,1682.4,3467.4,1113.9,1098.2,3467.4,3468.6,1587.1,1954.8,2859.3,3495.3,1697.6,3486.8,3475.9,3472.2,611.7,767.0,1543.1,911.8,838.6,863.7,0.0,0.0,2.0,6286.0,-10191.0,9263.0,-6266.0,-10.0,-7.0,12.0,4.0,3.0,2.0,7147.0,-14640.0,1651.0,-549.0,-15.0,1.0,-3.0,1.0
2022-05-23 14:32:17.651203-07:00,1145.4,730.7,1014.2,943.2,862.1,777.8,1709.1,1363.0,3468.6,3473.4,1003.0,815.2,1678.6,3467.4,1113.9,1098.2,3467.4,3468.6,1587.1,1945.9,2859.3,3490.5,1687.2,3486.8,3475.9,3472.2,611.7,763.7,1543.1,914.4,837.7,852.0,0.0,3.0,1.0,6290.0,-10191.0,9267.0,-6256.0,-27.0,-27.0,23.0,0.0,1.0,-2.0,7141.0,-14643.0,1651.0,-549.0,-24.0,-8.0,2.0,1.0
2022-05-23 14:32:17.709949-07:00,1145.4,730.7,1014.2,928.8,862.1,775.3,1711.0,1373.9,3468.6,3473.4,1003.0,814.4,1678.6,3484.4,1118.2,1098.2,3481.9,3478.3,1596.4,1945.9,2859.3,3490.5,1687.2,3486.8,3478.3,3472.2,618.9,763.7,1548.7,914.4,837.7,852.0,9.0,11.0,16.0,6295.0,-10193.0,9272.0,-6241.0,8.0,-5.0,4.0,2.0,7.0,-2.0,7134.0,-14646.0,1651.0,-547.0,-1.0,-3.0,-7.0,1.0
2022-05-23 14:32:17.798454-07:00,1139.2,734.8,1011.6,928.8,862.9,775.3,1711.0,1373.9,3478.3,3468.6,1003.0,814.4,1677.6,3484.4,1118.2,1098.2,3481.9,3478.3,1596.4,1949.9,2859.3,3492.9,1689.1,3495.3,3478.3,3472.2,618.9,764.5,1548.7,908.4,833.6,857.0,-5.0,-4.0,5.0,6292.0,-10195.0,9268.0,-6247.0,-19.0,15.0,-22.0,-6.0,-4.0,3.0,7134.0,-14646.0,1647.0,-551.0,-26.0,8.0,-14.0,1.0
2022-05-23 14:32:17.799521-07:00,1139.2,734.8,1011.6,935.6,864.6,788.6,1699.5,1365.7,3478.3,3468.6,1003.0,804.4,1677.6,3467.4,1111.2,1091.2,3478.3,3478.3,1586.1,1953.9,2848.1,3492.9,1689.1,3495.3,3473.4,3480.7,618.9,769.5,1539.4,908.4,833.6,857.0,3.0,2.0,0.0,6291.0,-10194.0,9265.0,-6255.0,39.0,9.0,3.0,0.0,1.0,0.0,7133.0,-14647.0,1646.0,-551.0,32.0,5.0,6.0,1.0
2022-05-23 14:32:17.889148-07:00,1156.8,731.5,1019.4,930.5,864.6,788.6,1699.5,1365.7,3467.4,3475.9,1003.0,813.5,1677.6,3467.4,1111.2,1091.2,3478.3,3478.3,1586.1,1953.9,2858.2,3486.8,1695.7,3486.8,3473.4,3480.7,618.9,769.5,1556.2,911.8,834.4,847.0,18.0,8.0,3.0,6295.0,-10190.0,9262.0,-6259.0,7.0,15.0,-3.0,13.0,4.0,-4.0,7139.0,-14644.0,1647.0,-552.0,2.0,-1.0,4.0,1.0
2022-05-23 14:32:17.948534-07:00,1156.8,731.5,1019.4,930.5,860.4,777.8,1709.1,1375.7,3467.4,3475.9,1003.0,813.5,1673.8,3475.9,1120.9,1101.7,3472.2,3468.6,1588.9,1944.0,2858.2,3486.8,1695.7,3486.8,3474.6,3488.0,615.7,764.5,1556.2,911.8,834.4,847.0,6.0,2.0,7.0,6295.0,-10182.0,9262.0,-6273.0,30.0,25.0,-7.0,6.0,1.0,0.0,7146.0,-14641.0,1648.0,-552.0,26.0,2.0,15.0,1.0
2022-05-23 14:32:17.949553-07:00,1150.6,747.2,1015.1,932.2,860.4,777.8,1709.1,1375.7,3474.6,3469.8,1004.8,812.7,1673.8,3475.9,1120.9,1101.7,3472.2,3468.6,1588.9,1944.0,2851.5,3492.9,1691.0,3494.1,3474.6,3488.0,615.7,764.5,1557.1,913.5,841.1,850.3,22.0,-13.0,19.0,6293.0,-10173.0,9269.0,-6280.0,-68.0,123.0,112.0,-6.0,20.0,-16.0,7151.0,-14638.0,1655.0,-549.0,-9.0,1.0,16.0,1.0
2022-05-23 14:32:18.038506-07:00,1150.6,747.2,1015.1,932.2,857.0,785.2,1711.0,1369.4,3474.6,3469.8,1004.8,812.7,1674.8,3478.3,1111.2,1094.7,3473.4,3477.1,1591.7,1941.0,2851.5,3492.9,1691.0,3494.1,3474.6,3475.9,621.4,768.7,1557.1,913.5,841.1,850.3,136.0,-217.0,206.0,6144.0,-9857.0,9645.0,-6364.0,190.0,2308.0,1780.0,-23.0,-25.0,-13.0,7218.0,-14608.0,1637.0,-524.0,655.0,-160.0,96.0,1.0
2022-05-23 14:32:18.068461-07:00,1154.2,734.8,1012.5,933.0,857.0,785.2,1711.0,1373.9,3469.8,3474.6,997.0,813.5,1674.8,3478.3,1111.2,1111.2,3480.7,3477.1,1591.7,1941.0,2878.4,3497.8,1691.9,3490.5,3467.4,3475.9,621.4,768.7,1551.5,915.2,833.6,847.8,341.0,-44.0,332.0,5790.0,-8691.0,10475.0,-7045.0,1249.0,4788.0,1951.0,-10.0,29.0,26.0,7598.0,-14409.0,1685.0,-499.0,1263.0,79.0,310.0,1.0
2022-05-23 14:32:18.098750-07:00,1231.0,734.8,1012.5,933.0,874.7,786.1,1714.8,1373.9,3473.4,3474.6,997.0,813.5,1672.9,3467.4,1115.6,1111.2,3480.7,3474.6,1717.7,2013.4,2878.4,3497.8,1691.9,3492.9,3467.4,3477.1,614.9,762.9,1551.5,915.2,833.6,851.1,-293.0,23.0,-88.0,4842.0,-6964.0,11525.0,-7979.0,-756.0,4313.0,2130.0,72.0,-170.0,274.0,7933.0,-14199.0,1908.0,-512.0,-93.0,555.0,934.0,1.0
2022-05-23 14:32:18.188425-07:00,1231.0,736.5,1015.1,936.4,874.7,786.1,1714.8,1362.1,3473.4,3469.8,1004.8,810.2,1672.9,3467.4,1115.6,1090.3,3467.4,3474.6,1717.7,2013.4,3018.0,3490.5,1705.3,3492.9,3474.6,3477.1,614.9,762.9,1559.9,915.2,831.1,851.1,241.0,54.0,-96.0,4132.0,-5754.0,12322.0,-8151.0,80.0,2608.0,1571.0,1.0,61.0,-72.0,7850.0,-14158.0,2463.0,-543.0,34.0,750.0,1094.0,1.0
2022-05-23 14:32:18.218582-07:00,1327.8,736.5,1015.1,936.4,857.9,792.7,1702.4,1362.1,3467.4,3469.8,1004.8,810.2,1662.5,3473.4,1121.7,1090.3,3467.4,3475.9,1844.0,2090.6,3018.0,3490.5,1705.3,3494.1,3474.6,3479.5,615.7,781.9,1559.9,915.2,831.1,848.6,96.0,140.0,-314.0,3775.0,-4866.0,12685.0,-8344.0,158.0,809.0,814.0,-14.0,96.0,-123.0,7893.0,-14058.0,2856.0,-594.0,194.0,363.0,542.0,1.0
2022-05-23 14:32:18.248409-07:00,1327.8,770.3,1003.0,940.7,857.9,792.7,1702.4,1371.2,3467.4,3478.3,1007.3,814.4,1662.5,3473.4,1121.7,1090.3,3472.2,3475.9,1844.0,2090.6,3066.2,3500.2,1803.2,3494.1,3478.3,3479.5,615.7,781.9,1548.7,914.4,831.9,848.6,214.0,105.0,-89.0,3774.0,-4511.0,12748.0,-8447.0,209.0,521.0,473.0,-8.0,104.0,-123.0,7992.0,-13978.0,2967.0,-611.0,331.0,-14.0,68.0,1.0
2022-05-23 14:32:18.369275-07:00,1408.5,791.0,1003.0,940.7,867.9,794.4,1730.1,1371.2,3472.2,3473.4,1007.3,814.4,1668.2,3472.2,1114.7,1090.3,3472.2,3467.4,1857.6,2106.8,3066.2,3500.2,1894.8,3488.0,3478.3,3478.3,617.3,801.0,1548.7,914.4,831.1,853.7,-4.0,27.0,-46.0,3740.0,-4279.0,12815.0,-8481.0,-60.0,25.0,232.0,5.0,-4.0,-10.0,8064.0,-13945.0,2928.0,-601.0,122.0,-115.0,-74.0,1.0
2022-05-23 14:32:18.370291-07:00,1408.5,791.0,1012.5,931.3,867.9,794.4,1741.6,1393.9,3472.2,3473.4,1010.8,811.0,1668.2,3472.2,1111.2,1098.2,3488.0,3478.3,1857.6,2106.8,3059.3,3492.9,1894.8,3488.0,3466.1,3475.9,617.3,801.0,1545.9,912.7,831.1,853.7,6.0,-65.0,28.0,3805.0,-4246.0,12853.0,-8410.0,-1.0,-216.0,238.0,8.0,-37.0,23.0,8134.0,-13915.0,2879.0,-592.0,249.0,-93.0,-46.0,1.0
2022-05-23 14:32:18.398964-07:00,1412.2,806.9,1012.5,931.3,862.9,799.4,1741.6,1393.9,3467.4,3474.6,1010.8,811.0,1671.0,3469.8,1111.2,1098.2,3488.0,3478.3,1864.5,2103.7,3059.3,3492.9,1894.8,3491.7,3466.1,3475.9,617.3,796.0,1545.9,912.7,828.5,858.7,-19.0,-28.0,66.0,3958.0,-4148.0,12846.0,-8399.0,252.0,-63.0,540.0,11.0,-21.0,59.0,8311.0,-13817.0,2847.0,-590.0,580.0,-92.0,12.0,1.0
2022-05-23 14:32:18.459175-07:00,1412.2,806.9,997.9,931.3,862.9,799.4,1743.5,1390.3,3467.4,3474.6,1003.9,816.0,1671.0,3469.8,1119.1,1105.1,3466.1,3478.3,1864.5,2103.7,3052.4,3491.7,1894.8,3491.7,3478.3,3471.0,617.3,796.0,1548.7,910.1,828.5,858.7,-5.0,69.0,76.0,4111.0,-3947.0,12852.0,-8413.0,141.0,68.0,401.0,9.0,11.0,46.0,8496.0,-13705.0,2839.0,-603.0,344.0,-23.0,34.0,1.0
2022-05-23 14:32:18.519042-07:00,1425.0,793.5,997.9,931.3,857.9,799.4,1743.5,1390.3,3467.4,3478.3,1003.9,816.0,1668.2,3466.1,1119.1,1105.1,3466.1,3478.3,1845.0,2111.8,3052.4,3491.7,1901.6,3481.9,3478.3,3471.0,618.1,797.7,1548.7,910.1,830.2,856.2,17.0,65.0,40.0,4107.0,-3856.0,12880.0,-8415.0,-203.0,188.0,-210.0,11.0,12.0,-3.0,8498.0,-13702.0,2845.0,-611.0,-270.0,57.0,-7.0,1.0
2022-05-23 14:32:18.608602-07:00,1425.0,793.5,997.0,935.6,857.9,799.4,1744.5,1377.5,3467.4,3478.3,1007.3,815.2,1668.2,3466.1,1120.0,1088.6,3478.3,3478.3,1845.0,2111.8,3063.9,3497.8,1901.6,3481.9,3478.3,3478.3,618.1,797.7,1551.5,916.0,830.2,856.2,48.0,47.0,27.0,3892.0,-3990.0,12915.0,-8401.0,-346.0,330.0,-796.0,5.0,11.0,-6.0,8256.0,-13846.0,2865.0,-597.0,-842.0,97.0,-51.0,1.0
2022-05-23 14:32:18.611175-07:00,1408.5,812.7,1002.2,935.6,857.9,808.5,1744.5,1377.5,3467.4,3475.9,1011.6,815.2,1672.9,3471.0,1120.0,1088.6,3478.3,3478.3,1827.5,2099.7,3063.9,3495.3,1900.7,3486.8,3478.3,3478.3,616.5,787.7,1551.5,919.4,831.1,860.4,21.0,-63.0,8.0,3538.0,-4220.0,12934.0,-8415.0,-228.0,456.0,-745.0,3.0,-21.0,9.0,7946.0,-14023.0,2881.0,-591.0,-715.0,124.0,-46.0,1.0
2022-05-23 14:32:18.668693-07:00,1408.5,812.7,1002.2,932.2,857.9,809.4,1730.1,1379.4,3467.4,3475.9,1011.6,814.4,1672.9,3469.8,1122.6,1099.9,3475.9,3472.2,1827.5,2099.7,3051.2,3495.3,1900.7,3486.8,3479.5,3473.4,614.1,787.7,1551.5,919.4,831.1,860.4,25.0,-86.0,-5.0,3265.0,-4338.0,12934.0,-8466.0,23.0,309.0,-245.0,4.0,-14.0,-8.0,7784.0,-14107.0,2908.0,-605.0,-193.0,98.0,22.0,1.0
2022-05-23 14:32:18.698621-07:00,1420.4,813.5,1001.3,932.2,862.9,809.4,1730.1,1379.4,3478.3,3471.0,1015.1,814.4,1669.1,3469.8,1122.6,1099.9,3475.9,3472.2,1827.5,2102.7,3051.2,3497.8,1906.6,3492.9,3479.5,3473.4,614.1,787.7,1551.5,909.3,834.4,857.0,30.0,-48.0,-23.0,3197.0,-4308.0,12932.0,-8510.0,67.0,-9.0,180.0,1.0,-4.0,-24.0,7798.0,-14093.0,2937.0,-621.0,182.0,27.0,60.0,1.0
2022-05-23 14:32:18.758576-07:00,1420.4,813.5,1001.3,928.8,862.9,811.9,1732.0,1376.6,3478.3,3471.0,1015.1,811.9,1669.1,3467.4,1133.1,1101.7,3480.7,3467.4,1819.7,2102.7,3046.6,3497.8,1906.6,3492.9,3474.6,3475.9,614.9,787.7,1549.7,909.3,834.4,857.0,50.0,24.0,10.0,3272.0,-4219.0,12938.0,-8517.0,50.0,2.0,277.0,5.0,23.0,-25.0,7872.0,-14049.0,2950.0,-622.0,211.0,-30.0,40.0,1.0
2022-05-23 14:32:18.818488-07:00,1421.3,811.0,1008.2,928.8,858.7,811.9,1732.0,1376.6,3474.6,3457.6,1003.9,811.9,1669.1,3467.4,1133.1,1101.7,3480.7,3467.4,1819.7,2103.7,3046.6,3490.5,1914.4,3490.5,3474.6,3475.9,614.9,789.4,1549.7,908.4,832.7,860.4,43.0,36.0,25.0,3325.0,-4147.0,12951.0,-8512.0,-25.0,26.0,73.0,6.0,15.0,-6.0,7918.0,-14024.0,2946.0,-619.0,36.0,-27.0,-6.0,1.0
2022-05-23 14:32:18.848733-07:00,1421.3,811.0,1008.2,939.8,862.9,805.2,1735.8,1372.1,3474.6,3457.6,1003.9,811.0,1667.2,3468.6,1133.1,1101.7,3471.0,3473.4,1835.2,2088.6,3050.1,3490.5,1914.4,3490.5,3474.6,3468.6,611.7,793.5,1546.9,908.4,832.7,860.4,19.0,10.0,31.0,3287.0,-4150.0,12973.0,-8492.0,-193.0,89.0,-94.0,13.0,-2.0,6.0,7877.0,-14049.0,2942.0,-614.0,-196.0,5.0,-12.0,1.0
2022-05-23 14:32:18.908526-07:00,1429.5,813.5,1014.2,953.4,862.9,805.2,1735.8,1372.1,3472.2,3471.0,1006.5,815.2,1667.2,3468.6,1133.1,1101.7,3471.0,3473.4,1835.2,2088.6,3047.8,3491.7,1923.3,3492.9,3474.6,3468.6,611.7,793.5,1555.3,911.8,832.7,857.9,-6.0,-7.0,11.0,3194.0,-4178.0,13002.0,-8470.0,-124.0,122.0,-173.0,-1.0,-14.0,21.0,7787.0,-14098.0,2943.0,-609.0,-252.0,48.0,-12.0,1.0
2022-05-23 14:32:18.968535-07:00,1429.5,813.5,1014.2,953.4,859.5,801.9,1743.5,1371.2,3472.2,3471.0,1006.5,815.2,1669.1,3469.8,1140.1,1103.4,3475.9,3462.5,1828.4,2095.7,3047.8,3491.7,1923.3,3492.9,3473.4,3468.6,614.1,798.5,1555.3,911.8,832.7,857.9,23.0,14.0,19.0,3106.0,-4216.0,13016.0,-8461.0,-139.0,143.0,-154.0,4.0,11.0,-10.0,7692.0,-14147.0,2959.0,-613.0,-272.0,68.0,4.0,1.0
2022-05-23 14:32:18.998581-07:00,1434.1,811.0,1016.8,947.5,859.5,801.9,1743.5,1371.2,3469.8,3469.8,1008.2,808.5,1669.1,3469.8,1140.1,1103.4,3475.9,3462.5,1828.4,2095.7,3039.7,3481.9,1943.0,3497.8,3473.4,3468.6,614.1,798.5,1548.7,915.2,834.4,855.3,38.0,-25.0,1.0,3021.0,-4231.0,13045.0,-8441.0,-90.0,50.0,-38.0,7.0,-2.0,-7.0,7620.0,-14181.0,2984.0,-622.0,-110.0,64.0,33.0,1.0
2022-05-23 14:32:19.058833-07:00,1434.1,811.0,1016.8,947.5,863.7,799.4,1744.5,1365.7,3469.8,3469.8,1008.2,808.5,1663.4,3460.1,1137.5,1100.8,3481.9,3480.7,1823.6,2086.6,3039.7,3481.9,1943.0,3497.8,3474.6,3477.1,607.6,781.1,1548.7,915.2,834.4,855.3,45.0,-7.0,0.0,2987.0,-4222.0,13052.0,-8446.0,65.0,57.0,57.0,3.0,6.0,-21.0,7614.0,-14179.0,3005.0,-632.0,54.0,26.0,30.0,1.0
2022-05-23 14:32:19.118484-07:00,1433.2,807.7,1023.7,941.5,863.7,799.4,1744.5,1362.1,3473.4,3467.4,997.0,810.2,1663.4,3460.1,1137.5,1096.4,3471.0,3480.7,1823.6,2086.6,3038.6,3486.8,1930.2,3485.6,3480.7,3477.1,607.6,781.1,1545.0,922.8,824.4,854.5,38.0,2.0,11.0,2975.0,-4196.0,13055.0,-8458.0,3.0,29.0,7.0,5.0,5.0,-10.0,7619.0,-14175.0,3011.0,-635.0,18.0,7.0,6.0,1.0
2022-05-23 14:32:19.208649-07:00,1420.4,807.7,1023.7,941.5,860.4,811.9,1721.5,1362.1,3478.3,3467.4,997.0,810.2,1660.6,3469.8,1127.0,1096.4,3471.0,3474.6,1823.6,2090.6,3038.6,3486.8,1930.2,3489.2,3480.7,3483.2,613.3,781.9,1545.0,922.8,824.4,851.1,24.0,7.0,-2.0,2962.0,-4195.0,13053.0,-8467.0,3.0,-31.0,-23.0,0.0,-1.0,2.0,7622.0,-14172.0,3013.0,-635.0,21.0,8.0,13.0,1.0
2022-05-23 14:32:19.209861-07:00,1420.4,808.5,1008.2,943.2,860.4,811.9,1721.5,1362.1,3478.3,3475.9,1008.2,806.0,1660.6,3469.8,1127.0,1090.3,3478.3,3474.6,1823.6,2090.6,3026.0,3481.9,1930.2,3489.2,3478.3,3483.2,613.3,781.9,1549.7,924.5,836.1,851.1,17.0,1.0,33.0,2929.0,-4238.0,13080.0,-8415.0,-218.0,54.0,-142.0,21.0,2.0,5.0,7562.0,-14204.0,3016.0,-628.0,-205.0,19.0,-11.0,1.0
2022-05-23 14:32:19.268556-07:00,1425.0,808.5,1008.2,943.2,878.9,813.5,1731.1,1362.1,3471.0,3475.9,1008.2,806.0,1662.5,3473.4,1122.6,1090.3,3478.3,3478.3,1825.5,2089.6,3026.0,3481.9,1930.2,3485.6,3478.3,3478.3,620.5,782.7,1549.7,924.5,836.1,852.8,0.0,-14.0,-7.0,2878.0,-4283.0,13098.0,-8382.0,6.0,-50.0,-72.0,-9.0,-5.0,5.0,7523.0,-14224.0,3021.0,-633.0,-24.0,35.0,-2.0,1.0
2022-05-23 14:32:19.298479-07:00,1425.0,811.0,1009.9,934.7,878.9,813.5,1731.1,1345.8,3471.0,3468.6,1001.3,810.2,1662.5,3473.4,1122.6,1098.2,3469.8,3478.3,1825.5,2089.6,3031.7,3492.9,1911.5,3485.6,3474.6,3478.3,620.5,782.7,1542.2,919.4,833.6,852.8,23.0,1.0,-2.0,2888.0,-4286.0,13079.0,-8406.0,99.0,-1.0,37.0,1.0,7.0,-8.0,7541.0,-14213.0,3025.0,-644.0,91.0,17.0,7.0,1.0
2022-05-23 14:32:19.358566-07:00,1414.9,811.0,1009.9,934.7,877.2,808.5,1741.6,1345.8,3481.9,3468.6,1001.3,810.2,1656.8,3474.6,1116.5,1098.2,3469.8,3467.4,1822.6,2060.5,3031.7,3492.9,1911.5,3486.8,3474.6,3473.4,615.7,771.1,1542.2,919.4,833.6,851.1,42.0,5.0,13.0,2900.0,-4283.0,13061.0,-8432.0,19.0,-21.0,11.0,14.0,11.0,-15.0,7558.0,-14204.0,3022.0,-649.0,26.0,-14.0,-16.0,1.0
2022-05-23 14:32:19.478572-07:00,1414.9,811.0,1023.7,931.3,877.2,808.5,1713.8,1357.6,3481.9,3478.3,1000.5,811.9,1656.8,3474.6,1111.2,1094.7,3469.8,3479.5,1822.6,2060.5,3023.7,3492.9,1910.5,3486.8,3474.6,3478.3,615.7,771.1,1545.0,911.0,834.4,851.1,6.0,-11.0,15.0,2898.0,-4281.0,13048.0,-8453.0,66.0,22.0,49.0,3.0,-2.0,5.0,7570.0,-14200.0,3009.0,-651.0,81.0,-20.0,-13.0,1.0
2022-05-23 14:32:19.480300-07:00,1419.5,809.4,1023.7,931.3,871.3,812.7,1713.8,1357.6,3468.6,3468.6,1000.5,811.9,1664.4,3471.0,1111.2,1094.7,3469.8,3479.5,1815.8,2079.5,3023.7,3492.9,1901.6,3492.9,3474.6,3478.3,610.0,777.8,1545.0,911.0,830.2,849.5,9.0,-11.0,17.0,2913.0,-4246.0,13048.0,-8466.0,45.0,15.0,124.0,0.0,-6.0,3.0,7604.0,-14183.0,3004.0,-654.0,107.0,-13.0,8.0,1.0
2022-05-23 14:32:19.508449-07:00,1419.5,809.4,1003.0,937.3,871.3,812.7,1712.9,1346.7,3468.6,3468.6,1007.3,807.7,1664.4,3471.0,1118.2,1090.3,3468.6,3478.3,1815.8,2079.5,3024.8,3499.0,1901.6,3492.9,3474.6,3469.8,610.0,777.8,1551.5,915.2,830.2,849.5,8.0,4.0,8.0,2937.0,-4183.0,13052.0,-8483.0,88.0,45.0,160.0,0.0,5.0,0.0,7650.0,-14158.0,3004.0,-658.0,124.0,-7.0,19.0,1.0
2022-05-23 14:32:19.568532-07:00,1407.6,800.2,1003.0,937.3,867.9,806.9,1712.9,1346.7,3468.6,3468.6,1007.3,807.7,1659.6,3462.5,1118.2,1090.3,3468.6,3478.3,1816.8,2088.6,3024.8,3499.0,1900.7,3490.5,3474.6,3469.8,611.7,779.4,1551.5,915.2,833.6,852.8,21.0,36.0,-3.0,2951.0,-4126.0,13071.0,-8477.0,-169.0,30.0,67.0,6.0,14.0,-9.0,7672.0,-14145.0,3010.0,-659.0,-80.0,-1.0,8.0,1.0
2022-05-23 14:32:19.628640-07:00,1407.6,800.2,1013.3,935.6,867.9,806.9,1732.0,1331.4,3468.6,3468.6,1004.8,813.5,1659.6,3462.5,1125.2,1087.7,3475.9,3474.6,1816.8,2088.6,3044.3,3497.8,1900.7,3490.5,3475.9,3467.4,611.7,779.4,1548.7,921.1,833.6,852.8,10.0,16.0,19.0,2894.0,-4142.0,13112.0,-8426.0,-151.0,81.0,-189.0,7.0,0.0,8.0,7606.0,-14181.0,3012.0,-649.0,-231.0,16.0,-14.0,1.0
2022-05-23 14:32:19.688495-07:00,1411.3,813.5,1006.5,935.6,867.9,809.4,1732.0,1331.4,3462.5,3472.2,1011.6,813.5,1661.5,3471.0,1125.2,1087.7,3475.9,3474.6,1816.8,2080.6,3044.3,3491.7,1901.6,3488.0,3475.9,3467.4,609.2,798.5,1548.7,918.6,835.2,852.0,-8.0,-9.0,2.0,2824.0,-4212.0,13117.0,-8406.0,-91.0,-14.0,-141.0,0.0,-2.0,9.0,7531.0,-14220.0,3012.0,-648.0,-157.0,23.0,-25.0,1.0
2022-05-23 14:32:19.691702-07:00,1411.3,813.5,1006.5,925.4,867.9,809.4,1721.5,1341.3,3462.5,3472.2,1011.6,814.4,1661.5,3468.6,1125.2,1099.0,3478.3,3479.5,1808.1,2080.6,3027.1,3491.7,1901.6,3488.0,3469.8,3483.2,616.5,798.5,1547.8,918.6,835.2,852.0,24.0,-27.0,-4.0,2823.0,-4244.0,13118.0,-8389.0,49.0,-94.0,73.0,5.0,-13.0,-5.0,7514.0,-14229.0,3012.0,-656.0,42.0,20.0,-1.0,1.0
2022-05-23 14:32:19.748921-07:00,1420.4,817.7,1008.2,925.4,867.1,809.4,1721.5,1341.3,3467.4,3460.1,1002.2,814.4,1662.5,3468.6,1125.2,1099.0,3478.3,3479.5,1808.1,2087.6,3027.1,3486.8,1888.9,3485.6,3469.8,3483.2,616.5,804.4,1547.8,921.1,829.4,858.7,41.0,-2.0,19.0,2892.0,-4234.0,13091.0,-8413.0,176.0,-126.0,94.0,11.0,8.0,-17.0,7567.0,-14201.0,3009.0,-670.0,184.0,-1.0,4.0,1.0
2022-05-23 14:32:19.808545-07:00,1420.4,817.7,1008.2,942.4,867.1,798.5,1714.8,1346.7,3467.4,3460.1,1002.2,821.0,1662.5,3456.4,1118.2,1102.5,3467.4,3473.4,1813.9,2087.6,3026.0,3486.8,1888.9,3485.6,3474.6,3457.6,610.8,804.4,1545.0,921.1,829.4,858.7,45.0,41.0,-9.0,2963.0,-4234.0,13031.0,-8481.0,177.0,-115.0,-22.0,-6.0,33.0,-19.0,7636.0,-14165.0,3000.0,-685.0,183.0,-24.0,-30.0,1.0
2022-05-23 14:32:19.838680-07:00,1405.8,797.7,999.6,942.4,869.6,798.5,1714.8,1346.7,3466.1,3467.4,1006.5,821.0,1656.8,3456.4,1118.2,1102.5,3467.4,3473.4,1813.9,2090.6,3026.0,3488.0,1886.9,3484.4,3474.6,3457.6,610.8,806.9,1545.0,931.3,821.9,853.7,-8.0,-18.0,18.0,2986.0,-4266.0,13023.0,-8469.0,-84.0,-85.0,13.0,1.0,-13.0,15.0,7634.0,-14171.0,2978.0,-680.0,-33.0,-34.0,-35.0,1.0
2022-05-23 14:32:19.928986-07:00,1405.8,797.7,999.6,932.2,869.6,801.9,1714.8,1338.6,3466.1,3467.4,1006.5,812.7,1656.8,3472.2,1125.2,1096.4,3472.2,3468.6,1824.6,2090.6,3014.5,3488.0,1886.9,3484.4,3479.5,3467.4,608.4,806.9,1547.8,931.3,821.9,853.7,-3.0,2.0,19.0,3017.0,-4263.0,13030.0,-8448.0,-31.0,-53.0,63.0,0.0,-5.0,11.0,7650.0,-14164.0,2972.0,-677.0,54.0,-2.0,18.0,1.0
2022-05-23 14:32:19.958526-07:00,1404.0,820.2,1003.0,937.3,879.7,801.9,1714.8,1338.6,3467.4,3475.9,1006.5,813.5,1652.0,3472.2,1125.2,1096.4,3472.2,3468.6,1824.6,2072.5,2997.4,3490.5,1886.9,3492.9,3479.5,3467.4,608.4,796.9,1547.8,920.3,825.2,849.5,23.0,11.0,27.0,3024.0,-4259.0,13043.0,-8428.0,-34.0,52.0,12.0,14.0,5.0,0.0,7648.0,-14163.0,2982.0,-673.0,-19.0,10.0,25.0,1.0
2022-05-23 14:32:19.988512-07:00,1404.0,820.2,1003.0,937.3,865.4,811.9,1716.7,1354.9,3467.4,3475.9,1006.5,813.5,1647.3,3473.4,1123.5,1099.9,3475.9,3474.6,1812.9,2074.5,2997.4,3490.5,1886.9,3492.9,3475.9,3471.0,609.2,798.5,1547.8,920.3,825.2,849.5,10.0,24.0,-10.0,3006.0,-4253.0,13037.0,-8446.0,78.0,38.0,-44.0,-4.0,6.0,-5.0,7640.0,-14166.0,2990.0,-677.0,-18.0,23.0,4.0,1.0
2022-05-23 14:32:20.048814-07:00,1415.8,809.4,1004.8,934.7,865.4,811.9,1716.7,1354.9,3466.1,3471.0,1005.6,811.0,1647.3,3473.4,1123.5,1099.9,3475.9,3474.6,1812.9,2074.5,3006.5,3495.3,1885.0,3488.0,3475.9,3471.0,609.2,798.5,1544.1,915.2,831.9,856.2,53.0,42.0,35.0,2977.0,-4306.0,12991.0,-8502.0,206.0,80.0,-356.0,8.0,24.0,-16.0,7611.0,-14181.0,2989.0,-679.0,-99.0,-9.0,-35.0,1.0
2022-05-23 14:32:20.108577-07:00,1415.8,809.4,1004.8,934.7,876.4,805.2,1713.8,1344.9,3466.1,3471.0,1005.6,811.0,1654.9,3467.4,1120.9,1106.0,3483.2,3483.2,1812.9,2049.4,3006.5,3495.3,1885.0,3488.0,3475.9,3472.2,609.2,795.2,1544.1,915.2,831.9,856.2,11.0,9.0,12.0,2842.0,-4447.0,12947.0,-8541.0,-310.0,70.0,-507.0,9.0,-5.0,16.0,7486.0,-14253.0,2968.0,-665.0,-514.0,6.0,-76.0,1.0
2022-05-23 14:32:20.168573-07:00,1408.5,806.0,1004.8,926.2,876.4,805.2,1713.8,1344.9,3467.4,3469.8,1004.8,816.0,1654.9,3467.4,1120.9,1106.0,3483.2,3483.2,1812.9,2049.4,3005.4,3479.5,1880.1,3496.6,3475.9,3472.2,609.2,795.2,1545.9,923.7,832.7,857.9,-31.0,-92.0,8.0,2691.0,-4592.0,12969.0,-8481.0,-107.0,83.0,-140.0,4.0,-38.0,20.0,7343.0,-14328.0,2966.0,-652.0,-169.0,35.0,5.0,1.0
2022-05-23 14:32:20.198616-07:00,1409.4,806.0,1004.8,926.2,861.2,799.4,1707.2,1343.1,3467.4,3469.8,1004.8,816.0,1654.9,3457.6,1118.2,1103.4,3474.6,3474.6,1804.2,2065.5,3005.4,3479.5,1880.1,3486.8,3468.6,3473.4,605.2,791.9,1545.9,923.7,832.7,849.5,1.0,-21.0,-7.0,2693.0,-4557.0,12978.0,-8485.0,101.0,14.0,247.0,3.0,-4.0,0.0,7390.0,-14299.0,2989.0,-661.0,265.0,18.0,66.0,1.0
2022-05-23 14:32:20.258656-07:00,1409.4,811.9,999.6,935.6,861.2,799.4,1707.2,1345.8,3467.4,3464.9,1003.9,810.2,1654.9,3457.6,1118.2,1089.5,3472.2,3474.6,1804.2,2065.5,2998.5,3500.2,1881.1,3486.8,3478.3,3473.4,605.2,791.9,1537.6,913.5,829.4,849.5,50.0,31.0,0.0,2808.0,-4445.0,12975.0,-8511.0,212.0,-80.0,346.0,0.0,28.0,-25.0,7514.0,-14230.0,3004.0,-676.0,339.0,-23.0,43.0,1.0
2022-05-23 14:32:20.348486-07:00,1396.7,811.9,999.6,935.6,861.2,799.4,1701.4,1345.8,3468.6,3464.9,1003.9,810.2,1654.9,3466.1,1122.6,1089.5,3472.2,3471.0,1810.0,2058.4,2998.5,3500.2,1881.1,3488.0,3478.3,3472.2,612.5,785.2,1537.6,913.5,829.4,852.0,42.0,42.0,21.0,2905.0,-4386.0,12973.0,-8513.0,1.0,-194.0,79.0,-1.0,20.0,-12.0,7573.0,-14200.0,2999.0,-675.0,45.0,-30.0,-21.0,1.0
2022-05-23 14:32:20.349556-07:00,1396.7,805.2,1005.6,929.6,861.2,799.4,1701.4,1342.2,3468.6,3472.2,1003.9,806.0,1654.9,3466.1,1122.6,1099.0,3471.0,3471.0,1810.0,2058.4,2981.4,3497.8,1880.1,3488.0,3467.4,3472.2,612.5,785.2,1546.9,926.2,831.1,852.0,-8.0,5.0,11.0,2917.0,-4431.0,12963.0,-8501.0,-13.0,-30.0,-138.0,0.0,-7.0,9.0,7550.0,-14216.0,2978.0,-671.0,-98.0,-11.0,-54.0,1.0
2022-05-23 14:32:20.408492-07:00,1394.8,805.2,1005.6,929.6,873.0,795.2,1714.8,1342.2,3463.7,3472.2,1003.9,806.0,1653.0,3478.3,1123.5,1099.0,3471.0,3472.2,1800.3,2062.5,2981.4,3497.8,1880.1,3486.8,3467.4,3472.2,609.2,785.2,1546.9,926.2,831.1,852.0,-16.0,-12.0,5.0,2901.0,-4481.0,12948.0,-8502.0,-21.0,-29.0,-38.0,7.0,-14.0,15.0,7524.0,-14233.0,2964.0,-672.0,-44.0,-3.0,-15.0,1.0
2022-05-23 14:32:20.438698-07:00,1394.8,804.4,999.6,926.2,873.0,795.2,1707.2,1334.1,3463.7,3461.3,1001.3,814.4,1653.0,3478.3,1128.7,1096.4,3475.9,3478.3,1800.3,2062.5,3001.9,3492.9,1885.0,3486.8,3480.7,3481.9,609.2,785.2,1549.7,921.1,823.5,852.0,-35.0,22.0,-19.0,2926.0,-4509.0,12949.0,-8476.0,-54.0,-133.0,3.0,9.0,4.0,6.0,7515.0,-14238.0,2964.0,-674.0,-39.0,11.0,5.0,1.0
2022-05-23 14:32:20.498877-07:00,1400.3,811.9,999.6,926.2,864.6,796.0,1707.2,1334.1,3468.6,3471.0,1001.3,814.4,1653.9,3467.4,1128.7,1096.4,3475.9,3478.3,1808.1,2066.5,3001.9,3492.9,1876.2,3486.8,3480.7,3481.9,610.0,784.4,1549.7,921.1,827.7,852.0,-475.0,343.0,-497.0,3108.0,-4725.0,12931.0,-8321.0,-410.0,-1563.0,-340.0,8.0,-62.0,197.0,7460.0,-14270.0,2941.0,-707.0,-305.0,142.0,-203.0,1.0
2022-05-23 14:32:20.589147-07:00,1400.3,811.9,1001.3,927.1,864.6,796.0,1715.8,1355.8,3468.6,3471.0,1003.0,810.2,1653.9,3467.4,1111.2,1099.0,3472.2,3469.8,1808.1,2066.5,3045.5,3486.8,1876.2,3486.8,3472.2,3479.5,610.0,784.4,1550.6,921.1,827.7,852.0,600.0,-10.0,-369.0,4147.0,-6480.0,12654.0,-7009.0,-3420.0,-7239.0,-2515.0,-57.0,160.0,-44.0,6848.0,-14570.0,2960.0,-706.0,-2460.0,148.0,-132.0,1.0
2022-05-23 14:32:20.590625-07:00,1379.4,789.4,1001.3,927.1,866.3,821.0,1715.8,1355.8,3466.1,3472.2,1003.0,810.2,1657.7,3479.5,1111.2,1099.0,3472.2,3469.8,1834.3,2123.0,3045.5,3486.8,1886.0,3490.5,3472.2,3479.5,650.5,796.0,1550.6,921.1,829.4,854.5,405.0,-401.0,235.0,5229.0,-8506.0,11805.0,-5420.0,-774.0,-4660.0,-2175.0,-32.0,-11.0,-136.0,6334.0,-14827.0,2836.0,-650.0,51.0,-140.0,-376.0,1.0
2022-05-23 14:32:20.649095-07:00,1379.4,789.4,992.7,922.8,866.3,821.0,1782.9,1433.2,3466.1,3472.2,1003.0,825.2,1657.7,3479.5,1104.3,1087.7,3475.9,3469.8,1834.3,2123.0,3132.2,3496.6,1886.0,3490.5,3471.0,3471.0,650.5,796.0,1552.5,919.4,829.4,854.5,264.0,228.0,169.0,6395.0,-8978.0,10915.0,-5272.0,1875.0,-2233.0,-264.0,118.0,285.0,-153.0,7139.0,-14503.0,2569.0,-739.0,1893.0,-452.0,-526.0,1.0
2022-05-23 14:32:20.708684-07:00,1326.8,789.4,992.7,922.8,865.4,825.2,1782.9,1433.2,3460.1,3467.4,1003.0,825.2,3495.3,3461.3,1104.3,1087.7,3475.9,3469.8,1796.5,2168.7,3132.2,3496.6,1863.5,3490.5,3471.0,3471.0,661.1,800.2,1552.5,919.4,832.7,856.2,39.0,-65.0,111.0,6844.0,-9310.0,10371.0,-5231.0,-238.0,-1482.0,-1401.0,70.0,-51.0,89.0,7286.0,-14469.0,2332.0,-757.0,-392.0,-101.0,-376.0,1.0
2022-05-23 14:32:20.738762-07:00,1326.8,789.4,994.5,923.7,865.4,814.4,1761.8,1470.9,3460.1,3467.4,1003.0,824.4,3495.3,3460.1,1113.9,1091.2,3472.2,3472.2,1778.1,2168.7,3103.2,3489.2,1863.5,3490.5,3472.2,3481.9,661.9,800.2,1555.3,922.8,832.7,856.2,4.0,-93.0,148.0,6964.0,-9711.0,9966.0,-5129.0,416.0,-190.0,-184.0,26.0,-31.0,43.0,7366.0,-14450.0,2190.0,-758.0,602.0,-208.0,-230.0,1.0
2022-05-23 14:32:20.798578-07:00,1311.5,777.8,995.3,923.7,870.5,814.4,1761.8,1470.9,3472.2,3467.4,1005.6,824.4,3485.6,3460.1,1113.9,1091.2,3472.2,3472.2,1778.1,2183.0,3103.2,3502.7,1834.3,3490.5,3472.2,3481.9,661.9,807.7,1555.3,916.9,829.4,850.3,-62.0,52.0,48.0,7094.0,-9741.0,9824.0,-5169.0,28.0,-543.0,-366.0,-30.0,-4.0,52.0,7473.0,-14406.0,2118.0,-750.0,-38.0,-76.0,-72.0,1.0
2022-05-23 14:32:20.888626-07:00,1311.5,777.8,995.3,927.9,870.5,816.0,1735.8,1422.2,3472.2,3467.4,1005.6,830.2,3485.6,3467.4,1101.7,1094.7,3478.3,3471.0,1759.8,2183.0,3117.1,3502.7,1834.3,3490.5,3479.5,3472.2,665.2,807.7,1558.1,916.9,829.4,850.3,-45.0,-49.0,141.0,7086.0,-9887.0,9694.0,-5149.0,80.0,206.0,-248.0,-32.0,-37.0,50.0,7438.0,-14432.0,2068.0,-737.0,50.0,-65.0,-135.0,1.0
2022-05-23 14:32:20.890154-07:00,1297.2,778.6,987.6,927.9,865.4,816.0,1735.8,1422.2,3468.6,3460.1,1007.3,830.2,2061.5,3467.4,1101.7,1094.7,3478.3,3471.0,1759.8,2182.0,3117.1,3502.7,1819.7,3497.8,3479.5,3472.2,665.2,799.4,1558.1,923.7,829.4,850.3,-64.0,-35.0,-1.0,7071.0,-9867.0,9648.0,-5292.0,182.0,1.0,-156.0,1.0,-28.0,24.0,7470.0,-14421.0,2028.0,-755.0,-4.0,40.0,-27.0,1.0
2022-05-23 14:32:20.979189-07:00,1297.2,778.6,987.6,925.4,865.4,808.5,1733.9,1411.3,3468.6,3460.1,1007.3,817.7,2061.5,3481.9,1102.5,1086.0,3473.4,3474.6,1767.5,2182.0,3082.4,3502.7,1819.7,3497.8,3478.3,3472.2,667.6,799.4,1561.8,923.7,829.4,850.3,38.0,12.0,40.0,7096.0,-9876.0,9594.0,-5339.0,177.0,276.0,-38.0,15.0,29.0,-43.0,7471.0,-14420.0,2025.0,-769.0,52.0,-4.0,-19.0,1.0
2022-05-23 14:32:21.039343-07:00,1299.8,789.4,985.9,933.0,864.6,808.5,1733.9,1411.3,3479.5,3469.8,1001.3,810.2,1640.7,3481.9,1102.5,1086.0,3473.4,3474.6,1767.5,2174.8,3070.8,3500.2,1814.9,3495.3,3478.3,3472.2,667.6,798.5,1549.7,918.6,823.5,846.1,-27.0,-55.0,14.0,7042.0,-9821.0,9640.0,-5429.0,-42.0,235.0,108.0,6.0,-28.0,6.0,7454.0,-14429.0,2023.0,-765.0,-110.0,-8.0,35.0,1.0
2022-05-23 14:32:21.040331-07:00,1299.8,789.4,985.9,933.0,864.6,808.5,1757.9,1405.8,3479.5,3469.8,1001.3,810.2,1650.2,3469.8,1107.8,1091.2,3473.4,3477.1,1757.0,2168.7,3070.8,3500.2,1814.9,3495.3,3475.9,3474.6,657.9,798.5,1549.7,918.6,823.5,846.1,-2.0,58.0,1.0,7013.0,-9768.0,9697.0,-5459.0,-50.0,128.0,5.0,4.0,6.0,5.0,7440.0,-14433.0,2046.0,-756.0,-75.0,15.0,45.0,1.0
2022-05-23 14:32:21.128633-07:00,1300.7,778.6,985.9,931.3,864.6,808.5,1757.9,1405.8,3475.9,3467.4,1000.5,812.7,1650.2,3469.8,1107.8,1091.2,3473.4,3477.1,1757.0,2168.7,3048.9,3481.9,1808.1,3491.7,3475.9,3474.6,657.9,798.5,1547.8,922.8,824.4,855.3,14.0,-24.0,8.0,6955.0,-9789.0,9711.0,-5471.0,-67.0,73.0,-107.0,-2.0,-1.0,-10.0,7386.0,-14459.0,2063.0,-747.0,-75.0,-1.0,9.0,1.0
2022-05-23 14:32:21.188609-07:00,1300.7,778.6,985.9,931.3,856.2,806.9,1748.3,1404.9,3475.9,3467.4,1000.5,812.7,1646.4,3466.1,1105.1,1085.1,3472.2,3468.6,1751.2,2160.5,3048.9,3481.9,1808.1,3491.7,3472.2,3477.1,663.6,787.7,1547.8,922.8,824.4,855.3,-34.0,-2.0,-8.0,6970.0,-9738.0,9707.0,-5549.0,239.0,95.0,81.0,1.0,0.0,2.0,7406.0,-14450.0,2060.0,-744.0,118.0,-16.0,21.0,1.0
2022-05-23 14:32:21.218573-07:00,1299.8,769.5,1000.5,922.0,856.2,806.9,1748.3,1404.9,3466.1,3468.6,1005.6,815.2,1646.4,3466.1,1105.1,1085.1,3472.2,3468.6,1751.2,2160.5,3063.9,3486.8,1803.2,3484.4,3472.2,3477.1,663.6,787.7,1551.5,908.4,831.1,850.3,-6.0,20.0,5.0,6992.0,-9704.0,9720.0,-5560.0,-15.0,10.0,37.0,5.0,4.0,3.0,7423.0,-14441.0,2065.0,-732.0,-66.0,-22.0,24.0,1.0
2022-05-23 14:32:21.278563-07:00,1296.3,769.5,1000.5,922.0,862.1,796.9,1759.8,1404.9,3467.4,3468.6,1005.6,815.2,1646.4,3468.6,1106.0,1079.9,3478.3,3477.1,1766.6,2166.7,3063.9,3486.8,1803.2,3507.5,3477.1,3480.7,649.7,779.4,1551.5,908.4,831.1,846.1,1.0,12.0,11.0,7030.0,-9705.0,9686.0,-5568.0,206.0,-137.0,-58.0,1.0,13.0,-12.0,7424.0,-14439.0,2076.0,-723.0,118.0,-14.0,34.0,1.0
2022-05-23 14:32:21.308776-07:00,1296.3,779.4,992.7,937.3,862.1,796.9,1759.8,1400.3,3467.4,3463.7,1001.3,804.4,1646.4,3468.6,1106.0,1086.8,3473.4,3477.1,1766.6,2166.7,3021.4,3491.7,1795.5,3507.5,3472.2,3480.7,649.7,779.4,1552.5,919.4,835.2,846.1,8.0,19.0,19.0,7090.0,-9688.0,9637.0,-5607.0,85.0,18.0,7.0,3.0,24.0,-13.0,7472.0,-14415.0,2074.0,-715.0,-3.0,-56.0,-9.0,1.0
2022-05-23 14:32:21.368991-07:00,1281.0,779.4,992.7,937.3,855.3,810.2,1771.4,1400.3,3467.4,3463.7,1001.3,804.4,1638.8,3480.7,1113.9,1086.8,3473.4,3478.3,1738.7,2145.3,3021.4,3491.7,1795.5,3490.5,3472.2,3483.2,648.9,780.3,1552.5,919.4,835.2,851.1,-22.0,-5.0,50.0,7049.0,-9686.0,9663.0,-5618.0,-95.0,118.0,-41.0,2.0,-15.0,16.0,7448.0,-14429.0,2068.0,-694.0,-118.0,-25.0,18.0,1.0
2022-05-23 14:32:21.518597-07:00,1281.0,784.4,1032.3,942.4,855.3,810.2,1771.4,1433.2,3467.4,3471.0,998.7,814.4,1638.8,3480.7,1113.9,1095.6,3473.4,3478.3,1738.7,2145.3,3045.5,3490.5,1791.6,3490.5,3475.9,3483.2,648.9,780.3,1545.0,933.9,841.1,851.1,-9.0,8.0,-5.0,7006.0,-9684.0,9676.0,-5652.0,-57.0,158.0,-7.0,-1.0,21.0,-5.0,7428.0,-14438.0,2080.0,-685.0,-49.0,-7.0,20.0,1.0
2022-05-23 14:32:21.520968-07:00,1282.8,784.4,1032.3,942.4,856.2,820.2,1812.9,1433.2,3475.9,3471.0,998.7,814.4,1638.8,3467.4,1102.5,1095.6,3473.4,3477.1,1732.0,2161.6,3045.5,3490.5,1791.6,3496.6,3475.9,3468.6,640.8,782.7,1545.0,933.9,841.1,851.1,-15.0,-14.0,6.0,6948.0,-9693.0,9715.0,-5641.0,-55.0,35.0,2.0,2.0,-3.0,-1.0,7370.0,-14467.0,2090.0,-674.0,-90.0,10.0,26.0,1.0
2022-05-23 14:32:21.522160-07:00,1282.8,778.6,1022.8,948.3,856.2,820.2,1812.9,1436.0,3475.9,3467.4,993.6,808.5,1638.8,3467.4,1102.5,1092.9,3472.2,3477.1,1732.0,2161.6,3042.0,3496.6,1787.8,3496.6,3467.4,3468.6,640.8,782.7,1541.3,932.2,842.8,851.1,10.0,37.0,-17.0,6951.0,-9690.0,9715.0,-5643.0,-58.0,-7.0,12.0,5.0,33.0,-27.0,7372.0,-14466.0,2095.0,-669.0,-25.0,-18.0,-2.0,1.0
2022-05-23 14:32:21.548504-07:00,1281.0,775.3,1022.8,948.3,862.9,816.0,1802.3,1436.0,3471.0,3467.4,993.6,808.5,1639.8,3467.4,1104.3,1092.9,3472.2,3475.9,1725.3,2149.3,3042.0,3496.6,1782.9,3489.2,3467.4,3472.2,638.4,782.7,1541.3,932.2,841.9,842.8,-14.0,-2.0,20.0,6927.0,-9696.0,9730.0,-5635.0,27.0,38.0,-19.0,-1.0,-8.0,4.0,7349.0,-14479.0,2086.0,-662.0,10.0,-10.0,-15.0,1.0
2022-05-23 14:32:21.608628-07:00,1281.0,775.3,1024.5,943.2,862.9,816.0,1790.7,1436.0,3471.0,3467.4,1003.9,811.0,1639.8,3467.4,1111.2,1083.4,3471.0,3467.4,1725.3,2149.3,3047.8,3507.5,1782.9,3489.2,3480.7,3472.2,638.4,782.7,1567.4,943.2,841.9,842.8,-19.0,-4.0,14.0,6928.0,-9691.0,9728.0,-5646.0,-22.0,0.0,-17.0,-8.0,2.0,-4.0,7362.0,-14473.0,2080.0,-666.0,3.0,-9.0,-14.0,1.0
2022-05-23 14:32:21.668603-07:00,1278.3,772.0,1024.5,943.2,859.5,821.9,1790.7,1436.0,3472.2,3478.3,1003.9,811.0,1643.5,3469.8,1111.2,1083.4,3471.0,3467.4,1727.2,2142.2,3047.8,3507.5,1785.8,3483.2,3480.7,3472.2,638.4,779.4,1567.4,943.2,841.1,841.9,-9.0,13.0,14.0,6916.0,-9682.0,9738.0,-5659.0,-7.0,97.0,1.0,9.0,4.0,3.0,7366.0,-14472.0,2076.0,-661.0,10.0,-15.0,-12.0,1.0
2022-05-23 14:32:21.699050-07:00,1278.3,772.0,1030.6,940.7,859.5,821.9,1811.9,1430.5,3472.2,3478.3,998.7,806.0,1643.5,3469.8,1106.0,1089.5,3472.2,3480.7,1727.2,2142.2,3040.9,3484.4,1785.8,3483.2,3474.6,3473.4,638.4,779.4,1540.3,933.9,841.1,841.9,-2.0,-10.0,15.0,6873.0,-9697.0,9757.0,-5653.0,-114.0,28.0,-35.0,11.0,-5.0,4.0,7331.0,-14490.0,2073.0,-656.0,-133.0,-4.0,-1.0,1.0
2022-05-23 14:32:21.818655-07:00,1283.7,773.6,1030.6,940.7,849.5,826.9,1811.9,1430.5,3467.4,3481.9,998.7,806.0,1639.8,3466.1,1106.0,1089.5,3472.2,3480.7,1715.8,2140.2,3040.9,3484.4,1776.2,3492.9,3474.6,3473.4,645.7,786.1,1540.3,933.9,843.6,837.7,-5.0,6.0,9.0,6857.0,-9709.0,9762.0,-5644.0,-51.0,17.0,-4.0,0.0,11.0,-13.0,7304.0,-14504.0,2073.0,-654.0,-44.0,-5.0,-1.0,1.0
2022-05-23 14:32:21.848772-07:00,1283.7,773.6,1028.8,939.8,849.5,812.7,1778.1,1436.0,3467.4,3481.9,1001.3,807.7,1639.8,3468.6,1106.9,1087.7,3474.6,3475.9,1725.3,2140.2,3029.4,3486.8,1776.2,3492.9,3478.3,3484.4,634.3,786.1,1549.7,935.6,843.6,837.7,-18.0,12.0,13.0,6842.0,-9705.0,9773.0,-5649.0,15.0,47.0,2.0,-5.0,0.0,2.0,7299.0,-14507.0,2070.0,-650.0,29.0,-6.0,-12.0,1.0
2022-05-23 14:32:21.849854-07:00,1270.3,764.5,1022.8,939.8,857.9,812.7,1778.1,1436.0,3468.6,3462.5,1005.6,807.7,1636.0,3468.6,1106.9,1087.7,3474.6,3475.9,1725.3,2144.3,3029.4,3490.5,1769.5,3486.8,3478.3,3484.4,634.3,781.1,1549.7,933.9,836.1,847.8,11.0,-3.0,22.0,6833.0,-9702.0,9774.0,-5665.0,30.0,53.0,-41.0,0.0,2.0,-7.0,7302.0,-14506.0,2068.0,-651.0,20.0,-1.0,-5.0,1.0
2022-05-23 14:32:21.938402-07:00,1270.3,764.5,1022.8,938.1,857.9,825.2,1795.5,1417.6,3468.6,3462.5,1005.6,804.4,1636.0,3467.4,1111.2,1084.2,3480.7,3473.4,1721.5,2144.3,3026.0,3490.5,1769.5,3486.8,3479.5,3477.1,633.5,781.1,1549.7,933.9,836.1,847.8,-11.0,14.0,12.0,6808.0,-9672.0,9777.0,-5741.0,91.0,214.0,-53.0,4.0,8.0,5.0,7324.0,-14495.0,2066.0,-654.0,46.0,-2.0,-2.0,1.0
2022-05-23 14:32:21.940176-07:00,1272.1,774.5,1020.2,938.1,861.2,825.2,1795.5,1417.6,3462.5,3461.3,1001.3,804.4,1633.1,3467.4,1111.2,1084.2,3480.7,3473.4,1721.5,2123.0,3026.0,3495.3,1776.2,3486.8,3479.5,3477.1,633.5,793.5,1549.7,941.5,837.7,849.5,-7.0,-7.0,7.0,6781.0,-9669.0,9795.0,-5747.0,-87.0,-14.0,45.0,2.0,-4.0,2.0,7307.0,-14503.0,2071.0,-650.0,-70.0,0.0,22.0,1.0
2022-05-23 14:32:21.999091-07:00,1272.1,774.5,1020.2,930.5,861.2,815.2,1760.8,1420.4,3462.5,3461.3,1001.3,807.7,1633.1,3466.1,1109.5,1097.3,3466.1,3474.6,1718.6,2123.0,3023.7,3495.3,1776.2,3486.8,3475.9,3468.6,634.3,793.5,1538.5,941.5,837.7,849.5,-1.0,22.0,22.0,6772.0,-9659.0,9820.0,-5731.0,-30.0,53.0,43.0,3.0,6.0,2.0,7297.0,-14507.0,2080.0,-645.0,-17.0,-8.0,15.0,1.0
2022-05-23 14:32:22.148699-07:00,1281.9,781.9,1016.8,938.1,857.0,815.2,1760.8,1420.4,3472.2,3468.6,995.3,803.5,1633.1,3466.1,1109.5,1097.3,3466.1,3474.6,1718.6,2139.2,3022.5,3494.1,1772.3,3488.0,3475.9,3468.6,634.3,792.7,1545.9,938.1,844.4,852.0,-28.0,-1.0,-11.0,6754.0,-9653.0,9829.0,-5748.0,-7.0,23.0,-30.0,1.0,-1.0,3.0,7289.0,-14511.0,2081.0,-643.0,-10.0,1.0,9.0,1.0
2022-05-23 14:32:22.151630-07:00,1281.9,781.9,1016.8,938.1,860.4,806.0,1805.2,1405.8,3472.2,3468.6,995.3,803.5,1647.3,3469.8,1113.0,1093.8,3479.5,3467.4,1711.9,2133.1,3022.5,3494.1,1772.3,3488.0,3475.9,3473.4,633.5,796.9,1545.9,938.1,844.4,852.0,14.0,5.0,23.0,6758.0,-9674.0,9820.0,-5723.0,-61.0,-82.0,-19.0,9.0,8.0,-9.0,7281.0,-14515.0,2082.0,-643.0,-17.0,-9.0,-5.0,1.0
2022-05-23 14:32:22.152485-07:00,1281.0,756.3,1023.7,939.8,860.4,806.0,1805.2,1405.8,3471.0,3467.4,993.6,802.7,1647.3,3469.8,1113.0,1093.8,3479.5,3467.4,1711.9,2133.1,3011.1,3492.9,1776.2,3490.5,3475.9,3473.4,633.5,796.9,1532.9,937.3,841.1,851.1,7.0,10.0,17.0,6762.0,-9681.0,9802.0,-5738.0,57.0,21.0,-53.0,7.0,5.0,0.0,7295.0,-14509.0,2072.0,-642.0,31.0,-12.0,-20.0,1.0
2022-05-23 14:32:22.252344-07:00,1281.0,756.3,1023.7,939.8,857.9,820.2,1780.1,1404.9,3471.0,3467.4,993.6,802.7,1639.8,3475.9,1107.8,1093.8,3488.0,3478.3,1714.8,2140.2,3011.1,3492.9,1776.2,3490.5,3474.6,3468.6,627.0,796.0,1532.9,937.3,841.1,851.1,-25.0,-25.0,-1.0,6748.0,-9683.0,9793.0,-5764.0,-7.0,33.0,-43.0,2.0,-11.0,12.0,7295.0,-14510.0,2067.0,-642.0,-26.0,-2.0,8.0,1.0
2022-05-23 14:32:22.254537-07:00,1264.0,763.7,1012.5,939.8,857.9,820.2,1780.1,1404.9,3478.3,3474.6,993.6,809.4,1639.8,3475.9,1107.8,1093.8,3488.0,3478.3,1714.8,2140.2,3019.1,3496.6,1763.7,3496.6,3474.6,3468.6,627.0,796.0,1544.1,934.7,842.8,838.6,0.0,4.0,25.0,6743.0,-9686.0,9799.0,-5756.0,-38.0,41.0,37.0,0.0,10.0,-7.0,7290.0,-14511.0,2075.0,-637.0,-16.0,-1.0,18.0,1.0
2022-05-23 14:32:22.328963-07:00,1264.0,763.7,1012.5,939.8,857.9,806.0,1801.3,1405.8,3478.3,3474.6,993.6,809.4,1632.2,3471.0,1109.5,1092.1,3472.2,3473.4,1713.8,2127.0,3019.1,3496.6,1763.7,3496.6,3477.1,3468.6,635.9,787.7,1544.1,934.7,842.8,838.6,-2.0,14.0,8.0,6717.0,-9664.0,9831.0,-5769.0,-6.0,107.0,28.0,4.0,5.0,6.0,7280.0,-14515.0,2086.0,-632.0,-26.0,17.0,28.0,1.0
2022-05-23 14:32:22.330746-07:00,1272.1,765.3,1016.8,934.7,857.9,806.0,1801.3,1425.0,3475.9,3479.5,996.2,808.5,1632.2,3471.0,1109.5,1095.6,3477.1,3473.4,1713.8,2127.0,3007.7,3499.0,1774.3,3492.9,3477.1,3468.6,635.9,787.7,1542.2,932.2,845.3,842.8,-12.0,15.0,-2.0,6689.0,-9655.0,9853.0,-5780.0,-47.0,68.0,-3.0,-2.0,7.0,-4.0,7259.0,-14524.0,2099.0,-634.0,-67.0,22.0,13.0,1.0
2022-05-23 14:32:22.389258-07:00,1261.3,765.3,1016.8,934.7,853.7,817.7,1789.7,1425.0,3471.0,3479.5,996.2,808.5,1626.5,3469.8,1109.5,1095.6,3477.1,3479.5,1714.8,2132.1,3007.7,3499.0,1774.3,3492.9,3477.1,3467.4,634.3,784.4,1542.2,932.2,845.3,841.1,-12.0,-5.0,-7.0,6656.0,-9663.0,9877.0,-5763.0,-130.0,11.0,14.0,-3.0,0.0,-5.0,7223.0,-14541.0,2102.0,-632.0,-103.0,-1.0,5.0,1.0
2022-05-23 14:32:22.478700-07:00,1261.3,773.6,1014.2,939.8,853.7,817.7,1789.7,1393.0,3471.0,3469.8,1001.3,809.4,1626.5,3469.8,1109.5,1089.5,3467.4,3479.5,1714.8,2132.1,3016.8,3495.3,1769.5,3492.9,3477.1,3467.4,634.3,784.4,1550.6,937.3,846.1,841.1,6.0,17.0,17.0,6647.0,-9669.0,9893.0,-5736.0,9.0,1.0,29.0,10.0,4.0,-3.0,7210.0,-14548.0,2104.0,-629.0,31.0,-5.0,8.0,1.0
2022-05-23 14:32:22.480301-07:00,1265.8,773.6,1014.2,939.8,853.7,806.9,1775.2,1393.0,3479.5,3469.8,1001.3,809.4,1627.5,3468.6,1112.1,1089.5,3467.4,3471.0,1718.6,2125.0,3016.8,3495.3,1769.5,3489.2,3477.1,3480.7,631.9,788.6,1550.6,937.3,846.1,845.3,-1.0,0.0,5.0,6647.0,-9665.0,9886.0,-5753.0,15.0,23.0,-44.0,4.0,6.0,-1.0,7218.0,-14544.0,2103.0,-630.0,-5.0,0.0,-11.0,1.0
2022-05-23 14:32:22.568663-07:00,1265.8,772.0,1018.5,928.8,853.7,806.9,1775.2,1398.5,3479.5,3466.1,991.0,803.5,1627.5,3468.6,1112.1,1089.5,3474.6,3471.0,1718.6,2125.0,3005.4,3494.1,1763.7,3489.2,3475.9,3480.7,631.9,788.6,1551.5,943.2,841.1,845.3,0.0,-5.0,18.0,6644.0,-9662.0,9887.0,-5760.0,15.0,14.0,24.0,1.0,-5.0,4.0,7218.0,-14544.0,2100.0,-632.0,32.0,0.0,0.0,1.0
2022-05-23 14:32:22.629303-07:00,1267.6,770.3,1018.5,928.8,851.1,807.7,1783.9,1398.5,3466.1,3472.2,991.0,803.5,1628.4,3467.4,1104.3,1089.5,3474.6,3480.7,1711.0,2119.9,3005.4,3494.1,1771.4,3486.8,3475.9,3475.9,639.2,781.9,1551.5,943.2,843.6,848.6,-10.0,20.0,13.0,6649.0,-9638.0,9894.0,-5783.0,41.0,73.0,3.0,0.0,5.0,9.0,7236.0,-14535.0,2099.0,-634.0,19.0,12.0,6.0,1.0
2022-05-23 14:32:22.630738-07:00,1267.6,770.3,1008.2,940.7,851.1,807.7,1769.5,1404.9,3466.1,3472.2,995.3,806.0,1628.4,3467.4,1112.1,1083.4,3472.2,3472.2,1711.0,2119.9,2989.4,3492.9,1771.4,3486.8,3468.6,3479.5,639.2,781.9,1541.3,935.6,843.6,848.6,-5.0,-4.0,6.0,6623.0,-9634.0,9905.0,-5801.0,-28.0,80.0,-12.0,0.0,1.0,1.0,7227.0,-14539.0,2102.0,-639.0,-21.0,17.0,4.0,1.0
2022-05-23 14:32:22.718242-07:00,1256.0,766.2,1008.2,940.7,854.5,821.9,1769.5,1404.9,3473.4,3475.9,995.3,806.0,1627.5,3472.2,1112.1,1083.4,3472.2,3472.2,1703.3,2119.9,2989.4,3492.9,1763.7,3491.7,3468.6,3479.5,639.2,791.9,1541.3,935.6,837.7,843.6,12.0,2.0,8.0,6605.0,-9610.0,9933.0,-5813.0,-2.0,87.0,82.0,6.0,6.0,-4.0,7222.0,-14541.0,2104.0,-642.0,18.0,4.0,4.0,1.0
2022-05-23 14:32:22.749185-07:00,1256.0,766.2,1024.5,950.0,854.5,821.9,1770.4,1393.0,3473.4,3475.9,997.0,802.7,1627.5,3472.2,1106.0,1089.5,3467.4,3483.2,1703.3,2119.9,3018.0,3494.1,1763.7,3491.7,3471.0,3477.1,639.2,791.9,1536.6,931.3,837.7,843.6,-13.0,9.0,4.0,6591.0,-9563.0,9971.0,-5842.0,41.0,139.0,62.0,6.0,-2.0,7.0,7233.0,-14535.0,2105.0,-643.0,17.0,9.0,11.0,1.0
2022-05-23 14:32:22.808628-07:00,1274.7,762.9,1024.5,950.0,852.8,807.7,1770.4,1393.0,3462.5,3473.4,997.0,802.7,1638.8,3467.4,1106.0,1089.5,3467.4,3483.2,1706.2,2123.0,3018.0,3494.1,1761.8,3486.8,3471.0,3477.1,627.8,786.9,1536.6,931.3,846.1,845.3,-6.0,17.0,-5.0,6586.0,-9539.0,9985.0,-5861.0,37.0,26.0,9.0,-2.0,10.0,-2.0,7237.0,-14533.0,2111.0,-641.0,11.0,0.0,11.0,1.0
2022-05-23 14:32:22.868635-07:00,1274.7,762.9,1010.8,934.7,852.8,811.0,1759.8,1375.7,3462.5,3473.4,999.6,804.4,1638.8,3478.3,1099.9,1085.1,3467.4,3479.5,1697.6,2123.0,3006.5,3492.9,1761.8,3486.8,3472.2,3478.3,635.1,786.9,1540.3,936.4,846.1,845.3,-7.0,6.0,-3.0,6586.0,-9541.0,9982.0,-5863.0,-17.0,-25.0,-27.0,0.0,0.0,0.0,7232.0,-14535.0,2112.0,-640.0,-25.0,-5.0,-9.0,1.0
2022-05-23 14:32:22.898607-07:00,1266.7,760.4,1021.1,934.7,858.7,811.0,1759.8,1375.7,3466.1,3473.4,996.2,804.4,1628.4,3478.3,1099.9,1085.1,3467.4,3479.5,1697.6,2119.9,3006.5,3494.1,1763.7,3492.9,3472.2,3478.3,635.1,782.7,1540.3,932.2,847.8,847.0,4.0,4.0,8.0,6596.0,-9559.0,9966.0,-5852.0,-13.0,-73.0,-31.0,6.0,7.0,-3.0,7228.0,-14538.0,2105.0,-636.0,-24.0,-21.0,-13.0,1.0
2022-05-23 14:32:23.019329-07:00,1266.7,760.4,1021.1,936.4,858.7,807.7,1729.1,1401.2,3466.1,3473.4,996.2,808.5,1628.4,3478.3,1103.4,1087.7,3473.4,3469.8,1698.6,2119.9,3001.9,3494.1,1763.7,3492.9,3480.7,3479.5,631.1,782.7,1551.5,932.2,847.8,847.0,-5.0,4.0,10.0,6605.0,-9573.0,9952.0,-5841.0,6.0,-59.0,-27.0,1.0,0.0,4.0,7224.0,-14541.0,2098.0,-630.0,-2.0,-17.0,-1.0,1.0
2022-05-23 14:32:23.049397-07:00,1262.2,768.7,1018.5,936.4,858.7,807.7,1729.1,1401.2,3474.6,3472.2,993.6,808.5,1623.7,3478.3,1103.4,1087.7,3473.4,3469.8,1698.6,2115.9,3001.9,3497.8,1764.6,3497.8,3480.7,3479.5,631.1,788.6,1551.5,933.0,841.9,847.0,2.0,7.0,18.0,6612.0,-9589.0,9936.0,-5835.0,-7.0,-17.0,-30.0,2.0,1.0,2.0,7218.0,-14544.0,2097.0,-626.0,-17.0,-7.0,-3.0,1.0
2022-05-23 14:32:23.050202-07:00,1262.2,768.7,1018.5,937.3,858.7,806.0,1738.7,1393.0,3474.6,3472.2,993.6,801.0,1623.7,3475.9,1101.7,1098.2,3483.2,3471.0,1703.3,2115.9,3011.1,3497.8,1764.6,3497.8,3478.3,3472.2,628.6,788.6,1547.8,933.0,841.9,847.0,-3.0,-1.0,7.0,6604.0,-9598.0,9937.0,-5828.0,-58.0,-23.0,-5.0,3.0,-5.0,7.0,7201.0,-14553.0,2098.0,-623.0,-62.0,-6.0,9.0,1.0
2022-05-23 14:32:23.108608-07:00,1261.3,757.1,1019.4,937.3,858.7,806.0,1738.7,1393.0,3467.4,3473.4,995.3,801.0,1620.9,3475.9,1101.7,1098.2,3483.2,3471.0,1703.3,2092.6,3011.1,3486.8,1755.0,3489.2,3478.3,3472.2,628.6,784.4,1547.8,934.7,857.9,847.8,10.0,14.0,13.0,6599.0,-9610.0,9939.0,-5809.0,-38.0,-19.0,-9.0,5.0,6.0,-2.0,7184.0,-14561.0,2099.0,-621.0,-40.0,5.0,3.0,1.0
2022-05-23 14:32:23.288501-07:00,1261.3,757.1,1019.4,936.4,859.5,810.2,1752.1,1389.4,3467.4,3473.4,995.3,808.5,1626.5,3473.4,1104.3,1089.5,3479.5,3483.2,1707.2,2119.9,2988.2,3486.8,1755.0,3489.2,3485.6,3478.3,633.5,788.6,1537.6,934.7,857.9,847.8,-5.0,8.0,-4.0,6594.0,-9616.0,9932.0,-5816.0,20.0,3.0,-38.0,0.0,3.0,-2.0,7180.0,-14563.0,2099.0,-620.0,-5.0,5.0,-7.0,1.0
2022-05-23 14:32:23.289816-07:00,1269.4,765.3,1009.9,937.3,859.5,810.2,1752.1,1389.4,3471.0,3471.0,991.9,806.9,1626.5,3473.4,1104.3,1089.5,3479.5,3483.2,1707.2,2119.9,2980.3,3489.2,1769.5,3489.2,3485.6,3478.3,633.5,788.6,1544.1,937.3,842.8,842.8,-1.0,4.0,1.0,6599.0,-9629.0,9917.0,-5817.0,13.0,-57.0,-24.0,3.0,1.0,-3.0,7180.0,-14563.0,2099.0,-620.0,9.0,-7.0,3.0,1.0
2022-05-23 14:32:23.291088-07:00,1269.4,765.3,1009.9,937.3,860.4,812.7,1748.3,1378.5,3471.0,3471.0,991.9,806.9,1629.4,3464.9,1110.4,1087.7,3472.2,3480.7,1696.7,2109.8,2980.3,3489.2,1769.5,3489.2,3477.1,3478.3,628.6,786.9,1544.1,937.3,842.8,842.8,6.0,6.0,11.0,6608.0,-9637.0,9904.0,-5814.0,-7.0,-18.0,-14.0,5.0,4.0,-2.0,7185.0,-14561.0,2099.0,-621.0,-2.0,-5.0,0.0,1.0
2022-05-23 14:32:23.292089-07:00,1264.0,762.0,1017.6,925.4,860.4,812.7,1748.3,1378.5,3474.6,3478.3,996.2,805.2,1629.4,3464.9,1110.4,1087.7,3472.2,3480.7,1696.7,2109.8,2995.1,3492.9,1752.1,3497.8,3477.1,3478.3,628.6,786.9,1535.7,938.1,842.8,847.8,2.0,1.0,13.0,6602.0,-9638.0,9909.0,-5811.0,-2.0,10.0,13.0,5.0,0.0,2.0,7181.0,-14562.0,2101.0,-619.0,1.0,5.0,13.0,1.0
2022-05-23 14:32:23.348448-07:00,1264.0,762.0,1017.6,925.4,855.3,808.5,1749.3,1408.5,3474.6,3478.3,996.2,805.2,1629.4,3462.5,1106.9,1094.7,3472.2,3478.3,1702.4,2119.9,2995.1,3492.9,1752.1,3497.8,3478.3,3475.9,640.8,784.4,1535.7,938.1,842.8,847.8,-10.0,10.0,0.0,6592.0,-9627.0,9922.0,-5818.0,-27.0,47.0,15.0,-3.0,2.0,2.0,7177.0,-14564.0,2102.0,-620.0,-29.0,11.0,7.0,1.0
2022-05-23 14:32:23.438653-07:00,1273.9,766.2,1017.6,931.3,855.3,808.5,1749.3,1389.4,3467.4,3475.9,991.9,806.9,1629.4,3462.5,1106.9,1084.2,3475.9,3478.3,1702.4,2119.9,2991.7,3497.8,1760.8,3489.2,3473.4,3475.9,640.8,784.4,1523.6,939.8,841.1,843.6,-5.0,1.0,5.0,6576.0,-9632.0,9932.0,-5811.0,-39.0,9.0,6.0,-1.0,2.0,-2.0,7160.0,-14573.0,2104.0,-620.0,-33.0,9.0,8.0,1.0
2022-05-23 14:32:23.439888-07:00,1266.7,766.2,1017.6,931.3,858.7,803.5,1732.0,1389.4,3467.4,3475.9,991.9,806.9,1626.5,3472.2,1106.0,1084.2,3475.9,3475.9,1694.8,2116.9,2991.7,3497.8,1760.8,3494.1,3473.4,3473.4,627.0,784.4,1523.6,939.8,841.1,845.3,-3.0,10.0,0.0,6569.0,-9626.0,9937.0,-5821.0,11.0,39.0,-4.0,2.0,6.0,-3.0,7159.0,-14573.0,2104.0,-620.0,3.0,4.0,0.0,1.0
2022-05-23 14:32:23.498660-07:00,1266.7,759.6,1016.8,950.0,858.7,803.5,1732.0,1373.0,3467.4,3457.6,994.5,810.2,1626.5,3472.2,1106.0,1078.2,3467.4,3475.9,1694.8,2116.9,2984.8,3488.0,1758.9,3494.1,3477.1,3473.4,627.0,784.4,1544.1,935.6,853.7,845.3,-8.0,7.0,-4.0,6563.0,-9621.0,9941.0,-5829.0,-2.0,4.0,8.0,3.0,2.0,2.0,7159.0,-14573.0,2104.0,-620.0,-6.0,5.0,5.0,1.0
2022-05-23 14:32:23.528687-07:00,1255.1,759.6,1016.8,950.0,847.8,815.2,1740.6,1373.0,3469.8,3457.6,994.5,810.2,1622.8,3472.2,1102.5,1078.2,3467.4,3473.4,1701.4,2110.8,2984.8,3488.0,1758.9,3497.8,3477.1,3479.5,629.5,786.1,1544.1,935.6,853.7,848.6,5.0,5.0,0.0,6564.0,-9630.0,9940.0,-5815.0,-20.0,-28.0,-9.0,6.0,0.0,0.0,7153.0,-14576.0,2104.0,-620.0,3.0,-7.0,-6.0,1.0
2022-05-23 14:32:23.589326-07:00,1255.1,763.7,1003.9,938.1,847.8,815.2,1740.6,1373.9,3469.8,3471.0,996.2,801.9,1622.8,3472.2,1102.5,1092.1,3467.4,3473.4,1701.4,2110.8,2988.2,3494.1,1757.0,3497.8,3475.9,3479.5,629.5,786.1,1548.7,932.2,846.1,848.6,11.0,-5.0,24.0,6567.0,-9624.0,9943.0,-5815.0,28.0,30.0,38.0,4.0,0.0,-6.0,7166.0,-14570.0,2104.0,-621.0,59.0,-4.0,-3.0,1.0
2022-05-23 14:32:23.678518-07:00,1256.0,763.7,1003.9,938.1,857.9,811.9,1719.6,1373.9,3471.0,3471.0,996.2,801.9,1617.1,3477.1,1108.6,1092.1,3467.4,3479.5,1701.4,2117.9,2988.2,3494.1,1757.0,3494.1,3475.9,3474.6,632.7,777.8,1548.7,932.2,846.1,859.5,-9.0,21.0,2.0,6572.0,-9591.0,9965.0,-5827.0,-11.0,4.0,45.0,3.0,-6.0,16.0,7180.0,-14562.0,2109.0,-624.0,-1.0,18.0,24.0,1.0
2022-05-23 14:32:23.709527-07:00,1256.0,771.1,1010.8,937.3,857.9,811.9,1727.2,1387.5,3471.0,3468.6,997.0,805.2,1617.1,3477.1,1100.8,1085.1,3473.4,3471.0,1701.4,2117.9,2987.1,3499.0,1758.9,3494.1,3464.9,3467.4,632.7,777.8,1545.0,934.7,845.3,859.5,82.0,-39.0,46.0,6555.0,-9566.0,9990.0,-5844.0,96.0,274.0,104.0,-1.0,14.0,-32.0,7191.0,-14555.0,2115.0,-625.0,160.0,-13.0,6.0,1.0
2022-05-23 14:32:23.738607-07:00,1268.5,762.9,1010.8,937.3,844.4,801.0,1727.2,1387.5,3468.6,3468.6,997.0,805.2,1627.5,3473.4,1100.8,1085.1,3473.4,3471.0,1694.8,2110.8,2987.1,3499.0,1758.9,3489.2,3464.9,3467.4,626.2,787.7,1545.0,934.7,843.6,847.8,101.0,-198.0,261.0,6430.0,-9105.0,10293.0,-6185.0,809.0,2046.0,1016.0,-14.0,-21.0,-3.0,7392.0,-14458.0,2090.0,-623.0,661.0,-70.0,54.0,1.0
2022-05-23 14:32:23.888648-07:00,1268.5,762.9,1002.2,935.6,844.4,801.0,1752.1,1367.6,3468.6,3468.6,999.6,805.2,1627.5,3473.4,1099.0,1085.1,3474.6,3477.1,1694.8,2110.8,3003.1,3491.7,1758.9,3489.2,3475.9,3478.3,626.2,787.7,1535.7,934.7,843.6,847.8,543.0,-269.0,460.0,6040.0,-7839.0,10959.0,-7100.0,1732.0,5097.0,2107.0,-72.0,104.0,-158.0,7828.0,-14221.0,2134.0,-608.0,1363.0,-96.0,319.0,1.0
2022-05-23 14:32:23.889840-07:00,1338.6,773.6,1002.2,935.6,850.3,812.7,1752.1,1367.6,3466.1,3479.5,999.6,805.2,1628.4,3469.8,1099.0,1085.1,3474.6,3477.1,1726.3,2115.9,3003.1,3491.7,1822.6,3489.2,3475.9,3478.3,635.1,788.6,1535.7,934.7,836.1,850.3,-304.0,65.0,-210.0,4961.0,-5411.0,11975.0,-8435.0,1880.0,6110.0,2647.0,178.0,-155.0,398.0,8455.0,-13800.0,2455.0,-701.0,1293.0,776.0,1025.0,1.0
2022-05-23 14:32:23.890953-07:00,1338.6,773.6,1008.2,929.6,850.3,812.7,1748.3,1372.1,3466.1,3479.5,997.0,804.4,1628.4,3469.8,1100.8,1083.4,3474.6,3475.9,1726.3,2115.9,3039.7,3501.4,1822.6,3489.2,3467.4,3477.1,635.1,788.6,1540.3,921.1,836.1,850.3,112.0,144.0,-111.0,4201.0,-3735.0,12515.0,-8956.0,333.0,3056.0,1450.0,39.0,15.0,17.0,8548.0,-13609.0,3084.0,-801.0,89.0,946.0,1055.0,1.0
2022-05-23 14:32:23.948696-07:00,1414.0,780.3,1001.3,929.6,852.8,801.0,1748.3,1372.1,3469.8,3468.6,1001.3,804.4,1625.6,3462.5,1100.8,1083.4,3474.6,3475.9,1812.9,2144.3,3039.7,3491.7,1857.6,3486.8,3467.4,3477.1,636.7,785.2,1540.3,929.6,831.1,835.2,114.0,107.0,-226.0,3555.0,-2807.0,12826.0,-9133.0,-141.0,2013.0,490.0,-13.0,76.0,-86.0,8418.0,-13564.0,3573.0,-906.0,-365.0,755.0,655.0,1.0
2022-05-23 14:32:23.978631-07:00,1414.0,780.3,1001.3,933.9,852.8,806.0,1718.6,1399.4,3469.8,3468.6,1001.3,804.4,1625.6,3478.3,1097.3,1081.6,3464.9,3477.1,1794.5,2144.3,3149.7,3491.7,1857.6,3486.8,3474.6,3475.9,631.9,785.2,1534.8,929.6,831.1,835.2,84.0,27.0,-309.0,3163.0,-2401.0,12966.0,-9195.0,183.0,876.0,147.0,-13.0,24.0,-41.0,8328.0,-13546.0,3824.0,-984.0,104.0,310.0,184.0,1.0
2022-05-23 14:32:24.039185-07:00,1442.4,795.2,1004.8,933.9,855.3,806.0,1718.6,1399.4,3462.5,3473.4,997.0,804.4,1625.6,3478.3,1097.3,1081.6,3464.9,3477.1,1794.5,2164.6,3149.7,3499.0,1868.4,3491.7,3474.6,3475.9,631.9,778.6,1534.8,918.6,837.7,843.6,205.0,-3.0,-87.0,3308.0,-2392.0,12855.0,-9301.0,265.0,-769.0,170.0,5.0,101.0,-176.0,8476.0,-13453.0,3808.0,-1047.0,416.0,-117.0,-140.0,1.0
2022-05-23 14:32:24.128723-07:00,1442.4,795.2,1004.8,922.8,855.3,807.7,1718.6,1401.2,3462.5,3473.4,997.0,807.7,1625.6,3478.3,1092.9,1086.0,3485.6,3467.4,1809.0,2164.6,3188.2,3499.0,1868.4,3491.7,3477.1,3478.3,627.0,778.6,1539.4,918.6,837.7,843.6,75.0,9.0,3.0,3625.0,-2456.0,12768.0,-9286.0,200.0,-600.0,318.0,33.0,20.0,-50.0,8627.0,-13389.0,3695.0,-1047.0,430.0,-311.0,-193.0,1.0
2022-05-23 14:32:24.131030-07:00,1441.5,792.7,986.7,922.8,858.7,807.7,1718.6,1401.2,3474.6,3469.8,1000.5,807.7,1625.6,3478.3,1092.9,1086.0,3485.6,3467.4,1809.0,2143.3,3188.2,3499.0,1866.4,3488.0,3477.1,3478.3,627.0,781.9,1539.4,922.0,835.2,844.4,-3.0,28.0,43.0,3851.0,-2468.0,12729.0,-9246.0,19.0,-318.0,248.0,-10.0,0.0,24.0,8776.0,-13328.0,3569.0,-1014.0,232.0,-202.0,-75.0,1.0
2022-05-23 14:32:24.188665-07:00,1441.5,792.7,986.7,925.4,847.0,807.7,1717.7,1401.2,3474.6,3469.8,1000.5,807.7,1623.7,3468.6,1101.7,1084.2,3483.2,3474.6,1775.2,2139.2,3106.7,3499.0,1866.4,3488.0,3477.1,3467.4,623.8,772.0,1534.8,922.0,835.2,844.4,-20.0,28.0,52.0,3917.0,-2480.0,12759.0,-9173.0,-219.0,-39.0,-4.0,-14.0,-12.0,54.0,8806.0,-13322.0,3528.0,-986.0,-128.0,-24.0,6.0,1.0
2022-05-23 14:32:24.248715-07:00,1418.6,799.4,991.0,922.0,847.0,807.7,1717.7,1401.2,3473.4,3472.2,999.6,807.7,1623.7,3468.6,1101.7,1084.2,3483.2,3474.6,1775.2,2139.2,3078.9,3495.3,1862.5,3491.7,3477.1,3467.4,623.8,772.0,1540.3,919.4,821.0,853.7,8.0,17.0,19.0,3871.0,-2499.0,12778.0,-9162.0,-22.0,96.0,-127.0,5.0,-1.0,40.0,8783.0,-13338.0,3528.0,-978.0,-131.0,25.0,-18.0,1.0
2022-05-23 14:32:24.308990-07:00,1418.6,799.4,991.0,922.0,849.5,797.7,1710.0,1392.1,3473.4,3472.2,999.6,807.7,1623.7,3462.5,1102.5,1087.7,3477.1,3478.3,1791.6,2134.1,3078.9,3495.3,1862.5,3491.7,3475.9,3488.0,626.2,772.0,1540.3,919.4,821.0,853.7,38.0,11.0,19.0,3798.0,-2510.0,12791.0,-9171.0,-2.0,117.0,-101.0,28.0,-3.0,24.0,8748.0,-13361.0,3524.0,-987.0,-126.0,30.0,-34.0,1.0
2022-05-23 14:32:24.368587-07:00,1423.1,791.9,986.7,921.1,849.5,797.7,1710.0,1392.1,3471.0,3473.4,991.9,805.2,1623.7,3462.5,1102.5,1087.7,3477.1,3478.3,1791.6,2134.1,3083.5,3486.8,1865.4,3495.3,3475.9,3488.0,626.2,772.0,1539.4,913.5,829.4,842.8,0.0,-13.0,14.0,3717.0,-2531.0,12812.0,-9169.0,-65.0,180.0,-128.0,8.0,-17.0,19.0,8685.0,-13401.0,3526.0,-993.0,-173.0,71.0,-19.0,1.0
2022-05-23 14:32:24.398681-07:00,1423.1,791.9,986.7,921.1,846.1,811.9,1691.9,1402.1,3471.0,3473.4,991.9,805.2,1623.7,3466.1,1105.1,1088.6,3477.1,3471.0,1781.0,2133.1,3083.5,3486.8,1865.4,3495.3,3471.0,3472.2,617.3,775.3,1539.4,913.5,829.4,842.8,58.0,-2.0,-18.0,3628.0,-2538.0,12826.0,-9183.0,-36.0,166.0,-137.0,-33.0,11.0,-27.0,8621.0,-13436.0,3547.0,-1007.0,-171.0,59.0,34.0,1.0
2022-05-23 14:32:24.428721-07:00,1422.2,800.2,997.9,911.8,846.1,811.9,1691.9,1402.1,3478.3,3469.8,1003.0,817.7,1623.7,3466.1,1105.1,1088.6,3477.1,3471.0,1781.0,2133.1,3076.6,3495.3,1856.7,3489.2,3471.0,3472.2,617.3,775.3,1541.3,915.2,838.6,844.4,54.0,-13.0,-43.0,3515.0,-2538.0,12859.0,-9182.0,-105.0,167.0,-142.0,-6.0,6.0,-22.0,8547.0,-13474.0,3582.0,-998.0,-197.0,59.0,50.0,1.0
2022-05-23 14:32:24.548784-07:00,1417.6,800.2,997.9,911.8,847.0,805.2,1691.9,1397.6,3473.4,3469.8,1003.0,817.7,1626.5,3477.1,1105.1,1090.3,3467.4,3480.7,1784.9,2126.0,3076.6,3495.3,1856.7,3497.8,3484.4,3483.2,630.3,767.8,1541.3,915.2,838.6,847.0,59.0,-9.0,-31.0,3457.0,-2550.0,12877.0,-9173.0,-65.0,56.0,-37.0,17.0,10.0,-20.0,8495.0,-13502.0,3606.0,-983.0,-70.0,-3.0,32.0,1.0
2022-05-23 14:32:24.550044-07:00,1417.6,791.9,985.0,914.4,847.0,805.2,1691.9,1390.3,3473.4,3467.4,997.0,807.7,1626.5,3477.1,1105.1,1096.4,3479.5,3480.7,1784.9,2126.0,3067.4,3491.7,1852.8,3497.8,3480.7,3483.2,630.3,767.8,1543.1,912.7,825.2,847.0,48.0,4.0,1.0,3434.0,-2588.0,12895.0,-9146.0,-54.0,-85.0,37.0,16.0,5.0,-8.0,8486.0,-13511.0,3600.0,-968.0,14.0,-55.0,-4.0,1.0
2022-05-23 14:32:24.579288-07:00,1405.8,791.9,985.0,914.4,854.5,796.9,1685.3,1390.3,3477.1,3467.4,997.0,807.7,1619.9,3467.4,1120.9,1096.4,3479.5,3485.6,1784.9,2113.9,3067.4,3491.7,1852.8,3503.9,3480.7,3479.5,627.8,765.3,1543.1,912.7,825.2,848.6,22.0,7.0,25.0,3456.0,-2604.0,12891.0,-9140.0,28.0,-67.0,33.0,8.0,0.0,11.0,8501.0,-13507.0,3579.0,-959.0,41.0,-46.0,-22.0,1.0
2022-05-23 14:32:24.638708-07:00,1405.8,788.6,980.7,918.6,854.5,796.9,1685.3,1377.5,3477.1,3467.4,993.6,810.2,1619.9,3467.4,1120.9,1089.5,3473.4,3485.6,1784.9,2113.9,3058.1,3484.4,1852.8,3503.9,3483.2,3479.5,627.8,765.3,1536.6,916.9,830.2,848.6,19.0,11.0,-1.0,3456.0,-2610.0,12884.0,-9148.0,-22.0,15.0,-37.0,7.0,-4.0,9.0,8507.0,-13507.0,3567.0,-958.0,-42.0,-5.0,-16.0,1.0
2022-05-23 14:32:24.669476-07:00,1411.3,788.6,980.7,918.6,848.6,799.4,1679.5,1377.5,3478.3,3467.4,993.6,810.2,1625.6,3468.6,1111.2,1089.5,3473.4,3469.8,1762.7,2111.8,3058.1,3484.4,1852.8,3490.5,3483.2,3473.4,628.6,764.5,1536.6,916.9,830.2,844.4,23.0,1.0,-3.0,3420.0,-2642.0,12883.0,-9153.0,-37.0,39.0,-84.0,17.0,-1.0,8.0,8480.0,-13525.0,3560.0,-958.0,-94.0,-9.0,-26.0,1.0
2022-05-23 14:32:24.758671-07:00,1411.3,795.2,974.8,925.4,848.6,799.4,1686.2,1378.5,3478.3,3469.8,1002.2,811.0,1625.6,3468.6,1120.9,1086.0,3478.3,3478.3,1762.7,2111.8,3059.3,3492.9,1863.5,3490.5,3478.3,3479.5,628.6,764.5,1549.7,911.8,823.5,844.4,25.0,5.0,-3.0,3405.0,-2682.0,12875.0,-9159.0,24.0,-75.0,-90.0,0.0,-4.0,-1.0,8455.0,-13545.0,3546.0,-962.0,-51.0,1.0,-50.0,1.0
2022-05-23 14:32:24.818689-07:00,1404.0,794.4,974.8,925.4,858.7,792.7,1686.2,1378.5,3471.0,3468.6,1002.2,811.0,1627.5,3475.9,1120.9,1086.0,3478.3,3478.3,1781.0,2130.1,3059.3,3492.9,1853.7,3492.9,3478.3,3479.5,626.2,762.9,1549.7,911.8,833.6,838.6,12.0,18.0,-24.0,3376.0,-2727.0,12865.0,-9170.0,-30.0,25.0,-139.0,-14.0,1.0,-1.0,8422.0,-13567.0,3538.0,-963.0,-127.0,17.0,-20.0,1.0
2022-05-23 14:32:24.820986-07:00,1404.0,794.4,987.6,919.4,858.7,792.7,1681.4,1347.6,3471.0,3468.6,999.6,811.9,1627.5,3475.9,1113.0,1092.1,3473.4,3480.7,1781.0,2130.1,3046.6,3495.3,1853.7,3492.9,3474.6,3483.2,626.2,762.9,1534.8,911.8,833.6,838.6,42.0,23.0,-16.0,3316.0,-2807.0,12868.0,-9165.0,-81.0,8.0,-257.0,0.0,16.0,-13.0,8354.0,-13609.0,3541.0,-951.0,-216.0,1.0,-11.0,1.0
2022-05-23 14:32:24.879084-07:00,1402.1,790.2,987.6,919.4,849.5,803.5,1681.4,1347.6,3463.7,3475.9,999.6,811.9,1621.8,3472.2,1113.0,1092.1,3473.4,3480.7,1786.8,2109.8,3046.6,3495.3,1848.9,3492.9,3474.6,3483.2,621.4,757.9,1534.8,911.8,829.4,831.9,16.0,3.0,4.0,3222.0,-2920.0,12872.0,-9157.0,-91.0,14.0,-341.0,15.0,-4.0,5.0,8256.0,-13670.0,3542.0,-930.0,-267.0,9.0,-19.0,1.0
2022-05-23 14:32:24.939435-07:00,1402.1,790.2,979.9,923.7,849.5,803.5,1680.5,1363.0,3463.7,3475.9,999.6,806.0,1621.8,3472.2,1127.9,1089.5,3471.0,3471.0,1786.8,2109.8,3042.0,3492.9,1848.9,3492.9,3474.6,3480.7,621.4,757.9,1533.8,911.8,829.4,831.9,30.0,-14.0,13.0,3139.0,-3040.0,12845.0,-9184.0,68.0,-10.0,-309.0,14.0,3.0,0.0,8176.0,-13718.0,3543.0,-925.0,-159.0,23.0,-15.0,1.0
2022-05-23 14:32:25.028663-07:00,1406.7,777.8,979.9,923.7,853.7,798.5,1680.5,1363.0,3468.6,3468.6,999.6,806.0,1619.0,3472.2,1127.9,1089.5,3471.0,3471.0,1762.7,2108.8,3042.0,3492.9,1848.9,3486.8,3474.6,3480.7,621.4,770.3,1533.8,911.8,827.7,845.3,17.0,-29.0,14.0,3069.0,-3107.0,12817.0,-9224.0,33.0,79.0,-169.0,18.0,-8.0,7.0,8126.0,-13748.0,3541.0,-923.0,-110.0,10.0,-17.0,1.0
2022-05-23 14:32:25.029964-07:00,1406.7,777.8,997.0,927.9,853.7,801.9,1681.4,1377.5,3468.6,3468.6,997.9,812.7,1619.0,3469.8,1122.6,1098.2,3477.1,3480.7,1769.5,2108.8,3052.4,3494.1,1848.9,3486.8,3472.2,3477.1,619.7,770.3,1538.5,915.2,827.7,845.3,11.0,-11.0,-30.0,3040.0,-3107.0,12804.0,-9252.0,-53.0,14.0,1.0,-7.0,9.0,0.0,8121.0,-13751.0,3539.0,-923.0,-41.0,-5.0,2.0,1.0
2022-05-23 14:32:25.088732-07:00,1404.0,786.9,1005.6,927.9,852.0,801.9,1681.4,1377.5,3467.4,3464.9,998.7,812.7,1623.7,3469.8,1122.6,1098.2,3477.1,3480.7,1769.5,2107.8,3052.4,3500.2,1845.9,3492.9,3472.2,3477.1,619.7,771.1,1538.5,916.0,831.9,843.6,19.0,7.0,-34.0,3040.0,-3091.0,12832.0,-9218.0,-112.0,22.0,100.0,-10.0,5.0,-12.0,8116.0,-13755.0,3542.0,-905.0,-12.0,-39.0,23.0,1.0
2022-05-23 14:32:25.118633-07:00,1404.0,786.9,1005.6,928.8,852.0,796.0,1687.2,1361.2,3467.4,3464.9,998.7,810.2,1623.7,3468.6,1124.4,1090.3,3488.0,3479.5,1785.8,2107.8,3042.0,3500.2,1845.9,3492.9,3478.3,3472.2,620.5,771.1,1535.7,916.0,831.9,843.6,21.0,20.0,-25.0,3045.0,-3074.0,12871.0,-9168.0,-100.0,-31.0,83.0,-9.0,11.0,-7.0,8125.0,-13752.0,3539.0,-882.0,16.0,-50.0,14.0,1.0
2022-05-23 14:32:25.208550-07:00,1404.9,779.4,1004.8,928.8,849.5,796.0,1687.2,1361.2,3471.0,3466.1,1004.8,810.2,1623.7,3468.6,1124.4,1090.3,3488.0,3479.5,1785.8,2104.8,3042.0,3495.3,1842.0,3497.8,3478.3,3472.2,620.5,767.8,1535.7,916.9,829.4,840.3,24.0,0.0,-8.0,3051.0,-3089.0,12906.0,-9112.0,-156.0,-44.0,32.0,4.0,11.0,-6.0,8121.0,-13758.0,3530.0,-860.0,-42.0,-47.0,-4.0,1.0
2022-05-23 14:32:25.239122-07:00,1404.9,779.4,1004.8,931.3,849.5,799.4,1675.7,1363.9,3471.0,3466.1,1004.8,805.2,1623.7,3463.7,1118.2,1092.9,3467.4,3472.2,1772.3,2104.8,3023.7,3495.3,1842.0,3497.8,3468.6,3467.4,618.1,767.8,1538.5,916.9,829.4,840.3,9.0,12.0,6.0,3070.0,-3111.0,12920.0,-9078.0,-35.0,-83.0,1.0,4.0,0.0,6.0,8119.0,-13765.0,3514.0,-842.0,-2.0,-57.0,-21.0,1.0
2022-05-23 14:32:25.269021-07:00,1410.3,787.7,1003.9,946.6,856.2,799.4,1675.7,1363.9,3473.4,3464.9,1000.5,806.0,1625.6,3463.7,1118.2,1092.9,3467.4,3472.2,1772.3,2082.6,3014.5,3507.5,1833.3,3492.9,3468.6,3467.4,618.1,770.3,1543.1,915.2,831.1,841.1,13.0,4.0,32.0,3090.0,-3140.0,12908.0,-9079.0,26.0,-44.0,-32.0,16.0,0.0,8.0,8125.0,-13767.0,3492.0,-834.0,16.0,-40.0,-31.0,1.0
2022-05-23 14:32:25.328740-07:00,1410.3,787.7,1003.9,946.6,847.8,800.2,1680.5,1366.6,3473.4,3464.9,1000.5,806.0,1619.9,3478.3,1133.1,1104.3,3473.4,3472.2,1756.0,2093.7,3014.5,3507.5,1833.3,3492.9,3477.1,3467.4,620.5,775.3,1543.1,915.2,831.1,841.1,-6.0,10.0,10.0,3084.0,-3140.0,12900.0,-9092.0,-14.0,28.0,-6.0,25.0,-9.0,22.0,8128.0,-13767.0,3481.0,-841.0,-13.0,19.0,-2.0,1.0
2022-05-23 14:32:25.479292-07:00,1401.2,789.4,1008.2,945.8,847.8,800.2,1680.5,1366.6,3473.4,3467.4,1000.5,808.5,1619.9,3478.3,1133.1,1104.3,3473.4,3472.2,1756.0,2093.7,3048.9,3488.0,1838.2,3490.5,3477.1,3467.4,620.5,775.3,1541.3,915.2,831.1,841.9,19.0,7.0,13.0,3065.0,-3150.0,12908.0,-9083.0,-36.0,49.0,-47.0,6.0,0.0,2.0,8108.0,-13776.0,3492.0,-852.0,-67.0,46.0,14.0,1.0
2022-05-23 14:32:25.480441-07:00,1401.2,789.4,1008.2,945.8,853.7,801.9,1663.4,1354.9,3473.4,3467.4,1000.5,808.5,1616.2,3471.0,1133.1,1097.3,3466.1,3480.7,1772.3,2086.6,3048.9,3488.0,1838.2,3490.5,3478.3,3481.9,620.5,767.0,1541.3,915.2,831.1,841.9,-6.0,0.0,-28.0,3019.0,-3146.0,12909.0,-9098.0,17.0,118.0,-32.0,-14.0,-4.0,5.0,8082.0,-13787.0,3509.0,-861.0,-45.0,45.0,17.0,1.0
2022-05-23 14:32:25.481271-07:00,1397.6,780.3,1008.2,939.8,853.7,801.9,1663.4,1354.9,3471.0,3468.6,1003.0,803.5,1616.2,3471.0,1133.1,1097.3,3466.1,3480.7,1772.3,2086.6,3023.7,3486.8,1842.0,3489.2,3478.3,3481.9,620.5,767.0,1539.4,916.9,829.4,847.0,23.0,0.0,-22.0,3002.0,-3147.0,12914.0,-9097.0,5.0,10.0,-7.0,-10.0,6.0,-9.0,8066.0,-13791.0,3528.0,-860.0,-16.0,22.0,28.0,1.0
2022-05-23 14:32:25.598207-07:00,1391.2,780.3,1008.2,939.8,855.3,791.0,1667.2,1346.7,3478.3,3468.6,1003.0,803.5,1619.0,3472.2,1133.1,1096.4,3472.2,3481.9,1770.4,2095.7,3023.7,3486.8,1842.0,3488.0,3469.8,3478.3,613.3,772.0,1539.4,916.9,829.4,843.6,36.0,12.0,-3.0,2981.0,-3163.0,12915.0,-9097.0,-5.0,28.0,-46.0,7.0,14.0,-12.0,8053.0,-13796.0,3537.0,-858.0,-35.0,9.0,7.0,1.0
2022-05-23 14:32:25.629468-07:00,1391.2,776.1,1003.9,941.5,855.3,791.0,1667.2,1356.7,3478.3,3472.2,1003.0,802.7,1619.0,3472.2,1133.1,1094.7,3478.3,3481.9,1770.4,2095.7,3020.2,3495.3,1834.3,3488.0,3485.6,3478.3,613.3,772.0,1534.8,921.1,829.4,843.6,19.0,11.0,6.0,2941.0,-3183.0,12919.0,-9097.0,-29.0,59.0,-81.0,14.0,5.0,5.0,8031.0,-13808.0,3542.0,-854.0,-84.0,15.0,9.0,1.0
2022-05-23 14:32:25.630409-07:00,1403.0,776.1,1003.9,941.5,850.3,791.0,1673.8,1356.7,3472.2,3472.2,1003.0,802.7,1613.4,3472.2,1127.9,1094.7,3478.3,3480.7,1772.3,2089.6,3020.2,3495.3,1834.3,3489.2,3485.6,3480.7,623.0,763.7,1534.8,921.1,829.4,837.7,22.0,-9.0,8.0,2924.0,-3194.0,12903.0,-9122.0,115.0,32.0,-10.0,5.0,2.0,-4.0,8012.0,-13818.0,3544.0,-856.0,39.0,-1.0,-4.0,1.0
2022-05-23 14:32:25.688786-07:00,1403.0,785.2,1009.0,944.1,850.3,791.0,1673.8,1338.6,3472.2,3477.1,991.9,800.2,1613.4,3472.2,1127.9,1095.6,3483.2,3480.7,1772.3,2089.6,2991.7,3492.9,1842.0,3489.2,3473.4,3480.7,623.0,763.7,1539.4,918.6,838.6,837.7,19.0,13.0,-18.0,2915.0,-3177.0,12881.0,-9161.0,81.0,33.0,9.0,1.0,9.0,-8.0,8035.0,-13806.0,3540.0,-856.0,45.0,-34.0,1.0,1.0
2022-05-23 14:32:25.718552-07:00,1393.9,785.2,1009.0,944.1,852.0,792.7,1674.8,1338.6,3462.5,3477.1,991.9,800.2,1615.2,3469.8,1134.0,1095.6,3483.2,3473.4,1768.5,2094.7,2991.7,3492.9,1842.0,3484.4,3473.4,3478.3,617.3,756.3,1539.4,918.6,838.6,839.4,9.0,-1.0,-14.0,2910.0,-3172.0,12883.0,-9161.0,14.0,-24.0,31.0,5.0,-1.0,2.0,8046.0,-13803.0,3530.0,-843.0,59.0,-51.0,-14.0,1.0
2022-05-23 14:32:25.779029-07:00,1393.9,771.1,1009.9,937.3,852.0,792.7,1674.8,1350.3,3462.5,3478.3,1002.2,801.9,1615.2,3469.8,1134.0,1097.3,3479.5,3473.4,1768.5,2094.7,3009.9,3486.8,1831.3,3484.4,3479.5,3478.3,617.3,756.3,1534.8,916.9,828.5,839.4,14.0,3.0,13.0,2945.0,-3180.0,12881.0,-9151.0,-31.0,-67.0,43.0,5.0,2.0,3.0,8070.0,-13795.0,3510.0,-835.0,39.0,-28.0,-26.0,1.0
2022-05-23 14:32:25.898875-07:00,1383.0,772.8,1009.9,937.3,840.3,795.2,1668.2,1350.3,3473.4,3469.8,1002.2,801.9,1615.2,3475.9,1129.6,1097.3,3479.5,3469.8,1769.5,2083.6,3009.9,3486.8,1833.3,3495.3,3479.5,3472.2,617.3,761.2,1534.8,916.9,836.1,843.6,0.0,13.0,7.0,2964.0,-3170.0,12879.0,-9151.0,31.0,-2.0,27.0,-4.0,-4.0,10.0,8088.0,-13787.0,3498.0,-840.0,29.0,12.0,-9.0,1.0
2022-05-23 14:32:25.900199-07:00,1383.0,772.8,1006.5,935.6,840.3,795.2,1673.8,1337.7,3473.4,3469.8,998.7,801.9,1615.2,3475.9,1125.2,1093.8,3473.4,3473.4,1769.5,2083.6,3020.2,3507.5,1833.3,3495.3,3478.3,3480.7,617.3,761.2,1532.9,916.0,836.1,843.6,-4.0,19.0,-9.0,2954.0,-3181.0,12875.0,-9155.0,-39.0,9.0,-92.0,-5.0,0.0,9.0,8079.0,-13790.0,3504.0,-848.0,-109.0,41.0,9.0,1.0
2022-05-23 14:32:25.958603-07:00,1393.0,786.1,1006.5,935.6,849.5,791.9,1673.8,1337.7,3468.6,3469.8,998.7,801.9,1618.1,3467.4,1125.2,1093.8,3473.4,3473.4,1768.5,2092.6,3020.2,3507.5,1834.3,3485.6,3478.3,3480.7,619.7,760.4,1532.9,916.0,832.7,844.4,8.0,13.0,-8.0,2904.0,-3223.0,12880.0,-9150.0,-56.0,59.0,-149.0,3.0,-1.0,-5.0,8029.0,-13815.0,3521.0,-848.0,-146.0,38.0,18.0,1.0
2022-05-23 14:32:26.048679-07:00,1393.0,786.1,1012.5,946.6,849.5,791.9,1665.3,1333.2,3468.6,3469.8,1001.3,805.2,1618.1,3467.4,1129.6,1098.2,3469.8,3480.7,1768.5,2092.6,3024.8,3494.1,1834.3,3485.6,3480.7,3483.2,619.7,760.4,1532.0,916.0,832.7,844.4,5.0,-16.0,10.0,2831.0,-3241.0,12876.0,-9171.0,46.0,155.0,-91.0,12.0,-10.0,6.0,7985.0,-13836.0,3540.0,-848.0,-39.0,50.0,39.0,1.0
2022-05-23 14:32:26.139364-07:00,1385.7,778.6,1012.5,946.6,853.7,796.9,1665.3,1333.2,3472.2,3472.2,1001.3,805.2,1612.4,3468.6,1129.6,1098.2,3469.8,3480.7,1760.8,2054.4,3024.8,3494.1,1833.3,3491.7,3480.7,3483.2,613.3,766.2,1532.0,916.0,833.6,845.3,14.0,-12.0,-11.0,2787.0,-3216.0,12887.0,-9179.0,-44.0,78.0,43.0,9.0,1.0,-5.0,7970.0,-13836.0,3571.0,-852.0,1.0,43.0,71.0,1.0
2022-05-23 14:32:26.141433-07:00,1385.7,778.6,1012.5,944.1,853.7,783.6,1656.8,1335.9,3472.2,3472.2,1001.3,811.9,1612.4,3477.1,1120.9,1092.9,3480.7,3478.3,1761.8,2054.4,3014.5,3497.8,1833.3,3491.7,3467.4,3478.3,618.1,766.2,1530.1,916.9,833.6,845.3,27.0,25.0,-23.0,2771.0,-3194.0,12898.0,-9176.0,15.0,60.0,33.0,4.0,13.0,-12.0,7971.0,-13829.0,3596.0,-851.0,6.0,-4.0,30.0,1.0
2022-05-23 14:32:26.142416-07:00,1391.2,785.2,1028.8,944.1,854.5,783.6,1656.8,1335.9,3473.4,3467.4,991.9,811.9,1621.8,3477.1,1120.9,1092.9,3480.7,3478.3,1761.8,2084.6,3014.5,3499.0,1830.4,3489.2,3467.4,3478.3,618.1,764.5,1530.1,916.0,827.7,838.6,30.0,10.0,-13.0,2755.0,-3217.0,12903.0,-9166.0,-1.0,-43.0,-47.0,-1.0,15.0,-10.0,7963.0,-13835.0,3593.0,-840.0,-24.0,-49.0,-27.0,1.0
2022-05-23 14:32:26.168694-07:00,1391.2,785.2,1028.8,945.8,854.5,796.9,1660.6,1340.4,3473.4,3467.4,991.9,806.9,1621.8,3473.4,1132.2,1098.2,3475.9,3467.4,1762.7,2084.6,3015.7,3499.0,1830.4,3489.2,3474.6,3474.6,620.5,764.5,1532.9,916.0,827.7,838.6,30.0,-15.0,25.0,2776.0,-3247.0,12885.0,-9173.0,97.0,-74.0,9.0,5.0,0.0,6.0,7971.0,-13840.0,3561.0,-829.0,56.0,-71.0,-61.0,1.0
2022-05-23 14:32:26.348695-07:00,1382.1,774.5,1028.8,945.8,840.3,796.9,1660.6,1340.4,3467.4,3475.9,1002.2,806.9,1614.3,3473.4,1132.2,1098.2,3475.9,3467.4,1762.7,2081.6,3015.7,3505.1,1817.8,3490.5,3474.6,3474.6,620.5,765.3,1532.9,915.2,834.4,848.6,7.0,17.0,-22.0,2840.0,-3267.0,12850.0,-9196.0,86.0,-264.0,-14.0,4.0,11.0,-7.0,8010.0,-13828.0,3518.0,-827.0,77.0,-62.0,-79.0,1.0
2022-05-23 14:32:26.351210-07:00,1382.1,774.5,1028.8,950.9,840.3,791.0,1654.9,1322.3,3467.4,3475.9,1002.2,805.2,1614.3,3469.8,1125.2,1096.4,3484.4,3473.4,1769.5,2081.6,3006.5,3505.1,1817.8,3490.5,3478.3,3473.4,614.1,765.3,1528.3,915.2,834.4,848.6,37.0,-10.0,9.0,2936.0,-3336.0,12801.0,-9210.0,137.0,-229.0,8.0,10.0,12.0,-16.0,8044.0,-13822.0,3464.0,-829.0,125.0,-92.0,-109.0,1.0
2022-05-23 14:32:26.378698-07:00,1397.6,767.8,1050.4,950.9,852.8,791.0,1654.9,1322.3,3471.0,3471.0,999.6,805.2,1611.5,3469.8,1125.2,1096.4,3484.4,3473.4,1769.5,2088.6,3006.5,3496.6,1831.3,3496.6,3478.3,3473.4,614.1,768.7,1528.3,916.9,838.6,847.0,-25.0,-6.0,-16.0,3026.0,-3331.0,12775.0,-9218.0,66.0,-191.0,150.0,-13.0,-15.0,19.0,8110.0,-13797.0,3410.0,-821.0,182.0,-108.0,-48.0,1.0
2022-05-23 14:32:26.379950-07:00,1397.6,767.8,1050.4,967.1,852.8,800.2,1653.9,1335.9,3471.0,3471.0,999.6,808.5,1617.1,3462.5,1116.5,1093.8,3463.7,3483.2,1758.9,2061.5,3015.7,3496.6,1831.3,3496.6,3472.2,3475.9,614.1,767.0,1536.6,916.9,838.6,847.0,26.0,30.0,-6.0,3149.0,-3375.0,12754.0,-9190.0,-12.0,-339.0,5.0,-14.0,22.0,-9.0,8169.0,-13772.0,3374.0,-803.0,74.0,-92.0,-35.0,1.0
2022-05-23 14:32:26.438959-07:00,1385.7,782.7,1047.8,959.4,852.8,800.2,1653.9,1335.9,3475.9,3462.5,997.0,804.4,1617.1,3462.5,1116.5,1093.8,3463.7,3483.2,1758.9,2061.5,3019.1,3492.9,1829.4,3507.5,3472.2,3475.9,614.1,767.0,1531.0,919.4,830.2,844.4,-53.0,18.0,-25.0,3202.0,-3467.0,12743.0,-9154.0,-112.0,-274.0,-135.0,12.0,-27.0,50.0,8159.0,-13789.0,3337.0,-776.0,-117.0,-77.0,-54.0,1.0
2022-05-23 14:32:26.558956-07:00,1385.7,782.7,1047.8,959.4,851.1,791.9,1660.6,1333.2,3475.9,3462.5,997.0,804.4,1613.4,3473.4,1127.0,1091.2,3473.4,3473.4,1761.8,2081.6,3019.1,3492.9,1829.4,3507.5,3467.4,3478.3,644.9,759.6,1531.0,919.4,830.2,844.4,-274.0,173.0,-240.0,3407.0,-3795.0,12691.0,-9020.0,-392.0,-1549.0,-500.0,45.0,-63.0,174.0,8111.0,-13828.0,3293.0,-780.0,-162.0,26.0,-185.0,1.0
2022-05-23 14:32:26.560216-07:00,1374.8,775.3,1036.6,962.0,851.1,791.9,1660.6,1333.2,3471.0,3473.4,997.0,805.2,1613.4,3473.4,1127.0,1091.2,3473.4,3473.4,1761.8,2081.6,3055.8,3488.0,1829.4,3494.1,3467.4,3478.3,644.9,759.6,1537.6,916.9,848.6,841.9,-35.0,333.0,-468.0,4322.0,-5468.0,12260.0,-8340.0,-1559.0,-6232.0,-2621.0,-45.0,105.0,11.0,7839.0,-13997.0,3221.0,-835.0,-1306.0,168.0,-338.0,1.0
2022-05-23 14:32:26.618627-07:00,1374.8,775.3,1036.6,962.0,853.7,843.6,1692.9,1347.6,3471.0,3473.4,997.0,805.2,1618.1,3478.3,1122.6,1094.7,3467.4,3481.9,1785.8,2137.2,3055.8,3488.0,1829.4,3494.1,3475.9,3479.5,656.2,811.9,1537.6,916.9,848.6,841.9,378.0,52.0,-398.0,5286.0,-8137.0,11330.0,-6775.0,-2715.0,-6671.0,-3561.0,-13.0,74.0,-104.0,6958.0,-14478.0,3126.0,-801.0,-2584.0,143.0,-589.0,1.0
2022-05-23 14:32:26.619944-07:00,1359.4,774.5,1033.2,944.1,853.7,843.6,1692.9,1343.1,3468.6,3478.3,997.9,816.9,1618.1,3478.3,1122.6,1103.4,3469.8,3481.9,1785.8,2137.2,3106.7,3491.7,1815.8,3492.9,3469.8,3479.5,656.2,811.9,1533.8,918.6,837.7,831.9,383.0,-448.0,134.0,5842.0,-9719.0,10331.0,-5754.0,238.0,-2344.0,-969.0,49.0,-138.0,-144.0,6307.0,-14829.0,2871.0,-711.0,-269.0,-469.0,-842.0,1.0
2022-05-23 14:32:26.679367-07:00,1319.6,774.5,1033.2,944.1,859.5,816.0,1707.2,1343.1,3472.2,3478.3,997.9,816.9,1618.1,3473.4,1120.0,1103.4,3469.8,3477.1,1759.8,2229.1,3106.7,3491.7,1815.8,3488.0,3469.8,3478.3,679.1,809.4,1533.8,918.6,837.7,837.7,137.0,-110.0,252.0,6805.0,-9520.0,9717.0,-6089.0,3489.0,-884.0,21.0,47.0,-45.0,71.0,7236.0,-14467.0,2485.0,-780.0,3220.0,-428.0,-377.0,1.0
2022-05-23 14:32:26.768712-07:00,1319.6,764.5,1021.9,952.6,859.5,816.0,1707.2,1336.8,3472.2,3467.4,1001.3,815.2,1618.1,3473.4,1120.0,1093.8,3478.3,3477.1,1759.8,2229.1,3091.6,3495.3,1792.6,3488.0,3477.1,3478.3,679.1,809.4,1535.7,916.0,831.9,837.7,-12.0,218.0,-16.0,7544.0,-9200.0,9130.0,-6598.0,1217.0,-543.0,-330.0,-7.0,133.0,-23.0,8056.0,-14050.0,2321.0,-869.0,709.0,-150.0,-126.0,1.0
2022-05-23 14:32:26.771945-07:00,1296.3,764.5,1021.9,952.6,852.0,819.4,1699.5,1336.8,3478.3,3467.4,1001.3,815.2,1616.2,3467.4,1104.3,1093.8,3478.3,3478.3,1741.6,2222.9,3091.6,3495.3,1792.6,3489.2,3477.1,3480.7,675.8,795.2,1535.7,916.0,831.9,841.1,-95.0,-128.0,149.0,7386.0,-9379.0,9197.0,-6429.0,-1193.0,99.0,97.0,-50.0,-84.0,92.0,7814.0,-14200.0,2264.0,-792.0,-851.0,-130.0,-39.0,1.0
2022-05-23 14:32:26.829627-07:00,1296.3,769.5,1010.8,930.5,852.0,819.4,1699.5,1360.3,3478.3,3468.6,999.6,806.9,1616.2,3467.4,1104.3,1082.5,3475.9,3478.3,1741.6,2222.9,3073.1,3494.1,1781.0,3489.2,3478.3,3480.7,675.8,795.2,1526.4,910.1,830.2,841.1,-48.0,-13.0,86.0,7319.0,-9375.0,9318.0,-6336.0,254.0,91.0,177.0,-10.0,-51.0,79.0,7782.0,-14217.0,2277.0,-752.0,280.0,-15.0,90.0,1.0
2022-05-23 14:32:26.888736-07:00,1294.5,769.5,1010.8,930.5,845.3,807.7,1694.8,1360.3,3472.2,3466.1,999.6,806.9,1614.3,3473.4,1093.8,1082.5,3475.9,3472.2,1734.9,2207.5,3073.1,3494.1,1766.6,3489.2,3478.3,3479.5,666.0,788.6,1526.4,910.1,830.2,839.4,-4.0,60.0,-7.0,7341.0,-9305.0,9339.0,-6383.0,-62.0,121.0,34.0,8.0,15.0,13.0,7811.0,-14200.0,2283.0,-748.0,-91.0,-9.0,-18.0,1.0
2022-05-23 14:32:26.949192-07:00,1294.5,769.5,1002.2,922.0,845.3,807.7,1698.6,1383.9,3472.2,3466.1,991.9,811.9,1614.3,3473.4,1099.9,1085.1,3479.5,3469.8,1734.9,2207.5,3069.7,3501.4,1766.6,3489.2,3467.4,3478.3,666.0,788.6,1534.8,911.8,830.2,839.4,3.0,-6.0,3.0,7273.0,-9313.0,9378.0,-6392.0,-34.0,120.0,-72.0,24.0,-28.0,19.0,7777.0,-14221.0,2269.0,-745.0,11.0,-15.0,-31.0,1.0
2022-05-23 14:32:27.069396-07:00,1285.5,761.2,1002.2,922.0,842.8,810.2,1698.6,1383.9,3471.0,3478.3,991.9,811.9,1614.3,3464.9,1099.9,1085.1,3479.5,3469.8,1725.3,2198.3,3069.7,3501.4,1764.6,3477.1,3467.4,3478.3,657.9,782.7,1534.8,911.8,831.1,850.3,6.0,8.0,-17.0,7279.0,-9305.0,9334.0,-6462.0,187.0,38.0,-127.0,22.0,3.0,-6.0,7828.0,-14196.0,2253.0,-751.0,138.0,-38.0,-15.0,1.0
2022-05-23 14:32:27.071125-07:00,1285.5,761.2,995.3,928.8,842.8,810.2,1683.3,1358.5,3471.0,3478.3,993.6,816.0,1614.3,3464.9,1096.4,1085.1,3464.9,3472.2,1725.3,2198.3,3061.6,3489.2,1764.6,3477.1,3468.6,3483.2,657.9,782.7,1543.1,911.0,831.1,850.3,-27.0,13.0,-10.0,7267.0,-9316.0,9292.0,-6519.0,57.0,23.0,-181.0,8.0,-5.0,25.0,7863.0,-14182.0,2223.0,-745.0,64.0,-64.0,-58.0,1.0
2022-05-23 14:32:27.072668-07:00,1285.5,757.1,995.3,928.8,852.0,809.4,1683.3,1358.5,3467.4,3472.2,993.6,816.0,1619.0,3466.1,1096.4,1085.1,3464.9,3472.2,1720.5,2202.4,3061.6,3489.2,1763.7,3489.2,3468.6,3483.2,660.3,795.2,1543.1,911.0,826.9,846.1,-6.0,-11.0,29.0,7265.0,-9350.0,9239.0,-6547.0,58.0,27.0,-89.0,-9.0,-7.0,24.0,7886.0,-14177.0,2170.0,-746.0,80.0,-54.0,-125.0,1.0
2022-05-23 14:32:27.249346-07:00,1285.5,757.1,1001.3,929.6,852.0,809.4,1665.3,1359.4,3467.4,3472.2,988.5,813.5,1619.0,3466.1,1100.8,1084.2,3473.4,3472.2,1720.5,2202.4,3051.2,3492.9,1763.7,3489.2,3464.9,3481.9,660.3,795.2,1532.9,920.3,826.9,846.1,-23.0,-21.0,62.0,7239.0,-9281.0,9285.0,-6609.0,47.0,317.0,134.0,6.0,-36.0,55.0,7934.0,-14156.0,2123.0,-762.0,93.0,-2.0,-74.0,1.0
2022-05-23 14:32:27.278776-07:00,1285.5,757.9,1003.0,929.6,842.8,809.4,1665.3,1359.4,3468.6,3475.9,993.6,813.5,1614.3,3464.9,1100.8,1084.2,3473.4,3472.2,1718.6,2201.4,3051.2,3486.8,1757.9,3489.2,3464.9,3481.9,655.4,783.6,1532.9,917.7,824.4,841.1,-38.0,4.0,22.0,7187.0,-9212.0,9367.0,-6647.0,-119.0,233.0,31.0,-14.0,-32.0,42.0,7920.0,-14163.0,2126.0,-777.0,-109.0,41.0,19.0,1.0
2022-05-23 14:32:27.280153-07:00,1285.5,757.9,1003.0,922.0,842.8,815.2,1661.5,1344.0,3468.6,3475.9,993.6,807.7,1614.3,3471.0,1097.3,1089.5,3472.2,3466.1,1720.5,2201.4,3039.7,3486.8,1757.9,3489.2,3472.2,3464.9,653.0,783.6,1532.9,917.7,824.4,841.1,-61.0,-4.0,-23.0,7105.0,-9185.0,9435.0,-6676.0,-93.0,216.0,29.0,-32.0,-7.0,16.0,7873.0,-14187.0,2144.0,-767.0,-119.0,-8.0,40.0,1.0
2022-05-23 14:32:27.281206-07:00,1271.2,755.4,998.7,922.0,855.3,815.2,1661.5,1344.0,3477.1,3462.5,996.2,807.7,1609.6,3471.0,1097.3,1089.5,3472.2,3466.1,1720.5,2180.9,3039.7,3486.8,1756.0,3491.7,3472.2,3464.9,653.0,783.6,1532.9,916.9,812.7,844.4,-22.0,29.0,-40.0,7069.0,-9186.0,9473.0,-6659.0,-117.0,-37.0,27.0,8.0,11.0,10.0,7848.0,-14199.0,2156.0,-755.0,-87.0,1.0,3.0,1.0
2022-05-23 14:32:27.338695-07:00,1271.2,755.4,998.7,923.7,855.3,804.4,1648.3,1331.4,3477.1,3462.5,996.2,810.2,1609.6,3471.0,1099.0,1076.4,3480.7,3466.1,1711.9,2180.9,3031.7,3486.8,1756.0,3491.7,3477.1,3479.5,648.9,783.6,1532.0,916.9,812.7,844.4,16.0,48.0,7.0,7044.0,-9238.0,9475.0,-6610.0,-99.0,-84.0,-121.0,32.0,-8.0,22.0,7808.0,-14223.0,2144.0,-765.0,-33.0,35.0,-114.0,1.0
2022-05-23 14:32:27.368769-07:00,1285.5,761.2,1007.3,923.7,852.8,804.4,1648.3,1331.4,3475.9,3467.4,994.5,810.2,1609.6,3471.0,1099.0,1076.4,3480.7,3466.1,1711.9,2183.0,3031.7,3502.7,1751.2,3491.7,3477.1,3479.5,648.9,785.2,1532.0,915.2,831.9,836.1,12.0,-52.0,18.0,7045.0,-9270.0,9413.0,-6653.0,151.0,23.0,-110.0,19.0,-20.0,19.0,7823.0,-14219.0,2098.0,-808.0,115.0,-5.0,-121.0,1.0
2022-05-23 14:32:27.458652-07:00,1285.5,761.2,1007.3,924.5,842.8,805.2,1661.5,1344.0,3475.9,3467.4,994.5,819.4,1614.3,3467.4,1108.6,1081.6,3480.7,3478.3,1702.4,2177.9,3030.6,3502.7,1751.2,3491.7,3478.3,3475.9,653.8,785.2,1540.3,915.2,831.9,836.1,-30.0,-47.0,21.0,7093.0,-9215.0,9415.0,-6675.0,101.0,-12.0,197.0,8.0,-31.0,31.0,7895.0,-14183.0,2063.0,-828.0,186.0,-32.0,28.0,1.0
2022-05-23 14:32:27.488790-07:00,1258.7,759.6,1012.5,933.0,842.8,805.2,1661.5,1344.0,3458.9,3474.6,990.2,820.2,1614.3,3467.4,1108.6,1081.6,3480.7,3478.3,1702.4,2177.9,3014.5,3492.9,1754.1,3489.2,3478.3,3475.9,653.8,785.2,1532.0,933.0,832.7,844.4,-25.0,16.0,15.0,7104.0,-9177.0,9481.0,-6622.0,-157.0,39.0,181.0,-6.0,-9.0,22.0,7929.0,-14164.0,2072.0,-807.0,-23.0,-30.0,62.0,1.0
2022-05-23 14:32:27.638923-07:00,1258.7,759.6,1012.5,933.0,857.0,801.9,1655.8,1337.7,3458.9,3474.6,990.2,820.2,1606.8,3467.4,1106.9,1084.2,3474.6,3478.3,1711.0,2163.6,3014.5,3492.9,1754.1,3489.2,3481.9,3475.9,645.7,784.4,1532.0,933.0,832.7,844.4,-35.0,52.0,11.0,7101.0,-9142.0,9543.0,-6586.0,-10.0,65.0,120.0,-28.0,3.0,25.0,7944.0,-14154.0,2087.0,-793.0,71.0,19.0,-10.0,1.0
2022-05-23 14:32:27.640360-07:00,1271.2,766.2,993.6,933.9,857.0,801.9,1655.8,1337.7,3477.1,3478.3,993.6,811.0,1606.8,3467.4,1106.9,1084.2,3474.6,3478.3,1711.0,2163.6,3028.3,3494.1,1753.1,3486.8,3481.9,3475.9,645.7,784.4,1530.1,916.9,836.9,839.4,-45.0,45.0,-14.0,7091.0,-9127.0,9537.0,-6625.0,75.0,34.0,-138.0,-21.0,7.0,16.0,7978.0,-14135.0,2083.0,-804.0,-28.0,25.0,-85.0,1.0
2022-05-23 14:32:27.641585-07:00,1271.2,766.2,993.6,933.9,857.0,811.0,1670.1,1330.5,3477.1,3478.3,993.6,811.0,1613.4,3464.9,1102.5,1086.0,3480.7,3478.3,1711.0,2170.7,3028.3,3494.1,1753.1,3486.8,3477.1,3467.4,650.5,776.1,1530.1,916.9,836.9,839.4,-28.0,-40.0,-22.0,7051.0,-9195.0,9515.0,-6607.0,-247.0,-109.0,-86.0,10.0,-23.0,15.0,7921.0,-14171.0,2054.0,-809.0,-235.0,-50.0,-65.0,1.0
2022-05-23 14:32:27.699264-07:00,1272.1,775.3,1008.2,932.2,857.0,811.0,1670.1,1330.5,3471.0,3478.3,988.5,807.7,1613.4,3464.9,1102.5,1084.2,3467.4,3478.3,1711.0,2170.7,3013.4,3486.8,1752.1,3488.0,3479.5,3467.4,650.5,776.1,1534.8,917.7,825.2,836.9,36.0,-2.0,41.0,7053.0,-9237.0,9528.0,-6526.0,-68.0,-115.0,92.0,59.0,-10.0,26.0,7871.0,-14204.0,2027.0,-791.0,-9.0,-33.0,-35.0,1.0
2022-05-23 14:32:27.728739-07:00,1259.6,775.3,1008.2,932.2,844.4,806.0,1653.9,1330.5,3473.4,3478.3,988.5,807.7,1616.2,3474.6,1102.5,1084.2,3467.4,3472.2,1702.4,2177.9,3013.4,3486.8,1752.1,3507.5,3479.5,3475.9,648.9,782.7,1534.8,917.7,825.2,824.4,49.0,33.0,46.0,7063.0,-9243.0,9516.0,-6525.0,47.0,47.0,-98.0,42.0,2.0,15.0,7872.0,-14205.0,2010.0,-802.0,-6.0,43.0,-77.0,1.0
2022-05-23 14:32:27.788727-07:00,1259.6,763.7,1002.2,927.1,844.4,806.0,1653.9,1320.5,3473.4,3471.0,991.0,808.5,1616.2,3474.6,1102.5,1084.2,3478.3,3472.2,1702.4,2177.9,3023.7,3496.6,1747.3,3507.5,3478.3,3475.9,648.9,782.7,1533.8,917.7,830.2,824.4,-41.0,-36.0,0.0,7015.0,-9244.0,9511.0,-6581.0,-12.0,129.0,-66.0,-13.0,-26.0,34.0,7863.0,-14211.0,1988.0,-840.0,-63.0,28.0,-42.0,1.0
2022-05-23 14:32:27.878800-07:00,1275.6,763.7,1002.2,927.1,848.6,805.2,1650.2,1320.5,3479.5,3471.0,991.0,808.5,1604.0,3472.2,1104.3,1084.2,3478.3,3463.7,1707.2,2160.5,3023.7,3496.6,1747.3,3486.8,3478.3,3467.4,645.7,790.2,1533.8,917.7,830.2,843.6,-39.0,-7.0,5.0,6986.0,-9251.0,9543.0,-6556.0,-160.0,0.0,75.0,-26.0,-16.0,8.0,7822.0,-14234.0,1985.0,-840.0,-139.0,-16.0,-3.0,1.0
2022-05-23 14:32:27.880059-07:00,1275.6,755.4,1006.5,922.0,848.6,805.2,1650.2,1322.3,3479.5,3483.2,997.9,811.9,1604.0,3472.2,1104.3,1086.8,3473.4,3463.7,1707.2,2160.5,3006.5,3491.7,1748.3,3486.8,3471.0,3467.4,645.7,790.2,1529.2,916.9,834.4,843.6,-17.0,9.0,17.0,6973.0,-9232.0,9578.0,-6545.0,37.0,108.0,28.0,-1.0,-1.0,15.0,7811.0,-14241.0,1984.0,-823.0,13.0,-24.0,-4.0,1.0
2022-05-23 14:32:27.908861-07:00,1259.6,755.4,1006.5,922.0,841.9,809.4,1649.2,1322.3,3471.0,3483.2,997.9,811.9,1604.0,3469.8,1106.0,1086.8,3473.4,3488.0,1697.6,2160.5,3006.5,3491.7,1748.3,3486.8,3471.0,3479.5,651.4,785.2,1529.2,916.9,834.4,837.7,-31.0,10.0,-11.0,6963.0,-9210.0,9591.0,-6570.0,8.0,45.0,-27.0,-1.0,-4.0,19.0,7816.0,-14239.0,1978.0,-825.0,-15.0,0.0,-17.0,1.0
2022-05-23 14:32:27.968729-07:00,1259.6,752.9,1008.2,933.0,841.9,809.4,1638.8,1307.9,3471.0,3464.9,991.9,806.9,1604.0,3469.8,1102.5,1087.7,3477.1,3480.7,1697.6,2160.5,3000.8,3497.8,1749.3,3486.8,3474.6,3475.9,651.4,785.2,1540.3,923.7,840.3,837.7,-10.0,0.0,9.0,6965.0,-9217.0,9596.0,-6549.0,-53.0,-28.0,23.0,3.0,2.0,8.0,7803.0,-14246.0,1978.0,-829.0,-45.0,13.0,-8.0,1.0
2022-05-23 14:32:28.029314-07:00,1257.8,755.4,1008.2,933.0,841.1,803.5,1638.8,1307.9,3467.4,3461.3,991.9,806.9,1608.7,3473.4,1102.5,1087.7,3477.1,3480.7,1692.9,2158.5,3000.8,3497.8,1740.6,3488.0,3474.6,3475.9,648.1,780.3,1540.3,923.7,831.1,837.7,-11.0,-7.0,26.0,6948.0,-9199.0,9632.0,-6539.0,-15.0,113.0,64.0,14.0,-28.0,32.0,7793.0,-14251.0,1978.0,-835.0,8.0,14.0,-4.0,1.0
2022-05-23 14:32:28.148630-07:00,1257.8,755.4,1019.4,938.1,841.1,803.5,1642.6,1303.4,3467.4,3461.3,995.3,807.7,1608.7,3473.4,1109.5,1092.9,3479.5,3475.9,1692.9,2158.5,3012.2,3486.8,1740.6,3488.0,3472.2,3473.4,648.1,780.3,1545.0,922.0,831.1,837.7,-9.0,0.0,-5.0,6959.0,-9169.0,9626.0,-6580.0,134.0,29.0,-35.0,16.0,-14.0,10.0,7836.0,-14227.0,1975.0,-849.0,110.0,-1.0,5.0,1.0
2022-05-23 14:32:28.178743-07:00,1252.4,749.6,1019.4,938.1,848.6,808.5,1642.6,1303.4,3461.3,3462.5,995.3,807.7,1602.1,3467.4,1109.5,1092.9,3479.5,3475.9,1711.0,2147.3,3012.2,3486.8,1741.6,3490.5,3472.2,3473.4,648.9,784.4,1545.0,922.0,837.7,831.9,6.0,-11.0,-21.0,6994.0,-9150.0,9590.0,-6621.0,131.0,-29.0,6.0,21.0,0.0,-2.0,7885.0,-14202.0,1965.0,-844.0,89.0,-68.0,20.0,1.0
2022-05-23 14:32:28.179970-07:00,1252.4,749.6,1014.2,927.1,848.6,808.5,1629.4,1322.3,3461.3,3462.5,997.9,806.0,1602.1,3467.4,1112.1,1081.6,3474.6,3471.0,1711.0,2147.3,3001.9,3496.6,1741.6,3490.5,3469.8,3478.3,648.9,784.4,1532.9,929.6,837.7,831.9,-2.0,-23.0,-11.0,7024.0,-9149.0,9590.0,-6591.0,-31.0,-118.0,77.0,8.0,-22.0,4.0,7898.0,-14199.0,1954.0,-800.0,-9.0,-137.0,62.0,1.0
2022-05-23 14:32:28.358816-07:00,1258.7,760.4,1018.5,927.1,847.0,801.9,1629.4,1322.3,3471.0,3468.6,994.5,806.0,1602.1,3467.4,1112.1,1081.6,3474.6,3471.0,1699.5,2149.3,3001.9,3491.7,1748.3,3492.9,3469.8,3478.3,653.8,781.9,1532.9,935.6,842.8,833.6,-34.0,-13.0,-9.0,7085.0,-9147.0,9584.0,-6535.0,63.0,-185.0,129.0,-13.0,-12.0,8.0,7924.0,-14189.0,1952.0,-715.0,83.0,-196.0,117.0,1.0
2022-05-23 14:32:28.360224-07:00,1258.7,760.4,1018.5,936.4,847.0,814.4,1637.9,1335.0,3471.0,3468.6,994.5,813.5,1602.1,3478.3,1107.8,1091.2,3479.5,3472.2,1693.8,2149.3,3007.7,3491.7,1748.3,3492.9,3472.2,3477.1,645.7,781.9,1537.6,935.6,842.8,833.6,-37.0,21.0,2.0,7181.0,-9127.0,9567.0,-6484.0,62.0,-172.0,153.0,-23.0,-4.0,14.0,7978.0,-14163.0,1954.0,-619.0,94.0,-188.0,108.0,1.0
2022-05-23 14:32:28.361212-07:00,1258.7,744.7,1020.2,936.4,860.4,814.4,1637.9,1335.0,3468.6,3463.7,994.5,813.5,1604.0,3478.3,1107.8,1091.2,3479.5,3472.2,1693.8,2149.3,3007.7,3491.7,1732.0,3492.9,3472.2,3477.1,645.7,787.7,1537.6,922.8,839.4,846.1,-37.0,0.0,7.0,7259.0,-9118.0,9560.0,-6419.0,19.0,-206.0,101.0,-11.0,-14.0,18.0,8017.0,-14144.0,1957.0,-528.0,43.0,-174.0,109.0,1.0
2022-05-23 14:32:28.362406-07:00,1258.7,744.7,1020.2,936.4,860.4,806.0,1630.3,1302.5,3468.6,3463.7,994.5,812.7,1604.0,3473.4,1099.9,1086.0,3467.4,3473.4,1687.2,2149.3,3007.7,3491.7,1732.0,3492.9,3472.2,3471.0,647.3,787.7,1539.4,922.8,839.4,846.1,-12.0,2.0,17.0,7341.0,-9112.0,9546.0,-6356.0,42.0,-175.0,126.0,6.0,-4.0,13.0,8049.0,-14127.0,1967.0,-439.0,53.0,-172.0,131.0,1.0
2022-05-23 14:32:28.418625-07:00,1259.6,757.9,1032.3,936.4,841.1,806.0,1630.3,1302.5,3469.8,3467.4,986.7,812.7,1605.8,3473.4,1099.9,1086.0,3467.4,3473.4,1687.2,2147.3,3007.7,3491.7,1735.8,3494.1,3472.2,3471.0,647.3,787.7,1539.4,931.3,849.5,848.6,21.0,52.0,46.0,7402.0,-9083.0,9548.0,-6322.0,78.0,-33.0,113.0,33.0,18.0,33.0,8091.0,-14105.0,1970.0,-380.0,98.0,-97.0,66.0,1.0
2022-05-23 14:32:28.509471-07:00,1259.6,757.9,1032.3,942.4,841.1,802.7,1621.8,1300.7,3469.8,3467.4,986.7,814.4,1605.8,3467.4,1107.8,1092.9,3467.4,3477.1,1695.7,2147.3,2987.1,3491.7,1735.8,3494.1,3481.9,3477.1,649.7,787.7,1533.8,931.3,849.5,848.6,20.0,58.0,39.0,7417.0,-9065.0,9541.0,-6343.0,42.0,38.0,-66.0,29.0,9.0,29.0,8127.0,-14086.0,1954.0,-393.0,25.0,26.0,-47.0,1.0
2022-05-23 14:32:28.511013-07:00,1255.1,748.8,1022.8,944.9,845.3,802.7,1621.8,1300.7,3473.4,3468.6,986.7,813.5,1608.7,3467.4,1107.8,1092.9,3467.4,3477.1,1695.7,2138.2,2995.1,3486.8,1741.6,3496.6,3481.9,3477.1,649.7,780.3,1532.0,921.1,844.4,841.9,-2.0,-46.0,22.0,7385.0,-9065.0,9541.0,-6380.0,-1.0,119.0,-24.0,9.0,-27.0,20.0,8121.0,-14090.0,1946.0,-425.0,-24.0,53.0,-22.0,1.0
2022-05-23 14:32:28.569304-07:00,1255.1,748.8,1022.8,944.9,846.1,813.5,1632.2,1304.3,3473.4,3468.6,986.7,813.5,1604.9,3471.0,1108.6,1089.5,3472.2,3485.6,1690.0,2147.3,2995.1,3486.8,1741.6,3496.6,3480.7,3483.2,647.3,781.1,1532.0,921.1,844.4,841.9,-11.0,6.0,8.0,7364.0,-9030.0,9577.0,-6399.0,-26.0,118.0,85.0,5.0,-2.0,15.0,8124.0,-14085.0,1960.0,-439.0,-11.0,36.0,26.0,1.0
2022-05-23 14:32:28.628762-07:00,1256.9,757.1,1032.3,938.1,846.1,813.5,1632.2,1304.3,3462.5,3469.8,996.2,809.4,1604.9,3471.0,1108.6,1089.5,3472.2,3485.6,1690.0,2147.3,2995.1,3484.4,1731.1,3486.8,3480.7,3483.2,647.3,781.1,1532.0,922.8,843.6,830.2,-5.0,19.0,13.0,7326.0,-9016.0,9618.0,-6401.0,-51.0,93.0,-4.0,7.0,-2.0,17.0,8098.0,-14098.0,1973.0,-452.0,-70.0,57.0,-8.0,1.0
2022-05-23 14:32:28.658863-07:00,1256.9,757.1,1032.3,938.1,839.4,811.9,1633.1,1313.3,3462.5,3469.8,996.2,809.4,1608.7,3464.9,1109.5,1086.8,3473.4,3474.6,1694.8,2138.2,2995.1,3484.4,1731.1,3486.8,3469.8,3466.1,646.5,788.6,1532.0,922.8,843.6,830.2,0.0,33.0,6.0,7304.0,-8996.0,9628.0,-6438.0,12.0,140.0,-30.0,-2.0,16.0,10.0,8097.0,-14097.0,1979.0,-492.0,11.0,106.0,-51.0,1.0
2022-05-23 14:32:28.838927-07:00,1256.9,748.8,1040.1,944.1,839.4,811.9,1633.1,1313.3,3466.1,3471.0,992.7,812.7,1608.7,3464.9,1109.5,1086.8,3473.4,3474.6,1694.8,2138.2,2996.2,3495.3,1733.0,3486.8,3469.8,3466.1,646.5,788.6,1528.3,922.0,848.6,846.1,-46.0,-29.0,-5.0,7247.0,-8986.0,9657.0,-6474.0,-27.0,148.0,-52.0,-25.0,-35.0,17.0,8072.0,-14109.0,1982.0,-535.0,-49.0,85.0,-33.0,1.0
2022-05-23 14:32:28.840848-07:00,1248.8,748.8,1040.1,944.1,852.8,804.4,1628.4,1304.3,3471.0,3471.0,992.7,812.7,1608.7,3461.3,1112.1,1090.3,3471.0,3478.3,1687.2,2144.3,2996.2,3495.3,1733.0,3499.0,3469.8,3477.1,628.6,787.7,1528.3,922.0,848.6,831.9,-34.0,-30.0,-15.0,7237.0,-8961.0,9665.0,-6508.0,80.0,73.0,53.0,-28.0,-20.0,0.0,8083.0,-14100.0,2003.0,-544.0,66.0,17.0,63.0,1.0
2022-05-23 14:32:28.841949-07:00,1248.8,752.1,1033.2,945.8,852.8,804.4,1628.4,1314.2,3471.0,3478.3,997.9,811.0,1608.7,3461.3,1112.1,1089.5,3475.9,3478.3,1687.2,2144.3,2997.4,3496.6,1739.7,3499.0,3472.2,3477.1,628.6,787.7,1535.7,927.1,844.4,831.9,-15.0,14.0,-12.0,7257.0,-8906.0,9688.0,-6526.0,111.0,55.0,99.0,-2.0,0.0,5.0,8119.0,-14076.0,2027.0,-522.0,117.0,-35.0,73.0,1.0
2022-05-23 14:32:28.958405-07:00,1244.4,752.1,1033.2,945.8,842.8,806.0,1629.4,1314.2,3480.7,3478.3,997.9,811.0,1612.4,3466.1,1104.3,1089.5,3475.9,3479.5,1691.0,2131.1,2997.4,3496.6,1739.7,3486.8,3472.2,3473.4,644.9,788.6,1535.7,927.1,844.4,832.7,26.0,27.0,9.0,7295.0,-8849.0,9684.0,-6567.0,192.0,87.0,53.0,17.0,13.0,3.0,8180.0,-14041.0,2029.0,-515.0,183.0,-21.0,0.0,1.0
2022-05-23 14:32:28.989653-07:00,1244.4,758.7,1043.5,942.4,842.8,806.0,1629.4,1312.4,3480.7,3478.3,991.9,811.0,1612.4,3466.1,1104.3,1089.5,3477.1,3479.5,1691.0,2131.1,2982.5,3495.3,1737.8,3486.8,3477.1,3473.4,644.9,788.6,1534.8,924.5,848.6,832.7,-7.0,12.0,6.0,7321.0,-8796.0,9671.0,-6629.0,139.0,17.0,-19.0,21.0,-13.0,30.0,8237.0,-14008.0,2021.0,-529.0,138.0,32.0,-18.0,1.0
2022-05-23 14:32:28.990792-07:00,1260.4,758.7,1043.5,942.4,852.0,801.9,1628.4,1312.4,3471.0,3478.3,991.9,811.0,1596.4,3480.7,1113.0,1089.5,3477.1,3479.5,1694.8,2147.3,2982.5,3495.3,1737.8,3491.7,3477.1,3485.6,643.2,787.7,1534.8,924.5,848.6,841.1,9.0,-22.0,33.0,7350.0,-8774.0,9641.0,-6670.0,181.0,52.0,7.0,7.0,-8.0,10.0,8282.0,-13980.0,2025.0,-552.0,153.0,42.0,16.0,1.0
2022-05-23 14:32:29.048489-07:00,1260.4,748.8,1054.8,950.0,852.0,801.9,1617.1,1307.9,3471.0,3466.1,995.3,808.5,1596.4,3480.7,1108.6,1089.5,3469.8,3464.9,1694.8,2147.3,2984.8,3497.8,1733.0,3491.7,3479.5,3483.2,643.2,787.7,1543.1,927.1,847.8,841.1,7.0,-3.0,46.0,7369.0,-8666.0,9657.0,-6765.0,226.0,327.0,154.0,8.0,0.0,29.0,8353.0,-13935.0,2040.0,-580.0,229.0,82.0,17.0,1.0
2022-05-23 14:32:29.079023-07:00,1253.3,754.6,1054.8,950.0,850.3,801.9,1617.1,1307.9,3474.6,3471.0,995.3,808.5,1606.8,3466.1,1108.6,1089.5,3469.8,3464.9,1688.1,2139.2,2984.8,3497.8,1726.3,3488.0,3479.5,3483.2,640.0,786.9,1543.1,927.1,852.0,833.6,-17.0,45.0,12.0,7347.0,-8560.0,9703.0,-6857.0,61.0,239.0,11.0,7.0,6.0,39.0,8417.0,-13889.0,2068.0,-632.0,35.0,163.0,-3.0,1.0
2022-05-23 14:32:29.108830-07:00,1253.3,754.6,1043.5,946.6,850.3,801.9,1621.8,1294.5,3474.6,3471.0,993.6,811.0,1606.8,3466.1,1112.1,1091.2,3478.3,3472.2,1688.1,2139.2,2984.8,3490.5,1726.3,3488.0,3474.6,3488.0,640.0,786.9,1534.8,926.2,852.0,833.6,-7.0,-47.0,40.0,7269.0,-8480.0,9785.0,-6923.0,32.0,464.0,146.0,-5.0,-18.0,21.0,8407.0,-13887.0,2103.0,-693.0,13.0,153.0,8.0,1.0
2022-05-23 14:32:29.198762-07:00,1238.2,750.5,1043.5,946.6,849.5,813.5,1621.8,1294.5,3464.9,3468.6,993.6,811.0,1601.1,3472.2,1112.1,1091.2,3478.3,3472.2,1692.9,2134.1,2984.8,3490.5,1735.8,3495.3,3474.6,3488.0,649.7,781.1,1534.8,926.2,860.4,839.4,-2.0,-16.0,10.0,7195.0,-8334.0,9905.0,-7007.0,32.0,507.0,218.0,-11.0,1.0,-12.0,8420.0,-13869.0,2153.0,-742.0,9.0,130.0,84.0,1.0
2022-05-23 14:32:29.228776-07:00,1238.2,750.5,1044.4,944.1,849.5,813.5,1627.5,1295.4,3464.9,3468.6,993.6,813.5,1601.1,3472.2,1107.8,1086.0,3474.6,3488.0,1692.9,2134.1,2975.7,3494.1,1735.8,3495.3,3467.4,3479.5,649.7,781.1,1530.1,922.0,860.4,839.4,-27.0,-9.0,-2.0,7069.0,-8107.0,10134.0,-7073.0,-86.0,716.0,460.0,7.0,-23.0,31.0,8401.0,-13871.0,2212.0,-755.0,-76.0,98.0,135.0,1.0
2022-05-23 14:32:29.258780-07:00,1260.4,743.9,1044.4,944.1,847.0,807.7,1627.5,1295.4,3467.4,3468.6,993.6,813.5,1608.7,3473.4,1107.8,1086.0,3474.6,3488.0,1697.6,2135.1,2975.7,3494.1,1725.3,3489.2,3467.4,3479.5,645.7,786.9,1530.1,922.0,844.4,856.2,16.0,58.0,-8.0,6979.0,-7937.0,10300.0,-7115.0,-24.0,430.0,176.0,23.0,16.0,7.0,8374.0,-13873.0,2294.0,-769.0,-61.0,171.0,113.0,1.0
2022-05-23 14:32:29.318874-07:00,1260.4,743.9,1043.5,956.0,847.0,808.5,1623.7,1302.5,3467.4,3468.6,986.7,810.2,1608.7,3475.9,1106.9,1087.7,3469.8,3480.7,1690.0,2135.1,2991.7,3495.3,1725.3,3489.2,3478.3,3484.4,651.4,786.9,1530.1,930.5,844.4,856.2,13.0,21.0,-13.0,6839.0,-7785.0,10435.0,-7222.0,39.0,712.0,127.0,-12.0,6.0,1.0,8347.0,-13878.0,2350.0,-806.0,-15.0,100.0,1.0,1.0
2022-05-23 14:32:29.379046-07:00,1254.2,745.5,1035.7,956.0,858.7,808.5,1623.7,1302.5,3479.5,3462.5,990.2,810.2,1603.0,3475.9,1106.9,1087.7,3469.8,3480.7,1690.0,2135.1,2991.7,3495.3,1730.1,3489.2,3478.3,3484.4,651.4,785.2,1530.1,927.1,847.0,837.7,-107.0,8.0,-82.0,6712.0,-7674.0,10546.0,-7298.0,-133.0,203.0,27.0,-25.0,-17.0,32.0,8318.0,-13890.0,2373.0,-835.0,-148.0,87.0,23.0,1.0
2022-05-23 14:32:29.468940-07:00,1254.2,745.5,1035.7,942.4,858.7,806.9,1621.8,1309.7,3479.5,3462.5,990.2,811.0,1603.0,3474.6,1105.1,1082.5,3485.6,3474.6,1698.6,2135.1,2981.4,3495.3,1730.1,3489.2,3474.6,3468.6,649.7,785.2,1541.3,927.1,847.0,837.7,5.0,12.0,-36.0,6707.0,-7735.0,10556.0,-7224.0,-185.0,-219.0,-25.0,0.0,10.0,-28.0,8257.0,-13922.0,2396.0,-843.0,-136.0,14.0,-3.0,1.0
2022-05-23 14:32:29.470724-07:00,1241.7,743.0,1047.8,942.4,852.0,806.9,1621.8,1309.7,3467.4,3473.4,996.2,811.0,1602.1,3474.6,1105.1,1082.5,3485.6,3474.6,1698.6,2120.9,2981.4,3486.8,1728.2,3495.3,3474.6,3468.6,649.7,779.4,1541.3,930.5,838.6,836.1,5.0,-4.0,0.0,6727.0,-7773.0,10534.0,-7197.0,106.0,-45.0,-40.0,11.0,-14.0,6.0,8247.0,-13930.0,2381.0,-839.0,82.0,-58.0,-49.0,1.0
2022-05-23 14:32:29.528875-07:00,1241.7,743.0,1047.8,950.0,852.0,806.9,1634.1,1312.4,3467.4,3473.4,996.2,806.9,1602.1,3473.4,1108.6,1088.6,3475.9,3469.8,1691.0,2120.9,2973.4,3486.8,1728.2,3495.3,3478.3,3480.7,645.7,779.4,1534.8,930.5,838.6,836.1,-2.0,11.0,-2.0,6778.0,-7793.0,10471.0,-7220.0,57.0,-180.0,-62.0,6.0,4.0,11.0,8294.0,-13908.0,2348.0,-831.0,66.0,-72.0,-32.0,1.0
2022-05-23 14:32:29.648913-07:00,1245.3,756.3,1034.9,939.0,844.4,806.9,1634.1,1312.4,3477.1,3457.6,993.6,805.2,1594.6,3473.4,1108.6,1088.6,3475.9,3469.8,1691.0,2100.7,2960.9,3501.4,1726.3,3494.1,3478.3,3480.7,645.7,771.1,1535.7,930.5,852.0,837.7,0.0,-36.0,44.0,6801.0,-7828.0,10459.0,-7178.0,-36.0,-91.0,39.0,3.0,-22.0,14.0,8294.0,-13913.0,2326.0,-810.0,-16.0,-61.0,6.0,1.0
2022-05-23 14:32:29.651412-07:00,1245.3,756.3,1034.9,939.0,852.8,806.0,1622.8,1325.0,3477.1,3457.6,993.6,805.2,1606.8,3469.8,1107.8,1085.1,3475.9,3480.7,1690.0,2077.5,2960.9,3501.4,1726.3,3494.1,3483.2,3474.6,647.3,772.0,1535.7,930.5,852.0,837.7,-31.0,18.0,24.0,6822.0,-7753.0,10478.0,-7211.0,152.0,180.0,149.0,5.0,-12.0,40.0,8347.0,-13881.0,2331.0,-801.0,148.0,-3.0,61.0,1.0
2022-05-23 14:32:29.723263-07:00,1238.2,744.7,1038.3,940.7,852.8,806.0,1622.8,1325.0,3464.9,3475.9,991.0,813.5,1606.8,3469.8,1107.8,1085.1,3475.9,3480.7,1690.0,2077.5,2968.9,3494.1,1731.1,3477.1,3483.2,3474.6,647.3,772.0,1538.5,920.3,849.5,827.7,0.0,13.0,9.0,6799.0,-7721.0,10517.0,-7211.0,-132.0,80.0,18.0,0.0,3.0,4.0,8342.0,-13879.0,2366.0,-793.0,-119.0,35.0,76.0,1.0
2022-05-23 14:32:29.724730-07:00,1238.2,744.7,1038.3,940.7,849.5,792.7,1611.5,1300.7,3464.9,3475.9,991.0,813.5,1604.9,3469.8,1103.4,1085.1,3479.5,3467.4,1695.7,2107.8,2968.9,3494.1,1731.1,3477.1,3483.2,3469.8,639.2,776.1,1538.5,920.3,849.5,827.7,29.0,-5.0,17.0,6758.0,-7674.0,10557.0,-7240.0,121.0,276.0,75.0,10.0,4.0,9.0,8331.0,-13880.0,2397.0,-790.0,67.0,22.0,56.0,1.0
2022-05-23 14:32:29.769352-07:00,1250.6,749.6,1035.7,941.5,849.5,792.7,1611.5,1300.7,3464.9,3469.8,988.5,804.4,1604.9,3469.8,1103.4,1085.1,3479.5,3467.4,1695.7,2107.8,2967.7,3494.1,1725.3,3486.8,3483.2,3469.8,639.2,776.1,1539.4,930.5,850.3,834.4,-36.0,16.0,-36.0,6709.0,-7615.0,10610.0,-7272.0,-150.0,121.0,46.0,2.0,-9.0,16.0,8325.0,-13880.0,2421.0,-786.0,-144.0,21.0,53.0,1.0
2022-05-23 14:32:29.858777-07:00,1250.6,749.6,1035.7,941.5,841.1,796.0,1640.7,1290.0,3464.9,3469.8,988.5,804.4,1600.2,3461.3,1105.1,1089.5,3478.3,3480.7,1699.5,2095.7,2967.7,3494.1,1725.3,3486.8,3472.2,3475.9,650.5,776.1,1539.4,930.5,850.3,834.4,245.0,-104.0,77.0,6674.0,-7570.0,10668.0,-7265.0,192.0,533.0,266.0,-20.0,60.0,-127.0,8305.0,-13889.0,2443.0,-773.0,164.0,-44.0,34.0,1.0
2022-05-23 14:32:29.860051-07:00,1258.7,759.6,1031.4,941.5,841.1,796.0,1640.7,1304.3,3469.8,3469.8,996.2,806.0,1600.2,3461.3,1105.1,1072.9,3480.7,3480.7,1699.5,2095.7,2968.9,3496.6,1737.8,3495.3,3472.2,3475.9,650.5,776.1,1527.3,926.2,847.0,845.3,32.0,-89.0,110.0,6423.0,-6825.0,10987.0,-7739.0,1128.0,2644.0,973.0,1.0,-48.0,60.0,8508.0,-13774.0,2399.0,-759.0,708.0,-120.0,28.0,1.0
2022-05-23 14:32:29.919155-07:00,1330.5,759.6,1031.4,941.5,844.4,804.4,1630.3,1304.3,3473.4,3469.8,996.2,806.0,1608.7,3478.3,1096.4,1072.9,3480.7,3471.0,1714.8,2112.8,2968.9,3496.6,1737.8,3489.2,3472.2,3472.2,649.7,780.3,1527.3,926.2,847.0,833.6,426.0,-144.0,348.0,5839.0,-5615.0,11527.0,-8363.0,861.0,4607.0,1521.0,0.0,-46.0,14.0,8754.0,-13617.0,2413.0,-736.0,523.0,-154.0,187.0,1.0
2022-05-23 14:32:29.978762-07:00,1330.5,758.7,1012.5,917.7,844.4,804.4,1630.3,1310.6,3473.4,3469.8,997.0,808.5,1608.7,3478.3,1096.4,1082.5,3472.2,3471.0,1714.8,2112.8,3001.9,3496.6,1777.2,3489.2,3477.1,3472.2,649.7,780.3,1532.0,914.4,834.4,833.6,-515.0,162.0,-290.0,4655.0,-3650.0,12290.0,-9077.0,906.0,4577.0,1735.0,119.0,-129.0,373.0,9030.0,-13398.0,2618.0,-736.0,796.0,569.0,765.0,1.0
2022-05-23 14:32:30.038822-07:00,1418.6,758.7,1012.5,917.7,858.7,801.9,1638.8,1310.6,3471.0,3469.8,997.0,808.5,1608.7,3474.6,1094.7,1082.5,3472.2,3472.2,1806.1,2165.6,3001.9,3496.6,1777.2,3488.0,3477.1,3471.0,644.9,774.5,1532.0,914.4,834.4,837.7,229.0,141.0,-27.0,4122.0,-2736.0,12552.0,-9296.0,250.0,2068.0,384.0,-55.0,88.0,-79.0,9044.0,-13289.0,3058.0,-830.0,-201.0,684.0,643.0,1.0
2022-05-23 14:32:30.158763-07:00,1418.6,774.5,1002.2,927.9,858.7,801.9,1638.8,1306.1,3471.0,3467.4,990.2,807.7,1608.7,3474.6,1094.7,1076.4,3471.0,3472.2,1806.1,2165.6,3134.5,3497.8,1817.8,3488.0,3480.7,3471.0,644.9,774.5,1531.0,919.4,829.4,837.7,16.0,218.0,-253.0,3431.0,-2398.0,12696.0,-9472.0,-98.0,1196.0,-909.0,-22.0,69.0,-59.0,8776.0,-13392.0,3359.0,-887.0,-914.0,540.0,256.0,1.0
2022-05-23 14:32:30.160038-07:00,1447.9,797.7,1002.2,927.9,847.8,806.9,1642.6,1306.1,3472.2,3472.2,990.2,807.7,1604.0,3475.9,1099.0,1076.4,3471.0,3464.9,1830.4,2175.8,3134.5,3497.8,1832.3,3500.2,3480.7,3468.6,640.0,769.5,1531.0,919.4,831.9,844.4,131.0,-34.0,-61.0,2812.0,-2731.0,12781.0,-9472.0,-362.0,613.0,-1439.0,7.0,34.0,-57.0,8256.0,-13681.0,3507.0,-893.0,-1356.0,308.0,-36.0,1.0
2022-05-23 14:32:30.160904-07:00,1447.9,797.7,1006.5,917.7,847.8,806.9,1640.7,1314.2,3472.2,3472.2,986.7,811.9,1604.0,3475.9,1093.8,1085.1,3485.6,3475.9,1830.4,2175.8,3120.6,3491.7,1832.3,3500.2,3479.5,3472.2,640.0,769.5,1537.6,914.4,831.9,844.4,49.0,-175.0,-15.0,2465.0,-3006.0,12753.0,-9523.0,-93.0,134.0,-561.0,13.0,-25.0,-37.0,7930.0,-13867.0,3531.0,-895.0,-511.0,88.0,-66.0,1.0
2022-05-23 14:32:30.248815-07:00,1441.5,788.6,1006.5,917.7,839.4,802.7,1640.7,1314.2,3468.6,3478.3,986.7,811.9,1598.3,3457.6,1093.8,1085.1,3485.6,3475.9,1792.6,2155.5,3120.6,3491.7,1838.2,3489.2,3479.5,3472.2,640.8,775.3,1537.6,914.4,834.4,828.5,9.0,-86.0,-29.0,2490.0,-2937.0,12762.0,-9526.0,131.0,-61.0,520.0,-7.0,-34.0,18.0,7948.0,-13852.0,3544.0,-912.0,411.0,18.0,64.0,1.0
2022-05-23 14:32:30.250025-07:00,1441.5,788.6,997.0,929.6,839.4,802.7,1653.0,1316.9,3468.6,3478.3,991.9,804.4,1598.3,3457.6,1102.5,1083.4,3480.7,3472.2,1792.6,2155.5,3112.5,3491.7,1838.2,3489.2,3474.6,3479.5,640.8,775.3,1529.2,907.6,834.4,828.5,56.0,31.0,6.0,2662.0,-2710.0,12788.0,-9511.0,52.0,93.0,642.0,0.0,15.0,-9.0,8130.0,-13738.0,3568.0,-938.0,453.0,-8.0,106.0,1.0
2022-05-23 14:32:30.309342-07:00,1441.5,786.1,997.0,929.6,843.6,802.7,1653.0,1316.9,3466.1,3467.4,991.9,804.4,1611.5,3478.3,1102.5,1083.4,3480.7,3472.2,1788.7,2161.6,3112.5,3491.7,1836.2,3484.4,3474.6,3479.5,637.6,771.1,1529.2,907.6,827.7,842.8,43.0,95.0,-35.0,2775.0,-2579.0,12803.0,-9495.0,23.0,-172.0,174.0,4.0,29.0,-6.0,8251.0,-13663.0,3577.0,-945.0,210.0,-39.0,18.0,1.0
2022-05-23 14:32:30.398779-07:00,1441.5,786.1,1007.3,933.9,843.6,805.2,1641.6,1310.6,3466.1,3467.4,992.7,806.9,1611.5,3473.4,1113.0,1080.8,3472.2,3477.1,1788.7,2161.6,3112.5,3491.7,1836.2,3484.4,3475.9,3477.1,640.8,771.1,1539.4,907.6,827.7,842.8,12.0,52.0,-9.0,2774.0,-2649.0,12795.0,-9488.0,-104.0,-75.0,-279.0,6.0,7.0,20.0,8237.0,-13681.0,3544.0,-926.0,-186.0,-70.0,-86.0,1.0
2022-05-23 14:32:30.399994-07:00,1445.1,790.2,1008.2,933.9,844.4,805.2,1641.6,1310.6,3469.8,3469.8,991.9,806.9,1604.0,3473.4,1113.0,1080.8,3472.2,3477.1,1788.7,2148.3,3112.5,3496.6,1837.2,3490.5,3475.9,3477.1,640.8,767.0,1539.4,911.8,834.4,833.6,7.0,-13.0,19.0,2727.0,-2801.0,12798.0,-9452.0,-149.0,-109.0,-295.0,-1.0,-13.0,14.0,8148.0,-13746.0,3503.0,-904.0,-244.0,-43.0,-89.0,1.0
2022-05-23 14:32:30.579416-07:00,1445.1,790.2,1008.2,926.2,844.4,791.0,1643.5,1316.9,3469.8,3469.8,991.9,811.9,1604.0,3472.2,1102.5,1082.5,3473.4,3478.3,1789.7,2148.3,3096.2,3496.6,1837.2,3490.5,3467.4,3478.3,635.1,767.0,1538.5,911.8,834.4,833.6,9.0,-19.0,-13.0,2692.0,-2878.0,12802.0,-9434.0,-33.0,-76.0,-109.0,-2.0,-18.0,16.0,8098.0,-13782.0,3479.0,-894.0,-84.0,-11.0,-43.0,1.0
2022-05-23 14:32:30.609651-07:00,1434.1,791.0,1009.0,926.2,841.9,791.0,1643.5,1316.9,3472.2,3466.1,996.2,811.9,1606.8,3472.2,1102.5,1082.5,3473.4,3478.3,1789.7,2143.3,3096.2,3497.8,1836.2,3501.4,3467.4,3478.3,635.1,762.9,1538.5,908.4,831.1,840.3,39.0,-8.0,-1.0,2702.0,-2913.0,12796.0,-9429.0,-26.0,-65.0,-13.0,0.0,-5.0,-2.0,8093.0,-13788.0,3468.0,-893.0,-1.0,-20.0,-14.0,1.0
2022-05-23 14:32:30.638878-07:00,1434.1,791.0,1009.0,925.4,841.9,798.5,1643.5,1314.2,3472.2,3466.1,996.2,804.4,1606.8,3467.4,1101.7,1088.6,3475.9,3466.1,1758.9,2143.3,3072.0,3497.8,1836.2,3501.4,3483.2,3474.6,627.8,762.9,1528.3,908.4,831.1,840.3,14.0,6.0,-10.0,2698.0,-2926.0,12802.0,-9418.0,-40.0,-54.0,1.0,3.0,0.0,11.0,8096.0,-13789.0,3459.0,-884.0,-1.0,-41.0,-12.0,1.0
2022-05-23 14:32:30.640131-07:00,1422.2,777.8,1004.8,925.4,850.3,798.5,1643.5,1314.2,3474.6,3461.3,993.6,804.4,1604.0,3467.4,1101.7,1088.6,3475.9,3466.1,1758.9,2134.1,3072.0,3497.8,1825.5,3492.9,3483.2,3474.6,627.8,772.0,1528.3,912.7,823.5,842.8,24.0,-2.0,0.0,2729.0,-2981.0,12808.0,-9383.0,-32.0,-172.0,-35.0,-2.0,0.0,0.0,8096.0,-13795.0,3440.0,-871.0,-3.0,-58.0,-47.0,1.0
2022-05-23 14:32:30.668830-07:00,1422.2,777.8,1004.8,947.5,844.4,781.1,1619.0,1307.0,3474.6,3461.3,993.6,803.5,1603.0,3466.1,1106.9,1085.1,3471.0,3478.3,1780.1,2118.9,3059.3,3497.8,1825.5,3492.9,3472.2,3471.0,634.3,761.2,1521.8,912.7,823.5,842.8,6.0,13.0,-2.0,2757.0,-3026.0,12794.0,-9380.0,-17.0,-112.0,-48.0,7.0,-8.0,21.0,8104.0,-13800.0,3405.0,-858.0,-6.0,-61.0,-58.0,1.0
2022-05-23 14:32:30.698770-07:00,1424.1,791.9,1001.3,922.0,844.4,781.1,1619.0,1307.0,3469.8,3464.9,991.0,801.9,1603.0,3466.1,1106.9,1085.1,3471.0,3478.3,1780.1,2118.9,3054.7,3496.6,1818.7,3495.3,3472.2,3471.0,634.3,761.2,1537.6,905.0,831.9,840.3,30.0,-5.0,29.0,2790.0,-3104.0,12788.0,-9353.0,-67.0,-138.0,-87.0,5.0,-1.0,4.0,8101.0,-13810.0,3373.0,-852.0,-45.0,-45.0,-44.0,1.0
2022-05-23 14:32:30.759440-07:00,1424.1,791.9,1001.3,922.0,841.1,786.9,1640.7,1314.2,3469.8,3464.9,991.0,801.9,1605.8,3458.9,1113.0,1086.8,3472.2,3477.1,1782.9,2128.0,3054.7,3496.6,1818.7,3495.3,3474.6,3478.3,625.4,768.7,1537.6,905.0,831.9,840.3,8.0,-5.0,13.0,2798.0,-3140.0,12781.0,-9348.0,-6.0,-35.0,-27.0,3.0,-8.0,13.0,8097.0,-13817.0,3354.0,-844.0,-7.0,-32.0,-6.0,1.0
2022-05-23 14:32:30.818948-07:00,1419.5,784.4,1007.3,921.1,841.1,786.9,1640.7,1314.2,3468.6,3472.2,991.9,808.5,1605.8,3458.9,1113.0,1086.8,3472.2,3477.1,1782.9,2128.0,3021.4,3492.9,1823.6,3491.7,3474.6,3478.3,625.4,768.7,1521.8,912.7,831.9,836.1,9.0,3.0,-2.0,2811.0,-3149.0,12781.0,-9342.0,-12.0,-46.0,15.0,0.0,-2.0,10.0,8105.0,-13814.0,3347.0,-836.0,15.0,-21.0,1.0,1.0
2022-05-23 14:32:30.849185-07:00,1419.5,784.4,1007.3,921.1,847.0,789.4,1624.7,1316.9,3468.6,3472.2,991.9,808.5,1606.8,3463.7,1116.5,1091.2,3474.6,3478.3,1769.5,2119.9,3021.4,3492.9,1823.6,3491.7,3480.7,3483.2,627.0,767.0,1521.8,912.7,831.9,836.1,17.0,26.0,-20.0,2830.0,-3163.0,12773.0,-9341.0,18.0,-130.0,-51.0,-3.0,4.0,6.0,8113.0,-13812.0,3341.0,-830.0,-15.0,-26.0,-23.0,1.0
2022-05-23 14:32:30.908864-07:00,1427.7,788.6,1000.5,922.8,847.0,789.4,1624.7,1321.4,3468.6,3474.6,991.9,805.2,1606.8,3463.7,1116.5,1079.9,3479.5,3478.3,1769.5,2119.9,3036.3,3486.8,1815.8,3488.0,3480.7,3483.2,627.0,767.0,1545.0,905.0,830.2,837.7,36.0,16.0,11.0,2836.0,-3242.0,12770.0,-9317.0,-116.0,-79.0,-159.0,9.0,7.0,-6.0,8084.0,-13834.0,3322.0,-817.0,-156.0,-38.0,-46.0,1.0
2022-05-23 14:32:31.029379-07:00,1416.7,788.6,1000.5,922.8,845.3,798.5,1640.7,1321.4,3478.3,3474.6,991.9,805.2,1597.4,3467.4,1118.2,1079.9,3479.5,3479.5,1777.2,2128.0,3036.3,3486.8,1815.8,3499.0,3480.7,3469.8,626.2,771.1,1545.0,905.0,830.2,841.9,-5.0,-15.0,6.0,2797.0,-3311.0,12779.0,-9292.0,-77.0,-15.0,-131.0,7.0,-17.0,19.0,8031.0,-13870.0,3303.0,-806.0,-104.0,-5.0,-37.0,1.0
