Time,P0,P1,P2,P3,P4,P5,P6,P7,P8,P9,P10,P11,P12,P13,P14,P15,P16,P17,P18,P19,P20,P21,P22,P23,P24,P25,P26,P27,P28,P29,P30,P31,ECG,AX0,AY0,AZ0,QW0,QX0,QY0,QZ0,GX0,GY0,GZ0,AX1,AY1,AZ1,QW1,QX1,QY1,QZ1,GX1,GY1,GZ1
2022-05-23 16:03:03.980530-07:00,1408.5,820.2,1077.3,956.0,974.8,950.9,2045.4,1522.7,3462.5,3463.7,1071.2,831.9,1661.5,3473.4,1170.0,1126.1,3467.4,3468.6,1582.4,2141.2,2696.3,3496.6,1589.9,3478.3,3466.1,3467.4,683.1,765.3,1798.4,967.1,893.2,1002.2,15.0,36.0,4.0,10091.0,-12720.0,1303.0,1761.0,15.0,24.0,8.0,0.0,4.0,1.0,10165.0,-12757.0,-1099.0,1082.0,29.0,1.0,0.0,1.0
2022-05-23 16:03:04.040257-07:00,1395.7,826.9,1077.3,956.0,984.2,950.0,2045.4,1522.7,3466.1,3467.4,1071.2,831.9,1652.0,3473.4,1170.0,1126.1,3467.4,3468.6,1600.2,2133.1,2696.3,3496.6,1587.1,3485.6,3466.1,3467.4,679.9,759.6,1798.4,967.1,894.9,998.7,13.0,35.0,4.0,10091.0,-12720.0,1302.0,1764.0,1.0,-32.0,-7.0,-1.0,6.0,1.0,10171.0,-12751.0,-1103.0,1088.0,18.0,-24.0,-10.0,1.0
2022-05-23 16:03:04.070340-07:00,1395.7,826.9,1081.6,962.8,984.2,950.0,2011.4,1515.3,3466.1,3467.4,1075.6,833.6,1652.0,3473.4,1176.2,1117.4,3472.2,3472.2,1600.2,2133.1,2702.9,3497.8,1587.1,3485.6,3471.0,3478.3,679.9,759.6,1820.7,968.8,894.9,998.7,14.0,17.0,13.0,10081.0,-12727.0,1286.0,1779.0,-54.0,-49.0,-15.0,2.0,-8.0,3.0,10168.0,-12751.0,-1117.0,1096.0,-17.0,-39.0,-14.0,1.0
2022-05-23 16:03:04.130324-07:00,1396.7,824.4,1084.2,962.8,976.5,946.6,2011.4,1515.3,3452.8,3469.8,1071.2,833.6,1648.3,3469.8,1176.2,1117.4,3472.2,3472.2,1596.4,2127.0,2702.9,3494.1,1586.1,3485.6,3471.0,3478.3,684.0,765.3,1820.7,962.8,887.3,991.9,17.0,28.0,20.0,10084.0,-12725.0,1266.0,1797.0,22.0,-73.0,1.0,6.0,-4.0,10.0,10179.0,-12741.0,-1128.0,1103.0,52.0,-22.0,-11.0,1.0
2022-05-23 16:03:04.190802-07:00,1396.7,824.4,1084.2,954.3,976.5,957.7,2013.4,1519.0,3452.8,3469.8,1071.2,830.2,1648.3,3469.8,1172.6,1132.2,3475.9,3472.2,1593.6,2127.0,2710.6,3494.1,1586.1,3485.6,3468.6,3474.6,675.8,765.3,1816.8,962.8,887.3,991.9,32.0,33.0,31.0,10106.0,-12707.0,1239.0,1815.0,46.0,-64.0,-37.0,1.0,7.0,0.0,10198.0,-12725.0,-1135.0,1107.0,39.0,-13.0,-16.0,1.0
2022-05-23 16:03:04.220858-07:00,1393.0,817.7,1075.6,954.3,966.2,957.7,2013.4,1519.0,3463.7,3464.9,1067.7,830.2,1653.0,3469.8,1172.6,1132.2,3475.9,3472.2,1593.6,2132.1,2710.6,3488.0,1578.6,3483.2,3468.6,3474.6,675.8,764.5,1816.8,971.3,893.2,993.6,8.0,17.0,19.0,10111.0,-12705.0,1233.0,1803.0,-19.0,35.0,-12.0,0.0,-7.0,11.0,10198.0,-12725.0,-1138.0,1105.0,-15.0,8.0,-8.0,1.0
2022-05-23 16:03:04.280308-07:00,1393.0,817.7,1075.6,956.8,966.2,952.6,2005.5,1515.3,3463.7,3464.9,1067.7,831.1,1653.0,3464.9,1168.2,1120.9,3472.2,3468.6,1596.4,2132.1,2694.1,3488.0,1578.6,3483.2,3468.6,3469.8,678.2,764.5,1815.8,971.3,893.2,993.6,19.0,22.0,16.0,10109.0,-12708.0,1240.0,1793.0,-4.0,30.0,-3.0,4.0,-2.0,4.0,10196.0,-12727.0,-1134.0,1099.0,-4.0,21.0,5.0,1.0
2022-05-23 16:03:04.340228-07:00,1398.5,820.2,1078.2,956.8,971.3,952.6,2005.5,1515.3,3468.6,3461.3,1073.8,831.1,1651.1,3464.9,1168.2,1120.9,3472.2,3468.6,1596.4,2114.9,2694.1,3496.6,1580.5,3477.1,3468.6,3469.8,678.2,761.2,1815.8,977.3,895.7,997.0,20.0,24.0,15.0,10117.0,-12703.0,1248.0,1778.0,31.0,37.0,-9.0,6.0,-2.0,0.0,10201.0,-12724.0,-1129.0,1092.0,14.0,19.0,1.0,1.0
2022-05-23 16:03:04.370232-07:00,1398.5,820.2,1078.2,968.8,970.5,960.2,2019.4,1519.9,3468.6,3461.3,1073.8,822.7,1657.7,3473.4,1172.6,1129.6,3478.3,3468.6,1581.4,2130.1,2698.5,3496.6,1580.5,3477.1,3473.4,3464.9,679.1,767.0,1818.7,977.3,895.7,997.0,14.0,25.0,1.0,10133.0,-12691.0,1255.0,1766.0,45.0,15.0,0.0,0.0,-7.0,-6.0,10211.0,-12717.0,-1124.0,1088.0,29.0,13.0,3.0,1.0
2022-05-23 16:03:04.490263-07:00,1404.9,822.7,1088.6,965.4,970.5,960.2,2019.4,1519.9,3472.2,3467.4,1071.2,829.4,1657.7,3473.4,1172.6,1129.6,3478.3,3468.6,1581.4,2130.1,2705.1,3490.5,1589.9,3481.9,3473.4,3464.9,679.1,767.0,1816.8,971.3,895.7,1005.6,15.0,25.0,6.0,10136.0,-12689.0,1258.0,1762.0,4.0,-2.0,-3.0,3.0,-5.0,6.0,10212.0,-12716.0,-1121.0,1087.0,7.0,7.0,11.0,1.0
2022-05-23 16:03:04.491190-07:00,1404.9,822.7,1088.6,965.4,984.2,953.4,2006.4,1517.1,3472.2,3467.4,1071.2,829.4,1649.2,3457.6,1177.0,1120.0,3473.4,3478.3,1588.9,2128.0,2705.1,3490.5,1589.9,3481.9,3471.0,3478.3,678.2,776.1,1816.8,971.3,895.7,1005.6,21.0,12.0,17.0,10138.0,-12687.0,1251.0,1768.0,14.0,-27.0,1.0,6.0,-2.0,4.0,10220.0,-12710.0,-1121.0,1088.0,39.0,-1.0,3.0,1.0
2022-05-23 16:03:04.551076-07:00,1419.5,827.7,1082.5,970.5,984.2,953.4,2006.4,1517.1,3466.1,3467.4,1075.6,830.2,1649.2,3457.6,1177.0,1120.0,3473.4,3478.3,1588.9,2128.0,2699.6,3489.2,1587.1,3484.4,3471.0,3478.3,678.2,776.1,1810.0,980.7,894.9,985.9,18.0,32.0,6.0,10167.0,-12664.0,1252.0,1767.0,73.0,21.0,9.0,0.0,0.0,-5.0,10246.0,-12690.0,-1118.0,1089.0,50.0,7.0,-4.0,1.0
2022-05-23 16:03:04.580394-07:00,1419.5,827.7,1082.5,970.5,968.8,957.7,1996.5,1519.0,3466.1,3467.4,1075.6,830.2,1653.9,3469.8,1187.6,1129.6,3480.7,3473.4,1587.1,2126.0,2699.6,3489.2,1587.1,3484.4,3475.9,3472.2,675.0,781.1,1810.0,980.7,894.9,985.9,3.0,2.0,15.0,10160.0,-12672.0,1257.0,1748.0,-26.0,43.0,-18.0,4.0,-15.0,10.0,10235.0,-12698.0,-1119.0,1088.0,-26.0,8.0,7.0,1.0
2022-05-23 16:03:04.640159-07:00,1395.7,820.2,1090.3,978.2,968.8,957.7,1996.5,1519.0,3475.9,3467.4,1070.3,826.0,1653.9,3469.8,1187.6,1129.6,3480.7,3473.4,1587.1,2126.0,2693.0,3488.0,1582.4,3494.1,3475.9,3472.2,675.0,781.1,1805.2,977.3,900.8,997.0,18.0,29.0,4.0,10172.0,-12663.0,1261.0,1741.0,55.0,-3.0,-5.0,4.0,2.0,5.0,10246.0,-12690.0,-1112.0,1086.0,44.0,13.0,6.0,1.0
2022-05-23 16:03:04.670453-07:00,1395.7,820.2,1090.3,978.2,967.1,954.3,2005.5,1508.8,3478.3,3467.4,1070.3,826.0,1651.1,3469.8,1191.2,1132.2,3478.3,3473.4,1582.4,2128.0,2693.0,3488.0,1582.4,3481.9,3479.5,3478.3,678.2,787.7,1805.2,977.3,900.8,990.2,16.0,13.0,0.0,10187.0,-12651.0,1257.0,1739.0,39.0,-22.0,-13.0,6.0,-5.0,0.0,10257.0,-12681.0,-1110.0,1085.0,32.0,5.0,0.0,1.0
2022-05-23 16:03:04.790302-07:00,1395.7,818.5,1078.2,983.3,967.1,954.3,2005.5,1506.0,3478.3,3464.9,1069.5,825.2,1651.1,3469.8,1191.2,1127.9,3471.0,3473.4,1582.4,2128.0,2688.6,3495.3,1577.7,3481.9,3483.2,3478.3,678.2,787.7,1811.0,984.2,905.0,990.2,19.0,7.0,10.0,10209.0,-12633.0,1254.0,1745.0,88.0,-8.0,23.0,0.0,-7.0,-5.0,10279.0,-12664.0,-1108.0,1087.0,90.0,2.0,5.0,1.0
2022-05-23 16:03:04.791283-07:00,1390.3,818.5,1078.2,983.3,973.9,957.7,1995.5,1506.0,3472.2,3464.9,1069.5,825.2,1643.5,3471.0,1185.9,1127.9,3471.0,3467.4,1587.1,2126.0,2688.6,3495.3,1577.7,3489.2,3483.2,3471.0,677.4,778.6,1811.0,984.2,905.0,993.6,29.0,-47.0,49.0,10244.0,-12601.0,1289.0,1741.0,104.0,144.0,142.0,-6.0,4.0,-25.0,10319.0,-12631.0,-1100.0,1096.0,140.0,-16.0,43.0,1.0
2022-05-23 16:03:04.820557-07:00,1390.3,815.2,1094.7,989.3,973.9,957.7,1995.5,1522.7,3472.2,3464.9,1075.6,831.1,1643.5,3471.0,1185.9,1136.6,3474.6,3467.4,1587.1,2126.0,2688.6,3486.8,1580.5,3489.2,3481.9,3471.0,677.4,778.6,1831.3,993.6,916.9,993.6,-2.0,75.0,-19.0,10287.0,-12551.0,1451.0,1732.0,156.0,149.0,297.0,3.0,15.0,28.0,10389.0,-12573.0,-1071.0,1127.0,192.0,-4.0,77.0,1.0
2022-05-23 16:03:04.880199-07:00,1387.5,815.2,1094.7,989.3,964.5,967.9,2023.4,1522.7,3471.0,3464.9,1075.6,831.1,1638.8,3460.1,1202.7,1136.6,3474.6,3472.2,1633.1,2115.9,2688.6,3486.8,1580.5,3477.1,3481.9,3471.0,679.1,791.9,1831.3,993.6,916.9,985.9,16.0,49.0,10.0,10247.0,-12570.0,1520.0,1771.0,-80.0,-4.0,73.0,16.0,-11.0,19.0,10385.0,-12576.0,-1055.0,1143.0,-13.0,4.0,31.0,1.0
2022-05-23 16:03:04.940178-07:00,1387.5,822.7,1096.4,997.9,964.5,967.9,2011.4,1518.0,3471.0,3466.1,1066.0,824.4,1638.8,3460.1,1202.7,1138.4,3467.4,3471.0,1633.1,2115.9,2689.7,3488.0,1580.5,3477.1,3466.1,3472.2,679.1,791.9,1807.1,999.6,925.4,985.9,30.0,47.0,12.0,10260.0,-12565.0,1477.0,1758.0,18.0,-37.0,-184.0,-2.0,18.0,-7.0,10382.0,-12580.0,-1061.0,1135.0,-55.0,5.0,-49.0,1.0
2022-05-23 16:03:05.000514-07:00,1368.5,816.9,1096.4,997.9,959.4,957.7,2011.4,1518.0,3464.9,3471.0,1066.0,824.4,1650.2,3463.7,1202.7,1138.4,3467.4,3471.0,1606.8,2114.9,2689.7,3488.0,1577.7,3485.6,3466.1,3472.2,679.9,798.5,1807.1,999.6,918.6,986.7,-16.0,-26.0,-5.0,10261.0,-12574.0,1447.0,1714.0,-16.0,36.0,-49.0,-2.0,-35.0,8.0,10364.0,-12594.0,-1077.0,1122.0,-27.0,-2.0,-22.0,1.0
2022-05-23 16:03:05.030248-07:00,1368.5,816.9,1102.5,992.7,959.4,957.7,1995.5,1517.1,3464.9,3471.0,1067.7,827.7,1650.2,3463.7,1202.7,1138.4,3475.9,3460.1,1606.8,2114.9,2695.2,3489.2,1577.7,3485.6,3471.0,3473.4,679.9,798.5,1808.1,1003.9,918.6,986.7,20.0,14.0,5.0,10274.0,-12564.0,1437.0,1725.0,58.0,-58.0,15.0,12.0,-3.0,-3.0,10379.0,-12582.0,-1074.0,1124.0,71.0,7.0,15.0,1.0
2022-05-23 16:03:05.120194-07:00,1383.9,816.9,1102.5,992.7,973.9,959.4,1995.5,1517.1,3462.5,3466.1,1067.7,827.7,1634.1,3474.6,1202.7,1138.4,3475.9,3460.1,1599.3,2126.0,2695.2,3489.2,1573.0,3483.2,3471.0,3473.4,683.1,796.9,1808.1,1003.9,922.8,990.2,23.0,51.0,6.0,10295.0,-12548.0,1411.0,1732.0,26.0,-61.0,-80.0,7.0,13.0,0.0,10390.0,-12572.0,-1074.0,1124.0,-11.0,-4.0,-19.0,1.0
2022-05-23 16:03:05.121796-07:00,1383.9,816.9,1089.5,998.7,973.9,959.4,1982.6,1496.7,3462.5,3466.1,1067.7,836.9,1634.1,3474.6,1200.9,1133.1,3472.2,3467.4,1599.3,2126.0,2689.7,3492.9,1573.0,3483.2,3481.9,3473.4,683.1,796.9,1808.1,1001.3,922.8,990.2,7.0,-17.0,13.0,10294.0,-12555.0,1370.0,1721.0,-34.0,7.0,-55.0,0.0,-17.0,1.0,10377.0,-12583.0,-1086.0,1118.0,-20.0,-7.0,-19.0,1.0
2022-05-23 16:03:05.181213-07:00,1373.0,806.9,1096.4,998.7,962.8,956.0,1982.6,1496.7,3464.9,3473.4,1075.6,836.9,1639.8,3478.3,1200.9,1133.1,3472.2,3467.4,1603.0,2128.0,2689.7,3495.3,1574.9,3477.1,3481.9,3473.4,679.9,798.5,1808.1,988.5,915.2,988.5,15.0,25.0,14.0,10316.0,-12538.0,1380.0,1709.0,130.0,32.0,22.0,5.0,-2.0,9.0,10391.0,-12571.0,-1087.0,1118.0,95.0,8.0,6.0,1.0
2022-05-23 16:03:05.240136-07:00,1373.0,806.9,1096.4,985.9,962.8,949.2,1984.6,1497.7,3464.9,3473.4,1075.6,830.2,1639.8,3472.2,1196.5,1129.6,3471.0,3467.4,1596.4,2128.0,2695.2,3495.3,1574.9,3477.1,3474.6,3474.6,682.3,798.5,1804.2,988.5,915.2,988.5,19.0,40.0,10.0,10351.0,-12509.0,1393.0,1695.0,36.0,14.0,-39.0,5.0,9.0,4.0,10415.0,-12551.0,-1085.0,1119.0,1.0,5.0,-8.0,1.0
2022-05-23 16:03:05.300394-07:00,1367.6,811.9,1093.8,985.9,963.7,949.2,1984.6,1497.7,3474.6,3463.7,1065.1,830.2,1644.5,3472.2,1196.5,1129.6,3471.0,3467.4,1596.4,2122.0,2695.2,3489.2,1574.9,3494.1,3474.6,3474.6,682.3,798.5,1804.2,997.9,918.6,991.9,6.0,0.0,10.0,10343.0,-12518.0,1384.0,1680.0,-49.0,12.0,-31.0,0.0,-14.0,4.0,10401.0,-12563.0,-1088.0,1117.0,-21.0,3.0,-2.0,1.0
2022-05-23 16:03:05.330319-07:00,1367.6,811.9,1093.8,994.5,963.7,955.1,1993.5,1509.7,3474.6,3463.7,1065.1,826.9,1644.5,3473.4,1193.8,1115.6,3461.3,3473.4,1606.8,2122.0,2682.1,3489.2,1574.9,3494.1,3472.2,3461.3,684.8,798.5,1811.0,997.9,918.6,991.9,11.0,26.0,4.0,10348.0,-12515.0,1392.0,1674.0,38.0,33.0,25.0,3.0,-1.0,2.0,10406.0,-12559.0,-1087.0,1116.0,29.0,9.0,7.0,1.0
2022-05-23 16:03:05.360085-07:00,1373.9,815.2,1091.2,994.5,956.8,955.1,1993.5,1509.7,3457.6,3466.1,1068.6,826.9,1644.5,3473.4,1193.8,1115.6,3461.3,3473.4,1606.8,2116.9,2682.1,3494.1,1566.5,3494.1,3472.2,3461.3,684.8,789.4,1811.0,995.3,912.7,988.5,20.0,26.0,4.0,10356.0,-12508.0,1398.0,1668.0,17.0,-7.0,-23.0,5.0,-2.0,-3.0,10411.0,-12554.0,-1087.0,1116.0,-2.0,-1.0,-4.0,1.0
2022-05-23 16:03:05.420305-07:00,1373.9,815.2,1091.2,993.6,956.8,956.0,1967.7,1509.7,3457.6,3466.1,1068.6,824.4,1644.5,3472.2,1192.9,1131.4,3478.3,3464.9,1599.3,2116.9,2691.9,3494.1,1566.5,3494.1,3472.2,3478.3,679.1,789.4,1810.0,995.3,912.7,988.5,8.0,12.0,2.0,10362.0,-12506.0,1383.0,1662.0,-9.0,-12.0,-27.0,0.0,-11.0,3.0,10410.0,-12555.0,-1088.0,1116.0,-17.0,-9.0,-9.0,1.0
2022-05-23 16:03:05.480273-07:00,1382.1,814.4,1076.4,986.7,968.8,956.0,1967.7,1509.7,3467.4,3464.9,1069.5,831.1,1640.7,3472.2,1192.9,1131.4,3478.3,3464.9,1599.3,2106.8,2689.7,3489.2,1572.1,3485.6,3472.2,3478.3,679.1,791.9,1802.3,994.5,918.6,990.2,16.0,16.0,12.0,10365.0,-12504.0,1368.0,1668.0,23.0,-41.0,-7.0,4.0,-7.0,2.0,10412.0,-12554.0,-1088.0,1116.0,31.0,-6.0,3.0,1.0
2022-05-23 16:03:05.510362-07:00,1382.1,814.4,1076.4,986.7,956.0,948.3,1974.6,1503.2,3467.4,3464.9,1069.5,831.1,1640.7,3462.5,1194.7,1129.6,3468.6,3474.6,1606.8,2119.9,2689.7,3489.2,1572.1,3485.6,3478.3,3488.0,675.0,787.7,1802.3,994.5,918.6,990.2,13.0,17.0,11.0,10379.0,-12492.0,1360.0,1673.0,22.0,-20.0,-8.0,3.0,-5.0,2.0,10421.0,-12546.0,-1087.0,1116.0,13.0,-8.0,-4.0,1.0
2022-05-23 16:03:05.570242-07:00,1366.6,814.4,1088.6,995.3,956.0,948.3,1974.6,1503.2,3471.0,3468.6,1059.9,822.7,1640.7,3462.5,1194.7,1129.6,3468.6,3474.6,1606.8,2119.9,2688.6,3495.3,1561.8,3481.9,3478.3,3488.0,675.0,787.7,1803.2,991.9,922.0,977.3,10.0,17.0,13.0,10381.0,-12491.0,1357.0,1677.0,-6.0,-19.0,15.0,7.0,0.0,11.0,10422.0,-12545.0,-1089.0,1118.0,5.0,-4.0,8.0,1.0
2022-05-23 16:03:05.630012-07:00,1366.6,814.4,1088.6,995.3,949.2,959.4,1976.6,1509.7,3471.0,3468.6,1059.9,822.7,1637.9,3467.4,1194.7,1131.4,3464.9,3474.6,1600.2,2118.9,2688.6,3495.3,1561.8,3481.9,3467.4,3472.2,673.3,791.0,1803.2,991.9,922.0,977.3,23.0,37.0,12.0,10385.0,-12486.0,1357.0,1685.0,30.0,-5.0,16.0,0.0,5.0,-2.0,10429.0,-12540.0,-1086.0,1120.0,31.0,8.0,6.0,1.0
2022-05-23 16:03:05.690803-07:00,1370.3,821.0,1088.6,987.6,949.2,959.4,1976.6,1509.7,3468.6,3468.6,1062.5,828.5,1637.9,3467.4,1194.7,1131.4,3464.9,3474.6,1600.2,2118.9,2690.8,3492.9,1559.0,3496.6,3467.4,3472.2,673.3,791.0,1798.4,994.5,921.1,991.0,6.0,18.0,3.0,10386.0,-12486.0,1361.0,1676.0,-9.0,21.0,-18.0,-3.0,-3.0,4.0,10428.0,-12541.0,-1083.0,1116.0,-18.0,12.0,-6.0,1.0
2022-05-23 16:03:05.810194-07:00,1368.5,821.0,1088.6,987.6,962.0,941.5,1967.7,1545.9,3462.5,3468.6,1062.5,828.5,1643.5,3468.6,1192.0,1127.0,3464.9,3469.8,1588.0,2115.9,2690.8,3492.9,1559.0,3484.4,3463.7,3479.5,658.7,788.6,1798.4,994.5,921.1,985.9,17.0,19.0,6.0,10389.0,-12484.0,1365.0,1668.0,28.0,21.0,-3.0,3.0,0.0,2.0,10427.0,-12541.0,-1082.0,1115.0,15.0,7.0,-5.0,1.0
2022-05-23 16:03:05.840193-07:00,1368.5,807.7,1089.5,997.0,962.0,941.5,1967.7,1503.2,3462.5,3462.5,1066.9,831.1,1643.5,3468.6,1192.0,1127.9,3456.4,3469.8,1588.0,2115.9,2690.8,3497.8,1564.6,3484.4,3478.3,3479.5,658.7,788.6,1790.7,985.0,921.1,985.9,15.0,25.0,4.0,10407.0,-12470.0,1375.0,1654.0,75.0,38.0,-2.0,4.0,-4.0,5.0,10440.0,-12531.0,-1081.0,1116.0,64.0,3.0,-4.0,1.0
2022-05-23 16:03:05.870790-07:00,1360.3,807.7,1089.5,997.0,970.5,952.6,1963.7,1503.2,3475.9,3462.5,1066.9,831.1,1639.8,3471.0,1197.4,1127.9,3456.4,3457.6,1603.0,2098.7,2690.8,3497.8,1564.6,3485.6,3478.3,3479.5,677.4,796.9,1790.7,985.0,921.1,982.5,13.0,17.0,4.0,10417.0,-12462.0,1378.0,1647.0,-16.0,2.0,-11.0,5.0,-3.0,4.0,10449.0,-12523.0,-1081.0,1116.0,-7.0,0.0,-4.0,1.0
2022-05-23 16:03:05.871734-07:00,1360.3,809.4,1083.4,991.9,970.5,952.6,1963.7,1494.0,3475.9,3468.6,1067.7,829.4,1639.8,3471.0,1197.4,1126.1,3478.3,3457.6,1603.0,2098.7,2686.4,3490.5,1558.1,3485.6,3467.4,3479.5,677.4,796.9,1792.6,1000.5,922.8,982.5,19.0,15.0,15.0,10412.0,-12467.0,1374.0,1645.0,-1.0,5.0,2.0,3.0,-4.0,2.0,10445.0,-12527.0,-1082.0,1116.0,-1.0,5.0,1.0,1.0
2022-05-23 16:03:05.930817-07:00,1358.5,809.4,1083.4,991.9,954.3,940.7,1968.7,1494.0,3467.4,3468.6,1067.7,829.4,1640.7,3469.8,1181.5,1126.1,3478.3,3474.6,1595.5,2094.7,2686.4,3490.5,1558.1,3486.8,3467.4,3471.0,678.2,788.6,1792.6,1000.5,922.8,991.0,8.0,24.0,5.0,10419.0,-12462.0,1381.0,1638.0,5.0,19.0,6.0,4.0,-5.0,7.0,10451.0,-12522.0,-1081.0,1116.0,2.0,9.0,3.0,1.0
2022-05-23 16:03:05.960166-07:00,1358.5,821.9,1092.9,977.3,954.3,940.7,1968.7,1494.0,3467.4,3467.4,1066.9,820.2,1640.7,3469.8,1195.6,1126.1,3475.9,3466.1,1595.5,2094.7,2684.3,3485.6,1558.1,3486.8,3481.9,3475.9,678.2,788.6,1791.6,993.6,926.2,991.0,15.0,27.0,5.0,10419.0,-12462.0,1382.0,1637.0,1.0,2.0,-9.0,2.0,0.0,1.0,10451.0,-12522.0,-1080.0,1115.0,-10.0,10.0,-3.0,1.0
2022-05-23 16:03:06.020571-07:00,1363.9,806.9,1092.9,977.3,962.0,949.2,1968.7,1494.0,3472.2,3468.6,1066.9,820.2,1634.1,3472.2,1195.6,1126.1,3475.9,3466.1,1593.6,2117.9,2684.3,3485.6,1564.6,3486.8,3481.9,3475.9,675.8,788.6,1791.6,993.6,915.2,985.0,18.0,20.0,5.0,10421.0,-12461.0,1377.0,1632.0,20.0,0.0,-14.0,2.0,-2.0,0.0,10449.0,-12524.0,-1080.0,1114.0,8.0,0.0,-3.0,1.0
2022-05-23 16:03:06.080384-07:00,1363.9,806.9,1097.3,997.0,962.0,949.2,1967.7,1485.6,3472.2,3468.6,1062.5,840.3,1634.1,3472.2,1193.8,1125.2,3469.8,3467.4,1593.6,2117.9,2666.8,3486.8,1564.6,3486.8,3467.4,3468.6,675.8,788.6,1799.4,994.5,915.2,985.0,10.0,16.0,0.0,10423.0,-12459.0,1375.0,1630.0,1.0,2.0,-3.0,4.0,-5.0,3.0,10451.0,-12522.0,-1081.0,1116.0,-3.0,-10.0,-2.0,1.0
2022-05-23 16:03:06.110602-07:00,1370.3,813.5,1097.3,997.0,962.0,945.8,1967.7,1485.6,3457.6,3468.6,1062.5,840.3,1642.6,3471.0,1193.8,1125.2,3469.8,3467.4,1599.3,2119.9,2666.8,3486.8,1563.7,3479.5,3467.4,3468.6,675.8,784.4,1799.4,994.5,918.6,983.3,13.0,22.0,4.0,10434.0,-12451.0,1370.0,1635.0,54.0,-34.0,-14.0,5.0,-5.0,7.0,10462.0,-12512.0,-1083.0,1121.0,54.0,-15.0,-2.0,1.0
2022-05-23 16:03:06.170289-07:00,1370.3,813.5,1096.4,983.3,962.0,945.8,1962.8,1497.7,3457.6,3468.6,1070.3,826.9,1642.6,3471.0,1193.8,1127.9,3464.9,3467.4,1599.3,2119.9,2682.1,3501.4,1563.7,3479.5,3472.2,3471.0,675.8,784.4,1801.3,993.6,918.6,983.3,13.0,21.0,10.0,10448.0,-12440.0,1358.0,1639.0,7.0,-21.0,-12.0,2.0,1.0,0.0,10474.0,-12501.0,-1085.0,1124.0,8.0,-16.0,-10.0,1.0
2022-05-23 16:03:06.230273-07:00,1363.9,816.0,1096.4,983.3,959.4,950.0,1962.8,1497.7,3467.4,3464.9,1070.3,826.9,1637.9,3472.2,1193.8,1127.9,3464.9,3467.4,1608.7,2120.9,2682.1,3501.4,1561.8,3484.4,3472.2,3471.0,679.9,790.2,1801.3,993.6,917.7,973.1,14.0,10.0,7.0,10447.0,-12442.0,1354.0,1636.0,7.0,-6.0,-11.0,8.0,-11.0,7.0,10471.0,-12504.0,-1088.0,1126.0,-4.0,-9.0,-2.0,1.0
2022-05-23 16:03:06.290130-07:00,1363.9,816.0,1096.4,992.7,959.4,946.6,1960.8,1499.5,3467.4,3464.9,1062.5,831.9,1637.9,3471.0,1202.7,1127.0,3466.1,3473.4,1604.0,2120.9,2678.8,3492.9,1561.8,3484.4,3473.4,3479.5,670.9,790.2,1791.6,992.7,917.7,973.1,16.0,25.0,9.0,10454.0,-12436.0,1352.0,1638.0,14.0,-8.0,5.0,8.0,0.0,4.0,10476.0,-12499.0,-1089.0,1129.0,15.0,-5.0,-2.0,1.0
2022-05-23 16:03:06.320729-07:00,1349.4,820.2,1087.7,992.7,960.2,946.6,1960.8,1499.5,3467.4,3458.9,1061.7,831.9,1634.1,3471.0,1202.7,1127.0,3466.1,3473.4,1604.0,2110.8,2678.8,3491.7,1557.1,3486.8,3473.4,3479.5,670.9,793.5,1791.6,986.7,914.4,976.5,11.0,15.0,9.0,10455.0,-12435.0,1349.0,1635.0,12.0,5.0,-18.0,6.0,-4.0,5.0,10474.0,-12501.0,-1089.0,1128.0,-3.0,4.0,-6.0,1.0
2022-05-23 16:03:06.381384-07:00,1349.4,820.2,1087.7,988.5,960.2,950.0,1961.8,1487.5,3467.4,3458.9,1061.7,831.9,1634.1,3478.3,1196.5,1125.2,3467.4,3474.6,1598.3,2110.8,2682.1,3491.7,1557.1,3486.8,3472.2,3472.2,670.1,793.5,1801.3,986.7,914.4,976.5,10.0,39.0,-6.0,10470.0,-12424.0,1347.0,1624.0,50.0,0.0,-15.0,0.0,4.0,4.0,10485.0,-12492.0,-1087.0,1128.0,53.0,8.0,-2.0,1.0
2022-05-23 16:03:06.410285-07:00,1357.6,817.7,1099.9,988.5,952.6,950.0,1961.8,1487.5,3471.0,3473.4,1067.7,831.9,1642.6,3478.3,1196.5,1125.2,3467.4,3474.6,1598.3,2105.8,2682.1,3488.0,1551.5,3484.4,3472.2,3472.2,670.1,791.9,1801.3,996.2,933.0,982.5,18.0,15.0,3.0,10458.0,-12435.0,1341.0,1624.0,-29.0,-6.0,-11.0,4.0,-5.0,-2.0,10482.0,-12494.0,-1088.0,1127.0,-20.0,-9.0,-10.0,1.0
2022-05-23 16:03:06.471643-07:00,1357.6,817.7,1099.9,990.2,952.6,947.5,1960.8,1493.0,3471.0,3473.4,1067.7,830.2,1642.6,3472.2,1196.5,1129.6,3469.8,3467.4,1600.2,2105.8,2686.4,3488.0,1551.5,3484.4,3460.1,3467.4,666.8,791.9,1801.3,996.2,933.0,982.5,18.0,16.0,1.0,10474.0,-12422.0,1333.0,1626.0,72.0,-49.0,-22.0,11.0,-5.0,0.0,10488.0,-12488.0,-1096.0,1128.0,36.0,-14.0,-15.0,1.0
2022-05-23 16:03:06.530292-07:00,1361.2,821.9,1092.9,984.2,946.6,947.5,1960.8,1493.0,3460.1,3464.9,1066.0,831.9,1637.9,3472.2,1196.5,1129.6,3469.8,3467.4,1600.2,2111.8,2681.0,3492.9,1560.9,3488.0,3460.1,3467.4,666.8,794.4,1785.8,992.7,933.0,974.8,8.0,-15.0,16.0,10514.0,-12389.0,1317.0,1636.0,174.0,-60.0,-6.0,13.0,-25.0,14.0,10516.0,-12464.0,-1099.0,1133.0,146.0,-8.0,-4.0,1.0
2022-05-23 16:03:06.560235-07:00,1361.2,821.9,1092.9,984.2,951.7,940.7,1970.7,1512.5,3460.1,3464.9,1066.0,831.9,1633.1,3464.9,1198.2,1128.7,3478.3,3469.8,1599.3,2094.7,2681.0,3492.9,1560.9,3488.0,3478.3,3467.4,669.3,806.9,1785.8,992.7,933.0,974.8,-3.0,-94.0,34.0,10675.0,-12243.0,1334.0,1673.0,811.0,-144.0,150.0,20.0,-62.0,37.0,10661.0,-12341.0,-1083.0,1140.0,713.0,31.0,9.0,1.0
2022-05-23 16:03:06.620607-07:00,1360.3,815.2,1104.3,1028.0,951.7,940.7,1970.7,1512.5,3467.4,3467.4,1086.8,847.8,1633.1,3464.9,1198.2,1128.7,3478.3,3469.8,1599.3,2094.7,2683.2,3484.4,1573.0,3488.0,3478.3,3467.4,669.3,806.9,1803.2,998.7,938.1,980.7,25.0,-1.0,-41.0,11191.0,-11749.0,1446.0,1748.0,2164.0,-205.0,333.0,18.0,-27.0,3.0,11119.0,-11935.0,-1001.0,1160.0,1835.0,132.0,47.0,1.0
2022-05-23 16:03:06.680515-07:00,1360.3,815.2,1104.3,1028.0,965.4,972.2,2021.4,1633.1,3467.4,3467.4,1086.8,847.8,1642.6,3468.6,1281.9,1140.1,3471.0,3471.0,1587.1,2130.1,2683.2,3484.4,1573.0,3488.0,3472.2,3466.1,678.2,897.4,1803.2,998.7,938.1,980.7,-11.0,68.0,-45.0,11774.0,-11133.0,1552.0,1859.0,1473.0,-302.0,297.0,-19.0,21.0,-29.0,11634.0,-11441.0,-911.0,1164.0,1279.0,76.0,-1.0,1.0
2022-05-23 16:03:06.710245-07:00,1361.2,815.2,1345.8,1207.1,965.4,972.2,2021.4,1633.1,3468.6,3466.1,1118.2,854.5,1642.6,3468.6,1281.9,1140.1,3471.0,3471.0,1587.1,2130.1,2699.6,3486.8,1573.9,3481.9,3472.2,3466.1,678.2,897.4,1803.2,1016.8,990.2,988.5,15.0,54.0,-51.0,12141.0,-10714.0,1557.0,1957.0,1209.0,-436.0,133.0,7.0,-6.0,25.0,11870.0,-11199.0,-869.0,1169.0,894.0,61.0,-7.0,1.0
2022-05-23 16:03:06.770051-07:00,1354.9,815.2,1345.8,1207.1,975.6,954.3,2094.7,1590.8,3468.6,3466.1,1118.2,854.5,1647.3,3467.4,1332.3,1159.4,3480.7,3467.4,1583.3,2188.1,2699.6,3486.8,1573.9,3484.4,3481.9,3480.7,696.2,915.2,1803.2,1016.8,990.2,986.7,24.0,37.0,14.0,12493.0,-10283.0,1442.0,2130.0,1253.0,-705.0,146.0,-8.0,50.0,5.0,12147.0,-10903.0,-820.0,1161.0,1039.0,99.0,-24.0,1.0
2022-05-23 16:03:06.830260-07:00,1354.9,816.0,1378.5,1215.1,975.6,954.3,2094.7,1550.6,3468.6,3472.2,1117.4,849.5,1647.3,3467.4,1332.3,1166.5,3475.9,3467.4,1583.3,2188.1,2699.6,3481.9,1561.8,3484.4,3483.2,3480.7,696.2,915.2,1801.3,1023.7,1004.8,986.7,10.0,27.0,-12.0,12758.0,-9920.0,1366.0,2324.0,679.0,-538.0,202.0,6.0,-19.0,-6.0,12407.0,-10610.0,-775.0,1152.0,587.0,31.0,0.0,1.0
2022-05-23 16:03:06.860177-07:00,1357.6,816.0,1378.5,1215.1,962.0,947.5,2094.7,1550.6,3468.6,3472.2,1117.4,849.5,1636.9,3464.9,1332.3,1166.5,3475.9,3473.4,1582.4,2143.3,2699.6,3481.9,1561.8,3494.1,3483.2,3483.2,711.8,909.3,1801.3,1023.7,1004.8,979.9,15.0,0.0,11.0,12910.0,-9688.0,1299.0,2494.0,547.0,-384.0,236.0,7.0,-15.0,6.0,12561.0,-10429.0,-746.0,1163.0,548.0,17.0,44.0,1.0
2022-05-23 16:03:06.920223-07:00,1357.6,821.9,1425.9,1249.7,962.0,947.5,2094.7,1537.6,3468.6,3478.3,1120.0,847.0,1636.9,3464.9,1332.3,1153.3,3474.6,3473.4,1582.4,2143.3,2701.8,3490.5,1559.9,3494.1,3474.6,3483.2,711.8,909.3,1803.2,1026.3,999.6,979.9,25.0,36.0,9.0,13083.0,-9422.0,1292.0,2615.0,829.0,-255.0,137.0,13.0,0.0,11.0,12724.0,-10229.0,-704.0,1183.0,662.0,52.0,35.0,1.0
2022-05-23 16:03:06.980423-07:00,1355.8,821.9,1425.9,1249.7,973.9,944.1,2073.5,1537.6,3468.6,3478.3,1120.0,847.0,1644.5,3464.9,1326.8,1153.3,3474.6,3471.0,1572.1,2147.3,2701.8,3490.5,1559.9,3488.0,3474.6,3469.8,722.5,907.6,1803.2,1026.3,999.6,987.6,8.0,73.0,-13.0,13299.0,-9098.0,1284.0,2672.0,811.0,-250.0,38.0,1.0,32.0,19.0,12895.0,-10016.0,-664.0,1186.0,488.0,40.0,-23.0,1.0
2022-05-23 16:03:07.010324-07:00,1355.8,826.9,1466.3,1264.0,973.9,944.1,2092.6,1546.9,3468.6,3473.4,1127.0,848.6,1644.5,3464.9,1345.8,1171.8,3475.9,3478.3,1572.1,2147.3,2699.6,3486.8,1559.9,3488.0,3481.9,3474.6,722.5,907.6,1786.8,1017.6,1002.2,987.6,30.0,8.0,24.0,13431.0,-8897.0,1240.0,2712.0,418.0,-170.0,-5.0,-2.0,-3.0,4.0,12999.0,-9882.0,-648.0,1181.0,266.0,3.0,2.0,1.0
2022-05-23 16:03:07.070194-07:00,1349.4,811.9,1466.3,1264.0,960.2,933.9,2092.6,1546.9,3460.1,3467.4,1127.0,848.6,1634.1,3464.9,1345.8,1171.8,3475.9,3478.3,1568.3,2157.5,2699.6,3486.8,1559.9,3485.6,3481.9,3474.6,734.8,896.6,1786.8,1017.6,999.6,981.6,-6.0,29.0,1.0,13486.0,-8809.0,1264.0,2715.0,107.0,56.0,50.0,4.0,0.0,33.0,13037.0,-9830.0,-636.0,1192.0,36.0,11.0,41.0,1.0
2022-05-23 16:03:07.130445-07:00,1349.4,811.9,1454.3,1269.4,960.2,933.9,2081.6,1536.6,3460.1,3467.4,1138.4,853.7,1634.1,3464.9,1349.4,1167.4,3469.8,3471.0,1568.3,2157.5,2711.7,3497.8,1559.9,3485.6,3468.6,3464.9,734.8,896.6,1797.4,1024.5,999.6,981.6,12.0,48.0,-12.0,13504.0,-8779.0,1287.0,2709.0,140.0,29.0,-29.0,4.0,17.0,15.0,13051.0,-9813.0,-622.0,1199.0,62.0,15.0,11.0,1.0
2022-05-23 16:03:07.160149-07:00,1343.1,811.0,1454.3,1269.4,958.5,936.4,2081.6,1536.6,3472.2,3472.2,1138.4,853.7,1634.1,3471.0,1349.4,1167.4,3469.8,3471.0,1569.3,2146.3,2711.7,3497.8,1554.3,3484.4,3468.6,3464.9,728.2,891.5,1797.4,1024.5,1007.3,973.9,66.0,19.0,-4.0,13543.0,-8730.0,1278.0,2681.0,135.0,-53.0,-58.0,6.0,-4.0,-2.0,13068.0,-9791.0,-618.0,1187.0,69.0,24.0,-28.0,1.0
2022-05-23 16:03:07.221021-07:00,1343.1,811.0,1532.0,1286.4,958.5,936.4,2054.4,1531.0,3472.2,3472.2,1146.3,859.5,1634.1,3471.0,1382.1,1179.7,3466.1,3474.6,1569.3,2146.3,2698.5,3484.4,1554.3,3484.4,3467.4,3475.9,728.2,891.5,1799.4,1023.7,1007.3,973.9,32.0,-18.0,-28.0,13560.0,-8706.0,1306.0,2656.0,87.0,122.0,-5.0,10.0,-42.0,-5.0,13076.0,-9781.0,-617.0,1184.0,24.0,-14.0,24.0,1.0
2022-05-23 16:03:07.280326-07:00,1353.1,814.4,1532.0,1286.4,962.0,922.8,2054.4,1531.0,3466.1,3468.6,1146.3,859.5,1636.9,3473.4,1382.1,1179.7,3466.1,3474.6,1566.5,2143.3,2698.5,3484.4,1559.0,3485.6,3467.4,3475.9,728.2,887.3,1799.4,1023.7,1006.5,980.7,11.0,21.0,-18.0,13566.0,-8698.0,1361.0,2623.0,31.0,115.0,15.0,4.0,19.0,13.0,13079.0,-9776.0,-614.0,1195.0,32.0,2.0,16.0,1.0
2022-05-23 16:03:07.310409-07:00,1353.1,814.4,1519.9,1277.4,962.0,914.4,2041.4,1510.6,3466.1,3468.6,1164.7,860.4,1636.9,3464.9,1371.2,1188.5,3473.4,3467.4,1557.1,2143.3,2698.5,3500.2,1559.0,3485.6,3473.4,3472.2,711.8,887.3,1791.6,1018.5,1006.5,980.7,7.0,22.0,-22.0,13569.0,-8690.0,1398.0,2615.0,42.0,58.0,6.0,5.0,-3.0,13.0,13091.0,-9760.0,-613.0,1196.0,41.0,-11.0,8.0,1.0
2022-05-23 16:03:07.370276-07:00,1344.9,802.7,1499.5,1277.4,967.1,914.4,2041.4,1510.6,3473.4,3471.0,1167.4,860.4,1643.5,3464.9,1371.2,1188.5,3473.4,3467.4,1557.1,2153.4,2698.5,3497.8,1559.0,3486.8,3473.4,3472.2,711.8,890.7,1791.6,1023.7,994.5,979.0,18.0,-16.0,-6.0,13563.0,-8701.0,1414.0,2604.0,-41.0,76.0,35.0,9.0,-10.0,8.0,13089.0,-9761.0,-617.0,1207.0,-4.0,-24.0,24.0,1.0
2022-05-23 16:03:07.430686-07:00,1344.9,802.7,1499.5,1253.3,967.1,910.1,2007.4,1499.5,3473.4,3471.0,1167.4,858.7,1643.5,3473.4,1373.9,1184.1,3471.0,3477.1,1559.0,2153.4,2699.6,3497.8,1559.0,3486.8,3478.3,3478.3,720.0,890.7,1797.4,1023.7,994.5,979.0,19.0,26.0,-16.0,13557.0,-8696.0,1477.0,2619.0,24.0,104.0,141.0,0.0,8.0,0.0,13099.0,-9745.0,-619.0,1224.0,27.0,-38.0,27.0,1.0
2022-05-23 16:03:07.460143-07:00,1361.2,804.4,1494.0,1253.3,971.3,910.1,2007.4,1499.5,3457.6,3461.3,1176.2,858.7,1636.0,3473.4,1373.9,1184.1,3471.0,3477.1,1559.0,2160.5,2699.6,3503.9,1556.2,3479.5,3478.3,3478.3,720.0,888.2,1797.4,1028.8,1000.5,957.7,9.0,3.0,13.0,13520.0,-8736.0,1547.0,2636.0,-152.0,155.0,112.0,-1.0,-3.0,18.0,13085.0,-9762.0,-622.0,1245.0,-80.0,-35.0,45.0,1.0
2022-05-23 16:03:07.610272-07:00,1361.2,804.4,1494.0,1257.8,971.3,912.7,2010.4,1461.7,3457.6,3461.3,1176.2,869.6,1636.0,3467.4,1381.2,1186.7,3473.4,3467.4,1567.4,2160.5,2701.8,3503.9,1556.2,3479.5,3467.4,3462.5,713.4,888.2,1796.5,1028.8,1000.5,957.7,0.0,53.0,-11.0,13449.0,-8827.0,1635.0,2640.0,-330.0,220.0,96.0,8.0,17.0,40.0,13042.0,-9815.0,-621.0,1271.0,-271.0,-15.0,66.0,1.0
2022-05-23 16:03:07.613253-07:00,1345.8,831.1,1481.9,1261.3,991.0,912.7,2010.4,1461.7,3467.4,3460.1,1187.6,878.9,1653.9,3467.4,1381.2,1186.7,3473.4,3467.4,1567.4,2136.1,2697.4,3479.5,1553.4,3491.7,3467.4,3462.5,713.4,889.0,1779.1,1018.5,999.6,996.2,18.0,26.0,-20.0,13302.0,-9039.0,1654.0,2656.0,-708.0,53.0,35.0,9.0,-21.0,-5.0,12945.0,-9942.0,-623.0,1278.0,-453.0,-5.0,34.0,1.0
2022-05-23 16:03:07.614197-07:00,1345.8,831.1,1481.9,1261.3,1016.8,918.6,1987.5,1481.0,3467.4,3460.1,1187.6,878.9,1636.9,3463.7,1395.7,1200.0,3474.6,3469.8,1549.7,2131.1,2697.4,3479.5,1553.4,3491.7,3471.0,3472.2,712.6,884.8,1779.1,1018.5,999.6,996.2,19.0,50.0,-30.0,13220.0,-9180.0,1600.0,2614.0,-13.0,-23.0,-254.0,22.0,-4.0,27.0,12897.0,-10005.0,-627.0,1269.0,72.0,25.0,-60.0,1.0
2022-05-23 16:03:07.670256-07:00,1347.6,827.7,1459.8,1277.4,1016.8,918.6,1987.5,1481.0,3472.2,3464.9,1175.3,878.0,1636.9,3463.7,1395.7,1200.0,3474.6,3469.8,1549.7,2131.1,2695.2,3488.0,1554.3,3486.8,3471.0,3472.2,712.6,884.8,1793.6,1012.5,992.7,990.2,38.0,-44.0,12.0,13251.0,-9163.0,1512.0,2568.0,93.0,-140.0,-97.0,10.0,14.0,7.0,12915.0,-9987.0,-627.0,1229.0,123.0,75.0,-73.0,1.0
2022-05-23 16:03:07.730773-07:00,1347.6,827.7,1459.8,1277.4,999.6,902.5,1962.8,1479.2,3472.2,3464.9,1175.3,878.0,1640.7,3468.6,1380.3,1201.8,3474.6,3471.0,1549.7,2146.3,2695.2,3488.0,1554.3,3486.8,3480.7,3478.3,724.9,887.3,1793.6,1012.5,992.7,990.2,-1.0,5.0,-10.0,13325.0,-9051.0,1521.0,2577.0,385.0,-39.0,57.0,2.0,-14.0,14.0,12991.0,-9893.0,-604.0,1200.0,310.0,67.0,-28.0,1.0
2022-05-23 16:03:07.760241-07:00,1335.0,821.0,1447.9,1265.8,999.6,902.5,1962.8,1479.2,3468.6,3467.4,1171.8,872.1,1640.7,3468.6,1380.3,1201.8,3474.6,3471.0,1549.7,2146.3,2691.9,3492.9,1545.0,3488.0,3480.7,3478.3,724.9,887.3,1795.5,1017.6,976.5,979.9,28.0,18.0,-16.0,13357.0,-8996.0,1538.0,2594.0,38.0,12.0,9.0,4.0,-8.0,-12.0,13011.0,-9867.0,-585.0,1198.0,-4.0,8.0,25.0,1.0
2022-05-23 16:03:07.820199-07:00,1335.0,821.0,1447.9,1265.8,978.2,913.5,1953.9,1462.6,3468.6,3467.4,1171.8,872.1,1632.2,3462.5,1379.4,1189.4,3467.4,3469.8,1554.3,2128.0,2691.9,3492.9,1545.0,3488.0,3472.2,3469.8,718.4,878.9,1795.5,1017.6,976.5,979.9,15.0,12.0,-6.0,13368.0,-8981.0,1555.0,2579.0,60.0,50.0,16.0,2.0,6.0,6.0,13021.0,-9854.0,-583.0,1201.0,77.0,-8.0,1.0,1.0
2022-05-23 16:03:07.880558-07:00,1339.5,810.2,1455.2,1254.2,978.2,913.5,1953.9,1447.9,3471.0,3467.4,1178.8,876.4,1632.2,3462.5,1379.4,1196.5,3464.9,3469.8,1554.3,2128.0,2691.9,3490.5,1548.7,3490.5,3474.6,3469.8,718.4,878.9,1814.9,1007.3,979.9,977.3,16.0,-19.0,-37.0,13463.0,-8828.0,1594.0,2592.0,893.0,-151.0,183.0,11.0,-1.0,30.0,13160.0,-9671.0,-552.0,1184.0,959.0,121.0,-41.0,1.0
2022-05-23 16:03:07.911004-07:00,1335.0,810.2,1455.2,1254.2,987.6,908.4,1937.1,1447.9,3462.5,3467.4,1178.8,876.4,1625.6,3478.3,1374.8,1196.5,3464.9,3469.8,1551.5,2136.1,2691.9,3490.5,1548.7,3489.2,3474.6,3473.4,720.0,880.6,1814.9,1007.3,979.9,980.7,9.0,22.0,4.0,13649.0,-8492.0,1661.0,2693.0,571.0,-118.0,245.0,-23.0,18.0,-30.0,13373.0,-9381.0,-510.0,1159.0,545.0,18.0,-51.0,1.0
2022-05-23 16:03:07.970689-07:00,1335.0,821.9,1421.3,1239.9,987.6,908.4,1937.1,1443.3,3462.5,3462.5,1166.5,878.0,1625.6,3478.3,1374.8,1192.9,3480.7,3469.8,1551.5,2136.1,2695.2,3488.0,1557.1,3489.2,3473.4,3473.4,720.0,880.6,1783.9,1009.0,973.1,980.7,77.0,-29.0,0.0,13626.0,-8463.0,1750.0,2844.0,-20.0,-21.0,582.0,15.0,-122.0,-1.0,13404.0,-9334.0,-497.0,1175.0,168.0,16.0,106.0,1.0
2022-05-23 16:03:08.030457-07:00,1344.9,821.9,1421.3,1239.9,996.2,898.3,1905.6,1443.3,3462.5,3462.5,1166.5,878.0,1636.0,3457.6,1382.1,1192.9,3480.7,3468.6,1549.7,2136.1,2695.2,3488.0,1557.1,3477.1,3473.4,3468.6,710.1,879.7,1783.9,1009.0,973.1,1030.6,48.0,68.0,15.0,13560.0,-8493.0,1898.0,2973.0,-239.0,274.0,260.0,8.0,18.0,-16.0,13397.0,-9338.0,-484.0,1229.0,-178.0,-91.0,104.0,1.0
2022-05-23 16:03:08.150352-07:00,1344.9,809.4,1424.1,1235.5,996.2,898.3,1905.6,1442.4,3462.5,3461.3,1199.1,891.5,1636.0,3457.6,1382.1,1204.4,3488.0,3468.6,1549.7,2136.1,2700.7,3491.7,1554.3,3477.1,3484.4,3468.6,710.1,879.7,1792.6,1005.6,976.5,1030.6,-10.0,15.0,25.0,13445.0,-8641.0,2068.0,2952.0,-490.0,533.0,216.0,10.0,-14.0,42.0,13314.0,-9448.0,-514.0,1279.0,-433.0,-106.0,91.0,1.0
2022-05-23 16:03:08.152958-07:00,1334.1,815.2,1424.1,1235.5,1000.5,900.0,1868.4,1442.4,3467.4,3458.9,1199.1,891.5,1633.1,3473.4,1400.3,1204.4,3488.0,3471.0,1551.5,2123.0,2700.7,3491.7,1554.3,3490.5,3484.4,3471.0,708.5,867.1,1792.6,1005.6,973.9,1029.7,41.0,-40.0,55.0,13202.0,-8948.0,2251.0,3001.0,-1086.0,518.0,459.0,-2.0,26.0,30.0,13142.0,-9676.0,-526.0,1345.0,-816.0,-74.0,209.0,1.0
2022-05-23 16:03:08.153686-07:00,1334.1,815.2,1405.8,1239.1,1000.5,900.0,1880.1,1426.8,3467.4,3458.9,1227.5,898.3,1633.1,3473.4,1420.4,1201.8,3471.0,3467.4,1551.5,2123.0,2701.8,3488.0,1554.3,3490.5,3471.0,3474.6,708.5,867.1,1794.5,1003.9,973.9,1029.7,24.0,45.0,78.0,12807.0,-9382.0,2576.0,3124.0,-1027.0,881.0,611.0,14.0,-61.0,22.0,12925.0,-9953.0,-486.0,1440.0,-686.0,31.0,302.0,1.0
2022-05-23 16:03:08.210216-07:00,1339.5,816.9,1405.8,1239.1,1001.3,887.3,1880.1,1426.8,3467.4,3464.9,1227.5,898.3,1644.5,3469.8,1420.4,1201.8,3471.0,3467.4,1564.6,2118.9,2701.8,3488.0,1551.5,3481.9,3471.0,3474.6,709.3,866.3,1794.5,1003.9,980.7,1010.8,19.0,169.0,-48.0,12531.0,-9709.0,2820.0,3031.0,-851.0,693.0,-134.0,1.0,105.0,40.0,12749.0,-10174.0,-455.0,1474.0,-977.0,70.0,74.0,1.0
2022-05-23 16:03:08.270117-07:00,1339.5,816.9,1393.9,1215.1,1001.3,887.3,1880.1,1433.2,3467.4,3464.9,1239.1,907.6,1644.5,3469.8,1415.8,1214.2,3468.6,3472.2,1564.6,2118.9,2700.7,3484.4,1551.5,3481.9,3466.1,3484.4,709.3,866.3,1782.0,1021.1,980.7,1010.8,-11.0,44.0,-39.0,12376.0,-9966.0,2812.0,2839.0,-236.0,183.0,-563.0,2.0,-31.0,47.0,12494.0,-10493.0,-462.0,1419.0,-492.0,122.0,-128.0,1.0
2022-05-23 16:03:08.301327-07:00,1341.3,814.4,1393.9,1215.1,998.7,886.5,1880.1,1433.2,3471.0,3472.2,1239.1,907.6,1637.9,3473.4,1415.8,1214.2,3468.6,3472.2,1560.9,2117.9,2700.7,3484.4,1550.6,3483.2,3466.1,3484.4,700.3,861.2,1782.0,1021.1,987.6,1017.6,22.0,-44.0,-29.0,12426.0,-9994.0,2691.0,2628.0,-10.0,158.0,-395.0,-13.0,7.0,-26.0,12442.0,-10564.0,-484.0,1345.0,-239.0,67.0,-160.0,1.0
2022-05-23 16:03:08.360164-07:00,1341.3,814.4,1383.0,1227.5,998.7,878.9,1860.6,1436.0,3471.0,3472.2,1235.5,898.3,1637.9,3474.6,1413.1,1212.4,3469.8,3472.2,1560.9,2117.9,2694.1,3494.1,1550.6,3483.2,3464.9,3474.6,700.3,861.2,1793.6,1013.3,987.6,1017.6,21.0,-72.0,-36.0,12387.0,-10069.0,2685.0,2529.0,-167.0,134.0,-113.0,9.0,-65.0,-31.0,12377.0,-10645.0,-498.0,1292.0,-225.0,41.0,12.0,1.0
2022-05-23 16:03:08.420217-07:00,1324.1,807.7,1379.4,1227.5,992.7,878.9,1860.6,1436.0,3468.6,3467.4,1235.5,898.3,1632.2,3474.6,1413.1,1212.4,3469.8,3472.2,1560.9,2102.7,2694.1,3492.9,1546.9,3486.8,3464.9,3474.6,700.3,859.5,1793.6,1024.5,988.5,997.0,42.0,26.0,-25.0,12349.0,-10121.0,2699.0,2495.0,-101.0,81.0,-13.0,28.0,16.0,-5.0,12326.0,-10704.0,-487.0,1297.0,-92.0,-1.0,33.0,1.0
2022-05-23 16:03:08.451014-07:00,1324.1,807.7,1379.4,1224.8,992.7,879.7,1860.6,1404.0,3468.6,3467.4,1235.5,899.1,1632.2,3463.7,1406.7,1199.1,3468.6,3468.6,1555.3,2102.7,2693.0,3492.9,1546.9,3486.8,3471.0,3467.4,701.1,859.5,1794.5,1024.5,988.5,997.0,22.0,18.0,-24.0,12351.0,-10119.0,2691.0,2502.0,82.0,-90.0,-1.0,-3.0,-1.0,0.0,12317.0,-10714.0,-488.0,1303.0,49.0,-43.0,-15.0,1.0
2022-05-23 16:03:08.510269-07:00,1328.7,804.4,1373.9,1224.8,995.3,879.7,1860.6,1404.0,3463.7,3460.1,1225.7,899.1,1639.8,3463.7,1406.7,1199.1,3468.6,3468.6,1555.3,2103.7,2693.0,3492.9,1546.9,3490.5,3471.0,3467.4,701.1,856.2,1794.5,1034.0,1000.5,999.6,11.0,19.0,0.0,12383.0,-10080.0,2666.0,2525.0,80.0,-93.0,27.0,-8.0,-8.0,10.0,12338.0,-10688.0,-505.0,1315.0,68.0,-53.0,3.0,1.0
2022-05-23 16:03:08.570260-07:00,1328.7,804.4,1373.9,1223.9,995.3,878.9,1846.9,1404.0,3463.7,3460.1,1225.7,905.9,1639.8,3471.0,1411.3,1211.5,3473.4,3467.4,1558.1,2103.7,2713.9,3492.9,1546.9,3490.5,3467.4,3467.4,697.0,856.2,1789.7,1034.0,1000.5,999.6,17.0,28.0,8.0,12387.0,-10076.0,2649.0,2543.0,-53.0,-50.0,-13.0,8.0,2.0,22.0,12345.0,-10677.0,-520.0,1329.0,-27.0,-31.0,-4.0,1.0
2022-05-23 16:03:08.600455-07:00,1320.5,819.4,1365.7,1223.9,986.7,878.9,1846.9,1404.0,3468.6,3457.6,1231.0,905.9,1633.1,3471.0,1411.3,1211.5,3473.4,3467.4,1558.1,2106.8,2713.9,3495.3,1542.2,3488.0,3467.4,3467.4,697.0,856.2,1789.7,1031.4,994.5,1004.8,13.0,3.0,5.0,12408.0,-10053.0,2621.0,2557.0,146.0,-109.0,11.0,10.0,-7.0,30.0,12361.0,-10658.0,-531.0,1329.0,139.0,-8.0,-15.0,1.0
2022-05-23 16:03:08.660142-07:00,1320.5,819.4,1365.7,1223.9,996.2,876.4,1849.8,1409.4,3468.6,3457.6,1231.0,902.5,1634.1,3474.6,1408.5,1212.4,3469.8,3467.4,1549.7,2101.7,2685.3,3495.3,1542.2,3488.0,3472.2,3468.6,697.9,855.3,1791.6,1031.4,994.5,1004.8,24.0,32.0,0.0,12450.0,-9999.0,2607.0,2580.0,57.0,-43.0,34.0,6.0,0.0,-1.0,12402.0,-10610.0,-530.0,1328.0,49.0,-16.0,2.0,1.0
2022-05-23 16:03:08.721077-07:00,1334.1,825.2,1365.7,1230.2,996.2,876.4,1849.8,1409.4,3478.3,3467.4,1222.2,896.6,1634.1,3474.6,1408.5,1212.4,3469.8,3467.4,1549.7,2101.7,2685.3,3488.0,1544.1,3497.8,3472.2,3468.6,697.9,855.3,1792.6,1029.7,996.2,1008.2,15.0,-2.0,12.0,12419.0,-10037.0,2605.0,2584.0,-157.0,41.0,-8.0,5.0,-19.0,15.0,12385.0,-10630.0,-534.0,1333.0,-143.0,-8.0,17.0,1.0
2022-05-23 16:03:08.750421-07:00,1334.1,825.2,1365.7,1230.2,997.9,877.2,1834.3,1401.2,3478.3,3467.4,1222.2,896.6,1642.6,3463.7,1408.5,1210.6,3474.6,3472.2,1546.9,2113.9,2685.3,3488.0,1544.1,3497.8,3472.2,3473.4,692.1,854.5,1792.6,1029.7,996.2,1008.2,20.0,34.0,-8.0,12408.0,-10050.0,2614.0,2577.0,33.0,18.0,-5.0,1.0,14.0,6.0,12374.0,-10643.0,-531.0,1333.0,24.0,10.0,-6.0,1.0
2022-05-23 16:03:08.810554-07:00,1317.8,801.0,1373.0,1218.6,997.9,877.2,1834.3,1401.2,3463.7,3478.3,1222.2,895.7,1642.6,3463.7,1408.5,1210.6,3474.6,3472.2,1546.9,2113.9,2686.4,3494.1,1536.6,3483.2,3472.2,3473.4,692.1,854.5,1788.7,1031.4,991.0,997.0,12.0,0.0,-8.0,12411.0,-10050.0,2609.0,2570.0,-20.0,2.0,-19.0,3.0,-14.0,5.0,12373.0,-10643.0,-535.0,1328.0,-16.0,-9.0,-13.0,1.0
2022-05-23 16:03:08.900406-07:00,1317.8,801.0,1373.0,1218.6,984.2,884.8,1844.0,1375.7,3463.7,3478.3,1222.2,895.7,1642.6,3469.8,1398.5,1200.0,3468.6,3471.0,1549.7,2114.9,2686.4,3494.1,1536.6,3483.2,3473.4,3473.4,696.2,853.7,1788.7,1031.4,991.0,997.0,22.0,7.0,-9.0,12410.0,-10052.0,2601.0,2572.0,-3.0,-26.0,1.0,6.0,-6.0,4.0,12372.0,-10644.0,-541.0,1331.0,-6.0,-16.0,4.0,1.0
2022-05-23 16:03:08.931131-07:00,1325.9,807.7,1363.9,1217.7,984.2,884.8,1844.0,1392.1,3464.9,3473.4,1206.2,895.7,1642.6,3469.8,1398.5,1209.7,3469.8,3471.0,1549.7,2114.9,2682.1,3494.1,1538.5,3486.8,3473.4,3473.4,696.2,853.7,1786.8,1023.7,998.7,997.0,23.0,19.0,1.0,12417.0,-10045.0,2593.0,2576.0,26.0,-23.0,2.0,3.0,-2.0,9.0,12377.0,-10638.0,-547.0,1336.0,21.0,-21.0,-6.0,1.0
2022-05-23 16:03:08.960247-07:00,1322.3,807.7,1363.9,1217.7,983.3,867.9,1844.0,1392.1,3462.5,3473.4,1206.2,895.7,1634.1,3467.4,1396.7,1209.7,3469.8,3477.1,1549.7,2099.7,2682.1,3494.1,1538.5,3489.2,3473.4,3475.9,697.9,852.8,1786.8,1023.7,998.7,996.2,14.0,27.0,-6.0,12428.0,-10033.0,2589.0,2570.0,43.0,-13.0,-43.0,4.0,-3.0,14.0,12380.0,-10633.0,-555.0,1343.0,-5.0,-28.0,-4.0,1.0
2022-05-23 16:03:09.020807-07:00,1322.3,800.2,1361.2,1216.8,983.3,867.9,1844.0,1407.6,3462.5,3478.3,1220.4,894.1,1634.1,3467.4,1396.7,1206.2,3478.3,3477.1,1549.7,2099.7,2674.4,3490.5,1535.7,3489.2,3479.5,3475.9,697.9,852.8,1793.6,1028.8,997.9,996.2,19.0,23.0,-7.0,12445.0,-10023.0,2565.0,2550.0,21.0,-20.0,-63.0,2.0,4.0,11.0,12380.0,-10632.0,-566.0,1348.0,-18.0,-30.0,-16.0,1.0
2022-05-23 16:03:09.050775-07:00,1324.1,800.2,1361.2,1216.8,982.5,867.9,1806.1,1407.6,3473.4,3478.3,1220.4,894.1,1642.6,3463.7,1400.3,1206.2,3478.3,3471.0,1548.7,2098.7,2674.4,3490.5,1535.7,3489.2,3479.5,3468.6,692.9,842.8,1793.6,1028.8,997.9,992.7,23.0,-8.0,10.0,12434.0,-10042.0,2547.0,2553.0,-54.0,-27.0,1.0,9.0,-19.0,5.0,12369.0,-10644.0,-577.0,1352.0,-22.0,-21.0,4.0,1.0
2022-05-23 16:03:09.110759-07:00,1324.1,809.4,1360.3,1212.4,982.5,867.9,1806.1,1397.6,3473.4,3469.8,1217.7,898.3,1642.6,3463.7,1400.3,1214.2,3467.4,3471.0,1548.7,2098.7,2686.4,3486.8,1536.6,3489.2,3477.1,3468.6,692.9,842.8,1793.6,1032.3,997.0,992.7,17.0,42.0,-9.0,12437.0,-10036.0,2549.0,2556.0,6.0,5.0,1.0,1.0,10.0,7.0,12374.0,-10637.0,-578.0,1352.0,5.0,0.0,5.0,1.0
2022-05-23 16:03:09.200464-07:00,1325.9,809.4,1360.3,1212.4,973.1,873.0,1833.3,1397.6,3457.6,3469.8,1217.7,898.3,1627.5,3478.3,1399.4,1214.2,3467.4,3481.9,1582.4,2088.6,2686.4,3486.8,1536.6,3489.2,3477.1,3480.7,688.9,844.4,1793.6,1032.3,997.0,994.5,11.0,14.0,-21.0,12433.0,-10047.0,2535.0,2550.0,-11.0,-41.0,-49.0,-2.0,-4.0,6.0,12366.0,-10646.0,-584.0,1351.0,-18.0,-11.0,-18.0,1.0
2022-05-23 16:03:09.202166-07:00,1325.9,806.0,1360.3,1209.7,973.1,873.0,1822.6,1383.0,3457.6,3473.4,1231.9,895.7,1627.5,3478.3,1396.7,1208.9,3467.4,3466.1,1582.4,2088.6,2676.6,3494.1,1539.4,3489.2,3488.0,3478.3,688.9,844.4,1787.8,1033.2,996.2,994.5,18.0,31.0,-28.0,12449.0,-10036.0,2493.0,2554.0,54.0,-119.0,-69.0,7.0,-6.0,3.0,12373.0,-10638.0,-599.0,1351.0,31.0,-39.0,-30.0,1.0
2022-05-23 16:03:09.260241-07:00,1322.3,817.7,1360.3,1209.7,987.6,874.7,1822.6,1383.0,3478.3,3466.1,1231.9,895.7,1636.0,3467.4,1396.7,1208.9,3467.4,3466.1,1547.8,2094.7,2676.6,3494.1,1537.6,3496.6,3488.0,3478.3,692.9,844.4,1787.8,1033.2,993.6,994.5,-4.0,59.0,-47.0,12490.0,-10011.0,2381.0,2560.0,145.0,-392.0,-272.0,17.0,-13.0,30.0,12391.0,-10616.0,-626.0,1345.0,90.0,-22.0,-69.0,1.0
2022-05-23 16:03:09.320311-07:00,1322.3,817.7,1354.9,1224.8,987.6,874.7,1825.5,1396.7,3478.3,3466.1,1220.4,894.9,1636.0,3467.4,1393.9,1200.0,3472.2,3474.6,1547.8,2094.7,2678.8,3481.9,1537.6,3496.6,3480.7,3480.7,692.9,844.4,1782.0,1027.1,993.6,994.5,32.0,7.0,-14.0,12636.0,-9890.0,2097.0,2561.0,465.0,-625.0,-410.0,2.0,24.0,-6.0,12457.0,-10541.0,-656.0,1309.0,305.0,-24.0,-141.0,1.0
2022-05-23 16:03:09.350473-07:00,1332.3,804.4,1354.9,1224.8,983.3,868.8,1825.5,1396.7,3455.2,3464.9,1220.4,894.9,1636.9,3469.8,1393.9,1200.0,3472.2,3474.6,1532.9,2094.7,2678.8,3481.9,1532.9,3477.1,3480.7,3480.7,687.2,851.1,1782.0,1027.1,997.9,979.9,15.0,-1.0,-3.0,12797.0,-9724.0,1832.0,2599.0,330.0,-674.0,-297.0,-10.0,-21.0,5.0,12537.0,-10446.0,-691.0,1286.0,200.0,-44.0,-95.0,1.0
2022-05-23 16:03:09.471483-07:00,1332.3,804.4,1349.4,1216.8,983.3,868.8,1823.6,1377.5,3455.2,3464.9,1212.4,888.2,1636.9,3469.8,1385.7,1199.1,3471.0,3483.2,1532.9,2094.7,2682.1,3491.7,1532.9,3477.1,3475.9,3475.9,687.2,851.1,1769.5,1028.0,997.9,979.9,49.0,-17.0,30.0,12906.0,-9607.0,1599.0,2652.0,243.0,-409.0,-148.0,3.0,-9.0,-12.0,12579.0,-10394.0,-722.0,1283.0,197.0,-60.0,-52.0,1.0
2022-05-23 16:03:09.501370-07:00,1323.2,804.4,1348.5,1216.8,983.3,872.1,1823.6,1377.5,3473.4,3461.3,1214.2,888.2,1638.8,3462.5,1385.7,1199.1,3471.0,3483.2,1556.2,2094.7,2682.1,3497.8,1534.8,3492.9,3475.9,3475.9,684.8,844.4,1769.5,1021.9,1002.2,994.5,10.0,-8.0,13.0,12967.0,-9525.0,1520.0,2696.0,162.0,-207.0,40.0,9.0,-14.0,25.0,12639.0,-10319.0,-737.0,1291.0,222.0,-34.0,-8.0,1.0
2022-05-23 16:03:09.502890-07:00,1323.2,804.4,1348.5,1215.1,983.3,867.1,1816.8,1386.6,3473.4,3461.3,1214.2,894.9,1638.8,3462.5,1391.2,1201.8,3480.7,3478.3,1547.8,2094.7,2686.4,3497.8,1534.8,3492.9,3483.2,3483.2,678.2,844.4,1791.6,1021.9,1002.2,994.5,36.0,35.0,15.0,13032.0,-9420.0,1478.0,2772.0,300.0,-227.0,94.0,17.0,-4.0,5.0,12716.0,-10223.0,-733.0,1299.0,307.0,-10.0,2.0,1.0
2022-05-23 16:03:09.590333-07:00,1313.3,795.2,1341.3,1215.1,979.0,867.1,1816.8,1386.6,3473.4,3463.7,1208.9,894.9,1637.9,3462.5,1391.2,1201.8,3480.7,3478.3,1547.8,2102.7,2686.4,3485.6,1529.2,3480.7,3483.2,3483.2,678.2,846.1,1791.6,1025.4,997.0,982.5,16.0,44.0,17.0,13102.0,-9317.0,1443.0,2810.0,197.0,-130.0,-24.0,2.0,9.0,18.0,12780.0,-10143.0,-733.0,1303.0,166.0,-12.0,-18.0,1.0
2022-05-23 16:03:09.620321-07:00,1313.3,795.2,1341.3,1215.1,979.0,867.1,1825.5,1377.5,3473.4,3463.7,1208.9,889.0,1637.9,3472.2,1389.4,1203.5,3473.4,3472.2,1551.5,2102.7,2675.5,3485.6,1529.2,3480.7,3473.4,3477.1,679.1,846.1,1780.1,1025.4,997.0,982.5,3.0,17.0,9.0,13127.0,-9282.0,1425.0,2816.0,34.0,-21.0,-8.0,-4.0,-10.0,22.0,12801.0,-10116.0,-734.0,1302.0,29.0,7.0,-5.0,1.0
2022-05-23 16:03:09.650717-07:00,1317.8,797.7,1343.1,1215.1,979.0,867.1,1825.5,1377.5,3473.4,3458.9,1205.3,889.0,1637.9,3472.2,1389.4,1203.5,3473.4,3472.2,1551.5,2099.7,2675.5,3488.0,1535.7,3488.0,3473.4,3477.1,679.1,847.8,1780.1,1014.2,999.6,983.3,29.0,25.0,1.0,13137.0,-9274.0,1411.0,2805.0,12.0,-6.0,-53.0,11.0,3.0,15.0,12801.0,-10117.0,-728.0,1296.0,-14.0,29.0,-6.0,1.0
2022-05-23 16:03:09.710194-07:00,1317.8,797.7,1343.1,1208.9,975.6,865.4,1848.9,1383.9,3473.4,3458.9,1205.3,889.0,1636.0,3468.6,1391.2,1202.7,3466.1,3467.4,1546.9,2099.7,2683.2,3488.0,1535.7,3488.0,3475.9,3473.4,686.4,842.8,1786.8,1014.2,999.6,983.3,18.0,23.0,-22.0,13158.0,-9257.0,1383.0,2776.0,81.0,-50.0,-130.0,8.0,-3.0,7.0,12803.0,-10117.0,-723.0,1282.0,4.0,21.0,-25.0,1.0
2022-05-23 16:03:09.770298-07:00,1324.1,803.5,1346.7,1207.1,975.6,865.4,1848.9,1383.9,3463.7,3463.7,1208.9,889.0,1636.0,3468.6,1391.2,1202.7,3466.1,3467.4,1546.9,2099.7,2684.3,3492.9,1536.6,3489.2,3475.9,3473.4,686.4,842.8,1789.7,1017.6,991.9,980.7,6.0,14.0,-21.0,13199.0,-9218.0,1325.0,2738.0,110.0,-88.0,-138.0,-1.0,-1.0,5.0,12811.0,-10108.0,-726.0,1268.0,40.0,5.0,-38.0,1.0
2022-05-23 16:03:09.800621-07:00,1324.1,803.5,1346.7,1207.1,981.6,871.3,1809.0,1373.0,3463.7,3463.7,1208.9,889.0,1636.9,3464.9,1386.6,1203.5,3478.3,3468.6,1573.9,2098.7,2684.3,3492.9,1536.6,3489.2,3474.6,3469.8,684.8,840.3,1789.7,1017.6,991.9,980.7,18.0,-7.0,-9.0,13226.0,-9195.0,1253.0,2721.0,49.0,-133.0,-112.0,0.0,-7.0,-2.0,12815.0,-10104.0,-733.0,1260.0,11.0,2.0,-13.0,1.0
2022-05-23 16:03:09.860301-07:00,1316.0,795.2,1344.9,1198.2,981.6,871.3,1809.0,1373.0,3471.0,3464.9,1202.7,892.4,1636.9,3464.9,1386.6,1203.5,3478.3,3468.6,1573.9,2098.7,2670.0,3481.9,1534.8,3488.0,3474.6,3469.8,684.8,840.3,1789.7,1015.1,992.7,977.3,14.0,61.0,-24.0,13237.0,-9183.0,1197.0,2729.0,-53.0,-135.0,-51.0,9.0,5.0,9.0,12819.0,-10098.0,-734.0,1259.0,-13.0,4.0,-14.0,1.0
2022-05-23 16:03:09.920630-07:00,1316.0,795.2,1344.9,1198.2,976.5,867.9,1814.9,1391.2,3471.0,3464.9,1202.7,892.4,1634.1,3471.0,1382.1,1205.3,3480.7,3462.5,1546.9,2100.7,2670.0,3481.9,1534.8,3488.0,3477.1,3478.3,692.9,841.1,1789.7,1015.1,992.7,977.3,31.0,-25.0,21.0,13203.0,-9246.0,1077.0,2732.0,-224.0,-207.0,-154.0,0.0,10.0,7.0,12796.0,-10128.0,-744.0,1249.0,-135.0,3.0,-41.0,1.0
2022-05-23 16:03:09.950552-07:00,1313.3,799.4,1342.2,1199.1,976.5,867.9,1814.9,1391.2,3462.5,3463.7,1200.9,887.3,1634.1,3471.0,1382.1,1205.3,3480.7,3462.5,1546.9,2100.7,2678.8,3484.4,1529.2,3485.6,3477.1,3478.3,692.9,841.1,1780.1,1022.8,990.2,969.6,32.0,50.0,8.0,13223.0,-9218.0,1038.0,2747.0,201.0,-55.0,7.0,8.0,-10.0,23.0,12807.0,-10116.0,-744.0,1236.0,170.0,41.0,-14.0,1.0
2022-05-23 16:03:10.010172-07:00,1324.1,799.4,1342.2,1199.1,967.9,867.9,1819.7,1382.1,3475.9,3463.7,1200.9,887.3,1636.0,3468.6,1386.6,1202.7,3472.2,3479.5,1548.7,2096.7,2678.8,3484.4,1529.2,3499.0,3479.5,3480.7,684.0,836.9,1780.1,1022.8,990.2,961.1,24.0,23.0,-8.0,13236.0,-9204.0,1013.0,2740.0,-7.0,-65.0,-83.0,1.0,4.0,0.0,12813.0,-10110.0,-737.0,1228.0,-39.0,33.0,-8.0,1.0
2022-05-23 16:03:10.070554-07:00,1324.1,800.2,1349.4,1194.7,967.9,867.9,1819.7,1386.6,3475.9,3460.1,1205.3,889.0,1636.0,3468.6,1386.6,1202.7,3473.4,3479.5,1548.7,2096.7,2685.3,3490.5,1526.4,3499.0,3475.9,3480.7,684.0,836.9,1777.2,1024.5,989.3,961.1,11.0,12.0,-9.0,13242.0,-9201.0,978.0,2730.0,17.0,-59.0,-55.0,2.0,-7.0,0.0,12808.0,-10117.0,-732.0,1222.0,9.0,8.0,-14.0,1.0
2022-05-23 16:03:10.100430-07:00,1316.9,800.2,1349.4,1194.7,969.6,864.6,1796.5,1386.6,3472.2,3460.1,1205.3,889.0,1626.5,3462.5,1382.1,1202.7,3473.4,3478.3,1545.0,2084.6,2685.3,3490.5,1526.4,3490.5,3475.9,3467.4,687.2,836.9,1777.2,1024.5,989.3,973.9,9.0,15.0,-17.0,13261.0,-9179.0,945.0,2728.0,78.0,-85.0,-41.0,2.0,-10.0,6.0,12814.0,-10110.0,-733.0,1220.0,52.0,9.0,-10.0,1.0
2022-05-23 16:03:10.160365-07:00,1316.9,784.4,1333.2,1189.4,969.6,864.6,1796.5,1380.3,3472.2,3468.6,1202.7,883.9,1626.5,3462.5,1382.1,1192.0,3474.6,3478.3,1545.0,2084.6,2679.9,3492.9,1533.8,3490.5,3478.3,3467.4,687.2,836.9,1787.8,1040.9,990.2,973.9,17.0,10.0,1.0,13270.0,-9169.0,898.0,2736.0,-82.0,-79.0,-41.0,1.0,-6.0,0.0,12823.0,-10099.0,-731.0,1218.0,-57.0,-2.0,3.0,1.0
2022-05-23 16:03:10.221106-07:00,1316.9,784.4,1333.2,1189.4,980.7,874.7,1810.0,1380.3,3461.3,3468.6,1202.7,883.9,1630.3,3464.9,1382.1,1192.0,3474.6,3471.0,1537.6,2090.6,2679.9,3492.9,1533.8,3481.9,3478.3,3475.9,683.1,843.6,1787.8,1040.9,990.2,971.3,23.0,25.0,-2.0,13263.0,-9183.0,866.0,2729.0,-28.0,-30.0,-36.0,6.0,0.0,14.0,12813.0,-10112.0,-730.0,1214.0,-7.0,18.0,-1.0,1.0
2022-05-23 16:03:10.250416-07:00,1316.9,797.7,1328.7,1202.7,980.7,874.7,1795.5,1383.0,3461.3,3473.4,1207.1,878.0,1630.3,3464.9,1382.1,1202.7,3474.6,3472.2,1537.6,2090.6,2676.6,3495.3,1527.3,3481.9,3471.0,3472.2,683.1,843.6,1774.3,1026.3,990.2,971.3,14.0,20.0,-7.0,13250.0,-9205.0,825.0,2730.0,-93.0,-92.0,-19.0,12.0,7.0,12.0,12807.0,-10122.0,-722.0,1203.0,-44.0,66.0,-21.0,1.0
2022-05-23 16:03:10.310936-07:00,1326.8,797.7,1328.7,1202.7,969.6,864.6,1795.5,1383.0,3475.9,3473.4,1207.1,878.0,1634.1,3473.4,1382.1,1202.7,3474.6,3472.2,1529.2,2106.8,2676.6,3495.3,1530.1,3491.7,3471.0,3472.2,698.7,841.1,1774.3,1026.3,988.5,967.9,23.0,10.0,-3.0,13220.0,-9244.0,793.0,2753.0,-112.0,-54.0,12.0,5.0,-12.0,2.0,12795.0,-10141.0,-705.0,1181.0,-57.0,60.0,2.0,1.0
2022-05-23 16:03:10.370123-07:00,1326.8,797.7,1332.3,1194.7,969.6,864.6,1798.4,1378.5,3475.9,3473.4,1198.2,881.4,1634.1,3473.4,1393.9,1203.5,3468.6,3488.0,1529.2,2106.8,2668.9,3496.6,1530.1,3491.7,3474.6,3480.7,698.7,841.1,1777.2,1030.6,988.5,967.9,11.0,15.0,-24.0,13161.0,-9318.0,758.0,2796.0,-376.0,-128.0,109.0,0.0,0.0,6.0,12778.0,-10167.0,-687.0,1155.0,-169.0,59.0,-27.0,1.0
2022-05-23 16:03:10.400187-07:00,1318.7,777.8,1332.3,1194.7,976.5,899.1,1798.4,1378.5,3467.4,3478.3,1198.2,881.4,1633.1,3472.2,1393.9,1203.5,3468.6,3488.0,1541.3,2106.8,2668.9,3496.6,1529.2,3483.2,3474.6,3480.7,709.3,852.0,1777.2,1030.6,987.6,967.1,53.0,29.0,11.0,13020.0,-9485.0,755.0,2893.0,-614.0,72.0,319.0,4.0,28.0,-28.0,12720.0,-10242.0,-677.0,1131.0,-313.0,49.0,-35.0,1.0
2022-05-23 16:03:10.460216-07:00,1318.7,777.8,1340.4,1186.7,976.5,899.1,1839.1,1365.7,3467.4,3478.3,1199.1,883.1,1633.1,3472.2,1383.0,1193.8,3478.3,3478.3,1541.3,2106.8,2652.6,3501.4,1529.2,3483.2,3467.4,3475.9,709.3,852.0,1782.0,1023.7,987.6,967.1,36.0,52.0,26.0,12816.0,-9733.0,908.0,2936.0,-814.0,512.0,280.0,-4.0,9.0,-10.0,12616.0,-10370.0,-693.0,1118.0,-651.0,-35.0,-5.0,1.0
2022-05-23 16:03:10.490334-07:00,1327.8,804.4,1340.4,1186.7,968.8,939.0,1839.1,1365.7,3463.7,3472.2,1199.1,883.1,1630.3,3466.1,1383.0,1193.8,3478.3,3478.3,1548.7,2106.8,2652.6,3501.4,1536.6,3478.3,3467.4,3475.9,714.2,845.3,1782.0,1023.7,981.6,957.7,-36.0,-20.0,25.0,12499.0,-10133.0,1033.0,2909.0,-1064.0,371.0,132.0,9.0,-49.0,12.0,12380.0,-10650.0,-734.0,1107.0,-1008.0,-26.0,8.0,1.0
2022-05-23 16:03:10.551040-07:00,1327.8,804.4,1350.3,1158.6,968.8,970.5,1934.1,1395.7,3463.7,3472.2,1182.3,867.1,1630.3,3477.1,1335.0,1183.2,3480.7,3472.2,1544.1,2106.8,2675.5,3486.8,1536.6,3478.3,3484.4,3479.5,720.0,845.3,1787.8,1017.6,981.6,957.7,21.0,14.0,-48.0,12355.0,-10299.0,1146.0,2901.0,-193.0,229.0,241.0,7.0,-4.0,0.0,12213.0,-10840.0,-741.0,1099.0,-237.0,39.0,1.0,1.0
2022-05-23 16:03:10.610445-07:00,1329.6,819.4,1282.8,1158.6,967.1,970.5,1934.1,1395.7,3467.4,3463.7,1150.6,867.1,1629.4,3477.1,1335.0,1183.2,3480.7,3472.2,1544.1,2106.8,2675.5,3492.9,1553.4,3484.4,3484.4,3479.5,720.0,833.6,1787.8,1003.9,969.6,960.2,12.0,82.0,-57.0,12290.0,-10365.0,1214.0,2915.0,-318.0,84.0,62.0,-10.0,6.0,-32.0,12154.0,-10907.0,-746.0,1087.0,-347.0,-12.0,-31.0,1.0
2022-05-23 16:03:10.640370-07:00,1329.6,819.4,1282.8,1117.4,967.1,988.5,2014.4,1425.9,3467.4,3463.7,1150.6,858.7,1629.4,3474.6,1295.4,1158.6,3471.0,3473.4,1534.8,2106.8,2659.1,3492.9,1553.4,3484.4,3464.9,3472.2,724.1,833.6,1779.1,1003.9,969.6,960.2,38.0,-4.0,-21.0,12134.0,-10566.0,1185.0,2858.0,-584.0,222.0,-152.0,8.0,-24.0,14.0,11979.0,-11096.0,-799.0,1081.0,-677.0,-95.0,-58.0,1.0
2022-05-23 16:03:10.700896-07:00,1335.0,825.2,1221.3,1117.4,958.5,988.5,2014.4,1425.9,3469.8,3460.1,1133.1,858.7,1623.7,3474.6,1295.4,1158.6,3471.0,3473.4,1534.8,2098.7,2659.1,3490.5,1580.5,3481.9,3464.9,3472.2,724.1,819.4,1779.1,991.9,956.0,967.1,-2.0,-16.0,23.0,12030.0,-10699.0,1179.0,2803.0,-220.0,75.0,-63.0,8.0,-9.0,5.0,11849.0,-11233.0,-840.0,1075.0,-239.0,-23.0,-21.0,1.0
2022-05-23 16:03:10.790410-07:00,1335.0,825.2,1221.3,1055.6,958.5,1017.6,2087.6,1486.6,3469.8,3460.1,1133.1,847.0,1623.7,3468.6,1260.4,1142.7,3473.4,3463.7,1545.0,2098.7,2674.4,3490.5,1580.5,3481.9,3473.4,3460.1,717.5,819.4,1776.2,991.9,956.0,967.1,25.0,30.0,-28.0,12016.0,-10728.0,1185.0,2748.0,26.0,56.0,-76.0,7.0,-13.0,34.0,11836.0,-11245.0,-858.0,1074.0,16.0,-31.0,-36.0,1.0
2022-05-23 16:03:10.820291-07:00,1358.5,816.9,1161.2,1031.4,964.5,1017.6,2087.6,1486.6,3468.6,3478.3,1109.5,848.6,1626.5,3468.6,1260.4,1142.7,3473.4,3463.7,1545.0,2090.6,2666.8,3483.2,1600.2,3477.1,3473.4,3460.1,717.5,810.2,1779.1,986.7,944.9,967.1,2.0,58.0,14.0,12038.0,-10715.0,1124.0,2730.0,6.0,-127.0,-159.0,-6.0,49.0,10.0,11840.0,-11240.0,-877.0,1064.0,-27.0,-9.0,-36.0,1.0
2022-05-23 16:03:10.850478-07:00,1358.5,816.9,1161.2,1031.4,960.2,1061.7,2069.5,1477.3,3468.6,3478.3,1109.5,848.6,1624.7,3463.7,1239.1,1132.2,3480.7,3474.6,1536.6,2090.6,2666.8,3483.2,1600.2,3477.1,3473.4,3477.1,713.4,799.4,1779.1,986.7,944.9,967.1,44.0,93.0,12.0,11901.0,-10879.0,1041.0,2713.0,-922.0,82.0,-156.0,0.0,-8.0,-35.0,11709.0,-11376.0,-912.0,1044.0,-815.0,-63.0,-64.0,1.0
2022-05-23 16:03:10.910243-07:00,1365.7,822.7,1132.2,1005.6,960.2,1061.7,2069.5,1477.3,3467.4,3457.6,1100.8,840.3,1624.7,3463.7,1239.1,1132.2,3480.7,3474.6,1536.6,2090.6,2672.2,3479.5,1619.9,3490.5,3473.4,3477.1,713.4,799.4,1777.2,978.2,927.9,959.4,-30.0,-25.0,18.0,11602.0,-11240.0,951.0,2568.0,-983.0,195.0,-379.0,6.0,-16.0,24.0,11368.0,-11714.0,-985.0,1016.0,-1058.0,-32.0,-52.0,1.0
2022-05-23 16:03:10.940970-07:00,1365.7,822.7,1132.2,1005.6,964.5,1042.6,2078.5,1493.0,3467.4,3457.6,1100.8,840.3,1624.7,3469.8,1224.8,1134.9,3478.3,3471.0,1545.0,2094.7,2672.2,3479.5,1619.9,3490.5,3479.5,3480.7,725.8,784.4,1777.2,978.2,927.9,959.4,37.0,-24.0,18.0,11422.0,-11454.0,881.0,2450.0,-436.0,260.0,-188.0,19.0,-36.0,23.0,11146.0,-11926.0,-1007.0,973.0,-553.0,50.0,-54.0,1.0
2022-05-23 16:03:11.000921-07:00,1382.1,836.1,1134.9,1001.3,964.5,1042.6,2078.5,1493.0,3478.3,3468.6,1093.8,838.6,1624.7,3469.8,1224.8,1134.9,3478.3,3471.0,1545.0,2094.7,2665.7,3479.5,1633.1,3491.7,3479.5,3480.7,725.8,784.4,1782.9,971.3,934.7,958.5,20.0,-7.0,-22.0,11427.0,-11459.0,880.0,2401.0,227.0,-52.0,-15.0,3.0,7.0,-48.0,11111.0,-11963.0,-1000.0,934.0,-6.0,61.0,-27.0,1.0
2022-05-23 16:03:11.060179-07:00,1412.2,836.1,1134.9,1001.3,960.2,985.9,2077.5,1507.8,3478.3,3468.6,1093.8,838.6,1625.6,3471.0,1208.9,1127.0,3478.3,3474.6,1550.6,2088.6,2665.7,3479.5,1633.1,3483.2,3480.7,3478.3,698.7,781.1,1782.9,971.3,934.7,949.2,10.0,36.0,-28.0,11427.0,-11469.0,865.0,2360.0,-198.0,80.0,-146.0,2.0,-1.0,-29.0,11063.0,-12007.0,-1010.0,915.0,-241.0,-12.0,-28.0,1.0
2022-05-23 16:03:11.090636-07:00,1412.2,828.5,1115.6,991.0,960.2,985.9,2077.5,1498.6,3478.3,3472.2,1098.2,839.4,1625.6,3471.0,1208.9,1130.5,3469.8,3474.6,1550.6,2088.6,2670.0,3497.8,1680.5,3483.2,3477.1,3478.3,698.7,781.1,1774.3,971.3,926.2,949.2,8.0,-9.0,3.0,11306.0,-11602.0,811.0,2308.0,-460.0,64.0,-100.0,6.0,-24.0,0.0,10948.0,-12110.0,-1038.0,917.0,-336.0,-51.0,-8.0,1.0
2022-05-23 16:03:11.150643-07:00,1412.2,828.5,1115.6,991.0,951.7,951.7,2046.4,1498.6,3478.3,3472.2,1098.2,839.4,1619.0,3462.5,1203.5,1130.5,3469.8,3472.2,1544.1,2084.6,2670.0,3497.8,1680.5,3481.9,3477.1,3469.8,688.9,770.3,1774.3,971.3,926.2,954.3,8.0,6.0,24.0,11283.0,-11632.0,813.0,2272.0,157.0,48.0,-13.0,3.0,5.0,32.0,10932.0,-12124.0,-1039.0,923.0,84.0,7.0,15.0,1.0
2022-05-23 16:03:11.240190-07:00,1412.2,828.5,1110.4,991.9,951.7,951.7,2046.4,1487.5,3478.3,3463.7,1093.8,835.2,1619.0,3462.5,1203.5,1125.2,3467.4,3472.2,1544.1,2084.6,2666.8,3490.5,1672.9,3481.9,3488.0,3469.8,688.9,770.3,1771.4,964.5,916.9,954.3,17.0,82.0,-22.0,11235.0,-11679.0,800.0,2270.0,-513.0,2.0,-61.0,-11.0,29.0,-10.0,10845.0,-12201.0,-1056.0,927.0,-580.0,-69.0,-6.0,1.0
2022-05-23 16:03:11.241817-07:00,1404.0,828.5,1110.4,991.9,942.4,939.0,2032.4,1487.5,3469.8,3463.7,1093.8,835.2,1629.4,3468.6,1210.6,1125.2,3467.4,3467.4,1553.4,2060.5,2666.8,3490.5,1672.9,3486.8,3488.0,3478.3,684.8,758.7,1771.4,964.5,916.9,943.2,16.0,-3.0,26.0,10980.0,-11931.0,741.0,2228.0,-837.0,132.0,-101.0,15.0,-26.0,14.0,10613.0,-12399.0,-1092.0,934.0,-644.0,-56.0,23.0,1.0
2022-05-23 16:03:11.300783-07:00,1404.0,823.5,1115.6,981.6,942.4,939.0,2032.4,1511.5,3469.8,3467.4,1086.0,834.4,1629.4,3468.6,1210.6,1122.6,3478.3,3467.4,1553.4,2060.5,2667.8,3488.0,1669.1,3486.8,3467.4,3478.3,684.8,758.7,1769.5,977.3,915.2,943.2,31.0,13.0,20.0,10840.0,-12068.0,745.0,2174.0,-149.0,180.0,-11.0,14.0,1.0,8.0,10508.0,-12488.0,-1096.0,934.0,-131.0,7.0,21.0,1.0
2022-05-23 16:03:11.360188-07:00,1394.8,811.9,1115.6,981.6,953.4,928.8,2010.4,1511.5,3468.6,3468.6,1086.0,834.4,1626.5,3458.9,1203.5,1122.6,3478.3,3472.2,1545.0,2080.6,2667.8,3488.0,1656.8,3488.0,3467.4,3478.3,692.9,765.3,1769.5,977.3,915.2,948.3,13.0,27.0,-14.0,10819.0,-12091.0,813.0,2130.0,-59.0,164.0,76.0,1.0,-6.0,2.0,10488.0,-12505.0,-1094.0,930.0,-79.0,11.0,6.0,1.0
2022-05-23 16:03:11.390835-07:00,1394.8,811.9,1104.3,986.7,953.4,928.8,1995.5,1501.4,3468.6,3468.6,1087.7,836.9,1626.5,3458.9,1196.5,1117.4,3471.0,3474.6,1545.0,2080.6,2678.8,3480.7,1656.8,3488.0,3463.7,3471.0,692.9,765.3,1778.1,975.6,915.2,948.3,29.0,9.0,-2.0,10793.0,-12116.0,855.0,2105.0,-16.0,102.0,21.0,9.0,-16.0,-7.0,10474.0,-12517.0,-1087.0,925.0,28.0,22.0,12.0,1.0
2022-05-23 16:03:11.450397-07:00,1393.0,818.5,1104.3,986.7,945.8,925.4,1995.5,1501.4,3463.7,3467.4,1087.7,836.9,1614.3,3466.1,1196.5,1117.4,3471.0,3474.6,1555.3,2071.5,2678.8,3480.7,1653.0,3488.0,3463.7,3471.0,684.0,758.7,1778.1,975.6,916.9,951.7,26.0,55.0,-20.0,10820.0,-12092.0,881.0,2090.0,22.0,10.0,41.0,-1.0,33.0,-17.0,10495.0,-12501.0,-1080.0,922.0,-32.0,-7.0,-6.0,1.0
2022-05-23 16:03:11.510246-07:00,1393.0,818.5,1112.1,986.7,945.8,925.4,1979.6,1481.0,3463.7,3467.4,1092.1,832.7,1614.3,3466.1,1195.6,1118.2,3469.8,3464.9,1555.3,2071.5,2666.8,3497.8,1653.0,3488.0,3475.9,3472.2,684.0,758.7,1771.4,972.2,916.9,951.7,22.0,20.0,-3.0,10767.0,-12140.0,880.0,2091.0,-208.0,18.0,-20.0,6.0,-5.0,-4.0,10443.0,-12543.0,-1094.0,930.0,-189.0,-47.0,3.0,1.0
2022-05-23 16:03:11.540316-07:00,1372.1,813.5,1112.1,986.7,952.6,922.0,1979.6,1481.0,3455.2,3458.9,1092.1,832.7,1623.7,3468.6,1195.6,1118.2,3469.8,3464.9,1549.7,2067.5,2666.8,3497.8,1655.8,3484.4,3475.9,3472.2,685.6,757.9,1771.4,972.2,911.8,941.5,15.0,18.0,6.0,10725.0,-12177.0,856.0,2093.0,-68.0,-64.0,14.0,1.0,9.0,18.0,10411.0,-12567.0,-1106.0,938.0,-9.0,-27.0,-7.0,1.0
2022-05-23 16:03:11.600795-07:00,1372.1,813.5,1107.8,997.9,952.6,922.8,1972.7,1478.3,3455.2,3458.9,1088.6,833.6,1623.7,3461.3,1196.5,1115.6,3472.2,3471.0,1548.7,2067.5,2658.0,3490.5,1655.8,3484.4,3477.1,3469.8,675.8,757.9,1766.6,974.8,911.8,941.5,29.0,1.0,12.0,10734.0,-12159.0,867.0,2146.0,140.0,-49.0,136.0,-1.0,-5.0,-13.0,10440.0,-12543.0,-1109.0,949.0,199.0,-20.0,8.0,1.0
2022-05-23 16:03:11.660089-07:00,1386.6,821.9,1100.8,997.9,950.0,922.8,1972.7,1478.3,3471.0,3471.0,1079.9,833.6,1616.2,3461.3,1196.5,1115.6,3472.2,3471.0,1548.7,2071.5,2658.0,3492.9,1645.4,3488.0,3477.1,3469.8,675.8,757.9,1766.6,968.8,913.5,939.0,21.0,58.0,0.0,10766.0,-12123.0,926.0,2170.0,38.0,39.0,93.0,9.0,11.0,0.0,10496.0,-12494.0,-1112.0,962.0,19.0,-23.0,0.0,1.0
2022-05-23 16:03:11.690630-07:00,1386.6,821.9,1100.8,989.3,950.0,926.2,1969.7,1473.6,3471.0,3471.0,1079.9,834.4,1616.2,3466.1,1181.5,1127.9,3474.6,3467.4,1545.0,2071.5,2665.7,3492.9,1645.4,3488.0,3467.4,3468.6,680.7,757.9,1773.3,968.8,913.5,939.0,24.0,12.0,13.0,10747.0,-12142.0,924.0,2157.0,-32.0,25.0,-48.0,6.0,-8.0,9.0,10480.0,-12507.0,-1122.0,964.0,-14.0,-9.0,-15.0,1.0
2022-05-23 16:03:11.750658-07:00,1388.5,821.9,1104.3,989.3,956.8,926.2,1969.7,1473.6,3462.5,3464.9,1081.6,834.4,1621.8,3466.1,1181.5,1127.9,3474.6,3467.4,1545.0,2069.5,2665.7,3486.8,1647.3,3486.8,3467.4,3468.6,680.7,759.6,1773.3,969.6,906.7,944.9,23.0,29.0,7.0,10771.0,-12123.0,920.0,2142.0,87.0,4.0,-23.0,5.0,14.0,2.0,10498.0,-12492.0,-1126.0,960.0,43.0,6.0,-16.0,1.0
2022-05-23 16:03:11.870226-07:00,1388.5,821.9,1104.3,994.5,956.8,917.7,1941.0,1480.1,3462.5,3464.9,1081.6,836.1,1621.8,3461.3,1188.5,1120.9,3464.9,3466.1,1548.7,2069.5,2668.9,3486.8,1647.3,3486.8,3477.1,3473.4,677.4,759.6,1774.3,969.6,906.7,944.9,12.0,6.0,16.0,10768.0,-12131.0,924.0,2117.0,-8.0,80.0,-41.0,0.0,-20.0,0.0,10492.0,-12496.0,-1128.0,958.0,-2.0,1.0,1.0,1.0
2022-05-23 16:03:11.871381-07:00,1374.8,818.5,1102.5,996.2,946.6,917.7,1941.0,1480.1,3467.4,3462.5,1085.1,831.9,1619.9,3461.3,1188.5,1120.9,3464.9,3466.1,1548.7,2074.5,2661.3,3490.5,1642.6,3484.4,3477.1,3473.4,677.4,758.7,1776.2,967.9,911.8,932.2,16.0,43.0,2.0,10842.0,-12075.0,932.0,2053.0,339.0,90.0,-121.0,1.0,14.0,16.0,10528.0,-12467.0,-1123.0,958.0,220.0,26.0,-17.0,1.0
2022-05-23 16:03:11.900238-07:00,1374.8,818.5,1102.5,996.2,941.5,915.2,1958.8,1457.1,3467.4,3462.5,1085.1,831.9,1623.7,3462.5,1190.3,1123.5,3469.8,3471.0,1545.9,2057.4,2661.3,3490.5,1642.6,3484.4,3473.4,3479.5,679.9,762.9,1776.2,967.9,911.8,932.2,28.0,47.0,-17.0,10936.0,-12001.0,930.0,1990.0,154.0,86.0,-83.0,-4.0,27.0,-24.0,10597.0,-12409.0,-1123.0,948.0,46.0,-8.0,-46.0,1.0
2022-05-23 16:03:11.960407-07:00,1373.0,818.5,1113.0,988.5,941.5,915.2,1958.8,1457.1,3478.3,3471.0,1078.2,833.6,1623.7,3462.5,1190.3,1123.5,3469.8,3471.0,1545.9,2057.4,2661.3,3486.8,1639.8,3486.8,3473.4,3479.5,679.9,762.9,1780.1,966.2,911.8,932.2,-6.0,-31.0,2.0,10922.0,-12021.0,947.0,1935.0,-29.0,91.0,-22.0,11.0,-30.0,15.0,10582.0,-12421.0,-1136.0,942.0,-18.0,6.0,5.0,1.0
2022-05-23 16:03:11.990414-07:00,1373.0,818.5,1113.0,988.5,943.2,932.2,1946.9,1457.1,3478.3,3471.0,1078.2,833.6,1615.2,3461.3,1192.0,1127.0,3478.3,3473.4,1552.5,2072.5,2661.3,3486.8,1639.8,3486.8,3478.3,3475.9,675.0,765.3,1780.1,966.2,911.8,932.2,25.0,11.0,1.0,10931.0,-12010.0,964.0,1941.0,99.0,-27.0,66.0,11.0,-2.0,-7.0,10595.0,-12411.0,-1123.0,941.0,127.0,42.0,28.0,1.0
2022-05-23 16:03:12.051066-07:00,1377.5,816.0,1120.0,986.7,943.2,932.2,1946.9,1457.1,3475.9,3469.8,1077.3,830.2,1615.2,3461.3,1192.0,1127.0,3478.3,3473.4,1552.5,2072.5,2665.7,3495.3,1634.1,3494.1,3478.3,3475.9,675.0,765.3,1780.1,972.2,906.7,936.4,23.0,52.0,-4.0,10972.0,-11969.0,1008.0,1944.0,88.0,88.0,62.0,0.0,13.0,-4.0,10639.0,-12375.0,-1106.0,941.0,40.0,18.0,12.0,1.0
2022-05-23 16:03:12.140554-07:00,1377.5,816.0,1120.0,986.7,948.3,927.1,1934.1,1447.0,3475.9,3469.8,1077.3,830.2,1616.2,3460.1,1196.5,1121.7,3475.9,3474.6,1535.7,2063.5,2665.7,3495.3,1634.1,3494.1,3480.7,3479.5,684.8,761.2,1780.1,972.2,906.7,936.4,-3.0,21.0,1.0,10963.0,-11979.0,1020.0,1927.0,-27.0,15.0,-30.0,-4.0,-8.0,11.0,10631.0,-12383.0,-1102.0,937.0,-35.0,26.0,6.0,1.0
2022-05-23 16:03:12.142487-07:00,1367.6,812.7,1106.0,1005.6,948.3,927.1,1934.1,1450.6,3473.4,3463.7,1080.8,831.9,1616.2,3460.1,1196.5,1121.7,3477.1,3474.6,1535.7,2063.5,2660.2,3500.2,1636.9,3486.8,3472.2,3479.5,684.8,761.2,1775.2,964.5,916.0,930.5,9.0,23.0,-8.0,10963.0,-11980.0,1013.0,1927.0,9.0,-26.0,-14.0,2.0,-3.0,0.0,10629.0,-12385.0,-1094.0,929.0,4.0,23.0,5.0,1.0
2022-05-23 16:03:12.200519-07:00,1371.2,812.7,1106.0,1005.6,941.5,914.4,1935.1,1450.6,3472.2,3463.7,1080.8,831.9,1611.5,3469.8,1193.8,1121.7,3477.1,3471.0,1548.7,2061.5,2660.2,3500.2,1636.9,3491.7,3472.2,3478.3,675.8,752.9,1775.2,964.5,916.0,931.3,25.0,33.0,-1.0,10957.0,-11988.0,988.0,1925.0,-64.0,-12.0,-46.0,2.0,7.0,-4.0,10622.0,-12392.0,-1091.0,923.0,-58.0,7.0,-8.0,1.0
2022-05-23 16:03:12.260233-07:00,1371.2,813.5,1113.9,991.9,941.5,914.4,1935.1,1449.7,3472.2,3474.6,1079.9,828.5,1611.5,3469.8,1193.8,1119.1,3473.4,3471.0,1548.7,2061.5,2646.0,3492.9,1634.1,3491.7,3475.9,3478.3,675.8,752.9,1768.5,968.8,916.0,931.3,22.0,0.0,7.0,10938.0,-12007.0,972.0,1915.0,-1.0,0.0,-21.0,13.0,-15.0,6.0,10598.0,-12412.0,-1094.0,919.0,-25.0,4.0,-3.0,1.0
2022-05-23 16:03:12.290326-07:00,1373.0,813.5,1113.9,991.9,934.7,915.2,1942.0,1449.7,3471.0,3474.6,1079.9,828.5,1610.5,3462.5,1192.0,1119.1,3473.4,3480.7,1537.6,2055.4,2646.0,3492.9,1634.1,3491.7,3475.9,3468.6,675.0,752.9,1768.5,968.8,916.0,932.2,23.0,37.0,-7.0,10954.0,-11994.0,959.0,1919.0,2.0,-43.0,-13.0,6.0,13.0,-7.0,10611.0,-12402.0,-1091.0,915.0,26.0,13.0,2.0,1.0
2022-05-23 16:03:12.350311-07:00,1373.0,808.5,1097.3,989.3,934.7,915.2,1942.0,1434.1,3471.0,3473.4,1079.9,830.2,1610.5,3462.5,1192.0,1114.7,3469.8,3480.7,1537.6,2055.4,2642.8,3492.9,1629.4,3491.7,3460.1,3468.6,675.0,752.9,1780.1,967.1,916.9,932.2,12.0,3.0,4.0,10935.0,-12010.0,950.0,1926.0,-34.0,-16.0,16.0,3.0,-12.0,2.0,10597.0,-12414.0,-1092.0,913.0,-23.0,-3.0,5.0,1.0
2022-05-23 16:03:12.410248-07:00,1365.7,811.0,1097.3,989.3,953.4,911.8,1928.2,1434.1,3469.8,3462.5,1079.9,830.2,1614.3,3473.4,1188.5,1114.7,3469.8,3471.0,1545.9,2058.4,2642.8,3492.9,1636.0,3480.7,3460.1,3464.9,666.0,756.3,1780.1,967.1,912.7,925.4,12.0,17.0,-2.0,10944.0,-12000.0,952.0,1938.0,54.0,-32.0,18.0,0.0,0.0,3.0,10606.0,-12406.0,-1087.0,918.0,50.0,-1.0,17.0,1.0
2022-05-23 16:03:12.440412-07:00,1365.7,811.0,1109.5,991.0,953.4,911.8,1927.2,1436.9,3469.8,3462.5,1071.2,826.9,1614.3,3473.4,1189.4,1117.4,3483.2,3469.8,1545.9,2058.4,2661.3,3492.9,1636.0,3480.7,3479.5,3469.8,666.0,756.3,1771.4,977.3,912.7,925.4,19.0,23.0,-5.0,10959.0,-11985.0,950.0,1952.0,64.0,-44.0,10.0,6.0,-1.0,2.0,10625.0,-12390.0,-1083.0,921.0,65.0,-6.0,4.0,1.0
2022-05-23 16:03:12.500404-07:00,1369.4,802.7,1109.5,991.0,939.0,918.6,1927.2,1436.9,3473.4,3473.4,1071.2,826.9,1607.7,3460.1,1189.4,1117.4,3483.2,3469.8,1550.6,2062.5,2661.3,3492.9,1635.0,3481.9,3479.5,3469.8,673.3,762.9,1771.4,977.3,912.7,933.0,18.0,27.0,-5.0,10982.0,-11962.0,926.0,1972.0,51.0,-94.0,-6.0,-2.0,-3.0,-11.0,10646.0,-12372.0,-1085.0,926.0,45.0,-16.0,-6.0,1.0
2022-05-23 16:03:12.560269-07:00,1369.4,802.7,1111.2,999.6,939.0,918.6,1934.1,1445.1,3473.4,3473.4,1073.8,826.9,1607.7,3460.1,1200.9,1119.1,3472.2,3477.1,1550.6,2062.5,2652.6,3499.0,1635.0,3481.9,3467.4,3472.2,673.3,762.9,1772.3,969.6,912.7,933.0,7.0,6.0,3.0,11003.0,-11941.0,898.0,1992.0,105.0,-98.0,-29.0,4.0,-17.0,8.0,10663.0,-12357.0,-1089.0,935.0,84.0,-16.0,3.0,1.0
2022-05-23 16:03:12.590327-07:00,1363.0,812.7,1111.2,999.6,944.9,915.2,1934.1,1445.1,3466.1,3473.4,1073.8,826.9,1615.2,3480.7,1200.9,1119.1,3472.2,3477.1,1543.1,2053.4,2652.6,3499.0,1631.3,3485.6,3467.4,3472.2,672.5,769.5,1772.3,969.6,919.4,918.6,23.0,-59.0,66.0,11100.0,-11850.0,838.0,2024.0,470.0,-226.0,-114.0,42.0,-87.0,14.0,10747.0,-12284.0,-1076.0,945.0,445.0,25.0,50.0,1.0
2022-05-23 16:03:12.650475-07:00,1363.0,812.7,1141.9,1054.8,944.9,915.2,1974.6,1415.8,3466.1,3473.4,1079.9,825.2,1615.2,3480.7,1227.5,1120.0,3471.0,3462.5,1543.1,2053.4,2648.2,3486.8,1631.3,3485.6,3478.3,3469.8,672.5,769.5,1776.2,965.4,919.4,918.6,10.0,-94.0,-10.0,11597.0,-11372.0,811.0,1994.0,2471.0,-229.0,-121.0,6.0,39.0,67.0,11218.0,-11861.0,-985.0,972.0,2292.0,178.0,45.0,1.0
2022-05-23 16:03:12.680354-07:00,1365.7,802.7,1313.3,1054.8,942.4,950.0,1974.6,1415.8,3475.9,3471.0,1077.3,825.2,1609.6,3464.9,1227.5,1120.0,3471.0,3462.5,1541.3,2064.5,2648.2,3484.4,1622.8,3497.8,3478.3,3469.8,689.7,914.4,1776.2,973.9,938.1,934.7,-33.0,-56.0,-30.0,12334.0,-10518.0,931.0,2196.0,2234.0,-408.0,715.0,-20.0,-21.0,-56.0,11984.0,-11098.0,-846.0,977.0,2337.0,209.0,86.0,1.0
2022-05-23 16:03:12.740430-07:00,1365.7,802.7,1313.3,1191.2,942.4,928.8,1979.6,1445.1,3475.9,3471.0,1077.3,824.4,1609.6,3466.1,1281.9,1142.7,3468.6,3471.0,1544.1,2064.5,2646.0,3484.4,1622.8,3497.8,3472.2,3474.6,711.0,914.4,1776.2,973.9,938.1,934.7,29.0,71.0,-66.0,12783.0,-9867.0,1181.0,2504.0,1529.0,-220.0,803.0,-6.0,-3.0,-53.0,12526.0,-10486.0,-707.0,1039.0,1496.0,57.0,203.0,1.0
2022-05-23 16:03:12.800508-07:00,1361.2,801.9,1520.8,1191.2,944.9,928.8,1979.6,1445.1,3456.4,3466.1,1076.4,824.4,1611.5,3466.1,1281.9,1142.7,3468.6,3471.0,1544.1,2060.5,2646.0,3492.9,1620.9,3489.2,3472.2,3474.6,711.0,923.7,1776.2,973.1,942.4,933.9,45.0,131.0,-41.0,12988.0,-9526.0,1310.0,2700.0,631.0,-233.0,333.0,10.0,49.0,0.0,12784.0,-10166.0,-643.0,1108.0,725.0,-45.0,85.0,1.0
2022-05-23 16:03:12.860201-07:00,1361.2,801.9,1520.8,1330.5,944.9,922.8,1987.5,1426.8,3456.4,3466.1,1076.4,832.7,1611.5,3473.4,1310.6,1141.9,3473.4,3466.1,1539.4,2060.5,2648.2,3492.9,1620.9,3489.2,3471.0,3462.5,715.1,923.7,1779.1,973.1,942.4,933.9,-7.0,45.0,5.0,13172.0,-9229.0,1297.0,2841.0,884.0,-437.0,194.0,-9.0,2.0,27.0,12997.0,-9891.0,-626.0,1140.0,865.0,-22.0,9.0,1.0
2022-05-23 16:03:12.920237-07:00,1363.0,800.2,1539.4,1330.5,948.3,922.8,1987.5,1426.8,3468.6,3468.6,1077.3,832.7,1611.5,3473.4,1310.6,1141.9,3473.4,3466.1,1539.4,2067.5,2648.2,3497.8,1618.1,3488.0,3471.0,3462.5,715.1,919.4,1779.1,979.0,955.1,930.5,32.0,30.0,29.0,13384.0,-8882.0,1267.0,2967.0,834.0,-294.0,167.0,1.0,-10.0,-2.0,13206.0,-9607.0,-609.0,1162.0,746.0,-24.0,17.0,1.0
2022-05-23 16:03:13.010272-07:00,1363.0,800.2,1539.4,1339.5,949.2,909.3,1991.5,1411.3,3468.6,3468.6,1077.3,823.5,1612.4,3468.6,1311.5,1148.9,3471.0,3471.0,1536.6,2060.5,2653.7,3497.8,1618.1,3488.0,3462.5,3468.6,716.7,908.4,1768.5,979.0,955.1,930.5,23.0,59.0,38.0,13516.0,-8659.0,1283.0,3020.0,376.0,-81.0,48.0,5.0,12.0,8.0,13330.0,-9433.0,-593.0,1184.0,292.0,-14.0,28.0,1.0
2022-05-23 16:03:13.011456-07:00,1355.8,806.0,1539.4,1352.1,949.2,909.3,1991.5,1411.3,3466.1,3467.4,1079.9,829.4,1612.4,3468.6,1311.5,1148.9,3471.0,3471.0,1536.6,2060.5,2663.5,3488.0,1619.9,3486.8,3462.5,3468.6,716.7,908.4,1765.6,968.8,953.4,927.9,16.0,33.0,18.0,13554.0,-8601.0,1302.0,3010.0,70.0,48.0,-12.0,16.0,0.0,30.0,13355.0,-9397.0,-587.0,1195.0,58.0,-3.0,16.0,1.0
2022-05-23 16:03:13.040350-07:00,1355.8,806.0,1539.4,1352.1,953.4,916.9,1987.5,1415.8,3466.1,3467.4,1079.9,829.4,1621.8,3458.9,1325.9,1149.8,3474.6,3477.1,1523.6,2050.4,2663.5,3488.0,1619.9,3486.8,3473.4,3475.9,726.6,908.4,1765.6,968.8,953.4,927.9,26.0,39.0,0.0,13586.0,-8554.0,1310.0,2997.0,152.0,-9.0,-20.0,3.0,9.0,10.0,13381.0,-9361.0,-578.0,1193.0,86.0,22.0,-2.0,1.0
2022-05-23 16:03:13.100963-07:00,1354.0,796.0,1534.8,1350.3,953.4,916.9,1987.5,1415.8,3462.5,3466.1,1075.6,827.7,1621.8,3458.9,1325.9,1149.8,3474.6,3477.1,1523.6,2050.4,2658.0,3497.8,1603.0,3497.8,3473.4,3475.9,726.6,908.4,1763.7,979.0,963.7,928.8,2.0,0.0,-3.0,13601.0,-8541.0,1306.0,2965.0,-19.0,30.0,-99.0,-1.0,-27.0,5.0,13378.0,-9366.0,-578.0,1188.0,-58.0,0.0,-5.0,1.0
2022-05-23 16:03:13.130106-07:00,1354.0,796.0,1534.8,1350.3,960.2,902.5,1993.5,1404.0,3462.5,3466.1,1075.6,827.7,1610.5,3467.4,1346.7,1154.2,3464.9,3471.0,1531.0,2071.5,2658.0,3497.8,1603.0,3497.8,3480.7,3463.7,723.3,905.9,1763.7,979.0,963.7,928.8,26.0,22.0,-18.0,13606.0,-8543.0,1310.0,2938.0,1.0,76.0,13.0,0.0,5.0,-8.0,13374.0,-9372.0,-574.0,1188.0,11.0,25.0,9.0,1.0
2022-05-23 16:03:13.197201-07:00,1341.3,800.2,1536.6,1336.8,960.2,902.5,1993.5,1414.0,3463.7,3463.7,1075.6,829.4,1610.5,3467.4,1346.7,1163.8,3471.0,3471.0,1531.0,2071.5,2662.4,3490.5,1603.0,3489.2,3477.1,3463.7,723.3,905.9,1764.6,984.2,960.2,930.5,8.0,10.0,-18.0,13569.0,-8599.0,1319.0,2940.0,-213.0,-8.0,-3.0,4.0,-15.0,1.0,13346.0,-9411.0,-575.0,1188.0,-160.0,-1.0,11.0,1.0
2022-05-23 16:03:13.280220-07:00,1341.3,800.2,1536.6,1336.8,944.1,892.4,1976.6,1414.0,3469.8,3463.7,1075.6,829.4,1604.0,3468.6,1354.0,1163.8,3471.0,3463.7,1529.2,2064.5,2662.4,3490.5,1603.0,3488.0,3477.1,3468.6,714.2,901.7,1764.6,984.2,960.2,925.4,18.0,7.0,-12.0,13546.0,-8634.0,1306.0,2948.0,-11.0,-22.0,12.0,8.0,-16.0,7.0,13332.0,-9431.0,-578.0,1193.0,24.0,-11.0,9.0,1.0
2022-05-23 16:03:13.282042-07:00,1341.3,790.2,1523.6,1336.8,944.1,892.4,1976.6,1404.9,3469.8,3467.4,1074.7,817.7,1604.0,3468.6,1354.0,1168.2,3480.7,3463.7,1529.2,2064.5,2647.1,3492.9,1597.4,3488.0,3474.6,3468.6,714.2,901.7,1755.0,993.6,969.6,925.4,24.0,11.0,0.0,13554.0,-8622.0,1296.0,2950.0,2.0,12.0,-1.0,-2.0,-2.0,-8.0,13342.0,-9415.0,-583.0,1197.0,12.0,-28.0,3.0,1.0
2022-05-23 16:03:13.340739-07:00,1337.7,790.2,1523.6,1336.8,956.0,892.4,1955.8,1404.9,3464.9,3467.4,1074.7,817.7,1613.4,3468.6,1363.0,1168.2,3480.7,3474.6,1514.3,2054.4,2647.1,3492.9,1597.4,3495.3,3474.6,3472.2,705.2,898.3,1755.0,993.6,969.6,934.7,10.0,10.0,-7.0,13554.0,-8619.0,1325.0,2945.0,58.0,48.0,46.0,4.0,-13.0,8.0,13348.0,-9405.0,-585.0,1207.0,84.0,2.0,21.0,1.0
2022-05-23 16:03:13.400840-07:00,1337.7,794.4,1529.2,1323.2,956.0,892.4,1955.8,1404.0,3464.9,3475.9,1082.5,824.4,1613.4,3468.6,1363.0,1170.9,3474.6,3474.6,1514.3,2054.4,2678.8,3486.8,1601.1,3495.3,3471.0,3472.2,705.2,898.3,1763.7,993.6,973.1,934.7,21.0,31.0,-16.0,13562.0,-8608.0,1328.0,2939.0,-13.0,1.0,-36.0,0.0,4.0,-3.0,13364.0,-9382.0,-580.0,1213.0,18.0,-12.0,6.0,1.0
2022-05-23 16:03:13.430207-07:00,1338.6,794.4,1529.2,1323.2,960.2,886.5,1921.3,1404.0,3457.6,3475.9,1082.5,824.4,1609.6,3466.1,1369.4,1170.9,3474.6,3466.1,1532.0,2068.5,2678.8,3486.8,1601.1,3499.0,3471.0,3479.5,724.1,895.7,1763.7,993.6,973.1,934.7,4.0,11.0,-11.0,13561.0,-8619.0,1308.0,2921.0,-26.0,-28.0,-81.0,-1.0,-17.0,0.0,13367.0,-9377.0,-588.0,1219.0,9.0,-30.0,-5.0,1.0
2022-05-23 16:03:13.490673-07:00,1338.6,797.7,1537.6,1326.8,960.2,886.5,1927.2,1396.7,3457.6,3468.6,1069.5,830.2,1609.6,3466.1,1393.9,1174.4,3479.5,3480.7,1532.0,2068.5,2651.5,3489.2,1593.6,3499.0,3478.3,3475.9,724.1,895.7,1766.6,1013.3,983.3,934.7,30.0,23.0,-3.0,13560.0,-8628.0,1262.0,2917.0,-74.0,-67.0,2.0,0.0,12.0,-5.0,13366.0,-9377.0,-594.0,1222.0,-14.0,-11.0,-9.0,1.0
2022-05-23 16:03:13.550714-07:00,1333.2,793.5,1537.6,1326.8,957.7,888.2,1927.2,1396.7,3456.4,3466.1,1069.5,830.2,1596.4,3471.0,1393.9,1174.4,3479.5,3480.7,1533.8,2070.5,2651.5,3489.2,1599.3,3485.6,3478.3,3475.9,716.7,902.5,1766.6,1013.3,1034.9,951.7,17.0,-2.0,3.0,13551.0,-8635.0,1285.0,2931.0,82.0,54.0,78.0,10.0,-24.0,10.0,13369.0,-9374.0,-594.0,1224.0,127.0,6.0,15.0,1.0
2022-05-23 16:03:13.580183-07:00,1333.2,793.5,1527.3,1312.4,957.7,888.2,1925.2,1381.2,3456.4,3466.1,1084.2,834.4,1596.4,3471.0,1395.7,1181.5,3468.6,3471.0,1533.8,2070.5,2649.3,3486.8,1599.3,3485.6,3472.2,3471.0,716.7,902.5,1771.4,1053.9,1034.9,951.7,17.0,41.0,-10.0,13551.0,-8628.0,1302.0,2945.0,-42.0,-40.0,15.0,5.0,5.0,7.0,13386.0,-9349.0,-587.0,1230.0,-17.0,8.0,11.0,1.0
2022-05-23 16:03:13.640697-07:00,1354.0,791.9,1527.3,1312.4,998.7,889.8,1925.2,1381.2,3457.6,3463.7,1084.2,834.4,1606.8,3469.8,1395.7,1181.5,3468.6,3471.0,1527.3,2066.5,2649.3,3486.8,1588.9,3479.5,3472.2,3471.0,704.4,891.5,1771.4,1053.9,1031.4,952.6,23.0,23.0,0.0,13530.0,-8667.0,1287.0,2935.0,-157.0,78.0,-52.0,-6.0,0.0,-6.0,13365.0,-9377.0,-594.0,1233.0,-174.0,-40.0,3.0,1.0
2022-05-23 16:03:13.700145-07:00,1354.0,791.9,1524.5,1321.4,998.7,889.8,1898.7,1367.6,3457.6,3463.7,1081.6,828.5,1606.8,3469.8,1393.0,1177.0,3474.6,3464.9,1527.3,2066.5,2663.5,3481.9,1588.9,3479.5,3475.9,3479.5,704.4,891.5,1776.2,1049.6,1031.4,952.6,-2.0,25.0,-1.0,13491.0,-8731.0,1300.0,2917.0,-145.0,40.0,-17.0,0.0,-25.0,9.0,13324.0,-9433.0,-612.0,1242.0,-137.0,-35.0,6.0,1.0
2022-05-23 16:03:13.730259-07:00,1344.9,796.0,1511.5,1321.4,1053.9,880.6,1898.7,1367.6,3452.8,3467.4,1082.5,828.5,1604.0,3467.4,1393.0,1177.0,3474.6,3464.9,1536.6,2080.6,2663.5,3502.7,1583.3,3484.4,3475.9,3479.5,713.4,887.3,1776.2,1127.9,1073.8,958.5,10.0,61.0,-28.0,13469.0,-8789.0,1234.0,2873.0,-210.0,-108.0,-273.0,2.0,31.0,-7.0,13271.0,-9507.0,-630.0,1245.0,-350.0,-55.0,-17.0,1.0
2022-05-23 16:03:13.790306-07:00,1344.9,796.0,1511.5,1396.7,1053.9,882.3,1884.0,1368.5,3452.8,3467.4,1082.5,831.1,1604.0,3467.4,1383.9,1187.6,3474.6,3467.4,1522.7,2080.6,2666.8,3502.7,1583.3,3484.4,3461.3,3463.7,709.3,887.3,1777.2,1127.9,1073.8,958.5,54.0,-15.0,7.0,13381.0,-8952.0,1140.0,2817.0,-530.0,52.0,-138.0,16.0,-13.0,-1.0,13162.0,-9655.0,-670.0,1239.0,-477.0,-49.0,-44.0,1.0
2022-05-23 16:03:13.881166-07:00,1337.7,806.0,1491.2,1396.7,1155.9,882.3,1884.0,1368.5,3478.3,3466.1,1088.6,831.1,1605.8,3467.4,1383.9,1187.6,3474.6,3467.4,1522.7,2087.6,2666.8,3491.7,1579.6,3490.5,3461.3,3463.7,709.3,885.6,1777.2,1176.2,1142.7,973.9,-13.0,10.0,24.0,13282.0,-9119.0,1141.0,2750.0,-415.0,163.0,-104.0,5.0,-11.0,32.0,13052.0,-9802.0,-701.0,1233.0,-433.0,-14.0,6.0,1.0
2022-05-23 16:03:13.883081-07:00,1337.7,806.0,1491.2,1361.2,1155.9,881.4,1873.2,1362.1,3478.3,3466.1,1088.6,831.9,1605.8,3472.2,1390.3,1192.9,3471.0,3469.8,1530.1,2087.6,2662.4,3491.7,1579.6,3490.5,3469.8,3464.9,697.9,885.6,1775.2,1176.2,1142.7,973.9,42.0,47.0,3.0,13158.0,-9317.0,1126.0,2689.0,-599.0,184.0,-144.0,7.0,12.0,-6.0,12909.0,-9989.0,-712.0,1231.0,-610.0,6.0,25.0,1.0
2022-05-23 16:03:13.940927-07:00,1325.0,791.0,1491.2,1361.2,1137.5,881.4,1873.2,1362.1,3468.6,3461.3,1092.1,831.9,1599.3,3472.2,1390.3,1192.9,3471.0,3469.8,1530.1,2070.5,2662.4,3486.8,1578.6,3490.5,3469.8,3464.9,697.9,877.2,1775.2,1168.2,1134.9,959.4,14.0,22.0,9.0,12996.0,-9570.0,1125.0,2587.0,-690.0,284.0,-165.0,-2.0,2.0,7.0,12732.0,-10213.0,-733.0,1221.0,-676.0,-6.0,-1.0,1.0
2022-05-23 16:03:14.030293-07:00,1325.0,791.0,1491.2,1358.5,1137.5,881.4,1869.3,1345.8,3468.6,3461.3,1092.1,835.2,1599.3,3468.6,1390.3,1181.5,3471.0,3467.4,1527.3,2070.5,2661.3,3486.8,1578.6,3490.5,3471.0,3461.3,689.7,877.2,1784.9,1168.2,1134.9,959.4,14.0,14.0,8.0,12813.0,-9838.0,1155.0,2479.0,-712.0,369.0,-120.0,-3.0,-10.0,-18.0,12538.0,-10449.0,-753.0,1209.0,-733.0,2.0,22.0,1.0
2022-05-23 16:03:14.090935-07:00,1343.1,789.4,1477.3,1352.1,1118.2,881.4,1869.3,1345.8,3458.9,3472.2,1098.2,831.1,1608.7,3468.6,1390.3,1181.5,3471.0,3467.4,1527.3,2076.5,2659.1,3481.9,1574.9,3489.2,3471.0,3461.3,689.7,877.2,1770.4,1156.8,1120.9,967.1,46.0,105.0,6.0,12578.0,-10174.0,1200.0,2297.0,-1093.0,587.0,-339.0,0.0,27.0,-16.0,12294.0,-10734.0,-787.0,1206.0,-1039.0,-58.0,4.0,1.0
2022-05-23 16:03:14.092089-07:00,1343.1,789.4,1477.3,1352.1,1151.5,867.1,1849.8,1354.0,3458.9,3472.2,1098.2,831.1,1606.8,3464.9,1413.1,1204.4,3471.0,3477.1,1510.6,2073.5,2659.1,3481.9,1574.9,3489.2,3474.6,3474.6,701.1,878.0,1770.4,1156.8,1120.9,967.1,10.0,15.0,14.0,12238.0,-10633.0,1231.0,2027.0,-1255.0,645.0,-406.0,2.0,-5.0,1.0,11928.0,-11136.0,-848.0,1198.0,-1318.0,-49.0,-5.0,1.0
2022-05-23 16:03:14.150387-07:00,1325.0,783.6,1494.0,1359.4,1151.5,867.1,1849.8,1354.0,3464.9,3467.4,1112.1,841.9,1606.8,3464.9,1413.1,1204.4,3471.0,3477.1,1510.6,2073.5,2648.2,3494.1,1566.5,3478.3,3474.6,3474.6,701.1,878.0,1782.0,1148.9,1110.4,958.5,13.0,40.0,-2.0,11803.0,-11159.0,1232.0,1754.0,-1683.0,622.0,-461.0,5.0,2.0,-6.0,11483.0,-11592.0,-903.0,1178.0,-1642.0,-22.0,21.0,1.0
2022-05-23 16:03:14.180510-07:00,1325.0,783.6,1494.0,1359.4,1148.9,871.3,1839.1,1323.2,3464.9,3467.4,1112.1,841.9,1602.1,3452.8,1409.4,1202.7,3467.4,3472.2,1520.8,2071.5,2648.2,3494.1,1566.5,3478.3,3464.9,3466.1,690.5,873.0,1782.0,1148.9,1110.4,958.5,25.0,28.0,4.0,11215.0,-11791.0,1201.0,1480.0,-2034.0,670.0,-471.0,11.0,-36.0,-14.0,10902.0,-12140.0,-952.0,1146.0,-1987.0,-1.0,44.0,1.0
2022-05-23 16:03:14.240262-07:00,1332.3,779.4,1470.9,1344.9,1148.9,871.3,1839.1,1323.2,3464.9,3464.9,1108.6,836.9,1602.1,3452.8,1409.4,1202.7,3467.4,3472.2,1520.8,2071.5,2644.9,3483.2,1567.4,3484.4,3464.9,3466.1,690.5,873.0,1773.3,1147.1,1113.0,957.7,5.0,0.0,-15.0,10664.0,-12321.0,1199.0,1214.0,-1543.0,569.0,-353.0,15.0,-10.0,8.0,10315.0,-12644.0,-975.0,1110.0,-1615.0,53.0,77.0,1.0
2022-05-23 16:03:14.301089-07:00,1332.3,779.4,1470.9,1344.9,1137.5,872.1,1835.2,1327.8,3463.7,3464.9,1108.6,836.9,1604.9,3473.4,1422.2,1228.4,3471.0,3471.0,1527.3,2071.5,2644.9,3483.2,1567.4,3492.9,3475.9,3462.5,696.2,873.8,1773.3,1147.1,1113.0,956.8,17.0,-3.0,-20.0,10151.0,-12768.0,1169.0,1011.0,-1525.0,435.0,-350.0,2.0,-16.0,-15.0,9805.0,-13046.0,-975.0,1063.0,-1462.0,82.0,56.0,1.0
2022-05-23 16:03:14.330374-07:00,1332.3,788.6,1469.0,1356.7,1137.5,872.1,1835.2,1332.3,3463.7,3472.2,1101.7,837.7,1604.9,3473.4,1422.2,1223.0,3467.4,3471.0,1527.3,2071.5,2644.9,3486.8,1568.3,3492.9,3474.6,3462.5,696.2,873.8,1780.1,1139.2,1110.4,956.8,-5.0,-43.0,-27.0,9764.0,-13081.0,1135.0,842.0,-760.0,296.0,-242.0,0.0,-32.0,-5.0,9422.0,-13330.0,-967.0,1022.0,-782.0,72.0,54.0,1.0
2022-05-23 16:03:14.390396-07:00,1324.1,788.6,1469.0,1356.7,1138.4,871.3,1821.6,1332.3,3457.6,3472.2,1101.7,837.7,1600.2,3463.7,1433.2,1223.0,3467.4,3469.8,1525.5,2067.5,2644.9,3486.8,1568.3,3481.9,3474.6,3463.7,687.2,871.3,1780.1,1139.2,1110.4,960.2,32.0,10.0,-31.0,9625.0,-13191.0,1099.0,761.0,-277.0,62.0,-136.0,-1.0,19.0,-32.0,9264.0,-13443.0,-952.0,996.0,-303.0,51.0,13.0,1.0
2022-05-23 16:03:14.450430-07:00,1324.1,782.7,1465.4,1335.9,1138.4,871.3,1821.6,1325.0,3457.6,3464.9,1100.8,840.3,1600.2,3463.7,1433.2,1225.7,3475.9,3469.8,1525.5,2067.5,2639.5,3497.8,1555.3,3481.9,3472.2,3463.7,687.2,871.3,1771.4,1146.3,1107.8,960.2,9.0,-31.0,-13.0,9584.0,-13222.0,1103.0,739.0,43.0,19.0,32.0,7.0,-25.0,-17.0,9225.0,-13470.0,-952.0,988.0,48.0,-8.0,8.0,1.0
2022-05-23 16:03:14.480345-07:00,1324.1,782.7,1465.4,1335.9,1121.7,863.7,1810.0,1325.0,3478.3,3464.9,1100.8,840.3,1600.2,3466.1,1434.1,1225.7,3475.9,3472.2,1530.1,2058.4,2639.5,3497.8,1555.3,3489.2,3472.2,3472.2,688.0,864.6,1771.4,1146.3,1107.8,958.5,19.0,42.0,8.0,9613.0,-13199.0,1100.0,769.0,44.0,-95.0,3.0,3.0,15.0,-12.0,9252.0,-13451.0,-957.0,1002.0,48.0,-52.0,-2.0,1.0
2022-05-23 16:03:14.540297-07:00,1324.1,783.6,1468.1,1325.9,1121.7,863.7,1811.0,1325.0,3478.3,3468.6,1105.1,837.7,1600.2,3466.1,1432.3,1216.8,3481.9,3457.6,1530.1,2058.4,2624.3,3489.2,1556.2,3489.2,3475.9,3468.6,688.0,864.6,1768.5,1142.7,1108.6,958.5,16.0,46.0,15.0,9623.0,-13195.0,1063.0,785.0,-4.0,-56.0,-63.0,1.0,19.0,-3.0,9249.0,-13449.0,-983.0,1019.0,-28.0,-77.0,-43.0,1.0
2022-05-23 16:03:14.600525-07:00,1325.0,785.2,1468.1,1325.9,1119.1,868.8,1811.0,1325.0,3466.1,3468.6,1105.1,837.7,1601.1,3469.8,1432.3,1216.8,3481.9,3457.6,1522.7,2059.4,2624.3,3489.2,1555.3,3494.1,3475.9,3468.6,689.7,862.9,1768.5,1142.7,1117.4,960.2,1.0,-14.0,26.0,9630.0,-13193.0,1011.0,794.0,69.0,-112.0,-77.0,2.0,-18.0,12.0,9247.0,-13447.0,-1023.0,1028.0,52.0,-59.0,-65.0,1.0
2022-05-23 16:03:14.630332-07:00,1325.0,785.2,1462.6,1341.3,1119.1,868.8,1800.3,1327.8,3466.1,3468.6,1099.0,837.7,1601.1,3469.8,1431.4,1218.6,3467.4,3467.4,1522.7,2059.4,2634.1,3492.9,1555.3,3494.1,3473.4,3474.6,689.7,862.9,1770.4,1147.1,1117.4,960.2,8.0,12.0,39.0,9677.0,-13158.0,989.0,822.0,80.0,-75.0,30.0,6.0,-12.0,7.0,9289.0,-13415.0,-1045.0,1039.0,84.0,-34.0,-19.0,1.0
2022-05-23 16:03:14.690280-07:00,1319.6,782.7,1462.6,1341.3,1109.5,861.2,1800.3,1327.8,3468.6,3467.4,1099.0,837.7,1603.0,3471.0,1431.4,1218.6,3467.4,3467.4,1520.8,2053.4,2634.1,3492.9,1557.1,3483.2,3473.4,3474.6,688.0,865.4,1770.4,1147.1,1111.2,966.2,13.0,-8.0,57.0,9669.0,-13164.0,984.0,831.0,-54.0,30.0,11.0,11.0,-14.0,18.0,9283.0,-13419.0,-1051.0,1040.0,-38.0,0.0,7.0,1.0
2022-05-23 16:03:14.750225-07:00,1319.6,782.7,1456.2,1339.5,1109.5,861.2,1774.3,1324.1,3468.6,3467.4,1096.4,838.6,1603.0,3471.0,1426.8,1209.7,3471.0,3474.6,1520.8,2053.4,2641.7,3492.9,1557.1,3483.2,3471.0,3469.8,688.0,865.4,1771.4,1141.9,1111.2,966.2,7.0,37.0,30.0,9702.0,-13139.0,999.0,823.0,86.0,23.0,13.0,6.0,13.0,7.0,9308.0,-13403.0,-1043.0,1031.0,67.0,42.0,6.0,1.0
2022-05-23 16:03:14.780277-07:00,1312.4,778.6,1456.2,1339.5,1121.7,862.1,1774.3,1324.1,3468.6,3466.1,1096.4,838.6,1603.0,3469.8,1426.8,1209.7,3471.0,3474.6,1514.3,2057.4,2641.7,3492.9,1551.5,3469.8,3471.0,3469.8,690.5,856.2,1771.4,1141.9,1106.0,953.4,10.0,17.0,10.0,9670.0,-13164.0,1001.0,799.0,-220.0,90.0,-47.0,-4.0,0.0,-14.0,9272.0,-13429.0,-1039.0,1019.0,-227.0,15.0,4.0,1.0
2022-05-23 16:03:14.840419-07:00,1312.4,778.6,1446.0,1343.1,1121.7,855.3,1796.5,1316.9,3468.6,3466.1,1099.0,837.7,1603.0,3478.3,1425.0,1212.4,3478.3,3471.0,1520.8,2057.4,2636.2,3494.1,1551.5,3469.8,3471.0,3479.5,683.1,856.2,1763.7,1141.9,1106.0,953.4,0.0,-27.0,11.0,9634.0,-13191.0,1005.0,773.0,78.0,19.0,19.0,3.0,-18.0,5.0,9230.0,-13459.0,-1037.0,1012.0,70.0,22.0,10.0,1.0
2022-05-23 16:03:14.900416-07:00,1315.1,781.9,1447.9,1343.1,1106.9,855.3,1796.5,1316.9,3467.4,3460.1,1098.2,837.7,1604.0,3478.3,1425.0,1212.4,3478.3,3471.0,1520.8,2047.4,2636.2,3496.6,1549.7,3488.0,3471.0,3479.5,683.1,864.6,1763.7,1139.2,1113.0,954.3,24.0,53.0,0.0,9686.0,-13151.0,1019.0,784.0,84.0,-13.0,16.0,0.0,21.0,-22.0,9281.0,-13425.0,-1028.0,1010.0,78.0,-4.0,-4.0,1.0
2022-05-23 16:03:14.930334-07:00,1315.1,781.9,1447.9,1335.0,1106.9,866.3,1770.4,1317.8,3467.4,3460.1,1098.2,838.6,1604.0,3478.3,1426.8,1205.3,3467.4,3474.6,1521.8,2047.4,2634.1,3496.6,1549.7,3488.0,3473.4,3479.5,682.3,864.6,1769.5,1139.2,1113.0,954.3,7.0,3.0,19.0,9681.0,-13156.0,1011.0,780.0,-14.0,-3.0,-29.0,4.0,-11.0,5.0,9280.0,-13425.0,-1037.0,1010.0,-24.0,-14.0,-22.0,1.0
2022-05-23 16:03:15.005734-07:00,1321.4,789.4,1440.5,1335.0,1104.3,866.3,1770.4,1317.8,3462.5,3457.6,1095.6,838.6,1604.0,3478.3,1426.8,1205.3,3467.4,3474.6,1521.8,2060.5,2634.1,3497.8,1552.5,3484.4,3473.4,3479.5,682.3,857.9,1769.5,1138.4,1099.0,952.6,10.0,21.0,14.0,9699.0,-13144.0,998.0,781.0,54.0,-33.0,-21.0,1.0,0.0,1.0,9288.0,-13419.0,-1047.0,1009.0,44.0,-10.0,-23.0,1.0
2022-05-23 16:03:15.050283-07:00,1321.4,789.4,1440.5,1323.2,1104.3,868.8,1772.3,1309.7,3462.5,3457.6,1095.6,851.1,1604.0,3466.1,1423.1,1208.9,3469.8,3467.4,1525.5,2060.5,2612.3,3497.8,1552.5,3484.4,3469.8,3468.6,684.8,857.9,1778.1,1138.4,1099.0,952.6,9.0,9.0,12.0,9717.0,-13131.0,982.0,789.0,39.0,-46.0,-17.0,2.0,-10.0,1.0,9302.0,-13408.0,-1057.0,1011.0,36.0,-17.0,-17.0,1.0
2022-05-23 16:03:15.080252-07:00,1320.5,779.4,1434.1,1328.7,1108.6,868.8,1772.3,1309.7,3471.0,3457.6,1097.3,838.6,1598.3,3466.1,1423.1,1208.9,3469.8,3467.4,1525.5,2055.4,2631.9,3486.8,1541.3,3483.2,3469.8,3468.6,684.8,854.5,1773.3,1144.5,1100.8,948.3,15.0,8.0,10.0,9754.0,-13104.0,965.0,807.0,144.0,-74.0,16.0,2.0,-9.0,1.0,9329.0,-13388.0,-1067.0,1015.0,141.0,-25.0,-22.0,1.0
2022-05-23 16:03:15.140275-07:00,1320.5,779.4,1434.1,1328.7,1104.3,855.3,1778.1,1302.5,3471.0,3457.6,1097.3,838.6,1609.6,3467.4,1415.8,1212.4,3472.2,3471.0,1539.4,2059.4,2631.9,3486.8,1541.3,3483.2,3478.3,3472.2,681.5,853.7,1773.3,1144.5,1100.8,948.3,4.0,-43.0,0.0,9866.0,-13018.0,955.0,853.0,505.0,-162.0,97.0,4.0,-35.0,15.0,9436.0,-13311.0,-1076.0,1025.0,695.0,-19.0,-33.0,1.0
2022-05-23 16:03:15.200515-07:00,1316.0,776.1,1445.1,1317.8,1104.3,855.3,1778.1,1302.5,3464.9,3461.3,1092.9,843.6,1609.6,3467.4,1415.8,1212.4,3472.2,3471.0,1539.4,2059.4,2629.7,3484.4,1545.9,3492.9,3478.3,3472.2,681.5,853.7,1774.3,1141.9,1098.2,944.1,5.0,-6.0,-27.0,10239.0,-12711.0,1005.0,1008.0,1448.0,-404.0,440.0,0.0,11.0,-17.0,9822.0,-13029.0,-1052.0,1052.0,1453.0,10.0,1.0,1.0
2022-05-23 16:03:15.230351-07:00,1316.0,776.1,1445.1,1317.8,1110.4,860.4,1778.1,1307.9,3464.9,3461.3,1092.9,843.6,1598.3,3457.6,1418.6,1209.7,3468.6,3472.2,1519.0,2042.4,2629.7,3484.4,1545.9,3492.9,3467.4,3471.0,679.1,855.3,1774.3,1141.9,1098.2,944.1,34.0,115.0,-19.0,10639.0,-12357.0,1034.0,1218.0,937.0,-423.0,202.0,-6.0,33.0,-36.0,10239.0,-12703.0,-1025.0,1089.0,846.0,-66.0,-46.0,1.0
2022-05-23 16:03:15.290247-07:00,1318.7,783.6,1445.1,1328.7,1110.4,860.4,1778.1,1307.9,3469.8,3475.9,1089.5,834.4,1598.3,3457.6,1418.6,1209.7,3468.6,3472.2,1519.0,2042.4,2640.6,3490.5,1545.9,3486.8,3467.4,3471.0,679.1,855.3,1770.4,1128.7,1099.0,951.7,9.0,74.0,8.0,10899.0,-12122.0,963.0,1341.0,682.0,-398.0,-18.0,-1.0,25.0,-7.0,10482.0,-12499.0,-1045.0,1115.0,509.0,-72.0,-79.0,1.0
2022-05-23 16:03:15.350655-07:00,1311.5,783.6,1445.1,1328.7,1113.9,855.3,1779.1,1315.1,3473.4,3475.9,1089.5,834.4,1608.7,3466.1,1411.3,1215.1,3469.8,3471.0,1513.4,2055.4,2640.6,3490.5,1545.9,3486.8,3469.8,3467.4,690.5,846.1,1770.4,1128.7,1099.0,951.7,10.0,2.0,35.0,10998.0,-12033.0,824.0,1416.0,41.0,-346.0,-175.0,3.0,-24.0,31.0,10570.0,-12420.0,-1087.0,1127.0,85.0,-86.0,-68.0,1.0
2022-05-23 16:03:15.440258-07:00,1311.5,785.2,1446.0,1310.6,1113.9,855.3,1779.1,1319.6,3473.4,3463.7,1096.4,844.4,1608.7,3466.1,1411.3,1208.0,3479.5,3471.0,1513.4,2055.4,2640.6,3496.6,1549.7,3496.6,3474.6,3467.4,690.5,846.1,1774.3,1141.9,1096.4,946.6,-27.0,-97.0,56.0,11066.0,-11968.0,712.0,1503.0,626.0,-580.0,117.0,20.0,-57.0,79.0,10673.0,-12329.0,-1100.0,1139.0,839.0,49.0,8.0,1.0
2022-05-23 16:03:15.441587-07:00,1321.4,785.2,1446.0,1310.6,1087.7,862.9,1774.3,1319.6,3467.4,3463.7,1096.4,844.4,1598.3,3464.9,1404.9,1208.0,3479.5,3467.4,1520.8,2046.4,2640.6,3496.6,1549.7,3486.8,3474.6,3478.3,688.9,853.7,1774.3,1141.9,1096.4,944.9,12.0,-71.0,9.0,11398.0,-11614.0,668.0,1784.0,1775.0,-744.0,571.0,4.0,23.0,-10.0,11104.0,-11949.0,-1024.0,1149.0,1751.0,160.0,44.0,1.0
2022-05-23 16:03:15.500583-07:00,1321.4,786.9,1442.4,1310.6,1087.7,862.9,1774.3,1311.5,3467.4,3471.0,1097.3,842.8,1598.3,3464.9,1404.9,1201.8,3471.0,3467.4,1520.8,2046.4,2641.7,3484.4,1546.9,3486.8,3477.1,3478.3,688.9,853.7,1772.3,1137.5,1092.1,944.9,34.0,101.0,-25.0,11854.0,-11090.0,671.0,2114.0,1084.0,-614.0,248.0,-13.0,26.0,-49.0,11562.0,-11512.0,-943.0,1156.0,1168.0,55.0,-19.0,1.0
2022-05-23 16:03:15.530293-07:00,1308.8,786.9,1442.4,1310.6,1085.1,852.8,1802.3,1311.5,3463.7,3471.0,1097.3,842.8,1603.0,3471.0,1404.0,1201.8,3471.0,3473.4,1519.9,2055.4,2641.7,3484.4,1546.9,3490.5,3477.1,3474.6,681.5,847.8,1772.3,1137.5,1092.1,942.4,10.0,76.0,4.0,12115.0,-10767.0,616.0,2312.0,523.0,-374.0,151.0,-22.0,13.0,-20.0,11814.0,-11252.0,-928.0,1175.0,572.0,-51.0,-14.0,1.0
2022-05-23 16:03:15.590384-07:00,1308.8,780.3,1447.9,1307.9,1085.1,852.8,1802.3,1310.6,3463.7,3474.6,1092.1,836.1,1603.0,3471.0,1404.0,1211.5,3478.3,3473.4,1519.9,2055.4,2634.1,3477.1,1546.9,3490.5,3472.2,3474.6,681.5,847.8,1765.6,1120.0,1098.2,942.4,21.0,-26.0,34.0,12201.0,-10642.0,559.0,2452.0,336.0,-379.0,124.0,15.0,-35.0,21.0,11915.0,-11142.0,-935.0,1201.0,349.0,-44.0,12.0,1.0
2022-05-23 16:03:15.650372-07:00,1313.3,790.2,1447.9,1307.9,1082.5,849.5,1764.6,1310.6,3468.6,3467.4,1092.1,836.1,1602.1,3462.5,1411.3,1211.5,3478.3,3478.3,1526.4,2067.5,2634.1,3477.1,1547.8,3483.2,3472.2,3472.2,683.1,850.3,1765.6,1120.0,1096.4,939.8,34.0,31.0,32.0,12378.0,-10406.0,532.0,2577.0,1040.0,-259.0,124.0,14.0,25.0,6.0,12114.0,-10925.0,-913.0,1219.0,886.0,29.0,-14.0,1.0
2022-05-23 16:03:15.710318-07:00,1313.3,790.2,1434.1,1300.7,1082.5,849.5,1754.1,1314.2,3468.6,3467.4,1099.0,845.3,1602.1,3462.5,1396.7,1200.9,3469.8,3475.9,1526.4,2067.5,2633.0,3500.2,1547.8,3483.2,3473.4,3468.6,683.1,850.3,1772.3,1129.6,1096.4,939.8,20.0,57.0,23.0,12606.0,-10105.0,535.0,2666.0,455.0,-207.0,69.0,0.0,-10.0,0.0,12309.0,-10707.0,-894.0,1218.0,458.0,5.0,-36.0,1.0
2022-05-23 16:03:15.740335-07:00,1308.8,783.6,1434.1,1300.7,1055.6,853.7,1754.1,1314.2,3469.8,3466.1,1099.0,845.3,1601.1,3462.5,1396.7,1200.9,3469.8,3475.9,1523.6,2069.5,2633.0,3500.2,1546.9,3477.1,3473.4,3468.6,676.6,847.0,1772.3,1129.6,1098.2,950.9,22.0,37.0,35.0,12700.0,-9976.0,530.0,2710.0,256.0,-17.0,21.0,3.0,5.0,9.0,12389.0,-10614.0,-885.0,1224.0,205.0,-2.0,17.0,1.0
2022-05-23 16:03:15.770370-07:00,1308.8,783.6,1434.1,1295.4,1055.6,853.7,1755.0,1286.4,3469.8,3466.1,1097.3,851.1,1601.1,3462.5,1401.2,1196.5,3466.1,3469.8,1523.6,2069.5,2653.7,3484.4,1546.9,3477.1,3464.9,3478.3,676.6,847.0,1767.5,1131.4,1098.2,950.9,7.0,41.0,7.0,12703.0,-9973.0,524.0,2707.0,-250.0,-39.0,-66.0,0.0,0.0,22.0,12367.0,-10640.0,-885.0,1226.0,-221.0,6.0,4.0,1.0
2022-05-23 16:03:15.830271-07:00,1321.4,783.6,1434.1,1295.4,1069.5,851.1,1755.0,1286.4,3464.9,3464.9,1097.3,851.1,1600.2,3473.4,1401.2,1196.5,3466.1,3469.8,1532.9,2066.5,2653.7,3484.4,1548.7,3485.6,3464.9,3478.3,677.4,841.9,1767.5,1131.4,1093.8,936.4,21.0,18.0,7.0,12673.0,-10014.0,467.0,2707.0,60.0,-120.0,-73.0,1.0,-2.0,7.0,12339.0,-10674.0,-882.0,1217.0,7.0,26.0,-10.0,1.0
2022-05-23 16:03:15.890269-07:00,1321.4,783.6,1427.7,1302.5,1069.5,851.1,1758.9,1300.7,3464.9,3464.9,1105.1,844.4,1600.2,3462.5,1410.3,1207.1,3464.9,3473.4,1530.1,2066.5,2648.2,3486.8,1548.7,3485.6,3467.4,3468.6,684.0,841.9,1773.3,1125.2,1093.8,936.4,11.0,23.0,2.0,12699.0,-9982.0,404.0,2715.0,27.0,-171.0,-100.0,0.0,-6.0,2.0,12349.0,-10664.0,-876.0,1204.0,8.0,34.0,-14.0,1.0
2022-05-23 16:03:15.920336-07:00,1313.3,785.2,1418.6,1302.5,1079.9,851.1,1758.9,1300.7,3472.2,3471.0,1093.8,844.4,1596.4,3462.5,1410.3,1207.1,3464.9,3473.4,1530.1,2064.5,2648.2,3485.6,1543.1,3494.1,3467.4,3468.6,684.0,847.8,1773.3,1126.1,1092.1,938.1,38.0,41.0,4.0,12707.0,-9975.0,325.0,2710.0,-98.0,-26.0,-133.0,1.0,16.0,-22.0,12331.0,-10685.0,-879.0,1192.0,-108.0,-7.0,-31.0,1.0
2022-05-23 16:03:15.980882-07:00,1313.3,785.2,1418.6,1291.8,1079.9,848.6,1767.5,1308.8,3472.2,3471.0,1093.8,841.1,1596.4,3475.9,1393.0,1200.0,3478.3,3464.9,1526.4,2064.5,2650.4,3485.6,1543.1,3494.1,3481.9,3472.2,677.4,847.8,1767.5,1126.1,1092.1,938.1,0.0,-11.0,-11.0,12685.0,-10013.0,269.0,2682.0,-6.0,-135.0,-99.0,6.0,-27.0,9.0,12300.0,-10721.0,-890.0,1183.0,-47.0,7.0,-9.0,1.0
2022-05-23 16:03:16.040323-07:00,1303.4,795.2,1415.8,1291.8,1079.9,848.6,1767.5,1308.8,3468.6,3463.7,1098.2,841.1,1608.7,3475.9,1393.0,1200.0,3478.3,3464.9,1526.4,2065.5,2650.4,3492.9,1539.4,3485.6,3481.9,3472.2,677.4,845.3,1767.5,1124.4,1082.5,933.9,11.0,9.0,0.0,12700.0,-9993.0,200.0,2695.0,-32.0,-135.0,-63.0,-7.0,2.0,-10.0,12301.0,-10721.0,-895.0,1177.0,-40.0,-19.0,-20.0,1.0
2022-05-23 16:03:16.070325-07:00,1303.4,795.2,1415.8,1277.4,1079.9,843.6,1757.0,1309.7,3468.6,3463.7,1098.2,845.3,1608.7,3469.8,1395.7,1200.0,3478.3,3478.3,1521.8,2065.5,2670.0,3492.9,1539.4,3485.6,3467.4,3471.0,684.0,845.3,1782.0,1124.4,1082.5,933.9,7.0,12.0,3.0,12702.0,-9985.0,138.0,2717.0,-54.0,-157.0,-39.0,1.0,-22.0,2.0,12303.0,-10717.0,-908.0,1184.0,-29.0,-37.0,6.0,1.0
2022-05-23 16:03:16.190349-07:00,1316.0,789.4,1406.7,1277.4,1086.0,843.6,1757.0,1309.7,3462.5,3460.1,1084.2,845.3,1601.1,3469.8,1395.7,1200.0,3478.3,3478.3,1521.8,2082.6,2670.0,3486.8,1543.1,3486.8,3467.4,3471.0,684.0,847.0,1782.0,1119.1,1082.5,926.2,18.0,32.0,21.0,12710.0,-9968.0,70.0,2740.0,87.0,-138.0,-69.0,8.0,-3.0,7.0,12305.0,-10713.0,-914.0,1188.0,28.0,1.0,-7.0,1.0
2022-05-23 16:03:16.193431-07:00,1316.0,789.4,1406.7,1280.1,1104.3,847.8,1748.3,1299.8,3462.5,3460.1,1084.2,830.2,1602.1,3473.4,1387.5,1194.7,3466.1,3472.2,1525.5,2076.5,2658.0,3486.8,1543.1,3486.8,3473.4,3462.5,690.5,845.3,1768.5,1119.1,1082.5,926.2,-5.0,32.0,5.0,12743.0,-9929.0,31.0,2730.0,-37.0,5.0,-51.0,-1.0,18.0,14.0,12313.0,-10704.0,-918.0,1188.0,-50.0,-18.0,-1.0,1.0
2022-05-23 16:03:16.250553-07:00,1314.2,793.5,1399.4,1288.2,1104.3,847.8,1748.3,1299.8,3463.7,3466.1,1079.9,828.5,1602.1,3473.4,1387.5,1194.7,3466.1,3472.2,1525.5,2076.5,2675.5,3484.4,1545.9,3486.8,3473.4,3462.5,690.5,845.3,1767.5,1116.5,1089.5,946.6,30.0,26.0,8.0,12726.0,-9944.0,-12.0,2757.0,-116.0,-196.0,89.0,-13.0,7.0,-30.0,12296.0,-10723.0,-913.0,1192.0,-89.0,-1.0,33.0,1.0
2022-05-23 16:03:16.280725-07:00,1314.2,793.5,1399.4,1288.2,1109.5,864.6,1733.0,1291.8,3463.7,3466.1,1079.9,828.5,1599.3,3471.0,1381.2,1198.2,3473.4,3469.8,1522.7,2072.5,2675.5,3484.4,1545.9,3486.8,3464.9,3467.4,702.8,837.7,1767.5,1116.5,1089.5,946.6,-4.0,-3.0,27.0,12641.0,-10040.0,-18.0,2797.0,-525.0,153.0,92.0,8.0,-22.0,18.0,12213.0,-10816.0,-920.0,1206.0,-384.0,-32.0,51.0,1.0
2022-05-23 16:03:16.340313-07:00,1311.5,780.3,1417.6,1285.5,1109.5,864.6,1733.0,1291.8,3473.4,3471.0,1073.8,825.2,1599.3,3471.0,1381.2,1198.2,3473.4,3469.8,1522.7,2072.5,2664.6,3491.7,1543.1,3497.8,3464.9,3467.4,702.8,837.7,1790.7,1119.1,1083.4,932.2,10.0,17.0,26.0,12512.0,-10199.0,21.0,2806.0,-299.0,77.0,173.0,12.0,-13.0,13.0,12133.0,-10906.0,-906.0,1214.0,-180.0,34.0,60.0,1.0
2022-05-23 16:03:16.370908-07:00,1311.5,780.3,1417.6,1285.5,1102.5,867.9,1736.8,1318.7,3473.4,3471.0,1073.8,825.2,1606.8,3466.1,1386.6,1198.2,3477.1,3473.4,1522.7,2069.5,2664.6,3491.7,1543.1,3497.8,3472.2,3468.6,701.9,841.1,1790.7,1119.1,1083.4,932.2,38.0,71.0,-4.0,12456.0,-10261.0,77.0,2826.0,-61.0,124.0,47.0,7.0,22.0,-13.0,12115.0,-10928.0,-888.0,1211.0,-52.0,29.0,-9.0,1.0
2022-05-23 16:03:16.490427-07:00,1312.4,791.9,1410.3,1270.3,1102.5,867.9,1736.8,1312.4,3461.3,3457.6,1058.2,821.9,1606.8,3466.1,1386.6,1183.2,3468.6,3473.4,1522.7,2069.5,2671.1,3489.2,1538.5,3495.3,3464.9,3468.6,701.9,841.1,1793.6,1121.7,1070.3,928.8,-2.0,-18.0,15.0,12394.0,-10345.0,139.0,2793.0,-488.0,280.0,84.0,-18.0,-21.0,0.0,12046.0,-11004.0,-904.0,1196.0,-354.0,-9.0,-21.0,1.0
2022-05-23 16:03:16.491796-07:00,1317.8,791.9,1410.3,1270.3,1086.8,939.8,1733.0,1312.4,3467.4,3457.6,1058.2,821.9,1594.6,3467.4,1376.6,1183.2,3468.6,3464.9,1528.3,2067.5,2671.1,3489.2,1538.5,3490.5,3464.9,3477.1,714.2,847.8,1793.6,1121.7,1070.3,924.5,47.0,-25.0,5.0,12279.0,-10490.0,273.0,2750.0,-79.0,526.0,322.0,0.0,0.0,-8.0,12016.0,-11036.0,-904.0,1199.0,98.0,-10.0,34.0,1.0
2022-05-23 16:03:16.550379-07:00,1317.8,781.9,1420.4,1282.8,1086.8,939.8,1733.0,1294.5,3467.4,3469.8,1064.3,821.9,1594.6,3467.4,1376.6,1185.0,3473.4,3464.9,1528.3,2067.5,2642.8,3495.3,1541.3,3490.5,3479.5,3477.1,714.2,847.8,1783.9,1093.8,1067.7,924.5,-56.0,72.0,18.0,12205.0,-10570.0,592.0,2720.0,-160.0,652.0,494.0,20.0,-23.0,32.0,12017.0,-11035.0,-896.0,1212.0,-185.0,14.0,38.0,1.0
2022-05-23 16:03:16.580327-07:00,1316.9,781.9,1420.4,1282.8,1070.3,1083.4,1742.6,1294.5,3469.8,3469.8,1064.3,821.9,1593.6,3462.5,1362.1,1185.0,3473.4,3477.1,1522.7,2046.4,2642.8,3495.3,1541.3,3485.6,3479.5,3467.4,707.7,847.0,1783.9,1093.8,1067.7,927.1,-28.0,-1.0,7.0,12046.0,-10738.0,876.0,2692.0,-683.0,562.0,263.0,9.0,-27.0,38.0,11903.0,-11157.0,-896.0,1207.0,-474.0,22.0,22.0,1.0
2022-05-23 16:03:16.640275-07:00,1316.9,786.9,1379.4,1185.0,1070.3,1083.4,1742.6,1315.1,3469.8,3472.2,1066.9,817.7,1593.6,3462.5,1362.1,1166.5,3475.9,3477.1,1522.7,2046.4,2639.5,3492.9,1537.6,3485.6,3468.6,3467.4,707.7,847.0,1780.1,1086.0,1060.8,927.1,29.0,50.0,1.0,11905.0,-10884.0,1046.0,2675.0,-79.0,257.0,246.0,0.0,11.0,-12.0,11827.0,-11241.0,-883.0,1191.0,-144.0,57.0,-5.0,1.0
2022-05-23 16:03:16.670717-07:00,1325.0,786.9,1379.4,1185.0,1072.9,1069.5,1820.7,1315.1,3472.2,3472.2,1066.9,817.7,1581.4,3474.6,1337.7,1166.5,3475.9,3469.8,1513.4,2038.4,2639.5,3492.9,1537.6,3491.7,3468.6,3474.6,693.8,825.2,1780.1,1086.0,1060.8,935.6,-29.0,62.0,-19.0,11814.0,-10982.0,1153.0,2635.0,-824.0,273.0,-201.0,-17.0,-13.0,-9.0,11715.0,-11359.0,-896.0,1170.0,-714.0,-37.0,-17.0,1.0
2022-05-23 16:03:16.731137-07:00,1325.0,788.6,1272.1,1106.0,1072.9,1069.5,1924.3,1350.3,3472.2,3463.7,1061.7,825.2,1581.4,3474.6,1291.8,1155.9,3473.4,3471.0,1513.4,2038.4,2652.6,3490.5,1539.4,3491.7,3464.9,3464.9,693.8,825.2,1775.2,1072.1,1050.4,935.6,13.0,-26.0,35.0,11626.0,-11214.0,1075.0,2523.0,-249.0,78.0,-251.0,15.0,-20.0,26.0,11545.0,-11530.0,-928.0,1152.0,-234.0,25.0,-30.0,1.0
2022-05-23 16:03:16.790287-07:00,1307.0,781.1,1272.1,1106.0,1066.0,1066.0,1924.3,1350.3,3466.1,3467.4,1061.7,825.2,1599.3,3466.1,1291.8,1155.9,3473.4,3471.0,1524.5,2064.5,2652.6,3490.5,1544.1,3488.0,3464.9,3464.9,686.4,825.2,1775.2,1072.1,1023.7,917.7,21.0,66.0,-25.0,11624.0,-11234.0,1012.0,2465.0,-127.0,-126.0,-130.0,-6.0,35.0,-23.0,11523.0,-11555.0,-932.0,1127.0,-208.0,1.0,-44.0,1.0
2022-05-23 16:03:16.820320-07:00,1307.0,781.1,1214.2,1073.8,1066.0,1066.0,1898.7,1331.4,3466.1,3467.4,1061.7,817.7,1599.3,3466.1,1263.1,1135.7,3462.5,3477.1,1524.5,2064.5,2639.5,3491.7,1544.1,3488.0,3467.4,3466.1,686.4,825.2,1772.3,1054.8,1023.7,917.7,39.0,-14.0,32.0,11498.0,-11375.0,930.0,2446.0,-703.0,232.0,-107.0,8.0,-5.0,-1.0,11382.0,-11691.0,-970.0,1118.0,-667.0,-68.0,-18.0,1.0
2022-05-23 16:03:16.910200-07:00,1317.8,782.7,1214.2,1073.8,1054.8,1048.7,1898.7,1331.4,3461.3,3467.4,1061.7,817.7,1591.7,3457.6,1263.1,1135.7,3462.5,3477.1,1525.5,2053.4,2639.5,3491.7,1559.9,3486.8,3467.4,3466.1,681.5,810.2,1772.3,1054.8,1003.9,939.0,16.0,17.0,14.0,11321.0,-11565.0,946.0,2374.0,-397.0,166.0,29.0,9.0,3.0,10.0,11206.0,-11859.0,-997.0,1116.0,-437.0,3.0,10.0,1.0
2022-05-23 16:03:16.940298-07:00,1317.8,782.7,1182.3,1053.9,1054.8,1048.7,1941.0,1434.1,3461.3,3467.4,1048.7,813.5,1591.7,3457.6,1240.8,1137.5,3457.6,3475.9,1525.5,2053.4,2642.8,3484.4,1559.9,3486.8,3471.0,3469.8,681.5,810.2,1765.6,1053.0,1003.9,939.0,16.0,52.0,-5.0,11196.0,-11689.0,991.0,2339.0,-401.0,183.0,-37.0,12.0,-5.0,18.0,11060.0,-11995.0,-1014.0,1105.0,-557.0,-19.0,-30.0,1.0
2022-05-23 16:03:16.970741-07:00,1314.2,788.6,1167.4,1053.9,1053.9,1017.6,1941.0,1434.1,3457.6,3466.1,1051.3,813.5,1591.7,3473.4,1240.8,1137.5,3457.6,3475.9,1517.1,2055.4,2642.8,3491.7,1547.8,3489.2,3471.0,3469.8,677.4,796.9,1765.6,1040.1,991.0,931.3,8.0,3.0,-1.0,11115.0,-11777.0,961.0,2293.0,15.0,-96.0,-117.0,3.0,-3.0,11.0,10933.0,-12111.0,-1042.0,1078.0,-130.0,35.0,-55.0,1.0
2022-05-23 16:03:17.060357-07:00,1314.2,788.6,1167.4,1029.7,1053.9,993.6,1930.2,1432.3,3457.6,3466.1,1051.3,816.0,1591.7,3472.2,1224.8,1125.2,3488.0,3471.0,1531.0,2055.4,2642.8,3491.7,1547.8,3489.2,3473.4,3467.4,676.6,796.9,1769.5,1040.1,991.0,931.3,29.0,39.0,0.0,11128.0,-11769.0,892.0,2302.0,-167.0,-79.0,-102.0,-11.0,16.0,-27.0,10902.0,-12139.0,-1058.0,1055.0,-145.0,-14.0,-52.0,1.0
2022-05-23 16:03:17.090348-07:00,1307.0,781.9,1152.4,1029.7,1053.9,993.6,1930.2,1432.3,3455.2,3468.6,1050.4,816.0,1601.1,3472.2,1224.8,1125.2,3488.0,3471.0,1531.0,2058.4,2642.8,3491.7,1559.9,3486.8,3473.4,3467.4,676.6,790.2,1769.5,1026.3,987.6,922.0,-1.0,-7.0,14.0,11075.0,-11825.0,841.0,2293.0,-155.0,-61.0,1.0,8.0,-13.0,19.0,10826.0,-12204.0,-1086.0,1051.0,-201.0,-31.0,-12.0,1.0
2022-05-23 16:03:17.120396-07:00,1307.0,781.9,1152.4,1030.6,1053.9,967.1,1918.3,1441.5,3455.2,3468.6,1050.4,821.0,1601.1,3471.0,1211.5,1132.2,3480.7,3460.1,1534.8,2058.4,2634.1,3491.7,1559.9,3486.8,3467.4,3461.3,675.0,790.2,1762.7,1026.3,987.6,922.0,36.0,26.0,16.0,11045.0,-11846.0,816.0,2336.0,-63.0,-106.0,29.0,9.0,-1.0,-4.0,10796.0,-12231.0,-1091.0,1051.0,-58.0,-7.0,0.0,1.0
2022-05-23 16:03:17.180207-07:00,1307.0,775.3,1135.7,1030.6,1046.1,967.1,1918.3,1441.5,3468.6,3468.6,1048.7,821.0,1595.5,3471.0,1211.5,1132.2,3480.7,3460.1,1534.8,2063.5,2634.1,3484.4,1556.2,3481.9,3467.4,3461.3,675.0,774.5,1762.7,1021.9,991.9,926.2,12.0,22.0,8.0,11037.0,-11851.0,791.0,2353.0,-10.0,-39.0,-45.0,0.0,2.0,2.0,10780.0,-12244.0,-1100.0,1051.0,-19.0,-11.0,-18.0,1.0
2022-05-23 16:03:17.240332-07:00,1307.0,775.3,1135.7,1014.2,1044.4,958.5,1902.6,1419.5,3468.6,3468.6,1048.7,812.7,1591.7,3457.6,1209.7,1123.5,3473.4,3469.8,1531.0,2050.4,2627.5,3484.4,1556.2,3481.9,3473.4,3467.4,671.7,769.5,1763.7,1021.9,991.9,926.2,10.0,27.0,20.0,11029.0,-11863.0,764.0,2344.0,-136.0,15.0,-57.0,-4.0,0.0,3.0,10764.0,-12258.0,-1111.0,1045.0,-113.0,-12.0,-28.0,1.0
2022-05-23 16:03:17.270406-07:00,1309.7,784.4,1138.4,1015.9,1044.4,958.5,1902.6,1419.5,3464.9,3469.8,1044.4,812.7,1591.7,3457.6,1209.7,1123.5,3473.4,3469.8,1531.0,2050.4,2635.1,3494.1,1566.5,3481.9,3473.4,3467.4,671.7,769.5,1764.6,1021.9,967.9,917.7,10.0,15.0,21.0,10990.0,-11904.0,748.0,2324.0,-144.0,27.0,-34.0,9.0,-12.0,10.0,10718.0,-12298.0,-1117.0,1038.0,-148.0,4.0,1.0,1.0
2022-05-23 16:03:17.330263-07:00,1309.7,784.4,1138.4,1015.9,1046.1,939.0,1890.9,1416.7,3464.9,3469.8,1044.4,812.7,1592.7,3462.5,1207.1,1121.7,3460.1,3471.0,1532.0,2095.7,2635.1,3494.1,1566.5,3481.9,3467.4,3479.5,669.3,762.9,1764.6,1021.9,967.9,917.7,21.0,17.0,4.0,10965.0,-11931.0,739.0,2306.0,-63.0,20.0,-2.0,11.0,-6.0,0.0,10690.0,-12323.0,-1115.0,1029.0,-64.0,16.0,-8.0,1.0
2022-05-23 16:03:17.390335-07:00,1301.6,783.6,1130.5,1022.8,1046.1,939.0,1890.9,1416.7,3468.6,3463.7,1047.8,813.5,1592.7,3462.5,1207.1,1121.7,3460.1,3471.0,1532.0,2095.7,2644.9,3491.7,1559.0,3481.9,3467.4,3479.5,669.3,762.9,1760.8,1021.1,957.7,915.2,25.0,22.0,4.0,10956.0,-11942.0,733.0,2295.0,-34.0,23.0,-35.0,7.0,-8.0,-3.0,10677.0,-12335.0,-1114.0,1024.0,-49.0,6.0,-5.0,1.0
2022-05-23 16:03:17.420295-07:00,1301.6,783.6,1130.5,1022.8,1035.7,939.8,1880.1,1415.8,3468.6,3463.7,1047.8,813.5,1596.4,3462.5,1203.5,1118.2,3483.2,3467.4,1529.2,2059.4,2644.9,3491.7,1559.0,3481.9,3477.1,3464.9,671.7,759.6,1760.8,1021.1,957.7,915.2,15.0,26.0,-6.0,10961.0,-11942.0,712.0,2278.0,-10.0,-45.0,-36.0,-3.0,4.0,-10.0,10674.0,-12337.0,-1115.0,1023.0,-1.0,-4.0,-8.0,1.0
2022-05-23 16:03:17.480142-07:00,1302.5,785.2,1135.7,1004.8,1035.7,939.8,1880.1,1415.8,3464.9,3463.7,1044.4,811.0,1596.4,3462.5,1203.5,1118.2,3483.2,3467.4,1529.2,2059.4,2637.3,3488.0,1551.5,3490.5,3477.1,3464.9,671.7,759.6,1759.8,1016.8,960.2,921.1,10.0,15.0,1.0,10951.0,-11950.0,690.0,2287.0,-95.0,-39.0,7.0,1.0,-12.0,-4.0,10667.0,-12343.0,-1120.0,1026.0,-58.0,-21.0,-8.0,1.0
2022-05-23 16:03:17.540364-07:00,1307.0,785.2,1135.7,1004.8,1029.7,927.9,1876.2,1404.9,3471.0,3463.7,1044.4,811.0,1594.6,3467.4,1200.0,1119.1,3460.1,3464.9,1532.0,2046.4,2637.3,3488.0,1551.5,3485.6,3475.9,3479.5,669.3,762.9,1759.8,1016.8,960.2,917.7,20.0,21.0,11.0,10940.0,-11959.0,674.0,2296.0,34.0,-29.0,-2.0,4.0,1.0,7.0,10659.0,-12349.0,-1127.0,1031.0,32.0,-10.0,-5.0,1.0
2022-05-23 16:03:17.570337-07:00,1307.0,781.9,1131.4,994.5,1029.7,927.9,1876.2,1401.2,3471.0,3469.8,1044.4,813.5,1594.6,3467.4,1200.0,1117.4,3478.3,3464.9,1532.0,2046.4,2633.0,3491.7,1557.1,3485.6,3480.7,3479.5,669.3,762.9,1760.8,1011.6,955.1,917.7,23.0,22.0,7.0,10949.0,-11951.0,659.0,2302.0,-18.0,-26.0,-11.0,3.0,6.0,0.0,10666.0,-12342.0,-1132.0,1033.0,8.0,-10.0,-16.0,1.0
2022-05-23 16:03:17.630293-07:00,1304.3,781.9,1131.4,994.5,1034.9,926.2,1874.2,1401.2,3462.5,3469.8,1044.4,813.5,1592.7,3469.8,1200.9,1117.4,3478.3,3474.6,1512.5,2043.4,2633.0,3491.7,1557.1,3486.8,3480.7,3471.0,666.8,762.9,1760.8,1011.6,955.1,919.4,6.0,-2.0,21.0,10934.0,-11965.0,651.0,2300.0,-34.0,-1.0,-8.0,3.0,-17.0,10.0,10655.0,-12351.0,-1140.0,1033.0,-43.0,-7.0,0.0,1.0
2022-05-23 16:03:17.690266-07:00,1304.3,776.9,1121.7,1020.2,1034.9,926.2,1874.2,1389.4,3462.5,3467.4,1043.5,811.0,1592.7,3469.8,1200.9,1119.1,3467.4,3474.6,1512.5,2043.4,2626.5,3495.3,1558.1,3486.8,3481.9,3471.0,666.8,762.9,1752.1,1015.9,957.7,919.4,18.0,40.0,10.0,10943.0,-11958.0,649.0,2294.0,-6.0,27.0,-5.0,6.0,14.0,4.0,10662.0,-12345.0,-1140.0,1033.0,18.0,1.0,2.0,1.0
2022-05-23 16:03:17.720671-07:00,1316.0,776.9,1121.7,1020.2,1028.8,920.3,1848.9,1389.4,3468.6,3467.4,1043.5,811.0,1585.2,3464.9,1193.8,1119.1,3467.4,3474.6,1525.5,2051.4,2626.5,3495.3,1558.1,3485.6,3481.9,3468.6,664.4,763.7,1752.1,1015.9,957.7,900.0,-1.0,0.0,6.0,10921.0,-11978.0,659.0,2290.0,-86.0,-16.0,40.0,3.0,-22.0,13.0,10652.0,-12353.0,-1141.0,1032.0,-19.0,2.0,3.0,1.0
2022-05-23 16:03:17.780634-07:00,1316.0,776.1,1127.9,997.0,1028.8,920.3,1848.9,1390.3,3468.6,3468.6,1042.6,806.9,1585.2,3464.9,1193.8,1116.5,3469.8,3471.0,1525.5,2051.4,2630.8,3488.0,1552.5,3485.6,3473.4,3464.9,664.4,763.7,1760.8,1007.3,944.9,900.0,29.0,21.0,1.0,10910.0,-11986.0,663.0,2305.0,40.0,17.0,20.0,5.0,-2.0,-6.0,10661.0,-12346.0,-1136.0,1037.0,51.0,3.0,12.0,1.0
2022-05-23 16:03:17.840299-07:00,1304.3,777.8,1127.9,997.0,1025.4,922.0,1848.9,1390.3,3461.3,3471.0,1042.6,806.9,1590.8,3464.9,1193.8,1116.5,3469.8,3471.0,1528.3,2039.4,2630.8,3488.0,1550.6,3486.8,3473.4,3464.9,663.6,766.2,1760.8,1007.3,951.7,909.3,15.0,16.0,14.0,10916.0,-11980.0,676.0,2299.0,30.0,28.0,9.0,5.0,-8.0,4.0,10666.0,-12341.0,-1136.0,1037.0,8.0,2.0,-3.0,1.0
2022-05-23 16:03:17.870337-07:00,1304.3,777.8,1121.7,1001.3,1025.4,922.0,1844.0,1393.9,3461.3,3471.0,1041.8,806.0,1590.8,3464.9,1193.8,1111.2,3464.9,3468.6,1528.3,2039.4,2630.8,3488.0,1550.6,3486.8,3474.6,3472.2,663.6,766.2,1749.3,1003.0,951.7,909.3,16.0,23.0,3.0,10930.0,-11969.0,681.0,2293.0,27.0,-3.0,-13.0,4.0,1.0,2.0,10677.0,-12332.0,-1135.0,1038.0,31.0,0.0,-6.0,1.0
2022-05-23 16:03:17.930241-07:00,1294.5,786.9,1121.7,1001.3,1028.8,915.2,1844.0,1393.9,3464.9,3462.5,1041.8,806.0,1591.7,3472.2,1193.8,1111.2,3464.9,3468.6,1530.1,2049.4,2630.8,3488.0,1548.7,3484.4,3474.6,3472.2,662.7,763.7,1749.3,1003.0,950.0,903.4,14.0,19.0,2.0,10934.0,-11966.0,679.0,2290.0,-11.0,5.0,5.0,3.0,-2.0,0.0,10679.0,-12330.0,-1135.0,1039.0,2.0,-11.0,-2.0,1.0
2022-05-23 16:03:17.960935-07:00,1294.5,786.9,1120.9,991.9,1028.8,915.2,1838.2,1392.1,3464.9,3462.5,1041.8,811.0,1591.7,3472.2,1190.3,1113.0,3472.2,3471.0,1530.1,2049.4,2628.6,3491.7,1548.7,3484.4,3474.6,3471.0,662.7,763.7,1758.9,1009.0,950.0,903.4,15.0,16.0,-2.0,10934.0,-11966.0,671.0,2293.0,50.0,-65.0,-25.0,8.0,-8.0,4.0,10682.0,-12327.0,-1138.0,1041.0,35.0,-12.0,1.0,1.0
2022-05-23 16:03:18.020387-07:00,1304.3,776.1,1118.2,991.9,1031.4,913.5,1838.2,1392.1,3461.3,3473.4,1045.2,811.0,1593.6,3468.6,1190.3,1113.0,3472.2,3471.0,1521.8,2051.4,2628.6,3496.6,1545.0,3486.8,3474.6,3471.0,662.7,768.7,1758.9,1003.9,944.9,904.2,-7.0,-15.0,13.0,10965.0,-11936.0,638.0,2312.0,207.0,-186.0,-35.0,15.0,-30.0,27.0,10730.0,-12285.0,-1137.0,1046.0,259.0,-4.0,9.0,1.0
2022-05-23 16:03:18.140253-07:00,1304.3,776.1,1118.2,1000.5,1031.4,920.3,1847.9,1380.3,3461.3,3473.4,1045.2,813.5,1593.6,3467.4,1196.5,1106.9,3467.4,3478.3,1512.5,2051.4,2626.5,3496.6,1545.0,3486.8,3467.4,3480.7,666.8,768.7,1754.1,1003.9,944.9,904.2,-33.0,-45.0,-9.0,11120.0,-11770.0,546.0,2442.0,1042.0,-932.0,70.0,19.0,-76.0,35.0,10975.0,-12071.0,-1081.0,1053.0,1168.0,152.0,79.0,1.0
2022-05-23 16:03:18.141616-07:00,1291.8,772.8,1209.7,1000.5,1025.4,920.3,1847.9,1380.3,3464.9,3464.9,1047.8,813.5,1591.7,3467.4,1196.5,1106.9,3467.4,3478.3,1512.5,2047.4,2626.5,3494.1,1544.1,3485.6,3467.4,3480.7,666.8,781.9,1754.1,1012.5,959.4,907.6,73.0,-26.0,-17.0,11497.0,-11340.0,352.0,2745.0,1538.0,-767.0,-14.0,8.0,-22.0,-87.0,11415.0,-11662.0,-977.0,1081.0,1519.0,55.0,80.0,1.0
2022-05-23 16:03:18.170372-07:00,1291.8,772.8,1209.7,1101.7,1025.4,911.8,1929.2,1363.9,3464.9,3464.9,1047.8,812.7,1591.7,3467.4,1233.7,1129.6,3474.6,3467.4,1526.4,2047.4,2635.1,3494.1,1544.1,3485.6,3483.2,3467.4,675.8,781.9,1760.8,1012.5,959.4,907.6,16.0,96.0,-34.0,12038.0,-10726.0,303.0,2896.0,1767.0,-387.0,-17.0,-24.0,56.0,3.0,11842.0,-11228.0,-932.0,1128.0,1616.0,-31.0,-3.0,1.0
2022-05-23 16:03:18.230216-07:00,1291.8,777.8,1383.9,1101.7,1031.4,911.8,1929.2,1363.9,3466.1,3463.7,1043.5,812.7,1590.8,3467.4,1233.7,1129.6,3474.6,3467.4,1526.4,2058.4,2635.1,3490.5,1541.3,3481.9,3483.2,3467.4,675.8,815.2,1760.8,1007.3,972.2,906.7,9.0,21.0,30.0,12447.0,-10219.0,308.0,2998.0,1076.0,-230.0,59.0,-18.0,-15.0,-13.0,12228.0,-10805.0,-899.0,1169.0,930.0,-37.0,22.0,1.0
2022-05-23 16:03:18.260435-07:00,1291.8,777.8,1383.9,1229.3,1031.4,915.2,1932.1,1344.0,3466.1,3463.7,1043.5,815.2,1590.8,3471.0,1232.8,1118.2,3467.4,3479.5,1521.8,2058.4,2631.9,3490.5,1541.3,3481.9,3468.6,3467.4,685.6,815.2,1748.3,1007.3,972.2,906.7,25.0,96.0,20.0,12720.0,-9861.0,342.0,3047.0,883.0,-121.0,55.0,9.0,36.0,37.0,12465.0,-10526.0,-880.0,1215.0,763.0,-43.0,21.0,1.0
2022-05-23 16:03:18.320842-07:00,1303.4,771.1,1478.3,1299.8,1044.4,915.2,1932.1,1344.0,3469.8,3457.6,1045.2,826.9,1588.0,3471.0,1232.8,1118.2,3467.4,3479.5,1521.8,2054.4,2641.7,3500.2,1532.0,3491.7,3468.6,3467.4,685.6,813.5,1761.8,1010.8,973.9,907.6,23.0,48.0,49.0,12873.0,-9645.0,368.0,3092.0,291.0,-63.0,5.0,8.0,-1.0,16.0,12611.0,-10349.0,-873.0,1242.0,222.0,-42.0,10.0,1.0
2022-05-23 16:03:18.380316-07:00,1303.4,771.1,1478.3,1299.8,1039.2,905.0,1945.9,1358.5,3469.8,3457.6,1045.2,826.9,1591.7,3463.7,1258.7,1128.7,3466.1,3467.4,1524.5,2056.4,2641.7,3500.2,1532.0,3491.7,3467.4,3462.5,689.7,807.7,1761.8,1010.8,973.9,907.6,27.0,29.0,41.0,12947.0,-9552.0,379.0,3070.0,341.0,108.0,-101.0,15.0,1.0,29.0,12658.0,-10289.0,-878.0,1261.0,220.0,-11.0,20.0,1.0
2022-05-23 16:03:18.410335-07:00,1296.3,772.0,1511.5,1303.4,1039.2,905.0,1945.9,1358.5,3474.6,3467.4,1041.8,818.5,1591.7,3463.7,1258.7,1128.7,3466.1,3467.4,1524.5,2056.4,2631.9,3489.2,1534.8,3491.7,3467.4,3462.5,689.7,807.7,1756.0,1016.8,983.3,912.7,0.0,35.0,11.0,13020.0,-9468.0,424.0,3018.0,77.0,67.0,-25.0,1.0,-8.0,23.0,12709.0,-10226.0,-863.0,1262.0,45.0,52.0,7.0,1.0
2022-05-23 16:03:18.500182-07:00,1296.3,772.0,1511.5,1303.4,1034.9,904.2,1939.0,1344.0,3474.6,3467.4,1041.8,818.5,1593.6,3463.7,1277.4,1134.0,3464.9,3471.0,1520.8,2053.4,2631.9,3489.2,1534.8,3491.7,3468.6,3468.6,685.6,814.4,1756.0,1016.8,983.3,912.7,19.0,11.0,-3.0,13041.0,-9447.0,446.0,2988.0,154.0,84.0,-38.0,5.0,-2.0,-4.0,12716.0,-10221.0,-842.0,1251.0,54.0,57.0,19.0,1.0
2022-05-23 16:03:18.530277-07:00,1281.0,763.7,1506.9,1322.3,1034.9,904.2,1939.0,1344.0,3468.6,3467.4,1047.8,811.0,1593.6,3463.7,1277.4,1134.0,3464.9,3471.0,1520.8,2053.4,2634.1,3488.0,1528.3,3486.8,3468.6,3468.6,685.6,814.4,1755.0,991.0,991.9,902.5,7.0,-2.0,-22.0,13086.0,-9391.0,469.0,2964.0,238.0,-30.0,-5.0,-1.0,-8.0,0.0,12743.0,-10190.0,-818.0,1239.0,144.0,58.0,-3.0,1.0
2022-05-23 16:03:18.560350-07:00,1291.8,763.7,1506.9,1322.3,1034.9,901.7,1921.3,1342.2,3471.0,3467.4,1047.8,811.0,1588.0,3464.9,1294.5,1139.2,3467.4,3471.0,1514.3,2056.4,2634.1,3488.0,1528.3,3494.1,3478.3,3468.6,681.5,812.7,1755.0,991.0,991.9,905.0,21.0,34.0,-12.0,13177.0,-9259.0,494.0,2973.0,501.0,11.0,7.0,2.0,0.0,-12.0,12822.0,-10094.0,-792.0,1229.0,392.0,42.0,0.0,1.0
2022-05-23 16:03:18.620360-07:00,1291.8,767.8,1552.5,1368.5,1034.9,901.7,1921.3,1351.2,3471.0,3466.1,1046.1,814.4,1588.0,3464.9,1294.5,1143.6,3474.6,3471.0,1514.3,2056.4,2635.1,3486.8,1530.1,3494.1,3472.2,3468.6,681.5,812.7,1747.3,1024.5,1003.0,905.0,5.0,39.0,-7.0,13260.0,-9144.0,516.0,2954.0,45.0,4.0,-53.0,2.0,3.0,8.0,12883.0,-10017.0,-782.0,1232.0,68.0,-12.0,-2.0,1.0
2022-05-23 16:03:18.680254-07:00,1294.5,767.8,1552.5,1368.5,1045.2,900.0,1900.7,1351.2,3474.6,3466.1,1046.1,814.4,1589.9,3473.4,1306.1,1143.6,3474.6,3475.9,1512.5,2057.4,2635.1,3486.8,1530.1,3491.7,3472.2,3472.2,696.2,804.4,1747.3,1024.5,1003.0,902.5,10.0,-6.0,12.0,13259.0,-9149.0,521.0,2942.0,29.0,26.0,6.0,1.0,-14.0,14.0,12883.0,-10016.0,-785.0,1235.0,3.0,-5.0,12.0,1.0
2022-05-23 16:03:18.710402-07:00,1294.5,762.9,1547.8,1370.3,1045.2,900.0,1900.7,1343.1,3474.6,3456.4,1050.4,815.2,1589.9,3473.4,1306.1,1130.5,3467.4,3475.9,1512.5,2057.4,2629.7,3486.8,1535.7,3491.7,3473.4,3472.2,696.2,804.4,1747.3,1032.3,999.6,902.5,10.0,34.0,0.0,13276.0,-9126.0,535.0,2935.0,14.0,31.0,4.0,0.0,-8.0,14.0,12902.0,-9991.0,-779.0,1242.0,70.0,2.0,8.0,1.0
2022-05-23 16:03:18.800448-07:00,1281.0,762.9,1547.8,1370.3,1050.4,900.0,1898.7,1343.1,3478.3,3456.4,1050.4,815.2,1592.7,3467.4,1320.5,1130.5,3467.4,3467.4,1512.5,2055.4,2629.7,3486.8,1535.7,3492.9,3473.4,3478.3,683.1,814.4,1747.3,1032.3,999.6,914.4,19.0,6.0,5.0,13287.0,-9108.0,561.0,2936.0,142.0,78.0,81.0,2.0,-7.0,7.0,12932.0,-9953.0,-770.0,1241.0,184.0,32.0,-3.0,1.0
2022-05-23 16:03:18.890403-07:00,1281.0,761.2,1539.4,1366.6,1050.4,900.0,1878.1,1329.6,3478.3,3472.2,1059.1,821.9,1592.7,3467.4,1358.5,1169.1,3473.4,3467.4,1512.5,2055.4,2640.6,3497.8,1533.8,3492.9,3478.3,3481.9,683.1,814.4,1760.8,1043.5,1019.4,914.4,12.0,37.0,-21.0,13314.0,-9059.0,615.0,2956.0,64.0,8.0,96.0,3.0,-5.0,-4.0,12973.0,-9902.0,-752.0,1237.0,97.0,33.0,19.0,1.0
2022-05-23 16:03:18.950560-07:00,1295.4,768.7,1539.4,1366.6,1039.2,888.2,1878.1,1329.6,3469.8,3468.6,1059.1,821.9,1579.6,3457.6,1358.5,1169.1,3473.4,3467.4,1510.6,2052.4,2640.6,3497.8,1532.0,3481.9,3478.3,3481.9,685.6,817.7,1760.8,1043.5,1015.9,905.9,26.0,21.0,-4.0,13310.0,-9056.0,628.0,2976.0,-20.0,16.0,47.0,7.0,-4.0,4.0,12978.0,-9896.0,-746.0,1238.0,4.0,-6.0,4.0,1.0
2022-05-23 16:03:18.951833-07:00,1295.4,768.7,1507.8,1351.2,1039.2,888.2,1868.4,1344.9,3469.8,3468.6,1064.3,821.9,1579.6,3457.6,1359.4,1162.1,3468.6,3477.1,1510.6,2052.4,2635.1,3492.9,1532.0,3481.9,3467.4,3474.6,685.6,817.7,1751.2,1041.8,1015.9,905.9,10.0,17.0,10.0,13306.0,-9059.0,638.0,2984.0,-7.0,14.0,8.0,6.0,-9.0,8.0,12977.0,-9896.0,-747.0,1237.0,-16.0,3.0,-1.0,1.0
2022-05-23 16:03:18.980334-07:00,1298.1,757.9,1507.8,1351.2,1041.8,883.1,1868.4,1344.9,3478.3,3464.9,1064.3,821.9,1590.8,3462.5,1359.4,1162.1,3468.6,3477.1,1513.4,2057.4,2635.1,3492.9,1523.6,3491.7,3467.4,3474.6,671.7,815.2,1751.2,1041.8,1009.0,890.7,12.0,21.0,11.0,13307.0,-9058.0,652.0,2978.0,-1.0,74.0,25.0,4.0,-10.0,11.0,12974.0,-9902.0,-746.0,1235.0,-25.0,14.0,3.0,1.0
2022-05-23 16:03:19.010380-07:00,1298.1,757.9,1503.2,1345.8,1041.8,883.1,1853.7,1304.3,3478.3,3464.9,1064.3,825.2,1590.8,3462.5,1345.8,1160.3,3463.7,3474.6,1513.4,2057.4,2633.0,3494.1,1523.6,3491.7,3468.6,3475.9,671.7,815.2,1759.8,1041.8,1009.0,890.7,18.0,29.0,1.0,13300.0,-9069.0,684.0,2971.0,-68.0,94.0,30.0,0.0,1.0,2.0,12963.0,-9916.0,-743.0,1235.0,-72.0,1.0,12.0,1.0
2022-05-23 16:03:19.100388-07:00,1290.9,760.4,1503.2,1345.8,1035.7,884.8,1853.7,1304.3,3461.3,3468.6,1064.3,825.2,1589.9,3462.5,1345.8,1160.3,3463.7,3474.6,1516.2,2060.5,2633.0,3494.1,1530.1,3478.3,3468.6,3475.9,676.6,815.2,1759.8,1041.8,1000.5,904.2,20.0,30.0,8.0,13268.0,-9119.0,729.0,2948.0,-197.0,227.0,29.0,9.0,-4.0,0.0,12923.0,-9967.0,-752.0,1236.0,-208.0,-17.0,4.0,1.0
2022-05-23 16:03:19.130339-07:00,1290.9,760.4,1500.4,1334.1,1035.7,875.5,1845.0,1307.0,3461.3,3468.6,1065.1,822.7,1589.9,3464.9,1354.0,1157.7,3471.0,3474.6,1514.3,2060.5,2629.7,3490.5,1530.1,3478.3,3467.4,3478.3,672.5,815.2,1752.1,1040.1,1000.5,904.2,5.0,32.0,16.0,13204.0,-9222.0,799.0,2900.0,-380.0,277.0,20.0,1.0,5.0,20.0,12843.0,-10069.0,-763.0,1234.0,-383.0,-4.0,14.0,1.0
2022-05-23 16:03:19.190349-07:00,1284.6,767.8,1487.5,1334.1,1053.9,875.5,1845.0,1307.0,3472.2,3467.4,1074.7,822.7,1588.9,3464.9,1354.0,1157.7,3471.0,3474.6,1514.3,2052.4,2629.7,3499.0,1530.1,3489.2,3467.4,3478.3,672.5,812.7,1752.1,1037.5,1007.3,908.4,20.0,39.0,21.0,13079.0,-9411.0,875.0,2837.0,-685.0,411.0,-2.0,-2.0,2.0,4.0,12702.0,-10246.0,-776.0,1229.0,-637.0,-1.0,20.0,1.0
2022-05-23 16:03:19.221111-07:00,1284.6,767.8,1487.5,1325.0,1053.9,878.0,1865.4,1318.7,3472.2,3467.4,1074.7,818.5,1588.9,3464.9,1345.8,1162.1,3471.0,3467.4,1522.7,2052.4,2624.3,3499.0,1530.1,3489.2,3475.9,3480.7,675.0,812.7,1744.5,1037.5,1007.3,908.4,16.0,47.0,11.0,12868.0,-9716.0,972.0,2738.0,-1026.0,522.0,3.0,5.0,12.0,22.0,12485.0,-10509.0,-795.0,1218.0,-912.0,12.0,27.0,1.0
2022-05-23 16:03:19.280236-07:00,1298.1,770.3,1484.7,1325.0,1039.2,878.0,1865.4,1318.7,3471.0,3468.6,1076.4,818.5,1592.7,3464.9,1345.8,1162.1,3471.0,3467.4,1522.7,2049.4,2624.3,3484.4,1523.6,3483.2,3475.9,3480.7,675.0,809.4,1744.5,1036.6,1004.8,898.3,28.0,58.0,4.0,12560.0,-10135.0,1061.0,2617.0,-1335.0,579.0,-108.0,3.0,3.0,2.0,12173.0,-10869.0,-818.0,1205.0,-1232.0,-8.0,40.0,1.0
2022-05-23 16:03:19.370314-07:00,1298.1,770.3,1484.7,1329.6,1039.2,881.4,1832.3,1303.4,3471.0,3468.6,1076.4,828.5,1592.7,3468.6,1344.0,1160.3,3478.3,3468.6,1515.3,2049.4,2624.3,3484.4,1523.6,3483.2,3473.4,3474.6,666.0,809.4,1746.4,1036.6,1004.8,898.3,11.0,19.0,-4.0,12138.0,-10666.0,1118.0,2464.0,-1565.0,548.0,-154.0,3.0,-23.0,-1.0,11763.0,-11310.0,-854.0,1191.0,-1442.0,-9.0,56.0,1.0
2022-05-23 16:03:19.372951-07:00,1279.2,771.1,1481.0,1329.6,1042.6,881.4,1832.3,1303.4,3468.6,3462.5,1088.6,831.1,1586.1,3468.6,1344.0,1160.3,3478.3,3468.6,1515.3,2043.4,2617.8,3492.9,1521.8,3485.6,3473.4,3474.6,666.0,806.9,1752.1,1048.7,1013.3,906.7,12.0,30.0,-20.0,11698.0,-11181.0,1144.0,2294.0,-1447.0,522.0,-229.0,3.0,-2.0,-3.0,11331.0,-11743.0,-885.0,1172.0,-1390.0,4.0,33.0,1.0
2022-05-23 16:03:19.430227-07:00,1279.2,771.1,1481.0,1329.6,1041.8,870.5,1815.8,1302.5,3468.6,3462.5,1088.6,831.1,1591.7,3464.9,1346.7,1167.4,3473.4,3464.9,1522.7,2048.4,2617.8,3492.9,1521.8,3485.6,3467.4,3473.4,666.8,805.2,1752.1,1048.7,1013.3,906.7,1.0,5.0,-24.0,11296.0,-11621.0,1142.0,2118.0,-1115.0,388.0,-212.0,0.0,-11.0,7.0,10938.0,-12110.0,-913.0,1145.0,-1112.0,28.0,18.0,1.0
2022-05-23 16:03:19.460428-07:00,1277.4,754.6,1470.9,1335.0,1041.8,870.5,1815.8,1302.5,3464.9,3461.3,1091.2,852.8,1591.7,3464.9,1346.7,1167.4,3473.4,3464.9,1522.7,2048.4,2617.8,3489.2,1519.9,3488.0,3467.4,3473.4,666.8,805.2,1748.3,1052.2,1021.9,897.4,-8.0,-101.0,-37.0,11008.0,-11909.0,1151.0,2024.0,-528.0,172.0,204.0,-2.0,-33.0,5.0,10698.0,-12324.0,-914.0,1123.0,-417.0,48.0,54.0,1.0
2022-05-23 16:03:19.520326-07:00,1277.4,754.6,1470.9,1335.0,1024.5,869.6,1801.3,1300.7,3464.9,3461.3,1091.2,852.8,1592.7,3464.9,1347.6,1163.8,3475.9,3473.4,1515.3,2034.4,2617.8,3489.2,1519.9,3488.0,3480.7,3467.4,663.6,807.7,1748.3,1052.2,1021.9,897.4,25.0,-3.0,-61.0,10940.0,-11939.0,1294.0,2130.0,221.0,-86.0,568.0,10.0,-21.0,-35.0,10750.0,-12281.0,-860.0,1143.0,372.0,31.0,140.0,1.0
2022-05-23 16:03:19.610277-07:00,1273.9,762.0,1485.6,1318.7,1024.5,869.6,1801.3,1300.7,3463.7,3461.3,1092.9,849.5,1592.7,3464.9,1347.6,1163.8,3475.9,3473.4,1515.3,2034.4,2617.8,3484.4,1527.3,3485.6,3480.7,3467.4,663.6,807.7,1752.1,1054.8,1018.5,905.9,59.0,120.0,-26.0,10935.0,-11903.0,1408.0,2281.0,-263.0,-28.0,200.0,5.0,48.0,-40.0,10787.0,-12246.0,-834.0,1186.0,-95.0,-78.0,47.0,1.0
2022-05-23 16:03:19.613633-07:00,1273.9,762.0,1485.6,1318.7,1029.7,860.4,1790.7,1296.3,3463.7,3461.3,1092.9,849.5,1588.9,3461.3,1355.8,1166.5,3462.5,3474.6,1506.9,2040.4,2617.8,3484.4,1527.3,3485.6,3471.0,3469.8,656.2,805.2,1752.1,1054.8,1018.5,905.9,-6.0,2.0,25.0,10836.0,-11981.0,1418.0,2337.0,-123.0,-95.0,52.0,3.0,-23.0,29.0,10738.0,-12285.0,-861.0,1212.0,-54.0,-69.0,-3.0,1.0
2022-05-23 16:03:19.670331-07:00,1278.3,762.0,1458.9,1330.5,1029.7,860.4,1790.7,1299.8,3466.1,3471.0,1101.7,852.8,1588.9,3461.3,1355.8,1167.4,3467.4,3474.6,1506.9,2040.4,2622.1,3481.9,1522.7,3492.9,3473.4,3469.8,656.2,805.2,1744.5,1055.6,1023.7,904.2,20.0,36.0,28.0,10838.0,-11974.0,1404.0,2373.0,72.0,-22.0,-9.0,4.0,2.0,13.0,10755.0,-12268.0,-874.0,1224.0,71.0,-43.0,-20.0,1.0
