Time,P0,P1,P2,P3,P4,P5,P6,P7,P8,P9,P10,P11,P12,P13,P14,P15,P16,P17,P18,P19,P20,P21,P22,P23,P24,P25,P26,P27,P28,P29,P30,P31,ECG,AX0,AY0,AZ0,QW0,QX0,QY0,QZ0,GX0,GY0,GZ0,AX1,AY1,AZ1,QW1,QX1,QY1,QZ1,GX1,GY1,GZ1
2022-05-23 15:58:03.326263-07:00,1237.3,812.7,1073.8,987.6,951.7,836.9,1689.1,1218.6,3472.2,3473.4,1106.9,854.5,1794.5,3463.7,1170.0,1165.6,3462.5,3479.5,1535.7,2083.6,2777.9,3495.3,1587.1,3486.8,3471.0,3483.2,653.8,751.3,1891.8,992.7,950.0,864.6,6.0,-3.0,0.0,10205.0,-12578.0,1455.0,1988.0,-27.0,11.0,7.0,10.0,0.0,3.0,9402.0,-13253.0,1791.0,-1092.0,-20.0,-7.0,0.0,1.0
2022-05-23 15:58:03.386303-07:00,1238.2,801.9,1074.7,979.9,951.7,836.9,1689.1,1223.9,3472.2,3466.1,1102.5,863.7,1794.5,3463.7,1170.0,1169.1,3464.9,3479.5,1535.7,2083.6,2776.8,3491.7,1596.4,3488.0,3473.4,3483.2,653.8,751.3,1887.9,993.6,953.4,859.5,1.0,-3.0,5.0,10205.0,-12579.0,1456.0,1989.0,14.0,1.0,7.0,7.0,1.0,5.0,9401.0,-13254.0,1791.0,-1092.0,14.0,6.0,6.0,1.0
2022-05-23 15:58:03.387253-07:00,1251.5,801.9,1074.7,979.9,939.8,845.3,1685.3,1223.9,3471.0,3466.1,1102.5,863.7,1795.5,3469.8,1170.9,1169.1,3464.9,3477.1,1539.4,2080.6,2776.8,3491.7,1596.4,3497.8,3473.4,3467.4,646.5,752.1,1887.9,993.6,953.4,865.4,-2.0,-2.0,-2.0,10205.0,-12578.0,1458.0,1987.0,-12.0,18.0,0.0,1.0,0.0,4.0,9401.0,-13254.0,1791.0,-1092.0,-18.0,2.0,1.0,1.0
2022-05-23 15:58:03.446280-07:00,1251.5,812.7,1073.8,983.3,939.8,845.3,1685.3,1209.7,3471.0,3460.1,1099.9,856.2,1795.5,3469.8,1170.9,1162.1,3477.1,3477.1,1539.4,2080.6,2762.4,3490.5,1597.4,3497.8,3477.1,3467.4,646.5,752.1,1884.0,979.0,950.9,865.4,-3.0,-5.0,-3.0,10203.0,-12580.0,1460.0,1984.0,5.0,4.0,3.0,3.0,-1.0,6.0,9399.0,-13255.0,1792.0,-1092.0,4.0,3.0,8.0,1.0
2022-05-23 15:58:03.506417-07:00,1246.2,812.7,1073.8,983.3,944.1,843.6,1691.0,1209.7,3471.0,3460.1,1099.9,856.2,1799.4,3474.6,1171.8,1162.1,3477.1,3486.8,1540.3,2087.6,2762.4,3490.5,1597.4,3496.6,3477.1,3483.2,651.4,750.5,1884.0,979.0,950.9,860.4,2.0,0.0,-6.0,10208.0,-12576.0,1460.0,1983.0,12.0,6.0,-10.0,2.0,7.0,2.0,9400.0,-13254.0,1792.0,-1093.0,3.0,0.0,0.0,1.0
2022-05-23 15:58:03.536422-07:00,1246.2,801.0,1075.6,984.2,944.1,843.6,1691.0,1218.6,3471.0,3473.4,1102.5,852.0,1799.4,3474.6,1171.8,1165.6,3466.1,3486.8,1540.3,2087.6,2758.0,3490.5,1593.6,3496.6,3478.3,3483.2,651.4,750.5,1904.6,988.5,960.2,860.4,0.0,-6.0,-1.0,10211.0,-12575.0,1457.0,1980.0,19.0,9.0,-13.0,3.0,0.0,4.0,9402.0,-13253.0,1791.0,-1093.0,12.0,2.0,-1.0,1.0
2022-05-23 15:58:03.626773-07:00,1236.4,801.0,1075.6,984.2,944.1,841.1,1669.1,1218.6,3475.9,3473.4,1102.5,852.0,1790.7,3473.4,1171.8,1165.6,3466.1,3467.4,1544.1,2085.6,2758.0,3490.5,1593.6,3490.5,3478.3,3475.9,652.2,751.3,1904.6,988.5,960.2,856.2,-2.0,-8.0,-3.0,10216.0,-12571.0,1456.0,1978.0,15.0,-6.0,-1.0,6.0,0.0,5.0,9407.0,-13249.0,1791.0,-1094.0,15.0,-5.0,2.0,1.0
2022-05-23 15:58:03.686358-07:00,1236.4,797.7,1079.9,993.6,944.1,841.1,1710.0,1219.5,3475.9,3477.1,1103.4,862.1,1790.7,3473.4,1170.9,1170.9,3483.2,3464.9,1544.1,2085.6,2775.7,3492.9,1593.6,3490.5,3479.5,3475.9,652.2,751.3,1888.9,996.2,948.3,856.2,0.0,-3.0,0.0,10218.0,-12569.0,1454.0,1980.0,-7.0,-4.0,-3.0,4.0,0.0,3.0,9409.0,-13248.0,1791.0,-1094.0,3.0,-5.0,-5.0,1.0
2022-05-23 15:58:03.716259-07:00,1246.2,805.2,1079.9,993.6,939.0,836.9,1710.0,1219.5,3478.3,3473.4,1103.4,862.1,1789.7,3473.4,1170.9,1170.9,3483.2,3464.9,1539.4,2083.6,2775.7,3492.9,1592.7,3485.6,3479.5,3475.9,648.9,752.9,1888.9,996.2,956.0,858.7,4.0,-6.0,-3.0,10220.0,-12567.0,1452.0,1983.0,17.0,-16.0,-12.0,6.0,5.0,3.0,9410.0,-13247.0,1791.0,-1094.0,9.0,-9.0,-5.0,1.0
2022-05-23 15:58:03.746842-07:00,1246.2,805.2,1082.5,988.5,939.0,836.9,1691.9,1221.3,3478.3,3473.4,1105.1,857.9,1789.7,3473.4,1165.6,1163.8,3477.1,3483.2,1539.4,2083.6,2775.7,3494.1,1592.7,3485.6,3483.2,3467.4,648.9,752.9,1879.1,994.5,956.0,858.7,5.0,2.0,-6.0,10229.0,-12562.0,1443.0,1982.0,27.0,-13.0,-25.0,6.0,7.0,-4.0,9416.0,-13243.0,1788.0,-1093.0,24.0,-9.0,-10.0,1.0
2022-05-23 15:58:03.806280-07:00,1239.9,798.5,1082.5,988.5,940.7,836.9,1691.9,1221.3,3467.4,3464.9,1105.1,857.9,1792.6,3478.3,1165.6,1163.8,3477.1,3483.2,1542.2,2075.5,2775.7,3494.1,1591.7,3489.2,3483.2,3467.4,645.7,750.5,1879.1,994.5,947.5,864.6,-1.0,-7.0,-10.0,10239.0,-12557.0,1430.0,1973.0,1.0,-18.0,-34.0,4.0,0.0,3.0,9420.0,-13242.0,1776.0,-1093.0,2.0,-22.0,-25.0,1.0
2022-05-23 15:58:03.836555-07:00,1239.9,798.5,1090.3,982.5,940.7,836.9,1687.2,1214.2,3467.4,3464.9,1100.8,857.9,1792.6,3478.3,1160.3,1168.2,3471.0,3477.1,1542.2,2075.5,2784.6,3494.1,1591.7,3489.2,3478.3,3483.2,645.7,750.5,1892.8,992.7,947.5,864.6,0.0,-19.0,9.0,10241.0,-12556.0,1414.0,1978.0,3.0,-28.0,2.0,6.0,-8.0,9.0,9423.0,-13241.0,1766.0,-1090.0,15.0,-15.0,-6.0,1.0
2022-05-23 15:58:03.896263-07:00,1248.0,803.5,1077.3,982.5,942.4,841.1,1687.2,1214.2,3462.5,3475.9,1097.3,857.9,1796.5,3463.7,1160.3,1168.2,3471.0,3477.1,1545.0,2075.5,2784.6,3489.2,1599.3,3494.1,3478.3,3483.2,647.3,748.8,1892.8,994.5,954.3,866.3,-1.0,-7.0,10.0,10241.0,-12555.0,1413.0,1983.0,-11.0,0.0,16.0,6.0,0.0,17.0,9426.0,-13240.0,1765.0,-1088.0,-1.0,-9.0,7.0,1.0
2022-05-23 15:58:03.956357-07:00,1248.0,803.5,1077.3,992.7,942.4,847.0,1691.0,1220.4,3462.5,3475.9,1097.3,862.1,1796.5,3474.6,1160.3,1166.5,3475.9,3469.8,1528.3,2075.5,2781.2,3489.2,1599.3,3494.1,3480.7,3467.4,647.3,748.8,1884.0,994.5,954.3,866.3,5.0,5.0,10.0,10240.0,-12555.0,1416.0,1985.0,-7.0,5.0,-13.0,6.0,5.0,7.0,9425.0,-13241.0,1765.0,-1088.0,-15.0,3.0,-4.0,1.0
2022-05-23 15:58:03.986415-07:00,1233.7,783.6,1088.6,992.7,951.7,847.0,1691.0,1220.4,3467.4,3461.3,1090.3,862.1,1788.7,3474.6,1160.3,1166.5,3475.9,3469.8,1528.3,2079.5,2781.2,3492.9,1595.5,3486.8,3480.7,3467.4,647.3,749.6,1884.0,984.2,963.7,856.2,-9.0,-6.0,-6.0,10240.0,-12557.0,1417.0,1975.0,18.0,14.0,-13.0,-2.0,-2.0,4.0,9420.0,-13243.0,1767.0,-1090.0,9.0,12.0,-5.0,1.0
2022-05-23 15:58:04.046339-07:00,1233.7,783.6,1088.6,986.7,951.7,837.7,1673.8,1219.5,3467.4,3461.3,1090.3,860.4,1788.7,3469.8,1167.4,1166.5,3464.9,3468.6,1545.0,2079.5,2769.0,3492.9,1595.5,3486.8,3467.4,3468.6,653.8,749.6,1883.0,984.2,963.7,856.2,1.0,0.0,-17.0,10242.0,-12556.0,1411.0,1969.0,-7.0,-9.0,-30.0,2.0,6.0,-3.0,9417.0,-13245.0,1767.0,-1090.0,-16.0,-8.0,-10.0,1.0
2022-05-23 15:58:04.106266-07:00,1242.6,801.9,1085.1,986.7,947.5,837.7,1673.8,1219.5,3472.2,3466.1,1099.9,860.4,1785.8,3469.8,1167.4,1166.5,3464.9,3468.6,1545.0,2080.6,2769.0,3491.7,1592.7,3491.7,3467.4,3468.6,653.8,750.5,1883.0,986.7,953.4,864.6,0.0,-6.0,-7.0,10241.0,-12560.0,1393.0,1965.0,-15.0,-36.0,-35.0,10.0,-7.0,11.0,9416.0,-13249.0,1754.0,-1087.0,-17.0,-24.0,-27.0,1.0
2022-05-23 15:58:04.195974-07:00,1242.6,801.9,1085.1,999.6,947.5,843.6,1679.5,1209.7,3472.2,3466.1,1099.9,865.4,1785.8,3473.4,1171.8,1172.6,3485.6,3474.6,1544.1,2080.6,2766.8,3491.7,1592.7,3491.7,3472.2,3477.1,652.2,750.5,1891.8,986.7,953.4,864.6,3.0,-9.0,6.0,10244.0,-12559.0,1364.0,1979.0,34.0,-55.0,-15.0,9.0,1.0,4.0,9424.0,-13245.0,1734.0,-1081.0,39.0,-43.0,-23.0,1.0
2022-05-23 15:58:04.196948-07:00,1239.9,801.0,1093.8,988.5,943.2,843.6,1679.5,1209.7,3472.2,3478.3,1100.8,863.7,1790.7,3473.4,1171.8,1172.6,3485.6,3474.6,1544.1,2111.8,2773.5,3492.9,1595.5,3489.2,3472.2,3477.1,652.2,748.0,1892.8,995.3,953.4,858.7,0.0,-8.0,19.0,10253.0,-12551.0,1348.0,1990.0,6.0,-24.0,-15.0,8.0,-6.0,17.0,9434.0,-13241.0,1721.0,-1077.0,15.0,-13.0,-10.0,1.0
2022-05-23 15:58:04.256174-07:00,1239.9,801.0,1093.8,988.5,950.0,844.4,1666.3,1212.4,3472.2,3478.3,1100.8,863.7,1787.8,3474.6,1164.7,1160.3,3478.3,3480.7,1538.5,2081.6,2773.5,3492.9,1595.5,3489.2,3469.8,3475.9,648.1,749.6,1892.8,995.3,953.4,858.7,0.0,-11.0,16.0,10253.0,-12552.0,1344.0,1992.0,-23.0,14.0,11.0,5.0,-4.0,15.0,9433.0,-13242.0,1720.0,-1077.0,-19.0,3.0,2.0,1.0
2022-05-23 15:58:04.286092-07:00,1244.4,800.2,1091.2,1000.5,950.0,844.4,1666.3,1212.4,3464.9,3462.5,1097.3,859.5,1787.8,3474.6,1164.7,1160.3,3478.3,3480.7,1538.5,2081.6,2774.6,3490.5,1588.9,3497.8,3469.8,3475.9,648.1,749.6,1879.1,992.7,952.6,863.7,0.0,-1.0,2.0,10251.0,-12553.0,1354.0,1981.0,-10.0,49.0,4.0,4.0,2.0,7.0,9430.0,-13243.0,1724.0,-1082.0,-12.0,21.0,5.0,1.0
2022-05-23 15:58:04.346364-07:00,1244.4,800.2,1091.2,1000.5,949.2,845.3,1668.2,1199.1,3464.9,3462.5,1097.3,859.5,1782.9,3468.6,1170.0,1168.2,3471.0,3464.9,1536.6,2068.5,2774.6,3490.5,1588.9,3497.8,3474.6,3478.3,643.2,746.3,1879.1,992.7,952.6,863.7,1.0,-6.0,-13.0,10249.0,-12556.0,1364.0,1971.0,-8.0,18.0,13.0,3.0,4.0,-4.0,9427.0,-13244.0,1729.0,-1088.0,-8.0,13.0,3.0,1.0
2022-05-23 15:58:04.406368-07:00,1247.1,798.5,1105.1,996.2,949.2,845.3,1668.2,1199.1,3469.8,3480.7,1098.2,857.0,1782.9,3468.6,1170.0,1168.2,3471.0,3464.9,1536.6,2068.5,2769.0,3484.4,1602.1,3486.8,3474.6,3478.3,643.2,746.3,1884.0,982.5,955.1,859.5,3.0,-3.0,-8.0,10245.0,-12559.0,1377.0,1965.0,3.0,32.0,10.0,7.0,2.0,-1.0,9426.0,-13244.0,1731.0,-1091.0,7.0,9.0,3.0,1.0
2022-05-23 15:58:04.436414-07:00,1250.6,798.5,1105.1,996.2,944.9,841.9,1685.3,1204.4,3464.9,3480.7,1098.2,857.0,1791.6,3464.9,1163.0,1156.8,3471.0,3473.4,1528.3,2083.6,2769.0,3484.4,1602.1,3486.8,3466.1,3479.5,647.3,750.5,1884.0,982.5,955.1,860.4,-1.0,2.0,-10.0,10248.0,-12557.0,1378.0,1961.0,7.0,-14.0,-10.0,4.0,7.0,4.0,9430.0,-13241.0,1731.0,-1092.0,9.0,-3.0,-7.0,1.0
2022-05-23 15:58:04.496406-07:00,1250.6,810.2,1095.6,986.7,944.9,841.9,1685.3,1210.6,3464.9,3468.6,1099.0,857.9,1791.6,3464.9,1163.0,1170.9,3474.6,3473.4,1528.3,2083.6,2773.5,3496.6,1595.5,3486.8,3474.6,3479.5,647.3,750.5,1886.0,985.0,952.6,860.4,0.0,-10.0,0.0,10249.0,-12555.0,1372.0,1968.0,16.0,-20.0,-8.0,8.0,-1.0,1.0,9432.0,-13241.0,1726.0,-1090.0,17.0,-15.0,-7.0,1.0
2022-05-23 15:58:04.556210-07:00,1240.8,810.2,1095.6,986.7,956.8,842.8,1671.0,1210.6,3466.1,3468.6,1099.0,857.9,1791.6,3469.8,1164.7,1170.9,3474.6,3479.5,1534.8,2078.5,2773.5,3496.6,1595.5,3490.5,3474.6,3474.6,647.3,744.7,1886.0,985.0,952.6,859.5,2.0,-8.0,5.0,10251.0,-12554.0,1366.0,1971.0,-14.0,1.0,2.0,8.0,-3.0,3.0,9433.0,-13240.0,1725.0,-1090.0,-12.0,-7.0,-4.0,1.0
2022-05-23 15:58:04.586640-07:00,1240.8,801.0,1098.2,989.3,956.8,842.8,1671.0,1213.3,3466.1,3472.2,1098.2,857.0,1791.6,3469.8,1164.7,1169.1,3480.7,3479.5,1534.8,2078.5,2767.9,3497.8,1593.6,3490.5,3466.1,3474.6,647.3,744.7,1884.0,982.5,951.7,859.5,-2.0,-3.0,1.0,10251.0,-12554.0,1366.0,1971.0,6.0,-3.0,-8.0,3.0,0.0,10.0,9433.0,-13240.0,1725.0,-1090.0,0.0,-1.0,6.0,1.0
2022-05-23 15:58:04.646849-07:00,1245.3,801.0,1098.2,989.3,947.5,834.4,1673.8,1213.3,3473.4,3472.2,1098.2,857.0,1784.9,3467.4,1163.8,1169.1,3480.7,3469.8,1540.3,2081.6,2767.9,3497.8,1593.6,3496.6,3466.1,3473.4,648.1,744.7,1884.0,982.5,951.7,858.7,0.0,-4.0,4.0,10251.0,-12554.0,1366.0,1972.0,-4.0,-2.0,4.0,8.0,0.0,6.0,9432.0,-13241.0,1725.0,-1089.0,-7.0,5.0,4.0,1.0
2022-05-23 15:58:04.706594-07:00,1245.3,805.2,1096.4,989.3,947.5,834.4,1673.8,1216.0,3473.4,3468.6,1100.8,860.4,1784.9,3467.4,1163.8,1169.1,3472.2,3469.8,1540.3,2081.6,2766.8,3492.9,1593.6,3496.6,3483.2,3473.4,648.1,744.7,1889.9,991.0,950.0,858.7,-1.0,-8.0,-4.0,10250.0,-12555.0,1368.0,1969.0,2.0,4.0,-3.0,7.0,-1.0,4.0,9430.0,-13242.0,1725.0,-1089.0,-1.0,5.0,5.0,1.0
2022-05-23 15:58:04.736814-07:00,1254.2,811.0,1096.4,989.3,943.2,843.6,1680.5,1216.0,3480.7,3468.6,1100.8,860.4,1786.8,3468.6,1177.0,1169.1,3472.2,3469.8,1541.3,2083.6,2766.8,3492.9,1595.5,3489.2,3483.2,3478.3,645.7,749.6,1889.9,991.0,956.8,863.7,-2.0,-1.0,-6.0,10252.0,-12553.0,1368.0,1970.0,1.0,-15.0,3.0,4.0,3.0,3.0,9432.0,-13240.0,1725.0,-1089.0,4.0,-1.0,4.0,1.0
2022-05-23 15:58:04.796270-07:00,1254.2,811.0,1090.3,993.6,943.2,843.6,1669.1,1207.1,3480.7,3468.6,1099.9,859.5,1786.8,3468.6,1162.1,1183.2,3479.5,3475.9,1541.3,2083.6,2774.6,3499.0,1595.5,3489.2,3467.4,3480.7,645.7,749.6,1888.9,991.0,956.8,863.7,4.0,-6.0,-1.0,10253.0,-12552.0,1361.0,1978.0,7.0,-28.0,6.0,8.0,2.0,6.0,9432.0,-13240.0,1725.0,-1089.0,8.0,-10.0,9.0,1.0
2022-05-23 15:58:04.856281-07:00,1245.3,797.7,1090.3,993.6,945.8,832.7,1669.1,1207.1,3456.4,3466.1,1099.9,859.5,1793.6,3467.4,1162.1,1183.2,3479.5,3475.9,1545.9,2086.6,2774.6,3499.0,1591.7,3489.2,3467.4,3480.7,653.8,750.5,1888.9,991.0,953.4,860.4,2.0,-2.0,2.0,10251.0,-12553.0,1355.0,1985.0,-14.0,-12.0,-5.0,5.0,0.0,5.0,9433.0,-13241.0,1723.0,-1086.0,-19.0,-6.0,-1.0,1.0
2022-05-23 15:58:04.916282-07:00,1245.3,797.7,1089.5,988.5,945.8,832.7,1671.0,1215.1,3456.4,3466.1,1094.7,864.6,1793.6,3467.4,1168.2,1158.6,3464.9,3480.7,1545.9,2086.6,2780.1,3496.6,1591.7,3489.2,3468.6,3478.3,653.8,750.5,1880.1,987.6,953.4,860.4,-6.0,-6.0,4.0,10255.0,-12550.0,1351.0,1985.0,20.0,-9.0,-7.0,-2.0,0.0,4.0,9430.0,-13242.0,1723.0,-1086.0,21.0,-3.0,-2.0,1.0
2022-05-23 15:58:04.946398-07:00,1244.4,805.2,1089.5,988.5,939.8,841.9,1671.0,1215.1,3466.1,3475.9,1094.7,864.6,1788.7,3457.6,1168.2,1158.6,3464.9,3480.7,1536.6,2089.6,2780.1,3496.6,1599.3,3485.6,3468.6,3478.3,650.5,745.5,1880.1,987.6,945.8,868.8,-1.0,4.0,-23.0,10255.0,-12550.0,1351.0,1985.0,-35.0,7.0,3.0,7.0,0.0,4.0,9433.0,-13240.0,1723.0,-1086.0,-20.0,5.0,5.0,1.0
2022-05-23 15:58:05.006427-07:00,1244.4,805.2,1098.2,982.5,939.8,833.6,1688.1,1195.6,3466.1,3475.9,1103.4,854.5,1788.7,3474.6,1171.8,1170.0,3463.7,3472.2,1536.6,2089.6,2777.9,3492.9,1599.3,3485.6,3473.4,3479.5,647.3,745.5,1885.0,1000.5,945.8,868.8,5.0,-8.0,-3.0,10255.0,-12550.0,1359.0,1980.0,13.0,14.0,10.0,13.0,-1.0,10.0,9429.0,-13243.0,1725.0,-1085.0,12.0,4.0,12.0,1.0
2022-05-23 15:58:05.036724-07:00,1235.5,798.5,1088.6,982.5,938.1,833.6,1688.1,1195.6,3467.4,3464.9,1100.8,854.5,1785.8,3474.6,1171.8,1170.0,3463.7,3472.2,1536.6,2082.6,2777.9,3489.2,1591.7,3496.6,3473.4,3479.5,647.3,745.5,1885.0,989.3,947.5,857.0,3.0,-7.0,0.0,10253.0,-12552.0,1359.0,1980.0,3.0,-1.0,9.0,6.0,0.0,2.0,9431.0,-13242.0,1727.0,-1083.0,3.0,1.0,11.0,1.0
2022-05-23 15:58:05.096359-07:00,1235.5,798.5,1088.6,983.3,938.1,840.3,1675.7,1214.2,3467.4,3464.9,1100.8,862.1,1785.8,3469.8,1165.6,1173.5,3475.9,3467.4,1534.8,2082.6,2770.2,3489.2,1591.7,3496.6,3488.0,3478.3,647.3,745.5,1883.0,989.3,947.5,857.0,-4.0,-3.0,0.0,10254.0,-12551.0,1360.0,1980.0,10.0,6.0,0.0,0.0,0.0,5.0,9432.0,-13241.0,1728.0,-1083.0,8.0,1.0,7.0,1.0
2022-05-23 15:58:05.126317-07:00,1246.2,816.0,1086.8,983.3,944.1,840.3,1675.7,1214.2,3472.2,3466.1,1102.5,862.1,1788.7,3469.8,1165.6,1173.5,3475.9,3467.4,1534.8,2083.6,2770.2,3500.2,1588.9,3494.1,3488.0,3478.3,647.3,748.8,1883.0,991.9,955.1,866.3,-8.0,0.0,-1.0,10258.0,-12547.0,1363.0,1977.0,3.0,-1.0,-7.0,0.0,3.0,8.0,9434.0,-13239.0,1728.0,-1083.0,2.0,3.0,4.0,1.0
2022-05-23 15:58:05.186327-07:00,1246.2,816.0,1086.8,979.9,944.1,833.6,1664.4,1207.1,3472.2,3466.1,1102.5,860.4,1788.7,3468.6,1165.6,1168.2,3478.3,3466.1,1543.1,2083.6,2766.8,3500.2,1588.9,3494.1,3475.9,3474.6,648.9,748.8,1887.9,991.9,955.1,866.3,1.0,-8.0,0.0,10258.0,-12547.0,1362.0,1978.0,0.0,-1.0,2.0,7.0,0.0,1.0,9434.0,-13239.0,1728.0,-1083.0,7.0,7.0,2.0,1.0
2022-05-23 15:58:05.246384-07:00,1239.1,798.5,1086.0,982.5,933.9,833.6,1664.4,1207.1,3473.4,3464.9,1099.9,856.2,1788.7,3468.6,1165.6,1168.2,3478.3,3466.1,1543.1,2087.6,2772.4,3502.7,1589.9,3495.3,3475.9,3474.6,648.9,748.8,1890.9,985.0,943.2,863.7,0.0,-2.0,-2.0,10258.0,-12547.0,1362.0,1978.0,-5.0,-4.0,-8.0,7.0,5.0,7.0,9434.0,-13239.0,1728.0,-1083.0,-12.0,1.0,3.0,1.0
2022-05-23 15:58:05.276903-07:00,1239.1,798.5,1086.0,982.5,948.3,840.3,1679.5,1205.3,3473.4,3464.9,1099.9,856.2,1795.5,3469.8,1170.0,1166.5,3479.5,3478.3,1526.4,2083.6,2772.4,3502.7,1589.9,3495.3,3466.1,3484.4,645.7,752.1,1890.9,985.0,943.2,863.7,-2.0,-7.0,8.0,10252.0,-12553.0,1360.0,1980.0,0.0,1.0,7.0,5.0,1.0,9.0,9428.0,-13244.0,1728.0,-1082.0,-3.0,-2.0,3.0,1.0
2022-05-23 15:58:05.336111-07:00,1240.8,801.9,1095.6,991.0,948.3,840.3,1679.5,1205.3,3478.3,3473.4,1098.2,858.7,1795.5,3469.8,1170.0,1166.5,3479.5,3478.3,1526.4,2083.6,2767.9,3491.7,1588.9,3491.7,3466.1,3484.4,645.7,752.1,1879.1,988.5,947.5,858.7,-3.0,-1.0,0.0,10256.0,-12549.0,1361.0,1979.0,13.0,15.0,-9.0,1.0,2.0,9.0,9433.0,-13240.0,1728.0,-1084.0,10.0,10.0,6.0,1.0
2022-05-23 15:58:05.396461-07:00,1240.8,801.9,1095.6,991.0,936.4,827.7,1673.8,1216.0,3478.3,3473.4,1098.2,858.7,1786.8,3457.6,1169.1,1169.1,3478.3,3477.1,1538.5,2079.5,2767.9,3491.7,1588.9,3491.7,3471.0,3488.0,648.1,744.7,1879.1,988.5,947.5,858.7,-4.0,-22.0,-5.0,10257.0,-12548.0,1363.0,1977.0,36.0,2.0,7.0,4.0,-3.0,-1.0,9434.0,-13239.0,1728.0,-1084.0,21.0,5.0,4.0,1.0
2022-05-23 15:58:05.426499-07:00,1253.3,807.7,1084.2,985.0,936.4,827.7,1673.8,1216.0,3467.4,3468.6,1099.9,861.2,1786.8,3457.6,1169.1,1169.1,3478.3,3477.1,1538.5,2079.5,2766.8,3489.2,1597.4,3490.5,3471.0,3488.0,648.1,744.7,1887.9,985.9,956.8,856.2,1.0,-11.0,-1.0,10262.0,-12544.0,1364.0,1977.0,-12.0,16.0,9.0,6.0,-3.0,2.0,9437.0,-13237.0,1729.0,-1085.0,-13.0,-1.0,0.0,1.0
2022-05-23 15:58:05.517027-07:00,1253.3,807.7,1084.2,985.0,946.6,829.4,1664.4,1225.7,3467.4,3468.6,1099.9,861.2,1788.7,3464.9,1163.8,1167.4,3477.1,3478.3,1542.2,2079.5,2766.8,3489.2,1597.4,3490.5,3480.7,3467.4,647.3,745.5,1887.9,985.9,956.8,856.2,-2.0,0.0,-1.0,10261.0,-12545.0,1366.0,1974.0,-11.0,-11.0,-1.0,3.0,3.0,3.0,9437.0,-13237.0,1729.0,-1085.0,-7.0,4.0,2.0,1.0
2022-05-23 15:58:05.546340-07:00,1249.7,805.2,1089.5,997.0,946.6,829.4,1664.4,1216.8,3473.4,3467.4,1099.9,861.2,1788.7,3464.9,1163.8,1170.9,3473.4,3478.3,1542.2,2079.5,2775.7,3500.2,1595.5,3492.9,3477.1,3467.4,647.3,745.5,1883.0,985.0,949.2,857.9,3.0,2.0,-1.0,10263.0,-12544.0,1361.0,1978.0,6.0,-13.0,-7.0,2.0,6.0,3.0,9438.0,-13236.0,1728.0,-1085.0,11.0,-1.0,-4.0,1.0
2022-05-23 15:58:05.577003-07:00,1244.4,805.2,1089.5,997.0,939.8,836.1,1676.7,1216.8,3471.0,3467.4,1099.9,861.2,1789.7,3483.2,1163.8,1170.9,3473.4,3489.2,1543.1,2082.6,2775.7,3500.2,1595.5,3488.0,3477.1,3478.3,645.7,752.1,1883.0,985.0,949.2,865.4,0.0,-11.0,4.0,10262.0,-12544.0,1360.0,1978.0,-7.0,5.0,-4.0,7.0,0.0,5.0,9437.0,-13237.0,1729.0,-1085.0,-6.0,-2.0,-1.0,1.0
2022-05-23 15:58:05.636828-07:00,1244.4,811.0,1084.2,991.9,939.8,836.1,1676.7,1197.4,3471.0,3478.3,1096.4,855.3,1789.7,3483.2,1163.8,1166.5,3475.9,3489.2,1543.1,2082.6,2769.0,3491.7,1597.4,3488.0,3478.3,3478.3,645.7,752.1,1879.1,986.7,952.6,865.4,1.0,-1.0,0.0,10264.0,-12543.0,1360.0,1978.0,8.0,0.0,2.0,2.0,1.0,6.0,9438.0,-13236.0,1728.0,-1085.0,13.0,1.0,6.0,1.0
2022-05-23 15:58:05.696398-07:00,1241.7,811.0,1084.2,991.9,938.1,835.2,1680.5,1197.4,3479.5,3478.3,1096.4,855.3,1779.1,3464.9,1169.1,1166.5,3475.9,3479.5,1539.4,2078.5,2769.0,3491.7,1597.4,3495.3,3478.3,3474.6,646.5,748.8,1879.1,986.7,952.6,862.1,1.0,-6.0,-1.0,10264.0,-12543.0,1359.0,1979.0,-5.0,-13.0,0.0,9.0,2.0,3.0,9438.0,-13236.0,1728.0,-1085.0,-1.0,-4.0,1.0,1.0
2022-05-23 15:58:05.726441-07:00,1241.7,796.9,1084.2,995.3,938.1,835.2,1680.5,1201.8,3479.5,3463.7,1105.1,862.1,1779.1,3464.9,1169.1,1160.3,3469.8,3479.5,1539.4,2078.5,2764.6,3489.2,1591.7,3495.3,3478.3,3474.6,646.5,748.8,1879.1,988.5,953.4,862.1,-1.0,-5.0,0.0,10264.0,-12543.0,1358.0,1981.0,-3.0,4.0,-5.0,1.0,1.0,2.0,9438.0,-13236.0,1728.0,-1085.0,-6.0,4.0,-1.0,1.0
2022-05-23 15:58:05.786395-07:00,1244.4,811.9,1084.2,995.3,950.0,833.6,1668.2,1201.8,3464.9,3464.9,1105.1,862.1,1780.1,3477.1,1165.6,1160.3,3469.8,3477.1,1534.8,2078.5,2764.6,3489.2,1592.7,3481.9,3478.3,3472.2,648.9,752.9,1879.1,988.5,950.9,856.2,-6.0,-4.0,-1.0,10263.0,-12543.0,1357.0,1981.0,-14.0,-3.0,3.0,0.0,2.0,5.0,9436.0,-13238.0,1729.0,-1085.0,-15.0,4.0,2.0,1.0
2022-05-23 15:58:05.846342-07:00,1244.4,811.9,1087.7,985.0,950.0,833.6,1649.2,1209.7,3464.9,3464.9,1098.2,851.1,1780.1,3477.1,1163.8,1170.0,3478.3,3472.2,1534.8,2078.5,2756.9,3491.7,1592.7,3481.9,3477.1,3468.6,648.9,752.9,1883.0,983.3,950.9,856.2,2.0,0.0,-2.0,10263.0,-12543.0,1358.0,1981.0,25.0,3.0,-12.0,3.0,2.0,7.0,9436.0,-13237.0,1729.0,-1085.0,18.0,5.0,4.0,1.0
2022-05-23 15:58:05.936506-07:00,1238.2,800.2,1087.7,985.0,945.8,839.4,1649.2,1209.7,3474.6,3466.1,1098.2,851.1,1790.7,3478.3,1163.8,1170.0,3478.3,3472.2,1537.6,2106.8,2756.9,3491.7,1587.1,3480.7,3477.1,3468.6,648.1,748.0,1883.0,983.3,953.4,859.5,-3.0,-17.0,1.0,10268.0,-12541.0,1354.0,1976.0,20.0,-3.0,-21.0,4.0,-5.0,6.0,9437.0,-13237.0,1728.0,-1085.0,9.0,4.0,-1.0,1.0
2022-05-23 15:58:05.937422-07:00,1238.2,800.2,1090.3,977.3,945.8,839.4,1671.9,1215.1,3474.6,3466.1,1092.9,862.1,1790.7,3478.3,1160.3,1171.8,3472.2,3474.6,1537.6,2106.8,2774.6,3495.3,1587.1,3480.7,3474.6,3467.4,648.1,748.0,1886.0,987.6,953.4,859.5,-16.0,-31.0,-15.0,10285.0,-12529.0,1343.0,1967.0,119.0,17.0,-66.0,-4.0,-5.0,-1.0,9451.0,-13227.0,1730.0,-1082.0,57.0,-19.0,23.0,1.0
2022-05-23 15:58:06.026319-07:00,1253.3,809.4,1090.3,977.3,946.6,838.6,1671.9,1215.1,3469.8,3469.8,1092.9,862.1,1788.7,3477.1,1160.3,1171.8,3472.2,3474.6,1541.3,2078.5,2774.6,3495.3,1588.9,3481.9,3474.6,3467.4,648.9,758.7,1886.0,987.6,956.0,865.4,-5.0,-55.0,28.0,10370.0,-12467.0,1323.0,1926.0,655.0,74.0,-217.0,7.0,-51.0,-25.0,9537.0,-13167.0,1729.0,-1066.0,450.0,-69.0,68.0,1.0
2022-05-23 15:58:06.027395-07:00,1253.3,809.4,1086.8,988.5,946.6,838.6,1779.1,1250.6,3469.8,3469.8,1104.3,863.7,1788.7,3477.1,1181.5,1166.5,3468.6,3480.7,1541.3,2078.5,2770.2,3500.2,1588.9,3481.9,3467.4,3488.0,648.9,758.7,1888.9,983.3,956.0,865.4,-80.0,-180.0,-60.0,10793.0,-12125.0,1334.0,1769.0,2383.0,9.0,-125.0,-41.0,-66.0,39.0,9953.0,-12860.0,1690.0,-1059.0,1872.0,-132.0,66.0,1.0
2022-05-23 15:58:06.176301-07:00,1248.0,810.2,1114.7,988.5,937.3,823.5,1779.1,1250.6,3478.3,3474.6,1123.5,863.7,1789.7,3467.4,1181.5,1166.5,3468.6,3480.7,1539.4,2103.7,2770.2,3488.0,1595.5,3490.5,3467.4,3488.0,645.7,816.9,1888.9,983.3,944.1,867.1,-55.0,-22.0,-79.0,11598.0,-11335.0,1422.0,1845.0,2082.0,-676.0,612.0,-20.0,-41.0,-43.0,10789.0,-12172.0,1625.0,-1111.0,2404.0,-72.0,141.0,1.0
2022-05-23 15:58:06.177335-07:00,1248.0,810.2,1114.7,1009.9,937.3,828.5,1844.0,1267.6,3478.3,3474.6,1123.5,863.7,1789.7,3472.2,1244.4,1192.0,3478.3,3472.2,1546.9,2103.7,2779.0,3488.0,1595.5,3490.5,3467.4,3475.9,661.1,816.9,1879.1,983.3,944.1,867.1,-6.0,8.0,-81.0,12066.0,-10776.0,1505.0,2110.0,995.0,-295.0,500.0,-31.0,27.0,-70.0,11316.0,-11691.0,1607.0,-1056.0,1065.0,-266.0,287.0,1.0
2022-05-23 15:58:06.179915-07:00,1241.7,811.0,1146.3,1009.9,940.7,828.5,1844.0,1267.6,3468.6,3461.3,1125.2,863.7,1791.6,3472.2,1244.4,1192.0,3478.3,3472.2,1546.9,2122.0,2779.0,3491.7,1588.9,3492.9,3467.4,3475.9,661.1,845.3,1879.1,1003.0,973.1,858.7,9.0,-90.0,-2.0,12358.0,-10380.0,1587.0,2335.0,1730.0,-547.0,479.0,30.0,-32.0,23.0,11683.0,-11338.0,1586.0,-939.0,1518.0,-203.0,305.0,1.0
2022-05-23 15:58:06.266374-07:00,1241.7,811.0,1146.3,1040.1,940.7,836.1,1889.9,1273.9,3468.6,3461.3,1125.2,867.9,1791.6,3464.9,1272.1,1205.3,3474.6,3472.2,1552.5,2122.0,2790.1,3491.7,1588.9,3492.9,3478.3,3467.4,679.1,845.3,1904.6,1003.0,973.1,858.7,80.0,118.0,-75.0,12935.0,-9595.0,1648.0,2519.0,2325.0,-535.0,194.0,35.0,109.0,-14.0,12243.0,-10741.0,1567.0,-853.0,1864.0,-225.0,298.0,1.0
2022-05-23 15:58:06.296375-07:00,1249.7,801.0,1234.6,1040.1,939.0,836.1,1889.9,1273.9,3463.7,3478.3,1119.1,867.9,1791.6,3464.9,1272.1,1205.3,3474.6,3472.2,1552.5,2143.3,2790.1,3495.3,1596.4,3486.8,3478.3,3467.4,679.1,835.2,1904.6,1028.0,1003.9,862.9,70.0,51.0,70.0,13346.0,-8995.0,1606.0,2612.0,932.0,-365.0,-91.0,41.0,22.0,26.0,12573.0,-10366.0,1508.0,-794.0,757.0,-192.0,61.0,1.0
2022-05-23 15:58:06.326380-07:00,1249.7,801.0,1234.6,1116.5,944.9,831.9,1893.8,1281.0,3463.7,3478.3,1119.1,856.2,1786.8,3474.6,1272.1,1199.1,3477.1,3471.0,1551.5,2153.4,2801.2,3495.3,1596.4,3486.8,3475.9,3469.8,692.1,831.9,1889.9,1028.0,1003.9,862.9,-23.0,5.0,51.0,13564.0,-8676.0,1597.0,2574.0,769.0,9.0,-62.0,22.0,-13.0,72.0,12758.0,-10148.0,1453.0,-765.0,555.0,-126.0,44.0,1.0
2022-05-23 15:58:06.386963-07:00,1248.0,821.0,1316.0,1168.2,944.9,831.9,1893.8,1281.0,3472.2,3474.6,1113.0,860.4,1786.8,3474.6,1272.1,1199.1,3477.1,3471.0,1551.5,2153.4,2796.8,3499.0,1588.9,3478.3,3475.9,3469.8,692.1,831.9,1886.9,1034.9,1007.3,865.4,-7.0,48.0,3.0,13731.0,-8433.0,1590.0,2501.0,504.0,-64.0,-224.0,-23.0,45.0,37.0,12864.0,-10017.0,1438.0,-744.0,347.0,-57.0,21.0,1.0
2022-05-23 15:58:06.446344-07:00,1248.0,821.0,1316.0,1168.2,956.8,836.9,1930.2,1332.3,3472.2,3474.6,1113.0,860.4,1785.8,3457.6,1256.0,1195.6,3477.1,3475.9,1547.8,2162.6,2796.8,3499.0,1588.9,3478.3,3466.1,3483.2,688.0,824.4,1886.9,1034.9,1007.3,865.4,-4.0,0.0,0.0,13810.0,-8329.0,1580.0,2418.0,96.0,112.0,-135.0,52.0,16.0,19.0,12924.0,-9942.0,1417.0,-738.0,48.0,-27.0,-19.0,1.0
2022-05-23 15:58:06.476760-07:00,1256.0,810.2,1362.1,1193.8,956.8,836.9,1930.2,1332.3,3473.4,3480.7,1105.1,858.7,1785.8,3457.6,1256.0,1195.6,3477.1,3475.9,1547.8,2162.6,2791.2,3494.1,1594.6,3489.2,3466.1,3483.2,688.0,824.4,1877.2,1030.6,1009.0,861.2,-17.0,-27.0,-5.0,13839.0,-8302.0,1594.0,2336.0,107.0,41.0,-113.0,4.0,11.0,23.0,12936.0,-9928.0,1411.0,-739.0,63.0,3.0,-6.0,1.0
2022-05-23 15:58:06.536888-07:00,1256.0,810.2,1362.1,1193.8,956.8,823.5,1941.0,1356.7,3473.4,3480.7,1105.1,858.7,1787.8,3471.0,1267.6,1200.9,3473.4,3474.6,1545.9,2172.8,2791.2,3494.1,1594.6,3489.2,3468.6,3478.3,698.7,818.5,1877.2,1030.6,1009.0,861.2,-9.0,-8.0,-29.0,13831.0,-8324.0,1589.0,2305.0,-203.0,24.0,-57.0,4.0,2.0,3.0,12928.0,-9939.0,1410.0,-737.0,-166.0,-23.0,-4.0,1.0
2022-05-23 15:58:06.596716-07:00,1252.4,806.9,1406.7,1219.5,956.8,823.5,1941.0,1356.7,3466.1,3469.8,1112.1,860.4,1787.8,3471.0,1267.6,1200.9,3473.4,3474.6,1545.9,2172.8,2797.9,3491.7,1597.4,3484.4,3468.6,3478.3,698.7,818.5,1886.0,1025.4,998.7,854.5,-3.0,-27.0,-34.0,13799.0,-8386.0,1570.0,2286.0,16.0,-32.0,-14.0,1.0,12.0,12.0,12890.0,-9989.0,1404.0,-730.0,-23.0,-22.0,-21.0,1.0
2022-05-23 15:58:06.656286-07:00,1258.7,806.9,1406.7,1219.5,951.7,821.0,1965.7,1396.7,3468.6,3469.8,1112.1,860.4,1787.8,3467.4,1267.6,1200.0,3471.0,3475.9,1572.1,2160.5,2797.9,3491.7,1597.4,3492.9,3471.0,3474.6,693.8,819.4,1886.0,1025.4,998.7,862.9,8.0,-31.0,-8.0,13775.0,-8419.0,1552.0,2320.0,-199.0,-22.0,43.0,3.0,-16.0,-11.0,12877.0,-10007.0,1389.0,-740.0,-90.0,-42.0,-46.0,1.0
2022-05-23 15:58:06.746366-07:00,1258.7,806.9,1407.6,1234.6,951.7,821.0,1965.7,1376.6,3468.6,3471.0,1112.1,859.5,1787.8,3467.4,1267.6,1200.9,3478.3,3475.9,1572.1,2160.5,2782.4,3496.6,1595.5,3492.9,3480.7,3474.6,693.8,819.4,1882.0,1025.4,1001.3,862.9,-18.0,-62.0,7.0,13762.0,-8439.0,1545.0,2330.0,163.0,-77.0,3.0,17.0,-38.0,29.0,12881.0,-10005.0,1369.0,-740.0,155.0,-12.0,7.0,1.0
2022-05-23 15:58:06.776197-07:00,1257.8,806.9,1407.6,1234.6,954.3,822.7,1944.0,1376.6,3455.2,3471.0,1112.1,859.5,1788.7,3478.3,1271.2,1200.9,3478.3,3483.2,1545.9,2158.5,2782.4,3496.6,1595.5,3490.5,3480.7,3475.9,699.5,824.4,1882.0,1025.4,1001.3,867.1,15.0,-3.0,-9.0,13804.0,-8368.0,1534.0,2346.0,121.0,-3.0,6.0,7.0,6.0,-5.0,12920.0,-9955.0,1366.0,-735.0,78.0,-23.0,18.0,1.0
2022-05-23 15:58:06.806941-07:00,1257.8,810.2,1485.6,1290.0,954.3,822.7,1944.0,1398.5,3455.2,3473.4,1113.9,857.9,1788.7,3478.3,1271.2,1203.5,3464.9,3483.2,1545.9,2158.5,2777.9,3491.7,1588.9,3490.5,3484.4,3475.9,699.5,824.4,1876.2,1020.2,1006.5,867.1,-14.0,13.0,-1.0,13827.0,-8334.0,1548.0,2325.0,17.0,89.0,4.0,-3.0,41.0,29.0,12939.0,-9931.0,1362.0,-731.0,12.0,-3.0,-8.0,1.0
2022-05-23 15:58:06.836127-07:00,1246.2,810.2,1485.6,1290.0,962.8,825.2,1936.1,1398.5,3479.5,3473.4,1113.9,857.9,1782.0,3468.6,1267.6,1203.5,3464.9,3468.6,1546.9,2162.6,2777.9,3491.7,1588.9,3484.4,3484.4,3478.3,694.6,818.5,1876.2,1020.2,1006.5,867.9,7.0,-26.0,-24.0,13810.0,-8354.0,1597.0,2318.0,-1.0,76.0,48.0,9.0,-2.0,16.0,12935.0,-9937.0,1361.0,-729.0,-26.0,-20.0,1.0,1.0
2022-05-23 15:58:06.896338-07:00,1246.2,811.0,1530.1,1335.0,962.8,825.2,1947.9,1393.0,3479.5,3466.1,1116.5,858.7,1782.0,3468.6,1270.3,1197.4,3467.4,3474.6,1546.9,2162.6,2770.2,3490.5,1587.1,3484.4,3477.1,3466.1,694.6,818.5,1880.1,1033.2,1001.3,867.9,7.0,3.0,-14.0,13808.0,-8356.0,1603.0,2318.0,-74.0,-11.0,-18.0,14.0,17.0,2.0,12934.0,-9939.0,1356.0,-728.0,-23.0,-7.0,-11.0,1.0
2022-05-23 15:58:06.926302-07:00,1249.7,809.4,1530.1,1335.0,964.5,826.9,1947.9,1393.0,3464.9,3473.4,1116.5,858.7,1782.0,3479.5,1270.3,1197.4,3467.4,3474.6,1545.0,2151.4,2770.2,3490.5,1586.1,3492.9,3477.1,3466.1,698.7,812.7,1880.1,1033.2,1008.2,864.6,-17.0,-42.0,-4.0,13786.0,-8392.0,1607.0,2316.0,-2.0,57.0,41.0,-1.0,-4.0,13.0,12932.0,-9942.0,1349.0,-729.0,57.0,-14.0,-13.0,1.0
2022-05-23 15:58:07.046478-07:00,1249.7,809.4,1521.8,1317.8,964.5,826.9,1920.3,1389.4,3464.9,3473.4,1119.1,857.9,1782.0,3479.5,1281.0,1205.3,3467.4,3471.0,1545.0,2151.4,2790.1,3497.8,1586.1,3492.9,3474.6,3469.8,698.7,812.7,1885.0,1038.3,1008.2,864.6,0.0,-9.0,-4.0,13775.0,-8401.0,1659.0,2314.0,-117.0,225.0,91.0,-4.0,12.0,1.0,12943.0,-9929.0,1342.0,-725.0,-30.0,-19.0,-7.0,1.0
2022-05-23 15:58:07.048331-07:00,1257.8,813.5,1521.8,1317.8,972.2,829.4,1920.3,1389.4,3464.9,3468.6,1119.1,857.9,1782.0,3473.4,1281.0,1205.3,3467.4,3471.0,1548.7,2153.4,2790.1,3497.8,1589.9,3484.4,3474.6,3469.8,699.5,819.4,1885.0,1038.3,1009.9,868.8,-21.0,-7.0,-14.0,13727.0,-8461.0,1753.0,2308.0,-186.0,128.0,122.0,10.0,-1.0,20.0,12926.0,-9952.0,1338.0,-717.0,-97.0,-20.0,12.0,1.0
2022-05-23 15:58:07.106322-07:00,1257.8,813.5,1489.3,1313.3,972.2,829.4,1916.4,1388.5,3464.9,3468.6,1125.2,860.4,1782.0,3473.4,1299.8,1214.2,3473.4,3480.7,1548.7,2153.4,2781.2,3485.6,1589.9,3484.4,3474.6,3478.3,699.5,819.4,1885.0,1034.0,1009.9,868.8,15.0,5.0,34.0,13675.0,-8530.0,1810.0,2321.0,-112.0,239.0,53.0,10.0,8.0,20.0,12910.0,-9974.0,1333.0,-706.0,-54.0,-8.0,10.0,1.0
2022-05-23 15:58:07.166369-07:00,1260.4,801.0,1478.3,1313.3,999.6,824.4,1916.4,1388.5,3469.8,3464.9,1149.8,860.4,1787.8,3462.5,1299.8,1214.2,3473.4,3480.7,1547.8,2149.3,2781.2,3485.6,1585.2,3484.4,3474.6,3478.3,692.1,813.5,1885.0,1027.1,1010.8,875.5,-9.0,10.0,-11.0,13626.0,-8598.0,1916.0,2272.0,-298.0,291.0,13.0,14.0,3.0,27.0,12889.0,-9999.0,1345.0,-719.0,-189.0,79.0,-3.0,1.0
2022-05-23 15:58:07.286414-07:00,1260.4,801.0,1478.3,1300.7,999.6,816.0,1891.8,1361.2,3469.8,3464.9,1149.8,872.1,1787.8,3468.6,1313.3,1217.7,3468.6,3471.0,1552.5,2149.3,2782.4,3485.6,1585.2,3484.4,3477.1,3472.2,694.6,813.5,1890.9,1027.1,1010.8,875.5,28.0,-42.0,26.0,13529.0,-8739.0,2005.0,2236.0,-311.0,375.0,69.0,12.0,-7.0,16.0,12831.0,-10068.0,1379.0,-728.0,-207.0,80.0,26.0,1.0
2022-05-23 15:58:07.316519-07:00,1253.3,807.7,1458.9,1300.7,993.6,816.0,1891.8,1361.2,3471.0,3468.6,1164.7,872.1,1791.6,3468.6,1313.3,1217.7,3468.6,3471.0,1552.5,2154.4,2782.4,3492.9,1597.4,3492.9,3477.1,3472.2,694.6,808.5,1890.9,1034.9,1016.8,870.5,12.0,33.0,-5.0,13438.0,-8858.0,2137.0,2197.0,-366.0,258.0,65.0,11.0,40.0,2.0,12767.0,-10141.0,1429.0,-738.0,-337.0,140.0,54.0,1.0
2022-05-23 15:58:07.376308-07:00,1253.3,807.7,1458.9,1289.1,993.6,825.2,1880.1,1354.9,3471.0,3468.6,1164.7,864.6,1791.6,3464.9,1324.1,1217.7,3478.3,3469.8,1551.5,2154.4,2773.5,3492.9,1597.4,3492.9,3477.1,3473.4,690.5,808.5,1883.0,1034.9,1016.8,870.5,31.0,32.0,-8.0,13238.0,-9138.0,2220.0,2182.0,-1296.0,493.0,-36.0,-1.0,20.0,-26.0,12541.0,-10411.0,1489.0,-735.0,-1117.0,89.0,-1.0,1.0
2022-05-23 15:58:07.379595-07:00,1253.3,808.5,1448.8,1289.1,986.7,825.2,1880.1,1354.9,3477.1,3469.8,1165.6,864.6,1787.8,3464.9,1324.1,1217.7,3478.3,3469.8,1551.5,2147.3,2773.5,3495.3,1593.6,3495.3,3477.1,3473.4,690.5,809.4,1883.0,1040.1,1047.0,874.7,-61.0,-19.0,-20.0,12835.0,-9696.0,2302.0,2096.0,-1742.0,537.0,-133.0,-11.0,-28.0,48.0,12136.0,-10876.0,1543.0,-695.0,-1541.0,95.0,36.0,1.0
2022-05-23 15:58:07.380565-07:00,1253.3,808.5,1448.8,1284.6,986.7,824.4,1863.5,1347.6,3477.1,3469.8,1165.6,864.6,1787.8,3474.6,1342.2,1235.5,3481.9,3472.2,1559.9,2147.3,2767.9,3495.3,1593.6,3495.3,3480.7,3469.8,688.0,809.4,1884.0,1040.1,1047.0,874.7,17.0,-71.0,2.0,12407.0,-10241.0,2334.0,2046.0,-1064.0,386.0,-16.0,-5.0,-35.0,1.0,11771.0,-11260.0,1629.0,-659.0,-914.0,149.0,82.0,1.0
2022-05-23 15:58:07.436347-07:00,1245.3,806.9,1440.5,1288.2,1009.9,824.4,1863.5,1347.6,3467.4,3468.6,1167.4,870.5,1787.8,3474.6,1342.2,1235.5,3481.9,3472.2,1559.9,2131.1,2763.5,3494.1,1591.7,3490.5,3480.7,3469.8,688.0,811.9,1885.0,1046.1,1018.5,871.3,-5.0,0.0,-45.0,12173.0,-10503.0,2447.0,1992.0,-506.0,370.0,108.0,15.0,1.0,1.0,11594.0,-11432.0,1701.0,-657.0,-461.0,139.0,50.0,1.0
2022-05-23 15:58:07.496765-07:00,1245.3,806.9,1440.5,1288.2,1003.9,831.9,1850.8,1338.6,3467.4,3468.6,1167.4,870.5,1787.8,3468.6,1353.1,1234.6,3475.9,3474.6,1546.9,2117.9,2763.5,3494.1,1591.7,3490.5,3474.6,3473.4,684.8,814.4,1885.0,1046.1,1018.5,871.3,9.0,-39.0,-40.0,12071.0,-10609.0,2518.0,1956.0,176.0,73.0,-66.0,7.0,-18.0,-19.0,11541.0,-11476.0,1755.0,-681.0,109.0,120.0,16.0,1.0
2022-05-23 15:58:07.526437-07:00,1253.3,805.2,1447.9,1305.2,1003.9,831.9,1850.8,1338.6,3468.6,3460.1,1177.0,874.7,1787.8,3468.6,1353.1,1234.6,3475.9,3474.6,1546.9,2117.9,2762.4,3484.4,1590.8,3488.0,3474.6,3473.4,684.8,814.4,1886.9,1048.7,1022.8,871.3,3.0,-12.0,-44.0,12133.0,-10544.0,2524.0,1918.0,93.0,-1.0,-15.0,0.0,0.0,-26.0,11577.0,-11435.0,1775.0,-715.0,74.0,50.0,-19.0,1.0
2022-05-23 15:58:07.616948-07:00,1253.3,805.2,1447.9,1305.2,1003.9,829.4,1828.4,1333.2,3468.6,3460.1,1177.0,874.7,1783.9,3467.4,1352.1,1227.5,3472.2,3471.0,1547.8,2119.9,2762.4,3484.4,1590.8,3488.0,3479.5,3480.7,690.5,805.2,1886.9,1048.7,1022.8,871.3,-25.0,-42.0,-33.0,12169.0,-10507.0,2506.0,1919.0,254.0,-191.0,-36.0,-1.0,-21.0,-1.0,11619.0,-11390.0,1776.0,-731.0,239.0,8.0,-6.0,1.0
2022-05-23 15:58:07.706269-07:00,1250.6,806.9,1430.5,1283.7,1003.9,829.4,1828.4,1333.2,3467.4,3466.1,1164.7,869.6,1783.9,3467.4,1352.1,1227.5,3472.2,3471.0,1547.8,2119.9,2754.7,3489.2,1591.7,3492.9,3479.5,3480.7,690.5,805.2,1896.7,1051.3,1024.5,868.8,16.0,-7.0,-23.0,12261.0,-10404.0,2457.0,1956.0,298.0,-190.0,54.0,5.0,13.0,-16.0,11704.0,-11304.0,1765.0,-737.0,305.0,-29.0,6.0,1.0
2022-05-23 15:58:07.767071-07:00,1245.3,806.9,1430.5,1283.7,1005.6,811.9,1826.5,1335.0,3471.0,3466.1,1164.7,869.6,1779.1,3472.2,1346.7,1231.0,3473.4,3467.4,1543.1,2119.9,2754.7,3489.2,1591.7,3497.8,3474.6,3481.9,687.2,805.2,1896.7,1051.3,1024.5,876.4,10.0,10.0,-4.0,12372.0,-10271.0,2421.0,2004.0,397.0,-219.0,44.0,2.0,21.0,0.0,11817.0,-11189.0,1742.0,-749.0,373.0,-42.0,-21.0,1.0
2022-05-23 15:58:07.767982-07:00,1245.3,812.7,1428.6,1266.7,1005.6,811.9,1826.5,1333.2,3471.0,3462.5,1163.0,873.8,1779.1,3472.2,1346.7,1235.5,3474.6,3467.4,1543.1,2119.9,2753.6,3489.2,1585.2,3497.8,3473.4,3481.9,687.2,805.2,1888.9,1044.4,1028.0,876.4,1.0,17.0,14.0,12456.0,-10171.0,2387.0,2035.0,94.0,-58.0,-61.0,-4.0,5.0,1.0,11873.0,-11134.0,1715.0,-746.0,54.0,-68.0,-17.0,1.0
2022-05-23 15:58:07.769121-07:00,1258.7,812.7,1428.6,1266.7,1007.3,831.9,1818.7,1333.2,3468.6,3462.5,1163.0,873.8,1787.8,3461.3,1344.9,1235.5,3474.6,3477.1,1543.1,2107.8,2753.6,3489.2,1585.2,3490.5,3473.4,3488.0,681.5,802.7,1888.9,1044.4,1028.0,870.5,1.0,4.0,-4.0,12475.0,-10161.0,2355.0,2007.0,-15.0,-17.0,-92.0,4.0,17.0,11.0,11867.0,-11145.0,1692.0,-734.0,-65.0,-44.0,-28.0,1.0
2022-05-23 15:58:07.826804-07:00,1258.7,812.7,1425.9,1263.1,1007.3,831.9,1818.7,1325.0,3468.6,3474.6,1166.5,863.7,1787.8,3461.3,1344.9,1231.9,3464.9,3477.1,1543.1,2107.8,2756.9,3495.3,1593.6,3490.5,3479.5,3488.0,681.5,802.7,1880.1,1049.6,1024.5,870.5,-4.0,-32.0,-5.0,12463.0,-10186.0,2316.0,1996.0,-47.0,-99.0,-64.0,11.0,-9.0,11.0,11839.0,-11178.0,1670.0,-725.0,-76.0,-49.0,-29.0,1.0
2022-05-23 15:58:07.916337-07:00,1247.1,812.7,1425.9,1263.1,1009.0,825.2,1803.2,1325.0,3472.2,3474.6,1166.5,863.7,1782.0,3471.0,1342.2,1231.9,3464.9,3478.3,1552.5,2114.9,2756.9,3495.3,1593.6,3490.5,3479.5,3479.5,687.2,801.0,1880.1,1049.6,1024.5,863.7,3.0,-31.0,19.0,12491.0,-10160.0,2272.0,2004.0,198.0,-50.0,-48.0,0.0,-17.0,0.0,11853.0,-11167.0,1651.0,-719.0,118.0,-39.0,-11.0,1.0
2022-05-23 15:58:07.977076-07:00,1247.1,800.2,1418.6,1285.5,1009.0,825.2,1803.2,1311.5,3472.2,3464.9,1163.8,870.5,1782.0,3471.0,1342.2,1229.3,3473.4,3478.3,1552.5,2114.9,2754.7,3492.9,1585.2,3490.5,3471.0,3479.5,687.2,801.0,1885.0,1047.8,1024.5,863.7,-11.0,13.0,2.0,12548.0,-10094.0,2266.0,1990.0,63.0,-40.0,-1.0,7.0,13.0,27.0,11890.0,-11128.0,1645.0,-723.0,41.0,13.0,2.0,1.0
2022-05-23 15:58:07.978615-07:00,1252.4,808.5,1418.6,1285.5,997.9,821.0,1795.5,1311.5,3474.6,3467.4,1163.8,870.5,1782.0,3468.6,1339.5,1229.3,3473.4,3469.8,1540.3,2116.9,2754.7,3492.9,1586.1,3502.7,3471.0,3468.6,679.1,801.9,1885.0,1047.8,1021.1,865.4,-1.0,-12.0,0.0,12547.0,-10098.0,2246.0,2001.0,-17.0,-47.0,-36.0,3.0,-4.0,7.0,11880.0,-11139.0,1647.0,-724.0,-41.0,5.0,1.0,1.0
2022-05-23 15:58:08.067058-07:00,1252.4,808.5,1421.3,1275.6,997.9,821.0,1810.0,1312.4,3474.6,3467.4,1161.2,869.6,1782.0,3468.6,1338.6,1229.3,3472.2,3483.2,1540.3,2116.9,2754.7,3491.7,1586.1,3502.7,3480.7,3471.0,679.1,801.9,1872.3,1041.8,1021.1,865.4,-5.0,27.0,-15.0,12551.0,-10100.0,2214.0,2000.0,-92.0,-92.0,-57.0,2.0,27.0,14.0,11869.0,-11150.0,1647.0,-722.0,-113.0,9.0,-6.0,1.0
2022-05-23 15:58:08.067939-07:00,1235.5,801.9,1421.3,1275.6,1002.2,825.2,1810.0,1312.4,3466.1,3473.4,1161.2,869.6,1785.8,3474.6,1338.6,1229.3,3472.2,3483.2,1543.1,2108.8,2754.7,3491.7,1580.5,3485.6,3480.7,3471.0,675.8,804.4,1872.3,1041.8,1022.8,854.5,3.0,-40.0,-7.0,12513.0,-10156.0,2147.0,2023.0,-173.0,-130.0,-35.0,2.0,-12.0,-7.0,11823.0,-11199.0,1650.0,-721.0,-132.0,9.0,-11.0,1.0
2022-05-23 15:58:08.126489-07:00,1235.5,801.9,1415.8,1270.3,1002.2,825.2,1803.2,1316.9,3466.1,3473.4,1155.9,869.6,1785.8,3474.6,1328.7,1226.6,3464.9,3469.8,1543.1,2108.8,2753.6,3488.0,1580.5,3485.6,3477.1,3480.7,675.8,804.4,1878.1,1041.8,1022.8,854.5,4.0,-18.0,0.0,12500.0,-10177.0,2100.0,2051.0,40.0,-95.0,-19.0,6.0,-2.0,0.0,11805.0,-11218.0,1650.0,-719.0,19.0,0.0,7.0,1.0
2022-05-23 15:58:08.216516-07:00,1254.2,805.2,1415.8,1270.3,993.6,809.4,1803.2,1316.9,3462.5,3467.4,1155.9,869.6,1782.9,3469.8,1328.7,1226.6,3464.9,3469.8,1538.5,2105.8,2753.6,3488.0,1580.5,3474.6,3477.1,3480.7,676.6,797.7,1878.1,1041.8,1012.5,863.7,3.0,11.0,-11.0,12532.0,-10145.0,2059.0,2057.0,98.0,-105.0,-58.0,4.0,25.0,2.0,11822.0,-11200.0,1649.0,-723.0,65.0,5.0,-16.0,1.0
2022-05-23 15:58:08.217839-07:00,1254.2,805.2,1407.6,1279.2,993.6,817.7,1787.8,1293.6,3462.5,3467.4,1155.9,869.6,1782.9,3478.3,1335.0,1233.7,3462.5,3474.6,1538.5,2105.8,2769.0,3492.9,1580.5,3474.6,3472.2,3485.6,674.2,797.7,1883.0,1037.5,1012.5,863.7,-7.0,-27.0,-10.0,12547.0,-10131.0,2022.0,2071.0,-27.0,-84.0,9.0,0.0,-11.0,-8.0,11832.0,-11189.0,1643.0,-730.0,-3.0,-9.0,-7.0,1.0
2022-05-23 15:58:08.276427-07:00,1236.4,797.7,1404.0,1279.2,989.3,817.7,1787.8,1293.6,3464.9,3464.9,1158.6,869.6,1784.9,3478.3,1335.0,1233.7,3462.5,3474.6,1538.5,2113.9,2769.0,3490.5,1582.4,3490.5,3472.2,3485.6,674.2,799.4,1883.0,1035.7,1021.9,864.6,-2.0,-20.0,0.0,12558.0,-10118.0,2001.0,2087.0,110.0,-31.0,17.0,1.0,1.0,8.0,11843.0,-11179.0,1638.0,-727.0,79.0,-20.0,5.0,1.0
2022-05-23 15:58:08.366363-07:00,1236.4,797.7,1404.0,1275.6,989.3,821.0,1786.8,1301.6,3464.9,3464.9,1158.6,867.9,1784.9,3464.9,1327.8,1230.2,3467.4,3464.9,1539.4,2113.9,2749.1,3490.5,1582.4,3490.5,3475.9,3475.9,681.5,799.4,1882.0,1035.7,1021.9,864.6,6.0,9.0,-7.0,12589.0,-10076.0,2004.0,2099.0,96.0,-46.0,13.0,10.0,11.0,10.0,11876.0,-11145.0,1630.0,-727.0,92.0,-10.0,-1.0,1.0
2022-05-23 15:58:08.367478-07:00,1245.3,804.4,1414.0,1275.6,985.0,821.0,1786.8,1301.6,3469.8,3462.5,1155.9,867.9,1787.8,3464.9,1327.8,1230.2,3467.4,3464.9,1539.4,2106.8,2749.1,3499.0,1581.4,3483.2,3475.9,3475.9,681.5,803.5,1882.0,1034.9,1012.5,863.7,16.0,-8.0,18.0,12620.0,-10039.0,1994.0,2100.0,146.0,6.0,-33.0,12.0,0.0,6.0,11903.0,-11117.0,1620.0,-730.0,97.0,-16.0,-19.0,1.0
2022-05-23 15:58:08.486744-07:00,1245.3,804.4,1414.0,1259.6,985.0,809.4,1771.4,1300.7,3469.8,3462.5,1155.9,864.6,1787.8,3467.4,1328.7,1229.3,3480.7,3467.4,1530.1,2106.8,2752.5,3499.0,1581.4,3483.2,3483.2,3474.6,680.7,803.5,1882.0,1034.9,1012.5,863.7,-17.0,6.0,-4.0,12663.0,-9990.0,2001.0,2072.0,68.0,8.0,-17.0,-3.0,12.0,19.0,11936.0,-11082.0,1612.0,-744.0,90.0,19.0,-17.0,1.0
2022-05-23 15:58:08.546211-07:00,1234.6,802.7,1405.8,1259.6,986.7,809.4,1771.4,1300.7,3468.6,3469.8,1155.9,864.6,1786.8,3467.4,1328.7,1229.3,3480.7,3467.4,1530.1,2101.7,2752.5,3499.0,1568.3,3486.8,3483.2,3474.6,680.7,801.9,1882.0,1037.5,1010.8,856.2,1.0,-43.0,8.0,12656.0,-9998.0,1994.0,2077.0,-26.0,22.0,9.0,-2.0,-20.0,-10.0,11929.0,-11088.0,1618.0,-751.0,-55.0,18.0,8.0,1.0
2022-05-23 15:58:08.547806-07:00,1234.6,802.7,1405.8,1278.3,993.6,813.5,1787.8,1292.7,3468.6,3469.8,1155.9,871.3,1787.8,3468.6,1332.3,1225.7,3471.0,3472.2,1542.2,2111.8,2764.6,3499.0,1568.3,3486.8,3471.0,3473.4,677.4,805.2,1880.1,1037.5,1010.8,856.2,-2.0,16.0,-19.0,12658.0,-9994.0,2013.0,2067.0,-10.0,43.0,1.0,0.0,18.0,0.0,11930.0,-11086.0,1625.0,-749.0,8.0,13.0,13.0,1.0
2022-05-23 15:58:08.606377-07:00,1243.5,791.9,1408.5,1263.1,993.6,813.5,1787.8,1292.7,3471.0,3468.6,1156.8,859.5,1787.8,3468.6,1332.3,1225.7,3471.0,3472.2,1542.2,2111.8,2746.9,3488.0,1572.1,3488.0,3471.0,3473.4,677.4,805.2,1884.0,1031.4,1009.9,870.5,7.0,-18.0,-9.0,12647.0,-10008.0,2017.0,2064.0,-19.0,-20.0,0.0,16.0,-5.0,4.0,11921.0,-11096.0,1625.0,-748.0,-25.0,-2.0,-3.0,1.0
2022-05-23 15:58:08.636366-07:00,1243.5,791.9,1408.5,1263.1,994.5,808.5,1781.0,1299.8,3471.0,3468.6,1156.8,859.5,1787.8,3462.5,1331.4,1227.5,3464.9,3469.8,1555.3,2103.7,2746.9,3488.0,1572.1,3488.0,3484.4,3471.0,666.8,805.2,1884.0,1031.4,1009.9,870.5,10.0,7.0,4.0,12656.0,-9998.0,2006.0,2068.0,85.0,-28.0,-29.0,12.0,12.0,3.0,11929.0,-11088.0,1621.0,-753.0,57.0,0.0,-17.0,1.0
2022-05-23 15:58:08.666730-07:00,1246.2,801.0,1404.9,1264.0,994.5,808.5,1781.0,1299.8,3473.4,3478.3,1148.9,861.2,1787.8,3462.5,1331.4,1227.5,3464.9,3469.8,1555.3,2103.7,2752.5,3481.9,1581.4,3485.6,3484.4,3471.0,666.8,805.2,1880.1,1032.3,1010.8,864.6,-29.0,-14.0,-17.0,12701.0,-9951.0,1980.0,2045.0,241.0,-79.0,-128.0,-10.0,-8.0,20.0,11958.0,-11057.0,1609.0,-768.0,161.0,-5.0,-44.0,1.0
2022-05-23 15:58:08.726415-07:00,1246.2,801.0,1404.9,1264.0,979.9,816.0,1781.0,1300.7,3473.4,3478.3,1148.9,861.2,1782.9,3471.0,1344.9,1225.7,3477.1,3467.4,1517.1,2104.8,2752.5,3481.9,1581.4,3485.6,3477.1,3480.7,673.3,799.4,1880.1,1032.3,1010.8,864.6,-6.0,-3.0,-27.0,12831.0,-9805.0,1898.0,2015.0,539.0,-221.0,-192.0,-7.0,4.0,-8.0,12046.0,-10962.0,1592.0,-793.0,369.0,0.0,-42.0,1.0
2022-05-23 15:58:08.816486-07:00,1237.3,801.9,1399.4,1259.6,979.9,816.0,1781.0,1303.4,3473.4,3469.8,1148.0,865.4,1782.9,3471.0,1344.9,1228.4,3467.4,3467.4,1517.1,2104.8,2750.2,3485.6,1577.7,3481.9,3478.3,3480.7,673.3,799.4,1886.0,1028.0,1009.9,867.1,-9.0,-54.0,-14.0,12988.0,-9619.0,1815.0,1983.0,562.0,-191.0,-98.0,5.0,-7.0,3.0,12161.0,-10835.0,1571.0,-823.0,456.0,-5.0,-40.0,1.0
2022-05-23 15:58:08.817733-07:00,1253.3,801.9,1399.4,1259.6,983.3,808.5,1786.8,1303.4,3468.6,3469.8,1148.0,865.4,1779.1,3472.2,1332.3,1228.4,3467.4,3478.3,1539.4,2090.6,2750.2,3485.6,1577.7,3485.6,3478.3,3472.2,673.3,802.7,1886.0,1028.0,1009.9,865.4,9.0,-25.0,-14.0,13138.0,-9418.0,1758.0,2014.0,476.0,-266.0,49.0,3.0,1.0,-14.0,12295.0,-10683.0,1556.0,-844.0,441.0,-21.0,0.0,1.0
2022-05-23 15:58:08.906293-07:00,1253.3,797.7,1410.3,1271.2,983.3,808.5,1786.8,1300.7,3468.6,3475.9,1150.6,860.4,1779.1,3472.2,1332.3,1221.3,3472.2,3478.3,1539.4,2090.6,2735.9,3486.8,1578.6,3485.6,3468.6,3472.2,673.3,802.7,1870.3,1039.2,1009.9,865.4,5.0,15.0,-5.0,13245.0,-9262.0,1712.0,2070.0,307.0,-191.0,31.0,4.0,19.0,0.0,12394.0,-10571.0,1535.0,-848.0,283.0,-48.0,-3.0,1.0
2022-05-23 15:58:08.936880-07:00,1242.6,797.7,1410.3,1271.2,978.2,811.9,1775.2,1300.7,3473.4,3475.9,1150.6,860.4,1783.9,3467.4,1326.8,1221.3,3472.2,3471.0,1574.9,2105.8,2735.9,3486.8,1578.6,3485.6,3468.6,3475.9,666.0,803.5,1870.3,1039.2,1009.9,856.2,-1.0,0.0,6.0,13334.0,-9137.0,1650.0,2105.0,426.0,-270.0,-71.0,6.0,4.0,19.0,12477.0,-10476.0,1513.0,-855.0,346.0,-28.0,-22.0,1.0
2022-05-23 15:58:08.966487-07:00,1242.6,798.5,1414.0,1260.4,978.2,811.9,1775.2,1299.8,3473.4,3467.4,1155.0,865.4,1783.9,3467.4,1326.8,1225.7,3483.2,3471.0,1574.9,2105.8,2743.6,3495.3,1582.4,3485.6,3483.2,3475.9,666.0,803.5,1872.3,1036.6,1010.8,856.2,-10.0,-10.0,5.0,13467.0,-8953.0,1570.0,2114.0,506.0,-170.0,-50.0,-6.0,11.0,9.0,12591.0,-10340.0,1488.0,-875.0,448.0,-22.0,-33.0,1.0
2022-05-23 15:58:09.056864-07:00,1239.9,798.5,1414.0,1260.4,973.9,818.5,1761.8,1299.8,3473.4,3467.4,1155.0,865.4,1780.1,3469.8,1340.4,1225.7,3483.2,3475.9,1539.4,2111.8,2743.6,3495.3,1582.4,3495.3,3483.2,3475.9,675.8,801.0,1872.3,1036.6,1010.8,868.8,-2.0,-11.0,0.0,13557.0,-8819.0,1530.0,2132.0,133.0,-156.0,-29.0,-6.0,-5.0,-5.0,12663.0,-10252.0,1474.0,-887.0,124.0,-12.0,0.0,1.0
2022-05-23 15:58:09.086341-07:00,1239.9,800.2,1403.0,1271.2,973.9,818.5,1780.1,1299.8,3473.4,3471.0,1139.2,861.2,1780.1,3469.8,1327.8,1217.7,3462.5,3479.5,1539.4,2111.8,2754.7,3497.8,1575.8,3495.3,3472.2,3475.9,675.8,801.0,1876.2,1038.3,1010.8,868.8,-1.0,-10.0,-10.0,13574.0,-8798.0,1479.0,2142.0,-6.0,-103.0,-56.0,9.0,3.0,7.0,12667.0,-10250.0,1467.0,-880.0,-24.0,-20.0,1.0,1.0
2022-05-23 15:58:09.116652-07:00,1231.0,791.9,1403.0,1271.2,979.0,811.0,1780.1,1299.8,3466.1,3467.4,1139.2,861.2,1782.0,3472.2,1327.8,1217.7,3462.5,3479.5,1548.7,2109.8,2754.7,3497.8,1574.9,3491.7,3472.2,3475.9,672.5,806.9,1876.2,1038.3,1015.1,867.1,15.0,16.0,-14.0,13600.0,-8769.0,1409.0,2142.0,175.0,-219.0,-143.0,17.0,25.0,9.0,12680.0,-10234.0,1460.0,-889.0,103.0,-8.0,-42.0,1.0
2022-05-23 15:58:09.176527-07:00,1231.0,791.9,1396.7,1254.2,979.0,811.0,1780.1,1280.1,3466.1,3467.4,1153.3,859.5,1782.0,3472.2,1327.8,1217.7,3467.4,3471.0,1548.7,2109.8,2735.9,3500.2,1574.9,3491.7,3462.5,3474.6,672.5,806.9,1882.0,1037.5,1015.1,867.1,-22.0,-76.0,22.0,13612.0,-8765.0,1327.0,2136.0,-133.0,-73.0,-105.0,4.0,-41.0,26.0,12672.0,-10245.0,1441.0,-903.0,-53.0,7.0,-42.0,1.0
2022-05-23 15:58:09.266432-07:00,1239.1,791.0,1396.7,1254.2,984.2,812.7,1780.1,1280.1,3462.5,3469.8,1153.3,859.5,1789.7,3469.8,1327.8,1217.7,3467.4,3471.0,1541.3,2124.0,2735.9,3500.2,1572.1,3484.4,3462.5,3474.6,676.6,809.4,1882.0,1037.5,1010.8,875.5,-19.0,-18.0,-31.0,13606.0,-8777.0,1301.0,2140.0,-224.0,-43.0,141.0,-2.0,35.0,23.0,12661.0,-10255.0,1456.0,-916.0,-144.0,67.0,4.0,1.0
2022-05-23 15:58:09.267551-07:00,1239.1,791.0,1400.3,1242.6,984.2,812.7,1770.4,1278.3,3462.5,3469.8,1139.2,866.3,1789.7,3469.8,1325.0,1221.3,3469.8,3488.0,1541.3,2124.0,2754.7,3500.2,1572.1,3484.4,3475.9,3477.1,676.6,809.4,1885.0,1031.4,1010.8,875.5,30.0,-58.0,-5.0,13530.0,-8873.0,1289.0,2234.0,-272.0,-105.0,148.0,7.0,-27.0,-37.0,12616.0,-10309.0,1475.0,-908.0,-98.0,-7.0,38.0,1.0
2022-05-23 15:58:09.327083-07:00,1239.1,801.0,1389.4,1242.6,979.9,820.2,1770.4,1278.3,3467.4,3475.9,1142.7,866.3,1780.1,3471.0,1325.0,1221.3,3469.8,3488.0,1540.3,2109.8,2754.7,3490.5,1579.6,3485.6,3475.9,3477.1,670.9,803.5,1885.0,1037.5,1013.3,878.0,5.0,38.0,-37.0,13523.0,-8873.0,1301.0,2266.0,33.0,-61.0,42.0,19.0,37.0,12.0,12629.0,-10293.0,1477.0,-901.0,76.0,4.0,-3.0,1.0
2022-05-23 15:58:09.386399-07:00,1239.1,801.0,1389.4,1244.4,979.9,817.7,1772.3,1302.5,3467.4,3475.9,1142.7,863.7,1780.1,3477.1,1316.9,1222.2,3473.4,3467.4,1532.9,2109.8,2753.6,3490.5,1579.6,3485.6,3473.4,3477.1,678.2,803.5,1880.1,1037.5,1013.3,878.0,14.0,-27.0,10.0,13503.0,-8895.0,1259.0,2325.0,-157.0,-205.0,86.0,14.0,5.0,7.0,12620.0,-10305.0,1470.0,-910.0,-25.0,7.0,-44.0,1.0
2022-05-23 15:58:09.417111-07:00,1239.9,797.7,1399.4,1244.4,978.2,817.7,1772.3,1302.5,3473.4,3469.8,1142.7,863.7,1782.9,3477.1,1316.9,1222.2,3473.4,3467.4,1532.9,2111.8,2753.6,3491.7,1573.9,3502.7,3473.4,3477.1,678.2,808.5,1880.1,1034.9,1014.2,868.8,-11.0,-38.0,15.0,13484.0,-8906.0,1248.0,2392.0,9.0,5.0,136.0,2.0,-18.0,16.0,12628.0,-10294.0,1464.0,-926.0,64.0,30.0,-18.0,1.0
2022-05-23 15:58:09.476313-07:00,1239.9,797.7,1399.4,1227.5,978.2,824.4,1762.7,1303.4,3473.4,3469.8,1142.7,867.1,1782.9,3473.4,1326.8,1223.9,3480.7,3467.4,1536.6,2111.8,2753.6,3491.7,1573.9,3502.7,3483.2,3474.6,673.3,808.5,1882.0,1034.9,1014.2,868.8,0.0,-3.0,13.0,13463.0,-8913.0,1268.0,2474.0,-158.0,-99.0,226.0,6.0,5.0,16.0,12632.0,-10285.0,1480.0,-941.0,-37.0,96.0,26.0,1.0
2022-05-23 15:58:09.536383-07:00,1241.7,803.5,1397.6,1227.5,985.0,824.4,1762.7,1303.4,3473.4,3473.4,1145.4,867.1,1783.9,3473.4,1326.8,1223.9,3480.7,3467.4,1536.6,2119.9,2753.6,3497.8,1569.3,3490.5,3483.2,3474.6,673.3,806.0,1882.0,1037.5,1008.2,865.4,40.0,16.0,9.0,13392.0,-8985.0,1302.0,2582.0,-297.0,98.0,300.0,10.0,22.0,-4.0,12601.0,-10315.0,1522.0,-961.0,-155.0,114.0,-18.0,1.0
2022-05-23 15:58:09.566612-07:00,1241.7,803.5,1397.6,1212.4,974.8,841.1,1746.4,1281.0,3473.4,3473.4,1145.4,867.9,1781.0,3478.3,1321.4,1224.8,3477.1,3462.5,1546.9,2112.8,2729.3,3497.8,1569.3,3490.5,3474.6,3457.6,675.8,802.7,1878.1,1037.5,1008.2,865.4,-31.0,-12.0,-10.0,13272.0,-9132.0,1411.0,2630.0,-475.0,307.0,120.0,-3.0,-9.0,17.0,12521.0,-10406.0,1554.0,-980.0,-443.0,56.0,-18.0,1.0
2022-05-23 15:58:09.627194-07:00,1240.8,803.5,1374.8,1171.8,974.8,841.1,1746.4,1281.0,3464.9,3463.7,1148.0,862.1,1781.0,3478.3,1321.4,1224.8,3477.1,3462.5,1546.9,2112.8,2744.7,3490.5,1580.5,3492.9,3474.6,3457.6,675.8,802.7,1876.2,1025.4,1014.2,851.1,3.0,28.0,-33.0,13142.0,-9301.0,1503.0,2636.0,-570.0,237.0,224.0,-3.0,31.0,-22.0,12414.0,-10528.0,1580.0,-993.0,-428.0,72.0,-55.0,1.0
2022-05-23 15:58:09.686403-07:00,1240.8,803.5,1374.8,1171.8,973.1,843.6,1795.5,1297.2,3464.9,3463.7,1148.0,862.1,1779.1,3466.1,1337.7,1220.4,3477.1,3477.1,1534.8,2102.7,2744.7,3490.5,1580.5,3492.9,3488.0,3478.3,686.4,797.7,1876.2,1025.4,1014.2,851.1,0.0,32.0,2.0,12911.0,-9599.0,1620.0,2637.0,-1288.0,644.0,10.0,-10.0,5.0,-38.0,12230.0,-10739.0,1590.0,-998.0,-1164.0,-37.0,-95.0,1.0
2022-05-23 15:58:09.716542-07:00,1238.2,810.2,1332.3,1155.9,973.1,843.6,1795.5,1297.2,3477.1,3466.1,1138.4,861.2,1779.1,3466.1,1337.7,1220.4,3477.1,3477.1,1534.8,2102.7,2754.7,3486.8,1579.6,3486.8,3488.0,3478.3,686.4,797.7,1885.0,1036.6,1015.1,863.7,-4.0,-13.0,-13.0,12521.0,-10120.0,1709.0,2514.0,-1420.0,497.0,-36.0,-7.0,3.0,27.0,11845.0,-11165.0,1596.0,-964.0,-1310.0,37.0,-59.0,1.0
2022-05-23 15:58:09.776404-07:00,1238.2,810.2,1332.3,1155.9,967.1,839.4,1872.3,1299.0,3477.1,3466.1,1138.4,861.2,1779.1,3463.7,1296.3,1212.4,3473.4,3478.3,1537.6,2120.9,2754.7,3486.8,1579.6,3486.8,3471.0,3480.7,677.4,795.2,1885.0,1036.6,1015.1,863.7,5.0,-14.0,14.0,12118.0,-10610.0,1812.0,2392.0,-1206.0,892.0,-123.0,2.0,-29.0,23.0,11446.0,-11573.0,1621.0,-932.0,-1367.0,23.0,-55.0,1.0
2022-05-23 15:58:09.836482-07:00,1245.3,824.4,1273.9,1114.7,967.1,839.4,1872.3,1299.0,3467.4,3464.9,1116.5,851.1,1779.1,3463.7,1296.3,1212.4,3473.4,3478.3,1537.6,2120.9,2735.9,3497.8,1599.3,3491.7,3471.0,3480.7,677.4,795.2,1880.1,1012.5,990.2,851.1,-17.0,1.0,-36.0,11760.0,-11039.0,1872.0,2189.0,-1202.0,317.0,-330.0,-4.0,18.0,15.0,11021.0,-11975.0,1655.0,-912.0,-1261.0,116.0,-45.0,1.0
2022-05-23 15:58:09.866590-07:00,1234.6,824.4,1273.9,1114.7,967.9,833.6,1886.0,1325.0,3461.3,3464.9,1116.5,851.1,1780.1,3462.5,1257.8,1194.7,3484.4,3478.3,1549.7,2112.8,2735.9,3497.8,1599.3,3492.9,3480.7,3471.0,687.2,785.2,1880.1,1012.5,990.2,867.1,-42.0,-45.0,-40.0,11431.0,-11411.0,1854.0,2027.0,-973.0,507.0,-246.0,0.0,-18.0,26.0,10647.0,-12304.0,1694.0,-909.0,-929.0,91.0,-54.0,1.0
2022-05-23 15:58:09.927021-07:00,1234.6,816.9,1200.9,1055.6,967.9,833.6,1886.0,1353.1,3461.3,3474.6,1111.2,852.8,1780.1,3462.5,1257.8,1180.6,3467.4,3478.3,1549.7,2112.8,2763.5,3488.0,1621.8,3492.9,3488.0,3471.0,687.2,785.2,1876.2,1003.0,970.5,867.1,-9.0,-60.0,-48.0,11178.0,-11676.0,1836.0,1946.0,-753.0,59.0,-127.0,-1.0,-24.0,-29.0,10393.0,-12514.0,1730.0,-911.0,-648.0,88.0,8.0,1.0
2022-05-23 15:58:10.046700-07:00,1238.2,816.9,1200.9,1055.6,976.5,826.9,1881.1,1353.1,3467.4,3474.6,1111.2,852.8,1787.8,3466.1,1226.6,1180.6,3467.4,3478.3,1558.1,2101.7,2763.5,3488.0,1621.8,3488.0,3488.0,3477.1,679.1,780.3,1876.2,1003.0,970.5,867.1,15.0,-3.0,-15.0,11010.0,-11846.0,1788.0,1922.0,-480.0,115.0,-104.0,0.0,5.0,-18.0,10228.0,-12647.0,1755.0,-898.0,-431.0,12.0,-5.0,1.0
2022-05-23 15:58:10.048393-07:00,1238.2,815.2,1157.7,1019.4,976.5,826.9,1881.1,1364.8,3467.4,3469.8,1104.3,853.7,1787.8,3466.1,1226.6,1183.2,3479.5,3478.3,1558.1,2101.7,2753.6,3491.7,1626.5,3488.0,3480.7,3477.1,679.1,780.3,1873.2,993.6,952.6,867.1,-10.0,-1.0,-7.0,10925.0,-11937.0,1750.0,1880.0,-171.0,-44.0,-128.0,1.0,5.0,5.0,10133.0,-12723.0,1761.0,-891.0,-170.0,21.0,-20.0,1.0
2022-05-23 15:58:10.076380-07:00,1248.0,815.2,1157.7,1019.4,964.5,837.7,1836.2,1364.8,3478.3,3469.8,1104.3,853.7,1785.8,3467.4,1224.8,1183.2,3479.5,3477.1,1554.3,2094.7,2753.6,3491.7,1626.5,3495.3,3480.7,3469.8,678.2,757.9,1873.2,993.6,952.6,874.7,3.0,-24.0,11.0,10898.0,-11974.0,1672.0,1876.0,-103.0,-109.0,-156.0,3.0,-5.0,-13.0,10084.0,-12761.0,1759.0,-897.0,-142.0,0.0,-28.0,1.0
2022-05-23 15:58:10.106428-07:00,1248.0,810.2,1149.8,1021.9,964.5,837.7,1819.7,1346.7,3478.3,3469.8,1105.1,853.7,1785.8,3467.4,1203.5,1174.4,3471.0,3469.8,1554.3,2094.7,2753.6,3485.6,1624.7,3495.3,3472.2,3472.2,678.2,757.9,1870.3,1001.3,947.5,874.7,0.0,-20.0,-4.0,10880.0,-12000.0,1617.0,1855.0,-137.0,7.0,-58.0,12.0,2.0,1.0,10043.0,-12794.0,1754.0,-898.0,-133.0,3.0,-23.0,1.0
2022-05-23 15:58:10.196437-07:00,1248.8,797.7,1149.8,1021.9,958.5,832.7,1819.7,1346.7,3466.1,3463.7,1105.1,853.7,1793.6,3475.9,1203.5,1174.4,3471.0,3469.8,1551.5,2093.7,2753.6,3485.6,1622.8,3483.2,3472.2,3472.2,675.8,760.4,1870.3,1001.3,944.9,860.4,6.0,-8.0,-1.0,10846.0,-12032.0,1609.0,1857.0,-21.0,-18.0,9.0,2.0,2.0,-4.0,10006.0,-12823.0,1756.0,-893.0,-50.0,4.0,16.0,1.0
2022-05-23 15:58:10.226451-07:00,1248.8,797.7,1133.1,1003.0,958.5,832.7,1818.7,1319.6,3466.1,3463.7,1101.7,854.5,1793.6,3475.9,1210.6,1175.3,3464.9,3474.6,1551.5,2093.7,2772.4,3494.1,1622.8,3483.2,3469.8,3474.6,675.8,760.4,1878.1,993.6,944.9,860.4,-5.0,17.0,-15.0,10823.0,-12051.0,1610.0,1865.0,-159.0,1.0,15.0,-6.0,11.0,0.0,9986.0,-12839.0,1759.0,-887.0,-133.0,-15.0,0.0,1.0
2022-05-23 15:58:10.256526-07:00,1227.5,805.2,1133.1,1003.0,946.6,840.3,1818.7,1319.6,3467.4,3462.5,1101.7,854.5,1789.7,3468.6,1210.6,1175.3,3464.9,3474.6,1533.8,2090.6,2772.4,3494.1,1617.1,3480.7,3469.8,3474.6,670.9,765.3,1878.1,993.6,945.8,859.5,5.0,-22.0,2.0,10782.0,-12086.0,1591.0,1889.0,-45.0,-92.0,5.0,6.0,0.0,-4.0,9949.0,-12869.0,1755.0,-875.0,-37.0,-22.0,-11.0,1.0
2022-05-23 15:58:10.346307-07:00,1227.5,805.2,1129.6,1000.5,946.6,840.3,1815.8,1336.8,3467.4,3462.5,1095.6,853.7,1789.7,3468.6,1213.3,1183.2,3473.4,3477.1,1533.8,2090.6,2755.8,3497.8,1617.1,3480.7,3483.2,3468.6,670.9,765.3,1886.9,985.9,945.8,859.5,-7.0,17.0,-8.0,10778.0,-12088.0,1578.0,1914.0,-118.0,-53.0,27.0,1.0,15.0,4.0,9952.0,-12868.0,1741.0,-871.0,-46.0,-32.0,-30.0,1.0
2022-05-23 15:58:10.406579-07:00,1239.1,805.2,1125.2,1000.5,944.1,832.7,1815.8,1336.8,3469.8,3460.1,1094.7,853.7,1781.0,3467.4,1213.3,1183.2,3473.4,3477.1,1545.9,2088.6,2755.8,3488.0,1615.2,3488.0,3483.2,3468.6,669.3,761.2,1886.9,994.5,943.2,857.0,-12.0,-51.0,5.0,10697.0,-12154.0,1542.0,1976.0,-288.0,-167.0,64.0,0.0,-15.0,-2.0,9902.0,-12910.0,1723.0,-861.0,-166.0,-33.0,-25.0,1.0
2022-05-23 15:58:10.437058-07:00,1239.1,805.2,1125.2,1002.2,944.1,833.6,1794.5,1329.6,3469.8,3460.1,1094.7,853.7,1781.0,3477.1,1195.6,1179.7,3474.6,3474.6,1545.0,2088.6,2758.0,3488.0,1615.2,3488.0,3483.2,3478.3,676.6,761.2,1878.1,994.5,943.2,857.0,0.0,-7.0,8.0,10688.0,-12152.0,1541.0,2037.0,117.0,-49.0,110.0,6.0,0.0,10.0,9911.0,-12905.0,1711.0,-851.0,142.0,-36.0,9.0,1.0
2022-05-23 15:58:10.466454-07:00,1232.8,819.4,1128.7,1002.2,949.2,833.6,1794.5,1329.6,3469.8,3455.2,1089.5,853.7,1780.1,3477.1,1195.6,1179.7,3474.6,3474.6,1545.0,2105.8,2758.0,3489.2,1614.3,3497.8,3483.2,3478.3,676.6,757.1,1878.1,991.0,946.6,860.4,15.0,13.0,9.0,10695.0,-12138.0,1555.0,2074.0,-37.0,-39.0,0.0,20.0,-3.0,8.0,9934.0,-12889.0,1701.0,-847.0,-21.0,-25.0,-12.0,1.0
2022-05-23 15:58:10.526471-07:00,1232.8,819.4,1128.7,1001.3,949.2,832.7,1797.4,1299.8,3469.8,3455.2,1089.5,858.7,1780.1,3468.6,1200.9,1178.8,3473.4,3483.2,1553.4,2105.8,2770.2,3489.2,1614.3,3497.8,3474.6,3474.6,666.0,757.1,1872.3,991.0,946.6,860.4,0.0,-6.0,14.0,10711.0,-12129.0,1530.0,2064.0,78.0,-13.0,-52.0,7.0,4.0,19.0,9947.0,-12881.0,1687.0,-849.0,62.0,-15.0,-22.0,1.0
2022-05-23 15:58:10.586430-07:00,1230.2,821.9,1131.4,1001.3,949.2,832.7,1797.4,1299.8,3468.6,3466.1,1095.6,858.7,1780.1,3468.6,1200.9,1178.8,3473.4,3483.2,1553.4,2082.6,2770.2,3499.0,1613.4,3491.7,3474.6,3474.6,666.0,754.6,1872.3,997.9,942.4,862.9,0.0,-20.0,10.0,10725.0,-12117.0,1524.0,2065.0,6.0,-3.0,3.0,2.0,-3.0,-6.0,9958.0,-12873.0,1683.0,-854.0,9.0,-2.0,-3.0,1.0
2022-05-23 15:58:10.646491-07:00,1230.2,821.9,1131.4,1006.5,949.2,834.4,1789.7,1290.0,3468.6,3466.1,1095.6,852.0,1780.1,3467.4,1201.8,1160.3,3471.0,3474.6,1544.1,2082.6,2759.1,3499.0,1613.4,3491.7,3480.7,3466.1,665.2,754.6,1872.3,997.9,942.4,862.9,0.0,-7.0,5.0,10729.0,-12114.0,1529.0,2060.0,-2.0,3.0,7.0,-4.0,7.0,7.0,9963.0,-12869.0,1682.0,-854.0,14.0,-2.0,4.0,1.0
2022-05-23 15:58:10.676393-07:00,1236.4,806.0,1120.9,1000.5,949.2,834.4,1789.7,1290.0,3478.3,3460.1,1092.9,843.6,1809.0,3467.4,1201.8,1160.3,3471.0,3474.6,1544.1,2082.6,2754.7,3489.2,1611.5,3486.8,3480.7,3466.1,665.2,752.1,1877.2,990.2,943.2,865.4,13.0,1.0,11.0,10752.0,-12095.0,1543.0,2042.0,158.0,89.0,-5.0,2.0,9.0,-2.0,10001.0,-12840.0,1677.0,-860.0,182.0,-7.0,-19.0,1.0
2022-05-23 15:58:10.736392-07:00,1236.4,806.0,1120.9,1000.5,950.9,841.1,1789.7,1307.0,3478.3,3460.1,1092.9,843.6,1784.9,3471.0,1195.6,1166.5,3467.4,3478.3,1539.4,2091.6,2754.7,3489.2,1611.5,3486.8,3475.9,3474.6,661.9,762.9,1877.2,990.2,943.2,865.4,-28.0,-18.0,-26.0,10822.0,-12035.0,1592.0,1992.0,227.0,89.0,1.0,-5.0,-5.0,12.0,10068.0,-12788.0,1664.0,-875.0,169.0,-9.0,-15.0,1.0
2022-05-23 15:58:10.767092-07:00,1245.3,816.0,1104.3,1002.2,950.9,841.1,1789.7,1307.0,3467.4,3467.4,1090.3,850.3,1784.9,3471.0,1195.6,1166.5,3467.4,3478.3,1539.4,2091.6,2753.6,3486.8,1609.6,3489.2,3475.9,3474.6,661.9,762.9,1872.3,995.3,945.8,861.2,9.0,6.0,-8.0,10860.0,-11998.0,1597.0,2003.0,67.0,-76.0,36.0,1.0,13.0,-12.0,10102.0,-12763.0,1653.0,-871.0,38.0,-47.0,4.0,1.0
2022-05-23 15:58:10.856490-07:00,1245.3,816.0,1104.3,1002.2,943.2,842.8,1778.1,1293.6,3467.4,3467.4,1090.3,850.3,1778.1,3468.6,1193.8,1173.5,3471.0,3477.1,1539.4,2081.6,2753.6,3486.8,1609.6,3489.2,3481.9,3467.4,670.1,759.6,1872.3,995.3,945.8,861.2,-7.0,-14.0,8.0,10848.0,-12006.0,1586.0,2022.0,-79.0,-32.0,-14.0,5.0,2.0,14.0,10090.0,-12776.0,1638.0,-854.0,-44.0,-42.0,-12.0,1.0
2022-05-23 15:58:10.857601-07:00,1230.2,809.4,1117.4,993.6,943.2,842.8,1778.1,1293.6,3472.2,3472.2,1092.1,846.1,1778.1,3468.6,1193.8,1173.5,3471.0,3477.1,1539.4,2081.6,2756.9,3488.0,1609.6,3489.2,3481.9,3467.4,670.1,759.6,1879.1,985.0,939.8,853.7,-1.0,-7.0,5.0,10846.0,-12008.0,1570.0,2037.0,14.0,-55.0,7.0,13.0,-7.0,8.0,10099.0,-12770.0,1628.0,-847.0,16.0,-25.0,2.0,1.0
2022-05-23 15:58:10.916548-07:00,1239.9,809.4,1117.4,993.6,939.8,836.1,1786.8,1263.1,3463.7,3472.2,1092.1,846.1,1781.0,3469.8,1197.4,1169.1,3473.4,3477.1,1522.7,2091.6,2756.9,3488.0,1609.6,3495.3,3469.8,3478.3,674.2,753.8,1879.1,985.0,939.8,865.4,10.0,-8.0,11.0,10856.0,-12001.0,1543.0,2042.0,37.0,-46.0,-66.0,10.0,0.0,9.0,10110.0,-12763.0,1621.0,-844.0,62.0,-13.0,4.0,1.0
2022-05-23 15:58:10.977022-07:00,1239.9,821.0,1113.0,994.5,939.8,836.1,1786.8,1273.9,3463.7,3478.3,1086.8,843.6,1781.0,3469.8,1197.4,1169.1,3467.4,3477.1,1522.7,2091.6,2744.7,3492.9,1611.5,3495.3,3471.0,3478.3,674.2,753.8,1862.5,994.5,939.8,865.4,-19.0,-25.0,-7.0,10884.0,-11981.0,1527.0,2021.0,-5.0,23.0,-30.0,4.0,-1.0,8.0,10113.0,-12760.0,1618.0,-847.0,-53.0,-6.0,-6.0,1.0
2022-05-23 15:58:11.006832-07:00,1234.6,821.0,1113.0,994.5,935.6,835.2,1784.9,1273.9,3466.1,3478.3,1086.8,843.6,1778.1,3467.4,1208.0,1169.1,3467.4,3475.9,1543.1,2064.5,2744.7,3492.9,1611.5,3481.9,3471.0,3491.7,662.7,748.8,1862.5,994.5,939.8,854.5,-3.0,-1.0,-7.0,10878.0,-11989.0,1518.0,2020.0,14.0,-16.0,-8.0,0.0,4.0,-2.0,10111.0,-12762.0,1622.0,-844.0,18.0,-6.0,16.0,1.0
2022-05-23 15:58:11.066766-07:00,1234.6,808.5,1100.8,999.6,935.6,835.2,1784.9,1286.4,3466.1,3471.0,1090.3,852.0,1778.1,3467.4,1208.0,1169.1,3469.8,3475.9,1543.1,2064.5,2755.8,3496.6,1610.5,3481.9,3466.1,3491.7,662.7,748.8,1888.9,985.0,939.0,854.5,-3.0,-4.0,-4.0,10881.0,-11985.0,1517.0,2021.0,12.0,-1.0,-6.0,0.0,0.0,6.0,10112.0,-12761.0,1624.0,-842.0,38.0,-8.0,2.0,1.0
2022-05-23 15:58:11.156440-07:00,1242.6,808.5,1100.8,999.6,939.0,837.7,1780.1,1286.4,3468.6,3471.0,1090.3,852.0,1783.9,3467.4,1198.2,1169.1,3469.8,3478.3,1540.3,2078.5,2755.8,3496.6,1610.5,3492.9,3466.1,3479.5,663.6,759.6,1888.9,985.0,939.0,864.6,7.0,-6.0,-1.0,10894.0,-11974.0,1508.0,2022.0,13.0,-53.0,-25.0,8.0,3.0,-3.0,10122.0,-12753.0,1623.0,-842.0,-17.0,-12.0,-6.0,1.0
2022-05-23 15:58:11.157577-07:00,1242.6,811.0,1106.0,994.5,939.0,837.7,1750.2,1275.6,3468.6,3463.7,1090.3,847.0,1783.9,3467.4,1188.5,1169.1,3480.7,3471.0,1540.3,2078.5,2752.5,3488.0,1607.7,3492.9,3475.9,3478.3,663.6,759.6,1877.2,987.6,935.6,864.6,-9.0,-2.0,-3.0,10901.0,-11971.0,1489.0,2020.0,29.0,-14.0,-32.0,0.0,8.0,12.0,10120.0,-12755.0,1620.0,-840.0,10.0,-9.0,-3.0,1.0
2022-05-23 15:58:11.216614-07:00,1243.5,799.4,1106.0,994.5,927.9,842.8,1750.2,1275.6,3469.8,3467.4,1090.3,847.0,1777.2,3468.6,1188.5,1169.1,3480.7,3471.0,1533.8,2078.5,2752.5,3488.0,1604.0,3490.5,3475.9,3478.3,660.3,745.5,1877.2,987.6,934.7,848.6,-7.0,-13.0,5.0,10904.0,-11969.0,1482.0,2024.0,10.0,-4.0,0.0,1.0,-3.0,5.0,10123.0,-12753.0,1620.0,-840.0,26.0,4.0,10.0,1.0
2022-05-23 15:58:11.276454-07:00,1243.5,799.4,1106.9,979.9,927.9,842.8,1757.0,1272.1,3469.8,3467.4,1087.7,845.3,1777.2,3468.6,1197.4,1168.2,3466.1,3480.7,1533.8,2078.5,2752.5,3491.7,1604.0,3490.5,3469.8,3469.8,660.3,745.5,1870.3,988.5,934.7,848.6,13.0,-4.0,0.0,10920.0,-11956.0,1482.0,2010.0,91.0,25.0,-57.0,11.0,2.0,1.0,10135.0,-12743.0,1621.0,-841.0,75.0,-2.0,3.0,1.0
2022-05-23 15:58:11.306669-07:00,1238.2,797.7,1106.9,979.9,933.0,833.6,1757.0,1272.1,3467.4,3463.7,1087.7,845.3,1779.1,3474.6,1197.4,1168.2,3466.1,3480.7,1543.1,2081.6,2752.5,3491.7,1606.8,3488.0,3469.8,3469.8,662.7,748.0,1870.3,988.5,935.6,857.9,2.0,0.0,-17.0,10970.0,-11918.0,1473.0,1973.0,138.0,22.0,-46.0,6.0,17.0,2.0,10166.0,-12718.0,1617.0,-846.0,55.0,-7.0,-13.0,1.0
2022-05-23 15:58:11.366478-07:00,1238.2,797.7,1112.1,985.0,933.0,833.6,1772.3,1277.4,3467.4,3463.7,1084.2,848.6,1779.1,3474.6,1194.7,1166.5,3473.4,3467.4,1543.1,2081.6,2752.5,3494.1,1606.8,3488.0,3478.3,3472.2,662.7,748.0,1877.2,979.9,935.6,857.9,-6.0,-11.0,-13.0,10987.0,-11901.0,1479.0,1976.0,48.0,-18.0,38.0,-3.0,0.0,-4.0,10187.0,-12702.0,1614.0,-847.0,34.0,-23.0,17.0,1.0
2022-05-23 15:58:11.427184-07:00,1223.9,805.2,1112.1,985.0,933.0,821.9,1772.3,1277.4,3473.4,3469.8,1084.2,848.6,1778.1,3469.8,1194.7,1166.5,3473.4,3467.4,1532.0,2081.6,2752.5,3494.1,1605.8,3486.8,3478.3,3472.2,657.0,747.2,1877.2,979.9,934.7,858.7,-9.0,-1.0,-8.0,10984.0,-11900.0,1489.0,1991.0,-19.0,-16.0,29.0,0.0,4.0,11.0,10192.0,-12699.0,1614.0,-835.0,6.0,-21.0,16.0,1.0
2022-05-23 15:58:11.456574-07:00,1223.9,805.2,1108.6,993.6,933.0,831.9,1771.4,1281.0,3473.4,3469.8,1087.7,850.3,1778.1,3480.7,1193.8,1164.7,3471.0,3464.9,1542.2,2081.6,2741.4,3490.5,1605.8,3486.8,3469.8,3471.0,657.0,747.2,1877.2,985.9,934.7,858.7,-4.0,-5.0,-5.0,10983.0,-11899.0,1482.0,2011.0,-10.0,-56.0,18.0,0.0,4.0,3.0,10198.0,-12695.0,1609.0,-827.0,10.0,-27.0,3.0,1.0
2022-05-23 15:58:11.517148-07:00,1239.1,797.7,1108.6,993.6,935.6,831.9,1771.4,1281.0,3471.0,3471.0,1084.2,850.3,1780.1,3480.7,1193.8,1164.7,3471.0,3464.9,1542.2,2081.6,2741.4,3486.8,1604.0,3496.6,3469.8,3471.0,657.0,748.0,1877.2,979.0,936.4,862.9,-1.0,-11.0,11.0,10987.0,-11894.0,1468.0,2028.0,19.0,-41.0,-9.0,4.0,-1.0,6.0,10205.0,-12691.0,1602.0,-819.0,28.0,-19.0,4.0,1.0
2022-05-23 15:58:11.576550-07:00,1239.1,797.7,1108.6,990.2,935.6,831.9,1767.5,1280.1,3471.0,3471.0,1084.2,849.5,1780.1,3463.7,1194.7,1163.8,3474.6,3469.8,1538.5,2081.6,2750.2,3486.8,1604.0,3496.6,3477.1,3468.6,653.8,748.0,1871.3,979.0,936.4,862.9,-8.0,-3.0,-8.0,10993.0,-11888.0,1464.0,2026.0,1.0,10.0,-4.0,0.0,8.0,12.0,10213.0,-12685.0,1598.0,-814.0,-4.0,-18.0,8.0,1.0
2022-05-23 15:58:11.606384-07:00,1234.6,796.9,1103.4,990.2,943.2,831.9,1767.5,1280.1,3475.9,3462.5,1087.7,849.5,1772.3,3463.7,1194.7,1163.8,3474.6,3469.8,1538.5,2092.6,2750.2,3486.8,1604.9,3491.7,3477.1,3468.6,653.8,752.1,1871.3,987.6,931.3,862.1,0.0,-3.0,-4.0,10983.0,-11895.0,1467.0,2038.0,-6.0,-19.0,33.0,5.0,5.0,7.0,10209.0,-12689.0,1597.0,-803.0,9.0,-17.0,17.0,1.0
2022-05-23 15:58:11.696394-07:00,1234.6,796.9,1103.4,986.7,943.2,829.4,1786.8,1298.1,3475.9,3462.5,1087.7,845.3,1772.3,3472.2,1192.0,1167.4,3477.1,3475.9,1540.3,2092.6,2739.2,3486.8,1604.9,3491.7,3477.1,3468.6,659.5,752.1,1873.2,987.6,931.3,862.1,-3.0,5.0,-4.0,10989.0,-11890.0,1468.0,2041.0,26.0,0.0,-14.0,4.0,8.0,13.0,10215.0,-12684.0,1599.0,-802.0,13.0,2.0,2.0,1.0
2022-05-23 15:58:11.726523-07:00,1240.8,801.0,1112.1,986.7,935.6,829.4,1786.8,1298.1,3473.4,3472.2,1084.2,841.1,1778.1,3472.2,1192.0,1167.4,3477.1,3475.9,1540.3,2075.5,2749.1,3489.2,1604.9,3491.7,3477.1,3468.6,659.5,750.5,1879.1,982.5,941.5,856.2,4.0,-10.0,-2.0,10990.0,-11889.0,1466.0,2038.0,-24.0,8.0,1.0,6.0,-2.0,1.0,10214.0,-12685.0,1599.0,-802.0,-24.0,2.0,1.0,1.0
2022-05-23 15:58:11.756502-07:00,1240.8,801.0,1112.1,986.7,924.5,824.4,1772.3,1295.4,3473.4,3472.2,1084.2,841.1,1780.1,3466.1,1195.6,1166.5,3475.9,3475.9,1536.6,2076.5,2749.1,3489.2,1604.9,3491.7,3480.7,3467.4,658.7,744.7,1879.1,982.5,941.5,856.2,-4.0,-4.0,-6.0,10985.0,-11894.0,1467.0,2037.0,12.0,-5.0,3.0,2.0,2.0,6.0,10209.0,-12689.0,1600.0,-800.0,13.0,0.0,12.0,1.0
2022-05-23 15:58:11.816596-07:00,1232.8,804.4,1101.7,996.2,924.5,824.4,1772.3,1295.4,3471.0,3475.9,1090.3,847.8,1780.1,3466.1,1195.6,1166.5,3475.9,3475.9,1536.6,2076.5,2735.9,3484.4,1607.7,3484.4,3480.7,3467.4,658.7,744.7,1860.6,980.7,937.3,859.5,-8.0,-2.0,-9.0,10991.0,-11888.0,1468.0,2036.0,-8.0,7.0,0.0,0.0,1.0,-1.0,10211.0,-12687.0,1601.0,-800.0,-17.0,-1.0,-5.0,1.0
2022-05-23 15:58:11.876413-07:00,1232.8,804.4,1101.7,996.2,929.6,831.9,1757.0,1273.9,3471.0,3475.9,1090.3,847.8,1774.3,3463.7,1194.7,1163.0,3468.6,3484.4,1535.7,2076.5,2735.9,3484.4,1607.7,3484.4,3472.2,3477.1,658.7,748.0,1860.6,980.7,937.3,859.5,-27.0,-31.0,0.0,10994.0,-11886.0,1459.0,2038.0,26.0,-45.0,-16.0,-8.0,-23.0,20.0,10216.0,-12683.0,1599.0,-799.0,65.0,-14.0,9.0,1.0
2022-05-23 15:58:11.936391-07:00,1239.9,801.9,1119.1,1039.2,929.6,831.9,1757.0,1273.9,3473.4,3477.1,1083.4,845.3,1774.3,3463.7,1194.7,1163.0,3468.6,3484.4,1535.7,2076.5,2745.8,3497.8,1602.1,3481.9,3472.2,3477.1,658.7,748.0,1875.2,975.6,939.0,850.3,-74.0,-117.0,-33.0,11114.0,-11762.0,1478.0,2095.0,800.0,-222.0,251.0,-20.0,-68.0,28.0,10371.0,-12556.0,1611.0,-804.0,860.0,1.0,89.0,1.0
2022-05-23 15:58:11.996559-07:00,1239.9,801.9,1119.1,1039.2,940.7,835.2,1853.7,1277.4,3473.4,3477.1,1083.4,845.3,1772.3,3457.6,1201.8,1175.3,3479.5,3478.3,1534.8,2074.5,2745.8,3497.8,1602.1,3481.9,3473.4,3472.2,660.3,767.8,1875.2,975.6,939.0,850.3,-54.0,-112.0,-38.0,11516.0,-11331.0,1495.0,2280.0,1594.0,-651.0,228.0,-20.0,-92.0,-43.0,10834.0,-12157.0,1614.0,-815.0,1701.0,-58.0,154.0,1.0
2022-05-23 15:58:12.026386-07:00,1231.9,798.5,1246.2,1163.8,940.7,835.2,1853.7,1270.3,3471.0,3478.3,1097.3,853.7,1772.3,3457.6,1201.8,1174.4,3479.5,3478.3,1534.8,2074.5,2743.6,3494.1,1601.1,3485.6,3478.3,3472.2,660.3,767.8,1867.4,977.3,964.5,851.1,74.0,94.0,-91.0,12210.0,-10550.0,1499.0,2408.0,2558.0,-446.0,137.0,-12.0,98.0,-57.0,11546.0,-11486.0,1582.0,-844.0,2287.0,-116.0,102.0,1.0
2022-05-23 15:58:12.056328-07:00,1232.8,798.5,1246.2,1163.8,960.2,821.0,1913.4,1270.3,3471.0,3478.3,1097.3,853.7,1769.5,3478.3,1238.2,1174.4,3479.5,3480.7,1542.2,2086.6,2743.6,3494.1,1601.1,3488.0,3478.3,3473.4,677.4,791.0,1867.4,977.3,964.5,851.1,16.0,-14.0,-13.0,12715.0,-9915.0,1556.0,2457.0,1486.0,-284.0,75.0,32.0,12.0,-10.0,12022.0,-10995.0,1518.0,-844.0,1244.0,-152.0,41.0,1.0
2022-05-23 15:58:12.146441-07:00,1232.8,794.4,1334.1,1200.9,960.2,821.0,1913.4,1281.0,3471.0,3471.0,1105.1,857.0,1769.5,3478.3,1238.2,1181.5,3477.1,3480.7,1542.2,2086.6,2746.9,3496.6,1595.5,3488.0,3479.5,3473.4,677.4,791.0,1864.5,987.6,970.5,851.1,43.0,79.0,-9.0,13120.0,-9372.0,1530.0,2476.0,1347.0,-327.0,-2.0,19.0,85.0,-16.0,12384.0,-10594.0,1465.0,-833.0,1075.0,-137.0,60.0,1.0
2022-05-23 15:58:12.206380-07:00,1227.5,794.4,1334.1,1200.9,956.0,826.9,1933.1,1281.0,3478.3,3471.0,1105.1,857.0,1780.1,3469.8,1240.8,1181.5,3477.1,3471.0,1535.7,2106.8,2746.9,3496.6,1595.5,3497.8,3479.5,3485.6,684.8,803.5,1864.5,987.6,970.5,858.7,10.0,13.0,28.0,13287.0,-9135.0,1510.0,2483.0,333.0,-74.0,-75.0,14.0,6.0,28.0,12540.0,-10418.0,1414.0,-803.0,304.0,-133.0,15.0,1.0
2022-05-23 15:58:12.237052-07:00,1227.5,797.7,1349.4,1209.7,956.0,826.9,1933.1,1284.6,3478.3,3479.5,1113.9,859.5,1780.1,3469.8,1240.8,1183.2,3475.9,3471.0,1535.7,2106.8,2745.8,3497.8,1594.6,3497.8,3469.8,3485.6,684.8,803.5,1866.4,983.3,973.9,858.7,-10.0,-31.0,-3.0,13429.0,-8928.0,1501.0,2481.0,834.0,-170.0,88.0,-3.0,-7.0,23.0,12689.0,-10241.0,1388.0,-790.0,781.0,-48.0,69.0,1.0
2022-05-23 15:58:12.326545-07:00,1235.5,804.4,1349.4,1209.7,935.6,826.0,1903.6,1284.6,3466.1,3464.9,1113.9,859.5,1776.2,3474.6,1271.2,1183.2,3475.9,3475.9,1537.6,2107.8,2745.8,3497.8,1586.1,3480.7,3469.8,3471.0,684.8,788.6,1866.4,983.3,977.3,853.7,2.0,63.0,-14.0,13598.0,-8652.0,1526.0,2520.0,538.0,-88.0,36.0,-1.0,29.0,0.0,12865.0,-10024.0,1369.0,-768.0,435.0,-97.0,55.0,1.0
2022-05-23 15:58:12.327908-07:00,1235.5,804.4,1326.8,1186.7,935.6,826.0,1904.6,1303.4,3466.1,3464.9,1114.7,858.7,1776.2,3474.6,1294.5,1196.5,3466.1,3467.4,1537.6,2107.8,2740.3,3496.6,1586.1,3480.7,3474.6,3472.2,684.8,788.6,1873.2,992.7,977.3,853.7,17.0,28.0,28.0,13683.0,-8536.0,1509.0,2464.0,288.0,49.0,-181.0,-6.0,33.0,22.0,12926.0,-9950.0,1338.0,-744.0,157.0,-88.0,1.0,1.0
2022-05-23 15:58:12.356876-07:00,1233.7,800.2,1326.8,1186.7,942.4,809.4,1904.6,1303.4,3466.1,3471.0,1114.7,858.7,1773.3,3468.6,1294.5,1196.5,3466.1,3467.4,1529.2,2106.8,2740.3,3496.6,1588.9,3481.9,3474.6,3472.2,690.5,800.2,1873.2,992.7,986.7,862.1,-48.0,-35.0,9.0,13690.0,-8539.0,1536.0,2396.0,-125.0,63.0,-75.0,12.0,-37.0,58.0,12922.0,-9959.0,1320.0,-732.0,-103.0,-15.0,-1.0,1.0
2022-05-23 15:58:12.416558-07:00,1233.7,800.2,1323.2,1195.6,942.4,809.4,1899.7,1311.5,3466.1,3471.0,1119.1,857.9,1773.3,3468.6,1296.3,1197.4,3474.6,3483.2,1529.2,2106.8,2750.2,3497.8,1588.9,3481.9,3467.4,3488.0,690.5,800.2,1864.5,993.6,986.7,862.1,14.0,-15.0,-5.0,13697.0,-8539.0,1521.0,2365.0,126.0,28.0,-61.0,14.0,9.0,9.0,12921.0,-9960.0,1325.0,-729.0,39.0,7.0,10.0,1.0
2022-05-23 15:58:12.476788-07:00,1239.9,796.9,1323.2,1195.6,942.4,819.4,1899.7,1311.5,3464.9,3463.7,1119.1,857.9,1781.0,3467.4,1296.3,1197.4,3474.6,3483.2,1532.9,2109.8,2750.2,3497.8,1586.1,3488.0,3467.4,3488.0,706.0,799.4,1864.5,993.6,991.9,850.3,-6.0,3.0,-35.0,13712.0,-8520.0,1526.0,2345.0,-23.0,17.0,-18.0,-7.0,26.0,-12.0,12924.0,-9954.0,1329.0,-739.0,-46.0,26.0,-20.0,1.0
2022-05-23 15:58:12.506442-07:00,1239.9,796.9,1404.0,1247.1,942.4,821.0,1890.9,1310.6,3464.9,3463.7,1128.7,865.4,1781.0,3467.4,1301.6,1200.9,3478.3,3473.4,1532.9,2109.8,2756.9,3484.4,1586.1,3488.0,3478.3,3471.0,702.8,799.4,1883.0,1002.2,991.9,850.3,3.0,-65.0,0.0,13681.0,-8567.0,1500.0,2370.0,-20.0,-141.0,60.0,-6.0,-18.0,-19.0,12927.0,-9952.0,1324.0,-740.0,126.0,-37.0,18.0,1.0
2022-05-23 15:58:12.596540-07:00,1227.5,800.2,1445.1,1247.1,943.2,821.0,1890.9,1310.6,3474.6,3473.4,1136.6,865.4,1777.2,3467.4,1301.6,1200.9,3478.3,3473.4,1532.9,2118.9,2756.9,3494.1,1582.4,3491.7,3478.3,3471.0,702.8,808.5,1883.0,1008.2,997.0,849.5,2.0,22.0,-16.0,13716.0,-8501.0,1507.0,2401.0,162.0,7.0,59.0,6.0,22.0,1.0,12963.0,-9908.0,1308.0,-719.0,65.0,-61.0,21.0,1.0
2022-05-23 15:58:12.597693-07:00,1227.5,800.2,1445.1,1292.7,943.2,816.9,1886.9,1312.4,3474.6,3473.4,1136.6,863.7,1777.2,3457.6,1310.6,1206.2,3478.3,3473.4,1533.8,2118.9,2743.6,3494.1,1582.4,3491.7,3478.3,3471.0,698.7,808.5,1865.4,1008.2,997.0,849.5,9.0,-5.0,6.0,13734.0,-8467.0,1519.0,2410.0,142.0,-32.0,25.0,8.0,6.0,10.0,12987.0,-9879.0,1292.0,-702.0,110.0,-49.0,17.0,1.0
2022-05-23 15:58:12.656941-07:00,1239.1,801.9,1459.8,1292.7,946.6,816.9,1886.9,1312.4,3467.4,3466.1,1130.5,863.7,1765.6,3457.6,1310.6,1206.2,3478.3,3473.4,1533.8,2113.9,2743.6,3484.4,1587.1,3488.0,3478.3,3471.0,698.7,801.0,1865.4,1003.9,986.7,843.6,-19.0,-8.0,-8.0,13763.0,-8419.0,1545.0,2397.0,60.0,116.0,6.0,1.0,2.0,22.0,13007.0,-9856.0,1281.0,-697.0,2.0,-5.0,0.0,1.0
2022-05-23 15:58:12.716423-07:00,1239.1,801.9,1459.8,1290.0,946.6,814.4,1878.1,1316.9,3467.4,3466.1,1130.5,864.6,1765.6,3473.4,1320.5,1207.1,3471.0,3467.4,1533.8,2113.9,2751.3,3484.4,1587.1,3488.0,3480.7,3479.5,701.1,801.0,1874.2,1003.9,986.7,843.6,-14.0,-95.0,0.0,13760.0,-8421.0,1569.0,2394.0,25.0,-24.0,63.0,6.0,-24.0,17.0,13012.0,-9848.0,1289.0,-701.0,63.0,30.0,28.0,1.0
2022-05-23 15:58:12.776372-07:00,1234.6,800.2,1464.4,1290.0,950.0,814.4,1878.1,1316.9,3478.3,3462.5,1155.0,864.6,1771.4,3473.4,1320.5,1207.1,3471.0,3467.4,1533.8,2118.9,2751.3,3490.5,1582.4,3495.3,3480.7,3479.5,701.1,811.9,1874.2,996.2,991.0,863.7,6.0,-2.0,-11.0,13795.0,-8348.0,1620.0,2413.0,211.0,163.0,108.0,5.0,5.0,14.0,13047.0,-9799.0,1302.0,-696.0,174.0,25.0,54.0,1.0
2022-05-23 15:58:12.806879-07:00,1234.6,800.2,1464.4,1296.3,947.5,823.5,1872.3,1312.4,3478.3,3462.5,1155.0,868.8,1789.7,3468.6,1320.5,1213.3,3480.7,3471.0,1543.1,2114.9,2751.3,3490.5,1582.4,3495.3,3474.6,3474.6,698.7,799.4,1867.4,996.2,991.0,863.7,20.0,75.0,-17.0,13817.0,-8293.0,1708.0,2416.0,24.0,97.0,80.0,8.0,50.0,0.0,13084.0,-9748.0,1323.0,-697.0,-61.0,27.0,6.0,1.0
2022-05-23 15:58:12.866496-07:00,1237.3,791.0,1440.5,1270.3,947.5,823.5,1872.3,1312.4,3473.4,3467.4,1156.8,862.1,1789.7,3468.6,1320.5,1213.3,3480.7,3471.0,1543.1,2114.9,2740.3,3495.3,1583.3,3486.8,3474.6,3474.6,698.7,799.4,1856.7,1001.3,987.6,862.1,-19.0,-48.0,16.0,13722.0,-8449.0,1738.0,2396.0,-586.0,202.0,-27.0,-4.0,-21.0,15.0,13011.0,-9843.0,1333.0,-696.0,-467.0,7.0,0.0,1.0
2022-05-23 15:58:12.956450-07:00,1237.3,791.0,1440.5,1270.3,956.8,828.5,1863.5,1288.2,3473.4,3467.4,1156.8,862.1,1772.3,3473.4,1334.1,1216.0,3469.8,3468.6,1541.3,2117.9,2740.3,3495.3,1583.3,3486.8,3473.4,3478.3,692.9,805.2,1856.7,1001.3,987.6,862.1,9.0,-5.0,11.0,13582.0,-8662.0,1809.0,2381.0,-547.0,326.0,104.0,4.0,2.0,0.0,12894.0,-9994.0,1352.0,-677.0,-463.0,40.0,38.0,1.0
2022-05-23 15:58:12.987083-07:00,1237.3,792.7,1424.1,1262.2,956.8,828.5,1863.5,1288.2,3468.6,3467.4,1162.1,874.7,1772.3,3473.4,1334.1,1216.0,3469.8,3468.6,1541.3,2117.9,2737.0,3490.5,1581.4,3486.8,3473.4,3478.3,692.9,805.2,1867.4,1002.2,992.7,859.5,-12.0,10.0,-18.0,13402.0,-8921.0,1939.0,2341.0,-730.0,445.0,5.0,3.0,-14.0,2.0,12750.0,-10174.0,1386.0,-660.0,-627.0,44.0,23.0,1.0
2022-05-23 15:58:13.076998-07:00,1237.3,792.7,1424.1,1262.2,953.4,811.0,1839.1,1299.8,3468.6,3467.4,1162.1,874.7,1776.2,3468.6,1357.6,1220.4,3477.1,3475.9,1545.9,2109.8,2737.0,3490.5,1581.4,3486.8,3478.3,3466.1,692.1,803.5,1867.4,1002.2,992.7,859.5,-31.0,-18.0,-45.0,13253.0,-9156.0,1984.0,2242.0,-432.0,186.0,-202.0,-4.0,6.0,25.0,12601.0,-10355.0,1414.0,-651.0,-347.0,55.0,-5.0,1.0
2022-05-23 15:58:13.078255-07:00,1248.0,801.9,1416.7,1261.3,953.4,811.0,1839.1,1307.0,3464.9,3471.0,1165.6,878.9,1776.2,3468.6,1357.6,1223.9,3473.4,3475.9,1545.9,2109.8,2744.7,3477.1,1581.4,3485.6,3478.3,3466.1,692.1,803.5,1871.3,1006.5,991.0,861.2,-4.0,-32.0,-19.0,13241.0,-9187.0,1977.0,2196.0,139.0,55.0,9.0,-10.0,3.0,-12.0,12573.0,-10386.0,1432.0,-664.0,128.0,28.0,-8.0,1.0
2022-05-23 15:58:13.136504-07:00,1239.9,801.9,1416.7,1261.3,965.4,811.9,1830.4,1307.0,3472.2,3471.0,1165.6,878.9,1775.2,3471.0,1368.5,1223.9,3473.4,3480.7,1534.8,2106.8,2744.7,3477.1,1581.4,3491.7,3478.3,3489.2,690.5,803.5,1871.3,1006.5,991.0,864.6,-1.0,-40.0,-14.0,13241.0,-9176.0,2019.0,2199.0,-114.0,59.0,84.0,14.0,-32.0,-6.0,12582.0,-10374.0,1435.0,-665.0,-86.0,-12.0,26.0,1.0
2022-05-23 15:58:13.196501-07:00,1239.9,795.2,1413.1,1257.8,965.4,811.9,1830.4,1291.8,3472.2,3468.6,1171.8,874.7,1775.2,3471.0,1368.5,1229.3,3462.5,3480.7,1534.8,2106.8,2729.3,3490.5,1577.7,3491.7,3467.4,3489.2,690.5,803.5,1872.3,1004.8,985.9,864.6,9.0,-8.0,-16.0,13186.0,-9242.0,2048.0,2226.0,-128.0,41.0,94.0,11.0,3.0,-4.0,12548.0,-10415.0,1448.0,-644.0,-42.0,1.0,54.0,1.0
2022-05-23 15:58:13.197731-07:00,1237.3,795.2,1413.1,1257.8,945.8,817.7,1811.0,1291.8,3467.4,3468.6,1171.8,874.7,1766.6,3469.8,1355.8,1229.3,3462.5,3477.1,1540.3,2106.8,2729.3,3490.5,1577.7,3491.7,3467.4,3474.6,697.9,801.0,1872.3,1004.8,985.9,854.5,-3.0,40.0,-26.0,13160.0,-9271.0,2074.0,2234.0,-114.0,85.0,23.0,1.0,45.0,8.0,12540.0,-10424.0,1452.0,-631.0,-46.0,-17.0,-10.0,1.0
2022-05-23 15:58:13.256973-07:00,1237.3,792.7,1396.7,1256.9,945.8,817.7,1811.0,1284.6,3467.4,3468.6,1169.1,876.4,1766.6,3469.8,1355.8,1226.6,3473.4,3477.1,1540.3,2106.8,2737.0,3491.7,1577.7,3491.7,3477.1,3474.6,697.9,801.0,1878.1,1005.6,986.7,854.5,-17.0,-57.0,-9.0,13118.0,-9332.0,2063.0,2235.0,-129.0,-64.0,-13.0,-5.0,-27.0,6.0,12509.0,-10465.0,1434.0,-627.0,-95.0,-42.0,-30.0,1.0
2022-05-23 15:58:13.317054-07:00,1234.6,792.7,1396.7,1256.9,945.8,807.7,1818.7,1284.6,3478.3,3468.6,1169.1,876.4,1772.3,3468.6,1358.5,1226.6,3473.4,3475.9,1529.2,2097.7,2737.0,3491.7,1577.7,3494.1,3477.1,3479.5,690.5,798.5,1878.1,1005.6,986.7,860.4,12.0,-15.0,26.0,13119.0,-9323.0,2065.0,2265.0,42.0,28.0,97.0,4.0,3.0,-1.0,12519.0,-10456.0,1414.0,-614.0,65.0,-46.0,4.0,1.0
2022-05-23 15:58:13.466394-07:00,1234.6,797.7,1396.7,1260.4,945.8,807.7,1809.0,1278.3,3478.3,3458.9,1161.2,878.9,1772.3,3468.6,1349.4,1227.5,3466.1,3478.3,1529.2,2097.7,2733.7,3481.9,1577.7,3494.1,3461.3,3464.9,690.5,798.5,1837.2,1003.9,991.0,860.4,-29.0,-8.0,15.0,13088.0,-9345.0,2160.0,2269.0,-171.0,289.0,165.0,4.0,-10.0,34.0,12522.0,-10454.0,1407.0,-605.0,-82.0,-13.0,21.0,1.0
2022-05-23 15:58:13.467698-07:00,1229.3,785.2,1396.7,1260.4,947.5,810.2,1809.0,1278.3,3478.3,3472.2,1161.2,878.9,1775.2,3472.2,1349.4,1227.5,3466.1,3478.3,1531.0,2105.8,2733.7,3481.9,1582.4,3486.8,3461.3,3464.9,685.6,797.7,1837.2,1003.9,987.6,864.6,8.0,0.0,15.0,12991.0,-9448.0,2284.0,2276.0,-329.0,314.0,198.0,8.0,11.0,12.0,12473.0,-10511.0,1427.0,-591.0,-213.0,41.0,52.0,1.0
2022-05-23 15:58:13.527045-07:00,1229.3,785.2,1408.5,1236.4,947.5,810.2,1780.1,1290.9,3478.3,3472.2,1169.1,880.6,1775.2,3472.2,1350.3,1229.3,3473.4,3478.3,1531.0,2105.8,2741.4,3488.0,1582.4,3486.8,3471.0,3478.3,685.6,797.7,1863.5,1008.2,987.6,864.6,16.0,21.0,22.0,12845.0,-9613.0,2434.0,2259.0,-501.0,470.0,97.0,9.0,22.0,7.0,12381.0,-10616.0,1454.0,-574.0,-397.0,26.0,32.0,1.0
2022-05-23 15:58:13.528954-07:00,1231.9,791.0,1408.5,1236.4,958.5,813.5,1780.1,1290.9,3468.6,3467.4,1169.1,880.6,1775.2,3466.1,1350.3,1229.3,3473.4,3478.3,1539.4,2094.7,2741.4,3488.0,1573.9,3478.3,3471.0,3478.3,688.9,800.2,1863.5,1008.2,989.3,859.5,-13.0,22.0,-12.0,12668.0,-9822.0,2598.0,2177.0,-580.0,521.0,17.0,13.0,1.0,18.0,12249.0,-10765.0,1478.0,-565.0,-527.0,62.0,19.0,1.0
2022-05-23 15:58:13.586457-07:00,1231.9,791.0,1390.3,1247.1,958.5,813.5,1810.0,1282.8,3468.6,3467.4,1173.5,873.8,1775.2,3466.1,1352.1,1218.6,3466.1,3478.3,1539.4,2094.7,2738.1,3486.8,1573.9,3478.3,3467.4,3477.1,688.9,800.2,1869.3,1007.3,989.3,859.5,5.0,20.0,-12.0,12472.0,-10070.0,2675.0,2082.0,-711.0,381.0,-130.0,-5.0,27.0,1.0,12064.0,-10967.0,1519.0,-560.0,-692.0,96.0,8.0,1.0
2022-05-23 15:58:13.616441-07:00,1248.8,795.2,1388.5,1247.1,953.4,818.5,1810.0,1282.8,3463.7,3469.8,1160.3,873.8,1776.2,3468.6,1352.1,1218.6,3466.1,3478.3,1544.1,2096.7,2738.1,3486.8,1579.6,3481.9,3467.4,3477.1,686.4,798.5,1869.3,1003.0,990.2,859.5,-18.0,-15.0,-19.0,12258.0,-10334.0,2724.0,1989.0,-645.0,350.0,-152.0,-5.0,-15.0,11.0,11856.0,-11186.0,1558.0,-559.0,-645.0,84.0,6.0,1.0
2022-05-23 15:58:13.646627-07:00,1248.8,795.2,1388.5,1253.3,953.4,819.4,1799.4,1295.4,3463.7,3469.8,1160.3,873.0,1776.2,3477.1,1354.9,1223.9,3479.5,3477.1,1548.7,2096.7,2731.5,3486.8,1579.6,3481.9,3478.3,3471.0,681.5,798.5,1862.5,1003.0,990.2,859.5,-5.0,1.0,-24.0,12129.0,-10504.0,2724.0,1883.0,-298.0,187.0,-247.0,0.0,0.0,3.0,11705.0,-11341.0,1587.0,-559.0,-396.0,73.0,-3.0,1.0
2022-05-23 15:58:13.707245-07:00,1241.7,797.7,1387.5,1253.3,950.9,819.4,1799.4,1295.4,3466.1,3464.9,1158.6,873.0,1769.5,3477.1,1354.9,1223.9,3479.5,3477.1,1548.7,2075.5,2731.5,3491.7,1572.1,3485.6,3478.3,3471.0,681.5,790.2,1862.5,1005.6,986.7,858.7,6.0,-28.0,-21.0,12070.0,-10595.0,2699.0,1792.0,-207.0,130.0,-152.0,2.0,16.0,-9.0,11612.0,-11431.0,1607.0,-580.0,-254.0,83.0,-40.0,1.0
2022-05-23 15:58:13.766429-07:00,1241.7,797.7,1387.5,1249.7,950.9,804.4,1774.3,1290.0,3466.1,3464.9,1158.6,873.0,1769.5,3474.6,1351.2,1230.2,3473.4,3463.7,1542.2,2075.5,2724.9,3491.7,1572.1,3485.6,3468.6,3464.9,686.4,790.2,1871.3,1005.6,986.7,858.7,-19.0,-71.0,-18.0,12033.0,-10642.0,2703.0,1758.0,-48.0,32.0,-8.0,-3.0,-45.0,-3.0,11560.0,-11481.0,1620.0,-596.0,-81.0,32.0,-4.0,1.0
2022-05-23 15:58:13.796597-07:00,1236.4,797.7,1387.5,1249.7,953.4,804.4,1774.3,1290.0,3474.6,3468.6,1164.7,873.0,1774.3,3474.6,1351.2,1230.2,3473.4,3463.7,1542.2,2088.6,2724.9,3489.2,1565.5,3496.6,3468.6,3464.9,686.4,790.2,1871.3,1005.6,983.3,861.2,14.0,17.0,-17.0,12052.0,-10616.0,2713.0,1767.0,77.0,-7.0,54.0,1.0,16.0,-12.0,11579.0,-11460.0,1631.0,-604.0,90.0,22.0,19.0,1.0
2022-05-23 15:58:13.856328-07:00,1236.4,797.7,1387.5,1251.5,953.4,815.2,1760.8,1286.4,3474.6,3468.6,1164.7,877.2,1774.3,3468.6,1353.1,1231.9,3474.6,3467.4,1552.5,2088.6,2731.5,3489.2,1565.5,3496.6,3475.9,3462.5,679.1,790.2,1878.1,1005.6,983.3,861.2,-6.0,-4.0,-13.0,12046.0,-10621.0,2720.0,1772.0,-52.0,9.0,-6.0,3.0,15.0,1.0,11578.0,-11460.0,1635.0,-602.0,-40.0,-1.0,-4.0,1.0
2022-05-23 15:58:13.916489-07:00,1239.1,800.2,1385.7,1242.6,962.0,815.2,1760.8,1286.4,3467.4,3474.6,1163.0,868.8,1771.4,3468.6,1353.1,1231.9,3474.6,3467.4,1552.5,2074.5,2707.3,3499.0,1571.1,3495.3,3475.9,3462.5,679.1,796.0,1873.2,1009.0,989.3,861.2,-5.0,-9.0,-6.0,12054.0,-10615.0,2705.0,1771.0,85.0,-46.0,-30.0,-1.0,-8.0,2.0,11580.0,-11459.0,1632.0,-605.0,57.0,-6.0,-10.0,1.0
2022-05-23 15:58:13.976587-07:00,1239.1,800.2,1385.7,1242.6,942.4,807.7,1745.4,1284.6,3467.4,3474.6,1163.0,868.8,1770.4,3478.3,1354.9,1231.0,3475.9,3471.0,1544.1,2070.5,2707.3,3499.0,1571.1,3495.3,3472.2,3474.6,685.6,787.7,1873.2,1009.0,989.3,861.2,-2.0,-7.0,-7.0,12077.0,-10595.0,2683.0,1770.0,15.0,-43.0,-20.0,5.0,13.0,2.0,11593.0,-11447.0,1626.0,-603.0,3.0,-16.0,-7.0,1.0
2022-05-23 15:58:14.036476-07:00,1237.3,797.7,1381.2,1248.0,942.4,807.7,1745.4,1284.6,3467.4,3469.8,1158.6,877.2,1770.4,3478.3,1354.9,1231.0,3475.9,3471.0,1544.1,2070.5,2732.6,3486.8,1574.9,3490.5,3472.2,3474.6,685.6,787.7,1871.3,1020.2,994.5,862.9,-3.0,-1.0,-1.0,12086.0,-10587.0,2668.0,1781.0,53.0,-54.0,-12.0,3.0,-3.0,6.0,11595.0,-11446.0,1620.0,-598.0,33.0,-19.0,7.0,1.0
2022-05-23 15:58:14.066532-07:00,1237.3,797.7,1381.2,1248.0,952.6,811.9,1753.1,1286.4,3467.4,3469.8,1158.6,877.2,1772.3,3457.6,1362.1,1239.9,3474.6,3481.9,1532.0,2078.5,2732.6,3486.8,1574.9,3490.5,3471.0,3481.9,678.2,791.9,1871.3,1020.2,994.5,862.9,3.0,7.0,-6.0,12110.0,-10567.0,2637.0,1783.0,26.0,-81.0,-65.0,3.0,14.0,6.0,11609.0,-11433.0,1617.0,-598.0,16.0,-10.0,-9.0,1.0
2022-05-23 15:58:14.096498-07:00,1232.8,800.2,1393.9,1257.8,952.6,811.9,1753.1,1286.4,3472.2,3466.1,1157.7,873.0,1772.3,3457.6,1362.1,1239.9,3474.6,3481.9,1532.0,2078.5,2723.8,3495.3,1571.1,3490.5,3471.0,3481.9,678.2,791.9,1872.3,1009.9,996.2,858.7,3.0,-24.0,6.0,12117.0,-10568.0,2599.0,1784.0,23.0,-48.0,-39.0,-1.0,2.0,0.0,11610.0,-11432.0,1608.0,-601.0,21.0,-11.0,-22.0,1.0
2022-05-23 15:58:14.186434-07:00,1231.0,800.2,1393.9,1257.8,955.1,811.0,1746.4,1278.3,3474.6,3466.1,1157.7,873.0,1782.0,3468.6,1353.1,1227.5,3475.9,3472.2,1534.8,2073.5,2723.8,3495.3,1571.1,3485.6,3483.2,3474.6,692.9,791.9,1872.3,1009.9,996.2,859.5,-12.0,0.0,-6.0,12132.0,-10552.0,2592.0,1785.0,28.0,-31.0,-6.0,0.0,-2.0,5.0,11621.0,-11421.0,1605.0,-604.0,19.0,0.0,2.0,1.0
2022-05-23 15:58:14.216477-07:00,1231.0,796.0,1393.9,1248.8,955.1,811.0,1746.4,1262.2,3474.6,3481.9,1161.2,874.7,1782.0,3468.6,1353.1,1229.3,3474.6,3472.2,1534.8,2073.5,2723.8,3489.2,1568.3,3485.6,3474.6,3474.6,692.9,791.9,1869.3,1015.1,995.3,859.5,1.0,-15.0,-8.0,12133.0,-10556.0,2571.0,1788.0,-16.0,-33.0,-26.0,0.0,6.0,-2.0,11616.0,-11426.0,1605.0,-604.0,-30.0,-8.0,5.0,1.0
2022-05-23 15:58:14.246670-07:00,1235.5,796.0,1393.9,1248.8,930.5,802.7,1745.4,1262.2,3467.4,3481.9,1161.2,874.7,1763.7,3471.0,1358.5,1229.3,3474.6,3474.6,1542.2,2062.5,2723.8,3489.2,1568.3,3486.8,3474.6,3478.3,680.7,786.9,1869.3,1015.1,995.3,855.3,-1.0,-1.0,-5.0,12141.0,-10548.0,2563.0,1790.0,31.0,-16.0,6.0,0.0,6.0,-1.0,11617.0,-11427.0,1601.0,-599.0,30.0,-16.0,1.0,1.0
2022-05-23 15:58:14.306508-07:00,1235.5,784.4,1389.4,1239.1,930.5,802.7,1745.4,1269.4,3467.4,3473.4,1155.0,870.5,1763.7,3471.0,1358.5,1227.5,3472.2,3474.6,1542.2,2062.5,2719.4,3503.9,1566.5,3486.8,3474.6,3478.3,680.7,786.9,1870.3,1010.8,1000.5,855.3,-4.0,-2.0,-11.0,12149.0,-10541.0,2560.0,1784.0,18.0,-11.0,-25.0,0.0,8.0,3.0,11622.0,-11422.0,1595.0,-595.0,3.0,-18.0,-9.0,1.0
2022-05-23 15:58:14.397316-07:00,1239.1,784.4,1389.4,1239.1,943.2,802.7,1736.8,1269.4,3463.7,3473.4,1155.0,870.5,1767.5,3468.6,1359.4,1227.5,3472.2,3478.3,1541.3,2062.5,2719.4,3503.9,1566.5,3488.0,3474.6,3478.3,679.9,786.9,1870.3,1010.8,1000.5,857.0,0.0,-8.0,0.0,12155.0,-10537.0,2541.0,1790.0,24.0,-68.0,-13.0,5.0,1.0,5.0,11626.0,-11420.0,1588.0,-590.0,27.0,-16.0,-11.0,1.0
2022-05-23 15:58:14.398496-07:00,1239.1,796.0,1390.3,1234.6,943.2,802.7,1736.8,1286.4,3463.7,3467.4,1154.2,873.8,1767.5,3468.6,1359.4,1229.3,3472.2,3478.3,1541.3,2062.5,2710.6,3494.1,1564.6,3488.0,3477.1,3478.3,679.9,786.9,1867.4,1017.6,993.6,857.0,-3.0,-5.0,7.0,12165.0,-10528.0,2522.0,1803.0,31.0,-38.0,-2.0,1.0,-3.0,5.0,11635.0,-11412.0,1579.0,-588.0,37.0,-20.0,-7.0,1.0
2022-05-23 15:58:14.486492-07:00,1232.8,798.5,1390.3,1234.6,939.0,802.7,1729.1,1286.4,3473.4,3471.0,1154.2,873.8,1767.5,3479.5,1359.4,1229.3,3472.2,3478.3,1542.2,2080.6,2710.6,3494.1,1564.6,3491.7,3477.1,3472.2,677.4,791.0,1867.4,1017.6,993.6,853.7,4.0,0.0,-2.0,12173.0,-10519.0,2521.0,1803.0,4.0,-5.0,-11.0,3.0,5.0,6.0,11643.0,-11404.0,1574.0,-585.0,-5.0,-6.0,-6.0,1.0
2022-05-23 15:58:14.516448-07:00,1232.8,798.5,1385.7,1238.2,939.0,802.7,1721.5,1259.6,3473.4,3471.0,1153.3,874.7,1767.5,3479.5,1355.8,1231.9,3474.6,3474.6,1542.2,2080.6,2709.5,3500.2,1564.6,3491.7,3472.2,3477.1,677.4,791.0,1860.6,1011.6,993.6,853.7,-10.0,-8.0,-8.0,12175.0,-10520.0,2511.0,1801.0,10.0,-25.0,-19.0,-3.0,7.0,6.0,11642.0,-11407.0,1569.0,-583.0,7.0,-21.0,-12.0,1.0
2022-05-23 15:58:14.546715-07:00,1245.3,788.6,1385.7,1238.2,942.4,804.4,1721.5,1259.6,3466.1,3475.9,1153.3,874.7,1771.4,3478.3,1355.8,1231.9,3474.6,3474.6,1544.1,2069.5,2709.5,3500.2,1571.1,3488.0,3472.2,3477.1,680.7,784.4,1860.6,1011.6,1000.5,847.0,-10.0,-14.0,-1.0,12176.0,-10519.0,2500.0,1810.0,-2.0,-29.0,7.0,-8.0,-2.0,-3.0,11643.0,-11407.0,1561.0,-576.0,-5.0,-27.0,4.0,1.0
2022-05-23 15:58:14.607200-07:00,1245.3,788.6,1381.2,1239.9,942.4,804.4,1719.6,1269.4,3466.1,3475.9,1158.6,869.6,1771.4,3478.3,1349.4,1229.3,3468.6,3466.1,1544.1,2069.5,2716.1,3492.9,1571.1,3488.0,3469.8,3475.9,680.7,784.4,1873.2,1009.0,1000.5,847.0,-3.0,2.0,-7.0,12179.0,-10515.0,2501.0,1811.0,22.0,-5.0,-7.0,3.0,8.0,5.0,11647.0,-11404.0,1554.0,-569.0,17.0,-18.0,-1.0,1.0
2022-05-23 15:58:14.667081-07:00,1229.3,787.7,1381.2,1239.9,938.1,806.9,1719.6,1269.4,3460.1,3471.0,1158.6,869.6,1769.5,3467.4,1349.4,1229.3,3468.6,3466.1,1537.6,2065.5,2716.1,3492.9,1576.8,3481.9,3469.8,3475.9,675.0,787.7,1873.2,1009.0,991.9,861.2,3.0,-14.0,1.0,12185.0,-10512.0,2486.0,1811.0,10.0,-38.0,-24.0,10.0,0.0,7.0,11650.0,-11402.0,1547.0,-563.0,9.0,-24.0,-8.0,1.0
2022-05-23 15:58:14.726421-07:00,1229.3,787.7,1386.6,1244.4,938.1,805.2,1726.3,1264.0,3460.1,3471.0,1155.0,872.1,1769.5,3462.5,1347.6,1228.4,3457.6,3478.3,1532.9,2065.5,2718.3,3486.8,1576.8,3481.9,3474.6,3471.0,675.8,787.7,1870.3,1015.1,991.9,861.2,-1.0,0.0,4.0,12197.0,-10501.0,2476.0,1812.0,29.0,-20.0,-8.0,9.0,0.0,8.0,11658.0,-11395.0,1537.0,-559.0,21.0,-8.0,-2.0,1.0
2022-05-23 15:58:14.756464-07:00,1231.9,790.2,1382.1,1244.4,943.2,805.2,1726.3,1264.0,3466.1,3473.4,1152.4,872.1,1767.5,3462.5,1347.6,1228.4,3457.6,3478.3,1532.9,2075.5,2718.3,3492.9,1559.9,3483.2,3474.6,3471.0,675.8,785.2,1870.3,1017.6,993.6,857.0,-1.0,0.0,1.0,12198.0,-10500.0,2473.0,1810.0,7.0,10.0,-13.0,-2.0,9.0,5.0,11659.0,-11394.0,1537.0,-560.0,-12.0,8.0,-5.0,1.0
2022-05-23 15:58:14.846836-07:00,1231.9,790.2,1382.1,1239.9,943.2,812.7,1717.7,1273.9,3466.1,3473.4,1152.4,875.5,1767.5,3471.0,1348.5,1230.2,3464.9,3468.6,1537.6,2075.5,2720.5,3492.9,1559.9,3483.2,3467.4,3468.6,672.5,785.2,1863.5,1017.6,993.6,857.0,-1.0,-14.0,-8.0,12195.0,-10506.0,2473.0,1799.0,-31.0,20.0,-26.0,4.0,0.0,1.0,11648.0,-11405.0,1539.0,-560.0,-52.0,5.0,-6.0,1.0
2022-05-23 15:58:14.848224-07:00,1235.5,799.4,1380.3,1239.9,937.3,812.7,1717.7,1273.9,3478.3,3469.8,1154.2,875.5,1774.3,3471.0,1348.5,1230.2,3464.9,3468.6,1537.6,2072.5,2720.5,3492.9,1566.5,3502.7,3467.4,3468.6,672.5,789.4,1863.5,1012.5,1000.5,859.5,-8.0,-17.0,-9.0,12192.0,-10511.0,2468.0,1789.0,1.0,-20.0,-33.0,5.0,-12.0,10.0,11639.0,-11415.0,1539.0,-559.0,-15.0,-2.0,-3.0,1.0
2022-05-23 15:58:14.906445-07:00,1235.5,799.4,1380.3,1236.4,937.3,806.0,1711.9,1269.4,3478.3,3469.8,1154.2,871.3,1774.3,3467.4,1347.6,1221.3,3475.9,3464.9,1545.0,2072.5,2712.8,3492.9,1566.5,3502.7,3469.8,3469.8,692.9,789.4,1872.3,1012.5,1000.5,859.5,-6.0,12.0,-12.0,12233.0,-10474.0,2432.0,1784.0,208.0,-114.0,-89.0,2.0,7.0,2.0,11667.0,-11386.0,1533.0,-565.0,151.0,-15.0,-19.0,1.0
2022-05-23 15:58:14.996553-07:00,1235.5,781.1,1382.1,1236.4,933.9,806.0,1711.9,1269.4,3477.1,3468.6,1157.7,871.3,1773.3,3467.4,1347.6,1221.3,3475.9,3464.9,1545.0,2073.5,2712.8,3481.9,1565.5,3492.9,3469.8,3469.8,692.9,788.6,1872.3,1009.0,991.0,849.5,-12.0,-26.0,-7.0,12340.0,-10368.0,2356.0,1763.0,479.0,-221.0,-183.0,-1.0,-12.0,6.0,11747.0,-11305.0,1516.0,-586.0,386.0,-9.0,-51.0,1.0
2022-05-23 15:58:14.999434-07:00,1235.5,781.1,1382.1,1223.0,942.4,799.4,1729.1,1273.9,3477.1,3468.6,1157.7,869.6,1773.3,3469.8,1349.4,1224.8,3478.3,3479.5,1539.4,2066.5,2710.6,3481.9,1565.5,3492.9,3478.3,3467.4,676.6,787.7,1860.6,1009.0,991.0,849.5,24.0,-25.0,-12.0,12537.0,-10157.0,2243.0,1749.0,627.0,-302.0,-110.0,9.0,15.0,-18.0,11894.0,-11153.0,1484.0,-617.0,488.0,-36.0,-58.0,1.0
2022-05-23 15:58:15.056907-07:00,1229.3,789.4,1386.6,1227.5,942.4,799.4,1729.1,1273.9,3471.0,3471.0,1154.2,868.8,1773.3,3469.8,1349.4,1224.8,3478.3,3479.5,1539.4,2066.5,2709.5,3485.6,1569.3,3496.6,3478.3,3467.4,676.6,787.7,1848.9,1004.8,997.9,855.3,-11.0,-75.0,-14.0,12691.0,-9968.0,2195.0,1786.0,519.0,-197.0,110.0,5.0,-29.0,-6.0,12036.0,-11003.0,1451.0,-632.0,526.0,-48.0,-9.0,1.0
2022-05-23 15:58:15.121672-07:00,1229.3,789.4,1386.6,1227.5,948.3,801.9,1725.3,1276.5,3471.0,3471.0,1154.2,868.8,1767.5,3467.4,1344.0,1227.5,3474.6,3471.0,1532.9,2070.5,2709.5,3485.6,1569.3,3496.6,3467.4,3479.5,676.6,787.7,1848.9,1004.8,997.9,855.3,-19.0,-7.0,-28.0,12866.0,-9724.0,2186.0,1887.0,742.0,-367.0,188.0,4.0,7.0,5.0,12230.0,-10789.0,1433.0,-640.0,707.0,-31.0,23.0,1.0
2022-05-23 15:58:15.146522-07:00,1226.6,775.3,1367.6,1220.4,948.3,801.9,1725.3,1276.5,3471.0,3469.8,1151.5,873.0,1767.5,3467.4,1344.0,1227.5,3474.6,3471.0,1532.9,2070.5,2735.9,3490.5,1563.7,3477.1,3467.4,3479.5,676.6,787.7,1860.6,1012.5,997.9,837.7,24.0,77.0,0.0,13070.0,-9460.0,2056.0,1974.0,606.0,-509.0,-95.0,-1.0,59.0,-12.0,12398.0,-10598.0,1402.0,-655.0,484.0,-75.0,-52.0,1.0
2022-05-23 15:58:15.207123-07:00,1226.6,775.3,1367.6,1220.4,940.7,797.7,1729.1,1244.4,3471.0,3469.8,1151.5,873.0,1768.5,3473.4,1339.5,1222.2,3472.2,3472.2,1548.7,2076.5,2735.9,3490.5,1563.7,3477.1,3468.6,3469.8,653.0,787.7,1860.6,1012.5,997.9,837.7,-22.0,-18.0,27.0,13222.0,-9276.0,1901.0,1991.0,491.0,-372.0,-205.0,0.0,-27.0,37.0,12509.0,-10473.0,1350.0,-670.0,389.0,-56.0,-65.0,1.0
2022-05-23 15:58:15.266510-07:00,1233.7,789.4,1379.4,1227.5,940.7,797.7,1729.1,1263.1,3468.6,3467.4,1149.8,863.7,1768.5,3473.4,1339.5,1221.3,3467.4,3472.2,1548.7,2076.5,2699.6,3497.8,1564.6,3481.9,3466.1,3469.8,653.0,787.7,1869.3,1015.9,995.3,851.1,2.0,0.0,24.0,13369.0,-9092.0,1755.0,1992.0,401.0,-307.0,-119.0,6.0,17.0,14.0,12606.0,-10358.0,1322.0,-690.0,267.0,-22.0,-32.0,1.0
2022-05-23 15:58:15.296554-07:00,1226.6,789.4,1379.4,1227.5,935.6,805.2,1721.5,1263.1,3469.8,3467.4,1149.8,863.7,1767.5,3473.4,1354.0,1221.3,3467.4,3478.3,1534.8,2079.5,2699.6,3497.8,1564.6,3488.0,3466.1,3483.2,679.9,789.4,1869.3,1015.9,995.3,852.8,-4.0,-43.0,22.0,13426.0,-9019.0,1673.0,2005.0,125.0,-162.0,-50.0,4.0,-16.0,13.0,12643.0,-10314.0,1310.0,-702.0,126.0,3.0,-20.0,1.0
2022-05-23 15:58:15.357148-07:00,1226.6,786.1,1371.2,1231.0,935.6,805.2,1721.5,1273.9,3469.8,3467.4,1149.8,864.6,1767.5,3473.4,1354.0,1221.3,3472.2,3478.3,1534.8,2079.5,2721.6,3496.6,1559.0,3488.0,3472.2,3483.2,679.9,789.4,1867.4,1014.2,1001.3,852.8,-2.0,4.0,-19.0,13507.0,-8899.0,1648.0,2020.0,430.0,-122.0,-3.0,2.0,14.0,5.0,12723.0,-10214.0,1307.0,-720.0,350.0,21.0,-9.0,1.0
2022-05-23 15:58:15.446579-07:00,1235.5,786.1,1371.2,1231.0,950.0,794.4,1724.4,1273.9,3467.4,3467.4,1149.8,864.6,1770.4,3471.0,1335.0,1221.3,3472.2,3483.2,1529.2,2074.5,2721.6,3496.6,1559.0,3494.1,3472.2,3478.3,676.6,789.4,1867.4,1014.2,1001.3,852.0,6.0,60.0,6.0,13561.0,-8828.0,1578.0,2026.0,-183.0,-129.0,-87.0,-8.0,37.0,-4.0,12756.0,-10173.0,1294.0,-734.0,-167.0,-26.0,-23.0,1.0
2022-05-23 15:58:15.447890-07:00,1235.5,789.4,1371.2,1238.2,950.0,794.4,1724.4,1296.3,3467.4,3478.3,1149.8,873.0,1770.4,3471.0,1335.0,1216.8,3475.9,3483.2,1529.2,2074.5,2715.0,3483.2,1551.5,3494.1,3475.9,3478.3,676.6,789.4,1865.4,1018.5,991.9,852.0,-16.0,-60.0,10.0,13536.0,-8876.0,1517.0,2029.0,16.0,-97.0,-25.0,0.0,-18.0,18.0,12733.0,-10203.0,1292.0,-731.0,16.0,1.0,16.0,1.0
2022-05-23 15:58:15.506520-07:00,1235.5,789.4,1371.2,1238.2,946.6,802.7,1733.0,1296.3,3472.2,3478.3,1149.8,873.0,1768.5,3472.2,1332.3,1216.8,3475.9,3469.8,1538.5,2077.5,2715.0,3483.2,1551.5,3490.5,3475.9,3478.3,675.0,791.0,1865.4,1018.5,991.9,852.0,-18.0,-1.0,-40.0,13538.0,-8871.0,1468.0,2073.0,-75.0,-244.0,42.0,15.0,11.0,14.0,12736.0,-10198.0,1301.0,-724.0,-14.0,10.0,26.0,1.0
2022-05-23 15:58:15.536617-07:00,1235.5,791.9,1376.6,1224.8,946.6,802.7,1751.2,1295.4,3472.2,3471.0,1143.6,867.9,1768.5,3472.2,1335.0,1217.7,3481.9,3467.4,1538.5,2077.5,2727.1,3497.8,1556.2,3490.5,3484.4,3475.9,675.0,791.0,1866.4,1016.8,996.2,852.0,36.0,-11.0,9.0,13553.0,-8844.0,1389.0,2146.0,146.0,-168.0,10.0,9.0,7.0,-26.0,12757.0,-10174.0,1298.0,-721.0,135.0,-25.0,-7.0,1.0
2022-05-23 15:58:15.597162-07:00,1233.7,788.6,1376.6,1224.8,936.4,799.4,1751.2,1295.4,3474.6,3466.1,1143.6,867.9,1776.2,3464.9,1335.0,1217.7,3481.9,3467.4,1534.8,2079.5,2727.1,3497.8,1566.5,3491.7,3484.4,3475.9,681.5,785.2,1866.4,1016.8,1000.5,845.3,-8.0,-5.0,3.0,13578.0,-8809.0,1356.0,2156.0,-14.0,-81.0,-35.0,8.0,5.0,4.0,12776.0,-10151.0,1288.0,-720.0,8.0,5.0,-8.0,1.0
2022-05-23 15:58:15.686496-07:00,1233.7,788.6,1378.5,1228.4,936.4,799.4,1756.0,1325.0,3474.6,3466.1,1147.1,868.8,1776.2,3464.9,1335.0,1214.2,3462.5,3477.1,1534.8,2079.5,2711.7,3495.3,1566.5,3491.7,3472.2,3471.0,681.5,785.2,1863.5,1017.6,1000.5,845.3,-11.0,-37.0,19.0,13558.0,-8838.0,1345.0,2168.0,-49.0,-16.0,42.0,1.0,-5.0,15.0,12769.0,-10159.0,1289.0,-719.0,-1.0,10.0,4.0,1.0
2022-05-23 15:58:15.687803-07:00,1239.9,791.9,1378.5,1228.4,936.4,807.7,1756.0,1325.0,3462.5,3467.4,1147.1,868.8,1766.6,3468.6,1335.0,1214.2,3462.5,3477.1,1531.0,2074.5,2711.7,3495.3,1563.7,3491.7,3472.2,3471.0,690.5,788.6,1863.5,1017.6,1000.5,855.3,1.0,16.0,-11.0,13564.0,-8825.0,1344.0,2182.0,52.0,-20.0,13.0,-2.0,15.0,3.0,12779.0,-10146.0,1291.0,-717.0,45.0,7.0,5.0,1.0
2022-05-23 15:58:15.747030-07:00,1239.9,791.9,1361.2,1211.5,936.4,807.7,1758.9,1301.6,3462.5,3467.4,1148.9,876.4,1766.6,3468.6,1332.3,1218.6,3469.8,3467.4,1531.0,2074.5,2732.6,3488.0,1563.7,3491.7,3472.2,3472.2,690.5,788.6,1874.2,1010.8,1000.5,855.3,-11.0,10.0,2.0,13546.0,-8844.0,1356.0,2210.0,-219.0,-17.0,126.0,18.0,8.0,32.0,12783.0,-10139.0,1293.0,-740.0,-141.0,61.0,-29.0,1.0
2022-05-23 15:58:15.806421-07:00,1229.3,781.9,1363.9,1211.5,933.9,825.2,1758.9,1301.6,3468.6,3478.3,1157.7,876.4,1759.8,3467.4,1332.3,1218.6,3469.8,3467.4,1528.3,2066.5,2732.6,3491.7,1562.7,3489.2,3472.2,3472.2,692.9,797.7,1874.2,1017.6,998.7,851.1,39.0,-14.0,2.0,13435.0,-8983.0,1356.0,2326.0,-563.0,-44.0,374.0,13.0,51.0,23.0,12720.0,-10213.0,1315.0,-773.0,-311.0,99.0,-30.0,1.0
2022-05-23 15:58:15.836595-07:00,1229.3,781.9,1363.9,1210.6,933.9,909.3,1740.6,1281.9,3468.6,3478.3,1157.7,870.5,1759.8,3467.4,1336.8,1223.0,3471.0,3471.0,1532.0,2066.5,2706.2,3491.7,1562.7,3489.2,3471.0,3474.6,701.9,797.7,1873.2,1017.6,998.7,851.1,11.0,12.0,64.0,13250.0,-9198.0,1527.0,2436.0,-612.0,512.0,470.0,7.0,-20.0,-21.0,12612.0,-10342.0,1349.0,-777.0,-422.0,55.0,16.0,1.0
2022-05-23 15:58:15.896657-07:00,1237.3,796.0,1354.9,1210.6,933.0,909.3,1740.6,1281.9,3467.4,3471.0,1150.6,870.5,1769.5,3467.4,1336.8,1223.0,3471.0,3471.0,1532.0,2075.5,2706.2,3497.8,1554.3,3495.3,3471.0,3474.6,701.9,808.5,1873.2,1016.8,1001.3,839.4,-31.0,38.0,-22.0,13127.0,-9336.0,1750.0,2428.0,-151.0,372.0,247.0,-11.0,75.0,30.0,12548.0,-10412.0,1401.0,-791.0,-133.0,150.0,10.0,1.0
2022-05-23 15:58:15.957072-07:00,1237.3,796.0,1354.9,1191.2,933.0,946.6,1726.3,1292.7,3467.4,3471.0,1150.6,882.3,1769.5,3471.0,1330.5,1221.3,3485.6,3468.6,1534.8,2075.5,2718.3,3497.8,1554.3,3495.3,3472.2,3469.8,706.0,808.5,1889.9,1016.8,1001.3,839.4,44.0,36.0,-35.0,12963.0,-9522.0,1912.0,2460.0,-692.0,416.0,313.0,-2.0,12.0,-51.0,12443.0,-10532.0,1426.0,-809.0,-746.0,37.0,-66.0,1.0
2022-05-23 15:58:15.986547-07:00,1238.2,789.4,1335.0,1191.2,939.8,946.6,1726.3,1292.7,3478.3,3463.7,1133.1,882.3,1769.5,3471.0,1330.5,1221.3,3485.6,3468.6,1534.8,2074.5,2718.3,3500.2,1557.1,3486.8,3472.2,3469.8,706.0,796.0,1889.9,1007.3,998.7,851.1,-49.0,-9.0,-44.0,12683.0,-9866.0,2057.0,2451.0,-1095.0,435.0,104.0,-16.0,-5.0,-18.0,12182.0,-10832.0,1432.0,-802.0,-1049.0,15.0,-53.0,1.0
2022-05-23 15:58:16.077676-07:00,1238.2,789.4,1335.0,1183.2,923.7,935.6,1875.2,1316.0,3478.3,3463.7,1133.1,867.9,1763.7,3477.1,1304.3,1207.1,3477.1,3471.0,1541.3,2079.5,2713.9,3500.2,1557.1,3486.8,3475.9,3462.5,700.3,791.9,1888.9,1007.3,998.7,851.1,-26.0,-43.0,-15.0,12442.0,-10143.0,2171.0,2458.0,-635.0,236.0,283.0,-12.0,4.0,28.0,11949.0,-11088.0,1445.0,-795.0,-420.0,48.0,-30.0,1.0
2022-05-23 15:58:16.226544-07:00,1240.8,808.5,1251.5,1101.7,923.7,935.6,1875.2,1316.0,3464.9,3467.4,1120.0,862.9,1763.7,3477.1,1304.3,1207.1,3477.1,3471.0,1541.3,2079.5,2720.5,3486.8,1572.1,3491.7,3475.9,3462.5,700.3,791.9,1866.4,1004.8,987.6,867.1,-7.0,45.0,-42.0,12314.0,-10273.0,2194.0,2539.0,-481.0,-71.0,38.0,0.0,0.0,-13.0,11853.0,-11188.0,1460.0,-794.0,-375.0,2.0,-8.0,1.0
2022-05-23 15:58:16.229470-07:00,1240.8,808.5,1251.5,1101.7,934.7,935.6,1874.2,1333.2,3464.9,3467.4,1120.0,862.9,2214.7,3462.5,1272.1,1195.6,3475.9,3483.2,1546.9,2077.5,2720.5,3486.8,1572.1,3491.7,3489.2,3473.4,693.8,781.9,1866.4,1004.8,987.6,867.1,-4.0,109.0,-40.0,12217.0,-10405.0,2088.0,2561.0,-448.0,-184.0,-196.0,-5.0,66.0,6.0,11743.0,-11305.0,1455.0,-784.0,-566.0,-29.0,-57.0,1.0
2022-05-23 15:58:16.230412-07:00,1229.3,799.4,1166.5,1043.5,934.7,935.6,1874.2,1333.2,3471.0,3471.0,1106.9,856.2,2214.7,3462.5,1272.1,1195.6,3475.9,3483.2,1546.9,2077.5,2741.4,3486.8,1584.2,3491.7,3489.2,3473.4,693.8,781.9,1860.6,990.2,963.7,852.0,14.0,-51.0,24.0,12009.0,-10671.0,1912.0,2588.0,-831.0,-117.0,-208.0,9.0,0.0,-15.0,11541.0,-11515.0,1438.0,-765.0,-691.0,-49.0,-60.0,1.0
2022-05-23 15:58:16.256362-07:00,1229.3,799.4,1166.5,1043.5,912.7,925.4,1852.8,1345.8,3471.0,3471.0,1106.9,856.2,1827.5,3473.4,1242.6,1180.6,3488.0,3485.6,1547.8,2066.5,2741.4,3486.8,1584.2,3491.7,3484.4,3477.1,697.0,762.9,1860.6,990.2,963.7,852.0,19.0,-6.0,-2.0,11726.0,-10999.0,1859.0,2551.0,-1239.0,363.0,-86.0,12.0,0.0,-19.0,11280.0,-11775.0,1425.0,-729.0,-1182.0,-67.0,-18.0,1.0
2022-05-23 15:58:16.286985-07:00,1237.3,801.0,1140.1,1016.8,912.7,925.4,1852.8,1345.8,3469.8,3473.4,1093.8,855.3,1827.5,3473.4,1242.6,1180.6,3488.0,3485.6,1547.8,2066.5,2734.8,3491.7,1577.7,3492.9,3484.4,3477.1,697.0,762.9,1873.2,980.7,947.5,853.7,-43.0,-67.0,40.0,11362.0,-11392.0,1878.0,2459.0,-833.0,359.0,-97.0,-1.0,-54.0,59.0,10950.0,-12085.0,1427.0,-673.0,-587.0,-12.0,17.0,1.0
2022-05-23 15:58:16.376505-07:00,1227.5,801.0,1140.1,1016.8,924.5,985.0,1822.6,1321.4,3462.5,3473.4,1093.8,855.3,1791.6,3466.1,1220.4,1177.0,3469.8,3478.3,1547.8,2065.5,2734.8,3491.7,1577.7,3495.3,3471.0,3474.6,688.0,762.9,1873.2,980.7,947.5,847.8,-32.0,28.0,20.0,11273.0,-11491.0,1883.0,2401.0,-84.0,11.0,-75.0,9.0,1.0,41.0,10850.0,-12173.0,1446.0,-666.0,-66.0,68.0,-7.0,1.0
2022-05-23 15:58:16.436584-07:00,1227.5,793.5,1134.9,1028.8,924.5,985.0,1822.6,1301.6,3462.5,3475.9,1093.8,844.4,1791.6,3466.1,1220.4,1167.4,3471.0,3478.3,1547.8,2065.5,2737.0,3490.5,1583.3,3495.3,3467.4,3474.6,688.0,762.9,1858.6,991.0,946.6,847.8,18.0,-1.0,-1.0,11289.0,-11492.0,1821.0,2371.0,27.0,-3.0,-177.0,3.0,22.0,-20.0,10833.0,-12185.0,1458.0,-693.0,-98.0,39.0,-41.0,1.0
2022-05-23 15:58:16.437862-07:00,1234.6,793.5,1134.9,1028.8,916.9,982.5,1801.3,1301.6,3472.2,3475.9,1093.8,844.4,1791.6,3479.5,1224.8,1167.4,3471.0,3472.2,1548.7,2056.4,2737.0,3490.5,1583.3,3485.6,3467.4,3478.3,684.8,759.6,1858.6,991.0,946.6,854.5,-12.0,-55.0,0.0,11262.0,-11532.0,1791.0,2328.0,-130.0,30.0,-84.0,5.0,-23.0,-9.0,10779.0,-12231.0,1465.0,-704.0,-94.0,37.0,11.0,1.0
2022-05-23 15:58:16.646651-07:00,1234.6,801.9,1131.4,1039.2,916.9,982.5,1801.3,1288.2,3472.2,3471.0,1098.2,852.0,1791.6,3479.5,1224.8,1174.4,3479.5,3472.2,1548.7,2056.4,2739.2,3489.2,1576.8,3485.6,3467.4,3478.3,684.8,759.6,1859.6,986.7,944.1,854.5,-14.0,-10.0,-18.0,11260.0,-11535.0,1795.0,2317.0,63.0,5.0,14.0,-2.0,15.0,0.0,10770.0,-12237.0,1481.0,-704.0,42.0,12.0,19.0,1.0
2022-05-23 15:58:16.648116-07:00,1223.9,801.9,1131.4,1039.2,916.0,983.3,1782.0,1288.2,3469.8,3471.0,1098.2,852.0,1805.2,3466.1,1217.7,1174.4,3479.5,3475.9,1542.2,2066.5,2739.2,3489.2,1576.8,3486.8,3467.4,3475.9,679.1,755.4,1859.6,986.7,944.1,852.0,15.0,3.0,6.0,11269.0,-11528.0,1781.0,2323.0,7.0,-26.0,-42.0,2.0,12.0,-11.0,10771.0,-12236.0,1483.0,-704.0,-22.0,-16.0,-14.0,1.0
2022-05-23 15:58:16.649536-07:00,1223.9,798.5,1134.9,1056.5,916.0,983.3,1790.7,1287.3,3469.8,3469.8,1090.3,847.8,1805.2,3466.1,1213.3,1176.2,3474.6,3469.8,1542.2,2066.5,2743.6,3495.3,1576.8,3486.8,3472.2,3477.1,679.1,755.4,1858.6,992.7,939.0,852.0,-12.0,-3.0,13.0,11305.0,-11497.0,1788.0,2293.0,158.0,71.0,-22.0,-5.0,6.0,11.0,10786.0,-12225.0,1464.0,-702.0,85.0,-39.0,-34.0,1.0
2022-05-23 15:58:16.650383-07:00,1238.2,800.2,1134.9,1056.5,920.3,971.3,1790.7,1287.3,3466.1,3469.8,1090.3,847.8,1777.2,3468.6,1213.3,1176.2,3474.6,3469.8,1544.1,2049.4,2743.6,3495.3,1570.2,3492.9,3472.2,3477.1,681.5,756.3,1858.6,992.7,935.6,847.0,-21.0,-18.0,-5.0,11318.0,-11484.0,1793.0,2290.0,-33.0,-42.0,-16.0,0.0,-7.0,4.0,10799.0,-12216.0,1444.0,-704.0,-18.0,-28.0,-17.0,1.0
2022-05-23 15:58:16.736115-07:00,1238.2,800.2,1148.0,1045.2,920.3,971.3,1776.2,1285.5,3466.1,3469.8,1091.2,852.0,1777.2,3468.6,1216.0,1172.6,3474.6,3473.4,1544.1,2049.4,2740.3,3497.8,1570.2,3492.9,3473.4,3472.2,681.5,756.3,1860.6,975.6,935.6,847.0,5.0,8.0,14.0,11324.0,-11478.0,1785.0,2299.0,71.0,-18.0,8.0,12.0,17.0,9.0,10806.0,-12211.0,1438.0,-700.0,62.0,-5.0,1.0,1.0
2022-05-23 15:58:16.737282-07:00,1231.9,797.7,1148.0,1045.2,911.8,965.4,1776.2,1285.5,3467.4,3467.4,1091.2,852.0,1790.7,3466.1,1216.0,1172.6,3474.6,3473.4,1521.8,2054.4,2740.3,3497.8,1576.8,3483.2,3473.4,3472.2,680.7,760.4,1860.6,975.6,941.5,852.0,-2.0,1.0,4.0,11331.0,-11472.0,1779.0,2292.0,-17.0,-8.0,-49.0,7.0,5.0,2.0,10809.0,-12209.0,1431.0,-706.0,-32.0,6.0,-27.0,1.0
2022-05-23 15:58:16.796509-07:00,1231.9,797.7,1146.3,1042.6,911.8,965.4,1764.6,1282.8,3467.4,3467.4,1090.3,853.7,1790.7,3466.1,1215.1,1165.6,3462.5,3474.6,1521.8,2054.4,2735.9,3492.9,1576.8,3483.2,3462.5,3472.2,680.7,760.4,1855.7,977.3,941.5,852.0,5.0,-27.0,9.0,11328.0,-11481.0,1759.0,2281.0,-8.0,-14.0,-45.0,15.0,-9.0,-5.0,10796.0,-12221.0,1422.0,-714.0,-22.0,7.0,-20.0,1.0
2022-05-23 15:58:16.916453-07:00,1215.1,797.7,1146.3,1042.6,922.0,961.1,1764.6,1282.8,3466.1,3464.9,1090.3,853.7,1780.1,3472.2,1215.1,1165.6,3462.5,3474.6,1541.3,2064.5,2735.9,3492.9,1566.5,3483.2,3462.5,3472.2,679.1,756.3,1855.7,977.3,939.8,853.7,-10.0,-13.0,2.0,11330.0,-11480.0,1755.0,2277.0,-20.0,3.0,8.0,0.0,0.0,4.0,10796.0,-12221.0,1418.0,-717.0,-13.0,-3.0,-5.0,1.0
2022-05-23 15:58:16.977300-07:00,1215.1,797.7,1147.1,1040.1,922.0,973.9,1772.3,1270.3,3466.1,3464.9,1088.6,850.3,1780.1,3455.2,1214.2,1163.0,3467.4,3471.0,1539.4,2064.5,2737.0,3494.1,1566.5,3483.2,3475.9,3467.4,669.3,756.3,1870.3,976.5,939.8,853.7,-11.0,2.0,4.0,11334.0,-11476.0,1757.0,2279.0,41.0,-11.0,-8.0,-1.0,5.0,4.0,10799.0,-12219.0,1418.0,-718.0,29.0,-6.0,-2.0,1.0
2022-05-23 15:58:17.066447-07:00,1226.6,797.7,1147.1,1040.1,913.5,973.9,1772.3,1270.3,3469.8,3477.1,1084.2,850.3,1767.5,3455.2,1214.2,1163.0,3467.4,3471.0,1539.4,2050.4,2737.0,3490.5,1569.3,3486.8,3475.9,3467.4,669.3,748.8,1870.3,984.2,942.4,843.6,-2.0,-7.0,6.0,11350.0,-11463.0,1744.0,2275.0,39.0,-26.0,-36.0,0.0,5.0,-1.0,10809.0,-12210.0,1417.0,-719.0,33.0,-3.0,-9.0,1.0
2022-05-23 15:58:17.068359-07:00,1226.6,797.7,1147.1,1040.9,913.5,961.1,1744.5,1267.6,3469.8,3477.1,1084.2,846.1,1767.5,3475.9,1208.9,1170.0,3473.4,3467.4,1544.1,2050.4,2726.0,3490.5,1569.3,3486.8,3477.1,3473.4,673.3,748.8,1861.5,984.2,942.4,843.6,-2.0,-11.0,3.0,11366.0,-11448.0,1750.0,2266.0,49.0,37.0,16.0,3.0,3.0,0.0,10821.0,-12200.0,1413.0,-720.0,37.0,-13.0,-3.0,1.0
2022-05-23 15:58:17.069272-07:00,1223.9,793.5,1117.4,1040.9,915.2,961.1,1744.5,1267.6,3458.9,3464.9,1089.5,846.1,1767.5,3475.9,1208.9,1170.0,3473.4,3467.4,1544.1,2050.4,2726.0,3495.3,1564.6,3477.1,3477.1,3473.4,673.3,748.8,1861.5,973.1,934.7,847.8,-8.0,3.0,-3.0,11368.0,-11445.0,1765.0,2259.0,6.0,11.0,10.0,4.0,8.0,3.0,10829.0,-12193.0,1407.0,-716.0,21.0,-21.0,-8.0,1.0
2022-05-23 15:58:17.096651-07:00,1223.9,793.5,1117.4,1012.5,915.2,952.6,1780.1,1259.6,3458.9,3464.9,1089.5,847.8,1767.5,3464.9,1200.9,1168.2,3479.5,3478.3,1538.5,2050.4,2731.5,3495.3,1564.6,3477.1,3488.0,3466.1,676.6,748.8,1865.4,973.1,934.7,847.8,-8.0,-1.0,-1.0,11367.0,-11445.0,1763.0,2267.0,-9.0,-34.0,-3.0,6.0,2.0,5.0,10835.0,-12189.0,1399.0,-712.0,17.0,-22.0,-12.0,1.0
2022-05-23 15:58:17.186482-07:00,1229.3,789.4,1115.6,1006.5,911.0,952.6,1780.1,1259.6,3468.6,3458.9,1086.0,845.3,1772.3,3464.9,1200.9,1168.2,3479.5,3478.3,1538.5,2041.4,2737.0,3488.0,1562.7,3491.7,3488.0,3466.1,676.6,752.1,1850.8,975.6,929.6,841.1,4.0,-4.0,16.0,11375.0,-11438.0,1741.0,2278.0,17.0,-41.0,-21.0,8.0,9.0,0.0,10843.0,-12183.0,1390.0,-711.0,18.0,-10.0,-12.0,1.0
2022-05-23 15:58:17.187777-07:00,1229.3,789.4,1115.6,1006.5,909.3,960.2,1759.8,1250.6,3468.6,3458.9,1086.0,845.3,1770.4,3474.6,1208.0,1164.7,3473.4,3467.4,1545.0,2055.4,2737.0,3488.0,1562.7,3491.7,3478.3,3483.2,676.6,746.3,1850.8,975.6,929.6,841.1,-3.0,-15.0,12.0,11380.0,-11435.0,1729.0,2278.0,4.0,-24.0,-23.0,11.0,-7.0,7.0,10845.0,-12182.0,1387.0,-713.0,-3.0,-5.0,-3.0,1.0
2022-05-23 15:58:17.246675-07:00,1234.6,792.7,1121.7,1019.4,909.3,960.2,1759.8,1250.6,3468.6,3478.3,1091.2,846.1,1770.4,3474.6,1208.0,1164.7,3473.4,3467.4,1545.0,2055.4,2729.3,3491.7,1565.5,3489.2,3478.3,3483.2,676.6,746.3,1864.5,976.5,933.9,840.3,-9.0,-9.0,13.0,11388.0,-11427.0,1718.0,2286.0,50.0,-34.0,-4.0,-1.0,0.0,12.0,10853.0,-12175.0,1383.0,-710.0,48.0,-11.0,2.0,1.0
2022-05-23 15:58:17.306901-07:00,1234.6,792.7,1121.7,1019.4,911.0,946.6,1771.4,1240.8,3468.6,3478.3,1091.2,846.1,1758.9,3469.8,1200.9,1167.4,3478.3,3473.4,1532.9,2046.4,2729.3,3491.7,1565.5,3489.2,3467.4,3474.6,672.5,750.5,1864.5,976.5,933.9,840.3,3.0,6.0,10.0,11399.0,-11416.0,1710.0,2288.0,-3.0,-6.0,-21.0,1.0,12.0,1.0,10861.0,-12167.0,1382.0,-711.0,-4.0,0.0,-2.0,1.0
2022-05-23 15:58:17.336578-07:00,1225.7,806.0,1119.1,1007.3,911.0,946.6,1771.4,1240.8,3473.4,3468.6,1083.4,848.6,1758.9,3469.8,1200.9,1167.4,3478.3,3473.4,1532.9,2046.4,2731.5,3488.0,1563.7,3494.1,3467.4,3474.6,672.5,750.5,1864.5,969.6,928.8,841.1,-11.0,-19.0,2.0,11393.0,-11423.0,1716.0,2279.0,-1.0,33.0,6.0,1.0,-2.0,4.0,10853.0,-12175.0,1383.0,-710.0,-6.0,4.0,7.0,1.0
2022-05-23 15:58:17.456694-07:00,1225.7,806.0,1119.1,1007.3,908.4,944.9,1753.1,1248.8,3473.4,3468.6,1083.4,848.6,1763.7,3471.0,1204.4,1163.8,3467.4,3472.2,1524.5,2044.4,2731.5,3488.0,1563.7,3494.1,3462.5,3483.2,676.6,749.6,1864.5,969.6,928.8,841.1,2.0,-1.0,-4.0,11393.0,-11423.0,1720.0,2279.0,-3.0,-1.0,2.0,7.0,9.0,-2.0,10855.0,-12173.0,1385.0,-710.0,0.0,1.0,9.0,1.0
2022-05-23 15:58:17.457957-07:00,1231.9,783.6,1117.4,1001.3,908.4,944.9,1753.1,1234.6,3478.3,3474.6,1090.3,843.6,1763.7,3471.0,1204.4,1168.2,3462.5,3472.2,1524.5,2044.4,2739.2,3492.9,1569.3,3492.9,3462.5,3483.2,676.6,749.6,1852.8,978.2,933.0,841.1,-1.0,-36.0,-2.0,11386.0,-11424.0,1745.0,2290.0,-11.0,26.0,128.0,12.0,0.0,0.0,10863.0,-12166.0,1381.0,-703.0,52.0,-30.0,26.0,1.0
2022-05-23 15:58:17.486898-07:00,1224.8,783.6,1117.4,1001.3,901.7,950.9,1743.5,1234.6,3469.8,3474.6,1090.3,843.6,1757.9,3469.8,1203.5,1168.2,3462.5,3473.4,1539.4,2051.4,2739.2,3492.9,1569.3,3488.0,3462.5,3473.4,675.0,753.8,1852.8,978.2,933.0,843.6,9.0,10.0,15.0,11388.0,-11405.0,1803.0,2326.0,47.0,32.0,135.0,14.0,5.0,1.0,10897.0,-12136.0,1388.0,-693.0,87.0,-1.0,41.0,1.0
2022-05-23 15:58:17.547225-07:00,1224.8,782.7,1120.9,1008.2,901.7,950.9,1743.5,1231.0,3469.8,3467.4,1077.3,842.8,1757.9,3469.8,1203.5,1170.9,3469.8,3473.4,1539.4,2051.4,2718.3,3488.0,1565.5,3488.0,3475.9,3473.4,675.0,753.8,1888.9,980.7,933.9,843.6,2.0,39.0,1.0,11399.0,-11392.0,1819.0,2329.0,31.0,-11.0,-41.0,4.0,25.0,10.0,10915.0,-12119.0,1394.0,-695.0,24.0,17.0,-10.0,1.0
2022-05-23 15:58:17.666830-07:00,1226.6,782.7,1120.9,1008.2,922.8,956.8,1744.5,1231.0,3469.8,3467.4,1077.3,842.8,1762.7,3473.4,1205.3,1170.9,3469.8,3475.9,1535.7,2033.4,2718.3,3488.0,1565.5,3486.8,3475.9,3481.9,679.9,744.7,1888.9,980.7,933.9,842.8,1.0,-14.0,-2.0,11403.0,-11395.0,1792.0,2311.0,-18.0,-11.0,-51.0,2.0,1.0,-8.0,10907.0,-12126.0,1390.0,-707.0,-29.0,11.0,-28.0,1.0
2022-05-23 15:58:17.786494-07:00,1226.6,788.6,1112.1,1009.0,922.8,956.8,1744.5,1234.6,3469.8,3467.4,1086.0,843.6,1762.7,3473.4,1205.3,1160.3,3467.4,3475.9,1535.7,2033.4,2723.8,3495.3,1566.5,3486.8,3472.2,3481.9,679.9,744.7,1860.6,977.3,926.2,842.8,-15.0,-29.0,1.0,11398.0,-11396.0,1812.0,2315.0,6.0,39.0,85.0,0.0,-15.0,0.0,10914.0,-12119.0,1391.0,-707.0,48.0,5.0,25.0,1.0
2022-05-23 15:58:17.787749-07:00,1230.2,790.2,1112.1,1009.0,911.8,948.3,1733.9,1234.6,3468.6,3469.8,1086.0,843.6,1763.7,3479.5,1207.1,1160.3,3467.4,3469.8,1534.8,2055.4,2723.8,3495.3,1563.7,3500.2,3472.2,3469.8,679.1,759.6,1860.6,977.3,927.1,864.6,-11.0,15.0,1.0,11403.0,-11384.0,1836.0,2334.0,71.0,-21.0,39.0,-2.0,13.0,12.0,10933.0,-12102.0,1397.0,-703.0,102.0,-4.0,19.0,1.0
2022-05-23 15:58:17.847270-07:00,1230.2,790.2,1119.1,1010.8,911.8,948.3,1725.3,1238.2,3468.6,3469.8,1088.6,844.4,1763.7,3479.5,1208.0,1165.6,3466.1,3479.5,1534.8,2055.4,2727.1,3491.7,1563.7,3500.2,3473.4,3477.1,679.1,759.6,1861.5,970.5,927.1,864.6,-1.0,11.0,6.0,11428.0,-11358.0,1831.0,2340.0,33.0,-17.0,-27.0,3.0,7.0,3.0,10968.0,-12071.0,1395.0,-706.0,43.0,-1.0,-19.0,1.0
2022-05-23 15:58:17.848481-07:00,1231.0,796.0,1119.1,1010.8,912.7,953.4,1725.3,1238.2,3469.8,3467.4,1088.6,844.4,1759.8,3473.4,1208.0,1165.6,3466.1,3479.5,1535.7,2053.4,2727.1,3491.7,1561.8,3488.0,3473.4,3477.1,676.6,757.9,1861.5,970.5,934.7,846.1,-11.0,-19.0,11.0,11434.0,-11354.0,1825.0,2332.0,27.0,2.0,-11.0,0.0,-6.0,7.0,10974.0,-12065.0,1391.0,-710.0,22.0,0.0,2.0,1.0
2022-05-23 15:58:17.849830-07:00,1231.0,796.0,1117.4,1009.9,912.7,953.4,1736.8,1241.7,3469.8,3467.4,1084.2,847.0,1759.8,3473.4,1204.4,1170.0,3466.1,3462.5,1535.7,2053.4,2720.5,3494.1,1561.8,3488.0,3473.4,3471.0,676.6,757.9,1865.4,977.3,934.7,846.1,-4.0,7.0,7.0,11445.0,-11344.0,1823.0,2333.0,34.0,-28.0,-17.0,6.0,11.0,8.0,10983.0,-12056.0,1391.0,-711.0,34.0,-1.0,4.0,1.0
2022-05-23 15:58:17.876491-07:00,1206.2,788.6,1117.4,1009.9,909.3,956.0,1736.8,1241.7,3466.1,3466.1,1084.2,847.0,1763.7,3483.2,1204.4,1170.0,3466.1,3462.5,1534.8,2050.4,2720.5,3494.1,1556.2,3477.1,3473.4,3471.0,669.3,752.9,1865.4,977.3,932.2,837.7,4.0,1.0,-3.0,11458.0,-11335.0,1804.0,2325.0,38.0,-17.0,-62.0,4.0,0.0,-6.0,10992.0,-12049.0,1389.0,-713.0,22.0,-12.0,-16.0,1.0
2022-05-23 15:58:17.966495-07:00,1206.2,788.6,1132.2,1015.9,909.3,958.5,1743.5,1231.0,3466.1,3466.1,1083.4,844.4,1763.7,3479.5,1214.2,1158.6,3478.3,3475.9,1533.8,2050.4,2721.6,3486.8,1556.2,3477.1,3475.9,3474.6,670.1,752.9,1865.4,975.6,932.2,837.7,-20.0,-33.0,3.0,11490.0,-11309.0,1785.0,2310.0,165.0,-34.0,-52.0,1.0,-16.0,9.0,11015.0,-12029.0,1381.0,-714.0,183.0,-14.0,7.0,1.0
2022-05-23 15:58:17.996882-07:00,1220.4,789.4,1163.8,1015.9,912.7,958.5,1743.5,1231.0,3471.0,3468.6,1089.5,844.4,1761.8,3479.5,1214.2,1158.6,3478.3,3475.9,1533.8,2051.4,2721.6,3497.8,1561.8,3494.1,3475.9,3474.6,670.1,766.2,1865.4,969.6,930.5,841.9,-17.0,-5.0,6.0,11571.0,-11233.0,1755.0,2301.0,279.0,-114.0,-115.0,0.0,0.0,22.0,11082.0,-11967.0,1378.0,-718.0,242.0,-2.0,15.0,1.0
2022-05-23 15:58:18.056301-07:00,1220.4,789.4,1163.8,1059.9,912.7,956.0,1750.2,1240.8,3471.0,3468.6,1089.5,852.0,1761.8,3475.9,1254.2,1176.2,3474.6,3464.9,1531.0,2051.4,2721.6,3497.8,1561.8,3494.1,3483.2,3462.5,670.9,766.2,1864.5,969.6,930.5,841.9,-26.0,54.0,-42.0,11666.0,-11150.0,1633.0,2314.0,116.0,-427.0,-237.0,4.0,10.0,20.0,11146.0,-11907.0,1376.0,-728.0,-12.0,37.0,-22.0,1.0
2022-05-23 15:58:18.087394-07:00,1218.6,777.8,1245.3,1059.9,911.0,956.0,1750.2,1240.8,3467.4,3471.0,1099.0,852.0,1768.5,3475.9,1254.2,1176.2,3474.6,3464.9,1531.0,2042.4,2721.6,3494.1,1551.5,3491.7,3483.2,3462.5,670.9,811.9,1864.5,991.9,961.1,836.1,23.0,-56.0,20.0,11688.0,-11152.0,1330.0,2384.0,-78.0,-640.0,-411.0,-1.0,-7.0,-21.0,11118.0,-11932.0,1379.0,-747.0,30.0,21.0,-40.0,1.0
2022-05-23 15:58:18.147356-07:00,1218.6,777.8,1245.3,1127.9,911.0,956.0,1757.0,1241.7,3467.4,3471.0,1099.0,854.5,1768.5,3471.0,1292.7,1188.5,3466.1,3462.5,1521.8,2042.4,2737.0,3494.1,1551.5,3491.7,3469.8,3471.0,679.1,811.9,1877.2,991.9,961.1,836.1,12.0,-98.0,25.0,11833.0,-11006.0,1181.0,2425.0,801.0,-232.0,-27.0,5.0,-37.0,-6.0,11235.0,-11822.0,1365.0,-768.0,900.0,-15.0,8.0,1.0
2022-05-23 15:58:18.176398-07:00,1222.2,793.5,1341.3,1127.9,912.7,956.0,1757.0,1241.7,3474.6,3462.5,1109.5,854.5,1762.7,3471.0,1292.7,1188.5,3466.1,3462.5,1521.8,2053.4,2737.0,3488.0,1564.6,3495.3,3469.8,3471.0,679.1,818.5,1877.2,993.6,965.4,841.1,-20.0,45.0,-11.0,12159.0,-10637.0,1196.0,2454.0,1209.0,-239.0,-31.0,-8.0,47.0,-2.0,11554.0,-11511.0,1349.0,-796.0,1037.0,-5.0,29.0,1.0
2022-05-23 15:58:18.267158-07:00,1222.2,793.5,1341.3,1177.9,915.2,937.3,1812.9,1232.8,3474.6,3462.5,1109.5,852.8,1763.7,3469.8,1290.9,1188.5,3471.0,3480.7,1532.9,2059.4,2724.9,3488.0,1564.6,3495.3,3480.7,3478.3,684.0,825.2,1856.7,993.6,965.4,841.1,17.0,-1.0,9.0,12429.0,-10323.0,1157.0,2459.0,757.0,-164.0,-112.0,1.0,-4.0,-9.0,11808.0,-11250.0,1328.0,-818.0,668.0,-33.0,-6.0,1.0
2022-05-23 15:58:18.327587-07:00,1224.8,791.9,1341.3,1163.0,915.2,937.3,1812.9,1232.8,3473.4,3469.8,1103.4,852.8,1763.7,3469.8,1290.9,1188.5,3471.0,3480.7,1532.9,2059.4,2723.8,3484.4,1562.7,3495.3,3480.7,3478.3,684.0,825.2,1860.6,988.5,965.4,845.3,-14.0,0.0,8.0,12672.0,-10035.0,1135.0,2422.0,946.0,-142.0,-141.0,0.0,39.0,5.0,12021.0,-11025.0,1305.0,-829.0,799.0,-27.0,9.0,1.0
2022-05-23 15:58:18.328809-07:00,1224.8,791.9,1341.3,1163.0,913.5,926.2,1811.9,1225.7,3473.4,3469.8,1103.4,852.8,1766.6,3468.6,1280.1,1185.0,3468.6,3472.2,1531.0,2069.5,2723.8,3484.4,1562.7,3495.3,3477.1,3471.0,684.8,828.5,1860.6,988.5,965.4,845.3,0.0,20.0,8.0,12877.0,-9781.0,1128.0,2381.0,637.0,-5.0,-143.0,7.0,23.0,4.0,12210.0,-10817.0,1281.0,-840.0,515.0,-41.0,9.0,1.0
2022-05-23 15:58:18.446737-07:00,1224.8,783.6,1375.7,1206.2,913.5,926.2,1811.9,1225.7,3478.3,3467.4,1105.1,847.0,1766.6,3468.6,1280.1,1185.0,3468.6,3472.2,1531.0,2069.5,2733.7,3489.2,1559.9,3486.8,3477.1,3471.0,684.8,828.5,1864.5,997.9,967.1,841.1,-14.0,-8.0,2.0,13033.0,-9594.0,1108.0,2304.0,580.0,-61.0,-229.0,2.0,-10.0,11.0,12327.0,-10686.0,1258.0,-842.0,399.0,-38.0,1.0,1.0
2022-05-23 15:58:18.448148-07:00,1224.8,783.6,1375.7,1206.2,923.7,926.2,1825.5,1256.9,3478.3,3467.4,1105.1,847.0,1763.7,3462.5,1284.6,1189.4,3467.4,3473.4,1530.1,2083.6,2733.7,3489.2,1559.9,3486.8,3475.9,3478.3,690.5,825.2,1864.5,997.9,967.1,841.1,0.0,14.0,15.0,13187.0,-9402.0,1086.0,2226.0,478.0,34.0,-139.0,4.0,4.0,11.0,12446.0,-10548.0,1242.0,-849.0,377.0,-10.0,-1.0,1.0
2022-05-23 15:58:18.476478-07:00,1228.4,777.8,1393.0,1206.2,923.7,926.2,1825.5,1278.3,3473.4,3468.6,1100.8,852.0,1763.7,3462.5,1284.6,1185.9,3472.2,3473.4,1530.1,2083.6,2727.1,3489.2,1555.3,3486.8,3475.9,3478.3,690.5,825.2,1860.6,986.7,966.2,845.3,-26.0,8.0,-3.0,13260.0,-9317.0,1078.0,2151.0,145.0,-11.0,-198.0,5.0,11.0,38.0,12501.0,-10484.0,1236.0,-855.0,80.0,5.0,5.0,1.0
2022-05-23 15:58:18.537027-07:00,1224.8,777.8,1393.0,1206.2,903.4,922.0,1826.5,1278.3,3469.8,3468.6,1100.8,852.0,1762.7,3478.3,1290.9,1185.9,3472.2,3480.7,1536.6,2083.6,2727.1,3489.2,1555.3,3479.5,3475.9,3479.5,692.1,811.0,1860.6,986.7,966.2,835.2,6.0,20.0,-13.0,13263.0,-9328.0,997.0,2129.0,-191.0,-143.0,-134.0,9.0,23.0,-2.0,12489.0,-10495.0,1247.0,-865.0,-149.0,47.0,-18.0,1.0
2022-05-23 15:58:18.626520-07:00,1224.8,776.1,1400.3,1212.4,903.4,922.0,1826.5,1308.8,3469.8,3464.9,1113.9,847.8,1762.7,3478.3,1290.9,1184.1,3467.4,3480.7,1536.6,2083.6,2723.8,3495.3,1552.5,3479.5,3471.0,3479.5,692.1,811.0,1860.6,992.7,968.8,835.2,7.0,-35.0,7.0,13210.0,-9414.0,906.0,2118.0,-212.0,-78.0,-136.0,7.0,-18.0,-2.0,12429.0,-10565.0,1253.0,-879.0,-191.0,17.0,-33.0,1.0
2022-05-23 15:58:18.656529-07:00,1218.6,776.1,1400.3,1212.4,905.9,912.7,1854.7,1308.8,3474.6,3464.9,1113.9,847.8,1750.2,3467.4,1292.7,1184.1,3467.4,3477.1,1530.1,2066.5,2723.8,3495.3,1552.5,3489.2,3471.0,3473.4,685.6,809.4,1860.6,992.7,968.8,838.6,-1.0,-26.0,-4.0,13203.0,-9432.0,867.0,2101.0,5.0,-41.0,-35.0,5.0,13.0,2.0,12411.0,-10584.0,1257.0,-889.0,12.0,27.0,-3.0,1.0
2022-05-23 15:58:18.686901-07:00,1218.6,790.2,1420.4,1243.5,905.9,912.7,1854.7,1316.9,3474.6,3457.6,1110.4,850.3,1750.2,3467.4,1292.7,1184.1,3475.9,3477.1,1530.1,2066.5,2726.0,3490.5,1553.4,3489.2,3475.9,3473.4,685.6,809.4,1864.5,993.6,973.1,838.6,5.0,-21.0,2.0,13175.0,-9465.0,856.0,2125.0,-143.0,-2.0,38.0,2.0,-19.0,-18.0,12398.0,-10599.0,1266.0,-889.0,-71.0,2.0,24.0,1.0
2022-05-23 15:58:18.747251-07:00,1220.4,790.2,1420.4,1243.5,920.3,907.6,1847.9,1316.9,3469.8,3457.6,1110.4,850.3,1763.7,3467.4,1287.3,1184.1,3475.9,3472.2,1530.1,2083.6,2726.0,3490.5,1553.4,3497.8,3475.9,3467.4,685.6,815.2,1864.5,993.6,973.1,834.4,-9.0,3.0,-5.0,13166.0,-9480.0,884.0,2107.0,32.0,91.0,13.0,9.0,25.0,21.0,12399.0,-10598.0,1267.0,-882.0,55.0,-6.0,11.0,1.0
2022-05-23 15:58:18.777205-07:00,1220.4,777.8,1441.5,1255.1,920.3,907.6,1826.5,1312.4,3469.8,3477.1,1110.4,852.8,1763.7,3467.4,1287.3,1186.7,3475.9,3478.3,1530.1,2083.6,2745.8,3495.3,1548.7,3497.8,3485.6,3474.6,685.6,815.2,1864.5,997.0,973.9,834.4,-6.0,-8.0,-15.0,13145.0,-9506.0,887.0,2120.0,-132.0,-38.0,30.0,0.0,0.0,-4.0,12390.0,-10609.0,1271.0,-880.0,-88.0,-3.0,2.0,1.0
2022-05-23 15:58:18.836042-07:00,1222.2,781.9,1441.5,1255.1,911.8,897.4,1826.5,1312.4,3457.6,3472.2,1110.4,852.8,1756.0,3462.5,1287.3,1186.7,3475.9,3478.3,1528.3,2083.6,2745.8,3495.3,1559.9,3490.5,3485.6,3474.6,681.5,811.9,1864.5,997.0,977.3,838.6,0.0,-25.0,3.0,13143.0,-9507.0,885.0,2128.0,85.0,-3.0,19.0,6.0,-3.0,1.0,12392.0,-10607.0,1263.0,-874.0,84.0,-27.0,6.0,1.0
2022-05-23 15:58:18.986546-07:00,1222.2,781.9,1431.4,1256.0,911.8,897.4,1830.4,1291.8,3457.6,3472.2,1112.1,852.8,1756.0,3462.5,1286.4,1188.5,3467.4,3473.4,1528.3,2083.6,2726.0,3486.8,1559.9,3490.5,3478.3,3477.1,681.5,811.9,1858.6,997.0,977.3,838.6,-6.0,2.0,-10.0,13158.0,-9485.0,900.0,2129.0,21.0,23.0,23.0,4.0,11.0,4.0,12415.0,-10582.0,1255.0,-870.0,33.0,-13.0,4.0,1.0
2022-05-23 15:58:18.987797-07:00,1224.8,776.9,1431.4,1256.0,910.1,905.9,1830.4,1291.8,3457.6,3468.6,1112.1,852.8,1754.1,3475.9,1286.4,1188.5,3467.4,3473.4,1529.2,2073.5,2726.0,3486.8,1559.0,3489.2,3478.3,3477.1,684.8,804.4,1858.6,997.0,989.3,832.7,2.0,-22.0,-5.0,13151.0,-9491.0,917.0,2135.0,14.0,29.0,28.0,10.0,-19.0,2.0,12416.0,-10582.0,1249.0,-865.0,53.0,-17.0,6.0,1.0
2022-05-23 15:58:18.988652-07:00,1224.8,776.9,1439.6,1269.4,910.1,905.9,1810.0,1316.0,3457.6,3468.6,1109.5,852.8,1754.1,3475.9,1291.8,1191.2,3473.4,3473.4,1529.2,2073.5,2729.3,3488.0,1559.0,3489.2,3469.8,3479.5,684.8,804.4,1869.3,1006.5,989.3,832.7,-6.0,8.0,-17.0,13159.0,-9482.0,909.0,2131.0,-4.0,-41.0,-41.0,4.0,14.0,1.0,12428.0,-10569.0,1239.0,-863.0,16.0,-24.0,-17.0,1.0
2022-05-23 15:58:19.106678-07:00,1223.0,786.1,1424.1,1269.4,915.2,905.9,1810.0,1316.0,3464.9,3478.3,1108.6,852.8,1760.8,3463.7,1291.8,1191.2,3473.4,3473.4,1528.3,2072.5,2729.3,3484.4,1544.1,3481.9,3469.8,3479.5,679.9,803.5,1869.3,1008.2,983.3,850.3,-16.0,-33.0,12.0,13154.0,-9490.0,896.0,2131.0,-15.0,-10.0,-4.0,-4.0,-12.0,9.0,12429.0,-10569.0,1225.0,-861.0,16.0,-23.0,-8.0,1.0
