Time,P0,P1,P2,P3,P4,P5,P6,P7,P8,P9,P10,P11,P12,P13,P14,P15,P16,P17,P18,P19,P20,P21,P22,P23,P24,P25,P26,P27,P28,P29,P30,P31,ECG,AX0,AY0,AZ0,QW0,QX0,QY0,QZ0,GX0,GY0,GZ0,AX1,AY1,AZ1,QW1,QX1,QY1,QZ1,GX1,GY1,GZ1
2022-05-23 15:40:42.564573-07:00,1290.0,791.0,1148.0,1003.0,983.3,888.2,1708.1,1319.6,3462.5,3468.6,1118.2,882.3,1757.9,3464.9,1228.4,34.4,3475.9,3468.6,1625.6,1980.6,2604.8,3466.1,1660.6,3486.8,3478.3,3471.0,667.6,778.6,1895.8,1054.8,1018.5,927.1,31.0,11.0,-5.0,10281.0,-12491.0,-400.0,2561.0,37.0,19.0,15.0,29.0,-1.0,-6.0,9038.0,-13303.0,2503.0,-1873.0,27.0,12.0,4.0,1.0
2022-05-23 15:40:42.566694-07:00,1290.0,791.0,1148.0,1003.9,984.2,889.8,1687.2,1315.1,3462.5,3468.6,1118.2,883.1,1760.8,3471.0,1225.7,79.4,3473.4,3469.8,1629.4,1969.7,2610.2,3466.1,1660.6,3486.8,3472.2,3471.0,666.0,772.0,1906.6,1054.8,1018.5,927.1,21.0,12.0,-11.0,10282.0,-12491.0,-410.0,2553.0,1.0,-28.0,-16.0,24.0,4.0,-4.0,9035.0,-13306.0,2494.0,-1883.0,6.0,-2.0,-14.0,1.0
2022-05-23 15:40:42.684792-07:00,1293.6,800.2,1149.8,1006.5,984.2,889.8,1687.2,1315.1,3477.1,3467.4,1108.6,875.5,1760.8,3471.0,1225.7,79.4,3473.4,3469.8,1629.4,1969.7,2596.1,3463.7,1666.3,3497.8,3472.2,3471.0,666.0,772.0,1908.5,1053.9,1005.6,932.2,-7.0,3.0,0.0,10282.0,-12490.0,-430.0,2555.0,-8.0,-39.0,-34.0,0.0,-12.0,-9.0,9035.0,-13308.0,2480.0,-1887.0,-6.0,-16.0,-31.0,1.0
2022-05-23 15:40:42.685693-07:00,1293.6,800.2,1149.8,1006.5,981.6,878.0,1699.5,1307.9,3477.1,3467.4,1108.6,875.5,1756.0,3466.1,1239.9,1204.4,3475.9,3473.4,1623.7,1971.7,2596.1,3463.7,1666.3,3497.8,3477.1,3478.3,665.2,774.5,1908.5,1053.9,1005.6,932.2,-24.0,-6.0,8.0,10270.0,-12498.0,-444.0,2561.0,-72.0,-12.0,6.0,-14.0,-21.0,4.0,9024.0,-13317.0,2473.0,-1882.0,-64.0,-16.0,-8.0,1.0
2022-05-23 15:40:42.774352-07:00,1305.2,796.9,1148.0,998.7,981.6,878.0,1699.5,1307.9,3472.2,3477.1,1112.1,878.0,1756.0,3466.1,1239.9,1204.4,3475.9,3473.4,1623.7,1971.7,2605.8,3447.9,1662.5,3491.7,3477.1,3478.3,665.2,774.5,1903.6,1058.2,1011.6,934.7,-18.0,-14.0,19.0,10247.0,-12516.0,-434.0,2572.0,-37.0,28.0,39.0,-16.0,-35.0,8.0,9010.0,-13327.0,2482.0,-1866.0,-21.0,-3.0,33.0,1.0
2022-05-23 15:40:42.775946-07:00,1305.2,796.9,1148.0,998.7,976.5,883.9,1695.7,1322.3,3472.2,3477.1,1112.1,878.0,1765.6,3468.6,1229.3,1198.2,3467.4,3467.4,1619.9,1971.7,2605.8,3447.9,1662.5,3491.7,3467.4,3469.8,666.8,778.6,1903.6,1058.2,1011.6,934.7,2.0,10.0,4.0,10235.0,-12524.0,-407.0,2579.0,-79.0,26.0,59.0,9.0,-7.0,1.0,9003.0,-13330.0,2501.0,-1855.0,-73.0,10.0,47.0,1.0
2022-05-23 15:40:42.865530-07:00,1296.3,800.2,1143.6,1004.8,976.5,883.9,1695.7,1322.3,3472.2,3467.4,1120.9,878.0,1765.6,3468.6,1229.3,1198.2,3467.4,3467.4,1619.9,1971.7,2625.4,3456.4,1660.6,3491.7,3467.4,3469.8,666.8,778.6,1906.6,1058.2,1000.5,937.3,-9.0,12.0,-2.0,10211.0,-12544.0,-378.0,2583.0,-51.0,52.0,74.0,-8.0,-11.0,2.0,8987.0,-13339.0,2518.0,-1841.0,-44.0,2.0,37.0,1.0
2022-05-23 15:40:42.925480-07:00,1301.6,800.2,1143.6,1004.8,972.2,888.2,1695.7,1316.0,3471.0,3467.4,1120.9,878.0,1763.7,3473.4,1233.7,1203.5,3472.2,3473.4,1635.0,1972.7,2625.4,3456.4,1660.6,3484.4,3474.6,3475.9,666.8,775.3,1906.6,1058.2,1000.5,927.9,-5.0,10.0,-3.0,10192.0,-12559.0,-358.0,2588.0,-29.0,14.0,35.0,-7.0,-8.0,-5.0,8975.0,-13346.0,2536.0,-1827.0,-31.0,5.0,48.0,1.0
2022-05-23 15:40:42.926677-07:00,1301.6,800.2,1140.1,1001.3,972.2,888.2,1695.7,1299.8,3471.0,3473.4,1126.1,876.4,1763.7,3473.4,1233.7,1203.5,3467.4,3473.4,1635.0,1972.7,2597.2,3492.9,1656.8,3484.4,3471.0,3475.9,666.8,775.3,1900.7,1056.5,1008.2,927.9,7.0,19.0,-4.0,10184.0,-12565.0,-343.0,2589.0,-6.0,24.0,26.0,1.0,3.0,-8.0,8968.0,-13348.0,2554.0,-1819.0,-12.0,13.0,31.0,1.0
2022-05-23 15:40:42.985309-07:00,1289.1,800.2,1140.1,1001.3,985.9,884.8,1679.5,1299.8,3466.1,3473.4,1126.1,876.4,1757.0,3468.6,1223.9,1203.5,3467.4,3475.9,1627.5,1967.7,2597.2,3492.9,1656.8,3491.7,3471.0,3469.8,666.0,788.6,1900.7,1056.5,1008.2,933.0,0.0,8.0,-9.0,10189.0,-12562.0,-331.0,2590.0,58.0,-10.0,8.0,4.0,-10.0,2.0,8975.0,-13343.0,2558.0,-1818.0,58.0,-3.0,2.0,1.0
2022-05-23 15:40:43.075273-07:00,1289.1,803.5,1146.3,1007.3,985.9,884.8,1679.5,1302.5,3466.1,3464.9,1117.4,874.7,1757.0,3468.6,1223.9,1205.3,3473.4,3475.9,1627.5,1967.7,2591.8,3457.6,1655.8,3491.7,3480.7,3469.8,666.0,788.6,1889.9,1052.2,1009.0,933.0,-3.0,4.0,0.0,10223.0,-12530.0,-339.0,2609.0,96.0,-58.0,3.0,1.0,-8.0,0.0,9012.0,-13318.0,2551.0,-1823.0,90.0,-17.0,-1.0,1.0
2022-05-23 15:40:43.076714-07:00,1301.6,803.5,1146.3,1007.3,983.3,880.6,1695.7,1302.5,3477.1,3464.9,1117.4,874.7,1757.0,3467.4,1232.8,1205.3,3473.4,3469.8,1616.2,1975.6,2591.8,3457.6,1655.8,3486.8,3480.7,3475.9,670.1,778.6,1889.9,1052.2,1009.0,939.8,2.0,-1.0,13.0,10242.0,-12510.0,-342.0,2628.0,36.0,-11.0,32.0,-6.0,-11.0,-8.0,9035.0,-13303.0,2551.0,-1821.0,35.0,-9.0,32.0,1.0
2022-05-23 15:40:43.135448-07:00,1301.6,801.0,1137.5,991.0,983.3,880.6,1682.4,1299.0,3477.1,3467.4,1113.9,877.2,1757.0,3467.4,1230.2,1201.8,3467.4,3467.4,1616.2,1975.6,2604.8,3455.2,1662.5,3486.8,3467.4,3473.4,670.1,778.6,1907.5,1047.8,1006.5,939.8,-31.0,2.0,-6.0,10240.0,-12515.0,-310.0,2619.0,-11.0,57.0,33.0,-21.0,-27.0,14.0,9034.0,-13303.0,2566.0,-1807.0,-21.0,-6.0,41.0,1.0
2022-05-23 15:40:43.224801-07:00,1291.8,805.2,1137.5,991.0,981.6,882.3,1682.4,1299.0,3461.3,3473.4,1113.9,877.2,1758.9,3467.4,1230.2,1201.8,3467.4,3467.4,1619.0,1983.6,2604.8,3455.2,1663.4,3475.9,3467.4,3473.4,669.3,782.7,1907.5,1047.8,1003.9,929.6,4.0,22.0,16.0,10251.0,-12502.0,-296.0,2637.0,72.0,-27.0,54.0,-3.0,-2.0,0.0,9058.0,-13283.0,2592.0,-1798.0,75.0,39.0,71.0,1.0
2022-05-23 15:40:43.284795-07:00,1291.8,805.2,1134.0,993.6,981.6,882.3,1677.6,1295.4,3461.3,3473.4,1116.5,878.0,1758.9,3467.4,1231.0,1200.0,3466.1,3473.4,1619.0,1983.6,2600.4,3456.4,1663.4,3475.9,3471.0,3475.9,669.3,782.7,1896.7,1053.0,1003.9,929.6,32.0,38.0,13.0,10255.0,-12501.0,-265.0,2631.0,-2.0,88.0,22.0,25.0,13.0,6.0,9057.0,-13276.0,2623.0,-1809.0,-24.0,75.0,32.0,1.0
2022-05-23 15:40:43.286139-07:00,1300.7,801.9,1134.0,993.6,980.7,888.2,1677.6,1295.4,3473.4,3467.4,1116.5,878.0,1748.3,3475.9,1231.0,1200.0,3466.1,3473.4,1626.5,1972.7,2600.4,3456.4,1660.6,3488.0,3471.0,3475.9,669.3,774.5,1896.7,1053.0,1000.5,940.7,23.0,16.0,0.0,10250.0,-12515.0,-239.0,2587.0,-47.0,134.0,-17.0,18.0,2.0,-5.0,9029.0,-13285.0,2645.0,-1846.0,-74.0,99.0,-18.0,1.0
2022-05-23 15:40:43.375504-07:00,1300.7,801.9,1134.0,995.3,980.7,888.2,1677.6,1324.1,3473.4,3467.4,1119.1,881.4,1748.3,3475.9,1231.9,1201.8,3471.0,3479.5,1626.5,1972.7,2595.0,3463.7,1660.6,3488.0,3467.4,3475.9,669.3,774.5,1899.7,1047.0,1000.5,940.7,-10.0,-25.0,-9.0,10256.0,-12520.0,-222.0,2541.0,58.0,62.0,-38.0,2.0,-36.0,2.0,9015.0,-13289.0,2657.0,-1874.0,33.0,72.0,-10.0,1.0
2022-05-23 15:40:43.376584-07:00,1299.8,793.5,1133.1,995.3,981.6,883.9,1677.6,1324.1,3467.4,3474.6,1106.0,881.4,1752.1,3457.6,1231.9,1201.8,3471.0,3479.5,1621.8,1964.7,2595.0,3426.2,1654.9,3491.7,3467.4,3475.9,670.1,771.1,1899.7,1054.8,996.2,951.7,-22.0,-6.0,-31.0,10278.0,-12503.0,-214.0,2535.0,72.0,13.0,15.0,-28.0,-23.0,-15.0,9031.0,-13273.0,2667.0,-1893.0,72.0,-5.0,13.0,1.0
2022-05-23 15:40:43.524850-07:00,1299.8,793.5,1133.1,988.5,981.6,880.6,1698.6,1348.5,3467.4,3474.6,1106.0,882.3,1752.1,3468.6,1235.5,1201.8,3475.9,3473.4,1622.8,1964.7,2597.2,3426.2,1654.9,3491.7,3469.8,3472.2,659.5,771.1,1898.7,1054.8,996.2,951.7,-15.0,37.0,-7.0,10300.0,-12480.0,-211.0,2560.0,79.0,-96.0,33.0,-35.0,11.0,-17.0,9064.0,-13252.0,2665.0,-1887.0,94.0,-17.0,28.0,1.0
2022-05-23 15:40:43.528503-07:00,1285.5,799.4,1133.1,988.5,978.2,880.6,1698.6,1348.5,3469.8,3473.4,1112.1,882.3,1746.4,3468.6,1235.5,1201.8,3475.9,3473.4,1622.8,1975.6,2597.2,3454.0,1651.1,3479.5,3469.8,3472.2,659.5,778.6,1898.7,1051.3,1014.2,934.7,10.0,31.0,-1.0,10315.0,-12464.0,-207.0,2579.0,18.0,30.0,4.0,-2.0,10.0,-10.0,9081.0,-13240.0,2667.0,-1886.0,-17.0,22.0,-9.0,1.0
2022-05-23 15:40:43.529222-07:00,1285.5,799.4,1133.1,989.3,978.2,878.9,1683.3,1291.8,3469.8,3473.4,1112.1,883.1,1746.4,3471.0,1232.8,1202.7,3473.4,3475.9,1617.1,1975.6,2611.3,3454.0,1651.1,3479.5,3477.1,3472.2,666.0,778.6,1922.3,1051.3,1014.2,934.7,15.0,-12.0,-15.0,10317.0,-12467.0,-205.0,2559.0,-2.0,-6.0,-20.0,23.0,-18.0,0.0,9074.0,-13243.0,2667.0,-1896.0,3.0,2.0,-14.0,1.0
2022-05-23 15:40:43.585042-07:00,1290.0,794.4,1140.1,989.3,987.6,878.9,1683.3,1291.8,3467.4,3472.2,1107.8,883.1,1752.1,3471.0,1232.8,1202.7,3473.4,3475.9,1617.1,1970.7,2611.3,3452.8,1648.3,3490.5,3477.1,3472.2,666.0,769.5,1922.3,1056.5,1009.0,933.0,19.0,-10.0,14.0,10322.0,-12459.0,-221.0,2569.0,36.0,-53.0,3.0,26.0,-19.0,3.0,9083.0,-13240.0,2650.0,-1901.0,67.0,-35.0,-10.0,1.0
2022-05-23 15:40:43.644307-07:00,1290.0,794.4,1140.1,1012.5,974.8,884.8,1677.6,1299.8,3467.4,3472.2,1107.8,878.9,1748.3,3477.1,1230.2,1200.9,3475.9,3475.9,1627.5,1968.7,2597.2,3452.8,1648.3,3490.5,3480.7,3462.5,672.5,776.9,1887.9,1056.5,1009.0,933.0,2.0,13.0,15.0,10341.0,-12441.0,-234.0,2584.0,38.0,-57.0,-4.0,2.0,-2.0,1.0,9106.0,-13227.0,2637.0,-1900.0,30.0,2.0,2.0,1.0
2022-05-23 15:40:43.704670-07:00,1287.3,794.4,1143.6,997.0,974.8,884.8,1677.6,1299.8,3471.0,3473.4,1107.8,875.5,1748.3,3477.1,1230.2,1200.9,3475.9,3475.9,1627.5,1968.7,2599.3,3454.0,1649.2,3490.5,3480.7,3462.5,672.5,776.9,1891.8,1047.8,1004.8,927.9,-9.0,10.0,7.0,10346.0,-12435.0,-250.0,2589.0,-2.0,-21.0,-44.0,-6.0,-13.0,9.0,9105.0,-13226.0,2639.0,-1904.0,-16.0,24.0,4.0,1.0
2022-05-23 15:40:43.764995-07:00,1287.3,794.4,1143.6,997.0,986.7,885.6,1679.5,1302.5,3471.0,3473.4,1107.8,875.5,1754.1,3466.1,1230.2,1194.7,3472.2,3469.8,1621.8,1970.7,2599.3,3454.0,1649.2,3490.5,3469.8,3477.1,666.0,770.3,1891.8,1047.8,1004.8,927.9,-6.0,6.0,-2.0,10355.0,-12429.0,-265.0,2580.0,10.0,5.0,-32.0,-12.0,-6.0,-6.0,9103.0,-13224.0,2648.0,-1914.0,-11.0,36.0,6.0,1.0
2022-05-23 15:40:43.767024-07:00,1287.3,789.4,1137.5,997.9,986.7,885.6,1679.5,1302.5,3471.0,3471.0,1106.9,875.5,1754.1,3466.1,1230.2,1194.7,3472.2,3469.8,1621.8,1970.7,2601.5,3456.4,1645.4,3485.6,3469.8,3477.1,666.0,770.3,1891.8,1047.0,998.7,930.5,-10.0,1.0,-8.0,10348.0,-12436.0,-262.0,2575.0,9.0,-8.0,3.0,-14.0,-8.0,-5.0,9094.0,-13229.0,2656.0,-1914.0,2.0,9.0,19.0,1.0
2022-05-23 15:40:43.824537-07:00,1287.3,789.4,1137.5,997.9,972.2,874.7,1679.5,1313.3,3471.0,3471.0,1106.9,875.5,1751.2,3478.3,1229.3,1201.8,3471.0,3466.1,1615.2,1965.7,2601.5,3456.4,1645.4,3485.6,3467.4,3477.1,661.9,772.0,1891.8,1047.0,998.7,930.5,-3.0,25.0,-15.0,10343.0,-12439.0,-259.0,2581.0,-41.0,6.0,6.0,-7.0,2.0,-13.0,9090.0,-13231.0,2666.0,-1911.0,-40.0,8.0,5.0,1.0
2022-05-23 15:40:43.914788-07:00,1295.4,789.4,1127.9,987.6,972.2,874.7,1679.5,1313.3,3474.6,3471.0,1110.4,881.4,1751.2,3478.3,1229.3,1201.8,3471.0,3466.1,1615.2,1965.7,2605.8,3458.9,1647.3,3486.8,3467.4,3477.1,661.9,772.0,1898.7,1049.6,998.7,939.8,-6.0,12.0,-22.0,10330.0,-12451.0,-259.0,2577.0,0.0,9.0,-15.0,-3.0,-6.0,-9.0,9078.0,-13239.0,2668.0,-1908.0,-8.0,-7.0,-8.0,1.0
2022-05-23 15:40:43.945489-07:00,1285.5,789.4,1127.9,987.6,980.7,882.3,1686.2,1314.2,3471.0,3471.0,1110.4,881.4,1757.9,3471.0,1228.4,1196.5,3474.6,3478.3,1628.4,1964.7,2605.8,3458.9,1647.3,3486.8,3471.0,3473.4,662.7,776.9,1898.7,1049.6,998.7,927.9,1.0,1.0,-5.0,10322.0,-12456.0,-273.0,2581.0,-26.0,-43.0,-21.0,5.0,-11.0,-8.0,9074.0,-13243.0,2661.0,-1905.0,-12.0,-25.0,-17.0,1.0
2022-05-23 15:40:44.034888-07:00,1285.5,797.7,1126.1,995.3,980.7,882.3,1686.2,1303.4,3471.0,3466.1,1113.9,875.5,1757.9,3471.0,1228.4,1192.9,3467.4,3478.3,1628.4,1964.7,2595.0,3462.5,1646.4,3486.8,3466.1,3473.4,662.7,776.9,1892.8,1052.2,996.2,927.9,3.0,5.0,8.0,10322.0,-12453.0,-290.0,2594.0,-9.0,-49.0,-9.0,5.0,-15.0,1.0,9076.0,-13246.0,2648.0,-1900.0,1.0,-27.0,-11.0,1.0
2022-05-23 15:40:44.035866-07:00,1288.2,797.7,1126.1,995.3,979.0,889.0,1669.1,1303.4,3469.8,3466.1,1113.9,875.5,1753.1,3475.9,1231.0,1192.9,3467.4,3480.7,1618.1,1964.7,2595.0,3462.5,1646.4,3496.6,3466.1,3483.2,666.0,775.3,1892.8,1052.2,996.2,932.2,1.0,7.0,9.0,10327.0,-12447.0,-305.0,2600.0,17.0,-23.0,-20.0,1.0,-9.0,5.0,9080.0,-13245.0,2642.0,-1895.0,13.0,-11.0,-7.0,1.0
2022-05-23 15:40:44.065268-07:00,1288.2,800.2,1134.0,983.3,979.0,889.0,1669.1,1302.5,3469.8,3471.0,1107.8,876.4,1753.1,3475.9,1231.0,1208.0,3469.8,3480.7,1618.1,1964.7,2593.9,3454.0,1645.4,3496.6,3474.6,3483.2,666.0,775.3,1917.4,1047.0,998.7,932.2,-5.0,-1.0,5.0,10327.0,-12447.0,-306.0,2601.0,-7.0,-9.0,0.0,-1.0,-18.0,4.0,9079.0,-13246.0,2642.0,-1894.0,-8.0,-7.0,5.0,1.0
2022-05-23 15:40:44.245098-07:00,1283.7,800.2,1134.0,983.3,986.7,882.3,1672.9,1302.5,3467.4,3471.0,1107.8,876.4,1739.7,3462.5,1229.3,1208.0,3469.8,3472.2,1611.5,1962.8,2593.9,3454.0,1645.4,3490.5,3474.6,3479.5,673.3,775.3,1917.4,1047.0,998.7,930.5,4.0,13.0,0.0,10329.0,-12445.0,-308.0,2604.0,5.0,-2.0,1.0,6.0,-1.0,2.0,9081.0,-13244.0,2643.0,-1894.0,2.0,0.0,12.0,1.0
2022-05-23 15:40:44.246922-07:00,1283.7,793.5,1124.4,994.5,986.7,882.3,1682.4,1293.6,3467.4,3471.0,1109.5,878.0,1739.7,3462.5,1228.4,1196.5,3468.6,3474.6,1611.5,1962.8,2591.8,3447.9,1646.4,3490.5,3478.3,3472.2,673.3,775.3,1868.4,1041.8,1001.3,930.5,-2.0,3.0,-4.0,10326.0,-12447.0,-314.0,2606.0,-21.0,-29.0,-16.0,0.0,-9.0,-1.0,9078.0,-13246.0,2643.0,-1894.0,-20.0,-2.0,-2.0,1.0
2022-05-23 15:40:44.247771-07:00,1285.5,791.0,1124.4,994.5,979.9,877.2,1682.4,1293.6,3478.3,3469.8,1109.5,878.0,1758.9,3468.6,1228.4,1196.5,3468.6,3474.6,1623.7,1969.7,2591.8,3447.9,1643.5,3489.2,3478.3,3472.2,667.6,773.6,1868.4,1041.8,1002.2,920.3,-11.0,0.0,3.0,10323.0,-12447.0,-322.0,2615.0,-10.0,-12.0,12.0,-9.0,-14.0,1.0,9076.0,-13247.0,2644.0,-1893.0,-10.0,1.0,6.0,1.0
2022-05-23 15:40:44.304785-07:00,1285.5,791.0,1127.9,984.2,979.9,877.2,1668.2,1290.9,3478.3,3469.8,1108.6,873.0,1758.9,3468.6,1223.9,1196.5,3462.5,3473.4,1623.7,1969.7,2601.5,3447.9,1643.5,3489.2,3473.4,3472.2,667.6,773.6,1886.0,1047.0,1002.2,920.3,-6.0,10.0,-3.0,10312.0,-12455.0,-314.0,2618.0,-19.0,18.0,17.0,-4.0,-11.0,1.0,9067.0,-13253.0,2651.0,-1886.0,-20.0,7.0,18.0,1.0
2022-05-23 15:40:44.394412-07:00,1287.3,801.9,1127.9,984.2,973.1,879.7,1668.2,1290.9,3466.1,3474.6,1108.6,873.0,1745.4,3464.9,1223.9,1196.5,3462.5,3473.4,1624.7,1972.7,2601.5,3447.9,1648.3,3490.5,3473.4,3472.2,668.4,772.0,1886.0,1047.0,1003.9,922.0,6.0,15.0,-6.0,10316.0,-12452.0,-312.0,2619.0,13.0,8.0,0.0,0.0,4.0,-8.0,9071.0,-13249.0,2655.0,-1886.0,5.0,4.0,5.0,1.0
2022-05-23 15:40:44.396033-07:00,1287.3,801.9,1141.0,985.0,973.1,879.7,1678.6,1307.9,3466.1,3474.6,1112.1,873.0,1745.4,3464.9,1223.0,1197.4,3468.6,3473.4,1624.7,1972.7,2600.4,3450.4,1648.3,3490.5,3474.6,3473.4,668.4,772.0,1892.8,1042.6,1003.9,922.0,-5.0,7.0,-13.0,10314.0,-12455.0,-307.0,2614.0,-15.0,-1.0,-6.0,-2.0,-8.0,-3.0,9069.0,-13251.0,2655.0,-1885.0,-10.0,-2.0,-6.0,1.0
2022-05-23 15:40:44.484639-07:00,1283.7,798.5,1122.6,985.0,979.9,892.4,1678.6,1307.9,3469.8,3471.0,1107.8,873.0,1754.1,3462.5,1223.0,1197.4,3468.6,3473.4,1612.4,1961.8,2600.4,3456.4,1645.4,3484.4,3474.6,3473.4,661.9,770.3,1892.8,1045.2,997.0,931.3,-2.0,18.0,-5.0,10318.0,-12451.0,-312.0,2620.0,45.0,-29.0,-11.0,-1.0,-7.0,-2.0,9074.0,-13248.0,2652.0,-1883.0,42.0,-13.0,-5.0,1.0
2022-05-23 15:40:44.486471-07:00,1283.7,798.5,1122.6,984.2,979.9,873.8,1675.7,1295.4,3469.8,3471.0,1107.8,877.2,1754.1,3460.1,1232.8,1204.4,3457.6,3478.3,1619.9,1961.8,2591.8,3456.4,1645.4,3484.4,3478.3,3478.3,663.6,770.3,1893.8,1045.2,997.0,931.3,-4.0,8.0,1.0,10323.0,-12446.0,-320.0,2621.0,-21.0,9.0,-13.0,-3.0,0.0,-1.0,9080.0,-13245.0,2647.0,-1887.0,-23.0,-6.0,-17.0,1.0
2022-05-23 15:40:44.604807-07:00,1283.7,787.7,1130.5,984.2,973.1,873.8,1675.7,1295.4,3456.4,3467.4,1114.7,877.2,1753.1,3460.1,1232.8,1204.4,3457.6,3478.3,1619.9,1968.7,2591.8,3447.9,1640.7,3491.7,3478.3,3478.3,663.6,772.0,1893.8,1043.5,1003.9,928.8,-3.0,-3.0,0.0,10325.0,-12445.0,-326.0,2619.0,28.0,-23.0,-7.0,0.0,-14.0,0.0,9079.0,-13246.0,2644.0,-1889.0,29.0,-8.0,-5.0,1.0
2022-05-23 15:40:44.605808-07:00,1283.7,787.7,1130.5,985.9,973.1,883.9,1681.4,1299.0,3456.4,3467.4,1114.7,882.3,1753.1,3468.6,1225.7,1203.5,3472.2,3468.6,1619.0,1968.7,2601.5,3447.9,1640.7,3491.7,3478.3,3473.4,669.3,772.0,1890.9,1043.5,1003.9,928.8,1.0,16.0,5.0,10334.0,-12436.0,-328.0,2625.0,9.0,-6.0,2.0,-1.0,0.0,1.0,9091.0,-13238.0,2641.0,-1889.0,14.0,2.0,-2.0,1.0
2022-05-23 15:40:44.784770-07:00,1287.3,805.2,1120.0,985.9,973.9,883.9,1681.4,1299.0,3461.3,3464.9,1113.0,882.3,1740.6,3468.6,1225.7,1203.5,3472.2,3468.6,1619.0,1966.7,2601.5,3450.4,1644.5,3484.4,3478.3,3473.4,669.3,771.1,1890.9,1046.1,988.5,931.3,-3.0,6.0,0.0,10334.0,-12437.0,-322.0,2618.0,6.0,25.0,6.0,-1.0,-10.0,5.0,9089.0,-13239.0,2642.0,-1891.0,-1.0,10.0,-1.0,1.0
2022-05-23 15:40:44.786704-07:00,1287.3,805.2,1120.0,985.0,973.9,879.7,1664.4,1312.4,3461.3,3464.9,1113.0,875.5,1740.6,3472.2,1223.9,1192.0,3478.3,3467.4,1622.8,1966.7,2589.6,3450.4,1644.5,3484.4,3462.5,3467.4,663.6,771.1,1895.8,1046.1,988.5,931.3,1.0,5.0,-1.0,10337.0,-12435.0,-320.0,2616.0,10.0,13.0,-5.0,5.0,-6.0,-3.0,9089.0,-13238.0,2643.0,-1893.0,5.0,7.0,-4.0,1.0
2022-05-23 15:40:44.935438-07:00,1271.2,800.2,1113.0,982.5,977.3,879.7,1664.4,1312.4,3468.6,3466.1,1113.9,871.3,1749.3,3472.2,1223.9,1192.0,3478.3,3467.4,1622.8,1967.7,2595.0,3444.3,1642.6,3490.5,3462.5,3467.4,663.6,771.1,1887.9,1046.1,997.9,915.2,-8.0,-4.0,0.0,10337.0,-12436.0,-316.0,2613.0,-1.0,2.0,11.0,0.0,-15.0,2.0,9089.0,-13238.0,2643.0,-1893.0,0.0,0.0,8.0,1.0
2022-05-23 15:40:44.936822-07:00,1271.2,800.2,1113.0,982.5,968.8,885.6,1671.0,1302.5,3468.6,3466.1,1113.9,871.3,1740.6,3460.1,1218.6,1199.1,3471.0,3478.3,1620.9,1963.7,2595.0,3444.3,1642.6,3490.5,3472.2,3468.6,666.8,778.6,1887.9,1046.1,997.9,915.2,-4.0,9.0,3.0,10336.0,-12437.0,-306.0,2615.0,-3.0,23.0,20.0,-4.0,-7.0,1.0,9091.0,-13237.0,2648.0,-1889.0,-7.0,4.0,17.0,1.0
2022-05-23 15:40:44.938355-07:00,1283.7,787.7,1116.5,977.3,968.8,885.6,1671.0,1302.5,3473.4,3467.4,1110.4,870.5,1740.6,3460.1,1218.6,1199.1,3471.0,3478.3,1620.9,1963.7,2592.9,3456.4,1634.1,3489.2,3472.2,3468.6,666.8,778.6,1892.8,1045.2,991.9,927.9,-6.0,14.0,-7.0,10332.0,-12441.0,-290.0,2610.0,-5.0,29.0,15.0,-1.0,-9.0,3.0,9087.0,-13239.0,2653.0,-1886.0,-11.0,8.0,9.0,1.0
2022-05-23 15:40:45.024863-07:00,1283.7,787.7,1116.5,977.3,980.7,873.0,1671.0,1291.8,3473.4,3467.4,1110.4,870.5,1749.3,3461.3,1223.9,1200.0,3468.6,3474.6,1613.4,1970.7,2592.9,3456.4,1634.1,3489.2,3474.6,3480.7,655.4,770.3,1892.8,1045.2,991.9,927.9,0.0,9.0,-5.0,10328.0,-12445.0,-288.0,2610.0,-12.0,10.0,1.0,1.0,-7.0,-3.0,9082.0,-13242.0,2654.0,-1886.0,-16.0,-3.0,2.0,1.0
2022-05-23 15:40:45.026351-07:00,1278.3,797.7,1113.0,987.6,980.7,873.0,1671.0,1291.8,3464.9,3462.5,1105.1,878.9,1749.3,3461.3,1223.9,1200.0,3468.6,3474.6,1613.4,1970.7,2590.7,3438.2,1641.6,3497.8,3474.6,3480.7,655.4,770.3,1886.0,1045.2,998.7,927.1,-4.0,1.0,-4.0,10327.0,-12445.0,-287.0,2611.0,6.0,-7.0,10.0,1.0,-10.0,-5.0,9081.0,-13243.0,2653.0,-1885.0,5.0,-10.0,4.0,1.0
2022-05-23 15:40:45.055825-07:00,1281.9,801.0,1118.2,991.0,969.6,875.5,1671.0,1290.9,3462.5,3471.0,1110.4,872.1,1734.9,3466.1,1223.9,1190.3,3467.4,3479.5,1615.2,1951.9,2599.3,3457.6,1641.6,3491.7,3467.4,3473.4,666.0,769.5,1899.7,1041.8,1000.5,925.4,2.0,11.0,6.0,10327.0,-12443.0,-295.0,2620.0,-9.0,-3.0,-14.0,-1.0,-5.0,3.0,9081.0,-13243.0,2651.0,-1885.0,-12.0,5.0,-17.0,1.0
2022-05-23 15:40:45.064383-07:00,1289.1,801.0,1118.2,991.0,982.5,873.8,1670.1,1290.9,3464.9,3471.0,1110.4,872.1,1747.3,3468.6,1223.9,1190.3,3467.4,3473.4,1608.7,1962.8,2599.3,3457.6,1641.6,3489.2,3467.4,3472.2,661.9,756.3,1899.7,1041.8,1000.5,933.0,-10.0,-6.0,-3.0,10324.0,-12447.0,-299.0,2612.0,-1.0,-3.0,-15.0,-5.0,-22.0,5.0,9072.0,-13250.0,2646.0,-1888.0,-9.0,3.0,-11.0,1.0
2022-05-23 15:40:45.115656-07:00,1289.1,797.7,1118.2,999.6,982.5,873.8,1670.1,1295.4,3464.9,3464.9,1110.4,875.5,1747.3,3468.6,1223.9,1195.6,3474.6,3473.4,1608.7,1962.8,2593.9,3452.8,1641.6,3489.2,3475.9,3472.2,661.9,756.3,1890.9,1040.1,997.0,933.0,-5.0,5.0,6.0,10325.0,-12446.0,-302.0,2613.0,8.0,3.0,-10.0,0.0,-14.0,6.0,9074.0,-13249.0,2645.0,-1889.0,4.0,1.0,-2.0,1.0
2022-05-23 15:40:45.204831-07:00,1290.0,797.7,1118.2,999.6,988.5,873.0,1665.3,1295.4,3468.6,3464.9,1110.4,875.5,1749.3,3458.9,1221.3,1195.6,3474.6,3475.9,1627.5,1954.8,2593.9,3452.8,1641.6,3488.0,3475.9,3471.0,665.2,761.2,1890.9,1040.1,997.0,927.1,-2.0,-1.0,23.0,10332.0,-12440.0,-306.0,2615.0,31.0,-15.0,-7.0,4.0,-22.0,16.0,9076.0,-13246.0,2649.0,-1892.0,26.0,31.0,22.0,1.0
2022-05-23 15:40:45.206099-07:00,1290.0,798.5,1119.1,992.7,988.5,873.0,1665.3,1296.3,3468.6,3464.9,1113.0,867.9,1749.3,3458.9,1221.3,1197.4,3468.6,3475.9,1627.5,1954.8,2605.8,3457.6,1634.1,3488.0,3477.1,3471.0,665.2,761.2,1889.9,1038.3,994.5,927.1,-10.0,-16.0,35.0,10345.0,-12429.0,-302.0,2617.0,5.0,6.0,12.0,12.0,-38.0,44.0,9089.0,-13231.0,2669.0,-1908.0,1.0,81.0,50.0,1.0
2022-05-23 15:40:45.295383-07:00,1276.5,804.4,1119.1,992.7,978.2,874.7,1672.9,1296.3,3464.9,3462.5,1113.0,867.9,1740.6,3469.8,1228.4,1197.4,3468.6,3475.9,1619.0,1960.8,2605.8,3457.6,1637.9,3479.5,3477.1,3474.6,666.8,767.0,1889.9,1038.3,991.0,924.5,-26.0,-8.0,31.0,10359.0,-12410.0,-323.0,2647.0,123.0,-175.0,-2.0,30.0,-73.0,82.0,9123.0,-13193.0,2719.0,-1939.0,221.0,194.0,146.0,1.0
2022-05-23 15:40:45.324421-07:00,1276.5,804.4,1118.2,983.3,978.2,874.7,1732.0,1301.6,3464.9,3462.5,1112.1,878.0,1740.6,3469.8,1223.9,1199.1,3468.6,3467.4,1619.0,1960.8,2599.3,3457.6,1637.9,3479.5,3467.4,3479.5,666.8,767.0,1882.0,1041.8,991.0,924.5,-30.0,-1.0,47.0,10448.0,-12307.0,-459.0,2757.0,403.0,-622.0,-209.0,20.0,-66.0,78.0,9234.0,-13081.0,2831.0,-2011.0,716.0,379.0,240.0,1.0
2022-05-23 15:40:45.355389-07:00,1298.1,801.9,1118.2,983.3,977.3,881.4,1732.0,1301.6,3472.2,3463.7,1112.1,878.0,1745.4,3471.0,1223.9,1199.1,3468.6,3467.4,1621.8,1979.6,2599.3,3457.6,1651.1,3491.7,3467.4,3479.5,672.5,801.0,1882.0,1041.8,1007.3,932.2,60.0,111.0,-49.0,10673.0,-12048.0,-751.0,2966.0,832.0,-968.0,-309.0,-2.0,89.0,-67.0,9537.0,-12805.0,2968.0,-2168.0,1171.0,437.0,225.0,1.0
2022-05-23 15:40:45.415599-07:00,1298.1,801.9,1120.0,979.9,977.3,881.4,1827.5,1313.3,3472.2,3463.7,1148.9,903.4,1745.4,3471.0,1307.0,1220.4,3473.4,3469.8,1621.8,1979.6,2623.2,3468.6,1651.1,3491.7,3473.4,3468.6,672.5,801.0,1889.9,1046.1,1007.3,932.2,10.0,-7.0,-65.0,10831.0,-11848.0,-983.0,3129.0,339.0,-522.0,-219.0,-4.0,-13.0,-72.0,9775.0,-12579.0,3049.0,-2316.0,572.0,261.0,53.0,1.0
2022-05-23 15:40:45.504747-07:00,1294.5,811.9,1120.0,979.9,973.1,889.8,1827.5,1313.3,3468.6,3466.1,1148.9,903.4,1750.2,3466.1,1307.0,1220.4,3473.4,3469.8,1633.1,1987.5,2623.2,3468.6,1641.6,3484.4,3473.4,3468.6,672.5,814.4,1889.9,1046.1,1025.4,947.5,-54.0,-42.0,-33.0,11015.0,-11637.0,-1163.0,3212.0,867.0,-522.0,-328.0,-12.0,-41.0,17.0,10000.0,-12371.0,3076.0,-2437.0,994.0,238.0,77.0,1.0
2022-05-23 15:40:45.506640-07:00,1294.5,811.9,1120.9,983.3,973.1,887.3,1859.6,1321.4,3468.6,3466.1,1175.3,926.2,1750.2,3472.2,1358.5,1239.1,3466.1,3471.0,1637.9,1987.5,2640.6,3478.3,1641.6,3484.4,3469.8,3478.3,672.5,814.4,1891.8,1069.5,1025.4,947.5,13.0,82.0,-54.0,11356.0,-11238.0,-1367.0,3366.0,909.0,-683.0,-327.0,-11.0,31.0,-33.0,10405.0,-11994.0,3082.0,-2611.0,1109.0,239.0,42.0,1.0
2022-05-23 15:40:45.624917-07:00,1303.4,819.4,1120.0,983.3,977.3,887.3,1859.6,1321.4,3478.3,3469.8,1267.6,926.2,1752.1,3472.2,1358.5,1239.1,3466.1,3471.0,1637.9,2003.5,2640.6,3488.0,1641.6,3494.1,3469.8,3478.3,672.5,828.5,1891.8,1082.5,1041.8,931.3,-16.0,-43.0,-11.0,11548.0,-10973.0,-1636.0,3464.0,670.0,-740.0,-462.0,-9.0,-33.0,-5.0,10643.0,-11756.0,3076.0,-2739.0,791.0,180.0,-19.0,1.0
2022-05-23 15:40:45.625777-07:00,1303.4,819.4,1120.0,987.6,977.3,880.6,1898.7,1305.2,3478.3,3469.8,1267.6,944.1,1752.1,3463.7,1387.5,1257.8,3472.2,3467.4,1633.1,2003.5,2670.0,3488.0,1641.6,3494.1,3479.5,3472.2,666.0,828.5,1889.9,1082.5,1041.8,931.3,-26.0,-44.0,-26.0,11826.0,-10605.0,-1819.0,3580.0,1112.0,-387.0,-120.0,-16.0,-14.0,-33.0,10956.0,-11440.0,3042.0,-2876.0,1195.0,128.0,12.0,1.0
2022-05-23 15:40:45.655071-07:00,1316.9,806.9,1111.2,987.6,984.2,880.6,1898.7,1305.2,3468.6,3473.4,1338.6,944.1,1754.1,3463.7,1387.5,1257.8,3472.2,3467.4,1633.1,2006.4,2670.0,3483.2,1638.8,3497.8,3479.5,3472.2,666.0,847.8,1889.9,1090.3,1045.2,930.5,-23.0,-48.0,-9.0,12121.0,-10220.0,-1800.0,3719.0,1099.0,-291.0,30.0,-26.0,21.0,-65.0,11294.0,-11099.0,2980.0,-2965.0,1012.0,-38.0,78.0,1.0
2022-05-23 15:40:45.715338-07:00,1316.9,806.9,1111.2,986.7,984.2,889.0,1976.6,1320.5,3468.6,3473.4,1338.6,986.7,1754.1,3461.3,1434.1,1281.0,3472.2,3478.3,1635.0,2006.4,2704.0,3483.2,1638.8,3497.8,3477.1,3483.2,675.8,847.8,1888.9,1090.3,1045.2,930.5,-9.0,30.0,-32.0,12363.0,-9911.0,-1645.0,3827.0,852.0,217.0,285.0,-9.0,7.0,9.0,11554.0,-10845.0,2915.0,-2971.0,674.0,-122.0,102.0,1.0
2022-05-23 15:40:45.774873-07:00,1318.7,811.0,1120.9,985.0,975.6,889.0,1976.6,1320.5,3471.0,3460.1,1389.4,1022.8,1766.6,3461.3,1434.1,1281.0,3472.2,3478.3,1635.0,2033.4,2700.7,3497.8,1632.2,3492.9,3477.1,3483.2,675.8,847.8,1890.9,1127.0,1074.7,935.6,10.0,3.0,25.0,12503.0,-9742.0,-1462.0,3883.0,558.0,181.0,220.0,2.0,7.0,11.0,11707.0,-10700.0,2866.0,-2945.0,483.0,-113.0,95.0,1.0
2022-05-23 15:40:45.805127-07:00,1318.7,811.0,1120.9,985.0,978.2,892.4,2000.5,1386.6,3471.0,3460.1,1389.4,1022.8,1775.2,3463.7,1506.0,1319.6,3467.4,3475.9,1657.7,2010.4,2700.7,3497.8,1632.2,3492.9,3473.4,3480.7,691.3,843.6,1890.9,1127.0,1074.7,935.6,-20.0,-20.0,-7.0,12645.0,-9567.0,-1269.0,3925.0,578.0,94.0,207.0,8.0,-6.0,44.0,11853.0,-10557.0,2816.0,-2929.0,466.0,-96.0,69.0,1.0
2022-05-23 15:40:45.865349-07:00,1318.7,823.5,1125.2,996.2,978.2,892.4,2000.5,1386.6,3473.4,3468.6,1417.6,1040.9,1775.2,3463.7,1506.0,1319.6,3467.4,3475.9,1657.7,2010.4,2700.7,3486.8,1626.5,3483.2,3473.4,3480.7,691.3,843.6,1895.8,1175.3,1118.2,939.8,15.0,12.0,27.0,12791.0,-9345.0,-1097.0,4035.0,843.0,155.0,387.0,6.0,-15.0,10.0,12034.0,-10364.0,2774.0,-2917.0,647.0,-71.0,126.0,1.0
2022-05-23 15:40:45.925403-07:00,1318.7,823.5,1125.2,996.2,975.6,884.8,1998.5,1400.3,3473.4,3468.6,1417.6,1040.9,1771.4,3457.6,1517.1,1314.2,3475.9,3477.1,1648.3,1997.5,2700.7,3486.8,1626.5,3483.2,3475.9,3484.4,684.0,836.1,1895.8,1175.3,1118.2,939.8,-11.0,13.0,5.0,12926.0,-9175.0,-829.0,4059.0,463.0,486.0,234.0,-13.0,21.0,-4.0,12162.0,-10229.0,2741.0,-2897.0,257.0,-83.0,66.0,1.0
2022-05-23 15:40:45.984809-07:00,1316.0,820.2,1153.3,1038.3,975.6,884.8,1998.5,1400.3,3474.6,3466.1,1456.2,1059.9,1771.4,3457.6,1517.1,1314.2,3475.9,3477.1,1648.3,1997.5,2687.5,3483.2,1626.5,3481.9,3475.9,3484.4,684.0,836.1,1896.7,1204.4,1163.0,936.4,-26.0,5.0,-33.0,12946.0,-9177.0,-514.0,4045.0,-55.0,575.0,428.0,-15.0,3.0,15.0,12180.0,-10225.0,2713.0,-2857.0,-151.0,-131.0,30.0,1.0
2022-05-23 15:40:46.015317-07:00,1316.0,820.2,1153.3,1038.3,973.1,883.1,1971.7,1390.3,3474.6,3466.1,1456.2,1059.9,1779.1,3466.1,1622.8,1384.8,3474.6,3478.3,1642.6,1994.5,2687.5,3483.2,1626.5,3481.9,3472.2,3477.1,685.6,842.8,1896.7,1204.4,1163.0,936.4,40.0,8.0,43.0,12944.0,-9220.0,-184.0,3981.0,389.0,961.0,251.0,0.0,-5.0,-16.0,12190.0,-10233.0,2673.0,-2823.0,149.0,-113.0,-14.0,1.0
2022-05-23 15:40:46.074306-07:00,1308.8,813.5,1242.6,1119.1,973.1,883.1,1971.7,1375.7,3460.1,3479.5,1505.1,1092.9,1779.1,3466.1,1622.8,1477.3,3471.0,3478.3,1642.6,1994.5,2674.4,3483.2,1626.5,3497.8,3466.1,3477.1,685.6,842.8,1905.6,1206.2,1171.8,937.3,-23.0,24.0,-92.0,13053.0,-9153.0,225.0,3773.0,330.0,855.0,75.0,-8.0,74.0,66.0,12219.0,-10212.0,2618.0,-2825.0,-59.0,-90.0,-75.0,1.0
2022-05-23 15:40:46.105163-07:00,1300.7,813.5,1242.6,1119.1,1011.6,889.0,1943.0,1375.7,3466.1,3479.5,1505.1,1092.9,1786.8,3469.8,1732.0,1477.3,3471.0,3478.3,1642.6,1996.5,2674.4,3483.2,1626.5,3481.9,3466.1,3467.4,686.4,845.3,1905.6,1206.2,1171.8,956.0,26.0,-30.0,9.0,13068.0,-9155.0,525.0,3685.0,262.0,694.0,214.0,6.0,-69.0,-7.0,12208.0,-10239.0,2572.0,-2818.0,26.0,-97.0,-54.0,1.0
2022-05-23 15:40:46.165563-07:00,1300.7,806.9,1254.2,1207.1,1011.6,889.0,1943.0,1354.9,3466.1,3462.5,1541.3,1098.2,1786.8,3469.8,1732.0,1479.2,3475.9,3478.3,1642.6,1996.5,2671.1,3494.1,1638.8,3481.9,3469.8,3467.4,686.4,845.3,1945.0,1224.8,1161.2,956.0,11.0,-29.0,-24.0,13068.0,-9205.0,769.0,3515.0,-345.0,630.0,-51.0,-5.0,30.0,-12.0,12137.0,-10345.0,2522.0,-2783.0,-595.0,-193.0,-63.0,1.0
2022-05-23 15:40:46.284852-07:00,1292.7,806.9,1254.2,1207.1,1155.0,911.0,1929.2,1354.9,3473.4,3462.5,1541.3,1098.2,1826.5,3474.6,1701.4,1479.2,3475.9,3475.9,1641.6,1991.5,2671.1,3494.1,1638.8,3485.6,3469.8,3467.4,697.9,865.4,1945.0,1224.8,1161.2,1008.2,32.0,-27.0,6.0,12905.0,-9469.0,986.0,3356.0,-659.0,880.0,0.0,7.0,-33.0,-27.0,11952.0,-10594.0,2487.0,-2677.0,-803.0,-306.0,-25.0,1.0
2022-05-23 15:40:46.287438-07:00,1292.7,819.4,1252.4,1263.1,1155.0,911.0,1929.2,1374.8,3473.4,3469.8,1535.7,1132.2,1826.5,3474.6,1701.4,1519.9,3475.9,3475.9,1641.6,1991.5,2650.4,3488.0,1659.6,3485.6,3474.6,3467.4,697.9,865.4,2024.4,1271.2,1139.2,1008.2,12.0,-51.0,-8.0,12768.0,-9702.0,1193.0,3139.0,-309.0,642.0,-17.0,16.0,-6.0,58.0,11794.0,-10803.0,2454.0,-2574.0,-439.0,-163.0,22.0,1.0
2022-05-23 15:40:46.315417-07:00,1307.0,831.1,1252.4,1263.1,1154.2,915.2,1942.0,1374.8,3471.0,3468.6,1535.7,1132.2,1857.6,3473.4,1705.3,1519.9,3475.9,3479.5,1634.1,1983.6,2650.4,3488.0,1681.4,3485.6,3474.6,3474.6,701.1,862.1,2024.4,1271.2,1124.4,1065.1,17.0,136.0,-47.0,12658.0,-9857.0,1460.0,2986.0,-599.0,961.0,165.0,-1.0,85.0,-29.0,11678.0,-10953.0,2426.0,-2490.0,-800.0,-242.0,-13.0,1.0
2022-05-23 15:40:46.374716-07:00,1307.0,831.1,1225.7,1237.3,1154.2,915.2,1924.3,1385.7,3471.0,3468.6,1545.0,1179.7,1857.6,3473.4,1670.1,1512.5,3471.0,3473.4,1634.1,1983.6,2679.9,3500.2,1681.4,3485.6,3472.2,3468.6,701.1,862.1,2157.5,1303.4,1124.4,1065.1,-50.0,-47.0,-28.0,12305.0,-10330.0,1671.0,2744.0,-1227.0,924.0,-225.0,3.0,-81.0,52.0,11335.0,-11344.0,2425.0,-2319.0,-1180.0,-284.0,63.0,1.0
2022-05-23 15:40:46.405189-07:00,1307.0,840.3,1225.7,1237.3,1196.5,922.8,1924.3,1385.7,3461.3,3471.0,1545.0,1179.7,1907.5,3472.2,1670.1,1512.5,3471.0,3473.4,1648.3,2007.4,2679.9,3500.2,1687.2,3484.4,3472.2,3468.6,701.9,839.4,2157.5,1303.4,1104.3,1045.2,-13.0,-174.0,-9.0,11948.0,-10761.0,1827.0,2561.0,-927.0,706.0,132.0,18.0,-94.0,46.0,11053.0,-11647.0,2467.0,-2123.0,-712.0,-218.0,261.0,1.0
2022-05-23 15:40:46.465364-07:00,1307.0,840.3,1201.8,1221.3,1196.5,922.8,1907.5,1365.7,3461.3,3471.0,1510.6,1174.4,1907.5,3472.2,1646.4,1485.6,3466.1,3474.6,1648.3,2007.4,2694.1,3486.8,1687.2,3484.4,3473.4,3473.4,701.9,839.4,2168.7,1281.0,1104.3,1045.2,-38.0,12.0,7.0,11760.0,-10933.0,2067.0,2517.0,-289.0,440.0,346.0,21.0,-6.0,108.0,10972.0,-11738.0,2534.0,-1965.0,-184.0,-107.0,296.0,1.0
2022-05-23 15:40:46.525334-07:00,1318.7,834.4,1201.8,1221.3,1175.3,919.4,1907.5,1365.7,3472.2,3478.3,1510.6,1174.4,1915.4,3473.4,1646.4,1485.6,3466.1,3474.6,1655.8,1999.5,2694.1,3486.8,1681.4,3492.9,3473.4,3473.4,701.9,841.9,2168.7,1281.0,1095.6,1037.5,24.0,113.0,-8.0,11699.0,-10961.0,2208.0,2558.0,-64.0,88.0,210.0,16.0,38.0,53.0,10984.0,-11727.0,2599.0,-1875.0,-9.0,-22.0,210.0,1.0
2022-05-23 15:40:46.644389-07:00,1318.7,834.4,1191.2,1192.9,1175.3,903.4,1893.8,1363.0,3472.2,3478.3,1510.6,1165.6,1915.4,3468.6,1623.7,1463.5,3473.4,3483.2,1650.2,1999.5,2674.4,3492.9,1681.4,3492.9,3471.0,3478.3,704.4,841.9,2153.4,1266.7,1095.6,1037.5,53.0,67.0,3.0,11653.0,-11007.0,2195.0,2583.0,-235.0,-43.0,-46.0,17.0,64.0,22.0,10958.0,-11749.0,2632.0,-1838.0,-220.0,4.0,44.0,1.0
2022-05-23 15:40:46.674882-07:00,1311.5,841.1,1182.3,1192.9,1158.6,903.4,1893.8,1363.0,3469.8,3468.6,1489.3,1165.6,1915.4,3468.6,1623.7,1463.5,3473.4,3483.2,1650.2,1984.6,2674.4,3486.8,1672.9,3492.9,3471.0,3478.3,704.4,831.1,2153.4,1255.1,1089.5,1040.9,-12.0,-46.0,-21.0,11605.0,-11055.0,2191.0,2598.0,-30.0,-5.0,97.0,-5.0,-34.0,21.0,10909.0,-11794.0,2647.0,-1826.0,43.0,26.0,5.0,1.0
2022-05-23 15:40:46.676054-07:00,1311.5,841.1,1182.3,1183.2,1158.6,902.5,1882.0,1361.2,3469.8,3468.6,1489.3,1149.8,1915.4,3467.4,1611.5,1462.6,3480.7,3471.0,1637.9,1984.6,2671.1,3486.8,1672.9,3492.9,3472.2,3479.5,695.4,831.1,2148.3,1255.1,1089.5,1040.9,-3.0,3.0,-30.0,11637.0,-11005.0,2219.0,2643.0,179.0,-93.0,127.0,-16.0,-14.0,5.0,10946.0,-11756.0,2654.0,-1835.0,179.0,18.0,39.0,1.0
2022-05-23 15:40:46.734850-07:00,1309.7,834.4,1189.4,1183.2,1141.0,902.5,1882.0,1361.2,3475.9,3462.5,1493.0,1149.8,1922.3,3467.4,1611.5,1462.6,3480.7,3471.0,1637.9,1995.5,2671.1,3483.2,1663.4,3490.5,3472.2,3479.5,695.4,831.9,2148.3,1251.5,1079.0,1028.0,14.0,31.0,-36.0,11649.0,-10985.0,2208.0,2682.0,-108.0,-74.0,10.0,-4.0,11.0,2.0,10969.0,-11734.0,2662.0,-1833.0,-120.0,-25.0,20.0,1.0
2022-05-23 15:40:46.765029-07:00,1309.7,834.4,1189.4,1188.5,1141.0,899.1,1860.6,1334.1,3475.9,3462.5,1493.0,1152.4,1922.3,3461.3,1596.4,1461.7,3474.6,3472.2,1645.4,1995.5,2658.0,3483.2,1663.4,3490.5,3480.7,3473.4,692.1,831.9,2162.6,1251.5,1079.0,1028.0,32.0,-45.0,20.0,11616.0,-11017.0,2169.0,2723.0,-13.0,-85.0,24.0,8.0,-29.0,1.0,10939.0,-11764.0,2665.0,-1811.0,42.0,-27.0,21.0,1.0
2022-05-23 15:40:46.824857-07:00,1309.7,828.5,1169.1,1175.3,1128.7,899.1,1860.6,1334.1,3471.0,3456.4,1477.3,1146.3,1911.5,3461.3,1596.4,1461.7,3474.6,3472.2,1645.4,1991.5,2658.0,3475.9,1658.7,3485.6,3480.7,3473.4,692.1,826.9,2145.3,1249.7,1077.3,1025.4,31.0,40.0,5.0,11643.0,-10984.0,2184.0,2731.0,72.0,26.0,5.0,11.0,17.0,15.0,10962.0,-11744.0,2662.0,-1805.0,6.0,-13.0,5.0,1.0
2022-05-23 15:40:46.855187-07:00,1309.7,828.5,1169.1,1175.3,1122.6,887.3,1849.8,1334.1,3471.0,3456.4,1477.3,1146.3,1902.6,3463.7,1602.1,1452.5,3471.0,3473.4,1647.3,1972.7,2655.8,3475.9,1658.7,3485.6,3467.4,3477.1,690.5,819.4,2145.3,1249.7,1077.3,1025.4,14.0,9.0,-3.0,11619.0,-11016.0,2173.0,2711.0,-177.0,23.0,-73.0,17.0,-6.0,26.0,10937.0,-11769.0,2660.0,-1799.0,-193.0,2.0,-12.0,1.0
2022-05-23 15:40:46.914885-07:00,1308.8,835.2,1163.8,1190.3,1122.6,887.3,1849.8,1334.1,3474.6,3467.4,1469.0,1148.0,1902.6,3463.7,1602.1,1452.5,3471.0,3473.4,1647.3,1972.7,2642.8,3471.0,1654.9,3492.9,3467.4,3477.1,690.5,819.4,2159.5,1243.5,1079.9,1034.0,7.0,-21.0,7.0,11583.0,-11060.0,2157.0,2702.0,-21.0,50.0,-11.0,7.0,-27.0,21.0,10901.0,-11803.0,2660.0,-1796.0,-22.0,-2.0,3.0,1.0
2022-05-23 15:40:46.974591-07:00,1308.8,835.2,1163.8,1190.3,1140.1,891.5,1864.5,1331.4,3474.6,3467.4,1469.0,1148.0,1904.6,3472.2,1600.2,1455.2,3475.9,3477.1,1636.9,1972.7,2642.8,3471.0,1654.9,3492.9,3469.8,3477.1,689.7,823.5,2159.5,1243.5,1079.9,1034.0,23.0,51.0,-11.0,11607.0,-11040.0,2145.0,2688.0,67.0,-68.0,-118.0,1.0,29.0,18.0,10916.0,-11789.0,2654.0,-1802.0,-10.0,-1.0,-30.0,1.0
2022-05-23 15:40:47.005278-07:00,1312.4,837.7,1170.0,1182.3,1140.1,891.5,1864.5,1331.4,3468.6,3478.3,1465.4,1144.5,1904.6,3472.2,1600.2,1455.2,3475.9,3477.1,1636.9,1972.7,2648.2,3454.0,1653.9,3488.0,3469.8,3477.1,689.7,823.5,2149.3,1238.2,1080.8,1020.2,9.0,2.0,-9.0,11625.0,-11038.0,2107.0,2647.0,3.0,50.0,-122.0,6.0,0.0,12.0,10904.0,-11803.0,2636.0,-1810.0,-60.0,-33.0,-70.0,1.0
2022-05-23 15:40:47.094551-07:00,1312.4,837.7,1170.0,1182.3,1118.2,887.3,1840.1,1311.5,3468.6,3478.3,1465.4,1144.5,1905.6,3467.4,1596.4,1454.3,3477.1,3472.2,1639.8,1980.6,2648.2,3454.0,1653.9,3488.0,3468.6,3469.8,691.3,816.0,2149.3,1238.2,1080.8,1020.2,-4.0,-36.0,-12.0,11637.0,-11043.0,2075.0,2600.0,16.0,-26.0,-144.0,-3.0,-14.0,24.0,10888.0,-11821.0,2610.0,-1826.0,-34.0,-5.0,-73.0,1.0
2022-05-23 15:40:47.124475-07:00,1299.8,829.4,1174.4,1175.3,1118.2,887.3,1840.1,1340.4,3467.4,3475.9,1462.6,1141.9,1905.6,3467.4,1596.4,1435.0,3471.0,3472.2,1639.8,1980.6,2640.6,3468.6,1648.3,3489.2,3479.5,3469.8,691.3,816.0,2160.5,1253.3,1069.5,1026.3,-9.0,-12.0,-11.0,11654.0,-11032.0,2047.0,2595.0,60.0,-49.0,-1.0,-4.0,-21.0,24.0,10899.0,-11812.0,2594.0,-1843.0,83.0,18.0,-40.0,1.0
2022-05-23 15:40:47.155179-07:00,1300.7,829.4,1174.4,1175.3,1119.1,887.3,1844.0,1340.4,3469.8,3475.9,1462.6,1141.9,1900.7,3469.8,1593.6,1435.0,3471.0,3477.1,1672.9,1974.6,2640.6,3468.6,1648.3,3486.8,3479.5,3479.5,681.5,815.2,2160.5,1253.3,1069.5,1012.5,26.0,-2.0,4.0,11680.0,-11004.0,2033.0,2608.0,88.0,-46.0,6.0,-9.0,-1.0,5.0,10927.0,-11785.0,2588.0,-1859.0,92.0,19.0,-13.0,1.0
2022-05-23 15:40:47.215590-07:00,1300.7,824.4,1160.3,1195.6,1119.1,887.3,1844.0,1325.0,3469.8,3475.9,1468.1,1133.1,1900.7,3469.8,1593.6,1435.0,3478.3,3477.1,1672.9,1974.6,2633.0,3478.3,1643.5,3486.8,3475.9,3479.5,681.5,815.2,2283.8,1251.5,1072.1,1012.5,18.0,38.0,-16.0,11695.0,-10986.0,2057.0,2596.0,0.0,78.0,-15.0,-3.0,4.0,10.0,10942.0,-11770.0,2583.0,-1872.0,-31.0,-3.0,-26.0,1.0
2022-05-23 15:40:47.274601-07:00,1290.9,824.4,1160.3,1195.6,1105.1,894.1,1831.3,1325.0,3473.4,3475.9,1468.1,1133.1,1891.8,3478.3,1586.1,1435.0,3478.3,3475.9,1636.9,1969.7,2633.0,3478.3,1643.5,3492.9,3475.9,3477.1,686.4,811.0,2283.8,1251.5,1072.1,1015.1,2.0,-23.0,0.0,11675.0,-11017.0,2062.0,2550.0,-56.0,95.0,-81.0,8.0,-22.0,24.0,10916.0,-11797.0,2572.0,-1869.0,-70.0,-18.0,-32.0,1.0
2022-05-23 15:40:47.335390-07:00,1290.9,831.9,1171.8,1180.6,1105.1,894.1,1831.3,1322.3,3473.4,3477.1,1453.4,1132.2,1891.8,3478.3,1586.1,1439.6,3483.2,3475.9,1636.9,1969.7,2628.6,3434.6,1636.9,3492.9,3480.7,3477.1,686.4,811.0,2267.2,1244.4,1068.6,1015.1,3.0,-10.0,-7.0,11689.0,-11009.0,2069.0,2517.0,82.0,25.0,-27.0,3.0,-8.0,10.0,10925.0,-11789.0,2564.0,-1877.0,44.0,1.0,-10.0,1.0
2022-05-23 15:40:47.394809-07:00,1294.5,836.1,1171.8,1180.6,1109.5,884.8,1841.1,1322.3,3460.1,3468.6,1453.4,1132.2,1893.8,3468.6,1588.9,1439.6,3483.2,3479.5,1642.6,1965.7,2628.6,3434.6,1642.6,3481.9,3480.7,3483.2,680.7,787.7,2267.2,1244.4,1075.6,1027.1,13.0,10.0,-4.0,11706.0,-10994.0,2075.0,2492.0,14.0,41.0,-38.0,3.0,3.0,17.0,10932.0,-11782.0,2562.0,-1880.0,-26.0,4.0,-9.0,1.0
2022-05-23 15:40:47.396487-07:00,1294.5,836.1,1163.0,1175.3,1109.5,884.8,1834.3,1312.4,3460.1,3468.6,1455.2,1129.6,1893.8,3468.6,1581.4,1435.0,3472.2,3467.4,1642.6,1965.7,2630.8,3475.9,1642.6,3481.9,3474.6,3480.7,680.7,787.7,2248.7,1246.2,1075.6,1027.1,7.0,0.0,-8.0,11690.0,-11016.0,2075.0,2475.0,-74.0,42.0,-23.0,-1.0,-10.0,15.0,10912.0,-11801.0,2563.0,-1877.0,-82.0,3.0,-3.0,1.0
2022-05-23 15:40:47.484757-07:00,1290.9,826.0,1163.0,1175.3,1124.4,879.7,1834.3,1312.4,3460.1,3472.2,1455.2,1129.6,1900.7,3478.3,1581.4,1435.0,3472.2,3467.4,1639.8,1971.7,2630.8,3475.9,1642.6,3486.8,3474.6,3480.7,685.6,806.9,2248.7,1246.2,1070.3,1017.6,3.0,-5.0,-7.0,11670.0,-11038.0,2082.0,2464.0,-26.0,36.0,12.0,-1.0,-7.0,10.0,10895.0,-11816.0,2567.0,-1874.0,-24.0,12.0,5.0,1.0
2022-05-23 15:40:47.575117-07:00,1290.9,826.0,1159.4,1178.8,1124.4,879.7,1827.5,1305.2,3460.1,3472.2,1450.6,1125.2,1900.7,3478.3,1582.4,1435.0,3474.6,3474.6,1639.8,1971.7,2636.2,3479.5,1642.6,3486.8,3477.1,3467.4,685.6,806.9,2229.1,1240.8,1070.3,1017.6,12.0,-9.0,-10.0,11667.0,-11040.0,2098.0,2456.0,34.0,35.0,33.0,2.0,-5.0,13.0,10898.0,-11813.0,2567.0,-1876.0,26.0,3.0,9.0,1.0
2022-05-23 15:40:47.577248-07:00,1301.6,832.7,1159.4,1178.8,1105.1,880.6,1827.5,1305.2,3468.6,3464.9,1450.6,1125.2,1888.9,3468.6,1582.4,1435.0,3474.6,3474.6,1645.4,1972.7,2636.2,3479.5,1634.1,3481.9,3477.1,3467.4,680.7,807.7,2229.1,1240.8,1067.7,1023.7,2.0,-1.0,-16.0,11665.0,-11039.0,2106.0,2462.0,-11.0,-34.0,3.0,1.0,-13.0,16.0,10905.0,-11808.0,2563.0,-1875.0,11.0,-18.0,7.0,1.0
2022-05-23 15:40:47.605191-07:00,1301.6,832.7,1170.0,1166.5,1105.1,887.3,1832.3,1312.4,3468.6,3464.9,1452.5,1122.6,1888.9,3461.3,1579.6,1426.8,3462.5,3478.3,1642.6,1972.7,2626.5,3479.5,1634.1,3481.9,3462.5,3479.5,682.3,807.7,2231.1,1235.5,1067.7,1023.7,28.0,2.0,-1.0,11669.0,-11035.0,2086.0,2481.0,38.0,-55.0,35.0,2.0,0.0,0.0,10918.0,-11798.0,2560.0,-1869.0,57.0,-18.0,13.0,1.0
2022-05-23 15:40:47.694457-07:00,1298.1,828.5,1168.2,1166.5,1100.8,887.3,1832.3,1312.4,3471.0,3469.8,1444.2,1122.6,1886.9,3461.3,1579.6,1426.8,3462.5,3478.3,1642.6,1970.7,2626.5,3463.7,1635.0,3486.8,3462.5,3479.5,682.3,804.4,2231.1,1238.2,1066.0,1021.1,2.0,20.0,-9.0,11673.0,-11028.0,2092.0,2487.0,-10.0,10.0,16.0,1.0,0.0,18.0,10924.0,-11794.0,2555.0,-1865.0,-29.0,-12.0,1.0,1.0
2022-05-23 15:40:47.695700-07:00,1298.1,828.5,1168.2,1174.4,1100.8,884.8,1802.3,1310.6,3471.0,3469.8,1444.2,1125.2,1886.9,3468.6,1566.5,1429.5,3467.4,3473.4,1630.3,1970.7,2624.3,3463.7,1635.0,3486.8,3471.0,3466.1,685.6,804.4,2220.9,1238.2,1066.0,1021.1,5.0,-21.0,6.0,11669.0,-11031.0,2094.0,2487.0,13.0,18.0,17.0,2.0,-14.0,20.0,10923.0,-11795.0,2553.0,-1862.0,1.0,-7.0,14.0,1.0
2022-05-23 15:40:47.755188-07:00,1296.3,831.9,1159.4,1174.4,1099.0,884.8,1802.3,1310.6,3462.5,3457.6,1434.1,1125.2,1887.9,3468.6,1566.5,1429.5,3467.4,3473.4,1630.3,1970.7,2624.3,3466.1,1635.0,3484.4,3471.0,3466.1,685.6,799.4,2220.9,1232.8,1072.1,1014.2,7.0,10.0,12.0,11668.0,-11028.0,2120.0,2483.0,-14.0,74.0,39.0,4.0,-5.0,20.0,10925.0,-11793.0,2559.0,-1857.0,-35.0,7.0,22.0,1.0
2022-05-23 15:40:47.845028-07:00,1296.3,831.9,1159.4,1160.3,1099.0,882.3,1818.7,1314.2,3462.5,3457.6,1434.1,1120.0,1887.9,3466.1,1569.3,1429.5,3472.2,3467.4,1644.5,1970.7,2630.8,3466.1,1635.0,3484.4,3473.4,3466.1,684.8,799.4,2220.9,1232.8,1072.1,1014.2,11.0,-1.0,0.0,11647.0,-11048.0,2144.0,2474.0,-70.0,61.0,21.0,4.0,-4.0,15.0,10909.0,-11806.0,2573.0,-1853.0,-78.0,26.0,23.0,1.0
2022-05-23 15:40:47.847355-07:00,1290.0,826.9,1161.2,1160.3,1098.2,882.3,1818.7,1314.2,3473.4,3464.9,1433.2,1120.0,1885.0,3466.1,1569.3,1429.5,3472.2,3467.4,1644.5,1971.7,2630.8,3468.6,1625.6,3481.9,3473.4,3466.1,684.8,801.0,2220.9,1230.2,1071.2,1010.8,8.0,-1.0,-11.0,11627.0,-11068.0,2160.0,2467.0,-26.0,37.0,19.0,0.0,-1.0,7.0,10895.0,-11815.0,2589.0,-1854.0,-19.0,27.0,16.0,1.0
2022-05-23 15:40:47.965286-07:00,1290.0,826.9,1161.2,1159.4,1092.1,863.7,1819.7,1305.2,3473.4,3464.9,1433.2,1116.5,1869.3,3462.5,1572.1,1426.8,3467.4,3473.4,1637.9,1962.8,2627.5,3468.6,1625.6,3481.9,3488.0,3475.9,669.3,801.9,2218.8,1230.2,1071.2,1010.8,5.0,1.0,-10.0,11626.0,-11064.0,2185.0,2463.0,43.0,46.0,41.0,0.0,-4.0,7.0,10898.0,-11810.0,2598.0,-1856.0,17.0,16.0,13.0,1.0
2022-05-23 15:40:47.994930-07:00,1298.1,821.0,1163.0,1164.7,1092.1,863.7,1819.7,1305.2,3466.1,3473.4,1437.8,1116.5,1869.3,3462.5,1572.1,1426.8,3467.4,3473.4,1637.9,1962.8,2625.4,3471.0,1635.0,3489.2,3488.0,3475.9,669.3,801.9,2211.6,1225.7,1066.0,1017.6,8.0,14.0,-14.0,11626.0,-11062.0,2208.0,2457.0,-25.0,42.0,8.0,-1.0,1.0,9.0,10897.0,-11809.0,2606.0,-1858.0,-39.0,18.0,9.0,1.0
2022-05-23 15:40:47.996406-07:00,1298.1,821.0,1163.0,1164.7,1086.8,862.1,1823.6,1299.0,3466.1,3473.4,1437.8,1116.5,1877.2,3462.5,1573.0,1421.3,3475.9,3478.3,1623.7,1964.7,2625.4,3471.0,1635.0,3489.2,3473.4,3474.6,679.9,801.9,2211.6,1225.7,1066.0,1017.6,4.0,-8.0,-7.0,11614.0,-11075.0,2210.0,2451.0,-1.0,8.0,-12.0,1.0,-18.0,13.0,10888.0,-11816.0,2613.0,-1856.0,-10.0,10.0,13.0,1.0
2022-05-23 15:40:48.055130-07:00,1291.8,831.9,1162.1,1149.8,1086.8,862.1,1823.6,1299.0,3471.0,3466.1,1434.1,1119.1,1877.2,3462.5,1573.0,1421.3,3475.9,3478.3,1623.7,1964.7,2624.3,3468.6,1629.4,3478.3,3473.4,3474.6,679.9,801.9,2193.2,1227.5,1067.7,1003.9,8.0,0.0,-9.0,11632.0,-11056.0,2212.0,2452.0,96.0,-16.0,32.0,0.0,-2.0,11.0,10908.0,-11797.0,2611.0,-1860.0,96.0,5.0,0.0,1.0
2022-05-23 15:40:48.115761-07:00,1291.8,831.9,1162.1,1149.8,1094.7,874.7,1810.0,1310.6,3471.0,3466.1,1434.1,1119.1,1877.2,3461.3,1568.3,1425.9,3467.4,3473.4,1634.1,1965.7,2624.3,3468.6,1629.4,3478.3,3473.4,3483.2,676.6,800.2,2193.2,1227.5,1067.7,1003.9,17.0,6.0,-8.0,11655.0,-11028.0,2215.0,2465.0,58.0,-40.0,26.0,7.0,0.0,5.0,10935.0,-11772.0,2608.0,-1869.0,54.0,4.0,-4.0,1.0
2022-05-23 15:40:48.144386-07:00,1286.4,825.2,1163.8,1155.9,1094.7,874.7,1810.0,1290.0,3469.8,3464.9,1435.0,1107.8,1877.2,3461.3,1568.3,1410.3,3467.4,3473.4,1634.1,1965.7,2624.3,3472.2,1628.4,3492.9,3472.2,3483.2,676.6,800.2,2193.2,1220.4,1061.7,1003.0,4.0,2.0,-9.0,11653.0,-11030.0,2210.0,2469.0,-33.0,6.0,-6.0,-5.0,-9.0,8.0,10934.0,-11773.0,2607.0,-1867.0,-30.0,-16.0,0.0,1.0
2022-05-23 15:40:48.205976-07:00,1282.8,825.2,1163.8,1155.9,1091.2,864.6,1796.5,1290.0,3472.2,3464.9,1435.0,1107.8,1876.2,3469.8,1571.1,1410.3,3467.4,3475.9,1636.0,1962.8,2624.3,3472.2,1628.4,3490.5,3472.2,3472.2,681.5,798.5,2193.2,1220.4,1061.7,1011.6,-9.0,-6.0,-8.0,11653.0,-11030.0,2206.0,2473.0,39.0,-35.0,15.0,-11.0,-2.0,14.0,10935.0,-11773.0,2604.0,-1863.0,39.0,-6.0,4.0,1.0
2022-05-23 15:40:48.265439-07:00,1282.8,831.1,1157.7,1155.9,1091.2,864.6,1796.5,1292.7,3472.2,3463.7,1431.4,1119.1,1876.2,3469.8,1571.1,1434.1,3471.0,3475.9,1636.0,1962.8,2609.1,3469.8,1621.8,3490.5,3474.6,3472.2,681.5,798.5,2176.9,1224.8,1062.5,1011.6,14.0,0.0,-1.0,11660.0,-11019.0,2212.0,2483.0,4.0,16.0,21.0,1.0,-8.0,5.0,10946.0,-11763.0,2602.0,-1864.0,-7.0,-15.0,3.0,1.0
2022-05-23 15:40:48.354940-07:00,1283.7,831.1,1157.7,1155.9,1094.7,871.3,1811.0,1292.7,3461.3,3463.7,1431.4,1119.1,1877.2,3473.4,1576.8,1434.1,3471.0,3483.2,1642.6,1957.8,2609.1,3469.8,1621.8,3485.6,3474.6,3475.9,676.6,789.4,2176.9,1224.8,1062.5,1015.1,10.0,-1.0,-4.0,11654.0,-11025.0,2215.0,2484.0,-21.0,0.0,-1.0,7.0,-14.0,16.0,10943.0,-11767.0,2599.0,-1859.0,-24.0,-7.0,6.0,1.0
2022-05-23 15:40:48.356112-07:00,1283.7,824.4,1149.8,1165.6,1094.7,871.3,1811.0,1297.2,3461.3,3462.5,1431.4,1123.5,1877.2,3473.4,1576.8,1416.7,3473.4,3483.2,1642.6,1957.8,2601.5,3461.3,1636.0,3485.6,3468.6,3475.9,676.6,789.4,2178.9,1224.8,1062.5,1015.1,10.0,-3.0,-3.0,11653.0,-11023.0,2219.0,2490.0,24.0,-17.0,30.0,7.0,-8.0,16.0,10944.0,-11767.0,2596.0,-1858.0,34.0,-7.0,6.0,1.0
2022-05-23 15:40:48.414883-07:00,1291.8,818.5,1149.8,1165.6,1092.1,864.6,1799.4,1297.2,3472.2,3467.4,1431.4,1123.5,1877.2,3477.1,1564.6,1416.7,3473.4,3469.8,1636.0,1974.6,2601.5,3461.3,1628.4,3491.7,3468.6,3471.0,679.9,801.9,2178.9,1224.8,1063.4,1002.2,19.0,9.0,0.0,11665.0,-11009.0,2217.0,2499.0,30.0,-9.0,-7.0,1.0,0.0,9.0,10958.0,-11755.0,2593.0,-1861.0,16.0,0.0,-4.0,1.0
2022-05-23 15:40:48.444690-07:00,1291.8,818.5,1159.4,1151.5,1092.1,864.6,1818.7,1300.7,3472.2,3467.4,1425.9,1115.6,1877.2,3477.1,1566.5,1415.8,3469.8,3472.2,1636.0,1974.6,2616.7,3478.3,1628.4,3491.7,3478.3,3477.1,679.9,801.9,2187.1,1224.8,1063.4,1002.2,-1.0,-7.0,0.0,11668.0,-11007.0,2217.0,2494.0,1.0,10.0,-5.0,-2.0,-17.0,14.0,10960.0,-11753.0,2592.0,-1862.0,-7.0,6.0,3.0,1.0
2022-05-23 15:40:48.505350-07:00,1290.0,819.4,1159.4,1151.5,1079.9,867.9,1818.7,1300.7,3460.1,3466.1,1425.9,1115.6,1873.2,3472.2,1566.5,1415.8,3469.8,3472.2,1633.1,1961.8,2616.7,3478.3,1622.8,3486.8,3478.3,3477.1,678.2,796.0,2187.1,1224.8,1057.3,1000.5,2.0,1.0,-2.0,11662.0,-11012.0,2218.0,2497.0,-30.0,-4.0,14.0,0.0,-3.0,8.0,10959.0,-11754.0,2596.0,-1858.0,-21.0,8.0,18.0,1.0
2022-05-23 15:40:48.565629-07:00,1290.0,819.4,1149.8,1148.9,1079.9,867.9,1803.2,1288.2,3460.1,3466.1,1432.3,1113.9,1873.2,3472.2,1571.1,1414.0,3462.5,3479.5,1633.1,1961.8,2617.8,3474.6,1622.8,3486.8,3462.5,3473.4,678.2,796.0,2175.8,1230.2,1057.3,1000.5,13.0,7.0,-6.0,11660.0,-11014.0,2220.0,2498.0,18.0,6.0,-3.0,1.0,4.0,8.0,10956.0,-11757.0,2600.0,-1854.0,0.0,2.0,1.0,1.0
2022-05-23 15:40:48.594341-07:00,1280.1,827.7,1149.8,1148.9,1079.9,867.1,1803.2,1288.2,3460.1,3471.0,1432.3,1113.9,1870.3,3467.4,1571.1,1414.0,3462.5,3479.5,1641.6,1948.9,2617.8,3474.6,1620.9,3488.0,3462.5,3473.4,683.1,791.9,2175.8,1230.2,1065.1,1007.3,2.0,23.0,-24.0,11670.0,-11007.0,2208.0,2496.0,14.0,-69.0,-51.0,1.0,4.0,16.0,10959.0,-11754.0,2596.0,-1857.0,2.0,-2.0,-23.0,1.0
2022-05-23 15:40:48.654960-07:00,1280.1,827.7,1148.0,1154.2,1079.9,867.1,1812.9,1287.3,3460.1,3471.0,1424.1,1112.1,1870.3,3467.4,1567.4,1422.2,3463.7,3471.0,1641.6,1948.9,2617.8,3463.7,1620.9,3488.0,3462.5,3471.0,683.1,791.9,2176.9,1216.8,1065.1,1007.3,23.0,-7.0,-13.0,11691.0,-10993.0,2138.0,2520.0,107.0,-190.0,-34.0,1.0,8.0,5.0,10965.0,-11749.0,2583.0,-1870.0,131.0,-8.0,-64.0,1.0
2022-05-23 15:40:48.744402-07:00,1285.5,818.5,1162.1,1154.2,1084.2,867.9,1812.9,1287.3,3483.2,3467.4,1434.1,1112.1,1862.5,3472.2,1567.4,1422.2,3463.7,3471.0,1629.4,1963.7,2617.8,3462.5,1619.9,3497.8,3462.5,3471.0,679.9,786.1,2176.9,1219.5,1060.8,1009.9,10.0,15.0,-28.0,11777.0,-10904.0,2076.0,2560.0,380.0,-277.0,-20.0,2.0,14.0,17.0,11029.0,-11691.0,2544.0,-1911.0,378.0,8.0,-125.0,1.0
2022-05-23 15:40:48.746233-07:00,1285.5,818.5,1162.1,1151.5,1084.2,873.0,1796.5,1296.3,3483.2,3467.4,1434.1,1112.1,1862.5,3469.8,1571.1,1421.3,3467.4,3473.4,1656.8,1963.7,2618.8,3462.5,1619.9,3497.8,3472.2,3472.2,676.6,786.1,2173.8,1219.5,1060.8,1009.9,50.0,86.0,-2.0,11948.0,-10710.0,2029.0,2619.0,579.0,-246.0,-1.0,0.0,57.0,-11.0,11171.0,-11556.0,2476.0,-1996.0,563.0,23.0,-200.0,1.0
2022-05-23 15:40:48.805518-07:00,1285.5,816.0,1157.7,1151.5,1086.0,873.0,1796.5,1296.3,3464.9,3464.9,1424.1,1112.1,1866.4,3469.8,1571.1,1421.3,3467.4,3473.4,1656.8,1956.8,2618.8,3467.4,1619.0,3490.5,3472.2,3472.2,676.6,786.1,2173.8,1231.9,1060.8,1003.9,1.0,66.0,-16.0,12088.0,-10570.0,1940.0,2610.0,309.0,-249.0,-245.0,-5.0,6.0,0.0,11279.0,-11453.0,2366.0,-2110.0,301.0,-17.0,-344.0,1.0
2022-05-23 15:40:48.894399-07:00,1285.5,816.0,1157.7,1148.0,1086.0,867.1,1799.4,1304.3,3464.9,3464.9,1424.1,1113.0,1866.4,3467.4,1561.8,1419.5,3474.6,3467.4,1629.4,1956.8,2624.3,3467.4,1619.0,3490.5,3480.7,3463.7,679.1,786.1,2175.8,1231.9,1060.8,1003.9,-34.0,-102.0,4.0,12185.0,-10485.0,1822.0,2592.0,244.0,-230.0,-170.0,-8.0,-75.0,11.0,11327.0,-11412.0,2245.0,-2208.0,220.0,-48.0,-285.0,1.0
2022-05-23 15:40:48.895597-07:00,1287.3,817.7,1148.9,1148.0,1083.4,867.1,1799.4,1304.3,3473.4,3461.3,1420.4,1113.0,1863.5,3467.4,1561.8,1419.5,3474.6,3467.4,1629.4,1952.9,2624.3,3462.5,1615.2,3483.2,3480.7,3463.7,679.1,794.4,2175.8,1228.4,1060.8,1002.2,-28.0,-41.0,6.0,12271.0,-10388.0,1747.0,2625.0,232.0,-229.0,-10.0,0.0,-46.0,8.0,11398.0,-11346.0,2158.0,-2266.0,258.0,-42.0,-128.0,1.0
2022-05-23 15:40:48.955229-07:00,1287.3,817.7,1148.9,1144.5,1091.2,859.5,1787.8,1291.8,3473.4,3461.3,1420.4,1110.4,1861.5,3466.1,1563.7,1413.1,3472.2,3475.9,1624.7,1959.8,2616.7,3462.5,1615.2,3483.2,3472.2,3473.4,679.9,786.9,2167.7,1228.4,1060.8,1002.2,1.0,29.0,1.0,12320.0,-10334.0,1673.0,2657.0,53.0,-195.0,-118.0,9.0,7.0,17.0,11439.0,-11306.0,2117.0,-2297.0,71.0,2.0,-80.0,1.0
2022-05-23 15:40:49.045393-07:00,1290.9,816.0,1152.4,1163.8,1091.2,859.5,1787.8,1291.8,3466.1,3478.3,1420.4,1112.1,1861.5,3466.1,1563.7,1413.1,3472.2,3475.9,1624.7,1959.8,2604.8,3471.0,1621.8,3484.4,3472.2,3473.4,679.9,786.9,2169.7,1214.2,1065.1,1005.6,7.0,-4.0,-3.0,12352.0,-10315.0,1554.0,2658.0,50.0,-248.0,-203.0,5.0,4.0,25.0,11446.0,-11296.0,2091.0,-2335.0,59.0,32.0,-113.0,1.0
2022-05-23 15:40:49.047384-07:00,1290.9,816.0,1152.4,1163.8,1074.7,860.4,1800.3,1308.8,3466.1,3478.3,1420.4,1112.1,1875.2,3463.7,1566.5,1408.5,3478.3,3468.6,1628.4,1957.8,2604.8,3471.0,1621.8,3484.4,3478.3,3467.4,679.1,797.7,2169.7,1214.2,1065.1,1005.6,14.0,-53.0,32.0,12422.0,-10242.0,1425.0,2685.0,199.0,-289.0,-65.0,28.0,-18.0,-9.0,11499.0,-11236.0,2054.0,-2396.0,261.0,40.0,-120.0,1.0
2022-05-23 15:40:49.105188-07:00,1290.0,815.2,1169.1,1150.6,1074.7,860.4,1800.3,1308.8,3468.6,3466.1,1434.1,1107.8,1875.2,3463.7,1566.5,1408.5,3478.3,3468.6,1628.4,1957.8,2614.5,3466.1,1622.8,3484.4,3478.3,3467.4,679.1,797.7,2160.5,1219.5,1060.8,998.7,-71.0,-58.0,16.0,12400.0,-10277.0,1318.0,2704.0,-81.0,-291.0,-131.0,36.0,-52.0,82.0,11483.0,-11244.0,2068.0,-2425.0,12.0,114.0,21.0,1.0
2022-05-23 15:40:49.165156-07:00,1290.0,815.2,1169.1,1150.6,1089.5,876.4,1798.4,1308.8,3468.6,3466.1,1434.1,1107.8,1857.6,3464.9,1560.9,1412.2,3477.1,3471.0,1615.2,1960.8,2614.5,3466.1,1622.8,3484.4,3473.4,3478.3,704.4,792.7,2160.5,1219.5,1060.8,998.7,68.0,-68.0,82.0,12364.0,-10333.0,1024.0,2783.0,-434.0,-653.0,-344.0,0.0,54.0,-29.0,11458.0,-11246.0,2146.0,-2463.0,-152.0,220.0,52.0,1.0
2022-05-23 15:40:49.194844-07:00,1289.1,815.2,1206.2,1151.5,1089.5,876.4,1798.4,1316.0,3473.4,3469.8,1437.8,1114.7,1857.6,3464.9,1560.9,1412.2,3473.4,3471.0,1615.2,1960.8,2627.5,3457.6,1638.8,3486.8,3473.4,3478.3,704.4,792.7,2134.1,1227.5,1076.4,1008.2,-42.0,33.0,5.0,12358.0,-10339.0,813.0,2857.0,-74.0,-560.0,-160.0,39.0,-30.0,117.0,11455.0,-11218.0,2239.0,-2523.0,50.0,327.0,49.0,1.0
2022-05-23 15:40:49.254933-07:00,1274.7,815.2,1206.2,1151.5,1086.8,938.1,1811.9,1316.0,3467.4,3469.8,1437.8,1114.7,1861.5,3471.0,1572.1,1412.2,3473.4,3471.0,1636.9,1958.8,2627.5,3457.6,1638.8,3490.5,3473.4,3481.9,747.2,812.7,2134.1,1227.5,1076.4,1001.3,99.0,-53.0,96.0,12319.0,-10367.0,477.0,2995.0,-302.0,-628.0,-201.0,-14.0,29.0,-50.0,11417.0,-11205.0,2384.0,-2619.0,-159.0,361.0,71.0,1.0
2022-05-23 15:40:49.315032-07:00,1274.7,811.9,1178.8,1117.4,1086.8,938.1,1811.9,1309.7,3467.4,3460.1,1452.5,1111.2,1861.5,3471.0,1572.1,1398.5,3473.4,3471.0,1636.9,1958.8,2640.6,3464.9,1659.6,3490.5,3479.5,3481.9,747.2,812.7,2101.7,1208.0,1084.2,1001.3,-6.0,0.0,-8.0,12282.0,-10389.0,309.0,3090.0,-76.0,-485.0,-49.0,-1.0,-48.0,15.0,11370.0,-11205.0,2526.0,-2691.0,45.0,409.0,108.0,1.0
2022-05-23 15:40:49.374428-07:00,1296.3,811.9,1178.8,1117.4,1070.3,969.6,1814.9,1309.7,3466.1,3460.1,1452.5,1111.2,1851.8,3463.7,1573.0,1398.5,3473.4,3471.0,1651.1,1957.8,2640.6,3464.9,1659.6,3488.0,3479.5,3473.4,772.8,816.9,2101.7,1208.0,1084.2,988.5,19.0,43.0,-26.0,12242.0,-10416.0,75.0,3174.0,-385.0,-443.0,-220.0,-17.0,61.0,-65.0,11327.0,-11194.0,2674.0,-2772.0,-275.0,334.0,66.0,1.0
2022-05-23 15:40:49.434875-07:00,1296.3,818.5,1157.7,1099.9,1070.3,969.6,1814.9,1318.7,3466.1,3468.6,1441.5,1089.5,1851.8,3463.7,1573.0,1365.7,3475.9,3471.0,1651.1,1957.8,2640.6,3466.1,1686.2,3488.0,3474.6,3473.4,772.8,816.9,2053.4,1192.0,1062.5,988.5,-22.0,-1.0,-79.0,12116.0,-10546.0,-105.0,3228.0,-522.0,-343.0,-56.0,-27.0,14.0,-48.0,11186.0,-11295.0,2796.0,-2812.0,-426.0,238.0,25.0,1.0
2022-05-23 15:40:49.464871-07:00,1289.1,818.5,1157.7,1099.9,1074.7,969.6,1802.3,1318.7,3471.0,3468.6,1441.5,1089.5,1849.8,3478.3,1522.7,1365.7,3475.9,3478.3,1662.5,1951.9,2640.6,3466.1,1686.2,3497.8,3474.6,3474.6,775.3,812.7,2053.4,1192.0,1062.5,982.5,-2.0,20.0,-68.0,11980.0,-10685.0,-269.0,3267.0,-381.0,-177.0,-162.0,-29.0,39.0,-75.0,11038.0,-11424.0,2864.0,-2808.0,-485.0,20.0,-35.0,1.0
2022-05-23 15:40:49.494644-07:00,1289.1,816.9,1143.6,1080.8,1074.7,969.6,1819.7,1291.8,3471.0,3472.2,1402.1,1038.3,1849.8,3478.3,1462.6,1337.7,3473.4,3471.0,1662.5,1951.9,2643.9,3489.2,1741.6,3497.8,3475.9,3475.9,775.3,812.7,2044.4,1170.9,1052.2,982.5,-10.0,48.0,-68.0,11852.0,-10823.0,-394.0,3268.0,-637.0,-132.0,-124.0,-26.0,63.0,-65.0,10844.0,-11620.0,2870.0,-2753.0,-690.0,-140.0,-113.0,1.0
2022-05-23 15:40:49.554749-07:00,1284.6,819.4,1143.6,1080.8,1058.2,984.2,1819.7,1291.8,3464.9,3473.4,1402.1,1038.3,1840.1,3468.6,1462.6,1337.7,3473.4,3471.0,1653.9,1951.9,2643.9,3489.2,1754.1,3486.8,3475.9,3475.9,776.1,820.2,2044.4,1170.9,1046.1,977.3,-30.0,-2.0,-76.0,11548.0,-11130.0,-497.0,3310.0,-1042.0,-235.0,164.0,-4.0,-2.0,14.0,10537.0,-11931.0,2823.0,-2663.0,-1137.0,-231.0,-209.0,1.0
2022-05-23 15:40:49.674311-07:00,1284.6,819.4,1130.5,1059.9,1058.2,984.2,1889.9,1359.4,3464.9,3473.4,1340.4,997.9,1840.1,3468.6,1412.2,1318.7,3473.4,3478.3,1653.9,1951.9,2637.3,3462.5,1754.1,3486.8,3467.4,3478.3,776.1,820.2,2026.4,1141.0,1046.1,977.3,5.0,-30.0,-9.0,11188.0,-11427.0,-672.0,3500.0,-1171.0,-507.0,243.0,-12.0,-3.0,-59.0,10127.0,-12316.0,2778.0,-2545.0,-1312.0,-268.0,-202.0,1.0
2022-05-23 15:40:49.675517-07:00,1299.8,821.0,1130.5,1059.9,1052.2,977.3,1889.9,1359.4,3460.1,3478.3,1340.4,997.9,1831.3,3472.2,1412.2,1318.7,3473.4,3478.3,1646.4,1966.7,2637.3,3462.5,1806.1,3499.0,3467.4,3478.3,775.3,820.2,2026.4,1141.0,1021.1,990.2,-3.0,-91.0,70.0,10901.0,-11660.0,-765.0,3617.0,-518.0,-141.0,164.0,7.0,-44.0,29.0,9805.0,-12610.0,2713.0,-2434.0,-669.0,-239.0,-148.0,1.0
2022-05-23 15:40:49.704821-07:00,1299.8,821.0,1119.1,1034.0,1052.2,977.3,1956.8,1538.5,3460.1,3478.3,1286.4,966.2,1831.3,3472.2,1373.0,1292.7,3469.8,3471.0,1646.4,1966.7,2639.5,3495.3,1806.1,3499.0,3474.6,3474.6,775.3,820.2,2030.4,1121.7,1021.1,990.2,-7.0,41.0,19.0,10792.0,-11737.0,-742.0,3696.0,-362.0,-8.0,210.0,4.0,9.0,21.0,9675.0,-12737.0,2643.0,-2370.0,-428.0,-193.0,-131.0,1.0
2022-05-23 15:40:49.794778-07:00,1323.2,848.6,1102.5,1034.0,1048.7,972.2,1956.8,1538.5,3471.0,3464.9,1242.6,966.2,1826.5,3466.1,1373.0,1292.7,3469.8,3471.0,1630.3,2003.5,2639.5,3486.8,1843.0,3484.4,3474.6,3474.6,780.3,813.5,2030.4,1116.5,1021.9,969.6,1.0,-3.0,21.0,10663.0,-11836.0,-750.0,3754.0,-261.0,-84.0,88.0,0.0,-23.0,5.0,9557.0,-12852.0,2566.0,-2310.0,-298.0,-211.0,-142.0,1.0
2022-05-23 15:40:49.796432-07:00,1323.2,848.6,1102.5,1021.1,1048.7,958.5,1981.6,1583.3,3471.0,3464.9,1242.6,954.3,1826.5,3468.6,1344.0,1273.9,3473.4,3467.4,1659.6,2003.5,2636.2,3486.8,1843.0,3484.4,3474.6,3477.1,771.1,813.5,2009.4,1116.5,1021.9,969.6,-20.0,3.0,19.0,10542.0,-11948.0,-792.0,3731.0,-508.0,47.0,-72.0,-2.0,-42.0,13.0,9419.0,-12977.0,2493.0,-2257.0,-449.0,-170.0,-148.0,1.0
2022-05-23 15:40:49.855394-07:00,1347.6,845.3,1099.0,1021.1,1047.0,958.5,1981.6,1583.3,3467.4,3464.9,1225.7,954.3,1807.1,3468.6,1344.0,1273.9,3473.4,3467.4,1659.6,2036.4,2636.2,3497.8,1876.2,3495.3,3474.6,3477.1,771.1,809.4,2009.4,1088.6,1015.1,976.5,-11.0,-40.0,65.0,10517.0,-11987.0,-795.0,3676.0,249.0,199.0,-44.0,-4.0,-29.0,10.0,9421.0,-12990.0,2441.0,-2234.0,189.0,-90.0,-32.0,1.0
2022-05-23 15:40:49.914906-07:00,1347.6,845.3,1099.0,1008.2,1047.0,944.9,1944.0,1598.3,3467.4,3464.9,1225.7,950.0,1807.1,3468.6,1324.1,1270.3,3483.2,3468.6,1627.5,2036.4,2628.6,3497.8,1876.2,3495.3,3481.9,3467.4,761.2,809.4,1990.5,1088.6,1015.1,976.5,-18.0,27.0,-15.0,10573.0,-11965.0,-739.0,3599.0,20.0,156.0,-70.0,5.0,2.0,11.0,9446.0,-12978.0,2415.0,-2223.0,-23.0,-74.0,-35.0,1.0
2022-05-23 15:40:49.944961-07:00,1351.2,852.8,1101.7,1008.2,1038.3,944.9,1944.0,1598.3,3473.4,3464.9,1206.2,950.0,1801.3,3468.6,1324.1,1270.3,3483.2,3468.6,1627.5,2030.4,2628.6,3497.8,1886.9,3486.8,3481.9,3467.4,761.2,808.5,1990.5,1074.7,997.9,973.1,19.0,13.0,6.0,10561.0,-11991.0,-743.0,3544.0,-137.0,116.0,-63.0,15.0,-23.0,12.0,9435.0,-12995.0,2380.0,-2209.0,-47.0,-74.0,-50.0,1.0
2022-05-23 15:40:50.034862-07:00,1351.2,852.8,1101.7,1007.3,1038.3,931.3,1946.9,1667.2,3473.4,3464.9,1206.2,939.0,1801.3,3473.4,1303.4,1259.6,3467.4,3463.7,1621.8,2030.4,2625.4,3497.8,1886.9,3486.8,3485.6,3478.3,751.3,808.5,1978.6,1074.7,997.9,973.1,-6.0,-28.0,-8.0,10516.0,-12051.0,-749.0,3473.0,-196.0,87.0,-76.0,18.0,-18.0,16.0,9433.0,-13004.0,2344.0,-2203.0,10.0,-58.0,-26.0,1.0
2022-05-23 15:40:50.094629-07:00,1353.1,844.4,1087.7,1004.8,1054.8,931.3,1946.9,1667.2,3464.9,3466.1,1202.7,941.5,1799.4,3473.4,1303.4,1259.6,3467.4,3463.7,1621.8,2031.4,2629.7,3490.5,1905.6,3492.9,3485.6,3478.3,751.3,811.9,1988.5,1067.7,991.9,970.5,3.0,-18.0,22.0,10507.0,-12070.0,-749.0,3434.0,27.0,56.0,-40.0,5.0,-10.0,-2.0,9451.0,-12996.0,2324.0,-2194.0,26.0,-35.0,16.0,1.0
2022-05-23 15:40:50.096111-07:00,1353.1,844.4,1087.7,1004.8,1034.9,916.9,1918.3,1714.8,3464.9,3466.1,1202.7,941.5,1793.6,3474.6,1284.6,1260.4,3475.9,3469.8,1626.5,2025.4,2629.7,3490.5,1905.6,3492.9,3483.2,3480.7,745.5,801.9,1988.5,1067.7,991.9,970.5,-16.0,-5.0,2.0,10504.0,-12082.0,-728.0,3406.0,-48.0,54.0,10.0,0.0,1.0,12.0,9452.0,-12998.0,2328.0,-2176.0,-79.0,-21.0,47.0,1.0
2022-05-23 15:40:50.155506-07:00,1343.1,821.9,1080.8,991.9,1034.9,916.9,1918.3,1714.8,3467.4,3468.6,1197.4,931.3,1793.6,3474.6,1284.6,1260.4,3475.9,3469.8,1626.5,2025.4,2619.9,3492.9,1893.8,3492.9,3483.2,3480.7,745.5,801.9,1971.7,1068.6,980.7,973.9,-2.0,6.0,14.0,10453.0,-12124.0,-705.0,3420.0,-152.0,46.0,103.0,-2.0,-12.0,-3.0,9418.0,-13023.0,2346.0,-2150.0,-107.0,-16.0,47.0,1.0
2022-05-23 15:40:50.214807-07:00,1343.1,821.9,1080.8,991.9,1030.6,922.8,1885.0,1671.0,3467.4,3468.6,1197.4,931.3,1786.8,3469.8,1281.0,1247.1,3481.9,3469.8,1620.9,2022.4,2619.9,3492.9,1893.8,3492.9,3474.6,3468.6,760.4,794.4,1971.7,1068.6,980.7,973.9,-17.0,15.0,3.0,10418.0,-12158.0,-678.0,3409.0,-77.0,68.0,20.0,-11.0,-7.0,6.0,9390.0,-13045.0,2359.0,-2128.0,-19.0,-14.0,15.0,1.0
2022-05-23 15:40:50.244791-07:00,1343.1,826.9,1077.3,990.2,1030.6,922.8,1885.0,1671.0,3478.3,3467.4,1193.8,931.3,1786.8,3469.8,1281.0,1247.1,3481.9,3469.8,1620.9,2022.4,2615.6,3481.9,1880.1,3490.5,3474.6,3468.6,760.4,794.4,1963.7,1055.6,981.6,965.4,-3.0,29.0,8.0,10426.0,-12160.0,-624.0,3388.0,48.0,161.0,72.0,1.0,3.0,3.0,9405.0,-13036.0,2354.0,-2121.0,20.0,-20.0,1.0,1.0
2022-05-23 15:40:50.304862-07:00,1350.3,826.9,1077.3,990.2,1028.0,912.7,1873.2,1653.9,3466.1,3467.4,1193.8,931.3,1777.2,3468.6,1275.6,1242.6,3480.7,3475.9,1616.2,2016.4,2615.6,3481.9,1880.1,3489.2,3473.4,3475.9,739.7,794.4,1963.7,1055.6,981.6,952.6,-19.0,23.0,5.0,10422.0,-12168.0,-595.0,3376.0,-45.0,-31.0,-12.0,2.0,0.0,2.0,9409.0,-13034.0,2353.0,-2119.0,-47.0,9.0,8.0,1.0
2022-05-23 15:40:50.335229-07:00,1350.3,821.9,1083.4,984.2,1028.0,912.7,1873.2,1653.0,3466.1,3462.5,1197.4,921.1,1777.2,3468.6,1275.6,1248.0,3478.3,3475.9,1616.2,2016.4,2613.4,3490.5,1877.2,3489.2,3477.1,3475.9,739.7,794.4,1949.9,1063.4,987.6,952.6,2.0,-1.0,1.0,10413.0,-12174.0,-618.0,3378.0,29.0,-28.0,-33.0,10.0,-6.0,5.0,9397.0,-13043.0,2354.0,-2118.0,11.0,0.0,-7.0,1.0
2022-05-23 15:40:50.394284-07:00,1338.6,821.9,1083.4,984.2,1032.3,910.1,1855.7,1653.0,3468.6,3462.5,1197.4,921.1,1769.5,3472.2,1273.0,1248.0,3478.3,3478.3,1627.5,2018.4,2613.4,3490.5,1877.2,3495.3,3477.1,3478.3,728.2,784.4,1949.9,1063.4,987.6,955.1,-10.0,8.0,3.0,10421.0,-12160.0,-665.0,3394.0,3.0,-174.0,-106.0,4.0,-20.0,8.0,9393.0,-13045.0,2353.0,-2121.0,-36.0,16.0,-6.0,1.0
2022-05-23 15:40:50.485597-07:00,1338.6,815.2,1074.7,989.3,1032.3,910.1,1855.7,1630.3,3468.6,3469.8,1188.5,922.8,1769.5,3472.2,1273.0,1236.4,3467.4,3478.3,1627.5,2018.4,2603.7,3480.7,1867.4,3495.3,3472.2,3478.3,728.2,784.4,1959.8,1059.1,980.7,955.1,0.0,6.0,6.0,10459.0,-12124.0,-700.0,3400.0,116.0,1.0,-24.0,-3.0,-6.0,-1.0,9403.0,-13037.0,2352.0,-2124.0,54.0,0.0,-4.0,1.0
2022-05-23 15:40:50.487341-07:00,1341.3,815.2,1074.7,989.3,1021.1,904.2,1858.6,1630.3,3472.2,3469.8,1188.5,922.8,1774.3,3467.4,1269.4,1236.4,3467.4,3472.2,1632.2,2019.4,2603.7,3480.7,1867.4,3486.8,3472.2,3478.3,734.8,798.5,1959.8,1059.1,980.7,958.5,-7.0,-1.0,8.0,10470.0,-12111.0,-693.0,3413.0,24.0,-16.0,43.0,-3.0,-7.0,-5.0,9417.0,-13027.0,2351.0,-2127.0,25.0,5.0,10.0,1.0
2022-05-23 15:40:50.545076-07:00,1341.3,815.2,1079.0,994.5,1021.1,904.2,1857.6,1621.8,3472.2,3475.9,1189.4,923.7,1774.3,3467.4,1269.4,1239.1,3478.3,3475.9,1632.2,2019.4,2614.5,3486.8,1863.5,3486.8,3471.0,3467.4,734.8,798.5,1946.9,1055.6,981.6,958.5,-2.0,19.0,5.0,10463.0,-12115.0,-679.0,3425.0,-32.0,10.0,29.0,-1.0,-7.0,0.0,9418.0,-13026.0,2356.0,-2123.0,-12.0,1.0,15.0,1.0
2022-05-23 15:40:50.604740-07:00,1338.6,809.4,1079.0,994.5,1015.9,905.9,1857.6,1621.8,3478.3,3471.0,1189.4,923.7,1775.2,3478.3,1269.4,1239.1,3478.3,3475.9,1619.9,2016.4,2614.5,3486.8,1857.6,3497.8,3471.0,3467.4,724.1,782.7,1946.9,1055.6,975.6,952.6,-3.0,9.0,8.0,10455.0,-12123.0,-675.0,3421.0,-9.0,18.0,-15.0,0.0,-4.0,-1.0,9410.0,-13032.0,2358.0,-2120.0,-19.0,-9.0,9.0,1.0
2022-05-23 15:40:50.665346-07:00,1338.6,809.4,1066.0,983.3,1015.9,905.9,1833.3,1611.5,3478.3,3471.0,1181.5,926.2,1775.2,3478.3,1262.2,1237.3,3475.9,3478.3,1619.9,2016.4,2615.6,3484.4,1857.6,3497.8,3473.4,3472.2,724.1,782.7,1948.9,1045.2,975.6,952.6,-5.0,7.0,3.0,10451.0,-12132.0,-665.0,3404.0,-21.0,57.0,6.0,-5.0,-6.0,0.0,9401.0,-13040.0,2357.0,-2113.0,-33.0,-15.0,-4.0,1.0
2022-05-23 15:40:50.694959-07:00,1325.9,806.9,1066.0,983.3,1015.9,900.0,1833.3,1611.5,3462.5,3466.1,1181.5,926.2,1759.8,3462.5,1262.2,1237.3,3475.9,3478.3,1620.9,2011.4,2615.6,3484.4,1857.6,3491.7,3473.4,3472.2,717.5,781.9,1948.9,1045.2,974.8,944.9,-1.0,10.0,-16.0,10437.0,-12145.0,-659.0,3402.0,-52.0,-32.0,12.0,7.0,-2.0,-7.0,9390.0,-13050.0,2354.0,-2104.0,-31.0,-23.0,-5.0,1.0
2022-05-23 15:40:50.754745-07:00,1325.9,806.9,1066.9,985.0,1015.9,900.0,1841.1,1619.9,3462.5,3466.1,1180.6,926.2,1759.8,3462.5,1258.7,1231.9,3458.9,3471.0,1620.9,2011.4,2618.8,3492.9,1857.6,3491.7,3469.8,3472.2,717.5,781.9,1933.1,1052.2,974.8,944.9,10.0,-12.0,18.0,10415.0,-12159.0,-680.0,3416.0,-36.0,-27.0,6.0,8.0,-22.0,1.0,9378.0,-13063.0,2345.0,-2089.0,-5.0,-39.0,-5.0,1.0
2022-05-23 15:40:50.814937-07:00,1338.6,807.7,1066.9,985.0,1007.3,904.2,1841.1,1619.9,3471.0,3471.0,1180.6,926.2,1764.6,3469.8,1258.7,1231.9,3458.9,3471.0,1620.9,2014.4,2618.8,3492.9,1848.9,3479.5,3469.8,3472.2,718.4,785.2,1933.1,1052.2,971.3,956.0,-12.0,15.0,1.0,10413.0,-12160.0,-668.0,3421.0,-50.0,5.0,26.0,0.0,-8.0,0.0,9380.0,-13064.0,2339.0,-2080.0,-50.0,-18.0,9.0,1.0
2022-05-23 15:40:50.845124-07:00,1338.6,807.7,1081.6,976.5,1007.3,895.7,1825.5,1611.5,3471.0,3471.0,1177.9,914.4,1764.6,3467.4,1264.0,1233.7,3479.5,3478.3,1613.4,2014.4,2604.8,3484.4,1848.9,3479.5,3478.3,3472.2,712.6,785.2,1946.9,1047.0,971.3,956.0,-9.0,-8.0,19.0,10384.0,-12184.0,-673.0,3422.0,-66.0,16.0,0.0,1.0,-37.0,10.0,9357.0,-13083.0,2340.0,-2061.0,-30.0,-29.0,21.0,1.0
2022-05-23 15:40:50.965046-07:00,1335.0,816.0,1077.3,976.5,1015.1,895.7,1825.5,1611.5,3474.6,3478.3,1179.7,914.4,1758.9,3467.4,1264.0,1233.7,3479.5,3478.3,1613.4,2004.5,2604.8,3481.9,1856.7,3486.8,3478.3,3472.2,712.6,782.7,1946.9,1054.8,971.3,951.7,11.0,7.0,21.0,10460.0,-12125.0,-633.0,3406.0,428.0,121.0,0.0,0.0,16.0,-12.0,9453.0,-13013.0,2340.0,-2062.0,416.0,1.0,50.0,1.0
2022-05-23 15:40:50.994553-07:00,1335.0,816.0,1077.3,968.8,1015.1,901.7,1831.3,1608.7,3474.6,3478.3,1179.7,913.5,1758.9,3478.3,1261.3,1233.7,3488.0,3464.9,1596.4,2004.5,2616.7,3481.9,1856.7,3486.8,3483.2,3462.5,714.2,782.7,1939.0,1054.8,971.3,951.7,-15.0,54.0,-22.0,10558.0,-12061.0,-566.0,3345.0,45.0,130.0,-51.0,0.0,12.0,6.0,9524.0,-12962.0,2327.0,-2073.0,-37.0,-6.0,-28.0,1.0
2022-05-23 15:40:50.995669-07:00,1343.1,808.5,1061.7,968.8,1010.8,901.7,1831.3,1608.7,3467.4,3457.6,1172.6,913.5,1759.8,3478.3,1261.3,1233.7,3488.0,3464.9,1596.4,2003.5,2616.7,3469.8,1840.1,3486.8,3483.2,3462.5,714.2,774.5,1939.0,1048.7,971.3,944.9,-14.0,-27.0,11.0,10528.0,-12092.0,-581.0,3322.0,-53.0,-14.0,-18.0,-2.0,-36.0,6.0,9485.0,-12991.0,2329.0,-2070.0,-47.0,5.0,6.0,1.0
2022-05-23 15:40:51.054830-07:00,1343.1,808.5,1061.7,984.2,1010.8,900.8,1817.8,1596.4,3467.4,3457.6,1172.6,919.4,1759.8,3469.8,1252.4,1227.5,3469.8,3474.6,1610.5,2003.5,2603.7,3469.8,1840.1,3486.8,3467.4,3473.4,715.9,774.5,1937.1,1048.7,971.3,944.9,4.0,0.0,11.0,10517.0,-12102.0,-568.0,3322.0,-36.0,51.0,41.0,5.0,-8.0,0.0,9473.0,-13000.0,2338.0,-2062.0,-45.0,2.0,24.0,1.0
2022-05-23 15:40:51.115646-07:00,1335.0,811.9,1062.5,979.9,1004.8,900.8,1817.8,1596.4,3468.6,3473.4,1172.6,913.5,1760.8,3469.8,1252.4,1227.5,3469.8,3474.6,1610.5,2007.4,2609.1,3477.1,1841.1,3488.0,3467.4,3473.4,715.9,783.6,1937.1,1055.6,974.8,951.7,3.0,13.0,2.0,10507.0,-12114.0,-547.0,3315.0,-32.0,25.0,19.0,3.0,1.0,0.0,9463.0,-13006.0,2348.0,-2055.0,-43.0,1.0,21.0,1.0
2022-05-23 15:40:51.174345-07:00,1335.0,811.9,1062.5,979.9,998.7,903.4,1817.8,1601.1,3468.6,3473.4,1172.6,913.5,1752.1,3472.2,1260.4,1216.8,3472.2,3480.7,1623.7,2003.5,2609.1,3477.1,1841.1,3488.0,3475.9,3473.4,712.6,775.3,1937.1,1055.6,974.8,951.7,-6.0,8.0,-8.0,10481.0,-12137.0,-538.0,3314.0,-56.0,1.0,7.0,3.0,-16.0,1.0,9439.0,-13023.0,2358.0,-2046.0,-55.0,-7.0,17.0,1.0
2022-05-23 15:40:51.205356-07:00,1328.7,819.4,1059.1,971.3,998.7,903.4,1817.8,1601.1,3474.6,3468.6,1172.6,911.8,1752.1,3472.2,1260.4,1216.8,3472.2,3480.7,1623.7,2003.5,2601.5,3474.6,1844.0,3492.9,3475.9,3473.4,712.6,775.3,1920.3,1047.8,967.1,942.4,0.0,8.0,-7.0,10475.0,-12139.0,-548.0,3326.0,5.0,-35.0,7.0,-4.0,-6.0,-7.0,9436.0,-13026.0,2359.0,-2037.0,8.0,-22.0,11.0,1.0
2022-05-23 15:40:51.324362-07:00,1328.7,819.4,1059.1,971.3,1007.3,894.1,1817.8,1592.7,3474.6,3468.6,1172.6,911.8,1754.1,3452.8,1260.4,1230.2,3478.3,3477.1,1604.0,1997.5,2601.5,3474.6,1844.0,3492.9,3485.6,3474.6,712.6,778.6,1920.3,1047.8,967.1,942.4,0.0,9.0,1.0,10465.0,-12144.0,-554.0,3337.0,-62.0,-19.0,13.0,5.0,-3.0,-1.0,9430.0,-13033.0,2355.0,-2028.0,-54.0,-24.0,7.0,1.0
2022-05-23 15:40:51.325706-07:00,1327.8,806.0,1061.7,973.9,1007.3,894.1,1817.8,1592.7,3471.0,3488.0,1176.2,919.4,1754.1,3452.8,1260.4,1230.2,3478.3,3477.1,1604.0,1997.5,2608.0,3477.1,1843.0,3491.7,3485.6,3474.6,712.6,778.6,1930.2,1049.6,971.3,950.0,-4.0,-5.0,15.0,10444.0,-12160.0,-564.0,3344.0,-33.0,-21.0,6.0,0.0,-17.0,8.0,9413.0,-13047.0,2355.0,-2013.0,-22.0,-21.0,16.0,1.0
2022-05-23 15:40:51.354857-07:00,1335.9,806.0,1061.7,973.9,997.9,889.0,1837.2,1590.8,3471.0,3488.0,1176.2,919.4,1755.0,3468.6,1249.7,1227.5,3471.0,3462.5,1606.8,1995.5,2608.0,3477.1,1843.0,3490.5,3462.5,3472.2,719.2,777.8,1930.2,1049.6,971.3,949.2,-11.0,15.0,3.0,10433.0,-12164.0,-578.0,3361.0,-85.0,-77.0,14.0,0.0,0.0,11.0,9401.0,-13057.0,2359.0,-2000.0,-83.0,-14.0,20.0,1.0
2022-05-23 15:40:51.385166-07:00,1335.9,812.7,1063.4,980.7,997.9,889.0,1837.2,1594.6,3471.0,3458.9,1174.4,921.1,1755.0,3468.6,1249.7,1227.5,3475.9,3462.5,1606.8,1995.5,2604.8,3474.6,1832.3,3490.5,3469.8,3472.2,719.2,777.8,1927.2,1053.0,967.9,949.2,-7.0,-21.0,27.0,10366.0,-12204.0,-614.0,3414.0,-249.0,-144.0,69.0,9.0,-30.0,26.0,9353.0,-13092.0,2375.0,-1982.0,-163.0,8.0,41.0,1.0
2022-05-23 15:40:51.474611-07:00,1326.8,812.7,1063.4,980.7,996.2,905.9,1810.0,1594.6,3463.7,3458.9,1174.4,921.1,1752.1,3471.0,1244.4,1227.5,3475.9,3464.9,1611.5,1994.5,2604.8,3474.6,1832.3,3480.7,3469.8,3478.3,711.8,780.3,1927.2,1053.0,967.9,946.6,1.0,-13.0,70.0,10321.0,-12221.0,-640.0,3486.0,-41.0,-156.0,68.0,21.0,-35.0,47.0,9355.0,-13081.0,2425.0,-1983.0,25.0,111.0,141.0,1.0
2022-05-23 15:40:51.565109-07:00,1326.8,804.4,1072.9,983.3,996.2,905.9,1810.0,1573.9,3463.7,3464.9,1184.1,922.8,1752.1,3471.0,1244.4,1230.2,3468.6,3464.9,1611.5,1994.5,2605.8,3480.7,1829.4,3480.7,3473.4,3478.3,711.8,780.3,1915.4,1048.7,980.7,946.6,-19.0,49.0,69.0,10320.0,-12209.0,-706.0,3516.0,20.0,-196.0,-193.0,18.0,-19.0,70.0,9396.0,-13027.0,2510.0,-2037.0,-16.0,256.0,148.0,1.0
2022-05-23 15:40:51.566462-07:00,1325.0,804.4,1072.9,983.3,983.3,942.4,1811.0,1573.9,3474.6,3464.9,1184.1,922.8,1738.7,3474.6,1287.3,1230.2,3468.6,3469.8,1609.6,1998.5,2605.8,3480.7,1829.4,3488.0,3473.4,3469.8,711.8,829.4,1915.4,1048.7,980.7,946.6,30.0,-72.0,58.0,10369.0,-12143.0,-855.0,3571.0,350.0,-294.0,-135.0,8.0,-32.0,-7.0,9445.0,-12962.0,2603.0,-2110.0,496.0,360.0,166.0,1.0
2022-05-23 15:40:51.594364-07:00,1325.0,811.0,1119.1,1041.8,983.3,942.4,1811.0,1599.3,3474.6,3473.4,1189.4,925.4,1738.7,3474.6,1287.3,1259.6,3473.4,3469.8,1609.6,1998.5,2614.5,3483.2,1804.2,3488.0,3473.4,3469.8,711.8,829.4,1916.4,1079.9,1016.8,946.6,-6.0,21.0,-16.0,10655.0,-11890.0,-803.0,3593.0,1084.0,-34.0,-68.0,-5.0,10.0,-17.0,9699.0,-12726.0,2711.0,-2251.0,1016.0,404.0,171.0,1.0
2022-05-23 15:40:51.714981-07:00,1315.1,811.0,1119.1,1041.8,1000.5,984.2,1895.8,1599.3,3473.4,3464.9,1189.4,925.4,1757.9,3468.6,1316.0,1259.6,3473.4,3474.6,1606.8,1999.5,2614.5,3483.2,1775.2,3491.7,3473.4,3483.2,720.0,886.5,1916.4,1079.9,1028.0,946.6,-28.0,110.0,-62.0,10835.0,-11720.0,-865.0,3596.0,12.0,-273.0,-308.0,-16.0,58.0,-11.0,9909.0,-12515.0,2810.0,-2394.0,70.0,310.0,60.0,1.0
2022-05-23 15:40:51.717420-07:00,1315.1,811.0,1160.3,1069.5,1000.5,984.2,1976.6,1631.3,3473.4,3464.9,1202.7,943.2,1757.9,3468.6,1377.5,1268.5,3469.8,3468.6,1606.8,1999.5,2603.7,3481.9,1775.2,3491.7,3474.6,3472.2,720.0,886.5,1926.2,1097.3,1028.0,946.6,0.0,-44.0,-17.0,10764.0,-11747.0,-1104.0,3655.0,-219.0,-480.0,-179.0,-9.0,-10.0,-45.0,9907.0,-12478.0,2891.0,-2494.0,269.0,292.0,0.0,1.0
2022-05-23 15:40:51.835396-07:00,1299.8,813.5,1160.3,1069.5,1002.2,988.5,1976.6,1631.3,3468.6,3463.7,1202.7,943.2,1755.0,3480.7,1377.5,1268.5,3469.8,3468.6,1612.4,1998.5,2603.7,3481.9,1768.5,3474.6,3474.6,3472.2,727.4,919.4,1926.2,1097.3,1052.2,939.0,2.0,-21.0,-23.0,10841.0,-11650.0,-1205.0,3705.0,390.0,-157.0,-182.0,-3.0,-36.0,-47.0,10041.0,-12334.0,2939.0,-2619.0,623.0,255.0,22.0,1.0
2022-05-23 15:40:51.865150-07:00,1299.8,813.5,1166.5,1077.3,1002.2,988.5,1965.7,1593.6,3468.6,3463.7,1222.2,938.1,1755.0,3480.7,1416.7,1273.9,3466.1,3462.5,1612.4,1998.5,2617.8,3480.7,1768.5,3474.6,3467.4,3478.3,727.4,919.4,1913.4,1103.4,1052.2,939.0,-28.0,-45.0,-16.0,11006.0,-11483.0,-1271.0,3718.0,626.0,-204.0,-217.0,-12.0,-25.0,-46.0,10250.0,-12128.0,2965.0,-2738.0,884.0,212.0,73.0,1.0
2022-05-23 15:40:51.868083-07:00,1294.5,815.2,1166.5,1077.3,991.0,979.9,1965.7,1593.6,3460.1,3473.4,1222.2,938.1,1744.5,3462.5,1416.7,1273.9,3466.1,3462.5,1647.3,1995.5,2617.8,3480.7,1749.3,3477.1,3467.4,3478.3,725.8,935.6,1913.4,1103.4,1053.0,946.6,-9.0,59.0,-74.0,11254.0,-11238.0,-1271.0,3727.0,705.0,-17.0,-141.0,-12.0,21.0,-63.0,10531.0,-11861.0,2957.0,-2848.0,743.0,76.0,-5.0,1.0
2022-05-23 15:40:51.954770-07:00,1294.5,815.2,1169.1,1077.3,991.0,961.1,1950.9,1544.1,3460.1,3473.4,1286.4,974.8,1744.5,3466.1,1466.3,1291.8,3458.9,3473.4,1611.5,1995.5,2631.9,3489.2,1749.3,3477.1,3471.0,3478.3,717.5,935.6,1904.6,1114.7,1053.0,946.6,-27.0,-17.0,-75.0,11438.0,-11041.0,-1251.0,3761.0,617.0,-156.0,29.0,-5.0,-13.0,-70.0,10742.0,-11665.0,2906.0,-2917.0,678.0,-34.0,-11.0,1.0
2022-05-23 15:40:51.957398-07:00,1310.6,812.7,1167.4,1077.3,993.6,961.1,1950.9,1544.1,3471.0,3464.9,1335.0,974.8,1750.2,3466.1,1466.3,1291.8,3458.9,3473.4,1611.5,2015.4,2631.9,3486.8,1735.8,3485.6,3471.0,3478.3,717.5,939.8,1904.6,1102.5,1049.6,952.6,-10.0,6.0,-25.0,11603.0,-10861.0,-1237.0,3785.0,543.0,-52.0,-139.0,2.0,-19.0,-20.0,10917.0,-11514.0,2834.0,-2940.0,499.0,-121.0,-38.0,1.0
2022-05-23 15:40:51.985185-07:00,1310.6,812.7,1167.4,1074.7,993.6,958.5,1953.9,1516.2,3471.0,3464.9,1335.0,986.7,1750.2,3468.6,1468.1,1305.2,3469.8,3474.6,1623.7,2015.4,2643.9,3486.8,1735.8,3485.6,3469.8,3468.6,722.5,939.8,1921.3,1102.5,1049.6,952.6,-28.0,-8.0,-4.0,11730.0,-10708.0,-1253.0,3825.0,376.0,-204.0,27.0,-7.0,0.0,-3.0,11071.0,-11385.0,2748.0,-2951.0,443.0,-121.0,-20.0,1.0
2022-05-23 15:40:52.105000-07:00,1302.5,821.0,1168.2,1074.7,994.5,958.5,1953.9,1516.2,3477.1,3467.4,1396.7,986.7,1749.3,3468.6,1468.1,1305.2,3469.8,3474.6,1623.7,2013.4,2643.9,3489.2,1716.7,3497.8,3469.8,3468.6,722.5,933.0,1921.3,1101.7,1038.3,949.2,-3.0,-39.0,63.0,11808.0,-10600.0,-1261.0,3881.0,327.0,-12.0,47.0,-3.0,-8.0,-22.0,11188.0,-11289.0,2674.0,-2945.0,309.0,-129.0,-19.0,1.0
2022-05-23 15:40:52.107795-07:00,1302.5,821.0,1168.2,1059.1,994.5,950.0,1938.0,1490.3,3477.1,3467.4,1396.7,1017.6,1749.3,3467.4,1469.0,1292.7,3464.9,3475.9,1626.5,2013.4,2661.3,3489.2,1716.7,3497.8,3480.7,3485.6,714.2,933.0,1914.4,1101.7,1038.3,949.2,-30.0,-86.0,5.0,11890.0,-10521.0,-1129.0,3888.0,349.0,255.0,240.0,-2.0,-55.0,-11.0,11261.0,-11238.0,2610.0,-2919.0,230.0,-196.0,42.0,1.0
2022-05-23 15:40:52.165045-07:00,1300.7,807.7,1174.4,1059.1,990.2,950.0,1938.0,1490.3,3467.4,3463.7,1470.9,1017.6,1758.9,3467.4,1469.0,1292.7,3464.9,3475.9,1626.5,2012.4,2661.3,3494.1,1711.0,3483.2,3480.7,3485.6,714.2,920.3,1914.4,1124.4,1048.7,953.4,16.0,24.0,0.0,12009.0,-10404.0,-878.0,3899.0,515.0,438.0,304.0,8.0,-5.0,3.0,11377.0,-11151.0,2546.0,-2859.0,341.0,-220.0,89.0,1.0
2022-05-23 15:40:52.195384-07:00,1300.7,807.7,1174.4,1073.8,988.5,943.2,1925.2,1486.6,3467.4,3463.7,1470.9,1066.9,1795.5,3473.4,1645.4,1378.5,3475.9,3475.9,1623.7,1994.5,2652.6,3494.1,1711.0,3483.2,3463.7,3477.1,720.0,915.2,1929.2,1124.4,1048.7,953.4,44.0,58.0,68.0,12166.0,-10260.0,-642.0,3840.0,876.0,687.0,50.0,5.0,48.0,3.0,11517.0,-11030.0,2487.0,-2820.0,553.0,-85.0,60.0,1.0
2022-05-23 15:40:52.254770-07:00,1300.7,814.4,1178.8,1092.9,988.5,943.2,1925.2,1486.6,3472.2,3475.9,1513.4,1048.7,1795.5,3473.4,1645.4,1378.5,3475.9,3475.9,1623.7,1994.5,2639.5,3484.4,1710.0,3489.2,3463.7,3477.1,720.0,915.2,1912.4,1205.3,1152.4,951.7,15.0,112.0,-40.0,12359.0,-10131.0,-185.0,3609.0,106.0,1025.0,174.0,-8.0,75.0,43.0,11615.0,-10939.0,2432.0,-2823.0,4.0,-93.0,-80.0,1.0
2022-05-23 15:40:52.285242-07:00,1300.7,814.4,1178.8,1092.9,1008.2,932.2,1913.4,1469.0,3472.2,3475.9,1513.4,1048.7,1788.7,3467.4,1710.0,1453.4,3468.6,3483.2,1613.4,1999.5,2639.5,3484.4,1710.0,3489.2,3479.5,3478.3,706.0,909.3,1912.4,1205.3,1152.4,951.7,-7.0,-108.0,34.0,12336.0,-10193.0,13.0,3515.0,339.0,500.0,244.0,10.0,-59.0,-16.0,11554.0,-11012.0,2400.0,-2814.0,-29.0,-40.0,-39.0,1.0
2022-05-23 15:40:52.374425-07:00,1297.2,812.7,1162.1,1116.5,1008.2,932.2,1913.4,1469.0,3468.6,3460.1,1531.0,1047.0,1788.7,3467.4,1710.0,1453.4,3468.6,3483.2,1613.4,1999.5,2634.1,3483.2,1702.4,3480.7,3479.5,3478.3,706.0,909.3,1912.4,1174.4,1120.9,967.9,33.0,67.0,-51.0,12417.0,-10128.0,282.0,3404.0,-1.0,652.0,-65.0,12.0,13.0,-48.0,11583.0,-10990.0,2367.0,-2810.0,-123.0,-101.0,-49.0,1.0
2022-05-23 15:40:52.404891-07:00,1297.2,812.7,1162.1,1116.5,1027.1,923.7,1872.3,1445.1,3468.6,3460.1,1531.0,1047.0,1782.0,3478.3,1702.4,1463.5,3473.4,3473.4,1613.4,1980.6,2634.1,3483.2,1702.4,3480.7,3478.3,3474.6,705.2,899.1,1912.4,1174.4,1120.9,967.9,-53.0,-44.0,-41.0,12413.0,-10184.0,458.0,3229.0,54.0,312.0,49.0,0.0,-38.0,30.0,11523.0,-11067.0,2335.0,-2779.0,-110.0,-72.0,-25.0,1.0
2022-05-23 15:40:52.435202-07:00,1286.4,812.7,1174.4,1145.4,1027.1,923.7,1872.3,1423.1,3474.6,3468.6,1510.6,1043.5,1782.0,3478.3,1702.4,1445.1,3477.1,3473.4,1613.4,1980.6,2623.2,3497.8,1711.0,3489.2,3475.9,3474.6,705.2,899.1,1907.5,1191.2,1101.7,982.5,2.0,-26.0,4.0,12411.0,-10192.0,546.0,3200.0,64.0,155.0,74.0,6.0,-28.0,-11.0,11517.0,-11078.0,2331.0,-2766.0,-58.0,-14.0,29.0,1.0
2022-05-23 15:40:52.494318-07:00,1294.5,812.7,1174.4,1145.4,1022.8,907.6,1878.1,1423.1,3468.6,3468.6,1510.6,1043.5,1774.3,3469.8,1679.5,1445.1,3477.1,3483.2,1619.0,1994.5,2623.2,3497.8,1711.0,3480.7,3475.9,3475.9,704.4,886.5,1907.5,1191.2,1101.7,959.4,24.0,20.0,-4.0,12441.0,-10164.0,621.0,3157.0,156.0,236.0,-47.0,7.0,9.0,-13.0,11521.0,-11081.0,2322.0,-2744.0,1.0,-69.0,27.0,1.0
2022-05-23 15:40:52.554719-07:00,1294.5,826.0,1151.5,1136.6,1022.8,907.6,1878.1,1418.6,3468.6,3469.8,1498.6,1036.6,1774.3,3469.8,1679.5,1434.1,3474.6,3483.2,1619.0,1994.5,2623.2,3490.5,1697.6,3480.7,3480.7,3475.9,704.4,886.5,1910.5,1181.5,1084.2,959.4,-8.0,22.0,-19.0,12476.0,-10145.0,697.0,3063.0,41.0,222.0,-89.0,-6.0,23.0,7.0,11518.0,-11094.0,2304.0,-2718.0,-64.0,-71.0,-8.0,1.0
2022-05-23 15:40:52.585217-07:00,1284.6,826.0,1151.5,1136.6,1005.6,885.6,1860.6,1418.6,3474.6,3469.8,1498.6,1036.6,1767.5,3467.4,1660.6,1434.1,3474.6,3475.9,1608.7,1988.5,2623.2,3490.5,1697.6,3484.4,3480.7,3469.8,697.0,870.5,1910.5,1181.5,1084.2,971.3,-3.0,-2.0,14.0,12473.0,-10168.0,750.0,2987.0,-38.0,250.0,-7.0,-2.0,-24.0,-3.0,11486.0,-11137.0,2285.0,-2693.0,-119.0,-85.0,-26.0,1.0
2022-05-23 15:40:52.644959-07:00,1284.6,813.5,1148.0,1152.4,1005.6,885.6,1860.6,1426.8,3474.6,3464.9,1484.7,1032.3,1767.5,3467.4,1660.6,1428.6,3478.3,3475.9,1608.7,1988.5,2614.5,3486.8,1691.9,3484.4,3474.6,3469.8,697.0,870.5,2004.5,1200.0,1075.6,971.3,-56.0,-35.0,-38.0,12471.0,-10191.0,827.0,2895.0,-18.0,273.0,-155.0,-22.0,-5.0,-13.0,11452.0,-11181.0,2264.0,-2672.0,-141.0,-58.0,-22.0,1.0
2022-05-23 15:40:52.675274-07:00,1283.7,826.0,1148.0,1152.4,1023.7,885.6,1841.1,1426.8,3468.6,3468.6,1484.7,1032.3,1789.7,3466.1,1646.4,1428.6,3478.3,3477.1,1614.3,1982.6,2614.5,3486.8,1693.8,3489.2,3474.6,3483.2,709.3,867.9,2004.5,1200.0,1078.2,1017.6,16.0,53.0,-55.0,12494.0,-10179.0,940.0,2801.0,98.0,321.0,61.0,0.0,5.0,-52.0,11467.0,-11174.0,2242.0,-2657.0,49.0,-89.0,-20.0,1.0
2022-05-23 15:40:52.735217-07:00,1283.7,826.0,1153.3,1160.3,1023.7,885.6,1858.6,1430.5,3468.6,3468.6,1493.0,1077.3,1789.7,3466.1,1644.5,1441.5,3472.2,3466.1,1614.3,1982.6,2625.4,3496.6,1693.8,3489.2,3474.6,3467.4,709.3,867.9,2226.0,1297.2,1078.2,1017.6,16.0,-13.0,19.0,12470.0,-10231.0,1024.0,2689.0,-62.0,348.0,-170.0,1.0,-29.0,-9.0,11418.0,-11243.0,2195.0,-2612.0,-202.0,-171.0,-53.0,1.0
2022-05-23 15:40:52.794919-07:00,1306.1,831.9,1153.3,1160.3,1037.5,874.7,1858.6,1430.5,3471.0,3466.1,1493.0,1077.3,1829.4,3473.4,1644.5,1441.5,3472.2,3466.1,1621.8,1988.5,2625.4,3496.6,1683.3,3484.4,3474.6,3467.4,718.4,852.8,2226.0,1297.2,1076.4,1047.8,16.0,103.0,6.0,12425.0,-10323.0,1107.0,2506.0,-446.0,585.0,-219.0,-9.0,32.0,-25.0,11323.0,-11361.0,2151.0,-2558.0,-616.0,-201.0,-54.0,1.0
2022-05-23 15:40:52.825231-07:00,1306.1,831.9,1152.4,1166.5,1037.5,874.7,1865.4,1409.4,3471.0,3466.1,1485.6,1107.8,1829.4,3473.4,1640.7,1451.6,3477.1,3474.6,1621.8,1988.5,2619.9,3486.8,1683.3,3484.4,3472.2,3472.2,718.4,852.8,2293.1,1288.2,1076.4,1047.8,-34.0,-120.0,-7.0,12197.0,-10639.0,1152.0,2270.0,-776.0,485.0,-262.0,0.0,-68.0,27.0,11044.0,-11656.0,2148.0,-2448.0,-856.0,-176.0,16.0,1.0
2022-05-23 15:40:52.914994-07:00,1302.5,836.1,1152.4,1166.5,1040.1,869.6,1865.4,1409.4,3462.5,3460.1,1485.6,1107.8,1839.1,3468.6,1640.7,1451.6,3477.1,3474.6,1614.3,1978.6,2619.9,3486.8,1677.6,3488.0,3472.2,3472.2,709.3,836.9,2293.1,1288.2,1066.0,1024.5,-1.0,14.0,-33.0,11987.0,-10885.0,1250.0,2170.0,-722.0,412.0,86.0,8.0,-40.0,-12.0,10864.0,-11843.0,2160.0,-2340.0,-627.0,-179.0,117.0,1.0
2022-05-23 15:40:52.975023-07:00,1302.5,836.1,1145.4,1144.5,1040.1,869.6,1830.4,1390.3,3462.5,3460.1,1468.1,1115.6,1839.1,3468.6,1619.0,1443.3,3478.3,3472.2,1614.3,1978.6,2622.1,3497.8,1677.6,3488.0,3467.4,3473.4,709.3,836.9,2320.1,1256.0,1066.0,1024.5,2.0,-31.0,-14.0,11722.0,-11167.0,1323.0,2144.0,-862.0,202.0,144.0,17.0,-14.0,6.0,10662.0,-12044.0,2199.0,-2209.0,-642.0,-139.0,148.0,1.0
2022-05-23 15:40:52.976688-07:00,1299.0,839.4,1146.3,1144.5,1034.9,861.2,1830.4,1390.3,3471.0,3472.2,1453.4,1115.6,1845.9,3469.8,1619.0,1443.3,3478.3,3472.2,1602.1,1974.6,2622.1,3475.9,1670.1,3486.8,3467.4,3473.4,707.7,834.4,2320.1,1247.1,1066.9,1033.2,2.0,-24.0,15.0,11474.0,-11401.0,1393.0,2205.0,-658.0,114.0,261.0,15.0,-45.0,-5.0,10508.0,-12188.0,2248.0,-2101.0,-432.0,-93.0,172.0,1.0
2022-05-23 15:40:53.065905-07:00,1299.0,839.4,1146.3,1147.1,1034.9,858.7,1821.6,1378.5,3471.0,3472.2,1453.4,1106.9,1845.9,3466.1,1614.3,1440.5,3478.3,3488.0,1619.9,1974.6,2621.0,3475.9,1670.1,3486.8,3473.4,3472.2,710.1,834.4,2283.8,1247.1,1066.9,1033.2,-19.0,-59.0,41.0,11342.0,-11514.0,1468.0,2248.0,-230.0,90.0,255.0,15.0,-44.0,54.0,10438.0,-12252.0,2303.0,-2017.0,-142.0,-19.0,200.0,1.0
2022-05-23 15:40:53.094885-07:00,1296.3,821.0,1149.8,1147.1,1034.0,858.7,1821.6,1378.5,3466.1,3457.6,1447.0,1106.9,1836.2,3466.1,1614.3,1440.5,3478.3,3488.0,1619.9,1980.6,2621.0,3472.2,1657.7,3486.8,3473.4,3472.2,710.1,822.7,2283.8,1260.4,1056.5,1032.3,7.0,42.0,16.0,11287.0,-11542.0,1539.0,2335.0,-147.0,-55.0,250.0,7.0,16.0,20.0,10434.0,-12248.0,2386.0,-1967.0,-40.0,59.0,209.0,1.0
2022-05-23 15:40:53.124735-07:00,1296.3,821.0,1149.8,1139.2,1034.0,852.8,1807.1,1379.4,3466.1,3457.6,1447.0,1101.7,1836.2,3467.4,1600.2,1437.8,3478.3,3474.6,1607.7,1980.6,2615.6,3472.2,1657.7,3486.8,3480.7,3473.4,712.6,822.7,2264.1,1260.4,1056.5,1032.3,26.0,20.0,25.0,11220.0,-11587.0,1589.0,2402.0,-180.0,63.0,206.0,1.0,12.0,10.0,10405.0,-12262.0,2468.0,-1931.0,-110.0,70.0,163.0,1.0
2022-05-23 15:40:53.214913-07:00,1290.9,825.2,1140.1,1139.2,1026.3,852.8,1807.1,1379.4,3472.2,3471.0,1436.0,1101.7,1835.2,3467.4,1600.2,1437.8,3478.3,3474.6,1607.7,1991.5,2615.6,3464.9,1658.7,3488.0,3480.7,3473.4,712.6,819.4,2264.1,1247.1,1059.9,1021.1,-4.0,33.0,2.0,11166.0,-11622.0,1660.0,2433.0,-119.0,81.0,153.0,-5.0,4.0,13.0,10378.0,-12271.0,2546.0,-1916.0,-100.0,106.0,140.0,1.0
2022-05-23 15:40:53.244673-07:00,1290.9,825.2,1140.1,1145.4,1021.9,857.9,1805.2,1364.8,3472.2,3471.0,1436.0,1097.3,1830.4,3474.6,1596.4,1433.2,3483.2,3472.2,1613.4,1968.7,2608.0,3464.9,1658.7,3488.0,3472.2,3467.4,695.4,813.5,2240.4,1247.1,1059.9,1021.1,11.0,27.0,-8.0,11112.0,-11660.0,1735.0,2451.0,-131.0,149.0,157.0,0.0,-4.0,-11.0,10349.0,-12283.0,2608.0,-1914.0,-121.0,113.0,116.0,1.0
2022-05-23 15:40:53.365035-07:00,1282.8,820.2,1138.4,1147.1,1021.9,857.9,1805.2,1364.8,3467.4,3473.4,1425.9,1104.3,1830.4,3474.6,1596.4,1433.2,3483.2,3472.2,1613.4,1968.7,2608.0,3471.0,1650.2,3480.7,3472.2,3467.4,695.4,813.5,2245.6,1244.4,1058.2,1015.1,-14.0,-35.0,-26.0,11063.0,-11701.0,1795.0,2432.0,-88.0,101.0,66.0,-14.0,-15.0,2.0,10302.0,-12308.0,2679.0,-1909.0,-112.0,103.0,109.0,1.0
2022-05-23 15:40:53.425284-07:00,1282.8,820.2,1138.4,1147.1,1025.4,857.0,1804.2,1354.0,3467.4,3473.4,1425.9,1104.3,1834.3,3460.1,1595.5,1434.1,3479.5,3473.4,1600.2,1969.7,2608.0,3471.0,1650.2,3480.7,3472.2,3467.4,701.9,811.0,2245.6,1244.4,1058.2,1015.1,10.0,34.0,-33.0,11052.0,-11700.0,1849.0,2448.0,5.0,64.0,93.0,-14.0,9.0,-30.0,10292.0,-12302.0,2744.0,-1906.0,-12.0,53.0,97.0,1.0
2022-05-23 15:40:53.485499-07:00,1284.6,825.2,1127.9,1134.0,1025.4,857.0,1804.2,1354.0,3478.3,3469.8,1423.1,1110.4,1834.3,3460.1,1595.5,1434.1,3479.5,3473.4,1600.2,1969.7,2604.8,3461.3,1634.1,3486.8,3472.2,3467.4,701.9,811.0,2233.2,1239.1,1053.9,1012.5,5.0,40.0,-29.0,11037.0,-11712.0,1874.0,2437.0,-43.0,41.0,-5.0,-6.0,15.0,-7.0,10279.0,-12308.0,2780.0,-1887.0,-62.0,13.0,48.0,1.0
2022-05-23 15:40:53.486508-07:00,1284.6,825.2,1127.9,1134.0,1016.8,846.1,1799.4,1354.0,3478.3,3469.8,1423.1,1110.4,1822.6,3478.3,1581.4,1434.1,3475.9,3473.4,1598.3,1961.8,2604.8,3461.3,1634.1,3486.8,3475.9,3473.4,698.7,811.9,2233.2,1239.1,1053.9,1012.5,15.0,-7.0,-31.0,11035.0,-11713.0,1875.0,2441.0,30.0,-17.0,25.0,2.0,-5.0,-30.0,10266.0,-12317.0,2796.0,-1877.0,14.0,3.0,14.0,1.0
2022-05-23 15:40:53.515413-07:00,1287.3,818.5,1138.4,1145.4,1016.8,846.1,1799.4,1351.2,3467.4,3467.4,1425.9,1112.1,1822.6,3478.3,1581.4,1434.1,3477.1,3473.4,1598.3,1961.8,2597.2,3474.6,1638.8,3480.7,3478.3,3473.4,698.7,811.9,2238.4,1232.8,1053.9,1000.5,7.0,24.0,-29.0,11040.0,-11703.0,1891.0,2454.0,-5.0,-18.0,44.0,7.0,0.0,-8.0,10276.0,-12309.0,2794.0,-1876.0,23.0,-17.0,6.0,1.0
2022-05-23 15:40:53.544934-07:00,1273.0,818.5,1138.4,1145.4,1010.8,857.0,1789.7,1351.2,3464.9,3467.4,1425.9,1112.1,1815.8,3471.0,1590.8,1434.1,3477.1,3474.6,1607.7,1953.9,2597.2,3474.6,1638.8,3490.5,3478.3,3472.2,697.0,811.9,2238.4,1232.8,1053.9,1009.9,14.0,-14.0,-4.0,11027.0,-11714.0,1876.0,2472.0,-48.0,-65.0,23.0,4.0,-8.0,-7.0,10272.0,-12314.0,2789.0,-1867.0,-25.0,-37.0,12.0,1.0
2022-05-23 15:40:53.575087-07:00,1273.0,821.0,1134.9,1138.4,1010.8,857.0,1789.7,1353.1,3464.9,3464.9,1423.1,1113.9,1815.8,3471.0,1590.8,1435.0,3474.6,3474.6,1607.7,1953.9,2596.1,3452.8,1634.1,3490.5,3471.0,3472.2,697.0,811.9,2220.9,1239.9,1055.6,1009.9,6.0,0.0,16.0,11027.0,-11707.0,1882.0,2499.0,62.0,10.0,66.0,7.0,-15.0,8.0,10284.0,-12309.0,2782.0,-1852.0,78.0,-36.0,17.0,1.0
2022-05-23 15:40:53.634581-07:00,1281.0,821.0,1134.9,1138.4,1013.3,842.8,1784.9,1353.1,3464.9,3464.9,1423.1,1113.9,1819.7,3467.4,1582.4,1435.0,3474.6,3473.4,1604.9,1961.8,2596.1,3452.8,1634.1,3492.9,3471.0,3463.7,699.5,815.2,2220.9,1239.9,1055.6,1004.8,14.0,30.0,8.0,11033.0,-11698.0,1895.0,2508.0,-67.0,-20.0,-12.0,6.0,3.0,2.0,10303.0,-12294.0,2778.0,-1849.0,-34.0,6.0,-12.0,1.0
2022-05-23 15:40:53.766807-07:00,1281.0,817.7,1134.0,1136.6,1013.3,842.8,1784.9,1354.0,3464.9,3462.5,1419.5,1111.2,1819.7,3467.4,1582.4,1425.0,3467.4,3473.4,1604.9,1961.8,2601.5,3468.6,1631.3,3492.9,3480.7,3463.7,699.5,815.2,2256.9,1234.6,1052.2,1004.8,7.0,-20.0,5.0,11010.0,-11721.0,1889.0,2502.0,-23.0,66.0,1.0,3.0,-33.0,3.0,10288.0,-12308.0,2773.0,-1849.0,-11.0,-20.0,-12.0,1.0
2022-05-23 15:40:53.768167-07:00,1273.9,817.7,1134.0,1136.6,999.6,845.3,1763.7,1354.0,3478.3,3462.5,1419.5,1111.2,1815.8,3478.3,1581.4,1425.0,3467.4,3481.9,1607.7,1958.8,2601.5,3468.6,1631.3,3486.8,3480.7,3478.3,699.5,811.9,2256.9,1234.6,1052.2,1002.2,-14.0,3.0,-18.0,11022.0,-11712.0,1902.0,2485.0,62.0,-25.0,-9.0,-11.0,-13.0,8.0,10301.0,-12298.0,2769.0,-1850.0,56.0,-2.0,3.0,1.0
2022-05-23 15:40:53.784780-07:00,1273.9,821.9,1157.7,1112.1,999.6,845.3,1787.8,1330.5,3478.3,3478.3,1420.4,1121.7,1815.8,3478.3,1586.1,1436.9,3473.4,3477.1,1607.7,1958.8,2588.5,3468.6,1628.4,3486.8,3474.6,3475.9,699.5,811.9,2212.7,1222.2,1049.6,1002.2,10.0,17.0,-4.0,11029.0,-11702.0,1906.0,2493.0,6.0,16.0,27.0,3.0,-1.0,-3.0,10317.0,-12286.0,2766.0,-1846.0,38.0,-25.0,11.0,1.0
2022-05-23 15:40:53.844501-07:00,1284.6,810.2,1157.7,1112.1,1004.8,846.1,1787.8,1330.5,3464.9,3477.1,1420.4,1121.7,1819.7,3474.6,1586.1,1436.9,3473.4,3477.1,1604.9,1956.8,2588.5,3468.6,1629.4,3488.0,3474.6,3475.9,695.4,810.2,2212.7,1222.2,1048.7,1001.3,-2.0,8.0,-4.0,11027.0,-11705.0,1908.0,2491.0,16.0,-20.0,-26.0,0.0,-7.0,10.0,10322.0,-12285.0,2758.0,-1838.0,14.0,-30.0,6.0,1.0
2022-05-23 15:40:53.904922-07:00,1284.6,810.2,1142.7,1116.5,1004.8,846.1,1785.8,1348.5,3464.9,3477.1,1411.3,1130.5,1819.7,3474.6,1580.5,1438.7,3478.3,3473.4,1604.9,1956.8,2593.9,3464.9,1629.4,3488.0,3472.2,3468.6,695.4,810.2,2225.0,1241.7,1048.7,1001.3,10.0,19.0,2.0,11039.0,-11696.0,1893.0,2488.0,12.0,-5.0,-27.0,0.0,2.0,0.0,10339.0,-12274.0,2747.0,-1831.0,46.0,-30.0,-8.0,1.0
2022-05-23 15:40:53.934818-07:00,1270.3,825.2,1142.7,1116.5,1002.2,848.6,1785.8,1348.5,3472.2,3466.1,1411.3,1130.5,1818.7,3473.4,1580.5,1438.7,3478.3,3473.4,1609.6,1962.8,2593.9,3464.9,1628.4,3478.3,3472.2,3468.6,697.9,811.9,2225.0,1241.7,1055.6,1000.5,-2.0,-11.0,9.0,11040.0,-11698.0,1890.0,2476.0,-5.0,20.0,1.0,0.0,-10.0,9.0,10340.0,-12274.0,2740.0,-1829.0,-21.0,4.0,-6.0,1.0
2022-05-23 15:40:53.994593-07:00,1270.3,825.2,1148.9,1108.6,1002.2,848.6,1780.1,1349.4,3472.2,3466.1,1405.8,1131.4,1818.7,3473.4,1581.4,1436.0,3472.2,3475.9,1609.6,1962.8,2596.1,3437.0,1628.4,3478.3,3478.3,3479.5,697.9,811.9,2220.9,1237.3,1055.6,1000.5,4.0,-1.0,-3.0,11033.0,-11703.0,1901.0,2478.0,-33.0,18.0,29.0,1.0,-11.0,-1.0,10336.0,-12276.0,2749.0,-1835.0,-31.0,20.0,13.0,1.0
2022-05-23 15:40:54.024784-07:00,1289.1,812.7,1157.7,1108.6,993.6,852.8,1780.1,1349.4,3468.6,3462.5,1406.7,1131.4,1812.9,3462.5,1581.4,1436.0,3472.2,3475.9,1605.8,1965.7,2596.1,3458.9,1627.5,3486.8,3478.3,3479.5,706.0,804.4,2220.9,1230.2,1053.0,1000.5,3.0,10.0,-8.0,11023.0,-11710.0,1910.0,2479.0,13.0,13.0,-6.0,0.0,-1.0,-1.0,10324.0,-12284.0,2759.0,-1828.0,-29.0,6.0,22.0,1.0
2022-05-23 15:40:54.085232-07:00,1289.1,812.7,1157.7,1117.4,993.6,844.4,1757.0,1344.9,3468.6,3462.5,1406.7,1132.2,1812.9,3464.9,1573.9,1431.4,3472.2,3475.9,1612.4,1965.7,2586.4,3458.9,1627.5,3486.8,3478.3,3467.4,701.9,804.4,2213.7,1230.2,1053.0,1000.5,5.0,24.0,-8.0,11031.0,-11703.0,1919.0,2471.0,-8.0,21.0,-11.0,-1.0,-3.0,1.0,10322.0,-12285.0,2764.0,-1823.0,-8.0,7.0,11.0,1.0
2022-05-23 15:40:54.175657-07:00,1277.4,814.4,1149.8,1117.4,991.9,844.4,1757.0,1344.9,3469.8,3468.6,1410.3,1132.2,1813.9,3464.9,1573.9,1431.4,3472.2,3475.9,1612.4,1951.9,2586.4,3462.5,1617.1,3488.0,3478.3,3467.4,701.9,804.4,2213.7,1231.9,1049.6,991.0,-7.0,-34.0,-10.0,11022.0,-11713.0,1910.0,2475.0,-21.0,-75.0,50.0,-1.0,-24.0,0.0,10313.0,-12292.0,2772.0,-1820.0,3.0,9.0,29.0,1.0
2022-05-23 15:40:54.177186-07:00,1277.4,814.4,1149.8,1112.1,991.9,836.1,1772.3,1342.2,3469.8,3468.6,1410.3,1125.2,1813.9,3466.1,1571.1,1430.5,3475.9,3469.8,1600.2,1951.9,2587.4,3462.5,1617.1,3488.0,3478.3,3469.8,695.4,804.4,2208.6,1231.9,1049.6,991.0,24.0,8.0,-1.0,11024.0,-11701.0,1915.0,2515.0,14.0,3.0,72.0,2.0,2.0,-15.0,10328.0,-12278.0,2782.0,-1813.0,20.0,-9.0,37.0,1.0
2022-05-23 15:40:54.235263-07:00,1273.9,811.9,1135.7,1112.1,986.7,836.1,1772.3,1342.2,3468.6,3466.1,1405.8,1125.2,1809.0,3466.1,1571.1,1430.5,3475.9,3469.8,1600.2,1955.8,2587.4,3445.5,1618.1,3488.0,3478.3,3469.8,695.4,801.9,2208.6,1231.9,1040.9,1003.0,-3.0,19.0,-9.0,11015.0,-11705.0,1930.0,2525.0,-50.0,-35.0,7.0,6.0,0.0,21.0,10321.0,-12283.0,2790.0,-1804.0,-39.0,1.0,18.0,1.0
2022-05-23 15:40:54.324808-07:00,1273.9,811.9,1135.7,1113.9,993.6,841.1,1767.5,1350.3,3468.6,3466.1,1405.8,1123.5,1802.3,3472.2,1573.9,1436.9,3471.0,3467.4,1604.9,1943.0,2592.9,3445.5,1618.1,3488.0,3477.1,3478.3,699.5,803.5,2211.6,1231.9,1040.9,1003.0,24.0,17.0,2.0,11014.0,-11703.0,1912.0,2551.0,66.0,-75.0,-13.0,7.0,-1.0,-4.0,10330.0,-12275.0,2788.0,-1807.0,66.0,6.0,-15.0,1.0
2022-05-23 15:40:54.326572-07:00,1272.1,813.5,1142.7,1106.9,993.6,841.1,1767.5,1350.3,3478.3,3475.9,1406.7,1116.5,1802.3,3472.2,1573.9,1436.9,3471.0,3467.4,1604.9,1943.0,2579.9,3463.7,1619.9,3489.2,3477.1,3478.3,699.5,803.5,2204.5,1230.2,1056.5,994.5,-7.0,17.0,-27.0,11042.0,-11681.0,1872.0,2561.0,72.0,-192.0,-100.0,7.0,-6.0,18.0,10354.0,-12256.0,2773.0,-1828.0,93.0,23.0,-48.0,1.0
2022-05-23 15:40:54.384909-07:00,1272.1,813.5,1142.7,1106.9,991.9,836.9,1751.2,1354.0,3478.3,3475.9,1406.7,1116.5,1800.3,3468.6,1577.7,1427.7,3472.2,3472.2,1595.5,1952.9,2579.9,3463.7,1619.9,3489.2,3472.2,3473.4,700.3,798.5,2204.5,1230.2,1056.5,994.5,7.0,-41.0,2.0,11112.0,-11614.0,1803.0,2612.0,471.0,-239.0,12.0,-2.0,-30.0,-8.0,10444.0,-12180.0,2741.0,-1868.0,462.0,16.0,-72.0,1.0
2022-05-23 15:40:54.444813-07:00,1278.3,811.9,1140.1,1112.1,991.9,836.9,1751.2,1354.0,3471.0,3466.1,1400.3,1114.7,1800.3,3468.6,1577.7,1427.7,3472.2,3472.2,1595.5,1952.9,2581.0,3462.5,1611.5,3492.9,3472.2,3473.4,700.3,798.5,2195.2,1212.4,1051.3,993.6,18.0,83.0,-10.0,11289.0,-11437.0,1780.0,2649.0,601.0,-135.0,-67.0,-7.0,27.0,-10.0,10601.0,-12045.0,2692.0,-1930.0,450.0,11.0,-103.0,1.0
2022-05-23 15:40:54.504757-07:00,1278.3,811.9,1140.1,1112.1,1004.8,833.6,1750.2,1340.4,3471.0,3466.1,1400.3,1114.7,1796.5,3471.0,1573.9,1428.6,3475.9,3478.3,1600.2,1943.0,2581.0,3462.5,1611.5,3492.9,3478.3,3477.1,706.0,805.2,2195.2,1212.4,1051.3,993.6,11.0,21.0,-2.0,11451.0,-11290.0,1731.0,2618.0,324.0,-128.0,-188.0,-1.0,17.0,4.0,10682.0,-11975.0,2637.0,-1993.0,208.0,14.0,-155.0,1.0
2022-05-23 15:40:54.535417-07:00,1274.7,811.9,1148.9,1107.8,1004.8,833.6,1750.2,1340.4,3467.4,3475.9,1394.8,1114.7,1796.5,3471.0,1573.9,1428.6,3475.9,3478.3,1600.2,1943.0,2598.3,3458.9,1614.3,3479.5,3478.3,3477.1,706.0,805.2,2194.2,1231.0,1051.3,992.7,-20.0,34.0,-9.0,11534.0,-11224.0,1655.0,2587.0,90.0,-141.0,-248.0,0.0,-14.0,23.0,10702.0,-11958.0,2588.0,-2053.0,26.0,37.0,-153.0,1.0
2022-05-23 15:40:54.594686-07:00,1273.0,811.9,1148.9,1107.8,991.0,841.9,1757.9,1332.3,3468.6,3475.9,1394.8,1114.7,1811.0,3462.5,1570.2,1428.6,3471.0,3471.0,1592.7,1952.9,2598.3,3458.9,1614.3,3486.8,3472.2,3478.3,699.5,799.4,2194.2,1231.0,1051.3,991.9,17.0,11.0,-4.0,11572.0,-11212.0,1504.0,2557.0,-21.0,-275.0,-352.0,-9.0,22.0,3.0,10679.0,-11975.0,2555.0,-2113.0,-44.0,59.0,-177.0,1.0
2022-05-23 15:40:54.625153-07:00,1273.0,813.5,1142.7,1107.8,991.0,841.9,1757.9,1342.2,3468.6,3464.9,1398.5,1115.6,1811.0,3462.5,1570.2,1422.2,3473.4,3471.0,1592.7,1952.9,2583.1,3447.9,1616.2,3486.8,3469.8,3478.3,699.5,799.4,2208.6,1219.5,1054.8,991.9,4.0,-13.0,21.0,11585.0,-11222.0,1361.0,2538.0,-5.0,-79.0,-138.0,-14.0,-6.0,-5.0,10664.0,-11986.0,2504.0,-2183.0,41.0,54.0,-204.0,1.0
2022-05-23 15:40:54.685029-07:00,1273.0,813.5,1142.7,1107.8,985.9,836.1,1758.9,1342.2,3478.3,3464.9,1398.5,1115.6,1803.2,3478.3,1565.5,1422.2,3473.4,3468.6,1595.5,1967.7,2583.1,3447.9,1616.2,3492.9,3469.8,3478.3,702.8,792.7,2208.6,1219.5,1054.8,984.2,-6.0,-54.0,3.0,11616.0,-11202.0,1312.0,2507.0,197.0,-36.0,-99.0,-2.0,-25.0,13.0,10681.0,-11965.0,2463.0,-2263.0,174.0,87.0,-151.0,1.0
2022-05-23 15:40:54.774482-07:00,1273.0,801.9,1165.6,1111.2,985.9,836.1,1758.9,1330.5,3478.3,3474.6,1396.7,1110.4,1803.2,3478.3,1565.5,1435.0,3474.6,3468.6,1595.5,1967.7,2583.1,3461.3,1605.8,3492.9,3478.3,3478.3,702.8,792.7,2204.5,1235.5,1051.3,984.2,12.0,23.0,-17.0,11684.0,-11132.0,1315.0,2505.0,180.0,-47.0,8.0,20.0,-9.0,1.0,10732.0,-11910.0,2438.0,-2341.0,156.0,85.0,-119.0,1.0
2022-05-23 15:40:54.776001-07:00,1264.9,801.9,1165.6,1111.2,986.7,829.4,1749.3,1330.5,3468.6,3474.6,1396.7,1110.4,1800.3,3462.5,1567.4,1435.0,3474.6,3477.1,1601.1,1947.9,2583.1,3461.3,1605.8,3491.7,3478.3,3479.5,705.2,798.5,2204.5,1235.5,1051.3,979.9,14.0,-20.0,0.0,11730.0,-11084.0,1292.0,2511.0,170.0,-63.0,-12.0,4.0,-7.0,-3.0,10765.0,-11872.0,2408.0,-2409.0,192.0,77.0,-134.0,1.0
2022-05-23 15:40:54.834857-07:00,1264.9,806.0,1186.7,1103.4,986.7,829.4,1756.0,1341.3,3468.6,3468.6,1393.9,1103.4,1800.3,3462.5,1572.1,1441.5,3475.9,3467.4,1601.1,1947.9,2579.9,3457.6,1616.2,3491.7,3484.4,3477.1,705.2,798.5,2191.2,1231.0,1060.8,979.9,-26.0,15.0,-24.0,11803.0,-11006.0,1285.0,2520.0,350.0,-163.0,3.0,-9.0,-10.0,21.0,10837.0,-11793.0,2372.0,-2507.0,337.0,142.0,-163.0,1.0
2022-05-23 15:40:54.894567-07:00,1273.9,811.9,1186.7,1103.4,989.3,843.6,1756.0,1341.3,3483.2,3471.0,1393.9,1103.4,1805.2,3473.4,1572.1,1441.5,3475.9,3467.4,1595.5,1939.0,2579.9,3457.6,1616.2,3486.8,3484.4,3477.1,706.9,799.4,2191.2,1231.0,1055.6,991.9,19.0,33.0,-26.0,11911.0,-10882.0,1252.0,2562.0,234.0,-139.0,-47.0,-1.0,7.0,-15.0,10908.0,-11713.0,2338.0,-2606.0,200.0,85.0,-161.0,1.0
2022-05-23 15:40:54.925231-07:00,1273.9,811.9,1185.0,1103.4,989.3,843.6,1755.0,1360.3,3483.2,3471.0,1398.5,1103.4,1805.2,3473.4,1569.3,1435.0,3473.4,3462.5,1595.5,1939.0,2576.6,3456.4,1616.2,3486.8,3461.3,3477.1,706.9,799.4,2189.1,1228.4,1055.6,991.9,2.0,-52.0,0.0,11972.0,-10815.0,1212.0,2583.0,209.0,-118.0,-22.0,10.0,-51.0,-10.0,10957.0,-11660.0,2301.0,-2672.0,225.0,39.0,-96.0,1.0
2022-05-23 15:40:55.045336-07:00,1274.7,797.7,1185.0,1103.4,998.7,835.2,1755.0,1360.3,3469.8,3460.1,1398.5,1103.4,1809.0,3471.0,1569.3,1435.0,3473.4,3462.5,1598.3,1955.8,2576.6,3456.4,1611.5,3480.7,3461.3,3477.1,706.0,791.0,2189.1,1228.4,1050.4,982.5,16.0,-62.0,0.0,12009.0,-10772.0,1181.0,2601.0,-4.0,-83.0,-7.0,32.0,-77.0,1.0,10973.0,-11640.0,2292.0,-2699.0,68.0,57.0,-13.0,1.0
2022-05-23 15:40:55.047754-07:00,1274.7,797.7,1189.4,1109.5,998.7,835.2,1743.5,1332.3,3469.8,3460.1,1394.8,1094.7,1809.0,3471.0,1555.3,1414.0,3467.4,3473.4,1598.3,1955.8,2599.3,3461.3,1611.5,3480.7,3475.9,3472.2,706.0,791.0,2189.1,1223.9,1050.4,982.5,5.0,21.0,-13.0,12028.0,-10749.0,1142.0,2630.0,4.0,-202.0,-50.0,8.0,2.0,12.0,10992.0,-11613.0,2311.0,-2723.0,32.0,81.0,30.0,1.0
2022-05-23 15:40:55.104904-07:00,1274.7,811.9,1189.4,1109.5,982.5,841.9,1743.5,1332.3,3471.0,3467.4,1394.8,1094.7,1798.4,3467.4,1555.3,1414.0,3467.4,3473.4,1609.6,1944.0,2599.3,3461.3,1611.5,3479.5,3475.9,3472.2,701.9,799.4,2189.1,1223.9,1060.8,981.6,1.0,65.0,-25.0,12007.0,-10772.0,1017.0,2683.0,-370.0,-429.0,-252.0,20.0,-21.0,26.0,10963.0,-11629.0,2349.0,-2737.0,-298.0,104.0,10.0,1.0
2022-05-23 15:40:55.136466-07:00,1274.7,811.9,1212.4,1120.0,982.5,866.3,1746.4,1376.6,3471.0,3467.4,1397.6,1094.7,1798.4,3467.4,1571.1,1403.0,3469.8,3478.3,1600.2,1944.0,2592.9,3452.8,1611.5,3479.5,3483.2,3464.9,731.5,799.4,2171.8,1219.5,1060.8,981.6,51.0,-139.0,60.0,11937.0,-10867.0,659.0,2723.0,-319.0,-699.0,-472.0,-8.0,42.0,-25.0,10865.0,-11703.0,2407.0,-2761.0,-94.0,142.0,-4.0,1.0
2022-05-23 15:40:55.224980-07:00,1264.9,809.4,1231.9,1120.0,991.0,866.3,1746.4,1376.6,3472.2,3462.5,1392.1,1094.7,1798.4,3467.4,1571.1,1403.0,3469.8,3478.3,1600.2,1943.0,2592.9,3450.4,1616.2,3480.7,3483.2,3464.9,731.5,808.5,2171.8,1215.1,1059.1,997.9,-8.0,18.0,24.0,11913.0,-10877.0,492.0,2823.0,-292.0,-258.0,28.0,20.0,-52.0,18.0,10866.0,-11684.0,2460.0,-2792.0,-173.0,159.0,86.0,1.0
2022-05-23 15:40:55.226313-07:00,1264.9,809.4,1231.9,1099.0,991.0,906.7,1768.5,1411.3,3472.2,3462.5,1392.1,1081.6,1798.4,3469.8,1558.1,1382.1,3478.3,3467.4,1596.4,1943.0,2596.1,3450.4,1616.2,3480.7,3479.5,3469.8,762.9,808.5,2177.9,1215.1,1059.1,997.9,21.0,36.0,20.0,11837.0,-10940.0,328.0,2923.0,-396.0,-640.0,-269.0,30.0,-42.0,22.0,10814.0,-11702.0,2585.0,-2807.0,-271.0,313.0,197.0,1.0
2022-05-23 15:40:55.284873-07:00,1273.0,816.9,1205.3,1099.0,987.6,906.7,1768.5,1411.3,3478.3,3469.8,1406.7,1081.6,1801.3,3469.8,1558.1,1382.1,3478.3,3467.4,1596.4,1950.9,2596.1,3451.6,1630.3,3494.1,3479.5,3469.8,762.9,823.5,2177.9,1202.7,1089.5,979.0,-46.0,-23.0,1.0,11785.0,-10977.0,99.0,3007.0,-26.0,-373.0,170.0,-18.0,27.0,28.0,10761.0,-11706.0,2746.0,-2843.0,-16.0,360.0,197.0,1.0
2022-05-23 15:40:55.344527-07:00,1273.0,816.9,1205.3,1088.6,987.6,928.8,1760.8,1409.4,3478.3,3469.8,1406.7,1081.6,1801.3,3473.4,1560.9,1371.2,3464.9,3464.9,1625.6,1950.9,2608.0,3451.6,1630.3,3494.1,3478.3,3469.8,785.2,823.5,2150.4,1202.7,1089.5,979.0,-33.0,-21.0,-1.0,11660.0,-11056.0,42.0,3201.0,-606.0,-350.0,316.0,-17.0,-48.0,11.0,10665.0,-11740.0,2938.0,-2866.0,-369.0,343.0,256.0,1.0
2022-05-23 15:40:55.404904-07:00,1274.7,816.9,1182.3,1083.4,981.6,928.8,1760.8,1409.4,3471.0,3468.6,1401.2,1047.0,1816.8,3473.4,1560.9,1371.2,3464.9,3464.9,1625.6,1956.8,2626.5,3458.9,1660.6,3484.4,3478.3,3469.8,785.2,828.5,2132.1,1174.4,1052.2,967.9,-8.0,82.0,-41.0,11509.0,-11169.0,-23.0,3352.0,-367.0,-266.0,52.0,-19.0,35.0,-14.0,10567.0,-11779.0,3126.0,-2876.0,-296.0,295.0,207.0,1.0
2022-05-23 15:40:55.434904-07:00,1274.7,816.9,1182.3,1083.4,977.3,952.6,1752.1,1405.8,3471.0,3468.6,1401.2,1047.0,1803.2,3464.9,1512.5,1347.6,3462.5,3477.1,1655.8,1959.8,2626.5,3458.9,1660.6,3484.4,3475.9,3488.0,791.0,825.2,2132.1,1174.4,1052.2,967.9,-6.0,75.0,-26.0,11406.0,-11255.0,-108.0,3411.0,-291.0,32.0,36.0,-33.0,65.0,-76.0,10457.0,-11837.0,3263.0,-2887.0,-330.0,196.0,82.0,1.0
2022-05-23 15:40:55.494594-07:00,1272.1,813.5,1194.7,1071.2,977.3,952.6,1752.1,1405.8,3473.4,3472.2,1358.5,1020.2,1803.2,3464.9,1512.5,1347.6,3462.5,3477.1,1655.8,1959.8,2622.1,3457.6,1681.4,3490.5,3475.9,3488.0,791.0,825.2,2085.6,1149.8,1038.3,967.9,5.0,162.0,-147.0,11239.0,-11439.0,-118.0,3356.0,-1089.0,214.0,-154.0,-23.0,104.0,-77.0,10227.0,-12028.0,3323.0,-2852.0,-1065.0,-50.0,-134.0,1.0
2022-05-23 15:40:55.525563-07:00,1272.1,813.5,1194.7,1071.2,973.1,963.7,1742.6,1376.6,3473.4,3472.2,1358.5,1020.2,1790.7,3457.6,1447.9,1316.9,3468.6,3467.4,1656.8,1945.0,2622.1,3457.6,1681.4,3490.5,3478.3,3472.2,777.8,834.4,2085.6,1149.8,1038.3,967.9,13.0,-1.0,-67.0,10856.0,-11826.0,-327.0,3258.0,-1182.0,-249.0,-575.0,14.0,-32.0,-41.0,9774.0,-12424.0,3309.0,-2755.0,-1317.0,-137.0,-292.0,1.0
2022-05-23 15:40:55.587121-07:00,1270.3,800.2,1165.6,1062.5,973.1,963.7,1742.6,1376.6,3473.4,3468.6,1308.8,984.2,1790.7,3457.6,1447.9,1316.9,3468.6,3467.4,1656.8,1945.0,2624.3,3486.8,1711.0,3491.7,3478.3,3472.2,777.8,834.4,2078.5,1135.7,1027.1,962.0,-4.0,-54.0,-27.0,10643.0,-12032.0,-610.0,3165.0,-418.0,-140.0,-179.0,5.0,-29.0,20.0,9492.0,-12672.0,3217.0,-2725.0,-523.0,-135.0,-339.0,1.0
2022-05-23 15:40:55.615267-07:00,1306.1,800.2,1165.6,1062.5,981.6,986.7,1770.4,1373.0,3467.4,3468.6,1308.8,984.2,1791.6,3463.7,1397.6,1316.9,3480.7,3473.4,1649.2,1959.8,2624.3,3486.8,1711.0,3492.9,3478.3,3471.0,777.8,856.2,2078.5,1135.7,1027.1,954.3,7.0,-84.0,42.0,10552.0,-12099.0,-749.0,3183.0,-118.0,-166.0,-224.0,16.0,-51.0,6.0,9333.0,-12806.0,3143.0,-2728.0,-446.0,-70.0,-205.0,1.0
2022-05-23 15:40:55.674463-07:00,1306.1,806.9,1124.4,1034.0,981.6,986.7,1770.4,1478.3,3467.4,3466.1,1248.0,950.0,1791.6,3463.7,1397.6,1281.9,3481.9,3473.4,1649.2,1959.8,2614.5,3486.8,1808.1,3492.9,3480.7,3471.0,777.8,856.2,2066.5,1109.5,1007.3,954.3,-25.0,-58.0,7.0,10488.0,-12149.0,-844.0,3185.0,-346.0,-69.0,87.0,0.0,-45.0,6.0,9145.0,-12957.0,3113.0,-2688.0,-603.0,-110.0,-96.0,1.0
2022-05-23 15:40:55.734858-07:00,1319.6,806.9,1124.4,1034.0,974.8,974.8,1847.9,1478.3,3474.6,3466.1,1248.0,950.0,1776.2,3467.4,1353.1,1281.9,3481.9,3474.6,1636.9,1952.9,2614.5,3486.8,1808.1,3497.8,3480.7,3474.6,776.1,851.1,2066.5,1109.5,1007.3,962.0,-28.0,-37.0,-37.0,10372.0,-12225.0,-860.0,3266.0,-167.0,-303.0,187.0,-7.0,-14.0,-10.0,9025.0,-13062.0,3086.0,-2615.0,-210.0,-186.0,-2.0,1.0
2022-05-23 15:40:55.795488-07:00,1319.6,825.2,1090.3,1009.0,974.8,974.8,1847.9,1570.2,3474.6,3473.4,1228.4,940.7,1776.2,3467.4,1353.1,1260.4,3466.1,3474.6,1636.9,1952.9,2610.2,3485.6,1830.4,3497.8,3478.3,3474.6,776.1,851.1,2032.4,1087.7,994.5,962.0,-3.0,11.0,-12.0,10300.0,-12244.0,-903.0,3408.0,-101.0,-235.0,66.0,-2.0,-18.0,-30.0,9002.0,-13106.0,3040.0,-2529.0,-109.0,-232.0,-13.0,1.0
2022-05-23 15:40:55.884938-07:00,1335.0,825.2,1090.3,1009.0,978.2,953.4,1900.7,1570.2,3467.4,3473.4,1228.4,940.7,1756.0,3467.4,1324.1,1260.4,3466.1,3471.0,1635.0,1967.7,2610.2,3485.6,1830.4,3485.6,3478.3,3473.4,772.8,829.4,2032.4,1087.7,994.5,959.4,7.0,147.0,45.0,10289.0,-12228.0,-1001.0,3468.0,-25.0,-248.0,-354.0,5.0,40.0,-31.0,9016.0,-13123.0,2982.0,-2458.0,86.0,-207.0,-30.0,1.0
2022-05-23 15:40:55.886248-07:00,1335.0,831.9,1081.6,987.6,978.2,953.4,1900.7,1632.2,3467.4,3469.8,1204.4,925.4,1756.0,3467.4,1324.1,1267.6,3473.4,3471.0,1635.0,1967.7,2604.8,3495.3,1852.8,3485.6,3481.9,3473.4,772.8,829.4,2007.4,1076.4,985.9,959.4,-9.0,-108.0,33.0,10237.0,-12259.0,-1184.0,3457.0,30.0,-154.0,-46.0,-2.0,-13.0,22.0,8986.0,-13171.0,2902.0,-2409.0,54.0,-185.0,-112.0,1.0
2022-05-23 15:40:55.915431-07:00,1320.5,816.0,1081.6,987.6,983.3,946.6,1927.2,1632.2,3474.6,3473.4,1204.4,925.4,1755.0,3463.7,1302.5,1267.6,3473.4,3474.6,1619.9,1982.6,2604.8,3495.3,1868.4,3485.6,3481.9,3477.1,764.5,812.7,2007.4,1076.4,983.3,962.8,-14.0,18.0,7.0,10281.0,-12202.0,-1206.0,3518.0,86.0,-195.0,-8.0,-5.0,-10.0,-3.0,9085.0,-13124.0,2821.0,-2390.0,215.0,-163.0,-55.0,1.0
2022-05-23 15:40:55.974780-07:00,1320.5,816.0,1072.9,990.2,983.3,946.6,1873.2,1654.9,3474.6,3473.4,1205.3,930.5,1755.0,3463.7,1287.3,1255.1,3464.9,3478.3,1619.9,1982.6,2616.7,3485.6,1868.4,3485.6,3478.3,3472.2,764.5,812.7,2010.4,1066.9,983.3,962.8,14.0,7.0,36.0,10269.0,-12199.0,-1237.0,3556.0,-116.0,49.0,84.0,5.0,4.0,7.0,9115.0,-13123.0,2762.0,-2349.0,19.0,-144.0,-40.0,1.0
2022-05-23 15:40:56.034925-07:00,1324.1,808.5,1072.9,990.2,981.6,933.9,1873.2,1654.9,3466.1,3463.7,1205.3,930.5,1748.3,3478.3,1287.3,1255.1,3464.9,3478.3,1621.8,1978.6,2616.7,3485.6,1862.5,3488.0,3478.3,3472.2,748.8,808.5,2010.4,1066.9,973.1,923.7,3.0,7.0,40.0,10251.0,-12216.0,-1187.0,3566.0,-17.0,98.0,103.0,9.0,-21.0,11.0,9141.0,-13117.0,2732.0,-2314.0,64.0,-100.0,14.0,1.0
2022-05-23 15:40:56.065032-07:00,1324.1,808.5,1064.3,979.0,981.6,933.9,1856.7,1607.7,3466.1,3463.7,1193.8,933.9,1748.3,3478.3,1277.4,1239.1,3469.8,3471.0,1621.8,1978.6,2610.2,3490.5,1862.5,3488.0,3473.4,3475.9,748.8,808.5,1996.5,1048.7,973.1,923.7,0.0,14.0,13.0,10237.0,-12236.0,-1139.0,3555.0,-6.0,63.0,49.0,-2.0,-4.0,3.0,9155.0,-13116.0,2713.0,-2288.0,8.0,-68.0,2.0,1.0
2022-05-23 15:40:56.124988-07:00,1312.4,799.4,1064.3,979.0,976.5,922.0,1856.7,1607.7,3472.2,3473.4,1193.8,933.9,1745.4,3469.8,1277.4,1239.1,3469.8,3471.0,1626.5,1970.7,2610.2,3490.5,1863.5,3491.7,3473.4,3475.9,740.6,795.2,1996.5,1048.7,972.2,935.6,4.0,0.0,40.0,10270.0,-12218.0,-1078.0,3540.0,196.0,250.0,118.0,-1.0,3.0,-9.0,9189.0,-13099.0,2694.0,-2274.0,123.0,-43.0,-4.0,1.0
2022-05-23 15:40:56.244747-07:00,1312.4,799.4,1074.7,973.9,976.5,918.6,1854.7,1588.9,3472.2,3473.4,1190.3,933.0,1745.4,3473.4,1280.1,1238.2,3469.8,3488.0,1618.1,1970.7,2597.2,3491.7,1863.5,3491.7,3474.6,3471.0,734.0,795.2,1977.6,1060.8,972.2,935.6,-23.0,35.0,-6.0,10306.0,-12219.0,-944.0,3471.0,-100.0,269.0,63.0,0.0,-14.0,26.0,9184.0,-13105.0,2683.0,-2266.0,-138.0,-17.0,-17.0,1.0
2022-05-23 15:40:56.246988-07:00,1327.8,795.2,1063.4,973.9,979.0,918.6,1854.7,1588.9,3472.2,3469.8,1196.5,933.0,1740.6,3473.4,1280.1,1238.2,3469.8,3488.0,1618.1,1971.7,2597.2,3502.7,1845.0,3495.3,3474.6,3471.0,734.0,794.4,1977.6,1053.9,969.6,941.5,-8.0,15.0,-18.0,10265.0,-12270.0,-907.0,3420.0,-118.0,45.0,-34.0,3.0,-16.0,5.0,9124.0,-13148.0,2692.0,-2256.0,-150.0,-1.0,-3.0,1.0
2022-05-23 15:40:56.274821-07:00,1327.8,795.2,1063.4,979.9,979.0,920.3,1817.8,1576.8,3472.2,3469.8,1196.5,931.3,1740.6,3471.0,1270.3,1240.8,3481.9,3468.6,1611.5,1971.7,2600.4,3502.7,1845.0,3495.3,3467.4,3479.5,734.8,794.4,1983.6,1053.9,969.6,941.5,-4.0,12.0,-19.0,10227.0,-12307.0,-918.0,3398.0,-77.0,19.0,-52.0,2.0,-13.0,-9.0,9086.0,-13176.0,2690.0,-2244.0,-75.0,-31.0,-17.0,1.0
2022-05-23 15:40:56.334834-07:00,1314.2,800.2,1057.3,979.9,968.8,920.3,1817.8,1576.8,3461.3,3471.0,1186.7,931.3,1731.1,3471.0,1270.3,1240.8,3481.9,3468.6,1611.5,1970.7,2600.4,3486.8,1844.0,3483.2,3467.4,3479.5,734.8,791.9,1983.6,1049.6,969.6,941.5,6.0,15.0,-6.0,10218.0,-12320.0,-934.0,3374.0,35.0,17.0,-73.0,13.0,-11.0,2.0,9080.0,-13183.0,2675.0,-2243.0,17.0,-12.0,-31.0,1.0
2022-05-23 15:40:56.365789-07:00,1314.2,800.2,1057.3,979.9,968.8,915.2,1830.4,1555.3,3461.3,3471.0,1186.7,919.4,1731.1,3472.2,1266.7,1231.0,3477.1,3466.1,1617.1,1970.7,2586.4,3486.8,1844.0,3483.2,3473.4,3475.9,724.1,791.9,1979.6,1049.6,969.6,941.5,0.0,-1.0,3.0,10232.0,-12311.0,-954.0,3355.0,19.0,-34.0,-83.0,2.0,-18.0,-3.0,9081.0,-13186.0,2658.0,-2247.0,-5.0,-12.0,-35.0,1.0
2022-05-23 15:40:56.424855-07:00,1315.1,801.9,1056.5,973.1,962.0,915.2,1830.4,1555.3,3460.1,3467.4,1189.4,925.4,1734.9,3472.2,1266.7,1231.0,3477.1,3466.1,1617.1,1957.8,2597.2,3486.8,1836.2,3490.5,3473.4,3475.9,724.1,795.2,1964.7,1045.2,965.4,927.9,-4.0,-11.0,-4.0,10248.0,-12301.0,-975.0,3339.0,35.0,37.0,-19.0,0.0,-19.0,-6.0,9084.0,-13186.0,2645.0,-2249.0,12.0,-14.0,-13.0,1.0
2022-05-23 15:40:56.484839-07:00,1315.1,801.9,1056.5,973.1,965.4,910.1,1826.5,1532.0,3460.1,3467.4,1189.4,925.4,1731.1,3463.7,1269.4,1223.9,3469.8,3464.9,1610.5,1962.8,2597.2,3486.8,1836.2,3490.5,3468.6,3469.8,723.3,779.4,1964.7,1045.2,965.4,927.9,-1.0,-10.0,-4.0,10256.0,-12296.0,-969.0,3334.0,24.0,-19.0,12.0,8.0,-23.0,-10.0,9096.0,-13180.0,2639.0,-2242.0,38.0,-32.0,13.0,1.0
2022-05-23 15:40:56.515606-07:00,1312.4,791.0,1053.9,981.6,965.4,910.1,1826.5,1532.0,3468.6,3469.8,1182.3,924.5,1731.1,3463.7,1269.4,1223.9,3469.8,3464.9,1610.5,1962.8,2588.5,3485.6,1836.2,3492.9,3468.6,3469.8,723.3,779.4,1971.7,1051.3,974.8,940.7,5.0,6.0,7.0,10277.0,-12277.0,-963.0,3344.0,133.0,41.0,25.0,8.0,-1.0,-13.0,9122.0,-13164.0,2636.0,-2235.0,112.0,-29.0,33.0,1.0
2022-05-23 15:40:56.605516-07:00,1312.4,791.0,1053.9,981.6,962.8,895.7,1832.3,1532.9,3468.6,3469.8,1182.3,924.5,1727.2,3462.5,1268.5,1230.2,3467.4,3471.0,1619.0,1949.9,2588.5,3485.6,1836.2,3492.9,3477.1,3474.6,720.8,786.9,1971.7,1051.3,974.8,940.7,-6.0,29.0,-9.0,10314.0,-12252.0,-918.0,3330.0,45.0,67.0,40.0,0.0,0.0,1.0,9150.0,-13147.0,2633.0,-2224.0,4.0,-24.0,11.0,1.0
2022-05-23 15:40:56.634841-07:00,1316.9,791.0,1051.3,974.8,962.8,895.7,1832.3,1532.9,3472.2,3475.9,1182.3,918.6,1727.2,3462.5,1268.5,1230.2,3467.4,3471.0,1619.0,1949.9,2605.8,3484.4,1833.3,3486.8,3477.1,3474.6,720.8,786.9,1971.7,1054.8,970.5,931.3,3.0,-3.0,0.0,10304.0,-12264.0,-901.0,3325.0,15.0,0.0,-5.0,2.0,-19.0,-5.0,9141.0,-13155.0,2629.0,-2213.0,24.0,-26.0,4.0,1.0
2022-05-23 15:40:56.664927-07:00,1316.9,791.0,1051.3,974.8,968.8,898.3,1822.6,1512.5,3472.2,3475.9,1182.3,918.6,1735.8,3468.6,1263.1,1229.3,3471.0,3464.9,1610.5,1964.7,2605.8,3484.4,1833.3,3486.8,3477.1,3469.8,718.4,781.1,1971.7,1054.8,970.5,931.3,-5.0,2.0,-7.0,10319.0,-12251.0,-891.0,3328.0,20.0,34.0,83.0,-8.0,8.0,-8.0,9160.0,-13146.0,2618.0,-2204.0,7.0,-47.0,2.0,1.0
2022-05-23 15:40:56.754869-07:00,1313.3,791.9,1051.3,984.2,968.8,898.3,1822.6,1492.1,3457.6,3463.7,1177.0,918.6,1735.8,3468.6,1263.1,1218.6,3473.4,3464.9,1610.5,1964.7,2597.2,3489.2,1834.3,3490.5,3472.2,3469.8,718.4,781.1,1962.8,1047.8,969.6,932.2,-9.0,10.0,-4.0,10305.0,-12262.0,-847.0,3342.0,-6.0,11.0,50.0,1.0,-27.0,3.0,9158.0,-13152.0,2613.0,-2185.0,-16.0,-32.0,25.0,1.0
2022-05-23 15:40:56.784811-07:00,1316.0,791.9,1051.3,984.2,963.7,911.8,1817.8,1492.1,3462.5,3463.7,1177.0,918.6,1726.3,3474.6,1271.2,1218.6,3473.4,3478.3,1619.0,1946.9,2597.2,3489.2,1834.3,3485.6,3472.2,3479.5,714.2,781.9,1962.8,1047.8,969.6,934.7,3.0,25.0,2.0,10305.0,-12260.0,-838.0,3350.0,5.0,1.0,21.0,5.0,0.0,4.0,9162.0,-13151.0,2615.0,-2171.0,3.0,-19.0,14.0,1.0
2022-05-23 15:40:56.844601-07:00,1316.0,788.6,1054.8,977.3,963.7,911.8,1817.8,1500.4,3462.5,3461.3,1179.7,924.5,1726.3,3474.6,1271.2,1223.9,3478.3,3478.3,1619.0,1946.9,2599.3,3494.1,1823.6,3485.6,3474.6,3479.5,714.2,781.9,1975.6,1045.2,964.5,934.7,-3.0,2.0,1.0,10307.0,-12258.0,-830.0,3354.0,26.0,27.0,28.0,0.0,-11.0,7.0,9167.0,-13149.0,2613.0,-2165.0,29.0,-16.0,10.0,1.0
2022-05-23 15:40:56.874897-07:00,1332.3,788.6,1054.8,977.3,967.9,898.3,1815.8,1500.4,3467.4,3461.3,1179.7,924.5,1721.5,3469.8,1272.1,1223.9,3478.3,3473.4,1615.2,1951.9,2599.3,3494.1,1823.6,3490.5,3474.6,3474.6,719.2,789.4,1975.6,1045.2,964.5,922.8,-8.0,1.0,-9.0,10306.0,-12260.0,-815.0,3356.0,-11.0,-3.0,31.0,-4.0,-10.0,-1.0,9178.0,-13143.0,2612.0,-2157.0,30.0,-26.0,15.0,1.0
2022-05-23 15:40:56.934874-07:00,1332.3,784.4,1053.9,975.6,967.9,898.3,1815.8,1500.4,3467.4,3464.9,1178.8,913.5,1721.5,3469.8,1272.1,1237.3,3471.0,3473.4,1615.2,1951.9,2595.0,3481.9,1815.8,3490.5,3475.9,3474.6,719.2,789.4,1948.9,1046.1,966.2,922.8,-7.0,10.0,4.0,10300.0,-12265.0,-800.0,3358.0,27.0,76.0,20.0,-4.0,-8.0,0.0,9185.0,-13140.0,2608.0,-2146.0,-1.0,-26.0,9.0,1.0
2022-05-23 15:40:56.965031-07:00,1313.3,796.0,1053.9,975.6,949.2,900.8,1816.8,1500.4,3469.8,3462.5,1178.8,913.5,1723.4,3471.0,1272.1,1237.3,3471.0,3475.9,1606.8,1957.8,2595.0,3481.9,1811.0,3481.9,3475.9,3473.4,717.5,777.8,1948.9,1046.1,967.9,929.6,-8.0,28.0,-13.0,10310.0,-12263.0,-770.0,3343.0,-32.0,34.0,7.0,2.0,-4.0,8.0,9188.0,-13139.0,2608.0,-2140.0,-16.0,-6.0,9.0,1.0
2022-05-23 15:40:57.024343-07:00,1313.3,796.0,1055.6,973.9,949.2,900.8,1787.8,1498.6,3469.8,3462.5,1177.9,921.1,1723.4,3471.0,1267.6,1223.9,3472.2,3469.8,1606.8,1957.8,2605.8,3486.8,1811.0,3481.9,3475.9,3478.3,717.5,777.8,1956.8,1047.8,967.9,929.6,3.0,5.0,10.0,10297.0,-12274.0,-776.0,3340.0,43.0,-31.0,-25.0,8.0,-10.0,7.0,9177.0,-13147.0,2609.0,-2139.0,18.0,-5.0,6.0,1.0
2022-05-23 15:40:57.085093-07:00,1304.3,786.9,1055.6,973.9,955.1,906.7,1787.8,1498.6,3458.9,3467.4,1177.9,921.1,1724.4,3468.6,1267.6,1223.9,3472.2,3469.8,1609.6,1952.9,2605.8,3486.8,1812.9,3477.1,3475.9,3478.3,715.9,788.6,1956.8,1047.8,962.8,924.5,-11.0,12.0,16.0,10322.0,-12252.0,-785.0,3340.0,52.0,-26.0,-54.0,2.0,-15.0,16.0,9203.0,-13128.0,2605.0,-2145.0,73.0,9.0,6.0,1.0
2022-05-23 15:40:57.115612-07:00,1304.3,786.9,1059.1,972.2,955.1,906.7,1788.7,1465.4,3458.9,3467.4,1175.3,917.7,1724.4,3468.6,1260.4,1224.8,3480.7,3464.9,1609.6,1952.9,2590.7,3490.5,1812.9,3477.1,3468.6,3474.6,715.9,788.6,1949.9,1045.2,962.8,924.5,2.0,-4.0,20.0,10335.0,-12240.0,-809.0,3341.0,7.0,-21.0,-25.0,4.0,-23.0,15.0,9215.0,-13116.0,2614.0,-2154.0,1.0,43.0,19.0,1.0
2022-05-23 15:40:57.174891-07:00,1318.7,798.5,1059.1,972.2,955.1,889.8,1788.7,1465.4,3467.4,3478.3,1175.3,917.7,1720.5,3472.2,1260.4,1224.8,3480.7,3464.9,1612.4,1945.9,2590.7,3490.5,1812.9,3484.4,3468.6,3474.6,719.2,798.5,1949.9,1045.2,973.9,931.3,0.0,-44.0,27.0,10375.0,-12198.0,-825.0,3365.0,427.0,-243.0,-31.0,28.0,-65.0,47.0,9276.0,-13066.0,2634.0,-2177.0,364.0,77.0,73.0,1.0
2022-05-23 15:40:57.264724-07:00,1318.7,798.5,1059.1,997.0,955.1,889.8,1791.6,1451.6,3467.4,3478.3,1177.9,925.4,1720.5,3472.2,1293.6,1227.5,3467.4,3478.3,1612.4,1945.9,2588.5,3491.7,1812.9,3484.4,3473.4,3477.1,719.2,798.5,1945.9,1053.0,973.9,931.3,-9.0,14.0,26.0,10636.0,-11936.0,-892.0,3468.0,1213.0,-510.0,-213.0,-2.0,33.0,30.0,9582.0,-12824.0,2656.0,-2259.0,1299.0,188.0,125.0,1.0
2022-05-23 15:40:57.266101-07:00,1304.3,794.4,1133.1,997.0,953.4,933.9,1791.6,1451.6,3454.0,3478.3,1216.8,925.4,1717.7,3468.6,1293.6,1227.5,3467.4,3478.3,1613.4,1950.9,2588.5,3488.0,1791.6,3483.2,3473.4,3477.1,718.4,868.8,1945.9,1083.4,1023.7,933.9,25.0,41.0,82.0,10966.0,-11595.0,-954.0,3581.0,665.0,-82.0,-16.0,4.0,14.0,12.0,10025.0,-12450.0,2665.0,-2415.0,1175.0,278.0,57.0,1.0
2022-05-23 15:40:57.324543-07:00,1304.3,794.4,1133.1,1068.6,953.4,1014.2,1845.9,1429.5,3454.0,3478.3,1216.8,962.0,1717.7,3466.1,1364.8,1265.8,3466.1,3466.1,1608.7,1950.9,2598.3,3488.0,1791.6,3483.2,3464.9,3468.6,738.1,868.8,1945.0,1083.4,1023.7,933.9,-27.0,43.0,26.0,11178.0,-11399.0,-875.0,3574.0,732.0,158.0,-39.0,-13.0,7.0,29.0,10323.0,-12156.0,2715.0,-2594.0,985.0,428.0,38.0,1.0
2022-05-23 15:40:57.384819-07:00,1303.4,811.9,1175.3,1068.6,960.2,1014.2,1845.9,1429.5,3464.9,3468.6,1303.4,962.0,1720.5,3466.1,1364.8,1265.8,3466.1,3466.1,1608.7,1958.8,2598.3,3501.4,1762.7,3486.8,3464.9,3468.6,738.1,973.9,1945.0,1106.0,1047.0,933.9,-22.0,0.0,-57.0,11315.0,-11282.0,-812.0,3530.0,227.0,53.0,-25.0,-12.0,-8.0,-22.0,10490.0,-11956.0,2791.0,-2766.0,387.0,372.0,6.0,1.0
2022-05-23 15:40:57.415484-07:00,1303.4,811.9,1175.3,1088.6,960.2,998.7,1857.6,1373.0,3464.9,3468.6,1303.4,991.9,1720.5,3462.5,1467.2,1290.9,3474.6,3471.0,1610.5,1958.8,2606.9,3501.4,1762.7,3486.8,3466.1,3471.0,736.5,973.9,1944.0,1106.0,1047.0,933.9,-4.0,14.0,-101.0,11400.0,-11204.0,-793.0,3509.0,325.0,5.0,-108.0,0.0,15.0,-47.0,10589.0,-11830.0,2840.0,-2883.0,373.0,214.0,-12.0,1.0
2022-05-23 15:40:57.474897-07:00,1292.7,806.9,1173.5,1088.6,950.9,998.7,1857.6,1373.0,3474.6,3471.0,1405.8,991.9,1719.6,3462.5,1467.2,1290.9,3474.6,3471.0,1610.5,1959.8,2606.9,3474.6,1740.6,3490.5,3466.1,3471.0,736.5,971.3,1944.0,1135.7,1076.4,939.0,-2.0,-17.0,-70.0,11468.0,-11136.0,-818.0,3498.0,399.0,-146.0,-119.0,12.0,-18.0,-34.0,10673.0,-11732.0,2847.0,-2962.0,429.0,127.0,-19.0,1.0
2022-05-23 15:40:57.534885-07:00,1292.7,806.9,1173.5,1086.8,950.9,985.9,1880.1,1329.6,3474.6,3471.0,1405.8,1043.5,1724.4,3473.4,1541.3,1329.6,3474.6,3467.4,1605.8,1965.7,2604.8,3474.6,1740.6,3490.5,3480.7,3467.4,732.3,964.5,1932.1,1135.7,1076.4,939.0,-2.0,0.0,-52.0,11607.0,-10985.0,-857.0,3507.0,499.0,-93.0,-131.0,0.0,0.0,-54.0,10815.0,-11588.0,2822.0,-3039.0,567.0,57.0,-45.0,1.0
2022-05-23 15:40:57.624527-07:00,1292.7,801.9,1184.1,1101.7,950.9,985.9,1880.1,1329.6,3462.5,3471.0,1444.2,1048.7,1724.4,3473.4,1541.3,1329.6,3474.6,3467.4,1605.8,1965.7,2613.4,3486.8,1724.4,3486.8,3480.7,3467.4,732.3,964.5,1938.0,1132.2,1081.6,936.4,-2.0,29.0,-65.0,11751.0,-10841.0,-846.0,3481.0,310.0,79.0,-52.0,-21.0,35.0,-43.0,10950.0,-11463.0,2769.0,-3075.0,423.0,-73.0,-45.0,1.0
2022-05-23 15:40:57.626171-07:00,1292.7,801.9,1184.1,1101.7,945.8,954.3,1903.6,1332.3,3462.5,3471.0,1444.2,1048.7,1735.8,3466.1,1562.7,1359.4,3477.1,3478.3,1604.9,1961.8,2613.4,3486.8,1724.4,3486.8,3478.3,3467.4,738.9,945.8,1938.0,1132.2,1081.6,936.4,-32.0,15.0,-41.0,11775.0,-10822.0,-818.0,3463.0,-138.0,20.0,64.0,-19.0,-1.0,-20.0,10982.0,-11459.0,2688.0,-3046.0,-58.0,-236.0,-75.0,1.0
2022-05-23 15:40:57.684763-07:00,1287.3,798.5,1217.7,1110.4,945.8,954.3,1903.6,1332.3,3457.6,3469.8,1439.6,1059.9,1735.8,3466.1,1562.7,1359.4,3477.1,3478.3,1604.9,1961.8,2624.3,3489.2,1710.0,3495.3,3478.3,3467.4,738.9,945.8,1931.1,1153.3,1098.2,930.5,-17.0,-48.0,58.0,11726.0,-10873.0,-797.0,3476.0,-58.0,138.0,142.0,-8.0,-15.0,16.0,10965.0,-11511.0,2600.0,-2990.0,-85.0,-238.0,-83.0,1.0
2022-05-23 15:40:57.715481-07:00,1287.3,798.5,1217.7,1110.4,952.6,958.5,1905.6,1359.4,3457.6,3469.8,1439.6,1059.9,1725.3,3466.1,1556.2,1339.5,3483.2,3473.4,1604.0,1959.8,2624.3,3489.2,1710.0,3495.3,3473.4,3473.4,748.0,947.5,1931.1,1153.3,1098.2,930.5,-11.0,21.0,32.0,11707.0,-10905.0,-712.0,3457.0,-218.0,141.0,52.0,6.0,10.0,78.0,10960.0,-11540.0,2536.0,-2953.0,-142.0,-118.0,-59.0,1.0
2022-05-23 15:40:57.774824-07:00,1289.1,796.0,1244.4,1135.7,952.6,958.5,1905.6,1363.9,3467.4,3468.6,1458.0,1053.9,1725.3,3466.1,1556.2,1343.1,3467.4,3473.4,1604.0,1959.8,2608.0,3481.9,1699.5,3485.6,3472.2,3473.4,748.0,947.5,1923.3,1167.4,1108.6,933.9,-7.0,6.0,20.0,11633.0,-10998.0,-665.0,3424.0,-261.0,196.0,69.0,2.0,-23.0,32.0,10872.0,-11637.0,2515.0,-2916.0,-303.0,-95.0,-44.0,1.0
2022-05-23 15:40:57.834858-07:00,1286.4,796.0,1244.4,1135.7,948.3,950.0,1885.0,1363.9,3464.9,3468.6,1458.0,1053.9,1730.1,3464.9,1600.2,1343.1,3467.4,3474.6,1610.5,1958.8,2608.0,3481.9,1699.5,3491.7,3472.2,3473.4,738.1,944.9,1923.3,1167.4,1108.6,931.3,6.0,-34.0,20.0,11585.0,-11056.0,-607.0,3407.0,-9.0,110.0,114.0,18.0,-28.0,16.0,10827.0,-11691.0,2484.0,-2891.0,-64.0,-88.0,-23.0,1.0
2022-05-23 15:40:57.865906-07:00,1286.4,803.5,1337.7,1167.4,948.3,950.0,1885.0,1393.9,3464.9,3475.9,1465.4,1058.2,1730.1,3464.9,1600.2,1424.1,3475.9,3474.6,1610.5,1958.8,2598.3,3492.9,1700.5,3491.7,3467.4,3473.4,738.1,944.9,1946.9,1297.2,1264.0,931.3,5.0,29.0,11.0,11609.0,-11042.0,-520.0,3387.0,69.0,240.0,21.0,-4.0,4.0,-11.0,10842.0,-11683.0,2464.0,-2883.0,-3.0,-43.0,-22.0,1.0
2022-05-23 15:40:57.924417-07:00,1280.1,803.5,1337.7,1167.4,964.5,946.6,1863.5,1393.9,3467.4,3475.9,1465.4,1058.2,1722.4,3478.3,1671.9,1424.1,3475.9,3467.4,1606.8,1949.9,2598.3,3492.9,1700.5,3486.8,3467.4,3478.3,737.3,936.4,1946.9,1297.2,1264.0,928.8,-8.0,-25.0,33.0,11591.0,-11094.0,-418.0,3289.0,-14.0,440.0,75.0,-12.0,-14.0,4.0,10802.0,-11727.0,2449.0,-2870.0,-152.0,-40.0,-45.0,1.0
2022-05-23 15:40:57.984838-07:00,1280.1,791.0,1367.6,1187.6,964.5,946.6,1863.5,1415.8,3467.4,3472.2,1490.3,1084.2,1722.4,3478.3,1671.9,1490.3,3478.3,3467.4,1606.8,1949.9,2605.8,3494.1,1689.1,3486.8,3485.6,3478.3,737.3,936.4,1975.6,1320.5,1316.0,928.8,-10.0,-33.0,-34.0,11588.0,-11127.0,-236.0,3207.0,47.0,418.0,225.0,-17.0,-9.0,4.0,10775.0,-11756.0,2439.0,-2860.0,-93.0,-46.0,-22.0,1.0
2022-05-23 15:40:58.015457-07:00,1275.6,791.0,1367.6,1187.6,963.7,944.9,1861.5,1415.8,3462.5,3472.2,1490.3,1084.2,1733.9,3467.4,1752.1,1490.3,3478.3,3485.6,1608.7,1940.0,2605.8,3494.1,1689.1,3488.0,3485.6,3472.2,736.5,931.3,1975.6,1320.5,1316.0,927.9,14.0,29.0,-11.0,11644.0,-11083.0,-9.0,3164.0,357.0,408.0,220.0,6.0,-18.0,-27.0,10791.0,-11751.0,2410.0,-2844.0,144.0,-97.0,-11.0,1.0
2022-05-23 15:40:58.134880-07:00,1275.6,799.4,1365.7,1200.0,963.7,944.9,1885.0,1414.0,3462.5,3467.4,1519.0,1090.3,1733.9,3467.4,1786.8,1552.5,3480.7,3472.2,1608.7,1940.0,2601.5,3491.7,1685.3,3488.0,3478.3,3471.0,736.5,931.3,2074.5,1354.0,1337.7,927.9,45.0,-83.0,25.0,11736.0,-11004.0,159.0,3095.0,514.0,300.0,171.0,6.0,-15.0,-18.0,10831.0,-11728.0,2366.0,-2825.0,217.0,-78.0,-5.0,1.0
2022-05-23 15:40:58.138167-07:00,1271.2,801.9,1365.7,1200.0,980.7,937.3,1885.0,1414.0,3464.9,3466.1,1519.0,1090.3,1741.6,3462.5,1786.8,1552.5,3480.7,3472.2,1608.7,1953.9,2601.5,3491.7,1688.1,3484.4,3478.3,3471.0,734.0,933.9,2074.5,1354.0,1324.1,975.6,-33.0,57.0,-13.0,11824.0,-10919.0,443.0,3034.0,264.0,583.0,305.0,-9.0,-6.0,30.0,10853.0,-11722.0,2321.0,-2802.0,-247.0,-158.0,-29.0,1.0
