Time,P0,P1,P2,P3,P4,P5,P6,P7,P8,P9,P10,P11,P12,P13,P14,P15,P16,P17,P18,P19,P20,P21,P22,P23,P24,P25,P26,P27,P28,P29,P30,P31,ECG,AX0,AY0,AZ0,QW0,QX0,QY0,QZ0,GX0,GY0,GZ0,AX1,AY1,AZ1,QW1,QX1,QY1,QZ1,GX1,GY1,GZ1
2022-05-23 16:26:02.524961-07:00,2001.5,551.4,1275.6,1501.4,1258.7,1325.0,1266.7,1662.5,3418.9,3429.8,1715.8,1449.7,0.0,3429.8,1148.0,1554.3,3423.7,3421.3,683.1,1287.3,836.1,543.4,1229.3,1894.8,3424.9,3429.8,862.1,1075.6,1320.5,1548.7,1270.3,1062.5,12.0,8.0,-1.0,6740.0,9337.0,-7255.0,-9121.0,-67.0,-14.0,-31.0,-4.0,-1.0,10.0,9536.0,6948.0,-6164.0,-9551.0,-65.0,-22.0,-11.0,1.0
2022-05-23 16:26:02.585077-07:00,1996.5,556.2,1279.2,1501.4,1244.4,1325.0,1266.7,1662.5,3426.2,3432.2,1720.5,1449.7,0.0,3429.8,1148.0,1554.3,3423.7,3421.3,683.1,1284.6,836.1,547.4,1221.3,1883.0,3424.9,3429.8,862.1,1071.2,1320.5,1544.1,1252.4,1067.7,19.0,-8.0,-5.0,6745.0,9326.0,-7240.0,-9140.0,-39.0,-27.0,-14.0,-2.0,-9.0,3.0,9542.0,6932.0,-6155.0,-9563.0,-33.0,-17.0,-1.0,1.0
2022-05-23 16:26:02.615139-07:00,1996.5,556.2,1279.2,1497.7,1244.4,1328.7,1284.6,1659.6,3426.2,3432.2,1720.5,1444.2,0.0,3429.8,1147.1,1552.5,3426.2,3422.5,684.8,1284.6,840.3,547.4,1221.3,1883.0,3426.2,3422.5,856.2,1071.2,1318.7,1544.1,1252.4,1067.7,3.0,1.0,-6.0,6751.0,9311.0,-7239.0,-9152.0,-34.0,-47.0,51.0,-12.0,0.0,12.0,9545.0,6919.0,-6154.0,-9571.0,-8.0,-25.0,13.0,1.0
2022-05-23 16:26:02.675073-07:00,1997.5,553.8,1277.4,1497.7,1253.3,1328.7,1284.6,1659.6,3424.9,3420.1,1711.0,1444.2,0.0,3429.8,1147.1,1552.5,3426.2,3422.5,684.8,1277.4,840.3,541.8,1226.6,1887.9,3426.2,3422.5,856.2,1066.0,1318.7,1550.6,1267.6,1059.1,4.0,15.0,-6.0,6766.0,9284.0,-7251.0,-9160.0,-28.0,-33.0,30.0,-8.0,-1.0,16.0,9542.0,6911.0,-6158.0,-9576.0,-5.0,-28.0,3.0,1.0
2022-05-23 16:26:02.735034-07:00,1997.5,553.8,1277.4,1501.4,1253.3,1325.0,1277.4,1659.6,3424.9,3420.1,1711.0,1444.2,0.0,3426.2,1154.2,1545.9,3409.3,3422.5,680.7,1277.4,839.4,541.8,1226.6,1887.9,3424.9,3422.5,856.2,1066.0,1313.3,1550.6,1267.6,1059.1,19.0,16.0,4.0,6765.0,9271.0,-7259.0,-9167.0,-13.0,-43.0,-9.0,5.0,0.0,9.0,9540.0,6904.0,-6159.0,-9582.0,-28.0,-10.0,-9.0,1.0
2022-05-23 16:26:02.795032-07:00,1995.5,551.4,1274.7,1492.1,1240.8,1325.0,1277.4,1659.6,3428.6,3423.7,1702.4,1445.1,0.0,3426.2,1154.2,1545.9,3409.3,3422.5,680.7,1284.6,838.6,542.6,1226.6,1887.9,3424.9,3422.5,856.2,1060.8,1315.1,1544.1,1267.6,1070.3,14.0,-7.0,0.0,6769.0,9257.0,-7256.0,-9180.0,-22.0,-20.0,-4.0,-1.0,-11.0,12.0,9545.0,6894.0,-6153.0,-9589.0,-14.0,-7.0,-2.0,1.0
2022-05-23 16:26:02.825045-07:00,1995.5,551.4,1274.7,1492.1,1240.8,1309.7,1275.6,1653.0,3428.6,3423.7,1702.4,1445.1,0.0,3431.0,1141.9,1547.8,3421.3,3420.1,684.8,1274.7,838.6,542.6,1226.6,1887.9,3428.6,3418.9,862.1,1070.3,1315.1,1544.1,1267.6,1070.3,6.0,3.0,-2.0,6769.0,9250.0,-7257.0,-9187.0,-37.0,-19.0,7.0,-9.0,-2.0,13.0,9547.0,6889.0,-6150.0,-9593.0,-18.0,-11.0,7.0,1.0
2022-05-23 16:26:02.885112-07:00,1996.5,547.4,1279.2,1494.0,1240.8,1309.7,1275.6,1653.0,3429.8,3422.5,1700.5,1441.5,0.0,3431.0,1141.9,1547.8,3421.3,3420.1,684.8,1274.7,841.9,538.6,1225.7,1885.0,3428.6,3418.9,862.1,1070.3,1313.3,1546.9,1263.1,1069.5,0.0,7.0,-7.0,6771.0,9241.0,-7259.0,-9192.0,5.0,-38.0,23.0,-7.0,-3.0,15.0,9547.0,6887.0,-6150.0,-9594.0,6.0,3.0,-3.0,1.0
2022-05-23 16:26:02.915222-07:00,1996.5,547.4,1279.2,1494.0,1231.0,1320.5,1281.9,1650.2,3429.8,3422.5,1700.5,1441.5,0.0,3418.9,1141.9,1549.7,3424.9,3420.1,684.0,1281.0,841.9,538.6,1225.7,1885.0,3414.1,3423.7,860.4,1067.7,1313.3,1546.9,1263.1,1069.5,14.0,10.0,-9.0,6766.0,9228.0,-7274.0,-9197.0,4.0,-41.0,5.0,-5.0,0.0,7.0,9546.0,6888.0,-6151.0,-9593.0,1.0,-9.0,-5.0,1.0
2022-05-23 16:26:02.974990-07:00,1993.5,553.8,1279.2,1497.7,1231.0,1320.5,1281.9,1650.2,3410.5,3434.6,1708.1,1439.6,0.0,3418.9,1141.9,1549.7,3424.9,3420.1,684.0,1281.0,837.7,541.0,1220.4,1884.0,3414.1,3423.7,860.4,1067.7,1317.8,1540.3,1269.4,1063.4,11.0,0.0,-1.0,6762.0,9218.0,-7278.0,-9207.0,-10.0,-24.0,-11.0,-3.0,-5.0,9.0,9547.0,6882.0,-6149.0,-9597.0,-11.0,-15.0,-6.0,1.0
2022-05-23 16:26:03.034974-07:00,1986.6,553.8,1279.2,1497.7,1235.5,1309.7,1281.9,1649.2,3415.3,3434.6,1708.1,1439.6,0.0,3424.9,1149.8,1548.7,3422.5,3426.2,681.5,1279.2,837.7,541.0,1220.4,1881.1,3428.6,3429.8,848.6,1069.5,1317.8,1540.3,1269.4,1057.3,11.0,-1.0,-2.0,6758.0,9211.0,-7283.0,-9213.0,-6.0,-4.0,8.0,-10.0,-4.0,8.0,9545.0,6878.0,-6153.0,-9600.0,4.0,-16.0,6.0,1.0
2022-05-23 16:26:03.065199-07:00,1986.6,552.2,1281.0,1485.6,1235.5,1309.7,1281.9,1646.4,3415.3,3422.5,1712.9,1446.0,0.0,3424.9,1149.8,1543.1,3420.1,3426.2,681.5,1279.2,840.3,539.4,1229.3,1881.1,3428.6,3429.8,848.6,1069.5,1313.3,1543.1,1259.6,1057.3,6.0,21.0,-4.0,6760.0,9208.0,-7286.0,-9212.0,-11.0,-14.0,15.0,-4.0,6.0,17.0,9543.0,6874.0,-6159.0,-9602.0,-9.0,-19.0,5.0,1.0
2022-05-23 16:26:03.124933-07:00,1992.5,552.2,1281.0,1485.6,1236.4,1314.2,1280.1,1646.4,3418.9,3422.5,1712.9,1446.0,0.0,3418.9,1139.2,1543.1,3420.1,3429.8,681.5,1285.5,840.3,539.4,1229.3,1884.0,3428.6,3423.7,851.1,1055.6,1313.3,1543.1,1259.6,1059.9,15.0,7.0,2.0,6760.0,9197.0,-7286.0,-9223.0,-24.0,-29.0,-21.0,2.0,-1.0,12.0,9544.0,6867.0,-6157.0,-9606.0,-16.0,-8.0,-6.0,1.0
2022-05-23 16:26:03.185009-07:00,1992.5,558.6,1281.9,1492.1,1236.4,1314.2,1280.1,1648.3,3418.9,3428.6,1712.9,1441.5,0.0,3418.9,1139.2,1544.1,3428.6,3429.8,681.5,1285.5,840.3,541.8,1225.7,1884.0,3431.0,3423.7,851.1,1055.6,1317.8,1538.5,1256.0,1059.9,11.0,0.0,-5.0,6763.0,9192.0,-7281.0,-9229.0,-22.0,16.0,-5.0,-3.0,-9.0,9.0,9544.0,6865.0,-6157.0,-9608.0,-9.0,-12.0,3.0,1.0
2022-05-23 16:26:03.274969-07:00,1985.6,558.6,1281.9,1492.1,1233.7,1317.8,1271.2,1648.3,3434.6,3428.6,1712.9,1441.5,0.0,3421.3,1139.2,1544.1,3428.6,3417.7,683.1,1281.9,840.3,541.8,1225.7,1882.0,3431.0,3431.0,858.7,1067.7,1317.8,1538.5,1256.0,1054.8,11.0,15.0,-6.0,6768.0,9188.0,-7282.0,-9230.0,2.0,-26.0,12.0,-11.0,0.0,14.0,9543.0,6862.0,-6158.0,-9610.0,-2.0,-10.0,8.0,1.0
2022-05-23 16:26:03.276424-07:00,1985.6,551.4,1281.9,1501.4,1233.7,1317.8,1273.0,1646.4,3434.6,3428.6,1717.7,1441.5,0.0,3421.3,1138.4,1552.5,3429.8,3431.0,683.1,1281.9,836.1,538.6,1239.1,1882.0,3434.6,3429.8,858.7,1067.7,1310.6,1534.8,1260.4,1054.8,9.0,10.0,0.0,6764.0,9187.0,-7280.0,-9235.0,-11.0,-4.0,-25.0,-3.0,2.0,18.0,9543.0,6856.0,-6159.0,-9614.0,-13.0,-7.0,-7.0,1.0
2022-05-23 16:26:03.334938-07:00,1984.6,549.8,1281.9,1501.4,1225.7,1316.9,1273.0,1646.4,3427.4,3427.4,1717.7,1441.5,0.0,3429.8,1138.4,1552.5,3429.8,3431.0,683.1,1281.9,836.1,538.6,1228.4,1881.1,3434.6,3429.8,851.1,1066.0,1310.6,1534.8,1257.8,1053.0,11.0,-4.0,0.0,6763.0,9191.0,-7270.0,-9241.0,-14.0,15.0,-27.0,0.0,-5.0,14.0,9544.0,6854.0,-6156.0,-9616.0,-11.0,0.0,1.0,1.0
2022-05-23 16:26:03.365133-07:00,1984.6,549.8,1272.1,1495.8,1225.7,1316.9,1270.3,1653.9,3427.4,3427.4,1731.1,1440.5,0.0,3429.8,1140.1,1541.3,3415.3,3420.1,683.1,1281.9,836.9,537.8,1228.4,1881.1,3420.1,3427.4,851.1,1066.0,1316.0,1535.7,1257.8,1053.0,8.0,4.0,-5.0,6765.0,9192.0,-7266.0,-9240.0,-4.0,7.0,2.0,-6.0,-5.0,15.0,9545.0,6854.0,-6156.0,-9615.0,1.0,-7.0,10.0,1.0
2022-05-23 16:26:03.425040-07:00,1992.5,553.8,1272.1,1495.8,1231.0,1306.1,1270.3,1653.9,3417.7,3421.3,1731.1,1440.5,0.0,3421.3,1140.1,1541.3,3415.3,3420.1,679.1,1284.6,836.9,537.8,1232.8,1882.0,3420.1,3427.4,851.1,1059.1,1316.0,1535.7,1254.2,1062.5,9.0,15.0,-2.0,6768.0,9190.0,-7268.0,-9238.0,5.0,-2.0,14.0,-6.0,0.0,11.0,9545.0,6855.0,-6159.0,-9613.0,17.0,-1.0,7.0,1.0
2022-05-23 16:26:03.455026-07:00,1992.5,553.8,1278.3,1486.6,1231.0,1306.1,1266.7,1645.4,3417.7,3421.3,1733.0,1436.0,0.0,3421.3,1132.2,1540.3,3420.1,3427.4,679.1,1284.6,838.6,543.4,1232.8,1882.0,3421.3,3423.7,851.1,1059.1,1317.8,1545.0,1254.2,1062.5,12.0,12.0,-1.0,6769.0,9192.0,-7269.0,-9236.0,-6.0,-4.0,-13.0,0.0,-2.0,8.0,9543.0,6856.0,-6159.0,-9613.0,-3.0,-6.0,-12.0,1.0
2022-05-23 16:26:03.515436-07:00,1975.6,546.6,1278.3,1486.6,1224.8,1311.5,1266.7,1645.4,3427.4,3424.9,1733.0,1436.0,0.7,3429.8,1132.2,1540.3,3420.1,3427.4,683.1,1279.2,838.6,543.4,1232.8,1879.1,3421.3,3423.7,851.1,1066.9,1317.8,1545.0,1256.0,1037.5,17.0,-9.0,-3.0,6766.0,9194.0,-7266.0,-9238.0,0.0,-5.0,-1.0,-1.0,-8.0,9.0,9542.0,6857.0,-6160.0,-9613.0,12.0,2.0,3.0,1.0
2022-05-23 16:26:03.574973-07:00,1975.6,546.6,1272.1,1482.9,1224.8,1307.9,1269.4,1649.2,3427.4,3424.9,1735.8,1437.8,0.7,3429.8,1140.1,1536.6,3422.5,3416.5,683.1,1279.2,838.6,541.0,1232.8,1879.1,3429.8,3428.6,853.7,1066.9,1310.6,1537.6,1256.0,1037.5,-5.0,8.0,-9.0,6771.0,9188.0,-7271.0,-9235.0,-21.0,9.0,9.0,-18.0,-3.0,21.0,9543.0,6855.0,-6165.0,-9611.0,-16.0,-16.0,16.0,1.0
2022-05-23 16:26:03.605103-07:00,1976.6,548.2,1265.8,1482.9,1227.5,1307.9,1269.4,1649.2,3427.4,3424.9,1733.9,1437.8,0.0,3429.8,1140.1,1536.6,3422.5,3416.5,683.1,1279.2,838.6,540.2,1227.5,1872.3,3429.8,3428.6,853.7,1064.3,1310.6,1537.6,1259.6,1055.6,6.0,10.0,-9.0,6772.0,9183.0,-7276.0,-9236.0,23.0,-26.0,27.0,-8.0,2.0,13.0,9538.0,6855.0,-6174.0,-9610.0,32.0,-13.0,-2.0,1.0
2022-05-23 16:26:03.665226-07:00,1976.6,548.2,1265.8,1480.1,1227.5,1307.9,1268.5,1646.4,3427.4,3424.9,1733.9,1439.6,0.0,3434.6,1130.5,1554.3,3422.5,3420.1,684.0,1279.2,836.9,540.2,1227.5,1872.3,3421.3,3424.9,849.5,1064.3,1311.5,1537.6,1259.6,1055.6,24.0,14.0,6.0,6769.0,9169.0,-7290.0,-9241.0,-21.0,-38.0,2.0,6.0,0.0,8.0,9536.0,6851.0,-6177.0,-9613.0,-19.0,-10.0,-3.0,1.0
2022-05-23 16:26:03.725167-07:00,1991.5,549.8,1267.6,1480.1,1224.8,1307.9,1268.5,1646.4,3431.0,3427.4,1724.4,1439.6,0.0,3434.6,1130.5,1554.3,3422.5,3420.1,684.0,1278.3,836.9,540.2,1233.7,1873.2,3421.3,3424.9,849.5,1064.3,1311.5,1536.6,1264.9,1059.9,11.0,0.0,0.0,6778.0,9159.0,-7285.0,-9249.0,-21.0,-12.0,0.0,0.0,-7.0,15.0,9537.0,6841.0,-6175.0,-9620.0,-14.0,-13.0,1.0,1.0
2022-05-23 16:26:03.754924-07:00,1991.5,549.8,1267.6,1484.7,1224.8,1307.0,1268.5,1642.6,3431.0,3427.4,1724.4,1435.0,0.0,3421.3,1135.7,1543.1,3423.7,3426.2,679.1,1278.3,838.6,540.2,1233.7,1873.2,3431.0,3423.7,852.8,1064.3,1310.6,1536.6,1264.9,1059.9,2.0,6.0,-1.0,6779.0,9156.0,-7287.0,-9249.0,-10.0,0.0,4.0,-6.0,-4.0,20.0,9535.0,6839.0,-6178.0,-9621.0,5.0,-19.0,9.0,1.0
2022-05-23 16:26:03.815145-07:00,1982.6,560.2,1263.1,1480.1,1222.2,1307.0,1268.5,1642.6,3431.0,3422.5,1725.3,1441.5,0.0,3421.3,1135.7,1543.1,3423.7,3426.2,679.1,1283.7,834.4,541.8,1241.7,1874.2,3431.0,3423.7,852.8,1062.5,1310.6,1534.8,1252.4,1053.0,7.0,15.0,0.0,6782.0,9153.0,-7289.0,-9248.0,-17.0,-7.0,9.0,-9.0,4.0,17.0,9535.0,6835.0,-6177.0,-9625.0,-3.0,-5.0,4.0,1.0
2022-05-23 16:26:03.875617-07:00,1982.6,560.2,1263.1,1480.1,1220.4,1303.4,1266.7,1630.3,3431.0,3422.5,1725.3,1441.5,0.0,3423.7,1140.1,1544.1,3417.7,3423.7,684.0,1281.9,834.4,541.8,1241.7,1874.2,3427.4,3421.3,844.4,1059.1,1310.6,1534.8,1252.4,1053.0,2.0,9.0,-5.0,6792.0,9149.0,-7280.0,-9253.0,-24.0,9.0,3.0,-2.0,-3.0,17.0,9537.0,6832.0,-6173.0,-9628.0,1.0,-3.0,-2.0,1.0
2022-05-23 16:26:03.904999-07:00,1972.7,548.2,1275.6,1488.4,1220.4,1303.4,1266.7,1630.3,3426.2,3429.8,1745.4,1442.4,0.0,3423.7,1140.1,1544.1,3417.7,3423.7,684.0,1281.9,837.7,537.0,1251.5,1866.4,3427.4,3421.3,844.4,1059.1,1304.3,1539.4,1257.8,1051.3,19.0,-13.0,-10.0,6793.0,9139.0,-7292.0,-9252.0,33.0,-33.0,62.0,5.0,-6.0,0.0,9536.0,6834.0,-6175.0,-9627.0,38.0,3.0,-3.0,1.0
2022-05-23 16:26:03.995543-07:00,1972.7,548.2,1275.6,1488.4,1220.4,1291.8,1271.2,1632.2,3426.2,3429.8,1745.4,1442.4,0.0,3420.1,1144.5,1543.1,3409.3,3424.9,679.1,1279.2,837.7,537.0,1251.5,1866.4,3418.9,3423.7,848.6,1066.0,1304.3,1539.4,1257.8,1051.3,16.0,-9.0,-20.0,6792.0,9124.0,-7357.0,-9215.0,115.0,-53.0,157.0,-4.0,2.0,4.0,9512.0,6860.0,-6208.0,-9610.0,149.0,-32.0,1.0,1.0
2022-05-23 16:26:04.024919-07:00,1981.6,557.0,1271.2,1477.3,1220.4,1291.8,1271.2,1632.2,3421.3,3426.2,1748.3,1438.7,0.0,3420.1,1144.5,1543.1,3409.3,3424.9,679.1,1279.2,840.3,543.4,1252.4,1883.0,3418.9,3423.7,848.6,1066.0,1307.9,1533.8,1254.2,1049.6,5.0,47.0,1.0,6790.0,9105.0,-7414.0,-9190.0,25.0,-37.0,43.0,-10.0,14.0,19.0,9482.0,6879.0,-6250.0,-9599.0,69.0,-43.0,-5.0,1.0
2022-05-23 16:26:04.084943-07:00,1981.6,557.0,1271.2,1477.3,1216.0,1309.7,1267.6,1639.8,3421.3,3426.2,1748.3,1438.7,0.0,3418.9,1143.6,1541.3,3420.1,3420.1,675.0,1273.9,840.3,543.4,1252.4,1883.0,3424.9,3421.3,827.7,1059.9,1307.9,1533.8,1254.2,1049.6,-3.0,6.0,3.0,6786.0,9097.0,-7402.0,-9210.0,-24.0,-37.0,-43.0,-3.0,-8.0,18.0,9479.0,6866.0,-6243.0,-9616.0,-48.0,-21.0,-26.0,1.0
2022-05-23 16:26:04.116116-07:00,1980.6,551.4,1256.9,1483.8,1216.0,1309.7,1267.6,1626.5,3423.7,3429.8,1749.3,1436.9,0.0,3418.9,1143.6,1540.3,3420.1,3420.1,675.0,1273.9,839.4,544.2,1255.1,1862.5,3429.8,3421.3,827.7,1059.9,1305.2,1545.0,1254.2,1053.0,13.0,-6.0,10.0,6782.0,9097.0,-7399.0,-9216.0,-10.0,9.0,-1.0,2.0,-15.0,14.0,9479.0,6861.0,-6237.0,-9624.0,-2.0,-3.0,-2.0,1.0
2022-05-23 16:26:04.174957-07:00,1975.6,551.4,1256.9,1483.8,1219.5,1302.5,1266.7,1626.5,3418.9,3429.8,1749.3,1436.9,0.0,3427.4,1143.6,1540.3,3420.1,3424.9,683.1,1275.6,839.4,544.2,1255.1,1865.4,3429.8,3431.0,857.0,1059.9,1305.2,1545.0,1254.2,1046.1,13.0,4.0,1.0,6788.0,9091.0,-7399.0,-9219.0,-4.0,-15.0,18.0,-2.0,2.0,9.0,9484.0,6854.0,-6234.0,-9625.0,0.0,-4.0,14.0,1.0
2022-05-23 16:26:04.205113-07:00,1975.6,545.8,1269.4,1481.9,1219.5,1302.5,1266.7,1620.9,3418.9,3424.9,1737.8,1435.0,0.0,3427.4,1143.6,1537.6,3422.5,3424.9,683.1,1275.6,841.1,539.4,1246.2,1865.4,3429.8,3431.0,857.0,1059.9,1299.0,1535.7,1250.6,1046.1,11.0,23.0,2.0,6790.0,9089.0,-7396.0,-9221.0,-17.0,9.0,-23.0,3.0,5.0,20.0,9487.0,6851.0,-6233.0,-9625.0,-17.0,6.0,4.0,1.0
2022-05-23 16:26:04.265259-07:00,1983.6,545.8,1269.4,1481.9,1219.5,1307.0,1267.6,1620.9,3429.8,3424.9,1737.8,1435.0,0.0,3417.7,1136.6,1537.6,3422.5,3427.4,681.5,1274.7,841.1,539.4,1246.2,1873.2,3429.8,3434.6,843.6,1057.3,1299.0,1535.7,1250.6,1054.8,7.0,-2.0,0.0,6794.0,9093.0,-7376.0,-9229.0,-40.0,26.0,-45.0,-4.0,-9.0,10.0,9496.0,6847.0,-6220.0,-9628.0,-39.0,19.0,-4.0,1.0
2022-05-23 16:26:04.324954-07:00,1983.6,556.2,1267.6,1477.3,1219.5,1307.0,1267.6,1625.6,3429.8,3424.9,1738.7,1435.0,0.0,3417.7,1136.6,1546.9,3421.3,3427.4,681.5,1274.7,840.3,541.8,1249.7,1873.2,3426.2,3434.6,843.6,1057.3,1305.2,1536.6,1259.6,1054.8,2.0,-14.0,-12.0,6800.0,9096.0,-7369.0,-9228.0,4.0,1.0,27.0,-13.0,-4.0,6.0,9503.0,6847.0,-6208.0,-9628.0,6.0,11.0,14.0,1.0
2022-05-23 16:26:04.355597-07:00,1980.6,548.2,1267.6,1477.3,1211.5,1296.3,1271.2,1625.6,3429.8,3424.9,1738.7,1435.0,0.0,3429.8,1135.7,1546.9,3421.3,3422.5,675.8,1282.8,840.3,541.8,1242.6,1865.4,3426.2,3429.8,850.3,1065.1,1305.2,1536.6,1251.5,1049.6,19.0,21.0,-7.0,6805.0,9092.0,-7374.0,-9224.0,-14.0,9.0,-7.0,-2.0,8.0,3.0,9505.0,6847.0,-6211.0,-9624.0,-1.0,-9.0,10.0,1.0
2022-05-23 16:26:04.415246-07:00,1980.6,548.2,1256.9,1474.6,1211.5,1296.3,1257.8,1627.5,3429.8,3424.9,1731.1,1436.0,0.0,3429.8,1141.0,1543.1,3421.3,3424.9,675.8,1282.8,834.4,537.0,1242.6,1865.4,3417.7,3422.5,850.3,1065.1,1301.6,1531.0,1251.5,1049.6,12.0,16.0,-5.0,6803.0,9090.0,-7371.0,-9230.0,1.0,-26.0,-22.0,1.0,-1.0,7.0,9505.0,6845.0,-6208.0,-9627.0,-7.0,-1.0,-15.0,1.0
2022-05-23 16:26:04.474972-07:00,1990.5,547.4,1256.9,1474.6,1209.7,1302.5,1257.8,1627.5,3409.3,3432.2,1731.1,1436.0,0.0,3421.3,1141.0,1543.1,3421.3,3424.9,680.7,1281.9,834.4,537.0,1241.7,1871.3,3417.7,3422.5,847.0,1066.9,1301.6,1531.0,1253.3,1052.2,9.0,0.0,1.0,6794.0,9089.0,-7364.0,-9243.0,-36.0,-24.0,-38.0,-2.0,-7.0,12.0,9505.0,6842.0,-6199.0,-9636.0,-34.0,-8.0,-12.0,1.0
2022-05-23 16:26:04.505092-07:00,1990.5,547.4,1267.6,1483.8,1209.7,1302.5,1264.0,1624.7,3409.3,3432.2,1729.1,1433.2,0.0,3421.3,1143.6,1538.5,3424.9,3435.8,680.7,1281.9,833.6,537.8,1241.7,1871.3,3429.8,3427.4,847.0,1066.9,1305.2,1537.6,1253.3,1052.2,3.0,-6.0,0.0,6798.0,9080.0,-7353.0,-9258.0,-40.0,-15.0,-4.0,-9.0,-9.0,16.0,9514.0,6829.0,-6185.0,-9646.0,-37.0,-12.0,7.0,1.0
2022-05-23 16:26:04.594993-07:00,1982.6,553.8,1267.6,1483.8,1210.6,1299.0,1264.0,1624.7,3418.9,3418.9,1729.1,1433.2,0.0,3420.1,1143.6,1538.5,3424.9,3435.8,681.5,1275.6,833.6,537.8,1234.6,1861.5,3429.8,3427.4,852.0,1059.1,1305.2,1537.6,1248.0,1044.4,2.0,17.0,1.0,6799.0,9073.0,-7348.0,-9268.0,-24.0,-14.0,-21.0,-8.0,3.0,14.0,9518.0,6819.0,-6176.0,-9654.0,-23.0,2.0,4.0,1.0
2022-05-23 16:26:04.624932-07:00,1982.6,553.8,1261.3,1475.5,1210.6,1303.4,1267.6,1630.3,3418.9,3418.9,1732.0,1434.1,0.0,3418.9,1141.9,1542.2,3416.5,3431.0,677.4,1275.6,838.6,540.2,1234.6,1861.5,3423.7,3429.8,842.8,1059.1,1300.7,1530.1,1248.0,1044.4,14.0,7.0,-2.0,6799.0,9073.0,-7333.0,-9280.0,-28.0,1.0,-37.0,3.0,-3.0,8.0,9525.0,6809.0,-6165.0,-9661.0,-29.0,9.0,-8.0,1.0
2022-05-23 16:26:04.654965-07:00,1978.6,545.0,1256.0,1475.5,1212.4,1303.4,1267.6,1630.3,3424.9,3417.7,1728.2,1434.1,0.0,3418.9,1141.9,1542.2,3416.5,3431.0,677.4,1278.3,838.6,544.2,1236.4,1864.5,3423.7,3429.8,842.8,1053.0,1300.7,1526.4,1245.3,1054.8,15.0,-8.0,-5.0,6803.0,9074.0,-7320.0,-9286.0,-23.0,16.0,-14.0,0.0,-9.0,8.0,9532.0,6801.0,-6156.0,-9666.0,-28.0,7.0,5.0,1.0
2022-05-23 16:26:04.715126-07:00,1978.6,545.0,1256.0,1478.3,1212.4,1301.6,1253.3,1630.3,3424.9,3417.7,1728.2,1425.9,0.0,3432.2,1137.5,1536.6,3423.7,3421.3,681.5,1278.3,836.9,544.2,1236.4,1864.5,3429.8,3421.3,848.6,1053.0,1301.6,1526.4,1245.3,1054.8,7.0,4.0,-5.0,6808.0,9069.0,-7316.0,-9290.0,-28.0,-25.0,5.0,-2.0,-4.0,6.0,9536.0,6796.0,-6150.0,-9669.0,-19.0,-7.0,6.0,1.0
2022-05-23 16:26:04.776166-07:00,1993.5,544.2,1255.1,1478.3,1208.0,1301.6,1253.3,1630.3,3418.9,3429.8,1728.2,1425.9,0.0,3432.2,1137.5,1536.6,3423.7,3421.3,681.5,1292.7,836.9,540.2,1239.9,1860.6,3429.8,3421.3,848.6,1053.9,1301.6,1537.6,1244.4,1044.4,2.0,19.0,-6.0,6809.0,9065.0,-7316.0,-9293.0,-7.0,-5.0,-3.0,-4.0,1.0,16.0,9536.0,6795.0,-6148.0,-9671.0,1.0,-6.0,0.0,1.0
2022-05-23 16:26:04.805079-07:00,1993.5,544.2,1255.1,1475.5,1208.0,1290.0,1260.4,1624.7,3418.9,3429.8,1728.2,1433.2,0.0,3418.9,1137.5,1543.1,3420.1,3416.5,679.1,1292.7,839.4,540.2,1239.9,1860.6,3423.7,3424.9,848.6,1053.9,1305.2,1537.6,1244.4,1044.4,13.0,10.0,2.0,6807.0,9062.0,-7312.0,-9302.0,-34.0,-15.0,-31.0,1.0,0.0,12.0,9539.0,6789.0,-6140.0,-9677.0,-34.0,-10.0,-12.0,1.0
2022-05-23 16:26:04.865278-07:00,1977.6,543.4,1256.0,1475.5,1209.7,1290.0,1260.4,1624.7,3423.7,3422.5,1724.4,1433.2,0.0,3418.9,1137.5,1543.1,3420.1,3416.5,679.1,1280.1,839.4,538.6,1236.4,1862.5,3423.7,3424.9,848.6,1051.3,1305.2,1532.9,1243.5,1052.2,8.0,-6.0,-1.0,6812.0,9056.0,-7293.0,-9317.0,-39.0,-11.0,-19.0,-1.0,-10.0,9.0,9548.0,6776.0,-6127.0,-9686.0,-47.0,0.0,3.0,1.0
2022-05-23 16:26:04.924890-07:00,1977.6,543.4,1256.0,1481.9,1205.3,1291.8,1264.9,1632.2,3423.7,3422.5,1724.4,1430.5,0.0,3431.0,1138.4,1540.3,3422.5,3428.6,684.8,1282.8,838.6,538.6,1236.4,1862.5,3418.9,3427.4,844.4,1048.7,1295.4,1532.9,1243.5,1052.2,7.0,0.0,-8.0,6815.0,9050.0,-7286.0,-9328.0,-14.0,-13.0,11.0,-6.0,0.0,6.0,9553.0,6768.0,-6123.0,-9689.0,-9.0,-10.0,12.0,1.0
2022-05-23 16:26:04.984995-07:00,1978.6,547.4,1266.7,1476.4,1205.3,1291.8,1264.9,1632.2,3424.9,3429.8,1722.4,1430.5,0.0,3431.0,1138.4,1540.3,3422.5,3428.6,684.8,1282.8,841.9,543.4,1234.6,1860.6,3418.9,3427.4,844.4,1048.7,1303.4,1519.9,1246.2,1047.0,9.0,22.0,-4.0,6817.0,9040.0,-7289.0,-9333.0,-30.0,-24.0,-6.0,-2.0,7.0,12.0,9553.0,6761.0,-6125.0,-9694.0,-21.0,-16.0,3.0,1.0
2022-05-23 16:26:05.015148-07:00,1978.6,547.4,1266.7,1476.4,1207.1,1304.3,1264.9,1629.4,3424.9,3429.8,1722.4,1430.5,0.0,3414.1,1137.5,1536.6,3424.9,3420.1,679.1,1277.4,841.9,543.4,1234.6,1860.6,3431.0,3423.7,837.7,1057.3,1303.4,1519.9,1246.2,1047.0,13.0,12.0,-2.0,6820.0,9030.0,-7275.0,-9352.0,-85.0,-20.0,-44.0,4.0,-12.0,12.0,9560.0,6742.0,-6114.0,-9706.0,-71.0,-15.0,-5.0,1.0
2022-05-23 16:26:05.074926-07:00,1970.7,543.4,1251.5,1470.0,1207.1,1304.3,1264.9,1629.4,3433.4,3421.3,1714.8,1430.5,0.0,3414.1,1137.5,1536.6,3424.9,3420.1,679.1,1277.4,835.2,541.0,1239.1,1848.9,3431.0,3423.7,837.7,1057.3,1296.3,1529.2,1252.4,1048.7,18.0,-3.0,4.0,6828.0,9011.0,-7245.0,-9388.0,-110.0,-29.0,-33.0,1.0,-10.0,13.0,9578.0,6708.0,-6091.0,-9726.0,-105.0,-19.0,12.0,1.0
2022-05-23 16:26:05.105119-07:00,1970.7,543.4,1251.5,1470.0,1201.8,1286.4,1264.0,1622.8,3433.4,3421.3,1714.8,1430.5,0.0,3422.5,1134.9,1537.6,3434.6,3423.7,684.0,1281.9,835.2,541.0,1239.1,1848.9,3429.8,3432.2,844.4,1063.4,1296.3,1529.2,1252.4,1048.7,0.0,22.0,0.0,6830.0,9003.0,-7220.0,-9414.0,-71.0,-31.0,-64.0,0.0,7.0,21.0,9595.0,6682.0,-6074.0,-9738.0,-82.0,-1.0,10.0,1.0
2022-05-23 16:26:05.194895-07:00,1982.6,549.0,1257.8,1481.0,1201.8,1286.4,1264.0,1623.7,3428.6,3424.9,1718.6,1432.3,0.0,3422.5,1134.9,1533.8,3409.3,3423.7,684.0,1281.9,837.7,544.2,1238.2,1855.7,3429.8,3432.2,844.4,1063.4,1301.6,1521.8,1249.7,1048.7,10.0,55.0,16.0,6828.0,8987.0,-7169.0,-9468.0,-307.0,-48.0,-223.0,12.0,8.0,30.0,9640.0,6635.0,-6014.0,-9763.0,-338.0,76.0,24.0,1.0
2022-05-23 16:26:05.224978-07:00,1979.6,549.0,1257.8,1481.0,1193.8,1297.2,1260.4,1623.7,3429.8,3424.9,1718.6,1432.3,0.0,3427.4,1134.0,1533.8,3409.3,3418.9,679.9,1278.3,837.7,544.2,1238.2,1865.4,3429.8,3418.9,847.8,1059.9,1301.6,1521.8,1249.7,1047.8,25.0,225.0,-3.0,6880.0,8898.0,-6840.0,-9754.0,-2000.0,-182.0,-1095.0,22.0,73.0,31.0,9901.0,6329.0,-5663.0,-9913.0,-2051.0,135.0,124.0,1.0
2022-05-23 16:26:05.255251-07:00,1979.6,554.6,1322.3,1482.9,1193.8,1297.2,1260.4,1614.3,3429.8,3426.2,1768.5,1443.3,0.0,3427.4,1134.0,1557.1,3423.7,3418.9,679.9,1278.3,833.6,539.4,1256.0,1865.4,3429.8,3418.9,847.8,1059.9,1288.2,1566.5,1286.4,1047.8,158.0,230.0,-64.0,7047.0,8619.0,-5832.0,-10510.0,-3664.0,26.0,-2170.0,8.0,96.0,-68.0,10472.0,5512.0,-4809.0,-10260.0,-3820.0,170.0,243.0,1.0
2022-05-23 16:26:05.315524-07:00,2024.4,554.6,1322.3,1482.9,1214.2,1365.7,1264.9,1614.3,3418.9,3426.2,1768.5,1443.3,0.0,3429.8,1213.3,1557.1,3423.7,3426.2,679.1,1285.5,833.6,539.4,1256.0,1870.3,3429.8,3428.6,853.7,1105.1,1288.2,1566.5,1286.4,1051.3,-18.0,-172.0,-84.0,7220.0,8308.0,-4181.0,-11394.0,-2636.0,424.0,-2114.0,-32.0,-47.0,26.0,11025.0,4437.0,-3768.0,-10631.0,-3112.0,79.0,96.0,1.0
2022-05-23 16:26:05.374990-07:00,2024.4,568.2,1413.1,1518.0,1214.2,1365.7,1264.9,1641.6,3418.9,3431.0,2192.2,1604.9,0.0,3429.8,1213.3,1728.2,3420.1,3426.2,679.1,1285.5,843.6,543.4,1339.5,1870.3,3428.6,3428.6,853.7,1105.1,1357.6,1688.1,1492.1,1051.3,75.0,98.0,-53.0,7167.0,8277.0,-3199.0,-11761.0,-1530.0,704.0,-1183.0,8.0,64.0,-32.0,11241.0,3951.0,-3196.0,-10782.0,-1456.0,157.0,-55.0,1.0
2022-05-23 16:26:05.405061-07:00,2183.0,568.2,1413.1,1518.0,1216.8,1460.8,1295.4,1641.6,3424.9,3431.0,2192.2,1604.9,1477.3,3429.8,1541.3,1728.2,3420.1,3414.1,682.3,1313.3,843.6,543.4,1339.5,1973.7,3428.6,3429.8,900.8,1108.6,1357.6,1688.1,1492.1,1057.3,44.0,-3.0,-8.0,7175.0,8274.0,-2323.0,-11962.0,-1444.0,626.0,-1088.0,9.0,-19.0,-26.0,11353.0,3566.0,-2765.0,-10918.0,-1241.0,49.0,-132.0,1.0
2022-05-23 16:26:05.465893-07:00,2183.0,600.4,1671.9,1672.9,1216.8,1460.8,1279.2,1582.4,3424.9,3427.4,2383.9,1844.0,1477.3,3429.8,1693.8,2140.2,3411.7,3422.5,682.3,1313.3,852.8,540.2,1402.1,1973.7,3424.9,3424.9,900.8,1108.6,1469.0,2185.0,1890.9,1057.3,96.0,37.0,-55.0,7215.0,8260.0,-1583.0,-12069.0,-1322.0,592.0,-732.0,9.0,6.0,-27.0,11407.0,3267.0,-2464.0,-11026.0,-993.0,-70.0,-106.0,1.0
2022-05-23 16:26:05.525906-07:00,2281.7,618.9,1671.9,1672.9,1236.4,1452.5,1279.2,1582.4,3426.2,3418.9,2383.9,1844.0,1483.8,3426.2,1693.8,2140.2,3411.7,3422.5,692.9,1325.0,852.8,540.2,1528.3,2185.0,3424.9,3424.9,939.0,1127.9,1469.0,2185.0,1889.9,1056.5,-5.0,-112.0,-50.0,7322.0,8124.0,-1137.0,-12146.0,-534.0,-377.0,154.0,-34.0,-43.0,-5.0,11433.0,3017.0,-2265.0,-11113.0,-526.0,-69.0,-76.0,1.0
2022-05-23 16:26:05.555060-07:00,2281.7,618.9,1857.6,1785.8,1236.4,1452.5,1282.8,1559.9,3426.2,3418.9,2354.6,1817.8,1483.8,3426.2,1626.5,2212.7,3429.8,3424.9,692.9,1325.0,852.0,540.2,1528.3,2185.0,3428.6,3429.8,939.0,1127.9,1444.2,2226.0,1889.9,1056.5,30.0,-37.0,-19.0,7566.0,7895.0,-1070.0,-12154.0,-685.0,-144.0,531.0,-17.0,-77.0,-30.0,11437.0,2877.0,-2233.0,-11152.0,-164.0,-233.0,-37.0,1.0
2022-05-23 16:26:05.615746-07:00,2295.2,623.8,1857.6,1785.8,1239.1,1428.6,1282.8,1559.9,3426.2,3421.3,2354.6,1817.8,1471.8,3427.4,1626.5,2212.7,3429.8,3424.9,685.6,1319.6,852.0,540.2,1633.1,2224.0,3428.6,3429.8,963.7,1129.6,1444.2,2226.0,1851.8,1059.1,-26.0,27.0,-5.0,7745.0,7741.0,-1134.0,-12134.0,145.0,-466.0,350.0,-5.0,7.0,40.0,11408.0,2845.0,-2295.0,-11177.0,107.0,-163.0,-57.0,1.0
2022-05-23 16:26:05.705340-07:00,2295.2,623.8,1827.5,1780.1,1239.1,1428.6,1281.9,1555.3,3426.2,3421.3,2289.0,1795.5,1471.8,3427.4,1583.3,2212.7,3416.5,3427.4,685.6,1319.6,847.0,557.0,1633.1,2224.0,3429.8,3433.4,963.7,1129.6,1447.0,2154.4,1851.8,1059.1,113.0,76.0,45.0,7754.0,7629.0,-1342.0,-12178.0,144.0,-333.0,29.0,2.0,33.0,-48.0,11340.0,2856.0,-2384.0,-11225.0,137.0,-201.0,-205.0,1.0
2022-05-23 16:26:05.707759-07:00,2266.2,611.7,1794.5,1780.1,1237.3,1416.7,1281.9,1555.3,3427.4,3428.6,2278.6,1795.5,1466.3,3427.4,1583.3,2212.7,3416.5,3427.4,677.4,1306.1,847.0,550.6,1720.5,2200.4,3429.8,3433.4,973.1,1127.9,1447.0,2136.1,1816.8,1059.9,-11.0,14.0,8.0,7718.0,7702.0,-1487.0,-12138.0,728.0,185.0,340.0,4.0,9.0,33.0,11192.0,2999.0,-2624.0,-11283.0,996.0,-209.0,-317.0,1.0
2022-05-23 16:26:05.765364-07:00,2266.2,611.7,1794.5,1797.4,1237.3,1414.9,1333.2,1639.8,3427.4,3428.6,2278.6,1789.7,1466.3,3423.7,1559.9,2174.8,3427.4,3427.4,682.3,1306.1,849.5,550.6,1720.5,2200.4,3428.6,3431.0,976.5,1127.9,1435.0,2136.1,1816.8,1059.9,64.0,31.0,49.0,7757.0,7819.0,-1766.0,-12001.0,423.0,-1.0,418.0,13.0,-47.0,6.0,11049.0,3196.0,-2876.0,-11308.0,552.0,-102.0,-191.0,1.0
2022-05-23 16:26:05.824774-07:00,2251.7,614.9,1792.6,1797.4,1258.7,1414.9,1333.2,1639.8,3429.8,3422.5,2292.1,1789.7,1466.3,3423.7,1559.9,2174.8,3427.4,3427.4,682.3,1299.0,849.5,550.6,1750.2,2178.9,3428.6,3431.0,976.5,1128.7,1435.0,2124.0,1818.7,1050.4,-13.0,11.0,34.0,7782.0,7871.0,-1860.0,-11935.0,69.0,-12.0,45.0,18.0,-29.0,39.0,10987.0,3231.0,-2943.0,-11342.0,114.0,-64.0,-131.0,1.0
2022-05-23 16:26:05.915858-07:00,2251.7,614.9,1792.6,1802.3,1258.7,1417.6,1335.0,1619.9,3429.8,3422.5,2292.1,1775.2,1466.3,3429.8,1540.3,2143.3,3417.7,3418.9,677.4,1299.0,850.3,550.6,1750.2,2178.9,3428.6,3422.5,979.9,1128.7,1429.5,2124.0,1818.7,1050.4,0.0,-15.0,8.0,7767.0,7897.0,-1941.0,-11916.0,230.0,-8.0,238.0,-7.0,5.0,25.0,10919.0,3303.0,-3019.0,-11366.0,386.0,-10.0,-122.0,1.0
2022-05-23 16:26:05.918222-07:00,2248.7,614.1,1762.7,1802.3,1245.3,1417.6,1335.0,1619.9,3429.8,3427.4,2269.3,1775.2,1462.6,3429.8,1540.3,2143.3,3417.7,3418.9,677.4,1299.8,850.3,549.0,1732.0,2158.5,3428.6,3422.5,979.9,1141.0,1429.5,2160.5,1824.6,1053.9,31.0,108.0,-26.0,7816.0,7896.0,-2018.0,-11871.0,-99.0,-62.0,93.0,-31.0,18.0,-19.0,10871.0,3349.0,-3066.0,-11386.0,-42.0,-62.0,-97.0,1.0
2022-05-23 16:26:06.005069-07:00,2248.7,614.1,1762.7,1756.0,1239.1,1412.2,1383.0,1700.5,3429.8,3427.4,2269.3,1756.0,1465.4,3431.0,1525.5,2135.1,3426.2,3417.7,682.3,1300.7,852.0,549.0,1732.0,2158.5,3428.6,3424.9,957.7,1161.2,1437.8,2160.5,1824.6,1053.9,44.0,49.0,-36.0,7831.0,7867.0,-1971.0,-11889.0,-34.0,-30.0,-80.0,-26.0,1.0,-31.0,10833.0,3340.0,-3066.0,-11424.0,36.0,-34.0,-141.0,1.0
2022-05-23 16:26:06.006222-07:00,2237.3,604.4,1741.6,1739.7,1239.1,1412.2,1383.0,1700.5,3427.4,3429.8,2247.6,1748.3,1465.4,3431.0,1525.5,2135.1,3426.2,3417.7,682.3,1300.7,847.8,553.8,1709.1,2135.1,3428.6,3424.9,957.7,1161.2,1443.3,2162.6,1816.8,1055.6,-17.0,-42.0,8.0,7801.0,7823.0,-1934.0,-11943.0,-168.0,-203.0,-166.0,-3.0,-52.0,27.0,10807.0,3313.0,-3008.0,-11472.0,-189.0,64.0,-101.0,1.0
2022-05-23 16:26:06.215036-07:00,2237.3,604.4,1741.6,1739.7,1227.5,1403.0,1342.2,1659.6,3427.4,3429.8,2247.6,1748.3,1457.1,3414.1,1518.0,2119.9,3432.2,3423.7,683.1,1293.6,847.8,553.8,1709.1,2135.1,3432.2,3428.6,940.7,1167.4,1443.3,2162.6,1816.8,1055.6,29.0,56.0,-44.0,7811.0,7723.0,-1948.0,-11999.0,-230.0,-277.0,126.0,0.0,7.0,0.0,10820.0,3298.0,-2920.0,-11487.0,-227.0,100.0,5.0,1.0
2022-05-23 16:26:06.217726-07:00,2219.8,588.3,1733.0,1730.1,1227.5,1403.0,1342.2,1659.6,3426.2,3429.8,2229.1,1751.2,1457.1,3414.1,1518.0,2119.9,3432.2,3423.7,683.1,1293.6,849.5,551.4,1711.0,2132.1,3432.2,3428.6,940.7,1167.4,1431.4,2125.0,1796.5,1050.4,80.0,-86.0,42.0,7931.0,7483.0,-1804.0,-12095.0,-750.0,-245.0,-45.0,18.0,-86.0,-54.0,10902.0,3108.0,-2740.0,-11507.0,-661.0,-88.0,127.0,1.0
2022-05-23 16:26:06.218587-07:00,2219.8,588.3,1733.0,1730.1,1231.0,1395.7,1299.8,1579.6,3426.2,3429.8,2229.1,1751.2,1453.4,3422.5,1515.3,2108.8,3421.3,3423.7,685.6,1293.6,849.5,551.4,1711.0,2132.1,3426.2,3429.8,925.4,1163.8,1431.4,2125.0,1796.5,1050.4,33.0,146.0,7.0,8012.0,7366.0,-1736.0,-12123.0,-295.0,-130.0,82.0,10.0,71.0,1.0,10950.0,2989.0,-2689.0,-11505.0,-246.0,-110.0,93.0,1.0
2022-05-23 16:26:06.219342-07:00,2213.7,593.1,1720.5,1724.4,1231.0,1395.7,1299.8,1579.6,3422.5,3432.2,2218.8,1727.2,1453.4,3422.5,1515.3,2108.8,3421.3,3423.7,685.6,1293.6,853.7,553.8,1700.5,2122.0,3426.2,3429.8,925.4,1163.8,1423.1,2117.9,1786.8,1053.0,33.0,74.0,52.0,8071.0,7251.0,-1584.0,-12174.0,-435.0,-13.0,-193.0,21.0,-11.0,6.0,10993.0,2820.0,-2591.0,-11530.0,-452.0,-92.0,29.0,1.0
2022-05-23 16:26:06.245296-07:00,2210.6,593.1,1720.5,1724.4,1231.9,1395.7,1296.3,1553.4,3427.4,3432.2,2218.8,1727.2,1453.4,3422.5,1510.6,2092.6,3429.8,3422.5,679.9,1296.3,853.7,553.8,1700.5,2115.9,3426.2,3426.2,920.3,1152.4,1423.1,2117.9,1786.8,1048.7,5.0,42.0,20.0,8025.0,7235.0,-1434.0,-12233.0,-184.0,113.0,-278.0,0.0,41.0,31.0,11006.0,2696.0,-2500.0,-11567.0,-317.0,-53.0,-51.0,1.0
2022-05-23 16:26:06.335071-07:00,2210.6,602.0,1709.1,1720.5,1231.9,1395.7,1296.3,1779.1,3427.4,3418.9,2211.6,1722.4,1453.4,3422.5,1510.6,2077.5,3424.9,3422.5,679.9,1296.3,846.1,549.0,1693.8,2115.9,3428.6,3426.2,920.3,1152.4,1412.2,2105.8,1787.8,1048.7,-23.0,-82.0,-14.0,8066.0,7195.0,-1331.0,-12241.0,-225.0,-43.0,254.0,-21.0,-15.0,23.0,11012.0,2597.0,-2439.0,-11596.0,-66.0,-86.0,-25.0,1.0
2022-05-23 16:26:06.394701-07:00,2227.0,602.0,1709.1,1720.5,1248.8,1399.4,1418.6,1779.1,3427.4,3418.9,2211.6,1722.4,1454.3,3427.4,1504.1,2077.5,3424.9,3432.2,675.8,1317.8,846.1,549.0,1693.8,2115.9,3428.6,3439.5,924.5,1154.2,1412.2,2105.8,1787.8,1045.2,-41.0,40.0,-38.0,8195.0,7229.0,-1528.0,-12112.0,657.0,8.0,635.0,-23.0,-69.0,29.0,10966.0,2673.0,-2557.0,-11597.0,838.0,-67.0,-134.0,1.0
2022-05-23 16:26:06.395752-07:00,2227.0,602.8,1703.3,1729.1,1248.8,1399.4,1418.6,1948.9,3427.4,3424.9,2197.3,1711.0,1454.3,3427.4,1504.1,2074.5,3428.6,3432.2,675.8,1317.8,847.0,545.0,1685.3,2115.9,3435.8,3439.5,924.5,1154.2,1408.5,2098.7,1787.8,1045.2,24.0,111.0,-14.0,8248.0,7285.0,-1822.0,-12001.0,260.0,-142.0,246.0,6.0,-3.0,0.0,10858.0,2901.0,-2812.0,-11585.0,299.0,-6.0,-87.0,1.0
2022-05-23 16:26:06.455006-07:00,2231.1,602.8,1703.3,1729.1,1362.1,1393.9,1511.5,1948.9,3435.8,3424.9,2197.3,1711.0,1447.9,3427.4,1492.1,2074.5,3428.6,3423.7,679.1,1315.1,847.0,545.0,1685.3,2101.7,3435.8,3429.8,926.2,1126.1,1408.5,2098.7,1787.8,1055.6,31.0,6.0,8.0,8182.0,7264.0,-1867.0,-12051.0,45.0,-91.0,-184.0,0.0,13.0,-10.0,10836.0,2912.0,-2815.0,-11602.0,-18.0,-12.0,-65.0,1.0
2022-05-23 16:26:06.515010-07:00,2231.1,596.3,1706.2,1713.8,1362.1,1393.9,1515.3,1969.7,3435.8,3431.0,2216.8,1718.6,1447.9,3427.4,1490.3,2062.5,3431.0,3426.2,679.1,1315.1,846.1,557.8,1668.2,2101.7,3431.0,3432.2,926.2,1126.1,1412.2,2090.6,1770.4,1055.6,13.0,67.0,3.0,8140.0,7248.0,-1866.0,-12090.0,34.0,-49.0,-94.0,-7.0,23.0,-1.0,10825.0,2896.0,-2798.0,-11621.0,-32.0,-20.0,-41.0,1.0
2022-05-23 16:26:06.605003-07:00,2227.0,601.2,1706.2,1713.8,1340.4,1388.5,1515.3,1969.7,3434.6,3429.8,2216.8,1718.6,1452.5,3428.6,1490.3,2062.5,3431.0,3426.2,675.0,1308.8,846.1,557.8,1662.5,2101.7,3431.0,3432.2,922.0,1137.5,1412.2,2090.6,1755.0,1078.2,49.0,67.0,0.0,8027.0,7291.0,-1846.0,-12142.0,165.0,85.0,-496.0,-10.0,5.0,-8.0,10802.0,2867.0,-2797.0,-11649.0,-46.0,-96.0,-136.0,1.0
2022-05-23 16:26:06.606160-07:00,2227.0,601.2,1694.8,1705.3,1340.4,1388.5,1524.5,1981.6,3434.6,3429.8,2227.0,1712.9,1452.5,3428.6,1494.0,2063.5,3421.3,3432.2,675.0,1308.8,842.8,553.8,1662.5,2101.7,3418.9,3431.0,922.0,1137.5,1410.3,2070.5,1755.0,1078.2,-22.0,-60.0,4.0,7877.0,7402.0,-1811.0,-12178.0,284.0,141.0,-193.0,-4.0,-26.0,21.0,10745.0,2872.0,-2828.0,-11693.0,211.0,-32.0,-107.0,1.0
2022-05-23 16:26:06.665138-07:00,2262.1,592.3,1694.8,1705.3,1459.8,1382.1,1524.5,1981.6,3437.0,3426.2,2227.0,1712.9,1451.6,3424.9,1494.0,2063.5,3421.3,3432.2,669.3,1308.8,842.8,553.8,1658.7,2105.8,3418.9,3431.0,914.4,1134.9,1410.3,2070.5,1760.8,1097.3,0.0,-4.0,7.0,7808.0,7537.0,-1950.0,-12119.0,604.0,123.0,147.0,5.0,-31.0,16.0,10702.0,2969.0,-2930.0,-11683.0,527.0,34.0,-38.0,1.0
2022-05-23 16:26:06.695142-07:00,2262.1,592.3,1693.8,1709.1,1459.8,1382.1,1497.7,1924.3,3437.0,3426.2,2227.0,1721.5,1451.6,3424.9,1482.9,2054.4,3422.5,3424.9,669.3,1308.8,837.7,552.2,1658.7,2105.8,3423.7,3433.4,914.4,1134.9,1407.6,2059.4,1760.8,1097.3,-31.0,-10.0,-42.0,7812.0,7572.0,-2060.0,-12076.0,42.0,-217.0,187.0,-16.0,-35.0,34.0,10681.0,3070.0,-3021.0,-11653.0,135.0,-2.0,49.0,1.0
2022-05-23 16:26:06.815012-07:00,2318.1,597.9,1693.8,1709.1,1688.1,1373.0,1497.7,1924.3,3429.8,3423.7,2227.0,1721.5,1447.9,3418.9,1482.9,2054.4,3422.5,3424.9,680.7,1331.4,837.7,552.2,1651.1,2102.7,3423.7,3433.4,913.5,1138.4,1407.6,2059.4,1744.5,1093.8,88.0,46.0,29.0,7803.0,7508.0,-2303.0,-12078.0,440.0,-360.0,252.0,23.0,31.0,-61.0,10668.0,3151.0,-3113.0,-11619.0,379.0,16.0,42.0,1.0
2022-05-23 16:26:06.845645-07:00,2318.1,597.9,1712.9,1729.1,1688.1,1390.3,1438.7,1822.6,3429.8,3423.7,2237.3,1724.4,1447.9,3426.2,1489.3,2067.5,3416.5,3421.3,679.9,1331.4,842.8,549.8,1651.1,2102.7,3424.9,3423.7,897.4,1138.4,1411.3,2046.4,1744.5,1093.8,11.0,16.0,46.0,7812.0,7527.0,-2404.0,-12041.0,246.0,81.0,130.0,15.0,-14.0,37.0,10654.0,3255.0,-3225.0,-11573.0,369.0,49.0,15.0,1.0
2022-05-23 16:26:06.847141-07:00,2296.2,602.8,1695.7,1729.1,1672.9,1390.3,1438.7,1822.6,3427.4,3428.6,2234.2,1724.4,1449.7,3426.2,1489.3,2067.5,3416.5,3421.3,679.9,1343.1,842.8,552.2,1635.0,2119.9,3424.9,3423.7,897.4,1132.2,1411.3,2040.4,1744.5,1086.8,-14.0,-82.0,95.0,7777.0,7740.0,-2679.0,-11869.0,1242.0,355.0,561.0,0.0,-45.0,56.0,10588.0,3483.0,-3401.0,-11517.0,1376.0,243.0,-100.0,1.0
2022-05-23 16:26:06.905075-07:00,2296.2,602.8,1695.7,1724.4,1672.9,1393.0,1406.7,1772.3,3427.4,3428.6,2234.2,1721.5,1449.7,3422.5,1472.7,2050.4,3418.9,3416.5,677.4,1343.1,842.8,552.2,1635.0,2119.9,3429.8,3420.1,884.8,1132.2,1447.9,2040.4,1744.5,1086.8,-9.0,5.0,36.0,7712.0,8107.0,-3158.0,-11544.0,1368.0,437.0,625.0,-4.0,-17.0,31.0,10436.0,3993.0,-3759.0,-11378.0,1537.0,331.0,-106.0,1.0
2022-05-23 16:26:06.965003-07:00,2298.3,600.4,1687.2,1724.4,1629.4,1393.0,1406.7,1772.3,3432.2,3422.5,2215.7,1721.5,1447.9,3422.5,1472.7,2050.4,3418.9,3416.5,677.4,1339.5,842.8,546.6,1624.7,2122.0,3429.8,3420.1,884.8,1124.4,1447.9,2028.4,1733.0,1088.6,11.0,-54.0,-24.0,7648.0,8514.0,-3703.0,-11124.0,1827.0,549.0,972.0,-3.0,-14.0,17.0,10248.0,4582.0,-4159.0,-11186.0,2061.0,425.0,-124.0,1.0
2022-05-23 16:26:06.995365-07:00,2298.3,600.4,1687.2,1721.5,1629.4,1375.7,1399.4,1760.8,3432.2,3422.5,2215.7,1725.3,1447.9,3427.4,1478.3,2057.4,3423.7,3426.2,683.1,1339.5,844.4,546.6,1624.7,2122.0,3428.6,3421.3,883.1,1124.4,1444.2,2028.4,1733.0,1088.6,77.0,62.0,-38.0,7594.0,8927.0,-4352.0,-10590.0,1646.0,596.0,975.0,-1.0,13.0,-31.0,9989.0,5278.0,-4646.0,-10919.0,1880.0,370.0,-76.0,1.0
2022-05-23 16:26:07.055083-07:00,2287.9,593.9,1693.8,1717.7,1645.4,1375.7,1399.4,1760.8,3437.0,3429.8,2208.6,1733.0,1450.6,3427.4,1478.3,2057.4,3423.7,3426.2,683.1,1335.9,844.4,552.2,1619.0,2109.8,3428.6,3421.3,883.1,1107.8,1436.0,2027.4,1728.2,1092.9,45.0,-46.0,-33.0,7524.0,9275.0,-4881.0,-10098.0,1727.0,481.0,941.0,6.0,-7.0,-29.0,9739.0,5859.0,-5052.0,-10664.0,1913.0,364.0,-147.0,1.0
2022-05-23 16:26:07.115013-07:00,2287.9,593.9,1693.8,1717.7,1618.1,1383.0,1382.1,1743.5,3437.0,3429.8,2208.6,1733.0,1447.9,3420.1,1465.4,2048.4,3423.7,3427.4,679.9,1332.3,844.4,552.2,1619.0,2109.8,3422.5,3434.6,877.2,1116.5,1436.0,2027.4,1728.2,1092.9,46.0,81.0,-83.0,7507.0,9556.0,-5381.0,-9581.0,908.0,526.0,910.0,-3.0,21.0,-16.0,9476.0,6400.0,-5430.0,-10401.0,1238.0,225.0,-31.0,1.0
2022-05-23 16:26:07.145091-07:00,2270.3,588.3,1682.4,1718.6,1618.1,1383.0,1382.1,1743.5,3433.4,3428.6,2197.3,1734.9,1447.9,3420.1,1465.4,2048.4,3423.7,3427.4,679.9,1332.3,841.1,550.6,1614.3,2095.7,3422.5,3434.6,877.2,1116.5,1423.1,2027.4,1728.2,1083.4,54.0,-183.0,15.0,7547.0,9703.0,-5804.0,-9145.0,1354.0,358.0,1184.0,3.0,-89.0,-23.0,9252.0,6793.0,-5741.0,-10185.0,1933.0,177.0,-107.0,1.0
2022-05-23 16:26:07.235043-07:00,2270.3,588.3,1682.4,1718.6,1611.5,1364.8,1377.5,1745.4,3433.4,3428.6,2197.3,1734.9,1454.3,3417.7,1462.6,2040.4,3422.5,3421.3,676.6,1335.0,841.1,550.6,1614.3,2095.7,3428.6,3431.0,879.7,1110.4,1423.1,2027.4,1728.2,1083.4,5.0,-40.0,-8.0,7489.0,9932.0,-6549.0,-8415.0,2039.0,468.0,1659.0,-25.0,-25.0,19.0,8831.0,7417.0,-6273.0,-9802.0,2494.0,275.0,-92.0,1.0
2022-05-23 16:26:07.265001-07:00,2261.0,589.9,1677.6,1722.4,1611.5,1364.8,1377.5,1745.4,3424.9,3426.2,2235.3,1758.9,1454.3,3417.7,1462.6,2040.4,3422.5,3421.3,676.6,1335.0,844.4,545.8,1607.7,2089.6,3428.6,3431.0,879.7,1110.4,1416.7,2016.4,1725.3,1095.6,12.0,40.0,-26.0,7366.0,10137.0,-7259.0,-7663.0,1853.0,404.0,1285.0,-18.0,7.0,21.0,8372.0,8050.0,-6780.0,-9358.0,2132.0,332.0,-127.0,1.0
2022-05-23 16:26:07.294804-07:00,2268.3,589.9,1677.6,1722.4,1606.8,1366.6,1375.7,1712.9,3435.8,3426.2,2235.3,1758.9,1450.6,3422.5,1463.5,2040.4,3424.9,3417.7,679.1,1332.3,844.4,545.8,1607.7,2089.6,3423.7,3424.9,883.1,1112.1,1416.7,2016.4,1725.3,1095.6,27.0,-63.0,-34.0,7211.0,10334.0,-7823.0,-6960.0,1798.0,507.0,1203.0,-7.0,-32.0,3.0,7950.0,8598.0,-7180.0,-8930.0,2149.0,334.0,-116.0,1.0
2022-05-23 16:26:07.355000-07:00,2268.3,595.5,1684.3,1721.5,1606.8,1366.6,1375.7,1730.1,3435.8,3432.2,2227.0,1744.5,1450.6,3422.5,1463.5,2042.4,3423.7,3417.7,679.1,1332.3,837.7,547.4,1604.0,2100.7,3426.2,3424.9,883.1,1112.1,1410.3,2006.4,1726.3,1095.6,49.0,94.0,-105.0,7029.0,10458.0,-8414.0,-6234.0,1514.0,251.0,1194.0,12.0,23.0,-30.0,7504.0,9116.0,-7574.0,-8465.0,1670.0,273.0,-27.0,1.0
2022-05-23 16:26:07.475027-07:00,2256.9,595.5,1684.3,1721.5,1588.0,1368.5,1365.7,1730.1,3427.4,3432.2,2227.0,1744.5,1447.0,3423.7,1465.4,2042.4,3423.7,3428.6,674.2,1325.9,837.7,547.4,1604.0,2092.6,3426.2,3428.6,867.1,1112.1,1410.3,2006.4,1726.3,1086.8,81.0,65.0,-71.0,6928.0,10449.0,-8768.0,-5864.0,622.0,20.0,562.0,-6.0,25.0,-69.0,7240.0,9399.0,-7810.0,-8166.0,735.0,93.0,31.0,1.0
2022-05-23 16:26:07.476045-07:00,2256.9,588.3,1671.9,1712.9,1588.0,1368.5,1365.7,1721.5,3427.4,3434.6,2205.5,1733.0,1447.0,3423.7,1465.4,2035.4,3427.4,3428.6,674.2,1325.9,845.3,549.0,1605.8,2092.6,3428.6,3428.6,867.1,1112.1,1412.2,2015.4,1730.1,1086.8,42.0,56.0,-71.0,6867.0,10440.0,-8949.0,-5674.0,365.0,21.0,339.0,-31.0,23.0,-31.0,7098.0,9522.0,-7942.0,-8020.0,405.0,-12.0,34.0,1.0
2022-05-23 16:26:07.504997-07:00,2249.7,588.3,1671.9,1712.9,1569.3,1365.7,1365.7,1721.5,3422.5,3434.6,2205.5,1733.0,1440.5,3431.0,1464.4,2035.4,3427.4,3424.9,686.4,1325.9,845.3,549.0,1605.8,2084.6,3428.6,3427.4,874.7,1106.9,1412.2,2015.4,1730.1,1094.7,25.0,46.0,-1.0,6829.0,10420.0,-9030.0,-5628.0,31.0,-148.0,46.0,8.0,8.0,11.0,7034.0,9553.0,-8005.0,-7976.0,10.0,-66.0,18.0,1.0
2022-05-23 16:26:07.564930-07:00,2249.7,587.5,1662.5,1714.8,1569.3,1365.7,1365.7,1728.2,3422.5,3428.6,2195.2,1722.4,1440.5,3431.0,1464.4,2035.4,3428.6,3424.9,686.4,1325.9,837.7,542.6,1604.0,2084.6,3426.2,3427.4,874.7,1106.9,1396.7,2000.5,1726.3,1094.7,2.0,-30.0,35.0,6804.0,10409.0,-9033.0,-5675.0,28.0,-97.0,-37.0,4.0,-2.0,34.0,7033.0,9527.0,-8013.0,-8000.0,52.0,-47.0,9.0,1.0
2022-05-23 16:26:07.595096-07:00,2237.3,578.6,1662.5,1714.8,1559.0,1372.1,1378.5,1728.2,3429.8,3426.2,2195.2,1722.4,1440.5,3428.6,1468.1,2035.4,3428.6,3429.8,678.2,1322.3,837.7,542.6,1598.3,2087.6,3426.2,3431.0,864.6,1102.5,1396.7,2000.5,1727.2,1081.6,-12.0,-13.0,33.0,6777.0,10408.0,-9070.0,-5650.0,142.0,44.0,156.0,-8.0,-16.0,40.0,7008.0,9538.0,-8040.0,-7982.0,219.0,30.0,25.0,1.0
2022-05-23 16:26:07.655027-07:00,2237.3,578.6,1662.5,1715.8,1559.0,1372.1,1360.3,1715.8,3429.8,3426.2,2175.8,1726.3,1440.5,3428.6,1460.8,2031.4,3428.6,3424.9,678.2,1322.3,845.3,547.4,1598.3,2087.6,3421.3,3431.0,864.6,1102.5,1403.0,1990.5,1727.2,1081.6,-18.0,25.0,-11.0,6779.0,10407.0,-9119.0,-5570.0,47.0,73.0,106.0,-9.0,10.0,31.0,6981.0,9572.0,-8072.0,-7933.0,78.0,63.0,50.0,1.0
2022-05-23 16:26:07.714997-07:00,2229.1,579.4,1662.5,1715.8,1551.5,1355.8,1360.3,1715.8,3422.5,3429.8,2175.8,1726.3,1447.9,3432.2,1460.8,2031.4,3428.6,3424.9,677.4,1327.8,845.3,547.4,1594.6,2074.5,3421.3,3431.0,863.7,1105.1,1403.0,1990.5,1722.4,1079.9,36.0,-2.0,8.0,6801.0,10387.0,-9135.0,-5554.0,-23.0,26.0,42.0,-7.0,-6.0,-15.0,7000.0,9577.0,-8076.0,-7906.0,20.0,59.0,44.0,1.0
2022-05-23 16:26:07.745058-07:00,2229.1,579.4,1661.5,1708.1,1551.5,1355.8,1368.5,1706.2,3422.5,3429.8,2175.8,1725.3,1447.9,3432.2,1462.6,2034.4,3422.5,3423.7,677.4,1327.8,838.6,551.4,1594.6,2074.5,3432.2,3431.0,863.7,1105.1,1401.2,1994.5,1722.4,1079.9,6.0,-14.0,-30.0,6818.0,10395.0,-9136.0,-5517.0,127.0,77.0,102.0,-7.0,11.0,6.0,6997.0,9594.0,-8092.0,-7871.0,174.0,24.0,16.0,1.0
2022-05-23 16:26:07.835002-07:00,2233.2,588.3,1661.5,1708.1,1540.3,1357.6,1368.5,1706.2,3422.5,3428.6,2175.8,1725.3,1440.5,3423.7,1462.6,2034.4,3422.5,3423.7,684.8,1325.0,838.6,551.4,1596.4,2069.5,3432.2,3431.0,870.5,1101.7,1401.2,1994.5,1719.6,1073.8,22.0,22.0,-2.0,6801.0,10396.0,-9188.0,-5451.0,141.0,-36.0,115.0,0.0,1.0,5.0,6954.0,9630.0,-8126.0,-7830.0,166.0,-7.0,-31.0,1.0
2022-05-23 16:26:07.865126-07:00,2233.2,588.3,1673.8,1711.0,1540.3,1354.9,1349.4,1699.5,3422.5,3428.6,2175.8,1710.0,1440.5,3432.2,1463.5,2024.4,3432.2,3429.8,676.6,1325.0,838.6,544.2,1596.4,2069.5,3427.4,3435.8,866.3,1101.7,1394.8,1999.5,1719.6,1073.8,11.0,19.0,11.0,6787.0,10393.0,-9214.0,-5429.0,-37.0,-4.0,-47.0,0.0,3.0,16.0,6936.0,9644.0,-8135.0,-7820.0,-47.0,1.0,-11.0,1.0
2022-05-23 16:26:07.895066-07:00,2225.0,584.3,1665.3,1711.0,1537.6,1354.9,1349.4,1699.5,3427.4,3427.4,2151.4,1710.0,1437.8,3432.2,1463.5,2024.4,3432.2,3429.8,676.6,1311.5,838.6,545.8,1597.4,2071.5,3427.4,3435.8,866.3,1100.8,1394.8,1997.5,1732.0,1071.2,0.0,-20.0,5.0,6786.0,10402.0,-9203.0,-5431.0,84.0,24.0,22.0,-12.0,-6.0,17.0,6936.0,9648.0,-8128.0,-7822.0,86.0,27.0,-15.0,1.0
2022-05-23 16:26:07.955008-07:00,2225.0,584.3,1665.3,1702.4,1537.6,1360.3,1354.0,1701.4,3427.4,3427.4,2151.4,1706.2,1437.8,3427.4,1446.0,2022.4,3429.8,3422.5,669.3,1311.5,840.3,545.8,1597.4,2071.5,3427.4,3427.4,863.7,1100.8,1394.8,1997.5,1732.0,1071.2,8.0,0.0,-8.0,6778.0,10411.0,-9218.0,-5397.0,32.0,31.0,40.0,-11.0,-3.0,1.0,6919.0,9671.0,-8134.0,-7802.0,37.0,22.0,7.0,1.0
2022-05-23 16:26:08.015132-07:00,2221.9,588.3,1655.8,1702.4,1528.3,1360.3,1354.0,1701.4,3416.5,3424.9,2155.5,1706.2,1443.3,3427.4,1446.0,2022.4,3429.8,3422.5,669.3,1321.4,840.3,545.0,1583.3,2079.5,3427.4,3427.4,863.7,1098.2,1394.8,1980.6,1719.6,1076.4,19.0,-12.0,-10.0,6787.0,10406.0,-9223.0,-5386.0,-5.0,7.0,27.0,-7.0,2.0,-6.0,6923.0,9674.0,-8135.0,-7793.0,8.0,22.0,19.0,1.0
2022-05-23 16:26:08.045166-07:00,2221.9,588.3,1655.8,1710.0,1528.3,1351.2,1354.9,1705.3,3416.5,3424.9,2155.5,1703.3,1443.3,3426.2,1450.6,2021.4,3421.3,3420.1,674.2,1321.4,843.6,545.0,1583.3,2079.5,3433.4,3424.9,862.1,1098.2,1390.3,1980.6,1719.6,1076.4,22.0,11.0,-6.0,6796.0,10399.0,-9231.0,-5375.0,-20.0,0.0,21.0,7.0,3.0,5.0,6930.0,9673.0,-8139.0,-7785.0,-13.0,-8.0,16.0,1.0
2022-05-23 16:26:08.165194-07:00,2234.2,589.1,1657.7,1710.0,1518.0,1351.2,1354.9,1705.3,3429.8,3429.8,2149.3,1703.3,1439.6,3426.2,1450.6,2021.4,3421.3,3420.1,674.2,1323.2,843.6,544.2,1573.9,2074.5,3433.4,3424.9,862.1,1097.3,1390.3,1991.5,1718.6,1073.8,26.0,21.0,12.0,6803.0,10387.0,-9235.0,-5384.0,-52.0,-31.0,-26.0,12.0,8.0,5.0,6939.0,9664.0,-8136.0,-7791.0,-59.0,-9.0,6.0,1.0
2022-05-23 16:26:08.167315-07:00,2234.2,589.1,1657.7,1707.2,1507.8,1357.6,1354.9,1696.7,3429.8,3429.8,2149.3,1698.6,1444.2,3422.5,1447.9,2018.4,3428.6,3424.9,672.5,1319.6,837.7,544.2,1573.9,2074.5,3426.2,3428.6,865.4,1088.6,1387.5,1991.5,1718.6,1073.8,7.0,-14.0,8.0,6812.0,10382.0,-9219.0,-5408.0,-15.0,-1.0,-29.0,-2.0,-7.0,9.0,6954.0,9653.0,-8125.0,-7802.0,-8.0,-3.0,5.0,1.0
2022-05-23 16:26:08.195142-07:00,2221.9,573.8,1652.0,1701.4,1507.8,1357.6,1354.9,1696.7,3429.8,3429.8,2140.2,1696.7,1444.2,3422.5,1447.9,2018.4,3428.6,3424.9,672.5,1319.6,838.6,543.4,1575.8,2079.5,3426.2,3428.6,865.4,1088.6,1385.7,1981.6,1716.7,1072.1,-3.0,0.0,-6.0,6817.0,10388.0,-9211.0,-5405.0,16.0,42.0,-1.0,-15.0,6.0,11.0,6953.0,9654.0,-8123.0,-7804.0,26.0,18.0,2.0,1.0
2022-05-23 16:26:08.255043-07:00,2221.9,573.8,1652.0,1701.4,1492.1,1347.6,1344.0,1692.9,3429.8,3429.8,2140.2,1696.7,1435.0,3423.7,1449.7,2015.4,3429.8,3424.9,673.3,1319.6,838.6,543.4,1575.8,2079.5,3434.6,3440.7,841.9,1091.2,1385.7,1981.6,1716.7,1072.1,16.0,4.0,-8.0,6821.0,10394.0,-9206.0,-5395.0,-12.0,10.0,-14.0,-2.0,0.0,1.0,6956.0,9657.0,-8118.0,-7803.0,-41.0,-3.0,-3.0,1.0
2022-05-23 16:26:08.315304-07:00,2208.6,572.2,1641.6,1698.6,1492.1,1347.6,1344.0,1692.9,3428.6,3429.8,2140.2,1699.5,1435.0,3423.7,1449.7,2015.4,3429.8,3424.9,673.3,1319.6,837.7,544.2,1582.4,2075.5,3434.6,3440.7,841.9,1091.2,1385.7,1977.6,1713.8,1073.8,31.0,46.0,-8.0,6827.0,10401.0,-9181.0,-5418.0,-105.0,4.0,-122.0,-4.0,4.0,-15.0,6982.0,9633.0,-8099.0,-7830.0,-438.0,-68.0,43.0,1.0
2022-05-23 16:26:08.345666-07:00,2208.6,572.2,1641.6,1698.6,1526.4,1354.0,1341.3,1695.7,3428.6,3429.8,2140.2,1699.5,1445.1,3427.4,1450.6,2019.4,3423.7,3427.4,679.9,1319.6,837.7,544.2,1582.4,2075.5,3418.9,3424.9,870.5,1091.2,1385.7,1977.6,1713.8,1073.8,133.0,432.0,-87.0,6967.0,10451.0,-8834.0,-5711.0,-1766.0,305.0,-1537.0,0.0,176.0,-97.0,7338.0,9318.0,-7846.0,-8137.0,-3047.0,-201.0,154.0,1.0
2022-05-23 16:26:08.405098-07:00,2219.8,590.7,1659.6,1696.7,1526.4,1354.0,1341.3,1695.7,3427.4,3427.4,2139.2,1694.8,1445.1,3427.4,1450.6,2022.4,3429.8,3427.4,679.9,1319.6,838.6,549.0,1589.9,2066.5,3428.6,3424.9,870.5,1091.2,1388.5,2003.5,1718.6,1069.5,8.0,-156.0,-139.0,7455.0,10479.0,-7586.0,-6745.0,-3043.0,173.0,-2765.0,4.0,-49.0,-12.0,8094.0,8565.0,-7169.0,-8842.0,-2966.0,-269.0,-55.0,1.0
2022-05-23 16:26:08.465197-07:00,2203.4,590.7,1659.6,1696.7,1529.2,1354.9,1348.5,1695.7,3441.9,3427.4,2139.2,1694.8,1438.7,3426.2,1486.6,2022.4,3429.8,3420.1,679.1,1322.3,838.6,549.0,1589.9,2052.4,3428.6,3428.6,859.5,1092.1,1388.5,2003.5,1718.6,1064.3,46.0,-196.0,-31.0,7595.0,10474.0,-6583.0,-7597.0,-1586.0,-58.0,-1805.0,11.0,-34.0,-11.0,8542.0,7986.0,-6634.0,-9364.0,-1481.0,-299.0,-177.0,1.0
2022-05-23 16:26:08.495164-07:00,2203.4,578.6,1662.5,1691.0,1529.2,1354.9,1348.5,1679.5,3441.9,3437.0,2134.1,1682.4,1438.7,3426.2,1486.6,2021.4,3429.8,3420.1,679.1,1322.3,841.9,547.4,1588.9,2052.4,3423.7,3428.6,859.5,1092.1,1388.5,2007.4,1753.1,1064.3,15.0,-5.0,-46.0,7582.0,10464.0,-6142.0,-7982.0,-446.0,-228.0,-681.0,-7.0,-41.0,-6.0,8669.0,7698.0,-6387.0,-9656.0,-850.0,-304.0,-145.0,1.0
2022-05-23 16:26:08.555077-07:00,2212.7,578.6,1662.5,1691.0,1508.8,1355.8,1458.9,1679.5,3434.6,3437.0,2134.1,1682.4,1438.7,3426.2,1493.0,2021.4,3429.8,3431.0,679.9,1326.8,841.9,547.4,1588.9,2056.4,3423.7,3428.6,861.2,1093.8,1388.5,2007.4,1753.1,1059.9,34.0,-50.0,5.0,7594.0,10326.0,-5794.0,-8401.0,-1320.0,-443.0,-1029.0,-14.0,-66.0,1.0,8839.0,7344.0,-6138.0,-9935.0,-1584.0,-388.0,26.0,1.0
2022-05-23 16:26:08.585400-07:00,2212.7,584.3,1668.2,1696.7,1508.8,1355.8,1458.9,1676.7,3434.6,3423.7,2117.9,1674.8,1438.7,3426.2,1493.0,2014.4,3429.8,3431.0,679.9,1326.8,836.9,546.6,1582.4,2056.4,3427.4,3428.6,861.2,1093.8,1383.9,2014.4,1766.6,1059.9,-40.0,-101.0,9.0,7640.0,10160.0,-5345.0,-8848.0,-888.0,-271.0,-705.0,-20.0,-34.0,49.0,9049.0,6919.0,-5862.0,-10213.0,-936.0,-278.0,47.0,1.0
2022-05-23 16:26:08.645501-07:00,2213.7,587.5,1668.2,1696.7,1546.9,1364.8,1463.5,1676.7,3426.2,3427.4,2117.9,1674.8,1437.8,3426.2,1482.9,2014.4,3429.8,3427.4,676.6,1328.7,836.9,546.6,1576.8,2068.5,3427.4,3426.2,867.9,1093.8,1383.9,2014.4,1775.2,1060.8,5.0,-44.0,48.0,7669.0,10015.0,-5103.0,-9125.0,-640.0,-287.0,-520.0,15.0,-58.0,44.0,9180.0,6641.0,-5707.0,-10368.0,-781.0,-212.0,72.0,1.0
2022-05-23 16:26:08.705162-07:00,2213.7,587.5,1695.7,1692.9,1546.9,1364.8,1450.6,1668.2,3426.2,3427.4,2125.0,1679.5,1437.8,3426.2,1490.3,2010.4,3421.3,3429.8,676.6,1328.7,838.6,547.4,1576.8,2068.5,3428.6,3422.5,867.9,1093.8,1383.9,2013.4,1775.2,1060.8,51.0,13.0,11.0,7619.0,9930.0,-4930.0,-9353.0,-404.0,-328.0,-369.0,22.0,28.0,-14.0,9281.0,6437.0,-5568.0,-10482.0,-621.0,-128.0,57.0,1.0
2022-05-23 16:26:08.735062-07:00,2209.6,585.1,1695.7,1692.9,1714.8,1409.4,1450.6,1668.2,3428.6,3426.2,2125.0,1679.5,1433.2,3433.4,1490.3,2010.4,3421.3,3429.8,674.2,1326.8,838.6,547.4,1576.8,2057.4,3428.6,3422.5,896.6,1093.8,1383.9,2013.4,1784.9,1056.5,27.0,-119.0,12.0,7715.0,9748.0,-4774.0,-9545.0,-683.0,-240.0,-4.0,29.0,-46.0,-1.0,9407.0,6220.0,-5440.0,-10567.0,-501.0,-128.0,155.0,1.0
2022-05-23 16:26:08.825044-07:00,2209.6,585.1,1719.6,1703.3,1714.8,1409.4,1453.4,1667.2,3428.6,3426.2,2127.0,1672.9,1433.2,3433.4,1484.7,2009.4,3427.4,3423.7,674.2,1326.8,836.9,547.4,1576.8,2057.4,3426.2,3427.4,896.6,1093.8,1384.8,2009.4,1784.9,1056.5,47.0,105.0,-13.0,7782.0,9603.0,-4868.0,-9590.0,95.0,-354.0,396.0,-21.0,53.0,-20.0,9423.0,6163.0,-5479.0,-10566.0,145.0,-111.0,80.0,1.0
2022-05-23 16:26:08.855114-07:00,2194.2,579.4,1719.6,1703.3,1599.3,1424.1,1453.4,1667.2,3426.2,3429.8,2127.0,1672.9,1438.7,3421.3,1484.7,2009.4,3427.4,3423.7,675.0,1325.0,836.9,547.4,1562.7,2062.5,3426.2,3427.4,900.0,1089.5,1384.8,2009.4,1763.7,1053.0,8.0,32.0,2.0,7844.0,9465.0,-4935.0,-9642.0,-359.0,-253.0,61.0,-21.0,-14.0,14.0,9446.0,6082.0,-5493.0,-10585.0,-283.0,-151.0,72.0,1.0
2022-05-23 16:26:08.885231-07:00,2194.2,579.4,1689.1,1689.1,1599.3,1424.1,1443.3,1678.6,3426.2,3429.8,2110.8,1666.3,1438.7,3421.3,1477.3,1996.5,3424.9,3422.5,675.0,1325.0,831.1,545.0,1562.7,2062.5,3424.9,3431.0,900.0,1089.5,1376.6,1994.5,1763.7,1053.0,7.0,13.0,-2.0,7865.0,9350.0,-4905.0,-9752.0,-222.0,-299.0,-106.0,2.0,-30.0,18.0,9502.0,5962.0,-5425.0,-10638.0,-414.0,-37.0,56.0,1.0
2022-05-23 16:26:08.944815-07:00,2216.8,580.2,1666.3,1689.1,1530.1,1396.7,1443.3,1678.6,3427.4,3429.8,2107.8,1666.3,1434.1,3432.2,1477.3,1996.5,3424.9,3422.5,676.6,1315.1,831.1,545.0,1559.9,2067.5,3424.9,3431.0,886.5,1086.8,1376.6,1990.5,1760.8,1047.8,15.0,83.0,-30.0,7800.0,9248.0,-4814.0,-9945.0,-404.0,-282.0,-605.0,2.0,24.0,7.0,9613.0,5789.0,-5274.0,-10709.0,-825.0,-44.0,80.0,1.0
2022-05-23 16:26:09.005033-07:00,2216.8,580.2,1666.3,1699.5,1530.1,1386.6,1455.2,1761.8,3427.4,3429.8,2107.8,1673.8,1434.1,3421.3,1491.2,2020.4,3426.2,3420.1,671.7,1315.1,834.4,545.0,1559.9,2067.5,3429.8,3423.7,879.7,1086.8,1379.4,1990.5,1760.8,1047.8,69.0,64.0,36.0,7666.0,9139.0,-4576.0,-10256.0,-452.0,-436.0,-765.0,0.0,51.0,-14.0,9769.0,5506.0,-5017.0,-10840.0,-971.0,-64.0,39.0,1.0
2022-05-23 16:26:09.035156-07:00,2204.5,572.2,1656.8,1699.5,1489.3,1386.6,1455.2,1761.8,3422.5,3418.9,2095.7,1673.8,1437.8,3421.3,1491.2,2020.4,3426.2,3420.1,671.7,1317.8,834.4,540.2,1587.1,2058.4,3429.8,3423.7,879.7,1082.5,1379.4,1990.5,1749.3,1055.6,19.0,40.0,27.0,7588.0,9033.0,-4262.0,-10540.0,-690.0,-143.0,-763.0,21.0,3.0,35.0,9929.0,5209.0,-4732.0,-10970.0,-1057.0,-43.0,29.0,1.0
2022-05-23 16:26:09.095213-07:00,2204.5,572.2,1656.8,1685.3,1489.3,1375.7,1470.0,1804.2,3422.5,3418.9,2095.7,1659.6,1437.8,3431.0,1480.1,2006.4,3412.9,3427.4,678.2,1317.8,833.6,540.2,1587.1,2058.4,3418.9,3432.2,872.1,1082.5,1383.9,1990.5,1749.3,1055.6,4.0,99.0,-60.0,7520.0,8921.0,-3918.0,-10814.0,-884.0,-260.0,-873.0,-1.0,59.0,2.0,10090.0,4903.0,-4408.0,-11097.0,-1378.0,19.0,68.0,1.0
2022-05-23 16:26:09.245561-07:00,2196.3,570.6,1605.8,1685.3,1461.7,1375.7,1470.0,1804.2,3428.6,3422.5,2092.6,1659.6,1441.5,3431.0,1480.1,2006.4,3412.9,3427.4,678.2,1306.1,833.6,544.2,1560.9,2054.4,3418.9,3432.2,872.1,1079.9,1383.9,1992.5,1745.4,1047.8,-20.0,-22.0,-110.0,7468.0,8631.0,-3349.0,-11267.0,-1604.0,-570.0,-1357.0,-27.0,-33.0,-71.0,10368.0,4349.0,-3869.0,-11272.0,-2227.0,-87.0,172.0,1.0
2022-05-23 16:26:09.248468-07:00,2196.3,570.6,1605.8,1658.7,1436.0,1381.2,1452.5,1768.5,3428.6,3422.5,2092.6,1657.7,1438.7,3427.4,1478.3,2003.5,3418.9,3421.3,680.7,1302.5,836.1,544.2,1560.9,2054.4,3438.2,3417.7,860.4,1093.8,1377.5,1992.5,1745.4,1047.8,-21.0,-189.0,-1.0,7405.0,8347.0,-2829.0,-11659.0,-801.0,-252.0,-576.0,-39.0,-17.0,12.0,10572.0,3828.0,-3411.0,-11419.0,-1042.0,-149.0,75.0,1.0
2022-05-23 16:26:09.249289-07:00,2182.0,577.8,1544.1,1615.2,1436.0,1381.2,1452.5,1768.5,3431.0,3431.0,2095.7,1646.4,1438.7,3427.4,1478.3,2003.5,3418.9,3421.3,680.7,1302.5,832.7,538.6,1553.4,2053.4,3438.2,3417.7,860.4,1093.8,1367.6,1999.5,1768.5,1049.6,-2.0,44.0,82.0,7431.0,8242.0,-2769.0,-11731.0,24.0,-128.0,9.0,12.0,-11.0,64.0,10615.0,3703.0,-3329.0,-11444.0,-98.0,-5.0,20.0,1.0
2022-05-23 16:26:09.305327-07:00,2182.0,577.8,1544.1,1615.2,1408.5,1351.2,1437.8,1733.9,3431.0,3431.0,2095.7,1646.4,0.0,3422.5,1470.9,1992.5,3426.2,3428.6,675.8,1303.4,832.7,538.6,1553.4,2053.4,3431.0,3439.5,856.2,1092.1,1367.6,1999.5,1768.5,1049.6,32.0,-12.0,82.0,7386.0,8242.0,-2727.0,-11769.0,-140.0,62.0,-183.0,37.0,-48.0,27.0,10638.0,3677.0,-3272.0,-11448.0,-182.0,80.0,42.0,1.0
2022-05-23 16:26:09.425048-07:00,2163.6,590.7,1518.0,1605.8,1408.5,1351.2,1437.8,1733.9,3420.1,3428.6,2086.6,1648.3,0.0,3422.5,1470.9,1992.5,3426.2,3428.6,675.8,1303.4,836.1,542.6,1541.3,2067.5,3431.0,3439.5,856.2,1092.1,1375.7,1988.5,1755.0,1046.1,36.0,-57.0,57.0,7426.0,8318.0,-2762.0,-11682.0,316.0,269.0,359.0,20.0,-44.0,19.0,10666.0,3757.0,-3288.0,-11390.0,412.0,190.0,145.0,1.0
2022-05-23 16:26:09.426146-07:00,2163.6,590.7,1518.0,1605.8,1397.6,1368.5,1404.0,1725.3,3420.1,3428.6,2086.6,1648.3,0.0,3421.3,1467.2,1998.5,3421.3,3426.2,675.0,1299.8,836.1,542.6,1541.3,2067.5,3428.6,3432.2,857.0,1086.8,1375.7,1988.5,1755.0,1046.1,8.0,-73.0,87.0,7554.0,8450.0,-2911.0,-11467.0,297.0,448.0,695.0,9.0,-63.0,41.0,10688.0,3979.0,-3433.0,-11251.0,760.0,270.0,277.0,1.0
2022-05-23 16:26:09.455522-07:00,2144.3,605.2,1537.6,1597.4,1397.6,1368.5,1404.0,1725.3,3428.6,3427.4,2073.5,1645.4,0.0,3421.3,1467.2,1998.5,3421.3,3426.2,675.0,1299.8,830.2,552.2,1529.2,2062.5,3428.6,3432.2,857.0,1086.8,1368.5,2021.4,1776.2,1035.7,14.0,-92.0,40.0,7754.0,8687.0,-3183.0,-11077.0,984.0,775.0,1194.0,-7.0,-34.0,42.0,10677.0,4385.0,-3724.0,-11016.0,1574.0,370.0,299.0,1.0
2022-05-23 16:26:09.484963-07:00,2133.1,605.2,1537.6,1597.4,1378.5,1342.2,1393.9,1713.8,3428.6,3427.4,2073.5,1645.4,0.0,3418.9,1616.2,2072.5,3418.9,3423.7,686.4,1301.6,830.2,552.2,1529.2,2063.5,3429.8,3427.4,878.0,1086.0,1368.5,2021.4,1776.2,1034.9,45.0,-68.0,-118.0,7904.0,9029.0,-3875.0,-10461.0,1915.0,487.0,1850.0,-16.0,-15.0,-66.0,10523.0,5071.0,-4226.0,-10683.0,2437.0,433.0,169.0,1.0
2022-05-23 16:26:09.545078-07:00,2133.1,609.2,1524.5,1573.0,1378.5,1342.2,1393.9,1675.7,3428.6,3429.8,2188.1,1674.8,0.0,3418.9,1616.2,2101.7,3422.5,3423.7,686.4,1301.6,828.5,545.0,1547.8,2063.5,3437.0,3427.4,878.0,1086.0,1358.5,2224.0,1904.6,1034.9,49.0,168.0,-133.0,7900.0,9360.0,-4813.0,-9760.0,1911.0,220.0,1522.0,-15.0,75.0,-87.0,10221.0,5893.0,-4861.0,-10277.0,2429.0,359.0,98.0,1.0
2022-05-23 16:26:09.605185-07:00,2104.8,609.2,1524.5,1573.0,1372.1,1326.8,1372.1,1675.7,3431.0,3429.8,2188.1,1674.8,0.0,3424.9,1699.5,2101.7,3422.5,3418.9,682.3,1306.1,828.5,545.0,1547.8,2056.4,3437.0,3421.3,867.9,1080.8,1358.5,2224.0,1904.6,1038.3,82.0,130.0,-120.0,7865.0,9478.0,-5324.0,-9402.0,840.0,-16.0,628.0,-20.0,63.0,-84.0,10014.0,6354.0,-5242.0,-10014.0,1092.0,107.0,63.0,1.0
2022-05-23 16:26:09.635078-07:00,2104.8,606.0,1492.1,1583.3,1372.1,1326.8,1372.1,1670.1,3431.0,3418.9,2131.1,1644.5,0.0,3424.9,1699.5,2024.4,3422.5,3418.9,682.3,1306.1,835.2,548.2,1527.3,2056.4,3428.6,3421.3,867.9,1080.8,1360.3,2134.1,1796.5,1038.3,64.0,128.0,-34.0,7785.0,9576.0,-5604.0,-9205.0,550.0,59.0,297.0,5.0,67.0,-32.0,9879.0,6582.0,-5455.0,-9887.0,702.0,2.0,4.0,1.0
2022-05-23 16:26:09.755134-07:00,2092.6,606.0,1492.1,1583.3,1365.7,1310.6,1368.5,1670.1,3424.9,3418.9,2131.1,1644.5,0.0,3426.2,1638.8,2024.4,3422.5,3429.8,678.2,1299.0,835.2,548.2,1527.3,2049.4,3428.6,3437.0,861.2,1099.9,1360.3,2134.1,1796.5,1036.6,32.0,63.0,-24.0,7760.0,9601.0,-5703.0,-9139.0,93.0,-72.0,84.0,13.0,20.0,-9.0,9815.0,6662.0,-5551.0,-9844.0,137.0,-58.0,-4.0,1.0
2022-05-23 16:26:09.757758-07:00,2092.6,597.9,1459.8,1552.5,1365.7,1310.6,1379.4,1706.2,3424.9,3427.4,2107.8,1625.6,0.0,3426.2,1585.2,1970.7,3422.5,3418.9,678.2,1299.0,831.9,544.2,1500.4,2049.4,3422.5,3418.9,861.2,1099.9,1354.9,2049.4,1720.5,1036.6,16.0,-33.0,-8.0,7760.0,9547.0,-5746.0,-9167.0,-32.0,-214.0,79.0,0.0,-32.0,2.0,9808.0,6633.0,-5573.0,-9858.0,-57.0,-96.0,40.0,1.0
2022-05-23 16:26:09.785341-07:00,2086.6,596.3,1459.8,1552.5,1360.3,1321.4,1379.4,1706.2,3421.3,3428.6,2107.8,1625.6,0.0,3429.8,1585.2,1970.7,3422.5,3418.9,680.7,1301.6,831.9,544.2,1481.0,2076.5,3422.5,3418.9,853.7,1098.2,1354.9,2049.4,1646.4,1032.3,-13.0,-47.0,-69.0,7673.0,9513.0,-5922.0,-9165.0,828.0,-594.0,341.0,-6.0,-26.0,18.0,9802.0,6627.0,-5616.0,-9844.0,166.0,-23.0,44.0,1.0
2022-05-23 16:26:09.845098-07:00,2086.6,596.3,1460.8,1559.0,1360.3,1321.4,1383.0,1711.0,3421.3,3428.6,2108.8,1627.5,0.0,3429.8,1483.8,1916.4,3418.9,3434.6,680.7,1301.6,833.6,549.8,1481.0,2076.5,3418.9,3439.5,853.7,1098.2,1363.9,1968.7,1646.4,1032.3,23.0,-81.0,14.0,7426.0,9489.0,-6392.0,-9077.0,1359.0,-504.0,681.0,-23.0,-25.0,-13.0,9698.0,6764.0,-5759.0,-9771.0,941.0,-32.0,-55.0,1.0
2022-05-23 16:26:09.905174-07:00,2081.6,595.5,1460.8,1559.0,1363.0,1323.2,1383.0,1711.0,3420.1,3422.5,2108.8,1627.5,1431.4,3418.9,1483.8,1916.4,3418.9,3434.6,671.7,1305.2,833.6,549.8,1428.6,2066.5,3418.9,3439.5,850.3,1095.6,1363.9,1968.7,1555.3,1021.1,-3.0,-87.0,5.0,7130.0,9572.0,-7120.0,-8677.0,2256.0,-289.0,1226.0,-15.0,-6.0,10.0,9390.0,7187.0,-6160.0,-9522.0,1992.0,63.0,-48.0,1.0
2022-05-23 16:26:09.935100-07:00,2081.6,595.5,1394.8,1541.3,1363.0,1323.2,1356.7,1703.3,3420.1,3422.5,2049.4,1581.4,1431.4,3418.9,1354.0,1822.6,3414.1,3422.5,671.7,1305.2,836.1,555.4,1428.6,2066.5,3433.4,3432.2,850.3,1095.6,1360.3,1890.9,1555.3,1021.1,47.0,141.0,-32.0,6790.0,9681.0,-7950.0,-8088.0,1677.0,-132.0,982.0,-20.0,46.0,-13.0,9005.0,7680.0,-6625.0,-9191.0,1733.0,12.0,-25.0,1.0
2022-05-23 16:26:09.995723-07:00,2077.5,592.3,1394.8,1541.3,1335.0,1299.8,1356.7,1703.3,3431.0,3424.9,2049.4,1581.4,1441.5,3427.4,1354.0,1822.6,3414.1,3422.5,679.1,1294.5,836.1,555.4,1384.8,2031.4,3433.4,3432.2,861.2,1097.3,1360.3,1890.9,1500.4,1036.6,-10.0,121.0,-26.0,6651.0,9703.0,-8375.0,-7740.0,437.0,-126.0,349.0,6.0,29.0,10.0,8784.0,7927.0,-6885.0,-9002.0,623.0,-10.0,28.0,1.0
2022-05-23 16:26:10.055062-07:00,2077.5,592.3,1345.8,1521.8,1335.0,1279.2,1348.5,1664.4,3431.0,3424.9,1960.8,1544.1,1441.5,3426.2,1300.7,1781.0,3434.6,3429.8,681.5,1294.5,840.3,542.6,1384.8,2031.4,3429.8,3427.4,872.1,1097.3,1361.2,1837.2,1500.4,1036.6,66.0,75.0,-10.0,6623.0,9668.0,-8460.0,-7715.0,-299.0,-8.0,-102.0,28.0,31.0,-23.0,8758.0,7948.0,-6933.0,-8972.0,-135.0,-32.0,38.0,1.0
2022-05-23 16:26:10.085012-07:00,2069.5,581.0,1335.0,1521.8,1311.5,1279.2,1348.5,1664.4,3424.9,3429.8,1919.3,1544.1,1422.2,3426.2,1300.7,1781.0,3434.6,3429.8,681.5,1295.4,840.3,545.8,1364.8,2014.4,3429.8,3427.4,872.1,1084.2,1361.2,1819.7,1486.6,1035.7,33.0,-12.0,-24.0,6694.0,9629.0,-8347.0,-7827.0,-354.0,-46.0,-126.0,15.0,14.0,5.0,8817.0,7870.0,-6879.0,-9024.0,-289.0,-29.0,21.0,1.0
2022-05-23 16:26:10.144996-07:00,2069.5,581.0,1335.0,1507.8,1311.5,1273.0,1339.5,1654.9,3424.9,3429.8,1919.3,1527.3,1422.2,3414.1,1273.9,1748.3,3421.3,3417.7,679.9,1295.4,838.6,545.8,1364.8,2014.4,3431.0,3428.6,858.7,1084.2,1347.6,1819.7,1486.6,1035.7,25.0,-8.0,-9.0,6740.0,9568.0,-8270.0,-7941.0,-206.0,-123.0,-99.0,-2.0,5.0,0.0,8864.0,7801.0,-6831.0,-9074.0,-194.0,-40.0,4.0,1.0
2022-05-23 16:26:10.205050-07:00,2065.5,588.3,1307.0,1507.8,1287.3,1273.0,1339.5,1654.9,3426.2,3423.7,1879.1,1527.3,1425.0,3414.1,1273.9,1748.3,3421.3,3417.7,679.9,1298.1,838.6,545.0,1359.4,2000.5,3431.0,3428.6,858.7,1080.8,1347.6,1809.0,1462.6,1028.8,15.0,8.0,-2.0,6736.0,9541.0,-8229.0,-8020.0,-106.0,-57.0,-94.0,-13.0,14.0,-4.0,8885.0,7763.0,-6806.0,-9105.0,-88.0,-25.0,-9.0,1.0
2022-05-23 16:26:10.235093-07:00,2065.5,588.3,1307.0,1502.3,1287.3,1260.4,1330.5,1642.6,3426.2,3423.7,1879.1,1505.1,1425.0,3433.4,1263.1,1740.6,3426.2,3423.7,684.0,1298.1,834.4,545.0,1359.4,2000.5,3429.8,3429.8,844.4,1080.8,1339.5,1809.0,1462.6,1028.8,-3.0,-13.0,-20.0,6737.0,9536.0,-8213.0,-8042.0,74.0,-16.0,7.0,-29.0,14.0,12.0,8883.0,7757.0,-6800.0,-9117.0,32.0,-19.0,-23.0,1.0
2022-05-23 16:26:10.295012-07:00,2044.4,580.2,1302.5,1495.8,1281.0,1260.4,1330.5,1642.6,3424.9,3428.6,1853.7,1492.1,0.0,3433.4,1263.1,1740.6,3426.2,3423.7,684.0,1293.6,842.8,543.4,1345.8,1988.5,3429.8,3429.8,844.4,1068.6,1338.6,1795.5,1465.4,1021.9,6.0,9.0,-14.0,6708.0,9533.0,-8239.0,-8043.0,6.0,-124.0,-21.0,0.0,3.0,11.0,8866.0,7757.0,-6805.0,-9130.0,-15.0,-42.0,-24.0,1.0
2022-05-23 16:26:10.385089-07:00,2044.4,580.2,1302.5,1495.8,1283.7,1263.1,1329.6,1646.4,3424.9,3428.6,1853.7,1492.1,0.0,3417.7,1252.4,1734.9,3424.9,3426.2,673.3,1295.4,842.8,543.4,1345.8,1988.5,3428.6,3426.2,841.1,1062.5,1338.6,1795.5,1465.4,1021.9,29.0,17.0,16.0,6675.0,9523.0,-8249.0,-8071.0,56.0,-9.0,-63.0,16.0,22.0,17.0,8855.0,7752.0,-6809.0,-9141.0,12.0,-19.0,-16.0,1.0
2022-05-23 16:26:10.415680-07:00,2043.4,581.0,1293.6,1494.9,1283.7,1263.1,1329.6,1646.4,3432.2,3422.5,1827.5,1490.3,0.0,3417.7,1252.4,1734.9,3424.9,3426.2,673.3,1295.4,837.7,549.8,1343.1,1980.6,3428.6,3426.2,841.1,1062.5,1341.3,1789.7,1452.5,1031.4,15.0,-1.0,3.0,6669.0,9522.0,-8254.0,-8072.0,-13.0,-36.0,57.0,4.0,3.0,15.0,8848.0,7750.0,-6814.0,-9146.0,15.0,-19.0,-5.0,1.0
2022-05-23 16:26:10.445118-07:00,2043.4,581.0,1293.6,1494.9,1264.9,1259.6,1321.4,1623.7,3432.2,3422.5,1827.5,1490.3,0.0,3422.5,1253.3,1732.0,3423.7,3420.1,674.2,1297.2,837.7,549.8,1343.1,1980.6,3432.2,3423.7,840.3,1053.9,1341.3,1789.7,1452.5,1031.4,-2.0,2.0,-24.0,6675.0,9507.0,-8275.0,-8064.0,2.0,-27.0,51.0,-14.0,2.0,8.0,8837.0,7754.0,-6827.0,-9143.0,29.0,-21.0,-2.0,1.0
2022-05-23 16:26:10.505064-07:00,2041.4,580.2,1294.5,1487.5,1264.9,1259.6,1321.4,1623.7,3426.2,3421.3,1812.9,1474.6,0.0,3422.5,1253.3,1732.0,3423.7,3420.1,674.2,1297.2,835.2,545.8,1341.3,1968.7,3432.2,3423.7,840.3,1053.9,1333.2,1780.1,1447.0,1028.0,6.0,-19.0,-16.0,6668.0,9471.0,-8311.0,-8074.0,84.0,-171.0,69.0,-25.0,-22.0,-3.0,8834.0,7756.0,-6825.0,-9147.0,20.0,2.0,-8.0,1.0
2022-05-23 16:26:10.535173-07:00,2038.4,580.2,1294.5,1487.5,1264.0,1256.0,1315.1,1628.4,3429.8,3421.3,1812.9,1474.6,0.0,3417.7,1241.7,1727.2,3422.5,3420.1,675.0,1284.6,835.2,545.8,1341.3,1961.8,3427.4,3426.2,843.6,1059.9,1333.2,1780.1,1447.0,1024.5,16.0,32.0,0.0,6635.0,9456.0,-8351.0,-8078.0,-46.0,-18.0,-13.0,-11.0,33.0,3.0,8827.0,7763.0,-6825.0,-9147.0,-31.0,-2.0,-10.0,1.0
2022-05-23 16:26:10.595089-07:00,2038.4,574.6,1277.4,1485.6,1264.0,1256.0,1315.1,1600.2,3429.8,3426.2,1803.2,1470.0,0.0,3417.7,1241.7,1713.8,3420.1,3420.1,675.0,1284.6,838.6,548.2,1332.3,1961.8,3428.6,3426.2,843.6,1059.9,1324.1,1768.5,1439.6,1024.5,25.0,17.0,-1.0,6640.0,9447.0,-8347.0,-8090.0,6.0,-38.0,-15.0,17.0,0.0,18.0,8826.0,7763.0,-6818.0,-9154.0,9.0,3.0,-32.0,1.0
2022-05-23 16:26:10.654789-07:00,2036.4,574.6,1277.4,1485.6,1252.4,1253.3,1311.5,1600.2,3429.8,3426.2,1803.2,1470.0,0.0,3431.0,1238.2,1713.8,3420.1,3423.7,675.0,1284.6,838.6,548.2,1332.3,1953.9,3428.6,3428.6,849.5,1052.2,1324.1,1768.5,1439.6,1024.5,38.0,-4.0,7.0,6640.0,9432.0,-8347.0,-8107.0,-80.0,-22.0,-49.0,12.0,-8.0,-3.0,8831.0,7758.0,-6805.0,-9163.0,-66.0,10.0,-12.0,1.0
2022-05-23 16:26:10.685155-07:00,2036.4,579.4,1273.0,1491.2,1252.4,1253.3,1311.5,1601.1,3429.8,3423.7,1796.5,1474.6,0.0,3431.0,1238.2,1704.3,3420.1,3423.7,675.0,1284.6,836.9,547.4,1327.8,1953.9,3424.9,3428.6,849.5,1052.2,1326.8,1767.5,1433.2,1024.5,3.0,-4.0,-16.0,6658.0,9421.0,-8317.0,-8135.0,-142.0,-29.0,-49.0,-4.0,-15.0,11.0,8855.0,7733.0,-6783.0,-9177.0,-136.0,5.0,26.0,1.0
2022-05-23 16:26:10.745760-07:00,2028.4,579.4,1273.0,1491.2,1248.0,1246.2,1309.7,1601.1,3422.5,3423.7,1796.5,1474.6,0.0,3418.9,1234.6,1704.3,3420.1,3422.5,679.9,1290.9,836.9,547.4,1327.8,1951.9,3424.9,3429.8,837.7,1056.5,1326.8,1767.5,1433.2,1021.1,2.0,15.0,-28.0,6674.0,9394.0,-8277.0,-8194.0,-169.0,-60.0,-77.0,-20.0,16.0,-4.0,8897.0,7690.0,-6742.0,-9202.0,-179.0,10.0,19.0,1.0
2022-05-23 16:26:10.835034-07:00,2028.4,572.2,1269.4,1486.6,1248.0,1246.2,1309.7,1595.5,3422.5,3426.2,1789.7,1458.9,0.0,3418.9,1234.6,1711.9,3417.7,3422.5,679.9,1290.9,835.2,553.0,1327.8,1951.9,3428.6,3429.8,837.7,1056.5,1325.9,1766.6,1434.1,1021.1,-12.0,-7.0,-38.0,6673.0,9374.0,-8243.0,-8252.0,-119.0,-109.0,-72.0,-7.0,0.0,18.0,8924.0,7659.0,-6707.0,-9228.0,-83.0,-2.0,-18.0,1.0
2022-05-23 16:26:10.836257-07:00,2040.4,581.0,1269.4,1486.6,1231.0,1241.7,1299.8,1595.5,3429.8,3423.7,1789.7,1458.9,0.0,3432.2,1234.6,1711.9,3417.7,3422.5,679.9,1281.9,835.2,553.0,1325.0,1945.9,3428.6,3434.6,840.3,1050.4,1325.9,1766.6,1428.6,1028.8,25.0,2.0,-16.0,6623.0,9343.0,-8266.0,-8304.0,-4.0,-195.0,-53.0,-4.0,1.0,-10.0,8918.0,7657.0,-6696.0,-9243.0,-26.0,-29.0,-33.0,1.0
2022-05-23 16:26:10.895164-07:00,2040.4,581.0,1252.4,1476.4,1231.0,1241.7,1304.3,1606.8,3429.8,3423.7,1783.9,1458.9,0.0,3432.2,1227.5,1699.5,3424.9,3426.2,679.9,1281.9,841.1,553.8,1325.0,1945.9,3431.0,3418.9,840.3,1050.4,1325.0,1757.9,1428.6,1028.8,-3.0,-4.0,-21.0,6559.0,9319.0,-8295.0,-8352.0,76.0,-253.0,-62.0,-6.0,-10.0,19.0,8906.0,7653.0,-6692.0,-9262.0,5.0,-33.0,-43.0,1.0
2022-05-23 16:26:10.955036-07:00,2042.4,575.4,1252.4,1476.4,1235.5,1241.7,1304.3,1606.8,3429.8,3422.5,1783.9,1458.9,0.0,3409.3,1227.5,1699.5,3424.9,3426.2,674.2,1291.8,841.1,553.8,1323.2,1939.0,3431.0,3418.9,827.7,1056.5,1325.0,1757.9,1417.6,1028.8,43.0,28.0,12.0,6459.0,9290.0,-8355.0,-8403.0,45.0,-209.0,-55.0,-16.0,28.0,-21.0,8883.0,7654.0,-6693.0,-9281.0,-10.0,-57.0,-45.0,1.0
2022-05-23 16:26:10.985151-07:00,2042.4,575.4,1265.8,1479.2,1235.5,1241.7,1297.2,1598.3,3429.8,3422.5,1785.8,1465.4,0.0,3409.3,1225.7,1704.3,3423.7,3412.9,674.2,1291.8,841.1,549.0,1323.2,1939.0,3424.9,3434.6,827.7,1056.5,1327.8,1757.0,1417.6,1028.8,12.0,-36.0,17.0,6450.0,9272.0,-8351.0,-8433.0,-7.0,-55.0,-1.0,19.0,-34.0,22.0,8874.0,7636.0,-6692.0,-9305.0,-10.0,-47.0,-15.0,1.0
2022-05-23 16:26:11.045047-07:00,2018.4,575.4,1265.8,1479.2,1234.6,1233.7,1297.2,1598.3,3422.5,3428.6,1785.8,1465.4,0.0,3423.7,1225.7,1704.3,3423.7,3412.9,679.1,1283.7,841.1,549.0,1323.2,1939.0,3424.9,3434.6,834.4,1051.3,1327.8,1757.0,1417.6,1029.7,37.0,5.0,29.0,6433.0,9264.0,-8368.0,-8439.0,-23.0,-30.0,8.0,27.0,-6.0,18.0,8867.0,7629.0,-6706.0,-9307.0,-5.0,-28.0,19.0,1.0
2022-05-23 16:26:11.104969-07:00,2018.4,575.4,1267.6,1477.3,1234.6,1239.1,1301.6,1581.4,3422.5,3428.6,1780.1,1458.9,0.0,3429.8,1229.3,1695.7,3421.3,3423.7,680.7,1283.7,838.6,549.8,1323.2,1939.0,3439.5,3434.6,836.1,1051.3,1317.8,1757.0,1417.6,1029.7,21.0,12.0,17.0,6461.0,9247.0,-8368.0,-8435.0,17.0,43.0,33.0,13.0,0.0,14.0,8881.0,7614.0,-6717.0,-9300.0,27.0,7.0,38.0,1.0
2022-05-23 16:26:11.135274-07:00,2033.4,577.0,1252.4,1477.3,1217.7,1239.1,1301.6,1581.4,3426.2,3422.5,1778.1,1458.9,0.0,3429.8,1229.3,1695.7,3421.3,3423.7,680.7,1285.5,838.6,551.4,1325.0,1940.0,3439.5,3434.6,836.1,1044.4,1317.8,1745.4,1418.6,1025.4,3.0,30.0,-7.0,6482.0,9255.0,-8362.0,-8417.0,-18.0,60.0,1.0,-9.0,16.0,14.0,8887.0,7621.0,-6722.0,-9284.0,14.0,35.0,23.0,1.0
2022-05-23 16:26:11.195013-07:00,2033.4,577.0,1252.4,1466.3,1217.7,1246.2,1299.8,1582.4,3426.2,3422.5,1778.1,1455.2,0.0,3418.9,1246.2,1700.5,3426.2,3415.3,674.2,1285.5,836.9,551.4,1325.0,1940.0,3427.4,3417.7,830.2,1044.4,1321.4,1745.4,1418.6,1025.4,42.0,110.0,-10.0,6521.0,9258.0,-8302.0,-8443.0,-362.0,67.0,-146.0,7.0,31.0,14.0,8929.0,7601.0,-6687.0,-9285.0,-342.0,69.0,56.0,1.0
2022-05-23 16:26:11.254876-07:00,2042.4,581.0,1284.6,1466.3,1229.3,1246.2,1299.8,1582.4,3429.8,3428.6,1780.1,1455.2,0.0,3418.9,1246.2,1700.5,3426.2,3415.3,674.2,1281.0,836.9,548.2,1338.6,1927.2,3427.4,3417.7,830.2,1062.5,1321.4,1750.2,1436.9,1019.4,2.0,203.0,-104.0,6773.0,9142.0,-7833.0,-8811.0,-2324.0,122.0,-796.0,-13.0,103.0,16.0,9235.0,7266.0,-6364.0,-9480.0,-2145.0,5.0,162.0,1.0
2022-05-23 16:26:11.285634-07:00,2042.4,581.0,1284.6,1479.2,1229.3,1338.6,1301.6,1593.6,3429.8,3428.6,1780.1,1460.8,0.0,3429.8,1336.8,1740.6,3418.9,3414.1,675.0,1281.0,838.6,548.2,1338.6,1927.2,3429.8,3434.6,832.7,1062.5,1326.8,1750.2,1436.9,1019.4,-38.0,-132.0,-165.0,7230.0,8740.0,-6951.0,-9564.0,-2866.0,-412.0,-633.0,23.0,61.0,52.0,9728.0,6554.0,-5725.0,-9903.0,-2558.0,-156.0,0.0,1.0
2022-05-23 16:26:11.345085-07:00,2083.6,582.6,1362.1,1479.2,1223.0,1338.6,1301.6,1593.6,3418.9,3424.9,1892.8,1460.8,0.0,3429.8,1336.8,1740.6,3418.9,3414.1,675.0,1288.2,838.6,549.0,1500.4,1929.2,3429.8,3434.6,832.7,1094.7,1326.8,1828.4,1567.4,1019.4,-31.0,-196.0,9.0,7606.0,7954.0,-6680.0,-10134.0,-1583.0,-1479.0,1010.0,-73.0,-33.0,16.0,9982.0,6084.0,-5292.0,-10187.0,-1111.0,-28.0,-60.0,1.0
2022-05-23 16:26:11.375105-07:00,2083.6,582.6,1362.1,1490.3,1217.7,1611.5,1294.5,1613.4,3418.9,3424.9,1892.8,1481.0,0.0,3418.9,1376.6,1775.2,3421.3,3420.1,689.7,1298.1,840.3,549.0,1500.4,1929.2,3429.8,3432.2,843.6,1161.2,1325.0,1828.4,1567.4,1019.4,50.0,218.0,50.0,8029.0,7137.0,-6924.0,-10252.0,-1103.0,-831.0,1494.0,-28.0,43.0,-43.0,10076.0,5976.0,-5118.0,-10247.0,-601.0,164.0,7.0,1.0
2022-05-23 16:26:11.435570-07:00,2370.3,587.5,1441.5,1521.8,1217.7,1611.5,1294.5,1613.4,3429.8,3431.0,1881.1,1481.9,0.0,3418.9,1376.6,1775.2,3421.3,3420.1,689.7,1298.1,849.5,553.8,1685.3,1919.3,3429.8,3432.2,843.6,1161.2,1334.1,1874.2,1635.0,1020.2,30.0,181.0,-78.0,8378.0,6506.0,-6618.0,-10589.0,-2531.0,-603.0,-164.0,4.0,160.0,42.0,10314.0,5593.0,-4633.0,-10455.0,-2236.0,66.0,-182.0,1.0
2022-05-23 16:26:11.495056-07:00,2370.3,587.5,1441.5,1521.8,1218.6,1753.1,1291.8,1630.3,3429.8,3431.0,1881.1,1481.9,0.0,3421.3,1447.9,1807.1,3423.7,3420.1,689.7,1310.6,849.5,553.8,1685.3,1919.3,3426.2,3431.0,882.3,1208.9,1334.1,1874.2,1635.0,1020.2,27.0,52.0,-193.0,8636.0,5760.0,-6042.0,-11143.0,-2339.0,-812.0,145.0,0.0,147.0,21.0,10545.0,5047.0,-3929.0,-10786.0,-2040.0,149.0,-465.0,1.0
2022-05-23 16:26:11.525660-07:00,2444.1,593.1,1537.6,1578.6,1218.6,1753.1,1291.8,1630.3,3428.6,3421.3,1856.7,1466.3,0.0,3421.3,1447.9,1807.1,3423.7,3420.1,689.7,1310.6,878.0,581.8,1757.9,1931.1,3426.2,3431.0,882.3,1208.9,1351.2,2007.4,1781.0,1028.8,104.0,-82.0,-52.0,9022.0,4816.0,-5563.0,-11528.0,-2537.0,-737.0,641.0,-39.0,-2.0,-63.0,10683.0,4464.0,-3356.0,-11096.0,-1843.0,-338.0,-334.0,1.0
2022-05-23 16:26:11.585083-07:00,2444.1,593.1,1537.6,1578.6,1231.9,1748.3,1413.1,1548.7,3428.6,3421.3,1856.7,1466.3,11.7,3422.5,1563.7,1877.2,3424.9,3427.4,697.9,1367.6,878.0,581.8,1757.9,1931.1,3423.7,3424.9,847.8,1231.9,1351.2,2007.4,1781.0,1028.8,27.0,44.0,87.0,9335.0,4117.0,-5055.0,-11781.0,-2082.0,-126.0,173.0,13.0,-48.0,-30.0,10748.0,3969.0,-2924.0,-11341.0,-1494.0,-231.0,-286.0,1.0
2022-05-23 16:26:11.645093-07:00,2447.3,585.9,1777.2,1716.7,1231.9,1748.3,1413.1,1447.0,3418.9,3426.2,2135.1,1647.3,11.7,3422.5,1563.7,2097.7,3418.9,3427.4,697.9,1367.6,922.8,597.9,1700.5,1950.9,3423.7,3424.9,847.8,1231.9,1386.6,2175.8,1905.6,1034.9,-93.0,-65.0,9.0,9590.0,3790.0,-4261.0,-11998.0,-1759.0,988.0,-178.0,-68.0,-151.0,-42.0,10830.0,3468.0,-2537.0,-11519.0,-1344.0,-280.0,-88.0,1.0
2022-05-23 16:26:11.675630-07:00,2439.8,585.9,1777.2,1716.7,1245.3,1693.8,1434.1,1447.0,3428.6,3426.2,2135.1,1647.3,1456.2,3432.2,1711.0,2097.7,3418.9,3409.3,694.6,1415.8,922.8,597.9,1700.5,2006.4,3423.7,3429.8,831.9,1223.0,1386.6,2175.8,1905.6,1030.6,-93.0,-85.0,-206.0,9694.0,3622.0,-3797.0,-12121.0,-878.0,-229.0,-58.0,-77.0,-85.0,-85.0,10865.0,3169.0,-2342.0,-11613.0,-506.0,-260.0,-65.0,1.0
2022-05-23 16:26:11.735146-07:00,2439.8,590.7,1783.9,1757.0,1245.3,1693.8,1434.1,1448.8,3428.6,3418.9,2349.4,1878.1,1456.2,3432.2,1711.0,2222.9,3422.5,3409.3,694.6,1415.8,929.6,589.1,1637.9,2006.4,3424.9,3429.8,831.9,1223.0,1386.6,2224.0,1905.6,1030.6,-27.0,-139.0,-130.0,9776.0,3326.0,-3691.0,-12173.0,-380.0,-304.0,259.0,-10.0,-130.0,-132.0,10882.0,2985.0,-2331.0,-11648.0,-31.0,-273.0,97.0,1.0
2022-05-23 16:26:11.795185-07:00,2403.9,590.7,1783.9,1757.0,1248.0,1653.9,1423.1,1448.8,3424.9,3418.9,2349.4,1878.1,1472.7,3422.5,1678.6,2222.9,3422.5,3431.0,692.9,1396.7,929.6,589.1,1637.9,2098.7,3424.9,3423.7,823.5,1195.6,1386.6,2224.0,1905.6,1026.3,22.0,-47.0,0.0,9858.0,3291.0,-3795.0,-12084.0,463.0,-89.0,332.0,35.0,-61.0,-12.0,10868.0,3015.0,-2519.0,-11615.0,661.0,-201.0,83.0,1.0
2022-05-23 16:26:11.825624-07:00,2403.9,578.6,1753.1,1720.5,1248.0,1653.9,1423.1,1562.7,3424.9,3420.1,2316.0,1888.9,1472.7,3422.5,1678.6,2201.4,3418.9,3431.0,692.9,1396.7,924.5,581.8,1600.2,2098.7,3426.2,3423.7,823.5,1195.6,1378.5,2162.6,1859.6,1026.3,83.0,52.0,40.0,9975.0,3376.0,-3956.0,-11911.0,298.0,184.0,530.0,57.0,12.0,8.0,10837.0,3135.0,-2772.0,-11553.0,635.0,-219.0,117.0,1.0
2022-05-23 16:26:11.885033-07:00,2375.5,597.9,1753.1,1720.5,1229.3,1648.3,1432.3,1562.7,3429.8,3418.9,2316.0,1888.9,1495.8,3423.7,1623.7,2201.4,3418.9,3432.2,689.7,1417.6,924.5,581.8,1586.1,2089.6,3426.2,3418.9,848.6,1183.2,1378.5,2162.6,1817.8,1031.4,5.0,-109.0,3.0,10090.0,3601.0,-4134.0,-11686.0,1165.0,231.0,583.0,44.0,-40.0,42.0,10740.0,3381.0,-3177.0,-11471.0,1402.0,-109.0,36.0,1.0
2022-05-23 16:26:11.944950-07:00,2375.5,597.9,1719.6,1703.3,1229.3,1648.3,1597.4,1602.1,3429.8,3418.9,2336.8,1944.0,1495.8,3423.7,1595.5,2179.9,3417.7,3417.7,689.7,1417.6,942.4,578.6,1586.1,2089.6,3428.6,3428.6,848.6,1183.2,1373.9,2110.8,1817.8,1031.4,45.0,149.0,8.0,10207.0,3834.0,-4453.0,-11389.0,639.0,304.0,398.0,-11.0,-30.0,-77.0,10671.0,3656.0,-3492.0,-11358.0,648.0,-25.0,67.0,1.0
2022-05-23 16:26:11.975111-07:00,2369.3,591.5,1719.6,1703.3,1225.7,1679.5,1597.4,1602.1,3424.9,3432.2,2336.8,1944.0,1535.7,3418.9,1595.5,2179.9,3417.7,3417.7,684.0,1454.3,942.4,578.6,1573.0,2087.6,3428.6,3428.6,906.7,1185.0,1373.9,2110.8,1794.5,1021.9,-58.0,-27.0,-52.0,10197.0,4125.0,-4477.0,-11287.0,614.0,387.0,-135.0,-38.0,-52.0,40.0,10635.0,3741.0,-3614.0,-11326.0,458.0,-69.0,1.0,1.0
2022-05-23 16:26:12.035625-07:00,2369.3,591.5,1688.1,1663.4,1225.7,1679.5,1579.6,1750.2,3424.9,3432.2,2345.2,1929.2,1535.7,3418.9,1581.4,2139.2,3422.5,3424.9,684.0,1454.3,934.7,574.6,1573.0,2087.6,3423.7,3423.7,906.7,1185.0,1363.0,2105.8,1794.5,1021.9,-8.0,13.0,15.0,10190.0,4351.0,-4528.0,-11188.0,160.0,462.0,45.0,26.0,-49.0,51.0,10612.0,3820.0,-3735.0,-11282.0,122.0,-24.0,112.0,1.0
2022-05-23 16:26:12.095026-07:00,2314.9,592.3,1688.1,1663.4,1224.8,1645.4,1579.6,1750.2,3422.5,3420.1,2345.2,1929.2,1524.5,3418.9,1581.4,2139.2,3422.5,3424.9,690.5,1459.8,934.7,574.6,1529.2,2071.5,3423.7,3423.7,935.6,1165.6,1363.0,2105.8,1794.5,1040.1,9.0,97.0,-46.0,10163.0,4587.0,-4612.0,-11083.0,662.0,114.0,-2.0,35.0,62.0,38.0,10600.0,3919.0,-3842.0,-11223.0,438.0,49.0,24.0,1.0
2022-05-23 16:26:12.125626-07:00,2314.9,592.3,1636.9,1639.8,1224.8,1645.4,1559.9,1832.3,3422.5,3420.1,2322.2,1910.5,1524.5,3418.9,1573.9,2133.1,3423.7,3424.9,690.5,1459.8,923.7,574.6,1529.2,2071.5,3426.2,3429.8,935.6,1165.6,1363.9,2082.6,1794.5,1040.1,15.0,63.0,-13.0,10111.0,4706.0,-4632.0,-11073.0,18.0,176.0,-158.0,-11.0,42.0,19.0,10585.0,3975.0,-3889.0,-11201.0,-68.0,5.0,-10.0,1.0
2022-05-23 16:26:12.185129-07:00,2280.7,590.7,1623.7,1639.8,1244.4,1619.9,1559.9,1832.3,3423.7,3422.5,2321.2,1910.5,1515.3,3424.9,1573.9,2133.1,3423.7,3424.9,685.6,1459.8,923.7,570.6,1510.6,2073.5,3426.2,3429.8,924.5,1150.6,1363.9,2052.4,1771.4,1019.4,24.0,71.0,-32.0,10074.0,4751.0,-4661.0,-11075.0,85.0,20.0,-85.0,-20.0,8.0,-24.0,10584.0,3965.0,-3875.0,-11210.0,-115.0,-13.0,-28.0,1.0
2022-05-23 16:26:12.274850-07:00,2280.7,590.7,1623.7,1642.6,1244.4,1599.3,1546.9,1809.0,3423.7,3422.5,2321.2,1924.3,1515.3,3431.0,1557.1,2132.1,3420.1,3421.3,692.9,1459.8,921.1,570.6,1510.6,2073.5,3431.0,3429.8,915.2,1150.6,1353.1,2052.4,1771.4,1019.4,-8.0,47.0,-35.0,10029.0,4819.0,-4591.0,-11116.0,-48.0,216.0,-330.0,-21.0,-12.0,-19.0,10581.0,3926.0,-3833.0,-11242.0,-199.0,-47.0,-81.0,1.0
2022-05-23 16:26:12.276039-07:00,2243.5,595.5,1613.4,1642.6,1343.1,1599.3,1546.9,1809.0,3423.7,3420.1,2302.5,1924.3,1530.1,3431.0,1557.1,2132.1,3420.1,3421.3,692.9,1463.5,921.1,576.2,1478.3,2058.4,3431.0,3429.8,915.2,1134.9,1353.1,2052.4,1765.6,1126.1,25.0,24.0,0.0,9949.0,4941.0,-4441.0,-11195.0,-78.0,379.0,-477.0,2.0,-16.0,-29.0,10576.0,3856.0,-3773.0,-11290.0,-255.0,-66.0,-67.0,1.0
2022-05-23 16:26:12.335154-07:00,2243.5,595.5,1613.4,1620.9,1343.1,1556.2,1547.8,1878.1,3423.7,3420.1,2302.5,1905.6,1530.1,3418.9,1559.9,2111.8,3426.2,3423.7,692.9,1463.5,916.9,576.2,1478.3,2058.4,3432.2,3422.5,902.5,1134.9,1380.3,2052.4,1765.6,1126.1,0.0,-31.0,-45.0,9858.0,5097.0,-4257.0,-11276.0,12.0,268.0,-389.0,19.0,2.0,21.0,10584.0,3772.0,-3698.0,-11336.0,-229.0,-10.0,-1.0,1.0
2022-05-23 16:26:12.394961-07:00,2221.9,589.9,1612.4,1620.9,1556.2,1556.2,1547.8,1878.1,3427.4,3429.8,2317.0,1905.6,1513.4,3418.9,1559.9,2111.8,3426.2,3423.7,692.9,1452.5,916.9,571.4,1464.4,2054.4,3432.2,3422.5,902.5,1129.6,1380.3,2059.4,1772.3,1289.1,0.0,-18.0,20.0,9764.0,5266.0,-4173.0,-11312.0,238.0,345.0,-343.0,35.0,-23.0,58.0,10600.0,3733.0,-3663.0,-11346.0,122.0,46.0,-9.0,1.0
2022-05-23 16:26:12.425627-07:00,2221.9,589.9,1612.4,1625.6,1611.5,1532.0,1535.7,1746.4,3427.4,3429.8,2317.0,1905.6,1514.3,3422.5,1544.1,2105.8,3414.1,3420.1,691.3,1459.8,921.1,571.4,1464.4,2054.4,3429.8,3426.2,897.4,1120.0,1390.3,2059.4,1772.3,1289.1,37.0,8.0,79.0,9623.0,5538.0,-4256.0,-11271.0,756.0,306.0,-236.0,42.0,-2.0,45.0,10569.0,3867.0,-3728.0,-11308.0,430.0,245.0,-30.0,1.0
2022-05-23 16:26:12.485605-07:00,2196.3,589.1,1610.5,1621.8,1611.5,1532.0,1535.7,1746.4,3427.4,3427.4,2287.9,1895.8,1514.3,3422.5,1544.1,2105.8,3414.1,3420.1,691.3,1459.8,915.2,576.2,1449.7,2049.4,3429.8,3426.2,897.4,1120.0,1379.4,2027.4,1765.6,1282.8,-26.0,-26.0,36.0,9448.0,5855.0,-4331.0,-11230.0,804.0,274.0,-380.0,12.0,-50.0,62.0,10548.0,4070.0,-3755.0,-11248.0,533.0,376.0,-55.0,1.0
2022-05-23 16:26:12.575109-07:00,2196.3,589.1,1610.5,1621.8,1624.7,1508.8,1492.1,1640.7,3427.4,3427.4,2287.9,1895.8,1517.1,3416.5,1546.9,2105.8,3421.3,3412.9,682.3,1451.6,915.2,576.2,1449.7,2049.4,3427.4,3422.5,878.0,1103.4,1379.4,2027.4,1765.6,1282.8,-50.0,-102.0,-39.0,9265.0,6166.0,-4531.0,-11137.0,1617.0,148.0,-13.0,-30.0,-50.0,37.0,10463.0,4446.0,-3896.0,-11136.0,1499.0,429.0,-138.0,1.0
2022-05-23 16:26:12.576312-07:00,2179.9,577.0,1608.7,1624.7,1624.7,1508.8,1492.1,1640.7,3437.0,3426.2,2273.4,1890.9,1517.1,3416.5,1546.9,2105.8,3421.3,3412.9,682.3,1451.6,909.3,561.0,1434.1,2050.4,3427.4,3422.5,878.0,1103.4,1373.0,2016.4,1749.3,1245.3,88.0,125.0,-77.0,9011.0,6569.0,-5101.0,-10866.0,1805.0,-167.0,249.0,-16.0,29.0,-96.0,10267.0,5032.0,-4241.0,-10942.0,1464.0,354.0,-79.0,1.0
2022-05-23 16:26:12.665657-07:00,2179.9,577.0,1608.7,1624.7,1615.2,1496.7,1494.0,1627.5,3437.0,3426.2,2273.4,1890.9,1512.5,3420.1,1532.0,2089.6,3439.5,3421.3,686.4,1449.7,909.3,561.0,1434.1,2050.4,3424.9,3423.7,886.5,1105.1,1373.0,2016.4,1749.3,1245.3,92.0,160.0,-94.0,8792.0,6930.0,-5438.0,-10655.0,431.0,577.0,-348.0,-14.0,112.0,-82.0,10151.0,5380.0,-4435.0,-10807.0,250.0,147.0,-3.0,1.0
2022-05-23 16:26:12.725058-07:00,2159.5,580.2,1598.3,1619.0,1615.2,1496.7,1494.0,1627.5,3431.0,3427.4,2265.2,1879.1,1512.5,3420.1,1532.0,2089.6,3439.5,3421.3,686.4,1449.7,900.8,569.8,1428.6,2024.4,3424.9,3423.7,886.5,1105.1,1365.7,2015.4,1741.6,1216.8,11.0,-35.0,-74.0,8685.0,7209.0,-5347.0,-10604.0,595.0,269.0,-269.0,-3.0,10.0,4.0,10120.0,5483.0,-4460.0,-10773.0,507.0,99.0,-99.0,1.0
2022-05-23 16:26:12.726296-07:00,2162.6,580.2,1598.3,1619.0,1580.5,1481.0,1509.7,1668.2,3426.2,3427.4,2265.2,1879.1,1508.8,3421.3,1530.1,2083.6,3426.2,3422.5,682.3,1428.6,900.8,569.8,1428.6,2032.4,3428.6,3423.7,882.3,1090.3,1365.7,2015.4,1741.6,1206.2,20.0,-110.0,-18.0,8536.0,7499.0,-5507.0,-10441.0,1453.0,412.0,141.0,-13.0,-58.0,-16.0,9962.0,5752.0,-4680.0,-10687.0,1550.0,64.0,-164.0,1.0
2022-05-23 16:26:12.785120-07:00,2162.6,572.2,1593.6,1627.5,1580.5,1481.0,1509.7,1756.0,3426.2,3418.9,2267.2,1877.2,1508.8,3421.3,1530.1,2088.6,3411.7,3422.5,682.3,1428.6,894.1,565.0,1426.8,2032.4,3422.5,3423.7,882.3,1090.3,1363.9,2007.4,1732.0,1206.2,-27.0,-17.0,-58.0,8331.0,7941.0,-5974.0,-10014.0,1903.0,239.0,581.0,-47.0,-36.0,2.0,9649.0,6265.0,-5129.0,-10478.0,1948.0,101.0,-139.0,1.0
2022-05-23 16:26:12.844903-07:00,2146.3,572.2,1593.6,1627.5,1586.1,1474.6,1526.4,1756.0,3423.7,3418.9,2267.2,1877.2,1503.2,3421.3,1527.3,2088.6,3411.7,3424.9,692.9,1421.3,894.1,565.0,1426.8,2026.4,3422.5,3429.8,867.9,1083.4,1363.9,2007.4,1732.0,1209.7,24.0,-91.0,-22.0,8073.0,8355.0,-6564.0,-9506.0,2402.0,339.0,546.0,-37.0,-67.0,-28.0,9257.0,6840.0,-5648.0,-10201.0,2254.0,107.0,-135.0,1.0
2022-05-23 16:26:12.875204-07:00,2146.3,580.2,1602.1,1627.5,1586.1,1474.6,1526.4,1810.0,3423.7,3426.2,2253.8,1881.1,1503.2,3421.3,1527.3,2087.6,3423.7,3424.9,692.9,1421.3,900.0,561.8,1414.9,2026.4,3431.0,3429.8,867.9,1083.4,1356.7,2011.4,1725.3,1209.7,-16.0,10.0,-59.0,7810.0,8812.0,-7141.0,-8877.0,1594.0,483.0,705.0,-15.0,-22.0,20.0,8873.0,7360.0,-6164.0,-9877.0,1663.0,78.0,78.0,1.0
2022-05-23 16:26:12.935168-07:00,2154.4,580.2,1602.1,1627.5,1576.8,1466.3,1510.6,1810.0,3426.2,3426.2,2253.8,1881.1,1506.0,3416.5,1525.5,2087.6,3423.7,3417.7,688.9,1411.3,900.0,561.8,1414.9,2029.4,3431.0,3423.7,868.8,1084.2,1356.7,2011.4,1725.3,1196.5,-8.0,-100.0,-53.0,7670.0,9082.0,-7554.0,-8371.0,1766.0,156.0,567.0,23.0,-78.0,36.0,8578.0,7743.0,-6575.0,-9575.0,1853.0,96.0,-39.0,1.0
2022-05-23 16:26:12.995118-07:00,2154.4,571.4,1584.2,1623.7,1576.8,1466.3,1495.8,1777.2,3426.2,3439.5,2254.8,1884.0,1506.0,3416.5,1532.0,2080.6,3427.4,3424.9,688.9,1411.3,889.8,557.8,1411.3,2029.4,3428.6,3428.6,868.8,1084.2,1356.7,1990.5,1717.7,1196.5,94.0,58.0,-48.0,7310.0,9376.0,-8149.0,-7789.0,2232.0,64.0,708.0,29.0,45.0,-41.0,8153.0,8228.0,-7042.0,-9202.0,2105.0,89.0,-61.0,1.0
2022-05-23 16:26:13.024976-07:00,2150.4,576.2,1584.2,1623.7,1559.0,1464.4,1495.8,1777.2,3424.9,3424.9,2254.8,1884.0,1509.7,3429.8,1532.0,2080.6,3427.4,3424.9,689.7,1420.4,889.8,557.8,1410.3,2018.4,3428.6,3428.6,861.2,1095.6,1356.7,1990.5,1725.3,1192.9,93.0,46.0,-43.0,6930.0,9638.0,-8751.0,-7137.0,2224.0,150.0,754.0,14.0,26.0,-43.0,7678.0,8716.0,-7512.0,-8780.0,2213.0,145.0,-84.0,1.0
2022-05-23 16:26:13.085142-07:00,2150.4,576.2,1578.6,1619.9,1559.0,1464.4,1489.3,1760.8,3424.9,3424.9,2236.3,1891.8,1509.7,3429.8,1508.8,2077.5,3418.9,3420.1,689.7,1420.4,892.4,559.4,1410.3,2018.4,3420.1,3427.4,861.2,1095.6,1354.9,1999.5,1725.3,1192.9,11.0,184.0,-68.0,6549.0,9928.0,-9230.0,-6465.0,1572.0,315.0,277.0,14.0,116.0,27.0,7238.0,9149.0,-7905.0,-8358.0,1367.0,186.0,-62.0,1.0
2022-05-23 16:26:13.145009-07:00,2120.9,569.0,1578.6,1619.9,1560.9,1479.2,1489.3,1760.8,3424.9,3420.1,2236.3,1891.8,1514.3,3424.9,1508.8,2077.5,3418.9,3420.1,688.0,1404.0,892.4,559.4,1394.8,2021.4,3420.1,3427.4,863.7,1083.4,1354.9,1999.5,1736.8,1226.6,20.0,103.0,-57.0,6347.0,10083.0,-9416.0,-6150.0,248.0,-57.0,86.0,-27.0,66.0,-24.0,7067.0,9348.0,-8054.0,-8139.0,234.0,116.0,62.0,1.0
2022-05-23 16:26:13.175129-07:00,2120.9,569.0,1565.5,1608.7,1560.9,1479.2,1494.0,1755.0,3424.9,3420.1,2234.2,1886.0,1514.3,3424.9,1507.8,2083.6,3421.3,3423.7,688.0,1404.0,883.1,555.4,1394.8,2021.4,3428.6,3434.6,863.7,1083.4,1355.8,1991.5,1736.8,1226.6,-9.0,26.0,-16.0,6361.0,10085.0,-9399.0,-6157.0,-250.0,144.0,-130.0,-20.0,30.0,13.0,7093.0,9353.0,-8060.0,-8104.0,-112.0,36.0,47.0,1.0
2022-05-23 16:26:13.235052-07:00,2105.8,571.4,1557.1,1608.7,1579.6,1541.3,1494.0,1755.0,3429.8,3437.0,2214.7,1886.0,1527.3,3431.0,1507.8,2083.6,3421.3,3423.7,687.2,1402.1,883.1,555.4,1397.6,2022.4,3428.6,3434.6,857.0,1076.4,1355.8,1987.5,1719.6,1222.2,-13.0,-26.0,0.0,6411.0,10110.0,-9329.0,-6172.0,174.0,82.0,-63.0,-17.0,-17.0,33.0,7107.0,9355.0,-8050.0,-8100.0,164.0,51.0,-62.0,1.0
2022-05-23 16:26:13.295070-07:00,2105.8,571.4,1557.1,1604.9,1579.6,1491.2,1488.4,1747.3,3429.8,3437.0,2214.7,1879.1,1527.3,3427.4,1500.4,2066.5,3414.1,3420.1,691.3,1402.1,876.4,555.4,1397.6,2022.4,3434.6,3418.9,852.8,1076.4,1351.2,1987.5,1719.6,1222.2,7.0,-17.0,4.0,6348.0,10192.0,-9345.0,-6077.0,351.0,145.0,-37.0,-4.0,-13.0,12.0,7052.0,9423.0,-8060.0,-8059.0,223.0,71.0,-96.0,1.0
2022-05-23 16:26:13.325063-07:00,2088.6,581.0,1568.3,1604.9,1548.7,1491.2,1488.4,1747.3,3439.5,3434.6,2196.3,1879.1,1532.0,3427.4,1500.4,2066.5,3414.1,3420.1,691.3,1404.9,876.4,553.8,1389.4,2025.4,3434.6,3418.9,852.8,1065.1,1351.2,1982.6,1722.4,1203.5,26.0,-34.0,-3.0,6297.0,10273.0,-9367.0,-5958.0,302.0,154.0,-11.0,-2.0,-28.0,8.0,6993.0,9496.0,-8072.0,-8013.0,226.0,51.0,-67.0,1.0
2022-05-23 16:26:13.385180-07:00,2088.6,581.0,1568.3,1602.1,1548.7,1468.1,1478.3,1783.9,3439.5,3434.6,2196.3,1881.1,1532.0,3418.9,1482.9,2067.5,3439.5,3422.5,691.3,1404.9,873.8,553.8,1389.4,2025.4,3434.6,3423.7,845.3,1065.1,1348.5,1982.6,1722.4,1203.5,14.0,-25.0,-9.0,6255.0,10362.0,-9375.0,-5835.0,281.0,193.0,-83.0,9.0,-1.0,14.0,6930.0,9563.0,-8096.0,-7964.0,240.0,39.0,-59.0,1.0
2022-05-23 16:26:13.444897-07:00,2093.7,576.2,1554.3,1602.1,1529.2,1468.1,1478.3,1783.9,3428.6,3414.1,2197.3,1881.1,1528.3,3418.9,1482.9,2067.5,3439.5,3422.5,691.3,1412.2,873.8,554.6,1379.4,2015.4,3434.6,3423.7,845.3,1066.9,1348.5,1983.6,1713.8,1202.7,41.0,17.0,-4.0,6228.0,10433.0,-9362.0,-5757.0,78.0,152.0,-92.0,1.0,0.0,-16.0,6884.0,9613.0,-8117.0,-7922.0,26.0,41.0,4.0,1.0
2022-05-23 16:26:13.475266-07:00,2093.7,576.2,1554.3,1602.1,1529.2,1442.4,1481.9,1790.7,3428.6,3414.1,2197.3,1874.2,1528.3,3431.0,1499.5,2067.5,3423.7,3420.1,689.7,1412.2,874.7,554.6,1379.4,2015.4,3424.9,3424.9,847.8,1066.9,1340.4,1983.6,1713.8,1202.7,20.0,-38.0,-27.0,6254.0,10477.0,-9288.0,-5771.0,-121.0,12.0,-151.0,-1.0,-30.0,-4.0,6922.0,9601.0,-8097.0,-7924.0,-93.0,38.0,34.0,1.0
2022-05-23 16:26:13.535267-07:00,2077.5,576.2,1552.5,1598.3,1545.9,1442.4,1481.9,1790.7,3428.6,3422.5,2174.8,1861.5,1523.6,3431.0,1499.5,2067.5,3423.7,3420.1,689.7,1398.5,873.8,549.8,1371.2,2011.4,3424.9,3424.9,847.8,1058.2,1350.3,1970.7,1709.1,1200.9,7.0,20.0,-1.0,6235.0,10508.0,-9249.0,-5796.0,9.0,32.0,-148.0,-14.0,6.0,7.0,6923.0,9604.0,-8098.0,-7918.0,68.0,-8.0,-11.0,1.0
2022-05-23 16:26:13.595049-07:00,2077.5,576.2,1552.5,1598.3,1595.5,1430.5,1474.6,1754.1,3428.6,3422.5,2174.8,1861.5,1522.7,3424.9,1499.5,2072.5,3423.7,3427.4,685.6,1396.7,873.8,549.8,1371.2,2011.4,3423.7,3429.8,842.8,1067.7,1350.3,1970.7,1709.1,1200.9,-20.0,-47.0,-13.0,6248.0,10556.0,-9169.0,-5822.0,-68.0,118.0,-189.0,-23.0,-9.0,30.0,6913.0,9610.0,-8092.0,-7925.0,42.0,12.0,-20.0,1.0
2022-05-23 16:26:13.624990-07:00,2072.5,569.8,1552.5,1604.9,1595.5,1430.5,1474.6,1754.1,3426.2,3426.2,2176.9,1863.5,1522.7,3424.9,1499.5,2072.5,3423.7,3427.4,685.6,1396.7,875.5,554.6,1367.6,2016.4,3423.7,3429.8,842.8,1067.7,1354.0,1975.6,1695.7,1207.1,-12.0,14.0,-26.0,6241.0,10587.0,-9150.0,-5802.0,39.0,-8.0,20.0,-19.0,21.0,18.0,6888.0,9634.0,-8100.0,-7909.0,162.0,18.0,-4.0,1.0
2022-05-23 16:26:13.686573-07:00,2072.5,569.8,1552.5,1604.9,1577.7,1448.8,1465.4,1743.5,3426.2,3426.2,2176.9,1863.5,1526.4,3426.2,1498.6,2066.5,3431.0,3427.4,686.4,1398.5,875.5,554.6,1367.6,2016.4,3432.2,3431.0,846.1,1079.9,1354.0,1975.6,1695.7,1207.1,-5.0,-13.0,-19.0,6241.0,10566.0,-9167.0,-5816.0,-150.0,-81.0,42.0,-19.0,-1.0,21.0,6870.0,9647.0,-8118.0,-7891.0,-31.0,-26.0,29.0,1.0
2022-05-23 16:26:13.717805-07:00,2065.5,568.2,1549.7,1599.3,1577.7,1448.8,1465.4,1743.5,3429.8,3424.9,2172.8,1859.6,1526.4,3426.2,1498.6,2066.5,3431.0,3427.4,686.4,1398.5,871.3,557.0,1377.5,2005.5,3432.2,3431.0,846.1,1079.9,1347.6,1974.6,1695.7,1196.5,0.0,12.0,-7.0,6229.0,10517.0,-9211.0,-5845.0,54.0,-178.0,139.0,-1.0,-4.0,19.0,6867.0,9641.0,-8131.0,-7888.0,55.0,-11.0,17.0,1.0
2022-05-23 16:26:13.775743-07:00,2067.5,568.2,1549.7,1599.3,1550.6,1445.1,1478.3,1731.1,3434.6,3424.9,2172.8,1859.6,1524.5,3431.0,1486.6,2061.5,3427.4,3420.1,685.6,1379.4,871.3,557.0,1377.5,2011.4,3429.8,3414.1,838.6,1075.6,1347.6,1974.6,1695.7,1193.8,47.0,35.0,6.0,6166.0,10482.0,-9279.0,-5870.0,59.0,-190.0,-9.0,12.0,10.0,-4.0,6855.0,9646.0,-8138.0,-7885.0,1.0,-14.0,-12.0,1.0
2022-05-23 16:26:13.835072-07:00,2067.5,562.6,1551.5,1601.1,1550.6,1445.1,1478.3,1760.8,3434.6,3429.8,2164.6,1851.8,1524.5,3431.0,1486.6,2054.4,3423.7,3420.1,685.6,1379.4,873.8,563.4,1381.2,2011.4,3432.2,3414.1,838.6,1075.6,1338.6,1978.6,1691.9,1193.8,24.0,-19.0,-3.0,6109.0,10474.0,-9284.0,-5935.0,5.0,-201.0,-88.0,14.0,-1.0,11.0,6857.0,9643.0,-8123.0,-7903.0,-11.0,-3.0,-61.0,1.0
2022-05-23 16:26:13.865385-07:00,2071.5,562.6,1551.5,1601.1,1573.0,1456.2,1466.3,1760.8,3424.9,3429.8,2164.6,1851.8,1519.0,3424.9,1481.0,2054.4,3423.7,3421.3,691.3,1391.2,873.8,563.4,1381.2,2000.5,3432.2,3439.5,834.4,1076.4,1338.6,1978.6,1691.9,1195.6,50.0,-3.0,21.0,6053.0,10460.0,-9297.0,-5996.0,-13.0,-131.0,-65.0,-10.0,4.0,-13.0,6852.0,9644.0,-8114.0,-7914.0,-31.0,-20.0,-16.0,1.0
2022-05-23 16:26:13.925083-07:00,2071.5,572.2,1550.6,1612.4,1573.0,1456.2,1466.3,1765.6,3424.9,3427.4,2156.5,1845.0,1519.0,3424.9,1481.0,2052.4,3418.9,3421.3,691.3,1391.2,867.1,553.0,1371.2,2000.5,3429.8,3439.5,834.4,1076.4,1336.8,1973.7,1684.3,1195.6,-4.0,-19.0,6.0,6068.0,10463.0,-9276.0,-6008.0,-4.0,63.0,-39.0,-10.0,-5.0,31.0,6854.0,9633.0,-8113.0,-7928.0,4.0,-16.0,4.0,1.0
2022-05-23 16:26:13.985080-07:00,2055.4,572.2,1550.6,1612.4,1532.9,1444.2,1457.1,1765.6,3424.9,3427.4,2156.5,1845.0,1517.1,3421.3,1472.7,2052.4,3418.9,3422.5,691.3,1393.9,867.1,553.0,1371.2,2007.4,3429.8,3439.5,831.9,1073.8,1336.8,1973.7,1684.3,1185.9,6.0,22.0,3.0,6067.0,10483.0,-9267.0,-5990.0,17.0,54.0,-39.0,-8.0,12.0,18.0,6848.0,9637.0,-8115.0,-7926.0,7.0,11.0,-12.0,1.0
2022-05-23 16:26:14.015311-07:00,2055.4,565.0,1562.7,1607.7,1532.9,1444.2,1457.1,1756.0,3424.9,3429.8,2164.6,1848.9,1517.1,3421.3,1472.7,2038.4,3423.7,3422.5,691.3,1393.9,857.9,553.0,1373.9,2007.4,3434.6,3439.5,831.9,1073.8,1327.8,1968.7,1675.7,1185.9,4.0,-13.0,-2.0,6085.0,10509.0,-9230.0,-5982.0,-27.0,103.0,-65.0,-6.0,-1.0,19.0,6861.0,9637.0,-8096.0,-7934.0,-43.0,32.0,-14.0,1.0
2022-05-23 16:26:14.075169-07:00,2046.4,569.0,1562.7,1607.7,1530.1,1434.1,1470.9,1756.0,3417.7,3429.8,2164.6,1848.9,1520.8,3429.8,1476.4,2038.4,3423.7,3422.5,689.7,1390.3,857.9,553.0,1356.7,1998.5,3434.6,3431.0,835.2,1071.2,1327.8,1968.7,1677.6,1162.1,4.0,6.0,-7.0,6104.0,10534.0,-9210.0,-5950.0,34.0,103.0,4.0,-5.0,2.0,18.0,6867.0,9648.0,-8081.0,-7929.0,29.0,52.0,-17.0,1.0
2022-05-23 16:26:14.135128-07:00,2046.4,569.0,1539.4,1594.6,1530.1,1434.1,1463.5,1737.8,3417.7,3429.8,2149.3,1847.9,1520.8,3429.8,1471.8,2043.4,3432.2,3420.1,689.7,1390.3,864.6,546.6,1356.7,1998.5,3427.4,3423.7,835.2,1071.2,1331.4,1964.7,1677.6,1162.1,23.0,29.0,-7.0,6127.0,10557.0,-9184.0,-5924.0,-40.0,126.0,-79.0,-10.0,28.0,-9.0,6879.0,9664.0,-8060.0,-7923.0,-75.0,69.0,-29.0,1.0
2022-05-23 16:26:14.165336-07:00,2053.4,564.2,1539.4,1594.6,1515.3,1414.9,1463.5,1737.8,3421.3,3423.7,2149.3,1847.9,1514.3,3421.3,1471.8,2043.4,3432.2,3420.1,682.3,1388.5,864.6,546.6,1363.0,1997.5,3427.4,3423.7,831.1,1065.1,1331.4,1964.7,1678.6,1160.3,45.0,249.0,-43.0,6225.0,10603.0,-9016.0,-5997.0,-728.0,268.0,-513.0,-25.0,117.0,-36.0,7001.0,9595.0,-7947.0,-8012.0,-919.0,36.0,-5.0,1.0
2022-05-23 16:26:14.224800-07:00,2053.4,564.2,1540.3,1588.0,1515.3,1414.9,1456.2,1739.7,3421.3,3423.7,2140.2,1849.8,1514.3,3421.3,1470.9,2045.4,3420.1,3424.9,682.3,1388.5,867.9,550.6,1363.0,1997.5,3428.6,3437.0,831.1,1065.1,1339.5,1963.7,1678.6,1160.3,-8.0,129.0,-96.0,6603.0,10593.0,-8371.0,-6524.0,-2313.0,173.0,-1489.0,-38.0,6.0,32.0,7485.0,9213.0,-7541.0,-8406.0,-2494.0,-59.0,51.0,1.0
2022-05-23 16:26:14.284991-07:00,2040.4,559.4,1540.3,1588.0,1559.9,1411.3,1456.2,1739.7,3418.9,3420.1,2140.2,1849.8,1530.1,3424.9,1470.9,2045.4,3420.1,3424.9,685.6,1383.0,867.9,550.6,1353.1,1998.5,3428.6,3437.0,826.9,1061.7,1339.5,1963.7,1680.5,1200.9,12.0,32.0,-70.0,6983.0,10526.0,-7457.0,-7299.0,-2475.0,77.0,-1661.0,-48.0,3.0,10.0,8144.0,8614.0,-6937.0,-8932.0,-2906.0,-58.0,117.0,1.0
2022-05-23 16:26:14.315361-07:00,2040.4,559.4,1538.5,1586.1,1559.9,1422.2,1445.1,1713.8,3418.9,3420.1,2146.3,1845.0,1530.1,3432.2,1462.6,2034.4,3422.5,3414.1,694.6,1383.0,871.3,552.2,1353.1,1998.5,3429.8,3417.7,824.4,1061.7,1331.4,1980.6,1680.5,1200.9,-32.0,61.0,-148.0,7292.0,10351.0,-6524.0,-8097.0,-2261.0,-355.0,-1648.0,-27.0,96.0,24.0,8793.0,7938.0,-6265.0,-9426.0,-2912.0,-52.0,63.0,1.0
2022-05-23 16:26:14.375200-07:00,2029.4,578.6,1530.1,1586.1,1596.4,1422.2,1445.1,1713.8,3426.2,3424.9,2142.2,1845.0,1513.4,3432.2,1462.6,2034.4,3422.5,3414.1,694.6,1385.7,871.3,551.4,1348.5,1999.5,3429.8,3417.7,824.4,1056.5,1331.4,1977.6,1672.9,1181.5,70.0,-49.0,-114.0,7520.0,9958.0,-5683.0,-8969.0,-2572.0,-770.0,-1312.0,-19.0,-21.0,-66.0,9361.0,7185.0,-5574.0,-9906.0,-2808.0,-270.0,48.0,1.0
2022-05-23 16:26:14.495040-07:00,2029.4,578.6,1530.1,1588.0,1596.4,1396.7,1451.6,1713.8,3426.2,3424.9,2142.2,1849.8,1513.4,3418.9,1469.0,2028.4,3428.6,3414.1,687.2,1385.7,863.7,551.4,1348.5,1999.5,3429.8,3423.7,827.7,1056.5,1329.6,1977.6,1672.9,1181.5,63.0,-102.0,-110.0,7724.0,9473.0,-5018.0,-9687.0,-1964.0,-780.0,-920.0,-12.0,-36.0,-68.0,9771.0,6463.0,-5014.0,-10299.0,-2237.0,-381.0,50.0,1.0
2022-05-23 16:26:14.529583-07:00,2022.4,563.4,1522.7,1588.0,1555.3,1396.7,1451.6,1713.8,3429.8,3427.4,2132.1,1849.8,1509.7,3418.9,1469.0,2028.4,3428.6,3414.1,687.2,1386.6,863.7,549.8,1345.8,1994.5,3429.8,3423.7,827.7,1056.5,1329.6,1983.6,1686.2,1185.9,107.0,-34.0,-13.0,7805.0,9044.0,-4493.0,-10273.0,-1512.0,-598.0,-974.0,4.0,-11.0,-40.0,10045.0,5810.0,-4573.0,-10624.0,-1877.0,-443.0,-41.0,1.0
2022-05-23 16:26:14.530750-07:00,2022.4,563.4,1522.7,1588.0,1555.3,1393.0,1438.7,1724.4,3429.8,3427.4,2132.1,1840.1,1509.7,3428.6,1457.1,2029.4,3421.3,3426.2,679.9,1386.6,871.3,549.8,1345.8,1994.5,3423.7,3429.8,825.2,1056.5,1328.7,1983.6,1686.2,1185.9,-79.0,-124.0,-99.0,7840.0,8677.0,-4069.0,-10730.0,-1238.0,-849.0,-558.0,4.0,-72.0,67.0,10247.0,5235.0,-4184.0,-10887.0,-1689.0,-360.0,17.0,1.0
2022-05-23 16:26:14.585093-07:00,2021.4,567.4,1532.0,1597.4,1554.3,1393.0,1438.7,1724.4,3429.8,3423.7,2119.9,1833.3,1515.3,3428.6,1457.1,2029.4,3421.3,3426.2,679.9,1373.9,866.3,553.0,1340.4,1994.5,3423.7,3429.8,825.2,1051.3,1325.0,1969.7,1680.5,1182.3,148.0,-16.0,36.0,7828.0,8166.0,-4021.0,-11149.0,-578.0,-1287.0,-211.0,-19.0,-56.0,-100.0,10402.0,4748.0,-3883.0,-11073.0,-1296.0,-344.0,50.0,1.0
2022-05-23 16:26:14.645071-07:00,2021.4,567.4,1532.0,1597.4,1610.5,1411.3,1447.9,1757.9,3429.8,3423.7,2119.9,1833.3,1506.9,3420.1,1448.8,2013.4,3433.4,3424.9,687.2,1378.5,866.3,553.0,1340.4,1994.5,3433.4,3427.4,821.0,1047.0,1325.0,1969.7,1680.5,1182.3,58.0,-17.0,57.0,7786.0,7782.0,-3835.0,-11514.0,-1065.0,-611.0,-534.0,52.0,-27.0,25.0,10543.0,4271.0,-3598.0,-11229.0,-1371.0,-360.0,92.0,1.0
2022-05-23 16:26:14.675204-07:00,2039.4,565.0,1534.8,1587.1,1610.5,1411.3,1447.9,1757.9,3423.7,3429.8,2117.9,1842.0,1506.9,3420.1,1448.8,2013.4,3433.4,3424.9,687.2,1378.5,857.9,550.6,1339.5,1987.5,3433.4,3427.4,821.0,1047.0,1334.1,1967.7,1679.5,1171.8,57.0,-40.0,55.0,7804.0,7435.0,-3554.0,-11816.0,-844.0,-551.0,-275.0,69.0,-31.0,14.0,10680.0,3807.0,-3317.0,-11352.0,-1114.0,-289.0,95.0,1.0
2022-05-23 16:26:14.735094-07:00,2039.4,565.0,1534.8,1587.1,1593.6,1392.1,1456.2,1794.5,3423.7,3429.8,2117.9,1842.0,1505.1,3423.7,1443.3,2011.4,3421.3,3423.7,685.6,1383.9,857.9,550.6,1339.5,1987.5,3433.4,3418.9,826.9,1040.1,1334.1,1967.7,1679.5,1171.8,32.0,0.0,17.0,7870.0,7113.0,-3373.0,-12022.0,-850.0,-571.0,-34.0,54.0,-18.0,62.0,10801.0,3462.0,-3108.0,-11407.0,-848.0,-143.0,208.0,1.0
2022-05-23 16:26:14.765356-07:00,2033.4,565.8,1539.4,1586.1,1593.6,1392.1,1456.2,1794.5,3429.8,3439.5,2110.8,1826.5,1505.1,3423.7,1443.3,2011.4,3421.3,3423.7,685.6,1383.9,867.1,550.6,1332.3,2007.4,3433.4,3418.9,826.9,1040.1,1329.6,1944.0,1671.0,1170.0,97.0,73.0,32.0,8014.0,6707.0,-3231.0,-12198.0,-1121.0,-570.0,49.0,53.0,8.0,-17.0,10938.0,3133.0,-2873.0,-11434.0,-1078.0,-101.0,250.0,1.0
2022-05-23 16:26:14.825089-07:00,2033.4,565.8,1539.4,1586.1,1546.9,1395.7,1466.3,1810.0,3429.8,3439.5,2110.8,1826.5,1508.8,3424.9,1440.5,2000.5,3427.4,3429.8,681.5,1386.6,867.1,550.6,1332.3,2007.4,3422.5,3428.6,816.9,1043.5,1329.6,1944.0,1671.0,1170.0,92.0,175.0,140.0,8192.0,6293.0,-2747.0,-12417.0,-1705.0,-49.0,-396.0,62.0,14.0,80.0,11170.0,2615.0,-2410.0,-11446.0,-1885.0,37.0,391.0,1.0
2022-05-23 16:26:14.885213-07:00,2045.4,576.2,1534.8,1592.7,1546.9,1395.7,1466.3,1804.2,3433.4,3432.2,2129.0,1822.6,1508.8,3424.9,1440.5,1997.5,3424.9,3429.8,681.5,1386.6,868.8,550.6,1339.5,1999.5,3428.6,3428.6,816.9,1043.5,1363.0,1967.7,1674.8,1162.1,-10.0,-38.0,14.0,8260.0,6151.0,-2392.0,-12516.0,-630.0,105.0,-169.0,-34.0,-66.0,39.0,11339.0,2302.0,-1977.0,-11430.0,-839.0,271.0,160.0,1.0
2022-05-23 16:26:14.915224-07:00,2049.4,576.2,1534.8,1592.7,1504.1,1389.4,1480.1,1804.2,3429.8,3432.2,2129.0,1822.6,1506.0,3432.2,1445.1,1997.5,3424.9,3429.8,687.2,1383.0,868.8,550.6,1339.5,1992.5,3428.6,3428.6,824.4,1031.4,1363.0,1967.7,1674.8,1173.5,-8.0,-39.0,-49.0,8307.0,6061.0,-2202.0,-12564.0,-259.0,-14.0,-27.0,-55.0,-41.0,-17.0,11410.0,2209.0,-1782.0,-11411.0,-293.0,133.0,92.0,1.0
2022-05-23 16:26:15.005102-07:00,2049.4,578.6,1549.7,1599.3,1504.1,1389.4,1480.1,1779.1,3429.8,3432.2,2176.9,1810.0,1506.0,3432.2,1445.1,1998.5,3429.8,3429.8,687.2,1383.0,867.1,553.0,1328.7,1992.5,3432.2,3428.6,824.4,1031.4,1371.2,1968.7,1669.1,1173.5,-11.0,-1.0,-23.0,8316.0,6036.0,-2174.0,-12574.0,99.0,-66.0,-31.0,-27.0,7.0,14.0,11431.0,2206.0,-1724.0,-11399.0,-19.0,97.0,-22.0,1.0
2022-05-23 16:26:15.035146-07:00,2065.5,578.6,1549.7,1599.3,1470.9,1393.0,1470.9,1779.1,3423.7,3432.2,2176.9,1810.0,1499.5,3427.4,1448.8,1998.5,3429.8,3424.9,682.3,1369.4,867.1,553.0,1328.7,1986.6,3432.2,3428.6,821.0,1037.5,1371.2,1968.7,1669.1,1160.3,36.0,55.0,14.0,8308.0,6007.0,-2218.0,-12586.0,2.0,-130.0,36.0,1.0,12.0,9.0,11429.0,2214.0,-1708.0,-11402.0,-26.0,12.0,-21.0,1.0
2022-05-23 16:26:15.065232-07:00,2065.5,580.2,1555.3,1586.1,1470.9,1393.0,1470.9,1744.5,3423.7,3428.6,2167.7,1817.8,1499.5,3427.4,1448.8,2006.4,3417.7,3424.9,682.3,1369.4,863.7,545.0,1326.8,1986.6,3428.6,3428.6,821.0,1037.5,1354.9,1967.7,1671.0,1160.3,57.0,36.0,37.0,8318.0,5991.0,-2242.0,-12583.0,38.0,102.0,-12.0,21.0,-25.0,8.0,11431.0,2236.0,-1704.0,-11395.0,39.0,103.0,34.0,1.0
2022-05-23 16:26:15.139101-07:00,2076.5,579.4,1555.3,1586.1,1440.5,1376.6,1451.6,1744.5,3422.5,3431.0,2167.7,1817.8,1500.4,3426.2,1477.3,2006.4,3417.7,3422.5,688.0,1372.1,863.7,545.0,1322.3,1987.5,3428.6,3428.6,814.4,1035.7,1354.9,1967.7,1722.4,1144.5,53.0,-1.0,48.0,8322.0,6038.0,-2244.0,-12557.0,187.0,215.0,40.0,38.0,-22.0,-10.0,11447.0,2303.0,-1708.0,-11365.0,218.0,176.0,61.0,1.0
2022-05-23 16:26:15.185201-07:00,2076.5,579.4,1541.3,1580.5,1440.5,1376.6,1448.8,1738.7,3422.5,3431.0,2213.7,1832.3,1500.4,3426.2,1512.5,2044.4,3423.7,3426.2,688.0,1372.1,864.6,551.4,1322.3,1987.5,3437.0,3431.0,814.4,1035.7,1354.0,2009.4,1722.4,1144.5,164.0,27.0,75.0,8349.0,6139.0,-2254.0,-12489.0,52.0,547.0,-6.0,90.0,-24.0,-95.0,11482.0,2410.0,-1736.0,-11304.0,159.0,162.0,191.0,1.0
2022-05-23 16:26:15.215123-07:00,2062.5,568.2,1541.3,1580.5,1434.1,1378.5,1448.8,1738.7,3432.2,3426.2,2213.7,1832.3,1502.3,3433.4,1512.5,2044.4,3423.7,3426.2,686.4,1367.6,864.6,551.4,1321.4,1982.6,3437.0,3431.0,817.7,1039.2,1354.0,2009.4,1750.2,1159.4,61.0,-144.0,7.0,8378.0,6420.0,-2129.0,-12349.0,574.0,882.0,131.0,50.0,-129.0,-18.0,11546.0,2563.0,-1799.0,-11194.0,593.0,215.0,298.0,1.0
2022-05-23 16:26:15.275014-07:00,2062.5,568.2,1519.9,1564.6,1434.1,1378.5,1420.4,1710.0,3432.2,3426.2,2194.2,1824.6,1502.3,3433.4,1493.0,2008.4,3429.8,3424.9,686.4,1367.6,867.9,551.4,1321.4,1982.6,3429.8,3429.8,817.7,1039.2,1344.9,2046.4,1750.2,1159.4,2.0,49.0,-118.0,8370.0,6811.0,-2190.0,-12132.0,425.0,711.0,245.0,-53.0,32.0,-33.0,11582.0,2850.0,-1986.0,-11055.0,707.0,114.0,283.0,1.0
2022-05-23 16:26:15.335040-07:00,2061.5,562.6,1519.9,1564.6,1418.6,1373.0,1420.4,1710.0,3423.7,3429.8,2194.2,1824.6,1499.5,3428.6,1493.0,2008.4,3429.8,3424.9,684.0,1358.5,867.9,551.4,1320.5,1969.7,3429.8,3429.8,813.5,1029.7,1344.9,2046.4,1730.1,1135.7,-25.0,-13.0,-64.0,8381.0,7138.0,-2273.0,-11919.0,993.0,624.0,355.0,-73.0,18.0,3.0,11564.0,3113.0,-2282.0,-10946.0,1207.0,-44.0,134.0,1.0
2022-05-23 16:26:15.365720-07:00,2061.5,562.6,1514.3,1559.0,1418.6,1373.0,1418.6,1687.2,3423.7,3429.8,2183.0,1824.6,1499.5,3428.6,1491.2,1993.5,3429.8,3429.8,684.0,1358.5,865.4,553.8,1320.5,1969.7,3429.8,3426.2,813.5,1029.7,1348.5,2016.4,1730.1,1135.7,-6.0,88.0,-24.0,8366.0,7497.0,-2499.0,-11662.0,634.0,626.0,462.0,-46.0,63.0,15.0,11486.0,3423.0,-2659.0,-10850.0,1043.0,-180.0,98.0,1.0
2022-05-23 16:26:15.425200-07:00,2062.5,568.2,1494.9,1559.0,1400.3,1373.0,1418.6,1687.2,3426.2,3423.7,2221.9,1824.6,1497.7,3424.9,1491.2,1993.5,3429.8,3429.8,685.6,1354.0,865.4,550.6,1330.5,1974.6,3429.8,3426.2,815.2,1034.9,1348.5,2037.4,1729.1,1134.9,0.0,-106.0,-6.0,8415.0,7871.0,-2812.0,-11303.0,1864.0,653.0,1231.0,-39.0,-1.0,23.0,11317.0,3904.0,-3197.0,-10720.0,2405.0,-76.0,-33.0,1.0
2022-05-23 16:26:15.485105-07:00,2062.5,568.2,1494.9,1551.5,1400.3,1363.0,1407.6,1688.1,3426.2,3423.7,2221.9,1856.7,1497.7,3435.8,1595.5,2038.4,3414.1,3421.3,684.0,1354.0,857.9,550.6,1330.5,1974.6,3428.6,3423.7,819.4,1034.9,1336.8,2037.4,1729.1,1134.9,12.0,-66.0,-32.0,8453.0,8418.0,-3612.0,-10634.0,2624.0,724.0,1869.0,-18.0,-71.0,47.0,10957.0,4784.0,-4027.0,-10453.0,3254.0,35.0,-105.0,1.0
2022-05-23 16:26:15.515408-07:00,2084.6,561.0,1511.5,1551.5,1403.0,1363.0,1407.6,1688.1,3432.2,3414.1,2625.4,1856.7,1509.7,3435.8,1595.5,2038.4,3414.1,3421.3,684.0,1346.7,857.9,546.6,1335.0,1982.6,3428.6,3423.7,819.4,1091.2,1336.8,2120.9,1802.3,1131.4,63.0,34.0,-71.0,8333.0,9057.0,-4766.0,-9708.0,3311.0,563.0,2064.0,-17.0,60.0,-52.0,10388.0,5914.0,-4974.0,-10040.0,3929.0,215.0,-199.0,1.0
2022-05-23 16:26:15.605132-07:00,2084.6,561.0,1511.5,1563.7,1403.0,1378.5,1463.5,1726.3,3432.2,3414.1,2625.4,2074.5,1509.7,3431.0,1702.4,2124.0,3418.9,3424.9,684.8,1346.7,862.1,546.6,1335.0,1982.6,3423.7,3421.3,816.0,1091.2,1343.1,2120.9,1802.3,1131.4,18.0,231.0,-161.0,8186.0,9490.0,-5824.0,-8800.0,1793.0,-19.0,1561.0,13.0,94.0,2.0,9880.0,6799.0,-5705.0,-9595.0,2349.0,164.0,-11.0,1.0
2022-05-23 16:26:15.635038-07:00,2054.4,589.1,1519.9,1563.7,1393.0,1378.5,1463.5,1726.3,3434.6,3429.8,2447.3,2074.5,1524.5,3431.0,1702.4,2124.0,3418.9,3424.9,684.8,1372.1,862.1,552.2,1390.3,2045.4,3423.7,3421.3,816.0,1145.4,1343.1,2040.4,1719.6,1125.2,30.0,-37.0,-57.0,8083.0,9562.0,-6553.0,-8291.0,1764.0,-365.0,1209.0,32.0,-32.0,-5.0,9537.0,7322.0,-6132.0,-9289.0,1827.0,124.0,-68.0,1.0
2022-05-23 16:26:15.665313-07:00,2054.4,589.1,1519.9,1554.3,1382.1,1368.5,1487.5,1776.2,3434.6,3429.8,2447.3,1886.0,1544.1,3421.3,1567.4,1991.5,3420.1,3423.7,682.3,1358.5,857.0,552.2,1390.3,2045.4,3426.2,3423.7,815.2,1154.2,1338.6,2040.4,1719.6,1125.2,8.0,-29.0,-23.0,7795.0,9634.0,-7364.0,-7786.0,1931.0,-517.0,1390.0,27.0,-15.0,28.0,9151.0,7851.0,-6556.0,-8949.0,2017.0,143.0,-57.0,1.0
2022-05-23 16:26:15.725017-07:00,2040.4,585.1,1444.2,1525.5,1382.1,1368.5,1487.5,1776.2,3427.4,3423.7,2031.4,1736.8,1544.1,3421.3,1567.4,1991.5,3420.1,3423.7,682.3,1358.5,857.9,551.4,1356.7,2040.4,3426.2,3423.7,815.2,1154.2,1336.8,1907.5,1584.2,1133.1,70.0,141.0,1.0,7437.0,9652.0,-8207.0,-7254.0,1635.0,-435.0,1053.0,-27.0,36.0,-4.0,8737.0,8360.0,-6976.0,-8576.0,1691.0,90.0,-11.0,1.0
2022-05-23 16:26:15.785110-07:00,2040.4,585.1,1444.2,1525.5,1368.5,1368.5,1469.0,1781.0,3427.4,3423.7,2031.4,1736.8,0.0,3434.6,1404.9,1881.1,3421.3,3427.4,688.0,1354.9,857.9,551.4,1356.7,2040.4,3429.8,3429.8,811.0,1121.7,1336.8,1907.5,1584.2,1133.1,-75.0,131.0,-20.0,7215.0,9648.0,-8648.0,-6965.0,591.0,-325.0,308.0,-32.0,11.0,76.0,8529.0,8590.0,-7201.0,-8370.0,588.0,35.0,81.0,1.0
2022-05-23 16:26:15.815349-07:00,2043.4,586.7,1376.6,1503.2,1368.5,1368.5,1469.0,1781.0,3426.2,3426.2,1922.3,1691.9,0.0,3434.6,1404.9,1881.1,3421.3,3427.4,688.0,1354.9,858.7,550.6,1309.7,2004.5,3429.8,3429.8,811.0,1121.7,1322.3,1836.2,1525.5,1128.7,-4.0,42.0,-6.0,7037.0,9579.0,-8816.0,-7031.0,20.0,-542.0,33.0,-56.0,43.0,27.0,8530.0,8595.0,-7212.0,-8354.0,-48.0,-5.0,101.0,1.0
2022-05-23 16:26:15.875116-07:00,2043.4,586.7,1376.6,1503.2,1346.7,1344.9,1460.8,1762.7,3426.2,3426.2,1922.3,1691.9,0.0,3427.4,1339.5,1826.5,3426.2,3418.9,687.2,1346.7,858.7,550.6,1309.7,2004.5,3424.9,3428.6,800.2,1116.5,1322.3,1836.2,1525.5,1128.7,-5.0,14.0,-6.0,6959.0,9492.0,-8899.0,-7122.0,-15.0,-247.0,42.0,-47.0,9.0,3.0,8561.0,8556.0,-7226.0,-8350.0,-54.0,-27.0,93.0,1.0
2022-05-23 16:26:15.965473-07:00,2046.4,580.2,1337.7,1499.5,1346.7,1344.9,1460.8,1738.7,3434.6,3428.6,1880.1,1674.8,0.0,3427.4,1339.5,1791.6,3424.9,3418.9,687.2,1346.7,854.5,549.8,1294.5,1982.6,3423.7,3428.6,800.2,1116.5,1313.3,1797.4,1479.2,1121.7,-6.0,10.0,-36.0,6889.0,9498.0,-8965.0,-7100.0,317.0,-50.0,70.0,-31.0,26.0,-1.0,8531.0,8590.0,-7253.0,-8323.0,267.0,27.0,4.0,1.0
2022-05-23 16:26:15.966918-07:00,2032.4,580.2,1337.7,1499.5,1326.8,1324.1,1457.1,1738.7,3429.8,3428.6,1880.1,1674.8,0.0,3429.8,1304.3,1791.6,3424.9,3420.1,692.9,1351.2,854.5,549.8,1294.5,1965.7,3423.7,3423.7,799.4,1116.5,1313.3,1797.4,1479.2,1109.5,6.0,4.0,-22.0,6843.0,9529.0,-9039.0,-7007.0,233.0,80.0,68.0,-11.0,-11.0,-4.0,8453.0,8669.0,-7308.0,-8271.0,256.0,6.0,-39.0,1.0
2022-05-23 16:26:16.025027-07:00,2032.4,578.6,1317.8,1480.1,1326.8,1324.1,1457.1,1727.2,3429.8,3434.6,1866.4,1654.9,0.0,3429.8,1304.3,1776.2,3418.9,3420.1,692.9,1351.2,858.7,553.8,1281.9,1965.7,3429.8,3423.7,799.4,1116.5,1310.6,1780.1,1462.6,1109.5,31.0,51.0,-8.0,6761.0,9613.0,-9064.0,-6940.0,210.0,39.0,-171.0,9.0,35.0,24.0,8387.0,8732.0,-7337.0,-8247.0,165.0,-13.0,-66.0,1.0
2022-05-23 16:26:16.085103-07:00,2015.4,578.6,1317.8,1480.1,1309.7,1327.8,1445.1,1727.2,3431.0,3434.6,1866.4,1654.9,0.0,3427.4,1291.8,1776.2,3418.9,3423.7,686.4,1350.3,858.7,553.8,1281.9,1954.8,3429.8,3423.7,798.5,1107.8,1310.6,1780.1,1462.6,1119.1,23.0,-58.0,1.0,6769.0,9647.0,-8995.0,-6974.0,-176.0,83.0,-125.0,5.0,-28.0,18.0,8394.0,8713.0,-7311.0,-8284.0,-158.0,-47.0,-26.0,1.0
2022-05-23 16:26:16.115713-07:00,2015.4,579.4,1309.7,1479.2,1309.7,1327.8,1445.1,1728.2,3431.0,3426.2,1849.8,1650.2,0.0,3427.4,1291.8,1772.3,3421.3,3423.7,686.4,1350.3,857.9,551.4,1278.3,1954.8,3429.8,3423.7,798.5,1107.8,1312.4,1752.1,1450.6,1119.1,29.0,-24.0,10.0,6788.0,9638.0,-8982.0,-6984.0,32.0,-44.0,68.0,18.0,-30.0,20.0,8394.0,8691.0,-7312.0,-8305.0,40.0,-50.0,10.0,1.0
2022-05-23 16:26:16.175169-07:00,2005.5,579.4,1309.7,1479.2,1306.1,1316.9,1431.4,1728.2,3418.9,3426.2,1849.8,1650.2,0.0,3422.5,1285.5,1772.3,3421.3,3421.3,685.6,1346.7,857.9,551.4,1278.3,1945.0,3429.8,3423.7,796.0,1099.9,1312.4,1752.1,1450.6,1120.0,25.0,-10.0,0.0,6800.0,9611.0,-9000.0,-6988.0,-109.0,-29.0,60.0,1.0,-14.0,6.0,8388.0,8673.0,-7334.0,-8310.0,-49.0,-59.0,41.0,1.0
2022-05-23 16:26:16.205229-07:00,2005.5,572.2,1299.8,1481.0,1306.1,1316.9,1418.6,1722.4,3418.9,3429.8,1837.2,1642.6,0.0,3422.5,1273.9,1758.9,3421.3,3424.9,685.6,1346.7,854.5,549.0,1275.6,1945.0,3418.9,3427.4,796.0,1099.9,1339.5,1750.2,1442.4,1120.0,19.0,-6.0,0.0,6830.0,9580.0,-8993.0,-7009.0,-75.0,-21.0,22.0,2.0,-7.0,16.0,8400.0,8644.0,-7340.0,-8323.0,-15.0,-29.0,34.0,1.0
2022-05-23 16:26:16.265455-07:00,1988.5,581.0,1299.8,1481.0,1303.4,1299.0,1418.6,1722.4,3418.9,3424.9,1837.2,1642.6,0.0,3431.0,1273.9,1758.9,3421.3,3424.9,684.8,1338.6,854.5,549.0,1289.1,1939.0,3418.9,3427.4,792.7,1098.2,1339.5,1750.2,1445.1,1109.5,-2.0,13.0,17.0,6844.0,9577.0,-8990.0,-7004.0,17.0,53.0,-4.0,-1.0,-5.0,32.0,8397.0,8645.0,-7350.0,-8317.0,51.0,12.0,-5.0,1.0
2022-05-23 16:26:16.325083-07:00,1988.5,581.0,1317.8,1471.8,1303.4,1299.0,1432.3,1733.9,3418.9,3424.9,1865.4,1645.4,0.0,3431.0,1317.8,1767.5,3409.3,3426.2,684.8,1338.6,853.7,551.4,1289.1,1939.0,3422.5,3438.2,792.7,1098.2,1307.9,1769.5,1445.1,1109.5,19.0,17.0,-2.0,6832.0,9590.0,-8998.0,-6987.0,104.0,-9.0,-10.0,-22.0,0.0,12.0,8388.0,8670.0,-7343.0,-8306.0,72.0,58.0,-22.0,1.0
2022-05-23 16:26:16.354964-07:00,1997.5,576.2,1317.8,1471.8,1295.4,1310.6,1432.3,1733.9,3415.3,3426.2,1865.4,1645.4,0.0,3424.9,1317.8,1767.5,3409.3,3426.2,688.0,1338.6,853.7,551.4,1354.0,1934.1,3422.5,3438.2,791.9,1101.7,1307.9,1769.5,1455.2,1112.1,1.0,5.0,-8.0,6840.0,9620.0,-8960.0,-6987.0,-108.0,100.0,-120.0,-7.0,7.0,23.0,8406.0,8672.0,-7321.0,-8305.0,-98.0,39.0,0.0,1.0
2022-05-23 16:26:16.415400-07:00,1997.5,576.2,1325.0,1465.4,1295.4,1310.6,1422.2,1717.7,3415.3,3426.2,1889.9,1641.6,0.0,3424.9,1303.4,1757.0,3426.2,3423.7,688.0,1338.6,851.1,553.8,1354.0,1934.1,3429.8,3427.4,791.9,1101.7,1306.1,1753.1,1455.2,1112.1,15.0,-18.0,-12.0,6861.0,9641.0,-8928.0,-6979.0,13.0,96.0,19.0,-5.0,-9.0,6.0,8413.0,8677.0,-7310.0,-8302.0,56.0,23.0,-7.0,1.0
2022-05-23 16:26:16.475130-07:00,2001.5,581.0,1301.6,1465.4,1287.3,1292.7,1422.2,1717.7,3427.4,3426.2,1874.2,1641.6,3.6,3429.8,1303.4,1757.0,3426.2,3423.7,686.4,1335.0,851.1,546.6,1331.4,1927.2,3429.8,3427.4,789.4,1093.8,1306.1,1740.6,1454.3,1111.2,25.0,2.0,-8.0,6854.0,9651.0,-8956.0,-6937.0,105.0,-23.0,85.0,-1.0,7.0,16.0,8392.0,8702.0,-7327.0,-8283.0,129.0,9.0,-9.0,1.0
2022-05-23 16:26:16.534832-07:00,2001.5,581.0,1301.6,1463.5,1287.3,1290.9,1404.9,1703.3,3427.4,3426.2,1874.2,1634.1,3.6,3428.6,1293.6,1752.1,3433.4,3424.9,685.6,1335.0,852.8,546.6,1331.4,1927.2,3434.6,3432.2,786.1,1093.8,1307.0,1740.6,1454.3,1111.2,9.0,29.0,-8.0,6853.0,9657.0,-8969.0,-6912.0,-61.0,50.0,-33.0,0.0,11.0,20.0,8376.0,8717.0,-7338.0,-8273.0,-36.0,6.0,-12.0,1.0
2022-05-23 16:26:16.565353-07:00,1981.6,574.6,1305.2,1463.5,1282.8,1290.9,1404.9,1703.3,3428.6,3415.3,1864.5,1634.1,0.0,3428.6,1293.6,1752.1,3433.4,3424.9,685.6,1337.7,852.8,549.0,1322.3,1929.2,3434.6,3432.2,786.1,1093.8,1307.0,1736.8,1430.5,1106.0,7.0,-17.0,-28.0,6870.0,9651.0,-8933.0,-6949.0,-67.0,-52.0,-32.0,-5.0,-12.0,21.0,8394.0,8697.0,-7312.0,-8299.0,-72.0,-12.0,-23.0,1.0
2022-05-23 16:26:16.625107-07:00,1981.6,574.6,1305.2,1462.6,1282.8,1292.7,1402.1,1688.1,3428.6,3415.3,1864.5,1627.5,0.0,3428.6,1289.1,1734.9,3423.7,3423.7,682.3,1337.7,849.5,549.0,1322.3,1929.2,3434.6,3424.9,791.0,1093.8,1299.8,1736.8,1430.5,1106.0,37.0,11.0,11.0,6860.0,9616.0,-8951.0,-6984.0,-80.0,-84.0,9.0,0.0,-1.0,2.0,8401.0,8683.0,-7297.0,-8320.0,-101.0,-17.0,-9.0,1.0
2022-05-23 16:26:16.655035-07:00,1982.6,576.2,1302.5,1462.6,1275.6,1292.7,1402.1,1688.1,3423.7,3424.9,1868.4,1627.5,0.0,3428.6,1289.1,1734.9,3423.7,3423.7,682.3,1335.9,849.5,548.2,1396.7,1922.3,3434.6,3424.9,791.0,1099.0,1299.8,1733.0,1433.2,1102.5,17.0,-17.0,2.0,6829.0,9618.0,-8935.0,-7033.0,45.0,-169.0,-165.0,38.0,-29.0,32.0,8431.0,8658.0,-7261.0,-8346.0,-108.0,26.0,-30.0,1.0
2022-05-23 16:26:16.715394-07:00,1982.6,576.2,1302.5,1460.8,1275.6,1300.7,1394.8,1703.3,3423.7,3424.9,1868.4,1629.4,0.0,3427.4,1273.9,1733.0,3433.4,3417.7,686.4,1335.9,856.2,548.2,1396.7,1922.3,3434.6,3437.0,799.4,1099.0,1299.8,1733.0,1433.2,1102.5,46.0,6.0,19.0,6777.0,9606.0,-8921.0,-7117.0,-183.0,-145.0,-214.0,25.0,10.0,0.0,8482.0,8625.0,-7210.0,-8374.0,-282.0,43.0,8.0,1.0
2022-05-23 16:26:16.775990-07:00,1982.6,582.6,1296.3,1458.0,1270.3,1300.7,1394.8,1703.3,3434.6,3435.8,1859.6,1621.8,0.0,3427.4,1273.9,1733.0,3433.4,3417.7,686.4,1333.2,856.2,557.0,1390.3,1937.1,3434.6,3437.0,799.4,1104.3,1295.4,1717.7,1432.3,1097.3,7.0,-73.0,-13.0,6791.0,9581.0,-8871.0,-7200.0,-122.0,-15.0,15.0,-33.0,-11.0,-2.0,8541.0,8578.0,-7166.0,-8399.0,-73.0,5.0,56.0,1.0
2022-05-23 16:26:16.805263-07:00,1982.6,582.6,1296.3,1458.0,1282.8,1289.1,1383.0,1690.0,3434.6,3435.8,1859.6,1621.8,0.0,3426.2,1269.4,1733.0,3422.5,3426.2,681.5,1333.2,856.2,557.0,1390.3,1937.1,3421.3,3432.2,804.4,1099.0,1295.4,1717.7,1432.3,1097.3,-6.0,2.0,-16.0,6845.0,9543.0,-8896.0,-7167.0,-2.0,64.0,191.0,-15.0,-6.0,18.0,8543.0,8566.0,-7200.0,-8380.0,83.0,-32.0,87.0,1.0
2022-05-23 16:26:16.865602-07:00,1994.5,579.4,1299.8,1455.2,1282.8,1289.1,1383.0,1690.0,3426.2,3429.8,1861.5,1616.2,0.0,3426.2,1269.4,1733.0,3422.5,3426.2,681.5,1333.2,849.5,549.0,1381.2,1915.4,3421.3,3432.2,804.4,1099.0,1294.5,1713.8,1419.5,1104.3,-9.0,51.0,-26.0,6854.0,9541.0,-8919.0,-7134.0,40.0,12.0,8.0,-13.0,38.0,27.0,8536.0,8570.0,-7226.0,-8362.0,28.0,-7.0,24.0,1.0
2022-05-23 16:26:16.925132-07:00,1994.5,579.4,1299.8,1455.2,1266.7,1287.3,1355.8,1674.8,3426.2,3429.8,1861.5,1616.2,0.0,3423.7,1257.8,1726.3,3428.6,3421.3,672.5,1330.5,849.5,549.0,1381.2,1915.4,3435.8,3432.2,798.5,1105.1,1294.5,1713.8,1419.5,1104.3,-8.0,13.0,-18.0,6857.0,9536.0,-8916.0,-7140.0,-47.0,-13.0,-2.0,-17.0,17.0,22.0,8536.0,8566.0,-7221.0,-8369.0,-34.0,-18.0,-20.0,1.0
2022-05-23 16:26:16.985120-07:00,1987.5,578.6,1295.4,1461.7,1266.7,1287.3,1355.8,1674.8,3431.0,3426.2,1857.6,1616.2,0.0,3423.7,1257.8,1726.3,3428.6,3421.3,672.5,1330.5,858.7,552.2,1383.0,1911.5,3435.8,3432.2,798.5,1105.1,1294.5,1714.8,1421.3,1105.1,9.0,29.0,-3.0,6907.0,9512.0,-8881.0,-7168.0,-283.0,98.0,9.0,-17.0,29.0,3.0,8560.0,8535.0,-7191.0,-8402.0,-279.0,-22.0,7.0,1.0
2022-05-23 16:26:17.015632-07:00,2030.4,578.6,1295.4,1461.7,1265.8,1302.5,1375.7,1640.7,3427.4,3426.2,1857.6,1616.2,0.0,3431.0,1273.9,1711.9,3428.6,3428.6,680.7,1332.3,858.7,552.2,1383.0,1916.4,3429.8,3428.6,798.5,1106.0,1294.5,1714.8,1421.3,1107.8,55.0,124.0,-94.0,7189.0,9424.0,-8592.0,-7357.0,-1585.0,334.0,-397.0,5.0,40.0,-20.0,8770.0,8298.0,-7013.0,-8572.0,-1503.0,-104.0,118.0,1.0
2022-05-23 16:26:17.075193-07:00,2030.4,572.2,1402.1,1481.0,1265.8,1302.5,1375.7,1674.8,3427.4,3434.6,2159.5,1692.9,0.0,3431.0,1273.9,1796.5,3429.8,3428.6,680.7,1332.3,852.0,552.2,1418.6,1916.4,3426.2,3428.6,798.5,1106.0,1289.1,1864.5,1582.4,1107.8,80.0,138.0,-123.0,7670.0,9150.0,-7795.0,-8069.0,-3334.0,106.0,-1277.0,-9.0,69.0,-55.0,9334.0,7589.0,-6488.0,-9035.0,-3340.0,-262.0,228.0,1.0
2022-05-23 16:26:17.105197-07:00,2292.1,572.2,1402.1,1481.0,1259.6,1433.2,1371.2,1674.8,3431.0,3434.6,2159.5,1692.9,1502.3,3418.9,1464.4,1796.5,3429.8,3421.3,683.1,1331.4,852.0,552.2,1418.6,1944.0,3426.2,3428.6,874.7,1134.9,1289.1,1864.5,1582.4,1105.1,-11.0,-103.0,-145.0,8295.0,8636.0,-6621.0,-9012.0,-3619.0,141.0,-1114.0,-9.0,-36.0,-5.0,9996.0,6566.0,-5737.0,-9617.0,-3449.0,-333.0,212.0,1.0
2022-05-23 16:26:17.165846-07:00,2292.1,606.8,1448.8,1500.4,1259.6,1433.2,1371.2,1630.3,3431.0,3426.2,2532.5,1843.0,1502.3,3418.9,1464.4,2054.4,3417.7,3421.3,683.1,1331.4,853.7,550.6,1597.4,1944.0,3428.6,3428.6,874.7,1134.9,1343.1,2135.1,1845.9,1105.1,0.0,-49.0,-23.0,8697.0,7993.0,-5713.0,-9812.0,-2857.0,-497.0,-887.0,-40.0,-32.0,-45.0,10464.0,5659.0,-5057.0,-10066.0,-2696.0,-327.0,54.0,1.0
2022-05-23 16:26:17.225082-07:00,2337.9,606.8,1448.8,1500.4,1263.1,1539.4,1338.6,1630.3,3423.7,3426.2,2532.5,1843.0,1520.8,3437.0,1715.8,2054.4,3417.7,3418.9,678.2,1332.3,853.7,550.6,1597.4,1986.6,3428.6,3422.5,1017.6,1148.0,1343.1,2135.1,1845.9,1103.4,-51.0,-115.0,-22.0,8902.0,7551.0,-5130.0,-10288.0,-1319.0,-194.0,-366.0,-58.0,-72.0,18.0,10674.0,5091.0,-4660.0,-10338.0,-1233.0,-202.0,-29.0,1.0
2022-05-23 16:26:17.255100-07:00,2337.9,628.6,1488.4,1527.3,1263.1,1539.4,1338.6,1619.9,3423.7,3434.6,2565.9,1944.0,1520.8,3437.0,1715.8,2199.3,3423.7,3418.9,678.2,1332.3,857.9,553.8,1589.9,1986.6,3429.8,3422.5,1017.6,1148.0,1357.6,2234.2,1928.2,1103.4,-89.0,1.0,8.0,9017.0,7228.0,-4786.0,-10582.0,-1225.0,-238.0,-334.0,-80.0,-1.0,53.0,10796.0,4714.0,-4391.0,-10507.0,-1057.0,-210.0,-19.0,1.0
2022-05-23 16:26:17.315413-07:00,2296.2,620.5,1488.4,1527.3,1264.0,1518.0,1331.4,1619.9,3439.5,3422.5,2565.9,1944.0,1544.1,3423.7,1695.7,2199.3,3423.7,3424.9,688.9,1334.1,857.9,553.8,1554.3,2002.5,3429.8,3421.3,1019.4,1129.6,1357.6,2234.2,1867.4,1099.0,91.0,-12.0,21.0,9019.0,7038.0,-4681.0,-10754.0,-108.0,-323.0,-132.0,-16.0,-53.0,0.0,10821.0,4569.0,-4294.0,-10584.0,-167.0,-71.0,-90.0,1.0
2022-05-23 16:26:17.375807-07:00,2296.2,620.5,1679.5,1618.1,1264.0,1518.0,1396.7,1715.8,3439.5,3422.5,2622.1,2044.4,1544.1,3423.7,1634.1,2197.3,3424.9,3421.3,688.9,1334.1,855.3,551.4,1554.3,2002.5,3429.8,3429.8,1019.4,1129.6,1344.9,2167.7,1867.4,1099.0,0.0,98.0,16.0,8946.0,7016.0,-4567.0,-10877.0,-469.0,-41.0,-439.0,24.0,54.0,58.0,10833.0,4468.0,-4197.0,-10654.0,-712.0,-32.0,-51.0,1.0
2022-05-23 16:26:17.466411-07:00,2247.6,614.9,1679.5,1618.1,1255.1,1504.1,1396.7,1715.8,3424.9,3423.7,2622.1,2044.4,1570.2,3432.2,1634.1,2197.3,3424.9,3421.3,686.4,1330.5,855.3,551.4,1516.2,1995.5,3429.8,3429.8,1020.2,1119.1,1344.9,2167.7,1828.4,1094.7,25.0,-89.0,45.0,8989.0,6856.0,-4454.0,-10991.0,-200.0,-318.0,173.0,64.0,-98.0,61.0,10895.0,4294.0,-4036.0,-10724.0,-152.0,39.0,-19.0,1.0
2022-05-23 16:26:17.467555-07:00,2247.6,614.9,1691.9,1633.1,1255.1,1504.1,1396.7,1694.8,3424.9,3423.7,2526.1,1987.5,1570.2,3432.2,1600.2,2175.8,3423.7,3423.7,686.4,1330.5,851.1,555.4,1516.2,1995.5,3432.2,3426.2,1020.2,1119.1,1333.2,2125.0,1828.4,1094.7,74.0,87.0,45.0,9029.0,6763.0,-4513.0,-10991.0,-211.0,-44.0,98.0,42.0,20.0,7.0,10899.0,4287.0,-3999.0,-10737.0,-242.0,2.0,-26.0,1.0
2022-05-23 16:26:17.525624-07:00,2206.5,602.8,1691.9,1633.1,1257.8,1509.7,1396.7,1694.8,3423.7,3427.4,2526.1,1987.5,1571.1,3418.9,1600.2,2175.8,3423.7,3423.7,679.1,1340.4,851.1,555.4,1504.1,1991.5,3432.2,3426.2,1018.5,1106.9,1333.2,2125.0,1796.5,1093.8,61.0,38.0,22.0,9115.0,6673.0,-4330.0,-11049.0,-598.0,212.0,-172.0,24.0,-37.0,0.0,10940.0,4162.0,-3885.0,-10785.0,-482.0,-43.0,-45.0,1.0
2022-05-23 16:26:17.555616-07:00,2206.5,602.8,1682.4,1631.3,1257.8,1496.7,1445.1,1712.9,3423.7,3427.4,2450.4,1976.6,1571.1,3423.7,1573.0,2148.3,3417.7,3429.8,685.6,1340.4,853.7,549.8,1504.1,1991.5,3429.8,3435.8,1009.0,1106.9,1320.5,2095.7,1796.5,1093.8,27.0,32.0,-6.0,9155.0,6634.0,-4077.0,-11136.0,-539.0,163.0,-336.0,47.0,-10.0,38.0,10981.0,4015.0,-3739.0,-10852.0,-619.0,43.0,-32.0,1.0
2022-05-23 16:26:17.645167-07:00,2168.7,604.4,1673.8,1631.3,1255.1,1496.7,1445.1,1712.9,3421.3,3420.1,2395.5,1976.6,1561.8,3423.7,1573.0,2148.3,3417.7,3429.8,685.6,1354.0,853.7,549.8,1453.4,1993.5,3429.8,3435.8,1009.0,1087.7,1320.5,2091.6,1811.0,1092.9,14.0,28.0,-65.0,9149.0,6581.0,-3900.0,-11234.0,-608.0,-49.0,-185.0,0.0,36.0,-11.0,11037.0,3842.0,-3553.0,-10920.0,-701.0,-16.0,13.0,1.0
2022-05-23 16:26:17.675219-07:00,2168.7,604.4,1673.8,1619.9,1255.1,1470.9,1470.0,1711.9,3421.3,3420.1,2395.5,1945.0,1561.8,3420.1,1568.3,2099.7,3416.5,3421.3,684.0,1354.0,849.5,549.8,1453.4,1993.5,3421.3,3424.9,999.6,1087.7,1322.3,2091.6,1811.0,1092.9,42.0,63.0,-32.0,9216.0,6396.0,-3720.0,-11347.0,-751.0,-155.0,-3.0,-7.0,59.0,-10.0,11108.0,3634.0,-3352.0,-10982.0,-771.0,31.0,-11.0,1.0
2022-05-23 16:26:17.705243-07:00,2139.2,605.2,1638.8,1619.9,1264.9,1470.9,1470.0,1711.9,3426.2,3420.1,2366.1,1945.0,1549.7,3420.1,1568.3,2099.7,3416.5,3421.3,684.0,1361.2,849.5,548.2,1413.1,1987.5,3421.3,3424.9,999.6,1076.4,1322.3,2067.5,1788.7,1099.0,33.0,-42.0,8.0,9353.0,6132.0,-3477.0,-11457.0,-833.0,-44.0,-23.0,-23.0,-96.0,-44.0,11182.0,3399.0,-3112.0,-11052.0,-596.0,-10.0,-48.0,1.0
2022-05-23 16:26:17.765810-07:00,2139.2,605.2,1638.8,1605.8,1264.9,1470.9,1455.2,1683.3,3426.2,3420.1,2366.1,1915.4,1549.7,3420.1,1550.6,2092.6,3424.9,3424.9,678.2,1361.2,862.9,548.2,1413.1,1987.5,3437.0,3417.7,988.5,1076.4,1317.8,2067.5,1788.7,1099.0,44.0,147.0,-29.0,9428.0,6005.0,-3233.0,-11534.0,-955.0,103.0,-270.0,33.0,67.0,13.0,11215.0,3219.0,-2916.0,-11126.0,-1119.0,-32.0,-66.0,1.0
2022-05-23 16:26:17.825160-07:00,2122.0,591.5,1609.6,1593.6,1262.2,1470.9,1455.2,1683.3,3429.8,3414.1,2358.8,1888.9,1540.3,3420.1,1550.6,2092.6,3424.9,3424.9,678.2,1360.3,867.1,551.4,1389.4,1981.6,3437.0,3417.7,988.5,1070.3,1316.0,2053.4,1790.7,1102.5,2.0,23.0,-94.0,9532.0,5727.0,-2800.0,-11702.0,-1515.0,-88.0,-191.0,-7.0,44.0,-14.0,11286.0,2814.0,-2545.0,-11254.0,-1335.0,-128.0,-169.0,1.0
2022-05-23 16:26:17.855183-07:00,2122.0,591.5,1609.6,1593.6,1250.6,1459.8,1418.6,1659.6,3429.8,3414.1,2358.8,1888.9,1533.8,3420.1,1538.5,2057.4,3422.5,3418.9,682.3,1378.5,867.1,551.4,1389.4,1981.6,3429.8,3431.0,955.1,1059.9,1316.0,2053.4,1790.7,1102.5,9.0,-4.0,54.0,9673.0,5367.0,-2429.0,-11839.0,-491.0,-63.0,-86.0,-14.0,-46.0,-7.0,11300.0,2480.0,-2267.0,-11378.0,-474.0,-74.0,-206.0,1.0
2022-05-23 16:26:17.915251-07:00,2116.9,600.4,1587.1,1593.6,1250.6,1459.8,1418.6,1659.6,3434.6,3418.9,2319.1,1868.4,1533.8,3420.1,1538.5,2057.4,3422.5,3418.9,682.3,1378.5,875.5,549.0,1373.9,1971.7,3429.8,3431.0,955.1,1059.9,1306.1,2038.4,1761.8,1099.9,-17.0,-50.0,-21.0,9694.0,5262.0,-2249.0,-11904.0,-207.0,94.0,-187.0,-25.0,-59.0,25.0,11262.0,2332.0,-2164.0,-11466.0,-69.0,-126.0,-210.0,1.0
2022-05-23 16:26:17.975083-07:00,2116.9,600.4,1587.1,1593.6,1355.8,1467.2,1422.2,1636.0,3434.6,3418.9,2319.1,1868.4,1535.7,3417.7,1529.2,2051.4,3418.9,3421.3,678.2,1409.4,875.5,549.0,1373.9,1971.7,3428.6,3437.0,935.6,1059.1,1306.1,2038.4,1761.8,1099.9,-30.0,-8.0,13.0,9657.0,5291.0,-2317.0,-11908.0,608.0,-282.0,138.0,2.0,-75.0,40.0,11181.0,2397.0,-2268.0,-11512.0,610.0,-68.0,-141.0,1.0
