Time,P0,P1,P2,P3,P4,P5,P6,P7,P8,P9,P10,P11,P12,P13,P14,P15,P16,P17,P18,P19,P20,P21,P22,P23,P24,P25,P26,P27,P28,P29,P30,P31,ECG,AX0,AY0,AZ0,QW0,QX0,QY0,QZ0,GX0,GY0,GZ0,AX1,AY1,AZ1,QW1,QX1,QY1,QZ1,GX1,GY1,GZ1
2022-05-23 14:00:57.452739-07:00,2042.4,622.2,1192.0,1411.3,1134.9,1198.2,1333.2,1643.5,3429.8,3427.4,1510.6,1367.6,1463.5,3417.7,1112.1,1559.9,3421.3,3423.7,823.5,1382.1,948.3,571.4,1185.0,1741.6,3429.8,3437.0,688.9,1018.5,1286.4,1510.6,1248.8,1123.5,-1.0,-281.0,-17.0,7073.0,9281.0,9349.0,6697.0,1502.0,256.0,332.0,-51.0,-144.0,-35.0,-4003.0,-4078.0,10691.0,11022.0,1799.0,52.0,-392.0,1.0
2022-05-23 14:00:57.512542-07:00,2042.4,622.2,1192.0,1411.3,1130.5,1196.5,1319.6,1638.8,3429.8,3427.4,1510.6,1367.6,1446.0,3422.5,1102.5,1553.4,3422.5,3421.3,820.2,1391.2,948.3,571.4,1185.0,1741.6,3427.4,3421.3,684.0,1018.5,1286.4,1510.6,1248.8,1123.5,-45.0,122.0,34.0,6544.0,9681.0,9502.0,6451.0,847.0,-25.0,639.0,17.0,24.0,72.0,-3737.0,-4360.0,11115.0,10580.0,659.0,72.0,-246.0,1.0
2022-05-23 14:00:57.542649-07:00,2033.4,616.5,1182.3,1408.5,1130.5,1196.5,1319.6,1638.8,3426.2,3429.8,1500.4,1363.0,1446.0,3422.5,1102.5,1553.4,3422.5,3421.3,820.2,1391.2,952.6,570.6,1179.7,1733.9,3427.4,3421.3,684.0,1018.5,1276.5,1515.3,1247.1,1121.7,-55.0,128.0,83.0,6590.0,9746.0,9349.0,6528.0,-619.0,-182.0,-14.0,-68.0,-22.0,88.0,-3691.0,-4439.0,11089.0,10590.0,-648.0,32.0,-209.0,1.0
2022-05-23 14:00:57.662601-07:00,2031.4,616.5,1182.3,1408.5,1127.9,1198.2,1316.9,1636.0,3418.9,3429.8,1500.4,1363.0,1450.6,3421.3,1102.5,1547.8,3418.9,3418.9,826.0,1397.6,952.6,570.6,1179.7,1741.6,3431.0,3429.8,691.3,1014.2,1276.5,1515.3,1247.1,1126.1,-28.0,-55.0,99.0,6931.0,9514.0,9294.0,6596.0,-924.0,-199.0,-579.0,-17.0,-48.0,84.0,-3735.0,-4427.0,10837.0,10837.0,-731.0,42.0,-161.0,1.0
2022-05-23 14:00:57.663588-07:00,2031.4,618.1,1184.1,1408.5,1127.9,1198.2,1316.9,1636.9,3418.9,3426.2,1507.8,1363.0,1450.6,3421.3,1102.5,1547.8,3429.8,3418.9,826.0,1397.6,949.2,573.0,1176.2,1741.6,3418.9,3429.8,691.3,1014.2,1271.2,1512.5,1248.8,1126.1,22.0,-156.0,1.0,7034.0,9420.0,9308.0,6601.0,385.0,80.0,61.0,51.0,-33.0,13.0,-3757.0,-4451.0,10755.0,10902.0,460.0,121.0,6.0,1.0
2022-05-23 14:00:57.692728-07:00,2031.4,618.1,1184.1,1408.5,1133.1,1198.2,1323.2,1636.9,3423.7,3426.2,1507.8,1363.0,1446.0,3424.9,1105.1,1547.8,3429.8,3418.9,825.2,1394.8,949.2,573.0,1176.2,1738.7,3418.9,3426.2,684.0,1013.3,1271.2,1512.5,1248.8,1125.2,120.0,39.0,-67.0,6892.0,9575.0,9317.0,6516.0,303.0,-84.0,201.0,45.0,40.0,-111.0,-3739.0,-4521.0,10872.0,10762.0,179.0,34.0,9.0,1.0
2022-05-23 14:00:57.752119-07:00,2031.4,610.8,1180.6,1407.6,1133.1,1198.2,1323.2,1632.2,3423.7,3429.8,1497.7,1356.7,1446.0,3424.9,1105.1,1554.3,3426.2,3418.9,825.2,1394.8,950.0,566.6,1176.2,1738.7,3418.9,3426.2,684.0,1013.3,1272.1,1508.8,1239.9,1125.2,43.0,-4.0,-64.0,6931.0,9564.0,9310.0,6501.0,-217.0,-144.0,-180.0,16.0,8.0,-23.0,-3732.0,-4513.0,10858.0,10782.0,-308.0,-111.0,-43.0,1.0
2022-05-23 14:00:57.812512-07:00,2014.4,610.8,1180.6,1407.6,1137.5,1193.8,1325.0,1632.2,3421.3,3429.8,1497.7,1356.7,1453.4,3423.7,1108.6,1554.3,3426.2,3423.7,821.0,1389.4,950.0,566.6,1176.2,1731.1,3418.9,3432.2,675.8,1013.3,1272.1,1508.8,1239.9,1120.9,2.0,-18.0,46.0,7102.0,9495.0,9265.0,6481.0,-372.0,-220.0,-197.0,-19.0,-9.0,12.0,-3732.0,-4450.0,10757.0,10908.0,-430.0,-115.0,-12.0,1.0
2022-05-23 14:00:57.842597-07:00,2014.4,614.9,1175.3,1411.3,1137.5,1193.8,1325.0,1631.3,3421.3,3422.5,1509.7,1362.1,1453.4,3423.7,1108.6,1553.4,3429.8,3423.7,821.0,1389.4,944.9,568.2,1178.8,1731.1,3434.6,3432.2,675.8,1013.3,1276.5,1508.8,1239.1,1120.9,-7.0,-73.0,54.0,7220.0,9400.0,9242.0,6522.0,-199.0,69.0,-106.0,-9.0,-28.0,36.0,-3748.0,-4389.0,10667.0,11015.0,-96.0,-47.0,30.0,1.0
2022-05-23 14:00:57.902557-07:00,2011.4,614.1,1175.3,1411.3,1139.2,1207.1,1325.0,1631.3,3426.2,3431.0,1509.7,1362.1,1455.2,3421.3,1097.3,1553.4,3429.8,3418.9,825.2,1391.2,944.9,568.2,1175.3,1733.0,3434.6,3424.9,681.5,1021.9,1276.5,1508.8,1241.7,1126.1,13.0,-30.0,-2.0,7167.0,9410.0,9267.0,6530.0,210.0,91.0,108.0,12.0,5.0,-6.0,-3745.0,-4375.0,10693.0,10997.0,190.0,-27.0,47.0,1.0
2022-05-23 14:00:57.962654-07:00,2011.4,614.1,1170.0,1410.3,1139.2,1207.1,1314.2,1623.7,3426.2,3431.0,1496.7,1363.0,1455.2,3421.3,1115.6,1549.7,3424.9,3426.2,825.2,1391.2,948.3,570.6,1175.3,1733.0,3429.8,3434.6,681.5,1021.9,1275.6,1503.2,1241.7,1126.1,42.0,8.0,-42.0,7118.0,9457.0,9273.0,6508.0,52.0,-81.0,23.0,25.0,11.0,-40.0,-3722.0,-4367.0,10743.0,10959.0,1.0,-82.0,2.0,1.0
2022-05-23 14:00:57.992547-07:00,2015.4,613.3,1170.0,1410.3,1130.5,1203.5,1314.2,1623.7,3429.8,3423.7,1496.7,1363.0,1447.9,3429.8,1115.6,1549.7,3424.9,3426.2,819.4,1388.5,948.3,570.6,1175.3,1729.1,3429.8,3434.6,679.1,1015.9,1275.6,1503.2,1237.3,1120.9,36.0,-24.0,-21.0,7153.0,9455.0,9267.0,6480.0,-36.0,-99.0,-114.0,31.0,5.0,-14.0,-3699.0,-4333.0,10735.0,10988.0,-95.0,-108.0,-25.0,1.0
2022-05-23 14:00:58.083235-07:00,2015.4,613.3,1174.4,1412.2,1130.5,1203.5,1322.3,1639.8,3429.8,3423.7,1495.8,1363.0,1447.9,3429.8,1099.9,1543.1,3414.1,3420.1,819.4,1388.5,944.9,573.0,1175.3,1729.1,3423.7,3422.5,679.1,1015.9,1285.5,1504.1,1237.3,1120.9,41.0,-53.0,24.0,7199.0,9459.0,9244.0,6456.0,-3.0,-85.0,48.0,29.0,-17.0,-6.0,-3678.0,-4304.0,10716.0,11025.0,-15.0,-51.0,-5.0,1.0
2022-05-23 14:00:58.111984-07:00,2017.4,616.5,1174.4,1412.2,1141.9,1191.2,1322.3,1639.8,3431.0,3432.2,1495.8,1363.0,1454.3,3432.2,1099.9,1543.1,3414.1,3420.1,820.2,1384.8,944.9,573.0,1173.5,1734.9,3423.7,3422.5,686.4,1015.1,1285.5,1504.1,1243.5,1125.2,-7.0,0.0,3.0,7193.0,9483.0,9235.0,6440.0,15.0,-39.0,6.0,-14.0,8.0,16.0,-3669.0,-4294.0,10727.0,11021.0,-11.0,-14.0,2.0,1.0
2022-05-23 14:00:58.142490-07:00,2017.4,616.5,1178.8,1413.1,1141.9,1185.9,1318.7,1637.9,3431.0,3432.2,1487.5,1363.0,1454.3,3429.8,1096.4,1545.9,3424.9,3428.6,825.2,1384.8,941.5,569.0,1173.5,1734.9,3439.5,3431.0,684.8,1015.1,1275.6,1505.1,1243.5,1125.2,-10.0,-43.0,4.0,7219.0,9469.0,9225.0,6446.0,-63.0,40.0,-48.0,-38.0,-10.0,-6.0,-3676.0,-4284.0,10711.0,11038.0,-71.0,-5.0,27.0,1.0
2022-05-23 14:00:58.232928-07:00,2015.4,614.1,1180.6,1413.1,1129.6,1185.9,1318.7,1637.9,3441.9,3424.9,1490.3,1363.0,1454.3,3429.8,1096.4,1545.9,3424.9,3428.6,825.2,1392.1,941.5,572.2,1171.8,1734.9,3439.5,3431.0,684.8,1014.2,1275.6,1509.7,1242.6,1122.6,-19.0,-43.0,-11.0,7219.0,9437.0,9247.0,6461.0,-77.0,74.0,-19.0,-21.0,-6.0,-2.0,-3680.0,-4281.0,10702.0,11047.0,-43.0,3.0,66.0,1.0
2022-05-23 14:00:58.234307-07:00,2015.4,614.1,1180.6,1408.5,1129.6,1198.2,1313.3,1626.5,3441.9,3424.9,1490.3,1352.1,1454.3,3423.7,1101.7,1548.7,3423.7,3416.5,825.2,1392.1,944.1,572.2,1171.8,1734.9,3432.2,3429.8,679.1,1014.2,1277.4,1509.7,1242.6,1122.6,23.0,-37.0,-25.0,7221.0,9420.0,9240.0,6494.0,-50.0,20.0,79.0,13.0,-3.0,-28.0,-3706.0,-4254.0,10695.0,11055.0,-18.0,-18.0,80.0,1.0
2022-05-23 14:00:58.292629-07:00,2002.5,616.5,1170.9,1408.5,1128.7,1198.2,1313.3,1626.5,3433.4,3421.3,1486.6,1352.1,1455.2,3423.7,1101.7,1548.7,3423.7,3416.5,825.2,1387.5,944.1,569.8,1178.8,1733.0,3432.2,3429.8,679.1,1015.1,1277.4,1505.1,1243.5,1124.4,39.0,-7.0,-19.0,7209.0,9425.0,9231.0,6513.0,31.0,34.0,-22.0,20.0,6.0,-22.0,-3717.0,-4223.0,10706.0,11053.0,-2.0,-65.0,54.0,1.0
2022-05-23 14:00:58.442695-07:00,2002.5,616.5,1170.9,1413.1,1128.7,1181.5,1314.2,1619.0,3433.4,3421.3,1486.6,1353.1,1455.2,3432.2,1097.3,1551.5,3418.9,3422.5,819.4,1387.5,937.3,569.8,1178.8,1733.0,3433.4,3424.9,679.9,1015.1,1281.9,1505.1,1243.5,1124.4,15.0,0.0,16.0,7215.0,9403.0,9251.0,6511.0,-114.0,17.0,-80.0,18.0,14.0,21.0,-3714.0,-4184.0,10707.0,11068.0,-115.0,-55.0,9.0,1.0
2022-05-23 14:00:58.443729-07:00,2009.4,616.5,1170.9,1413.1,1136.6,1181.5,1314.2,1619.0,3423.7,3422.5,1481.9,1353.1,1450.6,3432.2,1097.3,1551.5,3418.9,3422.5,819.4,1387.5,937.3,570.6,1170.0,1733.0,3433.4,3424.9,679.9,1015.1,1281.9,1501.4,1235.5,1126.1,13.0,-23.0,20.0,7241.0,9373.0,9251.0,6525.0,43.0,19.0,-35.0,9.0,-4.0,11.0,-3716.0,-4173.0,10685.0,11092.0,15.0,28.0,-29.0,1.0
2022-05-23 14:00:58.444418-07:00,2009.4,616.5,1170.9,1396.7,1140.1,1191.2,1307.9,1619.0,3423.7,3422.5,1481.9,1351.2,1459.8,3422.5,1092.1,1546.9,3426.2,3429.8,816.0,1384.8,939.8,570.6,1170.0,1733.0,3418.9,3428.6,677.4,1013.3,1273.9,1501.4,1235.5,1126.1,9.0,-15.0,-5.0,7231.0,9355.0,9276.0,6525.0,-27.0,71.0,-73.0,3.0,0.0,-1.0,-3719.0,-4195.0,10679.0,11089.0,-19.0,59.0,-30.0,1.0
2022-05-23 14:00:58.532454-07:00,2009.4,620.5,1178.8,1407.6,1140.1,1191.2,1307.9,1619.0,3428.6,3422.5,1485.6,1358.5,1459.8,3422.5,1092.1,1546.9,3426.2,3429.8,816.0,1384.8,939.0,566.6,1173.5,1734.9,3418.9,3428.6,677.4,1013.3,1278.3,1504.1,1235.5,1120.9,7.0,-42.0,-22.0,7222.0,9332.0,9303.0,6530.0,49.0,30.0,-15.0,0.0,-1.0,-12.0,-3727.0,-4218.0,10673.0,11083.0,39.0,35.0,-8.0,1.0
2022-05-23 14:00:58.533478-07:00,2009.4,620.5,1178.8,1407.6,1135.7,1200.9,1312.4,1624.7,3428.6,3422.5,1485.6,1358.5,1458.9,3426.2,1099.9,1541.3,3429.8,3427.4,816.0,1382.1,939.0,566.6,1173.5,1734.9,3426.2,3428.6,687.2,1016.8,1278.3,1504.1,1235.5,1120.9,13.0,-22.0,-16.0,7206.0,9337.0,9314.0,6526.0,-27.0,4.0,-22.0,2.0,-1.0,-14.0,-3728.0,-4225.0,10679.0,11075.0,-25.0,-8.0,6.0,1.0
2022-05-23 14:00:58.592464-07:00,1999.5,617.3,1158.6,1400.3,1135.7,1200.9,1312.4,1624.7,3433.4,3423.7,1482.9,1355.8,1458.9,3426.2,1099.9,1541.3,3429.8,3427.4,816.0,1382.1,940.7,573.8,1167.4,1728.2,3426.2,3428.6,687.2,1016.8,1274.7,1506.0,1234.6,1120.9,16.0,-16.0,-5.0,7214.0,9327.0,9320.0,6521.0,-27.0,6.0,-73.0,0.0,1.0,-14.0,-3728.0,-4218.0,10672.0,11084.0,-31.0,-19.0,7.0,1.0
2022-05-23 14:00:58.652467-07:00,1999.5,617.3,1158.6,1400.3,1140.1,1192.0,1322.3,1607.7,3433.4,3423.7,1482.9,1355.8,1454.3,3423.7,1094.7,1550.6,3423.7,3426.2,816.0,1374.8,940.7,573.8,1167.4,1728.2,3427.4,3433.4,689.7,1015.1,1274.7,1506.0,1234.6,1120.9,16.0,-33.0,-1.0,7230.0,9291.0,9332.0,6538.0,-93.0,59.0,-41.0,18.0,-3.0,1.0,-3732.0,-4201.0,10660.0,11101.0,-69.0,-17.0,17.0,1.0
2022-05-23 14:00:58.712543-07:00,2003.5,611.7,1166.5,1408.5,1140.1,1192.0,1322.3,1612.4,3429.8,3426.2,1484.7,1357.6,1454.3,3423.7,1094.7,1544.1,3418.9,3426.2,816.0,1374.8,939.8,571.4,1175.3,1733.0,3429.8,3433.4,689.7,1015.1,1275.6,1499.5,1235.5,1126.1,32.0,-10.0,-6.0,7208.0,9296.0,9346.0,6536.0,196.0,6.0,-28.0,18.0,6.0,-10.0,-3734.0,-4207.0,10677.0,11082.0,149.0,29.0,-20.0,1.0
2022-05-23 14:00:58.743206-07:00,2003.5,611.7,1166.5,1408.5,1140.1,1188.5,1303.4,1612.4,3429.8,3426.2,1484.7,1357.6,1447.9,3428.6,1090.3,1544.1,3418.9,3418.9,816.0,1377.5,939.8,571.4,1175.3,1741.6,3429.8,3424.9,687.2,1012.5,1275.6,1499.5,1235.5,1129.6,22.0,-17.0,0.0,7183.0,9305.0,9389.0,6488.0,28.0,45.0,-98.0,4.0,3.0,-7.0,-3720.0,-4233.0,10698.0,11056.0,21.0,19.0,-47.0,1.0
2022-05-23 14:00:58.803237-07:00,2003.5,612.5,1168.2,1402.1,1140.1,1188.5,1303.4,1634.1,3429.8,3428.6,1486.6,1360.3,1447.9,3428.6,1090.3,1546.9,3421.3,3418.9,816.0,1377.5,931.3,568.2,1181.5,1741.6,3426.2,3424.9,687.2,1012.5,1270.3,1508.8,1239.1,1129.6,-5.0,-42.0,-14.0,7177.0,9282.0,9415.0,6490.0,14.0,51.0,0.0,-9.0,-8.0,-10.0,-3719.0,-4252.0,10693.0,11054.0,15.0,38.0,-21.0,1.0
2022-05-23 14:00:58.832458-07:00,2003.5,612.5,1168.2,1402.1,1133.1,1198.2,1303.4,1634.1,3418.9,3428.6,1486.6,1360.3,1454.3,3434.6,1095.6,1546.9,3421.3,3431.0,816.9,1374.8,931.3,568.2,1181.5,1731.1,3426.2,3437.0,689.7,1018.5,1270.3,1508.8,1239.1,1125.2,13.0,-3.0,-18.0,7159.0,9277.0,9432.0,6493.0,-8.0,47.0,-47.0,-2.0,2.0,-10.0,-3722.0,-4264.0,10697.0,11044.0,2.0,14.0,-2.0,1.0
2022-05-23 14:00:58.892658-07:00,2003.5,621.4,1161.2,1412.2,1133.1,1198.2,1303.4,1624.7,3418.9,3435.8,1486.6,1358.5,1454.3,3434.6,1095.6,1538.5,3421.3,3431.0,816.9,1374.8,939.8,567.4,1180.6,1731.1,3429.8,3437.0,689.7,1018.5,1272.1,1507.8,1234.6,1125.2,7.0,-35.0,-18.0,7162.0,9251.0,9448.0,6502.0,-62.0,42.0,-36.0,0.0,0.0,-6.0,-3726.0,-4262.0,10688.0,11052.0,-49.0,-1.0,10.0,1.0
2022-05-23 14:00:58.952605-07:00,1995.5,621.4,1161.2,1412.2,1130.5,1197.4,1305.2,1624.7,3426.2,3435.8,1486.6,1358.5,1453.4,3440.7,1094.7,1538.5,3421.3,3424.9,816.9,1378.5,939.8,567.4,1180.6,1733.9,3429.8,3429.8,678.2,1019.4,1272.1,1507.8,1234.6,1124.4,21.0,-18.0,-19.0,7162.0,9255.0,9436.0,6515.0,-26.0,-31.0,58.0,8.0,-1.0,-19.0,-3732.0,-4249.0,10686.0,11057.0,-8.0,-20.0,27.0,1.0
2022-05-23 14:00:58.982657-07:00,1995.5,622.2,1163.8,1406.7,1130.5,1197.4,1301.6,1628.4,3426.2,3423.7,1490.3,1350.3,1453.4,3440.7,1096.4,1545.9,3428.6,3422.5,816.9,1378.5,937.3,567.4,1185.0,1733.9,3434.6,3421.3,678.2,1019.4,1280.1,1492.1,1238.2,1124.4,16.0,-5.0,-3.0,7166.0,9268.0,9418.0,6518.0,-50.0,-44.0,2.0,5.0,3.0,-5.0,-3736.0,-4231.0,10687.0,11062.0,-45.0,-27.0,28.0,1.0
2022-05-23 14:00:59.103131-07:00,2001.5,617.3,1163.8,1406.7,1140.1,1189.4,1301.6,1628.4,3432.2,3421.3,1490.3,1350.3,1448.8,3439.5,1096.4,1545.9,3428.6,3422.5,823.5,1375.7,937.3,567.4,1185.0,1725.3,3434.6,3421.3,692.9,1013.3,1280.1,1492.1,1234.6,1125.2,11.0,-9.0,5.0,7186.0,9260.0,9407.0,6523.0,-50.0,-17.0,-29.0,5.0,5.0,0.0,-3740.0,-4212.0,10677.0,11077.0,-53.0,-25.0,17.0,1.0
2022-05-23 14:00:59.103896-07:00,2001.5,617.3,1162.1,1399.4,1140.1,1189.4,1307.9,1624.7,3432.2,3421.3,1494.0,1357.6,1448.8,3439.5,1097.3,1542.2,3421.3,3423.7,823.5,1375.7,935.6,570.6,1185.0,1725.3,3429.8,3423.7,692.9,1013.3,1276.5,1500.4,1234.6,1125.2,17.0,-12.0,3.0,7201.0,9242.0,9404.0,6536.0,-45.0,32.0,-27.0,4.0,1.0,-1.0,-3748.0,-4197.0,10668.0,11089.0,-27.0,-11.0,26.0,1.0
2022-05-23 14:00:59.133071-07:00,1994.5,612.5,1162.1,1399.4,1129.6,1193.8,1307.9,1624.7,3429.8,3418.9,1494.0,1357.6,1452.5,3429.8,1097.3,1542.2,3421.3,3423.7,813.5,1385.7,935.6,570.6,1189.4,1736.8,3429.8,3423.7,688.0,1019.4,1276.5,1500.4,1223.9,1124.4,7.0,1.0,9.0,7201.0,9198.0,9432.0,6558.0,-48.0,135.0,-118.0,0.0,0.0,0.0,-3756.0,-4183.0,10663.0,11097.0,-36.0,-4.0,19.0,1.0
2022-05-23 14:00:59.192638-07:00,1994.5,612.5,1168.2,1396.7,1129.6,1193.8,1307.9,1625.6,3429.8,3418.9,1487.5,1354.0,1452.5,3429.8,1101.7,1542.2,3424.9,3432.2,813.5,1385.7,932.2,570.6,1189.4,1736.8,3429.8,3432.2,688.0,1019.4,1275.6,1504.1,1223.9,1124.4,38.0,13.0,17.0,7178.0,9134.0,9496.0,6581.0,57.0,224.0,-146.0,11.0,-2.0,-21.0,-3762.0,-4192.0,10666.0,11088.0,92.0,49.0,-11.0,1.0
2022-05-23 14:00:59.252460-07:00,1990.5,614.1,1172.6,1396.7,1135.7,1189.4,1307.9,1625.6,3424.9,3424.9,1514.3,1354.0,1452.5,3428.6,1101.7,1542.2,3424.9,3432.2,819.4,1380.3,932.2,573.0,1243.5,1723.4,3429.8,3432.2,687.2,1010.8,1275.6,1502.3,1242.6,1115.6,3.0,-28.0,-14.0,7103.0,9058.0,9642.0,6555.0,276.0,234.0,-310.0,25.0,6.0,12.0,-3745.0,-4235.0,10708.0,11037.0,199.0,55.0,-65.0,1.0
2022-05-23 14:00:59.282620-07:00,1990.5,614.1,1172.6,1404.0,1135.7,1198.2,1309.7,1631.3,3424.9,3424.9,1514.3,1362.1,1452.5,3427.4,1108.6,1548.7,3421.3,3428.6,817.7,1380.3,944.9,573.0,1243.5,1723.4,3431.0,3433.4,679.9,1010.8,1276.5,1502.3,1242.6,1115.6,17.0,-49.0,-34.0,7056.0,9029.0,9735.0,6508.0,72.0,65.0,-34.0,-1.0,3.0,-25.0,-3736.0,-4283.0,10736.0,10994.0,89.0,67.0,-45.0,1.0
2022-05-23 14:00:59.342574-07:00,2007.4,627.8,1162.1,1404.0,1129.6,1198.2,1309.7,1631.3,3429.8,3429.8,1538.5,1362.1,1450.6,3427.4,1108.6,1548.7,3421.3,3428.6,817.7,1378.5,944.9,565.0,1231.9,1731.1,3431.0,3433.4,679.9,1018.5,1276.5,1501.4,1235.5,1113.9,1.0,-20.0,-41.0,7025.0,9039.0,9733.0,6531.0,-44.0,47.0,73.0,-9.0,-5.0,-23.0,-3745.0,-4293.0,10731.0,10992.0,-27.0,9.0,15.0,1.0
2022-05-23 14:00:59.434034-07:00,2007.4,627.8,1162.1,1405.8,1129.6,1189.4,1303.4,1613.4,3429.8,3429.8,1538.5,1357.6,1450.6,3417.7,1099.9,1542.2,3429.8,3429.8,816.0,1378.5,933.9,565.0,1231.9,1731.1,3432.2,3431.0,685.6,1018.5,1275.6,1501.4,1235.5,1113.9,-1.0,-17.0,-17.0,7036.0,9061.0,9705.0,6530.0,-89.0,-134.0,60.0,-4.0,-1.0,-5.0,-3748.0,-4283.0,10723.0,11002.0,-67.0,-30.0,11.0,1.0
2022-05-23 14:00:59.434740-07:00,1992.5,610.8,1167.4,1405.8,1132.2,1189.4,1303.4,1613.4,3423.7,3429.8,1516.2,1357.6,1451.6,3417.7,1099.9,1542.2,3429.8,3429.8,816.0,1375.7,933.9,570.6,1227.5,1729.1,3432.2,3431.0,685.6,1020.2,1275.6,1507.8,1231.9,1114.7,7.0,-15.0,0.0,7080.0,9082.0,9651.0,6533.0,-69.0,-110.0,56.0,0.0,-2.0,-1.0,-3750.0,-4259.0,10706.0,11028.0,-73.0,-44.0,17.0,1.0
2022-05-23 14:00:59.493065-07:00,1992.5,610.8,1167.4,1404.9,1131.4,1196.5,1298.1,1619.9,3423.7,3429.8,1516.2,1357.6,1470.9,3429.8,1096.4,1541.3,3417.7,3417.7,817.7,1376.6,937.3,570.6,1227.5,1729.1,3418.9,3429.8,679.1,1017.6,1276.5,1507.8,1231.9,1114.7,18.0,-9.0,10.0,7103.0,9104.0,9620.0,6524.0,1.0,-87.0,27.0,9.0,0.0,0.0,-3746.0,-4243.0,10700.0,11041.0,-13.0,-27.0,4.0,1.0
2022-05-23 14:00:59.552520-07:00,1997.5,614.1,1170.0,1412.2,1131.4,1196.5,1298.1,1619.9,3429.8,3431.0,1511.5,1354.9,1470.9,3429.8,1096.4,1541.3,3417.7,3417.7,817.7,1376.6,938.1,567.4,1233.7,1734.9,3418.9,3429.8,679.1,1017.6,1275.6,1505.1,1229.3,1119.1,18.0,-13.0,15.0,7106.0,9114.0,9605.0,6529.0,-30.0,11.0,25.0,12.0,-1.0,1.0,-3744.0,-4239.0,10702.0,11041.0,-8.0,-1.0,2.0,1.0
2022-05-23 14:00:59.582640-07:00,1997.5,614.1,1170.0,1412.2,1132.2,1192.9,1302.5,1614.3,3429.8,3431.0,1511.5,1354.9,1449.7,3428.6,1103.4,1546.9,3418.9,3429.8,816.9,1373.9,938.1,567.4,1233.7,1734.9,3433.4,3427.4,679.1,1015.9,1275.6,1505.1,1229.3,1119.1,11.0,1.0,-2.0,7089.0,9113.0,9610.0,6541.0,66.0,47.0,-13.0,6.0,4.0,-6.0,-3748.0,-4244.0,10707.0,11034.0,50.0,28.0,-9.0,1.0
2022-05-23 14:00:59.702582-07:00,1997.5,621.4,1163.8,1404.9,1132.2,1192.9,1302.5,1614.3,3415.3,3426.2,1508.8,1353.1,1449.7,3428.6,1103.4,1546.9,3418.9,3429.8,816.9,1373.9,936.4,569.8,1238.2,1737.8,3433.4,3427.4,679.1,1015.9,1266.7,1510.6,1239.1,1119.1,5.0,-24.0,-2.0,7076.0,9101.0,9634.0,6537.0,-21.0,42.0,-30.0,3.0,2.0,-2.0,-3749.0,-4262.0,10710.0,11023.0,-1.0,31.0,-17.0,1.0
2022-05-23 14:00:59.703875-07:00,1997.5,621.4,1163.8,1404.9,1135.7,1187.6,1301.6,1625.6,3415.3,3426.2,1508.8,1353.1,1444.2,3424.9,1105.1,1548.7,3424.9,3418.9,814.4,1373.0,936.4,569.8,1238.2,1737.8,3429.8,3429.8,683.1,1025.4,1266.7,1510.6,1239.1,1119.1,19.0,-6.0,-12.0,7057.0,9090.0,9645.0,6557.0,4.0,106.0,-6.0,5.0,4.0,-20.0,-3752.0,-4272.0,10717.0,11012.0,37.0,11.0,-7.0,1.0
2022-05-23 14:00:59.732203-07:00,1981.6,618.1,1166.5,1402.1,1135.7,1187.6,1301.6,1625.6,3432.2,3429.8,1516.2,1359.4,1444.2,3424.9,1105.1,1548.7,3424.9,3418.9,814.4,1373.0,937.3,568.2,1239.1,1734.9,3429.8,3429.8,683.1,1025.4,1274.7,1498.6,1231.0,1121.7,-2.0,-18.0,-13.0,7040.0,9064.0,9674.0,6567.0,8.0,45.0,-58.0,2.0,1.0,0.0,-3747.0,-4279.0,10717.0,11010.0,1.0,10.0,-26.0,1.0
2022-05-23 14:00:59.792559-07:00,1990.5,618.1,1166.5,1402.1,1129.6,1188.5,1293.6,1609.6,3424.9,3429.8,1516.2,1359.4,1451.6,3426.2,1106.9,1547.8,3426.2,3421.3,813.5,1374.8,937.3,568.2,1239.1,1725.3,3434.6,3433.4,700.3,1019.4,1274.7,1498.6,1231.0,1118.2,10.0,-29.0,-9.0,7036.0,9059.0,9684.0,6564.0,-1.0,10.0,5.0,0.0,1.0,-7.0,-3742.0,-4283.0,10718.0,11010.0,10.0,9.0,-5.0,1.0
2022-05-23 14:00:59.882431-07:00,1990.5,607.6,1171.8,1401.2,1129.6,1188.5,1293.6,1607.7,3424.9,3426.2,1537.6,1370.3,1451.6,3426.2,1106.9,1550.6,3421.3,3421.3,813.5,1374.8,932.2,569.8,1251.5,1725.3,3418.9,3433.4,700.3,1019.4,1281.9,1508.8,1240.8,1118.2,6.0,-13.0,-7.0,7036.0,9059.0,9677.0,6574.0,-44.0,-7.0,10.0,1.0,-1.0,-6.0,-3743.0,-4282.0,10716.0,11012.0,-29.0,-1.0,-1.0,1.0
2022-05-23 14:00:59.883468-07:00,1990.5,607.6,1171.8,1401.2,1136.6,1198.2,1299.8,1607.7,3424.9,3426.2,1537.6,1370.3,1450.6,3428.6,1105.1,1550.6,3421.3,3432.2,811.9,1379.4,932.2,569.8,1251.5,1730.1,3418.9,3428.6,683.1,1019.4,1281.9,1508.8,1240.8,1115.6,13.0,-10.0,-6.0,7041.0,9064.0,9674.0,6567.0,17.0,-30.0,-10.0,6.0,4.0,-11.0,-3742.0,-4283.0,10715.0,11012.0,14.0,6.0,-11.0,1.0
2022-05-23 14:00:59.972481-07:00,1990.5,605.2,1172.6,1396.7,1136.6,1198.2,1299.8,1610.5,3424.9,3428.6,1546.9,1363.0,1450.6,3428.6,1105.1,1548.7,3426.2,3432.2,811.9,1379.4,933.9,569.8,1267.6,1730.1,3429.8,3428.6,683.1,1019.4,1273.9,1509.7,1238.2,1115.6,17.0,-20.0,-2.0,7046.0,9057.0,9673.0,6574.0,-49.0,20.0,-15.0,8.0,0.0,-6.0,-3742.0,-4283.0,10712.0,11015.0,-25.0,-6.0,-7.0,1.0
2022-05-23 14:01:00.032485-07:00,1992.5,605.2,1172.6,1396.7,1124.4,1195.6,1298.1,1610.5,3431.0,3428.6,1546.9,1363.0,1445.1,3431.0,1111.2,1548.7,3426.2,3429.8,814.4,1374.8,933.9,569.8,1267.6,1737.8,3429.8,3433.4,679.1,1020.2,1273.9,1509.7,1238.2,1115.6,9.0,-14.0,-4.0,7048.0,9052.0,9671.0,6580.0,-7.0,-3.0,-10.0,3.0,0.0,-3.0,-3745.0,-4281.0,10706.0,11021.0,-12.0,-2.0,-5.0,1.0
2022-05-23 14:01:00.033326-07:00,1992.5,607.6,1171.8,1397.6,1124.4,1195.6,1299.0,1630.3,3431.0,3434.6,1547.8,1372.1,1445.1,3431.0,1112.1,1546.9,3421.3,3431.0,814.4,1374.8,939.8,568.2,1269.4,1737.8,3418.9,3429.8,679.1,1020.2,1278.3,1506.9,1248.8,1115.6,1.0,-17.0,-7.0,7049.0,9050.0,9671.0,6581.0,-17.0,-4.0,-4.0,0.0,0.0,-8.0,-3746.0,-4280.0,10704.0,11023.0,-12.0,0.0,-5.0,1.0
2022-05-23 14:01:00.122180-07:00,1991.5,617.3,1171.8,1397.6,1127.9,1188.5,1299.0,1630.3,3434.6,3424.9,1547.8,1372.1,1443.3,3434.6,1112.1,1546.9,3421.3,3431.0,811.0,1378.5,939.8,568.2,1267.6,1735.8,3418.9,3429.8,679.1,1019.4,1278.3,1506.9,1248.0,1121.7,5.0,-18.0,-14.0,7050.0,9051.0,9667.0,6586.0,-30.0,-5.0,15.0,0.0,0.0,-12.0,-3746.0,-4280.0,10704.0,11023.0,-13.0,-9.0,7.0,1.0
2022-05-23 14:01:00.182169-07:00,1991.5,617.3,1170.0,1407.6,1127.9,1188.5,1296.3,1611.5,3434.6,3424.9,1553.4,1362.1,1443.3,3434.6,1109.5,1548.7,3420.1,3417.7,811.0,1378.5,935.6,570.6,1267.6,1735.8,3433.4,3427.4,679.1,1019.4,1277.4,1513.4,1248.0,1121.7,6.0,-15.0,-11.0,7056.0,9053.0,9658.0,6589.0,-23.0,-34.0,6.0,5.0,4.0,-8.0,-3744.0,-4274.0,10700.0,11030.0,-17.0,-23.0,0.0,1.0
2022-05-23 14:01:00.183250-07:00,1974.6,614.1,1170.0,1407.6,1125.2,1190.3,1296.3,1611.5,3429.8,3429.8,1553.4,1362.1,1456.2,3429.8,1109.5,1548.7,3420.1,3417.7,807.7,1373.0,935.6,570.6,1265.8,1732.0,3433.4,3427.4,679.1,1023.7,1277.4,1513.4,1242.6,1113.9,10.0,-15.0,-2.0,7066.0,9056.0,9649.0,6587.0,-19.0,-17.0,0.0,4.0,2.0,-3.0,-3744.0,-4269.0,10696.0,11036.0,-25.0,-9.0,-3.0,1.0
2022-05-23 14:01:00.242063-07:00,1974.6,614.1,1163.0,1407.6,1125.2,1190.3,1294.5,1596.4,3429.8,3429.8,1545.0,1368.5,1456.2,3429.8,1107.8,1548.7,3414.1,3418.9,807.7,1373.0,934.7,567.4,1265.8,1732.0,3415.3,3426.2,679.1,1023.7,1273.0,1515.3,1242.6,1113.9,8.0,-13.0,-4.0,7071.0,9056.0,9645.0,6588.0,-7.0,-18.0,1.0,4.0,0.0,-3.0,-3744.0,-4266.0,10693.0,11040.0,2.0,-7.0,-5.0,1.0
2022-05-23 14:01:00.332103-07:00,1999.5,609.2,1163.0,1407.6,1135.7,1191.2,1294.5,1596.4,3429.8,3418.9,1545.0,1368.5,1447.9,3431.0,1107.8,1548.7,3414.1,3418.9,816.0,1384.8,934.7,567.4,1263.1,1733.9,3415.3,3426.2,683.1,1017.6,1273.0,1515.3,1242.6,1114.7,6.0,-12.0,-1.0,7075.0,9055.0,9648.0,6581.0,5.0,-8.0,-25.0,5.0,2.0,0.0,-3742.0,-4268.0,10693.0,11040.0,6.0,-1.0,-10.0,1.0
2022-05-23 14:01:00.333353-07:00,1999.5,609.2,1175.3,1400.3,1135.7,1193.8,1289.1,1616.2,3429.8,3418.9,1541.3,1367.6,1447.9,3432.2,1111.2,1548.7,3429.8,3422.5,814.4,1384.8,933.9,569.8,1263.1,1733.9,3424.9,3427.4,681.5,1017.6,1273.9,1511.5,1242.6,1114.7,14.0,-24.0,-8.0,7074.0,9051.0,9646.0,6590.0,-24.0,34.0,16.0,3.0,-5.0,-12.0,-3741.0,-4268.0,10694.0,11039.0,11.0,0.0,-5.0,1.0
2022-05-23 14:01:00.392523-07:00,1991.5,614.1,1163.8,1400.3,1132.2,1193.8,1289.1,1616.2,3418.9,3429.8,1540.3,1367.6,1440.5,3432.2,1111.2,1548.7,3429.8,3422.5,814.4,1374.8,933.9,567.4,1255.1,1733.9,3424.9,3427.4,681.5,1011.6,1273.9,1504.1,1241.7,1120.0,8.0,-15.0,-10.0,7067.0,9051.0,9648.0,6594.0,-17.0,-3.0,1.0,3.0,2.0,-11.0,-3741.0,-4269.0,10694.0,11039.0,-12.0,-4.0,-3.0,1.0
2022-05-23 14:01:00.452612-07:00,1991.5,614.1,1163.8,1399.4,1132.2,1188.5,1307.9,1612.4,3418.9,3429.8,1540.3,1359.4,1440.5,3423.7,1104.3,1544.1,3411.7,3429.8,816.0,1374.8,932.2,567.4,1255.1,1733.9,3426.2,3423.7,679.9,1011.6,1273.0,1504.1,1241.7,1120.0,8.0,-15.0,-6.0,7068.0,9051.0,9644.0,6600.0,-23.0,-4.0,14.0,5.0,2.0,-3.0,-3740.0,-4266.0,10694.0,11041.0,-6.0,-12.0,2.0,1.0
2022-05-23 14:01:00.482867-07:00,1995.5,602.8,1163.8,1399.4,1126.1,1188.5,1307.9,1612.4,3435.8,3420.1,1539.4,1359.4,1448.8,3423.7,1104.3,1544.1,3411.7,3429.8,816.0,1383.0,932.2,570.6,1256.0,1731.1,3426.2,3423.7,679.9,1024.5,1273.0,1506.9,1248.0,1115.6,10.0,-15.0,-4.0,7069.0,9051.0,9638.0,6607.0,-4.0,-4.0,11.0,5.0,0.0,-6.0,-3736.0,-4261.0,10693.0,11044.0,0.0,-12.0,5.0,1.0
2022-05-23 14:01:00.543207-07:00,1995.5,602.8,1163.8,1404.9,1126.1,1189.4,1290.9,1612.4,3435.8,3420.1,1539.4,1374.8,1448.8,3431.0,1105.1,1545.0,3427.4,3432.2,814.4,1383.0,932.2,570.6,1256.0,1731.1,3429.8,3428.6,699.5,1024.5,1284.6,1506.9,1248.0,1115.6,6.0,-17.0,1.0,7069.0,9053.0,9635.0,6610.0,-19.0,12.0,23.0,-1.0,-1.0,-8.0,-3737.0,-4259.0,10694.0,11044.0,3.0,-1.0,12.0,1.0
2022-05-23 14:01:00.602532-07:00,1976.6,616.5,1170.9,1405.8,1119.1,1189.4,1290.9,1612.4,3423.7,3421.3,1536.6,1360.3,1446.0,3431.0,1105.1,1545.0,3427.4,3432.2,814.4,1373.9,935.6,569.8,1248.8,1729.1,3429.8,3428.6,699.5,1021.1,1273.0,1506.9,1244.4,1126.1,3.0,-7.0,-14.0,7057.0,9056.0,9636.0,6616.0,15.0,6.0,5.0,1.0,6.0,-5.0,-3735.0,-4260.0,10699.0,11039.0,19.0,8.0,0.0,1.0
2022-05-23 14:01:00.632611-07:00,1976.6,616.5,1170.9,1405.8,1133.1,1190.3,1283.7,1603.0,3423.7,3421.3,1536.6,1360.3,1448.8,3429.8,1099.9,1543.1,3427.4,3421.3,814.4,1379.4,935.6,569.8,1248.8,1729.1,3423.7,3432.2,680.7,1015.9,1273.0,1506.9,1244.4,1126.1,19.0,-19.0,-8.0,7054.0,9058.0,9636.0,6616.0,-15.0,9.0,4.0,12.0,0.0,-18.0,-3735.0,-4260.0,10700.0,11038.0,-4.0,1.0,-2.0,1.0
2022-05-23 14:01:00.692703-07:00,1983.6,609.2,1167.4,1396.7,1133.1,1190.3,1283.7,1603.0,3418.9,3426.2,1531.0,1361.2,1448.8,3429.8,1099.9,1543.1,3427.4,3421.3,814.4,1379.4,939.0,570.6,1254.2,1725.3,3423.7,3432.2,680.7,1015.9,1270.3,1499.5,1248.8,1122.6,14.0,-13.0,-7.0,7049.0,9061.0,9636.0,6618.0,-14.0,-8.0,8.0,9.0,0.0,-10.0,-3735.0,-4260.0,10700.0,11038.0,-1.0,-9.0,2.0,1.0
2022-05-23 14:01:00.752500-07:00,1983.6,609.2,1167.4,1396.7,1128.7,1181.5,1281.0,1596.4,3418.9,3426.2,1531.0,1361.2,1447.0,3422.5,1106.0,1546.9,3417.7,3421.3,811.9,1375.7,939.0,570.6,1254.2,1725.3,3426.2,3431.0,677.4,1022.8,1270.3,1499.5,1248.8,1122.6,0.0,-12.0,-4.0,7051.0,9061.0,9630.0,6624.0,-15.0,0.0,11.0,0.0,0.0,-3.0,-3732.0,-4256.0,10700.0,11041.0,-5.0,-14.0,6.0,1.0
2022-05-23 14:01:00.782545-07:00,1988.5,607.6,1160.3,1415.8,1128.7,1181.5,1281.0,1596.4,3429.8,3418.9,1534.8,1358.5,1447.0,3422.5,1106.0,1546.9,3417.7,3421.3,811.9,1375.7,931.3,569.8,1256.9,1733.9,3426.2,3431.0,677.4,1022.8,1270.3,1509.7,1239.1,1120.9,2.0,-19.0,-5.0,7050.0,9063.0,9627.0,6627.0,-21.0,12.0,24.0,-1.0,0.0,-9.0,-3733.0,-4256.0,10700.0,11041.0,5.0,-3.0,11.0,1.0
2022-05-23 14:01:00.842763-07:00,1988.5,607.6,1160.3,1415.8,1120.9,1189.4,1285.5,1592.7,3429.8,3418.9,1534.8,1358.5,1452.5,3424.9,1105.1,1541.3,3429.8,3422.5,819.4,1369.4,931.3,569.8,1256.9,1733.9,3428.6,3428.6,682.3,1015.9,1270.3,1509.7,1239.1,1120.9,2.0,-8.0,-15.0,7044.0,9065.0,9621.0,6638.0,20.0,-4.0,10.0,0.0,1.0,-6.0,-3733.0,-4254.0,10706.0,11036.0,19.0,-12.0,3.0,1.0
2022-05-23 14:01:00.932564-07:00,1985.6,610.0,1160.3,1396.7,1120.9,1189.4,1285.5,1594.6,3421.3,3427.4,1541.3,1364.8,1452.5,3424.9,1105.1,1544.1,3422.5,3422.5,819.4,1369.4,938.1,565.0,1252.4,1728.2,3429.8,3428.6,682.3,1015.9,1272.1,1506.9,1239.9,1114.7,11.0,-22.0,-9.0,7049.0,9068.0,9617.0,6636.0,-42.0,-16.0,18.0,10.0,0.0,-11.0,-3729.0,-4250.0,10706.0,11038.0,-16.0,-12.0,9.0,1.0
2022-05-23 14:01:00.962546-07:00,1982.6,610.0,1160.3,1396.7,1136.6,1178.8,1284.6,1594.6,3432.2,3427.4,1541.3,1364.8,1442.4,3423.7,1105.1,1544.1,3422.5,3424.9,816.0,1374.8,938.1,565.0,1252.4,1727.2,3429.8,3426.2,688.0,1019.4,1272.1,1506.9,1239.9,1118.2,6.0,-8.0,-5.0,7056.0,9071.0,9601.0,6647.0,-30.0,-17.0,19.0,7.0,4.0,-5.0,-3725.0,-4239.0,10706.0,11044.0,-10.0,-26.0,3.0,1.0
2022-05-23 14:01:00.992549-07:00,1982.6,612.5,1163.8,1403.0,1136.6,1178.8,1284.6,1581.4,3432.2,3428.6,1532.9,1361.2,1442.4,3423.7,1105.1,1548.7,3429.8,3424.9,816.0,1374.8,924.5,570.6,1258.7,1727.2,3423.7,3426.2,688.0,1019.4,1271.2,1501.4,1241.7,1118.2,7.0,-20.0,3.0,7068.0,9071.0,9591.0,6651.0,-41.0,-4.0,15.0,6.0,-2.0,-3.0,-3720.0,-4233.0,10707.0,11047.0,-7.0,-20.0,9.0,1.0
2022-05-23 14:01:01.082682-07:00,1979.6,612.5,1163.8,1403.0,1131.4,1190.3,1282.8,1581.4,3418.9,3428.6,1532.9,1361.2,1445.1,3429.8,1108.6,1548.7,3429.8,3427.4,816.0,1375.7,924.5,570.6,1258.7,1733.9,3423.7,3423.7,678.2,1015.1,1271.2,1501.4,1241.7,1119.1,10.0,-9.0,0.0,7067.0,9072.0,9577.0,6669.0,-59.0,42.0,61.0,4.0,11.0,-5.0,-3714.0,-4224.0,10715.0,11045.0,29.0,-31.0,16.0,1.0
2022-05-23 14:01:01.083931-07:00,1979.6,603.6,1174.4,1410.3,1131.4,1190.3,1282.8,1595.5,3418.9,3426.2,1572.1,1367.6,1445.1,3429.8,1108.6,1554.3,3422.5,3427.4,816.0,1375.7,936.4,565.8,1279.2,1733.9,3428.6,3423.7,678.2,1015.1,1275.6,1506.9,1250.6,1119.1,1.0,-7.0,-16.0,7055.0,9065.0,9564.0,6709.0,48.0,47.0,24.0,4.0,-7.0,-2.0,-3709.0,-4216.0,10729.0,11035.0,61.0,-3.0,9.0,1.0
2022-05-23 14:01:01.173334-07:00,1983.6,607.6,1174.4,1410.3,1128.7,1191.2,1282.8,1595.5,3426.2,3431.0,1572.1,1367.6,1439.6,3429.8,1148.9,1554.3,3422.5,3417.7,810.2,1375.7,936.4,565.8,1301.6,1729.1,3428.6,3434.6,681.5,1042.6,1275.6,1506.9,1243.5,1118.2,9.0,-17.0,-9.0,7044.0,9068.0,9581.0,6694.0,9.0,-34.0,-52.0,11.0,2.0,-8.0,-3701.0,-4223.0,10735.0,11030.0,-9.0,0.0,-22.0,1.0
2022-05-23 14:01:01.174306-07:00,1983.6,607.6,1173.5,1404.0,1128.7,1191.2,1276.5,1588.9,3426.2,3431.0,1606.8,1380.3,1439.6,3429.8,1148.9,1551.5,3416.5,3414.1,810.2,1375.7,930.5,573.0,1301.6,1729.1,3427.4,3424.9,681.5,1042.6,1274.7,1508.8,1243.5,1118.2,14.0,-17.0,-6.0,7053.0,9065.0,9582.0,6686.0,9.0,7.0,15.0,9.0,-1.0,-9.0,-3700.0,-4225.0,10733.0,11032.0,1.0,-3.0,1.0,1.0
2022-05-23 14:01:01.232350-07:00,1986.6,613.3,1173.5,1404.0,1125.2,1188.5,1276.5,1588.9,3432.2,3426.2,1606.8,1380.3,1447.9,3429.8,1148.9,1551.5,3416.5,3414.1,813.5,1373.0,930.5,573.0,1292.7,1719.6,3427.4,3424.9,697.9,1028.8,1274.7,1508.8,1243.5,1126.1,0.0,-9.0,-9.0,7052.0,9065.0,9582.0,6687.0,-7.0,-9.0,-16.0,3.0,6.0,1.0,-3701.0,-4224.0,10730.0,11034.0,-18.0,1.0,-11.0,1.0
2022-05-23 14:01:01.292701-07:00,1986.6,613.3,1175.3,1404.0,1125.2,1188.5,1286.4,1588.9,3432.2,3426.2,1621.8,1373.9,1447.9,3429.8,1141.9,1559.9,3416.5,3429.8,813.5,1373.0,928.8,569.8,1292.7,1719.6,3424.9,3422.5,697.9,1028.8,1283.7,1510.6,1243.5,1126.1,5.0,-11.0,-11.0,7053.0,9059.0,9587.0,6687.0,11.0,17.0,-15.0,5.0,1.0,-5.0,-3699.0,-4226.0,10727.0,11038.0,-8.0,4.0,-17.0,1.0
2022-05-23 14:01:01.322657-07:00,1980.6,602.8,1175.3,1404.0,1136.6,1199.1,1286.4,1588.9,3432.2,3417.7,1621.8,1373.9,1446.0,3427.4,1141.9,1559.9,3416.5,3429.8,815.2,1369.4,928.8,569.8,1289.1,1726.3,3424.9,3422.5,680.7,1029.7,1283.7,1510.6,1238.2,1114.7,18.0,-16.0,-4.0,7054.0,9051.0,9596.0,6685.0,-12.0,20.0,-33.0,16.0,4.0,-15.0,-3697.0,-4229.0,10718.0,11046.0,-36.0,7.0,-16.0,1.0
2022-05-23 14:01:01.412549-07:00,1980.6,602.8,1182.3,1407.6,1136.6,1189.4,1275.6,1570.2,3432.2,3417.7,1598.3,1381.2,1446.0,3424.9,1141.0,1552.5,3423.7,3429.8,815.2,1369.4,936.4,568.2,1289.1,1726.3,3418.9,3421.3,684.8,1029.7,1273.9,1509.7,1238.2,1114.7,9.0,-12.0,-15.0,7054.0,9044.0,9602.0,6685.0,14.0,-13.0,-10.0,12.0,1.0,-7.0,-3698.0,-4232.0,10714.0,11048.0,-5.0,7.0,-17.0,1.0
2022-05-23 14:01:01.442774-07:00,1990.5,610.8,1177.0,1407.6,1134.0,1189.4,1275.6,1570.2,3422.5,3421.3,1591.7,1381.2,1449.7,3424.9,1141.0,1552.5,3423.7,3429.8,815.2,1375.7,936.4,565.8,1257.8,1730.1,3418.9,3421.3,684.8,1020.2,1273.9,1507.8,1240.8,1126.1,-1.0,-19.0,-8.0,7059.0,9048.0,9599.0,6679.0,-21.0,-25.0,5.0,2.0,1.0,-4.0,-3697.0,-4233.0,10711.0,11051.0,-5.0,-5.0,-3.0,1.0
2022-05-23 14:01:01.472683-07:00,1990.5,610.8,1177.0,1405.8,1134.0,1190.3,1270.3,1581.4,3422.5,3421.3,1591.7,1370.3,1449.7,3418.9,1133.1,1550.6,3426.2,3415.3,811.0,1375.7,928.8,565.8,1257.8,1730.1,3431.0,3431.0,679.1,1020.2,1278.3,1507.8,1240.8,1126.1,9.0,-3.0,2.0,7064.0,9051.0,9595.0,6675.0,6.0,-2.0,-16.0,0.0,4.0,-7.0,-3697.0,-4234.0,10710.0,11051.0,-15.0,-7.0,-2.0,1.0
2022-05-23 14:01:01.562592-07:00,1987.5,606.0,1186.7,1405.8,1134.9,1190.3,1270.3,1581.4,3422.5,3423.7,1758.9,1370.3,1447.9,3418.9,1133.1,1550.6,3426.2,3415.3,811.0,1382.1,928.8,565.8,1270.3,1730.1,3431.0,3431.0,679.1,1024.5,1278.3,1519.0,1243.5,1118.2,4.0,-11.0,2.0,7071.0,9023.0,9610.0,6683.0,-23.0,52.0,-66.0,4.0,3.0,-12.0,-3698.0,-4233.0,10710.0,11052.0,28.0,3.0,-5.0,1.0
2022-05-23 14:01:01.622589-07:00,1987.5,606.0,1186.7,1401.2,1134.9,1217.7,1263.1,1573.9,3422.5,3423.7,1758.9,1486.6,1447.9,3428.6,1208.9,1574.9,3417.7,3416.5,813.5,1382.1,930.5,565.8,1270.3,1730.1,3428.6,3432.2,691.3,1024.5,1275.6,1519.0,1243.5,1118.2,-9.0,-23.0,-24.0,7061.0,8962.0,9653.0,6715.0,-103.0,167.0,-104.0,12.0,0.0,3.0,-3699.0,-4241.0,10709.0,11049.0,4.0,24.0,-14.0,1.0
2022-05-23 14:01:01.623824-07:00,1976.6,612.5,1440.5,1401.2,1133.1,1217.7,1263.1,1573.9,3426.2,3418.9,2434.6,1486.6,1444.2,3428.6,1208.9,1574.9,3417.7,3416.5,813.5,1365.7,930.5,567.4,1372.1,1747.3,3428.6,3432.2,691.3,1024.5,1275.6,1839.1,1568.3,1115.6,-11.0,3.0,-19.0,7049.0,8903.0,9704.0,6733.0,-71.0,190.0,-150.0,2.0,7.0,-18.0,-3694.0,-4255.0,10712.0,11043.0,-20.0,0.0,-23.0,1.0
2022-05-23 14:01:01.682759-07:00,1976.6,612.5,1440.5,1523.6,1151.5,1354.9,1283.7,1577.7,3426.2,3418.9,2434.6,1824.6,1511.5,3429.8,1706.2,2003.5,3422.5,3424.9,812.7,1375.7,936.4,567.4,1372.1,1747.3,3432.2,3423.7,707.7,1054.8,1281.0,1839.1,1568.3,1115.6,17.0,-5.0,14.0,7062.0,8776.0,9799.0,6746.0,-94.0,314.0,-466.0,22.0,25.0,-23.0,-3670.0,-4260.0,10701.0,11060.0,-69.0,-61.0,-99.0,1.0
2022-05-23 14:01:01.772624-07:00,1981.6,611.7,1974.6,1916.4,1151.5,1354.9,1283.7,1577.7,3429.8,3429.8,2687.5,2125.0,1511.5,3429.8,1706.2,2003.5,3422.5,3424.9,812.7,1375.7,931.3,565.8,1394.8,1895.8,3432.2,3423.7,707.7,1054.8,1327.8,2196.3,1914.4,1116.5,-29.0,-110.0,9.0,7068.0,8608.0,9915.0,6788.0,-83.0,208.0,-101.0,7.0,-38.0,37.0,-3647.0,-4283.0,10693.0,11066.0,138.0,64.0,-40.0,1.0
2022-05-23 14:01:01.773802-07:00,1981.6,611.7,1974.6,1916.4,1187.6,1392.1,1286.4,1568.3,3429.8,3429.8,2687.5,2125.0,1560.9,3429.8,1717.7,2294.2,3418.9,3422.5,817.7,1375.7,931.3,565.8,1394.8,1895.8,3427.4,3433.4,722.5,1055.6,1327.8,2196.3,1914.4,1116.5,24.0,-35.0,-38.0,6956.0,8690.0,9925.0,6785.0,361.0,11.0,341.0,6.0,1.0,-15.0,-3629.0,-4355.0,10794.0,10945.0,493.0,106.0,-5.0,1.0
2022-05-23 14:01:01.862576-07:00,2006.4,608.4,1990.5,2021.4,1187.6,1392.1,1286.4,1568.3,3427.4,3431.0,2576.6,2176.9,1560.9,3429.8,1717.7,2294.2,3418.9,3422.5,817.7,1375.7,933.9,565.8,1412.2,2100.7,3427.4,3433.4,722.5,1055.6,1366.6,2248.7,1940.0,1112.1,16.0,32.0,-43.0,6829.0,8849.0,9899.0,6745.0,291.0,-115.0,307.0,9.0,-13.0,-31.0,-3596.0,-4423.0,10923.0,10800.0,465.0,83.0,-22.0,1.0
2022-05-23 14:01:01.892837-07:00,2006.4,608.4,1990.5,2021.4,1200.0,1385.7,1287.3,1574.9,3427.4,3431.0,2576.6,2176.9,1603.0,3429.8,1680.5,2322.2,3417.7,3418.9,818.5,1374.8,933.9,565.8,1412.2,2100.7,3424.9,3431.0,738.1,1054.8,1366.6,2248.7,1940.0,1112.1,28.0,37.0,35.0,6798.0,8973.0,9849.0,6686.0,64.0,-105.0,94.0,0.0,33.0,-40.0,-3566.0,-4472.0,10993.0,10718.0,129.0,-7.0,-47.0,1.0
2022-05-23 14:01:01.922981-07:00,2050.4,619.7,1951.9,2056.4,1200.0,1385.7,1287.3,1634.1,3428.6,3428.6,2493.0,2173.8,1603.0,3429.8,1680.5,2324.3,3431.0,3418.9,818.5,1374.8,931.3,569.0,1416.7,2118.9,3418.9,3431.0,738.1,1054.8,1383.9,2234.2,1926.2,1109.5,-32.0,-17.0,-84.0,6855.0,8978.0,9754.0,6759.0,-440.0,-271.0,268.0,9.0,11.0,22.0,-3564.0,-4469.0,10973.0,10741.0,-91.0,-22.0,-3.0,1.0
2022-05-23 14:01:01.982686-07:00,2108.8,619.7,1951.9,2056.4,1239.9,1383.9,1361.2,1634.1,3429.8,3428.6,2493.0,2173.8,1634.1,3423.7,1636.9,2324.3,3431.0,3426.2,824.4,1380.3,931.3,569.0,1416.7,2224.0,3418.9,3423.7,744.7,1059.9,1383.9,2234.2,1926.2,1116.5,41.0,-73.0,-60.0,6990.0,9075.0,9558.0,6772.0,-113.0,-388.0,153.0,2.0,-7.0,-36.0,-3566.0,-4457.0,10953.0,10765.0,-55.0,-34.0,-31.0,1.0
2022-05-23 14:01:02.042892-07:00,2108.8,626.2,1879.1,2054.4,1239.9,1383.9,1361.2,1711.9,3429.8,3428.6,2420.8,2136.1,1634.1,3423.7,1636.9,2367.2,3424.9,3426.2,824.4,1380.3,936.4,572.2,1399.4,2224.0,3428.6,3423.7,744.7,1059.9,1510.6,2235.3,1933.1,1116.5,51.0,68.0,-21.0,7071.0,9180.0,9400.0,6768.0,-168.0,-538.0,416.0,-14.0,28.0,-28.0,-3546.0,-4429.0,10957.0,10780.0,33.0,-89.0,24.0,1.0
2022-05-23 14:01:02.072668-07:00,2172.8,626.2,1879.1,2054.4,1316.0,1354.9,1497.7,1711.9,3423.7,3428.6,2420.8,2136.1,1698.6,3424.9,1578.6,2367.2,3424.9,3423.7,831.1,1387.5,936.4,572.2,1399.4,2353.5,3428.6,3433.4,748.8,1041.8,1510.6,2235.3,1933.1,1118.2,7.0,-63.0,10.0,7217.0,9213.0,9230.0,6802.0,-416.0,-176.0,-14.0,23.0,-38.0,9.0,-3529.0,-4378.0,10928.0,10834.0,-271.0,-130.0,4.0,1.0
2022-05-23 14:01:02.132543-07:00,2172.8,732.3,1829.4,2089.6,1316.0,1354.9,1497.7,1786.8,3423.7,3423.7,2380.8,2110.8,1698.6,3424.9,1578.6,2341.0,3414.1,3423.7,831.1,1387.5,936.4,570.6,1371.2,2353.5,3433.4,3433.4,748.8,1041.8,1792.6,2203.4,1896.7,1118.2,-9.0,-17.0,3.0,7304.0,9230.0,9143.0,6804.0,-92.0,-214.0,79.0,-1.0,-2.0,16.0,-3515.0,-4334.0,10902.0,10883.0,-25.0,-65.0,14.0,1.0
2022-05-23 14:01:02.222652-07:00,2163.6,732.3,1829.4,2089.6,1404.0,1347.6,1552.5,1786.8,3431.0,3423.7,2380.8,2110.8,1734.9,3431.0,1548.7,2341.0,3414.1,3423.7,830.2,1389.4,936.4,570.6,1371.2,2434.6,3433.4,3424.9,748.0,1043.5,1792.6,2203.4,1896.7,1127.0,33.0,-20.0,16.0,7349.0,9264.0,9071.0,6807.0,-110.0,-64.0,86.0,16.0,-22.0,-17.0,-3511.0,-4306.0,10904.0,10893.0,-22.0,-23.0,27.0,1.0
2022-05-23 14:01:02.223896-07:00,2163.6,727.4,1809.0,2143.3,1404.0,1347.6,1571.1,1809.0,3431.0,3427.4,2366.1,2105.8,1734.9,3431.0,1537.6,2318.1,3420.1,3414.1,830.2,1389.4,935.6,573.0,1353.1,2434.6,3434.6,3439.5,748.0,1043.5,1866.4,2190.1,1882.0,1127.0,10.0,15.0,-12.0,7362.0,9266.0,9043.0,6827.0,-87.0,-23.0,3.0,7.0,11.0,3.0,-3510.0,-4298.0,10908.0,10893.0,-3.0,-12.0,-16.0,1.0
2022-05-23 14:01:02.283128-07:00,2129.0,715.1,1809.0,2143.3,1442.4,1325.0,1571.1,1809.0,3429.8,3426.2,2366.1,2105.8,1732.0,3426.2,1537.6,2318.1,3420.1,3414.1,825.2,1389.4,935.6,573.0,1344.9,2413.4,3434.6,3439.5,743.9,1034.0,1866.4,2190.1,1845.0,1129.6,-4.0,-47.0,-8.0,7386.0,9256.0,9025.0,6837.0,-41.0,-13.0,27.0,14.0,-2.0,0.0,-3505.0,-4298.0,10909.0,10894.0,23.0,-6.0,0.0,1.0
2022-05-23 14:01:02.373660-07:00,2129.0,715.1,1771.4,2107.8,1442.4,1325.0,1552.5,1790.7,3429.8,3426.2,2352.5,2077.5,1732.0,3426.2,1532.0,2298.3,3422.5,3423.7,825.2,1389.4,934.7,573.0,1344.9,2413.4,3433.4,3427.4,743.9,1034.0,1843.0,2159.5,1845.0,1129.6,5.0,5.0,-33.0,7396.0,9268.0,8989.0,6857.0,-127.0,-41.0,64.0,6.0,0.0,-6.0,-3498.0,-4293.0,10920.0,10887.0,-1.0,-64.0,-16.0,1.0
2022-05-23 14:01:02.374587-07:00,2128.0,714.2,1771.4,2107.8,1423.1,1332.3,1552.5,1790.7,3431.0,3431.0,2352.5,2077.5,1720.5,3427.4,1532.0,2298.3,3422.5,3423.7,827.7,1390.3,934.7,573.0,1343.1,2367.2,3433.4,3427.4,741.4,1021.1,1843.0,2159.5,1847.9,1126.1,0.0,-22.0,-24.0,7438.0,9274.0,8955.0,6849.0,-37.0,-131.0,-27.0,8.0,4.0,-10.0,-3480.0,-4284.0,10925.0,10892.0,28.0,-43.0,-12.0,1.0
2022-05-23 14:01:02.463266-07:00,2128.0,714.2,1768.5,2099.7,1423.1,1332.3,1565.5,1831.3,3431.0,3431.0,2337.9,2067.5,1720.5,3427.4,1505.1,2283.8,3421.3,3416.5,827.7,1390.3,934.7,574.6,1343.1,2367.2,3420.1,3424.9,741.4,1021.1,1821.6,2153.4,1847.9,1126.1,8.0,-4.0,-12.0,7474.0,9278.0,8928.0,6840.0,-99.0,-50.0,9.0,1.0,6.0,-14.0,-3466.0,-4275.0,10929.0,10895.0,-27.0,-39.0,-4.0,1.0
2022-05-23 14:01:02.492704-07:00,2114.9,703.6,1760.8,2099.7,1404.0,1316.0,1565.5,1831.3,3414.1,3429.8,2325.4,2067.5,1720.5,3431.0,1505.1,2283.8,3421.3,3416.5,824.4,1386.6,934.7,569.0,1332.3,2365.1,3420.1,3424.9,742.2,1028.8,1821.6,2143.3,1826.5,1124.4,-11.0,-26.0,-23.0,7507.0,9256.0,8906.0,6862.0,-91.0,-24.0,10.0,4.0,-1.0,-6.0,-3459.0,-4261.0,10920.0,10912.0,-22.0,-61.0,10.0,1.0
2022-05-23 14:01:02.522591-07:00,2114.9,703.6,1760.8,2076.5,1404.0,1314.2,1592.7,1886.9,3414.1,3429.8,2325.4,2059.4,1720.5,3428.6,1506.0,2277.6,3427.4,3422.5,820.2,1386.6,944.1,569.0,1332.3,2365.1,3432.2,3428.6,745.5,1028.8,1812.9,2143.3,1826.5,1124.4,-12.0,-42.0,-34.0,7528.0,9261.0,8880.0,6867.0,-104.0,-74.0,51.0,3.0,-8.0,7.0,-3443.0,-4235.0,10916.0,10931.0,-35.0,-117.0,17.0,1.0
2022-05-23 14:01:02.582531-07:00,2105.8,708.5,1771.4,2076.5,1390.3,1314.2,1592.7,1886.9,3432.2,3424.9,2308.7,2059.4,1710.0,3428.6,1506.0,2277.6,3427.4,3422.5,820.2,1382.1,944.1,574.6,1332.3,2343.1,3432.2,3428.6,745.5,1021.1,1812.9,2140.2,1826.5,1200.0,4.0,-14.0,-3.0,7561.0,9271.0,8826.0,6886.0,-137.0,-49.0,41.0,11.0,-10.0,3.0,-3425.0,-4194.0,10916.0,10953.0,-52.0,-53.0,12.0,1.0
2022-05-23 14:01:02.642688-07:00,2105.8,708.5,1771.4,2069.5,1390.3,1307.0,1594.6,1896.7,3432.2,3424.9,2308.7,2046.4,1710.0,3427.4,1497.7,2259.0,3426.2,3426.2,821.0,1382.1,943.2,574.6,1332.3,2343.1,3433.4,3431.0,741.4,1021.1,1810.0,2140.2,1826.5,1200.0,5.0,-2.0,0.0,7577.0,9271.0,8817.0,6881.0,-42.0,-12.0,-17.0,4.0,4.0,-2.0,-3417.0,-4181.0,10915.0,10961.0,-12.0,-12.0,-6.0,1.0
2022-05-23 14:01:02.675605-07:00,2098.7,692.9,1760.8,2069.5,1386.6,1307.0,1594.6,1896.7,3423.7,3426.2,2309.7,2046.4,1703.3,3427.4,1497.7,2259.0,3426.2,3426.2,821.0,1383.9,943.2,573.0,1320.5,2342.0,3433.4,3431.0,741.4,1021.9,1810.0,2131.1,1814.9,1207.1,5.0,-6.0,-20.0,7593.0,9263.0,8808.0,6885.0,-39.0,-26.0,-21.0,9.0,3.0,-9.0,-3418.0,-4178.0,10912.0,10965.0,-6.0,-6.0,-11.0,1.0
2022-05-23 14:01:02.732832-07:00,2098.7,692.9,1760.8,2066.5,1381.2,1292.7,1589.9,1886.0,3423.7,3426.2,2309.7,2039.4,1701.4,3423.7,1502.3,2251.7,3417.7,3420.1,821.9,1388.5,935.6,573.0,1320.5,2342.0,3427.4,3431.0,738.1,1018.5,1793.6,2131.1,1814.9,1207.1,6.0,-20.0,-18.0,7594.0,9257.0,8818.0,6879.0,9.0,12.0,-33.0,15.0,1.0,-6.0,-3415.0,-4182.0,10912.0,10964.0,12.0,7.0,-17.0,1.0
2022-05-23 14:01:02.792505-07:00,2104.8,692.1,1755.0,2050.4,1381.2,1292.7,1589.9,1886.0,3431.0,3421.3,2301.4,2034.4,1701.4,3423.7,1502.3,2251.7,3417.7,3420.1,821.9,1388.5,932.2,568.2,1328.7,2342.0,3427.4,3431.0,738.1,1018.5,1782.9,2129.0,1811.9,1200.9,1.0,-17.0,-13.0,7596.0,9244.0,8825.0,6885.0,-54.0,32.0,-22.0,8.0,0.0,-2.0,-3413.0,-4184.0,10914.0,10962.0,-22.0,8.0,1.0,1.0
2022-05-23 14:01:02.822671-07:00,2104.8,692.1,1755.0,2050.4,1374.8,1299.0,1586.1,1881.1,3431.0,3421.3,2301.4,2034.4,1711.9,3434.6,1492.1,2247.6,3424.9,3427.4,814.4,1376.6,932.2,568.2,1328.7,2342.0,3423.7,3432.2,740.6,1021.9,1782.9,2129.0,1811.9,1200.9,6.0,-20.0,-3.0,7594.0,9222.0,8832.0,6908.0,-35.0,90.0,-6.0,-1.0,-4.0,-12.0,-3419.0,-4180.0,10910.0,10966.0,1.0,15.0,24.0,1.0
2022-05-23 14:01:02.912643-07:00,2095.7,688.0,1757.9,2062.5,1374.8,1299.0,1586.1,1881.1,3421.3,3429.8,2303.5,2032.4,1711.9,3434.6,1492.1,2247.6,3424.9,3427.4,814.4,1376.6,938.1,576.2,1325.0,2316.0,3423.7,3432.2,740.6,1021.9,1773.3,2115.9,1811.9,1200.0,-22.0,-15.0,-27.0,7581.0,9202.0,8842.0,6936.0,0.0,-2.0,34.0,3.0,-2.0,9.0,-3431.0,-4180.0,10909.0,10963.0,5.0,3.0,19.0,1.0
2022-05-23 14:01:03.002583-07:00,2095.7,688.0,1757.9,2062.5,1370.3,1290.9,1573.9,1864.5,3421.3,3429.8,2303.5,2032.4,1691.9,3427.4,1494.9,2247.6,3418.9,3429.8,816.0,1387.5,938.1,576.2,1325.0,2316.0,3433.4,3434.6,740.6,1015.1,1773.3,2115.9,1811.9,1200.0,5.0,-18.0,-15.0,7567.0,9200.0,8857.0,6934.0,49.0,48.0,-19.0,7.0,4.0,-11.0,-3436.0,-4185.0,10913.0,10955.0,38.0,31.0,-9.0,1.0
2022-05-23 14:01:03.093257-07:00,2091.6,689.7,1754.1,2054.4,1370.3,1290.9,1573.9,1864.5,3420.1,3426.2,2305.6,2023.4,1691.9,3427.4,1494.9,2247.6,3418.9,3429.8,816.0,1387.5,932.2,576.2,1317.8,2300.4,3433.4,3434.6,740.6,1015.1,1769.5,2113.9,1811.0,1196.5,15.0,-6.0,-8.0,7551.0,9193.0,8876.0,6937.0,-2.0,70.0,-31.0,11.0,3.0,-13.0,-3441.0,-4193.0,10919.0,10945.0,3.0,25.0,-9.0,1.0
2022-05-23 14:01:03.094732-07:00,2094.7,689.7,1754.1,2054.4,1360.3,1279.2,1579.6,1861.5,3428.6,3426.2,2305.6,2023.4,1688.1,3429.8,1494.9,2248.7,3431.0,3422.5,816.9,1378.5,932.2,576.2,1317.8,2304.5,3434.6,3418.9,727.4,1019.4,1769.5,2113.9,1811.0,1185.9,5.0,-1.0,-20.0,7546.0,9189.0,8884.0,6938.0,-28.0,-6.0,-7.0,9.0,6.0,-10.0,-3445.0,-4196.0,10920.0,10941.0,-2.0,0.0,-3.0,1.0
2022-05-23 14:01:03.095532-07:00,2094.7,690.5,1747.3,2044.4,1360.3,1279.2,1579.6,1846.9,3428.6,3428.6,2294.2,2014.4,1688.1,3429.8,1494.9,2233.2,3427.4,3422.5,816.9,1378.5,927.9,564.2,1316.0,2304.5,3428.6,3418.9,727.4,1019.4,1754.1,2111.8,1811.0,1185.9,-13.0,-20.0,-32.0,7554.0,9186.0,8879.0,6939.0,-57.0,-84.0,13.0,4.0,4.0,7.0,-3445.0,-4195.0,10920.0,10942.0,-2.0,-24.0,-2.0,1.0
2022-05-23 14:01:03.122972-07:00,2089.6,690.5,1747.3,2044.4,1373.9,1282.8,1571.1,1846.9,3423.7,3428.6,2294.2,2014.4,1677.6,3431.0,1491.2,2233.2,3427.4,3418.9,816.9,1376.6,927.9,564.2,1316.0,2291.0,3428.6,3432.2,729.9,1005.6,1754.1,2111.8,1811.0,1202.7,25.0,0.0,-4.0,7595.0,9201.0,8846.0,6917.0,-77.0,-94.0,-55.0,9.0,4.0,-31.0,-3434.0,-4184.0,10919.0,10951.0,-51.0,-32.0,-25.0,1.0
2022-05-23 14:01:03.182569-07:00,2089.6,671.7,1736.8,2040.4,1373.9,1282.8,1571.1,1905.6,3423.7,3423.7,2306.6,2026.4,1677.6,3431.0,1491.2,2231.1,3427.4,3418.9,816.9,1376.6,938.1,573.0,1307.9,2291.0,3432.2,3432.2,729.9,1005.6,1739.7,2104.8,1796.5,1202.7,13.0,-17.0,9.0,7623.0,9189.0,8841.0,6908.0,14.0,39.0,-28.0,9.0,-2.0,-6.0,-3427.0,-4182.0,10909.0,10963.0,4.0,14.0,-16.0,1.0
2022-05-23 14:01:03.242641-07:00,2070.5,671.7,1736.8,2040.4,1363.9,1289.1,1573.0,1905.6,3428.6,3423.7,2306.6,2026.4,1671.0,3424.9,1490.3,2231.1,3427.4,3426.2,811.0,1378.5,938.1,573.0,1307.9,2284.8,3432.2,3429.8,730.7,1000.5,1739.7,2104.8,1796.5,1208.0,33.0,1.0,38.0,7589.0,9165.0,8891.0,6912.0,202.0,328.0,-205.0,2.0,1.0,-5.0,-3434.0,-4201.0,10902.0,10961.0,-23.0,110.0,-34.0,1.0
2022-05-23 14:01:03.272817-07:00,2070.5,701.1,1758.9,2054.4,1363.9,1289.1,1565.5,1862.5,3428.6,3431.0,2333.7,2024.4,1671.0,3424.9,1529.2,2249.7,3420.1,3424.9,811.0,1378.5,934.7,577.8,1314.2,2284.8,3428.6,3432.2,730.7,1000.5,1804.2,2109.8,1803.2,1208.0,65.0,0.0,39.0,7457.0,9045.0,9083.0,6965.0,307.0,893.0,-444.0,-5.0,6.0,-9.0,-3474.0,-4252.0,10879.0,10952.0,-8.0,116.0,14.0,1.0
2022-05-23 14:01:03.362766-07:00,2119.9,843.6,1758.9,2054.4,1341.3,1297.2,1565.5,1862.5,3423.7,3429.8,2333.7,2024.4,1679.5,3434.6,1529.2,2249.7,3420.1,3424.9,817.7,1373.0,934.7,577.8,1340.4,2323.3,3428.6,3432.2,733.2,1023.7,1804.2,2109.8,1938.0,1216.0,-84.0,-27.0,-149.0,7283.0,8798.0,9421.0,7016.0,262.0,508.0,-556.0,-3.0,16.0,29.0,-3504.0,-4280.0,10851.0,10959.0,-121.0,78.0,-85.0,1.0
2022-05-23 14:01:03.392593-07:00,2119.9,843.6,2107.8,2192.2,1341.3,1297.2,1548.7,1891.8,3423.7,3429.8,2565.9,2157.5,1679.5,3434.6,1874.2,2471.7,3423.7,3418.9,817.7,1373.0,928.8,569.0,1340.4,2323.3,3432.2,3426.2,733.2,1023.7,1841.1,2220.9,1938.0,1216.0,22.0,-84.0,-54.0,7206.0,8680.0,9654.0,6926.0,440.0,217.0,-350.0,5.0,-38.0,-62.0,-3512.0,-4301.0,10810.0,10989.0,-21.0,4.0,-26.0,1.0
2022-05-23 14:01:03.422769-07:00,2194.2,811.9,2107.8,2192.2,1332.3,1306.1,1548.7,1891.8,3417.7,3428.6,2565.9,2157.5,1687.2,3428.6,1874.2,2471.7,3423.7,3418.9,811.0,1373.0,928.8,569.0,1453.4,2351.4,3432.2,3426.2,729.0,1113.9,1841.1,2220.9,2069.5,1193.8,23.0,27.0,6.0,7124.0,8651.0,9829.0,6801.0,220.0,110.0,-304.0,9.0,26.0,-39.0,-3507.0,-4294.0,10803.0,11000.0,-170.0,-47.0,23.0,1.0
2022-05-23 14:01:03.513340-07:00,2194.2,811.9,2358.8,2260.0,1332.3,1306.1,1531.0,1867.4,3417.7,3428.6,2796.8,2204.5,1687.2,3428.6,1937.1,2420.8,3421.3,3427.4,811.0,1373.0,935.6,574.6,1453.4,2351.4,3429.8,3434.6,729.0,1113.9,1777.2,2289.0,2069.5,1193.8,-22.0,-33.0,22.0,7121.0,8533.0,9942.0,6787.0,-189.0,277.0,-227.0,9.0,8.0,24.0,-3531.0,-4244.0,10736.0,11076.0,-288.0,-41.0,61.0,1.0
2022-05-23 14:01:03.542616-07:00,2208.6,806.0,2358.8,2260.0,1309.7,1310.6,1531.0,1867.4,3416.5,3429.8,2796.8,2204.5,1671.9,3432.2,1937.1,2420.8,3421.3,3427.4,814.4,1380.3,935.6,574.6,1521.8,2368.2,3429.8,3434.6,718.4,1158.6,1777.2,2289.0,1911.5,1185.0,32.0,-34.0,21.0,7111.0,8397.0,9985.0,6904.0,-489.0,513.0,1.0,4.0,-19.0,5.0,-3567.0,-4189.0,10680.0,11140.0,-211.0,-34.0,109.0,1.0
2022-05-23 14:01:03.602593-07:00,2208.6,806.0,2077.5,2103.7,1309.7,1306.1,1537.6,1854.7,3416.5,3429.8,2862.7,2177.9,1671.9,3427.4,1828.4,2292.1,3424.9,3423.7,818.5,1380.3,939.8,578.6,1521.8,2368.2,3433.4,3426.2,715.9,1158.6,1715.8,2201.4,1911.5,1185.0,-80.0,-10.0,-19.0,7063.0,8247.0,10008.0,7096.0,47.0,179.0,-4.0,-1.0,-9.0,42.0,-3608.0,-4154.0,10646.0,11173.0,-9.0,76.0,26.0,1.0
2022-05-23 14:01:03.662672-07:00,2179.9,790.2,1854.7,2103.7,1288.2,1306.1,1537.6,1854.7,3428.6,3439.5,2614.5,2177.9,1688.1,3427.4,1828.4,2292.1,3424.9,3423.7,818.5,1375.7,939.8,577.8,1519.9,2340.0,3433.4,3426.2,715.9,1155.0,1715.8,2071.5,1755.0,1185.0,65.0,-11.0,-33.0,7017.0,8225.0,10066.0,7087.0,97.0,248.0,-182.0,5.0,4.0,-48.0,-3630.0,-4169.0,10646.0,11160.0,-86.0,23.0,15.0,1.0
2022-05-23 14:01:03.722766-07:00,2179.9,790.2,1854.7,1960.8,1288.2,1306.1,1524.5,1903.6,3428.6,3439.5,2614.5,2003.5,1688.1,3424.9,1703.3,2167.7,3422.5,3424.9,805.2,1375.7,939.8,577.8,1519.9,2340.0,3423.7,3422.5,711.8,1155.0,1666.3,2071.5,1755.0,1185.0,-2.0,-11.0,-28.0,6983.0,8138.0,10162.0,7084.0,-18.0,134.0,-184.0,11.0,4.0,-6.0,-3653.0,-4161.0,10606.0,11194.0,-129.0,32.0,3.0,1.0
2022-05-23 14:01:03.724236-07:00,2167.7,781.1,1706.2,1960.8,1281.0,1306.1,1524.5,1903.6,3427.4,3437.0,2380.8,2003.5,1672.9,3424.9,1703.3,2167.7,3422.5,3424.9,805.2,1371.2,939.8,575.4,1500.4,2291.0,3423.7,3422.5,711.8,1159.4,1666.3,1952.9,1638.8,1173.5,4.0,-20.0,-8.0,6988.0,8060.0,10223.0,7082.0,-29.0,149.0,-215.0,8.0,1.0,-7.0,-3671.0,-4155.0,10566.0,11227.0,-154.0,9.0,-3.0,1.0
2022-05-23 14:01:03.783121-07:00,2167.7,781.1,1706.2,1887.9,1281.0,1298.1,1497.7,1904.6,3427.4,3437.0,2380.8,1895.8,1672.9,3427.4,1564.6,2082.6,3424.9,3418.9,806.0,1371.2,937.3,575.4,1500.4,2291.0,3431.0,3429.8,709.3,1159.4,1636.0,1952.9,1638.8,1173.5,-22.0,-77.0,-13.0,6981.0,8027.0,10259.0,7073.0,45.0,-59.0,153.0,0.0,-9.0,-5.0,-3688.0,-4153.0,10539.0,11248.0,15.0,35.0,29.0,1.0
2022-05-23 14:01:03.812944-07:00,2163.6,774.5,1623.7,1835.2,1264.0,1298.1,1497.7,1904.6,3426.2,3433.4,2207.5,1826.5,1664.4,3427.4,1564.6,2082.6,3424.9,3418.9,806.0,1371.2,938.1,579.4,1460.8,2266.2,3431.0,3429.8,709.3,1159.4,1612.4,1894.8,1532.0,1178.8,35.0,15.0,-7.0,6934.0,8109.0,10219.0,7083.0,115.0,-3.0,237.0,1.0,4.0,-28.0,-3700.0,-4149.0,10557.0,11229.0,59.0,-22.0,46.0,1.0
2022-05-23 14:01:03.872725-07:00,2163.6,774.5,1623.7,1835.2,1260.4,1281.9,1466.3,1860.6,3426.2,3433.4,2207.5,1826.5,1657.7,3416.5,1474.6,2018.4,3426.2,3429.8,799.4,1371.2,938.1,579.4,1460.8,2266.2,3428.6,3418.9,695.4,1141.9,1612.4,1894.8,1532.0,1178.8,-21.0,2.0,-6.0,6889.0,8113.0,10232.0,7103.0,-5.0,76.0,-44.0,10.0,-1.0,23.0,-3700.0,-4141.0,10565.0,11224.0,-1.0,14.0,-15.0,1.0
2022-05-23 14:01:03.932640-07:00,2141.2,767.0,1554.3,1793.6,1260.4,1281.9,1466.3,1860.6,3421.3,3427.4,2097.7,1778.1,1657.7,3416.5,1474.6,2018.4,3426.2,3429.8,799.4,1371.2,935.6,580.2,1416.7,2229.1,3428.6,3418.9,695.4,1141.9,1594.6,1853.7,1533.8,1170.0,14.0,-32.0,-13.0,6876.0,8115.0,10240.0,7103.0,33.0,22.0,66.0,7.0,1.0,-14.0,-3703.0,-4153.0,10570.0,11214.0,77.0,31.0,15.0,1.0
2022-05-23 14:01:03.962656-07:00,2141.2,767.0,1554.3,1793.6,1242.6,1277.4,1453.4,1827.5,3421.3,3427.4,2097.7,1778.1,1639.8,3429.8,1432.3,1974.6,3429.8,3429.8,804.4,1374.8,935.6,580.2,1416.7,2229.1,3426.2,3437.0,707.7,1136.6,1594.6,1853.7,1533.8,1170.0,-2.0,-8.0,-19.0,6828.0,8125.0,10254.0,7118.0,49.0,104.0,36.0,10.0,-1.0,0.0,-3706.0,-4164.0,10592.0,11188.0,69.0,17.0,12.0,1.0
2022-05-23 14:01:04.023267-07:00,2135.1,759.6,1515.3,1764.6,1242.6,1277.4,1453.4,1827.5,3429.8,3428.6,2051.4,1755.0,1639.8,3429.8,1432.3,1974.6,3429.8,3429.8,804.4,1374.8,929.6,580.2,1384.8,2196.3,3426.2,3437.0,707.7,1136.6,1573.9,1817.8,1508.8,1170.9,12.0,-24.0,-31.0,6803.0,8131.0,10271.0,7111.0,21.0,-4.0,4.0,-3.0,1.0,-20.0,-3710.0,-4175.0,10606.0,11169.0,42.0,35.0,3.0,1.0
2022-05-23 14:01:04.082674-07:00,2120.9,759.6,1515.3,1764.6,1239.1,1267.6,1442.4,1811.0,3428.6,3428.6,2051.4,1755.0,1634.1,3429.8,1403.0,1956.8,3422.5,3427.4,803.5,1377.5,929.6,580.2,1384.8,2196.3,3431.0,3424.9,706.0,1128.7,1573.9,1817.8,1508.8,1168.2,2.0,-14.0,-22.0,6779.0,8132.0,10283.0,7114.0,-1.0,65.0,8.0,11.0,0.0,-7.0,-3713.0,-4179.0,10615.0,11158.0,21.0,-7.0,11.0,1.0
2022-05-23 14:01:04.112738-07:00,2120.9,757.1,1500.4,1759.8,1239.1,1267.6,1442.4,1811.9,3428.6,3428.6,2025.4,1746.4,1634.1,3429.8,1403.0,1941.0,3421.3,3427.4,803.5,1377.5,932.2,578.6,1363.0,2196.3,3427.4,3424.9,706.0,1128.7,1565.5,1809.0,1504.1,1168.2,10.0,-16.0,-14.0,6767.0,8135.0,10283.0,7122.0,-17.0,8.0,21.0,9.0,-1.0,-4.0,-3715.0,-4174.0,10621.0,11154.0,-8.0,-4.0,16.0,1.0
2022-05-23 14:01:04.173356-07:00,2118.9,757.1,1500.4,1759.8,1237.3,1257.8,1442.4,1811.9,3422.5,3428.6,2025.4,1746.4,1630.3,3421.3,1389.4,1941.0,3421.3,3421.3,811.9,1390.3,932.2,578.6,1363.0,2166.7,3427.4,3428.6,704.4,1126.1,1565.5,1809.0,1504.1,1166.5,-5.0,-10.0,-7.0,6757.0,8136.0,10288.0,7123.0,30.0,13.0,-11.0,6.0,1.0,5.0,-3720.0,-4172.0,10628.0,11146.0,22.0,23.0,16.0,1.0
2022-05-23 14:01:04.232678-07:00,2118.9,755.4,1481.9,1741.6,1237.3,1257.8,1442.4,1804.2,3422.5,3432.2,2016.4,1731.1,1630.3,3421.3,1389.4,1941.0,3424.9,3421.3,811.9,1390.3,934.7,579.4,1354.0,2166.7,3431.0,3428.6,704.4,1126.1,1559.0,1795.5,1486.6,1166.5,20.0,-17.0,4.0,6747.0,8123.0,10301.0,7129.0,-20.0,93.0,-13.0,9.0,-6.0,-11.0,-3738.0,-4177.0,10630.0,11136.0,4.0,48.0,38.0,1.0
2022-05-23 14:01:04.262658-07:00,2109.8,755.4,1481.9,1741.6,1228.4,1260.4,1441.5,1804.2,3426.2,3432.2,2016.4,1731.1,1622.8,3424.9,1386.6,1941.0,3424.9,3421.3,805.2,1374.8,934.7,579.4,1354.0,2153.4,3431.0,3422.5,705.2,1111.2,1559.0,1795.5,1486.6,1163.0,-7.0,-14.0,-3.0,6704.0,8092.0,10334.0,7157.0,31.0,161.0,-34.0,8.0,-1.0,10.0,-3768.0,-4183.0,10636.0,11118.0,33.0,84.0,52.0,1.0
2022-05-23 14:01:04.322885-07:00,2109.8,757.1,1474.6,1729.1,1228.4,1260.4,1441.5,1801.3,3426.2,3431.0,1998.5,1721.5,1622.8,3424.9,1386.6,1928.2,3418.9,3421.3,805.2,1374.8,934.7,573.0,1342.2,2153.4,3429.8,3422.5,705.2,1111.2,1567.4,1783.9,1506.0,1163.0,4.0,-29.0,-15.0,6667.0,8054.0,10375.0,7175.0,-7.0,146.0,-20.0,9.0,1.0,-1.0,-3814.0,-4200.0,10636.0,11096.0,18.0,116.0,58.0,1.0
2022-05-23 14:01:04.383188-07:00,2108.8,758.7,1474.6,1729.1,1231.9,1250.6,1431.4,1801.3,3429.8,3427.4,1998.5,1721.5,1624.7,3418.9,1381.2,1928.2,3418.9,3429.8,805.2,1369.4,934.7,573.0,1341.3,2141.2,3429.8,3434.6,706.0,1114.7,1567.4,1783.9,1484.7,1151.5,3.0,13.0,-47.0,6621.0,8036.0,10398.0,7204.0,3.0,117.0,13.0,5.0,16.0,-7.0,-3851.0,-4220.0,10643.0,11069.0,47.0,80.0,23.0,1.0
2022-05-23 14:01:04.412945-07:00,2108.8,758.7,1469.0,1732.0,1231.9,1250.6,1423.1,1798.4,3429.8,3427.4,1985.6,1718.6,1624.7,3418.9,1370.3,1913.4,3428.6,3422.5,805.2,1369.4,929.6,579.4,1341.3,2141.2,3432.2,3418.9,706.0,1114.7,1550.6,1780.1,1484.7,1151.5,23.0,-14.0,-56.0,6629.0,8023.0,10406.0,7201.0,-58.0,-74.0,-74.0,0.0,9.0,-32.0,-3848.0,-4241.0,10637.0,11068.0,-61.0,-14.0,-77.0,1.0
2022-05-23 14:01:04.532691-07:00,2111.8,753.8,1469.0,1732.0,1219.5,1261.3,1423.1,1798.4,3429.8,3424.9,1985.6,1718.6,1618.1,3416.5,1370.3,1913.4,3428.6,3422.5,806.9,1379.4,929.6,579.4,1335.9,2136.1,3432.2,3418.9,701.9,1119.1,1550.6,1780.1,1471.8,1160.3,20.0,-62.0,-30.0,6687.0,8021.0,10387.0,7175.0,-62.0,-198.0,-32.0,14.0,-14.0,-19.0,-3815.0,-4238.0,10616.0,11101.0,-76.0,-78.0,-59.0,1.0
2022-05-23 14:01:04.533882-07:00,2111.8,753.8,1467.2,1724.4,1219.5,1261.3,1431.4,1794.5,3429.8,3424.9,1982.6,1711.0,1618.1,3416.5,1371.2,1916.4,3423.7,3429.8,806.9,1379.4,933.0,577.8,1335.9,2136.1,3431.0,3428.6,701.9,1119.1,1550.6,1785.8,1471.8,1160.3,17.0,-20.0,13.0,6745.0,8036.0,10347.0,7163.0,-101.0,-70.0,-4.0,12.0,4.0,11.0,-3798.0,-4201.0,10601.0,11134.0,-113.0,-94.0,29.0,1.0
2022-05-23 14:01:04.562752-07:00,2105.8,744.7,1467.2,1724.4,1224.8,1252.4,1431.4,1794.5,3432.2,3429.8,1982.6,1711.0,1613.4,3431.0,1371.2,1916.4,3423.7,3429.8,809.4,1367.6,933.0,577.8,1341.3,2132.1,3431.0,3428.6,701.1,1111.2,1550.6,1785.8,1485.6,1170.0,-21.0,-8.0,6.0,6776.0,8026.0,10321.0,7182.0,-78.0,-51.0,-3.0,-3.0,-2.0,23.0,-3804.0,-4166.0,10579.0,11166.0,-81.0,-21.0,20.0,1.0
2022-05-23 14:01:04.652595-07:00,2105.8,744.7,1453.4,1721.5,1224.8,1254.2,1429.5,1791.6,3432.2,3429.8,1995.5,1708.1,1613.4,3427.4,1363.9,1916.4,3415.3,3423.7,807.7,1367.6,933.0,575.4,1341.3,2132.1,3417.7,3437.0,698.7,1111.2,1544.1,1781.0,1485.6,1170.0,-24.0,-11.0,-26.0,6773.0,8014.0,10336.0,7177.0,-11.0,51.0,-44.0,-7.0,0.0,12.0,-3812.0,-4170.0,10569.0,11172.0,-19.0,41.0,-15.0,1.0
2022-05-23 14:01:04.682647-07:00,2111.8,748.0,1471.8,1721.5,1215.1,1254.2,1429.5,1791.6,3429.8,3431.0,1973.7,1708.1,1614.3,3427.4,1363.9,1916.4,3415.3,3423.7,807.7,1370.3,933.0,577.8,1395.7,2130.1,3417.7,3437.0,698.7,1116.5,1544.1,1772.3,1481.0,1162.1,0.0,-23.0,10.0,6796.0,8023.0,10303.0,7191.0,-119.0,-57.0,83.0,-8.0,12.0,-26.0,-3818.0,-4176.0,10566.0,11170.0,13.0,-14.0,23.0,1.0
2022-05-23 14:01:04.742673-07:00,2111.8,748.0,1471.8,1715.8,1215.1,1299.8,1425.0,1778.1,3429.8,3431.0,1973.7,1710.0,1614.3,3428.6,1475.5,1919.3,3420.1,3431.0,809.4,1370.3,933.0,577.8,1395.7,2130.1,3434.6,3423.7,700.3,1116.5,1534.8,1772.3,1481.0,1162.1,-111.0,-71.0,53.0,6813.0,7994.0,10206.0,7345.0,-496.0,134.0,416.0,13.0,-6.0,49.0,-3819.0,-4147.0,10571.0,11176.0,70.0,-62.0,46.0,1.0
2022-05-23 14:01:04.772804-07:00,2102.7,740.6,1936.1,1715.8,1212.4,1299.8,1425.0,1778.1,3424.9,3432.2,2761.3,1710.0,1616.2,3428.6,1475.5,1919.3,3420.1,3431.0,809.4,1368.5,933.0,579.4,1458.0,2138.2,3434.6,3423.7,700.3,1123.5,1534.8,2162.6,1854.7,1160.3,100.0,-43.0,-312.0,6867.0,8158.0,9926.0,7496.0,-237.0,-788.0,391.0,51.0,-15.0,-136.0,-3794.0,-4136.0,10641.0,11123.0,197.0,-87.0,65.0,1.0
2022-05-23 14:01:04.833199-07:00,2102.7,740.6,1936.1,1942.0,1212.4,1320.5,1414.0,1764.6,3424.9,3432.2,2761.3,2095.7,1616.2,3431.0,1833.3,2249.7,3418.9,3422.5,805.2,1368.5,925.4,579.4,1458.0,2138.2,3423.7,3429.8,705.2,1123.5,1559.9,2162.6,1854.7,1160.3,-42.0,11.0,84.0,7015.0,8208.0,9924.0,7304.0,-225.0,-282.0,-347.0,10.0,12.0,19.0,-3734.0,-4088.0,10622.0,11179.0,-283.0,-228.0,-97.0,1.0
2022-05-23 14:01:04.892993-07:00,2068.5,739.7,2179.9,1942.0,1231.9,1320.5,1414.0,1764.6,3428.6,3427.4,2774.6,2095.7,1635.0,3431.0,1833.3,2249.7,3418.9,3422.5,805.2,1371.2,925.4,573.8,1471.8,2217.8,3423.7,3429.8,705.2,1119.1,1559.9,2330.6,2071.5,1154.2,-12.0,-82.0,22.0,7165.0,8170.0,9816.0,7347.0,-1.0,-210.0,80.0,-11.0,-12.0,17.0,-3707.0,-4031.0,10553.0,11273.0,-70.0,-90.0,-42.0,1.0
2022-05-23 14:01:04.952629-07:00,2068.5,739.7,2179.9,2147.3,1246.2,1342.2,1404.0,1746.4,3428.6,3427.4,2774.6,2224.0,1668.2,3427.4,1768.5,2409.2,3424.9,3420.1,811.0,1367.6,927.9,573.8,1471.8,2217.8,3432.2,3426.2,717.5,1099.9,1568.3,2330.6,2071.5,1154.2,-57.0,93.0,61.0,7117.0,8213.0,9858.0,7290.0,103.0,103.0,-116.0,3.0,10.0,19.0,-3672.0,-4078.0,10597.0,11226.0,180.0,93.0,-88.0,1.0
2022-05-23 14:01:05.012618-07:00,2066.5,733.2,2048.4,2208.6,1246.2,1342.2,1404.0,1746.4,3437.0,3427.4,2603.7,2196.3,1668.2,3427.4,1768.5,2409.2,3424.9,3420.1,811.0,1367.6,928.8,571.4,1507.8,2285.9,3432.2,3426.2,717.5,1099.9,1595.5,2314.9,2004.5,1155.0,-39.0,-138.0,-75.0,7176.0,8104.0,9865.0,7345.0,-315.0,17.0,-10.0,-7.0,-44.0,10.0,-3684.0,-4125.0,10547.0,11252.0,-121.0,91.0,-73.0,1.0
2022-05-23 14:01:05.042618-07:00,2066.5,733.2,2048.4,2208.6,1281.9,1307.0,1487.5,1796.5,3437.0,3427.4,2603.7,2196.3,1711.0,3426.2,1643.5,2411.3,3411.7,3429.8,809.4,1367.6,928.8,571.4,1507.8,2285.9,3428.6,3429.8,738.9,1080.8,1595.5,2314.9,2004.5,1155.0,160.0,-57.0,-71.0,7135.0,8249.0,9777.0,7340.0,297.0,-176.0,438.0,1.0,48.0,-76.0,-3669.0,-4191.0,10624.0,11160.0,555.0,93.0,-25.0,1.0
2022-05-23 14:01:05.072960-07:00,2110.8,786.9,1919.3,2184.0,1281.9,1307.0,1487.5,1796.5,3431.0,3428.6,2494.0,2155.5,1711.0,3426.2,1643.5,2411.3,3411.7,3429.8,809.4,1367.6,933.0,569.0,1481.9,2260.0,3428.6,3429.8,738.9,1080.8,1681.4,2245.6,1931.1,1153.3,-17.0,18.0,-60.0,7076.0,8328.0,9721.0,7383.0,-218.0,-84.0,244.0,24.0,26.0,30.0,-3613.0,-4213.0,10727.0,11071.0,127.0,-97.0,-15.0,1.0
2022-05-23 14:01:05.132750-07:00,2110.8,786.9,1919.3,2184.0,1354.0,1295.4,1498.6,1798.4,3431.0,3428.6,2494.0,2155.5,1741.6,3421.3,1580.5,2379.7,3427.4,3424.9,812.7,1380.3,933.0,569.0,1481.9,2260.0,3427.4,3427.4,738.1,1059.9,1681.4,2245.6,1931.1,1153.3,66.0,19.0,-44.0,7143.0,8390.0,9572.0,7443.0,-128.0,-206.0,124.0,-3.0,6.0,-40.0,-3588.0,-4192.0,10740.0,11074.0,44.0,-54.0,-16.0,1.0
2022-05-23 14:01:05.162757-07:00,2207.5,808.5,1857.6,2184.0,1354.0,1295.4,1498.6,1852.8,3422.5,3428.6,2432.4,2126.0,1741.6,3421.3,1580.5,2343.1,3420.1,3424.9,812.7,1380.3,928.8,565.8,1445.1,2371.3,3420.1,3427.4,738.1,1059.9,1876.2,2205.5,1889.9,1155.9,-8.0,-41.0,-20.0,7222.0,8391.0,9529.0,7421.0,-195.0,-206.0,-54.0,25.0,-11.0,9.0,-3551.0,-4196.0,10741.0,11084.0,-76.0,-44.0,-61.0,1.0
2022-05-23 14:01:05.222771-07:00,2373.4,808.5,1857.6,2184.0,1517.1,1280.1,1515.3,1852.8,3422.5,3428.6,2432.4,2126.0,1782.9,3434.6,1552.5,2343.1,3420.1,3429.8,818.5,1388.5,928.8,565.8,1445.1,2438.8,3420.1,3424.9,739.7,1046.1,1876.2,2205.5,1889.9,1159.4,24.0,26.0,-14.0,7320.0,8412.0,9445.0,7408.0,-140.0,-218.0,-34.0,4.0,2.0,-25.0,-3522.0,-4190.0,10734.0,11103.0,17.0,-80.0,-55.0,1.0
2022-05-23 14:01:05.372864-07:00,2373.4,786.9,1801.3,2175.8,1517.1,1280.1,1515.3,1852.8,3422.5,3426.2,2424.0,2097.7,1782.9,3434.6,1552.5,2342.0,3429.8,3429.8,818.5,1388.5,930.5,565.0,1415.8,2438.8,3431.0,3424.9,739.7,1046.1,2031.4,2198.3,1881.1,1159.4,-39.0,-12.0,-42.0,7404.0,8392.0,9416.0,7384.0,-181.0,-275.0,-115.0,-8.0,3.0,-3.0,-3487.0,-4186.0,10722.0,11126.0,-51.0,-71.0,-63.0,1.0
2022-05-23 14:01:05.374233-07:00,2439.8,786.9,1801.3,2175.8,1586.1,1267.6,1513.4,1852.8,3429.8,3426.2,2424.0,2097.7,1770.4,3429.8,1524.5,2342.0,3429.8,3429.8,816.0,1380.3,930.5,565.0,1415.8,2472.7,3431.0,3433.4,729.9,1032.3,2031.4,2198.3,1881.1,1197.4,-17.0,-20.0,-29.0,7554.0,8353.0,9364.0,7343.0,-182.0,-264.0,-299.0,14.0,-2.0,19.0,-3454.0,-4182.0,10695.0,11164.0,-93.0,-39.0,-109.0,1.0
2022-05-23 14:01:05.433261-07:00,2439.8,774.5,1782.9,2163.6,1586.1,1267.6,1513.4,1880.1,3429.8,3431.0,2378.7,2087.6,1770.4,3429.8,1524.5,2333.7,3414.1,3429.8,816.0,1380.3,933.0,569.8,1391.2,2472.7,3429.8,3433.4,729.9,1032.3,2057.4,2191.2,1862.5,1197.4,9.0,-90.0,19.0,7686.0,8322.0,9338.0,7273.0,-38.0,-105.0,-37.0,-5.0,-8.0,-5.0,-3431.0,-4182.0,10674.0,11191.0,-13.0,-36.0,-10.0,1.0
2022-05-23 14:01:05.434116-07:00,2358.8,747.2,1782.9,2163.6,1562.7,1261.3,1550.6,1880.1,3417.7,3418.9,2378.7,2087.6,1774.3,3428.6,1510.6,2333.7,3414.1,3429.8,817.7,1389.4,933.0,569.8,1377.5,2424.0,3429.8,3429.8,724.1,1028.0,2057.4,2191.2,1838.2,1219.5,16.0,5.0,-5.0,7681.0,8355.0,9299.0,7292.0,-18.0,-26.0,209.0,18.0,-2.0,-11.0,-3436.0,-4157.0,10696.0,11178.0,57.0,-23.0,76.0,1.0
2022-05-23 14:01:05.522680-07:00,2358.8,747.2,1760.8,2153.4,1562.7,1261.3,1507.8,1854.7,3417.7,3418.9,2368.2,2076.5,1774.3,3428.6,1501.4,2300.4,3423.7,3426.2,817.7,1389.4,928.8,567.4,1377.5,2424.0,3440.7,3439.5,724.1,1028.0,2014.4,2160.5,1838.2,1219.5,11.0,9.0,-12.0,7642.0,8375.0,9298.0,7310.0,97.0,103.0,-54.0,29.0,5.0,10.0,-3443.0,-4168.0,10716.0,11153.0,70.0,58.0,-28.0,1.0
2022-05-23 14:01:05.523859-07:00,2324.3,743.9,1760.8,2153.4,1521.8,1257.8,1507.8,1854.7,3422.5,3433.4,2368.2,2076.5,1763.7,3423.7,1501.4,2300.4,3423.7,3426.2,818.5,1388.5,928.8,567.4,1373.9,2392.4,3440.7,3439.5,724.9,1028.0,2014.4,2160.5,1830.4,1200.0,23.0,-2.0,-19.0,7608.0,8369.0,9334.0,7306.0,49.0,86.0,31.0,12.0,3.0,-19.0,-3453.0,-4184.0,10725.0,11134.0,42.0,32.0,2.0,1.0
2022-05-23 14:01:05.582635-07:00,2324.3,743.9,1757.9,2133.1,1521.8,1257.8,1514.3,1825.5,3422.5,3433.4,2358.8,2066.5,1763.7,3423.7,1494.9,2287.9,3420.1,3426.2,818.5,1388.5,927.9,571.4,1373.9,2392.4,3421.3,3432.2,724.9,1028.0,1982.6,2145.3,1830.4,1200.0,-49.0,-43.0,-66.0,7577.0,8351.0,9359.0,7327.0,-5.0,7.0,6.0,-6.0,-8.0,0.0,-3459.0,-4194.0,10726.0,11128.0,6.0,24.0,-2.0,1.0
2022-05-23 14:01:05.613332-07:00,2313.9,748.0,1757.9,2133.1,1496.7,1261.3,1514.3,1825.5,3427.4,3431.0,2358.8,2066.5,1753.1,3431.0,1494.9,2287.9,3420.1,3426.2,816.0,1384.8,927.9,571.4,1365.7,2365.1,3421.3,3432.2,714.2,1017.6,1982.6,2145.3,1815.8,1187.6,0.0,-19.0,-28.0,7586.0,8358.0,9348.0,7325.0,-38.0,28.0,-7.0,-16.0,-3.0,-21.0,-3460.0,-4193.0,10726.0,11128.0,-9.0,-4.0,12.0,1.0
2022-05-23 14:01:05.672989-07:00,2313.9,748.0,1734.9,2113.9,1496.7,1261.3,1508.8,1822.6,3427.4,3431.0,2342.0,2058.4,1753.1,3431.0,1491.2,2276.5,3420.1,3432.2,816.0,1384.8,927.1,571.4,1365.7,2365.1,3427.4,3441.9,714.2,1017.6,1963.7,2140.2,1815.8,1187.6,0.0,-14.0,-11.0,7573.0,8339.0,9370.0,7332.0,53.0,133.0,-57.0,0.0,-3.0,-3.0,-3460.0,-4197.0,10728.0,11125.0,21.0,23.0,-3.0,1.0
2022-05-23 14:01:05.762645-07:00,2344.1,789.4,1772.3,2113.9,1491.2,1259.6,1508.8,1822.6,3418.9,3428.6,2354.6,2058.4,1746.4,3422.5,1491.2,2276.5,3420.1,3432.2,816.0,1380.3,927.1,565.8,1364.8,2374.5,3427.4,3441.9,715.9,1015.1,1963.7,2145.3,1825.5,1187.6,80.0,15.0,59.0,7508.0,8291.0,9468.0,7326.0,262.0,536.0,-285.0,18.0,5.0,-21.0,-3467.0,-4222.0,10741.0,11101.0,81.0,72.0,3.0,1.0
2022-05-23 14:01:05.765395-07:00,2344.1,789.4,1772.3,2134.1,1491.2,1275.6,1504.1,1824.6,3418.9,3428.6,2354.6,2063.5,1746.4,3421.3,1545.0,2307.7,3427.4,3424.9,811.9,1380.3,926.2,565.8,1364.8,2374.5,3416.5,3426.2,724.9,1015.1,2080.6,2145.3,1825.5,1187.6,-36.0,9.0,-35.0,7274.0,8080.0,9828.0,7325.0,512.0,1358.0,-705.0,20.0,26.0,75.0,-3517.0,-4259.0,10749.0,11063.0,-2.0,187.0,53.0,1.0
2022-05-23 14:01:05.943521-07:00,2486.6,974.8,2169.7,2134.1,1492.1,1275.6,1504.1,1824.6,3423.7,3423.7,2616.7,2063.5,1772.3,3421.3,1545.0,2307.7,3427.4,3424.9,811.9,1381.2,926.2,565.8,1393.9,2467.4,3416.5,3426.2,724.9,1036.6,2080.6,2334.7,2064.5,1193.8,147.0,5.0,-184.0,7014.0,7786.0,10282.0,7274.0,548.0,894.0,-905.0,-5.0,14.0,-62.0,-3553.0,-4330.0,10713.0,11059.0,-130.0,142.0,-98.0,1.0
2022-05-23 14:01:05.945790-07:00,2486.6,974.8,2169.7,2408.1,1492.1,1303.4,1474.6,1857.6,3423.7,3423.7,2616.7,2331.6,1772.3,3426.2,2013.4,2665.7,3427.4,3422.5,806.0,1381.2,921.1,565.8,1393.9,2467.4,3431.0,3429.8,722.5,1036.6,2078.5,2334.7,2064.5,1193.8,-137.0,-46.0,26.0,6832.0,7505.0,10686.0,7157.0,369.0,812.0,-327.0,-29.0,-5.0,33.0,-3592.0,-4350.0,10652.0,11097.0,-44.0,109.0,21.0,1.0
2022-05-23 14:01:06.302688-07:00,2382.9,929.6,2402.9,2408.1,1430.5,1303.4,1474.6,1857.6,3432.2,3422.5,2866.0,2331.6,1773.3,3426.2,2013.4,2665.7,3427.4,3422.5,806.0,1374.8,921.1,571.4,1680.5,2517.5,3431.0,3429.8,722.5,1138.4,2078.5,2361.9,2139.2,1185.9,-22.0,46.0,-56.0,6660.0,7416.0,10849.0,7168.0,277.0,283.0,-80.0,2.0,29.0,-9.0,-3614.0,-4389.0,10673.0,11054.0,119.0,95.0,-11.0,1.0
2022-05-23 14:01:06.333191-07:00,2382.9,929.6,2402.9,2378.7,1404.0,1320.5,1457.1,1829.4,3432.2,3422.5,2866.0,2354.6,1756.0,3432.2,1935.1,2478.1,3424.9,3424.9,809.4,1375.7,933.0,571.4,1680.5,2517.5,3434.6,3432.2,709.3,1160.3,1959.8,2361.9,2139.2,1185.9,68.0,15.0,5.0,6592.0,7327.0,10945.0,7178.0,-256.0,513.0,-248.0,41.0,0.0,-16.0,-3614.0,-4405.0,10669.0,11052.0,-67.0,-14.0,-18.0,1.0
2022-05-23 14:01:06.422652-07:00,2330.6,891.5,2168.7,2215.7,1404.0,1320.5,1457.1,1829.4,3428.6,3429.8,2744.7,2195.2,1756.0,3432.2,1935.1,2478.1,3424.9,3424.9,809.4,1375.7,928.8,569.0,1693.8,2501.5,3434.6,3432.2,709.3,1160.3,1866.4,2195.2,1948.9,1168.2,15.0,-45.0,-39.0,6540.0,7139.0,11020.0,7298.0,113.0,213.0,-134.0,19.0,1.0,2.0,-3609.0,-4410.0,10650.0,11069.0,46.0,21.0,-40.0,1.0
2022-05-23 14:01:06.424121-07:00,2330.6,891.5,2168.7,2215.7,1374.8,1298.1,1433.2,1789.7,3428.6,3429.8,2744.7,2195.2,1741.6,3418.9,1841.1,2365.1,3424.9,3418.9,804.4,1370.3,928.8,569.0,1693.8,2501.5,3426.2,3416.5,700.3,1163.8,1866.4,2195.2,1948.9,1168.2,-6.0,-50.0,-40.0,6496.0,7106.0,11086.0,7270.0,15.0,45.0,36.0,-13.0,-6.0,-4.0,-3609.0,-4425.0,10637.0,11076.0,-35.0,23.0,-26.0,1.0
2022-05-23 14:01:06.632755-07:00,2320.1,878.0,2052.4,2117.9,1374.8,1298.1,1433.2,1789.7,3431.0,3427.4,2622.1,2066.5,1741.6,3418.9,1841.1,2365.1,3424.9,3418.9,804.4,1370.3,939.8,572.2,1753.1,2477.0,3426.2,3416.5,700.3,1163.8,1826.5,2126.0,1844.0,1170.9,16.0,-39.0,-18.0,6448.0,7132.0,11090.0,7279.0,115.0,77.0,122.0,-4.0,-13.0,-8.0,-3615.0,-4435.0,10642.0,11065.0,50.0,29.0,20.0,1.0
2022-05-23 14:01:06.635825-07:00,2670.0,866.3,1711.9,1938.0,1326.8,1461.7,1411.3,1810.0,3431.0,3423.7,2046.4,1832.3,1711.0,3421.3,1484.7,2069.5,3422.5,3424.9,806.0,1370.3,946.6,580.2,1733.0,2359.8,3426.2,3434.6,705.2,1195.6,1723.4,1918.3,1615.2,1156.8,13.0,-10.0,-42.0,6212.0,7073.0,11148.0,7453.0,75.0,-74.0,216.0,0.0,1.0,-9.0,-3708.0,-4414.0,10580.0,11103.0,99.0,30.0,26.0,1.0
2022-05-23 14:01:06.636746-07:00,2670.0,856.2,1656.8,1892.8,1326.8,1461.7,1411.3,1776.2,3431.0,3429.8,1950.9,1786.8,1711.0,3421.3,1484.7,2020.4,3420.1,3424.9,806.0,1370.3,948.3,581.0,1716.7,2359.8,3428.6,3434.6,705.2,1195.6,1686.2,1868.4,1574.9,1156.8,17.0,13.0,-32.0,6199.0,7151.0,11113.0,7440.0,55.0,-100.0,76.0,6.0,10.0,-9.0,-3708.0,-4419.0,10602.0,11080.0,32.0,2.0,8.0,1.0
2022-05-23 14:01:06.637892-07:00,2631.9,856.2,1656.8,1892.8,1312.4,1457.1,1384.8,1776.2,3427.4,3429.8,1950.9,1786.8,1702.4,3427.4,1447.9,2020.4,3420.1,3420.1,803.5,1374.8,948.3,581.0,1716.7,2325.4,3428.6,3427.4,701.1,1181.5,1686.2,1868.4,1574.9,1160.3,0.0,-33.0,-17.0,6242.0,7164.0,11101.0,7409.0,-60.0,-121.0,-100.0,10.0,6.0,3.0,-3710.0,-4410.0,10587.0,11097.0,-101.0,-18.0,-14.0,1.0
2022-05-23 14:01:06.723533-07:00,2631.9,841.1,1625.6,1859.6,1312.4,1457.1,1381.2,1748.3,3427.4,3424.9,1909.5,1759.8,1702.4,3427.4,1428.6,1998.5,3420.1,3429.8,803.5,1374.8,940.7,582.6,1698.6,2325.4,3423.7,3429.8,701.1,1181.5,1690.0,1857.6,1541.3,1160.3,41.0,-29.0,-9.0,6302.0,7175.0,11066.0,7401.0,-55.0,-133.0,63.0,9.0,-5.0,-19.0,-3714.0,-4399.0,10573.0,11114.0,-1.0,-19.0,20.0,1.0
2022-05-23 14:01:06.724545-07:00,2587.4,841.9,1625.6,1859.6,1311.5,1436.0,1381.2,1748.3,3422.5,3427.4,1909.5,1759.8,1691.9,3424.9,1428.6,1998.5,3420.1,3429.8,803.5,1371.2,940.7,582.6,1665.3,2291.0,3423.7,3429.8,706.0,1177.0,1690.0,1857.6,1532.0,1158.6,-12.0,-35.0,-72.0,6380.0,7365.0,10912.0,7377.0,-22.0,-227.0,210.0,11.0,-5.0,-22.0,-3718.0,-4379.0,10607.0,11088.0,142.0,-28.0,36.0,1.0
2022-05-23 14:01:06.783485-07:00,2553.0,829.4,1600.2,1841.1,1312.4,1416.7,1368.5,1728.2,3421.3,3418.9,2127.0,1811.9,1679.5,3427.4,1561.8,2014.4,3411.7,3424.9,804.4,1372.1,934.7,585.1,1664.4,2283.8,3418.9,3435.8,711.0,1170.9,1657.7,1835.2,1532.0,1161.2,32.0,17.0,-43.0,6394.0,7500.0,10881.0,7273.0,270.0,-302.0,72.0,3.0,8.0,-29.0,-3680.0,-4384.0,10680.0,11028.0,210.0,-70.0,-9.0,1.0
2022-05-23 14:01:06.784340-07:00,2498.3,823.5,1641.6,1841.1,1304.3,1405.8,1368.5,1728.2,3418.9,3431.0,2853.7,1811.9,1675.7,3434.6,1561.8,2014.4,3411.7,3424.9,806.0,1366.6,934.7,585.9,1674.8,2267.2,3418.9,3435.8,704.4,1160.3,1657.7,1883.0,1620.9,1149.8,-29.0,-93.0,20.0,6475.0,7536.0,10838.0,7228.0,-329.0,-211.0,-60.0,8.0,1.0,21.0,-3660.0,-4357.0,10679.0,11046.0,-194.0,-72.0,16.0,1.0
2022-05-23 14:01:06.812736-07:00,2498.3,823.5,1641.6,1849.8,1304.3,1392.1,1404.0,1744.5,3418.9,3431.0,2853.7,2154.4,1675.7,3426.2,1752.1,2123.0,3423.7,3423.7,811.0,1366.6,938.1,585.9,1674.8,2267.2,3433.4,3432.2,712.6,1160.3,1661.5,1883.0,1620.9,1149.8,-5.0,-18.0,-40.0,6499.0,7611.0,10845.0,7117.0,632.0,-192.0,40.0,12.0,0.0,5.0,-3660.0,-4342.0,10697.0,11034.0,210.0,-7.0,57.0,1.0
2022-05-23 14:01:06.872664-07:00,2439.8,816.9,1679.5,1849.8,1303.4,1392.1,1404.0,1744.5,3428.6,3428.6,2741.4,2154.4,1674.8,3426.2,1752.1,2123.0,3423.7,3423.7,811.0,1370.3,938.1,583.5,1653.0,2269.3,3433.4,3432.2,712.6,1154.2,1661.5,1881.1,1632.2,1150.6,87.0,79.0,2.0,6535.0,7720.0,10824.0,6998.0,-424.0,-430.0,1.0,19.0,14.0,-37.0,-3656.0,-4331.0,10735.0,11004.0,-11.0,-31.0,27.0,1.0
2022-05-23 14:01:06.902667-07:00,2439.8,816.9,1679.5,1837.2,1303.4,1369.4,1411.3,1747.3,3428.6,3428.6,2741.4,1991.5,1674.8,3426.2,1757.0,2168.7,3418.9,3427.4,808.5,1370.3,927.9,583.5,1653.0,2269.3,3435.8,3422.5,720.8,1154.2,1639.8,1881.1,1632.2,1150.6,-55.0,-90.0,0.0,6771.0,7615.0,10622.0,7195.0,-500.0,-75.0,83.0,7.0,-16.0,34.0,-3661.0,-4302.0,10712.0,11035.0,-48.0,-41.0,19.0,1.0
2022-05-23 14:01:06.992783-07:00,2513.3,801.9,1688.1,1837.2,1296.3,1369.4,1411.3,1747.3,3426.2,3424.9,2550.8,1991.5,1677.6,3426.2,1757.0,2168.7,3418.9,3427.4,808.5,1366.6,927.9,581.0,1613.4,2264.1,3435.8,3422.5,720.8,1135.7,1639.8,1887.9,1615.2,1148.9,26.0,43.0,-6.0,6756.0,7714.0,10547.0,7214.0,78.0,-61.0,285.0,8.0,6.0,-28.0,-3657.0,-4303.0,10741.0,11008.0,110.0,-2.0,12.0,1.0
2022-05-23 14:01:07.022712-07:00,2513.3,801.9,1688.1,1834.3,1296.3,1357.6,1439.6,1757.0,3426.2,3424.9,2550.8,1951.9,1677.6,3421.3,1800.3,2266.2,3421.3,3409.3,806.0,1366.6,937.3,581.0,1613.4,2264.1,3433.4,3426.2,730.7,1135.7,1646.4,1887.9,1615.2,1148.9,-3.0,34.0,-42.0,6754.0,7726.0,10515.0,7249.0,-242.0,-14.0,-22.0,16.0,4.0,-13.0,-3648.0,-4303.0,10731.0,11021.0,-126.0,-15.0,-57.0,1.0
2022-05-23 14:01:07.052637-07:00,2460.0,798.5,1707.2,1849.8,1287.3,1357.6,1439.6,1757.0,3432.2,3428.6,2495.1,1985.6,1672.9,3421.3,1800.3,2266.2,3421.3,3409.3,806.0,1360.3,932.2,574.6,1567.4,2294.2,3433.4,3426.2,730.7,1146.3,1691.9,2283.8,2008.4,1147.1,-83.0,-108.0,-4.0,6849.0,7651.0,10453.0,7329.0,-219.0,-73.0,16.0,0.0,-42.0,20.0,-3652.0,-4299.0,10680.0,11070.0,-97.0,27.0,-17.0,1.0
2022-05-23 14:01:07.142817-07:00,2460.0,798.5,1707.2,1849.8,1289.1,1362.1,1448.8,1777.2,3432.2,3428.6,2495.1,1985.6,1707.2,3409.3,1760.8,2480.2,3422.5,3417.7,801.9,1370.3,932.2,574.6,1567.4,2294.2,3428.6,3427.4,734.8,1132.2,1691.9,2283.8,2008.4,1147.1,32.0,3.0,-78.0,6863.0,7876.0,10341.0,7237.0,256.0,-556.0,374.0,-20.0,17.0,-54.0,-3642.0,-4330.0,10705.0,11037.0,192.0,11.0,-51.0,1.0
2022-05-23 14:01:07.172924-07:00,2464.2,787.7,1881.1,1976.6,1289.1,1362.1,1448.8,1777.2,3421.3,3428.6,2501.5,2164.6,1707.2,3409.3,1760.8,2480.2,3422.5,3417.7,801.9,1370.3,932.2,576.2,1474.6,2323.3,3428.6,3427.4,734.8,1132.2,1721.5,2355.6,2053.4,1148.9,51.0,70.0,-57.0,7012.0,7823.0,10234.0,7303.0,-866.0,-89.0,-262.0,21.0,30.0,-20.0,-3633.0,-4299.0,10661.0,11095.0,-385.0,-105.0,-46.0,1.0
2022-05-23 14:01:07.202598-07:00,2464.2,787.7,1881.1,1976.6,1285.5,1355.8,1440.5,1751.2,3421.3,3428.6,2501.5,2164.6,1686.2,3429.8,1671.9,2455.7,3421.3,3418.9,798.5,1362.1,932.2,576.2,1474.6,2323.3,3432.2,3434.6,743.0,1096.4,1721.5,2355.6,2053.4,1148.9,36.0,-79.0,-7.0,7238.0,7670.0,10077.0,7462.0,-644.0,-177.0,29.0,14.0,-21.0,-5.0,-3653.0,-4247.0,10539.0,11224.0,-325.0,-46.0,-16.0,1.0
2022-05-23 14:01:07.322743-07:00,2433.5,780.3,2174.8,2308.7,1285.5,1355.8,1440.5,1751.2,3429.8,3423.7,2513.3,2173.8,1686.2,3429.8,1671.9,2455.7,3421.3,3418.9,798.5,1362.1,934.7,574.6,1386.6,2385.0,3432.2,3434.6,743.0,1096.4,1772.3,2276.5,1977.6,1141.9,-3.0,-9.0,-23.0,7307.0,7659.0,9936.0,7594.0,-366.0,-81.0,260.0,14.0,1.0,17.0,-3657.0,-4202.0,10500.0,11276.0,-94.0,-94.0,38.0,1.0
2022-05-23 14:01:07.324110-07:00,2363.0,780.3,2174.8,2308.7,1471.8,1354.0,1565.5,1836.2,3423.7,3423.7,2513.3,2173.8,1672.9,3418.9,1604.0,2400.8,3422.5,3431.0,806.9,1368.5,934.7,574.6,1386.6,2366.1,3439.5,3437.0,767.8,1083.4,1772.3,2276.5,1977.6,1154.2,1.0,-36.0,-23.0,7398.0,7601.0,9790.0,7752.0,-403.0,-66.0,63.0,16.0,-31.0,18.0,-3653.0,-4148.0,10467.0,11328.0,-145.0,-82.0,7.0,1.0
2022-05-23 14:01:07.383177-07:00,2363.0,816.0,1988.5,2254.8,1471.8,1354.0,1565.5,1951.9,3423.7,3434.6,2497.2,2139.2,1672.9,3418.9,1604.0,2365.1,3417.7,3431.0,806.9,1368.5,929.6,571.4,1346.7,2366.1,3423.7,3437.0,767.8,1083.4,1952.9,2230.1,1916.4,1154.2,12.0,-3.0,-36.0,7474.0,7563.0,9748.0,7768.0,-157.0,-84.0,-158.0,6.0,-2.0,-4.0,-3636.0,-4141.0,10444.0,11357.0,-97.0,-35.0,-67.0,1.0
2022-05-23 14:01:07.412749-07:00,2317.0,816.0,1988.5,2254.8,1582.4,1346.7,1624.7,1951.9,3420.1,3434.6,2497.2,2139.2,1668.2,3428.6,1555.3,2365.1,3417.7,3422.5,805.2,1369.4,929.6,571.4,1346.7,2327.4,3423.7,3426.2,758.7,1075.6,1952.9,2230.1,1916.4,1196.5,13.0,-46.0,-21.0,7536.0,7525.0,9733.0,7764.0,-88.0,-20.0,-37.0,11.0,-1.0,-20.0,-3617.0,-4138.0,10428.0,11379.0,-17.0,-51.0,-22.0,1.0
2022-05-23 14:01:07.532977-07:00,2317.0,791.9,1898.7,2209.6,1582.4,1346.7,1624.7,1915.4,3420.1,3434.6,2478.1,2111.8,1668.2,3428.6,1555.3,2328.5,3418.9,3422.5,805.2,1369.4,931.3,569.8,1315.1,2327.4,3433.4,3426.2,758.7,1075.6,1903.6,2195.2,1877.2,1196.5,21.0,27.0,-1.0,7543.0,7451.0,9775.0,7777.0,-24.0,190.0,-246.0,16.0,0.0,7.0,-3606.0,-4137.0,10426.0,11385.0,-18.0,11.0,-49.0,1.0
2022-05-23 14:01:07.535365-07:00,2299.3,791.9,1898.7,2209.6,1530.1,1354.0,1611.5,1915.4,3426.2,3434.6,2478.1,2111.8,1665.3,3428.6,1539.4,2328.5,3418.9,3429.8,801.9,1367.6,931.3,569.8,1315.1,2297.3,3433.4,3439.5,763.7,1075.6,1903.6,2195.2,1877.2,1202.7,13.0,-26.0,-15.0,7559.0,7317.0,9854.0,7788.0,-163.0,251.0,-243.0,9.0,1.0,5.0,-3611.0,-4156.0,10396.0,11404.0,-100.0,53.0,-31.0,1.0
2022-05-23 14:01:07.592712-07:00,2299.3,772.8,1868.4,2178.9,1530.1,1354.0,1611.5,1883.0,3426.2,3431.0,2511.1,2096.7,1665.3,3428.6,1539.4,2329.5,3426.2,3429.8,801.9,1367.6,931.3,570.6,1302.5,2297.3,3426.2,3439.5,763.7,1075.6,1851.8,2183.0,1866.4,1202.7,-27.0,-40.0,-72.0,7536.0,7179.0,9975.0,7786.0,326.0,227.0,-384.0,2.0,-35.0,32.0,-3630.0,-4186.0,10381.0,11401.0,99.0,124.0,-46.0,1.0
2022-05-23 14:01:07.682770-07:00,2301.4,767.8,1868.4,2178.9,1499.5,1357.6,1596.4,1883.0,3431.0,3424.9,2511.1,2096.7,1647.3,3422.5,1544.1,2329.5,3426.2,3424.9,807.7,1370.3,931.3,570.6,1299.8,2273.4,3426.2,3420.1,761.2,1080.8,1851.8,2183.0,1857.6,1195.6,29.0,-13.0,-30.0,7556.0,7098.0,10151.0,7610.0,54.0,83.0,-477.0,-4.0,26.0,-29.0,-3634.0,-4255.0,10363.0,11390.0,-135.0,74.0,-74.0,1.0
2022-05-23 14:01:07.684025-07:00,2301.4,767.8,1867.4,2164.6,1499.5,1357.6,1557.1,1864.5,3431.0,3424.9,2641.7,2088.6,1647.3,3422.5,1570.2,2359.8,3412.9,3426.2,807.7,1370.3,928.8,564.2,1299.8,2273.4,3431.0,3427.4,761.2,1080.8,1813.9,2195.2,1857.6,1195.6,30.0,-72.0,-46.0,7601.0,7007.0,10178.0,7614.0,-83.0,44.0,-54.0,24.0,-18.0,-16.0,-3648.0,-4244.0,10318.0,11430.0,-75.0,-32.0,22.0,1.0
2022-05-23 14:01:07.712785-07:00,2282.8,772.8,1867.4,2164.6,1470.9,1342.2,1557.1,1864.5,3449.1,3423.7,2641.7,2088.6,1642.6,3431.0,1570.2,2359.8,3412.9,3426.2,807.7,1368.5,928.8,564.2,1289.1,2253.8,3431.0,3427.4,758.7,1072.9,1813.9,2195.2,1864.5,1198.2,49.0,54.0,7.0,7590.0,6945.0,10234.0,7608.0,-31.0,248.0,-279.0,19.0,9.0,-3.0,-3644.0,-4227.0,10314.0,11442.0,-123.0,-24.0,-8.0,1.0
2022-05-23 14:01:07.773253-07:00,2282.8,772.8,1876.2,2155.5,1470.9,1342.2,1547.8,1831.3,3449.1,3423.7,2582.0,2068.5,1642.6,3431.0,1569.3,2348.3,3429.8,3424.9,807.7,1368.5,925.4,565.8,1289.1,2253.8,3431.0,3423.7,758.7,1072.9,1783.9,2169.7,1864.5,1198.2,-62.0,-90.0,-43.0,7620.0,6823.0,10296.0,7603.0,-162.0,-52.0,-99.0,17.0,-3.0,49.0,-3662.0,-4226.0,10257.0,11488.0,-150.0,60.0,-21.0,1.0
2022-05-23 14:01:07.832780-07:00,2254.8,754.6,1876.2,2155.5,1463.5,1337.7,1547.8,1831.3,3429.8,3421.3,2582.0,2068.5,1628.4,3428.6,1569.3,2348.3,3429.8,3424.9,811.9,1361.2,925.4,565.8,1272.1,2238.4,3431.0,3423.7,757.1,1061.7,1783.9,2169.7,1853.7,1182.3,58.0,0.0,-21.0,7638.0,6803.0,10264.0,7646.0,-73.0,136.0,-7.0,9.0,-14.0,-31.0,-3680.0,-4219.0,10234.0,11504.0,-42.0,4.0,23.0,1.0
2022-05-23 14:01:07.862772-07:00,2254.8,754.6,1859.6,2132.1,1463.5,1329.6,1531.0,1834.3,3429.8,3421.3,2554.0,2055.4,1628.4,3423.7,1546.9,2294.2,3426.2,3429.8,818.5,1361.2,927.1,565.0,1272.1,2238.4,3429.8,3426.2,756.3,1061.7,1747.3,2155.5,1853.7,1182.3,47.0,56.0,-6.0,7648.0,6624.0,10339.0,7693.0,-345.0,430.0,-491.0,16.0,10.0,-2.0,-3709.0,-4209.0,10169.0,11557.0,-399.0,38.0,-8.0,1.0
2022-05-23 14:01:07.982727-07:00,2261.0,798.5,1900.7,2132.1,1447.9,1329.6,1531.0,1834.3,3424.9,3426.2,2671.1,2055.4,1628.4,3423.7,1546.9,2294.2,3426.2,3429.8,818.5,1363.9,927.1,563.4,1294.5,2212.7,3429.8,3426.2,756.3,1067.7,1747.3,2196.3,1876.2,1185.9,-32.0,-142.0,-153.0,7600.0,6205.0,10587.0,7752.0,351.0,1033.0,-791.0,24.0,-49.0,66.0,-3777.0,-4155.0,10003.0,11698.0,-534.0,22.0,6.0,1.0
2022-05-23 14:01:08.073430-07:00,2261.0,798.5,1900.7,2164.6,1447.9,1346.7,1530.1,1825.5,3424.9,3426.2,2671.1,2067.5,1628.4,3428.6,1703.3,2426.1,3418.9,3417.7,811.9,1363.9,927.1,563.4,1294.5,2212.7,3429.8,3418.9,752.1,1067.7,1740.6,2196.3,1876.2,1185.9,169.0,264.0,185.0,7406.0,6363.0,10830.0,7471.0,-484.0,-3.0,122.0,-66.0,53.0,-211.0,-3764.0,-4205.0,10003.0,11684.0,168.0,77.0,-49.0,1.0
2022-05-23 14:01:08.076992-07:00,2407.1,793.5,1920.3,2164.6,1462.6,1346.7,1530.1,1825.5,3421.3,3429.8,2931.4,2067.5,1639.8,3428.6,1703.3,2426.1,3418.9,3417.7,811.9,1364.8,927.1,563.4,1988.5,2259.0,3429.8,3418.9,752.1,1160.3,1740.6,2322.2,2032.4,1182.3,29.0,-1.0,-19.0,7389.0,6126.0,10771.0,7765.0,-80.0,618.0,-136.0,12.0,1.0,12.0,-3789.0,-4180.0,9950.0,11730.0,-5.0,47.0,-31.0,1.0
2022-05-23 14:01:08.077807-07:00,2407.1,793.5,1920.3,2171.8,1462.6,1344.9,1534.8,1819.7,3421.3,3429.8,2931.4,2188.1,1639.8,3429.8,1797.4,2450.4,3431.0,3423.7,811.0,1364.8,928.8,563.4,1988.5,2259.0,3429.8,3424.9,736.5,1160.3,1717.7,2322.2,2032.4,1182.3,-35.0,0.0,-54.0,7289.0,5926.0,10942.0,7776.0,42.0,312.0,-477.0,35.0,14.0,55.0,-3794.0,-4229.0,9916.0,11740.0,-104.0,102.0,-95.0,1.0
2022-05-23 14:01:08.132790-07:00,2396.6,782.7,2002.5,2248.7,1429.5,1344.9,1534.8,1819.7,3434.6,3423.7,2453.6,1924.3,1655.8,3429.8,1797.4,2450.4,3431.0,3423.7,811.0,1367.6,939.8,562.6,1860.6,2244.5,3429.8,3424.9,736.5,1192.0,1701.4,2267.2,2039.4,1178.8,91.0,-35.0,-66.0,7305.0,5689.0,11103.0,7708.0,149.0,518.0,-740.0,23.0,4.0,-31.0,-3804.0,-4249.0,9869.0,11769.0,-106.0,57.0,-60.0,1.0
2022-05-23 14:01:08.162662-07:00,2396.6,782.7,2002.5,2248.7,1427.7,1448.8,1526.4,1807.1,3434.6,3423.7,2453.6,1924.3,1658.7,3417.7,1919.3,2414.5,3415.3,3424.9,811.0,1373.0,939.8,562.6,1860.6,2244.5,3417.7,3429.8,743.0,1192.0,1701.4,2267.2,2039.4,1178.8,-82.0,-48.0,10.0,7271.0,5425.0,11352.0,7568.0,344.0,358.0,-536.0,12.0,-1.0,2.0,-3800.0,-4297.0,9853.0,11767.0,25.0,87.0,-83.0,1.0
2022-05-23 14:01:08.312788-07:00,2474.9,775.3,2168.7,2319.1,1427.7,1448.8,1526.4,1807.1,3428.6,3418.9,2143.3,1819.7,1658.7,3417.7,1919.3,2414.5,3415.3,3424.9,811.0,1373.0,957.7,573.0,1875.2,2237.3,3417.7,3429.8,743.0,1192.0,1664.4,2422.9,2291.0,1173.5,54.0,-83.0,-28.0,7259.0,5367.0,11483.0,7421.0,471.0,325.0,-227.0,-10.0,-40.0,-59.0,-3798.0,-4322.0,9863.0,11750.0,147.0,26.0,12.0,1.0
2022-05-23 14:01:08.314062-07:00,2474.9,775.3,2168.7,2319.1,1387.5,1581.4,1530.1,1855.7,3428.6,3418.9,2143.3,1819.7,1650.2,3433.4,1802.3,2293.1,3424.9,3421.3,813.5,1374.8,957.7,573.0,1875.2,2237.3,3429.8,3437.0,746.3,1269.4,1664.4,2422.9,2291.0,1173.5,-16.0,-64.0,-52.0,7127.0,5376.0,11700.0,7202.0,630.0,104.0,-167.0,18.0,-17.0,46.0,-3792.0,-4342.0,9931.0,11686.0,142.0,35.0,52.0,1.0
2022-05-23 14:01:08.342740-07:00,2649.3,776.9,2117.9,2109.8,1387.5,1581.4,1530.1,1855.7,3434.6,3431.0,2006.4,1775.2,1650.2,3433.4,1802.3,2293.1,3424.9,3421.3,813.5,1374.8,970.5,586.7,2018.4,2250.7,3429.8,3437.0,746.3,1269.4,1619.0,2151.4,1883.0,1168.2,48.0,-23.0,-19.0,7034.0,5517.0,11825.0,6978.0,750.0,3.0,152.0,16.0,-2.0,-33.0,-3798.0,-4382.0,10028.0,11586.0,368.0,77.0,79.0,1.0
2022-05-23 14:01:08.373319-07:00,2649.3,776.9,2117.9,2109.8,1359.4,1608.7,1513.4,1860.6,3434.6,3431.0,2006.4,1775.2,1628.4,3422.5,1597.4,2138.2,3427.4,3426.2,802.7,1399.4,970.5,586.7,2018.4,2250.7,3423.7,3433.4,746.3,1338.6,1619.0,2151.4,1883.0,1168.2,-56.0,19.0,-33.0,6870.0,5687.0,11949.0,6791.0,675.0,19.0,240.0,12.0,0.0,38.0,-3791.0,-4421.0,10151.0,11466.0,432.0,70.0,57.0,1.0
2022-05-23 14:01:08.402750-07:00,2718.3,769.5,1849.8,1995.5,1359.4,1608.7,1513.4,1834.3,3429.8,3429.8,2085.6,1769.5,1628.4,3422.5,1597.4,2054.4,3421.3,3426.2,802.7,1399.4,971.3,602.0,2013.4,2225.0,3431.0,3433.4,746.3,1338.6,1592.7,1990.5,1691.9,1163.8,61.0,3.0,-33.0,6749.0,5860.0,12011.0,6654.0,415.0,-8.0,154.0,10.0,4.0,-30.0,-3792.0,-4450.0,10245.0,11370.0,203.0,25.0,71.0,1.0
2022-05-23 14:01:08.462687-07:00,2691.9,769.5,1849.8,1995.5,1348.5,1594.6,1467.2,1834.3,3428.6,3429.8,2085.6,1769.5,1626.5,3422.5,1506.9,2054.4,3421.3,3432.2,802.7,1417.6,971.3,602.0,2013.4,2200.4,3431.0,3432.2,738.1,1343.1,1592.7,1990.5,1691.9,1155.0,-54.0,-94.0,-86.0,6674.0,6007.0,12067.0,6495.0,886.0,-399.0,222.0,17.0,-11.0,17.0,-3812.0,-4431.0,10291.0,11329.0,126.0,3.0,127.0,1.0
2022-05-23 14:01:08.522696-07:00,2691.9,762.9,1739.7,1935.1,1348.5,1594.6,1467.2,1768.5,3428.6,3418.9,2451.5,1821.6,1626.5,3422.5,1506.9,2035.4,3428.6,3432.2,802.7,1417.6,973.1,614.9,1985.6,2200.4,3429.8,3432.2,738.1,1343.1,1588.9,1933.1,1641.6,1155.0,73.0,4.0,-59.0,6678.0,6281.0,12024.0,6309.0,-34.0,-250.0,315.0,15.0,16.0,-44.0,-3824.0,-4380.0,10312.0,11326.0,-120.0,-137.0,99.0,1.0
2022-05-23 14:01:08.582752-07:00,2647.1,762.9,1739.7,1935.1,1333.2,1598.3,1425.9,1768.5,3429.8,3418.9,2451.5,1821.6,1625.6,3426.2,1489.3,2035.4,3428.6,3423.7,802.7,1415.8,973.1,614.9,1985.6,2161.6,3429.8,3428.6,741.4,1352.1,1588.9,1933.1,1641.6,1155.9,-31.0,1.0,49.0,6697.0,6422.0,11931.0,6324.0,-181.0,-260.0,311.0,3.0,2.0,37.0,-3815.0,-4332.0,10323.0,11338.0,6.0,-93.0,43.0,1.0
2022-05-23 14:01:08.642726-07:00,2647.1,753.8,1715.8,1906.6,1333.2,1598.3,1425.9,1759.8,3429.8,3418.9,2869.4,1906.6,1625.6,3426.2,1489.3,2053.4,3429.8,3423.7,802.7,1415.8,970.5,614.9,1947.9,2161.6,3429.8,3428.6,741.4,1352.1,1562.7,1896.7,1594.6,1155.9,16.0,-48.0,-70.0,6778.0,6468.0,11823.0,6393.0,21.0,-390.0,209.0,28.0,17.0,33.0,-3797.0,-4316.0,10332.0,11342.0,33.0,-25.0,0.0,1.0
2022-05-23 14:01:08.733132-07:00,2665.7,735.6,1715.8,1906.6,1318.7,1634.1,1417.6,1759.8,3429.8,3429.8,2869.4,1906.6,1654.9,3427.4,1621.8,2053.4,3429.8,3422.5,799.4,1412.2,970.5,614.9,1920.3,2156.5,3429.8,3428.6,763.7,1349.4,1562.7,1896.7,1574.9,1155.0,-29.0,-106.0,-22.0,6841.0,6648.0,11684.0,6396.0,37.0,-337.0,517.0,15.0,-20.0,-1.0,-3798.0,-4293.0,10337.0,11346.0,244.0,-43.0,73.0,1.0
2022-05-23 14:01:08.762833-07:00,2665.7,735.6,1665.3,1873.2,1318.7,1634.1,1412.2,1748.3,3429.8,3429.8,2759.1,1952.9,1654.9,3427.4,1686.2,2067.5,3422.5,3429.8,799.4,1412.2,968.8,610.0,1920.3,2156.5,3432.2,3431.0,763.7,1349.4,1559.9,1867.4,1574.9,1155.0,68.0,56.0,23.0,6793.0,6895.0,11559.0,6413.0,-64.0,-56.0,440.0,1.0,53.0,-58.0,-3769.0,-4283.0,10441.0,11264.0,113.0,-95.0,85.0,1.0
2022-05-23 14:01:08.764090-07:00,2681.0,742.2,1665.3,1873.2,1318.7,1610.5,1412.2,1748.3,3422.5,3426.2,2759.1,1952.9,1655.8,3439.5,1686.2,2067.5,3422.5,3429.8,801.9,1412.2,968.8,610.0,1876.2,2152.4,3432.2,3431.0,782.7,1354.0,1559.9,1867.4,1571.1,1155.0,-9.0,-98.0,-39.0,6753.0,6973.0,11462.0,6545.0,30.0,-83.0,468.0,8.0,-38.0,10.0,-3767.0,-4241.0,10464.0,11259.0,198.0,-21.0,24.0,1.0
2022-05-23 14:01:08.852442-07:00,2681.0,742.2,1642.6,1852.8,1318.7,1610.5,1400.3,1741.6,3422.5,3426.2,2536.8,1983.6,1655.8,3439.5,1712.9,2025.4,3421.3,3414.1,801.9,1412.2,967.9,606.8,1876.2,2152.4,3428.6,3431.0,782.7,1354.0,1540.3,1864.5,1571.1,1155.0,84.0,40.0,-49.0,6688.0,7238.0,11383.0,6460.0,445.0,-378.0,400.0,-1.0,21.0,-61.0,-3733.0,-4267.0,10559.0,11172.0,266.0,-18.0,-16.0,1.0
2022-05-23 14:01:08.853551-07:00,2617.8,732.3,1642.6,1852.8,1300.7,1569.3,1400.3,1741.6,3418.9,3428.6,2536.8,1983.6,1653.9,3427.4,1712.9,2025.4,3421.3,3414.1,801.0,1404.0,967.9,606.8,1840.1,2139.2,3428.6,3431.0,821.9,1343.1,1540.3,1864.5,1572.1,1148.9,-26.0,-69.0,-76.0,6731.0,7383.0,11285.0,6423.0,-94.0,-422.0,279.0,16.0,3.0,8.0,-3707.0,-4266.0,10586.0,11155.0,-1.0,-45.0,-29.0,1.0
2022-05-23 14:01:08.913475-07:00,2617.8,732.3,1614.3,1846.9,1300.7,1569.3,1398.5,1714.8,3418.9,3428.6,2450.4,1942.0,1653.9,3427.4,1740.6,2075.5,3415.3,3426.2,801.0,1404.0,966.2,603.6,1840.1,2139.2,3428.6,3431.0,821.9,1343.1,1545.0,1865.4,1572.1,1148.9,37.0,98.0,77.0,6852.0,7559.0,11117.0,6385.0,-158.0,-326.0,151.0,-2.0,24.0,-55.0,-3669.0,-4271.0,10607.0,11145.0,-9.0,-99.0,-45.0,1.0
2022-05-23 14:01:09.032794-07:00,2674.4,735.6,1604.9,1846.9,1297.2,1567.4,1398.5,1714.8,3418.9,3433.4,2453.6,1942.0,1643.5,3423.7,1740.6,2075.5,3415.3,3426.2,805.2,1396.7,966.2,597.9,1822.6,2136.1,3428.6,3431.0,818.5,1314.2,1545.0,2127.0,1821.6,1141.9,-46.0,-54.0,-69.0,7004.0,7506.0,10968.0,6538.0,-652.0,-372.0,166.0,25.0,-6.0,57.0,-3639.0,-4268.0,10583.0,11179.0,69.0,12.0,-117.0,1.0
2022-05-23 14:01:09.034106-07:00,2674.4,735.6,1604.9,1834.3,1297.2,1505.1,1403.0,1713.8,3418.9,3433.4,2453.6,1914.4,1643.5,3428.6,1701.4,2065.5,3426.2,3421.3,801.9,1396.7,958.5,597.9,1822.6,2136.1,3434.6,3423.7,814.4,1314.2,1550.6,2127.0,1821.6,1141.9,15.0,-64.0,30.0,7141.0,7450.0,10869.0,6618.0,-299.0,116.0,-116.0,18.0,-8.0,14.0,-3614.0,-4285.0,10561.0,11202.0,-84.0,-19.0,-51.0,1.0
2022-05-23 14:01:09.123105-07:00,2707.3,727.4,1629.4,1834.3,1282.8,1505.1,1403.0,1713.8,3424.9,3432.2,2433.5,1914.4,1640.7,3428.6,1701.4,2065.5,3426.2,3421.3,801.9,1393.0,958.5,591.5,1684.3,2126.0,3434.6,3423.7,814.4,1212.4,1550.6,2347.3,2101.7,1147.1,-11.0,-53.0,-44.0,7084.0,7484.0,10826.0,6710.0,188.0,-48.0,536.0,18.0,-48.0,27.0,-3605.0,-4306.0,10570.0,11187.0,405.0,95.0,-26.0,1.0
2022-05-23 14:01:09.124379-07:00,2707.3,727.4,1629.4,1850.8,1282.8,1506.0,1391.2,1709.1,3424.9,3432.2,2433.5,1930.2,1640.7,3428.6,1681.4,2090.6,3426.2,3418.9,800.2,1393.0,956.8,591.5,1684.3,2126.0,3426.2,3428.6,796.0,1212.4,1597.4,2347.3,2101.7,1147.1,23.0,25.0,3.0,6975.0,7638.0,10794.0,6704.0,138.0,246.0,173.0,6.0,14.0,0.0,-3584.0,-4371.0,10667.0,11078.0,180.0,55.0,-11.0,1.0
2022-05-23 14:01:09.152821-07:00,2687.5,715.9,1937.1,1850.8,1275.6,1506.0,1391.2,1709.1,3432.2,3418.9,2416.6,1930.2,1648.3,3428.6,1681.4,2090.6,3426.2,3418.9,800.2,1389.4,956.8,583.5,1570.2,2162.6,3426.2,3428.6,796.0,1170.0,1597.4,2326.4,2027.4,1142.7,-37.0,-72.0,-108.0,6878.0,7680.0,10793.0,6756.0,148.0,-2.0,287.0,4.0,-20.0,12.0,-3585.0,-4411.0,10707.0,11022.0,295.0,117.0,-17.0,1.0
2022-05-23 14:01:09.273548-07:00,2687.5,715.9,1937.1,2003.5,1276.5,1529.2,1415.8,1691.0,3432.2,3418.9,2416.6,1966.7,1646.4,3432.2,1659.6,2127.0,3417.7,3422.5,800.2,1382.1,945.8,583.5,1570.2,2162.6,3424.9,3432.2,782.7,1158.6,1609.6,2326.4,2027.4,1142.7,63.0,44.0,-39.0,6863.0,7759.0,10748.0,6754.0,-226.0,52.0,17.0,-2.0,10.0,-74.0,-3577.0,-4461.0,10765.0,10947.0,-9.0,36.0,4.0,1.0
2022-05-23 14:01:09.276587-07:00,2630.8,723.3,2202.4,2287.9,1276.5,1529.2,1415.8,1691.0,3422.5,3429.8,2451.5,2057.4,1646.4,3432.2,1659.6,2127.0,3417.7,3422.5,800.2,1382.1,950.0,581.8,1509.7,2190.1,3424.9,3432.2,782.7,1158.6,1692.9,2298.3,2022.4,1142.7,28.0,-10.0,-83.0,6957.0,7699.0,10687.0,6823.0,-316.0,-286.0,-24.0,8.0,21.0,-29.0,-3590.0,-4465.0,10737.0,10970.0,-148.0,-1.0,-41.0,1.0
2022-05-23 14:01:09.332666-07:00,2630.8,723.3,2202.4,2287.9,1450.6,1546.9,1414.0,1693.8,3422.5,3429.8,2451.5,2057.4,1630.3,3432.2,1691.9,2239.4,3409.3,3427.4,803.5,1388.5,950.0,581.8,1509.7,2190.1,3429.8,3434.6,791.0,1146.3,1692.9,2298.3,2022.4,1142.7,-38.0,-40.0,-80.0,7131.0,7620.0,10579.0,6898.0,-504.0,-191.0,-128.0,17.0,4.0,13.0,-3592.0,-4449.0,10680.0,11031.0,-144.0,-62.0,-53.0,1.0
2022-05-23 14:01:09.362705-07:00,2636.2,889.0,2037.4,2244.5,1450.6,1546.9,1414.0,1693.8,3424.9,3418.9,2551.9,2180.9,1630.3,3432.2,1691.9,2239.4,3409.3,3427.4,803.5,1388.5,946.6,576.2,1470.9,2202.4,3429.8,3434.6,791.0,1146.3,1983.6,2244.5,1965.7,1137.5,28.0,27.0,-67.0,7422.0,7619.0,10342.0,6954.0,-674.0,-908.0,92.0,10.0,7.0,-98.0,-3568.0,-4433.0,10638.0,11085.0,-188.0,-75.0,-96.0,1.0
2022-05-23 14:01:09.392851-07:00,2636.2,889.0,2037.4,2244.5,1532.0,1559.9,1503.2,1782.9,3424.9,3418.9,2551.9,2180.9,1626.5,3422.5,1677.6,2304.5,3432.2,3427.4,806.9,1382.1,946.6,576.2,1470.9,2202.4,3439.5,3428.6,772.8,1146.3,1983.6,2244.5,1965.7,1137.5,-5.0,-91.0,-45.0,7732.0,7589.0,10112.0,6985.0,-623.0,-490.0,21.0,-2.0,-1.0,2.0,-3546.0,-4380.0,10534.0,11212.0,-408.0,-262.0,-21.0,1.0
2022-05-23 14:01:09.452949-07:00,2670.0,878.9,1886.9,2208.6,1532.0,1559.9,1503.2,1864.5,3434.6,3427.4,2525.0,2125.0,1626.5,3422.5,1677.6,2235.3,3427.4,3427.4,806.9,1382.1,948.3,579.4,1435.0,2182.0,3432.2,3428.6,772.8,1146.3,1989.5,2246.6,1932.1,1146.3,25.0,10.0,24.0,7919.0,7558.0,9915.0,7093.0,-454.0,-182.0,16.0,-1.0,-11.0,9.0,-3527.0,-4265.0,10440.0,11350.0,-311.0,-183.0,8.0,1.0
2022-05-23 14:01:09.513468-07:00,2554.0,878.9,1886.9,2208.6,1543.1,1519.9,1588.9,1864.5,3427.4,3427.4,2525.0,2125.0,1619.9,3428.6,1627.5,2235.3,3427.4,3426.2,803.5,1384.8,948.3,579.4,1435.0,2159.5,3432.2,3418.9,764.5,1145.4,1989.5,2246.6,1932.1,1150.6,-29.0,-65.0,4.0,8000.0,7492.0,9874.0,7128.0,-107.0,-32.0,-70.0,13.0,-18.0,43.0,-3525.0,-4211.0,10375.0,11430.0,-78.0,-14.0,-8.0,1.0
2022-05-23 14:01:09.572707-07:00,2554.0,833.6,1843.0,2154.4,1543.1,1519.9,1588.9,1835.2,3427.4,3427.4,2504.7,2123.0,1619.9,3428.6,1627.5,2206.5,3420.1,3426.2,803.5,1384.8,938.1,577.0,1411.3,2159.5,3431.0,3418.9,764.5,1145.4,1927.2,2169.7,1894.8,1150.6,28.0,7.0,1.0,7987.0,7478.0,9899.0,7123.0,55.0,144.0,-62.0,25.0,1.0,0.0,-3529.0,-4220.0,10373.0,11427.0,37.0,60.0,-16.0,1.0
2022-05-23 14:01:09.602730-07:00,2507.9,833.6,1843.0,2154.4,1502.3,1531.0,1570.2,1835.2,3416.5,3427.4,2504.7,2123.0,1615.2,3428.6,1621.8,2206.5,3420.1,3418.9,802.7,1381.2,938.1,577.0,1411.3,2138.2,3431.0,3429.8,757.9,1126.1,1927.2,2169.7,1894.8,1141.0,49.0,9.0,-22.0,7936.0,7426.0,9964.0,7143.0,45.0,264.0,-85.0,14.0,-6.0,-34.0,-3537.0,-4242.0,10379.0,11411.0,34.0,50.0,-27.0,1.0
2022-05-23 14:01:09.662746-07:00,2507.9,831.1,1828.4,2140.2,1502.3,1531.0,1570.2,1813.9,3416.5,3431.0,2521.8,2087.6,1615.2,3428.6,1621.8,2200.4,3434.6,3418.9,802.7,1381.2,939.0,579.4,1403.0,2138.2,3423.7,3429.8,757.9,1126.1,1912.4,2139.2,1883.0,1141.0,-13.0,-6.0,-50.0,7859.0,7316.0,10139.0,7096.0,243.0,346.0,-411.0,25.0,9.0,18.0,-3530.0,-4288.0,10378.0,11397.0,24.0,97.0,-100.0,1.0
2022-05-23 14:01:09.722762-07:00,2494.0,831.1,1828.4,2140.2,1485.6,1514.3,1544.1,1813.9,3432.2,3431.0,2521.8,2087.6,1604.9,3429.8,1613.4,2200.4,3434.6,3424.9,806.9,1374.8,939.0,579.4,1403.0,2130.1,3423.7,3428.6,751.3,1120.0,1912.4,2139.2,1883.0,1149.8,11.0,-37.0,-64.0,7833.0,7215.0,10262.0,7051.0,41.0,187.0,-226.0,6.0,4.0,-18.0,-3531.0,-4332.0,10355.0,11400.0,-71.0,52.0,-45.0,1.0
2022-05-23 14:01:09.766229-07:00,2494.0,848.6,1855.7,2130.1,1485.6,1514.3,1541.3,1801.3,3432.2,3424.9,2512.2,2077.5,1604.9,3429.8,1604.9,2186.0,3423.7,3421.3,806.9,1374.8,940.7,573.8,1393.9,2130.1,3422.5,3428.6,751.3,1120.0,1922.3,2115.9,1881.1,1149.8,-10.0,-26.0,-66.0,7806.0,7151.0,10358.0,7006.0,-38.0,91.0,-204.0,4.0,1.0,-9.0,-3542.0,-4342.0,10321.0,11424.0,-173.0,8.0,-22.0,1.0
2022-05-23 14:01:09.843597-07:00,2509.0,916.9,1855.7,2130.1,1471.8,1506.9,1541.3,1801.3,3434.6,3432.2,2512.2,2077.5,1612.4,3427.4,1604.9,2186.0,3423.7,3421.3,806.0,1378.5,940.7,573.8,1394.8,2120.9,3422.5,3428.6,762.0,1123.5,1922.3,2115.9,1855.7,1151.5,76.0,67.0,-12.0,7839.0,7023.0,10413.0,7016.0,-317.0,280.0,-419.0,-3.0,19.0,-39.0,-3565.0,-4324.0,10257.0,11482.0,-460.0,-17.0,17.0,1.0
2022-05-23 14:01:09.844599-07:00,2509.0,916.9,1877.2,2117.9,1471.8,1506.9,1520.8,1793.6,3434.6,3432.2,2578.8,2058.4,1612.4,3427.4,1634.1,2171.8,3421.3,3427.4,806.0,1378.5,935.6,577.0,1394.8,2120.9,3429.8,3426.2,762.0,1123.5,1956.8,2115.9,1855.7,1151.5,17.0,8.0,-33.0,7941.0,6648.0,10508.0,7124.0,-747.0,462.0,-688.0,14.0,14.0,-3.0,-3630.0,-4263.0,10081.0,11639.0,-714.0,6.0,14.0,1.0
2022-05-23 14:01:09.903203-07:00,2509.0,1021.1,1877.2,2117.9,1446.0,1496.7,1520.8,1793.6,3427.4,3423.7,2578.8,2058.4,1601.1,3428.6,1634.1,2171.8,3421.3,3427.4,811.0,1378.5,935.6,577.0,1384.8,2119.9,3429.8,3426.2,756.3,1152.4,1956.8,2115.9,1892.8,1143.6,25.0,-70.0,-58.0,8065.0,6249.0,10567.0,7258.0,-596.0,342.0,-516.0,21.0,-5.0,-8.0,-3720.0,-4192.0,9859.0,11824.0,-658.0,-6.0,48.0,1.0
2022-05-23 14:01:09.993612-07:00,2509.0,1021.1,1862.5,2086.6,1446.0,1496.7,1504.1,1762.7,3427.4,3423.7,2839.2,2060.5,1601.1,3428.6,1652.0,2124.0,3418.9,3415.3,811.0,1378.5,939.8,575.4,1384.8,2119.9,3424.9,3421.3,756.3,1152.4,1941.0,2056.4,1892.8,1143.6,104.0,-79.0,-62.0,8099.0,5956.0,10598.0,7419.0,-384.0,574.0,-208.0,20.0,-45.0,22.0,-3801.0,-4096.0,9681.0,11979.0,-519.0,-72.0,105.0,1.0
2022-05-23 14:01:09.994596-07:00,2501.5,953.4,1838.2,2086.6,1436.0,1513.4,1504.1,1762.7,3424.9,3427.4,2782.4,2060.5,1608.7,3426.2,1652.0,2124.0,3418.9,3415.3,821.9,1371.2,939.8,572.2,1472.7,2133.1,3424.9,3421.3,757.1,1206.2,1941.0,2026.4,1885.0,1128.7,-55.0,-110.0,-134.0,7951.0,5905.0,10824.0,7293.0,1174.0,297.0,-71.0,14.0,-26.0,60.0,-3853.0,-4031.0,9585.0,12061.0,-159.0,-2.0,73.0,1.0
2022-05-23 14:01:10.053406-07:00,2501.5,953.4,1838.2,2089.6,1436.0,1509.7,1500.4,1759.8,3424.9,3427.4,2782.4,2028.4,1608.7,3421.3,1688.1,2142.2,3424.9,3423.7,820.2,1371.2,934.7,572.2,1472.7,2133.1,3432.2,3426.2,744.7,1206.2,1843.0,2026.4,1885.0,1128.7,63.0,-23.0,-9.0,7991.0,5838.0,10664.0,7535.0,-1159.0,360.0,203.0,16.0,5.0,39.0,-3916.0,-3941.0,9497.0,12140.0,-477.0,-104.0,149.0,1.0
2022-05-23 14:01:10.143516-07:00,2597.2,925.4,1833.3,2089.6,1461.7,1509.7,1500.4,1759.8,3424.9,3432.2,2802.4,2028.4,1613.4,3421.3,1688.1,2142.2,3424.9,3423.7,820.2,1376.6,934.7,574.6,1973.7,2111.8,3432.2,3426.2,744.7,1231.9,1843.0,2023.4,1986.6,1146.3,76.0,46.0,29.0,7958.0,5658.0,10602.0,7790.0,-497.0,470.0,4.0,25.0,19.0,28.0,-3959.0,-3862.0,9432.0,12202.0,-145.0,-47.0,48.0,1.0
2022-05-23 14:01:10.145068-07:00,2597.2,925.4,1833.3,2149.3,1461.7,1539.4,1479.2,1758.9,3424.9,3432.2,2802.4,2058.4,1613.4,3424.9,1718.6,2131.1,3423.7,3427.4,804.4,1376.6,943.2,574.6,1973.7,2111.8,3423.7,3426.2,749.6,1231.9,1779.1,2023.4,1986.6,1146.3,96.0,29.0,-49.0,7893.0,5491.0,10628.0,7938.0,-85.0,643.0,-28.0,26.0,-5.0,-10.0,-3976.0,-3844.0,9414.0,12216.0,6.0,28.0,3.0,1.0
2022-05-23 14:01:10.293318-07:00,2615.6,896.6,1815.8,2149.3,1440.5,1539.4,1479.2,1758.9,3432.2,3429.8,2507.9,2058.4,1602.1,3424.9,1718.6,2131.1,3423.7,3427.4,804.4,1371.2,943.2,576.2,1908.5,2095.7,3423.7,3426.2,749.6,1252.4,1779.1,2045.4,2041.4,1134.9,-29.0,-20.0,-30.0,7768.0,5303.0,10705.0,8086.0,-49.0,473.0,-37.0,7.0,-6.0,-3.0,-3990.0,-3850.0,9418.0,12206.0,158.0,71.0,-1.0,1.0
2022-05-23 14:01:10.294497-07:00,2615.6,896.6,1815.8,2097.7,1440.5,1529.2,1461.7,1744.5,3432.2,3429.8,2507.9,1928.2,1602.1,3424.9,1720.5,2106.8,3422.5,3429.8,806.9,1371.2,944.9,576.2,1908.5,2095.7,3428.6,3431.0,755.4,1252.4,1730.1,2045.4,2041.4,1134.9,60.0,23.0,-54.0,7656.0,5191.0,10820.0,8112.0,44.0,536.0,-230.0,11.0,9.0,-7.0,-3994.0,-3882.0,9452.0,12169.0,37.0,46.0,-9.0,1.0
2022-05-23 14:01:10.296123-07:00,2763.5,891.5,1873.2,2153.4,1410.3,1529.2,1461.7,1744.5,3426.2,3427.4,2208.6,1798.4,1605.8,3424.9,1720.5,2106.8,3422.5,3429.8,806.9,1367.6,947.5,573.8,1864.5,2095.7,3428.6,3431.0,755.4,1259.6,1703.3,2046.4,1910.5,1127.0,10.0,-24.0,-19.0,7566.0,5011.0,10974.0,8103.0,184.0,472.0,-315.0,11.0,-5.0,-1.0,-4002.0,-3904.0,9453.0,12158.0,114.0,58.0,-34.0,1.0
2022-05-23 14:01:10.383232-07:00,2763.5,891.5,1873.2,2153.4,1390.3,1545.0,1451.6,1748.3,3426.2,3427.4,2208.6,1798.4,1600.2,3431.0,1604.9,2023.4,3429.8,3421.3,804.4,1365.7,947.5,573.8,1864.5,2095.7,3432.2,3434.6,743.9,1275.6,1703.3,2046.4,1910.5,1127.0,77.0,12.0,-42.0,7475.0,4890.0,11168.0,7995.0,481.0,409.0,-413.0,9.0,9.0,-15.0,-3989.0,-3947.0,9489.0,12120.0,99.0,40.0,-53.0,1.0
2022-05-23 14:01:10.473281-07:00,2857.1,886.5,2073.5,2213.7,1390.3,1545.0,1451.6,1748.3,3414.1,3426.2,2008.4,1745.4,1600.2,3431.0,1604.9,2023.4,3429.8,3421.3,804.4,1365.7,952.6,575.4,1939.0,2078.5,3432.2,3434.6,743.9,1275.6,1676.7,1974.6,1811.0,1134.0,-35.0,-101.0,-69.0,7399.0,4817.0,11372.0,7821.0,648.0,-102.0,-44.0,5.0,-32.0,-15.0,-3992.0,-3982.0,9508.0,12093.0,324.0,93.0,12.0,1.0
2022-05-23 14:01:10.474255-07:00,2857.1,886.5,2073.5,2213.7,1373.9,1566.5,1429.5,1760.8,3414.1,3426.2,2008.4,1745.4,1588.0,3426.2,1511.5,1963.7,3423.7,3424.9,805.2,1390.3,952.6,575.4,1939.0,2078.5,3428.6,3427.4,741.4,1337.7,1676.7,1974.6,1811.0,1134.0,7.0,39.0,-46.0,7316.0,5061.0,11499.0,7555.0,1139.0,-237.0,201.0,0.0,12.0,0.0,-3962.0,-4049.0,9640.0,11976.0,548.0,41.0,-25.0,1.0
2022-05-23 14:01:10.502663-07:00,2975.7,870.5,2170.7,2196.3,1373.9,1566.5,1429.5,1760.8,3429.8,3427.4,2014.4,1724.4,1588.0,3426.2,1511.5,1963.7,3423.7,3424.9,805.2,1390.3,960.2,588.3,2037.4,2062.5,3428.6,3427.4,741.4,1337.7,1665.3,1917.4,1701.4,1132.2,-55.0,3.0,-41.0,7212.0,5293.0,11619.0,7308.0,586.0,-122.0,20.0,-1.0,-3.0,32.0,-3924.0,-4111.0,9759.0,11870.0,272.0,83.0,-25.0,1.0
2022-05-23 14:01:10.682708-07:00,2964.3,870.5,2170.7,2196.3,1356.7,1580.5,1419.5,1756.0,3426.2,3427.4,2014.4,1724.4,1578.6,3435.8,1465.4,1927.2,3418.9,3428.6,804.4,1425.9,960.2,588.3,2037.4,2054.4,3428.6,3431.0,753.8,1394.8,1665.3,1917.4,1701.4,1130.5,67.0,-19.0,-26.0,7177.0,5475.0,11713.0,7054.0,818.0,-199.0,26.0,6.0,2.0,-46.0,-3905.0,-4172.0,9844.0,11784.0,399.0,50.0,-10.0,1.0
2022-05-23 14:01:10.685213-07:00,2964.3,863.7,2157.5,2114.9,1356.7,1580.5,1419.5,1720.5,3426.2,3418.9,1975.6,1711.0,1578.6,3435.8,1465.4,1917.4,3416.5,3428.6,804.4,1425.9,967.1,602.8,1986.6,2054.4,3433.4,3431.0,753.8,1394.8,1650.2,1882.0,1646.4,1130.5,-1.0,-8.0,-53.0,7089.0,5673.0,11793.0,6850.0,421.0,-195.0,299.0,16.0,8.0,7.0,-3881.0,-4218.0,9953.0,11684.0,237.0,28.0,41.0,1.0
2022-05-23 14:01:10.686198-07:00,2919.0,863.7,2157.5,2114.9,1339.5,1577.7,1376.6,1720.5,3423.7,3418.9,1975.6,1711.0,1573.9,3421.3,1483.8,1917.4,3416.5,3429.8,800.2,1436.9,967.1,602.8,1986.6,2051.4,3433.4,3422.5,740.6,1406.7,1650.2,1882.0,1646.4,1127.0,15.0,-19.0,-38.0,7048.0,5884.0,11782.0,6732.0,520.0,-233.0,224.0,10.0,6.0,0.0,-3869.0,-4236.0,10021.0,11624.0,199.0,1.0,14.0,1.0
2022-05-23 14:01:10.742841-07:00,2919.0,847.8,2061.5,2051.4,1339.5,1577.7,1376.6,1698.6,3423.7,3427.4,2115.9,1719.6,1573.9,3421.3,1483.8,1926.2,3416.5,3429.8,800.2,1436.9,968.8,606.8,1969.7,2051.4,3429.8,3422.5,740.6,1406.7,1646.4,1874.2,1636.9,1127.0,47.0,19.0,-52.0,7028.0,6098.0,11787.0,6551.0,331.0,-379.0,125.0,0.0,15.0,-26.0,-3858.0,-4233.0,10054.0,11600.0,-9.0,-54.0,22.0,1.0
2022-05-23 14:01:10.744146-07:00,2872.8,847.8,2061.5,2051.4,1327.8,1611.5,1379.4,1698.6,3428.6,3427.4,2115.9,1719.6,1568.3,3418.9,1532.9,1926.2,3416.5,3417.7,796.9,1440.5,968.8,606.8,1969.7,2032.4,3429.8,3426.2,735.6,1394.8,1646.4,1874.2,1636.9,1122.6,-8.0,-33.0,-22.0,7074.0,6217.0,11755.0,6447.0,193.0,-258.0,102.0,14.0,-6.0,20.0,-3854.0,-4197.0,10039.0,11627.0,-84.0,-59.0,24.0,1.0
2022-05-23 14:01:10.832821-07:00,2872.8,842.8,2012.4,2047.4,1327.8,1611.5,1357.6,1691.0,3428.6,3426.2,2333.7,1757.0,1568.3,3418.9,1530.1,1921.3,3429.8,3423.7,796.9,1440.5,961.1,607.6,1936.1,2032.4,3427.4,3429.8,735.6,1394.8,1643.5,1858.6,1617.1,1122.6,7.0,-22.0,-25.0,7087.0,6371.0,11723.0,6340.0,417.0,-327.0,235.0,6.0,3.0,0.0,-3845.0,-4189.0,10056.0,11619.0,99.0,-7.0,8.0,1.0
2022-05-23 14:01:10.862763-07:00,2839.2,828.5,2012.4,2047.4,1325.0,1622.8,1357.6,1691.0,3429.8,3427.4,2333.7,1757.0,1575.8,3421.3,1530.1,1921.3,3429.8,3423.7,794.4,1439.6,961.1,607.6,1925.2,2034.4,3427.4,3429.8,730.7,1397.6,1643.5,1858.6,1603.0,1129.6,16.0,-14.0,0.0,7088.0,6560.0,11677.0,6231.0,176.0,-281.0,222.0,5.0,-7.0,-7.0,-3835.0,-4188.0,10087.0,11595.0,67.0,-26.0,13.0,1.0
2022-05-23 14:01:10.892826-07:00,2839.2,828.5,2007.4,2021.4,1325.0,1622.8,1363.9,1686.2,3429.8,3427.4,2677.7,1799.4,1575.8,3421.3,1571.1,1932.1,3424.9,3422.5,794.4,1439.6,959.4,610.8,1925.2,2034.4,3423.7,3429.8,730.7,1397.6,1649.2,1852.8,1603.0,1129.6,49.0,14.0,-38.0,7110.0,6714.0,11613.0,6159.0,124.0,-352.0,175.0,7.0,1.0,-9.0,-3822.0,-4196.0,10124.0,11564.0,126.0,-13.0,-13.0,1.0
2022-05-23 14:01:10.953986-07:00,2817.9,825.2,2007.4,2021.4,1320.5,1625.6,1363.9,1686.2,3414.1,3421.3,2677.7,1799.4,1581.4,3422.5,1571.1,1932.1,3424.9,3422.5,797.7,1429.5,959.4,610.8,1892.8,2030.4,3423.7,3429.8,738.9,1378.5,1649.2,1852.8,1590.8,1119.1,42.0,18.0,-19.0,7173.0,6800.0,11531.0,6148.0,-283.0,-144.0,47.0,0.0,10.0,-28.0,-3796.0,-4219.0,10165.0,11528.0,166.0,-3.0,-49.0,1.0
2022-05-23 14:01:11.013030-07:00,2817.9,825.2,2019.4,2012.4,1320.5,1625.6,1401.2,1695.7,3414.1,3421.3,2825.8,1869.3,1581.4,3422.5,1604.9,1905.6,3429.8,3429.8,797.7,1429.5,963.7,610.0,1892.8,2030.4,3433.4,3423.7,738.9,1378.5,1635.0,1846.9,1590.8,1119.1,67.0,-70.0,-2.0,7224.0,6742.0,11461.0,6280.0,-551.0,210.0,130.0,12.0,-1.0,-29.0,-3772.0,-4214.0,10189.0,11517.0,28.0,-66.0,2.0,1.0
2022-05-23 14:01:11.042809-07:00,2774.6,811.0,2019.4,2012.4,1309.7,1604.0,1401.2,1695.7,3422.5,3434.6,2825.8,1869.3,1589.9,3423.7,1604.9,1905.6,3429.8,3429.8,792.7,1418.6,963.7,610.0,1872.3,2023.4,3433.4,3423.7,738.9,1362.1,1635.0,1846.9,1579.6,1118.2,-84.0,-77.0,-14.0,7147.0,6750.0,11443.0,6390.0,401.0,117.0,330.0,20.0,0.0,59.0,-3747.0,-4232.0,10253.0,11461.0,504.0,52.0,-18.0,1.0
2022-05-23 14:01:11.102830-07:00,2774.6,811.0,1953.9,1979.6,1309.7,1608.7,1412.2,1702.4,3422.5,3434.6,2693.0,1913.4,1589.9,3432.2,1616.2,1891.8,3429.8,3422.5,794.4,1418.6,950.9,608.4,1872.3,2023.4,3429.8,3432.2,763.7,1362.1,1619.9,1829.4,1579.6,1118.2,159.0,71.0,-12.0,7037.0,7003.0,11393.0,6330.0,176.0,-247.0,510.0,-27.0,28.0,-85.0,-3698.0,-4305.0,10411.0,11306.0,459.0,15.0,-15.0,1.0
2022-05-23 14:01:11.162752-07:00,2779.0,801.9,1973.7,1979.6,1303.4,1608.7,1412.2,1702.4,3414.1,3429.8,2548.7,1913.4,1588.0,3432.2,1616.2,1891.8,3429.8,3422.5,794.4,1419.5,950.9,605.2,1808.1,2021.4,3429.8,3432.2,763.7,1351.2,1619.9,1972.7,1707.2,1118.2,-122.0,-74.0,-19.0,7033.0,7001.0,11322.0,6462.0,-359.0,205.0,98.0,23.0,-22.0,80.0,-3659.0,-4323.0,10471.0,11257.0,156.0,-31.0,-31.0,1.0
2022-05-23 14:01:11.192906-07:00,2779.0,801.9,1973.7,1964.7,1303.4,1567.4,1431.4,1711.9,3414.1,3429.8,2548.7,1903.6,1588.0,3427.4,1665.3,1938.0,3422.5,3418.9,798.5,1419.5,950.9,605.2,1808.1,2021.4,3432.2,3424.9,815.2,1351.2,1655.8,1972.7,1707.2,1118.2,293.0,-7.0,-69.0,7052.0,7158.0,11164.0,6545.0,173.0,-627.0,616.0,-9.0,33.0,-154.0,-3616.0,-4374.0,10566.0,11162.0,300.0,8.0,-26.0,1.0
2022-05-23 14:01:11.252718-07:00,2704.0,794.4,1965.7,1964.7,1310.6,1567.4,1431.4,1711.9,3427.4,3424.9,2522.9,1903.6,1577.7,3427.4,1665.3,1938.0,3422.5,3418.9,798.5,1398.5,950.9,593.1,1686.2,2028.4,3432.2,3424.9,815.2,1281.9,1655.8,2350.4,2075.5,1120.9,-218.0,50.0,-173.0,7020.0,7131.0,11144.0,6643.0,-471.0,546.0,-149.0,45.0,-21.0,79.0,-3593.0,-4345.0,10561.0,11185.0,-149.0,-51.0,-23.0,1.0
2022-05-23 14:01:11.312726-07:00,2704.0,794.4,1965.7,1950.9,1310.6,1545.0,1503.2,1763.7,3427.4,3424.9,2522.9,1975.6,1577.7,3434.6,1730.1,2261.0,3426.2,3418.9,794.4,1398.5,942.4,593.1,1686.2,2028.4,3433.4,3432.2,803.5,1281.9,1770.4,2350.4,2075.5,1120.9,33.0,-87.0,-58.0,7167.0,7085.0,10999.0,6774.0,-544.0,-695.0,362.0,-10.0,7.0,-34.0,-3595.0,-4348.0,10521.0,11221.0,-99.0,20.0,-24.0,1.0
2022-05-23 14:01:11.343520-07:00,2634.1,788.6,2117.9,2054.4,1299.8,1545.0,1503.2,1763.7,3426.2,3422.5,2554.0,2153.4,1578.6,3434.6,1730.1,2261.0,3426.2,3418.9,794.4,1395.7,946.6,588.3,1623.7,2103.7,3433.4,3432.2,803.5,1233.7,1757.0,2251.7,1965.7,1113.9,51.0,44.0,-22.0,7346.0,7160.0,10750.0,6902.0,-531.0,-30.0,-41.0,10.0,4.0,-15.0,-3594.0,-4318.0,10489.0,11263.0,-284.0,-101.0,-4.0,1.0
2022-05-23 14:01:11.402789-07:00,2634.1,788.6,2117.9,2054.4,1343.1,1603.0,1475.5,1711.0,3426.2,3422.5,2554.0,2153.4,1572.1,3434.6,1681.4,2323.3,3423.7,3420.1,796.9,1390.3,946.6,588.3,1623.7,2103.7,3433.4,3426.2,779.4,1205.3,1757.0,2251.7,1965.7,1113.9,30.0,-32.0,-30.0,7486.0,7008.0,10687.0,7005.0,-541.0,-215.0,-131.0,8.0,2.0,-5.0,-3605.0,-4265.0,10394.0,11367.0,-398.0,-82.0,6.0,1.0
2022-05-23 14:01:11.432837-07:00,2604.8,769.5,2117.9,2160.5,1343.1,1603.0,1475.5,1711.0,3432.2,3428.6,2513.3,2163.6,1572.1,3434.6,1681.4,2323.3,3423.7,3420.1,796.9,1390.3,940.7,581.8,1519.9,2110.8,3433.4,3426.2,779.4,1205.3,1744.5,2217.8,1937.1,1123.5,116.0,44.0,65.0,7643.0,6854.0,10544.0,7201.0,-898.0,266.0,-61.0,6.0,15.0,-53.0,-3629.0,-4184.0,10300.0,11474.0,-371.0,-134.0,64.0,1.0
2022-05-23 14:01:11.492825-07:00,2604.8,769.5,2117.9,2160.5,1405.8,1579.6,1448.8,1699.5,3432.2,3428.6,2513.3,2163.6,1598.3,3435.8,1661.5,2377.6,3415.3,3424.9,799.4,1392.1,940.7,581.8,1519.9,2110.8,3427.4,3428.6,773.6,1178.8,1744.5,2217.8,1937.1,1123.5,-134.0,-111.0,-122.0,7665.0,6518.0,10479.0,7576.0,-738.0,579.0,14.0,15.0,-29.0,79.0,-3682.0,-4090.0,10178.0,11600.0,-258.0,9.0,54.0,1.0
2022-05-23 14:01:11.552726-07:00,2537.9,795.2,2008.4,2151.4,1405.8,1579.6,1448.8,1699.5,3423.7,3427.4,2464.2,2130.1,1598.3,3435.8,1661.5,2377.6,3415.3,3424.9,799.4,1392.1,940.7,584.3,1454.3,2198.3,3427.4,3428.6,773.6,1178.8,1845.0,2186.0,1889.9,1118.2,64.0,21.0,-37.0,7621.0,6501.0,10477.0,7636.0,-201.0,154.0,50.0,8.0,10.0,-39.0,-3693.0,-4119.0,10181.0,11583.0,2.0,58.0,-25.0,1.0
2022-05-23 14:01:11.582895-07:00,2537.9,795.2,2008.4,2151.4,1446.0,1559.9,1430.5,1663.4,3423.7,3427.4,2464.2,2130.1,1606.8,3427.4,1619.0,2363.0,3428.6,3427.4,807.7,1389.4,940.7,584.3,1454.3,2198.3,3439.5,3438.2,771.1,1162.1,1845.0,2186.0,1889.9,1118.2,7.0,-18.0,-88.0,7616.0,6412.0,10477.0,7716.0,-107.0,90.0,-84.0,3.0,-8.0,-10.0,-3695.0,-4127.0,10161.0,11597.0,-29.0,11.0,-34.0,1.0
2022-05-23 14:01:11.642798-07:00,2460.0,775.3,1953.9,2120.9,1446.0,1559.9,1430.5,1718.6,3429.8,3431.0,2438.8,2089.6,1606.8,3427.4,1619.0,2307.7,3423.7,3427.4,807.7,1389.4,937.3,585.9,1418.6,2211.6,3426.2,3438.2,771.1,1162.1,1825.5,2162.6,1873.2,1168.2,17.0,-33.0,-50.0,7634.0,6364.0,10486.0,7727.0,-102.0,37.0,-71.0,4.0,-5.0,-8.0,-3689.0,-4130.0,10146.0,11611.0,-74.0,-19.0,-17.0,1.0
2022-05-23 14:01:11.703144-07:00,2428.2,775.3,1953.9,2120.9,1441.5,1545.0,1439.6,1718.6,3431.0,3431.0,2438.8,2089.6,1595.5,3429.8,1590.8,2307.7,3423.7,3431.0,807.7,1387.5,937.3,585.9,1418.6,2171.8,3426.2,3432.2,761.2,1148.9,1825.5,2162.6,1873.2,1167.4,36.0,16.0,-11.0,7634.0,6314.0,10506.0,7740.0,-73.0,151.0,-123.0,8.0,5.0,-8.0,-3692.0,-4121.0,10136.0,11623.0,-42.0,-7.0,11.0,1.0
2022-05-23 14:01:11.732976-07:00,2428.2,767.8,1893.8,2086.6,1441.5,1545.0,1439.6,1690.0,3431.0,3423.7,2471.7,2074.5,1595.5,3429.8,1590.8,2290.0,3423.7,3431.0,807.7,1387.5,932.2,582.6,1414.0,2171.8,3431.0,3432.2,761.2,1148.9,1759.8,2171.8,1850.8,1167.4,-3.0,-44.0,-41.0,7608.0,6228.0,10569.0,7749.0,77.0,188.0,-108.0,30.0,-2.0,18.0,-3704.0,-4116.0,10114.0,11640.0,-46.0,22.0,6.0,1.0
2022-05-23 14:01:11.853821-07:00,2578.8,767.8,1893.8,2086.6,1417.6,1553.4,1435.0,1690.0,3418.9,3423.7,2471.7,2074.5,1589.9,3427.4,1611.5,2290.0,3423.7,3414.1,801.9,1382.1,932.2,582.6,1414.0,2148.3,3431.0,3432.2,755.4,1166.5,1759.8,2171.8,1850.8,1181.5,34.0,-45.0,-44.0,7539.0,6242.0,10587.0,7780.0,-86.0,147.0,261.0,3.0,7.0,-57.0,-3729.0,-4094.0,10107.0,11645.0,-50.0,-30.0,101.0,1.0
2022-05-23 14:01:11.855186-07:00,2578.8,754.6,1881.1,2071.5,1417.6,1553.4,1435.0,1707.2,3418.9,3431.0,2502.6,2050.4,1589.9,3427.4,1611.5,2286.9,3427.4,3414.1,801.9,1382.1,939.8,580.2,1489.3,2148.3,3424.9,3432.2,755.4,1166.5,1722.4,2171.8,1888.9,1181.5,4.0,68.0,-55.0,7454.0,6207.0,10615.0,7853.0,78.0,224.0,-86.0,18.0,22.0,12.0,-3745.0,-4063.0,10119.0,11641.0,27.0,-5.0,27.0,1.0
2022-05-23 14:01:11.912786-07:00,2529.3,748.8,1881.1,2071.5,1399.4,1559.9,1436.0,1707.2,3426.2,3423.7,2502.6,2050.4,1573.9,3433.4,1663.4,2286.9,3427.4,3424.9,805.2,1392.1,939.8,580.2,1565.5,2132.1,3424.9,3428.6,754.6,1180.6,1722.4,2171.8,1926.2,1188.5,52.0,-14.0,-25.0,7456.0,6081.0,10681.0,7859.0,-173.0,284.0,-271.0,10.0,-2.0,-23.0,-3763.0,-4049.0,10070.0,11682.0,-258.0,4.0,-9.0,1.0
2022-05-23 14:01:11.973037-07:00,2529.3,748.8,1888.9,2065.5,1399.4,1559.9,1448.8,1698.6,3426.2,3423.7,2522.9,2048.4,1573.9,3433.4,1687.2,2311.8,3432.2,3423.7,805.2,1392.1,931.3,576.2,1565.5,2132.1,3418.9,3428.6,754.6,1180.6,1694.8,2205.5,1926.2,1188.5,46.0,4.0,-18.0,7394.0,5917.0,10785.0,7902.0,-62.0,495.0,-202.0,-1.0,15.0,-2.0,-3785.0,-4035.0,10014.0,11728.0,-101.0,31.0,-1.0,1.0
2022-05-23 14:01:12.032778-07:00,2529.3,752.9,1888.9,2065.5,1382.1,1544.1,1448.8,1698.6,3427.4,3434.6,2522.9,2048.4,1576.8,3426.2,1687.2,2311.8,3432.2,3423.7,805.2,1384.8,931.3,576.2,1572.1,2103.7,3418.9,3428.6,752.1,1205.3,1694.8,2205.5,2001.5,1182.3,14.0,-24.0,-59.0,7291.0,5692.0,10930.0,7963.0,-77.0,641.0,-321.0,15.0,-9.0,27.0,-3813.0,-4027.0,9960.0,11767.0,-218.0,32.0,9.0,1.0
2022-05-23 14:01:12.034070-07:00,2529.3,752.9,1990.5,2149.3,1382.1,1544.1,1476.4,1707.2,3427.4,3434.6,2659.1,2013.4,1576.8,3426.2,1745.4,2336.8,3418.9,3426.2,805.2,1384.8,930.5,574.6,1572.1,2103.7,3429.8,3431.0,752.1,1205.3,1670.1,2286.9,2001.5,1182.3,75.0,-10.0,-23.0,7169.0,5581.0,11054.0,7982.0,44.0,409.0,69.0,13.0,18.0,-25.0,-3835.0,-4029.0,9931.0,11785.0,-7.0,39.0,24.0,1.0
2022-05-23 14:01:12.093069-07:00,2561.6,749.6,1990.5,2149.3,1364.8,1538.5,1476.4,1707.2,3418.9,3418.9,2659.1,2013.4,1573.9,3431.0,1745.4,2336.8,3418.9,3426.2,801.0,1380.3,930.5,574.6,1842.0,2171.8,3429.8,3431.0,746.3,1243.5,1670.1,2286.9,2128.0,1161.2,11.0,-74.0,-82.0,7054.0,5423.0,10999.0,8263.0,-580.0,513.0,241.0,20.0,-14.0,17.0,-3859.0,-4004.0,9920.0,11794.0,-81.0,-26.0,84.0,1.0
2022-05-23 14:01:12.272903-07:00,2561.6,749.6,2203.4,2234.2,1364.8,1538.5,1481.0,1706.2,3418.9,3418.9,2988.2,2195.2,1573.9,3431.0,1759.8,2298.3,3424.9,3421.3,801.0,1380.3,939.8,577.8,1842.0,2171.8,3424.9,3428.6,746.3,1243.5,1665.3,2403.9,2128.0,1161.2,24.0,61.0,-43.0,6920.0,5384.0,11015.0,8380.0,6.0,357.0,93.0,-1.0,19.0,-3.0,-3878.0,-3996.0,9940.0,11774.0,80.0,39.0,25.0,1.0
2022-05-23 14:01:12.343415-07:00,2535.8,763.7,2025.4,2234.2,1354.0,1521.8,1481.0,1706.2,3427.4,3423.7,2687.5,2195.2,1580.5,3429.8,1759.8,2298.3,3424.9,3421.3,795.2,1390.3,939.8,577.8,1825.5,2146.3,3424.9,3428.6,748.0,1234.6,1665.3,2347.3,2046.4,1156.8,14.0,-20.0,-54.0,6878.0,5272.0,11041.0,8451.0,-178.0,245.0,-119.0,3.0,-1.0,-13.0,-3895.0,-4001.0,9917.0,11786.0,-114.0,24.0,-2.0,1.0
2022-05-23 14:01:12.363430-07:00,2535.8,763.7,2025.4,2047.4,1354.0,1513.4,1470.9,1688.1,3427.4,3423.7,2687.5,2002.5,1580.5,3422.5,1626.5,2136.1,3429.8,3432.2,789.4,1390.3,938.1,577.8,1825.5,2146.3,3429.8,3428.6,734.0,1234.6,1623.7,2347.3,2046.4,1156.8,70.0,-15.0,-46.0,6876.0,5199.0,11005.0,8544.0,-352.0,193.0,30.0,17.0,-20.0,-16.0,-3902.0,-3989.0,9895.0,11806.0,-93.0,-44.0,23.0,1.0
2022-05-23 14:01:12.364454-07:00,2610.2,774.5,1895.8,2047.4,1331.4,1513.4,1470.9,1688.1,3433.4,3431.0,2254.8,2002.5,1588.9,3422.5,1626.5,2136.1,3429.8,3432.2,789.4,1383.9,938.1,581.8,1780.1,2134.1,3429.8,3428.6,734.0,1237.3,1623.7,2188.1,1864.5,1151.5,28.0,58.0,-8.0,6847.0,5157.0,11035.0,8555.0,82.0,178.0,-128.0,13.0,24.0,6.0,-3897.0,-3979.0,9896.0,11810.0,-1.0,-10.0,-11.0,1.0
2022-05-23 14:01:12.365586-07:00,2610.2,774.5,1895.8,1966.7,1331.4,1493.0,1457.1,1674.8,3433.4,3431.0,2254.8,1845.0,1588.9,3426.2,1503.2,2047.4,3424.9,3420.1,787.7,1383.9,939.0,581.8,1780.1,2134.1,3429.8,3426.2,730.7,1237.3,1598.3,2188.1,1864.5,1151.5,31.0,-1.0,-31.0,6863.0,5028.0,11084.0,8556.0,-17.0,174.0,-319.0,12.0,0.0,-3.0,-3904.0,-3970.0,9858.0,11843.0,-141.0,-2.0,-26.0,1.0
2022-05-23 14:01:12.423539-07:00,2674.4,764.5,1803.2,1966.7,1308.8,1493.0,1457.1,1674.8,3434.6,3417.7,2083.6,1845.0,1581.4,3426.2,1503.2,2047.4,3424.9,3420.1,787.7,1382.1,939.0,578.6,1741.6,2111.8,3429.8,3426.2,730.7,1225.7,1598.3,2054.4,1711.0,1153.3,8.0,-32.0,-31.0,6869.0,4936.0,11195.0,8459.0,342.0,90.0,-281.0,21.0,-11.0,3.0,-3908.0,-3974.0,9832.0,11862.0,5.0,46.0,-42.0,1.0
2022-05-23 14:01:12.572939-07:00,2674.4,764.5,1803.2,1911.5,1307.9,1485.6,1446.0,1675.7,3434.6,3417.7,2083.6,1767.5,1575.8,3429.8,1432.3,1987.5,3432.2,3421.3,791.9,1378.5,938.1,578.6,1741.6,2111.8,3433.4,3418.9,729.0,1233.7,1573.9,2054.4,1711.0,1153.3,-19.0,-66.0,-52.0,6844.0,4976.0,11302.0,8312.0,482.0,-104.0,24.0,11.0,-18.0,19.0,-3906.0,-4007.0,9850.0,11836.0,173.0,69.0,-16.0,1.0
2022-05-23 14:01:12.575747-07:00,2693.0,750.5,1718.6,1865.4,1307.9,1485.6,1446.0,1675.7,3416.5,3428.6,2055.4,1757.9,1575.8,3429.8,1432.3,1987.5,3432.2,3421.3,791.9,1378.5,932.2,581.0,1791.6,2101.7,3433.4,3418.9,729.0,1233.7,1560.9,1976.6,1627.5,1154.2,103.0,-24.0,-40.0,6786.0,5270.0,11350.0,8111.0,812.0,-323.0,407.0,-16.0,11.0,-85.0,-3889.0,-4056.0,9968.0,11726.0,515.0,6.0,40.0,1.0
2022-05-23 14:01:12.603770-07:00,2693.0,750.5,1718.6,1865.4,1290.0,1473.6,1435.0,1668.2,3416.5,3428.6,2055.4,1757.9,1571.1,3424.9,1388.5,1943.0,3424.9,3426.2,791.0,1386.6,932.2,581.0,1791.6,2101.7,3432.2,3431.0,724.1,1267.6,1560.9,1976.6,1627.5,1154.2,-55.0,-7.0,-26.0,6663.0,5415.0,11425.0,8011.0,585.0,17.0,182.0,15.0,-3.0,67.0,-3847.0,-4082.0,10102.0,11616.0,329.0,6.0,32.0,1.0
2022-05-23 14:01:12.605156-07:00,2631.9,734.8,1688.1,1844.0,1290.0,1473.6,1435.0,1668.2,3433.4,3424.9,2122.0,1757.0,1571.1,3424.9,1388.5,1943.0,3424.9,3426.2,791.0,1386.6,939.8,588.3,1750.2,2081.6,3432.2,3431.0,724.1,1267.6,1548.7,1923.3,1589.9,1148.0,44.0,-7.0,-45.0,6584.0,5601.0,11514.0,7820.0,620.0,-201.0,122.0,5.0,2.0,-50.0,-3839.0,-4131.0,10186.0,11527.0,300.0,78.0,0.0,1.0
2022-05-23 14:01:12.693132-07:00,2631.9,734.8,1688.1,1844.0,1263.1,1480.1,1407.6,1653.0,3433.4,3424.9,2122.0,1757.0,1559.9,3423.7,1374.8,1932.1,3427.4,3429.8,808.5,1383.9,939.8,588.3,1750.2,2081.6,3435.8,3439.5,729.9,1275.6,1548.7,1923.3,1589.9,1148.0,21.0,-35.0,-40.0,6514.0,5728.0,11576.0,7693.0,317.0,-45.0,112.0,19.0,2.0,14.0,-3825.0,-4162.0,10253.0,11461.0,128.0,18.0,21.0,1.0
2022-05-23 14:01:12.695781-07:00,2588.5,724.1,1638.8,1814.9,1263.1,1480.1,1407.6,1653.9,3426.2,3426.2,2188.1,1748.3,1559.9,3423.7,1374.8,1921.3,3420.1,3429.8,808.5,1383.9,936.4,589.1,1726.3,2067.5,3428.6,3439.5,729.9,1275.6,1545.9,1923.3,1558.1,1143.6,8.0,-52.0,-57.0,6482.0,5880.0,11609.0,7555.0,492.0,-341.0,177.0,8.0,4.0,-22.0,-3824.0,-4179.0,10301.0,11412.0,158.0,25.0,38.0,1.0
2022-05-23 14:01:12.842760-07:00,2562.6,724.1,1638.8,1814.9,1267.6,1497.7,1393.0,1653.9,3422.5,3426.2,2188.1,1748.3,1557.1,3423.7,1388.5,1921.3,3420.1,3432.2,796.9,1383.0,936.4,589.1,1726.3,2057.4,3428.6,3428.6,728.2,1277.4,1545.9,1923.3,1558.1,1147.1,27.0,3.0,-58.0,6488.0,6060.0,11602.0,7417.0,-13.0,-314.0,126.0,8.0,17.0,-7.0,-3817.0,-4166.0,10333.0,11390.0,-64.0,-72.0,49.0,1.0
2022-05-23 14:01:12.844182-07:00,2562.6,725.8,1612.4,1813.9,1267.6,1497.7,1393.0,1646.4,3422.5,3428.6,2503.6,1798.4,1557.1,3423.7,1388.5,1938.0,3426.2,3432.2,796.9,1383.0,936.4,594.7,1702.4,2057.4,3428.6,3428.6,728.2,1277.4,1548.7,1885.0,1538.5,1147.1,-66.0,-100.0,-75.0,6587.0,6242.0,11485.0,7361.0,256.0,-849.0,523.0,6.0,-21.0,29.0,-3816.0,-4133.0,10337.0,11400.0,127.0,-43.0,33.0,1.0
2022-05-23 14:01:12.845118-07:00,2565.9,725.8,1612.4,1813.9,1267.6,1482.9,1391.2,1646.4,3434.6,3428.6,2503.6,1798.4,1554.3,3426.2,1415.8,1938.0,3426.2,3421.3,791.0,1380.3,936.4,594.7,1702.4,2050.4,3428.6,3427.4,729.9,1259.6,1548.7,1885.0,1538.5,1138.4,106.0,53.0,-55.0,6732.0,6638.0,11243.0,7256.0,-129.0,-837.0,475.0,-8.0,28.0,-80.0,-3780.0,-4117.0,10398.0,11361.0,44.0,-142.0,15.0,1.0
2022-05-23 14:01:12.903050-07:00,2565.9,721.6,1573.0,1789.7,1267.6,1482.9,1391.2,1648.3,3434.6,3427.4,2816.8,1839.1,1554.3,3426.2,1415.8,1972.7,3422.5,3421.3,791.0,1380.3,927.1,592.3,1659.6,2050.4,3432.2,3427.4,729.9,1259.6,1526.4,1860.6,1527.3,1138.4,30.0,39.0,-33.0,6944.0,6810.0,10988.0,7287.0,-527.0,-660.0,190.0,29.0,22.0,-12.0,-3742.0,-4047.0,10382.0,11414.0,-186.0,-194.0,-5.0,1.0
2022-05-23 14:01:12.932886-07:00,2625.4,721.6,1573.0,1789.7,1267.6,1447.9,1375.7,1648.3,3422.5,3427.4,2816.8,1839.1,1562.7,3423.7,1576.8,1972.7,3422.5,3429.8,791.9,1375.7,927.1,592.3,1659.6,2046.4,3432.2,3431.0,731.5,1228.4,1526.4,1860.6,1527.3,1136.6,47.0,-19.0,19.0,7126.0,6862.0,10769.0,7389.0,-554.0,-192.0,307.0,43.0,5.0,-9.0,-3712.0,-3981.0,10342.0,11483.0,-121.0,-149.0,-24.0,1.0
2022-05-23 14:01:13.022818-07:00,2625.4,718.4,1586.1,1791.6,1267.6,1447.9,1367.6,1636.0,3422.5,3424.9,2785.7,1904.6,1562.7,3423.7,1689.1,1999.5,3423.7,3421.3,791.9,1375.7,929.6,588.3,1562.7,2046.4,3429.8,3428.6,731.5,1228.4,1523.6,1944.0,1613.4,1136.6,-52.0,-49.0,-57.0,7237.0,6845.0,10538.0,7626.0,-780.0,-219.0,332.0,19.0,-10.0,61.0,-3698.0,-3935.0,10302.0,11539.0,-177.0,-60.0,-11.0,1.0
2022-05-23 14:01:13.083006-07:00,2579.9,716.7,1586.1,1791.6,1243.5,1440.5,1367.6,1636.0,3418.9,3426.2,2785.7,1904.6,1551.5,3418.9,1689.1,1999.5,3423.7,3421.3,791.9,1371.2,929.6,588.3,1470.0,2063.5,3429.8,3428.6,730.7,1176.2,1523.6,1944.0,1976.6,1138.4,40.0,-73.0,-68.0,7343.0,6938.0,10285.0,7784.0,-106.0,-504.0,492.0,-5.0,-15.0,-16.0,-3702.0,-3928.0,10304.0,11539.0,68.0,8.0,49.0,1.0
2022-05-23 14:01:13.084223-07:00,2579.9,716.7,1721.5,1834.3,1243.5,1440.5,1376.6,1610.5,3418.9,3426.2,2649.3,1939.0,1551.5,3418.9,1710.0,2108.8,3428.6,3418.9,791.9,1371.2,927.9,581.0,1470.0,2063.5,3428.6,3423.7,730.7,1176.2,1541.3,2239.4,1976.6,1138.4,54.0,61.0,-47.0,7391.0,7128.0,10112.0,7794.0,-161.0,-247.0,158.0,-5.0,12.0,-52.0,-3705.0,-3898.0,10310.0,11542.0,-129.0,-76.0,41.0,1.0
2022-05-23 14:01:13.142966-07:00,2540.1,712.6,1721.5,1834.3,1237.3,1418.6,1376.6,1610.5,3431.0,3429.8,2649.3,1939.0,1547.8,3431.0,1710.0,2108.8,3428.6,3418.9,786.9,1373.0,927.9,581.0,1382.1,2084.6,3428.6,3423.7,728.2,1139.2,1541.3,2239.4,2081.6,1132.2,14.0,3.0,-11.0,7530.0,7091.0,9981.0,7863.0,-707.0,-110.0,-101.0,8.0,39.0,-10.0,-3727.0,-3836.0,10214.0,11640.0,-491.0,-95.0,30.0,1.0
2022-05-23 14:01:13.202684-07:00,2540.1,712.6,1974.6,2021.4,1237.3,1418.6,1367.6,1613.4,3431.0,3429.8,2626.5,2063.5,1547.8,3431.0,1726.3,2337.9,3423.7,3422.5,786.9,1373.0,932.2,573.0,1382.1,2084.6,3432.2,3428.6,728.2,1139.2,1611.5,2385.0,2081.6,1132.2,-2.0,-68.0,-39.0,7693.0,6930.0,9851.0,8011.0,-435.0,8.0,-78.0,18.0,-13.0,7.0,-3758.0,-3771.0,10096.0,11754.0,-277.0,-59.0,5.0,1.0
2022-05-23 14:01:13.232809-07:00,2496.2,726.6,2137.2,2021.4,1245.3,1407.6,1367.6,1613.4,3422.5,3431.0,2618.8,2063.5,1547.8,3431.0,1726.3,2337.9,3423.7,3422.5,790.2,1376.6,932.2,575.4,1348.5,2092.6,3432.2,3428.6,733.2,1124.4,1611.5,2296.2,1990.5,1136.6,21.0,-38.0,-52.0,7748.0,6876.0,9783.0,8089.0,-272.0,-60.0,66.0,18.0,22.0,19.0,-3762.0,-3754.0,10068.0,11783.0,-75.0,-25.0,-4.0,1.0
2022-05-23 14:01:13.292828-07:00,2496.2,726.6,2137.2,2229.1,1245.3,1406.7,1412.2,1620.9,3422.5,3431.0,2618.8,2148.3,1547.8,3428.6,1676.7,2349.4,3429.8,3429.8,791.9,1376.6,927.9,575.4,1348.5,2092.6,3427.4,3423.7,738.9,1124.4,1683.3,2296.2,1990.5,1136.6,-7.0,-37.0,-59.0,7785.0,6839.0,9708.0,8174.0,-198.0,-51.0,123.0,22.0,-13.0,7.0,-3766.0,-3737.0,10047.0,11805.0,-57.0,-16.0,7.0,1.0
